frequency,raw,error,smoothed,error_smoothed,equalization,parametric_eq,fixed_band_eq,equalized_raw,equalized_smoothed,target
20.00,7.00,2.38,7.00,2.38,-2.42,-2.06,-0.73,4.58,4.58,4.62
20.20,7.00,2.34,7.01,2.35,-2.36,-2.06,-0.76,4.64,4.64,4.66
20.40,7.00,2.31,7.01,2.32,-2.31,-2.05,-0.78,4.69,4.70,4.69
20.61,7.00,2.28,7.01,2.28,-2.26,-2.05,-0.81,4.75,4.75,4.72
20.81,7.00,2.24,7.01,2.25,-2.21,-2.05,-0.83,4.80,4.80,4.76
21.02,7.00,2.20,6.99,2.20,-2.16,-2.04,-0.86,4.84,4.83,4.80
21.23,6.95,2.14,6.96,2.14,-2.11,-2.04,-0.89,4.84,4.84,4.81
21.44,6.90,2.07,6.91,2.07,-2.07,-2.04,-0.91,4.83,4.84,4.83
21.66,6.85,2.00,6.85,2.00,-2.02,-2.03,-0.94,4.83,4.83,4.85
21.87,6.80,1.94,6.81,1.95,-1.98,-2.03,-0.97,4.83,4.83,4.86
22.09,6.77,1.90,6.78,1.91,-1.94,-2.02,-1.00,4.83,4.84,4.87
22.31,6.77,1.90,6.77,1.90,-1.91,-2.02,-1.04,4.86,4.86,4.87
22.54,6.77,1.89,6.77,1.89,-1.89,-2.01,-1.07,4.88,4.88,4.88
22.76,6.77,1.88,6.77,1.89,-1.88,-2.01,-1.10,4.90,4.90,4.89
22.99,6.77,1.88,6.77,1.88,-1.87,-2.00,-1.14,4.90,4.90,4.89
23.22,6.77,1.87,6.77,1.87,-1.86,-2.00,-1.17,4.91,4.91,4.90
23.45,6.77,1.86,6.77,1.86,-1.86,-1.99,-1.21,4.91,4.91,4.91
23.69,6.77,1.85,6.77,1.85,-1.85,-1.98,-1.24,4.92,4.92,4.92
23.92,6.77,1.84,6.77,1.84,-1.85,-1.98,-1.28,4.93,4.93,4.93
24.16,6.77,1.83,6.77,1.83,-1.84,-1.97,-1.32,4.93,4.93,4.94
24.40,6.77,1.82,6.77,1.83,-1.83,-1.96,-1.36,4.94,4.94,4.95
24.65,6.77,1.83,6.77,1.83,-1.83,-1.96,-1.40,4.94,4.94,4.94
24.89,6.77,1.83,6.77,1.83,-1.83,-1.95,-1.44,4.94,4.94,4.94
25.14,6.77,1.83,6.77,1.83,-1.83,-1.94,-1.48,4.94,4.94,4.94
25.39,6.77,1.83,6.77,1.84,-1.84,-1.93,-1.52,4.94,4.94,4.94
25.65,6.77,1.83,6.77,1.84,-1.84,-1.92,-1.56,4.93,4.93,4.94
25.91,6.77,1.85,6.77,1.84,-1.84,-1.92,-1.60,4.93,4.93,4.92
26.16,6.77,1.84,6.77,1.85,-1.84,-1.91,-1.64,4.93,4.93,4.93
26.43,6.77,1.84,6.77,1.85,-1.84,-1.90,-1.67,4.93,4.93,4.93
26.69,6.77,1.84,6.77,1.84,-1.84,-1.89,-1.71,4.93,4.93,4.93
26.96,6.77,1.84,6.77,1.84,-1.85,-1.88,-1.75,4.93,4.93,4.93
27.23,6.77,1.84,6.77,1.84,-1.85,-1.87,-1.79,4.92,4.92,4.93
27.50,6.77,1.84,6.77,1.85,-1.86,-1.86,-1.83,4.91,4.91,4.93
27.77,6.77,1.85,6.77,1.85,-1.87,-1.85,-1.86,4.91,4.91,4.92
28.05,6.77,1.85,6.77,1.86,-1.87,-1.84,-1.89,4.91,4.91,4.92
28.33,6.77,1.87,6.78,1.87,-1.86,-1.83,-1.93,4.92,4.92,4.90
28.62,6.77,1.86,6.78,1.87,-1.84,-1.82,-1.96,4.93,4.94,4.91
28.90,6.77,1.86,6.76,1.86,-1.82,-1.81,-1.98,4.96,4.94,4.91
29.19,6.73,1.83,6.72,1.82,-1.79,-1.80,-2.01,4.94,4.93,4.90
29.48,6.66,1.75,6.67,1.76,-1.76,-1.79,-2.03,4.90,4.91,4.91
29.78,6.60,1.69,6.61,1.70,-1.73,-1.78,-2.05,4.87,4.88,4.91
30.08,6.55,1.64,6.57,1.66,-1.70,-1.77,-2.07,4.85,4.86,4.91
30.38,6.55,1.66,6.55,1.65,-1.68,-1.76,-2.08,4.87,4.87,4.89
30.68,6.55,1.66,6.55,1.66,-1.67,-1.75,-2.10,4.89,4.88,4.89
30.99,6.55,1.67,6.55,1.67,-1.66,-1.74,-2.11,4.89,4.89,4.88
31.30,6.55,1.67,6.55,1.67,-1.66,-1.73,-2.11,4.89,4.89,4.88
31.61,6.55,1.67,6.55,1.68,-1.68,-1.71,-2.11,4.88,4.88,4.88
31.93,6.55,1.69,6.55,1.69,-1.69,-1.70,-2.11,4.86,4.86,4.86
32.24,6.55,1.70,6.55,1.70,-1.70,-1.69,-2.11,4.85,4.85,4.85
32.57,6.55,1.70,6.55,1.70,-1.71,-1.68,-2.10,4.84,4.84,4.85
32.89,6.55,1.70,6.55,1.71,-1.71,-1.67,-2.09,4.84,4.84,4.85
33.22,6.55,1.70,6.56,1.71,-1.70,-1.66,-2.08,4.85,4.85,4.85
33.55,6.55,1.71,6.56,1.71,-1.68,-1.64,-2.06,4.87,4.87,4.84
33.89,6.55,1.71,6.54,1.70,-1.66,-1.63,-2.04,4.89,4.88,4.84
34.23,6.50,1.66,6.49,1.66,-1.63,-1.62,-2.02,4.87,4.86,4.84
34.57,6.42,1.59,6.42,1.59,-1.60,-1.61,-2.00,4.82,4.82,4.83
34.92,6.34,1.52,6.36,1.54,-1.57,-1.60,-1.98,4.77,4.79,4.82
35.27,6.32,1.50,6.33,1.51,-1.55,-1.58,-1.95,4.77,4.78,4.82
35.62,6.32,1.51,6.32,1.51,-1.53,-1.57,-1.92,4.79,4.78,4.81
35.97,6.32,1.52,6.32,1.52,-1.53,-1.56,-1.89,4.80,4.79,4.80
36.33,6.32,1.52,6.32,1.53,-1.53,-1.55,-1.86,4.80,4.80,4.80
36.70,6.32,1.52,6.32,1.53,-1.53,-1.54,-1.83,4.79,4.79,4.80
37.06,6.32,1.54,6.33,1.54,-1.53,-1.52,-1.80,4.80,4.80,4.78
37.43,6.32,1.54,6.33,1.55,-1.52,-1.51,-1.77,4.81,4.81,4.78
37.81,6.32,1.55,6.31,1.55,-1.50,-1.50,-1.74,4.83,4.82,4.77
38.19,6.28,1.52,6.26,1.50,-1.47,-1.49,-1.71,4.81,4.79,4.76
38.57,6.19,1.43,6.19,1.44,-1.45,-1.47,-1.67,4.75,4.75,4.76
38.95,6.10,1.35,6.13,1.38,-1.42,-1.46,-1.64,4.68,4.71,4.75
39.34,6.09,1.35,6.09,1.35,-1.39,-1.45,-1.61,4.70,4.70,4.74
39.74,6.09,1.37,6.08,1.36,-1.38,-1.44,-1.58,4.72,4.71,4.72
40.14,6.09,1.36,6.09,1.37,-1.37,-1.43,-1.55,4.73,4.72,4.73
40.54,6.09,1.37,6.09,1.37,-1.37,-1.41,-1.51,4.72,4.72,4.72
40.94,6.09,1.37,6.09,1.38,-1.38,-1.40,-1.48,4.71,4.71,4.72
41.35,6.09,1.39,6.09,1.39,-1.40,-1.39,-1.46,4.69,4.69,4.70
41.76,6.09,1.41,6.09,1.41,-1.41,-1.38,-1.43,4.69,4.69,4.68
42.18,6.09,1.42,6.10,1.44,-1.41,-1.37,-1.40,4.69,4.69,4.67
42.60,6.09,1.45,6.09,1.45,-1.40,-1.35,-1.37,4.69,4.69,4.64
43.03,6.08,1.45,6.05,1.43,-1.40,-1.34,-1.34,4.68,4.65,4.63
43.46,5.98,1.38,5.98,1.39,-1.40,-1.33,-1.32,4.58,4.58,4.60
43.90,5.88,1.33,5.91,1.36,-1.41,-1.32,-1.30,4.48,4.51,4.55
44.33,5.86,1.34,5.87,1.35,-1.40,-1.31,-1.27,4.46,4.46,4.52
44.78,5.86,1.37,5.86,1.37,-1.39,-1.29,-1.25,4.47,4.47,4.49
45.23,5.86,1.40,5.87,1.41,-1.37,-1.28,-1.23,4.49,4.49,4.46
45.68,5.86,1.43,5.86,1.42,-1.36,-1.27,-1.21,4.50,4.50,4.43
46.13,5.83,1.42,5.81,1.40,-1.35,-1.26,-1.19,4.49,4.46,4.41
46.60,5.73,1.33,5.74,1.34,-1.34,-1.25,-1.17,4.39,4.40,4.40
47.06,5.64,1.26,5.68,1.29,-1.33,-1.24,-1.15,4.31,4.34,4.38
47.53,5.64,1.26,5.64,1.26,-1.32,-1.23,-1.13,4.32,4.31,4.38
48.01,5.64,1.26,5.63,1.26,-1.31,-1.22,-1.12,4.34,4.33,4.38
48.49,5.64,1.28,5.64,1.28,-1.28,-1.20,-1.10,4.36,4.36,4.36
48.97,5.64,1.29,5.65,1.30,-1.26,-1.19,-1.09,4.39,4.40,4.35
49.46,5.64,1.30,5.65,1.31,-1.23,-1.18,-1.07,4.41,4.42,4.34
49.96,5.64,1.30,5.60,1.26,-1.20,-1.17,-1.06,4.44,4.40,4.34
50.46,5.53,1.18,5.53,1.18,-1.18,-1.16,-1.05,4.35,4.35,4.35
50.96,5.42,1.06,5.46,1.11,-1.16,-1.15,-1.04,4.26,4.30,4.36
51.47,5.41,1.06,5.41,1.06,-1.14,-1.14,-1.03,4.27,4.27,4.35
51.99,5.41,1.08,5.40,1.07,-1.12,-1.13,-1.02,4.30,4.29,4.33
52.51,5.41,1.09,5.41,1.10,-1.10,-1.12,-1.01,4.31,4.32,4.32
53.03,5.41,1.12,5.42,1.13,-1.09,-1.11,-1.00,4.32,4.33,4.29
53.56,5.41,1.15,5.41,1.15,-1.10,-1.10,-0.99,4.32,4.31,4.26
54.10,5.39,1.17,5.35,1.14,-1.11,-1.10,-0.98,4.28,4.24,4.22
54.64,5.26,1.09,5.28,1.11,-1.13,-1.09,-0.98,4.14,4.15,4.17
55.18,5.18,1.06,5.21,1.09,-1.14,-1.08,-0.97,4.05,4.08,4.12
55.74,5.18,1.11,5.18,1.11,-1.14,-1.07,-0.97,4.05,4.05,4.07
56.29,5.18,1.16,5.18,1.17,-1.14,-1.06,-0.96,4.04,4.04,4.02
56.86,5.18,1.22,5.14,1.19,-1.15,-1.05,-0.96,4.03,3.99,3.96
57.42,5.08,1.19,5.07,1.18,-1.17,-1.04,-0.95,3.91,3.90,3.89
58.00,4.95,1.12,5.00,1.17,-1.20,-1.04,-0.95,3.75,3.80,3.83
58.58,4.95,1.18,4.95,1.18,-1.23,-1.03,-0.94,3.72,3.72,3.77
59.16,4.95,1.23,4.94,1.23,-1.26,-1.02,-0.94,3.69,3.68,3.72
59.76,4.95,1.29,4.97,1.31,-1.28,-1.01,-0.94,3.67,3.68,3.66
60.35,4.95,1.36,4.96,1.36,-1.30,-1.01,-0.94,3.65,3.65,3.59
60.96,4.95,1.41,4.91,1.37,-1.34,-1.00,-0.94,3.62,3.57,3.54
61.57,4.82,1.35,4.83,1.36,-1.37,-0.99,-0.93,3.46,3.47,3.47
62.18,4.72,1.32,4.76,1.35,-1.39,-0.99,-0.93,3.33,3.37,3.40
62.80,4.72,1.36,4.72,1.37,-1.41,-0.98,-0.93,3.31,3.31,3.36
63.43,4.72,1.42,4.72,1.42,-1.42,-0.98,-0.93,3.30,3.30,3.30
64.07,4.72,1.46,4.72,1.46,-1.43,-0.97,-0.93,3.30,3.29,3.26
64.71,4.68,1.47,4.67,1.46,-1.43,-0.96,-0.93,3.26,3.24,3.21
65.35,4.61,1.45,4.60,1.44,-1.43,-0.96,-0.93,3.19,3.18,3.16
66.01,4.50,1.37,4.54,1.42,-1.42,-0.95,-0.93,3.08,3.12,3.13
66.67,4.50,1.41,4.50,1.41,-1.41,-0.95,-0.93,3.09,3.08,3.09
67.33,4.47,1.41,4.45,1.39,-1.40,-0.95,-0.93,3.07,3.05,3.06
68.01,4.40,1.37,4.40,1.37,-1.38,-0.94,-0.94,3.03,3.02,3.03
68.69,4.31,1.31,4.33,1.34,-1.35,-0.94,-0.94,2.96,2.98,3.00
69.37,4.27,1.31,4.29,1.33,-1.33,-0.93,-0.94,2.94,2.96,2.96
70.07,4.27,1.34,4.27,1.34,-1.32,-0.93,-0.94,2.96,2.96,2.93
70.77,4.27,1.35,4.23,1.32,-1.30,-0.93,-0.95,2.97,2.93,2.92
71.48,4.16,1.28,4.16,1.28,-1.28,-0.93,-0.95,2.89,2.88,2.88
72.19,4.04,1.18,4.09,1.24,-1.26,-0.92,-0.96,2.79,2.84,2.86
72.91,4.04,1.22,4.05,1.23,-1.24,-0.92,-0.96,2.81,2.81,2.82
73.64,4.04,1.25,4.01,1.22,-1.22,-0.92,-0.97,2.82,2.79,2.79
74.38,3.98,1.22,3.96,1.20,-1.20,-0.92,-0.98,2.79,2.77,2.76
75.12,3.86,1.13,3.89,1.16,-1.17,-0.92,-0.98,2.69,2.72,2.73
75.87,3.82,1.12,3.84,1.14,-1.15,-0.92,-0.99,2.68,2.69,2.70
76.63,3.81,1.14,3.81,1.14,-1.13,-0.92,-1.00,2.69,2.68,2.67
77.40,3.79,1.15,3.77,1.13,-1.11,-0.92,-1.01,2.69,2.66,2.64
78.17,3.72,1.11,3.70,1.09,-1.09,-0.92,-1.02,2.63,2.61,2.61
78.95,3.59,0.99,3.63,1.04,-1.07,-0.92,-1.03,2.52,2.56,2.60
79.74,3.58,1.00,3.59,1.01,-1.05,-0.92,-1.04,2.53,2.54,2.58
80.54,3.58,1.02,3.58,1.02,-1.03,-0.93,-1.06,2.55,2.55,2.56
81.35,3.58,1.04,3.58,1.04,-1.00,-0.93,-1.07,2.58,2.58,2.54
82.16,3.56,1.02,3.54,1.00,-0.97,-0.93,-1.08,2.59,2.57,2.54
82.98,3.48,0.94,3.48,0.95,-0.93,-0.94,-1.10,2.55,2.55,2.54
83.81,3.38,0.85,3.42,0.89,-0.88,-0.94,-1.11,2.50,2.54,2.53
84.65,3.36,0.84,3.35,0.82,-0.82,-0.94,-1.13,2.54,2.52,2.52
85.50,3.30,0.77,3.28,0.75,-0.75,-0.95,-1.15,2.55,2.53,2.53
86.35,3.19,0.66,3.22,0.69,-0.68,-0.96,-1.17,2.52,2.54,2.53
87.22,3.12,0.59,3.12,0.59,-0.60,-0.96,-1.19,2.52,2.52,2.53
88.09,3.06,0.53,3.03,0.49,-0.52,-0.97,-1.21,2.54,2.51,2.53
88.97,2.91,0.36,2.97,0.43,-0.44,-0.98,-1.23,2.47,2.53,2.55
89.86,2.90,0.35,2.90,0.36,-0.35,-0.98,-1.25,2.55,2.55,2.55
90.76,2.88,0.35,2.84,0.30,-0.27,-0.99,-1.27,2.61,2.56,2.53
91.66,2.74,0.20,2.77,0.24,-0.20,-1.00,-1.30,2.54,2.57,2.54
92.58,2.67,0.16,2.66,0.14,-0.14,-1.01,-1.32,2.53,2.53,2.51
93.51,2.57,0.05,2.56,0.04,-0.09,-1.02,-1.35,2.48,2.47,2.52
94.44,2.46,-0.04,2.49,-0.01,-0.05,-1.04,-1.38,2.41,2.44,2.50
95.39,2.44,-0.05,2.45,-0.03,-0.01,-1.05,-1.40,2.43,2.44,2.49
96.34,2.44,-0.01,2.44,-0.01,0.03,-1.06,-1.43,2.47,2.47,2.45
97.30,2.44,0.01,2.42,-0.01,0.06,-1.08,-1.46,2.51,2.49,2.43
98.28,2.39,-0.02,2.37,-0.04,0.10,-1.09,-1.49,2.49,2.47,2.41
99.26,2.25,-0.13,2.30,-0.08,0.13,-1.11,-1.52,2.38,2.43,2.38
100.25,2.21,-0.14,2.20,-0.15,0.15,-1.12,-1.55,2.37,2.35,2.35
101.25,2.14,-0.18,2.10,-0.21,0.18,-1.14,-1.58,2.32,2.28,2.32
102.27,1.99,-0.29,2.04,-0.23,0.19,-1.16,-1.62,2.19,2.24,2.28
103.29,1.99,-0.24,1.99,-0.24,0.20,-1.18,-1.65,2.19,2.19,2.23
104.32,1.99,-0.20,1.98,-0.21,0.18,-1.20,-1.68,2.18,2.16,2.19
105.37,1.99,-0.15,1.99,-0.15,0.16,-1.23,-1.71,2.15,2.15,2.14
106.42,1.99,-0.10,1.99,-0.09,0.11,-1.25,-1.74,2.11,2.11,2.09
107.48,1.99,-0.03,1.99,-0.02,0.06,-1.28,-1.78,2.05,2.05,2.02
108.56,1.99,0.05,1.99,0.05,-0.02,-1.31,-1.81,1.98,1.98,1.94
109.64,1.99,0.12,1.99,0.12,-0.11,-1.34,-1.84,1.88,1.88,1.87
110.74,1.99,0.18,1.97,0.17,-0.21,-1.37,-1.87,1.78,1.76,1.81
111.85,1.99,0.25,2.01,0.27,-0.32,-1.40,-1.90,1.67,1.69,1.74
112.97,2.01,0.36,2.07,0.41,-0.44,-1.44,-1.93,1.58,1.63,1.65
114.10,2.22,0.63,2.16,0.58,-0.56,-1.48,-1.96,1.66,1.60,1.59
115.24,2.25,0.74,2.28,0.77,-0.71,-1.52,-1.99,1.55,1.57,1.51
116.39,2.37,0.94,2.36,0.93,-0.87,-1.57,-2.01,1.51,1.50,1.43
117.55,2.44,1.07,2.39,1.03,-1.04,-1.62,-2.04,1.40,1.35,1.37
118.73,2.45,1.15,2.50,1.19,-1.24,-1.68,-2.06,1.21,1.26,1.30
119.92,2.56,1.30,2.64,1.39,-1.45,-1.74,-2.08,1.11,1.19,1.26
121.12,2.91,1.71,2.82,1.62,-1.68,-1.81,-2.10,1.23,1.14,1.20
122.33,3.05,1.89,3.05,1.88,-1.91,-1.88,-2.12,1.15,1.14,1.16
123.55,3.23,2.09,3.29,2.16,-2.13,-1.96,-2.14,1.10,1.15,1.14
124.79,3.49,2.39,3.49,2.39,-2.36,-2.06,-2.16,1.14,1.13,1.10
126.03,3.74,2.68,3.71,2.64,-2.57,-2.16,-2.17,1.18,1.14,1.06
127.29,3.86,2.83,3.88,2.85,-2.76,-2.28,-2.18,1.10,1.11,1.03
128.57,3.99,3.00,3.97,2.98,-2.95,-2.42,-2.19,1.05,1.03,0.99
129.85,4.04,3.08,4.04,3.08,-3.12,-2.57,-2.20,0.93,0.92,0.96
131.15,4.09,3.16,4.13,3.20,-3.28,-2.75,-2.20,0.82,0.85,0.93
132.46,4.22,3.32,4.24,3.34,-3.43,-2.94,-2.21,0.80,0.81,0.90
133.79,4.41,3.54,4.38,3.52,-3.57,-3.15,-2.21,0.84,0.81,0.87
135.12,4.51,3.69,4.54,3.71,-3.71,-3.36,-2.22,0.81,0.83,0.82
136.48,4.66,3.87,4.65,3.86,-3.82,-3.54,-2.22,0.84,0.83,0.79
137.84,4.72,3.96,4.72,3.97,-3.91,-3.68,-2.22,0.81,0.81,0.76
139.22,4.72,4.01,4.74,4.03,-3.96,-3.75,-2.22,0.76,0.78,0.71
140.61,4.72,4.06,4.71,4.04,-3.96,-3.76,-2.22,0.76,0.74,0.66
142.02,4.61,3.97,4.63,3.99,-3.93,-3.70,-2.22,0.69,0.70,0.64
143.44,4.51,3.91,4.49,3.89,-3.86,-3.61,-2.22,0.65,0.62,0.60
144.87,4.31,3.75,4.32,3.76,-3.79,-3.52,-2.22,0.53,0.53,0.56
146.32,4.12,3.61,4.14,3.63,-3.71,-3.43,-2.22,0.41,0.43,0.51
147.78,3.99,3.52,3.98,3.52,-3.64,-3.37,-2.22,0.36,0.35,0.47
149.26,3.87,3.47,3.89,3.50,-3.57,-3.32,-2.22,0.30,0.32,0.40
150.75,3.81,3.49,3.83,3.50,-3.52,-3.29,-2.22,0.30,0.31,0.32
152.26,3.80,3.55,3.76,3.52,-3.48,-3.28,-2.22,0.33,0.29,0.25
153.78,3.66,3.48,3.67,3.51,-3.45,-3.28,-2.22,0.21,0.23,0.18
155.32,3.55,3.47,3.54,3.45,-3.42,-3.30,-2.22,0.14,0.12,0.08
156.88,3.36,3.35,3.37,3.36,-3.37,-3.32,-2.23,-0.01,-0.00,0.01
158.44,3.19,3.25,3.22,3.29,-3.29,-3.36,-2.23,-0.10,-0.07,-0.06
160.03,3.07,3.21,3.07,3.21,-3.18,-3.40,-2.24,-0.10,-0.11,-0.14
161.63,2.93,3.13,2.92,3.12,-3.04,-3.44,-2.25,-0.10,-0.12,-0.20
163.24,2.74,2.99,2.73,2.98,-2.89,-3.49,-2.26,-0.15,-0.16,-0.25
164.88,2.50,2.79,2.49,2.78,-2.74,-3.55,-2.27,-0.24,-0.25,-0.29
166.53,2.24,2.57,2.26,2.59,-2.62,-3.60,-2.29,-0.38,-0.37,-0.33
168.19,2.06,2.42,2.08,2.43,-2.54,-3.66,-2.30,-0.47,-0.46,-0.36
169.87,1.99,2.36,2.00,2.37,-2.49,-3.71,-2.32,-0.49,-0.49,-0.37
171.57,1.99,2.37,2.01,2.39,-2.48,-3.77,-2.34,-0.49,-0.47,-0.38
173.29,2.13,2.51,2.10,2.48,-2.52,-3.82,-2.36,-0.39,-0.42,-0.38
175.02,2.22,2.58,2.25,2.62,-2.61,-3.87,-2.38,-0.39,-0.36,-0.36
176.77,2.41,2.78,2.42,2.79,-2.74,-3.92,-2.41,-0.32,-0.32,-0.37
178.54,2.61,2.97,2.58,2.94,-2.89,-3.96,-2.43,-0.28,-0.31,-0.36
180.32,2.75,3.10,2.74,3.10,-3.05,-3.99,-2.46,-0.30,-0.31,-0.35
182.13,2.85,3.20,2.87,3.22,-3.22,-4.03,-2.49,-0.36,-0.35,-0.35
183.95,2.99,3.34,3.00,3.35,-3.37,-4.05,-2.53,-0.38,-0.37,-0.35
185.79,3.12,3.48,3.14,3.50,-3.52,-4.07,-2.56,-0.40,-0.38,-0.36
187.65,3.29,3.67,3.25,3.63,-3.65,-4.09,-2.60,-0.36,-0.40,-0.38
189.52,3.35,3.75,3.36,3.76,-3.76,-4.09,-2.63,-0.41,-0.40,-0.40
191.42,3.41,3.83,3.45,3.87,-3.85,-4.09,-2.67,-0.43,-0.40,-0.42
193.33,3.53,3.97,3.52,3.96,-3.91,-4.08,-2.71,-0.37,-0.38,-0.44
195.27,3.58,4.02,3.57,4.02,-3.95,-4.07,-2.76,-0.36,-0.38,-0.44
197.22,3.58,4.04,3.54,4.01,-3.96,-4.04,-2.80,-0.38,-0.42,-0.46
199.19,3.45,3.95,3.47,3.96,-3.97,-4.01,-2.84,-0.51,-0.50,-0.50
201.18,3.36,3.86,3.40,3.91,-3.96,-3.97,-2.89,-0.60,-0.57,-0.50
203.19,3.36,3.88,3.35,3.88,-3.96,-3.93,-2.93,-0.59,-0.60,-0.52
205.23,3.36,3.91,3.35,3.89,-3.95,-3.88,-2.98,-0.58,-0.59,-0.55
207.28,3.36,3.91,3.36,3.92,-3.93,-3.82,-3.02,-0.57,-0.57,-0.55
209.35,3.36,3.93,3.36,3.94,-3.92,-3.76,-3.07,-0.55,-0.55,-0.57
211.44,3.36,3.96,3.38,3.97,-3.91,-3.70,-3.12,-0.55,-0.53,-0.60
213.56,3.36,3.96,3.35,3.96,-3.91,-3.63,-3.16,-0.54,-0.55,-0.60
215.69,3.36,3.96,3.29,3.90,-3.90,-3.55,-3.20,-0.53,-0.60,-0.60
217.85,3.15,3.78,3.22,3.84,-3.87,-3.48,-3.25,-0.72,-0.66,-0.63
220.03,3.13,3.77,3.15,3.79,-3.84,-3.40,-3.29,-0.71,-0.69,-0.64
222.23,3.13,3.79,3.13,3.78,-3.80,-3.31,-3.33,-0.67,-0.67,-0.66
224.45,3.13,3.79,3.13,3.79,-3.76,-3.23,-3.36,-0.63,-0.63,-0.66
226.70,3.13,3.79,3.08,3.74,-3.72,-3.15,-3.39,-0.59,-0.64,-0.66
228.96,2.97,3.64,3.01,3.68,-3.69,-3.06,-3.42,-0.71,-0.68,-0.67
231.25,2.92,3.59,2.95,3.63,-3.64,-2.98,-3.45,-0.72,-0.69,-0.67
233.57,2.90,3.58,2.90,3.58,-3.59,-2.89,-3.47,-0.69,-0.69,-0.68
235.90,2.90,3.59,2.86,3.55,-3.52,-2.80,-3.49,-0.62,-0.66,-0.69
238.26,2.79,3.48,2.81,3.50,-3.45,-2.72,-3.50,-0.66,-0.64,-0.69
240.64,2.69,3.38,2.72,3.41,-3.38,-2.64,-3.51,-0.69,-0.66,-0.69
243.05,2.67,3.35,2.62,3.30,-3.32,-2.55,-3.51,-0.65,-0.70,-0.68
245.48,2.51,3.18,2.53,3.21,-3.26,-2.47,-3.51,-0.75,-0.73,-0.67
247.93,2.44,3.10,2.47,3.14,-3.20,-2.39,-3.50,-0.75,-0.73,-0.66
250.41,2.44,3.11,2.44,3.11,-3.13,-2.31,-3.48,-0.69,-0.69,-0.67
252.92,2.44,3.10,2.44,3.09,-3.06,-2.24,-3.46,-0.62,-0.62,-0.66
255.45,2.44,3.07,2.40,3.04,-2.99,-2.16,-3.43,-0.55,-0.59,-0.63
258.00,2.31,2.94,2.34,2.97,-2.93,-2.09,-3.40,-0.61,-0.58,-0.63
260.58,2.22,2.85,2.25,2.87,-2.86,-2.01,-3.36,-0.64,-0.62,-0.63
263.19,2.20,2.81,2.14,2.75,-2.79,-1.94,-3.32,-0.59,-0.65,-0.61
265.82,2.01,2.62,2.07,2.67,-2.71,-1.88,-3.27,-0.69,-0.64,-0.61
268.48,1.99,2.57,2.02,2.60,-2.61,-1.81,-3.22,-0.62,-0.60,-0.58
271.16,1.99,2.56,1.94,2.52,-2.51,-1.74,-3.16,-0.52,-0.57,-0.57
273.87,1.91,2.47,1.91,2.46,-2.42,-1.68,-3.10,-0.51,-0.51,-0.56
276.61,1.78,2.30,1.82,2.35,-2.33,-1.62,-3.03,-0.54,-0.51,-0.52
279.38,1.76,2.27,1.71,2.21,-2.23,-1.56,-2.96,-0.47,-0.52,-0.51
282.17,1.59,2.07,1.62,2.11,-2.13,-1.50,-2.89,-0.54,-0.51,-0.48
284.99,1.53,1.98,1.57,2.02,-2.03,-1.44,-2.81,-0.50,-0.46,-0.45
287.84,1.53,1.96,1.49,1.92,-1.92,-1.39,-2.73,-0.39,-0.43,-0.43
290.72,1.46,1.85,1.45,1.85,-1.82,-1.34,-2.65,-0.35,-0.37,-0.39
293.63,1.32,1.69,1.36,1.73,-1.72,-1.28,-2.57,-0.39,-0.35,-0.37
296.57,1.30,1.64,1.25,1.59,-1.62,-1.23,-2.48,-0.31,-0.37,-0.34
299.53,1.13,1.44,1.17,1.48,-1.52,-1.18,-2.39,-0.38,-0.35,-0.31
302.53,1.08,1.38,1.12,1.41,-1.41,-1.14,-2.31,-0.33,-0.29,-0.30
305.55,1.08,1.34,1.06,1.32,-1.30,-1.09,-2.22,-0.21,-0.24,-0.26
308.61,1.02,1.26,0.99,1.23,-1.19,-1.04,-2.13,-0.17,-0.20,-0.24
311.69,0.87,1.10,0.87,1.09,-1.08,-1.00,-2.04,-0.21,-0.21,-0.23
314.81,0.71,0.91,0.76,0.97,-0.98,-0.96,-1.95,-0.27,-0.22,-0.20
317.96,0.63,0.83,0.64,0.85,-0.89,-0.92,-1.86,-0.25,-0.24,-0.20
321.14,0.61,0.82,0.55,0.75,-0.79,-0.87,-1.78,-0.18,-0.24,-0.21
324.35,0.44,0.64,0.49,0.69,-0.69,-0.83,-1.69,-0.25,-0.20,-0.20
327.59,0.39,0.58,0.42,0.61,-0.58,-0.80,-1.60,-0.19,-0.16,-0.19
330.87,0.39,0.57,0.34,0.53,-0.48,-0.76,-1.51,-0.08,-0.13,-0.18
334.18,0.29,0.47,0.30,0.48,-0.39,-0.72,-1.42,-0.10,-0.09,-0.18
337.52,0.18,0.35,0.21,0.37,-0.33,-0.68,-1.34,-0.15,-0.12,-0.17
340.90,0.16,0.30,0.09,0.24,-0.31,-0.65,-1.25,-0.14,-0.21,-0.14
344.30,-0.01,0.12,0.03,0.16,-0.31,-0.61,-1.17,-0.32,-0.29,-0.13
347.75,0.00,0.12,0.06,0.18,-0.34,-0.58,-1.08,-0.34,-0.27,-0.12
351.23,0.18,0.27,0.20,0.30,-0.38,-0.54,-1.00,-0.20,-0.18,-0.09
354.74,0.45,0.52,0.41,0.48,-0.43,-0.51,-0.91,0.02,-0.02,-0.07
358.28,0.60,0.64,0.57,0.61,-0.47,-0.48,-0.83,0.13,0.09,-0.04
361.87,0.62,0.64,0.65,0.67,-0.52,-0.44,-0.75,0.11,0.13,-0.02
365.49,0.62,0.62,0.63,0.63,-0.54,-0.41,-0.67,0.08,0.09,-0.00
369.14,0.60,0.58,0.56,0.54,-0.53,-0.38,-0.59,0.07,0.03,0.02
372.83,0.45,0.40,0.48,0.44,-0.48,-0.35,-0.51,-0.03,0.00,0.05
376.56,0.39,0.32,0.43,0.36,-0.40,-0.32,-0.43,-0.01,0.03,0.07
380.33,0.39,0.29,0.38,0.28,-0.31,-0.29,-0.35,0.09,0.07,0.10
384.13,0.39,0.27,0.34,0.22,-0.22,-0.26,-0.27,0.17,0.11,0.12
387.97,0.24,0.11,0.27,0.15,-0.16,-0.23,-0.20,0.09,0.12,0.13
391.85,0.18,0.05,0.21,0.07,-0.11,-0.20,-0.12,0.08,0.10,0.13
395.77,0.17,0.03,0.16,0.03,-0.07,-0.17,-0.05,0.10,0.09,0.14
399.73,0.17,0.02,0.17,0.02,-0.04,-0.14,0.03,0.14,0.13,0.15
403.72,0.17,0.01,0.17,0.01,-0.00,-0.11,0.10,0.17,0.17,0.16
407.76,0.17,0.00,0.19,0.02,0.04,-0.08,0.17,0.21,0.23,0.17
411.84,0.17,-0.01,0.17,-0.01,0.07,-0.05,0.24,0.25,0.24,0.18
415.96,0.17,-0.02,0.11,-0.08,0.11,-0.02,0.31,0.28,0.22,0.19
420.12,-0.01,-0.20,0.04,-0.15,0.14,0.01,0.38,0.13,0.17,0.19
424.32,-0.06,-0.25,-0.03,-0.22,0.17,0.04,0.45,0.12,0.14,0.19
428.56,-0.06,-0.25,-0.07,-0.26,0.21,0.07,0.51,0.15,0.13,0.19
432.85,-0.06,-0.24,-0.06,-0.25,0.23,0.10,0.57,0.18,0.17,0.18
437.18,-0.06,-0.25,-0.06,-0.25,0.26,0.13,0.63,0.20,0.20,0.19
441.55,-0.06,-0.26,-0.06,-0.25,0.27,0.16,0.69,0.21,0.21,0.20
445.96,-0.06,-0.26,-0.06,-0.26,0.27,0.19,0.75,0.21,0.21,0.20
450.42,-0.06,-0.27,-0.06,-0.27,0.27,0.22,0.80,0.22,0.22,0.21
454.93,-0.06,-0.28,-0.06,-0.27,0.28,0.26,0.86,0.22,0.22,0.22
459.48,-0.06,-0.29,-0.06,-0.29,0.29,0.29,0.91,0.23,0.23,0.23
464.07,-0.06,-0.31,-0.06,-0.30,0.30,0.32,0.95,0.25,0.25,0.25
468.71,-0.06,-0.33,-0.06,-0.32,0.32,0.35,0.99,0.27,0.27,0.27
473.40,-0.06,-0.34,-0.06,-0.34,0.34,0.38,1.03,0.29,0.29,0.28
478.13,-0.06,-0.37,-0.06,-0.36,0.37,0.41,1.07,0.31,0.31,0.31
482.91,-0.06,-0.39,-0.06,-0.39,0.38,0.45,1.10,0.33,0.33,0.33
487.74,-0.06,-0.42,-0.06,-0.42,0.40,0.48,1.13,0.35,0.35,0.36
492.62,-0.06,-0.45,-0.06,-0.44,0.43,0.51,1.16,0.37,0.37,0.39
497.55,-0.06,-0.47,-0.06,-0.47,0.46,0.55,1.18,0.40,0.40,0.41
502.52,-0.06,-0.50,-0.05,-0.49,0.50,0.58,1.20,0.44,0.45,0.44
507.55,-0.06,-0.51,-0.04,-0.50,0.55,0.61,1.22,0.49,0.50,0.45
512.62,-0.06,-0.54,-0.07,-0.55,0.60,0.65,1.23,0.54,0.53,0.48
517.75,-0.10,-0.60,-0.14,-0.64,0.66,0.68,1.23,0.56,0.52,0.50
522.93,-0.25,-0.78,-0.21,-0.73,0.71,0.72,1.24,0.47,0.50,0.53
