frequency,raw,error,smoothed,error_smoothed,equalization,parametric_eq,fixed_band_eq,equalized_raw,equalized_smoothed,target
20.00,-3.89,-8.82,-3.89,-8.84,8.84,8.71,3.18,4.94,4.95,4.92
20.20,-3.85,-8.82,-3.85,-8.83,8.83,8.72,3.27,4.97,4.98,4.96
20.40,-3.80,-8.81,-3.81,-8.82,8.82,8.73,3.36,5.01,5.01,5.00
20.61,-3.76,-8.79,-3.77,-8.80,8.80,8.74,3.45,5.04,5.03,5.03
20.81,-3.72,-8.79,-3.72,-8.79,8.79,8.74,3.55,5.06,5.06,5.07
21.02,-3.68,-8.79,-3.68,-8.77,8.77,8.73,3.65,5.08,5.09,5.11
21.23,-3.63,-8.76,-3.64,-8.75,8.75,8.73,3.75,5.11,5.11,5.13
21.44,-3.59,-8.74,-3.59,-8.72,8.72,8.72,3.85,5.13,5.13,5.15
21.66,-3.54,-8.71,-3.55,-8.70,8.70,8.70,3.96,5.15,5.15,5.17
21.87,-3.50,-8.68,-3.50,-8.67,8.67,8.68,4.07,5.17,5.17,5.18
22.09,-3.45,-8.65,-3.45,-8.64,8.64,8.65,4.18,5.19,5.19,5.20
22.31,-3.40,-8.61,-3.40,-8.61,8.61,8.63,4.30,5.21,5.21,5.21
22.54,-3.35,-8.57,-3.35,-8.57,8.57,8.59,4.42,5.22,5.22,5.22
22.76,-3.30,-8.53,-3.30,-8.53,8.53,8.56,4.55,5.23,5.23,5.23
22.99,-3.25,-8.48,-3.25,-8.49,8.49,8.52,4.67,5.24,5.24,5.23
23.22,-3.20,-8.44,-3.20,-8.44,8.44,8.48,4.80,5.24,5.24,5.23
23.45,-3.14,-8.39,-3.15,-8.40,8.40,8.43,4.93,5.26,5.25,5.24
23.69,-3.09,-8.35,-3.10,-8.36,8.36,8.38,5.07,5.26,5.26,5.25
23.92,-3.04,-8.30,-3.04,-8.31,8.31,8.33,5.21,5.27,5.27,5.26
24.16,-2.98,-8.26,-2.99,-8.26,8.26,8.27,5.35,5.28,5.28,5.28
24.40,-2.93,-8.23,-2.93,-8.22,8.22,8.21,5.49,5.29,5.29,5.30
24.65,-2.87,-8.17,-2.87,-8.17,8.17,8.15,5.63,5.30,5.30,5.30
24.89,-2.81,-8.12,-2.81,-8.12,8.12,8.09,5.78,5.31,5.31,5.31
25.14,-2.76,-8.08,-2.76,-8.07,8.07,8.02,5.93,5.31,5.32,5.32
25.39,-2.69,-8.02,-2.70,-8.02,8.02,7.95,6.08,5.33,5.33,5.33
25.65,-2.63,-7.98,-2.63,-7.97,7.97,7.88,6.23,5.34,5.34,5.35
25.91,-2.57,-7.92,-2.57,-7.92,7.92,7.81,6.38,5.35,5.35,5.34
26.16,-2.51,-7.87,-2.51,-7.87,7.87,7.74,6.54,5.36,5.36,5.35
26.43,-2.44,-7.81,-2.45,-7.81,7.81,7.66,6.69,5.37,5.37,5.36
26.69,-2.38,-7.75,-2.38,-7.76,7.76,7.59,6.84,5.37,5.38,5.37
26.96,-2.31,-7.70,-2.32,-7.70,7.70,7.51,6.99,5.38,5.38,5.39
27.23,-2.24,-7.64,-2.25,-7.64,7.64,7.43,7.13,5.40,5.39,5.40
27.50,-2.17,-7.58,-2.19,-7.59,7.59,7.35,7.27,5.41,5.40,5.41
27.77,-2.11,-7.52,-2.12,-7.53,7.53,7.27,7.41,5.42,5.41,5.41
28.05,-2.04,-7.47,-2.05,-7.47,7.47,7.19,7.54,5.43,5.42,5.42
28.33,-1.96,-7.38,-1.98,-7.41,7.41,7.11,7.67,5.44,5.43,5.42
28.62,-1.89,-7.32,-1.90,-7.34,7.34,7.02,7.79,5.44,5.43,5.43
28.90,-1.82,-7.26,-1.82,-7.26,7.26,6.94,7.90,5.44,5.44,5.44
29.19,-1.74,-7.18,-1.73,-7.18,7.18,6.86,8.00,5.44,5.45,5.44
29.48,-1.66,-7.13,-1.64,-7.09,7.09,6.78,8.09,5.43,5.45,5.46
29.78,-1.58,-7.05,-1.54,-7.00,7.00,6.69,8.16,5.42,5.46,5.46
30.08,-1.49,-6.97,-1.43,-6.90,6.90,6.61,8.23,5.41,5.47,5.47
30.38,-1.35,-6.82,-1.32,-6.80,6.80,6.53,8.28,5.44,5.47,5.47
30.68,-1.21,-6.70,-1.21,-6.69,6.69,6.44,8.32,5.47,5.48,5.49
30.99,-1.08,-6.57,-1.08,-6.57,6.57,6.36,8.34,5.49,5.49,5.48
31.30,-0.94,-6.44,-0.96,-6.45,6.45,6.28,8.35,5.51,5.49,5.49
31.61,-0.81,-6.31,-0.83,-6.33,6.33,6.20,8.35,5.52,5.50,5.50
31.93,-0.68,-6.19,-0.70,-6.21,6.21,6.12,8.33,5.53,5.51,5.51
32.24,-0.56,-6.07,-0.57,-6.09,6.09,6.04,8.29,5.53,5.51,5.50
32.57,-0.43,-5.96,-0.44,-5.96,5.96,5.95,8.25,5.53,5.52,5.52
32.89,-0.31,-5.84,-0.32,-5.84,5.84,5.88,8.19,5.53,5.53,5.53
33.22,-0.19,-5.73,-0.19,-5.73,5.73,5.80,8.12,5.54,5.53,5.54
33.55,-0.08,-5.62,-0.08,-5.62,5.62,5.72,8.04,5.54,5.54,5.54
33.89,0.03,-5.52,0.03,-5.51,5.51,5.64,7.94,5.54,5.55,5.55
34.23,0.14,-5.42,0.14,-5.42,5.42,5.56,7.84,5.55,5.55,5.56
34.57,0.24,-5.32,0.24,-5.32,5.32,5.49,7.74,5.56,5.56,5.56
34.92,0.34,-5.22,0.33,-5.23,5.23,5.41,7.62,5.57,5.56,5.56
35.27,0.42,-5.15,0.41,-5.15,5.15,5.34,7.50,5.57,5.57,5.56
35.62,0.50,-5.07,0.49,-5.08,5.08,5.27,7.38,5.57,5.57,5.57
35.97,0.57,-5.00,0.56,-5.01,5.01,5.19,7.25,5.58,5.57,5.57
36.33,0.63,-4.94,0.62,-4.95,4.95,5.12,7.12,5.58,5.57,5.57
36.70,0.69,-4.88,0.68,-4.90,4.90,5.05,6.98,5.58,5.57,5.57
37.06,0.75,-4.83,0.72,-4.85,4.85,4.98,6.85,5.60,5.57,5.57
37.43,0.78,-4.80,0.76,-4.81,4.81,4.91,6.71,5.59,5.57,5.58
37.81,0.80,-4.78,0.79,-4.78,4.78,4.85,6.58,5.58,5.57,5.57
38.19,0.83,-4.74,0.81,-4.76,4.76,4.78,6.45,5.58,5.57,5.57
38.57,0.84,-4.73,0.83,-4.73,4.73,4.71,6.31,5.57,5.56,5.56
38.95,0.85,-4.71,0.84,-4.72,4.72,4.65,6.18,5.57,5.56,5.56
39.34,0.85,-4.70,0.85,-4.70,4.70,4.59,6.05,5.55,5.56,5.55
39.74,0.86,-4.69,0.86,-4.69,4.69,4.53,5.93,5.55,5.55,5.55
40.14,0.86,-4.69,0.87,-4.68,4.68,4.46,5.80,5.54,5.55,5.55
40.54,0.88,-4.67,0.88,-4.66,4.66,4.41,5.68,5.54,5.55,5.54
40.94,0.89,-4.65,0.90,-4.64,4.64,4.35,5.57,5.53,5.54,5.54
41.35,0.91,-4.62,0.92,-4.62,4.62,4.29,5.45,5.52,5.54,5.53
41.76,0.94,-4.59,0.95,-4.58,4.58,4.23,5.34,5.52,5.53,5.53
42.18,0.97,-4.57,0.98,-4.54,4.54,4.18,5.23,5.51,5.53,5.53
42.60,1.01,-4.52,1.02,-4.50,4.50,4.12,5.13,5.51,5.52,5.53
43.03,1.05,-4.48,1.07,-4.44,4.44,4.07,5.03,5.49,5.52,5.53
43.46,1.12,-4.40,1.13,-4.38,4.38,4.02,4.93,5.50,5.51,5.52
43.90,1.18,-4.33,1.20,-4.31,4.31,3.97,4.84,5.49,5.51,5.50
44.33,1.26,-4.24,1.27,-4.24,4.24,3.92,4.75,5.50,5.51,5.50
44.78,1.34,-4.16,1.34,-4.16,4.16,3.87,4.66,5.49,5.50,5.49
45.23,1.42,-4.07,1.42,-4.07,4.07,3.83,4.58,5.49,5.50,5.48
45.68,1.50,-3.99,1.51,-3.98,3.98,3.78,4.50,5.48,5.49,5.48
46.13,1.59,-3.89,1.59,-3.89,3.89,3.74,4.43,5.48,5.48,5.47
46.60,1.67,-3.82,1.67,-3.80,3.80,3.70,4.35,5.47,5.48,5.48
47.06,1.76,-3.71,1.75,-3.71,3.71,3.66,4.28,5.47,5.47,5.47
47.53,1.84,-3.62,1.83,-3.63,3.63,3.62,4.22,5.46,5.46,5.46
48.01,1.92,-3.55,1.90,-3.55,3.55,3.58,4.16,5.46,5.45,5.47
48.49,1.98,-3.47,1.96,-3.47,3.47,3.54,4.10,5.45,5.44,5.44
48.97,2.05,-3.37,2.02,-3.41,3.41,3.50,4.04,5.45,5.42,5.42
49.46,2.08,-3.33,2.06,-3.35,3.35,3.47,3.99,5.43,5.41,5.41
49.96,2.12,-3.27,2.09,-3.30,3.30,3.44,3.94,5.42,5.40,5.38
50.46,2.13,-3.25,2.12,-3.26,3.26,3.40,3.89,5.39,5.38,5.38
50.96,2.15,-3.22,2.13,-3.23,3.23,3.37,3.84,5.38,5.36,5.37
51.47,2.14,-3.19,2.13,-3.21,3.21,3.34,3.80,5.35,5.34,5.33
51.99,2.13,-3.19,2.12,-3.20,3.20,3.32,3.76,5.33,5.32,5.31
52.51,2.11,-3.20,2.10,-3.20,3.20,3.29,3.72,5.30,5.30,5.31
53.03,2.09,-3.19,2.08,-3.20,3.20,3.26,3.68,5.29,5.28,5.28
53.56,2.05,-3.22,2.04,-3.21,3.21,3.24,3.64,5.26,5.26,5.26
54.10,2.01,-3.23,2.00,-3.23,3.23,3.22,3.61,5.24,5.23,5.23
54.64,1.96,-3.26,1.96,-3.25,3.25,3.20,3.57,5.21,5.21,5.22
55.18,1.91,-3.28,1.91,-3.28,3.28,3.18,3.54,5.19,5.19,5.19
55.74,1.86,-3.30,1.86,-3.31,3.31,3.16,3.51,5.17,5.17,5.16
56.29,1.81,-3.34,1.81,-3.34,3.34,3.14,3.48,5.14,5.14,5.14
56.86,1.75,-3.37,1.75,-3.36,3.36,3.13,3.45,5.11,5.12,5.11
57.42,1.70,-3.38,1.70,-3.39,3.39,3.11,3.41,5.09,5.09,5.08
58.00,1.64,-3.42,1.65,-3.42,3.42,3.10,3.38,5.05,5.06,5.06
58.58,1.59,-3.45,1.60,-3.44,3.44,3.09,3.35,5.02,5.03,5.03
59.16,1.55,-3.46,1.55,-3.45,3.45,3.08,3.32,5.00,5.00,5.01
59.76,1.50,-3.49,1.51,-3.46,3.46,3.07,3.29,4.96,4.97,4.99
60.35,1.46,-3.49,1.47,-3.47,3.47,3.06,3.26,4.93,4.94,4.95
60.96,1.42,-3.50,1.43,-3.47,3.47,3.05,3.22,4.89,4.90,4.91
61.57,1.39,-3.48,1.40,-3.47,3.47,3.05,3.19,4.86,4.86,4.86
62.18,1.36,-3.46,1.37,-3.46,3.46,3.04,3.15,4.82,4.83,4.82
62.80,1.34,-3.45,1.34,-3.45,3.45,3.04,3.12,4.78,4.79,4.79
63.43,1.32,-3.42,1.32,-3.43,3.43,3.03,3.08,4.75,4.75,4.74
64.07,1.30,-3.40,1.30,-3.41,3.41,3.03,3.04,4.70,4.70,4.70
64.71,1.29,-3.37,1.28,-3.38,3.38,3.03,3.00,4.67,4.66,4.65
65.35,1.27,-3.34,1.26,-3.35,3.35,3.03,2.96,4.62,4.62,4.61
66.01,1.26,-3.31,1.25,-3.32,3.32,3.03,2.92,4.58,4.57,4.57
66.67,1.25,-3.29,1.24,-3.28,3.28,3.03,2.87,4.53,4.53,4.53
67.33,1.24,-3.25,1.24,-3.24,3.24,3.03,2.83,4.48,4.48,4.49
68.01,1.23,-3.21,1.23,-3.20,3.20,3.03,2.79,4.43,4.44,4.44
68.69,1.22,-3.18,1.23,-3.16,3.16,3.03,2.74,4.38,4.39,4.39
69.37,1.22,-3.13,1.23,-3.12,3.12,3.03,2.70,4.34,4.35,4.35
70.07,1.22,-3.08,1.22,-3.08,3.08,3.03,2.65,4.29,4.30,4.30
70.77,1.23,-3.03,1.22,-3.03,3.03,3.03,2.60,4.26,4.26,4.26
71.48,1.23,-2.99,1.23,-2.99,2.99,3.02,2.56,4.21,4.21,4.22
72.19,1.24,-2.93,1.23,-2.94,2.94,3.02,2.51,4.18,4.17,4.16
72.91,1.24,-2.88,1.23,-2.90,2.90,3.02,2.47,4.13,4.12,4.12
73.64,1.24,-2.84,1.23,-2.85,2.85,3.01,2.42,4.09,4.08,4.08
74.38,1.24,-2.80,1.23,-2.81,2.81,3.01,2.38,4.04,4.04,4.04
75.12,1.24,-2.76,1.23,-2.76,2.76,3.00,2.33,4.00,4.00,3.99
75.87,1.24,-2.72,1.24,-2.72,2.72,2.99,2.29,3.96,3.96,3.96
76.63,1.24,-2.68,1.24,-2.68,2.68,2.97,2.24,3.92,3.92,3.92
77.40,1.24,-2.64,1.24,-2.64,2.64,2.96,2.20,3.88,3.88,3.88
78.17,1.24,-2.60,1.25,-2.60,2.60,2.94,2.16,3.84,3.85,3.84
78.95,1.24,-2.57,1.25,-2.56,2.56,2.92,2.12,3.80,3.81,3.81
79.74,1.24,-2.54,1.25,-2.52,2.52,2.90,2.08,3.76,3.77,3.78
80.54,1.25,-2.50,1.25,-2.49,2.49,2.88,2.04,3.73,3.74,3.74
81.35,1.25,-2.46,1.26,-2.45,2.45,2.85,2.00,3.70,3.71,3.71
82.16,1.26,-2.42,1.26,-2.42,2.42,2.82,1.97,3.68,3.68,3.68
82.98,1.27,-2.38,1.26,-2.39,2.39,2.79,1.93,3.66,3.65,3.65
83.81,1.27,-2.35,1.25,-2.36,2.36,2.76,1.90,3.63,3.62,3.61
84.65,1.26,-2.32,1.24,-2.34,2.34,2.72,1.87,3.60,3.59,3.58
85.50,1.25,-2.31,1.23,-2.32,2.32,2.68,1.84,3.57,3.56,3.56
86.35,1.23,-2.30,1.22,-2.31,2.31,2.64,1.81,3.53,3.53,3.53
87.22,1.22,-2.28,1.20,-2.30,2.30,2.60,1.78,3.51,3.50,3.50
88.09,1.20,-2.27,1.18,-2.29,2.29,2.56,1.75,3.49,3.47,3.47
88.97,1.17,-2.28,1.16,-2.29,2.29,2.51,1.72,3.45,3.45,3.45
89.86,1.14,-2.29,1.13,-2.29,2.29,2.46,1.70,3.42,3.42,3.43
90.76,1.11,-2.28,1.10,-2.29,2.29,2.41,1.68,3.39,3.39,3.38
91.66,1.08,-2.28,1.07,-2.29,2.29,2.36,1.65,3.36,3.36,3.36
92.58,1.05,-2.28,1.04,-2.29,2.29,2.31,1.63,3.34,3.33,3.33
93.51,1.01,-2.31,1.02,-2.29,2.29,2.25,1.61,3.29,3.30,3.31
94.44,0.99,-2.29,0.99,-2.28,2.28,2.20,1.59,3.27,3.27,3.28
95.39,0.96,-2.30,0.97,-2.27,2.27,2.14,1.58,3.23,3.24,3.25
96.34,0.94,-2.27,0.95,-2.26,2.26,2.09,1.56,3.19,3.21,3.21
97.30,0.92,-2.25,0.93,-2.24,2.24,2.03,1.54,3.16,3.17,3.17
98.28,0.91,-2.23,0.92,-2.22,2.22,1.98,1.53,3.12,3.14,3.13
99.26,0.90,-2.20,0.91,-2.19,2.19,1.92,1.51,3.09,3.10,3.10
100.25,0.90,-2.16,0.91,-2.16,2.16,1.86,1.50,3.05,3.06,3.06
101.25,0.90,-2.13,0.90,-2.12,2.12,1.81,1.49,3.02,3.02,3.02
102.27,0.91,-2.07,0.90,-2.08,2.08,1.75,1.48,2.98,2.98,2.98
103.29,0.92,-2.01,0.90,-2.03,2.03,1.70,1.46,2.95,2.93,2.93
104.32,0.92,-1.97,0.90,-1.98,1.98,1.64,1.45,2.90,2.88,2.89
105.37,0.92,-1.93,0.91,-1.93,1.93,1.59,1.44,2.84,2.83,2.84
106.42,0.92,-1.87,0.91,-1.87,1.87,1.53,1.43,2.79,2.78,2.78
107.48,0.92,-1.82,0.91,-1.81,1.81,1.48,1.42,2.73,2.73,2.74
108.56,0.92,-1.75,0.92,-1.75,1.75,1.43,1.41,2.67,2.67,2.67
109.64,0.92,-1.69,0.92,-1.69,1.69,1.37,1.40,2.61,2.61,2.61
110.74,0.92,-1.64,0.92,-1.63,1.63,1.32,1.39,2.54,2.54,2.55
111.85,0.92,-1.57,0.92,-1.56,1.56,1.27,1.37,2.48,2.48,2.49
112.97,0.92,-1.49,0.92,-1.49,1.49,1.22,1.36,2.41,2.41,2.41
114.10,0.92,-1.44,0.92,-1.43,1.43,1.17,1.35,2.35,2.35,2.35
115.24,0.92,-1.36,0.92,-1.36,1.36,1.13,1.33,2.28,2.28,2.28
116.39,0.92,-1.28,0.92,-1.29,1.29,1.08,1.32,2.21,2.21,2.20
117.55,0.92,-1.22,0.92,-1.22,1.22,1.03,1.30,2.14,2.14,2.14
118.73,0.92,-1.14,0.92,-1.16,1.16,0.99,1.28,2.07,2.07,2.06
119.92,0.92,-1.09,0.92,-1.09,1.09,0.94,1.26,2.01,2.01,2.01
121.12,0.92,-1.02,0.92,-1.02,1.02,0.90,1.24,1.94,1.94,1.93
122.33,0.92,-0.95,0.92,-0.96,0.96,0.85,1.22,1.87,1.87,1.87
123.55,0.92,-0.90,0.92,-0.89,0.89,0.81,1.19,1.81,1.81,1.82
124.79,0.92,-0.84,0.92,-0.83,0.83,0.77,1.16,1.75,1.75,1.75
126.03,0.92,-0.78,0.92,-0.77,0.77,0.73,1.14,1.69,1.69,1.69
127.29,0.92,-0.72,0.92,-0.71,0.71,0.68,1.11,1.63,1.63,1.63
128.57,0.92,-0.65,0.92,-0.66,0.66,0.65,1.07,1.57,1.57,1.56
129.85,0.92,-0.60,0.92,-0.60,0.60,0.61,1.04,1.52,1.52,1.51
131.15,0.92,-0.54,0.92,-0.54,0.54,0.57,1.01,1.46,1.46,1.46
132.46,0.92,-0.49,0.92,-0.49,0.49,0.53,0.97,1.41,1.41,1.41
133.79,0.92,-0.44,0.92,-0.44,0.44,0.49,0.93,1.36,1.36,1.36
135.12,0.92,-0.39,0.92,-0.39,0.39,0.46,0.89,1.31,1.31,1.31
136.48,0.92,-0.34,0.92,-0.34,0.34,0.42,0.85,1.26,1.26,1.26
137.84,0.92,-0.29,0.92,-0.29,0.29,0.38,0.80,1.21,1.21,1.21
139.22,0.92,-0.24,0.92,-0.24,0.24,0.35,0.76,1.16,1.16,1.15
140.61,0.92,-0.18,0.92,-0.20,0.20,0.31,0.71,1.12,1.12,1.10
142.02,0.92,-0.15,0.92,-0.15,0.15,0.28,0.67,1.07,1.07,1.07
143.44,0.92,-0.11,0.92,-0.11,0.11,0.25,0.62,1.02,1.02,1.03
144.87,0.92,-0.06,0.92,-0.06,0.06,0.21,0.57,0.98,0.98,0.98
146.32,0.92,-0.01,0.92,-0.01,0.01,0.18,0.52,0.93,0.93,0.93
147.78,0.92,0.02,0.92,0.03,-0.03,0.15,0.47,0.88,0.88,0.89
149.26,0.92,0.07,0.92,0.08,-0.08,0.12,0.41,0.84,0.84,0.85
150.75,0.92,0.13,0.92,0.13,-0.13,0.09,0.36,0.79,0.79,0.78
152.26,0.92,0.18,0.92,0.18,-0.18,0.06,0.31,0.74,0.74,0.74
153.78,0.92,0.22,0.92,0.23,-0.23,0.03,0.25,0.69,0.69,0.69
155.32,0.92,0.28,0.92,0.28,-0.28,-0.00,0.20,0.64,0.64,0.63
156.88,0.92,0.33,0.92,0.33,-0.33,-0.03,0.14,0.58,0.59,0.59
158.44,0.92,0.38,0.93,0.39,-0.39,-0.06,0.08,0.53,0.54,0.54
160.03,0.92,0.44,0.93,0.44,-0.44,-0.09,0.03,0.47,0.48,0.48
161.63,0.92,0.49,0.93,0.50,-0.50,-0.12,-0.03,0.42,0.43,0.42
163.24,0.92,0.54,0.93,0.55,-0.55,-0.15,-0.09,0.37,0.38,0.37
164.88,0.93,0.60,0.93,0.61,-0.61,-0.18,-0.15,0.32,0.33,0.33
166.53,0.94,0.66,0.93,0.66,-0.66,-0.20,-0.21,0.28,0.27,0.27
168.19,0.94,0.72,0.92,0.71,-0.71,-0.23,-0.27,0.23,0.22,0.22
169.87,0.94,0.77,0.91,0.75,-0.75,-0.26,-0.33,0.18,0.16,0.16
171.57,0.92,0.81,0.90,0.80,-0.80,-0.28,-0.39,0.12,0.10,0.11
173.29,0.91,0.86,0.89,0.84,-0.84,-0.31,-0.45,0.07,0.05,0.05
175.02,0.88,0.88,0.87,0.88,-0.88,-0.34,-0.51,-0.00,-0.01,-0.00
176.77,0.85,0.92,0.84,0.92,-0.92,-0.36,-0.57,-0.07,-0.07,-0.07
178.54,0.83,0.96,0.82,0.95,-0.95,-0.39,-0.63,-0.12,-0.13,-0.13
180.32,0.80,0.99,0.79,0.98,-0.98,-0.41,-0.70,-0.18,-0.19,-0.19
182.13,0.77,1.02,0.76,1.01,-1.01,-0.44,-0.76,-0.24,-0.25,-0.25
183.95,0.72,1.03,0.73,1.04,-1.04,-0.47,-0.82,-0.32,-0.31,-0.32
185.79,0.69,1.06,0.70,1.07,-1.07,-0.49,-0.89,-0.39,-0.38,-0.37
187.65,0.67,1.11,0.67,1.11,-1.11,-0.52,-0.95,-0.44,-0.44,-0.45
189.52,0.64,1.14,0.65,1.14,-1.14,-0.54,-1.02,-0.51,-0.49,-0.50
191.42,0.62,1.17,0.63,1.18,-1.18,-0.56,-1.08,-0.57,-0.55,-0.56
193.33,0.60,1.21,0.61,1.22,-1.22,-0.59,-1.15,-0.63,-0.61,-0.61
195.27,0.58,1.24,0.60,1.27,-1.27,-0.61,-1.21,-0.69,-0.67,-0.66
197.22,0.57,1.29,0.59,1.31,-1.31,-0.64,-1.28,-0.75,-0.72,-0.72
199.19,0.58,1.36,0.58,1.36,-1.36,-0.66,-1.35,-0.78,-0.78,-0.78
201.18,0.59,1.42,0.58,1.41,-1.41,-0.68,-1.41,-0.82,-0.83,-0.83
203.19,0.59,1.46,0.58,1.46,-1.46,-0.71,-1.48,-0.87,-0.88,-0.87
205.23,0.60,1.53,0.58,1.51,-1.51,-0.73,-1.54,-0.91,-0.93,-0.93
207.28,0.60,1.56,0.58,1.56,-1.56,-0.76,-1.61,-0.96,-0.98,-0.96
209.35,0.60,1.62,0.59,1.61,-1.61,-0.78,-1.67,-1.01,-1.02,-1.02
211.44,0.60,1.67,0.59,1.66,-1.66,-0.80,-1.74,-1.06,-1.07,-1.08
213.56,0.60,1.71,0.59,1.70,-1.70,-0.82,-1.80,-1.11,-1.11,-1.11
215.69,0.60,1.74,0.60,1.75,-1.75,-0.85,-1.86,-1.15,-1.15,-1.14
217.85,0.60,1.78,0.60,1.79,-1.79,-0.87,-1.92,-1.19,-1.19,-1.18
220.03,0.60,1.83,0.60,1.82,-1.82,-0.89,-1.98,-1.23,-1.22,-1.23
222.23,0.60,1.86,0.60,1.86,-1.86,-0.91,-2.04,-1.26,-1.26,-1.26
224.45,0.60,1.88,0.60,1.88,-1.88,-0.94,-2.09,-1.29,-1.29,-1.29
226.70,0.60,1.91,0.60,1.91,-1.91,-0.96,-2.14,-1.32,-1.31,-1.31
228.96,0.60,1.94,0.60,1.94,-1.94,-0.98,-2.19,-1.34,-1.34,-1.34
231.25,0.60,1.95,0.59,1.96,-1.96,-1.00,-2.24,-1.36,-1.36,-1.36
233.57,0.60,1.98,0.59,1.97,-1.97,-1.03,-2.28,-1.37,-1.38,-1.38
235.90,0.60,2.00,0.59,1.98,-1.98,-1.05,-2.32,-1.38,-1.40,-1.40
238.26,0.60,2.01,0.58,1.99,-1.99,-1.07,-2.36,-1.39,-1.41,-1.41
240.64,0.59,2.01,0.58,2.00,-2.00,-1.09,-2.39,-1.41,-1.42,-1.42
243.05,0.59,2.01,0.58,2.01,-2.01,-1.11,-2.42,-1.42,-1.43,-1.42
245.48,0.58,2.01,0.58,2.01,-2.01,-1.13,-2.44,-1.43,-1.43,-1.43
247.93,0.58,2.01,0.58,2.02,-2.02,-1.15,-2.46,-1.44,-1.43,-1.43
250.41,0.58,2.02,0.59,2.02,-2.02,-1.18,-2.48,-1.45,-1.43,-1.44
252.92,0.58,2.01,0.60,2.03,-2.03,-1.20,-2.49,-1.45,-1.43,-1.43
255.45,0.59,2.01,0.61,2.04,-2.04,-1.22,-2.50,-1.45,-1.43,-1.42
258.00,0.60,2.02,0.62,2.04,-2.04,-1.24,-2.51,-1.45,-1.42,-1.42
260.58,0.63,2.04,0.64,2.05,-2.05,-1.26,-2.51,-1.42,-1.41,-1.42
263.19,0.66,2.06,0.66,2.06,-2.06,-1.28,-2.50,-1.41,-1.41,-1.41
265.82,0.70,2.10,0.68,2.08,-2.08,-1.30,-2.50,-1.38,-1.40,-1.40
268.48,0.72,2.10,0.71,2.09,-2.09,-1.32,-2.49,-1.38,-1.38,-1.38
271.16,0.75,2.11,0.74,2.11,-2.11,-1.34,-2.48,-1.37,-1.37,-1.37
273.87,0.79,2.15,0.77,2.13,-2.13,-1.36,-2.46,-1.35,-1.36,-1.36
276.61,0.81,2.15,0.80,2.15,-2.15,-1.38,-2.44,-1.35,-1.35,-1.34
279.38,0.83,2.16,0.84,2.17,-2.17,-1.40,-2.42,-1.35,-1.34,-1.34
282.17,0.86,2.18,0.87,2.20,-2.20,-1.42,-2.40,-1.34,-1.33,-1.32
284.99,0.90,2.21,0.91,2.22,-2.22,-1.44,-2.38,-1.32,-1.31,-1.31
287.84,0.95,2.25,0.94,2.24,-2.24,-1.46,-2.35,-1.29,-1.30,-1.30
290.72,0.98,2.27,0.97,2.26,-2.26,-1.48,-2.32,-1.28,-1.29,-1.29
293.63,1.01,2.28,1.00,2.28,-2.28,-1.50,-2.30,-1.27,-1.27,-1.28
296.57,1.04,2.30,1.04,2.30,-2.30,-1.51,-2.27,-1.26,-1.26,-1.26
299.53,1.07,2.32,1.07,2.32,-2.32,-1.53,-2.24,-1.25,-1.25,-1.26
302.53,1.10,2.35,1.10,2.34,-2.34,-1.55,-2.21,-1.24,-1.24,-1.25
305.55,1.13,2.35,1.13,2.36,-2.36,-1.57,-2.18,-1.23,-1.23,-1.22
308.61,1.16,2.38,1.16,2.38,-2.38,-1.59,-2.15,-1.22,-1.22,-1.22
311.69,1.19,2.40,1.18,2.39,-2.39,-1.61,-2.13,-1.21,-1.21,-1.21
314.81,1.21,2.39,1.20,2.41,-2.41,-1.62,-2.10,-1.20,-1.20,-1.19
317.96,1.23,2.42,1.22,2.42,-2.42,-1.64,-2.07,-1.19,-1.19,-1.19
321.14,1.25,2.43,1.24,2.42,-2.42,-1.66,-2.05,-1.18,-1.19,-1.18
324.35,1.27,2.45,1.25,2.43,-2.43,-1.68,-2.02,-1.17,-1.18,-1.19
327.59,1.27,2.44,1.26,2.44,-2.44,-1.70,-2.00,-1.17,-1.18,-1.17
330.87,1.26,2.43,1.27,2.44,-2.44,-1.71,-1.97,-1.18,-1.17,-1.17
334.18,1.26,2.43,1.27,2.44,-2.44,-1.73,-1.95,-1.18,-1.17,-1.18
337.52,1.27,2.44,1.27,2.44,-2.44,-1.75,-1.93,-1.17,-1.17,-1.17
340.90,1.27,2.43,1.26,2.43,-2.43,-1.76,-1.91,-1.17,-1.17,-1.16
344.30,1.26,2.42,1.25,2.42,-2.42,-1.78,-1.90,-1.17,-1.17,-1.17
347.75,1.25,2.42,1.24,2.41,-2.41,-1.79,-1.88,-1.17,-1.17,-1.17
351.23,1.24,2.41,1.23,2.40,-2.40,-1.81,-1.87,-1.16,-1.17,-1.17
354.74,1.21,2.38,1.21,2.38,-2.38,-1.83,-1.85,-1.18,-1.18,-1.17
358.28,1.18,2.36,1.18,2.36,-2.36,-1.84,-1.84,-1.19,-1.18,-1.19
361.87,1.16,2.35,1.15,2.34,-2.34,-1.86,-1.83,-1.18,-1.19,-1.19
365.49,1.13,2.32,1.12,2.32,-2.32,-1.87,-1.82,-1.19,-1.19,-1.19
369.14,1.10,2.30,1.09,2.29,-2.29,-1.89,-1.81,-1.19,-1.20,-1.20
372.83,1.07,2.27,1.05,2.26,-2.26,-1.90,-1.81,-1.19,-1.21,-1.21
376.56,1.03,2.24,1.01,2.23,-2.23,-1.92,-1.80,-1.20,-1.22,-1.22
380.33,0.98,2.20,0.97,2.19,-2.19,-1.93,-1.80,-1.22,-1.22,-1.22
384.13,0.93,2.16,0.93,2.16,-2.16,-1.94,-1.80,-1.23,-1.23,-1.23
387.97,0.88,2.12,0.89,2.13,-2.13,-1.96,-1.80,-1.25,-1.24,-1.24
391.85,0.84,2.09,0.85,2.09,-2.09,-1.97,-1.80,-1.25,-1.25,-1.25
395.77,0.80,2.04,0.81,2.06,-2.06,-1.99,-1.80,-1.26,-1.25,-1.25
399.73,0.76,2.01,0.77,2.03,-2.03,-2.00,-1.81,-1.27,-1.26,-1.26
403.72,0.73,2.00,0.73,2.00,-2.00,-2.01,-1.81,-1.27,-1.27,-1.27
407.76,0.70,1.98,0.70,1.98,-1.98,-2.02,-1.82,-1.28,-1.27,-1.28
411.84,0.68,1.95,0.68,1.96,-1.96,-2.04,-1.82,-1.28,-1.28,-1.27
415.96,0.65,1.93,0.66,1.94,-1.94,-2.05,-1.83,-1.29,-1.28,-1.28
420.12,0.62,1.90,0.64,1.93,-1.93,-2.06,-1.84,-1.31,-1.29,-1.28
424.32,0.60,1.88,0.63,1.92,-1.92,-2.07,-1.84,-1.32,-1.29,-1.29
428.56,0.60,1.89,0.61,1.90,-1.90,-2.08,-1.85,-1.31,-1.29,-1.30
432.85,0.60,1.90,0.60,1.89,-1.89,-2.09,-1.86,-1.30,-1.29,-1.30
437.18,0.59,1.89,0.58,1.88,-1.88,-2.10,-1.87,-1.29,-1.30,-1.30
441.55,0.59,1.88,0.57,1.87,-1.87,-2.11,-1.88,-1.28,-1.30,-1.29
445.96,0.59,1.88,0.56,1.85,-1.85,-2.12,-1.89,-1.26,-1.30,-1.29
450.42,0.57,1.87,0.54,1.83,-1.83,-2.13,-1.90,-1.26,-1.29,-1.30
454.93,0.55,1.84,0.52,1.81,-1.81,-2.14,-1.91,-1.26,-1.29,-1.29
459.48,0.51,1.80,0.50,1.78,-1.78,-2.15,-1.92,-1.28,-1.29,-1.29
464.07,0.49,1.77,0.47,1.75,-1.75,-2.16,-1.92,-1.27,-1.28,-1.29
468.71,0.45,1.72,0.44,1.72,-1.72,-2.17,-1.93,-1.28,-1.28,-1.28
473.40,0.41,1.68,0.42,1.69,-1.69,-2.18,-1.94,-1.28,-1.28,-1.28
478.13,0.39,1.65,0.39,1.66,-1.66,-2.19,-1.94,-1.27,-1.27,-1.27
482.91,0.35,1.62,0.36,1.63,-1.63,-2.19,-1.95,-1.28,-1.26,-1.27
487.74,0.33,1.59,0.34,1.60,-1.60,-2.20,-1.95,-1.27,-1.26,-1.26
492.62,0.30,1.55,0.31,1.57,-1.57,-2.21,-1.95,-1.27,-1.25,-1.25
497.55,0.28,1.53,0.29,1.54,-1.54,-2.22,-1.96,-1.27,-1.25,-1.25
502.52,0.26,1.50,0.28,1.52,-1.52,-2.22,-1.96,-1.26,-1.24,-1.24
507.55,0.25,1.49,0.26,1.51,-1.51,-2.23,-1.96,-1.26,-1.24,-1.24
512.62,0.25,1.49,0.25,1.49,-1.49,-2.23,-1.95,-1.25,-1.24,-1.24
517.75,0.26,1.49,0.25,1.48,-1.48,-2.24,-1.95,-1.23,-1.24,-1.23
522.93,0.27,1.50,0.24,1.48,-1.48,-2.24,-1.95,-1.21,-1.24,-1.23
528.16,0.27,1.50,0.24,1.47,-1.47,-2.25,-1.94,-1.21,-1.23,-1.23
