frequency,raw,error,smoothed,error_smoothed,equalization,parametric_eq,fixed_band_eq,equalized_raw,equalized_smoothed,target
20.00,-9.10,-24.39,-9.09,-24.39,24.39,23.93,11.39,15.29,15.30,15.29
20.20,-9.09,-24.37,-9.09,-24.37,24.37,23.98,11.60,15.28,15.28,15.28
20.40,-9.08,-24.35,-9.09,-24.36,24.36,24.03,11.81,15.27,15.27,15.27
20.61,-9.08,-24.34,-9.08,-24.34,24.34,24.07,12.03,15.26,15.26,15.26
20.81,-9.07,-24.31,-9.07,-24.32,24.32,24.10,12.25,15.25,15.25,15.24
21.02,-9.06,-24.29,-9.06,-24.30,24.30,24.13,12.48,15.23,15.24,15.23
21.23,-9.04,-24.26,-9.05,-24.27,24.27,24.14,12.72,15.23,15.22,15.22
21.44,-9.03,-24.26,-9.03,-24.25,24.25,24.15,12.96,15.22,15.22,15.23
21.66,-9.01,-24.22,-9.02,-24.23,24.23,24.15,13.21,15.21,15.21,15.21
21.87,-9.00,-24.21,-9.00,-24.20,24.20,24.14,13.46,15.20,15.20,15.21
22.09,-8.98,-24.17,-8.98,-24.17,24.17,24.13,13.72,15.19,15.19,15.19
22.31,-8.96,-24.14,-8.96,-24.14,24.14,24.10,13.99,15.18,15.18,15.18
22.54,-8.94,-24.11,-8.94,-24.12,24.12,24.07,14.27,15.18,15.18,15.17
22.76,-8.92,-24.09,-8.92,-24.09,24.09,24.04,14.55,15.17,15.17,15.17
22.99,-8.90,-24.06,-8.89,-24.06,24.06,24.00,14.85,15.15,15.16,15.16
23.22,-8.87,-24.02,-8.86,-24.02,24.02,23.95,15.15,15.15,15.16,15.15
23.45,-8.84,-24.00,-8.84,-23.99,23.99,23.90,15.46,15.15,15.15,15.16
23.69,-8.80,-23.95,-8.81,-23.95,23.95,23.84,15.78,15.15,15.15,15.15
23.92,-8.77,-23.91,-8.77,-23.92,23.92,23.77,16.11,15.15,15.14,15.14
24.16,-8.73,-23.87,-8.74,-23.88,23.88,23.71,16.46,15.15,15.14,15.14
24.40,-8.69,-23.83,-8.70,-23.84,23.84,23.64,16.81,15.15,15.14,15.14
24.65,-8.66,-23.80,-8.66,-23.80,23.80,23.56,17.18,15.13,15.14,15.14
24.89,-8.62,-23.76,-8.62,-23.75,23.75,23.48,17.56,15.13,15.13,15.14
25.14,-8.57,-23.70,-8.57,-23.70,23.70,23.40,17.95,15.13,15.13,15.13
25.39,-8.52,-23.65,-8.52,-23.65,23.65,23.32,18.36,15.13,15.13,15.13
25.65,-8.48,-23.60,-8.48,-23.60,23.60,23.23,18.79,15.12,15.13,15.12
25.91,-8.43,-23.55,-8.42,-23.55,23.55,23.15,19.23,15.12,15.13,15.12
26.16,-8.37,-23.50,-8.37,-23.49,23.49,23.06,19.69,15.12,15.12,15.13
26.43,-8.31,-23.44,-8.31,-23.44,23.44,22.97,20.18,15.13,15.12,15.13
26.69,-8.25,-23.38,-8.25,-23.38,23.38,22.87,20.68,15.13,15.12,15.13
26.96,-8.19,-23.31,-8.19,-23.32,23.32,22.78,21.20,15.12,15.12,15.12
27.23,-8.12,-23.24,-8.13,-23.25,23.25,22.69,21.75,15.13,15.13,15.12
27.50,-8.05,-23.17,-8.06,-23.19,23.19,22.59,22.32,15.14,15.13,15.12
27.77,-7.99,-23.12,-7.99,-23.12,23.12,22.50,22.92,15.13,15.13,15.13
28.05,-7.91,-23.03,-7.92,-23.05,23.05,22.41,23.54,15.13,15.13,15.12
28.33,-7.83,-22.96,-7.84,-22.96,22.96,22.31,24.19,15.13,15.13,15.13
28.62,-7.75,-22.88,-7.75,-22.88,22.88,22.22,24.87,15.13,15.13,15.13
28.90,-7.67,-22.81,-7.66,-22.79,22.79,22.12,25.56,15.12,15.13,15.13
29.19,-7.58,-22.71,-7.56,-22.69,22.69,22.03,26.27,15.11,15.13,15.13
29.48,-7.48,-22.61,-7.46,-22.58,22.58,21.93,26.97,15.10,15.12,15.13
29.78,-7.39,-22.52,-7.36,-22.48,22.48,21.84,27.66,15.08,15.12,15.12
30.08,-7.28,-22.40,-7.25,-22.36,22.36,21.75,28.31,15.08,15.12,15.12
30.38,-7.15,-22.26,-7.14,-22.25,22.25,21.66,28.87,15.10,15.11,15.11
30.68,-7.01,-22.12,-7.02,-22.13,22.13,21.57,29.31,15.12,15.11,15.10
30.99,-6.87,-21.97,-6.91,-22.01,22.01,21.48,29.59,15.14,15.10,15.10
31.30,-6.75,-21.85,-6.80,-21.89,21.89,21.39,29.68,15.14,15.09,15.10
31.61,-6.64,-21.73,-6.68,-21.77,21.77,21.30,29.58,15.13,15.09,15.09
31.93,-6.53,-21.60,-6.56,-21.64,21.64,21.21,29.31,15.11,15.08,15.07
32.24,-6.42,-21.49,-6.45,-21.52,21.52,21.13,28.91,15.10,15.07,15.07
32.57,-6.32,-21.38,-6.33,-21.39,21.39,21.04,28.41,15.07,15.06,15.06
32.89,-6.22,-21.27,-6.21,-21.26,21.26,20.96,27.86,15.04,15.05,15.05
33.22,-6.11,-21.16,-6.08,-21.13,21.13,20.88,27.29,15.02,15.05,15.05
33.55,-5.98,-21.02,-5.96,-21.00,21.00,20.80,26.71,15.02,15.04,15.04
33.89,-5.86,-20.89,-5.83,-20.86,20.86,20.71,26.15,15.00,15.03,15.03
34.23,-5.72,-20.73,-5.70,-20.72,20.72,20.64,25.60,15.00,15.02,15.01
34.57,-5.57,-20.58,-5.56,-20.57,20.57,20.56,25.08,15.00,15.01,15.01
34.92,-5.43,-20.42,-5.42,-20.41,20.41,20.48,24.59,14.98,15.00,14.99
35.27,-5.27,-20.28,-5.26,-20.25,20.25,20.41,24.12,14.97,14.99,15.00
35.62,-5.12,-20.10,-5.10,-20.07,20.07,20.33,23.68,14.95,14.97,14.98
35.97,-4.96,-19.93,-4.93,-19.89,19.89,20.26,23.27,14.93,14.96,14.97
36.33,-4.79,-19.74,-4.76,-19.70,19.70,20.19,22.88,14.91,14.94,14.95
36.70,-4.61,-19.54,-4.59,-19.51,19.51,20.11,22.52,14.90,14.93,14.92
37.06,-4.44,-19.35,-4.42,-19.33,19.33,20.05,22.18,14.89,14.91,14.91
37.43,-4.27,-19.16,-4.25,-19.14,19.14,19.98,21.86,14.87,14.89,14.89
37.81,-4.10,-18.97,-4.10,-18.96,18.96,19.91,21.56,14.86,14.87,14.87
38.19,-3.94,-18.78,-3.95,-18.80,18.80,19.84,21.28,14.86,14.85,14.84
38.57,-3.80,-18.62,-3.83,-18.65,18.65,19.78,21.02,14.85,14.82,14.82
38.95,-3.66,-18.46,-3.72,-18.52,18.52,19.71,20.78,14.86,14.80,14.80
39.34,-3.57,-18.34,-3.63,-18.41,18.41,19.65,20.55,14.84,14.77,14.77
39.74,-3.49,-18.24,-3.57,-18.32,18.32,19.59,20.34,14.83,14.75,14.74
40.14,-3.44,-18.16,-3.52,-18.25,18.25,19.53,20.15,14.81,14.73,14.72
40.54,-3.43,-18.13,-3.50,-18.20,18.20,19.47,19.97,14.77,14.70,14.70
40.94,-3.42,-18.09,-3.49,-18.17,18.17,19.41,19.80,14.75,14.68,14.67
41.35,-3.47,-18.12,-3.50,-18.15,18.15,19.35,19.65,14.68,14.65,14.65
41.76,-3.53,-18.15,-3.52,-18.15,18.15,19.30,19.51,14.61,14.63,14.62
42.18,-3.59,-18.20,-3.55,-18.15,18.15,19.24,19.38,14.56,14.60,14.60
42.60,-3.65,-18.22,-3.59,-18.16,18.16,19.19,19.27,14.51,14.57,14.57
43.03,-3.70,-18.25,-3.63,-18.18,18.18,19.14,19.17,14.48,14.55,14.55
43.46,-3.73,-18.25,-3.67,-18.19,18.19,19.08,19.08,14.46,14.52,14.51
43.90,-3.76,-18.25,-3.71,-18.20,18.20,19.03,19.00,14.44,14.49,14.49
44.33,-3.78,-18.24,-3.75,-18.21,18.21,18.98,18.93,14.43,14.46,14.45
44.78,-3.80,-18.23,-3.78,-18.21,18.21,18.93,18.87,14.41,14.43,14.43
45.23,-3.81,-18.21,-3.81,-18.20,18.20,18.89,18.83,14.39,14.39,14.40
45.68,-3.82,-18.18,-3.83,-18.18,18.18,18.84,18.79,14.36,14.35,14.36
46.13,-3.83,-18.15,-3.84,-18.16,18.16,18.79,18.76,14.33,14.32,14.32
46.60,-3.85,-18.13,-3.85,-18.13,18.13,18.75,18.75,14.28,14.28,14.28
47.06,-3.86,-18.10,-3.86,-18.10,18.10,18.70,18.74,14.24,14.23,14.24
47.53,-3.89,-18.09,-3.87,-18.06,18.06,18.66,18.74,14.17,14.19,14.20
48.01,-3.91,-18.05,-3.89,-18.03,18.03,18.62,18.75,14.12,14.15,14.14
48.49,-3.94,-18.04,-3.91,-18.01,18.01,18.57,18.78,14.07,14.10,14.10
48.97,-3.97,-18.02,-3.93,-17.99,17.99,18.53,18.80,14.02,14.06,14.05
49.46,-3.99,-18.00,-3.97,-17.98,17.98,18.49,18.84,13.99,14.01,14.01
49.96,-4.02,-17.97,-4.02,-17.99,17.99,18.45,18.89,13.97,13.96,13.95
50.46,-4.07,-17.98,-4.09,-18.01,18.01,18.42,18.94,13.94,13.92,13.91
50.96,-4.12,-17.99,-4.18,-18.04,18.04,18.38,19.00,13.92,13.87,13.87
51.47,-4.22,-18.04,-4.28,-18.10,18.10,18.34,19.07,13.88,13.82,13.82
51.99,-4.33,-18.10,-4.40,-18.17,18.17,18.30,19.14,13.84,13.77,13.77
52.51,-4.49,-18.22,-4.54,-18.27,18.27,18.27,19.21,13.78,13.73,13.73
53.03,-4.65,-18.34,-4.71,-18.39,18.39,18.23,19.30,13.74,13.68,13.69
53.56,-4.85,-18.49,-4.89,-18.53,18.53,18.20,19.38,13.68,13.63,13.64
54.10,-5.06,-18.64,-5.09,-18.68,18.68,18.17,19.47,13.62,13.59,13.58
54.64,-5.29,-18.83,-5.31,-18.86,18.86,18.13,19.56,13.57,13.54,13.54
55.18,-5.53,-19.02,-5.54,-19.04,19.04,18.10,19.65,13.51,13.50,13.49
55.74,-5.78,-19.22,-5.78,-19.24,19.24,18.07,19.73,13.46,13.46,13.44
56.29,-6.03,-19.44,-6.02,-19.43,19.43,18.04,19.82,13.40,13.41,13.41
56.86,-6.29,-19.65,-6.26,-19.62,19.62,18.01,19.90,13.34,13.36,13.36
57.42,-6.53,-19.84,-6.49,-19.81,19.81,17.98,19.98,13.28,13.32,13.31
58.00,-6.77,-20.03,-6.72,-19.98,19.98,17.95,20.04,13.21,13.27,13.26
58.58,-6.97,-20.19,-6.93,-20.14,20.14,17.92,20.10,13.17,13.22,13.22
59.16,-7.17,-20.36,-7.13,-20.29,20.29,17.89,20.15,13.12,13.16,13.18
59.76,-7.35,-20.48,-7.31,-20.42,20.42,17.86,20.19,13.07,13.11,13.13
60.35,-7.51,-20.58,-7.48,-20.54,20.54,17.83,20.21,13.02,13.05,13.07
60.96,-7.66,-20.67,-7.63,-20.63,20.63,17.81,20.22,12.97,13.00,13.01
61.57,-7.78,-20.72,-7.77,-20.71,20.71,17.78,20.21,12.93,12.94,12.94
62.18,-7.90,-20.77,-7.89,-20.77,20.77,17.75,20.18,12.87,12.88,12.87
62.80,-8.00,-20.81,-8.00,-20.82,20.82,17.73,20.14,12.82,12.82,12.81
63.43,-8.09,-20.83,-8.10,-20.85,20.85,17.70,20.08,12.76,12.75,12.74
64.07,-8.18,-20.86,-8.19,-20.88,20.88,17.67,20.00,12.70,12.69,12.68
64.71,-8.26,-20.88,-8.27,-20.90,20.90,17.65,19.91,12.64,12.63,12.62
65.35,-8.34,-20.90,-8.35,-20.91,20.91,17.62,19.80,12.57,12.56,12.56
66.01,-8.41,-20.91,-8.42,-20.92,20.92,17.60,19.68,12.51,12.50,12.50
66.67,-8.47,-20.92,-8.50,-20.93,20.93,17.57,19.55,12.46,12.44,12.45
67.33,-8.53,-20.90,-8.57,-20.94,20.94,17.55,19.41,12.41,12.37,12.37
68.01,-8.60,-20.92,-8.64,-20.95,20.95,17.52,19.25,12.35,12.31,12.31
68.69,-8.66,-20.91,-8.72,-20.96,20.96,17.50,19.09,12.30,12.24,12.25
69.37,-8.72,-20.91,-8.79,-20.96,20.96,17.47,18.93,12.24,12.18,12.19
70.07,-8.79,-20.91,-8.85,-20.96,20.96,17.44,18.76,12.17,12.11,12.12
70.77,-8.85,-20.90,-8.90,-20.95,20.95,17.42,18.58,12.10,12.05,12.05
71.48,-8.91,-20.90,-8.94,-20.91,20.91,17.39,18.41,12.00,11.98,11.99
72.19,-8.96,-20.87,-8.95,-20.86,20.86,17.36,18.24,11.90,11.91,11.91
72.91,-8.98,-20.82,-8.94,-20.79,20.79,17.33,18.06,11.81,11.85,11.84
73.64,-8.96,-20.73,-8.91,-20.69,20.69,17.30,17.90,11.72,11.78,11.77
74.38,-8.92,-20.62,-8.84,-20.55,20.55,17.27,17.73,11.63,11.71,11.70
75.12,-8.84,-20.48,-8.73,-20.38,20.38,17.24,17.57,11.54,11.65,11.64
75.87,-8.70,-20.28,-8.59,-20.18,20.18,17.20,17.41,11.48,11.58,11.58
76.63,-8.51,-20.02,-8.41,-19.94,19.94,17.17,17.26,11.43,11.52,11.51
77.40,-8.27,-19.73,-8.20,-19.66,19.66,17.13,17.12,11.39,11.46,11.46
78.17,-8.00,-19.39,-7.95,-19.34,19.34,17.09,16.98,11.34,11.40,11.39
78.95,-7.70,-19.04,-7.66,-19.00,19.00,17.04,16.85,11.30,11.33,11.34
79.74,-7.37,-18.64,-7.35,-18.62,18.62,16.99,16.73,11.25,11.27,11.27
80.54,-7.02,-18.24,-7.01,-18.22,18.22,16.94,16.61,11.20,11.21,11.22
81.35,-6.66,-17.81,-6.66,-17.81,17.81,16.88,16.51,11.15,11.15,11.15
82.16,-6.30,-17.40,-6.31,-17.40,17.40,16.82,16.41,11.10,11.09,11.10
82.98,-5.95,-16.98,-5.96,-16.99,16.99,16.75,16.32,11.04,11.03,11.03
83.81,-5.58,-16.55,-5.62,-16.59,16.59,16.67,16.24,11.01,10.96,10.97
84.65,-5.23,-16.12,-5.30,-16.20,16.20,16.58,16.17,10.96,10.90,10.89
85.50,-4.90,-15.73,-4.99,-15.82,15.82,16.48,16.11,10.92,10.83,10.83
86.35,-4.60,-15.36,-4.69,-15.46,15.46,16.37,16.06,10.86,10.77,10.76
87.22,-4.34,-15.04,-4.41,-15.11,15.11,16.24,16.01,10.77,10.70,10.70
88.09,-4.12,-14.75,-4.16,-14.79,14.79,16.09,15.98,10.67,10.63,10.63
88.97,-3.96,-14.53,-3.93,-14.49,14.49,15.93,15.95,10.53,10.56,10.56
89.86,-3.80,-14.30,-3.73,-14.22,14.22,15.74,15.94,10.42,10.49,10.50
90.76,-3.66,-14.09,-3.56,-13.98,13.98,15.52,15.93,10.32,10.42,10.43
91.66,-3.52,-13.87,-3.43,-13.78,13.78,15.28,15.93,10.26,10.35,10.35
92.58,-3.37,-13.66,-3.34,-13.62,13.62,15.01,15.95,10.25,10.28,10.29
93.51,-3.23,-13.45,-3.29,-13.50,13.50,14.72,15.97,10.27,10.21,10.21
94.44,-3.16,-13.30,-3.28,-13.41,13.41,14.40,16.00,10.25,10.13,10.14
95.39,-3.16,-13.22,-3.30,-13.36,13.36,14.09,16.04,10.20,10.06,10.06
96.34,-3.21,-13.20,-3.36,-13.34,13.34,13.79,16.08,10.13,9.98,9.99
97.30,-3.32,-13.23,-3.45,-13.36,13.36,13.54,16.14,10.04,9.91,9.91
98.28,-3.48,-13.31,-3.57,-13.41,13.41,13.37,16.21,9.93,9.84,9.83
99.26,-3.70,-13.46,-3.74,-13.50,13.50,13.30,16.28,9.80,9.76,9.75
100.25,-3.95,-13.63,-3.94,-13.63,13.63,13.35,16.36,9.68,9.69,9.68
101.25,-4.24,-13.86,-4.17,-13.79,13.79,13.51,16.45,9.55,9.62,9.62
102.27,-4.51,-14.06,-4.42,-13.97,13.97,13.76,16.54,9.46,9.55,9.55
103.29,-4.67,-14.15,-4.69,-14.17,14.17,14.05,16.65,9.50,9.48,9.47
104.32,-4.87,-14.28,-4.96,-14.37,14.37,14.37,16.75,9.49,9.41,9.41
105.37,-5.18,-14.52,-5.21,-14.55,14.55,14.68,16.87,9.37,9.34,9.34
106.42,-5.48,-14.76,-5.45,-14.72,14.72,14.97,16.98,9.24,9.27,9.28
107.48,-5.76,-14.96,-5.67,-14.88,14.88,15.25,17.10,9.11,9.20,9.20
108.56,-6.01,-15.15,-5.87,-15.00,15.00,15.49,17.23,8.99,9.13,9.14
109.64,-6.22,-15.29,-6.05,-15.11,15.11,15.71,17.35,8.89,9.06,9.07
110.74,-6.37,-15.37,-6.21,-15.20,15.20,15.90,17.48,8.83,8.99,9.00
111.85,-6.48,-15.40,-6.34,-15.26,15.26,16.07,17.60,8.78,8.92,8.92
112.97,-6.54,-15.40,-6.47,-15.31,15.31,16.21,17.72,8.77,8.85,8.86
114.10,-6.57,-15.35,-6.58,-15.36,15.36,16.34,17.84,8.79,8.78,8.78
115.24,-6.63,-15.33,-6.70,-15.40,15.40,16.46,17.95,8.77,8.71,8.70
116.39,-6.68,-15.31,-6.79,-15.43,15.43,16.56,18.05,8.75,8.64,8.63
117.55,-6.77,-15.33,-6.88,-15.45,15.45,16.65,18.14,8.68,8.57,8.55
118.73,-6.89,-15.37,-6.98,-15.47,15.47,16.73,18.22,8.58,8.50,8.48
119.92,-7.02,-15.44,-7.08,-15.51,15.51,16.80,18.29,8.48,8.43,8.42
121.12,-7.18,-15.54,-7.18,-15.54,15.54,16.86,18.34,8.36,8.36,8.36
122.33,-7.28,-15.57,-7.31,-15.60,15.60,16.92,18.37,8.32,8.29,8.29
123.55,-7.43,-15.66,-7.45,-15.67,15.67,16.97,18.39,8.24,8.22,8.23
124.79,-7.64,-15.80,-7.61,-15.76,15.76,17.02,18.39,8.12,8.15,8.16
126.03,-7.85,-15.95,-7.78,-15.87,15.87,17.06,18.37,8.02,8.09,8.09
127.29,-7.97,-16.00,-7.96,-15.98,15.98,17.10,18.34,8.01,8.02,8.03
128.57,-8.13,-16.08,-8.15,-16.10,16.10,17.13,18.28,7.97,7.95,7.95
129.85,-8.36,-16.25,-8.35,-16.24,16.24,17.16,18.21,7.88,7.88,7.89
131.15,-8.60,-16.41,-8.57,-16.39,16.39,17.19,18.13,7.78,7.82,7.81
132.46,-8.73,-16.48,-8.79,-16.54,16.54,17.22,18.03,7.81,7.75,7.75
133.79,-8.96,-16.64,-9.02,-16.71,16.71,17.25,17.92,7.75,7.68,7.68
135.12,-9.28,-16.90,-9.27,-16.88,16.88,17.27,17.79,7.60,7.62,7.61
136.48,-9.46,-17.02,-9.52,-17.07,17.07,17.29,17.66,7.61,7.55,7.55
137.84,-9.76,-17.25,-9.78,-17.26,17.26,17.31,17.52,7.50,7.49,7.49
139.22,-9.98,-17.40,-10.04,-17.46,17.46,17.33,17.38,7.48,7.42,7.42
140.61,-10.26,-17.62,-10.30,-17.66,17.66,17.35,17.23,7.40,7.36,7.36
142.02,-10.65,-17.95,-10.57,-17.87,17.87,17.36,17.08,7.22,7.30,7.30
143.44,-10.85,-18.09,-10.83,-18.08,18.08,17.38,16.93,7.23,7.24,7.24
144.87,-11.17,-18.36,-11.09,-18.28,18.28,17.39,16.78,7.11,7.19,7.19
146.32,-11.37,-18.50,-11.35,-18.48,18.48,17.41,16.64,7.11,7.13,7.13
147.78,-11.66,-18.74,-11.60,-18.68,18.68,17.42,16.49,7.02,7.07,7.08
149.26,-11.86,-18.88,-11.84,-18.86,18.86,17.43,16.35,7.00,7.02,7.02
150.75,-12.11,-19.07,-12.08,-19.04,19.04,17.44,16.22,6.93,6.96,6.96
152.26,-12.30,-19.21,-12.31,-19.22,19.22,17.45,16.09,6.91,6.91,6.91
153.78,-12.54,-19.40,-12.53,-19.39,19.39,17.46,15.96,6.84,6.85,6.86
155.32,-12.72,-19.52,-12.75,-19.55,19.55,17.47,15.85,6.83,6.80,6.80
156.88,-12.96,-19.71,-12.97,-19.71,19.71,17.47,15.74,6.75,6.74,6.75
158.44,-13.12,-19.81,-13.18,-19.87,19.87,17.48,15.64,6.75,6.69,6.69
160.03,-13.37,-20.01,-13.40,-20.03,20.03,17.49,15.55,6.66,6.63,6.64
161.63,-13.54,-20.12,-13.61,-20.19,20.19,17.49,15.46,6.65,6.58,6.58
163.24,-13.73,-20.25,-13.82,-20.34,20.34,17.50,15.39,6.61,6.52,6.52
164.88,-14.01,-20.48,-14.02,-20.49,20.49,17.50,15.32,6.47,6.47,6.47
166.53,-14.21,-20.61,-14.21,-20.62,20.62,17.50,15.26,6.41,6.41,6.40
168.19,-14.39,-20.75,-14.39,-20.74,20.74,17.50,15.21,6.35,6.35,6.36
169.87,-14.63,-20.93,-14.56,-20.86,20.86,17.50,15.17,6.22,6.29,6.30
171.57,-14.77,-21.01,-14.71,-20.95,20.95,17.50,15.14,6.18,6.24,6.23
173.29,-14.89,-21.08,-14.85,-21.03,21.03,17.50,15.12,6.14,6.18,6.18
175.02,-15.04,-21.17,-14.97,-21.09,21.09,17.50,15.11,6.05,6.12,6.13
176.77,-15.10,-21.17,-15.07,-21.14,21.14,17.50,15.11,6.04,6.07,6.07
178.54,-15.14,-21.15,-15.15,-21.16,21.16,17.50,15.12,6.02,6.01,6.01
180.32,-15.17,-21.12,-15.21,-21.17,21.17,17.49,15.14,5.99,5.96,5.95
182.13,-15.20,-21.10,-15.24,-21.14,21.14,17.49,15.17,5.94,5.90,5.90
183.95,-15.21,-21.06,-15.25,-21.10,21.10,17.48,15.21,5.89,5.85,5.85
185.79,-15.21,-21.00,-15.24,-21.03,21.03,17.48,15.25,5.82,5.79,5.79
187.65,-15.19,-20.93,-15.20,-20.94,20.94,17.47,15.31,5.75,5.74,5.74
189.52,-15.13,-20.82,-15.14,-20.83,20.83,17.46,15.38,5.70,5.69,5.69
191.42,-15.07,-20.71,-15.05,-20.69,20.69,17.45,15.45,5.62,5.64,5.64
193.33,-14.98,-20.58,-14.94,-20.53,20.53,17.44,15.54,5.55,5.59,5.60
195.27,-14.84,-20.38,-14.79,-20.34,20.34,17.43,15.64,5.50,5.54,5.54
197.22,-14.67,-20.16,-14.62,-20.12,20.12,17.42,15.74,5.45,5.50,5.49
199.19,-14.48,-19.93,-14.42,-19.87,19.87,17.41,15.85,5.39,5.45,5.45
201.18,-14.26,-19.66,-14.18,-19.60,19.60,17.39,15.98,5.34,5.41,5.40
203.19,-13.99,-19.36,-13.93,-19.30,19.30,17.38,16.11,5.31,5.37,5.37
205.23,-13.70,-19.04,-13.65,-18.98,18.98,17.36,16.25,5.28,5.33,5.34
207.28,-13.39,-18.69,-13.35,-18.64,18.64,17.34,16.39,5.25,5.29,5.30
209.35,-13.06,-18.32,-13.03,-18.29,18.29,17.33,16.55,5.23,5.25,5.26
211.44,-12.71,-17.93,-12.71,-17.93,17.93,17.31,16.70,5.22,5.22,5.22
213.56,-12.35,-17.54,-12.39,-17.57,17.57,17.29,16.87,5.22,5.18,5.19
215.69,-12.00,-17.16,-12.07,-17.22,17.22,17.27,17.04,5.22,5.15,5.16
217.85,-11.65,-16.77,-11.76,-16.88,16.88,17.24,17.21,5.23,5.12,5.12
220.03,-11.43,-16.52,-11.46,-16.55,16.55,17.22,17.38,5.12,5.09,5.09
222.23,-11.16,-16.21,-11.18,-16.24,16.24,17.20,17.56,5.08,5.06,5.05
224.45,-10.86,-15.89,-10.92,-15.95,15.95,17.17,17.73,5.09,5.03,5.03
226.70,-10.61,-15.61,-10.68,-15.68,15.68,17.14,17.90,5.07,5.00,5.00
228.96,-10.39,-15.38,-10.46,-15.44,15.44,17.12,18.06,5.05,4.98,4.99
231.25,-10.27,-15.23,-10.27,-15.22,15.22,17.09,18.21,4.95,4.96,4.96
233.57,-10.11,-15.05,-10.10,-15.03,15.03,17.06,18.35,4.92,4.94,4.94
235.90,-9.96,-14.88,-9.95,-14.87,14.87,17.03,18.48,4.91,4.92,4.92
238.26,-9.84,-14.73,-9.83,-14.73,14.73,16.99,18.58,4.89,4.90,4.89
240.64,-9.72,-14.61,-9.73,-14.61,14.61,16.96,18.67,4.89,4.88,4.89
243.05,-9.65,-14.52,-9.64,-14.51,14.51,16.93,18.74,4.86,4.87,4.87
245.48,-9.57,-14.43,-9.57,-14.42,14.42,16.89,18.78,4.85,4.86,4.85
247.93,-9.50,-14.34,-9.51,-14.36,14.36,16.85,18.79,4.86,4.85,4.84
250.41,-9.48,-14.32,-9.48,-14.32,14.32,16.82,18.78,4.84,4.84,4.84
252.92,-9.45,-14.29,-9.46,-14.29,14.29,16.78,18.74,4.84,4.83,4.84
255.45,-9.45,-14.27,-9.46,-14.28,14.28,16.74,18.67,4.83,4.82,4.82
258.00,-9.46,-14.28,-9.46,-14.28,14.28,16.70,18.58,4.82,4.82,4.82
260.58,-9.47,-14.29,-9.49,-14.30,14.30,16.65,18.46,4.82,4.81,4.81
263.19,-9.50,-14.31,-9.52,-14.32,14.32,16.61,18.32,4.82,4.80,4.81
265.82,-9.56,-14.36,-9.57,-14.36,14.36,16.57,18.16,4.80,4.80,4.80
268.48,-9.61,-14.41,-9.62,-14.41,14.41,16.52,17.99,4.80,4.79,4.80
271.16,-9.67,-14.47,-9.69,-14.47,14.47,16.48,17.80,4.80,4.79,4.79
273.87,-9.76,-14.54,-9.76,-14.54,14.54,16.43,17.60,4.78,4.78,4.78
276.61,-9.86,-14.64,-9.83,-14.61,14.61,16.38,17.39,4.75,4.78,4.78
279.38,-9.94,-14.70,-9.92,-14.69,14.69,16.33,17.17,4.75,4.78,4.76
282.17,-10.02,-14.78,-10.00,-14.77,14.77,16.28,16.96,4.75,4.77,4.76
284.99,-10.09,-14.86,-10.09,-14.86,14.86,16.23,16.74,4.77,4.77,4.77
287.84,-10.18,-14.95,-10.18,-14.95,14.95,16.18,16.52,4.77,4.77,4.77
290.72,-10.25,-15.01,-10.26,-15.04,15.04,16.13,16.30,4.79,4.77,4.76
293.63,-10.34,-15.12,-10.35,-15.12,15.12,16.07,16.08,4.78,4.77,4.77
296.57,-10.43,-15.21,-10.44,-15.21,15.21,16.02,15.87,4.78,4.77,4.78
299.53,-10.52,-15.30,-10.52,-15.30,15.30,15.96,15.67,4.78,4.78,4.78
302.53,-10.60,-15.39,-10.60,-15.38,15.38,15.91,15.47,4.78,4.78,4.79
305.55,-10.67,-15.45,-10.67,-15.46,15.46,15.85,15.28,4.79,4.79,4.78
308.61,-10.74,-15.54,-10.74,-15.53,15.53,15.79,15.09,4.79,4.79,4.80
311.69,-10.80,-15.60,-10.81,-15.60,15.60,15.73,14.92,4.80,4.80,4.80
314.81,-10.85,-15.65,-10.86,-15.67,15.67,15.67,14.75,4.82,4.80,4.80
317.96,-10.90,-15.71,-10.91,-15.72,15.72,15.61,14.59,4.82,4.81,4.81
321.14,-10.96,-15.78,-10.95,-15.76,15.76,15.55,14.44,4.80,4.81,4.82
324.35,-10.99,-15.80,-10.98,-15.80,15.80,15.49,14.30,4.81,4.82,4.81
327.59,-11.02,-15.86,-10.99,-15.82,15.82,15.43,14.16,4.79,4.83,4.84
330.87,-11.01,-15.84,-10.99,-15.82,15.82,15.37,14.04,4.81,4.83,4.83
334.18,-11.00,-15.84,-10.98,-15.81,15.81,15.30,13.92,4.81,4.84,4.84
337.52,-10.97,-15.81,-10.95,-15.79,15.79,15.24,13.82,4.82,4.85,4.84
340.90,-10.93,-15.79,-10.91,-15.76,15.76,15.17,13.72,4.83,4.85,4.86
344.30,-10.87,-15.73,-10.86,-15.71,15.71,15.11,13.63,4.84,4.86,4.86
347.75,-10.80,-15.67,-10.79,-15.66,15.66,15.04,13.55,4.85,4.86,4.87
351.23,-10.72,-15.58,-10.71,-15.59,15.59,14.98,13.48,4.86,4.87,4.86
354.74,-10.64,-15.53,-10.63,-15.51,15.51,14.91,13.42,4.86,4.88,4.89
358.28,-10.53,-15.41,-10.53,-15.42,15.42,14.84,13.37,4.89,4.89,4.88
361.87,-10.44,-15.33,-10.43,-15.32,15.32,14.78,13.33,4.88,4.89,4.89
365.49,-10.32,-15.22,-10.33,-15.23,15.23,14.71,13.29,4.91,4.90,4.90
