frequency,raw,error,smoothed,error_smoothed,equalization,parametric_eq,fixed_band_eq,equalized_raw,equalized_smoothed,target
20.00,13.59,4.85,13.58,4.85,-4.86,-3.79,-1.87,8.73,8.73,8.73
20.20,13.57,4.83,13.57,4.84,-4.84,-3.79,-1.92,8.73,8.73,8.73
20.40,13.56,4.82,13.55,4.82,-4.82,-3.79,-1.98,8.74,8.74,8.73
20.61,13.54,4.80,13.54,4.81,-4.80,-3.80,-2.04,8.74,8.74,8.73
20.81,13.52,4.79,13.52,4.79,-4.78,-3.80,-2.09,8.73,8.74,8.72
21.02,13.50,4.77,13.49,4.77,-4.76,-3.80,-2.16,8.73,8.73,8.72
21.23,13.47,4.74,13.47,4.74,-4.75,-3.80,-2.22,8.72,8.72,8.72
21.44,13.45,4.71,13.45,4.72,-4.73,-3.80,-2.28,8.72,8.72,8.73
21.66,13.44,4.71,13.43,4.71,-4.71,-3.81,-2.35,8.73,8.72,8.72
21.87,13.42,4.69,13.42,4.69,-4.69,-3.81,-2.42,8.72,8.72,8.72
22.09,13.40,4.68,13.40,4.68,-4.68,-3.81,-2.49,8.72,8.72,8.71
22.31,13.38,4.66,13.38,4.66,-4.66,-3.81,-2.56,8.71,8.71,8.71
22.54,13.36,4.65,13.36,4.65,-4.65,-3.81,-2.63,8.71,8.71,8.70
22.76,13.34,4.63,13.34,4.64,-4.64,-3.82,-2.71,8.70,8.70,8.70
22.99,13.32,4.62,13.32,4.62,-4.62,-3.82,-2.78,8.69,8.69,8.69
23.22,13.30,4.61,13.30,4.61,-4.61,-3.82,-2.86,8.69,8.69,8.68
23.45,13.28,4.59,13.28,4.60,-4.59,-3.82,-2.94,8.68,8.68,8.68
23.69,13.26,4.58,13.26,4.58,-4.58,-3.82,-3.03,8.68,8.68,8.67
23.92,13.24,4.57,13.24,4.57,-4.56,-3.83,-3.11,8.67,8.67,8.66
24.16,13.22,4.55,13.21,4.55,-4.55,-3.83,-3.20,8.67,8.67,8.66
24.40,13.19,4.52,13.19,4.53,-4.53,-3.83,-3.28,8.66,8.66,8.66
24.65,13.17,4.50,13.17,4.50,-4.51,-3.83,-3.37,8.66,8.66,8.66
24.89,13.15,4.48,13.15,4.49,-4.49,-3.84,-3.46,8.65,8.65,8.66
25.14,13.13,4.47,13.13,4.47,-4.47,-3.84,-3.55,8.66,8.65,8.65
25.39,13.11,4.46,13.10,4.46,-4.45,-3.84,-3.64,8.66,8.65,8.64
25.65,13.08,4.43,13.08,4.44,-4.43,-3.84,-3.73,8.65,8.65,8.64
25.91,13.06,4.41,13.06,4.41,-4.41,-3.85,-3.82,8.65,8.65,8.64
26.16,13.04,4.38,13.03,4.38,-4.38,-3.85,-3.91,8.65,8.65,8.65
26.43,13.01,4.35,13.01,4.36,-4.36,-3.85,-4.00,8.65,8.65,8.65
26.69,12.99,4.33,12.99,4.34,-4.34,-3.85,-4.09,8.65,8.65,8.65
26.96,12.97,4.32,12.96,4.32,-4.31,-3.86,-4.18,8.65,8.65,8.64
27.23,12.94,4.29,12.94,4.29,-4.29,-3.86,-4.27,8.65,8.65,8.64
27.50,12.91,4.26,12.91,4.26,-4.27,-3.86,-4.35,8.64,8.65,8.64
27.77,12.89,4.23,12.88,4.24,-4.24,-3.86,-4.43,8.64,8.64,8.65
28.05,12.87,4.22,12.86,4.22,-4.22,-3.87,-4.51,8.64,8.64,8.64
28.33,12.84,4.20,12.84,4.20,-4.20,-3.87,-4.59,8.63,8.64,8.63
28.62,12.82,4.19,12.81,4.18,-4.18,-3.87,-4.66,8.64,8.63,8.62
28.90,12.79,4.15,12.79,4.16,-4.16,-3.87,-4.73,8.62,8.63,8.63
29.19,12.77,4.14,12.76,4.14,-4.14,-3.87,-4.79,8.62,8.62,8.62
29.48,12.74,4.12,12.74,4.12,-4.12,-3.88,-4.84,8.61,8.61,8.61
29.78,12.72,4.11,12.71,4.11,-4.10,-3.88,-4.90,8.61,8.61,8.60
30.08,12.69,4.08,12.69,4.09,-4.09,-3.88,-4.94,8.60,8.60,8.60
30.38,12.66,4.06,12.66,4.07,-4.07,-3.88,-4.98,8.59,8.59,8.59
30.68,12.64,4.05,12.63,4.04,-4.04,-3.89,-5.01,8.59,8.59,8.58
30.99,12.61,4.02,12.61,4.03,-4.02,-3.89,-5.04,8.58,8.59,8.58
31.30,12.59,4.00,12.59,4.00,-4.00,-3.89,-5.05,8.58,8.58,8.58
31.61,12.57,3.98,12.56,3.98,-3.98,-3.89,-5.07,8.59,8.58,8.58
31.93,12.54,3.96,12.54,3.96,-3.96,-3.89,-5.07,8.58,8.58,8.57
32.24,12.52,3.93,12.52,3.94,-3.94,-3.90,-5.07,8.58,8.58,8.58
32.57,12.50,3.92,12.49,3.92,-3.92,-3.90,-5.06,8.58,8.58,8.57
32.89,12.47,3.89,12.47,3.89,-3.89,-3.90,-5.05,8.57,8.57,8.57
33.22,12.45,3.87,12.44,3.87,-3.88,-3.90,-5.03,8.57,8.57,8.57
33.55,12.42,3.85,12.42,3.85,-3.86,-3.90,-5.01,8.56,8.56,8.56
33.89,12.40,3.84,12.39,3.84,-3.84,-3.90,-4.97,8.56,8.55,8.55
34.23,12.37,3.83,12.37,3.83,-3.83,-3.91,-4.94,8.54,8.54,8.53
34.57,12.35,3.81,12.34,3.81,-3.81,-3.91,-4.90,8.53,8.53,8.53
34.92,12.32,3.80,12.32,3.80,-3.80,-3.91,-4.86,8.51,8.52,8.51
35.27,12.30,3.79,12.29,3.79,-3.80,-3.91,-4.82,8.50,8.50,8.50
35.62,12.27,3.79,12.26,3.79,-3.79,-3.91,-4.77,8.48,8.47,8.47
35.97,12.24,3.78,12.24,3.78,-3.79,-3.91,-4.72,8.45,8.45,8.45
36.33,12.21,3.78,12.21,3.79,-3.79,-3.91,-4.67,8.42,8.42,8.42
36.70,12.19,3.79,12.18,3.79,-3.79,-3.91,-4.62,8.40,8.39,8.39
37.06,12.16,3.79,12.16,3.79,-3.79,-3.91,-4.56,8.36,8.36,8.36
37.43,12.13,3.79,12.13,3.80,-3.80,-3.91,-4.51,8.33,8.33,8.33
37.81,12.11,3.80,12.10,3.80,-3.80,-3.91,-4.46,8.30,8.30,8.30
38.19,12.08,3.81,12.08,3.81,-3.81,-3.92,-4.41,8.27,8.27,8.26
38.57,12.06,3.81,12.05,3.81,-3.81,-3.92,-4.35,8.24,8.24,8.24
38.95,12.03,3.81,12.03,3.82,-3.82,-3.92,-4.30,8.21,8.21,8.21
39.34,12.01,3.83,12.00,3.83,-3.82,-3.92,-4.26,8.18,8.18,8.17
39.74,11.98,3.83,11.97,3.83,-3.82,-3.92,-4.21,8.15,8.15,8.14
40.14,11.95,3.82,11.95,3.82,-3.82,-3.92,-4.16,8.12,8.12,8.12
40.54,11.92,3.81,11.92,3.82,-3.82,-3.91,-4.12,8.09,8.10,8.10
40.94,11.90,3.82,11.89,3.82,-3.82,-3.91,-4.08,8.07,8.07,8.07
41.35,11.87,3.82,11.87,3.82,-3.82,-3.91,-4.04,8.05,8.05,8.04
41.76,11.84,3.82,11.84,3.82,-3.82,-3.91,-4.01,8.02,8.02,8.01
42.18,11.82,3.81,11.81,3.81,-3.81,-3.91,-3.97,8.00,8.00,8.00
42.60,11.78,3.80,11.78,3.81,-3.81,-3.91,-3.94,7.97,7.97,7.97
43.03,11.76,3.81,11.76,3.80,-3.81,-3.91,-3.91,7.95,7.95,7.94
43.46,11.73,3.80,11.73,3.80,-3.80,-3.91,-3.89,7.92,7.93,7.92
43.90,11.71,3.80,11.70,3.80,-3.80,-3.91,-3.87,7.91,7.90,7.90
44.33,11.67,3.80,11.67,3.80,-3.79,-3.92,-3.85,7.87,7.88,7.86
44.78,11.64,3.79,11.64,3.79,-3.79,-3.92,-3.83,7.84,7.85,7.84
45.23,11.61,3.77,11.61,3.79,-3.79,-3.92,-3.82,7.82,7.82,7.83
45.68,11.58,3.78,11.58,3.79,-3.79,-3.92,-3.81,7.78,7.79,7.79
46.13,11.56,3.81,11.55,3.79,-3.79,-3.92,-3.80,7.76,7.76,7.74
46.60,11.52,3.79,11.52,3.80,-3.80,-3.92,-3.80,7.72,7.72,7.72
47.06,11.50,3.81,11.50,3.81,-3.81,-3.93,-3.80,7.69,7.69,7.68
47.53,11.47,3.81,11.46,3.82,-3.82,-3.93,-3.80,7.65,7.65,7.65
48.01,11.44,3.84,11.43,3.83,-3.83,-3.94,-3.80,7.61,7.60,7.59
48.49,11.40,3.83,11.40,3.84,-3.85,-3.94,-3.81,7.55,7.55,7.56
48.97,11.37,3.85,11.37,3.86,-3.86,-3.95,-3.81,7.50,7.51,7.51
49.46,11.35,3.87,11.34,3.87,-3.88,-3.95,-3.83,7.47,7.46,7.47
49.96,11.32,3.91,11.31,3.90,-3.90,-3.96,-3.84,7.42,7.42,7.40
50.46,11.28,3.91,11.28,3.92,-3.91,-3.97,-3.85,7.37,7.37,7.36
50.96,11.25,3.93,11.25,3.93,-3.93,-3.98,-3.87,7.32,7.32,7.31
51.47,11.22,3.94,11.22,3.95,-3.94,-3.99,-3.89,7.28,7.28,7.27
51.99,11.19,3.96,11.19,3.96,-3.95,-4.00,-3.91,7.23,7.23,7.22
52.51,11.16,3.97,11.15,3.96,-3.97,-4.01,-3.93,7.19,7.19,7.18
53.03,11.12,3.96,11.12,3.97,-3.98,-4.02,-3.95,7.14,7.14,7.15
53.56,11.08,3.97,11.08,3.98,-3.99,-4.04,-3.98,7.09,7.09,7.10
54.10,11.06,4.01,11.05,4.00,-4.00,-4.05,-4.00,7.05,7.05,7.04
54.64,11.02,4.01,11.02,4.02,-4.02,-4.06,-4.02,7.00,7.00,7.00
55.18,10.99,4.04,10.98,4.04,-4.03,-4.08,-4.05,6.96,6.95,6.94
55.74,10.95,4.04,10.95,4.04,-4.04,-4.09,-4.07,6.90,6.91,6.90
56.29,10.92,4.05,10.92,4.05,-4.05,-4.11,-4.09,6.86,6.86,6.86
56.86,10.89,4.06,10.88,4.07,-4.06,-4.13,-4.12,6.82,6.82,6.82
57.42,10.85,4.08,10.85,4.08,-4.07,-4.14,-4.14,6.77,6.78,6.76
58.00,10.82,4.09,10.82,4.09,-4.08,-4.16,-4.16,6.74,6.74,6.72
58.58,10.79,4.09,10.78,4.09,-4.09,-4.18,-4.17,6.70,6.69,6.69
59.16,10.75,4.09,10.75,4.09,-4.10,-4.19,-4.19,6.64,6.65,6.65
59.76,10.71,4.09,10.71,4.10,-4.12,-4.21,-4.21,6.59,6.59,6.61
60.35,10.68,4.13,10.67,4.12,-4.14,-4.23,-4.22,6.54,6.54,6.54
60.96,10.64,4.14,10.64,4.15,-4.16,-4.24,-4.23,6.48,6.48,6.49
61.57,10.61,4.19,10.60,4.18,-4.18,-4.26,-4.24,6.42,6.42,6.41
62.18,10.57,4.21,10.57,4.21,-4.21,-4.28,-4.24,6.36,6.36,6.35
62.80,10.54,4.24,10.53,4.24,-4.23,-4.29,-4.24,6.30,6.30,6.29
63.43,10.50,4.27,10.50,4.27,-4.26,-4.31,-4.24,6.24,6.24,6.22
64.07,10.46,4.28,10.46,4.28,-4.28,-4.33,-4.24,6.18,6.18,6.17
64.71,10.43,4.30,10.42,4.30,-4.30,-4.34,-4.24,6.13,6.12,6.12
65.35,10.38,4.30,10.38,4.31,-4.31,-4.36,-4.23,6.06,6.07,6.07
66.01,10.35,4.33,10.34,4.32,-4.33,-4.37,-4.22,6.02,6.01,6.01
66.67,10.31,4.33,10.30,4.34,-4.34,-4.39,-4.21,5.96,5.96,5.97
67.33,10.27,4.36,10.27,4.36,-4.36,-4.40,-4.20,5.91,5.91,5.90
68.01,10.23,4.37,10.23,4.38,-4.37,-4.42,-4.18,5.85,5.85,5.85
68.69,10.20,4.40,10.19,4.40,-4.39,-4.43,-4.16,5.80,5.80,5.79
69.37,10.16,4.41,10.16,4.41,-4.41,-4.45,-4.15,5.75,5.75,5.74
70.07,10.12,4.42,10.12,4.43,-4.43,-4.46,-4.13,5.69,5.69,5.69
70.77,10.08,4.44,10.08,4.44,-4.45,-4.47,-4.11,5.63,5.63,5.63
71.48,10.04,4.46,10.04,4.46,-4.47,-4.49,-4.09,5.57,5.57,5.57
72.19,10.00,4.49,10.00,4.49,-4.49,-4.50,-4.07,5.51,5.51,5.50
72.91,9.96,4.50,9.95,4.51,-4.50,-4.51,-4.06,5.45,5.45,5.45
73.64,9.92,4.53,9.91,4.53,-4.52,-4.52,-4.04,5.39,5.39,5.38
74.38,9.87,4.54,9.87,4.54,-4.54,-4.54,-4.02,5.33,5.33,5.32
75.12,9.84,4.56,9.83,4.56,-4.56,-4.55,-4.01,5.28,5.28,5.27
75.87,9.80,4.56,9.79,4.57,-4.57,-4.56,-3.99,5.22,5.22,5.23
76.63,9.76,4.58,9.76,4.59,-4.58,-4.57,-3.98,5.17,5.17,5.17
77.40,9.72,4.60,9.72,4.60,-4.60,-4.58,-3.97,5.12,5.12,5.11
78.17,9.68,4.62,9.67,4.61,-4.61,-4.59,-3.96,5.07,5.07,5.05
78.95,9.63,4.60,9.63,4.62,-4.62,-4.60,-3.95,5.01,5.01,5.02
79.74,9.59,4.62,9.59,4.62,-4.63,-4.61,-3.94,4.96,4.96,4.96
80.54,9.55,4.64,9.55,4.63,-4.64,-4.62,-3.94,4.91,4.91,4.90
81.35,9.51,4.64,9.50,4.64,-4.65,-4.63,-3.94,4.86,4.86,4.86
82.16,9.47,4.65,9.46,4.65,-4.66,-4.64,-3.94,4.81,4.81,4.81
82.98,9.42,4.66,9.42,4.66,-4.67,-4.65,-3.95,4.75,4.76,4.75
83.81,9.39,4.68,9.38,4.68,-4.68,-4.66,-3.96,4.71,4.70,4.70
84.65,9.34,4.69,9.34,4.69,-4.69,-4.67,-3.97,4.65,4.65,4.64
85.50,9.30,4.70,9.30,4.70,-4.70,-4.67,-3.98,4.60,4.60,4.59
86.35,9.26,4.71,9.25,4.71,-4.71,-4.68,-3.99,4.55,4.54,4.54
87.22,9.21,4.71,9.21,4.72,-4.72,-4.69,-4.01,4.48,4.49,4.49
88.09,9.17,4.73,9.17,4.73,-4.73,-4.70,-4.04,4.43,4.43,4.43
88.97,9.13,4.74,9.13,4.75,-4.75,-4.71,-4.06,4.38,4.38,4.38
89.86,9.09,4.76,9.09,4.76,-4.76,-4.71,-4.09,4.33,4.33,4.32
90.76,9.05,4.78,9.04,4.77,-4.77,-4.72,-4.12,4.27,4.27,4.26
91.66,9.00,4.78,9.00,4.79,-4.79,-4.73,-4.16,4.21,4.21,4.21
92.58,8.96,4.80,8.96,4.80,-4.80,-4.74,-4.19,4.15,4.15,4.15
93.51,8.92,4.82,8.91,4.82,-4.82,-4.75,-4.23,4.09,4.09,4.09
94.44,8.88,4.84,8.87,4.84,-4.85,-4.76,-4.28,4.03,4.03,4.03
95.39,8.83,4.86,8.83,4.86,-4.87,-4.76,-4.32,3.96,3.96,3.96
96.34,8.79,4.89,8.78,4.89,-4.89,-4.77,-4.37,3.89,3.89,3.89
97.30,8.74,4.90,8.74,4.92,-4.92,-4.78,-4.42,3.82,3.82,3.83
98.28,8.71,4.96,8.70,4.95,-4.94,-4.79,-4.47,3.76,3.76,3.74
99.26,8.66,4.98,8.66,4.98,-4.97,-4.80,-4.53,3.69,3.69,3.67
100.25,8.62,5.00,8.61,5.00,-4.99,-4.81,-4.59,3.62,3.62,3.61
101.25,8.57,5.01,8.57,5.02,-5.02,-4.82,-4.64,3.55,3.55,3.55
102.27,8.53,5.03,8.53,5.04,-5.04,-4.83,-4.71,3.49,3.49,3.49
103.29,8.49,5.06,8.48,5.05,-5.06,-4.84,-4.77,3.43,3.43,3.42
104.32,8.45,5.07,8.44,5.07,-5.07,-4.85,-4.83,3.37,3.37,3.37
105.37,8.40,5.08,8.40,5.09,-5.09,-4.86,-4.89,3.31,3.31,3.31
106.42,8.36,5.10,8.36,5.10,-5.10,-4.87,-4.96,3.25,3.25,3.25
107.48,8.32,5.13,8.31,5.12,-5.12,-4.88,-5.02,3.20,3.19,3.18
108.56,8.27,5.13,8.27,5.14,-5.14,-4.89,-5.08,3.13,3.13,3.13
109.64,8.23,5.14,8.23,5.15,-5.15,-4.90,-5.15,3.07,3.07,3.08
110.74,8.19,5.17,8.19,5.17,-5.17,-4.92,-5.21,3.02,3.02,3.01
111.85,8.15,5.19,8.15,5.19,-5.19,-4.93,-5.27,2.96,2.96,2.95
112.97,8.11,5.21,8.10,5.21,-5.21,-4.94,-5.33,2.90,2.89,2.89
114.10,8.06,5.22,8.06,5.23,-5.23,-4.96,-5.38,2.83,2.83,2.83
115.24,8.01,5.24,8.01,5.25,-5.25,-4.97,-5.43,2.75,2.76,2.76
116.39,7.97,5.28,7.97,5.28,-5.28,-4.99,-5.48,2.69,2.69,2.68
117.55,7.93,5.30,7.92,5.31,-5.30,-5.00,-5.53,2.62,2.62,2.62
118.73,7.89,5.34,7.88,5.34,-5.33,-5.02,-5.57,2.56,2.55,2.54
119.92,7.84,5.36,7.84,5.36,-5.36,-5.04,-5.61,2.48,2.48,2.47
121.12,7.80,5.38,7.79,5.39,-5.38,-5.05,-5.64,2.41,2.41,2.41
122.33,7.75,5.41,7.75,5.41,-5.41,-5.07,-5.67,2.34,2.34,2.33
123.55,7.71,5.43,7.71,5.43,-5.44,-5.09,-5.69,2.27,2.27,2.27
124.79,7.67,5.46,7.66,5.46,-5.47,-5.11,-5.70,2.20,2.19,2.20
126.03,7.62,5.48,7.62,5.49,-5.50,-5.13,-5.72,2.12,2.12,2.13
127.29,7.58,5.53,7.58,5.53,-5.53,-5.15,-5.72,2.05,2.05,2.04
128.57,7.54,5.56,7.53,5.56,-5.56,-5.17,-5.73,1.98,1.97,1.97
129.85,7.49,5.59,7.49,5.60,-5.59,-5.19,-5.72,1.90,1.90,1.89
131.15,7.45,5.62,7.44,5.62,-5.61,-5.21,-5.72,1.83,1.83,1.82
132.46,7.40,5.64,7.40,5.64,-5.64,-5.24,-5.70,1.76,1.76,1.75
133.79,7.35,5.65,7.35,5.66,-5.66,-5.26,-5.69,1.69,1.69,1.69
135.12,7.31,5.68,7.30,5.67,-5.67,-5.28,-5.67,1.63,1.63,1.62
136.48,7.26,5.67,7.26,5.68,-5.69,-5.31,-5.65,1.57,1.57,1.58
137.84,7.22,5.69,7.22,5.70,-5.70,-5.33,-5.62,1.52,1.52,1.52
139.22,7.18,5.72,7.17,5.71,-5.71,-5.36,-5.59,1.47,1.46,1.45
140.61,7.13,5.71,7.13,5.72,-5.72,-5.38,-5.56,1.41,1.41,1.41
142.02,7.09,5.72,7.09,5.73,-5.72,-5.41,-5.53,1.36,1.36,1.36
143.44,7.05,5.74,7.04,5.73,-5.73,-5.43,-5.50,1.31,1.31,1.30
144.87,7.00,5.73,7.00,5.74,-5.74,-5.46,-5.47,1.26,1.26,1.26
146.32,6.96,5.74,6.96,5.74,-5.74,-5.49,-5.43,1.21,1.21,1.21
147.78,6.92,5.75,6.92,5.75,-5.75,-5.51,-5.40,1.17,1.16,1.16
149.26,6.88,5.75,6.88,5.76,-5.76,-5.54,-5.37,1.12,1.12,1.12
150.75,6.84,5.77,6.84,5.76,-5.76,-5.57,-5.34,1.07,1.07,1.06
152.26,6.80,5.76,6.80,5.77,-5.77,-5.60,-5.31,1.03,1.03,1.03
153.78,6.76,5.78,6.76,5.78,-5.78,-5.62,-5.28,0.98,0.98,0.97
155.32,6.73,5.79,6.72,5.79,-5.79,-5.65,-5.26,0.94,0.93,0.93
156.88,6.68,5.79,6.68,5.80,-5.80,-5.68,-5.23,0.87,0.88,0.88
158.44,6.65,5.81,6.65,5.81,-5.81,-5.71,-5.21,0.83,0.83,0.83
160.03,6.62,5.83,6.61,5.83,-5.83,-5.73,-5.19,0.79,0.78,0.78
161.63,6.57,5.83,6.57,5.84,-5.84,-5.76,-5.18,0.72,0.73,0.73
163.24,6.54,5.87,6.54,5.86,-5.86,-5.79,-5.17,0.68,0.68,0.66
164.88,6.51,5.88,6.50,5.88,-5.88,-5.82,-5.16,0.63,0.62,0.62
166.53,6.47,5.90,6.47,5.90,-5.90,-5.84,-5.15,0.57,0.57,0.56
168.19,6.43,5.90,6.43,5.91,-5.91,-5.87,-5.16,0.51,0.51,0.52
169.87,6.40,5.92,6.39,5.93,-5.93,-5.90,-5.16,0.46,0.46,0.47
171.57,6.36,5.95,6.36,5.95,-5.95,-5.92,-5.16,0.41,0.41,0.40
173.29,6.34,5.98,6.33,5.97,-5.97,-5.95,-5.17,0.37,0.36,0.35
175.02,6.30,5.98,6.30,5.99,-5.98,-5.97,-5.19,0.31,0.31,0.31
176.77,6.27,6.00,6.27,6.00,-6.00,-5.99,-5.21,0.27,0.26,0.26
178.54,6.23,6.01,6.23,6.02,-6.02,-6.02,-5.23,0.21,0.21,0.21
180.32,6.20,6.04,6.19,6.03,-6.03,-6.04,-5.26,0.17,0.16,0.15
182.13,6.16,6.04,6.16,6.04,-6.04,-6.06,-5.29,0.11,0.11,0.11
183.95,6.12,6.04,6.12,6.05,-6.05,-6.08,-5.32,0.06,0.07,0.07
185.79,6.09,6.07,6.08,6.06,-6.07,-6.10,-5.36,0.02,0.02,0.01
187.65,6.05,6.07,6.04,6.07,-6.08,-6.12,-5.40,-0.03,-0.03,-0.03
189.52,6.01,6.08,6.01,6.09,-6.09,-6.13,-5.45,-0.08,-0.08,-0.08
191.42,5.97,6.09,5.97,6.09,-6.10,-6.15,-5.49,-0.13,-0.13,-0.13
193.33,5.94,6.11,5.93,6.11,-6.11,-6.16,-5.55,-0.17,-0.17,-0.18
195.27,5.89,6.11,5.89,6.12,-6.11,-6.17,-5.60,-0.23,-0.22,-0.23
197.22,5.86,6.13,5.85,6.12,-6.12,-6.19,-5.66,-0.26,-0.27,-0.28
199.19,5.81,6.11,5.81,6.12,-6.12,-6.20,-5.72,-0.31,-0.31,-0.31
201.18,5.77,6.12,5.77,6.12,-6.12,-6.20,-5.78,-0.35,-0.35,-0.36
203.19,5.74,6.12,5.73,6.12,-6.12,-6.21,-5.85,-0.38,-0.39,-0.39
205.23,5.69,6.11,5.69,6.12,-6.12,-6.22,-5.92,-0.43,-0.43,-0.43
207.28,5.66,6.11,5.65,6.11,-6.11,-6.22,-5.98,-0.46,-0.46,-0.46
209.35,5.61,6.10,5.61,6.11,-6.11,-6.22,-6.05,-0.50,-0.50,-0.50
211.44,5.57,6.10,5.57,6.10,-6.10,-6.22,-6.12,-0.54,-0.54,-0.54
213.56,5.53,6.10,5.52,6.10,-6.10,-6.22,-6.19,-0.57,-0.57,-0.58
215.69,5.49,6.09,5.48,6.09,-6.09,-6.22,-6.26,-0.60,-0.60,-0.61
217.85,5.44,6.07,5.44,6.08,-6.08,-6.21,-6.33,-0.64,-0.64,-0.64
220.03,5.40,6.07,5.40,6.06,-6.06,-6.20,-6.40,-0.67,-0.67,-0.68
222.23,5.35,6.04,5.35,6.05,-6.05,-6.19,-6.46,-0.70,-0.70,-0.70
224.45,5.31,6.03,5.30,6.03,-6.03,-6.18,-6.52,-0.72,-0.73,-0.73
226.70,5.25,6.00,5.25,6.00,-6.01,-6.17,-6.57,-0.76,-0.75,-0.76
228.96,5.21,5.98,5.21,5.98,-5.99,-6.15,-6.63,-0.78,-0.78,-0.78
231.25,5.17,5.96,5.16,5.96,-5.96,-6.13,-6.67,-0.80,-0.81,-0.80
233.57,5.11,5.93,5.11,5.94,-5.94,-6.12,-6.71,-0.83,-0.83,-0.83
235.90,5.07,5.92,5.06,5.92,-5.92,-6.09,-6.74,-0.85,-0.85,-0.86
238.26,5.02,5.90,5.02,5.89,-5.89,-6.07,-6.77,-0.87,-0.87,-0.89
240.64,4.97,5.85,4.97,5.86,-5.86,-6.04,-6.79,-0.90,-0.89,-0.89
243.05,4.93,5.83,4.92,5.83,-5.83,-6.02,-6.80,-0.90,-0.91,-0.91
245.48,4.87,5.80,4.87,5.80,-5.80,-5.99,-6.79,-0.93,-0.93,-0.94
247.93,4.82,5.77,4.82,5.77,-5.76,-5.96,-6.79,-0.95,-0.94,-0.96
250.41,4.77,5.72,4.76,5.73,-5.72,-5.92,-6.77,-0.96,-0.96,-0.96
252.92,4.72,5.68,4.71,5.68,-5.69,-5.89,-6.74,-0.97,-0.97,-0.97
255.45,4.66,5.64,4.66,5.64,-5.65,-5.85,-6.71,-0.99,-0.99,-0.99
258.00,4.61,5.60,4.61,5.60,-5.61,-5.81,-6.66,-1.00,-1.00,-1.00
260.58,4.56,5.56,4.56,5.57,-5.57,-5.77,-6.61,-1.01,-1.01,-1.01
263.19,4.51,5.53,4.51,5.53,-5.53,-5.73,-6.55,-1.02,-1.02,-1.03
265.82,4.46,5.49,4.45,5.49,-5.49,-5.68,-6.47,-1.03,-1.03,-1.04
268.48,4.40,5.44,4.40,5.45,-5.45,-5.64,-6.40,-1.05,-1.05,-1.05
271.16,4.35,5.41,4.34,5.41,-5.41,-5.59,-6.31,-1.06,-1.07,-1.07
273.87,4.29,5.36,4.29,5.37,-5.37,-5.54,-6.22,-1.08,-1.08,-1.08
276.61,4.24,5.33,4.23,5.33,-5.33,-5.49,-6.12,-1.09,-1.09,-1.10
279.38,4.18,5.29,4.18,5.29,-5.28,-5.44,-6.02,-1.11,-1.10,-1.12
282.17,4.13,5.25,4.12,5.24,-5.24,-5.39,-5.92,-1.11,-1.12,-1.13
284.99,4.07,5.18,4.07,5.19,-5.19,-5.33,-5.81,-1.13,-1.13,-1.12
287.84,4.01,5.13,4.01,5.14,-5.15,-5.27,-5.70,-1.14,-1.14,-1.13
290.72,3.96,5.11,3.96,5.10,-5.10,-5.22,-5.58,-1.14,-1.14,-1.16
293.63,3.91,5.05,3.90,5.05,-5.05,-5.16,-5.47,-1.14,-1.15,-1.15
296.57,3.85,5.00,3.85,5.00,-5.00,-5.10,-5.35,-1.15,-1.15,-1.16
299.53,3.79,4.95,3.79,4.95,-4.95,-5.04,-5.23,-1.16,-1.16,-1.17
302.53,3.73,4.89,3.73,4.90,-4.90,-4.98,-5.11,-1.17,-1.17,-1.17
305.55,3.68,4.85,3.67,4.84,-4.85,-4.91,-4.99,-1.17,-1.18,-1.18
308.61,3.61,4.78,3.61,4.79,-4.79,-4.85,-4.88,-1.19,-1.18,-1.18
311.69,3.56,4.74,3.55,4.74,-4.74,-4.78,-4.76,-1.18,-1.18,-1.19
314.81,3.50,4.68,3.49,4.68,-4.68,-4.72,-4.65,-1.19,-1.19,-1.19
317.96,3.44,4.63,3.44,4.63,-4.63,-4.65,-4.53,-1.19,-1.19,-1.20
321.14,3.38,4.56,3.38,4.57,-4.57,-4.58,-4.42,-1.19,-1.19,-1.19
324.35,3.32,4.52,3.32,4.51,-4.51,-4.52,-4.31,-1.20,-1.20,-1.21
327.59,3.26,4.44,3.26,4.45,-4.46,-4.45,-4.20,-1.20,-1.20,-1.19
330.87,3.20,4.39,3.20,4.40,-4.40,-4.38,-4.10,-1.20,-1.20,-1.20
334.18,3.15,4.35,3.14,4.34,-4.34,-4.31,-3.99,-1.19,-1.20,-1.21
337.52,3.08,4.27,3.08,4.28,-4.28,-4.24,-3.89,-1.20,-1.20,-1.20
340.90,3.02,4.22,3.02,4.22,-4.22,-4.17,-3.79,-1.20,-1.20,-1.21
344.30,2.96,4.15,2.96,4.15,-4.15,-4.10,-3.70,-1.20,-1.20,-1.20
347.75,2.90,4.08,2.90,4.09,-4.09,-4.02,-3.60,-1.20,-1.20,-1.19
351.23,2.84,4.04,2.83,4.03,-4.03,-3.95,-3.51,-1.19,-1.20,-1.21
354.74,2.78,3.96,2.77,3.97,-3.97,-3.88,-3.43,-1.19,-1.19,-1.19
358.28,2.71,3.90,2.71,3.91,-3.91,-3.81,-3.34,-1.20,-1.19,-1.20
361.87,2.66,3.85,2.65,3.84,-3.84,-3.73,-3.26,-1.19,-1.19,-1.20
365.49,2.59,3.78,2.59,3.78,-3.78,-3.66,-3.18,-1.20,-1.19,-1.20
369.14,2.53,3.71,2.53,3.72,-3.72,-3.59,-3.10,-1.19,-1.19,-1.19
372.83,2.47,3.65,2.47,3.66,-3.66,-3.52,-3.02,-1.19,-1.19,-1.19
376.56,2.41,3.60,2.41,3.60,-3.60,-3.44,-2.95,-1.19,-1.19,-1.20
380.33,2.35,3.54,2.34,3.54,-3.54,-3.37,-2.88,-1.19,-1.19,-1.20
384.13,2.28,3.47,2.28,3.47,-3.47,-3.30,-2.81,-1.20,-1.19,-1.20
387.97,2.22,3.40,2.22,3.41,-3.41,-3.22,-2.75,-1.19,-1.19,-1.19
391.85,2.16,3.35,2.16,3.35,-3.35,-3.15,-2.68,-1.19,-1.19,-1.20
395.77,2.10,3.29,2.10,3.29,-3.29,-3.08,-2.62,-1.19,-1.19,-1.20
399.73,2.04,3.23,2.03,3.23,-3.22,-3.01,-2.56,-1.19,-1.19,-1.20
403.72,1.97,3.15,1.97,3.16,-3.16,-2.93,-2.50,-1.19,-1.19,-1.19
407.76,1.91,3.09,1.91,3.09,-3.10,-2.86,-2.45,-1.19,-1.19,-1.19
411.84,1.85,3.03,1.85,3.03,-3.04,-2.79,-2.39,-1.19,-1.19,-1.19
415.96,1.79,2.97,1.79,2.98,-2.97,-2.72,-2.34,-1.19,-1.19,-1.19
420.12,1.73,2.92,1.73,2.92,-2.91,-2.65,-2.29,-1.19,-1.19,-1.20
424.32,1.67,2.86,1.67,2.86,-2.85,-2.57,-2.24,-1.19,-1.19,-1.20
428.56,1.61,2.79,1.60,2.80,-2.80,-2.50,-2.19,-1.19,-1.19,-1.19
432.85,1.55,2.73,1.54,2.73,-2.74,-2.43,-2.15,-1.19,-1.20,-1.19
437.18,1.48,2.67,1.48,2.68,-2.68,-2.36,-2.10,-1.20,-1.20,-1.20
441.55,1.43,2.62,1.42,2.62,-2.62,-2.29,-2.06,-1.20,-1.20,-1.20
445.96,1.37,2.57,1.36,2.56,-2.56,-2.22,-2.01,-1.19,-1.20,-1.21
450.42,1.30,2.50,1.30,2.51,-2.50,-2.15,-1.97,-1.20,-1.20,-1.21
454.93,1.24,2.44,1.24,2.44,-2.44,-2.08,-1.93,-1.20,-1.20,-1.21
459.48,1.18,2.38,1.18,2.38,-2.38,-2.01,-1.88,-1.20,-1.20,-1.21
464.07,1.12,2.31,1.12,2.32,-2.32,-1.95,-1.84,-1.20,-1.20,-1.20
468.71,1.06,2.25,1.05,2.25,-2.25,-1.88,-1.80,-1.20,-1.20,-1.20
473.40,1.00,2.19,0.99,2.19,-2.19,-1.81,-1.76,-1.20,-1.20,-1.20
478.13,0.93,2.12,0.93,2.13,-2.13,-1.74,-1.72,-1.20,-1.20,-1.20
482.91,0.88,2.07,0.87,2.07,-2.07,-1.68,-1.68,-1.19,-1.20,-1.20
487.74,0.82,2.01,0.81,2.01,-2.01,-1.61,-1.64,-1.19,-1.20,-1.20
492.62,0.75,1.94,0.75,1.95,-1.95,-1.54,-1.60,-1.20,-1.19,-1.20
497.55,0.70,1.89,0.69,1.89,-1.88,-1.48,-1.56,-1.19,-1.19,-1.20
