frequency,raw,error,smoothed,error_smoothed,equalization,parametric_eq,fixed_band_eq,equalized_raw,equalized_smoothed,target
20.00,-39.18,-34.93,-39.20,-34.96,34.79,33.73,8.14,-4.39,-4.41,-4.24
20.20,-38.91,-34.65,-38.89,-34.64,34.55,33.72,8.32,-4.36,-4.34,-4.25
20.40,-38.64,-34.37,-38.61,-34.35,34.32,33.71,8.51,-4.31,-4.29,-4.26
20.61,-38.37,-34.11,-38.35,-34.08,34.11,33.68,8.70,-4.26,-4.24,-4.26
20.81,-38.10,-33.81,-38.10,-33.82,33.91,33.65,8.89,-4.19,-4.19,-4.28
21.02,-37.85,-33.56,-37.89,-33.61,33.72,33.61,9.09,-4.13,-4.17,-4.28
21.23,-37.76,-33.46,-37.75,-33.46,33.54,33.57,9.29,-4.22,-4.21,-4.29
21.44,-37.67,-33.38,-37.65,-33.37,33.38,33.51,9.51,-4.29,-4.28,-4.28
21.66,-37.58,-33.29,-37.58,-33.28,33.24,33.45,9.72,-4.34,-4.34,-4.29
21.87,-37.48,-33.17,-37.48,-33.17,33.11,33.38,9.94,-4.37,-4.37,-4.30
22.09,-37.37,-33.05,-37.36,-33.05,32.98,33.31,10.17,-4.38,-4.37,-4.31
22.31,-37.22,-32.90,-37.22,-32.90,32.86,33.22,10.40,-4.35,-4.36,-4.31
22.54,-37.07,-32.75,-37.06,-32.74,32.74,33.14,10.64,-4.33,-4.32,-4.32
22.76,-36.92,-32.59,-36.91,-32.59,32.62,33.04,10.89,-4.30,-4.29,-4.32
22.99,-36.77,-32.43,-36.79,-32.46,32.51,32.95,11.14,-4.26,-4.29,-4.33
23.22,-36.71,-32.36,-36.70,-32.37,32.41,32.84,11.40,-4.30,-4.30,-4.34
23.45,-36.65,-32.31,-36.64,-32.30,32.33,32.73,11.66,-4.32,-4.32,-4.33
23.69,-36.60,-32.26,-36.60,-32.25,32.27,32.62,11.94,-4.33,-4.33,-4.34
23.92,-36.55,-32.20,-36.55,-32.21,32.22,32.51,12.21,-4.33,-4.33,-4.34
24.16,-36.50,-32.16,-36.50,-32.17,32.18,32.39,12.50,-4.32,-4.32,-4.33
24.40,-36.46,-32.13,-36.46,-32.14,32.13,32.27,12.79,-4.33,-4.33,-4.32
24.65,-36.41,-32.09,-36.42,-32.10,32.07,32.14,13.10,-4.34,-4.35,-4.32
24.89,-36.37,-32.04,-36.34,-32.02,31.99,32.01,13.41,-4.38,-4.35,-4.32
25.14,-36.24,-31.91,-36.22,-31.90,31.87,31.88,13.73,-4.36,-4.35,-4.32
25.39,-36.06,-31.73,-36.07,-31.75,31.72,31.75,14.05,-4.34,-4.36,-4.32
25.65,-35.87,-31.55,-35.88,-31.56,31.52,31.62,14.39,-4.35,-4.36,-4.32
25.91,-35.69,-31.38,-35.67,-31.35,31.29,31.49,14.72,-4.40,-4.38,-4.31
26.16,-35.41,-31.11,-35.41,-31.10,31.03,31.35,15.08,-4.38,-4.38,-4.30
26.43,-35.11,-30.81,-35.10,-30.80,30.76,31.21,15.43,-4.35,-4.34,-4.30
26.69,-34.79,-30.48,-34.79,-30.48,30.50,31.07,15.79,-4.29,-4.28,-4.30
26.96,-34.48,-30.18,-34.53,-30.22,30.28,30.94,16.16,-4.20,-4.25,-4.30
27.23,-34.34,-30.04,-34.34,-30.03,30.12,30.80,16.53,-4.22,-4.22,-4.30
27.50,-34.24,-29.94,-34.19,-29.89,30.03,30.66,16.90,-4.21,-4.17,-4.30
27.77,-34.13,-29.83,-34.13,-29.84,30.00,30.52,17.28,-4.13,-4.14,-4.29
28.05,-34.09,-29.80,-34.16,-29.86,30.00,30.38,17.65,-4.09,-4.15,-4.29
28.33,-34.29,-29.99,-34.30,-30.00,30.03,30.24,18.02,-4.26,-4.28,-4.30
28.62,-34.50,-30.19,-34.50,-30.20,30.05,30.10,18.39,-4.45,-4.45,-4.30
28.90,-34.70,-30.40,-34.62,-30.32,30.06,29.96,18.74,-4.64,-4.56,-4.29
29.19,-34.60,-30.30,-34.56,-30.27,30.05,29.82,19.08,-4.54,-4.51,-4.29
29.48,-34.35,-30.05,-34.36,-30.07,30.03,29.68,19.39,-4.32,-4.33,-4.29
29.78,-34.10,-29.81,-34.12,-29.83,29.97,29.54,19.68,-4.13,-4.15,-4.29
30.08,-33.91,-29.63,-33.96,-29.67,29.87,29.40,19.93,-4.04,-4.09,-4.28
30.38,-33.91,-29.61,-33.92,-29.63,29.73,29.27,20.17,-4.18,-4.19,-4.29
30.68,-33.92,-29.61,-33.91,-29.61,29.56,29.13,20.34,-4.36,-4.35,-4.30
30.99,-33.92,-29.61,-33.85,-29.54,29.38,28.99,20.49,-4.54,-4.47,-4.30
31.30,-33.68,-29.37,-33.68,-29.37,29.22,28.85,20.57,-4.46,-4.46,-4.31
31.61,-33.43,-29.12,-33.45,-29.13,29.08,28.72,20.62,-4.35,-4.37,-4.31
31.93,-33.18,-28.86,-33.21,-28.89,28.96,28.58,20.61,-4.22,-4.25,-4.32
32.24,-33.04,-28.71,-33.03,-28.70,28.86,28.45,20.58,-4.18,-4.17,-4.32
32.57,-32.93,-28.60,-32.90,-28.57,28.76,28.31,20.49,-4.17,-4.14,-4.33
32.89,-32.82,-28.48,-32.85,-28.52,28.66,28.18,20.38,-4.16,-4.19,-4.33
33.22,-32.85,-28.52,-32.89,-28.56,28.55,28.05,20.22,-4.30,-4.34,-4.33
33.55,-32.94,-28.61,-32.96,-28.63,28.44,27.91,20.06,-4.50,-4.52,-4.33
33.89,-33.04,-28.71,-32.94,-28.61,28.34,27.78,19.87,-4.70,-4.60,-4.32
34.23,-32.80,-28.47,-32.73,-28.40,28.24,27.65,19.67,-4.56,-4.49,-4.33
34.57,-32.39,-28.05,-32.40,-28.07,28.12,27.52,19.46,-4.26,-4.28,-4.33
34.92,-31.98,-27.65,-32.09,-27.76,27.98,27.39,19.24,-4.00,-4.11,-4.33
35.27,-31.91,-27.59,-31.95,-27.62,27.81,27.26,19.03,-4.10,-4.15,-4.32
35.62,-31.95,-27.61,-31.93,-27.60,27.62,27.13,18.81,-4.33,-4.31,-4.33
35.97,-32.00,-27.66,-31.90,-27.56,27.44,27.00,18.60,-4.56,-4.46,-4.33
36.33,-31.76,-27.41,-31.75,-27.40,27.27,26.87,18.39,-4.48,-4.48,-4.34
36.70,-31.50,-27.15,-31.53,-27.18,27.13,26.75,18.19,-4.37,-4.40,-4.35
37.06,-31.28,-26.91,-31.32,-26.96,26.99,26.62,17.99,-4.28,-4.33,-4.36
37.43,-31.21,-26.82,-31.20,-26.82,26.87,26.49,17.81,-4.33,-4.33,-4.38
37.81,-31.14,-26.74,-31.12,-26.72,26.76,26.37,17.63,-4.38,-4.36,-4.39
38.19,-31.05,-26.64,-31.02,-26.60,26.67,26.24,17.46,-4.38,-4.35,-4.41
38.57,-30.92,-26.48,-30.91,-26.47,26.59,26.11,17.30,-4.33,-4.32,-4.43
38.95,-30.79,-26.34,-30.88,-26.42,26.51,25.99,17.16,-4.28,-4.37,-4.45
39.34,-30.90,-26.42,-30.93,-26.46,26.43,25.86,17.02,-4.47,-4.51,-4.48
39.74,-31.04,-26.54,-30.98,-26.49,26.32,25.74,16.89,-4.72,-4.66,-4.49
40.14,-31.01,-26.50,-30.91,-26.39,26.19,25.61,16.77,-4.82,-4.72,-4.51
40.54,-30.66,-26.13,-30.68,-26.15,26.04,25.48,16.67,-4.63,-4.64,-4.53
40.94,-30.31,-25.75,-30.39,-25.83,25.87,25.36,16.57,-4.44,-4.52,-4.55
41.35,-30.13,-25.56,-30.13,-25.55,25.69,25.23,16.49,-4.44,-4.44,-4.56
41.76,-29.98,-25.38,-29.96,-25.37,25.49,25.11,16.41,-4.49,-4.47,-4.59
42.18,-29.83,-25.22,-29.83,-25.23,25.28,24.98,16.35,-4.55,-4.56,-4.60
42.60,-29.71,-25.09,-29.70,-25.08,25.08,24.86,16.29,-4.62,-4.62,-4.61
43.03,-29.58,-24.94,-29.58,-24.94,24.91,24.73,16.25,-4.66,-4.66,-4.63
43.46,-29.45,-24.79,-29.45,-24.80,24.77,24.61,16.22,-4.68,-4.68,-4.65
43.90,-29.32,-24.66,-29.31,-24.65,24.63,24.48,16.19,-4.69,-4.68,-4.66
44.33,-29.18,-24.49,-29.18,-24.50,24.49,24.36,16.18,-4.68,-4.68,-4.68
44.78,-29.04,-24.34,-29.04,-24.35,24.35,24.23,16.18,-4.69,-4.69,-4.70
45.23,-28.91,-24.21,-28.91,-24.19,24.20,24.11,16.18,-4.71,-4.71,-4.70
45.68,-28.78,-24.05,-28.78,-24.04,24.05,23.98,16.20,-4.73,-4.73,-4.73
46.13,-28.65,-23.88,-28.65,-23.90,23.89,23.85,16.23,-4.75,-4.76,-4.76
46.60,-28.53,-23.75,-28.53,-23.75,23.74,23.73,16.27,-4.79,-4.79,-4.78
47.06,-28.41,-23.60,-28.40,-23.59,23.59,23.60,16.31,-4.82,-4.81,-4.80
47.53,-28.27,-23.44,-28.27,-23.44,23.43,23.47,16.37,-4.83,-4.83,-4.82
48.01,-28.13,-23.27,-28.14,-23.28,23.28,23.34,16.44,-4.85,-4.86,-4.86
48.49,-28.01,-23.12,-28.01,-23.12,23.12,23.21,16.51,-4.88,-4.88,-4.89
48.97,-27.89,-22.96,-27.89,-22.97,22.97,23.09,16.60,-4.92,-4.92,-4.92
49.46,-27.77,-22.82,-27.77,-22.82,22.81,22.96,16.69,-4.95,-4.96,-4.94
49.96,-27.65,-22.66,-27.64,-22.66,22.66,22.83,16.80,-4.99,-4.98,-4.99
50.46,-27.51,-22.50,-27.51,-22.50,22.50,22.69,16.91,-5.01,-5.01,-5.01
50.96,-27.37,-22.33,-27.38,-22.34,22.34,22.56,17.03,-5.03,-5.04,-5.03
51.47,-27.25,-22.19,-27.25,-22.19,22.17,22.43,17.16,-5.08,-5.08,-5.05
51.99,-27.13,-22.05,-27.11,-22.03,21.99,22.30,17.30,-5.14,-5.11,-5.08
52.51,-26.96,-21.86,-26.96,-21.86,21.84,22.16,17.44,-5.12,-5.12,-5.10
53.03,-26.79,-21.67,-26.81,-21.69,21.70,22.03,17.59,-5.09,-5.11,-5.11
53.56,-26.67,-21.52,-26.65,-21.51,21.58,21.90,17.74,-5.09,-5.07,-5.14
54.10,-26.54,-21.37,-26.51,-21.34,21.47,21.76,17.90,-5.07,-5.04,-5.17
54.64,-26.40,-21.21,-26.45,-21.25,21.34,21.62,18.06,-5.06,-5.11,-5.19
55.18,-26.37,-21.15,-26.46,-21.24,21.20,21.49,18.22,-5.17,-5.26,-5.22
55.74,-26.54,-21.29,-26.44,-21.20,21.06,21.35,18.39,-5.48,-5.38,-5.24
56.29,-26.43,-21.17,-26.34,-21.08,20.91,21.21,18.54,-5.52,-5.43,-5.25
56.86,-26.05,-20.79,-26.10,-20.83,20.75,21.07,18.70,-5.30,-5.36,-5.26
57.42,-25.78,-20.48,-25.80,-20.52,20.58,20.93,18.84,-5.20,-5.22,-5.29
58.00,-25.53,-20.24,-25.57,-20.27,20.40,20.79,18.98,-5.13,-5.16,-5.29
58.58,-25.43,-20.13,-25.42,-20.12,20.21,20.64,19.10,-5.22,-5.21,-5.29
59.16,-25.32,-20.01,-25.29,-19.98,20.01,20.50,19.20,-5.31,-5.27,-5.30
59.76,-25.16,-19.85,-25.17,-19.86,19.82,20.36,19.28,-5.34,-5.35,-5.31
60.35,-25.03,-19.68,-25.04,-19.70,19.65,20.21,19.35,-5.38,-5.39,-5.34
60.96,-24.92,-19.56,-24.90,-19.54,19.49,20.06,19.38,-5.43,-5.41,-5.36
61.57,-24.76,-19.37,-24.76,-19.36,19.34,19.92,19.39,-5.41,-5.41,-5.39
62.18,-24.60,-19.17,-24.60,-19.18,19.19,19.77,19.36,-5.41,-5.41,-5.42
62.80,-24.44,-18.98,-24.45,-19.00,19.03,19.62,19.31,-5.41,-5.42,-5.45
63.43,-24.32,-18.84,-24.32,-18.84,18.87,19.47,19.23,-5.44,-5.44,-5.47
64.07,-24.20,-18.72,-24.19,-18.70,18.73,19.32,19.12,-5.47,-5.46,-5.48
64.71,-24.06,-18.56,-24.07,-18.56,18.59,19.17,18.98,-5.47,-5.48,-5.50
65.35,-23.93,-18.41,-23.94,-18.42,18.43,19.02,18.82,-5.50,-5.51,-5.51
66.01,-23.83,-18.29,-23.81,-18.28,18.25,18.86,18.63,-5.58,-5.56,-5.53
66.67,-23.68,-18.15,-23.71,-18.17,18.06,18.71,18.42,-5.62,-5.65,-5.53
67.33,-23.55,-17.98,-23.56,-18.00,17.86,18.55,18.20,-5.68,-5.70,-5.56
68.01,-23.44,-17.86,-23.34,-17.76,17.69,18.40,17.96,-5.74,-5.64,-5.57
68.69,-23.05,-17.46,-23.07,-17.48,17.56,18.24,17.71,-5.49,-5.51,-5.59
69.37,-22.79,-17.19,-22.83,-17.23,17.45,18.08,17.45,-5.34,-5.38,-5.59
70.07,-22.66,-17.04,-22.70,-17.09,17.35,17.92,17.18,-5.31,-5.35,-5.61
70.77,-22.74,-17.11,-22.75,-17.13,17.25,17.77,16.92,-5.48,-5.50,-5.62
71.48,-22.88,-17.24,-22.89,-17.25,17.15,17.61,16.65,-5.73,-5.74,-5.63
72.19,-22.99,-17.33,-22.95,-17.29,17.04,17.45,16.38,-5.95,-5.91,-5.65
72.91,-22.93,-17.26,-22.84,-17.17,16.92,17.28,16.11,-6.01,-5.92,-5.66
73.64,-22.55,-16.87,-22.58,-16.91,16.78,17.12,15.85,-5.77,-5.80,-5.67
74.38,-22.21,-16.53,-22.25,-16.58,16.62,16.96,15.59,-5.59,-5.63,-5.67
75.12,-21.96,-16.27,-21.96,-16.28,16.44,16.80,15.34,-5.52,-5.52,-5.68
75.87,-21.76,-16.08,-21.76,-16.08,16.22,16.63,15.09,-5.54,-5.54,-5.67
76.63,-21.61,-15.93,-21.61,-15.94,15.99,16.47,14.85,-5.61,-5.62,-5.67
77.40,-21.49,-15.82,-21.48,-15.82,15.81,16.30,14.62,-5.68,-5.68,-5.66
78.17,-21.38,-15.71,-21.37,-15.71,15.68,16.14,14.39,-5.70,-5.69,-5.66
78.95,-21.25,-15.60,-21.26,-15.61,15.60,15.97,14.18,-5.65,-5.66,-5.64
79.74,-21.14,-15.50,-21.12,-15.48,15.54,15.80,13.97,-5.59,-5.57,-5.63
80.54,-21.00,-15.37,-20.96,-15.34,15.47,15.64,13.77,-5.53,-5.49,-5.62
81.35,-20.86,-15.24,-20.94,-15.33,15.36,15.47,13.57,-5.49,-5.58,-5.61
82.16,-20.84,-15.24,-20.99,-15.39,15.24,15.30,13.39,-5.60,-5.75,-5.59
82.98,-21.14,-15.55,-20.91,-15.32,15.10,15.14,13.21,-6.04,-5.81,-5.58
83.81,-20.81,-15.23,-20.67,-15.09,14.94,14.97,13.05,-5.86,-5.72,-5.57
84.65,-20.14,-14.57,-20.34,-14.77,14.78,14.80,12.89,-5.35,-5.55,-5.56
85.50,-19.89,-14.33,-19.98,-14.42,14.62,14.63,12.74,-5.27,-5.36,-5.56
86.35,-19.90,-14.35,-19.80,-14.26,14.44,14.46,12.60,-5.46,-5.37,-5.54
87.22,-19.75,-14.23,-19.75,-14.22,14.25,14.29,12.46,-5.50,-5.50,-5.52
88.09,-19.65,-14.13,-19.65,-14.13,14.08,14.12,12.34,-5.57,-5.57,-5.51
88.97,-19.50,-14.00,-19.48,-13.98,13.93,13.95,12.22,-5.57,-5.55,-5.49
89.86,-19.31,-13.81,-19.33,-13.84,13.81,13.79,12.11,-5.50,-5.51,-5.49
90.76,-19.16,-13.69,-19.17,-13.70,13.71,13.62,12.01,-5.45,-5.47,-5.47
91.66,-19.05,-13.57,-19.04,-13.57,13.59,13.45,11.91,-5.46,-5.45,-5.47
92.58,-18.92,-13.46,-18.91,-13.46,13.45,13.28,11.83,-5.47,-5.46,-5.45
93.51,-18.78,-13.34,-18.77,-13.33,13.30,13.11,11.74,-5.48,-5.47,-5.44
94.44,-18.61,-13.17,-18.61,-13.18,13.15,12.94,11.67,-5.46,-5.47,-5.43
95.39,-18.44,-13.01,-18.45,-13.01,12.99,12.78,11.61,-5.45,-5.46,-5.43
96.34,-18.29,-12.85,-18.28,-12.85,12.83,12.61,11.55,-5.46,-5.45,-5.43
97.30,-18.12,-12.68,-18.12,-12.69,12.68,12.44,11.49,-5.44,-5.45,-5.43
98.28,-17.98,-12.55,-17.98,-12.54,12.56,12.28,11.45,-5.42,-5.42,-5.43
99.26,-17.85,-12.40,-17.85,-12.41,12.49,12.12,11.40,-5.36,-5.36,-5.44
100.25,-17.74,-12.29,-17.72,-12.28,12.44,11.95,11.37,-5.30,-5.28,-5.44
101.25,-17.64,-12.20,-17.65,-12.21,12.38,11.79,11.34,-5.26,-5.27,-5.43
102.27,-17.59,-12.15,-17.66,-12.23,12.28,11.63,11.31,-5.31,-5.38,-5.43
103.29,-17.74,-12.30,-17.74,-12.31,12.14,11.47,11.29,-5.60,-5.60,-5.43
104.32,-17.80,-12.37,-17.77,-12.35,11.97,11.31,11.27,-5.83,-5.81,-5.42
105.37,-17.68,-12.26,-17.55,-12.12,11.78,11.16,11.25,-5.89,-5.76,-5.42
106.42,-17.17,-11.74,-17.08,-11.66,11.61,11.00,11.23,-5.56,-5.48,-5.42
107.48,-16.42,-10.98,-16.60,-11.17,11.44,10.85,11.22,-4.98,-5.16,-5.43
108.56,-16.18,-10.76,-16.28,-10.86,11.27,10.70,11.20,-4.91,-5.01,-5.41
109.64,-16.25,-10.83,-16.21,-10.79,11.09,10.56,11.19,-5.16,-5.12,-5.41
110.74,-16.35,-10.93,-16.25,-10.84,10.89,10.42,11.17,-5.46,-5.36,-5.41
111.85,-16.29,-10.88,-16.33,-10.92,10.71,10.28,11.16,-5.58,-5.62,-5.40
112.97,-16.17,-10.77,-16.30,-10.90,10.55,10.15,11.13,-5.61,-5.74,-5.39
114.10,-16.33,-10.94,-16.10,-10.71,10.43,10.02,11.11,-5.90,-5.67,-5.38
115.24,-15.80,-10.42,-15.75,-10.37,10.32,9.90,11.07,-5.48,-5.43,-5.38
116.39,-15.28,-9.89,-15.42,-10.04,10.22,9.78,11.04,-5.06,-5.21,-5.38
117.55,-15.03,-9.67,-15.17,-9.80,10.13,9.68,10.99,-4.90,-5.04,-5.36
118.73,-15.25,-9.88,-15.10,-9.74,10.05,9.58,10.93,-5.20,-5.06,-5.36
119.92,-15.22,-9.87,-15.16,-9.82,9.96,9.50,10.86,-5.26,-5.20,-5.34
121.12,-15.09,-9.77,-15.23,-9.91,9.84,9.42,10.79,-5.25,-5.39,-5.31
122.33,-15.29,-9.98,-15.30,-10.00,9.70,9.36,10.70,-5.58,-5.60,-5.30
123.55,-15.32,-10.03,-15.26,-9.98,9.55,9.30,10.61,-5.77,-5.71,-5.28
124.79,-15.21,-9.94,-15.02,-9.75,9.41,9.27,10.49,-5.80,-5.62,-5.26
126.03,-14.45,-9.19,-14.50,-9.24,9.27,9.23,10.38,-5.18,-5.23,-5.25
127.29,-13.92,-8.67,-13.98,-8.74,9.12,9.21,10.24,-4.80,-4.86,-5.24
128.57,-13.52,-8.29,-13.65,-8.42,8.95,9.19,10.10,-4.57,-4.71,-5.23
129.85,-13.69,-8.46,-13.66,-8.43,8.74,9.14,9.93,-4.95,-4.91,-5.22
131.15,-13.83,-8.61,-13.82,-8.61,8.53,9.10,9.77,-5.30,-5.30,-5.21
132.46,-13.99,-8.78,-14.00,-8.80,8.34,8.99,9.59,-5.64,-5.66,-5.20
133.79,-13.97,-8.77,-13.85,-8.66,8.22,8.89,9.40,-5.75,-5.63,-5.19
135.12,-13.60,-8.41,-13.41,-8.23,8.12,8.69,9.20,-5.47,-5.28,-5.18
136.48,-12.74,-7.58,-12.91,-7.74,7.99,8.50,9.00,-4.75,-4.91,-5.16
137.84,-12.35,-7.19,-12.63,-7.47,7.80,8.23,8.78,-4.55,-4.83,-5.15
139.22,-12.64,-7.47,-12.54,-7.38,7.54,7.96,8.56,-5.09,-4.99,-5.16
140.61,-12.83,-7.68,-12.60,-7.45,7.28,7.67,8.33,-5.55,-5.32,-5.14
142.02,-12.38,-7.24,-12.49,-7.35,7.06,7.37,8.10,-5.32,-5.43,-5.14
143.44,-12.21,-7.06,-12.12,-6.98,6.91,7.08,7.86,-5.30,-5.21,-5.14
144.87,-11.71,-6.57,-11.73,-6.59,6.78,6.78,7.63,-4.92,-4.94,-5.13
146.32,-11.43,-6.30,-11.58,-6.46,6.65,6.51,7.38,-4.78,-4.93,-5.12
147.78,-11.49,-6.37,-11.53,-6.40,6.49,6.24,7.14,-5.00,-5.04,-5.12
149.26,-11.73,-6.60,-11.57,-6.44,6.32,6.00,6.90,-5.40,-5.24,-5.12
150.75,-11.51,-6.37,-11.49,-6.37,6.18,5.75,6.65,-5.33,-5.32,-5.13
152.26,-11.27,-6.14,-11.26,-6.13,6.07,5.53,6.41,-5.20,-5.19,-5.12
153.78,-10.92,-5.79,-10.95,-5.82,5.98,5.30,6.16,-4.94,-4.97,-5.12
155.32,-10.76,-5.63,-10.85,-5.73,5.86,5.10,5.91,-4.89,-4.99,-5.12
156.88,-10.75,-5.61,-10.83,-5.69,5.70,4.89,5.67,-5.04,-5.12,-5.13
158.44,-11.02,-5.87,-10.79,-5.64,5.51,4.70,5.43,-5.51,-5.27,-5.14
160.03,-10.62,-5.46,-10.64,-5.48,5.30,4.51,5.19,-5.32,-5.34,-5.15
161.63,-10.30,-5.13,-10.39,-5.22,5.12,4.33,4.95,-5.18,-5.27,-5.16
163.24,-10.09,-4.90,-10.08,-4.90,4.98,4.15,4.71,-5.11,-5.11,-5.18
164.88,-9.91,-4.71,-9.89,-4.70,4.84,3.98,4.47,-5.07,-5.05,-5.19
166.53,-9.72,-4.51,-9.68,-4.47,4.67,3.81,4.23,-5.05,-5.01,-5.21
168.19,-9.56,-4.33,-9.58,-4.35,4.47,3.65,4.00,-5.09,-5.11,-5.22
169.87,-9.40,-4.16,-9.60,-4.35,4.28,3.49,3.77,-5.12,-5.32,-5.24
171.57,-9.74,-4.47,-9.62,-4.35,4.12,3.33,3.54,-5.62,-5.50,-5.26
173.29,-9.63,-4.34,-9.43,-4.15,3.97,3.17,3.31,-5.66,-5.47,-5.28
175.02,-9.13,-3.83,-9.12,-3.82,3.80,3.02,3.08,-5.33,-5.32,-5.29
176.77,-8.51,-3.19,-8.75,-3.43,3.59,2.87,2.86,-4.92,-5.16,-5.31
178.54,-8.54,-3.20,-8.59,-3.26,3.38,2.73,2.63,-5.16,-5.22,-5.33
180.32,-8.66,-3.30,-8.57,-3.22,3.17,2.58,2.41,-5.49,-5.39,-5.35
182.13,-8.61,-3.24,-8.44,-3.07,3.00,2.44,2.19,-5.61,-5.44,-5.36
183.95,-8.14,-2.76,-8.13,-2.75,2.84,2.29,1.97,-5.30,-5.29,-5.37
185.79,-7.65,-2.26,-7.88,-2.49,2.68,2.16,1.75,-4.97,-5.20,-5.39
187.65,-7.73,-2.32,-7.79,-2.38,2.48,2.02,1.54,-5.25,-5.31,-5.40
189.52,-7.97,-2.54,-7.83,-2.41,2.24,1.88,1.32,-5.72,-5.59,-5.42
191.42,-7.86,-2.43,-7.81,-2.38,1.98,1.74,1.11,-5.87,-5.83,-5.42
193.33,-7.51,-2.06,-7.50,-2.06,1.75,1.61,0.90,-5.76,-5.75,-5.44
195.27,-7.03,-1.57,-6.94,-1.48,1.56,1.48,0.69,-5.47,-5.38,-5.46
197.22,-6.40,-0.92,-6.45,-0.97,1.38,1.35,0.48,-5.02,-5.07,-5.48
199.19,-6.00,-0.50,-6.23,-0.74,1.18,1.22,0.28,-4.82,-5.06,-5.49
201.18,-6.30,-0.78,-6.31,-0.80,0.95,1.09,0.07,-5.35,-5.36,-5.51
203.19,-6.64,-1.11,-6.49,-0.97,0.73,0.96,-0.13,-5.91,-5.76,-5.52
205.23,-6.62,-1.08,-6.49,-0.96,0.55,0.83,-0.33,-6.07,-5.95,-5.53
207.28,-6.19,-0.65,-6.22,-0.67,0.43,0.70,-0.53,-5.75,-5.79,-5.54
209.35,-5.74,-0.17,-5.80,-0.24,0.36,0.58,-0.73,-5.38,-5.45,-5.56
211.44,-5.52,0.07,-5.53,0.05,0.25,0.45,-0.92,-5.27,-5.28,-5.58
213.56,-5.34,0.26,-5.47,0.12,0.09,0.33,-1.11,-5.25,-5.38,-5.59
215.69,-5.58,0.04,-5.46,0.15,-0.13,0.20,-1.30,-5.70,-5.58,-5.61
217.85,-5.51,0.12,-5.44,0.19,-0.37,0.08,-1.48,-5.88,-5.81,-5.62
220.03,-5.21,0.45,-5.33,0.32,-0.60,-0.05,-1.67,-5.81,-5.93,-5.65
222.23,-5.11,0.56,-5.04,0.62,-0.81,-0.17,-1.84,-5.92,-5.85,-5.66
224.45,-4.72,0.96,-4.63,1.05,-1.01,-0.29,-2.01,-5.73,-5.64,-5.67
226.70,-4.26,1.42,-4.31,1.37,-1.23,-0.42,-2.18,-5.49,-5.54,-5.68
228.96,-3.82,1.87,-4.02,1.67,-1.46,-0.54,-2.34,-5.28,-5.48,-5.68
231.25,-4.04,1.65,-3.85,1.83,-1.69,-0.66,-2.50,-5.73,-5.54,-5.68
233.57,-3.76,1.93,-3.81,1.88,-1.89,-0.79,-2.65,-5.65,-5.70,-5.69
235.90,-3.71,1.99,-3.72,1.97,-2.07,-0.91,-2.80,-5.77,-5.79,-5.69
238.26,-3.63,2.07,-3.53,2.16,-2.21,-1.03,-2.94,-5.83,-5.73,-5.69
240.64,-3.30,2.38,-3.40,2.28,-2.34,-1.16,-3.07,-5.64,-5.74,-5.67
243.05,-3.22,2.46,-3.23,2.45,-2.49,-1.28,-3.20,-5.71,-5.71,-5.67
245.48,-3.10,2.58,-3.03,2.65,-2.64,-1.41,-3.31,-5.74,-5.67,-5.67
247.93,-2.86,2.82,-2.87,2.80,-2.81,-1.54,-3.43,-5.67,-5.67,-5.67
250.41,-2.60,3.06,-2.67,2.99,-2.97,-1.66,-3.53,-5.57,-5.65,-5.65
252.92,-2.53,3.12,-2.47,3.18,-3.14,-1.79,-3.63,-5.67,-5.61,-5.64
255.45,-2.32,3.34,-2.27,3.37,-3.30,-1.92,-3.72,-5.62,-5.58,-5.65
258.00,-2.09,3.56,-2.17,3.47,-3.47,-2.05,-3.80,-5.56,-5.64,-5.64
260.58,-2.00,3.65,-2.08,3.57,-3.62,-2.18,-3.88,-5.62,-5.70,-5.64
263.19,-2.12,3.53,-1.97,3.67,-3.75,-2.31,-3.96,-5.87,-5.72,-5.64
265.82,-1.84,3.82,-1.77,3.88,-3.87,-2.44,-4.02,-5.71,-5.64,-5.65
268.48,-1.49,4.17,-1.54,4.11,-4.00,-2.58,-4.08,-5.49,-5.54,-5.65
271.16,-1.25,4.42,-1.42,4.24,-4.15,-2.71,-4.14,-5.40,-5.57,-5.66
273.87,-1.41,4.26,-1.40,4.27,-4.31,-2.85,-4.19,-5.72,-5.71,-5.66
276.61,-1.56,4.12,-1.34,4.33,-4.48,-2.99,-4.24,-6.04,-5.83,-5.67
279.38,-1.16,4.54,-1.18,4.51,-4.65,-3.13,-4.29,-5.81,-5.83,-5.69
282.17,-0.79,4.90,-0.91,4.77,-4.79,-3.27,-4.33,-5.58,-5.70,-5.68
284.99,-0.61,5.08,-0.56,5.12,-4.93,-3.41,-4.37,-5.54,-5.49,-5.68
287.84,-0.51,5.17,-0.44,5.24,-5.09,-3.56,-4.41,-5.59,-5.52,-5.67
290.72,-0.16,5.53,-0.40,5.27,-5.25,-3.70,-4.45,-5.41,-5.66,-5.68
293.63,-0.51,5.17,-0.30,5.38,-5.43,-3.85,-4.49,-5.94,-5.73,-5.67
296.57,-0.28,5.39,-0.24,5.43,-5.59,-4.00,-4.53,-5.87,-5.83,-5.66
299.53,0.09,5.76,-0.10,5.56,-5.73,-4.15,-4.57,-5.64,-5.83,-5.66
302.53,0.02,5.68,0.28,5.94,-5.86,-4.31,-4.60,-5.84,-5.58,-5.65
305.55,0.54,6.20,0.44,6.09,-5.97,-4.46,-4.65,-5.43,-5.53,-5.65
308.61,0.80,6.45,0.49,6.14,-6.08,-4.62,-4.69,-5.28,-5.58,-5.64
311.69,0.30,5.96,0.64,6.29,-6.18,-4.78,-4.73,-5.88,-5.54,-5.65
314.81,0.60,6.25,0.68,6.33,-6.29,-4.93,-4.78,-5.69,-5.61,-5.64
317.96,0.98,6.64,0.72,6.37,-6.42,-5.09,-4.82,-5.44,-5.70,-5.65
321.14,0.83,6.48,0.83,6.47,-6.55,-5.26,-4.88,-5.72,-5.72,-5.64
324.35,0.72,6.37,0.84,6.48,-6.67,-5.42,-4.93,-5.95,-5.83,-5.64
327.59,0.92,6.56,0.99,6.63,-6.81,-5.58,-4.99,-5.89,-5.82,-5.63
330.87,1.31,6.95,1.33,6.97,-6.95,-5.75,-5.05,-5.64,-5.62,-5.63
334.18,1.78,7.43,1.64,7.27,-7.08,-5.91,-5.11,-5.30,-5.44,-5.64
337.52,1.83,7.47,1.80,7.44,-7.21,-6.07,-5.18,-5.38,-5.41,-5.63
340.90,1.74,7.38,1.80,7.43,-7.32,-6.23,-5.25,-5.58,-5.53,-5.63
344.30,1.74,7.37,1.74,7.37,-7.42,-6.40,-5.33,-5.68,-5.67,-5.62
347.75,1.73,7.35,1.78,7.40,-7.50,-6.55,-5.41,-5.77,-5.72,-5.61
351.23,1.88,7.51,1.84,7.45,-7.56,-6.71,-5.49,-5.68,-5.72,-5.62
354.74,1.98,7.59,1.94,7.55,-7.60,-6.86,-5.58,-5.62,-5.66,-5.60
358.28,1.96,7.57,2.07,7.67,-7.66,-7.01,-5.68,-5.70,-5.59,-5.60
361.87,2.21,7.81,2.14,7.73,-7.74,-7.16,-5.77,-5.53,-5.60,-5.59
