frequency,raw,error,smoothed,error_smoothed,equalization,parametric_eq,fixed_band_eq,equalized_raw,equalized_smoothed,target
20.00,-1.24,-10.69,-1.24,-10.69,10.69,10.29,4.09,9.45,9.45,9.45
20.20,-1.18,-10.63,-1.18,-10.63,10.63,10.26,4.20,9.45,9.45,9.45
20.40,-1.12,-10.57,-1.12,-10.57,10.57,10.23,4.31,9.45,9.45,9.45
20.61,-1.06,-10.51,-1.06,-10.51,10.51,10.20,4.43,9.45,9.45,9.45
20.81,-1.00,-10.44,-1.01,-10.45,10.45,10.16,4.54,9.45,9.44,9.44
21.02,-0.95,-10.39,-0.95,-10.39,10.39,10.13,4.67,9.44,9.44,9.44
21.23,-0.90,-10.34,-0.89,-10.33,10.33,10.09,4.79,9.43,9.44,9.44
21.44,-0.84,-10.29,-0.83,-10.27,10.27,10.04,4.92,9.43,9.44,9.45
21.66,-0.78,-10.22,-0.78,-10.21,10.21,10.00,5.05,9.43,9.43,9.44
21.87,-0.73,-10.17,-0.72,-10.15,10.15,9.95,5.19,9.42,9.43,9.44
22.09,-0.67,-10.10,-0.67,-10.09,10.09,9.90,5.33,9.42,9.43,9.43
22.31,-0.61,-10.04,-0.61,-10.03,10.03,9.85,5.47,9.42,9.42,9.43
22.54,-0.56,-9.98,-0.55,-9.97,9.97,9.79,5.62,9.41,9.42,9.42
22.76,-0.50,-9.92,-0.50,-9.91,9.91,9.74,5.77,9.41,9.41,9.42
22.99,-0.44,-9.85,-0.44,-9.85,9.85,9.68,5.92,9.41,9.41,9.41
23.22,-0.39,-9.79,-0.39,-9.79,9.79,9.62,6.08,9.40,9.40,9.40
23.45,-0.33,-9.73,-0.34,-9.73,9.73,9.56,6.24,9.40,9.40,9.40
23.69,-0.28,-9.67,-0.28,-9.67,9.67,9.50,6.41,9.39,9.39,9.39
23.92,-0.22,-9.60,-0.23,-9.61,9.61,9.44,6.58,9.40,9.39,9.38
24.16,-0.17,-9.55,-0.18,-9.56,9.56,9.38,6.75,9.39,9.38,9.38
24.40,-0.13,-9.51,-0.12,-9.50,9.50,9.32,6.92,9.37,9.38,9.38
24.65,-0.08,-9.46,-0.07,-9.45,9.45,9.26,7.10,9.37,9.37,9.38
24.89,-0.03,-9.41,-0.02,-9.39,9.39,9.20,7.29,9.36,9.37,9.38
25.14,0.03,-9.34,0.03,-9.34,9.34,9.14,7.47,9.37,9.37,9.37
25.39,0.08,-9.28,0.08,-9.29,9.29,9.08,7.66,9.37,9.37,9.36
25.65,0.13,-9.23,0.13,-9.24,9.24,9.02,7.85,9.37,9.37,9.36
25.91,0.18,-9.18,0.18,-9.19,9.19,8.96,8.04,9.36,9.37,9.36
26.16,0.23,-9.14,0.23,-9.14,9.14,8.89,8.23,9.37,9.36,9.37
26.43,0.28,-9.09,0.28,-9.08,9.08,8.84,8.42,9.36,9.36,9.37
26.69,0.33,-9.04,0.33,-9.04,9.04,8.78,8.61,9.37,9.36,9.37
26.96,0.38,-8.98,0.38,-8.98,8.98,8.72,8.80,9.36,9.36,9.36
27.23,0.43,-8.93,0.43,-8.93,8.93,8.66,8.99,9.36,9.36,9.36
27.50,0.47,-8.89,0.47,-8.88,8.88,8.60,9.18,9.35,9.36,9.36
27.77,0.52,-8.85,0.52,-8.84,8.84,8.54,9.36,9.36,9.36,9.37
28.05,0.57,-8.79,0.57,-8.79,8.79,8.49,9.53,9.36,9.35,9.36
28.33,0.61,-8.74,0.61,-8.74,8.74,8.43,9.70,9.35,9.35,9.35
28.62,0.66,-8.68,0.66,-8.69,8.69,8.38,9.86,9.35,9.35,9.34
28.90,0.70,-8.65,0.70,-8.64,8.64,8.32,10.00,9.34,9.34,9.35
29.19,0.75,-8.59,0.74,-8.59,8.59,8.27,10.14,9.34,9.33,9.34
29.48,0.78,-8.55,0.78,-8.54,8.54,8.22,10.26,9.32,9.33,9.33
29.78,0.83,-8.49,0.83,-8.50,8.50,8.17,10.37,9.33,9.32,9.32
30.08,0.87,-8.45,0.87,-8.45,8.45,8.12,10.46,9.32,9.32,9.32
30.38,0.91,-8.40,0.91,-8.40,8.40,8.07,10.53,9.31,9.31,9.31
30.68,0.95,-8.35,0.95,-8.36,8.36,8.02,10.59,9.31,9.31,9.30
30.99,0.99,-8.31,0.99,-8.31,8.31,7.97,10.62,9.30,9.31,9.30
31.30,1.03,-8.27,1.03,-8.27,8.27,7.92,10.64,9.30,9.30,9.30
31.61,1.07,-8.23,1.07,-8.23,8.23,7.88,10.64,9.30,9.30,9.30
31.93,1.11,-8.18,1.11,-8.18,8.18,7.83,10.61,9.29,9.30,9.29
32.24,1.15,-8.15,1.16,-8.14,8.14,7.79,10.57,9.29,9.29,9.30
32.57,1.20,-8.09,1.20,-8.09,8.09,7.74,10.51,9.29,9.29,9.29
32.89,1.24,-8.05,1.24,-8.05,8.05,7.70,10.43,9.29,9.29,9.29
33.22,1.28,-8.01,1.28,-8.01,8.01,7.65,10.34,9.29,9.28,9.29
33.55,1.31,-7.97,1.32,-7.96,7.96,7.61,10.23,9.27,9.27,9.28
33.89,1.36,-7.91,1.36,-7.91,7.91,7.57,10.11,9.27,9.27,9.27
34.23,1.40,-7.85,1.39,-7.86,7.86,7.52,9.98,9.26,9.26,9.25
34.57,1.44,-7.81,1.43,-7.81,7.81,7.48,9.84,9.25,9.24,9.25
34.92,1.47,-7.76,1.47,-7.75,7.75,7.44,9.69,9.22,9.22,9.23
35.27,1.51,-7.71,1.51,-7.69,7.69,7.40,9.54,9.20,9.21,9.22
35.62,1.55,-7.64,1.55,-7.64,7.64,7.36,9.38,9.19,9.19,9.19
35.97,1.58,-7.59,1.59,-7.57,7.57,7.31,9.21,9.15,9.16,9.17
36.33,1.62,-7.52,1.63,-7.51,7.51,7.27,9.05,9.13,9.14,9.14
36.70,1.66,-7.45,1.66,-7.45,7.45,7.23,8.88,9.11,9.11,9.11
37.06,1.70,-7.38,1.70,-7.38,7.38,7.19,8.71,9.08,9.08,9.08
37.43,1.73,-7.32,1.73,-7.32,7.32,7.14,8.54,9.05,9.05,9.05
37.81,1.78,-7.24,1.77,-7.25,7.25,7.10,8.37,9.03,9.02,9.02
38.19,1.81,-7.17,1.81,-7.18,7.18,7.06,8.21,8.99,8.99,8.98
38.57,1.84,-7.12,1.84,-7.12,7.12,7.01,8.04,8.96,8.96,8.96
38.95,1.88,-7.05,1.87,-7.05,7.05,6.97,7.88,8.93,8.93,8.93
39.34,1.91,-6.98,1.91,-6.99,6.99,6.92,7.72,8.90,8.90,8.89
39.74,1.94,-6.92,1.94,-6.93,6.93,6.88,7.57,8.87,8.87,8.86
40.14,1.97,-6.87,1.97,-6.87,6.87,6.83,7.42,8.84,8.84,8.84
40.54,2.00,-6.82,2.01,-6.81,6.81,6.78,7.27,8.81,8.81,8.82
40.94,2.04,-6.75,2.04,-6.75,6.75,6.73,7.13,8.79,8.79,8.79
41.35,2.07,-6.69,2.07,-6.69,6.69,6.68,6.99,8.77,8.76,8.76
41.76,2.10,-6.63,2.10,-6.64,6.64,6.63,6.86,8.74,8.74,8.73
42.18,2.13,-6.59,2.13,-6.59,6.59,6.58,6.73,8.72,8.71,8.72
42.60,2.15,-6.54,2.16,-6.53,6.53,6.53,6.60,8.68,8.69,8.69
43.03,2.19,-6.47,2.19,-6.48,6.48,6.47,6.48,8.67,8.66,8.66
43.46,2.22,-6.42,2.22,-6.42,6.42,6.42,6.37,8.64,8.64,8.64
43.90,2.25,-6.37,2.25,-6.37,6.37,6.36,6.26,8.62,8.61,8.62
44.33,2.27,-6.31,2.28,-6.31,6.31,6.30,6.15,8.58,8.59,8.58
44.78,2.30,-6.26,2.30,-6.26,6.26,6.25,6.05,8.56,8.56,8.56
45.23,2.33,-6.22,2.33,-6.20,6.20,6.19,5.95,8.53,8.53,8.55
45.68,2.36,-6.15,2.36,-6.14,6.14,6.13,5.86,8.50,8.50,8.51
46.13,2.39,-6.07,2.39,-6.08,6.08,6.06,5.77,8.47,8.47,8.46
46.60,2.42,-6.02,2.42,-6.02,6.02,6.00,5.68,8.44,8.43,8.44
47.06,2.45,-5.95,2.44,-5.95,5.95,5.94,5.60,8.40,8.39,8.40
47.53,2.47,-5.90,2.47,-5.89,5.89,5.87,5.52,8.36,8.35,8.37
48.01,2.49,-5.82,2.49,-5.82,5.82,5.80,5.45,8.31,8.31,8.31
48.49,2.52,-5.76,2.52,-5.75,5.75,5.74,5.38,8.27,8.27,8.28
48.97,2.54,-5.69,2.54,-5.68,5.68,5.67,5.32,8.22,8.23,8.23
49.46,2.57,-5.62,2.57,-5.61,5.61,5.60,5.25,8.18,8.18,8.19
49.96,2.59,-5.53,2.59,-5.54,5.54,5.53,5.19,8.13,8.13,8.12
50.46,2.61,-5.47,2.61,-5.47,5.47,5.46,5.14,8.08,8.09,8.08
50.96,2.63,-5.40,2.64,-5.40,5.40,5.38,5.08,8.03,8.04,8.03
51.47,2.66,-5.33,2.66,-5.33,5.33,5.31,5.03,7.99,7.99,7.99
51.99,2.68,-5.26,2.68,-5.26,5.26,5.24,4.98,7.94,7.95,7.94
52.51,2.71,-5.19,2.70,-5.19,5.19,5.16,4.93,7.90,7.90,7.90
53.03,2.73,-5.14,2.73,-5.12,5.12,5.09,4.89,7.85,7.85,7.87
53.56,2.75,-5.07,2.75,-5.05,5.05,5.01,4.84,7.80,7.81,7.82
54.10,2.78,-4.98,2.77,-4.99,4.99,4.93,4.80,7.77,7.76,7.76
54.64,2.79,-4.93,2.80,-4.92,4.92,4.86,4.76,7.71,7.72,7.72
55.18,2.82,-4.84,2.82,-4.86,4.86,4.78,4.72,7.68,7.67,7.66
55.74,2.84,-4.78,2.84,-4.79,4.79,4.70,4.68,7.63,7.63,7.62
56.29,2.86,-4.72,2.86,-4.73,4.73,4.62,4.63,7.59,7.59,7.58
56.86,2.88,-4.66,2.88,-4.66,4.66,4.55,4.59,7.54,7.54,7.54
57.42,2.90,-4.58,2.90,-4.59,4.59,4.47,4.55,7.49,7.50,7.48
58.00,2.93,-4.51,2.92,-4.52,4.52,4.39,4.51,7.45,7.45,7.44
58.58,2.95,-4.46,2.94,-4.45,4.45,4.31,4.46,7.40,7.40,7.41
59.16,2.96,-4.41,2.96,-4.38,4.38,4.23,4.41,7.34,7.35,7.37
59.76,2.98,-4.35,2.98,-4.31,4.31,4.15,4.37,7.29,7.29,7.33
60.35,3.00,-4.26,3.00,-4.24,4.24,4.07,4.32,7.24,7.24,7.26
60.96,3.02,-4.19,3.02,-4.17,4.17,4.00,4.26,7.19,7.19,7.21
61.57,3.04,-4.09,3.04,-4.10,4.10,3.92,4.21,7.14,7.13,7.13
62.18,3.05,-4.02,3.06,-4.02,4.02,3.84,4.15,7.07,7.08,7.07
62.80,3.08,-3.93,3.07,-3.95,3.95,3.76,4.09,7.03,7.02,7.01
63.43,3.09,-3.85,3.09,-3.87,3.87,3.68,4.03,6.96,6.96,6.94
64.07,3.11,-3.78,3.11,-3.80,3.80,3.60,3.96,6.91,6.90,6.89
64.71,3.13,-3.71,3.13,-3.72,3.72,3.53,3.90,6.85,6.85,6.84
65.35,3.14,-3.65,3.14,-3.64,3.64,3.45,3.83,6.78,6.79,6.79
66.01,3.16,-3.57,3.16,-3.57,3.57,3.37,3.75,6.73,6.73,6.73
66.67,3.18,-3.51,3.18,-3.50,3.50,3.30,3.68,6.68,6.68,6.69
67.33,3.19,-3.43,3.19,-3.43,3.43,3.22,3.60,6.62,6.62,6.62
68.01,3.21,-3.36,3.21,-3.35,3.35,3.15,3.52,6.56,6.56,6.57
68.69,3.23,-3.28,3.23,-3.28,3.28,3.07,3.44,6.51,6.51,6.51
69.37,3.24,-3.22,3.24,-3.21,3.21,3.00,3.35,6.45,6.45,6.46
70.07,3.26,-3.15,3.26,-3.14,3.14,2.92,3.27,6.40,6.40,6.41
70.77,3.27,-3.08,3.27,-3.07,3.07,2.85,3.18,6.34,6.34,6.35
71.48,3.29,-3.00,3.29,-3.00,3.00,2.78,3.10,6.28,6.28,6.29
72.19,3.30,-2.92,3.30,-2.92,2.92,2.71,3.01,6.22,6.22,6.22
72.91,3.32,-2.85,3.31,-2.85,2.85,2.63,2.92,6.17,6.17,6.17
73.64,3.33,-2.77,3.33,-2.78,2.78,2.56,2.83,6.11,6.11,6.10
74.38,3.34,-2.70,3.34,-2.71,2.71,2.49,2.74,6.05,6.05,6.04
75.12,3.35,-2.64,3.36,-2.64,2.64,2.42,2.65,5.99,6.00,5.99
75.87,3.37,-2.58,3.37,-2.57,2.57,2.35,2.56,5.94,5.94,5.95
76.63,3.38,-2.51,3.38,-2.51,2.51,2.28,2.47,5.89,5.89,5.89
77.40,3.39,-2.44,3.39,-2.44,2.44,2.21,2.38,5.83,5.83,5.83
78.17,3.41,-2.36,3.41,-2.37,2.37,2.15,2.29,5.78,5.78,5.77
78.95,3.41,-2.33,3.42,-2.31,2.31,2.08,2.20,5.72,5.73,5.74
79.74,3.43,-2.25,3.43,-2.25,2.25,2.01,2.12,5.68,5.68,5.68
80.54,3.44,-2.18,3.44,-2.18,2.18,1.95,2.03,5.62,5.62,5.62
81.35,3.46,-2.12,3.45,-2.12,2.12,1.88,1.94,5.58,5.57,5.58
82.16,3.47,-2.06,3.47,-2.06,2.06,1.81,1.86,5.53,5.52,5.53
82.98,3.47,-2.00,3.48,-1.99,1.99,1.75,1.77,5.46,5.47,5.47
83.81,3.49,-1.93,3.49,-1.93,1.93,1.68,1.69,5.42,5.42,5.42
84.65,3.50,-1.86,3.50,-1.86,1.86,1.62,1.60,5.36,5.36,5.36
85.50,3.51,-1.80,3.51,-1.80,1.80,1.56,1.52,5.31,5.31,5.31
86.35,3.53,-1.73,3.52,-1.74,1.74,1.49,1.44,5.27,5.26,5.26
87.22,3.53,-1.68,3.53,-1.67,1.67,1.43,1.36,5.20,5.21,5.21
88.09,3.54,-1.61,3.54,-1.61,1.61,1.37,1.28,5.15,5.15,5.15
88.97,3.55,-1.55,3.55,-1.55,1.55,1.31,1.20,5.10,5.10,5.10
89.86,3.57,-1.47,3.56,-1.48,1.48,1.25,1.12,5.05,5.04,5.04
90.76,3.57,-1.41,3.57,-1.41,1.41,1.19,1.04,4.98,4.98,4.98
91.66,3.58,-1.35,3.58,-1.34,1.34,1.12,0.97,4.92,4.92,4.93
92.58,3.59,-1.28,3.59,-1.27,1.27,1.06,0.89,4.86,4.86,4.87
93.51,3.60,-1.21,3.60,-1.20,1.20,1.00,0.82,4.80,4.80,4.81
94.44,3.61,-1.14,3.61,-1.12,1.12,0.95,0.74,4.73,4.74,4.75
95.39,3.62,-1.06,3.62,-1.05,1.05,0.89,0.67,4.67,4.67,4.68
96.34,3.63,-0.98,3.63,-0.97,0.97,0.83,0.59,4.60,4.60,4.61
97.30,3.64,-0.91,3.64,-0.90,0.90,0.77,0.52,4.54,4.54,4.55
98.28,3.66,-0.80,3.65,-0.82,0.82,0.71,0.45,4.48,4.47,4.46
99.26,3.66,-0.73,3.66,-0.75,0.75,0.65,0.38,4.41,4.41,4.39
100.25,3.67,-0.66,3.67,-0.67,0.67,0.59,0.31,4.34,4.34,4.33
101.25,3.68,-0.59,3.68,-0.60,0.60,0.54,0.24,4.28,4.28,4.27
102.27,3.68,-0.53,3.69,-0.52,0.52,0.48,0.17,4.20,4.21,4.21
103.29,3.70,-0.44,3.70,-0.45,0.45,0.42,0.10,4.15,4.15,4.14
104.32,3.71,-0.38,3.71,-0.38,0.38,0.36,0.04,4.09,4.09,4.09
105.37,3.71,-0.32,3.71,-0.31,0.31,0.31,-0.03,4.02,4.03,4.03
106.42,3.72,-0.25,3.72,-0.24,0.24,0.25,-0.09,3.96,3.97,3.97
107.48,3.73,-0.17,3.73,-0.18,0.18,0.19,-0.16,3.91,3.91,3.90
108.56,3.74,-0.11,3.74,-0.11,0.11,0.14,-0.22,3.85,3.85,3.85
109.64,3.75,-0.05,3.75,-0.04,0.04,0.08,-0.29,3.79,3.79,3.80
110.74,3.75,0.02,3.76,0.03,-0.03,0.02,-0.35,3.72,3.73,3.73
111.85,3.77,0.10,3.76,0.10,-0.10,-0.03,-0.41,3.67,3.66,3.67
112.97,3.78,0.17,3.77,0.17,-0.17,-0.09,-0.47,3.61,3.60,3.61
114.10,3.78,0.23,3.78,0.24,-0.24,-0.14,-0.53,3.54,3.54,3.55
115.24,3.78,0.30,3.79,0.31,-0.31,-0.20,-0.58,3.47,3.47,3.48
116.39,3.79,0.39,3.79,0.39,-0.39,-0.26,-0.64,3.40,3.41,3.40
117.55,3.80,0.46,3.80,0.46,-0.46,-0.31,-0.69,3.34,3.34,3.34
118.73,3.81,0.55,3.81,0.54,-0.54,-0.37,-0.74,3.27,3.27,3.26
119.92,3.81,0.62,3.82,0.62,-0.62,-0.43,-0.80,3.19,3.20,3.19
121.12,3.82,0.69,3.82,0.70,-0.70,-0.48,-0.85,3.12,3.13,3.13
122.33,3.83,0.78,3.83,0.78,-0.78,-0.54,-0.89,3.05,3.05,3.05
123.55,3.84,0.85,3.84,0.86,-0.86,-0.60,-0.94,2.98,2.98,2.99
124.79,3.85,0.93,3.84,0.94,-0.94,-0.65,-0.99,2.91,2.91,2.92
126.03,3.85,1.00,3.85,1.02,-1.02,-0.71,-1.03,2.83,2.83,2.85
127.29,3.86,1.10,3.86,1.10,-1.10,-0.77,-1.08,2.76,2.76,2.76
128.57,3.87,1.18,3.86,1.18,-1.18,-0.82,-1.12,2.69,2.69,2.69
129.85,3.87,1.26,3.87,1.25,-1.25,-0.88,-1.16,2.62,2.62,2.61
131.15,3.88,1.34,3.88,1.33,-1.33,-0.94,-1.20,2.55,2.55,2.54
132.46,3.88,1.41,3.88,1.40,-1.40,-1.00,-1.24,2.48,2.48,2.47
133.79,3.88,1.47,3.89,1.47,-1.47,-1.05,-1.27,2.41,2.42,2.41
135.12,3.89,1.55,3.89,1.54,-1.54,-1.11,-1.31,2.35,2.35,2.34
136.48,3.90,1.60,3.90,1.61,-1.61,-1.17,-1.35,2.29,2.29,2.30
137.84,3.91,1.67,3.91,1.67,-1.67,-1.23,-1.38,2.24,2.23,2.24
139.22,3.91,1.74,3.91,1.73,-1.73,-1.29,-1.42,2.18,2.18,2.17
140.61,3.91,1.78,3.92,1.79,-1.79,-1.35,-1.45,2.12,2.12,2.13
142.02,3.92,1.84,3.92,1.85,-1.85,-1.41,-1.49,2.07,2.07,2.08
143.44,3.93,1.91,3.93,1.90,-1.90,-1.47,-1.52,2.03,2.02,2.02
144.87,3.93,1.95,3.93,1.95,-1.95,-1.53,-1.56,1.98,1.98,1.98
146.32,3.94,2.01,3.94,2.01,-2.01,-1.59,-1.59,1.93,1.93,1.93
147.78,3.94,2.06,3.94,2.06,-2.06,-1.65,-1.63,1.88,1.88,1.88
149.26,3.95,2.11,3.94,2.11,-2.11,-1.71,-1.67,1.84,1.83,1.84
150.75,3.94,2.16,3.95,2.16,-2.16,-1.77,-1.70,1.78,1.79,1.78
152.26,3.95,2.20,3.95,2.21,-2.21,-1.83,-1.74,1.74,1.74,1.75
153.78,3.95,2.26,3.95,2.26,-2.26,-1.89,-1.78,1.69,1.69,1.69
155.32,3.96,2.31,3.96,2.31,-2.31,-1.95,-1.82,1.65,1.64,1.65
156.88,3.96,2.36,3.96,2.37,-2.37,-2.02,-1.87,1.59,1.59,1.60
158.44,3.96,2.41,3.96,2.42,-2.42,-2.08,-1.91,1.54,1.54,1.55
160.03,3.97,2.47,3.96,2.47,-2.47,-2.14,-1.95,1.50,1.49,1.50
161.63,3.96,2.51,3.97,2.52,-2.52,-2.20,-2.00,1.44,1.44,1.45
163.24,3.97,2.59,3.97,2.58,-2.58,-2.27,-2.05,1.39,1.39,1.38
164.88,3.97,2.63,3.97,2.63,-2.63,-2.33,-2.10,1.34,1.34,1.34
166.53,3.98,2.70,3.97,2.69,-2.69,-2.39,-2.15,1.29,1.29,1.28
168.19,3.97,2.73,3.97,2.74,-2.74,-2.46,-2.20,1.23,1.23,1.24
169.87,3.97,2.78,3.97,2.79,-2.79,-2.52,-2.26,1.18,1.18,1.19
171.57,3.97,2.85,3.97,2.85,-2.85,-2.58,-2.31,1.12,1.13,1.12
173.29,3.98,2.91,3.97,2.90,-2.90,-2.65,-2.37,1.08,1.08,1.07
175.02,3.97,2.94,3.98,2.95,-2.95,-2.71,-2.43,1.02,1.03,1.03
176.77,3.98,3.00,3.98,3.00,-3.00,-2.78,-2.50,0.98,0.98,0.98
178.54,3.97,3.04,3.97,3.05,-3.05,-2.84,-2.56,0.92,0.93,0.93
180.32,3.98,3.11,3.97,3.10,-3.10,-2.91,-2.63,0.88,0.88,0.87
182.13,3.97,3.14,3.97,3.14,-3.14,-2.97,-2.70,0.83,0.83,0.83
183.95,3.97,3.18,3.97,3.19,-3.19,-3.04,-2.77,0.78,0.78,0.79
185.79,3.97,3.24,3.97,3.24,-3.24,-3.10,-2.84,0.73,0.73,0.73
187.65,3.97,3.28,3.96,3.28,-3.28,-3.17,-2.91,0.69,0.68,0.69
189.52,3.96,3.32,3.96,3.33,-3.33,-3.23,-2.99,0.63,0.63,0.64
191.42,3.96,3.37,3.96,3.37,-3.37,-3.29,-3.07,0.59,0.59,0.59
193.33,3.96,3.42,3.95,3.41,-3.41,-3.36,-3.15,0.55,0.54,0.54
195.27,3.94,3.45,3.95,3.45,-3.45,-3.42,-3.23,0.49,0.50,0.49
197.22,3.95,3.51,3.95,3.49,-3.49,-3.48,-3.31,0.46,0.45,0.44
199.19,3.94,3.53,3.94,3.53,-3.53,-3.55,-3.40,0.41,0.41,0.41
201.18,3.93,3.57,3.94,3.57,-3.57,-3.61,-3.48,0.36,0.37,0.36
203.19,3.94,3.61,3.94,3.61,-3.61,-3.67,-3.57,0.33,0.33,0.33
205.23,3.93,3.64,3.93,3.65,-3.65,-3.73,-3.65,0.28,0.29,0.29
207.28,3.93,3.67,3.93,3.68,-3.68,-3.79,-3.74,0.25,0.25,0.26
209.35,3.93,3.71,3.93,3.72,-3.72,-3.85,-3.83,0.21,0.21,0.22
211.44,3.93,3.75,3.93,3.75,-3.75,-3.91,-3.91,0.18,0.18,0.18
213.56,3.93,3.79,3.93,3.78,-3.78,-3.97,-4.00,0.15,0.14,0.14
215.69,3.93,3.82,3.93,3.82,-3.82,-4.03,-4.08,0.11,0.11,0.11
217.85,3.93,3.85,3.93,3.85,-3.85,-4.08,-4.17,0.08,0.08,0.08
220.03,3.93,3.89,3.93,3.88,-3.88,-4.14,-4.25,0.05,0.05,0.04
222.23,3.93,3.91,3.93,3.91,-3.91,-4.19,-4.33,0.02,0.02,0.02
224.45,3.93,3.94,3.93,3.94,-3.94,-4.24,-4.40,-0.01,-0.01,-0.01
226.70,3.92,3.96,3.93,3.97,-3.97,-4.29,-4.47,-0.05,-0.04,-0.04
228.96,3.93,3.99,3.93,4.00,-4.00,-4.34,-4.54,-0.07,-0.07,-0.06
231.25,3.93,4.01,3.93,4.03,-4.03,-4.39,-4.60,-0.10,-0.09,-0.08
233.57,3.93,4.04,3.94,4.05,-4.05,-4.43,-4.66,-0.12,-0.11,-0.11
235.90,3.94,4.08,3.94,4.08,-4.08,-4.48,-4.72,-0.14,-0.14,-0.14
238.26,3.94,4.11,3.95,4.10,-4.10,-4.52,-4.76,-0.16,-0.16,-0.17
240.64,3.95,4.12,3.95,4.13,-4.13,-4.56,-4.81,-0.18,-0.18,-0.17
243.05,3.96,4.15,3.96,4.15,-4.15,-4.60,-4.84,-0.19,-0.19,-0.19
245.48,3.97,4.19,3.96,4.18,-4.18,-4.63,-4.87,-0.21,-0.21,-0.22
247.93,3.97,4.21,3.97,4.20,-4.20,-4.67,-4.89,-0.23,-0.23,-0.24
250.41,3.98,4.22,3.98,4.22,-4.22,-4.70,-4.91,-0.24,-0.24,-0.24
252.92,3.99,4.24,3.99,4.24,-4.24,-4.73,-4.92,-0.25,-0.26,-0.25
255.45,3.99,4.26,3.99,4.27,-4.27,-4.75,-4.92,-0.28,-0.27,-0.27
258.00,4.00,4.28,4.00,4.29,-4.29,-4.78,-4.92,-0.29,-0.29,-0.28
260.58,4.01,4.30,4.01,4.31,-4.31,-4.80,-4.91,-0.30,-0.30,-0.29
263.19,4.02,4.33,4.02,4.33,-4.33,-4.82,-4.89,-0.31,-0.31,-0.31
265.82,4.02,4.34,4.02,4.35,-4.35,-4.84,-4.87,-0.33,-0.33,-0.32
268.48,4.03,4.36,4.03,4.37,-4.37,-4.85,-4.84,-0.34,-0.34,-0.33
271.16,4.04,4.39,4.03,4.39,-4.39,-4.86,-4.81,-0.35,-0.35,-0.35
273.87,4.04,4.40,4.04,4.40,-4.40,-4.87,-4.77,-0.36,-0.36,-0.36
276.61,4.04,4.42,4.05,4.42,-4.42,-4.87,-4.73,-0.38,-0.38,-0.38
279.38,4.04,4.44,4.05,4.44,-4.44,-4.88,-4.68,-0.40,-0.39,-0.40
282.17,4.06,4.47,4.05,4.45,-4.45,-4.88,-4.64,-0.39,-0.40,-0.41
284.99,4.06,4.46,4.06,4.47,-4.47,-4.87,-4.59,-0.41,-0.41,-0.40
287.84,4.06,4.47,4.06,4.48,-4.48,-4.87,-4.54,-0.42,-0.42,-0.41
290.72,4.07,4.51,4.06,4.49,-4.49,-4.86,-4.48,-0.42,-0.43,-0.44
293.63,4.07,4.50,4.07,4.50,-4.50,-4.85,-4.43,-0.43,-0.44,-0.43
296.57,4.07,4.51,4.07,4.51,-4.51,-4.84,-4.37,-0.44,-0.44,-0.44
299.53,4.07,4.52,4.07,4.52,-4.52,-4.82,-4.32,-0.45,-0.45,-0.45
302.53,4.07,4.52,4.07,4.52,-4.52,-4.80,-4.26,-0.45,-0.46,-0.45
305.55,4.07,4.53,4.07,4.53,-4.53,-4.78,-4.21,-0.46,-0.46,-0.46
308.61,4.06,4.52,4.07,4.53,-4.53,-4.76,-4.16,-0.47,-0.46,-0.46
311.69,4.06,4.53,4.07,4.53,-4.53,-4.73,-4.10,-0.47,-0.47,-0.47
314.81,4.07,4.54,4.06,4.53,-4.53,-4.71,-4.05,-0.46,-0.47,-0.47
317.96,4.06,4.54,4.06,4.54,-4.54,-4.68,-4.00,-0.48,-0.48,-0.48
321.14,4.06,4.53,4.06,4.53,-4.53,-4.64,-3.96,-0.47,-0.48,-0.47
324.35,4.05,4.54,4.05,4.53,-4.53,-4.61,-3.91,-0.48,-0.48,-0.49
327.59,4.04,4.51,4.05,4.53,-4.53,-4.57,-3.87,-0.49,-0.48,-0.47
330.87,4.04,4.52,4.04,4.52,-4.52,-4.54,-3.83,-0.48,-0.48,-0.48
334.18,4.04,4.53,4.03,4.52,-4.52,-4.50,-3.79,-0.48,-0.48,-0.49
337.52,4.03,4.51,4.03,4.51,-4.51,-4.46,-3.76,-0.48,-0.48,-0.48
340.90,4.02,4.51,4.02,4.50,-4.50,-4.41,-3.73,-0.48,-0.48,-0.49
344.30,4.01,4.49,4.01,4.50,-4.50,-4.37,-3.70,-0.49,-0.48,-0.48
347.75,4.00,4.47,4.00,4.49,-4.49,-4.32,-3.67,-0.49,-0.48,-0.47
351.23,4.00,4.49,3.99,4.47,-4.47,-4.28,-3.65,-0.47,-0.48,-0.49
354.74,3.98,4.45,3.98,4.46,-4.46,-4.23,-3.63,-0.48,-0.48,-0.47
358.28,3.97,4.45,3.97,4.45,-4.45,-4.18,-3.61,-0.48,-0.48,-0.48
361.87,3.96,4.44,3.96,4.44,-4.44,-4.13,-3.60,-0.48,-0.48,-0.48
365.49,3.94,4.42,3.94,4.42,-4.42,-4.08,-3.58,-0.48,-0.48,-0.48
369.14,3.93,4.40,3.93,4.41,-4.41,-4.03,-3.57,-0.48,-0.48,-0.47
372.83,3.92,4.39,3.91,4.39,-4.39,-3.97,-3.57,-0.47,-0.48,-0.47
376.56,3.89,4.37,3.89,4.37,-4.37,-3.92,-3.56,-0.48,-0.48,-0.48
380.33,3.88,4.36,3.88,4.35,-4.35,-3.86,-3.56,-0.47,-0.48,-0.48
384.13,3.86,4.34,3.86,4.33,-4.33,-3.81,-3.56,-0.47,-0.48,-0.48
387.97,3.83,4.30,3.83,4.31,-4.31,-3.75,-3.57,-0.48,-0.48,-0.47
391.85,3.81,4.29,3.81,4.29,-4.29,-3.70,-3.57,-0.48,-0.48,-0.48
395.77,3.79,4.27,3.79,4.26,-4.26,-3.64,-3.58,-0.47,-0.48,-0.48
399.73,3.76,4.24,3.76,4.24,-4.24,-3.59,-3.59,-0.48,-0.48,-0.48
403.72,3.74,4.21,3.74,4.21,-4.21,-3.53,-3.60,-0.47,-0.47,-0.47
407.76,3.71,4.18,3.71,4.19,-4.19,-3.47,-3.62,-0.48,-0.48,-0.47
411.84,3.68,4.15,3.68,4.16,-4.16,-3.42,-3.63,-0.48,-0.48,-0.47
415.96,3.66,4.13,3.65,4.13,-4.13,-3.36,-3.64,-0.47,-0.48,-0.47
420.12,3.62,4.10,3.62,4.10,-4.10,-3.30,-3.66,-0.48,-0.48,-0.48
424.32,3.59,4.07,3.59,4.07,-4.07,-3.25,-3.67,-0.48,-0.48,-0.48
428.56,3.56,4.03,3.56,4.04,-4.04,-3.19,-3.69,-0.48,-0.48,-0.47
432.85,3.53,4.00,3.53,4.01,-4.01,-3.13,-3.70,-0.48,-0.48,-0.47
437.18,3.49,3.97,3.49,3.97,-3.97,-3.08,-3.72,-0.48,-0.48,-0.48
441.55,3.46,3.94,3.46,3.94,-3.94,-3.02,-3.73,-0.48,-0.48,-0.48
445.96,3.42,3.91,3.42,3.91,-3.91,-2.97,-3.74,-0.49,-0.48,-0.49
450.42,3.38,3.87,3.39,3.87,-3.87,-2.91,-3.75,-0.49,-0.48,-0.49
454.93,3.35,3.84,3.35,3.84,-3.84,-2.85,-3.76,-0.49,-0.49,-0.49
459.48,3.31,3.80,3.31,3.80,-3.80,-2.80,-3.76,-0.49,-0.49,-0.49
464.07,3.27,3.75,3.27,3.76,-3.76,-2.74,-3.76,-0.49,-0.49,-0.48
468.71,3.23,3.71,3.23,3.72,-3.72,-2.69,-3.76,-0.49,-0.49,-0.48
473.40,3.19,3.67,3.19,3.67,-3.67,-2.63,-3.75,-0.48,-0.49,-0.48
478.13,3.14,3.62,3.14,3.63,-3.63,-2.58,-3.74,-0.49,-0.49,-0.48
482.91,3.10,3.58,3.09,3.58,-3.58,-2.53,-3.73,-0.48,-0.48,-0.48
487.74,3.05,3.53,3.05,3.53,-3.53,-2.47,-3.71,-0.48,-0.48,-0.48
492.62,2.99,3.47,2.99,3.47,-3.47,-2.42,-3.68,-0.48,-0.48,-0.48
497.55,2.94,3.42,2.94,3.41,-3.41,-2.37,-3.65,-0.47,-0.48,-0.48
502.52,2.88,3.36,2.88,3.35,-3.35,-2.32,-3.62,-0.47,-0.47,-0.48
507.55,2.82,3.29,2.82,3.29,-3.29,-2.26,-3.57,-0.47,-0.47,-0.47
512.62,2.76,3.23,2.76,3.22,-3.22,-2.21,-3.53,-0.46,-0.47,-0.47
517.75,2.69,3.14,2.69,3.15,-3.15,-2.16,-3.48,-0.46,-0.46,-0.45
522.93,2.62,3.07,2.62,3.08,-3.08,-2.11,-3.42,-0.46,-0.46,-0.45
528.16,2.55,3.00,2.55,3.00,-3.00,-2.06,-3.36,-0.45,-0.45,-0.45
