frequency,raw,error,smoothed,error_smoothed,equalization,parametric_eq,fixed_band_eq,equalized_raw,equalized_smoothed,target
20.00,-5.94,-10.78,-5.94,-10.80,10.80,10.39,4.25,4.87,4.87,4.85
20.20,-5.89,-10.77,-5.89,-10.78,10.78,10.40,4.36,4.90,4.90,4.89
20.40,-5.85,-10.76,-5.84,-10.76,10.76,10.41,4.48,4.92,4.92,4.92
20.61,-5.80,-10.74,-5.79,-10.74,10.74,10.42,4.60,4.95,4.95,4.95
20.81,-5.75,-10.73,-5.74,-10.72,10.72,10.43,4.72,4.97,4.98,4.99
21.02,-5.70,-10.72,-5.69,-10.69,10.69,10.43,4.85,5.00,5.00,5.02
21.23,-5.65,-10.68,-5.64,-10.67,10.67,10.44,4.98,5.02,5.02,5.03
21.44,-5.60,-10.65,-5.59,-10.64,10.64,10.44,5.12,5.04,5.04,5.05
21.66,-5.54,-10.61,-5.54,-10.60,10.60,10.44,5.26,5.07,5.06,5.07
21.87,-5.49,-10.57,-5.49,-10.57,10.57,10.43,5.40,5.09,5.08,5.08
22.09,-5.44,-10.54,-5.44,-10.54,10.54,10.43,5.54,5.10,5.09,5.10
22.31,-5.39,-10.49,-5.39,-10.50,10.50,10.42,5.70,5.11,5.11,5.10
22.54,-5.35,-10.46,-5.34,-10.46,10.46,10.41,5.85,5.11,5.12,5.11
22.76,-5.30,-10.42,-5.29,-10.42,10.42,10.40,6.01,5.12,5.13,5.12
22.99,-5.25,-10.37,-5.24,-10.37,10.37,10.39,6.17,5.13,5.13,5.12
23.22,-5.20,-10.32,-5.19,-10.33,10.33,10.37,6.34,5.13,5.14,5.13
23.45,-5.14,-10.27,-5.14,-10.28,10.28,10.35,6.51,5.14,5.14,5.14
23.69,-5.09,-10.23,-5.08,-10.23,10.23,10.34,6.69,5.14,5.15,5.15
23.92,-5.04,-10.19,-5.02,-10.18,10.18,10.31,6.87,5.14,5.15,5.16
24.16,-4.98,-10.14,-4.97,-10.12,10.12,10.29,7.05,5.15,5.16,5.17
24.40,-4.93,-10.10,-4.91,-10.07,10.07,10.27,7.24,5.15,5.16,5.17
24.65,-4.88,-10.04,-4.86,-10.02,10.02,10.24,7.43,5.15,5.16,5.16
24.89,-4.82,-9.98,-4.82,-9.98,9.98,10.21,7.63,5.16,5.16,5.16
25.14,-4.77,-9.93,-4.77,-9.93,9.93,10.18,7.83,5.17,5.16,5.16
25.39,-4.71,-9.87,-4.73,-9.89,9.89,10.15,8.03,5.19,5.16,5.16
25.65,-4.65,-9.81,-4.69,-9.85,9.85,10.12,8.24,5.21,5.16,5.16
25.91,-4.59,-9.74,-4.65,-9.82,9.82,10.08,8.44,5.23,5.16,5.15
26.16,-4.57,-9.72,-4.62,-9.77,9.77,10.05,8.65,5.21,5.16,5.16
26.43,-4.57,-9.72,-4.57,-9.73,9.73,10.01,8.86,5.16,5.16,5.16
26.69,-4.57,-9.72,-4.53,-9.68,9.68,9.97,9.07,5.12,5.15,5.15
26.96,-4.57,-9.72,-4.49,-9.64,9.64,9.93,9.28,5.07,5.15,5.15
27.23,-4.52,-9.67,-4.45,-9.60,9.60,9.89,9.49,5.08,5.15,5.15
27.50,-4.46,-9.61,-4.41,-9.56,9.56,9.85,9.70,5.10,5.14,5.15
27.77,-4.41,-9.54,-4.38,-9.52,9.52,9.80,9.90,5.11,5.14,5.14
28.05,-4.35,-9.48,-4.34,-9.48,9.48,9.75,10.10,5.13,5.14,5.14
28.33,-4.28,-9.40,-4.29,-9.43,9.43,9.71,10.29,5.16,5.14,5.13
28.62,-4.21,-9.34,-4.25,-9.38,9.38,9.66,10.47,5.18,5.14,5.13
28.90,-4.13,-9.26,-4.20,-9.34,9.34,9.61,10.65,5.21,5.13,5.13
29.19,-4.11,-9.23,-4.16,-9.29,9.29,9.56,10.81,5.18,5.13,5.12
29.48,-4.11,-9.23,-4.12,-9.24,9.24,9.51,10.95,5.13,5.12,5.13
29.78,-4.11,-9.23,-4.07,-9.19,9.19,9.46,11.09,5.09,5.12,5.13
30.08,-4.09,-9.21,-4.03,-9.15,9.15,9.40,11.20,5.06,5.12,5.12
30.38,-4.02,-9.13,-3.99,-9.10,9.10,9.35,11.30,5.08,5.11,5.11
30.68,-3.95,-9.06,-3.96,-9.06,9.06,9.30,11.37,5.12,5.11,5.11
30.99,-3.88,-8.98,-3.93,-9.03,9.03,9.24,11.43,5.15,5.10,5.10
31.30,-3.88,-8.97,-3.90,-8.99,8.99,9.18,11.46,5.12,5.10,5.10
31.61,-3.88,-8.97,-3.87,-8.96,8.96,9.13,11.48,5.08,5.09,5.09
31.93,-3.88,-8.96,-3.83,-8.92,8.92,9.07,11.47,5.04,5.08,5.08
32.24,-3.83,-8.89,-3.79,-8.87,8.87,9.01,11.44,5.05,5.08,5.07
32.57,-3.75,-8.81,-3.76,-8.83,8.83,8.95,11.39,5.08,5.07,5.07
32.89,-3.68,-8.74,-3.72,-8.78,8.78,8.90,11.32,5.11,5.07,5.06
33.22,-3.66,-8.72,-3.68,-8.74,8.74,8.84,11.24,5.09,5.06,5.06
33.55,-3.66,-8.71,-3.65,-8.70,8.70,8.78,11.14,5.05,5.05,5.06
33.89,-3.66,-8.71,-3.61,-8.66,8.66,8.72,11.03,5.00,5.05,5.05
34.23,-3.61,-8.66,-3.57,-8.61,8.61,8.66,10.90,5.01,5.04,5.05
34.57,-3.53,-8.56,-3.53,-8.56,8.56,8.59,10.76,5.04,5.04,5.04
34.92,-3.45,-8.48,-3.48,-8.51,8.51,8.53,10.62,5.07,5.03,5.03
35.27,-3.43,-8.46,-3.44,-8.47,8.47,8.47,10.47,5.04,5.03,5.03
35.62,-3.43,-8.44,-3.41,-8.43,8.43,8.41,10.31,5.00,5.02,5.01
35.97,-3.43,-8.44,-3.38,-8.39,8.39,8.35,10.16,4.97,5.01,5.01
36.33,-3.35,-8.35,-3.35,-8.35,8.35,8.29,10.00,5.01,5.01,5.01
36.70,-3.27,-8.27,-3.31,-8.31,8.31,8.23,9.83,5.04,5.00,5.00
37.06,-3.20,-8.18,-3.27,-8.26,8.26,8.17,9.67,5.06,4.99,4.99
37.43,-3.20,-8.18,-3.23,-8.21,8.21,8.10,9.51,5.02,4.98,4.98
37.81,-3.20,-8.17,-3.20,-8.17,8.17,8.04,9.35,4.98,4.97,4.98
38.19,-3.20,-8.16,-3.17,-8.14,8.14,7.98,9.20,4.94,4.97,4.96
38.57,-3.20,-8.15,-3.15,-8.11,8.11,7.92,9.04,4.91,4.96,4.96
38.95,-3.20,-8.15,-3.12,-8.08,8.08,7.86,8.89,4.88,4.95,4.95
39.34,-3.12,-8.05,-3.09,-8.04,8.04,7.80,8.75,4.92,4.94,4.94
39.74,-3.03,-7.95,-3.06,-7.99,7.99,7.74,8.61,4.97,4.94,4.92
40.14,-2.97,-7.89,-3.03,-7.95,7.95,7.68,8.47,4.99,4.93,4.92
40.54,-2.97,-7.88,-3.00,-7.91,7.91,7.62,8.34,4.95,4.91,4.92
40.94,-2.97,-7.88,-2.97,-7.87,7.87,7.56,8.21,4.90,4.90,4.91
41.35,-2.97,-7.86,-2.94,-7.82,7.82,7.50,8.09,4.86,4.88,4.89
41.76,-2.97,-7.84,-2.90,-7.77,7.77,7.44,7.98,4.80,4.86,4.88
42.18,-2.93,-7.78,-2.87,-7.71,7.71,7.38,7.87,4.78,4.84,4.86
42.60,-2.84,-7.67,-2.84,-7.66,7.66,7.32,7.76,4.82,4.82,4.83
43.03,-2.75,-7.56,-2.82,-7.61,7.61,7.26,7.66,4.87,4.79,4.81
43.46,-2.75,-7.53,-2.80,-7.57,7.57,7.21,7.57,4.82,4.77,4.78
43.90,-2.75,-7.48,-2.78,-7.52,7.52,7.15,7.48,4.78,4.74,4.74
44.33,-2.75,-7.45,-2.76,-7.47,7.47,7.09,7.40,4.73,4.71,4.71
44.78,-2.75,-7.41,-2.74,-7.42,7.42,7.04,7.32,4.68,4.68,4.67
45.23,-2.73,-7.36,-2.71,-7.37,7.37,6.98,7.25,4.64,4.65,4.64
45.68,-2.70,-7.30,-2.69,-7.32,7.32,6.93,7.19,4.62,4.63,4.61
46.13,-2.69,-7.27,-2.67,-7.27,7.27,6.88,7.13,4.59,4.60,4.59
46.60,-2.72,-7.29,-2.65,-7.23,7.23,6.82,7.07,4.52,4.58,4.58
47.06,-2.74,-7.29,-2.64,-7.20,7.20,6.77,7.02,4.47,4.56,4.55
47.53,-2.63,-7.17,-2.62,-7.17,7.17,6.72,6.98,4.55,4.55,4.54
48.01,-2.52,-7.06,-2.60,-7.14,7.14,6.67,6.93,4.63,4.54,4.54
48.49,-2.52,-7.04,-2.58,-7.11,7.11,6.62,6.90,4.59,4.53,4.53
48.97,-2.52,-7.03,-2.55,-7.07,7.07,6.57,6.87,4.56,4.53,4.52
49.46,-2.52,-7.02,-2.52,-7.04,7.04,6.53,6.84,4.52,4.52,4.50
49.96,-2.52,-7.01,-2.48,-7.00,7.00,6.48,6.81,4.48,4.51,4.50
50.46,-2.50,-7.00,-2.46,-6.96,6.96,6.43,6.79,4.46,4.51,4.50
50.96,-2.47,-6.98,-2.43,-6.92,6.92,6.39,6.77,4.46,4.49,4.51
51.47,-2.43,-6.92,-2.40,-6.88,6.88,6.35,6.76,4.45,4.48,4.49
51.99,-2.39,-6.86,-2.37,-6.84,6.84,6.31,6.75,4.45,4.46,4.48
52.51,-2.34,-6.80,-2.36,-6.80,6.80,6.27,6.74,4.46,4.44,4.46
53.03,-2.29,-6.72,-2.36,-6.77,6.77,6.23,6.73,4.48,4.41,4.43
53.56,-2.29,-6.68,-2.35,-6.72,6.72,6.19,6.72,4.44,4.38,4.40
54.10,-2.29,-6.63,-2.33,-6.67,6.67,6.15,6.72,4.38,4.34,4.35
54.64,-2.29,-6.59,-2.31,-6.60,6.60,6.12,6.71,4.32,4.30,4.30
55.18,-2.29,-6.54,-2.28,-6.53,6.53,6.09,6.71,4.25,4.25,4.25
55.74,-2.29,-6.48,-2.26,-6.46,6.46,6.05,6.70,4.17,4.20,4.19
56.29,-2.29,-6.42,-2.24,-6.38,6.38,6.02,6.69,4.09,4.14,4.14
56.86,-2.29,-6.36,-2.22,-6.30,6.30,5.99,6.69,4.01,4.08,4.08
57.42,-2.29,-6.29,-2.20,-6.22,6.22,5.97,6.68,3.93,4.01,4.00
58.00,-2.29,-6.23,-2.19,-6.13,6.13,5.94,6.66,3.85,3.95,3.94
58.58,-2.16,-6.04,-2.17,-6.05,6.05,5.92,6.65,3.89,3.88,3.88
59.16,-2.06,-5.88,-2.15,-5.96,5.96,5.90,6.63,3.91,3.82,3.82
59.76,-2.06,-5.82,-2.13,-5.88,5.88,5.88,6.61,3.82,3.75,3.76
60.35,-2.06,-5.74,-2.10,-5.79,5.79,5.86,6.58,3.73,3.68,3.68
60.96,-2.06,-5.68,-2.09,-5.71,5.71,5.84,6.55,3.65,3.62,3.63
61.57,-2.06,-5.61,-2.07,-5.62,5.62,5.83,6.51,3.57,3.56,3.55
62.18,-2.06,-5.54,-2.05,-5.54,5.54,5.81,6.47,3.49,3.49,3.48
62.80,-2.06,-5.49,-2.03,-5.46,5.46,5.80,6.43,3.41,3.44,3.43
63.43,-2.06,-5.43,-2.00,-5.38,5.38,5.79,6.38,3.33,3.38,3.37
64.07,-2.06,-5.38,-1.97,-5.30,5.30,5.78,6.32,3.24,3.32,3.32
64.71,-2.06,-5.32,-1.95,-5.22,5.22,5.78,6.26,3.16,3.27,3.27
65.35,-2.06,-5.27,-1.95,-5.17,5.17,5.77,6.20,3.11,3.22,3.22
66.01,-2.06,-5.23,-1.97,-5.14,5.14,5.77,6.13,3.09,3.18,3.17
66.67,-2.06,-5.18,-2.02,-5.15,5.15,5.76,6.05,3.09,3.13,3.13
67.33,-2.06,-5.15,-2.10,-5.20,5.20,5.76,5.98,3.14,3.09,3.09
68.01,-2.06,-5.11,-2.23,-5.28,5.28,5.76,5.90,3.23,3.05,3.06
68.69,-2.08,-5.09,-2.39,-5.41,5.41,5.76,5.81,3.33,3.02,3.02
69.37,-2.17,-5.15,-2.57,-5.55,5.55,5.76,5.73,3.39,2.98,2.98
70.07,-2.32,-5.26,-2.77,-5.71,5.71,5.75,5.64,3.39,2.94,2.94
70.77,-2.63,-5.55,-2.95,-5.86,5.86,5.75,5.55,3.24,2.91,2.92
71.48,-3.06,-5.94,-3.13,-6.00,6.00,5.75,5.46,2.94,2.87,2.88
72.19,-3.52,-6.36,-3.29,-6.13,6.13,5.74,5.36,2.61,2.83,2.85
72.91,-3.81,-6.61,-3.43,-6.23,6.23,5.74,5.27,2.42,2.80,2.80
73.64,-4.01,-6.78,-3.54,-6.30,6.30,5.73,5.18,2.29,2.76,2.77
74.38,-4.11,-6.84,-3.62,-6.34,6.34,5.72,5.08,2.24,2.73,2.73
75.12,-4.08,-6.76,-3.66,-6.35,6.35,5.70,4.99,2.27,2.69,2.69
75.87,-3.92,-6.58,-3.65,-6.31,6.31,5.69,4.90,2.38,2.65,2.65
76.63,-3.63,-6.24,-3.59,-6.21,6.21,5.66,4.81,2.59,2.62,2.61
77.40,-3.34,-5.92,-3.49,-6.07,6.07,5.64,4.72,2.74,2.59,2.58
78.17,-3.11,-5.65,-3.34,-5.89,5.89,5.61,4.63,2.79,2.55,2.54
78.95,-2.98,-5.50,-3.14,-5.67,5.67,5.57,4.54,2.69,2.53,2.52
79.74,-2.81,-5.31,-2.94,-5.44,5.44,5.53,4.46,2.63,2.50,2.50
80.54,-2.67,-5.13,-2.73,-5.21,5.21,5.49,4.37,2.54,2.48,2.47
81.35,-2.57,-5.01,-2.55,-5.01,5.01,5.44,4.29,2.44,2.46,2.44
82.16,-2.45,-4.88,-2.40,-4.84,4.84,5.38,4.22,2.40,2.44,2.43
82.98,-2.20,-4.62,-2.29,-4.72,4.72,5.32,4.14,2.52,2.42,2.42
83.81,-2.08,-4.48,-2.22,-4.63,4.63,5.26,4.07,2.56,2.41,2.41
84.65,-2.06,-4.45,-2.18,-4.59,4.59,5.19,4.00,2.53,2.40,2.39
85.50,-2.06,-4.45,-2.18,-4.57,4.57,5.12,3.93,2.51,2.39,2.39
86.35,-2.06,-4.44,-2.18,-4.57,4.57,5.04,3.86,2.51,2.38,2.38
87.22,-2.11,-4.48,-2.20,-4.58,4.58,4.96,3.80,2.47,2.38,2.37
88.09,-2.29,-4.65,-2.22,-4.59,4.59,4.88,3.74,2.31,2.37,2.36
88.97,-2.29,-4.66,-2.26,-4.62,4.62,4.79,3.68,2.34,2.36,2.37
89.86,-2.44,-4.80,-2.32,-4.67,4.67,4.71,3.63,2.23,2.35,2.36
90.76,-2.51,-4.84,-2.37,-4.71,4.71,4.62,3.58,2.20,2.34,2.34
91.66,-2.52,-4.85,-2.42,-4.75,4.75,4.53,3.53,2.23,2.32,2.33
92.58,-2.52,-4.82,-2.48,-4.78,4.78,4.43,3.48,2.27,2.31,2.30
93.51,-2.52,-4.81,-2.51,-4.80,4.80,4.34,3.44,2.28,2.29,2.30
94.44,-2.52,-4.79,-2.53,-4.79,4.79,4.25,3.40,2.27,2.26,2.27
95.39,-2.52,-4.76,-2.52,-4.76,4.76,4.16,3.36,2.25,2.24,2.25
96.34,-2.52,-4.72,-2.51,-4.72,4.72,4.06,3.32,2.21,2.21,2.20
97.30,-2.52,-4.69,-2.49,-4.67,4.67,3.97,3.29,2.15,2.18,2.17
98.28,-2.52,-4.65,-2.45,-4.59,4.59,3.88,3.25,2.07,2.14,2.14
99.26,-2.46,-4.56,-2.40,-4.51,4.51,3.79,3.22,2.05,2.11,2.10
100.25,-2.29,-4.35,-2.34,-4.41,4.41,3.71,3.19,2.12,2.06,2.06
101.25,-2.29,-4.30,-2.29,-4.30,4.30,3.62,3.17,2.02,2.02,2.02
102.27,-2.26,-4.23,-2.23,-4.20,4.20,3.53,3.14,1.94,1.97,1.97
103.29,-2.14,-4.05,-2.17,-4.08,4.08,3.45,3.12,1.95,1.91,1.91
104.32,-2.06,-3.92,-2.11,-3.96,3.96,3.37,3.09,1.91,1.85,1.86
105.37,-2.06,-3.86,-2.06,-3.84,3.84,3.28,3.07,1.79,1.79,1.81
106.42,-2.06,-3.79,-2.00,-3.72,3.72,3.21,3.05,1.67,1.72,1.74
107.48,-1.96,-3.62,-1.95,-3.60,3.60,3.13,3.03,1.65,1.65,1.66
108.56,-1.84,-3.41,-1.92,-3.50,3.50,3.05,3.01,1.66,1.57,1.57
109.64,-1.83,-3.32,-1.90,-3.39,3.39,2.98,2.99,1.57,1.49,1.50
110.74,-1.83,-3.24,-1.88,-3.29,3.29,2.90,2.97,1.46,1.41,1.42
111.85,-1.83,-3.17,-1.86,-3.19,3.19,2.83,2.95,1.36,1.33,1.34
112.97,-1.83,-3.07,-1.83,-3.08,3.08,2.76,2.93,1.25,1.25,1.24
114.10,-1.83,-2.99,-1.81,-2.97,2.97,2.70,2.91,1.15,1.17,1.17
115.24,-1.83,-2.91,-1.79,-2.88,2.88,2.63,2.89,1.05,1.09,1.08
116.39,-1.83,-2.82,-1.77,-2.78,2.78,2.56,2.87,0.96,1.01,1.00
117.55,-1.83,-2.75,-1.75,-2.69,2.69,2.50,2.85,0.86,0.94,0.92
118.73,-1.83,-2.67,-1.73,-2.60,2.60,2.44,2.82,0.77,0.87,0.84
119.92,-1.82,-2.61,-1.72,-2.52,2.52,2.38,2.80,0.71,0.80,0.79
121.12,-1.61,-2.33,-1.70,-2.45,2.45,2.32,2.77,0.84,0.75,0.73
122.33,-1.61,-2.28,-1.68,-2.37,2.37,2.26,2.74,0.77,0.69,0.67
123.55,-1.61,-2.25,-1.66,-2.30,2.30,2.20,2.71,0.69,0.64,0.64
124.79,-1.61,-2.19,-1.64,-2.23,2.23,2.15,2.68,0.62,0.59,0.59
126.03,-1.61,-2.15,-1.63,-2.17,2.17,2.09,2.64,0.56,0.54,0.55
127.29,-1.61,-2.11,-1.62,-2.11,2.11,2.04,2.60,0.51,0.50,0.51
128.57,-1.61,-2.06,-1.61,-2.07,2.07,1.98,2.56,0.46,0.45,0.46
129.85,-1.61,-2.02,-1.61,-2.02,2.02,1.93,2.52,0.42,0.41,0.42
131.15,-1.61,-1.99,-1.60,-1.98,1.98,1.88,2.48,0.37,0.37,0.38
132.46,-1.61,-1.94,-1.60,-1.93,1.93,1.83,2.44,0.32,0.33,0.33
133.79,-1.61,-1.90,-1.60,-1.88,1.88,1.78,2.39,0.28,0.29,0.30
135.12,-1.61,-1.85,-1.59,-1.84,1.84,1.73,2.34,0.23,0.25,0.24
136.48,-1.61,-1.81,-1.58,-1.78,1.78,1.68,2.29,0.17,0.20,0.20
137.84,-1.61,-1.77,-1.56,-1.72,1.72,1.63,2.24,0.11,0.16,0.16
139.22,-1.61,-1.70,-1.54,-1.65,1.65,1.59,2.19,0.05,0.11,0.10
140.61,-1.61,-1.65,-1.52,-1.58,1.58,1.54,2.14,-0.02,0.07,0.05
142.02,-1.50,-1.51,-1.49,-1.50,1.50,1.49,2.08,0.00,0.02,0.01
143.44,-1.41,-1.37,-1.46,-1.42,1.42,1.45,2.03,0.01,-0.04,-0.04
144.87,-1.38,-1.29,-1.43,-1.33,1.33,1.40,1.97,-0.04,-0.10,-0.09
146.32,-1.38,-1.23,-1.41,-1.25,1.25,1.36,1.91,-0.12,-0.16,-0.14
147.78,-1.38,-1.18,-1.40,-1.18,1.18,1.31,1.86,-0.20,-0.23,-0.19
149.26,-1.38,-1.11,-1.40,-1.10,1.10,1.27,1.80,-0.28,-0.30,-0.27
150.75,-1.38,-1.02,-1.40,-1.03,1.03,1.22,1.74,-0.35,-0.37,-0.35
152.26,-1.38,-0.95,-1.41,-0.95,0.95,1.18,1.68,-0.42,-0.45,-0.43
153.78,-1.38,-0.86,-1.42,-0.89,0.89,1.13,1.63,-0.49,-0.53,-0.51
155.32,-1.38,-0.76,-1.44,-0.84,0.84,1.09,1.57,-0.54,-0.61,-0.61
156.88,-1.40,-0.70,-1.48,-0.79,0.79,1.04,1.51,-0.61,-0.69,-0.69
158.44,-1.55,-0.77,-1.51,-0.75,0.75,1.00,1.46,-0.80,-0.76,-0.78
160.03,-1.61,-0.75,-1.54,-0.70,0.70,0.95,1.40,-0.91,-0.83,-0.86
161.63,-1.61,-0.68,-1.55,-0.65,0.65,0.91,1.34,-0.96,-0.90,-0.92
163.24,-1.61,-0.62,-1.56,-0.60,0.60,0.86,1.29,-1.00,-0.96,-0.98
164.88,-1.61,-0.58,-1.56,-0.55,0.55,0.81,1.23,-1.05,-1.01,-1.03
166.53,-1.61,-0.53,-1.56,-0.51,0.51,0.77,1.18,-1.09,-1.05,-1.07
168.19,-1.61,-0.50,-1.56,-0.47,0.47,0.72,1.12,-1.13,-1.08,-1.11
169.87,-1.61,-0.47,-1.55,-0.44,0.44,0.67,1.07,-1.17,-1.11,-1.13
171.57,-1.61,-0.46,-1.53,-0.40,0.40,0.62,1.01,-1.20,-1.13,-1.15
173.29,-1.47,-0.32,-1.51,-0.37,0.37,0.57,0.96,-1.10,-1.14,-1.15
175.02,-1.38,-0.24,-1.48,-0.33,0.33,0.52,0.91,-1.05,-1.15,-1.14
176.77,-1.38,-0.23,-1.45,-0.29,0.29,0.48,0.86,-1.08,-1.16,-1.15
178.54,-1.38,-0.23,-1.42,-0.26,0.26,0.43,0.81,-1.11,-1.16,-1.15
180.32,-1.38,-0.23,-1.41,-0.24,0.24,0.38,0.75,-1.14,-1.17,-1.15
182.13,-1.38,-0.23,-1.39,-0.22,0.22,0.33,0.70,-1.16,-1.17,-1.14
183.95,-1.38,-0.22,-1.38,-0.20,0.20,0.28,0.65,-1.18,-1.18,-1.15
185.79,-1.38,-0.21,-1.37,-0.18,0.18,0.23,0.61,-1.20,-1.19,-1.17
187.65,-1.38,-0.18,-1.36,-0.16,0.16,0.18,0.56,-1.22,-1.20,-1.19
189.52,-1.38,-0.16,-1.36,-0.14,0.14,0.13,0.51,-1.23,-1.22,-1.22
191.42,-1.38,-0.13,-1.36,-0.13,0.13,0.09,0.46,-1.25,-1.24,-1.24
193.33,-1.38,-0.11,-1.37,-0.11,0.11,0.04,0.41,-1.26,-1.26,-1.26
195.27,-1.38,-0.10,-1.38,-0.10,0.10,-0.00,0.37,-1.28,-1.28,-1.28
197.22,-1.38,-0.08,-1.38,-0.08,0.08,-0.04,0.32,-1.30,-1.30,-1.30
199.19,-1.38,-0.04,-1.38,-0.05,0.05,-0.08,0.28,-1.32,-1.32,-1.34
201.18,-1.38,-0.03,-1.38,-0.03,0.03,-0.11,0.23,-1.35,-1.35,-1.35
203.19,-1.38,-0.01,-1.38,-0.00,0.00,-0.14,0.19,-1.37,-1.37,-1.37
205.23,-1.38,0.02,-1.38,0.02,-0.02,-0.17,0.15,-1.39,-1.39,-1.40
207.28,-1.38,0.03,-1.38,0.04,-0.04,-0.19,0.11,-1.41,-1.41,-1.41
209.35,-1.38,0.06,-1.38,0.06,-0.06,-0.21,0.06,-1.43,-1.43,-1.43
211.44,-1.38,0.09,-1.38,0.07,-0.07,-0.22,0.02,-1.45,-1.45,-1.46
213.56,-1.38,0.09,-1.38,0.09,-0.09,-0.23,-0.01,-1.47,-1.47,-1.47
215.69,-1.38,0.10,-1.38,0.11,-0.11,-0.23,-0.05,-1.49,-1.49,-1.47
217.85,-1.38,0.12,-1.38,0.13,-0.13,-0.23,-0.09,-1.50,-1.50,-1.50
220.03,-1.38,0.14,-1.38,0.14,-0.14,-0.23,-0.12,-1.52,-1.52,-1.52
222.23,-1.38,0.16,-1.38,0.15,-0.15,-0.22,-0.16,-1.53,-1.53,-1.54
224.45,-1.38,0.17,-1.38,0.17,-0.17,-0.22,-0.19,-1.54,-1.54,-1.54
226.70,-1.38,0.17,-1.38,0.18,-0.18,-0.20,-0.22,-1.55,-1.55,-1.55
228.96,-1.38,0.18,-1.38,0.19,-0.19,-0.19,-0.25,-1.56,-1.56,-1.56
231.25,-1.38,0.19,-1.38,0.19,-0.19,-0.17,-0.27,-1.57,-1.57,-1.56
233.57,-1.38,0.20,-1.38,0.20,-0.20,-0.16,-0.30,-1.57,-1.57,-1.58
235.90,-1.38,0.21,-1.38,0.20,-0.20,-0.14,-0.32,-1.58,-1.58,-1.59
238.26,-1.38,0.21,-1.38,0.21,-0.21,-0.12,-0.34,-1.58,-1.58,-1.59
240.64,-1.38,0.21,-1.38,0.21,-0.21,-0.10,-0.36,-1.58,-1.58,-1.59
243.05,-1.38,0.20,-1.38,0.21,-0.21,-0.09,-0.37,-1.58,-1.58,-1.58
245.48,-1.38,0.20,-1.38,0.20,-0.20,-0.07,-0.39,-1.58,-1.58,-1.58
247.93,-1.38,0.19,-1.38,0.20,-0.20,-0.05,-0.40,-1.58,-1.58,-1.57
250.41,-1.38,0.20,-1.38,0.20,-0.20,-0.03,-0.40,-1.57,-1.57,-1.58
252.92,-1.38,0.19,-1.38,0.19,-0.19,-0.01,-0.41,-1.57,-1.57,-1.57
255.45,-1.38,0.17,-1.38,0.19,-0.19,0.00,-0.41,-1.56,-1.56,-1.55
258.00,-1.38,0.17,-1.38,0.18,-0.18,0.02,-0.41,-1.55,-1.55,-1.55
260.58,-1.38,0.17,-1.38,0.17,-0.17,0.03,-0.41,-1.54,-1.54,-1.54
263.19,-1.38,0.16,-1.38,0.16,-0.16,0.05,-0.41,-1.53,-1.53,-1.53
265.82,-1.38,0.15,-1.38,0.14,-0.14,0.06,-0.40,-1.52,-1.52,-1.53
268.48,-1.38,0.13,-1.38,0.13,-0.13,0.07,-0.40,-1.50,-1.50,-1.51
271.16,-1.38,0.12,-1.38,0.11,-0.11,0.09,-0.39,-1.49,-1.49,-1.49
273.87,-1.38,0.10,-1.38,0.09,-0.09,0.10,-0.37,-1.47,-1.47,-1.48
276.61,-1.38,0.07,-1.38,0.07,-0.07,0.11,-0.36,-1.45,-1.45,-1.45
279.38,-1.38,0.06,-1.38,0.05,-0.05,0.12,-0.35,-1.43,-1.43,-1.43
282.17,-1.38,0.03,-1.37,0.04,-0.04,0.13,-0.33,-1.41,-1.41,-1.41
284.99,-1.38,0.01,-1.36,0.02,-0.02,0.13,-0.31,-1.40,-1.38,-1.39
287.84,-1.38,-0.02,-1.36,-0.00,0.00,0.14,-0.29,-1.37,-1.35,-1.36
290.72,-1.38,-0.05,-1.36,-0.03,0.03,0.15,-0.27,-1.34,-1.33,-1.33
293.63,-1.38,-0.07,-1.37,-0.07,0.07,0.16,-0.25,-1.31,-1.30,-1.30
296.57,-1.38,-0.10,-1.39,-0.11,0.11,0.16,-0.23,-1.27,-1.28,-1.28
299.53,-1.38,-0.12,-1.41,-0.15,0.15,0.17,-0.20,-1.22,-1.25,-1.25
302.53,-1.38,-0.14,-1.43,-0.19,0.19,0.18,-0.18,-1.18,-1.23,-1.24
305.55,-1.38,-0.18,-1.44,-0.23,0.23,0.18,-0.15,-1.15,-1.21,-1.20
308.61,-1.38,-0.19,-1.45,-0.26,0.26,0.19,-0.13,-1.12,-1.20,-1.18
311.69,-1.38,-0.21,-1.46,-0.28,0.28,0.19,-0.10,-1.09,-1.18,-1.17
314.81,-1.52,-0.37,-1.47,-0.30,0.30,0.20,-0.07,-1.21,-1.17,-1.14
317.96,-1.60,-0.45,-1.48,-0.32,0.32,0.20,-0.05,-1.28,-1.16,-1.15
321.14,-1.61,-0.46,-1.48,-0.33,0.33,0.20,-0.02,-1.28,-1.15,-1.15
324.35,-1.61,-0.46,-1.48,-0.34,0.34,0.21,0.01,-1.27,-1.14,-1.14
327.59,-1.57,-0.43,-1.47,-0.34,0.34,0.21,0.04,-1.22,-1.13,-1.14
330.87,-1.43,-0.30,-1.47,-0.35,0.35,0.21,0.07,-1.08,-1.12,-1.13
334.18,-1.38,-0.25,-1.46,-0.35,0.35,0.22,0.10,-1.03,-1.11,-1.12
337.52,-1.38,-0.26,-1.45,-0.35,0.35,0.22,0.13,-1.03,-1.10,-1.12
340.90,-1.38,-0.29,-1.43,-0.35,0.35,0.22,0.16,-1.03,-1.09,-1.09
344.30,-1.38,-0.29,-1.42,-0.34,0.34,0.23,0.18,-1.03,-1.07,-1.08
347.75,-1.38,-0.31,-1.40,-0.34,0.34,0.23,0.21,-1.04,-1.06,-1.07
351.23,-1.38,-0.34,-1.38,-0.34,0.34,0.23,0.24,-1.04,-1.04,-1.04
354.74,-1.38,-0.36,-1.36,-0.35,0.35,0.24,0.27,-1.03,-1.02,-1.02
358.28,-1.38,-0.38,-1.36,-0.36,0.36,0.24,0.30,-1.01,-0.99,-0.99
361.87,-1.38,-0.40,-1.36,-0.39,0.39,0.24,0.34,-0.99,-0.97,-0.98
365.49,-1.38,-0.43,-1.37,-0.42,0.42,0.25,0.37,-0.96,-0.95,-0.95
369.14,-1.38,-0.45,-1.37,-0.45,0.45,0.25,0.40,-0.93,-0.93,-0.93
372.83,-1.38,-0.47,-1.38,-0.47,0.47,0.25,0.43,-0.91,-0.91,-0.90
376.56,-1.38,-0.49,-1.38,-0.49,0.49,0.26,0.46,-0.89,-0.89,-0.88
380.33,-1.38,-0.52,-1.38,-0.51,0.51,0.26,0.49,-0.87,-0.87,-0.86
384.13,-1.38,-0.54,-1.38,-0.53,0.53,0.27,0.52,-0.85,-0.85,-0.84
387.97,-1.38,-0.55,-1.38,-0.54,0.54,0.27,0.55,-0.83,-0.83,-0.83
391.85,-1.38,-0.56,-1.38,-0.55,0.55,0.27,0.58,-0.82,-0.82,-0.82
395.77,-1.38,-0.56,-1.38,-0.57,0.57,0.28,0.61,-0.81,-0.81,-0.81
399.73,-1.38,-0.57,-1.38,-0.58,0.58,0.28,0.64,-0.80,-0.80,-0.80
403.72,-1.38,-0.58,-1.38,-0.58,0.58,0.29,0.67,-0.79,-0.79,-0.80
407.76,-1.38,-0.59,-1.38,-0.59,0.59,0.29,0.70,-0.79,-0.79,-0.79
411.84,-1.38,-0.60,-1.38,-0.59,0.59,0.30,0.73,-0.78,-0.78,-0.78
415.96,-1.38,-0.61,-1.38,-0.60,0.60,0.30,0.76,-0.78,-0.78,-0.77
420.12,-1.38,-0.61,-1.38,-0.60,0.60,0.31,0.79,-0.78,-0.78,-0.77
424.32,-1.38,-0.60,-1.38,-0.60,0.60,0.32,0.82,-0.77,-0.77,-0.77
428.56,-1.38,-0.60,-1.38,-0.60,0.60,0.32,0.85,-0.77,-0.77,-0.77
432.85,-1.38,-0.60,-1.38,-0.61,0.61,0.33,0.88,-0.77,-0.77,-0.77
437.18,-1.38,-0.61,-1.38,-0.61,0.61,0.34,0.90,-0.76,-0.76,-0.77
441.55,-1.38,-0.62,-1.38,-0.62,0.62,0.35,0.93,-0.75,-0.76,-0.76
445.96,-1.38,-0.62,-1.39,-0.64,0.64,0.35,0.95,-0.74,-0.75,-0.76
450.42,-1.38,-0.63,-1.39,-0.65,0.65,0.36,0.98,-0.73,-0.74,-0.75
454.93,-1.38,-0.64,-1.39,-0.66,0.66,0.37,1.00,-0.72,-0.73,-0.74
459.48,-1.38,-0.65,-1.39,-0.67,0.67,0.38,1.02,-0.71,-0.72,-0.73
464.07,-1.38,-0.67,-1.38,-0.67,0.67,0.40,1.04,-0.71,-0.71,-0.71
468.71,-1.38,-0.68,-1.37,-0.67,0.67,0.41,1.05,-0.70,-0.69,-0.69
473.40,-1.38,-0.69,-1.35,-0.68,0.68,0.42,1.07,-0.70,-0.67,-0.68
