frequency,raw,error,smoothed,error_smoothed,equalization,parametric_eq,fixed_band_eq,equalized_raw,equalized_smoothed,target
20.00,-12.92,-15.47,-12.92,-15.49,15.49,14.97,5.44,2.58,2.58,2.55
20.20,-12.79,-15.38,-12.79,-15.40,15.40,15.17,5.57,2.61,2.61,2.59
20.40,-12.66,-15.30,-12.66,-15.30,15.30,15.34,5.71,2.64,2.64,2.64
20.61,-12.54,-15.20,-12.54,-15.20,15.20,15.47,5.85,2.67,2.67,2.66
20.81,-12.40,-15.11,-12.41,-15.10,15.10,15.57,6.00,2.70,2.70,2.71
21.02,-12.29,-15.03,-12.28,-15.00,15.00,15.62,6.15,2.71,2.72,2.74
21.23,-12.16,-14.92,-12.15,-14.90,14.90,15.64,6.30,2.74,2.75,2.77
21.44,-12.02,-14.81,-12.02,-14.79,14.79,15.61,6.46,2.77,2.77,2.79
21.66,-11.90,-14.70,-11.89,-14.68,14.68,15.55,6.62,2.78,2.79,2.80
21.87,-11.76,-14.58,-11.76,-14.57,14.57,15.46,6.79,2.81,2.81,2.82
22.09,-11.62,-14.46,-11.63,-14.46,14.46,15.33,6.96,2.83,2.83,2.84
22.31,-11.49,-14.34,-11.50,-14.34,14.34,15.18,7.14,2.85,2.84,2.85
22.54,-11.37,-14.22,-11.37,-14.22,14.22,15.00,7.32,2.86,2.86,2.85
22.76,-11.23,-14.10,-11.23,-14.10,14.10,14.81,7.51,2.87,2.87,2.86
22.99,-11.11,-13.97,-11.10,-13.98,13.98,14.61,7.70,2.87,2.88,2.86
23.22,-10.97,-13.84,-10.97,-13.85,13.85,14.39,7.89,2.89,2.88,2.87
23.45,-10.83,-13.72,-10.84,-13.73,13.73,14.17,8.10,2.89,2.89,2.89
23.69,-10.71,-13.60,-10.70,-13.60,13.60,13.95,8.30,2.90,2.90,2.89
23.92,-10.56,-13.47,-10.57,-13.48,13.48,13.73,8.51,2.91,2.91,2.91
24.16,-10.43,-13.36,-10.43,-13.35,13.35,13.50,8.73,2.92,2.92,2.93
24.40,-10.30,-13.25,-10.30,-13.23,13.23,13.28,8.95,2.93,2.93,2.94
24.65,-10.17,-13.10,-10.17,-13.11,13.11,13.07,9.18,2.94,2.94,2.94
24.89,-10.03,-12.98,-10.03,-12.98,12.98,12.86,9.41,2.95,2.95,2.95
25.14,-9.89,-12.85,-9.90,-12.86,12.86,12.66,9.65,2.96,2.96,2.96
25.39,-9.76,-12.73,-9.76,-12.73,12.73,12.47,9.89,2.97,2.97,2.97
25.65,-9.63,-12.61,-9.63,-12.61,12.61,12.28,10.14,2.98,2.98,2.98
25.91,-9.50,-12.48,-9.49,-12.48,12.48,12.10,10.39,2.98,2.99,2.98
26.16,-9.35,-12.35,-9.36,-12.36,12.36,11.93,10.64,3.00,3.00,3.00
26.43,-9.23,-12.23,-9.22,-12.23,12.23,11.77,10.90,3.00,3.01,3.00
26.69,-9.09,-12.10,-9.09,-12.10,12.10,11.62,11.16,3.02,3.02,3.01
26.96,-8.95,-11.98,-8.95,-11.98,11.98,11.47,11.42,3.03,3.03,3.03
27.23,-8.82,-11.86,-8.81,-11.85,11.85,11.33,11.68,3.03,3.03,3.04
27.50,-8.68,-11.72,-8.68,-11.72,11.72,11.20,11.93,3.05,3.04,3.04
27.77,-8.54,-11.59,-8.54,-11.60,11.60,11.08,12.18,3.05,3.05,3.05
28.05,-8.40,-11.47,-8.41,-11.47,11.47,10.97,12.43,3.06,3.06,3.06
28.33,-8.27,-11.34,-8.27,-11.34,11.34,10.86,12.67,3.07,3.07,3.07
28.62,-8.14,-11.21,-8.14,-11.22,11.22,10.75,12.90,3.08,3.08,3.07
28.90,-8.00,-11.09,-8.00,-11.09,11.09,10.66,13.11,3.08,3.09,3.08
29.19,-7.87,-10.95,-7.87,-10.96,10.96,10.57,13.31,3.10,3.09,3.09
29.48,-7.73,-10.85,-7.74,-10.83,10.83,10.48,13.48,3.10,3.10,3.11
29.78,-7.60,-10.70,-7.60,-10.71,10.71,10.40,13.63,3.11,3.11,3.11
30.08,-7.47,-10.58,-7.47,-10.58,10.58,10.32,13.76,3.11,3.11,3.11
30.38,-7.34,-10.45,-7.34,-10.45,10.45,10.24,13.85,3.12,3.12,3.11
30.68,-7.21,-10.34,-7.20,-10.33,10.33,10.16,13.92,3.12,3.13,3.13
30.99,-7.08,-10.21,-7.07,-10.20,10.20,10.09,13.95,3.13,3.13,3.13
31.30,-6.94,-10.07,-6.94,-10.08,10.08,10.01,13.94,3.14,3.14,3.13
31.61,-6.81,-9.95,-6.81,-9.95,9.95,9.94,13.90,3.15,3.15,3.14
31.93,-6.68,-9.83,-6.67,-9.83,9.83,9.86,13.83,3.15,3.16,3.15
32.24,-6.54,-9.70,-6.54,-9.71,9.71,9.78,13.72,3.16,3.16,3.16
32.57,-6.42,-9.59,-6.41,-9.58,9.58,9.69,13.59,3.17,3.17,3.17
32.89,-6.27,-9.45,-6.28,-9.46,9.46,9.61,13.43,3.18,3.18,3.18
33.22,-6.14,-9.33,-6.15,-9.34,9.34,9.51,13.24,3.19,3.19,3.19
33.55,-6.02,-9.22,-6.02,-9.22,9.22,9.42,13.03,3.19,3.19,3.20
33.89,-5.90,-9.10,-5.90,-9.10,9.10,9.31,12.81,3.20,3.20,3.20
34.23,-5.77,-8.97,-5.77,-8.98,8.98,9.20,12.57,3.21,3.20,3.20
34.57,-5.65,-8.86,-5.65,-8.86,8.86,9.09,12.32,3.21,3.21,3.21
34.92,-5.52,-8.73,-5.52,-8.74,8.74,8.97,12.07,3.22,3.22,3.21
35.27,-5.40,-8.62,-5.40,-8.62,8.62,8.84,11.80,3.22,3.22,3.22
35.62,-5.28,-8.50,-5.28,-8.50,8.50,8.71,11.54,3.23,3.23,3.22
35.97,-5.15,-8.38,-5.15,-8.38,8.38,8.57,11.27,3.23,3.23,3.23
36.33,-5.03,-8.27,-5.03,-8.26,8.26,8.42,11.00,3.23,3.23,3.23
36.70,-4.92,-8.14,-4.91,-8.14,8.14,8.27,10.73,3.23,3.23,3.23
37.06,-4.79,-8.03,-4.79,-8.02,8.02,8.12,10.46,3.23,3.23,3.23
37.43,-4.67,-7.91,-4.67,-7.90,7.90,7.96,10.19,3.22,3.23,3.23
37.81,-4.55,-7.78,-4.55,-7.78,7.78,7.80,9.93,3.23,3.23,3.23
38.19,-4.43,-7.66,-4.42,-7.65,7.65,7.63,9.67,3.23,3.23,3.23
38.57,-4.31,-7.53,-4.30,-7.53,7.53,7.47,9.42,3.22,3.23,3.22
38.95,-4.17,-7.40,-4.18,-7.40,7.40,7.30,9.17,3.23,3.22,3.22
39.34,-4.05,-7.27,-4.06,-7.28,7.28,7.13,8.93,3.23,3.22,3.21
39.74,-3.94,-7.15,-3.94,-7.16,7.16,6.96,8.69,3.22,3.22,3.21
40.14,-3.82,-7.03,-3.82,-7.03,7.03,6.79,8.45,3.22,3.22,3.21
40.54,-3.70,-6.91,-3.70,-6.91,6.91,6.62,8.22,3.22,3.21,3.21
40.94,-3.58,-6.79,-3.58,-6.79,6.79,6.45,7.99,3.21,3.21,3.20
41.35,-3.47,-6.67,-3.46,-6.67,6.67,6.28,7.77,3.20,3.21,3.20
41.76,-3.34,-6.55,-3.34,-6.55,6.55,6.12,7.56,3.20,3.21,3.20
42.18,-3.22,-6.43,-3.23,-6.43,6.43,5.95,7.35,3.20,3.20,3.20
42.60,-3.11,-6.32,-3.11,-6.31,6.31,5.79,7.14,3.20,3.20,3.20
43.03,-3.00,-6.20,-3.00,-6.20,6.20,5.63,6.94,3.20,3.20,3.20
43.46,-2.89,-6.09,-2.89,-6.09,6.09,5.48,6.74,3.20,3.19,3.20
43.90,-2.79,-5.97,-2.78,-5.98,5.98,5.33,6.55,3.19,3.19,3.19
44.33,-2.67,-5.86,-2.68,-5.87,5.87,5.18,6.36,3.19,3.19,3.18
44.78,-2.57,-5.74,-2.57,-5.76,5.76,5.03,6.18,3.19,3.19,3.18
45.23,-2.47,-5.64,-2.47,-5.65,5.65,4.88,6.00,3.18,3.18,3.17
45.68,-2.36,-5.53,-2.36,-5.54,5.54,4.74,5.83,3.19,3.18,3.17
46.13,-2.25,-5.42,-2.26,-5.44,5.44,4.61,5.65,3.18,3.17,3.17
46.60,-2.18,-5.35,-2.16,-5.33,5.33,4.47,5.49,3.16,3.17,3.17
47.06,-2.09,-5.25,-2.07,-5.23,5.23,4.34,5.32,3.14,3.16,3.16
47.53,-1.98,-5.13,-1.97,-5.12,5.12,4.22,5.16,3.15,3.15,3.16
48.01,-1.88,-5.04,-1.87,-5.02,5.02,4.09,5.00,3.14,3.15,3.16
48.49,-1.78,-4.92,-1.78,-4.92,4.92,3.97,4.85,3.14,3.14,3.15
48.97,-1.69,-4.81,-1.69,-4.81,4.81,3.85,4.70,3.13,3.13,3.12
49.46,-1.60,-4.71,-1.60,-4.71,4.71,3.74,4.55,3.12,3.12,3.11
49.96,-1.51,-4.60,-1.51,-4.61,4.61,3.63,4.41,3.11,3.10,3.10
50.46,-1.42,-4.51,-1.42,-4.51,4.51,3.52,4.27,3.10,3.09,3.09
50.96,-1.34,-4.41,-1.34,-4.41,4.41,3.42,4.13,3.08,3.07,3.07
51.47,-1.25,-4.29,-1.26,-4.31,4.31,3.31,4.00,3.07,3.06,3.04
51.99,-1.17,-4.20,-1.17,-4.21,4.21,3.21,3.86,3.05,3.04,3.04
52.51,-1.10,-4.12,-1.10,-4.12,4.12,3.12,3.74,3.02,3.02,3.03
53.03,-1.03,-4.03,-1.02,-4.03,4.03,3.02,3.61,3.00,3.00,3.00
53.56,-0.96,-3.95,-0.95,-3.93,3.93,2.93,3.49,2.98,2.98,2.99
54.10,-0.89,-3.85,-0.87,-3.84,3.84,2.84,3.37,2.96,2.97,2.97
54.64,-0.81,-3.76,-0.80,-3.75,3.75,2.76,3.25,2.95,2.95,2.96
55.18,-0.73,-3.66,-0.73,-3.66,3.66,2.67,3.13,2.93,2.93,2.92
55.74,-0.66,-3.55,-0.67,-3.58,3.58,2.59,3.02,2.92,2.91,2.90
56.29,-0.60,-3.49,-0.60,-3.49,3.49,2.51,2.91,2.89,2.89,2.89
56.86,-0.54,-3.40,-0.53,-3.40,3.40,2.43,2.81,2.86,2.87,2.87
57.42,-0.47,-3.30,-0.47,-3.31,3.31,2.35,2.71,2.85,2.85,2.83
58.00,-0.41,-3.22,-0.40,-3.22,3.22,2.28,2.61,2.82,2.82,2.82
58.58,-0.35,-3.14,-0.34,-3.13,3.13,2.21,2.51,2.79,2.80,2.80
59.16,-0.28,-3.05,-0.28,-3.05,3.05,2.14,2.41,2.77,2.77,2.77
59.76,-0.22,-2.97,-0.22,-2.96,2.96,2.07,2.32,2.74,2.74,2.76
60.35,-0.16,-2.88,-0.16,-2.87,2.87,2.00,2.23,2.71,2.71,2.72
60.96,-0.09,-2.78,-0.10,-2.78,2.78,1.94,2.15,2.69,2.68,2.70
61.57,-0.04,-2.68,-0.04,-2.69,2.69,1.88,2.06,2.65,2.65,2.65
62.18,0.01,-2.59,0.02,-2.60,2.60,1.81,1.98,2.61,2.61,2.60
62.80,0.06,-2.52,0.08,-2.50,2.50,1.75,1.90,2.57,2.58,2.58
63.43,0.12,-2.41,0.13,-2.41,2.41,1.69,1.83,2.54,2.54,2.53
64.07,0.18,-2.31,0.19,-2.32,2.32,1.64,1.76,2.50,2.51,2.50
64.71,0.23,-2.23,0.24,-2.23,2.23,1.58,1.69,2.46,2.47,2.47
65.35,0.29,-2.13,0.29,-2.13,2.13,1.52,1.62,2.43,2.43,2.42
66.01,0.35,-2.03,0.35,-2.04,2.04,1.47,1.55,2.40,2.39,2.39
66.67,0.40,-1.95,0.40,-1.95,1.95,1.42,1.49,2.35,2.35,2.36
67.33,0.45,-1.86,0.45,-1.86,1.86,1.37,1.43,2.31,2.31,2.31
68.01,0.50,-1.77,0.50,-1.77,1.77,1.31,1.37,2.27,2.27,2.28
68.69,0.55,-1.68,0.55,-1.68,1.68,1.26,1.31,2.23,2.23,2.24
69.37,0.59,-1.60,0.60,-1.59,1.59,1.22,1.26,2.19,2.19,2.19
70.07,0.64,-1.51,0.65,-1.50,1.50,1.17,1.20,2.15,2.16,2.16
70.77,0.69,-1.42,0.70,-1.42,1.42,1.12,1.15,2.12,2.12,2.12
71.48,0.74,-1.34,0.74,-1.34,1.34,1.07,1.10,2.08,2.08,2.09
72.19,0.79,-1.24,0.78,-1.26,1.26,1.03,1.05,2.05,2.04,2.03
72.91,0.83,-1.17,0.83,-1.18,1.18,0.99,1.00,2.01,2.00,2.00
73.64,0.87,-1.09,0.87,-1.10,1.10,0.94,0.95,1.97,1.97,1.96
74.38,0.91,-1.02,0.91,-1.02,1.02,0.90,0.90,1.94,1.93,1.94
75.12,0.95,-0.94,0.95,-0.95,0.95,0.86,0.86,1.90,1.90,1.89
75.87,0.98,-0.88,0.99,-0.87,0.87,0.81,0.81,1.86,1.87,1.86
76.63,1.02,-0.81,1.03,-0.80,0.80,0.77,0.77,1.83,1.84,1.83
77.40,1.06,-0.74,1.08,-0.73,0.73,0.73,0.72,1.79,1.81,1.81
78.17,1.10,-0.67,1.12,-0.66,0.66,0.69,0.68,1.77,1.78,1.77
78.95,1.15,-0.59,1.16,-0.59,0.59,0.65,0.63,1.75,1.75,1.74
79.74,1.19,-0.53,1.19,-0.53,0.53,0.62,0.59,1.72,1.72,1.72
80.54,1.23,-0.47,1.23,-0.47,0.47,0.58,0.55,1.70,1.70,1.70
81.35,1.26,-0.41,1.27,-0.41,0.41,0.54,0.50,1.67,1.67,1.68
82.16,1.30,-0.34,1.30,-0.35,0.35,0.50,0.46,1.66,1.65,1.64
82.98,1.35,-0.28,1.33,-0.29,0.29,0.46,0.42,1.65,1.63,1.63
83.81,1.38,-0.22,1.37,-0.24,0.24,0.43,0.37,1.62,1.61,1.60
84.65,1.41,-0.16,1.40,-0.18,0.18,0.39,0.33,1.60,1.58,1.57
85.50,1.43,-0.13,1.43,-0.13,0.13,0.36,0.29,1.57,1.56,1.57
86.35,1.45,-0.09,1.46,-0.08,0.08,0.32,0.24,1.54,1.54,1.54
87.22,1.47,-0.05,1.49,-0.04,0.04,0.28,0.20,1.51,1.53,1.53
88.09,1.49,-0.01,1.52,0.01,-0.01,0.25,0.15,1.48,1.51,1.51
88.97,1.53,0.05,1.54,0.06,-0.06,0.22,0.11,1.48,1.49,1.49
89.86,1.56,0.09,1.57,0.11,-0.11,0.18,0.06,1.46,1.47,1.47
90.76,1.60,0.16,1.60,0.15,-0.15,0.15,0.02,1.45,1.45,1.45
91.66,1.64,0.22,1.63,0.20,-0.20,0.11,-0.03,1.44,1.43,1.42
92.58,1.67,0.27,1.67,0.26,-0.26,0.08,-0.07,1.42,1.41,1.40
93.51,1.69,0.30,1.70,0.31,-0.31,0.04,-0.12,1.38,1.39,1.40
94.44,1.71,0.34,1.73,0.36,-0.36,0.01,-0.16,1.35,1.37,1.37
95.39,1.74,0.39,1.77,0.42,-0.42,-0.02,-0.21,1.32,1.35,1.36
96.34,1.77,0.45,1.80,0.47,-0.47,-0.06,-0.26,1.30,1.32,1.32
97.30,1.81,0.52,1.82,0.53,-0.53,-0.09,-0.31,1.29,1.30,1.29
98.28,1.84,0.58,1.84,0.57,-0.57,-0.12,-0.35,1.27,1.27,1.27
99.26,1.88,0.64,1.86,0.61,-0.61,-0.15,-0.40,1.27,1.24,1.24
100.25,1.89,0.68,1.87,0.65,-0.65,-0.19,-0.45,1.24,1.22,1.21
101.25,1.90,0.72,1.87,0.69,-0.69,-0.22,-0.50,1.22,1.19,1.18
102.27,1.89,0.75,1.87,0.72,-0.72,-0.25,-0.54,1.18,1.15,1.15
103.29,1.88,0.77,1.86,0.74,-0.74,-0.29,-0.59,1.14,1.12,1.11
104.32,1.87,0.79,1.84,0.77,-0.77,-0.32,-0.64,1.11,1.08,1.08
105.37,1.83,0.79,1.82,0.79,-0.79,-0.35,-0.69,1.05,1.04,1.05
106.42,1.79,0.80,1.80,0.80,-0.80,-0.38,-0.73,0.99,1.00,1.00
107.48,1.76,0.80,1.77,0.82,-0.82,-0.42,-0.78,0.94,0.95,0.96
108.56,1.72,0.82,1.74,0.84,-0.84,-0.45,-0.83,0.89,0.90,0.91
109.64,1.68,0.83,1.71,0.85,-0.85,-0.48,-0.87,0.83,0.85,0.85
110.74,1.65,0.85,1.68,0.88,-0.88,-0.51,-0.92,0.78,0.80,0.80
111.85,1.61,0.86,1.65,0.90,-0.90,-0.55,-0.96,0.71,0.74,0.76
112.97,1.59,0.91,1.62,0.93,-0.93,-0.58,-1.00,0.67,0.69,0.69
114.10,1.57,0.94,1.59,0.96,-0.96,-0.61,-1.04,0.62,0.63,0.64
115.24,1.55,0.98,1.56,0.99,-0.99,-0.65,-1.08,0.57,0.57,0.58
116.39,1.54,1.04,1.53,1.02,-1.02,-0.68,-1.12,0.52,0.51,0.51
117.55,1.52,1.08,1.51,1.05,-1.05,-0.71,-1.15,0.47,0.45,0.44
118.73,1.50,1.12,1.48,1.09,-1.09,-0.75,-1.19,0.42,0.40,0.39
119.92,1.47,1.14,1.46,1.12,-1.12,-0.78,-1.22,0.35,0.34,0.34
121.12,1.44,1.17,1.43,1.15,-1.15,-0.81,-1.25,0.29,0.28,0.28
122.33,1.42,1.20,1.41,1.18,-1.18,-0.85,-1.28,0.24,0.23,0.23
123.55,1.39,1.22,1.38,1.21,-1.21,-0.88,-1.31,0.18,0.17,0.17
124.79,1.35,1.23,1.36,1.24,-1.24,-0.91,-1.33,0.12,0.12,0.13
126.03,1.31,1.24,1.34,1.26,-1.26,-0.95,-1.36,0.05,0.07,0.07
127.29,1.29,1.27,1.31,1.29,-1.29,-0.98,-1.38,0.00,0.02,0.02
128.57,1.27,1.31,1.29,1.32,-1.32,-1.01,-1.40,-0.04,-0.03,-0.03
129.85,1.24,1.32,1.27,1.34,-1.34,-1.05,-1.42,-0.10,-0.07,-0.08
131.15,1.23,1.36,1.25,1.37,-1.37,-1.08,-1.43,-0.13,-0.12,-0.13
132.46,1.22,1.39,1.23,1.39,-1.39,-1.12,-1.45,-0.17,-0.16,-0.17
133.79,1.21,1.42,1.21,1.42,-1.42,-1.15,-1.46,-0.20,-0.21,-0.20
135.12,1.20,1.45,1.19,1.44,-1.44,-1.18,-1.47,-0.23,-0.25,-0.25
136.48,1.19,1.48,1.17,1.46,-1.46,-1.22,-1.48,-0.27,-0.29,-0.28
137.84,1.17,1.50,1.15,1.48,-1.48,-1.25,-1.49,-0.31,-0.33,-0.33
139.22,1.15,1.53,1.13,1.50,-1.50,-1.29,-1.50,-0.35,-0.37,-0.37
140.61,1.12,1.54,1.11,1.52,-1.52,-1.32,-1.50,-0.39,-0.40,-0.42
142.02,1.08,1.52,1.09,1.53,-1.53,-1.35,-1.51,-0.44,-0.44,-0.43
143.44,1.05,1.53,1.06,1.54,-1.54,-1.39,-1.51,-0.49,-0.48,-0.47
144.87,1.02,1.54,1.04,1.55,-1.55,-1.42,-1.52,-0.53,-0.51,-0.52
146.32,1.00,1.56,1.01,1.56,-1.56,-1.46,-1.53,-0.55,-0.55,-0.56
147.78,0.97,1.56,0.98,1.57,-1.57,-1.49,-1.53,-0.60,-0.59,-0.59
149.26,0.95,1.57,0.95,1.58,-1.58,-1.52,-1.54,-0.63,-0.63,-0.62
150.75,0.91,1.59,0.92,1.59,-1.59,-1.56,-1.54,-0.68,-0.67,-0.68
152.26,0.88,1.60,0.89,1.61,-1.61,-1.59,-1.55,-0.72,-0.71,-0.72
153.78,0.85,1.60,0.87,1.62,-1.62,-1.62,-1.56,-0.77,-0.75,-0.75
155.32,0.82,1.63,0.84,1.63,-1.63,-1.66,-1.57,-0.81,-0.80,-0.81
156.88,0.79,1.63,0.81,1.65,-1.65,-1.69,-1.57,-0.85,-0.84,-0.83
158.44,0.78,1.67,0.78,1.66,-1.66,-1.72,-1.58,-0.88,-0.88,-0.89
160.03,0.75,1.69,0.74,1.67,-1.67,-1.75,-1.60,-0.92,-0.93,-0.93
161.63,0.73,1.72,0.71,1.68,-1.68,-1.79,-1.61,-0.95,-0.97,-0.98
163.24,0.70,1.73,0.67,1.69,-1.69,-1.82,-1.62,-0.99,-1.02,-1.03
164.88,0.64,1.71,0.64,1.70,-1.70,-1.85,-1.64,-1.06,-1.07,-1.06
166.53,0.60,1.72,0.60,1.72,-1.72,-1.88,-1.65,-1.11,-1.12,-1.11
168.19,0.56,1.73,0.57,1.73,-1.73,-1.91,-1.67,-1.17,-1.16,-1.17
169.87,0.50,1.72,0.53,1.74,-1.74,-1.94,-1.69,-1.24,-1.21,-1.22
171.57,0.46,1.72,0.49,1.76,-1.76,-1.97,-1.71,-1.29,-1.27,-1.26
173.29,0.42,1.74,0.45,1.77,-1.77,-1.99,-1.73,-1.35,-1.32,-1.31
175.02,0.39,1.76,0.41,1.79,-1.79,-2.02,-1.75,-1.39,-1.37,-1.37
176.77,0.37,1.80,0.38,1.80,-1.80,-2.05,-1.78,-1.42,-1.42,-1.43
178.54,0.35,1.83,0.34,1.82,-1.82,-2.07,-1.80,-1.46,-1.48,-1.47
180.32,0.33,1.87,0.30,1.84,-1.84,-2.10,-1.83,-1.50,-1.53,-1.54
182.13,0.30,1.89,0.27,1.86,-1.86,-2.12,-1.86,-1.55,-1.59,-1.58
183.95,0.23,1.88,0.24,1.88,-1.88,-2.15,-1.89,-1.65,-1.64,-1.64
185.79,0.19,1.89,0.20,1.91,-1.91,-2.17,-1.92,-1.71,-1.70,-1.69
187.65,0.16,1.93,0.17,1.93,-1.93,-2.19,-1.95,-1.76,-1.76,-1.76
189.52,0.13,1.95,0.14,1.95,-1.95,-2.21,-1.99,-1.82,-1.81,-1.82
191.42,0.10,1.97,0.11,1.97,-1.97,-2.23,-2.03,-1.87,-1.86,-1.86
193.33,0.07,1.99,0.07,1.99,-1.99,-2.25,-2.06,-1.92,-1.92,-1.92
195.27,0.05,2.02,0.04,2.01,-2.01,-2.26,-2.10,-1.96,-1.97,-1.96
197.22,0.02,2.05,0.01,2.03,-2.03,-2.28,-2.14,-2.01,-2.02,-2.02
199.19,-0.01,2.07,-0.01,2.06,-2.06,-2.29,-2.18,-2.07,-2.07,-2.08
201.18,-0.04,2.09,-0.03,2.09,-2.09,-2.31,-2.22,-2.12,-2.12,-2.13
203.19,-0.06,2.10,-0.04,2.12,-2.12,-2.32,-2.26,-2.18,-2.16,-2.16
205.23,-0.08,2.14,-0.05,2.16,-2.16,-2.33,-2.30,-2.24,-2.21,-2.21
207.28,-0.10,2.14,-0.06,2.20,-2.20,-2.34,-2.34,-2.29,-2.25,-2.24
209.35,-0.10,2.20,-0.06,2.23,-2.23,-2.35,-2.38,-2.33,-2.30,-2.30
211.44,-0.09,2.26,-0.07,2.27,-2.27,-2.36,-2.42,-2.36,-2.34,-2.35
213.56,-0.08,2.31,-0.07,2.31,-2.31,-2.36,-2.46,-2.38,-2.38,-2.38
215.69,-0.06,2.35,-0.07,2.34,-2.34,-2.37,-2.50,-2.39,-2.41,-2.41
217.85,-0.06,2.39,-0.08,2.37,-2.37,-2.37,-2.54,-2.42,-2.45,-2.45
220.03,-0.06,2.43,-0.08,2.40,-2.40,-2.37,-2.58,-2.45,-2.48,-2.49
222.23,-0.07,2.45,-0.09,2.42,-2.42,-2.37,-2.61,-2.48,-2.51,-2.52
224.45,-0.08,2.46,-0.10,2.43,-2.43,-2.37,-2.64,-2.51,-2.54,-2.54
226.70,-0.11,2.46,-0.12,2.44,-2.44,-2.37,-2.67,-2.55,-2.56,-2.56
228.96,-0.14,2.46,-0.14,2.44,-2.44,-2.36,-2.70,-2.58,-2.59,-2.60
231.25,-0.16,2.45,-0.17,2.44,-2.44,-2.36,-2.72,-2.60,-2.61,-2.61
233.57,-0.19,2.44,-0.20,2.43,-2.43,-2.35,-2.74,-2.61,-2.62,-2.62
235.90,-0.24,2.40,-0.23,2.41,-2.41,-2.34,-2.75,-2.64,-2.63,-2.64
238.26,-0.26,2.39,-0.26,2.39,-2.39,-2.33,-2.77,-2.64,-2.65,-2.65
240.64,-0.30,2.36,-0.29,2.36,-2.36,-2.32,-2.77,-2.66,-2.65,-2.66
243.05,-0.33,2.33,-0.32,2.34,-2.34,-2.31,-2.78,-2.67,-2.66,-2.66
245.48,-0.36,2.31,-0.34,2.32,-2.32,-2.30,-2.77,-2.67,-2.66,-2.67
247.93,-0.39,2.28,-0.36,2.30,-2.30,-2.28,-2.77,-2.68,-2.66,-2.67
250.41,-0.41,2.26,-0.38,2.28,-2.28,-2.27,-2.76,-2.68,-2.66,-2.67
252.92,-0.42,2.24,-0.39,2.26,-2.26,-2.25,-2.74,-2.68,-2.65,-2.66
255.45,-0.43,2.22,-0.40,2.24,-2.24,-2.23,-2.72,-2.67,-2.65,-2.65
258.00,-0.42,2.22,-0.41,2.23,-2.23,-2.21,-2.69,-2.64,-2.64,-2.64
260.58,-0.41,2.23,-0.41,2.22,-2.22,-2.19,-2.66,-2.62,-2.63,-2.64
263.19,-0.41,2.22,-0.41,2.21,-2.21,-2.17,-2.62,-2.61,-2.62,-2.63
265.82,-0.40,2.22,-0.41,2.20,-2.20,-2.15,-2.58,-2.60,-2.61,-2.62
268.48,-0.40,2.20,-0.40,2.19,-2.19,-2.13,-2.54,-2.59,-2.60,-2.60
271.16,-0.40,2.18,-0.40,2.19,-2.19,-2.11,-2.49,-2.58,-2.58,-2.58
273.87,-0.40,2.18,-0.39,2.18,-2.18,-2.08,-2.44,-2.57,-2.57,-2.57
276.61,-0.40,2.15,-0.39,2.17,-2.17,-2.06,-2.38,-2.57,-2.56,-2.55
279.38,-0.40,2.15,-0.38,2.16,-2.16,-2.03,-2.32,-2.56,-2.54,-2.55
282.17,-0.39,2.14,-0.38,2.15,-2.15,-2.00,-2.26,-2.53,-2.53,-2.53
284.99,-0.38,2.14,-0.38,2.13,-2.13,-1.98,-2.20,-2.51,-2.52,-2.52
287.84,-0.38,2.13,-0.39,2.11,-2.11,-1.95,-2.13,-2.49,-2.50,-2.51
290.72,-0.39,2.11,-0.40,2.09,-2.09,-1.92,-2.06,-2.48,-2.49,-2.50
293.63,-0.40,2.08,-0.41,2.07,-2.07,-1.89,-1.99,-2.46,-2.47,-2.48
296.57,-0.43,2.03,-0.42,2.04,-2.04,-1.86,-1.92,-2.46,-2.46,-2.46
299.53,-0.45,2.01,-0.44,2.01,-2.01,-1.83,-1.84,-2.45,-2.45,-2.46
302.53,-0.47,1.98,-0.47,1.97,-1.97,-1.80,-1.77,-2.44,-2.44,-2.45
305.55,-0.49,1.94,-0.50,1.93,-1.93,-1.77,-1.69,-2.41,-2.43,-2.43
308.61,-0.52,1.90,-0.53,1.89,-1.89,-1.74,-1.62,-2.40,-2.41,-2.42
311.69,-0.56,1.85,-0.57,1.84,-1.84,-1.71,-1.54,-2.39,-2.40,-2.40
314.81,-0.61,1.77,-0.61,1.79,-1.79,-1.67,-1.46,-2.39,-2.39,-2.38
317.96,-0.65,1.74,-0.65,1.74,-1.74,-1.64,-1.39,-2.38,-2.39,-2.39
321.14,-0.70,1.68,-0.69,1.69,-1.69,-1.61,-1.31,-2.38,-2.38,-2.38
324.35,-0.75,1.63,-0.74,1.63,-1.63,-1.57,-1.23,-2.38,-2.37,-2.38
327.59,-0.80,1.57,-0.78,1.58,-1.58,-1.54,-1.15,-2.38,-2.37,-2.37
330.87,-0.85,1.52,-0.83,1.53,-1.53,-1.50,-1.08,-2.37,-2.36,-2.37
334.18,-0.90,1.47,-0.89,1.47,-1.47,-1.47,-1.00,-2.37,-2.36,-2.37
337.52,-0.95,1.41,-0.94,1.42,-1.42,-1.43,-0.92,-2.36,-2.36,-2.36
340.90,-0.99,1.37,-0.99,1.36,-1.36,-1.39,-0.85,-2.35,-2.36,-2.36
344.30,-1.04,1.32,-1.05,1.31,-1.31,-1.36,-0.77,-2.34,-2.36,-2.36
347.75,-1.08,1.28,-1.10,1.26,-1.26,-1.32,-0.70,-2.33,-2.36,-2.36
351.23,-1.15,1.21,-1.16,1.20,-1.20,-1.28,-0.62,-2.35,-2.36,-2.36
354.74,-1.21,1.15,-1.21,1.15,-1.15,-1.24,-0.55,-2.36,-2.36,-2.36
358.28,-1.28,1.10,-1.27,1.10,-1.10,-1.20,-0.47,-2.37,-2.37,-2.38
361.87,-1.34,1.04,-1.32,1.05,-1.05,-1.16,-0.40,-2.39,-2.37,-2.38
365.49,-1.40,0.98,-1.38,1.00,-1.00,-1.12,-0.32,-2.40,-2.38,-2.38
369.14,-1.44,0.95,-1.43,0.96,-0.96,-1.08,-0.25,-2.39,-2.38,-2.39
372.83,-1.49,0.90,-1.48,0.91,-0.91,-1.03,-0.18,-2.39,-2.39,-2.39
376.56,-1.54,0.86,-1.53,0.86,-0.86,-0.99,-0.11,-2.40,-2.40,-2.40
380.33,-1.60,0.81,-1.58,0.82,-0.82,-0.94,-0.03,-2.42,-2.40,-2.41
384.13,-1.65,0.77,-1.63,0.78,-0.78,-0.90,0.04,-2.43,-2.41,-2.42
387.97,-1.69,0.74,-1.68,0.74,-0.74,-0.85,0.11,-2.43,-2.42,-2.43
391.85,-1.72,0.72,-1.72,0.70,-0.70,-0.80,0.18,-2.42,-2.43,-2.44
395.77,-1.76,0.67,-1.77,0.67,-0.67,-0.75,0.25,-2.42,-2.43,-2.43
399.73,-1.81,0.63,-1.81,0.63,-0.63,-0.69,0.31,-2.43,-2.44,-2.44
403.72,-1.87,0.58,-1.86,0.59,-0.59,-0.64,0.38,-2.45,-2.45,-2.45
407.76,-1.92,0.54,-1.91,0.54,-0.54,-0.58,0.45,-2.46,-2.45,-2.46
411.84,-1.96,0.49,-1.96,0.50,-0.50,-0.52,0.51,-2.45,-2.46,-2.45
415.96,-2.01,0.46,-2.01,0.45,-0.45,-0.46,0.57,-2.45,-2.46,-2.47
420.12,-2.07,0.40,-2.07,0.39,-0.39,-0.39,0.64,-2.46,-2.46,-2.47
424.32,-2.14,0.33,-2.13,0.33,-0.33,-0.33,0.69,-2.47,-2.47,-2.47
428.56,-2.20,0.28,-2.20,0.27,-0.27,-0.26,0.75,-2.46,-2.47,-2.48
432.85,-2.27,0.21,-2.27,0.20,-0.20,-0.18,0.81,-2.46,-2.47,-2.48
437.18,-2.35,0.13,-2.35,0.12,-0.12,-0.10,0.86,-2.47,-2.47,-2.48
441.55,-2.43,0.04,-2.43,0.04,-0.04,-0.02,0.91,-2.47,-2.47,-2.47
445.96,-2.50,-0.03,-2.52,-0.05,0.05,0.06,0.96,-2.45,-2.47,-2.47
450.42,-2.60,-0.12,-2.61,-0.14,0.14,0.15,1.00,-2.45,-2.47,-2.48
454.93,-2.70,-0.23,-2.71,-0.24,0.24,0.25,1.05,-2.46,-2.47,-2.47
459.48,-2.81,-0.34,-2.81,-0.34,0.34,0.34,1.08,-2.46,-2.46,-2.47
464.07,-2.91,-0.45,-2.91,-0.45,0.45,0.45,1.12,-2.46,-2.46,-2.46
468.71,-3.00,-0.55,-3.01,-0.56,0.56,0.55,1.15,-2.44,-2.45,-2.45
473.40,-3.13,-0.67,-3.12,-0.67,0.67,0.66,1.17,-2.45,-2.45,-2.46
