frequency,raw,error,smoothed,error_smoothed,equalization,parametric_eq,fixed_band_eq,equalized_raw,equalized_smoothed,target
20.00,-1.03,-4.36,-1.03,-4.38,4.38,3.22,1.80,3.36,3.36,3.34
20.20,-0.99,-4.36,-0.99,-4.38,4.38,3.27,1.86,3.39,3.39,3.38
20.40,-0.95,-4.36,-0.95,-4.37,4.37,3.31,1.91,3.42,3.42,3.42
20.61,-0.91,-4.35,-0.91,-4.36,4.36,3.36,1.97,3.45,3.45,3.44
20.81,-0.88,-4.36,-0.87,-4.35,4.35,3.40,2.02,3.47,3.48,3.49
21.02,-0.84,-4.36,-0.84,-4.34,4.34,3.44,2.08,3.50,3.50,3.53
21.23,-0.80,-4.34,-0.80,-4.33,4.33,3.48,2.14,3.53,3.53,3.55
21.44,-0.76,-4.32,-0.76,-4.31,4.31,3.53,2.21,3.55,3.55,3.57
21.66,-0.73,-4.31,-0.73,-4.30,4.30,3.57,2.27,3.57,3.57,3.59
21.87,-0.69,-4.28,-0.69,-4.28,4.28,3.61,2.34,3.59,3.59,3.60
22.09,-0.66,-4.27,-0.66,-4.26,4.26,3.64,2.40,3.61,3.61,3.62
22.31,-0.62,-4.24,-0.62,-4.25,4.25,3.68,2.47,3.63,3.62,3.63
22.54,-0.59,-4.22,-0.59,-4.22,4.22,3.72,2.55,3.63,3.64,3.64
22.76,-0.56,-4.20,-0.55,-4.20,4.20,3.76,2.62,3.64,3.65,3.65
22.99,-0.52,-4.16,-0.52,-4.18,4.18,3.79,2.69,3.66,3.66,3.65
23.22,-0.49,-4.14,-0.49,-4.15,4.15,3.83,2.77,3.66,3.66,3.66
23.45,-0.46,-4.12,-0.45,-4.13,4.13,3.86,2.85,3.67,3.67,3.67
23.69,-0.42,-4.09,-0.42,-4.10,4.10,3.89,2.93,3.69,3.68,3.68
23.92,-0.39,-4.07,-0.39,-4.08,4.08,3.92,3.01,3.69,3.69,3.69
24.16,-0.36,-4.06,-0.36,-4.06,4.06,3.95,3.09,3.70,3.70,3.71
24.40,-0.33,-4.05,-0.33,-4.04,4.04,3.98,3.18,3.71,3.71,3.73
24.65,-0.30,-4.01,-0.30,-4.02,4.02,4.01,3.26,3.72,3.72,3.72
24.89,-0.27,-3.99,-0.27,-4.00,4.00,4.03,3.35,3.73,3.73,3.73
25.14,-0.24,-3.97,-0.24,-3.98,3.98,4.06,3.44,3.74,3.74,3.74
25.39,-0.22,-3.96,-0.21,-3.96,3.96,4.08,3.52,3.74,3.75,3.75
25.65,-0.19,-3.95,-0.19,-3.95,3.95,4.10,3.61,3.76,3.76,3.77
25.91,-0.16,-3.92,-0.16,-3.93,3.93,4.12,3.70,3.77,3.77,3.77
26.16,-0.13,-3.90,-0.13,-3.91,3.91,4.14,3.79,3.79,3.78,3.78
26.43,-0.11,-3.89,-0.11,-3.90,3.90,4.16,3.87,3.79,3.79,3.79
26.69,-0.09,-3.88,-0.09,-3.88,3.88,4.17,3.96,3.80,3.80,3.80
26.96,-0.06,-3.87,-0.06,-3.87,3.87,4.19,4.04,3.81,3.81,3.82
27.23,-0.04,-3.86,-0.04,-3.86,3.86,4.20,4.13,3.82,3.82,3.83
27.50,-0.02,-3.84,-0.02,-3.85,3.85,4.21,4.21,3.83,3.82,3.83
27.77,-0.01,-3.83,-0.00,-3.84,3.84,4.23,4.29,3.83,3.83,3.83
28.05,0.01,-3.83,0.02,-3.83,3.83,4.24,4.36,3.84,3.84,3.85
28.33,0.03,-3.81,0.04,-3.81,3.81,4.25,4.44,3.85,3.85,3.85
28.62,0.05,-3.80,0.05,-3.81,3.81,4.25,4.50,3.86,3.86,3.86
28.90,0.06,-3.80,0.07,-3.80,3.80,4.26,4.57,3.86,3.87,3.87
29.19,0.08,-3.78,0.08,-3.79,3.79,4.27,4.63,3.87,3.87,3.87
29.48,0.09,-3.80,0.10,-3.79,3.79,4.27,4.68,3.88,3.88,3.90
29.78,0.11,-3.77,0.11,-3.78,3.78,4.28,4.73,3.89,3.89,3.89
30.08,0.12,-3.77,0.12,-3.78,3.78,4.28,4.78,3.90,3.89,3.90
30.38,0.13,-3.76,0.12,-3.78,3.78,4.28,4.81,3.91,3.90,3.90
30.68,0.13,-3.78,0.13,-3.78,3.78,4.29,4.84,3.91,3.91,3.92
30.99,0.14,-3.77,0.14,-3.78,3.78,4.29,4.87,3.92,3.92,3.92
31.30,0.14,-3.77,0.14,-3.78,3.78,4.29,4.89,3.93,3.92,3.92
31.61,0.13,-3.79,0.14,-3.79,3.79,4.29,4.90,3.92,3.93,3.93
31.93,0.13,-3.80,0.13,-3.80,3.80,4.29,4.90,3.93,3.94,3.94
32.24,0.13,-3.80,0.13,-3.81,3.81,4.29,4.90,3.94,3.94,3.94
32.57,0.12,-3.83,0.13,-3.83,3.83,4.28,4.90,3.95,3.95,3.96
32.89,0.12,-3.83,0.12,-3.84,3.84,4.28,4.88,3.96,3.96,3.96
33.22,0.11,-3.85,0.11,-3.86,3.86,4.28,4.86,3.97,3.97,3.97
33.55,0.10,-3.87,0.10,-3.88,3.88,4.28,4.84,3.98,3.97,3.98
33.89,0.08,-3.90,0.09,-3.89,3.89,4.27,4.81,3.98,3.98,3.99
34.23,0.07,-3.91,0.07,-3.91,3.91,4.27,4.78,3.98,3.99,3.99
34.57,0.06,-3.93,0.06,-3.93,3.93,4.27,4.74,4.00,3.99,4.00
34.92,0.04,-3.95,0.04,-3.95,3.95,4.26,4.70,4.00,4.00,4.00
35.27,0.03,-3.97,0.03,-3.97,3.97,4.26,4.66,4.01,4.00,4.01
35.62,0.01,-3.99,0.01,-4.00,4.00,4.26,4.62,4.01,4.01,4.01
35.97,-0.01,-4.01,-0.01,-4.02,4.02,4.25,4.57,4.01,4.01,4.01
36.33,-0.03,-4.04,-0.03,-4.04,4.04,4.25,4.52,4.01,4.01,4.02
36.70,-0.05,-4.05,-0.04,-4.06,4.06,4.24,4.47,4.01,4.01,4.01
37.06,-0.06,-4.07,-0.06,-4.08,4.08,4.24,4.42,4.02,4.01,4.02
37.43,-0.08,-4.09,-0.08,-4.09,4.09,4.23,4.37,4.01,4.01,4.02
37.81,-0.10,-4.11,-0.10,-4.11,4.11,4.23,4.32,4.01,4.01,4.02
38.19,-0.12,-4.13,-0.12,-4.13,4.13,4.22,4.27,4.01,4.01,4.02
38.57,-0.14,-4.14,-0.14,-4.14,4.14,4.22,4.22,4.01,4.01,4.01
38.95,-0.16,-4.16,-0.15,-4.16,4.16,4.22,4.18,4.00,4.00,4.01
39.34,-0.17,-4.16,-0.17,-4.17,4.17,4.21,4.13,4.00,4.00,4.00
39.74,-0.19,-4.18,-0.18,-4.18,4.18,4.21,4.08,4.00,4.00,4.00
40.14,-0.20,-4.19,-0.20,-4.20,4.20,4.20,4.04,4.00,4.00,4.00
40.54,-0.22,-4.21,-0.21,-4.20,4.20,4.20,4.00,3.99,4.00,4.00
40.94,-0.23,-4.21,-0.22,-4.21,4.21,4.19,3.96,3.98,3.99,3.99
41.35,-0.24,-4.22,-0.23,-4.22,4.22,4.19,3.93,3.98,3.99,3.99
41.76,-0.25,-4.23,-0.24,-4.23,4.23,4.18,3.89,3.98,3.99,3.99
42.18,-0.25,-4.23,-0.25,-4.23,4.23,4.18,3.86,3.99,3.98,3.99
42.60,-0.26,-4.24,-0.26,-4.24,4.24,4.17,3.83,3.98,3.98,3.99
43.03,-0.26,-4.24,-0.27,-4.25,4.25,4.17,3.81,3.99,3.98,3.99
43.46,-0.27,-4.25,-0.28,-4.26,4.26,4.16,3.79,3.99,3.97,3.99
43.90,-0.29,-4.25,-0.29,-4.26,4.26,4.16,3.77,3.98,3.97,3.97
44.33,-0.30,-4.26,-0.30,-4.27,4.27,4.15,3.75,3.97,3.97,3.97
44.78,-0.31,-4.26,-0.31,-4.28,4.28,4.15,3.73,3.97,3.97,3.96
45.23,-0.33,-4.28,-0.32,-4.29,4.29,4.14,3.72,3.96,3.96,3.96
45.68,-0.34,-4.29,-0.33,-4.29,4.29,4.14,3.71,3.95,3.96,3.96
46.13,-0.35,-4.29,-0.34,-4.30,4.30,4.13,3.71,3.95,3.95,3.95
46.60,-0.37,-4.32,-0.36,-4.31,4.31,4.12,3.70,3.94,3.95,3.96
47.06,-0.38,-4.32,-0.37,-4.31,4.31,4.12,3.70,3.93,3.94,3.95
47.53,-0.39,-4.32,-0.38,-4.32,4.32,4.11,3.71,3.93,3.93,3.94
48.01,-0.39,-4.33,-0.40,-4.32,4.32,4.11,3.71,3.93,3.93,3.95
48.49,-0.40,-4.32,-0.41,-4.33,4.33,4.10,3.72,3.93,3.92,3.93
48.97,-0.42,-4.32,-0.42,-4.33,4.33,4.09,3.73,3.91,3.91,3.91
49.46,-0.43,-4.32,-0.44,-4.33,4.33,4.09,3.74,3.91,3.90,3.90
49.96,-0.45,-4.32,-0.45,-4.34,4.34,4.08,3.75,3.89,3.88,3.88
50.46,-0.47,-4.34,-0.47,-4.34,4.34,4.07,3.77,3.87,3.87,3.88
50.96,-0.49,-4.34,-0.48,-4.34,4.34,4.06,3.78,3.85,3.85,3.86
51.47,-0.50,-4.32,-0.50,-4.34,4.34,4.06,3.80,3.84,3.84,3.83
51.99,-0.52,-4.33,-0.52,-4.34,4.34,4.05,3.82,3.82,3.82,3.82
52.51,-0.54,-4.34,-0.53,-4.34,4.34,4.04,3.84,3.80,3.80,3.81
53.03,-0.55,-4.33,-0.55,-4.34,4.34,4.03,3.86,3.79,3.79,3.79
53.56,-0.57,-4.34,-0.57,-4.33,4.33,4.02,3.88,3.77,3.77,3.78
54.10,-0.58,-4.32,-0.59,-4.33,4.33,4.01,3.90,3.75,3.75,3.75
54.64,-0.60,-4.33,-0.60,-4.33,4.33,4.00,3.92,3.73,3.73,3.74
55.18,-0.61,-4.31,-0.62,-4.32,4.32,3.99,3.94,3.72,3.71,3.71
55.74,-0.62,-4.29,-0.63,-4.32,4.32,3.98,3.96,3.70,3.69,3.68
56.29,-0.64,-4.31,-0.64,-4.30,4.30,3.97,3.97,3.67,3.67,3.68
56.86,-0.65,-4.29,-0.64,-4.29,4.29,3.95,3.99,3.64,3.65,3.65
57.42,-0.66,-4.27,-0.65,-4.27,4.27,3.94,4.00,3.61,3.63,3.62
58.00,-0.67,-4.26,-0.65,-4.25,4.25,3.93,4.01,3.58,3.60,3.60
58.58,-0.66,-4.23,-0.65,-4.22,4.22,3.91,4.02,3.56,3.58,3.58
59.16,-0.66,-4.21,-0.64,-4.19,4.19,3.90,4.02,3.54,3.55,3.56
59.76,-0.64,-4.17,-0.64,-4.16,4.16,3.88,4.03,3.52,3.52,3.54
60.35,-0.63,-4.13,-0.63,-4.12,4.12,3.87,4.02,3.50,3.49,3.51
60.96,-0.61,-4.08,-0.62,-4.08,4.08,3.85,4.02,3.47,3.46,3.48
61.57,-0.60,-4.02,-0.61,-4.04,4.04,3.83,4.01,3.44,3.43,3.43
62.18,-0.59,-3.97,-0.60,-3.99,3.99,3.81,3.99,3.40,3.39,3.39
62.80,-0.57,-3.93,-0.58,-3.94,3.94,3.79,3.98,3.37,3.36,3.37
63.43,-0.56,-3.87,-0.56,-3.89,3.89,3.77,3.95,3.33,3.32,3.32
64.07,-0.55,-3.82,-0.55,-3.83,3.83,3.75,3.93,3.28,3.29,3.28
64.71,-0.54,-3.78,-0.53,-3.77,3.77,3.73,3.90,3.24,3.25,3.25
65.35,-0.52,-3.72,-0.51,-3.71,3.71,3.71,3.86,3.20,3.21,3.21
66.01,-0.49,-3.65,-0.48,-3.65,3.65,3.68,3.83,3.17,3.17,3.17
66.67,-0.46,-3.59,-0.46,-3.59,3.59,3.66,3.79,3.13,3.13,3.14
67.33,-0.44,-3.53,-0.44,-3.53,3.53,3.63,3.74,3.09,3.09,3.10
68.01,-0.41,-3.46,-0.41,-3.46,3.46,3.61,3.69,3.05,3.05,3.06
68.69,-0.38,-3.39,-0.38,-3.39,3.39,3.58,3.64,3.01,3.01,3.02
69.37,-0.34,-3.31,-0.35,-3.32,3.32,3.55,3.59,2.98,2.97,2.98
70.07,-0.32,-3.25,-0.31,-3.25,3.25,3.52,3.54,2.93,2.94,2.94
70.77,-0.28,-3.17,-0.28,-3.18,3.18,3.49,3.48,2.90,2.90,2.90
71.48,-0.25,-3.11,-0.24,-3.10,3.10,3.46,3.42,2.85,2.86,2.87
72.19,-0.21,-3.02,-0.20,-3.02,3.02,3.42,3.36,2.82,2.82,2.82
72.91,-0.17,-2.95,-0.16,-2.95,2.95,3.39,3.30,2.78,2.78,2.79
73.64,-0.12,-2.86,-0.12,-2.87,2.87,3.35,3.24,2.75,2.75,2.75
74.38,-0.08,-2.79,-0.08,-2.80,2.80,3.32,3.18,2.72,2.71,2.72
75.12,-0.04,-2.71,-0.04,-2.72,2.72,3.28,3.12,2.68,2.68,2.68
75.87,-0.01,-2.65,0.00,-2.64,2.64,3.24,3.06,2.64,2.65,2.65
76.63,0.04,-2.57,0.05,-2.57,2.57,3.20,3.00,2.61,2.62,2.62
77.40,0.08,-2.50,0.09,-2.50,2.50,3.16,2.94,2.58,2.59,2.59
78.17,0.12,-2.43,0.13,-2.43,2.43,3.12,2.88,2.55,2.56,2.56
78.95,0.17,-2.35,0.17,-2.36,2.36,3.08,2.83,2.53,2.53,2.53
79.74,0.21,-2.29,0.20,-2.30,2.30,3.03,2.77,2.51,2.50,2.51
80.54,0.25,-2.23,0.24,-2.24,2.24,2.99,2.71,2.49,2.48,2.49
81.35,0.28,-2.17,0.27,-2.19,2.19,2.94,2.66,2.47,2.45,2.46
82.16,0.30,-2.12,0.30,-2.14,2.14,2.90,2.61,2.44,2.43,2.43
82.98,0.33,-2.08,0.32,-2.09,2.09,2.85,2.56,2.42,2.41,2.42
83.81,0.34,-2.04,0.34,-2.05,2.05,2.80,2.51,2.39,2.39,2.39
84.65,0.35,-2.00,0.35,-2.02,2.02,2.75,2.46,2.37,2.37,2.36
85.50,0.36,-1.98,0.36,-1.99,1.99,2.70,2.42,2.35,2.34,2.35
86.35,0.37,-1.95,0.37,-1.96,1.96,2.65,2.37,2.33,2.32,2.33
87.22,0.38,-1.92,0.37,-1.94,1.94,2.60,2.33,2.32,2.31,2.31
88.09,0.38,-1.90,0.37,-1.92,1.92,2.55,2.29,2.30,2.29,2.29
88.97,0.37,-1.89,0.37,-1.90,1.90,2.50,2.25,2.27,2.27,2.27
89.86,0.36,-1.89,0.37,-1.88,1.88,2.45,2.22,2.24,2.25,2.26
90.76,0.35,-1.87,0.37,-1.86,1.86,2.39,2.18,2.21,2.23,2.23
91.66,0.35,-1.85,0.37,-1.84,1.84,2.34,2.15,2.19,2.21,2.21
92.58,0.35,-1.83,0.37,-1.82,1.82,2.28,2.12,2.17,2.19,2.19
93.51,0.36,-1.81,0.37,-1.80,1.80,2.23,2.09,2.16,2.17,2.18
94.44,0.36,-1.79,0.37,-1.78,1.78,2.17,2.06,2.14,2.15,2.16
95.39,0.37,-1.76,0.37,-1.76,1.76,2.12,2.03,2.13,2.13,2.14
96.34,0.37,-1.73,0.36,-1.74,1.74,2.06,2.01,2.11,2.10,2.11
97.30,0.38,-1.69,0.36,-1.72,1.72,2.01,1.98,2.10,2.08,2.08
98.28,0.37,-1.67,0.35,-1.70,1.70,1.95,1.96,2.07,2.05,2.05
99.26,0.35,-1.67,0.35,-1.68,1.68,1.89,1.94,2.03,2.03,2.03
100.25,0.33,-1.66,0.34,-1.66,1.66,1.84,1.92,1.99,2.00,2.00
101.25,0.30,-1.66,0.32,-1.64,1.64,1.78,1.90,1.95,1.97,1.97
102.27,0.29,-1.63,0.30,-1.63,1.63,1.72,1.88,1.92,1.93,1.93
103.29,0.28,-1.61,0.27,-1.62,1.62,1.66,1.87,1.91,1.90,1.90
104.32,0.26,-1.60,0.24,-1.62,1.62,1.61,1.85,1.88,1.86,1.87
105.37,0.23,-1.59,0.21,-1.61,1.61,1.55,1.83,1.84,1.82,1.83
106.42,0.19,-1.58,0.17,-1.61,1.61,1.49,1.82,1.80,1.78,1.78
107.48,0.15,-1.59,0.13,-1.60,1.60,1.44,1.80,1.75,1.73,1.75
108.56,0.09,-1.59,0.09,-1.59,1.59,1.38,1.78,1.68,1.68,1.69
109.64,0.04,-1.59,0.05,-1.58,1.58,1.32,1.77,1.62,1.63,1.64
110.74,-0.02,-1.60,0.01,-1.57,1.57,1.27,1.75,1.55,1.58,1.59
111.85,-0.06,-1.59,-0.04,-1.56,1.56,1.21,1.73,1.50,1.52,1.54
112.97,-0.11,-1.57,-0.08,-1.55,1.55,1.15,1.72,1.44,1.47,1.47
114.10,-0.14,-1.55,-0.13,-1.54,1.54,1.10,1.70,1.40,1.41,1.42
115.24,-0.18,-1.53,-0.18,-1.53,1.53,1.04,1.68,1.35,1.35,1.36
116.39,-0.20,-1.48,-0.22,-1.52,1.52,0.99,1.65,1.32,1.29,1.29
117.55,-0.24,-1.46,-0.26,-1.50,1.50,0.93,1.63,1.26,1.24,1.23
118.73,-0.29,-1.45,-0.31,-1.48,1.48,0.88,1.61,1.20,1.18,1.17
119.92,-0.35,-1.46,-0.35,-1.47,1.47,0.82,1.58,1.12,1.12,1.12
121.12,-0.40,-1.45,-0.39,-1.45,1.45,0.77,1.55,1.05,1.06,1.06
122.33,-0.43,-1.43,-0.42,-1.43,1.43,0.72,1.52,1.00,1.01,1.01
123.55,-0.46,-1.41,-0.46,-1.41,1.41,0.66,1.49,0.95,0.95,0.96
124.79,-0.50,-1.40,-0.49,-1.39,1.39,0.61,1.45,0.90,0.90,0.91
126.03,-0.53,-1.38,-0.52,-1.37,1.37,0.56,1.42,0.85,0.85,0.86
127.29,-0.55,-1.35,-0.55,-1.35,1.35,0.51,1.38,0.80,0.80,0.81
128.57,-0.57,-1.31,-0.57,-1.33,1.33,0.46,1.34,0.76,0.75,0.75
129.85,-0.61,-1.31,-0.59,-1.30,1.30,0.41,1.29,0.69,0.71,0.71
131.15,-0.63,-1.28,-0.61,-1.27,1.27,0.36,1.25,0.64,0.66,0.66
132.46,-0.64,-1.25,-0.62,-1.23,1.23,0.31,1.20,0.60,0.62,0.62
133.79,-0.64,-1.21,-0.62,-1.20,1.20,0.26,1.15,0.56,0.57,0.58
135.12,-0.64,-1.17,-0.63,-1.16,1.16,0.21,1.10,0.52,0.53,0.54
136.48,-0.63,-1.12,-0.63,-1.13,1.13,0.16,1.04,0.50,0.49,0.50
137.84,-0.62,-1.07,-0.64,-1.09,1.09,0.12,0.99,0.47,0.45,0.46
139.22,-0.62,-1.02,-0.64,-1.06,1.06,0.07,0.93,0.44,0.42,0.41
140.61,-0.62,-0.98,-0.64,-1.02,1.02,0.02,0.87,0.40,0.38,0.37
142.02,-0.62,-0.96,-0.64,-0.98,0.98,-0.02,0.81,0.36,0.34,0.35
143.44,-0.62,-0.92,-0.64,-0.94,0.94,-0.07,0.74,0.33,0.30,0.31
144.87,-0.63,-0.89,-0.64,-0.90,0.90,-0.11,0.68,0.27,0.27,0.27
146.32,-0.64,-0.86,-0.63,-0.86,0.86,-0.16,0.62,0.22,0.23,0.23
147.78,-0.64,-0.83,-0.63,-0.81,0.81,-0.20,0.55,0.18,0.19,0.20
149.26,-0.64,-0.80,-0.62,-0.77,0.77,-0.24,0.48,0.13,0.15,0.17
150.75,-0.63,-0.73,-0.61,-0.71,0.71,-0.28,0.41,0.09,0.11,0.11
152.26,-0.62,-0.68,-0.59,-0.66,0.66,-0.33,0.34,0.04,0.07,0.07
153.78,-0.59,-0.62,-0.57,-0.60,0.60,-0.37,0.27,0.01,0.03,0.04
155.32,-0.57,-0.54,-0.55,-0.53,0.53,-0.41,0.20,-0.03,-0.02,-0.02
156.88,-0.53,-0.47,-0.53,-0.47,0.47,-0.45,0.13,-0.06,-0.06,-0.05
158.44,-0.50,-0.39,-0.50,-0.40,0.40,-0.49,0.06,-0.10,-0.10,-0.10
160.03,-0.46,-0.30,-0.47,-0.32,0.32,-0.53,-0.02,-0.14,-0.15,-0.15
161.63,-0.44,-0.23,-0.44,-0.25,0.25,-0.56,-0.09,-0.19,-0.19,-0.20
163.24,-0.41,-0.16,-0.42,-0.17,0.17,-0.60,-0.16,-0.23,-0.24,-0.24
164.88,-0.36,-0.07,-0.39,-0.10,0.10,-0.64,-0.24,-0.26,-0.29,-0.28
166.53,-0.34,-0.00,-0.36,-0.03,0.03,-0.67,-0.32,-0.31,-0.34,-0.33
168.19,-0.33,0.06,-0.34,0.04,-0.04,-0.71,-0.39,-0.37,-0.38,-0.38
169.87,-0.31,0.13,-0.32,0.11,-0.11,-0.75,-0.47,-0.42,-0.43,-0.43
171.57,-0.30,0.18,-0.30,0.18,-0.18,-0.78,-0.55,-0.48,-0.49,-0.47
173.29,-0.29,0.25,-0.29,0.25,-0.25,-0.81,-0.63,-0.54,-0.54,-0.53
175.02,-0.27,0.32,-0.27,0.32,-0.32,-0.85,-0.71,-0.59,-0.59,-0.58
176.77,-0.26,0.39,-0.25,0.39,-0.39,-0.88,-0.79,-0.65,-0.64,-0.64
178.54,-0.24,0.46,-0.23,0.47,-0.47,-0.91,-0.87,-0.70,-0.70,-0.69
180.32,-0.23,0.53,-0.21,0.54,-0.54,-0.95,-0.95,-0.77,-0.75,-0.75
182.13,-0.20,0.61,-0.19,0.62,-0.62,-0.98,-1.03,-0.82,-0.81,-0.80
183.95,-0.17,0.70,-0.16,0.70,-0.70,-1.01,-1.11,-0.87,-0.86,-0.86
185.79,-0.14,0.78,-0.13,0.79,-0.79,-1.04,-1.19,-0.93,-0.92,-0.91
187.65,-0.11,0.88,-0.10,0.88,-0.88,-1.07,-1.28,-0.98,-0.98,-0.98
189.52,-0.07,0.97,-0.07,0.96,-0.96,-1.10,-1.36,-1.03,-1.03,-1.03
191.42,-0.02,1.07,-0.03,1.06,-1.06,-1.13,-1.45,-1.07,-1.08,-1.08
193.33,0.02,1.16,0.01,1.15,-1.15,-1.16,-1.53,-1.13,-1.14,-1.13
195.27,0.06,1.25,0.06,1.24,-1.24,-1.18,-1.62,-1.18,-1.19,-1.18
197.22,0.10,1.35,0.10,1.34,-1.34,-1.21,-1.70,-1.24,-1.24,-1.24
199.19,0.14,1.44,0.15,1.44,-1.44,-1.24,-1.79,-1.29,-1.29,-1.29
201.18,0.19,1.54,0.20,1.53,-1.53,-1.27,-1.87,-1.34,-1.34,-1.34
203.19,0.24,1.62,0.24,1.63,-1.63,-1.29,-1.96,-1.39,-1.38,-1.37
205.23,0.28,1.72,0.29,1.72,-1.72,-1.32,-2.04,-1.44,-1.43,-1.43
207.28,0.34,1.80,0.34,1.81,-1.81,-1.34,-2.13,-1.47,-1.47,-1.45
209.35,0.39,1.91,0.39,1.90,-1.90,-1.37,-2.21,-1.51,-1.52,-1.51
211.44,0.44,2.01,0.44,1.99,-1.99,-1.39,-2.29,-1.55,-1.56,-1.56
213.56,0.49,2.10,0.48,2.08,-2.08,-1.42,-2.37,-1.59,-1.60,-1.60
215.69,0.54,2.17,0.53,2.17,-2.17,-1.44,-2.45,-1.62,-1.63,-1.62
217.85,0.60,2.27,0.58,2.25,-2.25,-1.46,-2.53,-1.65,-1.67,-1.66
220.03,0.63,2.34,0.63,2.33,-2.33,-1.49,-2.61,-1.70,-1.70,-1.70
222.23,0.67,2.41,0.67,2.40,-2.40,-1.51,-2.68,-1.73,-1.73,-1.73
224.45,0.71,2.47,0.72,2.48,-2.48,-1.53,-2.75,-1.77,-1.76,-1.75
226.70,0.75,2.54,0.77,2.55,-2.55,-1.55,-2.82,-1.80,-1.78,-1.78
228.96,0.81,2.63,0.81,2.62,-2.62,-1.57,-2.88,-1.81,-1.81,-1.81
231.25,0.85,2.68,0.86,2.68,-2.68,-1.59,-2.94,-1.83,-1.83,-1.82
233.57,0.89,2.74,0.90,2.74,-2.74,-1.61,-3.00,-1.85,-1.84,-1.84
235.90,0.95,2.81,0.95,2.80,-2.80,-1.63,-3.05,-1.85,-1.85,-1.85
238.26,0.99,2.86,0.99,2.86,-2.86,-1.65,-3.09,-1.86,-1.86,-1.86
240.64,1.04,2.92,1.04,2.91,-2.91,-1.67,-3.14,-1.87,-1.87,-1.87
243.05,1.08,2.96,1.08,2.96,-2.96,-1.69,-3.17,-1.88,-1.88,-1.87
245.48,1.13,3.02,1.13,3.01,-3.01,-1.71,-3.20,-1.88,-1.88,-1.88
247.93,1.18,3.07,1.17,3.06,-3.06,-1.73,-3.23,-1.87,-1.88,-1.88
250.41,1.22,3.11,1.22,3.10,-3.10,-1.75,-3.25,-1.88,-1.88,-1.88
252.92,1.27,3.15,1.26,3.14,-3.14,-1.76,-3.27,-1.87,-1.87,-1.87
255.45,1.29,3.16,1.31,3.17,-3.17,-1.78,-3.28,-1.88,-1.87,-1.86
258.00,1.33,3.19,1.35,3.21,-3.21,-1.80,-3.28,-1.88,-1.86,-1.85
260.58,1.38,3.24,1.39,3.24,-3.24,-1.81,-3.28,-1.86,-1.85,-1.85
263.19,1.42,3.27,1.43,3.27,-3.27,-1.83,-3.28,-1.85,-1.84,-1.84
265.82,1.48,3.32,1.46,3.29,-3.29,-1.85,-3.27,-1.81,-1.83,-1.83
268.48,1.50,3.32,1.50,3.32,-3.32,-1.86,-3.26,-1.82,-1.82,-1.81
271.16,1.53,3.33,1.53,3.34,-3.34,-1.88,-3.24,-1.80,-1.80,-1.79
273.87,1.56,3.36,1.56,3.35,-3.35,-1.89,-3.22,-1.79,-1.79,-1.79
276.61,1.59,3.36,1.59,3.36,-3.36,-1.91,-3.19,-1.77,-1.78,-1.76
279.38,1.61,3.38,1.61,3.37,-3.37,-1.92,-3.16,-1.76,-1.76,-1.76
282.17,1.63,3.38,1.63,3.38,-3.38,-1.93,-3.13,-1.75,-1.75,-1.74
284.99,1.65,3.39,1.64,3.38,-3.38,-1.95,-3.10,-1.73,-1.74,-1.73
287.84,1.67,3.40,1.65,3.37,-3.37,-1.96,-3.07,-1.70,-1.72,-1.72
290.72,1.68,3.40,1.66,3.37,-3.37,-1.98,-3.03,-1.68,-1.71,-1.71
293.63,1.67,3.37,1.66,3.36,-3.36,-1.99,-2.99,-1.68,-1.69,-1.69
296.57,1.66,3.34,1.66,3.34,-3.34,-2.00,-2.96,-1.68,-1.68,-1.67
299.53,1.65,3.33,1.67,3.33,-3.33,-2.01,-2.92,-1.68,-1.67,-1.67
302.53,1.65,3.32,1.67,3.32,-3.32,-2.03,-2.88,-1.67,-1.66,-1.66
305.55,1.65,3.30,1.67,3.31,-3.31,-2.04,-2.84,-1.66,-1.64,-1.64
308.61,1.65,3.29,1.67,3.30,-3.30,-2.05,-2.80,-1.65,-1.63,-1.63
311.69,1.65,3.28,1.67,3.29,-3.29,-2.06,-2.76,-1.64,-1.62,-1.62
314.81,1.65,3.25,1.67,3.28,-3.28,-2.07,-2.73,-1.63,-1.61,-1.59
317.96,1.65,3.26,1.67,3.27,-3.27,-2.08,-2.69,-1.62,-1.61,-1.60
321.14,1.66,3.26,1.67,3.26,-3.26,-2.09,-2.66,-1.60,-1.60,-1.59
324.35,1.66,3.26,1.67,3.26,-3.26,-2.10,-2.62,-1.59,-1.59,-1.59
327.59,1.67,3.26,1.66,3.25,-3.25,-2.11,-2.59,-1.58,-1.59,-1.58
330.87,1.67,3.26,1.66,3.24,-3.24,-2.12,-2.56,-1.57,-1.58,-1.58
334.18,1.67,3.26,1.65,3.23,-3.23,-2.13,-2.53,-1.56,-1.58,-1.58
337.52,1.66,3.24,1.64,3.22,-3.22,-2.14,-2.50,-1.55,-1.58,-1.57
340.90,1.65,3.23,1.63,3.20,-3.20,-2.15,-2.48,-1.55,-1.58,-1.57
344.30,1.62,3.20,1.61,3.19,-3.19,-2.16,-2.45,-1.56,-1.58,-1.57
347.75,1.59,3.17,1.59,3.17,-3.17,-2.17,-2.43,-1.58,-1.58,-1.57
351.23,1.56,3.14,1.57,3.15,-3.15,-2.18,-2.41,-1.59,-1.58,-1.57
354.74,1.53,3.11,1.54,3.12,-3.12,-2.19,-2.39,-1.59,-1.58,-1.57
358.28,1.49,3.09,1.51,3.10,-3.10,-2.20,-2.38,-1.61,-1.59,-1.59
361.87,1.47,3.07,1.48,3.07,-3.07,-2.21,-2.36,-1.60,-1.59,-1.59
365.49,1.44,3.04,1.45,3.04,-3.04,-2.21,-2.35,-1.60,-1.60,-1.59
369.14,1.42,3.03,1.41,3.02,-3.02,-2.22,-2.34,-1.59,-1.60,-1.60
372.83,1.39,3.00,1.38,2.99,-2.99,-2.23,-2.33,-1.60,-1.61,-1.60
376.56,1.35,2.97,1.35,2.96,-2.96,-2.24,-2.32,-1.61,-1.62,-1.61
380.33,1.31,2.94,1.31,2.94,-2.94,-2.25,-2.32,-1.63,-1.62,-1.62
384.13,1.27,2.91,1.28,2.91,-2.91,-2.25,-2.32,-1.64,-1.63,-1.63
387.97,1.24,2.89,1.25,2.89,-2.89,-2.26,-2.31,-1.65,-1.64,-1.64
391.85,1.21,2.87,1.22,2.87,-2.87,-2.27,-2.31,-1.66,-1.65,-1.65
395.77,1.19,2.84,1.19,2.85,-2.85,-2.27,-2.32,-1.65,-1.65,-1.64
399.73,1.16,2.82,1.16,2.82,-2.82,-2.28,-2.32,-1.66,-1.66,-1.65
403.72,1.13,2.80,1.13,2.80,-2.80,-2.29,-2.32,-1.67,-1.66,-1.66
407.76,1.11,2.79,1.11,2.78,-2.78,-2.29,-2.33,-1.67,-1.67,-1.67
411.84,1.08,2.75,1.08,2.76,-2.76,-2.30,-2.33,-1.67,-1.68,-1.66
415.96,1.06,2.75,1.06,2.74,-2.74,-2.30,-2.34,-1.67,-1.68,-1.68
420.12,1.03,2.72,1.03,2.72,-2.72,-2.31,-2.35,-1.68,-1.68,-1.68
424.32,1.00,2.69,1.01,2.69,-2.69,-2.32,-2.36,-1.69,-1.69,-1.68
428.56,0.98,2.68,0.98,2.67,-2.67,-2.32,-2.37,-1.69,-1.69,-1.69
432.85,0.95,2.65,0.95,2.64,-2.64,-2.33,-2.37,-1.69,-1.69,-1.69
437.18,0.92,2.62,0.92,2.61,-2.61,-2.33,-2.38,-1.69,-1.69,-1.69
441.55,0.91,2.60,0.89,2.58,-2.58,-2.34,-2.39,-1.67,-1.69,-1.68
445.96,0.89,2.58,0.86,2.55,-2.55,-2.34,-2.40,-1.66,-1.69,-1.68
450.42,0.85,2.55,0.83,2.52,-2.52,-2.35,-2.41,-1.67,-1.69,-1.69
454.93,0.82,2.51,0.81,2.49,-2.49,-2.35,-2.42,-1.67,-1.68,-1.68
459.48,0.78,2.47,0.78,2.47,-2.47,-2.35,-2.43,-1.68,-1.68,-1.68
464.07,0.75,2.43,0.76,2.44,-2.44,-2.36,-2.43,-1.69,-1.68,-1.67
468.71,0.72,2.39,0.74,2.42,-2.42,-2.36,-2.44,-1.70,-1.67,-1.66
473.40,0.69,2.37,0.73,2.40,-2.40,-2.37,-2.44,-1.71,-1.67,-1.67
478.13,0.67,2.34,0.71,2.38,-2.38,-2.37,-2.44,-1.70,-1.66,-1.66
482.91,0.67,2.34,0.70,2.36,-2.36,-2.38,-2.44,-1.69,-1.66,-1.66
487.74,0.67,2.33,0.69,2.34,-2.34,-2.38,-2.44,-1.67,-1.65,-1.65
492.62,0.68,2.33,0.68,2.33,-2.33,-2.38,-2.44,-1.65,-1.65,-1.64
497.55,0.69,2.34,0.67,2.31,-2.31,-2.39,-2.44,-1.62,-1.64,-1.64
502.52,0.69,2.33,0.66,2.30,-2.30,-2.39,-2.43,-1.61,-1.64,-1.63
