frequency,raw,error,smoothed,error_smoothed,equalization,parametric_eq,fixed_band_eq,equalized_raw,equalized_smoothed,target
20.00,-5.55,-10.81,-5.56,-10.84,10.84,10.64,3.49,5.29,5.28,5.26
20.20,-5.50,-10.76,-5.49,-10.76,10.76,10.59,3.59,5.26,5.27,5.26
20.40,-5.44,-10.70,-5.42,-10.69,10.69,10.54,3.68,5.25,5.26,5.26
20.61,-5.37,-10.63,-5.36,-10.61,10.61,10.48,3.79,5.24,5.25,5.26
20.81,-5.29,-10.54,-5.29,-10.54,10.54,10.43,3.89,5.25,5.24,5.26
21.02,-5.22,-10.48,-5.22,-10.46,10.46,10.37,4.00,5.24,5.23,5.26
21.23,-5.14,-10.37,-5.16,-10.38,10.38,10.31,4.11,5.24,5.22,5.24
21.44,-5.08,-10.30,-5.09,-10.30,10.30,10.25,4.22,5.22,5.21,5.22
21.66,-5.01,-10.21,-5.03,-10.22,10.22,10.18,4.33,5.21,5.19,5.20
21.87,-4.95,-10.13,-4.96,-10.14,10.14,10.11,4.45,5.19,5.18,5.18
22.09,-4.89,-10.06,-4.89,-10.05,10.05,10.05,4.58,5.16,5.16,5.17
22.31,-4.83,-9.97,-4.82,-9.97,9.97,9.97,4.70,5.14,5.14,5.14
22.54,-4.77,-9.89,-4.76,-9.88,9.88,9.90,4.83,5.11,5.12,5.12
22.76,-4.70,-9.80,-4.69,-9.79,9.79,9.83,4.96,5.09,5.10,5.10
22.99,-4.64,-9.71,-4.63,-9.71,9.71,9.75,5.10,5.07,5.08,5.07
23.22,-4.57,-9.61,-4.56,-9.62,9.62,9.67,5.23,5.05,5.05,5.04
23.45,-4.49,-9.51,-4.50,-9.53,9.53,9.59,5.37,5.04,5.03,5.02
23.69,-4.43,-9.44,-4.43,-9.44,9.44,9.51,5.52,5.01,5.01,5.01
23.92,-4.35,-9.34,-4.36,-9.35,9.35,9.42,5.66,5.01,4.99,4.99
24.16,-4.28,-9.26,-4.29,-9.26,9.26,9.34,5.81,4.98,4.97,4.98
24.40,-4.22,-9.17,-4.22,-9.17,9.17,9.25,5.97,4.95,4.95,4.96
24.65,-4.15,-9.08,-4.14,-9.07,9.07,9.16,6.12,4.92,4.93,4.93
24.89,-4.08,-8.99,-4.06,-8.97,8.97,9.07,6.28,4.90,4.91,4.91
25.14,-4.00,-8.90,-3.98,-8.88,8.88,8.98,6.44,4.88,4.90,4.90
25.39,-3.91,-8.79,-3.89,-8.78,8.78,8.89,6.60,4.87,4.88,4.88
25.65,-3.82,-8.69,-3.81,-8.68,8.68,8.80,6.76,4.86,4.87,4.87
25.91,-3.73,-8.57,-3.72,-8.57,8.57,8.70,6.92,4.84,4.85,4.84
26.16,-3.63,-8.46,-3.64,-8.47,8.47,8.61,7.08,4.84,4.83,4.83
26.43,-3.54,-8.36,-3.55,-8.37,8.37,8.51,7.24,4.83,4.82,4.82
26.69,-3.44,-8.24,-3.46,-8.26,8.26,8.41,7.40,4.82,4.80,4.80
26.96,-3.35,-8.13,-3.37,-8.16,8.16,8.31,7.56,4.81,4.78,4.78
27.23,-3.27,-8.04,-3.28,-8.05,8.05,8.21,7.71,4.78,4.77,4.77
27.50,-3.19,-7.95,-3.19,-7.94,7.94,8.11,7.86,4.75,4.75,4.76
27.77,-3.10,-7.84,-3.10,-7.84,7.84,8.01,8.00,4.74,4.74,4.74
28.05,-3.01,-7.74,-3.00,-7.73,7.73,7.90,8.14,4.72,4.73,4.73
28.33,-2.93,-7.64,-2.91,-7.62,7.62,7.80,8.27,4.69,4.71,4.71
28.62,-2.83,-7.53,-2.81,-7.51,7.51,7.70,8.39,4.68,4.70,4.70
28.90,-2.74,-7.42,-2.72,-7.41,7.41,7.59,8.50,4.67,4.69,4.68
29.19,-2.64,-7.30,-2.63,-7.30,7.30,7.49,8.60,4.66,4.67,4.66
29.48,-2.53,-7.19,-2.53,-7.19,7.19,7.38,8.68,4.66,4.66,4.66
29.78,-2.43,-7.08,-2.44,-7.08,7.08,7.27,8.75,4.65,4.64,4.65
30.08,-2.33,-6.97,-2.34,-6.97,6.97,7.16,8.81,4.64,4.63,4.64
30.38,-2.24,-6.85,-2.25,-6.86,6.86,7.05,8.85,4.62,4.61,4.61
30.68,-2.14,-6.74,-2.16,-6.76,6.76,6.95,8.87,4.62,4.60,4.60
30.99,-2.05,-6.63,-2.07,-6.65,6.65,6.84,8.87,4.60,4.58,4.58
31.30,-1.97,-6.54,-1.98,-6.54,6.54,6.73,8.86,4.57,4.56,4.57
31.61,-1.88,-6.43,-1.89,-6.44,6.44,6.62,8.83,4.56,4.55,4.55
31.93,-1.81,-6.34,-1.80,-6.33,6.33,6.50,8.78,4.52,4.53,4.53
32.24,-1.73,-6.23,-1.72,-6.23,6.23,6.39,8.71,4.50,4.51,4.50
32.57,-1.65,-6.14,-1.64,-6.13,6.13,6.28,8.63,4.48,4.49,4.49
32.89,-1.57,-6.04,-1.56,-6.02,6.02,6.17,8.53,4.46,4.47,4.47
33.22,-1.48,-5.92,-1.48,-5.92,5.92,6.06,8.41,4.44,4.45,4.44
33.55,-1.40,-5.83,-1.40,-5.82,5.82,5.95,8.29,4.42,4.42,4.43
33.89,-1.32,-5.72,-1.32,-5.72,5.72,5.83,8.15,4.40,4.40,4.40
34.23,-1.23,-5.61,-1.24,-5.62,5.62,5.72,7.99,4.39,4.38,4.38
34.57,-1.15,-5.51,-1.16,-5.52,5.52,5.61,7.83,4.37,4.36,4.36
34.92,-1.07,-5.40,-1.07,-5.41,5.41,5.49,7.66,4.34,4.34,4.33
35.27,-0.99,-5.31,-0.99,-5.31,5.31,5.38,7.48,4.32,4.32,4.32
35.62,-0.91,-5.21,-0.91,-5.21,5.21,5.27,7.30,4.30,4.30,4.30
35.97,-0.83,-5.10,-0.83,-5.10,5.10,5.15,7.11,4.27,4.28,4.27
36.33,-0.75,-5.01,-0.74,-5.00,5.00,5.04,6.92,4.25,4.25,4.26
36.70,-0.67,-4.90,-0.66,-4.89,4.89,4.92,6.72,4.22,4.23,4.23
37.06,-0.58,-4.79,-0.58,-4.79,4.79,4.81,6.53,4.21,4.21,4.21
37.43,-0.50,-4.69,-0.50,-4.69,4.69,4.70,6.33,4.19,4.19,4.19
37.81,-0.42,-4.59,-0.41,-4.58,4.58,4.58,6.13,4.16,4.17,4.17
38.19,-0.32,-4.46,-0.33,-4.47,4.47,4.47,5.92,4.15,4.15,4.14
38.57,-0.24,-4.37,-0.24,-4.37,4.37,4.35,5.72,4.13,4.12,4.13
38.95,-0.15,-4.25,-0.15,-4.26,4.26,4.24,5.52,4.11,4.10,4.10
39.34,-0.07,-4.14,-0.07,-4.15,4.15,4.13,5.32,4.08,4.08,4.08
39.74,0.02,-4.03,0.02,-4.04,4.04,4.01,5.13,4.06,4.06,4.05
40.14,0.11,-3.93,0.11,-3.93,3.93,3.90,4.93,4.04,4.04,4.04
40.54,0.19,-3.83,0.21,-3.82,3.82,3.78,4.74,4.01,4.02,4.02
40.94,0.30,-3.70,0.30,-3.70,3.70,3.67,4.54,4.00,4.00,4.00
41.35,0.39,-3.58,0.39,-3.59,3.59,3.56,4.35,3.98,3.98,3.97
41.76,0.49,-3.48,0.49,-3.47,3.47,3.44,4.16,3.96,3.96,3.97
42.18,0.59,-3.36,0.59,-3.36,3.36,3.33,3.97,3.95,3.94,3.95
42.60,0.68,-3.24,0.68,-3.24,3.24,3.22,3.79,3.92,3.92,3.92
43.03,0.78,-3.13,0.78,-3.12,3.12,3.10,3.61,3.90,3.90,3.91
43.46,0.88,-3.00,0.88,-3.00,3.00,2.99,3.43,3.88,3.88,3.89
43.90,0.98,-2.88,0.98,-2.88,2.88,2.88,3.25,3.86,3.86,3.86
44.33,1.08,-2.76,1.08,-2.76,2.76,2.77,3.07,3.84,3.84,3.84
44.78,1.17,-2.65,1.18,-2.64,2.64,2.65,2.90,3.81,3.82,3.82
45.23,1.28,-2.51,1.28,-2.52,2.52,2.54,2.72,3.80,3.80,3.79
45.68,1.37,-2.40,1.38,-2.40,2.40,2.43,2.55,3.77,3.78,3.77
46.13,1.48,-2.27,1.48,-2.28,2.28,2.32,2.38,3.76,3.76,3.75
46.60,1.58,-2.16,1.58,-2.16,2.16,2.21,2.22,3.74,3.73,3.74
47.06,1.67,-2.04,1.67,-2.04,2.04,2.10,2.05,3.71,3.71,3.72
47.53,1.77,-1.92,1.77,-1.91,1.91,1.99,1.89,3.69,3.69,3.69
48.01,1.87,-1.81,1.87,-1.79,1.79,1.88,1.73,3.66,3.66,3.68
48.49,1.97,-1.68,1.97,-1.67,1.67,1.77,1.57,3.64,3.64,3.65
48.97,2.06,-1.56,2.06,-1.55,1.55,1.66,1.41,3.62,3.62,3.62
49.46,2.16,-1.42,2.16,-1.44,1.44,1.55,1.26,3.60,3.59,3.58
49.96,2.25,-1.30,2.25,-1.32,1.32,1.44,1.10,3.57,3.57,3.55
50.46,2.35,-1.19,2.34,-1.20,1.20,1.33,0.95,3.55,3.54,3.55
50.96,2.44,-1.08,2.44,-1.08,1.08,1.22,0.80,3.52,3.52,3.52
51.47,2.53,-0.95,2.53,-0.96,0.96,1.11,0.65,3.49,3.49,3.48
51.99,2.62,-0.84,2.62,-0.84,0.84,1.01,0.51,3.46,3.46,3.46
52.51,2.70,-0.74,2.71,-0.73,0.73,0.90,0.36,3.43,3.44,3.44
53.03,2.79,-0.62,2.80,-0.61,0.61,0.79,0.22,3.40,3.41,3.42
53.56,2.88,-0.51,2.89,-0.50,0.50,0.69,0.08,3.38,3.38,3.39
54.10,2.98,-0.38,2.97,-0.38,0.38,0.58,-0.05,3.36,3.36,3.36
54.64,3.05,-0.28,3.06,-0.27,0.27,0.48,-0.19,3.32,3.33,3.33
55.18,3.14,-0.16,3.14,-0.16,0.16,0.37,-0.32,3.30,3.30,3.30
55.74,3.23,-0.04,3.23,-0.05,0.05,0.27,-0.45,3.28,3.28,3.27
56.29,3.31,0.06,3.31,0.06,-0.06,0.16,-0.57,3.25,3.25,3.25
56.86,3.39,0.17,3.39,0.17,-0.17,0.06,-0.69,3.22,3.22,3.22
57.42,3.47,0.29,3.47,0.28,-0.28,-0.04,-0.81,3.20,3.19,3.19
58.00,3.55,0.39,3.55,0.38,-0.38,-0.14,-0.92,3.17,3.16,3.16
58.58,3.62,0.49,3.62,0.49,-0.49,-0.24,-1.03,3.13,3.13,3.13
59.16,3.70,0.60,3.70,0.60,-0.60,-0.35,-1.14,3.10,3.10,3.11
59.76,3.77,0.69,3.77,0.70,-0.70,-0.45,-1.24,3.07,3.07,3.08
60.35,3.84,0.80,3.84,0.80,-0.80,-0.55,-1.34,3.04,3.04,3.04
60.96,3.91,0.88,3.91,0.90,-0.90,-0.64,-1.43,3.01,3.01,3.03
61.57,3.98,1.00,3.98,1.00,-1.00,-0.74,-1.52,2.98,2.98,2.98
62.18,4.05,1.11,4.05,1.10,-1.10,-0.84,-1.61,2.95,2.95,2.94
62.80,4.12,1.21,4.11,1.20,-1.20,-0.94,-1.69,2.92,2.92,2.91
63.43,4.18,1.31,4.18,1.29,-1.29,-1.03,-1.76,2.89,2.88,2.87
64.07,4.23,1.39,4.24,1.38,-1.38,-1.13,-1.84,2.85,2.85,2.84
64.71,4.30,1.48,4.30,1.48,-1.48,-1.23,-1.90,2.82,2.82,2.82
65.35,4.35,1.56,4.36,1.57,-1.57,-1.32,-1.97,2.79,2.79,2.79
66.01,4.41,1.65,4.41,1.65,-1.65,-1.41,-2.03,2.76,2.76,2.76
66.67,4.47,1.74,4.47,1.74,-1.74,-1.51,-2.09,2.73,2.73,2.73
67.33,4.52,1.82,4.52,1.82,-1.82,-1.60,-2.14,2.70,2.70,2.70
68.01,4.56,1.89,4.57,1.90,-1.90,-1.69,-2.19,2.66,2.67,2.67
68.69,4.62,1.98,4.61,1.98,-1.98,-1.78,-2.24,2.64,2.64,2.64
69.37,4.66,2.06,4.66,2.06,-2.06,-1.87,-2.29,2.61,2.60,2.60
70.07,4.70,2.13,4.70,2.13,-2.13,-1.96,-2.34,2.57,2.57,2.57
70.77,4.75,2.21,4.75,2.21,-2.21,-2.05,-2.38,2.54,2.54,2.54
71.48,4.79,2.29,4.79,2.29,-2.29,-2.14,-2.42,2.50,2.50,2.50
72.19,4.82,2.35,4.82,2.36,-2.36,-2.23,-2.47,2.46,2.46,2.47
72.91,4.86,2.44,4.86,2.44,-2.44,-2.32,-2.51,2.42,2.42,2.42
73.64,4.89,2.51,4.89,2.51,-2.51,-2.40,-2.55,2.38,2.38,2.38
74.38,4.92,2.58,4.93,2.59,-2.59,-2.49,-2.59,2.33,2.34,2.35
75.12,4.96,2.67,4.96,2.66,-2.66,-2.57,-2.63,2.30,2.30,2.29
75.87,4.99,2.74,4.99,2.74,-2.74,-2.66,-2.67,2.26,2.26,2.25
76.63,5.02,2.81,5.02,2.81,-2.81,-2.74,-2.71,2.21,2.21,2.21
77.40,5.04,2.88,5.05,2.88,-2.88,-2.82,-2.76,2.16,2.16,2.17
78.17,5.07,2.97,5.07,2.96,-2.96,-2.90,-2.80,2.11,2.12,2.11
78.95,5.10,3.03,5.10,3.03,-3.03,-2.98,-2.85,2.07,2.07,2.07
79.74,5.12,3.10,5.12,3.10,-3.10,-3.06,-2.90,2.02,2.02,2.02
80.54,5.13,3.16,5.14,3.17,-3.17,-3.14,-2.95,1.96,1.97,1.97
81.35,5.16,3.25,5.16,3.24,-3.24,-3.22,-3.00,1.92,1.92,1.92
82.16,5.18,3.32,5.17,3.31,-3.31,-3.30,-3.05,1.87,1.86,1.86
82.98,5.19,3.38,5.19,3.38,-3.38,-3.37,-3.11,1.81,1.81,1.82
83.81,5.20,3.45,5.20,3.45,-3.45,-3.45,-3.17,1.75,1.75,1.75
84.65,5.21,3.52,5.21,3.51,-3.51,-3.52,-3.23,1.70,1.70,1.69
85.50,5.22,3.58,5.22,3.58,-3.58,-3.60,-3.29,1.64,1.64,1.64
86.35,5.23,3.65,5.23,3.65,-3.65,-3.67,-3.36,1.59,1.58,1.58
87.22,5.23,3.71,5.24,3.71,-3.71,-3.74,-3.43,1.52,1.53,1.52
88.09,5.24,3.78,5.24,3.77,-3.77,-3.81,-3.50,1.47,1.47,1.46
88.97,5.24,3.83,5.25,3.84,-3.84,-3.88,-3.57,1.40,1.41,1.41
89.86,5.25,3.90,5.25,3.90,-3.90,-3.95,-3.65,1.35,1.35,1.35
90.76,5.25,3.97,5.25,3.96,-3.96,-4.02,-3.73,1.29,1.29,1.28
91.66,5.25,4.03,5.25,4.02,-4.02,-4.09,-3.81,1.23,1.23,1.23
92.58,5.25,4.10,5.25,4.09,-4.09,-4.15,-3.90,1.17,1.16,1.15
93.51,5.24,4.13,5.25,4.15,-4.15,-4.22,-3.99,1.09,1.10,1.11
94.44,5.25,4.21,5.25,4.21,-4.21,-4.28,-4.08,1.04,1.04,1.04
95.39,5.24,4.26,5.24,4.27,-4.27,-4.35,-4.17,0.97,0.97,0.98
96.34,5.24,4.34,5.24,4.34,-4.34,-4.41,-4.27,0.90,0.90,0.90
97.30,5.23,4.40,5.24,4.40,-4.40,-4.47,-4.37,0.83,0.84,0.84
98.28,5.23,4.46,5.23,4.46,-4.46,-4.53,-4.47,0.77,0.77,0.77
99.26,5.22,4.53,5.22,4.52,-4.52,-4.59,-4.57,0.70,0.70,0.69
100.25,5.21,4.59,5.21,4.59,-4.59,-4.65,-4.68,0.62,0.63,0.63
101.25,5.21,4.65,5.20,4.65,-4.65,-4.71,-4.78,0.56,0.56,0.56
102.27,5.20,4.72,5.20,4.71,-4.71,-4.77,-4.89,0.49,0.48,0.48
103.29,5.19,4.79,5.18,4.77,-4.77,-4.82,-5.00,0.42,0.41,0.40
104.32,5.17,4.84,5.17,4.84,-4.84,-4.88,-5.11,0.33,0.34,0.34
105.37,5.16,4.89,5.16,4.90,-4.90,-4.93,-5.22,0.26,0.26,0.27
106.42,5.14,4.95,5.15,4.96,-4.96,-4.98,-5.33,0.18,0.19,0.19
107.48,5.13,5.02,5.14,5.03,-5.03,-5.04,-5.44,0.11,0.11,0.11
108.56,5.12,5.09,5.12,5.09,-5.09,-5.09,-5.54,0.03,0.03,0.03
109.64,5.11,5.15,5.11,5.15,-5.15,-5.14,-5.65,-0.04,-0.04,-0.04
110.74,5.10,5.21,5.10,5.22,-5.22,-5.19,-5.75,-0.12,-0.12,-0.11
111.85,5.08,5.27,5.08,5.28,-5.28,-5.23,-5.85,-0.20,-0.20,-0.19
112.97,5.06,5.35,5.07,5.34,-5.34,-5.28,-5.95,-0.28,-0.28,-0.28
114.10,5.05,5.40,5.05,5.40,-5.40,-5.33,-6.04,-0.35,-0.35,-0.35
115.24,5.04,5.47,5.04,5.46,-5.46,-5.37,-6.12,-0.42,-0.43,-0.43
116.39,5.02,5.53,5.02,5.53,-5.53,-5.42,-6.20,-0.50,-0.51,-0.51
117.55,5.00,5.59,5.00,5.58,-5.58,-5.46,-6.28,-0.58,-0.58,-0.59
118.73,4.99,5.65,4.99,5.64,-5.64,-5.50,-6.35,-0.65,-0.66,-0.66
119.92,4.97,5.70,4.97,5.70,-5.70,-5.54,-6.41,-0.73,-0.73,-0.73
121.12,4.95,5.75,4.95,5.75,-5.75,-5.58,-6.46,-0.80,-0.80,-0.80
122.33,4.93,5.81,4.93,5.81,-5.81,-5.62,-6.51,-0.88,-0.87,-0.88
123.55,4.91,5.85,4.91,5.86,-5.86,-5.66,-6.55,-0.95,-0.95,-0.94
124.79,4.89,5.90,4.89,5.91,-5.91,-5.70,-6.58,-1.02,-1.01,-1.01
126.03,4.87,5.94,4.87,5.95,-5.95,-5.73,-6.60,-1.08,-1.08,-1.07
127.29,4.85,5.99,4.85,6.00,-6.00,-5.77,-6.61,-1.15,-1.15,-1.14
128.57,4.83,6.05,4.83,6.05,-6.05,-5.80,-6.62,-1.21,-1.21,-1.22
129.85,4.81,6.09,4.81,6.09,-6.09,-5.83,-6.61,-1.28,-1.28,-1.28
131.15,4.79,6.13,4.79,6.13,-6.13,-5.87,-6.60,-1.34,-1.34,-1.34
132.46,4.77,6.18,4.77,6.17,-6.17,-5.90,-6.59,-1.39,-1.40,-1.41
133.79,4.75,6.20,4.74,6.20,-6.20,-5.93,-6.56,-1.45,-1.46,-1.45
135.12,4.72,6.24,4.72,6.23,-6.23,-5.96,-6.53,-1.51,-1.51,-1.52
136.48,4.70,6.27,4.70,6.26,-6.26,-5.99,-6.50,-1.56,-1.56,-1.56
137.84,4.67,6.28,4.68,6.29,-6.29,-6.01,-6.46,-1.62,-1.61,-1.61
139.22,4.65,6.32,4.65,6.32,-6.32,-6.04,-6.41,-1.67,-1.66,-1.67
140.61,4.63,6.35,4.63,6.34,-6.34,-6.06,-6.37,-1.71,-1.71,-1.72
142.02,4.61,6.36,4.61,6.36,-6.36,-6.09,-6.32,-1.75,-1.75,-1.74
143.44,4.58,6.37,4.58,6.38,-6.38,-6.11,-6.26,-1.79,-1.79,-1.79
144.87,4.56,6.40,4.56,6.39,-6.39,-6.13,-6.21,-1.83,-1.83,-1.83
146.32,4.54,6.41,4.54,6.41,-6.41,-6.16,-6.16,-1.87,-1.87,-1.87
147.78,4.51,6.41,4.51,6.42,-6.42,-6.18,-6.10,-1.91,-1.91,-1.90
149.26,4.49,6.43,4.49,6.43,-6.43,-6.20,-6.05,-1.94,-1.94,-1.94
150.75,4.46,6.44,4.46,6.44,-6.44,-6.21,-5.99,-1.98,-1.98,-1.98
152.26,4.44,6.46,4.44,6.46,-6.46,-6.23,-5.94,-2.01,-2.02,-2.02
153.78,4.42,6.47,4.41,6.46,-6.46,-6.25,-5.89,-2.04,-2.05,-2.05
155.32,4.39,6.47,4.39,6.47,-6.47,-6.26,-5.84,-2.08,-2.08,-2.08
156.88,4.36,6.47,4.36,6.48,-6.48,-6.28,-5.79,-2.12,-2.12,-2.11
158.44,4.33,6.49,4.34,6.49,-6.49,-6.29,-5.75,-2.16,-2.15,-2.15
160.03,4.31,6.50,4.31,6.50,-6.50,-6.30,-5.71,-2.19,-2.19,-2.19
161.63,4.28,6.51,4.28,6.51,-6.51,-6.32,-5.67,-2.22,-2.22,-2.23
163.24,4.25,6.51,4.26,6.51,-6.51,-6.33,-5.63,-2.26,-2.26,-2.26
164.88,4.23,6.52,4.23,6.52,-6.52,-6.34,-5.60,-2.29,-2.29,-2.29
166.53,4.20,6.52,4.20,6.53,-6.53,-6.35,-5.57,-2.33,-2.33,-2.32
168.19,4.17,6.54,4.17,6.53,-6.53,-6.35,-5.55,-2.36,-2.36,-2.37
169.87,4.14,6.54,4.14,6.54,-6.54,-6.36,-5.53,-2.40,-2.40,-2.40
171.57,4.11,6.54,4.11,6.55,-6.55,-6.37,-5.52,-2.44,-2.44,-2.43
173.29,4.07,6.54,4.08,6.55,-6.55,-6.37,-5.51,-2.48,-2.48,-2.47
175.02,4.05,6.56,4.04,6.56,-6.56,-6.38,-5.50,-2.51,-2.52,-2.51
176.77,4.01,6.57,4.01,6.57,-6.57,-6.38,-5.50,-2.56,-2.56,-2.56
178.54,3.98,6.58,3.98,6.57,-6.57,-6.38,-5.50,-2.59,-2.60,-2.60
180.32,3.94,6.58,3.94,6.58,-6.58,-6.38,-5.50,-2.64,-2.63,-2.64
182.13,3.90,6.57,3.91,6.58,-6.58,-6.38,-5.51,-2.68,-2.68,-2.67
183.95,3.86,6.58,3.87,6.58,-6.58,-6.38,-5.53,-2.72,-2.72,-2.72
185.79,3.83,6.59,3.83,6.58,-6.58,-6.38,-5.55,-2.75,-2.75,-2.76
187.65,3.79,6.59,3.79,6.58,-6.58,-6.38,-5.57,-2.79,-2.79,-2.80
189.52,3.74,6.58,3.75,6.58,-6.58,-6.38,-5.59,-2.84,-2.83,-2.84
191.42,3.71,6.58,3.71,6.57,-6.57,-6.38,-5.62,-2.86,-2.87,-2.87
193.33,3.67,6.56,3.66,6.56,-6.56,-6.37,-5.66,-2.89,-2.90,-2.89
195.27,3.62,6.55,3.62,6.55,-6.55,-6.37,-5.69,-2.93,-2.93,-2.93
197.22,3.57,6.53,3.57,6.54,-6.54,-6.36,-5.73,-2.97,-2.96,-2.96
199.19,3.53,6.54,3.53,6.52,-6.52,-6.35,-5.78,-2.99,-2.99,-3.01
201.18,3.48,6.51,3.48,6.50,-6.50,-6.35,-5.82,-3.02,-3.02,-3.03
203.19,3.42,6.47,3.43,6.48,-6.48,-6.34,-5.87,-3.06,-3.05,-3.05
205.23,3.37,6.45,3.38,6.45,-6.45,-6.33,-5.92,-3.08,-3.08,-3.08
207.28,3.33,6.42,3.33,6.43,-6.43,-6.32,-5.97,-3.10,-3.10,-3.09
209.35,3.27,6.39,3.27,6.40,-6.40,-6.31,-6.03,-3.13,-3.12,-3.12
211.44,3.22,6.37,3.22,6.36,-6.36,-6.30,-6.08,-3.14,-3.14,-3.15
213.56,3.16,6.33,3.16,6.33,-6.33,-6.28,-6.14,-3.17,-3.16,-3.17
215.69,3.10,6.27,3.11,6.29,-6.29,-6.27,-6.19,-3.19,-3.18,-3.17
217.85,3.04,6.23,3.05,6.24,-6.24,-6.26,-6.24,-3.20,-3.20,-3.19
220.03,2.98,6.19,2.99,6.19,-6.19,-6.24,-6.30,-3.21,-3.21,-3.21
222.23,2.92,6.15,2.92,6.14,-6.14,-6.23,-6.35,-3.22,-3.22,-3.23
224.45,2.86,6.08,2.86,6.08,-6.08,-6.21,-6.40,-3.22,-3.23,-3.22
226.70,2.79,6.03,2.79,6.02,-6.02,-6.19,-6.44,-3.23,-3.23,-3.24
228.96,2.72,5.96,2.72,5.95,-5.95,-6.18,-6.48,-3.23,-3.23,-3.24
231.25,2.64,5.87,2.64,5.88,-5.88,-6.16,-6.52,-3.24,-3.23,-3.23
233.57,2.56,5.79,2.56,5.79,-5.79,-6.14,-6.56,-3.23,-3.23,-3.22
235.90,2.48,5.71,2.48,5.70,-5.70,-6.12,-6.58,-3.22,-3.23,-3.23
238.26,2.40,5.63,2.39,5.60,-5.60,-6.10,-6.60,-3.20,-3.22,-3.23
240.64,2.30,5.51,2.29,5.50,-5.50,-6.08,-6.62,-3.20,-3.21,-3.21
243.05,2.21,5.41,2.18,5.38,-5.38,-6.06,-6.63,-3.17,-3.20,-3.20
245.48,2.10,5.28,2.07,5.25,-5.25,-6.03,-6.63,-3.15,-3.18,-3.18
247.93,2.00,5.17,1.95,5.11,-5.11,-6.01,-6.62,-3.11,-3.17,-3.17
250.41,1.89,5.05,1.82,4.97,-4.97,-5.99,-6.61,-3.08,-3.15,-3.16
252.92,1.77,4.90,1.70,4.83,-4.83,-5.96,-6.59,-3.06,-3.13,-3.13
255.45,1.64,4.75,1.58,4.69,-4.69,-5.94,-6.56,-3.05,-3.11,-3.11
258.00,1.52,4.61,1.47,4.56,-4.56,-5.91,-6.52,-3.04,-3.09,-3.08
260.58,1.41,4.48,1.38,4.45,-4.45,-5.88,-6.48,-3.04,-3.07,-3.07
263.19,1.30,4.35,1.31,4.36,-4.36,-5.86,-6.43,-3.06,-3.05,-3.05
265.82,1.22,4.25,1.28,4.31,-4.31,-5.83,-6.37,-3.08,-3.03,-3.03
268.48,1.17,4.18,1.29,4.29,-4.29,-5.80,-6.31,-3.12,-3.00,-3.01
271.16,1.19,4.16,1.34,4.32,-4.32,-5.77,-6.24,-3.13,-2.98,-2.97
273.87,1.24,4.20,1.44,4.40,-4.40,-5.74,-6.17,-3.15,-2.96,-2.96
276.61,1.37,4.30,1.58,4.51,-4.51,-5.71,-6.09,-3.14,-2.93,-2.93
279.38,1.58,4.49,1.76,4.67,-4.67,-5.68,-6.01,-3.09,-2.91,-2.91
282.17,1.83,4.72,1.98,4.87,-4.87,-5.65,-5.93,-3.04,-2.89,-2.89
284.99,2.12,4.99,2.23,5.09,-5.09,-5.62,-5.84,-2.97,-2.86,-2.86
287.84,2.47,5.31,2.50,5.34,-5.34,-5.59,-5.75,-2.86,-2.84,-2.84
290.72,2.82,5.63,2.78,5.58,-5.58,-5.56,-5.66,-2.76,-2.81,-2.80
293.63,3.16,5.95,3.05,5.83,-5.83,-5.52,-5.57,-2.67,-2.78,-2.79
296.57,3.46,6.22,3.31,6.06,-6.06,-5.49,-5.48,-2.60,-2.75,-2.76
299.53,3.72,6.45,3.55,6.27,-6.27,-5.46,-5.39,-2.55,-2.72,-2.73
302.53,3.94,6.65,3.75,6.45,-6.45,-5.42,-5.30,-2.50,-2.69,-2.70
305.55,4.08,6.74,3.92,6.58,-6.58,-5.39,-5.21,-2.50,-2.66,-2.66
308.61,4.17,6.80,4.04,6.67,-6.67,-5.35,-5.12,-2.50,-2.63,-2.63
311.69,4.22,6.82,4.12,6.72,-6.72,-5.32,-5.03,-2.50,-2.60,-2.60
314.81,4.22,6.78,4.16,6.73,-6.73,-5.28,-4.94,-2.51,-2.57,-2.56
317.96,4.17,6.71,4.16,6.70,-6.70,-5.24,-4.86,-2.53,-2.54,-2.54
321.14,4.11,6.62,4.12,6.63,-6.63,-5.21,-4.78,-2.52,-2.51,-2.51
324.35,4.02,6.50,4.06,6.54,-6.54,-5.17,-4.70,-2.52,-2.48,-2.48
327.59,3.93,6.38,3.98,6.43,-6.43,-5.13,-4.62,-2.50,-2.45,-2.45
330.87,3.83,6.25,3.88,6.31,-6.31,-5.09,-4.55,-2.48,-2.43,-2.42
334.18,3.72,6.12,3.77,6.17,-6.17,-5.05,-4.48,-2.45,-2.40,-2.40
337.52,3.63,6.01,3.66,6.04,-6.04,-5.01,-4.41,-2.41,-2.37,-2.38
340.90,3.52,5.87,3.55,5.91,-5.91,-4.97,-4.35,-2.38,-2.35,-2.35
344.30,3.42,5.75,3.44,5.77,-5.77,-4.94,-4.28,-2.35,-2.33,-2.33
347.75,3.31,5.61,3.34,5.65,-5.65,-4.89,-4.23,-2.34,-2.31,-2.30
351.23,3.22,5.51,3.24,5.52,-5.52,-4.85,-4.17,-2.30,-2.29,-2.29
354.74,3.13,5.40,3.14,5.41,-5.41,-4.81,-4.12,-2.28,-2.27,-2.27
358.28,3.03,5.28,3.04,5.29,-5.29,-4.77,-4.07,-2.26,-2.25,-2.25
361.87,2.95,5.18,2.95,5.18,-5.18,-4.73,-4.02,-2.23,-2.23,-2.23
365.49,2.86,5.07,2.86,5.07,-5.07,-4.69,-3.98,-2.21,-2.21,-2.21
369.14,2.77,4.97,2.77,4.97,-4.97,-4.65,-3.94,-2.20,-2.19,-2.20
372.83,2.69,4.87,2.69,4.86,-4.86,-4.60,-3.91,-2.17,-2.17,-2.18
376.56,2.62,4.78,2.61,4.76,-4.76,-4.56,-3.87,-2.14,-2.16,-2.16
380.33,2.53,4.67,2.53,4.66,-4.66,-4.52,-3.84,-2.13,-2.14,-2.13
384.13,2.45,4.57,2.45,4.56,-4.56,-4.47,-3.81,-2.11,-2.12,-2.12
387.97,2.37,4.47,2.37,4.47,-4.47,-4.43,-3.79,-2.10,-2.10,-2.10
391.85,2.29,4.37,2.29,4.37,-4.37,-4.39,-3.77,-2.08,-2.08,-2.08
395.77,2.22,4.27,2.22,4.28,-4.28,-4.34,-3.75,-2.06,-2.06,-2.05
399.73,2.15,4.18,2.15,4.18,-4.18,-4.30,-3.73,-2.03,-2.04,-2.03
403.72,2.08,4.09,2.08,4.09,-4.09,-4.25,-3.71,-2.01,-2.01,-2.01
407.76,2.01,4.01,2.01,4.00,-4.00,-4.21,-3.70,-1.99,-1.99,-2.00
411.84,1.94,3.91,1.95,3.92,-3.92,-4.16,-3.68,-1.98,-1.97,-1.97
415.96,1.89,3.84,1.89,3.83,-3.83,-4.12,-3.67,-1.94,-1.95,-1.95
420.12,1.83,3.76,1.83,3.75,-3.75,-4.07,-3.66,-1.92,-1.93,-1.93
424.32,1.78,3.68,1.77,3.68,-3.68,-4.02,-3.65,-1.90,-1.90,-1.90
428.56,1.72,3.60,1.72,3.60,-3.60,-3.98,-3.64,-1.88,-1.88,-1.88
432.85,1.67,3.53,1.68,3.53,-3.53,-3.93,-3.64,-1.86,-1.86,-1.86
437.18,1.63,3.47,1.63,3.47,-3.47,-3.88,-3.63,-1.84,-1.83,-1.83
441.55,1.59,3.40,1.60,3.41,-3.41,-3.84,-3.62,-1.82,-1.81,-1.81
445.96,1.55,3.34,1.56,3.35,-3.35,-3.79,-3.61,-1.80,-1.78,-1.79
450.42,1.53,3.30,1.54,3.29,-3.29,-3.74,-3.60,-1.76,-1.76,-1.77
454.93,1.51,3.24,1.51,3.24,-3.24,-3.70,-3.59,-1.73,-1.73,-1.73
459.48,1.49,3.20,1.50,3.20,-3.20,-3.65,-3.58,-1.71,-1.70,-1.71
464.07,1.48,3.16,1.48,3.16,-3.16,-3.60,-3.56,-1.68,-1.68,-1.68
468.71,1.47,3.11,1.48,3.12,-3.12,-3.55,-3.55,-1.65,-1.65,-1.64
473.40,1.47,3.09,1.47,3.09,-3.09,-3.50,-3.53,-1.62,-1.62,-1.62
478.13,1.47,3.06,1.47,3.07,-3.07,-3.46,-3.51,-1.60,-1.59,-1.59
482.91,1.46,3.02,1.48,3.04,-3.04,-3.41,-3.49,-1.58,-1.56,-1.56
487.74,1.47,3.00,1.49,3.02,-3.02,-3.36,-3.46,-1.55,-1.54,-1.53
492.62,1.49,3.00,1.50,3.00,-3.00,-3.31,-3.44,-1.51,-1.51,-1.50
497.55,1.50,2.99,1.50,2.98,-2.98,-3.26,-3.40,-1.48,-1.48,-1.49
