frequency,raw,error,smoothed,error_smoothed,equalization,parametric_eq,fixed_band_eq,equalized_raw,equalized_smoothed,target
20.00,-1.96,-4.47,-1.92,-4.45,4.45,3.62,1.46,2.50,2.54,2.51
20.20,-1.89,-4.45,-1.86,-4.43,4.43,3.63,1.50,2.55,2.57,2.56
20.40,-1.82,-4.43,-1.80,-4.41,4.41,3.63,1.54,2.59,2.61,2.61
20.61,-1.75,-4.39,-1.74,-4.39,4.39,3.64,1.59,2.64,2.64,2.64
20.81,-1.67,-4.36,-1.69,-4.36,4.36,3.64,1.63,2.69,2.67,2.69
21.02,-1.60,-4.33,-1.63,-4.33,4.33,3.64,1.68,2.74,2.70,2.73
21.23,-1.55,-4.30,-1.58,-4.30,4.30,3.65,1.73,2.76,2.73,2.75
21.44,-1.49,-4.26,-1.52,-4.27,4.27,3.65,1.78,2.79,2.75,2.77
21.66,-1.44,-4.23,-1.47,-4.24,4.24,3.65,1.83,2.80,2.77,2.79
21.87,-1.38,-4.18,-1.42,-4.21,4.21,3.66,1.88,2.83,2.79,2.80
22.09,-1.34,-4.16,-1.37,-4.17,4.17,3.66,1.93,2.83,2.81,2.82
22.31,-1.30,-4.13,-1.32,-4.13,4.13,3.66,1.99,2.84,2.82,2.83
22.54,-1.27,-4.10,-1.27,-4.10,4.10,3.66,2.04,2.83,2.82,2.83
22.76,-1.24,-4.07,-1.23,-4.06,4.06,3.66,2.10,2.82,2.83,2.83
22.99,-1.20,-4.02,-1.18,-4.01,4.01,3.66,2.16,2.81,2.83,2.82
23.22,-1.16,-3.98,-1.13,-3.96,3.96,3.66,2.22,2.81,2.83,2.82
23.45,-1.12,-3.94,-1.09,-3.92,3.92,3.66,2.28,2.80,2.83,2.82
23.69,-1.08,-3.91,-1.04,-3.87,3.87,3.66,2.35,2.79,2.83,2.83
23.92,-1.03,-3.86,-0.99,-3.82,3.82,3.66,2.41,2.79,2.83,2.83
24.16,-0.97,-3.80,-0.94,-3.77,3.77,3.66,2.47,2.80,2.83,2.83
24.40,-0.89,-3.73,-0.89,-3.72,3.72,3.66,2.54,2.84,2.83,2.84
24.65,-0.82,-3.65,-0.85,-3.68,3.68,3.66,2.61,2.86,2.83,2.83
24.89,-0.74,-3.57,-0.80,-3.63,3.63,3.66,2.67,2.89,2.83,2.83
25.14,-0.70,-3.53,-0.76,-3.59,3.59,3.66,2.74,2.89,2.83,2.83
25.39,-0.69,-3.53,-0.72,-3.55,3.55,3.65,2.81,2.86,2.83,2.84
25.65,-0.67,-3.51,-0.68,-3.52,3.52,3.65,2.88,2.85,2.83,2.84
25.91,-0.66,-3.49,-0.65,-3.48,3.48,3.65,2.95,2.83,2.83,2.83
26.16,-0.63,-3.46,-0.62,-3.45,3.45,3.65,3.01,2.82,2.83,2.83
26.43,-0.61,-3.44,-0.59,-3.42,3.42,3.64,3.08,2.81,2.83,2.83
26.69,-0.58,-3.41,-0.56,-3.38,3.38,3.64,3.14,2.81,2.83,2.83
26.96,-0.55,-3.38,-0.53,-3.35,3.35,3.63,3.21,2.80,2.83,2.83
27.23,-0.53,-3.36,-0.50,-3.32,3.32,3.63,3.27,2.80,2.82,2.83
27.50,-0.50,-3.33,-0.48,-3.30,3.30,3.62,3.33,2.80,2.82,2.83
27.77,-0.47,-3.29,-0.45,-3.27,3.27,3.62,3.39,2.80,2.82,2.82
28.05,-0.44,-3.26,-0.42,-3.24,3.24,3.61,3.45,2.80,2.82,2.82
28.33,-0.38,-3.19,-0.39,-3.21,3.21,3.61,3.50,2.83,2.82,2.81
28.62,-0.33,-3.14,-0.36,-3.18,3.18,3.60,3.55,2.85,2.82,2.81
28.90,-0.27,-3.09,-0.33,-3.15,3.15,3.59,3.60,2.88,2.82,2.82
29.19,-0.25,-3.06,-0.30,-3.11,3.11,3.58,3.64,2.86,2.81,2.81
29.48,-0.26,-3.08,-0.26,-3.08,3.08,3.58,3.68,2.82,2.81,2.82
29.78,-0.27,-3.08,-0.23,-3.04,3.04,3.57,3.71,2.77,2.81,2.81
30.08,-0.26,-3.08,-0.20,-3.01,3.01,3.56,3.74,2.75,2.81,2.82
30.38,-0.22,-3.03,-0.18,-2.99,2.99,3.55,3.76,2.77,2.81,2.81
30.68,-0.19,-3.00,-0.16,-2.96,2.96,3.54,3.78,2.77,2.81,2.81
30.99,-0.15,-2.96,-0.13,-2.94,2.94,3.53,3.79,2.79,2.80,2.81
31.30,-0.10,-2.90,-0.11,-2.91,2.91,3.52,3.80,2.82,2.80,2.80
31.61,-0.05,-2.85,-0.09,-2.89,2.89,3.51,3.80,2.85,2.80,2.80
31.93,0.00,-2.80,-0.08,-2.87,2.87,3.50,3.80,2.87,2.80,2.80
32.24,-0.01,-2.80,-0.06,-2.85,2.85,3.49,3.79,2.84,2.79,2.79
32.57,-0.04,-2.83,-0.04,-2.82,2.82,3.48,3.78,2.79,2.79,2.79
32.89,-0.07,-2.86,-0.01,-2.80,2.80,3.46,3.76,2.73,2.78,2.79
33.22,-0.05,-2.83,0.01,-2.77,2.77,3.45,3.74,2.72,2.78,2.78
33.55,-0.01,-2.79,0.02,-2.75,2.75,3.44,3.71,2.74,2.77,2.78
33.89,0.04,-2.73,0.04,-2.73,2.73,3.43,3.68,2.77,2.77,2.77
34.23,0.05,-2.72,0.04,-2.72,2.72,3.41,3.65,2.77,2.76,2.77
34.57,0.05,-2.71,0.05,-2.71,2.71,3.40,3.61,2.76,2.76,2.76
34.92,0.05,-2.71,0.05,-2.70,2.70,3.38,3.57,2.75,2.76,2.76
35.27,0.07,-2.68,0.06,-2.69,2.69,3.37,3.53,2.77,2.75,2.75
35.62,0.09,-2.66,0.07,-2.69,2.69,3.35,3.48,2.78,2.75,2.75
35.97,0.12,-2.63,0.07,-2.68,2.68,3.33,3.44,2.80,2.75,2.75
36.33,0.09,-2.66,0.08,-2.67,2.67,3.32,3.39,2.76,2.75,2.75
36.70,0.06,-2.68,0.07,-2.67,2.67,3.30,3.34,2.73,2.75,2.74
37.06,0.04,-2.70,0.07,-2.68,2.68,3.28,3.29,2.72,2.75,2.74
37.43,0.04,-2.71,0.06,-2.68,2.68,3.26,3.24,2.72,2.75,2.75
37.81,0.05,-2.70,0.06,-2.69,2.69,3.24,3.19,2.74,2.75,2.75
38.19,0.05,-2.69,0.05,-2.69,2.69,3.23,3.14,2.74,2.75,2.74
38.57,0.05,-2.70,0.05,-2.70,2.70,3.21,3.09,2.75,2.75,2.75
38.95,0.05,-2.71,0.04,-2.71,2.71,3.18,3.04,2.76,2.75,2.76
39.34,0.03,-2.72,0.03,-2.72,2.72,3.16,3.00,2.75,2.75,2.75
39.74,0.00,-2.75,0.02,-2.73,2.73,3.14,2.95,2.73,2.75,2.75
40.14,-0.01,-2.76,0.00,-2.75,2.75,3.12,2.90,2.74,2.75,2.75
40.54,0.02,-2.73,-0.01,-2.75,2.75,3.10,2.86,2.78,2.75,2.75
40.94,0.05,-2.69,-0.01,-2.75,2.75,3.07,2.82,2.80,2.74,2.74
41.35,0.01,-2.73,-0.01,-2.75,2.75,3.05,2.78,2.76,2.74,2.74
41.76,-0.03,-2.76,-0.01,-2.74,2.74,3.03,2.74,2.71,2.73,2.73
42.18,-0.05,-2.78,-0.01,-2.73,2.73,3.00,2.70,2.68,2.72,2.73
42.60,-0.05,-2.77,-0.01,-2.72,2.72,2.98,2.66,2.67,2.71,2.72
43.03,-0.05,-2.76,-0.01,-2.71,2.71,2.95,2.63,2.66,2.70,2.71
43.46,-0.05,-2.75,-0.00,-2.69,2.69,2.92,2.60,2.64,2.69,2.70
43.90,-0.05,-2.73,0.01,-2.67,2.67,2.90,2.57,2.62,2.68,2.68
44.33,0.02,-2.64,0.03,-2.64,2.64,2.87,2.54,2.66,2.66,2.66
44.78,0.12,-2.52,0.05,-2.60,2.60,2.84,2.52,2.72,2.65,2.64
45.23,0.14,-2.49,0.06,-2.58,2.58,2.81,2.49,2.72,2.64,2.63
45.68,0.09,-2.53,0.06,-2.56,2.56,2.78,2.47,2.66,2.62,2.62
46.13,0.04,-2.56,0.06,-2.55,2.55,2.75,2.45,2.59,2.61,2.60
46.60,0.01,-2.59,0.06,-2.54,2.54,2.72,2.43,2.55,2.59,2.60
47.06,0.00,-2.58,0.06,-2.52,2.52,2.69,2.42,2.52,2.58,2.58
47.53,0.09,-2.48,0.05,-2.51,2.51,2.65,2.40,2.60,2.56,2.57
48.01,0.17,-2.40,0.05,-2.50,2.50,2.62,2.39,2.67,2.55,2.57
48.49,0.11,-2.44,0.04,-2.49,2.49,2.59,2.38,2.61,2.54,2.55
48.97,0.05,-2.48,0.02,-2.51,2.51,2.55,2.37,2.56,2.52,2.53
49.46,-0.08,-2.59,-0.02,-2.53,2.53,2.52,2.36,2.45,2.51,2.51
49.96,-0.22,-2.71,-0.06,-2.55,2.55,2.48,2.35,2.34,2.50,2.49
50.46,-0.15,-2.63,-0.08,-2.57,2.57,2.44,2.35,2.42,2.48,2.48
50.96,-0.06,-2.53,-0.10,-2.57,2.57,2.41,2.34,2.52,2.47,2.47
51.47,-0.05,-2.50,-0.12,-2.58,2.58,2.37,2.34,2.53,2.46,2.45
51.99,-0.05,-2.49,-0.14,-2.58,2.58,2.33,2.33,2.53,2.44,2.44
52.51,-0.11,-2.54,-0.16,-2.59,2.59,2.29,2.33,2.48,2.43,2.43
53.03,-0.18,-2.61,-0.19,-2.61,2.61,2.25,2.33,2.43,2.42,2.43
53.56,-0.32,-2.73,-0.21,-2.62,2.62,2.21,2.32,2.30,2.41,2.41
54.10,-0.40,-2.80,-0.22,-2.62,2.62,2.16,2.32,2.22,2.40,2.40
54.64,-0.25,-2.63,-0.23,-2.62,2.62,2.12,2.31,2.37,2.39,2.38
55.18,-0.15,-2.53,-0.23,-2.61,2.61,2.08,2.31,2.46,2.38,2.38
55.74,-0.15,-2.51,-0.23,-2.59,2.59,2.03,2.30,2.45,2.36,2.36
56.29,-0.15,-2.50,-0.23,-2.58,2.58,1.99,2.29,2.43,2.35,2.35
56.86,-0.15,-2.49,-0.22,-2.56,2.56,1.94,2.28,2.41,2.34,2.34
57.42,-0.23,-2.54,-0.20,-2.52,2.52,1.89,2.27,2.29,2.32,2.31
58.00,-0.34,-2.64,-0.17,-2.47,2.47,1.85,2.25,2.13,2.30,2.30
58.58,-0.25,-2.54,-0.13,-2.40,2.40,1.80,2.24,2.15,2.28,2.29
59.16,-0.16,-2.43,-0.08,-2.33,2.33,1.75,2.22,2.17,2.25,2.27
59.76,-0.07,-2.32,-0.03,-2.26,2.26,1.70,2.19,2.19,2.23,2.25
60.35,0.01,-2.20,-0.00,-2.20,2.20,1.64,2.17,2.21,2.20,2.21
60.96,0.08,-2.09,0.01,-2.15,2.15,1.59,2.14,2.23,2.16,2.17
61.57,0.12,-2.01,0.04,-2.08,2.08,1.54,2.10,2.20,2.13,2.13
62.18,0.15,-1.94,0.07,-2.01,2.01,1.48,2.07,2.16,2.09,2.09
62.80,0.15,-1.89,0.10,-1.95,1.95,1.43,2.03,2.10,2.05,2.04
63.43,0.15,-1.85,0.11,-1.89,1.89,1.37,1.98,2.05,2.00,2.00
64.07,0.15,-1.80,0.12,-1.84,1.84,1.31,1.94,1.99,1.96,1.95
64.71,0.15,-1.76,0.11,-1.80,1.80,1.26,1.88,1.95,1.91,1.91
65.35,0.09,-1.78,0.09,-1.78,1.78,1.20,1.83,1.87,1.87,1.87
66.01,-0.02,-1.84,0.06,-1.76,1.76,1.14,1.77,1.74,1.82,1.82
66.67,0.02,-1.75,0.02,-1.75,1.75,1.08,1.71,1.77,1.77,1.77
67.33,0.03,-1.69,-0.02,-1.75,1.75,1.01,1.64,1.78,1.72,1.72
68.01,0.00,-1.68,-0.05,-1.72,1.72,0.95,1.58,1.72,1.68,1.68
68.69,-0.14,-1.77,-0.07,-1.70,1.70,0.89,1.50,1.56,1.63,1.63
69.37,-0.19,-1.77,-0.10,-1.67,1.67,0.82,1.43,1.48,1.57,1.58
70.07,-0.15,-1.68,-0.13,-1.65,1.65,0.76,1.35,1.50,1.52,1.53
70.77,-0.15,-1.63,-0.15,-1.62,1.62,0.69,1.27,1.47,1.47,1.48
71.48,-0.15,-1.58,-0.16,-1.57,1.57,0.62,1.19,1.43,1.41,1.43
72.19,-0.15,-1.51,-0.16,-1.51,1.51,0.55,1.11,1.37,1.36,1.36
72.91,-0.15,-1.45,-0.14,-1.44,1.44,0.48,1.02,1.30,1.30,1.30
73.64,-0.15,-1.40,-0.13,-1.37,1.37,0.41,0.94,1.23,1.25,1.25
74.38,-0.06,-1.25,-0.11,-1.30,1.30,0.34,0.85,1.24,1.19,1.19
75.12,0.06,-1.07,-0.07,-1.21,1.21,0.27,0.76,1.27,1.13,1.13
75.87,-0.15,-1.22,-0.02,-1.10,1.10,0.19,0.67,0.95,1.08,1.07
76.63,-0.11,-1.13,0.04,-0.99,0.99,0.12,0.58,0.88,1.02,1.02
77.40,0.04,-0.93,0.10,-0.87,0.87,0.04,0.48,0.91,0.97,0.97
78.17,0.24,-0.67,0.17,-0.75,0.75,-0.03,0.39,0.99,0.92,0.91
78.95,0.35,-0.52,0.25,-0.62,0.62,-0.11,0.29,0.97,0.87,0.87
79.74,0.35,-0.47,0.33,-0.48,0.48,-0.19,0.20,0.83,0.82,0.82
80.54,0.37,-0.40,0.43,-0.34,0.34,-0.27,0.10,0.71,0.77,0.77
81.35,0.48,-0.24,0.53,-0.19,0.19,-0.35,0.00,0.67,0.72,0.72
82.16,0.68,0.01,0.64,-0.03,0.03,-0.43,-0.10,0.71,0.67,0.67
82.98,0.78,0.15,0.77,0.14,-0.14,-0.51,-0.20,0.64,0.62,0.63
83.81,0.92,0.34,0.90,0.32,-0.32,-0.59,-0.30,0.60,0.58,0.58
84.65,1.02,0.49,1.05,0.52,-0.52,-0.67,-0.40,0.50,0.53,0.53
85.50,1.15,0.66,1.18,0.71,-0.71,-0.75,-0.50,0.45,0.48,0.49
86.35,1.29,0.85,1.33,0.90,-0.90,-0.84,-0.60,0.39,0.43,0.44
87.22,1.42,1.03,1.48,1.09,-1.09,-0.92,-0.70,0.33,0.38,0.39
88.09,1.57,1.23,1.63,1.29,-1.29,-1.01,-0.81,0.28,0.33,0.34
88.97,1.79,1.51,1.79,1.51,-1.51,-1.09,-0.91,0.28,0.28,0.28
89.86,1.99,1.76,1.95,1.72,-1.72,-1.18,-1.02,0.27,0.23,0.23
90.76,2.13,1.95,2.10,1.92,-1.92,-1.26,-1.12,0.21,0.18,0.18
91.66,2.24,2.11,2.23,2.11,-2.11,-1.35,-1.23,0.14,0.13,0.13
92.58,2.37,2.30,2.37,2.29,-2.29,-1.43,-1.33,0.08,0.08,0.07
93.51,2.51,2.49,2.49,2.46,-2.46,-1.52,-1.44,0.05,0.03,0.02
94.44,2.65,2.67,2.60,2.62,-2.62,-1.61,-1.55,0.03,-0.02,-0.02
95.39,2.76,2.83,2.69,2.77,-2.77,-1.69,-1.66,-0.01,-0.07,-0.07
96.34,2.77,2.89,2.78,2.90,-2.90,-1.78,-1.77,-0.13,-0.12,-0.12
97.30,2.85,3.02,2.85,3.02,-3.02,-1.86,-1.88,-0.17,-0.17,-0.17
98.28,3.03,3.25,2.91,3.13,-3.13,-1.95,-1.98,-0.10,-0.22,-0.22
99.26,2.92,3.18,2.96,3.22,-3.22,-2.03,-2.09,-0.30,-0.27,-0.26
100.25,2.89,3.20,3.00,3.31,-3.31,-2.11,-2.20,-0.42,-0.31,-0.31
101.25,3.00,3.36,3.02,3.38,-3.38,-2.20,-2.31,-0.38,-0.36,-0.36
102.27,2.96,3.37,3.03,3.44,-3.44,-2.28,-2.42,-0.48,-0.41,-0.41
103.29,3.01,3.47,3.03,3.49,-3.49,-2.36,-2.53,-0.48,-0.46,-0.46
104.32,3.04,3.54,3.01,3.52,-3.52,-2.44,-2.63,-0.48,-0.51,-0.50
105.37,3.04,3.59,2.99,3.55,-3.55,-2.51,-2.74,-0.51,-0.56,-0.55
106.42,3.02,3.62,2.96,3.57,-3.57,-2.59,-2.84,-0.55,-0.61,-0.60
107.48,3.01,3.67,2.92,3.58,-3.58,-2.66,-2.94,-0.57,-0.66,-0.66
108.56,2.95,3.66,2.87,3.59,-3.59,-2.73,-3.04,-0.64,-0.71,-0.71
109.64,2.82,3.58,2.83,3.60,-3.60,-2.80,-3.13,-0.78,-0.77,-0.76
110.74,2.74,3.56,2.80,3.62,-3.62,-2.87,-3.22,-0.88,-0.82,-0.82
111.85,2.67,3.53,2.75,3.62,-3.62,-2.94,-3.31,-0.95,-0.87,-0.86
112.97,2.60,3.52,2.70,3.62,-3.62,-3.00,-3.39,-1.01,-0.92,-0.92
114.10,2.53,3.50,2.63,3.60,-3.60,-3.06,-3.47,-1.07,-0.97,-0.97
115.24,2.49,3.51,2.56,3.57,-3.57,-3.12,-3.54,-1.08,-1.02,-1.02
116.39,2.49,3.56,2.49,3.55,-3.55,-3.17,-3.61,-1.06,-1.06,-1.07
117.55,2.45,3.56,2.41,3.51,-3.51,-3.22,-3.67,-1.06,-1.10,-1.11
118.73,2.36,3.51,2.33,3.47,-3.47,-3.27,-3.73,-1.11,-1.14,-1.15
119.92,2.42,3.60,2.24,3.42,-3.42,-3.31,-3.77,-1.00,-1.18,-1.18
121.12,2.32,3.54,2.16,3.38,-3.38,-3.35,-3.81,-1.06,-1.22,-1.22
122.33,2.11,3.36,2.09,3.34,-3.34,-3.38,-3.84,-1.23,-1.25,-1.25
123.55,1.96,3.24,2.01,3.29,-3.29,-3.42,-3.87,-1.33,-1.28,-1.28
124.79,1.86,3.17,1.92,3.24,-3.24,-3.44,-3.88,-1.37,-1.32,-1.31
126.03,1.70,3.04,1.83,3.17,-3.17,-3.47,-3.89,-1.47,-1.35,-1.34
127.29,1.69,3.05,1.74,3.11,-3.11,-3.49,-3.89,-1.42,-1.38,-1.36
128.57,1.63,3.03,1.64,3.05,-3.05,-3.50,-3.88,-1.42,-1.40,-1.40
129.85,1.45,2.88,1.54,2.97,-2.97,-3.51,-3.87,-1.52,-1.43,-1.43
131.15,1.38,2.84,1.46,2.92,-2.92,-3.52,-3.85,-1.54,-1.46,-1.46
132.46,1.48,2.97,1.38,2.87,-2.87,-3.52,-3.82,-1.39,-1.49,-1.49
133.79,1.45,2.97,1.29,2.81,-2.81,-3.52,-3.78,-1.36,-1.52,-1.52
135.12,1.21,2.76,1.22,2.77,-2.77,-3.51,-3.74,-1.55,-1.55,-1.55
136.48,1.15,2.72,1.15,2.73,-2.73,-3.50,-3.69,-1.58,-1.57,-1.57
137.84,0.96,2.57,1.08,2.68,-2.68,-3.48,-3.63,-1.72,-1.60,-1.61
139.22,1.02,2.66,1.01,2.64,-2.64,-3.46,-3.57,-1.62,-1.63,-1.64
140.61,0.99,2.66,0.94,2.60,-2.60,-3.44,-3.51,-1.61,-1.66,-1.67
142.02,0.76,2.45,0.87,2.56,-2.56,-3.41,-3.44,-1.80,-1.69,-1.69
143.44,0.79,2.51,0.78,2.51,-2.51,-3.38,-3.37,-1.72,-1.73,-1.72
144.87,0.85,2.61,0.69,2.46,-2.46,-3.35,-3.30,-1.60,-1.77,-1.76
146.32,0.53,2.33,0.58,2.39,-2.39,-3.31,-3.22,-1.86,-1.81,-1.80
147.78,0.42,2.25,0.46,2.32,-2.32,-3.27,-3.14,-1.90,-1.86,-1.83
149.26,0.50,2.38,0.37,2.28,-2.28,-3.22,-3.07,-1.78,-1.91,-1.88
150.75,0.31,2.25,0.27,2.24,-2.24,-3.17,-2.98,-1.93,-1.97,-1.94
152.26,0.25,2.26,0.18,2.21,-2.21,-3.12,-2.90,-1.96,-2.03,-2.01
153.78,0.28,2.36,0.09,2.19,-2.19,-3.07,-2.82,-1.91,-2.10,-2.08
155.32,0.01,2.16,0.01,2.18,-2.18,-3.01,-2.74,-2.17,-2.17,-2.15
156.88,-0.22,2.01,-0.04,2.19,-2.19,-2.95,-2.66,-2.41,-2.24,-2.23
158.44,-0.41,1.90,-0.08,2.23,-2.23,-2.89,-2.58,-2.63,-2.31,-2.31
160.03,-0.29,2.10,-0.12,2.25,-2.25,-2.83,-2.49,-2.54,-2.37,-2.39
161.63,-0.27,2.19,-0.15,2.29,-2.29,-2.76,-2.41,-2.56,-2.44,-2.46
163.24,-0.22,2.30,-0.16,2.34,-2.34,-2.69,-2.33,-2.56,-2.50,-2.52
164.88,-0.15,2.42,-0.19,2.37,-2.37,-2.62,-2.25,-2.52,-2.56,-2.57
166.53,-0.20,2.42,-0.22,2.38,-2.38,-2.55,-2.18,-2.58,-2.61,-2.62
168.19,-0.11,2.55,-0.25,2.40,-2.40,-2.48,-2.10,-2.51,-2.65,-2.66
169.87,-0.05,2.65,-0.26,2.42,-2.42,-2.41,-2.02,-2.46,-2.68,-2.70
171.57,-0.10,2.62,-0.28,2.43,-2.43,-2.34,-1.95,-2.52,-2.70,-2.72
173.29,-0.18,2.55,-0.30,2.42,-2.42,-2.26,-1.88,-2.60,-2.72,-2.73
175.02,-0.30,2.44,-0.34,2.40,-2.40,-2.19,-1.81,-2.70,-2.74,-2.74
176.77,-0.42,2.33,-0.39,2.36,-2.36,-2.11,-1.74,-2.78,-2.75,-2.75
178.54,-0.53,2.23,-0.45,2.30,-2.30,-2.04,-1.67,-2.83,-2.75,-2.76
180.32,-0.63,2.12,-0.52,2.24,-2.24,-1.96,-1.60,-2.87,-2.76,-2.75
182.13,-0.69,2.05,-0.59,2.18,-2.18,-1.89,-1.53,-2.87,-2.77,-2.74
183.95,-0.75,2.00,-0.65,2.12,-2.12,-1.81,-1.47,-2.87,-2.77,-2.75
185.79,-0.70,2.05,-0.71,2.07,-2.07,-1.73,-1.41,-2.77,-2.78,-2.75
187.65,-0.63,2.14,-0.77,2.01,-2.01,-1.66,-1.34,-2.64,-2.79,-2.77
189.52,-0.96,1.82,-0.83,1.96,-1.96,-1.58,-1.28,-2.92,-2.80,-2.78
191.42,-1.01,1.79,-0.87,1.93,-1.93,-1.51,-1.22,-2.94,-2.81,-2.80
193.33,-0.88,1.94,-0.91,1.91,-1.91,-1.43,-1.17,-2.79,-2.82,-2.82
195.27,-0.86,1.98,-0.95,1.89,-1.89,-1.36,-1.11,-2.75,-2.84,-2.84
197.22,-0.95,1.91,-0.99,1.87,-1.87,-1.28,-1.05,-2.82,-2.86,-2.86
199.19,-1.02,1.86,-1.03,1.85,-1.85,-1.21,-1.00,-2.87,-2.88,-2.88
201.18,-0.99,1.91,-1.08,1.82,-1.82,-1.13,-0.95,-2.81,-2.90,-2.90
203.19,-1.11,1.81,-1.13,1.79,-1.79,-1.06,-0.90,-2.89,-2.92,-2.92
205.23,-1.27,1.67,-1.19,1.75,-1.75,-0.99,-0.84,-3.02,-2.94,-2.94
207.28,-1.28,1.67,-1.25,1.71,-1.71,-0.92,-0.80,-2.99,-2.96,-2.95
209.35,-1.30,1.67,-1.32,1.66,-1.66,-0.85,-0.75,-2.96,-2.98,-2.97
211.44,-1.36,1.64,-1.37,1.62,-1.62,-0.78,-0.70,-2.98,-3.00,-3.00
213.56,-1.49,1.52,-1.45,1.56,-1.56,-0.71,-0.65,-3.05,-3.01,-3.01
215.69,-1.56,1.46,-1.54,1.48,-1.48,-0.64,-0.61,-3.04,-3.03,-3.02
217.85,-1.60,1.43,-1.63,1.40,-1.40,-0.58,-0.56,-3.00,-3.04,-3.03
220.03,-1.72,1.32,-1.72,1.32,-1.32,-0.51,-0.52,-3.04,-3.05,-3.04
222.23,-1.81,1.26,-1.81,1.24,-1.24,-0.45,-0.48,-3.05,-3.05,-3.07
224.45,-1.85,1.21,-1.91,1.14,-1.14,-0.38,-0.44,-2.99,-3.05,-3.06
226.70,-1.95,1.11,-2.01,1.05,-1.05,-0.32,-0.40,-3.00,-3.05,-3.06
228.96,-2.07,0.98,-2.10,0.95,-0.95,-0.26,-0.36,-3.02,-3.05,-3.05
231.25,-2.22,0.82,-2.19,0.85,-0.85,-0.20,-0.32,-3.07,-3.04,-3.04
233.57,-2.29,0.74,-2.28,0.75,-0.75,-0.14,-0.28,-3.04,-3.03,-3.03
235.90,-2.40,0.62,-2.36,0.66,-0.66,-0.08,-0.25,-3.05,-3.02,-3.02
238.26,-2.51,0.50,-2.44,0.56,-0.56,-0.03,-0.21,-3.07,-3.00,-3.01
240.64,-2.57,0.41,-2.51,0.46,-0.46,0.03,-0.18,-3.03,-2.98,-2.98
243.05,-2.61,0.34,-2.58,0.38,-0.38,0.08,-0.14,-2.99,-2.96,-2.95
245.48,-2.64,0.29,-2.63,0.30,-0.30,0.14,-0.11,-2.94,-2.94,-2.93
247.93,-2.72,0.18,-2.68,0.24,-0.24,0.19,-0.08,-2.95,-2.91,-2.90
250.41,-2.74,0.14,-2.72,0.17,-0.17,0.24,-0.05,-2.91,-2.89,-2.88
252.92,-2.67,0.18,-2.76,0.11,-0.11,0.29,-0.02,-2.78,-2.86,-2.85
255.45,-2.74,0.09,-2.79,0.05,-0.05,0.34,0.01,-2.79,-2.84,-2.83
258.00,-2.86,-0.05,-2.82,-0.01,0.01,0.39,0.04,-2.85,-2.81,-2.81
260.58,-2.89,-0.10,-2.84,-0.05,0.05,0.43,0.07,-2.83,-2.79,-2.79
263.19,-2.87,-0.11,-2.87,-0.10,0.10,0.48,0.09,-2.77,-2.76,-2.76
265.82,-2.84,-0.10,-2.89,-0.15,0.15,0.52,0.12,-2.68,-2.74,-2.74
268.48,-2.84,-0.12,-2.93,-0.21,0.21,0.57,0.14,-2.63,-2.72,-2.72
271.16,-2.94,-0.25,-2.96,-0.27,0.27,0.61,0.17,-2.67,-2.69,-2.69
273.87,-3.01,-0.34,-2.99,-0.32,0.32,0.65,0.20,-2.69,-2.67,-2.67
276.61,-3.11,-0.47,-3.02,-0.38,0.38,0.69,0.22,-2.73,-2.64,-2.64
279.38,-3.11,-0.50,-3.05,-0.44,0.44,0.73,0.24,-2.67,-2.61,-2.61
282.17,-3.08,-0.49,-3.09,-0.50,0.50,0.76,0.27,-2.57,-2.59,-2.59
284.99,-3.05,-0.50,-3.12,-0.56,0.56,0.80,0.29,-2.49,-2.56,-2.55
287.84,-3.09,-0.56,-3.15,-0.62,0.62,0.83,0.32,-2.47,-2.53,-2.53
290.72,-3.27,-0.77,-3.19,-0.69,0.69,0.87,0.34,-2.58,-2.50,-2.50
293.63,-3.28,-0.81,-3.23,-0.76,0.76,0.90,0.36,-2.52,-2.47,-2.47
296.57,-3.25,-0.81,-3.27,-0.83,0.83,0.93,0.39,-2.42,-2.44,-2.44
299.53,-3.30,-0.89,-3.31,-0.90,0.90,0.96,0.41,-2.40,-2.41,-2.41
302.53,-3.34,-0.95,-3.35,-0.96,0.96,0.99,0.44,-2.37,-2.39,-2.39
305.55,-3.39,-1.04,-3.40,-1.04,1.04,1.02,0.46,-2.35,-2.36,-2.35
308.61,-3.45,-1.12,-3.45,-1.12,1.12,1.05,0.49,-2.33,-2.33,-2.33
311.69,-3.50,-1.20,-3.51,-1.20,1.20,1.07,0.51,-2.30,-2.31,-2.30
314.81,-3.54,-1.26,-3.57,-1.28,1.28,1.10,0.54,-2.26,-2.29,-2.28
317.96,-3.61,-1.35,-3.64,-1.37,1.37,1.12,0.56,-2.24,-2.27,-2.26
321.14,-3.70,-1.45,-3.70,-1.45,1.45,1.15,0.59,-2.25,-2.25,-2.25
324.35,-3.74,-1.51,-3.76,-1.53,1.53,1.17,0.62,-2.21,-2.23,-2.23
327.59,-3.85,-1.63,-3.83,-1.61,1.61,1.19,0.65,-2.24,-2.22,-2.22
330.87,-3.92,-1.71,-3.90,-1.70,1.70,1.21,0.68,-2.22,-2.20,-2.21
334.18,-3.98,-1.79,-3.97,-1.78,1.78,1.23,0.71,-2.20,-2.19,-2.19
337.52,-4.06,-1.88,-4.04,-1.85,1.85,1.24,0.74,-2.21,-2.18,-2.18
340.90,-4.08,-1.91,-4.10,-1.92,1.92,1.26,0.77,-2.16,-2.18,-2.17
344.30,-4.10,-1.94,-4.15,-1.98,1.98,1.28,0.80,-2.11,-2.17,-2.16
347.75,-4.24,-2.08,-4.20,-2.04,2.04,1.29,0.83,-2.20,-2.16,-2.16
351.23,-4.30,-2.15,-4.25,-2.09,2.09,1.30,0.86,-2.21,-2.16,-2.15
354.74,-4.28,-2.12,-4.29,-2.13,2.13,1.32,0.90,-2.15,-2.15,-2.16
358.28,-4.32,-2.17,-4.32,-2.17,2.17,1.33,0.93,-2.15,-2.15,-2.15
361.87,-4.37,-2.22,-4.34,-2.19,2.19,1.34,0.97,-2.18,-2.15,-2.15
365.49,-4.38,-2.24,-4.35,-2.20,2.20,1.35,1.00,-2.18,-2.15,-2.14
369.14,-4.37,-2.22,-4.36,-2.21,2.21,1.36,1.04,-2.16,-2.15,-2.15
372.83,-4.36,-2.21,-4.36,-2.21,2.21,1.37,1.08,-2.15,-2.15,-2.15
376.56,-4.35,-2.19,-4.36,-2.21,2.21,1.37,1.12,-2.14,-2.15,-2.16
380.33,-4.35,-2.20,-4.36,-2.20,2.20,1.38,1.16,-2.15,-2.16,-2.15
384.13,-4.34,-2.19,-4.34,-2.18,2.18,1.38,1.20,-2.16,-2.16,-2.15
387.97,-4.34,-2.18,-4.32,-2.16,2.16,1.39,1.23,-2.18,-2.16,-2.16
391.85,-4.30,-2.13,-4.30,-2.13,2.13,1.39,1.28,-2.17,-2.17,-2.17
395.77,-4.23,-2.07,-4.28,-2.11,2.11,1.39,1.32,-2.12,-2.17,-2.16
399.73,-4.22,-2.05,-4.26,-2.08,2.08,1.39,1.36,-2.14,-2.18,-2.17
403.72,-4.23,-2.06,-4.23,-2.05,2.05,1.39,1.40,-2.18,-2.19,-2.17
407.76,-4.24,-2.05,-4.21,-2.02,2.02,1.39,1.44,-2.22,-2.19,-2.19
411.84,-4.20,-2.01,-4.18,-1.99,1.99,1.39,1.48,-2.21,-2.19,-2.19
415.96,-4.15,-1.96,-4.16,-1.96,1.96,1.39,1.52,-2.18,-2.19,-2.19
420.12,-4.08,-1.89,-4.12,-1.93,1.93,1.39,1.56,-2.15,-2.19,-2.19
424.32,-4.04,-1.85,-4.08,-1.89,1.89,1.38,1.60,-2.15,-2.18,-2.19
428.56,-4.02,-1.84,-4.03,-1.85,1.85,1.38,1.64,-2.17,-2.17,-2.18
432.85,-4.02,-1.85,-3.97,-1.81,1.81,1.37,1.67,-2.21,-2.16,-2.17
437.18,-4.00,-1.84,-3.91,-1.77,1.77,1.36,1.71,-2.23,-2.14,-2.16
441.55,-3.88,-1.76,-3.84,-1.73,1.73,1.36,1.74,-2.15,-2.11,-2.12
445.96,-3.80,-1.71,-3.77,-1.69,1.69,1.35,1.77,-2.11,-2.08,-2.09
450.42,-3.75,-1.69,-3.69,-1.64,1.64,1.34,1.80,-2.10,-2.05,-2.06
454.93,-3.62,-1.61,-3.61,-1.60,1.60,1.33,1.83,-2.02,-2.00,-2.01
459.48,-3.50,-1.53,-3.53,-1.57,1.57,1.32,1.86,-1.93,-1.96,-1.97
464.07,-3.38,-1.46,-3.44,-1.53,1.53,1.31,1.88,-1.85,-1.91,-1.92
468.71,-3.32,-1.46,-3.36,-1.49,1.49,1.30,1.90,-1.82,-1.87,-1.86
473.40,-3.25,-1.43,-3.29,-1.47,1.47,1.28,1.91,-1.78,-1.82,-1.82
478.13,-3.20,-1.44,-3.21,-1.44,1.44,1.27,1.92,-1.76,-1.77,-1.76
482.91,-3.15,-1.43,-3.14,-1.42,1.42,1.25,1.93,-1.73,-1.72,-1.72
487.74,-3.09,-1.41,-3.07,-1.39,1.39,1.24,1.94,-1.70,-1.68,-1.68
