frequency,raw,error,smoothed,error_smoothed,equalization,parametric_eq,fixed_band_eq,equalized_raw,equalized_smoothed,target
20.00,-1.81,-5.75,-1.81,-5.75,5.75,5.30,1.84,3.94,3.94,3.94
20.20,-1.75,-5.73,-1.75,-5.73,5.73,5.27,1.89,3.98,3.98,3.98
20.40,-1.69,-5.71,-1.69,-5.71,5.71,5.24,1.95,4.02,4.02,4.02
20.61,-1.63,-5.68,-1.63,-5.68,5.68,5.21,2.01,4.06,4.06,4.05
20.81,-1.57,-5.66,-1.57,-5.66,5.66,5.17,2.06,4.09,4.09,4.09
21.02,-1.51,-5.64,-1.51,-5.63,5.63,5.14,2.13,4.12,4.12,4.13
21.23,-1.45,-5.60,-1.45,-5.60,5.59,5.11,2.19,4.15,4.15,4.15
21.44,-1.39,-5.56,-1.39,-5.56,5.56,5.07,2.26,4.17,4.17,4.17
21.66,-1.33,-5.52,-1.33,-5.51,5.52,5.04,2.32,4.19,4.19,4.19
21.87,-1.27,-5.47,-1.27,-5.47,5.47,5.00,2.39,4.21,4.21,4.20
22.09,-1.21,-5.43,-1.21,-5.42,5.42,4.97,2.46,4.22,4.22,4.22
22.31,-1.15,-5.38,-1.15,-5.38,5.38,4.93,2.54,4.23,4.23,4.23
22.54,-1.09,-5.33,-1.09,-5.33,5.32,4.90,2.61,4.24,4.24,4.24
22.76,-1.03,-5.28,-1.03,-5.27,5.27,4.86,2.69,4.25,4.25,4.25
22.99,-0.97,-5.22,-0.97,-5.22,5.22,4.83,2.77,4.26,4.26,4.25
23.22,-0.91,-5.17,-0.91,-5.17,5.17,4.79,2.85,4.27,4.27,4.26
23.45,-0.85,-5.12,-0.85,-5.12,5.12,4.75,2.93,4.28,4.28,4.27
23.69,-0.79,-5.07,-0.79,-5.07,5.07,4.72,3.02,4.28,4.28,4.28
23.92,-0.73,-5.02,-0.73,-5.02,5.02,4.68,3.10,4.29,4.29,4.29
24.16,-0.67,-4.98,-0.66,-4.97,4.97,4.64,3.19,4.30,4.30,4.31
24.40,-0.60,-4.93,-0.60,-4.92,4.91,4.61,3.28,4.32,4.32,4.33
24.65,-0.54,-4.86,-0.54,-4.87,4.86,4.57,3.37,4.33,4.33,4.32
24.89,-0.48,-4.81,-0.47,-4.81,4.81,4.53,3.46,4.33,4.34,4.33
25.14,-0.42,-4.76,-0.41,-4.75,4.76,4.49,3.55,4.34,4.34,4.34
25.39,-0.35,-4.70,-0.35,-4.70,4.70,4.45,3.64,4.36,4.35,4.35
25.65,-0.29,-4.66,-0.29,-4.65,4.65,4.42,3.73,4.36,4.36,4.37
25.91,-0.23,-4.60,-0.23,-4.60,4.60,4.38,3.82,4.37,4.37,4.37
26.16,-0.17,-4.55,-0.17,-4.55,4.55,4.34,3.91,4.38,4.38,4.38
26.43,-0.11,-4.50,-0.11,-4.50,4.50,4.30,4.00,4.39,4.39,4.39
26.69,-0.05,-4.45,-0.05,-4.45,4.45,4.26,4.09,4.40,4.40,4.40
26.96,0.01,-4.41,0.01,-4.40,4.40,4.22,4.18,4.41,4.41,4.42
27.23,0.07,-4.36,0.07,-4.35,4.35,4.18,4.26,4.42,4.42,4.43
27.50,0.13,-4.30,0.13,-4.30,4.30,4.14,4.35,4.43,4.43,4.43
27.77,0.19,-4.24,0.20,-4.24,4.25,4.10,4.42,4.44,4.44,4.43
28.05,0.25,-4.20,0.25,-4.19,4.20,4.06,4.50,4.45,4.45,4.45
28.33,0.31,-4.14,0.31,-4.14,4.15,4.02,4.57,4.46,4.46,4.45
28.62,0.36,-4.10,0.37,-4.09,4.09,3.98,4.64,4.46,4.46,4.46
28.90,0.42,-4.05,0.42,-4.04,4.04,3.94,4.69,4.47,4.47,4.47
29.19,0.48,-3.99,0.48,-4.00,3.99,3.90,4.75,4.48,4.48,4.47
29.48,0.54,-3.96,0.54,-3.94,3.94,3.86,4.79,4.49,4.49,4.50
29.78,0.60,-3.89,0.60,-3.89,3.89,3.82,4.83,4.49,4.49,4.49
30.08,0.66,-3.84,0.66,-3.84,3.84,3.77,4.86,4.50,4.50,4.50
30.38,0.72,-3.78,0.72,-3.78,3.78,3.73,4.89,4.51,4.51,4.50
30.68,0.78,-3.74,0.78,-3.73,3.73,3.69,4.90,4.52,4.51,4.52
30.99,0.84,-3.68,0.84,-3.68,3.68,3.65,4.91,4.52,4.52,4.52
31.30,0.89,-3.63,0.90,-3.63,3.63,3.61,4.91,4.52,4.53,4.52
31.61,0.95,-3.58,0.95,-3.57,3.58,3.56,4.90,4.53,4.53,4.53
31.93,1.01,-3.53,1.01,-3.53,3.53,3.52,4.87,4.54,4.54,4.54
32.24,1.06,-3.48,1.06,-3.48,3.49,3.48,4.85,4.55,4.55,4.54
32.57,1.11,-3.45,1.12,-3.44,3.44,3.44,4.81,4.55,4.55,4.56
32.89,1.16,-3.40,1.17,-3.40,3.39,3.39,4.77,4.56,4.56,4.56
33.22,1.22,-3.35,1.22,-3.35,3.35,3.35,4.71,4.57,4.57,4.57
33.55,1.27,-3.31,1.28,-3.30,3.30,3.31,4.66,4.57,4.58,4.58
33.89,1.33,-3.26,1.33,-3.26,3.25,3.26,4.59,4.59,4.59,4.59
34.23,1.38,-3.21,1.39,-3.21,3.21,3.22,4.52,4.59,4.60,4.59
34.57,1.44,-3.16,1.44,-3.16,3.16,3.18,4.44,4.61,4.60,4.60
34.92,1.49,-3.11,1.49,-3.11,3.12,3.13,4.36,4.61,4.61,4.60
35.27,1.53,-3.08,1.54,-3.07,3.07,3.09,4.27,4.60,4.61,4.61
35.62,1.58,-3.03,1.58,-3.03,3.03,3.05,4.18,4.61,4.61,4.61
35.97,1.63,-2.98,1.63,-2.98,2.98,3.00,4.08,4.62,4.61,4.61
36.33,1.67,-2.95,1.68,-2.94,2.94,2.96,3.99,4.61,4.61,4.62
36.70,1.72,-2.89,1.72,-2.89,2.89,2.92,3.89,4.62,4.62,4.61
37.06,1.77,-2.85,1.77,-2.84,2.85,2.87,3.79,4.62,4.62,4.62
37.43,1.82,-2.80,1.82,-2.80,2.80,2.83,3.68,4.62,4.62,4.62
37.81,1.87,-2.75,1.87,-2.75,2.75,2.78,3.58,4.62,4.62,4.62
38.19,1.91,-2.71,1.92,-2.70,2.70,2.74,3.48,4.61,4.61,4.62
38.57,1.96,-2.65,1.96,-2.65,2.64,2.69,3.37,4.61,4.61,4.61
38.95,2.01,-2.60,2.02,-2.59,2.59,2.65,3.27,4.61,4.61,4.61
39.34,2.07,-2.53,2.07,-2.53,2.54,2.61,3.16,4.61,4.61,4.60
39.74,2.12,-2.48,2.12,-2.48,2.48,2.56,3.06,4.61,4.61,4.60
40.14,2.17,-2.43,2.17,-2.43,2.43,2.52,2.96,4.60,4.60,4.60
40.54,2.21,-2.39,2.22,-2.38,2.38,2.47,2.85,4.59,4.59,4.60
40.94,2.26,-2.33,2.27,-2.33,2.32,2.43,2.75,4.59,4.59,4.59
41.35,2.32,-2.27,2.32,-2.27,2.27,2.38,2.65,4.60,4.59,4.59
41.76,2.37,-2.22,2.37,-2.22,2.22,2.34,2.56,4.60,4.60,4.59
42.18,2.42,-2.17,2.42,-2.17,2.17,2.29,2.46,4.59,4.59,4.59
42.60,2.47,-2.12,2.47,-2.12,2.12,2.25,2.36,4.59,4.59,4.59
43.03,2.51,-2.08,2.52,-2.07,2.06,2.20,2.27,4.57,4.58,4.59
43.46,2.57,-2.02,2.57,-2.01,2.00,2.15,2.18,4.58,4.58,4.59
43.90,2.63,-1.94,2.63,-1.95,1.95,2.11,2.09,4.58,4.58,4.57
44.33,2.68,-1.89,2.69,-1.88,1.89,2.06,2.00,4.57,4.58,4.57
44.78,2.73,-1.83,2.74,-1.83,1.83,2.02,1.91,4.57,4.57,4.56
45.23,2.79,-1.77,2.79,-1.77,1.78,1.97,1.83,4.57,4.56,4.56
45.68,2.83,-1.73,2.84,-1.72,1.72,1.93,1.74,4.55,4.56,4.56
46.13,2.88,-1.67,2.89,-1.67,1.67,1.88,1.66,4.55,4.56,4.55
46.60,2.94,-1.62,2.94,-1.61,1.62,1.83,1.58,4.56,4.56,4.56
47.06,2.99,-1.56,2.99,-1.56,1.56,1.79,1.50,4.56,4.55,4.55
47.53,3.03,-1.51,3.04,-1.51,1.51,1.74,1.42,4.55,4.55,4.54
48.01,3.07,-1.48,3.07,-1.47,1.46,1.69,1.34,4.54,4.54,4.55
48.49,3.11,-1.42,3.11,-1.42,1.41,1.65,1.27,4.52,4.53,4.53
48.97,3.15,-1.36,3.15,-1.36,1.36,1.60,1.20,4.51,4.51,4.51
49.46,3.19,-1.31,3.19,-1.30,1.31,1.55,1.12,4.50,4.50,4.50
49.96,3.23,-1.25,3.23,-1.25,1.25,1.51,1.05,4.49,4.49,4.48
50.46,3.27,-1.21,3.27,-1.20,1.20,1.46,0.98,4.47,4.47,4.48
50.96,3.31,-1.15,3.31,-1.15,1.15,1.41,0.91,4.46,4.46,4.46
51.47,3.34,-1.09,3.35,-1.09,1.09,1.36,0.85,4.43,4.44,4.43
51.99,3.38,-1.04,3.38,-1.04,1.04,1.31,0.78,4.42,4.42,4.42
52.51,3.42,-0.99,3.42,-0.98,0.98,1.27,0.72,4.40,4.41,4.41
53.03,3.46,-0.93,3.47,-0.93,0.93,1.22,0.65,4.39,4.39,4.39
53.56,3.51,-0.87,3.51,-0.87,0.87,1.17,0.59,4.39,4.38,4.38
54.10,3.54,-0.81,3.54,-0.81,0.82,1.12,0.53,4.36,4.36,4.35
54.64,3.57,-0.77,3.57,-0.76,0.76,1.07,0.47,4.34,4.34,4.34
55.18,3.60,-0.71,3.60,-0.71,0.71,1.02,0.41,4.31,4.31,4.31
55.74,3.63,-0.65,3.64,-0.66,0.65,0.97,0.36,4.29,4.29,4.28
56.29,3.67,-0.61,3.67,-0.60,0.60,0.92,0.30,4.27,4.27,4.28
56.86,3.70,-0.55,3.71,-0.54,0.54,0.87,0.24,4.25,4.25,4.25
57.42,3.74,-0.48,3.74,-0.49,0.49,0.82,0.19,4.23,4.23,4.22
58.00,3.77,-0.43,3.77,-0.43,0.43,0.77,0.14,4.21,4.20,4.20
58.58,3.80,-0.38,3.81,-0.37,0.37,0.72,0.09,4.18,4.18,4.18
59.16,3.84,-0.32,3.84,-0.32,0.31,0.67,0.04,4.16,4.16,4.16
59.76,3.88,-0.26,3.88,-0.26,0.25,0.62,-0.01,4.14,4.13,4.14
60.35,3.91,-0.20,3.92,-0.19,0.19,0.57,-0.06,4.10,4.11,4.11
60.96,3.95,-0.13,3.95,-0.12,0.13,0.51,-0.11,4.08,4.08,4.08
61.57,3.97,-0.06,3.98,-0.06,0.06,0.46,-0.15,4.04,4.04,4.03
62.18,4.00,0.01,4.00,0.00,0.00,0.41,-0.20,4.00,4.00,3.99
62.80,4.02,0.05,4.03,0.07,-0.07,0.35,-0.24,3.96,3.96,3.97
63.43,4.05,0.13,4.05,0.13,-0.13,0.30,-0.28,3.92,3.92,3.92
64.07,4.07,0.19,4.08,0.19,-0.19,0.25,-0.32,3.88,3.88,3.88
64.71,4.10,0.25,4.10,0.26,-0.26,0.19,-0.36,3.85,3.85,3.85
65.35,4.13,0.32,4.13,0.32,-0.32,0.14,-0.40,3.81,3.81,3.81
66.01,4.16,0.39,4.16,0.39,-0.39,0.08,-0.44,3.78,3.78,3.77
66.67,4.19,0.45,4.19,0.45,-0.45,0.03,-0.48,3.74,3.74,3.74
67.33,4.21,0.51,4.21,0.51,-0.52,-0.03,-0.52,3.70,3.70,3.70
68.01,4.23,0.57,4.24,0.58,-0.58,-0.09,-0.56,3.65,3.65,3.66
68.69,4.26,0.64,4.26,0.64,-0.65,-0.14,-0.59,3.61,3.61,3.62
69.37,4.29,0.71,4.29,0.71,-0.71,-0.20,-0.63,3.58,3.58,3.58
70.07,4.32,0.78,4.32,0.78,-0.78,-0.26,-0.66,3.55,3.55,3.54
70.77,4.35,0.85,4.35,0.85,-0.84,-0.31,-0.70,3.51,3.51,3.50
71.48,4.37,0.90,4.38,0.91,-0.90,-0.37,-0.74,3.47,3.47,3.47
72.19,4.39,0.97,4.39,0.97,-0.96,-0.43,-0.77,3.43,3.43,3.42
72.91,4.41,1.02,4.41,1.02,-1.02,-0.49,-0.81,3.39,3.39,3.39
73.64,4.42,1.07,4.43,1.08,-1.08,-0.55,-0.85,3.34,3.35,3.35
74.38,4.44,1.12,4.45,1.13,-1.14,-0.61,-0.88,3.31,3.31,3.32
75.12,4.47,1.19,4.47,1.19,-1.20,-0.67,-0.92,3.27,3.27,3.28
75.87,4.50,1.25,4.51,1.26,-1.26,-0.73,-0.96,3.24,3.25,3.25
76.63,4.54,1.32,4.54,1.32,-1.32,-0.79,-0.99,3.22,3.22,3.22
77.40,4.58,1.39,4.58,1.39,-1.39,-0.85,-1.03,3.20,3.19,3.19
78.17,4.61,1.45,4.62,1.46,-1.45,-0.91,-1.07,3.16,3.17,3.16
78.95,4.65,1.52,4.65,1.52,-1.51,-0.97,-1.11,3.14,3.14,3.13
79.74,4.68,1.57,4.68,1.57,-1.57,-1.04,-1.15,3.11,3.11,3.11
80.54,4.71,1.62,4.72,1.63,-1.63,-1.10,-1.20,3.09,3.09,3.09
81.35,4.74,1.68,4.74,1.68,-1.68,-1.16,-1.24,3.06,3.06,3.06
82.16,4.76,1.73,4.76,1.72,-1.73,-1.22,-1.28,3.04,3.03,3.03
82.98,4.78,1.76,4.79,1.77,-1.78,-1.28,-1.33,3.01,3.01,3.02
83.81,4.80,1.81,4.81,1.82,-1.82,-1.35,-1.38,2.98,2.98,2.99
84.65,4.83,1.87,4.83,1.86,-1.87,-1.41,-1.42,2.97,2.97,2.96
85.50,4.85,1.90,4.86,1.91,-1.91,-1.47,-1.47,2.95,2.95,2.95
86.35,4.88,1.95,4.88,1.95,-1.95,-1.54,-1.52,2.94,2.93,2.93
87.22,4.89,1.98,4.89,1.98,-1.98,-1.60,-1.57,2.91,2.91,2.91
88.09,4.90,2.01,4.91,2.02,-2.01,-1.66,-1.63,2.89,2.90,2.89
88.97,4.91,2.04,4.91,2.04,-2.04,-1.72,-1.68,2.88,2.88,2.87
89.86,4.92,2.06,4.92,2.06,-2.06,-1.78,-1.73,2.87,2.86,2.86
90.76,4.91,2.08,4.91,2.08,-2.08,-1.85,-1.79,2.84,2.84,2.83
91.66,4.90,2.09,4.91,2.09,-2.09,-1.91,-1.85,2.81,2.81,2.81
92.58,4.89,2.10,4.90,2.10,-2.11,-1.97,-1.91,2.79,2.79,2.79
93.51,4.89,2.11,4.89,2.11,-2.12,-2.03,-1.97,2.77,2.77,2.78
94.44,4.89,2.13,4.89,2.13,-2.14,-2.09,-2.03,2.75,2.75,2.76
95.39,4.89,2.15,4.89,2.15,-2.16,-2.15,-2.09,2.73,2.73,2.74
96.34,4.89,2.18,4.89,2.18,-2.18,-2.21,-2.16,2.71,2.71,2.71
97.30,4.89,2.21,4.89,2.21,-2.21,-2.27,-2.22,2.69,2.69,2.68
98.28,4.89,2.24,4.89,2.24,-2.24,-2.32,-2.29,2.66,2.66,2.65
99.26,4.89,2.26,4.89,2.27,-2.26,-2.38,-2.35,2.63,2.63,2.63
100.25,4.89,2.29,4.89,2.29,-2.29,-2.44,-2.42,2.60,2.60,2.60
101.25,4.89,2.32,4.89,2.33,-2.33,-2.49,-2.49,2.57,2.57,2.57
102.27,4.89,2.36,4.89,2.36,-2.36,-2.54,-2.56,2.54,2.54,2.53
103.29,4.89,2.39,4.89,2.39,-2.39,-2.60,-2.63,2.50,2.50,2.50
104.32,4.89,2.42,4.89,2.43,-2.43,-2.65,-2.69,2.47,2.47,2.47
105.37,4.89,2.46,4.89,2.46,-2.47,-2.70,-2.76,2.43,2.43,2.43
106.42,4.89,2.51,4.89,2.51,-2.51,-2.75,-2.83,2.39,2.39,2.38
107.48,4.89,2.54,4.89,2.55,-2.55,-2.79,-2.90,2.34,2.34,2.35
108.56,4.89,2.60,4.89,2.60,-2.60,-2.84,-2.96,2.29,2.29,2.29
109.64,4.89,2.65,4.89,2.65,-2.65,-2.89,-3.03,2.24,2.24,2.24
110.74,4.89,2.70,4.89,2.70,-2.70,-2.93,-3.09,2.19,2.19,2.19
111.85,4.89,2.75,4.89,2.76,-2.76,-2.97,-3.16,2.13,2.13,2.14
112.97,4.89,2.82,4.89,2.81,-2.82,-3.01,-3.21,2.08,2.08,2.07
114.10,4.89,2.87,4.89,2.88,-2.88,-3.05,-3.27,2.02,2.02,2.02
115.24,4.89,2.93,4.89,2.94,-2.94,-3.09,-3.33,1.96,1.96,1.96
116.39,4.89,3.00,4.89,3.00,-3.00,-3.12,-3.38,1.90,1.90,1.89
117.55,4.89,3.06,4.89,3.06,-3.06,-3.16,-3.43,1.84,1.84,1.83
118.73,4.89,3.12,4.89,3.12,-3.12,-3.20,-3.47,1.78,1.78,1.77
119.92,4.89,3.17,4.89,3.18,-3.17,-3.23,-3.51,1.72,1.72,1.72
121.12,4.89,3.23,4.89,3.23,-3.23,-3.27,-3.55,1.67,1.67,1.66
122.33,4.89,3.28,4.89,3.28,-3.28,-3.30,-3.59,1.61,1.61,1.61
123.55,4.89,3.33,4.89,3.33,-3.33,-3.34,-3.62,1.56,1.56,1.56
124.79,4.89,3.38,4.89,3.38,-3.39,-3.37,-3.64,1.50,1.50,1.51
126.03,4.89,3.43,4.89,3.43,-3.44,-3.41,-3.66,1.45,1.45,1.46
127.29,4.89,3.48,4.90,3.49,-3.50,-3.45,-3.68,1.40,1.40,1.41
128.57,4.90,3.55,4.90,3.55,-3.55,-3.49,-3.70,1.35,1.35,1.35
129.85,4.91,3.60,4.91,3.61,-3.60,-3.53,-3.70,1.31,1.31,1.31
131.15,4.92,3.66,4.92,3.66,-3.65,-3.57,-3.71,1.28,1.27,1.26
132.46,4.92,3.70,4.92,3.70,-3.69,-3.61,-3.71,1.23,1.23,1.22
133.79,4.91,3.73,4.91,3.73,-3.73,-3.65,-3.71,1.18,1.18,1.18
135.12,4.89,3.75,4.90,3.76,-3.76,-3.70,-3.71,1.13,1.14,1.14
136.48,4.88,3.78,4.88,3.78,-3.78,-3.74,-3.70,1.10,1.10,1.10
137.84,4.85,3.79,4.86,3.80,-3.80,-3.79,-3.69,1.06,1.06,1.06
139.22,4.83,3.82,4.83,3.82,-3.81,-3.83,-3.68,1.03,1.02,1.01
140.61,4.80,3.83,4.80,3.82,-3.81,-3.88,-3.67,0.99,0.98,0.97
142.02,4.75,3.80,4.76,3.82,-3.82,-3.92,-3.66,0.94,0.94,0.95
143.44,4.72,3.81,4.72,3.81,-3.82,-3.96,-3.64,0.91,0.90,0.91
144.87,4.68,3.81,4.69,3.82,-3.82,-4.01,-3.63,0.86,0.87,0.87
146.32,4.66,3.83,4.66,3.82,-3.83,-4.04,-3.61,0.84,0.84,0.83
147.78,4.63,3.83,4.63,3.83,-3.83,-4.08,-3.60,0.80,0.80,0.80
149.26,4.60,3.83,4.60,3.84,-3.84,-4.12,-3.58,0.76,0.76,0.77
150.75,4.57,3.86,4.58,3.86,-3.86,-4.15,-3.57,0.71,0.72,0.71
152.26,4.56,3.89,4.56,3.89,-3.89,-4.18,-3.55,0.67,0.67,0.67
153.78,4.55,3.91,4.55,3.92,-3.93,-4.21,-3.54,0.63,0.62,0.64
155.32,4.54,3.96,4.55,3.96,-3.97,-4.24,-3.53,0.57,0.58,0.58
156.88,4.55,4.00,4.55,4.01,-4.02,-4.27,-3.52,0.54,0.54,0.55
158.44,4.56,4.06,4.56,4.07,-4.07,-4.29,-3.51,0.50,0.50,0.50
160.03,4.57,4.12,4.58,4.13,-4.12,-4.31,-3.51,0.45,0.46,0.45
161.63,4.59,4.19,4.59,4.18,-4.17,-4.33,-3.50,0.42,0.41,0.40
163.24,4.59,4.23,4.59,4.23,-4.22,-4.35,-3.50,0.37,0.37,0.36
164.88,4.59,4.27,4.59,4.28,-4.27,-4.36,-3.50,0.32,0.33,0.32
166.53,4.58,4.31,4.58,4.31,-4.31,-4.37,-3.50,0.27,0.27,0.27
168.19,4.57,4.35,4.57,4.35,-4.34,-4.38,-3.51,0.23,0.23,0.22
169.87,4.54,4.37,4.55,4.38,-4.37,-4.39,-3.52,0.17,0.18,0.17
171.57,4.52,4.39,4.52,4.40,-4.40,-4.39,-3.53,0.13,0.13,0.13
173.29,4.49,4.42,4.49,4.42,-4.42,-4.40,-3.54,0.08,0.07,0.07
175.02,4.45,4.43,4.46,4.44,-4.44,-4.40,-3.56,0.01,0.01,0.02
176.77,4.41,4.45,4.42,4.46,-4.46,-4.40,-3.58,-0.05,-0.04,-0.04
178.54,4.39,4.48,4.39,4.48,-4.49,-4.40,-3.60,-0.09,-0.10,-0.09
180.32,4.36,4.51,4.37,4.51,-4.51,-4.40,-3.63,-0.15,-0.15,-0.15
182.13,4.34,4.54,4.34,4.54,-4.54,-4.39,-3.66,-0.20,-0.20,-0.20
183.95,4.31,4.57,4.31,4.57,-4.57,-4.39,-3.69,-0.26,-0.26,-0.26
185.79,4.28,4.59,4.29,4.60,-4.60,-4.38,-3.72,-0.32,-0.32,-0.31
187.65,4.26,4.64,4.26,4.63,-4.64,-4.37,-3.76,-0.37,-0.38,-0.38
189.52,4.23,4.66,4.24,4.67,-4.67,-4.35,-3.80,-0.44,-0.43,-0.43
191.42,4.22,4.70,4.22,4.70,-4.70,-4.34,-3.84,-0.48,-0.48,-0.48
193.33,4.20,4.73,4.20,4.73,-4.73,-4.33,-3.88,-0.53,-0.53,-0.53
195.27,4.17,4.75,4.18,4.76,-4.76,-4.31,-3.93,-0.58,-0.58,-0.58
197.22,4.14,4.78,4.15,4.78,-4.78,-4.29,-3.97,-0.63,-0.63,-0.64
199.19,4.11,4.80,4.11,4.80,-4.79,-4.27,-4.02,-0.67,-0.68,-0.69
201.18,4.07,4.81,4.07,4.81,-4.79,-4.25,-4.07,-0.72,-0.72,-0.74
203.19,4.01,4.78,4.02,4.79,-4.79,-4.23,-4.13,-0.77,-0.77,-0.77
205.23,3.95,4.78,3.95,4.77,-4.78,-4.21,-4.18,-0.82,-0.82,-0.83
207.28,3.89,4.74,3.89,4.75,-4.76,-4.19,-4.23,-0.86,-0.87,-0.85
209.35,3.81,4.72,3.82,4.73,-4.73,-4.16,-4.28,-0.92,-0.91,-0.91
211.44,3.75,4.71,3.75,4.70,-4.70,-4.13,-4.34,-0.95,-0.95,-0.96
213.56,3.68,4.68,3.67,4.67,-4.67,-4.10,-4.39,-0.99,-1.00,-1.00
215.69,3.59,4.61,3.60,4.63,-4.64,-4.08,-4.44,-1.04,-1.04,-1.02
217.85,3.52,4.58,3.53,4.59,-4.60,-4.04,-4.49,-1.08,-1.07,-1.06
220.03,3.47,4.57,3.47,4.56,-4.57,-4.01,-4.54,-1.09,-1.10,-1.10
222.23,3.41,4.54,3.41,4.54,-4.52,-3.98,-4.58,-1.11,-1.11,-1.13
224.45,3.34,4.49,3.34,4.49,-4.48,-3.95,-4.62,-1.13,-1.14,-1.15
226.70,3.25,4.43,3.26,4.44,-4.43,-3.91,-4.66,-1.18,-1.17,-1.18
228.96,3.16,4.37,3.18,4.38,-4.38,-3.87,-4.69,-1.22,-1.20,-1.21
231.25,3.11,4.33,3.10,4.33,-4.33,-3.84,-4.72,-1.21,-1.23,-1.22
233.57,3.04,4.28,3.03,4.27,-4.28,-3.80,-4.75,-1.23,-1.24,-1.24
235.90,2.95,4.20,2.97,4.22,-4.22,-3.76,-4.76,-1.27,-1.26,-1.25
238.26,2.90,4.16,2.90,4.16,-4.17,-3.72,-4.77,-1.27,-1.27,-1.26
240.64,2.84,4.11,2.85,4.12,-4.12,-3.68,-4.77,-1.28,-1.27,-1.27
243.05,2.81,4.08,2.81,4.08,-4.08,-3.64,-4.77,-1.26,-1.27,-1.27
245.48,2.77,4.05,2.76,4.04,-4.03,-3.59,-4.76,-1.26,-1.27,-1.28
247.93,2.70,3.98,2.72,3.99,-3.99,-3.55,-4.74,-1.29,-1.28,-1.28
250.41,2.67,3.95,2.67,3.95,-3.95,-3.50,-4.71,-1.28,-1.28,-1.28
252.92,2.62,3.89,2.63,3.90,-3.91,-3.46,-4.68,-1.28,-1.28,-1.27
255.45,2.60,3.86,2.60,3.86,-3.87,-3.41,-4.63,-1.26,-1.26,-1.26
258.00,2.57,3.82,2.57,3.82,-3.82,-3.36,-4.59,-1.25,-1.25,-1.25
260.58,2.53,3.78,2.53,3.78,-3.77,-3.31,-4.53,-1.24,-1.24,-1.25
263.19,2.48,3.72,2.49,3.73,-3.72,-3.26,-4.46,-1.24,-1.23,-1.24
265.82,2.44,3.67,2.45,3.68,-3.67,-3.21,-4.39,-1.23,-1.22,-1.23
268.48,2.41,3.62,2.41,3.62,-3.61,-3.15,-4.31,-1.20,-1.21,-1.21
271.16,2.36,3.55,2.36,3.55,-3.55,-3.10,-4.22,-1.19,-1.19,-1.19
273.87,2.29,3.48,2.30,3.48,-3.48,-3.05,-4.13,-1.19,-1.18,-1.19
276.61,2.24,3.40,2.24,3.41,-3.41,-2.99,-4.03,-1.17,-1.17,-1.16
279.38,2.17,3.33,2.18,3.33,-3.33,-2.93,-3.93,-1.16,-1.16,-1.16
282.17,2.11,3.25,2.11,3.25,-3.25,-2.88,-3.82,-1.14,-1.14,-1.14
284.99,2.04,3.17,2.04,3.17,-3.17,-2.82,-3.71,-1.12,-1.13,-1.13
287.84,1.95,3.07,1.96,3.08,-3.08,-2.76,-3.60,-1.12,-1.12,-1.12
290.72,1.88,2.99,1.88,2.98,-2.99,-2.70,-3.48,-1.10,-1.11,-1.11
293.63,1.79,2.88,1.80,2.89,-2.89,-2.64,-3.36,-1.09,-1.09,-1.09
296.57,1.71,2.78,1.71,2.79,-2.79,-2.57,-3.24,-1.07,-1.07,-1.07
299.53,1.62,2.69,1.62,2.69,-2.68,-2.51,-3.12,-1.06,-1.06,-1.07
302.53,1.52,2.58,1.53,2.58,-2.58,-2.44,-2.99,-1.05,-1.05,-1.06
305.55,1.42,2.46,1.42,2.47,-2.47,-2.38,-2.87,-1.04,-1.05,-1.04
308.61,1.32,2.35,1.32,2.35,-2.36,-2.31,-2.74,-1.04,-1.03,-1.03
311.69,1.22,2.24,1.23,2.24,-2.25,-2.24,-2.61,-1.03,-1.02,-1.02
314.81,1.14,2.13,1.14,2.14,-2.14,-2.17,-2.49,-1.00,-1.00,-0.99
317.96,1.04,2.04,1.04,2.03,-2.03,-2.10,-2.36,-0.99,-0.99,-1.00
321.14,0.93,1.92,0.93,1.92,-1.92,-2.03,-2.23,-0.99,-0.99,-0.99
324.35,0.82,1.81,0.82,1.81,-1.81,-1.95,-2.10,-0.99,-0.99,-0.99
327.59,0.71,1.69,0.72,1.70,-1.71,-1.88,-1.98,-0.99,-0.99,-0.98
330.87,0.62,1.60,0.62,1.60,-1.60,-1.80,-1.85,-0.98,-0.98,-0.98
334.18,0.52,1.50,0.52,1.50,-1.50,-1.72,-1.73,-0.97,-0.97,-0.98
337.52,0.42,1.39,0.42,1.40,-1.39,-1.64,-1.60,-0.97,-0.97,-0.97
340.90,0.32,1.29,0.32,1.29,-1.29,-1.56,-1.48,-0.96,-0.97,-0.97
344.30,0.21,1.18,0.22,1.19,-1.19,-1.48,-1.35,-0.97,-0.97,-0.97
347.75,0.11,1.08,0.12,1.08,-1.09,-1.40,-1.23,-0.97,-0.97,-0.97
351.23,0.01,0.98,0.01,0.98,-0.99,-1.31,-1.10,-0.97,-0.98,-0.97
354.74,-0.09,0.88,-0.09,0.89,-0.89,-1.23,-0.98,-0.98,-0.98,-0.97
358.28,-0.20,0.79,-0.19,0.79,-0.79,-1.14,-0.86,-0.99,-0.98,-0.99
361.87,-0.28,0.71,-0.29,0.70,-0.70,-1.05,-0.74,-0.97,-0.98,-0.99
365.49,-0.39,0.60,-0.38,0.61,-0.60,-0.96,-0.62,-0.99,-0.98,-0.99
369.14,-0.49,0.51,-0.48,0.51,-0.51,-0.87,-0.50,-1.00,-0.99,-1.00
372.83,-0.58,0.42,-0.59,0.41,-0.42,-0.77,-0.38,-1.00,-1.01,-1.00
376.56,-0.70,0.31,-0.69,0.32,-0.33,-0.68,-0.27,-1.03,-1.02,-1.01
380.33,-0.79,0.23,-0.78,0.24,-0.24,-0.58,-0.15,-1.03,-1.03,-1.02
384.13,-0.87,0.16,-0.87,0.16,-0.16,-0.48,-0.03,-1.02,-1.03,-1.03
387.97,-0.96,0.08,-0.96,0.08,-0.07,-0.39,0.08,-1.03,-1.03,-1.04
391.85,-1.05,0.00,-1.05,-0.00,0.01,-0.28,0.20,-1.04,-1.04,-1.05
395.77,-1.14,-0.10,-1.14,-0.09,0.09,-0.18,0.31,-1.04,-1.04,-1.04
399.73,-1.24,-0.19,-1.23,-0.18,0.18,-0.08,0.42,-1.06,-1.05,-1.05
403.72,-1.32,-0.26,-1.32,-0.26,0.26,0.02,0.53,-1.05,-1.05,-1.06
407.76,-1.41,-0.34,-1.41,-0.35,0.35,0.13,0.64,-1.06,-1.06,-1.07
411.84,-1.51,-0.45,-1.50,-0.44,0.44,0.23,0.75,-1.07,-1.07,-1.06
415.96,-1.61,-0.53,-1.60,-0.53,0.52,0.34,0.85,-1.09,-1.08,-1.08
420.12,-1.69,-0.61,-1.69,-0.61,0.60,0.44,0.95,-1.08,-1.08,-1.08
424.32,-1.78,-0.70,-1.77,-0.69,0.69,0.55,1.05,-1.09,-1.08,-1.08
428.56,-1.85,-0.76,-1.85,-0.77,0.77,0.66,1.15,-1.08,-1.08,-1.09
432.85,-1.94,-0.85,-1.93,-0.85,0.85,0.76,1.25,-1.09,-1.08,-1.09
437.18,-2.02,-0.93,-2.01,-0.93,0.93,0.87,1.34,-1.08,-1.08,-1.09
441.55,-2.10,-1.02,-2.10,-1.01,1.01,0.97,1.43,-1.08,-1.09,-1.08
445.96,-2.18,-1.10,-2.17,-1.09,1.09,1.07,1.51,-1.08,-1.08,-1.08
450.42,-2.26,-1.17,-2.25,-1.17,1.17,1.17,1.59,-1.08,-1.08,-1.09
454.93,-2.33,-1.25,-2.34,-1.25,1.26,1.27,1.67,-1.07,-1.08,-1.08
459.48,-2.42,-1.34,-2.41,-1.33,1.33,1.37,1.74,-1.08,-1.07,-1.08
464.07,-2.49,-1.42,-2.48,-1.41,1.41,1.46,1.81,-1.08,-1.07,-1.07
468.71,-2.54,-1.48,-2.55,-1.48,1.48,1.55,1.87,-1.06,-1.07,-1.06
473.40,-2.62,-1.55,-2.61,-1.55,1.55,1.64,1.92,-1.07,-1.06,-1.07
478.13,-2.68,-1.62,-2.67,-1.61,1.61,1.72,1.97,-1.07,-1.06,-1.06
482.91,-2.73,-1.67,-2.73,-1.67,1.67,1.80,2.02,-1.06,-1.06,-1.06
487.74,-2.77,-1.72,-2.77,-1.72,1.72,1.87,2.05,-1.05,-1.05,-1.05
492.62,-2.80,-1.76,-2.80,-1.76,1.76,1.93,2.08,-1.04,-1.04,-1.04
497.55,-2.84,-1.80,-2.83,-1.80,1.79,1.99,2.10,-1.04,-1.04,-1.04
502.52,-2.86,-1.83,-2.86,-1.82,1.82,2.04,2.12,-1.03,-1.03,-1.03
507.55,-2.88,-1.85,-2.88,-1.85,1.85,2.09,2.13,-1.03,-1.03,-1.03
512.62,-2.89,-1.86,-2.89,-1.87,1.86,2.13,2.13,-1.02,-1.03,-1.03
517.75,-2.91,-1.89,-2.90,-1.88,1.88,2.16,2.13,-1.03,-1.03,-1.02
