frequency,raw,error,smoothed,error_smoothed,equalization,parametric_eq,fixed_band_eq,equalized_raw,equalized_smoothed,target
20.00,-6.48,-9.04,-6.49,-9.04,9.06,8.91,3.12,2.58,2.57,2.56
20.20,-6.44,-9.03,-6.44,-9.02,9.02,8.88,3.20,2.58,2.59,2.59
20.40,-6.39,-9.01,-6.38,-8.99,8.99,8.85,3.29,2.60,2.61,2.62
20.61,-6.31,-8.95,-6.31,-8.95,8.94,8.82,3.39,2.63,2.63,2.64
20.81,-6.23,-8.90,-6.24,-8.91,8.90,8.79,3.48,2.67,2.66,2.67
21.02,-6.17,-8.87,-6.17,-8.86,8.85,8.75,3.58,2.68,2.68,2.70
21.23,-6.10,-8.81,-6.10,-8.80,8.79,8.71,3.68,2.69,2.70,2.71
21.44,-6.02,-8.74,-6.02,-8.74,8.74,8.67,3.78,2.72,2.71,2.72
21.66,-5.94,-8.67,-5.94,-8.67,8.67,8.63,3.89,2.73,2.73,2.73
21.87,-5.87,-8.60,-5.87,-8.60,8.60,8.58,4.00,2.73,2.74,2.73
22.09,-5.79,-8.53,-5.79,-8.53,8.53,8.53,4.11,2.74,2.74,2.74
22.31,-5.72,-8.46,-5.72,-8.46,8.46,8.48,4.23,2.74,2.73,2.74
22.54,-5.66,-8.40,-5.65,-8.39,8.38,8.43,4.34,2.72,2.73,2.74
22.76,-5.58,-8.32,-5.58,-8.31,8.31,8.38,4.47,2.73,2.73,2.74
22.99,-5.50,-8.23,-5.50,-8.23,8.23,8.33,4.59,2.73,2.73,2.73
23.22,-5.42,-8.15,-5.42,-8.15,8.16,8.27,4.72,2.74,2.74,2.73
23.45,-5.35,-8.08,-5.35,-8.08,8.08,8.21,4.85,2.73,2.73,2.73
23.69,-5.28,-8.01,-5.28,-8.01,8.01,8.15,4.98,2.73,2.73,2.73
23.92,-5.21,-7.94,-5.21,-7.94,7.93,8.09,5.12,2.72,2.72,2.73
24.16,-5.14,-7.87,-5.14,-7.86,7.86,8.03,5.26,2.72,2.72,2.73
24.40,-5.06,-7.79,-5.06,-7.78,7.78,7.97,5.40,2.72,2.72,2.73
24.65,-4.99,-7.71,-4.98,-7.70,7.71,7.91,5.54,2.72,2.72,2.72
24.89,-4.90,-7.62,-4.91,-7.63,7.63,7.84,5.69,2.73,2.72,2.72
25.14,-4.84,-7.56,-4.84,-7.55,7.55,7.78,5.84,2.71,2.72,2.72
25.39,-4.77,-7.49,-4.76,-7.48,7.48,7.71,5.99,2.71,2.71,2.72
25.65,-4.69,-7.41,-4.69,-7.40,7.40,7.64,6.14,2.71,2.71,2.72
25.91,-4.61,-7.32,-4.62,-7.33,7.33,7.58,6.29,2.71,2.71,2.71
26.16,-4.54,-7.25,-4.54,-7.25,7.25,7.51,6.44,2.71,2.71,2.71
26.43,-4.48,-7.19,-4.47,-7.18,7.18,7.44,6.59,2.69,2.70,2.71
26.69,-4.39,-7.10,-4.40,-7.11,7.10,7.37,6.74,2.71,2.70,2.71
26.96,-4.33,-7.04,-4.33,-7.03,7.03,7.30,6.88,2.69,2.70,2.71
27.23,-4.25,-6.95,-4.25,-6.95,6.95,7.23,7.03,2.70,2.70,2.70
27.50,-4.18,-6.88,-4.19,-6.88,6.88,7.16,7.17,2.70,2.70,2.70
27.77,-4.12,-6.81,-4.12,-6.81,6.81,7.08,7.30,2.69,2.69,2.69
28.05,-4.06,-6.75,-4.06,-6.74,6.74,7.01,7.44,2.68,2.68,2.69
28.33,-4.00,-6.68,-4.00,-6.68,6.68,6.94,7.56,2.68,2.68,2.68
28.62,-3.93,-6.61,-3.94,-6.61,6.61,6.87,7.68,2.68,2.68,2.68
28.90,-3.88,-6.56,-3.88,-6.55,6.55,6.80,7.79,2.67,2.68,2.68
29.19,-3.82,-6.49,-3.82,-6.49,6.49,6.73,7.88,2.67,2.67,2.67
29.48,-3.77,-6.44,-3.77,-6.44,6.44,6.65,7.97,2.67,2.66,2.67
29.78,-3.73,-6.39,-3.73,-6.38,6.38,6.58,8.05,2.65,2.66,2.66
30.08,-3.67,-6.33,-3.68,-6.33,6.33,6.51,8.11,2.66,2.65,2.66
30.38,-3.63,-6.28,-3.63,-6.27,6.27,6.44,8.16,2.64,2.65,2.65
30.68,-3.57,-6.22,-3.58,-6.22,6.22,6.37,8.20,2.65,2.64,2.65
30.99,-3.53,-6.17,-3.53,-6.17,6.17,6.30,8.23,2.63,2.63,2.64
31.30,-3.49,-6.12,-3.48,-6.11,6.11,6.23,8.23,2.62,2.63,2.63
31.61,-3.43,-6.06,-3.44,-6.06,6.05,6.16,8.23,2.62,2.62,2.63
31.93,-3.38,-6.00,-3.38,-6.00,6.00,6.09,8.21,2.62,2.62,2.62
32.24,-3.33,-5.94,-3.33,-5.94,5.94,6.02,8.17,2.61,2.61,2.61
32.57,-3.27,-5.88,-3.28,-5.88,5.89,5.95,8.13,2.62,2.61,2.61
32.89,-3.24,-5.84,-3.23,-5.83,5.83,5.88,8.07,2.59,2.60,2.60
33.22,-3.18,-5.77,-3.18,-5.77,5.77,5.81,8.00,2.59,2.59,2.59
33.55,-3.13,-5.72,-3.14,-5.72,5.72,5.74,7.92,2.59,2.58,2.59
33.89,-3.09,-5.67,-3.09,-5.66,5.66,5.68,7.82,2.57,2.57,2.58
34.23,-3.04,-5.61,-3.04,-5.61,5.60,5.61,7.72,2.56,2.56,2.57
34.57,-2.99,-5.55,-2.98,-5.54,5.54,5.55,7.61,2.55,2.55,2.56
34.92,-2.92,-5.47,-2.93,-5.47,5.47,5.48,7.50,2.55,2.55,2.55
35.27,-2.86,-5.40,-2.87,-5.41,5.41,5.42,7.38,2.55,2.54,2.54
35.62,-2.83,-5.36,-2.82,-5.34,5.35,5.35,7.25,2.52,2.53,2.53
35.97,-2.77,-5.29,-2.77,-5.29,5.29,5.29,7.13,2.52,2.52,2.52
36.33,-2.72,-5.23,-2.73,-5.23,5.23,5.23,6.99,2.51,2.51,2.51
36.70,-2.69,-5.19,-2.68,-5.18,5.18,5.17,6.86,2.49,2.50,2.50
37.06,-2.63,-5.12,-2.64,-5.12,5.12,5.11,6.73,2.49,2.49,2.49
37.43,-2.60,-5.08,-2.60,-5.07,5.07,5.05,6.59,2.47,2.47,2.48
37.81,-2.55,-5.02,-2.55,-5.02,5.02,5.00,6.46,2.47,2.46,2.47
38.19,-2.52,-4.98,-2.51,-4.97,4.96,4.94,6.32,2.44,2.45,2.46
38.57,-2.46,-4.91,-2.47,-4.92,4.91,4.88,6.19,2.45,2.44,2.45
38.95,-2.43,-4.87,-2.43,-4.86,4.86,4.83,6.06,2.43,2.43,2.44
39.34,-2.39,-4.81,-2.39,-4.80,4.81,4.78,5.93,2.42,2.42,2.42
39.74,-2.34,-4.75,-2.35,-4.75,4.76,4.72,5.81,2.42,2.41,2.41
40.14,-2.31,-4.71,-2.31,-4.70,4.71,4.67,5.68,2.40,2.40,2.40
40.54,-2.27,-4.66,-2.27,-4.66,4.66,4.62,5.56,2.39,2.39,2.39
40.94,-2.23,-4.61,-2.24,-4.62,4.62,4.57,5.44,2.39,2.38,2.38
41.35,-2.22,-4.59,-2.21,-4.58,4.58,4.53,5.33,2.36,2.37,2.37
41.76,-2.18,-4.54,-2.19,-4.54,4.54,4.48,5.22,2.36,2.35,2.36
42.18,-2.16,-4.51,-2.16,-4.50,4.50,4.43,5.11,2.34,2.34,2.35
42.60,-2.13,-4.47,-2.12,-4.46,4.45,4.39,5.01,2.32,2.33,2.34
43.03,-2.08,-4.41,-2.09,-4.41,4.41,4.35,4.91,2.33,2.32,2.33
43.46,-2.06,-4.37,-2.05,-4.36,4.35,4.30,4.81,2.29,2.30,2.31
43.90,-2.01,-4.30,-2.02,-4.30,4.30,4.26,4.72,2.29,2.28,2.29
44.33,-1.98,-4.25,-1.98,-4.24,4.24,4.22,4.63,2.26,2.27,2.27
44.78,-1.94,-4.19,-1.94,-4.18,4.19,4.19,4.54,2.24,2.25,2.25
45.23,-1.89,-4.12,-1.90,-4.13,4.13,4.15,4.46,2.24,2.23,2.23
45.68,-1.86,-4.08,-1.85,-4.07,4.07,4.11,4.38,2.21,2.22,2.22
46.13,-1.81,-4.01,-1.82,-4.02,4.02,4.08,4.30,2.21,2.20,2.20
46.60,-1.78,-3.97,-1.78,-3.96,3.97,4.04,4.23,2.19,2.19,2.19
47.06,-1.76,-3.93,-1.75,-3.92,3.92,4.01,4.16,2.16,2.17,2.17
47.53,-1.71,-3.86,-1.73,-3.88,3.87,3.98,4.10,2.16,2.15,2.15
48.01,-1.71,-3.85,-1.70,-3.83,3.83,3.95,4.03,2.12,2.13,2.14
48.49,-1.69,-3.80,-1.69,-3.79,3.79,3.92,3.97,2.10,2.11,2.11
48.97,-1.67,-3.75,-1.68,-3.76,3.76,3.89,3.92,2.08,2.08,2.08
49.46,-1.67,-3.72,-1.67,-3.72,3.72,3.86,3.86,2.05,2.05,2.05
49.96,-1.67,-3.69,-1.67,-3.69,3.69,3.83,3.81,2.02,2.02,2.02
50.46,-1.67,-3.67,-1.67,-3.67,3.66,3.80,3.76,1.99,1.99,2.00
50.96,-1.67,-3.65,-1.67,-3.64,3.64,3.78,3.72,1.97,1.97,1.98
51.47,-1.67,-3.62,-1.67,-3.62,3.62,3.75,3.67,1.95,1.95,1.95
51.99,-1.67,-3.60,-1.67,-3.60,3.60,3.72,3.63,1.93,1.93,1.93
52.51,-1.67,-3.58,-1.68,-3.58,3.59,3.70,3.59,1.92,1.91,1.91
53.03,-1.69,-3.58,-1.69,-3.57,3.57,3.67,3.55,1.88,1.88,1.89
53.56,-1.71,-3.57,-1.70,-3.56,3.56,3.65,3.51,1.85,1.86,1.86
54.10,-1.71,-3.55,-1.71,-3.55,3.54,3.62,3.47,1.83,1.83,1.84
54.64,-1.71,-3.52,-1.71,-3.52,3.52,3.60,3.43,1.81,1.81,1.81
55.18,-1.71,-3.50,-1.71,-3.50,3.50,3.57,3.40,1.79,1.78,1.79
55.74,-1.71,-3.47,-1.71,-3.47,3.47,3.54,3.36,1.75,1.75,1.76
56.29,-1.71,-3.45,-1.70,-3.44,3.43,3.52,3.32,1.71,1.73,1.74
56.86,-1.67,-3.39,-1.68,-3.39,3.38,3.49,3.29,1.71,1.70,1.72
57.42,-1.64,-3.33,-1.64,-3.33,3.32,3.46,3.25,1.68,1.68,1.69
58.00,-1.60,-3.27,-1.60,-3.26,3.26,3.43,3.21,1.66,1.67,1.67
58.58,-1.55,-3.20,-1.55,-3.20,3.20,3.40,3.18,1.65,1.65,1.65
59.16,-1.50,-3.13,-1.50,-3.13,3.13,3.36,3.14,1.63,1.63,1.63
59.76,-1.46,-3.07,-1.46,-3.06,3.06,3.33,3.10,1.60,1.60,1.61
60.35,-1.41,-2.99,-1.41,-2.99,2.99,3.29,3.06,1.58,1.57,1.58
60.96,-1.38,-2.93,-1.38,-2.92,2.92,3.26,3.01,1.54,1.54,1.55
61.57,-1.34,-2.85,-1.35,-2.86,2.86,3.22,2.97,1.52,1.51,1.51
62.18,-1.34,-2.82,-1.32,-2.80,2.80,3.18,2.92,1.46,1.48,1.48
62.80,-1.29,-2.74,-1.30,-2.74,2.76,3.13,2.88,1.47,1.46,1.45
63.43,-1.29,-2.71,-1.29,-2.71,2.73,3.09,2.83,1.43,1.43,1.42
64.07,-1.29,-2.68,-1.30,-2.69,2.70,3.04,2.77,1.41,1.40,1.39
64.71,-1.34,-2.71,-1.33,-2.69,2.69,2.99,2.72,1.35,1.37,1.37
65.35,-1.35,-2.69,-1.35,-2.69,2.69,2.94,2.67,1.34,1.34,1.34
66.01,-1.38,-2.69,-1.39,-2.69,2.69,2.89,2.61,1.31,1.31,1.31
66.67,-1.42,-2.70,-1.42,-2.70,2.70,2.84,2.55,1.28,1.28,1.28
67.33,-1.47,-2.72,-1.47,-2.71,2.72,2.78,2.49,1.25,1.25,1.25
68.01,-1.50,-2.72,-1.51,-2.73,2.72,2.72,2.43,1.22,1.21,1.22
68.69,-1.55,-2.74,-1.54,-2.73,2.72,2.66,2.36,1.17,1.18,1.19
69.37,-1.57,-2.73,-1.57,-2.72,2.71,2.59,2.30,1.14,1.15,1.16
70.07,-1.57,-2.70,-1.58,-2.71,2.69,2.53,2.23,1.12,1.11,1.13
70.77,-1.57,-2.67,-1.57,-2.67,2.65,2.46,2.17,1.08,1.08,1.10
71.48,-1.56,-2.63,-1.55,-2.61,2.60,2.40,2.10,1.04,1.05,1.07
72.19,-1.50,-2.53,-1.51,-2.54,2.53,2.33,2.03,1.03,1.02,1.03
72.91,-1.46,-2.46,-1.46,-2.45,2.44,2.25,1.96,0.98,0.99,1.00
73.64,-1.39,-2.35,-1.39,-2.35,2.35,2.18,1.89,0.96,0.96,0.96
74.38,-1.32,-2.25,-1.32,-2.24,2.25,2.11,1.82,0.92,0.92,0.93
75.12,-1.24,-2.13,-1.24,-2.13,2.14,2.03,1.75,0.90,0.89,0.89
75.87,-1.17,-2.03,-1.16,-2.02,2.03,1.96,1.68,0.86,0.87,0.86
76.63,-1.08,-1.91,-1.08,-1.91,1.92,1.88,1.61,0.84,0.83,0.83
77.40,-1.01,-1.81,-1.02,-1.81,1.81,1.81,1.54,0.80,0.80,0.80
78.17,-0.95,-1.71,-0.95,-1.71,1.71,1.73,1.48,0.76,0.76,0.76
78.95,-0.90,-1.63,-0.89,-1.62,1.62,1.65,1.41,0.72,0.73,0.73
79.74,-0.83,-1.53,-0.83,-1.52,1.52,1.58,1.34,0.69,0.69,0.70
80.54,-0.77,-1.43,-0.78,-1.44,1.44,1.50,1.27,0.67,0.66,0.66
81.35,-0.73,-1.36,-0.73,-1.35,1.36,1.42,1.20,0.62,0.63,0.63
82.16,-0.69,-1.28,-0.69,-1.28,1.28,1.34,1.13,0.59,0.59,0.59
82.98,-0.65,-1.21,-0.65,-1.21,1.21,1.27,1.06,0.55,0.55,0.56
83.81,-0.62,-1.14,-0.62,-1.13,1.14,1.19,0.99,0.51,0.52,0.52
84.65,-0.59,-1.07,-0.59,-1.07,1.07,1.11,0.93,0.48,0.48,0.48
85.50,-0.55,-1.00,-0.56,-1.01,1.01,1.04,0.86,0.46,0.44,0.45
86.35,-0.55,-0.96,-0.54,-0.94,0.95,0.96,0.79,0.40,0.41,0.41
87.22,-0.52,-0.89,-0.53,-0.89,0.89,0.89,0.73,0.37,0.36,0.37
88.09,-0.50,-0.83,-0.51,-0.83,0.83,0.81,0.66,0.33,0.32,0.33
88.97,-0.50,-0.79,-0.48,-0.77,0.77,0.74,0.60,0.27,0.29,0.29
89.86,-0.45,-0.70,-0.47,-0.71,0.71,0.67,0.53,0.26,0.24,0.25
90.76,-0.45,-0.65,-0.45,-0.65,0.65,0.60,0.47,0.20,0.20,0.20
91.66,-0.45,-0.61,-0.43,-0.59,0.59,0.53,0.40,0.14,0.16,0.16
92.58,-0.41,-0.52,-0.43,-0.54,0.53,0.46,0.34,0.12,0.10,0.11
93.51,-0.41,-0.48,-0.41,-0.48,0.47,0.39,0.28,0.06,0.06,0.07
94.44,-0.41,-0.44,-0.39,-0.41,0.41,0.32,0.22,0.00,0.02,0.03
95.39,-0.36,-0.34,-0.38,-0.35,0.36,0.26,0.15,-0.00,-0.02,-0.02
96.34,-0.36,-0.29,-0.36,-0.29,0.30,0.19,0.09,-0.06,-0.06,-0.07
97.30,-0.36,-0.24,-0.36,-0.23,0.24,0.13,0.03,-0.12,-0.11,-0.12
98.28,-0.36,-0.19,-0.36,-0.19,0.19,0.07,-0.03,-0.17,-0.17,-0.17
99.26,-0.36,-0.15,-0.36,-0.14,0.13,0.00,-0.09,-0.23,-0.23,-0.21
100.25,-0.36,-0.10,-0.35,-0.09,0.08,-0.06,-0.15,-0.28,-0.28,-0.26
101.25,-0.34,-0.03,-0.34,-0.03,0.02,-0.12,-0.21,-0.32,-0.32,-0.31
102.27,-0.32,0.04,-0.33,0.04,-0.03,-0.18,-0.27,-0.35,-0.36,-0.36
103.29,-0.31,0.10,-0.31,0.10,-0.09,-0.23,-0.33,-0.40,-0.40,-0.41
104.32,-0.31,0.14,-0.31,0.15,-0.14,-0.29,-0.39,-0.45,-0.45,-0.45
105.37,-0.31,0.19,-0.31,0.19,-0.19,-0.34,-0.44,-0.50,-0.50,-0.50
106.42,-0.31,0.24,-0.31,0.24,-0.25,-0.40,-0.50,-0.56,-0.56,-0.55
107.48,-0.31,0.29,-0.31,0.29,-0.30,-0.45,-0.56,-0.61,-0.61,-0.60
108.56,-0.31,0.34,-0.31,0.34,-0.34,-0.50,-0.61,-0.66,-0.66,-0.65
109.64,-0.31,0.39,-0.31,0.39,-0.39,-0.56,-0.66,-0.71,-0.71,-0.70
110.74,-0.31,0.44,-0.31,0.44,-0.45,-0.61,-0.71,-0.76,-0.76,-0.75
111.85,-0.31,0.49,-0.31,0.50,-0.50,-0.65,-0.76,-0.81,-0.81,-0.80
112.97,-0.31,0.55,-0.31,0.55,-0.55,-0.70,-0.81,-0.86,-0.86,-0.86
114.10,-0.31,0.60,-0.31,0.61,-0.61,-0.75,-0.86,-0.92,-0.92,-0.91
115.24,-0.31,0.66,-0.31,0.66,-0.66,-0.80,-0.91,-0.97,-0.97,-0.97
116.39,-0.31,0.71,-0.31,0.72,-0.71,-0.84,-0.95,-1.03,-1.03,-1.02
117.55,-0.31,0.77,-0.31,0.77,-0.77,-0.89,-0.99,-1.08,-1.08,-1.08
118.73,-0.31,0.82,-0.31,0.82,-0.82,-0.93,-1.03,-1.13,-1.13,-1.13
119.92,-0.31,0.87,-0.31,0.87,-0.87,-0.97,-1.07,-1.18,-1.18,-1.18
121.12,-0.31,0.92,-0.31,0.92,-0.92,-1.01,-1.10,-1.23,-1.23,-1.23
122.33,-0.31,0.97,-0.31,0.97,-0.97,-1.06,-1.14,-1.28,-1.28,-1.28
123.55,-0.31,1.02,-0.31,1.02,-1.02,-1.10,-1.17,-1.34,-1.34,-1.33
124.79,-0.31,1.07,-0.31,1.07,-1.08,-1.14,-1.20,-1.39,-1.39,-1.38
126.03,-0.31,1.12,-0.31,1.12,-1.13,-1.17,-1.22,-1.44,-1.44,-1.43
127.29,-0.31,1.17,-0.31,1.18,-1.18,-1.21,-1.25,-1.49,-1.49,-1.48
128.57,-0.31,1.23,-0.31,1.23,-1.23,-1.25,-1.27,-1.54,-1.54,-1.54
129.85,-0.31,1.28,-0.31,1.28,-1.28,-1.29,-1.29,-1.59,-1.59,-1.59
131.15,-0.31,1.33,-0.31,1.33,-1.33,-1.32,-1.31,-1.64,-1.64,-1.64
132.46,-0.31,1.38,-0.31,1.38,-1.38,-1.36,-1.33,-1.69,-1.69,-1.69
133.79,-0.31,1.42,-0.31,1.43,-1.43,-1.39,-1.34,-1.74,-1.74,-1.73
135.12,-0.31,1.47,-0.31,1.47,-1.47,-1.43,-1.36,-1.79,-1.79,-1.78
136.48,-0.31,1.51,-0.31,1.52,-1.52,-1.46,-1.37,-1.83,-1.82,-1.82
137.84,-0.31,1.56,-0.31,1.56,-1.55,-1.49,-1.38,-1.86,-1.87,-1.87
139.22,-0.31,1.61,-0.32,1.60,-1.59,-1.53,-1.39,-1.90,-1.91,-1.92
140.61,-0.34,1.62,-0.33,1.63,-1.63,-1.56,-1.40,-1.97,-1.96,-1.96
142.02,-0.35,1.64,-0.35,1.65,-1.66,-1.59,-1.41,-2.01,-2.01,-1.99
143.44,-0.36,1.67,-0.36,1.68,-1.69,-1.62,-1.42,-2.05,-2.05,-2.03
144.87,-0.36,1.71,-0.36,1.71,-1.72,-1.65,-1.43,-2.08,-2.08,-2.07
146.32,-0.36,1.75,-0.36,1.75,-1.75,-1.68,-1.43,-2.11,-2.11,-2.11
147.78,-0.36,1.78,-0.37,1.78,-1.77,-1.71,-1.44,-2.13,-2.14,-2.14
149.26,-0.38,1.80,-0.38,1.80,-1.80,-1.74,-1.45,-2.18,-2.18,-2.18
150.75,-0.41,1.81,-0.40,1.82,-1.82,-1.77,-1.45,-2.23,-2.22,-2.22
152.26,-0.41,1.85,-0.42,1.84,-1.84,-1.80,-1.46,-2.25,-2.26,-2.26
153.78,-0.45,1.85,-0.44,1.86,-1.86,-1.83,-1.47,-2.31,-2.31,-2.30
155.32,-0.45,1.89,-0.46,1.88,-1.88,-1.86,-1.48,-2.33,-2.34,-2.34
156.88,-0.50,1.88,-0.49,1.90,-1.90,-1.89,-1.49,-2.40,-2.39,-2.38
158.44,-0.50,1.92,-0.51,1.91,-1.92,-1.91,-1.50,-2.42,-2.43,-2.42
160.03,-0.54,1.92,-0.53,1.93,-1.93,-1.94,-1.51,-2.48,-2.47,-2.46
161.63,-0.55,1.95,-0.54,1.96,-1.96,-1.97,-1.52,-2.51,-2.50,-2.50
163.24,-0.55,1.99,-0.56,1.98,-1.98,-2.00,-1.53,-2.53,-2.54,-2.54
164.88,-0.57,2.00,-0.57,2.01,-2.01,-2.02,-1.55,-2.58,-2.58,-2.57
166.53,-0.59,2.02,-0.58,2.03,-2.04,-2.05,-1.56,-2.63,-2.62,-2.61
168.19,-0.59,2.06,-0.59,2.06,-2.07,-2.08,-1.58,-2.66,-2.66,-2.65
169.87,-0.59,2.10,-0.59,2.10,-2.10,-2.10,-1.60,-2.70,-2.70,-2.69
171.57,-0.59,2.14,-0.59,2.14,-2.14,-2.13,-1.62,-2.73,-2.73,-2.73
173.29,-0.59,2.17,-0.59,2.18,-2.17,-2.16,-1.64,-2.76,-2.76,-2.76
175.02,-0.59,2.21,-0.59,2.21,-2.21,-2.18,-1.66,-2.80,-2.80,-2.80
176.77,-0.59,2.25,-0.60,2.24,-2.24,-2.21,-1.68,-2.83,-2.84,-2.84
178.54,-0.62,2.26,-0.62,2.27,-2.27,-2.24,-1.71,-2.89,-2.89,-2.88
180.32,-0.64,2.28,-0.63,2.29,-2.30,-2.26,-1.73,-2.94,-2.93,-2.92
182.13,-0.64,2.31,-0.64,2.32,-2.32,-2.29,-1.76,-2.96,-2.96,-2.95
183.95,-0.64,2.35,-0.65,2.35,-2.34,-2.31,-1.79,-2.98,-2.99,-2.99
185.79,-0.64,2.38,-0.66,2.37,-2.36,-2.34,-1.82,-3.01,-3.02,-3.02
187.65,-0.69,2.37,-0.67,2.39,-2.39,-2.36,-1.85,-3.08,-3.06,-3.06
189.52,-0.69,2.40,-0.69,2.40,-2.41,-2.38,-1.88,-3.10,-3.10,-3.09
191.42,-0.69,2.43,-0.71,2.42,-2.43,-2.40,-1.92,-3.12,-3.13,-3.12
193.33,-0.73,2.42,-0.72,2.44,-2.44,-2.43,-1.95,-3.17,-3.16,-3.15
195.27,-0.73,2.45,-0.73,2.46,-2.46,-2.45,-1.99,-3.19,-3.18,-3.18
197.22,-0.73,2.48,-0.74,2.47,-2.47,-2.47,-2.03,-3.20,-3.21,-3.21
199.19,-0.74,2.50,-0.75,2.49,-2.49,-2.48,-2.06,-3.23,-3.24,-3.24
201.18,-0.78,2.48,-0.77,2.50,-2.50,-2.50,-2.10,-3.28,-3.27,-3.26
203.19,-0.78,2.50,-0.78,2.50,-2.52,-2.52,-2.14,-3.30,-3.30,-3.28
205.23,-0.78,2.52,-0.78,2.52,-2.53,-2.53,-2.18,-3.31,-3.31,-3.30
207.28,-0.78,2.53,-0.78,2.54,-2.54,-2.54,-2.22,-3.32,-3.31,-3.31
209.35,-0.78,2.55,-0.78,2.55,-2.54,-2.55,-2.26,-3.32,-3.32,-3.33
211.44,-0.78,2.57,-0.79,2.56,-2.55,-2.56,-2.30,-3.33,-3.34,-3.35
213.56,-0.82,2.54,-0.81,2.55,-2.55,-2.56,-2.34,-3.37,-3.36,-3.36
215.69,-0.83,2.53,-0.82,2.55,-2.55,-2.57,-2.37,-3.38,-3.37,-3.36
217.85,-0.83,2.54,-0.84,2.54,-2.55,-2.57,-2.41,-3.38,-3.38,-3.37
220.03,-0.83,2.55,-0.85,2.54,-2.54,-2.57,-2.45,-3.37,-3.39,-3.38
222.23,-0.87,2.52,-0.86,2.53,-2.54,-2.56,-2.48,-3.41,-3.39,-3.39
224.45,-0.87,2.52,-0.87,2.53,-2.53,-2.56,-2.51,-3.40,-3.40,-3.39
226.70,-0.87,2.52,-0.87,2.52,-2.52,-2.55,-2.55,-3.39,-3.39,-3.39
228.96,-0.87,2.52,-0.87,2.52,-2.51,-2.54,-2.57,-3.38,-3.38,-3.39
231.25,-0.87,2.51,-0.88,2.50,-2.50,-2.52,-2.60,-3.37,-3.38,-3.38
233.57,-0.91,2.47,-0.90,2.48,-2.49,-2.51,-2.62,-3.40,-3.39,-3.38
235.90,-0.92,2.46,-0.92,2.46,-2.48,-2.49,-2.64,-3.40,-3.39,-3.38
238.26,-0.92,2.45,-0.92,2.45,-2.46,-2.48,-2.66,-3.38,-3.39,-3.37
240.64,-0.92,2.44,-0.92,2.44,-2.45,-2.46,-2.67,-3.37,-3.37,-3.36
243.05,-0.92,2.43,-0.92,2.44,-2.43,-2.44,-2.68,-3.35,-3.34,-3.35
245.48,-0.92,2.42,-0.92,2.42,-2.41,-2.41,-2.69,-3.33,-3.33,-3.34
247.93,-0.92,2.41,-0.93,2.40,-2.39,-2.39,-2.69,-3.31,-3.33,-3.33
250.41,-0.96,2.36,-0.95,2.37,-2.37,-2.37,-2.69,-3.33,-3.32,-3.32
252.92,-0.97,2.33,-0.97,2.34,-2.35,-2.34,-2.68,-3.32,-3.32,-3.30
255.45,-0.97,2.31,-0.97,2.31,-2.33,-2.32,-2.68,-3.30,-3.30,-3.28
258.00,-0.97,2.30,-0.97,2.30,-2.30,-2.29,-2.66,-3.27,-3.27,-3.27
260.58,-0.97,2.28,-0.97,2.28,-2.27,-2.26,-2.65,-3.24,-3.24,-3.25
263.19,-0.97,2.26,-0.98,2.26,-2.25,-2.24,-2.62,-3.22,-3.23,-3.23
265.82,-0.99,2.22,-0.99,2.22,-2.22,-2.21,-2.60,-3.21,-3.21,-3.21
268.48,-1.01,2.18,-1.00,2.19,-2.20,-2.18,-2.57,-3.21,-3.20,-3.19
271.16,-1.01,2.16,-1.01,2.16,-2.17,-2.15,-2.54,-3.19,-3.19,-3.17
273.87,-1.01,2.14,-1.01,2.14,-2.15,-2.12,-2.51,-3.16,-3.16,-3.15
276.61,-1.01,2.12,-1.01,2.13,-2.12,-2.10,-2.48,-3.13,-3.12,-3.13
279.38,-1.01,2.10,-1.01,2.10,-2.09,-2.07,-2.44,-3.10,-3.10,-3.11
282.17,-1.01,2.08,-1.03,2.07,-2.06,-2.04,-2.40,-3.07,-3.09,-3.09
284.99,-1.06,2.01,-1.04,2.03,-2.04,-2.01,-2.36,-3.10,-3.08,-3.07
287.84,-1.06,1.99,-1.06,2.00,-2.01,-1.98,-2.31,-3.07,-3.07,-3.05
290.72,-1.06,1.97,-1.07,1.97,-1.98,-1.95,-2.27,-3.04,-3.05,-3.03
293.63,-1.06,1.95,-1.06,1.96,-1.95,-1.92,-2.22,-3.01,-3.01,-3.01
296.57,-1.06,1.93,-1.06,1.93,-1.92,-1.90,-2.18,-2.98,-2.98,-2.99
299.53,-1.06,1.91,-1.08,1.90,-1.89,-1.87,-2.13,-2.95,-2.97,-2.97
302.53,-1.11,1.84,-1.09,1.86,-1.86,-1.84,-2.08,-2.97,-2.95,-2.95
305.55,-1.11,1.81,-1.11,1.82,-1.82,-1.81,-2.04,-2.94,-2.93,-2.92
308.61,-1.11,1.79,-1.11,1.79,-1.79,-1.78,-1.99,-2.90,-2.91,-2.90
311.69,-1.11,1.76,-1.12,1.76,-1.76,-1.75,-1.94,-2.87,-2.87,-2.87
314.81,-1.12,1.72,-1.13,1.72,-1.72,-1.73,-1.90,-2.84,-2.85,-2.84
317.96,-1.15,1.67,-1.14,1.68,-1.69,-1.70,-1.85,-2.84,-2.83,-2.82
321.14,-1.15,1.65,-1.15,1.66,-1.65,-1.67,-1.80,-2.80,-2.80,-2.80
324.35,-1.15,1.63,-1.16,1.63,-1.62,-1.64,-1.76,-2.77,-2.78,-2.78
327.59,-1.15,1.61,-1.17,1.60,-1.59,-1.61,-1.71,-2.74,-2.76,-2.76
330.87,-1.20,1.54,-1.18,1.56,-1.56,-1.59,-1.67,-2.76,-2.75,-2.74
334.18,-1.20,1.52,-1.20,1.53,-1.54,-1.56,-1.63,-2.74,-2.73,-2.72
337.52,-1.20,1.50,-1.21,1.50,-1.51,-1.53,-1.59,-2.71,-2.71,-2.70
340.90,-1.20,1.48,-1.20,1.48,-1.48,-1.51,-1.55,-2.68,-2.68,-2.68
344.30,-1.20,1.46,-1.20,1.47,-1.45,-1.48,-1.51,-2.65,-2.65,-2.66
347.75,-1.20,1.44,-1.20,1.44,-1.43,-1.45,-1.47,-2.63,-2.63,-2.64
351.23,-1.21,1.41,-1.22,1.41,-1.40,-1.43,-1.43,-2.61,-2.62,-2.62
354.74,-1.24,1.36,-1.23,1.37,-1.38,-1.40,-1.39,-2.62,-2.61,-2.60
358.28,-1.25,1.34,-1.25,1.34,-1.35,-1.37,-1.36,-2.61,-2.60,-2.59
361.87,-1.25,1.32,-1.25,1.32,-1.33,-1.35,-1.33,-2.58,-2.58,-2.57
365.49,-1.25,1.30,-1.25,1.31,-1.30,-1.32,-1.29,-2.55,-2.55,-2.55
369.14,-1.25,1.29,-1.25,1.29,-1.28,-1.30,-1.26,-2.53,-2.53,-2.54
372.83,-1.25,1.27,-1.26,1.26,-1.26,-1.27,-1.23,-2.51,-2.52,-2.52
376.56,-1.29,1.22,-1.28,1.23,-1.24,-1.25,-1.20,-2.53,-2.52,-2.51
380.33,-1.29,1.20,-1.29,1.21,-1.22,-1.23,-1.17,-2.51,-2.51,-2.49
384.13,-1.29,1.19,-1.29,1.19,-1.20,-1.21,-1.14,-2.49,-2.49,-2.48
387.97,-1.29,1.18,-1.29,1.18,-1.18,-1.18,-1.12,-2.47,-2.47,-2.47
391.85,-1.29,1.17,-1.30,1.17,-1.16,-1.16,-1.09,-2.45,-2.45,-2.46
395.77,-1.30,1.14,-1.30,1.15,-1.14,-1.14,-1.07,-2.44,-2.44,-2.44
399.73,-1.32,1.11,-1.31,1.12,-1.12,-1.12,-1.04,-2.44,-2.43,-2.43
403.72,-1.32,1.10,-1.33,1.10,-1.10,-1.10,-1.02,-2.42,-2.43,-2.42
407.76,-1.34,1.07,-1.34,1.08,-1.09,-1.09,-1.00,-2.43,-2.42,-2.41
411.84,-1.34,1.06,-1.34,1.06,-1.07,-1.07,-0.98,-2.41,-2.41,-2.40
415.96,-1.34,1.05,-1.34,1.05,-1.05,-1.05,-0.96,-2.40,-2.40,-2.39
420.12,-1.34,1.04,-1.34,1.04,-1.04,-1.04,-0.94,-2.38,-2.38,-2.38
424.32,-1.34,1.03,-1.34,1.03,-1.03,-1.02,-0.92,-2.37,-2.37,-2.37
428.56,-1.34,1.02,-1.34,1.02,-1.02,-1.01,-0.91,-2.36,-2.36,-2.36
432.85,-1.34,1.01,-1.34,1.01,-1.01,-0.99,-0.89,-2.35,-2.35,-2.35
437.18,-1.34,1.00,-1.34,1.00,-1.00,-0.98,-0.87,-2.34,-2.34,-2.34
441.55,-1.34,0.98,-1.34,0.99,-0.99,-0.97,-0.86,-2.33,-2.33,-2.32
445.96,-1.34,0.97,-1.34,0.97,-0.98,-0.96,-0.85,-2.33,-2.33,-2.31
450.42,-1.34,0.96,-1.33,0.97,-0.98,-0.95,-0.83,-2.32,-2.31,-2.30
454.93,-1.32,0.96,-1.32,0.97,-0.97,-0.94,-0.82,-2.29,-2.29,-2.28
459.48,-1.29,0.98,-1.30,0.97,-0.96,-0.93,-0.81,-2.25,-2.27,-2.27
464.07,-1.29,0.97,-1.29,0.97,-0.96,-0.92,-0.80,-2.25,-2.25,-2.26
