frequency,raw,error,smoothed,error_smoothed,equalization,parametric_eq,fixed_band_eq,equalized_raw,equalized_smoothed,target
20.00,-4.38,-6.56,-4.39,-6.59,6.59,5.71,2.14,2.21,2.20,2.18
20.20,-4.35,-6.53,-4.36,-6.55,6.55,5.77,2.20,2.20,2.19,2.18
20.40,-4.33,-6.51,-4.32,-6.51,6.51,5.81,2.26,2.18,2.18,2.18
20.61,-4.29,-6.47,-4.29,-6.46,6.46,5.86,2.33,2.17,2.17,2.18
20.81,-4.26,-6.44,-4.26,-6.42,6.42,5.90,2.40,2.16,2.16,2.18
21.02,-4.23,-6.41,-4.22,-6.37,6.37,5.94,2.47,2.14,2.15,2.18
21.23,-4.19,-6.35,-4.19,-6.33,6.33,5.97,2.54,2.14,2.14,2.16
21.44,-4.15,-6.30,-4.15,-6.28,6.28,6.00,2.61,2.13,2.13,2.15
21.66,-4.12,-6.25,-4.11,-6.23,6.23,6.02,2.69,2.11,2.11,2.13
21.87,-4.08,-6.19,-4.08,-6.18,6.18,6.04,2.77,2.10,2.10,2.11
22.09,-4.04,-6.14,-4.04,-6.12,6.12,6.05,2.85,2.08,2.08,2.10
22.31,-4.00,-6.07,-4.01,-6.07,6.07,6.06,2.93,2.07,2.07,2.07
22.54,-3.97,-6.02,-3.97,-6.01,6.01,6.06,3.02,2.04,2.04,2.05
22.76,-3.92,-5.95,-3.93,-5.95,5.95,6.06,3.10,2.03,2.02,2.03
22.99,-3.89,-5.89,-3.89,-5.89,5.89,6.06,3.19,2.00,2.00,2.00
23.22,-3.85,-5.82,-3.85,-5.83,5.83,6.05,3.28,1.98,1.98,1.97
23.45,-3.81,-5.75,-3.81,-5.77,5.77,6.03,3.37,1.96,1.95,1.94
23.69,-3.78,-5.71,-3.78,-5.71,5.71,6.01,3.47,1.93,1.93,1.93
23.92,-3.73,-5.64,-3.74,-5.65,5.65,5.98,3.56,1.92,1.91,1.91
24.16,-3.70,-5.60,-3.70,-5.59,5.59,5.95,3.66,1.89,1.89,1.90
24.40,-3.67,-5.55,-3.66,-5.53,5.53,5.92,3.76,1.86,1.87,1.88
24.65,-3.62,-5.48,-3.62,-5.47,5.47,5.88,3.86,1.85,1.85,1.86
24.89,-3.58,-5.42,-3.58,-5.42,5.42,5.84,3.96,1.84,1.84,1.84
25.14,-3.54,-5.37,-3.54,-5.36,5.36,5.79,4.06,1.82,1.82,1.83
25.39,-3.50,-5.31,-3.50,-5.30,5.30,5.74,4.17,1.80,1.80,1.81
25.65,-3.46,-5.26,-3.46,-5.25,5.25,5.69,4.27,1.78,1.79,1.80
25.91,-3.42,-5.19,-3.42,-5.19,5.19,5.63,4.37,1.77,1.77,1.77
26.16,-3.37,-5.13,-3.38,-5.13,5.13,5.57,4.47,1.76,1.76,1.76
26.43,-3.33,-5.08,-3.33,-5.07,5.07,5.51,4.57,1.74,1.74,1.75
26.69,-3.29,-5.01,-3.29,-5.02,5.02,5.44,4.67,1.73,1.72,1.72
26.96,-3.25,-4.96,-3.25,-4.96,4.96,5.38,4.77,1.71,1.71,1.71
27.23,-3.21,-4.91,-3.21,-4.90,4.90,5.31,4.87,1.69,1.69,1.70
27.50,-3.17,-4.86,-3.17,-4.85,4.85,5.24,4.96,1.68,1.68,1.69
27.77,-3.13,-4.80,-3.13,-4.79,4.79,5.16,5.05,1.66,1.67,1.67
28.05,-3.08,-4.74,-3.09,-4.74,4.74,5.09,5.13,1.66,1.65,1.66
28.33,-3.05,-4.69,-3.05,-4.69,4.69,5.01,5.21,1.64,1.64,1.64
28.62,-3.01,-4.64,-3.01,-4.63,4.63,4.93,5.28,1.62,1.62,1.63
28.90,-2.97,-4.58,-2.97,-4.58,4.58,4.86,5.35,1.61,1.61,1.61
29.19,-2.94,-4.53,-2.94,-4.54,4.54,4.78,5.41,1.59,1.60,1.59
29.48,-2.90,-4.49,-2.90,-4.49,4.49,4.70,5.47,1.59,1.59,1.59
29.78,-2.87,-4.45,-2.87,-4.44,4.44,4.62,5.51,1.57,1.57,1.58
30.08,-2.83,-4.40,-2.84,-4.40,4.40,4.54,5.55,1.56,1.56,1.57
30.38,-2.81,-4.36,-2.81,-4.35,4.35,4.46,5.58,1.54,1.54,1.55
30.68,-2.77,-4.31,-2.78,-4.31,4.31,4.38,5.60,1.54,1.53,1.54
30.99,-2.74,-4.25,-2.76,-4.27,4.27,4.30,5.61,1.53,1.51,1.51
31.30,-2.73,-4.23,-2.73,-4.23,4.23,4.22,5.61,1.50,1.49,1.50
31.61,-2.70,-4.19,-2.71,-4.19,4.19,4.14,5.61,1.49,1.48,1.49
31.93,-2.69,-4.16,-2.69,-4.15,4.15,4.06,5.59,1.46,1.46,1.47
32.24,-2.67,-4.11,-2.67,-4.11,4.11,3.98,5.56,1.44,1.44,1.44
32.57,-2.65,-4.07,-2.65,-4.07,4.07,3.90,5.53,1.42,1.42,1.42
32.89,-2.63,-4.04,-2.63,-4.03,4.03,3.82,5.49,1.40,1.40,1.41
33.22,-2.61,-3.99,-2.61,-3.99,3.99,3.75,5.44,1.37,1.38,1.38
33.55,-2.59,-3.96,-2.59,-3.94,3.94,3.67,5.38,1.35,1.36,1.37
33.89,-2.57,-3.91,-2.56,-3.90,3.90,3.59,5.32,1.33,1.34,1.34
34.23,-2.54,-3.86,-2.54,-3.86,3.86,3.52,5.25,1.32,1.32,1.32
34.57,-2.52,-3.82,-2.52,-3.82,3.82,3.45,5.17,1.30,1.30,1.30
34.92,-2.50,-3.78,-2.50,-3.77,3.77,3.37,5.09,1.27,1.28,1.28
35.27,-2.47,-3.73,-2.47,-3.73,3.73,3.30,5.01,1.26,1.26,1.26
35.62,-2.45,-3.69,-2.45,-3.69,3.69,3.23,4.92,1.24,1.24,1.24
35.97,-2.42,-3.64,-2.43,-3.64,3.64,3.16,4.82,1.22,1.22,1.22
36.33,-2.40,-3.60,-2.40,-3.60,3.60,3.09,4.73,1.19,1.19,1.20
36.70,-2.38,-3.56,-2.38,-3.55,3.55,3.02,4.63,1.17,1.17,1.18
37.06,-2.35,-3.51,-2.35,-3.50,3.50,2.96,4.53,1.15,1.15,1.16
37.43,-2.32,-3.46,-2.32,-3.46,3.46,2.89,4.43,1.14,1.13,1.14
37.81,-2.30,-3.42,-2.30,-3.41,3.41,2.83,4.33,1.11,1.11,1.12
38.19,-2.27,-3.36,-2.27,-3.36,3.36,2.76,4.23,1.09,1.09,1.09
38.57,-2.25,-3.33,-2.24,-3.31,3.31,2.70,4.13,1.06,1.07,1.08
38.95,-2.22,-3.27,-2.22,-3.27,3.27,2.64,4.03,1.05,1.05,1.05
39.34,-2.19,-3.22,-2.19,-3.22,3.22,2.58,3.94,1.03,1.03,1.03
39.74,-2.16,-3.17,-2.17,-3.18,3.18,2.52,3.84,1.02,1.01,1.01
40.14,-2.14,-3.14,-2.14,-3.13,3.13,2.46,3.74,0.99,0.99,1.00
40.54,-2.11,-3.09,-2.11,-3.09,3.09,2.40,3.65,0.98,0.97,0.98
40.94,-2.08,-3.04,-2.09,-3.04,3.04,2.35,3.55,0.96,0.96,0.96
41.35,-2.06,-2.99,-2.06,-3.00,3.00,2.29,3.46,0.94,0.94,0.93
41.76,-2.03,-2.96,-2.04,-2.95,2.95,2.24,3.37,0.92,0.92,0.93
42.18,-2.01,-2.92,-2.01,-2.91,2.91,2.18,3.28,0.90,0.90,0.91
42.60,-1.99,-2.88,-1.99,-2.87,2.87,2.13,3.20,0.88,0.88,0.89
43.03,-1.96,-2.84,-1.96,-2.82,2.82,2.08,3.11,0.86,0.86,0.88
43.46,-1.94,-2.79,-1.93,-2.78,2.78,2.03,3.03,0.84,0.84,0.85
43.90,-1.91,-2.74,-1.91,-2.73,2.73,1.98,2.95,0.82,0.83,0.83
44.33,-1.88,-2.69,-1.88,-2.69,2.69,1.93,2.87,0.81,0.81,0.81
44.78,-1.86,-2.65,-1.86,-2.65,2.65,1.88,2.80,0.78,0.79,0.79
45.23,-1.83,-2.59,-1.83,-2.60,2.60,1.84,2.72,0.77,0.77,0.76
45.68,-1.81,-2.55,-1.81,-2.56,2.56,1.79,2.65,0.75,0.75,0.74
46.13,-1.78,-2.51,-1.78,-2.51,2.51,1.74,2.58,0.73,0.73,0.73
46.60,-1.75,-2.47,-1.76,-2.47,2.47,1.70,2.52,0.71,0.71,0.72
47.06,-1.73,-2.43,-1.73,-2.42,2.42,1.66,2.45,0.69,0.69,0.70
47.53,-1.70,-2.38,-1.71,-2.38,2.38,1.61,2.39,0.68,0.67,0.68
48.01,-1.68,-2.35,-1.69,-2.33,2.33,1.57,2.33,0.65,0.65,0.67
48.49,-1.66,-2.30,-1.67,-2.29,2.29,1.53,2.27,0.63,0.63,0.64
48.97,-1.65,-2.26,-1.65,-2.25,2.25,1.49,2.21,0.60,0.60,0.61
49.46,-1.63,-2.21,-1.63,-2.21,2.21,1.45,2.16,0.58,0.58,0.58
49.96,-1.61,-2.16,-1.61,-2.17,2.17,1.41,2.11,0.56,0.56,0.55
50.46,-1.59,-2.13,-1.59,-2.13,2.13,1.37,2.05,0.54,0.54,0.54
50.96,-1.57,-2.09,-1.57,-2.09,2.09,1.33,2.00,0.52,0.52,0.52
51.47,-1.56,-2.05,-1.56,-2.05,2.05,1.29,1.95,0.49,0.49,0.49
51.99,-1.54,-2.01,-1.54,-2.01,2.01,1.25,1.91,0.47,0.47,0.47
52.51,-1.52,-1.97,-1.52,-1.97,1.97,1.22,1.86,0.45,0.44,0.45
53.03,-1.51,-1.94,-1.51,-1.93,1.93,1.18,1.82,0.41,0.42,0.43
53.56,-1.49,-1.89,-1.49,-1.88,1.88,1.15,1.77,0.39,0.39,0.40
54.10,-1.47,-1.85,-1.47,-1.84,1.84,1.11,1.73,0.37,0.37,0.38
54.64,-1.46,-1.81,-1.45,-1.80,1.80,1.08,1.69,0.34,0.35,0.35
55.18,-1.44,-1.77,-1.44,-1.76,1.76,1.04,1.65,0.32,0.32,0.33
55.74,-1.42,-1.72,-1.42,-1.72,1.72,1.01,1.61,0.30,0.30,0.30
56.29,-1.40,-1.68,-1.40,-1.68,1.68,0.98,1.57,0.28,0.28,0.28
56.86,-1.38,-1.63,-1.38,-1.64,1.64,0.95,1.53,0.25,0.25,0.25
57.42,-1.36,-1.59,-1.36,-1.59,1.59,0.91,1.49,0.23,0.23,0.23
58.00,-1.34,-1.55,-1.34,-1.55,1.55,0.88,1.45,0.21,0.20,0.21
58.58,-1.33,-1.51,-1.33,-1.50,1.50,0.85,1.41,0.17,0.18,0.18
59.16,-1.30,-1.46,-1.31,-1.46,1.46,0.82,1.38,0.16,0.15,0.16
59.76,-1.29,-1.43,-1.29,-1.41,1.41,0.79,1.34,0.12,0.12,0.14
60.35,-1.27,-1.38,-1.27,-1.37,1.37,0.76,1.30,0.10,0.10,0.11
60.96,-1.25,-1.34,-1.25,-1.32,1.32,0.73,1.26,0.07,0.07,0.09
61.57,-1.23,-1.28,-1.23,-1.28,1.28,0.70,1.22,0.05,0.05,0.05
62.18,-1.21,-1.23,-1.21,-1.23,1.23,0.67,1.19,0.02,0.02,0.02
62.80,-1.19,-1.18,-1.20,-1.19,1.19,0.64,1.15,-0.00,-0.01,-0.01
63.43,-1.18,-1.14,-1.18,-1.14,1.14,0.61,1.11,-0.04,-0.03,-0.04
64.07,-1.17,-1.10,-1.16,-1.10,1.10,0.59,1.07,-0.07,-0.06,-0.07
64.71,-1.14,-1.05,-1.15,-1.06,1.06,0.56,1.03,-0.08,-0.09,-0.09
65.35,-1.13,-1.02,-1.13,-1.02,1.02,0.53,0.99,-0.11,-0.11,-0.11
66.01,-1.12,-0.99,-1.12,-0.98,0.98,0.50,0.95,-0.14,-0.14,-0.13
66.67,-1.10,-0.94,-1.10,-0.94,0.94,0.48,0.91,-0.16,-0.16,-0.16
67.33,-1.08,-0.90,-1.09,-0.90,0.90,0.45,0.87,-0.18,-0.19,-0.18
68.01,-1.08,-0.87,-1.08,-0.86,0.86,0.42,0.83,-0.22,-0.21,-0.21
68.69,-1.06,-0.83,-1.06,-0.82,0.82,0.39,0.78,-0.24,-0.24,-0.23
69.37,-1.05,-0.79,-1.05,-0.79,0.79,0.37,0.74,-0.26,-0.26,-0.26
70.07,-1.04,-0.75,-1.04,-0.75,0.75,0.34,0.70,-0.29,-0.29,-0.29
70.77,-1.03,-0.72,-1.03,-0.71,0.71,0.32,0.66,-0.32,-0.32,-0.31
71.48,-1.02,-0.68,-1.02,-0.67,0.67,0.29,0.61,-0.35,-0.35,-0.34
72.19,-1.02,-0.65,-1.02,-0.63,0.63,0.26,0.57,-0.39,-0.38,-0.37
72.91,-1.00,-0.59,-1.01,-0.60,0.60,0.24,0.53,-0.40,-0.41,-0.41
73.64,-1.00,-0.56,-1.00,-0.56,0.56,0.21,0.48,-0.44,-0.45,-0.44
74.38,-1.00,-0.53,-1.00,-0.52,0.52,0.19,0.44,-0.48,-0.48,-0.47
75.12,-0.99,-0.47,-1.00,-0.48,0.48,0.16,0.39,-0.51,-0.51,-0.52
75.87,-0.99,-0.44,-0.99,-0.44,0.44,0.13,0.35,-0.55,-0.55,-0.55
76.63,-0.99,-0.41,-0.99,-0.40,0.40,0.11,0.30,-0.59,-0.59,-0.58
77.40,-0.99,-0.37,-0.99,-0.36,0.36,0.08,0.26,-0.63,-0.63,-0.62
78.17,-0.99,-0.31,-0.99,-0.32,0.32,0.06,0.21,-0.67,-0.67,-0.68
78.95,-0.99,-0.29,-0.99,-0.28,0.28,0.03,0.16,-0.71,-0.71,-0.70
79.74,-0.99,-0.25,-0.99,-0.24,0.24,0.00,0.12,-0.75,-0.75,-0.74
80.54,-0.99,-0.20,-0.99,-0.20,0.20,-0.02,0.07,-0.80,-0.79,-0.79
81.35,-0.99,-0.16,-0.99,-0.16,0.16,-0.05,0.02,-0.84,-0.84,-0.83
82.16,-0.99,-0.11,-1.00,-0.11,0.11,-0.07,-0.02,-0.88,-0.88,-0.88
82.98,-1.00,-0.08,-1.00,-0.07,0.07,-0.10,-0.07,-0.93,-0.93,-0.92
83.81,-1.00,-0.02,-1.01,-0.03,0.03,-0.13,-0.12,-0.97,-0.97,-0.98
84.65,-1.01,0.01,-1.01,0.01,-0.01,-0.15,-0.17,-1.02,-1.02,-1.02
85.50,-1.02,0.04,-1.02,0.05,-0.05,-0.18,-0.21,-1.07,-1.07,-1.06
86.35,-1.02,0.09,-1.02,0.09,-0.09,-0.21,-0.26,-1.11,-1.12,-1.11
87.22,-1.04,0.12,-1.03,0.13,-0.13,-0.23,-0.31,-1.17,-1.17,-1.16
88.09,-1.04,0.18,-1.04,0.18,-0.18,-0.26,-0.36,-1.22,-1.22,-1.22
88.97,-1.05,0.21,-1.05,0.22,-0.22,-0.29,-0.41,-1.27,-1.27,-1.26
89.86,-1.06,0.25,-1.06,0.26,-0.26,-0.31,-0.46,-1.32,-1.32,-1.31
90.76,-1.07,0.30,-1.07,0.30,-0.30,-0.34,-0.51,-1.37,-1.37,-1.37
91.66,-1.08,0.34,-1.08,0.34,-0.34,-0.37,-0.56,-1.42,-1.42,-1.42
92.58,-1.09,0.39,-1.09,0.38,-0.38,-0.40,-0.61,-1.47,-1.47,-1.48
93.51,-1.10,0.42,-1.10,0.43,-0.43,-0.43,-0.67,-1.53,-1.53,-1.52
94.44,-1.11,0.46,-1.11,0.47,-0.47,-0.46,-0.72,-1.58,-1.59,-1.57
95.39,-1.12,0.51,-1.12,0.52,-0.52,-0.48,-0.77,-1.64,-1.64,-1.63
96.34,-1.14,0.56,-1.14,0.56,-0.56,-0.51,-0.82,-1.70,-1.70,-1.70
97.30,-1.15,0.60,-1.15,0.61,-0.61,-0.54,-0.88,-1.76,-1.76,-1.75
98.28,-1.16,0.65,-1.16,0.65,-0.65,-0.57,-0.93,-1.82,-1.82,-1.81
99.26,-1.17,0.71,-1.17,0.70,-0.70,-0.60,-0.98,-1.87,-1.88,-1.88
100.25,-1.19,0.74,-1.19,0.75,-0.75,-0.63,-1.03,-1.94,-1.94,-1.93
101.25,-1.20,0.79,-1.20,0.80,-0.80,-0.67,-1.09,-2.00,-2.00,-1.99
102.27,-1.21,0.85,-1.21,0.85,-0.85,-0.70,-1.14,-2.06,-2.06,-2.06
103.29,-1.23,0.90,-1.23,0.90,-0.90,-0.73,-1.19,-2.13,-2.12,-2.13
104.32,-1.24,0.94,-1.24,0.95,-0.95,-0.76,-1.25,-2.19,-2.19,-2.18
105.37,-1.25,0.99,-1.26,1.00,-1.00,-0.79,-1.30,-2.25,-2.25,-2.24
106.42,-1.27,1.04,-1.27,1.05,-1.05,-0.83,-1.35,-2.32,-2.32,-2.31
107.48,-1.29,1.09,-1.28,1.10,-1.10,-0.86,-1.40,-2.39,-2.38,-2.38
108.56,-1.30,1.15,-1.30,1.15,-1.15,-0.89,-1.45,-2.45,-2.45,-2.45
109.64,-1.31,1.20,-1.31,1.20,-1.20,-0.93,-1.50,-2.52,-2.52,-2.51
110.74,-1.32,1.25,-1.33,1.26,-1.26,-0.96,-1.55,-2.58,-2.58,-2.57
111.85,-1.34,1.30,-1.34,1.31,-1.31,-1.00,-1.59,-2.65,-2.65,-2.64
112.97,-1.36,1.36,-1.36,1.36,-1.36,-1.03,-1.64,-2.72,-2.72,-2.72
114.10,-1.37,1.41,-1.37,1.41,-1.41,-1.07,-1.68,-2.79,-2.79,-2.78
115.24,-1.38,1.47,-1.39,1.47,-1.47,-1.11,-1.72,-2.85,-2.85,-2.85
116.39,-1.40,1.52,-1.40,1.52,-1.52,-1.14,-1.76,-2.92,-2.92,-2.92
117.55,-1.42,1.57,-1.42,1.57,-1.57,-1.18,-1.80,-2.99,-2.99,-2.99
118.73,-1.43,1.62,-1.44,1.61,-1.61,-1.22,-1.83,-3.04,-3.05,-3.05
119.92,-1.45,1.66,-1.45,1.66,-1.66,-1.26,-1.86,-3.11,-3.11,-3.11
121.12,-1.47,1.70,-1.47,1.71,-1.71,-1.30,-1.89,-3.18,-3.18,-3.17
122.33,-1.48,1.76,-1.48,1.76,-1.76,-1.34,-1.92,-3.24,-3.24,-3.24
123.55,-1.50,1.79,-1.49,1.80,-1.80,-1.38,-1.94,-3.31,-3.30,-3.29
124.79,-1.51,1.84,-1.51,1.85,-1.85,-1.42,-1.96,-3.36,-3.36,-3.35
126.03,-1.53,1.87,-1.52,1.89,-1.89,-1.46,-1.98,-3.43,-3.42,-3.40
127.29,-1.54,1.92,-1.54,1.94,-1.94,-1.50,-2.00,-3.48,-3.47,-3.46
128.57,-1.55,1.98,-1.55,1.98,-1.98,-1.54,-2.01,-3.53,-3.53,-3.53
129.85,-1.56,2.02,-1.56,2.02,-2.02,-1.58,-2.02,-3.58,-3.58,-3.58
131.15,-1.57,2.06,-1.58,2.06,-2.06,-1.62,-2.03,-3.63,-3.64,-3.63
132.46,-1.58,2.11,-1.59,2.10,-2.10,-1.66,-2.03,-3.68,-3.69,-3.69
133.79,-1.60,2.13,-1.61,2.13,-2.13,-1.71,-2.04,-3.73,-3.74,-3.73
135.12,-1.62,2.17,-1.62,2.16,-2.16,-1.75,-2.04,-3.78,-3.78,-3.79
136.48,-1.63,2.19,-1.64,2.19,-2.19,-1.79,-2.04,-3.82,-3.82,-3.82
137.84,-1.65,2.21,-1.66,2.21,-2.21,-1.83,-2.03,-3.86,-3.87,-3.86
139.22,-1.67,2.24,-1.67,2.23,-2.23,-1.88,-2.03,-3.90,-3.91,-3.91
140.61,-1.69,2.26,-1.69,2.25,-2.25,-1.92,-2.03,-3.94,-3.94,-3.95
142.02,-1.71,2.26,-1.71,2.27,-2.27,-1.96,-2.02,-3.98,-3.98,-3.97
143.44,-1.74,2.26,-1.73,2.28,-2.28,-2.00,-2.01,-4.02,-4.01,-4.00
144.87,-1.76,2.28,-1.75,2.29,-2.29,-2.05,-2.01,-4.05,-4.04,-4.04
146.32,-1.77,2.30,-1.77,2.30,-2.30,-2.09,-2.00,-4.07,-4.07,-4.07
147.78,-1.79,2.30,-1.79,2.31,-2.31,-2.13,-1.99,-4.10,-4.10,-4.09
149.26,-1.81,2.31,-1.81,2.32,-2.32,-2.17,-1.99,-4.13,-4.13,-4.12
150.75,-1.83,2.33,-1.82,2.33,-2.33,-2.21,-1.98,-4.16,-4.16,-4.16
152.26,-1.84,2.34,-1.84,2.34,-2.34,-2.25,-1.97,-4.18,-4.19,-4.18
153.78,-1.86,2.35,-1.86,2.35,-2.35,-2.29,-1.97,-4.21,-4.21,-4.21
155.32,-1.87,2.36,-1.88,2.36,-2.36,-2.33,-1.96,-4.23,-4.24,-4.23
156.88,-1.89,2.37,-1.89,2.37,-2.37,-2.36,-1.95,-4.26,-4.27,-4.26
158.44,-1.91,2.38,-1.91,2.38,-2.38,-2.40,-1.95,-4.29,-4.30,-4.29
160.03,-1.93,2.39,-1.93,2.39,-2.39,-2.43,-1.95,-4.32,-4.32,-4.32
161.63,-1.95,2.40,-1.95,2.40,-2.40,-2.47,-1.95,-4.35,-4.35,-4.35
163.24,-1.97,2.41,-1.97,2.41,-2.41,-2.50,-1.95,-4.38,-4.38,-4.38
164.88,-1.98,2.42,-1.99,2.42,-2.42,-2.53,-1.95,-4.40,-4.41,-4.40
166.53,-2.00,2.42,-2.01,2.43,-2.43,-2.56,-1.95,-4.43,-4.43,-4.42
168.19,-2.03,2.43,-2.03,2.43,-2.43,-2.58,-1.95,-4.47,-4.46,-4.46
169.87,-2.05,2.44,-2.05,2.44,-2.44,-2.61,-1.96,-4.49,-4.49,-4.49
171.57,-2.07,2.45,-2.08,2.45,-2.45,-2.63,-1.97,-4.52,-4.53,-4.52
173.29,-2.10,2.44,-2.10,2.46,-2.46,-2.65,-1.98,-4.56,-4.56,-4.54
175.02,-2.12,2.46,-2.13,2.47,-2.47,-2.67,-1.99,-4.59,-4.59,-4.58
176.77,-2.15,2.47,-2.15,2.47,-2.47,-2.68,-2.00,-4.63,-4.63,-4.62
178.54,-2.18,2.48,-2.18,2.48,-2.48,-2.70,-2.01,-4.66,-4.66,-4.66
180.32,-2.21,2.48,-2.21,2.48,-2.48,-2.71,-2.03,-4.70,-4.69,-4.69
182.13,-2.24,2.48,-2.24,2.49,-2.49,-2.72,-2.05,-4.73,-4.73,-4.72
183.95,-2.28,2.48,-2.27,2.49,-2.49,-2.72,-2.06,-4.78,-4.76,-4.76
185.79,-2.30,2.50,-2.30,2.50,-2.50,-2.73,-2.08,-4.80,-4.80,-4.80
187.65,-2.33,2.51,-2.33,2.50,-2.50,-2.73,-2.11,-4.83,-4.83,-4.84
189.52,-2.37,2.50,-2.37,2.50,-2.50,-2.73,-2.13,-4.87,-4.86,-4.87
191.42,-2.40,2.49,-2.40,2.49,-2.49,-2.72,-2.15,-4.89,-4.90,-4.89
193.33,-2.43,2.48,-2.44,2.49,-2.49,-2.72,-2.18,-4.92,-4.93,-4.91
195.27,-2.47,2.47,-2.47,2.48,-2.48,-2.71,-2.21,-4.95,-4.95,-4.94
197.22,-2.51,2.46,-2.51,2.47,-2.47,-2.70,-2.23,-4.98,-4.98,-4.97
199.19,-2.54,2.48,-2.55,2.46,-2.46,-2.68,-2.26,-5.00,-5.01,-5.02
201.18,-2.58,2.45,-2.59,2.44,-2.44,-2.67,-2.29,-5.02,-5.03,-5.03
203.19,-2.63,2.42,-2.63,2.43,-2.43,-2.65,-2.32,-5.06,-5.05,-5.05
205.23,-2.67,2.40,-2.67,2.41,-2.41,-2.63,-2.35,-5.08,-5.08,-5.07
207.28,-2.70,2.38,-2.71,2.39,-2.39,-2.60,-2.38,-5.09,-5.10,-5.08
209.35,-2.75,2.36,-2.75,2.37,-2.37,-2.58,-2.41,-5.12,-5.12,-5.11
211.44,-2.78,2.35,-2.79,2.35,-2.35,-2.55,-2.44,-5.13,-5.13,-5.13
213.56,-2.82,2.33,-2.82,2.33,-2.33,-2.52,-2.47,-5.15,-5.15,-5.15
215.69,-2.86,2.29,-2.86,2.30,-2.30,-2.49,-2.50,-5.17,-5.16,-5.15
217.85,-2.90,2.26,-2.89,2.28,-2.28,-2.46,-2.53,-5.18,-5.18,-5.16
220.03,-2.93,2.26,-2.92,2.26,-2.26,-2.42,-2.55,-5.19,-5.18,-5.19
222.23,-2.95,2.25,-2.95,2.24,-2.24,-2.39,-2.58,-5.19,-5.19,-5.20
224.45,-2.98,2.21,-2.97,2.22,-2.22,-2.35,-2.60,-5.21,-5.20,-5.19
226.70,-3.00,2.20,-2.99,2.21,-2.21,-2.31,-2.62,-5.21,-5.20,-5.20
228.96,-3.01,2.19,-3.01,2.19,-2.19,-2.27,-2.63,-5.20,-5.20,-5.20
231.25,-3.03,2.16,-3.02,2.17,-2.17,-2.23,-2.65,-5.20,-5.20,-5.19
233.57,-3.04,2.14,-3.04,2.16,-2.16,-2.19,-2.65,-5.20,-5.19,-5.18
235.90,-3.05,2.13,-3.05,2.14,-2.14,-2.15,-2.66,-5.19,-5.18,-5.18
238.26,-3.05,2.13,-3.05,2.12,-2.12,-2.11,-2.66,-5.17,-5.17,-5.18
240.64,-3.05,2.11,-3.06,2.10,-2.10,-2.07,-2.66,-5.15,-5.16,-5.16
243.05,-3.05,2.09,-3.06,2.08,-2.08,-2.02,-2.65,-5.13,-5.15,-5.14
245.48,-3.07,2.05,-3.07,2.06,-2.06,-1.98,-2.64,-5.13,-5.13,-5.12
247.93,-3.07,2.04,-3.07,2.04,-2.04,-1.93,-2.62,-5.11,-5.11,-5.11
250.41,-3.07,2.03,-3.08,2.02,-2.02,-1.89,-2.60,-5.09,-5.09,-5.10
252.92,-3.08,1.98,-3.08,1.99,-1.99,-1.85,-2.57,-5.07,-5.07,-5.06
255.45,-3.09,1.95,-3.09,1.96,-1.96,-1.80,-2.54,-5.05,-5.05,-5.04
258.00,-3.09,1.93,-3.10,1.93,-1.93,-1.76,-2.51,-5.02,-5.03,-5.02
260.58,-3.10,1.90,-3.10,1.90,-1.90,-1.71,-2.46,-5.00,-5.01,-5.00
263.19,-3.11,1.87,-3.11,1.87,-1.87,-1.67,-2.42,-4.98,-4.98,-4.98
265.82,-3.12,1.84,-3.12,1.84,-1.84,-1.62,-2.37,-4.96,-4.96,-4.96
268.48,-3.13,1.80,-3.13,1.80,-1.80,-1.58,-2.31,-4.93,-4.94,-4.93
271.16,-3.14,1.76,-3.14,1.77,-1.77,-1.53,-2.25,-4.91,-4.91,-4.90
273.87,-3.16,1.72,-3.15,1.73,-1.73,-1.49,-2.19,-4.90,-4.89,-4.88
276.61,-3.17,1.68,-3.16,1.70,-1.70,-1.44,-2.12,-4.87,-4.86,-4.85
279.38,-3.17,1.66,-3.18,1.66,-1.66,-1.40,-2.05,-4.83,-4.84,-4.83
282.17,-3.19,1.62,-3.19,1.62,-1.62,-1.36,-1.98,-4.81,-4.81,-4.81
284.99,-3.20,1.58,-3.20,1.58,-1.58,-1.31,-1.91,-4.79,-4.79,-4.78
287.84,-3.22,1.54,-3.22,1.54,-1.54,-1.27,-1.83,-4.76,-4.76,-4.76
290.72,-3.22,1.50,-3.23,1.50,-1.50,-1.23,-1.75,-4.72,-4.73,-4.72
293.63,-3.24,1.46,-3.24,1.46,-1.46,-1.19,-1.66,-4.70,-4.70,-4.70
296.57,-3.26,1.41,-3.26,1.41,-1.41,-1.14,-1.58,-4.67,-4.67,-4.67
299.53,-3.27,1.37,-3.27,1.37,-1.37,-1.10,-1.49,-4.64,-4.64,-4.64
302.53,-3.29,1.33,-3.29,1.32,-1.32,-1.06,-1.41,-4.61,-4.61,-4.62
305.55,-3.31,1.26,-3.31,1.27,-1.27,-1.02,-1.32,-4.58,-4.58,-4.57
308.61,-3.32,1.22,-3.33,1.22,-1.22,-0.98,-1.23,-4.54,-4.54,-4.54
311.69,-3.34,1.16,-3.34,1.17,-1.17,-0.94,-1.14,-4.51,-4.51,-4.50
314.81,-3.36,1.11,-3.36,1.12,-1.12,-0.90,-1.05,-4.48,-4.48,-4.47
317.96,-3.39,1.05,-3.39,1.06,-1.06,-0.86,-0.96,-4.45,-4.45,-4.44
321.14,-3.40,1.01,-3.41,1.01,-1.01,-0.83,-0.87,-4.41,-4.42,-4.41
324.35,-3.43,0.96,-3.43,0.96,-0.96,-0.79,-0.77,-4.39,-4.39,-4.39
327.59,-3.45,0.90,-3.45,0.91,-0.91,-0.75,-0.68,-4.36,-4.36,-4.35
330.87,-3.48,0.84,-3.48,0.86,-0.86,-0.71,-0.59,-4.34,-4.33,-4.32
334.18,-3.50,0.80,-3.50,0.80,-0.80,-0.67,-0.50,-4.30,-4.30,-4.30
337.52,-3.52,0.76,-3.53,0.75,-0.75,-0.64,-0.40,-4.27,-4.28,-4.28
340.90,-3.55,0.70,-3.55,0.71,-0.71,-0.60,-0.31,-4.26,-4.26,-4.25
344.30,-3.58,0.65,-3.58,0.66,-0.66,-0.56,-0.22,-4.24,-4.23,-4.23
347.75,-3.60,0.60,-3.60,0.61,-0.61,-0.53,-0.12,-4.21,-4.21,-4.20
351.23,-3.62,0.56,-3.62,0.57,-0.57,-0.49,-0.03,-4.19,-4.19,-4.18
354.74,-3.65,0.52,-3.65,0.52,-0.52,-0.46,0.06,-4.17,-4.17,-4.17
358.28,-3.68,0.47,-3.67,0.48,-0.48,-0.42,0.16,-4.16,-4.15,-4.15
361.87,-3.70,0.43,-3.70,0.43,-0.43,-0.38,0.25,-4.13,-4.13,-4.13
365.49,-3.72,0.38,-3.72,0.39,-0.39,-0.35,0.34,-4.11,-4.11,-4.10
369.14,-3.75,0.34,-3.75,0.35,-0.35,-0.31,0.44,-4.10,-4.09,-4.09
372.83,-3.77,0.31,-3.77,0.30,-0.30,-0.28,0.53,-4.07,-4.07,-4.08
376.56,-3.79,0.27,-3.80,0.26,-0.26,-0.24,0.62,-4.05,-4.05,-4.06
380.33,-3.82,0.21,-3.82,0.21,-0.21,-0.21,0.72,-4.03,-4.04,-4.03
384.13,-3.84,0.17,-3.85,0.17,-0.17,-0.17,0.81,-4.01,-4.02,-4.01
387.97,-3.87,0.12,-3.88,0.12,-0.12,-0.14,0.90,-3.99,-4.00,-3.99
391.85,-3.90,0.07,-3.90,0.07,-0.07,-0.10,0.99,-3.97,-3.97,-3.97
395.77,-3.93,0.01,-3.93,0.02,-0.02,-0.06,1.08,-3.96,-3.95,-3.94
399.73,-3.95,-0.03,-3.95,-0.02,0.02,-0.03,1.18,-3.93,-3.93,-3.92
403.72,-3.98,-0.07,-3.98,-0.07,0.07,0.01,1.27,-3.91,-3.91,-3.91
407.76,-4.01,-0.12,-4.01,-0.12,0.12,0.04,1.36,-3.89,-3.89,-3.89
411.84,-4.04,-0.18,-4.03,-0.16,0.16,0.08,1.44,-3.88,-3.87,-3.86
415.96,-4.06,-0.22,-4.05,-0.21,0.21,0.12,1.53,-3.85,-3.84,-3.84
420.12,-4.08,-0.26,-4.08,-0.25,0.25,0.16,1.62,-3.83,-3.82,-3.82
424.32,-4.11,-0.32,-4.10,-0.30,0.30,0.20,1.70,-3.81,-3.80,-3.79
428.56,-4.13,-0.36,-4.12,-0.35,0.35,0.24,1.78,-3.78,-3.78,-3.77
432.85,-4.15,-0.40,-4.14,-0.39,0.39,0.28,1.86,-3.76,-3.75,-3.75
437.18,-4.17,-0.45,-4.17,-0.44,0.44,0.32,1.94,-3.73,-3.73,-3.72
441.55,-4.18,-0.49,-4.20,-0.49,0.49,0.36,2.01,-3.69,-3.70,-3.69
445.96,-4.21,-0.54,-4.23,-0.55,0.55,0.41,2.08,-3.66,-3.68,-3.67
450.42,-4.24,-0.58,-4.26,-0.61,0.61,0.45,2.15,-3.63,-3.65,-3.66
454.93,-4.28,-0.66,-4.29,-0.67,0.67,0.50,2.21,-3.61,-3.62,-3.62
459.48,-4.31,-0.71,-4.33,-0.73,0.73,0.55,2.27,-3.58,-3.60,-3.60
