frequency,raw,error,smoothed,error_smoothed,equalization,parametric_eq,fixed_band_eq,equalized_raw,equalized_smoothed,target
20.00,-5.03,-10.95,-5.04,-10.99,10.99,10.48,3.49,5.96,5.95,5.92
20.20,-4.90,-10.86,-4.91,-10.88,10.88,10.43,3.59,5.98,5.98,5.96
20.40,-4.78,-10.78,-4.77,-10.78,10.78,10.37,3.69,6.00,6.01,6.00
20.61,-4.65,-10.69,-4.64,-10.67,10.67,10.31,3.79,6.02,6.04,6.03
20.81,-4.52,-10.59,-4.51,-10.57,10.57,10.25,3.89,6.05,6.06,6.07
21.02,-4.40,-10.51,-4.38,-10.47,10.47,10.19,4.00,6.07,6.09,6.11
21.23,-4.26,-10.39,-4.25,-10.37,10.37,10.13,4.11,6.11,6.11,6.13
21.44,-4.13,-10.28,-4.13,-10.27,10.27,10.06,4.23,6.14,6.14,6.15
21.66,-4.00,-10.18,-4.01,-10.17,10.17,9.99,4.34,6.16,6.16,6.17
21.87,-3.87,-10.05,-3.89,-10.07,10.07,9.93,4.46,6.20,6.18,6.18
22.09,-3.75,-9.95,-3.77,-9.97,9.97,9.86,4.59,6.22,6.20,6.20
22.31,-3.64,-9.85,-3.66,-9.87,9.87,9.79,4.72,6.23,6.21,6.21
22.54,-3.54,-9.77,-3.55,-9.77,9.77,9.72,4.85,6.23,6.22,6.22
22.76,-3.44,-9.67,-3.44,-9.67,9.67,9.65,4.98,6.24,6.24,6.23
22.99,-3.33,-9.56,-3.33,-9.58,9.58,9.58,5.12,6.25,6.24,6.23
23.22,-3.24,-9.48,-3.23,-9.48,9.48,9.50,5.26,6.24,6.25,6.24
23.45,-3.14,-9.39,-3.13,-9.39,9.39,9.43,5.40,6.25,6.26,6.25
23.69,-3.05,-9.32,-3.03,-9.30,9.30,9.36,5.55,6.25,6.27,6.26
23.92,-2.95,-9.22,-2.94,-9.22,9.22,9.28,5.70,6.27,6.28,6.27
24.16,-2.85,-9.14,-2.85,-9.13,9.13,9.21,5.85,6.28,6.29,6.29
24.40,-2.75,-9.06,-2.75,-9.05,9.05,9.13,6.01,6.30,6.30,6.31
24.65,-2.65,-8.95,-2.66,-8.97,8.97,9.06,6.17,6.31,6.31,6.30
24.89,-2.55,-8.86,-2.57,-8.88,8.88,8.98,6.33,6.33,6.32,6.31
25.14,-2.46,-8.78,-2.47,-8.80,8.80,8.90,6.49,6.34,6.33,6.32
25.39,-2.38,-8.71,-2.38,-8.71,8.71,8.83,6.66,6.34,6.34,6.33
25.65,-2.29,-8.64,-2.28,-8.63,8.63,8.75,6.83,6.34,6.35,6.35
25.91,-2.21,-8.57,-2.18,-8.54,8.54,8.67,6.99,6.33,6.36,6.35
26.16,-2.12,-8.48,-2.09,-8.46,8.46,8.60,7.16,6.34,6.37,6.36
26.43,-2.02,-8.40,-2.00,-8.38,8.38,8.52,7.33,6.36,6.38,6.37
26.69,-1.92,-8.30,-1.92,-8.30,8.30,8.44,7.50,6.38,6.39,6.38
26.96,-1.82,-8.22,-1.83,-8.23,8.23,8.37,7.67,6.41,6.39,6.40
27.23,-1.73,-8.14,-1.75,-8.16,8.16,8.29,7.83,6.42,6.40,6.41
27.50,-1.64,-8.05,-1.67,-8.08,8.08,8.21,7.99,6.44,6.41,6.41
27.77,-1.55,-7.96,-1.59,-8.01,8.01,8.14,8.15,6.46,6.42,6.41
28.05,-1.47,-7.90,-1.51,-7.94,7.94,8.06,8.30,6.47,6.43,6.43
28.33,-1.42,-7.85,-1.42,-7.86,7.86,7.98,8.45,6.44,6.44,6.43
28.62,-1.37,-7.81,-1.35,-7.79,7.79,7.91,8.58,6.42,6.45,6.44
28.90,-1.32,-7.77,-1.27,-7.72,7.72,7.83,8.71,6.40,6.45,6.45
29.19,-1.24,-7.69,-1.19,-7.65,7.65,7.76,8.83,6.41,6.46,6.45
29.48,-1.14,-7.62,-1.12,-7.59,7.59,7.68,8.94,6.45,6.47,6.48
29.78,-1.04,-7.51,-1.04,-7.52,7.52,7.61,9.04,6.48,6.47,6.47
30.08,-0.95,-7.44,-0.97,-7.45,7.45,7.54,9.12,6.50,6.48,6.48
30.38,-0.88,-7.36,-0.90,-7.38,7.38,7.46,9.19,6.50,6.49,6.48
30.68,-0.81,-7.31,-0.82,-7.32,7.32,7.39,9.25,6.51,6.50,6.50
30.99,-0.73,-7.23,-0.75,-7.25,7.25,7.32,9.29,6.52,6.50,6.50
31.30,-0.67,-7.17,-0.68,-7.19,7.19,7.25,9.31,6.52,6.51,6.50
31.61,-0.61,-7.12,-0.61,-7.12,7.12,7.17,9.32,6.51,6.52,6.51
31.93,-0.54,-7.06,-0.54,-7.06,7.06,7.10,9.31,6.52,6.53,6.52
32.24,-0.48,-7.00,-0.47,-7.00,7.00,7.03,9.29,6.53,6.53,6.52
32.57,-0.41,-6.95,-0.41,-6.95,6.95,6.96,9.25,6.54,6.54,6.54
32.89,-0.34,-6.88,-0.35,-6.90,6.90,6.89,9.20,6.56,6.55,6.54
33.22,-0.29,-6.84,-0.30,-6.85,6.85,6.83,9.14,6.56,6.55,6.55
33.55,-0.24,-6.80,-0.24,-6.80,6.80,6.76,9.07,6.56,6.56,6.56
33.89,-0.19,-6.76,-0.17,-6.74,6.74,6.69,8.98,6.55,6.57,6.57
34.23,-0.13,-6.70,-0.12,-6.69,6.69,6.63,8.89,6.56,6.57,6.57
34.57,-0.07,-6.65,-0.06,-6.64,6.64,6.56,8.78,6.57,6.58,6.58
34.92,-0.01,-6.59,-0.01,-6.60,6.60,6.50,8.67,6.59,6.59,6.58
35.27,0.04,-6.55,0.04,-6.55,6.55,6.43,8.56,6.59,6.59,6.59
35.62,0.09,-6.50,0.09,-6.51,6.51,6.37,8.44,6.60,6.59,6.59
35.97,0.15,-6.44,0.14,-6.46,6.46,6.31,8.31,6.61,6.60,6.59
36.33,0.21,-6.39,0.19,-6.41,6.41,6.25,8.19,6.62,6.60,6.60
36.70,0.27,-6.32,0.24,-6.36,6.36,6.19,8.06,6.63,6.60,6.59
37.06,0.32,-6.28,0.29,-6.31,6.31,6.13,7.93,6.63,6.60,6.60
37.43,0.32,-6.28,0.34,-6.26,6.26,6.07,7.80,6.58,6.60,6.60
37.81,0.32,-6.28,0.38,-6.22,6.22,6.01,7.67,6.54,6.60,6.60
38.19,0.37,-6.23,0.42,-6.18,6.18,5.95,7.55,6.55,6.60,6.60
38.57,0.46,-6.13,0.46,-6.13,6.13,5.90,7.42,6.59,6.59,6.59
38.95,0.56,-6.03,0.51,-6.08,6.08,5.84,7.30,6.64,6.59,6.59
39.34,0.60,-5.98,0.56,-6.03,6.03,5.79,7.18,6.63,6.59,6.58
39.74,0.63,-5.95,0.60,-5.99,5.99,5.73,7.06,6.62,6.59,6.58
40.14,0.65,-5.93,0.64,-5.95,5.95,5.68,6.95,6.60,6.59,6.58
40.54,0.65,-5.93,0.68,-5.90,5.90,5.63,6.84,6.55,6.58,6.58
40.94,0.65,-5.92,0.72,-5.86,5.86,5.58,6.74,6.51,6.58,6.57
41.35,0.75,-5.82,0.78,-5.80,5.80,5.53,6.63,6.55,6.58,6.57
41.76,0.86,-5.71,0.83,-5.74,5.74,5.49,6.54,6.60,6.57,6.57
42.18,0.93,-5.64,0.88,-5.69,5.69,5.44,6.44,6.62,6.57,6.57
42.60,0.95,-5.62,0.93,-5.64,5.64,5.39,6.36,6.59,6.57,6.57
43.03,0.97,-5.60,0.98,-5.58,5.58,5.35,6.27,6.55,6.57,6.57
43.46,0.97,-5.60,1.03,-5.54,5.54,5.31,6.19,6.51,6.56,6.57
43.90,0.97,-5.58,1.07,-5.49,5.49,5.27,6.12,6.46,6.56,6.55
44.33,1.08,-5.47,1.11,-5.44,5.44,5.23,6.05,6.52,6.56,6.55
44.78,1.23,-5.31,1.15,-5.40,5.40,5.19,5.98,6.63,6.56,6.54
45.23,1.30,-5.24,1.19,-5.36,5.36,5.15,5.92,6.66,6.55,6.54
45.68,1.30,-5.24,1.22,-5.33,5.33,5.11,5.86,6.63,6.55,6.54
46.13,1.30,-5.23,1.25,-5.29,5.29,5.08,5.81,6.59,6.54,6.53
46.60,1.30,-5.24,1.28,-5.25,5.25,5.05,5.76,6.55,6.54,6.54
47.06,1.30,-5.23,1.32,-5.21,5.21,5.01,5.72,6.51,6.53,6.53
47.53,1.30,-5.22,1.36,-5.16,5.16,4.98,5.68,6.46,6.52,6.52
48.01,1.30,-5.23,1.39,-5.12,5.12,4.96,5.64,6.42,6.51,6.53
48.49,1.33,-5.18,1.43,-5.08,5.08,4.93,5.61,6.41,6.51,6.51
48.97,1.36,-5.13,1.46,-5.04,5.04,4.90,5.58,6.40,6.50,6.49
49.46,1.47,-5.01,1.48,-5.01,5.01,4.88,5.56,6.48,6.48,6.48
49.96,1.58,-4.88,1.50,-4.97,4.97,4.86,5.53,6.55,6.47,6.46
50.46,1.60,-4.86,1.52,-4.93,4.93,4.84,5.51,6.53,6.46,6.46
50.96,1.62,-4.82,1.55,-4.89,4.89,4.82,5.50,6.51,6.44,6.44
51.47,1.62,-4.79,1.58,-4.84,4.84,4.80,5.48,6.46,6.43,6.41
51.99,1.62,-4.78,1.61,-4.80,4.80,4.78,5.47,6.42,6.41,6.40
52.51,1.62,-4.77,1.64,-4.75,4.75,4.77,5.46,6.37,6.39,6.39
53.03,1.62,-4.75,1.65,-4.72,4.72,4.76,5.45,6.34,6.37,6.37
53.56,1.62,-4.74,1.66,-4.69,4.69,4.75,5.44,6.31,6.35,6.36
54.10,1.62,-4.71,1.65,-4.68,4.68,4.74,5.44,6.30,6.34,6.33
54.64,1.62,-4.70,1.63,-4.68,4.68,4.73,5.43,6.30,6.32,6.32
55.18,1.62,-4.67,1.60,-4.69,4.69,4.73,5.42,6.31,6.30,6.29
55.74,1.62,-4.64,1.58,-4.70,4.70,4.73,5.41,6.32,6.28,6.26
56.29,1.62,-4.64,1.55,-4.70,4.70,4.72,5.40,6.32,6.26,6.26
56.86,1.62,-4.61,1.53,-4.70,4.70,4.72,5.39,6.32,6.24,6.23
57.42,1.54,-4.66,1.51,-4.70,4.70,4.73,5.38,6.24,6.21,6.20
58.00,1.44,-4.74,1.48,-4.71,4.71,4.73,5.37,6.15,6.19,6.18
58.58,1.36,-4.80,1.45,-4.72,4.72,4.74,5.35,6.08,6.16,6.16
59.16,1.30,-4.84,1.41,-4.73,4.73,4.74,5.33,6.03,6.14,6.14
59.76,1.30,-4.82,1.37,-4.74,4.74,4.75,5.31,6.04,6.11,6.12
60.35,1.30,-4.79,1.33,-4.75,4.75,4.76,5.28,6.05,6.08,6.09
60.96,1.30,-4.76,1.28,-4.77,4.77,4.77,5.25,6.07,6.05,6.06
61.57,1.30,-4.71,1.22,-4.80,4.80,4.79,5.22,6.10,6.02,6.01
62.18,1.27,-4.70,1.17,-4.82,4.82,4.80,5.18,6.09,5.98,5.97
62.80,1.18,-4.77,1.11,-4.83,4.83,4.81,5.13,6.01,5.95,5.95
63.43,1.07,-4.83,1.06,-4.85,4.85,4.83,5.09,5.92,5.91,5.90
64.07,0.97,-4.89,1.01,-4.86,4.86,4.84,5.04,5.83,5.87,5.86
64.71,0.96,-4.87,0.96,-4.88,4.88,4.86,4.98,5.84,5.84,5.83
65.35,0.90,-4.89,0.89,-4.90,4.90,4.88,4.92,5.80,5.80,5.79
66.01,0.79,-4.96,0.82,-4.93,4.93,4.89,4.86,5.72,5.76,5.75
66.67,0.70,-5.02,0.75,-4.97,4.97,4.90,4.79,5.67,5.72,5.72
67.33,0.65,-5.03,0.68,-5.00,5.00,4.92,4.72,5.65,5.68,5.68
68.01,0.65,-4.99,0.61,-5.03,5.03,4.93,4.64,5.68,5.64,5.64
68.69,0.62,-4.98,0.55,-5.05,5.05,4.94,4.57,5.67,5.60,5.60
69.37,0.55,-5.01,0.50,-5.06,5.06,4.95,4.49,5.61,5.56,5.56
70.07,0.44,-5.08,0.46,-5.07,5.07,4.95,4.41,5.51,5.52,5.52
70.77,0.35,-5.13,0.41,-5.07,5.07,4.95,4.32,5.42,5.49,5.48
71.48,0.32,-5.13,0.37,-5.07,5.07,4.95,4.24,5.39,5.45,5.45
72.19,0.32,-5.08,0.34,-5.07,5.07,4.95,4.15,5.39,5.41,5.40
72.91,0.32,-5.05,0.32,-5.06,5.06,4.94,4.07,5.38,5.37,5.37
73.64,0.32,-5.01,0.31,-5.03,5.03,4.93,3.98,5.35,5.34,5.33
74.38,0.32,-4.98,0.31,-4.99,4.99,4.91,3.89,5.31,5.30,5.30
75.12,0.32,-4.94,0.31,-4.96,4.96,4.89,3.80,5.28,5.27,5.26
75.87,0.32,-4.91,0.31,-4.92,4.92,4.86,3.72,5.24,5.24,5.23
76.63,0.32,-4.88,0.33,-4.87,4.87,4.83,3.63,5.19,5.21,5.20
77.40,0.32,-4.85,0.37,-4.81,4.81,4.79,3.54,5.13,5.17,5.17
78.17,0.34,-4.80,0.41,-4.73,4.73,4.75,3.46,5.07,5.15,5.14
78.95,0.43,-4.68,0.46,-4.66,4.66,4.70,3.37,5.09,5.12,5.11
79.74,0.53,-4.56,0.51,-4.58,4.58,4.65,3.29,5.11,5.09,5.09
80.54,0.61,-4.46,0.56,-4.50,4.50,4.59,3.21,5.11,5.07,5.07
81.35,0.65,-4.39,0.61,-4.43,4.43,4.52,3.13,5.08,5.04,5.04
82.16,0.65,-4.36,0.66,-4.36,4.36,4.45,3.05,5.01,5.02,5.01
82.98,0.66,-4.34,0.71,-4.29,4.29,4.38,2.98,4.95,5.00,5.00
83.81,0.77,-4.20,0.76,-4.22,4.22,4.30,2.90,4.99,4.97,4.97
84.65,0.88,-4.06,0.81,-4.14,4.14,4.22,2.83,5.02,4.95,4.94
85.50,0.95,-3.98,0.86,-4.07,4.07,4.14,2.76,5.02,4.93,4.93
86.35,0.97,-3.94,0.91,-4.00,4.00,4.05,2.69,4.97,4.91,4.91
87.22,0.97,-3.92,0.95,-3.94,3.94,3.96,2.62,4.91,4.89,4.89
88.09,0.97,-3.90,1.00,-3.88,3.88,3.87,2.56,4.85,4.88,4.87
88.97,0.97,-3.88,1.04,-3.81,3.81,3.77,2.49,4.78,4.86,4.85
89.86,0.97,-3.87,1.09,-3.75,3.75,3.67,2.43,4.72,4.84,4.84
90.76,1.10,-3.71,1.14,-3.68,3.68,3.58,2.37,4.78,4.82,4.81
91.66,1.25,-3.54,1.20,-3.60,3.60,3.48,2.31,4.85,4.80,4.79
92.58,1.30,-3.47,1.25,-3.53,3.53,3.38,2.26,4.83,4.78,4.77
93.51,1.30,-3.46,1.31,-3.45,3.45,3.28,2.20,4.75,4.76,4.76
94.44,1.34,-3.40,1.37,-3.37,3.37,3.17,2.15,4.71,4.74,4.74
95.39,1.43,-3.29,1.43,-3.28,3.28,3.07,2.10,4.71,4.71,4.72
96.34,1.54,-3.15,1.50,-3.19,3.19,2.97,2.05,4.73,4.69,4.69
97.30,1.61,-3.05,1.58,-3.09,3.09,2.87,2.00,4.70,4.67,4.66
98.28,1.64,-2.99,1.66,-2.98,2.98,2.77,1.95,4.62,4.64,4.63
99.26,1.71,-2.90,1.74,-2.87,2.87,2.67,1.91,4.58,4.61,4.61
100.25,1.82,-2.76,1.81,-2.77,2.77,2.57,1.86,4.59,4.58,4.58
101.25,1.92,-2.63,1.89,-2.67,2.67,2.48,1.82,4.59,4.55,4.55
102.27,1.97,-2.54,1.97,-2.55,2.55,2.38,1.78,4.52,4.52,4.51
103.29,2.03,-2.45,2.07,-2.42,2.42,2.28,1.74,4.45,4.48,4.48
104.32,2.11,-2.34,2.17,-2.28,2.28,2.19,1.70,4.39,4.45,4.45
105.37,2.22,-2.19,2.27,-2.14,2.14,2.10,1.66,4.36,4.41,4.41
106.42,2.34,-2.02,2.36,-2.01,2.01,2.00,1.62,4.35,4.37,4.36
107.48,2.45,-1.88,2.45,-1.87,1.87,1.91,1.58,4.32,4.32,4.33
108.56,2.55,-1.72,2.53,-1.74,1.74,1.82,1.55,4.29,4.27,4.27
109.64,2.59,-1.63,2.61,-1.61,1.61,1.74,1.51,4.20,4.22,4.22
110.74,2.67,-1.50,2.67,-1.50,1.50,1.65,1.47,4.17,4.17,4.17
111.85,2.88,-1.24,2.74,-1.38,1.38,1.56,1.44,4.26,4.11,4.12
112.97,2.92,-1.13,2.80,-1.26,1.26,1.48,1.40,4.18,4.06,4.05
114.10,2.92,-1.08,2.86,-1.14,1.14,1.39,1.36,4.06,4.00,4.00
115.24,2.92,-1.02,2.92,-1.02,1.02,1.31,1.32,3.94,3.94,3.94
116.39,2.92,-0.95,2.96,-0.92,0.92,1.23,1.29,3.84,3.88,3.87
117.55,2.92,-0.89,3.00,-0.83,0.83,1.15,1.25,3.75,3.82,3.81
118.73,2.92,-0.83,3.02,-0.75,0.75,1.07,1.21,3.67,3.77,3.75
119.92,2.92,-0.78,3.03,-0.67,0.67,0.99,1.17,3.59,3.71,3.70
121.12,2.98,-0.66,3.04,-0.61,0.61,0.92,1.13,3.59,3.65,3.64
122.33,3.10,-0.49,3.05,-0.55,0.55,0.84,1.09,3.65,3.60,3.59
123.55,3.20,-0.34,3.04,-0.50,0.50,0.76,1.05,3.70,3.54,3.54
124.79,3.16,-0.33,3.03,-0.46,0.46,0.69,1.00,3.62,3.49,3.49
126.03,3.08,-0.36,3.02,-0.42,0.42,0.61,0.96,3.50,3.44,3.44
127.29,3.05,-0.34,3.02,-0.37,0.37,0.54,0.91,3.42,3.39,3.39
128.57,2.99,-0.34,3.01,-0.33,0.33,0.47,0.87,3.32,3.34,3.33
129.85,2.92,-0.37,3.00,-0.29,0.29,0.40,0.82,3.21,3.30,3.29
131.15,2.92,-0.32,2.98,-0.27,0.27,0.33,0.77,3.19,3.25,3.24
132.46,2.92,-0.28,2.96,-0.25,0.25,0.25,0.72,3.17,3.21,3.20
133.79,2.92,-0.24,2.93,-0.23,0.23,0.18,0.67,3.15,3.16,3.16
135.12,2.92,-0.20,2.91,-0.21,0.21,0.11,0.61,3.13,3.12,3.12
136.48,2.92,-0.16,2.90,-0.19,0.19,0.04,0.56,3.11,3.08,3.08
137.84,2.92,-0.12,2.90,-0.15,0.15,-0.02,0.51,3.07,3.04,3.04
139.22,2.92,-0.07,2.91,-0.09,0.09,-0.09,0.45,3.01,3.00,2.99
140.61,2.92,-0.03,2.93,-0.03,0.03,-0.16,0.39,2.95,2.97,2.95
142.02,2.92,-0.01,2.95,0.02,-0.02,-0.23,0.34,2.90,2.93,2.93
143.44,2.92,0.03,2.97,0.08,-0.08,-0.30,0.28,2.84,2.89,2.89
144.87,2.92,0.07,3.00,0.15,-0.15,-0.36,0.22,2.77,2.85,2.85
146.32,3.01,0.20,3.04,0.22,-0.22,-0.43,0.16,2.79,2.82,2.81
147.78,3.12,0.34,3.08,0.30,-0.30,-0.50,0.09,2.82,2.78,2.78
149.26,3.20,0.45,3.12,0.38,-0.38,-0.57,0.03,2.82,2.74,2.75
150.75,3.24,0.55,3.16,0.47,-0.47,-0.63,-0.03,2.77,2.70,2.69
152.26,3.24,0.59,3.21,0.55,-0.55,-0.70,-0.10,2.69,2.66,2.65
153.78,3.24,0.62,3.26,0.64,-0.64,-0.77,-0.16,2.60,2.61,2.62
155.32,3.25,0.69,3.31,0.74,-0.74,-0.83,-0.23,2.51,2.57,2.56
156.88,3.31,0.78,3.37,0.84,-0.84,-0.90,-0.30,2.47,2.53,2.53
158.44,3.42,0.94,3.43,0.95,-0.95,-0.96,-0.36,2.47,2.48,2.48
160.03,3.53,1.10,3.49,1.05,-1.05,-1.03,-0.43,2.48,2.44,2.43
161.63,3.56,1.18,3.55,1.15,-1.15,-1.10,-0.50,2.41,2.39,2.38
163.24,3.57,1.23,3.60,1.25,-1.25,-1.16,-0.57,2.32,2.35,2.34
164.88,3.57,1.27,3.64,1.35,-1.35,-1.23,-0.64,2.22,2.30,2.30
166.53,3.66,1.41,3.69,1.44,-1.44,-1.29,-0.72,2.22,2.25,2.25
168.19,3.77,1.57,3.74,1.54,-1.54,-1.36,-0.79,2.23,2.20,2.20
169.87,3.88,1.73,3.79,1.63,-1.63,-1.43,-0.86,2.25,2.15,2.15
171.57,3.89,1.78,3.82,1.72,-1.72,-1.49,-0.94,2.17,2.10,2.11
173.29,3.89,1.84,3.85,1.80,-1.80,-1.56,-1.01,2.09,2.05,2.05
175.02,3.89,1.89,3.87,1.87,-1.87,-1.62,-1.09,2.02,2.00,2.00
176.77,3.89,1.95,3.89,1.94,-1.94,-1.69,-1.17,1.95,1.95,1.94
178.54,3.89,2.00,3.90,2.01,-2.01,-1.75,-1.25,1.88,1.89,1.89
180.32,3.89,2.06,3.91,2.07,-2.07,-1.82,-1.33,1.82,1.84,1.83
182.13,3.89,2.11,3.91,2.13,-2.13,-1.88,-1.41,1.76,1.78,1.78
183.95,3.89,2.17,3.91,2.19,-2.19,-1.94,-1.49,1.70,1.72,1.72
185.79,3.89,2.22,3.91,2.24,-2.24,-2.01,-1.57,1.65,1.67,1.67
187.65,3.89,2.29,3.90,2.28,-2.28,-2.07,-1.66,1.61,1.61,1.60
189.52,3.89,2.34,3.89,2.33,-2.33,-2.13,-1.74,1.56,1.56,1.55
191.42,3.89,2.39,3.89,2.38,-2.38,-2.19,-1.83,1.51,1.51,1.50
193.33,3.89,2.44,3.89,2.44,-2.44,-2.25,-1.91,1.45,1.45,1.45
195.27,3.89,2.49,3.89,2.49,-2.49,-2.31,-2.00,1.40,1.40,1.40
197.22,3.89,2.55,3.89,2.54,-2.54,-2.37,-2.09,1.35,1.35,1.34
199.19,3.89,2.60,3.89,2.59,-2.59,-2.43,-2.17,1.30,1.30,1.29
201.18,3.89,2.65,3.89,2.64,-2.64,-2.49,-2.26,1.25,1.25,1.24
203.19,3.89,2.68,3.89,2.69,-2.69,-2.55,-2.35,1.20,1.20,1.21
205.23,3.89,2.74,3.89,2.73,-2.73,-2.60,-2.44,1.16,1.16,1.15
207.28,3.89,2.76,3.89,2.78,-2.78,-2.65,-2.52,1.11,1.11,1.13
209.35,3.89,2.82,3.89,2.82,-2.82,-2.71,-2.61,1.07,1.07,1.07
211.44,3.89,2.87,3.89,2.86,-2.86,-2.76,-2.70,1.03,1.03,1.02
213.56,3.89,2.91,3.89,2.90,-2.90,-2.81,-2.78,0.99,0.99,0.98
215.69,3.89,2.93,3.89,2.93,-2.93,-2.86,-2.86,0.96,0.96,0.96
217.85,3.89,2.97,3.89,2.97,-2.97,-2.90,-2.94,0.92,0.92,0.92
220.03,3.89,3.01,3.89,3.00,-3.00,-2.94,-3.02,0.89,0.89,0.88
222.23,3.89,3.04,3.89,3.03,-3.03,-2.99,-3.10,0.86,0.86,0.85
224.45,3.89,3.06,3.89,3.06,-3.06,-3.03,-3.17,0.83,0.83,0.83
226.70,3.89,3.09,3.89,3.09,-3.09,-3.06,-3.24,0.80,0.80,0.80
228.96,3.89,3.12,3.89,3.11,-3.11,-3.10,-3.30,0.78,0.78,0.77
231.25,3.89,3.13,3.89,3.13,-3.13,-3.13,-3.36,0.76,0.76,0.76
233.57,3.89,3.15,3.89,3.14,-3.14,-3.16,-3.42,0.75,0.75,0.74
235.90,3.89,3.16,3.89,3.16,-3.16,-3.19,-3.47,0.73,0.73,0.73
238.26,3.89,3.17,3.89,3.17,-3.17,-3.22,-3.52,0.72,0.72,0.72
240.64,3.89,3.18,3.89,3.18,-3.18,-3.24,-3.56,0.71,0.71,0.71
243.05,3.89,3.18,3.89,3.18,-3.18,-3.26,-3.59,0.71,0.71,0.71
245.48,3.89,3.19,3.89,3.18,-3.18,-3.28,-3.62,0.71,0.71,0.70
247.93,3.89,3.19,3.89,3.18,-3.18,-3.29,-3.64,0.71,0.71,0.70
250.41,3.89,3.19,3.89,3.18,-3.18,-3.31,-3.66,0.71,0.71,0.70
252.92,3.89,3.18,3.89,3.18,-3.18,-3.31,-3.67,0.71,0.71,0.71
255.45,3.89,3.17,3.89,3.17,-3.17,-3.32,-3.67,0.72,0.72,0.72
258.00,3.89,3.16,3.89,3.16,-3.16,-3.33,-3.67,0.73,0.73,0.73
260.58,3.89,3.16,3.89,3.15,-3.15,-3.33,-3.67,0.74,0.74,0.73
263.19,3.89,3.15,3.89,3.14,-3.14,-3.33,-3.65,0.75,0.75,0.74
265.82,3.89,3.14,3.89,3.13,-3.13,-3.32,-3.63,0.76,0.76,0.75
268.48,3.89,3.12,3.89,3.12,-3.12,-3.32,-3.61,0.77,0.77,0.77
271.16,3.89,3.10,3.89,3.10,-3.10,-3.31,-3.58,0.79,0.79,0.79
273.87,3.89,3.10,3.89,3.09,-3.09,-3.30,-3.55,0.80,0.80,0.79
276.61,3.89,3.07,3.89,3.08,-3.08,-3.28,-3.51,0.81,0.81,0.82
279.38,3.89,3.07,3.89,3.06,-3.06,-3.27,-3.47,0.83,0.83,0.82
282.17,3.89,3.05,3.89,3.05,-3.05,-3.25,-3.43,0.84,0.84,0.84
284.99,3.89,3.04,3.89,3.04,-3.04,-3.23,-3.39,0.85,0.85,0.85
287.84,3.89,3.03,3.89,3.02,-3.02,-3.21,-3.34,0.87,0.87,0.86
290.72,3.89,3.02,3.89,3.01,-3.01,-3.19,-3.29,0.88,0.88,0.87
293.63,3.89,3.00,3.89,3.00,-3.00,-3.16,-3.24,0.89,0.89,0.89
296.57,3.89,2.98,3.89,2.98,-2.98,-3.14,-3.19,0.91,0.91,0.91
299.53,3.89,2.98,3.89,2.97,-2.97,-3.11,-3.14,0.92,0.92,0.91
302.53,3.89,2.97,3.89,2.96,-2.96,-3.08,-3.08,0.93,0.93,0.92
305.55,3.89,2.95,3.89,2.95,-2.95,-3.05,-3.03,0.94,0.94,0.94
308.61,3.89,2.94,3.90,2.95,-2.95,-3.02,-2.98,0.94,0.95,0.95
311.69,3.89,2.93,3.91,2.95,-2.95,-2.99,-2.93,0.94,0.96,0.96
314.81,3.89,2.90,3.91,2.94,-2.94,-2.95,-2.88,0.95,0.97,0.99
317.96,3.89,2.91,3.91,2.93,-2.93,-2.92,-2.83,0.96,0.98,0.98
321.14,3.89,2.90,3.90,2.91,-2.91,-2.89,-2.78,0.98,0.99,0.99
324.35,3.89,2.90,3.88,2.89,-2.89,-2.85,-2.73,1.00,1.00,0.99
327.59,3.89,2.89,3.86,2.86,-2.86,-2.82,-2.68,1.03,1.00,1.00
330.87,3.89,2.89,3.84,2.83,-2.83,-2.78,-2.64,1.06,1.01,1.00
334.18,3.89,2.89,3.81,2.80,-2.80,-2.75,-2.59,1.09,1.01,1.00
337.52,3.89,2.88,3.79,2.78,-2.78,-2.72,-2.55,1.11,1.01,1.01
340.90,3.81,2.80,3.76,2.75,-2.75,-2.68,-2.51,1.06,1.01,1.01
344.30,3.70,2.69,3.74,2.73,-2.73,-2.65,-2.47,0.97,1.01,1.01
347.75,3.60,2.59,3.72,2.70,-2.70,-2.61,-2.44,0.90,1.01,1.01
351.23,3.57,2.56,3.68,2.67,-2.67,-2.58,-2.40,0.90,1.01,1.01
354.74,3.57,2.56,3.64,2.64,-2.64,-2.55,-2.37,0.93,1.01,1.01
358.28,3.57,2.58,3.60,2.60,-2.60,-2.51,-2.34,0.97,1.00,0.99
361.87,3.57,2.58,3.56,2.56,-2.56,-2.48,-2.31,1.01,1.00,0.99
365.49,3.57,2.58,3.52,2.53,-2.53,-2.45,-2.29,1.04,0.99,0.99
369.14,3.57,2.59,3.48,2.49,-2.49,-2.42,-2.26,1.08,0.98,0.98
372.83,3.57,2.59,3.44,2.47,-2.47,-2.39,-2.24,1.10,0.98,0.98
376.56,3.50,2.53,3.42,2.45,-2.45,-2.36,-2.22,1.05,0.97,0.97
380.33,3.39,2.43,3.40,2.44,-2.44,-2.33,-2.20,0.95,0.96,0.96
384.13,3.28,2.33,3.38,2.43,-2.43,-2.30,-2.18,0.85,0.96,0.95
387.97,3.24,2.30,3.36,2.41,-2.41,-2.28,-2.17,0.83,0.95,0.94
391.85,3.24,2.31,3.32,2.38,-2.38,-2.25,-2.15,0.86,0.94,0.93
395.77,3.24,2.30,3.28,2.34,-2.34,-2.23,-2.14,0.90,0.94,0.94
399.73,3.24,2.31,3.24,2.31,-2.31,-2.20,-2.13,0.93,0.93,0.93
403.72,3.24,2.32,3.19,2.27,-2.27,-2.18,-2.12,0.97,0.92,0.92
407.76,3.24,2.33,3.15,2.24,-2.24,-2.16,-2.11,1.00,0.92,0.91
411.84,3.24,2.32,3.12,2.20,-2.20,-2.14,-2.10,1.04,0.91,0.92
415.96,3.18,2.28,3.09,2.18,-2.18,-2.11,-2.09,1.00,0.91,0.90
420.12,3.07,2.17,3.07,2.16,-2.16,-2.09,-2.09,0.91,0.90,0.90
424.32,2.97,2.07,3.05,2.15,-2.15,-2.07,-2.08,0.82,0.90,0.90
428.56,2.93,2.04,3.04,2.14,-2.14,-2.06,-2.07,0.79,0.90,0.89
432.85,2.92,2.03,3.01,2.11,-2.11,-2.04,-2.07,0.81,0.90,0.89
437.18,2.92,2.03,2.98,2.08,-2.08,-2.02,-2.06,0.84,0.90,0.89
441.55,2.92,2.02,2.95,2.05,-2.05,-2.00,-2.05,0.87,0.90,0.90
445.96,2.92,2.02,2.91,2.01,-2.01,-1.98,-2.05,0.91,0.90,0.90
450.42,2.92,2.03,2.88,1.97,-1.97,-1.97,-2.04,0.95,0.90,0.89
454.93,2.92,2.02,2.84,1.94,-1.94,-1.95,-2.03,0.98,0.90,0.90
459.48,2.92,2.02,2.81,1.90,-1.90,-1.93,-2.02,1.02,0.91,0.90
464.07,2.91,2.00,2.79,1.88,-1.88,-1.91,-2.01,1.03,0.91,0.91
468.71,2.81,1.89,2.76,1.85,-1.85,-1.90,-2.00,0.96,0.92,0.92
473.40,2.70,1.79,2.74,1.82,-1.82,-1.88,-1.99,0.88,0.92,0.91
478.13,2.61,1.69,2.71,1.79,-1.79,-1.86,-1.97,0.82,0.93,0.92
482.91,2.59,1.67,2.69,1.76,-1.76,-1.84,-1.95,0.83,0.93,0.92
487.74,2.59,1.66,2.67,1.74,-1.74,-1.82,-1.94,0.85,0.93,0.93
492.62,2.59,1.65,2.65,1.71,-1.71,-1.79,-1.91,0.88,0.94,0.94
497.55,2.59,1.65,2.62,1.67,-1.67,-1.77,-1.89,0.92,0.94,0.94
502.52,2.59,1.64,2.59,1.64,-1.64,-1.75,-1.87,0.95,0.95,0.95
507.55,2.59,1.64,2.56,1.61,-1.61,-1.72,-1.84,0.98,0.95,0.95
512.62,2.59,1.64,2.54,1.58,-1.58,-1.69,-1.81,1.01,0.96,0.95
517.75,2.59,1.63,2.51,1.55,-1.55,-1.66,-1.78,1.04,0.96,0.96
522.93,2.59,1.63,2.49,1.53,-1.53,-1.63,-1.74,1.06,0.96,0.96
528.16,2.58,1.62,2.48,1.51,-1.51,-1.60,-1.71,1.07,0.96,0.96
533.44,2.49,1.53,2.46,1.49,-1.49,-1.57,-1.67,1.00,0.96,0.96
538.77,2.38,1.42,2.43,1.47,-1.47,-1.53,-1.63,0.91,0.96,0.96
544.16,2.28,1.32,2.40,1.44,-1.44,-1.49,-1.59,0.84,0.96,0.96
549.60,2.27,1.31,2.37,1.41,-1.41,-1.45,-1.54,0.86,0.96,0.96
