frequency,raw,error,smoothed,error_smoothed,equalization,parametric_eq,fixed_band_eq,equalized_raw,equalized_smoothed,target
20.00,-5.03,-10.95,-5.03,-10.95,10.97,10.46,3.66,5.94,5.94,5.92
20.20,-4.90,-10.86,-4.90,-10.87,10.87,10.40,3.76,5.97,5.97,5.96
20.40,-4.78,-10.78,-4.78,-10.78,10.78,10.35,3.87,6.00,6.00,6.00
20.61,-4.65,-10.69,-4.65,-10.69,10.68,10.30,3.97,6.03,6.03,6.03
20.81,-4.52,-10.59,-4.52,-10.60,10.58,10.24,4.08,6.06,6.06,6.07
21.02,-4.40,-10.51,-4.39,-10.50,10.48,10.18,4.20,6.08,6.09,6.11
21.23,-4.26,-10.39,-4.26,-10.40,10.38,10.12,4.31,6.12,6.12,6.13
21.44,-4.13,-10.28,-4.13,-10.29,10.28,10.06,4.43,6.15,6.15,6.15
21.66,-4.00,-10.18,-4.00,-10.17,10.17,10.00,4.55,6.17,6.18,6.17
21.87,-3.87,-10.05,-3.87,-10.06,10.07,9.94,4.68,6.20,6.20,6.18
22.09,-3.75,-9.95,-3.75,-9.95,9.96,9.87,4.81,6.21,6.21,6.20
22.31,-3.64,-9.85,-3.64,-9.86,9.86,9.80,4.94,6.22,6.22,6.21
22.54,-3.54,-9.77,-3.54,-9.76,9.76,9.74,5.08,6.22,6.22,6.22
22.76,-3.44,-9.67,-3.44,-9.67,9.66,9.67,5.22,6.23,6.23,6.23
22.99,-3.33,-9.56,-3.34,-9.57,9.57,9.60,5.36,6.24,6.24,6.23
23.22,-3.24,-9.48,-3.24,-9.48,9.49,9.53,5.51,6.25,6.25,6.24
23.45,-3.14,-9.39,-3.14,-9.39,9.40,9.46,5.66,6.26,6.26,6.25
23.69,-3.05,-9.32,-3.05,-9.31,9.31,9.39,5.81,6.26,6.26,6.26
23.92,-2.95,-9.22,-2.95,-9.23,9.22,9.32,5.97,6.27,6.27,6.27
24.16,-2.85,-9.14,-2.85,-9.14,9.13,9.25,6.13,6.28,6.28,6.29
24.40,-2.75,-9.06,-2.75,-9.05,9.05,9.17,6.29,6.30,6.30,6.31
24.65,-2.65,-8.95,-2.65,-8.96,8.96,9.10,6.46,6.31,6.32,6.30
24.89,-2.55,-8.86,-2.55,-8.87,8.88,9.03,6.63,6.33,6.33,6.31
25.14,-2.46,-8.78,-2.46,-8.78,8.80,8.95,6.80,6.34,6.34,6.32
25.39,-2.38,-8.71,-2.38,-8.71,8.72,8.88,6.97,6.34,6.34,6.33
25.65,-2.29,-8.64,-2.29,-8.64,8.63,8.80,7.15,6.34,6.34,6.35
25.91,-2.21,-8.57,-2.21,-8.56,8.55,8.73,7.32,6.34,6.35,6.35
26.16,-2.12,-8.48,-2.12,-8.48,8.47,8.65,7.50,6.35,6.36,6.36
26.43,-2.02,-8.40,-2.02,-8.39,8.39,8.58,7.68,6.37,6.37,6.37
26.69,-1.92,-8.30,-1.92,-8.31,8.30,8.50,7.85,6.38,6.38,6.38
26.96,-1.82,-8.22,-1.82,-8.22,8.22,8.43,8.03,6.40,6.40,6.40
27.23,-1.73,-8.14,-1.73,-8.14,8.14,8.35,8.20,6.41,6.41,6.41
27.50,-1.64,-8.05,-1.64,-8.05,8.06,8.28,8.37,6.42,6.43,6.41
27.77,-1.55,-7.96,-1.55,-7.97,7.99,8.20,8.53,6.45,6.44,6.41
28.05,-1.47,-7.90,-1.48,-7.90,7.93,8.13,8.69,6.46,6.45,6.43
28.33,-1.42,-7.85,-1.42,-7.86,7.86,8.05,8.84,6.45,6.44,6.43
28.62,-1.37,-7.81,-1.37,-7.81,7.80,7.98,8.98,6.43,6.43,6.44
28.90,-1.32,-7.77,-1.31,-7.76,7.73,7.90,9.12,6.42,6.42,6.45
29.19,-1.24,-7.69,-1.23,-7.70,7.67,7.83,9.24,6.43,6.43,6.45
29.48,-1.14,-7.62,-1.14,-7.61,7.60,7.76,9.35,6.46,6.46,6.48
29.78,-1.04,-7.51,-1.04,-7.52,7.53,7.68,9.45,6.49,6.49,6.47
30.08,-0.95,-7.44,-0.96,-7.44,7.46,7.61,9.53,6.51,6.50,6.48
30.38,-0.88,-7.36,-0.88,-7.37,7.38,7.54,9.60,6.50,6.50,6.48
30.68,-0.81,-7.31,-0.81,-7.30,7.31,7.47,9.65,6.50,6.50,6.50
30.99,-0.73,-7.23,-0.74,-7.24,7.24,7.40,9.68,6.51,6.50,6.50
31.30,-0.67,-7.17,-0.67,-7.18,7.18,7.32,9.70,6.50,6.51,6.50
31.61,-0.61,-7.12,-0.61,-7.12,7.12,7.25,9.70,6.50,6.51,6.51
31.93,-0.54,-7.06,-0.54,-7.06,7.06,7.18,9.68,6.52,6.51,6.52
32.24,-0.48,-7.00,-0.48,-7.01,7.00,7.11,9.65,6.53,6.53,6.52
32.57,-0.41,-6.95,-0.41,-6.95,6.95,7.05,9.61,6.54,6.54,6.54
32.89,-0.34,-6.88,-0.35,-6.89,6.90,6.98,9.54,6.56,6.55,6.54
33.22,-0.29,-6.84,-0.29,-6.85,6.85,6.91,9.47,6.56,6.56,6.55
33.55,-0.24,-6.80,-0.24,-6.80,6.80,6.84,9.38,6.56,6.56,6.56
33.89,-0.19,-6.76,-0.19,-6.76,6.75,6.78,9.28,6.56,6.56,6.57
34.23,-0.13,-6.70,-0.13,-6.71,6.70,6.71,9.18,6.57,6.57,6.57
34.57,-0.07,-6.65,-0.07,-6.65,6.65,6.65,9.06,6.58,6.58,6.58
34.92,-0.01,-6.59,-0.01,-6.60,6.60,6.58,8.94,6.59,6.58,6.58
35.27,0.04,-6.55,0.04,-6.55,6.54,6.52,8.81,6.58,6.58,6.59
35.62,0.09,-6.50,0.09,-6.50,6.49,6.46,8.67,6.58,6.59,6.59
35.97,0.15,-6.44,0.15,-6.45,6.45,6.40,8.54,6.60,6.60,6.59
36.33,0.21,-6.39,0.21,-6.38,6.41,6.33,8.40,6.62,6.62,6.60
36.70,0.27,-6.32,0.27,-6.33,6.36,6.27,8.26,6.63,6.63,6.59
37.06,0.32,-6.28,0.30,-6.30,6.32,6.22,8.12,6.64,6.62,6.60
37.43,0.32,-6.28,0.32,-6.29,6.27,6.16,7.97,6.59,6.59,6.60
37.81,0.32,-6.28,0.34,-6.27,6.22,6.10,7.84,6.54,6.56,6.60
38.19,0.37,-6.23,0.38,-6.22,6.17,6.04,7.70,6.54,6.55,6.60
38.57,0.46,-6.13,0.46,-6.14,6.13,5.99,7.56,6.59,6.59,6.59
38.95,0.56,-6.03,0.54,-6.05,6.09,5.93,7.43,6.65,6.63,6.59
39.34,0.60,-5.98,0.60,-5.98,6.04,5.88,7.30,6.64,6.64,6.58
39.74,0.63,-5.95,0.63,-5.95,5.99,5.83,7.17,6.62,6.63,6.58
40.14,0.65,-5.93,0.64,-5.95,5.94,5.78,7.05,6.59,6.57,6.58
40.54,0.65,-5.93,0.65,-5.93,5.88,5.73,6.93,6.53,6.53,6.58
40.94,0.65,-5.92,0.68,-5.89,5.84,5.68,6.82,6.49,6.52,6.57
41.35,0.75,-5.82,0.76,-5.82,5.80,5.63,6.70,6.55,6.55,6.57
41.76,0.86,-5.71,0.84,-5.73,5.76,5.58,6.60,6.62,6.60,6.57
42.18,0.93,-5.64,0.92,-5.65,5.72,5.54,6.50,6.65,6.64,6.57
42.60,0.95,-5.62,0.96,-5.62,5.67,5.49,6.40,6.62,6.62,6.57
43.03,0.97,-5.60,0.96,-5.61,5.60,5.45,6.31,6.57,6.56,6.57
43.46,0.97,-5.60,0.96,-5.61,5.54,5.41,6.22,6.51,6.50,6.57
43.90,0.97,-5.58,1.01,-5.55,5.48,5.36,6.13,6.45,6.49,6.55
44.33,1.08,-5.47,1.10,-5.45,5.42,5.33,6.06,6.51,6.52,6.55
44.78,1.23,-5.31,1.20,-5.35,5.38,5.29,5.98,6.61,6.57,6.54
45.23,1.30,-5.24,1.28,-5.26,5.33,5.25,5.91,6.63,6.61,6.54
45.68,1.30,-5.24,1.31,-5.23,5.29,5.21,5.85,6.59,6.60,6.54
46.13,1.30,-5.23,1.31,-5.23,5.26,5.18,5.78,6.56,6.57,6.53
46.60,1.30,-5.24,1.30,-5.24,5.24,5.15,5.73,6.54,6.54,6.54
47.06,1.30,-5.23,1.30,-5.24,5.22,5.12,5.67,6.52,6.52,6.53
47.53,1.30,-5.22,1.30,-5.23,5.20,5.09,5.63,6.50,6.50,6.52
48.01,1.30,-5.23,1.30,-5.22,5.17,5.06,5.58,6.47,6.47,6.53
48.49,1.33,-5.18,1.33,-5.19,5.13,5.03,5.54,6.46,6.46,6.51
48.97,1.36,-5.13,1.39,-5.11,5.08,5.01,5.50,6.44,6.47,6.49
49.46,1.47,-5.01,1.47,-5.01,5.02,4.98,5.47,6.49,6.49,6.48
49.96,1.58,-4.88,1.55,-4.92,4.96,4.96,5.44,6.54,6.51,6.46
50.46,1.60,-4.86,1.61,-4.85,4.90,4.94,5.41,6.50,6.51,6.46
50.96,1.62,-4.82,1.62,-4.82,4.85,4.93,5.38,6.47,6.47,6.44
51.47,1.62,-4.79,1.62,-4.80,4.81,4.91,5.36,6.43,6.43,6.41
51.99,1.62,-4.78,1.62,-4.78,4.78,4.89,5.34,6.40,6.40,6.40
52.51,1.62,-4.77,1.62,-4.77,4.76,4.88,5.32,6.38,6.38,6.39
53.03,1.62,-4.75,1.62,-4.76,4.74,4.87,5.30,6.36,6.36,6.37
53.56,1.62,-4.74,1.62,-4.74,4.72,4.86,5.29,6.34,6.34,6.36
54.10,1.62,-4.71,1.62,-4.72,4.70,4.85,5.27,6.32,6.32,6.33
54.64,1.62,-4.70,1.62,-4.70,4.68,4.85,5.26,6.30,6.30,6.32
55.18,1.62,-4.67,1.62,-4.67,4.67,4.84,5.24,6.29,6.29,6.29
55.74,1.62,-4.64,1.63,-4.65,4.66,4.84,5.23,6.28,6.29,6.26
56.29,1.62,-4.64,1.63,-4.63,4.67,4.84,5.21,6.29,6.30,6.26
56.86,1.62,-4.61,1.60,-4.64,4.69,4.84,5.20,6.31,6.28,6.23
57.42,1.54,-4.66,1.54,-4.67,4.71,4.84,5.18,6.25,6.25,6.20
58.00,1.44,-4.74,1.45,-4.74,4.73,4.85,5.16,6.17,6.18,6.18
58.58,1.36,-4.80,1.36,-4.80,4.75,4.85,5.14,6.11,6.11,6.16
59.16,1.30,-4.84,1.31,-4.83,4.76,4.86,5.11,6.06,6.08,6.14
59.76,1.30,-4.82,1.30,-4.83,4.77,4.87,5.08,6.07,6.07,6.12
60.35,1.30,-4.79,1.30,-4.80,4.78,4.88,5.05,6.08,6.08,6.09
60.96,1.30,-4.76,1.31,-4.75,4.78,4.89,5.02,6.08,6.09,6.06
61.57,1.30,-4.71,1.30,-4.72,4.78,4.90,4.98,6.08,6.08,6.01
62.18,1.27,-4.70,1.25,-4.73,4.78,4.92,4.94,6.05,6.03,5.97
62.80,1.18,-4.77,1.17,-4.77,4.79,4.93,4.90,5.97,5.96,5.95
63.43,1.07,-4.83,1.08,-4.83,4.81,4.95,4.85,5.88,5.89,5.90
64.07,0.97,-4.89,1.00,-4.87,4.85,4.96,4.80,5.82,5.85,5.86
64.71,0.96,-4.87,0.94,-4.89,4.88,4.97,4.74,5.84,5.82,5.83
65.35,0.90,-4.89,0.87,-4.92,4.92,4.99,4.69,5.82,5.79,5.79
66.01,0.79,-4.96,0.80,-4.96,4.95,5.00,4.62,5.74,5.74,5.75
66.67,0.70,-5.02,0.72,-5.00,4.97,5.01,4.56,5.67,5.69,5.72
67.33,0.65,-5.03,0.67,-5.02,5.00,5.02,4.49,5.65,5.67,5.68
68.01,0.65,-4.99,0.64,-5.00,5.02,5.03,4.42,5.67,5.66,5.64
68.69,0.62,-4.98,0.61,-5.00,5.05,5.04,4.34,5.67,5.65,5.60
69.37,0.55,-5.01,0.54,-5.03,5.07,5.04,4.27,5.61,5.60,5.56
70.07,0.44,-5.08,0.45,-5.08,5.08,5.05,4.19,5.52,5.52,5.52
70.77,0.35,-5.13,0.37,-5.12,5.08,5.05,4.11,5.43,5.45,5.48
71.48,0.32,-5.13,0.32,-5.12,5.08,5.04,4.03,5.40,5.40,5.45
72.19,0.32,-5.08,0.31,-5.10,5.07,5.03,3.95,5.39,5.38,5.40
72.91,0.32,-5.05,0.32,-5.06,5.06,5.02,3.87,5.38,5.38,5.37
73.64,0.32,-5.01,0.32,-5.01,5.04,5.00,3.79,5.36,5.36,5.33
74.38,0.32,-4.98,0.32,-4.98,5.01,4.98,3.70,5.33,5.33,5.30
75.12,0.32,-4.94,0.32,-4.95,4.97,4.95,3.62,5.29,5.29,5.26
75.87,0.32,-4.91,0.32,-4.92,4.92,4.92,3.54,5.24,5.24,5.23
76.63,0.32,-4.88,0.31,-4.89,4.87,4.89,3.46,5.19,5.18,5.20
77.40,0.32,-4.85,0.32,-4.85,4.81,4.84,3.38,5.13,5.13,5.17
78.17,0.34,-4.80,0.36,-4.78,4.74,4.80,3.30,5.08,5.11,5.14
78.95,0.43,-4.68,0.43,-4.68,4.68,4.74,3.22,5.11,5.11,5.11
79.74,0.53,-4.56,0.52,-4.57,4.60,4.69,3.14,5.13,5.13,5.09
80.54,0.61,-4.46,0.60,-4.47,4.52,4.62,3.07,5.13,5.12,5.07
81.35,0.65,-4.39,0.63,-4.41,4.43,4.56,3.00,5.08,5.06,5.04
82.16,0.65,-4.36,0.65,-4.37,4.34,4.48,2.92,4.99,4.99,5.01
82.98,0.66,-4.34,0.70,-4.30,4.25,4.41,2.85,4.91,4.94,5.00
83.81,0.77,-4.20,0.77,-4.20,4.17,4.33,2.78,4.94,4.94,4.97
84.65,0.88,-4.06,0.86,-4.09,4.11,4.25,2.72,4.99,4.98,4.94
85.50,0.95,-3.98,0.94,-3.99,4.06,4.16,2.65,5.01,5.00,4.93
86.35,0.97,-3.94,0.97,-3.94,4.00,4.07,2.59,4.97,4.97,4.91
87.22,0.97,-3.92,0.98,-3.92,3.94,3.98,2.52,4.91,4.92,4.89
88.09,0.97,-3.90,0.96,-3.92,3.88,3.88,2.46,4.85,4.84,4.87
88.97,0.97,-3.88,0.96,-3.89,3.82,3.79,2.41,4.79,4.78,4.85
89.86,0.97,-3.87,1.02,-3.82,3.76,3.69,2.35,4.73,4.78,4.84
90.76,1.10,-3.71,1.11,-3.71,3.70,3.59,2.29,4.80,4.81,4.81
91.66,1.25,-3.54,1.21,-3.59,3.63,3.49,2.24,4.88,4.84,4.79
92.58,1.30,-3.47,1.28,-3.49,3.55,3.39,2.19,4.85,4.83,4.77
93.51,1.30,-3.46,1.32,-3.44,3.45,3.29,2.14,4.75,4.77,4.76
94.44,1.34,-3.40,1.36,-3.38,3.36,3.19,2.09,4.70,4.72,4.74
95.39,1.43,-3.29,1.44,-3.29,3.26,3.09,2.05,4.69,4.70,4.72
96.34,1.54,-3.15,1.52,-3.17,3.17,2.99,2.00,4.71,4.69,4.69
97.30,1.61,-3.05,1.59,-3.07,3.08,2.89,1.96,4.69,4.67,4.66
98.28,1.64,-2.99,1.66,-2.98,2.98,2.79,1.92,4.62,4.64,4.63
99.26,1.71,-2.90,1.73,-2.88,2.88,2.69,1.87,4.59,4.61,4.61
100.25,1.82,-2.76,1.81,-2.77,2.78,2.59,1.83,4.60,4.59,4.58
101.25,1.92,-2.63,1.90,-2.65,2.66,2.49,1.80,4.58,4.56,4.55
102.27,1.97,-2.54,1.97,-2.55,2.55,2.40,1.76,4.52,4.52,4.51
103.29,2.03,-2.45,2.04,-2.45,2.43,2.30,1.72,4.46,4.47,4.48
104.32,2.11,-2.34,2.12,-2.33,2.31,2.21,1.69,4.42,4.43,4.45
105.37,2.22,-2.19,2.22,-2.19,2.18,2.11,1.65,4.40,4.40,4.41
106.42,2.34,-2.02,2.34,-2.03,2.04,2.02,1.62,4.38,4.38,4.36
107.48,2.45,-1.88,2.45,-1.88,1.89,1.93,1.58,4.34,4.33,4.33
108.56,2.55,-1.72,2.52,-1.76,1.74,1.84,1.55,4.29,4.26,4.27
109.64,2.59,-1.63,2.62,-1.61,1.59,1.76,1.51,4.18,4.20,4.22
110.74,2.67,-1.50,2.72,-1.45,1.45,1.67,1.48,4.12,4.17,4.17
111.85,2.88,-1.24,2.82,-1.29,1.32,1.58,1.45,4.20,4.14,4.12
112.97,2.92,-1.13,2.90,-1.16,1.21,1.50,1.41,4.13,4.12,4.05
114.10,2.92,-1.08,2.94,-1.06,1.12,1.42,1.38,4.04,4.06,4.00
115.24,2.92,-1.02,2.92,-1.02,1.03,1.33,1.34,3.95,3.96,3.94
116.39,2.92,-0.95,2.92,-0.96,0.95,1.25,1.31,3.87,3.87,3.87
117.55,2.92,-0.89,2.91,-0.90,0.86,1.17,1.27,3.78,3.78,3.81
118.73,2.92,-0.83,2.91,-0.84,0.78,1.09,1.23,3.70,3.69,3.75
119.92,2.92,-0.78,2.94,-0.76,0.69,1.01,1.20,3.61,3.63,3.70
121.12,2.98,-0.66,3.01,-0.64,0.61,0.94,1.16,3.59,3.62,3.64
122.33,3.10,-0.49,3.10,-0.50,0.54,0.86,1.12,3.64,3.63,3.59
123.55,3.20,-0.34,3.15,-0.39,0.47,0.79,1.08,3.67,3.62,3.54
124.79,3.16,-0.33,3.16,-0.34,0.41,0.71,1.03,3.57,3.57,3.49
126.03,3.08,-0.36,3.11,-0.33,0.37,0.64,0.99,3.45,3.48,3.44
127.29,3.05,-0.34,3.04,-0.35,0.34,0.56,0.95,3.39,3.37,3.39
128.57,2.99,-0.34,2.98,-0.36,0.32,0.49,0.90,3.31,3.30,3.33
129.85,2.92,-0.37,2.94,-0.35,0.31,0.42,0.85,3.23,3.25,3.29
131.15,2.92,-0.32,2.92,-0.33,0.30,0.35,0.80,3.22,3.22,3.24
132.46,2.92,-0.28,2.91,-0.29,0.28,0.28,0.75,3.20,3.19,3.20
133.79,2.92,-0.24,2.92,-0.24,0.25,0.21,0.70,3.17,3.17,3.16
135.12,2.92,-0.20,2.92,-0.20,0.21,0.14,0.65,3.13,3.13,3.12
136.48,2.92,-0.16,2.92,-0.16,0.18,0.07,0.60,3.10,3.10,3.08
137.84,2.92,-0.12,2.92,-0.12,0.14,-0.00,0.54,3.06,3.06,3.04
139.22,2.92,-0.07,2.92,-0.08,0.10,-0.07,0.48,3.02,3.02,2.99
140.61,2.92,-0.03,2.92,-0.04,0.05,-0.14,0.43,2.97,2.97,2.95
142.02,2.92,-0.01,2.91,-0.01,-0.00,-0.21,0.37,2.92,2.91,2.93
143.44,2.92,0.03,2.91,0.02,-0.07,-0.27,0.31,2.85,2.84,2.89
144.87,2.92,0.07,2.95,0.09,-0.15,-0.34,0.25,2.77,2.80,2.85
146.32,3.01,0.20,3.02,0.20,-0.22,-0.41,0.18,2.79,2.79,2.81
147.78,3.12,0.34,3.11,0.33,-0.30,-0.48,0.12,2.82,2.81,2.78
149.26,3.20,0.45,3.19,0.45,-0.38,-0.54,0.06,2.82,2.81,2.75
150.75,3.24,0.55,3.23,0.53,-0.47,-0.61,-0.01,2.77,2.76,2.69
152.26,3.24,0.59,3.24,0.58,-0.57,-0.68,-0.08,2.67,2.67,2.65
153.78,3.24,0.62,3.24,0.63,-0.66,-0.74,-0.14,2.58,2.58,2.62
155.32,3.25,0.69,3.26,0.69,-0.75,-0.81,-0.21,2.50,2.51,2.56
156.88,3.31,0.78,3.33,0.80,-0.84,-0.88,-0.28,2.47,2.49,2.53
158.44,3.42,0.94,3.42,0.94,-0.92,-0.94,-0.35,2.50,2.50,2.48
160.03,3.53,1.10,3.50,1.07,-1.02,-1.01,-0.42,2.51,2.49,2.43
161.63,3.56,1.18,3.55,1.16,-1.12,-1.08,-0.49,2.44,2.43,2.38
163.24,3.57,1.23,3.57,1.23,-1.24,-1.14,-0.56,2.33,2.33,2.34
164.88,3.57,1.27,3.60,1.30,-1.35,-1.21,-0.64,2.22,2.24,2.30
166.53,3.66,1.41,3.67,1.42,-1.46,-1.28,-0.71,2.20,2.21,2.25
168.19,3.77,1.57,3.77,1.56,-1.56,-1.34,-0.78,2.21,2.21,2.20
169.87,3.88,1.73,3.85,1.69,-1.65,-1.41,-0.86,2.23,2.20,2.15
171.57,3.89,1.78,3.89,1.78,-1.74,-1.47,-0.94,2.15,2.16,2.11
173.29,3.89,1.84,3.90,1.84,-1.82,-1.54,-1.01,2.07,2.08,2.05
175.02,3.89,1.89,3.89,1.89,-1.89,-1.60,-1.09,2.00,2.00,2.00
176.77,3.89,1.95,3.89,1.94,-1.96,-1.67,-1.17,1.93,1.93,1.94
178.54,3.89,2.00,3.89,2.00,-2.01,-1.74,-1.25,1.88,1.88,1.89
180.32,3.89,2.06,3.89,2.05,-2.06,-1.80,-1.34,1.83,1.83,1.83
182.13,3.89,2.11,3.89,2.11,-2.11,-1.87,-1.42,1.78,1.78,1.78
183.95,3.89,2.17,3.89,2.16,-2.17,-1.93,-1.50,1.72,1.72,1.72
185.79,3.89,2.22,3.89,2.22,-2.22,-1.99,-1.59,1.67,1.67,1.67
187.65,3.89,2.29,3.89,2.28,-2.28,-2.06,-1.67,1.61,1.61,1.60
189.52,3.89,2.34,3.89,2.34,-2.33,-2.12,-1.76,1.56,1.56,1.55
191.42,3.89,2.39,3.89,2.39,-2.39,-2.18,-1.85,1.50,1.50,1.50
193.33,3.89,2.44,3.89,2.44,-2.44,-2.24,-1.93,1.45,1.45,1.45
195.27,3.89,2.49,3.89,2.49,-2.49,-2.31,-2.02,1.40,1.40,1.40
197.22,3.89,2.55,3.89,2.54,-2.54,-2.37,-2.11,1.35,1.35,1.34
199.19,3.89,2.60,3.89,2.59,-2.59,-2.43,-2.20,1.30,1.30,1.29
201.18,3.89,2.65,3.89,2.64,-2.64,-2.48,-2.29,1.25,1.25,1.24
203.19,3.89,2.68,3.89,2.68,-2.69,-2.54,-2.38,1.20,1.20,1.21
205.23,3.89,2.74,3.89,2.72,-2.73,-2.60,-2.47,1.16,1.16,1.15
207.28,3.89,2.76,3.89,2.77,-2.77,-2.65,-2.56,1.12,1.12,1.13
209.35,3.89,2.82,3.89,2.82,-2.82,-2.71,-2.65,1.07,1.07,1.07
211.44,3.89,2.87,3.89,2.86,-2.86,-2.76,-2.73,1.03,1.03,1.02
213.56,3.89,2.91,3.89,2.90,-2.90,-2.81,-2.82,0.99,0.99,0.98
215.69,3.89,2.93,3.89,2.93,-2.93,-2.86,-2.90,0.96,0.96,0.96
217.85,3.89,2.97,3.89,2.97,-2.97,-2.91,-2.99,0.92,0.92,0.92
220.03,3.89,3.01,3.89,3.00,-3.00,-2.95,-3.06,0.89,0.89,0.88
222.23,3.89,3.04,3.89,3.03,-3.03,-3.00,-3.14,0.86,0.86,0.85
224.45,3.89,3.06,3.89,3.06,-3.06,-3.04,-3.22,0.83,0.83,0.83
226.70,3.89,3.09,3.89,3.09,-3.09,-3.08,-3.29,0.80,0.80,0.80
228.96,3.89,3.12,3.89,3.11,-3.11,-3.11,-3.35,0.78,0.78,0.77
231.25,3.89,3.13,3.89,3.13,-3.13,-3.15,-3.41,0.76,0.76,0.76
233.57,3.89,3.15,3.89,3.14,-3.14,-3.18,-3.47,0.75,0.75,0.74
235.90,3.89,3.16,3.89,3.16,-3.16,-3.21,-3.52,0.73,0.73,0.73
238.26,3.89,3.17,3.89,3.17,-3.17,-3.24,-3.57,0.72,0.72,0.72
240.64,3.89,3.18,3.89,3.17,-3.18,-3.27,-3.61,0.71,0.71,0.71
243.05,3.89,3.18,3.89,3.18,-3.18,-3.29,-3.65,0.71,0.71,0.71
245.48,3.89,3.19,3.89,3.18,-3.18,-3.31,-3.68,0.71,0.71,0.70
247.93,3.89,3.19,3.89,3.19,-3.18,-3.32,-3.70,0.71,0.71,0.70
250.41,3.89,3.19,3.89,3.18,-3.18,-3.34,-3.72,0.71,0.71,0.70
252.92,3.89,3.18,3.89,3.18,-3.18,-3.35,-3.73,0.71,0.71,0.71
255.45,3.89,3.17,3.89,3.17,-3.17,-3.36,-3.73,0.72,0.72,0.72
258.00,3.89,3.16,3.89,3.16,-3.16,-3.37,-3.73,0.73,0.73,0.73
260.58,3.89,3.16,3.89,3.15,-3.15,-3.37,-3.72,0.74,0.74,0.73
263.19,3.89,3.15,3.89,3.15,-3.14,-3.37,-3.71,0.75,0.75,0.74
265.82,3.89,3.14,3.89,3.13,-3.13,-3.37,-3.69,0.76,0.76,0.75
268.48,3.89,3.12,3.89,3.12,-3.12,-3.36,-3.67,0.77,0.77,0.77
271.16,3.89,3.10,3.89,3.10,-3.10,-3.36,-3.64,0.79,0.79,0.79
273.87,3.89,3.10,3.89,3.09,-3.09,-3.35,-3.61,0.80,0.80,0.79
276.61,3.89,3.07,3.89,3.07,-3.08,-3.33,-3.57,0.81,0.81,0.82
279.38,3.89,3.07,3.89,3.06,-3.06,-3.32,-3.53,0.83,0.83,0.82
282.17,3.89,3.05,3.89,3.05,-3.05,-3.30,-3.49,0.84,0.84,0.84
284.99,3.89,3.04,3.89,3.04,-3.04,-3.28,-3.44,0.85,0.85,0.85
287.84,3.89,3.03,3.89,3.03,-3.02,-3.26,-3.39,0.87,0.87,0.86
290.72,3.89,3.02,3.89,3.01,-3.01,-3.24,-3.34,0.88,0.88,0.87
293.63,3.89,3.00,3.89,3.00,-3.00,-3.22,-3.29,0.89,0.89,0.89
296.57,3.89,2.98,3.89,2.98,-2.99,-3.19,-3.24,0.90,0.90,0.91
299.53,3.89,2.98,3.89,2.97,-2.97,-3.16,-3.19,0.92,0.92,0.91
302.53,3.89,2.97,3.89,2.96,-2.96,-3.13,-3.13,0.93,0.93,0.92
305.55,3.89,2.95,3.89,2.95,-2.95,-3.10,-3.08,0.94,0.94,0.94
308.61,3.89,2.94,3.89,2.93,-2.93,-3.07,-3.03,0.96,0.96,0.95
311.69,3.89,2.93,3.89,2.92,-2.92,-3.04,-2.97,0.97,0.97,0.96
314.81,3.89,2.90,3.89,2.91,-2.92,-3.01,-2.92,0.97,0.97,0.99
317.96,3.89,2.91,3.89,2.90,-2.91,-2.97,-2.87,0.98,0.98,0.98
321.14,3.89,2.90,3.89,2.90,-2.91,-2.94,-2.82,0.98,0.98,0.99
324.35,3.89,2.90,3.89,2.89,-2.91,-2.90,-2.77,0.98,0.98,0.99
327.59,3.89,2.89,3.89,2.89,-2.90,-2.87,-2.72,0.99,0.99,1.00
330.87,3.89,2.89,3.90,2.89,-2.87,-2.83,-2.68,1.02,1.02,1.00
334.18,3.89,2.89,3.90,2.89,-2.84,-2.79,-2.64,1.05,1.06,1.00
337.52,3.89,2.88,3.87,2.86,-2.80,-2.76,-2.59,1.09,1.07,1.01
340.90,3.81,2.80,3.80,2.78,-2.75,-2.72,-2.55,1.06,1.05,1.01
344.30,3.70,2.69,3.71,2.69,-2.70,-2.68,-2.51,1.00,1.00,1.01
347.75,3.60,2.59,3.62,2.61,-2.66,-2.65,-2.48,0.94,0.96,1.01
351.23,3.57,2.56,3.57,2.56,-2.63,-2.61,-2.44,0.94,0.95,1.01
354.74,3.57,2.56,3.56,2.55,-2.60,-2.57,-2.41,0.97,0.96,1.01
358.28,3.57,2.58,3.57,2.57,-2.58,-2.54,-2.38,0.99,0.99,0.99
361.87,3.57,2.58,3.57,2.58,-2.57,-2.50,-2.35,1.00,1.00,0.99
365.49,3.57,2.58,3.58,2.59,-2.56,-2.47,-2.32,1.01,1.02,0.99
369.14,3.57,2.59,3.58,2.59,-2.54,-2.44,-2.30,1.03,1.04,0.98
372.83,3.57,2.59,3.55,2.57,-2.51,-2.40,-2.28,1.06,1.04,0.98
376.56,3.50,2.53,3.49,2.51,-2.48,-2.37,-2.26,1.02,1.01,0.97
380.33,3.39,2.43,3.39,2.43,-2.44,-2.34,-2.24,0.96,0.96,0.96
384.13,3.28,2.33,3.30,2.35,-2.40,-2.31,-2.22,0.88,0.91,0.95
387.97,3.24,2.30,3.25,2.30,-2.36,-2.28,-2.20,0.88,0.89,0.94
391.85,3.24,2.31,3.23,2.29,-2.34,-2.25,-2.19,0.90,0.89,0.93
395.77,3.24,2.30,3.24,2.30,-2.32,-2.22,-2.17,0.92,0.91,0.94
399.73,3.24,2.31,3.24,2.31,-2.31,-2.19,-2.16,0.93,0.93,0.93
403.72,3.24,2.32,3.25,2.32,-2.29,-2.17,-2.15,0.95,0.95,0.92
407.76,3.24,2.33,3.25,2.33,-2.28,-2.14,-2.14,0.96,0.97,0.91
411.84,3.24,2.32,3.22,2.31,-2.25,-2.12,-2.13,0.99,0.97,0.92
415.96,3.18,2.28,3.16,2.25,-2.22,-2.09,-2.13,0.96,0.95,0.90
420.12,3.07,2.17,3.08,2.17,-2.17,-2.07,-2.12,0.90,0.90,0.90
424.32,2.97,2.07,2.99,2.09,-2.13,-2.05,-2.11,0.84,0.86,0.90
428.56,2.93,2.04,2.93,2.04,-2.09,-2.03,-2.11,0.84,0.84,0.89
432.85,2.92,2.03,2.92,2.02,-2.06,-2.01,-2.10,0.86,0.86,0.89
437.18,2.92,2.03,2.92,2.02,-2.04,-1.99,-2.09,0.88,0.88,0.89
441.55,2.92,2.02,2.92,2.02,-2.03,-1.98,-2.09,0.89,0.89,0.90
445.96,2.92,2.02,2.92,2.02,-2.02,-1.96,-2.08,0.90,0.90,0.90
450.42,2.92,2.03,2.92,2.02,-2.01,-1.94,-2.07,0.91,0.91,0.89
454.93,2.92,2.02,2.93,2.03,-1.99,-1.92,-2.06,0.93,0.93,0.90
459.48,2.92,2.02,2.92,2.02,-1.96,-1.91,-2.05,0.96,0.96,0.90
464.07,2.91,2.00,2.88,1.97,-1.92,-1.89,-2.04,0.99,0.97,0.91
468.71,2.81,1.89,2.80,1.89,-1.87,-1.88,-2.03,0.94,0.94,0.92
473.40,2.70,1.79,2.71,1.79,-1.81,-1.86,-2.01,0.89,0.90,0.91
478.13,2.61,1.69,2.63,1.71,-1.76,-1.84,-2.00,0.85,0.87,0.92
482.91,2.59,1.67,2.59,1.66,-1.71,-1.82,-1.98,0.88,0.88,0.92
487.74,2.59,1.66,2.58,1.65,-1.67,-1.81,-1.96,0.92,0.91,0.93
492.62,2.59,1.65,2.59,1.65,-1.65,-1.79,-1.94,0.94,0.94,0.94
497.55,2.59,1.65,2.59,1.64,-1.64,-1.77,-1.91,0.95,0.95,0.94
502.52,2.59,1.64,2.59,1.64,-1.64,-1.74,-1.89,0.95,0.95,0.95
507.55,2.59,1.64,2.59,1.64,-1.64,-1.72,-1.86,0.95,0.95,0.95
512.62,2.59,1.64,2.59,1.63,-1.64,-1.69,-1.83,0.95,0.95,0.95
517.75,2.59,1.63,2.60,1.64,-1.61,-1.67,-1.80,0.98,0.98,0.96
522.93,2.59,1.63,2.59,1.63,-1.58,-1.64,-1.76,1.01,1.01,0.96
528.16,2.58,1.62,2.56,1.59,-1.54,-1.61,-1.72,1.04,1.02,0.96
533.44,2.49,1.53,2.48,1.52,-1.49,-1.57,-1.68,1.00,0.99,0.96
538.77,2.38,1.42,2.39,1.42,-1.44,-1.54,-1.64,0.94,0.94,0.96
544.16,2.28,1.32,2.31,1.34,-1.40,-1.50,-1.60,0.88,0.90,0.96
549.60,2.27,1.31,2.27,1.31,-1.37,-1.46,-1.55,0.90,0.90,0.96
