frequency,raw,error,smoothed,error_smoothed,equalization,parametric_eq,fixed_band_eq,equalized_raw,equalized_smoothed,target
20.00,-16.07,-18.53,-16.16,-18.64,18.64,16.24,5.36,2.57,2.48,2.45
20.20,-16.00,-18.49,-15.99,-18.49,18.49,16.69,5.49,2.49,2.50,2.48
20.40,-15.86,-18.37,-15.82,-18.34,18.34,17.14,5.62,2.48,2.52,2.51
20.61,-15.68,-18.22,-15.64,-18.18,18.18,17.59,5.76,2.50,2.54,2.53
20.81,-15.50,-18.06,-15.47,-18.02,18.02,18.02,5.91,2.52,2.55,2.56
21.02,-15.29,-17.88,-15.29,-17.86,17.86,18.42,6.05,2.57,2.57,2.59
21.23,-15.13,-17.73,-15.11,-17.69,17.69,18.78,6.20,2.56,2.58,2.60
21.44,-14.92,-17.53,-14.93,-17.52,17.52,19.09,6.36,2.60,2.59,2.61
21.66,-14.75,-17.37,-14.74,-17.35,17.35,19.34,6.52,2.60,2.61,2.62
21.87,-14.56,-17.18,-14.56,-17.17,17.17,19.50,6.68,2.62,2.61,2.62
22.09,-14.35,-16.98,-14.37,-16.99,16.99,19.57,6.85,2.64,2.62,2.63
22.31,-14.19,-16.82,-14.18,-16.81,16.81,19.54,7.02,2.62,2.63,2.63
22.54,-13.98,-16.61,-13.98,-16.61,16.61,19.42,7.20,2.63,2.63,2.63
22.76,-13.77,-16.40,-13.79,-16.41,16.41,19.22,7.38,2.65,2.63,2.63
22.99,-13.59,-16.21,-13.59,-16.22,16.22,18.93,7.57,2.63,2.63,2.62
23.22,-13.40,-16.02,-13.39,-16.02,16.02,18.59,7.76,2.62,2.63,2.62
23.45,-13.20,-15.81,-13.20,-15.82,15.82,18.20,7.96,2.62,2.62,2.62
23.69,-12.99,-15.61,-13.00,-15.62,15.62,17.78,8.17,2.62,2.62,2.61
23.92,-12.80,-15.41,-12.80,-15.41,15.41,17.34,8.37,2.62,2.62,2.61
24.16,-12.60,-15.22,-12.59,-15.21,15.21,16.89,8.59,2.61,2.62,2.62
24.40,-12.40,-15.02,-12.39,-15.01,15.01,16.43,8.81,2.61,2.61,2.62
24.65,-12.19,-14.80,-12.19,-14.80,14.80,15.98,9.03,2.61,2.61,2.61
24.89,-11.98,-14.59,-11.98,-14.59,14.59,15.53,9.26,2.62,2.61,2.61
25.14,-11.78,-14.39,-11.78,-14.39,14.39,15.09,9.50,2.61,2.61,2.61
25.39,-11.57,-14.18,-11.57,-14.18,14.18,14.67,9.74,2.61,2.61,2.61
25.65,-11.36,-13.97,-11.37,-13.97,13.97,14.25,9.98,2.61,2.61,2.61
25.91,-11.16,-13.76,-11.16,-13.76,13.76,13.85,10.23,2.60,2.60,2.60
26.16,-10.95,-13.54,-10.95,-13.55,13.55,13.46,10.48,2.61,2.60,2.59
26.43,-10.75,-13.35,-10.75,-13.34,13.34,13.08,10.74,2.59,2.60,2.59
26.69,-10.54,-13.13,-10.54,-13.13,13.13,12.71,11.00,2.59,2.59,2.59
26.96,-10.33,-12.92,-10.34,-12.92,12.92,12.36,11.26,2.59,2.59,2.59
27.23,-10.13,-12.72,-10.13,-12.71,12.71,12.02,11.52,2.58,2.58,2.59
27.50,-9.92,-12.51,-9.92,-12.51,12.51,11.69,11.78,2.58,2.58,2.59
27.77,-9.71,-12.28,-9.72,-12.30,12.30,11.37,12.04,2.59,2.58,2.58
28.05,-9.51,-12.08,-9.51,-12.09,12.09,11.06,12.30,2.58,2.57,2.57
28.33,-9.32,-11.88,-9.31,-11.88,11.88,10.76,12.54,2.56,2.57,2.56
28.62,-9.10,-11.67,-9.10,-11.67,11.67,10.47,12.78,2.56,2.56,2.56
28.90,-8.89,-11.45,-8.90,-11.46,11.46,10.19,13.00,2.57,2.56,2.56
29.19,-8.68,-11.23,-8.69,-11.24,11.24,9.92,13.21,2.56,2.56,2.55
29.48,-8.48,-11.04,-8.48,-11.03,11.03,9.66,13.39,2.55,2.55,2.56
29.78,-8.27,-10.82,-8.27,-10.81,10.81,9.41,13.56,2.54,2.54,2.54
30.08,-8.06,-10.61,-8.06,-10.60,10.60,9.16,13.69,2.53,2.54,2.54
30.38,-7.86,-10.39,-7.85,-10.38,10.38,8.92,13.80,2.51,2.53,2.53
30.68,-7.63,-10.16,-7.63,-10.16,10.16,8.69,13.87,2.53,2.53,2.53
30.99,-7.41,-9.93,-7.41,-9.93,9.93,8.46,13.90,2.52,2.52,2.52
31.30,-7.20,-9.72,-7.19,-9.71,9.71,8.24,13.90,2.50,2.51,2.51
31.61,-6.97,-9.48,-6.97,-9.48,9.48,8.03,13.86,2.51,2.51,2.51
31.93,-6.76,-9.26,-6.75,-9.25,9.25,7.82,13.78,2.49,2.50,2.50
32.24,-6.51,-8.99,-6.53,-9.02,9.02,7.62,13.67,2.51,2.49,2.49
32.57,-6.31,-8.80,-6.30,-8.78,8.78,7.42,13.52,2.47,2.48,2.48
32.89,-6.06,-8.54,-6.07,-8.55,8.55,7.23,13.34,2.49,2.48,2.48
33.22,-5.85,-8.32,-5.84,-8.31,8.31,7.04,13.14,2.46,2.47,2.47
33.55,-5.60,-8.06,-5.62,-8.08,8.08,6.86,12.91,2.48,2.46,2.46
33.89,-5.39,-7.84,-5.39,-7.84,7.84,6.68,12.66,2.45,2.45,2.45
34.23,-5.15,-7.60,-5.16,-7.60,7.60,6.50,12.40,2.45,2.44,2.45
34.57,-4.94,-7.37,-4.93,-7.36,7.36,6.33,12.12,2.42,2.43,2.43
34.92,-4.69,-7.11,-4.70,-7.12,7.12,6.16,11.83,2.43,2.42,2.42
35.27,-4.48,-6.90,-4.47,-6.88,6.88,6.00,11.53,2.40,2.41,2.42
35.62,-4.23,-6.63,-4.24,-6.64,6.64,5.84,11.23,2.41,2.40,2.40
35.97,-4.03,-6.42,-4.01,-6.41,6.41,5.68,10.93,2.38,2.39,2.39
36.33,-3.78,-6.16,-3.78,-6.16,6.16,5.52,10.62,2.39,2.38,2.38
36.70,-3.57,-5.94,-3.56,-5.93,5.93,5.37,10.32,2.35,2.37,2.37
37.06,-3.32,-5.67,-3.33,-5.69,5.69,5.21,10.02,2.37,2.36,2.35
37.43,-3.12,-5.47,-3.11,-5.45,5.45,5.06,9.71,2.33,2.35,2.35
37.81,-2.89,-5.23,-2.88,-5.22,5.22,4.91,9.41,2.32,2.33,2.34
38.19,-2.66,-4.98,-2.66,-4.98,4.98,4.77,9.12,2.32,2.32,2.32
38.57,-2.43,-4.75,-2.44,-4.75,4.75,4.62,8.82,2.32,2.31,2.31
38.95,-2.23,-4.53,-2.22,-4.52,4.52,4.48,8.54,2.29,2.30,2.30
39.34,-2.02,-4.30,-2.01,-4.30,4.30,4.33,8.25,2.28,2.29,2.28
39.74,-1.81,-4.08,-1.81,-4.08,4.08,4.19,7.97,2.27,2.28,2.27
40.14,-1.61,-3.87,-1.61,-3.87,3.87,4.04,7.69,2.26,2.26,2.26
40.54,-1.42,-3.67,-1.42,-3.67,3.67,3.90,7.42,2.25,2.25,2.24
40.94,-1.22,-3.46,-1.23,-3.47,3.47,3.76,7.15,2.25,2.24,2.24
41.35,-1.03,-3.25,-1.06,-3.28,3.28,3.61,6.89,2.25,2.23,2.22
41.76,-0.87,-3.08,-0.89,-3.10,3.10,3.47,6.63,2.23,2.21,2.21
42.18,-0.71,-2.92,-0.73,-2.92,2.92,3.32,6.37,2.21,2.20,2.21
42.60,-0.57,-2.76,-0.57,-2.76,2.76,3.17,6.12,2.19,2.18,2.19
43.03,-0.43,-2.61,-0.43,-2.60,2.60,3.02,5.87,2.17,2.17,2.18
43.46,-0.30,-2.46,-0.29,-2.44,2.44,2.87,5.63,2.14,2.15,2.16
43.90,-0.18,-2.32,-0.16,-2.30,2.30,2.71,5.39,2.12,2.14,2.13
44.33,-0.05,-2.16,-0.04,-2.16,2.16,2.56,5.15,2.11,2.12,2.11
44.78,0.05,-2.05,0.07,-2.04,2.04,2.40,4.92,2.08,2.10,2.09
45.23,0.18,-1.90,0.17,-1.91,1.91,2.24,4.69,2.09,2.08,2.08
45.68,0.28,-1.78,0.26,-1.80,1.80,2.07,4.46,2.08,2.06,2.05
46.13,0.37,-1.66,0.35,-1.69,1.69,1.91,4.23,2.06,2.04,2.03
46.60,0.44,-1.59,0.43,-1.59,1.59,1.74,4.01,2.03,2.02,2.02
47.06,0.51,-1.49,0.51,-1.49,1.49,1.57,3.79,2.00,2.00,2.00
47.53,0.58,-1.40,0.57,-1.40,1.40,1.41,3.58,1.98,1.97,1.98
48.01,0.64,-1.33,0.63,-1.31,1.31,1.25,3.36,1.95,1.95,1.97
48.49,0.69,-1.25,0.69,-1.24,1.24,1.09,3.15,1.93,1.93,1.94
48.97,0.74,-1.16,0.74,-1.16,1.16,0.94,2.94,1.90,1.90,1.90
49.46,0.77,-1.10,0.78,-1.10,1.10,0.79,2.74,1.87,1.88,1.87
49.96,0.82,-1.02,0.81,-1.04,1.04,0.66,2.54,1.85,1.85,1.84
50.46,0.83,-0.99,0.84,-0.98,0.98,0.55,2.34,1.81,1.82,1.82
50.96,0.87,-0.93,0.87,-0.93,0.93,0.45,2.14,1.80,1.80,1.80
51.47,0.89,-0.87,0.89,-0.88,0.88,0.37,1.95,1.77,1.77,1.76
51.99,0.92,-0.82,0.91,-0.83,0.83,0.30,1.76,1.75,1.74,1.74
52.51,0.92,-0.80,0.93,-0.78,0.78,0.26,1.57,1.70,1.71,1.72
53.03,0.96,-0.73,0.94,-0.74,0.74,0.24,1.39,1.70,1.69,1.69
53.56,0.96,-0.70,0.95,-0.71,0.71,0.23,1.21,1.67,1.66,1.66
54.10,0.96,-0.68,0.96,-0.67,0.67,0.24,1.04,1.63,1.63,1.64
54.64,0.96,-0.65,0.97,-0.64,0.64,0.26,0.87,1.60,1.61,1.61
55.18,0.96,-0.62,0.97,-0.61,0.61,0.29,0.71,1.57,1.58,1.58
55.74,0.96,-0.59,0.98,-0.58,0.58,0.33,0.55,1.54,1.55,1.55
56.29,0.98,-0.55,0.98,-0.55,0.55,0.37,0.40,1.53,1.53,1.53
56.86,0.98,-0.52,0.98,-0.52,0.52,0.42,0.26,1.50,1.50,1.49
57.42,0.98,-0.48,0.98,-0.49,0.49,0.47,0.12,1.47,1.47,1.46
58.00,0.96,-0.48,0.98,-0.47,0.47,0.52,-0.01,1.42,1.44,1.44
58.58,0.96,-0.46,0.97,-0.44,0.44,0.57,-0.14,1.40,1.41,1.42
59.16,0.96,-0.43,0.97,-0.42,0.42,0.61,-0.25,1.38,1.38,1.39
59.76,0.96,-0.41,0.96,-0.40,0.40,0.66,-0.36,1.35,1.35,1.37
60.35,0.96,-0.37,0.95,-0.38,0.38,0.69,-0.46,1.34,1.32,1.33
60.96,0.94,-0.36,0.93,-0.36,0.36,0.73,-0.55,1.30,1.29,1.30
61.57,0.92,-0.34,0.91,-0.35,0.35,0.76,-0.63,1.27,1.26,1.26
62.18,0.89,-0.33,0.88,-0.35,0.35,0.79,-0.70,1.24,1.23,1.22
62.80,0.86,-0.33,0.85,-0.35,0.35,0.82,-0.77,1.20,1.19,1.19
63.43,0.81,-0.34,0.81,-0.35,0.35,0.84,-0.82,1.16,1.16,1.15
64.07,0.76,-0.36,0.77,-0.36,0.36,0.86,-0.87,1.12,1.12,1.12
64.71,0.72,-0.37,0.72,-0.37,0.37,0.87,-0.91,1.09,1.09,1.09
65.35,0.66,-0.39,0.66,-0.39,0.39,0.88,-0.94,1.05,1.05,1.05
66.01,0.60,-0.42,0.59,-0.42,0.42,0.89,-0.96,1.02,1.02,1.02
66.67,0.53,-0.46,0.53,-0.46,0.46,0.90,-0.97,0.99,0.98,0.98
67.33,0.46,-0.49,0.45,-0.50,0.50,0.91,-0.98,0.96,0.95,0.95
68.01,0.37,-0.54,0.37,-0.54,0.54,0.91,-0.98,0.91,0.91,0.91
68.69,0.31,-0.57,0.29,-0.59,0.59,0.91,-0.97,0.90,0.88,0.88
69.37,0.21,-0.63,0.20,-0.64,0.64,0.91,-0.96,0.85,0.84,0.84
70.07,0.11,-0.69,0.10,-0.70,0.70,0.91,-0.94,0.81,0.80,0.80
70.77,0.03,-0.74,0.01,-0.75,0.75,0.91,-0.92,0.78,0.76,0.77
71.48,-0.08,-0.81,-0.09,-0.81,0.81,0.91,-0.89,0.73,0.72,0.73
72.19,-0.18,-0.87,-0.18,-0.86,0.86,0.90,-0.86,0.68,0.68,0.68
72.91,-0.28,-0.92,-0.27,-0.91,0.91,0.89,-0.83,0.63,0.64,0.64
73.64,-0.36,-0.96,-0.36,-0.96,0.96,0.89,-0.79,0.60,0.60,0.60
74.38,-0.47,-1.03,-0.44,-1.01,1.01,0.88,-0.75,0.53,0.56,0.56
75.12,-0.54,-1.06,-0.52,-1.04,1.04,0.87,-0.70,0.50,0.52,0.52
75.87,-0.62,-1.10,-0.59,-1.07,1.07,0.86,-0.66,0.45,0.48,0.48
76.63,-0.69,-1.13,-0.66,-1.10,1.10,0.86,-0.61,0.41,0.44,0.44
77.40,-0.75,-1.15,-0.72,-1.12,1.12,0.85,-0.56,0.37,0.40,0.40
78.17,-0.79,-1.14,-0.77,-1.13,1.13,0.84,-0.51,0.34,0.36,0.35
78.95,-0.82,-1.14,-0.82,-1.14,1.14,0.83,-0.46,0.32,0.32,0.32
79.74,-0.86,-1.14,-0.87,-1.14,1.14,0.82,-0.41,0.28,0.28,0.28
80.54,-0.90,-1.14,-0.91,-1.14,1.14,0.81,-0.36,0.24,0.23,0.24
81.35,-0.93,-1.12,-0.95,-1.14,1.14,0.79,-0.31,0.21,0.19,0.19
82.16,-0.97,-1.12,-0.99,-1.13,1.13,0.78,-0.25,0.16,0.15,0.15
82.98,-1.01,-1.12,-1.02,-1.13,1.13,0.77,-0.20,0.12,0.10,0.11
83.81,-1.06,-1.12,-1.07,-1.12,1.12,0.76,-0.15,0.06,0.06,0.06
84.65,-1.10,-1.11,-1.11,-1.12,1.12,0.75,-0.09,0.02,0.01,0.01
85.50,-1.14,-1.11,-1.16,-1.12,1.12,0.74,-0.04,-0.02,-0.03,-0.03
86.35,-1.19,-1.11,-1.21,-1.13,1.13,0.73,0.01,-0.06,-0.08,-0.08
87.22,-1.25,-1.12,-1.26,-1.14,1.14,0.72,0.06,-0.11,-0.13,-0.13
88.09,-1.32,-1.14,-1.32,-1.15,1.15,0.70,0.12,-0.17,-0.18,-0.18
88.97,-1.38,-1.16,-1.38,-1.16,1.16,0.69,0.17,-0.22,-0.23,-0.22
89.86,-1.45,-1.18,-1.45,-1.17,1.17,0.68,0.22,-0.28,-0.28,-0.27
90.76,-1.51,-1.18,-1.51,-1.18,1.18,0.67,0.27,-0.33,-0.33,-0.33
91.66,-1.57,-1.19,-1.58,-1.20,1.20,0.66,0.32,-0.37,-0.38,-0.38
92.58,-1.65,-1.21,-1.65,-1.21,1.21,0.65,0.37,-0.44,-0.44,-0.44
93.51,-1.72,-1.23,-1.71,-1.22,1.22,0.64,0.42,-0.50,-0.49,-0.49
94.44,-1.79,-1.25,-1.78,-1.23,1.23,0.62,0.47,-0.56,-0.55,-0.54
95.39,-1.85,-1.25,-1.85,-1.24,1.24,0.61,0.52,-0.61,-0.60,-0.60
96.34,-1.92,-1.26,-1.91,-1.25,1.25,0.60,0.57,-0.67,-0.66,-0.66
97.30,-1.97,-1.25,-1.97,-1.26,1.26,0.59,0.62,-0.71,-0.71,-0.72
98.28,-2.04,-1.27,-2.04,-1.26,1.26,0.58,0.67,-0.78,-0.77,-0.77
99.26,-2.10,-1.27,-2.10,-1.27,1.27,0.57,0.71,-0.83,-0.83,-0.83
100.25,-2.15,-1.26,-2.16,-1.27,1.27,0.56,0.76,-0.88,-0.89,-0.89
101.25,-2.21,-1.27,-2.22,-1.27,1.27,0.55,0.80,-0.94,-0.94,-0.95
102.27,-2.27,-1.27,-2.28,-1.27,1.27,0.54,0.85,-1.00,-1.00,-1.00
103.29,-2.33,-1.26,-2.33,-1.27,1.27,0.53,0.89,-1.06,-1.06,-1.07
104.32,-2.39,-1.27,-2.39,-1.27,1.27,0.52,0.94,-1.12,-1.12,-1.12
105.37,-2.44,-1.26,-2.44,-1.26,1.26,0.51,0.98,-1.18,-1.18,-1.18
106.42,-2.49,-1.26,-2.49,-1.26,1.26,0.50,1.02,-1.24,-1.24,-1.23
107.48,-2.55,-1.26,-2.54,-1.25,1.25,0.49,1.06,-1.30,-1.30,-1.29
108.56,-2.60,-1.24,-2.59,-1.24,1.24,0.48,1.10,-1.36,-1.36,-1.36
109.64,-2.65,-1.23,-2.64,-1.23,1.23,0.47,1.13,-1.43,-1.42,-1.42
110.74,-2.70,-1.23,-2.69,-1.21,1.21,0.46,1.17,-1.49,-1.48,-1.47
111.85,-2.73,-1.20,-2.74,-1.19,1.19,0.45,1.20,-1.54,-1.54,-1.53
112.97,-2.77,-1.16,-2.78,-1.18,1.18,0.44,1.23,-1.59,-1.61,-1.61
114.10,-2.82,-1.16,-2.82,-1.16,1.16,0.44,1.26,-1.66,-1.67,-1.67
115.24,-2.86,-1.13,-2.87,-1.14,1.14,0.43,1.28,-1.72,-1.73,-1.73
116.39,-2.90,-1.10,-2.91,-1.11,1.11,0.42,1.31,-1.79,-1.79,-1.80
117.55,-2.95,-1.09,-2.95,-1.09,1.09,0.41,1.33,-1.86,-1.86,-1.86
118.73,-3.00,-1.07,-2.99,-1.07,1.07,0.40,1.35,-1.93,-1.92,-1.93
119.92,-3.03,-1.05,-3.03,-1.04,1.04,0.39,1.36,-1.99,-1.98,-1.98
121.12,-3.06,-1.01,-3.06,-1.02,1.02,0.38,1.38,-2.04,-2.04,-2.05
122.33,-3.09,-0.98,-3.10,-0.99,0.99,0.38,1.38,-2.10,-2.11,-2.11
123.55,-3.14,-0.98,-3.14,-0.97,0.97,0.37,1.39,-2.17,-2.17,-2.16
124.79,-3.17,-0.95,-3.17,-0.94,0.94,0.36,1.39,-2.23,-2.23,-2.22
126.03,-3.20,-0.92,-3.21,-0.92,0.92,0.35,1.39,-2.28,-2.29,-2.29
127.29,-3.24,-0.90,-3.24,-0.89,0.89,0.35,1.39,-2.35,-2.35,-2.35
128.57,-3.28,-0.86,-3.27,-0.86,0.86,0.34,1.39,-2.42,-2.41,-2.42
129.85,-3.31,-0.84,-3.30,-0.83,0.83,0.33,1.38,-2.48,-2.47,-2.47
131.15,-3.33,-0.80,-3.33,-0.80,0.80,0.32,1.36,-2.53,-2.53,-2.53
132.46,-3.37,-0.78,-3.36,-0.77,0.77,0.32,1.35,-2.60,-2.59,-2.59
133.79,-3.37,-0.73,-3.39,-0.74,0.74,0.31,1.33,-2.63,-2.64,-2.64
135.12,-3.41,-0.71,-3.41,-0.72,0.72,0.30,1.31,-2.69,-2.70,-2.70
136.48,-3.44,-0.69,-3.44,-0.69,0.69,0.30,1.29,-2.75,-2.75,-2.75
137.84,-3.46,-0.66,-3.47,-0.66,0.66,0.29,1.27,-2.80,-2.80,-2.80
139.22,-3.50,-0.64,-3.49,-0.64,0.64,0.28,1.24,-2.86,-2.85,-2.87
140.61,-3.50,-0.58,-3.52,-0.61,0.61,0.28,1.21,-2.89,-2.90,-2.92
142.02,-3.55,-0.60,-3.54,-0.59,0.59,0.27,1.18,-2.96,-2.95,-2.95
143.44,-3.55,-0.55,-3.57,-0.57,0.57,0.26,1.15,-2.98,-3.00,-3.00
144.87,-3.59,-0.54,-3.59,-0.54,0.54,0.26,1.12,-3.05,-3.05,-3.05
146.32,-3.61,-0.51,-3.61,-0.52,0.52,0.25,1.08,-3.09,-3.09,-3.10
147.78,-3.63,-0.50,-3.63,-0.49,0.49,0.25,1.05,-3.14,-3.14,-3.13
149.26,-3.67,-0.49,-3.66,-0.47,0.47,0.24,1.01,-3.20,-3.19,-3.18
150.75,-3.68,-0.45,-3.68,-0.44,0.44,0.23,0.97,-3.24,-3.24,-3.24
152.26,-3.72,-0.44,-3.70,-0.42,0.42,0.23,0.94,-3.31,-3.28,-3.28
153.78,-3.72,-0.40,-3.72,-0.39,0.39,0.22,0.90,-3.33,-3.33,-3.32
155.32,-3.72,-0.34,-3.73,-0.36,0.36,0.22,0.86,-3.36,-3.37,-3.38
156.88,-3.76,-0.34,-3.75,-0.33,0.33,0.21,0.82,-3.43,-3.42,-3.42
158.44,-3.76,-0.29,-3.77,-0.30,0.30,0.21,0.78,-3.46,-3.47,-3.47
160.03,-3.77,-0.25,-3.79,-0.27,0.27,0.20,0.74,-3.50,-3.51,-3.52
161.63,-3.81,-0.24,-3.80,-0.24,0.24,0.20,0.70,-3.57,-3.56,-3.57
163.24,-3.81,-0.20,-3.82,-0.22,0.22,0.19,0.66,-3.60,-3.61,-3.61
164.88,-3.85,-0.20,-3.84,-0.19,0.19,0.18,0.62,-3.66,-3.65,-3.65
166.53,-3.85,-0.15,-3.86,-0.16,0.16,0.18,0.58,-3.69,-3.70,-3.70
168.19,-3.85,-0.11,-3.87,-0.13,0.13,0.17,0.54,-3.72,-3.74,-3.74
169.87,-3.89,-0.11,-3.89,-0.10,0.10,0.17,0.50,-3.79,-3.79,-3.78
171.57,-3.89,-0.06,-3.91,-0.08,0.08,0.16,0.47,-3.81,-3.83,-3.83
173.29,-3.94,-0.07,-3.92,-0.05,0.05,0.16,0.43,-3.89,-3.88,-3.87
175.02,-3.94,-0.03,-3.94,-0.02,0.02,0.16,0.39,-3.92,-3.92,-3.91
176.77,-3.96,0.00,-3.95,0.01,-0.01,0.15,0.35,-3.97,-3.96,-3.96
178.54,-3.98,0.03,-3.96,0.04,-0.04,0.15,0.31,-4.02,-4.00,-4.01
180.32,-3.98,0.07,-3.97,0.07,-0.07,0.14,0.27,-4.06,-4.05,-4.05
182.13,-3.98,0.11,-3.98,0.11,-0.11,0.14,0.23,-4.09,-4.09,-4.09
183.95,-3.99,0.14,-3.99,0.14,-0.14,0.13,0.20,-4.13,-4.13,-4.13
185.79,-4.00,0.17,-4.00,0.17,-0.17,0.13,0.16,-4.18,-4.17,-4.17
187.65,-4.00,0.21,-4.00,0.21,-0.21,0.12,0.12,-4.21,-4.21,-4.22
189.52,-4.00,0.25,-4.01,0.24,-0.24,0.12,0.08,-4.24,-4.25,-4.25
191.42,-4.00,0.28,-4.01,0.28,-0.28,0.11,0.05,-4.28,-4.28,-4.28
193.33,-4.00,0.32,-4.01,0.31,-0.31,0.11,0.01,-4.31,-4.32,-4.32
195.27,-4.00,0.35,-4.01,0.34,-0.34,0.11,-0.03,-4.34,-4.35,-4.35
197.22,-4.02,0.36,-4.01,0.37,-0.37,0.10,-0.06,-4.39,-4.38,-4.38
199.19,-4.02,0.40,-4.01,0.40,-0.40,0.10,-0.10,-4.42,-4.41,-4.42
201.18,-4.02,0.42,-4.01,0.42,-0.42,0.09,-0.13,-4.44,-4.44,-4.44
203.19,-4.02,0.44,-4.02,0.45,-0.45,0.09,-0.17,-4.47,-4.46,-4.46
205.23,-4.02,0.47,-4.02,0.47,-0.47,0.08,-0.20,-4.49,-4.49,-4.49
207.28,-4.02,0.48,-4.02,0.49,-0.49,0.08,-0.23,-4.51,-4.51,-4.50
209.35,-4.02,0.51,-4.03,0.50,-0.50,0.08,-0.27,-4.52,-4.53,-4.53
211.44,-4.02,0.53,-4.04,0.51,-0.51,0.07,-0.30,-4.53,-4.55,-4.55
213.56,-4.02,0.54,-4.04,0.52,-0.52,0.07,-0.33,-4.54,-4.56,-4.56
215.69,-4.04,0.53,-4.05,0.52,-0.52,0.06,-0.36,-4.57,-4.57,-4.57
217.85,-4.07,0.51,-4.06,0.53,-0.53,0.06,-0.39,-4.60,-4.58,-4.58
220.03,-4.07,0.53,-4.06,0.53,-0.53,0.06,-0.42,-4.60,-4.59,-4.60
222.23,-4.07,0.54,-4.07,0.53,-0.53,0.05,-0.44,-4.60,-4.60,-4.61
224.45,-4.07,0.54,-4.08,0.53,-0.53,0.05,-0.47,-4.60,-4.61,-4.61
226.70,-4.09,0.52,-4.09,0.52,-0.52,0.05,-0.49,-4.61,-4.61,-4.61
228.96,-4.11,0.50,-4.09,0.52,-0.52,0.04,-0.51,-4.63,-4.61,-4.61
231.25,-4.11,0.49,-4.10,0.51,-0.51,0.04,-0.54,-4.62,-4.61,-4.61
233.57,-4.11,0.50,-4.11,0.51,-0.51,0.03,-0.56,-4.62,-4.61,-4.61
235.90,-4.11,0.50,-4.11,0.50,-0.50,0.03,-0.57,-4.61,-4.61,-4.61
238.26,-4.11,0.50,-4.11,0.50,-0.50,0.03,-0.59,-4.61,-4.61,-4.61
240.64,-4.11,0.49,-4.11,0.49,-0.49,0.02,-0.60,-4.60,-4.60,-4.60
243.05,-4.11,0.48,-4.11,0.48,-0.48,0.02,-0.61,-4.59,-4.59,-4.59
245.48,-4.11,0.47,-4.11,0.47,-0.47,0.01,-0.62,-4.58,-4.58,-4.58
247.93,-4.11,0.46,-4.12,0.46,-0.46,0.01,-0.63,-4.57,-4.57,-4.57
250.41,-4.11,0.46,-4.12,0.44,-0.44,0.01,-0.64,-4.56,-4.56,-4.57
252.92,-4.11,0.44,-4.12,0.43,-0.43,0.00,-0.64,-4.54,-4.55,-4.55
255.45,-4.11,0.42,-4.12,0.41,-0.41,-0.00,-0.64,-4.52,-4.53,-4.53
258.00,-4.11,0.41,-4.13,0.39,-0.39,-0.00,-0.64,-4.50,-4.52,-4.52
260.58,-4.11,0.40,-4.13,0.37,-0.37,-0.01,-0.64,-4.48,-4.50,-4.51
263.19,-4.15,0.33,-4.14,0.35,-0.35,-0.01,-0.63,-4.50,-4.49,-4.48
265.82,-4.15,0.32,-4.14,0.33,-0.33,-0.02,-0.63,-4.48,-4.47,-4.47
268.48,-4.15,0.30,-4.14,0.31,-0.31,-0.02,-0.62,-4.46,-4.45,-4.45
271.16,-4.15,0.28,-4.14,0.29,-0.29,-0.02,-0.61,-4.44,-4.43,-4.43
273.87,-4.15,0.26,-4.14,0.27,-0.27,-0.03,-0.60,-4.42,-4.41,-4.41
276.61,-4.15,0.24,-4.14,0.25,-0.25,-0.03,-0.59,-4.41,-4.40,-4.39
279.38,-4.15,0.22,-4.14,0.24,-0.24,-0.03,-0.57,-4.39,-4.38,-4.38
282.17,-4.15,0.21,-4.14,0.22,-0.22,-0.04,-0.56,-4.37,-4.36,-4.36
284.99,-4.13,0.21,-4.13,0.21,-0.21,-0.04,-0.54,-4.34,-4.34,-4.34
287.84,-4.11,0.21,-4.13,0.19,-0.19,-0.05,-0.52,-4.30,-4.32,-4.32
290.72,-4.11,0.19,-4.13,0.17,-0.17,-0.05,-0.50,-4.29,-4.30,-4.30
293.63,-4.11,0.17,-4.12,0.16,-0.16,-0.05,-0.48,-4.27,-4.28,-4.28
296.57,-4.11,0.15,-4.12,0.14,-0.14,-0.06,-0.46,-4.25,-4.26,-4.26
299.53,-4.11,0.13,-4.12,0.12,-0.12,-0.06,-0.44,-4.23,-4.24,-4.24
302.53,-4.11,0.12,-4.11,0.10,-0.10,-0.07,-0.42,-4.21,-4.22,-4.23
305.55,-4.11,0.08,-4.11,0.08,-0.08,-0.07,-0.40,-4.19,-4.19,-4.19
308.61,-4.11,0.07,-4.11,0.06,-0.06,-0.08,-0.37,-4.17,-4.17,-4.18
311.69,-4.11,0.04,-4.11,0.04,-0.04,-0.08,-0.35,-4.15,-4.15,-4.15
314.81,-4.11,0.00,-4.11,0.02,-0.02,-0.08,-0.33,-4.13,-4.13,-4.12
317.96,-4.11,-0.01,-4.11,0.00,-0.00,-0.09,-0.30,-4.11,-4.11,-4.10
321.14,-4.11,-0.03,-4.10,-0.02,0.02,-0.09,-0.28,-4.09,-4.09,-4.08
324.35,-4.11,-0.04,-4.10,-0.03,0.03,-0.10,-0.25,-4.08,-4.06,-4.07
327.59,-4.11,-0.07,-4.09,-0.05,0.05,-0.10,-0.23,-4.06,-4.04,-4.04
330.87,-4.07,-0.05,-4.08,-0.06,0.06,-0.11,-0.20,-4.01,-4.02,-4.02
334.18,-4.07,-0.06,-4.07,-0.07,0.07,-0.11,-0.18,-4.00,-4.00,-4.01
337.52,-4.07,-0.08,-4.06,-0.08,0.08,-0.12,-0.15,-3.99,-3.98,-3.99
340.90,-4.06,-0.10,-4.05,-0.09,0.09,-0.12,-0.13,-3.97,-3.96,-3.96
344.30,-4.02,-0.08,-4.04,-0.10,0.10,-0.12,-0.11,-3.92,-3.95,-3.94
347.75,-4.02,-0.09,-4.03,-0.10,0.10,-0.13,-0.08,-3.92,-3.93,-3.93
351.23,-4.02,-0.11,-4.02,-0.11,0.11,-0.13,-0.06,-3.91,-3.91,-3.91
354.74,-4.02,-0.13,-4.01,-0.12,0.12,-0.14,-0.03,-3.91,-3.89,-3.89
358.28,-3.98,-0.11,-4.00,-0.12,0.12,-0.14,-0.01,-3.86,-3.88,-3.88
361.87,-3.98,-0.12,-3.99,-0.13,0.13,-0.15,0.02,-3.85,-3.86,-3.86
365.49,-3.98,-0.14,-3.97,-0.13,0.13,-0.15,0.04,-3.85,-3.84,-3.84
369.14,-3.98,-0.15,-3.96,-0.14,0.14,-0.16,0.07,-3.85,-3.83,-3.83
372.83,-3.94,-0.13,-3.95,-0.14,0.14,-0.16,0.09,-3.80,-3.81,-3.81
376.56,-3.94,-0.14,-3.94,-0.14,0.14,-0.17,0.12,-3.80,-3.80,-3.81
380.33,-3.94,-0.16,-3.93,-0.14,0.14,-0.18,0.14,-3.80,-3.79,-3.78
384.13,-3.91,-0.14,-3.92,-0.14,0.14,-0.18,0.17,-3.77,-3.77,-3.77
387.97,-3.89,-0.13,-3.90,-0.14,0.14,-0.19,0.19,-3.75,-3.76,-3.76
391.85,-3.89,-0.14,-3.89,-0.14,0.14,-0.19,0.22,-3.75,-3.75,-3.75
395.77,-3.88,-0.15,-3.88,-0.14,0.14,-0.20,0.24,-3.74,-3.74,-3.73
399.73,-3.85,-0.12,-3.87,-0.14,0.14,-0.20,0.26,-3.71,-3.73,-3.73
403.72,-3.85,-0.13,-3.85,-0.13,0.13,-0.21,0.28,-3.72,-3.72,-3.72
407.76,-3.85,-0.14,-3.83,-0.13,0.13,-0.22,0.31,-3.72,-3.71,-3.71
411.84,-3.81,-0.12,-3.82,-0.12,0.12,-0.22,0.33,-3.69,-3.69,-3.69
415.96,-3.81,-0.13,-3.80,-0.12,0.12,-0.23,0.35,-3.69,-3.69,-3.68
420.12,-3.81,-0.14,-3.79,-0.11,0.11,-0.24,0.37,-3.70,-3.68,-3.67
424.32,-3.76,-0.10,-3.77,-0.11,0.11,-0.24,0.39,-3.65,-3.67,-3.66
428.56,-3.75,-0.10,-3.76,-0.10,0.10,-0.25,0.41,-3.65,-3.65,-3.66
432.85,-3.72,-0.07,-3.74,-0.09,0.09,-0.26,0.43,-3.63,-3.64,-3.65
437.18,-3.72,-0.08,-3.71,-0.08,0.08,-0.26,0.44,-3.64,-3.63,-3.64
441.55,-3.68,-0.06,-3.69,-0.07,0.07,-0.27,0.46,-3.61,-3.62,-3.62
445.96,-3.68,-0.07,-3.67,-0.06,0.06,-0.28,0.47,-3.62,-3.61,-3.61
450.42,-3.68,-0.08,-3.65,-0.05,0.05,-0.28,0.48,-3.63,-3.60,-3.60
454.93,-3.65,-0.07,-3.63,-0.05,0.05,-0.29,0.49,-3.60,-3.58,-3.58
