frequency,raw,error,smoothed,error_smoothed,equalization,parametric_eq,fixed_band_eq,equalized_raw,equalized_smoothed,target
20.00,-7.61,-10.74,-7.60,-10.74,10.75,10.70,3.72,3.15,3.15,3.14
20.20,-7.57,-10.70,-7.57,-10.71,10.71,10.64,3.82,3.14,3.14,3.14
20.40,-7.53,-10.66,-7.53,-10.67,10.66,10.59,3.93,3.14,3.14,3.14
20.61,-7.48,-10.62,-7.48,-10.62,10.61,10.53,4.03,3.13,3.13,3.14
20.81,-7.43,-10.56,-7.43,-10.56,10.55,10.47,4.14,3.13,3.13,3.14
21.02,-7.38,-10.51,-7.37,-10.50,10.49,10.41,4.26,3.12,3.13,3.14
21.23,-7.31,-10.42,-7.31,-10.44,10.43,10.35,4.37,3.13,3.12,3.12
21.44,-7.26,-10.36,-7.26,-10.36,10.37,10.28,4.49,3.11,3.11,3.11
21.66,-7.21,-10.30,-7.20,-10.29,10.30,10.21,4.61,3.09,3.10,3.09
21.87,-7.15,-10.21,-7.15,-10.22,10.22,10.15,4.74,3.08,3.08,3.07
22.09,-7.09,-10.14,-7.09,-10.14,10.14,10.07,4.87,3.06,3.05,3.06
22.31,-7.04,-10.06,-7.03,-10.07,10.06,10.00,5.00,3.03,3.03,3.03
22.54,-6.99,-10.00,-6.98,-9.99,9.98,9.93,5.13,3.00,3.00,3.01
22.76,-6.92,-9.90,-6.92,-9.91,9.90,9.85,5.27,2.99,2.98,2.99
22.99,-6.87,-9.82,-6.86,-9.82,9.82,9.78,5.42,2.95,2.95,2.96
23.22,-6.81,-9.73,-6.80,-9.73,9.73,9.70,5.56,2.93,2.93,2.93
23.45,-6.74,-9.63,-6.74,-9.65,9.65,9.62,5.71,2.92,2.91,2.90
23.69,-6.68,-9.57,-6.68,-9.56,9.57,9.55,5.86,2.89,2.89,2.89
23.92,-6.62,-9.48,-6.61,-9.48,9.49,9.47,6.02,2.87,2.88,2.87
24.16,-6.55,-9.40,-6.55,-9.41,9.41,9.39,6.18,2.86,2.85,2.86
24.40,-6.50,-9.33,-6.49,-9.33,9.33,9.31,6.34,2.83,2.83,2.84
24.65,-6.44,-9.26,-6.43,-9.25,9.25,9.23,6.50,2.81,2.82,2.82
24.89,-6.37,-9.16,-6.37,-9.17,9.17,9.15,6.67,2.80,2.80,2.80
25.14,-6.31,-9.09,-6.30,-9.09,9.09,9.07,6.83,2.78,2.79,2.79
25.39,-6.23,-9.00,-6.24,-9.01,9.00,8.99,7.00,2.77,2.77,2.77
25.65,-6.17,-8.92,-6.17,-8.92,8.92,8.90,7.17,2.75,2.75,2.76
25.91,-6.11,-8.84,-6.10,-8.84,8.84,8.82,7.34,2.73,2.73,2.73
26.16,-6.04,-8.75,-6.04,-8.75,8.75,8.74,7.52,2.72,2.72,2.72
26.43,-5.97,-8.68,-5.97,-8.67,8.67,8.66,7.69,2.70,2.70,2.71
26.69,-5.90,-8.57,-5.90,-8.58,8.59,8.58,7.86,2.69,2.69,2.68
26.96,-5.83,-8.50,-5.83,-8.50,8.51,8.50,8.03,2.68,2.67,2.67
27.23,-5.77,-8.43,-5.77,-8.42,8.42,8.42,8.19,2.66,2.66,2.66
27.50,-5.71,-8.35,-5.70,-8.35,8.34,8.34,8.35,2.64,2.64,2.65
27.77,-5.64,-8.26,-5.64,-8.27,8.26,8.26,8.51,2.63,2.63,2.63
28.05,-5.57,-8.18,-5.57,-8.19,8.18,8.17,8.66,2.62,2.61,2.62
28.33,-5.51,-8.10,-5.50,-8.10,8.10,8.09,8.80,2.60,2.60,2.60
28.62,-5.44,-8.03,-5.44,-8.02,8.03,8.01,8.94,2.59,2.59,2.59
28.90,-5.38,-7.94,-5.38,-7.94,7.95,7.93,9.06,2.57,2.57,2.57
29.19,-5.32,-7.86,-5.31,-7.87,7.87,7.85,9.17,2.55,2.56,2.55
29.48,-5.25,-7.79,-5.25,-7.79,7.79,7.77,9.27,2.55,2.55,2.55
29.78,-5.18,-7.72,-5.18,-7.72,7.71,7.69,9.36,2.54,2.53,2.54
30.08,-5.12,-7.65,-5.12,-7.64,7.64,7.61,9.43,2.52,2.52,2.53
30.38,-5.06,-7.57,-5.05,-7.56,7.56,7.53,9.48,2.50,2.51,2.51
30.68,-4.99,-7.48,-4.99,-7.48,7.48,7.45,9.52,2.50,2.50,2.50
30.99,-4.92,-7.39,-4.92,-7.40,7.41,7.37,9.54,2.49,2.48,2.47
31.30,-4.87,-7.33,-4.86,-7.32,7.33,7.29,9.55,2.46,2.47,2.46
31.61,-4.81,-7.25,-4.81,-7.25,7.25,7.22,9.53,2.45,2.44,2.45
31.93,-4.76,-7.19,-4.76,-7.18,7.18,7.14,9.50,2.42,2.42,2.43
32.24,-4.71,-7.10,-4.70,-7.10,7.10,7.06,9.46,2.39,2.40,2.40
32.57,-4.64,-7.02,-4.64,-7.02,7.02,6.98,9.39,2.39,2.38,2.38
32.89,-4.59,-6.95,-4.58,-6.95,6.95,6.90,9.31,2.36,2.36,2.37
33.22,-4.53,-6.86,-4.52,-6.87,6.87,6.82,9.22,2.34,2.34,2.34
33.55,-4.47,-6.79,-4.47,-6.79,6.79,6.74,9.11,2.32,2.32,2.33
33.89,-4.41,-6.70,-4.41,-6.71,6.71,6.66,8.99,2.30,2.30,2.30
34.23,-4.35,-6.62,-4.35,-6.63,6.63,6.59,8.87,2.28,2.28,2.28
34.57,-4.29,-6.54,-4.29,-6.54,6.55,6.51,8.73,2.26,2.26,2.26
34.92,-4.23,-6.47,-4.23,-6.47,6.47,6.43,8.58,2.24,2.24,2.24
35.27,-4.17,-6.39,-4.17,-6.38,6.39,6.35,8.43,2.22,2.22,2.22
35.62,-4.11,-6.30,-4.11,-6.30,6.30,6.27,8.27,2.20,2.20,2.20
35.97,-4.05,-6.22,-4.05,-6.23,6.22,6.19,8.11,2.18,2.18,2.18
36.33,-3.99,-6.14,-3.99,-6.14,6.14,6.12,7.95,2.16,2.16,2.16
36.70,-3.93,-6.06,-3.92,-6.06,6.06,6.04,7.78,2.13,2.14,2.14
37.06,-3.86,-5.97,-3.86,-5.98,5.98,5.96,7.61,2.12,2.12,2.12
37.43,-3.80,-5.89,-3.80,-5.89,5.89,5.88,7.44,2.10,2.10,2.10
37.81,-3.74,-5.81,-3.73,-5.81,5.81,5.81,7.27,2.07,2.08,2.08
38.19,-3.67,-5.72,-3.67,-5.73,5.73,5.73,7.11,2.06,2.05,2.05
38.57,-3.62,-5.65,-3.61,-5.64,5.64,5.65,6.94,2.03,2.03,2.04
38.95,-3.55,-5.55,-3.55,-5.56,5.56,5.57,6.77,2.02,2.01,2.01
39.34,-3.49,-5.47,-3.49,-5.48,5.48,5.50,6.61,1.99,1.99,1.99
39.74,-3.43,-5.39,-3.43,-5.40,5.40,5.42,6.45,1.97,1.97,1.97
40.14,-3.37,-5.33,-3.37,-5.32,5.32,5.34,6.29,1.95,1.95,1.96
40.54,-3.31,-5.25,-3.30,-5.24,5.24,5.27,6.14,1.93,1.93,1.94
40.94,-3.24,-5.15,-3.24,-5.15,5.16,5.19,5.98,1.92,1.92,1.92
41.35,-3.18,-5.06,-3.17,-5.07,5.08,5.11,5.83,1.90,1.90,1.89
41.76,-3.11,-4.99,-3.11,-4.99,5.00,5.04,5.69,1.89,1.89,1.89
42.18,-3.06,-4.92,-3.05,-4.92,4.92,4.96,5.54,1.86,1.87,1.87
42.60,-3.00,-4.84,-2.99,-4.85,4.84,4.89,5.41,1.85,1.85,1.85
43.03,-2.94,-4.77,-2.94,-4.77,4.76,4.81,5.27,1.83,1.83,1.84
43.46,-2.88,-4.68,-2.88,-4.69,4.69,4.74,5.14,1.81,1.81,1.81
43.90,-2.82,-4.61,-2.82,-4.61,4.61,4.66,5.01,1.79,1.79,1.79
44.33,-2.77,-4.53,-2.77,-4.53,4.53,4.59,4.88,1.77,1.77,1.77
44.78,-2.72,-4.46,-2.71,-4.46,4.46,4.51,4.76,1.74,1.74,1.75
45.23,-2.66,-4.38,-2.66,-4.38,4.38,4.44,4.64,1.73,1.72,1.72
45.68,-2.61,-4.30,-2.60,-4.31,4.31,4.36,4.53,1.70,1.71,1.70
46.13,-2.55,-4.23,-2.55,-4.24,4.24,4.29,4.41,1.69,1.69,1.69
46.60,-2.50,-4.17,-2.49,-4.17,4.17,4.21,4.30,1.67,1.68,1.68
47.06,-2.44,-4.09,-2.44,-4.10,4.10,4.14,4.20,1.66,1.66,1.66
47.53,-2.39,-4.02,-2.39,-4.03,4.03,4.07,4.09,1.64,1.64,1.64
48.01,-2.34,-3.96,-2.34,-3.96,3.96,4.00,3.99,1.62,1.62,1.63
48.49,-2.30,-3.89,-2.29,-3.89,3.88,3.92,3.90,1.59,1.59,1.60
48.97,-2.25,-3.81,-2.25,-3.81,3.81,3.85,3.80,1.57,1.57,1.57
49.46,-2.20,-3.73,-2.20,-3.74,3.74,3.78,3.71,1.54,1.54,1.54
49.96,-2.15,-3.65,-2.15,-3.66,3.67,3.71,3.62,1.52,1.52,1.51
50.46,-2.10,-3.59,-2.10,-3.59,3.60,3.64,3.54,1.50,1.50,1.50
50.96,-2.05,-3.52,-2.05,-3.52,3.52,3.57,3.45,1.48,1.48,1.48
51.47,-2.01,-3.45,-2.00,-3.46,3.45,3.50,3.37,1.45,1.45,1.45
51.99,-1.96,-3.38,-1.96,-3.39,3.39,3.43,3.29,1.43,1.43,1.43
52.51,-1.92,-3.32,-1.91,-3.32,3.32,3.36,3.21,1.40,1.40,1.41
53.03,-1.87,-3.25,-1.87,-3.25,3.25,3.29,3.14,1.39,1.39,1.39
53.56,-1.83,-3.18,-1.82,-3.19,3.19,3.22,3.06,1.36,1.36,1.36
54.10,-1.78,-3.11,-1.78,-3.12,3.12,3.15,2.99,1.34,1.34,1.34
54.64,-1.75,-3.05,-1.74,-3.05,3.05,3.08,2.92,1.30,1.31,1.31
55.18,-1.70,-2.98,-1.70,-2.99,2.98,3.01,2.85,1.29,1.28,1.29
55.74,-1.66,-2.91,-1.66,-2.92,2.92,2.95,2.78,1.26,1.26,1.26
56.29,-1.62,-2.85,-1.61,-2.85,2.85,2.88,2.71,1.23,1.24,1.24
56.86,-1.57,-2.77,-1.57,-2.78,2.78,2.81,2.65,1.22,1.21,1.21
57.42,-1.53,-2.71,-1.53,-2.72,2.72,2.75,2.58,1.19,1.19,1.19
58.00,-1.49,-2.65,-1.49,-2.65,2.66,2.68,2.52,1.17,1.17,1.17
58.58,-1.46,-2.59,-1.45,-2.59,2.59,2.62,2.45,1.14,1.14,1.14
59.16,-1.41,-2.52,-1.41,-2.53,2.53,2.55,2.39,1.12,1.12,1.12
59.76,-1.38,-2.47,-1.37,-2.47,2.47,2.49,2.33,1.09,1.09,1.10
60.35,-1.34,-2.40,-1.34,-2.41,2.40,2.42,2.27,1.07,1.06,1.07
60.96,-1.31,-2.35,-1.30,-2.35,2.34,2.36,2.20,1.03,1.03,1.05
61.57,-1.27,-2.27,-1.26,-2.28,2.27,2.30,2.14,1.01,1.01,1.01
62.18,-1.23,-2.20,-1.23,-2.21,2.21,2.23,2.08,0.98,0.98,0.98
62.80,-1.19,-2.13,-1.19,-2.14,2.14,2.17,2.02,0.96,0.95,0.95
63.43,-1.16,-2.07,-1.16,-2.07,2.08,2.11,1.96,0.92,0.93,0.92
64.07,-1.13,-2.01,-1.12,-2.01,2.02,2.04,1.90,0.89,0.90,0.89
64.71,-1.09,-1.95,-1.09,-1.96,1.96,1.98,1.83,0.87,0.87,0.87
65.35,-1.06,-1.90,-1.06,-1.90,1.90,1.92,1.77,0.85,0.84,0.85
66.01,-1.03,-1.85,-1.02,-1.85,1.85,1.86,1.71,0.82,0.82,0.83
66.67,-1.00,-1.79,-0.99,-1.79,1.79,1.80,1.65,0.80,0.80,0.80
67.33,-0.96,-1.73,-0.96,-1.74,1.74,1.74,1.58,0.78,0.78,0.78
68.01,-0.94,-1.68,-0.93,-1.68,1.68,1.68,1.52,0.75,0.75,0.75
68.69,-0.91,-1.63,-0.90,-1.63,1.63,1.62,1.46,0.72,0.73,0.73
69.37,-0.88,-1.57,-0.88,-1.58,1.58,1.56,1.40,0.70,0.70,0.70
70.07,-0.85,-1.51,-0.85,-1.52,1.52,1.50,1.33,0.68,0.67,0.67
70.77,-0.83,-1.47,-0.82,-1.47,1.47,1.44,1.27,0.64,0.64,0.65
71.48,-0.80,-1.41,-0.80,-1.42,1.41,1.38,1.21,0.62,0.61,0.62
72.19,-0.78,-1.36,-0.77,-1.36,1.36,1.32,1.14,0.58,0.58,0.59
72.91,-0.75,-1.29,-0.75,-1.30,1.30,1.27,1.08,0.55,0.55,0.55
73.64,-0.73,-1.24,-0.73,-1.24,1.24,1.21,1.02,0.52,0.52,0.52
74.38,-0.71,-1.19,-0.70,-1.18,1.18,1.15,0.95,0.48,0.48,0.49
75.12,-0.68,-1.11,-0.68,-1.13,1.13,1.09,0.89,0.45,0.45,0.44
75.87,-0.66,-1.06,-0.66,-1.07,1.07,1.04,0.83,0.41,0.41,0.41
76.63,-0.64,-1.01,-0.64,-1.01,1.01,0.98,0.76,0.37,0.37,0.38
77.40,-0.62,-0.95,-0.62,-0.95,0.95,0.92,0.70,0.33,0.34,0.34
78.17,-0.60,-0.87,-0.60,-0.89,0.89,0.86,0.64,0.30,0.30,0.28
78.95,-0.58,-0.83,-0.58,-0.83,0.83,0.81,0.57,0.26,0.25,0.26
79.74,-0.57,-0.78,-0.56,-0.78,0.77,0.75,0.51,0.21,0.21,0.22
80.54,-0.56,-0.72,-0.55,-0.72,0.71,0.69,0.44,0.16,0.16,0.17
81.35,-0.53,-0.65,-0.53,-0.66,0.65,0.64,0.38,0.13,0.12,0.13
82.16,-0.52,-0.59,-0.51,-0.59,0.60,0.58,0.32,0.08,0.08,0.08
82.98,-0.50,-0.53,-0.50,-0.53,0.54,0.52,0.25,0.04,0.04,0.04
83.81,-0.49,-0.46,-0.49,-0.47,0.48,0.47,0.19,-0.01,-0.01,-0.02
84.65,-0.48,-0.41,-0.48,-0.41,0.42,0.41,0.12,-0.06,-0.06,-0.06
85.50,-0.47,-0.36,-0.47,-0.36,0.36,0.35,0.06,-0.11,-0.11,-0.10
86.35,-0.46,-0.30,-0.46,-0.30,0.30,0.30,-0.01,-0.16,-0.16,-0.15
87.22,-0.45,-0.24,-0.45,-0.24,0.24,0.24,-0.07,-0.21,-0.21,-0.20
88.09,-0.44,-0.17,-0.44,-0.18,0.18,0.19,-0.14,-0.25,-0.25,-0.26
88.97,-0.44,-0.13,-0.43,-0.13,0.13,0.13,-0.20,-0.31,-0.30,-0.30
89.86,-0.43,-0.07,-0.43,-0.07,0.07,0.07,-0.27,-0.35,-0.35,-0.35
90.76,-0.43,-0.01,-0.43,-0.02,0.02,0.02,-0.34,-0.41,-0.41,-0.41
91.66,-0.43,0.04,-0.43,0.04,-0.03,-0.04,-0.40,-0.46,-0.46,-0.46
92.58,-0.43,0.10,-0.43,0.09,-0.09,-0.10,-0.47,-0.51,-0.51,-0.52
93.51,-0.44,0.13,-0.43,0.13,-0.14,-0.15,-0.54,-0.57,-0.57,-0.56
94.44,-0.43,0.19,-0.43,0.19,-0.19,-0.21,-0.61,-0.62,-0.62,-0.61
95.39,-0.44,0.24,-0.43,0.24,-0.24,-0.27,-0.68,-0.68,-0.68,-0.67
96.34,-0.44,0.31,-0.44,0.30,-0.30,-0.32,-0.74,-0.73,-0.73,-0.74
97.30,-0.45,0.35,-0.44,0.35,-0.35,-0.38,-0.81,-0.80,-0.79,-0.79
98.28,-0.45,0.41,-0.45,0.41,-0.41,-0.44,-0.88,-0.85,-0.85,-0.85
99.26,-0.45,0.48,-0.45,0.46,-0.46,-0.49,-0.95,-0.91,-0.91,-0.92
100.25,-0.46,0.52,-0.45,0.52,-0.52,-0.55,-1.02,-0.98,-0.98,-0.97
101.25,-0.46,0.58,-0.46,0.58,-0.58,-0.61,-1.09,-1.04,-1.04,-1.03
102.27,-0.46,0.65,-0.45,0.65,-0.65,-0.67,-1.15,-1.10,-1.10,-1.10
103.29,-0.45,0.73,-0.45,0.71,-0.71,-0.72,-1.22,-1.16,-1.16,-1.17
104.32,-0.45,0.78,-0.44,0.78,-0.78,-0.78,-1.29,-1.23,-1.23,-1.22
105.37,-0.44,0.85,-0.44,0.85,-0.85,-0.84,-1.36,-1.29,-1.29,-1.28
106.42,-0.44,0.92,-0.43,0.92,-0.92,-0.90,-1.42,-1.36,-1.36,-1.35
107.48,-0.43,1.00,-0.42,1.00,-0.99,-0.96,-1.49,-1.42,-1.42,-1.42
108.56,-0.42,1.08,-0.42,1.07,-1.07,-1.01,-1.55,-1.48,-1.48,-1.49
109.64,-0.41,1.15,-0.41,1.14,-1.14,-1.07,-1.61,-1.54,-1.55,-1.55
110.74,-0.41,1.21,-0.40,1.21,-1.21,-1.13,-1.67,-1.61,-1.61,-1.61
111.85,-0.41,1.28,-0.41,1.28,-1.28,-1.19,-1.73,-1.68,-1.68,-1.68
112.97,-0.41,1.36,-0.41,1.34,-1.35,-1.25,-1.79,-1.75,-1.76,-1.76
114.10,-0.42,1.41,-0.41,1.41,-1.41,-1.30,-1.84,-1.83,-1.82,-1.82
115.24,-0.42,1.48,-0.42,1.48,-1.48,-1.36,-1.90,-1.89,-1.89,-1.89
116.39,-0.42,1.55,-0.42,1.54,-1.54,-1.42,-1.95,-1.96,-1.96,-1.96
117.55,-0.43,1.61,-0.42,1.61,-1.60,-1.48,-1.99,-2.03,-2.03,-2.03
118.73,-0.43,1.67,-0.43,1.67,-1.66,-1.54,-2.04,-2.09,-2.09,-2.09
119.92,-0.43,1.73,-0.43,1.73,-1.73,-1.60,-2.08,-2.15,-2.16,-2.15
121.12,-0.43,1.79,-0.43,1.79,-1.79,-1.65,-2.11,-2.22,-2.22,-2.21
122.33,-0.43,1.86,-0.42,1.85,-1.85,-1.71,-2.15,-2.28,-2.28,-2.28
123.55,-0.42,1.92,-0.42,1.92,-1.92,-1.77,-2.18,-2.34,-2.34,-2.33
124.79,-0.41,1.99,-0.41,1.98,-1.99,-1.83,-2.21,-2.39,-2.39,-2.39
126.03,-0.40,2.05,-0.40,2.05,-2.06,-1.88,-2.23,-2.45,-2.45,-2.44
127.29,-0.39,2.12,-0.38,2.12,-2.12,-1.94,-2.25,-2.51,-2.51,-2.50
128.57,-0.38,2.20,-0.37,2.19,-2.19,-2.00,-2.27,-2.57,-2.56,-2.57
129.85,-0.36,2.27,-0.36,2.26,-2.25,-2.05,-2.28,-2.61,-2.62,-2.62
131.15,-0.36,2.32,-0.35,2.32,-2.32,-2.11,-2.30,-2.67,-2.67,-2.67
132.46,-0.35,2.39,-0.35,2.38,-2.37,-2.16,-2.30,-2.72,-2.72,-2.73
133.79,-0.35,2.43,-0.35,2.43,-2.43,-2.22,-2.31,-2.78,-2.78,-2.77
135.12,-0.35,2.49,-0.35,2.48,-2.48,-2.27,-2.31,-2.82,-2.82,-2.83
136.48,-0.35,2.52,-0.35,2.52,-2.52,-2.33,-2.31,-2.87,-2.87,-2.86
137.84,-0.35,2.56,-0.35,2.56,-2.56,-2.38,-2.31,-2.91,-2.91,-2.90
139.22,-0.35,2.61,-0.35,2.60,-2.60,-2.43,-2.31,-2.95,-2.95,-2.95
140.61,-0.35,2.65,-0.35,2.64,-2.64,-2.48,-2.30,-2.98,-2.98,-2.99
142.02,-0.35,2.67,-0.35,2.67,-2.67,-2.53,-2.30,-3.01,-3.02,-3.01
143.44,-0.36,2.69,-0.35,2.70,-2.70,-2.58,-2.29,-3.05,-3.05,-3.04
144.87,-0.36,2.73,-0.36,2.72,-2.72,-2.63,-2.28,-3.08,-3.08,-3.08
146.32,-0.36,2.76,-0.36,2.75,-2.75,-2.67,-2.28,-3.10,-3.11,-3.11
147.78,-0.38,2.76,-0.37,2.77,-2.77,-2.72,-2.27,-3.14,-3.14,-3.13
149.26,-0.38,2.79,-0.38,2.78,-2.79,-2.76,-2.26,-3.16,-3.17,-3.16
150.75,-0.40,2.81,-0.39,2.80,-2.80,-2.80,-2.25,-3.20,-3.20,-3.20
152.26,-0.41,2.82,-0.40,2.82,-2.82,-2.84,-2.24,-3.23,-3.22,-3.22
153.78,-0.41,2.85,-0.41,2.84,-2.84,-2.88,-2.23,-3.24,-3.25,-3.25
155.32,-0.43,2.85,-0.42,2.85,-2.85,-2.92,-2.23,-3.28,-3.28,-3.27
156.88,-0.44,2.87,-0.44,2.87,-2.87,-2.95,-2.22,-3.30,-3.30,-3.30
158.44,-0.46,2.88,-0.45,2.88,-2.88,-2.99,-2.22,-3.34,-3.33,-3.33
160.03,-0.47,2.90,-0.47,2.89,-2.89,-3.02,-2.21,-3.36,-3.36,-3.36
161.63,-0.49,2.91,-0.48,2.91,-2.91,-3.05,-2.21,-3.39,-3.39,-3.39
163.24,-0.50,2.93,-0.50,2.92,-2.92,-3.08,-2.21,-3.42,-3.41,-3.42
164.88,-0.51,2.94,-0.51,2.93,-2.93,-3.10,-2.21,-3.44,-3.44,-3.44
166.53,-0.53,2.94,-0.53,2.94,-2.94,-3.13,-2.21,-3.47,-3.47,-3.46
168.19,-0.55,2.96,-0.54,2.96,-2.95,-3.15,-2.21,-3.50,-3.50,-3.50
169.87,-0.57,2.97,-0.56,2.96,-2.97,-3.17,-2.22,-3.53,-3.53,-3.53
171.57,-0.58,2.99,-0.58,2.98,-2.98,-3.18,-2.23,-3.55,-3.56,-3.56
173.29,-0.61,2.98,-0.60,2.99,-2.99,-3.20,-2.23,-3.60,-3.59,-3.58
175.02,-0.62,3.01,-0.62,3.00,-3.00,-3.21,-2.25,-3.62,-3.62,-3.62
176.77,-0.65,3.02,-0.64,3.02,-3.02,-3.22,-2.26,-3.66,-3.66,-3.66
178.54,-0.67,3.04,-0.66,3.03,-3.03,-3.23,-2.27,-3.70,-3.70,-3.70
180.32,-0.69,3.05,-0.69,3.04,-3.05,-3.24,-2.29,-3.73,-3.73,-3.73
182.13,-0.71,3.06,-0.71,3.06,-3.06,-3.24,-2.31,-3.77,-3.77,-3.76
183.95,-0.74,3.07,-0.73,3.07,-3.07,-3.24,-2.33,-3.81,-3.80,-3.80
185.79,-0.76,3.09,-0.76,3.09,-3.08,-3.24,-2.35,-3.84,-3.84,-3.84
187.65,-0.78,3.11,-0.78,3.10,-3.09,-3.24,-2.37,-3.86,-3.87,-3.88
189.52,-0.82,3.10,-0.81,3.10,-3.09,-3.23,-2.40,-3.91,-3.90,-3.91
191.42,-0.84,3.10,-0.83,3.10,-3.10,-3.22,-2.42,-3.94,-3.93,-3.93
193.33,-0.86,3.10,-0.86,3.09,-3.10,-3.21,-2.45,-3.96,-3.96,-3.95
195.27,-0.89,3.10,-0.89,3.10,-3.10,-3.20,-2.48,-3.99,-3.99,-3.98
197.22,-0.92,3.10,-0.91,3.10,-3.10,-3.19,-2.51,-4.02,-4.02,-4.01
199.19,-0.95,3.12,-0.94,3.11,-3.10,-3.17,-2.54,-4.05,-4.04,-4.06
201.18,-0.97,3.11,-0.97,3.11,-3.10,-3.15,-2.57,-4.06,-4.07,-4.07
203.19,-1.00,3.10,-1.00,3.10,-3.09,-3.14,-2.61,-4.09,-4.09,-4.09
205.23,-1.03,3.09,-1.03,3.08,-3.09,-3.11,-2.64,-4.11,-4.11,-4.11
207.28,-1.06,3.07,-1.06,3.07,-3.08,-3.09,-2.68,-4.14,-4.13,-4.12
209.35,-1.09,3.07,-1.08,3.07,-3.07,-3.07,-2.71,-4.15,-4.15,-4.15
211.44,-1.11,3.07,-1.11,3.06,-3.06,-3.04,-2.75,-4.16,-4.17,-4.17
213.56,-1.14,3.06,-1.14,3.05,-3.05,-3.02,-2.78,-4.18,-4.18,-4.19
215.69,-1.17,3.03,-1.17,3.03,-3.04,-2.99,-2.81,-4.20,-4.20,-4.19
217.85,-1.20,3.01,-1.19,3.02,-3.02,-2.96,-2.85,-4.22,-4.21,-4.20
220.03,-1.22,3.02,-1.22,3.01,-3.01,-2.93,-2.88,-4.22,-4.23,-4.23
222.23,-1.24,3.01,-1.24,2.99,-2.99,-2.90,-2.91,-4.23,-4.23,-4.24
224.45,-1.27,2.97,-1.26,2.98,-2.97,-2.87,-2.94,-4.24,-4.23,-4.23
226.70,-1.29,2.96,-1.29,2.95,-2.95,-2.83,-2.96,-4.24,-4.24,-4.24
228.96,-1.31,2.94,-1.31,2.93,-2.93,-2.80,-2.99,-4.23,-4.24,-4.24
231.25,-1.34,2.90,-1.33,2.90,-2.90,-2.76,-3.01,-4.24,-4.24,-4.23
233.57,-1.36,2.87,-1.36,2.87,-2.88,-2.73,-3.03,-4.23,-4.23,-4.22
235.90,-1.38,2.85,-1.38,2.84,-2.85,-2.69,-3.04,-4.22,-4.22,-4.22
238.26,-1.40,2.83,-1.39,2.82,-2.82,-2.66,-3.06,-4.21,-4.21,-4.22
240.64,-1.42,2.79,-1.41,2.79,-2.78,-2.62,-3.06,-4.20,-4.20,-4.20
243.05,-1.43,2.76,-1.43,2.75,-2.75,-2.58,-3.07,-4.18,-4.19,-4.18
245.48,-1.46,2.71,-1.45,2.72,-2.72,-2.55,-3.07,-4.17,-4.17,-4.16
247.93,-1.47,2.69,-1.46,2.69,-2.68,-2.51,-3.06,-4.15,-4.15,-4.15
250.41,-1.48,2.67,-1.48,2.65,-2.65,-2.47,-3.06,-4.12,-4.13,-4.14
252.92,-1.50,2.61,-1.50,2.61,-2.61,-2.43,-3.04,-4.11,-4.11,-4.10
255.45,-1.52,2.57,-1.51,2.57,-2.58,-2.39,-3.03,-4.09,-4.09,-4.08
258.00,-1.53,2.54,-1.53,2.53,-2.54,-2.36,-3.00,-4.07,-4.07,-4.06
260.58,-1.54,2.51,-1.54,2.50,-2.50,-2.32,-2.98,-4.04,-4.04,-4.04
263.19,-1.56,2.47,-1.55,2.47,-2.47,-2.28,-2.95,-4.02,-4.02,-4.02
265.82,-1.56,2.45,-1.56,2.44,-2.43,-2.24,-2.92,-3.99,-3.99,-4.00
268.48,-1.58,2.40,-1.57,2.40,-2.40,-2.21,-2.88,-3.97,-3.97,-3.97
271.16,-1.59,2.36,-1.58,2.36,-2.36,-2.17,-2.84,-3.95,-3.95,-3.94
273.87,-1.60,2.33,-1.60,2.32,-2.33,-2.13,-2.80,-3.92,-3.92,-3.92
276.61,-1.61,2.29,-1.61,2.29,-2.29,-2.09,-2.75,-3.90,-3.90,-3.89
279.38,-1.62,2.26,-1.62,2.25,-2.25,-2.06,-2.70,-3.87,-3.87,-3.87
282.17,-1.64,2.22,-1.63,2.22,-2.22,-2.02,-2.65,-3.85,-3.85,-3.85
284.99,-1.65,2.18,-1.64,2.18,-2.18,-1.99,-2.60,-3.83,-3.82,-3.82
287.84,-1.66,2.15,-1.65,2.14,-2.14,-1.95,-2.55,-3.80,-3.80,-3.80
290.72,-1.66,2.11,-1.66,2.11,-2.11,-1.92,-2.49,-3.76,-3.77,-3.76
293.63,-1.68,2.07,-1.67,2.07,-2.07,-1.88,-2.43,-3.74,-3.74,-3.74
296.57,-1.69,2.03,-1.68,2.03,-2.03,-1.85,-2.37,-3.71,-3.71,-3.71
299.53,-1.70,1.99,-1.70,1.99,-1.98,-1.81,-2.32,-3.68,-3.68,-3.68
302.53,-1.71,1.96,-1.71,1.94,-1.94,-1.78,-2.26,-3.65,-3.65,-3.66
305.55,-1.73,1.89,-1.72,1.90,-1.90,-1.75,-2.20,-3.62,-3.62,-3.61
308.61,-1.73,1.86,-1.73,1.85,-1.85,-1.71,-2.14,-3.58,-3.58,-3.58
311.69,-1.75,1.80,-1.74,1.80,-1.80,-1.68,-2.08,-3.55,-3.55,-3.54
314.81,-1.76,1.76,-1.76,1.75,-1.76,-1.65,-2.02,-3.51,-3.51,-3.51
317.96,-1.78,1.71,-1.77,1.71,-1.71,-1.62,-1.96,-3.49,-3.48,-3.48
321.14,-1.79,1.67,-1.79,1.67,-1.67,-1.59,-1.90,-3.45,-3.45,-3.45
324.35,-1.80,1.64,-1.80,1.62,-1.62,-1.56,-1.85,-3.42,-3.42,-3.43
327.59,-1.82,1.58,-1.81,1.58,-1.58,-1.53,-1.79,-3.40,-3.40,-3.39
330.87,-1.83,1.54,-1.83,1.54,-1.54,-1.50,-1.73,-3.37,-3.37,-3.36
334.18,-1.85,1.50,-1.84,1.50,-1.50,-1.47,-1.68,-3.35,-3.34,-3.34
337.52,-1.85,1.48,-1.85,1.47,-1.46,-1.44,-1.63,-3.31,-3.31,-3.32
340.90,-1.87,1.43,-1.86,1.43,-1.43,-1.41,-1.57,-3.29,-3.29,-3.29
344.30,-1.88,1.40,-1.88,1.39,-1.39,-1.38,-1.52,-3.27,-3.27,-3.27
347.75,-1.90,1.35,-1.89,1.35,-1.35,-1.36,-1.47,-3.25,-3.25,-3.24
351.23,-1.91,1.32,-1.91,1.32,-1.32,-1.33,-1.42,-3.23,-3.23,-3.22
354.74,-1.92,1.30,-1.92,1.29,-1.29,-1.30,-1.37,-3.21,-3.21,-3.21
358.28,-1.94,1.26,-1.93,1.26,-1.26,-1.28,-1.32,-3.20,-3.19,-3.19
361.87,-1.94,1.24,-1.94,1.23,-1.23,-1.25,-1.28,-3.17,-3.17,-3.17
365.49,-1.95,1.20,-1.95,1.20,-1.20,-1.23,-1.23,-3.15,-3.15,-3.14
369.14,-1.96,1.18,-1.95,1.18,-1.18,-1.21,-1.19,-3.14,-3.13,-3.13
372.83,-1.97,1.16,-1.96,1.16,-1.15,-1.18,-1.14,-3.12,-3.11,-3.12
376.56,-1.96,1.15,-1.96,1.14,-1.13,-1.16,-1.10,-3.09,-3.09,-3.10
380.33,-1.97,1.11,-1.97,1.11,-1.11,-1.14,-1.06,-3.07,-3.07,-3.07
384.13,-1.97,1.09,-1.97,1.09,-1.08,-1.11,-1.02,-3.05,-3.05,-3.05
387.97,-1.98,1.06,-1.97,1.06,-1.06,-1.09,-0.98,-3.04,-3.04,-3.03
391.85,-1.97,1.05,-1.97,1.04,-1.04,-1.07,-0.94,-3.01,-3.01,-3.01
395.77,-1.97,1.02,-1.97,1.02,-1.02,-1.05,-0.90,-2.99,-2.99,-2.98
399.73,-1.96,1.01,-1.96,1.01,-1.00,-1.03,-0.87,-2.96,-2.96,-2.96
403.72,-1.97,0.99,-1.96,0.99,-0.98,-1.01,-0.83,-2.95,-2.95,-2.95
407.76,-1.96,0.98,-1.96,0.97,-0.97,-0.99,-0.80,-2.92,-2.93,-2.93
411.84,-1.96,0.95,-1.95,0.95,-0.95,-0.97,-0.76,-2.91,-2.91,-2.90
415.96,-1.95,0.94,-1.95,0.94,-0.94,-0.95,-0.73,-2.88,-2.88,-2.88
420.12,-1.94,0.93,-1.94,0.92,-0.92,-0.93,-0.70,-2.86,-2.86,-2.86
424.32,-1.93,0.91,-1.93,0.91,-0.91,-0.91,-0.67,-2.84,-2.84,-2.83
428.56,-1.92,0.90,-1.92,0.90,-0.90,-0.89,-0.64,-2.81,-2.81,-2.81
432.85,-1.91,0.89,-1.90,0.88,-0.88,-0.87,-0.61,-2.79,-2.79,-2.79
437.18,-1.90,0.87,-1.89,0.87,-0.87,-0.85,-0.59,-2.77,-2.76,-2.76
441.55,-1.88,0.86,-1.88,0.86,-0.86,-0.84,-0.56,-2.73,-2.74,-2.73
445.96,-1.88,0.84,-1.87,0.84,-0.84,-0.82,-0.54,-2.72,-2.71,-2.71
450.42,-1.87,0.84,-1.86,0.83,-0.82,-0.80,-0.51,-2.69,-2.69,-2.70
454.93,-1.86,0.81,-1.86,0.81,-0.81,-0.79,-0.49,-2.66,-2.66,-2.66
459.48,-1.85,0.80,-1.85,0.79,-0.79,-0.77,-0.47,-2.63,-2.64,-2.64
