frequency,raw,error,smoothed,error_smoothed,equalization,parametric_eq,fixed_band_eq,equalized_raw,equalized_smoothed,target
20.00,-5.65,-9.37,-5.62,-9.37,9.37,8.61,2.16,3.72,3.74,3.72
20.20,-5.55,-9.27,-5.54,-9.27,9.27,8.64,2.22,3.72,3.73,3.72
20.40,-5.45,-9.17,-5.45,-9.17,9.17,8.67,2.28,3.72,3.73,3.72
20.61,-5.34,-9.06,-5.36,-9.07,9.07,8.69,2.35,3.73,3.72,3.72
20.81,-5.24,-8.96,-5.26,-8.97,8.97,8.69,2.42,3.73,3.71,3.72
21.02,-5.15,-8.87,-5.17,-8.86,8.86,8.68,2.49,3.71,3.70,3.72
21.23,-5.05,-8.75,-5.07,-8.76,8.76,8.66,2.57,3.71,3.68,3.70
21.44,-4.96,-8.65,-4.97,-8.64,8.64,8.63,2.64,3.69,3.67,3.69
21.66,-4.87,-8.54,-4.87,-8.53,8.53,8.59,2.72,3.66,3.66,3.67
21.87,-4.78,-8.43,-4.77,-8.41,8.41,8.53,2.80,3.64,3.64,3.65
22.09,-4.68,-8.32,-4.67,-8.29,8.29,8.47,2.88,3.62,3.63,3.64
22.31,-4.58,-8.19,-4.56,-8.17,8.17,8.39,2.97,3.59,3.61,3.61
22.54,-4.48,-8.07,-4.46,-8.05,8.05,8.30,3.05,3.56,3.59,3.59
22.76,-4.36,-7.93,-4.35,-7.92,7.92,8.21,3.14,3.56,3.56,3.57
22.99,-4.25,-7.79,-4.24,-7.78,7.78,8.10,3.23,3.53,3.54,3.54
23.22,-4.13,-7.64,-4.13,-7.65,7.65,7.99,3.33,3.52,3.52,3.51
23.45,-4.01,-7.49,-4.02,-7.51,7.51,7.87,3.42,3.50,3.50,3.48
23.69,-3.89,-7.36,-3.90,-7.38,7.38,7.75,3.52,3.48,3.48,3.47
23.92,-3.77,-7.22,-3.78,-7.24,7.24,7.62,3.62,3.47,3.46,3.45
24.16,-3.65,-7.09,-3.66,-7.10,7.10,7.48,3.72,3.45,3.44,3.44
24.40,-3.54,-6.96,-3.54,-6.95,6.95,7.34,3.82,3.42,3.42,3.42
24.65,-3.42,-6.82,-3.42,-6.81,6.81,7.20,3.92,3.39,3.40,3.40
24.89,-3.30,-6.68,-3.29,-6.67,6.67,7.05,4.02,3.37,3.38,3.38
25.14,-3.18,-6.55,-3.17,-6.53,6.53,6.90,4.13,3.35,3.36,3.37
25.39,-3.05,-6.40,-3.05,-6.39,6.39,6.75,4.23,3.34,3.35,3.35
25.65,-2.93,-6.27,-2.92,-6.25,6.25,6.60,4.33,3.32,3.33,3.34
25.91,-2.80,-6.11,-2.80,-6.11,6.11,6.45,4.44,3.31,3.32,3.31
26.16,-2.67,-5.97,-2.67,-5.97,5.97,6.30,4.54,3.31,3.30,3.30
26.43,-2.55,-5.84,-2.55,-5.83,5.83,6.14,4.64,3.28,3.28,3.29
26.69,-2.42,-5.68,-2.43,-5.69,5.69,5.99,4.74,3.27,3.27,3.26
26.96,-2.30,-5.55,-2.30,-5.56,5.56,5.84,4.84,3.25,3.25,3.25
27.23,-2.17,-5.41,-2.18,-5.42,5.42,5.69,4.93,3.25,3.24,3.24
27.50,-2.06,-5.29,-2.06,-5.28,5.28,5.53,5.02,3.22,3.22,3.23
27.77,-1.94,-5.15,-1.94,-5.15,5.15,5.38,5.11,3.21,3.21,3.21
28.05,-1.82,-5.02,-1.82,-5.02,5.02,5.24,5.19,3.20,3.19,3.20
28.33,-1.71,-4.89,-1.71,-4.89,4.89,5.09,5.26,3.18,3.18,3.18
28.62,-1.59,-4.76,-1.59,-4.76,4.76,4.94,5.33,3.17,3.17,3.17
28.90,-1.48,-4.63,-1.48,-4.64,4.64,4.80,5.39,3.16,3.16,3.15
29.19,-1.37,-4.50,-1.37,-4.51,4.51,4.66,5.44,3.14,3.14,3.13
29.48,-1.26,-4.39,-1.26,-4.39,4.39,4.52,5.49,3.13,3.13,3.13
29.78,-1.15,-4.27,-1.16,-4.27,4.27,4.38,5.52,3.12,3.12,3.12
30.08,-1.05,-4.16,-1.05,-4.16,4.16,4.24,5.55,3.10,3.10,3.11
30.38,-0.96,-4.05,-0.95,-4.04,4.04,4.11,5.56,3.08,3.09,3.09
30.68,-0.85,-3.93,-0.85,-3.92,3.92,3.98,5.56,3.07,3.07,3.08
30.99,-0.75,-3.80,-0.76,-3.81,3.81,3.85,5.55,3.06,3.05,3.05
31.30,-0.67,-3.71,-0.66,-3.70,3.70,3.72,5.53,3.03,3.04,3.04
31.61,-0.57,-3.60,-0.57,-3.59,3.59,3.59,5.50,3.02,3.02,3.03
31.93,-0.48,-3.49,-0.48,-3.48,3.48,3.47,5.46,3.00,3.00,3.01
32.24,-0.39,-3.37,-0.39,-3.38,3.38,3.34,5.40,2.99,2.98,2.98
32.57,-0.30,-3.26,-0.31,-3.27,3.27,3.22,5.34,2.97,2.96,2.96
32.89,-0.22,-3.17,-0.22,-3.17,3.17,3.10,5.26,2.95,2.94,2.95
33.22,-0.13,-3.05,-0.14,-3.06,3.06,2.99,5.17,2.93,2.92,2.92
33.55,-0.05,-2.96,-0.06,-2.96,2.96,2.87,5.08,2.91,2.90,2.91
33.89,0.02,-2.86,0.03,-2.86,2.86,2.76,4.97,2.88,2.88,2.88
34.23,0.10,-2.76,0.11,-2.75,2.75,2.65,4.86,2.85,2.86,2.86
34.57,0.18,-2.66,0.19,-2.65,2.65,2.54,4.74,2.83,2.84,2.84
34.92,0.26,-2.56,0.27,-2.55,2.55,2.43,4.62,2.81,2.82,2.82
35.27,0.34,-2.46,0.35,-2.45,2.45,2.32,4.49,2.79,2.80,2.80
35.62,0.42,-2.36,0.43,-2.35,2.35,2.22,4.35,2.77,2.78,2.78
35.97,0.51,-2.25,0.51,-2.25,2.25,2.12,4.21,2.76,2.76,2.76
36.33,0.60,-2.14,0.59,-2.15,2.15,2.02,4.06,2.75,2.74,2.74
36.70,0.68,-2.04,0.67,-2.05,2.05,1.92,3.91,2.73,2.72,2.72
37.06,0.76,-1.94,0.75,-1.95,1.95,1.82,3.76,2.71,2.70,2.70
37.43,0.84,-1.84,0.82,-1.85,1.85,1.72,3.60,2.69,2.67,2.68
37.81,0.91,-1.75,0.90,-1.75,1.75,1.62,3.45,2.66,2.65,2.66
38.19,0.98,-1.65,0.98,-1.66,1.66,1.53,3.29,2.64,2.63,2.63
38.57,1.05,-1.57,1.05,-1.56,1.56,1.44,3.13,2.61,2.61,2.62
38.95,1.12,-1.47,1.12,-1.47,1.47,1.35,2.97,2.59,2.59,2.59
39.34,1.19,-1.38,1.20,-1.38,1.38,1.25,2.81,2.57,2.57,2.57
39.74,1.26,-1.29,1.27,-1.29,1.29,1.17,2.65,2.55,2.56,2.55
40.14,1.34,-1.20,1.34,-1.19,1.19,1.08,2.49,2.53,2.54,2.54
40.54,1.41,-1.11,1.42,-1.10,1.10,0.99,2.33,2.51,2.52,2.52
40.94,1.49,-1.01,1.49,-1.01,1.01,0.90,2.17,2.50,2.50,2.50
41.35,1.57,-0.90,1.57,-0.91,0.91,0.82,2.01,2.48,2.48,2.47
41.76,1.65,-0.82,1.65,-0.81,0.81,0.73,1.85,2.46,2.46,2.47
42.18,1.73,-0.72,1.73,-0.71,0.71,0.65,1.69,2.44,2.44,2.45
42.60,1.81,-0.62,1.82,-0.61,0.61,0.57,1.54,2.42,2.42,2.43
43.03,1.90,-0.52,1.90,-0.50,0.50,0.49,1.38,2.40,2.40,2.42
43.46,1.99,-0.40,1.99,-0.40,0.40,0.41,1.22,2.39,2.39,2.39
43.90,2.08,-0.29,2.08,-0.29,0.29,0.33,1.07,2.37,2.37,2.37
44.33,2.17,-0.18,2.16,-0.19,0.19,0.25,0.91,2.36,2.35,2.35
44.78,2.25,-0.08,2.25,-0.08,0.08,0.17,0.76,2.33,2.33,2.33
45.23,2.34,0.04,2.34,0.03,-0.03,0.09,0.60,2.31,2.31,2.30
45.68,2.42,0.14,2.43,0.14,-0.14,0.02,0.45,2.28,2.29,2.28
46.13,2.52,0.25,2.52,0.25,-0.25,-0.06,0.30,2.28,2.27,2.27
46.60,2.61,0.35,2.61,0.36,-0.36,-0.14,0.15,2.25,2.25,2.26
47.06,2.70,0.46,2.70,0.47,-0.47,-0.21,-0.00,2.23,2.23,2.24
47.53,2.79,0.57,2.79,0.58,-0.58,-0.29,-0.15,2.21,2.21,2.22
48.01,2.88,0.67,2.88,0.69,-0.69,-0.36,-0.30,2.19,2.19,2.21
48.49,2.96,0.78,2.96,0.79,-0.79,-0.43,-0.45,2.17,2.17,2.18
48.97,3.05,0.90,3.05,0.90,-0.90,-0.51,-0.60,2.15,2.15,2.15
49.46,3.13,1.01,3.14,1.01,-1.01,-0.58,-0.75,2.12,2.13,2.12
49.96,3.22,1.13,3.22,1.12,-1.12,-0.65,-0.89,2.10,2.10,2.09
50.46,3.31,1.23,3.30,1.22,-1.22,-0.72,-1.04,2.09,2.08,2.08
50.96,3.39,1.33,3.39,1.33,-1.33,-0.79,-1.18,2.06,2.06,2.06
51.47,3.47,1.44,3.47,1.43,-1.43,-0.86,-1.32,2.04,2.03,2.03
51.99,3.54,1.53,3.54,1.53,-1.53,-0.93,-1.46,2.01,2.01,2.01
52.51,3.62,1.63,3.62,1.63,-1.63,-1.00,-1.60,1.98,1.99,1.99
53.03,3.69,1.72,3.69,1.73,-1.73,-1.07,-1.74,1.96,1.96,1.97
53.56,3.77,1.83,3.77,1.83,-1.83,-1.14,-1.87,1.94,1.94,1.94
54.10,3.85,1.93,3.84,1.92,-1.92,-1.21,-2.01,1.93,1.91,1.92
54.64,3.90,2.01,3.91,2.02,-2.02,-1.28,-2.13,1.88,1.89,1.89
55.18,3.97,2.10,3.97,2.10,-2.10,-1.35,-2.26,1.87,1.87,1.87
55.74,4.04,2.20,4.04,2.19,-2.19,-1.42,-2.38,1.85,1.84,1.84
56.29,4.09,2.27,4.10,2.28,-2.28,-1.49,-2.50,1.81,1.82,1.82
56.86,4.16,2.37,4.16,2.36,-2.36,-1.56,-2.62,1.80,1.80,1.79
57.42,4.22,2.45,4.21,2.44,-2.44,-1.62,-2.73,1.78,1.77,1.77
58.00,4.27,2.52,4.27,2.52,-2.52,-1.69,-2.84,1.75,1.75,1.75
58.58,4.32,2.60,4.32,2.60,-2.60,-1.76,-2.94,1.72,1.72,1.72
59.16,4.37,2.67,4.37,2.68,-2.68,-1.83,-3.03,1.69,1.69,1.70
59.76,4.42,2.74,4.42,2.75,-2.75,-1.90,-3.12,1.67,1.67,1.68
60.35,4.46,2.81,4.46,2.82,-2.82,-1.96,-3.21,1.64,1.64,1.65
60.96,4.50,2.87,4.51,2.89,-2.89,-2.03,-3.29,1.61,1.62,1.63
61.57,4.55,2.96,4.55,2.96,-2.96,-2.10,-3.36,1.59,1.59,1.59
62.18,4.59,3.03,4.59,3.02,-3.02,-2.16,-3.43,1.57,1.56,1.56
62.80,4.63,3.10,4.62,3.09,-3.09,-2.23,-3.49,1.54,1.54,1.53
63.43,4.66,3.16,4.65,3.15,-3.15,-2.30,-3.55,1.51,1.51,1.50
64.07,4.68,3.21,4.69,3.20,-3.20,-2.37,-3.60,1.48,1.48,1.47
64.71,4.72,3.27,4.72,3.26,-3.26,-2.43,-3.64,1.46,1.46,1.45
65.35,4.74,3.31,4.74,3.31,-3.31,-2.50,-3.68,1.43,1.43,1.43
66.01,4.76,3.35,4.77,3.36,-3.36,-2.57,-3.72,1.40,1.40,1.41
66.67,4.79,3.41,4.79,3.41,-3.41,-2.63,-3.75,1.38,1.38,1.38
67.33,4.82,3.46,4.82,3.46,-3.46,-2.70,-3.78,1.36,1.35,1.36
68.01,4.83,3.50,4.83,3.51,-3.51,-2.77,-3.80,1.32,1.33,1.33
68.69,4.85,3.54,4.85,3.55,-3.55,-2.83,-3.82,1.30,1.30,1.31
69.37,4.87,3.59,4.87,3.59,-3.59,-2.90,-3.83,1.28,1.28,1.28
70.07,4.89,3.64,4.89,3.63,-3.63,-2.97,-3.84,1.26,1.25,1.25
70.77,4.90,3.67,4.90,3.68,-3.68,-3.04,-3.85,1.22,1.22,1.23
71.48,4.92,3.72,4.91,3.72,-3.72,-3.10,-3.86,1.20,1.19,1.20
72.19,4.92,3.75,4.92,3.76,-3.76,-3.17,-3.87,1.16,1.16,1.17
72.91,4.93,3.80,4.93,3.80,-3.80,-3.24,-3.88,1.13,1.13,1.13
73.64,4.93,3.83,4.94,3.84,-3.84,-3.30,-3.88,1.09,1.10,1.10
74.38,4.94,3.87,4.94,3.88,-3.88,-3.37,-3.89,1.06,1.06,1.07
75.12,4.95,3.93,4.94,3.91,-3.91,-3.44,-3.89,1.04,1.03,1.02
75.87,4.95,3.96,4.95,3.95,-3.95,-3.50,-3.90,1.00,0.99,0.99
76.63,4.94,3.98,4.95,3.99,-3.99,-3.57,-3.91,0.95,0.95,0.96
77.40,4.94,4.02,4.95,4.03,-4.03,-3.64,-3.92,0.91,0.91,0.92
78.17,4.94,4.08,4.94,4.07,-4.07,-3.70,-3.93,0.87,0.87,0.86
78.95,4.94,4.10,4.94,4.11,-4.11,-3.77,-3.94,0.83,0.83,0.84
79.74,4.94,4.14,4.94,4.15,-4.15,-3.84,-3.95,0.79,0.79,0.80
80.54,4.93,4.18,4.93,4.19,-4.19,-3.90,-3.97,0.74,0.75,0.75
81.35,4.93,4.22,4.93,4.22,-4.22,-3.97,-3.99,0.71,0.71,0.71
82.16,4.93,4.27,4.92,4.26,-4.26,-4.04,-4.01,0.67,0.66,0.66
82.98,4.92,4.30,4.92,4.30,-4.30,-4.10,-4.03,0.62,0.62,0.62
83.81,4.91,4.35,4.91,4.34,-4.34,-4.17,-4.06,0.57,0.57,0.56
84.65,4.90,4.38,4.90,4.38,-4.38,-4.23,-4.09,0.52,0.52,0.52
85.50,4.89,4.41,4.89,4.42,-4.42,-4.30,-4.12,0.47,0.47,0.48
86.35,4.88,4.45,4.88,4.45,-4.45,-4.36,-4.15,0.43,0.43,0.43
87.22,4.86,4.48,4.87,4.49,-4.49,-4.43,-4.19,0.37,0.38,0.38
88.09,4.86,4.54,4.86,4.53,-4.53,-4.50,-4.23,0.33,0.33,0.32
88.97,4.84,4.56,4.84,4.57,-4.57,-4.56,-4.28,0.27,0.28,0.28
89.86,4.83,4.60,4.83,4.60,-4.60,-4.63,-4.33,0.23,0.23,0.23
90.76,4.81,4.64,4.81,4.64,-4.64,-4.69,-4.38,0.17,0.17,0.17
91.66,4.80,4.68,4.80,4.68,-4.68,-4.75,-4.44,0.12,0.12,0.12
92.58,4.78,4.72,4.78,4.72,-4.72,-4.82,-4.49,0.06,0.07,0.06
93.51,4.77,4.75,4.77,4.76,-4.76,-4.88,-4.56,0.01,0.01,0.02
94.44,4.76,4.79,4.75,4.80,-4.80,-4.95,-4.62,-0.04,-0.04,-0.03
95.39,4.74,4.83,4.74,4.84,-4.84,-5.01,-4.69,-0.10,-0.10,-0.09
96.34,4.72,4.88,4.72,4.88,-4.88,-5.07,-4.76,-0.16,-0.16,-0.16
97.30,4.70,4.91,4.71,4.92,-4.92,-5.13,-4.83,-0.22,-0.21,-0.21
98.28,4.69,4.96,4.69,4.96,-4.96,-5.20,-4.91,-0.27,-0.27,-0.27
99.26,4.67,5.01,4.67,5.00,-5.00,-5.26,-4.99,-0.33,-0.33,-0.34
100.25,4.65,5.04,4.65,5.05,-5.05,-5.32,-5.07,-0.40,-0.39,-0.39
101.25,4.64,5.09,4.64,5.09,-5.09,-5.38,-5.15,-0.45,-0.45,-0.45
102.27,4.62,5.14,4.62,5.13,-5.13,-5.44,-5.24,-0.51,-0.52,-0.52
103.29,4.60,5.19,4.60,5.18,-5.18,-5.50,-5.32,-0.58,-0.58,-0.59
104.32,4.58,5.22,4.58,5.22,-5.22,-5.56,-5.41,-0.64,-0.65,-0.64
105.37,4.56,5.26,4.56,5.27,-5.27,-5.61,-5.50,-0.71,-0.71,-0.70
106.42,4.54,5.31,4.54,5.32,-5.32,-5.67,-5.59,-0.78,-0.77,-0.77
107.48,4.52,5.36,4.52,5.36,-5.36,-5.73,-5.67,-0.84,-0.84,-0.84
108.56,4.50,5.41,4.51,5.41,-5.41,-5.78,-5.76,-0.91,-0.91,-0.91
109.64,4.49,5.46,4.49,5.46,-5.46,-5.84,-5.85,-0.97,-0.97,-0.97
110.74,4.47,5.50,4.47,5.51,-5.51,-5.89,-5.93,-1.04,-1.04,-1.03
111.85,4.45,5.55,4.45,5.56,-5.56,-5.94,-6.01,-1.11,-1.11,-1.10
112.97,4.43,5.61,4.43,5.61,-5.61,-6.00,-6.09,-1.18,-1.18,-1.18
114.10,4.41,5.65,4.41,5.66,-5.66,-6.05,-6.17,-1.25,-1.24,-1.24
115.24,4.40,5.71,4.39,5.70,-5.70,-6.10,-6.24,-1.30,-1.31,-1.31
116.39,4.38,5.76,4.37,5.75,-5.75,-6.15,-6.31,-1.37,-1.38,-1.38
117.55,4.35,5.80,4.36,5.80,-5.80,-6.19,-6.37,-1.45,-1.44,-1.45
118.73,4.34,5.85,4.34,5.84,-5.84,-6.24,-6.42,-1.50,-1.51,-1.51
119.92,4.32,5.89,4.32,5.89,-5.89,-6.29,-6.47,-1.57,-1.57,-1.57
121.12,4.30,5.93,4.30,5.94,-5.94,-6.33,-6.52,-1.64,-1.63,-1.63
122.33,4.28,5.98,4.29,5.98,-5.98,-6.37,-6.56,-1.70,-1.70,-1.70
123.55,4.27,6.02,4.27,6.02,-6.02,-6.42,-6.59,-1.75,-1.76,-1.75
124.79,4.25,6.06,4.25,6.07,-6.07,-6.46,-6.61,-1.82,-1.82,-1.81
126.03,4.23,6.09,4.23,6.11,-6.11,-6.49,-6.63,-1.88,-1.87,-1.86
127.29,4.21,6.13,4.22,6.15,-6.15,-6.53,-6.64,-1.94,-1.93,-1.92
128.57,4.20,6.19,4.20,6.18,-6.18,-6.57,-6.64,-1.98,-1.99,-1.99
129.85,4.19,6.23,4.18,6.22,-6.22,-6.60,-6.64,-2.03,-2.04,-2.04
131.15,4.17,6.26,4.16,6.26,-6.26,-6.64,-6.63,-2.09,-2.09,-2.09
132.46,4.15,6.30,4.15,6.29,-6.29,-6.67,-6.61,-2.14,-2.14,-2.15
133.79,4.13,6.32,4.13,6.32,-6.32,-6.70,-6.59,-2.19,-2.19,-2.19
135.12,4.11,6.36,4.11,6.35,-6.35,-6.73,-6.56,-2.24,-2.24,-2.25
136.48,4.09,6.37,4.09,6.38,-6.38,-6.75,-6.53,-2.29,-2.28,-2.28
137.84,4.07,6.39,4.08,6.40,-6.40,-6.78,-6.50,-2.33,-2.32,-2.32
139.22,4.06,6.43,4.06,6.42,-6.42,-6.80,-6.46,-2.36,-2.36,-2.37
140.61,4.04,6.45,4.04,6.44,-6.44,-6.82,-6.42,-2.40,-2.40,-2.41
142.02,4.02,6.45,4.02,6.46,-6.46,-6.84,-6.38,-2.44,-2.43,-2.43
143.44,4.00,6.46,4.00,6.47,-6.47,-6.86,-6.33,-2.47,-2.47,-2.46
144.87,3.98,6.48,3.98,6.48,-6.48,-6.87,-6.29,-2.50,-2.50,-2.50
146.32,3.97,6.50,3.96,6.49,-6.49,-6.89,-6.24,-2.52,-2.53,-2.53
147.78,3.94,6.49,3.94,6.50,-6.50,-6.90,-6.20,-2.56,-2.56,-2.55
149.26,3.93,6.51,3.92,6.51,-6.51,-6.91,-6.15,-2.58,-2.59,-2.58
150.75,3.90,6.52,3.90,6.52,-6.52,-6.92,-6.11,-2.62,-2.62,-2.62
152.26,3.88,6.52,3.88,6.52,-6.52,-6.93,-6.07,-2.64,-2.64,-2.64
153.78,3.86,6.53,3.86,6.53,-6.53,-6.93,-6.03,-2.67,-2.67,-2.67
155.32,3.84,6.53,3.84,6.54,-6.54,-6.93,-5.99,-2.70,-2.70,-2.69
156.88,3.82,6.54,3.82,6.54,-6.54,-6.93,-5.95,-2.72,-2.72,-2.72
158.44,3.79,6.54,3.79,6.55,-6.55,-6.93,-5.92,-2.76,-2.75,-2.75
160.03,3.77,6.55,3.77,6.55,-6.55,-6.93,-5.89,-2.78,-2.78,-2.78
161.63,3.74,6.55,3.75,6.55,-6.55,-6.93,-5.87,-2.81,-2.81,-2.81
163.24,3.72,6.56,3.72,6.56,-6.56,-6.92,-5.84,-2.84,-2.83,-2.84
164.88,3.70,6.56,3.70,6.56,-6.56,-6.91,-5.82,-2.86,-2.86,-2.86
166.53,3.67,6.55,3.67,6.56,-6.56,-6.90,-5.81,-2.89,-2.89,-2.88
168.19,3.65,6.57,3.64,6.56,-6.56,-6.89,-5.80,-2.91,-2.92,-2.92
169.87,3.62,6.57,3.62,6.57,-6.57,-6.87,-5.79,-2.95,-2.95,-2.95
171.57,3.59,6.57,3.59,6.57,-6.57,-6.86,-5.79,-2.98,-2.98,-2.98
173.29,3.56,6.56,3.56,6.58,-6.58,-6.84,-5.79,-3.02,-3.02,-3.00
175.02,3.53,6.57,3.53,6.58,-6.58,-6.82,-5.80,-3.05,-3.05,-3.04
176.77,3.50,6.58,3.50,6.58,-6.58,-6.80,-5.81,-3.08,-3.08,-3.08
178.54,3.47,6.59,3.47,6.59,-6.59,-6.78,-5.83,-3.12,-3.12,-3.12
180.32,3.44,6.59,3.44,6.59,-6.59,-6.75,-5.85,-3.15,-3.15,-3.15
182.13,3.41,6.59,3.41,6.59,-6.59,-6.73,-5.87,-3.18,-3.19,-3.18
183.95,3.37,6.59,3.38,6.60,-6.60,-6.70,-5.90,-3.23,-3.22,-3.22
185.79,3.35,6.61,3.35,6.60,-6.60,-6.67,-5.94,-3.25,-3.26,-3.26
187.65,3.32,6.62,3.31,6.60,-6.60,-6.64,-5.97,-3.28,-3.29,-3.30
189.52,3.27,6.60,3.28,6.60,-6.60,-6.61,-6.01,-3.33,-3.32,-3.33
191.42,3.25,6.60,3.25,6.60,-6.60,-6.57,-6.06,-3.35,-3.35,-3.35
193.33,3.22,6.59,3.22,6.60,-6.60,-6.54,-6.11,-3.38,-3.38,-3.37
195.27,3.19,6.59,3.19,6.60,-6.60,-6.50,-6.16,-3.41,-3.41,-3.40
197.22,3.15,6.58,3.15,6.59,-6.59,-6.46,-6.22,-3.44,-3.44,-3.43
199.19,3.12,6.60,3.12,6.58,-6.58,-6.43,-6.28,-3.46,-3.46,-3.48
201.18,3.09,6.58,3.08,6.57,-6.57,-6.39,-6.34,-3.48,-3.49,-3.49
203.19,3.05,6.56,3.05,6.56,-6.56,-6.34,-6.40,-3.51,-3.51,-3.51
205.23,3.02,6.55,3.01,6.55,-6.55,-6.30,-6.47,-3.53,-3.53,-3.53
207.28,2.99,6.53,2.98,6.53,-6.53,-6.26,-6.54,-3.54,-3.55,-3.54
209.35,2.95,6.52,2.95,6.52,-6.52,-6.21,-6.61,-3.57,-3.57,-3.57
211.44,2.92,6.51,2.91,6.50,-6.50,-6.17,-6.68,-3.58,-3.59,-3.59
213.56,2.88,6.49,2.88,6.49,-6.49,-6.12,-6.75,-3.61,-3.61,-3.61
215.69,2.85,6.46,2.85,6.47,-6.47,-6.07,-6.82,-3.62,-3.62,-3.61
217.85,2.82,6.44,2.82,6.45,-6.45,-6.03,-6.88,-3.63,-3.63,-3.62
220.03,2.79,6.44,2.80,6.44,-6.44,-5.98,-6.95,-3.65,-3.64,-3.65
222.23,2.77,6.43,2.78,6.42,-6.42,-5.93,-7.01,-3.65,-3.65,-3.66
224.45,2.75,6.40,2.76,6.41,-6.41,-5.88,-7.07,-3.66,-3.65,-3.65
226.70,2.73,6.39,2.75,6.41,-6.41,-5.83,-7.13,-3.68,-3.66,-3.66
228.96,2.73,6.39,2.74,6.40,-6.40,-5.77,-7.18,-3.67,-3.66,-3.66
231.25,2.72,6.37,2.74,6.40,-6.40,-5.72,-7.22,-3.68,-3.65,-3.65
233.57,2.73,6.37,2.74,6.39,-6.39,-5.67,-7.26,-3.66,-3.65,-3.64
235.90,2.73,6.37,2.75,6.39,-6.39,-5.61,-7.29,-3.66,-3.64,-3.64
238.26,2.75,6.39,2.75,6.38,-6.38,-5.56,-7.31,-3.63,-3.63,-3.64
240.64,2.76,6.38,2.76,6.38,-6.38,-5.50,-7.32,-3.62,-3.62,-3.62
243.05,2.78,6.38,2.76,6.37,-6.37,-5.45,-7.32,-3.59,-3.60,-3.60
245.48,2.78,6.36,2.77,6.35,-6.35,-5.39,-7.31,-3.57,-3.59,-3.58
247.93,2.79,6.36,2.77,6.34,-6.34,-5.34,-7.29,-3.55,-3.57,-3.57
250.41,2.79,6.35,2.76,6.31,-6.31,-5.28,-7.26,-3.52,-3.55,-3.56
252.92,2.78,6.30,2.76,6.29,-6.29,-5.22,-7.22,-3.51,-3.53,-3.52
255.45,2.75,6.25,2.74,6.25,-6.25,-5.17,-7.17,-3.50,-3.51,-3.50
258.00,2.74,6.22,2.73,6.22,-6.22,-5.11,-7.11,-3.48,-3.49,-3.48
260.58,2.72,6.18,2.71,6.17,-6.17,-5.05,-7.04,-3.45,-3.46,-3.46
263.19,2.68,6.12,2.69,6.13,-6.13,-4.99,-6.96,-3.45,-3.44,-3.44
265.82,2.66,6.08,2.66,6.08,-6.08,-4.93,-6.87,-3.42,-3.42,-3.42
268.48,2.63,6.02,2.64,6.03,-6.03,-4.88,-6.77,-3.40,-3.39,-3.39
271.16,2.60,5.96,2.61,5.97,-5.97,-4.82,-6.67,-3.37,-3.37,-3.36
273.87,2.57,5.91,2.58,5.92,-5.92,-4.76,-6.55,-3.35,-3.34,-3.34
276.61,2.54,5.85,2.55,5.87,-5.87,-4.70,-6.43,-3.33,-3.32,-3.31
279.38,2.52,5.81,2.52,5.82,-5.82,-4.64,-6.31,-3.30,-3.29,-3.29
282.17,2.49,5.76,2.50,5.77,-5.77,-4.58,-6.18,-3.28,-3.27,-3.27
284.99,2.47,5.71,2.47,5.72,-5.72,-4.52,-6.04,-3.25,-3.24,-3.24
287.84,2.44,5.66,2.45,5.66,-5.66,-4.46,-5.90,-3.22,-3.21,-3.22
290.72,2.43,5.61,2.43,5.61,-5.61,-4.41,-5.76,-3.18,-3.19,-3.18
293.63,2.40,5.56,2.40,5.56,-5.56,-4.35,-5.62,-3.16,-3.16,-3.16
296.57,2.38,5.51,2.38,5.50,-5.50,-4.29,-5.47,-3.12,-3.13,-3.13
299.53,2.36,5.46,2.35,5.45,-5.45,-4.23,-5.33,-3.09,-3.10,-3.10
302.53,2.33,5.41,2.33,5.39,-5.39,-4.17,-5.18,-3.06,-3.07,-3.08
305.55,2.30,5.33,2.30,5.34,-5.34,-4.11,-5.04,-3.04,-3.03,-3.03
308.61,2.28,5.28,2.28,5.28,-5.28,-4.05,-4.89,-3.00,-3.00,-3.00
311.69,2.25,5.21,2.25,5.22,-5.22,-3.99,-4.74,-2.97,-2.97,-2.96
314.81,2.22,5.15,2.21,5.15,-5.15,-3.93,-4.60,-2.93,-2.94,-2.93
317.96,2.18,5.08,2.18,5.09,-5.09,-3.87,-4.45,-2.91,-2.91,-2.90
321.14,2.15,5.02,2.15,5.02,-5.02,-3.82,-4.31,-2.87,-2.87,-2.87
324.35,2.11,4.96,2.11,4.95,-4.95,-3.76,-4.17,-2.84,-2.84,-2.85
327.59,2.07,4.88,2.07,4.89,-4.89,-3.70,-4.03,-2.82,-2.82,-2.81
330.87,2.03,4.81,2.03,4.82,-4.82,-3.64,-3.90,-2.79,-2.79,-2.78
334.18,1.98,4.74,1.99,4.75,-4.75,-3.58,-3.76,-2.77,-2.76,-2.76
337.52,1.94,4.68,1.94,4.68,-4.68,-3.52,-3.63,-2.74,-2.74,-2.74
340.90,1.89,4.60,1.89,4.61,-4.61,-3.46,-3.50,-2.72,-2.71,-2.71
344.30,1.84,4.53,1.84,4.53,-4.53,-3.40,-3.37,-2.69,-2.69,-2.69
347.75,1.79,4.45,1.79,4.46,-4.46,-3.35,-3.24,-2.67,-2.67,-2.66
351.23,1.75,4.39,1.73,4.38,-4.38,-3.29,-3.12,-2.63,-2.65,-2.64
354.74,1.69,4.32,1.68,4.31,-4.31,-3.23,-3.00,-2.62,-2.63,-2.63
358.28,1.62,4.23,1.62,4.23,-4.23,-3.17,-2.88,-2.61,-2.61,-2.61
361.87,1.56,4.15,1.56,4.15,-4.15,-3.11,-2.76,-2.59,-2.59,-2.59
365.49,1.49,4.05,1.50,4.07,-4.07,-3.06,-2.65,-2.58,-2.57,-2.56
369.14,1.43,3.98,1.44,3.99,-3.99,-3.00,-2.54,-2.56,-2.55,-2.55
372.83,1.36,3.90,1.38,3.91,-3.91,-2.94,-2.43,-2.55,-2.53,-2.54
376.56,1.30,3.82,1.31,3.82,-3.82,-2.88,-2.32,-2.52,-2.51,-2.52
380.33,1.23,3.72,1.25,3.74,-3.74,-2.82,-2.21,-2.51,-2.49,-2.49
384.13,1.18,3.65,1.18,3.65,-3.65,-2.76,-2.11,-2.47,-2.47,-2.47
387.97,1.11,3.56,1.12,3.57,-3.57,-2.70,-2.00,-2.46,-2.45,-2.45
391.85,1.04,3.47,1.05,3.48,-3.48,-2.65,-1.90,-2.44,-2.43,-2.43
395.77,0.97,3.37,0.97,3.38,-3.38,-2.59,-1.81,-2.41,-2.41,-2.40
399.73,0.91,3.29,0.90,3.29,-3.29,-2.53,-1.71,-2.38,-2.39,-2.38
403.72,0.83,3.20,0.82,3.18,-3.18,-2.47,-1.62,-2.35,-2.37,-2.37
407.76,0.74,3.09,0.73,3.08,-3.08,-2.41,-1.53,-2.34,-2.35,-2.35
411.84,0.65,2.97,0.64,2.96,-2.96,-2.35,-1.44,-2.31,-2.32,-2.32
415.96,0.56,2.86,0.54,2.84,-2.84,-2.29,-1.35,-2.28,-2.30,-2.30
420.12,0.46,2.74,0.43,2.71,-2.71,-2.23,-1.26,-2.25,-2.28,-2.28
424.32,0.34,2.59,0.32,2.58,-2.58,-2.17,-1.18,-2.24,-2.26,-2.25
428.56,0.22,2.45,0.20,2.44,-2.44,-2.11,-1.10,-2.22,-2.23,-2.23
432.85,0.09,2.30,0.08,2.29,-2.29,-2.05,-1.02,-2.20,-2.21,-2.21
437.18,-0.04,2.14,-0.04,2.14,-2.14,-1.98,-0.95,-2.18,-2.18,-2.18
441.55,-0.17,1.98,-0.17,1.99,-1.99,-1.92,-0.87,-2.16,-2.16,-2.15
445.96,-0.31,1.82,-0.29,1.84,-1.84,-1.86,-0.80,-2.15,-2.13,-2.13
450.42,-0.43,1.69,-0.42,1.69,-1.69,-1.79,-0.73,-2.12,-2.11,-2.12
454.93,-0.56,1.52,-0.54,1.54,-1.54,-1.73,-0.67,-2.10,-2.08,-2.08
459.48,-0.68,1.38,-0.67,1.39,-1.39,-1.66,-0.60,-2.07,-2.05,-2.06
464.07,-0.79,1.24,-0.79,1.24,-1.24,-1.59,-0.55,-2.03,-2.03,-2.03
468.71,-0.91,1.08,-0.90,1.10,-1.10,-1.53,-0.49,-2.01,-2.00,-1.99
473.40,-1.01,0.96,-1.01,0.96,-0.96,-1.46,-0.43,-1.97,-1.97,-1.97
478.13,-1.11,0.83,-1.12,0.83,-0.83,-1.39,-0.38,-1.94,-1.94,-1.94
482.91,-1.22,0.69,-1.21,0.70,-0.70,-1.32,-0.34,-1.92,-1.91,-1.91
487.74,-1.31,0.57,-1.30,0.58,-0.58,-1.24,-0.29,-1.89,-1.88,-1.88
492.62,-1.39,0.46,-1.39,0.47,-0.47,-1.17,-0.25,-1.86,-1.86,-1.85
497.55,-1.47,0.36,-1.47,0.36,-0.36,-1.09,-0.21,-1.83,-1.83,-1.83
