frequency,raw,error,smoothed,error_smoothed,equalization,parametric_eq,fixed_band_eq,equalized_raw,equalized_smoothed,target
20.00,-5.65,-10.50,-5.62,-10.50,10.50,9.73,2.82,4.85,4.88,4.85
20.20,-5.55,-10.40,-5.54,-10.41,10.41,9.76,2.90,4.86,4.87,4.85
20.40,-5.45,-10.30,-5.45,-10.31,10.31,9.77,2.98,4.86,4.86,4.85
20.61,-5.34,-10.19,-5.36,-10.21,10.21,9.77,3.07,4.86,4.85,4.85
20.81,-5.24,-10.09,-5.26,-10.10,10.10,9.76,3.15,4.86,4.84,4.85
21.02,-5.15,-10.00,-5.17,-10.00,10.00,9.74,3.24,4.85,4.83,4.85
21.23,-5.05,-9.88,-5.07,-9.89,9.89,9.70,3.33,4.84,4.82,4.83
21.44,-4.96,-9.78,-4.97,-9.78,9.78,9.65,3.43,4.82,4.80,4.82
21.66,-4.87,-9.67,-4.87,-9.66,9.66,9.60,3.52,4.79,4.79,4.80
21.87,-4.78,-9.56,-4.77,-9.54,9.54,9.53,3.62,4.77,4.77,4.78
22.09,-4.68,-9.45,-4.67,-9.43,9.43,9.45,3.72,4.75,4.76,4.77
22.31,-4.58,-9.32,-4.56,-9.30,9.30,9.36,3.83,4.72,4.74,4.74
22.54,-4.48,-9.20,-4.46,-9.18,9.18,9.26,3.93,4.69,4.72,4.72
22.76,-4.36,-9.06,-4.35,-9.05,9.05,9.16,4.04,4.69,4.70,4.70
22.99,-4.25,-8.92,-4.24,-8.91,8.91,9.05,4.16,4.66,4.67,4.67
23.22,-4.13,-8.77,-4.13,-8.78,8.78,8.93,4.27,4.65,4.65,4.64
23.45,-4.01,-8.62,-4.02,-8.64,8.64,8.80,4.39,4.64,4.63,4.61
23.69,-3.89,-8.50,-3.90,-8.51,8.51,8.67,4.51,4.62,4.61,4.60
23.92,-3.77,-8.35,-3.78,-8.37,8.37,8.53,4.63,4.60,4.59,4.58
24.16,-3.65,-8.22,-3.66,-8.23,8.23,8.39,4.75,4.58,4.57,4.57
24.40,-3.54,-8.09,-3.54,-8.09,8.09,8.25,4.88,4.55,4.55,4.55
24.65,-3.42,-7.95,-3.42,-7.94,7.94,8.10,5.01,4.52,4.53,4.53
24.89,-3.30,-7.81,-3.29,-7.80,7.80,7.95,5.14,4.51,4.51,4.51
25.14,-3.18,-7.68,-3.17,-7.66,7.66,7.80,5.27,4.48,4.49,4.50
25.39,-3.05,-7.53,-3.05,-7.52,7.52,7.64,5.40,4.48,4.48,4.48
25.65,-2.93,-7.40,-2.92,-7.38,7.38,7.49,5.53,4.45,4.46,4.47
25.91,-2.80,-7.24,-2.80,-7.24,7.24,7.34,5.66,4.44,4.45,4.44
26.16,-2.67,-7.09,-2.67,-7.10,7.10,7.18,5.79,4.43,4.43,4.42
26.43,-2.55,-6.96,-2.55,-6.96,6.96,7.03,5.92,4.41,4.41,4.41
26.69,-2.42,-6.81,-2.43,-6.82,6.82,6.87,6.05,4.40,4.40,4.39
26.96,-2.30,-6.68,-2.30,-6.68,6.68,6.72,6.18,4.38,4.38,4.38
27.23,-2.17,-6.54,-2.18,-6.54,6.54,6.56,6.30,4.37,4.37,4.37
27.50,-2.06,-6.42,-2.06,-6.41,6.41,6.41,6.42,4.35,4.35,4.36
27.77,-1.94,-6.27,-1.94,-6.28,6.28,6.26,6.53,4.34,4.34,4.34
28.05,-1.82,-6.14,-1.82,-6.14,6.14,6.11,6.63,4.32,4.32,4.32
28.33,-1.71,-6.01,-1.71,-6.01,6.01,5.96,6.73,4.30,4.31,4.30
28.62,-1.59,-5.88,-1.59,-5.89,5.89,5.82,6.83,4.29,4.29,4.29
28.90,-1.48,-5.76,-1.48,-5.76,5.76,5.67,6.91,4.28,4.28,4.28
29.19,-1.37,-5.63,-1.37,-5.64,5.64,5.53,6.98,4.27,4.27,4.26
29.48,-1.26,-5.51,-1.26,-5.52,5.52,5.39,7.04,4.26,4.25,4.26
29.78,-1.15,-5.39,-1.16,-5.40,5.40,5.25,7.09,4.25,4.24,4.24
30.08,-1.05,-5.28,-1.05,-5.28,5.28,5.11,7.12,4.23,4.22,4.23
30.38,-0.96,-5.17,-0.95,-5.16,5.16,4.98,7.15,4.20,4.21,4.21
30.68,-0.85,-5.05,-0.85,-5.05,5.05,4.84,7.16,4.20,4.19,4.20
30.99,-0.75,-4.93,-0.76,-4.93,4.93,4.71,7.15,4.18,4.18,4.18
31.30,-0.67,-4.83,-0.66,-4.82,4.82,4.58,7.13,4.15,4.16,4.16
31.61,-0.57,-4.72,-0.57,-4.71,4.71,4.45,7.09,4.14,4.14,4.15
31.93,-0.48,-4.61,-0.48,-4.60,4.60,4.33,7.04,4.12,4.12,4.13
32.24,-0.39,-4.48,-0.39,-4.50,4.50,4.20,6.98,4.11,4.10,4.09
32.57,-0.30,-4.38,-0.31,-4.39,4.39,4.08,6.90,4.09,4.08,4.08
32.89,-0.22,-4.29,-0.22,-4.29,4.29,3.96,6.81,4.07,4.06,4.07
33.22,-0.13,-4.17,-0.14,-4.18,4.18,3.84,6.71,4.05,4.04,4.04
33.55,-0.05,-4.07,-0.06,-4.08,4.08,3.72,6.60,4.03,4.02,4.02
33.89,0.02,-3.98,0.03,-3.97,3.97,3.61,6.47,3.99,4.00,4.00
34.23,0.10,-3.88,0.11,-3.87,3.87,3.50,6.34,3.97,3.98,3.98
34.57,0.18,-3.77,0.19,-3.77,3.77,3.38,6.20,3.95,3.96,3.95
34.92,0.26,-3.67,0.27,-3.66,3.66,3.27,6.05,3.92,3.93,3.93
35.27,0.34,-3.58,0.35,-3.56,3.56,3.17,5.89,3.90,3.91,3.92
35.62,0.42,-3.47,0.43,-3.46,3.46,3.06,5.73,3.88,3.89,3.89
35.97,0.51,-3.36,0.51,-3.36,3.36,2.95,5.56,3.87,3.87,3.87
36.33,0.60,-3.25,0.59,-3.26,3.26,2.85,5.39,3.86,3.85,3.85
36.70,0.68,-3.15,0.67,-3.16,3.16,2.75,5.22,3.84,3.83,3.83
37.06,0.76,-3.04,0.75,-3.06,3.06,2.65,5.04,3.82,3.81,3.80
37.43,0.84,-2.95,0.82,-2.96,2.96,2.55,4.86,3.80,3.78,3.79
37.81,0.91,-2.85,0.90,-2.86,2.86,2.45,4.68,3.77,3.76,3.76
38.19,0.98,-2.76,0.98,-2.77,2.77,2.36,4.50,3.75,3.74,3.74
38.57,1.05,-2.67,1.05,-2.67,2.67,2.26,4.32,3.72,3.72,3.72
38.95,1.12,-2.58,1.12,-2.58,2.58,2.17,4.14,3.70,3.70,3.70
39.34,1.19,-2.48,1.20,-2.48,2.48,2.08,3.96,3.67,3.68,3.67
39.74,1.26,-2.39,1.27,-2.39,2.39,1.99,3.78,3.65,3.66,3.65
40.14,1.34,-2.30,1.34,-2.30,2.30,1.90,3.60,3.63,3.64,3.64
40.54,1.41,-2.20,1.42,-2.20,2.20,1.81,3.42,3.61,3.62,3.61
40.94,1.49,-2.11,1.49,-2.10,2.10,1.72,3.25,3.59,3.60,3.60
41.35,1.57,-2.00,1.57,-2.01,2.01,1.64,3.07,3.58,3.58,3.57
41.76,1.65,-1.91,1.65,-1.91,1.91,1.55,2.90,3.56,3.56,3.56
42.18,1.73,-1.81,1.73,-1.80,1.80,1.47,2.72,3.53,3.54,3.55
42.60,1.81,-1.71,1.82,-1.70,1.70,1.38,2.55,3.51,3.52,3.52
43.03,1.90,-1.61,1.90,-1.59,1.59,1.30,2.38,3.49,3.50,3.51
43.46,1.99,-1.49,1.99,-1.49,1.49,1.22,2.22,3.48,3.48,3.48
43.90,2.08,-1.37,2.08,-1.38,1.38,1.14,2.05,3.46,3.46,3.45
44.33,2.17,-1.26,2.16,-1.27,1.27,1.06,1.88,3.44,3.44,3.43
44.78,2.25,-1.16,2.25,-1.16,1.16,0.98,1.72,3.41,3.42,3.41
45.23,2.34,-1.05,2.34,-1.05,1.05,0.90,1.56,3.39,3.40,3.38
45.68,2.42,-0.94,2.43,-0.94,0.94,0.82,1.40,3.36,3.37,3.36
46.13,2.52,-0.82,2.52,-0.83,0.83,0.75,1.24,3.35,3.35,3.34
46.60,2.61,-0.72,2.61,-0.72,0.72,0.67,1.08,3.33,3.33,3.33
47.06,2.70,-0.61,2.70,-0.61,0.61,0.60,0.92,3.31,3.31,3.31
47.53,2.79,-0.50,2.79,-0.49,0.49,0.52,0.77,3.29,3.28,3.29
48.01,2.88,-0.40,2.88,-0.38,0.38,0.45,0.61,3.26,3.26,3.28
48.49,2.96,-0.29,2.96,-0.27,0.27,0.37,0.46,3.23,3.24,3.25
48.97,3.05,-0.16,3.05,-0.16,0.16,0.30,0.31,3.21,3.21,3.21
49.46,3.13,-0.05,3.14,-0.05,0.05,0.23,0.16,3.18,3.19,3.18
49.96,3.22,0.07,3.22,0.06,-0.06,0.16,0.01,3.16,3.16,3.15
50.46,3.31,0.17,3.30,0.17,-0.17,0.09,-0.14,3.14,3.14,3.14
50.96,3.39,0.27,3.39,0.27,-0.27,0.01,-0.28,3.12,3.11,3.12
51.47,3.47,0.39,3.47,0.38,-0.38,-0.06,-0.43,3.09,3.09,3.08
51.99,3.54,0.48,3.54,0.48,-0.48,-0.13,-0.57,3.06,3.06,3.05
52.51,3.62,0.58,3.62,0.59,-0.59,-0.20,-0.71,3.03,3.03,3.04
53.03,3.69,0.68,3.69,0.69,-0.69,-0.27,-0.84,3.00,3.01,3.01
53.56,3.77,0.79,3.77,0.79,-0.79,-0.33,-0.98,2.98,2.98,2.98
54.10,3.85,0.89,3.84,0.89,-0.89,-0.40,-1.11,2.96,2.95,2.96
54.64,3.90,0.97,3.91,0.98,-0.98,-0.47,-1.24,2.92,2.93,2.93
55.18,3.97,1.07,3.97,1.07,-1.07,-0.54,-1.36,2.90,2.90,2.90
55.74,4.04,1.17,4.04,1.16,-1.16,-0.61,-1.49,2.88,2.87,2.87
56.29,4.09,1.24,4.10,1.25,-1.25,-0.68,-1.61,2.84,2.84,2.85
56.86,4.16,1.35,4.16,1.34,-1.34,-0.74,-1.72,2.82,2.82,2.81
57.42,4.22,1.44,4.21,1.43,-1.43,-0.81,-1.83,2.80,2.79,2.78
58.00,4.27,1.51,4.27,1.51,-1.51,-0.88,-1.94,2.76,2.76,2.76
58.58,4.32,1.59,4.32,1.59,-1.59,-0.95,-2.04,2.73,2.73,2.73
59.16,4.37,1.67,4.37,1.67,-1.67,-1.01,-2.14,2.70,2.70,2.70
59.76,4.42,1.74,4.42,1.75,-1.75,-1.08,-2.23,2.67,2.67,2.68
60.35,4.46,1.82,4.46,1.83,-1.83,-1.15,-2.32,2.63,2.64,2.64
60.96,4.50,1.88,4.51,1.90,-1.90,-1.21,-2.40,2.60,2.61,2.62
61.57,4.55,1.97,4.55,1.97,-1.97,-1.28,-2.48,2.58,2.57,2.58
62.18,4.59,2.05,4.59,2.04,-2.04,-1.35,-2.55,2.55,2.54,2.54
62.80,4.63,2.12,4.62,2.11,-2.11,-1.41,-2.62,2.52,2.51,2.51
63.43,4.66,2.19,4.65,2.17,-2.17,-1.48,-2.68,2.49,2.48,2.47
64.07,4.68,2.24,4.69,2.24,-2.24,-1.54,-2.74,2.44,2.45,2.44
64.71,4.72,2.30,4.72,2.30,-2.30,-1.61,-2.79,2.42,2.42,2.42
65.35,4.74,2.36,4.74,2.36,-2.36,-1.68,-2.84,2.38,2.39,2.38
66.01,4.76,2.40,4.77,2.41,-2.41,-1.74,-2.88,2.35,2.36,2.36
66.67,4.79,2.47,4.79,2.47,-2.47,-1.81,-2.92,2.32,2.32,2.32
67.33,4.82,2.52,4.82,2.52,-2.52,-1.88,-2.95,2.30,2.29,2.30
68.01,4.83,2.57,4.83,2.57,-2.57,-1.94,-2.98,2.26,2.26,2.26
68.69,4.85,2.61,4.85,2.62,-2.62,-2.01,-3.01,2.23,2.23,2.24
69.37,4.87,2.67,4.87,2.67,-2.67,-2.08,-3.04,2.20,2.20,2.20
70.07,4.89,2.72,4.89,2.72,-2.72,-2.14,-3.06,2.17,2.17,2.17
70.77,4.90,2.76,4.90,2.77,-2.77,-2.21,-3.08,2.13,2.13,2.14
71.48,4.92,2.82,4.91,2.82,-2.82,-2.28,-3.10,2.10,2.10,2.10
72.19,4.92,2.86,4.92,2.86,-2.86,-2.34,-3.12,2.06,2.06,2.06
72.91,4.93,2.91,4.93,2.91,-2.91,-2.41,-3.14,2.02,2.02,2.02
73.64,4.93,2.95,4.94,2.96,-2.96,-2.48,-3.15,1.97,1.98,1.98
74.38,4.94,3.00,4.94,3.00,-3.00,-2.55,-3.17,1.94,1.94,1.94
75.12,4.95,3.06,4.94,3.05,-3.05,-2.61,-3.18,1.90,1.89,1.89
75.87,4.95,3.10,4.95,3.09,-3.09,-2.68,-3.20,1.86,1.85,1.85
76.63,4.94,3.13,4.95,3.14,-3.14,-2.75,-3.22,1.80,1.81,1.81
77.40,4.94,3.18,4.95,3.19,-3.19,-2.82,-3.24,1.75,1.76,1.76
78.17,4.94,3.24,4.94,3.23,-3.23,-2.88,-3.26,1.71,1.71,1.70
78.95,4.94,3.27,4.94,3.28,-3.28,-2.95,-3.28,1.66,1.66,1.67
79.74,4.94,3.32,4.94,3.33,-3.33,-3.02,-3.30,1.61,1.61,1.62
80.54,4.93,3.36,4.93,3.37,-3.37,-3.09,-3.33,1.56,1.56,1.57
81.35,4.93,3.42,4.93,3.42,-3.42,-3.16,-3.35,1.51,1.51,1.51
82.16,4.93,3.47,4.92,3.46,-3.46,-3.22,-3.38,1.46,1.46,1.46
82.98,4.92,3.51,4.92,3.51,-3.51,-3.29,-3.41,1.41,1.41,1.41
83.81,4.91,3.57,4.91,3.56,-3.56,-3.36,-3.45,1.35,1.35,1.34
84.65,4.90,3.61,4.90,3.61,-3.61,-3.43,-3.48,1.29,1.29,1.29
85.50,4.89,3.65,4.89,3.65,-3.65,-3.50,-3.52,1.24,1.24,1.24
86.35,4.88,3.70,4.88,3.70,-3.70,-3.57,-3.56,1.18,1.18,1.18
87.22,4.86,3.74,4.87,3.75,-3.75,-3.64,-3.61,1.11,1.12,1.12
88.09,4.86,3.80,4.86,3.79,-3.79,-3.70,-3.65,1.07,1.06,1.06
88.97,4.84,3.83,4.84,3.84,-3.84,-3.77,-3.70,1.00,1.00,1.01
89.86,4.83,3.88,4.83,3.88,-3.88,-3.84,-3.76,0.95,0.94,0.95
90.76,4.81,3.94,4.81,3.93,-3.93,-3.91,-3.81,0.88,0.88,0.87
91.66,4.80,3.98,4.80,3.98,-3.98,-3.98,-3.87,0.82,0.82,0.82
92.58,4.78,4.03,4.78,4.02,-4.02,-4.05,-3.93,0.76,0.76,0.75
93.51,4.77,4.07,4.77,4.07,-4.07,-4.12,-4.00,0.70,0.70,0.70
94.44,4.76,4.12,4.75,4.12,-4.12,-4.19,-4.07,0.64,0.63,0.64
95.39,4.74,4.17,4.74,4.17,-4.17,-4.26,-4.13,0.57,0.56,0.57
96.34,4.72,4.22,4.72,4.22,-4.22,-4.32,-4.21,0.50,0.50,0.50
97.30,4.70,4.27,4.71,4.27,-4.27,-4.39,-4.28,0.43,0.43,0.43
98.28,4.69,4.33,4.69,4.33,-4.33,-4.46,-4.36,0.36,0.36,0.37
99.26,4.67,4.38,4.67,4.38,-4.38,-4.53,-4.44,0.29,0.29,0.29
100.25,4.65,4.43,4.65,4.43,-4.43,-4.60,-4.52,0.22,0.22,0.22
101.25,4.64,4.49,4.64,4.48,-4.48,-4.67,-4.60,0.16,0.15,0.15
102.27,4.62,4.54,4.62,4.54,-4.54,-4.73,-4.69,0.08,0.08,0.08
103.29,4.60,4.60,4.60,4.59,-4.59,-4.80,-4.77,0.01,0.01,-0.00
104.32,4.58,4.65,4.58,4.65,-4.65,-4.87,-4.86,-0.07,-0.07,-0.07
105.37,4.56,4.70,4.56,4.70,-4.70,-4.94,-4.95,-0.14,-0.14,-0.14
106.42,4.54,4.75,4.54,4.76,-4.76,-5.00,-5.03,-0.22,-0.22,-0.21
107.48,4.52,4.81,4.52,4.82,-4.82,-5.07,-5.12,-0.30,-0.29,-0.29
108.56,4.50,4.87,4.51,4.88,-4.88,-5.13,-5.21,-0.38,-0.37,-0.37
109.64,4.49,4.94,4.49,4.93,-4.93,-5.20,-5.29,-0.44,-0.45,-0.45
110.74,4.47,4.99,4.47,4.99,-4.99,-5.26,-5.37,-0.52,-0.52,-0.52
111.85,4.45,5.04,4.45,5.05,-5.05,-5.33,-5.45,-0.60,-0.60,-0.59
112.97,4.43,5.12,4.43,5.11,-5.11,-5.39,-5.53,-0.68,-0.68,-0.69
114.10,4.41,5.17,4.41,5.17,-5.17,-5.45,-5.61,-0.76,-0.76,-0.76
115.24,4.40,5.23,4.39,5.23,-5.23,-5.52,-5.68,-0.83,-0.83,-0.83
116.39,4.38,5.30,4.37,5.28,-5.28,-5.58,-5.75,-0.90,-0.91,-0.92
117.55,4.35,5.34,4.36,5.34,-5.34,-5.64,-5.81,-0.99,-0.99,-0.99
118.73,4.34,5.41,4.34,5.40,-5.40,-5.70,-5.87,-1.06,-1.06,-1.07
119.92,4.32,5.45,4.32,5.45,-5.45,-5.76,-5.92,-1.13,-1.13,-1.13
121.12,4.30,5.51,4.30,5.51,-5.51,-5.81,-5.97,-1.21,-1.21,-1.21
122.33,4.28,5.56,4.29,5.56,-5.56,-5.87,-6.01,-1.28,-1.28,-1.28
123.55,4.27,5.61,4.27,5.62,-5.62,-5.93,-6.04,-1.35,-1.35,-1.34
124.79,4.25,5.66,4.25,5.67,-5.67,-5.98,-6.07,-1.42,-1.42,-1.41
126.03,4.23,5.71,4.23,5.72,-5.72,-6.04,-6.09,-1.49,-1.49,-1.48
127.29,4.21,5.76,4.22,5.77,-5.77,-6.09,-6.11,-1.56,-1.55,-1.55
128.57,4.20,5.83,4.20,5.82,-5.82,-6.14,-6.12,-1.62,-1.62,-1.63
129.85,4.19,5.88,4.18,5.86,-5.86,-6.19,-6.12,-1.67,-1.68,-1.69
131.15,4.17,5.91,4.16,5.91,-5.91,-6.24,-6.12,-1.74,-1.74,-1.74
132.46,4.15,5.96,4.15,5.95,-5.95,-6.29,-6.11,-1.80,-1.80,-1.81
133.79,4.13,5.99,4.13,5.99,-5.99,-6.33,-6.10,-1.86,-1.86,-1.86
135.12,4.11,6.03,4.11,6.03,-6.03,-6.38,-6.08,-1.92,-1.92,-1.92
136.48,4.09,6.06,4.09,6.06,-6.06,-6.42,-6.06,-1.97,-1.97,-1.97
137.84,4.07,6.08,4.08,6.09,-6.09,-6.46,-6.04,-2.02,-2.02,-2.01
139.22,4.06,6.14,4.06,6.12,-6.12,-6.50,-6.01,-2.06,-2.07,-2.08
140.61,4.04,6.17,4.04,6.15,-6.15,-6.54,-5.98,-2.11,-2.11,-2.13
142.02,4.02,6.17,4.02,6.18,-6.18,-6.57,-5.95,-2.16,-2.15,-2.15
143.44,4.00,6.19,4.00,6.20,-6.20,-6.60,-5.92,-2.20,-2.20,-2.19
144.87,3.98,6.22,3.98,6.22,-6.22,-6.64,-5.89,-2.24,-2.24,-2.24
146.32,3.97,6.25,3.96,6.24,-6.24,-6.67,-5.85,-2.27,-2.27,-2.28
147.78,3.94,6.24,3.94,6.26,-6.26,-6.69,-5.82,-2.32,-2.31,-2.30
149.26,3.93,6.27,3.92,6.27,-6.27,-6.72,-5.79,-2.34,-2.35,-2.34
150.75,3.90,6.29,3.90,6.29,-6.29,-6.74,-5.76,-2.39,-2.38,-2.39
152.26,3.88,6.30,3.88,6.30,-6.30,-6.77,-5.73,-2.42,-2.42,-2.42
153.78,3.86,6.31,3.86,6.32,-6.32,-6.79,-5.70,-2.46,-2.45,-2.45
155.32,3.84,6.33,3.84,6.33,-6.33,-6.80,-5.67,-2.49,-2.49,-2.49
156.88,3.82,6.34,3.82,6.34,-6.34,-6.82,-5.65,-2.52,-2.52,-2.52
158.44,3.79,6.35,3.79,6.35,-6.35,-6.83,-5.63,-2.56,-2.56,-2.56
160.03,3.77,6.37,3.77,6.36,-6.36,-6.84,-5.61,-2.59,-2.59,-2.60
161.63,3.74,6.38,3.75,6.37,-6.37,-6.85,-5.60,-2.63,-2.63,-2.64
163.24,3.72,6.38,3.72,6.38,-6.38,-6.86,-5.59,-2.66,-2.66,-2.66
164.88,3.70,6.39,3.70,6.39,-6.39,-6.86,-5.58,-2.69,-2.70,-2.69
166.53,3.67,6.40,3.67,6.40,-6.40,-6.86,-5.58,-2.73,-2.73,-2.73
168.19,3.65,6.42,3.64,6.41,-6.41,-6.86,-5.58,-2.76,-2.77,-2.77
169.87,3.62,6.43,3.62,6.42,-6.42,-6.86,-5.58,-2.80,-2.81,-2.81
171.57,3.59,6.43,3.59,6.43,-6.43,-6.85,-5.59,-2.84,-2.84,-2.84
173.29,3.56,6.43,3.56,6.44,-6.44,-6.85,-5.61,-2.88,-2.88,-2.87
175.02,3.53,6.44,3.53,6.45,-6.45,-6.84,-5.62,-2.92,-2.92,-2.91
176.77,3.50,6.46,3.50,6.46,-6.46,-6.83,-5.65,-2.96,-2.96,-2.96
178.54,3.47,6.47,3.47,6.47,-6.47,-6.81,-5.67,-3.00,-3.00,-3.00
180.32,3.44,6.48,3.44,6.48,-6.48,-6.80,-5.70,-3.04,-3.04,-3.04
182.13,3.41,6.49,3.41,6.49,-6.49,-6.78,-5.74,-3.08,-3.08,-3.08
183.95,3.37,6.49,3.38,6.50,-6.50,-6.76,-5.78,-3.13,-3.12,-3.12
185.79,3.35,6.51,3.35,6.50,-6.50,-6.74,-5.82,-3.15,-3.16,-3.16
187.65,3.32,6.53,3.31,6.51,-6.51,-6.71,-5.87,-3.19,-3.20,-3.21
189.52,3.27,6.51,3.28,6.52,-6.52,-6.69,-5.92,-3.25,-3.23,-3.24
191.42,3.25,6.52,3.25,6.52,-6.52,-6.66,-5.98,-3.27,-3.27,-3.27
193.33,3.22,6.52,3.22,6.52,-6.52,-6.63,-6.04,-3.30,-3.30,-3.30
195.27,3.19,6.52,3.19,6.52,-6.52,-6.60,-6.10,-3.33,-3.34,-3.33
197.22,3.15,6.51,3.15,6.52,-6.52,-6.56,-6.17,-3.37,-3.37,-3.36
199.19,3.12,6.53,3.12,6.52,-6.52,-6.53,-6.24,-3.40,-3.40,-3.41
201.18,3.09,6.52,3.08,6.51,-6.51,-6.49,-6.31,-3.42,-3.43,-3.43
203.19,3.05,6.50,3.05,6.50,-6.50,-6.45,-6.38,-3.45,-3.45,-3.45
205.23,3.02,6.50,3.01,6.50,-6.50,-6.41,-6.46,-3.48,-3.48,-3.48
207.28,2.99,6.48,2.98,6.48,-6.48,-6.37,-6.53,-3.49,-3.50,-3.49
209.35,2.95,6.48,2.95,6.47,-6.47,-6.33,-6.61,-3.52,-3.53,-3.53
211.44,2.92,6.47,2.91,6.46,-6.46,-6.28,-6.69,-3.54,-3.55,-3.56
213.56,2.88,6.45,2.88,6.45,-6.45,-6.24,-6.77,-3.57,-3.57,-3.57
215.69,2.85,6.43,2.85,6.43,-6.43,-6.19,-6.85,-3.58,-3.59,-3.58
217.85,2.82,6.41,2.82,6.42,-6.42,-6.14,-6.93,-3.60,-3.60,-3.59
220.03,2.79,6.41,2.80,6.41,-6.41,-6.09,-7.00,-3.62,-3.61,-3.62
222.23,2.77,6.40,2.78,6.40,-6.40,-6.04,-7.07,-3.63,-3.62,-3.63
224.45,2.75,6.38,2.76,6.39,-6.39,-5.99,-7.14,-3.64,-3.63,-3.63
226.70,2.73,6.37,2.75,6.39,-6.39,-5.94,-7.20,-3.66,-3.64,-3.64
228.96,2.73,6.37,2.74,6.38,-6.38,-5.89,-7.26,-3.65,-3.64,-3.64
231.25,2.72,6.36,2.74,6.38,-6.38,-5.83,-7.31,-3.66,-3.64,-3.64
233.57,2.73,6.36,2.74,6.38,-6.38,-5.78,-7.35,-3.65,-3.63,-3.63
235.90,2.73,6.36,2.75,6.38,-6.38,-5.72,-7.39,-3.65,-3.63,-3.63
238.26,2.75,6.38,2.75,6.37,-6.37,-5.67,-7.42,-3.62,-3.62,-3.63
240.64,2.76,6.37,2.76,6.37,-6.37,-5.61,-7.43,-3.61,-3.61,-3.61
243.05,2.78,6.38,2.76,6.36,-6.36,-5.55,-7.44,-3.58,-3.60,-3.60
245.48,2.78,6.36,2.77,6.35,-6.35,-5.50,-7.44,-3.57,-3.59,-3.58
247.93,2.79,6.36,2.77,6.34,-6.34,-5.44,-7.42,-3.55,-3.57,-3.57
250.41,2.79,6.35,2.76,6.32,-6.32,-5.38,-7.40,-3.53,-3.55,-3.56
252.92,2.78,6.31,2.76,6.29,-6.29,-5.32,-7.36,-3.51,-3.54,-3.53
255.45,2.75,6.26,2.74,6.26,-6.26,-5.26,-7.32,-3.51,-3.52,-3.51
258.00,2.74,6.23,2.73,6.23,-6.23,-5.20,-7.26,-3.49,-3.50,-3.49
260.58,2.72,6.20,2.71,6.19,-6.19,-5.14,-7.19,-3.47,-3.48,-3.48
263.19,2.68,6.13,2.69,6.14,-6.14,-5.08,-7.11,-3.46,-3.45,-3.45
265.82,2.66,6.09,2.66,6.09,-6.09,-5.02,-7.02,-3.43,-3.43,-3.43
268.48,2.63,6.04,2.64,6.04,-6.04,-4.95,-6.92,-3.41,-3.41,-3.41
271.16,2.60,5.98,2.61,5.99,-5.99,-4.89,-6.82,-3.39,-3.39,-3.38
273.87,2.57,5.93,2.58,5.94,-5.94,-4.83,-6.70,-3.37,-3.36,-3.36
276.61,2.54,5.87,2.55,5.89,-5.89,-4.77,-6.58,-3.35,-3.34,-3.33
279.38,2.52,5.84,2.52,5.84,-5.84,-4.71,-6.46,-3.32,-3.32,-3.32
282.17,2.49,5.78,2.50,5.79,-5.79,-4.64,-6.33,-3.30,-3.29,-3.29
284.99,2.47,5.74,2.47,5.74,-5.74,-4.58,-6.19,-3.27,-3.27,-3.27
287.84,2.44,5.68,2.45,5.69,-5.69,-4.52,-6.05,-3.25,-3.24,-3.24
290.72,2.43,5.64,2.43,5.64,-5.64,-4.46,-5.91,-3.21,-3.21,-3.21
293.63,2.40,5.59,2.40,5.59,-5.59,-4.40,-5.76,-3.19,-3.19,-3.19
296.57,2.38,5.54,2.38,5.54,-5.54,-4.33,-5.62,-3.16,-3.16,-3.16
299.53,2.36,5.49,2.35,5.48,-5.48,-4.27,-5.47,-3.12,-3.13,-3.13
302.53,2.33,5.44,2.33,5.43,-5.43,-4.21,-5.33,-3.10,-3.10,-3.11
305.55,2.30,5.36,2.30,5.37,-5.37,-4.15,-5.18,-3.07,-3.07,-3.06
308.61,2.28,5.32,2.28,5.31,-5.31,-4.09,-5.03,-3.03,-3.04,-3.04
311.69,2.25,5.25,2.25,5.25,-5.25,-4.03,-4.88,-3.00,-3.00,-3.00
314.81,2.22,5.19,2.21,5.19,-5.19,-3.96,-4.74,-2.97,-2.97,-2.97
317.96,2.18,5.12,2.18,5.12,-5.12,-3.90,-4.60,-2.94,-2.94,-2.94
321.14,2.15,5.06,2.15,5.06,-5.06,-3.84,-4.45,-2.91,-2.91,-2.91
324.35,2.11,5.00,2.11,4.99,-4.99,-3.78,-4.31,-2.88,-2.88,-2.89
327.59,2.07,4.92,2.07,4.93,-4.93,-3.72,-4.17,-2.86,-2.86,-2.85
330.87,2.03,4.85,2.03,4.86,-4.86,-3.66,-4.04,-2.83,-2.83,-2.82
334.18,1.98,4.79,1.99,4.79,-4.79,-3.60,-3.90,-2.81,-2.80,-2.81
337.52,1.94,4.72,1.94,4.72,-4.72,-3.54,-3.77,-2.78,-2.78,-2.78
340.90,1.89,4.64,1.89,4.65,-4.65,-3.48,-3.64,-2.76,-2.76,-2.75
344.30,1.84,4.58,1.84,4.58,-4.58,-3.42,-3.51,-2.74,-2.73,-2.74
347.75,1.79,4.50,1.79,4.50,-4.50,-3.36,-3.39,-2.71,-2.71,-2.71
351.23,1.75,4.44,1.73,4.43,-4.43,-3.30,-3.26,-2.68,-2.69,-2.69
354.74,1.69,4.36,1.68,4.35,-4.35,-3.24,-3.14,-2.66,-2.67,-2.67
358.28,1.62,4.28,1.62,4.27,-4.27,-3.18,-3.02,-2.65,-2.65,-2.66
361.87,1.56,4.20,1.56,4.19,-4.19,-3.12,-2.91,-2.63,-2.64,-2.64
365.49,1.49,4.10,1.50,4.12,-4.12,-3.06,-2.80,-2.63,-2.62,-2.61
369.14,1.43,4.03,1.44,4.04,-4.04,-3.00,-2.68,-2.61,-2.60,-2.60
372.83,1.36,3.94,1.38,3.95,-3.95,-2.94,-2.57,-2.59,-2.58,-2.58
376.56,1.30,3.87,1.31,3.87,-3.87,-2.88,-2.47,-2.57,-2.56,-2.57
380.33,1.23,3.77,1.25,3.79,-3.79,-2.82,-2.36,-2.56,-2.54,-2.54
384.13,1.18,3.70,1.18,3.70,-3.70,-2.76,-2.26,-2.52,-2.52,-2.52
387.97,1.11,3.61,1.12,3.62,-3.62,-2.70,-2.16,-2.51,-2.50,-2.50
391.85,1.04,3.52,1.05,3.53,-3.53,-2.64,-2.06,-2.49,-2.48,-2.48
395.77,0.97,3.43,0.97,3.43,-3.43,-2.58,-1.97,-2.46,-2.46,-2.46
399.73,0.91,3.35,0.90,3.34,-3.34,-2.53,-1.87,-2.43,-2.44,-2.44
403.72,0.83,3.25,0.82,3.24,-3.24,-2.47,-1.78,-2.41,-2.42,-2.42
407.76,0.74,3.14,0.73,3.13,-3.13,-2.41,-1.69,-2.39,-2.40,-2.40
411.84,0.65,3.02,0.64,3.01,-3.01,-2.35,-1.60,-2.36,-2.37,-2.37
415.96,0.56,2.91,0.54,2.89,-2.89,-2.29,-1.52,-2.33,-2.35,-2.35
420.12,0.46,2.79,0.43,2.76,-2.76,-2.23,-1.43,-2.30,-2.33,-2.33
424.32,0.34,2.65,0.32,2.63,-2.63,-2.17,-1.35,-2.29,-2.31,-2.31
428.56,0.22,2.51,0.20,2.49,-2.49,-2.11,-1.28,-2.27,-2.29,-2.29
432.85,0.09,2.36,0.08,2.35,-2.35,-2.05,-1.20,-2.26,-2.26,-2.27
437.18,-0.04,2.20,-0.04,2.20,-2.20,-1.98,-1.13,-2.24,-2.24,-2.24
441.55,-0.17,2.04,-0.17,2.05,-2.05,-1.92,-1.05,-2.22,-2.21,-2.21
445.96,-0.31,1.88,-0.29,1.89,-1.89,-1.86,-0.98,-2.20,-2.19,-2.19
450.42,-0.43,1.74,-0.42,1.74,-1.74,-1.80,-0.92,-2.17,-2.16,-2.17
454.93,-0.56,1.57,-0.54,1.59,-1.59,-1.73,-0.85,-2.15,-2.14,-2.13
459.48,-0.68,1.43,-0.67,1.44,-1.44,-1.67,-0.79,-2.12,-2.11,-2.11
464.07,-0.79,1.29,-0.79,1.29,-1.29,-1.60,-0.73,-2.08,-2.08,-2.08
468.71,-0.91,1.13,-0.90,1.15,-1.15,-1.54,-0.68,-2.06,-2.05,-2.04
473.40,-1.01,1.02,-1.01,1.01,-1.01,-1.47,-0.63,-2.02,-2.03,-2.03
478.13,-1.11,0.89,-1.12,0.88,-0.88,-1.40,-0.58,-1.99,-2.00,-2.00
482.91,-1.22,0.75,-1.21,0.76,-0.76,-1.33,-0.53,-1.98,-1.97,-1.97
487.74,-1.31,0.63,-1.30,0.64,-0.64,-1.26,-0.48,-1.95,-1.94,-1.94
492.62,-1.39,0.52,-1.39,0.52,-0.52,-1.19,-0.44,-1.91,-1.91,-1.91
497.55,-1.47,0.42,-1.47,0.41,-0.41,-1.12,-0.40,-1.88,-1.88,-1.89
502.52,-1.55,0.30,-1.54,0.31,-0.31,-1.04,-0.37,-1.86,-1.86,-1.85
