frequency,raw,error,smoothed,error_smoothed,equalization,parametric_eq,fixed_band_eq,equalized_raw,equalized_smoothed,target
20.00,3.50,-4.01,3.50,-4.02,4.02,3.83,1.46,7.52,7.52,7.51
20.20,3.52,-3.98,3.52,-3.99,3.99,3.82,1.50,7.51,7.51,7.50
20.40,3.54,-3.95,3.54,-3.96,3.96,3.81,1.55,7.50,7.49,7.49
20.61,3.56,-3.93,3.56,-3.93,3.93,3.81,1.60,7.48,7.48,7.48
20.81,3.57,-3.89,3.58,-3.89,3.89,3.80,1.64,7.47,7.47,7.46
21.02,3.59,-3.86,3.59,-3.87,3.87,3.79,1.69,7.46,7.46,7.45
21.23,3.61,-3.83,3.61,-3.84,3.84,3.78,1.74,7.45,7.45,7.44
21.44,3.63,-3.82,3.63,-3.81,3.81,3.77,1.80,7.44,7.44,7.45
21.66,3.65,-3.79,3.65,-3.78,3.78,3.75,1.85,7.43,7.43,7.44
21.87,3.67,-3.76,3.67,-3.75,3.75,3.74,1.91,7.42,7.42,7.43
22.09,3.69,-3.72,3.69,-3.72,3.72,3.73,1.97,7.41,7.42,7.41
22.31,3.71,-3.69,3.71,-3.70,3.70,3.72,2.02,7.41,7.41,7.40
22.54,3.73,-3.67,3.73,-3.67,3.67,3.71,2.09,7.40,7.40,7.39
22.76,3.75,-3.64,3.75,-3.65,3.65,3.69,2.15,7.40,7.40,7.39
22.99,3.77,-3.61,3.77,-3.62,3.62,3.68,2.21,7.39,7.39,7.38
23.22,3.79,-3.58,3.79,-3.60,3.60,3.67,2.28,7.39,7.38,7.37
23.45,3.81,-3.57,3.81,-3.57,3.57,3.65,2.34,7.38,7.38,7.38
23.69,3.83,-3.55,3.83,-3.55,3.55,3.64,2.41,7.38,7.37,7.37
23.92,3.84,-3.52,3.84,-3.53,3.53,3.62,2.48,7.37,7.37,7.36
24.16,3.86,-3.51,3.86,-3.50,3.50,3.61,2.55,7.36,7.37,7.37
24.40,3.88,-3.49,3.88,-3.48,3.48,3.59,2.62,7.36,7.37,7.37
24.65,3.90,-3.47,3.90,-3.46,3.46,3.57,2.69,7.36,7.36,7.36
24.89,3.92,-3.44,3.92,-3.44,3.44,3.56,2.77,7.36,7.36,7.36
25.14,3.94,-3.41,3.94,-3.42,3.42,3.54,2.84,7.36,7.36,7.35
25.39,3.96,-3.39,3.96,-3.40,3.40,3.52,2.91,7.36,7.36,7.35
25.65,3.98,-3.37,3.98,-3.38,3.38,3.50,2.99,7.36,7.36,7.35
25.91,4.00,-3.36,4.00,-3.36,3.36,3.49,3.06,7.36,7.36,7.35
26.16,4.02,-3.34,4.02,-3.34,3.34,3.47,3.13,7.36,7.36,7.36
26.43,4.04,-3.32,4.04,-3.32,3.32,3.45,3.21,7.36,7.36,7.35
26.69,4.06,-3.29,4.06,-3.30,3.30,3.43,3.28,7.36,7.36,7.35
26.96,4.08,-3.28,4.08,-3.28,3.28,3.41,3.35,7.36,7.36,7.35
27.23,4.10,-3.26,4.10,-3.26,3.26,3.39,3.42,7.36,7.36,7.35
27.50,4.12,-3.23,4.12,-3.24,3.24,3.36,3.48,7.36,7.36,7.35
27.77,4.13,-3.23,4.14,-3.23,3.23,3.34,3.54,7.36,7.36,7.36
28.05,4.15,-3.20,4.15,-3.21,3.21,3.32,3.60,7.36,7.36,7.35
28.33,4.17,-3.19,4.17,-3.19,3.19,3.30,3.66,7.36,7.36,7.36
28.62,4.19,-3.18,4.19,-3.17,3.17,3.27,3.71,7.36,7.37,7.36
28.90,4.21,-3.16,4.21,-3.15,3.15,3.25,3.76,7.36,7.36,7.37
29.19,4.23,-3.14,4.23,-3.14,3.14,3.23,3.80,7.37,7.36,7.37
29.48,4.25,-3.11,4.25,-3.12,3.12,3.20,3.84,7.37,7.36,7.36
29.78,4.27,-3.09,4.27,-3.10,3.10,3.18,3.87,7.37,7.36,7.36
30.08,4.28,-3.08,4.28,-3.08,3.08,3.15,3.90,7.36,7.36,7.36
30.38,4.30,-3.05,4.30,-3.05,3.05,3.13,3.92,7.35,7.35,7.35
30.68,4.32,-3.02,4.32,-3.03,3.03,3.10,3.93,7.35,7.35,7.34
30.99,4.34,-3.01,4.34,-3.01,3.01,3.07,3.94,7.35,7.34,7.34
31.30,4.35,-2.99,4.35,-2.99,2.99,3.05,3.94,7.34,7.34,7.34
31.61,4.37,-2.96,4.37,-2.96,2.96,3.02,3.93,7.33,7.33,7.33
31.93,4.39,-2.93,4.39,-2.94,2.94,2.99,3.91,7.33,7.33,7.32
32.24,4.40,-2.92,4.40,-2.91,2.91,2.96,3.89,7.31,7.32,7.32
32.57,4.42,-2.89,4.42,-2.89,2.89,2.93,3.87,7.31,7.31,7.30
32.89,4.43,-2.87,4.44,-2.87,2.87,2.91,3.83,7.30,7.30,7.30
33.22,4.45,-2.84,4.46,-2.84,2.84,2.88,3.79,7.29,7.30,7.29
33.55,4.47,-2.82,4.47,-2.82,2.82,2.85,3.75,7.29,7.29,7.29
33.89,4.49,-2.79,4.49,-2.79,2.79,2.82,3.70,7.28,7.28,7.28
34.23,4.51,-2.76,4.51,-2.77,2.77,2.78,3.64,7.28,7.28,7.26
34.57,4.53,-2.73,4.53,-2.74,2.74,2.75,3.59,7.27,7.27,7.26
34.92,4.55,-2.70,4.54,-2.71,2.71,2.72,3.52,7.26,7.26,7.25
35.27,4.56,-2.70,4.56,-2.68,2.68,2.69,3.46,7.24,7.25,7.26
35.62,4.58,-2.66,4.58,-2.66,2.66,2.66,3.39,7.24,7.24,7.23
35.97,4.60,-2.63,4.60,-2.62,2.62,2.62,3.31,7.23,7.22,7.23
36.33,4.61,-2.60,4.61,-2.59,2.59,2.59,3.24,7.20,7.21,7.21
36.70,4.63,-2.57,4.63,-2.56,2.56,2.56,3.16,7.19,7.19,7.19
37.06,4.64,-2.53,4.64,-2.53,2.53,2.52,3.09,7.17,7.18,7.17
37.43,4.66,-2.49,4.66,-2.50,2.50,2.49,3.01,7.16,7.16,7.15
37.81,4.67,-2.47,4.67,-2.47,2.47,2.45,2.93,7.14,7.14,7.14
38.19,4.69,-2.43,4.68,-2.44,2.44,2.41,2.85,7.13,7.12,7.12
38.57,4.70,-2.39,4.69,-2.41,2.41,2.38,2.77,7.11,7.10,7.09
38.95,4.71,-2.37,4.70,-2.37,2.37,2.34,2.69,7.08,7.08,7.08
39.34,4.72,-2.33,4.71,-2.34,2.34,2.30,2.61,7.06,7.05,7.05
39.74,4.72,-2.30,4.72,-2.31,2.31,2.27,2.53,7.03,7.03,7.02
40.14,4.73,-2.28,4.73,-2.28,2.28,2.23,2.45,7.01,7.01,7.01
40.54,4.74,-2.25,4.74,-2.24,2.24,2.19,2.37,6.98,6.99,6.98
40.94,4.75,-2.20,4.75,-2.21,2.21,2.15,2.30,6.96,6.97,6.95
41.35,4.76,-2.18,4.77,-2.18,2.18,2.11,2.22,6.94,6.94,6.94
41.76,4.77,-2.14,4.78,-2.14,2.14,2.07,2.15,6.91,6.92,6.91
42.18,4.79,-2.11,4.79,-2.10,2.10,2.03,2.08,6.89,6.90,6.90
42.60,4.80,-2.07,4.81,-2.07,2.07,1.99,2.00,6.87,6.87,6.87
43.03,4.82,-2.03,4.82,-2.02,2.02,1.95,1.93,6.84,6.85,6.85
43.46,4.84,-1.97,4.84,-1.98,1.98,1.91,1.87,6.82,6.82,6.81
43.90,4.86,-1.94,4.86,-1.94,1.94,1.87,1.80,6.80,6.80,6.80
44.33,4.88,-1.88,4.88,-1.89,1.89,1.83,1.73,6.77,6.77,6.76
44.78,4.90,-1.85,4.90,-1.84,1.84,1.79,1.67,6.74,6.74,6.74
45.23,4.92,-1.81,4.92,-1.79,1.79,1.74,1.61,6.71,6.71,6.72
45.68,4.94,-1.74,4.94,-1.74,1.74,1.70,1.54,6.68,6.68,6.68
46.13,4.96,-1.68,4.95,-1.69,1.69,1.66,1.48,6.65,6.64,6.64
46.60,4.97,-1.64,4.97,-1.63,1.63,1.61,1.43,6.60,6.60,6.61
47.06,4.99,-1.58,4.99,-1.58,1.58,1.57,1.37,6.57,6.57,6.57
47.53,5.01,-1.52,5.00,-1.52,1.52,1.52,1.31,6.53,6.53,6.53
48.01,5.02,-1.47,5.02,-1.47,1.47,1.48,1.26,6.49,6.49,6.49
48.49,5.03,-1.42,5.03,-1.41,1.41,1.43,1.20,6.44,6.45,6.44
48.97,5.05,-1.34,5.05,-1.36,1.36,1.39,1.15,6.41,6.40,6.39
49.46,5.06,-1.30,5.06,-1.30,1.30,1.34,1.10,6.36,6.36,6.36
49.96,5.07,-1.24,5.08,-1.24,1.24,1.29,1.05,6.31,6.32,6.31
50.46,5.08,-1.20,5.09,-1.19,1.19,1.25,1.00,6.27,6.28,6.27
50.96,5.10,-1.13,5.10,-1.13,1.13,1.20,0.95,6.23,6.24,6.23
51.47,5.11,-1.08,5.12,-1.08,1.08,1.15,0.91,6.19,6.19,6.19
51.99,5.13,-1.02,5.13,-1.02,1.02,1.11,0.86,6.15,6.15,6.15
52.51,5.15,-0.97,5.14,-0.97,0.97,1.06,0.81,6.12,6.11,6.12
53.03,5.16,-0.92,5.16,-0.91,0.91,1.01,0.77,6.07,6.07,6.08
53.56,5.17,-0.86,5.17,-0.86,0.86,0.96,0.72,6.03,6.03,6.03
54.10,5.18,-0.81,5.18,-0.81,0.81,0.91,0.68,5.99,5.99,5.99
54.64,5.19,-0.76,5.19,-0.76,0.76,0.86,0.64,5.95,5.95,5.94
55.18,5.20,-0.70,5.20,-0.72,0.72,0.81,0.60,5.92,5.91,5.90
55.74,5.21,-0.65,5.20,-0.67,0.67,0.76,0.55,5.88,5.87,5.86
56.29,5.21,-0.62,5.20,-0.63,0.63,0.71,0.51,5.84,5.84,5.83
56.86,5.22,-0.58,5.21,-0.59,0.59,0.66,0.47,5.81,5.80,5.80
57.42,5.22,-0.52,5.21,-0.55,0.55,0.61,0.43,5.77,5.75,5.74
58.00,5.21,-0.49,5.21,-0.50,0.50,0.56,0.39,5.71,5.71,5.70
58.58,5.20,-0.47,5.21,-0.46,0.46,0.51,0.35,5.66,5.67,5.67
59.16,5.19,-0.45,5.20,-0.42,0.42,0.45,0.31,5.61,5.62,5.64
59.76,5.19,-0.41,5.20,-0.37,0.37,0.40,0.27,5.56,5.57,5.60
60.35,5.19,-0.35,5.20,-0.33,0.33,0.35,0.23,5.52,5.53,5.54
60.96,5.19,-0.30,5.20,-0.28,0.28,0.30,0.19,5.47,5.48,5.49
61.57,5.19,-0.24,5.19,-0.24,0.24,0.24,0.14,5.43,5.43,5.43
62.18,5.19,-0.17,5.19,-0.19,0.19,0.19,0.10,5.38,5.37,5.36
62.80,5.19,-0.11,5.18,-0.14,0.14,0.14,0.06,5.33,5.32,5.30
63.43,5.19,-0.06,5.18,-0.09,0.09,0.08,0.02,5.28,5.27,5.25
64.07,5.19,-0.02,5.18,-0.04,0.04,0.03,-0.02,5.23,5.21,5.21
64.71,5.18,0.03,5.17,0.02,-0.02,-0.03,-0.06,5.16,5.16,5.16
65.35,5.18,0.09,5.17,0.07,-0.07,-0.08,-0.10,5.11,5.10,5.09
66.01,5.17,0.13,5.17,0.12,-0.12,-0.14,-0.15,5.05,5.05,5.04
66.67,5.16,0.16,5.17,0.18,-0.18,-0.19,-0.19,4.98,4.99,5.00
67.33,5.16,0.23,5.18,0.24,-0.24,-0.25,-0.23,4.92,4.94,4.93
68.01,5.17,0.29,5.18,0.30,-0.30,-0.30,-0.28,4.87,4.88,4.88
68.69,5.18,0.35,5.19,0.36,-0.36,-0.36,-0.32,4.82,4.83,4.83
69.37,5.19,0.41,5.20,0.42,-0.42,-0.41,-0.37,4.77,4.77,4.78
70.07,5.20,0.48,5.21,0.49,-0.49,-0.47,-0.41,4.71,4.72,4.72
70.77,5.22,0.57,5.22,0.56,-0.56,-0.52,-0.46,4.66,4.66,4.65
71.48,5.24,0.63,5.24,0.64,-0.64,-0.58,-0.50,4.60,4.60,4.61
72.19,5.26,0.72,5.26,0.72,-0.72,-0.64,-0.55,4.54,4.54,4.54
72.91,5.28,0.81,5.28,0.80,-0.80,-0.69,-0.60,4.48,4.49,4.47
73.64,5.31,0.89,5.31,0.88,-0.88,-0.75,-0.65,4.43,4.43,4.42
74.38,5.33,0.97,5.33,0.96,-0.96,-0.81,-0.70,4.37,4.37,4.36
75.12,5.35,1.04,5.36,1.04,-1.04,-0.86,-0.75,4.31,4.32,4.31
75.87,5.38,1.12,5.38,1.12,-1.12,-0.92,-0.80,4.26,4.27,4.26
76.63,5.41,1.21,5.41,1.19,-1.19,-0.98,-0.85,4.22,4.21,4.20
77.40,5.43,1.27,5.43,1.27,-1.27,-1.04,-0.91,4.16,4.16,4.16
78.17,5.46,1.36,5.45,1.34,-1.34,-1.09,-0.96,4.12,4.11,4.10
78.95,5.48,1.42,5.48,1.41,-1.41,-1.15,-1.01,4.07,4.06,4.06
79.74,5.49,1.48,5.49,1.48,-1.48,-1.21,-1.07,4.01,4.01,4.01
80.54,5.51,1.55,5.51,1.55,-1.55,-1.27,-1.13,3.96,3.96,3.96
81.35,5.53,1.62,5.53,1.61,-1.61,-1.32,-1.18,3.92,3.91,3.90
82.16,5.54,1.67,5.53,1.67,-1.67,-1.38,-1.24,3.87,3.86,3.87
82.98,5.55,1.74,5.54,1.73,-1.73,-1.44,-1.30,3.82,3.81,3.81
83.81,5.55,1.79,5.54,1.79,-1.79,-1.50,-1.36,3.76,3.76,3.76
84.65,5.55,1.85,5.54,1.84,-1.84,-1.55,-1.43,3.71,3.70,3.70
85.50,5.54,1.90,5.54,1.89,-1.89,-1.61,-1.49,3.65,3.65,3.65
86.35,5.53,1.94,5.53,1.93,-1.93,-1.67,-1.56,3.60,3.60,3.59
87.22,5.52,1.97,5.51,1.97,-1.97,-1.73,-1.62,3.55,3.54,3.55
88.09,5.50,2.02,5.50,2.01,-2.01,-1.79,-1.69,3.49,3.49,3.48
88.97,5.48,2.06,5.47,2.04,-2.04,-1.84,-1.76,3.44,3.43,3.42
89.86,5.45,2.08,5.45,2.08,-2.08,-1.90,-1.83,3.37,3.37,3.37
90.76,5.43,2.12,5.42,2.11,-2.11,-1.96,-1.90,3.32,3.31,3.32
91.66,5.40,2.16,5.39,2.14,-2.14,-2.02,-1.97,3.26,3.25,3.24
92.58,5.37,2.18,5.36,2.17,-2.17,-2.08,-2.05,3.20,3.19,3.19
93.51,5.33,2.19,5.33,2.20,-2.20,-2.13,-2.12,3.13,3.13,3.14
94.44,5.30,2.22,5.30,2.23,-2.23,-2.19,-2.20,3.07,3.07,3.08
95.39,5.27,2.26,5.27,2.27,-2.27,-2.25,-2.28,3.00,3.01,3.02
96.34,5.24,2.30,5.25,2.30,-2.30,-2.30,-2.36,2.94,2.95,2.94
97.30,5.21,2.33,5.23,2.34,-2.34,-2.36,-2.44,2.87,2.89,2.88
98.28,5.19,2.38,5.21,2.39,-2.39,-2.42,-2.52,2.80,2.83,2.82
99.26,5.18,2.43,5.20,2.43,-2.43,-2.48,-2.60,2.75,2.77,2.75
100.25,5.17,2.48,5.19,2.48,-2.48,-2.53,-2.68,2.69,2.71,2.69
101.25,5.17,2.53,5.18,2.53,-2.53,-2.59,-2.76,2.64,2.65,2.64
102.27,5.17,2.59,5.17,2.59,-2.59,-2.64,-2.85,2.58,2.59,2.58
103.29,5.18,2.66,5.17,2.64,-2.64,-2.70,-2.93,2.54,2.53,2.52
104.32,5.18,2.71,5.17,2.70,-2.70,-2.76,-3.01,2.48,2.47,2.47
105.37,5.19,2.77,5.18,2.76,-2.76,-2.81,-3.10,2.43,2.42,2.42
106.42,5.19,2.83,5.18,2.82,-2.82,-2.87,-3.18,2.37,2.36,2.36
107.48,5.19,2.89,5.18,2.88,-2.88,-2.92,-3.26,2.31,2.30,2.30
108.56,5.19,2.94,5.19,2.94,-2.94,-2.98,-3.34,2.25,2.25,2.25
109.64,5.19,3.00,5.19,3.00,-3.00,-3.03,-3.42,2.19,2.19,2.19
110.74,5.19,3.06,5.19,3.06,-3.06,-3.08,-3.50,2.13,2.13,2.13
111.85,5.19,3.12,5.19,3.12,-3.12,-3.14,-3.57,2.07,2.07,2.07
112.97,5.19,3.17,5.19,3.18,-3.18,-3.19,-3.64,2.01,2.01,2.02
114.10,5.19,3.22,5.19,3.24,-3.24,-3.24,-3.71,1.95,1.95,1.97
115.24,5.19,3.30,5.19,3.29,-3.29,-3.30,-3.78,1.90,1.90,1.89
116.39,5.19,3.37,5.19,3.35,-3.35,-3.35,-3.84,1.84,1.84,1.82
117.55,5.19,3.43,5.19,3.41,-3.41,-3.40,-3.90,1.78,1.78,1.76
118.73,5.19,3.49,5.19,3.47,-3.47,-3.45,-3.96,1.72,1.72,1.70
119.92,5.19,3.53,5.20,3.53,-3.53,-3.50,-4.01,1.66,1.67,1.66
121.12,5.19,3.58,5.20,3.59,-3.59,-3.55,-4.06,1.60,1.61,1.61
122.33,5.19,3.64,5.20,3.65,-3.65,-3.60,-4.10,1.54,1.55,1.55
123.55,5.19,3.69,5.20,3.71,-3.71,-3.65,-4.13,1.48,1.50,1.50
124.79,5.19,3.74,5.20,3.76,-3.76,-3.70,-4.17,1.43,1.44,1.45
126.03,5.20,3.81,5.20,3.82,-3.82,-3.75,-4.19,1.38,1.39,1.39
127.29,5.21,3.87,5.20,3.87,-3.87,-3.80,-4.22,1.34,1.33,1.34
128.57,5.21,3.94,5.19,3.91,-3.91,-3.84,-4.24,1.30,1.28,1.27
129.85,5.20,3.98,5.18,3.96,-3.96,-3.89,-4.25,1.24,1.22,1.22
131.15,5.19,4.03,5.17,4.00,-4.00,-3.94,-4.26,1.19,1.17,1.16
132.46,5.18,4.07,5.15,4.04,-4.04,-3.98,-4.26,1.14,1.11,1.11
133.79,5.15,4.10,5.13,4.07,-4.07,-4.02,-4.26,1.08,1.06,1.05
135.12,5.11,4.11,5.11,4.10,-4.10,-4.07,-4.26,1.01,1.01,1.00
136.48,5.09,4.14,5.08,4.13,-4.13,-4.11,-4.26,0.96,0.95,0.95
137.84,5.05,4.15,5.05,4.15,-4.15,-4.15,-4.25,0.90,0.90,0.90
139.22,5.02,4.18,5.02,4.17,-4.17,-4.19,-4.24,0.85,0.85,0.84
140.61,4.99,4.19,4.99,4.18,-4.18,-4.24,-4.23,0.81,0.80,0.80
142.02,4.94,4.20,4.96,4.20,-4.20,-4.28,-4.21,0.74,0.75,0.74
143.44,4.92,4.22,4.93,4.22,-4.22,-4.31,-4.20,0.70,0.71,0.70
144.87,4.89,4.23,4.91,4.25,-4.25,-4.35,-4.18,0.64,0.66,0.66
146.32,4.88,4.27,4.90,4.28,-4.28,-4.39,-4.17,0.60,0.62,0.61
147.78,4.85,4.28,4.88,4.31,-4.31,-4.43,-4.15,0.54,0.57,0.57
149.26,4.84,4.32,4.88,4.35,-4.35,-4.46,-4.14,0.49,0.53,0.52
150.75,4.84,4.36,4.87,4.38,-4.38,-4.50,-4.12,0.46,0.49,0.48
152.26,4.85,4.41,4.87,4.42,-4.42,-4.53,-4.11,0.43,0.44,0.44
153.78,4.87,4.47,4.86,4.46,-4.46,-4.56,-4.10,0.41,0.40,0.40
155.32,4.88,4.52,4.86,4.50,-4.50,-4.60,-4.08,0.38,0.36,0.36
156.88,4.89,4.58,4.86,4.54,-4.54,-4.63,-4.07,0.35,0.31,0.31
158.44,4.88,4.62,4.85,4.58,-4.58,-4.66,-4.07,0.30,0.27,0.26
160.03,4.87,4.65,4.84,4.62,-4.62,-4.69,-4.06,0.25,0.22,0.22
161.63,4.85,4.67,4.83,4.65,-4.65,-4.71,-4.06,0.20,0.18,0.18
163.24,4.83,4.70,4.81,4.68,-4.68,-4.74,-4.06,0.15,0.13,0.13
164.88,4.79,4.71,4.79,4.70,-4.70,-4.77,-4.06,0.09,0.09,0.08
166.53,4.77,4.74,4.76,4.72,-4.72,-4.79,-4.07,0.05,0.04,0.03
168.19,4.74,4.74,4.73,4.74,-4.74,-4.81,-4.08,0.00,-0.01,0.00
169.87,4.70,4.76,4.70,4.76,-4.76,-4.84,-4.09,-0.06,-0.05,-0.06
171.57,4.67,4.78,4.67,4.78,-4.78,-4.86,-4.10,-0.11,-0.10,-0.11
173.29,4.64,4.79,4.65,4.80,-4.80,-4.88,-4.12,-0.16,-0.15,-0.15
175.02,4.60,4.80,4.62,4.82,-4.82,-4.90,-4.14,-0.22,-0.20,-0.20
176.77,4.57,4.82,4.60,4.84,-4.84,-4.92,-4.16,-0.27,-0.24,-0.25
178.54,4.55,4.84,4.59,4.87,-4.87,-4.93,-4.19,-0.32,-0.29,-0.29
180.32,4.54,4.89,4.57,4.90,-4.90,-4.95,-4.22,-0.36,-0.33,-0.35
182.13,4.54,4.92,4.56,4.94,-4.94,-4.96,-4.26,-0.40,-0.38,-0.38
183.95,4.54,4.97,4.54,4.97,-4.97,-4.98,-4.29,-0.43,-0.43,-0.43
185.79,4.54,5.02,4.53,5.00,-5.00,-4.99,-4.33,-0.46,-0.47,-0.48
187.65,4.54,5.06,4.51,5.03,-5.03,-5.00,-4.38,-0.49,-0.52,-0.52
189.52,4.53,5.09,4.50,5.06,-5.06,-5.01,-4.42,-0.53,-0.56,-0.56
191.42,4.52,5.12,4.48,5.09,-5.09,-5.02,-4.47,-0.57,-0.60,-0.60
193.33,4.49,5.13,4.47,5.11,-5.11,-5.03,-4.52,-0.62,-0.64,-0.64
195.27,4.46,5.15,4.45,5.13,-5.13,-5.04,-4.58,-0.67,-0.68,-0.69
197.22,4.43,5.17,4.43,5.15,-5.15,-5.04,-4.63,-0.72,-0.72,-0.74
199.19,4.40,5.17,4.40,5.16,-5.16,-5.05,-4.69,-0.76,-0.76,-0.77
201.18,4.37,5.18,4.38,5.17,-5.17,-5.05,-4.75,-0.80,-0.79,-0.81
203.19,4.33,5.17,4.35,5.18,-5.18,-5.05,-4.82,-0.85,-0.83,-0.84
205.23,4.30,5.16,4.32,5.19,-5.19,-5.05,-4.88,-0.89,-0.86,-0.86
207.28,4.28,5.17,4.30,5.19,-5.19,-5.05,-4.94,-0.91,-0.89,-0.89
209.35,4.26,5.19,4.27,5.20,-5.20,-5.05,-5.01,-0.94,-0.93,-0.93
211.44,4.24,5.20,4.25,5.21,-5.21,-5.05,-5.08,-0.97,-0.96,-0.96
213.56,4.22,5.20,4.23,5.21,-5.21,-5.04,-5.14,-0.99,-0.98,-0.98
215.69,4.21,5.22,4.21,5.22,-5.22,-5.04,-5.21,-1.01,-1.01,-1.01
217.85,4.19,5.23,4.18,5.22,-5.22,-5.03,-5.27,-1.03,-1.04,-1.04
220.03,4.18,5.25,4.16,5.22,-5.22,-5.03,-5.33,-1.04,-1.06,-1.07
222.23,4.16,5.26,4.14,5.23,-5.23,-5.02,-5.39,-1.07,-1.08,-1.10
224.45,4.14,5.25,4.12,5.23,-5.23,-5.01,-5.45,-1.09,-1.11,-1.11
226.70,4.10,5.24,4.10,5.23,-5.23,-5.00,-5.50,-1.13,-1.13,-1.14
228.96,4.06,5.21,4.07,5.22,-5.22,-4.99,-5.55,-1.16,-1.15,-1.15
231.25,4.04,5.21,4.04,5.21,-5.21,-4.97,-5.59,-1.17,-1.17,-1.17
233.57,4.01,5.20,4.01,5.20,-5.20,-4.96,-5.63,-1.19,-1.18,-1.19
235.90,3.98,5.18,3.98,5.18,-5.18,-4.95,-5.67,-1.20,-1.20,-1.20
238.26,3.96,5.19,3.95,5.17,-5.17,-4.93,-5.70,-1.21,-1.21,-1.23
240.64,3.93,5.15,3.93,5.15,-5.15,-4.91,-5.72,-1.22,-1.22,-1.22
243.05,3.90,5.14,3.90,5.13,-5.13,-4.90,-5.73,-1.23,-1.23,-1.24
245.48,3.86,5.11,3.87,5.11,-5.11,-4.88,-5.74,-1.25,-1.24,-1.25
247.93,3.82,5.08,3.84,5.09,-5.09,-4.86,-5.74,-1.27,-1.25,-1.26
250.41,3.80,5.05,3.81,5.07,-5.07,-4.84,-5.73,-1.27,-1.25,-1.25
252.92,3.77,5.03,3.78,5.04,-5.04,-4.82,-5.72,-1.27,-1.26,-1.26
255.45,3.75,5.02,3.75,5.01,-5.01,-4.80,-5.70,-1.26,-1.26,-1.27
258.00,3.74,5.01,3.72,4.99,-4.99,-4.77,-5.67,-1.25,-1.27,-1.27
260.58,3.71,4.98,3.69,4.96,-4.96,-4.75,-5.63,-1.25,-1.27,-1.27
263.19,3.68,4.95,3.66,4.93,-4.93,-4.73,-5.59,-1.25,-1.27,-1.27
265.82,3.64,4.92,3.63,4.90,-4.90,-4.70,-5.54,-1.26,-1.27,-1.28
268.48,3.61,4.89,3.60,4.87,-4.87,-4.68,-5.48,-1.26,-1.28,-1.28
271.16,3.56,4.84,3.57,4.85,-4.85,-4.65,-5.42,-1.29,-1.28,-1.28
273.87,3.51,4.79,3.54,4.82,-4.82,-4.62,-5.35,-1.31,-1.28,-1.28
276.61,3.48,4.76,3.50,4.79,-4.79,-4.59,-5.28,-1.31,-1.28,-1.28
279.38,3.45,4.75,3.47,4.76,-4.76,-4.56,-5.21,-1.30,-1.28,-1.30
282.17,3.43,4.73,3.44,4.72,-4.72,-4.54,-5.13,-1.29,-1.28,-1.30
284.99,3.41,4.70,3.40,4.68,-4.68,-4.51,-5.05,-1.27,-1.28,-1.29
287.84,3.38,4.66,3.37,4.65,-4.65,-4.47,-4.96,-1.27,-1.28,-1.28
290.72,3.35,4.64,3.33,4.61,-4.61,-4.44,-4.88,-1.26,-1.28,-1.29
293.63,3.32,4.60,3.30,4.58,-4.58,-4.41,-4.79,-1.26,-1.27,-1.28
296.57,3.29,4.56,3.27,4.54,-4.54,-4.38,-4.70,-1.25,-1.27,-1.27
299.53,3.25,4.52,3.24,4.51,-4.51,-4.35,-4.62,-1.26,-1.26,-1.27
302.53,3.20,4.45,3.22,4.47,-4.47,-4.31,-4.53,-1.27,-1.26,-1.25
305.55,3.16,4.42,3.19,4.44,-4.44,-4.28,-4.44,-1.28,-1.25,-1.26
308.61,3.13,4.38,3.15,4.40,-4.40,-4.24,-4.35,-1.27,-1.25,-1.25
311.69,3.10,4.34,3.12,4.36,-4.36,-4.21,-4.27,-1.26,-1.24,-1.24
314.81,3.09,4.33,3.08,4.31,-4.31,-4.17,-4.18,-1.22,-1.23,-1.24
317.96,3.07,4.30,3.05,4.27,-4.27,-4.14,-4.10,-1.20,-1.22,-1.23
321.14,3.04,4.26,3.02,4.23,-4.23,-4.10,-4.01,-1.19,-1.22,-1.22
324.35,3.01,4.23,2.99,4.19,-4.19,-4.06,-3.93,-1.18,-1.21,-1.22
327.59,2.97,4.16,2.96,4.16,-4.16,-4.03,-3.86,-1.19,-1.20,-1.19
330.87,2.92,4.12,2.93,4.12,-4.12,-3.99,-3.78,-1.20,-1.19,-1.20
334.18,2.88,4.07,2.90,4.08,-4.08,-3.95,-3.71,-1.20,-1.19,-1.19
337.52,2.84,4.03,2.87,4.04,-4.04,-3.91,-3.64,-1.20,-1.18,-1.19
340.90,2.81,3.98,2.83,4.00,-4.00,-3.88,-3.57,-1.19,-1.17,-1.17
344.30,2.78,3.94,2.80,3.96,-3.96,-3.84,-3.50,-1.18,-1.16,-1.16
347.75,2.77,3.93,2.76,3.91,-3.91,-3.80,-3.44,-1.14,-1.15,-1.16
351.23,2.75,3.91,2.72,3.87,-3.87,-3.76,-3.37,-1.12,-1.15,-1.16
354.74,2.71,3.84,2.69,3.82,-3.82,-3.72,-3.32,-1.11,-1.14,-1.13
358.28,2.67,3.81,2.65,3.78,-3.78,-3.68,-3.26,-1.11,-1.13,-1.14
361.87,2.62,3.75,2.62,3.74,-3.74,-3.64,-3.21,-1.12,-1.12,-1.13
365.49,2.57,3.69,2.58,3.70,-3.70,-3.60,-3.15,-1.13,-1.11,-1.12
369.14,2.53,3.63,2.55,3.65,-3.65,-3.56,-3.11,-1.12,-1.11,-1.10
372.83,2.49,3.59,2.51,3.61,-3.61,-3.52,-3.06,-1.12,-1.10,-1.10
376.56,2.45,3.55,2.47,3.56,-3.56,-3.48,-3.02,-1.11,-1.09,-1.10
380.33,2.43,3.52,2.43,3.51,-3.51,-3.44,-2.97,-1.08,-1.08,-1.09
384.13,2.41,3.48,2.39,3.46,-3.46,-3.40,-2.94,-1.05,-1.07,-1.07
387.97,2.37,3.44,2.35,3.41,-3.41,-3.36,-2.90,-1.04,-1.06,-1.07
391.85,2.33,3.39,2.31,3.36,-3.36,-3.32,-2.86,-1.03,-1.05,-1.06
395.77,2.29,3.34,2.28,3.32,-3.32,-3.28,-2.83,-1.03,-1.04,-1.05
399.73,2.24,3.28,2.24,3.27,-3.27,-3.24,-2.80,-1.03,-1.03,-1.04
403.72,2.19,3.20,2.21,3.23,-3.23,-3.20,-2.77,-1.04,-1.02,-1.01
407.76,2.14,3.16,2.17,3.18,-3.18,-3.16,-2.74,-1.04,-1.01,-1.02
411.84,2.11,3.12,2.13,3.14,-3.14,-3.11,-2.72,-1.03,-1.00,-1.01
415.96,2.09,3.08,2.10,3.09,-3.09,-3.07,-2.69,-1.00,-0.99,-0.99
420.12,2.06,3.05,2.06,3.04,-3.04,-3.03,-2.67,-0.98,-0.98,-0.99
424.32,2.04,3.02,2.02,3.00,-3.00,-2.99,-2.65,-0.96,-0.97,-0.98
428.56,2.01,2.97,1.99,2.95,-2.95,-2.95,-2.63,-0.94,-0.97,-0.96
432.85,1.97,2.92,1.95,2.91,-2.91,-2.91,-2.61,-0.94,-0.96,-0.95
437.18,1.93,2.89,1.92,2.87,-2.87,-2.87,-2.59,-0.94,-0.95,-0.96
441.55,1.89,2.84,1.89,2.83,-2.83,-2.83,-2.57,-0.94,-0.94,-0.95
445.96,1.85,2.79,1.86,2.79,-2.79,-2.79,-2.55,-0.94,-0.93,-0.94
450.42,1.81,2.74,1.83,2.75,-2.75,-2.75,-2.53,-0.94,-0.92,-0.93
454.93,1.79,2.71,1.80,2.71,-2.71,-2.71,-2.52,-0.92,-0.91,-0.92
459.48,1.76,2.67,1.77,2.67,-2.67,-2.66,-2.50,-0.91,-0.90,-0.91
464.07,1.74,2.63,1.74,2.64,-2.64,-2.62,-2.48,-0.90,-0.89,-0.89
468.71,1.72,2.60,1.72,2.60,-2.60,-2.58,-2.46,-0.88,-0.89,-0.88
473.40,1.69,2.57,1.69,2.57,-2.57,-2.54,-2.44,-0.88,-0.88,-0.88
478.13,1.67,2.54,1.67,2.54,-2.54,-2.50,-2.42,-0.87,-0.87,-0.87
482.91,1.65,2.51,1.65,2.51,-2.51,-2.46,-2.40,-0.86,-0.85,-0.86
487.74,1.63,2.48,1.63,2.47,-2.47,-2.42,-2.38,-0.84,-0.84,-0.85
492.62,1.61,2.45,1.61,2.44,-2.44,-2.38,-2.36,-0.83,-0.83,-0.84
497.55,1.58,2.41,1.59,2.41,-2.41,-2.34,-2.33,-0.83,-0.82,-0.83
502.52,1.56,2.38,1.57,2.38,-2.38,-2.30,-2.31,-0.82,-0.81,-0.82
507.55,1.55,2.35,1.54,2.34,-2.34,-2.26,-2.28,-0.79,-0.80,-0.80
512.62,1.53,2.32,1.51,2.30,-2.30,-2.22,-2.26,-0.77,-0.78,-0.79
517.75,1.50,2.27,1.48,2.25,-2.25,-2.19,-2.23,-0.75,-0.77,-0.77
522.93,1.47,2.23,1.44,2.20,-2.20,-2.15,-2.20,-0.73,-0.76,-0.76
528.16,1.43,2.18,1.41,2.16,-2.16,-2.11,-2.17,-0.73,-0.75,-0.75
