frequency,raw,error,smoothed,error_smoothed,equalization,parametric_eq,fixed_band_eq,equalized_raw,equalized_smoothed,target
20.00,-3.64,-6.94,-3.64,-6.94,6.94,6.98,2.34,3.31,3.31,3.30
20.20,-3.60,-6.90,-3.60,-6.91,6.90,6.94,2.41,3.31,3.30,3.30
20.40,-3.57,-6.87,-3.56,-6.87,6.87,6.89,2.48,3.30,3.30,3.30
20.61,-3.53,-6.83,-3.53,-6.83,6.83,6.85,2.55,3.30,3.30,3.30
20.81,-3.49,-6.79,-3.49,-6.79,6.79,6.81,2.63,3.30,3.30,3.30
21.02,-3.45,-6.75,-3.45,-6.74,6.74,6.77,2.70,3.30,3.30,3.30
21.23,-3.41,-6.69,-3.41,-6.70,6.70,6.72,2.78,3.29,3.29,3.28
21.44,-3.39,-6.66,-3.38,-6.66,6.66,6.68,2.86,3.27,3.27,3.27
21.66,-3.36,-6.61,-3.36,-6.61,6.61,6.64,2.95,3.26,3.26,3.25
21.87,-3.34,-6.57,-3.33,-6.57,6.57,6.59,3.03,3.23,3.24,3.23
22.09,-3.30,-6.52,-3.30,-6.52,6.52,6.55,3.12,3.22,3.22,3.22
22.31,-3.28,-6.47,-3.28,-6.47,6.47,6.50,3.21,3.20,3.19,3.19
22.54,-3.26,-6.43,-3.25,-6.43,6.42,6.46,3.31,3.17,3.17,3.17
22.76,-3.23,-6.38,-3.23,-6.38,6.38,6.42,3.40,3.15,3.14,3.15
22.99,-3.21,-6.33,-3.21,-6.33,6.33,6.37,3.50,3.12,3.12,3.12
23.22,-3.19,-6.28,-3.18,-6.28,6.28,6.33,3.60,3.09,3.10,3.09
23.45,-3.16,-6.22,-3.16,-6.23,6.23,6.28,3.70,3.08,3.07,3.06
23.69,-3.14,-6.19,-3.13,-6.18,6.19,6.24,3.81,3.05,3.06,3.05
23.92,-3.11,-6.14,-3.11,-6.14,6.15,6.19,3.91,3.04,3.04,3.03
24.16,-3.09,-6.11,-3.09,-6.11,6.11,6.15,4.02,3.02,3.02,3.02
24.40,-3.07,-6.07,-3.07,-6.07,6.07,6.10,4.13,3.00,3.00,3.00
24.65,-3.05,-6.03,-3.05,-6.03,6.03,6.06,4.24,2.98,2.98,2.98
24.89,-3.03,-5.99,-3.02,-5.99,5.99,6.01,4.36,2.96,2.97,2.96
25.14,-3.00,-5.95,-3.00,-5.95,5.95,5.97,4.47,2.95,2.95,2.95
25.39,-2.98,-5.91,-2.98,-5.91,5.91,5.92,4.59,2.93,2.93,2.93
25.65,-2.96,-5.88,-2.95,-5.87,5.87,5.88,4.70,2.91,2.92,2.92
25.91,-2.93,-5.82,-2.93,-5.83,5.83,5.83,4.82,2.90,2.90,2.89
26.16,-2.91,-5.79,-2.91,-5.79,5.79,5.79,4.93,2.88,2.88,2.88
26.43,-2.88,-5.75,-2.88,-5.74,5.75,5.74,5.05,2.87,2.87,2.87
26.69,-2.86,-5.70,-2.85,-5.70,5.71,5.69,5.16,2.85,2.85,2.84
26.96,-2.83,-5.66,-2.83,-5.66,5.67,5.65,5.27,2.84,2.84,2.83
27.23,-2.80,-5.62,-2.80,-5.62,5.63,5.60,5.38,2.83,2.82,2.82
27.50,-2.78,-5.59,-2.78,-5.59,5.59,5.56,5.49,2.81,2.81,2.81
27.77,-2.76,-5.55,-2.75,-5.55,5.55,5.51,5.59,2.79,2.79,2.79
28.05,-2.73,-5.51,-2.73,-5.51,5.51,5.46,5.69,2.78,2.78,2.78
28.33,-2.71,-5.47,-2.70,-5.47,5.47,5.42,5.78,2.76,2.76,2.76
28.62,-2.68,-5.43,-2.68,-5.43,5.43,5.37,5.87,2.75,2.75,2.75
28.90,-2.65,-5.38,-2.65,-5.38,5.39,5.33,5.95,2.74,2.73,2.73
29.19,-2.63,-5.34,-2.62,-5.34,5.34,5.28,6.02,2.71,2.72,2.71
29.48,-2.59,-5.30,-2.59,-5.30,5.30,5.23,6.09,2.71,2.71,2.71
29.78,-2.55,-5.25,-2.55,-5.25,5.25,5.19,6.15,2.70,2.70,2.70
30.08,-2.52,-5.21,-2.51,-5.21,5.20,5.14,6.19,2.68,2.69,2.69
30.38,-2.48,-5.15,-2.48,-5.15,5.15,5.09,6.23,2.67,2.67,2.67
30.68,-2.44,-5.10,-2.44,-5.10,5.10,5.05,6.26,2.67,2.66,2.66
30.99,-2.41,-5.04,-2.41,-5.05,5.05,5.00,6.28,2.65,2.65,2.63
31.30,-2.38,-5.00,-2.38,-5.00,5.01,4.96,6.28,2.63,2.63,2.62
31.61,-2.35,-4.96,-2.35,-4.96,4.96,4.91,6.28,2.61,2.61,2.61
31.93,-2.33,-4.92,-2.33,-4.92,4.91,4.86,6.26,2.59,2.59,2.59
32.24,-2.31,-4.87,-2.30,-4.87,4.87,4.82,6.24,2.56,2.57,2.56
32.57,-2.28,-4.82,-2.28,-4.83,4.83,4.77,6.20,2.55,2.55,2.54
32.89,-2.26,-4.79,-2.25,-4.78,4.78,4.72,6.16,2.53,2.53,2.53
33.22,-2.23,-4.73,-2.23,-4.74,4.74,4.68,6.11,2.51,2.51,2.50
33.55,-2.21,-4.70,-2.21,-4.70,4.69,4.63,6.05,2.49,2.49,2.49
33.89,-2.19,-4.65,-2.18,-4.65,4.65,4.58,5.98,2.46,2.46,2.46
34.23,-2.16,-4.60,-2.16,-4.60,4.60,4.54,5.91,2.44,2.44,2.44
34.57,-2.13,-4.55,-2.13,-4.55,4.55,4.49,5.82,2.42,2.42,2.42
34.92,-2.10,-4.50,-2.10,-4.50,4.50,4.44,5.74,2.40,2.40,2.40
35.27,-2.07,-4.45,-2.07,-4.45,4.45,4.40,5.64,2.38,2.38,2.38
35.62,-2.04,-4.40,-2.04,-4.40,4.40,4.35,5.55,2.36,2.36,2.36
35.97,-2.01,-4.35,-2.01,-4.35,4.35,4.31,5.45,2.34,2.34,2.34
36.33,-1.97,-4.29,-1.97,-4.30,4.30,4.26,5.35,2.33,2.32,2.32
36.70,-1.95,-4.25,-1.94,-4.24,4.24,4.21,5.24,2.30,2.30,2.30
37.06,-1.91,-4.19,-1.91,-4.19,4.19,4.17,5.14,2.28,2.28,2.28
37.43,-1.88,-4.14,-1.88,-4.14,4.14,4.12,5.03,2.26,2.26,2.26
37.81,-1.85,-4.09,-1.84,-4.08,4.08,4.07,4.92,2.24,2.24,2.24
38.19,-1.81,-4.02,-1.81,-4.03,4.03,4.03,4.81,2.22,2.22,2.21
38.57,-1.78,-3.98,-1.78,-3.97,3.97,3.98,4.71,2.20,2.20,2.20
38.95,-1.75,-3.92,-1.74,-3.92,3.92,3.93,4.60,2.17,2.18,2.17
39.34,-1.71,-3.86,-1.71,-3.86,3.86,3.89,4.50,2.16,2.16,2.15
39.74,-1.67,-3.80,-1.67,-3.81,3.81,3.84,4.40,2.14,2.14,2.13
40.14,-1.64,-3.76,-1.63,-3.75,3.75,3.79,4.29,2.11,2.12,2.12
40.54,-1.60,-3.70,-1.60,-3.70,3.70,3.75,4.19,2.10,2.10,2.10
40.94,-1.56,-3.64,-1.56,-3.64,3.64,3.70,4.10,2.08,2.08,2.08
41.35,-1.52,-3.57,-1.52,-3.58,3.58,3.65,4.00,2.07,2.07,2.05
41.76,-1.48,-3.53,-1.48,-3.52,3.53,3.60,3.91,2.05,2.05,2.05
42.18,-1.44,-3.47,-1.44,-3.47,3.47,3.56,3.82,2.04,2.03,2.03
42.60,-1.41,-3.42,-1.40,-3.42,3.41,3.51,3.73,2.01,2.01,2.01
43.03,-1.37,-3.37,-1.37,-3.36,3.36,3.46,3.65,1.99,1.99,2.00
43.46,-1.33,-3.30,-1.33,-3.30,3.30,3.42,3.57,1.97,1.97,1.97
43.90,-1.29,-3.24,-1.29,-3.24,3.24,3.37,3.49,1.95,1.95,1.95
44.33,-1.25,-3.18,-1.25,-3.18,3.18,3.32,3.41,1.94,1.93,1.93
44.78,-1.22,-3.13,-1.21,-3.12,3.13,3.27,3.33,1.91,1.91,1.91
45.23,-1.18,-3.06,-1.18,-3.06,3.07,3.22,3.26,1.89,1.89,1.88
45.68,-1.15,-3.01,-1.15,-3.01,3.02,3.18,3.19,1.87,1.87,1.86
46.13,-1.11,-2.96,-1.11,-2.96,2.96,3.13,3.13,1.86,1.86,1.85
46.60,-1.08,-2.92,-1.07,-2.91,2.91,3.08,3.06,1.84,1.84,1.84
47.06,-1.04,-2.86,-1.04,-2.86,2.86,3.03,3.00,1.82,1.82,1.82
47.53,-1.01,-2.81,-1.01,-2.82,2.81,2.98,2.94,1.80,1.80,1.80
48.01,-0.98,-2.77,-0.98,-2.76,2.76,2.93,2.89,1.78,1.78,1.79
48.49,-0.95,-2.71,-0.95,-2.71,2.70,2.88,2.83,1.76,1.76,1.76
48.97,-0.92,-2.65,-0.92,-2.65,2.65,2.83,2.78,1.73,1.73,1.73
49.46,-0.89,-2.59,-0.89,-2.59,2.60,2.78,2.73,1.71,1.71,1.70
49.96,-0.86,-2.53,-0.86,-2.54,2.54,2.73,2.68,1.69,1.69,1.67
50.46,-0.83,-2.49,-0.83,-2.49,2.49,2.68,2.64,1.66,1.66,1.66
50.96,-0.80,-2.44,-0.80,-2.44,2.44,2.63,2.59,1.64,1.64,1.64
51.47,-0.78,-2.39,-0.77,-2.39,2.39,2.58,2.55,1.61,1.62,1.61
51.99,-0.75,-2.34,-0.75,-2.34,2.34,2.53,2.50,1.59,1.59,1.59
52.51,-0.72,-2.29,-0.72,-2.29,2.29,2.47,2.46,1.57,1.57,1.57
53.03,-0.70,-2.25,-0.69,-2.24,2.24,2.42,2.42,1.55,1.55,1.55
53.56,-0.67,-2.19,-0.67,-2.19,2.19,2.37,2.38,1.53,1.53,1.52
54.10,-0.64,-2.14,-0.64,-2.14,2.14,2.32,2.34,1.51,1.50,1.50
54.64,-0.62,-2.09,-0.62,-2.09,2.09,2.26,2.30,1.48,1.48,1.47
55.18,-0.60,-2.05,-0.59,-2.04,2.04,2.21,2.26,1.45,1.45,1.45
55.74,-0.57,-1.99,-0.57,-2.00,1.99,2.15,2.23,1.43,1.42,1.42
56.29,-0.55,-1.95,-0.54,-1.94,1.94,2.10,2.19,1.40,1.40,1.40
56.86,-0.52,-1.89,-0.52,-1.89,1.89,2.04,2.15,1.38,1.38,1.37
57.42,-0.49,-1.84,-0.49,-1.85,1.85,1.99,2.11,1.36,1.35,1.35
58.00,-0.47,-1.80,-0.46,-1.79,1.80,1.93,2.06,1.33,1.33,1.33
58.58,-0.45,-1.75,-0.44,-1.75,1.75,1.87,2.02,1.30,1.31,1.30
59.16,-0.41,-1.69,-0.42,-1.70,1.70,1.81,1.98,1.29,1.28,1.28
59.76,-0.40,-1.66,-0.39,-1.65,1.65,1.76,1.93,1.25,1.26,1.26
60.35,-0.37,-1.60,-0.37,-1.60,1.59,1.70,1.89,1.23,1.23,1.23
60.96,-0.35,-1.56,-0.34,-1.55,1.54,1.64,1.84,1.19,1.20,1.21
61.57,-0.31,-1.48,-0.31,-1.48,1.48,1.58,1.79,1.18,1.17,1.17
62.18,-0.28,-1.42,-0.28,-1.42,1.43,1.52,1.73,1.15,1.15,1.14
62.80,-0.25,-1.36,-0.25,-1.36,1.37,1.45,1.68,1.12,1.12,1.11
63.43,-0.23,-1.31,-0.23,-1.31,1.32,1.39,1.62,1.09,1.09,1.08
64.07,-0.21,-1.26,-0.20,-1.26,1.26,1.33,1.56,1.05,1.06,1.05
64.71,-0.17,-1.20,-0.18,-1.21,1.21,1.27,1.50,1.04,1.03,1.03
65.35,-0.15,-1.16,-0.15,-1.16,1.15,1.20,1.44,1.01,1.01,1.01
66.01,-0.13,-1.12,-0.12,-1.11,1.10,1.14,1.38,0.98,0.99,0.99
66.67,-0.09,-1.05,-0.09,-1.06,1.05,1.07,1.31,0.97,0.96,0.96
67.33,-0.06,-1.00,-0.06,-1.00,1.00,1.00,1.24,0.95,0.94,0.94
68.01,-0.04,-0.95,-0.03,-0.95,0.95,0.94,1.17,0.92,0.92,0.91
68.69,-0.01,-0.90,-0.01,-0.90,0.90,0.87,1.10,0.89,0.89,0.89
69.37,0.01,-0.85,0.01,-0.85,0.85,0.80,1.02,0.86,0.86,0.86
70.07,0.04,-0.79,0.04,-0.80,0.80,0.73,0.94,0.84,0.84,0.83
70.77,0.06,-0.75,0.06,-0.75,0.74,0.66,0.87,0.81,0.81,0.81
71.48,0.09,-0.69,0.09,-0.69,0.69,0.59,0.79,0.78,0.78,0.78
72.19,0.11,-0.64,0.12,-0.63,0.63,0.52,0.70,0.75,0.75,0.75
72.91,0.14,-0.57,0.14,-0.58,0.58,0.45,0.62,0.72,0.71,0.71
73.64,0.16,-0.52,0.16,-0.52,0.52,0.37,0.54,0.68,0.68,0.68
74.38,0.18,-0.47,0.19,-0.45,0.46,0.30,0.45,0.64,0.65,0.65
75.12,0.22,-0.38,0.22,-0.39,0.40,0.23,0.37,0.62,0.61,0.60
75.87,0.24,-0.33,0.24,-0.33,0.34,0.15,0.28,0.58,0.58,0.57
76.63,0.26,-0.28,0.26,-0.27,0.28,0.08,0.19,0.54,0.54,0.54
77.40,0.28,-0.22,0.28,-0.21,0.22,-0.00,0.10,0.50,0.50,0.50
78.17,0.30,-0.14,0.30,-0.16,0.16,-0.08,0.01,0.46,0.46,0.44
78.95,0.32,-0.10,0.32,-0.09,0.09,-0.15,-0.08,0.42,0.41,0.42
79.74,0.34,-0.04,0.34,-0.04,0.03,-0.23,-0.17,0.37,0.37,0.38
80.54,0.36,0.03,0.37,0.03,-0.04,-0.31,-0.26,0.33,0.33,0.33
81.35,0.39,0.10,0.39,0.10,-0.10,-0.39,-0.36,0.29,0.29,0.29
82.16,0.42,0.18,0.42,0.18,-0.17,-0.47,-0.45,0.25,0.25,0.24
82.98,0.44,0.24,0.44,0.25,-0.24,-0.55,-0.54,0.20,0.20,0.20
83.81,0.47,0.33,0.47,0.32,-0.31,-0.63,-0.64,0.16,0.15,0.14
84.65,0.48,0.38,0.49,0.39,-0.39,-0.71,-0.74,0.10,0.10,0.10
85.50,0.52,0.46,0.52,0.46,-0.46,-0.79,-0.84,0.06,0.06,0.06
86.35,0.54,0.53,0.54,0.53,-0.54,-0.88,-0.93,0.01,0.01,0.01
87.22,0.57,0.61,0.58,0.61,-0.61,-0.96,-1.03,-0.04,-0.04,-0.04
88.09,0.60,0.70,0.60,0.69,-0.69,-1.04,-1.13,-0.09,-0.09,-0.10
88.97,0.63,0.77,0.63,0.77,-0.77,-1.12,-1.24,-0.13,-0.14,-0.14
89.86,0.65,0.84,0.66,0.85,-0.85,-1.21,-1.34,-0.19,-0.19,-0.19
90.76,0.68,0.93,0.68,0.93,-0.93,-1.29,-1.44,-0.25,-0.25,-0.25
91.66,0.71,1.01,0.71,1.01,-1.01,-1.37,-1.55,-0.30,-0.30,-0.30
92.58,0.74,1.10,0.75,1.10,-1.10,-1.45,-1.65,-0.35,-0.35,-0.36
93.51,0.78,1.18,0.78,1.18,-1.18,-1.54,-1.76,-0.40,-0.40,-0.40
94.44,0.82,1.27,0.82,1.27,-1.27,-1.62,-1.87,-0.45,-0.45,-0.45
95.39,0.85,1.36,0.85,1.36,-1.36,-1.70,-1.97,-0.51,-0.51,-0.51
96.34,0.88,1.46,0.89,1.46,-1.46,-1.79,-2.08,-0.57,-0.57,-0.58
97.30,0.92,1.55,0.92,1.55,-1.55,-1.87,-2.19,-0.63,-0.63,-0.63
98.28,0.96,1.65,0.96,1.65,-1.65,-1.95,-2.30,-0.69,-0.69,-0.69
99.26,0.99,1.75,1.00,1.75,-1.75,-2.04,-2.41,-0.75,-0.75,-0.76
100.25,1.03,1.84,1.03,1.84,-1.84,-2.12,-2.52,-0.81,-0.81,-0.81
101.25,1.07,1.94,1.07,1.94,-1.94,-2.20,-2.63,-0.87,-0.87,-0.87
102.27,1.10,2.04,1.11,2.04,-2.04,-2.28,-2.74,-0.94,-0.93,-0.94
103.29,1.14,2.15,1.15,2.14,-2.14,-2.36,-2.85,-1.00,-0.99,-1.01
104.32,1.18,2.24,1.18,2.24,-2.24,-2.44,-2.96,-1.06,-1.06,-1.06
105.37,1.22,2.34,1.22,2.34,-2.34,-2.52,-3.07,-1.12,-1.12,-1.12
106.42,1.24,2.43,1.25,2.44,-2.44,-2.60,-3.17,-1.20,-1.19,-1.19
107.48,1.28,2.54,1.28,2.54,-2.54,-2.68,-3.28,-1.26,-1.26,-1.26
108.56,1.32,2.65,1.32,2.64,-2.64,-2.76,-3.38,-1.32,-1.32,-1.33
109.64,1.36,2.75,1.36,2.75,-2.75,-2.84,-3.48,-1.38,-1.39,-1.39
110.74,1.39,2.84,1.40,2.85,-2.85,-2.91,-3.58,-1.46,-1.45,-1.45
111.85,1.43,2.95,1.43,2.95,-2.95,-2.99,-3.68,-1.52,-1.52,-1.52
112.97,1.46,3.06,1.46,3.05,-3.05,-3.06,-3.77,-1.59,-1.59,-1.60
114.10,1.49,3.15,1.49,3.15,-3.15,-3.13,-3.86,-1.66,-1.66,-1.66
115.24,1.52,3.25,1.52,3.25,-3.25,-3.21,-3.94,-1.73,-1.73,-1.73
116.39,1.55,3.35,1.55,3.35,-3.35,-3.28,-4.02,-1.79,-1.80,-1.80
117.55,1.58,3.45,1.58,3.44,-3.44,-3.35,-4.09,-1.86,-1.86,-1.87
118.73,1.60,3.53,1.61,3.53,-3.53,-3.42,-4.16,-1.93,-1.92,-1.93
119.92,1.63,3.62,1.63,3.62,-3.62,-3.49,-4.21,-1.99,-1.99,-1.99
121.12,1.65,3.70,1.65,3.70,-3.70,-3.55,-4.27,-2.05,-2.05,-2.05
122.33,1.67,3.79,1.67,3.78,-3.78,-3.62,-4.32,-2.11,-2.11,-2.12
123.55,1.69,3.86,1.69,3.86,-3.86,-3.68,-4.36,-2.17,-2.17,-2.17
124.79,1.71,3.94,1.71,3.94,-3.94,-3.74,-4.39,-2.23,-2.23,-2.23
126.03,1.73,4.01,1.73,4.01,-4.02,-3.81,-4.43,-2.29,-2.29,-2.28
127.29,1.75,4.09,1.75,4.09,-4.09,-3.86,-4.44,-2.34,-2.34,-2.34
128.57,1.76,4.17,1.77,4.17,-4.17,-3.92,-4.46,-2.40,-2.40,-2.41
129.85,1.78,4.24,1.78,4.24,-4.24,-3.98,-4.47,-2.45,-2.45,-2.46
131.15,1.79,4.30,1.79,4.30,-4.30,-4.03,-4.47,-2.51,-2.51,-2.51
132.46,1.80,4.37,1.80,4.37,-4.36,-4.09,-4.47,-2.56,-2.56,-2.57
133.79,1.81,4.42,1.81,4.42,-4.42,-4.14,-4.46,-2.61,-2.61,-2.61
135.12,1.81,4.48,1.81,4.47,-4.47,-4.19,-4.45,-2.66,-2.66,-2.67
136.48,1.81,4.51,1.81,4.51,-4.52,-4.24,-4.43,-2.71,-2.71,-2.70
137.84,1.81,4.55,1.82,4.56,-4.56,-4.28,-4.41,-2.75,-2.75,-2.74
139.22,1.82,4.61,1.82,4.60,-4.60,-4.33,-4.39,-2.78,-2.78,-2.79
140.61,1.82,4.65,1.82,4.64,-4.64,-4.37,-4.36,-2.81,-2.81,-2.83
142.02,1.82,4.67,1.82,4.67,-4.67,-4.42,-4.33,-2.84,-2.85,-2.85
143.44,1.81,4.69,1.81,4.70,-4.70,-4.45,-4.29,-2.88,-2.88,-2.88
144.87,1.80,4.72,1.81,4.72,-4.72,-4.49,-4.26,-2.92,-2.92,-2.92
146.32,1.80,4.75,1.80,4.74,-4.75,-4.53,-4.22,-2.94,-2.95,-2.95
147.78,1.79,4.76,1.80,4.77,-4.77,-4.56,-4.19,-2.98,-2.97,-2.97
149.26,1.79,4.79,1.79,4.79,-4.79,-4.60,-4.15,-3.00,-3.00,-3.00
150.75,1.78,4.82,1.78,4.81,-4.81,-4.63,-4.11,-3.03,-3.03,-3.04
152.26,1.77,4.83,1.77,4.83,-4.83,-4.65,-4.08,-3.06,-3.06,-3.06
153.78,1.76,4.85,1.77,4.85,-4.85,-4.68,-4.04,-3.09,-3.08,-3.09
155.32,1.76,4.87,1.76,4.87,-4.87,-4.71,-4.01,-3.11,-3.11,-3.11
156.88,1.75,4.89,1.75,4.89,-4.89,-4.73,-3.97,-3.14,-3.14,-3.14
158.44,1.73,4.90,1.74,4.91,-4.91,-4.75,-3.94,-3.18,-3.17,-3.17
160.03,1.73,4.93,1.73,4.93,-4.93,-4.77,-3.91,-3.20,-3.20,-3.20
161.63,1.72,4.95,1.72,4.95,-4.95,-4.79,-3.89,-3.23,-3.23,-3.23
163.24,1.71,4.97,1.71,4.97,-4.96,-4.80,-3.86,-3.25,-3.25,-3.26
164.88,1.70,4.98,1.70,4.98,-4.98,-4.82,-3.84,-3.27,-3.28,-3.28
166.53,1.68,4.98,1.68,4.99,-4.99,-4.83,-3.82,-3.30,-3.30,-3.30
168.19,1.66,5.00,1.66,5.00,-4.99,-4.84,-3.80,-3.33,-3.33,-3.34
169.87,1.63,5.00,1.63,5.00,-4.99,-4.85,-3.79,-3.36,-3.36,-3.37
171.57,1.60,5.00,1.60,4.99,-4.99,-4.85,-3.78,-3.38,-3.39,-3.40
173.29,1.55,4.97,1.56,4.98,-4.98,-4.86,-3.77,-3.43,-3.42,-3.42
175.02,1.51,4.97,1.51,4.97,-4.97,-4.86,-3.76,-3.46,-3.46,-3.46
176.77,1.46,4.96,1.46,4.96,-4.96,-4.87,-3.76,-3.49,-3.50,-3.50
178.54,1.41,4.95,1.41,4.95,-4.95,-4.86,-3.76,-3.53,-3.53,-3.54
180.32,1.36,4.93,1.36,4.93,-4.94,-4.86,-3.76,-3.58,-3.57,-3.57
182.13,1.32,4.92,1.32,4.92,-4.93,-4.86,-3.77,-3.61,-3.61,-3.60
183.95,1.28,4.92,1.28,4.92,-4.93,-4.85,-3.78,-3.65,-3.64,-3.64
185.79,1.25,4.93,1.25,4.93,-4.93,-4.85,-3.79,-3.68,-3.68,-3.68
187.65,1.22,4.94,1.22,4.94,-4.93,-4.84,-3.80,-3.71,-3.71,-3.72
189.52,1.19,4.94,1.20,4.94,-4.94,-4.83,-3.82,-3.75,-3.74,-3.75
191.42,1.18,4.95,1.18,4.95,-4.95,-4.82,-3.84,-3.77,-3.77,-3.77
193.33,1.16,4.95,1.16,4.95,-4.96,-4.80,-3.87,-3.79,-3.80,-3.79
195.27,1.14,4.96,1.14,4.96,-4.96,-4.79,-3.89,-3.82,-3.82,-3.82
197.22,1.11,4.96,1.12,4.97,-4.97,-4.77,-3.92,-3.85,-3.85,-3.85
199.19,1.09,4.99,1.09,4.97,-4.97,-4.75,-3.95,-3.87,-3.88,-3.90
201.18,1.06,4.97,1.06,4.97,-4.96,-4.73,-3.98,-3.90,-3.91,-3.91
203.19,1.02,4.95,1.03,4.96,-4.96,-4.71,-4.01,-3.93,-3.93,-3.93
205.23,0.99,4.94,0.99,4.94,-4.94,-4.69,-4.04,-3.95,-3.95,-3.95
207.28,0.96,4.92,0.96,4.92,-4.92,-4.67,-4.08,-3.96,-3.97,-3.96
209.35,0.91,4.90,0.92,4.90,-4.90,-4.64,-4.11,-3.98,-3.98,-3.99
211.44,0.87,4.88,0.87,4.88,-4.87,-4.61,-4.15,-3.99,-4.00,-4.01
213.56,0.81,4.84,0.81,4.83,-4.83,-4.59,-4.18,-4.02,-4.02,-4.03
215.69,0.75,4.78,0.75,4.78,-4.79,-4.56,-4.22,-4.04,-4.04,-4.03
217.85,0.68,4.72,0.69,4.74,-4.74,-4.53,-4.25,-4.06,-4.05,-4.04
220.03,0.63,4.70,0.63,4.69,-4.69,-4.50,-4.28,-4.06,-4.06,-4.07
222.23,0.56,4.64,0.57,4.64,-4.63,-4.46,-4.31,-4.07,-4.07,-4.08
224.45,0.50,4.57,0.50,4.58,-4.57,-4.43,-4.34,-4.07,-4.07,-4.07
226.70,0.43,4.51,0.43,4.51,-4.51,-4.39,-4.37,-4.08,-4.08,-4.08
228.96,0.36,4.44,0.36,4.44,-4.44,-4.36,-4.39,-4.08,-4.08,-4.08
231.25,0.29,4.36,0.29,4.36,-4.36,-4.32,-4.41,-4.07,-4.07,-4.07
233.57,0.22,4.28,0.22,4.28,-4.28,-4.28,-4.42,-4.06,-4.06,-4.06
235.90,0.14,4.20,0.14,4.20,-4.19,-4.24,-4.43,-4.05,-4.05,-4.06
238.26,0.06,4.12,0.06,4.11,-4.10,-4.20,-4.44,-4.04,-4.04,-4.06
240.64,-0.03,4.01,-0.03,4.01,-4.00,-4.16,-4.44,-4.03,-4.03,-4.04
243.05,-0.12,3.90,-0.12,3.90,-3.90,-4.12,-4.44,-4.01,-4.02,-4.02
245.48,-0.22,3.78,-0.21,3.79,-3.79,-4.08,-4.42,-4.01,-4.00,-4.00
247.93,-0.31,3.68,-0.30,3.68,-3.68,-4.03,-4.41,-3.99,-3.98,-3.99
250.41,-0.39,3.59,-0.39,3.58,-3.58,-3.99,-4.39,-3.96,-3.97,-3.98
252.92,-0.47,3.47,-0.47,3.47,-3.48,-3.94,-4.36,-3.94,-3.95,-3.94
255.45,-0.56,3.36,-0.55,3.37,-3.38,-3.89,-4.32,-3.94,-3.93,-3.92
258.00,-0.62,3.28,-0.61,3.28,-3.30,-3.85,-4.28,-3.91,-3.91,-3.90
260.58,-0.66,3.22,-0.67,3.21,-3.22,-3.80,-4.24,-3.88,-3.88,-3.88
263.19,-0.71,3.15,-0.71,3.15,-3.15,-3.75,-4.19,-3.85,-3.85,-3.86
265.82,-0.75,3.09,-0.74,3.09,-3.08,-3.70,-4.13,-3.83,-3.83,-3.84
268.48,-0.78,3.03,-0.78,3.03,-3.03,-3.65,-4.07,-3.80,-3.80,-3.81
271.16,-0.81,2.97,-0.81,2.97,-2.97,-3.60,-4.00,-3.78,-3.78,-3.78
273.87,-0.84,2.92,-0.83,2.92,-2.92,-3.54,-3.93,-3.76,-3.76,-3.76
276.61,-0.86,2.87,-0.86,2.87,-2.87,-3.49,-3.86,-3.73,-3.73,-3.73
279.38,-0.88,2.83,-0.88,2.83,-2.82,-3.44,-3.78,-3.70,-3.70,-3.71
282.17,-0.90,2.79,-0.90,2.78,-2.78,-3.38,-3.70,-3.67,-3.68,-3.69
284.99,-0.93,2.73,-0.92,2.74,-2.73,-3.33,-3.61,-3.66,-3.66,-3.66
287.84,-0.95,2.69,-0.94,2.69,-2.69,-3.27,-3.53,-3.64,-3.63,-3.64
290.72,-0.95,2.65,-0.96,2.65,-2.65,-3.22,-3.44,-3.60,-3.61,-3.60
293.63,-0.97,2.61,-0.97,2.61,-2.61,-3.16,-3.35,-3.58,-3.58,-3.58
296.57,-0.98,2.57,-0.97,2.58,-2.58,-3.10,-3.26,-3.55,-3.55,-3.55
299.53,-0.98,2.54,-0.98,2.54,-2.54,-3.05,-3.17,-3.52,-3.52,-3.52
302.53,-0.98,2.52,-0.98,2.51,-2.51,-2.99,-3.07,-3.49,-3.49,-3.50
305.55,-0.98,2.47,-0.97,2.48,-2.48,-2.93,-2.98,-3.45,-3.45,-3.45
308.61,-0.97,2.45,-0.97,2.45,-2.45,-2.87,-2.89,-3.42,-3.42,-3.42
311.69,-0.97,2.41,-0.96,2.41,-2.42,-2.81,-2.79,-3.39,-3.38,-3.38
314.81,-0.96,2.39,-0.96,2.39,-2.39,-2.75,-2.70,-3.35,-3.35,-3.35
317.96,-0.96,2.36,-0.96,2.36,-2.36,-2.69,-2.61,-3.31,-3.31,-3.32
321.14,-0.96,2.33,-0.96,2.33,-2.32,-2.63,-2.52,-3.28,-3.28,-3.29
324.35,-0.97,2.30,-0.97,2.29,-2.29,-2.57,-2.43,-3.26,-3.26,-3.27
327.59,-0.98,2.25,-0.98,2.25,-2.25,-2.51,-2.34,-3.23,-3.23,-3.23
330.87,-0.99,2.21,-0.99,2.21,-2.22,-2.45,-2.25,-3.20,-3.20,-3.20
334.18,-1.01,2.17,-1.00,2.17,-2.18,-2.39,-2.16,-3.18,-3.18,-3.18
337.52,-1.02,2.14,-1.02,2.14,-2.13,-2.32,-2.07,-3.15,-3.15,-3.16
340.90,-1.04,2.09,-1.04,2.09,-2.09,-2.26,-1.99,-3.13,-3.13,-3.13
344.30,-1.06,2.05,-1.06,2.04,-2.04,-2.20,-1.90,-3.10,-3.10,-3.11
347.75,-1.09,1.99,-1.08,2.00,-2.00,-2.13,-1.82,-3.09,-3.08,-3.08
351.23,-1.11,1.95,-1.11,1.95,-1.95,-2.07,-1.74,-3.06,-3.06,-3.06
354.74,-1.14,1.91,-1.14,1.91,-1.91,-2.01,-1.66,-3.04,-3.04,-3.05
358.28,-1.17,1.86,-1.17,1.86,-1.86,-1.94,-1.58,-3.03,-3.02,-3.03
361.87,-1.20,1.81,-1.20,1.81,-1.81,-1.88,-1.50,-3.01,-3.01,-3.01
365.49,-1.23,1.75,-1.23,1.76,-1.76,-1.82,-1.42,-2.99,-2.99,-2.98
369.14,-1.26,1.71,-1.26,1.71,-1.71,-1.75,-1.35,-2.97,-2.97,-2.97
372.83,-1.29,1.67,-1.29,1.66,-1.66,-1.69,-1.27,-2.95,-2.95,-2.96
376.56,-1.32,1.62,-1.32,1.62,-1.61,-1.62,-1.20,-2.93,-2.93,-2.94
380.33,-1.36,1.55,-1.35,1.56,-1.56,-1.56,-1.13,-2.91,-2.91,-2.91
384.13,-1.38,1.51,-1.38,1.51,-1.50,-1.49,-1.06,-2.88,-2.89,-2.89
387.97,-1.42,1.45,-1.42,1.45,-1.45,-1.43,-0.99,-2.87,-2.87,-2.87
391.85,-1.45,1.40,-1.45,1.40,-1.40,-1.36,-0.92,-2.85,-2.85,-2.85
395.77,-1.48,1.34,-1.48,1.35,-1.35,-1.30,-0.85,-2.83,-2.83,-2.82
399.73,-1.50,1.30,-1.50,1.30,-1.30,-1.24,-0.79,-2.80,-2.80,-2.80
403.72,-1.53,1.26,-1.53,1.26,-1.26,-1.17,-0.72,-2.78,-2.78,-2.79
407.76,-1.55,1.22,-1.55,1.22,-1.22,-1.11,-0.66,-2.76,-2.76,-2.77
411.84,-1.57,1.17,-1.57,1.18,-1.18,-1.04,-0.60,-2.74,-2.74,-2.74
415.96,-1.58,1.14,-1.58,1.14,-1.14,-0.98,-0.54,-2.72,-2.72,-2.72
420.12,-1.59,1.11,-1.59,1.10,-1.11,-0.91,-0.48,-2.69,-2.70,-2.70
424.32,-1.60,1.07,-1.60,1.07,-1.08,-0.85,-0.42,-2.67,-2.67,-2.67
428.56,-1.61,1.04,-1.60,1.04,-1.05,-0.79,-0.37,-2.65,-2.65,-2.65
432.85,-1.61,1.02,-1.61,1.02,-1.02,-0.72,-0.31,-2.63,-2.63,-2.63
437.18,-1.61,0.99,-1.61,0.99,-0.99,-0.66,-0.26,-2.60,-2.60,-2.60
441.55,-1.61,0.96,-1.61,0.96,-0.96,-0.59,-0.21,-2.57,-2.57,-2.57
445.96,-1.62,0.93,-1.62,0.93,-0.93,-0.53,-0.16,-2.54,-2.54,-2.55
450.42,-1.63,0.91,-1.63,0.90,-0.89,-0.47,-0.12,-2.52,-2.52,-2.54
454.93,-1.65,0.85,-1.65,0.86,-0.85,-0.41,-0.07,-2.50,-2.50,-2.50
459.48,-1.67,0.81,-1.67,0.81,-0.81,-0.34,-0.03,-2.47,-2.47,-2.48
464.07,-1.69,0.76,-1.69,0.75,-0.76,-0.28,0.01,-2.45,-2.45,-2.45
468.71,-1.71,0.70,-1.71,0.71,-0.71,-0.22,0.05,-2.42,-2.42,-2.41
473.40,-1.73,0.66,-1.73,0.66,-0.66,-0.16,0.08,-2.39,-2.39,-2.39
478.13,-1.74,0.62,-1.74,0.61,-0.61,-0.10,0.12,-2.35,-2.36,-2.36
482.91,-1.77,0.56,-1.76,0.57,-0.57,-0.04,0.15,-2.33,-2.33,-2.33
