frequency,raw,error,smoothed,error_smoothed,equalization,parametric_eq,fixed_band_eq,equalized_raw,equalized_smoothed,target
20.00,-8.23,-13.07,-8.23,-13.07,13.07,13.14,4.47,4.84,4.84,4.84
20.20,-8.12,-13.00,-8.12,-13.00,13.00,13.08,4.58,4.88,4.88,4.88
20.40,-8.00,-12.93,-8.01,-12.93,12.93,13.01,4.70,4.92,4.92,4.92
20.61,-7.90,-12.85,-7.90,-12.85,12.85,12.94,4.83,4.96,4.96,4.95
20.81,-7.78,-12.78,-7.79,-12.78,12.78,12.86,4.95,4.99,4.99,4.99
21.02,-7.68,-12.71,-7.68,-12.70,12.70,12.79,5.08,5.02,5.02,5.03
21.23,-7.57,-12.62,-7.57,-12.62,12.61,12.71,5.22,5.05,5.05,5.05
21.44,-7.45,-12.53,-7.45,-12.53,12.52,12.62,5.35,5.07,5.07,5.07
21.66,-7.35,-12.44,-7.34,-12.43,12.43,12.54,5.49,5.08,5.09,5.09
21.87,-7.22,-12.33,-7.23,-12.33,12.34,12.45,5.64,5.11,5.11,5.10
22.09,-7.11,-12.24,-7.11,-12.23,12.24,12.36,5.79,5.12,5.12,5.12
22.31,-7.00,-12.14,-7.00,-12.13,12.13,12.27,5.94,5.13,5.13,5.13
22.54,-6.89,-12.03,-6.89,-12.03,12.03,12.17,6.10,5.14,5.14,5.14
22.76,-6.77,-11.93,-6.78,-11.92,11.92,12.08,6.26,5.15,5.15,5.15
22.99,-6.67,-11.82,-6.66,-11.82,11.82,11.98,6.42,5.15,5.16,5.15
23.22,-6.55,-11.71,-6.55,-11.71,11.71,11.88,6.59,5.17,5.17,5.16
23.45,-6.43,-11.61,-6.43,-11.60,11.61,11.78,6.76,5.17,5.17,5.17
23.69,-6.32,-11.50,-6.32,-11.50,11.50,11.68,6.94,5.19,5.18,5.18
23.92,-6.20,-11.40,-6.20,-11.40,11.40,11.58,7.12,5.19,5.20,5.19
24.16,-6.08,-11.30,-6.08,-11.30,11.29,11.47,7.30,5.21,5.21,5.21
24.40,-5.96,-11.20,-5.97,-11.19,11.18,11.37,7.49,5.22,5.22,5.23
24.65,-5.86,-11.08,-5.85,-11.08,11.08,11.26,7.69,5.22,5.23,5.22
24.89,-5.73,-10.96,-5.73,-10.97,10.97,11.15,7.88,5.24,5.24,5.23
25.14,-5.61,-10.86,-5.62,-10.86,10.86,11.04,8.08,5.25,5.25,5.24
25.39,-5.50,-10.76,-5.50,-10.76,10.76,10.93,8.28,5.25,5.25,5.25
25.65,-5.39,-10.66,-5.38,-10.65,10.65,10.83,8.49,5.26,5.26,5.27
25.91,-5.27,-10.54,-5.27,-10.54,10.54,10.71,8.70,5.27,5.27,5.27
26.16,-5.14,-10.43,-5.15,-10.43,10.43,10.60,8.90,5.29,5.28,5.28
26.43,-5.03,-10.32,-5.03,-10.32,10.32,10.49,9.11,5.29,5.30,5.29
26.69,-4.91,-10.21,-4.91,-10.21,10.21,10.38,9.32,5.31,5.31,5.30
26.96,-4.79,-10.11,-4.79,-10.10,10.10,10.27,9.53,5.32,5.32,5.32
27.23,-4.67,-10.00,-4.67,-9.99,9.99,10.16,9.74,5.32,5.33,5.33
27.50,-4.55,-9.88,-4.55,-9.88,9.88,10.04,9.94,5.33,5.33,5.33
27.77,-4.43,-9.77,-4.43,-9.77,9.77,9.93,10.14,5.33,5.34,5.33
28.05,-4.31,-9.67,-4.31,-9.66,9.66,9.82,10.33,5.34,5.34,5.35
28.33,-4.19,-9.55,-4.19,-9.55,9.55,9.70,10.51,5.35,5.35,5.35
28.62,-4.07,-9.43,-4.07,-9.43,9.44,9.59,10.69,5.37,5.37,5.36
28.90,-3.94,-9.32,-3.95,-9.32,9.32,9.48,10.85,5.38,5.38,5.37
29.19,-3.83,-9.20,-3.83,-9.21,9.21,9.36,11.00,5.39,5.39,5.37
29.48,-3.71,-9.12,-3.71,-9.10,9.10,9.25,11.13,5.39,5.39,5.40
29.78,-3.60,-8.99,-3.60,-8.99,8.99,9.14,11.25,5.39,5.39,5.39
30.08,-3.48,-8.88,-3.47,-8.88,8.87,9.03,11.34,5.39,5.39,5.40
30.38,-3.35,-8.75,-3.35,-8.76,8.75,8.91,11.41,5.40,5.40,5.40
30.68,-3.22,-8.64,-3.22,-8.63,8.63,8.80,11.46,5.41,5.41,5.42
30.99,-3.09,-8.51,-3.08,-8.50,8.50,8.69,11.49,5.42,5.42,5.42
31.30,-2.95,-8.37,-2.95,-8.38,8.38,8.58,11.49,5.43,5.43,5.42
31.61,-2.82,-8.25,-2.81,-8.24,8.25,8.46,11.47,5.43,5.43,5.43
31.93,-2.68,-8.12,-2.68,-8.12,8.12,8.35,11.42,5.44,5.44,5.44
32.24,-2.54,-7.99,-2.55,-7.99,7.99,8.24,11.35,5.45,5.45,5.44
32.57,-2.42,-7.88,-2.41,-7.87,7.87,8.13,11.26,5.45,5.46,5.46
32.89,-2.27,-7.74,-2.28,-7.74,7.74,8.02,11.15,5.47,5.46,5.46
33.22,-2.14,-7.62,-2.15,-7.62,7.62,7.91,11.01,5.48,5.47,5.47
33.55,-2.02,-7.51,-2.02,-7.50,7.50,7.80,10.86,5.48,5.48,5.48
33.89,-1.90,-7.39,-1.90,-7.39,7.39,7.69,10.70,5.49,5.49,5.49
34.23,-1.78,-7.27,-1.78,-7.27,7.27,7.58,10.52,5.50,5.50,5.49
34.57,-1.67,-7.17,-1.66,-7.16,7.17,7.47,10.33,5.50,5.50,5.50
34.92,-1.56,-7.06,-1.56,-7.06,7.06,7.36,10.13,5.51,5.51,5.50
35.27,-1.46,-6.97,-1.46,-6.96,6.96,7.25,9.93,5.51,5.51,5.51
35.62,-1.36,-6.87,-1.36,-6.87,6.87,7.15,9.71,5.51,5.51,5.51
35.97,-1.26,-6.78,-1.26,-6.78,6.78,7.04,9.50,5.51,5.51,5.51
36.33,-1.17,-6.70,-1.17,-6.69,6.69,6.93,9.28,5.52,5.52,5.52
36.70,-1.09,-6.60,-1.09,-6.61,6.61,6.83,9.06,5.52,5.52,5.51
37.06,-1.00,-6.53,-1.00,-6.52,6.52,6.72,8.84,5.52,5.52,5.52
37.43,-0.92,-6.45,-0.92,-6.44,6.45,6.61,8.62,5.52,5.52,5.52
37.81,-0.85,-6.37,-0.85,-6.37,6.37,6.51,8.40,5.53,5.52,5.52
38.19,-0.78,-6.30,-0.78,-6.29,6.30,6.40,8.18,5.52,5.52,5.52
38.57,-0.71,-6.22,-0.71,-6.22,6.22,6.30,7.96,5.52,5.52,5.51
38.95,-0.64,-6.16,-0.64,-6.15,6.15,6.20,7.74,5.51,5.51,5.51
39.34,-0.57,-6.08,-0.57,-6.08,6.08,6.09,7.53,5.50,5.50,5.50
39.74,-0.51,-6.01,-0.50,-6.01,6.00,5.99,7.33,5.50,5.50,5.50
40.14,-0.43,-5.93,-0.43,-5.93,5.92,5.89,7.12,5.50,5.50,5.50
40.54,-0.35,-5.85,-0.35,-5.85,5.84,5.79,6.92,5.50,5.50,5.50
40.94,-0.26,-5.76,-0.27,-5.76,5.76,5.69,6.72,5.50,5.50,5.49
41.35,-0.19,-5.68,-0.18,-5.67,5.68,5.58,6.53,5.49,5.50,5.49
41.76,-0.09,-5.59,-0.10,-5.59,5.59,5.48,6.34,5.50,5.49,5.49
42.18,-0.00,-5.50,-0.01,-5.50,5.50,5.38,6.15,5.49,5.49,5.49
42.60,0.09,-5.41,0.09,-5.41,5.40,5.28,5.97,5.49,5.49,5.49
43.03,0.18,-5.31,0.18,-5.31,5.30,5.19,5.79,5.49,5.49,5.49
43.46,0.28,-5.21,0.28,-5.20,5.20,5.09,5.61,5.48,5.48,5.49
43.90,0.38,-5.09,0.39,-5.09,5.09,4.99,5.44,5.47,5.47,5.47
44.33,0.50,-4.98,0.49,-4.98,4.97,4.89,5.28,5.47,5.47,5.47
44.78,0.60,-4.86,0.61,-4.86,4.85,4.80,5.11,5.46,5.46,5.46
45.23,0.72,-4.74,0.73,-4.73,4.73,4.70,4.95,5.46,5.46,5.46
45.68,0.85,-4.61,0.85,-4.61,4.61,4.60,4.79,5.46,5.46,5.46
46.13,0.99,-4.47,0.98,-4.48,4.48,4.51,4.64,5.47,5.47,5.45
46.60,1.10,-4.36,1.10,-4.35,4.36,4.41,4.49,5.46,5.46,5.46
47.06,1.23,-4.23,1.22,-4.23,4.23,4.32,4.34,5.46,5.45,5.45
47.53,1.34,-4.11,1.34,-4.11,4.10,4.22,4.20,5.44,5.44,5.44
48.01,1.45,-4.00,1.46,-3.99,3.98,4.13,4.06,5.43,5.43,5.45
48.49,1.57,-3.86,1.58,-3.86,3.85,4.04,3.92,5.42,5.42,5.43
48.97,1.70,-3.72,1.69,-3.72,3.73,3.95,3.79,5.42,5.42,5.41
49.46,1.81,-3.60,1.80,-3.60,3.60,3.85,3.66,5.41,5.41,5.40
49.96,1.90,-3.48,1.91,-3.48,3.49,3.76,3.53,5.39,5.39,5.38
50.46,2.00,-3.38,2.00,-3.37,3.37,3.67,3.40,5.38,5.38,5.38
50.96,2.09,-3.27,2.09,-3.26,3.27,3.58,3.28,5.36,5.36,5.36
51.47,2.17,-3.16,2.18,-3.16,3.17,3.49,3.16,5.34,5.35,5.33
51.99,2.25,-3.07,2.25,-3.07,3.08,3.40,3.04,5.33,5.33,5.32
52.51,2.31,-3.00,2.32,-2.99,2.99,3.31,2.92,5.31,5.31,5.31
53.03,2.37,-2.92,2.38,-2.92,2.92,3.22,2.81,5.29,5.29,5.29
53.56,2.43,-2.85,2.43,-2.85,2.84,3.13,2.70,5.28,5.28,5.28
54.10,2.48,-2.77,2.48,-2.78,2.77,3.05,2.59,5.26,5.26,5.25
54.64,2.52,-2.72,2.53,-2.71,2.71,2.96,2.48,5.23,5.24,5.24
55.18,2.56,-2.65,2.57,-2.65,2.65,2.87,2.38,5.21,5.21,5.21
55.74,2.60,-2.58,2.60,-2.59,2.58,2.79,2.28,5.19,5.19,5.18
56.29,2.64,-2.54,2.64,-2.53,2.52,2.70,2.18,5.17,5.17,5.18
56.86,2.68,-2.47,2.69,-2.46,2.46,2.62,2.09,5.15,5.15,5.15
57.42,2.72,-2.40,2.72,-2.40,2.41,2.53,1.99,5.13,5.13,5.12
58.00,2.76,-2.34,2.76,-2.34,2.35,2.45,1.90,5.11,5.11,5.10
58.58,2.79,-2.29,2.80,-2.28,2.29,2.36,1.81,5.09,5.09,5.08
59.16,2.83,-2.23,2.83,-2.23,2.23,2.28,1.73,5.07,5.06,5.06
59.76,2.86,-2.18,2.86,-2.18,2.17,2.20,1.64,5.03,5.03,5.04
60.35,2.89,-2.12,2.90,-2.11,2.10,2.12,1.56,4.99,5.00,5.01
60.96,2.94,-2.04,2.94,-2.03,2.02,2.03,1.48,4.97,4.96,4.98
61.57,2.98,-1.95,2.99,-1.95,1.95,1.95,1.40,4.93,4.93,4.93
62.18,3.03,-1.86,3.03,-1.86,1.86,1.87,1.33,4.90,4.90,4.89
62.80,3.08,-1.79,3.08,-1.78,1.78,1.79,1.25,4.86,4.86,4.87
63.43,3.13,-1.69,3.14,-1.69,1.69,1.71,1.18,4.83,4.83,4.82
64.07,3.19,-1.59,3.19,-1.60,1.60,1.63,1.11,4.80,4.80,4.78
64.71,3.24,-1.51,3.24,-1.51,1.52,1.55,1.05,4.76,4.76,4.75
65.35,3.28,-1.43,3.29,-1.43,1.43,1.47,0.98,4.71,4.71,4.71
66.01,3.32,-1.35,3.33,-1.35,1.34,1.40,0.92,4.67,4.67,4.67
66.67,3.37,-1.27,3.37,-1.26,1.25,1.32,0.86,4.63,4.63,4.64
67.33,3.42,-1.18,3.42,-1.18,1.17,1.24,0.79,4.59,4.59,4.60
68.01,3.47,-1.09,3.48,-1.08,1.08,1.17,0.74,4.55,4.56,4.56
68.69,3.53,-0.99,3.53,-0.99,0.99,1.09,0.68,4.53,4.52,4.52
69.37,3.58,-0.90,3.58,-0.90,0.91,1.02,0.62,4.49,4.49,4.48
70.07,3.62,-0.82,3.63,-0.81,0.82,0.94,0.56,4.45,4.45,4.44
70.77,3.67,-0.73,3.67,-0.73,0.74,0.87,0.51,4.41,4.41,4.40
71.48,3.70,-0.67,3.71,-0.66,0.66,0.79,0.46,4.36,4.36,4.37
72.19,3.74,-0.58,3.75,-0.58,0.58,0.72,0.40,4.32,4.33,4.32
72.91,3.78,-0.51,3.78,-0.51,0.50,0.65,0.35,4.29,4.29,4.29
73.64,3.82,-0.43,3.82,-0.43,0.43,0.57,0.30,4.25,4.25,4.25
74.38,3.86,-0.36,3.86,-0.35,0.35,0.50,0.24,4.22,4.21,4.22
75.12,3.90,-0.28,3.91,-0.28,0.28,0.43,0.19,4.18,4.18,4.18
75.87,3.94,-0.21,3.95,-0.20,0.20,0.36,0.14,4.15,4.15,4.15
76.63,3.99,-0.13,3.99,-0.13,0.13,0.29,0.09,4.12,4.12,4.12
77.40,4.03,-0.06,4.04,-0.06,0.06,0.22,0.04,4.09,4.09,4.09
78.17,4.07,0.01,4.08,0.01,-0.01,0.15,-0.01,4.06,4.06,4.06
78.95,4.11,0.08,4.11,0.08,-0.08,0.09,-0.06,4.04,4.03,4.03
79.74,4.14,0.13,4.15,0.14,-0.14,0.02,-0.12,4.00,4.01,4.01
80.54,4.18,0.19,4.19,0.20,-0.20,-0.05,-0.17,3.98,3.98,3.99
81.35,4.22,0.26,4.22,0.26,-0.26,-0.12,-0.22,3.97,3.96,3.96
82.16,4.25,0.32,4.26,0.32,-0.31,-0.18,-0.27,3.95,3.95,3.93
82.98,4.28,0.36,4.28,0.37,-0.36,-0.25,-0.33,3.93,3.93,3.92
83.81,4.30,0.41,4.30,0.41,-0.40,-0.31,-0.38,3.90,3.90,3.89
84.65,4.31,0.45,4.32,0.45,-0.45,-0.38,-0.44,3.87,3.87,3.86
85.50,4.32,0.47,4.33,0.48,-0.49,-0.44,-0.49,3.83,3.84,3.85
86.35,4.35,0.52,4.35,0.52,-0.54,-0.50,-0.55,3.82,3.82,3.83
87.22,4.38,0.57,4.38,0.57,-0.58,-0.57,-0.61,3.81,3.80,3.81
88.09,4.41,0.62,4.42,0.62,-0.62,-0.63,-0.66,3.79,3.79,3.79
88.97,4.44,0.67,4.45,0.67,-0.67,-0.69,-0.72,3.78,3.78,3.77
89.86,4.47,0.71,4.47,0.72,-0.71,-0.75,-0.78,3.77,3.76,3.76
90.76,4.49,0.76,4.50,0.76,-0.75,-0.81,-0.84,3.74,3.74,3.73
91.66,4.51,0.80,4.52,0.80,-0.79,-0.87,-0.90,3.72,3.72,3.71
92.58,4.53,0.84,4.53,0.84,-0.84,-0.93,-0.96,3.70,3.70,3.69
93.51,4.55,0.87,4.55,0.88,-0.88,-0.99,-1.03,3.67,3.67,3.68
94.44,4.57,0.91,4.58,0.91,-0.93,-1.05,-1.09,3.65,3.65,3.66
95.39,4.60,0.96,4.60,0.96,-0.98,-1.10,-1.15,3.63,3.62,3.64
96.34,4.63,1.02,4.64,1.03,-1.04,-1.16,-1.22,3.60,3.60,3.61
97.30,4.67,1.09,4.67,1.09,-1.09,-1.22,-1.28,3.58,3.58,3.58
98.28,4.71,1.16,4.71,1.16,-1.16,-1.27,-1.35,3.56,3.56,3.55
99.26,4.75,1.22,4.76,1.23,-1.22,-1.33,-1.42,3.54,3.54,3.53
100.25,4.79,1.29,4.79,1.29,-1.28,-1.38,-1.48,3.52,3.52,3.50
101.25,4.82,1.35,4.82,1.35,-1.34,-1.43,-1.55,3.49,3.48,3.47
102.27,4.84,1.41,4.84,1.41,-1.40,-1.49,-1.62,3.44,3.44,3.43
103.29,4.85,1.45,4.86,1.45,-1.46,-1.54,-1.68,3.39,3.39,3.40
104.32,4.87,1.50,4.88,1.51,-1.53,-1.59,-1.75,3.35,3.35,3.37
105.37,4.90,1.57,4.91,1.58,-1.59,-1.64,-1.82,3.31,3.31,3.33
106.42,4.94,1.66,4.94,1.65,-1.66,-1.69,-1.88,3.28,3.28,3.28
107.48,4.97,1.72,4.97,1.73,-1.73,-1.74,-1.95,3.24,3.24,3.25
108.56,5.00,1.81,5.00,1.81,-1.80,-1.79,-2.01,3.20,3.20,3.19
109.64,5.02,1.88,5.03,1.88,-1.87,-1.83,-2.07,3.15,3.15,3.14
110.74,5.04,1.95,5.04,1.95,-1.94,-1.88,-2.13,3.10,3.10,3.09
111.85,5.05,2.01,5.05,2.02,-2.01,-1.93,-2.19,3.05,3.04,3.04
112.97,5.05,2.08,5.05,2.07,-2.07,-1.97,-2.25,2.98,2.98,2.97
114.10,5.04,2.12,5.05,2.13,-2.13,-2.02,-2.31,2.91,2.91,2.92
115.24,5.03,2.17,5.04,2.18,-2.19,-2.06,-2.36,2.85,2.85,2.86
116.39,5.03,2.24,5.03,2.24,-2.25,-2.11,-2.41,2.79,2.79,2.79
117.55,5.03,2.30,5.03,2.30,-2.30,-2.15,-2.46,2.73,2.73,2.73
118.73,5.03,2.36,5.03,2.36,-2.36,-2.19,-2.50,2.67,2.67,2.67
119.92,5.03,2.41,5.03,2.42,-2.42,-2.23,-2.54,2.62,2.61,2.62
121.12,5.03,2.47,5.04,2.47,-2.48,-2.27,-2.58,2.56,2.56,2.56
122.33,5.04,2.53,5.04,2.53,-2.54,-2.31,-2.62,2.51,2.51,2.51
123.55,5.05,2.59,5.05,2.59,-2.59,-2.35,-2.65,2.46,2.46,2.46
124.79,5.05,2.64,5.06,2.64,-2.64,-2.39,-2.67,2.41,2.42,2.41
126.03,5.05,2.69,5.05,2.69,-2.69,-2.43,-2.70,2.37,2.37,2.36
127.29,5.04,2.73,5.04,2.73,-2.73,-2.46,-2.72,2.32,2.31,2.31
128.57,5.02,2.77,5.02,2.76,-2.77,-2.50,-2.73,2.26,2.26,2.25
129.85,4.99,2.78,5.00,2.79,-2.79,-2.53,-2.75,2.20,2.21,2.21
131.15,4.97,2.81,4.98,2.82,-2.82,-2.57,-2.76,2.16,2.16,2.16
132.46,4.96,2.84,4.96,2.84,-2.83,-2.60,-2.76,2.13,2.12,2.12
133.79,4.93,2.85,4.93,2.85,-2.84,-2.63,-2.77,2.09,2.09,2.08
135.12,4.88,2.84,4.89,2.85,-2.84,-2.67,-2.77,2.04,2.05,2.04
136.48,4.84,2.84,4.84,2.84,-2.84,-2.70,-2.77,2.00,2.00,2.00
137.84,4.79,2.83,4.80,2.84,-2.83,-2.73,-2.76,1.96,1.96,1.96
139.22,4.74,2.83,4.74,2.83,-2.82,-2.76,-2.76,1.92,1.92,1.91
140.61,4.69,2.82,4.69,2.81,-2.81,-2.79,-2.75,1.88,1.88,1.87
142.02,4.62,2.77,4.64,2.79,-2.80,-2.81,-2.74,1.82,1.84,1.85
143.44,4.59,2.78,4.59,2.78,-2.79,-2.84,-2.73,1.80,1.80,1.81
144.87,4.55,2.78,4.55,2.78,-2.79,-2.87,-2.72,1.77,1.76,1.77
146.32,4.51,2.78,4.52,2.78,-2.78,-2.89,-2.71,1.73,1.74,1.73
147.78,4.48,2.78,4.48,2.78,-2.78,-2.92,-2.70,1.71,1.70,1.70
149.26,4.44,2.77,4.45,2.78,-2.78,-2.94,-2.69,1.67,1.67,1.67
150.75,4.40,2.79,4.41,2.78,-2.78,-2.97,-2.68,1.63,1.63,1.61
152.26,4.36,2.79,4.36,2.79,-2.78,-2.99,-2.67,1.59,1.58,1.57
153.78,4.31,2.77,4.32,2.78,-2.78,-3.01,-2.66,1.53,1.53,1.54
155.32,4.27,2.79,4.27,2.78,-2.79,-3.03,-2.66,1.48,1.48,1.48
156.88,4.22,2.77,4.23,2.78,-2.80,-3.05,-2.65,1.42,1.43,1.45
158.44,4.20,2.80,4.20,2.80,-2.81,-3.07,-2.64,1.39,1.39,1.40
160.03,4.17,2.82,4.18,2.83,-2.83,-3.09,-2.64,1.34,1.35,1.35
161.63,4.16,2.86,4.16,2.86,-2.85,-3.11,-2.64,1.32,1.31,1.30
163.24,4.14,2.88,4.14,2.88,-2.87,-3.12,-2.64,1.28,1.27,1.26
164.88,4.11,2.89,4.12,2.90,-2.89,-3.14,-2.64,1.23,1.23,1.22
166.53,4.08,2.91,4.08,2.91,-2.91,-3.16,-2.64,1.18,1.17,1.17
168.19,4.05,2.93,4.05,2.93,-2.93,-3.17,-2.64,1.12,1.12,1.12
169.87,4.01,2.94,4.02,2.95,-2.95,-3.18,-2.65,1.06,1.07,1.07
171.57,3.99,2.96,3.99,2.97,-2.97,-3.20,-2.66,1.02,1.02,1.03
173.29,3.96,2.99,3.96,2.99,-2.99,-3.21,-2.67,0.97,0.97,0.97
175.02,3.93,3.01,3.94,3.02,-3.02,-3.22,-2.68,0.92,0.92,0.92
176.77,3.90,3.04,3.91,3.04,-3.04,-3.23,-2.70,0.87,0.87,0.86
178.54,3.88,3.07,3.88,3.07,-3.06,-3.24,-2.72,0.82,0.82,0.81
180.32,3.85,3.10,3.85,3.10,-3.09,-3.25,-2.74,0.77,0.76,0.75
182.13,3.82,3.12,3.82,3.12,-3.12,-3.26,-2.76,0.71,0.70,0.70
183.95,3.77,3.13,3.78,3.14,-3.15,-3.27,-2.78,0.62,0.63,0.64
185.79,3.75,3.16,3.76,3.17,-3.19,-3.27,-2.81,0.57,0.57,0.59
187.65,3.74,3.22,3.74,3.22,-3.23,-3.28,-2.84,0.52,0.52,0.52
189.52,3.74,3.27,3.74,3.27,-3.27,-3.28,-2.87,0.47,0.47,0.47
191.42,3.73,3.31,3.74,3.32,-3.32,-3.29,-2.90,0.42,0.42,0.42
193.33,3.73,3.36,3.74,3.37,-3.36,-3.29,-2.93,0.37,0.37,0.37
195.27,3.73,3.41,3.73,3.41,-3.41,-3.30,-2.97,0.33,0.32,0.32
197.22,3.72,3.46,3.72,3.46,-3.45,-3.30,-3.00,0.28,0.28,0.26
199.19,3.70,3.49,3.71,3.49,-3.48,-3.30,-3.04,0.23,0.23,0.21
201.18,3.68,3.52,3.68,3.52,-3.51,-3.30,-3.08,0.18,0.18,0.16
203.19,3.65,3.52,3.65,3.53,-3.53,-3.30,-3.12,0.13,0.12,0.13
205.23,3.61,3.54,3.62,3.54,-3.54,-3.30,-3.17,0.07,0.07,0.07
207.28,3.58,3.53,3.59,3.55,-3.56,-3.30,-3.21,0.03,0.03,0.05
209.35,3.55,3.56,3.55,3.56,-3.57,-3.30,-3.25,-0.01,-0.01,-0.01
211.44,3.52,3.58,3.52,3.58,-3.58,-3.30,-3.29,-0.05,-0.05,-0.06
213.56,3.49,3.59,3.49,3.59,-3.58,-3.29,-3.34,-0.09,-0.09,-0.10
215.69,3.46,3.58,3.47,3.59,-3.59,-3.29,-3.38,-0.13,-0.13,-0.12
217.85,3.43,3.59,3.44,3.60,-3.60,-3.29,-3.42,-0.16,-0.16,-0.16
220.03,3.41,3.61,3.41,3.61,-3.60,-3.28,-3.46,-0.19,-0.19,-0.20
222.23,3.38,3.61,3.38,3.61,-3.61,-3.28,-3.50,-0.22,-0.22,-0.23
224.45,3.35,3.60,3.35,3.61,-3.61,-3.27,-3.53,-0.25,-0.25,-0.25
226.70,3.31,3.59,3.32,3.60,-3.60,-3.26,-3.57,-0.29,-0.28,-0.28
228.96,3.29,3.60,3.30,3.60,-3.60,-3.26,-3.60,-0.30,-0.30,-0.31
231.25,3.27,3.59,3.27,3.59,-3.59,-3.25,-3.63,-0.31,-0.32,-0.32
233.57,3.24,3.58,3.24,3.58,-3.57,-3.24,-3.66,-0.33,-0.33,-0.34
235.90,3.20,3.55,3.21,3.56,-3.56,-3.23,-3.68,-0.35,-0.35,-0.35
238.26,3.18,3.54,3.18,3.54,-3.54,-3.22,-3.70,-0.36,-0.36,-0.36
240.64,3.15,3.52,3.16,3.52,-3.53,-3.21,-3.71,-0.37,-0.37,-0.37
243.05,3.13,3.50,3.14,3.51,-3.51,-3.20,-3.72,-0.38,-0.38,-0.37
245.48,3.11,3.49,3.12,3.49,-3.50,-3.19,-3.73,-0.38,-0.38,-0.38
247.93,3.10,3.48,3.10,3.48,-3.48,-3.18,-3.73,-0.38,-0.38,-0.38
250.41,3.08,3.46,3.09,3.46,-3.46,-3.16,-3.72,-0.38,-0.38,-0.38
252.92,3.07,3.44,3.08,3.44,-3.45,-3.15,-3.72,-0.37,-0.37,-0.37
255.45,3.06,3.42,3.06,3.42,-3.42,-3.14,-3.70,-0.36,-0.36,-0.36
258.00,3.05,3.40,3.05,3.40,-3.40,-3.13,-3.69,-0.34,-0.35,-0.35
260.58,3.02,3.37,3.03,3.37,-3.37,-3.11,-3.67,-0.34,-0.34,-0.35
263.19,3.00,3.34,3.00,3.34,-3.33,-3.10,-3.64,-0.32,-0.33,-0.34
265.82,2.96,3.29,2.97,3.29,-3.29,-3.08,-3.61,-0.32,-0.32,-0.33
268.48,2.93,3.24,2.94,3.25,-3.24,-3.07,-3.58,-0.31,-0.31,-0.31
271.16,2.90,3.19,2.90,3.19,-3.20,-3.05,-3.54,-0.29,-0.30,-0.29
273.87,2.86,3.15,2.87,3.15,-3.15,-3.03,-3.50,-0.28,-0.28,-0.29
276.61,2.83,3.09,2.83,3.10,-3.10,-3.02,-3.45,-0.27,-0.27,-0.26
279.38,2.80,3.06,2.81,3.06,-3.06,-3.00,-3.41,-0.26,-0.26,-0.26
282.17,2.78,3.02,2.78,3.02,-3.03,-2.98,-3.36,-0.25,-0.25,-0.24
284.99,2.76,2.99,2.77,3.00,-3.00,-2.97,-3.31,-0.24,-0.24,-0.23
287.84,2.75,2.97,2.76,2.97,-2.98,-2.95,-3.26,-0.23,-0.23,-0.22
290.72,2.75,2.96,2.76,2.96,-2.97,-2.93,-3.21,-0.21,-0.21,-0.21
293.63,2.76,2.95,2.76,2.95,-2.95,-2.91,-3.15,-0.19,-0.19,-0.19
296.57,2.77,2.94,2.77,2.95,-2.94,-2.89,-3.10,-0.17,-0.17,-0.17
299.53,2.77,2.94,2.77,2.94,-2.92,-2.87,-3.04,-0.15,-0.15,-0.17
302.53,2.76,2.92,2.77,2.92,-2.90,-2.85,-2.99,-0.14,-0.14,-0.16
305.55,2.75,2.89,2.75,2.89,-2.88,-2.83,-2.93,-0.13,-0.13,-0.14
308.61,2.72,2.85,2.73,2.85,-2.85,-2.81,-2.88,-0.13,-0.13,-0.13
311.69,2.69,2.81,2.70,2.81,-2.82,-2.79,-2.83,-0.13,-0.12,-0.12
314.81,2.68,2.77,2.68,2.78,-2.79,-2.77,-2.77,-0.11,-0.11,-0.09
317.96,2.65,2.75,2.65,2.75,-2.75,-2.75,-2.72,-0.10,-0.10,-0.10
321.14,2.62,2.71,2.63,2.72,-2.71,-2.73,-2.67,-0.09,-0.09,-0.09
324.35,2.59,2.68,2.60,2.68,-2.67,-2.71,-2.62,-0.08,-0.08,-0.09
327.59,2.56,2.64,2.56,2.64,-2.63,-2.69,-2.57,-0.07,-0.07,-0.08
330.87,2.52,2.60,2.52,2.60,-2.60,-2.66,-2.53,-0.07,-0.07,-0.08
334.18,2.48,2.56,2.48,2.56,-2.56,-2.64,-2.48,-0.07,-0.07,-0.08
337.52,2.43,2.50,2.44,2.51,-2.52,-2.62,-2.44,-0.08,-0.08,-0.07
340.90,2.39,2.46,2.40,2.47,-2.48,-2.60,-2.39,-0.08,-0.08,-0.07
344.30,2.36,2.43,2.36,2.43,-2.44,-2.57,-2.35,-0.08,-0.08,-0.07
347.75,2.33,2.40,2.34,2.40,-2.41,-2.55,-2.32,-0.07,-0.07,-0.07
351.23,2.30,2.37,2.30,2.37,-2.37,-2.53,-2.28,-0.07,-0.07,-0.07
354.74,2.27,2.34,2.27,2.34,-2.34,-2.51,-2.24,-0.07,-0.07,-0.07
358.28,2.22,2.31,2.23,2.31,-2.31,-2.48,-2.21,-0.08,-0.07,-0.09
361.87,2.19,2.28,2.19,2.28,-2.27,-2.46,-2.18,-0.08,-0.08,-0.09
365.49,2.15,2.24,2.15,2.24,-2.23,-2.44,-2.15,-0.08,-0.08,-0.09
369.14,2.09,2.19,2.10,2.19,-2.19,-2.41,-2.12,-0.09,-0.09,-0.10
372.83,2.04,2.14,2.04,2.14,-2.14,-2.39,-2.10,-0.10,-0.10,-0.10
376.56,1.97,2.08,1.98,2.09,-2.09,-2.37,-2.07,-0.12,-0.11,-0.11
380.33,1.91,2.03,1.92,2.03,-2.04,-2.34,-2.05,-0.13,-0.12,-0.12
384.13,1.85,1.98,1.86,1.99,-1.99,-2.32,-2.03,-0.14,-0.13,-0.13
387.97,1.80,1.94,1.80,1.94,-1.94,-2.30,-2.01,-0.14,-0.14,-0.14
391.85,1.74,1.89,1.75,1.89,-1.89,-2.27,-1.99,-0.15,-0.14,-0.15
395.77,1.70,1.84,1.70,1.85,-1.85,-2.25,-1.97,-0.14,-0.15,-0.14
399.73,1.65,1.80,1.66,1.81,-1.81,-2.23,-1.95,-0.15,-0.15,-0.15
403.72,1.61,1.77,1.61,1.77,-1.76,-2.20,-1.94,-0.15,-0.15,-0.16
407.76,1.56,1.73,1.56,1.73,-1.73,-2.18,-1.93,-0.16,-0.16,-0.17
411.84,1.51,1.67,1.52,1.69,-1.69,-2.15,-1.91,-0.17,-0.17,-0.16
415.96,1.47,1.65,1.47,1.65,-1.65,-2.13,-1.90,-0.18,-0.18,-0.18
420.12,1.43,1.61,1.44,1.61,-1.62,-2.11,-1.89,-0.18,-0.18,-0.18
424.32,1.40,1.58,1.40,1.58,-1.58,-2.08,-1.88,-0.18,-0.18,-0.18
428.56,1.36,1.55,1.36,1.55,-1.55,-2.06,-1.87,-0.18,-0.19,-0.19
432.85,1.32,1.51,1.33,1.52,-1.52,-2.04,-1.86,-0.19,-0.19,-0.19
437.18,1.29,1.48,1.30,1.48,-1.48,-2.01,-1.85,-0.19,-0.18,-0.19
441.55,1.27,1.45,1.27,1.45,-1.45,-1.99,-1.84,-0.17,-0.18,-0.18
445.96,1.24,1.42,1.24,1.42,-1.41,-1.97,-1.83,-0.17,-0.17,-0.18
450.42,1.20,1.39,1.21,1.39,-1.38,-1.94,-1.82,-0.17,-0.17,-0.19
454.93,1.17,1.35,1.17,1.35,-1.35,-1.92,-1.81,-0.17,-0.18,-0.18
459.48,1.13,1.31,1.14,1.31,-1.32,-1.90,-1.80,-0.19,-0.19,-0.18
464.07,1.11,1.28,1.12,1.29,-1.31,-1.87,-1.79,-0.19,-0.19,-0.17
468.71,1.11,1.27,1.12,1.28,-1.30,-1.85,-1.78,-0.19,-0.19,-0.16
473.40,1.13,1.30,1.13,1.29,-1.30,-1.83,-1.77,-0.17,-0.17,-0.17
478.13,1.15,1.31,1.16,1.32,-1.32,-1.80,-1.76,-0.16,-0.16,-0.16
482.91,1.18,1.34,1.19,1.34,-1.34,-1.78,-1.74,-0.15,-0.15,-0.16
487.74,1.22,1.37,1.22,1.37,-1.36,-1.76,-1.73,-0.14,-0.14,-0.15
492.62,1.26,1.40,1.26,1.40,-1.40,-1.74,-1.71,-0.13,-0.14,-0.14
497.55,1.29,1.43,1.30,1.43,-1.43,-1.71,-1.70,-0.13,-0.13,-0.14
502.52,1.32,1.45,1.33,1.46,-1.46,-1.69,-1.68,-0.14,-0.13,-0.13
507.55,1.36,1.49,1.36,1.49,-1.49,-1.67,-1.66,-0.13,-0.13,-0.13
