frequency,raw,error,smoothed,error_smoothed,equalization,parametric_eq,fixed_band_eq,equalized_raw,equalized_smoothed,target
20.00,-8.68,-10.24,-8.68,-10.23,10.24,10.12,3.63,1.57,1.57,1.56
20.20,-8.63,-10.19,-8.63,-10.19,10.20,10.07,3.73,1.57,1.56,1.56
20.40,-8.59,-10.15,-8.59,-10.15,10.14,10.02,3.83,1.56,1.56,1.56
20.61,-8.54,-10.10,-8.54,-10.10,10.09,9.96,3.94,1.55,1.55,1.56
20.81,-8.49,-10.05,-8.49,-10.05,10.03,9.91,4.04,1.55,1.55,1.56
21.02,-8.44,-10.00,-8.43,-9.99,9.98,9.85,4.16,1.54,1.54,1.56
21.23,-8.38,-9.92,-8.38,-9.92,9.91,9.80,4.27,1.54,1.54,1.54
21.44,-8.32,-9.85,-8.32,-9.85,9.85,9.74,4.39,1.53,1.53,1.53
21.66,-8.27,-9.78,-8.26,-9.77,9.78,9.68,4.51,1.51,1.51,1.51
21.87,-8.22,-9.70,-8.21,-9.70,9.71,9.62,4.63,1.49,1.50,1.49
22.09,-8.15,-9.63,-8.16,-9.63,9.63,9.56,4.76,1.48,1.47,1.48
22.31,-8.11,-9.55,-8.10,-9.56,9.56,9.50,4.89,1.45,1.45,1.45
22.54,-8.06,-9.49,-8.05,-9.48,9.48,9.44,5.03,1.42,1.43,1.43
22.76,-8.00,-9.41,-8.01,-9.41,9.41,9.38,5.17,1.41,1.40,1.41
22.99,-7.96,-9.34,-7.96,-9.34,9.33,9.32,5.31,1.38,1.38,1.38
23.22,-7.92,-9.27,-7.91,-9.26,9.26,9.25,5.45,1.35,1.35,1.35
23.45,-7.87,-9.19,-7.87,-9.19,9.20,9.19,5.60,1.33,1.33,1.32
23.69,-7.82,-9.13,-7.82,-9.12,9.13,9.13,5.75,1.31,1.31,1.31
23.92,-7.77,-9.06,-7.77,-9.06,9.07,9.06,5.91,1.30,1.30,1.29
24.16,-7.73,-9.01,-7.73,-9.00,9.00,9.00,6.06,1.28,1.27,1.28
24.40,-7.69,-8.95,-7.69,-8.94,8.94,8.93,6.23,1.25,1.25,1.26
24.65,-7.65,-8.89,-7.64,-8.88,8.88,8.87,6.39,1.23,1.23,1.24
24.89,-7.60,-8.81,-7.60,-8.82,8.82,8.80,6.56,1.22,1.22,1.22
25.14,-7.55,-8.76,-7.55,-8.75,8.75,8.74,6.72,1.21,1.20,1.21
25.39,-7.50,-8.68,-7.50,-8.69,8.69,8.67,6.89,1.19,1.19,1.19
25.65,-7.45,-8.63,-7.45,-8.62,8.62,8.60,7.07,1.17,1.17,1.18
25.91,-7.40,-8.55,-7.40,-8.55,8.55,8.54,7.24,1.15,1.15,1.15
26.16,-7.35,-8.48,-7.35,-8.48,8.48,8.47,7.41,1.13,1.14,1.14
26.43,-7.29,-8.42,-7.29,-8.41,8.41,8.40,7.58,1.12,1.12,1.13
26.69,-7.24,-8.34,-7.24,-8.34,8.34,8.34,7.76,1.11,1.11,1.10
26.96,-7.18,-8.27,-7.18,-8.27,8.27,8.27,7.93,1.10,1.09,1.09
27.23,-7.13,-8.21,-7.13,-8.21,8.21,8.20,8.09,1.08,1.08,1.08
27.50,-7.08,-8.15,-7.08,-8.14,8.14,8.14,8.26,1.06,1.06,1.07
27.77,-7.03,-8.08,-7.02,-8.08,8.07,8.07,8.42,1.05,1.05,1.05
28.05,-6.97,-8.01,-6.97,-8.01,8.01,8.00,8.57,1.04,1.04,1.04
28.33,-6.93,-7.95,-6.92,-7.94,7.95,7.94,8.72,1.02,1.02,1.02
28.62,-6.88,-7.89,-6.88,-7.88,7.88,7.87,8.86,1.01,1.01,1.01
28.90,-6.83,-7.82,-6.83,-7.82,7.82,7.81,8.98,0.99,0.99,0.99
29.19,-6.79,-7.76,-6.78,-7.76,7.76,7.74,9.10,0.97,0.98,0.97
29.48,-6.73,-7.70,-6.73,-7.70,7.70,7.67,9.20,0.97,0.97,0.97
29.78,-6.68,-7.64,-6.68,-7.64,7.63,7.61,9.30,0.95,0.95,0.96
30.08,-6.63,-7.58,-6.63,-7.58,7.57,7.54,9.37,0.94,0.94,0.95
30.38,-6.58,-7.51,-6.58,-7.51,7.50,7.48,9.43,0.93,0.93,0.93
30.68,-6.53,-7.45,-6.53,-7.44,7.44,7.41,9.48,0.91,0.91,0.92
30.99,-6.47,-7.36,-6.47,-7.37,7.37,7.35,9.51,0.90,0.90,0.89
31.30,-6.43,-7.31,-6.42,-7.30,7.30,7.28,9.52,0.88,0.88,0.88
31.61,-6.37,-7.24,-6.37,-7.24,7.24,7.22,9.51,0.87,0.86,0.87
31.93,-6.33,-7.18,-6.32,-7.17,7.17,7.15,9.49,0.84,0.84,0.85
32.24,-6.28,-7.09,-6.28,-7.10,7.10,7.09,9.45,0.82,0.82,0.82
32.57,-6.23,-7.03,-6.23,-7.03,7.03,7.03,9.39,0.81,0.80,0.80
32.89,-6.19,-6.98,-6.18,-6.97,6.97,6.96,9.32,0.78,0.78,0.79
33.22,-6.14,-6.90,-6.14,-6.90,6.90,6.90,9.24,0.76,0.76,0.76
33.55,-6.10,-6.85,-6.10,-6.84,6.83,6.83,9.14,0.74,0.74,0.75
33.89,-6.05,-6.77,-6.05,-6.77,6.77,6.77,9.03,0.72,0.72,0.72
34.23,-6.01,-6.71,-6.00,-6.70,6.70,6.71,8.92,0.70,0.70,0.70
34.57,-5.96,-6.64,-5.96,-6.64,6.64,6.65,8.79,0.68,0.68,0.68
34.92,-5.92,-6.58,-5.92,-6.58,6.58,6.58,8.65,0.66,0.66,0.66
35.27,-5.88,-6.52,-5.88,-6.52,6.52,6.52,8.51,0.64,0.64,0.64
35.62,-5.84,-6.46,-5.84,-6.46,6.46,6.46,8.37,0.62,0.62,0.62
35.97,-5.80,-6.40,-5.80,-6.40,6.40,6.40,8.22,0.60,0.60,0.60
36.33,-5.76,-6.34,-5.76,-6.34,6.34,6.34,8.07,0.58,0.58,0.58
36.70,-5.73,-6.29,-5.72,-6.28,6.28,6.28,7.92,0.55,0.56,0.56
37.06,-5.68,-6.22,-5.68,-6.22,6.22,6.21,7.76,0.54,0.54,0.54
37.43,-5.64,-6.16,-5.64,-6.16,6.16,6.15,7.61,0.52,0.52,0.52
37.81,-5.61,-6.11,-5.60,-6.10,6.10,6.09,7.46,0.49,0.49,0.50
38.19,-5.56,-6.03,-5.56,-6.04,6.03,6.03,7.31,0.48,0.47,0.47
38.57,-5.53,-5.99,-5.52,-5.97,5.97,5.97,7.15,0.45,0.45,0.46
38.95,-5.48,-5.91,-5.48,-5.91,5.91,5.91,7.01,0.44,0.43,0.43
39.34,-5.44,-5.85,-5.44,-5.85,5.85,5.85,6.86,0.42,0.41,0.41
39.74,-5.40,-5.79,-5.40,-5.79,5.79,5.80,6.72,0.39,0.39,0.39
40.14,-5.36,-5.74,-5.36,-5.74,5.73,5.74,6.58,0.37,0.37,0.38
40.54,-5.33,-5.69,-5.32,-5.68,5.67,5.68,6.44,0.35,0.35,0.36
40.94,-5.28,-5.62,-5.28,-5.62,5.62,5.62,6.31,0.34,0.34,0.34
41.35,-5.24,-5.55,-5.24,-5.56,5.56,5.56,6.18,0.32,0.32,0.31
41.76,-5.20,-5.51,-5.20,-5.50,5.50,5.50,6.06,0.31,0.31,0.31
42.18,-5.16,-5.45,-5.16,-5.45,5.44,5.45,5.94,0.29,0.29,0.29
42.60,-5.12,-5.39,-5.12,-5.39,5.39,5.39,5.82,0.27,0.27,0.27
43.03,-5.08,-5.34,-5.08,-5.33,5.33,5.33,5.71,0.25,0.25,0.26
43.46,-5.04,-5.27,-5.04,-5.27,5.27,5.27,5.60,0.23,0.23,0.23
43.90,-5.00,-5.21,-5.00,-5.21,5.20,5.22,5.50,0.21,0.21,0.21
44.33,-4.96,-5.15,-4.96,-5.14,5.14,5.16,5.40,0.19,0.19,0.19
44.78,-4.92,-5.09,-4.92,-5.08,5.08,5.10,5.30,0.17,0.17,0.17
45.23,-4.88,-5.02,-4.88,-5.02,5.02,5.05,5.21,0.15,0.15,0.14
45.68,-4.84,-4.96,-4.84,-4.96,4.97,4.99,5.12,0.13,0.13,0.12
46.13,-4.80,-4.91,-4.80,-4.91,4.91,4.93,5.03,0.11,0.11,0.11
46.60,-4.76,-4.86,-4.76,-4.85,4.86,4.88,4.95,0.10,0.10,0.10
47.06,-4.73,-4.81,-4.72,-4.80,4.80,4.82,4.87,0.07,0.08,0.08
47.53,-4.69,-4.75,-4.69,-4.75,4.75,4.77,4.80,0.06,0.06,0.06
48.01,-4.66,-4.71,-4.66,-4.70,4.69,4.71,4.73,0.03,0.03,0.05
48.49,-4.63,-4.65,-4.62,-4.64,4.63,4.66,4.66,0.01,0.01,0.02
48.97,-4.59,-4.58,-4.59,-4.58,4.58,4.60,4.60,-0.01,-0.01,-0.01
49.46,-4.56,-4.52,-4.56,-4.52,4.52,4.54,4.54,-0.03,-0.03,-0.04
49.96,-4.53,-4.46,-4.52,-4.46,4.47,4.49,4.48,-0.06,-0.06,-0.07
50.46,-4.49,-4.41,-4.49,-4.41,4.41,4.44,4.42,-0.08,-0.08,-0.08
50.96,-4.46,-4.36,-4.46,-4.36,4.36,4.38,4.37,-0.10,-0.10,-0.10
51.47,-4.44,-4.31,-4.43,-4.31,4.30,4.33,4.32,-0.13,-0.13,-0.13
51.99,-4.41,-4.26,-4.41,-4.26,4.25,4.27,4.27,-0.16,-0.16,-0.15
52.51,-4.38,-4.21,-4.38,-4.21,4.20,4.22,4.22,-0.18,-0.18,-0.17
53.03,-4.35,-4.16,-4.35,-4.15,4.15,4.16,4.18,-0.20,-0.19,-0.19
53.56,-4.32,-4.10,-4.32,-4.10,4.10,4.11,4.13,-0.22,-0.22,-0.22
54.10,-4.28,-4.04,-4.29,-4.04,4.05,4.05,4.09,-0.23,-0.24,-0.24
54.64,-4.27,-4.00,-4.26,-3.99,3.99,4.00,4.05,-0.28,-0.27,-0.27
55.18,-4.24,-3.95,-4.24,-3.94,3.94,3.94,4.01,-0.30,-0.30,-0.29
55.74,-4.21,-3.89,-4.21,-3.89,3.89,3.89,3.96,-0.32,-0.32,-0.32
56.29,-4.18,-3.84,-4.18,-3.83,3.83,3.84,3.92,-0.34,-0.34,-0.34
56.86,-4.15,-3.78,-4.15,-3.78,3.78,3.78,3.88,-0.36,-0.36,-0.37
57.42,-4.12,-3.73,-4.12,-3.73,3.73,3.73,3.84,-0.38,-0.39,-0.39
58.00,-4.10,-3.69,-4.10,-3.68,3.68,3.67,3.79,-0.41,-0.41,-0.41
58.58,-4.08,-3.64,-4.07,-3.64,3.64,3.62,3.75,-0.44,-0.44,-0.44
59.16,-4.05,-3.59,-4.05,-3.59,3.59,3.56,3.70,-0.46,-0.46,-0.46
59.76,-4.03,-3.55,-4.02,-3.54,3.54,3.51,3.65,-0.49,-0.49,-0.48
60.35,-4.00,-3.49,-4.00,-3.49,3.49,3.45,3.60,-0.51,-0.51,-0.51
60.96,-3.98,-3.45,-3.98,-3.44,3.43,3.40,3.55,-0.54,-0.54,-0.53
61.57,-3.96,-3.39,-3.95,-3.38,3.38,3.35,3.50,-0.57,-0.57,-0.57
62.18,-3.93,-3.33,-3.93,-3.33,3.33,3.29,3.44,-0.60,-0.60,-0.60
62.80,-3.91,-3.28,-3.91,-3.27,3.28,3.24,3.38,-0.63,-0.63,-0.63
63.43,-3.89,-3.23,-3.89,-3.22,3.23,3.18,3.32,-0.66,-0.65,-0.66
64.07,-3.87,-3.18,-3.87,-3.18,3.18,3.13,3.26,-0.68,-0.68,-0.69
64.71,-3.85,-3.14,-3.85,-3.14,3.14,3.07,3.19,-0.71,-0.71,-0.71
65.35,-3.83,-3.10,-3.83,-3.10,3.09,3.01,3.12,-0.73,-0.74,-0.73
66.01,-3.81,-3.06,-3.81,-3.05,3.05,2.96,3.05,-0.76,-0.76,-0.75
66.67,-3.79,-3.01,-3.79,-3.01,3.00,2.90,2.98,-0.78,-0.78,-0.78
67.33,-3.76,-2.96,-3.76,-2.96,2.96,2.85,2.91,-0.80,-0.80,-0.80
68.01,-3.75,-2.92,-3.74,-2.91,2.91,2.79,2.83,-0.83,-0.83,-0.83
68.69,-3.72,-2.87,-3.72,-2.86,2.86,2.73,2.75,-0.85,-0.86,-0.85
69.37,-3.70,-2.82,-3.70,-2.81,2.81,2.68,2.67,-0.88,-0.88,-0.88
70.07,-3.67,-2.76,-3.67,-2.76,2.76,2.62,2.59,-0.91,-0.91,-0.91
70.77,-3.64,-2.71,-3.64,-2.71,2.71,2.56,2.51,-0.93,-0.93,-0.93
71.48,-3.61,-2.65,-3.61,-2.65,2.65,2.51,2.42,-0.96,-0.96,-0.96
72.19,-3.59,-2.60,-3.58,-2.59,2.59,2.45,2.34,-1.00,-1.00,-0.99
72.91,-3.56,-2.53,-3.56,-2.53,2.53,2.39,2.25,-1.03,-1.03,-1.03
73.64,-3.53,-2.47,-3.53,-2.47,2.47,2.33,2.16,-1.06,-1.06,-1.06
74.38,-3.50,-2.41,-3.50,-2.40,2.40,2.27,2.07,-1.10,-1.10,-1.09
75.12,-3.47,-2.33,-3.47,-2.33,2.33,2.21,1.99,-1.13,-1.13,-1.14
75.87,-3.44,-2.27,-3.44,-2.27,2.27,2.16,1.90,-1.17,-1.17,-1.17
76.63,-3.41,-2.21,-3.41,-2.20,2.20,2.10,1.81,-1.21,-1.21,-1.20
77.40,-3.38,-2.14,-3.38,-2.13,2.13,2.04,1.72,-1.25,-1.25,-1.24
78.17,-3.35,-2.05,-3.35,-2.06,2.06,1.97,1.63,-1.29,-1.28,-1.30
78.95,-3.32,-2.00,-3.32,-1.99,1.99,1.91,1.55,-1.33,-1.33,-1.32
79.74,-3.29,-1.93,-3.29,-1.92,1.92,1.85,1.46,-1.37,-1.37,-1.36
80.54,-3.27,-1.86,-3.26,-1.85,1.85,1.79,1.37,-1.42,-1.41,-1.41
81.35,-3.23,-1.78,-3.23,-1.78,1.78,1.73,1.28,-1.45,-1.45,-1.45
82.16,-3.20,-1.70,-3.20,-1.70,1.70,1.67,1.19,-1.49,-1.50,-1.50
82.98,-3.18,-1.64,-3.17,-1.63,1.63,1.60,1.11,-1.55,-1.54,-1.54
83.81,-3.15,-1.55,-3.15,-1.56,1.56,1.54,1.02,-1.59,-1.59,-1.60
84.65,-3.13,-1.49,-3.12,-1.48,1.48,1.47,0.93,-1.64,-1.64,-1.64
85.50,-3.10,-1.42,-3.10,-1.41,1.41,1.41,0.85,-1.69,-1.69,-1.68
86.35,-3.07,-1.34,-3.07,-1.34,1.33,1.35,0.76,-1.73,-1.74,-1.73
87.22,-3.05,-1.27,-3.04,-1.26,1.26,1.28,0.67,-1.79,-1.78,-1.78
88.09,-3.02,-1.18,-3.02,-1.18,1.18,1.21,0.59,-1.83,-1.83,-1.84
88.97,-2.99,-1.11,-2.99,-1.11,1.11,1.15,0.50,-1.88,-1.88,-1.88
89.86,-2.97,-1.04,-2.96,-1.03,1.03,1.08,0.42,-1.94,-1.93,-1.93
90.76,-2.94,-0.95,-2.94,-0.95,0.95,1.01,0.34,-1.99,-1.99,-1.99
91.66,-2.92,-0.88,-2.92,-0.87,0.87,0.94,0.25,-2.04,-2.04,-2.04
92.58,-2.89,-0.79,-2.89,-0.79,0.79,0.87,0.17,-2.09,-2.09,-2.10
93.51,-2.87,-0.73,-2.86,-0.72,0.72,0.80,0.08,-2.15,-2.15,-2.14
94.44,-2.83,-0.64,-2.83,-0.64,0.64,0.73,0.00,-2.19,-2.20,-2.19
95.39,-2.81,-0.56,-2.81,-0.56,0.55,0.66,-0.08,-2.25,-2.25,-2.25
96.34,-2.79,-0.47,-2.79,-0.47,0.47,0.59,-0.17,-2.32,-2.31,-2.32
97.30,-2.77,-0.40,-2.77,-0.39,0.39,0.52,-0.25,-2.38,-2.38,-2.37
98.28,-2.74,-0.31,-2.74,-0.30,0.31,0.44,-0.33,-2.43,-2.44,-2.43
99.26,-2.72,-0.22,-2.71,-0.22,0.22,0.37,-0.41,-2.50,-2.49,-2.50
100.25,-2.69,-0.14,-2.69,-0.14,0.14,0.29,-0.49,-2.55,-2.56,-2.55
101.25,-2.67,-0.06,-2.67,-0.05,0.05,0.22,-0.57,-2.62,-2.62,-2.61
102.27,-2.65,0.03,-2.64,0.04,-0.03,0.14,-0.65,-2.68,-2.68,-2.68
103.29,-2.62,0.13,-2.62,0.12,-0.12,0.06,-0.73,-2.74,-2.74,-2.75
104.32,-2.60,0.20,-2.60,0.21,-0.21,-0.01,-0.81,-2.80,-2.80,-2.80
105.37,-2.58,0.28,-2.58,0.29,-0.29,-0.09,-0.89,-2.87,-2.87,-2.86
106.42,-2.56,0.37,-2.56,0.37,-0.38,-0.17,-0.96,-2.93,-2.93,-2.93
107.48,-2.54,0.46,-2.54,0.46,-0.46,-0.25,-1.04,-3.00,-3.00,-3.00
108.56,-2.52,0.55,-2.52,0.55,-0.55,-0.33,-1.11,-3.07,-3.07,-3.07
109.64,-2.50,0.63,-2.50,0.63,-0.63,-0.41,-1.18,-3.13,-3.13,-3.13
110.74,-2.48,0.71,-2.48,0.72,-0.72,-0.49,-1.25,-3.20,-3.20,-3.19
111.85,-2.46,0.80,-2.46,0.81,-0.81,-0.57,-1.32,-3.27,-3.27,-3.26
112.97,-2.44,0.90,-2.44,0.89,-0.89,-0.65,-1.38,-3.33,-3.34,-3.34
114.10,-2.43,0.97,-2.42,0.98,-0.98,-0.74,-1.44,-3.41,-3.40,-3.40
115.24,-2.41,1.06,-2.41,1.07,-1.06,-0.82,-1.51,-3.47,-3.47,-3.47
116.39,-2.39,1.15,-2.39,1.15,-1.15,-0.90,-1.56,-3.54,-3.54,-3.54
117.55,-2.38,1.23,-2.37,1.23,-1.23,-0.99,-1.62,-3.61,-3.61,-3.61
118.73,-2.36,1.31,-2.36,1.31,-1.31,-1.07,-1.67,-3.67,-3.67,-3.67
119.92,-2.35,1.38,-2.34,1.39,-1.39,-1.16,-1.72,-3.74,-3.73,-3.73
121.12,-2.33,1.46,-2.33,1.47,-1.47,-1.24,-1.76,-3.79,-3.79,-3.79
122.33,-2.31,1.55,-2.31,1.54,-1.54,-1.33,-1.81,-3.85,-3.85,-3.86
123.55,-2.30,1.61,-2.29,1.62,-1.62,-1.41,-1.85,-3.92,-3.91,-3.91
124.79,-2.28,1.69,-2.28,1.69,-1.69,-1.49,-1.88,-3.97,-3.97,-3.97
126.03,-2.27,1.75,-2.27,1.76,-1.77,-1.58,-1.91,-4.03,-4.03,-4.02
127.29,-2.25,1.83,-2.25,1.84,-1.84,-1.66,-1.94,-4.09,-4.09,-4.08
128.57,-2.24,1.91,-2.24,1.91,-1.91,-1.75,-1.97,-4.15,-4.14,-4.15
129.85,-2.22,1.98,-2.22,1.98,-1.98,-1.83,-1.99,-4.19,-4.20,-4.20
131.15,-2.22,2.03,-2.21,2.04,-2.04,-1.91,-2.01,-4.26,-4.25,-4.25
132.46,-2.20,2.11,-2.20,2.11,-2.10,-1.99,-2.03,-4.30,-4.30,-4.31
133.79,-2.19,2.16,-2.19,2.17,-2.17,-2.08,-2.04,-4.35,-4.35,-4.35
135.12,-2.18,2.23,-2.18,2.22,-2.22,-2.16,-2.05,-4.40,-4.40,-4.41
136.48,-2.18,2.26,-2.17,2.27,-2.28,-2.23,-2.06,-4.45,-4.45,-4.44
137.84,-2.17,2.31,-2.16,2.33,-2.33,-2.31,-2.07,-4.49,-4.49,-4.48
139.22,-2.15,2.38,-2.15,2.38,-2.38,-2.39,-2.08,-4.52,-4.53,-4.53
140.61,-2.14,2.43,-2.14,2.43,-2.42,-2.46,-2.08,-4.56,-4.56,-4.57
142.02,-2.13,2.46,-2.13,2.47,-2.47,-2.54,-2.08,-4.60,-4.60,-4.59
143.44,-2.12,2.50,-2.12,2.51,-2.51,-2.61,-2.09,-4.63,-4.63,-4.62
144.87,-2.11,2.55,-2.10,2.55,-2.56,-2.67,-2.09,-4.66,-4.66,-4.66
146.32,-2.09,2.60,-2.09,2.60,-2.60,-2.74,-2.09,-4.69,-4.69,-4.69
147.78,-2.08,2.63,-2.08,2.64,-2.64,-2.80,-2.09,-4.72,-4.72,-4.71
149.26,-2.07,2.67,-2.07,2.68,-2.68,-2.87,-2.09,-4.75,-4.74,-4.74
150.75,-2.06,2.72,-2.06,2.72,-2.72,-2.92,-2.09,-4.77,-4.77,-4.78
152.26,-2.05,2.75,-2.05,2.76,-2.75,-2.98,-2.09,-4.80,-4.80,-4.80
153.78,-2.04,2.79,-2.04,2.79,-2.79,-3.03,-2.09,-4.83,-4.83,-4.83
155.32,-2.04,2.81,-2.03,2.82,-2.82,-3.08,-2.09,-4.86,-4.86,-4.85
156.88,-2.03,2.85,-2.03,2.85,-2.86,-3.13,-2.10,-4.88,-4.89,-4.88
158.44,-2.03,2.88,-2.02,2.89,-2.89,-3.17,-2.10,-4.92,-4.91,-4.91
160.03,-2.02,2.92,-2.02,2.92,-2.92,-3.21,-2.11,-4.94,-4.94,-4.94
161.63,-2.02,2.95,-2.02,2.95,-2.95,-3.24,-2.11,-4.97,-4.97,-4.97
163.24,-2.02,2.98,-2.01,2.98,-2.98,-3.28,-2.12,-5.00,-5.00,-5.00
164.88,-2.01,3.01,-2.01,3.01,-3.01,-3.30,-2.13,-5.02,-5.02,-5.02
166.53,-2.01,3.03,-2.01,3.04,-3.04,-3.33,-2.14,-5.05,-5.05,-5.04
168.19,-2.00,3.08,-2.00,3.08,-3.08,-3.35,-2.15,-5.07,-5.08,-5.08
169.87,-2.01,3.10,-2.00,3.11,-3.11,-3.36,-2.17,-5.12,-5.11,-5.11
171.57,-2.00,3.14,-2.00,3.14,-3.14,-3.38,-2.19,-5.14,-5.14,-5.14
173.29,-2.00,3.16,-2.00,3.17,-3.17,-3.38,-2.20,-5.17,-5.17,-5.16
175.02,-2.00,3.20,-2.00,3.21,-3.21,-3.39,-2.22,-5.21,-5.20,-5.20
176.77,-2.00,3.24,-2.00,3.24,-3.24,-3.39,-2.24,-5.24,-5.24,-5.24
178.54,-2.00,3.28,-2.00,3.28,-3.27,-3.39,-2.27,-5.27,-5.27,-5.28
180.32,-2.01,3.30,-2.01,3.31,-3.31,-3.38,-2.29,-5.31,-5.31,-5.31
182.13,-2.01,3.33,-2.01,3.33,-3.34,-3.37,-2.32,-5.34,-5.35,-5.34
183.95,-2.03,3.35,-2.02,3.36,-3.36,-3.36,-2.35,-5.39,-5.38,-5.38
185.79,-2.03,3.39,-2.03,3.39,-3.39,-3.35,-2.38,-5.42,-5.42,-5.42
187.65,-2.04,3.42,-2.04,3.42,-3.41,-3.33,-2.41,-5.45,-5.45,-5.46
189.52,-2.06,3.43,-2.05,3.44,-3.43,-3.31,-2.45,-5.49,-5.48,-5.49
191.42,-2.07,3.44,-2.07,3.45,-3.45,-3.28,-2.48,-5.52,-5.51,-5.51
193.33,-2.08,3.45,-2.08,3.45,-3.46,-3.25,-2.52,-5.54,-5.54,-5.53
195.27,-2.10,3.46,-2.10,3.46,-3.47,-3.23,-2.56,-5.57,-5.57,-5.56
197.22,-2.13,3.46,-2.12,3.48,-3.48,-3.19,-2.60,-5.61,-5.60,-5.59
199.19,-2.14,3.50,-2.14,3.49,-3.48,-3.16,-2.64,-5.62,-5.62,-5.64
201.18,-2.17,3.48,-2.17,3.49,-3.48,-3.13,-2.68,-5.65,-5.65,-5.65
203.19,-2.20,3.47,-2.20,3.48,-3.47,-3.09,-2.72,-5.67,-5.67,-5.67
205.23,-2.24,3.45,-2.23,3.45,-3.46,-3.05,-2.77,-5.70,-5.70,-5.69
207.28,-2.27,3.43,-2.27,3.44,-3.45,-3.01,-2.81,-5.71,-5.71,-5.70
209.35,-2.31,3.42,-2.31,3.42,-3.42,-2.97,-2.85,-5.73,-5.73,-5.73
211.44,-2.35,3.40,-2.35,3.40,-3.39,-2.93,-2.89,-5.74,-5.74,-5.75
213.56,-2.41,3.36,-2.41,3.36,-3.35,-2.89,-2.94,-5.76,-5.76,-5.77
215.69,-2.47,3.30,-2.47,3.31,-3.31,-2.84,-2.98,-5.78,-5.78,-5.77
217.85,-2.54,3.24,-2.54,3.26,-3.26,-2.80,-3.02,-5.80,-5.80,-5.78
220.03,-2.61,3.20,-2.61,3.20,-3.20,-2.75,-3.06,-5.81,-5.80,-5.81
222.23,-2.68,3.14,-2.68,3.14,-3.13,-2.71,-3.10,-5.81,-5.81,-5.82
224.45,-2.76,3.05,-2.76,3.06,-3.05,-2.66,-3.13,-5.81,-5.81,-5.81
226.70,-2.85,2.97,-2.85,2.97,-2.97,-2.62,-3.16,-5.81,-5.81,-5.82
228.96,-2.94,2.88,-2.94,2.88,-2.88,-2.57,-3.19,-5.81,-5.82,-5.82
231.25,-3.04,2.77,-3.04,2.78,-2.78,-2.53,-3.22,-5.82,-5.82,-5.81
233.57,-3.13,2.67,-3.13,2.68,-2.69,-2.48,-3.24,-5.81,-5.81,-5.80
235.90,-3.22,2.58,-3.22,2.58,-2.59,-2.43,-3.26,-5.81,-5.80,-5.80
238.26,-3.30,2.50,-3.30,2.49,-2.49,-2.39,-3.27,-5.79,-5.79,-5.80
240.64,-3.39,2.39,-3.38,2.40,-2.39,-2.34,-3.28,-5.78,-5.78,-5.78
243.05,-3.46,2.30,-3.46,2.30,-2.30,-2.30,-3.28,-5.76,-5.77,-5.76
245.48,-3.54,2.20,-3.53,2.21,-2.22,-2.26,-3.28,-5.75,-5.75,-5.74
247.93,-3.60,2.13,-3.59,2.14,-2.13,-2.21,-3.28,-5.73,-5.73,-5.73
250.41,-3.65,2.07,-3.65,2.06,-2.06,-2.17,-3.27,-5.71,-5.71,-5.72
252.92,-3.69,1.99,-3.69,1.99,-1.99,-2.13,-3.25,-5.68,-5.69,-5.68
255.45,-3.74,1.92,-3.73,1.93,-1.94,-2.08,-3.23,-5.67,-5.67,-5.66
258.00,-3.76,1.88,-3.76,1.88,-1.89,-2.04,-3.21,-5.65,-5.65,-5.64
260.58,-3.77,1.85,-3.77,1.85,-1.85,-2.00,-3.18,-5.62,-5.63,-5.62
263.19,-3.78,1.82,-3.77,1.83,-1.83,-1.96,-3.14,-5.61,-5.60,-5.60
265.82,-3.76,1.82,-3.76,1.82,-1.82,-1.92,-3.10,-5.58,-5.58,-5.58
268.48,-3.73,1.82,-3.73,1.82,-1.83,-1.88,-3.05,-5.55,-5.56,-5.55
271.16,-3.69,1.83,-3.69,1.84,-1.85,-1.84,-3.01,-5.53,-5.53,-5.52
273.87,-3.64,1.86,-3.63,1.87,-1.88,-1.80,-2.95,-5.52,-5.51,-5.50
276.61,-3.56,1.91,-3.56,1.91,-1.93,-1.77,-2.90,-5.48,-5.49,-5.47
279.38,-3.48,1.97,-3.48,1.98,-1.98,-1.73,-2.84,-5.46,-5.45,-5.45
282.17,-3.39,2.04,-3.39,2.04,-2.04,-1.70,-2.78,-5.43,-5.43,-5.43
284.99,-3.30,2.10,-3.30,2.10,-2.10,-1.66,-2.71,-5.40,-5.40,-5.40
287.84,-3.22,2.16,-3.21,2.17,-2.16,-1.63,-2.64,-5.38,-5.37,-5.38
290.72,-3.12,2.22,-3.12,2.22,-2.22,-1.59,-2.57,-5.33,-5.34,-5.34
293.63,-3.05,2.27,-3.05,2.27,-2.26,-1.56,-2.50,-5.31,-5.31,-5.32
296.57,-2.98,2.31,-2.98,2.31,-2.30,-1.53,-2.43,-5.28,-5.28,-5.29
299.53,-2.93,2.33,-2.93,2.34,-2.32,-1.50,-2.36,-5.25,-5.25,-5.26
302.53,-2.89,2.35,-2.89,2.35,-2.34,-1.46,-2.29,-5.23,-5.23,-5.24
305.55,-2.86,2.33,-2.85,2.34,-2.34,-1.43,-2.21,-5.20,-5.20,-5.19
308.61,-2.83,2.33,-2.83,2.33,-2.33,-1.40,-2.14,-5.16,-5.16,-5.16
311.69,-2.81,2.31,-2.81,2.31,-2.32,-1.37,-2.06,-5.13,-5.13,-5.12
314.81,-2.80,2.29,-2.80,2.29,-2.30,-1.35,-1.99,-5.09,-5.09,-5.09
317.96,-2.80,2.26,-2.79,2.27,-2.27,-1.32,-1.91,-5.07,-5.06,-5.06
321.14,-2.79,2.24,-2.79,2.24,-2.24,-1.29,-1.84,-5.03,-5.03,-5.03
324.35,-2.80,2.21,-2.80,2.21,-2.21,-1.26,-1.77,-5.00,-5.00,-5.01
327.59,-2.81,2.16,-2.81,2.17,-2.17,-1.24,-1.69,-4.98,-4.98,-4.97
330.87,-2.82,2.12,-2.82,2.13,-2.14,-1.21,-1.62,-4.95,-4.95,-4.94
334.18,-2.83,2.09,-2.83,2.09,-2.10,-1.19,-1.55,-4.93,-4.93,-4.92
337.52,-2.84,2.06,-2.84,2.06,-2.06,-1.16,-1.48,-4.90,-4.90,-4.90
340.90,-2.86,2.01,-2.86,2.02,-2.02,-1.14,-1.41,-4.88,-4.88,-4.87
344.30,-2.88,1.97,-2.88,1.97,-1.97,-1.11,-1.34,-4.85,-4.85,-4.85
347.75,-2.91,1.91,-2.90,1.93,-1.92,-1.09,-1.27,-4.83,-4.82,-4.82
351.23,-2.92,1.88,-2.93,1.88,-1.87,-1.07,-1.20,-4.78,-4.79,-4.80
354.74,-2.96,1.83,-2.97,1.82,-1.81,-1.04,-1.14,-4.76,-4.77,-4.79
358.28,-3.03,1.74,-3.02,1.75,-1.74,-1.02,-1.07,-4.77,-4.76,-4.77
361.87,-3.09,1.66,-3.09,1.66,-1.67,-1.00,-1.00,-4.75,-4.75,-4.75
365.49,-3.15,1.57,-3.15,1.58,-1.59,-0.97,-0.94,-4.74,-4.74,-4.72
369.14,-3.21,1.50,-3.21,1.51,-1.51,-0.95,-0.88,-4.72,-4.72,-4.71
372.83,-3.27,1.43,-3.27,1.43,-1.43,-0.93,-0.81,-4.70,-4.70,-4.70
376.56,-3.32,1.36,-3.32,1.36,-1.36,-0.91,-0.75,-4.67,-4.68,-4.68
380.33,-3.38,1.27,-3.38,1.28,-1.28,-0.89,-0.69,-4.66,-4.66,-4.65
384.13,-3.43,1.20,-3.43,1.20,-1.20,-0.86,-0.63,-4.63,-4.63,-4.63
387.97,-3.49,1.12,-3.48,1.13,-1.13,-0.84,-0.58,-4.62,-4.61,-4.61
391.85,-3.53,1.06,-3.53,1.05,-1.06,-0.82,-0.52,-4.59,-4.59,-4.59
395.77,-3.59,0.97,-3.58,0.98,-0.98,-0.80,-0.46,-4.57,-4.57,-4.56
399.73,-3.63,0.91,-3.63,0.91,-0.91,-0.78,-0.41,-4.54,-4.54,-4.54
403.72,-3.69,0.84,-3.69,0.84,-0.84,-0.75,-0.35,-4.53,-4.53,-4.53
407.76,-3.74,0.77,-3.74,0.77,-0.77,-0.73,-0.30,-4.50,-4.50,-4.51
411.84,-3.80,0.68,-3.79,0.70,-0.69,-0.71,-0.25,-4.49,-4.48,-4.48
415.96,-3.84,0.62,-3.84,0.62,-0.62,-0.68,-0.20,-4.46,-4.46,-4.46
420.12,-3.89,0.55,-3.89,0.55,-0.54,-0.66,-0.15,-4.43,-4.44,-4.44
424.32,-3.95,0.46,-3.94,0.47,-0.47,-0.64,-0.10,-4.42,-4.41,-4.41
428.56,-3.99,0.40,-3.99,0.40,-0.40,-0.61,-0.06,-4.39,-4.39,-4.39
432.85,-4.04,0.33,-4.03,0.33,-0.34,-0.58,-0.02,-4.37,-4.37,-4.37
437.18,-4.07,0.27,-4.07,0.27,-0.28,-0.56,0.03,-4.35,-4.35,-4.34
441.55,-4.11,0.20,-4.11,0.21,-0.22,-0.53,0.07,-4.33,-4.33,-4.31
445.96,-4.14,0.15,-4.13,0.17,-0.17,-0.50,0.10,-4.31,-4.30,-4.29
450.42,-4.14,0.14,-4.14,0.13,-0.13,-0.47,0.14,-4.27,-4.27,-4.28
