frequency,raw,error,smoothed,error_smoothed,equalization,parametric_eq,fixed_band_eq,equalized_raw,equalized_smoothed,target
20.00,-8.41,-11.28,-8.42,-11.29,11.29,11.22,4.04,2.87,2.87,2.87
20.20,-8.37,-11.27,-8.37,-11.26,11.26,11.17,4.14,2.89,2.89,2.90
20.40,-8.32,-11.25,-8.30,-11.23,11.23,11.13,4.25,2.90,2.92,2.93
20.61,-8.22,-11.17,-8.24,-11.19,11.19,11.08,4.37,2.96,2.95,2.95
20.81,-8.16,-11.14,-8.15,-11.14,11.14,11.03,4.49,2.98,2.99,2.98
21.02,-8.07,-11.08,-8.07,-11.08,11.10,10.98,4.61,3.02,3.02,3.01
21.23,-8.00,-11.02,-8.01,-11.03,11.04,10.92,4.73,3.04,3.03,3.02
21.44,-7.94,-10.97,-7.94,-10.97,10.98,10.87,4.86,3.04,3.04,3.03
21.66,-7.89,-10.93,-7.89,-10.92,10.92,10.81,4.99,3.03,3.04,3.04
21.87,-7.82,-10.86,-7.82,-10.87,10.85,10.75,5.13,3.03,3.03,3.04
22.09,-7.75,-10.80,-7.75,-10.79,10.78,10.69,5.26,3.03,3.03,3.05
22.31,-7.66,-10.71,-7.66,-10.71,10.70,10.63,5.41,3.04,3.04,3.05
22.54,-7.56,-10.61,-7.57,-10.62,10.61,10.57,5.55,3.05,3.04,3.05
22.76,-7.47,-10.52,-7.47,-10.52,10.51,10.51,5.70,3.04,3.04,3.05
22.99,-7.37,-10.41,-7.37,-10.41,10.41,10.44,5.86,3.04,3.04,3.04
23.22,-7.27,-10.31,-7.27,-10.31,10.31,10.38,6.01,3.04,3.04,3.04
23.45,-7.16,-10.20,-7.17,-10.21,10.21,10.31,6.18,3.05,3.04,3.04
23.69,-7.06,-10.10,-7.06,-10.10,10.11,10.24,6.34,3.05,3.05,3.04
23.92,-6.98,-10.02,-6.97,-10.01,10.02,10.17,6.51,3.04,3.05,3.04
24.16,-6.87,-9.91,-6.88,-9.92,9.93,10.10,6.68,3.06,3.05,3.04
24.40,-6.81,-9.85,-6.81,-9.84,9.85,10.03,6.86,3.04,3.04,3.04
24.65,-6.73,-9.76,-6.73,-9.77,9.77,9.95,7.04,3.04,3.04,3.03
24.89,-6.67,-9.70,-6.67,-9.70,9.70,9.88,7.22,3.03,3.03,3.03
25.14,-6.60,-9.63,-6.60,-9.63,9.63,9.81,7.40,3.03,3.03,3.03
25.39,-6.53,-9.56,-6.53,-9.56,9.56,9.73,7.59,3.03,3.02,3.03
25.65,-6.46,-9.49,-6.47,-9.49,9.49,9.65,7.78,3.03,3.03,3.03
25.91,-6.41,-9.43,-6.40,-9.42,9.43,9.58,7.97,3.01,3.02,3.02
26.16,-6.33,-9.35,-6.34,-9.36,9.36,9.50,8.16,3.03,3.02,3.02
26.43,-6.27,-9.29,-6.27,-9.29,9.29,9.42,8.35,3.02,3.01,3.02
26.69,-6.21,-9.23,-6.20,-9.22,9.22,9.34,8.54,3.01,3.02,3.02
26.96,-6.13,-9.15,-6.13,-9.15,9.15,9.27,8.73,3.02,3.02,3.02
27.23,-6.06,-9.07,-6.06,-9.08,9.08,9.19,8.92,3.02,3.02,3.01
27.50,-5.99,-9.00,-6.00,-9.00,9.01,9.11,9.10,3.02,3.01,3.01
27.77,-5.94,-8.94,-5.94,-8.94,8.94,9.03,9.28,3.00,3.00,3.00
28.05,-5.87,-8.87,-5.87,-8.87,8.87,8.95,9.46,2.99,2.99,3.00
28.33,-5.81,-8.80,-5.81,-8.80,8.80,8.87,9.62,2.98,2.99,2.99
28.62,-5.73,-8.72,-5.74,-8.73,8.72,8.79,9.78,2.99,2.99,2.99
28.90,-5.67,-8.66,-5.67,-8.65,8.65,8.71,9.93,2.98,2.99,2.99
29.19,-5.59,-8.57,-5.60,-8.58,8.58,8.62,10.06,2.99,2.99,2.98
29.48,-5.53,-8.51,-5.53,-8.51,8.51,8.54,10.18,2.98,2.98,2.98
29.78,-5.47,-8.44,-5.47,-8.44,8.44,8.46,10.29,2.97,2.97,2.97
30.08,-5.41,-8.38,-5.41,-8.38,8.37,8.38,10.38,2.96,2.96,2.97
30.38,-5.34,-8.30,-5.34,-8.30,8.30,8.30,10.45,2.96,2.96,2.96
30.68,-5.27,-8.23,-5.27,-8.23,8.23,8.22,10.51,2.96,2.96,2.96
30.99,-5.20,-8.15,-5.21,-8.15,8.16,8.14,10.54,2.95,2.95,2.95
31.30,-5.14,-8.08,-5.14,-8.08,8.08,8.05,10.56,2.94,2.94,2.94
31.61,-5.07,-8.01,-5.07,-8.01,8.01,7.97,10.55,2.93,2.93,2.94
31.93,-5.00,-7.93,-5.00,-7.93,7.93,7.89,10.53,2.92,2.93,2.93
32.24,-4.92,-7.84,-4.93,-7.85,7.85,7.81,10.48,2.93,2.92,2.92
32.57,-4.85,-7.77,-4.85,-7.77,7.77,7.73,10.42,2.92,2.92,2.92
32.89,-4.78,-7.69,-4.78,-7.69,7.69,7.65,10.35,2.90,2.91,2.91
33.22,-4.70,-7.60,-4.70,-7.61,7.60,7.57,10.25,2.90,2.90,2.90
33.55,-4.63,-7.53,-4.63,-7.52,7.52,7.49,10.14,2.89,2.90,2.90
33.89,-4.54,-7.43,-4.55,-7.44,7.44,7.41,10.02,2.90,2.89,2.89
34.23,-4.48,-7.36,-4.48,-7.36,7.36,7.33,9.89,2.88,2.88,2.88
34.57,-4.41,-7.28,-4.41,-7.28,7.28,7.25,9.75,2.87,2.87,2.87
34.92,-4.34,-7.20,-4.35,-7.20,7.21,7.17,9.60,2.87,2.86,2.86
35.27,-4.28,-7.13,-4.28,-7.13,7.14,7.09,9.44,2.85,2.85,2.85
35.62,-4.22,-7.06,-4.22,-7.06,7.07,7.01,9.28,2.84,2.84,2.84
35.97,-4.17,-7.00,-4.17,-7.00,7.00,6.93,9.11,2.83,2.83,2.83
36.33,-4.12,-6.94,-4.12,-6.94,6.93,6.85,8.95,2.81,2.82,2.82
36.70,-4.06,-6.87,-4.06,-6.87,6.87,6.78,8.78,2.81,2.81,2.81
37.06,-4.01,-6.81,-4.01,-6.81,6.81,6.70,8.61,2.80,2.80,2.80
37.43,-3.96,-6.75,-3.96,-6.75,6.75,6.62,8.44,2.79,2.79,2.79
37.81,-3.91,-6.69,-3.91,-6.69,6.70,6.55,8.27,2.79,2.78,2.78
38.19,-3.87,-6.64,-3.87,-6.64,6.64,6.47,8.10,2.77,2.77,2.77
38.57,-3.82,-6.58,-3.83,-6.59,6.58,6.40,7.94,2.76,2.76,2.76
38.95,-3.79,-6.54,-3.79,-6.53,6.53,6.32,7.77,2.74,2.74,2.75
39.34,-3.74,-6.47,-3.74,-6.47,6.47,6.25,7.61,2.73,2.73,2.73
39.74,-3.69,-6.41,-3.69,-6.41,6.41,6.18,7.46,2.72,2.72,2.72
40.14,-3.64,-6.35,-3.64,-6.35,6.35,6.10,7.30,2.71,2.71,2.71
40.54,-3.59,-6.29,-3.59,-6.29,6.29,6.03,7.16,2.70,2.70,2.70
40.94,-3.54,-6.23,-3.54,-6.23,6.23,5.96,7.01,2.69,2.69,2.69
41.35,-3.47,-6.15,-3.48,-6.16,6.16,5.89,6.87,2.69,2.68,2.68
41.76,-3.43,-6.10,-3.42,-6.09,6.10,5.82,6.74,2.67,2.67,2.67
42.18,-3.37,-6.03,-3.37,-6.03,6.03,5.75,6.60,2.66,2.66,2.66
42.60,-3.31,-5.96,-3.32,-5.97,5.96,5.68,6.48,2.65,2.64,2.65
43.03,-3.26,-5.90,-3.26,-5.89,5.89,5.61,6.35,2.63,2.63,2.64
43.46,-3.20,-5.82,-3.20,-5.82,5.82,5.55,6.23,2.62,2.62,2.62
43.90,-3.14,-5.74,-3.14,-5.74,5.75,5.48,6.12,2.61,2.61,2.60
44.33,-3.08,-5.66,-3.09,-5.67,5.68,5.41,6.01,2.60,2.59,2.58
44.78,-3.04,-5.60,-3.04,-5.60,5.61,5.35,5.91,2.57,2.57,2.56
45.23,-3.00,-5.54,-3.00,-5.54,5.54,5.28,5.80,2.54,2.55,2.54
45.68,-2.95,-5.48,-2.95,-5.48,5.48,5.22,5.71,2.52,2.52,2.53
46.13,-2.90,-5.41,-2.91,-5.42,5.41,5.16,5.62,2.51,2.50,2.51
46.60,-2.86,-5.36,-2.85,-5.35,5.35,5.10,5.53,2.48,2.49,2.50
47.06,-2.80,-5.28,-2.80,-5.28,5.28,5.04,5.44,2.48,2.48,2.48
47.53,-2.74,-5.20,-2.75,-5.21,5.21,4.98,5.36,2.47,2.47,2.46
48.01,-2.69,-5.14,-2.70,-5.14,5.14,4.92,5.28,2.45,2.45,2.45
48.49,-2.66,-5.08,-2.65,-5.07,5.07,4.86,5.21,2.41,2.42,2.42
48.97,-2.61,-5.00,-2.61,-5.00,5.00,4.80,5.14,2.39,2.39,2.39
49.46,-2.56,-4.92,-2.57,-4.93,4.92,4.74,5.07,2.36,2.35,2.36
49.96,-2.52,-4.85,-2.52,-4.85,4.85,4.69,5.01,2.33,2.33,2.33
50.46,-2.47,-4.78,-2.47,-4.77,4.77,4.63,4.95,2.30,2.31,2.31
50.96,-2.41,-4.70,-2.41,-4.70,4.70,4.58,4.89,2.29,2.29,2.29
51.47,-2.35,-4.61,-2.36,-4.62,4.63,4.53,4.84,2.28,2.27,2.26
51.99,-2.32,-4.56,-2.31,-4.55,4.56,4.48,4.78,2.24,2.25,2.24
52.51,-2.27,-4.49,-2.27,-4.49,4.50,4.42,4.73,2.23,2.22,2.22
53.03,-2.24,-4.44,-2.25,-4.44,4.44,4.37,4.68,2.20,2.19,2.20
53.56,-2.21,-4.38,-2.21,-4.39,4.38,4.32,4.63,2.17,2.17,2.17
54.10,-2.20,-4.35,-2.19,-4.34,4.33,4.28,4.59,2.13,2.14,2.15
54.64,-2.15,-4.27,-2.16,-4.29,4.28,4.23,4.54,2.13,2.12,2.12
55.18,-2.15,-4.25,-2.14,-4.24,4.24,4.18,4.50,2.09,2.10,2.10
55.74,-2.11,-4.18,-2.12,-4.20,4.20,4.14,4.45,2.08,2.07,2.07
56.29,-2.11,-4.16,-2.11,-4.16,4.16,4.09,4.41,2.05,2.05,2.05
56.86,-2.11,-4.14,-2.09,-4.12,4.13,4.05,4.36,2.02,2.04,2.03
57.42,-2.07,-4.07,-2.09,-4.09,4.10,4.00,4.32,2.03,2.02,2.00
58.00,-2.07,-4.05,-2.09,-4.07,4.08,3.96,4.27,2.01,1.99,1.98
58.58,-2.11,-4.07,-2.10,-4.06,4.05,3.92,4.22,1.94,1.96,1.96
59.16,-2.11,-4.05,-2.11,-4.05,4.03,3.88,4.18,1.92,1.92,1.94
59.76,-2.11,-4.03,-2.10,-4.02,4.00,3.84,4.13,1.89,1.90,1.92
60.35,-2.07,-3.96,-2.09,-3.98,3.97,3.80,4.08,1.90,1.88,1.89
60.96,-2.07,-3.93,-2.08,-3.93,3.93,3.76,4.02,1.86,1.86,1.86
61.57,-2.07,-3.89,-2.06,-3.89,3.89,3.72,3.97,1.82,1.83,1.82
62.18,-2.06,-3.85,-2.05,-3.84,3.84,3.68,3.91,1.78,1.79,1.79
62.80,-2.02,-3.78,-2.03,-3.79,3.79,3.64,3.85,1.77,1.76,1.76
63.43,-2.00,-3.73,-2.00,-3.73,3.73,3.60,3.79,1.73,1.73,1.73
64.07,-1.97,-3.67,-1.97,-3.67,3.67,3.56,3.73,1.70,1.70,1.70
64.71,-1.94,-3.62,-1.94,-3.61,3.61,3.52,3.66,1.67,1.67,1.68
65.35,-1.89,-3.54,-1.90,-3.55,3.55,3.49,3.60,1.65,1.65,1.65
66.01,-1.86,-3.48,-1.86,-3.48,3.48,3.45,3.53,1.61,1.62,1.62
66.67,-1.81,-3.40,-1.82,-3.41,3.40,3.41,3.46,1.59,1.58,1.59
67.33,-1.78,-3.34,-1.77,-3.33,3.33,3.37,3.38,1.55,1.55,1.56
68.01,-1.72,-3.25,-1.72,-3.25,3.25,3.33,3.31,1.53,1.53,1.53
68.69,-1.66,-3.16,-1.67,-3.17,3.17,3.29,3.23,1.51,1.50,1.50
69.37,-1.61,-3.08,-1.61,-3.08,3.09,3.25,3.15,1.48,1.47,1.47
70.07,-1.57,-3.01,-1.57,-3.01,3.00,3.21,3.07,1.43,1.44,1.44
70.77,-1.52,-2.93,-1.52,-2.93,2.92,3.17,2.99,1.40,1.40,1.41
71.48,-1.48,-2.86,-1.48,-2.86,2.84,3.13,2.91,1.36,1.36,1.38
72.19,-1.44,-2.78,-1.44,-2.78,2.77,3.09,2.83,1.33,1.33,1.34
72.91,-1.41,-2.72,-1.40,-2.71,2.71,3.04,2.75,1.30,1.31,1.31
73.64,-1.37,-2.64,-1.38,-2.65,2.67,3.00,2.66,1.30,1.29,1.27
74.38,-1.37,-2.61,-1.38,-2.62,2.65,2.95,2.58,1.28,1.27,1.24
75.12,-1.41,-2.61,-1.41,-2.61,2.65,2.90,2.50,1.24,1.24,1.20
75.87,-1.49,-2.66,-1.48,-2.66,2.69,2.86,2.42,1.19,1.20,1.17
76.63,-1.57,-2.71,-1.58,-2.72,2.74,2.80,2.33,1.17,1.16,1.14
77.40,-1.70,-2.81,-1.70,-2.81,2.82,2.75,2.25,1.12,1.12,1.11
78.17,-1.82,-2.89,-1.83,-2.90,2.91,2.70,2.17,1.09,1.08,1.07
78.95,-1.97,-3.01,-1.96,-3.00,3.00,2.64,2.09,1.03,1.04,1.04
79.74,-2.08,-3.09,-2.09,-3.09,3.09,2.59,2.01,1.00,1.00,1.01
80.54,-2.19,-3.16,-2.20,-3.17,3.15,2.53,1.93,0.95,0.95,0.97
81.35,-2.27,-3.21,-2.27,-3.21,3.17,2.47,1.85,0.90,0.90,0.94
82.16,-2.32,-3.22,-2.31,-3.22,3.17,2.41,1.77,0.84,0.85,0.90
82.98,-2.30,-3.17,-2.30,-3.17,3.12,2.34,1.69,0.82,0.82,0.87
83.81,-2.24,-3.07,-2.23,-3.06,3.03,2.28,1.61,0.79,0.80,0.83
84.65,-2.12,-2.91,-2.13,-2.92,2.91,2.21,1.53,0.79,0.78,0.79
85.50,-1.99,-2.75,-1.99,-2.75,2.76,2.14,1.46,0.77,0.76,0.76
86.35,-1.85,-2.57,-1.85,-2.57,2.59,2.07,1.38,0.74,0.74,0.72
87.22,-1.70,-2.38,-1.71,-2.39,2.41,2.00,1.31,0.70,0.70,0.68
88.09,-1.57,-2.21,-1.56,-2.21,2.22,1.93,1.24,0.65,0.66,0.64
88.97,-1.43,-2.03,-1.43,-2.03,2.05,1.85,1.16,0.62,0.62,0.60
89.86,-1.30,-1.86,-1.31,-1.87,1.88,1.77,1.09,0.58,0.57,0.56
90.76,-1.21,-1.72,-1.21,-1.72,1.73,1.70,1.02,0.52,0.53,0.51
91.66,-1.12,-1.59,-1.12,-1.58,1.60,1.62,0.95,0.47,0.48,0.47
92.58,-1.04,-1.46,-1.04,-1.47,1.47,1.54,0.88,0.43,0.43,0.42
93.51,-0.97,-1.35,-0.98,-1.36,1.36,1.46,0.81,0.38,0.38,0.38
94.44,-0.92,-1.26,-0.92,-1.26,1.25,1.38,0.74,0.33,0.33,0.34
95.39,-0.87,-1.16,-0.87,-1.16,1.16,1.29,0.68,0.28,0.28,0.29
96.34,-0.83,-1.07,-0.83,-1.07,1.06,1.21,0.61,0.23,0.24,0.24
97.30,-0.78,-0.97,-0.79,-0.98,0.98,1.13,0.54,0.19,0.19,0.19
98.28,-0.75,-0.89,-0.75,-0.89,0.89,1.04,0.48,0.14,0.14,0.14
99.26,-0.72,-0.82,-0.71,-0.81,0.81,0.96,0.41,0.09,0.09,0.10
100.25,-0.68,-0.73,-0.68,-0.73,0.73,0.87,0.35,0.05,0.04,0.05
101.25,-0.64,-0.64,-0.65,-0.65,0.65,0.79,0.28,0.01,0.00,-0.00
102.27,-0.63,-0.58,-0.62,-0.57,0.58,0.70,0.22,-0.05,-0.05,-0.05
103.29,-0.59,-0.49,-0.60,-0.50,0.51,0.62,0.16,-0.08,-0.09,-0.10
104.32,-0.59,-0.45,-0.58,-0.44,0.44,0.53,0.10,-0.15,-0.14,-0.14
105.37,-0.55,-0.36,-0.57,-0.37,0.37,0.45,0.04,-0.18,-0.19,-0.19
106.42,-0.55,-0.31,-0.55,-0.31,0.31,0.37,-0.02,-0.24,-0.24,-0.24
107.48,-0.55,-0.26,-0.54,-0.25,0.24,0.28,-0.08,-0.31,-0.29,-0.29
108.56,-0.51,-0.17,-0.53,-0.18,0.18,0.20,-0.14,-0.33,-0.35,-0.34
109.64,-0.51,-0.12,-0.50,-0.11,0.11,0.12,-0.19,-0.40,-0.39,-0.39
110.74,-0.48,-0.04,-0.49,-0.04,0.04,0.04,-0.25,-0.44,-0.44,-0.44
111.85,-0.46,0.03,-0.47,0.03,-0.02,-0.05,-0.30,-0.49,-0.49,-0.49
112.97,-0.46,0.09,-0.45,0.10,-0.09,-0.13,-0.35,-0.56,-0.54,-0.55
114.10,-0.42,0.18,-0.44,0.17,-0.16,-0.20,-0.40,-0.59,-0.60,-0.60
115.24,-0.42,0.24,-0.42,0.24,-0.24,-0.28,-0.45,-0.66,-0.66,-0.66
116.39,-0.42,0.29,-0.41,0.30,-0.31,-0.36,-0.50,-0.73,-0.72,-0.71
117.55,-0.38,0.39,-0.39,0.38,-0.38,-0.44,-0.55,-0.76,-0.77,-0.77
118.73,-0.38,0.44,-0.37,0.45,-0.45,-0.51,-0.59,-0.83,-0.82,-0.82
119.92,-0.33,0.54,-0.34,0.53,-0.52,-0.58,-0.64,-0.86,-0.87,-0.87
121.12,-0.33,0.59,-0.32,0.60,-0.60,-0.66,-0.68,-0.93,-0.92,-0.92
122.33,-0.29,0.68,-0.30,0.67,-0.67,-0.73,-0.72,-0.96,-0.97,-0.97
123.55,-0.29,0.73,-0.28,0.74,-0.74,-0.80,-0.76,-1.03,-1.02,-1.02
124.79,-0.25,0.82,-0.26,0.81,-0.81,-0.87,-0.79,-1.06,-1.07,-1.07
126.03,-0.25,0.87,-0.25,0.88,-0.88,-0.94,-0.83,-1.13,-1.12,-1.12
127.29,-0.23,0.94,-0.22,0.95,-0.95,-1.00,-0.86,-1.18,-1.17,-1.17
128.57,-0.20,1.03,-0.21,1.01,-1.01,-1.07,-0.89,-1.21,-1.22,-1.23
129.85,-0.20,1.08,-0.20,1.08,-1.07,-1.13,-0.92,-1.28,-1.28,-1.28
131.15,-0.20,1.13,-0.19,1.14,-1.14,-1.19,-0.95,-1.34,-1.33,-1.33
132.46,-0.18,1.20,-0.18,1.19,-1.20,-1.25,-0.98,-1.38,-1.38,-1.38
133.79,-0.16,1.26,-0.17,1.25,-1.26,-1.31,-1.01,-1.42,-1.43,-1.42
135.12,-0.16,1.31,-0.15,1.32,-1.32,-1.37,-1.03,-1.48,-1.47,-1.47
136.48,-0.13,1.38,-0.14,1.38,-1.38,-1.43,-1.06,-1.51,-1.52,-1.51
137.84,-0.12,1.44,-0.13,1.43,-1.44,-1.49,-1.08,-1.56,-1.57,-1.56
139.22,-0.12,1.49,-0.11,1.49,-1.49,-1.54,-1.10,-1.61,-1.60,-1.61
140.61,-0.11,1.54,-0.10,1.55,-1.54,-1.59,-1.13,-1.65,-1.64,-1.65
142.02,-0.07,1.61,-0.09,1.60,-1.59,-1.64,-1.15,-1.66,-1.68,-1.68
143.44,-0.07,1.65,-0.07,1.65,-1.64,-1.69,-1.17,-1.71,-1.71,-1.72
144.87,-0.07,1.69,-0.07,1.69,-1.69,-1.74,-1.19,-1.76,-1.75,-1.76
146.32,-0.07,1.73,-0.07,1.73,-1.73,-1.79,-1.21,-1.80,-1.80,-1.80
147.78,-0.07,1.76,-0.07,1.77,-1.78,-1.84,-1.23,-1.85,-1.84,-1.83
149.26,-0.06,1.81,-0.06,1.81,-1.82,-1.88,-1.26,-1.88,-1.88,-1.87
150.75,-0.05,1.86,-0.05,1.86,-1.86,-1.92,-1.28,-1.92,-1.92,-1.91
152.26,-0.04,1.91,-0.04,1.91,-1.91,-1.97,-1.30,-1.95,-1.95,-1.95
153.78,-0.03,1.96,-0.03,1.96,-1.95,-2.01,-1.32,-1.98,-1.98,-1.99
155.32,-0.03,2.00,-0.03,2.00,-1.99,-2.05,-1.35,-2.02,-2.02,-2.03
156.88,-0.03,2.04,-0.03,2.04,-2.03,-2.09,-1.37,-2.06,-2.06,-2.07
158.44,-0.03,2.08,-0.04,2.07,-2.07,-2.12,-1.40,-2.10,-2.11,-2.11
160.03,-0.05,2.10,-0.05,2.10,-2.10,-2.16,-1.42,-2.16,-2.16,-2.15
161.63,-0.07,2.12,-0.06,2.13,-2.14,-2.19,-1.45,-2.21,-2.20,-2.19
163.24,-0.07,2.16,-0.07,2.15,-2.17,-2.23,-1.48,-2.24,-2.24,-2.23
164.88,-0.07,2.19,-0.07,2.19,-2.20,-2.26,-1.51,-2.27,-2.27,-2.26
166.53,-0.07,2.23,-0.07,2.23,-2.22,-2.29,-1.54,-2.30,-2.30,-2.30
168.19,-0.07,2.27,-0.08,2.26,-2.25,-2.32,-1.57,-2.32,-2.33,-2.34
169.87,-0.10,2.28,-0.10,2.28,-2.27,-2.35,-1.61,-2.37,-2.37,-2.38
171.57,-0.12,2.30,-0.12,2.30,-2.29,-2.37,-1.64,-2.41,-2.41,-2.42
173.29,-0.14,2.31,-0.15,2.31,-2.31,-2.40,-1.68,-2.45,-2.45,-2.45
175.02,-0.17,2.32,-0.17,2.32,-2.32,-2.43,-1.72,-2.49,-2.49,-2.49
176.77,-0.20,2.33,-0.20,2.33,-2.34,-2.45,-1.76,-2.54,-2.54,-2.53
178.54,-0.23,2.34,-0.23,2.34,-2.35,-2.47,-1.80,-2.58,-2.58,-2.57
180.32,-0.25,2.36,-0.25,2.36,-2.37,-2.49,-1.84,-2.62,-2.62,-2.61
182.13,-0.25,2.39,-0.25,2.39,-2.39,-2.52,-1.88,-2.65,-2.65,-2.64
183.95,-0.25,2.43,-0.25,2.43,-2.42,-2.54,-1.93,-2.67,-2.68,-2.68
185.79,-0.25,2.46,-0.25,2.46,-2.45,-2.55,-1.98,-2.71,-2.71,-2.71
187.65,-0.25,2.50,-0.25,2.49,-2.49,-2.57,-2.02,-2.74,-2.74,-2.75
189.52,-0.25,2.53,-0.25,2.53,-2.53,-2.59,-2.07,-2.78,-2.78,-2.78
191.42,-0.25,2.56,-0.24,2.57,-2.57,-2.60,-2.12,-2.83,-2.82,-2.81
193.33,-0.23,2.61,-0.23,2.61,-2.62,-2.62,-2.18,-2.85,-2.85,-2.84
195.27,-0.20,2.67,-0.21,2.66,-2.66,-2.63,-2.23,-2.87,-2.88,-2.87
197.22,-0.20,2.70,-0.19,2.71,-2.71,-2.64,-2.28,-2.91,-2.90,-2.90
199.19,-0.16,2.77,-0.17,2.76,-2.75,-2.66,-2.34,-2.91,-2.92,-2.93
201.18,-0.16,2.79,-0.15,2.80,-2.79,-2.67,-2.39,-2.95,-2.94,-2.95
203.19,-0.12,2.85,-0.13,2.84,-2.83,-2.68,-2.45,-2.95,-2.96,-2.97
205.23,-0.12,2.87,-0.12,2.86,-2.86,-2.69,-2.50,-2.98,-2.98,-2.99
207.28,-0.12,2.88,-0.12,2.89,-2.88,-2.69,-2.56,-3.01,-3.00,-3.00
209.35,-0.12,2.90,-0.12,2.90,-2.90,-2.70,-2.62,-3.02,-3.02,-3.02
211.44,-0.12,2.92,-0.12,2.91,-2.92,-2.71,-2.67,-3.04,-3.04,-3.04
213.56,-0.12,2.93,-0.12,2.93,-2.93,-2.71,-2.73,-3.05,-3.05,-3.05
215.69,-0.12,2.93,-0.12,2.93,-2.94,-2.72,-2.78,-3.06,-3.06,-3.05
217.85,-0.12,2.94,-0.12,2.94,-2.94,-2.72,-2.83,-3.06,-3.06,-3.06
220.03,-0.12,2.95,-0.12,2.95,-2.94,-2.73,-2.88,-3.07,-3.06,-3.07
222.23,-0.12,2.96,-0.12,2.95,-2.94,-2.73,-2.93,-3.06,-3.07,-3.08
224.45,-0.12,2.96,-0.14,2.95,-2.94,-2.73,-2.98,-3.06,-3.07,-3.08
226.70,-0.16,2.92,-0.15,2.93,-2.93,-2.73,-3.02,-3.10,-3.08,-3.08
228.96,-0.16,2.92,-0.16,2.92,-2.93,-2.73,-3.07,-3.09,-3.09,-3.08
231.25,-0.16,2.91,-0.17,2.91,-2.92,-2.73,-3.10,-3.08,-3.09,-3.07
233.57,-0.16,2.91,-0.16,2.91,-2.91,-2.73,-3.14,-3.07,-3.07,-3.07
235.90,-0.16,2.91,-0.16,2.91,-2.90,-2.73,-3.17,-3.07,-3.07,-3.07
238.26,-0.16,2.90,-0.16,2.90,-2.90,-2.73,-3.20,-3.06,-3.06,-3.06
240.64,-0.16,2.89,-0.16,2.89,-2.89,-2.72,-3.22,-3.05,-3.05,-3.05
243.05,-0.16,2.88,-0.16,2.88,-2.88,-2.72,-3.24,-3.04,-3.04,-3.04
245.48,-0.16,2.87,-0.16,2.87,-2.87,-2.71,-3.25,-3.03,-3.03,-3.03
247.93,-0.16,2.86,-0.16,2.86,-2.85,-2.71,-3.26,-3.01,-3.01,-3.02
250.41,-0.16,2.85,-0.16,2.84,-2.83,-2.70,-3.26,-2.99,-3.00,-3.01
252.92,-0.16,2.83,-0.18,2.82,-2.81,-2.70,-3.26,-2.97,-2.99,-2.99
255.45,-0.20,2.77,-0.19,2.79,-2.79,-2.69,-3.25,-2.99,-2.98,-2.97
258.00,-0.20,2.76,-0.20,2.76,-2.77,-2.68,-3.24,-2.97,-2.97,-2.96
260.58,-0.20,2.74,-0.21,2.73,-2.75,-2.68,-3.23,-2.95,-2.95,-2.94
263.19,-0.20,2.72,-0.20,2.72,-2.72,-2.67,-3.21,-2.92,-2.92,-2.92
265.82,-0.20,2.70,-0.20,2.70,-2.70,-2.66,-3.18,-2.90,-2.90,-2.90
268.48,-0.20,2.68,-0.20,2.68,-2.68,-2.65,-3.16,-2.88,-2.88,-2.88
271.16,-0.20,2.66,-0.20,2.66,-2.66,-2.64,-3.12,-2.86,-2.86,-2.86
273.87,-0.20,2.64,-0.20,2.64,-2.63,-2.63,-3.09,-2.83,-2.83,-2.84
276.61,-0.20,2.62,-0.20,2.62,-2.61,-2.62,-3.05,-2.81,-2.81,-2.82
279.38,-0.20,2.60,-0.22,2.59,-2.58,-2.61,-3.01,-2.78,-2.79,-2.80
282.17,-0.24,2.54,-0.23,2.55,-2.55,-2.59,-2.96,-2.79,-2.78,-2.78
284.99,-0.25,2.51,-0.25,2.51,-2.52,-2.58,-2.92,-2.78,-2.77,-2.76
287.84,-0.25,2.49,-0.26,2.49,-2.50,-2.57,-2.87,-2.75,-2.75,-2.74
290.72,-0.25,2.47,-0.25,2.47,-2.47,-2.56,-2.82,-2.72,-2.73,-2.72
293.63,-0.25,2.45,-0.25,2.45,-2.45,-2.54,-2.77,-2.70,-2.70,-2.70
296.57,-0.25,2.43,-0.25,2.43,-2.43,-2.53,-2.72,-2.68,-2.68,-2.68
299.53,-0.25,2.41,-0.25,2.41,-2.40,-2.52,-2.67,-2.66,-2.66,-2.66
302.53,-0.25,2.39,-0.25,2.39,-2.38,-2.50,-2.62,-2.64,-2.64,-2.64
305.55,-0.25,2.36,-0.25,2.36,-2.36,-2.49,-2.56,-2.61,-2.61,-2.61
308.61,-0.25,2.34,-0.25,2.34,-2.34,-2.47,-2.51,-2.59,-2.59,-2.59
311.69,-0.25,2.31,-0.25,2.31,-2.31,-2.46,-2.46,-2.56,-2.56,-2.56
314.81,-0.25,2.28,-0.25,2.29,-2.28,-2.44,-2.41,-2.53,-2.53,-2.53
317.96,-0.25,2.26,-0.25,2.26,-2.25,-2.43,-2.36,-2.50,-2.51,-2.51
321.14,-0.25,2.24,-0.26,2.23,-2.22,-2.41,-2.31,-2.47,-2.48,-2.49
324.35,-0.29,2.18,-0.28,2.19,-2.19,-2.39,-2.26,-2.48,-2.47,-2.47
327.59,-0.29,2.16,-0.30,2.15,-2.16,-2.38,-2.21,-2.45,-2.45,-2.45
330.87,-0.31,2.12,-0.32,2.12,-2.12,-2.36,-2.17,-2.43,-2.44,-2.43
334.18,-0.33,2.08,-0.32,2.09,-2.09,-2.34,-2.12,-2.42,-2.41,-2.41
337.52,-0.33,2.06,-0.33,2.06,-2.06,-2.32,-2.08,-2.39,-2.39,-2.39
340.90,-0.33,2.04,-0.34,2.03,-2.03,-2.31,-2.03,-2.36,-2.37,-2.37
344.30,-0.35,2.00,-0.35,2.01,-2.01,-2.29,-1.99,-2.36,-2.35,-2.35
347.75,-0.35,1.98,-0.35,1.98,-1.98,-2.27,-1.95,-2.33,-2.33,-2.33
351.23,-0.35,1.96,-0.35,1.96,-1.96,-2.25,-1.91,-2.31,-2.31,-2.31
354.74,-0.35,1.94,-0.35,1.94,-1.94,-2.23,-1.88,-2.29,-2.29,-2.29
358.28,-0.35,1.93,-0.36,1.91,-1.91,-2.22,-1.84,-2.26,-2.27,-2.28
361.87,-0.38,1.88,-0.37,1.89,-1.89,-2.20,-1.81,-2.27,-2.26,-2.26
365.49,-0.38,1.86,-0.38,1.86,-1.87,-2.18,-1.78,-2.25,-2.25,-2.24
369.14,-0.38,1.85,-0.38,1.85,-1.84,-2.16,-1.74,-2.22,-2.22,-2.23
372.83,-0.38,1.83,-0.39,1.83,-1.82,-2.14,-1.71,-2.20,-2.21,-2.21
376.56,-0.39,1.81,-0.40,1.80,-1.80,-2.12,-1.69,-2.19,-2.20,-2.20
380.33,-0.42,1.76,-0.41,1.77,-1.78,-2.10,-1.66,-2.20,-2.19,-2.18
384.13,-0.42,1.75,-0.42,1.75,-1.76,-2.08,-1.63,-2.18,-2.18,-2.17
387.97,-0.42,1.74,-0.42,1.73,-1.74,-2.06,-1.61,-2.16,-2.16,-2.16
391.85,-0.42,1.73,-0.42,1.73,-1.72,-2.05,-1.59,-2.15,-2.15,-2.15
395.77,-0.42,1.71,-0.42,1.71,-1.71,-2.03,-1.57,-2.13,-2.13,-2.13
399.73,-0.42,1.70,-0.42,1.70,-1.70,-2.01,-1.55,-2.12,-2.12,-2.12
403.72,-0.42,1.69,-0.42,1.69,-1.69,-1.99,-1.53,-2.11,-2.11,-2.11
407.76,-0.42,1.68,-0.42,1.68,-1.68,-1.97,-1.51,-2.10,-2.10,-2.10
411.84,-0.42,1.67,-0.42,1.67,-1.67,-1.95,-1.49,-2.09,-2.09,-2.09
415.96,-0.42,1.66,-0.42,1.66,-1.66,-1.93,-1.48,-2.08,-2.08,-2.08
420.12,-0.42,1.65,-0.42,1.65,-1.65,-1.91,-1.46,-2.07,-2.07,-2.07
424.32,-0.42,1.64,-0.42,1.64,-1.64,-1.89,-1.45,-2.06,-2.06,-2.06
428.56,-0.42,1.63,-0.42,1.63,-1.63,-1.87,-1.44,-2.05,-2.05,-2.05
432.85,-0.42,1.62,-0.42,1.62,-1.62,-1.85,-1.43,-2.04,-2.04,-2.04
437.18,-0.42,1.61,-0.42,1.61,-1.61,-1.83,-1.41,-2.03,-2.03,-2.03
441.55,-0.42,1.59,-0.42,1.59,-1.59,-1.81,-1.40,-2.02,-2.02,-2.01
445.96,-0.42,1.58,-0.42,1.58,-1.58,-1.79,-1.39,-2.00,-2.00,-2.00
450.42,-0.42,1.57,-0.42,1.56,-1.57,-1.77,-1.38,-1.99,-1.99,-1.99
454.93,-0.42,1.55,-0.42,1.55,-1.56,-1.75,-1.38,-1.98,-1.98,-1.97
459.48,-0.42,1.54,-0.42,1.54,-1.54,-1.73,-1.37,-1.96,-1.96,-1.96
