frequency,raw,error,smoothed,error_smoothed,equalization,parametric_eq,fixed_band_eq,equalized_raw,equalized_smoothed,target
20.00,4.45,-4.97,4.45,-4.97,4.96,4.58,1.45,9.40,9.40,9.42
20.20,4.50,-4.91,4.50,-4.91,4.91,4.54,1.49,9.40,9.41,9.41
20.40,4.55,-4.85,4.55,-4.85,4.86,4.51,1.54,9.40,9.41,9.40
20.61,4.60,-4.80,4.60,-4.80,4.81,4.47,1.58,9.40,9.40,9.40
20.81,4.65,-4.73,4.65,-4.74,4.75,4.43,1.63,9.40,9.40,9.38
21.02,4.70,-4.68,4.69,-4.68,4.70,4.40,1.68,9.40,9.39,9.38
21.23,4.74,-4.63,4.74,-4.63,4.64,4.36,1.73,9.38,9.39,9.37
21.44,4.79,-4.59,4.78,-4.59,4.59,4.32,1.79,9.38,9.37,9.38
21.66,4.83,-4.54,4.83,-4.54,4.54,4.29,1.84,9.36,9.36,9.37
21.87,4.87,-4.49,4.87,-4.49,4.48,4.25,1.90,9.35,9.35,9.36
22.09,4.92,-4.43,4.92,-4.43,4.42,4.21,1.95,9.34,9.34,9.35
22.31,4.98,-4.37,4.98,-4.37,4.36,4.17,2.01,9.34,9.34,9.35
22.54,5.04,-4.30,5.04,-4.30,4.30,4.13,2.07,9.34,9.34,9.34
22.76,5.10,-4.23,5.10,-4.23,4.23,4.10,2.13,9.33,9.33,9.33
22.99,5.16,-4.16,5.16,-4.16,4.17,4.06,2.20,9.33,9.33,9.32
23.22,5.22,-4.09,5.21,-4.10,4.11,4.02,2.26,9.32,9.32,9.31
23.45,5.27,-4.05,5.27,-4.04,4.05,3.98,2.33,9.31,9.32,9.32
23.69,5.33,-3.98,5.33,-3.98,3.99,3.94,2.40,9.32,9.32,9.31
23.92,5.39,-3.92,5.38,-3.93,3.94,3.90,2.46,9.33,9.32,9.31
24.16,5.44,-3.88,5.44,-3.88,3.89,3.86,2.53,9.33,9.32,9.32
24.40,5.48,-3.85,5.48,-3.85,3.84,3.82,2.61,9.32,9.32,9.33
24.65,5.53,-3.80,5.52,-3.81,3.79,3.78,2.68,9.32,9.32,9.33
24.89,5.57,-3.76,5.57,-3.76,3.75,3.74,2.75,9.32,9.32,9.33
25.14,5.62,-3.70,5.62,-3.70,3.70,3.70,2.82,9.32,9.32,9.32
25.39,5.67,-3.65,5.67,-3.65,3.66,3.66,2.90,9.33,9.32,9.32
25.65,5.72,-3.60,5.72,-3.61,3.61,3.62,2.97,9.33,9.33,9.32
25.91,5.77,-3.56,5.77,-3.56,3.56,3.58,3.04,9.33,9.33,9.33
26.16,5.82,-3.52,5.82,-3.52,3.52,3.54,3.11,9.33,9.33,9.34
26.43,5.87,-3.47,5.86,-3.48,3.47,3.50,3.19,9.34,9.34,9.34
26.69,5.91,-3.43,5.91,-3.43,3.43,3.46,3.26,9.34,9.34,9.34
26.96,5.96,-3.37,5.95,-3.38,3.39,3.42,3.33,9.35,9.34,9.33
27.23,6.00,-3.33,5.99,-3.34,3.35,3.38,3.39,9.34,9.34,9.33
27.50,6.03,-3.30,6.03,-3.31,3.30,3.34,3.46,9.33,9.33,9.33
27.77,6.06,-3.28,6.06,-3.28,3.26,3.29,3.52,9.32,9.31,9.34
28.05,6.09,-3.25,6.09,-3.24,3.22,3.25,3.58,9.30,9.31,9.34
28.33,6.14,-3.18,6.14,-3.19,3.18,3.21,3.63,9.32,9.32,9.32
28.62,6.20,-3.12,6.19,-3.13,3.15,3.17,3.68,9.35,9.35,9.32
28.90,6.25,-3.08,6.24,-3.09,3.12,3.13,3.72,9.37,9.36,9.33
29.19,6.27,-3.06,6.26,-3.06,3.09,3.09,3.77,9.36,9.36,9.33
29.48,6.27,-3.05,6.27,-3.06,3.06,3.04,3.80,9.33,9.33,9.32
29.78,6.27,-3.05,6.27,-3.06,3.03,3.00,3.83,9.29,9.30,9.32
30.08,6.28,-3.05,6.29,-3.03,2.99,2.96,3.85,9.27,9.28,9.33
30.38,6.34,-2.98,6.34,-2.98,2.95,2.92,3.87,9.29,9.29,9.32
30.68,6.40,-2.90,6.39,-2.92,2.91,2.88,3.88,9.31,9.30,9.30
30.99,6.46,-2.84,6.45,-2.85,2.86,2.83,3.88,9.32,9.31,9.30
31.30,6.50,-2.79,6.50,-2.79,2.81,2.79,3.87,9.31,9.31,9.29
31.61,6.54,-2.74,6.54,-2.74,2.76,2.75,3.86,9.30,9.30,9.28
31.93,6.58,-2.69,6.57,-2.70,2.71,2.71,3.84,9.29,9.28,9.27
32.24,6.60,-2.67,6.60,-2.67,2.67,2.67,3.82,9.26,9.26,9.27
32.57,6.62,-2.63,6.62,-2.64,2.63,2.62,3.79,9.25,9.25,9.25
32.89,6.64,-2.61,6.64,-2.61,2.60,2.58,3.75,9.24,9.24,9.25
33.22,6.67,-2.58,6.67,-2.58,2.58,2.54,3.70,9.24,9.25,9.25
33.55,6.71,-2.53,6.70,-2.54,2.55,2.50,3.65,9.26,9.26,9.24
33.89,6.74,-2.51,6.73,-2.51,2.53,2.45,3.60,9.27,9.26,9.25
34.23,6.75,-2.48,6.74,-2.49,2.50,2.41,3.54,9.25,9.24,9.23
34.57,6.75,-2.48,6.74,-2.49,2.47,2.37,3.47,9.22,9.21,9.23
34.92,6.75,-2.47,6.76,-2.46,2.43,2.33,3.40,9.18,9.19,9.22
35.27,6.80,-2.43,6.80,-2.42,2.39,2.28,3.33,9.18,9.19,9.23
35.62,6.87,-2.34,6.86,-2.35,2.34,2.24,3.25,9.21,9.20,9.21
35.97,6.94,-2.27,6.92,-2.28,2.30,2.20,3.17,9.23,9.22,9.21
36.33,6.97,-2.22,6.98,-2.22,2.25,2.16,3.09,9.22,9.22,9.19
36.70,7.01,-2.17,7.01,-2.17,2.20,2.11,3.00,9.21,9.21,9.18
37.06,7.04,-2.12,7.03,-2.13,2.15,2.07,2.92,9.19,9.18,9.16
37.43,7.04,-2.10,7.04,-2.10,2.10,2.03,2.83,9.14,9.14,9.14
37.81,7.04,-2.08,7.04,-2.07,2.05,1.98,2.74,9.09,9.10,9.12
38.19,7.06,-2.03,7.06,-2.04,2.01,1.94,2.65,9.06,9.06,9.09
38.57,7.09,-1.98,7.09,-1.98,1.96,1.90,2.56,9.04,9.04,9.07
38.95,7.13,-1.91,7.12,-1.91,1.91,1.86,2.47,9.03,9.03,9.04
39.34,7.16,-1.84,7.16,-1.84,1.86,1.81,2.38,9.01,9.02,9.00
39.74,7.20,-1.78,7.20,-1.78,1.81,1.77,2.29,9.00,9.00,8.98
40.14,7.23,-1.72,7.22,-1.73,1.76,1.73,2.20,8.99,8.98,8.95
40.54,7.23,-1.70,7.23,-1.70,1.71,1.69,2.11,8.94,8.94,8.93
40.94,7.23,-1.67,7.23,-1.67,1.67,1.64,2.02,8.90,8.90,8.90
41.35,7.23,-1.65,7.23,-1.65,1.63,1.60,1.94,8.86,8.86,8.88
41.76,7.23,-1.61,7.23,-1.61,1.60,1.56,1.85,8.82,8.83,8.84
42.18,7.25,-1.57,7.25,-1.57,1.55,1.52,1.77,8.80,8.80,8.82
42.60,7.28,-1.52,7.28,-1.52,1.51,1.47,1.68,8.79,8.79,8.80
43.03,7.32,-1.45,7.31,-1.46,1.46,1.43,1.60,8.78,8.77,8.77
43.46,7.34,-1.40,7.34,-1.41,1.41,1.39,1.52,8.75,8.75,8.74
43.90,7.36,-1.36,7.36,-1.35,1.36,1.35,1.44,8.72,8.73,8.72
44.33,7.39,-1.29,7.38,-1.30,1.31,1.30,1.36,8.70,8.70,8.68
44.78,7.41,-1.24,7.40,-1.26,1.26,1.26,1.28,8.67,8.66,8.65
45.23,7.42,-1.22,7.41,-1.21,1.21,1.22,1.20,8.62,8.62,8.64
45.68,7.42,-1.17,7.42,-1.17,1.16,1.18,1.12,8.57,8.57,8.59
46.13,7.43,-1.12,7.44,-1.12,1.10,1.13,1.05,8.53,8.54,8.55
46.60,7.47,-1.05,7.47,-1.05,1.05,1.09,0.97,8.52,8.52,8.52
47.06,7.51,-0.97,7.49,-0.99,1.00,1.05,0.90,8.50,8.49,8.48
47.53,7.51,-0.94,7.51,-0.93,0.95,1.00,0.83,8.45,8.45,8.45
48.01,7.51,-0.88,7.51,-0.88,0.89,0.96,0.76,8.40,8.41,8.39
48.49,7.51,-0.83,7.51,-0.84,0.84,0.92,0.69,8.35,8.35,8.34
48.97,7.51,-0.79,7.51,-0.79,0.79,0.87,0.62,8.30,8.30,8.30
49.46,7.51,-0.75,7.51,-0.74,0.74,0.83,0.55,8.25,8.25,8.26
49.96,7.51,-0.68,7.50,-0.70,0.68,0.79,0.48,8.19,8.19,8.19
50.46,7.51,-0.64,7.50,-0.65,0.63,0.74,0.42,8.13,8.13,8.15
50.96,7.51,-0.60,7.53,-0.58,0.57,0.70,0.35,8.08,8.10,8.11
51.47,7.56,-0.51,7.56,-0.51,0.51,0.66,0.29,8.07,8.07,8.07
51.99,7.61,-0.41,7.59,-0.44,0.45,0.61,0.22,8.06,8.04,8.02
52.51,7.61,-0.37,7.61,-0.37,0.39,0.57,0.16,8.00,8.00,7.98
53.03,7.61,-0.34,7.61,-0.33,0.34,0.52,0.10,7.94,7.95,7.95
53.56,7.61,-0.28,7.61,-0.29,0.28,0.48,0.04,7.89,7.89,7.89
54.10,7.61,-0.23,7.61,-0.24,0.23,0.44,-0.02,7.84,7.84,7.84
54.64,7.61,-0.19,7.61,-0.18,0.18,0.39,-0.08,7.79,7.79,7.80
55.18,7.61,-0.13,7.61,-0.14,0.14,0.35,-0.13,7.74,7.74,7.74
55.74,7.61,-0.08,7.61,-0.09,0.09,0.30,-0.19,7.70,7.70,7.69
56.29,7.61,-0.05,7.61,-0.05,0.05,0.26,-0.24,7.66,7.66,7.66
56.86,7.61,-0.01,7.61,-0.00,0.01,0.21,-0.30,7.62,7.62,7.62
57.42,7.61,0.05,7.61,0.04,-0.03,0.16,-0.35,7.58,7.58,7.56
58.00,7.61,0.08,7.61,0.08,-0.07,0.12,-0.40,7.54,7.54,7.53
58.58,7.61,0.11,7.61,0.11,-0.11,0.07,-0.45,7.49,7.49,7.50
59.16,7.61,0.15,7.61,0.15,-0.16,0.03,-0.50,7.45,7.45,7.46
59.76,7.61,0.19,7.61,0.19,-0.21,-0.02,-0.55,7.40,7.40,7.42
60.35,7.61,0.26,7.61,0.25,-0.26,-0.07,-0.59,7.35,7.35,7.35
60.96,7.61,0.31,7.61,0.31,-0.32,-0.12,-0.64,7.29,7.29,7.30
61.57,7.61,0.38,7.61,0.38,-0.37,-0.16,-0.68,7.23,7.23,7.23
62.18,7.61,0.45,7.61,0.44,-0.44,-0.21,-0.72,7.17,7.17,7.16
62.80,7.61,0.51,7.61,0.51,-0.50,-0.26,-0.76,7.11,7.11,7.10
63.43,7.61,0.57,7.61,0.56,-0.56,-0.31,-0.80,7.05,7.05,7.04
64.07,7.61,0.62,7.61,0.62,-0.62,-0.36,-0.84,6.99,6.99,6.99
64.71,7.61,0.68,7.61,0.68,-0.68,-0.41,-0.88,6.93,6.93,6.93
65.35,7.61,0.74,7.61,0.73,-0.74,-0.46,-0.91,6.87,6.87,6.87
66.01,7.61,0.80,7.61,0.79,-0.79,-0.51,-0.95,6.81,6.81,6.81
66.67,7.61,0.84,7.61,0.85,-0.86,-0.56,-0.98,6.75,6.75,6.77
67.33,7.61,0.92,7.61,0.91,-0.92,-0.61,-1.02,6.69,6.69,6.69
68.01,7.61,0.97,7.61,0.97,-0.98,-0.66,-1.05,6.63,6.63,6.64
68.69,7.61,1.04,7.61,1.03,-1.03,-0.71,-1.08,6.58,6.58,6.57
69.37,7.61,1.09,7.61,1.10,-1.08,-0.76,-1.11,6.52,6.53,6.52
70.07,7.61,1.16,7.61,1.16,-1.14,-0.82,-1.15,6.47,6.47,6.45
70.77,7.61,1.22,7.59,1.20,-1.19,-0.87,-1.18,6.42,6.40,6.39
71.48,7.56,1.24,7.56,1.24,-1.24,-0.92,-1.21,6.32,6.32,6.32
72.19,7.51,1.26,7.53,1.27,-1.29,-0.98,-1.24,6.22,6.24,6.25
72.91,7.51,1.32,7.50,1.32,-1.34,-1.03,-1.27,6.17,6.16,6.19
73.64,7.51,1.39,7.50,1.38,-1.39,-1.09,-1.31,6.11,6.11,6.12
74.38,7.51,1.45,7.51,1.45,-1.45,-1.14,-1.34,6.06,6.06,6.06
75.12,7.51,1.52,7.51,1.51,-1.50,-1.20,-1.37,6.01,6.01,5.99
75.87,7.51,1.56,7.51,1.57,-1.56,-1.25,-1.41,5.95,5.95,5.95
76.63,7.51,1.63,7.51,1.62,-1.62,-1.31,-1.44,5.89,5.89,5.88
77.40,7.51,1.68,7.51,1.68,-1.68,-1.37,-1.48,5.83,5.83,5.83
78.17,7.51,1.74,7.51,1.73,-1.74,-1.42,-1.51,5.77,5.77,5.77
78.95,7.51,1.78,7.51,1.78,-1.79,-1.48,-1.55,5.72,5.72,5.73
79.74,7.51,1.84,7.51,1.84,-1.84,-1.54,-1.59,5.66,5.66,5.67
80.54,7.51,1.90,7.51,1.89,-1.89,-1.60,-1.63,5.62,5.62,5.61
81.35,7.51,1.95,7.51,1.95,-1.94,-1.66,-1.67,5.57,5.58,5.56
82.16,7.51,2.00,7.51,2.00,-1.98,-1.71,-1.71,5.53,5.52,5.51
82.98,7.51,2.06,7.48,2.03,-2.03,-1.77,-1.76,5.48,5.46,5.45
83.81,7.44,2.05,7.45,2.06,-2.07,-1.83,-1.80,5.37,5.38,5.39
84.65,7.42,2.09,7.43,2.10,-2.12,-1.89,-1.85,5.30,5.30,5.33
85.50,7.42,2.16,7.41,2.15,-2.17,-1.95,-1.90,5.24,5.24,5.26
86.35,7.42,2.22,7.42,2.21,-2.23,-2.01,-1.95,5.19,5.19,5.20
87.22,7.42,2.27,7.42,2.27,-2.27,-2.07,-2.00,5.14,5.14,5.15
88.09,7.42,2.34,7.42,2.34,-2.32,-2.13,-2.05,5.10,5.10,5.08
88.97,7.42,2.39,7.42,2.40,-2.36,-2.19,-2.10,5.05,5.06,5.03
89.86,7.42,2.47,7.40,2.44,-2.40,-2.25,-2.16,5.01,4.99,4.95
90.76,7.36,2.47,7.35,2.46,-2.44,-2.31,-2.22,4.91,4.91,4.89
91.66,7.28,2.46,7.29,2.47,-2.48,-2.37,-2.28,4.79,4.81,4.82
92.58,7.24,2.48,7.24,2.49,-2.53,-2.43,-2.34,4.71,4.72,4.76
93.51,7.23,2.54,7.22,2.53,-2.58,-2.49,-2.40,4.65,4.65,4.69
94.44,7.23,2.61,7.22,2.61,-2.63,-2.55,-2.46,4.60,4.59,4.62
95.39,7.23,2.69,7.23,2.69,-2.69,-2.61,-2.53,4.54,4.54,4.54
96.34,7.23,2.77,7.23,2.76,-2.75,-2.67,-2.60,4.47,4.47,4.46
97.30,7.22,2.84,7.22,2.85,-2.82,-2.73,-2.66,4.40,4.40,4.38
98.28,7.21,2.92,7.20,2.91,-2.88,-2.79,-2.73,4.32,4.32,4.29
99.26,7.18,2.98,7.16,2.96,-2.94,-2.84,-2.80,4.23,4.22,4.20
100.25,7.11,2.99,7.12,3.00,-2.99,-2.90,-2.87,4.11,4.13,4.12
101.25,7.06,3.01,7.07,3.03,-3.04,-2.96,-2.95,4.02,4.04,4.05
102.27,7.05,3.09,7.03,3.06,-3.07,-3.01,-3.02,3.97,3.95,3.96
103.29,6.99,3.11,6.98,3.10,-3.11,-3.07,-3.09,3.88,3.87,3.88
104.32,6.93,3.12,6.94,3.14,-3.14,-3.13,-3.16,3.78,3.80,3.81
105.37,6.90,3.17,6.90,3.18,-3.18,-3.18,-3.24,3.72,3.72,3.73
106.42,6.88,3.24,6.86,3.22,-3.22,-3.23,-3.31,3.66,3.65,3.64
107.48,6.83,3.28,6.81,3.25,-3.25,-3.29,-3.38,3.57,3.56,3.55
108.56,6.74,3.25,6.76,3.28,-3.28,-3.34,-3.45,3.45,3.48,3.49
109.64,6.70,3.30,6.72,3.32,-3.31,-3.39,-3.52,3.39,3.41,3.40
110.74,6.71,3.39,6.68,3.36,-3.33,-3.44,-3.59,3.37,3.35,3.32
111.85,6.66,3.41,6.64,3.39,-3.36,-3.49,-3.65,3.30,3.28,3.25
112.97,6.57,3.39,6.57,3.39,-3.40,-3.53,-3.72,3.17,3.18,3.18
114.10,6.50,3.39,6.50,3.40,-3.44,-3.58,-3.78,3.06,3.06,3.11
115.24,6.45,3.42,6.46,3.43,-3.49,-3.62,-3.84,2.96,2.97,3.03
116.39,6.46,3.51,6.45,3.49,-3.53,-3.67,-3.89,2.92,2.92,2.95
117.55,6.47,3.58,6.47,3.59,-3.58,-3.71,-3.94,2.89,2.89,2.89
118.73,6.48,3.67,6.49,3.67,-3.62,-3.75,-3.99,2.86,2.87,2.81
119.92,6.51,3.76,6.48,3.73,-3.67,-3.79,-4.03,2.84,2.81,2.75
121.12,6.45,3.75,6.44,3.75,-3.72,-3.83,-4.07,2.73,2.72,2.70
122.33,6.39,3.76,6.39,3.75,-3.77,-3.86,-4.11,2.62,2.62,2.63
123.55,6.32,3.74,6.33,3.76,-3.81,-3.90,-4.14,2.51,2.53,2.58
124.79,6.31,3.79,6.32,3.80,-3.84,-3.93,-4.16,2.47,2.48,2.52
126.03,6.33,3.88,6.32,3.87,-3.87,-3.97,-4.19,2.46,2.45,2.45
127.29,6.34,3.95,6.33,3.94,-3.90,-3.99,-4.20,2.44,2.43,2.39
128.57,6.30,3.97,6.29,3.96,-3.94,-4.02,-4.21,2.36,2.35,2.33
129.85,6.25,3.99,6.23,3.97,-3.98,-4.05,-4.22,2.27,2.25,2.26
131.15,6.15,3.95,6.18,3.98,-4.01,-4.08,-4.22,2.13,2.17,2.20
132.46,6.16,4.02,6.17,4.03,-4.04,-4.10,-4.22,2.12,2.13,2.14
133.79,6.18,4.10,6.17,4.09,-4.06,-4.12,-4.22,2.11,2.11,2.08
135.12,6.19,4.17,6.15,4.12,-4.09,-4.14,-4.21,2.10,2.06,2.02
136.48,6.10,4.12,6.09,4.12,-4.11,-4.17,-4.20,1.98,1.98,1.98
137.84,5.99,4.07,6.03,4.12,-4.14,-4.18,-4.19,1.84,1.89,1.92
139.22,5.99,4.15,5.99,4.13,-4.17,-4.20,-4.17,1.81,1.81,1.84
140.61,5.99,4.19,5.98,4.19,-4.20,-4.22,-4.15,1.79,1.78,1.80
142.02,5.99,4.25,5.97,4.24,-4.22,-4.24,-4.13,1.76,1.75,1.74
143.44,5.95,4.28,5.95,4.27,-4.25,-4.25,-4.11,1.70,1.70,1.67
144.87,5.90,4.28,5.91,4.29,-4.27,-4.27,-4.09,1.63,1.64,1.62
146.32,5.87,4.30,5.86,4.29,-4.29,-4.29,-4.07,1.58,1.57,1.57
147.78,5.81,4.30,5.81,4.30,-4.30,-4.30,-4.05,1.51,1.52,1.51
149.26,5.77,4.31,5.76,4.31,-4.30,-4.32,-4.03,1.46,1.46,1.46
150.75,5.72,4.33,5.71,4.31,-4.31,-4.33,-4.01,1.41,1.40,1.39
152.26,5.65,4.30,5.66,4.32,-4.32,-4.35,-3.99,1.33,1.34,1.35
153.78,5.61,4.32,5.61,4.32,-4.34,-4.37,-3.97,1.27,1.28,1.29
155.32,5.60,4.36,5.56,4.33,-4.36,-4.39,-3.95,1.24,1.20,1.24
156.88,5.52,4.34,5.54,4.36,-4.38,-4.40,-3.94,1.13,1.15,1.18
158.44,5.50,4.38,5.53,4.40,-4.41,-4.42,-3.92,1.09,1.12,1.12
160.03,5.54,4.48,5.52,4.46,-4.44,-4.44,-3.91,1.10,1.08,1.06
161.63,5.54,4.54,5.51,4.52,-4.47,-4.46,-3.90,1.06,1.04,1.00
163.24,5.47,4.54,5.46,4.52,-4.50,-4.48,-3.90,0.96,0.96,0.93
164.88,5.38,4.50,5.38,4.51,-4.53,-4.49,-3.89,0.85,0.86,0.88
166.53,5.30,4.49,5.34,4.53,-4.55,-4.51,-3.89,0.75,0.80,0.81
168.19,5.32,4.56,5.32,4.56,-4.56,-4.53,-3.90,0.76,0.76,0.76
169.87,5.34,4.64,5.28,4.58,-4.57,-4.54,-3.90,0.77,0.71,0.70
171.57,5.21,4.58,5.22,4.58,-4.57,-4.56,-3.91,0.64,0.64,0.63
173.29,5.11,4.54,5.15,4.58,-4.58,-4.58,-3.92,0.53,0.57,0.57
175.02,5.09,4.57,5.09,4.57,-4.59,-4.59,-3.93,0.50,0.51,0.52
176.77,5.10,4.63,5.06,4.59,-4.60,-4.60,-3.95,0.50,0.46,0.47
178.54,5.02,4.61,5.01,4.60,-4.60,-4.62,-3.97,0.41,0.41,0.41
180.32,4.94,4.59,4.96,4.61,-4.61,-4.63,-3.99,0.33,0.35,0.35
182.13,4.91,4.60,4.92,4.61,-4.62,-4.64,-4.02,0.29,0.30,0.31
183.95,4.91,4.65,4.89,4.63,-4.63,-4.65,-4.04,0.28,0.27,0.26
185.79,4.87,4.66,4.87,4.65,-4.64,-4.65,-4.08,0.23,0.23,0.21
187.65,4.83,4.66,4.82,4.65,-4.65,-4.66,-4.11,0.18,0.17,0.17
189.52,4.77,4.65,4.77,4.64,-4.66,-4.66,-4.15,0.11,0.11,0.12
191.42,4.73,4.64,4.74,4.65,-4.67,-4.67,-4.19,0.06,0.07,0.09
193.33,4.71,4.67,4.71,4.68,-4.68,-4.67,-4.23,0.03,0.03,0.04
195.27,4.71,4.72,4.69,4.70,-4.69,-4.67,-4.28,0.02,-0.00,-0.01
197.22,4.66,4.72,4.66,4.71,-4.70,-4.67,-4.33,-0.04,-0.04,-0.06
199.19,4.61,4.70,4.62,4.71,-4.70,-4.67,-4.38,-0.09,-0.08,-0.09
201.18,4.57,4.71,4.56,4.70,-4.70,-4.66,-4.43,-0.14,-0.14,-0.14
203.19,4.53,4.70,4.53,4.70,-4.71,-4.66,-4.48,-0.18,-0.18,-0.17
205.23,4.48,4.69,4.49,4.69,-4.70,-4.65,-4.53,-0.22,-0.21,-0.21
207.28,4.46,4.70,4.44,4.69,-4.69,-4.65,-4.59,-0.23,-0.24,-0.24
209.35,4.39,4.67,4.39,4.68,-4.67,-4.64,-4.64,-0.28,-0.28,-0.28
211.44,4.35,4.68,4.34,4.67,-4.65,-4.63,-4.70,-0.31,-0.31,-0.33
213.56,4.28,4.64,4.28,4.65,-4.64,-4.62,-4.75,-0.36,-0.35,-0.36
215.69,4.23,4.63,4.22,4.62,-4.62,-4.61,-4.81,-0.39,-0.40,-0.40
217.85,4.16,4.59,4.14,4.58,-4.60,-4.60,-4.86,-0.44,-0.46,-0.43
220.03,4.07,4.55,4.09,4.56,-4.58,-4.58,-4.91,-0.52,-0.49,-0.48
222.23,4.04,4.54,4.05,4.55,-4.56,-4.57,-4.96,-0.53,-0.51,-0.50
224.45,4.05,4.58,4.02,4.55,-4.54,-4.55,-5.01,-0.50,-0.53,-0.53
226.70,3.98,4.54,3.99,4.54,-4.52,-4.54,-5.05,-0.54,-0.53,-0.56
228.96,3.94,4.52,3.94,4.52,-4.50,-4.52,-5.09,-0.56,-0.56,-0.58
231.25,3.89,4.48,3.88,4.48,-4.48,-4.50,-5.12,-0.59,-0.60,-0.59
233.57,3.83,4.45,3.83,4.45,-4.46,-4.48,-5.15,-0.63,-0.63,-0.62
235.90,3.80,4.43,3.79,4.42,-4.43,-4.45,-5.18,-0.64,-0.64,-0.63
238.26,3.74,4.39,3.75,4.39,-4.40,-4.43,-5.20,-0.67,-0.65,-0.65
240.64,3.74,4.38,3.72,4.37,-4.37,-4.40,-5.21,-0.64,-0.65,-0.64
243.05,3.69,4.34,3.71,4.36,-4.34,-4.38,-5.21,-0.66,-0.64,-0.65
245.48,3.69,4.36,3.67,4.34,-4.32,-4.35,-5.21,-0.63,-0.65,-0.67
247.93,3.65,4.33,3.62,4.29,-4.30,-4.32,-5.20,-0.65,-0.68,-0.68
250.41,3.55,4.22,3.59,4.26,-4.28,-4.29,-5.18,-0.73,-0.69,-0.67
252.92,3.55,4.22,3.55,4.23,-4.25,-4.25,-5.16,-0.71,-0.70,-0.67
255.45,3.56,4.25,3.53,4.22,-4.22,-4.22,-5.13,-0.67,-0.70,-0.69
258.00,3.50,4.20,3.51,4.21,-4.19,-4.18,-5.10,-0.70,-0.68,-0.70
260.58,3.48,4.19,3.48,4.19,-4.16,-4.14,-5.05,-0.68,-0.68,-0.71
263.19,3.41,4.13,3.42,4.14,-4.12,-4.11,-5.00,-0.72,-0.70,-0.72
265.82,3.40,4.14,3.35,4.08,-4.09,-4.07,-4.94,-0.69,-0.74,-0.74
268.48,3.26,4.00,3.28,4.02,-4.04,-4.03,-4.88,-0.79,-0.76,-0.74
271.16,3.19,3.95,3.23,3.99,-4.00,-3.98,-4.81,-0.81,-0.77,-0.76
273.87,3.20,3.97,3.16,3.94,-3.95,-3.94,-4.73,-0.75,-0.78,-0.77
276.61,3.15,3.94,3.11,3.91,-3.90,-3.90,-4.65,-0.75,-0.78,-0.79
279.38,3.01,3.83,3.05,3.86,-3.85,-3.85,-4.57,-0.84,-0.80,-0.82
282.17,2.98,3.80,2.98,3.80,-3.80,-3.80,-4.48,-0.83,-0.83,-0.82
284.99,2.93,3.75,2.92,3.75,-3.76,-3.76,-4.39,-0.84,-0.84,-0.82
287.84,2.91,3.73,2.89,3.72,-3.72,-3.71,-4.30,-0.81,-0.83,-0.82
290.72,2.83,3.67,2.86,3.69,-3.67,-3.66,-4.21,-0.85,-0.82,-0.84
293.63,2.84,3.67,2.80,3.64,-3.63,-3.61,-4.11,-0.79,-0.83,-0.83
296.57,2.76,3.59,2.75,3.58,-3.58,-3.57,-4.01,-0.83,-0.84,-0.83
299.53,2.67,3.51,2.72,3.55,-3.54,-3.52,-3.91,-0.88,-0.83,-0.84
302.53,2.68,3.51,2.67,3.50,-3.51,-3.47,-3.82,-0.83,-0.84,-0.83
305.55,2.68,3.52,2.62,3.46,-3.47,-3.42,-3.72,-0.80,-0.85,-0.84
308.61,2.55,3.38,2.58,3.41,-3.43,-3.37,-3.62,-0.89,-0.86,-0.83
311.69,2.50,3.35,2.54,3.38,-3.39,-3.32,-3.52,-0.90,-0.85,-0.85
314.81,2.53,3.37,2.51,3.36,-3.35,-3.27,-3.42,-0.82,-0.84,-0.84
317.96,2.53,3.39,2.49,3.34,-3.31,-3.22,-3.32,-0.78,-0.82,-0.86
321.14,2.42,3.27,2.43,3.29,-3.26,-3.17,-3.23,-0.84,-0.83,-0.85
324.35,2.34,3.20,2.35,3.21,-3.21,-3.12,-3.13,-0.87,-0.85,-0.86
327.59,2.28,3.13,2.28,3.13,-3.15,-3.06,-3.04,-0.87,-0.87,-0.85
330.87,2.23,3.09,2.22,3.08,-3.08,-3.01,-2.95,-0.86,-0.87,-0.86
334.18,2.15,3.02,2.15,3.02,-3.01,-2.96,-2.86,-0.87,-0.86,-0.87
337.52,2.09,2.95,2.08,2.95,-2.94,-2.91,-2.77,-0.86,-0.86,-0.86
340.90,2.01,2.88,2.01,2.87,-2.88,-2.86,-2.68,-0.87,-0.87,-0.87
344.30,1.95,2.81,1.95,2.81,-2.82,-2.81,-2.60,-0.87,-0.87,-0.86
347.75,1.88,2.73,1.88,2.74,-2.76,-2.76,-2.51,-0.89,-0.88,-0.85
351.23,1.84,2.71,1.83,2.68,-2.71,-2.71,-2.43,-0.87,-0.88,-0.87
354.74,1.78,2.63,1.79,2.65,-2.65,-2.66,-2.35,-0.87,-0.85,-0.85
358.28,1.75,2.60,1.76,2.61,-2.59,-2.61,-2.28,-0.84,-0.83,-0.85
361.87,1.76,2.61,1.71,2.56,-2.53,-2.55,-2.20,-0.77,-0.82,-0.85
365.49,1.64,2.48,1.67,2.50,-2.47,-2.50,-2.12,-0.84,-0.81,-0.84
369.14,1.59,2.42,1.59,2.42,-2.42,-2.45,-2.05,-0.83,-0.83,-0.83
372.83,1.54,2.36,1.51,2.34,-2.36,-2.40,-1.98,-0.83,-0.85,-0.82
376.56,1.43,2.26,1.46,2.28,-2.31,-2.35,-1.91,-0.88,-0.85,-0.83
380.33,1.41,2.24,1.41,2.23,-2.26,-2.30,-1.85,-0.85,-0.85,-0.83
384.13,1.39,2.21,1.37,2.20,-2.21,-2.25,-1.78,-0.82,-0.84,-0.82
387.97,1.35,2.17,1.35,2.17,-2.16,-2.20,-1.72,-0.82,-0.82,-0.82
391.85,1.31,2.14,1.31,2.14,-2.12,-2.15,-1.65,-0.81,-0.81,-0.83
395.77,1.26,2.10,1.27,2.10,-2.07,-2.09,-1.59,-0.82,-0.81,-0.84
399.73,1.24,2.08,1.21,2.05,-2.03,-2.04,-1.53,-0.80,-0.82,-0.84
403.72,1.14,1.97,1.14,1.98,-1.99,-1.99,-1.48,-0.85,-0.85,-0.83
407.76,1.06,1.91,1.06,1.91,-1.94,-1.94,-1.42,-0.88,-0.88,-0.85
411.84,0.99,1.85,1.00,1.85,-1.88,-1.89,-1.36,-0.89,-0.88,-0.86
415.96,0.95,1.81,0.96,1.82,-1.82,-1.84,-1.31,-0.87,-0.86,-0.86
420.12,0.94,1.81,0.91,1.78,-1.75,-1.78,-1.26,-0.81,-0.84,-0.87
424.32,0.87,1.73,0.87,1.72,-1.68,-1.73,-1.20,-0.82,-0.82,-0.86
428.56,0.79,1.63,0.79,1.64,-1.62,-1.68,-1.15,-0.83,-0.83,-0.84
432.85,0.73,1.55,0.72,1.54,-1.56,-1.63,-1.10,-0.83,-0.84,-0.82
437.18,0.64,1.45,0.66,1.46,-1.50,-1.58,-1.06,-0.86,-0.84,-0.81
441.55,0.64,1.42,0.63,1.41,-1.44,-1.52,-1.01,-0.80,-0.80,-0.78
445.96,0.62,1.36,0.62,1.36,-1.37,-1.47,-0.96,-0.76,-0.76,-0.74
450.42,0.64,1.34,0.63,1.33,-1.32,-1.42,-0.92,-0.68,-0.69,-0.70
454.93,0.62,1.27,0.64,1.29,-1.26,-1.37,-0.87,-0.65,-0.62,-0.65
459.48,0.67,1.26,0.64,1.23,-1.22,-1.31,-0.83,-0.55,-0.57,-0.59
464.07,0.66,1.18,0.64,1.17,-1.17,-1.26,-0.79,-0.52,-0.53,-0.52
468.71,0.62,1.09,0.65,1.12,-1.13,-1.21,-0.74,-0.51,-0.47,-0.47
473.40,0.66,1.07,0.65,1.06,-1.07,-1.15,-0.70,-0.42,-0.42,-0.41
478.13,0.68,1.03,0.67,1.02,-1.02,-1.10,-0.66,-0.34,-0.35,-0.35
482.91,0.67,0.97,0.68,0.98,-0.97,-1.05,-0.62,-0.30,-0.29,-0.30
487.74,0.68,0.95,0.65,0.92,-0.91,-0.99,-0.58,-0.23,-0.26,-0.27
492.62,0.62,0.85,0.63,0.86,-0.86,-0.94,-0.54,-0.24,-0.22,-0.23
497.55,0.59,0.78,0.61,0.80,-0.80,-0.88,-0.51,-0.21,-0.19,-0.19
502.52,0.60,0.77,0.57,0.74,-0.74,-0.83,-0.47,-0.14,-0.17,-0.17
507.55,0.55,0.69,0.54,0.68,-0.68,-0.77,-0.43,-0.13,-0.14,-0.14
512.62,0.47,0.60,0.49,0.62,-0.62,-0.72,-0.39,-0.15,-0.13,-0.13
517.75,0.45,0.57,0.43,0.55,-0.56,-0.66,-0.36,-0.12,-0.13,-0.12
522.93,0.38,0.50,0.38,0.50,-0.51,-0.61,-0.32,-0.13,-0.13,-0.12
528.16,0.32,0.46,0.32,0.46,-0.46,-0.55,-0.29,-0.14,-0.14,-0.14
