frequency,raw,error,smoothed,error_smoothed,equalization,parametric_eq,fixed_band_eq,equalized_raw,equalized_smoothed,target
20.00,16.00,5.41,16.00,5.40,-5.40,-5.40,-2.66,10.60,10.60,10.59
20.20,16.02,5.44,16.02,5.44,-5.44,-5.42,-2.74,10.58,10.58,10.58
20.40,16.04,5.47,16.04,5.47,-5.47,-5.44,-2.81,10.57,10.57,10.57
20.61,16.07,5.51,16.07,5.51,-5.51,-5.46,-2.89,10.56,10.56,10.56
20.81,16.09,5.55,16.09,5.54,-5.54,-5.48,-2.97,10.55,10.55,10.54
21.02,16.11,5.58,16.11,5.57,-5.57,-5.50,-3.06,10.54,10.54,10.53
21.23,16.13,5.61,16.13,5.60,-5.60,-5.52,-3.15,10.53,10.53,10.52
21.44,16.15,5.62,16.15,5.63,-5.63,-5.54,-3.23,10.52,10.52,10.53
21.66,16.17,5.66,16.17,5.66,-5.66,-5.56,-3.33,10.51,10.51,10.51
21.87,16.19,5.68,16.19,5.69,-5.69,-5.58,-3.42,10.50,10.50,10.51
22.09,16.21,5.72,16.21,5.71,-5.71,-5.60,-3.52,10.50,10.49,10.49
22.31,16.23,5.75,16.23,5.74,-5.74,-5.61,-3.62,10.49,10.49,10.48
22.54,16.24,5.77,16.24,5.76,-5.76,-5.63,-3.72,10.48,10.48,10.47
22.76,16.26,5.79,16.26,5.79,-5.79,-5.65,-3.82,10.47,10.47,10.47
22.99,16.28,5.82,16.28,5.81,-5.81,-5.67,-3.93,10.47,10.47,10.46
23.22,16.30,5.85,16.30,5.83,-5.83,-5.68,-4.04,10.47,10.46,10.45
23.45,16.31,5.85,16.31,5.85,-5.85,-5.70,-4.15,10.46,10.46,10.46
23.69,16.33,5.88,16.33,5.87,-5.87,-5.72,-4.27,10.46,10.45,10.45
23.92,16.34,5.90,16.34,5.89,-5.89,-5.73,-4.38,10.45,10.45,10.44
24.16,16.36,5.91,16.36,5.91,-5.91,-5.75,-4.50,10.45,10.45,10.45
24.40,16.37,5.92,16.37,5.93,-5.93,-5.77,-4.62,10.44,10.44,10.45
24.65,16.39,5.95,16.39,5.95,-5.95,-5.78,-4.74,10.44,10.44,10.44
24.89,16.40,5.96,16.40,5.96,-5.96,-5.80,-4.87,10.44,10.44,10.44
25.14,16.42,5.99,16.42,5.98,-5.98,-5.81,-4.99,10.44,10.44,10.43
25.39,16.43,6.00,16.43,5.99,-5.99,-5.83,-5.12,10.44,10.44,10.43
25.65,16.44,6.01,16.44,6.01,-6.01,-5.84,-5.25,10.43,10.44,10.43
25.91,16.46,6.03,16.46,6.02,-6.02,-5.86,-5.38,10.44,10.44,10.43
26.16,16.47,6.03,16.47,6.03,-6.03,-5.87,-5.51,10.44,10.43,10.44
26.43,16.48,6.05,16.48,6.04,-6.04,-5.89,-5.63,10.44,10.43,10.43
26.69,16.49,6.06,16.49,6.05,-6.05,-5.90,-5.76,10.44,10.44,10.43
26.96,16.50,6.07,16.50,6.06,-6.06,-5.91,-5.89,10.44,10.44,10.43
27.23,16.50,6.07,16.51,6.07,-6.07,-5.93,-6.01,10.43,10.44,10.43
27.50,16.51,6.08,16.51,6.07,-6.07,-5.94,-6.13,10.44,10.44,10.43
27.77,16.52,6.08,16.52,6.08,-6.08,-5.95,-6.25,10.44,10.44,10.44
28.05,16.52,6.09,16.53,6.08,-6.08,-5.96,-6.36,10.44,10.44,10.43
28.33,16.53,6.09,16.53,6.09,-6.09,-5.98,-6.47,10.44,10.44,10.44
28.62,16.53,6.09,16.54,6.09,-6.09,-5.99,-6.58,10.44,10.44,10.44
28.90,16.54,6.09,16.54,6.09,-6.09,-6.00,-6.67,10.45,10.44,10.45
29.19,16.54,6.09,16.54,6.09,-6.09,-6.01,-6.76,10.45,10.44,10.45
29.48,16.54,6.10,16.54,6.10,-6.10,-6.02,-6.85,10.44,10.44,10.44
29.78,16.55,6.11,16.54,6.10,-6.10,-6.04,-6.92,10.45,10.44,10.44
30.08,16.55,6.11,16.53,6.10,-6.10,-6.05,-6.99,10.45,10.44,10.44
30.38,16.53,6.11,16.53,6.10,-6.10,-6.06,-7.05,10.43,10.43,10.42
30.68,16.52,6.10,16.53,6.10,-6.10,-6.07,-7.10,10.42,10.43,10.42
30.99,16.51,6.09,16.52,6.10,-6.10,-6.08,-7.14,10.42,10.42,10.42
31.30,16.50,6.08,16.51,6.09,-6.09,-6.09,-7.17,10.41,10.42,10.42
31.61,16.50,6.09,16.50,6.09,-6.09,-6.10,-7.19,10.41,10.41,10.41
31.93,16.49,6.10,16.49,6.09,-6.09,-6.11,-7.20,10.40,10.40,10.39
32.24,16.48,6.08,16.48,6.08,-6.08,-6.12,-7.21,10.40,10.40,10.40
32.57,16.47,6.09,16.47,6.08,-6.08,-6.13,-7.20,10.39,10.39,10.38
32.89,16.46,6.08,16.45,6.07,-6.07,-6.14,-7.18,10.39,10.38,10.38
33.22,16.45,6.08,16.44,6.06,-6.06,-6.15,-7.16,10.39,10.38,10.37
33.55,16.43,6.06,16.43,6.06,-6.06,-6.15,-7.13,10.37,10.37,10.37
33.89,16.41,6.05,16.41,6.05,-6.05,-6.16,-7.09,10.36,10.36,10.36
34.23,16.39,6.05,16.40,6.04,-6.04,-6.17,-7.05,10.35,10.35,10.34
34.57,16.38,6.04,16.38,6.04,-6.04,-6.18,-7.00,10.34,10.35,10.34
34.92,16.36,6.04,16.37,6.03,-6.03,-6.19,-6.94,10.33,10.34,10.32
35.27,16.35,6.01,16.35,6.02,-6.02,-6.19,-6.89,10.33,10.33,10.34
35.62,16.33,6.02,16.33,6.02,-6.02,-6.20,-6.83,10.31,10.31,10.31
35.97,16.31,6.00,16.32,6.01,-6.01,-6.21,-6.76,10.30,10.30,10.31
36.33,16.30,6.01,16.30,6.01,-6.01,-6.22,-6.70,10.29,10.29,10.29
36.70,16.28,6.01,16.28,6.01,-6.01,-6.22,-6.63,10.27,10.27,10.27
37.06,16.27,6.02,16.26,6.01,-6.01,-6.23,-6.57,10.26,10.26,10.25
37.43,16.25,6.02,16.25,6.01,-6.01,-6.24,-6.50,10.24,10.24,10.23
37.81,16.23,6.01,16.23,6.01,-6.01,-6.24,-6.44,10.22,10.22,10.22
38.19,16.21,6.02,16.21,6.01,-6.01,-6.25,-6.37,10.20,10.20,10.19
38.57,16.19,6.02,16.19,6.01,-6.01,-6.26,-6.31,10.18,10.18,10.17
38.95,16.17,6.01,16.17,6.01,-6.01,-6.26,-6.25,10.16,10.16,10.16
39.34,16.15,6.02,16.15,6.01,-6.01,-6.27,-6.19,10.14,10.13,10.13
39.74,16.13,6.03,16.12,6.01,-6.01,-6.27,-6.14,10.12,10.11,10.10
40.14,16.10,6.02,16.10,6.02,-6.02,-6.28,-6.09,10.09,10.09,10.08
40.54,16.08,6.02,16.08,6.02,-6.02,-6.28,-6.04,10.06,10.07,10.06
40.94,16.05,6.02,16.06,6.02,-6.02,-6.29,-5.99,10.03,10.04,10.03
41.35,16.03,6.01,16.04,6.02,-6.02,-6.29,-5.95,10.01,10.02,10.02
41.76,16.01,6.02,16.02,6.02,-6.02,-6.30,-5.91,9.99,10.00,9.99
42.18,15.99,6.01,16.00,6.02,-6.02,-6.30,-5.88,9.97,9.98,9.98
42.60,15.98,6.03,15.98,6.02,-6.02,-6.31,-5.85,9.96,9.95,9.95
43.03,15.96,6.03,15.95,6.03,-6.03,-6.31,-5.82,9.93,9.93,9.93
43.46,15.94,6.05,15.93,6.03,-6.03,-6.32,-5.80,9.91,9.90,9.89
43.90,15.92,6.05,15.91,6.03,-6.03,-6.32,-5.79,9.89,9.88,9.87
44.33,15.89,6.05,15.88,6.03,-6.03,-6.32,-5.77,9.86,9.85,9.84
44.78,15.86,6.04,15.86,6.04,-6.04,-6.33,-5.77,9.82,9.82,9.82
45.23,15.83,6.03,15.83,6.04,-6.04,-6.33,-5.76,9.79,9.79,9.80
45.68,15.80,6.05,15.80,6.05,-6.05,-6.33,-5.76,9.75,9.75,9.75
46.13,15.77,6.05,15.77,6.06,-6.06,-6.34,-5.77,9.71,9.72,9.72
46.60,15.74,6.06,15.74,6.06,-6.06,-6.34,-5.78,9.68,9.68,9.68
47.06,15.72,6.07,15.71,6.07,-6.07,-6.34,-5.79,9.65,9.64,9.65
47.53,15.68,6.07,15.68,6.07,-6.07,-6.34,-5.81,9.61,9.61,9.61
48.01,15.65,6.09,15.65,6.08,-6.08,-6.35,-5.83,9.57,9.57,9.56
48.49,15.62,6.10,15.62,6.09,-6.09,-6.35,-5.85,9.53,9.53,9.52
48.97,15.58,6.11,15.58,6.10,-6.10,-6.35,-5.88,9.48,9.48,9.47
49.46,15.54,6.10,15.55,6.11,-6.11,-6.35,-5.91,9.43,9.44,9.44
49.96,15.50,6.12,15.52,6.12,-6.12,-6.35,-5.95,9.38,9.40,9.38
50.46,15.48,6.13,15.48,6.13,-6.13,-6.35,-5.99,9.35,9.36,9.35
50.96,15.45,6.14,15.45,6.13,-6.13,-6.36,-6.03,9.32,9.31,9.31
51.47,15.42,6.15,15.41,6.14,-6.14,-6.36,-6.07,9.28,9.27,9.27
51.99,15.39,6.17,15.38,6.15,-6.15,-6.36,-6.11,9.25,9.23,9.22
52.51,15.35,6.16,15.34,6.15,-6.15,-6.36,-6.16,9.20,9.19,9.19
53.03,15.31,6.15,15.31,6.16,-6.16,-6.36,-6.21,9.15,9.15,9.16
53.56,15.26,6.15,15.27,6.16,-6.16,-6.36,-6.25,9.10,9.11,9.11
54.10,15.22,6.16,15.23,6.16,-6.16,-6.36,-6.30,9.06,9.07,9.06
54.64,15.19,6.17,15.20,6.17,-6.17,-6.36,-6.35,9.02,9.03,9.02
55.18,15.15,6.17,15.16,6.17,-6.17,-6.36,-6.40,8.98,8.99,8.98
55.74,15.12,6.19,15.12,6.16,-6.16,-6.36,-6.44,8.96,8.95,8.93
56.29,15.08,6.17,15.08,6.16,-6.16,-6.36,-6.49,8.92,8.91,8.91
56.86,15.05,6.18,15.04,6.16,-6.16,-6.36,-6.53,8.89,8.87,8.87
57.42,15.01,6.19,15.00,6.17,-6.17,-6.36,-6.57,8.84,8.83,8.82
58.00,14.96,6.18,14.96,6.17,-6.17,-6.36,-6.61,8.79,8.79,8.78
58.58,14.91,6.16,14.92,6.17,-6.17,-6.36,-6.64,8.74,8.75,8.75
59.16,14.87,6.15,14.88,6.18,-6.18,-6.35,-6.67,8.69,8.70,8.72
59.76,14.83,6.16,14.84,6.18,-6.18,-6.35,-6.69,8.65,8.65,8.67
60.35,14.79,6.17,14.79,6.19,-6.19,-6.35,-6.71,8.60,8.61,8.62
60.96,14.75,6.19,14.75,6.19,-6.19,-6.35,-6.72,8.56,8.56,8.56
61.57,14.71,6.21,14.71,6.20,-6.20,-6.35,-6.73,8.51,8.51,8.50
62.18,14.67,6.23,14.66,6.21,-6.21,-6.35,-6.74,8.46,8.45,8.44
62.80,14.62,6.24,14.62,6.22,-6.22,-6.34,-6.73,8.40,8.40,8.38
63.43,14.57,6.24,14.57,6.23,-6.23,-6.34,-6.72,8.34,8.35,8.33
64.07,14.52,6.24,14.53,6.23,-6.23,-6.34,-6.71,8.29,8.29,8.28
64.71,14.48,6.25,14.48,6.24,-6.24,-6.34,-6.69,8.24,8.24,8.23
65.35,14.44,6.27,14.44,6.25,-6.25,-6.33,-6.66,8.19,8.18,8.17
66.01,14.39,6.27,14.39,6.26,-6.26,-6.33,-6.63,8.13,8.13,8.12
66.67,14.34,6.26,14.34,6.27,-6.27,-6.33,-6.60,8.07,8.07,8.08
67.33,14.29,6.28,14.29,6.27,-6.27,-6.32,-6.56,8.02,8.02,8.01
68.01,14.24,6.28,14.24,6.28,-6.28,-6.32,-6.51,7.96,7.96,7.96
68.69,14.18,6.27,14.19,6.28,-6.28,-6.32,-6.47,7.90,7.91,7.91
69.37,14.14,6.28,14.14,6.29,-6.29,-6.31,-6.42,7.85,7.85,7.86
70.07,14.10,6.30,14.09,6.30,-6.30,-6.31,-6.37,7.80,7.79,7.80
70.77,14.05,6.32,14.04,6.30,-6.30,-6.30,-6.31,7.75,7.74,7.73
71.48,13.99,6.31,13.99,6.31,-6.31,-6.30,-6.26,7.68,7.68,7.68
72.19,13.93,6.31,13.94,6.31,-6.31,-6.29,-6.20,7.62,7.62,7.62
72.91,13.88,6.33,13.88,6.32,-6.32,-6.29,-6.15,7.56,7.57,7.55
73.64,13.82,6.32,13.83,6.32,-6.32,-6.28,-6.09,7.50,7.51,7.50
74.38,13.78,6.34,13.78,6.33,-6.33,-6.28,-6.04,7.45,7.45,7.44
75.12,13.73,6.34,13.73,6.33,-6.33,-6.27,-5.98,7.40,7.40,7.39
75.87,13.68,6.34,13.67,6.33,-6.33,-6.27,-5.93,7.35,7.34,7.34
76.63,13.62,6.34,13.62,6.33,-6.33,-6.26,-5.88,7.29,7.29,7.28
77.40,13.56,6.32,13.56,6.32,-6.32,-6.26,-5.83,7.24,7.24,7.24
78.17,13.51,6.33,13.51,6.32,-6.32,-6.25,-5.78,7.19,7.19,7.18
78.95,13.45,6.31,13.45,6.31,-6.31,-6.24,-5.74,7.14,7.14,7.14
79.74,13.41,6.32,13.40,6.31,-6.31,-6.24,-5.70,7.10,7.09,7.09
80.54,13.35,6.31,13.34,6.30,-6.30,-6.23,-5.66,7.05,7.04,7.04
81.35,13.28,6.30,13.28,6.29,-6.29,-6.22,-5.63,6.99,6.99,6.98
82.16,13.22,6.27,13.22,6.28,-6.28,-6.22,-5.60,6.94,6.94,6.95
82.98,13.16,6.27,13.16,6.27,-6.27,-6.21,-5.57,6.89,6.89,6.89
83.81,13.10,6.26,13.10,6.26,-6.26,-6.20,-5.55,6.84,6.84,6.84
84.65,13.04,6.26,13.04,6.25,-6.25,-6.19,-5.53,6.79,6.78,6.78
85.50,12.98,6.26,12.98,6.24,-6.24,-6.19,-5.51,6.74,6.73,6.72
86.35,12.91,6.24,12.91,6.24,-6.24,-6.18,-5.50,6.67,6.68,6.67
87.22,12.84,6.22,12.85,6.23,-6.23,-6.17,-5.50,6.61,6.62,6.62
88.09,12.78,6.22,12.79,6.22,-6.22,-6.16,-5.49,6.56,6.57,6.56
88.97,12.73,6.23,12.73,6.22,-6.22,-6.15,-5.49,6.51,6.51,6.50
89.86,12.67,6.22,12.66,6.21,-6.21,-6.14,-5.50,6.46,6.45,6.45
90.76,12.60,6.21,12.60,6.21,-6.21,-6.13,-5.51,6.39,6.39,6.39
91.66,12.53,6.21,12.54,6.21,-6.21,-6.12,-5.52,6.32,6.33,6.32
92.58,12.48,6.21,12.48,6.21,-6.21,-6.11,-5.54,6.27,6.27,6.27
93.51,12.42,6.20,12.42,6.21,-6.21,-6.10,-5.56,6.21,6.21,6.22
94.44,12.37,6.21,12.35,6.21,-6.21,-6.09,-5.59,6.16,6.15,6.16
95.39,12.30,6.21,12.30,6.21,-6.21,-6.08,-5.62,6.09,6.09,6.09
96.34,12.24,6.22,12.24,6.21,-6.21,-6.07,-5.65,6.03,6.03,6.02
97.30,12.17,6.21,12.18,6.21,-6.21,-6.06,-5.68,5.96,5.96,5.96
98.28,12.12,6.23,12.12,6.21,-6.21,-6.05,-5.72,5.91,5.90,5.89
99.26,12.06,6.23,12.06,6.22,-6.22,-6.04,-5.77,5.84,5.84,5.83
100.25,11.98,6.21,12.00,6.22,-6.22,-6.03,-5.81,5.76,5.78,5.77
101.25,11.91,6.19,11.94,6.22,-6.22,-6.02,-5.86,5.69,5.72,5.72
102.27,11.86,6.20,11.88,6.21,-6.21,-6.00,-5.91,5.65,5.67,5.66
103.29,11.83,6.23,11.82,6.21,-6.21,-5.99,-5.96,5.62,5.61,5.60
104.32,11.79,6.24,11.75,6.20,-6.20,-5.98,-6.01,5.59,5.55,5.55
105.37,11.71,6.22,11.68,6.19,-6.19,-5.97,-6.07,5.52,5.50,5.49
106.42,11.63,6.19,11.62,6.18,-6.18,-5.95,-6.12,5.45,5.44,5.44
107.48,11.56,6.18,11.55,6.16,-6.16,-5.94,-6.18,5.40,5.38,5.38
108.56,11.49,6.16,11.48,6.15,-6.15,-5.93,-6.23,5.34,5.32,5.33
109.64,11.41,6.14,11.41,6.14,-6.14,-5.91,-6.28,5.27,5.27,5.27
110.74,11.33,6.12,11.33,6.12,-6.12,-5.90,-6.33,5.21,5.21,5.21
111.85,11.24,6.09,11.26,6.11,-6.11,-5.88,-6.38,5.13,5.15,5.15
112.97,11.17,6.07,11.19,6.10,-6.10,-5.87,-6.43,5.08,5.09,5.10
114.10,11.09,6.05,11.11,6.08,-6.08,-5.85,-6.48,5.01,5.03,5.04
115.24,11.01,6.05,11.03,6.06,-6.06,-5.84,-6.52,4.95,4.98,4.96
116.39,10.96,6.06,10.96,6.04,-6.04,-5.82,-6.55,4.92,4.92,4.90
117.55,10.90,6.06,10.89,6.03,-6.03,-5.81,-6.58,4.87,4.86,4.84
118.73,10.83,6.05,10.82,6.01,-6.01,-5.79,-6.61,4.82,4.80,4.78
119.92,10.75,6.01,10.74,6.00,-6.00,-5.78,-6.63,4.75,4.75,4.74
121.12,10.66,5.97,10.67,5.99,-5.99,-5.76,-6.64,4.67,4.69,4.69
122.33,10.61,5.98,10.60,5.97,-5.97,-5.74,-6.64,4.64,4.63,4.63
123.55,10.55,5.97,10.54,5.96,-5.96,-5.73,-6.64,4.59,4.58,4.58
124.79,10.47,5.94,10.47,5.94,-5.94,-5.71,-6.64,4.53,4.52,4.53
126.03,10.38,5.91,10.40,5.93,-5.93,-5.69,-6.62,4.45,4.47,4.47
127.29,10.33,5.91,10.33,5.92,-5.92,-5.67,-6.60,4.41,4.41,4.42
128.57,10.26,5.91,10.26,5.90,-5.90,-5.65,-6.57,4.36,4.36,4.35
129.85,10.19,5.89,10.19,5.89,-5.89,-5.63,-6.53,4.30,4.30,4.30
131.15,10.10,5.86,10.12,5.87,-5.87,-5.62,-6.49,4.23,4.25,4.24
132.46,10.06,5.87,10.05,5.86,-5.86,-5.60,-6.44,4.20,4.19,4.19
133.79,9.98,5.85,9.98,5.84,-5.84,-5.58,-6.39,4.14,4.14,4.13
135.12,9.90,5.82,9.91,5.83,-5.83,-5.56,-6.33,4.07,4.09,4.08
136.48,9.85,5.82,9.84,5.81,-5.81,-5.54,-6.26,4.04,4.03,4.03
137.84,9.77,5.79,9.77,5.79,-5.79,-5.52,-6.20,3.98,3.98,3.98
139.22,9.71,5.79,9.70,5.77,-5.77,-5.50,-6.12,3.94,3.93,3.92
140.61,9.64,5.76,9.63,5.74,-5.74,-5.47,-6.05,3.90,3.88,3.88
142.02,9.53,5.71,9.55,5.71,-5.71,-5.45,-5.97,3.82,3.83,3.82
143.44,9.48,5.70,9.47,5.68,-5.68,-5.43,-5.89,3.80,3.79,3.78
144.87,9.39,5.65,9.39,5.65,-5.65,-5.41,-5.81,3.74,3.74,3.74
146.32,9.33,5.64,9.31,5.62,-5.62,-5.39,-5.73,3.71,3.70,3.69
147.78,9.23,5.58,9.23,5.58,-5.58,-5.36,-5.64,3.65,3.65,3.65
149.26,9.16,5.56,9.15,5.54,-5.54,-5.34,-5.56,3.62,3.61,3.60
150.75,9.07,5.51,9.07,5.50,-5.50,-5.32,-5.48,3.57,3.56,3.56
152.26,8.99,5.47,8.98,5.46,-5.46,-5.29,-5.40,3.53,3.52,3.52
153.78,8.89,5.41,8.90,5.42,-5.42,-5.27,-5.32,3.47,3.48,3.48
155.32,8.81,5.37,8.82,5.38,-5.38,-5.24,-5.24,3.43,3.44,3.44
156.88,8.72,5.33,8.74,5.35,-5.35,-5.22,-5.16,3.37,3.39,3.39
158.44,8.66,5.32,8.66,5.31,-5.31,-5.19,-5.09,3.35,3.35,3.34
160.03,8.56,5.26,8.58,5.27,-5.27,-5.17,-5.02,3.29,3.30,3.30
161.63,8.49,5.23,8.50,5.24,-5.24,-5.14,-4.95,3.25,3.26,3.26
163.24,8.43,5.22,8.42,5.20,-5.20,-5.12,-4.88,3.23,3.21,3.21
164.88,8.34,5.18,8.34,5.17,-5.17,-5.09,-4.82,3.17,3.17,3.16
166.53,8.26,5.15,8.26,5.14,-5.14,-5.06,-4.76,3.12,3.12,3.11
168.19,8.20,5.12,8.19,5.11,-5.11,-5.03,-4.70,3.09,3.07,3.08
169.87,8.10,5.08,8.11,5.08,-5.08,-5.01,-4.65,3.02,3.02,3.02
171.57,8.03,5.06,8.03,5.05,-5.05,-4.98,-4.59,2.98,2.98,2.97
173.29,7.97,5.04,7.95,5.02,-5.02,-4.95,-4.55,2.95,2.93,2.93
175.02,7.86,4.98,7.87,4.99,-4.99,-4.92,-4.50,2.87,2.88,2.88
176.77,7.79,4.96,7.79,4.95,-4.95,-4.89,-4.46,2.84,2.84,2.83
178.54,7.72,4.93,7.71,4.92,-4.92,-4.86,-4.43,2.80,2.79,2.79
180.32,7.65,4.92,7.63,4.89,-4.89,-4.83,-4.39,2.76,2.74,2.73
182.13,7.57,4.87,7.55,4.85,-4.85,-4.80,-4.36,2.72,2.70,2.70
183.95,7.46,4.81,7.48,4.82,-4.82,-4.77,-4.33,2.64,2.65,2.65
185.79,7.38,4.78,7.40,4.79,-4.79,-4.74,-4.31,2.59,2.61,2.60
187.65,7.31,4.75,7.32,4.76,-4.76,-4.71,-4.29,2.55,2.56,2.56
189.52,7.24,4.72,7.24,4.73,-4.73,-4.68,-4.27,2.51,2.52,2.52
191.42,7.17,4.69,7.17,4.69,-4.69,-4.64,-4.26,2.48,2.48,2.48
193.33,7.09,4.65,7.10,4.66,-4.66,-4.61,-4.24,2.43,2.44,2.44
195.27,7.02,4.63,7.02,4.63,-4.63,-4.58,-4.24,2.39,2.40,2.39
197.22,6.95,4.61,6.95,4.59,-4.59,-4.54,-4.23,2.36,2.36,2.34
199.19,6.88,4.57,6.88,4.56,-4.56,-4.51,-4.22,2.32,2.32,2.31
201.18,6.82,4.55,6.81,4.52,-4.52,-4.48,-4.22,2.30,2.29,2.27
203.19,6.74,4.50,6.74,4.49,-4.49,-4.44,-4.22,2.25,2.25,2.24
205.23,6.67,4.45,6.67,4.45,-4.45,-4.41,-4.22,2.22,2.22,2.22
207.28,6.60,4.41,6.60,4.42,-4.42,-4.37,-4.22,2.18,2.18,2.19
209.35,6.54,4.39,6.53,4.38,-4.38,-4.33,-4.23,2.16,2.15,2.15
211.44,6.46,4.34,6.46,4.34,-4.34,-4.30,-4.23,2.12,2.12,2.12
213.56,6.39,4.29,6.39,4.30,-4.30,-4.26,-4.24,2.09,2.10,2.10
215.69,6.32,4.25,6.33,4.26,-4.26,-4.22,-4.24,2.06,2.07,2.07
217.85,6.25,4.21,6.26,4.22,-4.22,-4.19,-4.25,2.03,2.04,2.04
220.03,6.20,4.19,6.19,4.17,-4.17,-4.15,-4.25,2.03,2.02,2.01
222.23,6.14,4.16,6.12,4.13,-4.13,-4.11,-4.25,2.01,1.99,1.98
224.45,6.06,4.09,6.06,4.09,-4.09,-4.07,-4.26,1.97,1.97,1.97
226.70,5.98,4.04,5.99,4.04,-4.04,-4.03,-4.26,1.94,1.95,1.94
228.96,5.92,3.99,5.93,4.00,-4.00,-3.99,-4.25,1.92,1.93,1.93
231.25,5.87,3.96,5.86,3.95,-3.95,-3.95,-4.25,1.92,1.91,1.91
233.57,5.81,3.92,5.80,3.90,-3.90,-3.91,-4.24,1.91,1.90,1.89
235.90,5.73,3.85,5.74,3.86,-3.86,-3.87,-4.23,1.87,1.88,1.88
238.26,5.68,3.83,5.68,3.81,-3.81,-3.83,-4.22,1.87,1.87,1.85
240.64,5.61,3.75,5.62,3.76,-3.76,-3.79,-4.20,1.85,1.86,1.86
243.05,5.56,3.72,5.56,3.71,-3.71,-3.75,-4.18,1.85,1.85,1.84
245.48,5.50,3.67,5.50,3.66,-3.66,-3.70,-4.15,1.84,1.84,1.83
247.93,5.43,3.61,5.45,3.62,-3.62,-3.66,-4.12,1.81,1.83,1.82
250.41,5.40,3.57,5.40,3.57,-3.57,-3.62,-4.08,1.83,1.83,1.83
252.92,5.35,3.53,5.35,3.53,-3.53,-3.57,-4.04,1.82,1.82,1.82
255.45,5.31,3.50,5.30,3.49,-3.49,-3.53,-4.00,1.82,1.82,1.81
258.00,5.26,3.45,5.26,3.44,-3.44,-3.48,-3.95,1.82,1.81,1.81
260.58,5.21,3.40,5.22,3.41,-3.41,-3.44,-3.90,1.80,1.81,1.81
263.19,5.17,3.36,5.17,3.37,-3.37,-3.39,-3.84,1.80,1.81,1.81
265.82,5.12,3.32,5.13,3.33,-3.33,-3.35,-3.78,1.79,1.80,1.80
268.48,5.09,3.29,5.09,3.29,-3.29,-3.30,-3.71,1.80,1.80,1.80
271.16,5.06,3.26,5.05,3.26,-3.26,-3.26,-3.64,1.80,1.80,1.80
273.87,5.01,3.21,5.02,3.22,-3.22,-3.21,-3.57,1.79,1.80,1.80
276.61,4.98,3.18,4.98,3.18,-3.18,-3.16,-3.49,1.80,1.80,1.80
279.38,4.95,3.17,4.94,3.14,-3.14,-3.11,-3.42,1.81,1.80,1.78
282.17,4.91,3.13,4.90,3.10,-3.10,-3.06,-3.33,1.81,1.80,1.78
284.99,4.87,3.08,4.86,3.06,-3.06,-3.02,-3.25,1.81,1.80,1.79
287.84,4.81,3.01,4.81,3.02,-3.02,-2.97,-3.17,1.79,1.80,1.80
290.72,4.76,2.97,4.77,2.97,-2.97,-2.92,-3.08,1.79,1.80,1.79
293.63,4.72,2.92,4.72,2.92,-2.92,-2.87,-2.99,1.80,1.80,1.80
296.57,4.67,2.86,4.68,2.87,-2.87,-2.82,-2.90,1.80,1.81,1.81
299.53,4.63,2.82,4.62,2.81,-2.81,-2.76,-2.81,1.82,1.81,1.81
302.53,4.59,2.76,4.57,2.75,-2.75,-2.71,-2.72,1.84,1.82,1.83
305.55,4.53,2.71,4.52,2.69,-2.69,-2.66,-2.63,1.84,1.83,1.82
308.61,4.46,2.63,4.46,2.62,-2.62,-2.61,-2.54,1.84,1.83,1.83
311.69,4.39,2.55,4.40,2.56,-2.56,-2.56,-2.45,1.83,1.84,1.84
314.81,4.34,2.50,4.34,2.49,-2.49,-2.50,-2.36,1.85,1.85,1.84
317.96,4.28,2.43,4.28,2.42,-2.42,-2.45,-2.28,1.86,1.86,1.85
321.14,4.22,2.36,4.22,2.35,-2.35,-2.39,-2.19,1.87,1.86,1.86
324.35,4.15,2.29,4.16,2.29,-2.29,-2.34,-2.10,1.86,1.87,1.86
327.59,4.09,2.20,4.10,2.22,-2.22,-2.28,-2.01,1.87,1.88,1.89
330.87,4.03,2.15,4.03,2.15,-2.15,-2.23,-1.92,1.88,1.89,1.88
334.18,3.97,2.08,3.97,2.08,-2.08,-2.17,-1.84,1.89,1.89,1.89
337.52,3.90,2.01,3.91,2.01,-2.01,-2.12,-1.75,1.89,1.90,1.89
340.90,3.85,1.94,3.86,1.95,-1.95,-2.06,-1.67,1.90,1.91,1.91
344.30,3.79,1.87,3.80,1.88,-1.88,-2.00,-1.59,1.91,1.92,1.92
347.75,3.75,1.83,3.74,1.82,-1.82,-1.94,-1.51,1.93,1.93,1.92
351.23,3.69,1.77,3.69,1.75,-1.75,-1.89,-1.43,1.94,1.93,1.92
354.74,3.64,1.69,3.63,1.69,-1.69,-1.83,-1.35,1.95,1.94,1.95
358.28,3.57,1.63,3.57,1.62,-1.62,-1.77,-1.27,1.95,1.95,1.94
361.87,3.52,1.57,3.51,1.56,-1.56,-1.71,-1.19,1.96,1.96,1.95
365.49,3.46,1.50,3.46,1.49,-1.49,-1.65,-1.11,1.97,1.96,1.96
369.14,3.40,1.42,3.40,1.42,-1.42,-1.59,-1.04,1.98,1.97,1.98
372.83,3.35,1.37,3.34,1.35,-1.35,-1.53,-0.96,2.00,1.98,1.98
376.56,3.27,1.29,3.28,1.28,-1.28,-1.46,-0.89,1.99,1.99,1.98
380.33,3.21,1.22,3.21,1.21,-1.21,-1.40,-0.82,2.00,2.00,1.99
384.13,3.15,1.14,3.15,1.14,-1.14,-1.34,-0.74,2.01,2.01,2.01
387.97,3.09,1.08,3.08,1.07,-1.07,-1.28,-0.67,2.02,2.02,2.01
391.85,3.02,1.00,3.02,0.99,-0.99,-1.21,-0.60,2.03,2.03,2.02
395.77,2.96,0.93,2.96,0.92,-0.92,-1.15,-0.53,2.04,2.04,2.03
399.73,2.89,0.85,2.90,0.85,-0.85,-1.09,-0.47,2.04,2.05,2.04
403.72,2.83,0.76,2.83,0.77,-0.77,-1.02,-0.40,2.06,2.06,2.07
407.76,2.77,0.71,2.77,0.70,-0.70,-0.96,-0.33,2.07,2.07,2.06
411.84,2.71,0.64,2.71,0.63,-0.63,-0.89,-0.27,2.08,2.08,2.07
415.96,2.65,0.56,2.65,0.57,-0.57,-0.82,-0.20,2.08,2.09,2.09
420.12,2.58,0.49,2.59,0.50,-0.50,-0.76,-0.14,2.08,2.10,2.09
424.32,2.53,0.43,2.54,0.43,-0.43,-0.69,-0.08,2.10,2.10,2.10
428.56,2.48,0.36,2.48,0.36,-0.36,-0.62,-0.01,2.12,2.11,2.12
432.85,2.43,0.30,2.42,0.30,-0.30,-0.56,0.05,2.13,2.12,2.13
437.18,2.36,0.24,2.37,0.23,-0.23,-0.49,0.11,2.13,2.13,2.12
441.55,2.31,0.18,2.31,0.17,-0.17,-0.42,0.16,2.14,2.14,2.13
445.96,2.26,0.12,2.26,0.11,-0.11,-0.35,0.22,2.15,2.15,2.14
450.42,2.21,0.06,2.20,0.04,-0.04,-0.28,0.28,2.17,2.16,2.15
454.93,2.15,-0.01,2.14,-0.02,0.02,-0.21,0.33,2.17,2.17,2.16
459.48,2.08,-0.09,2.09,-0.09,0.09,-0.14,0.38,2.17,2.18,2.17
464.07,2.03,-0.16,2.03,-0.15,0.15,-0.07,0.43,2.18,2.18,2.19
468.71,1.98,-0.22,1.97,-0.22,0.22,0.00,0.48,2.20,2.19,2.20
473.40,1.92,-0.28,1.92,-0.29,0.29,0.07,0.53,2.21,2.20,2.20
478.13,1.87,-0.34,1.86,-0.35,0.35,0.15,0.58,2.22,2.21,2.21
482.91,1.81,-0.41,1.80,-0.42,0.42,0.22,0.62,2.23,2.23,2.22
487.74,1.75,-0.48,1.75,-0.49,0.49,0.29,0.67,2.24,2.24,2.23
492.62,1.68,-0.56,1.69,-0.56,0.56,0.36,0.71,2.24,2.25,2.24
497.55,1.62,-0.63,1.63,-0.63,0.63,0.43,0.75,2.25,2.26,2.25
