frequency,raw,error,smoothed,error_smoothed,equalization,parametric_eq,fixed_band_eq,equalized_raw,equalized_smoothed,target
20.00,1.84,-5.11,1.83,-5.11,5.11,4.61,1.97,6.95,6.95,6.94
20.20,1.89,-5.05,1.88,-5.05,5.05,4.61,2.02,6.94,6.93,6.93
20.40,1.93,-4.99,1.92,-5.00,5.00,4.62,2.09,6.93,6.92,6.92
20.61,1.96,-4.95,1.96,-4.95,4.95,4.63,2.15,6.90,6.91,6.91
20.81,2.00,-4.89,2.00,-4.90,4.90,4.64,2.21,6.90,6.90,6.89
21.02,2.03,-4.85,2.04,-4.85,4.85,4.65,2.28,6.88,6.89,6.88
21.23,2.07,-4.80,2.07,-4.81,4.81,4.65,2.35,6.87,6.88,6.87
21.44,2.09,-4.79,2.10,-4.77,4.77,4.66,2.42,6.85,6.87,6.88
21.66,2.12,-4.74,2.13,-4.73,4.73,4.66,2.49,6.85,6.86,6.86
21.87,2.15,-4.71,2.15,-4.69,4.69,4.67,2.57,6.84,6.85,6.86
22.09,2.17,-4.67,2.18,-4.66,4.66,4.67,2.64,6.83,6.84,6.84
22.31,2.19,-4.65,2.20,-4.63,4.63,4.68,2.72,6.82,6.83,6.83
22.54,2.22,-4.61,2.22,-4.61,4.61,4.68,2.80,6.83,6.83,6.82
22.76,2.24,-4.58,2.23,-4.59,4.59,4.69,2.88,6.83,6.82,6.82
22.99,2.26,-4.55,2.24,-4.57,4.57,4.69,2.97,6.83,6.81,6.81
23.22,2.27,-4.53,2.25,-4.55,4.55,4.69,3.06,6.82,6.81,6.80
23.45,2.28,-4.53,2.26,-4.54,4.54,4.69,3.14,6.82,6.80,6.81
23.69,2.28,-4.52,2.27,-4.53,4.53,4.69,3.24,6.81,6.80,6.80
23.92,2.28,-4.51,2.27,-4.52,4.52,4.70,3.33,6.80,6.79,6.79
24.16,2.27,-4.53,2.27,-4.52,4.52,4.70,3.42,6.79,6.79,6.79
24.40,2.26,-4.53,2.27,-4.52,4.52,4.70,3.52,6.77,6.79,6.79
24.65,2.26,-4.53,2.27,-4.52,4.52,4.70,3.61,6.77,6.79,6.79
24.89,2.26,-4.53,2.27,-4.52,4.52,4.70,3.71,6.77,6.78,6.79
25.14,2.26,-4.52,2.27,-4.52,4.52,4.69,3.81,6.77,6.78,6.78
25.39,2.26,-4.52,2.26,-4.52,4.52,4.69,3.91,6.78,6.78,6.78
25.65,2.26,-4.52,2.26,-4.52,4.52,4.69,4.01,6.78,6.78,6.77
25.91,2.26,-4.51,2.26,-4.52,4.52,4.69,4.11,6.78,6.78,6.77
26.16,2.26,-4.52,2.26,-4.52,4.52,4.68,4.21,6.78,6.78,6.78
26.43,2.26,-4.52,2.26,-4.52,4.52,4.68,4.31,6.78,6.78,6.78
26.69,2.26,-4.52,2.26,-4.52,4.52,4.68,4.41,6.78,6.78,6.78
26.96,2.26,-4.52,2.26,-4.52,4.52,4.67,4.51,6.78,6.78,6.77
27.23,2.26,-4.51,2.26,-4.52,4.52,4.67,4.60,6.78,6.78,6.77
27.50,2.26,-4.51,2.26,-4.52,4.52,4.66,4.69,6.78,6.78,6.77
27.77,2.26,-4.52,2.26,-4.52,4.52,4.66,4.78,6.78,6.78,6.78
28.05,2.26,-4.52,2.26,-4.52,4.52,4.65,4.87,6.78,6.78,6.77
28.33,2.26,-4.52,2.26,-4.52,4.52,4.64,4.95,6.78,6.78,6.78
28.62,2.26,-4.52,2.26,-4.52,4.52,4.63,5.03,6.78,6.78,6.78
28.90,2.26,-4.53,2.26,-4.52,4.52,4.63,5.10,6.78,6.78,6.79
29.19,2.26,-4.52,2.26,-4.52,4.52,4.62,5.17,6.78,6.78,6.78
29.48,2.26,-4.52,2.26,-4.52,4.52,4.61,5.23,6.77,6.77,6.78
29.78,2.26,-4.52,2.26,-4.51,4.51,4.60,5.28,6.77,6.77,6.78
30.08,2.26,-4.51,2.26,-4.51,4.51,4.59,5.33,6.77,6.77,6.77
30.38,2.26,-4.50,2.26,-4.51,4.51,4.58,5.36,6.76,6.76,6.76
30.68,2.26,-4.50,2.26,-4.50,4.50,4.57,5.40,6.76,6.76,6.75
30.99,2.26,-4.49,2.26,-4.49,4.49,4.56,5.42,6.75,6.75,6.75
31.30,2.26,-4.49,2.26,-4.49,4.49,4.54,5.43,6.75,6.75,6.75
31.61,2.26,-4.48,2.26,-4.48,4.48,4.53,5.44,6.74,6.74,6.74
31.93,2.26,-4.46,2.26,-4.47,4.47,4.52,5.44,6.73,6.73,6.72
32.24,2.26,-4.47,2.26,-4.46,4.46,4.51,5.43,6.72,6.72,6.72
32.57,2.26,-4.45,2.26,-4.45,4.45,4.49,5.41,6.71,6.71,6.71
32.89,2.26,-4.45,2.26,-4.45,4.45,4.48,5.39,6.71,6.71,6.70
33.22,2.26,-4.44,2.26,-4.44,4.44,4.46,5.35,6.70,6.70,6.70
33.55,2.26,-4.44,2.26,-4.43,4.43,4.45,5.32,6.69,6.69,6.69
33.89,2.26,-4.42,2.26,-4.42,4.42,4.43,5.27,6.68,6.68,6.68
34.23,2.26,-4.40,2.26,-4.41,4.41,4.42,5.22,6.67,6.67,6.66
34.57,2.26,-4.40,2.26,-4.40,4.40,4.40,5.17,6.66,6.66,6.66
34.92,2.26,-4.38,2.26,-4.39,4.39,4.38,5.11,6.65,6.65,6.64
35.27,2.26,-4.40,2.26,-4.38,4.38,4.36,5.04,6.64,6.64,6.65
35.62,2.26,-4.37,2.26,-4.37,4.37,4.34,4.98,6.63,6.63,6.63
35.97,2.26,-4.36,2.26,-4.35,4.35,4.33,4.91,6.61,6.61,6.62
36.33,2.26,-4.34,2.26,-4.34,4.34,4.31,4.84,6.59,6.59,6.60
36.70,2.26,-4.32,2.26,-4.32,4.32,4.29,4.76,6.58,6.58,6.58
37.06,2.26,-4.30,2.26,-4.30,4.30,4.27,4.69,6.56,6.56,6.56
37.43,2.26,-4.28,2.26,-4.28,4.28,4.25,4.61,6.54,6.54,6.54
37.81,2.26,-4.26,2.26,-4.26,4.26,4.23,4.54,6.52,6.52,6.52
38.19,2.26,-4.23,2.26,-4.24,4.24,4.20,4.46,6.50,6.50,6.49
38.57,2.26,-4.22,2.26,-4.22,4.22,4.18,4.39,6.47,6.47,6.47
38.95,2.26,-4.20,2.26,-4.19,4.19,4.16,4.32,6.45,6.45,6.45
39.34,2.26,-4.17,2.26,-4.17,4.17,4.14,4.25,6.43,6.43,6.42
39.74,2.26,-4.14,2.26,-4.14,4.14,4.11,4.17,6.40,6.40,6.39
40.14,2.26,-4.12,2.26,-4.12,4.12,4.09,4.11,6.38,6.38,6.37
40.54,2.26,-4.09,2.26,-4.09,4.09,4.06,4.04,6.35,6.35,6.35
40.94,2.26,-4.06,2.26,-4.07,4.07,4.04,3.97,6.32,6.33,6.32
41.35,2.26,-4.04,2.26,-4.04,4.04,4.01,3.91,6.30,6.30,6.30
41.76,2.26,-4.01,2.27,-4.01,4.01,3.99,3.85,6.27,6.28,6.27
42.18,2.26,-4.00,2.27,-3.98,3.98,3.96,3.79,6.24,6.25,6.26
42.60,2.26,-3.96,2.27,-3.95,3.95,3.93,3.74,6.21,6.22,6.22
43.03,2.27,-3.93,2.27,-3.92,3.92,3.91,3.68,6.19,6.20,6.20
43.46,2.27,-3.90,2.27,-3.89,3.89,3.88,3.63,6.16,6.17,6.16
43.90,2.28,-3.86,2.27,-3.87,3.87,3.85,3.59,6.15,6.14,6.14
44.33,2.28,-3.83,2.27,-3.84,3.84,3.82,3.54,6.12,6.11,6.11
44.78,2.28,-3.80,2.26,-3.82,3.82,3.79,3.50,6.10,6.08,6.08
45.23,2.27,-3.79,2.25,-3.79,3.79,3.76,3.46,6.06,6.04,6.05
45.68,2.25,-3.76,2.24,-3.77,3.77,3.73,3.42,6.02,6.01,6.01
46.13,2.23,-3.74,2.22,-3.75,3.75,3.70,3.39,5.98,5.97,5.97
46.60,2.21,-3.72,2.20,-3.73,3.73,3.67,3.36,5.94,5.93,5.93
47.06,2.18,-3.71,2.17,-3.71,3.71,3.64,3.33,5.89,5.89,5.89
47.53,2.15,-3.71,2.15,-3.70,3.70,3.61,3.30,5.84,5.84,5.85
48.01,2.12,-3.68,2.12,-3.68,3.68,3.58,3.28,5.80,5.80,5.79
48.49,2.09,-3.66,2.09,-3.66,3.66,3.54,3.26,5.75,5.75,5.75
48.97,2.06,-3.64,2.06,-3.65,3.65,3.51,3.24,5.71,5.71,5.70
49.46,2.03,-3.63,2.03,-3.63,3.63,3.48,3.22,5.66,5.66,5.66
49.96,2.00,-3.60,2.01,-3.61,3.61,3.44,3.21,5.61,5.61,5.60
50.46,1.98,-3.58,1.98,-3.58,3.58,3.41,3.19,5.56,5.57,5.56
50.96,1.95,-3.57,1.97,-3.55,3.55,3.37,3.18,5.50,5.52,5.52
51.47,1.94,-3.54,1.95,-3.52,3.52,3.34,3.17,5.46,5.47,5.47
51.99,1.92,-3.50,1.94,-3.49,3.49,3.30,3.16,5.40,5.43,5.42
52.51,1.92,-3.46,1.93,-3.45,3.45,3.26,3.15,5.37,5.38,5.38
53.03,1.92,-3.42,1.93,-3.41,3.41,3.23,3.14,5.32,5.33,5.34
53.56,1.92,-3.38,1.92,-3.36,3.36,3.19,3.13,5.28,5.29,5.29
54.10,1.93,-3.31,1.92,-3.32,3.32,3.15,3.13,5.25,5.24,5.24
54.64,1.93,-3.27,1.92,-3.27,3.27,3.11,3.12,5.20,5.20,5.19
55.18,1.94,-3.20,1.92,-3.23,3.23,3.08,3.11,5.17,5.15,5.14
55.74,1.94,-3.15,1.93,-3.18,3.18,3.04,3.10,5.12,5.11,5.09
56.29,1.94,-3.12,1.93,-3.13,3.13,3.00,3.09,5.07,5.06,5.06
56.86,1.94,-3.07,1.93,-3.08,3.08,2.96,3.08,5.02,5.01,5.01
57.42,1.94,-3.02,1.94,-3.03,3.03,2.92,3.07,4.97,4.97,4.96
58.00,1.94,-2.97,1.94,-2.97,2.97,2.88,3.05,4.91,4.92,4.91
58.58,1.94,-2.93,1.95,-2.92,2.92,2.84,3.04,4.86,4.87,4.87
59.16,1.94,-2.90,1.95,-2.86,2.86,2.80,3.02,4.80,4.81,4.83
59.76,1.94,-2.85,1.95,-2.81,2.81,2.75,3.00,4.75,4.76,4.78
60.35,1.94,-2.78,1.95,-2.75,2.75,2.71,2.98,4.69,4.71,4.72
60.96,1.95,-2.71,1.95,-2.69,2.69,2.67,2.95,4.64,4.65,4.66
61.57,1.96,-2.63,1.95,-2.64,2.64,2.63,2.92,4.60,4.59,4.59
62.18,1.96,-2.56,1.95,-2.58,2.58,2.58,2.89,4.54,4.53,4.52
62.80,1.96,-2.50,1.94,-2.53,2.53,2.54,2.85,4.49,4.47,4.46
63.43,1.94,-2.45,1.93,-2.48,2.48,2.50,2.81,4.42,4.41,4.39
64.07,1.93,-2.40,1.91,-2.43,2.43,2.45,2.77,4.36,4.34,4.33
64.71,1.91,-2.36,1.89,-2.39,2.39,2.41,2.73,4.29,4.28,4.27
65.35,1.88,-2.33,1.87,-2.34,2.34,2.36,2.68,4.22,4.22,4.21
66.01,1.86,-2.29,1.85,-2.30,2.30,2.32,2.63,4.16,4.15,4.15
66.67,1.83,-2.27,1.82,-2.27,2.27,2.27,2.58,4.09,4.09,4.10
67.33,1.79,-2.23,1.79,-2.23,2.23,2.22,2.52,4.02,4.02,4.02
68.01,1.76,-2.21,1.76,-2.20,2.20,2.18,2.46,3.96,3.96,3.97
68.69,1.73,-2.17,1.73,-2.16,2.16,2.13,2.40,3.89,3.90,3.90
69.37,1.70,-2.14,1.70,-2.13,2.13,2.08,2.34,3.82,3.83,3.84
70.07,1.67,-2.10,1.68,-2.09,2.09,2.04,2.27,3.75,3.76,3.77
70.77,1.65,-2.05,1.66,-2.04,2.04,1.99,2.20,3.69,3.70,3.70
71.48,1.63,-2.01,1.64,-1.99,1.99,1.94,2.14,3.62,3.63,3.64
72.19,1.61,-1.95,1.62,-1.94,1.94,1.89,2.07,3.55,3.56,3.56
72.91,1.60,-1.89,1.61,-1.88,1.88,1.84,1.99,3.48,3.50,3.49
73.64,1.59,-1.83,1.60,-1.83,1.83,1.79,1.92,3.41,3.43,3.42
74.38,1.59,-1.77,1.60,-1.77,1.77,1.74,1.85,3.35,3.36,3.35
75.12,1.60,-1.70,1.60,-1.70,1.70,1.69,1.78,3.30,3.30,3.30
75.87,1.60,-1.64,1.59,-1.64,1.64,1.64,1.70,3.24,3.24,3.24
76.63,1.61,-1.56,1.59,-1.58,1.58,1.59,1.63,3.19,3.17,3.16
77.40,1.61,-1.50,1.60,-1.51,1.51,1.54,1.55,3.12,3.11,3.11
78.17,1.61,-1.43,1.60,-1.45,1.45,1.49,1.48,3.06,3.05,3.04
78.95,1.61,-1.38,1.60,-1.38,1.38,1.43,1.40,2.99,2.99,2.99
79.74,1.61,-1.32,1.61,-1.32,1.32,1.38,1.33,2.93,2.92,2.93
80.54,1.61,-1.26,1.61,-1.25,1.25,1.33,1.25,2.86,2.86,2.87
81.35,1.61,-1.19,1.62,-1.18,1.18,1.28,1.18,2.79,2.80,2.80
82.16,1.61,-1.14,1.62,-1.12,1.12,1.22,1.11,2.73,2.74,2.75
82.98,1.61,-1.07,1.62,-1.05,1.05,1.17,1.03,2.66,2.68,2.68
83.81,1.61,-1.01,1.62,-0.99,0.99,1.12,0.96,2.60,2.61,2.62
84.65,1.62,-0.93,1.62,-0.92,0.92,1.06,0.89,2.54,2.55,2.54
85.50,1.63,-0.85,1.62,-0.86,0.86,1.01,0.81,2.49,2.48,2.48
86.35,1.64,-0.78,1.62,-0.80,0.80,0.95,0.74,2.44,2.42,2.42
87.22,1.63,-0.72,1.61,-0.74,0.74,0.90,0.67,2.37,2.35,2.35
88.09,1.62,-0.66,1.60,-0.68,0.68,0.84,0.60,2.30,2.28,2.28
88.97,1.61,-0.61,1.59,-0.62,0.62,0.79,0.53,2.23,2.21,2.21
89.86,1.59,-0.56,1.57,-0.57,0.57,0.73,0.46,2.16,2.14,2.15
90.76,1.56,-0.52,1.55,-0.52,0.52,0.67,0.39,2.08,2.07,2.08
91.66,1.54,-0.46,1.53,-0.47,0.47,0.62,0.32,2.01,2.00,2.00
92.58,1.51,-0.43,1.50,-0.43,0.43,0.56,0.25,1.93,1.93,1.94
93.51,1.48,-0.39,1.47,-0.38,0.38,0.50,0.18,1.86,1.86,1.86
94.44,1.45,-0.34,1.44,-0.34,0.34,0.45,0.11,1.79,1.78,1.79
95.39,1.41,-0.30,1.41,-0.30,0.30,0.39,0.04,1.71,1.71,1.71
96.34,1.38,-0.26,1.38,-0.25,0.25,0.33,-0.03,1.63,1.64,1.64
97.30,1.35,-0.22,1.36,-0.20,0.20,0.27,-0.09,1.55,1.56,1.56
98.28,1.33,-0.15,1.34,-0.15,0.15,0.22,-0.16,1.48,1.49,1.48
99.26,1.31,-0.10,1.32,-0.09,0.09,0.16,-0.23,1.40,1.42,1.41
100.25,1.29,-0.04,1.31,-0.04,0.04,0.10,-0.29,1.32,1.34,1.33
101.25,1.27,0.00,1.30,0.03,-0.03,0.04,-0.36,1.24,1.27,1.27
102.27,1.27,0.07,1.29,0.09,-0.09,-0.02,-0.42,1.18,1.20,1.20
103.29,1.26,0.13,1.29,0.16,-0.16,-0.08,-0.48,1.10,1.13,1.13
104.32,1.28,0.22,1.29,0.23,-0.23,-0.14,-0.55,1.05,1.06,1.06
105.37,1.29,0.29,1.29,0.29,-0.29,-0.20,-0.61,0.99,0.99,0.99
106.42,1.31,0.38,1.28,0.36,-0.36,-0.26,-0.67,0.95,0.92,0.93
107.48,1.31,0.45,1.28,0.43,-0.43,-0.31,-0.73,0.88,0.85,0.85
108.56,1.31,0.52,1.28,0.49,-0.49,-0.37,-0.79,0.82,0.78,0.79
109.64,1.29,0.57,1.27,0.55,-0.55,-0.43,-0.85,0.73,0.71,0.72
110.74,1.28,0.63,1.26,0.61,-0.61,-0.49,-0.90,0.66,0.64,0.65
111.85,1.26,0.68,1.24,0.67,-0.67,-0.55,-0.96,0.59,0.57,0.57
112.97,1.23,0.72,1.22,0.72,-0.72,-0.61,-1.01,0.51,0.50,0.51
114.10,1.20,0.76,1.20,0.77,-0.77,-0.67,-1.06,0.43,0.43,0.44
115.24,1.17,0.82,1.17,0.81,-0.81,-0.73,-1.11,0.36,0.36,0.35
116.39,1.14,0.86,1.14,0.85,-0.85,-0.79,-1.16,0.29,0.29,0.28
117.55,1.11,0.90,1.11,0.89,-0.89,-0.85,-1.20,0.22,0.22,0.21
118.73,1.08,0.95,1.08,0.93,-0.93,-0.91,-1.25,0.15,0.15,0.13
119.92,1.05,0.98,1.05,0.97,-0.97,-0.97,-1.29,0.08,0.08,0.07
121.12,1.02,1.01,1.03,1.02,-1.02,-1.03,-1.33,-0.00,0.01,0.01
122.33,1.00,1.06,1.01,1.07,-1.07,-1.09,-1.36,-0.07,-0.06,-0.06
123.55,0.97,1.09,0.99,1.12,-1.12,-1.15,-1.40,-0.15,-0.13,-0.12
124.79,0.96,1.15,0.98,1.18,-1.18,-1.20,-1.43,-0.22,-0.20,-0.19
126.03,0.94,1.19,0.98,1.24,-1.24,-1.26,-1.46,-0.30,-0.26,-0.26
127.29,0.94,1.26,0.97,1.30,-1.30,-1.32,-1.49,-0.36,-0.33,-0.32
128.57,0.95,1.35,0.96,1.36,-1.36,-1.38,-1.51,-0.41,-0.40,-0.40
129.85,0.97,1.43,0.96,1.42,-1.42,-1.43,-1.53,-0.46,-0.47,-0.46
131.15,0.98,1.52,0.95,1.49,-1.49,-1.49,-1.55,-0.51,-0.53,-0.54
132.46,0.98,1.58,0.95,1.55,-1.55,-1.54,-1.57,-0.57,-0.60,-0.60
133.79,0.97,1.64,0.94,1.61,-1.61,-1.60,-1.59,-0.64,-0.67,-0.67
135.12,0.96,1.69,0.93,1.66,-1.66,-1.65,-1.60,-0.70,-0.73,-0.73
136.48,0.94,1.73,0.91,1.71,-1.71,-1.71,-1.62,-0.77,-0.80,-0.79
137.84,0.91,1.77,0.90,1.76,-1.76,-1.76,-1.63,-0.85,-0.86,-0.86
139.22,0.88,1.81,0.88,1.80,-1.80,-1.81,-1.64,-0.92,-0.93,-0.93
140.61,0.85,1.84,0.85,1.84,-1.84,-1.87,-1.65,-0.99,-0.99,-0.99
142.02,0.82,1.87,0.83,1.87,-1.87,-1.92,-1.66,-1.05,-1.05,-1.05
143.44,0.79,1.90,0.80,1.90,-1.90,-1.97,-1.67,-1.12,-1.10,-1.11
144.87,0.76,1.92,0.77,1.93,-1.93,-2.02,-1.68,-1.18,-1.16,-1.16
146.32,0.73,1.95,0.75,1.96,-1.96,-2.07,-1.69,-1.24,-1.22,-1.22
147.78,0.71,1.98,0.72,2.00,-2.00,-2.11,-1.69,-1.29,-1.28,-1.27
149.26,0.69,2.02,0.70,2.03,-2.03,-2.16,-1.70,-1.34,-1.33,-1.33
150.75,0.67,2.06,0.68,2.06,-2.06,-2.20,-1.71,-1.40,-1.39,-1.39
152.26,0.66,2.09,0.66,2.10,-2.10,-2.25,-1.72,-1.44,-1.44,-1.44
153.78,0.64,2.13,0.64,2.13,-2.13,-2.29,-1.73,-1.49,-1.49,-1.49
155.32,0.62,2.16,0.62,2.17,-2.17,-2.33,-1.74,-1.55,-1.55,-1.55
156.88,0.61,2.21,0.60,2.21,-2.21,-2.37,-1.75,-1.60,-1.60,-1.60
158.44,0.60,2.26,0.58,2.24,-2.24,-2.41,-1.76,-1.64,-1.66,-1.66
160.03,0.58,2.29,0.57,2.28,-2.28,-2.45,-1.77,-1.70,-1.71,-1.71
161.63,0.56,2.33,0.55,2.32,-2.32,-2.49,-1.79,-1.76,-1.77,-1.77
163.24,0.53,2.35,0.53,2.35,-2.35,-2.52,-1.80,-1.82,-1.83,-1.83
164.88,0.50,2.38,0.50,2.39,-2.39,-2.56,-1.82,-1.89,-1.88,-1.88
166.53,0.47,2.42,0.48,2.42,-2.42,-2.59,-1.84,-1.95,-1.94,-1.95
168.19,0.45,2.44,0.45,2.45,-2.45,-2.62,-1.86,-2.00,-2.00,-1.99
169.87,0.43,2.48,0.43,2.48,-2.48,-2.65,-1.88,-2.05,-2.05,-2.05
171.57,0.41,2.52,0.40,2.51,-2.51,-2.67,-1.90,-2.10,-2.11,-2.11
173.29,0.38,2.54,0.37,2.54,-2.54,-2.70,-1.92,-2.16,-2.17,-2.16
175.02,0.35,2.57,0.34,2.57,-2.57,-2.72,-1.95,-2.22,-2.23,-2.22
176.77,0.32,2.60,0.32,2.60,-2.60,-2.75,-1.98,-2.28,-2.28,-2.28
178.54,0.28,2.62,0.29,2.63,-2.63,-2.77,-2.01,-2.35,-2.34,-2.34
180.32,0.25,2.65,0.26,2.66,-2.66,-2.79,-2.04,-2.41,-2.39,-2.40
182.13,0.23,2.67,0.24,2.69,-2.69,-2.81,-2.07,-2.46,-2.45,-2.45
183.95,0.20,2.70,0.21,2.71,-2.71,-2.82,-2.10,-2.52,-2.50,-2.50
185.79,0.18,2.74,0.19,2.74,-2.74,-2.84,-2.14,-2.56,-2.56,-2.56
187.65,0.16,2.77,0.16,2.77,-2.77,-2.85,-2.17,-2.61,-2.61,-2.61
189.52,0.14,2.80,0.13,2.79,-2.79,-2.86,-2.21,-2.65,-2.66,-2.66
191.42,0.12,2.82,0.10,2.81,-2.81,-2.87,-2.25,-2.69,-2.71,-2.71
193.33,0.09,2.84,0.07,2.83,-2.83,-2.88,-2.29,-2.74,-2.76,-2.75
195.27,0.06,2.87,0.04,2.85,-2.85,-2.88,-2.33,-2.79,-2.81,-2.81
197.22,0.02,2.88,0.02,2.87,-2.87,-2.89,-2.37,-2.85,-2.85,-2.86
199.19,-0.01,2.89,-0.01,2.89,-2.89,-2.89,-2.42,-2.90,-2.89,-2.90
201.18,-0.05,2.90,-0.03,2.90,-2.90,-2.89,-2.46,-2.95,-2.94,-2.95
203.19,-0.08,2.90,-0.06,2.92,-2.92,-2.89,-2.51,-3.00,-2.98,-2.98
205.23,-0.11,2.90,-0.09,2.93,-2.93,-2.89,-2.55,-3.04,-3.02,-3.01
207.28,-0.14,2.91,-0.12,2.94,-2.94,-2.89,-2.60,-3.08,-3.06,-3.05
209.35,-0.15,2.94,-0.15,2.94,-2.94,-2.89,-2.64,-3.09,-3.09,-3.09
211.44,-0.17,2.96,-0.19,2.94,-2.94,-2.88,-2.69,-3.12,-3.13,-3.13
213.56,-0.19,2.96,-0.22,2.95,-2.95,-2.87,-2.74,-3.14,-3.16,-3.16
215.69,-0.22,2.97,-0.25,2.95,-2.95,-2.87,-2.78,-3.17,-3.20,-3.19
217.85,-0.26,2.97,-0.28,2.95,-2.95,-2.86,-2.82,-3.21,-3.23,-3.23
220.03,-0.30,2.96,-0.31,2.95,-2.95,-2.85,-2.86,-3.25,-3.26,-3.26
222.23,-0.35,2.94,-0.34,2.95,-2.95,-2.83,-2.91,-3.30,-3.29,-3.30
224.45,-0.39,2.93,-0.37,2.94,-2.94,-2.82,-2.94,-3.33,-3.32,-3.32
226.70,-0.43,2.92,-0.41,2.94,-2.94,-2.81,-2.98,-3.37,-3.35,-3.35
228.96,-0.46,2.90,-0.44,2.93,-2.93,-2.79,-3.01,-3.39,-3.37,-3.36
231.25,-0.49,2.90,-0.47,2.92,-2.92,-2.78,-3.04,-3.42,-3.39,-3.39
233.57,-0.51,2.90,-0.50,2.91,-2.91,-2.76,-3.07,-3.42,-3.41,-3.41
235.90,-0.53,2.90,-0.54,2.90,-2.90,-2.74,-3.10,-3.43,-3.43,-3.43
238.26,-0.54,2.92,-0.57,2.88,-2.88,-2.72,-3.12,-3.43,-3.45,-3.46
240.64,-0.57,2.89,-0.59,2.87,-2.87,-2.71,-3.13,-3.44,-3.47,-3.46
243.05,-0.60,2.88,-0.62,2.86,-2.86,-2.69,-3.15,-3.46,-3.48,-3.48
245.48,-0.64,2.85,-0.64,2.85,-2.85,-2.67,-3.15,-3.49,-3.49,-3.49
247.93,-0.67,2.84,-0.67,2.83,-2.83,-2.64,-3.16,-3.50,-3.50,-3.51
250.41,-0.71,2.80,-0.69,2.82,-2.82,-2.62,-3.16,-3.53,-3.51,-3.51
252.92,-0.74,2.77,-0.72,2.80,-2.80,-2.60,-3.15,-3.54,-3.52,-3.51
255.45,-0.77,2.76,-0.75,2.78,-2.78,-2.58,-3.14,-3.55,-3.53,-3.53
258.00,-0.79,2.74,-0.78,2.75,-2.75,-2.55,-3.13,-3.55,-3.53,-3.53
260.58,-0.80,2.73,-0.81,2.73,-2.73,-2.53,-3.11,-3.53,-3.54,-3.53
263.19,-0.82,2.72,-0.84,2.70,-2.70,-2.51,-3.09,-3.52,-3.55,-3.54
265.82,-0.85,2.70,-0.88,2.67,-2.67,-2.48,-3.06,-3.52,-3.55,-3.55
268.48,-0.88,2.67,-0.91,2.65,-2.65,-2.46,-3.03,-3.53,-3.56,-3.55
271.16,-0.92,2.63,-0.94,2.62,-2.62,-2.43,-3.00,-3.54,-3.56,-3.55
273.87,-0.97,2.59,-0.97,2.59,-2.59,-2.41,-2.97,-3.57,-3.57,-3.57
276.61,-1.01,2.56,-1.00,2.57,-2.57,-2.38,-2.93,-3.58,-3.57,-3.57
279.38,-1.05,2.54,-1.03,2.54,-2.54,-2.36,-2.89,-3.59,-3.57,-3.59
282.17,-1.09,2.50,-1.06,2.51,-2.51,-2.33,-2.84,-3.60,-3.58,-3.59
284.99,-1.12,2.46,-1.10,2.48,-2.48,-2.31,-2.80,-3.60,-3.58,-3.58
287.84,-1.15,2.43,-1.13,2.45,-2.45,-2.28,-2.75,-3.60,-3.58,-3.58
290.72,-1.17,2.41,-1.16,2.41,-2.41,-2.26,-2.70,-3.59,-3.58,-3.59
293.63,-1.18,2.39,-1.19,2.38,-2.38,-2.23,-2.65,-3.56,-3.58,-3.57
296.57,-1.20,2.37,-1.23,2.35,-2.35,-2.21,-2.60,-3.55,-3.57,-3.57
299.53,-1.23,2.34,-1.25,2.32,-2.32,-2.18,-2.55,-3.55,-3.57,-3.57
302.53,-1.26,2.30,-1.28,2.29,-2.29,-2.16,-2.50,-3.55,-3.57,-3.56
305.55,-1.30,2.26,-1.31,2.25,-2.25,-2.13,-2.45,-3.56,-3.56,-3.57
308.61,-1.34,2.21,-1.34,2.22,-2.22,-2.11,-2.40,-3.56,-3.56,-3.55
311.69,-1.37,2.18,-1.36,2.19,-2.19,-2.08,-2.34,-3.56,-3.55,-3.55
314.81,-1.40,2.15,-1.39,2.16,-2.16,-2.06,-2.29,-3.56,-3.55,-3.55
317.96,-1.43,2.11,-1.42,2.13,-2.13,-2.03,-2.24,-3.56,-3.54,-3.54
321.14,-1.45,2.08,-1.44,2.09,-2.09,-2.01,-2.19,-3.54,-3.53,-3.53
324.35,-1.47,2.06,-1.47,2.06,-2.06,-1.98,-2.15,-3.53,-3.53,-3.54
327.59,-1.50,2.01,-1.50,2.02,-2.02,-1.96,-2.10,-3.53,-3.52,-3.51
330.87,-1.52,2.00,-1.53,1.99,-1.99,-1.94,-2.05,-3.51,-3.52,-3.52
334.18,-1.54,1.97,-1.55,1.96,-1.96,-1.91,-2.01,-3.50,-3.51,-3.51
337.52,-1.56,1.95,-1.57,1.93,-1.93,-1.89,-1.96,-3.49,-3.50,-3.51
340.90,-1.59,1.90,-1.60,1.90,-1.90,-1.87,-1.92,-3.49,-3.50,-3.49
344.30,-1.62,1.87,-1.62,1.87,-1.87,-1.84,-1.88,-3.49,-3.49,-3.49
347.75,-1.65,1.83,-1.65,1.84,-1.84,-1.82,-1.84,-3.49,-3.48,-3.48
351.23,-1.67,1.82,-1.67,1.81,-1.81,-1.80,-1.80,-3.48,-3.48,-3.49
354.74,-1.70,1.76,-1.70,1.77,-1.77,-1.77,-1.76,-3.48,-3.47,-3.46
358.28,-1.72,1.74,-1.72,1.74,-1.74,-1.75,-1.73,-3.46,-3.46,-3.47
361.87,-1.74,1.72,-1.75,1.70,-1.70,-1.73,-1.69,-3.45,-3.46,-3.46
365.49,-1.77,1.68,-1.78,1.67,-1.67,-1.71,-1.66,-3.44,-3.45,-3.45
369.14,-1.79,1.65,-1.81,1.63,-1.63,-1.69,-1.63,-3.42,-3.44,-3.44
372.83,-1.83,1.60,-1.84,1.60,-1.60,-1.66,-1.60,-3.43,-3.44,-3.43
376.56,-1.86,1.57,-1.86,1.57,-1.57,-1.64,-1.57,-3.43,-3.43,-3.43
380.33,-1.89,1.54,-1.88,1.53,-1.53,-1.62,-1.54,-3.43,-3.42,-3.43
384.13,-1.91,1.50,-1.91,1.51,-1.51,-1.60,-1.51,-3.42,-3.41,-3.41
387.97,-1.93,1.47,-1.92,1.48,-1.48,-1.57,-1.49,-3.41,-3.40,-3.40
391.85,-1.95,1.44,-1.94,1.45,-1.45,-1.55,-1.46,-3.41,-3.39,-3.40
395.77,-1.97,1.42,-1.95,1.43,-1.43,-1.53,-1.44,-3.40,-3.38,-3.39
399.73,-1.98,1.40,-1.96,1.41,-1.41,-1.51,-1.42,-3.39,-3.37,-3.38
403.72,-1.98,1.37,-1.97,1.40,-1.40,-1.48,-1.40,-3.38,-3.37,-3.35
407.76,-1.97,1.38,-1.97,1.38,-1.38,-1.46,-1.38,-3.36,-3.36,-3.36
411.84,-1.97,1.38,-1.97,1.37,-1.37,-1.44,-1.36,-3.34,-3.35,-3.35
415.96,-1.96,1.37,-1.97,1.37,-1.37,-1.41,-1.35,-3.33,-3.34,-3.33
420.12,-1.96,1.37,-1.97,1.36,-1.36,-1.39,-1.33,-3.32,-3.33,-3.33
424.32,-1.96,1.36,-1.97,1.35,-1.35,-1.37,-1.32,-3.31,-3.32,-3.33
428.56,-1.96,1.35,-1.97,1.35,-1.35,-1.35,-1.30,-3.31,-3.31,-3.31
432.85,-1.96,1.34,-1.97,1.34,-1.34,-1.33,-1.29,-3.30,-3.31,-3.30
437.18,-1.96,1.34,-1.96,1.34,-1.34,-1.31,-1.28,-3.30,-3.30,-3.30
441.55,-1.96,1.33,-1.96,1.33,-1.33,-1.29,-1.27,-3.29,-3.29,-3.29
445.96,-1.96,1.32,-1.96,1.32,-1.32,-1.28,-1.26,-3.28,-3.28,-3.28
450.42,-1.96,1.31,-1.96,1.31,-1.31,-1.26,-1.25,-3.27,-3.27,-3.28
454.93,-1.96,1.31,-1.96,1.30,-1.30,-1.25,-1.24,-3.26,-3.26,-3.27
459.48,-1.96,1.30,-1.97,1.29,-1.29,-1.25,-1.24,-3.25,-3.26,-3.26
464.07,-1.96,1.28,-1.97,1.28,-1.28,-1.24,-1.23,-3.24,-3.25,-3.24
468.71,-1.96,1.27,-1.97,1.27,-1.27,-1.24,-1.23,-3.23,-3.24,-3.23
473.40,-1.96,1.26,-1.97,1.25,-1.25,-1.25,-1.22,-3.22,-3.23,-3.22
478.13,-1.96,1.25,-1.97,1.24,-1.24,-1.25,-1.22,-3.21,-3.22,-3.22
482.91,-1.97,1.23,-1.97,1.23,-1.23,-1.26,-1.22,-3.21,-3.21,-3.21
487.74,-1.98,1.22,-1.97,1.23,-1.23,-1.26,-1.22,-3.21,-3.20,-3.20
492.62,-1.98,1.21,-1.97,1.22,-1.22,-1.27,-1.22,-3.20,-3.19,-3.19
497.55,-1.97,1.21,-1.96,1.22,-1.22,-1.28,-1.22,-3.19,-3.18,-3.18
502.52,-1.96,1.21,-1.95,1.21,-1.21,-1.29,-1.22,-3.18,-3.16,-3.17
507.55,-1.95,1.20,-1.94,1.21,-1.21,-1.30,-1.22,-3.17,-3.15,-3.15
