frequency,raw,error,smoothed,error_smoothed,equalization,parametric_eq,fixed_band_eq,equalized_raw,equalized_smoothed,target
20.00,1.84,-3.42,1.84,-3.41,3.41,3.03,1.34,5.25,5.25,5.25
20.20,1.89,-3.36,1.88,-3.36,3.36,3.03,1.39,5.25,5.24,5.24
20.40,1.93,-3.31,1.92,-3.31,3.31,3.03,1.43,5.24,5.23,5.23
20.61,1.96,-3.27,1.96,-3.26,3.26,3.02,1.47,5.22,5.22,5.22
20.81,2.00,-3.21,2.00,-3.21,3.22,3.02,1.51,5.21,5.21,5.20
21.02,2.03,-3.17,2.03,-3.17,3.17,3.01,1.56,5.20,5.20,5.19
21.23,2.07,-3.12,2.06,-3.13,3.13,3.01,1.60,5.20,5.19,5.18
21.44,2.09,-3.11,2.09,-3.09,3.09,3.00,1.65,5.18,5.18,5.19
21.66,2.12,-3.06,2.12,-3.06,3.05,3.00,1.70,5.17,5.17,5.17
21.87,2.15,-3.03,2.14,-3.03,3.02,2.99,1.75,5.17,5.16,5.17
22.09,2.17,-2.99,2.17,-2.99,2.98,2.99,1.81,5.15,5.15,5.15
22.31,2.19,-2.96,2.19,-2.95,2.95,2.98,1.86,5.14,5.14,5.14
22.54,2.22,-2.92,2.22,-2.92,2.92,2.98,1.92,5.14,5.14,5.13
22.76,2.24,-2.90,2.24,-2.89,2.89,2.97,1.97,5.13,5.13,5.13
22.99,2.26,-2.87,2.26,-2.87,2.87,2.97,2.03,5.13,5.13,5.12
23.22,2.27,-2.85,2.27,-2.85,2.86,2.96,2.09,5.13,5.13,5.11
23.45,2.28,-2.85,2.28,-2.84,2.85,2.96,2.15,5.13,5.12,5.12
23.69,2.28,-2.84,2.28,-2.83,2.84,2.95,2.21,5.12,5.12,5.11
23.92,2.28,-2.83,2.28,-2.84,2.84,2.94,2.27,5.12,5.11,5.10
24.16,2.27,-2.85,2.27,-2.84,2.84,2.94,2.34,5.11,5.11,5.11
24.40,2.26,-2.86,2.26,-2.85,2.84,2.93,2.40,5.10,5.10,5.11
24.65,2.26,-2.85,2.26,-2.85,2.84,2.93,2.47,5.10,5.10,5.10
24.89,2.26,-2.85,2.26,-2.84,2.84,2.92,2.54,5.10,5.10,5.10
25.14,2.26,-2.84,2.26,-2.84,2.84,2.91,2.60,5.10,5.10,5.09
25.39,2.26,-2.84,2.26,-2.84,2.84,2.91,2.67,5.10,5.10,5.09
25.65,2.26,-2.84,2.26,-2.84,2.84,2.90,2.74,5.10,5.10,5.09
25.91,2.26,-2.84,2.26,-2.84,2.84,2.89,2.80,5.10,5.10,5.09
26.16,2.26,-2.85,2.26,-2.84,2.84,2.89,2.87,5.09,5.09,5.10
26.43,2.26,-2.84,2.26,-2.84,2.84,2.88,2.94,5.09,5.09,5.09
26.69,2.26,-2.84,2.26,-2.84,2.84,2.87,3.00,5.09,5.09,5.09
26.96,2.26,-2.84,2.26,-2.83,2.84,2.86,3.07,5.10,5.10,5.09
27.23,2.26,-2.84,2.26,-2.84,2.84,2.86,3.13,5.10,5.10,5.09
27.50,2.26,-2.84,2.26,-2.84,2.84,2.85,3.19,5.10,5.10,5.09
27.77,2.26,-2.85,2.26,-2.84,2.84,2.84,3.25,5.10,5.10,5.10
28.05,2.26,-2.84,2.26,-2.84,2.84,2.83,3.30,5.10,5.10,5.09
28.33,2.26,-2.85,2.26,-2.84,2.85,2.82,3.36,5.10,5.10,5.10
28.62,2.26,-2.85,2.26,-2.85,2.85,2.82,3.41,5.11,5.11,5.10
28.90,2.26,-2.86,2.26,-2.85,2.85,2.81,3.45,5.11,5.11,5.11
29.19,2.26,-2.86,2.26,-2.85,2.85,2.80,3.49,5.11,5.11,5.11
29.48,2.26,-2.85,2.26,-2.85,2.85,2.79,3.53,5.11,5.11,5.10
29.78,2.26,-2.85,2.26,-2.85,2.84,2.78,3.56,5.10,5.10,5.10
30.08,2.26,-2.85,2.26,-2.84,2.84,2.77,3.59,5.10,5.10,5.10
30.38,2.26,-2.83,2.26,-2.83,2.84,2.76,3.61,5.10,5.10,5.08
30.68,2.26,-2.83,2.26,-2.83,2.83,2.75,3.63,5.09,5.09,5.08
30.99,2.26,-2.83,2.26,-2.83,2.82,2.74,3.64,5.08,5.08,5.08
31.30,2.26,-2.83,2.26,-2.82,2.82,2.73,3.64,5.08,5.08,5.08
31.61,2.26,-2.82,2.26,-2.81,2.81,2.72,3.64,5.07,5.07,5.07
31.93,2.26,-2.80,2.26,-2.81,2.81,2.71,3.64,5.06,5.06,5.05
32.24,2.26,-2.81,2.26,-2.80,2.80,2.70,3.63,5.06,5.06,5.06
32.57,2.26,-2.79,2.26,-2.79,2.79,2.69,3.61,5.05,5.05,5.04
32.89,2.26,-2.79,2.26,-2.79,2.78,2.68,3.59,5.04,5.04,5.04
33.22,2.26,-2.78,2.26,-2.78,2.78,2.67,3.56,5.04,5.04,5.03
33.55,2.26,-2.78,2.26,-2.77,2.77,2.66,3.53,5.03,5.03,5.03
33.89,2.26,-2.77,2.26,-2.76,2.76,2.65,3.49,5.02,5.02,5.02
34.23,2.26,-2.75,2.26,-2.75,2.76,2.64,3.45,5.01,5.01,5.00
34.57,2.26,-2.75,2.26,-2.74,2.75,2.62,3.41,5.01,5.01,5.00
34.92,2.26,-2.73,2.26,-2.74,2.74,2.61,3.36,5.00,5.00,4.98
35.27,2.26,-2.75,2.26,-2.73,2.73,2.60,3.32,4.99,4.99,5.00
35.62,2.26,-2.72,2.26,-2.72,2.72,2.59,3.26,4.98,4.98,4.97
35.97,2.26,-2.72,2.26,-2.71,2.71,2.57,3.21,4.96,4.96,4.97
36.33,2.26,-2.70,2.26,-2.69,2.69,2.56,3.16,4.95,4.95,4.95
36.70,2.26,-2.68,2.26,-2.68,2.68,2.55,3.10,4.94,4.94,4.93
37.06,2.26,-2.66,2.26,-2.66,2.66,2.53,3.04,4.92,4.92,4.91
37.43,2.26,-2.64,2.26,-2.64,2.64,2.52,2.98,4.90,4.90,4.89
37.81,2.26,-2.63,2.26,-2.62,2.62,2.51,2.92,4.88,4.88,4.88
38.19,2.26,-2.60,2.26,-2.60,2.60,2.49,2.87,4.86,4.86,4.85
38.57,2.26,-2.58,2.26,-2.58,2.58,2.48,2.81,4.84,4.84,4.83
38.95,2.26,-2.57,2.26,-2.56,2.56,2.46,2.75,4.81,4.81,4.82
39.34,2.26,-2.54,2.26,-2.54,2.53,2.45,2.69,4.79,4.79,4.79
39.74,2.26,-2.51,2.26,-2.51,2.51,2.43,2.64,4.77,4.77,4.76
40.14,2.26,-2.49,2.26,-2.48,2.49,2.41,2.58,4.75,4.75,4.74
40.54,2.26,-2.47,2.26,-2.46,2.47,2.40,2.53,4.73,4.73,4.72
40.94,2.26,-2.44,2.26,-2.44,2.45,2.38,2.47,4.70,4.70,4.69
41.35,2.26,-2.43,2.26,-2.42,2.42,2.37,2.42,4.68,4.68,4.68
41.76,2.26,-2.40,2.26,-2.40,2.40,2.35,2.37,4.66,4.66,4.65
42.18,2.26,-2.39,2.26,-2.38,2.37,2.33,2.32,4.63,4.63,4.64
42.60,2.26,-2.36,2.26,-2.35,2.35,2.31,2.27,4.60,4.61,4.61
43.03,2.27,-2.33,2.27,-2.32,2.32,2.30,2.23,4.59,4.58,4.59
43.46,2.27,-2.29,2.27,-2.29,2.29,2.28,2.18,4.56,4.56,4.55
43.90,2.28,-2.26,2.28,-2.25,2.26,2.26,2.14,4.54,4.54,4.53
44.33,2.28,-2.23,2.28,-2.23,2.24,2.24,2.10,4.51,4.52,4.50
44.78,2.28,-2.21,2.28,-2.21,2.21,2.22,2.06,4.49,4.49,4.48
45.23,2.27,-2.20,2.27,-2.19,2.19,2.20,2.02,4.46,4.46,4.46
45.68,2.25,-2.17,2.25,-2.17,2.17,2.18,1.99,4.42,4.42,4.41
46.13,2.23,-2.16,2.23,-2.15,2.16,2.16,1.95,4.38,4.39,4.38
46.60,2.21,-2.14,2.21,-2.14,2.14,2.14,1.92,4.35,4.35,4.34
47.06,2.18,-2.14,2.18,-2.13,2.13,2.12,1.89,4.31,4.31,4.31
47.53,2.15,-2.13,2.15,-2.12,2.12,2.10,1.86,4.27,4.27,4.27
48.01,2.12,-2.11,2.12,-2.11,2.11,2.07,1.83,4.23,4.23,4.22
48.49,2.09,-2.10,2.09,-2.10,2.10,2.05,1.80,4.18,4.18,4.18
48.97,2.06,-2.08,2.06,-2.08,2.08,2.03,1.78,4.14,4.14,4.13
49.46,2.03,-2.08,2.03,-2.07,2.07,2.01,1.76,4.10,4.10,4.10
49.96,2.00,-2.05,2.00,-2.05,2.06,1.98,1.73,4.05,4.06,4.04
50.46,1.98,-2.04,1.98,-2.04,2.04,1.96,1.71,4.02,4.01,4.01
50.96,1.95,-2.03,1.95,-2.02,2.02,1.93,1.69,3.97,3.97,3.97
51.47,1.94,-2.00,1.93,-2.00,1.99,1.91,1.67,3.93,3.93,3.93
51.99,1.92,-1.97,1.92,-1.97,1.96,1.88,1.65,3.88,3.89,3.88
52.51,1.92,-1.94,1.92,-1.94,1.93,1.86,1.63,3.85,3.85,3.85
53.03,1.92,-1.91,1.92,-1.90,1.89,1.83,1.61,3.81,3.81,3.82
53.56,1.92,-1.86,1.92,-1.85,1.85,1.81,1.60,3.77,3.77,3.77
54.10,1.93,-1.80,1.93,-1.80,1.81,1.78,1.58,3.73,3.73,3.72
54.64,1.93,-1.76,1.93,-1.75,1.76,1.75,1.56,3.69,3.69,3.68
55.18,1.94,-1.71,1.94,-1.70,1.72,1.72,1.55,3.65,3.65,3.64
55.74,1.94,-1.66,1.94,-1.67,1.67,1.69,1.53,3.61,3.61,3.59
56.29,1.94,-1.64,1.94,-1.63,1.63,1.66,1.51,3.57,3.57,3.57
56.86,1.94,-1.60,1.94,-1.59,1.59,1.64,1.49,3.53,3.53,3.53
57.42,1.94,-1.55,1.94,-1.55,1.55,1.60,1.47,3.49,3.49,3.48
58.00,1.94,-1.51,1.94,-1.51,1.52,1.57,1.45,3.45,3.45,3.44
58.58,1.94,-1.48,1.94,-1.48,1.48,1.54,1.43,3.41,3.41,3.41
59.16,1.94,-1.45,1.94,-1.44,1.43,1.51,1.41,3.37,3.37,3.38
59.76,1.94,-1.40,1.94,-1.40,1.38,1.48,1.39,3.32,3.32,3.33
60.35,1.94,-1.35,1.94,-1.34,1.33,1.45,1.37,3.26,3.27,3.28
60.96,1.95,-1.28,1.95,-1.28,1.27,1.41,1.34,3.22,3.22,3.22
61.57,1.96,-1.21,1.96,-1.21,1.21,1.38,1.32,3.17,3.17,3.16
62.18,1.96,-1.15,1.96,-1.14,1.16,1.34,1.29,3.12,3.12,3.10
62.80,1.96,-1.09,1.95,-1.09,1.11,1.31,1.26,3.07,3.06,3.04
63.43,1.94,-1.06,1.94,-1.05,1.06,1.27,1.23,3.00,3.00,2.99
64.07,1.93,-1.02,1.93,-1.02,1.02,1.24,1.20,2.95,2.94,2.94
64.71,1.91,-0.99,1.91,-0.98,0.98,1.20,1.17,2.89,2.89,2.89
65.35,1.88,-0.96,1.88,-0.96,0.96,1.16,1.13,2.83,2.84,2.83
66.01,1.86,-0.93,1.86,-0.93,0.93,1.13,1.09,2.79,2.79,2.78
66.67,1.83,-0.92,1.82,-0.91,0.91,1.09,1.06,2.74,2.74,2.74
67.33,1.79,-0.89,1.79,-0.89,0.89,1.05,1.02,2.68,2.68,2.67
68.01,1.76,-0.87,1.76,-0.87,0.87,1.01,0.98,2.63,2.63,2.62
68.69,1.73,-0.85,1.73,-0.85,0.84,0.97,0.93,2.57,2.57,2.57
69.37,1.70,-0.83,1.70,-0.82,0.82,0.93,0.89,2.51,2.51,2.52
70.07,1.67,-0.80,1.67,-0.79,0.79,0.89,0.85,2.46,2.46,2.46
70.77,1.65,-0.75,1.65,-0.76,0.75,0.84,0.80,2.40,2.40,2.39
71.48,1.63,-0.72,1.63,-0.71,0.71,0.80,0.76,2.34,2.34,2.34
72.19,1.61,-0.68,1.61,-0.67,0.67,0.76,0.71,2.28,2.28,2.28
72.91,1.60,-0.62,1.60,-0.62,0.62,0.71,0.66,2.22,2.22,2.21
73.64,1.59,-0.58,1.59,-0.57,0.57,0.67,0.61,2.16,2.16,2.16
74.38,1.59,-0.52,1.59,-0.52,0.51,0.62,0.57,2.10,2.10,2.10
75.12,1.60,-0.46,1.59,-0.46,0.46,0.58,0.52,2.06,2.05,2.05
75.87,1.60,-0.41,1.60,-0.40,0.40,0.53,0.47,2.00,2.01,2.00
76.63,1.61,-0.34,1.61,-0.34,0.35,0.49,0.42,1.96,1.96,1.94
77.40,1.61,-0.30,1.61,-0.29,0.30,0.44,0.36,1.90,1.90,1.90
78.17,1.61,-0.24,1.61,-0.24,0.24,0.39,0.31,1.85,1.85,1.84
78.95,1.61,-0.20,1.61,-0.19,0.19,0.34,0.26,1.80,1.80,1.80
79.74,1.61,-0.15,1.61,-0.14,0.14,0.30,0.21,1.75,1.75,1.75
80.54,1.61,-0.10,1.61,-0.10,0.10,0.25,0.16,1.70,1.70,1.70
81.35,1.61,-0.04,1.61,-0.05,0.04,0.20,0.10,1.65,1.65,1.64
82.16,1.61,-0.01,1.61,0.00,-0.01,0.15,0.05,1.60,1.60,1.61
82.98,1.61,0.05,1.61,0.05,-0.06,0.10,-0.00,1.54,1.54,1.55
83.81,1.61,0.10,1.61,0.11,-0.12,0.05,-0.06,1.49,1.49,1.50
84.65,1.62,0.17,1.62,0.18,-0.18,-0.01,-0.11,1.44,1.44,1.44
85.50,1.63,0.24,1.63,0.24,-0.23,-0.06,-0.16,1.39,1.39,1.38
86.35,1.64,0.30,1.63,0.30,-0.29,-0.11,-0.22,1.35,1.34,1.33
87.22,1.63,0.34,1.63,0.35,-0.34,-0.16,-0.27,1.29,1.29,1.28
88.09,1.62,0.39,1.62,0.40,-0.39,-0.21,-0.33,1.23,1.23,1.22
88.97,1.61,0.44,1.61,0.44,-0.44,-0.27,-0.38,1.17,1.17,1.16
89.86,1.59,0.47,1.59,0.48,-0.48,-0.32,-0.44,1.11,1.11,1.11
90.76,1.56,0.50,1.56,0.51,-0.51,-0.37,-0.49,1.05,1.05,1.05
91.66,1.54,0.55,1.54,0.54,-0.54,-0.43,-0.55,1.00,1.00,0.98
92.58,1.51,0.57,1.51,0.57,-0.57,-0.48,-0.60,0.94,0.94,0.93
93.51,1.48,0.59,1.48,0.60,-0.60,-0.54,-0.66,0.88,0.88,0.88
94.44,1.45,0.62,1.45,0.62,-0.63,-0.59,-0.72,0.82,0.81,0.82
95.39,1.41,0.65,1.41,0.65,-0.66,-0.64,-0.77,0.75,0.75,0.75
96.34,1.38,0.69,1.38,0.69,-0.69,-0.70,-0.83,0.68,0.68,0.68
97.30,1.35,0.72,1.35,0.73,-0.73,-0.75,-0.89,0.62,0.62,0.62
98.28,1.33,0.77,1.33,0.77,-0.76,-0.81,-0.95,0.56,0.56,0.55
99.26,1.31,0.81,1.31,0.81,-0.80,-0.86,-1.00,0.50,0.50,0.49
100.25,1.29,0.85,1.29,0.85,-0.85,-0.91,-1.06,0.44,0.44,0.43
101.25,1.27,0.88,1.27,0.89,-0.90,-0.97,-1.12,0.37,0.37,0.38
102.27,1.27,0.94,1.26,0.94,-0.95,-1.02,-1.17,0.31,0.31,0.32
103.29,1.26,0.99,1.27,1.00,-1.01,-1.07,-1.23,0.25,0.25,0.26
104.32,1.28,1.06,1.28,1.06,-1.07,-1.13,-1.29,0.21,0.21,0.21
105.37,1.29,1.13,1.29,1.13,-1.13,-1.18,-1.34,0.16,0.16,0.15
106.42,1.31,1.20,1.31,1.20,-1.19,-1.23,-1.40,0.12,0.11,0.10
107.48,1.31,1.26,1.31,1.26,-1.25,-1.28,-1.45,0.06,0.06,0.04
108.56,1.31,1.31,1.31,1.31,-1.30,-1.34,-1.51,0.00,0.00,-0.01
109.64,1.29,1.35,1.29,1.36,-1.35,-1.39,-1.56,-0.07,-0.06,-0.07
110.74,1.28,1.40,1.28,1.40,-1.40,-1.44,-1.61,-0.12,-0.12,-0.13
111.85,1.26,1.44,1.26,1.44,-1.44,-1.49,-1.66,-0.18,-0.18,-0.19
112.97,1.23,1.46,1.23,1.47,-1.48,-1.54,-1.71,-0.25,-0.25,-0.24
114.10,1.20,1.49,1.20,1.50,-1.51,-1.59,-1.76,-0.31,-0.31,-0.30
115.24,1.17,1.54,1.17,1.54,-1.54,-1.64,-1.80,-0.37,-0.37,-0.38
116.39,1.14,1.57,1.14,1.58,-1.57,-1.68,-1.84,-0.43,-0.43,-0.44
117.55,1.11,1.60,1.11,1.61,-1.59,-1.73,-1.88,-0.49,-0.49,-0.50
118.73,1.08,1.63,1.08,1.63,-1.62,-1.78,-1.92,-0.54,-0.54,-0.56
119.92,1.05,1.64,1.05,1.65,-1.64,-1.82,-1.96,-0.60,-0.60,-0.60
121.12,1.02,1.66,1.02,1.67,-1.67,-1.87,-1.99,-0.65,-0.65,-0.65
122.33,1.00,1.70,1.00,1.70,-1.70,-1.91,-2.02,-0.70,-0.70,-0.71
123.55,0.97,1.72,0.97,1.73,-1.73,-1.95,-2.05,-0.77,-0.76,-0.76
124.79,0.96,1.76,0.95,1.76,-1.77,-2.00,-2.08,-0.82,-0.82,-0.81
126.03,0.94,1.80,0.94,1.80,-1.82,-2.04,-2.10,-0.88,-0.88,-0.87
127.29,0.94,1.85,0.94,1.86,-1.88,-2.08,-2.12,-0.94,-0.94,-0.92
128.57,0.95,1.93,0.95,1.93,-1.94,-2.12,-2.14,-0.99,-0.99,-0.99
129.85,0.97,2.00,0.97,2.00,-2.00,-2.15,-2.16,-1.03,-1.03,-1.04
131.15,0.98,2.07,0.98,2.07,-2.06,-2.19,-2.17,-1.08,-1.08,-1.10
132.46,0.98,2.12,0.98,2.13,-2.11,-2.23,-2.18,-1.13,-1.13,-1.15
133.79,0.97,2.17,0.97,2.17,-2.16,-2.26,-2.19,-1.19,-1.19,-1.21
135.12,0.96,2.21,0.96,2.21,-2.21,-2.30,-2.20,-1.25,-1.25,-1.26
136.48,0.94,2.24,0.94,2.24,-2.24,-2.33,-2.20,-1.30,-1.31,-1.31
137.84,0.91,2.26,0.91,2.27,-2.27,-2.36,-2.21,-1.36,-1.36,-1.36
139.22,0.88,2.29,0.88,2.29,-2.29,-2.39,-2.21,-1.41,-1.41,-1.42
140.61,0.85,2.30,0.85,2.31,-2.31,-2.42,-2.21,-1.46,-1.46,-1.46
142.02,0.82,2.33,0.82,2.33,-2.33,-2.45,-2.22,-1.51,-1.51,-1.52
143.44,0.79,2.34,0.79,2.34,-2.34,-2.48,-2.22,-1.56,-1.56,-1.56
144.87,0.76,2.35,0.76,2.36,-2.36,-2.51,-2.22,-1.60,-1.60,-1.60
146.32,0.73,2.37,0.73,2.37,-2.38,-2.53,-2.22,-1.65,-1.65,-1.65
147.78,0.71,2.39,0.71,2.40,-2.40,-2.56,-2.22,-1.69,-1.69,-1.69
149.26,0.69,2.42,0.69,2.42,-2.42,-2.58,-2.22,-1.73,-1.73,-1.74
150.75,0.67,2.44,0.67,2.45,-2.44,-2.60,-2.22,-1.78,-1.77,-1.78
152.26,0.66,2.47,0.65,2.47,-2.47,-2.62,-2.22,-1.81,-1.82,-1.82
153.78,0.64,2.49,0.64,2.49,-2.50,-2.64,-2.22,-1.86,-1.86,-1.86
155.32,0.62,2.51,0.62,2.52,-2.53,-2.66,-2.23,-1.91,-1.90,-1.90
156.88,0.61,2.55,0.61,2.55,-2.55,-2.68,-2.23,-1.95,-1.95,-1.95
158.44,0.60,2.59,0.60,2.59,-2.58,-2.69,-2.24,-1.98,-1.98,-2.00
160.03,0.58,2.61,0.58,2.62,-2.61,-2.71,-2.24,-2.03,-2.03,-2.04
161.63,0.56,2.63,0.56,2.64,-2.63,-2.72,-2.25,-2.07,-2.07,-2.08
163.24,0.53,2.65,0.53,2.66,-2.65,-2.74,-2.26,-2.13,-2.13,-2.13
164.88,0.50,2.67,0.50,2.67,-2.68,-2.75,-2.27,-2.18,-2.18,-2.18
166.53,0.47,2.69,0.47,2.69,-2.70,-2.76,-2.28,-2.23,-2.23,-2.23
168.19,0.45,2.70,0.45,2.72,-2.72,-2.77,-2.30,-2.27,-2.27,-2.26
169.87,0.43,2.74,0.43,2.74,-2.74,-2.78,-2.31,-2.31,-2.31,-2.32
171.57,0.41,2.77,0.41,2.77,-2.76,-2.78,-2.33,-2.35,-2.36,-2.37
173.29,0.38,2.78,0.38,2.79,-2.78,-2.79,-2.35,-2.40,-2.40,-2.41
175.02,0.35,2.80,0.35,2.80,-2.80,-2.79,-2.37,-2.45,-2.45,-2.46
176.77,0.32,2.82,0.31,2.82,-2.82,-2.80,-2.40,-2.50,-2.50,-2.51
178.54,0.28,2.82,0.28,2.83,-2.84,-2.80,-2.42,-2.56,-2.55,-2.55
180.32,0.25,2.85,0.25,2.85,-2.85,-2.81,-2.45,-2.61,-2.60,-2.61
182.13,0.23,2.86,0.22,2.87,-2.87,-2.81,-2.48,-2.64,-2.65,-2.64
183.95,0.20,2.88,0.20,2.89,-2.89,-2.81,-2.51,-2.69,-2.69,-2.69
185.79,0.18,2.91,0.18,2.91,-2.91,-2.81,-2.54,-2.73,-2.73,-2.74
187.65,0.16,2.93,0.16,2.93,-2.93,-2.81,-2.58,-2.77,-2.77,-2.78
189.52,0.14,2.95,0.14,2.95,-2.95,-2.80,-2.61,-2.81,-2.81,-2.82
191.42,0.12,2.97,0.12,2.97,-2.97,-2.80,-2.65,-2.85,-2.85,-2.86
193.33,0.09,2.98,0.09,2.99,-2.99,-2.80,-2.69,-2.90,-2.90,-2.90
195.27,0.06,3.00,0.06,3.00,-3.00,-2.79,-2.73,-2.94,-2.94,-2.95
197.22,0.02,3.01,0.02,3.01,-3.00,-2.79,-2.78,-2.98,-2.98,-3.00
199.19,-0.01,3.01,-0.01,3.02,-3.01,-2.78,-2.82,-3.02,-3.02,-3.03
201.18,-0.05,3.01,-0.05,3.01,-3.01,-2.77,-2.86,-3.06,-3.06,-3.07
203.19,-0.08,3.01,-0.08,3.01,-3.02,-2.77,-2.91,-3.10,-3.10,-3.10
205.23,-0.11,3.00,-0.11,3.01,-3.02,-2.76,-2.95,-3.13,-3.14,-3.12
207.28,-0.14,3.00,-0.14,3.02,-3.03,-2.75,-3.00,-3.17,-3.16,-3.15
209.35,-0.15,3.03,-0.15,3.03,-3.03,-2.74,-3.05,-3.18,-3.19,-3.19
211.44,-0.17,3.04,-0.17,3.04,-3.03,-2.73,-3.09,-3.21,-3.21,-3.22
213.56,-0.19,3.04,-0.19,3.05,-3.03,-2.72,-3.14,-3.23,-3.23,-3.24
215.69,-0.22,3.04,-0.22,3.04,-3.03,-2.70,-3.18,-3.25,-3.26,-3.27
217.85,-0.26,3.03,-0.26,3.04,-3.03,-2.69,-3.23,-3.29,-3.29,-3.30
220.03,-0.30,3.02,-0.30,3.02,-3.01,-2.68,-3.27,-3.32,-3.32,-3.33
222.23,-0.35,3.00,-0.35,3.00,-3.00,-2.67,-3.31,-3.35,-3.35,-3.36
224.45,-0.39,2.97,-0.39,2.98,-2.99,-2.65,-3.35,-3.38,-3.38,-3.37
226.70,-0.43,2.96,-0.43,2.96,-2.97,-2.64,-3.38,-3.40,-3.40,-3.40
228.96,-0.46,2.94,-0.46,2.95,-2.96,-2.62,-3.41,-3.42,-3.42,-3.41
231.25,-0.49,2.93,-0.49,2.94,-2.95,-2.61,-3.44,-3.44,-3.44,-3.43
233.57,-0.51,2.93,-0.51,2.93,-2.94,-2.59,-3.47,-3.45,-3.45,-3.45
235.90,-0.53,2.92,-0.53,2.93,-2.93,-2.57,-3.49,-3.46,-3.46,-3.46
238.26,-0.54,2.94,-0.55,2.93,-2.92,-2.56,-3.51,-3.46,-3.46,-3.49
240.64,-0.57,2.90,-0.57,2.91,-2.90,-2.54,-3.52,-3.47,-3.47,-3.48
243.05,-0.60,2.89,-0.60,2.90,-2.88,-2.52,-3.53,-3.48,-3.48,-3.50
245.48,-0.64,2.86,-0.64,2.86,-2.86,-2.50,-3.53,-3.50,-3.50,-3.51
247.93,-0.67,2.84,-0.67,2.84,-2.84,-2.49,-3.53,-3.51,-3.51,-3.52
250.41,-0.71,2.79,-0.71,2.80,-2.81,-2.47,-3.53,-3.52,-3.52,-3.51
252.92,-0.74,2.77,-0.74,2.77,-2.79,-2.45,-3.52,-3.53,-3.53,-3.52
255.45,-0.77,2.75,-0.77,2.75,-2.77,-2.43,-3.50,-3.54,-3.53,-3.53
258.00,-0.79,2.73,-0.79,2.74,-2.74,-2.41,-3.48,-3.53,-3.53,-3.53
260.58,-0.80,2.72,-0.81,2.72,-2.72,-2.39,-3.45,-3.52,-3.52,-3.53
263.19,-0.82,2.70,-0.82,2.71,-2.70,-2.37,-3.43,-3.52,-3.52,-3.53
265.82,-0.85,2.68,-0.85,2.68,-2.67,-2.35,-3.39,-3.52,-3.52,-3.54
268.48,-0.88,2.65,-0.88,2.65,-2.64,-2.33,-3.35,-3.52,-3.52,-3.54
271.16,-0.92,2.61,-0.92,2.61,-2.61,-2.31,-3.31,-3.53,-3.53,-3.54
273.87,-0.97,2.56,-0.97,2.57,-2.57,-2.29,-3.26,-3.54,-3.54,-3.54
276.61,-1.01,2.52,-1.01,2.53,-2.54,-2.27,-3.21,-3.55,-3.55,-3.54
279.38,-1.05,2.50,-1.05,2.50,-2.50,-2.24,-3.16,-3.55,-3.55,-3.56
282.17,-1.09,2.46,-1.09,2.46,-2.47,-2.22,-3.10,-3.56,-3.56,-3.56
284.99,-1.12,2.42,-1.12,2.43,-2.43,-2.20,-3.05,-3.55,-3.56,-3.55
287.84,-1.15,2.38,-1.15,2.39,-2.40,-2.18,-2.99,-3.55,-3.55,-3.54
290.72,-1.17,2.37,-1.17,2.37,-2.37,-2.16,-2.93,-3.55,-3.54,-3.55
293.63,-1.18,2.35,-1.19,2.35,-2.34,-2.13,-2.86,-3.53,-3.53,-3.54
296.57,-1.20,2.32,-1.20,2.32,-2.31,-2.11,-2.80,-3.51,-3.52,-3.53
299.53,-1.23,2.29,-1.23,2.29,-2.28,-2.09,-2.73,-3.51,-3.51,-3.53
302.53,-1.26,2.24,-1.26,2.25,-2.25,-2.07,-2.67,-3.51,-3.51,-3.51
305.55,-1.30,2.21,-1.30,2.21,-2.21,-2.04,-2.60,-3.51,-3.51,-3.52
308.61,-1.34,2.16,-1.34,2.17,-2.17,-2.02,-2.54,-3.51,-3.51,-3.51
311.69,-1.37,2.12,-1.37,2.13,-2.13,-2.00,-2.47,-3.50,-3.51,-3.50
314.81,-1.40,2.09,-1.40,2.09,-2.09,-1.97,-2.41,-3.50,-3.50,-3.50
317.96,-1.43,2.05,-1.43,2.06,-2.06,-1.95,-2.35,-3.49,-3.49,-3.49
321.14,-1.45,2.02,-1.45,2.02,-2.03,-1.93,-2.28,-3.48,-3.48,-3.48
324.35,-1.47,2.00,-1.48,1.99,-1.99,-1.90,-2.22,-3.47,-3.47,-3.48
327.59,-1.50,1.94,-1.50,1.96,-1.96,-1.88,-2.16,-3.46,-3.46,-3.45
330.87,-1.52,1.93,-1.52,1.93,-1.93,-1.85,-2.10,-3.45,-3.45,-3.46
334.18,-1.54,1.90,-1.54,1.90,-1.90,-1.83,-2.04,-3.44,-3.44,-3.45
337.52,-1.56,1.88,-1.56,1.88,-1.87,-1.80,-1.98,-3.43,-3.43,-3.45
340.90,-1.59,1.83,-1.59,1.84,-1.83,-1.78,-1.92,-3.43,-3.43,-3.43
344.30,-1.62,1.79,-1.62,1.80,-1.80,-1.75,-1.87,-3.42,-3.42,-3.42
347.75,-1.65,1.76,-1.65,1.76,-1.77,-1.72,-1.81,-3.42,-3.42,-3.42
351.23,-1.67,1.74,-1.68,1.73,-1.74,-1.70,-1.76,-3.41,-3.41,-3.42
354.74,-1.70,1.68,-1.70,1.70,-1.70,-1.67,-1.70,-3.40,-3.40,-3.39
358.28,-1.72,1.67,-1.72,1.67,-1.67,-1.64,-1.65,-3.39,-3.39,-3.40
361.87,-1.74,1.64,-1.74,1.64,-1.63,-1.61,-1.60,-3.37,-3.38,-3.39
365.49,-1.77,1.60,-1.77,1.61,-1.60,-1.58,-1.56,-3.37,-3.37,-3.38
369.14,-1.79,1.56,-1.80,1.57,-1.56,-1.56,-1.51,-3.35,-3.36,-3.36
372.83,-1.83,1.52,-1.83,1.53,-1.53,-1.53,-1.46,-3.36,-3.36,-3.36
376.56,-1.86,1.49,-1.86,1.49,-1.49,-1.50,-1.42,-3.35,-3.35,-3.36
380.33,-1.89,1.45,-1.89,1.45,-1.45,-1.47,-1.37,-3.35,-3.34,-3.35
384.13,-1.91,1.41,-1.91,1.42,-1.42,-1.44,-1.33,-3.33,-3.33,-3.33
387.97,-1.93,1.39,-1.93,1.39,-1.39,-1.41,-1.29,-3.32,-3.32,-3.33
391.85,-1.95,1.36,-1.95,1.36,-1.36,-1.38,-1.25,-3.31,-3.31,-3.32
395.77,-1.97,1.33,-1.97,1.33,-1.34,-1.35,-1.22,-3.31,-3.31,-3.31
399.73,-1.98,1.31,-1.98,1.31,-1.32,-1.32,-1.18,-3.30,-3.30,-3.30
403.72,-1.98,1.28,-1.98,1.30,-1.31,-1.29,-1.14,-3.29,-3.29,-3.27
407.76,-1.97,1.30,-1.98,1.29,-1.30,-1.27,-1.11,-3.27,-3.27,-3.28
411.84,-1.97,1.29,-1.97,1.29,-1.29,-1.24,-1.08,-3.26,-3.26,-3.27
415.96,-1.96,1.28,-1.96,1.29,-1.28,-1.22,-1.05,-3.24,-3.24,-3.25
420.12,-1.96,1.28,-1.96,1.28,-1.27,-1.20,-1.02,-3.24,-3.24,-3.25
424.32,-1.96,1.27,-1.96,1.27,-1.27,-1.18,-0.99,-3.23,-3.23,-3.24
428.56,-1.96,1.25,-1.96,1.26,-1.26,-1.16,-0.96,-3.23,-3.23,-3.22
432.85,-1.96,1.24,-1.96,1.25,-1.26,-1.15,-0.93,-3.22,-3.22,-3.21
437.18,-1.96,1.25,-1.96,1.25,-1.25,-1.14,-0.91,-3.21,-3.21,-3.22
441.55,-1.96,1.24,-1.96,1.24,-1.24,-1.13,-0.89,-3.20,-3.20,-3.21
445.96,-1.96,1.23,-1.96,1.24,-1.23,-1.13,-0.86,-3.19,-3.19,-3.20
450.42,-1.96,1.22,-1.96,1.23,-1.22,-1.13,-0.84,-3.18,-3.18,-3.19
454.93,-1.96,1.21,-1.96,1.21,-1.21,-1.13,-0.82,-3.17,-3.17,-3.18
459.48,-1.96,1.20,-1.96,1.20,-1.20,-1.13,-0.81,-3.16,-3.16,-3.17
464.07,-1.96,1.18,-1.96,1.19,-1.19,-1.14,-0.79,-3.15,-3.15,-3.15
468.71,-1.96,1.17,-1.96,1.18,-1.18,-1.14,-0.78,-3.14,-3.14,-3.14
473.40,-1.96,1.17,-1.96,1.17,-1.17,-1.15,-0.77,-3.13,-3.13,-3.14
478.13,-1.96,1.16,-1.97,1.16,-1.15,-1.16,-0.76,-3.11,-3.12,-3.13
482.91,-1.97,1.14,-1.97,1.14,-1.14,-1.17,-0.75,-3.11,-3.11,-3.12
487.74,-1.98,1.12,-1.98,1.13,-1.13,-1.18,-0.74,-3.11,-3.11,-3.11
492.62,-1.98,1.11,-1.98,1.12,-1.12,-1.19,-0.73,-3.10,-3.10,-3.10
497.55,-1.97,1.11,-1.97,1.11,-1.12,-1.20,-0.73,-3.09,-3.09,-3.09
502.52,-1.96,1.11,-1.96,1.11,-1.11,-1.21,-0.73,-3.08,-3.08,-3.08
