frequency,raw,error,smoothed,error_smoothed,equalization,parametric_eq,fixed_band_eq,equalized_raw,equalized_smoothed,target
20.00,-0.08,-6.54,0.10,-6.39,6.39,6.42,2.06,6.32,6.50,6.47
20.20,0.06,-6.45,0.16,-6.38,6.38,6.38,2.12,6.44,6.54,6.52
20.40,0.22,-6.35,0.21,-6.36,6.36,6.35,2.18,6.57,6.57,6.57
20.61,0.35,-6.25,0.27,-6.34,6.34,6.31,2.25,6.69,6.60,6.60
20.81,0.51,-6.14,0.32,-6.31,6.31,6.28,2.31,6.82,6.63,6.65
21.02,0.63,-6.05,0.38,-6.29,6.29,6.24,2.38,6.92,6.66,6.69
21.23,0.59,-6.11,0.43,-6.26,6.26,6.20,2.45,6.85,6.69,6.71
21.44,0.54,-6.19,0.49,-6.22,6.22,6.16,2.53,6.77,6.71,6.73
21.66,0.51,-6.24,0.55,-6.19,6.19,6.12,2.60,6.69,6.73,6.75
21.87,0.46,-6.29,0.60,-6.15,6.15,6.08,2.68,6.61,6.75,6.76
22.09,0.49,-6.29,0.66,-6.10,6.10,6.04,2.76,6.59,6.77,6.78
22.31,0.57,-6.22,0.72,-6.06,6.06,6.00,2.84,6.62,6.78,6.79
22.54,0.65,-6.14,0.77,-6.01,6.01,5.95,2.92,6.67,6.79,6.79
22.76,0.75,-6.04,0.82,-5.97,5.97,5.91,3.01,6.72,6.79,6.79
22.99,0.83,-5.94,0.86,-5.93,5.93,5.86,3.10,6.76,6.79,6.78
23.22,0.95,-5.82,0.91,-5.88,5.88,5.82,3.19,6.84,6.79,6.78
23.45,1.08,-5.70,0.97,-5.82,5.82,5.77,3.28,6.90,6.79,6.78
23.69,1.19,-5.60,1.05,-5.74,5.74,5.72,3.37,6.93,6.79,6.79
23.92,1.31,-5.47,1.14,-5.66,5.66,5.67,3.47,6.97,6.79,6.79
24.16,1.33,-5.45,1.22,-5.57,5.57,5.63,3.57,6.91,6.79,6.79
24.40,1.31,-5.48,1.30,-5.49,5.49,5.58,3.66,6.80,6.79,6.80
24.65,1.28,-5.50,1.38,-5.41,5.41,5.53,3.76,6.70,6.79,6.79
24.89,1.26,-5.53,1.44,-5.35,5.35,5.48,3.87,6.60,6.79,6.79
25.14,1.34,-5.45,1.51,-5.28,5.28,5.43,3.97,6.62,6.79,6.79
25.39,1.49,-5.31,1.57,-5.22,5.22,5.38,4.07,6.71,6.79,6.80
25.65,1.63,-5.17,1.63,-5.16,5.16,5.32,4.17,6.79,6.79,6.80
25.91,1.78,-5.01,1.69,-5.10,5.10,5.27,4.28,6.88,6.79,6.79
26.16,1.87,-4.92,1.75,-5.04,5.04,5.22,4.38,6.90,6.79,6.79
26.43,1.89,-4.89,1.81,-4.97,4.97,5.17,4.48,6.87,6.79,6.79
26.69,1.92,-4.86,1.88,-4.91,4.91,5.11,4.58,6.83,6.79,6.79
26.96,1.95,-4.83,1.95,-4.84,4.84,5.06,4.68,6.79,6.79,6.79
27.23,2.00,-4.79,2.02,-4.77,4.77,5.01,4.78,6.77,6.78,6.79
27.50,2.05,-4.73,2.08,-4.70,4.70,4.95,4.87,6.76,6.78,6.79
27.77,2.12,-4.66,2.14,-4.65,4.65,4.90,4.96,6.76,6.78,6.78
28.05,2.16,-4.61,2.17,-4.61,4.61,4.84,5.05,6.77,6.78,6.78
28.33,2.20,-4.56,2.20,-4.58,4.58,4.79,5.13,6.79,6.78,6.77
28.62,2.24,-4.53,2.22,-4.56,4.56,4.73,5.20,6.80,6.78,6.77
28.90,2.28,-4.49,2.27,-4.51,4.51,4.68,5.27,6.79,6.78,6.78
29.19,2.32,-4.44,2.33,-4.44,4.44,4.62,5.34,6.77,6.77,6.77
29.48,2.39,-4.39,2.41,-4.36,4.36,4.57,5.39,6.74,6.77,6.78
29.78,2.43,-4.33,2.48,-4.29,4.29,4.51,5.44,6.72,6.77,6.77
30.08,2.48,-4.30,2.54,-4.23,4.23,4.46,5.48,6.72,6.77,6.78
30.38,2.51,-4.25,2.58,-4.19,4.19,4.40,5.51,6.70,6.77,6.77
30.68,2.54,-4.22,2.62,-4.15,4.15,4.35,5.53,6.69,6.77,6.77
30.99,2.57,-4.19,2.67,-4.10,4.10,4.29,5.54,6.67,6.77,6.77
31.30,2.75,-4.01,2.71,-4.05,4.05,4.23,5.55,6.80,6.76,6.76
31.61,2.94,-3.81,2.75,-4.01,4.01,4.18,5.54,6.96,6.76,6.76
31.93,3.14,-3.62,2.77,-3.98,3.98,4.12,5.52,7.13,6.76,6.76
32.24,3.02,-3.73,2.79,-3.96,3.96,4.07,5.50,6.98,6.75,6.75
32.57,2.82,-3.93,2.82,-3.92,3.92,4.01,5.46,6.74,6.75,6.75
32.89,2.62,-4.13,2.87,-3.88,3.88,3.95,5.42,6.49,6.74,6.75
33.22,2.67,-4.07,2.91,-3.83,3.83,3.90,5.37,6.49,6.74,6.74
33.55,2.84,-3.90,2.96,-3.77,3.77,3.84,5.31,6.61,6.73,6.74
33.89,3.00,-3.72,3.01,-3.72,3.72,3.79,5.25,6.73,6.73,6.73
34.23,3.04,-3.68,3.06,-3.67,3.67,3.73,5.17,6.72,6.73,6.73
34.57,3.02,-3.69,3.10,-3.62,3.62,3.68,5.10,6.64,6.72,6.72
34.92,3.00,-3.71,3.15,-3.57,3.57,3.62,5.01,6.57,6.72,6.72
35.27,3.16,-3.55,3.20,-3.51,3.51,3.56,4.93,6.67,6.71,6.71
35.62,3.38,-3.33,3.26,-3.45,3.45,3.51,4.83,6.83,6.71,6.71
35.97,3.60,-3.10,3.34,-3.37,3.37,3.45,4.74,6.97,6.71,6.71
36.33,3.57,-3.13,3.41,-3.29,3.29,3.40,4.64,6.87,6.71,6.71
36.70,3.52,-3.18,3.48,-3.23,3.23,3.34,4.54,6.75,6.71,6.70
37.06,3.48,-3.22,3.52,-3.19,3.19,3.29,4.44,6.66,6.71,6.70
37.43,3.54,-3.17,3.56,-3.15,3.15,3.23,4.34,6.68,6.71,6.71
37.81,3.60,-3.10,3.60,-3.10,3.10,3.18,4.24,6.71,6.71,6.71
38.19,3.62,-3.07,3.64,-3.06,3.06,3.12,4.13,6.69,6.71,6.70
38.57,3.61,-3.09,3.68,-3.03,3.03,3.07,4.03,6.64,6.71,6.71
38.95,3.60,-3.12,3.71,-3.00,3.00,3.02,3.93,6.60,6.71,6.72
39.34,3.67,-3.04,3.72,-2.99,2.99,2.96,3.82,6.65,6.71,6.71
39.74,3.74,-2.96,3.74,-2.97,2.97,2.91,3.72,6.71,6.71,6.71
40.14,3.81,-2.90,3.77,-2.94,2.94,2.85,3.62,6.75,6.71,6.71
40.54,3.88,-2.82,3.82,-2.89,2.89,2.80,3.53,6.77,6.71,6.71
40.94,3.95,-2.74,3.88,-2.83,2.83,2.75,3.43,6.78,6.70,6.70
41.35,3.93,-2.76,3.93,-2.77,2.77,2.69,3.33,6.70,6.70,6.70
41.76,3.89,-2.79,3.96,-2.73,2.73,2.64,3.24,6.62,6.69,6.69
42.18,3.92,-2.77,3.99,-2.69,2.69,2.59,3.15,6.61,6.68,6.69
42.60,4.00,-2.68,4.02,-2.65,2.65,2.53,3.06,6.65,6.67,6.68
43.03,4.06,-2.60,4.05,-2.61,2.61,2.48,2.98,6.67,6.66,6.67
43.46,4.12,-2.53,4.08,-2.57,2.57,2.43,2.89,6.69,6.65,6.66
43.90,4.18,-2.46,4.11,-2.53,2.53,2.38,2.81,6.71,6.64,6.64
44.33,4.22,-2.39,4.14,-2.48,2.48,2.32,2.73,6.71,6.62,6.62
44.78,4.25,-2.34,4.18,-2.43,2.43,2.27,2.65,6.69,6.61,6.60
45.23,4.22,-2.37,4.21,-2.38,2.38,2.22,2.57,6.60,6.60,6.59
45.68,4.11,-2.47,4.24,-2.34,2.34,2.17,2.50,6.45,6.58,6.58
46.13,4.08,-2.48,4.27,-2.30,2.30,2.11,2.43,6.38,6.57,6.56
46.60,4.23,-2.33,4.30,-2.26,2.26,2.06,2.36,6.49,6.56,6.56
47.06,4.38,-2.15,4.33,-2.21,2.21,2.01,2.29,6.59,6.54,6.54
47.53,4.42,-2.10,4.37,-2.15,2.15,1.96,2.22,6.58,6.53,6.53
48.01,4.47,-2.05,4.41,-2.11,2.11,1.91,2.16,6.58,6.51,6.53
48.49,4.52,-1.98,4.43,-2.06,2.06,1.86,2.10,6.59,6.50,6.51
48.97,4.57,-1.91,4.47,-2.02,2.02,1.81,2.04,6.59,6.49,6.49
49.46,4.47,-1.99,4.51,-1.96,1.96,1.76,1.98,6.43,6.47,6.47
49.96,4.37,-2.08,4.56,-1.90,1.90,1.70,1.92,6.26,6.46,6.45
50.46,4.50,-1.94,4.61,-1.84,1.84,1.65,1.87,6.34,6.44,6.44
50.96,4.66,-1.76,4.63,-1.80,1.80,1.60,1.81,6.47,6.43,6.43
51.47,4.75,-1.65,4.65,-1.77,1.77,1.55,1.76,6.52,6.42,6.41
51.99,4.84,-1.56,4.67,-1.73,1.73,1.50,1.71,6.58,6.41,6.40
52.51,4.72,-1.67,4.71,-1.69,1.69,1.45,1.65,6.40,6.39,6.39
53.03,4.59,-1.79,4.75,-1.63,1.63,1.40,1.60,6.23,6.38,6.39
53.56,4.74,-1.62,4.78,-1.59,1.59,1.35,1.55,6.33,6.37,6.37
54.10,4.87,-1.49,4.81,-1.55,1.55,1.30,1.51,6.42,6.36,6.36
54.64,4.87,-1.46,4.85,-1.50,1.50,1.25,1.46,6.37,6.35,6.34
55.18,4.83,-1.50,4.89,-1.45,1.45,1.20,1.41,6.28,6.34,6.34
55.74,4.73,-1.59,4.92,-1.40,1.40,1.15,1.36,6.13,6.33,6.32
56.29,4.86,-1.45,4.94,-1.37,1.37,1.10,1.31,6.23,6.31,6.31
56.86,5.18,-1.12,4.97,-1.33,1.33,1.05,1.27,6.51,6.30,6.30
57.42,5.18,-1.09,5.00,-1.28,1.28,1.00,1.22,6.46,6.28,6.27
58.00,5.07,-1.18,5.03,-1.23,1.23,0.95,1.17,6.31,6.26,6.26
58.58,4.97,-1.27,5.06,-1.18,1.18,0.90,1.12,6.15,6.24,6.25
59.16,4.95,-1.28,5.08,-1.13,1.13,0.85,1.07,6.08,6.21,6.23
59.76,5.09,-1.12,5.09,-1.10,1.10,0.80,1.02,6.19,6.19,6.21
60.35,5.16,-1.00,5.11,-1.05,1.05,0.75,0.97,6.22,6.16,6.17
60.96,5.17,-0.95,5.13,-1.00,1.00,0.70,0.92,6.17,6.12,6.13
61.57,5.17,-0.91,5.15,-0.94,0.94,0.65,0.87,6.12,6.09,6.09
62.18,5.17,-0.87,5.16,-0.89,0.89,0.60,0.81,6.06,6.05,6.05
62.80,5.17,-0.82,5.16,-0.85,0.85,0.55,0.76,6.02,6.01,6.00
63.43,5.09,-0.86,5.16,-0.80,0.80,0.50,0.70,5.90,5.96,5.96
64.07,5.02,-0.89,5.18,-0.74,0.74,0.45,0.65,5.75,5.92,5.91
64.71,5.19,-0.68,5.21,-0.67,0.67,0.40,0.59,5.86,5.87,5.87
65.35,5.27,-0.55,5.23,-0.60,0.60,0.35,0.53,5.88,5.83,5.83
66.01,5.27,-0.50,5.24,-0.54,0.54,0.29,0.47,5.82,5.78,5.78
66.67,5.27,-0.45,5.24,-0.49,0.49,0.24,0.41,5.76,5.73,5.73
67.33,5.27,-0.40,5.25,-0.44,0.44,0.19,0.34,5.71,5.69,5.68
68.01,5.27,-0.36,5.25,-0.39,0.39,0.14,0.28,5.66,5.64,5.64
68.69,5.27,-0.31,5.25,-0.33,0.33,0.09,0.21,5.61,5.59,5.59
69.37,5.27,-0.26,5.26,-0.28,0.28,0.04,0.15,5.55,5.54,5.54
70.07,5.27,-0.21,5.26,-0.22,0.22,-0.02,0.08,5.49,5.48,5.49
70.77,5.27,-0.16,5.26,-0.17,0.17,-0.07,0.01,5.44,5.43,5.44
71.48,5.27,-0.11,5.26,-0.11,0.11,-0.12,-0.06,5.39,5.37,5.39
72.19,5.27,-0.04,5.26,-0.06,0.06,-0.18,-0.13,5.33,5.32,5.32
72.91,5.27,0.02,5.27,0.01,-0.01,-0.23,-0.21,5.27,5.26,5.26
73.64,5.21,0.01,5.27,0.07,-0.07,-0.28,-0.28,5.15,5.21,5.21
74.38,5.18,0.04,5.29,0.14,-0.14,-0.34,-0.36,5.05,5.15,5.15
75.12,5.21,0.12,5.30,0.20,-0.20,-0.39,-0.43,5.00,5.10,5.09
75.87,5.35,0.33,5.31,0.27,-0.27,-0.45,-0.51,5.08,5.04,5.03
76.63,5.37,0.40,5.33,0.34,-0.34,-0.50,-0.59,5.03,4.98,4.98
77.40,5.37,0.45,5.36,0.43,-0.43,-0.56,-0.67,4.95,4.93,4.93
78.17,5.41,0.54,5.39,0.52,-0.52,-0.62,-0.75,4.89,4.88,4.87
78.95,5.56,0.74,5.43,0.60,-0.60,-0.67,-0.83,4.96,4.83,4.83
79.74,5.57,0.80,5.47,0.69,-0.69,-0.73,-0.91,4.88,4.78,4.78
80.54,5.44,0.72,5.52,0.79,-0.79,-0.79,-0.99,4.65,4.73,4.73
81.35,5.44,0.77,5.60,0.91,-0.91,-0.84,-1.08,4.53,4.68,4.68
82.16,5.65,1.03,5.67,1.04,-1.04,-0.90,-1.16,4.62,4.63,4.63
82.98,5.64,1.05,5.74,1.15,-1.15,-0.96,-1.25,4.48,4.59,4.59
83.81,5.80,1.27,5.82,1.28,-1.28,-1.02,-1.34,4.52,4.54,4.54
84.65,5.91,1.43,5.91,1.42,-1.42,-1.08,-1.43,4.50,4.49,4.49
85.50,6.01,1.57,6.01,1.57,-1.57,-1.14,-1.52,4.45,4.44,4.45
86.35,6.06,1.67,6.11,1.72,-1.72,-1.21,-1.61,4.35,4.39,4.40
87.22,6.08,1.74,6.21,1.87,-1.87,-1.27,-1.71,4.22,4.34,4.35
88.09,6.33,2.03,6.31,2.02,-2.02,-1.33,-1.80,4.32,4.29,4.30
88.97,6.53,2.30,6.41,2.17,-2.17,-1.39,-1.90,4.37,4.24,4.24
89.86,6.62,2.44,6.49,2.30,-2.30,-1.46,-2.00,4.33,4.19,4.19
90.76,6.44,2.30,6.55,2.41,-2.41,-1.52,-2.10,4.03,4.14,4.14
91.66,6.66,2.57,6.60,2.51,-2.51,-1.59,-2.20,4.15,4.09,4.09
92.58,6.83,2.81,6.65,2.61,-2.61,-1.65,-2.30,4.23,4.04,4.03
93.51,6.77,2.80,6.68,2.69,-2.69,-1.72,-2.41,4.08,3.99,3.98
94.44,6.69,2.76,6.71,2.78,-2.78,-1.79,-2.51,3.92,3.94,3.94
95.39,6.68,2.80,6.74,2.85,-2.85,-1.86,-2.62,3.83,3.89,3.89
96.34,6.68,2.85,6.74,2.91,-2.91,-1.93,-2.73,3.78,3.84,3.84
97.30,6.66,2.88,6.73,2.94,-2.94,-2.00,-2.83,3.73,3.79,3.79
98.28,6.57,2.84,6.69,2.95,-2.95,-2.07,-2.94,3.63,3.74,3.74
99.26,6.55,2.86,6.65,2.96,-2.96,-2.14,-3.05,3.60,3.70,3.70
100.25,6.70,3.06,6.62,2.98,-2.98,-2.21,-3.17,3.73,3.65,3.65
101.25,6.72,3.13,6.60,3.00,-3.00,-2.29,-3.28,3.73,3.60,3.60
102.27,6.67,3.13,6.53,2.98,-2.98,-2.36,-3.39,3.69,3.55,3.55
103.29,6.59,3.10,6.47,2.97,-2.97,-2.44,-3.50,3.63,3.50,3.50
104.32,6.51,3.06,6.43,2.97,-2.97,-2.51,-3.61,3.54,3.45,3.46
105.37,6.37,2.96,6.39,2.99,-2.99,-2.59,-3.72,3.38,3.40,3.41
106.42,6.19,2.84,6.34,2.99,-2.99,-2.67,-3.83,3.20,3.35,3.36
107.48,6.23,2.94,6.31,3.01,-3.01,-2.75,-3.94,3.23,3.30,3.30
108.56,6.27,3.03,6.30,3.05,-3.05,-2.83,-4.05,3.22,3.25,3.25
109.64,6.28,3.09,6.31,3.11,-3.11,-2.91,-4.16,3.17,3.19,3.20
110.74,6.34,3.21,6.32,3.18,-3.18,-2.99,-4.26,3.16,3.14,3.14
111.85,6.19,3.10,6.35,3.26,-3.26,-3.08,-4.36,2.94,3.09,3.10
112.97,6.09,3.06,6.40,3.35,-3.35,-3.16,-4.46,2.74,3.04,3.04
114.10,6.42,3.43,6.47,3.47,-3.47,-3.25,-4.55,2.95,2.99,2.99
115.24,6.62,3.68,6.55,3.61,-3.61,-3.33,-4.64,3.02,2.95,2.94
116.39,6.63,3.75,6.65,3.75,-3.75,-3.42,-4.72,2.88,2.90,2.89
117.55,6.72,3.87,6.75,3.89,-3.89,-3.51,-4.80,2.83,2.86,2.85
118.73,7.00,4.20,6.84,4.02,-4.02,-3.60,-4.88,2.98,2.82,2.81
119.92,7.19,4.41,6.93,4.15,-4.15,-3.69,-4.94,3.05,2.78,2.78
121.12,7.07,4.33,7.02,4.27,-4.27,-3.78,-5.01,2.79,2.74,2.74
122.33,7.09,4.39,7.10,4.40,-4.40,-3.87,-5.06,2.70,2.71,2.71
123.55,7.14,4.47,7.19,4.51,-4.51,-3.96,-5.11,2.63,2.68,2.68
124.79,7.24,4.60,7.26,4.62,-4.62,-4.06,-5.16,2.63,2.65,2.65
126.03,7.34,4.73,7.31,4.69,-4.69,-4.15,-5.19,2.65,2.62,2.62
127.29,7.33,4.74,7.34,4.75,-4.75,-4.25,-5.22,2.58,2.59,2.60
128.57,7.31,4.76,7.37,4.81,-4.81,-4.34,-5.25,2.50,2.56,2.56
129.85,7.32,4.80,7.40,4.88,-4.88,-4.44,-5.26,2.45,2.53,2.53
131.15,7.48,4.99,7.43,4.93,-4.93,-4.53,-5.28,2.56,2.50,2.50
132.46,7.49,5.03,7.44,4.97,-4.97,-4.63,-5.28,2.52,2.47,2.47
133.79,7.49,5.06,7.47,5.03,-5.03,-4.73,-5.28,2.47,2.44,2.44
135.12,7.50,5.10,7.51,5.09,-5.09,-4.83,-5.28,2.41,2.42,2.41
136.48,7.47,5.09,7.53,5.14,-5.14,-4.92,-5.27,2.34,2.39,2.39
137.84,7.46,5.12,7.54,5.18,-5.18,-5.02,-5.26,2.28,2.36,2.35
139.22,7.55,5.24,7.56,5.23,-5.23,-5.12,-5.25,2.33,2.33,2.32
140.61,7.61,5.33,7.57,5.27,-5.27,-5.22,-5.23,2.35,2.30,2.29
142.02,7.61,5.35,7.59,5.32,-5.32,-5.31,-5.21,2.29,2.27,2.27
143.44,7.61,5.38,7.61,5.37,-5.37,-5.41,-5.19,2.24,2.23,2.24
144.87,7.61,5.42,7.62,5.42,-5.42,-5.51,-5.17,2.19,2.20,2.20
146.32,7.61,5.46,7.62,5.47,-5.47,-5.60,-5.15,2.14,2.15,2.16
147.78,7.61,5.49,7.64,5.53,-5.53,-5.70,-5.12,2.08,2.10,2.13
149.26,7.61,5.54,7.64,5.59,-5.59,-5.79,-5.10,2.02,2.05,2.08
150.75,7.61,5.60,7.63,5.64,-5.64,-5.88,-5.08,1.97,1.99,2.02
152.26,7.61,5.67,7.61,5.68,-5.68,-5.97,-5.06,1.93,1.93,1.95
153.78,7.61,5.74,7.58,5.72,-5.72,-6.06,-5.04,1.90,1.86,1.88
155.32,7.62,5.82,7.54,5.74,-5.74,-6.14,-5.02,1.88,1.80,1.81
156.88,7.63,5.91,7.50,5.77,-5.77,-6.23,-5.01,1.86,1.72,1.73
158.44,7.54,5.90,7.46,5.81,-5.81,-6.31,-5.00,1.74,1.65,1.65
160.03,7.48,5.92,7.43,5.84,-5.84,-6.39,-4.99,1.64,1.59,1.57
161.63,7.41,5.92,7.41,5.88,-5.88,-6.46,-4.98,1.53,1.52,1.50
163.24,7.36,5.93,7.39,5.93,-5.93,-6.53,-4.97,1.43,1.46,1.44
164.88,7.23,5.85,7.40,5.99,-5.99,-6.60,-4.97,1.24,1.40,1.39
166.53,7.19,5.86,7.41,6.05,-6.05,-6.67,-4.98,1.14,1.36,1.34
168.19,7.25,5.96,7.42,6.11,-6.11,-6.73,-4.98,1.15,1.32,1.30
169.87,7.33,6.08,7.45,6.16,-6.16,-6.78,-4.99,1.17,1.28,1.26
171.57,7.43,6.20,7.48,6.22,-6.22,-6.83,-5.01,1.21,1.26,1.24
173.29,7.55,6.33,7.52,6.28,-6.28,-6.88,-5.02,1.28,1.24,1.23
175.02,7.62,6.41,7.56,6.34,-6.34,-6.92,-5.05,1.29,1.22,1.22
176.77,7.74,6.54,7.62,6.40,-6.40,-6.96,-5.07,1.34,1.21,1.21
178.54,7.80,6.61,7.67,6.47,-6.47,-6.99,-5.10,1.34,1.21,1.20
180.32,7.85,6.65,7.73,6.53,-6.53,-7.01,-5.13,1.33,1.20,1.21
182.13,7.84,6.63,7.78,6.58,-6.58,-7.03,-5.17,1.26,1.20,1.22
183.95,7.78,6.58,7.82,6.63,-6.63,-7.05,-5.21,1.15,1.19,1.21
185.79,7.80,6.60,7.85,6.66,-6.66,-7.06,-5.26,1.14,1.18,1.21
187.65,7.81,6.63,7.86,6.68,-6.68,-7.06,-5.31,1.13,1.18,1.19
189.52,7.83,6.66,7.87,6.70,-6.70,-7.06,-5.36,1.13,1.17,1.18
191.42,7.84,6.69,7.87,6.71,-6.71,-7.05,-5.41,1.13,1.15,1.16
193.33,7.85,6.72,7.86,6.72,-6.72,-7.03,-5.47,1.13,1.14,1.14
195.27,7.87,6.76,7.85,6.73,-6.73,-7.01,-5.54,1.15,1.12,1.12
197.22,7.86,6.77,7.84,6.73,-6.73,-6.99,-5.60,1.13,1.10,1.10
199.19,7.81,6.74,7.83,6.74,-6.74,-6.96,-5.67,1.07,1.08,1.08
201.18,7.80,6.75,7.82,6.76,-6.76,-6.92,-5.74,1.04,1.06,1.06
203.19,7.80,6.77,7.82,6.78,-6.78,-6.88,-5.81,1.02,1.04,1.04
205.23,7.81,6.80,7.81,6.79,-6.79,-6.83,-5.89,1.02,1.02,1.02
207.28,7.81,6.81,7.80,6.80,-6.80,-6.78,-5.96,1.02,1.00,1.01
209.35,7.79,6.81,7.78,6.79,-6.79,-6.73,-6.04,1.00,0.98,0.99
211.44,7.72,6.77,7.76,6.79,-6.79,-6.67,-6.11,0.93,0.96,0.96
213.56,7.70,6.76,7.73,6.78,-6.78,-6.61,-6.19,0.93,0.95,0.95
215.69,7.69,6.76,7.70,6.77,-6.77,-6.54,-6.27,0.93,0.94,0.94
217.85,7.69,6.77,7.67,6.75,-6.75,-6.47,-6.34,0.95,0.92,0.93
220.03,7.69,6.78,7.64,6.72,-6.72,-6.40,-6.41,0.97,0.92,0.92
222.23,7.65,6.77,7.61,6.70,-6.70,-6.32,-6.48,0.96,0.91,0.89
224.45,7.53,6.64,7.57,6.66,-6.66,-6.25,-6.55,0.87,0.91,0.90
226.70,7.48,6.59,7.53,6.62,-6.62,-6.17,-6.61,0.86,0.91,0.90
228.96,7.49,6.59,7.49,6.58,-6.58,-6.08,-6.67,0.92,0.91,0.91
231.25,7.43,6.52,7.44,6.52,-6.52,-6.00,-6.72,0.91,0.92,0.92
233.57,7.39,6.47,7.40,6.47,-6.47,-5.91,-6.77,0.93,0.93,0.93
235.90,7.32,6.39,7.35,6.41,-6.41,-5.83,-6.80,0.92,0.95,0.94
238.26,7.32,6.38,7.30,6.34,-6.34,-5.74,-6.83,0.99,0.96,0.95
240.64,7.23,6.26,7.25,6.27,-6.27,-5.65,-6.85,0.97,0.98,0.98
243.05,7.18,6.18,7.19,6.19,-6.19,-5.56,-6.87,1.00,1.00,1.01
245.48,7.16,6.14,7.14,6.11,-6.11,-5.47,-6.87,1.05,1.03,1.03
247.93,7.07,6.02,7.08,6.03,-6.03,-5.38,-6.86,1.04,1.05,1.06
250.41,7.01,5.94,7.02,5.95,-5.95,-5.28,-6.85,1.07,1.07,1.08
252.92,6.94,5.84,6.95,5.85,-5.85,-5.19,-6.82,1.09,1.10,1.11
255.45,6.89,5.77,6.87,5.75,-5.75,-5.10,-6.79,1.15,1.12,1.13
258.00,6.82,5.68,6.79,5.65,-5.65,-5.01,-6.74,1.18,1.15,1.15
260.58,6.73,5.57,6.71,5.54,-5.54,-4.92,-6.69,1.19,1.17,1.17
263.19,6.63,5.44,6.63,5.43,-5.43,-4.83,-6.62,1.21,1.20,1.20
265.82,6.57,5.36,6.54,5.32,-5.32,-4.74,-6.55,1.26,1.22,1.22
268.48,6.48,5.25,6.45,5.20,-5.20,-4.65,-6.47,1.28,1.24,1.24
271.16,6.38,5.12,6.36,5.09,-5.09,-4.56,-6.38,1.29,1.27,1.27
273.87,6.26,4.98,6.27,4.98,-4.98,-4.47,-6.29,1.29,1.29,1.29
276.61,6.14,4.83,6.20,4.87,-4.87,-4.38,-6.19,1.27,1.32,1.32
279.38,6.06,4.72,6.13,4.78,-4.78,-4.29,-6.09,1.29,1.35,1.35
282.17,6.05,4.69,6.06,4.69,-4.69,-4.20,-5.98,1.37,1.38,1.37
284.99,6.04,4.64,6.01,4.61,-4.61,-4.12,-5.86,1.44,1.40,1.41
287.84,5.93,4.51,5.97,4.54,-4.54,-4.03,-5.75,1.40,1.43,1.43
290.72,5.88,4.43,5.94,4.48,-4.48,-3.95,-5.63,1.40,1.46,1.46
293.63,5.89,4.41,5.93,4.44,-4.44,-3.87,-5.51,1.45,1.49,1.49
296.57,5.90,4.39,5.93,4.41,-4.41,-3.78,-5.39,1.49,1.52,1.52
299.53,5.91,4.37,5.95,4.40,-4.40,-3.70,-5.27,1.52,1.55,1.55
302.53,5.93,4.37,5.97,4.40,-4.40,-3.62,-5.14,1.54,1.58,1.57
305.55,6.01,4.41,6.00,4.40,-4.40,-3.54,-5.02,1.61,1.60,1.61
308.61,6.05,4.43,6.04,4.41,-4.41,-3.46,-4.90,1.64,1.63,1.63
311.69,6.05,4.40,6.08,4.43,-4.43,-3.39,-4.78,1.62,1.65,1.66
314.81,6.13,4.46,6.12,4.45,-4.45,-3.31,-4.66,1.69,1.67,1.68
317.96,6.16,4.47,6.16,4.47,-4.47,-3.24,-4.54,1.70,1.69,1.70
321.14,6.23,4.53,6.20,4.49,-4.49,-3.16,-4.43,1.75,1.71,1.71
324.35,6.26,4.54,6.23,4.50,-4.50,-3.09,-4.31,1.77,1.73,1.73
327.59,6.26,4.53,6.24,4.50,-4.50,-3.02,-4.20,1.76,1.74,1.74
330.87,6.26,4.52,6.25,4.50,-4.50,-2.95,-4.09,1.77,1.76,1.75
334.18,6.25,4.49,6.25,4.48,-4.48,-2.88,-3.99,1.77,1.77,1.77
337.52,6.25,4.48,6.23,4.45,-4.45,-2.81,-3.88,1.80,1.78,1.78
340.90,6.25,4.47,6.20,4.42,-4.42,-2.74,-3.78,1.84,1.79,1.79
344.30,6.20,4.41,6.16,4.37,-4.37,-2.67,-3.68,1.83,1.79,1.80
347.75,6.10,4.31,6.11,4.32,-4.32,-2.61,-3.58,1.79,1.80,1.80
351.23,6.05,4.25,6.05,4.25,-4.25,-2.54,-3.49,1.80,1.80,1.81
354.74,6.00,4.21,5.99,4.18,-4.18,-2.48,-3.40,1.83,1.81,1.80
358.28,5.89,4.09,5.91,4.10,-4.10,-2.42,-3.31,1.80,1.81,1.81
361.87,5.82,4.02,5.83,4.02,-4.02,-2.36,-3.22,1.81,1.81,1.81
365.49,5.73,3.92,5.75,3.93,-3.93,-2.29,-3.14,1.80,1.81,1.82
369.14,5.61,3.81,5.66,3.85,-3.85,-2.23,-3.06,1.77,1.81,1.81
372.83,5.54,3.74,5.57,3.76,-3.76,-2.18,-2.98,1.79,1.81,1.81
376.56,5.47,3.68,5.47,3.67,-3.67,-2.12,-2.90,1.81,1.81,1.80
380.33,5.36,3.56,5.38,3.57,-3.57,-2.06,-2.83,1.79,1.80,1.81
384.13,5.29,3.49,5.28,3.48,-3.48,-2.00,-2.76,1.81,1.80,1.81
387.97,5.20,3.41,5.19,3.39,-3.39,-1.95,-2.69,1.82,1.80,1.80
391.85,5.09,3.31,5.09,3.29,-3.29,-1.89,-2.62,1.80,1.79,1.79
395.77,4.99,3.20,4.99,3.20,-3.20,-1.84,-2.55,1.80,1.79,1.80
399.73,4.92,3.14,4.90,3.11,-3.11,-1.78,-2.49,1.81,1.78,1.79
403.72,4.80,3.02,4.80,3.02,-3.02,-1.73,-2.43,1.78,1.78,1.79
407.76,4.69,2.93,4.70,2.93,-2.93,-1.68,-2.37,1.77,1.77,1.77
411.84,4.61,2.85,4.61,2.84,-2.84,-1.63,-2.31,1.77,1.77,1.77
415.96,4.52,2.76,4.52,2.75,-2.75,-1.58,-2.25,1.77,1.77,1.77
420.12,4.37,2.61,4.43,2.66,-2.66,-1.53,-2.20,1.72,1.77,1.77
424.32,4.29,2.53,4.35,2.57,-2.57,-1.48,-2.14,1.72,1.78,1.77
428.56,4.29,2.52,4.26,2.48,-2.48,-1.43,-2.09,1.82,1.79,1.78
432.85,4.18,2.40,4.18,2.38,-2.38,-1.38,-2.04,1.81,1.80,1.79
437.18,4.14,2.35,4.12,2.29,-2.29,-1.33,-1.99,1.85,1.82,1.80
441.55,4.10,2.27,4.07,2.23,-2.23,-1.29,-1.94,1.88,1.85,1.84
445.96,3.93,2.07,4.03,2.15,-2.15,-1.24,-1.89,1.78,1.88,1.87
450.42,3.94,2.05,3.99,2.08,-2.08,-1.20,-1.84,1.87,1.92,1.90
454.93,3.99,2.05,3.95,1.99,-1.99,-1.15,-1.79,2.00,1.96,1.95
459.48,3.82,1.84,3.91,1.91,-1.91,-1.11,-1.74,1.91,2.00,1.99
464.07,3.81,1.78,3.89,1.84,-1.84,-1.06,-1.69,1.97,2.05,2.04
468.71,3.88,1.79,3.86,1.77,-1.77,-1.02,-1.64,2.12,2.09,2.10
473.40,3.76,1.63,3.83,1.68,-1.68,-0.97,-1.59,2.08,2.14,2.14
478.13,3.86,1.67,3.79,1.60,-1.60,-0.93,-1.54,2.26,2.19,2.20
482.91,3.93,1.70,3.76,1.52,-1.52,-0.89,-1.49,2.41,2.24,2.24
487.74,3.81,1.54,3.71,1.43,-1.43,-0.84,-1.44,2.38,2.28,2.28
492.62,3.56,1.24,3.64,1.33,-1.33,-0.80,-1.39,2.24,2.31,2.33
497.55,3.49,1.15,3.57,1.23,-1.23,-0.76,-1.33,2.27,2.34,2.35
502.52,3.50,1.13,3.50,1.13,-1.13,-0.72,-1.28,2.37,2.37,2.38
507.55,3.55,1.17,3.42,1.04,-1.04,-0.68,-1.23,2.51,2.38,2.39
512.62,3.42,1.03,3.34,0.95,-0.95,-0.64,-1.17,2.47,2.39,2.40
517.75,3.19,0.79,3.25,0.86,-0.86,-0.60,-1.12,2.33,2.39,2.41
522.93,3.12,0.73,3.16,0.78,-0.78,-0.56,-1.06,2.34,2.37,2.40
528.16,3.03,0.67,3.06,0.71,-0.71,-0.52,-1.00,2.33,2.35,2.37
533.44,2.83,0.50,2.94,0.61,-0.61,-0.48,-0.95,2.22,2.32,2.34
538.77,2.68,0.38,2.82,0.53,-0.53,-0.44,-0.89,2.15,2.29,2.31
544.16,2.59,0.34,2.70,0.46,-0.46,-0.40,-0.83,2.14,2.25,2.26
549.60,2.75,0.55,2.57,0.37,-0.37,-0.36,-0.76,2.38,2.20,2.21
555.10,2.70,0.56,2.43,0.28,-0.28,-0.32,-0.70,2.42,2.15,2.15
560.65,2.32,0.23,2.30,0.21,-0.21,-0.28,-0.64,2.12,2.09,2.10
