frequency,raw,error,smoothed,error_smoothed,equalization,parametric_eq,fixed_band_eq,equalized_raw,equalized_smoothed,target
20.00,-0.08,-7.68,0.10,-7.53,7.53,7.45,2.56,7.46,7.63,7.61
20.20,0.06,-7.59,0.16,-7.51,7.51,7.42,2.64,7.58,7.67,7.65
20.40,0.22,-7.49,0.21,-7.49,7.49,7.39,2.71,7.71,7.71,7.70
20.61,0.35,-7.38,0.27,-7.47,7.47,7.35,2.79,7.82,7.74,7.73
20.81,0.51,-7.28,0.32,-7.45,7.45,7.32,2.87,7.95,7.77,7.78
21.02,0.63,-7.19,0.38,-7.42,7.42,7.29,2.95,8.05,7.80,7.82
21.23,0.59,-7.25,0.43,-7.39,7.39,7.25,3.04,7.98,7.82,7.84
21.44,0.54,-7.32,0.49,-7.35,7.35,7.22,3.13,7.90,7.84,7.86
21.66,0.51,-7.38,0.55,-7.32,7.32,7.18,3.22,7.82,7.86,7.88
21.87,0.46,-7.43,0.60,-7.28,7.28,7.15,3.31,7.74,7.88,7.89
22.09,0.49,-7.42,0.66,-7.23,7.23,7.11,3.41,7.72,7.90,7.91
22.31,0.57,-7.35,0.72,-7.19,7.19,7.07,3.50,7.75,7.91,7.92
22.54,0.65,-7.27,0.77,-7.14,7.14,7.03,3.60,7.80,7.92,7.92
22.76,0.75,-7.17,0.82,-7.10,7.10,7.00,3.71,7.85,7.92,7.92
22.99,0.83,-7.07,0.86,-7.06,7.06,6.96,3.81,7.89,7.92,7.91
23.22,0.95,-6.95,0.91,-7.01,7.01,6.92,3.92,7.97,7.92,7.91
23.45,1.08,-6.83,0.97,-6.95,6.95,6.87,4.03,8.02,7.92,7.91
23.69,1.19,-6.72,1.05,-6.87,6.87,6.83,4.14,8.06,7.92,7.91
23.92,1.31,-6.60,1.14,-6.79,6.79,6.79,4.26,8.10,7.92,7.91
24.16,1.33,-6.59,1.22,-6.70,6.70,6.75,4.38,8.03,7.92,7.92
24.40,1.31,-6.62,1.30,-6.62,6.62,6.70,4.50,7.93,7.92,7.93
24.65,1.28,-6.64,1.38,-6.54,6.54,6.66,4.62,7.83,7.92,7.92
24.89,1.26,-6.66,1.44,-6.48,6.48,6.62,4.74,7.73,7.92,7.92
25.14,1.34,-6.58,1.51,-6.41,6.41,6.57,4.86,7.75,7.92,7.92
25.39,1.49,-6.44,1.57,-6.35,6.35,6.53,4.99,7.84,7.92,7.93
25.65,1.63,-6.29,1.63,-6.29,6.29,6.48,5.12,7.92,7.92,7.93
25.91,1.78,-6.13,1.69,-6.23,6.23,6.43,5.24,8.01,7.92,7.92
26.16,1.87,-6.05,1.75,-6.17,6.17,6.39,5.37,8.03,7.92,7.92
26.43,1.89,-6.02,1.81,-6.10,6.10,6.34,5.49,8.00,7.92,7.91
26.69,1.92,-5.99,1.88,-6.04,6.04,6.29,5.62,7.96,7.92,7.91
26.96,1.95,-5.97,1.95,-5.97,5.97,6.24,5.74,7.92,7.91,7.92
27.23,2.00,-5.92,2.02,-5.89,5.89,6.20,5.86,7.90,7.91,7.92
27.50,2.05,-5.86,2.08,-5.83,5.83,6.15,5.98,7.88,7.91,7.92
27.77,2.12,-5.79,2.14,-5.77,5.77,6.10,6.09,7.89,7.91,7.91
28.05,2.16,-5.74,2.17,-5.73,5.73,6.05,6.20,7.90,7.91,7.91
28.33,2.20,-5.69,2.20,-5.71,5.71,6.00,6.30,7.91,7.90,7.89
28.62,2.24,-5.65,2.22,-5.68,5.68,5.95,6.40,7.92,7.90,7.89
28.90,2.28,-5.62,2.27,-5.63,5.63,5.90,6.48,7.92,7.90,7.90
29.19,2.32,-5.56,2.33,-5.57,5.57,5.85,6.56,7.89,7.90,7.89
29.48,2.39,-5.52,2.41,-5.48,5.48,5.79,6.64,7.87,7.90,7.91
29.78,2.43,-5.46,2.48,-5.41,5.41,5.74,6.70,7.84,7.89,7.89
30.08,2.48,-5.42,2.54,-5.35,5.35,5.69,6.75,7.84,7.89,7.90
30.38,2.51,-5.38,2.58,-5.31,5.31,5.64,6.79,7.82,7.89,7.89
30.68,2.54,-5.34,2.62,-5.27,5.27,5.59,6.82,7.81,7.89,7.89
30.99,2.57,-5.31,2.67,-5.22,5.22,5.53,6.84,7.80,7.89,7.89
31.30,2.75,-5.13,2.71,-5.17,5.17,5.48,6.85,7.93,7.88,7.88
31.61,2.94,-4.94,2.75,-5.13,5.13,5.43,6.84,8.08,7.88,7.88
31.93,3.14,-4.74,2.77,-5.10,5.10,5.37,6.82,8.25,7.88,7.88
32.24,3.02,-4.84,2.79,-5.08,5.08,5.32,6.80,8.10,7.87,7.87
32.57,2.82,-5.06,2.82,-5.04,5.04,5.27,6.76,7.86,7.87,7.87
32.89,2.62,-5.26,2.87,-5.00,5.00,5.21,6.71,7.61,7.86,7.87
33.22,2.67,-5.19,2.91,-4.94,4.94,5.16,6.65,7.61,7.86,7.86
33.55,2.84,-5.02,2.96,-4.89,4.89,5.10,6.58,7.73,7.85,7.85
33.89,3.00,-4.84,3.01,-4.84,4.84,5.05,6.50,7.84,7.85,7.84
34.23,3.04,-4.80,3.06,-4.79,4.79,4.99,6.41,7.83,7.84,7.85
34.57,3.02,-4.81,3.10,-4.73,4.73,4.94,6.32,7.76,7.84,7.83
34.92,3.00,-4.83,3.15,-4.68,4.68,4.88,6.22,7.69,7.83,7.83
35.27,3.16,-4.66,3.20,-4.63,4.63,4.83,6.12,7.79,7.83,7.83
35.62,3.38,-4.44,3.26,-4.56,4.56,4.77,6.01,7.94,7.82,7.82
35.97,3.60,-4.21,3.34,-4.48,4.48,4.72,5.90,8.09,7.82,7.82
36.33,3.57,-4.25,3.41,-4.40,4.40,4.66,5.79,7.98,7.82,7.82
36.70,3.52,-4.29,3.48,-4.34,4.34,4.61,5.67,7.86,7.82,7.81
37.06,3.48,-4.33,3.52,-4.30,4.30,4.55,5.56,7.77,7.82,7.81
37.43,3.54,-4.28,3.56,-4.25,4.25,4.49,5.44,7.79,7.82,7.82
37.81,3.60,-4.21,3.60,-4.21,4.21,4.44,5.32,7.82,7.81,7.82
38.19,3.62,-4.19,3.64,-4.17,4.17,4.38,5.20,7.79,7.81,7.81
38.57,3.61,-4.20,3.68,-4.13,4.13,4.32,5.08,7.75,7.81,7.81
38.95,3.60,-4.22,3.71,-4.11,4.11,4.27,4.97,7.70,7.81,7.82
39.34,3.67,-4.15,3.72,-4.09,4.09,4.21,4.85,7.76,7.81,7.81
39.74,3.74,-4.06,3.74,-4.07,4.07,4.16,4.74,7.81,7.81,7.81
40.14,3.81,-4.00,3.77,-4.04,4.04,4.10,4.63,7.85,7.81,7.81
40.54,3.88,-3.92,3.82,-3.99,3.99,4.04,4.52,7.87,7.80,7.80
40.94,3.95,-3.84,3.88,-3.92,3.92,3.99,4.42,7.88,7.80,7.80
41.35,3.93,-3.86,3.93,-3.87,3.87,3.93,4.31,7.80,7.79,7.79
41.76,3.89,-3.89,3.96,-3.82,3.82,3.87,4.21,7.72,7.78,7.78
42.18,3.92,-3.87,3.99,-3.78,3.78,3.82,4.11,7.70,7.78,7.79
42.60,4.00,-3.77,4.02,-3.74,3.74,3.76,4.02,7.74,7.76,7.77
43.03,4.06,-3.70,4.05,-3.70,3.70,3.70,3.92,7.76,7.75,7.76
43.46,4.12,-3.63,4.08,-3.66,3.66,3.64,3.83,7.78,7.74,7.75
43.90,4.18,-3.54,4.11,-3.62,3.62,3.59,3.75,7.80,7.72,7.72
44.33,4.22,-3.48,4.14,-3.57,3.57,3.53,3.66,7.80,7.71,7.70
44.78,4.25,-3.43,4.18,-3.51,3.51,3.47,3.58,7.77,7.70,7.69
45.23,4.22,-3.46,4.21,-3.47,3.47,3.42,3.51,7.68,7.68,7.68
45.68,4.11,-3.55,4.24,-3.42,3.42,3.36,3.43,7.53,7.66,7.66
46.13,4.08,-3.56,4.27,-3.38,3.38,3.30,3.36,7.45,7.65,7.63
46.60,4.23,-3.40,4.30,-3.33,3.33,3.25,3.29,7.57,7.63,7.63
47.06,4.38,-3.23,4.33,-3.28,3.28,3.19,3.22,7.67,7.61,7.61
47.53,4.42,-3.18,4.37,-3.22,3.22,3.13,3.16,7.65,7.60,7.60
48.01,4.47,-3.12,4.41,-3.17,3.17,3.07,3.10,7.65,7.58,7.60
48.49,4.52,-3.05,4.43,-3.13,3.13,3.02,3.04,7.65,7.57,7.58
48.97,4.57,-2.98,4.47,-3.08,3.08,2.96,2.98,7.66,7.55,7.55
49.46,4.47,-3.06,4.51,-3.02,3.02,2.90,2.92,7.50,7.53,7.53
49.96,4.37,-3.14,4.56,-2.96,2.96,2.85,2.87,7.32,7.52,7.51
50.46,4.50,-3.00,4.61,-2.90,2.90,2.79,2.82,7.40,7.50,7.50
50.96,4.66,-2.82,4.63,-2.86,2.86,2.73,2.77,7.52,7.49,7.49
51.47,4.75,-2.71,4.65,-2.82,2.82,2.67,2.72,7.58,7.47,7.46
51.99,4.84,-2.60,4.67,-2.78,2.78,2.62,2.68,7.63,7.46,7.45
52.51,4.72,-2.72,4.71,-2.73,2.73,2.56,2.63,7.45,7.44,7.44
53.03,4.59,-2.84,4.75,-2.68,2.68,2.50,2.59,7.27,7.42,7.43
53.56,4.74,-2.67,4.78,-2.63,2.63,2.45,2.54,7.37,7.41,7.41
54.10,4.87,-2.52,4.81,-2.58,2.58,2.39,2.50,7.46,7.40,7.40
54.64,4.87,-2.50,4.85,-2.53,2.53,2.33,2.46,7.41,7.38,7.38
55.18,4.83,-2.53,4.89,-2.48,2.48,2.27,2.42,7.31,7.37,7.37
55.74,4.73,-2.62,4.92,-2.43,2.43,2.22,2.37,7.16,7.35,7.35
56.29,4.86,-2.48,4.94,-2.39,2.39,2.16,2.33,7.25,7.34,7.34
56.86,5.18,-2.13,4.97,-2.35,2.35,2.10,2.29,7.53,7.32,7.32
57.42,5.18,-2.10,5.00,-2.29,2.29,2.04,2.24,7.48,7.30,7.28
58.00,5.07,-2.20,5.03,-2.24,2.24,1.99,2.20,7.32,7.27,7.27
58.58,4.97,-2.28,5.06,-2.19,2.19,1.93,2.15,7.16,7.25,7.26
59.16,4.95,-2.29,5.08,-2.14,2.14,1.87,2.11,7.08,7.22,7.23
59.76,5.09,-2.11,5.09,-2.10,2.10,1.81,2.06,7.19,7.19,7.21
60.35,5.16,-2.00,5.11,-2.05,2.05,1.75,2.01,7.21,7.15,7.16
60.96,5.17,-1.95,5.13,-1.99,1.99,1.70,1.96,7.16,7.11,7.12
61.57,5.17,-1.90,5.15,-1.93,1.93,1.64,1.90,7.10,7.07,7.08
62.18,5.17,-1.85,5.16,-1.87,1.87,1.58,1.85,7.05,7.03,7.03
62.80,5.17,-1.80,5.16,-1.82,1.82,1.52,1.79,7.00,6.98,6.98
63.43,5.09,-1.83,5.16,-1.78,1.78,1.46,1.73,6.87,6.94,6.93
64.07,5.02,-1.86,5.18,-1.70,1.70,1.40,1.66,6.72,6.89,6.88
64.71,5.19,-1.63,5.21,-1.63,1.63,1.35,1.60,6.82,6.84,6.83
65.35,5.27,-1.51,5.23,-1.56,1.56,1.29,1.53,6.83,6.78,6.78
66.01,5.27,-1.46,5.24,-1.49,1.49,1.23,1.46,6.77,6.73,6.73
66.67,5.27,-1.40,5.24,-1.43,1.43,1.17,1.39,6.71,6.68,6.68
67.33,5.27,-1.35,5.25,-1.37,1.37,1.11,1.32,6.65,6.62,6.62
68.01,5.27,-1.30,5.25,-1.32,1.32,1.05,1.25,6.59,6.57,6.57
68.69,5.27,-1.24,5.25,-1.26,1.26,0.99,1.17,6.53,6.51,6.52
69.37,5.27,-1.18,5.26,-1.20,1.20,0.93,1.09,6.47,6.46,6.46
70.07,5.27,-1.12,5.26,-1.13,1.13,0.87,1.01,6.41,6.40,6.40
70.77,5.27,-1.07,5.26,-1.07,1.07,0.81,0.93,6.35,6.34,6.35
71.48,5.27,-1.01,5.26,-1.02,1.02,0.75,0.84,6.29,6.28,6.29
72.19,5.27,-0.94,5.26,-0.95,0.95,0.69,0.76,6.23,6.21,6.21
72.91,5.27,-0.88,5.27,-0.88,0.88,0.63,0.67,6.16,6.15,6.15
73.64,5.21,-0.87,5.27,-0.81,0.81,0.56,0.58,6.03,6.09,6.09
74.38,5.18,-0.84,5.29,-0.74,0.74,0.50,0.49,5.92,6.02,6.02
75.12,5.21,-0.75,5.30,-0.67,0.67,0.44,0.40,5.87,5.96,5.96
75.87,5.35,-0.53,5.31,-0.59,0.59,0.38,0.31,5.94,5.90,5.89
76.63,5.37,-0.46,5.33,-0.51,0.51,0.31,0.22,5.88,5.84,5.83
77.40,5.37,-0.40,5.36,-0.42,0.42,0.25,0.13,5.79,5.78,5.77
78.17,5.41,-0.30,5.39,-0.32,0.32,0.19,0.03,5.73,5.72,5.70
78.95,5.56,-0.10,5.43,-0.23,0.23,0.12,-0.06,5.79,5.66,5.66
79.74,5.57,-0.03,5.47,-0.13,0.13,0.06,-0.16,5.70,5.60,5.60
80.54,5.44,-0.10,5.52,-0.02,0.02,-0.01,-0.26,5.47,5.54,5.55
81.35,5.44,-0.04,5.60,0.11,-0.11,-0.07,-0.35,5.33,5.49,5.48
82.16,5.65,0.23,5.67,0.24,-0.24,-0.14,-0.45,5.41,5.43,5.43
82.98,5.64,0.25,5.74,0.37,-0.37,-0.20,-0.55,5.27,5.37,5.38
83.81,5.80,0.49,5.82,0.50,-0.50,-0.27,-0.65,5.30,5.32,5.32
84.65,5.91,0.66,5.91,0.65,-0.65,-0.34,-0.75,5.27,5.26,5.26
85.50,6.01,0.80,6.01,0.81,-0.81,-0.41,-0.85,5.21,5.20,5.21
86.35,6.06,0.91,6.11,0.97,-0.97,-0.47,-0.96,5.10,5.15,5.15
87.22,6.08,0.99,6.21,1.12,-1.12,-0.54,-1.06,4.96,5.09,5.09
88.09,6.33,1.30,6.31,1.28,-1.28,-0.61,-1.17,5.05,5.03,5.03
88.97,6.53,1.56,6.41,1.44,-1.44,-0.68,-1.27,5.10,4.97,4.97
89.86,6.62,1.72,6.49,1.58,-1.58,-0.75,-1.38,5.04,4.91,4.91
90.76,6.44,1.59,6.55,1.70,-1.70,-0.82,-1.49,4.74,4.85,4.85
91.66,6.66,1.86,6.60,1.81,-1.81,-0.90,-1.59,4.85,4.79,4.79
92.58,6.83,2.12,6.65,1.92,-1.92,-0.97,-1.70,4.92,4.73,4.72
93.51,6.77,2.11,6.68,2.01,-2.01,-1.04,-1.81,4.76,4.67,4.66
94.44,6.69,2.08,6.71,2.10,-2.10,-1.12,-1.92,4.59,4.61,4.61
95.39,6.68,2.13,6.74,2.19,-2.19,-1.19,-2.04,4.50,4.55,4.55
96.34,6.68,2.20,6.74,2.25,-2.25,-1.27,-2.15,4.43,4.49,4.49
97.30,6.66,2.23,6.73,2.29,-2.29,-1.34,-2.26,4.37,4.43,4.43
98.28,6.57,2.20,6.69,2.31,-2.31,-1.42,-2.38,4.26,4.38,4.38
99.26,6.55,2.24,6.65,2.33,-2.33,-1.50,-2.49,4.22,4.32,4.32
100.25,6.70,2.44,6.62,2.36,-2.36,-1.58,-2.61,4.34,4.26,4.26
101.25,6.72,2.52,6.60,2.39,-2.39,-1.66,-2.72,4.33,4.20,4.20
102.27,6.67,2.53,6.53,2.39,-2.39,-1.74,-2.84,4.29,4.15,4.15
103.29,6.59,2.52,6.47,2.38,-2.38,-1.82,-2.95,4.21,4.09,4.08
104.32,6.51,2.48,6.43,2.40,-2.40,-1.90,-3.07,4.12,4.03,4.03
105.37,6.37,2.39,6.39,2.42,-2.42,-1.98,-3.18,3.94,3.97,3.97
106.42,6.19,2.28,6.34,2.44,-2.44,-2.07,-3.29,3.76,3.91,3.92
107.48,6.23,2.39,6.31,2.46,-2.46,-2.15,-3.40,3.77,3.84,3.85
108.56,6.27,2.49,6.30,2.52,-2.52,-2.24,-3.51,3.76,3.78,3.78
109.64,6.28,2.56,6.31,2.59,-2.59,-2.32,-3.62,3.70,3.72,3.72
110.74,6.34,2.69,6.32,2.67,-2.67,-2.41,-3.72,3.68,3.66,3.66
111.85,6.19,2.59,6.35,2.75,-2.75,-2.50,-3.83,3.44,3.60,3.61
112.97,6.09,2.56,6.40,2.86,-2.86,-2.59,-3.92,3.24,3.54,3.53
114.10,6.42,2.95,6.47,2.99,-2.99,-2.68,-4.02,3.44,3.48,3.48
115.24,6.62,3.21,6.55,3.13,-3.13,-2.77,-4.11,3.49,3.42,3.42
116.39,6.63,3.28,6.65,3.28,-3.28,-2.86,-4.20,3.35,3.37,3.35
117.55,6.72,3.41,6.75,3.43,-3.43,-2.96,-4.28,3.28,3.31,3.31
118.73,7.00,3.75,6.84,3.58,-3.58,-3.05,-4.36,3.43,3.26,3.25
119.92,7.19,3.98,6.93,3.71,-3.71,-3.15,-4.43,3.48,3.22,3.22
121.12,7.07,3.90,7.02,3.85,-3.85,-3.25,-4.49,3.22,3.17,3.16
122.33,7.09,3.97,7.10,3.98,-3.98,-3.34,-4.55,3.12,3.13,3.12
123.55,7.14,4.06,7.19,4.10,-4.10,-3.44,-4.61,3.04,3.08,3.09
124.79,7.24,4.20,7.26,4.22,-4.22,-3.54,-4.66,3.02,3.04,3.05
126.03,7.34,4.34,7.31,4.31,-4.31,-3.64,-4.70,3.04,3.00,3.01
127.29,7.33,4.36,7.34,4.38,-4.38,-3.74,-4.73,2.96,2.96,2.97
128.57,7.31,4.39,7.37,4.45,-4.45,-3.84,-4.76,2.87,2.92,2.92
129.85,7.32,4.44,7.40,4.52,-4.52,-3.94,-4.79,2.81,2.89,2.89
131.15,7.48,4.64,7.43,4.58,-4.58,-4.05,-4.81,2.91,2.85,2.85
132.46,7.49,4.68,7.44,4.63,-4.63,-4.15,-4.82,2.86,2.81,2.81
133.79,7.49,4.72,7.47,4.70,-4.70,-4.26,-4.83,2.80,2.77,2.77
135.12,7.50,4.78,7.51,4.77,-4.77,-4.36,-4.84,2.74,2.74,2.73
136.48,7.47,4.77,7.53,4.83,-4.83,-4.46,-4.84,2.65,2.70,2.70
137.84,7.46,4.81,7.54,4.88,-4.88,-4.57,-4.84,2.59,2.67,2.66
139.22,7.55,4.94,7.56,4.93,-4.93,-4.67,-4.83,2.63,2.63,2.62
140.61,7.61,5.04,7.57,4.98,-4.98,-4.78,-4.83,2.63,2.59,2.57
142.02,7.61,5.06,7.59,5.04,-5.04,-4.89,-4.82,2.57,2.55,2.55
143.44,7.61,5.10,7.61,5.10,-5.10,-4.99,-4.81,2.51,2.51,2.51
144.87,7.61,5.15,7.62,5.16,-5.16,-5.10,-4.80,2.45,2.46,2.46
146.32,7.61,5.20,7.62,5.22,-5.22,-5.20,-4.78,2.40,2.41,2.41
147.78,7.61,5.24,7.64,5.29,-5.29,-5.30,-4.77,2.33,2.35,2.38
149.26,7.61,5.29,7.64,5.35,-5.35,-5.41,-4.76,2.26,2.29,2.32
150.75,7.61,5.37,7.63,5.41,-5.41,-5.51,-4.75,2.20,2.22,2.24
152.26,7.61,5.44,7.61,5.46,-5.46,-5.61,-4.74,2.15,2.15,2.17
153.78,7.61,5.52,7.58,5.50,-5.50,-5.71,-4.73,2.11,2.08,2.10
155.32,7.62,5.61,7.54,5.53,-5.53,-5.80,-4.72,2.09,2.00,2.01
156.88,7.63,5.70,7.50,5.57,-5.57,-5.90,-4.72,2.06,1.92,1.93
158.44,7.54,5.70,7.46,5.61,-5.61,-5.99,-4.72,1.93,1.85,1.84
160.03,7.48,5.73,7.43,5.66,-5.66,-6.08,-4.72,1.83,1.77,1.75
161.63,7.41,5.74,7.41,5.71,-5.71,-6.17,-4.72,1.71,1.70,1.67
163.24,7.36,5.76,7.39,5.76,-5.76,-6.25,-4.72,1.60,1.63,1.61
164.88,7.23,5.68,7.40,5.83,-5.83,-6.34,-4.73,1.41,1.57,1.55
166.53,7.19,5.70,7.41,5.89,-5.89,-6.41,-4.75,1.30,1.51,1.49
168.19,7.25,5.81,7.42,5.95,-5.95,-6.49,-4.76,1.30,1.47,1.45
169.87,7.33,5.93,7.45,6.02,-6.02,-6.56,-4.78,1.32,1.43,1.41
171.57,7.43,6.05,7.48,6.08,-6.08,-6.62,-4.80,1.35,1.40,1.38
173.29,7.55,6.19,7.52,6.15,-6.15,-6.68,-4.83,1.41,1.37,1.36
175.02,7.62,6.28,7.56,6.21,-6.21,-6.74,-4.86,1.41,1.35,1.35
176.77,7.74,6.42,7.62,6.28,-6.28,-6.79,-4.90,1.46,1.34,1.33
178.54,7.80,6.48,7.67,6.35,-6.35,-6.84,-4.93,1.45,1.32,1.32
180.32,7.85,6.53,7.73,6.42,-6.42,-6.88,-4.98,1.44,1.31,1.32
182.13,7.84,6.52,7.78,6.48,-6.48,-6.91,-5.02,1.37,1.30,1.32
183.95,7.78,6.48,7.82,6.53,-6.53,-6.94,-5.07,1.25,1.29,1.31
185.79,7.80,6.50,7.85,6.57,-6.57,-6.96,-5.12,1.24,1.28,1.30
187.65,7.81,6.54,7.86,6.60,-6.60,-6.98,-5.18,1.22,1.26,1.28
189.52,7.83,6.57,7.87,6.62,-6.62,-6.99,-5.24,1.22,1.25,1.26
191.42,7.84,6.61,7.87,6.63,-6.63,-6.99,-5.30,1.21,1.23,1.24
193.33,7.85,6.64,7.86,6.65,-6.65,-6.99,-5.37,1.21,1.21,1.21
195.27,7.87,6.68,7.85,6.66,-6.66,-6.98,-5.44,1.22,1.19,1.19
197.22,7.86,6.70,7.84,6.67,-6.67,-6.96,-5.51,1.20,1.17,1.17
199.19,7.81,6.68,7.83,6.68,-6.68,-6.94,-5.59,1.13,1.15,1.14
201.18,7.80,6.69,7.82,6.70,-6.70,-6.92,-5.67,1.10,1.12,1.12
203.19,7.80,6.71,7.82,6.73,-6.73,-6.89,-5.75,1.08,1.10,1.10
205.23,7.81,6.75,7.81,6.74,-6.74,-6.85,-5.83,1.07,1.07,1.07
207.28,7.81,6.75,7.80,6.75,-6.75,-6.81,-5.91,1.07,1.05,1.06
209.35,7.79,6.76,7.78,6.75,-6.75,-6.76,-6.00,1.04,1.03,1.03
211.44,7.72,6.73,7.76,6.75,-6.75,-6.71,-6.08,0.98,1.01,1.00
213.56,7.70,6.72,7.73,6.74,-6.74,-6.65,-6.16,0.96,0.99,0.99
215.69,7.69,6.72,7.70,6.73,-6.73,-6.59,-6.25,0.96,0.97,0.97
217.85,7.69,6.74,7.67,6.72,-6.72,-6.53,-6.33,0.98,0.96,0.96
220.03,7.69,6.75,7.64,6.70,-6.70,-6.46,-6.41,1.00,0.94,0.94
222.23,7.65,6.74,7.61,6.67,-6.67,-6.39,-6.48,0.98,0.94,0.92
224.45,7.53,6.61,7.57,6.64,-6.64,-6.31,-6.55,0.89,0.93,0.92
226.70,7.48,6.56,7.53,6.60,-6.60,-6.23,-6.62,0.88,0.93,0.92
228.96,7.49,6.57,7.49,6.56,-6.56,-6.15,-6.68,0.94,0.93,0.93
231.25,7.43,6.50,7.44,6.51,-6.51,-6.07,-6.74,0.93,0.93,0.93
233.57,7.39,6.45,7.40,6.45,-6.45,-5.99,-6.79,0.94,0.94,0.94
235.90,7.32,6.37,7.35,6.40,-6.40,-5.90,-6.83,0.93,0.96,0.95
238.26,7.32,6.37,7.30,6.33,-6.33,-5.81,-6.87,0.99,0.97,0.96
240.64,7.23,6.26,7.25,6.26,-6.26,-5.73,-6.89,0.97,0.99,0.98
243.05,7.18,6.18,7.19,6.19,-6.19,-5.64,-6.91,1.00,1.00,1.01
245.48,7.16,6.14,7.14,6.11,-6.11,-5.54,-6.92,1.05,1.03,1.03
247.93,7.07,6.02,7.08,6.03,-6.03,-5.45,-6.91,1.04,1.05,1.06
250.41,7.01,5.95,7.02,5.95,-5.95,-5.36,-6.90,1.06,1.07,1.07
252.92,6.94,5.85,6.95,5.86,-5.86,-5.27,-6.88,1.08,1.09,1.10
255.45,6.89,5.77,6.87,5.76,-5.76,-5.18,-6.84,1.14,1.11,1.12
258.00,6.82,5.68,6.79,5.66,-5.66,-5.08,-6.80,1.17,1.14,1.14
260.58,6.73,5.58,6.71,5.55,-5.55,-4.99,-6.75,1.18,1.16,1.15
263.19,6.63,5.45,6.63,5.44,-5.44,-4.90,-6.69,1.19,1.18,1.19
265.82,6.57,5.38,6.54,5.33,-5.33,-4.81,-6.62,1.24,1.20,1.20
268.48,6.48,5.26,6.45,5.22,-5.22,-4.71,-6.54,1.26,1.23,1.22
271.16,6.38,5.13,6.36,5.11,-5.11,-4.62,-6.45,1.27,1.25,1.25
273.87,6.26,5.00,6.27,5.00,-5.00,-4.53,-6.36,1.27,1.27,1.27
276.61,6.14,4.84,6.20,4.90,-4.90,-4.44,-6.26,1.25,1.30,1.30
279.38,6.06,4.74,6.13,4.80,-4.80,-4.35,-6.15,1.26,1.33,1.32
282.17,6.05,4.71,6.06,4.71,-4.71,-4.26,-6.04,1.34,1.35,1.35
284.99,6.04,4.66,6.01,4.63,-4.63,-4.18,-5.93,1.41,1.38,1.38
287.84,5.93,4.54,5.97,4.56,-4.56,-4.09,-5.81,1.37,1.41,1.40
290.72,5.88,4.45,5.94,4.51,-4.51,-4.00,-5.70,1.38,1.43,1.43
293.63,5.89,4.44,5.93,4.47,-4.47,-3.92,-5.57,1.42,1.46,1.46
296.57,5.90,4.41,5.93,4.44,-4.44,-3.84,-5.45,1.46,1.49,1.49
299.53,5.91,4.40,5.95,4.43,-4.43,-3.75,-5.33,1.48,1.52,1.52
302.53,5.93,4.40,5.97,4.43,-4.43,-3.67,-5.21,1.50,1.54,1.53
305.55,6.01,4.44,6.00,4.44,-4.44,-3.59,-5.09,1.58,1.57,1.58
308.61,6.05,4.46,6.04,4.45,-4.45,-3.51,-4.96,1.60,1.59,1.59
311.69,6.05,4.44,6.08,4.47,-4.47,-3.43,-4.84,1.59,1.61,1.62
314.81,6.13,4.49,6.12,4.49,-4.49,-3.35,-4.72,1.65,1.63,1.65
317.96,6.16,4.50,6.16,4.50,-4.50,-3.28,-4.60,1.66,1.65,1.66
321.14,6.23,4.57,6.20,4.53,-4.53,-3.20,-4.49,1.71,1.67,1.67
324.35,6.26,4.58,6.23,4.54,-4.54,-3.13,-4.37,1.73,1.69,1.68
327.59,6.26,4.56,6.24,4.54,-4.54,-3.06,-4.26,1.72,1.70,1.70
330.87,6.26,4.56,6.25,4.54,-4.54,-2.98,-4.15,1.73,1.71,1.71
334.18,6.25,4.53,6.25,4.52,-4.52,-2.91,-4.04,1.73,1.73,1.72
337.52,6.25,4.52,6.23,4.50,-4.50,-2.84,-3.94,1.76,1.74,1.73
340.90,6.25,4.51,6.20,4.46,-4.46,-2.78,-3.84,1.79,1.74,1.75
344.30,6.20,4.45,6.16,4.42,-4.42,-2.71,-3.74,1.79,1.75,1.76
347.75,6.10,4.35,6.11,4.36,-4.36,-2.64,-3.64,1.74,1.75,1.75
351.23,6.05,4.29,6.05,4.30,-4.30,-2.58,-3.55,1.76,1.76,1.76
354.74,6.00,4.25,5.99,4.22,-4.22,-2.51,-3.46,1.78,1.76,1.76
358.28,5.89,4.13,5.91,4.15,-4.15,-2.45,-3.37,1.75,1.76,1.77
361.87,5.82,4.06,5.83,4.07,-4.07,-2.38,-3.28,1.76,1.76,1.76
365.49,5.73,3.96,5.75,3.98,-3.98,-2.32,-3.20,1.75,1.76,1.77
369.14,5.61,3.86,5.66,3.89,-3.89,-2.26,-3.12,1.72,1.76,1.76
372.83,5.54,3.79,5.57,3.80,-3.80,-2.20,-3.04,1.74,1.76,1.76
376.56,5.47,3.72,5.47,3.71,-3.71,-2.14,-2.96,1.76,1.76,1.75
380.33,5.36,3.60,5.38,3.62,-3.62,-2.09,-2.89,1.74,1.76,1.76
384.13,5.29,3.53,5.28,3.53,-3.53,-2.03,-2.82,1.76,1.75,1.76
387.97,5.20,3.46,5.19,3.44,-3.44,-1.97,-2.75,1.77,1.75,1.75
391.85,5.09,3.36,5.09,3.34,-3.34,-1.92,-2.68,1.75,1.74,1.74
395.77,4.99,3.25,4.99,3.25,-3.25,-1.86,-2.62,1.74,1.74,1.75
399.73,4.92,3.19,4.90,3.17,-3.17,-1.81,-2.55,1.76,1.73,1.73
403.72,4.80,3.07,4.80,3.07,-3.07,-1.76,-2.49,1.73,1.72,1.73
407.76,4.69,2.97,4.70,2.98,-2.98,-1.70,-2.43,1.71,1.72,1.72
411.84,4.61,2.89,4.61,2.89,-2.89,-1.65,-2.37,1.72,1.72,1.72
415.96,4.52,2.81,4.52,2.80,-2.80,-1.60,-2.32,1.72,1.71,1.72
420.12,4.37,2.66,4.43,2.71,-2.71,-1.55,-2.26,1.66,1.72,1.72
424.32,4.29,2.58,4.35,2.62,-2.62,-1.50,-2.21,1.67,1.72,1.72
428.56,4.29,2.57,4.26,2.53,-2.53,-1.45,-2.16,1.76,1.73,1.72
432.85,4.18,2.45,4.18,2.43,-2.43,-1.41,-2.11,1.75,1.75,1.73
437.18,4.14,2.40,4.12,2.35,-2.35,-1.36,-2.06,1.79,1.77,1.74
441.55,4.10,2.32,4.07,2.28,-2.28,-1.31,-2.00,1.82,1.79,1.78
445.96,3.93,2.12,4.03,2.21,-2.21,-1.27,-1.96,1.73,1.82,1.81
450.42,3.94,2.11,3.99,2.13,-2.13,-1.22,-1.91,1.81,1.86,1.84
454.93,3.99,2.11,3.95,2.05,-2.05,-1.17,-1.86,1.95,1.90,1.89
459.48,3.82,1.89,3.91,1.97,-1.97,-1.13,-1.81,1.86,1.94,1.94
464.07,3.81,1.83,3.89,1.90,-1.90,-1.08,-1.76,1.92,1.99,1.99
468.71,3.88,1.84,3.86,1.82,-1.82,-1.04,-1.71,2.06,2.04,2.05
473.40,3.76,1.68,3.83,1.74,-1.74,-1.00,-1.66,2.03,2.09,2.09
478.13,3.86,1.72,3.79,1.66,-1.66,-0.95,-1.61,2.21,2.14,2.14
482.91,3.93,1.75,3.76,1.58,-1.58,-0.91,-1.56,2.36,2.18,2.18
487.74,3.81,1.59,3.71,1.49,-1.49,-0.87,-1.51,2.33,2.22,2.22
492.62,3.56,1.29,3.64,1.39,-1.39,-0.83,-1.46,2.18,2.26,2.27
497.55,3.49,1.20,3.57,1.28,-1.28,-0.79,-1.41,2.21,2.29,2.29
502.52,3.50,1.18,3.50,1.19,-1.19,-0.75,-1.36,2.31,2.31,2.32
507.55,3.55,1.22,3.42,1.10,-1.10,-0.71,-1.30,2.45,2.32,2.33
512.62,3.42,1.08,3.34,1.01,-1.01,-0.67,-1.25,2.41,2.33,2.34
517.75,3.19,0.85,3.25,0.92,-0.92,-0.62,-1.19,2.27,2.33,2.35
522.93,3.12,0.79,3.16,0.85,-0.85,-0.59,-1.13,2.28,2.31,2.34
528.16,3.03,0.73,3.06,0.77,-0.77,-0.55,-1.08,2.27,2.29,2.31
533.44,2.83,0.56,2.94,0.67,-0.67,-0.51,-1.02,2.16,2.26,2.28
538.77,2.68,0.44,2.82,0.60,-0.60,-0.47,-0.96,2.09,2.23,2.25
544.16,2.59,0.40,2.70,0.52,-0.52,-0.43,-0.90,2.08,2.18,2.20
549.60,2.75,0.61,2.57,0.43,-0.43,-0.39,-0.84,2.32,2.13,2.15
555.10,2.70,0.62,2.43,0.35,-0.35,-0.35,-0.77,2.36,2.08,2.09
560.65,2.32,0.29,2.30,0.27,-0.27,-0.31,-0.71,2.05,2.03,2.04
