frequency,raw,error,smoothed,error_smoothed,equalization,parametric_eq,fixed_band_eq,equalized_raw,equalized_smoothed,target
20.00,4.47,-4.07,4.47,-4.07,4.06,3.71,1.48,8.53,8.53,8.54
20.20,4.49,-4.04,4.49,-4.04,4.03,3.70,1.53,8.52,8.52,8.53
20.40,4.51,-4.01,4.51,-4.01,4.01,3.69,1.57,8.52,8.52,8.52
20.61,4.53,-3.98,4.53,-3.97,3.97,3.68,1.62,8.50,8.51,8.51
20.81,4.56,-3.93,4.56,-3.93,3.94,3.67,1.66,8.50,8.50,8.49
21.02,4.58,-3.90,4.58,-3.90,3.91,3.66,1.71,8.49,8.49,8.48
21.23,4.61,-3.86,4.61,-3.86,3.87,3.65,1.76,8.48,8.48,8.47
21.44,4.64,-3.84,4.64,-3.83,3.83,3.64,1.81,8.47,8.47,8.48
21.66,4.67,-3.79,4.67,-3.79,3.78,3.63,1.87,8.45,8.46,8.46
21.87,4.71,-3.75,4.71,-3.75,3.74,3.62,1.92,8.45,8.44,8.46
22.09,4.74,-3.70,4.74,-3.70,3.69,3.60,1.98,8.43,8.43,8.44
22.31,4.78,-3.65,4.78,-3.64,3.64,3.59,2.04,8.42,8.42,8.43
22.54,4.83,-3.59,4.83,-3.59,3.58,3.58,2.10,8.41,8.41,8.42
22.76,4.89,-3.53,4.89,-3.53,3.53,3.57,2.16,8.42,8.41,8.42
22.99,4.94,-3.47,4.94,-3.47,3.47,3.55,2.22,8.41,8.41,8.41
23.22,4.99,-3.41,4.99,-3.41,3.42,3.54,2.28,8.41,8.41,8.40
23.45,5.04,-3.37,5.04,-3.36,3.37,3.52,2.35,8.41,8.41,8.41
23.69,5.08,-3.32,5.08,-3.31,3.32,3.51,2.41,8.40,8.41,8.40
23.92,5.12,-3.27,5.12,-3.28,3.29,3.49,2.48,8.41,8.40,8.39
24.16,5.14,-3.26,5.14,-3.25,3.25,3.48,2.55,8.39,8.39,8.40
24.40,5.16,-3.24,5.16,-3.23,3.23,3.46,2.62,8.39,8.39,8.40
24.65,5.17,-3.22,5.17,-3.22,3.21,3.45,2.69,8.38,8.38,8.39
24.89,5.19,-3.20,5.19,-3.19,3.19,3.43,2.76,8.38,8.38,8.39
25.14,5.20,-3.18,5.20,-3.18,3.18,3.42,2.83,8.38,8.38,8.38
25.39,5.21,-3.17,5.21,-3.17,3.18,3.40,2.90,8.39,8.39,8.38
25.65,5.21,-3.17,5.21,-3.17,3.17,3.38,2.97,8.38,8.38,8.38
25.91,5.21,-3.17,5.21,-3.17,3.17,3.36,3.05,8.38,8.38,8.38
26.16,5.20,-3.19,5.20,-3.18,3.17,3.35,3.12,8.37,8.37,8.39
26.43,5.19,-3.19,5.19,-3.18,3.18,3.33,3.19,8.37,8.37,8.38
26.69,5.19,-3.19,5.19,-3.19,3.19,3.31,3.26,8.38,8.38,8.38
26.96,5.19,-3.19,5.19,-3.19,3.19,3.29,3.32,8.38,8.38,8.38
27.23,5.18,-3.20,5.18,-3.20,3.20,3.27,3.39,8.38,8.38,8.38
27.50,5.17,-3.21,5.17,-3.21,3.21,3.25,3.45,8.38,8.38,8.38
27.77,5.17,-3.22,5.17,-3.21,3.21,3.23,3.51,8.38,8.38,8.39
28.05,5.17,-3.21,5.17,-3.21,3.21,3.21,3.57,8.38,8.38,8.38
28.33,5.18,-3.21,5.18,-3.21,3.20,3.19,3.63,8.38,8.38,8.39
28.62,5.19,-3.20,5.19,-3.20,3.19,3.17,3.68,8.38,8.39,8.39
28.90,5.21,-3.19,5.21,-3.18,3.18,3.14,3.72,8.39,8.39,8.40
29.19,5.24,-3.16,5.24,-3.16,3.15,3.12,3.76,8.39,8.39,8.40
29.48,5.26,-3.13,5.26,-3.13,3.13,3.10,3.80,8.39,8.39,8.39
29.78,5.29,-3.10,5.29,-3.10,3.09,3.08,3.83,8.38,8.38,8.39
30.08,5.32,-3.07,5.32,-3.06,3.06,3.05,3.86,8.38,8.38,8.39
30.38,5.36,-3.01,5.36,-3.02,3.02,3.03,3.88,8.38,8.38,8.37
30.68,5.39,-2.98,5.39,-2.98,2.98,3.01,3.89,8.37,8.37,8.37
30.99,5.42,-2.95,5.42,-2.95,2.95,2.98,3.90,8.37,8.37,8.37
31.30,5.45,-2.92,5.45,-2.91,2.91,2.96,3.90,8.36,8.36,8.37
31.61,5.47,-2.89,5.47,-2.88,2.88,2.93,3.89,8.35,8.35,8.36
31.93,5.50,-2.84,5.50,-2.85,2.85,2.91,3.88,8.35,8.35,8.34
32.24,5.51,-2.84,5.51,-2.82,2.83,2.88,3.86,8.34,8.34,8.35
32.57,5.53,-2.80,5.53,-2.80,2.81,2.86,3.83,8.34,8.34,8.33
32.89,5.54,-2.79,5.54,-2.79,2.80,2.83,3.80,8.34,8.33,8.33
33.22,5.54,-2.78,5.54,-2.78,2.79,2.81,3.77,8.33,8.32,8.32
33.55,5.53,-2.79,5.53,-2.78,2.78,2.78,3.73,8.31,8.31,8.32
33.89,5.52,-2.79,5.52,-2.78,2.78,2.75,3.68,8.30,8.30,8.31
34.23,5.52,-2.77,5.52,-2.77,2.77,2.73,3.63,8.29,8.29,8.29
34.57,5.51,-2.78,5.51,-2.77,2.77,2.70,3.57,8.28,8.28,8.29
34.92,5.51,-2.76,5.51,-2.77,2.77,2.67,3.52,8.28,8.28,8.27
35.27,5.51,-2.78,5.51,-2.76,2.76,2.64,3.46,8.27,8.27,8.29
35.62,5.51,-2.75,5.51,-2.75,2.75,2.61,3.39,8.26,8.26,8.26
35.97,5.51,-2.75,5.51,-2.74,2.74,2.59,3.33,8.25,8.25,8.26
36.33,5.51,-2.73,5.51,-2.72,2.73,2.56,3.26,8.24,8.24,8.24
36.70,5.51,-2.71,5.51,-2.71,2.72,2.53,3.19,8.23,8.23,8.22
37.06,5.50,-2.70,5.50,-2.70,2.70,2.50,3.12,8.20,8.20,8.20
37.43,5.49,-2.69,5.49,-2.69,2.69,2.47,3.04,8.18,8.18,8.18
37.81,5.49,-2.68,5.49,-2.67,2.66,2.44,2.97,8.15,8.15,8.17
38.19,5.50,-2.64,5.50,-2.64,2.63,2.41,2.90,8.13,8.13,8.14
38.57,5.51,-2.61,5.51,-2.61,2.60,2.38,2.83,8.11,8.11,8.12
38.95,5.53,-2.58,5.53,-2.57,2.56,2.35,2.76,8.09,8.09,8.11
39.34,5.55,-2.53,5.55,-2.52,2.52,2.32,2.68,8.07,8.07,8.08
39.74,5.58,-2.47,5.58,-2.47,2.47,2.29,2.61,8.05,8.05,8.05
40.14,5.61,-2.42,5.61,-2.42,2.42,2.25,2.54,8.03,8.03,8.03
40.54,5.64,-2.37,5.64,-2.36,2.37,2.22,2.47,8.01,8.01,8.01
40.94,5.67,-2.31,5.67,-2.31,2.32,2.19,2.41,7.99,7.99,7.98
41.35,5.70,-2.27,5.70,-2.26,2.26,2.16,2.34,7.96,7.96,7.97
41.76,5.73,-2.21,5.73,-2.21,2.21,2.13,2.27,7.94,7.94,7.94
42.18,5.76,-2.17,5.76,-2.16,2.16,2.09,2.21,7.92,7.92,7.93
42.60,5.79,-2.11,5.79,-2.11,2.11,2.06,2.15,7.90,7.89,7.90
43.03,5.81,-2.07,5.81,-2.06,2.06,2.03,2.09,7.87,7.87,7.88
43.46,5.83,-2.01,5.83,-2.01,2.02,1.99,2.03,7.85,7.85,7.84
43.90,5.85,-1.97,5.85,-1.97,1.98,1.96,1.97,7.83,7.83,7.82
44.33,5.86,-1.93,5.86,-1.93,1.94,1.92,1.91,7.80,7.80,7.79
44.78,5.86,-1.91,5.86,-1.90,1.91,1.89,1.86,7.77,7.77,7.77
45.23,5.86,-1.89,5.86,-1.88,1.88,1.85,1.81,7.74,7.73,7.75
45.68,5.85,-1.85,5.85,-1.85,1.85,1.82,1.76,7.70,7.70,7.70
46.13,5.84,-1.83,5.84,-1.82,1.82,1.78,1.71,7.66,7.66,7.67
46.60,5.84,-1.79,5.84,-1.79,1.78,1.74,1.66,7.62,7.62,7.63
47.06,5.84,-1.76,5.84,-1.75,1.75,1.70,1.61,7.59,7.59,7.60
47.53,5.84,-1.72,5.84,-1.71,1.71,1.67,1.56,7.55,7.55,7.56
48.01,5.84,-1.67,5.84,-1.67,1.67,1.63,1.52,7.51,7.51,7.51
48.49,5.84,-1.63,5.84,-1.63,1.63,1.59,1.48,7.47,7.47,7.47
48.97,5.84,-1.58,5.84,-1.58,1.58,1.55,1.44,7.42,7.42,7.42
49.46,5.84,-1.55,5.84,-1.54,1.54,1.51,1.40,7.38,7.38,7.39
49.96,5.84,-1.49,5.84,-1.50,1.50,1.47,1.36,7.34,7.34,7.33
50.46,5.84,-1.46,5.84,-1.46,1.46,1.43,1.32,7.30,7.30,7.30
50.96,5.84,-1.42,5.84,-1.41,1.42,1.38,1.28,7.26,7.26,7.26
51.47,5.84,-1.38,5.84,-1.37,1.38,1.34,1.24,7.22,7.22,7.22
51.99,5.84,-1.33,5.84,-1.33,1.33,1.30,1.21,7.17,7.17,7.17
52.51,5.84,-1.30,5.84,-1.30,1.29,1.25,1.17,7.13,7.13,7.14
53.03,5.84,-1.27,5.84,-1.26,1.25,1.21,1.14,7.09,7.09,7.11
53.56,5.84,-1.22,5.84,-1.22,1.21,1.17,1.11,7.05,7.05,7.06
54.10,5.84,-1.17,5.84,-1.17,1.17,1.12,1.07,7.01,7.01,7.01
54.64,5.84,-1.13,5.84,-1.12,1.13,1.08,1.04,6.97,6.97,6.97
55.18,5.84,-1.09,5.84,-1.08,1.09,1.03,1.01,6.93,6.93,6.93
55.74,5.84,-1.04,5.84,-1.05,1.05,0.98,0.97,6.89,6.89,6.88
56.29,5.84,-1.02,5.84,-1.01,1.01,0.94,0.94,6.85,6.85,6.86
56.86,5.84,-0.98,5.84,-0.97,0.97,0.89,0.91,6.81,6.81,6.82
57.42,5.84,-0.93,5.84,-0.93,0.93,0.84,0.87,6.77,6.77,6.77
58.00,5.84,-0.89,5.84,-0.89,0.90,0.79,0.84,6.74,6.74,6.73
58.58,5.84,-0.86,5.84,-0.86,0.86,0.75,0.81,6.70,6.70,6.70
59.16,5.84,-0.83,5.84,-0.82,0.81,0.70,0.77,6.65,6.65,6.67
59.76,5.84,-0.78,5.84,-0.78,0.77,0.65,0.74,6.61,6.61,6.62
60.35,5.84,-0.73,5.84,-0.73,0.72,0.60,0.70,6.56,6.56,6.57
60.96,5.84,-0.67,5.84,-0.67,0.66,0.55,0.67,6.50,6.50,6.51
61.57,5.84,-0.61,5.84,-0.61,0.61,0.50,0.63,6.45,6.45,6.45
62.18,5.84,-0.55,5.84,-0.55,0.55,0.45,0.59,6.39,6.39,6.39
62.80,5.84,-0.49,5.84,-0.49,0.50,0.41,0.56,6.34,6.34,6.33
63.43,5.84,-0.44,5.84,-0.44,0.44,0.36,0.52,6.28,6.28,6.28
64.07,5.84,-0.39,5.84,-0.39,0.39,0.31,0.48,6.23,6.23,6.23
64.71,5.84,-0.34,5.84,-0.33,0.33,0.26,0.44,6.17,6.17,6.18
65.35,5.84,-0.28,5.84,-0.28,0.28,0.21,0.39,6.12,6.12,6.12
66.01,5.84,-0.23,5.84,-0.23,0.23,0.16,0.35,6.07,6.07,6.07
66.67,5.84,-0.19,5.84,-0.18,0.18,0.10,0.31,6.02,6.02,6.03
67.33,5.84,-0.12,5.84,-0.12,0.12,0.05,0.26,5.96,5.96,5.96
68.01,5.84,-0.07,5.84,-0.07,0.07,0.00,0.22,5.91,5.91,5.91
68.69,5.84,-0.02,5.84,-0.02,0.01,-0.05,0.17,5.85,5.85,5.86
69.37,5.84,0.03,5.84,0.04,-0.04,-0.10,0.12,5.80,5.80,5.81
70.07,5.84,0.09,5.84,0.10,-0.10,-0.15,0.08,5.74,5.74,5.75
70.77,5.84,0.16,5.84,0.15,-0.16,-0.20,0.03,5.68,5.68,5.68
71.48,5.84,0.21,5.84,0.22,-0.22,-0.25,-0.02,5.62,5.62,5.63
72.19,5.84,0.27,5.84,0.28,-0.27,-0.31,-0.07,5.57,5.57,5.57
72.91,5.84,0.34,5.84,0.34,-0.33,-0.36,-0.13,5.51,5.51,5.50
73.64,5.84,0.39,5.84,0.40,-0.39,-0.41,-0.18,5.45,5.45,5.45
74.38,5.84,0.45,5.84,0.45,-0.45,-0.46,-0.23,5.39,5.39,5.39
75.12,5.84,0.50,5.84,0.50,-0.51,-0.51,-0.29,5.33,5.33,5.34
75.87,5.84,0.55,5.84,0.56,-0.57,-0.57,-0.34,5.27,5.28,5.29
76.63,5.85,0.62,5.85,0.62,-0.62,-0.62,-0.40,5.23,5.23,5.23
77.40,5.86,0.67,5.86,0.68,-0.67,-0.67,-0.45,5.19,5.18,5.19
78.17,5.86,0.73,5.86,0.73,-0.72,-0.72,-0.51,5.14,5.14,5.13
78.95,5.86,0.77,5.86,0.77,-0.77,-0.78,-0.57,5.09,5.09,5.09
79.74,5.85,0.81,5.85,0.82,-0.81,-0.83,-0.63,5.04,5.04,5.04
80.54,5.83,0.84,5.83,0.85,-0.84,-0.88,-0.69,4.99,4.99,4.99
81.35,5.81,0.88,5.81,0.88,-0.88,-0.94,-0.75,4.93,4.94,4.93
82.16,5.79,0.89,5.79,0.90,-0.90,-0.99,-0.81,4.89,4.88,4.90
82.98,5.76,0.92,5.76,0.92,-0.93,-1.04,-0.87,4.83,4.83,4.84
83.81,5.73,0.94,5.73,0.95,-0.95,-1.10,-0.93,4.78,4.78,4.79
84.65,5.70,0.97,5.70,0.97,-0.97,-1.15,-1.00,4.73,4.73,4.73
85.50,5.67,1.00,5.67,0.99,-0.99,-1.21,-1.06,4.68,4.68,4.67
86.35,5.63,1.01,5.63,1.01,-1.01,-1.26,-1.13,4.62,4.62,4.62
87.22,5.59,1.02,5.59,1.03,-1.03,-1.32,-1.20,4.56,4.56,4.57
88.09,5.56,1.05,5.56,1.05,-1.05,-1.37,-1.26,4.51,4.50,4.51
88.97,5.53,1.08,5.53,1.08,-1.09,-1.42,-1.33,4.44,4.44,4.45
89.86,5.51,1.11,5.51,1.12,-1.13,-1.48,-1.40,4.38,4.38,4.40
90.76,5.50,1.16,5.50,1.17,-1.18,-1.53,-1.47,4.32,4.33,4.34
91.66,5.50,1.23,5.50,1.23,-1.24,-1.59,-1.55,4.26,4.27,4.27
92.58,5.52,1.30,5.52,1.30,-1.31,-1.64,-1.62,4.21,4.21,4.22
93.51,5.54,1.37,5.54,1.38,-1.39,-1.70,-1.69,4.15,4.15,4.17
94.44,5.58,1.47,5.58,1.47,-1.48,-1.75,-1.77,4.10,4.10,4.11
95.39,5.61,1.57,5.61,1.57,-1.57,-1.81,-1.84,4.04,4.04,4.04
96.34,5.65,1.68,5.65,1.68,-1.67,-1.86,-1.92,3.98,3.97,3.97
97.30,5.68,1.77,5.68,1.78,-1.77,-1.92,-2.00,3.91,3.91,3.91
98.28,5.71,1.87,5.71,1.88,-1.87,-1.97,-2.08,3.84,3.85,3.84
99.26,5.75,1.97,5.74,1.97,-1.96,-2.02,-2.15,3.79,3.78,3.78
100.25,5.77,2.05,5.77,2.05,-2.05,-2.08,-2.23,3.72,3.72,3.72
101.25,5.80,2.13,5.80,2.14,-2.14,-2.13,-2.31,3.66,3.66,3.67
102.27,5.82,2.21,5.82,2.21,-2.21,-2.19,-2.39,3.61,3.61,3.61
103.29,5.84,2.29,5.84,2.29,-2.29,-2.24,-2.47,3.55,3.55,3.55
104.32,5.85,2.35,5.85,2.36,-2.35,-2.30,-2.55,3.50,3.50,3.50
105.37,5.86,2.42,5.86,2.42,-2.41,-2.35,-2.63,3.45,3.44,3.44
106.42,5.86,2.47,5.86,2.47,-2.47,-2.40,-2.70,3.39,3.39,3.39
107.48,5.85,2.52,5.85,2.52,-2.53,-2.46,-2.78,3.32,3.33,3.33
108.56,5.85,2.57,5.85,2.57,-2.58,-2.51,-2.86,3.27,3.27,3.28
109.64,5.84,2.62,5.84,2.63,-2.63,-2.57,-2.93,3.21,3.21,3.22
110.74,5.84,2.68,5.84,2.68,-2.69,-2.62,-3.00,3.15,3.15,3.16
111.85,5.84,2.74,5.84,2.74,-2.74,-2.67,-3.07,3.10,3.09,3.10
112.97,5.84,2.79,5.84,2.80,-2.80,-2.73,-3.14,3.04,3.04,3.05
114.10,5.84,2.85,5.84,2.86,-2.86,-2.78,-3.21,2.98,2.98,2.99
115.24,5.84,2.93,5.84,2.93,-2.92,-2.83,-3.27,2.92,2.92,2.91
116.39,5.84,2.99,5.84,2.99,-2.99,-2.88,-3.33,2.85,2.85,2.85
117.55,5.84,3.05,5.84,3.05,-3.05,-2.94,-3.38,2.79,2.79,2.79
118.73,5.84,3.11,5.84,3.11,-3.11,-2.99,-3.44,2.73,2.73,2.73
119.92,5.84,3.15,5.84,3.16,-3.17,-3.04,-3.48,2.67,2.68,2.69
121.12,5.85,3.21,5.85,3.22,-3.22,-3.09,-3.53,2.63,2.63,2.64
122.33,5.86,3.28,5.86,3.28,-3.28,-3.14,-3.57,2.58,2.58,2.58
123.55,5.86,3.33,5.86,3.33,-3.33,-3.19,-3.60,2.53,2.53,2.53
124.79,5.86,3.38,5.86,3.38,-3.38,-3.24,-3.63,2.48,2.48,2.48
126.03,5.85,3.43,5.85,3.43,-3.43,-3.29,-3.66,2.42,2.42,2.42
127.29,5.84,3.47,5.84,3.48,-3.47,-3.34,-3.68,2.37,2.36,2.37
128.57,5.82,3.52,5.82,3.52,-3.51,-3.38,-3.70,2.31,2.30,2.30
129.85,5.79,3.54,5.79,3.55,-3.55,-3.43,-3.71,2.24,2.25,2.25
131.15,5.77,3.58,5.77,3.58,-3.58,-3.48,-3.72,2.19,2.19,2.19
132.46,5.74,3.60,5.74,3.61,-3.60,-3.52,-3.73,2.14,2.14,2.14
133.79,5.71,3.63,5.71,3.63,-3.63,-3.57,-3.73,2.08,2.08,2.08
135.12,5.67,3.64,5.67,3.64,-3.65,-3.62,-3.73,2.02,2.02,2.03
136.48,5.64,3.66,5.64,3.67,-3.67,-3.66,-3.72,1.97,1.97,1.98
137.84,5.61,3.68,5.61,3.69,-3.70,-3.70,-3.72,1.91,1.91,1.93
139.22,5.59,3.72,5.59,3.72,-3.72,-3.75,-3.71,1.87,1.87,1.87
140.61,5.57,3.74,5.57,3.75,-3.75,-3.79,-3.70,1.82,1.82,1.83
142.02,5.56,3.79,5.56,3.78,-3.78,-3.83,-3.69,1.78,1.78,1.77
143.44,5.54,3.81,5.54,3.81,-3.81,-3.87,-3.67,1.73,1.73,1.73
144.87,5.52,3.83,5.52,3.84,-3.84,-3.91,-3.66,1.68,1.68,1.69
146.32,5.50,3.86,5.50,3.86,-3.86,-3.95,-3.64,1.64,1.64,1.64
147.78,5.48,3.88,5.48,3.89,-3.89,-3.99,-3.63,1.59,1.59,1.60
149.26,5.46,3.91,5.46,3.91,-3.91,-4.02,-3.61,1.55,1.55,1.55
150.75,5.44,3.93,5.44,3.93,-3.93,-4.06,-3.60,1.51,1.51,1.51
152.26,5.42,3.95,5.42,3.95,-3.95,-4.09,-3.59,1.47,1.47,1.47
153.78,5.40,3.97,5.39,3.97,-3.97,-4.13,-3.58,1.43,1.43,1.43
155.32,5.36,3.97,5.36,3.98,-3.99,-4.16,-3.56,1.37,1.38,1.39
156.88,5.33,3.99,5.33,4.00,-4.00,-4.19,-3.56,1.33,1.33,1.34
158.44,5.31,4.02,5.31,4.02,-4.02,-4.22,-3.55,1.29,1.29,1.29
160.03,5.29,4.04,5.29,4.04,-4.04,-4.25,-3.54,1.25,1.25,1.25
161.63,5.27,4.06,5.27,4.06,-4.06,-4.28,-3.54,1.21,1.21,1.21
163.24,5.24,4.08,5.24,4.09,-4.08,-4.31,-3.54,1.16,1.16,1.16
164.88,5.22,4.11,5.22,4.11,-4.10,-4.33,-3.54,1.12,1.11,1.11
166.53,5.19,4.13,5.19,4.13,-4.13,-4.36,-3.54,1.06,1.06,1.06
168.19,5.16,4.13,5.16,4.14,-4.15,-4.38,-3.55,1.01,1.01,1.03
169.87,5.13,4.16,5.13,4.16,-4.17,-4.40,-3.56,0.96,0.96,0.97
171.57,5.11,4.19,5.11,4.19,-4.19,-4.43,-3.57,0.92,0.92,0.92
173.29,5.09,4.21,5.09,4.22,-4.21,-4.44,-3.58,0.88,0.88,0.88
175.02,5.07,4.24,5.07,4.24,-4.23,-4.46,-3.60,0.84,0.83,0.83
176.77,5.04,4.26,5.04,4.26,-4.25,-4.48,-3.62,0.79,0.79,0.78
178.54,5.01,4.27,5.01,4.28,-4.28,-4.50,-3.64,0.73,0.73,0.74
180.32,4.98,4.30,4.98,4.29,-4.30,-4.51,-3.67,0.68,0.68,0.68
182.13,4.95,4.30,4.95,4.31,-4.32,-4.52,-3.70,0.63,0.63,0.65
183.95,4.93,4.33,4.93,4.34,-4.34,-4.53,-3.73,0.59,0.59,0.60
185.79,4.92,4.37,4.92,4.36,-4.36,-4.54,-3.76,0.56,0.55,0.55
187.65,4.90,4.39,4.90,4.39,-4.39,-4.55,-3.80,0.51,0.51,0.51
189.52,4.88,4.41,4.88,4.41,-4.41,-4.56,-3.84,0.47,0.47,0.47
191.42,4.86,4.43,4.86,4.43,-4.44,-4.57,-3.88,0.42,0.42,0.43
193.33,4.84,4.45,4.84,4.46,-4.46,-4.57,-3.92,0.38,0.38,0.39
195.27,4.82,4.48,4.82,4.48,-4.48,-4.58,-3.97,0.34,0.34,0.34
197.22,4.80,4.51,4.80,4.51,-4.50,-4.58,-4.02,0.30,0.30,0.29
199.19,4.78,4.52,4.78,4.53,-4.52,-4.58,-4.07,0.26,0.26,0.26
201.18,4.76,4.54,4.76,4.54,-4.53,-4.58,-4.12,0.23,0.22,0.22
203.19,4.73,4.54,4.73,4.54,-4.54,-4.57,-4.17,0.19,0.19,0.19
205.23,4.70,4.53,4.70,4.54,-4.55,-4.57,-4.22,0.15,0.15,0.17
207.28,4.68,4.54,4.68,4.55,-4.55,-4.57,-4.28,0.13,0.13,0.14
209.35,4.66,4.56,4.66,4.56,-4.55,-4.56,-4.34,0.11,0.10,0.10
211.44,4.63,4.56,4.63,4.56,-4.55,-4.55,-4.39,0.08,0.08,0.07
213.56,4.60,4.55,4.60,4.56,-4.55,-4.54,-4.45,0.05,0.05,0.05
215.69,4.56,4.54,4.56,4.55,-4.55,-4.53,-4.50,0.01,0.02,0.02
217.85,4.53,4.54,4.53,4.54,-4.54,-4.52,-4.55,-0.01,-0.02,-0.01
220.03,4.49,4.53,4.49,4.53,-4.54,-4.51,-4.61,-0.05,-0.05,-0.04
222.23,4.46,4.53,4.46,4.53,-4.53,-4.50,-4.66,-0.07,-0.07,-0.07
224.45,4.43,4.51,4.43,4.52,-4.53,-4.48,-4.70,-0.10,-0.10,-0.08
226.70,4.41,4.52,4.41,4.52,-4.52,-4.47,-4.75,-0.11,-0.11,-0.11
228.96,4.39,4.51,4.39,4.52,-4.52,-4.45,-4.79,-0.13,-0.13,-0.12
231.25,4.37,4.51,4.37,4.51,-4.51,-4.43,-4.82,-0.14,-0.14,-0.14
233.57,4.35,4.51,4.35,4.51,-4.50,-4.41,-4.86,-0.15,-0.15,-0.16
235.90,4.32,4.49,4.32,4.50,-4.49,-4.39,-4.88,-0.17,-0.17,-0.17
238.26,4.28,4.48,4.28,4.48,-4.47,-4.37,-4.90,-0.19,-0.18,-0.20
240.64,4.25,4.44,4.25,4.45,-4.45,-4.34,-4.92,-0.20,-0.20,-0.19
243.05,4.21,4.42,4.21,4.42,-4.42,-4.32,-4.93,-0.21,-0.21,-0.21
245.48,4.17,4.39,4.17,4.39,-4.40,-4.30,-4.93,-0.23,-0.23,-0.22
247.93,4.13,4.36,4.13,4.36,-4.37,-4.27,-4.93,-0.24,-0.24,-0.23
250.41,4.10,4.32,4.10,4.33,-4.35,-4.24,-4.92,-0.25,-0.25,-0.22
252.92,4.08,4.31,4.08,4.32,-4.33,-4.22,-4.91,-0.25,-0.24,-0.23
255.45,4.07,4.31,4.07,4.31,-4.30,-4.19,-4.88,-0.23,-0.23,-0.24
258.00,4.05,4.29,4.05,4.29,-4.27,-4.16,-4.86,-0.22,-0.23,-0.24
260.58,4.02,4.26,4.02,4.26,-4.24,-4.13,-4.82,-0.22,-0.23,-0.24
263.19,3.98,4.22,3.98,4.23,-4.21,-4.10,-4.78,-0.23,-0.24,-0.24
265.82,3.93,4.18,3.93,4.18,-4.18,-4.07,-4.73,-0.25,-0.25,-0.25
268.48,3.89,4.14,3.89,4.14,-4.15,-4.04,-4.68,-0.26,-0.26,-0.25
271.16,3.84,4.09,3.85,4.10,-4.11,-4.00,-4.62,-0.28,-0.27,-0.25
273.87,3.81,4.06,3.81,4.06,-4.08,-3.97,-4.56,-0.27,-0.27,-0.25
276.61,3.78,4.03,3.78,4.04,-4.05,-3.94,-4.50,-0.27,-0.27,-0.25
279.38,3.75,4.02,3.75,4.02,-4.01,-3.90,-4.43,-0.26,-0.26,-0.27
282.17,3.72,3.99,3.72,3.99,-3.98,-3.87,-4.35,-0.26,-0.26,-0.27
284.99,3.69,3.95,3.69,3.95,-3.94,-3.83,-4.28,-0.25,-0.25,-0.26
287.84,3.65,3.90,3.65,3.91,-3.90,-3.79,-4.20,-0.25,-0.25,-0.25
290.72,3.61,3.87,3.61,3.86,-3.86,-3.76,-4.12,-0.25,-0.25,-0.26
293.63,3.56,3.81,3.56,3.81,-3.81,-3.72,-4.04,-0.25,-0.25,-0.25
296.57,3.51,3.75,3.51,3.76,-3.77,-3.68,-3.96,-0.26,-0.25,-0.24
299.53,3.47,3.71,3.47,3.71,-3.72,-3.65,-3.88,-0.25,-0.25,-0.24
302.53,3.43,3.65,3.43,3.66,-3.68,-3.61,-3.79,-0.25,-0.25,-0.22
305.55,3.40,3.63,3.40,3.63,-3.64,-3.57,-3.71,-0.24,-0.24,-0.23
308.61,3.38,3.60,3.38,3.60,-3.60,-3.53,-3.63,-0.22,-0.22,-0.22
311.69,3.36,3.57,3.36,3.58,-3.56,-3.49,-3.55,-0.20,-0.21,-0.21
314.81,3.33,3.54,3.33,3.54,-3.53,-3.45,-3.46,-0.20,-0.20,-0.21
317.96,3.30,3.50,3.30,3.50,-3.49,-3.41,-3.39,-0.19,-0.19,-0.20
321.14,3.26,3.45,3.26,3.45,-3.45,-3.37,-3.31,-0.19,-0.19,-0.19
324.35,3.22,3.41,3.22,3.41,-3.42,-3.33,-3.23,-0.20,-0.19,-0.19
327.59,3.19,3.35,3.19,3.36,-3.38,-3.29,-3.15,-0.19,-0.19,-0.16
330.87,3.16,3.33,3.16,3.33,-3.33,-3.25,-3.08,-0.17,-0.18,-0.17
334.18,3.12,3.28,3.12,3.29,-3.29,-3.21,-3.01,-0.17,-0.16,-0.16
337.52,3.09,3.25,3.09,3.25,-3.24,-3.17,-2.94,-0.15,-0.15,-0.16
340.90,3.06,3.20,3.06,3.20,-3.19,-3.13,-2.87,-0.13,-0.14,-0.14
344.30,3.02,3.15,3.02,3.16,-3.15,-3.09,-2.80,-0.13,-0.13,-0.13
347.75,2.97,3.10,2.97,3.10,-3.10,-3.05,-2.74,-0.13,-0.13,-0.13
351.23,2.92,3.05,2.92,3.04,-3.04,-3.00,-2.68,-0.12,-0.13,-0.13
354.74,2.86,2.96,2.87,2.98,-2.99,-2.96,-2.62,-0.13,-0.13,-0.10
358.28,2.82,2.93,2.82,2.93,-2.94,-2.92,-2.56,-0.12,-0.12,-0.11
361.87,2.79,2.89,2.78,2.88,-2.89,-2.88,-2.50,-0.10,-0.10,-0.10
365.49,2.75,2.84,2.75,2.84,-2.84,-2.84,-2.45,-0.09,-0.09,-0.09
369.14,2.71,2.78,2.71,2.79,-2.79,-2.80,-2.40,-0.08,-0.08,-0.07
372.83,2.67,2.74,2.67,2.75,-2.75,-2.76,-2.35,-0.08,-0.07,-0.07
376.56,2.64,2.71,2.64,2.70,-2.70,-2.72,-2.30,-0.06,-0.07,-0.07
380.33,2.60,2.66,2.60,2.66,-2.66,-2.67,-2.25,-0.06,-0.06,-0.06
384.13,2.56,2.60,2.56,2.62,-2.62,-2.63,-2.21,-0.06,-0.05,-0.04
387.97,2.53,2.57,2.53,2.57,-2.57,-2.59,-2.17,-0.04,-0.04,-0.04
391.85,2.50,2.53,2.50,2.53,-2.53,-2.55,-2.12,-0.03,-0.03,-0.03
395.77,2.46,2.48,2.46,2.49,-2.48,-2.51,-2.09,-0.02,-0.02,-0.02
399.73,2.43,2.44,2.43,2.44,-2.44,-2.47,-2.05,-0.01,-0.01,-0.01
403.72,2.40,2.38,2.40,2.39,-2.39,-2.43,-2.01,0.01,0.01,0.02
407.76,2.36,2.35,2.36,2.34,-2.34,-2.39,-1.98,0.02,0.02,0.01
411.84,2.31,2.29,2.31,2.29,-2.29,-2.34,-1.94,0.02,0.02,0.02
415.96,2.26,2.22,2.26,2.24,-2.23,-2.30,-1.91,0.03,0.03,0.04
420.12,2.22,2.18,2.22,2.18,-2.18,-2.26,-1.88,0.04,0.04,0.04
424.32,2.18,2.13,2.18,2.13,-2.13,-2.22,-1.85,0.05,0.04,0.05
428.56,2.14,2.07,2.14,2.08,-2.09,-2.18,-1.82,0.05,0.05,0.07
432.85,2.10,2.02,2.10,2.03,-2.04,-2.14,-1.79,0.06,0.06,0.08
437.18,2.06,1.99,2.06,1.99,-1.99,-2.10,-1.76,0.07,0.07,0.07
441.55,2.03,1.95,2.03,1.95,-1.94,-2.06,-1.73,0.09,0.09,0.08
445.96,2.00,1.91,2.00,1.91,-1.89,-2.02,-1.71,0.11,0.10,0.09
450.42,1.96,1.86,1.96,1.86,-1.85,-1.98,-1.68,0.11,0.11,0.10
454.93,1.91,1.80,1.91,1.80,-1.80,-1.93,-1.65,0.11,0.11,0.11
459.48,1.86,1.74,1.86,1.74,-1.75,-1.89,-1.63,0.11,0.11,0.12
464.07,1.82,1.68,1.82,1.69,-1.71,-1.85,-1.60,0.11,0.11,0.14
468.71,1.79,1.64,1.79,1.65,-1.67,-1.81,-1.57,0.12,0.13,0.15
473.40,1.77,1.62,1.77,1.62,-1.62,-1.77,-1.55,0.15,0.14,0.15
478.13,1.74,1.58,1.74,1.59,-1.58,-1.73,-1.52,0.16,0.16,0.16
482.91,1.72,1.55,1.72,1.55,-1.54,-1.69,-1.49,0.18,0.18,0.17
487.74,1.69,1.51,1.69,1.51,-1.49,-1.65,-1.47,0.20,0.19,0.18
492.62,1.65,1.46,1.65,1.46,-1.45,-1.61,-1.44,0.20,0.20,0.19
497.55,1.60,1.40,1.60,1.41,-1.40,-1.56,-1.41,0.20,0.20,0.20
502.52,1.56,1.35,1.56,1.35,-1.36,-1.52,-1.38,0.20,0.20,0.21
507.55,1.52,1.29,1.52,1.30,-1.31,-1.48,-1.35,0.21,0.21,0.23
512.62,1.49,1.25,1.49,1.25,-1.27,-1.44,-1.32,0.22,0.22,0.24
517.75,1.47,1.21,1.47,1.21,-1.23,-1.40,-1.29,0.24,0.24,0.26
522.93,1.45,1.18,1.45,1.18,-1.19,-1.36,-1.26,0.26,0.27,0.27
528.16,1.43,1.15,1.43,1.15,-1.14,-1.31,-1.22,0.29,0.29,0.28
533.44,1.41,1.12,1.41,1.12,-1.10,-1.27,-1.19,0.31,0.30,0.29
538.77,1.37,1.07,1.37,1.07,-1.06,-1.23,-1.16,0.31,0.31,0.30
