frequency,raw,error,smoothed,error_smoothed,equalization,parametric_eq,fixed_band_eq,equalized_raw,equalized_smoothed,target
20.00,7.90,0.45,7.90,0.45,-0.45,-0.86,-0.78,7.45,7.45,7.45
20.20,7.94,0.50,7.94,0.50,-0.50,-0.88,-0.80,7.45,7.44,7.44
20.40,7.97,0.54,7.98,0.54,-0.54,-0.90,-0.82,7.43,7.43,7.43
20.61,8.01,0.59,8.01,0.59,-0.59,-0.91,-0.84,7.42,7.42,7.42
20.81,8.04,0.64,8.04,0.64,-0.63,-0.93,-0.86,7.41,7.41,7.40
21.02,8.08,0.69,8.08,0.68,-0.68,-0.95,-0.89,7.40,7.40,7.39
21.23,8.11,0.73,8.12,0.73,-0.72,-0.97,-0.91,7.39,7.39,7.38
21.44,8.15,0.76,8.15,0.76,-0.77,-0.99,-0.94,7.39,7.38,7.39
21.66,8.18,0.81,8.18,0.80,-0.81,-1.01,-0.96,7.37,7.37,7.37
21.87,8.21,0.84,8.22,0.85,-0.86,-1.03,-0.99,7.36,7.36,7.37
22.09,8.25,0.90,8.25,0.89,-0.90,-1.05,-1.02,7.35,7.35,7.35
22.31,8.28,0.94,8.29,0.94,-0.94,-1.07,-1.04,7.34,7.35,7.34
22.54,8.32,0.99,8.33,0.99,-0.98,-1.10,-1.07,7.34,7.35,7.33
22.76,8.36,1.03,8.36,1.03,-1.02,-1.12,-1.10,7.35,7.34,7.33
22.99,8.39,1.07,8.39,1.06,-1.05,-1.14,-1.13,7.34,7.34,7.32
23.22,8.41,1.10,8.41,1.09,-1.09,-1.16,-1.16,7.32,7.32,7.31
23.45,8.43,1.11,8.44,1.12,-1.13,-1.19,-1.19,7.31,7.31,7.32
23.69,8.46,1.15,8.46,1.15,-1.16,-1.21,-1.22,7.30,7.30,7.31
23.92,8.50,1.20,8.50,1.19,-1.20,-1.24,-1.26,7.30,7.30,7.30
24.16,8.54,1.23,8.55,1.24,-1.24,-1.26,-1.29,7.30,7.30,7.31
24.40,8.59,1.28,8.59,1.28,-1.29,-1.29,-1.32,7.31,7.31,7.31
24.65,8.64,1.34,8.64,1.33,-1.33,-1.31,-1.36,7.31,7.31,7.30
24.89,8.68,1.38,8.68,1.38,-1.37,-1.34,-1.39,7.31,7.31,7.30
25.14,8.72,1.43,8.72,1.43,-1.41,-1.36,-1.43,7.31,7.31,7.29
25.39,8.75,1.46,8.75,1.46,-1.45,-1.39,-1.46,7.31,7.31,7.29
25.65,8.78,1.49,8.78,1.49,-1.48,-1.42,-1.50,7.30,7.30,7.29
25.91,8.80,1.51,8.81,1.51,-1.51,-1.45,-1.53,7.29,7.29,7.29
26.16,8.83,1.53,8.83,1.54,-1.55,-1.47,-1.57,7.29,7.29,7.30
26.43,8.86,1.57,8.86,1.57,-1.58,-1.50,-1.61,7.28,7.28,7.29
26.69,8.90,1.61,8.90,1.61,-1.61,-1.53,-1.64,7.29,7.29,7.29
26.96,8.94,1.65,8.94,1.65,-1.65,-1.56,-1.68,7.29,7.29,7.29
27.23,8.98,1.69,8.98,1.69,-1.69,-1.59,-1.72,7.30,7.30,7.29
27.50,9.02,1.73,9.02,1.73,-1.72,-1.62,-1.75,7.30,7.30,7.29
27.77,9.06,1.76,9.06,1.76,-1.75,-1.65,-1.79,7.31,7.31,7.30
28.05,9.09,1.80,9.09,1.79,-1.78,-1.68,-1.82,7.31,7.31,7.29
28.33,9.11,1.81,9.12,1.81,-1.81,-1.71,-1.85,7.30,7.31,7.30
28.62,9.13,1.83,9.14,1.83,-1.83,-1.75,-1.89,7.30,7.30,7.30
28.90,9.16,1.85,9.16,1.85,-1.86,-1.78,-1.92,7.31,7.30,7.31
29.19,9.18,1.87,9.18,1.87,-1.88,-1.81,-1.95,7.31,7.31,7.31
29.48,9.20,1.90,9.20,1.89,-1.90,-1.84,-1.98,7.31,7.31,7.30
29.78,9.22,1.92,9.22,1.92,-1.92,-1.88,-2.01,7.31,7.31,7.30
30.08,9.23,1.93,9.24,1.94,-1.93,-1.91,-2.04,7.30,7.30,7.30
30.38,9.25,1.97,9.25,1.96,-1.95,-1.94,-2.06,7.30,7.30,7.28
30.68,9.26,1.98,9.26,1.98,-1.97,-1.98,-2.09,7.29,7.29,7.28
30.99,9.28,2.00,9.28,2.00,-2.00,-2.01,-2.11,7.29,7.28,7.28
31.30,9.29,2.01,9.30,2.02,-2.02,-2.04,-2.14,7.27,7.28,7.28
31.61,9.31,2.04,9.31,2.04,-2.05,-2.08,-2.16,7.27,7.27,7.27
31.93,9.33,2.08,9.33,2.07,-2.07,-2.11,-2.18,7.26,7.26,7.25
32.24,9.35,2.09,9.36,2.10,-2.11,-2.14,-2.20,7.25,7.25,7.26
32.57,9.38,2.14,9.39,2.14,-2.14,-2.18,-2.21,7.24,7.25,7.24
32.89,9.42,2.18,9.42,2.18,-2.18,-2.21,-2.23,7.25,7.24,7.24
33.22,9.45,2.22,9.45,2.22,-2.22,-2.25,-2.25,7.24,7.24,7.23
33.55,9.48,2.25,9.48,2.25,-2.25,-2.28,-2.26,7.23,7.23,7.23
33.89,9.51,2.29,9.51,2.29,-2.29,-2.31,-2.27,7.22,7.22,7.22
34.23,9.53,2.33,9.53,2.33,-2.32,-2.35,-2.29,7.21,7.22,7.20
34.57,9.55,2.35,9.56,2.35,-2.35,-2.38,-2.30,7.21,7.21,7.20
34.92,9.57,2.39,9.57,2.38,-2.37,-2.41,-2.31,7.21,7.20,7.18
35.27,9.58,2.38,9.58,2.39,-2.38,-2.45,-2.33,7.20,7.20,7.20
35.62,9.58,2.41,9.58,2.40,-2.40,-2.48,-2.34,7.19,7.19,7.17
35.97,9.58,2.41,9.58,2.41,-2.41,-2.51,-2.35,7.17,7.17,7.17
36.33,9.56,2.41,9.57,2.42,-2.42,-2.55,-2.37,7.14,7.15,7.15
36.70,9.56,2.43,9.56,2.43,-2.44,-2.58,-2.38,7.13,7.13,7.13
37.06,9.56,2.45,9.56,2.45,-2.46,-2.61,-2.39,7.11,7.11,7.11
37.43,9.57,2.48,9.58,2.48,-2.48,-2.64,-2.41,7.09,7.09,7.09
37.81,9.59,2.51,9.59,2.51,-2.51,-2.67,-2.43,7.08,7.08,7.08
38.19,9.61,2.56,9.61,2.55,-2.55,-2.71,-2.44,7.06,7.06,7.05
38.57,9.63,2.60,9.64,2.60,-2.60,-2.74,-2.46,7.03,7.04,7.03
38.95,9.66,2.64,9.66,2.65,-2.65,-2.77,-2.48,7.01,7.01,7.02
39.34,9.69,2.70,9.69,2.70,-2.70,-2.80,-2.50,6.99,6.99,6.99
39.74,9.72,2.76,9.73,2.76,-2.76,-2.83,-2.53,6.97,6.97,6.96
40.14,9.76,2.82,9.76,2.82,-2.81,-2.86,-2.55,6.95,6.95,6.94
40.54,9.79,2.87,9.79,2.87,-2.86,-2.89,-2.58,6.93,6.93,6.92
40.94,9.82,2.93,9.82,2.92,-2.92,-2.92,-2.60,6.91,6.91,6.89
41.35,9.84,2.96,9.85,2.97,-2.97,-2.95,-2.63,6.88,6.88,6.88
41.76,9.87,3.02,9.87,3.01,-3.01,-2.98,-2.67,6.86,6.86,6.85
42.18,9.89,3.05,9.89,3.05,-3.05,-3.01,-2.70,6.84,6.84,6.84
42.60,9.90,3.09,9.91,3.09,-3.09,-3.04,-2.74,6.81,6.82,6.81
43.03,9.92,3.13,9.92,3.13,-3.12,-3.08,-2.77,6.80,6.80,6.79
43.46,9.92,3.17,9.92,3.16,-3.15,-3.11,-2.81,6.77,6.77,6.75
43.90,9.92,3.19,9.92,3.19,-3.18,-3.14,-2.85,6.74,6.74,6.73
44.33,9.91,3.21,9.91,3.20,-3.21,-3.17,-2.90,6.71,6.71,6.70
44.78,9.90,3.22,9.91,3.22,-3.23,-3.20,-2.94,6.67,6.67,6.68
45.23,9.90,3.24,9.90,3.25,-3.26,-3.23,-2.99,6.64,6.64,6.66
45.68,9.90,3.29,9.90,3.28,-3.29,-3.26,-3.04,6.62,6.61,6.61
46.13,9.90,3.32,9.90,3.32,-3.32,-3.29,-3.10,6.58,6.58,6.58
46.60,9.90,3.36,9.90,3.36,-3.35,-3.33,-3.15,6.55,6.55,6.54
47.06,9.90,3.39,9.90,3.39,-3.39,-3.36,-3.21,6.51,6.51,6.51
47.53,9.90,3.43,9.90,3.43,-3.43,-3.39,-3.27,6.47,6.47,6.47
48.01,9.90,3.48,9.90,3.48,-3.48,-3.43,-3.33,6.43,6.43,6.42
48.49,9.90,3.52,9.90,3.52,-3.52,-3.46,-3.39,6.38,6.38,6.38
48.97,9.90,3.57,9.90,3.56,-3.56,-3.49,-3.45,6.34,6.34,6.33
49.46,9.90,3.60,9.90,3.61,-3.60,-3.53,-3.52,6.30,6.30,6.30
49.96,9.90,3.66,9.90,3.65,-3.65,-3.56,-3.59,6.26,6.26,6.24
50.46,9.90,3.69,9.90,3.69,-3.69,-3.60,-3.65,6.21,6.21,6.21
50.96,9.90,3.73,9.90,3.73,-3.73,-3.63,-3.72,6.17,6.17,6.17
51.47,9.90,3.77,9.90,3.77,-3.77,-3.67,-3.79,6.13,6.13,6.13
51.99,9.90,3.82,9.90,3.81,-3.82,-3.71,-3.87,6.09,6.09,6.08
52.51,9.90,3.85,9.91,3.85,-3.86,-3.74,-3.94,6.04,6.05,6.05
53.03,9.91,3.89,9.91,3.90,-3.90,-3.78,-4.01,6.01,6.01,6.02
53.56,9.92,3.95,9.92,3.94,-3.95,-3.82,-4.08,5.98,5.97,5.97
54.10,9.92,4.00,9.92,3.99,-3.98,-3.86,-4.15,5.94,5.94,5.92
54.64,9.91,4.03,9.92,4.03,-4.02,-3.90,-4.22,5.89,5.90,5.88
55.18,9.90,4.06,9.90,4.06,-4.05,-3.93,-4.29,5.85,5.85,5.84
55.74,9.88,4.09,9.88,4.08,-4.07,-3.97,-4.36,5.81,5.81,5.79
56.29,9.86,4.09,9.86,4.09,-4.09,-4.01,-4.43,5.77,5.77,5.77
56.86,9.83,4.10,9.83,4.11,-4.10,-4.05,-4.49,5.73,5.73,5.73
57.42,9.80,4.12,9.80,4.11,-4.11,-4.09,-4.55,5.69,5.69,5.68
58.00,9.77,4.13,9.77,4.12,-4.12,-4.14,-4.61,5.65,5.65,5.64
58.58,9.74,4.13,9.74,4.13,-4.13,-4.18,-4.67,5.61,5.61,5.61
59.16,9.71,4.13,9.71,4.13,-4.14,-4.22,-4.72,5.57,5.57,5.58
59.76,9.68,4.15,9.68,4.15,-4.16,-4.26,-4.77,5.53,5.52,5.53
60.35,9.65,4.17,9.65,4.17,-4.18,-4.30,-4.82,5.47,5.47,5.48
60.96,9.62,4.20,9.63,4.20,-4.20,-4.35,-4.86,5.42,5.42,5.42
61.57,9.60,4.24,9.60,4.24,-4.24,-4.39,-4.90,5.37,5.37,5.36
62.18,9.58,4.28,9.58,4.28,-4.27,-4.43,-4.93,5.31,5.31,5.30
62.80,9.56,4.32,9.57,4.32,-4.32,-4.48,-4.96,5.25,5.25,5.24
63.43,9.55,4.36,9.55,4.36,-4.36,-4.52,-4.98,5.19,5.19,5.19
64.07,9.55,4.41,9.55,4.41,-4.41,-4.57,-5.00,5.14,5.14,5.14
64.71,9.55,4.46,9.56,4.47,-4.47,-4.61,-5.02,5.09,5.09,5.09
65.35,9.56,4.53,9.56,4.52,-4.52,-4.66,-5.04,5.04,5.04,5.03
66.01,9.57,4.59,9.57,4.58,-4.58,-4.70,-5.04,5.00,4.99,4.98
66.67,9.57,4.63,9.57,4.64,-4.63,-4.75,-5.05,4.94,4.94,4.94
67.33,9.57,4.70,9.57,4.69,-4.69,-4.79,-5.05,4.88,4.89,4.87
68.01,9.57,4.75,9.57,4.75,-4.75,-4.84,-5.06,4.83,4.83,4.82
68.69,9.57,4.80,9.57,4.80,-4.80,-4.88,-5.05,4.77,4.77,4.77
69.37,9.57,4.85,9.57,4.85,-4.86,-4.93,-5.05,4.71,4.71,4.72
70.07,9.57,4.91,9.57,4.91,-4.92,-4.98,-5.05,4.66,4.66,4.66
70.77,9.57,4.98,9.57,4.97,-4.97,-5.02,-5.04,4.60,4.60,4.59
71.48,9.57,5.03,9.57,5.03,-5.03,-5.07,-5.03,4.54,4.54,4.54
72.19,9.57,5.09,9.57,5.09,-5.09,-5.12,-5.03,4.48,4.48,4.48
72.91,9.57,5.16,9.57,5.15,-5.15,-5.16,-5.02,4.42,4.42,4.41
73.64,9.57,5.21,9.57,5.21,-5.21,-5.21,-5.01,4.36,4.36,4.36
74.38,9.57,5.27,9.57,5.27,-5.26,-5.25,-5.01,4.31,4.31,4.30
75.12,9.57,5.32,9.57,5.32,-5.32,-5.30,-5.00,4.25,4.25,4.25
75.87,9.57,5.37,9.57,5.37,-5.37,-5.35,-5.00,4.20,4.20,4.20
76.63,9.57,5.43,9.57,5.42,-5.42,-5.39,-5.00,4.15,4.15,4.14
77.40,9.57,5.47,9.57,5.47,-5.47,-5.44,-5.00,4.10,4.10,4.10
78.17,9.57,5.53,9.57,5.52,-5.52,-5.49,-5.01,4.05,4.05,4.04
78.95,9.57,5.57,9.57,5.57,-5.57,-5.53,-5.01,4.00,4.00,4.00
79.74,9.57,5.62,9.57,5.62,-5.62,-5.58,-5.02,3.95,3.95,3.95
80.54,9.57,5.67,9.57,5.67,-5.68,-5.62,-5.03,3.90,3.90,3.90
81.35,9.57,5.73,9.58,5.72,-5.73,-5.67,-5.05,3.84,3.85,3.84
82.16,9.58,5.77,9.58,5.78,-5.78,-5.71,-5.07,3.80,3.80,3.81
82.98,9.59,5.84,9.59,5.83,-5.84,-5.76,-5.09,3.76,3.75,3.75
83.81,9.59,5.89,9.59,5.89,-5.89,-5.80,-5.11,3.70,3.70,3.70
84.65,9.59,5.95,9.59,5.95,-5.94,-5.85,-5.14,3.65,3.65,3.64
85.50,9.58,6.00,9.58,5.99,-5.99,-5.89,-5.18,3.60,3.60,3.58
86.35,9.57,6.04,9.57,6.04,-6.03,-5.94,-5.21,3.54,3.54,3.53
87.22,9.55,6.07,9.55,6.07,-6.07,-5.98,-5.25,3.48,3.48,3.48
88.09,9.53,6.11,9.53,6.11,-6.10,-6.02,-5.30,3.43,3.43,3.42
88.97,9.50,6.14,9.50,6.13,-6.14,-6.07,-5.35,3.37,3.37,3.36
89.86,9.47,6.16,9.47,6.16,-6.16,-6.11,-5.40,3.31,3.31,3.31
90.76,9.44,6.19,9.44,6.19,-6.19,-6.15,-5.46,3.25,3.25,3.25
91.66,9.41,6.23,9.41,6.22,-6.22,-6.19,-5.52,3.19,3.19,3.18
92.58,9.38,6.25,9.39,6.25,-6.26,-6.24,-5.58,3.13,3.13,3.13
93.51,9.36,6.28,9.36,6.28,-6.29,-6.28,-5.65,3.07,3.07,3.08
94.44,9.34,6.32,9.34,6.32,-6.32,-6.32,-5.72,3.02,3.02,3.02
95.39,9.31,6.36,9.32,6.36,-6.36,-6.36,-5.80,2.95,2.96,2.95
96.34,9.29,6.41,9.29,6.40,-6.40,-6.40,-5.88,2.90,2.89,2.88
97.30,9.26,6.44,9.26,6.44,-6.44,-6.44,-5.96,2.83,2.83,2.82
98.28,9.23,6.48,9.23,6.48,-6.48,-6.47,-6.05,2.76,2.76,2.75
99.26,9.20,6.51,9.21,6.51,-6.52,-6.51,-6.13,2.69,2.69,2.69
100.25,9.18,6.55,9.18,6.55,-6.56,-6.55,-6.23,2.63,2.63,2.63
101.25,9.16,6.58,9.17,6.59,-6.59,-6.59,-6.32,2.57,2.57,2.58
102.27,9.15,6.63,9.15,6.63,-6.63,-6.62,-6.42,2.53,2.53,2.52
103.29,9.13,6.67,9.13,6.67,-6.66,-6.66,-6.51,2.48,2.48,2.46
104.32,9.11,6.70,9.11,6.70,-6.68,-6.69,-6.61,2.43,2.43,2.41
105.37,9.07,6.72,9.07,6.72,-6.71,-6.73,-6.71,2.37,2.37,2.35
106.42,9.03,6.73,9.03,6.73,-6.72,-6.76,-6.81,2.31,2.31,2.30
107.48,8.98,6.74,8.99,6.74,-6.74,-6.80,-6.91,2.25,2.25,2.24
108.56,8.94,6.75,8.94,6.75,-6.75,-6.83,-7.01,2.19,2.19,2.19
109.64,8.89,6.76,8.89,6.76,-6.76,-6.86,-7.11,2.13,2.13,2.13
110.74,8.84,6.77,8.85,6.77,-6.78,-6.89,-7.21,2.06,2.06,2.07
111.85,8.80,6.79,8.81,6.79,-6.80,-6.92,-7.30,2.00,2.00,2.01
112.97,8.77,6.81,8.77,6.81,-6.83,-6.95,-7.39,1.94,1.94,1.96
114.10,8.75,6.85,8.75,6.85,-6.86,-6.98,-7.48,1.89,1.89,1.90
115.24,8.72,6.90,8.73,6.89,-6.89,-7.01,-7.56,1.84,1.84,1.82
116.39,8.70,6.94,8.70,6.94,-6.92,-7.04,-7.63,1.79,1.79,1.76
117.55,8.67,6.97,8.67,6.97,-6.94,-7.06,-7.70,1.73,1.73,1.70
118.73,8.63,6.99,8.63,6.98,-6.97,-7.09,-7.77,1.67,1.66,1.64
119.92,8.58,6.98,8.59,6.99,-6.99,-7.12,-7.82,1.59,1.60,1.60
121.12,8.54,6.99,8.55,7.00,-7.01,-7.14,-7.87,1.53,1.53,1.55
122.33,8.51,7.02,8.51,7.01,-7.03,-7.16,-7.90,1.48,1.48,1.49
123.55,8.48,7.04,8.49,7.04,-7.05,-7.19,-7.93,1.43,1.43,1.44
124.79,8.46,7.07,8.46,7.07,-7.07,-7.21,-7.95,1.39,1.39,1.39
126.03,8.44,7.11,8.44,7.10,-7.10,-7.23,-7.97,1.35,1.34,1.33
127.29,8.41,7.13,8.41,7.13,-7.12,-7.25,-7.97,1.29,1.29,1.28
128.57,8.37,7.16,8.37,7.16,-7.14,-7.27,-7.96,1.23,1.23,1.21
129.85,8.33,7.17,8.33,7.17,-7.16,-7.29,-7.95,1.17,1.17,1.16
131.15,8.28,7.18,8.28,7.18,-7.18,-7.31,-7.93,1.10,1.10,1.10
132.46,8.23,7.18,8.24,7.18,-7.19,-7.33,-7.89,1.04,1.04,1.05
133.79,8.19,7.20,8.20,7.20,-7.21,-7.34,-7.86,0.98,0.99,0.99
135.12,8.16,7.22,8.16,7.22,-7.22,-7.36,-7.81,0.94,0.94,0.94
136.48,8.13,7.24,8.13,7.24,-7.24,-7.37,-7.76,0.90,0.89,0.89
137.84,8.09,7.25,8.10,7.25,-7.25,-7.39,-7.71,0.84,0.85,0.84
139.22,8.06,7.28,8.06,7.27,-7.26,-7.40,-7.65,0.80,0.80,0.78
140.61,8.02,7.28,8.02,7.29,-7.28,-7.41,-7.59,0.75,0.75,0.74
142.02,7.98,7.30,7.98,7.29,-7.29,-7.42,-7.52,0.70,0.70,0.68
143.44,7.94,7.30,7.94,7.30,-7.30,-7.43,-7.46,0.65,0.64,0.64
144.87,7.89,7.29,7.90,7.30,-7.31,-7.44,-7.39,0.59,0.59,0.60
146.32,7.86,7.31,7.86,7.30,-7.31,-7.45,-7.32,0.55,0.55,0.55
147.78,7.82,7.31,7.83,7.31,-7.32,-7.46,-7.25,0.50,0.51,0.51
149.26,7.79,7.33,7.79,7.33,-7.32,-7.47,-7.18,0.47,0.47,0.46
150.75,7.76,7.34,7.76,7.34,-7.33,-7.47,-7.12,0.43,0.43,0.42
152.26,7.72,7.34,7.73,7.34,-7.33,-7.48,-7.05,0.39,0.39,0.38
153.78,7.69,7.35,7.69,7.34,-7.34,-7.48,-6.99,0.35,0.35,0.34
155.32,7.64,7.34,7.65,7.35,-7.35,-7.49,-6.93,0.30,0.30,0.30
156.88,7.60,7.35,7.60,7.35,-7.35,-7.49,-6.87,0.25,0.25,0.25
158.44,7.56,7.36,7.56,7.35,-7.36,-7.49,-6.82,0.21,0.20,0.20
160.03,7.52,7.36,7.53,7.36,-7.37,-7.49,-6.77,0.16,0.16,0.16
161.63,7.49,7.37,7.49,7.37,-7.37,-7.49,-6.72,0.12,0.12,0.12
163.24,7.45,7.38,7.46,7.38,-7.38,-7.49,-6.68,0.07,0.07,0.07
164.88,7.42,7.40,7.42,7.40,-7.39,-7.49,-6.64,0.03,0.03,0.02
166.53,7.39,7.42,7.39,7.41,-7.41,-7.48,-6.60,-0.01,-0.02,-0.03
168.19,7.35,7.41,7.35,7.42,-7.42,-7.48,-6.57,-0.06,-0.06,-0.06
169.87,7.31,7.43,7.31,7.43,-7.43,-7.48,-6.55,-0.11,-0.11,-0.12
171.57,7.27,7.44,7.27,7.43,-7.43,-7.47,-6.53,-0.16,-0.16,-0.17
173.29,7.23,7.44,7.23,7.44,-7.44,-7.46,-6.51,-0.21,-0.21,-0.21
175.02,7.19,7.45,7.19,7.45,-7.45,-7.46,-6.50,-0.25,-0.26,-0.26
176.77,7.15,7.46,7.15,7.45,-7.45,-7.45,-6.49,-0.30,-0.31,-0.31
178.54,7.10,7.45,7.11,7.46,-7.46,-7.44,-6.49,-0.36,-0.36,-0.35
180.32,7.06,7.47,7.06,7.46,-7.47,-7.43,-6.50,-0.40,-0.40,-0.41
182.13,7.02,7.46,7.03,7.47,-7.47,-7.42,-6.51,-0.45,-0.44,-0.44
183.95,6.99,7.48,6.99,7.48,-7.47,-7.41,-6.52,-0.48,-0.48,-0.49
185.79,6.94,7.48,6.95,7.48,-7.47,-7.39,-6.54,-0.52,-0.52,-0.54
187.65,6.90,7.48,6.90,7.48,-7.47,-7.38,-6.56,-0.56,-0.56,-0.58
189.52,6.85,7.47,6.85,7.46,-7.46,-7.37,-6.59,-0.61,-0.62,-0.62
191.42,6.79,7.45,6.80,7.45,-7.46,-7.35,-6.62,-0.67,-0.67,-0.66
193.33,6.74,7.44,6.74,7.44,-7.46,-7.34,-6.65,-0.72,-0.72,-0.70
195.27,6.69,7.44,6.70,7.44,-7.45,-7.32,-6.69,-0.76,-0.76,-0.75
197.22,6.66,7.46,6.66,7.45,-7.45,-7.30,-6.74,-0.78,-0.79,-0.80
199.19,6.62,7.45,6.62,7.45,-7.44,-7.28,-6.78,-0.81,-0.82,-0.83
201.18,6.58,7.45,6.58,7.44,-7.43,-7.26,-6.83,-0.84,-0.85,-0.87
203.19,6.53,7.43,6.53,7.42,-7.42,-7.24,-6.89,-0.88,-0.88,-0.90
205.23,6.48,7.40,6.48,7.40,-7.40,-7.22,-6.94,-0.92,-0.92,-0.92
207.28,6.43,7.38,6.43,7.38,-7.39,-7.20,-7.00,-0.96,-0.96,-0.95
209.35,6.38,7.37,6.38,7.36,-7.38,-7.18,-7.06,-0.99,-0.99,-0.99
211.44,6.33,7.35,6.34,7.35,-7.36,-7.15,-7.12,-1.03,-1.02,-1.02
213.56,6.30,7.34,6.30,7.34,-7.34,-7.13,-7.18,-1.04,-1.04,-1.04
215.69,6.27,7.34,6.27,7.33,-7.33,-7.11,-7.24,-1.05,-1.06,-1.07
217.85,6.22,7.32,6.23,7.32,-7.31,-7.08,-7.30,-1.09,-1.09,-1.10
220.03,6.18,7.31,6.18,7.31,-7.30,-7.05,-7.36,-1.12,-1.12,-1.13
222.23,6.13,7.29,6.13,7.28,-7.28,-7.03,-7.42,-1.15,-1.15,-1.16
224.45,6.08,7.25,6.09,7.26,-7.27,-7.00,-7.47,-1.18,-1.18,-1.17
226.70,6.04,7.24,6.05,7.24,-7.24,-6.97,-7.52,-1.20,-1.20,-1.20
228.96,6.01,7.22,6.01,7.22,-7.22,-6.94,-7.57,-1.21,-1.21,-1.21
231.25,5.98,7.21,5.98,7.20,-7.20,-6.91,-7.61,-1.21,-1.22,-1.23
233.57,5.93,7.18,5.93,7.18,-7.17,-6.88,-7.64,-1.24,-1.24,-1.25
235.90,5.88,7.14,5.88,7.14,-7.14,-6.85,-7.67,-1.26,-1.26,-1.26
238.26,5.83,7.12,5.83,7.11,-7.11,-6.82,-7.69,-1.28,-1.28,-1.29
240.64,5.78,7.06,5.79,7.07,-7.08,-6.78,-7.71,-1.30,-1.29,-1.28
243.05,5.74,7.04,5.74,7.04,-7.04,-6.75,-7.71,-1.30,-1.30,-1.30
245.48,5.70,7.01,5.70,7.01,-7.00,-6.72,-7.71,-1.30,-1.30,-1.31
247.93,5.66,6.98,5.66,6.97,-6.96,-6.68,-7.70,-1.29,-1.30,-1.32
250.41,5.60,6.91,5.60,6.92,-6.91,-6.65,-7.68,-1.31,-1.31,-1.31
252.92,5.54,6.86,5.55,6.86,-6.86,-6.61,-7.65,-1.32,-1.32,-1.32
255.45,5.48,6.81,5.49,6.81,-6.81,-6.57,-7.61,-1.33,-1.33,-1.33
258.00,5.43,6.76,5.43,6.75,-6.76,-6.54,-7.56,-1.33,-1.33,-1.33
260.58,5.37,6.70,5.38,6.70,-6.71,-6.50,-7.50,-1.33,-1.33,-1.33
263.19,5.32,6.65,5.33,6.65,-6.65,-6.46,-7.44,-1.33,-1.33,-1.33
265.82,5.27,6.61,5.27,6.60,-6.60,-6.42,-7.36,-1.32,-1.33,-1.34
268.48,5.21,6.55,5.21,6.54,-6.54,-6.38,-7.28,-1.33,-1.33,-1.34
271.16,5.14,6.48,5.15,6.49,-6.49,-6.34,-7.20,-1.35,-1.34,-1.34
273.87,5.09,6.43,5.09,6.43,-6.44,-6.30,-7.10,-1.34,-1.35,-1.34
276.61,5.04,6.38,5.04,6.38,-6.38,-6.26,-7.01,-1.34,-1.35,-1.34
279.38,4.98,6.34,4.99,6.34,-6.33,-6.22,-6.90,-1.35,-1.34,-1.36
282.17,4.93,6.29,4.93,6.28,-6.28,-6.18,-6.80,-1.34,-1.34,-1.36
284.99,4.88,6.23,4.88,6.23,-6.22,-6.14,-6.69,-1.34,-1.35,-1.35
287.84,4.82,6.16,4.83,6.17,-6.17,-6.09,-6.58,-1.35,-1.34,-1.34
290.72,4.77,6.12,4.77,6.11,-6.11,-6.05,-6.46,-1.34,-1.34,-1.35
293.63,4.72,6.06,4.72,6.06,-6.06,-6.01,-6.35,-1.33,-1.34,-1.34
296.57,4.67,6.00,4.67,6.00,-6.00,-5.96,-6.23,-1.32,-1.32,-1.33
299.53,4.62,5.95,4.62,5.94,-5.94,-5.92,-6.12,-1.32,-1.32,-1.33
302.53,4.57,5.88,4.57,5.88,-5.88,-5.87,-6.00,-1.31,-1.31,-1.31
305.55,4.51,5.83,4.51,5.82,-5.83,-5.83,-5.89,-1.31,-1.31,-1.32
308.61,4.45,5.76,4.46,5.76,-5.77,-5.78,-5.78,-1.32,-1.31,-1.31
311.69,4.40,5.70,4.41,5.71,-5.71,-5.74,-5.67,-1.31,-1.31,-1.30
314.81,4.36,5.66,4.36,5.66,-5.66,-5.69,-5.56,-1.30,-1.29,-1.30
317.96,4.33,5.62,4.33,5.61,-5.60,-5.65,-5.45,-1.27,-1.28,-1.29
321.14,4.28,5.56,4.29,5.56,-5.55,-5.60,-5.34,-1.27,-1.27,-1.28
324.35,4.24,5.52,4.24,5.50,-5.50,-5.55,-5.24,-1.26,-1.26,-1.28
327.59,4.18,5.43,4.18,5.44,-5.45,-5.51,-5.14,-1.27,-1.27,-1.25
330.87,4.13,5.39,4.14,5.39,-5.40,-5.46,-5.05,-1.27,-1.26,-1.26
334.18,4.09,5.34,4.10,5.34,-5.35,-5.41,-4.95,-1.26,-1.25,-1.25
337.52,4.06,5.31,4.06,5.30,-5.30,-5.36,-4.87,-1.23,-1.23,-1.25
340.90,4.03,5.26,4.03,5.25,-5.25,-5.31,-4.78,-1.21,-1.22,-1.23
344.30,3.98,5.20,3.98,5.21,-5.20,-5.27,-4.70,-1.21,-1.21,-1.22
347.75,3.93,5.15,3.93,5.15,-5.15,-5.22,-4.62,-1.21,-1.21,-1.22
351.23,3.88,5.10,3.88,5.09,-5.10,-5.17,-4.54,-1.21,-1.22,-1.22
354.74,3.83,5.02,3.84,5.04,-5.04,-5.12,-4.47,-1.21,-1.21,-1.19
358.28,3.79,4.99,3.80,4.99,-4.99,-5.07,-4.40,-1.20,-1.19,-1.20
361.87,3.76,4.95,3.76,4.94,-4.93,-5.02,-4.33,-1.17,-1.18,-1.19
365.49,3.71,4.89,3.71,4.89,-4.88,-4.97,-4.27,-1.16,-1.16,-1.18
369.14,3.66,4.82,3.66,4.82,-4.82,-4.92,-4.21,-1.16,-1.16,-1.16
372.83,3.60,4.76,3.60,4.76,-4.76,-4.87,-4.15,-1.16,-1.16,-1.16
376.56,3.54,4.70,3.55,4.70,-4.70,-4.82,-4.10,-1.16,-1.16,-1.16
380.33,3.49,4.64,3.49,4.64,-4.64,-4.77,-4.05,-1.15,-1.15,-1.15
384.13,3.44,4.57,3.45,4.58,-4.58,-4.72,-4.00,-1.14,-1.14,-1.13
387.97,3.40,4.53,3.40,4.52,-4.52,-4.67,-3.96,-1.12,-1.12,-1.13
391.85,3.35,4.47,3.35,4.47,-4.46,-4.62,-3.92,-1.10,-1.10,-1.12
395.77,3.30,4.41,3.30,4.40,-4.40,-4.57,-3.88,-1.09,-1.10,-1.11
399.73,3.24,4.34,3.24,4.33,-4.34,-4.52,-3.84,-1.09,-1.09,-1.10
403.72,3.18,4.25,3.19,4.27,-4.27,-4.47,-3.81,-1.09,-1.09,-1.07
407.76,3.13,4.21,3.13,4.20,-4.21,-4.42,-3.77,-1.08,-1.08,-1.08
411.84,3.08,4.15,3.08,4.14,-4.14,-4.37,-3.74,-1.06,-1.06,-1.07
415.96,3.03,4.08,3.03,4.09,-4.08,-4.32,-3.71,-1.04,-1.04,-1.05
420.12,2.98,4.03,2.98,4.02,-4.01,-4.27,-3.69,-1.02,-1.03,-1.05
424.32,2.92,3.96,2.92,3.95,-3.94,-4.22,-3.66,-1.02,-1.02,-1.04
428.56,2.85,3.87,2.86,3.88,-3.88,-4.17,-3.64,-1.03,-1.03,-1.02
432.85,2.79,3.80,2.79,3.80,-3.82,-4.12,-3.61,-1.03,-1.03,-1.01
437.18,2.73,3.75,2.74,3.75,-3.76,-4.07,-3.59,-1.03,-1.03,-1.02
441.55,2.69,3.70,2.70,3.70,-3.71,-4.02,-3.57,-1.01,-1.01,-1.01
445.96,2.66,3.66,2.66,3.66,-3.65,-3.97,-3.55,-0.99,-0.99,-1.00
450.42,2.63,3.62,2.63,3.61,-3.60,-3.92,-3.53,-0.97,-0.97,-0.99
454.93,2.58,3.56,2.59,3.56,-3.55,-3.87,-3.50,-0.97,-0.97,-0.98
459.48,2.54,3.51,2.54,3.50,-3.50,-3.82,-3.48,-0.96,-0.96,-0.97
464.07,2.50,3.45,2.50,3.45,-3.46,-3.77,-3.46,-0.95,-0.95,-0.95
468.71,2.46,3.40,2.47,3.41,-3.41,-3.72,-3.43,-0.94,-0.94,-0.94
473.40,2.43,3.37,2.43,3.36,-3.36,-3.67,-3.41,-0.92,-0.93,-0.94
478.13,2.39,3.32,2.39,3.31,-3.31,-3.62,-3.38,-0.92,-0.92,-0.93
482.91,2.34,3.26,2.35,3.26,-3.27,-3.57,-3.35,-0.92,-0.92,-0.92
487.74,2.30,3.21,2.31,3.21,-3.23,-3.52,-3.32,-0.92,-0.92,-0.91
492.62,2.28,3.18,2.28,3.18,-3.19,-3.47,-3.29,-0.90,-0.91,-0.90
497.55,2.26,3.15,2.26,3.15,-3.15,-3.42,-3.26,-0.88,-0.88,-0.89
502.52,2.24,3.12,2.24,3.12,-3.11,-3.37,-3.22,-0.86,-0.86,-0.88
507.55,2.22,3.08,2.22,3.08,-3.06,-3.32,-3.18,-0.84,-0.84,-0.86
512.62,2.19,3.04,2.19,3.03,-3.02,-3.27,-3.14,-0.83,-0.83,-0.85
517.75,2.15,2.98,2.15,2.98,-2.98,-3.22,-3.10,-0.83,-0.83,-0.83
