frequency,raw,error,smoothed,error_smoothed,equalization,parametric_eq,fixed_band_eq,equalized_raw,equalized_smoothed,target
20.00,15.87,2.56,15.89,2.57,-2.57,-2.30,-0.87,13.31,13.32,13.32
20.20,15.83,2.53,15.84,2.54,-2.54,-2.30,-0.90,13.30,13.31,13.31
20.40,15.80,2.51,15.80,2.51,-2.51,-2.29,-0.93,13.29,13.29,13.29
20.61,15.76,2.48,15.77,2.48,-2.48,-2.29,-0.96,13.28,13.28,13.28
20.81,15.73,2.47,15.73,2.46,-2.46,-2.29,-0.99,13.27,13.27,13.26
21.02,15.70,2.45,15.70,2.44,-2.44,-2.28,-1.02,13.27,13.26,13.25
21.23,15.67,2.43,15.66,2.42,-2.42,-2.28,-1.05,13.26,13.25,13.24
21.44,15.64,2.39,15.63,2.40,-2.40,-2.27,-1.08,13.25,13.24,13.25
21.66,15.61,2.38,15.61,2.38,-2.38,-2.27,-1.12,13.24,13.23,13.23
21.87,15.59,2.36,15.58,2.36,-2.36,-2.26,-1.15,13.23,13.22,13.23
22.09,15.56,2.36,15.56,2.35,-2.35,-2.26,-1.19,13.22,13.21,13.21
22.31,15.54,2.34,15.54,2.33,-2.33,-2.25,-1.22,13.21,13.20,13.21
22.54,15.52,2.33,15.52,2.32,-2.32,-2.24,-1.26,13.21,13.20,13.20
22.76,15.49,2.30,15.50,2.31,-2.31,-2.23,-1.30,13.19,13.19,13.19
22.99,15.47,2.29,15.48,2.30,-2.30,-2.22,-1.34,13.18,13.19,13.18
23.22,15.45,2.28,15.47,2.29,-2.29,-2.21,-1.38,13.17,13.18,13.17
23.45,15.44,2.26,15.46,2.28,-2.28,-2.20,-1.42,13.16,13.18,13.18
23.69,15.43,2.26,15.45,2.28,-2.28,-2.19,-1.47,13.15,13.17,13.17
23.92,15.43,2.28,15.44,2.28,-2.28,-2.18,-1.51,13.16,13.17,13.16
24.16,15.44,2.28,15.44,2.28,-2.28,-2.17,-1.55,13.16,13.16,13.17
24.40,15.45,2.29,15.44,2.28,-2.28,-2.16,-1.60,13.17,13.16,13.17
24.65,15.45,2.29,15.45,2.29,-2.29,-2.15,-1.64,13.17,13.16,13.16
24.89,15.45,2.29,15.45,2.29,-2.29,-2.14,-1.69,13.16,13.16,13.16
25.14,15.45,2.30,15.46,2.30,-2.30,-2.12,-1.74,13.15,13.15,13.15
25.39,15.45,2.31,15.46,2.31,-2.31,-2.11,-1.78,13.14,13.15,13.15
25.65,15.45,2.31,15.47,2.32,-2.32,-2.10,-1.83,13.14,13.15,13.15
25.91,15.46,2.32,15.47,2.32,-2.32,-2.08,-1.88,13.14,13.15,13.14
26.16,15.47,2.32,15.47,2.33,-2.33,-2.07,-1.93,13.15,13.15,13.15
26.43,15.48,2.33,15.47,2.32,-2.32,-2.06,-1.97,13.16,13.15,13.15
26.69,15.48,2.34,15.47,2.32,-2.32,-2.04,-2.02,13.16,13.15,13.15
26.96,15.47,2.33,15.46,2.31,-2.31,-2.03,-2.07,13.16,13.15,13.15
27.23,15.46,2.32,15.45,2.30,-2.30,-2.02,-2.11,13.17,13.15,13.14
27.50,15.44,2.30,15.43,2.28,-2.28,-2.00,-2.16,13.16,13.15,13.14
27.77,15.42,2.27,15.41,2.26,-2.26,-1.99,-2.20,13.16,13.15,13.15
28.05,15.40,2.26,15.39,2.24,-2.24,-1.98,-2.24,13.16,13.15,13.15
28.33,15.37,2.22,15.37,2.22,-2.22,-1.96,-2.28,13.15,13.15,13.15
28.62,15.34,2.19,15.35,2.20,-2.20,-1.95,-2.32,13.15,13.15,13.15
28.90,15.31,2.16,15.32,2.17,-2.17,-1.94,-2.36,13.14,13.15,13.16
29.19,15.28,2.13,15.29,2.14,-2.14,-1.93,-2.39,13.14,13.15,13.15
29.48,15.25,2.10,15.26,2.12,-2.12,-1.91,-2.42,13.14,13.15,13.15
29.78,15.22,2.08,15.24,2.10,-2.10,-1.90,-2.45,13.13,13.14,13.15
30.08,15.20,2.06,15.21,2.07,-2.07,-1.89,-2.47,13.13,13.14,13.14
30.38,15.18,2.05,15.19,2.06,-2.06,-1.87,-2.49,13.13,13.14,13.13
30.68,15.16,2.04,15.17,2.04,-2.04,-1.86,-2.51,13.13,13.13,13.13
30.99,15.14,2.02,15.15,2.02,-2.02,-1.85,-2.53,13.12,13.12,13.12
31.30,15.12,2.01,15.12,2.01,-2.01,-1.84,-2.54,13.12,13.12,13.12
31.61,15.10,1.99,15.10,2.00,-2.00,-1.83,-2.55,13.11,13.11,13.11
31.93,15.08,1.99,15.08,1.98,-1.98,-1.82,-2.55,13.10,13.10,13.09
32.24,15.07,1.98,15.07,1.97,-1.97,-1.81,-2.56,13.10,13.09,13.10
32.57,15.05,1.97,15.04,1.96,-1.96,-1.79,-2.55,13.09,13.09,13.08
32.89,15.03,1.96,15.02,1.95,-1.95,-1.78,-2.55,13.09,13.08,13.08
33.22,15.00,1.93,15.00,1.93,-1.93,-1.77,-2.54,13.07,13.07,13.07
33.55,14.97,1.91,14.98,1.91,-1.91,-1.76,-2.53,13.06,13.06,13.07
33.89,14.94,1.89,14.95,1.90,-1.90,-1.76,-2.52,13.05,13.05,13.05
34.23,14.92,1.89,14.92,1.88,-1.88,-1.75,-2.50,13.04,13.04,13.03
34.57,14.90,1.88,14.90,1.86,-1.86,-1.74,-2.49,13.04,13.03,13.03
34.92,14.87,1.86,14.87,1.85,-1.85,-1.73,-2.47,13.03,13.02,13.01
35.27,14.84,1.82,14.84,1.83,-1.83,-1.72,-2.45,13.01,13.01,13.03
35.62,14.81,1.81,14.81,1.81,-1.81,-1.71,-2.42,13.00,13.00,13.00
35.97,14.77,1.78,14.78,1.80,-1.80,-1.71,-2.40,12.97,12.98,12.99
36.33,14.74,1.77,14.75,1.79,-1.79,-1.70,-2.37,12.96,12.97,12.97
36.70,14.72,1.78,14.73,1.78,-1.78,-1.69,-2.35,12.95,12.95,12.95
37.06,14.69,1.76,14.70,1.77,-1.77,-1.69,-2.32,12.92,12.93,12.93
37.43,14.67,1.76,14.67,1.76,-1.76,-1.68,-2.30,12.91,12.91,12.91
37.81,14.65,1.76,14.65,1.76,-1.76,-1.68,-2.27,12.90,12.89,12.89
38.19,14.62,1.76,14.62,1.75,-1.75,-1.67,-2.24,12.87,12.87,12.86
38.57,14.59,1.75,14.60,1.75,-1.75,-1.67,-2.22,12.84,12.85,12.85
38.95,14.57,1.75,14.58,1.75,-1.75,-1.66,-2.19,12.82,12.82,12.83
39.34,14.55,1.76,14.56,1.76,-1.76,-1.66,-2.17,12.79,12.80,12.80
39.74,14.53,1.77,14.54,1.76,-1.76,-1.66,-2.14,12.77,12.77,12.77
40.14,14.51,1.77,14.52,1.77,-1.77,-1.65,-2.12,12.74,12.75,12.75
40.54,14.49,1.77,14.50,1.78,-1.78,-1.65,-2.10,12.72,12.72,12.73
40.94,14.46,1.77,14.48,1.78,-1.78,-1.65,-2.07,12.68,12.70,12.69
41.35,14.44,1.77,14.46,1.78,-1.78,-1.65,-2.05,12.66,12.67,12.67
41.76,14.43,1.79,14.43,1.78,-1.78,-1.65,-2.04,12.65,12.65,12.64
42.18,14.41,1.79,14.41,1.79,-1.79,-1.64,-2.02,12.63,12.62,12.63
42.60,14.40,1.81,14.38,1.79,-1.79,-1.64,-2.00,12.62,12.60,12.59
43.03,14.37,1.80,14.35,1.78,-1.78,-1.64,-1.99,12.59,12.57,12.57
43.46,14.33,1.80,14.32,1.78,-1.78,-1.64,-1.97,12.56,12.54,12.54
43.90,14.29,1.78,14.28,1.77,-1.77,-1.65,-1.96,12.53,12.51,12.51
44.33,14.24,1.77,14.24,1.76,-1.76,-1.65,-1.95,12.48,12.48,12.48
44.78,14.19,1.74,14.20,1.75,-1.75,-1.65,-1.94,12.45,12.45,12.45
45.23,14.15,1.73,14.15,1.74,-1.74,-1.65,-1.93,12.41,12.41,12.43
45.68,14.10,1.73,14.11,1.73,-1.73,-1.65,-1.93,12.37,12.38,12.38
46.13,14.06,1.72,14.06,1.72,-1.72,-1.66,-1.92,12.34,12.34,12.34
46.60,14.00,1.70,14.01,1.71,-1.71,-1.66,-1.92,12.29,12.30,12.30
47.06,13.95,1.69,13.96,1.71,-1.71,-1.66,-1.91,12.25,12.26,12.26
47.53,13.90,1.68,13.92,1.70,-1.70,-1.67,-1.91,12.20,12.21,12.23
48.01,13.85,1.69,13.87,1.70,-1.70,-1.67,-1.91,12.15,12.17,12.17
48.49,13.81,1.69,13.82,1.70,-1.70,-1.68,-1.92,12.11,12.13,12.13
48.97,13.78,1.71,13.78,1.70,-1.70,-1.68,-1.92,12.08,12.08,12.07
49.46,13.74,1.71,13.74,1.70,-1.70,-1.69,-1.92,12.04,12.03,12.03
49.96,13.70,1.73,13.69,1.71,-1.71,-1.69,-1.93,12.00,11.99,11.97
50.46,13.65,1.72,13.65,1.71,-1.71,-1.70,-1.93,11.94,11.94,11.94
50.96,13.61,1.72,13.61,1.72,-1.72,-1.71,-1.94,11.90,11.89,11.89
51.47,13.57,1.73,13.57,1.73,-1.73,-1.71,-1.95,11.85,11.84,11.85
51.99,13.53,1.74,13.53,1.74,-1.74,-1.72,-1.96,11.80,11.80,11.79
52.51,13.49,1.74,13.50,1.75,-1.75,-1.73,-1.97,11.75,11.75,11.75
53.03,13.45,1.74,13.46,1.76,-1.76,-1.74,-1.98,11.70,11.70,11.72
53.56,13.40,1.74,13.43,1.77,-1.77,-1.75,-1.99,11.64,11.66,11.67
54.10,13.37,1.77,13.39,1.78,-1.78,-1.75,-2.00,11.60,11.61,11.61
54.64,13.34,1.78,13.35,1.78,-1.78,-1.76,-2.01,11.56,11.57,11.57
55.18,13.32,1.81,13.32,1.79,-1.79,-1.77,-2.02,11.53,11.52,11.51
55.74,13.29,1.83,13.28,1.80,-1.80,-1.78,-2.03,11.49,11.48,11.46
56.29,13.27,1.84,13.25,1.82,-1.82,-1.79,-2.05,11.46,11.43,11.43
56.86,13.23,1.85,13.22,1.83,-1.83,-1.80,-2.06,11.40,11.39,11.38
57.42,13.19,1.86,13.19,1.85,-1.85,-1.81,-2.07,11.35,11.34,11.33
58.00,13.15,1.87,13.16,1.87,-1.87,-1.83,-2.08,11.29,11.29,11.28
58.58,13.10,1.86,13.13,1.89,-1.89,-1.84,-2.09,11.22,11.24,11.24
59.16,13.07,1.87,13.09,1.91,-1.91,-1.85,-2.10,11.16,11.19,11.21
59.76,13.04,1.89,13.06,1.93,-1.93,-1.86,-2.10,11.11,11.13,11.16
60.35,13.02,1.93,13.03,1.95,-1.95,-1.87,-2.11,11.07,11.08,11.09
60.96,13.01,1.98,13.00,1.98,-1.98,-1.89,-2.12,11.03,11.02,11.03
61.57,12.98,2.02,12.97,2.01,-2.01,-1.90,-2.12,10.98,10.96,10.96
62.18,12.95,2.06,12.94,2.04,-2.04,-1.91,-2.13,10.92,10.90,10.89
62.80,12.91,2.08,12.91,2.07,-2.07,-1.93,-2.13,10.85,10.84,10.83
63.43,12.87,2.11,12.88,2.10,-2.10,-1.94,-2.13,10.78,10.78,10.76
64.07,12.83,2.13,12.85,2.13,-2.13,-1.95,-2.14,10.70,10.72,10.70
64.71,12.80,2.16,12.81,2.16,-2.16,-1.97,-2.14,10.64,10.65,10.64
65.35,12.77,2.19,12.78,2.19,-2.19,-1.98,-2.14,10.58,10.59,10.58
66.01,12.74,2.22,12.74,2.22,-2.22,-2.00,-2.14,10.52,10.52,10.52
66.67,12.70,2.24,12.71,2.25,-2.25,-2.01,-2.13,10.46,10.46,10.47
67.33,12.67,2.28,12.67,2.27,-2.27,-2.03,-2.13,10.40,10.40,10.39
68.01,12.63,2.30,12.63,2.29,-2.29,-2.04,-2.13,10.34,10.33,10.34
68.69,12.59,2.32,12.58,2.32,-2.32,-2.06,-2.13,10.28,10.27,10.27
69.37,12.55,2.34,12.54,2.34,-2.34,-2.08,-2.12,10.21,10.20,10.21
70.07,12.50,2.36,12.50,2.36,-2.36,-2.09,-2.12,10.14,10.14,10.14
70.77,12.45,2.38,12.45,2.39,-2.39,-2.11,-2.11,10.07,10.07,10.07
71.48,12.39,2.39,12.41,2.41,-2.41,-2.12,-2.11,9.99,10.00,10.01
72.19,12.34,2.41,12.36,2.42,-2.42,-2.14,-2.11,9.92,9.93,9.93
72.91,12.30,2.44,12.31,2.44,-2.44,-2.16,-2.11,9.87,9.87,9.86
73.64,12.25,2.46,12.25,2.45,-2.45,-2.17,-2.10,9.80,9.80,9.79
74.38,12.21,2.49,12.20,2.46,-2.46,-2.19,-2.10,9.75,9.74,9.73
75.12,12.15,2.49,12.14,2.47,-2.47,-2.21,-2.10,9.68,9.67,9.67
75.87,12.09,2.49,12.09,2.48,-2.48,-2.23,-2.10,9.61,9.61,9.61
76.63,12.03,2.50,12.03,2.49,-2.49,-2.24,-2.10,9.54,9.54,9.54
77.40,11.97,2.49,11.97,2.49,-2.49,-2.26,-2.10,9.48,9.48,9.48
78.17,11.91,2.50,11.92,2.50,-2.50,-2.28,-2.11,9.42,9.42,9.41
78.95,11.85,2.49,11.86,2.50,-2.50,-2.30,-2.11,9.35,9.36,9.36
79.74,11.79,2.50,11.80,2.50,-2.50,-2.31,-2.12,9.29,9.30,9.30
80.54,11.74,2.50,11.74,2.51,-2.51,-2.33,-2.13,9.24,9.23,9.24
81.35,11.68,2.51,11.68,2.51,-2.51,-2.35,-2.13,9.18,9.17,9.17
82.16,11.62,2.50,11.62,2.51,-2.51,-2.37,-2.14,9.11,9.11,9.12
82.98,11.56,2.51,11.56,2.51,-2.51,-2.39,-2.16,9.05,9.05,9.05
83.81,11.49,2.50,11.50,2.52,-2.52,-2.40,-2.17,8.97,8.98,8.99
84.65,11.43,2.52,11.45,2.53,-2.53,-2.42,-2.19,8.91,8.92,8.92
85.50,11.38,2.53,11.39,2.53,-2.53,-2.44,-2.20,8.85,8.86,8.85
86.35,11.33,2.55,11.33,2.54,-2.54,-2.46,-2.22,8.79,8.79,8.79
87.22,11.28,2.56,11.28,2.55,-2.55,-2.48,-2.24,8.73,8.72,8.72
88.09,11.22,2.57,11.22,2.57,-2.57,-2.49,-2.26,8.66,8.65,8.65
88.97,11.16,2.58,11.16,2.58,-2.58,-2.51,-2.29,8.59,8.59,8.59
89.86,11.10,2.59,11.11,2.59,-2.59,-2.53,-2.31,8.51,8.52,8.52
90.76,11.05,2.61,11.05,2.61,-2.61,-2.55,-2.34,8.45,8.45,8.45
91.66,11.00,2.63,11.00,2.62,-2.62,-2.56,-2.37,8.38,8.37,8.37
92.58,10.94,2.64,10.94,2.64,-2.64,-2.58,-2.40,8.30,8.30,8.31
93.51,10.88,2.65,10.89,2.66,-2.66,-2.60,-2.43,8.23,8.23,8.24
94.44,10.82,2.66,10.83,2.68,-2.68,-2.62,-2.47,8.15,8.16,8.16
95.39,10.77,2.69,10.77,2.69,-2.69,-2.63,-2.50,8.08,8.08,8.08
96.34,10.72,2.71,10.72,2.71,-2.71,-2.65,-2.54,8.01,8.01,8.01
97.30,10.66,2.73,10.66,2.73,-2.73,-2.67,-2.58,7.94,7.93,7.94
98.28,10.60,2.75,10.60,2.74,-2.74,-2.69,-2.62,7.86,7.86,7.85
99.26,10.54,2.77,10.55,2.76,-2.76,-2.70,-2.66,7.79,7.79,7.78
100.25,10.48,2.78,10.49,2.77,-2.77,-2.72,-2.70,7.71,7.72,7.70
101.25,10.42,2.79,10.43,2.79,-2.79,-2.73,-2.75,7.64,7.64,7.64
102.27,10.37,2.80,10.37,2.80,-2.80,-2.75,-2.79,7.58,7.57,7.57
103.29,10.31,2.82,10.31,2.81,-2.81,-2.77,-2.83,7.51,7.50,7.50
104.32,10.24,2.81,10.25,2.82,-2.82,-2.78,-2.88,7.43,7.43,7.43
105.37,10.18,2.82,10.19,2.82,-2.82,-2.80,-2.92,7.36,7.36,7.37
106.42,10.13,2.83,10.13,2.83,-2.83,-2.81,-2.96,7.30,7.30,7.30
107.48,10.07,2.85,10.06,2.84,-2.84,-2.83,-3.01,7.23,7.23,7.23
108.56,10.01,2.85,10.00,2.85,-2.85,-2.84,-3.05,7.17,7.16,7.16
109.64,9.94,2.85,9.94,2.86,-2.86,-2.85,-3.09,7.09,7.09,7.10
110.74,9.87,2.85,9.88,2.87,-2.87,-2.87,-3.13,7.01,7.01,7.02
111.85,9.81,2.87,9.82,2.88,-2.88,-2.88,-3.17,6.93,6.94,6.95
112.97,9.75,2.87,9.76,2.89,-2.89,-2.89,-3.21,6.86,6.87,6.88
114.10,9.70,2.90,9.70,2.90,-2.90,-2.91,-3.24,6.80,6.80,6.81
115.24,9.64,2.92,9.64,2.91,-2.91,-2.92,-3.28,6.73,6.73,6.72
116.39,9.58,2.93,9.59,2.93,-2.93,-2.93,-3.31,6.66,6.66,6.65
117.55,9.52,2.95,9.53,2.94,-2.94,-2.94,-3.33,6.58,6.59,6.58
118.73,9.47,2.97,9.47,2.95,-2.95,-2.95,-3.35,6.52,6.52,6.51
119.92,9.42,2.98,9.42,2.97,-2.97,-2.96,-3.37,6.46,6.45,6.44
121.12,9.37,2.99,9.36,2.98,-2.98,-2.97,-3.39,6.39,6.38,6.38
122.33,9.30,2.99,9.31,3.00,-3.00,-2.98,-3.40,6.31,6.31,6.31
123.55,9.24,2.99,9.26,3.01,-3.01,-2.99,-3.41,6.23,6.24,6.25
124.79,9.18,3.00,9.20,3.02,-3.02,-3.00,-3.41,6.16,6.18,6.18
126.03,9.14,3.03,9.14,3.04,-3.04,-3.01,-3.41,6.11,6.11,6.12
127.29,9.09,3.04,9.09,3.04,-3.04,-3.01,-3.41,6.05,6.04,6.05
128.57,9.03,3.06,9.03,3.05,-3.05,-3.02,-3.40,5.98,5.97,5.97
129.85,8.96,3.06,8.97,3.06,-3.06,-3.03,-3.39,5.90,5.91,5.91
131.15,8.91,3.08,8.91,3.07,-3.07,-3.03,-3.37,5.85,5.84,5.83
132.46,8.86,3.09,8.84,3.07,-3.07,-3.04,-3.35,5.79,5.77,5.77
133.79,8.79,3.10,8.78,3.07,-3.07,-3.04,-3.33,5.72,5.70,5.70
135.12,8.72,3.09,8.71,3.08,-3.08,-3.05,-3.30,5.65,5.64,5.64
136.48,8.64,3.07,8.65,3.08,-3.08,-3.05,-3.27,5.57,5.57,5.58
137.84,8.56,3.06,8.58,3.08,-3.08,-3.05,-3.24,5.49,5.51,5.51
139.22,8.50,3.06,8.52,3.07,-3.07,-3.05,-3.21,5.43,5.45,5.44
140.61,8.44,3.06,8.45,3.06,-3.06,-3.05,-3.17,5.38,5.39,5.38
142.02,8.38,3.07,8.38,3.06,-3.06,-3.05,-3.13,5.33,5.33,5.32
143.44,8.31,3.05,8.32,3.05,-3.05,-3.05,-3.09,5.26,5.27,5.26
144.87,8.24,3.03,8.25,3.04,-3.04,-3.05,-3.05,5.20,5.21,5.21
146.32,8.18,3.03,8.18,3.03,-3.03,-3.05,-3.01,5.15,5.15,5.15
147.78,8.12,3.02,8.12,3.02,-3.02,-3.05,-2.97,5.10,5.10,5.10
149.26,8.05,3.01,8.05,3.01,-3.01,-3.05,-2.93,5.04,5.04,5.04
150.75,7.99,3.01,7.99,3.00,-3.00,-3.04,-2.89,4.99,4.99,4.98
152.26,7.92,2.99,7.93,3.00,-3.00,-3.04,-2.85,4.93,4.93,4.94
153.78,7.85,2.97,7.86,2.98,-2.98,-3.03,-2.81,4.87,4.88,4.88
155.32,7.79,2.97,7.79,2.97,-2.97,-3.03,-2.77,4.82,4.82,4.83
156.88,7.72,2.95,7.73,2.96,-2.96,-3.02,-2.73,4.77,4.77,4.77
158.44,7.66,2.95,7.66,2.94,-2.94,-3.01,-2.69,4.72,4.71,4.71
160.03,7.59,2.93,7.59,2.93,-2.93,-3.00,-2.65,4.66,4.66,4.66
161.63,7.51,2.91,7.52,2.92,-2.92,-2.99,-2.62,4.60,4.60,4.60
163.24,7.45,2.91,7.44,2.90,-2.90,-2.98,-2.58,4.56,4.55,4.55
164.88,7.38,2.89,7.37,2.88,-2.88,-2.97,-2.55,4.50,4.49,4.49
166.53,7.29,2.87,7.29,2.86,-2.86,-2.96,-2.52,4.43,4.43,4.42
168.19,7.21,2.83,7.21,2.84,-2.84,-2.95,-2.49,4.38,4.38,4.38
169.87,7.12,2.81,7.13,2.82,-2.82,-2.93,-2.47,4.31,4.32,4.32
171.57,7.05,2.80,7.05,2.79,-2.79,-2.92,-2.44,4.26,4.26,4.26
173.29,6.98,2.78,6.97,2.77,-2.77,-2.90,-2.42,4.21,4.20,4.21
175.02,6.90,2.75,6.89,2.74,-2.74,-2.89,-2.40,4.16,4.15,4.15
176.77,6.81,2.72,6.81,2.72,-2.72,-2.87,-2.38,4.10,4.09,4.09
178.54,6.72,2.69,6.73,2.69,-2.69,-2.85,-2.36,4.03,4.03,4.04
180.32,6.64,2.67,6.65,2.67,-2.67,-2.83,-2.34,3.98,3.98,3.97
182.13,6.56,2.64,6.57,2.64,-2.64,-2.81,-2.33,3.92,3.92,3.93
183.95,6.48,2.61,6.49,2.62,-2.62,-2.79,-2.32,3.86,3.87,3.87
185.79,6.41,2.60,6.42,2.61,-2.61,-2.77,-2.31,3.81,3.82,3.81
187.65,6.35,2.59,6.35,2.59,-2.59,-2.75,-2.30,3.76,3.76,3.76
189.52,6.28,2.57,6.29,2.57,-2.57,-2.73,-2.29,3.71,3.71,3.71
191.42,6.21,2.55,6.22,2.56,-2.56,-2.70,-2.28,3.65,3.66,3.67
193.33,6.14,2.52,6.16,2.55,-2.55,-2.68,-2.28,3.60,3.61,3.62
195.27,6.09,2.53,6.11,2.54,-2.54,-2.65,-2.28,3.55,3.57,3.56
197.22,6.04,2.54,6.06,2.53,-2.53,-2.62,-2.28,3.51,3.52,3.51
199.19,6.00,2.53,6.01,2.53,-2.53,-2.60,-2.28,3.47,3.48,3.47
201.18,5.96,2.54,5.96,2.53,-2.53,-2.57,-2.28,3.44,3.43,3.42
203.19,5.92,2.53,5.91,2.52,-2.52,-2.54,-2.28,3.40,3.39,3.39
205.23,5.87,2.51,5.87,2.52,-2.52,-2.51,-2.28,3.36,3.35,3.36
207.28,5.82,2.50,5.83,2.51,-2.51,-2.48,-2.28,3.31,3.31,3.32
209.35,5.78,2.50,5.79,2.51,-2.51,-2.44,-2.29,3.28,3.28,3.28
211.44,5.75,2.51,5.74,2.50,-2.50,-2.41,-2.29,3.25,3.24,3.24
213.56,5.71,2.50,5.70,2.49,-2.49,-2.38,-2.30,3.22,3.21,3.22
215.69,5.67,2.49,5.66,2.49,-2.49,-2.34,-2.30,3.19,3.17,3.18
217.85,5.61,2.47,5.62,2.47,-2.47,-2.31,-2.30,3.14,3.14,3.14
220.03,5.56,2.45,5.57,2.46,-2.46,-2.27,-2.30,3.11,3.11,3.11
222.23,5.51,2.44,5.52,2.44,-2.44,-2.23,-2.30,3.07,3.08,3.08
224.45,5.47,2.42,5.48,2.42,-2.42,-2.19,-2.30,3.05,3.05,3.05
226.70,5.42,2.40,5.43,2.40,-2.40,-2.16,-2.30,3.02,3.03,3.02
228.96,5.38,2.37,5.38,2.38,-2.38,-2.12,-2.30,3.01,3.00,3.01
231.25,5.32,2.35,5.33,2.35,-2.35,-2.08,-2.29,2.98,2.98,2.98
233.57,5.27,2.32,5.27,2.31,-2.31,-2.03,-2.29,2.96,2.96,2.96
235.90,5.22,2.29,5.21,2.28,-2.28,-1.99,-2.27,2.95,2.94,2.94
238.26,5.16,2.25,5.16,2.24,-2.24,-1.95,-2.26,2.93,2.92,2.91
240.64,5.09,2.18,5.10,2.19,-2.19,-1.91,-2.25,2.90,2.91,2.91
243.05,5.04,2.15,5.04,2.15,-2.15,-1.86,-2.23,2.89,2.89,2.89
245.48,4.98,2.11,4.98,2.10,-2.10,-1.82,-2.20,2.88,2.88,2.88
247.93,4.92,2.06,4.92,2.05,-2.05,-1.77,-2.18,2.88,2.87,2.86
250.41,4.85,1.99,4.85,1.99,-1.99,-1.72,-2.15,2.86,2.86,2.87
252.92,4.78,1.92,4.79,1.93,-1.93,-1.68,-2.12,2.85,2.85,2.86
255.45,4.71,1.87,4.72,1.87,-1.87,-1.63,-2.08,2.84,2.85,2.85
258.00,4.65,1.81,4.65,1.81,-1.81,-1.58,-2.04,2.84,2.84,2.84
260.58,4.58,1.75,4.58,1.75,-1.75,-1.53,-2.00,2.83,2.83,2.84
263.19,4.52,1.69,4.51,1.69,-1.69,-1.48,-1.95,2.84,2.83,2.83
265.82,4.44,1.62,4.44,1.62,-1.62,-1.43,-1.90,2.82,2.82,2.82
268.48,4.36,1.54,4.37,1.56,-1.56,-1.38,-1.85,2.81,2.81,2.82
271.16,4.30,1.49,4.30,1.49,-1.49,-1.33,-1.80,2.81,2.81,2.82
273.87,4.23,1.43,4.23,1.43,-1.43,-1.28,-1.74,2.81,2.81,2.81
276.61,4.16,1.36,4.16,1.36,-1.36,-1.22,-1.68,2.80,2.80,2.81
279.38,4.09,1.31,4.09,1.30,-1.30,-1.17,-1.61,2.80,2.80,2.78
282.17,4.01,1.23,4.03,1.23,-1.23,-1.12,-1.55,2.78,2.80,2.78
284.99,3.94,1.15,3.96,1.16,-1.16,-1.06,-1.48,2.78,2.79,2.79
287.84,3.89,1.10,3.89,1.10,-1.10,-1.01,-1.41,2.80,2.79,2.80
290.72,3.83,1.05,3.82,1.03,-1.03,-0.95,-1.34,2.80,2.79,2.79
293.63,3.76,0.97,3.76,0.96,-0.96,-0.90,-1.27,2.80,2.79,2.80
296.57,3.69,0.89,3.70,0.90,-0.90,-0.84,-1.20,2.80,2.80,2.80
299.53,3.62,0.82,3.63,0.83,-0.83,-0.78,-1.12,2.79,2.80,2.80
302.53,3.57,0.76,3.57,0.76,-0.76,-0.72,-1.05,2.81,2.80,2.81
305.55,3.51,0.71,3.51,0.70,-0.70,-0.67,-0.97,2.82,2.81,2.81
308.61,3.45,0.64,3.45,0.63,-0.63,-0.61,-0.90,2.82,2.81,2.82
311.69,3.38,0.56,3.39,0.57,-0.57,-0.55,-0.82,2.82,2.82,2.82
314.81,3.32,0.50,3.33,0.50,-0.50,-0.49,-0.74,2.82,2.83,2.82
317.96,3.26,0.44,3.27,0.44,-0.44,-0.43,-0.66,2.82,2.83,2.83
321.14,3.21,0.37,3.21,0.37,-0.37,-0.37,-0.58,2.84,2.84,2.84
324.35,3.15,0.32,3.15,0.31,-0.31,-0.31,-0.51,2.84,2.84,2.84
327.59,3.09,0.23,3.10,0.25,-0.25,-0.25,-0.43,2.85,2.85,2.86
330.87,3.03,0.18,3.04,0.18,-0.18,-0.19,-0.35,2.85,2.86,2.85
334.18,2.98,0.12,2.98,0.12,-0.12,-0.13,-0.27,2.86,2.86,2.86
337.52,2.93,0.07,2.92,0.06,-0.06,-0.07,-0.19,2.88,2.87,2.86
340.90,2.87,-0.00,2.87,-0.01,0.01,-0.01,-0.11,2.88,2.88,2.88
344.30,2.81,-0.07,2.81,-0.07,0.07,0.05,-0.03,2.88,2.88,2.88
347.75,2.75,-0.14,2.76,-0.13,0.13,0.11,0.05,2.88,2.89,2.89
351.23,2.69,-0.19,2.70,-0.19,0.19,0.17,0.13,2.89,2.89,2.88
354.74,2.64,-0.27,2.64,-0.26,0.26,0.23,0.22,2.90,2.90,2.91
358.28,2.58,-0.32,2.59,-0.32,0.32,0.29,0.30,2.90,2.91,2.91
361.87,2.53,-0.38,2.53,-0.38,0.38,0.35,0.38,2.92,2.91,2.91
365.49,2.48,-0.44,2.48,-0.44,0.44,0.42,0.46,2.93,2.92,2.92
369.14,2.42,-0.51,2.42,-0.51,0.51,0.48,0.54,2.93,2.93,2.94
372.83,2.37,-0.57,2.36,-0.57,0.57,0.54,0.62,2.95,2.94,2.94
376.56,2.30,-0.63,2.31,-0.64,0.64,0.60,0.70,2.94,2.94,2.94
380.33,2.25,-0.69,2.25,-0.70,0.70,0.66,0.78,2.95,2.95,2.95
384.13,2.19,-0.77,2.20,-0.76,0.76,0.72,0.87,2.95,2.96,2.96
387.97,2.14,-0.83,2.15,-0.82,0.82,0.78,0.95,2.96,2.97,2.97
391.85,2.09,-0.88,2.10,-0.88,0.88,0.85,1.03,2.98,2.98,2.98
395.77,2.04,-0.94,2.04,-0.94,0.94,0.91,1.11,2.99,2.99,2.98
399.73,1.99,-1.00,1.99,-1.00,1.00,0.97,1.19,3.00,3.00,2.99
403.72,1.93,-1.08,1.94,-1.06,1.06,1.03,1.27,3.00,3.01,3.02
407.76,1.88,-1.13,1.89,-1.12,1.12,1.09,1.35,3.01,3.02,3.02
411.84,1.84,-1.18,1.84,-1.18,1.18,1.15,1.43,3.03,3.02,3.02
415.96,1.80,-1.24,1.79,-1.24,1.24,1.21,1.51,3.04,3.03,3.04
420.12,1.75,-1.28,1.75,-1.30,1.30,1.27,1.59,3.05,3.04,3.04
424.32,1.70,-1.34,1.70,-1.35,1.35,1.33,1.67,3.06,3.05,3.05
428.56,1.64,-1.42,1.65,-1.41,1.41,1.39,1.75,3.06,3.06,3.06
432.85,1.58,-1.49,1.59,-1.47,1.47,1.45,1.82,3.06,3.07,3.07
437.18,1.54,-1.53,1.54,-1.53,1.53,1.51,1.90,3.08,3.07,3.07
441.55,1.49,-1.59,1.49,-1.59,1.59,1.57,1.97,3.09,3.08,3.08
445.96,1.45,-1.63,1.44,-1.65,1.65,1.63,2.04,3.10,3.09,3.09
450.42,1.40,-1.69,1.39,-1.71,1.71,1.68,2.11,3.11,3.10,3.10
454.93,1.34,-1.76,1.34,-1.77,1.77,1.74,2.17,3.11,3.11,3.10
459.48,1.28,-1.83,1.29,-1.83,1.83,1.80,2.23,3.11,3.12,3.11
464.07,1.22,-1.91,1.24,-1.89,1.89,1.86,2.29,3.11,3.13,3.13
468.71,1.17,-1.97,1.19,-1.94,1.94,1.91,2.35,3.12,3.13,3.14
473.40,1.13,-2.01,1.14,-2.00,2.00,1.97,2.41,3.13,3.14,3.15
478.13,1.09,-2.06,1.10,-2.06,2.06,2.02,2.46,3.15,3.15,3.16
482.91,1.05,-2.11,1.05,-2.11,2.11,2.08,2.50,3.17,3.16,3.17
487.74,1.01,-2.16,1.01,-2.17,2.17,2.13,2.55,3.18,3.18,3.17
