frequency,raw,error,smoothed,error_smoothed,equalization,parametric_eq,fixed_band_eq,equalized_raw,equalized_smoothed,target
20.00,-1.85,-5.07,-1.85,-5.08,5.09,3.79,1.31,3.25,3.24,3.22
20.20,-1.83,-5.08,-1.82,-5.07,5.07,3.77,1.35,3.25,3.26,3.25
20.40,-1.78,-5.06,-1.77,-5.05,5.05,3.76,1.39,3.27,3.28,3.28
20.61,-1.72,-5.02,-1.72,-5.03,5.02,3.75,1.43,3.30,3.30,3.30
20.81,-1.67,-5.00,-1.66,-5.00,4.99,3.74,1.48,3.32,3.33,3.33
21.02,-1.61,-4.97,-1.61,-4.96,4.95,3.73,1.52,3.35,3.35,3.36
21.23,-1.55,-4.92,-1.55,-4.92,4.92,3.72,1.57,3.37,3.37,3.37
21.44,-1.49,-4.87,-1.49,-4.87,4.87,3.70,1.61,3.39,3.39,3.38
21.66,-1.43,-4.82,-1.43,-4.82,4.82,3.69,1.66,3.40,3.39,3.39
21.87,-1.38,-4.77,-1.37,-4.77,4.77,3.68,1.71,3.39,3.40,3.39
22.09,-1.31,-4.71,-1.31,-4.71,4.71,3.67,1.76,3.41,3.41,3.40
22.31,-1.25,-4.65,-1.25,-4.66,4.66,3.65,1.82,3.41,3.41,3.40
22.54,-1.20,-4.60,-1.20,-4.60,4.60,3.64,1.87,3.40,3.40,3.40
22.76,-1.16,-4.56,-1.14,-4.54,4.55,3.63,1.93,3.39,3.40,3.40
22.99,-1.09,-4.48,-1.09,-4.49,4.49,3.61,1.98,3.40,3.40,3.39
23.22,-1.03,-4.42,-1.04,-4.43,4.43,3.60,2.04,3.41,3.40,3.39
23.45,-0.99,-4.38,-0.98,-4.37,4.37,3.58,2.10,3.39,3.39,3.39
23.69,-0.93,-4.32,-0.93,-4.32,4.31,3.57,2.16,3.39,3.39,3.39
23.92,-0.87,-4.26,-0.87,-4.26,4.26,3.55,2.22,3.39,3.39,3.39
24.16,-0.81,-4.20,-0.80,-4.20,4.20,3.54,2.29,3.39,3.39,3.39
24.40,-0.75,-4.14,-0.74,-4.14,4.14,3.52,2.35,3.40,3.40,3.39
24.65,-0.69,-4.07,-0.69,-4.08,4.09,3.50,2.42,3.40,3.40,3.38
24.89,-0.64,-4.02,-0.64,-4.02,4.03,3.49,2.48,3.39,3.39,3.38
25.14,-0.60,-3.98,-0.59,-3.98,3.97,3.47,2.55,3.38,3.38,3.38
25.39,-0.55,-3.93,-0.54,-3.93,3.92,3.45,2.61,3.37,3.37,3.38
25.65,-0.50,-3.88,-0.49,-3.87,3.87,3.43,2.68,3.37,3.38,3.38
25.91,-0.43,-3.80,-0.43,-3.81,3.81,3.42,2.75,3.39,3.38,3.37
26.16,-0.38,-3.75,-0.38,-3.76,3.76,3.40,2.81,3.39,3.38,3.37
26.43,-0.34,-3.71,-0.33,-3.71,3.71,3.38,2.88,3.37,3.38,3.37
26.69,-0.29,-3.66,-0.28,-3.66,3.65,3.36,2.94,3.37,3.37,3.37
26.96,-0.24,-3.61,-0.23,-3.61,3.60,3.34,3.01,3.36,3.37,3.37
27.23,-0.18,-3.54,-0.18,-3.55,3.55,3.32,3.07,3.37,3.36,3.36
27.50,-0.14,-3.50,-0.13,-3.50,3.50,3.30,3.13,3.36,3.36,3.36
27.77,-0.09,-3.44,-0.08,-3.44,3.44,3.28,3.18,3.36,3.36,3.35
28.05,-0.04,-3.39,-0.04,-3.39,3.39,3.26,3.24,3.36,3.36,3.35
28.33,0.01,-3.33,0.01,-3.34,3.34,3.23,3.29,3.36,3.35,3.34
28.62,0.04,-3.30,0.05,-3.29,3.29,3.21,3.34,3.33,3.34,3.34
28.90,0.09,-3.25,0.09,-3.25,3.24,3.19,3.38,3.34,3.34,3.34
29.19,0.14,-3.19,0.14,-3.20,3.19,3.16,3.43,3.34,3.34,3.33
29.48,0.18,-3.15,0.19,-3.15,3.15,3.14,3.46,3.33,3.33,3.33
29.78,0.23,-3.09,0.23,-3.10,3.10,3.12,3.50,3.33,3.33,3.32
30.08,0.26,-3.06,0.27,-3.05,3.05,3.09,3.52,3.32,3.32,3.32
30.38,0.31,-3.00,0.31,-3.01,3.01,3.06,3.55,3.32,3.32,3.31
30.68,0.34,-2.97,0.35,-2.96,2.96,3.04,3.56,3.30,3.31,3.31
30.99,0.39,-2.91,0.39,-2.91,2.91,3.01,3.57,3.31,3.30,3.30
31.30,0.42,-2.87,0.43,-2.87,2.87,2.98,3.58,3.29,3.30,3.29
31.61,0.47,-2.82,0.47,-2.82,2.83,2.95,3.58,3.30,3.29,3.29
31.93,0.50,-2.78,0.50,-2.78,2.78,2.92,3.58,3.29,3.29,3.28
32.24,0.53,-2.74,0.54,-2.74,2.74,2.89,3.57,3.28,3.28,3.27
32.57,0.56,-2.71,0.57,-2.70,2.71,2.86,3.55,3.27,3.27,3.27
32.89,0.60,-2.66,0.60,-2.67,2.67,2.83,3.53,3.27,3.26,3.26
33.22,0.62,-2.63,0.62,-2.63,2.63,2.80,3.51,3.26,3.26,3.25
33.55,0.64,-2.61,0.65,-2.60,2.60,2.77,3.48,3.24,3.25,3.25
33.89,0.68,-2.56,0.68,-2.57,2.56,2.73,3.44,3.25,3.24,3.24
34.23,0.70,-2.53,0.71,-2.53,2.53,2.70,3.41,3.23,3.23,3.23
34.57,0.73,-2.49,0.73,-2.49,2.49,2.66,3.37,3.23,3.22,3.22
34.92,0.75,-2.46,0.76,-2.46,2.46,2.63,3.32,3.21,3.22,3.21
35.27,0.77,-2.43,0.78,-2.43,2.43,2.59,3.28,3.20,3.21,3.20
35.62,0.81,-2.38,0.80,-2.39,2.39,2.55,3.23,3.21,3.20,3.19
35.97,0.81,-2.37,0.82,-2.36,2.36,2.51,3.18,3.18,3.19,3.18
36.33,0.85,-2.32,0.85,-2.33,2.33,2.47,3.13,3.18,3.18,3.17
36.70,0.86,-2.30,0.87,-2.29,2.29,2.43,3.07,3.16,3.16,3.16
37.06,0.90,-2.25,0.90,-2.26,2.26,2.39,3.02,3.16,3.15,3.15
37.43,0.92,-2.22,0.92,-2.22,2.22,2.34,2.97,3.14,3.14,3.14
37.81,0.94,-2.19,0.96,-2.18,2.18,2.30,2.91,3.12,3.13,3.13
38.19,0.99,-2.13,0.99,-2.14,2.13,2.25,2.86,3.13,3.12,3.12
38.57,1.03,-2.08,1.03,-2.09,2.09,2.21,2.80,3.12,3.12,3.11
38.95,1.06,-2.04,1.06,-2.04,2.04,2.16,2.75,3.11,3.10,3.10
39.34,1.09,-1.99,1.10,-1.99,1.99,2.11,2.70,3.09,3.09,3.08
39.74,1.12,-1.95,1.13,-1.95,1.94,2.06,2.64,3.07,3.07,3.07
40.14,1.17,-1.89,1.17,-1.90,1.89,2.01,2.59,3.07,3.06,3.06
40.54,1.20,-1.85,1.21,-1.85,1.85,1.96,2.54,3.05,3.05,3.05
40.94,1.25,-1.79,1.25,-1.79,1.80,1.91,2.50,3.05,3.05,3.04
41.35,1.28,-1.75,1.29,-1.74,1.75,1.85,2.45,3.03,3.04,3.03
41.76,1.33,-1.69,1.33,-1.69,1.70,1.80,2.40,3.04,3.03,3.02
42.18,1.36,-1.65,1.36,-1.65,1.65,1.74,2.36,3.02,3.02,3.01
42.60,1.39,-1.61,1.40,-1.61,1.60,1.69,2.32,3.00,3.00,3.00
43.03,1.42,-1.57,1.43,-1.56,1.55,1.63,2.28,2.98,2.98,2.99
43.46,1.46,-1.51,1.46,-1.51,1.50,1.58,2.24,2.97,2.97,2.97
43.90,1.50,-1.45,1.50,-1.46,1.45,1.52,2.20,2.96,2.95,2.95
44.33,1.53,-1.40,1.53,-1.40,1.40,1.46,2.17,2.94,2.94,2.93
44.78,1.56,-1.35,1.57,-1.35,1.36,1.40,2.14,2.92,2.92,2.91
45.23,1.59,-1.30,1.59,-1.30,1.31,1.35,2.11,2.90,2.90,2.89
45.68,1.62,-1.26,1.62,-1.26,1.26,1.29,2.08,2.89,2.89,2.88
46.13,1.64,-1.22,1.65,-1.22,1.22,1.23,2.05,2.87,2.87,2.86
46.60,1.68,-1.17,1.67,-1.18,1.18,1.18,2.02,2.86,2.85,2.85
47.06,1.68,-1.15,1.69,-1.14,1.14,1.12,2.00,2.82,2.83,2.83
47.53,1.72,-1.09,1.72,-1.10,1.09,1.07,1.98,2.82,2.81,2.81
48.01,1.73,-1.07,1.74,-1.06,1.05,1.02,1.95,2.78,2.79,2.80
48.49,1.77,-1.00,1.77,-1.00,1.00,0.97,1.93,2.78,2.77,2.77
48.97,1.79,-0.95,1.79,-0.95,0.95,0.93,1.92,2.75,2.74,2.74
49.46,1.81,-0.90,1.81,-0.90,0.90,0.88,1.90,2.72,2.72,2.71
49.96,1.83,-0.85,1.84,-0.85,0.85,0.84,1.88,2.68,2.69,2.68
50.46,1.86,-0.80,1.87,-0.80,0.80,0.80,1.87,2.66,2.66,2.66
50.96,1.90,-0.74,1.89,-0.75,0.75,0.76,1.85,2.65,2.64,2.64
51.47,1.91,-0.70,1.92,-0.70,0.70,0.73,1.84,2.61,2.62,2.61
51.99,1.94,-0.65,1.95,-0.65,0.65,0.70,1.82,2.59,2.60,2.59
52.51,1.97,-0.60,1.96,-0.61,0.60,0.67,1.81,2.58,2.56,2.57
53.03,1.98,-0.57,1.98,-0.57,0.56,0.64,1.79,2.54,2.54,2.55
53.56,1.98,-0.54,2.00,-0.52,0.52,0.62,1.78,2.50,2.52,2.52
54.10,2.03,-0.47,2.02,-0.48,0.49,0.60,1.76,2.52,2.51,2.50
54.64,2.03,-0.44,2.03,-0.45,0.46,0.58,1.75,2.49,2.49,2.47
55.18,2.03,-0.42,2.02,-0.43,0.44,0.57,1.73,2.47,2.46,2.45
55.74,1.98,-0.44,2.00,-0.43,0.43,0.56,1.71,2.41,2.43,2.42
56.29,1.98,-0.42,1.98,-0.42,0.42,0.55,1.69,2.41,2.40,2.40
56.86,1.95,-0.43,1.95,-0.43,0.43,0.55,1.67,2.39,2.38,2.38
57.42,1.92,-0.43,1.92,-0.44,0.45,0.54,1.65,2.37,2.37,2.35
58.00,1.86,-0.47,1.86,-0.47,0.48,0.54,1.62,2.34,2.34,2.33
58.58,1.80,-0.51,1.81,-0.51,0.50,0.55,1.59,2.31,2.31,2.31
59.16,1.74,-0.55,1.75,-0.55,0.54,0.56,1.56,2.28,2.28,2.29
59.76,1.69,-0.58,1.69,-0.58,0.57,0.57,1.53,2.27,2.26,2.27
60.35,1.62,-0.62,1.63,-0.62,0.61,0.58,1.49,2.23,2.24,2.24
60.96,1.56,-0.65,1.56,-0.65,0.65,0.60,1.45,2.21,2.21,2.21
61.57,1.49,-0.68,1.49,-0.68,0.68,0.63,1.40,2.18,2.18,2.17
62.18,1.42,-0.72,1.42,-0.72,0.73,0.66,1.35,2.15,2.15,2.14
62.80,1.34,-0.77,1.35,-0.76,0.77,0.70,1.30,2.11,2.12,2.11
63.43,1.27,-0.81,1.27,-0.81,0.82,0.75,1.25,2.09,2.09,2.08
64.07,1.19,-0.86,1.20,-0.86,0.87,0.80,1.19,2.07,2.07,2.05
64.71,1.11,-0.92,1.11,-0.92,0.93,0.86,1.12,2.04,2.04,2.03
65.35,1.01,-0.99,1.01,-0.99,0.99,0.93,1.06,2.01,2.01,2.00
66.01,0.90,-1.07,0.92,-1.06,1.06,1.01,0.99,1.97,1.98,1.97
66.67,0.82,-1.12,0.82,-1.13,1.13,1.10,0.91,1.96,1.95,1.94
67.33,0.72,-1.19,0.72,-1.20,1.20,1.19,0.84,1.92,1.92,1.91
68.01,0.62,-1.26,0.62,-1.26,1.27,1.28,0.75,1.89,1.89,1.88
68.69,0.51,-1.34,0.53,-1.33,1.32,1.36,0.67,1.84,1.85,1.85
69.37,0.45,-1.37,0.44,-1.38,1.37,1.43,0.58,1.83,1.82,1.82
70.07,0.37,-1.42,0.37,-1.42,1.41,1.47,0.49,1.79,1.79,1.79
70.77,0.31,-1.45,0.32,-1.44,1.44,1.49,0.40,1.76,1.76,1.76
71.48,0.28,-1.45,0.28,-1.45,1.46,1.47,0.30,1.74,1.74,1.73
72.19,0.25,-1.44,0.26,-1.44,1.46,1.41,0.20,1.71,1.72,1.69
72.91,0.25,-1.41,0.25,-1.42,1.43,1.30,0.10,1.69,1.68,1.66
73.64,0.25,-1.37,0.25,-1.38,1.38,1.16,0.00,1.64,1.63,1.62
74.38,0.27,-1.32,0.28,-1.31,1.30,0.99,-0.10,1.57,1.58,1.59
75.12,0.34,-1.21,0.35,-1.21,1.18,0.81,-0.21,1.52,1.53,1.55
75.87,0.47,-1.05,0.47,-1.06,1.02,0.61,-0.32,1.49,1.48,1.52
76.63,0.63,-0.86,0.64,-0.85,0.81,0.41,-0.43,1.45,1.45,1.49
77.40,0.85,-0.61,0.86,-0.60,0.56,0.21,-0.54,1.42,1.42,1.46
78.17,1.12,-0.30,1.12,-0.31,0.28,0.01,-0.66,1.40,1.40,1.42
78.95,1.41,0.01,1.41,0.02,-0.03,-0.17,-0.78,1.37,1.38,1.39
79.74,1.72,0.35,1.73,0.36,-0.37,-0.35,-0.89,1.35,1.36,1.36
80.54,2.04,0.72,2.04,0.71,-0.70,-0.52,-1.01,1.35,1.34,1.32
81.35,2.35,1.06,2.34,1.05,-1.02,-0.68,-1.13,1.33,1.32,1.29
82.16,2.60,1.35,2.61,1.35,-1.32,-0.84,-1.26,1.28,1.29,1.25
82.98,2.84,1.62,2.84,1.62,-1.59,-0.98,-1.38,1.26,1.25,1.22
83.81,3.01,1.83,3.02,1.84,-1.81,-1.12,-1.51,1.20,1.21,1.18
84.65,3.17,2.03,3.16,2.01,-1.99,-1.26,-1.63,1.19,1.17,1.14
85.50,3.24,2.13,3.25,2.14,-2.11,-1.38,-1.76,1.13,1.14,1.11
86.35,3.28,2.21,3.29,2.21,-2.19,-1.51,-1.89,1.10,1.10,1.07
87.22,3.28,2.25,3.27,2.24,-2.22,-1.63,-2.03,1.07,1.06,1.03
88.09,3.22,2.23,3.23,2.23,-2.21,-1.75,-2.16,1.01,1.02,0.99
88.97,3.14,2.19,3.14,2.19,-2.17,-1.86,-2.30,0.97,0.97,0.95
89.86,3.04,2.13,3.04,2.13,-2.12,-1.97,-2.43,0.93,0.92,0.91
90.76,2.92,2.06,2.93,2.06,-2.06,-2.08,-2.57,0.86,0.87,0.86
91.66,2.83,2.01,2.82,2.00,-2.02,-2.19,-2.71,0.82,0.80,0.82
92.58,2.71,1.94,2.73,1.95,-2.00,-2.29,-2.85,0.72,0.73,0.77
93.51,2.68,1.95,2.68,1.95,-2.01,-2.40,-3.00,0.68,0.68,0.73
94.44,2.68,1.99,2.69,2.00,-2.06,-2.50,-3.14,0.63,0.63,0.69
95.39,2.74,2.10,2.75,2.10,-2.14,-2.60,-3.29,0.60,0.60,0.64
96.34,2.84,2.25,2.84,2.24,-2.27,-2.70,-3.44,0.58,0.57,0.59
97.30,2.95,2.41,2.96,2.42,-2.41,-2.81,-3.59,0.54,0.55,0.54
98.28,3.10,2.61,3.10,2.60,-2.58,-2.90,-3.74,0.52,0.52,0.49
99.26,3.24,2.79,3.24,2.78,-2.75,-3.00,-3.89,0.49,0.48,0.45
100.25,3.35,2.95,3.36,2.96,-2.92,-3.10,-4.04,0.43,0.44,0.40
101.25,3.47,3.12,3.46,3.11,-3.08,-3.20,-4.19,0.39,0.38,0.35
102.27,3.55,3.25,3.56,3.25,-3.23,-3.29,-4.34,0.32,0.32,0.30
103.29,3.63,3.38,3.63,3.38,-3.37,-3.39,-4.50,0.26,0.26,0.25
104.32,3.71,3.50,3.71,3.50,-3.51,-3.48,-4.65,0.20,0.20,0.21
105.37,3.77,3.61,3.78,3.62,-3.64,-3.58,-4.80,0.13,0.14,0.16
106.42,3.87,3.76,3.86,3.75,-3.77,-3.67,-4.94,0.10,0.09,0.11
107.48,3.93,3.87,3.95,3.88,-3.90,-3.76,-5.09,0.04,0.05,0.06
108.56,4.04,4.03,4.04,4.02,-4.02,-3.85,-5.23,0.02,0.01,0.01
109.64,4.12,4.16,4.12,4.16,-4.15,-3.94,-5.37,-0.03,-0.03,-0.04
110.74,4.20,4.29,4.20,4.29,-4.27,-4.03,-5.50,-0.07,-0.07,-0.09
111.85,4.26,4.40,4.26,4.40,-4.39,-4.12,-5.64,-0.13,-0.13,-0.14
112.97,4.30,4.50,4.31,4.51,-4.50,-4.21,-5.76,-0.20,-0.19,-0.20
114.10,4.35,4.60,4.35,4.60,-4.60,-4.29,-5.88,-0.25,-0.25,-0.25
115.24,4.40,4.71,4.39,4.70,-4.69,-4.38,-5.98,-0.29,-0.30,-0.31
116.39,4.41,4.77,4.43,4.78,-4.78,-4.46,-6.09,-0.36,-0.35,-0.36
117.55,4.45,4.87,4.44,4.85,-4.85,-4.55,-6.17,-0.40,-0.41,-0.42
118.73,4.45,4.92,4.46,4.92,-4.92,-4.63,-6.26,-0.47,-0.47,-0.47
119.92,4.46,4.98,4.48,4.99,-4.99,-4.71,-6.32,-0.53,-0.51,-0.52
121.12,4.50,5.07,4.49,5.05,-5.06,-4.79,-6.39,-0.55,-0.57,-0.57
122.33,4.50,5.12,4.50,5.12,-5.12,-4.87,-6.43,-0.62,-0.62,-0.62
123.55,4.50,5.17,4.52,5.18,-5.19,-4.94,-6.47,-0.68,-0.67,-0.67
124.79,4.53,5.25,4.53,5.24,-5.26,-5.02,-6.49,-0.72,-0.73,-0.72
126.03,4.54,5.31,4.54,5.31,-5.32,-5.09,-6.50,-0.78,-0.78,-0.77
127.29,4.57,5.39,4.57,5.39,-5.39,-5.16,-6.50,-0.82,-0.82,-0.82
128.57,4.58,5.46,4.60,5.47,-5.46,-5.23,-6.49,-0.88,-0.87,-0.88
129.85,4.63,5.56,4.62,5.55,-5.53,-5.30,-6.46,-0.90,-0.91,-0.93
131.15,4.63,5.61,4.63,5.60,-5.60,-5.37,-6.42,-0.96,-0.97,-0.98
132.46,4.63,5.66,4.64,5.66,-5.66,-5.43,-6.37,-1.03,-1.02,-1.03
133.79,4.63,5.70,4.65,5.72,-5.72,-5.49,-6.32,-1.09,-1.08,-1.07
135.12,4.67,5.79,4.66,5.77,-5.78,-5.55,-6.24,-1.11,-1.12,-1.12
136.48,4.67,5.83,4.67,5.83,-5.83,-5.61,-6.17,-1.16,-1.16,-1.16
137.84,4.67,5.88,4.68,5.89,-5.88,-5.67,-6.08,-1.21,-1.20,-1.21
139.22,4.67,5.93,4.67,5.93,-5.93,-5.72,-6.00,-1.25,-1.25,-1.26
140.61,4.67,5.97,4.68,5.97,-5.96,-5.77,-5.90,-1.29,-1.29,-1.30
142.02,4.67,6.00,4.67,6.00,-6.00,-5.82,-5.80,-1.32,-1.32,-1.33
143.44,4.67,6.04,4.66,6.03,-6.02,-5.87,-5.69,-1.35,-1.36,-1.37
144.87,4.63,6.04,4.64,6.05,-6.04,-5.91,-5.58,-1.41,-1.40,-1.41
146.32,4.61,6.06,4.61,6.06,-6.06,-5.95,-5.47,-1.44,-1.44,-1.45
147.78,4.58,6.06,4.58,6.06,-6.07,-6.00,-5.35,-1.48,-1.49,-1.48
149.26,4.55,6.07,4.56,6.07,-6.08,-6.03,-5.24,-1.52,-1.52,-1.52
150.75,4.52,6.08,4.52,6.08,-6.08,-6.07,-5.12,-1.56,-1.56,-1.56
152.26,4.49,6.09,4.49,6.08,-6.08,-6.10,-5.00,-1.59,-1.59,-1.60
153.78,4.44,6.08,4.45,6.09,-6.08,-6.13,-4.89,-1.64,-1.63,-1.64
155.32,4.41,6.09,4.41,6.09,-6.08,-6.15,-4.77,-1.67,-1.67,-1.68
156.88,4.36,6.08,4.37,6.08,-6.08,-6.17,-4.66,-1.72,-1.72,-1.72
158.44,4.33,6.09,4.33,6.08,-6.08,-6.19,-4.54,-1.75,-1.76,-1.76
160.03,4.27,6.07,4.28,6.08,-6.08,-6.21,-4.43,-1.81,-1.80,-1.80
161.63,4.24,6.08,4.24,6.08,-6.08,-6.22,-4.32,-1.84,-1.84,-1.84
163.24,4.19,6.07,4.20,6.07,-6.08,-6.23,-4.21,-1.88,-1.88,-1.88
164.88,4.16,6.07,4.16,6.07,-6.07,-6.24,-4.10,-1.91,-1.91,-1.91
166.53,4.11,6.06,4.12,6.07,-6.07,-6.24,-4.00,-1.96,-1.95,-1.95
168.19,4.08,6.07,4.08,6.06,-6.06,-6.24,-3.90,-1.98,-1.99,-1.99
169.87,4.02,6.05,4.03,6.05,-6.04,-6.24,-3.80,-2.02,-2.02,-2.03
171.57,3.96,6.03,3.97,6.03,-6.02,-6.23,-3.70,-2.05,-2.05,-2.07
173.29,3.91,6.01,3.90,6.00,-5.98,-6.22,-3.61,-2.07,-2.08,-2.10
175.02,3.82,5.96,3.83,5.96,-5.94,-6.21,-3.52,-2.11,-2.11,-2.14
176.77,3.74,5.92,3.74,5.91,-5.89,-6.19,-3.43,-2.15,-2.15,-2.18
178.54,3.63,5.85,3.64,5.85,-5.85,-6.16,-3.34,-2.21,-2.21,-2.22
180.32,3.55,5.81,3.54,5.80,-5.81,-6.14,-3.26,-2.26,-2.27,-2.26
182.13,3.45,5.74,3.47,5.75,-5.80,-6.11,-3.18,-2.34,-2.33,-2.29
183.95,3.41,5.74,3.42,5.74,-5.80,-6.08,-3.10,-2.39,-2.38,-2.33
185.79,3.41,5.77,3.41,5.77,-5.82,-6.04,-3.02,-2.41,-2.41,-2.36
187.65,3.43,5.83,3.44,5.83,-5.86,-6.00,-2.95,-2.42,-2.42,-2.40
189.52,3.48,5.91,3.48,5.91,-5.90,-5.95,-2.88,-2.42,-2.42,-2.43
191.42,3.52,5.98,3.52,5.98,-5.95,-5.90,-2.81,-2.43,-2.43,-2.46
193.33,3.55,6.04,3.55,6.04,-6.00,-5.84,-2.74,-2.45,-2.45,-2.49
195.27,3.55,6.07,3.55,6.07,-6.03,-5.79,-2.68,-2.48,-2.48,-2.52
197.22,3.52,6.07,3.52,6.07,-6.05,-5.72,-2.61,-2.52,-2.52,-2.55
199.19,3.47,6.05,3.48,6.05,-6.04,-5.65,-2.55,-2.56,-2.56,-2.58
201.18,3.41,6.01,3.41,6.01,-6.01,-5.58,-2.50,-2.59,-2.60,-2.60
203.19,3.33,5.95,3.33,5.95,-5.96,-5.50,-2.44,-2.63,-2.63,-2.62
205.23,3.25,5.89,3.25,5.88,-5.90,-5.42,-2.38,-2.64,-2.65,-2.64
207.28,3.15,5.80,3.16,5.81,-5.82,-5.33,-2.33,-2.67,-2.66,-2.65
209.35,3.07,5.74,3.07,5.73,-5.73,-5.24,-2.28,-2.66,-2.67,-2.67
211.44,2.96,5.65,2.96,5.64,-5.64,-5.14,-2.23,-2.68,-2.68,-2.69
213.56,2.84,5.54,2.85,5.54,-5.54,-5.04,-2.18,-2.70,-2.69,-2.70
215.69,2.72,5.42,2.72,5.42,-5.43,-4.93,-2.14,-2.71,-2.71,-2.70
217.85,2.59,5.30,2.60,5.30,-5.31,-4.82,-2.09,-2.72,-2.72,-2.71
220.03,2.46,5.18,2.46,5.18,-5.18,-4.70,-2.04,-2.72,-2.72,-2.72
222.23,2.32,5.05,2.32,5.05,-5.04,-4.57,-2.00,-2.72,-2.72,-2.73
224.45,2.17,4.90,2.18,4.91,-4.89,-4.45,-1.96,-2.72,-2.71,-2.73
226.70,2.02,4.75,2.02,4.74,-4.73,-4.31,-1.91,-2.71,-2.71,-2.73
228.96,1.84,4.57,1.84,4.56,-4.56,-4.17,-1.87,-2.71,-2.71,-2.73
231.25,1.64,4.36,1.65,4.37,-4.37,-4.02,-1.83,-2.73,-2.72,-2.72
233.57,1.45,4.17,1.45,4.17,-4.18,-3.87,-1.79,-2.72,-2.73,-2.72
235.90,1.24,3.96,1.25,3.96,-3.97,-3.71,-1.75,-2.72,-2.72,-2.72
238.26,1.04,3.75,1.04,3.75,-3.75,-3.54,-1.71,-2.71,-2.71,-2.71
240.64,0.83,3.53,0.83,3.52,-3.53,-3.37,-1.67,-2.69,-2.70,-2.70
243.05,0.60,3.29,0.61,3.30,-3.29,-3.19,-1.63,-2.69,-2.68,-2.69
245.48,0.38,3.06,0.38,3.06,-3.05,-3.00,-1.58,-2.67,-2.67,-2.68
247.93,0.15,2.82,0.14,2.81,-2.80,-2.81,-1.54,-2.65,-2.66,-2.67
250.41,-0.11,2.55,-0.10,2.55,-2.54,-2.61,-1.50,-2.65,-2.64,-2.66
252.92,-0.36,2.28,-0.35,2.29,-2.28,-2.40,-1.46,-2.64,-2.63,-2.64
255.45,-0.60,2.02,-0.61,2.01,-2.01,-2.19,-1.42,-2.61,-2.62,-2.62
258.00,-0.87,1.74,-0.87,1.74,-1.74,-1.97,-1.38,-2.61,-2.61,-2.61
260.58,-1.14,1.45,-1.13,1.45,-1.47,-1.74,-1.33,-2.61,-2.61,-2.59
263.19,-1.42,1.15,-1.42,1.15,-1.20,-1.51,-1.29,-2.62,-2.62,-2.57
265.82,-1.69,0.86,-1.69,0.85,-0.94,-1.26,-1.25,-2.63,-2.63,-2.55
268.48,-2.00,0.53,-1.98,0.55,-0.68,-1.02,-1.20,-2.67,-2.66,-2.53
271.16,-2.26,0.25,-2.27,0.23,-0.41,-0.76,-1.16,-2.67,-2.69,-2.51
273.87,-2.58,-0.09,-2.57,-0.08,-0.16,-0.49,-1.12,-2.73,-2.73,-2.49
276.61,-2.88,-0.41,-2.88,-0.41,0.10,-0.22,-1.07,-2.78,-2.78,-2.47
279.38,-3.20,-0.75,-3.20,-0.76,0.36,0.05,-1.03,-2.84,-2.84,-2.45
282.17,-3.54,-1.11,-3.53,-1.11,0.61,0.34,-0.98,-2.92,-2.92,-2.43
284.99,-3.88,-1.47,-3.88,-1.47,0.87,0.63,-0.93,-3.00,-3.01,-2.41
287.84,-4.24,-1.85,-4.23,-1.85,1.13,0.92,-0.89,-3.11,-3.10,-2.39
290.72,-4.60,-2.23,-4.60,-2.23,1.39,1.22,-0.84,-3.21,-3.21,-2.37
293.63,-4.96,-2.61,-4.96,-2.62,1.65,1.52,-0.80,-3.31,-3.32,-2.35
296.57,-5.34,-3.01,-5.33,-3.00,1.91,1.82,-0.75,-3.43,-3.42,-2.33
299.53,-5.70,-3.39,-5.69,-3.39,2.17,2.13,-0.70,-3.53,-3.53,-2.31
302.53,-6.05,-3.76,-6.05,-3.76,2.42,2.43,-0.66,-3.62,-3.62,-2.29
305.55,-6.39,-4.13,-6.39,-4.13,2.68,2.73,-0.61,-3.70,-3.70,-2.26
308.61,-6.72,-4.48,-6.72,-4.49,2.94,3.02,-0.56,-3.78,-3.78,-2.24
311.69,-7.05,-4.84,-7.04,-4.84,3.20,3.30,-0.52,-3.85,-3.84,-2.21
314.81,-7.36,-5.18,-7.35,-5.17,3.46,3.57,-0.47,-3.90,-3.89,-2.18
317.96,-7.62,-5.46,-7.63,-5.48,3.72,3.83,-0.42,-3.90,-3.92,-2.16
321.14,-7.90,-5.76,-7.88,-5.75,3.97,4.07,-0.37,-3.92,-3.91,-2.14
324.35,-8.10,-5.98,-8.09,-5.98,4.23,4.28,-0.33,-3.86,-3.86,-2.12
327.59,-8.26,-6.16,-8.26,-6.16,4.51,4.48,-0.28,-3.75,-3.75,-2.10
330.87,-8.37,-6.29,-8.37,-6.29,4.80,4.63,-0.23,-3.57,-3.57,-2.08
334.18,-8.44,-6.38,-8.43,-6.37,5.08,4.77,-0.18,-3.35,-3.34,-2.06
337.52,-8.44,-6.40,-8.43,-6.40,5.35,4.86,-0.14,-3.09,-3.09,-2.04
340.90,-8.39,-6.37,-8.39,-6.38,5.57,4.93,-0.09,-2.82,-2.83,-2.02
344.30,-8.30,-6.30,-8.30,-6.31,5.73,4.96,-0.04,-2.56,-2.57,-2.00
347.75,-8.19,-6.21,-8.17,-6.20,5.84,4.96,0.01,-2.35,-2.33,-1.98
351.23,-8.01,-6.05,-8.01,-6.06,5.87,4.92,0.06,-2.13,-2.14,-1.96
354.74,-7.82,-5.88,-7.83,-5.89,5.83,4.86,0.11,-1.98,-2.00,-1.94
358.28,-7.64,-5.71,-7.62,-5.70,5.73,4.77,0.15,-1.91,-1.90,-1.93
361.87,-7.41,-5.50,-7.41,-5.50,5.55,4.66,0.20,-1.85,-1.85,-1.91
365.49,-7.17,-5.28,-7.17,-5.28,5.33,4.52,0.25,-1.84,-1.84,-1.89
369.14,-6.91,-5.03,-6.90,-5.03,5.07,4.37,0.30,-1.83,-1.83,-1.88
372.83,-6.64,-4.78,-6.64,-4.78,4.80,4.21,0.35,-1.83,-1.83,-1.86
376.56,-6.37,-4.52,-6.37,-4.53,4.55,4.04,0.40,-1.82,-1.82,-1.85
380.33,-6.11,-4.28,-6.11,-4.28,4.30,3.86,0.45,-1.81,-1.81,-1.83
384.13,-5.86,-4.04,-5.85,-4.03,4.05,3.67,0.50,-1.81,-1.81,-1.82
387.97,-5.60,-3.79,-5.60,-3.79,3.79,3.49,0.55,-1.81,-1.81,-1.81
391.85,-5.34,-3.54,-5.34,-3.54,3.53,3.30,0.60,-1.80,-1.80,-1.80
395.77,-5.08,-3.30,-5.07,-3.29,3.27,3.11,0.65,-1.80,-1.80,-1.78
399.73,-4.80,-3.03,-4.80,-3.03,3.01,2.93,0.70,-1.79,-1.79,-1.77
403.72,-4.53,-2.77,-4.52,-2.76,2.74,2.75,0.75,-1.78,-1.77,-1.76
407.76,-4.22,-2.47,-4.23,-2.49,2.48,2.57,0.79,-1.74,-1.75,-1.75
411.84,-3.97,-2.23,-3.95,-2.22,2.22,2.39,0.84,-1.74,-1.73,-1.74
415.96,-3.69,-1.96,-3.69,-1.96,1.98,2.23,0.89,-1.70,-1.71,-1.73
420.12,-3.45,-1.73,-3.45,-1.73,1.76,2.06,0.93,-1.69,-1.69,-1.72
424.32,-3.24,-1.53,-3.24,-1.53,1.56,1.91,0.98,-1.68,-1.68,-1.71
428.56,-3.06,-1.36,-3.06,-1.36,1.38,1.76,1.02,-1.67,-1.68,-1.70
432.85,-2.92,-1.23,-2.91,-1.23,1.23,1.61,1.07,-1.68,-1.68,-1.69
437.18,-2.78,-1.10,-2.78,-1.11,1.11,1.47,1.11,-1.67,-1.67,-1.68
441.55,-2.68,-1.02,-2.67,-1.01,1.01,1.34,1.15,-1.67,-1.66,-1.66
445.96,-2.57,-0.92,-2.57,-0.92,0.92,1.21,1.18,-1.64,-1.65,-1.65
450.42,-2.49,-0.85,-2.48,-0.85,0.85,1.09,1.22,-1.63,-1.63,-1.64
454.93,-2.41,-0.79,-2.41,-0.79,0.79,0.97,1.25,-1.61,-1.61,-1.62
459.48,-2.34,-0.73,-2.34,-0.74,0.74,0.86,1.28,-1.60,-1.61,-1.61
464.07,-2.29,-0.69,-2.28,-0.69,0.68,0.76,1.31,-1.61,-1.60,-1.60
468.71,-2.22,-0.64,-2.21,-0.63,0.62,0.66,1.33,-1.59,-1.59,-1.58
473.40,-2.14,-0.57,-2.14,-0.58,0.56,0.56,1.36,-1.57,-1.58,-1.57
478.13,-2.05,-0.50,-2.05,-0.51,0.50,0.47,1.37,-1.55,-1.56,-1.55
482.91,-1.98,-0.44,-1.96,-0.43,0.43,0.39,1.39,-1.55,-1.54,-1.54
487.74,-1.86,-0.34,-1.86,-0.35,0.34,0.31,1.40,-1.51,-1.52,-1.52
492.62,-1.76,-0.26,-1.76,-0.26,0.25,0.23,1.41,-1.50,-1.50,-1.50
497.55,-1.65,-0.16,-1.64,-0.16,0.16,0.16,1.41,-1.49,-1.49,-1.49
502.52,-1.53,-0.06,-1.53,-0.06,0.05,0.09,1.41,-1.47,-1.47,-1.47
