frequency,raw,error,smoothed,error_smoothed,equalization,parametric_eq,fixed_band_eq,equalized_raw,equalized_smoothed,target
20.00,-15.36,-17.49,-15.35,-17.51,17.51,16.05,6.43,2.15,2.16,2.13
20.20,-15.22,-17.40,-15.21,-17.41,17.41,16.30,6.58,2.19,2.20,2.18
20.40,-15.08,-17.31,-15.08,-17.31,17.31,16.52,6.73,2.23,2.24,2.23
20.61,-14.94,-17.21,-14.94,-17.21,17.21,16.70,6.88,2.27,2.27,2.26
20.81,-14.80,-17.11,-14.81,-17.11,17.11,16.86,7.04,2.31,2.30,2.31
21.02,-14.66,-17.01,-14.68,-17.00,17.00,16.97,7.21,2.34,2.33,2.35
21.23,-14.53,-16.90,-14.54,-16.90,16.90,17.04,7.37,2.37,2.35,2.37
21.44,-14.41,-16.80,-14.41,-16.79,16.79,17.07,7.55,2.38,2.38,2.39
21.66,-14.28,-16.70,-14.28,-16.68,16.68,17.06,7.72,2.39,2.40,2.41
21.87,-14.15,-16.57,-14.14,-16.56,16.56,17.01,7.91,2.41,2.42,2.42
22.09,-14.02,-16.46,-14.01,-16.44,16.44,16.93,8.09,2.43,2.43,2.44
22.31,-13.88,-16.33,-13.88,-16.33,16.33,16.81,8.28,2.45,2.44,2.45
22.54,-13.74,-16.20,-13.75,-16.20,16.20,16.66,8.48,2.46,2.45,2.45
22.76,-13.61,-16.06,-13.62,-16.07,16.07,16.49,8.68,2.46,2.45,2.45
22.99,-13.47,-15.91,-13.48,-15.94,15.94,16.30,8.89,2.47,2.46,2.44
23.22,-13.35,-15.79,-13.35,-15.81,15.81,16.09,9.10,2.46,2.46,2.44
23.45,-13.23,-15.67,-13.22,-15.68,15.68,15.87,9.32,2.45,2.46,2.44
23.69,-13.11,-15.57,-13.09,-15.55,15.55,15.65,9.55,2.43,2.46,2.45
23.92,-13.00,-15.45,-12.96,-15.42,15.42,15.42,9.78,2.42,2.46,2.45
24.16,-12.86,-15.31,-12.84,-15.30,15.30,15.19,10.02,2.44,2.46,2.45
24.40,-12.71,-15.17,-12.72,-15.17,15.17,14.97,10.26,2.47,2.46,2.46
24.65,-12.56,-15.02,-12.60,-15.05,15.05,14.74,10.51,2.49,2.46,2.45
24.89,-12.41,-14.86,-12.48,-14.94,14.94,14.52,10.76,2.53,2.46,2.45
25.14,-12.30,-14.75,-12.36,-14.82,14.82,14.31,11.02,2.52,2.46,2.45
25.39,-12.22,-14.68,-12.24,-14.70,14.70,14.10,11.29,2.48,2.46,2.46
25.65,-12.13,-14.59,-12.12,-14.58,14.58,13.90,11.56,2.45,2.46,2.46
25.91,-12.05,-14.51,-12.00,-14.46,14.46,13.70,11.84,2.40,2.46,2.45
26.16,-11.93,-14.38,-11.88,-14.33,14.33,13.52,12.13,2.41,2.46,2.45
26.43,-11.79,-14.25,-11.75,-14.21,14.21,13.34,12.41,2.42,2.45,2.45
26.69,-11.65,-14.10,-11.63,-14.08,14.08,13.18,12.71,2.43,2.45,2.45
26.96,-11.51,-13.97,-11.50,-13.96,13.96,13.02,13.00,2.44,2.45,2.45
27.23,-11.38,-13.84,-11.38,-13.83,13.83,12.87,13.30,2.45,2.45,2.45
27.50,-11.24,-13.69,-11.25,-13.70,13.70,12.73,13.59,2.46,2.45,2.45
27.77,-11.10,-13.54,-11.12,-13.57,13.57,12.59,13.89,2.47,2.45,2.44
28.05,-10.97,-13.41,-10.98,-13.43,13.43,12.47,14.18,2.46,2.45,2.44
28.33,-10.83,-13.26,-10.84,-13.29,13.29,12.36,14.46,2.46,2.44,2.43
28.62,-10.70,-13.14,-10.70,-13.15,13.15,12.25,14.73,2.44,2.44,2.43
28.90,-10.57,-13.01,-10.57,-13.01,13.01,12.15,14.99,2.44,2.44,2.44
29.19,-10.43,-12.86,-10.43,-12.87,12.87,12.06,15.23,2.44,2.44,2.43
29.48,-10.30,-12.74,-10.30,-12.74,12.74,11.97,15.45,2.44,2.44,2.44
29.78,-10.17,-12.61,-10.17,-12.61,12.61,11.89,15.64,2.43,2.44,2.43
30.08,-10.04,-12.49,-10.03,-12.47,12.47,11.82,15.81,2.43,2.44,2.44
30.38,-9.91,-12.35,-9.90,-12.33,12.33,11.75,15.93,2.42,2.43,2.43
30.68,-9.78,-12.21,-9.77,-12.20,12.20,11.69,16.02,2.42,2.43,2.43
30.99,-9.65,-12.09,-9.64,-12.07,12.07,11.63,16.06,2.42,2.43,2.43
31.30,-9.52,-11.95,-9.52,-11.95,11.95,11.58,16.07,2.43,2.43,2.42
31.61,-9.39,-11.81,-9.40,-11.83,11.83,11.53,16.02,2.44,2.43,2.42
31.93,-9.26,-11.69,-9.29,-11.71,11.71,11.48,15.94,2.45,2.42,2.42
32.24,-9.13,-11.54,-9.17,-11.58,11.58,11.43,15.82,2.46,2.42,2.41
32.57,-9.01,-11.43,-9.05,-11.46,11.46,11.38,15.66,2.45,2.41,2.41
32.89,-8.88,-11.29,-8.93,-11.33,11.33,11.33,15.46,2.46,2.41,2.41
33.22,-8.79,-11.19,-8.80,-11.21,11.21,11.27,15.24,2.42,2.41,2.40
33.55,-8.72,-11.12,-8.68,-11.08,11.08,11.22,15.00,2.36,2.40,2.40
33.89,-8.64,-11.03,-8.55,-10.95,10.95,11.16,14.74,2.31,2.40,2.39
34.23,-8.51,-10.91,-8.43,-10.82,10.82,11.09,14.46,2.31,2.39,2.39
34.57,-8.34,-10.72,-8.30,-10.69,10.69,11.02,14.17,2.35,2.39,2.38
34.92,-8.17,-10.56,-8.17,-10.56,10.56,10.95,13.87,2.38,2.38,2.38
35.27,-8.02,-10.40,-8.04,-10.42,10.42,10.86,13.57,2.40,2.38,2.37
35.62,-7.88,-10.26,-7.91,-10.28,10.28,10.77,13.26,2.40,2.38,2.37
35.97,-7.74,-10.11,-7.77,-10.15,10.15,10.67,12.96,2.41,2.37,2.37
36.33,-7.62,-9.99,-7.64,-10.01,10.01,10.57,12.65,2.39,2.37,2.37
36.70,-7.49,-9.86,-7.51,-9.88,9.88,10.45,12.35,2.39,2.37,2.36
37.06,-7.37,-9.73,-7.38,-9.75,9.75,10.32,12.05,2.38,2.37,2.36
37.43,-7.24,-9.61,-7.25,-9.62,9.62,10.19,11.76,2.38,2.37,2.37
37.81,-7.11,-9.48,-7.12,-9.49,9.49,10.04,11.47,2.38,2.37,2.37
38.19,-6.99,-9.36,-7.00,-9.37,9.37,9.89,11.18,2.38,2.37,2.36
38.57,-6.87,-9.24,-6.88,-9.25,9.25,9.73,10.90,2.38,2.37,2.37
38.95,-6.74,-9.12,-6.75,-9.13,9.13,9.57,10.63,2.39,2.37,2.38
39.34,-6.65,-9.02,-6.63,-9.01,9.01,9.40,10.36,2.36,2.37,2.37
39.74,-6.56,-8.93,-6.51,-8.88,8.88,9.22,10.10,2.32,2.37,2.37
40.14,-6.45,-8.83,-6.39,-8.76,8.76,9.04,9.85,2.31,2.37,2.37
40.54,-6.29,-8.67,-6.27,-8.64,8.64,8.85,9.60,2.35,2.37,2.37
40.94,-6.14,-8.50,-6.15,-8.51,8.51,8.66,9.35,2.37,2.37,2.36
41.35,-6.01,-8.37,-6.02,-8.38,8.38,8.47,9.11,2.38,2.36,2.36
41.76,-5.87,-8.22,-5.90,-8.26,8.26,8.28,8.88,2.39,2.35,2.35
42.18,-5.76,-8.11,-5.79,-8.14,8.14,8.08,8.66,2.38,2.35,2.35
42.60,-5.66,-8.00,-5.68,-8.02,8.02,7.89,8.43,2.36,2.34,2.34
43.03,-5.56,-7.89,-5.57,-7.90,7.90,7.70,8.22,2.34,2.33,2.33
43.46,-5.47,-7.79,-5.47,-7.78,7.78,7.50,8.01,2.31,2.31,2.32
43.90,-5.37,-7.68,-5.36,-7.66,7.66,7.31,7.80,2.29,2.30,2.30
44.33,-5.25,-7.53,-5.26,-7.55,7.55,7.12,7.60,2.30,2.29,2.28
44.78,-5.11,-7.38,-5.17,-7.44,7.44,6.94,7.40,2.33,2.28,2.26
45.23,-5.03,-7.29,-5.07,-7.34,7.34,6.75,7.21,2.31,2.26,2.25
45.68,-5.01,-7.25,-4.98,-7.23,7.23,6.57,7.02,2.22,2.25,2.24
46.13,-4.95,-7.17,-4.88,-7.11,7.11,6.39,6.84,2.17,2.24,2.22
46.60,-4.82,-7.05,-4.78,-7.00,7.00,6.21,6.66,2.18,2.22,2.22
47.06,-4.69,-6.89,-4.68,-6.88,6.88,6.04,6.48,2.19,2.21,2.20
47.53,-4.57,-6.76,-4.57,-6.76,6.76,5.87,6.31,2.19,2.19,2.19
48.01,-4.46,-6.65,-4.46,-6.63,6.63,5.71,6.14,2.17,2.18,2.19
48.49,-4.36,-6.53,-4.34,-6.51,6.51,5.54,5.98,2.15,2.16,2.17
48.97,-4.26,-6.41,-4.23,-6.38,6.38,5.39,5.82,2.12,2.15,2.15
49.46,-4.12,-6.25,-4.12,-6.26,6.26,5.23,5.66,2.14,2.14,2.13
49.96,-3.97,-6.09,-4.01,-6.13,6.13,5.08,5.50,2.16,2.12,2.11
50.46,-3.87,-5.98,-3.89,-6.00,6.00,4.93,5.35,2.13,2.11,2.10
50.96,-3.78,-5.87,-3.77,-5.86,5.86,4.79,5.20,2.08,2.10,2.09
51.47,-3.64,-5.71,-3.65,-5.74,5.74,4.65,5.06,2.10,2.08,2.07
51.99,-3.50,-5.57,-3.55,-5.62,5.62,4.51,4.92,2.12,2.07,2.06
52.51,-3.42,-5.48,-3.44,-5.50,5.50,4.38,4.78,2.08,2.06,2.05
53.03,-3.33,-5.38,-3.33,-5.38,5.38,4.25,4.64,2.05,2.05,2.05
53.56,-3.24,-5.27,-3.23,-5.26,5.26,4.12,4.51,2.02,2.03,2.03
54.10,-3.15,-5.18,-3.12,-5.14,5.14,4.00,4.38,1.99,2.02,2.02
54.64,-3.02,-5.03,-3.02,-5.03,5.03,3.88,4.25,2.01,2.01,2.00
55.18,-2.91,-4.91,-2.91,-4.91,4.91,3.76,4.13,2.01,2.00,2.00
55.74,-2.81,-4.80,-2.81,-4.80,4.80,3.65,4.00,1.99,1.99,1.98
56.29,-2.72,-4.69,-2.70,-4.68,4.68,3.54,3.88,1.96,1.98,1.97
56.86,-2.62,-4.59,-2.60,-4.56,4.56,3.43,3.77,1.94,1.96,1.96
57.42,-2.51,-4.44,-2.49,-4.44,4.44,3.32,3.65,1.93,1.95,1.93
58.00,-2.38,-4.30,-2.38,-4.31,4.31,3.22,3.54,1.93,1.93,1.92
58.58,-2.26,-4.17,-2.28,-4.18,4.18,3.12,3.43,1.92,1.90,1.91
59.16,-2.16,-4.05,-2.17,-4.05,4.05,3.02,3.32,1.89,1.88,1.89
59.76,-2.08,-3.96,-2.07,-3.92,3.92,2.93,3.22,1.84,1.85,1.87
60.35,-1.97,-3.80,-1.97,-3.79,3.79,2.83,3.12,1.82,1.82,1.83
60.96,-1.84,-3.64,-1.88,-3.67,3.67,2.74,3.02,1.83,1.79,1.79
61.57,-1.78,-3.53,-1.79,-3.54,3.54,2.65,2.92,1.76,1.75,1.75
62.18,-1.70,-3.41,-1.69,-3.41,3.41,2.56,2.83,1.71,1.71,1.71
62.80,-1.55,-3.21,-1.60,-3.27,3.27,2.48,2.73,1.72,1.67,1.66
63.43,-1.50,-3.12,-1.52,-3.15,3.15,2.39,2.64,1.65,1.63,1.62
64.07,-1.50,-3.07,-1.44,-3.02,3.02,2.31,2.55,1.52,1.59,1.57
64.71,-1.37,-2.91,-1.35,-2.89,2.89,2.23,2.47,1.52,1.54,1.53
65.35,-1.26,-2.75,-1.27,-2.76,2.76,2.15,2.38,1.50,1.49,1.49
66.01,-1.18,-2.62,-1.19,-2.63,2.63,2.08,2.30,1.45,1.45,1.44
66.67,-1.15,-2.54,-1.11,-2.51,2.51,2.00,2.22,1.36,1.40,1.39
67.33,-1.06,-2.40,-1.03,-2.38,2.38,1.93,2.14,1.32,1.35,1.34
68.01,-0.90,-2.20,-0.96,-2.26,2.26,1.86,2.06,1.36,1.30,1.30
68.69,-0.85,-2.10,-0.89,-2.14,2.14,1.79,1.98,1.29,1.25,1.25
69.37,-0.83,-2.03,-0.81,-2.01,2.01,1.72,1.91,1.18,1.20,1.20
70.07,-0.82,-1.97,-0.74,-1.89,1.89,1.65,1.84,1.07,1.15,1.15
70.77,-0.61,-1.71,-0.67,-1.76,1.76,1.58,1.76,1.15,1.09,1.10
71.48,-0.53,-1.58,-0.59,-1.63,1.63,1.51,1.69,1.10,1.04,1.05
72.19,-0.52,-1.50,-0.53,-1.51,1.51,1.45,1.62,0.99,0.98,0.98
72.91,-0.54,-1.46,-0.46,-1.39,1.39,1.38,1.55,0.85,0.93,0.92
73.64,-0.41,-1.28,-0.40,-1.28,1.28,1.32,1.48,0.87,0.87,0.87
74.38,-0.34,-1.15,-0.34,-1.15,1.15,1.26,1.41,0.81,0.82,0.81
75.12,-0.32,-1.07,-0.27,-1.03,1.03,1.19,1.35,0.71,0.76,0.75
75.87,-0.23,-0.92,-0.22,-0.92,0.92,1.13,1.28,0.69,0.70,0.69
76.63,-0.10,-0.74,-0.18,-0.83,0.83,1.07,1.21,0.73,0.65,0.64
77.40,-0.10,-0.69,-0.14,-0.74,0.74,1.01,1.15,0.64,0.60,0.59
78.17,-0.15,-0.68,-0.10,-0.64,0.64,0.95,1.08,0.49,0.54,0.53
78.95,0.01,-0.48,-0.07,-0.56,0.56,0.90,1.01,0.57,0.49,0.49
79.74,0.02,-0.42,-0.03,-0.47,0.47,0.84,0.95,0.49,0.44,0.44
80.54,-0.01,-0.40,0.01,-0.38,0.38,0.78,0.88,0.37,0.39,0.39
81.35,0.04,-0.30,0.03,-0.31,0.31,0.72,0.82,0.35,0.35,0.34
82.16,0.17,-0.12,0.06,-0.24,0.24,0.67,0.75,0.41,0.30,0.29
82.98,0.02,-0.23,0.09,-0.17,0.17,0.61,0.69,0.18,0.25,0.25
83.81,-0.13,-0.33,0.12,-0.08,0.08,0.55,0.62,-0.05,0.20,0.20
84.65,0.07,-0.08,0.16,0.00,-0.00,0.50,0.55,0.07,0.16,0.15
85.50,0.26,0.14,0.19,0.08,-0.08,0.44,0.49,0.17,0.11,0.11
86.35,0.30,0.24,0.22,0.16,-0.16,0.39,0.42,0.14,0.06,0.06
87.22,0.22,0.21,0.23,0.23,-0.23,0.33,0.35,-0.01,0.01,0.01
88.09,0.22,0.26,0.24,0.29,-0.29,0.28,0.28,-0.07,-0.04,-0.04
88.97,0.22,0.32,0.26,0.35,-0.35,0.23,0.21,-0.13,-0.09,-0.10
89.86,0.28,0.43,0.27,0.42,-0.42,0.17,0.14,-0.14,-0.14,-0.15
90.76,0.47,0.66,0.28,0.47,-0.47,0.12,0.08,-0.00,-0.19,-0.20
91.66,0.42,0.67,0.28,0.53,-0.53,0.06,0.01,-0.11,-0.25,-0.25
92.58,0.35,0.66,0.29,0.58,-0.58,0.01,-0.06,-0.23,-0.30,-0.31
93.51,0.26,0.62,0.28,0.63,-0.63,-0.04,-0.13,-0.37,-0.35,-0.36
94.44,0.11,0.51,0.26,0.65,-0.65,-0.10,-0.21,-0.54,-0.40,-0.40
95.39,0.07,0.52,0.24,0.68,-0.68,-0.15,-0.28,-0.61,-0.45,-0.45
96.34,0.20,0.70,0.22,0.72,-0.72,-0.20,-0.35,-0.52,-0.50,-0.50
97.30,0.22,0.77,0.21,0.76,-0.76,-0.26,-0.42,-0.54,-0.54,-0.55
98.28,0.21,0.81,0.20,0.79,-0.79,-0.31,-0.49,-0.58,-0.59,-0.60
99.26,0.19,0.83,0.17,0.81,-0.81,-0.36,-0.56,-0.62,-0.64,-0.64
100.25,0.17,0.86,0.15,0.84,-0.84,-0.41,-0.64,-0.67,-0.69,-0.69
101.25,0.15,0.89,0.14,0.88,-0.88,-0.47,-0.71,-0.73,-0.74,-0.74
102.27,0.14,0.93,0.14,0.92,-0.92,-0.52,-0.78,-0.78,-0.78,-0.79
103.29,0.13,0.97,0.11,0.95,-0.95,-0.57,-0.85,-0.82,-0.83,-0.84
104.32,0.11,0.99,0.10,0.98,-0.98,-0.62,-0.92,-0.87,-0.88,-0.88
105.37,0.09,1.02,0.08,1.01,-1.01,-0.68,-0.99,-0.92,-0.93,-0.93
106.42,0.06,1.04,0.05,1.04,-1.04,-0.73,-1.06,-0.98,-0.98,-0.98
107.48,0.04,1.08,0.02,1.05,-1.05,-0.78,-1.12,-1.01,-1.04,-1.04
108.56,0.01,1.10,-0.02,1.07,-1.07,-0.83,-1.19,-1.06,-1.09,-1.09
109.64,-0.01,1.13,-0.05,1.09,-1.09,-0.88,-1.25,-1.10,-1.14,-1.14
110.74,-0.02,1.18,-0.08,1.12,-1.12,-0.93,-1.32,-1.14,-1.19,-1.20
111.85,-0.08,1.16,-0.10,1.15,-1.15,-0.98,-1.38,-1.23,-1.24,-1.24
112.97,-0.38,0.92,-0.12,1.17,-1.17,-1.03,-1.43,-1.55,-1.29,-1.30
114.10,-0.30,1.05,-0.14,1.20,-1.20,-1.08,-1.49,-1.50,-1.34,-1.35
115.24,-0.01,1.38,-0.16,1.23,-1.23,-1.12,-1.54,-1.24,-1.39,-1.40
116.39,-0.13,1.32,-0.18,1.26,-1.26,-1.17,-1.59,-1.39,-1.43,-1.45
117.55,-0.23,1.26,-0.19,1.29,-1.29,-1.21,-1.63,-1.52,-1.48,-1.49
118.73,-0.25,1.28,-0.20,1.31,-1.31,-1.26,-1.67,-1.56,-1.52,-1.53
119.92,-0.24,1.32,-0.22,1.34,-1.34,-1.30,-1.71,-1.58,-1.55,-1.56
121.12,-0.11,1.48,-0.23,1.36,-1.36,-1.34,-1.74,-1.47,-1.59,-1.60
122.33,-0.16,1.47,-0.26,1.37,-1.37,-1.38,-1.77,-1.53,-1.63,-1.63
123.55,-0.26,1.40,-0.27,1.38,-1.38,-1.42,-1.80,-1.64,-1.66,-1.66
124.79,-0.31,1.38,-0.28,1.41,-1.41,-1.46,-1.82,-1.72,-1.69,-1.69
126.03,-0.31,1.41,-0.30,1.42,-1.42,-1.50,-1.84,-1.73,-1.72,-1.72
127.29,-0.30,1.44,-0.31,1.43,-1.43,-1.53,-1.85,-1.73,-1.75,-1.74
128.57,-0.33,1.45,-0.33,1.45,-1.45,-1.56,-1.86,-1.78,-1.78,-1.78
129.85,-0.39,1.42,-0.34,1.47,-1.47,-1.59,-1.86,-1.86,-1.81,-1.81
131.15,-0.45,1.39,-0.36,1.47,-1.47,-1.62,-1.86,-1.92,-1.83,-1.84
132.46,-0.47,1.40,-0.40,1.47,-1.47,-1.65,-1.86,-1.94,-1.86,-1.87
133.79,-0.48,1.42,-0.43,1.46,-1.46,-1.67,-1.85,-1.94,-1.89,-1.90
135.12,-0.46,1.47,-0.46,1.46,-1.46,-1.69,-1.84,-1.92,-1.92,-1.93
136.48,-0.32,1.63,-0.48,1.47,-1.47,-1.71,-1.82,-1.79,-1.95,-1.95
137.84,-0.41,1.58,-0.50,1.47,-1.47,-1.73,-1.81,-1.88,-1.97,-1.99
139.22,-0.45,1.57,-0.53,1.48,-1.48,-1.74,-1.79,-1.93,-2.00,-2.02
140.61,-0.41,1.64,-0.57,1.47,-1.47,-1.75,-1.76,-1.88,-2.03,-2.05
142.02,-0.67,1.40,-0.61,1.46,-1.46,-1.76,-1.74,-2.13,-2.07,-2.07
143.44,-0.86,1.24,-0.64,1.46,-1.46,-1.77,-1.71,-2.32,-2.10,-2.10
144.87,-0.84,1.30,-0.67,1.47,-1.47,-1.77,-1.68,-2.31,-2.14,-2.14
146.32,-0.66,1.52,-0.71,1.47,-1.47,-1.78,-1.66,-2.13,-2.18,-2.18
147.78,-0.64,1.57,-0.75,1.48,-1.48,-1.78,-1.63,-2.12,-2.23,-2.21
149.26,-0.79,1.47,-0.80,1.48,-1.48,-1.77,-1.59,-2.27,-2.29,-2.26
150.75,-0.86,1.46,-0.85,1.49,-1.49,-1.77,-1.56,-2.35,-2.34,-2.32
152.26,-0.92,1.47,-0.90,1.50,-1.50,-1.76,-1.53,-2.42,-2.41,-2.39
153.78,-0.98,1.48,-0.94,1.53,-1.53,-1.75,-1.50,-2.51,-2.47,-2.46
155.32,-1.03,1.50,-0.99,1.55,-1.55,-1.74,-1.47,-2.58,-2.54,-2.53
156.88,-0.99,1.62,-1.03,1.58,-1.58,-1.73,-1.43,-2.57,-2.61,-2.61
158.44,-0.95,1.74,-1.05,1.63,-1.63,-1.71,-1.40,-2.58,-2.68,-2.69
160.03,-1.10,1.67,-1.11,1.64,-1.64,-1.70,-1.37,-2.74,-2.75,-2.77
161.63,-1.19,1.65,-1.19,1.63,-1.63,-1.68,-1.34,-2.82,-2.81,-2.84
163.24,-1.25,1.65,-1.26,1.61,-1.61,-1.66,-1.31,-2.86,-2.88,-2.90
164.88,-1.33,1.62,-1.32,1.61,-1.61,-1.64,-1.28,-2.94,-2.93,-2.95
166.53,-1.37,1.63,-1.38,1.60,-1.60,-1.61,-1.25,-2.97,-2.98,-3.00
168.19,-1.44,1.60,-1.45,1.57,-1.57,-1.59,-1.23,-3.01,-3.02,-3.04
169.87,-1.49,1.59,-1.50,1.56,-1.56,-1.56,-1.20,-3.05,-3.05,-3.08
171.57,-1.55,1.55,-1.55,1.53,-1.53,-1.54,-1.17,-3.08,-3.08,-3.10
173.29,-1.55,1.56,-1.60,1.49,-1.49,-1.51,-1.15,-3.04,-3.10,-3.11
175.02,-1.75,1.37,-1.67,1.44,-1.44,-1.48,-1.12,-3.19,-3.11,-3.12
176.77,-1.89,1.24,-1.73,1.39,-1.39,-1.45,-1.10,-3.28,-3.12,-3.13
178.54,-1.83,1.31,-1.77,1.36,-1.36,-1.42,-1.08,-3.19,-3.13,-3.14
180.32,-1.72,1.41,-1.81,1.33,-1.33,-1.39,-1.06,-3.05,-3.13,-3.13
182.13,-1.75,1.37,-1.83,1.30,-1.30,-1.36,-1.04,-3.05,-3.14,-3.12
183.95,-1.90,1.23,-1.85,1.29,-1.29,-1.33,-1.02,-3.19,-3.14,-3.13
185.79,-1.80,1.33,-1.88,1.27,-1.27,-1.30,-1.00,-3.07,-3.15,-3.13
187.65,-1.79,1.36,-1.91,1.25,-1.25,-1.27,-0.99,-3.04,-3.16,-3.15
189.52,-2.03,1.13,-1.94,1.23,-1.23,-1.24,-0.97,-3.26,-3.17,-3.16
191.42,-2.13,1.05,-1.97,1.21,-1.21,-1.21,-0.96,-3.34,-3.18,-3.18
193.33,-2.06,1.14,-1.99,1.21,-1.21,-1.18,-0.94,-3.27,-3.20,-3.20
195.27,-1.96,1.26,-2.01,1.21,-1.21,-1.14,-0.93,-3.17,-3.21,-3.22
197.22,-1.91,1.33,-2.04,1.19,-1.19,-1.11,-0.92,-3.10,-3.23,-3.24
199.19,-1.98,1.28,-2.08,1.17,-1.17,-1.08,-0.90,-3.15,-3.25,-3.26
201.18,-2.00,1.28,-2.12,1.15,-1.15,-1.05,-0.89,-3.15,-3.27,-3.28
203.19,-2.16,1.14,-2.15,1.14,-1.14,-1.02,-0.88,-3.30,-3.29,-3.30
205.23,-2.34,0.98,-2.18,1.13,-1.13,-0.99,-0.87,-3.47,-3.31,-3.32
207.28,-2.32,1.01,-2.21,1.12,-1.12,-0.96,-0.86,-3.44,-3.33,-3.33
209.35,-2.26,1.09,-2.24,1.12,-1.12,-0.93,-0.86,-3.38,-3.35,-3.35
211.44,-2.20,1.18,-2.26,1.11,-1.11,-0.90,-0.85,-3.31,-3.37,-3.38
213.56,-2.27,1.12,-2.30,1.09,-1.09,-0.87,-0.84,-3.36,-3.38,-3.39
215.69,-2.38,1.02,-2.33,1.06,-1.06,-0.84,-0.83,-3.44,-3.40,-3.40
217.85,-2.39,1.02,-2.37,1.04,-1.04,-0.81,-0.82,-3.43,-3.41,-3.41
220.03,-2.34,1.08,-2.40,1.02,-1.02,-0.78,-0.81,-3.36,-3.42,-3.42
222.23,-2.37,1.08,-2.42,1.00,-1.00,-0.75,-0.81,-3.37,-3.43,-3.45
224.45,-2.48,0.96,-2.45,0.98,-0.98,-0.72,-0.80,-3.46,-3.43,-3.44
226.70,-2.46,0.98,-2.46,0.96,-0.96,-0.69,-0.79,-3.42,-3.43,-3.44
228.96,-2.44,0.99,-2.48,0.94,-0.94,-0.67,-0.78,-3.38,-3.42,-3.43
231.25,-2.55,0.87,-2.51,0.90,-0.90,-0.64,-0.77,-3.45,-3.42,-3.42
233.57,-2.58,0.83,-2.54,0.86,-0.86,-0.61,-0.76,-3.44,-3.40,-3.41
235.90,-2.54,0.86,-2.58,0.81,-0.81,-0.58,-0.75,-3.35,-3.39,-3.40
238.26,-2.53,0.86,-2.60,0.77,-0.77,-0.56,-0.74,-3.30,-3.37,-3.39
240.64,-2.66,0.70,-2.63,0.73,-0.73,-0.53,-0.72,-3.39,-3.35,-3.36
243.05,-2.73,0.60,-2.66,0.68,-0.68,-0.50,-0.71,-3.41,-3.33,-3.33
245.48,-2.71,0.60,-2.68,0.63,-0.63,-0.48,-0.70,-3.34,-3.31,-3.31
247.93,-2.66,0.62,-2.70,0.59,-0.59,-0.45,-0.68,-3.25,-3.28,-3.28
250.41,-2.62,0.64,-2.71,0.55,-0.55,-0.42,-0.66,-3.17,-3.26,-3.26
252.92,-2.68,0.55,-2.72,0.51,-0.51,-0.40,-0.65,-3.19,-3.24,-3.23
255.45,-2.75,0.46,-2.72,0.49,-0.49,-0.37,-0.63,-3.24,-3.21,-3.21
258.00,-2.83,0.36,-2.71,0.48,-0.48,-0.35,-0.61,-3.31,-3.19,-3.19
260.58,-2.83,0.34,-2.70,0.46,-0.46,-0.32,-0.59,-3.29,-3.16,-3.17
263.19,-2.70,0.44,-2.70,0.44,-0.44,-0.29,-0.57,-3.14,-3.14,-3.14
265.82,-2.67,0.45,-2.70,0.41,-0.41,-0.27,-0.54,-3.08,-3.11,-3.12
268.48,-2.70,0.40,-2.70,0.39,-0.39,-0.24,-0.52,-3.09,-3.09,-3.10
271.16,-2.65,0.42,-2.69,0.37,-0.37,-0.22,-0.49,-3.02,-3.06,-3.07
273.87,-2.67,0.38,-2.69,0.35,-0.35,-0.19,-0.47,-3.02,-3.04,-3.05
276.61,-2.61,0.41,-2.69,0.33,-0.33,-0.17,-0.44,-2.94,-3.01,-3.02
279.38,-2.54,0.45,-2.68,0.30,-0.30,-0.14,-0.41,-2.84,-2.99,-2.99
282.17,-2.60,0.37,-2.68,0.28,-0.28,-0.11,-0.39,-2.88,-2.96,-2.97
284.99,-2.72,0.21,-2.67,0.26,-0.26,-0.09,-0.36,-2.98,-2.93,-2.93
287.84,-2.84,0.07,-2.67,0.23,-0.23,-0.06,-0.33,-3.07,-2.90,-2.91
290.72,-2.84,0.04,-2.67,0.21,-0.21,-0.03,-0.30,-3.05,-2.87,-2.88
293.63,-2.70,0.15,-2.69,0.16,-0.16,-0.01,-0.26,-2.86,-2.84,-2.85
296.57,-2.67,0.15,-2.70,0.11,-0.11,0.02,-0.23,-2.78,-2.81,-2.82
299.53,-2.66,0.13,-2.72,0.07,-0.07,0.05,-0.20,-2.73,-2.79,-2.79
302.53,-2.68,0.09,-2.74,0.02,-0.02,0.08,-0.17,-2.70,-2.76,-2.77
305.55,-2.73,-0.00,-2.76,-0.03,0.03,0.11,-0.13,-2.70,-2.73,-2.73
308.61,-2.79,-0.08,-2.79,-0.08,0.08,0.13,-0.10,-2.71,-2.71,-2.71
311.69,-2.80,-0.12,-2.82,-0.14,0.14,0.16,-0.07,-2.66,-2.68,-2.68
314.81,-2.72,-0.06,-2.84,-0.18,0.18,0.19,-0.03,-2.54,-2.66,-2.66
317.96,-2.80,-0.16,-2.87,-0.23,0.23,0.22,0.00,-2.57,-2.64,-2.64
321.14,-2.93,-0.30,-2.90,-0.28,0.28,0.25,0.04,-2.65,-2.62,-2.63
324.35,-3.11,-0.50,-2.94,-0.33,0.33,0.28,0.07,-2.78,-2.61,-2.61
327.59,-2.99,-0.39,-2.97,-0.38,0.38,0.32,0.11,-2.61,-2.59,-2.60
330.87,-3.01,-0.42,-3.00,-0.42,0.42,0.35,0.15,-2.59,-2.58,-2.59
334.18,-3.09,-0.52,-3.03,-0.47,0.47,0.38,0.18,-2.62,-2.57,-2.57
337.52,-3.12,-0.56,-3.07,-0.51,0.51,0.41,0.22,-2.61,-2.56,-2.56
340.90,-3.13,-0.58,-3.10,-0.55,0.55,0.45,0.26,-2.58,-2.55,-2.55
344.30,-3.13,-0.59,-3.13,-0.59,0.59,0.48,0.29,-2.54,-2.54,-2.54
347.75,-3.13,-0.59,-3.16,-0.63,0.63,0.52,0.33,-2.50,-2.54,-2.54
351.23,-3.12,-0.59,-3.20,-0.66,0.66,0.55,0.37,-2.46,-2.53,-2.53
354.74,-3.12,-0.58,-3.22,-0.69,0.69,0.59,0.41,-2.43,-2.53,-2.54
358.28,-3.12,-0.59,-3.25,-0.72,0.72,0.62,0.45,-2.40,-2.52,-2.53
361.87,-3.23,-0.70,-3.27,-0.75,0.75,0.66,0.49,-2.48,-2.52,-2.53
365.49,-3.41,-0.89,-3.31,-0.78,0.78,0.70,0.53,-2.63,-2.52,-2.52
369.14,-3.46,-0.93,-3.33,-0.81,0.81,0.73,0.57,-2.65,-2.52,-2.53
372.83,-3.43,-0.90,-3.36,-0.83,0.83,0.77,0.61,-2.60,-2.52,-2.53
376.56,-3.41,-0.87,-3.39,-0.87,0.87,0.81,0.65,-2.54,-2.53,-2.54
380.33,-3.45,-0.92,-3.43,-0.90,0.90,0.85,0.69,-2.55,-2.53,-2.53
384.13,-3.49,-0.96,-3.48,-0.94,0.94,0.89,0.73,-2.55,-2.53,-2.53
387.97,-3.53,-0.99,-3.52,-0.99,0.99,0.92,0.77,-2.54,-2.54,-2.54
391.85,-3.53,-0.98,-3.58,-1.03,1.03,0.96,0.81,-2.50,-2.54,-2.55
395.77,-3.53,-0.99,-3.63,-1.08,1.08,1.00,0.85,-2.45,-2.55,-2.54
399.73,-3.54,-0.99,-3.68,-1.13,1.13,1.04,0.89,-2.41,-2.55,-2.55
403.72,-3.65,-1.10,-3.73,-1.17,1.17,1.07,0.93,-2.48,-2.56,-2.55
407.76,-3.74,-1.17,-3.78,-1.22,1.22,1.11,0.97,-2.52,-2.56,-2.57
411.84,-3.85,-1.28,-3.84,-1.27,1.27,1.14,1.01,-2.58,-2.57,-2.57
415.96,-3.92,-1.35,-3.88,-1.32,1.32,1.18,1.05,-2.60,-2.57,-2.57
420.12,-3.95,-1.38,-3.92,-1.36,1.36,1.21,1.09,-2.59,-2.56,-2.57
424.32,-4.05,-1.48,-3.96,-1.40,1.40,1.24,1.12,-2.65,-2.56,-2.57
428.56,-4.06,-1.50,-3.98,-1.43,1.43,1.27,1.16,-2.63,-2.55,-2.56
432.85,-4.05,-1.50,-3.99,-1.46,1.46,1.29,1.19,-2.59,-2.53,-2.55
437.18,-4.06,-1.52,-3.97,-1.46,1.46,1.32,1.23,-2.60,-2.51,-2.54
441.55,-3.99,-1.49,-3.95,-1.46,1.46,1.34,1.26,-2.53,-2.49,-2.50
445.96,-3.89,-1.42,-3.89,-1.44,1.44,1.36,1.29,-2.45,-2.46,-2.47
