frequency,raw,error,smoothed,error_smoothed,equalization,parametric_eq,fixed_band_eq,equalized_raw,equalized_smoothed,target
20.00,-9.89,-11.17,-9.73,-11.04,11.04,10.84,3.04,1.15,1.31,1.28
20.20,-9.73,-11.06,-9.63,-10.97,10.97,10.81,3.12,1.24,1.35,1.33
20.40,-9.57,-10.95,-9.52,-10.90,10.90,10.77,3.21,1.34,1.38,1.38
20.61,-9.41,-10.82,-9.42,-10.83,10.83,10.73,3.30,1.42,1.41,1.41
20.81,-9.25,-10.71,-9.31,-10.75,10.75,10.67,3.39,1.51,1.44,1.46
21.02,-9.09,-10.59,-9.20,-10.67,10.67,10.60,3.49,1.58,1.47,1.50
21.23,-8.96,-10.48,-9.09,-10.58,10.58,10.53,3.59,1.62,1.50,1.52
21.44,-8.84,-10.37,-8.97,-10.49,10.49,10.45,3.69,1.65,1.52,1.54
21.66,-8.71,-10.27,-8.85,-10.39,10.39,10.36,3.79,1.68,1.54,1.56
21.87,-8.58,-10.14,-8.73,-10.29,10.29,10.26,3.90,1.71,1.56,1.57
22.09,-8.49,-10.07,-8.61,-10.18,10.18,10.16,4.01,1.69,1.57,1.59
22.31,-8.45,-10.04,-8.48,-10.06,10.06,10.05,4.12,1.62,1.58,1.59
22.54,-8.41,-10.00,-8.37,-9.96,9.96,9.94,4.24,1.55,1.59,1.59
22.76,-8.36,-9.95,-8.25,-9.85,9.85,9.82,4.36,1.49,1.59,1.59
22.99,-8.32,-9.90,-8.13,-9.73,9.73,9.70,4.48,1.41,1.60,1.58
23.22,-8.14,-9.72,-8.00,-9.59,9.59,9.57,4.60,1.45,1.60,1.58
23.45,-7.95,-9.53,-7.85,-9.44,9.44,9.45,4.73,1.50,1.60,1.58
23.69,-7.75,-9.34,-7.68,-9.28,9.28,9.32,4.86,1.53,1.60,1.59
23.92,-7.56,-9.15,-7.51,-9.11,9.11,9.18,4.99,1.55,1.60,1.59
24.16,-7.37,-8.97,-7.33,-8.93,8.93,9.05,5.13,1.56,1.60,1.60
24.40,-7.17,-8.77,-7.17,-8.77,8.77,8.91,5.27,1.60,1.60,1.61
24.65,-6.97,-8.57,-7.04,-8.63,8.63,8.78,5.41,1.66,1.59,1.60
24.89,-6.77,-8.36,-6.91,-8.51,8.51,8.64,5.55,1.74,1.60,1.60
25.14,-6.62,-8.21,-6.80,-8.40,8.40,8.50,5.69,1.78,1.60,1.59
25.39,-6.49,-8.09,-6.69,-8.29,8.29,8.36,5.84,1.80,1.60,1.60
25.65,-6.37,-7.97,-6.58,-8.17,8.17,8.23,5.99,1.81,1.60,1.60
25.91,-6.25,-7.84,-6.47,-8.07,8.07,8.09,6.13,1.82,1.60,1.59
26.16,-6.26,-7.85,-6.35,-7.95,7.95,7.95,6.28,1.69,1.60,1.59
26.43,-6.35,-7.94,-6.23,-7.82,7.82,7.82,6.43,1.47,1.59,1.59
26.69,-6.45,-8.04,-6.09,-7.68,7.68,7.68,6.57,1.23,1.59,1.59
26.96,-6.54,-8.13,-5.96,-7.55,7.55,7.55,6.71,1.01,1.59,1.60
27.23,-6.25,-7.85,-5.85,-7.44,7.44,7.42,6.85,1.18,1.59,1.60
27.50,-5.89,-7.48,-5.75,-7.34,7.34,7.28,6.99,1.45,1.59,1.59
27.77,-5.52,-7.11,-5.66,-7.24,7.24,7.15,7.12,1.72,1.58,1.58
28.05,-5.20,-6.78,-5.54,-7.13,7.13,7.03,7.25,1.93,1.58,1.58
28.33,-5.07,-6.64,-5.41,-6.99,6.99,6.90,7.36,1.92,1.58,1.57
28.62,-4.93,-6.50,-5.27,-6.84,6.84,6.77,7.48,1.91,1.58,1.57
28.90,-4.80,-6.37,-5.11,-6.69,6.69,6.65,7.58,1.89,1.58,1.58
29.19,-4.81,-6.37,-4.94,-6.52,6.52,6.53,7.67,1.71,1.57,1.56
29.48,-4.91,-6.49,-4.77,-6.35,6.35,6.41,7.75,1.44,1.57,1.58
29.78,-5.01,-6.58,-4.62,-6.19,6.19,6.29,7.82,1.18,1.57,1.57
30.08,-4.99,-6.57,-4.48,-6.04,6.04,6.17,7.88,1.06,1.57,1.58
30.38,-4.63,-6.20,-4.36,-5.93,5.93,6.06,7.93,1.29,1.57,1.57
30.68,-4.25,-5.81,-4.25,-5.82,5.82,5.94,7.96,1.57,1.56,1.56
30.99,-3.89,-5.45,-4.14,-5.70,5.70,5.83,7.97,1.81,1.56,1.56
31.30,-3.79,-5.35,-4.01,-5.57,5.57,5.72,7.97,1.78,1.56,1.56
31.61,-3.70,-5.26,-3.85,-5.41,5.41,5.61,7.96,1.71,1.56,1.56
31.93,-3.61,-5.16,-3.66,-5.22,5.22,5.51,7.93,1.61,1.55,1.55
32.24,-3.49,-5.03,-3.46,-5.01,5.01,5.40,7.89,1.52,1.55,1.54
32.57,-3.36,-4.91,-3.26,-4.81,4.81,5.30,7.84,1.45,1.54,1.55
32.89,-3.23,-4.77,-3.09,-4.62,4.62,5.20,7.77,1.40,1.54,1.55
33.22,-3.09,-4.62,-2.95,-4.48,4.48,5.10,7.69,1.39,1.53,1.53
33.55,-2.94,-4.47,-2.86,-4.38,4.38,5.00,7.60,1.45,1.53,1.53
33.89,-2.80,-4.31,-2.81,-4.33,4.33,4.91,7.49,1.54,1.52,1.52
34.23,-2.60,-4.12,-2.76,-4.28,4.28,4.81,7.38,1.68,1.52,1.52
34.57,-2.38,-3.89,-2.69,-4.20,4.20,4.72,7.26,1.82,1.51,1.51
34.92,-2.15,-3.66,-2.59,-4.10,4.10,4.63,7.14,1.95,1.51,1.51
35.27,-2.28,-3.78,-2.51,-4.01,4.01,4.54,7.01,1.74,1.50,1.50
35.62,-2.52,-4.01,-2.44,-3.94,3.94,4.45,6.87,1.43,1.50,1.50
35.97,-2.75,-4.24,-2.39,-3.88,3.88,4.37,6.73,1.13,1.50,1.49
36.33,-2.72,-4.22,-2.34,-3.83,3.83,4.28,6.59,1.11,1.49,1.50
36.70,-2.66,-4.14,-2.29,-3.79,3.79,4.20,6.44,1.13,1.49,1.49
37.06,-2.54,-4.02,-2.26,-3.76,3.76,4.12,6.29,1.21,1.49,1.48
37.43,-2.17,-3.67,-2.24,-3.73,3.73,4.04,6.14,1.56,1.49,1.50
37.81,-1.80,-3.29,-2.21,-3.70,3.70,3.96,6.00,1.90,1.49,1.49
38.19,-1.71,-3.19,-2.17,-3.66,3.66,3.88,5.85,1.95,1.49,1.49
38.57,-1.91,-3.40,-2.11,-3.60,3.60,3.81,5.70,1.69,1.49,1.49
38.95,-2.12,-3.61,-2.02,-3.51,3.51,3.73,5.55,1.39,1.49,1.49
39.34,-2.04,-3.53,-1.89,-3.38,3.38,3.66,5.41,1.34,1.49,1.49
39.74,-1.93,-3.41,-1.77,-3.25,3.25,3.59,5.26,1.32,1.49,1.48
40.14,-1.84,-3.33,-1.67,-3.15,3.15,3.52,5.12,1.31,1.48,1.49
40.54,-1.77,-3.25,-1.59,-3.07,3.07,3.45,4.98,1.30,1.48,1.48
40.94,-1.70,-3.17,-1.52,-3.00,3.00,3.39,4.85,1.30,1.48,1.47
41.35,-1.49,-2.95,-1.46,-2.93,2.93,3.32,4.72,1.44,1.47,1.47
41.76,-1.26,-2.72,-1.40,-2.86,2.86,3.26,4.58,1.61,1.46,1.46
42.18,-1.10,-2.56,-1.33,-2.78,2.78,3.19,4.46,1.68,1.45,1.46
42.60,-1.02,-2.46,-1.23,-2.67,2.67,3.13,4.33,1.65,1.44,1.44
43.03,-0.96,-2.39,-1.13,-2.56,2.56,3.07,4.21,1.60,1.43,1.44
43.46,-1.09,-2.52,-1.04,-2.45,2.45,3.01,4.09,1.36,1.41,1.43
43.90,-1.23,-2.63,-0.97,-2.37,2.37,2.95,3.97,1.15,1.40,1.40
44.33,-1.12,-2.50,-0.93,-2.32,2.32,2.89,3.86,1.20,1.39,1.38
44.78,-0.94,-2.30,-0.92,-2.29,2.29,2.84,3.75,1.35,1.37,1.36
45.23,-0.85,-2.20,-0.93,-2.29,2.29,2.78,3.64,1.44,1.36,1.35
45.68,-0.85,-2.18,-0.97,-2.31,2.31,2.73,3.54,1.46,1.34,1.33
46.13,-0.86,-2.17,-1.01,-2.33,2.33,2.68,3.43,1.48,1.32,1.31
46.60,-0.91,-2.22,-1.05,-2.35,2.35,2.62,3.34,1.45,1.31,1.31
47.06,-0.96,-2.25,-1.07,-2.36,2.36,2.57,3.24,1.40,1.29,1.29
47.53,-1.01,-2.29,-1.09,-2.36,2.36,2.52,3.15,1.36,1.27,1.28
48.01,-1.06,-2.33,-1.10,-2.36,2.36,2.47,3.05,1.30,1.26,1.27
48.49,-1.26,-2.51,-1.10,-2.34,2.34,2.43,2.97,1.09,1.24,1.25
48.97,-1.45,-2.68,-1.10,-2.33,2.33,2.38,2.88,0.88,1.23,1.23
49.46,-1.40,-2.60,-1.10,-2.31,2.31,2.33,2.80,0.91,1.21,1.21
49.96,-1.34,-2.52,-1.09,-2.28,2.28,2.29,2.71,0.94,1.19,1.18
50.46,-1.11,-2.29,-1.07,-2.24,2.24,2.24,2.64,1.13,1.18,1.18
50.96,-0.87,-2.03,-1.04,-2.21,2.21,2.20,2.56,1.34,1.16,1.16
51.47,-0.89,-2.03,-1.01,-2.15,2.15,2.16,2.48,1.27,1.15,1.14
51.99,-0.93,-2.05,-0.96,-2.09,2.09,2.11,2.41,1.16,1.13,1.12
52.51,-0.89,-2.00,-0.93,-2.04,2.04,2.07,2.34,1.15,1.12,1.11
53.03,-0.85,-1.96,-0.91,-2.01,2.01,2.03,2.27,1.16,1.10,1.11
53.56,-0.78,-1.87,-0.89,-1.98,1.98,1.99,2.21,1.20,1.08,1.09
54.10,-0.75,-1.82,-0.90,-1.97,1.97,1.96,2.14,1.22,1.07,1.07
54.64,-0.86,-1.91,-0.95,-2.01,2.01,1.92,2.08,1.15,1.06,1.05
55.18,-0.99,-2.03,-1.03,-2.07,2.07,1.88,2.02,1.08,1.04,1.04
55.74,-1.16,-2.18,-1.12,-2.15,2.15,1.84,1.96,0.99,1.03,1.02
56.29,-1.22,-2.23,-1.22,-2.23,2.23,1.81,1.90,1.01,1.01,1.01
56.86,-1.17,-2.16,-1.32,-2.32,2.32,1.77,1.85,1.15,0.99,0.99
57.42,-1.40,-2.36,-1.43,-2.40,2.40,1.74,1.79,1.00,0.97,0.96
58.00,-1.73,-2.67,-1.55,-2.50,2.50,1.71,1.74,0.77,0.95,0.95
58.58,-1.77,-2.70,-1.67,-2.59,2.59,1.67,1.69,0.83,0.92,0.93
59.16,-1.85,-2.76,-1.79,-2.68,2.68,1.64,1.64,0.84,0.89,0.91
59.76,-2.03,-2.91,-1.90,-2.76,2.76,1.61,1.60,0.74,0.86,0.88
60.35,-2.04,-2.87,-2.00,-2.82,2.82,1.58,1.55,0.79,0.83,0.84
60.96,-1.93,-2.73,-2.07,-2.86,2.86,1.55,1.51,0.93,0.79,0.80
61.57,-1.98,-2.73,-2.12,-2.87,2.87,1.52,1.46,0.89,0.75,0.75
62.18,-2.10,-2.80,-2.16,-2.87,2.87,1.49,1.42,0.77,0.71,0.70
62.80,-2.33,-2.98,-2.20,-2.86,2.86,1.46,1.38,0.53,0.66,0.65
63.43,-2.34,-2.94,-2.21,-2.82,2.82,1.43,1.34,0.48,0.61,0.60
64.07,-2.25,-2.80,-2.18,-2.74,2.74,1.41,1.30,0.50,0.56,0.55
64.71,-2.19,-2.69,-2.14,-2.65,2.65,1.38,1.27,0.46,0.51,0.50
65.35,-2.12,-2.58,-2.10,-2.55,2.55,1.35,1.23,0.44,0.46,0.46
66.01,-2.06,-2.46,-2.02,-2.43,2.43,1.33,1.20,0.37,0.41,0.41
66.67,-1.97,-2.32,-1.94,-2.29,2.29,1.30,1.17,0.32,0.35,0.35
67.33,-1.88,-2.17,-1.86,-2.16,2.16,1.28,1.13,0.28,0.30,0.30
68.01,-1.77,-2.02,-1.77,-2.02,2.02,1.25,1.10,0.25,0.24,0.25
68.69,-1.74,-1.93,-1.68,-1.87,1.87,1.23,1.07,0.13,0.19,0.19
69.37,-1.61,-1.74,-1.58,-1.71,1.71,1.21,1.04,0.11,0.13,0.13
70.07,-1.41,-1.48,-1.50,-1.57,1.57,1.18,1.01,0.16,0.07,0.07
70.77,-1.34,-1.36,-1.43,-1.44,1.44,1.16,0.99,0.10,0.01,0.02
71.48,-1.25,-1.21,-1.38,-1.33,1.33,1.14,0.96,0.08,-0.05,-0.04
72.19,-1.18,-1.07,-1.34,-1.23,1.23,1.12,0.93,0.05,-0.11,-0.11
72.91,-1.17,-1.00,-1.32,-1.14,1.14,1.10,0.91,-0.03,-0.17,-0.17
73.64,-1.29,-1.05,-1.30,-1.06,1.06,1.08,0.88,-0.23,-0.24,-0.24
74.38,-1.35,-1.05,-1.27,-0.97,0.97,1.06,0.86,-0.38,-0.30,-0.30
75.12,-1.36,-0.99,-1.27,-0.90,0.90,1.04,0.83,-0.45,-0.36,-0.37
75.87,-1.36,-0.92,-1.28,-0.85,0.85,1.02,0.81,-0.51,-0.43,-0.44
76.63,-1.36,-0.86,-1.28,-0.79,0.79,1.00,0.79,-0.56,-0.49,-0.49
77.40,-1.36,-0.81,-1.29,-0.74,0.74,0.99,0.77,-0.62,-0.55,-0.55
78.17,-1.36,-0.74,-1.31,-0.71,0.71,0.97,0.74,-0.65,-0.61,-0.62
78.95,-1.36,-0.69,-1.34,-0.67,0.67,0.95,0.72,-0.69,-0.67,-0.66
79.74,-1.36,-0.63,-1.37,-0.64,0.64,0.93,0.70,-0.72,-0.73,-0.73
80.54,-1.33,-0.55,-1.38,-0.60,0.60,0.92,0.68,-0.73,-0.78,-0.78
81.35,-1.25,-0.41,-1.39,-0.55,0.55,0.90,0.66,-0.70,-0.84,-0.84
82.16,-1.21,-0.31,-1.39,-0.50,0.50,0.89,0.64,-0.71,-0.90,-0.90
82.98,-1.60,-0.66,-1.40,-0.45,0.45,0.87,0.62,-1.15,-0.95,-0.94
83.81,-1.41,-0.40,-1.42,-0.41,0.41,0.86,0.60,-0.99,-1.01,-1.01
84.65,-1.36,-0.29,-1.44,-0.38,0.38,0.84,0.58,-0.98,-1.06,-1.07
85.50,-1.52,-0.40,-1.45,-0.33,0.33,0.83,0.56,-1.18,-1.12,-1.11
86.35,-1.67,-0.49,-1.46,-0.29,0.29,0.82,0.55,-1.38,-1.18,-1.17
87.22,-1.59,-0.36,-1.48,-0.24,0.24,0.80,0.53,-1.35,-1.24,-1.23
88.09,-1.46,-0.17,-1.51,-0.21,0.21,0.79,0.51,-1.25,-1.30,-1.29
88.97,-1.47,-0.11,-1.53,-0.18,0.18,0.78,0.49,-1.29,-1.36,-1.35
89.86,-1.54,-0.12,-1.57,-0.15,0.15,0.77,0.47,-1.39,-1.42,-1.42
90.76,-1.61,-0.13,-1.62,-0.15,0.15,0.75,0.46,-1.46,-1.48,-1.48
91.66,-1.66,-0.13,-1.68,-0.14,0.14,0.74,0.44,-1.51,-1.54,-1.53
92.58,-1.68,-0.07,-1.72,-0.12,0.12,0.73,0.42,-1.56,-1.60,-1.61
93.51,-1.64,0.02,-1.78,-0.12,0.12,0.72,0.40,-1.51,-1.65,-1.66
94.44,-1.68,0.04,-1.84,-0.12,0.12,0.71,0.39,-1.56,-1.71,-1.72
95.39,-1.87,-0.10,-1.89,-0.11,0.11,0.70,0.37,-1.76,-1.77,-1.77
96.34,-2.07,-0.23,-1.97,-0.14,0.14,0.69,0.36,-1.93,-1.83,-1.84
97.30,-2.16,-0.27,-2.07,-0.18,0.18,0.68,0.34,-1.98,-1.89,-1.89
98.28,-2.21,-0.26,-2.15,-0.20,0.20,0.67,0.32,-2.00,-1.95,-1.95
99.26,-2.39,-0.38,-2.23,-0.22,0.22,0.67,0.31,-2.17,-2.01,-2.01
100.25,-2.51,-0.45,-2.31,-0.25,0.25,0.66,0.29,-2.26,-2.06,-2.06
101.25,-2.27,-0.15,-2.39,-0.27,0.27,0.65,0.28,-2.00,-2.12,-2.12
102.27,-2.21,-0.03,-2.48,-0.30,0.30,0.64,0.27,-1.91,-2.18,-2.18
103.29,-2.51,-0.26,-2.56,-0.32,0.32,0.64,0.25,-2.19,-2.24,-2.25
104.32,-2.67,-0.38,-2.63,-0.33,0.33,0.63,0.24,-2.33,-2.30,-2.29
105.37,-2.72,-0.37,-2.70,-0.34,0.34,0.62,0.23,-2.38,-2.36,-2.35
106.42,-2.96,-0.55,-2.76,-0.34,0.34,0.62,0.22,-2.62,-2.42,-2.41
107.48,-2.76,-0.28,-2.81,-0.33,0.33,0.61,0.21,-2.43,-2.48,-2.48
108.56,-2.64,-0.09,-2.88,-0.33,0.33,0.61,0.20,-2.30,-2.54,-2.54
109.64,-3.07,-0.47,-2.94,-0.34,0.34,0.61,0.19,-2.73,-2.60,-2.60
110.74,-3.13,-0.46,-3.01,-0.34,0.34,0.60,0.19,-2.79,-2.67,-2.67
111.85,-3.05,-0.33,-3.08,-0.35,0.35,0.60,0.18,-2.70,-2.73,-2.72
112.97,-3.14,-0.35,-3.16,-0.37,0.37,0.60,0.18,-2.77,-2.79,-2.79
114.10,-3.18,-0.33,-3.21,-0.37,0.37,0.59,0.18,-2.81,-2.85,-2.85
115.24,-3.25,-0.34,-3.25,-0.35,0.35,0.59,0.17,-2.90,-2.90,-2.91
116.39,-3.31,-0.34,-3.30,-0.34,0.34,0.59,0.18,-2.97,-2.96,-2.97
117.55,-3.34,-0.32,-3.35,-0.34,0.34,0.59,0.18,-3.00,-3.01,-3.02
118.73,-3.40,-0.33,-3.39,-0.33,0.33,0.59,0.18,-3.06,-3.06,-3.07
119.92,-3.49,-0.38,-3.45,-0.34,0.34,0.59,0.19,-3.15,-3.11,-3.11
121.12,-3.53,-0.37,-3.50,-0.35,0.35,0.59,0.20,-3.18,-3.15,-3.16
122.33,-3.58,-0.37,-3.56,-0.36,0.36,0.59,0.21,-3.22,-3.20,-3.20
123.55,-3.61,-0.37,-3.62,-0.37,0.37,0.59,0.22,-3.23,-3.24,-3.24
124.79,-3.65,-0.37,-3.67,-0.39,0.39,0.59,0.24,-3.26,-3.28,-3.28
126.03,-3.69,-0.37,-3.74,-0.42,0.42,0.60,0.25,-3.27,-3.32,-3.32
127.29,-3.75,-0.40,-3.81,-0.45,0.45,0.60,0.27,-3.30,-3.36,-3.35
128.57,-3.82,-0.42,-3.87,-0.46,0.46,0.61,0.30,-3.35,-3.40,-3.40
129.85,-3.88,-0.44,-3.92,-0.48,0.48,0.61,0.32,-3.40,-3.44,-3.44
131.15,-3.95,-0.47,-3.97,-0.49,0.49,0.62,0.35,-3.46,-3.48,-3.48
132.46,-4.15,-0.63,-4.04,-0.53,0.53,0.62,0.38,-3.62,-3.51,-3.52
133.79,-4.35,-0.80,-4.12,-0.57,0.57,0.63,0.41,-3.78,-3.55,-3.55
135.12,-4.22,-0.62,-4.19,-0.61,0.61,0.64,0.44,-3.61,-3.59,-3.60
136.48,-4.00,-0.38,-4.25,-0.63,0.63,0.65,0.47,-3.37,-3.62,-3.62
137.84,-4.36,-0.69,-4.31,-0.65,0.65,0.66,0.51,-3.70,-3.66,-3.67
139.22,-4.48,-0.77,-4.37,-0.68,0.68,0.67,0.55,-3.80,-3.70,-3.71
140.61,-4.38,-0.63,-4.43,-0.69,0.69,0.68,0.59,-3.68,-3.74,-3.75
142.02,-4.34,-0.57,-4.48,-0.71,0.71,0.69,0.63,-3.63,-3.78,-3.77
143.44,-4.54,-0.72,-4.53,-0.71,0.71,0.71,0.68,-3.83,-3.82,-3.81
144.87,-4.76,-0.90,-4.58,-0.72,0.72,0.72,0.73,-4.04,-3.87,-3.86
146.32,-4.92,-1.01,-4.64,-0.72,0.72,0.74,0.77,-4.20,-3.92,-3.91
147.78,-4.73,-0.78,-4.70,-0.73,0.73,0.75,0.82,-4.00,-3.97,-3.95
149.26,-4.57,-0.56,-4.80,-0.77,0.77,0.77,0.88,-3.80,-4.04,-4.00
150.75,-4.77,-0.69,-4.93,-0.83,0.83,0.79,0.93,-3.94,-4.10,-4.08
152.26,-4.95,-0.79,-5.05,-0.87,0.87,0.81,0.98,-4.07,-4.17,-4.15
153.78,-5.08,-0.85,-5.15,-0.90,0.90,0.84,1.04,-4.18,-4.25,-4.23
155.32,-5.16,-0.85,-5.27,-0.95,0.95,0.86,1.10,-4.21,-4.32,-4.31
156.88,-5.32,-0.93,-5.40,-1.00,1.00,0.89,1.16,-4.32,-4.40,-4.39
158.44,-5.48,-1.00,-5.51,-1.03,1.03,0.91,1.22,-4.45,-4.48,-4.48
160.03,-5.69,-1.12,-5.61,-1.05,1.05,0.94,1.28,-4.63,-4.55,-4.57
161.63,-5.94,-1.29,-5.73,-1.10,1.10,0.98,1.34,-4.84,-4.63,-4.65
163.24,-6.11,-1.39,-5.86,-1.17,1.17,1.01,1.41,-4.94,-4.69,-4.72
164.88,-6.23,-1.45,-6.01,-1.25,1.25,1.05,1.48,-4.97,-4.76,-4.77
166.53,-6.13,-1.30,-6.13,-1.32,1.32,1.08,1.54,-4.81,-4.81,-4.83
168.19,-6.08,-1.20,-6.22,-1.37,1.37,1.12,1.61,-4.71,-4.86,-4.88
169.87,-6.25,-1.33,-6.33,-1.43,1.43,1.17,1.68,-4.81,-4.90,-4.92
171.57,-6.34,-1.40,-6.43,-1.50,1.50,1.21,1.76,-4.84,-4.93,-4.94
173.29,-6.41,-1.44,-6.52,-1.56,1.56,1.26,1.83,-4.84,-4.95,-4.96
175.02,-6.49,-1.51,-6.61,-1.64,1.64,1.31,1.91,-4.85,-4.97,-4.98
176.77,-6.73,-1.73,-6.70,-1.72,1.72,1.37,1.99,-5.01,-4.99,-5.00
178.54,-7.00,-1.99,-6.78,-1.78,1.78,1.43,2.06,-5.22,-5.00,-5.00
180.32,-6.98,-1.97,-6.85,-1.84,1.84,1.49,2.15,-5.14,-5.01,-5.00
182.13,-6.92,-1.92,-6.96,-1.93,1.93,1.55,2.23,-4.99,-5.02,-5.00
183.95,-6.99,-1.97,-7.09,-2.06,2.06,1.62,2.31,-4.93,-5.04,-5.02
185.79,-7.28,-2.25,-7.24,-2.20,2.20,1.70,2.40,-5.08,-5.05,-5.02
187.65,-7.44,-2.39,-7.39,-2.33,2.33,1.77,2.48,-5.11,-5.06,-5.05
189.52,-7.36,-2.29,-7.54,-2.47,2.47,1.86,2.57,-4.89,-5.07,-5.06
191.42,-7.60,-2.51,-7.70,-2.61,2.61,1.94,2.66,-4.99,-5.09,-5.09
193.33,-7.80,-2.69,-7.85,-2.74,2.74,2.03,2.75,-5.06,-5.11,-5.11
195.27,-7.81,-2.67,-7.96,-2.82,2.82,2.13,2.84,-4.98,-5.13,-5.13
197.22,-7.84,-2.68,-8.04,-2.89,2.89,2.23,2.93,-4.95,-5.16,-5.16
199.19,-8.25,-3.06,-8.14,-2.96,2.96,2.34,3.02,-5.29,-5.18,-5.19
201.18,-8.70,-3.49,-8.24,-3.03,3.03,2.45,3.11,-5.66,-5.20,-5.21
203.19,-8.72,-3.49,-8.32,-3.09,3.09,2.57,3.21,-5.62,-5.23,-5.23
205.23,-8.64,-3.38,-8.39,-3.14,3.14,2.69,3.30,-5.50,-5.25,-5.26
207.28,-8.61,-3.34,-8.47,-3.19,3.19,2.82,3.39,-5.42,-5.28,-5.26
209.35,-8.69,-3.40,-8.56,-3.27,3.27,2.95,3.48,-5.42,-5.30,-5.29
211.44,-8.57,-3.24,-8.69,-3.37,3.37,3.08,3.57,-5.20,-5.32,-5.33
213.56,-8.30,-2.96,-8.80,-3.46,3.46,3.23,3.66,-4.84,-5.34,-5.34
215.69,-8.36,-3.01,-8.92,-3.57,3.57,3.37,3.74,-4.79,-5.35,-5.35
217.85,-8.89,-3.52,-9.06,-3.69,3.69,3.52,3.82,-5.20,-5.37,-5.37
220.03,-9.15,-3.77,-9.21,-3.83,3.83,3.67,3.90,-5.32,-5.38,-5.38
222.23,-9.25,-3.84,-9.37,-3.98,3.98,3.82,3.98,-5.27,-5.39,-5.41
224.45,-9.55,-4.15,-9.60,-4.20,4.20,3.97,4.05,-5.35,-5.39,-5.40
226.70,-9.89,-4.48,-9.87,-4.47,4.47,4.12,4.12,-5.41,-5.40,-5.40
228.96,-10.19,-4.79,-10.13,-4.73,4.73,4.26,4.18,-5.46,-5.40,-5.40
231.25,-10.44,-5.05,-10.38,-4.99,4.99,4.40,4.23,-5.45,-5.39,-5.39
233.57,-10.59,-5.21,-10.60,-5.22,5.22,4.53,4.28,-5.37,-5.38,-5.38
235.90,-10.57,-5.19,-10.75,-5.38,5.38,4.65,4.32,-5.18,-5.37,-5.37
238.26,-10.80,-5.43,-10.82,-5.47,5.47,4.75,4.35,-5.33,-5.36,-5.37
240.64,-10.99,-5.64,-10.79,-5.45,5.45,4.84,4.38,-5.54,-5.34,-5.35
243.05,-11.22,-5.90,-10.69,-5.37,5.37,4.92,4.40,-5.85,-5.32,-5.32
245.48,-11.30,-6.00,-10.54,-5.24,5.24,4.97,4.40,-6.06,-5.30,-5.30
247.93,-11.10,-5.83,-10.37,-5.09,5.09,5.00,4.40,-6.00,-5.28,-5.27
250.41,-10.39,-5.13,-10.16,-4.91,4.91,5.00,4.39,-5.48,-5.26,-5.26
252.92,-9.77,-4.54,-9.91,-4.68,4.68,4.98,4.37,-5.09,-5.24,-5.23
255.45,-9.60,-4.39,-9.63,-4.42,4.42,4.94,4.34,-5.18,-5.21,-5.20
258.00,-8.87,-3.69,-9.33,-4.14,4.14,4.87,4.30,-4.73,-5.19,-5.18
260.58,-8.33,-3.16,-9.04,-3.88,3.88,4.79,4.26,-4.45,-5.17,-5.17
263.19,-8.27,-3.13,-8.79,-3.64,3.64,4.68,4.20,-4.63,-5.14,-5.14
265.82,-8.33,-3.20,-8.56,-3.44,3.44,4.55,4.14,-4.89,-5.12,-5.13
268.48,-8.41,-3.30,-8.39,-3.29,3.29,4.41,4.07,-5.12,-5.10,-5.10
271.16,-8.38,-3.31,-8.28,-3.20,3.20,4.25,3.99,-5.17,-5.07,-5.07
273.87,-8.51,-3.45,-8.25,-3.20,3.20,4.08,3.91,-5.31,-5.05,-5.06
276.61,-8.14,-3.11,-8.29,-3.26,3.26,3.91,3.81,-4.88,-5.03,-5.02
279.38,-7.97,-2.97,-8.38,-3.38,3.38,3.73,3.72,-4.59,-5.00,-5.00
282.17,-8.08,-3.10,-8.48,-3.50,3.50,3.54,3.62,-4.58,-4.97,-4.98
284.99,-8.40,-3.46,-8.57,-3.62,3.62,3.35,3.51,-4.78,-4.95,-4.94
287.84,-8.88,-3.95,-8.67,-3.75,3.75,3.17,3.40,-5.12,-4.92,-4.93
290.72,-9.01,-4.12,-8.73,-3.84,3.84,2.98,3.29,-5.17,-4.89,-4.89
293.63,-9.09,-4.22,-8.74,-3.88,3.88,2.79,3.17,-5.21,-4.86,-4.87
296.57,-9.10,-4.27,-8.72,-3.89,3.89,2.61,3.05,-5.21,-4.83,-4.83
299.53,-8.88,-4.07,-8.67,-3.87,3.87,2.43,2.93,-5.01,-4.81,-4.81
302.53,-8.81,-4.02,-8.60,-3.82,3.82,2.26,2.81,-4.99,-4.78,-4.79
305.55,-8.58,-3.83,-8.49,-3.73,3.73,2.09,2.68,-4.85,-4.76,-4.75
308.61,-8.29,-3.56,-8.36,-3.62,3.62,1.93,2.56,-4.67,-4.73,-4.73
311.69,-8.12,-3.41,-8.17,-3.46,3.46,1.77,2.43,-4.66,-4.71,-4.71
314.81,-7.84,-3.16,-7.93,-3.24,3.24,1.61,2.31,-4.60,-4.69,-4.68
317.96,-7.53,-2.87,-7.65,-2.98,2.98,1.46,2.18,-4.55,-4.67,-4.66
321.14,-7.29,-2.63,-7.35,-2.70,2.70,1.32,2.05,-4.59,-4.65,-4.66
324.35,-7.01,-2.37,-7.07,-2.43,2.43,1.18,1.93,-4.58,-4.64,-4.64
327.59,-6.80,-2.17,-6.78,-2.16,2.16,1.05,1.80,-4.64,-4.62,-4.62
330.87,-6.46,-1.84,-6.50,-1.89,1.89,0.92,1.67,-4.57,-4.61,-4.62
334.18,-6.18,-1.58,-6.22,-1.62,1.62,0.80,1.55,-4.56,-4.60,-4.60
337.52,-5.93,-1.33,-5.93,-1.34,1.34,0.68,1.42,-4.59,-4.59,-4.59
340.90,-5.73,-1.15,-5.66,-1.07,1.07,0.56,1.30,-4.66,-4.58,-4.58
344.30,-5.45,-0.88,-5.39,-0.81,0.81,0.45,1.18,-4.64,-4.58,-4.57
347.75,-5.12,-0.55,-5.12,-0.55,0.55,0.34,1.05,-4.57,-4.57,-4.57
351.23,-4.86,-0.29,-4.86,-0.30,0.30,0.24,0.93,-4.56,-4.57,-4.56
354.74,-4.62,-0.05,-4.62,-0.05,0.05,0.14,0.81,-4.57,-4.56,-4.57
358.28,-4.37,0.19,-4.38,0.18,-0.18,0.04,0.69,-4.55,-4.56,-4.56
361.87,-4.10,0.46,-4.15,0.41,-0.41,-0.05,0.57,-4.51,-4.56,-4.56
365.49,-3.87,0.69,-3.93,0.63,-0.63,-0.14,0.45,-4.50,-4.56,-4.55
369.14,-3.67,0.90,-3.73,0.83,-0.83,-0.23,0.33,-4.50,-4.56,-4.57
372.83,-3.51,1.06,-3.54,1.02,-1.02,-0.31,0.21,-4.53,-4.56,-4.57
376.56,-3.37,1.20,-3.37,1.19,-1.19,-0.39,0.09,-4.56,-4.57,-4.57
380.33,-3.22,1.34,-3.21,1.36,-1.36,-0.47,-0.02,-4.58,-4.57,-4.56
384.13,-3.10,1.47,-3.07,1.50,-1.50,-0.55,-0.14,-4.60,-4.57,-4.56
387.97,-2.97,1.61,-2.94,1.64,-1.64,-0.62,-0.26,-4.61,-4.58,-4.58
391.85,-2.82,1.77,-2.83,1.76,-1.76,-0.69,-0.37,-4.57,-4.58,-4.59
395.77,-2.71,1.87,-2.72,1.87,-1.87,-0.77,-0.48,-4.57,-4.59,-4.58
399.73,-2.59,2.00,-2.63,1.96,-1.96,-0.83,-0.60,-4.55,-4.60,-4.59
403.72,-2.54,2.05,-2.55,2.05,-2.05,-0.90,-0.71,-4.59,-4.60,-4.59
407.76,-2.54,2.07,-2.48,2.12,-2.12,-0.97,-0.82,-4.66,-4.61,-4.60
411.84,-2.43,2.18,-2.42,2.19,-2.19,-1.03,-0.93,-4.62,-4.61,-4.60
415.96,-2.31,2.30,-2.35,2.26,-2.26,-1.09,-1.04,-4.57,-4.61,-4.61
420.12,-2.24,2.37,-2.29,2.32,-2.32,-1.15,-1.14,-4.56,-4.61,-4.61
424.32,-2.22,2.39,-2.23,2.37,-2.37,-1.21,-1.25,-4.59,-4.60,-4.61
428.56,-2.21,2.39,-2.18,2.42,-2.42,-1.27,-1.35,-4.63,-4.59,-4.60
432.85,-2.17,2.42,-2.12,2.46,-2.46,-1.32,-1.45,-4.63,-4.58,-4.59
437.18,-2.09,2.49,-2.06,2.49,-2.49,-1.38,-1.55,-4.58,-4.56,-4.58
441.55,-2.04,2.50,-2.00,2.53,-2.53,-1.43,-1.64,-4.57,-4.53,-4.54
445.96,-1.99,2.53,-1.94,2.56,-2.56,-1.49,-1.74,-4.55,-4.50,-4.51
450.42,-1.94,2.55,-1.87,2.59,-2.59,-1.54,-1.83,-4.53,-4.46,-4.49
454.93,-1.81,2.63,-1.81,2.62,-2.62,-1.59,-1.91,-4.42,-4.42,-4.44
459.48,-1.72,2.67,-1.75,2.63,-2.63,-1.64,-1.99,-4.35,-4.38,-4.39
464.07,-1.66,2.68,-1.69,2.65,-2.65,-1.69,-2.07,-4.31,-4.33,-4.34
