frequency,raw,error,smoothed,error_smoothed,equalization,parametric_eq,fixed_band_eq,equalized_raw,equalized_smoothed,target
20.00,-16.86,-18.79,-16.86,-18.82,18.82,17.91,8.02,1.96,1.96,1.93
20.20,-16.73,-18.75,-16.73,-18.76,18.76,17.98,8.19,2.03,2.03,2.02
20.40,-16.60,-18.70,-16.60,-18.71,18.71,18.04,8.37,2.11,2.11,2.10
20.61,-16.47,-18.64,-16.47,-18.65,18.65,18.08,8.54,2.18,2.18,2.17
20.81,-16.35,-18.61,-16.34,-18.59,18.59,18.12,8.73,2.24,2.24,2.26
21.02,-16.22,-18.56,-16.21,-18.52,18.52,18.14,8.91,2.30,2.31,2.34
21.23,-16.08,-18.48,-16.08,-18.45,18.45,18.15,9.10,2.38,2.37,2.40
21.44,-15.95,-18.40,-15.95,-18.38,18.38,18.14,9.30,2.44,2.43,2.46
21.66,-15.82,-18.33,-15.82,-18.31,18.31,18.13,9.50,2.49,2.49,2.51
21.87,-15.69,-18.24,-15.69,-18.23,18.23,18.10,9.71,2.55,2.55,2.56
22.09,-15.55,-18.15,-15.55,-18.15,18.15,18.06,9.92,2.61,2.60,2.61
22.31,-15.42,-18.07,-15.42,-18.07,18.07,18.01,10.14,2.66,2.65,2.65
22.54,-15.29,-17.98,-15.29,-17.98,17.98,17.95,10.37,2.69,2.69,2.69
22.76,-15.16,-17.89,-15.16,-17.89,17.89,17.88,10.60,2.73,2.74,2.73
22.99,-15.03,-17.79,-15.02,-17.80,17.80,17.81,10.83,2.77,2.78,2.76
23.22,-14.89,-17.69,-14.89,-17.70,17.70,17.72,11.08,2.81,2.81,2.80
23.45,-14.76,-17.60,-14.75,-17.60,17.60,17.63,11.33,2.84,2.85,2.84
23.69,-14.62,-17.50,-14.62,-17.50,17.50,17.53,11.59,2.88,2.89,2.88
23.92,-14.48,-17.40,-14.48,-17.41,17.41,17.43,11.85,2.93,2.92,2.92
24.16,-14.35,-17.32,-14.35,-17.31,17.31,17.32,12.13,2.96,2.96,2.97
24.40,-14.22,-17.21,-14.22,-17.21,17.21,17.21,12.41,2.99,2.99,3.00
24.65,-14.08,-17.11,-14.08,-17.11,17.11,17.09,12.69,3.03,3.02,3.03
24.89,-13.95,-17.00,-13.95,-17.01,17.01,16.97,12.99,3.06,3.06,3.06
25.14,-13.81,-16.90,-13.81,-16.90,16.90,16.85,13.30,3.10,3.09,3.09
25.39,-13.68,-16.80,-13.68,-16.80,16.80,16.72,13.61,3.13,3.12,3.12
25.65,-13.55,-16.71,-13.55,-16.70,16.70,16.60,13.93,3.15,3.16,3.16
25.91,-13.42,-16.60,-13.41,-16.60,16.60,16.47,14.27,3.18,3.19,3.18
26.16,-13.28,-16.49,-13.28,-16.50,16.50,16.34,14.61,3.22,3.22,3.21
26.43,-13.15,-16.40,-13.15,-16.40,16.40,16.22,14.96,3.25,3.25,3.25
26.69,-13.02,-16.30,-13.02,-16.29,16.29,16.09,15.31,3.27,3.28,3.28
26.96,-12.88,-16.19,-12.88,-16.19,16.19,15.96,15.68,3.31,3.31,3.31
27.23,-12.75,-16.09,-12.75,-16.09,16.09,15.83,16.05,3.34,3.34,3.34
27.50,-12.62,-15.99,-12.62,-15.98,15.98,15.71,16.42,3.37,3.37,3.37
27.77,-12.49,-15.88,-12.49,-15.88,15.88,15.58,16.80,3.40,3.40,3.39
28.05,-12.36,-15.79,-12.35,-15.78,15.78,15.46,17.18,3.42,3.43,3.43
28.33,-12.23,-15.68,-12.22,-15.68,15.68,15.34,17.56,3.45,3.46,3.45
28.62,-12.10,-15.58,-12.09,-15.58,15.58,15.21,17.93,3.48,3.49,3.48
28.90,-11.96,-15.47,-11.97,-15.48,15.48,15.09,18.29,3.52,3.52,3.52
29.19,-11.84,-15.37,-11.84,-15.38,15.38,14.98,18.63,3.54,3.54,3.53
29.48,-11.71,-15.29,-11.71,-15.28,15.28,14.86,18.95,3.58,3.57,3.58
29.78,-11.58,-15.18,-11.59,-15.19,15.19,14.74,19.23,3.61,3.60,3.60
30.08,-11.45,-15.08,-11.47,-15.09,15.09,14.63,19.48,3.64,3.63,3.63
30.38,-11.34,-15.00,-11.35,-15.00,15.00,14.52,19.68,3.66,3.65,3.66
30.68,-11.23,-14.91,-11.23,-14.90,14.90,14.41,19.83,3.68,3.68,3.68
30.99,-11.11,-14.81,-11.11,-14.81,14.81,14.30,19.92,3.70,3.71,3.70
31.30,-11.00,-14.73,-10.99,-14.72,14.72,14.19,19.94,3.72,3.73,3.73
31.61,-10.88,-14.63,-10.87,-14.63,14.63,14.09,19.90,3.75,3.75,3.76
31.93,-10.76,-14.53,-10.75,-14.53,14.53,13.98,19.80,3.77,3.78,3.77
32.24,-10.64,-14.43,-10.64,-14.44,14.44,13.88,19.65,3.80,3.80,3.79
32.57,-10.52,-14.34,-10.52,-14.34,14.34,13.78,19.45,3.82,3.82,3.82
32.89,-10.41,-14.25,-10.41,-14.24,14.24,13.68,19.20,3.84,3.84,3.85
33.22,-10.29,-14.15,-10.29,-14.15,14.15,13.59,18.93,3.86,3.86,3.86
33.55,-10.17,-14.05,-10.17,-14.05,14.05,13.49,18.62,3.88,3.88,3.88
33.89,-10.06,-13.94,-10.06,-13.95,13.95,13.40,18.30,3.89,3.89,3.89
34.23,-9.94,-13.85,-9.94,-13.84,13.84,13.31,17.97,3.90,3.90,3.91
34.57,-9.82,-13.74,-9.82,-13.74,13.74,13.22,17.63,3.92,3.92,3.92
34.92,-9.71,-13.63,-9.71,-13.63,13.63,13.13,17.28,3.92,3.93,3.93
35.27,-9.59,-13.53,-9.59,-13.53,13.53,13.04,16.94,3.94,3.94,3.94
35.62,-9.47,-13.41,-9.47,-13.42,13.42,12.95,16.60,3.95,3.94,3.94
35.97,-9.36,-13.30,-9.36,-13.31,13.31,12.86,16.26,3.95,3.95,3.94
36.33,-9.25,-13.21,-9.24,-13.19,13.19,12.78,15.93,3.94,3.95,3.96
36.70,-9.13,-13.08,-9.12,-13.08,13.08,12.70,15.61,3.95,3.95,3.95
37.06,-9.02,-12.97,-9.01,-12.96,12.96,12.61,15.30,3.94,3.95,3.95
37.43,-8.90,-12.85,-8.89,-12.85,12.85,12.53,14.99,3.95,3.95,3.96
37.81,-8.78,-12.73,-8.78,-12.73,12.73,12.45,14.70,3.95,3.95,3.95
38.19,-8.66,-12.60,-8.66,-12.61,12.61,12.37,14.41,3.95,3.95,3.95
38.57,-8.55,-12.50,-8.55,-12.50,12.50,12.29,14.13,3.95,3.94,3.95
38.95,-8.43,-12.37,-8.44,-12.38,12.38,12.21,13.87,3.95,3.94,3.94
39.34,-8.32,-12.25,-8.33,-12.26,12.26,12.13,13.61,3.94,3.93,3.93
39.74,-8.21,-12.13,-8.22,-12.15,12.15,12.05,13.36,3.94,3.93,3.92
40.14,-8.11,-12.03,-8.11,-12.03,12.03,11.97,13.12,3.92,3.92,3.92
40.54,-8.01,-11.92,-8.00,-11.91,11.91,11.89,12.89,3.91,3.91,3.91
40.94,-7.90,-11.80,-7.89,-11.80,11.80,11.81,12.67,3.90,3.91,3.90
41.35,-7.80,-11.69,-7.79,-11.69,11.69,11.73,12.46,3.89,3.90,3.90
41.76,-7.69,-11.58,-7.68,-11.57,11.57,11.65,12.25,3.88,3.89,3.89
42.18,-7.59,-11.47,-7.58,-11.46,11.46,11.58,12.05,3.87,3.87,3.88
42.60,-7.48,-11.34,-7.48,-11.34,11.34,11.50,11.86,3.87,3.86,3.86
43.03,-7.38,-11.24,-7.38,-11.23,11.23,11.42,11.68,3.85,3.85,3.87
43.46,-7.28,-11.13,-7.28,-11.12,11.12,11.34,11.51,3.84,3.84,3.85
43.90,-7.18,-11.01,-7.18,-11.01,11.01,11.26,11.34,3.83,3.83,3.83
44.33,-7.09,-10.90,-7.09,-10.90,10.90,11.18,11.18,3.81,3.82,3.81
44.78,-6.99,-10.79,-6.99,-10.79,10.79,11.10,11.03,3.81,3.81,3.80
45.23,-6.89,-10.67,-6.90,-10.69,10.69,11.02,10.88,3.80,3.79,3.78
45.68,-6.80,-10.57,-6.80,-10.58,10.58,10.93,10.74,3.79,3.78,3.77
46.13,-6.72,-10.48,-6.72,-10.48,10.48,10.85,10.60,3.77,3.77,3.76
46.60,-6.63,-10.39,-6.63,-10.38,10.38,10.77,10.48,3.76,3.75,3.76
47.06,-6.55,-10.30,-6.54,-10.29,10.29,10.68,10.35,3.74,3.74,3.75
47.53,-6.46,-10.19,-6.46,-10.19,10.19,10.60,10.24,3.74,3.73,3.74
48.01,-6.38,-10.11,-6.38,-10.10,10.10,10.51,10.12,3.72,3.72,3.73
48.49,-6.30,-10.02,-6.30,-10.01,10.01,10.43,10.02,3.72,3.71,3.72
48.97,-6.22,-9.93,-6.22,-9.93,9.93,10.34,9.91,3.71,3.71,3.71
49.46,-6.15,-9.83,-6.15,-9.84,9.84,10.25,9.82,3.70,3.70,3.69
49.96,-6.08,-9.75,-6.07,-9.76,9.76,10.16,9.72,3.68,3.69,3.67
50.46,-6.00,-9.68,-6.00,-9.68,9.68,10.07,9.63,3.68,3.69,3.68
50.96,-5.93,-9.61,-5.92,-9.60,9.60,9.98,9.55,3.67,3.68,3.68
51.47,-5.85,-9.51,-5.85,-9.52,9.52,9.89,9.47,3.68,3.67,3.67
51.99,-5.78,-9.44,-5.78,-9.45,9.45,9.80,9.39,3.67,3.66,3.66
52.51,-5.71,-9.37,-5.71,-9.37,9.37,9.70,9.31,3.66,3.66,3.66
53.03,-5.65,-9.31,-5.64,-9.29,9.29,9.61,9.24,3.64,3.65,3.66
53.56,-5.58,-9.23,-5.58,-9.22,9.22,9.51,9.17,3.64,3.64,3.65
54.10,-5.51,-9.15,-5.51,-9.14,9.14,9.42,9.10,3.63,3.63,3.64
54.64,-5.44,-9.06,-5.44,-9.07,9.07,9.32,9.03,3.63,3.62,3.62
55.18,-5.38,-8.99,-5.38,-8.99,8.99,9.22,8.96,3.61,3.61,3.61
55.74,-5.32,-8.91,-5.32,-8.92,8.92,9.13,8.89,3.60,3.60,3.59
56.29,-5.26,-8.84,-5.26,-8.84,8.84,9.03,8.83,3.58,3.58,3.58
56.86,-5.20,-8.76,-5.20,-8.76,8.76,8.93,8.76,3.56,3.56,3.56
57.42,-5.14,-8.68,-5.14,-8.68,8.68,8.83,8.69,3.55,3.55,3.54
58.00,-5.08,-8.60,-5.08,-8.60,8.60,8.73,8.62,3.53,3.52,3.53
58.58,-5.03,-8.53,-5.02,-8.52,8.52,8.63,8.55,3.50,3.50,3.50
59.16,-4.97,-8.46,-4.97,-8.44,8.44,8.53,8.48,3.47,3.47,3.49
59.76,-4.91,-8.37,-4.91,-8.36,8.36,8.43,8.41,3.45,3.45,3.46
60.35,-4.86,-8.28,-4.86,-8.28,8.28,8.33,8.33,3.42,3.42,3.43
60.96,-4.81,-8.22,-4.81,-8.20,8.20,8.22,8.25,3.39,3.39,3.41
61.57,-4.76,-8.12,-4.75,-8.12,8.12,8.12,8.17,3.36,3.36,3.36
62.18,-4.70,-8.02,-4.70,-8.04,8.04,8.02,8.09,3.34,3.34,3.32
62.80,-4.65,-7.95,-4.65,-7.95,7.95,7.92,8.00,3.31,3.31,3.30
63.43,-4.60,-7.86,-4.59,-7.87,7.87,7.82,7.91,3.28,3.28,3.26
64.07,-4.54,-7.78,-4.54,-7.79,7.79,7.71,7.82,3.26,3.25,3.24
64.71,-4.49,-7.71,-4.49,-7.72,7.72,7.61,7.73,3.23,3.23,3.22
65.35,-4.44,-7.64,-4.43,-7.64,7.64,7.51,7.63,3.20,3.21,3.20
66.01,-4.39,-7.57,-4.38,-7.56,7.56,7.41,7.53,3.18,3.19,3.18
66.67,-4.32,-7.49,-4.32,-7.49,7.49,7.31,7.42,3.17,3.17,3.17
67.33,-4.26,-7.41,-4.26,-7.42,7.42,7.21,7.32,3.16,3.15,3.16
68.01,-4.20,-7.34,-4.21,-7.35,7.35,7.11,7.21,3.15,3.14,3.14
68.69,-4.15,-7.27,-4.15,-7.28,7.28,7.00,7.10,3.13,3.12,3.12
69.37,-4.10,-7.21,-4.10,-7.21,7.21,6.90,6.99,3.11,3.11,3.11
70.07,-4.05,-7.14,-4.04,-7.14,7.14,6.81,6.88,3.09,3.10,3.09
70.77,-3.99,-7.08,-3.99,-7.07,7.07,6.71,6.77,3.08,3.08,3.09
71.48,-3.93,-7.00,-3.93,-6.99,6.99,6.61,6.65,3.07,3.06,3.07
72.19,-3.87,-6.92,-3.87,-6.92,6.92,6.51,6.54,3.05,3.05,3.05
72.91,-3.82,-6.85,-3.82,-6.85,6.85,6.41,6.43,3.03,3.03,3.04
73.64,-3.76,-6.77,-3.76,-6.77,6.77,6.31,6.32,3.02,3.01,3.01
74.38,-3.71,-6.71,-3.71,-6.70,6.70,6.22,6.20,2.99,2.99,3.00
75.12,-3.66,-6.63,-3.66,-6.63,6.63,6.12,6.09,2.97,2.97,2.97
75.87,-3.61,-6.56,-3.60,-6.56,6.56,6.03,5.98,2.95,2.95,2.95
76.63,-3.56,-6.49,-3.55,-6.48,6.48,5.93,5.88,2.92,2.93,2.94
77.40,-3.50,-6.41,-3.50,-6.41,6.41,5.84,5.77,2.91,2.91,2.91
78.17,-3.44,-6.32,-3.45,-6.34,6.34,5.75,5.66,2.90,2.89,2.88
78.95,-3.38,-6.25,-3.39,-6.27,6.27,5.65,5.56,2.89,2.87,2.88
79.74,-3.34,-6.19,-3.34,-6.20,6.20,5.56,5.46,2.86,2.86,2.85
80.54,-3.30,-6.13,-3.29,-6.13,6.13,5.47,5.36,2.83,2.84,2.83
81.35,-3.25,-6.07,-3.24,-6.06,6.06,5.38,5.26,2.81,2.82,2.82
82.16,-3.20,-6.00,-3.18,-6.00,6.00,5.30,5.17,2.80,2.81,2.80
82.98,-3.14,-5.94,-3.13,-5.93,5.93,5.21,5.08,2.79,2.80,2.80
83.81,-3.08,-5.86,-3.08,-5.87,5.87,5.12,4.99,2.79,2.79,2.78
84.65,-3.03,-5.79,-3.03,-5.81,5.81,5.03,4.90,2.78,2.78,2.76
85.50,-2.98,-5.74,-2.98,-5.74,5.74,4.95,4.82,2.77,2.76,2.77
86.35,-2.92,-5.67,-2.93,-5.68,5.68,4.87,4.74,2.76,2.75,2.76
87.22,-2.87,-5.61,-2.88,-5.62,5.62,4.78,4.66,2.75,2.74,2.74
88.09,-2.83,-5.55,-2.83,-5.55,5.55,4.70,4.58,2.73,2.72,2.73
88.97,-2.79,-5.50,-2.78,-5.49,5.49,4.62,4.51,2.70,2.71,2.71
89.86,-2.75,-5.44,-2.73,-5.42,5.42,4.54,4.44,2.67,2.68,2.69
90.76,-2.69,-5.35,-2.68,-5.34,5.34,4.46,4.37,2.66,2.66,2.66
91.66,-2.65,-5.29,-2.64,-5.27,5.27,4.38,4.31,2.62,2.63,2.64
92.58,-2.60,-5.19,-2.60,-5.19,5.19,4.30,4.24,2.59,2.60,2.59
93.51,-2.56,-5.13,-2.56,-5.11,5.11,4.22,4.18,2.56,2.56,2.57
94.44,-2.52,-5.04,-2.52,-5.03,5.03,4.15,4.13,2.51,2.51,2.52
95.39,-2.47,-4.95,-2.48,-4.95,4.95,4.07,4.07,2.48,2.47,2.48
96.34,-2.44,-4.86,-2.45,-4.86,4.86,4.00,4.02,2.43,2.41,2.42
97.30,-2.40,-4.76,-2.42,-4.78,4.78,3.93,3.96,2.38,2.36,2.36
98.28,-2.37,-4.67,-2.39,-4.69,4.69,3.85,3.92,2.32,2.30,2.30
99.26,-2.36,-4.59,-2.36,-4.60,4.60,3.78,3.87,2.24,2.23,2.23
100.25,-2.34,-4.51,-2.34,-4.51,4.51,3.71,3.82,2.17,2.17,2.17
101.25,-2.32,-4.42,-2.32,-4.42,4.42,3.64,3.78,2.10,2.10,2.10
102.27,-2.31,-4.34,-2.29,-4.33,4.33,3.57,3.74,2.02,2.03,2.03
103.29,-2.29,-4.24,-2.27,-4.24,4.24,3.50,3.70,1.95,1.96,1.95
104.32,-2.27,-4.17,-2.25,-4.14,4.14,3.44,3.66,1.88,1.89,1.90
105.37,-2.24,-4.06,-2.23,-4.05,4.05,3.37,3.62,1.81,1.82,1.82
106.42,-2.21,-3.96,-2.21,-3.96,3.96,3.31,3.58,1.75,1.75,1.75
107.48,-2.19,-3.87,-2.18,-3.87,3.87,3.24,3.54,1.68,1.69,1.68
108.56,-2.16,-3.77,-2.16,-3.78,3.78,3.18,3.51,1.62,1.62,1.62
109.64,-2.13,-3.68,-2.13,-3.68,3.68,3.11,3.47,1.55,1.55,1.55
110.74,-2.10,-3.59,-2.10,-3.59,3.59,3.05,3.44,1.49,1.49,1.49
111.85,-2.07,-3.50,-2.07,-3.50,3.50,2.99,3.40,1.43,1.42,1.43
112.97,-2.04,-3.40,-2.04,-3.41,3.41,2.93,3.37,1.37,1.36,1.36
114.10,-2.02,-3.33,-2.01,-3.32,3.32,2.87,3.33,1.30,1.31,1.31
115.24,-1.99,-3.23,-1.98,-3.24,3.24,2.81,3.30,1.25,1.25,1.24
116.39,-1.96,-3.15,-1.95,-3.15,3.15,2.75,3.26,1.20,1.20,1.19
117.55,-1.93,-3.07,-1.93,-3.08,3.08,2.69,3.22,1.15,1.15,1.14
118.73,-1.90,-2.99,-1.90,-3.00,3.00,2.64,3.18,1.10,1.10,1.09
119.92,-1.86,-2.91,-1.87,-2.92,2.92,2.58,3.14,1.07,1.05,1.05
121.12,-1.83,-2.84,-1.84,-2.85,2.85,2.52,3.10,1.02,1.01,1.01
122.33,-1.82,-2.78,-1.81,-2.78,2.78,2.47,3.06,0.96,0.97,0.97
123.55,-1.79,-2.72,-1.79,-2.71,2.71,2.42,3.01,0.92,0.93,0.93
124.79,-1.76,-2.65,-1.76,-2.65,2.65,2.36,2.97,0.89,0.89,0.89
126.03,-1.72,-2.58,-1.73,-2.58,2.58,2.31,2.92,0.86,0.85,0.86
127.29,-1.71,-2.53,-1.70,-2.52,2.52,2.26,2.87,0.81,0.81,0.82
128.57,-1.69,-2.46,-1.68,-2.45,2.45,2.20,2.82,0.76,0.78,0.77
129.85,-1.65,-2.39,-1.65,-2.39,2.39,2.15,2.77,0.74,0.74,0.74
131.15,-1.62,-2.32,-1.62,-2.32,2.32,2.10,2.71,0.71,0.70,0.70
132.46,-1.60,-2.25,-1.60,-2.26,2.26,2.05,2.66,0.66,0.66,0.65
133.79,-1.57,-2.20,-1.57,-2.19,2.19,2.00,2.60,0.62,0.62,0.63
135.12,-1.54,-2.12,-1.54,-2.12,2.12,1.95,2.54,0.58,0.58,0.58
136.48,-1.53,-2.08,-1.51,-2.05,2.05,1.90,2.48,0.52,0.54,0.55
137.84,-1.49,-1.99,-1.48,-1.98,1.98,1.85,2.42,0.49,0.50,0.50
139.22,-1.47,-1.92,-1.45,-1.91,1.91,1.80,2.36,0.44,0.46,0.45
140.61,-1.44,-1.85,-1.42,-1.84,1.84,1.76,2.30,0.40,0.42,0.41
142.02,-1.39,-1.77,-1.39,-1.77,1.77,1.71,2.23,0.38,0.37,0.38
143.44,-1.37,-1.70,-1.37,-1.70,1.70,1.66,2.17,0.33,0.33,0.34
144.87,-1.33,-1.62,-1.35,-1.64,1.64,1.61,2.10,0.31,0.29,0.29
146.32,-1.32,-1.56,-1.33,-1.58,1.58,1.57,2.04,0.26,0.24,0.24
147.78,-1.29,-1.49,-1.32,-1.52,1.52,1.52,1.97,0.23,0.20,0.20
149.26,-1.28,-1.43,-1.31,-1.46,1.46,1.47,1.90,0.18,0.15,0.16
150.75,-1.27,-1.37,-1.30,-1.41,1.41,1.43,1.84,0.14,0.10,0.10
152.26,-1.28,-1.33,-1.30,-1.35,1.35,1.38,1.77,0.07,0.05,0.06
153.78,-1.30,-1.31,-1.30,-1.30,1.30,1.33,1.70,0.00,0.01,0.01
155.32,-1.31,-1.27,-1.29,-1.25,1.25,1.29,1.64,-0.06,-0.04,-0.04
156.88,-1.32,-1.24,-1.29,-1.19,1.19,1.24,1.57,-0.12,-0.09,-0.08
158.44,-1.31,-1.17,-1.28,-1.14,1.14,1.20,1.50,-0.17,-0.14,-0.14
160.03,-1.30,-1.11,-1.27,-1.08,1.08,1.15,1.44,-0.22,-0.19,-0.19
161.63,-1.28,-1.03,-1.26,-1.02,1.02,1.10,1.37,-0.26,-0.24,-0.25
163.24,-1.27,-0.97,-1.24,-0.95,0.95,1.06,1.30,-0.32,-0.29,-0.30
164.88,-1.23,-0.88,-1.22,-0.88,0.88,1.01,1.24,-0.35,-0.34,-0.34
166.53,-1.21,-0.82,-1.19,-0.80,0.80,0.97,1.17,-0.40,-0.39,-0.39
168.19,-1.18,-0.74,-1.17,-0.73,0.73,0.92,1.11,-0.45,-0.44,-0.44
169.87,-1.13,-0.65,-1.14,-0.66,0.66,0.87,1.04,-0.47,-0.48,-0.48
171.57,-1.10,-0.58,-1.11,-0.58,0.58,0.82,0.98,-0.51,-0.52,-0.52
173.29,-1.07,-0.50,-1.08,-0.52,0.52,0.78,0.92,-0.55,-0.57,-0.56
175.02,-1.03,-0.42,-1.06,-0.45,0.45,0.73,0.85,-0.58,-0.61,-0.61
176.77,-1.00,-0.35,-1.04,-0.39,0.39,0.68,0.79,-0.60,-0.64,-0.65
178.54,-0.99,-0.30,-1.02,-0.34,0.34,0.63,0.73,-0.65,-0.68,-0.69
180.32,-0.98,-0.26,-1.00,-0.29,0.29,0.58,0.66,-0.69,-0.71,-0.71
182.13,-0.98,-0.24,-0.98,-0.25,0.25,0.54,0.60,-0.73,-0.74,-0.74
183.95,-0.97,-0.20,-0.97,-0.20,0.20,0.49,0.54,-0.77,-0.77,-0.77
185.79,-0.97,-0.17,-0.95,-0.16,0.16,0.44,0.48,-0.81,-0.79,-0.79
187.65,-0.96,-0.14,-0.94,-0.12,0.12,0.38,0.42,-0.84,-0.82,-0.82
189.52,-0.95,-0.11,-0.92,-0.08,0.08,0.33,0.36,-0.87,-0.84,-0.83
191.42,-0.93,-0.07,-0.90,-0.04,0.04,0.28,0.30,-0.89,-0.86,-0.86
193.33,-0.90,-0.03,-0.88,-0.00,0.00,0.23,0.24,-0.90,-0.88,-0.87
195.27,-0.87,0.02,-0.85,0.04,-0.04,0.18,0.18,-0.91,-0.89,-0.88
197.22,-0.84,0.07,-0.83,0.08,-0.08,0.12,0.12,-0.92,-0.91,-0.91
199.19,-0.81,0.13,-0.80,0.12,-0.12,0.07,0.06,-0.93,-0.93,-0.94
201.18,-0.77,0.18,-0.78,0.17,-0.17,0.02,-0.00,-0.93,-0.94,-0.95
203.19,-0.74,0.22,-0.75,0.20,-0.20,-0.04,-0.06,-0.94,-0.96,-0.96
205.23,-0.71,0.27,-0.73,0.24,-0.24,-0.09,-0.11,-0.95,-0.98,-0.98
207.28,-0.68,0.31,-0.71,0.28,-0.28,-0.15,-0.17,-0.96,-0.99,-0.98
209.35,-0.66,0.34,-0.69,0.31,-0.31,-0.20,-0.22,-0.97,-1.01,-1.00
211.44,-0.65,0.38,-0.68,0.35,-0.35,-0.26,-0.28,-0.99,-1.02,-1.03
213.56,-0.65,0.39,-0.66,0.38,-0.38,-0.31,-0.33,-1.02,-1.04,-1.04
215.69,-0.65,0.39,-0.64,0.41,-0.41,-0.37,-0.38,-1.05,-1.05,-1.04
217.85,-0.65,0.42,-0.63,0.44,-0.44,-0.42,-0.43,-1.09,-1.07,-1.07
220.03,-0.64,0.44,-0.61,0.47,-0.47,-0.48,-0.48,-1.11,-1.08,-1.08
222.23,-0.63,0.48,-0.60,0.50,-0.50,-0.53,-0.53,-1.13,-1.10,-1.11
224.45,-0.61,0.50,-0.58,0.53,-0.53,-0.58,-0.58,-1.14,-1.11,-1.11
226.70,-0.57,0.56,-0.56,0.57,-0.57,-0.63,-0.62,-1.14,-1.13,-1.12
228.96,-0.54,0.60,-0.53,0.62,-0.62,-0.68,-0.66,-1.15,-1.15,-1.14
231.25,-0.52,0.63,-0.51,0.66,-0.66,-0.72,-0.70,-1.18,-1.17,-1.15
233.57,-0.48,0.69,-0.48,0.70,-0.70,-0.76,-0.74,-1.18,-1.18,-1.17
235.90,-0.44,0.76,-0.45,0.75,-0.75,-0.80,-0.77,-1.19,-1.20,-1.19
238.26,-0.42,0.80,-0.42,0.79,-0.79,-0.84,-0.81,-1.21,-1.21,-1.22
240.64,-0.39,0.85,-0.40,0.83,-0.83,-0.87,-0.84,-1.22,-1.23,-1.24
243.05,-0.36,0.89,-0.37,0.87,-0.87,-0.90,-0.86,-1.23,-1.24,-1.25
245.48,-0.34,0.92,-0.35,0.90,-0.90,-0.93,-0.89,-1.24,-1.25,-1.26
247.93,-0.31,0.96,-0.34,0.93,-0.93,-0.95,-0.91,-1.23,-1.26,-1.27
250.41,-0.30,0.99,-0.32,0.94,-0.94,-0.97,-0.93,-1.24,-1.27,-1.29
252.92,-0.30,0.98,-0.32,0.96,-0.96,-0.99,-0.95,-1.26,-1.27,-1.28
255.45,-0.31,0.97,-0.31,0.96,-0.96,-1.00,-0.96,-1.27,-1.27,-1.27
258.00,-0.32,0.95,-0.31,0.96,-0.96,-1.00,-0.97,-1.28,-1.27,-1.27
260.58,-0.32,0.95,-0.31,0.96,-0.96,-1.01,-0.98,-1.28,-1.27,-1.27
263.19,-0.32,0.94,-0.31,0.95,-0.95,-1.01,-0.99,-1.27,-1.26,-1.26
265.82,-0.32,0.94,-0.31,0.94,-0.94,-1.00,-0.99,-1.26,-1.25,-1.26
268.48,-0.32,0.92,-0.31,0.93,-0.93,-0.99,-0.99,-1.24,-1.24,-1.23
271.16,-0.32,0.90,-0.31,0.91,-0.91,-0.98,-0.99,-1.23,-1.22,-1.22
273.87,-0.32,0.89,-0.32,0.89,-0.89,-0.97,-0.99,-1.21,-1.21,-1.21
276.61,-0.32,0.87,-0.32,0.88,-0.88,-0.96,-0.99,-1.20,-1.20,-1.18
279.38,-0.32,0.86,-0.32,0.86,-0.86,-0.94,-0.98,-1.18,-1.18,-1.18
282.17,-0.32,0.85,-0.32,0.85,-0.85,-0.92,-0.98,-1.17,-1.17,-1.17
284.99,-0.32,0.83,-0.32,0.83,-0.83,-0.90,-0.97,-1.15,-1.15,-1.15
287.84,-0.32,0.82,-0.32,0.82,-0.82,-0.88,-0.96,-1.14,-1.14,-1.14
290.72,-0.32,0.79,-0.32,0.80,-0.80,-0.85,-0.95,-1.12,-1.12,-1.11
293.63,-0.32,0.79,-0.32,0.78,-0.78,-0.83,-0.94,-1.10,-1.10,-1.11
296.57,-0.32,0.77,-0.32,0.77,-0.77,-0.81,-0.92,-1.09,-1.08,-1.08
299.53,-0.32,0.75,-0.32,0.75,-0.75,-0.78,-0.91,-1.07,-1.07,-1.07
302.53,-0.32,0.74,-0.32,0.73,-0.73,-0.76,-0.90,-1.05,-1.05,-1.06
305.55,-0.32,0.71,-0.32,0.71,-0.71,-0.74,-0.89,-1.03,-1.03,-1.03
308.61,-0.32,0.69,-0.32,0.69,-0.69,-0.71,-0.87,-1.01,-1.01,-1.01
311.69,-0.32,0.67,-0.32,0.66,-0.66,-0.69,-0.86,-0.98,-0.99,-0.99
314.81,-0.32,0.63,-0.33,0.64,-0.64,-0.67,-0.85,-0.96,-0.96,-0.95
317.96,-0.32,0.62,-0.33,0.61,-0.61,-0.65,-0.83,-0.93,-0.94,-0.93
321.14,-0.32,0.60,-0.33,0.59,-0.59,-0.63,-0.82,-0.91,-0.92,-0.92
324.35,-0.32,0.58,-0.34,0.56,-0.56,-0.61,-0.81,-0.88,-0.90,-0.90
327.59,-0.33,0.55,-0.34,0.54,-0.54,-0.59,-0.80,-0.87,-0.88,-0.87
330.87,-0.34,0.52,-0.34,0.52,-0.52,-0.57,-0.79,-0.85,-0.85,-0.86
334.18,-0.35,0.48,-0.33,0.50,-0.50,-0.55,-0.78,-0.84,-0.83,-0.83
337.52,-0.35,0.47,-0.33,0.48,-0.48,-0.53,-0.77,-0.83,-0.81,-0.81
340.90,-0.34,0.45,-0.32,0.47,-0.47,-0.52,-0.76,-0.81,-0.78,-0.79
344.30,-0.32,0.44,-0.30,0.46,-0.46,-0.50,-0.75,-0.78,-0.76,-0.76
347.75,-0.31,0.43,-0.29,0.45,-0.45,-0.49,-0.74,-0.76,-0.74,-0.74
351.23,-0.28,0.44,-0.26,0.45,-0.45,-0.47,-0.73,-0.73,-0.72,-0.71
354.74,-0.25,0.44,-0.24,0.45,-0.45,-0.46,-0.72,-0.70,-0.69,-0.69
358.28,-0.22,0.45,-0.21,0.46,-0.46,-0.45,-0.72,-0.68,-0.67,-0.67
361.87,-0.18,0.46,-0.18,0.46,-0.46,-0.44,-0.71,-0.64,-0.64,-0.64
365.49,-0.15,0.47,-0.15,0.47,-0.47,-0.43,-0.70,-0.62,-0.62,-0.61
369.14,-0.12,0.49,-0.12,0.48,-0.48,-0.42,-0.70,-0.60,-0.60,-0.61
372.83,-0.08,0.50,-0.09,0.49,-0.49,-0.41,-0.70,-0.56,-0.57,-0.58
376.56,-0.04,0.52,-0.06,0.49,-0.49,-0.40,-0.69,-0.53,-0.55,-0.56
380.33,-0.02,0.50,-0.04,0.49,-0.49,-0.39,-0.69,-0.51,-0.53,-0.52
384.13,0.00,0.52,-0.02,0.50,-0.50,-0.38,-0.69,-0.49,-0.52,-0.51
387.97,0.01,0.51,-0.00,0.49,-0.49,-0.38,-0.69,-0.48,-0.50,-0.50
391.85,0.02,0.51,0.00,0.49,-0.49,-0.37,-0.69,-0.47,-0.48,-0.49
395.77,0.02,0.48,0.01,0.48,-0.48,-0.36,-0.68,-0.46,-0.47,-0.46
399.73,0.01,0.46,0.01,0.47,-0.47,-0.36,-0.68,-0.46,-0.46,-0.45
403.72,0.01,0.46,0.01,0.46,-0.46,-0.36,-0.69,-0.45,-0.45,-0.45
407.76,0.00,0.45,0.01,0.45,-0.45,-0.35,-0.69,-0.45,-0.45,-0.44
411.84,0.00,0.44,0.00,0.44,-0.44,-0.35,-0.69,-0.44,-0.44,-0.44
415.96,0.00,0.44,-0.00,0.44,-0.44,-0.35,-0.69,-0.43,-0.44,-0.44
420.12,-0.01,0.43,-0.01,0.43,-0.43,-0.34,-0.69,-0.44,-0.44,-0.44
424.32,-0.02,0.42,-0.01,0.43,-0.43,-0.34,-0.69,-0.45,-0.44,-0.44
428.56,-0.02,0.42,-0.00,0.44,-0.44,-0.34,-0.69,-0.46,-0.44,-0.44
432.85,-0.02,0.43,0.00,0.45,-0.45,-0.34,-0.70,-0.47,-0.45,-0.45
437.18,0.00,0.45,0.02,0.47,-0.47,-0.34,-0.70,-0.46,-0.45,-0.45
441.55,0.01,0.47,0.03,0.49,-0.49,-0.34,-0.70,-0.47,-0.46,-0.45
445.96,0.03,0.50,0.05,0.51,-0.51,-0.34,-0.70,-0.48,-0.46,-0.46
