frequency,raw,error,smoothed,error_smoothed,equalization,parametric_eq,fixed_band_eq,equalized_raw,equalized_smoothed,target
20.00,15.62,4.76,15.62,4.76,-4.77,-5.32,-2.54,10.86,10.86,10.86
20.20,15.67,4.77,15.67,4.77,-4.77,-5.33,-2.61,10.90,10.90,10.90
20.40,15.72,4.78,15.72,4.79,-4.78,-5.34,-2.69,10.94,10.94,10.94
20.61,15.77,4.80,15.77,4.80,-4.79,-5.35,-2.76,10.98,10.98,10.97
20.81,15.82,4.81,15.82,4.81,-4.81,-5.36,-2.84,11.01,11.01,11.01
21.02,15.86,4.81,15.87,4.82,-4.83,-5.36,-2.92,11.04,11.04,11.05
21.23,15.91,4.84,15.91,4.84,-4.85,-5.37,-3.00,11.06,11.07,11.07
21.44,15.96,4.87,15.96,4.87,-4.87,-5.38,-3.08,11.09,11.09,11.09
21.66,16.01,4.90,16.01,4.90,-4.90,-5.39,-3.17,11.11,11.11,11.11
21.87,16.05,4.93,16.06,4.93,-4.93,-5.40,-3.26,11.12,11.12,11.12
22.09,16.10,4.96,16.10,4.97,-4.97,-5.41,-3.35,11.13,11.13,11.14
22.31,16.15,5.00,16.15,5.00,-5.01,-5.42,-3.44,11.15,11.15,11.15
22.54,16.20,5.04,16.20,5.04,-5.05,-5.43,-3.54,11.16,11.16,11.16
22.76,16.25,5.08,16.25,5.09,-5.08,-5.44,-3.64,11.17,11.17,11.17
22.99,16.30,5.13,16.30,5.13,-5.12,-5.45,-3.74,11.18,11.18,11.17
23.22,16.34,5.16,16.35,5.17,-5.16,-5.46,-3.84,11.18,11.19,11.18
23.45,16.39,5.20,16.39,5.21,-5.20,-5.47,-3.94,11.19,11.19,11.19
23.69,16.44,5.24,16.44,5.24,-5.24,-5.48,-4.05,11.20,11.20,11.20
23.92,16.48,5.27,16.49,5.27,-5.27,-5.49,-4.16,11.21,11.21,11.21
24.16,16.53,5.30,16.53,5.30,-5.31,-5.50,-4.28,11.22,11.22,11.23
24.40,16.58,5.33,16.58,5.34,-5.35,-5.51,-4.39,11.24,11.23,11.25
24.65,16.62,5.38,16.63,5.38,-5.38,-5.53,-4.50,11.24,11.24,11.24
24.89,16.67,5.42,16.67,5.42,-5.42,-5.54,-4.62,11.25,11.25,11.25
25.14,16.72,5.46,16.72,5.46,-5.46,-5.55,-4.74,11.27,11.26,11.26
25.39,16.76,5.49,16.77,5.49,-5.49,-5.56,-4.86,11.27,11.27,11.27
25.65,16.81,5.52,16.81,5.53,-5.53,-5.58,-4.98,11.28,11.28,11.29
25.91,16.85,5.56,16.85,5.56,-5.56,-5.59,-5.10,11.29,11.29,11.29
26.16,16.90,5.60,16.90,5.60,-5.60,-5.60,-5.22,11.30,11.30,11.30
26.43,16.94,5.63,16.94,5.64,-5.63,-5.62,-5.35,11.31,11.31,11.31
26.69,16.99,5.67,16.99,5.67,-5.67,-5.63,-5.47,11.32,11.32,11.32
26.96,17.03,5.69,17.03,5.70,-5.70,-5.65,-5.59,11.33,11.33,11.34
27.23,17.08,5.73,17.08,5.74,-5.74,-5.66,-5.70,11.34,11.34,11.35
27.50,17.12,5.77,17.12,5.77,-5.77,-5.68,-5.82,11.35,11.35,11.35
27.77,17.16,5.81,17.17,5.81,-5.81,-5.69,-5.94,11.35,11.36,11.35
28.05,17.21,5.84,17.21,5.85,-5.84,-5.71,-6.05,11.37,11.36,11.37
28.33,17.25,5.88,17.25,5.88,-5.88,-5.73,-6.15,11.37,11.37,11.37
28.62,17.29,5.91,17.30,5.92,-5.92,-5.74,-6.26,11.38,11.38,11.38
28.90,17.34,5.95,17.34,5.95,-5.95,-5.76,-6.36,11.39,11.39,11.39
29.19,17.38,5.99,17.38,5.98,-5.99,-5.78,-6.45,11.40,11.40,11.39
29.48,17.42,6.00,17.42,6.02,-6.02,-5.80,-6.54,11.40,11.41,11.42
29.78,17.46,6.05,17.46,6.05,-6.05,-5.81,-6.62,11.41,11.41,11.41
30.08,17.50,6.08,17.50,6.08,-6.08,-5.83,-6.69,11.42,11.42,11.42
30.38,17.53,6.11,17.54,6.11,-6.11,-5.85,-6.76,11.42,11.43,11.42
30.68,17.57,6.13,17.57,6.14,-6.14,-5.87,-6.82,11.44,11.43,11.44
30.99,17.60,6.16,17.60,6.17,-6.16,-5.89,-6.88,11.44,11.44,11.44
31.30,17.63,6.19,17.63,6.19,-6.19,-5.91,-6.92,11.44,11.45,11.44
31.61,17.66,6.21,17.66,6.21,-6.21,-5.94,-6.96,11.45,11.45,11.45
31.93,17.68,6.22,17.69,6.23,-6.23,-5.96,-6.99,11.45,11.46,11.46
32.24,17.71,6.25,17.71,6.25,-6.25,-5.98,-7.02,11.46,11.46,11.46
32.57,17.74,6.26,17.74,6.27,-6.27,-6.00,-7.04,11.48,11.47,11.48
32.89,17.76,6.28,17.77,6.29,-6.28,-6.03,-7.05,11.48,11.48,11.48
33.22,17.79,6.30,17.79,6.30,-6.30,-6.05,-7.05,11.49,11.49,11.49
33.55,17.81,6.31,17.81,6.31,-6.31,-6.08,-7.05,11.50,11.50,11.50
33.89,17.83,6.32,17.84,6.33,-6.33,-6.10,-7.05,11.50,11.50,11.51
34.23,17.86,6.35,17.86,6.35,-6.35,-6.13,-7.04,11.51,11.51,11.51
34.57,17.89,6.37,17.89,6.37,-6.37,-6.16,-7.02,11.52,11.51,11.52
34.92,17.91,6.39,17.92,6.40,-6.40,-6.18,-7.01,11.51,11.52,11.52
35.27,17.95,6.42,17.95,6.42,-6.42,-6.21,-6.99,11.53,11.53,11.53
35.62,17.98,6.45,17.98,6.45,-6.45,-6.24,-6.97,11.53,11.53,11.53
35.97,18.02,6.49,18.02,6.49,-6.48,-6.27,-6.95,11.54,11.54,11.53
36.33,18.05,6.51,18.05,6.52,-6.52,-6.30,-6.92,11.54,11.53,11.54
36.70,18.08,6.55,18.09,6.55,-6.55,-6.33,-6.90,11.53,11.53,11.53
37.06,18.12,6.58,18.12,6.59,-6.59,-6.36,-6.88,11.53,11.53,11.54
37.43,18.16,6.62,18.16,6.62,-6.63,-6.39,-6.86,11.53,11.53,11.54
37.81,18.20,6.66,18.20,6.66,-6.67,-6.43,-6.84,11.54,11.54,11.54
38.19,18.24,6.70,18.24,6.71,-6.71,-6.46,-6.82,11.54,11.54,11.54
38.57,18.28,6.75,18.28,6.75,-6.74,-6.50,-6.80,11.54,11.54,11.53
38.95,18.32,6.79,18.32,6.79,-6.78,-6.53,-6.79,11.54,11.54,11.53
39.34,18.34,6.82,18.35,6.82,-6.82,-6.57,-6.78,11.52,11.53,11.52
39.74,18.37,6.85,18.37,6.85,-6.86,-6.61,-6.78,11.52,11.52,11.52
40.14,18.40,6.88,18.40,6.89,-6.89,-6.64,-6.77,11.51,11.51,11.52
40.54,18.44,6.92,18.44,6.92,-6.93,-6.68,-6.78,11.51,11.51,11.52
40.94,18.47,6.96,18.48,6.96,-6.97,-6.72,-6.78,11.51,11.51,11.51
41.35,18.51,7.00,18.51,7.00,-7.00,-6.77,-6.79,11.51,11.51,11.51
41.76,18.55,7.04,18.55,7.04,-7.04,-6.81,-6.81,11.52,11.51,11.51
42.18,18.58,7.07,18.59,7.08,-7.07,-6.85,-6.83,11.51,11.51,11.51
42.60,18.62,7.11,18.62,7.11,-7.11,-6.90,-6.85,11.51,11.51,11.51
43.03,18.65,7.14,18.65,7.14,-7.14,-6.94,-6.88,11.51,11.51,11.51
43.46,18.68,7.17,18.68,7.18,-7.18,-6.99,-6.91,11.50,11.50,11.51
43.90,18.70,7.21,18.70,7.21,-7.21,-7.04,-6.95,11.49,11.49,11.49
44.33,18.73,7.24,18.73,7.25,-7.25,-7.08,-7.00,11.48,11.48,11.49
44.78,18.76,7.28,18.76,7.28,-7.28,-7.13,-7.05,11.48,11.48,11.48
45.23,18.80,7.32,18.80,7.32,-7.32,-7.18,-7.10,11.49,11.48,11.48
45.68,18.83,7.35,18.83,7.36,-7.35,-7.24,-7.16,11.48,11.48,11.48
46.13,18.86,7.39,18.86,7.39,-7.38,-7.29,-7.23,11.48,11.48,11.47
46.60,18.89,7.41,18.89,7.42,-7.42,-7.34,-7.30,11.47,11.47,11.48
47.06,18.92,7.45,18.92,7.45,-7.45,-7.40,-7.37,11.47,11.47,11.47
47.53,18.95,7.49,18.95,7.48,-7.49,-7.46,-7.45,11.46,11.46,11.46
48.01,18.98,7.51,18.98,7.52,-7.53,-7.51,-7.54,11.45,11.45,11.47
48.49,19.01,7.56,19.01,7.56,-7.57,-7.57,-7.63,11.45,11.45,11.45
48.97,19.04,7.61,19.04,7.61,-7.61,-7.63,-7.72,11.43,11.43,11.43
49.46,19.07,7.65,19.07,7.66,-7.65,-7.69,-7.82,11.42,11.42,11.42
49.96,19.10,7.70,19.10,7.70,-7.70,-7.76,-7.92,11.41,11.41,11.40
50.46,19.13,7.73,19.13,7.74,-7.74,-7.82,-8.03,11.39,11.39,11.40
50.96,19.16,7.78,19.16,7.79,-7.79,-7.88,-8.14,11.38,11.38,11.38
51.47,19.19,7.84,19.19,7.83,-7.83,-7.95,-8.25,11.36,11.36,11.35
51.99,19.22,7.88,19.22,7.89,-7.88,-8.01,-8.36,11.34,11.34,11.34
52.51,19.26,7.93,19.26,7.93,-7.93,-8.08,-8.48,11.33,11.33,11.33
53.03,19.29,7.98,19.29,7.98,-7.99,-8.15,-8.59,11.31,11.31,11.31
53.56,19.33,8.03,19.33,8.04,-8.05,-8.22,-8.71,11.29,11.28,11.30
54.10,19.37,8.10,19.37,8.10,-8.11,-8.29,-8.83,11.26,11.27,11.27
54.64,19.42,8.16,19.42,8.17,-8.18,-8.36,-8.94,11.25,11.25,11.26
55.18,19.48,8.25,19.48,8.25,-8.25,-8.43,-9.06,11.24,11.23,11.23
55.74,19.53,8.33,19.53,8.32,-8.32,-8.50,-9.17,11.21,11.21,11.20
56.29,19.58,8.38,19.59,8.40,-8.39,-8.57,-9.27,11.19,11.19,11.20
56.86,19.64,8.47,19.64,8.47,-8.47,-8.64,-9.38,11.18,11.17,11.17
57.42,19.68,8.54,19.69,8.54,-8.54,-8.71,-9.47,11.15,11.15,11.14
58.00,19.73,8.61,19.73,8.62,-8.61,-8.78,-9.56,11.13,11.13,11.12
58.58,19.78,8.68,19.78,8.68,-8.68,-8.85,-9.64,11.11,11.10,11.10
59.16,19.82,8.74,19.82,8.74,-8.75,-8.92,-9.72,11.08,11.07,11.08
59.76,19.86,8.80,19.86,8.81,-8.82,-8.99,-9.78,11.04,11.05,11.06
60.35,19.90,8.87,19.91,8.88,-8.89,-9.06,-9.83,11.01,11.02,11.03
60.96,19.95,8.95,19.95,8.96,-8.96,-9.12,-9.87,10.99,10.99,11.00
61.57,19.99,9.04,19.99,9.04,-9.03,-9.19,-9.90,10.96,10.96,10.95
62.18,20.03,9.12,20.03,9.11,-9.10,-9.25,-9.92,10.93,10.93,10.91
62.80,20.06,9.17,20.06,9.18,-9.18,-9.31,-9.92,10.89,10.88,10.89
63.43,20.08,9.24,20.08,9.24,-9.25,-9.37,-9.92,10.84,10.84,10.84
64.07,20.10,9.30,20.11,9.30,-9.31,-9.43,-9.90,10.79,10.80,10.80
64.71,20.14,9.37,20.14,9.37,-9.38,-9.48,-9.87,10.77,10.76,10.77
65.35,20.16,9.43,20.17,9.44,-9.44,-9.53,-9.82,10.73,10.73,10.73
66.01,20.19,9.50,20.19,9.50,-9.49,-9.58,-9.77,10.70,10.70,10.69
66.67,20.20,9.54,20.20,9.55,-9.54,-9.62,-9.71,10.66,10.66,10.66
67.33,20.21,9.59,20.21,9.59,-9.59,-9.66,-9.64,10.62,10.62,10.62
68.01,20.21,9.63,20.21,9.63,-9.63,-9.69,-9.56,10.58,10.57,10.58
68.69,20.20,9.66,20.21,9.67,-9.67,-9.72,-9.47,10.53,10.54,10.54
69.37,20.20,9.70,20.20,9.71,-9.70,-9.75,-9.38,10.50,10.50,10.50
70.07,20.20,9.74,20.19,9.73,-9.73,-9.76,-9.29,10.47,10.46,10.46
70.77,20.17,9.75,20.17,9.75,-9.75,-9.78,-9.19,10.42,10.42,10.42
71.48,20.14,9.75,20.15,9.76,-9.77,-9.79,-9.08,10.38,10.38,10.39
72.19,20.11,9.77,20.12,9.77,-9.78,-9.79,-8.98,10.33,10.34,10.34
72.91,20.09,9.78,20.09,9.78,-9.79,-9.79,-8.87,10.30,10.30,10.31
73.64,20.06,9.79,20.06,9.79,-9.79,-9.78,-8.77,10.27,10.27,10.27
74.38,20.02,9.78,20.03,9.79,-9.79,-9.76,-8.66,10.24,10.24,10.24
75.12,19.98,9.78,19.98,9.78,-9.78,-9.74,-8.56,10.21,10.21,10.20
75.87,19.94,9.77,19.94,9.77,-9.76,-9.71,-8.45,10.18,10.17,10.17
76.63,19.88,9.74,19.88,9.74,-9.74,-9.68,-8.35,10.14,10.14,10.14
77.40,19.81,9.70,19.82,9.71,-9.71,-9.64,-8.26,10.10,10.11,10.11
78.17,19.75,9.67,19.75,9.67,-9.67,-9.60,-8.16,10.08,10.08,10.08
78.95,19.68,9.63,19.68,9.63,-9.63,-9.55,-8.07,10.05,10.05,10.05
79.74,19.61,9.58,19.61,9.58,-9.58,-9.50,-7.99,10.03,10.03,10.03
80.54,19.53,9.52,19.53,9.53,-9.53,-9.44,-7.91,10.00,10.01,10.01
81.35,19.45,9.47,19.45,9.47,-9.47,-9.38,-7.83,9.98,9.98,9.98
82.16,19.36,9.41,19.36,9.41,-9.41,-9.31,-7.76,9.95,9.95,9.95
82.98,19.27,9.33,19.28,9.35,-9.35,-9.24,-7.69,9.92,9.93,9.94
83.81,19.19,9.28,19.19,9.28,-9.29,-9.16,-7.63,9.91,9.90,9.91
84.65,19.10,9.22,19.10,9.22,-9.22,-9.08,-7.57,9.88,9.89,9.88
85.50,19.02,9.15,19.02,9.15,-9.15,-9.00,-7.52,9.87,9.87,9.87
86.35,18.92,9.07,18.92,9.08,-9.08,-8.92,-7.47,9.84,9.85,9.85
87.22,18.83,9.00,18.83,9.00,-9.00,-8.83,-7.43,9.83,9.83,9.83
88.09,18.73,8.92,18.74,8.93,-8.93,-8.75,-7.40,9.81,9.81,9.81
88.97,18.64,8.85,18.64,8.85,-8.84,-8.66,-7.37,9.80,9.79,9.79
89.86,18.53,8.75,18.53,8.76,-8.76,-8.57,-7.34,9.78,9.77,9.78
90.76,18.41,8.66,18.42,8.67,-8.67,-8.48,-7.33,9.75,9.75,9.75
91.66,18.30,8.57,18.30,8.57,-8.57,-8.39,-7.31,9.73,9.73,9.73
92.58,18.19,8.48,18.19,8.48,-8.48,-8.30,-7.31,9.72,9.71,9.71
93.51,18.07,8.37,18.07,8.38,-8.38,-8.20,-7.30,9.70,9.70,9.70
94.44,17.95,8.27,17.95,8.27,-8.27,-8.11,-7.31,9.68,9.68,9.68
95.39,17.82,8.16,17.82,8.16,-8.16,-8.02,-7.31,9.66,9.66,9.66
96.34,17.68,8.05,17.68,8.06,-8.05,-7.93,-7.33,9.63,9.63,9.63
97.30,17.54,7.94,17.55,7.94,-7.93,-7.84,-7.34,9.61,9.61,9.60
98.28,17.40,7.83,17.40,7.83,-7.82,-7.76,-7.36,9.58,9.59,9.57
99.26,17.26,7.71,17.25,7.71,-7.71,-7.67,-7.39,9.56,9.55,9.55
100.25,17.10,7.58,17.10,7.58,-7.60,-7.59,-7.42,9.50,9.50,9.52
101.25,16.94,7.45,16.95,7.46,-7.49,-7.50,-7.45,9.45,9.45,9.49
102.27,16.80,7.35,16.82,7.37,-7.39,-7.42,-7.48,9.41,9.43,9.45
103.29,16.72,7.30,16.71,7.29,-7.29,-7.34,-7.52,9.43,9.42,9.42
104.32,16.62,7.23,16.60,7.22,-7.20,-7.27,-7.56,9.43,9.40,9.39
105.37,16.46,7.11,16.47,7.12,-7.10,-7.20,-7.60,9.37,9.37,9.35
106.42,16.31,7.01,16.32,7.01,-7.00,-7.13,-7.65,9.32,9.32,9.30
107.48,16.16,6.89,16.16,6.90,-6.89,-7.06,-7.69,9.27,9.27,9.27
108.56,16.01,6.80,16.00,6.79,-6.79,-6.99,-7.73,9.23,9.22,9.21
109.64,15.84,6.68,15.84,6.68,-6.68,-6.93,-7.78,9.16,9.16,9.16
110.74,15.67,6.56,15.68,6.57,-6.58,-6.87,-7.82,9.10,9.10,9.11
111.85,15.52,6.46,15.52,6.46,-6.48,-6.81,-7.86,9.04,9.03,9.06
112.97,15.36,6.37,15.36,6.37,-6.40,-6.76,-7.89,8.96,8.97,8.99
114.10,15.23,6.29,15.24,6.30,-6.32,-6.71,-7.93,8.91,8.92,8.94
115.24,15.11,6.23,15.13,6.25,-6.25,-6.67,-7.96,8.86,8.88,8.88
116.39,15.04,6.23,15.03,6.21,-6.19,-6.62,-7.98,8.85,8.84,8.81
117.55,14.93,6.18,14.92,6.17,-6.13,-6.58,-8.00,8.80,8.78,8.75
118.73,14.79,6.10,14.80,6.11,-6.09,-6.55,-8.01,8.71,8.71,8.69
119.92,14.67,6.03,14.68,6.04,-6.05,-6.52,-8.02,8.62,8.63,8.64
121.12,14.57,5.99,14.58,6.00,-6.02,-6.49,-8.02,8.55,8.56,8.58
122.33,14.52,5.99,14.51,5.98,-6.01,-6.47,-8.00,8.52,8.51,8.53
123.55,14.47,5.99,14.46,5.99,-6.00,-6.45,-7.99,8.47,8.46,8.48
124.79,14.42,5.99,14.43,6.00,-6.01,-6.43,-7.96,8.41,8.42,8.43
126.03,14.41,6.03,14.41,6.03,-6.04,-6.42,-7.93,8.37,8.37,8.38
127.29,14.41,6.08,14.41,6.09,-6.08,-6.41,-7.88,8.33,8.33,8.33
128.57,14.42,6.15,14.43,6.15,-6.14,-6.41,-7.84,8.28,8.29,8.27
129.85,14.45,6.22,14.44,6.22,-6.20,-6.41,-7.78,8.25,8.24,8.23
131.15,14.46,6.28,14.46,6.28,-6.27,-6.41,-7.71,8.19,8.19,8.18
132.46,14.47,6.33,14.48,6.34,-6.35,-6.42,-7.64,8.13,8.14,8.14
133.79,14.50,6.40,14.51,6.41,-6.43,-6.43,-7.56,8.08,8.08,8.10
135.12,14.56,6.50,14.55,6.49,-6.51,-6.45,-7.47,8.05,8.05,8.06
136.48,14.60,6.58,14.61,6.59,-6.59,-6.47,-7.38,8.01,8.01,8.02
137.84,14.66,6.68,14.66,6.68,-6.67,-6.50,-7.28,7.99,7.98,7.98
139.22,14.70,6.77,14.70,6.77,-6.76,-6.52,-7.18,7.94,7.95,7.93
140.61,14.74,6.85,14.75,6.85,-6.84,-6.56,-7.07,7.90,7.91,7.89
142.02,14.80,6.93,14.79,6.93,-6.92,-6.59,-6.97,7.88,7.87,7.87
143.44,14.82,6.99,14.82,7.00,-7.00,-6.63,-6.86,7.83,7.83,7.83
144.87,14.85,7.06,14.85,7.06,-7.07,-6.67,-6.75,7.78,7.78,7.79
146.32,14.87,7.12,14.88,7.12,-7.14,-6.72,-6.63,7.73,7.74,7.75
147.78,14.91,7.19,14.91,7.20,-7.21,-6.77,-6.52,7.70,7.70,7.72
149.26,14.95,7.26,14.95,7.27,-7.27,-6.82,-6.41,7.68,7.67,7.69
150.75,14.98,7.35,14.98,7.34,-7.33,-6.87,-6.30,7.65,7.65,7.63
152.26,14.99,7.40,15.00,7.40,-7.39,-6.93,-6.19,7.60,7.61,7.59
153.78,15.00,7.44,15.00,7.45,-7.44,-6.99,-6.08,7.56,7.56,7.56
155.32,14.99,7.49,14.99,7.48,-7.48,-7.05,-5.97,7.51,7.51,7.50
156.88,14.97,7.50,14.97,7.51,-7.51,-7.11,-5.86,7.46,7.46,7.47
158.44,14.95,7.53,14.95,7.53,-7.54,-7.16,-5.76,7.42,7.41,7.42
160.03,14.91,7.54,14.92,7.55,-7.55,-7.22,-5.66,7.36,7.37,7.37
161.63,14.88,7.56,14.88,7.56,-7.56,-7.28,-5.56,7.32,7.32,7.32
163.24,14.85,7.57,14.84,7.56,-7.56,-7.34,-5.47,7.29,7.28,7.28
164.88,14.79,7.55,14.80,7.56,-7.56,-7.39,-5.38,7.23,7.24,7.24
166.53,14.74,7.55,14.75,7.56,-7.55,-7.44,-5.29,7.19,7.19,7.19
168.19,14.69,7.55,14.68,7.54,-7.54,-7.48,-5.21,7.15,7.14,7.14
169.87,14.61,7.52,14.62,7.53,-7.53,-7.52,-5.13,7.08,7.09,7.09
171.57,14.54,7.49,14.55,7.50,-7.51,-7.55,-5.05,7.03,7.03,7.05
173.29,14.48,7.49,14.47,7.48,-7.49,-7.58,-4.98,6.99,6.98,6.99
175.02,14.39,7.45,14.40,7.46,-7.48,-7.60,-4.91,6.92,6.93,6.94
176.77,14.33,7.45,14.33,7.45,-7.45,-7.61,-4.84,6.88,6.88,6.88
178.54,14.25,7.42,14.26,7.43,-7.42,-7.60,-4.78,6.83,6.83,6.83
180.32,14.18,7.41,14.18,7.41,-7.39,-7.60,-4.72,6.79,6.79,6.77
182.13,14.09,7.37,14.08,7.36,-7.35,-7.57,-4.67,6.74,6.73,6.72
183.95,13.96,7.30,13.97,7.31,-7.31,-7.54,-4.62,6.65,6.66,6.66
185.79,13.85,7.24,13.86,7.25,-7.26,-7.49,-4.57,6.59,6.60,6.61
187.65,13.74,7.20,13.74,7.19,-7.20,-7.44,-4.52,6.55,6.54,6.54
189.52,13.61,7.12,13.62,7.13,-7.13,-7.36,-4.48,6.48,6.49,6.49
191.42,13.49,7.05,13.49,7.05,-7.05,-7.28,-4.44,6.44,6.44,6.44
193.33,13.36,6.97,13.36,6.97,-6.97,-7.18,-4.41,6.39,6.39,6.39
195.27,13.21,6.87,13.21,6.88,-6.88,-7.08,-4.38,6.33,6.33,6.34
197.22,13.06,6.78,13.07,6.79,-6.79,-6.96,-4.35,6.28,6.28,6.28
199.19,12.91,6.68,12.91,6.68,-6.68,-6.83,-4.32,6.23,6.23,6.23
201.18,12.76,6.58,12.76,6.58,-6.57,-6.69,-4.30,6.19,6.19,6.18
203.19,12.59,6.44,12.59,6.45,-6.44,-6.55,-4.27,6.15,6.15,6.15
205.23,12.42,6.33,12.42,6.32,-6.31,-6.39,-4.25,6.11,6.11,6.09
207.28,12.23,6.16,12.23,6.18,-6.18,-6.22,-4.23,6.06,6.06,6.07
209.35,12.04,6.03,12.04,6.04,-6.03,-6.05,-4.21,6.01,6.01,6.01
211.44,11.85,5.89,11.85,5.89,-5.89,-5.87,-4.19,5.96,5.96,5.96
213.56,11.66,5.74,11.66,5.73,-5.75,-5.69,-4.17,5.92,5.91,5.92
215.69,11.47,5.57,11.47,5.58,-5.60,-5.50,-4.16,5.87,5.87,5.90
217.85,11.26,5.40,11.29,5.44,-5.45,-5.31,-4.14,5.82,5.85,5.86
220.03,11.13,5.31,11.12,5.30,-5.29,-5.12,-4.12,5.84,5.83,5.82
222.23,10.96,5.17,10.95,5.16,-5.13,-4.92,-4.10,5.83,5.82,5.79
224.45,10.75,4.98,10.75,4.99,-4.96,-4.72,-4.07,5.79,5.79,5.77
226.70,10.54,4.80,10.54,4.80,-4.80,-4.52,-4.05,5.75,5.74,5.74
228.96,10.31,4.60,10.33,4.62,-4.62,-4.32,-4.02,5.69,5.71,5.71
231.25,10.14,4.44,10.13,4.43,-4.45,-4.13,-3.99,5.70,5.68,5.70
233.57,9.94,4.26,9.93,4.25,-4.27,-3.93,-3.96,5.68,5.66,5.68
235.90,9.71,4.04,9.74,4.07,-4.08,-3.73,-3.92,5.63,5.66,5.67
238.26,9.56,3.90,9.55,3.89,-3.89,-3.53,-3.88,5.67,5.66,5.66
240.64,9.36,3.71,9.37,3.72,-3.71,-3.34,-3.84,5.65,5.67,5.65
243.05,9.20,3.55,9.19,3.54,-3.52,-3.15,-3.79,5.68,5.66,5.65
245.48,8.99,3.35,8.99,3.35,-3.33,-2.95,-3.73,5.66,5.65,5.64
247.93,8.76,3.12,8.79,3.15,-3.15,-2.76,-3.68,5.61,5.64,5.64
250.41,8.60,2.96,8.59,2.95,-2.96,-2.58,-3.61,5.64,5.63,5.64
252.92,8.40,2.75,8.41,2.76,-2.77,-2.39,-3.54,5.63,5.63,5.65
255.45,8.23,2.57,8.24,2.58,-2.59,-2.21,-3.47,5.64,5.65,5.66
258.00,8.08,2.41,8.07,2.40,-2.40,-2.03,-3.39,5.68,5.66,5.67
260.58,7.89,2.22,7.90,2.23,-2.22,-1.85,-3.30,5.67,5.68,5.67
263.19,7.74,2.06,7.73,2.05,-2.05,-1.68,-3.21,5.70,5.69,5.68
265.82,7.55,1.86,7.57,1.88,-1.87,-1.50,-3.12,5.68,5.70,5.69
268.48,7.41,1.70,7.41,1.70,-1.70,-1.33,-3.02,5.71,5.71,5.71
271.16,7.26,1.53,7.24,1.52,-1.53,-1.16,-2.91,5.73,5.71,5.73
273.87,7.07,1.34,7.09,1.35,-1.36,-1.00,-2.80,5.71,5.73,5.73
276.61,6.92,1.16,6.93,1.18,-1.18,-0.83,-2.69,5.74,5.74,5.76
279.38,6.78,1.02,6.78,1.02,-1.01,-0.67,-2.58,5.77,5.77,5.76
282.17,6.63,0.85,6.63,0.85,-0.84,-0.51,-2.46,5.79,5.79,5.78
284.99,6.48,0.69,6.47,0.68,-0.67,-0.36,-2.33,5.81,5.80,5.79
287.84,6.28,0.48,6.30,0.50,-0.49,-0.20,-2.21,5.79,5.80,5.80
290.72,6.12,0.31,6.13,0.31,-0.32,-0.04,-2.08,5.80,5.81,5.81
293.63,5.97,0.14,5.96,0.13,-0.14,0.11,-1.95,5.83,5.82,5.83
296.57,5.80,-0.05,5.81,-0.03,0.03,0.26,-1.82,5.84,5.84,5.85
299.53,5.64,-0.21,5.64,-0.21,0.21,0.41,-1.68,5.85,5.85,5.85
302.53,5.48,-0.38,5.48,-0.38,0.39,0.56,-1.55,5.87,5.87,5.86
305.55,5.31,-0.57,5.31,-0.56,0.56,0.71,-1.41,5.87,5.87,5.88
308.61,5.15,-0.74,5.15,-0.74,0.73,0.86,-1.27,5.88,5.88,5.89
311.69,4.98,-0.92,4.99,-0.91,0.90,1.01,-1.14,5.89,5.90,5.90
314.81,4.84,-1.09,4.84,-1.08,1.08,1.16,-1.00,5.92,5.92,5.93
317.96,4.69,-1.23,4.68,-1.24,1.25,1.31,-0.86,5.95,5.94,5.92
321.14,4.51,-1.42,4.51,-1.42,1.43,1.46,-0.71,5.94,5.94,5.93
324.35,4.32,-1.61,4.32,-1.61,1.61,1.61,-0.57,5.93,5.93,5.93
327.59,4.12,-1.82,4.14,-1.80,1.79,1.76,-0.43,5.92,5.93,5.94
330.87,3.96,-1.98,3.96,-1.98,1.98,1.92,-0.29,5.94,5.94,5.94
334.18,3.79,-2.15,3.78,-2.16,2.17,2.08,-0.14,5.96,5.95,5.94
337.52,3.58,-2.37,3.60,-2.35,2.36,2.24,0.00,5.94,5.95,5.95
340.90,3.41,-2.54,3.41,-2.54,2.55,2.40,0.15,5.96,5.95,5.95
344.30,3.21,-2.74,3.21,-2.74,2.73,2.57,0.29,5.94,5.94,5.95
347.75,3.04,-2.91,3.04,-2.91,2.91,2.74,0.44,5.95,5.95,5.95
351.23,2.85,-3.10,2.86,-3.08,3.08,2.91,0.58,5.93,5.94,5.95
354.74,2.71,-3.24,2.70,-3.24,3.24,3.08,0.73,5.96,5.95,5.95
358.28,2.54,-3.39,2.54,-3.39,3.40,3.24,0.88,5.94,5.94,5.93
361.87,2.40,-3.53,2.39,-3.54,3.54,3.40,1.03,5.94,5.93,5.93
365.49,2.24,-3.69,2.25,-3.67,3.66,3.56,1.18,5.91,5.92,5.93
369.14,2.13,-3.79,2.14,-3.79,3.77,3.69,1.32,5.91,5.91,5.92
372.83,2.04,-3.88,2.03,-3.89,3.87,3.81,1.47,5.91,5.90,5.92
376.56,1.94,-3.97,1.95,-3.96,3.95,3.92,1.62,5.90,5.90,5.91
380.33,1.87,-4.03,1.88,-4.02,4.02,4.00,1.78,5.90,5.90,5.90
384.13,1.82,-4.07,1.82,-4.07,4.08,4.06,1.93,5.90,5.90,5.89
387.97,1.77,-4.11,1.77,-4.11,4.12,4.09,2.08,5.89,5.89,5.88
391.85,1.73,-4.14,1.73,-4.15,4.15,4.11,2.23,5.88,5.88,5.87
395.77,1.69,-4.19,1.69,-4.18,4.17,4.12,2.38,5.87,5.87,5.88
399.73,1.67,-4.20,1.67,-4.19,4.19,4.11,2.53,5.86,5.86,5.87
403.72,1.66,-4.20,1.67,-4.20,4.19,4.10,2.68,5.85,5.85,5.86
407.76,1.67,-4.18,1.67,-4.19,4.18,4.08,2.84,5.85,5.85,5.85
411.84,1.68,-4.18,1.68,-4.17,4.17,4.06,2.99,5.85,5.84,5.86
415.96,1.69,-4.15,1.70,-4.15,4.14,4.04,3.14,5.83,5.84,5.84
420.12,1.72,-4.12,1.73,-4.12,4.11,4.02,3.28,5.84,5.84,5.84
424.32,1.76,-4.08,1.76,-4.07,4.08,4.00,3.43,5.84,5.84,5.84
428.56,1.80,-4.03,1.80,-4.03,4.05,3.98,3.58,5.85,5.85,5.83
432.85,1.83,-4.00,1.83,-4.00,4.01,3.97,3.72,5.84,5.84,5.83
437.18,1.86,-3.97,1.86,-3.97,3.97,3.95,3.86,5.84,5.83,5.83
441.55,1.88,-3.96,1.89,-3.95,3.94,3.94,4.00,5.82,5.83,5.84
445.96,1.92,-3.92,1.92,-3.91,3.90,3.92,4.13,5.83,5.83,5.84
450.42,1.96,-3.87,1.96,-3.88,3.87,3.91,4.26,5.83,5.83,5.83
454.93,2.00,-3.84,2.00,-3.83,3.84,3.89,4.38,5.84,5.84,5.84
459.48,2.04,-3.80,2.04,-3.80,3.80,3.88,4.50,5.85,5.85,5.84
464.07,2.08,-3.77,2.08,-3.77,3.77,3.86,4.62,5.85,5.85,5.85
468.71,2.11,-3.75,2.12,-3.74,3.74,3.84,4.73,5.85,5.85,5.86
473.40,2.15,-3.70,2.15,-3.71,3.71,3.82,4.83,5.86,5.85,5.85
