frequency,raw,error,smoothed,error_smoothed,equalization,parametric_eq,fixed_band_eq,equalized_raw,equalized_smoothed,target
20.00,-21.88,-25.56,-21.88,-25.56,25.56,23.89,13.21,3.68,3.68,3.68
20.20,-21.82,-25.53,-21.82,-25.54,25.54,24.25,13.41,3.72,3.71,3.71
20.40,-21.77,-25.51,-21.77,-25.51,25.51,24.59,13.61,3.74,3.74,3.74
20.61,-21.71,-25.47,-21.71,-25.48,25.48,24.92,13.82,3.77,3.77,3.76
20.81,-21.66,-25.45,-21.66,-25.45,25.45,25.22,14.03,3.79,3.79,3.79
21.02,-21.60,-25.42,-21.60,-25.42,25.42,25.49,14.25,3.81,3.81,3.82
21.23,-21.55,-25.38,-21.55,-25.38,25.38,25.73,14.47,3.83,3.83,3.83
21.44,-21.50,-25.34,-21.50,-25.34,25.34,25.94,14.70,3.84,3.84,3.84
21.66,-21.44,-25.29,-21.44,-25.29,25.29,26.10,14.93,3.85,3.85,3.85
21.87,-21.39,-25.24,-21.39,-25.24,25.24,26.22,15.17,3.85,3.86,3.85
22.09,-21.33,-25.19,-21.33,-25.19,25.19,26.29,15.42,3.86,3.86,3.86
22.31,-21.28,-25.14,-21.28,-25.14,25.14,26.32,15.67,3.86,3.86,3.86
22.54,-21.22,-25.08,-21.22,-25.08,25.08,26.30,15.93,3.86,3.86,3.86
22.76,-21.17,-25.03,-21.17,-25.03,25.03,26.25,16.20,3.86,3.86,3.86
22.99,-21.11,-24.96,-21.11,-24.97,24.97,26.16,16.47,3.86,3.86,3.85
23.22,-21.06,-24.91,-21.06,-24.91,24.92,26.05,16.76,3.86,3.86,3.85
23.45,-21.01,-24.86,-21.01,-24.86,24.86,25.90,17.05,3.85,3.85,3.85
23.69,-20.95,-24.80,-20.95,-24.81,24.80,25.74,17.35,3.85,3.85,3.85
23.92,-20.90,-24.75,-20.90,-24.75,24.75,25.57,17.66,3.85,3.85,3.85
24.16,-20.84,-24.69,-20.84,-24.69,24.69,25.38,17.99,3.85,3.85,3.85
24.40,-20.79,-24.64,-20.79,-24.64,24.64,25.19,18.32,3.85,3.85,3.85
24.65,-20.73,-24.57,-20.73,-24.58,24.58,25.00,18.67,3.85,3.85,3.84
24.89,-20.68,-24.52,-20.68,-24.52,24.52,24.81,19.03,3.84,3.84,3.84
25.14,-20.63,-24.47,-20.63,-24.47,24.47,24.63,19.40,3.84,3.84,3.84
25.39,-20.57,-24.41,-20.57,-24.41,24.41,24.45,19.79,3.84,3.84,3.84
25.65,-20.52,-24.36,-20.52,-24.36,24.36,24.28,20.20,3.83,3.84,3.84
25.91,-20.46,-24.29,-20.46,-24.30,24.30,24.11,20.62,3.84,3.84,3.83
26.16,-20.41,-24.24,-20.41,-24.24,24.24,23.96,21.07,3.83,3.83,3.83
26.43,-20.35,-24.18,-20.35,-24.18,24.19,23.81,21.53,3.83,3.83,3.83
26.69,-20.30,-24.13,-20.30,-24.13,24.13,23.67,22.02,3.83,3.83,3.83
26.96,-20.24,-24.07,-20.24,-24.07,24.07,23.54,22.53,3.83,3.83,3.83
27.23,-20.19,-24.01,-20.19,-24.02,24.02,23.41,23.07,3.83,3.83,3.82
27.50,-20.14,-23.96,-20.14,-23.96,23.96,23.29,23.64,3.82,3.83,3.82
27.77,-20.08,-23.89,-20.08,-23.90,23.91,23.17,24.24,3.83,3.83,3.81
28.05,-20.03,-23.84,-20.03,-23.84,23.85,23.06,24.87,3.82,3.82,3.81
28.33,-19.97,-23.77,-19.97,-23.78,23.78,22.95,25.54,3.81,3.81,3.80
28.62,-19.92,-23.72,-19.92,-23.72,23.71,22.83,26.25,3.79,3.79,3.80
28.90,-19.84,-23.64,-19.85,-23.64,23.62,22.72,26.99,3.78,3.78,3.80
29.19,-19.76,-23.55,-19.76,-23.55,23.53,22.60,27.77,3.77,3.77,3.79
29.48,-19.65,-23.44,-19.64,-23.43,23.42,22.48,28.57,3.77,3.77,3.79
29.78,-19.51,-23.29,-19.51,-23.30,23.29,22.35,29.39,3.78,3.78,3.78
30.08,-19.36,-23.14,-19.37,-23.15,23.16,22.23,30.18,3.79,3.78,3.78
30.38,-19.23,-23.00,-19.23,-23.00,23.01,22.10,30.90,3.78,3.78,3.77
30.68,-19.09,-22.86,-19.09,-22.86,22.86,21.96,31.48,3.77,3.78,3.77
30.99,-18.94,-22.70,-18.94,-22.70,22.71,21.83,31.85,3.77,3.77,3.76
31.30,-18.79,-22.54,-18.80,-22.55,22.55,21.69,31.94,3.76,3.76,3.75
31.61,-18.65,-22.40,-18.65,-22.40,22.40,21.55,31.74,3.75,3.75,3.75
31.93,-18.51,-22.25,-18.50,-22.25,22.25,21.42,31.28,3.74,3.75,3.74
32.24,-18.36,-22.09,-18.36,-22.10,22.10,21.28,30.65,3.74,3.74,3.73
32.57,-18.21,-21.94,-18.22,-21.95,21.95,21.14,29.91,3.74,3.73,3.73
32.89,-18.09,-21.81,-18.08,-21.80,21.80,21.01,29.12,3.71,3.72,3.72
33.22,-17.94,-21.65,-17.94,-21.65,21.65,20.88,28.33,3.71,3.71,3.71
33.55,-17.79,-21.50,-17.80,-21.50,21.50,20.75,27.55,3.71,3.71,3.71
33.89,-17.65,-21.35,-17.65,-21.35,21.35,20.62,26.81,3.70,3.70,3.70
34.23,-17.51,-21.20,-17.51,-21.20,21.20,20.50,26.10,3.69,3.69,3.69
34.57,-17.37,-21.05,-17.36,-21.05,21.04,20.38,25.43,3.67,3.68,3.68
34.92,-17.21,-20.88,-17.22,-20.89,20.89,20.26,24.79,3.67,3.67,3.67
35.27,-17.06,-20.72,-17.07,-20.73,20.73,20.15,24.20,3.67,3.66,3.66
35.62,-16.92,-20.57,-16.92,-20.57,20.57,20.04,23.63,3.65,3.66,3.65
35.97,-16.77,-20.41,-16.77,-20.41,20.41,19.94,23.10,3.64,3.64,3.64
36.33,-16.62,-20.25,-16.62,-20.26,20.26,19.83,22.59,3.64,3.63,3.63
36.70,-16.48,-20.10,-16.48,-20.10,20.10,19.73,22.11,3.62,3.62,3.62
37.06,-16.33,-19.94,-16.33,-19.94,19.94,19.63,21.65,3.61,3.61,3.61
37.43,-16.18,-19.78,-16.18,-19.79,19.79,19.53,21.22,3.61,3.60,3.60
37.81,-16.04,-19.63,-16.04,-19.63,19.63,19.42,20.81,3.59,3.59,3.59
38.19,-15.90,-19.48,-15.90,-19.48,19.47,19.32,20.41,3.57,3.58,3.58
38.57,-15.75,-19.32,-15.75,-19.32,19.32,19.21,20.04,3.56,3.56,3.57
38.95,-15.60,-19.16,-15.60,-19.16,19.16,19.10,19.68,3.56,3.55,3.56
39.34,-15.46,-19.00,-15.45,-19.00,19.00,18.99,19.34,3.54,3.55,3.54
39.74,-15.29,-18.82,-15.30,-18.83,18.84,18.86,19.01,3.55,3.54,3.53
40.14,-15.15,-18.67,-15.15,-18.67,18.68,18.74,18.69,3.52,3.53,3.52
40.54,-15.00,-18.51,-15.00,-18.51,18.52,18.60,18.39,3.51,3.51,3.51
40.94,-14.85,-18.35,-14.85,-18.36,18.35,18.46,18.10,3.50,3.50,3.50
41.35,-14.71,-18.20,-14.70,-18.20,18.19,18.32,17.82,3.48,3.49,3.49
41.76,-14.55,-18.03,-14.56,-18.04,18.03,18.16,17.55,3.49,3.48,3.48
42.18,-14.41,-17.88,-14.40,-17.88,17.88,18.00,17.29,3.47,3.47,3.47
42.60,-14.25,-17.71,-14.25,-17.71,17.71,17.83,17.04,3.47,3.46,3.46
43.03,-14.10,-17.55,-14.11,-17.55,17.55,17.66,16.79,3.45,3.45,3.45
43.46,-13.96,-17.39,-13.96,-17.39,17.39,17.48,16.56,3.43,3.43,3.43
43.90,-13.82,-17.23,-13.82,-17.23,17.23,17.30,16.33,3.41,3.41,3.41
44.33,-13.67,-17.06,-13.67,-17.06,17.06,17.11,16.12,3.39,3.39,3.39
44.78,-13.52,-16.89,-13.53,-16.90,16.90,16.92,15.91,3.38,3.37,3.37
45.23,-13.38,-16.73,-13.38,-16.73,16.74,16.72,15.70,3.35,3.36,3.35
45.68,-13.23,-16.57,-13.23,-16.57,16.57,16.52,15.51,3.34,3.34,3.34
46.13,-13.08,-16.40,-13.08,-16.40,16.40,16.32,15.32,3.32,3.32,3.32
46.60,-12.92,-16.23,-12.93,-16.24,16.23,16.11,15.13,3.31,3.31,3.31
47.06,-12.78,-16.07,-12.77,-16.06,16.06,15.91,14.95,3.28,3.29,3.29
47.53,-12.62,-15.89,-12.62,-15.89,15.89,15.70,14.78,3.27,3.27,3.27
48.01,-12.45,-15.71,-12.46,-15.72,15.71,15.50,14.61,3.26,3.25,3.26
48.49,-12.31,-15.54,-12.30,-15.54,15.53,15.29,14.45,3.22,3.23,3.23
48.97,-12.15,-15.35,-12.15,-15.35,15.35,15.09,14.29,3.20,3.20,3.20
49.46,-11.99,-15.16,-11.99,-15.16,15.17,14.89,14.13,3.18,3.17,3.17
49.96,-11.83,-14.97,-11.83,-14.98,14.99,14.68,13.98,3.15,3.15,3.14
50.46,-11.68,-14.80,-11.68,-14.80,14.81,14.48,13.83,3.12,3.13,3.12
50.96,-11.52,-14.62,-11.52,-14.62,14.63,14.29,13.69,3.11,3.10,3.10
51.47,-11.38,-14.45,-11.37,-14.45,14.45,14.09,13.55,3.07,3.08,3.07
51.99,-11.21,-14.26,-11.22,-14.28,14.28,13.90,13.41,3.06,3.05,3.05
52.51,-11.08,-14.11,-11.08,-14.11,14.10,13.71,13.27,3.02,3.03,3.03
53.03,-10.93,-13.94,-10.93,-13.94,13.93,13.52,13.14,3.00,3.01,3.01
53.56,-10.77,-13.75,-10.78,-13.76,13.76,13.34,13.01,2.99,2.98,2.98
54.10,-10.63,-13.59,-10.63,-13.59,13.58,13.15,12.88,2.95,2.96,2.96
54.64,-10.47,-13.40,-10.48,-13.41,13.41,12.98,12.75,2.94,2.93,2.93
55.18,-10.33,-13.24,-10.32,-13.23,13.23,12.80,12.62,2.90,2.91,2.91
55.74,-10.16,-13.04,-10.17,-13.05,13.05,12.63,12.49,2.89,2.88,2.88
56.29,-10.00,-12.86,-10.01,-12.87,12.87,12.46,12.37,2.87,2.86,2.86
56.86,-9.86,-12.70,-9.85,-12.69,12.69,12.30,12.24,2.83,2.84,2.84
57.42,-9.69,-12.50,-9.69,-12.51,12.51,12.14,12.11,2.82,2.82,2.81
58.00,-9.54,-12.33,-9.54,-12.33,12.33,11.98,11.98,2.79,2.80,2.79
58.58,-9.37,-12.14,-9.38,-12.15,12.15,11.82,11.85,2.78,2.77,2.77
59.16,-9.23,-11.98,-9.22,-11.98,11.97,11.67,11.72,2.74,2.75,2.75
59.76,-9.07,-11.80,-9.07,-11.80,11.79,11.52,11.59,2.72,2.72,2.73
60.35,-8.91,-11.61,-8.91,-11.62,11.61,11.37,11.45,2.70,2.69,2.70
60.96,-8.76,-11.43,-8.75,-11.42,11.42,11.22,11.31,2.66,2.67,2.67
61.57,-8.59,-11.22,-8.60,-11.23,11.24,11.07,11.17,2.65,2.64,2.63
62.18,-8.44,-11.04,-8.44,-11.05,11.05,10.92,11.03,2.61,2.61,2.60
62.80,-8.30,-10.87,-8.29,-10.86,10.87,10.77,10.88,2.57,2.58,2.57
63.43,-8.13,-10.67,-8.14,-10.68,10.68,10.62,10.74,2.55,2.54,2.54
64.07,-7.98,-10.49,-7.98,-10.50,10.49,10.47,10.59,2.51,2.51,2.51
64.71,-7.83,-10.32,-7.82,-10.31,10.30,10.32,10.43,2.47,2.48,2.49
65.35,-7.66,-10.12,-7.66,-10.12,10.12,10.16,10.28,2.46,2.46,2.46
66.01,-7.49,-9.92,-7.50,-9.93,9.93,10.01,10.12,2.44,2.43,2.43
66.67,-7.33,-9.73,-7.33,-9.73,9.74,9.85,9.96,2.41,2.41,2.40
67.33,-7.18,-9.55,-7.18,-9.55,9.55,9.68,9.79,2.38,2.38,2.37
68.01,-7.02,-9.36,-7.02,-9.36,9.37,9.52,9.63,2.34,2.34,2.34
68.69,-6.86,-9.17,-6.86,-9.18,9.17,9.35,9.46,2.31,2.31,2.31
69.37,-6.71,-8.99,-6.71,-8.99,8.98,9.17,9.29,2.27,2.27,2.28
70.07,-6.55,-8.80,-6.55,-8.80,8.79,9.00,9.12,2.24,2.24,2.25
70.77,-6.39,-8.61,-6.38,-8.60,8.60,8.82,8.95,2.21,2.22,2.22
71.48,-6.21,-8.40,-6.21,-8.40,8.41,8.64,8.77,2.19,2.19,2.19
72.19,-6.04,-8.19,-6.05,-8.21,8.21,8.45,8.60,2.17,2.16,2.15
72.91,-5.90,-8.02,-5.89,-8.01,8.02,8.27,8.42,2.12,2.13,2.12
73.64,-5.75,-7.83,-5.74,-7.82,7.83,8.08,8.25,2.08,2.09,2.08
74.38,-5.58,-7.63,-5.59,-7.64,7.64,7.89,8.07,2.06,2.05,2.05
75.12,-5.44,-7.45,-5.44,-7.45,7.45,7.70,7.89,2.01,2.01,2.01
75.87,-5.30,-7.28,-5.29,-7.27,7.27,7.51,7.71,1.97,1.98,1.98
76.63,-5.13,-7.08,-5.14,-7.09,7.09,7.33,7.54,1.96,1.95,1.95
77.40,-4.99,-6.91,-4.99,-6.90,6.90,7.14,7.36,1.91,1.92,1.92
78.17,-4.83,-6.71,-4.84,-6.72,6.72,6.95,7.18,1.89,1.89,1.88
78.95,-4.69,-6.54,-4.69,-6.54,6.54,6.77,7.00,1.85,1.85,1.85
79.74,-4.55,-6.37,-4.54,-6.36,6.36,6.58,6.82,1.81,1.82,1.82
80.54,-4.40,-6.18,-4.40,-6.19,6.18,6.40,6.65,1.78,1.78,1.78
81.35,-4.25,-6.00,-4.26,-6.01,6.01,6.22,6.47,1.76,1.75,1.75
82.16,-4.13,-5.84,-4.12,-5.83,5.83,6.04,6.29,1.70,1.72,1.71
82.98,-3.98,-5.66,-3.98,-5.66,5.66,5.86,6.12,1.68,1.68,1.68
83.81,-3.83,-5.47,-3.84,-5.48,5.49,5.69,5.94,1.66,1.64,1.64
84.65,-3.72,-5.32,-3.71,-5.31,5.31,5.51,5.77,1.59,1.61,1.60
85.50,-3.56,-5.13,-3.58,-5.14,5.14,5.34,5.59,1.58,1.57,1.57
86.35,-3.46,-4.99,-3.45,-4.98,4.97,5.18,5.42,1.51,1.52,1.53
87.22,-3.30,-4.79,-3.31,-4.80,4.80,5.01,5.25,1.50,1.49,1.49
88.09,-3.18,-4.63,-3.18,-4.63,4.63,4.84,5.07,1.45,1.45,1.45
88.97,-3.04,-4.45,-3.05,-4.46,4.46,4.68,4.90,1.42,1.42,1.41
89.86,-2.93,-4.30,-2.92,-4.29,4.30,4.52,4.73,1.36,1.37,1.37
90.76,-2.80,-4.12,-2.81,-4.13,4.13,4.36,4.56,1.33,1.32,1.32
91.66,-2.69,-3.97,-2.69,-3.97,3.96,4.20,4.38,1.27,1.27,1.28
92.58,-2.58,-3.81,-2.56,-3.80,3.80,4.05,4.21,1.22,1.23,1.23
93.51,-2.43,-3.62,-2.44,-3.63,3.63,3.89,4.04,1.20,1.19,1.19
94.44,-2.31,-3.46,-2.32,-3.47,3.47,3.74,3.87,1.16,1.15,1.15
95.39,-2.21,-3.31,-2.21,-3.31,3.32,3.59,3.70,1.11,1.11,1.10
96.34,-2.12,-3.17,-2.11,-3.16,3.16,3.44,3.53,1.04,1.05,1.05
97.30,-2.01,-3.01,-2.01,-3.01,3.01,3.29,3.37,1.00,1.00,1.00
98.28,-1.90,-2.85,-1.91,-2.87,2.86,3.15,3.20,0.96,0.95,0.95
99.26,-1.81,-2.72,-1.81,-2.72,2.72,3.00,3.03,0.91,0.91,0.91
100.25,-1.73,-2.59,-1.72,-2.58,2.58,2.86,2.87,0.85,0.86,0.86
101.25,-1.62,-2.43,-1.63,-2.44,2.44,2.72,2.70,0.82,0.81,0.81
102.27,-1.55,-2.31,-1.54,-2.31,2.31,2.58,2.54,0.75,0.76,0.76
103.29,-1.45,-2.16,-1.46,-2.17,2.18,2.44,2.38,0.72,0.72,0.71
104.32,-1.39,-2.06,-1.38,-2.05,2.05,2.30,2.22,0.66,0.67,0.67
105.37,-1.30,-1.92,-1.31,-1.93,1.93,2.17,2.06,0.63,0.62,0.62
106.42,-1.24,-1.81,-1.24,-1.81,1.81,2.03,1.91,0.57,0.57,0.57
107.48,-1.18,-1.70,-1.18,-1.70,1.70,1.90,1.76,0.52,0.53,0.52
108.56,-1.12,-1.59,-1.13,-1.60,1.60,1.78,1.61,0.48,0.47,0.47
109.64,-1.08,-1.50,-1.08,-1.50,1.50,1.65,1.46,0.42,0.42,0.42
110.74,-1.03,-1.40,-1.03,-1.40,1.40,1.53,1.32,0.37,0.37,0.37
111.85,-1.00,-1.32,-0.99,-1.31,1.31,1.41,1.18,0.31,0.32,0.32
112.97,-0.94,-1.20,-0.95,-1.22,1.22,1.30,1.05,0.28,0.27,0.26
114.10,-0.93,-1.14,-0.93,-1.14,1.14,1.18,0.92,0.21,0.21,0.21
115.24,-0.90,-1.05,-0.90,-1.05,1.06,1.08,0.80,0.16,0.16,0.15
116.39,-0.89,-0.99,-0.88,-0.98,0.98,0.97,0.69,0.09,0.10,0.10
117.55,-0.85,-0.89,-0.86,-0.91,0.91,0.87,0.57,0.06,0.04,0.04
118.73,-0.85,-0.84,-0.85,-0.84,0.84,0.78,0.47,-0.01,-0.01,-0.01
119.92,-0.85,-0.79,-0.84,-0.78,0.77,0.69,0.37,-0.08,-0.06,-0.06
121.12,-0.82,-0.71,-0.82,-0.72,0.71,0.61,0.28,-0.11,-0.11,-0.11
122.33,-0.80,-0.64,-0.81,-0.65,0.65,0.53,0.20,-0.15,-0.15,-0.16
123.55,-0.80,-0.59,-0.80,-0.59,0.60,0.46,0.12,-0.20,-0.20,-0.21
124.79,-0.80,-0.54,-0.80,-0.54,0.55,0.39,0.05,-0.25,-0.25,-0.26
126.03,-0.80,-0.49,-0.81,-0.50,0.50,0.33,-0.01,-0.30,-0.31,-0.31
127.29,-0.83,-0.47,-0.83,-0.47,0.46,0.27,-0.06,-0.37,-0.37,-0.36
128.57,-0.85,-0.43,-0.84,-0.43,0.42,0.22,-0.11,-0.43,-0.43,-0.42
129.85,-0.85,-0.38,-0.85,-0.38,0.38,0.18,-0.15,-0.47,-0.47,-0.47
131.15,-0.85,-0.33,-0.86,-0.34,0.34,0.14,-0.18,-0.51,-0.51,-0.52
132.46,-0.85,-0.28,-0.87,-0.30,0.31,0.11,-0.21,-0.54,-0.56,-0.57
133.79,-0.90,-0.29,-0.88,-0.27,0.27,0.08,-0.23,-0.63,-0.61,-0.61
135.12,-0.90,-0.24,-0.90,-0.24,0.24,0.06,-0.24,-0.66,-0.66,-0.66
136.48,-0.90,-0.20,-0.92,-0.22,0.21,0.04,-0.25,-0.69,-0.71,-0.70
137.84,-0.94,-0.19,-0.92,-0.17,0.18,0.02,-0.26,-0.76,-0.74,-0.75
139.22,-0.94,-0.14,-0.94,-0.15,0.15,0.01,-0.25,-0.79,-0.79,-0.80
140.61,-0.95,-0.11,-0.96,-0.13,0.13,0.01,-0.25,-0.82,-0.83,-0.84
142.02,-0.99,-0.12,-0.98,-0.10,0.11,0.01,-0.24,-0.88,-0.87,-0.87
143.44,-0.99,-0.08,-1.00,-0.09,0.08,0.01,-0.23,-0.91,-0.91,-0.91
144.87,-1.02,-0.07,-1.01,-0.07,0.06,0.01,-0.21,-0.96,-0.95,-0.95
146.32,-1.03,-0.04,-1.03,-0.05,0.05,0.02,-0.19,-0.98,-0.98,-0.99
147.78,-1.04,-0.02,-1.05,-0.03,0.03,0.02,-0.17,-1.01,-1.02,-1.02
149.26,-1.08,-0.02,-1.07,-0.01,0.01,0.03,-0.15,-1.07,-1.06,-1.06
150.75,-1.08,0.02,-1.09,0.00,-0.01,0.05,-0.13,-1.09,-1.10,-1.10
152.26,-1.13,0.01,-1.12,0.02,-0.02,0.06,-0.10,-1.15,-1.14,-1.14
153.78,-1.13,0.05,-1.14,0.04,-0.04,0.07,-0.07,-1.17,-1.18,-1.18
155.32,-1.17,0.05,-1.16,0.06,-0.06,0.09,-0.05,-1.23,-1.22,-1.22
156.88,-1.17,0.09,-1.18,0.08,-0.08,0.10,-0.02,-1.25,-1.26,-1.26
158.44,-1.21,0.09,-1.20,0.09,-0.09,0.12,0.01,-1.30,-1.30,-1.30
160.03,-1.22,0.12,-1.22,0.11,-0.11,0.13,0.04,-1.33,-1.34,-1.34
161.63,-1.25,0.13,-1.25,0.13,-0.13,0.15,0.06,-1.38,-1.38,-1.38
163.24,-1.27,0.15,-1.27,0.15,-0.15,0.16,0.09,-1.42,-1.41,-1.42
164.88,-1.29,0.16,-1.29,0.16,-0.16,0.18,0.12,-1.45,-1.45,-1.45
166.53,-1.31,0.18,-1.32,0.17,-0.18,0.19,0.15,-1.49,-1.49,-1.49
168.19,-1.34,0.19,-1.34,0.19,-0.19,0.21,0.17,-1.53,-1.53,-1.53
169.87,-1.36,0.21,-1.36,0.21,-0.21,0.22,0.20,-1.57,-1.57,-1.57
171.57,-1.37,0.24,-1.38,0.22,-0.22,0.24,0.22,-1.59,-1.61,-1.61
173.29,-1.41,0.23,-1.40,0.24,-0.24,0.25,0.25,-1.65,-1.64,-1.64
175.02,-1.43,0.25,-1.43,0.25,-0.26,0.26,0.27,-1.69,-1.68,-1.68
176.77,-1.45,0.27,-1.45,0.26,-0.27,0.28,0.29,-1.72,-1.73,-1.72
178.54,-1.47,0.29,-1.47,0.29,-0.29,0.29,0.31,-1.76,-1.76,-1.76
180.32,-1.50,0.30,-1.49,0.30,-0.30,0.30,0.33,-1.80,-1.80,-1.80
182.13,-1.51,0.32,-1.52,0.31,-0.31,0.31,0.35,-1.82,-1.83,-1.83
183.95,-1.55,0.32,-1.55,0.32,-0.32,0.32,0.37,-1.87,-1.86,-1.87
185.79,-1.59,0.31,-1.58,0.32,-0.31,0.33,0.39,-1.90,-1.90,-1.90
187.65,-1.62,0.32,-1.63,0.30,-0.30,0.34,0.41,-1.92,-1.93,-1.94
189.52,-1.69,0.28,-1.69,0.28,-0.28,0.35,0.43,-1.97,-1.97,-1.97
191.42,-1.75,0.25,-1.75,0.25,-0.24,0.36,0.44,-2.00,-2.00,-2.00
193.33,-1.83,0.20,-1.83,0.20,-0.19,0.37,0.46,-2.03,-2.03,-2.03
195.27,-1.92,0.14,-1.92,0.14,-0.13,0.37,0.47,-2.05,-2.05,-2.06
197.22,-2.03,0.06,-2.03,0.06,-0.05,0.38,0.48,-2.08,-2.07,-2.09
199.19,-2.14,-0.02,-2.14,-0.03,0.05,0.39,0.50,-2.09,-2.10,-2.12
201.18,-2.27,-0.13,-2.28,-0.14,0.15,0.39,0.51,-2.12,-2.12,-2.14
203.19,-2.42,-0.26,-2.42,-0.26,0.26,0.40,0.52,-2.16,-2.15,-2.16
205.23,-2.56,-0.38,-2.56,-0.38,0.38,0.41,0.53,-2.18,-2.18,-2.18
207.28,-2.69,-0.50,-2.70,-0.50,0.49,0.41,0.54,-2.20,-2.21,-2.19
209.35,-2.82,-0.61,-2.82,-0.61,0.59,0.42,0.55,-2.23,-2.22,-2.21
211.44,-2.92,-0.69,-2.92,-0.70,0.68,0.42,0.56,-2.24,-2.24,-2.23
213.56,-3.00,-0.76,-3.00,-0.76,0.75,0.43,0.57,-2.25,-2.25,-2.24
215.69,-3.06,-0.82,-3.06,-0.82,0.80,0.43,0.58,-2.26,-2.26,-2.24
217.85,-3.09,-0.84,-3.10,-0.85,0.83,0.43,0.59,-2.26,-2.27,-2.25
220.03,-3.13,-0.87,-3.11,-0.85,0.84,0.44,0.60,-2.29,-2.27,-2.26
222.23,-3.09,-0.82,-3.10,-0.84,0.84,0.44,0.61,-2.25,-2.26,-2.27
224.45,-3.08,-0.81,-3.09,-0.82,0.83,0.44,0.62,-2.25,-2.26,-2.27
226.70,-3.07,-0.80,-3.06,-0.80,0.81,0.45,0.62,-2.26,-2.25,-2.27
228.96,-3.04,-0.77,-3.05,-0.78,0.79,0.45,0.63,-2.25,-2.26,-2.27
231.25,-3.03,-0.77,-3.03,-0.76,0.76,0.45,0.64,-2.27,-2.26,-2.26
233.57,-2.99,-0.73,-3.00,-0.74,0.74,0.46,0.64,-2.25,-2.26,-2.26
235.90,-2.99,-0.73,-2.98,-0.72,0.72,0.46,0.65,-2.27,-2.26,-2.26
238.26,-2.94,-0.69,-2.95,-0.70,0.71,0.46,0.66,-2.23,-2.24,-2.25
240.64,-2.94,-0.70,-2.93,-0.69,0.70,0.47,0.66,-2.24,-2.23,-2.24
243.05,-2.90,-0.67,-2.91,-0.68,0.69,0.47,0.67,-2.21,-2.22,-2.23
245.48,-2.90,-0.68,-2.90,-0.68,0.69,0.47,0.68,-2.21,-2.22,-2.22
247.93,-2.90,-0.69,-2.90,-0.69,0.69,0.47,0.68,-2.22,-2.21,-2.21
250.41,-2.90,-0.70,-2.90,-0.70,0.69,0.48,0.69,-2.21,-2.21,-2.20
252.92,-2.89,-0.71,-2.88,-0.70,0.69,0.48,0.69,-2.20,-2.19,-2.18
255.45,-2.85,-0.69,-2.86,-0.70,0.70,0.48,0.70,-2.15,-2.16,-2.16
258.00,-2.85,-0.70,-2.85,-0.71,0.72,0.49,0.71,-2.13,-2.14,-2.15
260.58,-2.85,-0.72,-2.85,-0.72,0.73,0.49,0.71,-2.12,-2.12,-2.13
263.19,-2.85,-0.74,-2.85,-0.74,0.74,0.49,0.72,-2.11,-2.11,-2.11
265.82,-2.85,-0.76,-2.85,-0.76,0.76,0.49,0.73,-2.09,-2.09,-2.09
268.48,-2.85,-0.78,-2.85,-0.78,0.78,0.50,0.73,-2.08,-2.08,-2.07
271.16,-2.85,-0.80,-2.85,-0.80,0.79,0.50,0.74,-2.06,-2.06,-2.05
273.87,-2.85,-0.82,-2.84,-0.82,0.81,0.51,0.75,-2.04,-2.03,-2.03
276.61,-2.83,-0.82,-2.84,-0.83,0.83,0.51,0.76,-2.00,-2.01,-2.01
279.38,-2.83,-0.84,-2.83,-0.84,0.85,0.51,0.76,-1.98,-1.99,-1.99
282.17,-2.83,-0.86,-2.83,-0.86,0.86,0.52,0.77,-1.97,-1.96,-1.97
284.99,-2.83,-0.88,-2.83,-0.88,0.88,0.52,0.78,-1.95,-1.95,-1.95
287.84,-2.83,-0.90,-2.83,-0.90,0.90,0.53,0.79,-1.93,-1.93,-1.93
290.72,-2.83,-0.92,-2.83,-0.92,0.93,0.53,0.80,-1.91,-1.91,-1.91
293.63,-2.83,-0.94,-2.84,-0.95,0.95,0.54,0.81,-1.88,-1.89,-1.89
296.57,-2.85,-0.98,-2.84,-0.97,0.97,0.54,0.82,-1.88,-1.87,-1.87
299.53,-2.85,-1.00,-2.85,-1.00,1.00,0.55,0.83,-1.85,-1.85,-1.85
302.53,-2.85,-1.02,-2.85,-1.03,1.03,0.56,0.84,-1.83,-1.83,-1.83
305.55,-2.85,-1.05,-2.85,-1.05,1.05,0.56,0.85,-1.80,-1.80,-1.80
308.61,-2.85,-1.07,-2.85,-1.08,1.08,0.57,0.86,-1.77,-1.77,-1.78
311.69,-2.85,-1.10,-2.85,-1.10,1.10,0.58,0.88,-1.75,-1.75,-1.75
314.81,-2.85,-1.13,-2.85,-1.13,1.13,0.58,0.89,-1.72,-1.72,-1.72
317.96,-2.85,-1.15,-2.85,-1.15,1.15,0.59,0.90,-1.70,-1.70,-1.70
321.14,-2.85,-1.17,-2.85,-1.17,1.17,0.60,0.92,-1.68,-1.68,-1.68
324.35,-2.85,-1.19,-2.85,-1.19,1.19,0.61,0.93,-1.66,-1.66,-1.66
327.59,-2.85,-1.21,-2.85,-1.21,1.21,0.62,0.95,-1.64,-1.64,-1.64
330.87,-2.85,-1.23,-2.85,-1.23,1.23,0.63,0.96,-1.62,-1.62,-1.62
334.18,-2.85,-1.25,-2.85,-1.25,1.25,0.64,0.98,-1.60,-1.60,-1.60
337.52,-2.85,-1.27,-2.85,-1.27,1.27,0.65,1.00,-1.58,-1.58,-1.58
340.90,-2.85,-1.29,-2.85,-1.29,1.29,0.66,1.02,-1.56,-1.56,-1.56
344.30,-2.85,-1.31,-2.85,-1.31,1.32,0.67,1.03,-1.54,-1.54,-1.54
347.75,-2.85,-1.33,-2.85,-1.33,1.33,0.68,1.05,-1.52,-1.52,-1.52
351.23,-2.85,-1.35,-2.85,-1.35,1.35,0.70,1.07,-1.50,-1.50,-1.50
354.74,-2.85,-1.37,-2.85,-1.37,1.37,0.71,1.09,-1.49,-1.49,-1.48
358.28,-2.85,-1.38,-2.85,-1.39,1.38,0.72,1.11,-1.47,-1.48,-1.47
361.87,-2.85,-1.40,-2.85,-1.40,1.39,0.74,1.14,-1.46,-1.46,-1.45
365.49,-2.84,-1.41,-2.83,-1.40,1.40,0.75,1.16,-1.44,-1.43,-1.43
369.14,-2.80,-1.38,-2.81,-1.40,1.41,0.77,1.18,-1.39,-1.41,-1.42
372.83,-2.80,-1.40,-2.80,-1.40,1.41,0.79,1.21,-1.39,-1.39,-1.40
376.56,-2.80,-1.41,-2.80,-1.41,1.42,0.80,1.23,-1.38,-1.38,-1.39
380.33,-2.80,-1.43,-2.80,-1.43,1.42,0.82,1.26,-1.38,-1.38,-1.37
384.13,-2.80,-1.44,-2.80,-1.44,1.43,0.84,1.28,-1.37,-1.37,-1.36
387.97,-2.80,-1.45,-2.79,-1.44,1.44,0.86,1.31,-1.36,-1.35,-1.35
391.85,-2.76,-1.42,-2.77,-1.44,1.44,0.88,1.33,-1.32,-1.33,-1.34
395.77,-2.76,-1.44,-2.76,-1.44,1.45,0.90,1.36,-1.31,-1.31,-1.32
399.73,-2.76,-1.45,-2.76,-1.45,1.46,0.93,1.39,-1.30,-1.30,-1.31
403.72,-2.76,-1.46,-2.76,-1.47,1.46,0.95,1.42,-1.30,-1.31,-1.30
407.76,-2.76,-1.47,-2.76,-1.47,1.46,0.97,1.44,-1.30,-1.30,-1.29
411.84,-2.76,-1.48,-2.75,-1.47,1.46,1.00,1.47,-1.30,-1.29,-1.28
415.96,-2.73,-1.46,-2.73,-1.47,1.47,1.02,1.50,-1.27,-1.27,-1.27
420.12,-2.71,-1.45,-2.72,-1.46,1.47,1.05,1.52,-1.24,-1.25,-1.26
424.32,-2.71,-1.46,-2.71,-1.46,1.48,1.07,1.55,-1.24,-1.23,-1.25
