frequency,raw,error,smoothed,error_smoothed,equalization,parametric_eq,fixed_band_eq,equalized_raw,equalized_smoothed,target
20.00,3.07,-6.08,3.07,-6.08,6.08,6.34,2.97,9.15,9.15,9.15
20.20,3.03,-6.12,3.02,-6.13,6.13,6.33,3.06,9.16,9.15,9.15
20.40,2.98,-6.17,2.98,-6.17,6.17,6.33,3.14,9.15,9.15,9.15
20.61,2.94,-6.21,2.94,-6.22,6.21,6.32,3.23,9.15,9.15,9.15
20.81,2.90,-6.25,2.90,-6.25,6.25,6.32,3.32,9.15,9.15,9.15
21.02,2.86,-6.29,2.86,-6.29,6.28,6.31,3.42,9.14,9.14,9.15
21.23,2.83,-6.30,2.82,-6.31,6.31,6.31,3.52,9.13,9.13,9.13
21.44,2.79,-6.33,2.79,-6.33,6.33,6.30,3.62,9.12,9.12,9.12
21.66,2.76,-6.34,2.76,-6.34,6.34,6.30,3.72,9.10,9.10,9.10
21.87,2.73,-6.35,2.73,-6.36,6.35,6.29,3.82,9.08,9.08,9.08
22.09,2.71,-6.36,2.70,-6.36,6.36,6.29,3.93,9.07,9.06,9.07
22.31,2.68,-6.36,2.68,-6.36,6.36,6.28,4.04,9.04,9.04,9.04
22.54,2.66,-6.36,2.66,-6.36,6.36,6.28,4.16,9.02,9.02,9.02
22.76,2.64,-6.36,2.64,-6.36,6.36,6.27,4.28,8.99,8.99,9.00
22.99,2.62,-6.35,2.61,-6.35,6.35,6.27,4.40,8.97,8.97,8.97
23.22,2.59,-6.35,2.59,-6.35,6.35,6.26,4.52,8.94,8.95,8.94
23.45,2.58,-6.33,2.57,-6.34,6.35,6.26,4.64,8.93,8.92,8.91
23.69,2.56,-6.34,2.56,-6.34,6.35,6.25,4.77,8.91,8.91,8.90
23.92,2.54,-6.34,2.54,-6.34,6.35,6.25,4.90,8.89,8.89,8.88
24.16,2.52,-6.35,2.51,-6.35,6.35,6.24,5.04,8.87,8.86,8.87
24.40,2.49,-6.36,2.49,-6.36,6.35,6.24,5.17,8.84,8.85,8.85
24.65,2.47,-6.36,2.47,-6.36,6.36,6.23,5.31,8.83,8.83,8.83
24.89,2.45,-6.36,2.45,-6.37,6.37,6.23,5.45,8.82,8.82,8.81
25.14,2.43,-6.37,2.43,-6.37,6.37,6.23,5.60,8.80,8.80,8.80
25.39,2.41,-6.37,2.40,-6.38,6.38,6.22,5.74,8.79,8.78,8.78
25.65,2.38,-6.39,2.38,-6.38,6.38,6.22,5.88,8.76,8.76,8.77
25.91,2.36,-6.38,2.36,-6.39,6.39,6.21,6.03,8.75,8.75,8.74
26.16,2.34,-6.39,2.34,-6.39,6.39,6.21,6.17,8.73,8.73,8.73
26.43,2.33,-6.39,2.32,-6.39,6.39,6.21,6.32,8.72,8.71,8.72
26.69,2.31,-6.38,2.31,-6.39,6.39,6.20,6.46,8.70,8.70,8.69
26.96,2.30,-6.38,2.30,-6.38,6.38,6.20,6.60,8.68,8.69,8.68
27.23,2.30,-6.37,2.29,-6.38,6.37,6.20,6.74,8.67,8.67,8.67
27.50,2.29,-6.37,2.29,-6.37,6.36,6.19,6.88,8.65,8.65,8.66
27.77,2.29,-6.35,2.29,-6.35,6.34,6.19,7.01,8.63,8.64,8.64
28.05,2.31,-6.32,2.30,-6.33,6.32,6.19,7.14,8.63,8.62,8.63
28.33,2.32,-6.29,2.32,-6.29,6.29,6.18,7.26,8.61,8.61,8.61
28.62,2.34,-6.26,2.33,-6.26,6.27,6.18,7.38,8.60,8.60,8.60
28.90,2.35,-6.23,2.35,-6.23,6.23,6.18,7.49,8.58,8.58,8.58
29.19,2.37,-6.19,2.37,-6.20,6.20,6.18,7.59,8.57,8.57,8.56
29.48,2.40,-6.16,2.39,-6.16,6.16,6.18,7.67,8.56,8.56,8.56
29.78,2.42,-6.13,2.42,-6.13,6.13,6.17,7.76,8.55,8.55,8.55
30.08,2.45,-6.09,2.44,-6.10,6.09,6.17,7.82,8.54,8.54,8.54
30.38,2.46,-6.06,2.46,-6.06,6.06,6.17,7.88,8.52,8.52,8.52
30.68,2.48,-6.03,2.48,-6.03,6.03,6.17,7.93,8.51,8.51,8.51
30.99,2.50,-5.98,2.49,-6.00,6.00,6.17,7.96,8.50,8.49,8.48
31.30,2.50,-5.97,2.50,-5.97,5.97,6.17,7.98,8.47,8.48,8.47
31.61,2.51,-5.95,2.51,-5.95,5.95,6.17,7.99,8.46,8.45,8.46
31.93,2.51,-5.93,2.50,-5.93,5.93,6.17,7.98,8.44,8.43,8.44
32.24,2.50,-5.91,2.50,-5.91,5.91,6.17,7.97,8.41,8.41,8.41
32.57,2.50,-5.89,2.50,-5.90,5.90,6.17,7.94,8.40,8.40,8.39
32.89,2.49,-5.89,2.49,-5.89,5.89,6.17,7.90,8.38,8.38,8.38
33.22,2.48,-5.87,2.47,-5.88,5.88,6.18,7.85,8.36,8.36,8.35
33.55,2.45,-5.89,2.45,-5.88,5.88,6.18,7.79,8.33,8.33,8.34
33.89,2.43,-5.88,2.43,-5.88,5.88,6.18,7.72,8.31,8.31,8.31
34.23,2.40,-5.89,2.40,-5.89,5.89,6.18,7.65,8.29,8.29,8.29
34.57,2.38,-5.89,2.37,-5.90,5.90,6.19,7.56,8.27,8.27,8.27
34.92,2.34,-5.91,2.34,-5.91,5.91,6.19,7.47,8.25,8.25,8.25
35.27,2.31,-5.92,2.31,-5.92,5.93,6.19,7.38,8.24,8.23,8.23
35.62,2.27,-5.94,2.27,-5.94,5.95,6.20,7.28,8.22,8.21,8.21
35.97,2.22,-5.97,2.22,-5.97,5.97,6.20,7.18,8.19,8.19,8.19
36.33,2.18,-5.99,2.17,-6.00,6.00,6.21,7.08,8.18,8.17,8.17
36.70,2.12,-6.03,2.12,-6.03,6.03,6.21,6.97,8.15,8.15,8.15
37.06,2.07,-6.06,2.07,-6.06,6.06,6.22,6.87,8.12,8.12,8.13
37.43,2.02,-6.09,2.02,-6.09,6.09,6.22,6.76,8.10,8.10,8.11
37.81,1.97,-6.12,1.97,-6.12,6.12,6.23,6.65,8.08,8.08,8.09
38.19,1.93,-6.13,1.92,-6.15,6.14,6.23,6.55,8.07,8.07,8.06
38.57,1.87,-6.18,1.87,-6.17,6.17,6.24,6.45,8.04,8.05,8.05
38.95,1.83,-6.19,1.83,-6.20,6.20,6.24,6.34,8.03,8.03,8.02
39.34,1.78,-6.22,1.78,-6.23,6.23,6.25,6.25,8.01,8.01,8.00
39.74,1.73,-6.25,1.73,-6.26,6.26,6.25,6.15,7.99,7.99,7.98
40.14,1.68,-6.29,1.68,-6.29,6.29,6.25,6.06,7.97,7.97,7.97
40.54,1.63,-6.32,1.63,-6.32,6.32,6.26,5.97,7.95,7.95,7.95
40.94,1.59,-6.34,1.58,-6.35,6.35,6.26,5.88,7.93,7.93,7.93
41.35,1.54,-6.36,1.54,-6.37,6.37,6.27,5.80,7.91,7.91,7.90
41.76,1.50,-6.40,1.50,-6.40,6.40,6.27,5.72,7.90,7.90,7.90
42.18,1.46,-6.42,1.46,-6.42,6.42,6.27,5.64,7.88,7.87,7.88
42.60,1.42,-6.44,1.42,-6.45,6.44,6.27,5.57,7.85,7.86,7.86
43.03,1.39,-6.46,1.39,-6.45,6.45,6.27,5.51,7.83,7.84,7.85
43.46,1.37,-6.45,1.37,-6.46,6.45,6.27,5.44,7.82,7.82,7.82
43.90,1.35,-6.45,1.35,-6.46,6.46,6.27,5.39,7.80,7.80,7.80
44.33,1.33,-6.45,1.33,-6.45,6.46,6.26,5.33,7.78,7.78,7.78
44.78,1.31,-6.45,1.31,-6.45,6.45,6.26,5.28,7.76,7.76,7.76
45.23,1.30,-6.43,1.29,-6.44,6.44,6.25,5.23,7.74,7.74,7.73
45.68,1.28,-6.43,1.28,-6.43,6.44,6.24,5.19,7.71,7.72,7.71
46.13,1.28,-6.42,1.28,-6.42,6.43,6.23,5.15,7.70,7.70,7.70
46.60,1.28,-6.41,1.27,-6.41,6.41,6.22,5.12,7.69,7.69,7.69
47.06,1.28,-6.39,1.28,-6.40,6.39,6.20,5.09,7.67,7.67,7.67
47.53,1.28,-6.37,1.28,-6.37,6.37,6.18,5.06,7.65,7.65,7.65
48.01,1.29,-6.35,1.29,-6.35,6.34,6.16,5.04,7.63,7.63,7.64
48.49,1.30,-6.31,1.30,-6.31,6.31,6.14,5.02,7.60,7.60,7.61
48.97,1.31,-6.27,1.31,-6.27,6.27,6.11,5.00,7.57,7.58,7.58
49.46,1.34,-6.21,1.33,-6.22,6.22,6.08,4.98,7.56,7.55,7.55
49.96,1.36,-6.16,1.36,-6.17,6.17,6.05,4.97,7.53,7.53,7.52
50.46,1.40,-6.11,1.40,-6.11,6.12,6.01,4.96,7.52,7.51,7.51
50.96,1.43,-6.06,1.43,-6.06,6.06,5.97,4.96,7.49,7.49,7.49
51.47,1.47,-5.99,1.46,-6.00,6.00,5.92,4.95,7.47,7.46,7.46
51.99,1.50,-5.94,1.50,-5.94,5.94,5.88,4.95,7.43,7.44,7.44
52.51,1.55,-5.87,1.55,-5.87,5.87,5.83,4.94,7.42,7.42,7.42
53.03,1.60,-5.80,1.60,-5.80,5.80,5.77,4.94,7.40,7.39,7.40
53.56,1.65,-5.72,1.65,-5.72,5.72,5.71,4.94,7.37,7.37,7.37
54.10,1.71,-5.64,1.71,-5.64,5.64,5.65,4.93,7.35,7.35,7.35
54.64,1.77,-5.55,1.77,-5.56,5.56,5.58,4.93,7.32,7.32,7.32
55.18,1.83,-5.47,1.83,-5.47,5.47,5.52,4.93,7.30,7.30,7.30
55.74,1.90,-5.37,1.90,-5.38,5.37,5.44,4.92,7.27,7.27,7.27
56.29,1.97,-5.28,1.97,-5.28,5.28,5.37,4.91,7.24,7.25,7.25
56.86,2.05,-5.17,2.05,-5.18,5.18,5.29,4.90,7.22,7.22,7.22
57.42,2.13,-5.07,2.13,-5.07,5.08,5.20,4.89,7.20,7.20,7.20
58.00,2.21,-4.97,2.21,-4.97,4.97,5.12,4.87,7.18,7.18,7.18
58.58,2.29,-4.86,2.29,-4.86,4.87,5.03,4.85,7.16,7.16,7.15
59.16,2.38,-4.75,2.37,-4.76,4.76,4.94,4.82,7.14,7.13,7.13
59.76,2.45,-4.66,2.45,-4.66,4.66,4.84,4.79,7.10,7.11,7.11
60.35,2.53,-4.55,2.53,-4.56,4.55,4.74,4.75,7.08,7.08,7.08
60.96,2.61,-4.45,2.61,-4.45,4.44,4.65,4.71,7.04,7.04,7.06
61.57,2.69,-4.33,2.69,-4.33,4.33,4.54,4.66,7.02,7.02,7.02
62.18,2.78,-4.21,2.78,-4.22,4.22,4.44,4.61,7.00,7.00,6.99
62.80,2.86,-4.10,2.86,-4.10,4.11,4.33,4.55,6.97,6.97,6.96
63.43,2.94,-3.99,2.94,-3.99,4.00,4.23,4.48,6.94,6.94,6.93
64.07,3.01,-3.89,3.01,-3.89,3.90,4.12,4.41,6.91,6.91,6.90
64.71,3.09,-3.79,3.08,-3.80,3.80,4.01,4.33,6.88,6.88,6.88
65.35,3.16,-3.70,3.16,-3.70,3.69,3.89,4.24,6.85,6.85,6.86
66.01,3.24,-3.60,3.24,-3.60,3.59,3.78,4.15,6.83,6.83,6.84
66.67,3.32,-3.49,3.32,-3.50,3.49,3.67,4.05,6.81,6.81,6.81
67.33,3.40,-3.39,3.39,-3.39,3.39,3.55,3.95,6.79,6.79,6.79
68.01,3.47,-3.29,3.47,-3.29,3.29,3.43,3.84,6.76,6.76,6.76
68.69,3.55,-3.19,3.55,-3.19,3.19,3.32,3.73,6.74,6.74,6.74
69.37,3.63,-3.08,3.62,-3.09,3.09,3.20,3.61,6.72,6.71,6.71
70.07,3.70,-2.98,3.70,-2.98,2.99,3.08,3.49,6.68,6.69,6.68
70.77,3.78,-2.88,3.77,-2.88,2.89,2.96,3.37,6.66,6.66,6.66
71.48,3.85,-2.78,3.85,-2.78,2.79,2.84,3.24,6.63,6.63,6.63
72.19,3.91,-2.69,3.92,-2.68,2.68,2.72,3.11,6.59,6.60,6.60
72.91,3.99,-2.57,3.98,-2.59,2.58,2.60,2.97,6.57,6.56,6.56
73.64,4.05,-2.48,4.05,-2.48,2.48,2.48,2.84,6.53,6.53,6.53
74.38,4.11,-2.39,4.12,-2.38,2.38,2.36,2.70,6.48,6.49,6.50
75.12,4.19,-2.26,4.18,-2.27,2.27,2.24,2.56,6.46,6.46,6.45
75.87,4.26,-2.16,4.26,-2.17,2.16,2.11,2.42,6.42,6.42,6.42
76.63,4.33,-2.06,4.33,-2.05,2.06,1.99,2.28,6.38,6.38,6.39
77.40,4.40,-1.95,4.40,-1.94,1.94,1.87,2.14,6.34,6.35,6.35
78.17,4.48,-1.81,4.47,-1.83,1.83,1.75,2.00,6.31,6.31,6.29
78.95,4.55,-1.72,4.55,-1.72,1.72,1.63,1.86,6.27,6.27,6.27
79.74,4.62,-1.61,4.62,-1.61,1.60,1.50,1.71,6.22,6.22,6.23
80.54,4.69,-1.49,4.69,-1.49,1.49,1.38,1.57,6.18,6.18,6.18
81.35,4.77,-1.37,4.76,-1.38,1.38,1.26,1.43,6.14,6.14,6.14
82.16,4.84,-1.25,4.83,-1.26,1.26,1.14,1.28,6.10,6.10,6.09
82.98,4.90,-1.15,4.90,-1.14,1.15,1.02,1.14,6.05,6.05,6.05
83.81,4.97,-1.02,4.97,-1.03,1.03,0.89,1.00,6.00,6.00,5.99
84.65,5.03,-0.92,5.03,-0.92,0.92,0.77,0.85,5.94,5.95,5.95
85.50,5.11,-0.80,5.10,-0.80,0.80,0.65,0.71,5.90,5.90,5.91
86.35,5.18,-0.68,5.18,-0.68,0.68,0.53,0.57,5.85,5.85,5.86
87.22,5.25,-0.56,5.25,-0.56,0.55,0.41,0.43,5.80,5.81,5.81
88.09,5.33,-0.42,5.33,-0.43,0.43,0.29,0.28,5.76,5.76,5.75
88.97,5.41,-0.30,5.40,-0.30,0.31,0.17,0.14,5.71,5.71,5.71
89.86,5.48,-0.18,5.48,-0.18,0.18,0.05,-0.00,5.66,5.66,5.66
90.76,5.55,-0.05,5.55,-0.05,0.06,-0.07,-0.14,5.61,5.61,5.60
91.66,5.62,0.07,5.62,0.07,-0.07,-0.19,-0.29,5.55,5.55,5.55
92.58,5.69,0.20,5.69,0.19,-0.19,-0.31,-0.43,5.50,5.50,5.49
93.51,5.76,0.31,5.76,0.31,-0.31,-0.43,-0.57,5.44,5.45,5.45
94.44,5.83,0.43,5.83,0.43,-0.44,-0.54,-0.71,5.39,5.39,5.40
95.39,5.90,0.56,5.89,0.55,-0.56,-0.66,-0.85,5.34,5.34,5.34
96.34,5.96,0.69,5.96,0.68,-0.68,-0.78,-0.99,5.28,5.28,5.27
97.30,6.02,0.80,6.02,0.81,-0.80,-0.89,-1.14,5.21,5.22,5.22
98.28,6.09,0.93,6.09,0.93,-0.93,-1.01,-1.28,5.16,5.16,5.16
99.26,6.15,1.06,6.15,1.05,-1.05,-1.12,-1.42,5.10,5.10,5.09
100.25,6.21,1.17,6.21,1.17,-1.17,-1.24,-1.55,5.04,5.04,5.04
101.25,6.26,1.28,6.26,1.29,-1.29,-1.35,-1.69,4.97,4.98,4.98
102.27,6.32,1.41,6.32,1.40,-1.40,-1.46,-1.83,4.92,4.91,4.91
103.29,6.37,1.53,6.37,1.52,-1.52,-1.57,-1.97,4.85,4.85,4.84
104.32,6.42,1.63,6.42,1.63,-1.63,-1.68,-2.10,4.79,4.79,4.79
105.37,6.47,1.74,6.46,1.74,-1.74,-1.79,-2.24,4.73,4.72,4.73
106.42,6.50,1.84,6.50,1.84,-1.85,-1.90,-2.37,4.65,4.66,4.66
107.48,6.55,1.96,6.55,1.96,-1.95,-2.01,-2.50,4.59,4.59,4.59
108.56,6.59,2.07,6.59,2.06,-2.06,-2.11,-2.62,4.53,4.53,4.52
109.64,6.63,2.17,6.63,2.16,-2.16,-2.22,-2.75,4.46,4.46,4.46
110.74,6.66,2.26,6.66,2.27,-2.27,-2.32,-2.87,4.39,4.40,4.40
111.85,6.70,2.37,6.69,2.37,-2.37,-2.43,-2.99,4.33,4.32,4.33
112.97,6.73,2.48,6.73,2.47,-2.47,-2.53,-3.10,4.26,4.26,4.25
114.10,6.75,2.56,6.76,2.57,-2.57,-2.63,-3.21,4.18,4.19,4.19
115.24,6.79,2.67,6.78,2.66,-2.66,-2.73,-3.32,4.13,4.12,4.12
116.39,6.81,2.76,6.81,2.75,-2.75,-2.83,-3.42,4.05,4.05,4.05
117.55,6.83,2.85,6.83,2.85,-2.84,-2.92,-3.51,3.98,3.99,3.98
118.73,6.85,2.93,6.85,2.93,-2.93,-3.02,-3.60,3.92,3.92,3.92
119.92,6.88,3.02,6.87,3.02,-3.01,-3.11,-3.68,3.86,3.86,3.86
121.12,6.90,3.10,6.90,3.10,-3.10,-3.20,-3.76,3.80,3.80,3.80
122.33,6.92,3.19,6.92,3.18,-3.18,-3.29,-3.83,3.74,3.74,3.73
123.55,6.94,3.26,6.94,3.26,-3.26,-3.38,-3.90,3.68,3.68,3.68
124.79,6.96,3.34,6.96,3.34,-3.34,-3.47,-3.95,3.61,3.62,3.62
126.03,6.99,3.42,6.99,3.42,-3.43,-3.55,-4.00,3.56,3.56,3.57
127.29,7.02,3.51,7.01,3.51,-3.51,-3.64,-4.05,3.51,3.50,3.51
128.57,7.04,3.60,7.04,3.60,-3.60,-3.72,-4.09,3.44,3.45,3.44
129.85,7.08,3.69,7.07,3.68,-3.68,-3.80,-4.12,3.40,3.39,3.39
131.15,7.10,3.76,7.10,3.76,-3.76,-3.88,-4.15,3.34,3.34,3.34
132.46,7.13,3.85,7.13,3.85,-3.84,-3.95,-4.17,3.29,3.29,3.28
133.79,7.16,3.92,7.16,3.92,-3.92,-4.03,-4.18,3.24,3.24,3.24
135.12,7.19,4.01,7.18,3.99,-4.00,-4.10,-4.19,3.19,3.19,3.18
136.48,7.21,4.06,7.21,4.06,-4.07,-4.17,-4.20,3.14,3.14,3.15
137.84,7.24,4.13,7.24,4.14,-4.14,-4.24,-4.20,3.10,3.10,3.11
139.22,7.27,4.21,7.27,4.20,-4.20,-4.31,-4.21,3.06,3.06,3.06
140.61,7.30,4.28,7.30,4.27,-4.27,-4.37,-4.20,3.03,3.03,3.02
142.02,7.33,4.33,7.32,4.33,-4.33,-4.44,-4.20,3.00,3.00,3.00
143.44,7.35,4.38,7.35,4.38,-4.38,-4.50,-4.19,2.96,2.97,2.97
144.87,7.37,4.44,7.37,4.44,-4.44,-4.56,-4.18,2.93,2.93,2.93
146.32,7.40,4.50,7.39,4.49,-4.49,-4.61,-4.17,2.91,2.90,2.90
147.78,7.41,4.53,7.41,4.54,-4.54,-4.67,-4.16,2.87,2.87,2.88
149.26,7.43,4.58,7.43,4.58,-4.58,-4.72,-4.15,2.85,2.84,2.85
150.75,7.44,4.63,7.44,4.62,-4.62,-4.77,-4.14,2.81,2.82,2.81
152.26,7.46,4.67,7.46,4.67,-4.66,-4.82,-4.13,2.79,2.79,2.79
153.78,7.47,4.71,7.47,4.71,-4.70,-4.87,-4.12,2.77,2.77,2.76
155.32,7.48,4.74,7.48,4.74,-4.74,-4.92,-4.12,2.74,2.74,2.74
156.88,7.48,4.77,7.48,4.77,-4.77,-4.96,-4.11,2.71,2.71,2.71
158.44,7.48,4.80,7.48,4.80,-4.80,-5.00,-4.11,2.68,2.68,2.68
160.03,7.48,4.83,7.47,4.82,-4.82,-5.04,-4.11,2.65,2.65,2.65
161.63,7.47,4.85,7.47,4.85,-4.85,-5.08,-4.11,2.62,2.62,2.62
163.24,7.47,4.88,7.47,4.87,-4.87,-5.12,-4.11,2.59,2.59,2.59
164.88,7.47,4.90,7.47,4.90,-4.90,-5.15,-4.12,2.57,2.57,2.57
166.53,7.47,4.92,7.47,4.92,-4.92,-5.18,-4.13,2.54,2.54,2.55
168.19,7.47,4.96,7.46,4.95,-4.95,-5.21,-4.14,2.52,2.51,2.51
169.87,7.46,4.98,7.46,4.98,-4.98,-5.24,-4.16,2.48,2.48,2.48
171.57,7.47,5.02,7.46,5.01,-5.02,-5.27,-4.18,2.45,2.45,2.45
173.29,7.47,5.04,7.47,5.04,-5.05,-5.29,-4.20,2.42,2.42,2.43
175.02,7.48,5.09,7.48,5.09,-5.09,-5.31,-4.23,2.39,2.39,2.39
176.77,7.49,5.14,7.49,5.13,-5.13,-5.34,-4.25,2.35,2.35,2.35
178.54,7.50,5.19,7.50,5.18,-5.18,-5.35,-4.29,2.32,2.32,2.31
180.32,7.51,5.23,7.51,5.23,-5.23,-5.37,-4.32,2.28,2.28,2.28
182.13,7.52,5.27,7.52,5.27,-5.27,-5.39,-4.36,2.24,2.24,2.25
183.95,7.53,5.32,7.53,5.32,-5.32,-5.40,-4.40,2.21,2.21,2.21
185.79,7.54,5.37,7.54,5.37,-5.36,-5.41,-4.45,2.17,2.17,2.17
187.65,7.55,5.42,7.55,5.41,-5.41,-5.42,-4.50,2.14,2.14,2.13
189.52,7.55,5.45,7.55,5.45,-5.45,-5.43,-4.55,2.10,2.11,2.10
191.42,7.57,5.49,7.56,5.48,-5.48,-5.44,-4.61,2.08,2.08,2.08
193.33,7.57,5.51,7.57,5.51,-5.52,-5.44,-4.67,2.05,2.05,2.06
195.27,7.57,5.54,7.57,5.54,-5.55,-5.45,-4.73,2.02,2.02,2.03
197.22,7.57,5.57,7.57,5.57,-5.57,-5.45,-4.79,2.00,2.00,2.00
199.19,7.56,5.61,7.56,5.60,-5.59,-5.45,-4.85,1.97,1.97,1.95
201.18,7.56,5.62,7.55,5.62,-5.61,-5.45,-4.92,1.95,1.94,1.94
203.19,7.54,5.62,7.54,5.62,-5.62,-5.45,-4.99,1.92,1.92,1.92
205.23,7.53,5.63,7.53,5.62,-5.63,-5.44,-5.06,1.90,1.90,1.90
207.28,7.52,5.63,7.52,5.63,-5.64,-5.44,-5.13,1.88,1.88,1.89
209.35,7.50,5.64,7.50,5.64,-5.64,-5.43,-5.21,1.86,1.86,1.86
211.44,7.49,5.65,7.48,5.64,-5.64,-5.42,-5.28,1.85,1.85,1.84
213.56,7.46,5.64,7.46,5.63,-5.63,-5.41,-5.35,1.83,1.83,1.82
215.69,7.44,5.62,7.44,5.62,-5.62,-5.40,-5.42,1.81,1.81,1.82
217.85,7.41,5.60,7.41,5.61,-5.61,-5.38,-5.49,1.80,1.80,1.81
220.03,7.39,5.61,7.39,5.60,-5.60,-5.37,-5.56,1.79,1.79,1.78
222.23,7.36,5.59,7.36,5.58,-5.57,-5.35,-5.62,1.78,1.78,1.77
224.45,7.33,5.55,7.33,5.56,-5.55,-5.34,-5.68,1.78,1.78,1.78
226.70,7.30,5.53,7.30,5.52,-5.52,-5.32,-5.74,1.78,1.78,1.77
228.96,7.27,5.50,7.26,5.49,-5.49,-5.30,-5.80,1.78,1.77,1.77
231.25,7.23,5.45,7.23,5.45,-5.46,-5.28,-5.84,1.77,1.77,1.78
233.57,7.21,5.42,7.20,5.42,-5.42,-5.26,-5.89,1.78,1.78,1.79
235.90,7.18,5.39,7.18,5.39,-5.39,-5.23,-5.92,1.79,1.79,1.79
238.26,7.16,5.37,7.16,5.36,-5.36,-5.21,-5.95,1.80,1.80,1.79
240.64,7.14,5.33,7.14,5.33,-5.33,-5.18,-5.97,1.81,1.81,1.81
243.05,7.13,5.30,7.12,5.29,-5.30,-5.16,-5.99,1.83,1.82,1.83
245.48,7.11,5.26,7.11,5.27,-5.27,-5.13,-5.99,1.84,1.84,1.85
247.93,7.11,5.25,7.11,5.25,-5.25,-5.10,-5.99,1.86,1.86,1.86
250.41,7.11,5.24,7.11,5.22,-5.22,-5.07,-5.98,1.88,1.88,1.87
252.92,7.11,5.20,7.10,5.20,-5.20,-5.04,-5.96,1.91,1.90,1.91
255.45,7.10,5.17,7.10,5.17,-5.18,-5.01,-5.93,1.92,1.92,1.93
258.00,7.10,5.15,7.10,5.15,-5.16,-4.97,-5.89,1.94,1.94,1.95
260.58,7.11,5.14,7.10,5.13,-5.14,-4.94,-5.84,1.97,1.96,1.97
263.19,7.10,5.11,7.10,5.11,-5.11,-4.90,-5.79,1.99,1.99,1.99
265.82,7.10,5.09,7.10,5.08,-5.07,-4.87,-5.73,2.03,2.02,2.01
268.48,7.08,5.04,7.08,5.04,-5.03,-4.83,-5.66,2.05,2.05,2.04
271.16,7.05,4.98,7.05,4.98,-4.96,-4.79,-5.59,2.08,2.08,2.07
273.87,7.00,4.91,7.00,4.91,-4.89,-4.75,-5.51,2.11,2.11,2.09
276.61,6.94,4.82,6.93,4.82,-4.80,-4.71,-5.42,2.14,2.13,2.12
279.38,6.86,4.72,6.85,4.71,-4.70,-4.67,-5.33,2.16,2.15,2.14
282.17,6.76,4.60,6.76,4.60,-4.59,-4.63,-5.24,2.17,2.17,2.16
284.99,6.67,4.48,6.67,4.48,-4.48,-4.59,-5.14,2.19,2.19,2.19
287.84,6.57,4.36,6.57,4.36,-4.37,-4.55,-5.04,2.20,2.20,2.21
290.72,6.50,4.25,6.49,4.25,-4.26,-4.50,-4.94,2.23,2.23,2.25
293.63,6.42,4.15,6.42,4.15,-4.17,-4.46,-4.83,2.24,2.25,2.27
296.57,6.38,4.08,6.38,4.08,-4.10,-4.41,-4.73,2.28,2.28,2.30
299.53,6.35,4.02,6.35,4.02,-4.03,-4.36,-4.62,2.31,2.31,2.33
302.53,6.34,3.99,6.34,3.98,-3.99,-4.32,-4.52,2.35,2.35,2.35
305.55,6.34,3.94,6.34,3.95,-3.95,-4.27,-4.41,2.39,2.39,2.40
308.61,6.37,3.94,6.36,3.93,-3.93,-4.22,-4.30,2.44,2.43,2.43
311.69,6.38,3.91,6.38,3.91,-3.91,-4.17,-4.20,2.47,2.47,2.47
314.81,6.41,3.91,6.40,3.90,-3.89,-4.12,-4.09,2.52,2.51,2.50
317.96,6.41,3.88,6.41,3.88,-3.87,-4.07,-3.99,2.53,2.54,2.53
321.14,6.43,3.87,6.42,3.86,-3.85,-4.02,-3.89,2.58,2.57,2.56
324.35,6.42,3.84,6.42,3.83,-3.83,-3.96,-3.79,2.59,2.60,2.58
327.59,6.42,3.80,6.41,3.80,-3.79,-3.91,-3.69,2.62,2.62,2.62
330.87,6.40,3.75,6.40,3.75,-3.76,-3.86,-3.60,2.64,2.64,2.65
334.18,6.38,3.71,6.38,3.71,-3.71,-3.80,-3.51,2.66,2.67,2.67
337.52,6.37,3.68,6.36,3.67,-3.67,-3.75,-3.42,2.70,2.70,2.69
340.90,6.34,3.62,6.34,3.62,-3.62,-3.69,-3.33,2.72,2.72,2.72
344.30,6.31,3.57,6.31,3.56,-3.56,-3.64,-3.24,2.74,2.74,2.74
347.75,6.27,3.50,6.28,3.51,-3.51,-3.58,-3.16,2.76,2.77,2.77
351.23,6.25,3.46,6.24,3.45,-3.45,-3.52,-3.07,2.79,2.79,2.79
354.74,6.21,3.41,6.20,3.40,-3.40,-3.46,-3.00,2.81,2.80,2.80
358.28,6.16,3.34,6.17,3.34,-3.34,-3.41,-2.92,2.82,2.82,2.82
361.87,6.13,3.29,6.12,3.28,-3.29,-3.35,-2.84,2.84,2.84,2.84
365.49,6.09,3.22,6.09,3.22,-3.23,-3.29,-2.77,2.86,2.86,2.87
369.14,6.05,3.17,6.05,3.17,-3.17,-3.23,-2.70,2.88,2.88,2.88
372.83,6.01,3.12,6.01,3.11,-3.11,-3.17,-2.64,2.89,2.90,2.89
376.56,5.98,3.07,5.97,3.06,-3.05,-3.10,-2.57,2.92,2.92,2.91
380.33,5.93,2.99,5.93,3.00,-3.00,-3.04,-2.51,2.93,2.94,2.94
384.13,5.90,2.94,5.90,2.94,-2.94,-2.98,-2.45,2.96,2.96,2.96
387.97,5.86,2.88,5.86,2.87,-2.88,-2.92,-2.39,2.98,2.98,2.98
391.85,5.82,2.82,5.82,2.81,-2.82,-2.85,-2.33,3.00,3.00,3.00
395.77,5.78,2.75,5.78,2.75,-2.75,-2.79,-2.27,3.02,3.03,3.03
399.73,5.74,2.69,5.74,2.69,-2.69,-2.73,-2.22,3.05,3.05,3.05
403.72,5.70,2.64,5.69,2.63,-2.63,-2.66,-2.17,3.07,3.06,3.06
407.76,5.65,2.57,5.65,2.57,-2.57,-2.60,-2.12,3.08,3.09,3.08
411.84,5.61,2.50,5.61,2.51,-2.50,-2.53,-2.07,3.10,3.11,3.11
415.96,5.58,2.45,5.57,2.44,-2.44,-2.46,-2.02,3.14,3.13,3.13
420.12,5.53,2.38,5.53,2.38,-2.38,-2.40,-1.97,3.15,3.16,3.15
424.32,5.49,2.31,5.49,2.31,-2.31,-2.33,-1.92,3.18,3.18,3.18
428.56,5.45,2.25,5.45,2.25,-2.25,-2.26,-1.88,3.20,3.20,3.20
432.85,5.41,2.19,5.41,2.18,-2.19,-2.19,-1.83,3.22,3.22,3.22
437.18,5.37,2.12,5.37,2.12,-2.12,-2.12,-1.78,3.24,3.25,3.25
441.55,5.34,2.06,5.33,2.06,-2.06,-2.06,-1.74,3.28,3.27,3.28
445.96,5.30,2.00,5.30,2.00,-2.00,-1.99,-1.69,3.30,3.30,3.30
450.42,5.26,1.95,5.26,1.94,-1.94,-1.92,-1.65,3.32,3.32,3.31
454.93,5.22,1.87,5.22,1.88,-1.87,-1.85,-1.60,3.35,3.35,3.35
459.48,5.19,1.82,5.18,1.81,-1.81,-1.78,-1.55,3.38,3.37,3.37
464.07,5.15,1.75,5.15,1.74,-1.74,-1.70,-1.50,3.40,3.40,3.40
468.71,5.11,1.67,5.11,1.68,-1.68,-1.63,-1.46,3.43,3.43,3.44
473.40,5.08,1.62,5.07,1.61,-1.61,-1.56,-1.41,3.46,3.46,3.46
478.13,5.04,1.55,5.04,1.54,-1.55,-1.49,-1.35,3.49,3.49,3.49
482.91,5.00,1.48,5.00,1.48,-1.48,-1.41,-1.30,3.52,3.52,3.52
487.74,4.96,1.41,4.96,1.41,-1.41,-1.34,-1.25,3.55,3.55,3.55
492.62,4.93,1.35,4.92,1.35,-1.34,-1.27,-1.19,3.58,3.58,3.58
497.55,4.89,1.29,4.88,1.28,-1.28,-1.19,-1.13,3.61,3.61,3.60
502.52,4.84,1.20,4.84,1.21,-1.21,-1.12,-1.07,3.63,3.63,3.64
507.55,4.80,1.14,4.80,1.14,-1.14,-1.04,-1.01,3.66,3.66,3.66
512.62,4.76,1.07,4.76,1.07,-1.07,-0.97,-0.95,3.69,3.69,3.69
517.75,4.73,1.01,4.72,1.00,-1.00,-0.89,-0.88,3.73,3.72,3.72
522.93,4.68,0.93,4.68,0.93,-0.93,-0.82,-0.81,3.75,3.75,3.75
528.16,4.64,0.87,4.64,0.87,-0.86,-0.74,-0.74,3.77,3.78,3.77
533.44,4.60,0.80,4.60,0.80,-0.79,-0.66,-0.67,3.80,3.80,3.80
538.77,4.56,0.73,4.56,0.72,-0.72,-0.58,-0.60,3.83,3.83,3.83
544.16,4.51,0.65,4.51,0.65,-0.65,-0.51,-0.52,3.85,3.86,3.86
549.60,4.47,0.58,4.47,0.58,-0.58,-0.43,-0.45,3.88,3.88,3.89
555.10,4.42,0.52,4.42,0.51,-0.51,-0.35,-0.37,3.91,3.91,3.90
560.65,4.38,0.44,4.38,0.44,-0.44,-0.27,-0.29,3.94,3.94,3.94
