frequency,raw,error,smoothed,error_smoothed,equalization,parametric_eq,fixed_band_eq,equalized_raw,equalized_smoothed,target
20.00,4.20,-0.30,4.19,-0.33,0.33,-0.44,-0.72,4.53,4.52,4.50
20.20,4.23,-0.27,4.22,-0.29,0.29,-0.45,-0.74,4.52,4.51,4.50
20.40,4.25,-0.25,4.25,-0.25,0.25,-0.46,-0.76,4.50,4.50,4.50
20.61,4.28,-0.22,4.28,-0.21,0.21,-0.47,-0.78,4.49,4.49,4.50
20.81,4.31,-0.19,4.31,-0.17,0.17,-0.49,-0.80,4.48,4.48,4.50
21.02,4.34,-0.16,4.34,-0.13,0.13,-0.50,-0.83,4.46,4.47,4.50
21.23,4.38,-0.10,4.38,-0.08,0.08,-0.51,-0.85,4.46,4.46,4.48
21.44,4.41,-0.06,4.41,-0.04,0.04,-0.52,-0.87,4.44,4.45,4.47
21.66,4.44,-0.01,4.45,0.01,-0.01,-0.54,-0.90,4.42,4.43,4.45
21.87,4.48,0.05,4.48,0.06,-0.06,-0.55,-0.92,4.41,4.42,4.43
22.09,4.52,0.10,4.52,0.11,-0.11,-0.56,-0.95,4.40,4.40,4.42
22.31,4.56,0.17,4.55,0.17,-0.17,-0.58,-0.97,4.39,4.39,4.39
22.54,4.59,0.22,4.59,0.23,-0.23,-0.59,-1.00,4.36,4.36,4.37
22.76,4.64,0.29,4.63,0.29,-0.29,-0.61,-1.03,4.35,4.34,4.35
22.99,4.68,0.36,4.67,0.35,-0.35,-0.63,-1.05,4.33,4.32,4.32
23.22,4.71,0.42,4.71,0.41,-0.41,-0.64,-1.08,4.30,4.30,4.29
23.45,4.75,0.49,4.75,0.47,-0.47,-0.66,-1.11,4.27,4.27,4.26
23.69,4.79,0.54,4.78,0.53,-0.53,-0.68,-1.14,4.25,4.25,4.25
23.92,4.83,0.60,4.82,0.59,-0.59,-0.70,-1.17,4.24,4.23,4.23
24.16,4.87,0.65,4.86,0.65,-0.65,-0.72,-1.20,4.22,4.21,4.22
24.40,4.90,0.70,4.90,0.71,-0.71,-0.74,-1.23,4.19,4.19,4.20
24.65,4.94,0.76,4.94,0.77,-0.77,-0.76,-1.26,4.17,4.17,4.18
24.89,4.98,0.82,4.98,0.82,-0.82,-0.78,-1.30,4.16,4.16,4.16
25.14,5.02,0.87,5.02,0.88,-0.88,-0.80,-1.33,4.14,4.14,4.15
25.39,5.06,0.93,5.06,0.93,-0.93,-0.83,-1.36,4.12,4.12,4.13
25.65,5.10,0.98,5.10,0.99,-0.99,-0.85,-1.39,4.11,4.11,4.12
25.91,5.14,1.05,5.14,1.04,-1.04,-0.88,-1.43,4.09,4.09,4.09
26.16,5.18,1.10,5.18,1.10,-1.10,-0.91,-1.46,4.08,4.08,4.08
26.43,5.22,1.15,5.22,1.16,-1.16,-0.93,-1.49,4.06,4.06,4.07
26.69,5.26,1.22,5.26,1.21,-1.21,-0.96,-1.52,4.04,4.04,4.04
26.96,5.30,1.27,5.30,1.27,-1.27,-0.99,-1.55,4.03,4.03,4.03
27.23,5.35,1.33,5.34,1.32,-1.32,-1.03,-1.58,4.02,4.01,4.02
27.50,5.38,1.37,5.38,1.38,-1.38,-1.06,-1.61,4.00,4.00,4.01
27.77,5.42,1.43,5.41,1.43,-1.43,-1.09,-1.64,3.99,3.99,3.99
28.05,5.46,1.48,5.45,1.48,-1.48,-1.13,-1.67,3.98,3.97,3.98
28.33,5.49,1.53,5.49,1.53,-1.53,-1.17,-1.69,3.95,3.96,3.96
28.62,5.53,1.58,5.53,1.58,-1.58,-1.21,-1.72,3.94,3.94,3.95
28.90,5.56,1.63,5.56,1.63,-1.63,-1.25,-1.74,3.93,3.93,3.93
29.19,5.59,1.68,5.60,1.68,-1.68,-1.29,-1.76,3.91,3.92,3.91
29.48,5.64,1.73,5.63,1.72,-1.72,-1.33,-1.78,3.91,3.91,3.91
29.78,5.67,1.77,5.66,1.77,-1.77,-1.38,-1.80,3.90,3.89,3.90
30.08,5.70,1.81,5.69,1.81,-1.81,-1.43,-1.82,3.88,3.88,3.89
30.38,5.72,1.85,5.72,1.85,-1.85,-1.48,-1.83,3.86,3.86,3.87
30.68,5.75,1.89,5.74,1.90,-1.90,-1.53,-1.85,3.85,3.85,3.86
30.99,5.78,1.95,5.77,1.94,-1.94,-1.58,-1.86,3.84,3.83,3.83
31.30,5.80,1.98,5.79,1.97,-1.97,-1.63,-1.86,3.82,3.82,3.82
31.61,5.82,2.01,5.81,2.01,-2.01,-1.69,-1.87,3.80,3.80,3.81
31.93,5.83,2.04,5.83,2.05,-2.05,-1.75,-1.87,3.78,3.78,3.79
32.24,5.84,2.08,5.84,2.08,-2.08,-1.80,-1.88,3.75,3.76,3.76
32.57,5.86,2.12,5.86,2.12,-2.12,-1.86,-1.88,3.74,3.74,3.74
32.89,5.87,2.14,5.87,2.15,-2.15,-1.92,-1.88,3.72,3.72,3.73
33.22,5.89,2.19,5.88,2.18,-2.18,-1.98,-1.87,3.70,3.70,3.70
33.55,5.90,2.21,5.89,2.21,-2.21,-2.04,-1.87,3.68,3.68,3.69
33.89,5.90,2.24,5.90,2.24,-2.24,-2.10,-1.86,3.65,3.66,3.66
34.23,5.91,2.27,5.91,2.27,-2.27,-2.16,-1.85,3.63,3.64,3.64
34.57,5.93,2.31,5.92,2.30,-2.30,-2.22,-1.84,3.62,3.62,3.62
34.92,5.93,2.33,5.93,2.33,-2.33,-2.27,-1.83,3.60,3.60,3.60
35.27,5.94,2.36,5.93,2.36,-2.36,-2.33,-1.82,3.58,3.58,3.58
35.62,5.94,2.38,5.94,2.39,-2.39,-2.37,-1.81,3.55,3.56,3.56
35.97,5.95,2.41,5.95,2.41,-2.41,-2.42,-1.80,3.53,3.54,3.54
36.33,5.96,2.44,5.95,2.44,-2.44,-2.46,-1.78,3.52,3.51,3.52
36.70,5.95,2.45,5.96,2.46,-2.46,-2.49,-1.77,3.48,3.49,3.50
37.06,5.97,2.49,5.96,2.49,-2.49,-2.52,-1.76,3.48,3.47,3.48
37.43,5.97,2.51,5.96,2.51,-2.51,-2.54,-1.74,3.45,3.45,3.46
37.81,5.97,2.53,5.97,2.53,-2.53,-2.56,-1.73,3.43,3.43,3.44
38.19,5.97,2.56,5.97,2.56,-2.56,-2.57,-1.72,3.41,3.41,3.41
38.57,5.97,2.57,5.97,2.58,-2.58,-2.57,-1.70,3.39,3.39,3.40
38.95,5.97,2.60,5.97,2.60,-2.60,-2.57,-1.69,3.37,3.37,3.37
39.34,5.97,2.62,5.97,2.62,-2.62,-2.56,-1.68,3.35,3.35,3.35
39.74,5.97,2.64,5.97,2.63,-2.63,-2.55,-1.67,3.33,3.33,3.33
40.14,5.96,2.64,5.96,2.65,-2.65,-2.53,-1.66,3.31,3.31,3.32
40.54,5.96,2.66,5.96,2.66,-2.66,-2.51,-1.65,3.29,3.30,3.30
40.94,5.96,2.68,5.95,2.67,-2.67,-2.49,-1.64,3.28,3.28,3.28
41.35,5.95,2.70,5.94,2.68,-2.68,-2.46,-1.64,3.26,3.26,3.25
41.76,5.94,2.69,5.93,2.69,-2.69,-2.43,-1.63,3.24,3.24,3.25
42.18,5.93,2.70,5.92,2.70,-2.70,-2.40,-1.62,3.22,3.22,3.23
42.60,5.91,2.70,5.91,2.71,-2.71,-2.37,-1.62,3.20,3.20,3.21
43.03,5.89,2.69,5.89,2.71,-2.71,-2.34,-1.62,3.18,3.18,3.20
43.46,5.87,2.70,5.87,2.71,-2.71,-2.31,-1.62,3.16,3.16,3.17
43.90,5.86,2.71,5.85,2.70,-2.70,-2.28,-1.61,3.15,3.15,3.15
44.33,5.83,2.70,5.83,2.70,-2.70,-2.25,-1.62,3.13,3.13,3.13
44.78,5.80,2.69,5.80,2.69,-2.69,-2.23,-1.62,3.11,3.11,3.11
45.23,5.77,2.69,5.77,2.68,-2.68,-2.20,-1.62,3.09,3.09,3.08
45.68,5.74,2.68,5.73,2.66,-2.66,-2.17,-1.62,3.07,3.07,3.06
46.13,5.70,2.65,5.70,2.65,-2.65,-2.15,-1.63,3.05,3.05,3.05
46.60,5.66,2.62,5.66,2.63,-2.63,-2.13,-1.64,3.03,3.03,3.04
47.06,5.62,2.60,5.61,2.60,-2.60,-2.11,-1.64,3.01,3.01,3.02
47.53,5.57,2.57,5.56,2.57,-2.57,-2.10,-1.65,2.99,2.99,3.00
48.01,5.52,2.53,5.51,2.54,-2.54,-2.08,-1.66,2.97,2.97,2.99
48.49,5.46,2.50,5.45,2.51,-2.51,-2.07,-1.67,2.95,2.95,2.96
48.97,5.40,2.47,5.39,2.47,-2.47,-2.06,-1.69,2.93,2.93,2.93
49.46,5.34,2.44,5.33,2.43,-2.43,-2.05,-1.70,2.91,2.90,2.90
49.96,5.27,2.40,5.26,2.38,-2.38,-2.04,-1.71,2.89,2.88,2.87
50.46,5.20,2.34,5.19,2.33,-2.33,-2.04,-1.73,2.86,2.86,2.86
50.96,5.13,2.29,5.12,2.28,-2.28,-2.03,-1.75,2.84,2.84,2.84
51.47,5.05,2.24,5.04,2.23,-2.23,-2.03,-1.76,2.81,2.81,2.81
51.99,4.97,2.18,4.96,2.18,-2.18,-2.03,-1.78,2.79,2.79,2.79
52.51,4.89,2.12,4.88,2.12,-2.12,-2.03,-1.80,2.77,2.76,2.77
53.03,4.81,2.06,4.80,2.06,-2.06,-2.04,-1.82,2.74,2.74,2.75
53.56,4.73,2.01,4.72,2.01,-2.01,-2.04,-1.84,2.72,2.71,2.72
54.10,4.65,1.95,4.64,1.95,-1.95,-2.05,-1.87,2.70,2.69,2.70
54.64,4.56,1.89,4.56,1.90,-1.90,-2.06,-1.89,2.66,2.67,2.67
55.18,4.49,1.84,4.49,1.84,-1.84,-2.07,-1.91,2.64,2.65,2.65
55.74,4.42,1.80,4.42,1.79,-1.79,-2.08,-1.93,2.62,2.62,2.62
56.29,4.34,1.74,4.35,1.75,-1.75,-2.09,-1.96,2.59,2.60,2.60
56.86,4.28,1.71,4.28,1.71,-1.71,-2.10,-1.98,2.57,2.57,2.57
57.42,4.22,1.67,4.22,1.67,-1.67,-2.12,-2.00,2.54,2.55,2.55
58.00,4.17,1.64,4.17,1.64,-1.64,-2.14,-2.03,2.52,2.52,2.53
58.58,4.12,1.62,4.12,1.62,-1.62,-2.15,-2.05,2.49,2.50,2.50
59.16,4.08,1.60,4.08,1.61,-1.61,-2.17,-2.08,2.47,2.47,2.48
59.76,4.04,1.58,4.05,1.60,-1.60,-2.19,-2.10,2.44,2.45,2.46
60.35,4.02,1.59,4.02,1.60,-1.60,-2.21,-2.13,2.42,2.42,2.43
60.96,3.99,1.58,4.00,1.61,-1.61,-2.23,-2.15,2.38,2.39,2.41
61.57,3.98,1.61,3.98,1.62,-1.62,-2.26,-2.18,2.36,2.37,2.37
62.18,3.98,1.64,3.98,1.64,-1.64,-2.28,-2.20,2.34,2.34,2.34
62.80,3.98,1.67,3.98,1.66,-1.66,-2.30,-2.23,2.31,2.31,2.31
63.43,3.98,1.70,3.98,1.69,-1.69,-2.33,-2.25,2.28,2.29,2.28
64.07,3.99,1.74,3.99,1.73,-1.73,-2.35,-2.28,2.26,2.26,2.25
64.71,4.01,1.78,4.00,1.77,-1.77,-2.38,-2.30,2.24,2.23,2.23
65.35,4.02,1.81,4.02,1.81,-1.81,-2.41,-2.33,2.20,2.21,2.21
66.01,4.04,1.85,4.04,1.86,-1.86,-2.44,-2.36,2.18,2.18,2.19
66.67,4.08,1.92,4.07,1.91,-1.91,-2.47,-2.38,2.16,2.16,2.16
67.33,4.11,1.97,4.09,1.96,-1.96,-2.50,-2.41,2.14,2.13,2.14
68.01,4.13,2.02,4.12,2.02,-2.02,-2.53,-2.44,2.11,2.11,2.11
68.69,4.16,2.07,4.15,2.07,-2.07,-2.56,-2.46,2.08,2.08,2.09
69.37,4.19,2.13,4.19,2.13,-2.13,-2.60,-2.49,2.05,2.06,2.06
70.07,4.23,2.20,4.22,2.19,-2.19,-2.63,-2.52,2.03,2.03,2.03
70.77,4.26,2.25,4.26,2.25,-2.25,-2.67,-2.55,2.00,2.00,2.01
71.48,4.30,2.32,4.29,2.32,-2.32,-2.70,-2.58,1.98,1.97,1.98
72.19,4.33,2.38,4.33,2.39,-2.39,-2.74,-2.61,1.94,1.94,1.95
72.91,4.37,2.46,4.36,2.46,-2.46,-2.77,-2.65,1.91,1.91,1.91
73.64,4.40,2.52,4.40,2.52,-2.52,-2.81,-2.68,1.87,1.87,1.88
74.38,4.44,2.59,4.44,2.60,-2.60,-2.85,-2.72,1.84,1.84,1.85
75.12,4.48,2.68,4.47,2.67,-2.67,-2.89,-2.76,1.81,1.81,1.80
75.87,4.52,2.75,4.51,2.74,-2.74,-2.93,-2.80,1.77,1.77,1.77
76.63,4.55,2.81,4.55,2.82,-2.82,-2.97,-2.84,1.72,1.73,1.74
77.40,4.59,2.89,4.59,2.90,-2.90,-3.01,-2.88,1.69,1.69,1.70
78.17,4.63,2.99,4.63,2.98,-2.98,-3.05,-2.93,1.65,1.65,1.64
78.95,4.67,3.05,4.67,3.06,-3.06,-3.09,-2.98,1.61,1.61,1.62
79.74,4.71,3.13,4.70,3.14,-3.14,-3.14,-3.03,1.57,1.57,1.58
80.54,4.74,3.21,4.74,3.22,-3.22,-3.18,-3.08,1.52,1.53,1.53
81.35,4.79,3.30,4.78,3.30,-3.30,-3.22,-3.14,1.49,1.48,1.49
82.16,4.83,3.39,4.82,3.38,-3.38,-3.27,-3.19,1.45,1.44,1.44
82.98,4.86,3.46,4.85,3.46,-3.46,-3.31,-3.25,1.39,1.39,1.40
83.81,4.90,3.56,4.89,3.54,-3.54,-3.36,-3.32,1.35,1.35,1.34
84.65,4.92,3.62,4.92,3.63,-3.63,-3.41,-3.38,1.29,1.30,1.30
85.50,4.96,3.70,4.96,3.71,-3.71,-3.45,-3.45,1.25,1.25,1.26
86.35,4.99,3.78,4.99,3.79,-3.79,-3.50,-3.52,1.20,1.20,1.21
87.22,5.02,3.86,5.02,3.87,-3.87,-3.55,-3.59,1.15,1.15,1.16
88.09,5.06,3.96,5.05,3.95,-3.95,-3.60,-3.67,1.11,1.10,1.10
88.97,5.08,4.02,5.08,4.02,-4.02,-3.65,-3.75,1.05,1.05,1.06
89.86,5.10,4.09,5.10,4.10,-4.10,-3.70,-3.83,1.00,1.00,1.01
90.76,5.13,4.18,5.12,4.17,-4.17,-3.75,-3.92,0.95,0.95,0.95
91.66,5.15,4.25,5.14,4.24,-4.24,-3.80,-4.00,0.90,0.90,0.90
92.58,5.16,4.32,5.16,4.31,-4.31,-3.85,-4.09,0.84,0.85,0.84
93.51,5.18,4.38,5.18,4.38,-4.38,-3.90,-4.19,0.79,0.79,0.80
94.44,5.20,4.45,5.19,4.45,-4.45,-3.95,-4.28,0.74,0.73,0.75
95.39,5.20,4.51,5.20,4.52,-4.52,-4.01,-4.38,0.68,0.68,0.69
96.34,5.21,4.59,5.20,4.58,-4.58,-4.06,-4.48,0.62,0.62,0.62
97.30,5.21,4.64,5.21,4.64,-4.64,-4.11,-4.58,0.56,0.56,0.57
98.28,5.21,4.70,5.20,4.70,-4.70,-4.16,-4.69,0.51,0.50,0.51
99.26,5.21,4.77,5.20,4.76,-4.76,-4.22,-4.79,0.45,0.44,0.44
100.25,5.20,4.81,5.20,4.81,-4.81,-4.27,-4.90,0.38,0.38,0.39
101.25,5.19,4.86,5.19,4.87,-4.87,-4.33,-5.01,0.32,0.32,0.33
102.27,5.18,4.92,5.18,4.92,-4.92,-4.38,-5.12,0.26,0.26,0.26
103.29,5.17,4.98,5.16,4.97,-4.97,-4.43,-5.23,0.20,0.20,0.19
104.32,5.15,5.01,5.15,5.02,-5.02,-4.49,-5.34,0.13,0.13,0.14
105.37,5.14,5.06,5.13,5.06,-5.06,-4.54,-5.46,0.07,0.07,0.08
106.42,5.11,5.10,5.11,5.11,-5.11,-4.60,-5.57,-0.00,0.00,0.01
107.48,5.09,5.15,5.09,5.15,-5.15,-4.65,-5.67,-0.07,-0.06,-0.06
108.56,5.07,5.20,5.07,5.20,-5.20,-4.70,-5.78,-0.13,-0.13,-0.13
109.64,5.05,5.24,5.04,5.24,-5.24,-4.76,-5.88,-0.19,-0.20,-0.19
110.74,5.02,5.27,5.02,5.28,-5.28,-4.81,-5.99,-0.26,-0.26,-0.25
111.85,4.99,5.31,4.99,5.32,-5.32,-4.86,-6.08,-0.33,-0.33,-0.32
112.97,4.96,5.36,4.96,5.36,-5.36,-4.92,-6.17,-0.40,-0.40,-0.40
114.10,4.93,5.39,4.93,5.39,-5.39,-4.97,-6.26,-0.47,-0.47,-0.46
115.24,4.90,5.43,4.89,5.43,-5.43,-5.02,-6.34,-0.53,-0.53,-0.53
116.39,4.87,5.47,4.86,5.46,-5.46,-5.07,-6.41,-0.59,-0.60,-0.60
117.55,4.83,5.50,4.82,5.49,-5.49,-5.13,-6.48,-0.66,-0.66,-0.67
118.73,4.79,5.52,4.78,5.51,-5.51,-5.18,-6.54,-0.73,-0.73,-0.73
119.92,4.75,5.54,4.75,5.54,-5.54,-5.23,-6.58,-0.79,-0.79,-0.79
121.12,4.71,5.56,4.71,5.56,-5.56,-5.28,-6.62,-0.86,-0.86,-0.85
122.33,4.67,5.59,4.67,5.59,-5.59,-5.32,-6.65,-0.92,-0.92,-0.92
123.55,4.63,5.60,4.63,5.61,-5.61,-5.37,-6.67,-0.98,-0.98,-0.97
124.79,4.59,5.62,4.59,5.63,-5.63,-5.42,-6.67,-1.04,-1.04,-1.03
126.03,4.55,5.63,4.55,5.65,-5.65,-5.46,-6.67,-1.10,-1.10,-1.08
127.29,4.51,5.65,4.51,5.66,-5.66,-5.51,-6.65,-1.16,-1.15,-1.14
128.57,4.47,5.68,4.47,5.68,-5.68,-5.55,-6.63,-1.22,-1.21,-1.21
129.85,4.44,5.70,4.44,5.70,-5.70,-5.59,-6.59,-1.26,-1.26,-1.26
131.15,4.40,5.71,4.40,5.72,-5.72,-5.63,-6.55,-1.32,-1.32,-1.31
132.46,4.37,5.74,4.37,5.73,-5.73,-5.67,-6.49,-1.37,-1.37,-1.37
133.79,4.34,5.75,4.33,5.75,-5.75,-5.70,-6.43,-1.41,-1.41,-1.41
135.12,4.30,5.77,4.30,5.76,-5.76,-5.74,-6.36,-1.46,-1.46,-1.47
136.48,4.27,5.77,4.27,5.77,-5.77,-5.77,-6.28,-1.50,-1.50,-1.50
137.84,4.23,5.77,4.23,5.78,-5.78,-5.80,-6.20,-1.55,-1.55,-1.54
139.22,4.21,5.80,4.20,5.79,-5.79,-5.83,-6.11,-1.58,-1.59,-1.59
140.61,4.17,5.80,4.17,5.79,-5.79,-5.85,-6.01,-1.63,-1.62,-1.63
142.02,4.14,5.79,4.14,5.79,-5.79,-5.88,-5.91,-1.66,-1.66,-1.65
143.44,4.11,5.79,4.10,5.79,-5.79,-5.90,-5.81,-1.69,-1.69,-1.68
144.87,4.07,5.79,4.07,5.79,-5.79,-5.92,-5.70,-1.72,-1.72,-1.72
146.32,4.04,5.79,4.03,5.78,-5.78,-5.93,-5.59,-1.75,-1.75,-1.75
147.78,4.00,5.77,4.00,5.78,-5.78,-5.95,-5.48,-1.78,-1.78,-1.77
149.26,3.97,5.77,3.96,5.77,-5.77,-5.96,-5.37,-1.80,-1.81,-1.80
150.75,3.92,5.76,3.92,5.76,-5.76,-5.97,-5.26,-1.84,-1.84,-1.84
152.26,3.88,5.74,3.88,5.74,-5.74,-5.97,-5.15,-1.87,-1.87,-1.86
153.78,3.84,5.73,3.83,5.73,-5.73,-5.97,-5.04,-1.89,-1.89,-1.89
155.32,3.79,5.70,3.79,5.71,-5.71,-5.97,-4.93,-1.92,-1.92,-1.91
156.88,3.74,5.68,3.74,5.69,-5.69,-5.96,-4.82,-1.95,-1.95,-1.94
158.44,3.69,5.66,3.69,5.67,-5.67,-5.95,-4.72,-1.98,-1.97,-1.97
160.03,3.65,5.65,3.64,5.64,-5.64,-5.94,-4.61,-1.99,-2.00,-2.00
161.63,3.59,5.62,3.59,5.61,-5.61,-5.93,-4.51,-2.03,-2.03,-2.03
163.24,3.54,5.60,3.53,5.59,-5.59,-5.91,-4.41,-2.05,-2.06,-2.06
164.88,3.48,5.56,3.47,5.56,-5.56,-5.88,-4.31,-2.08,-2.09,-2.08
166.53,3.42,5.52,3.42,5.53,-5.53,-5.86,-4.21,-2.11,-2.11,-2.10
168.19,3.36,5.50,3.36,5.50,-5.50,-5.83,-4.12,-2.14,-2.14,-2.14
169.87,3.29,5.46,3.29,5.47,-5.47,-5.79,-4.03,-2.18,-2.17,-2.17
171.57,3.23,5.43,3.23,5.43,-5.43,-5.75,-3.95,-2.21,-2.21,-2.20
173.29,3.16,5.38,3.16,5.40,-5.40,-5.71,-3.86,-2.24,-2.24,-2.22
175.02,3.10,5.36,3.09,5.37,-5.37,-5.66,-3.78,-2.27,-2.27,-2.26
176.77,3.03,5.33,3.02,5.33,-5.33,-5.61,-3.70,-2.30,-2.31,-2.30
178.54,2.95,5.29,2.95,5.29,-5.29,-5.56,-3.63,-2.34,-2.34,-2.34
180.32,2.88,5.25,2.87,5.25,-5.25,-5.50,-3.56,-2.37,-2.37,-2.37
182.13,2.80,5.20,2.80,5.21,-5.21,-5.44,-3.49,-2.41,-2.41,-2.40
183.95,2.72,5.16,2.72,5.16,-5.16,-5.38,-3.42,-2.45,-2.44,-2.44
185.79,2.64,5.12,2.64,5.11,-5.11,-5.31,-3.36,-2.48,-2.48,-2.48
187.65,2.56,5.08,2.55,5.06,-5.06,-5.24,-3.29,-2.51,-2.51,-2.52
189.52,2.47,5.02,2.47,5.01,-5.01,-5.16,-3.24,-2.54,-2.54,-2.55
191.42,2.39,4.96,2.38,4.95,-4.95,-5.08,-3.18,-2.57,-2.57,-2.57
193.33,2.30,4.89,2.29,4.89,-4.89,-5.00,-3.13,-2.60,-2.61,-2.59
195.27,2.20,4.82,2.20,4.83,-4.83,-4.91,-3.07,-2.64,-2.63,-2.62
197.22,2.10,4.75,2.10,4.76,-4.76,-4.82,-3.02,-2.67,-2.66,-2.65
199.19,2.01,4.71,2.01,4.69,-4.69,-4.73,-2.98,-2.69,-2.69,-2.70
201.18,1.92,4.63,1.91,4.62,-4.62,-4.63,-2.93,-2.71,-2.71,-2.71
203.19,1.81,4.54,1.81,4.55,-4.55,-4.53,-2.89,-2.74,-2.73,-2.73
205.23,1.71,4.46,1.71,4.47,-4.47,-4.42,-2.84,-2.76,-2.76,-2.75
207.28,1.62,4.38,1.61,4.39,-4.39,-4.32,-2.80,-2.77,-2.78,-2.76
209.35,1.51,4.30,1.51,4.30,-4.30,-4.21,-2.76,-2.80,-2.80,-2.79
211.44,1.41,4.22,1.40,4.22,-4.22,-4.10,-2.72,-2.81,-2.81,-2.81
213.56,1.30,4.13,1.30,4.13,-4.13,-3.98,-2.68,-2.83,-2.83,-2.83
215.69,1.20,4.03,1.19,4.03,-4.03,-3.86,-2.64,-2.84,-2.84,-2.83
217.85,1.08,3.92,1.08,3.94,-3.94,-3.74,-2.60,-2.86,-2.85,-2.84
220.03,0.98,3.85,0.97,3.84,-3.84,-3.62,-2.56,-2.86,-2.86,-2.87
222.23,0.87,3.75,0.87,3.74,-3.74,-3.49,-2.52,-2.87,-2.87,-2.88
224.45,0.76,3.63,0.76,3.63,-3.63,-3.36,-2.48,-2.88,-2.88,-2.87
226.70,0.65,3.53,0.65,3.53,-3.53,-3.23,-2.44,-2.88,-2.88,-2.88
228.96,0.54,3.42,0.54,3.42,-3.42,-3.10,-2.40,-2.88,-2.88,-2.88
231.25,0.42,3.29,0.42,3.30,-3.30,-2.96,-2.35,-2.89,-2.88,-2.87
233.57,0.32,3.18,0.31,3.19,-3.19,-2.82,-2.31,-2.87,-2.87,-2.86
235.90,0.20,3.06,0.20,3.07,-3.07,-2.68,-2.26,-2.87,-2.86,-2.86
238.26,0.10,2.96,0.09,2.95,-2.95,-2.54,-2.21,-2.85,-2.85,-2.86
240.64,-0.02,2.82,-0.01,2.83,-2.83,-2.40,-2.15,-2.85,-2.84,-2.84
243.05,-0.12,2.70,-0.12,2.70,-2.70,-2.25,-2.09,-2.83,-2.83,-2.82
245.48,-0.24,2.56,-0.23,2.58,-2.58,-2.10,-2.03,-2.82,-2.81,-2.80
247.93,-0.35,2.44,-0.34,2.45,-2.45,-1.95,-1.97,-2.81,-2.79,-2.79
250.41,-0.46,2.32,-0.45,2.33,-2.33,-1.80,-1.91,-2.79,-2.77,-2.78
252.92,-0.57,2.17,-0.56,2.20,-2.20,-1.65,-1.84,-2.77,-2.75,-2.74
255.45,-0.69,2.03,-0.67,2.06,-2.06,-1.49,-1.76,-2.76,-2.73,-2.72
258.00,-0.80,1.90,-0.79,1.92,-1.92,-1.33,-1.69,-2.73,-2.71,-2.70
260.58,-0.92,1.76,-0.91,1.77,-1.77,-1.18,-1.61,-2.70,-2.69,-2.68
263.19,-1.05,1.61,-1.05,1.61,-1.61,-1.02,-1.53,-2.67,-2.66,-2.66
265.82,-1.18,1.46,-1.20,1.44,-1.44,-0.86,-1.44,-2.62,-2.64,-2.64
268.48,-1.33,1.28,-1.37,1.24,-1.24,-0.69,-1.35,-2.58,-2.61,-2.61
271.16,-1.50,1.08,-1.56,1.03,-1.03,-0.53,-1.26,-2.54,-2.59,-2.58
273.87,-1.69,0.87,-1.76,0.80,-0.80,-0.36,-1.17,-2.50,-2.57,-2.56
276.61,-1.89,0.64,-1.98,0.56,-0.56,-0.20,-1.07,-2.45,-2.54,-2.53
279.38,-2.13,0.38,-2.22,0.29,-0.29,-0.03,-0.97,-2.43,-2.52,-2.51
282.17,-2.39,0.10,-2.47,0.02,-0.02,0.14,-0.87,-2.41,-2.49,-2.49
284.99,-2.68,-0.22,-2.73,-0.27,0.27,0.31,-0.76,-2.42,-2.47,-2.46
287.84,-2.98,-0.54,-3.00,-0.56,0.56,0.48,-0.66,-2.42,-2.44,-2.44
290.72,-3.27,-0.87,-3.26,-0.86,0.86,0.65,-0.55,-2.42,-2.41,-2.40
293.63,-3.57,-1.19,-3.52,-1.14,1.14,0.82,-0.43,-2.43,-2.38,-2.38
296.57,-3.85,-1.50,-3.77,-1.42,1.42,0.99,-0.32,-2.43,-2.35,-2.35
299.53,-4.10,-1.78,-4.01,-1.69,1.69,1.16,-0.21,-2.42,-2.32,-2.32
302.53,-4.33,-2.03,-4.23,-1.94,1.94,1.33,-0.09,-2.39,-2.29,-2.30
305.55,-4.52,-2.27,-4.43,-2.17,2.17,1.51,0.03,-2.35,-2.26,-2.25
308.61,-4.68,-2.46,-4.61,-2.39,2.39,1.68,0.15,-2.30,-2.22,-2.22
311.69,-4.82,-2.64,-4.77,-2.58,2.58,1.85,0.27,-2.24,-2.19,-2.18
314.81,-4.93,-2.78,-4.92,-2.76,2.76,2.02,0.39,-2.18,-2.16,-2.15
317.96,-5.03,-2.91,-5.05,-2.92,2.92,2.19,0.52,-2.11,-2.13,-2.12
321.14,-5.12,-3.03,-5.17,-3.07,3.07,2.36,0.64,-2.05,-2.10,-2.09
324.35,-5.22,-3.15,-5.28,-3.21,3.21,2.53,0.77,-2.01,-2.07,-2.07
327.59,-5.32,-3.29,-5.38,-3.34,3.34,2.70,0.90,-1.98,-2.04,-2.03
330.87,-5.42,-3.42,-5.48,-3.47,3.47,2.86,1.03,-1.95,-2.01,-2.00
334.18,-5.53,-3.55,-5.58,-3.60,3.60,3.03,1.16,-1.94,-1.98,-1.98
337.52,-5.64,-3.68,-5.68,-3.72,3.72,3.19,1.29,-1.92,-1.96,-1.96
340.90,-5.76,-3.83,-5.78,-3.84,3.84,3.35,1.43,-1.92,-1.94,-1.93
344.30,-5.87,-3.96,-5.87,-3.96,3.96,3.50,1.56,-1.91,-1.91,-1.91
347.75,-5.98,-4.10,-5.97,-4.07,4.07,3.66,1.70,-1.91,-1.89,-1.88
351.23,-6.07,-4.21,-6.05,-4.18,4.18,3.81,1.84,-1.89,-1.87,-1.86
354.74,-6.16,-4.31,-6.14,-4.28,4.28,3.95,1.98,-1.88,-1.85,-1.85
358.28,-6.25,-4.42,-6.21,-4.38,4.38,4.09,2.12,-1.87,-1.83,-1.83
361.87,-6.31,-4.50,-6.28,-4.47,4.47,4.23,2.26,-1.85,-1.81,-1.81
365.49,-6.36,-4.58,-6.34,-4.55,4.55,4.36,2.41,-1.82,-1.79,-1.78
369.14,-6.40,-4.63,-6.39,-4.62,4.62,4.49,2.55,-1.79,-1.77,-1.77
372.83,-6.43,-4.67,-6.43,-4.68,4.68,4.61,2.70,-1.75,-1.75,-1.76
376.56,-6.45,-4.71,-6.47,-4.74,4.74,4.73,2.85,-1.72,-1.73,-1.74
380.33,-6.48,-4.77,-6.50,-4.79,4.79,4.84,3.00,-1.70,-1.71,-1.71
384.13,-6.50,-4.81,-6.53,-4.83,4.83,4.94,3.15,-1.67,-1.70,-1.69
387.97,-6.53,-4.86,-6.55,-4.88,4.88,5.03,3.30,-1.66,-1.67,-1.67
391.85,-6.55,-4.90,-6.57,-4.92,4.92,5.12,3.46,-1.64,-1.65,-1.65
395.77,-6.58,-4.96,-6.59,-4.96,4.96,5.20,3.61,-1.63,-1.63,-1.62
399.73,-6.59,-4.99,-6.60,-4.99,4.99,5.27,3.77,-1.60,-1.61,-1.60
403.72,-6.61,-5.02,-6.62,-5.03,5.03,5.34,3.92,-1.59,-1.59,-1.59
407.76,-6.63,-5.06,-6.63,-5.06,5.06,5.40,4.08,-1.57,-1.57,-1.57
411.84,-6.65,-5.11,-6.64,-5.10,5.10,5.44,4.23,-1.56,-1.54,-1.54
415.96,-6.65,-5.13,-6.65,-5.12,5.12,5.48,4.38,-1.53,-1.52,-1.52
420.12,-6.65,-5.15,-6.65,-5.15,5.15,5.52,4.54,-1.50,-1.50,-1.50
424.32,-6.65,-5.18,-6.65,-5.17,5.17,5.54,4.69,-1.48,-1.48,-1.47
428.56,-6.64,-5.19,-6.65,-5.19,5.19,5.56,4.84,-1.45,-1.46,-1.45
432.85,-6.63,-5.20,-6.64,-5.20,5.20,5.57,4.98,-1.43,-1.43,-1.43
437.18,-6.62,-5.22,-6.62,-5.21,5.21,5.57,5.12,-1.41,-1.41,-1.40
441.55,-6.60,-5.23,-6.60,-5.22,5.22,5.56,5.26,-1.38,-1.38,-1.37
445.96,-6.58,-5.23,-6.58,-5.23,5.23,5.55,5.39,-1.36,-1.36,-1.35
450.42,-6.55,-5.21,-6.56,-5.23,5.23,5.53,5.52,-1.33,-1.33,-1.34
454.93,-6.52,-5.22,-6.53,-5.22,5.22,5.50,5.64,-1.30,-1.30,-1.30
459.48,-6.49,-5.21,-6.49,-5.21,5.21,5.47,5.75,-1.28,-1.28,-1.28
464.07,-6.45,-5.20,-6.45,-5.20,5.20,5.43,5.85,-1.25,-1.25,-1.25
468.71,-6.41,-5.20,-6.41,-5.19,5.19,5.39,5.95,-1.22,-1.22,-1.21
473.40,-6.36,-5.17,-6.36,-5.17,5.17,5.34,6.03,-1.19,-1.19,-1.19
478.13,-6.31,-5.15,-6.31,-5.15,5.15,5.29,6.10,-1.16,-1.16,-1.16
482.91,-6.26,-5.13,-6.26,-5.12,5.12,5.23,6.16,-1.14,-1.14,-1.13
487.74,-6.20,-5.10,-6.20,-5.09,5.09,5.17,6.21,-1.11,-1.11,-1.10
492.62,-6.13,-5.06,-6.14,-5.06,5.06,5.11,6.25,-1.08,-1.08,-1.07
497.55,-6.06,-5.01,-6.07,-5.02,5.02,5.04,6.27,-1.04,-1.05,-1.05
