frequency,raw,error,smoothed,error_smoothed,equalization,parametric_eq,fixed_band_eq,equalized_raw,equalized_smoothed,target
20.00,4.20,-1.44,4.19,-1.47,1.47,-0.19,-0.23,5.66,5.65,5.63
20.20,4.23,-1.40,4.22,-1.43,1.43,-0.19,-0.24,5.66,5.65,5.63
20.40,4.25,-1.38,4.25,-1.39,1.39,-0.20,-0.24,5.64,5.64,5.63
20.61,4.28,-1.35,4.28,-1.35,1.35,-0.20,-0.25,5.62,5.63,5.63
20.81,4.31,-1.32,4.31,-1.30,1.30,-0.21,-0.26,5.61,5.62,5.63
21.02,4.34,-1.29,4.34,-1.26,1.26,-0.21,-0.27,5.60,5.61,5.63
21.23,4.38,-1.23,4.38,-1.21,1.21,-0.21,-0.28,5.59,5.59,5.61
21.44,4.41,-1.19,4.41,-1.17,1.17,-0.22,-0.28,5.57,5.58,5.60
21.66,4.44,-1.14,4.45,-1.12,1.12,-0.22,-0.29,5.55,5.57,5.58
21.87,4.48,-1.08,4.48,-1.07,1.07,-0.23,-0.30,5.55,5.55,5.56
22.09,4.52,-1.03,4.52,-1.02,1.02,-0.23,-0.31,5.53,5.53,5.55
22.31,4.56,-0.96,4.55,-0.96,0.96,-0.24,-0.32,5.52,5.52,5.52
22.54,4.59,-0.91,4.59,-0.90,0.90,-0.24,-0.33,5.49,5.49,5.50
22.76,4.64,-0.84,4.63,-0.84,0.84,-0.24,-0.34,5.48,5.47,5.47
22.99,4.68,-0.77,4.67,-0.78,0.78,-0.25,-0.35,5.46,5.45,5.44
23.22,4.71,-0.71,4.71,-0.72,0.72,-0.25,-0.36,5.43,5.43,5.41
23.45,4.75,-0.65,4.75,-0.66,0.66,-0.26,-0.37,5.41,5.41,5.39
23.69,4.79,-0.60,4.78,-0.60,0.60,-0.26,-0.38,5.39,5.38,5.38
23.92,4.83,-0.53,4.82,-0.54,0.54,-0.27,-0.39,5.37,5.36,5.36
24.16,4.87,-0.48,4.86,-0.48,0.48,-0.28,-0.41,5.35,5.34,5.35
24.40,4.90,-0.43,4.90,-0.42,0.42,-0.28,-0.42,5.32,5.32,5.33
24.65,4.94,-0.37,4.94,-0.37,0.37,-0.29,-0.43,5.30,5.30,5.31
24.89,4.98,-0.31,4.98,-0.31,0.31,-0.29,-0.44,5.29,5.29,5.29
25.14,5.02,-0.26,5.02,-0.25,0.25,-0.30,-0.45,5.27,5.27,5.28
25.39,5.06,-0.20,5.06,-0.20,0.20,-0.30,-0.46,5.25,5.25,5.25
25.65,5.10,-0.15,5.10,-0.14,0.14,-0.31,-0.48,5.24,5.24,5.24
25.91,5.14,-0.08,5.14,-0.08,0.08,-0.32,-0.49,5.22,5.22,5.21
26.16,5.18,-0.02,5.18,-0.03,0.03,-0.32,-0.50,5.20,5.21,5.20
26.43,5.22,0.03,5.22,0.03,-0.03,-0.33,-0.51,5.19,5.19,5.19
26.69,5.26,0.09,5.26,0.08,-0.08,-0.33,-0.53,5.17,5.17,5.17
26.96,5.30,0.14,5.30,0.14,-0.14,-0.34,-0.54,5.16,5.16,5.16
27.23,5.35,0.20,5.34,0.20,-0.20,-0.35,-0.55,5.15,5.14,5.15
27.50,5.38,0.24,5.38,0.25,-0.25,-0.35,-0.56,5.13,5.13,5.13
27.77,5.42,0.30,5.41,0.30,-0.30,-0.36,-0.57,5.12,5.11,5.11
28.05,5.46,0.35,5.45,0.35,-0.35,-0.37,-0.59,5.10,5.10,5.10
28.33,5.49,0.41,5.49,0.40,-0.40,-0.38,-0.60,5.08,5.09,5.08
28.62,5.53,0.46,5.53,0.46,-0.46,-0.38,-0.61,5.07,5.07,5.07
28.90,5.56,0.50,5.56,0.50,-0.50,-0.39,-0.62,5.05,5.06,5.06
29.19,5.59,0.55,5.60,0.55,-0.55,-0.40,-0.63,5.03,5.05,5.03
29.48,5.64,0.60,5.63,0.60,-0.60,-0.41,-0.64,5.04,5.03,5.03
29.78,5.67,0.64,5.66,0.64,-0.64,-0.41,-0.65,5.02,5.02,5.02
30.08,5.70,0.69,5.69,0.69,-0.69,-0.42,-0.65,5.01,5.00,5.01
30.38,5.72,0.73,5.72,0.73,-0.73,-0.43,-0.66,4.98,4.99,4.99
30.68,5.75,0.77,5.74,0.77,-0.77,-0.44,-0.67,4.97,4.97,4.97
30.99,5.78,0.82,5.77,0.81,-0.81,-0.45,-0.68,4.96,4.95,4.95
31.30,5.80,0.86,5.79,0.85,-0.85,-0.46,-0.68,4.94,4.94,4.94
31.61,5.82,0.89,5.81,0.89,-0.89,-0.47,-0.69,4.93,4.92,4.93
31.93,5.83,0.92,5.83,0.93,-0.93,-0.47,-0.69,4.90,4.90,4.91
32.24,5.84,0.96,5.84,0.96,-0.96,-0.48,-0.70,4.87,4.88,4.87
32.57,5.86,1.00,5.86,1.00,-1.00,-0.49,-0.70,4.86,4.86,4.86
32.89,5.87,1.02,5.87,1.03,-1.03,-0.50,-0.70,4.84,4.84,4.85
33.22,5.89,1.07,5.88,1.06,-1.06,-0.51,-0.70,4.82,4.82,4.81
33.55,5.90,1.10,5.89,1.10,-1.10,-0.52,-0.71,4.80,4.80,4.80
33.89,5.90,1.12,5.90,1.13,-1.13,-0.53,-0.71,4.77,4.78,4.78
34.23,5.91,1.15,5.91,1.16,-1.16,-0.54,-0.71,4.75,4.75,4.75
34.57,5.93,1.20,5.92,1.19,-1.19,-0.55,-0.71,4.74,4.73,4.73
34.92,5.93,1.22,5.93,1.22,-1.22,-0.56,-0.71,4.71,4.71,4.71
35.27,5.94,1.24,5.93,1.24,-1.24,-0.58,-0.71,4.69,4.69,4.69
35.62,5.94,1.27,5.94,1.27,-1.27,-0.59,-0.71,4.66,4.67,4.67
35.97,5.95,1.30,5.95,1.30,-1.30,-0.60,-0.71,4.65,4.65,4.64
36.33,5.96,1.33,5.95,1.33,-1.33,-0.61,-0.71,4.63,4.63,4.63
36.70,5.95,1.34,5.96,1.35,-1.35,-0.62,-0.70,4.59,4.60,4.61
37.06,5.97,1.38,5.96,1.38,-1.38,-0.63,-0.70,4.59,4.58,4.58
37.43,5.97,1.40,5.96,1.40,-1.40,-0.65,-0.70,4.56,4.56,4.57
37.81,5.97,1.42,5.97,1.43,-1.43,-0.66,-0.70,4.54,4.54,4.54
38.19,5.97,1.45,5.97,1.45,-1.45,-0.67,-0.70,4.52,4.52,4.52
38.57,5.97,1.46,5.97,1.47,-1.47,-0.68,-0.70,4.49,4.50,4.50
38.95,5.97,1.49,5.97,1.49,-1.49,-0.70,-0.70,4.47,4.48,4.48
39.34,5.97,1.52,5.97,1.51,-1.51,-0.71,-0.70,4.45,4.46,4.45
39.74,5.97,1.54,5.97,1.53,-1.53,-0.72,-0.70,4.44,4.44,4.42
40.14,5.96,1.54,5.96,1.55,-1.55,-0.74,-0.70,4.41,4.41,4.42
40.54,5.96,1.56,5.96,1.56,-1.56,-0.75,-0.70,4.39,4.39,4.39
40.94,5.96,1.58,5.95,1.58,-1.58,-0.77,-0.70,4.38,4.38,4.37
41.35,5.95,1.60,5.94,1.59,-1.59,-0.78,-0.70,4.36,4.36,4.35
41.76,5.94,1.60,5.93,1.60,-1.60,-0.80,-0.70,4.34,4.33,4.34
42.18,5.93,1.60,5.92,1.61,-1.61,-0.81,-0.70,4.32,4.31,4.32
42.60,5.91,1.61,5.91,1.61,-1.61,-0.83,-0.70,4.29,4.29,4.29
43.03,5.89,1.60,5.89,1.62,-1.62,-0.84,-0.71,4.27,4.27,4.29
43.46,5.87,1.61,5.87,1.62,-1.62,-0.86,-0.71,4.25,4.25,4.26
43.90,5.86,1.63,5.85,1.62,-1.62,-0.87,-0.71,4.24,4.23,4.23
44.33,5.83,1.62,5.83,1.61,-1.61,-0.89,-0.72,4.21,4.21,4.21
44.78,5.80,1.60,5.80,1.60,-1.60,-0.91,-0.72,4.19,4.19,4.19
45.23,5.77,1.60,5.77,1.59,-1.59,-0.92,-0.72,4.17,4.17,4.16
45.68,5.74,1.59,5.73,1.58,-1.58,-0.94,-0.73,4.15,4.15,4.14
46.13,5.70,1.57,5.70,1.57,-1.57,-0.96,-0.73,4.13,4.13,4.12
46.60,5.66,1.55,5.66,1.55,-1.55,-0.98,-0.74,4.11,4.11,4.11
47.06,5.62,1.53,5.61,1.53,-1.53,-1.00,-0.75,4.09,4.08,4.09
47.53,5.57,1.50,5.56,1.50,-1.50,-1.02,-0.75,4.06,4.06,4.07
48.01,5.52,1.46,5.51,1.47,-1.47,-1.03,-0.76,4.04,4.04,4.06
48.49,5.46,1.43,5.45,1.44,-1.44,-1.05,-0.77,4.02,4.01,4.02
48.97,5.40,1.41,5.39,1.40,-1.40,-1.07,-0.78,3.99,3.99,3.99
49.46,5.34,1.38,5.33,1.36,-1.36,-1.09,-0.79,3.97,3.97,3.96
49.96,5.27,1.34,5.26,1.32,-1.32,-1.11,-0.80,3.94,3.94,3.92
50.46,5.20,1.28,5.19,1.28,-1.28,-1.13,-0.81,3.92,3.92,3.92
50.96,5.13,1.23,5.12,1.23,-1.23,-1.16,-0.82,3.90,3.89,3.89
51.47,5.05,1.19,5.04,1.18,-1.18,-1.18,-0.83,3.87,3.86,3.86
51.99,4.97,1.13,4.96,1.13,-1.13,-1.20,-0.84,3.84,3.84,3.83
52.51,4.89,1.07,4.88,1.07,-1.07,-1.22,-0.86,3.81,3.81,3.82
53.03,4.81,1.02,4.80,1.02,-1.02,-1.24,-0.87,3.79,3.78,3.79
53.56,4.73,0.97,4.72,0.97,-0.97,-1.27,-0.88,3.76,3.76,3.76
54.10,4.65,0.91,4.64,0.91,-0.91,-1.29,-0.90,3.73,3.73,3.73
54.64,4.56,0.85,4.56,0.86,-0.86,-1.31,-0.91,3.69,3.70,3.70
55.18,4.49,0.81,4.49,0.81,-0.81,-1.34,-0.93,3.67,3.68,3.67
55.74,4.42,0.77,4.42,0.77,-0.77,-1.36,-0.95,3.65,3.65,3.64
56.29,4.34,0.71,4.35,0.72,-0.72,-1.39,-0.97,3.61,3.62,3.62
56.86,4.28,0.69,4.28,0.69,-0.69,-1.41,-0.99,3.59,3.59,3.59
57.42,4.22,0.66,4.22,0.66,-0.66,-1.44,-1.00,3.56,3.57,3.56
58.00,4.17,0.63,4.17,0.63,-0.63,-1.47,-1.03,3.53,3.54,3.54
58.58,4.12,0.61,4.12,0.62,-0.62,-1.49,-1.05,3.50,3.51,3.50
59.16,4.08,0.60,4.08,0.61,-0.61,-1.52,-1.07,3.47,3.47,3.48
59.76,4.04,0.58,4.05,0.60,-0.60,-1.55,-1.09,3.43,3.44,3.45
60.35,4.02,0.60,4.02,0.60,-0.60,-1.58,-1.12,3.41,3.41,3.42
60.96,3.99,0.59,4.00,0.62,-0.62,-1.60,-1.14,3.37,3.38,3.40
61.57,3.98,0.62,3.98,0.63,-0.63,-1.63,-1.17,3.34,3.35,3.35
62.18,3.98,0.66,3.98,0.66,-0.66,-1.66,-1.19,3.32,3.32,3.31
62.80,3.98,0.69,3.98,0.69,-0.69,-1.69,-1.22,3.29,3.29,3.29
63.43,3.98,0.73,3.98,0.72,-0.72,-1.72,-1.25,3.25,3.26,3.25
64.07,3.99,0.77,3.99,0.76,-0.76,-1.75,-1.28,3.22,3.23,3.21
64.71,4.01,0.81,4.00,0.81,-0.81,-1.78,-1.31,3.20,3.19,3.19
65.35,4.02,0.86,4.02,0.86,-0.86,-1.82,-1.35,3.16,3.16,3.16
66.01,4.04,0.90,4.04,0.91,-0.91,-1.85,-1.38,3.13,3.13,3.14
66.67,4.08,0.97,4.07,0.97,-0.97,-1.88,-1.42,3.11,3.10,3.10
67.33,4.11,1.03,4.09,1.02,-1.02,-1.92,-1.45,3.08,3.07,3.08
68.01,4.13,1.09,4.12,1.08,-1.08,-1.95,-1.49,3.04,3.04,3.04
68.69,4.16,1.14,4.15,1.15,-1.15,-1.98,-1.53,3.01,3.01,3.01
69.37,4.19,1.21,4.19,1.21,-1.21,-2.02,-1.57,2.98,2.98,2.97
70.07,4.23,1.28,4.22,1.28,-1.28,-2.05,-1.61,2.95,2.94,2.94
70.77,4.26,1.34,4.26,1.35,-1.35,-2.09,-1.66,2.91,2.91,2.91
71.48,4.30,1.42,4.29,1.42,-1.42,-2.13,-1.70,2.88,2.87,2.87
72.19,4.33,1.49,4.33,1.49,-1.49,-2.16,-1.75,2.83,2.83,2.84
72.91,4.37,1.57,4.36,1.57,-1.57,-2.20,-1.80,2.80,2.80,2.80
73.64,4.40,1.64,4.40,1.64,-1.64,-2.24,-1.85,2.75,2.76,2.75
74.38,4.44,1.72,4.44,1.72,-1.72,-2.28,-1.90,2.71,2.71,2.72
75.12,4.48,1.81,4.47,1.80,-1.80,-2.32,-1.95,2.67,2.67,2.66
75.87,4.52,1.89,4.51,1.88,-1.88,-2.36,-2.01,2.63,2.63,2.63
76.63,4.55,1.96,4.55,1.97,-1.97,-2.40,-2.07,2.58,2.58,2.59
77.40,4.59,2.05,4.59,2.05,-2.05,-2.44,-2.12,2.53,2.54,2.54
78.17,4.63,2.15,4.63,2.14,-2.14,-2.48,-2.18,2.49,2.49,2.48
78.95,4.67,2.22,4.67,2.23,-2.23,-2.52,-2.25,2.44,2.44,2.45
79.74,4.71,2.31,4.70,2.31,-2.31,-2.56,-2.31,2.39,2.39,2.40
80.54,4.74,2.39,4.74,2.40,-2.40,-2.61,-2.38,2.33,2.34,2.34
81.35,4.79,2.50,4.78,2.49,-2.49,-2.65,-2.45,2.29,2.29,2.29
82.16,4.83,2.59,4.82,2.58,-2.58,-2.69,-2.52,2.24,2.24,2.23
82.98,4.86,2.67,4.85,2.67,-2.67,-2.74,-2.59,2.18,2.18,2.19
83.81,4.90,2.77,4.89,2.76,-2.76,-2.78,-2.67,2.13,2.13,2.12
84.65,4.92,2.85,4.92,2.85,-2.85,-2.83,-2.74,2.06,2.07,2.06
85.50,4.96,2.94,4.96,2.94,-2.94,-2.87,-2.82,2.01,2.01,2.02
86.35,4.99,3.03,4.99,3.03,-3.03,-2.92,-2.91,1.95,1.96,1.96
87.22,5.02,3.12,5.02,3.12,-3.12,-2.97,-2.99,1.90,1.90,1.90
88.09,5.06,3.22,5.05,3.21,-3.21,-3.02,-3.08,1.85,1.84,1.84
88.97,5.08,3.29,5.08,3.29,-3.29,-3.07,-3.17,1.78,1.78,1.79
89.86,5.10,3.37,5.10,3.38,-3.38,-3.11,-3.26,1.72,1.72,1.72
90.76,5.13,3.47,5.12,3.46,-3.46,-3.16,-3.35,1.66,1.66,1.65
91.66,5.15,3.55,5.14,3.54,-3.54,-3.21,-3.45,1.60,1.60,1.60
92.58,5.16,3.63,5.16,3.62,-3.62,-3.26,-3.55,1.53,1.54,1.52
93.51,5.18,3.70,5.18,3.70,-3.70,-3.32,-3.65,1.47,1.47,1.48
94.44,5.20,3.78,5.19,3.78,-3.78,-3.37,-3.75,1.42,1.41,1.42
95.39,5.20,3.85,5.20,3.85,-3.85,-3.42,-3.86,1.34,1.34,1.35
96.34,5.21,3.93,5.20,3.93,-3.93,-3.47,-3.96,1.28,1.28,1.27
97.30,5.21,4.00,5.21,4.00,-4.00,-3.52,-4.07,1.21,1.21,1.21
98.28,5.21,4.06,5.20,4.06,-4.06,-3.58,-4.18,1.14,1.14,1.14
99.26,5.21,4.14,5.20,4.13,-4.13,-3.63,-4.30,1.07,1.07,1.07
100.25,5.20,4.20,5.20,4.20,-4.20,-3.69,-4.41,1.00,1.00,1.00
101.25,5.19,4.26,5.19,4.26,-4.26,-3.74,-4.52,0.93,0.93,0.93
102.27,5.18,4.32,5.18,4.32,-4.32,-3.80,-4.64,0.85,0.86,0.85
103.29,5.17,4.39,5.16,4.38,-4.38,-3.85,-4.75,0.78,0.78,0.78
104.32,5.15,4.44,5.15,4.44,-4.44,-3.91,-4.87,0.71,0.71,0.71
105.37,5.14,4.50,5.13,4.50,-4.50,-3.96,-4.98,0.64,0.63,0.64
106.42,5.11,4.54,5.11,4.55,-4.55,-4.02,-5.10,0.55,0.56,0.56
107.48,5.09,4.60,5.09,4.61,-4.61,-4.08,-5.21,0.48,0.48,0.48
108.56,5.07,4.66,5.07,4.66,-4.66,-4.13,-5.32,0.41,0.41,0.41
109.64,5.05,4.72,5.04,4.71,-4.71,-4.19,-5.43,0.33,0.33,0.33
110.74,5.02,4.75,5.02,4.76,-4.76,-4.25,-5.53,0.25,0.25,0.26
111.85,4.99,4.80,4.99,4.81,-4.81,-4.30,-5.63,0.17,0.17,0.18
112.97,4.96,4.87,4.96,4.86,-4.86,-4.36,-5.73,0.10,0.10,0.09
114.10,4.93,4.90,4.93,4.91,-4.91,-4.42,-5.81,0.02,0.02,0.02
115.24,4.90,4.95,4.89,4.95,-4.95,-4.47,-5.90,-0.05,-0.06,-0.05
116.39,4.87,5.01,4.86,4.99,-4.99,-4.53,-5.97,-0.12,-0.13,-0.14
117.55,4.83,5.04,4.82,5.03,-5.03,-4.59,-6.04,-0.20,-0.21,-0.22
118.73,4.79,5.08,4.78,5.07,-5.07,-4.65,-6.10,-0.28,-0.28,-0.29
119.92,4.75,5.10,4.75,5.10,-5.10,-4.70,-6.15,-0.36,-0.36,-0.36
121.12,4.71,5.14,4.71,5.14,-5.14,-4.76,-6.20,-0.43,-0.43,-0.43
122.33,4.67,5.17,4.67,5.17,-5.17,-4.81,-6.23,-0.50,-0.50,-0.50
123.55,4.63,5.19,4.63,5.20,-5.20,-4.87,-6.25,-0.58,-0.57,-0.57
124.79,4.59,5.22,4.59,5.23,-5.23,-4.92,-6.26,-0.64,-0.64,-0.64
126.03,4.55,5.24,4.55,5.26,-5.26,-4.98,-6.26,-0.71,-0.71,-0.70
127.29,4.51,5.28,4.51,5.29,-5.29,-5.03,-6.26,-0.78,-0.78,-0.77
128.57,4.47,5.32,4.47,5.31,-5.31,-5.08,-6.24,-0.85,-0.84,-0.85
129.85,4.44,5.34,4.44,5.34,-5.34,-5.13,-6.21,-0.90,-0.90,-0.91
131.15,4.40,5.36,4.40,5.37,-5.37,-5.18,-6.17,-0.97,-0.97,-0.97
132.46,4.37,5.40,4.37,5.39,-5.39,-5.23,-6.12,-1.03,-1.03,-1.03
133.79,4.34,5.42,4.33,5.42,-5.42,-5.28,-6.07,-1.08,-1.08,-1.08
135.12,4.30,5.44,4.30,5.44,-5.44,-5.33,-6.00,-1.14,-1.14,-1.15
136.48,4.27,5.46,4.27,5.46,-5.46,-5.37,-5.93,-1.19,-1.19,-1.19
137.84,4.23,5.46,4.23,5.48,-5.48,-5.42,-5.86,-1.25,-1.24,-1.24
139.22,4.21,5.50,4.20,5.49,-5.49,-5.46,-5.77,-1.28,-1.29,-1.30
140.61,4.17,5.52,4.17,5.50,-5.50,-5.50,-5.69,-1.34,-1.33,-1.35
142.02,4.14,5.51,4.14,5.51,-5.51,-5.54,-5.60,-1.38,-1.38,-1.37
143.44,4.11,5.52,4.10,5.52,-5.52,-5.57,-5.50,-1.41,-1.42,-1.41
144.87,4.07,5.53,4.07,5.53,-5.53,-5.61,-5.40,-1.46,-1.46,-1.46
146.32,4.04,5.54,4.03,5.53,-5.53,-5.64,-5.30,-1.49,-1.50,-1.50
147.78,4.00,5.52,4.00,5.53,-5.53,-5.67,-5.20,-1.53,-1.53,-1.53
149.26,3.97,5.53,3.96,5.53,-5.53,-5.69,-5.10,-1.56,-1.57,-1.56
150.75,3.92,5.53,3.92,5.52,-5.52,-5.71,-5.00,-1.61,-1.61,-1.61
152.26,3.88,5.52,3.88,5.52,-5.52,-5.74,-4.90,-1.64,-1.64,-1.64
153.78,3.84,5.51,3.83,5.51,-5.51,-5.75,-4.79,-1.67,-1.68,-1.68
155.32,3.79,5.50,3.79,5.50,-5.50,-5.77,-4.69,-1.71,-1.71,-1.71
156.88,3.74,5.48,3.74,5.49,-5.49,-5.78,-4.59,-1.75,-1.75,-1.74
158.44,3.69,5.47,3.69,5.47,-5.47,-5.78,-4.49,-1.79,-1.78,-1.78
160.03,3.65,5.47,3.64,5.45,-5.45,-5.79,-4.40,-1.81,-1.82,-1.82
161.63,3.59,5.45,3.59,5.44,-5.44,-5.79,-4.30,-1.85,-1.85,-1.86
163.24,3.54,5.42,3.53,5.42,-5.42,-5.78,-4.21,-1.88,-1.88,-1.89
164.88,3.48,5.39,3.47,5.39,-5.39,-5.77,-4.12,-1.92,-1.92,-1.91
166.53,3.42,5.37,3.42,5.37,-5.37,-5.76,-4.03,-1.95,-1.96,-1.95
168.19,3.36,5.35,3.36,5.35,-5.35,-5.75,-3.95,-1.99,-1.99,-1.99
169.87,3.29,5.31,3.29,5.32,-5.32,-5.72,-3.86,-2.03,-2.03,-2.03
171.57,3.23,5.29,3.23,5.29,-5.29,-5.70,-3.78,-2.07,-2.07,-2.06
173.29,3.16,5.25,3.16,5.27,-5.27,-5.67,-3.71,-2.11,-2.11,-2.09
175.02,3.10,5.23,3.09,5.24,-5.24,-5.63,-3.63,-2.14,-2.14,-2.13
176.77,3.03,5.21,3.02,5.21,-5.21,-5.60,-3.56,-2.18,-2.18,-2.18
178.54,2.95,5.17,2.95,5.17,-5.17,-5.55,-3.49,-2.22,-2.22,-2.22
180.32,2.88,5.14,2.87,5.14,-5.14,-5.50,-3.43,-2.26,-2.26,-2.26
182.13,2.80,5.10,2.80,5.10,-5.10,-5.45,-3.37,-2.30,-2.30,-2.30
183.95,2.72,5.06,2.72,5.06,-5.06,-5.39,-3.31,-2.34,-2.34,-2.35
185.79,2.64,5.02,2.64,5.02,-5.02,-5.33,-3.25,-2.38,-2.38,-2.38
187.65,2.56,4.99,2.55,4.97,-4.97,-5.27,-3.19,-2.42,-2.42,-2.43
189.52,2.47,4.93,2.47,4.92,-4.92,-5.19,-3.14,-2.46,-2.46,-2.46
191.42,2.39,4.88,2.38,4.87,-4.87,-5.12,-3.09,-2.49,-2.49,-2.50
193.33,2.30,4.82,2.29,4.82,-4.82,-5.04,-3.04,-2.52,-2.53,-2.52
195.27,2.20,4.75,2.20,4.76,-4.76,-4.95,-3.00,-2.56,-2.56,-2.55
197.22,2.10,4.68,2.10,4.70,-4.70,-4.87,-2.95,-2.60,-2.59,-2.58
199.19,2.01,4.64,2.01,4.63,-4.63,-4.77,-2.91,-2.62,-2.62,-2.64
201.18,1.92,4.57,1.91,4.56,-4.56,-4.68,-2.87,-2.65,-2.65,-2.66
203.19,1.81,4.48,1.81,4.49,-4.49,-4.57,-2.83,-2.68,-2.68,-2.68
205.23,1.71,4.41,1.71,4.41,-4.41,-4.47,-2.80,-2.71,-2.70,-2.70
207.28,1.62,4.33,1.61,4.34,-4.34,-4.36,-2.76,-2.72,-2.73,-2.71
209.35,1.51,4.26,1.51,4.26,-4.26,-4.25,-2.73,-2.75,-2.75,-2.75
211.44,1.41,4.18,1.40,4.17,-4.17,-4.13,-2.69,-2.77,-2.77,-2.78
213.56,1.30,4.09,1.30,4.09,-4.09,-4.01,-2.66,-2.79,-2.79,-2.79
215.69,1.20,4.00,1.19,4.00,-4.00,-3.89,-2.62,-2.80,-2.81,-2.80
217.85,1.08,3.89,1.08,3.91,-3.91,-3.76,-2.59,-2.83,-2.82,-2.82
220.03,0.98,3.82,0.97,3.81,-3.81,-3.63,-2.55,-2.83,-2.83,-2.84
222.23,0.87,3.72,0.87,3.71,-3.71,-3.50,-2.52,-2.84,-2.84,-2.86
224.45,0.76,3.61,0.76,3.61,-3.61,-3.37,-2.48,-2.85,-2.85,-2.85
226.70,0.65,3.51,0.65,3.50,-3.50,-3.23,-2.44,-2.86,-2.86,-2.86
228.96,0.54,3.40,0.54,3.40,-3.40,-3.09,-2.40,-2.86,-2.86,-2.87
231.25,0.42,3.27,0.42,3.29,-3.29,-2.95,-2.36,-2.87,-2.86,-2.86
233.57,0.32,3.17,0.31,3.17,-3.17,-2.80,-2.32,-2.86,-2.86,-2.85
235.90,0.20,3.05,0.20,3.06,-3.06,-2.65,-2.28,-2.86,-2.85,-2.85
238.26,0.10,2.95,0.09,2.94,-2.94,-2.50,-2.23,-2.84,-2.84,-2.85
240.64,-0.02,2.81,-0.01,2.82,-2.82,-2.35,-2.18,-2.85,-2.84,-2.84
243.05,-0.12,2.70,-0.12,2.70,-2.70,-2.20,-2.12,-2.83,-2.82,-2.83
245.48,-0.24,2.56,-0.23,2.58,-2.58,-2.05,-2.07,-2.82,-2.81,-2.81
247.93,-0.35,2.44,-0.34,2.46,-2.46,-1.89,-2.01,-2.81,-2.79,-2.80
250.41,-0.46,2.32,-0.45,2.33,-2.33,-1.73,-1.94,-2.80,-2.78,-2.79
252.92,-0.57,2.18,-0.56,2.20,-2.20,-1.57,-1.88,-2.78,-2.76,-2.75
255.45,-0.69,2.04,-0.67,2.07,-2.07,-1.41,-1.81,-2.77,-2.74,-2.73
258.00,-0.80,1.91,-0.79,1.93,-1.93,-1.25,-1.73,-2.74,-2.72,-2.71
260.58,-0.92,1.78,-0.91,1.79,-1.79,-1.09,-1.65,-2.71,-2.70,-2.70
263.19,-1.05,1.62,-1.05,1.63,-1.63,-0.93,-1.57,-2.68,-2.68,-2.68
265.82,-1.18,1.47,-1.20,1.45,-1.45,-0.76,-1.49,-2.63,-2.65,-2.66
268.48,-1.33,1.30,-1.37,1.26,-1.26,-0.60,-1.40,-2.59,-2.63,-2.63
271.16,-1.50,1.10,-1.56,1.05,-1.05,-0.43,-1.31,-2.55,-2.61,-2.60
273.87,-1.69,0.89,-1.76,0.82,-0.82,-0.27,-1.22,-2.52,-2.59,-2.59
276.61,-1.89,0.66,-1.98,0.58,-0.58,-0.10,-1.12,-2.47,-2.56,-2.55
279.38,-2.13,0.41,-2.22,0.32,-0.32,0.06,-1.02,-2.45,-2.54,-2.54
282.17,-2.39,0.12,-2.47,0.04,-0.04,0.23,-0.92,-2.44,-2.52,-2.52
284.99,-2.68,-0.19,-2.73,-0.24,0.24,0.40,-0.81,-2.44,-2.49,-2.49
287.84,-2.98,-0.52,-3.00,-0.54,0.54,0.56,-0.71,-2.45,-2.46,-2.47
290.72,-3.27,-0.84,-3.26,-0.83,0.83,0.73,-0.60,-2.45,-2.44,-2.43
293.63,-3.57,-1.16,-3.52,-1.11,1.11,0.90,-0.48,-2.46,-2.41,-2.42
296.57,-3.85,-1.47,-3.77,-1.39,1.39,1.06,-0.37,-2.46,-2.38,-2.38
299.53,-4.10,-1.75,-4.01,-1.66,1.66,1.23,-0.26,-2.45,-2.35,-2.36
302.53,-4.33,-2.00,-4.23,-1.91,1.91,1.39,-0.14,-2.43,-2.32,-2.33
305.55,-4.52,-2.24,-4.43,-2.14,2.14,1.56,-0.02,-2.39,-2.29,-2.29
308.61,-4.68,-2.42,-4.61,-2.35,2.35,1.72,0.10,-2.33,-2.26,-2.26
311.69,-4.82,-2.60,-4.77,-2.55,2.55,1.88,0.22,-2.28,-2.23,-2.22
314.81,-4.93,-2.75,-4.92,-2.72,2.72,2.04,0.35,-2.21,-2.20,-2.19
317.96,-5.03,-2.87,-5.05,-2.88,2.88,2.20,0.47,-2.15,-2.17,-2.16
321.14,-5.12,-2.99,-5.17,-3.03,3.03,2.36,0.60,-2.09,-2.14,-2.14
324.35,-5.22,-3.11,-5.28,-3.17,3.17,2.51,0.72,-2.05,-2.11,-2.11
327.59,-5.32,-3.25,-5.38,-3.30,3.30,2.67,0.85,-2.02,-2.08,-2.07
330.87,-5.42,-3.38,-5.48,-3.43,3.43,2.82,0.98,-1.99,-2.05,-2.05
334.18,-5.53,-3.50,-5.58,-3.56,3.56,2.97,1.11,-1.98,-2.03,-2.03
337.52,-5.64,-3.64,-5.68,-3.68,3.68,3.12,1.25,-1.97,-2.00,-2.00
340.90,-5.76,-3.79,-5.78,-3.80,3.80,3.26,1.38,-1.97,-1.98,-1.98
344.30,-5.87,-3.92,-5.87,-3.92,3.92,3.40,1.52,-1.96,-1.96,-1.96
347.75,-5.98,-4.05,-5.97,-4.03,4.03,3.54,1.65,-1.95,-1.94,-1.93
351.23,-6.07,-4.16,-6.05,-4.14,4.14,3.67,1.79,-1.94,-1.92,-1.91
354.74,-6.16,-4.27,-6.14,-4.24,4.24,3.81,1.93,-1.92,-1.90,-1.90
358.28,-6.25,-4.38,-6.21,-4.33,4.33,3.93,2.07,-1.92,-1.88,-1.88
361.87,-6.31,-4.45,-6.28,-4.42,4.42,4.06,2.22,-1.89,-1.86,-1.86
365.49,-6.36,-4.53,-6.34,-4.50,4.50,4.17,2.36,-1.87,-1.84,-1.83
369.14,-6.40,-4.58,-6.39,-4.57,4.57,4.29,2.51,-1.84,-1.82,-1.83
372.83,-6.43,-4.63,-6.43,-4.63,4.63,4.40,2.65,-1.80,-1.80,-1.81
376.56,-6.45,-4.66,-6.47,-4.69,4.69,4.50,2.80,-1.77,-1.78,-1.79
380.33,-6.48,-4.72,-6.50,-4.74,4.74,4.60,2.95,-1.75,-1.76,-1.76
384.13,-6.50,-4.76,-6.53,-4.78,4.78,4.70,3.10,-1.72,-1.74,-1.74
387.97,-6.53,-4.81,-6.55,-4.83,4.83,4.79,3.26,-1.71,-1.72,-1.72
391.85,-6.55,-4.85,-6.57,-4.87,4.87,4.87,3.41,-1.69,-1.70,-1.71
395.77,-6.58,-4.91,-6.59,-4.91,4.91,4.95,3.56,-1.68,-1.68,-1.68
399.73,-6.59,-4.93,-6.60,-4.94,4.94,5.02,3.72,-1.65,-1.66,-1.66
403.72,-6.61,-4.97,-6.62,-4.98,4.98,5.08,3.87,-1.64,-1.64,-1.64
407.76,-6.63,-5.01,-6.63,-5.01,5.01,5.14,4.03,-1.62,-1.62,-1.62
411.84,-6.65,-5.06,-6.64,-5.04,5.04,5.19,4.18,-1.61,-1.60,-1.59
415.96,-6.65,-5.08,-6.65,-5.07,5.07,5.24,4.33,-1.58,-1.58,-1.58
420.12,-6.65,-5.10,-6.65,-5.10,5.10,5.28,4.49,-1.56,-1.55,-1.56
424.32,-6.65,-5.13,-6.65,-5.12,5.12,5.31,4.64,-1.54,-1.53,-1.53
428.56,-6.64,-5.13,-6.65,-5.14,5.14,5.34,4.78,-1.51,-1.51,-1.51
432.85,-6.63,-5.14,-6.64,-5.15,5.15,5.36,4.93,-1.48,-1.49,-1.49
437.18,-6.62,-5.16,-6.62,-5.16,5.16,5.38,5.07,-1.46,-1.46,-1.46
441.55,-6.60,-5.17,-6.60,-5.17,5.17,5.39,5.21,-1.44,-1.44,-1.43
445.96,-6.58,-5.17,-6.58,-5.17,5.17,5.39,5.34,-1.41,-1.41,-1.41
450.42,-6.55,-5.16,-6.56,-5.17,5.17,5.39,5.47,-1.38,-1.39,-1.39
454.93,-6.52,-5.17,-6.53,-5.17,5.17,5.38,5.58,-1.36,-1.36,-1.36
459.48,-6.49,-5.16,-6.49,-5.16,5.16,5.37,5.69,-1.33,-1.33,-1.34
464.07,-6.45,-5.15,-6.45,-5.15,5.15,5.35,5.80,-1.30,-1.30,-1.31
468.71,-6.41,-5.15,-6.41,-5.13,5.13,5.33,5.89,-1.28,-1.28,-1.27
473.40,-6.36,-5.12,-6.36,-5.12,5.12,5.30,5.97,-1.25,-1.25,-1.25
478.13,-6.31,-5.09,-6.31,-5.09,5.09,5.26,6.04,-1.22,-1.22,-1.22
482.91,-6.26,-5.07,-6.26,-5.07,5.07,5.23,6.10,-1.20,-1.19,-1.19
487.74,-6.20,-5.04,-6.20,-5.04,5.04,5.19,6.15,-1.17,-1.16,-1.16
492.62,-6.13,-5.00,-6.14,-5.00,5.00,5.14,6.19,-1.13,-1.14,-1.13
497.55,-6.06,-4.95,-6.07,-4.96,4.96,5.09,6.21,-1.10,-1.11,-1.11
