frequency,raw,error,smoothed,error_smoothed,equalization,parametric_eq,fixed_band_eq,equalized_raw,equalized_smoothed,target
20.00,-4.28,-14.67,-4.27,-14.66,14.70,14.15,5.21,10.42,10.42,10.39
20.20,-4.19,-14.62,-4.19,-14.62,14.63,14.13,5.34,10.44,10.44,10.43
20.40,-4.09,-14.55,-4.10,-14.56,14.56,14.10,5.48,10.47,10.46,10.46
20.61,-4.00,-14.49,-4.00,-14.50,14.48,14.06,5.61,10.48,10.48,10.49
20.81,-3.90,-14.43,-3.90,-14.43,14.40,14.01,5.75,10.50,10.49,10.53
21.02,-3.81,-14.38,-3.79,-14.35,14.31,13.96,5.90,10.50,10.52,10.57
21.23,-3.66,-14.24,-3.66,-14.25,14.21,13.91,6.04,10.55,10.55,10.58
21.44,-3.52,-14.12,-3.52,-14.12,14.11,13.84,6.20,10.60,10.59,10.60
21.66,-3.37,-13.99,-3.37,-13.98,14.00,13.78,6.35,10.63,10.63,10.62
21.87,-3.22,-13.85,-3.22,-13.85,13.88,13.70,6.51,10.66,10.65,10.63
22.09,-3.09,-13.73,-3.09,-13.73,13.76,13.62,6.68,10.67,10.67,10.64
22.31,-2.98,-13.62,-2.97,-13.62,13.63,13.54,6.85,10.66,10.66,10.64
22.54,-2.86,-13.51,-2.86,-13.51,13.51,13.45,7.02,10.65,10.65,10.65
22.76,-2.75,-13.41,-2.75,-13.41,13.39,13.36,7.20,10.64,10.63,10.66
22.99,-2.64,-13.30,-2.63,-13.29,13.26,13.26,7.38,10.62,10.64,10.66
23.22,-2.49,-13.16,-2.49,-13.16,13.14,13.16,7.57,10.65,10.65,10.67
23.45,-2.34,-13.02,-2.34,-13.02,13.02,13.05,7.77,10.68,10.68,10.68
23.69,-2.19,-12.88,-2.19,-12.88,12.90,12.94,7.96,10.71,10.71,10.69
23.92,-2.05,-12.75,-2.05,-12.75,12.78,12.83,8.17,10.73,10.73,10.70
24.16,-1.93,-12.64,-1.93,-12.64,12.66,12.72,8.37,10.73,10.73,10.71
24.40,-1.83,-12.55,-1.83,-12.54,12.54,12.60,8.59,10.71,10.72,10.72
24.65,-1.73,-12.44,-1.73,-12.44,12.42,12.48,8.80,10.69,10.70,10.71
24.89,-1.62,-12.33,-1.62,-12.33,12.31,12.36,9.03,10.69,10.69,10.71
25.14,-1.51,-12.22,-1.50,-12.21,12.19,12.23,9.25,10.69,10.69,10.71
25.39,-1.38,-12.09,-1.38,-12.09,12.08,12.11,9.49,10.70,10.70,10.71
25.65,-1.25,-11.96,-1.25,-11.96,11.97,11.98,9.72,10.72,10.71,10.71
25.91,-1.13,-11.82,-1.13,-11.83,11.85,11.85,9.96,10.72,10.72,10.69
26.16,-1.01,-11.71,-1.01,-11.71,11.74,11.72,10.20,10.73,10.72,10.70
26.43,-0.91,-11.61,-0.91,-11.61,11.62,11.59,10.44,10.71,10.71,10.70
26.69,-0.81,-11.51,-0.81,-11.51,11.50,11.45,10.69,10.69,10.69,10.70
26.96,-0.71,-11.41,-0.70,-11.40,11.38,11.32,10.94,10.67,10.68,10.70
27.23,-0.58,-11.28,-0.58,-11.28,11.25,11.18,11.18,10.67,10.68,10.70
27.50,-0.44,-11.14,-0.44,-11.14,11.13,11.05,11.42,10.69,10.68,10.70
27.77,-0.30,-10.99,-0.30,-10.99,11.00,10.91,11.66,10.70,10.69,10.69
28.05,-0.17,-10.86,-0.16,-10.85,10.86,10.78,11.89,10.69,10.70,10.69
28.33,-0.03,-10.70,-0.03,-10.71,10.72,10.64,12.12,10.69,10.69,10.67
28.62,0.10,-10.58,0.10,-10.58,10.58,10.51,12.33,10.68,10.68,10.68
28.90,0.23,-10.45,0.23,-10.44,10.45,10.37,12.53,10.68,10.68,10.68
29.19,0.36,-10.31,0.36,-10.32,10.31,10.23,12.72,10.67,10.67,10.67
29.48,0.49,-10.19,0.49,-10.19,10.18,10.10,12.88,10.67,10.67,10.68
29.78,0.62,-10.06,0.62,-10.06,10.05,9.96,13.02,10.67,10.67,10.68
30.08,0.75,-9.93,0.75,-9.93,9.93,9.82,13.14,10.67,10.67,10.68
30.38,0.87,-9.79,0.87,-9.79,9.80,9.69,13.23,10.67,10.68,10.66
30.68,0.99,-9.67,0.99,-9.66,9.69,9.55,13.28,10.68,10.68,10.66
30.99,1.11,-9.54,1.10,-9.55,9.57,9.42,13.31,10.68,10.67,10.65
31.30,1.21,-9.44,1.20,-9.45,9.45,9.28,13.30,10.66,10.65,10.65
31.61,1.30,-9.35,1.30,-9.34,9.33,9.15,13.27,10.63,10.63,10.65
31.93,1.40,-9.23,1.41,-9.22,9.20,9.01,13.19,10.60,10.61,10.63
32.24,1.53,-9.09,1.53,-9.09,9.06,8.88,13.09,10.60,10.59,10.62
32.57,1.67,-8.95,1.67,-8.95,8.93,8.75,12.96,10.60,10.59,10.62
32.89,1.81,-8.81,1.82,-8.80,8.79,8.62,12.81,10.60,10.61,10.62
33.22,1.97,-8.65,1.97,-8.64,8.66,8.48,12.63,10.63,10.64,10.62
33.55,2.12,-8.49,2.13,-8.48,8.53,8.35,12.43,10.65,10.66,10.61
33.89,2.28,-8.33,2.26,-8.35,8.40,8.22,12.21,10.68,10.66,10.61
34.23,2.37,-8.24,2.36,-8.25,8.27,8.09,11.98,10.64,10.62,10.61
34.57,2.43,-8.17,2.43,-8.17,8.14,7.96,11.73,10.57,10.57,10.60
34.92,2.49,-8.10,2.52,-8.08,8.01,7.83,11.48,10.50,10.53,10.59
35.27,2.64,-7.95,2.65,-7.93,7.89,7.70,11.22,10.53,10.54,10.59
35.62,2.82,-7.76,2.81,-7.76,7.77,7.58,10.95,10.59,10.58,10.58
35.97,3.00,-7.57,2.97,-7.60,7.65,7.45,10.68,10.65,10.62,10.57
36.33,3.09,-7.48,3.09,-7.47,7.53,7.32,10.41,10.62,10.62,10.57
36.70,3.18,-7.39,3.19,-7.37,7.40,7.20,10.14,10.58,10.59,10.57
37.06,3.27,-7.28,3.27,-7.29,7.27,7.07,9.88,10.54,10.54,10.55
37.43,3.37,-7.18,3.37,-7.18,7.14,6.95,9.61,10.51,10.51,10.55
37.81,3.47,-7.07,3.48,-7.06,7.02,6.82,9.34,10.49,10.49,10.54
38.19,3.60,-6.93,3.61,-6.92,6.90,6.70,9.08,10.50,10.51,10.53
38.57,3.75,-6.78,3.75,-6.77,6.78,6.58,8.82,10.53,10.54,10.53
38.95,3.91,-6.61,3.89,-6.62,6.67,6.45,8.57,10.58,10.56,10.52
39.34,4.01,-6.50,4.01,-6.50,6.54,6.33,8.32,10.55,10.55,10.51
39.74,4.10,-6.39,4.11,-6.39,6.41,6.21,8.07,10.51,10.52,10.49
40.14,4.19,-6.31,4.18,-6.31,6.29,6.09,7.83,10.48,10.47,10.50
40.54,4.28,-6.21,4.28,-6.21,6.17,5.97,7.59,10.45,10.45,10.49
40.94,4.37,-6.12,4.40,-6.09,6.06,5.86,7.35,10.43,10.46,10.49
41.35,4.53,-5.94,4.54,-5.93,5.95,5.74,7.12,10.48,10.49,10.47
41.76,4.69,-5.76,4.67,-5.78,5.83,5.62,6.90,10.52,10.51,10.45
42.18,4.80,-5.64,4.76,-5.67,5.70,5.50,6.68,10.50,10.46,10.44
42.60,4.82,-5.59,4.83,-5.59,5.55,5.39,6.46,10.37,10.38,10.41
43.03,4.85,-5.55,4.91,-5.48,5.41,5.27,6.25,10.26,10.32,10.40
43.46,5.05,-5.32,5.05,-5.31,5.27,5.16,6.04,10.32,10.31,10.37
43.90,5.25,-5.07,5.22,-5.11,5.13,5.04,5.83,10.38,10.34,10.32
44.33,5.37,-4.92,5.37,-4.92,4.99,4.93,5.63,10.36,10.36,10.29
44.78,5.47,-4.79,5.47,-4.79,4.85,4.82,5.43,10.32,10.32,10.26
45.23,5.54,-4.69,5.52,-4.71,4.71,4.71,5.24,10.25,10.23,10.23
45.68,5.57,-4.63,5.58,-4.62,4.58,4.59,5.05,10.15,10.16,10.20
46.13,5.64,-4.54,5.69,-4.49,4.46,4.48,4.86,10.10,10.15,10.18
46.60,5.82,-4.35,5.81,-4.35,4.36,4.37,4.68,10.18,10.17,10.17
47.06,5.98,-4.17,5.93,-4.23,4.26,4.27,4.50,10.24,10.19,10.15
47.53,6.01,-4.14,6.01,-4.14,4.16,4.16,4.32,10.17,10.18,10.15
48.01,6.03,-4.12,6.06,-4.08,4.07,4.05,4.15,10.10,10.13,10.15
48.49,6.12,-4.01,6.12,-4.01,3.98,3.94,3.98,10.10,10.09,10.13
48.97,6.21,-3.91,6.22,-3.90,3.90,3.83,3.81,10.11,10.11,10.12
49.46,6.32,-3.79,6.32,-3.79,3.82,3.73,3.64,10.14,10.15,10.11
49.96,6.43,-3.68,6.40,-3.71,3.75,3.62,3.48,10.18,10.15,10.11
50.46,6.46,-3.66,6.46,-3.66,3.67,3.52,3.32,10.13,10.13,10.12
50.96,6.48,-3.65,6.51,-3.62,3.59,3.41,3.17,10.07,10.09,10.13
51.47,6.57,-3.55,6.57,-3.55,3.50,3.31,3.01,10.07,10.07,10.12
51.99,6.66,-3.44,6.67,-3.43,3.42,3.21,2.86,10.08,10.09,10.10
52.51,6.78,-3.31,6.78,-3.31,3.33,3.11,2.71,10.11,10.11,10.09
53.03,6.89,-3.17,6.85,-3.22,3.24,3.00,2.57,10.13,10.08,10.06
53.56,6.89,-3.14,6.90,-3.13,3.13,2.90,2.43,10.02,10.04,10.03
54.10,6.91,-3.08,6.96,-3.03,3.03,2.80,2.29,9.94,9.99,9.99
54.64,7.04,-2.90,7.02,-2.92,2.91,2.70,2.15,9.95,9.93,9.94
55.18,7.12,-2.77,7.08,-2.81,2.80,2.60,2.02,9.92,9.88,9.89
55.74,7.12,-2.72,7.16,-2.69,2.69,2.51,1.89,9.81,9.84,9.84
56.29,7.19,-2.60,7.22,-2.57,2.57,2.41,1.77,9.76,9.79,9.79
56.86,7.32,-2.41,7.27,-2.46,2.45,2.31,1.64,9.77,9.73,9.73
57.42,7.35,-2.31,7.34,-2.33,2.33,2.22,1.53,9.68,9.67,9.66
58.00,7.35,-2.25,7.41,-2.19,2.21,2.12,1.41,9.56,9.62,9.60
58.58,7.48,-2.06,7.47,-2.08,2.08,2.02,1.30,9.56,9.54,9.54
59.16,7.58,-1.91,7.53,-1.95,1.94,1.93,1.19,9.52,9.47,9.49
59.76,7.58,-1.85,7.61,-1.82,1.80,1.84,1.09,9.38,9.40,9.43
60.35,7.66,-1.70,7.68,-1.68,1.65,1.74,0.99,9.31,9.34,9.36
60.96,7.79,-1.52,7.79,-1.51,1.50,1.65,0.89,9.29,9.30,9.31
61.57,7.93,-1.31,7.91,-1.33,1.36,1.56,0.80,9.29,9.26,9.24
62.18,8.03,-1.14,8.00,-1.18,1.21,1.47,0.72,9.24,9.20,9.17
62.80,8.03,-1.10,8.08,-1.05,1.06,1.38,0.63,9.09,9.13,9.13
63.43,8.13,-0.94,8.15,-0.93,0.92,1.29,0.55,9.05,9.06,9.07
64.07,8.26,-0.77,8.22,-0.81,0.79,1.20,0.48,9.05,9.01,9.03
64.71,8.30,-0.68,8.32,-0.66,0.67,1.11,0.40,8.97,8.99,8.98
65.35,8.37,-0.56,8.39,-0.54,0.57,1.03,0.33,8.94,8.96,8.93
66.01,8.49,-0.41,8.45,-0.45,0.47,0.94,0.27,8.96,8.91,8.90
66.67,8.49,-0.37,8.50,-0.36,0.37,0.85,0.20,8.86,8.86,8.86
67.33,8.52,-0.31,8.55,-0.29,0.27,0.77,0.14,8.79,8.82,8.83
68.01,8.59,-0.21,8.60,-0.20,0.18,0.68,0.09,8.77,8.78,8.80
68.69,8.68,-0.09,8.65,-0.11,0.10,0.60,0.03,8.78,8.75,8.77
69.37,8.72,-0.01,8.72,-0.02,0.01,0.52,-0.02,8.73,8.73,8.73
70.07,8.74,0.04,8.79,0.09,-0.07,0.44,-0.07,8.67,8.72,8.70
70.77,8.89,0.20,8.86,0.18,-0.16,0.35,-0.12,8.73,8.70,8.69
71.48,8.94,0.29,8.90,0.25,-0.26,0.27,-0.16,8.68,8.65,8.65
72.19,8.94,0.31,8.95,0.33,-0.35,0.19,-0.21,8.59,8.60,8.63
72.91,8.94,0.35,9.00,0.41,-0.43,0.11,-0.25,8.51,8.57,8.59
73.64,9.09,0.53,9.07,0.51,-0.51,0.04,-0.29,8.58,8.56,8.56
74.38,9.17,0.64,9.14,0.61,-0.57,-0.04,-0.34,8.60,8.57,8.53
75.12,9.17,0.67,9.18,0.68,-0.63,-0.12,-0.38,8.55,8.56,8.50
75.87,9.17,0.70,9.18,0.71,-0.68,-0.19,-0.42,8.49,8.50,8.47
76.63,9.17,0.73,9.17,0.73,-0.74,-0.27,-0.46,8.43,8.43,8.44
77.40,9.17,0.76,9.15,0.75,-0.80,-0.34,-0.50,8.37,8.36,8.41
78.17,9.17,0.79,9.17,0.79,-0.85,-0.42,-0.54,8.32,8.32,8.38
78.95,9.17,0.80,9.23,0.87,-0.90,-0.49,-0.58,8.27,8.33,8.37
79.74,9.34,0.99,9.30,0.96,-0.95,-0.56,-0.62,8.39,8.35,8.35
80.54,9.40,1.07,9.37,1.04,-1.00,-0.63,-0.67,8.40,8.38,8.33
81.35,9.40,1.09,9.41,1.10,-1.04,-0.70,-0.71,8.36,8.37,8.31
82.16,9.40,1.09,9.41,1.10,-1.08,-0.77,-0.75,8.32,8.33,8.31
82.98,9.40,1.09,9.40,1.10,-1.10,-0.84,-0.80,8.30,8.30,8.31
83.81,9.40,1.10,9.40,1.10,-1.12,-0.91,-0.84,8.28,8.28,8.30
84.65,9.40,1.11,9.40,1.10,-1.12,-0.98,-0.89,8.28,8.28,8.29
85.50,9.40,1.10,9.40,1.11,-1.11,-1.04,-0.93,8.29,8.29,8.30
86.35,9.40,1.10,9.40,1.10,-1.10,-1.11,-0.98,8.30,8.30,8.30
87.22,9.40,1.10,9.40,1.10,-1.10,-1.17,-1.03,8.30,8.30,8.30
88.09,9.40,1.10,9.40,1.09,-1.09,-1.24,-1.08,8.31,8.31,8.30
88.97,9.40,1.08,9.40,1.09,-1.08,-1.30,-1.13,8.32,8.32,8.32
89.86,9.40,1.08,9.40,1.09,-1.08,-1.36,-1.19,8.32,8.32,8.32
90.76,9.40,1.10,9.40,1.09,-1.08,-1.42,-1.24,8.32,8.32,8.30
91.66,9.40,1.09,9.40,1.10,-1.10,-1.48,-1.30,8.30,8.30,8.31
92.58,9.40,1.12,9.39,1.10,-1.13,-1.54,-1.35,8.27,8.27,8.28
93.51,9.40,1.11,9.39,1.11,-1.17,-1.60,-1.41,8.24,8.23,8.29
94.44,9.40,1.13,9.44,1.17,-1.21,-1.66,-1.47,8.19,8.23,8.27
95.39,9.50,1.24,9.51,1.26,-1.26,-1.71,-1.53,8.24,8.25,8.26
96.34,9.63,1.41,9.58,1.36,-1.32,-1.77,-1.59,8.31,8.26,8.22
97.30,9.63,1.43,9.63,1.43,-1.37,-1.82,-1.65,8.26,8.26,8.20
98.28,9.63,1.45,9.64,1.47,-1.43,-1.88,-1.72,8.20,8.21,8.18
99.26,9.63,1.48,9.63,1.48,-1.48,-1.93,-1.78,8.15,8.15,8.15
100.25,9.63,1.51,9.63,1.51,-1.52,-1.98,-1.85,8.11,8.11,8.12
101.25,9.63,1.54,9.63,1.54,-1.56,-2.03,-1.91,8.07,8.07,8.09
102.27,9.63,1.58,9.63,1.58,-1.59,-2.08,-1.98,8.04,8.04,8.05
103.29,9.63,1.63,9.63,1.63,-1.63,-2.13,-2.04,8.00,8.00,8.00
104.32,9.63,1.67,9.63,1.67,-1.67,-2.18,-2.11,7.96,7.96,7.96
105.37,9.63,1.72,9.63,1.72,-1.73,-2.23,-2.17,7.91,7.91,7.91
106.42,9.63,1.77,9.63,1.78,-1.78,-2.27,-2.24,7.85,7.85,7.86
107.48,9.63,1.84,9.63,1.84,-1.85,-2.32,-2.30,7.78,7.78,7.79
108.56,9.63,1.92,9.63,1.92,-1.91,-2.36,-2.36,7.72,7.72,7.71
109.64,9.63,1.99,9.63,1.99,-1.98,-2.41,-2.43,7.65,7.65,7.64
110.74,9.63,2.05,9.63,2.06,-2.06,-2.45,-2.49,7.58,7.58,7.58
111.85,9.63,2.12,9.63,2.13,-2.13,-2.49,-2.55,7.50,7.50,7.51
112.97,9.63,2.21,9.63,2.20,-2.21,-2.53,-2.60,7.42,7.42,7.42
114.10,9.63,2.27,9.63,2.28,-2.28,-2.57,-2.66,7.35,7.35,7.36
115.24,9.63,2.35,9.63,2.35,-2.35,-2.61,-2.71,7.28,7.28,7.28
116.39,9.63,2.43,9.63,2.43,-2.43,-2.65,-2.76,7.20,7.20,7.20
117.55,9.63,2.49,9.63,2.49,-2.50,-2.68,-2.80,7.13,7.13,7.14
118.73,9.63,2.56,9.63,2.56,-2.56,-2.72,-2.85,7.07,7.07,7.07
119.92,9.63,2.60,9.63,2.61,-2.61,-2.75,-2.88,7.02,7.02,7.03
121.12,9.63,2.66,9.63,2.66,-2.65,-2.79,-2.92,6.98,6.98,6.97
122.33,9.63,2.70,9.65,2.71,-2.67,-2.82,-2.95,6.96,6.98,6.93
123.55,9.63,2.72,9.63,2.73,-2.68,-2.85,-2.98,6.95,6.95,6.91
124.79,9.63,2.76,9.58,2.71,-2.68,-2.88,-3.00,6.95,6.89,6.87
126.03,9.47,2.64,9.51,2.67,-2.68,-2.91,-3.02,6.79,6.82,6.83
127.29,9.42,2.62,9.44,2.64,-2.68,-2.94,-3.03,6.74,6.76,6.80
128.57,9.40,2.64,9.39,2.63,-2.68,-2.97,-3.04,6.72,6.71,6.76
129.85,9.40,2.67,9.40,2.67,-2.69,-2.99,-3.05,6.71,6.71,6.73
131.15,9.40,2.70,9.40,2.70,-2.70,-3.02,-3.06,6.70,6.70,6.70
132.46,9.40,2.73,9.40,2.73,-2.72,-3.05,-3.06,6.68,6.68,6.67
133.79,9.40,2.76,9.40,2.77,-2.76,-3.07,-3.05,6.64,6.64,6.64
135.12,9.40,2.81,9.40,2.80,-2.81,-3.09,-3.05,6.59,6.59,6.59
136.48,9.40,2.84,9.40,2.84,-2.85,-3.11,-3.04,6.55,6.55,6.56
137.84,9.40,2.87,9.40,2.88,-2.89,-3.13,-3.02,6.51,6.51,6.53
139.22,9.40,2.92,9.40,2.92,-2.91,-3.15,-3.01,6.49,6.49,6.48
140.61,9.40,2.97,9.42,2.98,-2.92,-3.17,-3.00,6.48,6.49,6.43
142.02,9.40,2.99,9.39,2.99,-2.93,-3.19,-2.98,6.47,6.46,6.41
143.44,9.39,3.02,9.33,2.97,-2.94,-3.21,-2.96,6.45,6.39,6.37
144.87,9.21,2.88,9.26,2.93,-2.95,-3.23,-2.94,6.26,6.31,6.33
146.32,9.18,2.90,9.20,2.91,-2.97,-3.24,-2.92,6.22,6.23,6.28
147.78,9.17,2.93,9.16,2.93,-2.99,-3.26,-2.90,6.18,6.17,6.24
149.26,9.17,3.00,9.17,3.00,-3.03,-3.27,-2.88,6.15,6.14,6.17
150.75,9.17,3.08,9.17,3.07,-3.07,-3.28,-2.86,6.10,6.10,6.09
152.26,9.17,3.15,9.17,3.15,-3.14,-3.29,-2.84,6.03,6.03,6.02
153.78,9.17,3.22,9.17,3.23,-3.22,-3.30,-2.82,5.95,5.95,5.95
155.32,9.17,3.32,9.17,3.31,-3.32,-3.31,-2.81,5.86,5.86,5.85
156.88,9.17,3.39,9.17,3.39,-3.40,-3.32,-2.79,5.77,5.77,5.78
158.44,9.17,3.46,9.17,3.47,-3.48,-3.33,-2.77,5.70,5.70,5.71
160.03,9.17,3.54,9.17,3.54,-3.53,-3.34,-2.76,5.64,5.64,5.63
161.63,9.17,3.60,9.19,3.62,-3.57,-3.34,-2.75,5.60,5.62,5.57
163.24,9.17,3.65,9.17,3.65,-3.59,-3.35,-2.74,5.58,5.58,5.52
164.88,9.17,3.69,9.11,3.63,-3.60,-3.35,-2.73,5.57,5.51,5.48
166.53,8.99,3.55,9.03,3.59,-3.60,-3.36,-2.72,5.39,5.43,5.44
168.19,8.94,3.53,8.97,3.55,-3.59,-3.36,-2.72,5.35,5.37,5.41
169.87,8.94,3.54,8.93,3.53,-3.58,-3.36,-2.72,5.36,5.35,5.40
171.57,8.94,3.55,8.94,3.54,-3.56,-3.36,-2.72,5.38,5.38,5.39
173.29,8.94,3.55,8.94,3.55,-3.54,-3.36,-2.72,5.40,5.40,5.39
175.02,8.94,3.53,8.94,3.54,-3.53,-3.36,-2.72,5.41,5.41,5.41
176.77,8.94,3.54,8.94,3.54,-3.52,-3.36,-2.73,5.42,5.42,5.40
178.54,8.94,3.53,8.94,3.53,-3.52,-3.36,-2.74,5.42,5.42,5.41
180.32,8.94,3.52,8.94,3.53,-3.53,-3.36,-2.75,5.41,5.41,5.42
182.13,8.94,3.52,8.94,3.52,-3.53,-3.35,-2.76,5.41,5.41,5.42
183.95,8.94,3.52,8.94,3.52,-3.53,-3.35,-2.78,5.41,5.41,5.42
185.79,8.94,3.53,8.94,3.53,-3.54,-3.34,-2.79,5.40,5.40,5.41
187.65,8.94,3.55,8.94,3.55,-3.55,-3.34,-2.81,5.39,5.39,5.39
189.52,8.94,3.57,8.94,3.57,-3.57,-3.33,-2.84,5.37,5.37,5.37
191.42,8.94,3.59,8.94,3.59,-3.59,-3.33,-2.86,5.35,5.35,5.35
193.33,8.94,3.61,8.94,3.60,-3.61,-3.32,-2.88,5.33,5.33,5.33
195.27,8.94,3.61,8.94,3.62,-3.63,-3.31,-2.91,5.31,5.31,5.33
197.22,8.94,3.63,8.94,3.64,-3.63,-3.30,-2.94,5.31,5.31,5.31
199.19,8.94,3.67,8.95,3.66,-3.63,-3.29,-2.97,5.31,5.32,5.27
201.18,8.94,3.67,8.93,3.67,-3.62,-3.28,-3.00,5.32,5.31,5.27
203.19,8.90,3.65,8.87,3.63,-3.60,-3.27,-3.04,5.30,5.27,5.25
205.23,8.78,3.56,8.80,3.57,-3.59,-3.26,-3.07,5.19,5.22,5.22
207.28,8.72,3.50,8.74,3.53,-3.57,-3.24,-3.10,5.15,5.17,5.22
209.35,8.72,3.52,8.71,3.52,-3.56,-3.23,-3.14,5.16,5.15,5.20
211.44,8.72,3.55,8.72,3.53,-3.55,-3.22,-3.17,5.17,5.17,5.17
213.56,8.72,3.55,8.72,3.55,-3.55,-3.20,-3.21,5.17,5.17,5.17
215.69,8.72,3.55,8.72,3.56,-3.56,-3.19,-3.24,5.17,5.17,5.17
217.85,8.72,3.58,8.72,3.58,-3.57,-3.17,-3.28,5.15,5.15,5.14
220.03,8.72,3.59,8.72,3.59,-3.60,-3.15,-3.31,5.12,5.12,5.13
222.23,8.72,3.61,8.72,3.61,-3.61,-3.14,-3.34,5.11,5.11,5.11
224.45,8.72,3.61,8.72,3.61,-3.62,-3.12,-3.37,5.10,5.10,5.11
226.70,8.72,3.61,8.72,3.62,-3.61,-3.10,-3.40,5.11,5.12,5.11
228.96,8.72,3.62,8.74,3.63,-3.59,-3.08,-3.42,5.13,5.15,5.10
231.25,8.72,3.62,8.70,3.60,-3.56,-3.07,-3.44,5.16,5.14,5.10
233.57,8.68,3.59,8.63,3.55,-3.53,-3.05,-3.46,5.15,5.10,5.09
235.90,8.50,3.42,8.56,3.48,-3.51,-3.03,-3.48,5.00,5.05,5.08
238.26,8.49,3.41,8.50,3.42,-3.48,-3.01,-3.49,5.01,5.02,5.08
240.64,8.49,3.41,8.47,3.39,-3.45,-2.99,-3.50,5.04,5.03,5.08
243.05,8.49,3.40,8.49,3.40,-3.42,-2.96,-3.50,5.08,5.07,5.09
245.48,8.49,3.39,8.50,3.40,-3.38,-2.94,-3.50,5.11,5.11,5.10
247.93,8.49,3.38,8.50,3.40,-3.35,-2.92,-3.49,5.14,5.15,5.11
250.41,8.49,3.39,8.47,3.36,-3.32,-2.90,-3.48,5.17,5.15,5.10
252.92,8.44,3.33,8.41,3.29,-3.28,-2.88,-3.47,5.16,5.13,5.11
255.45,8.29,3.15,8.34,3.21,-3.23,-2.85,-3.45,5.06,5.10,5.14
258.00,8.26,3.12,8.29,3.15,-3.18,-2.83,-3.43,5.08,5.11,5.14
260.58,8.26,3.12,8.23,3.09,-3.11,-2.80,-3.40,5.15,5.12,5.14
263.19,8.24,3.08,8.18,3.03,-3.03,-2.78,-3.37,5.21,5.15,5.16
265.82,8.05,2.89,8.12,2.95,-2.94,-2.75,-3.33,5.11,5.17,5.16
268.48,8.03,2.84,8.07,2.88,-2.85,-2.73,-3.30,5.18,5.22,5.19
271.16,8.03,2.83,7.98,2.78,-2.75,-2.70,-3.25,5.29,5.24,5.20
273.87,7.95,2.74,7.88,2.67,-2.63,-2.68,-3.21,5.32,5.25,5.21
276.61,7.69,2.44,7.75,2.51,-2.51,-2.65,-3.16,5.18,5.24,5.25
279.38,7.59,2.33,7.64,2.37,-2.39,-2.62,-3.11,5.20,5.24,5.26
282.17,7.58,2.29,7.54,2.25,-2.28,-2.60,-3.05,5.30,5.26,5.29
284.99,7.52,2.20,7.48,2.16,-2.18,-2.57,-3.00,5.35,5.30,5.32
287.84,7.36,2.02,7.41,2.07,-2.08,-2.54,-2.94,5.28,5.33,5.34
290.72,7.35,1.97,7.36,1.98,-2.01,-2.52,-2.88,5.34,5.35,5.38
293.63,7.35,1.95,7.34,1.93,-1.94,-2.49,-2.82,5.41,5.39,5.40
296.57,7.35,1.92,7.35,1.92,-1.90,-2.46,-2.76,5.45,5.45,5.43
299.53,7.35,1.89,7.35,1.90,-1.87,-2.43,-2.70,5.48,5.48,5.46
302.53,7.35,1.88,7.35,1.87,-1.86,-2.40,-2.64,5.50,5.50,5.47
305.55,7.35,1.84,7.34,1.83,-1.86,-2.37,-2.58,5.49,5.48,5.51
308.61,7.35,1.82,7.35,1.82,-1.87,-2.34,-2.52,5.48,5.48,5.53
311.69,7.35,1.81,7.40,1.85,-1.89,-2.31,-2.46,5.46,5.51,5.54
314.81,7.49,1.92,7.47,1.91,-1.92,-2.28,-2.40,5.57,5.55,5.57
317.96,7.57,2.00,7.54,1.98,-1.94,-2.25,-2.34,5.63,5.60,5.57
321.14,7.58,2.02,7.59,2.02,-1.97,-2.22,-2.29,5.61,5.62,5.56
324.35,7.58,2.01,7.59,2.02,-1.99,-2.19,-2.23,5.59,5.59,5.57
327.59,7.58,2.00,7.58,2.00,-2.01,-2.16,-2.18,5.57,5.57,5.58
330.87,7.58,1.99,7.58,2.00,-2.02,-2.13,-2.12,5.56,5.56,5.59
334.18,7.58,1.99,7.58,1.99,-2.01,-2.10,-2.07,5.58,5.58,5.59
337.52,7.58,1.98,7.59,1.98,-1.97,-2.07,-2.02,5.61,5.62,5.60
340.90,7.58,1.95,7.59,1.97,-1.93,-2.03,-1.97,5.66,5.67,5.63
344.30,7.58,1.94,7.56,1.92,-1.87,-2.00,-1.92,5.71,5.68,5.64
347.75,7.52,1.87,7.50,1.84,-1.82,-1.97,-1.87,5.70,5.67,5.65
351.23,7.39,1.71,7.42,1.75,-1.77,-1.94,-1.83,5.62,5.66,5.68
354.74,7.35,1.65,7.36,1.66,-1.71,-1.91,-1.78,5.64,5.65,5.70
358.28,7.35,1.62,7.34,1.61,-1.66,-1.87,-1.74,5.69,5.68,5.73
361.87,7.35,1.60,7.35,1.60,-1.61,-1.84,-1.70,5.74,5.74,5.75
365.49,7.35,1.58,7.35,1.58,-1.57,-1.81,-1.66,5.78,5.78,5.77
369.14,7.35,1.56,7.35,1.56,-1.54,-1.77,-1.62,5.81,5.81,5.79
372.83,7.35,1.53,7.35,1.53,-1.52,-1.74,-1.59,5.83,5.83,5.82
376.56,7.35,1.51,7.35,1.51,-1.50,-1.71,-1.55,5.85,5.85,5.84
380.33,7.35,1.48,7.35,1.48,-1.49,-1.67,-1.52,5.86,5.86,5.87
384.13,7.35,1.46,7.35,1.47,-1.48,-1.64,-1.48,5.87,5.87,5.89
387.97,7.35,1.45,7.35,1.45,-1.47,-1.60,-1.45,5.88,5.88,5.90
391.85,7.35,1.45,7.35,1.45,-1.46,-1.57,-1.42,5.89,5.89,5.90
395.77,7.35,1.44,7.35,1.44,-1.43,-1.53,-1.39,5.92,5.92,5.91
399.73,7.35,1.43,7.36,1.45,-1.40,-1.50,-1.36,5.95,5.96,5.92
403.72,7.35,1.42,7.35,1.42,-1.37,-1.46,-1.33,5.98,5.99,5.93
407.76,7.35,1.41,7.30,1.36,-1.33,-1.42,-1.31,6.02,5.97,5.94
411.84,7.21,1.26,7.23,1.28,-1.29,-1.39,-1.28,5.92,5.94,5.95
415.96,7.13,1.17,7.16,1.20,-1.25,-1.35,-1.25,5.88,5.91,5.96
420.12,7.12,1.16,7.11,1.15,-1.22,-1.32,-1.23,5.90,5.90,5.96
424.32,7.12,1.16,7.11,1.15,-1.19,-1.28,-1.20,5.93,5.92,5.96
428.56,7.12,1.16,7.12,1.16,-1.18,-1.24,-1.17,5.95,5.94,5.96
432.85,7.12,1.17,7.12,1.16,-1.16,-1.20,-1.15,5.96,5.96,5.95
437.18,7.12,1.16,7.12,1.16,-1.14,-1.16,-1.12,5.98,5.98,5.96
441.55,7.12,1.15,7.14,1.17,-1.12,-1.13,-1.09,6.00,6.02,5.97
445.96,7.12,1.15,7.12,1.14,-1.09,-1.09,-1.06,6.03,6.03,5.97
450.42,7.12,1.14,7.06,1.08,-1.05,-1.05,-1.03,6.07,6.01,5.98
454.93,6.94,0.95,6.98,1.00,-1.01,-1.01,-1.00,5.93,5.98,5.99
459.48,6.89,0.89,6.92,0.91,-0.96,-0.97,-0.97,5.93,5.96,6.00
464.07,6.89,0.87,6.88,0.86,-0.91,-0.93,-0.94,5.98,5.96,6.02
468.71,6.89,0.85,6.89,0.85,-0.87,-0.89,-0.90,6.02,6.02,6.04
473.40,6.89,0.84,6.89,0.84,-0.83,-0.84,-0.87,6.06,6.06,6.05
478.13,6.89,0.81,6.89,0.81,-0.80,-0.80,-0.83,6.10,6.10,6.08
482.91,6.89,0.79,6.89,0.79,-0.78,-0.76,-0.79,6.12,6.12,6.10
487.74,6.89,0.76,6.89,0.76,-0.76,-0.72,-0.75,6.13,6.13,6.13
492.62,6.89,0.73,6.89,0.73,-0.75,-0.67,-0.70,6.14,6.14,6.16
497.55,6.89,0.71,6.89,0.71,-0.73,-0.63,-0.66,6.16,6.16,6.18
502.52,6.89,0.68,6.89,0.69,-0.69,-0.58,-0.61,6.20,6.20,6.21
507.55,6.89,0.67,6.90,0.67,-0.65,-0.54,-0.55,6.24,6.25,6.22
