frequency,raw,error,smoothed,error_smoothed,equalization,parametric_eq,fixed_band_eq,equalized_raw,equalized_smoothed,target
20.00,-4.28,-15.80,-4.34,-15.88,15.88,14.85,5.92,11.60,11.54,11.52
20.20,-4.19,-15.75,-4.22,-15.79,15.79,14.97,6.06,11.60,11.57,11.56
20.40,-4.09,-15.68,-4.10,-15.70,15.70,15.08,6.21,11.61,11.60,11.59
20.61,-4.00,-15.62,-3.98,-15.61,15.61,15.17,6.36,11.61,11.63,11.62
20.81,-3.90,-15.56,-3.86,-15.51,15.51,15.26,6.51,11.61,11.65,11.66
21.02,-3.81,-15.51,-3.74,-15.41,15.41,15.34,6.67,11.60,11.68,11.70
21.23,-3.66,-15.37,-3.62,-15.31,15.31,15.40,6.83,11.65,11.70,11.71
21.44,-3.52,-15.25,-3.49,-15.21,15.21,15.44,6.99,11.69,11.72,11.73
21.66,-3.37,-15.12,-3.37,-15.11,15.11,15.47,7.16,11.74,11.74,11.75
21.87,-3.22,-14.98,-3.25,-15.00,15.00,15.48,7.34,11.78,11.75,11.76
22.09,-3.09,-14.87,-3.12,-14.89,14.89,15.47,7.52,11.80,11.77,11.78
22.31,-2.98,-14.76,-3.00,-14.78,14.78,15.43,7.70,11.80,11.78,11.78
22.54,-2.86,-14.65,-2.86,-14.65,14.65,15.38,7.89,11.79,11.79,11.79
22.76,-2.75,-14.54,-2.73,-14.53,14.53,15.30,8.08,11.78,11.80,11.80
22.99,-2.64,-14.44,-2.59,-14.40,14.40,15.20,8.28,11.76,11.81,11.80
23.22,-2.49,-14.29,-2.46,-14.28,14.28,15.08,8.49,11.79,11.82,11.81
23.45,-2.34,-14.15,-2.34,-14.16,14.16,14.94,8.70,11.82,11.82,11.81
23.69,-2.19,-14.02,-2.21,-14.04,14.04,14.78,8.91,11.85,11.83,11.82
23.92,-2.05,-13.88,-2.09,-13.92,13.92,14.61,9.14,11.87,11.83,11.83
24.16,-1.93,-13.77,-1.97,-13.80,13.80,14.42,9.36,11.87,11.83,11.84
24.40,-1.83,-13.68,-1.84,-13.68,13.68,14.22,9.60,11.85,11.83,11.85
24.65,-1.73,-13.57,-1.72,-13.56,13.56,14.02,9.84,11.83,11.84,11.84
24.89,-1.62,-13.46,-1.60,-13.44,13.44,13.81,10.08,11.83,11.84,11.84
25.14,-1.51,-13.35,-1.49,-13.33,13.33,13.61,10.33,11.82,11.84,11.84
25.39,-1.38,-13.21,-1.37,-13.21,13.21,13.41,10.59,11.84,11.84,11.84
25.65,-1.25,-13.09,-1.26,-13.10,13.10,13.21,10.85,11.85,11.84,11.84
25.91,-1.13,-12.96,-1.15,-12.98,12.98,13.03,11.12,11.85,11.84,11.82
26.16,-1.01,-12.84,-1.03,-12.87,12.87,12.86,11.39,11.86,11.84,11.83
26.43,-0.91,-12.74,-0.92,-12.75,12.75,12.70,11.66,11.84,11.83,11.83
26.69,-0.81,-12.64,-0.80,-12.63,12.63,12.55,11.94,11.82,11.83,11.83
26.96,-0.71,-12.54,-0.67,-12.50,12.50,12.41,12.22,11.79,11.83,11.83
27.23,-0.58,-12.41,-0.55,-12.37,12.37,12.28,12.50,11.79,11.82,11.83
27.50,-0.44,-12.27,-0.42,-12.24,12.24,12.15,12.78,11.80,11.82,11.83
27.77,-0.30,-12.11,-0.29,-12.11,12.11,12.03,13.05,11.82,11.82,11.82
28.05,-0.17,-11.98,-0.17,-11.98,11.98,11.92,13.32,11.81,11.82,11.81
28.33,-0.03,-11.83,-0.04,-11.85,11.85,11.81,13.58,11.82,11.81,11.80
28.62,0.10,-11.71,0.10,-11.72,11.72,11.70,13.84,11.81,11.81,11.81
28.90,0.23,-11.58,0.23,-11.58,11.58,11.59,14.07,11.81,11.81,11.81
29.19,0.36,-11.44,0.35,-11.45,11.45,11.48,14.29,11.81,11.81,11.80
29.48,0.49,-11.31,0.48,-11.32,11.32,11.37,14.49,11.81,11.80,11.81
29.78,0.62,-11.18,0.61,-11.19,11.19,11.25,14.66,11.81,11.80,11.80
30.08,0.75,-11.05,0.73,-11.07,11.07,11.14,14.80,11.81,11.79,11.80
30.38,0.87,-10.92,0.84,-10.94,10.94,11.02,14.91,11.81,11.79,11.79
30.68,0.99,-10.80,0.96,-10.82,10.82,10.90,14.98,11.81,11.78,11.79
30.99,1.11,-10.67,1.09,-10.69,10.69,10.78,15.01,11.80,11.78,11.77
31.30,1.21,-10.56,1.22,-10.56,10.56,10.65,15.01,11.76,11.77,11.77
31.61,1.30,-10.47,1.34,-10.43,10.43,10.53,14.96,11.73,11.77,11.77
31.93,1.40,-10.36,1.46,-10.30,10.30,10.40,14.87,11.70,11.76,11.76
32.24,1.53,-10.21,1.58,-10.18,10.18,10.26,14.75,11.71,11.75,11.74
32.57,1.67,-10.07,1.70,-10.05,10.05,10.13,14.59,11.72,11.75,11.74
32.89,1.81,-9.93,1.82,-9.92,9.92,10.00,14.40,11.73,11.74,11.74
33.22,1.97,-9.76,1.95,-9.79,9.79,9.86,14.19,11.76,11.74,11.74
33.55,2.12,-9.61,2.07,-9.66,9.66,9.72,13.96,11.78,11.73,11.73
33.89,2.28,-9.45,2.20,-9.52,9.52,9.58,13.70,11.80,11.72,11.73
34.23,2.37,-9.36,2.33,-9.39,9.39,9.44,13.43,11.76,11.72,11.73
34.57,2.43,-9.28,2.45,-9.26,9.26,9.30,13.16,11.69,11.71,11.71
34.92,2.49,-9.22,2.57,-9.13,9.13,9.16,12.87,11.62,11.71,11.71
35.27,2.64,-9.07,2.70,-9.01,9.01,9.02,12.58,11.65,11.70,11.71
35.62,2.82,-8.87,2.82,-8.88,8.88,8.88,12.28,11.70,11.70,11.69
35.97,3.00,-8.69,2.94,-8.75,8.75,8.74,11.99,11.76,11.69,11.69
36.33,3.09,-8.59,3.05,-8.63,8.63,8.60,11.69,11.72,11.68,11.68
36.70,3.18,-8.50,3.17,-8.50,8.50,8.46,11.40,11.68,11.67,11.68
37.06,3.27,-8.39,3.28,-8.38,8.38,8.32,11.10,11.65,11.67,11.66
37.43,3.37,-8.29,3.39,-8.26,8.26,8.18,10.82,11.64,11.66,11.66
37.81,3.47,-8.18,3.51,-8.14,8.14,8.04,10.53,11.61,11.65,11.65
38.19,3.60,-8.04,3.63,-8.01,8.01,7.90,10.25,11.61,11.64,11.64
38.57,3.75,-7.88,3.76,-7.88,7.88,7.76,9.98,11.63,11.64,11.63
38.95,3.91,-7.72,3.87,-7.76,7.76,7.63,9.71,11.67,11.63,11.63
39.34,4.01,-7.60,3.97,-7.65,7.65,7.49,9.45,11.66,11.62,11.61
39.74,4.10,-7.50,4.08,-7.54,7.54,7.36,9.19,11.64,11.61,11.60
40.14,4.19,-7.41,4.18,-7.42,7.42,7.22,8.93,11.61,11.60,11.60
40.54,4.28,-7.31,4.30,-7.29,7.29,7.09,8.69,11.57,11.59,11.59
40.94,4.37,-7.22,4.42,-7.16,7.16,6.96,8.44,11.53,11.58,11.59
41.35,4.53,-7.04,4.54,-7.02,7.02,6.83,8.21,11.55,11.56,11.57
41.76,4.69,-6.86,4.65,-6.89,6.89,6.70,7.98,11.58,11.54,11.55
42.18,4.80,-6.73,4.76,-6.76,6.76,6.57,7.75,11.57,11.52,11.53
42.60,4.82,-6.69,4.86,-6.63,6.63,6.44,7.53,11.45,11.50,11.51
43.03,4.85,-6.64,4.98,-6.49,6.49,6.31,7.31,11.35,11.47,11.49
43.46,5.05,-6.41,5.09,-6.36,6.36,6.19,7.10,11.41,11.44,11.46
43.90,5.25,-6.16,5.20,-6.22,6.22,6.06,6.89,11.47,11.41,11.41
44.33,5.37,-6.01,5.31,-6.08,6.08,5.94,6.69,11.45,11.39,11.38
44.78,5.47,-5.87,5.41,-5.95,5.95,5.82,6.49,11.42,11.36,11.34
45.23,5.54,-5.77,5.51,-5.81,5.81,5.70,6.29,11.35,11.33,11.31
45.68,5.57,-5.71,5.62,-5.68,5.68,5.58,6.10,11.26,11.30,11.28
46.13,5.64,-5.62,5.71,-5.57,5.57,5.46,5.91,11.21,11.28,11.26
46.60,5.82,-5.43,5.81,-5.45,5.45,5.34,5.73,11.27,11.26,11.25
47.06,5.98,-5.25,5.90,-5.34,5.34,5.23,5.55,11.32,11.24,11.23
47.53,6.01,-5.21,5.99,-5.24,5.24,5.11,5.38,11.25,11.23,11.22
48.01,6.03,-5.19,6.07,-5.14,5.14,5.00,5.20,11.17,11.22,11.22
48.49,6.12,-5.08,6.15,-5.06,5.06,4.89,5.03,11.18,11.21,11.21
48.97,6.21,-4.98,6.22,-4.98,4.98,4.78,4.87,11.19,11.20,11.19
49.46,6.32,-4.86,6.30,-4.90,4.90,4.67,4.71,11.22,11.20,11.18
49.96,6.43,-4.74,6.38,-4.81,4.81,4.56,4.55,11.24,11.19,11.17
50.46,6.46,-4.72,6.46,-4.72,4.72,4.45,4.39,11.18,11.18,11.18
50.96,6.48,-4.70,6.54,-4.63,4.63,4.34,4.24,11.11,11.17,11.19
51.47,6.57,-4.60,6.61,-4.55,4.55,4.24,4.09,11.12,11.16,11.17
51.99,6.66,-4.49,6.68,-4.46,4.46,4.13,3.94,11.12,11.14,11.15
52.51,6.78,-4.36,6.75,-4.37,4.37,4.03,3.79,11.15,11.12,11.14
53.03,6.89,-4.22,6.82,-4.27,4.27,3.92,3.65,11.16,11.09,11.11
53.56,6.89,-4.18,6.89,-4.16,4.16,3.82,3.51,11.05,11.05,11.07
54.10,6.91,-4.11,6.96,-4.06,4.06,3.72,3.38,10.97,11.02,11.02
54.64,7.04,-3.94,7.02,-3.95,3.95,3.62,3.25,10.99,10.97,10.98
55.18,7.12,-3.81,7.08,-3.85,3.85,3.52,3.12,10.97,10.93,10.93
55.74,7.12,-3.75,7.14,-3.73,3.73,3.43,2.99,10.85,10.87,10.87
56.29,7.19,-3.62,7.21,-3.60,3.60,3.33,2.87,10.79,10.81,10.82
56.86,7.32,-3.43,7.28,-3.47,3.47,3.23,2.75,10.79,10.75,10.75
57.42,7.35,-3.33,7.34,-3.35,3.35,3.14,2.63,10.70,10.69,10.68
58.00,7.35,-3.27,7.41,-3.21,3.21,3.04,2.51,10.56,10.62,10.62
58.58,7.48,-3.07,7.48,-3.08,3.08,2.95,2.40,10.56,10.56,10.56
59.16,7.58,-2.92,7.56,-2.93,2.93,2.86,2.29,10.52,10.49,10.50
59.76,7.58,-2.85,7.64,-2.78,2.78,2.77,2.19,10.36,10.43,10.44
60.35,7.66,-2.70,7.73,-2.63,2.63,2.68,2.09,10.30,10.36,10.36
60.96,7.79,-2.51,7.81,-2.49,2.49,2.58,1.99,10.28,10.30,10.30
61.57,7.93,-2.30,7.89,-2.34,2.34,2.50,1.89,10.27,10.23,10.23
62.18,8.03,-2.13,7.97,-2.20,2.20,2.41,1.80,10.23,10.17,10.16
62.80,8.03,-2.08,8.06,-2.06,2.06,2.32,1.71,10.09,10.11,10.11
63.43,8.13,-1.92,8.13,-1.92,1.92,2.23,1.62,10.05,10.05,10.05
64.07,8.26,-1.74,8.21,-1.79,1.79,2.15,1.54,10.05,10.00,10.00
64.71,8.30,-1.64,8.29,-1.66,1.66,2.06,1.46,9.96,9.95,9.94
65.35,8.37,-1.52,8.36,-1.54,1.54,1.98,1.38,9.91,9.90,9.89
66.01,8.49,-1.36,8.43,-1.42,1.42,1.89,1.30,9.91,9.85,9.85
66.67,8.49,-1.31,8.50,-1.31,1.31,1.81,1.23,9.80,9.81,9.80
67.33,8.52,-1.25,8.56,-1.21,1.21,1.72,1.16,9.73,9.77,9.77
68.01,8.59,-1.14,8.62,-1.11,1.11,1.64,1.09,9.70,9.73,9.73
68.69,8.68,-1.01,8.68,-1.01,1.01,1.56,1.02,9.69,9.69,9.69
69.37,8.72,-0.94,8.74,-0.91,0.91,1.48,0.95,9.63,9.66,9.66
70.07,8.74,-0.88,8.81,-0.81,0.81,1.40,0.89,9.55,9.62,9.62
70.77,8.89,-0.71,8.86,-0.72,0.72,1.32,0.83,9.61,9.58,9.60
71.48,8.94,-0.62,8.90,-0.64,0.64,1.24,0.77,9.58,9.55,9.56
72.19,8.94,-0.58,8.95,-0.56,0.56,1.16,0.71,9.50,9.51,9.52
72.91,8.94,-0.54,8.99,-0.48,0.48,1.08,0.65,9.43,9.48,9.48
73.64,9.09,-0.36,9.03,-0.40,0.40,1.00,0.59,9.50,9.44,9.45
74.38,9.17,-0.24,9.08,-0.32,0.32,0.92,0.53,9.49,9.40,9.41
75.12,9.17,-0.19,9.12,-0.24,0.24,0.85,0.48,9.41,9.37,9.36
75.87,9.17,-0.16,9.16,-0.17,0.17,0.77,0.42,9.34,9.33,9.33
76.63,9.17,-0.12,9.20,-0.10,0.10,0.69,0.37,9.27,9.30,9.29
77.40,9.17,-0.09,9.23,-0.03,0.03,0.62,0.31,9.20,9.26,9.26
78.17,9.17,-0.05,9.26,0.03,-0.03,0.54,0.25,9.14,9.23,9.22
78.95,9.17,-0.03,9.28,0.08,-0.08,0.47,0.20,9.09,9.20,9.20
79.74,9.34,0.16,9.31,0.13,-0.13,0.39,0.14,9.21,9.18,9.18
80.54,9.40,0.26,9.33,0.18,-0.18,0.32,0.09,9.22,9.15,9.14
81.35,9.40,0.28,9.35,0.22,-0.22,0.25,0.03,9.18,9.13,9.12
82.16,9.40,0.29,9.36,0.25,-0.25,0.17,-0.02,9.16,9.11,9.11
82.98,9.40,0.30,9.37,0.27,-0.27,0.10,-0.08,9.13,9.10,9.10
83.81,9.40,0.32,9.39,0.30,-0.30,0.03,-0.14,9.10,9.09,9.08
84.65,9.40,0.33,9.40,0.33,-0.33,-0.04,-0.20,9.07,9.08,9.07
85.50,9.40,0.33,9.41,0.34,-0.34,-0.12,-0.25,9.06,9.07,9.07
86.35,9.40,0.34,9.40,0.34,-0.34,-0.19,-0.31,9.06,9.06,9.06
87.22,9.40,0.35,9.40,0.35,-0.35,-0.26,-0.37,9.05,9.05,9.05
88.09,9.40,0.36,9.40,0.35,-0.35,-0.33,-0.43,9.05,9.05,9.04
88.97,9.40,0.35,9.39,0.36,-0.36,-0.40,-0.50,9.04,9.04,9.05
89.86,9.40,0.36,9.40,0.37,-0.37,-0.47,-0.56,9.03,9.03,9.04
90.76,9.40,0.39,9.41,0.40,-0.40,-0.54,-0.62,9.00,9.01,9.01
91.66,9.40,0.39,9.43,0.43,-0.43,-0.61,-0.69,8.97,9.00,9.01
92.58,9.40,0.42,9.45,0.47,-0.47,-0.68,-0.75,8.93,8.98,8.98
93.51,9.40,0.43,9.47,0.51,-0.51,-0.75,-0.82,8.89,8.96,8.97
94.44,9.40,0.45,9.49,0.55,-0.55,-0.82,-0.88,8.85,8.94,8.95
95.39,9.50,0.58,9.51,0.60,-0.60,-0.88,-0.95,8.90,8.92,8.92
96.34,9.63,0.75,9.54,0.65,-0.65,-0.95,-1.02,8.98,8.89,8.88
97.30,9.63,0.78,9.56,0.70,-0.70,-1.02,-1.09,8.93,8.86,8.85
98.28,9.63,0.82,9.58,0.76,-0.76,-1.08,-1.16,8.87,8.82,8.81
99.26,9.63,0.85,9.60,0.82,-0.82,-1.15,-1.23,8.81,8.78,8.78
100.25,9.63,0.89,9.62,0.88,-0.88,-1.22,-1.30,8.75,8.74,8.74
101.25,9.63,0.94,9.63,0.94,-0.94,-1.28,-1.37,8.69,8.69,8.69
102.27,9.63,0.98,9.64,1.00,-1.00,-1.35,-1.44,8.63,8.64,8.65
103.29,9.63,1.04,9.65,1.06,-1.06,-1.41,-1.51,8.57,8.59,8.59
104.32,9.63,1.09,9.65,1.12,-1.12,-1.48,-1.58,8.51,8.53,8.54
105.37,9.63,1.15,9.65,1.18,-1.18,-1.54,-1.65,8.45,8.46,8.48
106.42,9.63,1.22,9.64,1.24,-1.24,-1.60,-1.72,8.39,8.40,8.41
107.48,9.63,1.29,9.63,1.30,-1.30,-1.67,-1.78,8.33,8.33,8.34
108.56,9.63,1.38,9.63,1.38,-1.38,-1.73,-1.85,8.25,8.25,8.25
109.64,9.63,1.46,9.63,1.46,-1.46,-1.79,-1.92,8.17,8.17,8.17
110.74,9.63,1.54,9.63,1.54,-1.54,-1.85,-1.98,8.09,8.09,8.09
111.85,9.63,1.61,9.63,1.62,-1.62,-1.91,-2.04,8.01,8.01,8.02
112.97,9.63,1.71,9.64,1.72,-1.72,-1.97,-2.10,7.92,7.92,7.92
114.10,9.63,1.79,9.65,1.80,-1.80,-2.03,-2.16,7.83,7.84,7.84
115.24,9.63,1.87,9.65,1.89,-1.89,-2.09,-2.22,7.75,7.76,7.76
116.39,9.63,1.96,9.65,1.96,-1.96,-2.15,-2.27,7.67,7.69,7.67
117.55,9.63,2.03,9.64,2.03,-2.03,-2.20,-2.32,7.60,7.61,7.60
118.73,9.63,2.11,9.63,2.08,-2.08,-2.26,-2.37,7.55,7.55,7.52
119.92,9.63,2.16,9.61,2.13,-2.13,-2.32,-2.41,7.50,7.48,7.47
121.12,9.63,2.23,9.60,2.18,-2.18,-2.37,-2.45,7.45,7.42,7.40
122.33,9.63,2.28,9.58,2.21,-2.21,-2.43,-2.49,7.42,7.36,7.35
123.55,9.63,2.31,9.56,2.25,-2.25,-2.48,-2.52,7.38,7.31,7.32
124.79,9.63,2.37,9.54,2.27,-2.27,-2.53,-2.55,7.36,7.26,7.27
126.03,9.47,2.25,9.51,2.29,-2.29,-2.58,-2.57,7.18,7.22,7.22
127.29,9.42,2.24,9.49,2.32,-2.32,-2.63,-2.60,7.10,7.17,7.18
128.57,9.40,2.27,9.47,2.34,-2.34,-2.68,-2.61,7.06,7.13,7.13
129.85,9.40,2.31,9.46,2.37,-2.37,-2.73,-2.63,7.03,7.09,7.09
131.15,9.40,2.35,9.45,2.40,-2.40,-2.78,-2.64,7.00,7.05,7.06
132.46,9.40,2.39,9.43,2.43,-2.43,-2.82,-2.64,6.98,7.01,7.01
133.79,9.40,2.43,9.41,2.45,-2.45,-2.87,-2.65,6.95,6.96,6.97
135.12,9.40,2.48,9.40,2.47,-2.47,-2.91,-2.65,6.93,6.92,6.92
136.48,9.40,2.52,9.38,2.50,-2.50,-2.95,-2.65,6.90,6.88,6.88
137.84,9.40,2.56,9.36,2.53,-2.53,-3.00,-2.65,6.87,6.84,6.84
139.22,9.40,2.63,9.35,2.56,-2.56,-3.04,-2.64,6.84,6.79,6.77
140.61,9.40,2.68,9.34,2.60,-2.60,-3.07,-2.63,6.80,6.74,6.72
142.02,9.40,2.71,9.32,2.63,-2.63,-3.11,-2.63,6.77,6.69,6.69
143.44,9.39,2.75,9.30,2.66,-2.66,-3.15,-2.62,6.73,6.64,6.64
144.87,9.21,2.62,9.28,2.70,-2.70,-3.18,-2.61,6.51,6.58,6.59
146.32,9.18,2.65,9.26,2.74,-2.74,-3.21,-2.59,6.44,6.52,6.53
147.78,9.17,2.69,9.23,2.79,-2.79,-3.25,-2.58,6.38,6.45,6.48
149.26,9.17,2.76,9.22,2.85,-2.85,-3.28,-2.57,6.32,6.38,6.41
150.75,9.17,2.85,9.21,2.91,-2.91,-3.30,-2.56,6.26,6.30,6.32
152.26,9.17,2.92,9.20,2.97,-2.97,-3.33,-2.55,6.20,6.23,6.25
153.78,9.17,3.01,9.18,3.03,-3.03,-3.36,-2.54,6.14,6.15,6.17
155.32,9.17,3.11,9.17,3.10,-3.10,-3.38,-2.53,6.07,6.07,6.06
156.88,9.17,3.19,9.15,3.16,-3.16,-3.40,-2.52,6.01,5.99,5.98
158.44,9.17,3.27,9.13,3.22,-3.22,-3.42,-2.52,5.95,5.91,5.90
160.03,9.17,3.35,9.12,3.28,-3.28,-3.44,-2.51,5.89,5.84,5.82
161.63,9.17,3.42,9.11,3.34,-3.34,-3.46,-2.51,5.83,5.78,5.75
163.24,9.17,3.48,9.09,3.38,-3.38,-3.47,-2.51,5.79,5.72,5.70
164.88,9.17,3.52,9.07,3.41,-3.41,-3.49,-2.50,5.77,5.67,5.65
166.53,8.99,3.39,9.05,3.42,-3.42,-3.50,-2.51,5.57,5.63,5.60
168.19,8.94,3.37,9.03,3.43,-3.43,-3.51,-2.51,5.51,5.59,5.57
169.87,8.94,3.40,9.01,3.44,-3.44,-3.52,-2.51,5.50,5.57,5.54
171.57,8.94,3.41,8.99,3.44,-3.44,-3.53,-2.52,5.51,5.55,5.53
173.29,8.94,3.41,8.97,3.43,-3.43,-3.53,-2.53,5.51,5.54,5.53
175.02,8.94,3.40,8.95,3.42,-3.42,-3.54,-2.54,5.52,5.53,5.54
176.77,8.94,3.41,8.94,3.42,-3.42,-3.54,-2.56,5.52,5.52,5.53
178.54,8.94,3.41,8.93,3.41,-3.41,-3.54,-2.57,5.53,5.52,5.53
180.32,8.94,3.41,8.92,3.41,-3.41,-3.54,-2.59,5.53,5.51,5.53
182.13,8.94,3.41,8.92,3.42,-3.42,-3.54,-2.61,5.52,5.50,5.53
183.95,8.94,3.42,8.94,3.44,-3.44,-3.53,-2.63,5.50,5.50,5.53
185.79,8.94,3.43,8.95,3.47,-3.47,-3.53,-2.66,5.47,5.49,5.51
187.65,8.94,3.46,8.96,3.48,-3.48,-3.52,-2.68,5.46,5.47,5.48
189.52,8.94,3.48,8.95,3.49,-3.49,-3.51,-2.71,5.45,5.46,5.46
191.42,8.94,3.51,8.95,3.51,-3.51,-3.50,-2.74,5.44,5.44,5.44
193.33,8.94,3.53,8.93,3.52,-3.52,-3.49,-2.77,5.43,5.42,5.41
195.27,8.94,3.54,8.92,3.52,-3.52,-3.48,-2.81,5.42,5.40,5.40
197.22,8.94,3.56,8.90,3.53,-3.53,-3.46,-2.84,5.41,5.38,5.38
199.19,8.94,3.60,8.88,3.53,-3.53,-3.45,-2.88,5.41,5.35,5.34
201.18,8.94,3.61,8.86,3.54,-3.54,-3.43,-2.92,5.40,5.33,5.33
203.19,8.90,3.59,8.84,3.54,-3.54,-3.41,-2.96,5.36,5.31,5.31
205.23,8.78,3.50,8.82,3.54,-3.54,-3.40,-3.00,5.24,5.28,5.28
207.28,8.72,3.45,8.80,3.54,-3.54,-3.38,-3.04,5.18,5.26,5.27
209.35,8.72,3.48,8.78,3.54,-3.54,-3.35,-3.08,5.18,5.24,5.24
211.44,8.72,3.51,8.77,3.55,-3.55,-3.33,-3.12,5.17,5.23,5.21
213.56,8.72,3.51,8.76,3.55,-3.55,-3.31,-3.16,5.17,5.21,5.21
215.69,8.72,3.52,8.75,3.56,-3.56,-3.28,-3.20,5.16,5.19,5.20
217.85,8.72,3.54,8.73,3.56,-3.56,-3.26,-3.23,5.17,5.17,5.18
220.03,8.72,3.56,8.71,3.55,-3.55,-3.23,-3.27,5.17,5.16,5.16
222.23,8.72,3.58,8.70,3.55,-3.55,-3.21,-3.31,5.17,5.15,5.14
224.45,8.72,3.59,8.68,3.55,-3.55,-3.18,-3.34,5.18,5.13,5.13
226.70,8.72,3.59,8.67,3.55,-3.55,-3.15,-3.37,5.18,5.12,5.13
228.96,8.72,3.60,8.67,3.55,-3.55,-3.12,-3.40,5.17,5.11,5.12
231.25,8.72,3.61,8.65,3.55,-3.55,-3.09,-3.43,5.17,5.11,5.11
233.57,8.68,3.58,8.63,3.53,-3.53,-3.06,-3.45,5.15,5.10,5.10
235.90,8.50,3.41,8.61,3.51,-3.51,-3.03,-3.47,4.99,5.10,5.09
238.26,8.49,3.40,8.59,3.49,-3.49,-3.00,-3.49,5.00,5.09,5.09
240.64,8.49,3.40,8.56,3.46,-3.46,-2.97,-3.50,5.03,5.09,5.09
243.05,8.49,3.39,8.52,3.43,-3.43,-2.93,-3.50,5.06,5.09,5.10
245.48,8.49,3.39,8.49,3.39,-3.39,-2.90,-3.51,5.10,5.10,5.10
247.93,8.49,3.38,8.46,3.36,-3.36,-2.87,-3.50,5.13,5.10,5.11
250.41,8.49,3.39,8.43,3.32,-3.32,-2.83,-3.50,5.17,5.10,5.10
252.92,8.44,3.33,8.38,3.27,-3.27,-2.80,-3.49,5.17,5.11,5.11
255.45,8.29,3.16,8.33,3.22,-3.22,-2.76,-3.47,5.07,5.11,5.13
258.00,8.26,3.13,8.29,3.16,-3.16,-2.73,-3.45,5.10,5.12,5.13
260.58,8.26,3.13,8.23,3.10,-3.10,-2.69,-3.42,5.16,5.13,5.13
263.19,8.24,3.10,8.17,3.03,-3.03,-2.66,-3.39,5.21,5.14,5.14
265.82,8.05,2.90,8.09,2.93,-2.93,-2.62,-3.36,5.12,5.16,5.15
268.48,8.03,2.86,8.01,2.83,-2.83,-2.59,-3.32,5.20,5.17,5.17
271.16,8.03,2.85,7.92,2.73,-2.73,-2.55,-3.28,5.30,5.19,5.18
273.87,7.95,2.75,7.83,2.63,-2.63,-2.52,-3.23,5.33,5.21,5.20
276.61,7.69,2.46,7.75,2.52,-2.52,-2.48,-3.19,5.17,5.23,5.23
279.38,7.59,2.35,7.67,2.42,-2.42,-2.44,-3.14,5.17,5.25,5.24
282.17,7.58,2.31,7.59,2.32,-2.32,-2.41,-3.08,5.26,5.27,5.27
284.99,7.52,2.23,7.52,2.23,-2.23,-2.37,-3.03,5.29,5.29,5.29
287.84,7.36,2.04,7.46,2.14,-2.14,-2.34,-2.97,5.22,5.32,5.32
290.72,7.35,2.00,7.41,2.06,-2.06,-2.30,-2.91,5.29,5.35,5.35
293.63,7.35,1.98,7.38,2.00,-2.00,-2.26,-2.85,5.35,5.37,5.38
296.57,7.35,1.95,7.36,1.96,-1.96,-2.23,-2.79,5.39,5.40,5.40
299.53,7.35,1.93,7.35,1.93,-1.93,-2.19,-2.73,5.42,5.42,5.43
302.53,7.35,1.91,7.35,1.91,-1.91,-2.16,-2.67,5.44,5.44,5.44
305.55,7.35,1.87,7.37,1.91,-1.91,-2.12,-2.61,5.44,5.46,5.48
308.61,7.35,1.86,7.40,1.92,-1.92,-2.08,-2.55,5.43,5.48,5.49
311.69,7.35,1.84,7.43,1.93,-1.93,-2.05,-2.49,5.42,5.49,5.51
314.81,7.49,1.96,7.46,1.95,-1.95,-2.01,-2.43,5.54,5.51,5.53
317.96,7.57,2.04,7.50,1.98,-1.98,-1.98,-2.38,5.59,5.52,5.53
321.14,7.58,2.05,7.53,2.00,-2.00,-1.94,-2.32,5.58,5.53,5.53
324.35,7.58,2.05,7.54,2.01,-2.01,-1.91,-2.26,5.57,5.54,5.53
327.59,7.58,2.04,7.55,2.01,-2.01,-1.87,-2.21,5.57,5.55,5.54
330.87,7.58,2.03,7.56,2.00,-2.00,-1.84,-2.15,5.58,5.56,5.55
334.18,7.58,2.03,7.56,1.99,-1.99,-1.80,-2.10,5.59,5.57,5.55
337.52,7.58,2.02,7.55,1.97,-1.97,-1.77,-2.05,5.61,5.58,5.56
340.90,7.58,1.99,7.54,1.95,-1.95,-1.73,-2.00,5.63,5.59,5.59
344.30,7.58,1.99,7.52,1.91,-1.91,-1.70,-1.95,5.67,5.60,5.59
347.75,7.52,1.91,7.49,1.87,-1.87,-1.67,-1.91,5.65,5.62,5.61
351.23,7.39,1.75,7.46,1.82,-1.82,-1.63,-1.86,5.57,5.64,5.64
354.74,7.35,1.69,7.43,1.77,-1.77,-1.60,-1.82,5.58,5.66,5.66
358.28,7.35,1.67,7.41,1.73,-1.73,-1.57,-1.78,5.62,5.68,5.68
361.87,7.35,1.65,7.39,1.68,-1.68,-1.53,-1.74,5.67,5.71,5.70
365.49,7.35,1.62,7.37,1.64,-1.64,-1.50,-1.70,5.71,5.73,5.73
369.14,7.35,1.60,7.36,1.61,-1.61,-1.47,-1.66,5.74,5.75,5.75
372.83,7.35,1.58,7.36,1.59,-1.59,-1.44,-1.62,5.76,5.77,5.78
376.56,7.35,1.56,7.35,1.56,-1.56,-1.40,-1.59,5.79,5.79,5.79
380.33,7.35,1.53,7.35,1.54,-1.54,-1.37,-1.56,5.81,5.81,5.82
384.13,7.35,1.51,7.34,1.52,-1.52,-1.34,-1.52,5.83,5.83,5.84
387.97,7.35,1.50,7.34,1.50,-1.50,-1.31,-1.49,5.85,5.84,5.85
391.85,7.35,1.49,7.33,1.48,-1.48,-1.28,-1.46,5.87,5.86,5.86
395.77,7.35,1.49,7.32,1.45,-1.45,-1.24,-1.43,5.90,5.87,5.86
399.73,7.35,1.48,7.30,1.42,-1.42,-1.21,-1.41,5.93,5.88,5.87
403.72,7.35,1.47,7.28,1.40,-1.40,-1.18,-1.38,5.96,5.88,5.88
407.76,7.35,1.46,7.27,1.38,-1.38,-1.15,-1.35,5.97,5.89,5.89
411.84,7.21,1.31,7.25,1.36,-1.36,-1.12,-1.33,5.85,5.89,5.90
415.96,7.13,1.22,7.23,1.33,-1.33,-1.09,-1.30,5.80,5.90,5.91
420.12,7.12,1.21,7.21,1.31,-1.31,-1.06,-1.27,5.82,5.90,5.91
424.32,7.12,1.22,7.18,1.27,-1.27,-1.03,-1.25,5.85,5.90,5.90
428.56,7.12,1.22,7.15,1.24,-1.24,-1.00,-1.22,5.88,5.91,5.90
432.85,7.12,1.22,7.12,1.21,-1.21,-0.96,-1.20,5.91,5.91,5.90
437.18,7.12,1.21,7.08,1.17,-1.17,-0.93,-1.17,5.95,5.91,5.91
441.55,7.12,1.20,7.05,1.14,-1.14,-0.90,-1.15,5.98,5.92,5.92
445.96,7.12,1.20,7.03,1.10,-1.10,-0.87,-1.12,6.02,5.92,5.92
450.42,7.12,1.19,7.00,1.07,-1.07,-0.84,-1.09,6.05,5.93,5.93
454.93,6.94,1.00,6.98,1.04,-1.04,-0.81,-1.06,5.90,5.94,5.94
459.48,6.89,0.94,6.97,1.02,-1.02,-0.78,-1.03,5.87,5.95,5.95
464.07,6.89,0.93,6.95,0.99,-0.99,-0.75,-1.00,5.90,5.97,5.97
468.71,6.89,0.91,6.94,0.95,-0.95,-0.72,-0.96,5.94,5.99,5.98
473.40,6.89,0.90,6.93,0.92,-0.92,-0.69,-0.93,5.97,6.00,5.99
478.13,6.89,0.87,6.92,0.89,-0.89,-0.66,-0.89,6.00,6.03,6.02
482.91,6.89,0.85,6.91,0.86,-0.86,-0.63,-0.85,6.03,6.05,6.04
487.74,6.89,0.82,6.89,0.82,-0.82,-0.59,-0.81,6.07,6.07,6.07
492.62,6.89,0.79,6.88,0.78,-0.78,-0.56,-0.76,6.11,6.10,6.10
497.55,6.89,0.77,6.88,0.75,-0.75,-0.53,-0.72,6.14,6.12,6.12
502.52,6.89,0.74,6.88,0.73,-0.73,-0.50,-0.67,6.16,6.15,6.15
