frequency,raw,error,smoothed,error_smoothed,equalization,parametric_eq,fixed_band_eq,equalized_raw,equalized_smoothed,target
20.00,-2.48,-7.13,-2.48,-7.13,7.14,6.42,1.45,4.66,4.66,4.65
20.20,-2.30,-7.00,-2.29,-7.00,7.00,6.31,1.50,4.70,4.71,4.70
20.40,-2.11,-6.87,-2.11,-6.86,6.86,6.19,1.54,4.75,4.75,4.75
20.61,-1.94,-6.72,-1.93,-6.72,6.72,6.07,1.59,4.78,4.79,4.78
20.81,-1.74,-6.58,-1.75,-6.58,6.58,5.95,1.64,4.83,4.83,4.83
21.02,-1.57,-6.44,-1.57,-6.44,6.43,5.82,1.68,4.87,4.86,4.87
21.23,-1.40,-6.29,-1.39,-6.29,6.29,5.70,1.73,4.89,4.89,4.89
21.44,-1.22,-6.14,-1.22,-6.14,6.14,5.57,1.79,4.92,4.92,4.91
21.66,-1.06,-5.99,-1.05,-5.98,5.99,5.44,1.84,4.93,4.94,4.93
21.87,-0.88,-5.83,-0.88,-5.83,5.84,5.32,1.89,4.95,4.95,4.94
22.09,-0.71,-5.68,-0.72,-5.68,5.68,5.19,1.95,4.97,4.96,4.96
22.31,-0.56,-5.54,-0.56,-5.53,5.53,5.07,2.01,4.96,4.97,4.97
22.54,-0.41,-5.38,-0.40,-5.38,5.37,4.95,2.07,4.96,4.97,4.97
22.76,-0.24,-5.22,-0.25,-5.22,5.22,4.83,2.13,4.97,4.97,4.97
22.99,-0.10,-5.06,-0.10,-5.06,5.07,4.71,2.19,4.97,4.97,4.96
23.22,0.05,-4.91,0.05,-4.91,4.92,4.59,2.25,4.97,4.97,4.96
23.45,0.20,-4.77,0.20,-4.77,4.77,4.48,2.32,4.97,4.97,4.96
23.69,0.34,-4.63,0.34,-4.63,4.63,4.37,2.38,4.97,4.97,4.97
23.92,0.49,-4.49,0.48,-4.49,4.49,4.26,2.45,4.98,4.97,4.97
24.16,0.62,-4.36,0.61,-4.36,4.36,4.15,2.52,4.97,4.97,4.97
24.40,0.74,-4.25,0.74,-4.24,4.23,4.04,2.59,4.97,4.98,4.98
24.65,0.86,-4.11,0.86,-4.11,4.12,3.94,2.66,4.98,4.98,4.97
24.89,0.99,-3.99,0.98,-4.00,4.01,3.84,2.73,4.99,4.99,4.97
25.14,1.09,-3.89,1.08,-3.89,3.90,3.75,2.81,4.99,4.99,4.97
25.39,1.18,-3.81,1.18,-3.81,3.81,3.65,2.88,4.98,4.98,4.98
25.65,1.25,-3.73,1.26,-3.72,3.72,3.56,2.95,4.97,4.98,4.98
25.91,1.34,-3.63,1.34,-3.64,3.63,3.48,3.02,4.98,4.97,4.97
26.16,1.43,-3.55,1.42,-3.55,3.56,3.39,3.10,4.98,4.98,4.97
26.43,1.49,-3.48,1.50,-3.48,3.48,3.31,3.17,4.97,4.98,4.97
26.69,1.56,-3.41,1.57,-3.41,3.41,3.23,3.24,4.97,4.97,4.97
26.96,1.63,-3.34,1.63,-3.34,3.34,3.15,3.31,4.97,4.97,4.97
27.23,1.70,-3.27,1.70,-3.27,3.26,3.08,3.38,4.97,4.97,4.97
27.50,1.77,-3.20,1.77,-3.20,3.19,3.00,3.45,4.97,4.96,4.97
27.77,1.84,-3.13,1.84,-3.13,3.12,2.93,3.51,4.95,4.96,4.96
28.05,1.90,-3.06,1.90,-3.06,3.05,2.87,3.57,4.95,4.95,4.96
28.33,1.97,-2.98,1.98,-2.98,2.98,2.80,3.63,4.96,4.96,4.95
28.62,2.04,-2.91,2.05,-2.91,2.92,2.74,3.69,4.96,4.97,4.95
28.90,2.12,-2.84,2.11,-2.85,2.86,2.68,3.74,4.98,4.97,4.96
29.19,2.16,-2.79,2.16,-2.80,2.81,2.62,3.79,4.97,4.97,4.95
29.48,2.19,-2.77,2.20,-2.76,2.77,2.56,3.84,4.96,4.97,4.96
29.78,2.23,-2.72,2.23,-2.73,2.73,2.51,3.87,4.96,4.96,4.95
30.08,2.26,-2.70,2.26,-2.70,2.70,2.46,3.91,4.96,4.96,4.96
30.38,2.28,-2.67,2.28,-2.67,2.66,2.41,3.94,4.95,4.95,4.95
30.68,2.30,-2.65,2.31,-2.65,2.63,2.36,3.96,4.94,4.94,4.95
30.99,2.33,-2.62,2.34,-2.61,2.60,2.32,3.98,4.93,4.93,4.95
31.30,2.37,-2.57,2.38,-2.57,2.56,2.27,3.99,4.93,4.94,4.94
31.61,2.42,-2.52,2.42,-2.52,2.52,2.23,4.00,4.95,4.94,4.94
31.93,2.46,-2.48,2.46,-2.48,2.49,2.19,4.00,4.95,4.95,4.94
32.24,2.49,-2.44,2.49,-2.44,2.45,2.16,4.00,4.95,4.94,4.93
32.57,2.51,-2.42,2.52,-2.42,2.42,2.12,3.99,4.94,4.94,4.93
32.89,2.53,-2.40,2.53,-2.40,2.40,2.09,3.97,4.94,4.93,4.93
33.22,2.54,-2.38,2.54,-2.38,2.39,2.06,3.95,4.94,4.94,4.92
33.55,2.54,-2.38,2.55,-2.37,2.39,2.03,3.93,4.94,4.94,4.92
33.89,2.54,-2.37,2.54,-2.38,2.40,2.00,3.90,4.94,4.93,4.91
34.23,2.51,-2.40,2.51,-2.40,2.41,1.98,3.87,4.92,4.92,4.91
34.57,2.47,-2.43,2.48,-2.43,2.42,1.95,3.83,4.89,4.90,4.90
34.92,2.43,-2.47,2.45,-2.46,2.43,1.93,3.79,4.87,4.88,4.90
35.27,2.43,-2.46,2.43,-2.46,2.44,1.91,3.75,4.88,4.87,4.89
35.62,2.43,-2.46,2.43,-2.46,2.44,1.90,3.71,4.88,4.88,4.89
35.97,2.44,-2.45,2.44,-2.45,2.44,1.88,3.66,4.89,4.88,4.89
36.33,2.44,-2.45,2.44,-2.45,2.44,1.87,3.61,4.88,4.88,4.89
36.70,2.44,-2.44,2.44,-2.44,2.44,1.85,3.57,4.89,4.89,4.88
37.06,2.44,-2.44,2.45,-2.44,2.45,1.85,3.52,4.90,4.90,4.88
37.43,2.44,-2.45,2.45,-2.43,2.47,1.84,3.47,4.92,4.93,4.89
37.81,2.45,-2.44,2.44,-2.45,2.50,1.83,3.42,4.96,4.94,4.89
38.19,2.40,-2.48,2.39,-2.51,2.53,1.83,3.37,4.94,4.92,4.88
38.57,2.31,-2.58,2.31,-2.58,2.56,1.83,3.32,4.88,4.88,4.89
38.95,2.21,-2.69,2.25,-2.65,2.59,1.83,3.27,4.81,4.84,4.90
39.34,2.21,-2.68,2.22,-2.68,2.62,1.84,3.23,4.83,4.84,4.89
39.74,2.23,-2.66,2.22,-2.67,2.64,1.84,3.18,4.88,4.86,4.89
40.14,2.24,-2.65,2.24,-2.65,2.66,1.85,3.14,4.91,4.91,4.89
40.54,2.24,-2.65,2.25,-2.64,2.68,1.86,3.09,4.92,4.93,4.89
40.94,2.24,-2.64,2.23,-2.65,2.69,1.88,3.05,4.94,4.93,4.88
41.35,2.20,-2.68,2.21,-2.68,2.70,1.90,3.01,4.91,4.91,4.88
41.76,2.16,-2.71,2.17,-2.71,2.71,1.92,2.98,4.88,4.88,4.87
42.18,2.12,-2.75,2.12,-2.75,2.73,1.94,2.94,4.86,4.85,4.87
42.60,2.08,-2.78,2.08,-2.78,2.75,1.96,2.91,4.84,4.84,4.86
43.03,2.04,-2.81,2.06,-2.79,2.78,1.99,2.88,4.82,4.84,4.85
43.46,2.04,-2.80,2.05,-2.79,2.80,2.03,2.85,4.85,4.85,4.84
43.90,2.04,-2.78,2.02,-2.80,2.82,2.06,2.82,4.86,4.84,4.82
44.33,1.99,-2.81,1.99,-2.82,2.83,2.10,2.80,4.82,4.81,4.80
44.78,1.92,-2.86,1.94,-2.84,2.84,2.14,2.78,4.76,4.78,4.78
45.23,1.90,-2.87,1.92,-2.86,2.84,2.19,2.76,4.74,4.76,4.77
45.68,1.91,-2.85,1.91,-2.85,2.85,2.24,2.74,4.76,4.75,4.76
46.13,1.91,-2.83,1.90,-2.85,2.85,2.29,2.72,4.77,4.75,4.74
46.60,1.87,-2.87,1.88,-2.86,2.87,2.34,2.71,4.74,4.75,4.74
47.06,1.84,-2.88,1.86,-2.87,2.88,2.40,2.70,4.73,4.74,4.72
47.53,1.83,-2.88,1.84,-2.88,2.90,2.46,2.69,4.73,4.74,4.71
48.01,1.83,-2.88,1.81,-2.90,2.91,2.52,2.68,4.75,4.72,4.71
48.49,1.76,-2.93,1.76,-2.93,2.93,2.59,2.68,4.70,4.69,4.69
48.97,1.68,-2.99,1.71,-2.97,2.95,2.65,2.67,4.64,4.66,4.67
49.46,1.66,-2.99,1.66,-3.00,2.97,2.72,2.67,4.63,4.63,4.65
49.96,1.63,-3.00,1.64,-2.99,2.99,2.79,2.67,4.62,4.63,4.63
50.46,1.63,-2.99,1.64,-2.99,3.00,2.85,2.67,4.63,4.63,4.62
50.96,1.63,-2.98,1.61,-3.00,3.01,2.92,2.67,4.64,4.61,4.61
51.47,1.57,-3.02,1.57,-3.02,3.02,2.98,2.67,4.59,4.59,4.59
51.99,1.52,-3.07,1.56,-3.02,3.03,3.04,2.68,4.54,4.59,4.58
52.51,1.55,-3.02,1.55,-3.02,3.04,3.09,2.68,4.59,4.59,4.57
53.03,1.59,-2.98,1.54,-3.03,3.05,3.13,2.68,4.64,4.59,4.57
53.56,1.50,-3.05,1.51,-3.04,3.06,3.17,2.69,4.56,4.57,4.55
54.10,1.43,-3.11,1.47,-3.08,3.07,3.20,2.69,4.50,4.53,4.54
54.64,1.43,-3.09,1.43,-3.10,3.07,3.21,2.70,4.51,4.50,4.52
55.18,1.43,-3.09,1.43,-3.09,3.07,3.22,2.70,4.51,4.50,4.52
55.74,1.43,-3.07,1.43,-3.07,3.07,3.22,2.70,4.50,4.50,4.50
56.29,1.43,-3.06,1.43,-3.06,3.06,3.20,2.70,4.50,4.50,4.49
56.86,1.43,-3.05,1.43,-3.04,3.05,3.17,2.70,4.49,4.49,4.48
57.42,1.43,-3.02,1.43,-3.03,3.04,3.14,2.70,4.47,4.47,4.45
58.00,1.43,-3.01,1.43,-3.01,3.02,3.09,2.70,4.45,4.45,4.44
58.58,1.43,-3.00,1.43,-3.00,3.00,3.03,2.69,4.43,4.43,4.43
59.16,1.43,-2.98,1.43,-2.98,2.97,2.96,2.68,4.41,4.41,4.41
59.76,1.43,-2.96,1.43,-2.95,2.95,2.89,2.67,4.38,4.38,4.39
60.35,1.43,-2.92,1.43,-2.92,2.91,2.80,2.65,4.35,4.35,4.35
60.96,1.43,-2.88,1.43,-2.88,2.88,2.72,2.64,4.31,4.31,4.31
61.57,1.43,-2.84,1.43,-2.84,2.84,2.63,2.62,4.28,4.28,4.27
62.18,1.43,-2.80,1.43,-2.80,2.80,2.53,2.59,4.24,4.24,4.23
62.80,1.43,-2.75,1.43,-2.75,2.76,2.44,2.57,4.19,4.19,4.18
63.43,1.43,-2.71,1.43,-2.71,2.71,2.34,2.54,4.15,4.15,4.14
64.07,1.43,-2.66,1.43,-2.66,2.67,2.24,2.50,4.11,4.11,4.09
64.71,1.43,-2.62,1.43,-2.62,2.63,2.15,2.47,4.06,4.06,4.05
65.35,1.43,-2.58,1.43,-2.58,2.58,2.05,2.43,4.01,4.01,4.01
66.01,1.43,-2.53,1.43,-2.53,2.52,1.96,2.38,3.96,3.95,3.96
66.67,1.43,-2.48,1.44,-2.47,2.46,1.87,2.34,3.89,3.90,3.91
67.33,1.45,-2.41,1.46,-2.41,2.39,1.78,2.29,3.85,3.85,3.86
68.01,1.50,-2.32,1.49,-2.33,2.32,1.70,2.24,3.82,3.80,3.82
68.69,1.51,-2.26,1.53,-2.24,2.24,1.61,2.19,3.76,3.77,3.77
69.37,1.56,-2.16,1.58,-2.15,2.17,1.53,2.13,3.73,3.74,3.72
70.07,1.63,-2.04,1.61,-2.07,2.09,1.45,2.07,3.73,3.70,3.67
70.77,1.63,-1.99,1.64,-1.99,2.02,1.38,2.01,3.65,3.65,3.62
71.48,1.63,-1.94,1.64,-1.93,1.94,1.31,1.95,3.57,3.58,3.57
72.19,1.63,-1.87,1.63,-1.88,1.85,1.24,1.89,3.49,3.49,3.50
72.91,1.63,-1.81,1.64,-1.81,1.77,1.17,1.82,3.40,3.41,3.44
73.64,1.66,-1.73,1.67,-1.72,1.69,1.11,1.76,3.35,3.35,3.39
74.38,1.71,-1.62,1.72,-1.61,1.60,1.05,1.69,3.32,3.32,3.33
75.12,1.77,-1.50,1.78,-1.50,1.52,0.99,1.62,3.30,3.30,3.27
75.87,1.83,-1.38,1.82,-1.40,1.44,0.93,1.56,3.27,3.26,3.21
76.63,1.84,-1.32,1.84,-1.32,1.36,0.88,1.49,3.20,3.20,3.16
77.40,1.84,-1.27,1.84,-1.27,1.27,0.83,1.42,3.12,3.11,3.11
78.17,1.84,-1.21,1.85,-1.21,1.19,0.78,1.35,3.03,3.04,3.05
78.95,1.84,-1.17,1.87,-1.14,1.11,0.73,1.28,2.96,2.98,3.01
79.74,1.91,-1.05,1.90,-1.07,1.04,0.68,1.21,2.95,2.93,2.96
80.54,1.94,-0.97,1.94,-0.97,0.97,0.64,1.15,2.91,2.91,2.91
81.35,1.97,-0.89,1.99,-0.87,0.90,0.60,1.08,2.87,2.89,2.86
82.16,2.04,-0.77,2.02,-0.79,0.83,0.55,1.01,2.87,2.85,2.81
82.98,2.04,-0.73,2.04,-0.73,0.75,0.51,0.94,2.80,2.79,2.77
83.81,2.04,-0.68,2.05,-0.68,0.67,0.47,0.87,2.72,2.72,2.72
84.65,2.04,-0.63,2.05,-0.63,0.59,0.44,0.81,2.64,2.65,2.67
85.50,2.07,-0.56,2.08,-0.56,0.52,0.40,0.74,2.59,2.59,2.63
86.35,2.12,-0.46,2.12,-0.46,0.44,0.36,0.67,2.56,2.56,2.58
87.22,2.16,-0.37,2.18,-0.36,0.36,0.33,0.61,2.53,2.54,2.53
88.09,2.24,-0.24,2.22,-0.26,0.29,0.29,0.54,2.53,2.51,2.48
88.97,2.24,-0.18,2.24,-0.18,0.21,0.26,0.48,2.45,2.45,2.42
89.86,2.24,-0.13,2.25,-0.12,0.14,0.23,0.41,2.38,2.39,2.37
90.76,2.24,-0.08,2.25,-0.08,0.08,0.20,0.35,2.32,2.32,2.32
91.66,2.24,-0.03,2.25,-0.02,0.03,0.17,0.28,2.27,2.27,2.27
92.58,2.25,0.04,2.25,0.04,-0.02,0.14,0.22,2.23,2.23,2.21
93.51,2.25,0.09,2.25,0.09,-0.07,0.11,0.15,2.18,2.18,2.16
94.44,2.25,0.13,2.24,0.13,-0.13,0.08,0.09,2.12,2.11,2.12
95.39,2.23,0.16,2.22,0.15,-0.20,0.05,0.03,2.03,2.02,2.07
96.34,2.21,0.19,2.23,0.21,-0.27,0.02,-0.03,1.94,1.96,2.02
97.30,2.25,0.27,2.29,0.32,-0.34,-0.01,-0.10,1.91,1.95,1.97
98.28,2.39,0.47,2.36,0.43,-0.41,-0.04,-0.16,1.99,1.95,1.92
99.26,2.45,0.57,2.41,0.53,-0.48,-0.07,-0.22,1.98,1.94,1.88
100.25,2.40,0.57,2.42,0.59,-0.54,-0.09,-0.28,1.86,1.88,1.83
101.25,2.37,0.59,2.39,0.61,-0.61,-0.12,-0.34,1.77,1.78,1.78
102.27,2.36,0.63,2.36,0.63,-0.66,-0.15,-0.40,1.71,1.70,1.73
103.29,2.35,0.67,2.35,0.66,-0.69,-0.17,-0.46,1.67,1.66,1.68
104.32,2.33,0.69,2.35,0.70,-0.70,-0.20,-0.51,1.64,1.65,1.64
105.37,2.32,0.73,2.33,0.74,-0.70,-0.23,-0.57,1.63,1.63,1.59
106.42,2.30,0.76,2.28,0.74,-0.69,-0.25,-0.62,1.61,1.59,1.54
107.48,2.21,0.73,2.20,0.71,-0.69,-0.28,-0.68,1.53,1.51,1.48
108.56,2.09,0.66,2.10,0.67,-0.69,-0.31,-0.73,1.41,1.41,1.43
109.64,1.99,0.61,2.02,0.64,-0.69,-0.33,-0.78,1.30,1.33,1.38
110.74,1.97,0.65,1.98,0.65,-0.70,-0.36,-0.83,1.28,1.28,1.32
111.85,1.98,0.70,1.97,0.69,-0.71,-0.39,-0.88,1.27,1.25,1.28
112.97,1.97,0.75,1.97,0.75,-0.75,-0.42,-0.93,1.23,1.23,1.22
114.10,1.96,0.79,1.97,0.79,-0.79,-0.44,-0.97,1.18,1.18,1.17
115.24,1.96,0.84,1.96,0.84,-0.84,-0.47,-1.02,1.12,1.12,1.12
116.39,1.96,0.89,1.96,0.88,-0.89,-0.50,-1.06,1.08,1.07,1.07
117.55,1.96,0.93,1.98,0.94,-0.92,-0.53,-1.10,1.04,1.05,1.03
118.73,1.97,0.98,1.99,0.99,-0.95,-0.55,-1.13,1.02,1.04,0.99
119.92,2.01,1.05,1.97,1.01,-0.97,-0.58,-1.16,1.04,1.00,0.96
121.12,1.93,1.01,1.92,1.00,-0.99,-0.61,-1.20,0.94,0.93,0.92
122.33,1.83,0.94,1.86,0.97,-1.00,-0.64,-1.22,0.83,0.86,0.89
123.55,1.79,0.93,1.81,0.95,-1.00,-0.67,-1.25,0.79,0.80,0.86
124.79,1.81,0.98,1.81,0.97,-1.00,-0.69,-1.27,0.82,0.81,0.83
126.03,1.81,1.01,1.83,1.03,-0.99,-0.72,-1.29,0.83,0.85,0.80
127.29,1.84,1.06,1.82,1.04,-0.98,-0.75,-1.31,0.86,0.83,0.78
128.57,1.80,1.06,1.75,1.01,-0.99,-0.78,-1.33,0.82,0.77,0.74
129.85,1.62,0.91,1.69,0.97,-1.00,-0.81,-1.34,0.63,0.69,0.71
131.15,1.61,0.93,1.63,0.95,-1.01,-0.84,-1.35,0.61,0.62,0.68
132.46,1.63,0.98,1.62,0.96,-1.01,-0.87,-1.36,0.63,0.61,0.65
133.79,1.64,1.02,1.66,1.03,-1.00,-0.90,-1.36,0.65,0.66,0.62
135.12,1.65,1.06,1.65,1.05,-0.99,-0.94,-1.37,0.66,0.66,0.59
136.48,1.64,1.07,1.60,1.03,-0.99,-0.97,-1.37,0.65,0.61,0.57
137.84,1.50,0.97,1.54,1.00,-1.01,-1.00,-1.37,0.50,0.53,0.53
139.22,1.46,0.96,1.48,0.98,-1.02,-1.03,-1.37,0.44,0.46,0.50
140.61,1.46,0.99,1.45,0.98,-1.03,-1.06,-1.37,0.44,0.42,0.47
142.02,1.46,1.01,1.46,1.01,-1.03,-1.09,-1.36,0.44,0.43,0.45
143.44,1.46,1.04,1.47,1.05,-1.02,-1.12,-1.36,0.44,0.45,0.42
144.87,1.46,1.08,1.47,1.09,-1.03,-1.16,-1.35,0.44,0.45,0.38
146.32,1.47,1.13,1.43,1.09,-1.04,-1.19,-1.35,0.44,0.40,0.34
147.78,1.37,1.06,1.37,1.06,-1.06,-1.22,-1.34,0.32,0.31,0.31
149.26,1.27,1.01,1.31,1.05,-1.08,-1.25,-1.34,0.19,0.23,0.26
150.75,1.25,1.05,1.26,1.06,-1.11,-1.29,-1.33,0.14,0.15,0.20
152.26,1.26,1.13,1.25,1.12,-1.15,-1.32,-1.32,0.11,0.10,0.13
153.78,1.26,1.20,1.26,1.20,-1.21,-1.35,-1.31,0.06,0.06,0.06
155.32,1.26,1.27,1.27,1.27,-1.28,-1.38,-1.31,-0.01,-0.01,-0.01
156.88,1.26,1.35,1.26,1.35,-1.35,-1.41,-1.30,-0.09,-0.09,-0.09
158.44,1.26,1.43,1.27,1.43,-1.43,-1.44,-1.30,-0.17,-0.17,-0.17
160.03,1.26,1.51,1.28,1.52,-1.50,-1.47,-1.29,-0.24,-0.22,-0.25
161.63,1.28,1.60,1.28,1.59,-1.56,-1.50,-1.29,-0.27,-0.28,-0.32
163.24,1.28,1.66,1.26,1.64,-1.59,-1.53,-1.28,-0.31,-0.33,-0.38
164.88,1.20,1.63,1.23,1.65,-1.61,-1.56,-1.28,-0.41,-0.39,-0.43
166.53,1.16,1.64,1.16,1.63,-1.63,-1.59,-1.28,-0.46,-0.47,-0.48
168.19,1.10,1.62,1.09,1.60,-1.63,-1.62,-1.28,-0.53,-0.54,-0.52
169.87,1.00,1.56,1.04,1.59,-1.62,-1.65,-1.28,-0.62,-0.58,-0.56
171.57,1.01,1.59,1.01,1.59,-1.62,-1.67,-1.28,-0.60,-0.60,-0.58
173.29,1.02,1.61,1.01,1.60,-1.61,-1.70,-1.28,-0.58,-0.60,-0.59
175.02,1.01,1.61,1.02,1.62,-1.60,-1.72,-1.29,-0.59,-0.59,-0.60
176.77,1.01,1.62,1.01,1.62,-1.60,-1.74,-1.29,-0.59,-0.59,-0.61
178.54,1.01,1.63,1.01,1.62,-1.61,-1.76,-1.29,-0.60,-0.60,-0.62
180.32,1.01,1.62,1.02,1.62,-1.62,-1.78,-1.30,-0.61,-0.60,-0.61
182.13,1.02,1.62,1.02,1.63,-1.63,-1.80,-1.31,-0.61,-0.61,-0.60
183.95,1.03,1.64,1.03,1.64,-1.65,-1.82,-1.32,-0.61,-0.61,-0.61
185.79,1.04,1.65,1.05,1.66,-1.66,-1.83,-1.33,-0.62,-0.62,-0.61
187.65,1.06,1.69,1.06,1.68,-1.69,-1.85,-1.34,-0.62,-0.63,-0.63
189.52,1.07,1.71,1.07,1.71,-1.72,-1.86,-1.35,-0.64,-0.64,-0.64
191.42,1.08,1.74,1.09,1.74,-1.75,-1.87,-1.36,-0.67,-0.66,-0.66
193.33,1.10,1.78,1.10,1.78,-1.79,-1.87,-1.37,-0.68,-0.69,-0.68
195.27,1.11,1.81,1.12,1.81,-1.82,-1.88,-1.39,-0.70,-0.70,-0.70
197.22,1.13,1.85,1.14,1.86,-1.84,-1.89,-1.40,-0.71,-0.70,-0.72
199.19,1.15,1.89,1.16,1.89,-1.87,-1.89,-1.42,-0.71,-0.71,-0.74
201.18,1.18,1.94,1.15,1.90,-1.88,-1.89,-1.43,-0.70,-0.73,-0.76
203.19,1.10,1.88,1.11,1.89,-1.89,-1.89,-1.45,-0.78,-0.77,-0.78
205.23,1.05,1.85,1.08,1.87,-1.88,-1.88,-1.47,-0.83,-0.80,-0.80
207.28,1.05,1.86,1.06,1.87,-1.87,-1.88,-1.48,-0.82,-0.82,-0.81
209.35,1.05,1.88,1.04,1.87,-1.86,-1.87,-1.50,-0.81,-0.82,-0.83
211.44,1.03,1.89,1.00,1.85,-1.85,-1.86,-1.52,-0.81,-0.84,-0.86
213.56,0.93,1.80,0.96,1.83,-1.84,-1.85,-1.54,-0.90,-0.87,-0.87
215.69,0.91,1.79,0.93,1.81,-1.83,-1.84,-1.55,-0.92,-0.90,-0.88
217.85,0.94,1.83,0.92,1.81,-1.84,-1.83,-1.57,-0.89,-0.91,-0.89
220.03,0.93,1.83,0.93,1.84,-1.84,-1.82,-1.59,-0.91,-0.91,-0.90
222.23,0.93,1.86,0.94,1.85,-1.84,-1.80,-1.60,-0.91,-0.91,-0.93
224.45,0.93,1.85,0.93,1.85,-1.85,-1.78,-1.62,-0.91,-0.92,-0.92
226.70,0.93,1.85,0.94,1.85,-1.85,-1.76,-1.63,-0.92,-0.91,-0.92
228.96,0.93,1.84,0.96,1.86,-1.85,-1.74,-1.64,-0.91,-0.89,-0.91
231.25,0.97,1.87,0.96,1.85,-1.84,-1.72,-1.65,-0.86,-0.88,-0.90
233.57,0.97,1.86,0.94,1.83,-1.81,-1.70,-1.66,-0.84,-0.87,-0.89
235.90,0.87,1.75,0.92,1.80,-1.78,-1.68,-1.67,-0.91,-0.86,-0.88
238.26,0.88,1.75,0.89,1.75,-1.75,-1.65,-1.68,-0.86,-0.85,-0.87
240.64,0.90,1.74,0.87,1.70,-1.71,-1.63,-1.68,-0.81,-0.85,-0.84
243.05,0.85,1.66,0.86,1.67,-1.68,-1.61,-1.68,-0.83,-0.83,-0.81
245.48,0.81,1.60,0.84,1.62,-1.66,-1.58,-1.68,-0.84,-0.82,-0.79
247.93,0.84,1.60,0.84,1.60,-1.64,-1.55,-1.68,-0.79,-0.79,-0.76
250.41,0.87,1.61,0.86,1.60,-1.61,-1.53,-1.68,-0.74,-0.75,-0.74
252.92,0.89,1.60,0.90,1.61,-1.59,-1.50,-1.67,-0.70,-0.69,-0.71
255.45,0.91,1.60,0.92,1.61,-1.57,-1.47,-1.66,-0.66,-0.65,-0.69
258.00,0.94,1.61,0.92,1.58,-1.55,-1.45,-1.65,-0.61,-0.63,-0.67
260.58,0.89,1.54,0.89,1.54,-1.53,-1.42,-1.64,-0.63,-0.63,-0.65
263.19,0.84,1.46,0.86,1.48,-1.50,-1.39,-1.63,-0.65,-0.64,-0.62
265.82,0.82,1.42,0.83,1.42,-1.45,-1.37,-1.61,-0.63,-0.63,-0.60
268.48,0.81,1.39,0.82,1.39,-1.40,-1.34,-1.59,-0.59,-0.58,-0.58
271.16,0.81,1.36,0.82,1.37,-1.34,-1.31,-1.57,-0.53,-0.53,-0.55
273.87,0.81,1.34,0.79,1.31,-1.28,-1.28,-1.55,-0.46,-0.49,-0.53
276.61,0.74,1.24,0.75,1.24,-1.22,-1.26,-1.53,-0.47,-0.47,-0.50
279.38,0.68,1.15,0.69,1.16,-1.16,-1.23,-1.50,-0.48,-0.47,-0.47
282.17,0.63,1.08,0.64,1.08,-1.11,-1.21,-1.48,-0.48,-0.47,-0.45
284.99,0.61,1.02,0.62,1.03,-1.07,-1.18,-1.45,-0.45,-0.45,-0.41
287.84,0.62,1.01,0.62,1.00,-1.02,-1.15,-1.43,-0.40,-0.40,-0.39
290.72,0.63,0.99,0.63,0.99,-0.99,-1.13,-1.40,-0.35,-0.36,-0.36
293.63,0.64,0.97,0.65,0.97,-0.96,-1.10,-1.37,-0.32,-0.32,-0.33
296.57,0.66,0.96,0.66,0.96,-0.95,-1.08,-1.34,-0.29,-0.29,-0.30
299.53,0.67,0.94,0.67,0.94,-0.94,-1.05,-1.31,-0.26,-0.26,-0.27
302.53,0.68,0.93,0.69,0.93,-0.93,-1.03,-1.28,-0.24,-0.24,-0.25
305.55,0.69,0.90,0.69,0.91,-0.91,-1.01,-1.26,-0.21,-0.21,-0.21
308.61,0.70,0.89,0.71,0.89,-0.88,-0.98,-1.23,-0.18,-0.17,-0.19
311.69,0.71,0.87,0.72,0.87,-0.85,-0.96,-1.20,-0.14,-0.14,-0.16
314.81,0.72,0.86,0.70,0.84,-0.82,-0.94,-1.17,-0.10,-0.12,-0.14
317.96,0.67,0.79,0.67,0.79,-0.79,-0.92,-1.14,-0.12,-0.12,-0.12
321.14,0.62,0.73,0.64,0.74,-0.76,-0.90,-1.11,-0.13,-0.12,-0.11
324.35,0.61,0.70,0.62,0.70,-0.73,-0.88,-1.09,-0.11,-0.11,-0.09
327.59,0.61,0.69,0.61,0.69,-0.70,-0.85,-1.06,-0.08,-0.09,-0.08
330.87,0.61,0.68,0.61,0.67,-0.67,-0.84,-1.03,-0.06,-0.06,-0.07
334.18,0.61,0.66,0.61,0.66,-0.65,-0.82,-1.01,-0.04,-0.04,-0.05
337.52,0.60,0.64,0.61,0.64,-0.64,-0.80,-0.98,-0.03,-0.03,-0.04
340.90,0.60,0.63,0.60,0.63,-0.63,-0.78,-0.96,-0.03,-0.03,-0.03
344.30,0.60,0.62,0.60,0.62,-0.62,-0.76,-0.93,-0.02,-0.02,-0.02
347.75,0.60,0.62,0.60,0.62,-0.62,-0.74,-0.91,-0.02,-0.02,-0.02
351.23,0.60,0.61,0.61,0.62,-0.62,-0.72,-0.89,-0.01,-0.01,-0.01
354.74,0.61,0.63,0.61,0.62,-0.62,-0.71,-0.87,-0.00,-0.01,-0.02
358.28,0.61,0.62,0.62,0.62,-0.62,-0.69,-0.84,-0.01,-0.00,-0.01
361.87,0.62,0.63,0.62,0.63,-0.63,-0.67,-0.82,-0.00,-0.01,-0.01
365.49,0.62,0.62,0.63,0.63,-0.63,-0.66,-0.80,-0.01,-0.01,0.00
369.14,0.63,0.64,0.64,0.64,-0.64,-0.64,-0.78,-0.01,-0.00,-0.01
372.83,0.64,0.65,0.64,0.65,-0.65,-0.63,-0.77,-0.00,-0.01,-0.01
376.56,0.65,0.67,0.65,0.66,-0.66,-0.61,-0.75,-0.00,-0.01,-0.02
380.33,0.65,0.66,0.66,0.67,-0.67,-0.60,-0.73,-0.01,-0.01,-0.01
384.13,0.66,0.67,0.66,0.67,-0.67,-0.59,-0.71,-0.01,-0.01,-0.01
387.97,0.66,0.68,0.67,0.68,-0.68,-0.57,-0.70,-0.02,-0.01,-0.02
391.85,0.67,0.70,0.67,0.69,-0.69,-0.56,-0.68,-0.01,-0.01,-0.03
395.77,0.67,0.69,0.67,0.70,-0.69,-0.55,-0.67,-0.01,-0.01,-0.02
399.73,0.67,0.70,0.67,0.70,-0.69,-0.53,-0.65,-0.02,-0.02,-0.03
403.72,0.67,0.70,0.67,0.70,-0.70,-0.52,-0.64,-0.03,-0.03,-0.03
407.76,0.66,0.71,0.66,0.70,-0.71,-0.51,-0.63,-0.05,-0.05,-0.05
411.84,0.66,0.71,0.66,0.71,-0.73,-0.50,-0.61,-0.06,-0.07,-0.05
415.96,0.66,0.71,0.68,0.73,-0.74,-0.49,-0.60,-0.08,-0.06,-0.05
420.12,0.71,0.76,0.71,0.76,-0.76,-0.48,-0.59,-0.05,-0.05,-0.05
424.32,0.76,0.81,0.75,0.79,-0.78,-0.47,-0.58,-0.01,-0.03,-0.05
428.56,0.78,0.82,0.78,0.82,-0.80,-0.46,-0.57,-0.01,-0.02,-0.04
432.85,0.79,0.82,0.80,0.83,-0.82,-0.45,-0.56,-0.03,-0.02,-0.03
437.18,0.82,0.84,0.82,0.83,-0.84,-0.44,-0.55,-0.02,-0.02,-0.02
441.55,0.85,0.83,0.86,0.84,-0.86,-0.43,-0.54,-0.01,-0.00,0.02
445.96,0.90,0.85,0.90,0.85,-0.87,-0.42,-0.53,0.04,0.04,0.05
450.42,0.95,0.87,0.96,0.87,-0.86,-0.41,-0.52,0.09,0.10,0.08
454.93,1.01,0.88,1.02,0.89,-0.85,-0.40,-0.51,0.16,0.16,0.13
459.48,1.07,0.90,1.05,0.88,-0.84,-0.39,-0.50,0.23,0.21,0.17
464.07,1.06,0.84,1.07,0.84,-0.82,-0.38,-0.49,0.24,0.24,0.22
468.71,1.06,0.78,1.07,0.79,-0.81,-0.37,-0.48,0.26,0.26,0.28
473.40,1.06,0.74,1.08,0.74,-0.78,-0.37,-0.47,0.28,0.29,0.32
478.13,1.10,0.72,1.11,0.73,-0.76,-0.36,-0.47,0.35,0.35,0.38
482.91,1.15,0.73,1.15,0.73,-0.73,-0.35,-0.46,0.42,0.42,0.42
487.74,1.19,0.73,1.19,0.72,-0.71,-0.34,-0.45,0.49,0.49,0.46
492.62,1.22,0.71,1.21,0.71,-0.69,-0.34,-0.44,0.53,0.52,0.51
497.55,1.21,0.68,1.21,0.67,-0.68,-0.33,-0.43,0.54,0.54,0.53
502.52,1.19,0.63,1.20,0.64,-0.66,-0.32,-0.42,0.54,0.55,0.56
507.55,1.19,0.62,1.21,0.63,-0.63,-0.32,-0.42,0.56,0.58,0.57
512.62,1.21,0.63,1.22,0.63,-0.61,-0.31,-0.41,0.61,0.61,0.58
517.75,1.22,0.63,1.19,0.60,-0.58,-0.31,-0.40,0.65,0.61,0.59
522.93,1.13,0.55,1.13,0.55,-0.55,-0.30,-0.39,0.59,0.58,0.58
528.16,1.02,0.47,1.06,0.50,-0.52,-0.29,-0.38,0.50,0.54,0.55
