frequency,raw,error,smoothed,error_smoothed,equalization,parametric_eq,fixed_band_eq,equalized_raw,equalized_smoothed,target
20.00,29.00,16.87,29.01,16.85,-16.85,-16.14,-9.09,12.15,12.16,12.13
20.20,29.06,16.89,29.06,16.87,-16.87,-16.21,-9.28,12.19,12.19,12.17
20.40,29.11,16.90,29.11,16.90,-16.90,-16.28,-9.47,12.22,12.22,12.21
20.61,29.17,16.93,29.17,16.92,-16.92,-16.35,-9.67,12.25,12.25,12.24
20.81,29.22,16.94,29.22,16.95,-16.95,-16.41,-9.87,12.27,12.27,12.28
21.02,29.27,16.95,29.27,16.97,-16.97,-16.48,-10.08,12.30,12.30,12.32
21.23,29.32,16.98,29.33,17.00,-17.00,-16.55,-10.30,12.32,12.32,12.34
21.44,29.38,17.02,29.38,17.03,-17.03,-16.61,-10.51,12.35,12.35,12.36
21.66,29.43,17.05,29.43,17.06,-17.06,-16.68,-10.74,12.37,12.37,12.38
21.87,29.48,17.09,29.48,17.09,-17.09,-16.75,-10.97,12.39,12.39,12.39
22.09,29.53,17.12,29.53,17.12,-17.12,-16.81,-11.20,12.41,12.41,12.41
22.31,29.57,17.15,29.57,17.15,-17.15,-16.87,-11.45,12.42,12.42,12.42
22.54,29.63,17.20,29.62,17.19,-17.19,-16.94,-11.69,12.44,12.43,12.43
22.76,29.68,17.24,29.67,17.22,-17.22,-17.00,-11.95,12.46,12.45,12.44
22.99,29.71,17.27,29.71,17.26,-17.26,-17.06,-12.21,12.45,12.45,12.44
23.22,29.74,17.29,29.76,17.29,-17.29,-17.12,-12.48,12.45,12.46,12.45
23.45,29.79,17.33,29.80,17.33,-17.33,-17.18,-12.76,12.46,12.47,12.46
23.69,29.84,17.37,29.85,17.36,-17.36,-17.24,-13.04,12.48,12.48,12.47
23.92,29.89,17.41,29.89,17.40,-17.40,-17.30,-13.33,12.49,12.49,12.48
24.16,29.94,17.44,29.93,17.44,-17.44,-17.35,-13.63,12.51,12.50,12.50
24.40,29.98,17.46,29.98,17.47,-17.47,-17.41,-13.94,12.51,12.51,12.52
24.65,30.02,17.51,30.02,17.51,-17.51,-17.47,-14.25,12.52,12.52,12.51
24.89,30.06,17.54,30.07,17.54,-17.54,-17.52,-14.58,12.52,12.53,12.52
25.14,30.10,17.57,30.12,17.58,-17.58,-17.57,-14.91,12.52,12.54,12.53
25.39,30.15,17.61,30.17,17.62,-17.62,-17.63,-15.25,12.54,12.55,12.54
25.65,30.21,17.65,30.21,17.66,-17.66,-17.68,-15.60,12.56,12.56,12.56
25.91,30.26,17.70,30.26,17.69,-17.69,-17.73,-15.96,12.57,12.57,12.56
26.16,30.30,17.73,30.31,17.73,-17.73,-17.78,-16.33,12.57,12.58,12.57
26.43,30.35,17.77,30.35,17.76,-17.76,-17.82,-16.71,12.59,12.59,12.58
26.69,30.39,17.80,30.39,17.80,-17.80,-17.87,-17.09,12.59,12.60,12.59
26.96,30.44,17.83,30.43,17.83,-17.83,-17.92,-17.48,12.61,12.60,12.61
27.23,30.49,17.87,30.47,17.86,-17.86,-17.96,-17.88,12.63,12.61,12.62
27.50,30.53,17.91,30.51,17.89,-17.89,-18.00,-18.28,12.65,12.62,12.62
27.77,30.56,17.94,30.54,17.91,-17.91,-18.05,-18.69,12.65,12.63,12.62
28.05,30.58,17.94,30.57,17.93,-17.93,-18.09,-19.09,12.65,12.64,12.64
28.33,30.60,17.96,30.60,17.95,-17.95,-18.13,-19.50,12.65,12.65,12.64
28.62,30.62,17.97,30.63,17.97,-17.97,-18.16,-19.89,12.65,12.66,12.65
28.90,30.64,17.98,30.65,17.99,-17.99,-18.20,-20.28,12.65,12.66,12.66
29.19,30.67,18.01,30.68,18.00,-18.00,-18.24,-20.64,12.67,12.67,12.66
29.48,30.69,18.00,30.70,18.02,-18.02,-18.27,-20.99,12.67,12.68,12.69
29.78,30.72,18.04,30.72,18.04,-18.04,-18.30,-21.30,12.68,12.69,12.68
30.08,30.74,18.05,30.75,18.05,-18.05,-18.33,-21.58,12.69,12.69,12.69
30.38,30.76,18.07,30.77,18.07,-18.07,-18.36,-21.81,12.69,12.70,12.69
30.68,30.78,18.07,30.80,18.09,-18.09,-18.39,-21.99,12.69,12.71,12.71
30.99,30.81,18.10,30.82,18.11,-18.11,-18.42,-22.12,12.70,12.71,12.71
31.30,30.84,18.13,30.85,18.13,-18.13,-18.44,-22.19,12.71,12.72,12.71
31.61,30.87,18.15,30.88,18.15,-18.15,-18.47,-22.21,12.72,12.73,12.72
31.93,30.90,18.17,30.90,18.16,-18.16,-18.49,-22.17,12.74,12.74,12.73
32.24,30.92,18.19,30.92,18.18,-18.18,-18.51,-22.08,12.74,12.74,12.73
32.57,30.95,18.20,30.94,18.19,-18.19,-18.53,-21.94,12.76,12.75,12.75
32.89,30.97,18.22,30.96,18.20,-18.20,-18.54,-21.77,12.77,12.76,12.75
33.22,30.99,18.23,30.97,18.21,-18.21,-18.56,-21.57,12.78,12.76,12.76
33.55,31.00,18.23,30.99,18.21,-18.21,-18.57,-21.34,12.79,12.77,12.77
33.89,31.01,18.23,31.00,18.22,-18.22,-18.59,-21.10,12.79,12.78,12.78
34.23,31.01,18.23,31.00,18.22,-18.22,-18.60,-20.85,12.79,12.78,12.78
34.57,31.00,18.21,31.01,18.21,-18.21,-18.61,-20.59,12.79,12.79,12.79
34.92,31.00,18.21,31.01,18.21,-18.21,-18.62,-20.32,12.79,12.80,12.79
35.27,31.00,18.20,31.01,18.20,-18.20,-18.62,-20.06,12.80,12.80,12.80
35.62,30.99,18.19,31.00,18.20,-18.20,-18.63,-19.81,12.79,12.80,12.80
35.97,30.99,18.19,31.00,18.19,-18.19,-18.63,-19.56,12.80,12.81,12.80
36.33,30.99,18.18,31.00,18.19,-18.19,-18.63,-19.31,12.80,12.81,12.81
36.70,30.99,18.19,31.00,18.19,-18.19,-18.63,-19.08,12.81,12.81,12.80
37.06,30.99,18.18,30.99,18.18,-18.18,-18.63,-18.85,12.81,12.81,12.81
37.43,30.99,18.18,30.99,18.18,-18.18,-18.63,-18.64,12.81,12.81,12.81
37.81,30.99,18.18,30.99,18.18,-18.18,-18.62,-18.43,12.81,12.81,12.81
38.19,30.99,18.18,30.99,18.18,-18.18,-18.62,-18.24,12.81,12.81,12.81
38.57,30.99,18.19,30.99,18.18,-18.18,-18.61,-18.06,12.81,12.80,12.80
38.95,30.99,18.19,30.99,18.19,-18.19,-18.60,-17.89,12.80,12.80,12.80
39.34,30.99,18.20,30.99,18.19,-18.19,-18.59,-17.73,12.80,12.80,12.79
39.74,30.99,18.20,31.00,18.20,-18.20,-18.58,-17.58,12.79,12.80,12.79
40.14,30.99,18.20,31.00,18.20,-18.20,-18.57,-17.44,12.79,12.80,12.79
40.54,30.99,18.20,31.00,18.21,-18.21,-18.55,-17.31,12.78,12.79,12.79
40.94,30.99,18.21,31.00,18.21,-18.21,-18.53,-17.20,12.78,12.79,12.78
41.35,30.99,18.21,31.01,18.22,-18.22,-18.52,-17.09,12.77,12.79,12.78
41.76,31.00,18.22,31.01,18.22,-18.22,-18.50,-17.00,12.78,12.78,12.78
42.18,31.01,18.23,31.01,18.23,-18.23,-18.48,-16.91,12.79,12.78,12.78
42.60,31.01,18.23,31.00,18.23,-18.23,-18.46,-16.84,12.79,12.78,12.78
43.03,31.01,18.23,31.00,18.22,-18.22,-18.43,-16.78,12.79,12.78,12.78
43.46,31.01,18.23,30.99,18.22,-18.22,-18.41,-16.72,12.80,12.77,12.78
43.90,30.99,18.23,30.98,18.21,-18.21,-18.38,-16.68,12.79,12.77,12.76
44.33,30.97,18.21,30.96,18.19,-18.19,-18.36,-16.65,12.78,12.77,12.76
44.78,30.95,18.20,30.94,18.18,-18.18,-18.33,-16.62,12.78,12.77,12.75
45.23,30.92,18.17,30.92,18.16,-18.16,-18.30,-16.61,12.77,12.76,12.75
45.68,30.90,18.15,30.89,18.14,-18.14,-18.27,-16.61,12.77,12.76,12.75
46.13,30.87,18.13,30.86,18.11,-18.11,-18.24,-16.61,12.76,12.75,12.74
46.60,30.83,18.08,30.83,18.09,-18.09,-18.21,-16.63,12.74,12.75,12.75
47.06,30.80,18.06,30.81,18.07,-18.07,-18.18,-16.65,12.74,12.74,12.74
47.53,30.77,18.04,30.78,18.05,-18.05,-18.14,-16.68,12.72,12.73,12.73
48.01,30.74,18.00,30.76,18.03,-18.03,-18.11,-16.73,12.71,12.72,12.74
48.49,30.72,18.00,30.74,18.02,-18.02,-18.07,-16.78,12.70,12.72,12.72
48.97,30.69,17.99,30.72,18.01,-18.01,-18.03,-16.84,12.68,12.71,12.70
49.46,30.68,17.99,30.70,18.01,-18.01,-18.00,-16.90,12.67,12.69,12.69
49.96,30.67,18.00,30.69,18.01,-18.01,-17.96,-16.98,12.67,12.68,12.67
50.46,30.66,17.99,30.68,18.01,-18.01,-17.92,-17.06,12.65,12.67,12.67
50.96,30.66,18.01,30.67,18.02,-18.02,-17.88,-17.15,12.65,12.65,12.65
51.47,30.67,18.05,30.66,18.02,-18.02,-17.84,-17.24,12.65,12.64,12.62
51.99,30.67,18.06,30.65,18.03,-18.03,-17.80,-17.35,12.64,12.62,12.61
52.51,30.66,18.06,30.64,18.04,-18.04,-17.76,-17.45,12.62,12.60,12.60
53.03,30.65,18.07,30.63,18.05,-18.05,-17.71,-17.56,12.60,12.58,12.58
53.56,30.63,18.06,30.62,18.06,-18.06,-17.67,-17.68,12.57,12.56,12.57
54.10,30.60,18.06,30.61,18.06,-18.06,-17.63,-17.80,12.54,12.55,12.54
54.64,30.58,18.05,30.59,18.06,-18.06,-17.58,-17.92,12.52,12.53,12.53
55.18,30.56,18.06,30.56,18.05,-18.05,-17.54,-18.04,12.51,12.51,12.50
55.74,30.54,18.07,30.54,18.05,-18.05,-17.49,-18.15,12.50,12.49,12.47
56.29,30.50,18.03,30.51,18.04,-18.04,-17.45,-18.27,12.46,12.47,12.47
56.86,30.47,18.03,30.47,18.02,-18.02,-17.40,-18.38,12.45,12.45,12.44
57.42,30.44,18.03,30.43,18.01,-18.01,-17.36,-18.48,12.43,12.42,12.41
58.00,30.40,18.01,30.39,17.99,-17.99,-17.31,-18.58,12.41,12.40,12.39
58.58,30.35,17.98,30.35,17.98,-17.98,-17.27,-18.67,12.37,12.37,12.37
59.16,30.29,17.94,30.31,17.96,-17.96,-17.22,-18.75,12.33,12.35,12.35
59.76,30.25,17.92,30.26,17.94,-17.94,-17.17,-18.81,12.31,12.32,12.33
60.35,30.20,17.90,30.21,17.92,-17.92,-17.13,-18.86,12.28,12.29,12.30
60.96,30.14,17.87,30.15,17.90,-17.90,-17.08,-18.89,12.25,12.26,12.27
61.57,30.10,17.88,30.09,17.87,-17.87,-17.03,-18.91,12.24,12.23,12.22
62.18,30.04,17.86,30.03,17.84,-17.84,-16.99,-18.90,12.21,12.19,12.18
62.80,29.97,17.81,29.96,17.80,-17.80,-16.94,-18.88,12.17,12.16,12.16
63.43,29.91,17.80,29.89,17.76,-17.76,-16.90,-18.84,12.15,12.12,12.11
64.07,29.82,17.75,29.81,17.73,-17.73,-16.85,-18.79,12.10,12.08,12.07
64.71,29.73,17.69,29.73,17.68,-17.68,-16.80,-18.71,12.05,12.05,12.04
65.35,29.64,17.64,29.64,17.64,-17.64,-16.76,-18.62,12.00,12.01,12.00
66.01,29.54,17.58,29.56,17.59,-17.59,-16.71,-18.52,11.95,11.97,11.96
66.67,29.44,17.51,29.46,17.53,-17.53,-16.67,-18.40,11.91,11.93,11.93
67.33,29.35,17.46,29.36,17.47,-17.47,-16.62,-18.27,11.88,11.89,11.89
68.01,29.26,17.41,29.26,17.41,-17.41,-16.58,-18.13,11.86,11.85,11.85
68.69,29.15,17.34,29.15,17.34,-17.34,-16.53,-17.98,11.82,11.81,11.81
69.37,29.04,17.27,29.04,17.26,-17.26,-16.49,-17.83,11.78,11.77,11.77
70.07,28.93,17.20,28.92,17.19,-17.19,-16.45,-17.67,11.74,11.73,11.73
70.77,28.82,17.13,28.81,17.11,-17.11,-16.40,-17.51,11.71,11.70,11.69
71.48,28.70,17.04,28.69,17.03,-17.03,-16.36,-17.35,11.67,11.66,11.66
72.19,28.57,16.96,28.57,16.95,-16.95,-16.32,-17.18,11.62,11.62,11.61
72.91,28.44,16.86,28.45,16.86,-16.86,-16.28,-17.02,11.58,11.58,11.58
73.64,28.31,16.77,28.32,16.77,-16.77,-16.24,-16.86,11.54,11.55,11.54
74.38,28.19,16.68,28.19,16.68,-16.68,-16.20,-16.71,11.51,11.51,11.51
75.12,28.06,16.59,28.06,16.58,-16.58,-16.17,-16.56,11.48,11.48,11.47
75.87,27.93,16.49,27.93,16.48,-16.48,-16.13,-16.41,11.45,11.45,11.44
76.63,27.81,16.40,27.80,16.38,-16.38,-16.09,-16.27,11.43,11.42,11.41
77.40,27.68,16.30,27.67,16.29,-16.29,-16.06,-16.14,11.40,11.39,11.38
78.17,27.54,16.19,27.54,16.19,-16.19,-16.02,-16.02,11.35,11.36,11.35
78.95,27.41,16.09,27.42,16.09,-16.09,-15.99,-15.90,11.32,11.33,11.32
79.74,27.29,15.99,27.30,16.00,-16.00,-15.96,-15.79,11.30,11.30,11.30
80.54,27.17,15.89,27.18,15.90,-15.90,-15.93,-15.68,11.27,11.28,11.28
81.35,27.05,15.80,27.06,15.81,-15.81,-15.90,-15.59,11.24,11.25,11.25
82.16,26.93,15.71,26.95,15.72,-15.72,-15.87,-15.50,11.21,11.23,11.22
82.98,26.83,15.62,26.84,15.63,-15.63,-15.84,-15.43,11.20,11.21,11.21
83.81,26.74,15.56,26.74,15.55,-15.55,-15.82,-15.36,11.19,11.19,11.18
84.65,26.64,15.49,26.63,15.47,-15.47,-15.80,-15.30,11.17,11.16,11.15
85.50,26.55,15.41,26.54,15.40,-15.40,-15.77,-15.25,11.16,11.14,11.14
86.35,26.46,15.34,26.45,15.33,-15.33,-15.75,-15.21,11.13,11.12,11.12
87.22,26.37,15.27,26.37,15.26,-15.26,-15.73,-15.18,11.11,11.10,11.10
88.09,26.28,15.20,26.29,15.20,-15.20,-15.72,-15.16,11.08,11.09,11.08
88.97,26.20,15.14,26.21,15.14,-15.14,-15.70,-15.14,11.06,11.07,11.06
89.86,26.13,15.08,26.14,15.09,-15.09,-15.69,-15.14,11.04,11.05,11.05
90.76,26.06,15.04,26.07,15.05,-15.05,-15.68,-15.15,11.02,11.03,11.02
91.66,26.01,15.01,26.01,15.00,-15.00,-15.67,-15.16,11.01,11.01,11.00
92.58,25.96,14.98,25.96,14.97,-14.97,-15.66,-15.19,10.99,10.99,10.98
93.51,25.91,14.94,25.91,14.94,-14.94,-15.65,-15.22,10.97,10.97,10.97
94.44,25.88,14.93,25.87,14.92,-14.92,-15.65,-15.27,10.96,10.95,10.95
95.39,25.84,14.91,25.83,14.90,-14.90,-15.65,-15.32,10.94,10.92,10.93
96.34,25.80,14.90,25.80,14.90,-14.90,-15.65,-15.39,10.90,10.90,10.90
97.30,25.77,14.90,25.78,14.90,-14.90,-15.65,-15.46,10.87,10.88,10.87
98.28,25.76,14.92,25.77,14.91,-14.91,-15.66,-15.54,10.85,10.85,10.84
99.26,25.76,14.94,25.76,14.94,-14.94,-15.66,-15.63,10.83,10.82,10.82
100.25,25.75,14.96,25.76,14.97,-14.97,-15.67,-15.73,10.78,10.79,10.79
101.25,25.76,15.00,25.77,15.01,-15.01,-15.69,-15.84,10.75,10.76,10.76
102.27,25.78,15.06,25.79,15.06,-15.06,-15.70,-15.96,10.72,10.73,10.72
103.29,25.82,15.13,25.82,15.13,-15.13,-15.72,-16.08,10.69,10.69,10.69
104.32,25.85,15.19,25.86,15.21,-15.21,-15.74,-16.22,10.65,10.66,10.66
105.37,25.89,15.27,25.91,15.29,-15.29,-15.76,-16.35,10.60,10.62,10.62
106.42,25.95,15.38,25.97,15.39,-15.39,-15.78,-16.50,10.56,10.58,10.57
107.48,26.01,15.47,26.03,15.50,-15.50,-15.81,-16.65,10.51,10.53,10.54
108.56,26.09,15.61,26.10,15.62,-15.62,-15.84,-16.80,10.47,10.48,10.48
109.64,26.17,15.74,26.18,15.75,-15.75,-15.87,-16.95,10.42,10.43,10.43
110.74,26.25,15.87,26.26,15.88,-15.88,-15.90,-17.11,10.37,10.38,10.38
111.85,26.33,16.00,26.34,16.02,-16.02,-15.93,-17.26,10.31,10.32,10.33
112.97,26.42,16.16,26.42,16.15,-16.15,-15.97,-17.41,10.27,10.27,10.26
114.10,26.49,16.28,26.50,16.29,-16.29,-16.00,-17.56,10.20,10.21,10.21
115.24,26.57,16.42,26.57,16.42,-16.42,-16.04,-17.69,10.15,10.15,10.15
116.39,26.65,16.57,26.64,16.54,-16.54,-16.08,-17.81,10.11,10.09,10.08
117.55,26.71,16.69,26.69,16.66,-16.66,-16.12,-17.92,10.05,10.03,10.02
118.73,26.76,16.80,26.74,16.77,-16.77,-16.16,-18.01,9.99,9.98,9.96
119.92,26.80,16.89,26.78,16.86,-16.86,-16.19,-18.08,9.94,9.92,9.91
121.12,26.81,16.96,26.80,16.94,-16.94,-16.23,-18.12,9.87,9.86,9.85
122.33,26.82,17.02,26.81,17.01,-17.01,-16.27,-18.13,9.81,9.81,9.80
123.55,26.81,17.06,26.81,17.06,-17.06,-16.30,-18.12,9.75,9.75,9.75
124.79,26.79,17.09,26.79,17.09,-17.09,-16.33,-18.07,9.70,9.70,9.70
126.03,26.75,17.10,26.76,17.11,-17.11,-16.36,-18.00,9.64,9.65,9.65
127.29,26.70,17.10,26.71,17.11,-17.11,-16.39,-17.89,9.59,9.60,9.60
128.57,26.63,17.09,26.63,17.08,-17.08,-16.41,-17.75,9.55,9.55,9.54
129.85,26.55,17.05,26.54,17.04,-17.04,-16.42,-17.58,9.51,9.51,9.50
131.15,26.44,16.99,26.43,16.97,-16.97,-16.43,-17.39,9.47,9.46,9.45
132.46,26.33,16.92,26.30,16.89,-16.89,-16.43,-17.18,9.45,9.42,9.41
133.79,26.19,16.82,26.15,16.78,-16.78,-16.42,-16.94,9.41,9.37,9.37
135.12,26.03,16.70,25.99,16.65,-16.65,-16.40,-16.69,9.38,9.33,9.33
136.48,25.84,16.55,25.80,16.51,-16.51,-16.38,-16.42,9.33,9.29,9.29
137.84,25.64,16.39,25.60,16.35,-16.35,-16.34,-16.14,9.30,9.25,9.25
139.22,25.40,16.20,25.38,16.17,-16.17,-16.30,-15.86,9.24,9.21,9.20
140.61,25.16,16.00,25.15,15.97,-15.97,-16.24,-15.57,9.19,9.18,9.16
142.02,24.91,15.77,24.91,15.77,-15.77,-16.17,-15.28,9.14,9.14,9.14
143.44,24.66,15.56,24.67,15.56,-15.56,-16.09,-14.98,9.10,9.10,9.10
144.87,24.41,15.35,24.42,15.35,-15.35,-16.00,-14.69,9.06,9.06,9.06
146.32,24.16,15.14,24.17,15.15,-15.15,-15.89,-14.39,9.01,9.03,9.02
147.78,23.91,14.92,23.93,14.95,-14.95,-15.77,-14.10,8.97,8.99,8.99
149.26,23.66,14.70,23.70,14.75,-14.75,-15.65,-13.82,8.91,8.95,8.96
150.75,23.44,14.54,23.48,14.58,-14.58,-15.51,-13.54,8.87,8.91,8.90
152.26,23.23,14.37,23.28,14.41,-14.41,-15.36,-13.26,8.82,8.87,8.86
153.78,23.04,14.21,23.09,14.26,-14.26,-15.20,-13.00,8.78,8.82,8.83
155.32,22.87,14.10,22.92,14.13,-14.13,-15.03,-12.73,8.74,8.78,8.77
156.88,22.71,13.97,22.76,14.02,-14.02,-14.85,-12.48,8.69,8.74,8.74
158.44,22.57,13.88,22.61,13.92,-13.92,-14.66,-12.23,8.65,8.69,8.69
160.03,22.45,13.81,22.48,13.83,-13.83,-14.47,-11.99,8.62,8.65,8.64
161.63,22.34,13.75,22.36,13.75,-13.75,-14.27,-11.75,8.59,8.60,8.59
163.24,22.24,13.69,22.24,13.68,-13.68,-14.06,-11.53,8.56,8.56,8.55
164.88,22.14,13.63,22.13,13.62,-13.62,-13.85,-11.31,8.52,8.51,8.51
166.53,22.04,13.58,22.02,13.56,-13.56,-13.64,-11.10,8.48,8.46,8.46
168.19,21.94,13.53,21.91,13.50,-13.50,-13.42,-10.89,8.44,8.41,8.41
169.87,21.82,13.46,21.80,13.44,-13.44,-13.20,-10.69,8.39,8.36,8.36
171.57,21.69,13.37,21.68,13.37,-13.37,-12.98,-10.50,8.32,8.31,8.32
173.29,21.55,13.29,21.55,13.29,-13.29,-12.75,-10.32,8.26,8.26,8.26
175.02,21.41,13.20,21.41,13.20,-13.20,-12.53,-10.14,8.21,8.21,8.21
176.77,21.26,13.11,21.26,13.10,-13.10,-12.30,-9.97,8.16,8.16,8.15
178.54,21.09,12.99,21.09,12.99,-12.99,-12.08,-9.81,8.11,8.10,8.10
180.32,20.91,12.87,20.90,12.85,-12.85,-11.85,-9.65,8.06,8.05,8.04
182.13,20.71,12.72,20.69,12.70,-12.70,-11.63,-9.50,8.01,7.99,7.99
183.95,20.49,12.56,20.47,12.53,-12.53,-11.40,-9.35,7.96,7.93,7.93
185.79,20.26,12.38,20.22,12.34,-12.34,-11.18,-9.21,7.92,7.88,7.88
187.65,20.00,12.19,19.96,12.13,-12.13,-10.96,-9.08,7.87,7.82,7.81
189.52,19.71,11.95,19.67,11.90,-11.90,-10.74,-8.95,7.81,7.77,7.76
191.42,19.41,11.70,19.37,11.66,-11.66,-10.52,-8.83,7.76,7.72,7.71
193.33,19.09,11.43,19.06,11.39,-11.39,-10.30,-8.71,7.70,7.66,7.66
195.27,18.75,11.14,18.72,11.11,-11.11,-10.09,-8.60,7.64,7.61,7.61
197.22,18.39,10.84,18.38,10.82,-10.82,-9.88,-8.49,7.57,7.56,7.55
199.19,18.03,10.53,18.03,10.52,-10.52,-9.67,-8.39,7.51,7.51,7.50
201.18,17.67,10.22,17.68,10.22,-10.22,-9.46,-8.29,7.45,7.46,7.45
203.19,17.30,9.88,17.33,9.92,-9.92,-9.25,-8.19,7.39,7.41,7.42
205.23,16.94,9.58,16.98,9.61,-9.61,-9.05,-8.10,7.33,7.37,7.36
207.28,16.59,9.25,16.63,9.31,-9.31,-8.84,-8.00,7.28,7.32,7.34
209.35,16.25,8.97,16.30,9.01,-9.01,-8.64,-7.92,7.24,7.28,7.28
211.44,15.93,8.70,15.97,8.73,-8.73,-8.45,-7.83,7.21,7.24,7.23
213.56,15.62,8.43,15.65,8.45,-8.45,-8.25,-7.74,7.17,7.20,7.19
215.69,15.32,8.15,15.34,8.18,-8.18,-8.05,-7.66,7.14,7.17,7.17
217.85,15.03,7.90,15.05,7.92,-7.92,-7.86,-7.58,7.11,7.13,7.13
220.03,14.76,7.67,14.76,7.66,-7.66,-7.67,-7.49,7.10,7.10,7.09
222.23,14.49,7.43,14.49,7.42,-7.42,-7.48,-7.41,7.07,7.07,7.06
224.45,14.23,7.19,14.22,7.18,-7.18,-7.29,-7.32,7.05,7.04,7.04
226.70,13.97,6.96,13.96,6.94,-6.94,-7.11,-7.24,7.03,7.01,7.01
228.96,13.72,6.74,13.70,6.71,-6.71,-6.92,-7.15,7.01,6.99,6.98
231.25,13.47,6.50,13.46,6.48,-6.48,-6.74,-7.05,6.99,6.97,6.97
233.57,13.24,6.29,13.22,6.26,-6.26,-6.56,-6.96,6.98,6.96,6.95
235.90,13.00,6.06,12.98,6.04,-6.04,-6.38,-6.86,6.96,6.94,6.94
238.26,12.75,5.82,12.76,5.82,-5.82,-6.20,-6.75,6.93,6.93,6.93
240.64,12.52,5.60,12.54,5.61,-5.61,-6.02,-6.64,6.91,6.93,6.92
243.05,12.30,5.38,12.33,5.41,-5.41,-5.84,-6.53,6.89,6.92,6.92
245.48,12.09,5.18,12.12,5.20,-5.20,-5.67,-6.41,6.89,6.92,6.91
247.93,11.89,4.98,11.92,5.01,-5.01,-5.49,-6.28,6.88,6.92,6.91
250.41,11.70,4.79,11.73,4.81,-4.81,-5.32,-6.15,6.89,6.92,6.91
252.92,11.52,4.60,11.54,4.62,-4.62,-5.14,-6.02,6.90,6.92,6.92
255.45,11.36,4.43,11.36,4.43,-4.43,-4.97,-5.87,6.94,6.93,6.93
258.00,11.20,4.26,11.17,4.24,-4.24,-4.80,-5.72,6.97,6.94,6.94
260.58,11.03,4.09,10.99,4.05,-4.05,-4.63,-5.57,6.99,6.95,6.94
263.19,10.85,3.90,10.82,3.86,-3.86,-4.46,-5.40,6.99,6.96,6.95
265.82,10.67,3.71,10.64,3.67,-3.67,-4.29,-5.24,7.00,6.97,6.96
268.48,10.48,3.50,10.47,3.49,-3.49,-4.12,-5.06,6.99,6.98,6.98
271.16,10.30,3.30,10.29,3.30,-3.30,-3.95,-4.89,7.00,7.00,7.00
273.87,10.12,3.12,10.12,3.11,-3.11,-3.78,-4.70,7.01,7.01,7.00
276.61,9.93,2.90,9.95,2.92,-2.92,-3.61,-4.52,7.01,7.02,7.03
279.38,9.75,2.72,9.77,2.74,-2.74,-3.44,-4.33,7.01,7.04,7.03
282.17,9.57,2.52,9.60,2.55,-2.55,-3.27,-4.13,7.02,7.05,7.05
284.99,9.41,2.35,9.43,2.37,-2.37,-3.10,-3.93,7.05,7.06,7.06
287.84,9.25,2.18,9.26,2.18,-2.18,-2.93,-3.73,7.07,7.08,7.07
290.72,9.09,2.01,9.09,2.00,-2.00,-2.76,-3.52,7.09,7.09,7.08
293.63,8.92,1.82,8.92,1.82,-1.82,-2.59,-3.32,7.10,7.10,7.10
296.57,8.75,1.63,8.75,1.64,-1.64,-2.42,-3.11,7.12,7.12,7.12
299.53,8.59,1.47,8.58,1.45,-1.45,-2.25,-2.90,7.14,7.13,7.12
302.53,8.44,1.31,8.41,1.27,-1.27,-2.08,-2.68,7.17,7.14,7.13
305.55,8.27,1.12,8.24,1.09,-1.09,-1.91,-2.47,7.18,7.15,7.15
308.61,8.10,0.94,8.07,0.90,-0.90,-1.73,-2.25,7.20,7.16,7.16
311.69,7.92,0.75,7.89,0.72,-0.72,-1.56,-2.04,7.20,7.18,7.17
314.81,7.74,0.54,7.72,0.53,-0.53,-1.39,-1.82,7.21,7.18,7.20
317.96,7.56,0.37,7.55,0.36,-0.36,-1.21,-1.60,7.21,7.19,7.19
321.14,7.38,0.18,7.38,0.18,-0.18,-1.04,-1.38,7.20,7.20,7.20
324.35,7.20,-0.00,7.23,0.02,-0.02,-0.86,-1.16,7.18,7.21,7.20
327.59,7.02,-0.19,7.08,-0.14,0.14,-0.68,-0.94,7.16,7.21,7.21
330.87,6.87,-0.34,6.93,-0.28,0.28,-0.51,-0.72,7.15,7.22,7.21
334.18,6.73,-0.48,6.80,-0.42,0.42,-0.33,-0.50,7.15,7.22,7.21
337.52,6.61,-0.61,6.67,-0.55,0.55,-0.15,-0.28,7.17,7.22,7.22
340.90,6.50,-0.72,6.55,-0.68,0.68,0.04,-0.05,7.18,7.22,7.22
344.30,6.40,-0.82,6.43,-0.80,0.80,0.22,0.17,7.20,7.22,7.22
347.75,6.31,-0.91,6.31,-0.91,0.91,0.40,0.40,7.22,7.22,7.22
351.23,6.22,-1.00,6.19,-1.03,1.03,0.59,0.62,7.25,7.22,7.22
354.74,6.11,-1.11,6.06,-1.15,1.15,0.78,0.85,7.27,7.22,7.22
358.28,5.99,-1.21,5.93,-1.28,1.28,0.97,1.08,7.27,7.21,7.20
361.87,5.86,-1.34,5.79,-1.42,1.42,1.16,1.31,7.28,7.21,7.20
365.49,5.69,-1.51,5.64,-1.56,1.56,1.35,1.54,7.25,7.20,7.20
369.14,5.53,-1.66,5.48,-1.72,1.72,1.54,1.77,7.25,7.19,7.19
372.83,5.35,-1.84,5.30,-1.88,1.88,1.74,2.00,7.24,7.19,7.19
376.56,5.15,-2.03,5.13,-2.06,2.06,1.93,2.23,7.21,7.18,7.18
380.33,4.95,-2.22,4.94,-2.23,2.23,2.13,2.46,7.18,7.17,7.17
