frequency,raw,error,smoothed,error_smoothed,equalization,parametric_eq,fixed_band_eq,equalized_raw,equalized_smoothed,target
20.00,7.34,-2.28,7.32,-2.30,2.30,2.05,0.72,9.64,9.62,9.62
20.20,7.35,-2.26,7.33,-2.28,2.28,2.05,0.74,9.62,9.61,9.61
20.40,7.35,-2.25,7.34,-2.25,2.25,2.04,0.77,9.60,9.59,9.60
20.61,7.36,-2.23,7.36,-2.23,2.23,2.04,0.79,9.58,9.58,9.59
20.81,7.37,-2.20,7.37,-2.20,2.20,2.03,0.82,9.57,9.57,9.57
21.02,7.38,-2.18,7.39,-2.17,2.17,2.03,0.84,9.55,9.56,9.55
21.23,7.39,-2.16,7.40,-2.15,2.15,2.03,0.87,9.53,9.55,9.54
21.44,7.41,-2.15,7.42,-2.12,2.12,2.02,0.89,9.53,9.54,9.55
21.66,7.42,-2.12,7.43,-2.10,2.10,2.02,0.92,9.51,9.53,9.53
21.87,7.44,-2.09,7.45,-2.07,2.07,2.01,0.95,9.51,9.52,9.53
22.09,7.46,-2.05,7.47,-2.04,2.04,2.00,0.98,9.50,9.51,9.51
22.31,7.48,-2.03,7.49,-2.02,2.02,2.00,1.01,9.49,9.51,9.51
22.54,7.51,-1.99,7.52,-1.98,1.98,1.99,1.04,9.49,9.50,9.50
22.76,7.54,-1.96,7.54,-1.95,1.95,1.98,1.08,9.49,9.49,9.50
22.99,7.57,-1.92,7.57,-1.92,1.92,1.97,1.11,9.48,9.49,9.49
23.22,7.60,-1.88,7.59,-1.89,1.89,1.97,1.14,9.48,9.48,9.47
23.45,7.63,-1.86,7.62,-1.86,1.86,1.96,1.18,9.49,9.48,9.48
23.69,7.65,-1.83,7.64,-1.84,1.84,1.95,1.21,9.48,9.47,9.47
23.92,7.68,-1.78,7.65,-1.82,1.82,1.94,1.25,9.49,9.47,9.46
24.16,7.70,-1.77,7.66,-1.80,1.80,1.93,1.28,9.50,9.46,9.47
24.40,7.71,-1.76,7.68,-1.79,1.79,1.92,1.32,9.49,9.46,9.47
24.65,7.71,-1.76,7.68,-1.78,1.78,1.91,1.36,9.48,9.46,9.47
24.89,7.71,-1.76,7.69,-1.77,1.77,1.90,1.39,9.47,9.46,9.46
25.14,7.70,-1.76,7.70,-1.76,1.76,1.89,1.43,9.45,9.46,9.45
25.39,7.69,-1.76,7.71,-1.75,1.75,1.88,1.47,9.43,9.45,9.45
25.65,7.69,-1.76,7.71,-1.74,1.74,1.86,1.50,9.42,9.45,9.45
25.91,7.70,-1.75,7.72,-1.73,1.73,1.85,1.54,9.42,9.45,9.45
26.16,7.71,-1.75,7.74,-1.71,1.71,1.84,1.58,9.42,9.45,9.45
26.43,7.73,-1.73,7.75,-1.70,1.70,1.83,1.61,9.42,9.45,9.45
26.69,7.76,-1.69,7.77,-1.68,1.68,1.81,1.65,9.44,9.45,9.45
26.96,7.79,-1.66,7.79,-1.66,1.66,1.80,1.68,9.44,9.45,9.45
27.23,7.82,-1.63,7.82,-1.63,1.63,1.78,1.72,9.45,9.45,9.45
27.50,7.85,-1.60,7.84,-1.61,1.61,1.77,1.75,9.45,9.45,9.44
27.77,7.88,-1.57,7.87,-1.58,1.58,1.75,1.78,9.45,9.45,9.45
28.05,7.91,-1.54,7.90,-1.55,1.55,1.74,1.81,9.46,9.45,9.45
28.33,7.94,-1.52,7.93,-1.52,1.52,1.72,1.83,9.46,9.45,9.45
28.62,7.97,-1.49,7.96,-1.50,1.50,1.70,1.86,9.46,9.45,9.45
28.90,7.99,-1.47,7.98,-1.47,1.47,1.69,1.88,9.46,9.45,9.46
29.19,8.01,-1.45,7.99,-1.46,1.46,1.67,1.90,9.46,9.45,9.46
29.48,8.03,-1.43,8.01,-1.44,1.44,1.65,1.91,9.47,9.45,9.45
29.78,8.04,-1.41,8.02,-1.43,1.43,1.63,1.92,9.46,9.45,9.45
30.08,8.04,-1.41,8.03,-1.41,1.41,1.62,1.93,9.45,9.44,9.45
30.38,8.04,-1.40,8.03,-1.41,1.41,1.60,1.94,9.44,9.44,9.43
30.68,8.04,-1.39,8.03,-1.40,1.40,1.58,1.94,9.43,9.43,9.43
30.99,8.03,-1.40,8.03,-1.39,1.39,1.56,1.94,9.42,9.43,9.42
31.30,8.03,-1.39,8.03,-1.39,1.39,1.54,1.94,9.41,9.42,9.42
31.61,8.02,-1.40,8.03,-1.38,1.38,1.52,1.93,9.40,9.41,9.42
31.93,8.02,-1.38,8.03,-1.38,1.38,1.50,1.92,9.39,9.40,9.39
32.24,8.02,-1.38,8.02,-1.37,1.37,1.48,1.90,9.39,9.39,9.40
32.57,8.02,-1.37,8.02,-1.37,1.37,1.45,1.88,9.38,9.39,9.38
32.89,8.02,-1.36,8.02,-1.36,1.36,1.43,1.86,9.38,9.38,9.38
33.22,8.02,-1.36,8.02,-1.36,1.36,1.41,1.83,9.37,9.37,9.37
33.55,8.02,-1.35,8.02,-1.35,1.35,1.39,1.80,9.36,9.36,9.37
33.89,8.02,-1.34,8.01,-1.34,1.34,1.36,1.77,9.36,9.35,9.35
34.23,8.02,-1.32,8.01,-1.33,1.33,1.34,1.74,9.35,9.35,9.34
34.57,8.02,-1.31,8.02,-1.32,1.32,1.31,1.70,9.34,9.33,9.33
34.92,8.02,-1.30,8.02,-1.31,1.31,1.29,1.66,9.32,9.32,9.31
35.27,8.02,-1.31,8.02,-1.30,1.30,1.27,1.62,9.31,9.31,9.33
35.62,8.02,-1.28,8.02,-1.28,1.28,1.24,1.58,9.30,9.30,9.30
35.97,8.02,-1.28,8.02,-1.27,1.27,1.21,1.54,9.28,9.28,9.29
36.33,8.02,-1.26,8.02,-1.25,1.25,1.19,1.49,9.27,9.27,9.28
36.70,8.02,-1.23,8.02,-1.24,1.24,1.16,1.45,9.25,9.25,9.25
37.06,8.02,-1.22,8.02,-1.22,1.22,1.14,1.40,9.23,9.23,9.23
37.43,8.02,-1.20,8.02,-1.20,1.20,1.11,1.35,9.21,9.21,9.21
37.81,8.02,-1.18,8.02,-1.18,1.18,1.08,1.30,9.19,9.19,9.20
38.19,8.02,-1.15,8.02,-1.15,1.15,1.05,1.25,9.17,9.17,9.17
38.57,8.02,-1.13,8.02,-1.13,1.13,1.02,1.20,9.15,9.15,9.15
38.95,8.02,-1.11,8.02,-1.11,1.11,1.00,1.15,9.12,9.12,9.13
39.34,8.02,-1.08,8.02,-1.08,1.08,0.97,1.10,9.10,9.10,9.10
39.74,8.02,-1.05,8.02,-1.06,1.06,0.94,1.05,9.08,9.08,9.07
40.14,8.02,-1.03,8.02,-1.03,1.03,0.91,1.00,9.05,9.05,9.05
40.54,8.02,-1.01,8.02,-1.01,1.01,0.88,0.95,9.03,9.03,9.03
40.94,8.02,-0.98,8.02,-0.98,0.98,0.85,0.90,9.00,9.00,9.00
41.35,8.02,-0.96,8.02,-0.96,0.96,0.82,0.85,8.98,8.98,8.97
41.76,8.02,-0.93,8.02,-0.93,0.93,0.78,0.81,8.95,8.95,8.94
42.18,8.02,-0.91,8.02,-0.91,0.91,0.75,0.76,8.92,8.92,8.93
42.60,8.02,-0.88,8.02,-0.88,0.88,0.72,0.71,8.90,8.90,8.90
43.03,8.02,-0.86,8.02,-0.85,0.85,0.69,0.66,8.87,8.87,8.87
43.46,8.02,-0.82,8.02,-0.83,0.83,0.66,0.62,8.84,8.84,8.84
43.90,8.02,-0.80,8.02,-0.80,0.80,0.62,0.57,8.81,8.81,8.81
44.33,8.02,-0.76,8.02,-0.77,0.77,0.59,0.52,8.78,8.78,8.78
44.78,8.02,-0.74,8.02,-0.73,0.73,0.56,0.48,8.75,8.75,8.75
45.23,8.02,-0.71,8.02,-0.70,0.70,0.52,0.44,8.72,8.72,8.73
45.68,8.02,-0.66,8.02,-0.66,0.66,0.49,0.39,8.68,8.68,8.68
46.13,8.02,-0.63,8.02,-0.62,0.62,0.45,0.35,8.64,8.64,8.64
46.60,8.02,-0.59,8.02,-0.59,0.59,0.42,0.30,8.60,8.60,8.61
47.06,8.02,-0.55,8.02,-0.54,0.54,0.38,0.26,8.56,8.56,8.57
47.53,8.02,-0.51,8.02,-0.50,0.50,0.35,0.22,8.52,8.52,8.53
48.01,8.02,-0.45,8.02,-0.46,0.46,0.31,0.18,8.47,8.47,8.47
48.49,8.02,-0.41,8.02,-0.41,0.41,0.27,0.14,8.43,8.43,8.43
48.97,8.02,-0.36,8.02,-0.36,0.36,0.24,0.09,8.38,8.38,8.38
49.46,8.02,-0.32,8.02,-0.32,0.32,0.20,0.05,8.33,8.33,8.33
49.96,8.02,-0.25,8.02,-0.27,0.27,0.16,0.01,8.29,8.29,8.27
50.46,8.02,-0.22,8.02,-0.22,0.22,0.12,-0.03,8.24,8.24,8.24
50.96,8.02,-0.18,8.02,-0.18,0.18,0.08,-0.07,8.19,8.19,8.19
51.47,8.02,-0.13,8.02,-0.13,0.13,0.05,-0.10,8.15,8.15,8.15
51.99,8.02,-0.08,8.02,-0.08,0.08,0.01,-0.14,8.10,8.10,8.09
52.51,8.02,-0.04,8.01,-0.04,0.04,-0.03,-0.18,8.05,8.05,8.05
53.03,8.02,-0.00,8.01,0.01,-0.01,-0.07,-0.22,8.01,8.00,8.02
53.56,8.02,0.05,8.01,0.05,-0.05,-0.11,-0.26,7.96,7.96,7.97
54.10,8.02,0.11,8.02,0.10,-0.10,-0.15,-0.30,7.91,7.91,7.91
54.64,8.02,0.15,8.02,0.15,-0.15,-0.19,-0.33,7.87,7.87,7.87
55.18,8.02,0.20,8.02,0.20,-0.20,-0.23,-0.37,7.82,7.82,7.82
55.74,8.02,0.25,8.02,0.24,-0.24,-0.27,-0.41,7.77,7.78,7.76
56.29,8.02,0.29,8.03,0.29,-0.29,-0.32,-0.44,7.72,7.73,7.73
56.86,8.02,0.33,8.03,0.34,-0.34,-0.36,-0.48,7.67,7.69,7.69
57.42,8.02,0.39,8.03,0.39,-0.39,-0.40,-0.52,7.62,7.64,7.63
58.00,8.03,0.44,8.04,0.44,-0.44,-0.44,-0.55,7.58,7.59,7.58
58.58,8.04,0.49,8.03,0.49,-0.49,-0.48,-0.59,7.54,7.54,7.55
59.16,8.05,0.54,8.03,0.54,-0.54,-0.53,-0.62,7.50,7.49,7.51
59.76,8.05,0.59,8.03,0.59,-0.59,-0.57,-0.66,7.45,7.43,7.46
60.35,8.04,0.64,8.02,0.64,-0.64,-0.61,-0.69,7.40,7.38,7.40
60.96,8.03,0.69,8.01,0.69,-0.69,-0.66,-0.73,7.34,7.32,7.33
61.57,8.01,0.75,7.99,0.73,-0.73,-0.70,-0.76,7.28,7.26,7.26
62.18,7.99,0.79,7.97,0.77,-0.77,-0.75,-0.80,7.22,7.20,7.20
62.80,7.96,0.83,7.95,0.81,-0.81,-0.79,-0.83,7.15,7.14,7.13
63.43,7.93,0.86,7.93,0.85,-0.85,-0.84,-0.86,7.08,7.08,7.06
64.07,7.90,0.89,7.90,0.88,-0.88,-0.88,-0.90,7.02,7.02,7.01
64.71,7.87,0.92,7.87,0.91,-0.91,-0.93,-0.93,6.95,6.95,6.95
65.35,7.84,0.95,7.84,0.95,-0.95,-0.97,-0.97,6.89,6.89,6.89
66.01,7.81,0.98,7.81,0.98,-0.98,-1.02,-1.00,6.82,6.82,6.82
66.67,7.78,1.01,7.78,1.02,-1.02,-1.07,-1.04,6.76,6.76,6.77
67.33,7.75,1.05,7.76,1.06,-1.06,-1.11,-1.07,6.69,6.70,6.70
68.01,7.73,1.09,7.74,1.10,-1.10,-1.16,-1.10,6.62,6.63,6.64
68.69,7.71,1.13,7.72,1.15,-1.15,-1.21,-1.14,6.56,6.57,6.57
69.37,7.69,1.17,7.71,1.20,-1.20,-1.25,-1.18,6.48,6.50,6.51
70.07,7.68,1.23,7.69,1.26,-1.26,-1.30,-1.21,6.42,6.44,6.44
70.77,7.68,1.30,7.69,1.32,-1.32,-1.35,-1.25,6.36,6.37,6.37
71.48,7.68,1.37,7.68,1.38,-1.38,-1.40,-1.29,6.30,6.30,6.31
72.19,7.69,1.45,7.68,1.44,-1.44,-1.45,-1.32,6.24,6.24,6.24
72.91,7.69,1.52,7.68,1.51,-1.51,-1.50,-1.36,6.18,6.17,6.16
73.64,7.70,1.60,7.68,1.58,-1.58,-1.54,-1.40,6.12,6.10,6.10
74.38,7.70,1.67,7.69,1.65,-1.65,-1.59,-1.44,6.05,6.04,6.03
75.12,7.70,1.73,7.69,1.72,-1.72,-1.64,-1.48,5.98,5.97,5.97
75.87,7.70,1.79,7.70,1.79,-1.79,-1.69,-1.53,5.91,5.91,5.91
76.63,7.70,1.86,7.70,1.86,-1.86,-1.74,-1.57,5.84,5.85,5.84
77.40,7.70,1.91,7.71,1.93,-1.93,-1.79,-1.61,5.77,5.78,5.78
78.17,7.70,1.99,7.71,1.99,-1.99,-1.84,-1.66,5.71,5.72,5.71
78.95,7.71,2.04,7.71,2.05,-2.05,-1.89,-1.71,5.65,5.66,5.67
79.74,7.72,2.12,7.71,2.11,-2.11,-1.94,-1.76,5.60,5.60,5.60
80.54,7.72,2.17,7.71,2.17,-2.17,-2.00,-1.81,5.55,5.54,5.54
81.35,7.72,2.24,7.70,2.22,-2.22,-2.05,-1.86,5.49,5.48,5.47
82.16,7.71,2.28,7.69,2.27,-2.27,-2.10,-1.91,5.43,5.41,5.42
82.98,7.69,2.33,7.67,2.32,-2.32,-2.15,-1.96,5.36,5.35,5.35
83.81,7.67,2.38,7.65,2.37,-2.37,-2.20,-2.02,5.30,5.29,5.29
84.65,7.65,2.43,7.63,2.41,-2.41,-2.25,-2.08,5.23,5.22,5.22
85.50,7.62,2.46,7.61,2.45,-2.45,-2.31,-2.14,5.16,5.16,5.15
86.35,7.59,2.50,7.58,2.49,-2.49,-2.36,-2.20,5.09,5.09,5.09
87.22,7.56,2.53,7.56,2.53,-2.53,-2.41,-2.26,5.03,5.02,5.02
88.09,7.53,2.57,7.53,2.57,-2.57,-2.46,-2.33,4.96,4.96,4.96
88.97,7.49,2.60,7.50,2.61,-2.61,-2.52,-2.39,4.87,4.89,4.89
89.86,7.46,2.64,7.47,2.66,-2.66,-2.57,-2.46,4.80,4.82,4.82
90.76,7.44,2.69,7.45,2.70,-2.70,-2.62,-2.53,4.73,4.75,4.75
91.66,7.41,2.74,7.43,2.76,-2.76,-2.68,-2.60,4.65,4.68,4.67
92.58,7.40,2.79,7.41,2.81,-2.81,-2.73,-2.68,4.59,4.60,4.61
93.51,7.39,2.85,7.40,2.87,-2.87,-2.78,-2.75,4.52,4.53,4.54
94.44,7.38,2.91,7.38,2.93,-2.93,-2.84,-2.83,4.45,4.46,4.47
95.39,7.37,2.98,7.37,2.99,-2.99,-2.89,-2.91,4.38,4.38,4.38
96.34,7.36,3.05,7.35,3.04,-3.04,-2.94,-2.99,4.31,4.31,4.31
97.30,7.36,3.12,7.34,3.10,-3.10,-3.00,-3.07,4.25,4.24,4.24
98.28,7.35,3.19,7.32,3.16,-3.16,-3.05,-3.15,4.19,4.16,4.15
99.26,7.33,3.25,7.31,3.22,-3.22,-3.10,-3.23,4.11,4.09,4.08
100.25,7.31,3.30,7.28,3.27,-3.27,-3.16,-3.32,4.04,4.02,4.00
101.25,7.28,3.34,7.26,3.32,-3.32,-3.21,-3.40,3.96,3.95,3.94
102.27,7.25,3.37,7.24,3.36,-3.36,-3.27,-3.49,3.88,3.87,3.87
103.29,7.22,3.42,7.21,3.41,-3.41,-3.32,-3.58,3.81,3.80,3.80
104.32,7.19,3.45,7.19,3.45,-3.45,-3.37,-3.66,3.73,3.73,3.73
105.37,7.16,3.49,7.16,3.50,-3.50,-3.43,-3.75,3.66,3.67,3.67
106.42,7.13,3.52,7.14,3.54,-3.54,-3.48,-3.84,3.58,3.60,3.60
107.48,7.10,3.57,7.12,3.59,-3.59,-3.54,-3.92,3.50,3.53,3.53
108.56,7.08,3.61,7.10,3.64,-3.64,-3.59,-4.01,3.43,3.46,3.46
109.64,7.06,3.66,7.08,3.70,-3.70,-3.64,-4.09,3.36,3.39,3.40
110.74,7.05,3.72,7.07,3.75,-3.75,-3.70,-4.17,3.29,3.32,3.32
111.85,7.05,3.80,7.06,3.81,-3.81,-3.75,-4.25,3.23,3.24,3.25
112.97,7.05,3.86,7.05,3.87,-3.87,-3.80,-4.33,3.17,3.17,3.18
114.10,7.05,3.94,7.04,3.94,-3.94,-3.86,-4.40,3.11,3.10,3.11
115.24,7.05,4.02,7.03,3.99,-3.99,-3.91,-4.47,3.05,3.03,3.03
116.39,7.04,4.08,7.01,4.05,-4.05,-3.96,-4.54,2.98,2.96,2.95
117.55,7.03,4.15,7.00,4.11,-4.11,-4.02,-4.60,2.92,2.89,2.88
118.73,7.01,4.20,6.98,4.16,-4.16,-4.07,-4.66,2.84,2.82,2.81
119.92,6.98,4.23,6.97,4.21,-4.21,-4.12,-4.71,2.76,2.75,2.75
121.12,6.96,4.27,6.95,4.26,-4.26,-4.18,-4.76,2.69,2.68,2.68
122.33,6.93,4.31,6.93,4.31,-4.31,-4.23,-4.80,2.61,2.61,2.61
123.55,6.90,4.34,6.90,4.36,-4.36,-4.28,-4.84,2.54,2.55,2.55
124.79,6.87,4.38,6.88,4.40,-4.40,-4.33,-4.88,2.47,2.48,2.49
126.03,6.84,4.42,6.85,4.44,-4.44,-4.38,-4.90,2.39,2.41,2.42
127.29,6.81,4.45,6.83,4.48,-4.48,-4.43,-4.93,2.32,2.34,2.35
128.57,6.79,4.51,6.80,4.53,-4.53,-4.48,-4.94,2.26,2.28,2.28
129.85,6.78,4.57,6.78,4.57,-4.57,-4.53,-4.96,2.21,2.21,2.21
131.15,6.76,4.62,6.76,4.61,-4.61,-4.58,-4.97,2.14,2.14,2.14
132.46,6.74,4.66,6.73,4.66,-4.66,-4.63,-4.97,2.08,2.07,2.07
133.79,6.72,4.72,6.71,4.71,-4.71,-4.68,-4.97,2.01,2.01,2.00
135.12,6.70,4.76,6.69,4.75,-4.75,-4.73,-4.97,1.94,1.94,1.94
136.48,6.68,4.80,6.67,4.80,-4.80,-4.78,-4.96,1.88,1.88,1.88
137.84,6.66,4.85,6.65,4.84,-4.84,-4.83,-4.95,1.82,1.81,1.81
139.22,6.64,4.89,6.63,4.88,-4.88,-4.87,-4.94,1.75,1.75,1.74
140.61,6.61,4.92,6.61,4.92,-4.92,-4.92,-4.92,1.69,1.69,1.69
142.02,6.59,4.97,6.58,4.96,-4.96,-4.97,-4.90,1.63,1.63,1.62
143.44,6.56,4.99,6.56,4.99,-4.99,-5.01,-4.89,1.57,1.57,1.57
144.87,6.53,5.01,6.53,5.02,-5.02,-5.06,-4.87,1.51,1.51,1.51
146.32,6.51,5.05,6.50,5.05,-5.05,-5.10,-4.85,1.46,1.45,1.45
147.78,6.49,5.09,6.48,5.08,-5.08,-5.15,-4.83,1.41,1.40,1.40
149.26,6.46,5.11,6.45,5.10,-5.10,-5.19,-4.81,1.35,1.34,1.34
150.75,6.43,5.14,6.42,5.13,-5.13,-5.23,-4.80,1.29,1.29,1.28
152.26,6.40,5.16,6.39,5.16,-5.16,-5.27,-4.78,1.24,1.23,1.24
153.78,6.36,5.17,6.37,5.19,-5.19,-5.31,-4.77,1.17,1.18,1.18
155.32,6.33,5.20,6.34,5.22,-5.22,-5.35,-4.76,1.11,1.12,1.13
156.88,6.31,5.23,6.31,5.24,-5.24,-5.39,-4.74,1.06,1.07,1.07
158.44,6.28,5.26,6.29,5.27,-5.27,-5.43,-4.74,1.00,1.01,1.01
160.03,6.26,5.29,6.26,5.30,-5.30,-5.47,-4.73,0.95,0.96,0.96
161.63,6.24,5.33,6.24,5.33,-5.33,-5.51,-4.73,0.90,0.90,0.90
163.24,6.22,5.37,6.21,5.36,-5.36,-5.54,-4.73,0.85,0.85,0.85
164.88,6.19,5.40,6.18,5.39,-5.39,-5.58,-4.73,0.79,0.79,0.79
166.53,6.17,5.44,6.16,5.42,-5.42,-5.61,-4.74,0.74,0.73,0.73
168.19,6.15,5.46,6.13,5.45,-5.45,-5.64,-4.75,0.69,0.68,0.68
169.87,6.12,5.50,6.10,5.48,-5.48,-5.68,-4.76,0.63,0.62,0.62
171.57,6.08,5.52,6.08,5.52,-5.52,-5.71,-4.78,0.56,0.56,0.56
173.29,6.05,5.54,6.05,5.55,-5.55,-5.74,-4.80,0.50,0.50,0.51
175.02,6.02,5.57,6.03,5.58,-5.58,-5.77,-4.83,0.44,0.45,0.45
176.77,5.99,5.59,6.00,5.61,-5.61,-5.79,-4.85,0.38,0.39,0.39
178.54,5.97,5.63,5.97,5.64,-5.64,-5.82,-4.89,0.33,0.34,0.34
180.32,5.94,5.66,5.95,5.67,-5.67,-5.85,-4.92,0.27,0.28,0.27
182.13,5.92,5.69,5.92,5.69,-5.69,-5.87,-4.96,0.22,0.23,0.23
183.95,5.90,5.72,5.89,5.72,-5.72,-5.89,-5.00,0.18,0.17,0.18
185.79,5.88,5.76,5.86,5.74,-5.74,-5.92,-5.05,0.13,0.12,0.11
187.65,5.86,5.79,5.83,5.77,-5.77,-5.94,-5.10,0.09,0.06,0.06
189.52,5.82,5.80,5.80,5.79,-5.79,-5.96,-5.16,0.03,0.01,0.02
191.42,5.79,5.82,5.78,5.81,-5.81,-5.97,-5.21,-0.03,-0.04,-0.03
193.33,5.75,5.83,5.75,5.83,-5.83,-5.99,-5.27,-0.09,-0.09,-0.08
195.27,5.72,5.85,5.72,5.85,-5.85,-6.01,-5.34,-0.14,-0.13,-0.14
197.22,5.68,5.87,5.69,5.87,-5.87,-6.02,-5.40,-0.19,-0.18,-0.19
199.19,5.65,5.87,5.66,5.88,-5.88,-6.04,-5.47,-0.24,-0.22,-0.22
201.18,5.63,5.90,5.64,5.90,-5.90,-6.05,-5.54,-0.27,-0.26,-0.28
203.19,5.60,5.90,5.61,5.91,-5.91,-6.06,-5.61,-0.32,-0.31,-0.31
205.23,5.58,5.92,5.58,5.93,-5.93,-6.07,-5.69,-0.35,-0.35,-0.34
207.28,5.56,5.94,5.55,5.94,-5.94,-6.08,-5.76,-0.38,-0.38,-0.38
209.35,5.53,5.94,5.53,5.95,-5.95,-6.09,-5.84,-0.42,-0.42,-0.42
211.44,5.52,5.97,5.50,5.96,-5.96,-6.09,-5.92,-0.44,-0.46,-0.46
213.56,5.49,5.97,5.48,5.97,-5.97,-6.10,-6.00,-0.48,-0.49,-0.48
215.69,5.47,5.99,5.46,5.98,-5.98,-6.10,-6.07,-0.52,-0.52,-0.52
217.85,5.44,5.99,5.43,5.99,-5.99,-6.10,-6.15,-0.55,-0.56,-0.55
220.03,5.41,6.00,5.41,6.00,-6.00,-6.10,-6.22,-0.59,-0.59,-0.59
222.23,5.38,6.00,5.38,6.00,-6.00,-6.10,-6.29,-0.62,-0.62,-0.62
224.45,5.36,6.00,5.36,6.00,-6.00,-6.10,-6.36,-0.64,-0.64,-0.65
226.70,5.33,6.00,5.33,6.00,-6.00,-6.09,-6.43,-0.67,-0.67,-0.68
228.96,5.31,6.00,5.30,6.00,-6.00,-6.09,-6.49,-0.69,-0.70,-0.69
231.25,5.29,6.01,5.27,5.99,-5.99,-6.08,-6.54,-0.70,-0.72,-0.72
233.57,5.26,6.00,5.24,5.98,-5.98,-6.08,-6.59,-0.73,-0.74,-0.74
235.90,5.23,5.99,5.22,5.98,-5.98,-6.07,-6.63,-0.75,-0.76,-0.76
238.26,5.20,5.98,5.19,5.97,-5.97,-6.06,-6.67,-0.77,-0.78,-0.79
240.64,5.17,5.95,5.17,5.97,-5.97,-6.05,-6.70,-0.80,-0.79,-0.79
243.05,5.14,5.94,5.16,5.96,-5.96,-6.03,-6.72,-0.83,-0.80,-0.80
245.48,5.12,5.94,5.14,5.96,-5.96,-6.02,-6.74,-0.84,-0.82,-0.82
247.93,5.10,5.93,5.13,5.96,-5.96,-6.00,-6.74,-0.86,-0.83,-0.84
250.41,5.09,5.92,5.12,5.96,-5.96,-5.99,-6.74,-0.87,-0.84,-0.83
252.92,5.10,5.93,5.11,5.95,-5.95,-5.97,-6.73,-0.86,-0.84,-0.84
255.45,5.10,5.95,5.10,5.95,-5.95,-5.95,-6.70,-0.86,-0.85,-0.85
258.00,5.11,5.96,5.09,5.95,-5.95,-5.93,-6.68,-0.84,-0.86,-0.86
260.58,5.12,5.98,5.08,5.95,-5.95,-5.91,-6.64,-0.83,-0.87,-0.86
263.19,5.11,5.97,5.07,5.95,-5.95,-5.89,-6.60,-0.84,-0.87,-0.86
265.82,5.09,5.96,5.07,5.94,-5.94,-5.87,-6.54,-0.86,-0.88,-0.88
268.48,5.07,5.95,5.05,5.94,-5.94,-5.84,-6.49,-0.87,-0.88,-0.88
271.16,5.05,5.93,5.04,5.93,-5.93,-5.82,-6.42,-0.88,-0.89,-0.88
273.87,5.02,5.91,5.02,5.91,-5.91,-5.79,-6.35,-0.90,-0.89,-0.89
276.61,4.99,5.88,5.00,5.89,-5.89,-5.76,-6.28,-0.91,-0.90,-0.89
279.38,4.96,5.87,4.97,5.87,-5.87,-5.74,-6.20,-0.91,-0.90,-0.91
282.17,4.95,5.86,4.94,5.84,-5.84,-5.71,-6.11,-0.90,-0.90,-0.91
284.99,4.92,5.82,4.91,5.81,-5.81,-5.68,-6.03,-0.90,-0.90,-0.90
287.84,4.89,5.79,4.88,5.78,-5.78,-5.65,-5.94,-0.89,-0.90,-0.90
290.72,4.86,5.77,4.84,5.75,-5.75,-5.61,-5.85,-0.89,-0.90,-0.91
293.63,4.82,5.72,4.81,5.72,-5.72,-5.58,-5.76,-0.90,-0.90,-0.90
296.57,4.78,5.68,4.78,5.69,-5.69,-5.55,-5.67,-0.91,-0.90,-0.90
299.53,4.74,5.63,4.75,5.65,-5.65,-5.51,-5.58,-0.92,-0.90,-0.90
302.53,4.70,5.58,4.72,5.62,-5.62,-5.48,-5.49,-0.92,-0.89,-0.89
305.55,4.67,5.56,4.69,5.58,-5.58,-5.44,-5.39,-0.91,-0.89,-0.89
308.61,4.65,5.53,4.66,5.54,-5.54,-5.41,-5.31,-0.90,-0.88,-0.88
311.69,4.64,5.51,4.62,5.50,-5.50,-5.37,-5.22,-0.87,-0.88,-0.88
314.81,4.62,5.49,4.59,5.46,-5.46,-5.33,-5.13,-0.84,-0.87,-0.87
317.96,4.59,5.46,4.56,5.42,-5.42,-5.29,-5.05,-0.84,-0.87,-0.87
321.14,4.55,5.40,4.52,5.39,-5.39,-5.25,-4.97,-0.84,-0.86,-0.86
324.35,4.50,5.36,4.49,5.35,-5.35,-5.21,-4.89,-0.85,-0.85,-0.86
327.59,4.46,5.29,4.46,5.31,-5.31,-5.17,-4.81,-0.85,-0.85,-0.84
330.87,4.41,5.25,4.43,5.27,-5.27,-5.13,-4.74,-0.87,-0.84,-0.84
334.18,4.37,5.21,4.39,5.23,-5.23,-5.09,-4.67,-0.86,-0.84,-0.84
337.52,4.34,5.17,4.36,5.19,-5.19,-5.05,-4.60,-0.85,-0.83,-0.83
340.90,4.32,5.14,4.32,5.14,-5.14,-5.00,-4.54,-0.82,-0.82,-0.82
344.30,4.29,5.10,4.28,5.09,-5.09,-4.96,-4.48,-0.81,-0.82,-0.81
347.75,4.26,5.07,4.24,5.05,-5.05,-4.92,-4.42,-0.79,-0.81,-0.81
351.23,4.23,5.04,4.20,5.00,-5.00,-4.87,-4.37,-0.78,-0.80,-0.81
354.74,4.18,4.96,4.16,4.96,-4.96,-4.83,-4.31,-0.78,-0.80,-0.79
358.28,4.14,4.93,4.13,4.92,-4.92,-4.78,-4.27,-0.78,-0.79,-0.79
361.87,4.09,4.87,4.09,4.88,-4.88,-4.74,-4.22,-0.79,-0.78,-0.79
365.49,4.04,4.82,4.06,4.84,-4.84,-4.69,-4.18,-0.80,-0.78,-0.78
369.14,4.00,4.76,4.02,4.79,-4.79,-4.65,-4.14,-0.80,-0.77,-0.76
372.83,3.97,4.72,3.99,4.75,-4.75,-4.60,-4.11,-0.78,-0.76,-0.76
376.56,3.95,4.71,3.95,4.70,-4.70,-4.56,-4.08,-0.76,-0.75,-0.76
380.33,3.93,4.68,3.91,4.66,-4.66,-4.51,-4.05,-0.73,-0.75,-0.75
384.13,3.90,4.63,3.88,4.62,-4.62,-4.46,-4.03,-0.72,-0.74,-0.74
387.97,3.87,4.60,3.85,4.58,-4.58,-4.42,-4.00,-0.71,-0.73,-0.73
391.85,3.83,4.55,3.82,4.54,-4.54,-4.37,-3.98,-0.71,-0.72,-0.72
395.77,3.79,4.50,3.79,4.50,-4.50,-4.32,-3.96,-0.71,-0.71,-0.71
399.73,3.75,4.45,3.76,4.46,-4.46,-4.27,-3.95,-0.71,-0.70,-0.71
403.72,3.71,4.39,3.73,4.42,-4.42,-4.23,-3.94,-0.71,-0.69,-0.68
407.76,3.69,4.37,3.69,4.38,-4.38,-4.18,-3.92,-0.69,-0.68,-0.68
411.84,3.66,4.33,3.66,4.33,-4.33,-4.13,-3.92,-0.68,-0.67,-0.68
415.96,3.64,4.29,3.62,4.29,-4.29,-4.08,-3.91,-0.65,-0.67,-0.66
420.12,3.61,4.27,3.59,4.25,-4.25,-4.03,-3.90,-0.64,-0.66,-0.66
424.32,3.57,4.22,3.55,4.20,-4.20,-3.98,-3.89,-0.64,-0.65,-0.65
428.56,3.52,4.15,3.52,4.16,-4.16,-3.94,-3.89,-0.64,-0.64,-0.63
432.85,3.48,4.10,3.48,4.11,-4.11,-3.89,-3.88,-0.63,-0.63,-0.63
437.18,3.44,4.06,3.44,4.06,-4.06,-3.84,-3.88,-0.63,-0.62,-0.63
441.55,3.41,4.03,3.40,4.02,-4.02,-3.79,-3.87,-0.61,-0.62,-0.62
445.96,3.36,3.97,3.36,3.97,-3.97,-3.74,-3.87,-0.61,-0.61,-0.61
450.42,3.32,3.92,3.32,3.92,-3.92,-3.69,-3.86,-0.60,-0.60,-0.60
454.93,3.28,3.87,3.27,3.86,-3.86,-3.65,-3.86,-0.59,-0.59,-0.59
459.48,3.24,3.82,3.23,3.81,-3.81,-3.60,-3.85,-0.58,-0.58,-0.59
464.07,3.20,3.76,3.19,3.76,-3.76,-3.55,-3.84,-0.57,-0.57,-0.57
468.71,3.15,3.70,3.15,3.71,-3.71,-3.50,-3.82,-0.56,-0.56,-0.56
473.40,3.10,3.65,3.10,3.66,-3.66,-3.45,-3.81,-0.56,-0.55,-0.55
478.13,3.06,3.60,3.06,3.61,-3.61,-3.40,-3.79,-0.55,-0.54,-0.54
482.91,3.02,3.55,3.02,3.56,-3.56,-3.36,-3.77,-0.54,-0.53,-0.53
487.74,2.98,3.50,2.98,3.51,-3.51,-3.31,-3.75,-0.53,-0.52,-0.52
492.62,2.95,3.46,2.95,3.46,-3.46,-3.26,-3.72,-0.51,-0.51,-0.52
497.55,2.91,3.41,2.91,3.41,-3.41,-3.21,-3.69,-0.50,-0.50,-0.51
502.52,2.88,3.37,2.87,3.36,-3.36,-3.16,-3.66,-0.49,-0.49,-0.50
507.55,2.84,3.31,2.83,3.31,-3.31,-3.11,-3.62,-0.48,-0.48,-0.48
512.62,2.80,3.27,2.80,3.27,-3.27,-3.07,-3.58,-0.47,-0.47,-0.47
517.75,2.76,3.21,2.76,3.22,-3.22,-3.02,-3.54,-0.46,-0.46,-0.45
522.93,2.73,3.17,2.73,3.17,-3.17,-2.97,-3.49,-0.45,-0.44,-0.44
528.16,2.70,3.13,2.69,3.13,-3.13,-2.92,-3.44,-0.43,-0.43,-0.43
