frequency,raw,error,smoothed,error_smoothed,equalization,parametric_eq,fixed_band_eq,equalized_raw,equalized_smoothed,target
20.00,3.09,-8.37,3.16,-8.30,8.30,7.46,3.61,11.39,11.46,11.46
20.20,3.13,-8.32,3.16,-8.29,8.29,7.56,3.70,11.42,11.45,11.45
20.40,3.17,-8.27,3.16,-8.28,8.28,7.66,3.80,11.45,11.44,11.44
20.61,3.21,-8.23,3.16,-8.27,8.27,7.76,3.91,11.48,11.43,11.44
20.81,3.25,-8.17,3.16,-8.26,8.26,7.85,4.01,11.51,11.42,11.41
21.02,3.29,-8.13,3.17,-8.25,8.25,7.93,4.12,11.53,11.41,11.41
21.23,3.24,-8.16,3.18,-8.23,8.23,8.01,4.24,11.47,11.41,11.40
21.44,3.19,-8.22,3.19,-8.21,8.21,8.09,4.35,11.40,11.40,11.41
21.66,3.14,-8.26,3.20,-8.19,8.19,8.16,4.47,11.33,11.39,11.40
21.87,3.10,-8.29,3.22,-8.17,8.17,8.22,4.60,11.27,11.38,11.39
22.09,3.10,-8.28,3.24,-8.14,8.14,8.28,4.72,11.24,11.38,11.38
22.31,3.17,-8.21,3.26,-8.12,8.12,8.32,4.85,11.29,11.37,11.38
22.54,3.24,-8.13,3.28,-8.09,8.09,8.37,4.99,11.33,11.37,11.37
22.76,3.32,-8.05,3.30,-8.06,8.06,8.40,5.13,11.38,11.36,11.37
22.99,3.39,-7.97,3.33,-8.03,8.03,8.43,5.27,11.42,11.36,11.35
23.22,3.42,-7.93,3.36,-7.99,7.99,8.45,5.41,11.41,11.36,11.34
23.45,3.45,-7.90,3.40,-7.95,7.95,8.46,5.56,11.40,11.35,11.35
23.69,3.49,-7.85,3.45,-7.90,7.90,8.46,5.71,11.39,11.35,11.34
23.92,3.52,-7.82,3.49,-7.86,7.86,8.46,5.86,11.38,11.35,11.34
24.16,3.54,-7.81,3.53,-7.82,7.82,8.45,6.02,11.36,11.35,11.35
24.40,3.55,-7.81,3.56,-7.78,7.78,8.44,6.18,11.33,11.35,11.36
24.65,3.57,-7.79,3.59,-7.76,7.76,8.41,6.35,11.32,11.35,11.35
24.89,3.58,-7.77,3.61,-7.74,7.74,8.39,6.51,11.31,11.35,11.35
25.14,3.60,-7.75,3.63,-7.72,7.72,8.35,6.68,11.32,11.35,11.35
25.39,3.63,-7.72,3.64,-7.72,7.72,8.31,6.85,11.35,11.35,11.35
25.65,3.66,-7.69,3.64,-7.72,7.72,8.26,7.02,11.38,11.36,11.35
25.91,3.68,-7.68,3.64,-7.72,7.72,8.21,7.20,11.40,11.36,11.36
26.16,3.69,-7.68,3.64,-7.72,7.72,8.16,7.37,11.41,11.36,11.36
26.43,3.69,-7.67,3.64,-7.72,7.72,8.10,7.54,11.41,11.36,11.36
26.69,3.69,-7.67,3.65,-7.71,7.71,8.04,7.72,11.40,11.36,11.36
26.96,3.69,-7.67,3.66,-7.70,7.70,7.98,7.89,11.39,11.36,11.36
27.23,3.66,-7.70,3.67,-7.68,7.68,7.91,8.06,11.34,11.36,11.36
27.50,3.62,-7.73,3.69,-7.67,7.67,7.84,8.22,11.28,11.36,11.35
27.77,3.59,-7.77,3.71,-7.65,7.65,7.77,8.39,11.24,11.36,11.36
28.05,3.58,-7.78,3.72,-7.63,7.63,7.70,8.54,11.21,11.36,11.36
28.33,3.67,-7.68,3.73,-7.62,7.62,7.63,8.69,11.29,11.35,11.34
28.62,3.76,-7.58,3.75,-7.61,7.61,7.55,8.83,11.36,11.35,11.34
28.90,3.86,-7.49,3.76,-7.59,7.59,7.48,8.96,11.45,11.35,11.35
29.19,3.89,-7.46,3.78,-7.57,7.57,7.41,9.08,11.45,11.35,11.35
29.48,3.89,-7.45,3.80,-7.54,7.54,7.34,9.19,11.43,11.34,11.34
29.78,3.89,-7.45,3.83,-7.51,7.51,7.27,9.29,11.40,11.34,11.34
30.08,3.88,-7.47,3.85,-7.48,7.48,7.20,9.37,11.36,11.33,11.35
30.38,3.86,-7.47,3.88,-7.45,7.45,7.14,9.44,11.31,11.32,11.33
30.68,3.84,-7.48,3.90,-7.42,7.42,7.07,9.49,11.25,11.32,11.32
30.99,3.81,-7.51,3.92,-7.39,7.39,7.01,9.52,11.20,11.31,11.31
31.30,3.86,-7.44,3.94,-7.36,7.36,6.95,9.54,11.22,11.30,11.30
31.61,3.92,-7.38,3.94,-7.36,7.36,6.89,9.54,11.27,11.30,11.30
31.93,3.98,-7.30,3.93,-7.36,7.36,6.83,9.52,11.33,11.29,11.28
32.24,3.99,-7.29,3.92,-7.36,7.36,6.78,9.49,11.35,11.28,11.28
32.57,3.99,-7.27,3.92,-7.35,7.35,6.73,9.44,11.34,11.27,11.26
32.89,3.99,-7.27,3.93,-7.34,7.34,6.69,9.38,11.32,11.27,11.26
33.22,3.99,-7.26,3.94,-7.32,7.32,6.64,9.30,11.31,11.26,11.25
33.55,3.99,-7.26,3.96,-7.30,7.30,6.60,9.21,11.28,11.25,11.25
33.89,3.99,-7.26,3.97,-7.27,7.27,6.57,9.11,11.26,11.25,11.25
34.23,3.95,-7.29,3.99,-7.25,7.25,6.53,9.00,11.20,11.24,11.24
34.57,3.90,-7.33,4.01,-7.22,7.22,6.51,8.89,11.12,11.23,11.23
34.92,3.84,-7.38,4.02,-7.20,7.20,6.48,8.76,11.04,11.23,11.22
35.27,3.93,-7.30,4.04,-7.18,7.18,6.46,8.63,11.11,11.22,11.23
35.62,4.06,-7.15,4.06,-7.15,7.15,6.44,8.50,11.21,11.21,11.21
35.97,4.19,-7.02,4.08,-7.12,7.12,6.42,8.36,11.31,11.20,11.20
36.33,4.20,-6.99,4.10,-7.08,7.08,6.41,8.23,11.28,11.18,11.19
36.70,4.19,-6.98,4.12,-7.04,7.04,6.40,8.08,11.23,11.16,11.17
37.06,4.19,-6.96,4.14,-7.00,7.00,6.40,7.94,11.19,11.14,11.15
37.43,4.19,-6.93,4.16,-6.96,6.96,6.40,7.80,11.15,11.12,11.12
37.81,4.19,-6.92,4.18,-6.92,6.92,6.40,7.66,11.11,11.10,11.10
38.19,4.19,-6.89,4.19,-6.88,6.88,6.40,7.53,11.07,11.07,11.08
38.57,4.19,-6.86,4.21,-6.84,6.84,6.41,7.39,11.03,11.05,11.05
38.95,4.19,-6.83,4.21,-6.80,6.80,6.42,7.26,10.99,11.02,11.02
39.34,4.19,-6.79,4.21,-6.78,6.78,6.43,7.13,10.97,10.99,10.98
39.74,4.19,-6.77,4.21,-6.75,6.75,6.44,7.00,10.94,10.96,10.96
40.14,4.19,-6.74,4.21,-6.72,6.72,6.45,6.88,10.91,10.93,10.93
40.54,4.20,-6.70,4.22,-6.68,6.68,6.47,6.76,10.88,10.90,10.90
40.94,4.20,-6.67,4.23,-6.64,6.64,6.48,6.65,10.84,10.87,10.87
41.35,4.23,-6.62,4.24,-6.60,6.60,6.50,6.54,10.83,10.84,10.84
41.76,4.27,-6.53,4.25,-6.56,6.56,6.51,6.43,10.83,10.81,10.80
42.18,4.29,-6.49,4.26,-6.53,6.53,6.52,6.33,10.81,10.78,10.78
42.60,4.29,-6.47,4.27,-6.48,6.48,6.53,6.24,10.77,10.75,10.76
43.03,4.29,-6.43,4.28,-6.44,6.44,6.54,6.14,10.73,10.72,10.72
43.46,4.29,-6.40,4.29,-6.41,6.41,6.55,6.06,10.70,10.69,10.69
43.90,4.29,-6.38,4.28,-6.38,6.38,6.55,5.97,10.67,10.66,10.66
44.33,4.29,-6.34,4.28,-6.35,6.35,6.54,5.90,10.64,10.63,10.63
44.78,4.29,-6.30,4.28,-6.32,6.32,6.53,5.82,10.61,10.60,10.59
45.23,4.29,-6.29,4.28,-6.29,6.29,6.52,5.75,10.58,10.56,10.58
45.68,4.29,-6.24,4.28,-6.25,6.25,6.49,5.69,10.54,10.52,10.53
46.13,4.29,-6.19,4.28,-6.21,6.21,6.46,5.63,10.50,10.48,10.48
46.60,4.29,-6.16,4.28,-6.17,6.17,6.43,5.57,10.45,10.44,10.45
47.06,4.28,-6.13,4.28,-6.12,6.12,6.39,5.52,10.39,10.40,10.41
47.53,4.22,-6.15,4.29,-6.06,6.06,6.33,5.47,10.28,10.35,10.37
48.01,4.15,-6.16,4.30,-6.01,6.01,6.28,5.43,10.16,10.31,10.31
48.49,4.27,-5.99,4.31,-5.95,5.95,6.21,5.39,10.22,10.26,10.26
48.97,4.38,-5.83,4.32,-5.89,5.89,6.14,5.35,10.27,10.21,10.21
49.46,4.39,-5.77,4.33,-5.83,5.83,6.06,5.32,10.22,10.16,10.16
49.96,4.39,-5.70,4.34,-5.77,5.77,5.97,5.29,10.16,10.11,10.09
50.46,4.39,-5.66,4.35,-5.71,5.71,5.88,5.26,10.10,10.06,10.05
50.96,4.39,-5.61,4.35,-5.65,5.65,5.78,5.23,10.04,10.01,10.00
51.47,4.39,-5.57,4.36,-5.59,5.59,5.67,5.21,9.98,9.96,9.96
51.99,4.39,-5.51,4.38,-5.52,5.52,5.56,5.19,9.91,9.90,9.90
52.51,4.39,-5.47,4.40,-5.46,5.46,5.45,5.17,9.84,9.85,9.85
53.03,4.39,-5.43,4.41,-5.39,5.39,5.34,5.15,9.78,9.80,9.82
53.56,4.39,-5.37,4.42,-5.33,5.33,5.22,5.13,9.72,9.75,9.76
54.10,4.39,-5.31,4.42,-5.28,5.28,5.10,5.12,9.67,9.70,9.70
54.64,4.39,-5.26,4.43,-5.22,5.22,4.97,5.10,9.61,9.65,9.65
55.18,4.39,-5.20,4.44,-5.16,5.16,4.85,5.08,9.55,9.60,9.59
55.74,4.40,-5.14,4.45,-5.10,5.10,4.72,5.06,9.50,9.55,9.53
56.29,4.46,-5.03,4.45,-5.05,5.05,4.60,5.05,9.51,9.50,9.49
56.86,4.58,-4.87,4.46,-5.00,5.00,4.47,5.03,9.57,9.45,9.45
57.42,4.56,-4.82,4.46,-4.94,4.94,4.35,5.01,9.50,9.40,9.38
58.00,4.49,-4.86,4.47,-4.88,4.88,4.23,4.98,9.37,9.35,9.34
58.58,4.49,-4.82,4.48,-4.81,4.81,4.10,4.96,9.30,9.29,9.31
59.16,4.49,-4.77,4.49,-4.75,4.75,3.98,4.93,9.24,9.24,9.26
59.76,4.49,-4.72,4.50,-4.68,4.68,3.87,4.89,9.17,9.18,9.21
60.35,4.48,-4.66,4.51,-4.61,4.61,3.75,4.86,9.09,9.12,9.14
60.96,4.46,-4.62,4.52,-4.54,4.54,3.63,4.82,9.00,9.06,9.07
61.57,4.44,-4.56,4.52,-4.48,4.48,3.52,4.77,8.91,9.00,9.00
62.18,4.45,-4.48,4.53,-4.41,4.41,3.41,4.72,8.85,8.93,8.93
62.80,4.56,-4.29,4.53,-4.34,4.34,3.30,4.67,8.90,8.87,8.85
63.43,4.60,-4.19,4.54,-4.26,4.26,3.20,4.62,8.86,8.80,8.78
64.07,4.60,-4.13,4.55,-4.18,4.18,3.09,4.55,8.78,8.73,8.73
64.71,4.60,-4.06,4.57,-4.10,4.10,2.99,4.49,8.70,8.66,8.66
65.35,4.60,-4.00,4.58,-4.02,4.02,2.90,4.42,8.61,8.59,8.59
66.01,4.60,-3.92,4.59,-3.94,3.94,2.80,4.35,8.53,8.52,8.52
66.67,4.60,-3.87,4.60,-3.86,3.86,2.71,4.27,8.46,8.45,8.47
67.33,4.60,-3.79,4.60,-3.78,3.78,2.62,4.19,8.38,8.39,8.39
68.01,4.60,-3.72,4.61,-3.71,3.71,2.53,4.10,8.30,8.32,8.32
68.69,4.60,-3.64,4.61,-3.63,3.63,2.44,4.02,8.23,8.24,8.24
69.37,4.60,-3.58,4.61,-3.57,3.57,2.36,3.93,8.16,8.17,8.18
70.07,4.60,-3.51,4.60,-3.50,3.50,2.27,3.83,8.10,8.10,8.10
70.77,4.60,-3.43,4.60,-3.43,3.43,2.19,3.74,8.03,8.03,8.03
71.48,4.60,-3.36,4.60,-3.36,3.36,2.12,3.64,7.95,7.95,7.96
72.19,4.60,-3.28,4.59,-3.29,3.29,2.04,3.55,7.88,7.88,7.88
72.91,4.60,-3.20,4.59,-3.21,3.21,1.97,3.45,7.81,7.81,7.80
73.64,4.60,-3.13,4.60,-3.13,3.13,1.89,3.35,7.73,7.73,7.73
74.38,4.60,-3.06,4.61,-3.05,3.05,1.82,3.25,7.65,7.66,7.66
75.12,4.60,-2.98,4.61,-2.98,2.98,1.76,3.14,7.58,7.59,7.58
75.87,4.60,-2.92,4.61,-2.91,2.91,1.69,3.04,7.51,7.52,7.52
76.63,4.60,-2.85,4.61,-2.84,2.84,1.62,2.94,7.44,7.45,7.45
77.40,4.60,-2.79,4.61,-2.78,2.78,1.56,2.84,7.38,7.39,7.38
78.17,4.60,-2.71,4.60,-2.72,2.72,1.50,2.74,7.32,7.32,7.31
78.95,4.60,-2.66,4.59,-2.66,2.66,1.44,2.64,7.26,7.25,7.26
79.74,4.62,-2.57,4.58,-2.60,2.60,1.38,2.54,7.22,7.18,7.19
80.54,4.68,-2.44,4.57,-2.55,2.55,1.32,2.44,7.22,7.12,7.12
81.35,4.64,-2.41,4.56,-2.49,2.49,1.26,2.34,7.13,7.05,7.05
82.16,4.49,-2.50,4.55,-2.43,2.43,1.21,2.25,6.92,6.98,6.99
82.98,4.49,-2.43,4.54,-2.38,2.38,1.15,2.15,6.86,6.92,6.92
83.81,4.49,-2.36,4.53,-2.32,2.32,1.10,2.06,6.81,6.85,6.85
84.65,4.49,-2.29,4.52,-2.26,2.26,1.05,1.96,6.75,6.78,6.78
85.50,4.49,-2.21,4.51,-2.20,2.20,1.00,1.87,6.68,6.71,6.69
86.35,4.49,-2.14,4.50,-2.13,2.13,0.95,1.78,6.62,6.63,6.63
87.22,4.50,-2.06,4.49,-2.07,2.07,0.90,1.69,6.57,6.56,6.56
88.09,4.50,-1.99,4.49,-2.00,2.00,0.85,1.60,6.50,6.49,6.49
88.97,4.50,-1.92,4.49,-1.93,1.93,0.80,1.51,6.43,6.41,6.42
89.86,4.50,-1.83,4.49,-1.85,1.85,0.75,1.42,6.35,6.34,6.33
90.76,4.50,-1.76,4.49,-1.76,1.76,0.71,1.34,6.26,6.26,6.26
91.66,4.50,-1.67,4.50,-1.67,1.67,0.66,1.25,6.17,6.18,6.17
92.58,4.50,-1.60,4.50,-1.59,1.59,0.62,1.17,6.09,6.09,6.10
93.51,4.50,-1.52,4.50,-1.51,1.51,0.57,1.09,6.01,6.01,6.02
94.44,4.50,-1.44,4.50,-1.42,1.42,0.53,1.01,5.92,5.92,5.94
95.39,4.50,-1.35,4.49,-1.34,1.34,0.48,0.93,5.84,5.84,5.84
96.34,4.50,-1.25,4.49,-1.26,1.26,0.44,0.85,5.76,5.75,5.75
97.30,4.49,-1.17,4.48,-1.17,1.17,0.40,0.77,5.66,5.65,5.66
98.28,4.48,-1.08,4.47,-1.09,1.09,0.36,0.69,5.57,5.56,5.56
99.26,4.47,-0.99,4.46,-1.01,1.01,0.32,0.61,5.48,5.47,5.46
100.25,4.45,-0.92,4.45,-0.93,0.93,0.27,0.54,5.37,5.38,5.36
101.25,4.43,-0.85,4.43,-0.85,0.85,0.23,0.46,5.27,5.28,5.28
102.27,4.42,-0.77,4.42,-0.77,0.77,0.19,0.39,5.19,5.19,5.18
103.29,4.41,-0.68,4.39,-0.70,0.70,0.15,0.32,5.11,5.09,5.09
104.32,4.39,-0.62,4.38,-0.62,0.62,0.11,0.24,5.01,5.00,5.00
105.37,4.36,-0.55,4.36,-0.54,0.54,0.07,0.17,4.90,4.90,4.91
106.42,4.34,-0.47,4.34,-0.47,0.47,0.03,0.10,4.81,4.81,4.81
107.48,4.32,-0.39,4.32,-0.39,0.39,-0.01,0.04,4.71,4.72,4.71
108.56,4.29,-0.34,4.30,-0.32,0.32,-0.05,-0.03,4.61,4.63,4.63
109.64,4.27,-0.27,4.28,-0.25,0.25,-0.09,-0.10,4.52,4.54,4.54
110.74,4.25,-0.19,4.26,-0.18,0.18,-0.13,-0.16,4.43,4.45,4.44
111.85,4.23,-0.13,4.24,-0.11,0.11,-0.16,-0.22,4.34,4.36,4.36
112.97,4.22,-0.05,4.23,-0.04,0.04,-0.20,-0.29,4.26,4.27,4.27
114.10,4.25,0.06,4.21,0.03,-0.03,-0.24,-0.35,4.22,4.18,4.19
115.24,4.30,0.20,4.19,0.10,-0.10,-0.28,-0.41,4.20,4.10,4.09
116.39,4.18,0.18,4.18,0.17,-0.17,-0.32,-0.46,4.01,4.01,4.00
117.55,4.12,0.19,4.17,0.24,-0.24,-0.36,-0.52,3.88,3.93,3.93
118.73,4.13,0.29,4.17,0.31,-0.31,-0.40,-0.57,3.82,3.85,3.84
119.92,4.13,0.36,4.16,0.38,-0.38,-0.44,-0.63,3.75,3.78,3.77
121.12,4.14,0.43,4.16,0.46,-0.46,-0.48,-0.68,3.68,3.70,3.70
122.33,4.15,0.52,4.15,0.53,-0.53,-0.52,-0.73,3.62,3.62,3.62
123.55,4.16,0.60,4.15,0.60,-0.60,-0.56,-0.77,3.56,3.55,3.55
124.79,4.16,0.67,4.16,0.68,-0.68,-0.60,-0.82,3.48,3.47,3.49
126.03,4.17,0.76,4.16,0.77,-0.77,-0.64,-0.86,3.40,3.40,3.41
127.29,4.18,0.85,4.17,0.85,-0.85,-0.68,-0.91,3.33,3.33,3.33
128.57,4.18,0.92,4.18,0.93,-0.93,-0.72,-0.95,3.25,3.26,3.26
129.85,4.19,1.01,4.20,1.01,-1.01,-0.77,-0.99,3.18,3.18,3.18
131.15,4.19,1.08,4.20,1.09,-1.09,-0.81,-1.03,3.10,3.11,3.11
132.46,4.20,1.17,4.20,1.16,-1.16,-0.85,-1.06,3.03,3.04,3.03
133.79,4.20,1.24,4.20,1.24,-1.24,-0.89,-1.10,2.96,2.97,2.96
135.12,4.21,1.32,4.20,1.30,-1.30,-0.94,-1.13,2.91,2.89,2.89
136.48,4.26,1.43,4.19,1.37,-1.37,-0.98,-1.17,2.89,2.82,2.83
137.84,4.29,1.53,4.19,1.44,-1.44,-1.02,-1.20,2.84,2.75,2.76
139.22,4.18,1.51,4.19,1.51,-1.51,-1.07,-1.24,2.67,2.68,2.67
140.61,4.12,1.50,4.17,1.56,-1.56,-1.11,-1.27,2.56,2.61,2.62
142.02,4.12,1.58,4.16,1.62,-1.62,-1.16,-1.30,2.50,2.54,2.54
143.44,4.12,1.65,4.16,1.68,-1.68,-1.20,-1.33,2.44,2.47,2.47
144.87,4.12,1.72,4.14,1.74,-1.74,-1.25,-1.37,2.38,2.41,2.40
146.32,4.12,1.78,4.13,1.79,-1.79,-1.30,-1.40,2.33,2.34,2.34
147.78,4.12,1.85,4.11,1.84,-1.84,-1.34,-1.43,2.28,2.27,2.27
149.26,4.12,1.92,4.09,1.89,-1.89,-1.39,-1.46,2.23,2.20,2.20
150.75,4.12,1.99,4.07,1.93,-1.93,-1.44,-1.50,2.18,2.13,2.12
152.26,4.08,2.01,4.05,1.98,-1.98,-1.49,-1.53,2.10,2.07,2.07
153.78,3.96,1.96,4.03,2.03,-2.03,-1.54,-1.57,1.93,2.00,2.00
155.32,4.03,2.09,4.02,2.09,-2.09,-1.59,-1.60,1.94,1.93,1.94
156.88,4.10,2.23,4.01,2.15,-2.15,-1.64,-1.64,1.95,1.86,1.86
158.44,3.97,2.18,3.99,2.20,-2.20,-1.69,-1.68,1.77,1.79,1.79
160.03,3.92,2.20,3.98,2.25,-2.25,-1.74,-1.72,1.66,1.72,1.72
161.63,3.92,2.26,3.96,2.31,-2.31,-1.80,-1.76,1.61,1.65,1.65
163.24,3.91,2.33,3.94,2.36,-2.36,-1.85,-1.80,1.55,1.58,1.58
164.88,3.91,2.40,3.92,2.41,-2.41,-1.90,-1.85,1.50,1.51,1.51
166.53,3.91,2.47,3.90,2.46,-2.46,-1.96,-1.89,1.45,1.44,1.44
168.19,3.90,2.53,3.88,2.51,-2.51,-2.01,-1.94,1.38,1.37,1.37
169.87,3.89,2.59,3.87,2.57,-2.57,-2.07,-1.99,1.32,1.30,1.30
171.57,3.92,2.69,3.86,2.63,-2.63,-2.12,-2.04,1.29,1.23,1.23
173.29,3.92,2.76,3.85,2.69,-2.69,-2.18,-2.09,1.23,1.16,1.16
175.02,3.82,2.72,3.84,2.74,-2.74,-2.23,-2.14,1.08,1.10,1.10
176.77,3.78,2.75,3.83,2.80,-2.80,-2.29,-2.20,0.98,1.03,1.03
178.54,3.77,2.80,3.82,2.85,-2.85,-2.35,-2.26,0.92,0.97,0.97
180.32,3.77,2.87,3.80,2.89,-2.89,-2.41,-2.32,0.87,0.91,0.90
182.13,3.78,2.93,3.79,2.94,-2.94,-2.46,-2.38,0.84,0.85,0.85
183.95,3.79,2.99,3.77,2.98,-2.98,-2.52,-2.44,0.81,0.79,0.80
185.79,3.80,3.06,3.76,3.03,-3.03,-2.58,-2.50,0.77,0.74,0.73
187.65,3.82,3.13,3.75,3.07,-3.07,-2.64,-2.57,0.75,0.68,0.68
189.52,3.75,3.12,3.74,3.12,-3.12,-2.70,-2.64,0.63,0.63,0.63
191.42,3.74,3.15,3.73,3.16,-3.16,-2.75,-2.71,0.58,0.58,0.59
193.33,3.69,3.16,3.73,3.21,-3.21,-2.81,-2.78,0.48,0.52,0.53
195.27,3.67,3.19,3.73,3.26,-3.26,-2.87,-2.85,0.41,0.47,0.47
197.22,3.69,3.27,3.72,3.30,-3.30,-2.93,-2.93,0.39,0.43,0.42
199.19,3.70,3.32,3.71,3.33,-3.33,-2.99,-3.00,0.37,0.38,0.38
201.18,3.70,3.38,3.69,3.36,-3.36,-3.04,-3.08,0.34,0.33,0.32
203.19,3.73,3.45,3.68,3.39,-3.39,-3.10,-3.15,0.34,0.28,0.28
205.23,3.73,3.49,3.66,3.42,-3.42,-3.16,-3.23,0.31,0.24,0.24
207.28,3.65,3.45,3.64,3.45,-3.45,-3.21,-3.30,0.20,0.19,0.20
209.35,3.61,3.46,3.62,3.47,-3.47,-3.27,-3.38,0.14,0.15,0.15
211.44,3.61,3.50,3.60,3.50,-3.50,-3.32,-3.45,0.11,0.10,0.10
213.56,3.60,3.53,3.58,3.52,-3.52,-3.37,-3.53,0.08,0.06,0.07
215.69,3.56,3.54,3.56,3.54,-3.54,-3.42,-3.60,0.02,0.02,0.02
217.85,3.46,3.47,3.53,3.55,-3.55,-3.47,-3.67,-0.10,-0.02,-0.01
220.03,3.50,3.57,3.51,3.57,-3.57,-3.52,-3.74,-0.07,-0.06,-0.07
222.23,3.53,3.63,3.48,3.58,-3.58,-3.56,-3.81,-0.05,-0.09,-0.10
224.45,3.45,3.58,3.46,3.59,-3.59,-3.61,-3.87,-0.14,-0.13,-0.14
226.70,3.39,3.56,3.44,3.60,-3.60,-3.65,-3.93,-0.21,-0.16,-0.17
228.96,3.39,3.58,3.42,3.61,-3.61,-3.69,-3.99,-0.22,-0.19,-0.19
231.25,3.41,3.62,3.41,3.62,-3.62,-3.73,-4.04,-0.21,-0.21,-0.21
233.57,3.43,3.67,3.39,3.62,-3.62,-3.76,-4.09,-0.20,-0.23,-0.24
235.90,3.40,3.66,3.37,3.63,-3.63,-3.79,-4.13,-0.23,-0.25,-0.26
238.26,3.35,3.63,3.36,3.63,-3.63,-3.82,-4.17,-0.28,-0.27,-0.28
240.64,3.36,3.64,3.35,3.63,-3.63,-3.85,-4.20,-0.27,-0.28,-0.28
243.05,3.37,3.66,3.34,3.64,-3.64,-3.87,-4.23,-0.27,-0.30,-0.29
245.48,3.32,3.63,3.33,3.64,-3.64,-3.90,-4.24,-0.32,-0.31,-0.31
247.93,3.31,3.64,3.33,3.65,-3.65,-3.91,-4.25,-0.34,-0.32,-0.33
250.41,3.32,3.64,3.32,3.65,-3.65,-3.93,-4.26,-0.33,-0.33,-0.32
252.92,3.25,3.58,3.31,3.65,-3.65,-3.94,-4.26,-0.40,-0.34,-0.33
255.45,3.26,3.61,3.29,3.65,-3.65,-3.95,-4.25,-0.39,-0.35,-0.35
258.00,3.27,3.63,3.27,3.64,-3.64,-3.95,-4.24,-0.37,-0.37,-0.36
260.58,3.27,3.64,3.24,3.62,-3.62,-3.96,-4.21,-0.35,-0.38,-0.37
263.19,3.28,3.66,3.22,3.61,-3.61,-3.95,-4.19,-0.34,-0.39,-0.38
265.82,3.27,3.68,3.20,3.61,-3.61,-3.95,-4.15,-0.34,-0.41,-0.41
268.48,3.27,3.69,3.17,3.60,-3.60,-3.94,-4.12,-0.33,-0.43,-0.42
271.16,3.16,3.60,3.15,3.59,-3.59,-3.93,-4.07,-0.43,-0.44,-0.44
273.87,3.06,3.51,3.12,3.58,-3.58,-3.92,-4.02,-0.52,-0.45,-0.45
276.61,3.06,3.53,3.09,3.56,-3.56,-3.90,-3.97,-0.51,-0.47,-0.47
279.38,3.00,3.50,3.06,3.55,-3.55,-3.88,-3.92,-0.55,-0.48,-0.50
282.17,2.97,3.47,3.03,3.53,-3.53,-3.85,-3.86,-0.56,-0.50,-0.50
284.99,2.97,3.48,3.00,3.50,-3.50,-3.83,-3.80,-0.53,-0.50,-0.51
287.84,2.98,3.49,2.96,3.48,-3.48,-3.80,-3.73,-0.50,-0.51,-0.51
290.72,2.99,3.52,2.94,3.46,-3.46,-3.77,-3.66,-0.47,-0.52,-0.53
293.63,2.96,3.49,2.92,3.45,-3.45,-3.73,-3.60,-0.49,-0.53,-0.53
296.57,2.92,3.45,2.89,3.43,-3.43,-3.70,-3.53,-0.51,-0.54,-0.53
299.53,2.85,3.39,2.87,3.41,-3.41,-3.66,-3.46,-0.56,-0.54,-0.54
302.53,2.84,3.37,2.85,3.40,-3.40,-3.62,-3.39,-0.56,-0.54,-0.54
305.55,2.82,3.36,2.83,3.38,-3.38,-3.57,-3.32,-0.56,-0.55,-0.54
308.61,2.77,3.31,2.81,3.36,-3.36,-3.53,-3.25,-0.59,-0.55,-0.54
311.69,2.76,3.32,2.78,3.33,-3.33,-3.48,-3.18,-0.58,-0.55,-0.56
314.81,2.77,3.32,2.75,3.31,-3.31,-3.44,-3.11,-0.54,-0.56,-0.55
317.96,2.77,3.34,2.71,3.28,-3.28,-3.39,-3.04,-0.51,-0.56,-0.57
321.14,2.75,3.32,2.68,3.25,-3.25,-3.34,-2.98,-0.50,-0.57,-0.57
324.35,2.61,3.18,2.64,3.21,-3.21,-3.28,-2.91,-0.60,-0.57,-0.57
327.59,2.57,3.14,2.60,3.18,-3.18,-3.23,-2.85,-0.61,-0.58,-0.57
330.87,2.56,3.13,2.56,3.14,-3.14,-3.18,-2.79,-0.59,-0.58,-0.57
334.18,2.56,3.15,2.53,3.11,-3.11,-3.12,-2.72,-0.55,-0.58,-0.59
337.52,2.49,3.07,2.48,3.07,-3.07,-3.07,-2.67,-0.58,-0.58,-0.58
340.90,2.44,3.03,2.44,3.02,-3.02,-3.02,-2.61,-0.59,-0.58,-0.59
344.30,2.37,2.95,2.39,2.98,-2.98,-2.96,-2.55,-0.61,-0.58,-0.58
347.75,2.36,2.94,2.35,2.93,-2.93,-2.90,-2.50,-0.57,-0.58,-0.58
351.23,2.31,2.90,2.30,2.88,-2.88,-2.85,-2.45,-0.57,-0.58,-0.59
354.74,2.26,2.84,2.26,2.84,-2.84,-2.79,-2.40,-0.58,-0.58,-0.58
358.28,2.18,2.76,2.22,2.80,-2.80,-2.74,-2.35,-0.62,-0.58,-0.58
361.87,2.17,2.74,2.19,2.76,-2.76,-2.68,-2.31,-0.60,-0.57,-0.58
365.49,2.18,2.75,2.15,2.72,-2.72,-2.62,-2.26,-0.55,-0.57,-0.57
369.14,2.11,2.67,2.12,2.68,-2.68,-2.57,-2.22,-0.58,-0.57,-0.56
372.83,2.05,2.61,2.08,2.64,-2.64,-2.51,-2.18,-0.59,-0.56,-0.56
376.56,2.01,2.57,2.04,2.61,-2.61,-2.46,-2.15,-0.60,-0.56,-0.56
380.33,2.01,2.57,2.00,2.57,-2.57,-2.40,-2.11,-0.56,-0.56,-0.56
384.13,2.01,2.56,1.97,2.53,-2.53,-2.35,-2.08,-0.53,-0.57,-0.56
387.97,1.96,2.52,1.93,2.50,-2.50,-2.29,-2.04,-0.54,-0.57,-0.56
391.85,1.93,2.49,1.88,2.45,-2.45,-2.24,-2.01,-0.53,-0.57,-0.56
395.77,1.87,2.44,1.84,2.41,-2.41,-2.18,-1.98,-0.55,-0.58,-0.58
399.73,1.82,2.40,1.79,2.38,-2.38,-2.13,-1.95,-0.56,-0.58,-0.58
403.72,1.75,2.32,1.74,2.33,-2.33,-2.08,-1.93,-0.58,-0.59,-0.57
407.76,1.68,2.27,1.70,2.29,-2.29,-2.03,-1.90,-0.61,-0.59,-0.59
411.84,1.62,2.21,1.66,2.26,-2.26,-1.98,-1.88,-0.64,-0.60,-0.60
415.96,1.61,2.21,1.62,2.22,-2.22,-1.93,-1.85,-0.61,-0.60,-0.60
420.12,1.59,2.20,1.58,2.17,-2.17,-1.87,-1.83,-0.59,-0.60,-0.61
424.32,1.52,2.12,1.54,2.13,-2.13,-1.82,-1.81,-0.61,-0.59,-0.60
428.56,1.46,2.04,1.51,2.09,-2.09,-1.78,-1.78,-0.63,-0.58,-0.58
432.85,1.45,2.01,1.49,2.05,-2.05,-1.73,-1.76,-0.60,-0.56,-0.57
437.18,1.47,2.03,1.47,2.01,-2.01,-1.68,-1.74,-0.54,-0.53,-0.56
441.55,1.48,2.00,1.46,1.96,-1.96,-1.63,-1.72,-0.48,-0.50,-0.52
445.96,1.46,1.94,1.45,1.92,-1.92,-1.58,-1.70,-0.46,-0.47,-0.48
450.42,1.47,1.91,1.45,1.88,-1.88,-1.54,-1.68,-0.41,-0.42,-0.44
454.93,1.46,1.85,1.46,1.83,-1.83,-1.49,-1.66,-0.38,-0.38,-0.39
459.48,1.43,1.76,1.46,1.78,-1.78,-1.45,-1.63,-0.36,-0.33,-0.34
464.07,1.46,1.73,1.46,1.73,-1.73,-1.40,-1.61,-0.28,-0.27,-0.27
468.71,1.46,1.68,1.46,1.68,-1.68,-1.36,-1.59,-0.22,-0.22,-0.22
473.40,1.49,1.65,1.45,1.62,-1.62,-1.31,-1.56,-0.13,-0.17,-0.16
478.13,1.47,1.57,1.46,1.57,-1.57,-1.27,-1.54,-0.10,-0.12,-0.10
482.91,1.42,1.47,1.45,1.52,-1.52,-1.22,-1.51,-0.10,-0.07,-0.05
487.74,1.41,1.42,1.44,1.46,-1.46,-1.18,-1.48,-0.05,-0.02,-0.01
492.62,1.48,1.45,1.43,1.41,-1.41,-1.14,-1.45,0.07,0.02,0.02
497.55,1.47,1.40,1.41,1.36,-1.36,-1.10,-1.42,0.11,0.05,0.06
502.52,1.34,1.26,1.38,1.31,-1.31,-1.06,-1.39,0.03,0.08,0.08
507.55,1.33,1.22,1.35,1.25,-1.25,-1.01,-1.36,0.07,0.10,0.11
512.62,1.31,1.19,1.31,1.20,-1.20,-0.97,-1.32,0.10,0.11,0.12
