frequency,raw,error,smoothed,error_smoothed,equalization,parametric_eq,fixed_band_eq,equalized_raw,equalized_smoothed,target
20.00,-6.15,-13.37,-6.10,-13.33,13.33,13.68,5.93,7.18,7.22,7.23
20.20,-6.10,-13.31,-6.08,-13.30,13.30,13.63,6.07,7.20,7.22,7.22
20.40,-6.06,-13.27,-6.05,-13.27,13.27,13.58,6.22,7.21,7.21,7.22
20.61,-6.01,-13.22,-6.03,-13.24,13.24,13.54,6.37,7.23,7.21,7.22
20.81,-5.96,-13.15,-6.00,-13.21,13.21,13.49,6.52,7.25,7.21,7.20
21.02,-5.92,-13.11,-5.97,-13.18,13.18,13.45,6.68,7.26,7.20,7.20
21.23,-5.92,-13.11,-5.95,-13.15,13.15,13.41,6.85,7.23,7.20,7.20
21.44,-5.92,-13.12,-5.92,-13.12,13.12,13.36,7.02,7.20,7.20,7.21
21.66,-5.91,-13.10,-5.90,-13.10,13.10,13.32,7.19,7.19,7.20,7.20
21.87,-5.91,-13.11,-5.87,-13.07,13.07,13.28,7.37,7.16,7.20,7.21
22.09,-5.89,-13.08,-5.85,-13.04,13.04,13.24,7.55,7.16,7.20,7.20
22.31,-5.84,-13.04,-5.82,-13.02,13.02,13.21,7.74,7.18,7.20,7.21
22.54,-5.80,-12.99,-5.80,-13.00,13.00,13.17,7.93,7.20,7.20,7.20
22.76,-5.75,-12.94,-5.78,-12.98,12.98,13.13,8.13,7.23,7.20,7.20
22.99,-5.70,-12.89,-5.75,-12.96,12.96,13.10,8.33,7.26,7.20,7.20
23.22,-5.70,-12.89,-5.73,-12.93,12.93,13.06,8.53,7.23,7.21,7.20
23.45,-5.70,-12.90,-5.70,-12.91,12.91,13.03,8.75,7.21,7.21,7.21
23.69,-5.70,-12.90,-5.67,-12.88,12.88,13.00,8.96,7.18,7.21,7.21
23.92,-5.70,-12.90,-5.64,-12.85,12.85,12.97,9.19,7.16,7.21,7.21
24.16,-5.66,-12.87,-5.62,-12.83,12.83,12.93,9.41,7.17,7.21,7.22
24.40,-5.61,-12.83,-5.59,-12.81,12.81,12.90,9.65,7.20,7.22,7.23
24.65,-5.55,-12.77,-5.56,-12.78,12.78,12.87,9.88,7.24,7.22,7.23
24.89,-5.49,-12.71,-5.54,-12.76,12.76,12.84,10.13,7.27,7.22,7.23
25.14,-5.47,-12.68,-5.51,-12.74,12.74,12.82,10.37,7.27,7.22,7.22
25.39,-5.47,-12.69,-5.49,-12.71,12.71,12.79,10.63,7.24,7.22,7.23
25.65,-5.47,-12.69,-5.46,-12.68,12.68,12.76,10.88,7.21,7.22,7.23
25.91,-5.47,-12.68,-5.43,-12.65,12.65,12.73,11.14,7.18,7.22,7.22
26.16,-5.44,-12.66,-5.40,-12.62,12.62,12.71,11.40,7.18,7.22,7.23
26.43,-5.40,-12.62,-5.37,-12.59,12.59,12.68,11.67,7.19,7.22,7.23
26.69,-5.35,-12.57,-5.34,-12.56,12.56,12.65,11.93,7.21,7.22,7.23
26.96,-5.31,-12.51,-5.32,-12.54,12.54,12.63,12.20,7.23,7.22,7.21
27.23,-5.29,-12.49,-5.31,-12.52,12.52,12.60,12.47,7.24,7.21,7.21
27.50,-5.27,-12.47,-5.30,-12.51,12.51,12.58,12.73,7.24,7.21,7.21
27.77,-5.25,-12.46,-5.29,-12.50,12.50,12.55,12.99,7.25,7.21,7.22
28.05,-5.24,-12.44,-5.28,-12.48,12.48,12.53,13.24,7.24,7.20,7.21
28.33,-5.24,-12.43,-5.26,-12.46,12.46,12.50,13.49,7.22,7.20,7.20
28.62,-5.24,-12.42,-5.24,-12.43,12.43,12.48,13.73,7.19,7.19,7.19
28.90,-5.24,-12.43,-5.22,-12.41,12.41,12.45,13.95,7.17,7.19,7.20
29.19,-5.24,-12.42,-5.20,-12.38,12.38,12.43,14.16,7.14,7.18,7.19
29.48,-5.24,-12.40,-5.18,-12.36,12.36,12.41,14.35,7.12,7.17,7.17
29.78,-5.24,-12.40,-5.17,-12.33,12.33,12.38,14.51,7.09,7.16,7.17
30.08,-5.22,-12.38,-5.15,-12.30,12.30,12.36,14.66,7.08,7.16,7.17
30.38,-5.15,-12.30,-5.13,-12.27,12.27,12.33,14.78,7.12,7.15,7.15
30.68,-5.08,-12.21,-5.11,-12.24,12.24,12.31,14.87,7.16,7.14,7.14
30.99,-5.01,-12.13,-5.09,-12.21,12.21,12.29,14.93,7.20,7.13,7.13
31.30,-5.01,-12.12,-5.07,-12.18,12.18,12.26,14.97,7.17,7.12,7.12
31.61,-5.01,-12.11,-5.05,-12.16,12.16,12.24,14.97,7.15,7.11,7.11
31.93,-5.01,-12.09,-5.04,-12.14,12.14,12.21,14.95,7.13,7.10,7.09
32.24,-5.01,-12.10,-5.03,-12.12,12.12,12.19,14.90,7.11,7.09,7.10
32.57,-5.01,-12.08,-5.02,-12.11,12.11,12.16,14.82,7.10,7.09,7.08
32.89,-5.01,-12.08,-5.01,-12.09,12.09,12.14,14.72,7.08,7.08,7.08
33.22,-5.01,-12.08,-5.00,-12.08,12.08,12.11,14.60,7.07,7.08,7.08
33.55,-5.01,-12.07,-4.99,-12.06,12.06,12.09,14.46,7.05,7.07,7.07
33.89,-5.01,-12.08,-4.98,-12.05,12.05,12.06,14.30,7.04,7.07,7.08
34.23,-5.01,-12.06,-4.97,-12.03,12.03,12.03,14.14,7.02,7.07,7.06
34.57,-5.01,-12.07,-4.95,-12.01,12.01,12.01,13.96,7.00,7.06,7.07
34.92,-5.01,-12.06,-4.93,-11.99,11.99,11.98,13.78,6.98,7.06,7.06
35.27,-4.95,-12.01,-4.91,-11.96,11.96,11.95,13.59,7.01,7.05,7.07
35.62,-4.87,-11.90,-4.89,-11.93,11.93,11.92,13.40,7.06,7.04,7.04
35.97,-4.79,-11.82,-4.86,-11.90,11.90,11.89,13.21,7.11,7.03,7.04
36.33,-4.78,-11.80,-4.84,-11.86,11.86,11.86,13.02,7.08,7.02,7.03
36.70,-4.78,-11.78,-4.82,-11.83,11.83,11.83,12.83,7.05,7.00,7.01
37.06,-4.78,-11.76,-4.80,-11.79,11.79,11.80,12.64,7.01,6.99,6.99
37.43,-4.78,-11.75,-4.79,-11.75,11.75,11.77,12.46,6.98,6.97,6.98
37.81,-4.78,-11.72,-4.78,-11.72,11.72,11.74,12.28,6.94,6.94,6.95
38.19,-4.78,-11.70,-4.77,-11.69,11.69,11.71,12.10,6.92,6.92,6.93
38.57,-4.78,-11.68,-4.78,-11.67,11.67,11.67,11.93,6.89,6.89,6.91
38.95,-4.78,-11.65,-4.78,-11.64,11.64,11.64,11.77,6.87,6.87,6.88
39.34,-4.78,-11.60,-4.78,-11.62,11.62,11.61,11.61,6.84,6.84,6.83
39.74,-4.78,-11.57,-4.78,-11.59,11.59,11.57,11.46,6.81,6.81,6.80
40.14,-4.78,-11.54,-4.77,-11.55,11.55,11.54,11.32,6.77,6.78,6.77
40.54,-4.78,-11.52,-4.76,-11.51,11.51,11.50,11.18,6.73,6.75,6.75
40.94,-4.78,-11.48,-4.74,-11.46,11.46,11.46,11.05,6.68,6.72,6.71
41.35,-4.78,-11.46,-4.72,-11.41,11.41,11.42,10.93,6.64,6.69,6.69
41.76,-4.78,-11.43,-4.70,-11.37,11.37,11.39,10.81,6.59,6.66,6.66
42.18,-4.74,-11.37,-4.68,-11.32,11.32,11.35,10.70,6.58,6.63,6.64
42.60,-4.65,-11.25,-4.66,-11.26,11.26,11.31,10.60,6.62,6.60,6.61
43.03,-4.56,-11.13,-4.64,-11.22,11.22,11.27,10.51,6.66,6.58,6.58
43.46,-4.56,-11.10,-4.62,-11.17,11.17,11.23,10.42,6.61,6.55,6.55
43.90,-4.56,-11.08,-4.60,-11.12,11.12,11.18,10.34,6.56,6.52,6.53
44.33,-4.56,-11.04,-4.58,-11.07,11.07,11.14,10.27,6.52,6.49,6.49
44.78,-4.56,-11.01,-4.57,-11.03,11.03,11.10,10.20,6.47,6.46,6.46
45.23,-4.56,-11.00,-4.56,-10.99,10.99,11.05,10.15,6.43,6.43,6.45
45.68,-4.56,-10.95,-4.55,-10.94,10.94,11.01,10.09,6.39,6.40,6.40
46.13,-4.56,-10.91,-4.54,-10.90,10.90,10.96,10.05,6.35,6.36,6.36
46.60,-4.56,-10.88,-4.54,-10.87,10.87,10.92,10.01,6.31,6.32,6.33
47.06,-4.56,-10.85,-4.55,-10.83,10.83,10.87,9.98,6.28,6.29,6.30
47.53,-4.56,-10.82,-4.55,-10.80,10.80,10.82,9.95,6.24,6.25,6.27
48.01,-4.56,-10.76,-4.56,-10.77,10.77,10.78,9.93,6.21,6.21,6.21
48.49,-4.56,-10.72,-4.56,-10.73,10.73,10.73,9.91,6.17,6.17,6.17
48.97,-4.56,-10.68,-4.57,-10.69,10.69,10.68,9.90,6.14,6.13,6.13
49.46,-4.56,-10.64,-4.57,-10.66,10.66,10.63,9.90,6.10,6.09,6.09
49.96,-4.56,-10.58,-4.58,-10.62,10.62,10.58,9.90,6.06,6.04,6.03
50.46,-4.56,-10.54,-4.57,-10.57,10.57,10.52,9.90,6.01,6.00,5.99
50.96,-4.56,-10.51,-4.57,-10.52,10.52,10.47,9.91,5.96,5.96,5.96
51.47,-4.56,-10.47,-4.55,-10.46,10.46,10.42,9.92,5.91,5.91,5.92
51.99,-4.56,-10.42,-4.54,-10.40,10.40,10.37,9.94,5.85,5.86,5.87
52.51,-4.56,-10.38,-4.52,-10.34,10.34,10.31,9.96,5.78,5.82,5.83
53.03,-4.56,-10.35,-4.50,-10.27,10.27,10.26,9.98,5.72,5.77,5.80
53.56,-4.56,-10.28,-4.48,-10.21,10.21,10.20,10.00,5.65,5.72,5.73
54.10,-4.54,-10.21,-4.46,-10.14,10.14,10.15,10.02,5.60,5.68,5.68
54.64,-4.41,-10.04,-4.44,-10.07,10.07,10.09,10.05,5.66,5.64,5.64
55.18,-4.33,-9.90,-4.42,-10.01,10.01,10.03,10.07,5.68,5.59,5.58
55.74,-4.33,-9.85,-4.39,-9.94,9.94,9.97,10.09,5.61,5.55,5.53
56.29,-4.33,-9.81,-4.37,-9.88,9.88,9.92,10.11,5.55,5.50,5.49
56.86,-4.33,-9.78,-4.35,-9.81,9.81,9.86,10.13,5.48,5.46,5.46
57.42,-4.33,-9.72,-4.34,-9.75,9.75,9.80,10.14,5.42,5.41,5.40
58.00,-4.33,-9.68,-4.33,-9.69,9.69,9.74,10.14,5.36,5.36,5.36
58.58,-4.33,-9.65,-4.32,-9.63,9.63,9.68,10.15,5.30,5.31,5.33
59.16,-4.33,-9.62,-4.31,-9.58,9.58,9.62,10.14,5.25,5.27,5.30
59.76,-4.33,-9.57,-4.31,-9.53,9.53,9.56,10.13,5.20,5.22,5.25
60.35,-4.33,-9.50,-4.31,-9.48,9.48,9.50,10.11,5.15,5.17,5.18
60.96,-4.33,-9.45,-4.32,-9.44,9.44,9.44,10.09,5.11,5.11,5.13
61.57,-4.33,-9.38,-4.33,-9.39,9.39,9.37,10.05,5.06,5.06,5.06
62.18,-4.33,-9.31,-4.33,-9.33,9.33,9.31,10.01,5.00,5.00,4.99
62.80,-4.33,-9.26,-4.33,-9.28,9.28,9.25,9.96,4.95,4.95,4.94
63.43,-4.33,-9.20,-4.33,-9.22,9.22,9.18,9.90,4.89,4.89,4.88
64.07,-4.33,-9.15,-4.33,-9.16,9.16,9.12,9.83,4.83,4.83,4.83
64.71,-4.33,-9.10,-4.33,-9.10,9.10,9.06,9.75,4.77,4.77,4.78
65.35,-4.33,-9.03,-4.33,-9.04,9.04,8.99,9.66,4.71,4.71,4.71
66.01,-4.33,-8.97,-4.33,-8.98,8.98,8.93,9.57,4.65,4.65,4.65
66.67,-4.33,-8.92,-4.33,-8.92,8.92,8.86,9.47,4.59,4.59,4.60
67.33,-4.33,-8.85,-4.33,-8.86,8.86,8.80,9.36,4.53,4.53,4.53
68.01,-4.33,-8.80,-4.33,-8.80,8.80,8.73,9.24,4.47,4.47,4.48
68.69,-4.33,-8.73,-4.33,-8.73,8.73,8.67,9.12,4.41,4.41,4.41
69.37,-4.33,-8.68,-4.33,-8.67,8.67,8.60,9.00,4.34,4.34,4.36
70.07,-4.33,-8.61,-4.33,-8.61,8.61,8.54,8.87,4.28,4.28,4.29
70.77,-4.33,-8.55,-4.34,-8.56,8.56,8.47,8.74,4.23,4.21,4.23
71.48,-4.33,-8.47,-4.35,-8.50,8.50,8.41,8.61,4.17,4.15,4.15
72.19,-4.33,-8.41,-4.34,-8.43,8.43,8.34,8.48,4.10,4.09,4.09
72.91,-4.33,-8.35,-4.34,-8.36,8.36,8.27,8.35,4.04,4.03,4.03
73.64,-4.33,-8.27,-4.33,-8.29,8.29,8.21,8.21,3.96,3.96,3.95
74.38,-4.33,-8.21,-4.31,-8.22,8.22,8.14,8.08,3.89,3.90,3.89
75.12,-4.33,-8.15,-4.30,-8.14,8.14,8.07,7.95,3.82,3.85,3.83
75.87,-4.33,-8.12,-4.28,-8.07,8.07,8.01,7.81,3.74,3.79,3.80
76.63,-4.33,-8.05,-4.26,-7.99,7.99,7.94,7.69,3.67,3.73,3.73
77.40,-4.31,-7.98,-4.24,-7.92,7.92,7.87,7.56,3.61,3.68,3.68
78.17,-4.24,-7.86,-4.21,-7.84,7.84,7.81,7.43,3.61,3.63,3.63
78.95,-4.11,-7.69,-4.19,-7.77,7.77,7.74,7.31,3.66,3.58,3.59
79.74,-4.10,-7.62,-4.17,-7.70,7.70,7.67,7.20,3.60,3.53,3.53
80.54,-4.10,-7.57,-4.15,-7.63,7.63,7.61,7.08,3.53,3.48,3.48
81.35,-4.10,-7.52,-4.13,-7.55,7.55,7.54,6.97,3.46,3.42,3.43
82.16,-4.10,-7.48,-4.11,-7.48,7.48,7.47,6.87,3.39,3.37,3.39
82.98,-4.10,-7.42,-4.10,-7.41,7.41,7.41,6.76,3.32,3.32,3.33
83.81,-4.10,-7.36,-4.09,-7.35,7.35,7.34,6.67,3.25,3.26,3.27
84.65,-4.10,-7.30,-4.08,-7.28,7.28,7.27,6.57,3.18,3.20,3.21
85.50,-4.10,-7.23,-4.08,-7.22,7.22,7.21,6.48,3.12,3.14,3.14
86.35,-4.10,-7.17,-4.08,-7.16,7.16,7.14,6.40,3.06,3.08,3.08
87.22,-4.10,-7.11,-4.09,-7.11,7.11,7.07,6.32,3.01,3.02,3.02
88.09,-4.10,-7.04,-4.10,-7.05,7.05,7.01,6.24,2.95,2.95,2.95
88.97,-4.10,-6.98,-4.10,-6.99,6.99,6.94,6.17,2.89,2.89,2.89
89.86,-4.10,-6.91,-4.10,-6.92,6.92,6.88,6.10,2.82,2.82,2.82
90.76,-4.10,-6.84,-4.10,-6.85,6.85,6.81,6.04,2.75,2.75,2.75
91.66,-4.10,-6.78,-4.10,-6.78,6.78,6.74,5.98,2.69,2.69,2.69
92.58,-4.10,-6.72,-4.10,-6.71,6.71,6.68,5.92,2.62,2.62,2.63
93.51,-4.10,-6.65,-4.10,-6.65,6.65,6.61,5.87,2.55,2.55,2.56
94.44,-4.10,-6.59,-4.10,-6.58,6.58,6.55,5.83,2.48,2.48,2.50
95.39,-4.10,-6.51,-4.10,-6.51,6.51,6.48,5.78,2.41,2.41,2.42
96.34,-4.10,-6.43,-4.10,-6.44,6.44,6.42,5.74,2.34,2.34,2.34
97.30,-4.10,-6.37,-4.10,-6.37,6.37,6.35,5.71,2.27,2.27,2.28
98.28,-4.10,-6.28,-4.10,-6.30,6.30,6.29,5.68,2.20,2.20,2.19
99.26,-4.10,-6.21,-4.10,-6.23,6.23,6.23,5.65,2.13,2.13,2.12
100.25,-4.10,-6.15,-4.10,-6.16,6.16,6.16,5.62,2.07,2.07,2.06
101.25,-4.10,-6.09,-4.10,-6.10,6.10,6.10,5.60,2.00,2.00,2.00
102.27,-4.10,-6.02,-4.10,-6.03,6.03,6.03,5.58,1.94,1.94,1.93
103.29,-4.10,-5.96,-4.10,-5.97,5.97,5.97,5.56,1.87,1.87,1.87
104.32,-4.10,-5.91,-4.10,-5.91,5.91,5.91,5.54,1.81,1.81,1.82
105.37,-4.10,-5.85,-4.10,-5.85,5.85,5.84,5.53,1.75,1.75,1.76
106.42,-4.10,-5.79,-4.10,-5.79,5.79,5.78,5.52,1.70,1.70,1.70
107.48,-4.10,-5.72,-4.10,-5.74,5.74,5.72,5.50,1.64,1.64,1.63
108.56,-4.10,-5.68,-4.10,-5.68,5.68,5.66,5.49,1.58,1.58,1.59
109.64,-4.10,-5.62,-4.10,-5.62,5.62,5.60,5.48,1.52,1.52,1.53
110.74,-4.10,-5.56,-4.10,-5.56,5.56,5.54,5.47,1.46,1.46,1.47
111.85,-4.10,-5.50,-4.10,-5.50,5.50,5.47,5.46,1.40,1.40,1.41
112.97,-4.10,-5.45,-4.10,-5.44,5.44,5.41,5.44,1.34,1.34,1.36
114.10,-4.10,-5.39,-4.10,-5.38,5.38,5.35,5.43,1.28,1.28,1.30
115.24,-4.10,-5.32,-4.10,-5.32,5.32,5.29,5.41,1.22,1.22,1.23
116.39,-4.10,-5.25,-4.10,-5.26,5.26,5.23,5.39,1.16,1.16,1.16
117.55,-4.10,-5.19,-4.10,-5.19,5.19,5.17,5.37,1.10,1.10,1.10
118.73,-4.10,-5.12,-4.10,-5.13,5.13,5.11,5.35,1.03,1.03,1.03
119.92,-4.10,-5.05,-4.10,-5.07,5.07,5.06,5.32,0.97,0.97,0.96
121.12,-4.10,-5.00,-4.10,-5.00,5.00,5.00,5.29,0.90,0.90,0.91
122.33,-4.10,-4.92,-4.10,-4.93,4.93,4.94,5.26,0.83,0.83,0.83
123.55,-4.10,-4.87,-4.10,-4.86,4.86,4.88,5.22,0.77,0.77,0.78
124.79,-4.10,-4.80,-4.10,-4.80,4.80,4.82,5.18,0.70,0.70,0.71
126.03,-4.10,-4.73,-4.10,-4.73,4.73,4.77,5.14,0.63,0.63,0.64
127.29,-4.10,-4.66,-4.10,-4.66,4.66,4.71,5.09,0.56,0.56,0.57
128.57,-4.10,-4.60,-4.10,-4.60,4.60,4.65,5.04,0.50,0.50,0.51
129.85,-4.10,-4.52,-4.10,-4.53,4.53,4.60,4.98,0.43,0.43,0.43
131.15,-4.10,-4.46,-4.11,-4.47,4.47,4.54,4.92,0.38,0.37,0.37
132.46,-4.10,-4.39,-4.11,-4.42,4.42,4.49,4.86,0.32,0.30,0.30
133.79,-4.10,-4.33,-4.12,-4.36,4.36,4.43,4.79,0.26,0.24,0.24
135.12,-4.10,-4.26,-4.11,-4.29,4.29,4.38,4.72,0.20,0.18,0.17
136.48,-4.10,-4.22,-4.11,-4.23,4.23,4.32,4.65,0.13,0.12,0.13
137.84,-4.10,-4.16,-4.10,-4.16,4.16,4.27,4.57,0.06,0.06,0.07
139.22,-4.10,-4.09,-4.08,-4.08,4.08,4.22,4.50,-0.01,0.00,-0.00
140.61,-4.10,-4.04,-4.06,-4.01,4.01,4.16,4.42,-0.09,-0.05,-0.05
142.02,-4.10,-3.99,-4.04,-3.94,3.94,4.11,4.34,-0.16,-0.11,-0.10
143.44,-4.10,-3.93,-4.02,-3.87,3.87,4.06,4.25,-0.23,-0.16,-0.16
144.87,-4.10,-3.89,-4.00,-3.79,3.79,4.01,4.17,-0.30,-0.21,-0.20
146.32,-3.95,-3.69,-3.98,-3.72,3.72,3.96,4.09,-0.23,-0.26,-0.25
147.78,-3.87,-3.55,-3.96,-3.65,3.65,3.91,4.00,-0.22,-0.31,-0.31
149.26,-3.87,-3.51,-3.94,-3.58,3.58,3.86,3.92,-0.29,-0.36,-0.35
150.75,-3.87,-3.45,-3.91,-3.51,3.51,3.81,3.84,-0.36,-0.41,-0.41
152.26,-3.87,-3.42,-3.90,-3.44,3.44,3.76,3.75,-0.43,-0.45,-0.44
153.78,-3.87,-3.36,-3.88,-3.38,3.38,3.71,3.67,-0.49,-0.50,-0.50
155.32,-3.87,-3.32,-3.87,-3.32,3.32,3.66,3.59,-0.55,-0.55,-0.54
156.88,-3.87,-3.27,-3.86,-3.26,3.26,3.61,3.51,-0.61,-0.60,-0.59
158.44,-3.87,-3.22,-3.85,-3.20,3.20,3.56,3.43,-0.66,-0.65,-0.64
160.03,-3.87,-3.17,-3.85,-3.15,3.15,3.52,3.35,-0.71,-0.70,-0.69
161.63,-3.87,-3.12,-3.85,-3.11,3.11,3.47,3.27,-0.76,-0.74,-0.74
163.24,-3.87,-3.06,-3.86,-3.07,3.07,3.42,3.20,-0.80,-0.79,-0.80
164.88,-3.87,-3.02,-3.87,-3.03,3.03,3.38,3.13,-0.84,-0.84,-0.84
166.53,-3.87,-2.96,-3.87,-2.98,2.98,3.33,3.05,-0.89,-0.89,-0.90
168.19,-3.87,-2.93,-3.87,-2.93,2.93,3.29,2.98,-0.94,-0.94,-0.93
169.87,-3.87,-2.88,-3.87,-2.87,2.87,3.24,2.91,-0.99,-0.99,-0.98
171.57,-3.87,-2.82,-3.87,-2.82,2.82,3.20,2.85,-1.04,-1.04,-1.04
173.29,-3.87,-2.77,-3.87,-2.77,2.77,3.15,2.78,-1.10,-1.10,-1.09
175.02,-3.87,-2.72,-3.87,-2.72,2.72,3.11,2.72,-1.15,-1.15,-1.14
176.77,-3.87,-2.67,-3.87,-2.67,2.67,3.07,2.66,-1.20,-1.20,-1.19
178.54,-3.87,-2.62,-3.87,-2.62,2.62,3.02,2.60,-1.25,-1.25,-1.24
180.32,-3.87,-2.56,-3.87,-2.57,2.57,2.98,2.54,-1.30,-1.30,-1.30
182.13,-3.87,-2.51,-3.87,-2.52,2.52,2.94,2.49,-1.35,-1.35,-1.35
183.95,-3.87,-2.46,-3.87,-2.46,2.46,2.90,2.43,-1.40,-1.40,-1.40
185.79,-3.87,-2.40,-3.87,-2.41,2.41,2.86,2.38,-1.45,-1.45,-1.46
187.65,-3.87,-2.36,-3.87,-2.36,2.36,2.82,2.33,-1.51,-1.51,-1.50
189.52,-3.87,-2.31,-3.87,-2.31,2.31,2.78,2.28,-1.55,-1.55,-1.55
191.42,-3.87,-2.27,-3.87,-2.27,2.27,2.74,2.24,-1.60,-1.60,-1.59
193.33,-3.87,-2.22,-3.87,-2.22,2.22,2.70,2.19,-1.65,-1.65,-1.64
195.27,-3.87,-2.17,-3.87,-2.18,2.18,2.66,2.15,-1.69,-1.69,-1.69
197.22,-3.87,-2.12,-3.87,-2.14,2.14,2.63,2.11,-1.73,-1.73,-1.74
199.19,-3.87,-2.09,-3.87,-2.09,2.09,2.59,2.07,-1.77,-1.77,-1.77
201.18,-3.87,-2.04,-3.87,-2.06,2.06,2.55,2.03,-1.81,-1.81,-1.82
203.19,-3.87,-2.01,-3.87,-2.02,2.02,2.52,1.99,-1.85,-1.85,-1.85
205.23,-3.87,-1.98,-3.87,-1.98,1.98,2.48,1.95,-1.89,-1.89,-1.88
207.28,-3.87,-1.95,-3.87,-1.94,1.94,2.44,1.92,-1.92,-1.92,-1.91
209.35,-3.87,-1.91,-3.87,-1.91,1.91,2.41,1.89,-1.96,-1.96,-1.95
211.44,-3.87,-1.87,-3.87,-1.87,1.87,2.37,1.85,-1.99,-1.99,-1.99
213.56,-3.87,-1.84,-3.87,-1.84,1.84,2.34,1.82,-2.03,-2.03,-2.02
215.69,-3.87,-1.81,-3.87,-1.81,1.81,2.31,1.79,-2.06,-2.06,-2.05
217.85,-3.87,-1.78,-3.87,-1.78,1.78,2.27,1.76,-2.09,-2.09,-2.08
220.03,-3.87,-1.74,-3.87,-1.75,1.75,2.24,1.74,-2.12,-2.12,-2.12
222.23,-3.87,-1.71,-3.87,-1.72,1.72,2.21,1.71,-2.15,-2.15,-2.15
224.45,-3.87,-1.68,-3.87,-1.69,1.69,2.18,1.68,-2.18,-2.18,-2.18
226.70,-3.87,-1.65,-3.87,-1.66,1.66,2.15,1.66,-2.21,-2.21,-2.21
228.96,-3.87,-1.62,-3.87,-1.63,1.63,2.11,1.64,-2.24,-2.24,-2.24
231.25,-3.87,-1.60,-3.87,-1.60,1.60,2.08,1.61,-2.27,-2.27,-2.26
233.57,-3.87,-1.57,-3.87,-1.58,1.58,2.05,1.59,-2.29,-2.29,-2.29
235.90,-3.87,-1.55,-3.87,-1.55,1.55,2.02,1.57,-2.32,-2.32,-2.31
238.26,-3.87,-1.51,-3.87,-1.53,1.53,2.00,1.55,-2.34,-2.34,-2.35
240.64,-3.87,-1.51,-3.87,-1.51,1.51,1.97,1.53,-2.36,-2.36,-2.35
243.05,-3.87,-1.49,-3.87,-1.49,1.49,1.94,1.51,-2.38,-2.38,-2.37
245.48,-3.87,-1.46,-3.87,-1.47,1.47,1.91,1.49,-2.40,-2.40,-2.40
247.93,-3.87,-1.44,-3.87,-1.45,1.45,1.88,1.47,-2.42,-2.42,-2.42
250.41,-3.87,-1.44,-3.87,-1.43,1.43,1.86,1.45,-2.43,-2.43,-2.42
252.92,-3.87,-1.42,-3.87,-1.42,1.42,1.83,1.43,-2.45,-2.45,-2.44
255.45,-3.87,-1.40,-3.87,-1.40,1.40,1.80,1.42,-2.46,-2.46,-2.46
258.00,-3.87,-1.38,-3.87,-1.39,1.39,1.78,1.40,-2.48,-2.48,-2.48
260.58,-3.87,-1.37,-3.87,-1.38,1.38,1.75,1.38,-2.49,-2.49,-2.49
263.19,-3.87,-1.36,-3.87,-1.37,1.37,1.73,1.37,-2.50,-2.50,-2.50
265.82,-3.87,-1.35,-3.87,-1.36,1.36,1.70,1.35,-2.51,-2.51,-2.51
268.48,-3.87,-1.35,-3.87,-1.35,1.35,1.68,1.34,-2.52,-2.52,-2.51
271.16,-3.87,-1.35,-3.87,-1.34,1.34,1.66,1.32,-2.53,-2.53,-2.51
273.87,-3.87,-1.34,-3.87,-1.34,1.34,1.63,1.31,-2.53,-2.53,-2.52
276.61,-3.87,-1.33,-3.87,-1.33,1.33,1.61,1.30,-2.54,-2.54,-2.53
279.38,-3.87,-1.31,-3.87,-1.33,1.33,1.59,1.28,-2.54,-2.54,-2.55
282.17,-3.87,-1.31,-3.87,-1.32,1.32,1.57,1.27,-2.54,-2.54,-2.55
284.99,-3.87,-1.32,-3.87,-1.32,1.32,1.55,1.26,-2.54,-2.54,-2.54
287.84,-3.87,-1.32,-3.87,-1.32,1.32,1.53,1.25,-2.55,-2.55,-2.54
290.72,-3.87,-1.31,-3.87,-1.32,1.32,1.50,1.24,-2.55,-2.55,-2.55
293.63,-3.87,-1.32,-3.87,-1.32,1.32,1.48,1.23,-2.55,-2.55,-2.54
296.57,-3.87,-1.32,-3.87,-1.32,1.32,1.47,1.22,-2.55,-2.55,-2.54
299.53,-3.87,-1.31,-3.87,-1.32,1.32,1.45,1.21,-2.55,-2.55,-2.55
302.53,-3.87,-1.33,-3.87,-1.32,1.32,1.43,1.20,-2.55,-2.55,-2.53
305.55,-3.87,-1.32,-3.87,-1.32,1.32,1.41,1.20,-2.54,-2.54,-2.54
308.61,-3.87,-1.33,-3.87,-1.32,1.32,1.39,1.19,-2.54,-2.54,-2.53
311.69,-3.87,-1.32,-3.87,-1.33,1.33,1.37,1.18,-2.54,-2.54,-2.54
314.81,-3.87,-1.33,-3.87,-1.33,1.33,1.36,1.18,-2.54,-2.54,-2.53
317.96,-3.87,-1.32,-3.87,-1.33,1.33,1.34,1.18,-2.54,-2.54,-2.54
321.14,-3.87,-1.33,-3.87,-1.34,1.34,1.32,1.17,-2.53,-2.53,-2.53
324.35,-3.87,-1.32,-3.88,-1.35,1.35,1.31,1.17,-2.52,-2.53,-2.54
327.59,-3.87,-1.35,-3.89,-1.36,1.36,1.29,1.17,-2.51,-2.53,-2.51
330.87,-3.87,-1.34,-3.88,-1.36,1.36,1.28,1.17,-2.50,-2.52,-2.52
334.18,-3.87,-1.34,-3.88,-1.36,1.36,1.26,1.17,-2.51,-2.52,-2.52
337.52,-3.87,-1.35,-3.87,-1.36,1.36,1.25,1.17,-2.51,-2.51,-2.51
340.90,-3.87,-1.36,-3.86,-1.35,1.35,1.24,1.17,-2.52,-2.50,-2.50
344.30,-3.87,-1.37,-3.84,-1.34,1.34,1.22,1.18,-2.53,-2.50,-2.49
347.75,-3.87,-1.38,-3.82,-1.33,1.33,1.21,1.18,-2.54,-2.49,-2.48
351.23,-3.87,-1.37,-3.80,-1.32,1.32,1.20,1.18,-2.55,-2.48,-2.49
354.74,-3.87,-1.40,-3.78,-1.31,1.31,1.19,1.19,-2.56,-2.47,-2.46
358.28,-3.76,-1.29,-3.76,-1.29,1.29,1.18,1.20,-2.47,-2.47,-2.46
361.87,-3.67,-1.20,-3.74,-1.28,1.28,1.17,1.20,-2.39,-2.46,-2.46
365.49,-3.64,-1.18,-3.72,-1.27,1.27,1.16,1.21,-2.37,-2.46,-2.45
369.14,-3.64,-1.19,-3.71,-1.26,1.26,1.15,1.22,-2.38,-2.45,-2.44
372.83,-3.64,-1.20,-3.69,-1.24,1.24,1.14,1.23,-2.39,-2.44,-2.43
376.56,-3.64,-1.19,-3.67,-1.23,1.23,1.13,1.24,-2.41,-2.44,-2.44
380.33,-3.64,-1.20,-3.64,-1.21,1.21,1.12,1.25,-2.43,-2.44,-2.43
384.13,-3.64,-1.21,-3.62,-1.19,1.19,1.11,1.26,-2.45,-2.43,-2.42
387.97,-3.64,-1.21,-3.60,-1.17,1.17,1.10,1.27,-2.47,-2.43,-2.42
391.85,-3.64,-1.21,-3.58,-1.15,1.15,1.10,1.29,-2.48,-2.42,-2.42
395.77,-3.64,-1.20,-3.56,-1.14,1.14,1.09,1.30,-2.50,-2.42,-2.43
399.73,-3.64,-1.21,-3.55,-1.13,1.13,1.08,1.32,-2.50,-2.41,-2.42
403.72,-3.56,-1.15,-3.53,-1.13,1.13,1.08,1.33,-2.43,-2.41,-2.40
407.76,-3.45,-1.04,-3.51,-1.11,1.11,1.07,1.34,-2.34,-2.40,-2.40
411.84,-3.42,-1.02,-3.49,-1.10,1.10,1.07,1.36,-2.32,-2.39,-2.39
415.96,-3.42,-1.03,-3.47,-1.09,1.09,1.06,1.37,-2.33,-2.38,-2.38
420.12,-3.42,-1.03,-3.45,-1.08,1.08,1.06,1.39,-2.34,-2.37,-2.38
424.32,-3.42,-1.05,-3.44,-1.07,1.07,1.05,1.40,-2.35,-2.37,-2.36
428.56,-3.42,-1.07,-3.42,-1.07,1.07,1.05,1.42,-2.35,-2.35,-2.34
432.85,-3.42,-1.08,-3.41,-1.07,1.07,1.05,1.43,-2.35,-2.34,-2.33
437.18,-3.42,-1.09,-3.40,-1.08,1.08,1.05,1.45,-2.34,-2.33,-2.32
441.55,-3.42,-1.09,-3.40,-1.09,1.09,1.05,1.46,-2.33,-2.31,-2.32
445.96,-3.42,-1.11,-3.40,-1.10,1.10,1.05,1.47,-2.32,-2.30,-2.30
450.42,-3.42,-1.12,-3.41,-1.12,1.12,1.05,1.48,-2.30,-2.29,-2.29
