frequency,raw,error,smoothed,error_smoothed,equalization,parametric_eq,fixed_band_eq,equalized_raw,equalized_smoothed,target
20.00,10.10,7.48,10.10,7.48,-7.48,-7.35,-3.99,2.62,2.62,2.62
20.20,10.12,7.50,10.12,7.50,-7.50,-7.39,-4.10,2.62,2.62,2.62
20.40,10.13,7.51,10.14,7.52,-7.52,-7.44,-4.21,2.61,2.62,2.62
20.61,10.16,7.54,10.16,7.54,-7.54,-7.49,-4.33,2.62,2.62,2.62
20.81,10.19,7.57,10.18,7.57,-7.57,-7.53,-4.44,2.62,2.61,2.62
21.02,10.20,7.58,10.21,7.60,-7.60,-7.58,-4.56,2.60,2.61,2.62
21.23,10.23,7.63,10.23,7.63,-7.63,-7.62,-4.69,2.60,2.60,2.60
21.44,10.25,7.66,10.25,7.66,-7.66,-7.67,-4.82,2.59,2.58,2.59
21.66,10.27,7.70,10.27,7.70,-7.70,-7.71,-4.95,2.57,2.57,2.57
21.87,10.29,7.74,10.29,7.74,-7.74,-7.76,-5.08,2.55,2.55,2.55
22.09,10.32,7.78,10.32,7.78,-7.78,-7.80,-5.22,2.54,2.53,2.54
22.31,10.33,7.82,10.33,7.82,-7.82,-7.84,-5.36,2.51,2.51,2.51
22.54,10.35,7.86,10.35,7.86,-7.87,-7.88,-5.51,2.48,2.49,2.49
22.76,10.37,7.90,10.37,7.90,-7.91,-7.92,-5.66,2.46,2.46,2.47
22.99,10.39,7.95,10.39,7.95,-7.95,-7.96,-5.81,2.44,2.44,2.44
23.22,10.40,7.99,10.41,8.00,-7.99,-8.00,-5.97,2.41,2.41,2.41
23.45,10.43,8.05,10.43,8.04,-8.03,-8.04,-6.13,2.40,2.39,2.38
23.69,10.44,8.07,10.44,8.08,-8.07,-8.08,-6.29,2.37,2.37,2.37
23.92,10.46,8.11,10.46,8.11,-8.11,-8.11,-6.46,2.35,2.35,2.35
24.16,10.48,8.14,10.48,8.14,-8.15,-8.15,-6.63,2.33,2.33,2.34
24.40,10.49,8.17,10.50,8.18,-8.18,-8.19,-6.80,2.31,2.31,2.32
24.65,10.51,8.21,10.51,8.21,-8.22,-8.22,-6.98,2.29,2.30,2.30
24.89,10.53,8.25,10.53,8.25,-8.25,-8.26,-7.16,2.28,2.28,2.28
25.14,10.55,8.28,10.55,8.29,-8.29,-8.29,-7.34,2.27,2.27,2.27
25.39,10.57,8.32,10.57,8.32,-8.32,-8.32,-7.53,2.25,2.25,2.25
25.65,10.59,8.35,10.59,8.36,-8.36,-8.36,-7.72,2.23,2.23,2.24
25.91,10.61,8.40,10.61,8.39,-8.39,-8.39,-7.90,2.22,2.22,2.21
26.16,10.62,8.42,10.62,8.43,-8.43,-8.42,-8.09,2.20,2.20,2.20
26.43,10.64,8.45,10.64,8.46,-8.46,-8.45,-8.28,2.18,2.18,2.19
26.69,10.65,8.49,10.65,8.49,-8.49,-8.48,-8.47,2.16,2.17,2.16
26.96,10.67,8.52,10.67,8.52,-8.52,-8.51,-8.66,2.16,2.15,2.15
27.23,10.68,8.54,10.68,8.54,-8.54,-8.54,-8.84,2.14,2.14,2.14
27.50,10.69,8.56,10.69,8.57,-8.57,-8.56,-9.02,2.12,2.12,2.13
27.77,10.70,8.59,10.70,8.59,-8.60,-8.59,-9.20,2.10,2.11,2.11
28.05,10.72,8.62,10.72,8.62,-8.62,-8.62,-9.37,2.10,2.09,2.10
28.33,10.72,8.64,10.73,8.65,-8.65,-8.64,-9.54,2.08,2.08,2.08
28.62,10.74,8.67,10.74,8.67,-8.67,-8.66,-9.70,2.07,2.07,2.07
28.90,10.74,8.69,10.74,8.70,-8.69,-8.69,-9.84,2.05,2.05,2.05
29.19,10.75,8.72,10.75,8.72,-8.72,-8.71,-9.98,2.04,2.04,2.03
29.48,10.76,8.73,10.76,8.74,-8.74,-8.73,-10.11,2.02,2.02,2.03
29.78,10.77,8.75,10.77,8.75,-8.76,-8.75,-10.22,2.01,2.01,2.02
30.08,10.78,8.77,10.78,8.77,-8.78,-8.78,-10.32,2.00,2.00,2.01
30.38,10.78,8.79,10.79,8.80,-8.79,-8.80,-10.41,1.99,1.99,1.99
30.68,10.79,8.81,10.79,8.82,-8.81,-8.81,-10.48,1.98,1.98,1.98
30.99,10.79,8.84,10.79,8.83,-8.83,-8.83,-10.53,1.96,1.96,1.95
31.30,10.78,8.84,10.79,8.85,-8.84,-8.85,-10.57,1.94,1.94,1.94
31.61,10.78,8.85,10.78,8.86,-8.86,-8.87,-10.60,1.92,1.92,1.93
31.93,10.77,8.86,10.77,8.87,-8.87,-8.88,-10.60,1.90,1.90,1.91
32.24,10.76,8.88,10.77,8.88,-8.88,-8.90,-10.60,1.88,1.88,1.88
32.57,10.76,8.90,10.76,8.90,-8.90,-8.92,-10.58,1.87,1.86,1.86
32.89,10.75,8.90,10.75,8.91,-8.91,-8.93,-10.54,1.85,1.85,1.85
33.22,10.74,8.92,10.74,8.92,-8.92,-8.94,-10.49,1.83,1.83,1.82
33.55,10.73,8.92,10.73,8.92,-8.93,-8.96,-10.43,1.80,1.80,1.81
33.89,10.71,8.93,10.72,8.94,-8.94,-8.97,-10.36,1.77,1.78,1.78
34.23,10.70,8.94,10.71,8.95,-8.95,-8.98,-10.29,1.75,1.76,1.76
34.57,10.70,8.96,10.69,8.96,-8.96,-8.99,-10.20,1.75,1.74,1.74
34.92,10.68,8.96,10.68,8.97,-8.96,-9.00,-10.11,1.72,1.72,1.72
35.27,10.67,8.97,10.67,8.97,-8.97,-9.01,-10.01,1.70,1.70,1.70
35.62,10.66,8.98,10.66,8.98,-8.98,-9.02,-9.91,1.68,1.68,1.68
35.97,10.65,8.99,10.65,8.99,-8.99,-9.03,-9.81,1.66,1.66,1.66
36.33,10.64,9.00,10.64,9.00,-9.00,-9.04,-9.71,1.64,1.64,1.64
36.70,10.62,9.00,10.63,9.01,-9.01,-9.04,-9.60,1.61,1.62,1.62
37.06,10.62,9.02,10.62,9.02,-9.02,-9.05,-9.50,1.60,1.60,1.60
37.43,10.61,9.03,10.61,9.03,-9.03,-9.06,-9.40,1.58,1.58,1.58
37.81,10.59,9.03,10.60,9.04,-9.04,-9.06,-9.30,1.55,1.56,1.56
38.19,10.59,9.06,10.59,9.05,-9.05,-9.07,-9.20,1.54,1.53,1.53
38.57,10.57,9.05,10.57,9.06,-9.06,-9.07,-9.11,1.51,1.51,1.52
38.95,10.56,9.07,10.56,9.07,-9.07,-9.07,-9.02,1.49,1.49,1.49
39.34,10.55,9.08,10.55,9.08,-9.08,-9.08,-8.93,1.48,1.47,1.47
39.74,10.53,9.08,10.53,9.08,-9.08,-9.08,-8.85,1.45,1.45,1.45
40.14,10.52,9.08,10.52,9.08,-9.09,-9.08,-8.77,1.43,1.43,1.44
40.54,10.50,9.08,10.50,9.09,-9.09,-9.08,-8.70,1.41,1.41,1.42
40.94,10.49,9.09,10.49,9.09,-9.09,-9.08,-8.63,1.40,1.40,1.40
41.35,10.47,9.10,10.47,9.10,-9.09,-9.08,-8.57,1.38,1.38,1.37
41.76,10.46,9.09,10.46,9.10,-9.10,-9.08,-8.52,1.37,1.37,1.37
42.18,10.45,9.10,10.45,9.10,-9.10,-9.08,-8.47,1.35,1.35,1.35
42.60,10.43,9.10,10.43,9.10,-9.10,-9.08,-8.42,1.33,1.33,1.33
43.03,10.41,9.09,10.41,9.10,-9.11,-9.08,-8.38,1.31,1.31,1.32
43.46,10.39,9.10,10.40,9.11,-9.11,-9.07,-8.35,1.28,1.29,1.29
43.90,10.38,9.11,10.38,9.11,-9.11,-9.07,-8.33,1.27,1.27,1.27
44.33,10.37,9.12,10.37,9.12,-9.12,-9.07,-8.31,1.25,1.25,1.25
44.78,10.34,9.11,10.35,9.12,-9.12,-9.06,-8.29,1.22,1.23,1.23
45.23,10.33,9.13,10.33,9.13,-9.12,-9.06,-8.28,1.21,1.21,1.20
45.68,10.31,9.13,10.31,9.13,-9.12,-9.05,-8.28,1.19,1.19,1.18
46.13,10.29,9.12,10.29,9.13,-9.12,-9.05,-8.29,1.17,1.17,1.17
46.60,10.27,9.11,10.28,9.12,-9.12,-9.04,-8.30,1.15,1.15,1.16
47.06,10.26,9.12,10.26,9.12,-9.12,-9.03,-8.31,1.14,1.14,1.14
47.53,10.24,9.12,10.24,9.11,-9.12,-9.03,-8.33,1.12,1.12,1.12
48.01,10.21,9.10,10.22,9.11,-9.12,-9.02,-8.36,1.09,1.10,1.11
48.49,10.19,9.11,10.19,9.11,-9.12,-9.01,-8.39,1.07,1.07,1.08
48.97,10.17,9.12,10.17,9.12,-9.12,-9.00,-8.43,1.05,1.05,1.05
49.46,10.14,9.12,10.14,9.12,-9.12,-9.00,-8.47,1.02,1.02,1.02
49.96,10.11,9.12,10.12,9.12,-9.12,-8.99,-8.51,0.99,1.00,0.99
50.46,10.10,9.12,10.10,9.12,-9.12,-8.98,-8.56,0.99,0.98,0.98
50.96,10.07,9.11,10.07,9.12,-9.11,-8.97,-8.62,0.96,0.96,0.96
51.47,10.04,9.11,10.04,9.11,-9.11,-8.96,-8.67,0.93,0.93,0.93
51.99,10.00,9.09,10.01,9.10,-9.10,-8.95,-8.73,0.90,0.91,0.91
52.51,9.97,9.08,9.97,9.09,-9.09,-8.93,-8.79,0.88,0.88,0.89
53.03,9.94,9.07,9.94,9.08,-9.08,-8.92,-8.86,0.86,0.86,0.87
53.56,9.91,9.07,9.91,9.07,-9.07,-8.91,-8.92,0.84,0.84,0.84
54.10,9.88,9.06,9.87,9.06,-9.06,-8.90,-8.99,0.83,0.82,0.82
54.64,9.83,9.04,9.84,9.05,-9.04,-8.89,-9.05,0.79,0.79,0.79
55.18,9.79,9.02,9.80,9.03,-9.03,-8.87,-9.12,0.76,0.76,0.77
55.74,9.76,9.02,9.75,9.01,-9.02,-8.86,-9.18,0.74,0.74,0.74
56.29,9.71,8.99,9.72,9.00,-9.00,-8.85,-9.24,0.71,0.72,0.72
56.86,9.68,8.99,9.68,8.99,-8.98,-8.83,-9.29,0.70,0.70,0.69
57.42,9.64,8.97,9.64,8.97,-8.97,-8.82,-9.35,0.68,0.67,0.67
58.00,9.59,8.94,9.59,8.95,-8.95,-8.80,-9.39,0.65,0.65,0.65
58.58,9.54,8.92,9.55,8.92,-8.92,-8.79,-9.44,0.62,0.62,0.62
59.16,9.50,8.90,9.50,8.90,-8.90,-8.77,-9.47,0.60,0.60,0.60
59.76,9.45,8.87,9.45,8.88,-8.88,-8.75,-9.50,0.57,0.57,0.58
60.35,9.41,8.86,9.41,8.85,-8.86,-8.74,-9.52,0.55,0.55,0.55
60.96,9.35,8.82,9.35,8.83,-8.84,-8.72,-9.53,0.51,0.52,0.53
61.57,9.30,8.81,9.30,8.81,-8.82,-8.70,-9.53,0.49,0.49,0.49
62.18,9.25,8.79,9.25,8.79,-8.79,-8.69,-9.53,0.46,0.46,0.46
62.80,9.20,8.77,9.20,8.78,-8.77,-8.67,-9.51,0.43,0.43,0.43
63.43,9.15,8.75,9.15,8.75,-8.74,-8.65,-9.49,0.41,0.41,0.40
64.07,9.09,8.72,9.09,8.72,-8.71,-8.63,-9.45,0.38,0.38,0.37
64.71,9.03,8.68,9.03,8.68,-8.68,-8.61,-9.41,0.35,0.35,0.35
65.35,8.97,8.64,8.97,8.65,-8.65,-8.59,-9.36,0.32,0.32,0.33
66.01,8.91,8.60,8.92,8.61,-8.61,-8.58,-9.30,0.30,0.30,0.31
66.67,8.86,8.58,8.86,8.58,-8.58,-8.56,-9.23,0.28,0.28,0.28
67.33,8.80,8.54,8.80,8.54,-8.54,-8.54,-9.16,0.26,0.26,0.26
68.01,8.73,8.50,8.74,8.50,-8.50,-8.52,-9.08,0.23,0.23,0.23
68.69,8.67,8.46,8.67,8.47,-8.47,-8.50,-8.99,0.20,0.21,0.21
69.37,8.61,8.43,8.61,8.43,-8.43,-8.47,-8.90,0.18,0.18,0.18
70.07,8.55,8.40,8.55,8.40,-8.40,-8.45,-8.81,0.16,0.15,0.15
70.77,8.48,8.35,8.48,8.36,-8.36,-8.43,-8.72,0.12,0.12,0.13
71.48,8.42,8.32,8.42,8.32,-8.32,-8.41,-8.62,0.10,0.10,0.10
72.19,8.35,8.28,8.35,8.29,-8.29,-8.39,-8.52,0.06,0.06,0.07
72.91,8.29,8.26,8.29,8.25,-8.26,-8.37,-8.42,0.03,0.03,0.03
73.64,8.22,8.22,8.22,8.22,-8.22,-8.34,-8.32,-0.00,-0.00,-0.00
74.38,8.15,8.18,8.16,8.20,-8.19,-8.32,-8.22,-0.04,-0.04,-0.03
75.12,8.09,8.17,8.09,8.16,-8.16,-8.30,-8.12,-0.07,-0.07,-0.08
75.87,8.02,8.13,8.02,8.13,-8.13,-8.27,-8.03,-0.11,-0.11,-0.11
76.63,7.95,8.09,7.95,8.10,-8.10,-8.25,-7.94,-0.15,-0.15,-0.14
77.40,7.88,8.06,7.88,8.07,-8.07,-8.23,-7.85,-0.19,-0.19,-0.18
78.17,7.81,8.05,7.81,8.04,-8.04,-8.20,-7.76,-0.23,-0.23,-0.24
78.95,7.74,8.00,7.74,8.01,-8.01,-8.18,-7.67,-0.27,-0.27,-0.26
79.74,7.67,7.97,7.67,7.98,-7.98,-8.15,-7.59,-0.31,-0.31,-0.30
80.54,7.59,7.94,7.60,7.95,-7.95,-8.13,-7.52,-0.36,-0.35,-0.35
81.35,7.53,7.92,7.53,7.92,-7.92,-8.10,-7.45,-0.39,-0.39,-0.39
82.16,7.46,7.90,7.46,7.90,-7.89,-8.08,-7.38,-0.43,-0.44,-0.44
82.98,7.38,7.86,7.38,7.87,-7.87,-8.05,-7.32,-0.48,-0.48,-0.48
83.81,7.31,7.85,7.31,7.84,-7.84,-8.02,-7.26,-0.53,-0.53,-0.54
84.65,7.22,7.80,7.23,7.81,-7.81,-8.00,-7.21,-0.59,-0.58,-0.58
85.50,7.15,7.77,7.15,7.78,-7.78,-7.97,-7.16,-0.63,-0.63,-0.62
86.35,7.08,7.75,7.07,7.75,-7.75,-7.94,-7.12,-0.67,-0.68,-0.67
87.22,6.99,7.71,7.00,7.72,-7.72,-7.92,-7.08,-0.73,-0.72,-0.72
88.09,6.92,7.70,6.92,7.69,-7.69,-7.89,-7.05,-0.77,-0.78,-0.78
88.97,6.84,7.66,6.84,7.67,-7.67,-7.86,-7.02,-0.83,-0.83,-0.82
89.86,6.76,7.63,6.77,7.64,-7.64,-7.83,-7.00,-0.88,-0.87,-0.87
90.76,6.69,7.62,6.69,7.62,-7.61,-7.80,-6.98,-0.92,-0.92,-0.93
91.66,6.61,7.59,6.61,7.59,-7.59,-7.77,-6.97,-0.97,-0.98,-0.98
92.58,6.52,7.56,6.53,7.56,-7.56,-7.75,-6.96,-1.04,-1.03,-1.04
93.51,6.44,7.52,6.45,7.53,-7.53,-7.72,-6.96,-1.09,-1.09,-1.08
94.44,6.37,7.50,6.37,7.50,-7.51,-7.69,-6.97,-1.14,-1.14,-1.13
95.39,6.29,7.48,6.29,7.48,-7.49,-7.66,-6.97,-1.20,-1.20,-1.19
96.34,6.21,7.47,6.21,7.47,-7.46,-7.63,-6.98,-1.25,-1.25,-1.26
97.30,6.13,7.44,6.13,7.45,-7.44,-7.60,-7.00,-1.31,-1.31,-1.31
98.28,6.05,7.42,6.05,7.43,-7.43,-7.57,-7.02,-1.37,-1.37,-1.37
99.26,5.97,7.41,5.97,7.40,-7.41,-7.54,-7.05,-1.44,-1.44,-1.44
100.25,5.89,7.38,5.89,7.39,-7.39,-7.51,-7.07,-1.50,-1.50,-1.49
101.25,5.81,7.36,5.81,7.37,-7.37,-7.47,-7.10,-1.56,-1.56,-1.55
102.27,5.73,7.35,5.73,7.35,-7.35,-7.44,-7.14,-1.62,-1.62,-1.62
103.29,5.65,7.34,5.65,7.34,-7.33,-7.41,-7.17,-1.68,-1.68,-1.69
104.32,5.57,7.31,5.57,7.31,-7.31,-7.38,-7.21,-1.74,-1.74,-1.74
105.37,5.48,7.28,5.48,7.29,-7.29,-7.35,-7.25,-1.81,-1.81,-1.80
106.42,5.39,7.26,5.40,7.27,-7.27,-7.32,-7.29,-1.88,-1.88,-1.87
107.48,5.31,7.25,5.31,7.25,-7.26,-7.28,-7.33,-1.94,-1.94,-1.94
108.56,5.23,7.24,5.23,7.24,-7.24,-7.25,-7.38,-2.01,-2.01,-2.01
109.64,5.15,7.22,5.15,7.22,-7.22,-7.22,-7.42,-2.07,-2.07,-2.07
110.74,5.07,7.20,5.07,7.21,-7.21,-7.18,-7.46,-2.14,-2.14,-2.13
111.85,4.99,7.19,4.99,7.19,-7.19,-7.15,-7.49,-2.20,-2.21,-2.20
112.97,4.90,7.18,4.91,7.18,-7.18,-7.12,-7.53,-2.28,-2.28,-2.28
114.10,4.82,7.16,4.82,7.17,-7.17,-7.08,-7.56,-2.35,-2.34,-2.34
115.24,4.74,7.15,4.74,7.15,-7.15,-7.05,-7.59,-2.41,-2.41,-2.41
116.39,4.66,7.14,4.66,7.14,-7.14,-7.01,-7.61,-2.48,-2.48,-2.48
117.55,4.57,7.12,4.58,7.12,-7.12,-6.98,-7.63,-2.55,-2.54,-2.55
118.73,4.49,7.10,4.49,7.10,-7.10,-6.94,-7.65,-2.61,-2.61,-2.61
119.92,4.41,7.08,4.41,7.08,-7.08,-6.91,-7.65,-2.67,-2.67,-2.67
121.12,4.32,7.05,4.33,7.06,-7.06,-6.87,-7.65,-2.74,-2.73,-2.73
122.33,4.24,7.04,4.24,7.04,-7.04,-6.84,-7.65,-2.79,-2.79,-2.80
123.55,4.16,7.01,4.16,7.01,-7.01,-6.80,-7.63,-2.85,-2.85,-2.85
124.79,4.07,6.98,4.08,6.98,-6.99,-6.77,-7.61,-2.92,-2.91,-2.91
126.03,3.99,6.95,3.99,6.96,-6.96,-6.73,-7.59,-2.97,-2.97,-2.96
127.29,3.91,6.93,3.91,6.93,-6.94,-6.70,-7.55,-3.03,-3.03,-3.02
128.57,3.82,6.91,3.83,6.91,-6.91,-6.66,-7.51,-3.09,-3.09,-3.09
129.85,3.75,6.89,3.75,6.89,-6.89,-6.62,-7.46,-3.13,-3.14,-3.14
131.15,3.66,6.85,3.66,6.86,-6.86,-6.59,-7.40,-3.19,-3.19,-3.19
132.46,3.58,6.83,3.58,6.83,-6.83,-6.55,-7.33,-3.24,-3.24,-3.25
133.79,3.50,6.79,3.50,6.80,-6.79,-6.51,-7.26,-3.29,-3.29,-3.29
135.12,3.41,6.76,3.41,6.76,-6.76,-6.48,-7.19,-3.34,-3.34,-3.35
136.48,3.33,6.71,3.33,6.71,-6.72,-6.44,-7.11,-3.38,-3.39,-3.38
137.84,3.24,6.66,3.24,6.67,-6.67,-6.40,-7.02,-3.43,-3.43,-3.42
139.22,3.16,6.63,3.16,6.63,-6.63,-6.36,-6.93,-3.47,-3.47,-3.47
140.61,3.08,6.59,3.08,6.59,-6.58,-6.32,-6.84,-3.50,-3.50,-3.51
142.02,3.00,6.53,3.00,6.54,-6.54,-6.29,-6.75,-3.53,-3.54,-3.53
143.44,2.92,6.48,2.92,6.49,-6.49,-6.25,-6.65,-3.57,-3.57,-3.56
144.87,2.83,6.43,2.84,6.44,-6.44,-6.21,-6.55,-3.61,-3.60,-3.60
146.32,2.76,6.39,2.76,6.39,-6.39,-6.17,-6.45,-3.63,-3.63,-3.63
147.78,2.68,6.33,2.68,6.34,-6.33,-6.13,-6.36,-3.65,-3.66,-3.65
149.26,2.60,6.28,2.60,6.28,-6.28,-6.09,-6.26,-3.68,-3.68,-3.68
150.75,2.51,6.23,2.51,6.23,-6.23,-6.06,-6.16,-3.72,-3.71,-3.72
152.26,2.43,6.17,2.43,6.18,-6.17,-6.02,-6.06,-3.74,-3.74,-3.74
153.78,2.35,6.12,2.35,6.12,-6.12,-5.98,-5.97,-3.77,-3.77,-3.77
155.32,2.27,6.06,2.27,6.06,-6.07,-5.94,-5.87,-3.80,-3.80,-3.79
156.88,2.19,6.01,2.19,6.02,-6.02,-5.90,-5.78,-3.83,-3.82,-3.82
158.44,2.11,5.96,2.11,5.96,-5.97,-5.86,-5.69,-3.85,-3.85,-3.85
160.03,2.04,5.92,2.03,5.92,-5.92,-5.82,-5.61,-3.87,-3.88,-3.88
161.63,1.95,5.86,1.96,5.87,-5.87,-5.78,-5.52,-3.92,-3.91,-3.91
163.24,1.88,5.82,1.88,5.82,-5.82,-5.74,-5.44,-3.94,-3.94,-3.94
164.88,1.81,5.77,1.81,5.77,-5.77,-5.70,-5.36,-3.96,-3.96,-3.96
166.53,1.73,5.71,1.73,5.72,-5.72,-5.66,-5.29,-3.99,-3.99,-3.98
168.19,1.66,5.68,1.66,5.68,-5.68,-5.62,-5.22,-4.02,-4.02,-4.02
169.87,1.58,5.63,1.58,5.63,-5.63,-5.59,-5.15,-4.05,-4.05,-4.05
171.57,1.51,5.59,1.51,5.59,-5.59,-5.55,-5.09,-4.08,-4.08,-4.08
173.29,1.43,5.53,1.43,5.54,-5.55,-5.51,-5.03,-4.11,-4.11,-4.10
175.02,1.36,5.50,1.36,5.50,-5.50,-5.47,-4.97,-4.14,-4.15,-4.14
176.77,1.28,5.46,1.29,5.47,-5.46,-5.43,-4.92,-4.18,-4.18,-4.18
178.54,1.21,5.43,1.21,5.43,-5.43,-5.39,-4.87,-4.21,-4.21,-4.22
180.32,1.14,5.39,1.14,5.39,-5.39,-5.35,-4.82,-4.25,-4.25,-4.25
182.13,1.06,5.34,1.06,5.35,-5.35,-5.31,-4.78,-4.29,-4.29,-4.28
183.95,0.98,5.30,0.99,5.31,-5.31,-5.27,-4.74,-4.33,-4.32,-4.32
185.79,0.92,5.28,0.91,5.28,-5.27,-5.23,-4.70,-4.35,-4.36,-4.36
187.65,0.84,5.24,0.84,5.24,-5.23,-5.19,-4.67,-4.39,-4.39,-4.40
189.52,0.76,5.19,0.77,5.20,-5.19,-5.15,-4.64,-4.43,-4.42,-4.43
191.42,0.70,5.15,0.70,5.15,-5.15,-5.11,-4.62,-4.45,-4.45,-4.45
193.33,0.63,5.10,0.63,5.10,-5.11,-5.07,-4.60,-4.48,-4.48,-4.47
195.27,0.56,5.06,0.56,5.06,-5.07,-5.03,-4.58,-4.51,-4.51,-4.50
197.22,0.48,5.01,0.49,5.03,-5.02,-4.99,-4.56,-4.54,-4.54,-4.53
199.19,0.42,5.00,0.42,4.99,-4.98,-4.96,-4.55,-4.56,-4.56,-4.58
201.18,0.35,4.94,0.35,4.94,-4.93,-4.92,-4.54,-4.58,-4.59,-4.59
203.19,0.27,4.88,0.28,4.89,-4.89,-4.88,-4.53,-4.62,-4.61,-4.61
205.23,0.21,4.84,0.21,4.84,-4.84,-4.84,-4.52,-4.63,-4.63,-4.63
207.28,0.14,4.78,0.14,4.79,-4.80,-4.80,-4.52,-4.65,-4.66,-4.64
209.35,0.07,4.74,0.08,4.75,-4.75,-4.76,-4.51,-4.67,-4.67,-4.67
211.44,0.01,4.70,0.01,4.70,-4.70,-4.73,-4.51,-4.69,-4.69,-4.69
213.56,-0.05,4.66,-0.05,4.65,-4.65,-4.69,-4.51,-4.70,-4.70,-4.71
215.69,-0.12,4.59,-0.12,4.60,-4.60,-4.65,-4.51,-4.72,-4.72,-4.71
217.85,-0.18,4.54,-0.18,4.55,-4.56,-4.62,-4.51,-4.74,-4.74,-4.72
220.03,-0.24,4.51,-0.24,4.51,-4.51,-4.58,-4.51,-4.75,-4.74,-4.75
222.23,-0.29,4.47,-0.29,4.46,-4.46,-4.54,-4.52,-4.75,-4.75,-4.76
224.45,-0.34,4.41,-0.34,4.42,-4.41,-4.51,-4.52,-4.75,-4.75,-4.75
226.70,-0.40,4.36,-0.39,4.37,-4.36,-4.47,-4.52,-4.76,-4.76,-4.76
228.96,-0.44,4.32,-0.44,4.31,-4.32,-4.43,-4.52,-4.75,-4.76,-4.76
231.25,-0.50,4.25,-0.49,4.26,-4.27,-4.40,-4.52,-4.77,-4.76,-4.75
233.57,-0.53,4.21,-0.53,4.22,-4.22,-4.36,-4.52,-4.75,-4.76,-4.74
235.90,-0.57,4.17,-0.57,4.17,-4.18,-4.33,-4.51,-4.75,-4.75,-4.74
238.26,-0.60,4.14,-0.60,4.14,-4.13,-4.30,-4.51,-4.73,-4.73,-4.74
240.64,-0.63,4.09,-0.63,4.10,-4.09,-4.26,-4.50,-4.72,-4.72,-4.72
243.05,-0.65,4.05,-0.66,4.05,-4.05,-4.23,-4.49,-4.69,-4.70,-4.70
245.48,-0.69,3.99,-0.68,4.00,-4.00,-4.20,-4.48,-4.69,-4.68,-4.68
247.93,-0.72,3.95,-0.71,3.96,-3.95,-4.16,-4.46,-4.67,-4.66,-4.67
250.41,-0.74,3.92,-0.74,3.91,-3.90,-4.13,-4.44,-4.64,-4.65,-4.66
252.92,-0.77,3.85,-0.77,3.86,-3.85,-4.10,-4.42,-4.62,-4.62,-4.62
255.45,-0.81,3.79,-0.80,3.80,-3.80,-4.07,-4.40,-4.61,-4.60,-4.60
258.00,-0.83,3.75,-0.83,3.75,-3.75,-4.04,-4.38,-4.58,-4.58,-4.58
260.58,-0.85,3.71,-0.85,3.71,-3.71,-4.01,-4.35,-4.56,-4.56,-4.56
263.19,-0.88,3.66,-0.87,3.67,-3.67,-3.99,-4.32,-4.55,-4.54,-4.54
265.82,-0.89,3.63,-0.89,3.63,-3.64,-3.96,-4.29,-4.53,-4.52,-4.52
268.48,-0.89,3.60,-0.89,3.60,-3.61,-3.93,-4.26,-4.50,-4.50,-4.49
271.16,-0.88,3.58,-0.88,3.59,-3.60,-3.91,-4.22,-4.48,-4.48,-4.46
273.87,-0.86,3.58,-0.86,3.58,-3.59,-3.88,-4.18,-4.45,-4.45,-4.44
276.61,-0.84,3.57,-0.83,3.58,-3.59,-3.86,-4.14,-4.43,-4.42,-4.41
279.38,-0.80,3.59,-0.80,3.59,-3.59,-3.83,-4.11,-4.39,-4.39,-4.39
282.17,-0.77,3.60,-0.77,3.60,-3.59,-3.81,-4.07,-4.36,-4.36,-4.37
284.99,-0.74,3.60,-0.74,3.60,-3.59,-3.79,-4.03,-4.33,-4.33,-4.34
287.84,-0.72,3.60,-0.71,3.60,-3.60,-3.77,-3.99,-4.31,-4.31,-4.32
290.72,-0.69,3.59,-0.69,3.60,-3.59,-3.75,-3.94,-4.28,-4.28,-4.28
293.63,-0.67,3.59,-0.67,3.59,-3.58,-3.74,-3.90,-4.25,-4.26,-4.26
296.57,-0.66,3.57,-0.66,3.58,-3.57,-3.72,-3.87,-4.23,-4.23,-4.23
299.53,-0.65,3.55,-0.65,3.56,-3.55,-3.71,-3.83,-4.20,-4.20,-4.20
302.53,-0.64,3.54,-0.64,3.53,-3.53,-3.70,-3.79,-4.17,-4.17,-4.18
305.55,-0.63,3.50,-0.63,3.51,-3.51,-3.68,-3.75,-4.14,-4.14,-4.13
308.61,-0.61,3.49,-0.61,3.49,-3.49,-3.68,-3.72,-4.10,-4.10,-4.10
311.69,-0.60,3.46,-0.59,3.47,-3.48,-3.67,-3.68,-4.08,-4.07,-4.06
314.81,-0.57,3.46,-0.57,3.46,-3.47,-3.66,-3.65,-4.03,-4.04,-4.03
317.96,-0.55,3.45,-0.55,3.46,-3.46,-3.66,-3.62,-4.01,-4.01,-4.00
321.14,-0.51,3.46,-0.51,3.46,-3.46,-3.66,-3.60,-3.97,-3.97,-3.97
324.35,-0.48,3.47,-0.47,3.47,-3.47,-3.66,-3.57,-3.95,-3.94,-3.95
327.59,-0.43,3.48,-0.43,3.48,-3.48,-3.67,-3.55,-3.91,-3.92,-3.91
330.87,-0.39,3.49,-0.39,3.50,-3.50,-3.67,-3.53,-3.89,-3.89,-3.88
334.18,-0.34,3.52,-0.33,3.53,-3.53,-3.68,-3.51,-3.87,-3.86,-3.86
337.52,-0.27,3.57,-0.27,3.57,-3.56,-3.70,-3.49,-3.83,-3.84,-3.84
340.90,-0.21,3.60,-0.21,3.60,-3.60,-3.71,-3.48,-3.81,-3.81,-3.81
344.30,-0.15,3.64,-0.15,3.64,-3.64,-3.74,-3.47,-3.79,-3.79,-3.79
347.75,-0.09,3.67,-0.08,3.68,-3.68,-3.76,-3.46,-3.77,-3.77,-3.76
351.23,-0.01,3.73,-0.01,3.73,-3.73,-3.79,-3.45,-3.74,-3.75,-3.74
354.74,0.06,3.79,0.06,3.79,-3.79,-3.82,-3.45,-3.72,-3.73,-3.73
358.28,0.13,3.84,0.14,3.85,-3.84,-3.86,-3.45,-3.71,-3.71,-3.71
361.87,0.21,3.90,0.21,3.90,-3.90,-3.90,-3.45,-3.69,-3.69,-3.69
365.49,0.29,3.95,0.29,3.96,-3.96,-3.94,-3.46,-3.67,-3.67,-3.66
369.14,0.37,4.02,0.37,4.03,-4.03,-3.99,-3.46,-3.66,-3.65,-3.65
372.83,0.46,4.10,0.46,4.10,-4.10,-4.05,-3.47,-3.63,-3.64,-3.64
376.56,0.55,4.17,0.55,4.17,-4.17,-4.11,-3.49,-3.61,-3.61,-3.62
380.33,0.64,4.23,0.64,4.24,-4.24,-4.17,-3.50,-3.60,-3.59,-3.59
384.13,0.74,4.31,0.74,4.31,-4.31,-4.24,-3.52,-3.57,-3.57,-3.57
387.97,0.83,4.38,0.83,4.38,-4.39,-4.32,-3.54,-3.56,-3.55,-3.55
391.85,0.93,4.46,0.93,4.46,-4.46,-4.40,-3.56,-3.53,-3.53,-3.53
395.77,1.03,4.53,1.03,4.54,-4.54,-4.48,-3.58,-3.51,-3.51,-3.50
399.73,1.14,4.62,1.14,4.62,-4.62,-4.57,-3.61,-3.48,-3.48,-3.48
403.72,1.23,4.70,1.23,4.70,-4.70,-4.66,-3.63,-3.47,-3.47,-3.47
407.76,1.33,4.78,1.33,4.78,-4.78,-4.76,-3.66,-3.45,-3.45,-3.45
411.84,1.42,4.84,1.43,4.85,-4.85,-4.85,-3.69,-3.43,-3.43,-3.42
415.96,1.53,4.93,1.53,4.93,-4.93,-4.94,-3.71,-3.40,-3.40,-3.40
420.12,1.62,5.00,1.62,5.00,-5.00,-5.03,-3.74,-3.38,-3.38,-3.38
424.32,1.71,5.06,1.71,5.07,-5.07,-5.11,-3.77,-3.36,-3.36,-3.35
428.56,1.80,5.13,1.80,5.13,-5.13,-5.18,-3.80,-3.33,-3.33,-3.33
432.85,1.88,5.19,1.88,5.19,-5.19,-5.25,-3.83,-3.31,-3.31,-3.31
437.18,1.96,5.24,1.96,5.24,-5.25,-5.30,-3.86,-3.28,-3.28,-3.28
441.55,2.03,5.28,2.03,5.29,-5.29,-5.34,-3.88,-3.26,-3.26,-3.25
445.96,2.09,5.32,2.09,5.32,-5.33,-5.36,-3.91,-3.23,-3.23,-3.23
450.42,2.14,5.36,2.14,5.35,-5.35,-5.36,-3.93,-3.21,-3.21,-3.22
454.93,2.17,5.35,2.18,5.37,-5.36,-5.34,-3.95,-3.19,-3.18,-3.18
459.48,2.20,5.36,2.20,5.36,-5.35,-5.30,-3.97,-3.15,-3.15,-3.16
464.07,2.21,5.34,2.21,5.34,-5.33,-5.24,-3.98,-3.12,-3.13,-3.13
468.71,2.20,5.29,2.20,5.30,-5.30,-5.16,-3.99,-3.10,-3.09,-3.09
473.40,2.18,5.25,2.18,5.25,-5.25,-5.07,-4.00,-3.07,-3.07,-3.07
