frequency,raw,error,smoothed,error_smoothed,equalization,parametric_eq,fixed_band_eq,equalized_raw,equalized_smoothed,target
20.00,3.16,-0.52,3.16,-0.52,0.54,-0.10,-0.13,3.70,3.70,3.68
20.20,3.19,-0.52,3.19,-0.52,0.52,-0.10,-0.13,3.71,3.71,3.71
20.40,3.24,-0.50,3.23,-0.50,0.50,-0.10,-0.13,3.74,3.73,3.74
20.61,3.28,-0.48,3.28,-0.48,0.47,-0.11,-0.14,3.75,3.75,3.76
20.81,3.33,-0.46,3.34,-0.45,0.44,-0.11,-0.14,3.77,3.78,3.79
21.02,3.41,-0.41,3.40,-0.41,0.40,-0.11,-0.14,3.81,3.81,3.82
21.23,3.47,-0.36,3.46,-0.37,0.36,-0.11,-0.14,3.83,3.83,3.83
21.44,3.52,-0.32,3.53,-0.31,0.32,-0.12,-0.15,3.84,3.85,3.84
21.66,3.58,-0.27,3.58,-0.27,0.27,-0.12,-0.15,3.85,3.85,3.85
21.87,3.65,-0.20,3.64,-0.21,0.21,-0.12,-0.15,3.86,3.85,3.85
22.09,3.70,-0.16,3.71,-0.15,0.15,-0.13,-0.16,3.85,3.86,3.86
22.31,3.77,-0.09,3.77,-0.09,0.09,-0.13,-0.16,3.86,3.86,3.86
22.54,3.83,-0.03,3.83,-0.03,0.03,-0.13,-0.16,3.86,3.85,3.86
22.76,3.89,0.03,3.89,0.04,-0.04,-0.14,-0.17,3.85,3.86,3.86
22.99,3.95,0.10,3.95,0.10,-0.10,-0.14,-0.17,3.85,3.86,3.85
23.22,4.02,0.17,4.01,0.16,-0.16,-0.15,-0.17,3.86,3.86,3.85
23.45,4.07,0.22,4.07,0.23,-0.22,-0.15,-0.18,3.85,3.86,3.85
23.69,4.13,0.28,4.13,0.28,-0.27,-0.15,-0.18,3.86,3.85,3.85
23.92,4.18,0.33,4.17,0.32,-0.33,-0.16,-0.18,3.85,3.85,3.85
24.16,4.21,0.36,4.22,0.37,-0.38,-0.16,-0.19,3.83,3.84,3.85
24.40,4.27,0.42,4.27,0.42,-0.42,-0.17,-0.19,3.85,3.84,3.85
24.65,4.31,0.47,4.31,0.46,-0.47,-0.17,-0.20,3.84,3.84,3.84
24.89,4.35,0.51,4.35,0.51,-0.51,-0.17,-0.20,3.84,3.84,3.84
25.14,4.38,0.54,4.39,0.55,-0.54,-0.18,-0.21,3.84,3.84,3.84
25.39,4.42,0.58,4.42,0.58,-0.58,-0.18,-0.21,3.84,3.84,3.84
25.65,4.45,0.61,4.44,0.61,-0.61,-0.19,-0.22,3.84,3.83,3.84
25.91,4.47,0.64,4.47,0.63,-0.64,-0.19,-0.22,3.83,3.83,3.83
26.16,4.47,0.64,4.49,0.66,-0.66,-0.20,-0.23,3.81,3.83,3.83
26.43,4.52,0.69,4.51,0.68,-0.67,-0.20,-0.23,3.84,3.83,3.83
26.69,4.52,0.69,4.52,0.69,-0.69,-0.21,-0.24,3.83,3.83,3.83
26.96,4.52,0.69,4.52,0.70,-0.69,-0.22,-0.25,3.83,3.83,3.83
27.23,4.52,0.70,4.52,0.70,-0.70,-0.22,-0.25,3.82,3.83,3.82
27.50,4.52,0.70,4.52,0.70,-0.70,-0.23,-0.26,3.82,3.82,3.82
27.77,4.52,0.71,4.51,0.70,-0.69,-0.23,-0.27,3.82,3.81,3.81
28.05,4.49,0.68,4.49,0.69,-0.69,-0.24,-0.27,3.80,3.80,3.81
28.33,4.47,0.67,4.48,0.67,-0.69,-0.25,-0.28,3.78,3.79,3.80
28.62,4.47,0.67,4.47,0.67,-0.68,-0.25,-0.29,3.79,3.79,3.80
28.90,4.47,0.67,4.47,0.67,-0.67,-0.26,-0.30,3.80,3.80,3.80
29.19,4.47,0.68,4.46,0.67,-0.66,-0.27,-0.31,3.81,3.80,3.79
29.48,4.45,0.66,4.45,0.66,-0.65,-0.27,-0.32,3.80,3.80,3.79
29.78,4.42,0.64,4.43,0.65,-0.64,-0.28,-0.33,3.78,3.79,3.78
30.08,4.42,0.64,4.41,0.63,-0.64,-0.29,-0.34,3.78,3.77,3.78
30.38,4.39,0.62,4.39,0.62,-0.63,-0.29,-0.35,3.76,3.76,3.77
30.68,4.38,0.61,4.38,0.62,-0.63,-0.30,-0.37,3.75,3.75,3.77
30.99,4.38,0.62,4.38,0.62,-0.63,-0.31,-0.38,3.75,3.75,3.76
31.30,4.38,0.63,4.38,0.63,-0.63,-0.32,-0.39,3.75,3.75,3.75
31.61,4.38,0.63,4.38,0.64,-0.63,-0.33,-0.41,3.75,3.76,3.75
31.93,4.38,0.64,4.37,0.63,-0.62,-0.34,-0.42,3.76,3.75,3.74
32.24,4.36,0.63,4.36,0.63,-0.62,-0.35,-0.44,3.74,3.74,3.73
32.57,4.33,0.60,4.34,0.61,-0.61,-0.35,-0.45,3.72,3.73,3.73
32.89,4.33,0.61,4.32,0.60,-0.60,-0.36,-0.47,3.73,3.72,3.72
33.22,4.29,0.58,4.30,0.59,-0.58,-0.37,-0.49,3.71,3.72,3.71
33.55,4.28,0.57,4.27,0.57,-0.56,-0.38,-0.51,3.72,3.71,3.71
33.89,4.24,0.54,4.24,0.54,-0.54,-0.39,-0.52,3.70,3.70,3.70
34.23,4.19,0.50,4.20,0.51,-0.51,-0.41,-0.54,3.68,3.69,3.69
34.57,4.16,0.48,4.16,0.48,-0.48,-0.42,-0.56,3.68,3.68,3.68
34.92,4.12,0.45,4.12,0.45,-0.45,-0.43,-0.59,3.67,3.67,3.67
35.27,4.08,0.42,4.08,0.42,-0.42,-0.44,-0.61,3.66,3.66,3.66
35.62,4.05,0.40,4.04,0.39,-0.39,-0.45,-0.63,3.66,3.65,3.65
35.97,4.00,0.36,4.00,0.36,-0.36,-0.46,-0.65,3.64,3.64,3.64
36.33,3.96,0.33,3.97,0.34,-0.34,-0.48,-0.68,3.62,3.63,3.63
36.70,3.93,0.31,3.93,0.31,-0.31,-0.49,-0.70,3.62,3.62,3.62
37.06,3.91,0.30,3.90,0.29,-0.29,-0.50,-0.73,3.62,3.61,3.61
37.43,3.87,0.27,3.88,0.28,-0.28,-0.52,-0.75,3.59,3.60,3.60
37.81,3.86,0.27,3.85,0.26,-0.26,-0.53,-0.78,3.60,3.59,3.59
38.19,3.82,0.24,3.83,0.25,-0.26,-0.55,-0.81,3.56,3.57,3.58
38.57,3.82,0.25,3.82,0.25,-0.26,-0.56,-0.84,3.56,3.56,3.57
38.95,3.82,0.26,3.81,0.26,-0.26,-0.58,-0.87,3.56,3.55,3.56
39.34,3.81,0.27,3.82,0.27,-0.27,-0.59,-0.90,3.54,3.55,3.54
39.74,3.82,0.29,3.82,0.29,-0.28,-0.61,-0.93,3.54,3.54,3.53
40.14,3.82,0.30,3.81,0.30,-0.29,-0.63,-0.96,3.53,3.52,3.52
40.54,3.82,0.31,3.82,0.31,-0.31,-0.65,-1.00,3.51,3.51,3.51
40.94,3.82,0.32,3.83,0.33,-0.34,-0.67,-1.03,3.48,3.49,3.50
41.35,3.86,0.37,3.85,0.36,-0.36,-0.69,-1.07,3.50,3.49,3.49
41.76,3.86,0.38,3.87,0.39,-0.39,-0.70,-1.10,3.47,3.48,3.48
42.18,3.91,0.44,3.90,0.43,-0.43,-0.73,-1.14,3.48,3.47,3.47
42.60,3.91,0.45,3.92,0.46,-0.46,-0.75,-1.18,3.45,3.46,3.46
43.03,3.96,0.51,3.95,0.50,-0.51,-0.77,-1.22,3.45,3.45,3.45
43.46,3.98,0.55,3.98,0.55,-0.55,-0.79,-1.26,3.43,3.43,3.43
43.90,4.00,0.59,4.01,0.60,-0.60,-0.81,-1.30,3.40,3.41,3.41
44.33,4.04,0.65,4.03,0.64,-0.64,-0.84,-1.34,3.40,3.39,3.39
44.78,4.05,0.68,4.06,0.69,-0.69,-0.86,-1.38,3.36,3.38,3.37
45.23,4.10,0.75,4.09,0.74,-0.73,-0.89,-1.43,3.37,3.36,3.35
45.68,4.11,0.77,4.11,0.78,-0.77,-0.92,-1.47,3.34,3.34,3.34
46.13,4.14,0.82,4.14,0.82,-0.82,-0.94,-1.52,3.32,3.32,3.32
46.60,4.17,0.86,4.17,0.86,-0.86,-0.97,-1.57,3.31,3.31,3.31
47.06,4.19,0.90,4.19,0.90,-0.90,-1.00,-1.61,3.29,3.29,3.29
47.53,4.23,0.96,4.22,0.95,-0.95,-1.03,-1.66,3.28,3.27,3.27
48.01,4.24,0.98,4.25,0.99,-1.00,-1.06,-1.71,3.24,3.25,3.26
48.49,4.28,1.05,4.27,1.04,-1.05,-1.10,-1.76,3.23,3.22,3.23
48.97,4.30,1.10,4.30,1.10,-1.11,-1.13,-1.81,3.19,3.19,3.20
49.46,4.33,1.16,4.34,1.17,-1.16,-1.16,-1.87,3.17,3.17,3.17
49.96,4.37,1.23,4.37,1.22,-1.22,-1.20,-1.92,3.15,3.15,3.14
50.46,4.40,1.28,4.40,1.28,-1.27,-1.24,-1.97,3.13,3.13,3.12
50.96,4.42,1.32,4.43,1.33,-1.32,-1.28,-2.02,3.10,3.10,3.10
51.47,4.45,1.38,4.45,1.37,-1.37,-1.32,-2.08,3.08,3.07,3.07
51.99,4.47,1.42,4.47,1.42,-1.42,-1.36,-2.13,3.05,3.05,3.05
52.51,4.48,1.45,4.49,1.46,-1.46,-1.40,-2.18,3.02,3.03,3.03
53.03,4.52,1.51,4.51,1.50,-1.50,-1.45,-2.23,3.02,3.01,3.01
53.56,4.52,1.54,4.52,1.53,-1.53,-1.49,-2.29,2.99,2.99,2.98
54.10,4.52,1.56,4.52,1.56,-1.56,-1.54,-2.34,2.96,2.96,2.96
54.64,4.52,1.59,4.53,1.60,-1.60,-1.59,-2.39,2.92,2.93,2.93
55.18,4.54,1.63,4.54,1.63,-1.63,-1.64,-2.43,2.91,2.91,2.91
55.74,4.56,1.68,4.55,1.66,-1.67,-1.69,-2.48,2.89,2.88,2.88
56.29,4.56,1.70,4.56,1.70,-1.70,-1.74,-2.52,2.86,2.86,2.86
56.86,4.56,1.72,4.58,1.74,-1.74,-1.80,-2.57,2.82,2.83,2.84
57.42,4.61,1.80,4.59,1.78,-1.79,-1.86,-2.61,2.82,2.81,2.81
58.00,4.62,1.83,4.63,1.84,-1.84,-1.91,-2.64,2.78,2.79,2.79
58.58,4.66,1.89,4.66,1.89,-1.89,-1.97,-2.68,2.77,2.77,2.77
59.16,4.71,1.96,4.70,1.95,-1.95,-2.04,-2.71,2.76,2.75,2.75
59.76,4.74,2.01,4.75,2.02,-2.02,-2.10,-2.74,2.72,2.73,2.73
60.35,4.79,2.09,4.79,2.09,-2.09,-2.17,-2.76,2.70,2.70,2.70
60.96,4.83,2.16,4.83,2.16,-2.17,-2.23,-2.79,2.66,2.66,2.67
61.57,4.88,2.25,4.88,2.25,-2.25,-2.30,-2.80,2.63,2.63,2.63
62.18,4.93,2.33,4.93,2.33,-2.33,-2.37,-2.82,2.60,2.60,2.60
62.80,4.99,2.42,4.99,2.42,-2.41,-2.44,-2.83,2.58,2.57,2.57
63.43,5.04,2.50,5.04,2.50,-2.50,-2.52,-2.84,2.54,2.54,2.54
64.07,5.10,2.59,5.10,2.59,-2.59,-2.59,-2.84,2.51,2.51,2.51
64.71,5.16,2.67,5.16,2.67,-2.67,-2.67,-2.84,2.49,2.49,2.49
65.35,5.22,2.76,5.22,2.76,-2.76,-2.75,-2.84,2.46,2.46,2.46
66.01,5.28,2.85,5.28,2.85,-2.84,-2.82,-2.83,2.44,2.43,2.43
66.67,5.33,2.93,5.33,2.93,-2.93,-2.90,-2.82,2.40,2.40,2.40
67.33,5.38,3.01,5.38,3.01,-3.01,-2.98,-2.81,2.37,2.37,2.37
68.01,5.42,3.08,5.43,3.09,-3.09,-3.06,-2.79,2.33,2.33,2.34
68.69,5.48,3.17,5.48,3.17,-3.17,-3.14,-2.77,2.31,2.31,2.31
69.37,5.53,3.25,5.53,3.25,-3.25,-3.21,-2.75,2.28,2.28,2.28
70.07,5.59,3.34,5.58,3.33,-3.33,-3.29,-2.73,2.26,2.26,2.25
70.77,5.62,3.40,5.62,3.40,-3.40,-3.37,-2.71,2.22,2.22,2.22
71.48,5.66,3.47,5.66,3.47,-3.47,-3.44,-2.68,2.19,2.19,2.19
72.19,5.68,3.53,5.69,3.54,-3.54,-3.51,-2.66,2.14,2.15,2.15
72.91,5.73,3.61,5.72,3.60,-3.60,-3.58,-2.63,2.13,2.12,2.12
73.64,5.74,3.66,5.75,3.66,-3.66,-3.64,-2.60,2.08,2.09,2.08
74.38,5.77,3.72,5.76,3.72,-3.71,-3.70,-2.58,2.06,2.06,2.05
75.12,5.77,3.76,5.77,3.76,-3.75,-3.76,-2.55,2.02,2.02,2.01
75.87,5.77,3.79,5.77,3.79,-3.80,-3.81,-2.52,1.97,1.98,1.98
76.63,5.77,3.82,5.77,3.82,-3.83,-3.86,-2.50,1.94,1.94,1.95
77.40,5.77,3.85,5.77,3.86,-3.86,-3.90,-2.47,1.91,1.91,1.92
78.17,5.77,3.89,5.77,3.89,-3.88,-3.94,-2.44,1.89,1.89,1.88
78.95,5.77,3.92,5.76,3.91,-3.90,-3.96,-2.42,1.87,1.86,1.85
79.74,5.73,3.91,5.74,3.92,-3.92,-3.99,-2.40,1.81,1.82,1.82
80.54,5.71,3.93,5.71,3.93,-3.93,-4.00,-2.38,1.78,1.78,1.78
81.35,5.68,3.93,5.67,3.92,-3.93,-4.01,-2.35,1.75,1.74,1.75
82.16,5.63,3.92,5.64,3.92,-3.93,-4.01,-2.33,1.70,1.71,1.71
82.98,5.59,3.91,5.60,3.92,-3.92,-4.01,-2.32,1.67,1.67,1.68
83.81,5.56,3.92,5.55,3.91,-3.91,-3.99,-2.30,1.65,1.64,1.64
84.65,5.50,3.90,5.50,3.90,-3.89,-3.97,-2.29,1.61,1.61,1.60
85.50,5.44,3.87,5.44,3.88,-3.87,-3.94,-2.27,1.57,1.57,1.57
86.35,5.38,3.85,5.37,3.84,-3.85,-3.91,-2.26,1.53,1.53,1.53
87.22,5.30,3.81,5.31,3.82,-3.82,-3.87,-2.25,1.48,1.49,1.49
88.09,5.23,3.78,5.23,3.78,-3.79,-3.83,-2.24,1.44,1.44,1.45
88.97,5.17,3.76,5.16,3.75,-3.75,-3.78,-2.24,1.42,1.41,1.41
89.86,5.06,3.69,5.08,3.71,-3.71,-3.72,-2.23,1.35,1.37,1.37
90.76,5.00,3.68,4.99,3.67,-3.67,-3.66,-2.23,1.33,1.32,1.32
91.66,4.89,3.61,4.89,3.62,-3.61,-3.60,-2.23,1.27,1.28,1.28
92.58,4.80,3.57,4.80,3.57,-3.56,-3.53,-2.23,1.24,1.24,1.23
93.51,4.69,3.50,4.69,3.50,-3.50,-3.46,-2.23,1.20,1.20,1.19
94.44,4.58,3.43,4.57,3.43,-3.43,-3.39,-2.24,1.15,1.15,1.15
95.39,4.45,3.35,4.45,3.35,-3.35,-3.32,-2.24,1.10,1.10,1.10
96.34,4.30,3.25,4.31,3.26,-3.27,-3.25,-2.25,1.03,1.05,1.05
97.30,4.19,3.19,4.17,3.17,-3.18,-3.17,-2.26,1.01,1.00,1.00
98.28,4.03,3.08,4.04,3.08,-3.09,-3.10,-2.27,0.95,0.95,0.95
99.26,3.89,2.98,3.89,2.99,-2.99,-3.02,-2.28,0.90,0.91,0.91
100.25,3.75,2.89,3.74,2.88,-2.89,-2.95,-2.29,0.86,0.86,0.86
101.25,3.59,2.78,3.60,2.79,-2.78,-2.87,-2.31,0.81,0.82,0.81
102.27,3.44,2.68,3.44,2.68,-2.67,-2.80,-2.32,0.77,0.77,0.76
103.29,3.28,2.57,3.28,2.56,-2.56,-2.73,-2.33,0.72,0.72,0.71
104.32,3.11,2.44,3.11,2.44,-2.44,-2.65,-2.35,0.67,0.67,0.67
105.37,2.94,2.32,2.94,2.32,-2.33,-2.58,-2.36,0.61,0.61,0.62
106.42,2.77,2.20,2.78,2.21,-2.21,-2.51,-2.38,0.56,0.57,0.57
107.48,2.63,2.11,2.62,2.10,-2.10,-2.45,-2.39,0.53,0.52,0.52
108.56,2.47,2.00,2.46,1.99,-1.99,-2.38,-2.41,0.48,0.47,0.47
109.64,2.30,1.88,2.31,1.89,-1.89,-2.32,-2.42,0.41,0.42,0.42
110.74,2.16,1.79,2.16,1.79,-1.79,-2.25,-2.44,0.37,0.37,0.37
111.85,2.02,1.70,2.01,1.69,-1.69,-2.19,-2.45,0.33,0.32,0.32
112.97,1.86,1.60,1.87,1.61,-1.61,-2.14,-2.46,0.26,0.27,0.26
114.10,1.74,1.53,1.73,1.52,-1.52,-2.08,-2.47,0.22,0.21,0.21
115.24,1.60,1.45,1.59,1.44,-1.45,-2.03,-2.47,0.15,0.15,0.15
116.39,1.46,1.36,1.47,1.38,-1.38,-1.97,-2.48,0.08,0.09,0.10
117.55,1.36,1.32,1.36,1.31,-1.32,-1.92,-2.48,0.04,0.04,0.04
118.73,1.27,1.28,1.26,1.27,-1.27,-1.87,-2.48,-0.00,-0.01,-0.01
119.92,1.16,1.22,1.17,1.23,-1.23,-1.83,-2.48,-0.07,-0.06,-0.06
121.12,1.10,1.21,1.09,1.20,-1.20,-1.78,-2.48,-0.10,-0.11,-0.11
122.33,1.01,1.17,1.01,1.17,-1.18,-1.74,-2.47,-0.17,-0.16,-0.16
123.55,0.95,1.16,0.95,1.16,-1.17,-1.70,-2.46,-0.22,-0.21,-0.21
124.79,0.90,1.16,0.90,1.16,-1.16,-1.67,-2.44,-0.26,-0.26,-0.26
126.03,0.86,1.17,0.86,1.17,-1.17,-1.63,-2.42,-0.31,-0.31,-0.31
127.29,0.81,1.17,0.81,1.18,-1.18,-1.60,-2.40,-0.37,-0.37,-0.36
128.57,0.78,1.20,0.78,1.20,-1.20,-1.56,-2.38,-0.42,-0.42,-0.42
129.85,0.74,1.21,0.75,1.22,-1.22,-1.54,-2.35,-0.48,-0.47,-0.47
131.15,0.74,1.26,0.73,1.25,-1.24,-1.51,-2.32,-0.50,-0.52,-0.52
132.46,0.70,1.27,0.71,1.28,-1.27,-1.48,-2.29,-0.57,-0.56,-0.57
133.79,0.70,1.31,0.70,1.31,-1.31,-1.46,-2.25,-0.61,-0.61,-0.61
135.12,0.69,1.35,0.68,1.33,-1.34,-1.44,-2.21,-0.65,-0.66,-0.66
136.48,0.65,1.35,0.66,1.37,-1.37,-1.42,-2.17,-0.72,-0.71,-0.70
137.84,0.65,1.40,0.65,1.41,-1.41,-1.41,-2.13,-0.76,-0.75,-0.75
139.22,0.65,1.45,0.64,1.44,-1.44,-1.39,-2.09,-0.79,-0.79,-0.80
140.61,0.65,1.49,0.64,1.47,-1.47,-1.38,-2.04,-0.82,-0.83,-0.84
142.02,0.61,1.48,0.63,1.50,-1.50,-1.37,-1.99,-0.89,-0.87,-0.87
143.44,0.61,1.52,0.61,1.52,-1.52,-1.36,-1.94,-0.91,-0.91,-0.91
144.87,0.61,1.56,0.59,1.54,-1.54,-1.36,-1.89,-0.93,-0.95,-0.95
146.32,0.56,1.55,0.58,1.56,-1.56,-1.36,-1.84,-1.00,-0.99,-0.99
147.78,0.56,1.58,0.56,1.58,-1.58,-1.35,-1.78,-1.02,-1.02,-1.02
149.26,0.53,1.59,0.53,1.59,-1.59,-1.36,-1.73,-1.06,-1.06,-1.06
150.75,0.51,1.61,0.51,1.60,-1.60,-1.36,-1.68,-1.09,-1.10,-1.10
152.26,0.47,1.61,0.47,1.61,-1.61,-1.36,-1.62,-1.14,-1.14,-1.14
153.78,0.43,1.61,0.44,1.62,-1.61,-1.37,-1.57,-1.18,-1.18,-1.18
155.32,0.40,1.62,0.39,1.61,-1.61,-1.38,-1.51,-1.22,-1.22,-1.22
156.88,0.35,1.61,0.35,1.61,-1.61,-1.39,-1.46,-1.26,-1.26,-1.26
158.44,0.30,1.60,0.31,1.61,-1.60,-1.40,-1.40,-1.30,-1.30,-1.30
160.03,0.26,1.60,0.25,1.59,-1.59,-1.40,-1.35,-1.33,-1.34,-1.34
161.63,0.20,1.58,0.20,1.58,-1.58,-1.41,-1.29,-1.38,-1.38,-1.38
163.24,0.14,1.56,0.14,1.56,-1.56,-1.42,-1.24,-1.42,-1.42,-1.42
164.88,0.08,1.53,0.08,1.54,-1.54,-1.42,-1.18,-1.46,-1.46,-1.45
166.53,0.02,1.51,0.02,1.51,-1.52,-1.43,-1.13,-1.50,-1.49,-1.49
168.19,-0.03,1.50,-0.04,1.49,-1.49,-1.42,-1.08,-1.52,-1.53,-1.53
169.87,-0.11,1.46,-0.10,1.47,-1.46,-1.42,-1.03,-1.58,-1.57,-1.57
171.57,-0.17,1.44,-0.17,1.44,-1.44,-1.41,-0.97,-1.61,-1.60,-1.61
173.29,-0.23,1.41,-0.24,1.41,-1.41,-1.40,-0.92,-1.64,-1.65,-1.64
175.02,-0.30,1.38,-0.30,1.38,-1.38,-1.38,-0.87,-1.68,-1.68,-1.68
176.77,-0.38,1.34,-0.37,1.35,-1.35,-1.35,-0.82,-1.73,-1.72,-1.72
178.54,-0.43,1.33,-0.44,1.32,-1.32,-1.32,-0.77,-1.75,-1.76,-1.76
180.32,-0.51,1.29,-0.51,1.29,-1.29,-1.29,-0.73,-1.80,-1.80,-1.80
182.13,-0.59,1.24,-0.58,1.25,-1.25,-1.25,-0.68,-1.84,-1.84,-1.83
183.95,-0.65,1.22,-0.65,1.22,-1.22,-1.21,-0.63,-1.87,-1.87,-1.87
185.79,-0.71,1.19,-0.71,1.19,-1.19,-1.17,-0.58,-1.90,-1.90,-1.90
187.65,-0.78,1.16,-0.78,1.16,-1.15,-1.12,-0.54,-1.93,-1.93,-1.94
189.52,-0.85,1.12,-0.85,1.12,-1.12,-1.07,-0.49,-1.97,-1.97,-1.97
191.42,-0.93,1.07,-0.92,1.08,-1.08,-1.02,-0.45,-2.01,-2.00,-2.00
193.33,-0.99,1.04,-0.99,1.04,-1.04,-0.97,-0.40,-2.03,-2.03,-2.03
195.27,-1.06,1.00,-1.06,1.00,-1.00,-0.92,-0.36,-2.06,-2.06,-2.06
197.22,-1.14,0.95,-1.14,0.96,-0.95,-0.86,-0.32,-2.09,-2.09,-2.09
199.19,-1.21,0.91,-1.21,0.90,-0.90,-0.81,-0.28,-2.11,-2.11,-2.12
201.18,-1.29,0.85,-1.29,0.85,-0.85,-0.76,-0.23,-2.14,-2.14,-2.14
203.19,-1.37,0.79,-1.37,0.79,-0.79,-0.71,-0.19,-2.16,-2.16,-2.16
205.23,-1.45,0.73,-1.44,0.73,-0.73,-0.66,-0.15,-2.18,-2.18,-2.18
207.28,-1.51,0.68,-1.52,0.67,-0.67,-0.61,-0.11,-2.18,-2.20,-2.19
209.35,-1.60,0.61,-1.60,0.61,-0.61,-0.57,-0.08,-2.21,-2.21,-2.21
211.44,-1.68,0.55,-1.67,0.55,-0.55,-0.52,-0.04,-2.23,-2.23,-2.23
213.56,-1.75,0.49,-1.75,0.49,-0.49,-0.47,-0.00,-2.24,-2.24,-2.24
215.69,-1.81,0.43,-1.82,0.43,-0.43,-0.43,0.03,-2.24,-2.25,-2.24
217.85,-1.89,0.36,-1.89,0.36,-0.37,-0.39,0.07,-2.26,-2.26,-2.25
220.03,-1.96,0.30,-1.95,0.30,-0.31,-0.34,0.10,-2.27,-2.26,-2.26
222.23,-2.02,0.25,-2.02,0.25,-0.24,-0.30,0.13,-2.26,-2.26,-2.27
224.45,-2.08,0.19,-2.09,0.19,-0.18,-0.26,0.16,-2.26,-2.26,-2.27
226.70,-2.15,0.12,-2.15,0.12,-0.11,-0.22,0.19,-2.26,-2.26,-2.27
228.96,-2.23,0.04,-2.22,0.05,-0.04,-0.18,0.22,-2.27,-2.26,-2.27
231.25,-2.29,-0.03,-2.29,-0.03,0.04,-0.14,0.25,-2.25,-2.26,-2.26
233.57,-2.36,-0.10,-2.37,-0.11,0.11,-0.10,0.27,-2.25,-2.26,-2.26
235.90,-2.44,-0.18,-2.43,-0.18,0.18,-0.07,0.29,-2.26,-2.25,-2.26
238.26,-2.50,-0.25,-2.50,-0.25,0.25,-0.03,0.32,-2.25,-2.25,-2.25
240.64,-2.55,-0.31,-2.55,-0.31,0.30,0.01,0.33,-2.25,-2.25,-2.24
243.05,-2.60,-0.37,-2.59,-0.36,0.35,0.05,0.35,-2.25,-2.25,-2.23
245.48,-2.61,-0.39,-2.62,-0.40,0.38,0.08,0.37,-2.23,-2.24,-2.22
247.93,-2.63,-0.42,-2.62,-0.41,0.40,0.12,0.38,-2.23,-2.23,-2.21
250.41,-2.61,-0.41,-2.61,-0.41,0.40,0.16,0.40,-2.21,-2.21,-2.20
252.92,-2.58,-0.40,-2.58,-0.40,0.40,0.19,0.41,-2.18,-2.18,-2.18
255.45,-2.55,-0.39,-2.55,-0.38,0.39,0.23,0.42,-2.16,-2.16,-2.16
258.00,-2.51,-0.36,-2.52,-0.37,0.38,0.26,0.42,-2.13,-2.14,-2.15
260.58,-2.49,-0.36,-2.49,-0.36,0.37,0.30,0.43,-2.12,-2.12,-2.13
263.19,-2.47,-0.36,-2.46,-0.35,0.36,0.33,0.43,-2.11,-2.10,-2.11
265.82,-2.42,-0.33,-2.44,-0.35,0.35,0.37,0.43,-2.07,-2.09,-2.09
268.48,-2.42,-0.35,-2.42,-0.35,0.35,0.40,0.44,-2.07,-2.07,-2.07
271.16,-2.42,-0.37,-2.41,-0.36,0.36,0.44,0.43,-2.06,-2.05,-2.05
273.87,-2.40,-0.37,-2.40,-0.37,0.37,0.47,0.43,-2.03,-2.03,-2.03
276.61,-2.37,-0.36,-2.38,-0.37,0.38,0.50,0.43,-1.99,-2.00,-2.01
279.38,-2.37,-0.38,-2.37,-0.38,0.39,0.53,0.42,-1.98,-1.98,-1.99
282.17,-2.37,-0.40,-2.37,-0.40,0.40,0.55,0.42,-1.97,-1.97,-1.97
284.99,-2.37,-0.42,-2.37,-0.42,0.41,0.58,0.41,-1.96,-1.96,-1.95
287.84,-2.37,-0.44,-2.36,-0.43,0.42,0.60,0.41,-1.95,-1.94,-1.93
290.72,-2.33,-0.42,-2.34,-0.43,0.42,0.62,0.40,-1.91,-1.92,-1.91
293.63,-2.33,-0.44,-2.32,-0.43,0.42,0.64,0.39,-1.91,-1.90,-1.89
296.57,-2.29,-0.42,-2.30,-0.43,0.43,0.66,0.38,-1.86,-1.87,-1.87
299.53,-2.28,-0.43,-2.27,-0.42,0.43,0.67,0.37,-1.85,-1.85,-1.85
302.53,-2.25,-0.42,-2.25,-0.42,0.43,0.68,0.36,-1.82,-1.82,-1.83
305.55,-2.23,-0.43,-2.23,-0.43,0.44,0.69,0.35,-1.79,-1.80,-1.80
308.61,-2.23,-0.45,-2.22,-0.45,0.45,0.69,0.34,-1.78,-1.77,-1.78
311.69,-2.21,-0.46,-2.22,-0.47,0.47,0.69,0.33,-1.74,-1.75,-1.75
314.81,-2.23,-0.51,-2.22,-0.50,0.51,0.69,0.32,-1.72,-1.72,-1.72
317.96,-2.23,-0.53,-2.23,-0.53,0.55,0.69,0.30,-1.68,-1.69,-1.70
321.14,-2.26,-0.58,-2.26,-0.58,0.60,0.68,0.29,-1.66,-1.67,-1.68
324.35,-2.30,-0.64,-2.30,-0.64,0.65,0.67,0.28,-1.65,-1.65,-1.66
327.59,-2.35,-0.71,-2.35,-0.71,0.71,0.66,0.27,-1.64,-1.64,-1.64
330.87,-2.40,-0.78,-2.39,-0.77,0.77,0.65,0.26,-1.63,-1.63,-1.62
334.18,-2.42,-0.82,-2.43,-0.83,0.82,0.64,0.25,-1.60,-1.61,-1.60
337.52,-2.47,-0.89,-2.46,-0.88,0.86,0.62,0.24,-1.61,-1.60,-1.58
340.90,-2.47,-0.91,-2.47,-0.91,0.90,0.61,0.23,-1.57,-1.58,-1.56
344.30,-2.47,-0.93,-2.47,-0.93,0.91,0.59,0.22,-1.56,-1.55,-1.54
347.75,-2.45,-0.93,-2.45,-0.93,0.92,0.57,0.21,-1.53,-1.53,-1.52
351.23,-2.41,-0.91,-2.41,-0.91,0.92,0.55,0.20,-1.49,-1.50,-1.50
354.74,-2.38,-0.90,-2.38,-0.89,0.90,0.54,0.19,-1.48,-1.48,-1.48
358.28,-2.33,-0.86,-2.34,-0.87,0.88,0.52,0.18,-1.45,-1.46,-1.47
361.87,-2.30,-0.85,-2.29,-0.84,0.85,0.50,0.17,-1.45,-1.44,-1.45
365.49,-2.24,-0.81,-2.24,-0.81,0.81,0.48,0.16,-1.43,-1.43,-1.43
369.14,-2.19,-0.77,-2.20,-0.78,0.78,0.46,0.15,-1.41,-1.42,-1.42
372.83,-2.15,-0.75,-2.14,-0.74,0.74,0.44,0.14,-1.41,-1.40,-1.40
376.56,-2.09,-0.70,-2.09,-0.70,0.70,0.42,0.13,-1.39,-1.39,-1.39
380.33,-2.03,-0.66,-2.04,-0.66,0.66,0.41,0.12,-1.37,-1.37,-1.37
384.13,-1.98,-0.62,-1.98,-0.62,0.63,0.39,0.11,-1.35,-1.36,-1.36
387.97,-1.94,-0.59,-1.93,-0.59,0.59,0.37,0.10,-1.35,-1.35,-1.35
391.85,-1.89,-0.55,-1.89,-0.55,0.55,0.36,0.09,-1.34,-1.34,-1.34
395.77,-1.84,-0.52,-1.84,-0.52,0.52,0.34,0.09,-1.32,-1.32,-1.32
399.73,-1.80,-0.49,-1.80,-0.48,0.49,0.33,0.08,-1.31,-1.31,-1.31
403.72,-1.75,-0.45,-1.75,-0.45,0.46,0.31,0.07,-1.29,-1.30,-1.30
407.76,-1.71,-0.42,-1.71,-0.42,0.43,0.30,0.06,-1.28,-1.29,-1.29
411.84,-1.68,-0.40,-1.67,-0.39,0.40,0.28,0.06,-1.28,-1.28,-1.28
415.96,-1.63,-0.36,-1.64,-0.37,0.37,0.27,0.05,-1.26,-1.27,-1.27
420.12,-1.60,-0.34,-1.60,-0.34,0.34,0.26,0.04,-1.26,-1.26,-1.26
424.32,-1.56,-0.31,-1.56,-0.31,0.31,0.25,0.03,-1.25,-1.25,-1.25
428.56,-1.51,-0.27,-1.51,-0.27,0.27,0.24,0.03,-1.24,-1.24,-1.24
432.85,-1.47,-0.24,-1.47,-0.24,0.24,0.23,0.02,-1.23,-1.23,-1.23
437.18,-1.42,-0.20,-1.42,-0.20,0.20,0.22,0.02,-1.22,-1.22,-1.22
441.55,-1.37,-0.17,-1.37,-0.16,0.16,0.21,0.01,-1.21,-1.21,-1.20
445.96,-1.31,-0.12,-1.31,-0.12,0.12,0.20,0.00,-1.19,-1.19,-1.19
450.42,-1.25,-0.07,-1.25,-0.07,0.08,0.19,-0.00,-1.17,-1.18,-1.18
454.93,-1.19,-0.03,-1.19,-0.03,0.03,0.18,-0.01,-1.16,-1.16,-1.16
459.48,-1.14,0.01,-1.14,0.01,-0.01,0.17,-0.01,-1.15,-1.15,-1.15
464.07,-1.09,0.05,-1.09,0.05,-0.04,0.16,-0.02,-1.13,-1.14,-1.14
468.71,-1.05,0.07,-1.04,0.08,-0.08,0.16,-0.02,-1.13,-1.12,-1.12
473.40,-0.99,0.12,-0.99,0.11,-0.11,0.15,-0.03,-1.10,-1.10,-1.11
478.13,-0.95,0.14,-0.95,0.14,-0.14,0.14,-0.03,-1.09,-1.09,-1.09
482.91,-0.91,0.17,-0.91,0.16,-0.16,0.14,-0.04,-1.07,-1.07,-1.08
487.74,-0.88,0.18,-0.88,0.18,-0.18,0.13,-0.04,-1.06,-1.06,-1.06
492.62,-0.85,0.19,-0.85,0.20,-0.20,0.12,-0.04,-1.05,-1.05,-1.04
497.55,-0.81,0.22,-0.81,0.21,-0.22,0.12,-0.05,-1.03,-1.03,-1.03
