frequency,raw,error,smoothed,error_smoothed,equalization,parametric_eq,fixed_band_eq,equalized_raw,equalized_smoothed,target
20.00,-5.88,-14.74,-5.88,-14.75,14.75,14.05,5.65,8.86,8.86,8.86
20.20,-5.79,-14.64,-5.80,-14.64,14.64,14.09,5.78,8.85,8.85,8.85
20.40,-5.70,-14.54,-5.71,-14.54,14.54,14.12,5.93,8.84,8.84,8.84
20.61,-5.62,-14.45,-5.62,-14.44,14.44,14.13,6.07,8.82,8.82,8.83
20.81,-5.53,-14.34,-5.53,-14.34,14.34,14.14,6.22,8.81,8.81,8.81
21.02,-5.44,-14.24,-5.44,-14.24,14.24,14.13,6.38,8.80,8.80,8.79
21.23,-5.35,-14.14,-5.35,-14.14,14.14,14.10,6.54,8.79,8.79,8.78
21.44,-5.27,-14.06,-5.26,-14.04,14.04,14.07,6.70,8.77,8.78,8.79
21.66,-5.18,-13.96,-5.18,-13.95,13.95,14.02,6.87,8.76,8.77,8.77
21.87,-5.09,-13.86,-5.09,-13.85,13.85,13.97,7.04,8.76,8.76,8.77
22.09,-5.00,-13.75,-5.00,-13.75,13.75,13.90,7.21,8.75,8.75,8.75
22.31,-4.91,-13.66,-4.91,-13.66,13.66,13.83,7.39,8.75,8.75,8.75
22.54,-4.82,-13.56,-4.82,-13.56,13.56,13.75,7.58,8.74,8.74,8.74
22.76,-4.73,-13.47,-4.74,-13.47,13.47,13.66,7.77,8.74,8.73,8.74
22.99,-4.64,-13.37,-4.65,-13.38,13.38,13.56,7.97,8.73,8.73,8.73
23.22,-4.56,-13.28,-4.56,-13.28,13.28,13.46,8.17,8.72,8.72,8.71
23.45,-4.47,-13.19,-4.47,-13.19,13.19,13.35,8.37,8.72,8.72,8.72
23.69,-4.38,-13.09,-4.39,-13.10,13.10,13.24,8.58,8.72,8.71,8.71
23.92,-4.30,-13.00,-4.30,-13.01,13.01,13.12,8.80,8.71,8.71,8.70
24.16,-4.21,-12.92,-4.21,-12.92,12.92,13.00,9.02,8.71,8.71,8.71
24.40,-4.13,-12.84,-4.13,-12.83,12.83,12.88,9.25,8.70,8.70,8.71
24.65,-4.04,-12.75,-4.04,-12.74,12.74,12.75,9.48,8.70,8.70,8.71
24.89,-3.96,-12.66,-3.95,-12.65,12.65,12.63,9.72,8.69,8.70,8.70
25.14,-3.87,-12.56,-3.87,-12.57,12.57,12.50,9.96,8.70,8.70,8.69
25.39,-3.78,-12.47,-3.79,-12.48,12.48,12.37,10.20,8.70,8.69,8.69
25.65,-3.70,-12.39,-3.70,-12.39,12.39,12.25,10.45,8.69,8.69,8.69
25.91,-3.61,-12.30,-3.62,-12.31,12.31,12.12,10.71,8.69,8.69,8.69
26.16,-3.53,-12.22,-3.53,-12.22,12.22,11.99,10.97,8.69,8.69,8.69
26.43,-3.45,-12.15,-3.45,-12.14,12.14,11.87,11.23,8.69,8.69,8.69
26.69,-3.36,-12.05,-3.37,-12.06,12.06,11.75,11.49,8.69,8.69,8.69
26.96,-3.28,-11.97,-3.28,-11.97,11.97,11.62,11.75,8.69,8.69,8.69
27.23,-3.20,-11.89,-3.20,-11.89,11.89,11.50,12.01,8.69,8.69,8.69
27.50,-3.12,-11.81,-3.12,-11.81,11.81,11.39,12.27,8.69,8.69,8.68
27.77,-3.04,-11.73,-3.04,-11.73,11.73,11.27,12.53,8.69,8.69,8.69
28.05,-2.96,-11.65,-2.96,-11.65,11.65,11.16,12.78,8.69,8.69,8.69
28.33,-2.88,-11.58,-2.88,-11.57,11.57,11.05,13.03,8.69,8.69,8.70
28.62,-2.80,-11.50,-2.80,-11.50,11.50,10.94,13.26,8.69,8.69,8.69
28.90,-2.73,-11.43,-2.73,-11.42,11.42,10.84,13.48,8.69,8.69,8.70
29.19,-2.65,-11.35,-2.65,-11.35,11.35,10.73,13.68,8.69,8.69,8.70
29.48,-2.57,-11.26,-2.58,-11.27,11.27,10.63,13.87,8.70,8.69,8.69
29.78,-2.50,-11.19,-2.51,-11.20,11.20,10.54,14.03,8.70,8.69,8.69
30.08,-2.43,-11.12,-2.44,-11.13,11.13,10.44,14.17,8.69,8.68,8.69
30.38,-2.37,-11.05,-2.38,-11.05,11.05,10.35,14.28,8.68,8.68,8.67
30.68,-2.31,-10.98,-2.31,-10.98,10.98,10.27,14.37,8.67,8.67,8.67
30.99,-2.25,-10.92,-2.25,-10.91,10.91,10.18,14.42,8.66,8.67,8.67
31.30,-2.19,-10.85,-2.18,-10.84,10.84,10.10,14.44,8.65,8.66,8.66
31.61,-2.13,-10.79,-2.12,-10.77,10.77,10.02,14.42,8.64,8.65,8.66
31.93,-2.06,-10.70,-2.06,-10.70,10.70,9.95,14.38,8.64,8.64,8.63
32.24,-2.00,-10.64,-2.00,-10.63,10.63,9.88,14.30,8.63,8.64,8.64
32.57,-1.94,-10.57,-1.94,-10.57,10.57,9.81,14.20,8.62,8.63,8.62
32.89,-1.87,-10.49,-1.88,-10.50,10.50,9.74,14.07,8.63,8.62,8.62
33.22,-1.81,-10.42,-1.82,-10.43,10.43,9.68,13.92,8.62,8.61,8.61
33.55,-1.76,-10.37,-1.76,-10.36,10.36,9.62,13.75,8.60,8.60,8.61
33.89,-1.70,-10.29,-1.70,-10.30,10.30,9.56,13.57,8.60,8.60,8.59
34.23,-1.64,-10.22,-1.64,-10.23,10.23,9.51,13.37,8.59,8.59,8.58
34.57,-1.59,-10.16,-1.59,-10.16,10.16,9.45,13.16,8.57,8.58,8.57
34.92,-1.53,-10.09,-1.53,-10.10,10.10,9.40,12.94,8.56,8.56,8.55
35.27,-1.48,-10.05,-1.48,-10.03,10.03,9.36,12.71,8.55,8.55,8.57
35.62,-1.43,-9.97,-1.43,-9.97,9.97,9.31,12.49,8.53,8.54,8.54
35.97,-1.37,-9.91,-1.38,-9.90,9.90,9.27,12.26,8.53,8.52,8.53
36.33,-1.32,-9.84,-1.32,-9.83,9.83,9.23,12.03,8.51,8.51,8.52
36.70,-1.27,-9.76,-1.27,-9.77,9.77,9.19,11.80,8.49,8.49,8.49
37.06,-1.22,-9.69,-1.22,-9.70,9.70,9.15,11.57,8.48,8.47,8.47
37.43,-1.17,-9.62,-1.17,-9.63,9.63,9.12,11.34,8.46,8.45,8.45
37.81,-1.12,-9.56,-1.12,-9.56,9.56,9.08,11.12,8.44,8.43,8.44
38.19,-1.08,-9.49,-1.08,-9.49,9.49,9.05,10.91,8.40,8.41,8.41
38.57,-1.03,-9.42,-1.03,-9.41,9.41,9.02,10.70,8.38,8.39,8.39
38.95,-0.99,-9.36,-0.98,-9.34,9.34,8.98,10.49,8.35,8.36,8.37
39.34,-0.93,-9.27,-0.93,-9.27,9.27,8.95,10.29,8.34,8.34,8.34
39.74,-0.88,-9.19,-0.88,-9.20,9.20,8.92,10.09,8.32,8.32,8.31
40.14,-0.83,-9.12,-0.84,-9.13,9.13,8.89,9.90,8.29,8.29,8.29
40.54,-0.79,-9.06,-0.79,-9.06,9.06,8.86,9.72,8.26,8.27,8.27
40.94,-0.74,-8.98,-0.74,-8.99,8.99,8.83,9.54,8.24,8.24,8.24
41.35,-0.69,-8.91,-0.70,-8.92,8.92,8.80,9.37,8.22,8.22,8.21
41.76,-0.65,-8.83,-0.66,-8.85,8.85,8.76,9.21,8.19,8.19,8.18
42.18,-0.60,-8.77,-0.61,-8.78,8.78,8.73,9.05,8.18,8.16,8.17
42.60,-0.57,-8.71,-0.57,-8.71,8.71,8.69,8.90,8.14,8.14,8.14
43.03,-0.53,-8.64,-0.53,-8.64,8.64,8.65,8.75,8.11,8.11,8.11
43.46,-0.49,-8.57,-0.49,-8.57,8.57,8.61,8.61,8.08,8.08,8.08
43.90,-0.45,-8.51,-0.45,-8.50,8.50,8.57,8.47,8.05,8.05,8.05
44.33,-0.41,-8.43,-0.41,-8.43,8.43,8.52,8.34,8.02,8.02,8.02
44.78,-0.37,-8.37,-0.37,-8.36,8.36,8.48,8.22,7.99,7.99,7.99
45.23,-0.33,-8.30,-0.33,-8.29,8.29,8.42,8.10,7.96,7.96,7.97
45.68,-0.30,-8.22,-0.29,-8.21,8.21,8.37,7.99,7.91,7.92,7.92
46.13,-0.26,-8.14,-0.25,-8.14,8.14,8.31,7.88,7.87,7.88,7.88
46.60,-0.22,-8.07,-0.22,-8.06,8.06,8.25,7.78,7.84,7.84,7.85
47.06,-0.18,-7.99,-0.18,-7.98,7.98,8.19,7.68,7.80,7.80,7.81
47.53,-0.14,-7.91,-0.14,-7.90,7.90,8.12,7.59,7.76,7.76,7.77
48.01,-0.10,-7.81,-0.11,-7.82,7.82,8.05,7.50,7.72,7.71,7.71
48.49,-0.07,-7.74,-0.07,-7.74,7.74,7.97,7.42,7.67,7.67,7.67
48.97,-0.03,-7.65,-0.04,-7.66,7.66,7.89,7.34,7.63,7.62,7.62
49.46,-0.00,-7.58,-0.01,-7.58,7.58,7.81,7.26,7.58,7.58,7.57
49.96,0.04,-7.47,0.02,-7.51,7.51,7.72,7.19,7.54,7.53,7.51
50.46,0.06,-7.42,0.05,-7.43,7.43,7.63,7.12,7.49,7.48,7.48
50.96,0.08,-7.35,0.08,-7.35,7.35,7.54,7.06,7.43,7.43,7.43
51.47,0.10,-7.29,0.11,-7.28,7.28,7.45,7.00,7.38,7.39,7.39
51.99,0.13,-7.20,0.13,-7.21,7.21,7.35,6.94,7.33,7.34,7.33
52.51,0.16,-7.14,0.16,-7.13,7.13,7.25,6.88,7.29,7.29,7.30
53.03,0.18,-7.08,0.18,-7.06,7.06,7.15,6.83,7.24,7.25,7.26
53.56,0.20,-7.01,0.21,-6.99,6.99,7.04,6.78,7.19,7.20,7.21
54.10,0.23,-6.92,0.23,-6.92,6.92,6.94,6.73,7.15,7.15,7.15
54.64,0.26,-6.85,0.26,-6.85,6.85,6.83,6.68,7.11,7.11,7.11
55.18,0.29,-6.77,0.28,-6.78,6.78,6.72,6.63,7.07,7.07,7.06
55.74,0.32,-6.69,0.31,-6.71,6.71,6.61,6.58,7.03,7.02,7.00
56.29,0.34,-6.63,0.34,-6.64,6.64,6.50,6.53,6.98,6.98,6.97
56.86,0.36,-6.57,0.37,-6.56,6.56,6.38,6.48,6.92,6.93,6.93
57.42,0.39,-6.48,0.39,-6.49,6.49,6.27,6.43,6.88,6.88,6.87
58.00,0.41,-6.42,0.42,-6.41,6.41,6.16,6.38,6.82,6.83,6.82
58.58,0.44,-6.35,0.44,-6.34,6.34,6.04,6.32,6.78,6.78,6.79
59.16,0.47,-6.28,0.47,-6.26,6.26,5.93,6.27,6.73,6.73,6.75
59.76,0.49,-6.21,0.49,-6.19,6.19,5.82,6.21,6.67,6.67,6.70
60.35,0.51,-6.13,0.51,-6.11,6.11,5.70,6.15,6.62,6.62,6.64
60.96,0.54,-6.04,0.53,-6.04,6.04,5.59,6.09,6.57,6.56,6.58
61.57,0.56,-5.94,0.54,-5.96,5.96,5.48,6.03,6.52,6.50,6.50
62.18,0.57,-5.87,0.56,-5.88,5.88,5.37,5.96,6.45,6.44,6.44
62.80,0.58,-5.79,0.57,-5.81,5.81,5.26,5.89,6.39,6.38,6.37
63.43,0.59,-5.72,0.59,-5.73,5.73,5.15,5.81,6.32,6.32,6.30
64.07,0.60,-5.65,0.60,-5.66,5.66,5.04,5.74,6.25,6.26,6.25
64.71,0.61,-5.58,0.61,-5.58,5.58,4.94,5.66,6.19,6.19,6.19
65.35,0.62,-5.51,0.62,-5.51,5.51,4.83,5.57,6.12,6.13,6.13
66.01,0.63,-5.44,0.63,-5.43,5.43,4.73,5.49,6.06,6.07,6.06
66.67,0.64,-5.37,0.64,-5.36,5.36,4.62,5.40,6.00,6.00,6.01
67.33,0.66,-5.28,0.65,-5.28,5.28,4.52,5.31,5.94,5.94,5.94
68.01,0.67,-5.21,0.67,-5.21,5.21,4.42,5.21,5.88,5.87,5.88
68.69,0.68,-5.13,0.68,-5.13,5.13,4.33,5.12,5.81,5.81,5.81
69.37,0.70,-5.06,0.70,-5.05,5.05,4.23,5.02,5.75,5.74,5.75
70.07,0.71,-4.98,0.71,-4.97,4.97,4.13,4.92,5.67,5.68,5.68
70.77,0.73,-4.88,0.73,-4.88,4.88,4.04,4.82,5.61,5.61,5.61
71.48,0.74,-4.81,0.75,-4.79,4.79,3.95,4.72,5.53,5.54,5.55
72.19,0.76,-4.72,0.77,-4.71,4.71,3.86,4.62,5.47,5.48,5.48
72.91,0.79,-4.61,0.79,-4.62,4.62,3.77,4.52,5.41,5.41,5.40
73.64,0.81,-4.53,0.81,-4.53,4.53,3.68,4.41,5.34,5.34,5.34
74.38,0.84,-4.43,0.84,-4.44,4.44,3.60,4.31,5.28,5.28,5.27
75.12,0.86,-4.35,0.86,-4.35,4.35,3.51,4.21,5.21,5.21,5.21
75.87,0.89,-4.26,0.89,-4.26,4.26,3.43,4.11,5.15,5.15,5.15
76.63,0.91,-4.17,0.91,-4.18,4.18,3.35,4.01,5.09,5.09,5.08
77.40,0.93,-4.10,0.93,-4.10,4.10,3.27,3.91,5.02,5.02,5.03
78.17,0.95,-4.00,0.94,-4.02,4.02,3.19,3.81,4.97,4.96,4.95
78.95,0.97,-3.94,0.96,-3.94,3.94,3.12,3.72,4.91,4.90,4.91
79.74,0.98,-3.86,0.97,-3.87,3.87,3.04,3.62,4.85,4.84,4.84
80.54,1.00,-3.78,0.98,-3.80,3.80,2.97,3.53,4.79,4.78,4.78
81.35,1.00,-3.72,0.99,-3.73,3.73,2.90,3.43,4.73,4.72,4.71
82.16,1.01,-3.66,0.99,-3.66,3.66,2.83,3.34,4.67,4.65,4.66
82.98,1.00,-3.59,0.99,-3.60,3.60,2.76,3.25,4.60,4.59,4.59
83.81,0.99,-3.54,0.99,-3.53,3.53,2.69,3.16,4.52,4.53,4.53
84.65,0.98,-3.48,0.99,-3.47,3.47,2.63,3.08,4.45,4.46,4.46
85.50,0.98,-3.42,0.99,-3.41,3.41,2.56,2.99,4.39,4.40,4.39
86.35,0.98,-3.35,0.99,-3.34,3.34,2.50,2.91,4.32,4.33,4.33
87.22,0.98,-3.28,0.99,-3.28,3.28,2.43,2.83,4.26,4.26,4.26
88.09,0.98,-3.22,0.98,-3.21,3.21,2.37,2.75,4.19,4.20,4.20
88.97,0.98,-3.15,0.98,-3.15,3.15,2.31,2.67,4.13,4.13,4.13
89.86,0.98,-3.08,0.98,-3.08,3.08,2.25,2.60,4.06,4.06,4.06
90.76,0.98,-3.01,0.98,-3.01,3.01,2.20,2.53,3.99,3.99,3.99
91.66,0.98,-2.93,0.98,-2.94,2.94,2.14,2.45,3.92,3.92,3.91
92.58,0.98,-2.87,0.98,-2.87,2.87,2.08,2.38,3.85,3.84,3.85
93.51,0.98,-2.80,0.98,-2.79,2.79,2.03,2.31,3.77,3.77,3.78
94.44,0.98,-2.73,0.98,-2.72,2.72,1.97,2.25,3.70,3.70,3.71
95.39,0.98,-2.65,0.98,-2.65,2.65,1.92,2.18,3.62,3.62,3.62
96.34,0.98,-2.57,0.98,-2.57,2.57,1.87,2.12,3.55,3.55,3.55
97.30,0.98,-2.50,0.98,-2.50,2.50,1.82,2.06,3.48,3.48,3.48
98.28,0.98,-2.42,0.98,-2.42,2.42,1.77,1.99,3.40,3.40,3.39
99.26,0.98,-2.34,0.98,-2.35,2.35,1.72,1.93,3.33,3.33,3.32
100.25,0.98,-2.27,0.98,-2.28,2.28,1.67,1.88,3.26,3.26,3.25
101.25,0.98,-2.20,0.98,-2.21,2.21,1.62,1.82,3.19,3.19,3.18
102.27,0.98,-2.14,0.98,-2.14,2.14,1.58,1.76,3.11,3.11,3.11
103.29,0.98,-2.06,0.98,-2.07,2.07,1.53,1.71,3.04,3.04,3.04
104.32,0.98,-2.00,0.98,-2.00,2.00,1.48,1.66,2.98,2.98,2.97
105.37,0.98,-1.93,0.98,-1.93,1.93,1.44,1.60,2.91,2.91,2.91
106.42,0.98,-1.86,0.98,-1.86,1.86,1.40,1.55,2.84,2.84,2.84
107.48,0.98,-1.79,0.98,-1.79,1.79,1.35,1.50,2.77,2.77,2.77
108.56,0.98,-1.72,0.98,-1.72,1.72,1.31,1.45,2.70,2.70,2.70
109.64,0.98,-1.66,0.98,-1.65,1.65,1.27,1.41,2.63,2.63,2.64
110.74,0.98,-1.58,0.98,-1.58,1.58,1.22,1.36,2.56,2.56,2.56
111.85,0.98,-1.51,0.98,-1.51,1.51,1.18,1.31,2.49,2.49,2.49
112.97,0.98,-1.44,0.98,-1.44,1.44,1.14,1.27,2.42,2.41,2.42
114.10,0.98,-1.37,0.98,-1.37,1.37,1.10,1.22,2.34,2.34,2.35
115.24,0.98,-1.29,0.98,-1.29,1.29,1.06,1.18,2.27,2.27,2.27
116.39,0.98,-1.21,0.98,-1.22,1.22,1.02,1.13,2.20,2.20,2.19
117.55,0.98,-1.14,0.98,-1.15,1.15,0.98,1.09,2.13,2.13,2.12
118.73,0.98,-1.07,0.99,-1.08,1.08,0.94,1.05,2.05,2.06,2.05
119.92,0.98,-1.01,0.99,-1.00,1.00,0.91,1.01,1.98,1.99,1.99
121.12,0.98,-0.95,0.99,-0.93,0.93,0.87,0.97,1.91,1.92,1.93
122.33,0.98,-0.88,0.99,-0.86,0.86,0.83,0.92,1.84,1.85,1.85
123.55,0.99,-0.81,0.99,-0.79,0.79,0.79,0.88,1.78,1.79,1.80
124.79,1.00,-0.73,0.99,-0.73,0.73,0.75,0.84,1.73,1.72,1.73
126.03,1.00,-0.66,0.99,-0.66,0.66,0.72,0.81,1.66,1.65,1.66
127.29,1.00,-0.59,0.98,-0.60,0.60,0.68,0.77,1.60,1.58,1.59
128.57,0.99,-0.53,0.97,-0.55,0.55,0.64,0.73,1.54,1.52,1.52
129.85,0.97,-0.48,0.95,-0.49,0.49,0.61,0.69,1.46,1.45,1.45
131.15,0.95,-0.43,0.94,-0.45,0.45,0.57,0.65,1.39,1.38,1.38
132.46,0.93,-0.38,0.91,-0.40,0.40,0.53,0.61,1.33,1.31,1.31
133.79,0.90,-0.34,0.89,-0.36,0.36,0.50,0.57,1.26,1.25,1.24
135.12,0.86,-0.32,0.86,-0.32,0.32,0.46,0.54,1.18,1.18,1.18
136.48,0.84,-0.28,0.83,-0.29,0.29,0.42,0.50,1.12,1.12,1.12
137.84,0.80,-0.25,0.80,-0.25,0.25,0.39,0.46,1.05,1.05,1.05
139.22,0.77,-0.21,0.77,-0.22,0.22,0.35,0.42,0.99,0.99,0.98
140.61,0.74,-0.19,0.74,-0.19,0.19,0.31,0.39,0.93,0.93,0.93
142.02,0.70,-0.16,0.71,-0.15,0.15,0.28,0.35,0.85,0.87,0.86
143.44,0.68,-0.13,0.69,-0.12,0.12,0.24,0.31,0.79,0.81,0.81
144.87,0.65,-0.11,0.68,-0.08,0.08,0.20,0.27,0.72,0.75,0.75
146.32,0.64,-0.05,0.66,-0.03,0.03,0.17,0.23,0.67,0.70,0.69
147.78,0.63,-0.01,0.65,0.01,-0.01,0.13,0.20,0.62,0.64,0.64
149.26,0.63,0.05,0.64,0.06,-0.06,0.09,0.16,0.57,0.58,0.58
150.75,0.64,0.11,0.64,0.11,-0.11,0.05,0.12,0.53,0.53,0.52
152.26,0.65,0.17,0.64,0.16,-0.16,0.02,0.08,0.48,0.47,0.48
153.78,0.66,0.24,0.64,0.22,-0.22,-0.02,0.04,0.44,0.42,0.42
155.32,0.66,0.29,0.64,0.28,-0.28,-0.06,0.00,0.38,0.37,0.37
156.88,0.66,0.34,0.65,0.34,-0.34,-0.10,-0.04,0.32,0.31,0.32
158.44,0.66,0.40,0.66,0.40,-0.40,-0.14,-0.08,0.26,0.25,0.25
160.03,0.66,0.45,0.66,0.47,-0.47,-0.18,-0.12,0.19,0.20,0.20
161.63,0.66,0.51,0.67,0.53,-0.53,-0.22,-0.16,0.13,0.14,0.15
163.24,0.66,0.57,0.67,0.58,-0.58,-0.26,-0.20,0.07,0.09,0.09
164.88,0.67,0.64,0.67,0.64,-0.64,-0.30,-0.24,0.03,0.03,0.03
166.53,0.67,0.70,0.67,0.70,-0.70,-0.34,-0.28,-0.03,-0.03,-0.03
168.19,0.68,0.76,0.66,0.75,-0.75,-0.38,-0.33,-0.07,-0.08,-0.08
169.87,0.67,0.81,0.65,0.79,-0.79,-0.42,-0.37,-0.13,-0.14,-0.14
171.57,0.66,0.86,0.64,0.84,-0.84,-0.47,-0.41,-0.18,-0.20,-0.20
173.29,0.65,0.90,0.63,0.88,-0.88,-0.51,-0.46,-0.23,-0.25,-0.25
175.02,0.62,0.93,0.61,0.92,-0.92,-0.55,-0.50,-0.30,-0.31,-0.31
176.77,0.59,0.95,0.58,0.95,-0.95,-0.60,-0.55,-0.36,-0.37,-0.37
178.54,0.57,0.99,0.56,0.98,-0.98,-0.64,-0.59,-0.41,-0.42,-0.42
180.32,0.54,1.03,0.53,1.01,-1.01,-0.69,-0.64,-0.47,-0.48,-0.49
182.13,0.51,1.04,0.50,1.03,-1.03,-0.73,-0.69,-0.52,-0.53,-0.53
183.95,0.46,1.04,0.47,1.06,-1.06,-0.78,-0.73,-0.60,-0.59,-0.58
185.79,0.43,1.07,0.44,1.08,-1.08,-0.82,-0.78,-0.65,-0.64,-0.64
187.65,0.40,1.09,0.41,1.10,-1.10,-0.87,-0.83,-0.71,-0.70,-0.70
189.52,0.37,1.11,0.39,1.13,-1.13,-0.92,-0.88,-0.76,-0.75,-0.74
191.42,0.35,1.14,0.36,1.16,-1.16,-0.96,-0.93,-0.81,-0.80,-0.79
193.33,0.33,1.17,0.35,1.19,-1.19,-1.01,-0.98,-0.86,-0.85,-0.84
195.27,0.32,1.21,0.33,1.23,-1.23,-1.06,-1.03,-0.91,-0.89,-0.89
197.22,0.31,1.26,0.33,1.26,-1.26,-1.11,-1.08,-0.95,-0.94,-0.95
199.19,0.31,1.29,0.32,1.30,-1.30,-1.15,-1.13,-0.99,-0.98,-0.98
201.18,0.32,1.35,0.32,1.34,-1.34,-1.20,-1.18,-1.03,-1.02,-1.04
203.19,0.33,1.40,0.32,1.39,-1.39,-1.24,-1.23,-1.06,-1.06,-1.07
205.23,0.33,1.43,0.33,1.44,-1.44,-1.29,-1.28,-1.11,-1.11,-1.10
207.28,0.33,1.47,0.33,1.48,-1.48,-1.34,-1.33,-1.15,-1.14,-1.14
209.35,0.34,1.52,0.34,1.52,-1.52,-1.38,-1.38,-1.18,-1.18,-1.18
211.44,0.35,1.56,0.34,1.56,-1.56,-1.42,-1.43,-1.21,-1.22,-1.22
213.56,0.35,1.59,0.34,1.59,-1.59,-1.47,-1.48,-1.24,-1.25,-1.24
215.69,0.35,1.63,0.34,1.62,-1.62,-1.51,-1.53,-1.27,-1.28,-1.28
217.85,0.35,1.66,0.33,1.64,-1.64,-1.55,-1.57,-1.29,-1.32,-1.31
220.03,0.34,1.69,0.31,1.66,-1.66,-1.59,-1.62,-1.32,-1.35,-1.35
222.23,0.32,1.70,0.30,1.67,-1.67,-1.62,-1.66,-1.35,-1.38,-1.38
224.45,0.29,1.69,0.28,1.68,-1.68,-1.66,-1.70,-1.39,-1.40,-1.41
226.70,0.26,1.70,0.25,1.68,-1.68,-1.69,-1.74,-1.42,-1.43,-1.44
228.96,0.22,1.67,0.22,1.68,-1.68,-1.72,-1.78,-1.46,-1.46,-1.45
231.25,0.20,1.68,0.19,1.67,-1.67,-1.75,-1.81,-1.47,-1.48,-1.48
233.57,0.17,1.67,0.16,1.66,-1.66,-1.77,-1.84,-1.49,-1.50,-1.50
235.90,0.12,1.64,0.13,1.65,-1.65,-1.80,-1.87,-1.53,-1.52,-1.52
238.26,0.10,1.65,0.10,1.64,-1.64,-1.82,-1.90,-1.54,-1.54,-1.55
240.64,0.07,1.61,0.07,1.63,-1.63,-1.83,-1.92,-1.56,-1.55,-1.55
243.05,0.04,1.60,0.05,1.62,-1.62,-1.85,-1.94,-1.58,-1.56,-1.56
245.48,0.02,1.60,0.03,1.61,-1.61,-1.86,-1.95,-1.59,-1.58,-1.58
247.93,-0.01,1.59,0.02,1.60,-1.60,-1.87,-1.96,-1.62,-1.59,-1.60
250.41,-0.01,1.58,0.01,1.60,-1.60,-1.87,-1.97,-1.61,-1.60,-1.59
252.92,-0.02,1.58,0.00,1.60,-1.60,-1.87,-1.97,-1.63,-1.60,-1.60
255.45,-0.01,1.60,-0.00,1.61,-1.61,-1.87,-1.98,-1.62,-1.61,-1.61
258.00,-0.00,1.62,0.00,1.62,-1.62,-1.87,-1.97,-1.62,-1.62,-1.62
260.58,0.01,1.63,0.00,1.63,-1.63,-1.86,-1.97,-1.62,-1.62,-1.62
263.19,0.01,1.63,0.01,1.64,-1.64,-1.85,-1.96,-1.63,-1.63,-1.62
265.82,0.01,1.64,0.01,1.65,-1.65,-1.84,-1.94,-1.64,-1.64,-1.64
268.48,0.02,1.66,0.01,1.66,-1.66,-1.82,-1.93,-1.64,-1.64,-1.64
271.16,0.03,1.67,0.01,1.66,-1.66,-1.81,-1.91,-1.63,-1.65,-1.64
273.87,0.03,1.68,0.01,1.66,-1.66,-1.79,-1.89,-1.63,-1.65,-1.65
276.61,0.02,1.67,0.00,1.66,-1.66,-1.77,-1.86,-1.64,-1.66,-1.65
279.38,0.01,1.68,-0.01,1.65,-1.65,-1.74,-1.84,-1.64,-1.66,-1.67
282.17,-0.01,1.66,-0.03,1.63,-1.63,-1.72,-1.81,-1.64,-1.66,-1.67
284.99,-0.03,1.63,-0.05,1.61,-1.61,-1.69,-1.78,-1.64,-1.66,-1.66
287.84,-0.07,1.59,-0.08,1.59,-1.59,-1.66,-1.75,-1.66,-1.66,-1.66
290.72,-0.10,1.57,-0.11,1.56,-1.56,-1.63,-1.72,-1.66,-1.66,-1.67
293.63,-0.14,1.52,-0.14,1.52,-1.52,-1.60,-1.68,-1.67,-1.66,-1.66
296.57,-0.17,1.49,-0.17,1.49,-1.49,-1.57,-1.65,-1.66,-1.66,-1.66
299.53,-0.20,1.46,-0.20,1.46,-1.46,-1.54,-1.62,-1.66,-1.66,-1.66
302.53,-0.24,1.40,-0.23,1.42,-1.42,-1.51,-1.58,-1.66,-1.65,-1.64
305.55,-0.27,1.38,-0.26,1.39,-1.39,-1.48,-1.54,-1.66,-1.65,-1.65
308.61,-0.30,1.34,-0.28,1.36,-1.36,-1.45,-1.51,-1.67,-1.64,-1.64
311.69,-0.32,1.32,-0.30,1.34,-1.34,-1.41,-1.47,-1.66,-1.64,-1.64
314.81,-0.33,1.30,-0.31,1.32,-1.32,-1.38,-1.44,-1.65,-1.63,-1.63
317.96,-0.34,1.29,-0.32,1.30,-1.30,-1.35,-1.40,-1.65,-1.63,-1.63
321.14,-0.34,1.27,-0.33,1.29,-1.29,-1.32,-1.37,-1.63,-1.62,-1.62
324.35,-0.33,1.29,-0.33,1.28,-1.28,-1.29,-1.33,-1.61,-1.61,-1.62
327.59,-0.32,1.28,-0.34,1.27,-1.27,-1.26,-1.30,-1.59,-1.61,-1.60
330.87,-0.32,1.28,-0.34,1.27,-1.27,-1.22,-1.27,-1.59,-1.60,-1.60
334.18,-0.32,1.28,-0.33,1.26,-1.26,-1.19,-1.23,-1.58,-1.60,-1.60
337.52,-0.32,1.27,-0.33,1.26,-1.26,-1.16,-1.20,-1.58,-1.59,-1.59
340.90,-0.32,1.26,-0.33,1.25,-1.25,-1.13,-1.17,-1.58,-1.58,-1.58
344.30,-0.32,1.25,-0.33,1.25,-1.25,-1.11,-1.14,-1.57,-1.58,-1.57
347.75,-0.32,1.25,-0.32,1.25,-1.25,-1.08,-1.11,-1.57,-1.57,-1.57
351.23,-0.32,1.25,-0.32,1.24,-1.24,-1.05,-1.08,-1.56,-1.56,-1.57
354.74,-0.32,1.23,-0.32,1.24,-1.24,-1.02,-1.05,-1.56,-1.56,-1.55
358.28,-0.32,1.23,-0.32,1.23,-1.23,-1.00,-1.03,-1.55,-1.55,-1.55
361.87,-0.32,1.22,-0.31,1.23,-1.23,-0.97,-1.00,-1.55,-1.54,-1.55
365.49,-0.32,1.22,-0.31,1.23,-1.23,-0.95,-0.98,-1.55,-1.54,-1.54
369.14,-0.32,1.20,-0.31,1.22,-1.22,-0.92,-0.95,-1.54,-1.53,-1.52
372.83,-0.32,1.19,-0.30,1.22,-1.22,-0.90,-0.93,-1.54,-1.52,-1.52
376.56,-0.31,1.21,-0.30,1.21,-1.21,-0.88,-0.91,-1.52,-1.51,-1.52
380.33,-0.30,1.21,-0.30,1.20,-1.20,-0.86,-0.88,-1.50,-1.51,-1.51
384.13,-0.30,1.19,-0.31,1.19,-1.19,-0.84,-0.86,-1.49,-1.50,-1.50
387.97,-0.29,1.20,-0.31,1.18,-1.18,-0.82,-0.84,-1.47,-1.49,-1.49
391.85,-0.30,1.18,-0.32,1.16,-1.16,-0.80,-0.82,-1.46,-1.48,-1.48
395.77,-0.31,1.16,-0.33,1.14,-1.14,-0.78,-0.81,-1.45,-1.47,-1.47
399.73,-0.32,1.15,-0.35,1.11,-1.11,-0.76,-0.79,-1.44,-1.46,-1.47
403.72,-0.35,1.09,-0.37,1.08,-1.08,-0.74,-0.77,-1.44,-1.45,-1.44
407.76,-0.38,1.06,-0.39,1.05,-1.05,-0.73,-0.76,-1.43,-1.44,-1.44
411.84,-0.41,1.02,-0.42,1.02,-1.02,-0.71,-0.74,-1.43,-1.43,-1.43
415.96,-0.44,0.98,-0.45,0.98,-0.98,-0.69,-0.73,-1.42,-1.43,-1.42
420.12,-0.48,0.94,-0.48,0.94,-0.94,-0.68,-0.71,-1.42,-1.42,-1.42
424.32,-0.51,0.90,-0.51,0.90,-0.90,-0.66,-0.70,-1.41,-1.41,-1.41
428.56,-0.54,0.85,-0.54,0.86,-0.86,-0.65,-0.68,-1.40,-1.40,-1.39
432.85,-0.58,0.80,-0.57,0.83,-0.83,-0.64,-0.67,-1.41,-1.39,-1.39
437.18,-0.61,0.78,-0.59,0.79,-0.79,-0.62,-0.66,-1.41,-1.38,-1.39
441.55,-0.62,0.76,-0.61,0.77,-0.77,-0.61,-0.65,-1.39,-1.37,-1.38
445.96,-0.64,0.73,-0.63,0.74,-0.74,-0.60,-0.64,-1.38,-1.37,-1.37
450.42,-0.66,0.70,-0.64,0.72,-0.72,-0.59,-0.63,-1.38,-1.36,-1.36
454.93,-0.66,0.69,-0.65,0.70,-0.70,-0.58,-0.62,-1.36,-1.35,-1.35
459.48,-0.66,0.68,-0.65,0.69,-0.69,-0.57,-0.61,-1.35,-1.34,-1.35
464.07,-0.65,0.68,-0.66,0.68,-0.68,-0.56,-0.60,-1.33,-1.33,-1.33
468.71,-0.64,0.68,-0.66,0.67,-0.67,-0.55,-0.59,-1.31,-1.32,-1.32
473.40,-0.64,0.67,-0.66,0.66,-0.66,-0.54,-0.58,-1.30,-1.31,-1.31
478.13,-0.64,0.66,-0.65,0.65,-0.65,-0.53,-0.57,-1.29,-1.30,-1.30
482.91,-0.64,0.65,-0.65,0.64,-0.64,-0.52,-0.57,-1.29,-1.29,-1.29
487.74,-0.64,0.64,-0.65,0.64,-0.64,-0.51,-0.56,-1.28,-1.28,-1.28
