frequency,raw,error,smoothed,error_smoothed,equalization,parametric_eq,fixed_band_eq,equalized_raw,equalized_smoothed,target
20.00,-6.47,-12.70,-6.47,-12.70,12.70,12.15,4.81,6.23,6.23,6.23
20.20,-6.39,-12.61,-6.39,-12.61,12.61,12.08,4.93,6.22,6.22,6.22
20.40,-6.30,-12.52,-6.31,-12.52,12.52,12.02,5.06,6.21,6.21,6.21
20.61,-6.23,-12.43,-6.23,-12.42,12.43,11.95,5.19,6.20,6.20,6.20
20.81,-6.14,-12.33,-6.15,-12.33,12.33,11.89,5.32,6.19,6.19,6.18
21.02,-6.07,-12.24,-6.07,-12.24,12.24,11.82,5.46,6.18,6.18,6.17
21.23,-5.99,-12.15,-5.98,-12.15,12.15,11.75,5.60,6.17,6.17,6.16
21.44,-5.90,-12.08,-5.90,-12.07,12.06,11.69,5.75,6.16,6.16,6.17
21.66,-5.82,-11.97,-5.82,-11.98,11.97,11.62,5.89,6.15,6.15,6.15
21.87,-5.73,-11.89,-5.74,-11.88,11.88,11.56,6.05,6.14,6.14,6.15
22.09,-5.65,-11.79,-5.65,-11.79,11.79,11.49,6.20,6.13,6.13,6.13
22.31,-5.57,-11.70,-5.57,-11.70,11.70,11.42,6.37,6.12,6.13,6.12
22.54,-5.49,-11.60,-5.49,-11.60,11.61,11.36,6.53,6.12,6.12,6.11
22.76,-5.40,-11.52,-5.41,-11.51,11.52,11.29,6.70,6.11,6.11,6.11
22.99,-5.33,-11.43,-5.32,-11.43,11.43,11.22,6.87,6.10,6.11,6.10
23.22,-5.25,-11.34,-5.25,-11.35,11.34,11.16,7.06,6.10,6.10,6.09
23.45,-5.16,-11.27,-5.17,-11.26,11.26,11.09,7.24,6.10,6.09,6.10
23.69,-5.09,-11.18,-5.09,-11.18,11.18,11.02,7.43,6.09,6.09,6.09
23.92,-5.00,-11.09,-5.01,-11.10,11.09,10.96,7.62,6.09,6.09,6.08
24.16,-4.92,-11.02,-4.92,-11.01,11.01,10.89,7.82,6.08,6.08,6.09
24.40,-4.84,-10.94,-4.84,-10.93,10.93,10.82,8.02,6.08,6.08,6.09
24.65,-4.76,-10.84,-4.76,-10.84,10.84,10.76,8.22,6.09,6.09,6.08
24.89,-4.67,-10.76,-4.68,-10.75,10.76,10.69,8.43,6.09,6.08,6.08
25.14,-4.59,-10.67,-4.60,-10.67,10.68,10.62,8.65,6.08,6.08,6.07
25.39,-4.52,-10.60,-4.52,-10.59,10.60,10.56,8.86,6.07,6.08,6.07
25.65,-4.45,-10.52,-4.44,-10.52,10.52,10.49,9.08,6.07,6.07,6.07
25.91,-4.37,-10.44,-4.37,-10.44,10.44,10.42,9.30,6.07,6.07,6.07
26.16,-4.28,-10.37,-4.29,-10.36,10.36,10.35,9.53,6.07,6.07,6.08
26.43,-4.21,-10.28,-4.20,-10.28,10.28,10.29,9.75,6.07,6.07,6.07
26.69,-4.13,-10.20,-4.13,-10.20,10.20,10.22,9.98,6.08,6.07,6.07
26.96,-4.05,-10.12,-4.05,-10.12,10.12,10.15,10.21,6.08,6.07,6.07
27.23,-3.98,-10.05,-3.97,-10.05,10.05,10.09,10.43,6.07,6.07,6.07
27.50,-3.90,-9.97,-3.90,-9.97,9.97,10.02,10.66,6.07,6.07,6.07
27.77,-3.81,-9.90,-3.82,-9.89,9.90,9.95,10.87,6.08,6.08,6.08
28.05,-3.74,-9.82,-3.74,-9.82,9.82,9.88,11.09,6.08,6.08,6.07
28.33,-3.66,-9.75,-3.67,-9.75,9.75,9.82,11.29,6.09,6.08,6.08
28.62,-3.60,-9.68,-3.60,-9.68,9.68,9.75,11.48,6.08,6.08,6.08
28.90,-3.52,-9.62,-3.52,-9.61,9.60,9.68,11.66,6.08,6.08,6.09
29.19,-3.45,-9.54,-3.45,-9.54,9.53,9.61,11.84,6.09,6.08,6.09
29.48,-3.37,-9.46,-3.37,-9.46,9.46,9.55,11.98,6.08,6.08,6.08
29.78,-3.30,-9.38,-3.30,-9.38,9.38,9.48,12.12,6.08,6.08,6.08
30.08,-3.23,-9.31,-3.23,-9.30,9.30,9.41,12.23,6.08,6.08,6.08
30.38,-3.16,-9.22,-3.15,-9.22,9.23,9.34,12.32,6.07,6.08,6.06
30.68,-3.09,-9.15,-3.09,-9.15,9.15,9.27,12.38,6.07,6.07,6.06
30.99,-3.02,-9.08,-3.02,-9.08,9.08,9.21,12.42,6.06,6.06,6.06
31.30,-2.96,-9.02,-2.95,-9.01,9.01,9.14,12.43,6.05,6.06,6.06
31.61,-2.90,-8.95,-2.89,-8.94,8.94,9.07,12.42,6.04,6.05,6.05
31.93,-2.83,-8.86,-2.83,-8.87,8.87,9.00,12.38,6.05,6.04,6.03
32.24,-2.77,-8.82,-2.77,-8.80,8.81,8.93,12.32,6.03,6.04,6.04
32.57,-2.72,-8.74,-2.71,-8.74,8.74,8.86,12.22,6.03,6.03,6.02
32.89,-2.65,-8.68,-2.66,-8.68,8.68,8.80,12.12,6.03,6.02,6.02
33.22,-2.61,-8.62,-2.60,-8.62,8.62,8.73,11.98,6.02,6.02,6.01
33.55,-2.55,-8.57,-2.56,-8.56,8.56,8.66,11.83,6.01,6.01,6.01
33.89,-2.51,-8.51,-2.50,-8.50,8.50,8.59,11.66,6.00,6.00,6.00
34.23,-2.46,-8.44,-2.45,-8.44,8.44,8.52,11.49,5.99,5.99,5.98
34.57,-2.40,-8.38,-2.40,-8.38,8.38,8.45,11.30,5.99,5.98,5.98
34.92,-2.35,-8.31,-2.35,-8.32,8.32,8.38,11.10,5.97,5.97,5.96
35.27,-2.30,-8.28,-2.29,-8.26,8.26,8.31,10.89,5.96,5.97,5.98
35.62,-2.24,-8.19,-2.24,-8.20,8.19,8.24,10.68,5.96,5.96,5.95
35.97,-2.17,-8.13,-2.18,-8.13,8.12,8.17,10.46,5.95,5.94,5.95
36.33,-2.12,-8.06,-2.12,-8.05,8.05,8.10,10.24,5.93,5.93,5.93
36.70,-2.07,-7.98,-2.07,-7.98,7.98,8.03,10.03,5.92,5.91,5.91
37.06,-2.01,-7.91,-2.01,-7.91,7.91,7.96,9.81,5.89,5.89,5.89
37.43,-1.95,-7.83,-1.95,-7.83,7.83,7.89,9.59,5.88,5.88,5.87
37.81,-1.90,-7.76,-1.90,-7.75,7.75,7.82,9.37,5.86,5.86,5.86
38.19,-1.84,-7.67,-1.84,-7.67,7.67,7.75,9.16,5.84,5.84,5.83
38.57,-1.78,-7.59,-1.78,-7.60,7.60,7.68,8.95,5.82,5.82,5.81
38.95,-1.72,-7.53,-1.72,-7.52,7.52,7.60,8.74,5.79,5.80,5.80
39.34,-1.66,-7.44,-1.67,-7.44,7.44,7.53,8.54,5.77,5.77,5.77
39.74,-1.62,-7.36,-1.61,-7.36,7.36,7.46,8.34,5.74,5.74,5.74
40.14,-1.56,-7.28,-1.56,-7.28,7.28,7.39,8.15,5.72,5.72,5.72
40.54,-1.50,-7.20,-1.50,-7.20,7.20,7.31,7.96,5.70,5.70,5.70
40.94,-1.44,-7.11,-1.44,-7.11,7.12,7.24,7.77,5.68,5.68,5.67
41.35,-1.38,-7.04,-1.37,-7.03,7.04,7.17,7.59,5.66,5.66,5.66
41.76,-1.31,-6.95,-1.31,-6.95,6.95,7.09,7.41,5.64,5.64,5.63
42.18,-1.25,-6.88,-1.26,-6.87,6.87,7.02,7.24,5.62,5.62,5.62
42.60,-1.19,-6.79,-1.20,-6.79,6.79,6.94,7.07,5.59,5.59,5.59
43.03,-1.15,-6.72,-1.14,-6.71,6.71,6.87,6.91,5.56,5.57,5.57
43.46,-1.09,-6.62,-1.08,-6.62,6.62,6.79,6.76,5.54,5.54,5.53
43.90,-1.03,-6.54,-1.03,-6.54,6.54,6.72,6.60,5.51,5.51,5.51
44.33,-0.96,-6.45,-0.96,-6.45,6.45,6.64,6.46,5.49,5.49,5.48
44.78,-0.91,-6.37,-0.91,-6.37,6.37,6.56,6.31,5.46,5.46,5.46
45.23,-0.85,-6.29,-0.85,-6.28,6.28,6.49,6.17,5.43,5.43,5.44
45.68,-0.80,-6.19,-0.79,-6.19,6.19,6.41,6.04,5.39,5.39,5.39
46.13,-0.73,-6.10,-0.73,-6.10,6.10,6.33,5.91,5.36,5.36,5.36
46.60,-0.68,-6.00,-0.68,-6.00,6.01,6.25,5.78,5.33,5.33,5.32
47.06,-0.62,-5.91,-0.62,-5.91,5.92,6.17,5.66,5.30,5.29,5.29
47.53,-0.58,-5.83,-0.57,-5.82,5.82,6.09,5.54,5.25,5.25,5.25
48.01,-0.53,-5.73,-0.53,-5.73,5.73,6.01,5.42,5.21,5.20,5.20
48.49,-0.49,-5.65,-0.48,-5.64,5.64,5.93,5.31,5.15,5.16,5.16
48.97,-0.44,-5.55,-0.43,-5.55,5.55,5.85,5.21,5.11,5.11,5.11
49.46,-0.39,-5.47,-0.39,-5.46,5.46,5.77,5.10,5.07,5.07,5.08
49.96,-0.34,-5.36,-0.33,-5.37,5.37,5.69,5.00,5.03,5.03,5.02
50.46,-0.29,-5.28,-0.28,-5.28,5.28,5.60,4.90,5.00,5.00,4.99
50.96,-0.24,-5.19,-0.24,-5.19,5.19,5.52,4.81,4.96,4.95,4.95
51.47,-0.20,-5.11,-0.19,-5.10,5.11,5.44,4.71,4.91,4.91,4.91
51.99,-0.16,-5.02,-0.15,-5.02,5.02,5.35,4.62,4.86,4.87,4.86
52.51,-0.11,-4.94,-0.11,-4.94,4.93,5.27,4.54,4.83,4.83,4.83
53.03,-0.07,-4.87,-0.06,-4.86,4.85,5.18,4.45,4.78,4.79,4.80
53.56,-0.02,-4.77,-0.02,-4.77,4.77,5.10,4.37,4.75,4.75,4.75
54.10,0.02,-4.68,0.03,-4.68,4.68,5.01,4.29,4.71,4.71,4.70
54.64,0.06,-4.60,0.07,-4.59,4.61,4.92,4.21,4.67,4.67,4.66
55.18,0.10,-4.52,0.10,-4.52,4.53,4.84,4.13,4.63,4.63,4.62
55.74,0.13,-4.44,0.13,-4.45,4.45,4.75,4.05,4.59,4.59,4.57
56.29,0.16,-4.39,0.16,-4.38,4.38,4.66,3.98,4.55,4.55,4.55
56.86,0.18,-4.33,0.19,-4.32,4.32,4.57,3.90,4.50,4.51,4.51
57.42,0.21,-4.25,0.22,-4.25,4.25,4.48,3.83,4.47,4.47,4.46
58.00,0.24,-4.18,0.24,-4.18,4.19,4.39,3.76,4.43,4.43,4.42
58.58,0.27,-4.12,0.27,-4.12,4.12,4.30,3.68,4.39,4.39,4.39
59.16,0.30,-4.06,0.30,-4.05,4.04,4.21,3.61,4.35,4.35,4.36
59.76,0.33,-3.98,0.34,-3.98,3.96,4.12,3.54,4.30,4.30,4.31
60.35,0.36,-3.90,0.37,-3.89,3.88,4.03,3.47,4.25,4.25,4.26
60.96,0.40,-3.80,0.40,-3.80,3.80,3.94,3.40,4.20,4.20,4.20
61.57,0.43,-3.71,0.43,-3.71,3.72,3.84,3.33,4.15,4.15,4.14
62.18,0.46,-3.62,0.46,-3.62,3.63,3.75,3.25,4.10,4.10,4.08
62.80,0.48,-3.54,0.48,-3.54,3.55,3.66,3.18,4.04,4.04,4.02
63.43,0.50,-3.47,0.51,-3.47,3.47,3.56,3.11,3.97,3.97,3.97
64.07,0.52,-3.40,0.53,-3.39,3.39,3.47,3.04,3.91,3.92,3.92
64.71,0.55,-3.32,0.55,-3.32,3.31,3.38,2.96,3.87,3.86,3.87
65.35,0.57,-3.24,0.58,-3.24,3.24,3.28,2.89,3.81,3.82,3.81
66.01,0.60,-3.16,0.61,-3.16,3.16,3.19,2.81,3.77,3.77,3.76
66.67,0.63,-3.09,0.63,-3.08,3.09,3.10,2.74,3.72,3.72,3.72
67.33,0.65,-3.00,0.65,-3.00,3.01,3.00,2.66,3.66,3.66,3.65
68.01,0.67,-2.93,0.68,-2.93,2.92,2.91,2.59,3.60,3.60,3.60
68.69,0.70,-2.85,0.70,-2.85,2.84,2.81,2.51,3.55,3.54,3.55
69.37,0.73,-2.77,0.73,-2.76,2.75,2.72,2.43,3.49,3.49,3.50
70.07,0.76,-2.68,0.77,-2.67,2.67,2.62,2.36,3.43,3.43,3.44
70.77,0.80,-2.57,0.80,-2.58,2.58,2.53,2.28,3.38,3.38,3.37
71.48,0.83,-2.49,0.84,-2.48,2.49,2.43,2.21,3.32,3.32,3.32
72.19,0.86,-2.40,0.87,-2.39,2.40,2.34,2.13,3.27,3.27,3.26
72.91,0.89,-2.30,0.89,-2.31,2.31,2.25,2.05,3.21,3.21,3.19
73.64,0.91,-2.23,0.92,-2.22,2.23,2.15,1.98,3.14,3.15,3.14
74.38,0.94,-2.14,0.94,-2.14,2.14,2.06,1.90,3.09,3.09,3.08
75.12,0.96,-2.07,0.97,-2.07,2.06,1.97,1.82,3.03,3.03,3.03
75.87,0.99,-1.99,0.99,-1.98,1.98,1.87,1.75,2.97,2.97,2.98
76.63,1.02,-1.90,1.03,-1.90,1.89,1.78,1.67,2.92,2.92,2.92
77.40,1.06,-1.82,1.06,-1.81,1.81,1.69,1.60,2.87,2.87,2.88
78.17,1.10,-1.72,1.10,-1.72,1.72,1.60,1.52,2.83,2.83,2.82
78.95,1.14,-1.64,1.15,-1.64,1.64,1.51,1.45,2.78,2.78,2.78
79.74,1.18,-1.55,1.19,-1.54,1.55,1.41,1.37,2.73,2.73,2.73
80.54,1.22,-1.46,1.22,-1.46,1.46,1.32,1.30,2.69,2.69,2.68
81.35,1.25,-1.37,1.26,-1.38,1.38,1.23,1.22,2.63,2.64,2.62
82.16,1.28,-1.31,1.29,-1.30,1.30,1.15,1.15,2.58,2.59,2.59
82.98,1.31,-1.22,1.31,-1.22,1.22,1.06,1.08,2.54,2.53,2.53
83.81,1.33,-1.15,1.33,-1.15,1.15,0.97,1.00,2.48,2.48,2.48
84.65,1.34,-1.08,1.35,-1.07,1.07,0.88,0.93,2.42,2.42,2.42
85.50,1.36,-1.00,1.37,-1.00,1.00,0.80,0.86,2.37,2.37,2.36
86.35,1.38,-0.93,1.38,-0.93,0.93,0.71,0.79,2.32,2.32,2.31
87.22,1.39,-0.87,1.39,-0.86,0.87,0.63,0.72,2.26,2.26,2.26
88.09,1.40,-0.80,1.40,-0.80,0.80,0.54,0.65,2.21,2.21,2.20
88.97,1.40,-0.74,1.41,-0.74,0.74,0.46,0.58,2.15,2.15,2.14
89.86,1.41,-0.68,1.41,-0.68,0.68,0.38,0.50,2.09,2.09,2.09
90.76,1.41,-0.62,1.42,-0.61,0.61,0.30,0.43,2.03,2.03,2.03
91.66,1.42,-0.54,1.42,-0.55,0.54,0.22,0.36,1.97,1.97,1.96
92.58,1.43,-0.48,1.44,-0.48,0.47,0.14,0.29,1.90,1.91,1.91
93.51,1.45,-0.41,1.46,-0.40,0.39,0.06,0.22,1.84,1.85,1.86
94.44,1.48,-0.32,1.48,-0.32,0.30,-0.01,0.16,1.79,1.79,1.80
95.39,1.51,-0.22,1.51,-0.22,0.21,-0.09,0.09,1.73,1.73,1.73
96.34,1.54,-0.12,1.55,-0.12,0.12,-0.16,0.02,1.66,1.66,1.66
97.30,1.57,-0.03,1.58,-0.02,0.02,-0.24,-0.05,1.60,1.60,1.60
98.28,1.61,0.08,1.61,0.08,-0.07,-0.31,-0.12,1.54,1.54,1.53
99.26,1.64,0.17,1.65,0.17,-0.16,-0.38,-0.19,1.48,1.48,1.47
100.25,1.67,0.26,1.68,0.26,-0.25,-0.45,-0.26,1.42,1.42,1.41
101.25,1.70,0.34,1.70,0.34,-0.34,-0.52,-0.32,1.37,1.36,1.36
102.27,1.71,0.41,1.72,0.41,-0.42,-0.58,-0.39,1.30,1.30,1.30
103.29,1.72,0.48,1.73,0.49,-0.49,-0.65,-0.46,1.24,1.25,1.24
104.32,1.74,0.55,1.74,0.55,-0.55,-0.71,-0.53,1.20,1.19,1.19
105.37,1.75,0.62,1.75,0.62,-0.61,-0.78,-0.59,1.15,1.15,1.13
106.42,1.75,0.67,1.75,0.67,-0.66,-0.84,-0.66,1.10,1.09,1.08
107.48,1.74,0.72,1.74,0.72,-0.71,-0.90,-0.72,1.03,1.03,1.02
108.56,1.72,0.75,1.73,0.76,-0.76,-0.96,-0.79,0.96,0.96,0.97
109.64,1.71,0.80,1.72,0.81,-0.82,-1.02,-0.85,0.89,0.90,0.91
110.74,1.71,0.86,1.72,0.87,-0.88,-1.08,-0.91,0.83,0.84,0.85
111.85,1.73,0.94,1.73,0.93,-0.95,-1.13,-0.97,0.79,0.78,0.79
112.97,1.75,1.01,1.75,1.01,-1.02,-1.19,-1.03,0.73,0.73,0.74
114.10,1.77,1.09,1.78,1.10,-1.10,-1.24,-1.09,0.67,0.67,0.68
115.24,1.80,1.20,1.80,1.19,-1.19,-1.29,-1.15,0.61,0.61,0.60
116.39,1.82,1.28,1.83,1.29,-1.28,-1.35,-1.20,0.54,0.55,0.54
117.55,1.85,1.37,1.86,1.38,-1.37,-1.39,-1.26,0.48,0.49,0.48
118.73,1.89,1.47,1.90,1.47,-1.46,-1.44,-1.31,0.43,0.43,0.42
119.92,1.93,1.55,1.93,1.56,-1.55,-1.49,-1.36,0.38,0.38,0.38
121.12,1.97,1.64,1.97,1.64,-1.64,-1.54,-1.41,0.34,0.33,0.33
122.33,1.99,1.72,2.00,1.72,-1.72,-1.58,-1.46,0.27,0.27,0.27
123.55,2.01,1.79,2.02,1.80,-1.80,-1.63,-1.51,0.21,0.22,0.22
124.79,2.04,1.87,2.04,1.87,-1.87,-1.67,-1.55,0.17,0.17,0.17
126.03,2.06,1.95,2.06,1.95,-1.94,-1.72,-1.59,0.12,0.12,0.11
127.29,2.07,2.01,2.07,2.02,-2.01,-1.76,-1.63,0.07,0.06,0.06
128.57,2.07,2.08,2.08,2.08,-2.07,-1.80,-1.67,0.00,0.01,-0.01
129.85,2.07,2.13,2.07,2.13,-2.13,-1.84,-1.71,-0.05,-0.06,-0.06
131.15,2.06,2.18,2.06,2.18,-2.18,-1.88,-1.75,-0.12,-0.12,-0.12
132.46,2.05,2.22,2.06,2.23,-2.23,-1.92,-1.78,-0.18,-0.18,-0.17
133.79,2.05,2.28,2.05,2.28,-2.29,-1.96,-1.82,-0.23,-0.23,-0.23
135.12,2.05,2.33,2.05,2.33,-2.34,-2.00,-1.85,-0.28,-0.28,-0.28
136.48,2.05,2.38,2.05,2.38,-2.39,-2.03,-1.88,-0.33,-0.33,-0.33
137.84,2.05,2.43,2.05,2.43,-2.44,-2.07,-1.91,-0.38,-0.38,-0.38
139.22,2.05,2.49,2.05,2.49,-2.49,-2.11,-1.94,-0.43,-0.43,-0.44
140.61,2.05,2.53,2.05,2.54,-2.53,-2.14,-1.97,-0.48,-0.48,-0.48
142.02,2.05,2.59,2.05,2.59,-2.58,-2.18,-2.00,-0.53,-0.53,-0.54
143.44,2.05,2.63,2.05,2.63,-2.63,-2.21,-2.03,-0.58,-0.58,-0.58
144.87,2.05,2.67,2.05,2.68,-2.68,-2.25,-2.06,-0.62,-0.62,-0.62
146.32,2.05,2.72,2.05,2.72,-2.72,-2.28,-2.10,-0.67,-0.67,-0.67
147.78,2.05,2.76,2.05,2.76,-2.77,-2.32,-2.13,-0.71,-0.71,-0.71
149.26,2.05,2.81,2.06,2.81,-2.81,-2.36,-2.16,-0.76,-0.76,-0.76
150.75,2.05,2.85,2.06,2.85,-2.86,-2.39,-2.19,-0.80,-0.80,-0.80
152.26,2.06,2.90,2.06,2.90,-2.90,-2.43,-2.23,-0.84,-0.84,-0.84
153.78,2.06,2.94,2.07,2.94,-2.95,-2.46,-2.26,-0.89,-0.88,-0.88
155.32,2.07,2.99,2.07,3.00,-2.99,-2.50,-2.30,-0.92,-0.92,-0.92
156.88,2.07,3.04,2.08,3.04,-3.04,-2.54,-2.34,-0.96,-0.96,-0.97
158.44,2.07,3.09,2.07,3.08,-3.07,-2.57,-2.38,-1.00,-1.01,-1.02
160.03,2.05,3.11,2.06,3.12,-3.11,-2.61,-2.42,-1.05,-1.05,-1.06
161.63,2.03,3.13,2.04,3.14,-3.14,-2.65,-2.46,-1.10,-1.10,-1.10
163.24,2.02,3.17,2.02,3.16,-3.16,-2.69,-2.50,-1.14,-1.15,-1.15
164.88,1.98,3.18,1.99,3.19,-3.19,-2.73,-2.55,-1.20,-1.19,-1.20
166.53,1.96,3.21,1.96,3.20,-3.20,-2.77,-2.60,-1.24,-1.24,-1.25
168.19,1.93,3.21,1.93,3.22,-3.22,-2.81,-2.65,-1.29,-1.29,-1.28
169.87,1.89,3.23,1.90,3.23,-3.24,-2.85,-2.70,-1.35,-1.34,-1.34
171.57,1.86,3.25,1.87,3.25,-3.26,-2.89,-2.76,-1.39,-1.39,-1.39
173.29,1.84,3.27,1.84,3.27,-3.27,-2.93,-2.82,-1.43,-1.44,-1.43
175.02,1.81,3.29,1.82,3.29,-3.29,-2.98,-2.88,-1.48,-1.48,-1.48
176.77,1.78,3.31,1.79,3.31,-3.31,-3.02,-2.94,-1.52,-1.52,-1.53
178.54,1.76,3.33,1.76,3.33,-3.33,-3.06,-3.00,-1.56,-1.57,-1.57
180.32,1.72,3.35,1.73,3.34,-3.34,-3.11,-3.07,-1.62,-1.62,-1.63
182.13,1.69,3.35,1.69,3.36,-3.36,-3.16,-3.14,-1.67,-1.67,-1.66
183.95,1.65,3.36,1.66,3.37,-3.38,-3.20,-3.21,-1.72,-1.71,-1.71
185.79,1.63,3.39,1.64,3.39,-3.39,-3.25,-3.28,-1.76,-1.76,-1.76
187.65,1.61,3.41,1.61,3.41,-3.40,-3.30,-3.36,-1.79,-1.80,-1.80
189.52,1.58,3.42,1.59,3.42,-3.42,-3.35,-3.44,-1.83,-1.83,-1.84
191.42,1.55,3.43,1.56,3.43,-3.43,-3.40,-3.52,-1.88,-1.88,-1.88
193.33,1.52,3.44,1.52,3.45,-3.45,-3.45,-3.60,-1.92,-1.92,-1.92
195.27,1.49,3.46,1.49,3.46,-3.46,-3.50,-3.68,-1.96,-1.96,-1.97
197.22,1.46,3.48,1.46,3.48,-3.47,-3.55,-3.77,-2.01,-2.01,-2.02
199.19,1.43,3.48,1.44,3.49,-3.48,-3.60,-3.86,-2.05,-2.05,-2.05
201.18,1.41,3.50,1.41,3.50,-3.50,-3.65,-3.94,-2.09,-2.09,-2.09
203.19,1.39,3.51,1.40,3.51,-3.52,-3.70,-4.03,-2.13,-2.12,-2.12
205.23,1.38,3.52,1.39,3.53,-3.54,-3.75,-4.12,-2.16,-2.16,-2.14
207.28,1.38,3.55,1.39,3.56,-3.57,-3.81,-4.21,-2.18,-2.18,-2.17
209.35,1.39,3.60,1.39,3.60,-3.60,-3.86,-4.31,-2.20,-2.20,-2.21
211.44,1.40,3.64,1.40,3.63,-3.63,-3.91,-4.40,-2.22,-2.23,-2.24
213.56,1.40,3.66,1.41,3.67,-3.66,-3.96,-4.49,-2.26,-2.26,-2.26
215.69,1.40,3.69,1.41,3.69,-3.69,-4.02,-4.58,-2.29,-2.29,-2.29
217.85,1.40,3.72,1.40,3.72,-3.72,-4.07,-4.66,-2.32,-2.32,-2.32
220.03,1.40,3.75,1.41,3.75,-3.75,-4.12,-4.75,-2.34,-2.34,-2.35
222.23,1.40,3.78,1.40,3.78,-3.77,-4.17,-4.83,-2.36,-2.36,-2.38
224.45,1.40,3.79,1.40,3.79,-3.78,-4.23,-4.91,-2.38,-2.38,-2.39
226.70,1.38,3.80,1.39,3.80,-3.80,-4.28,-4.99,-2.41,-2.41,-2.42
228.96,1.38,3.81,1.38,3.81,-3.81,-4.33,-5.06,-2.43,-2.43,-2.43
231.25,1.37,3.82,1.37,3.82,-3.83,-4.38,-5.13,-2.45,-2.45,-2.45
233.57,1.37,3.84,1.38,3.84,-3.85,-4.44,-5.20,-2.47,-2.47,-2.47
235.90,1.38,3.86,1.38,3.87,-3.87,-4.49,-5.25,-2.49,-2.49,-2.48
238.26,1.40,3.91,1.41,3.90,-3.90,-4.54,-5.31,-2.50,-2.50,-2.51
240.64,1.43,3.93,1.43,3.94,-3.94,-4.59,-5.36,-2.51,-2.51,-2.50
243.05,1.47,3.99,1.47,3.99,-3.99,-4.64,-5.40,-2.52,-2.52,-2.52
245.48,1.51,4.04,1.52,4.04,-4.05,-4.69,-5.43,-2.53,-2.53,-2.53
247.93,1.58,4.12,1.58,4.11,-4.11,-4.74,-5.46,-2.53,-2.53,-2.54
250.41,1.64,4.17,1.65,4.19,-4.19,-4.79,-5.48,-2.55,-2.54,-2.53
252.92,1.74,4.28,1.73,4.27,-4.28,-4.84,-5.49,-2.53,-2.54,-2.54
255.45,1.82,4.37,1.82,4.37,-4.38,-4.89,-5.50,-2.55,-2.55,-2.55
258.00,1.91,4.46,1.92,4.47,-4.48,-4.94,-5.50,-2.57,-2.56,-2.55
260.58,2.04,4.59,2.04,4.59,-4.59,-5.00,-5.50,-2.55,-2.55,-2.55
263.19,2.15,4.70,2.16,4.72,-4.71,-5.05,-5.49,-2.56,-2.55,-2.55
265.82,2.30,4.86,2.29,4.84,-4.83,-5.10,-5.47,-2.53,-2.55,-2.56
268.48,2.40,4.96,2.41,4.96,-4.96,-5.15,-5.45,-2.55,-2.55,-2.56
271.16,2.51,5.07,2.53,5.08,-5.08,-5.21,-5.42,-2.57,-2.55,-2.56
273.87,2.65,5.21,2.65,5.20,-5.20,-5.26,-5.39,-2.55,-2.56,-2.56
276.61,2.76,5.32,2.77,5.33,-5.33,-5.32,-5.35,-2.56,-2.56,-2.56
279.38,2.88,5.46,2.88,5.45,-5.45,-5.37,-5.31,-2.57,-2.58,-2.58
282.17,2.98,5.56,2.99,5.56,-5.57,-5.43,-5.27,-2.59,-2.58,-2.58
284.99,3.09,5.66,3.11,5.68,-5.69,-5.49,-5.22,-2.60,-2.58,-2.57
287.84,3.25,5.81,3.24,5.80,-5.81,-5.55,-5.18,-2.55,-2.57,-2.56
290.72,3.36,5.93,3.36,5.92,-5.92,-5.62,-5.13,-2.55,-2.55,-2.57
293.63,3.47,6.03,3.47,6.03,-6.02,-5.69,-5.08,-2.55,-2.55,-2.56
296.57,3.56,6.11,3.57,6.12,-6.11,-5.76,-5.04,-2.55,-2.55,-2.55
299.53,3.65,6.20,3.66,6.20,-6.20,-5.83,-4.99,-2.55,-2.54,-2.55
302.53,3.74,6.27,3.74,6.28,-6.28,-5.91,-4.94,-2.53,-2.54,-2.53
305.55,3.81,6.35,3.81,6.34,-6.34,-5.99,-4.89,-2.52,-2.53,-2.54
308.61,3.86,6.39,3.87,6.40,-6.39,-6.07,-4.85,-2.53,-2.52,-2.53
311.69,3.91,6.43,3.92,6.44,-6.43,-6.15,-4.81,-2.52,-2.52,-2.52
314.81,3.95,6.47,3.95,6.47,-6.47,-6.23,-4.76,-2.51,-2.51,-2.52
317.96,3.98,6.49,3.98,6.49,-6.49,-6.30,-4.73,-2.51,-2.51,-2.51
321.14,4.00,6.50,4.01,6.51,-6.51,-6.38,-4.69,-2.50,-2.50,-2.50
324.35,4.02,6.52,4.02,6.51,-6.52,-6.44,-4.66,-2.49,-2.49,-2.50
327.59,4.03,6.50,4.04,6.52,-6.52,-6.49,-4.62,-2.48,-2.48,-2.47
330.87,4.04,6.52,4.04,6.52,-6.52,-6.53,-4.60,-2.47,-2.47,-2.48
334.18,4.04,6.51,4.04,6.51,-6.51,-6.56,-4.57,-2.46,-2.46,-2.47
337.52,4.03,6.50,4.04,6.50,-6.50,-6.57,-4.55,-2.46,-2.46,-2.47
340.90,4.02,6.47,4.02,6.47,-6.48,-6.56,-4.53,-2.46,-2.46,-2.45
344.30,4.00,6.44,4.01,6.45,-6.46,-6.53,-4.51,-2.46,-2.45,-2.44
347.75,3.99,6.43,3.99,6.43,-6.43,-6.49,-4.50,-2.44,-2.44,-2.44
351.23,3.97,6.41,3.98,6.40,-6.40,-6.44,-4.49,-2.43,-2.43,-2.44
354.74,3.95,6.36,3.95,6.37,-6.36,-6.37,-4.49,-2.41,-2.41,-2.41
358.28,3.91,6.33,3.92,6.33,-6.32,-6.30,-4.49,-2.40,-2.40,-2.42
361.87,3.87,6.28,3.87,6.27,-6.27,-6.23,-4.49,-2.39,-2.40,-2.41
365.49,3.81,6.21,3.82,6.22,-6.22,-6.15,-4.50,-2.40,-2.40,-2.40
369.14,3.76,6.14,3.77,6.15,-6.16,-6.07,-4.50,-2.39,-2.39,-2.38
372.83,3.71,6.09,3.71,6.09,-6.10,-6.00,-4.52,-2.38,-2.38,-2.38
376.56,3.65,6.03,3.66,6.03,-6.03,-5.92,-4.53,-2.38,-2.37,-2.38
380.33,3.60,5.97,3.60,5.97,-5.97,-5.85,-4.55,-2.36,-2.36,-2.37
384.13,3.54,5.89,3.55,5.90,-5.90,-5.78,-4.57,-2.36,-2.35,-2.35
387.97,3.49,5.84,3.49,5.84,-5.84,-5.71,-4.60,-2.34,-2.34,-2.35
391.85,3.44,5.78,3.44,5.78,-5.78,-5.65,-4.62,-2.33,-2.34,-2.34
395.77,3.38,5.71,3.39,5.71,-5.72,-5.59,-4.65,-2.33,-2.33,-2.33
399.73,3.33,5.65,3.34,5.65,-5.66,-5.53,-4.69,-2.32,-2.32,-2.32
403.72,3.29,5.58,3.29,5.60,-5.60,-5.48,-4.72,-2.31,-2.31,-2.29
407.76,3.25,5.55,3.25,5.54,-5.55,-5.42,-4.76,-2.29,-2.30,-2.30
411.84,3.21,5.50,3.22,5.50,-5.50,-5.37,-4.79,-2.28,-2.28,-2.29
415.96,3.17,5.44,3.18,5.46,-5.45,-5.32,-4.83,-2.27,-2.27,-2.27
420.12,3.14,5.41,3.14,5.41,-5.40,-5.28,-4.87,-2.25,-2.26,-2.27
424.32,3.10,5.36,3.11,5.36,-5.35,-5.23,-4.91,-2.25,-2.25,-2.26
428.56,3.06,5.30,3.07,5.31,-5.31,-5.19,-4.95,-2.24,-2.24,-2.24
432.85,3.02,5.25,3.02,5.26,-5.26,-5.14,-4.99,-2.23,-2.24,-2.23
437.18,2.97,5.21,2.98,5.21,-5.21,-5.10,-5.03,-2.24,-2.24,-2.24
441.55,2.93,5.16,2.94,5.16,-5.17,-5.06,-5.07,-2.23,-2.23,-2.23
445.96,2.90,5.12,2.90,5.12,-5.12,-5.01,-5.11,-2.22,-2.22,-2.22
450.42,2.86,5.07,2.87,5.08,-5.08,-4.97,-5.14,-2.21,-2.21,-2.21
454.93,2.84,5.04,2.84,5.04,-5.03,-4.93,-5.17,-2.19,-2.19,-2.20
459.48,2.81,5.00,2.81,4.99,-4.98,-4.89,-5.20,-2.17,-2.17,-2.19
464.07,2.77,4.94,2.77,4.95,-4.94,-4.85,-5.22,-2.16,-2.16,-2.17
468.71,2.72,4.88,2.73,4.89,-4.89,-4.81,-5.24,-2.16,-2.16,-2.16
473.40,2.68,4.84,2.68,4.83,-4.84,-4.77,-5.26,-2.15,-2.16,-2.16
478.13,2.63,4.78,2.63,4.78,-4.79,-4.73,-5.27,-2.16,-2.16,-2.15
482.91,2.58,4.72,2.59,4.73,-4.74,-4.69,-5.28,-2.16,-2.15,-2.14
487.74,2.55,4.68,2.56,4.68,-4.70,-4.65,-5.28,-2.14,-2.14,-2.13
492.62,2.53,4.65,2.53,4.65,-4.66,-4.60,-5.27,-2.12,-2.12,-2.12
