frequency,raw,error,smoothed,error_smoothed,equalization,parametric_eq,fixed_band_eq,equalized_raw,equalized_smoothed,target
20.00,-2.83,-8.55,-2.92,-8.67,8.67,8.65,3.14,5.84,5.75,5.73
20.20,-2.81,-8.56,-2.88,-8.65,8.65,8.61,3.23,5.84,5.77,5.76
20.40,-2.79,-8.58,-2.83,-8.62,8.62,8.57,3.31,5.83,5.79,5.79
20.61,-2.76,-8.56,-2.78,-8.59,8.59,8.53,3.41,5.84,5.81,5.81
20.81,-2.76,-8.59,-2.73,-8.56,8.56,8.49,3.50,5.81,5.83,5.84
21.02,-2.81,-8.67,-2.68,-8.53,8.53,8.44,3.60,5.72,5.84,5.87
21.23,-2.77,-8.64,-2.63,-8.49,8.49,8.39,3.70,5.72,5.86,5.88
21.44,-2.70,-8.59,-2.58,-8.45,8.45,8.34,3.80,5.74,5.87,5.89
21.66,-2.62,-8.51,-2.52,-8.40,8.40,8.29,3.91,5.79,5.88,5.90
21.87,-2.51,-8.41,-2.47,-8.36,8.36,8.24,4.02,5.84,5.89,5.90
22.09,-2.42,-8.33,-2.41,-8.31,8.31,8.19,4.13,5.88,5.90,5.91
22.31,-2.31,-8.22,-2.35,-8.25,8.25,8.14,4.24,5.94,5.91,5.91
22.54,-2.23,-8.13,-2.27,-8.18,8.18,8.08,4.36,5.95,5.91,5.91
22.76,-2.14,-8.05,-2.19,-8.10,8.10,8.03,4.48,5.95,5.91,5.91
22.99,-2.09,-7.98,-2.12,-8.02,8.02,7.97,4.61,5.94,5.91,5.90
23.22,-2.00,-7.89,-2.04,-7.95,7.95,7.91,4.73,5.95,5.90,5.90
23.45,-1.94,-7.83,-1.97,-7.88,7.88,7.86,4.86,5.94,5.90,5.90
23.69,-1.90,-7.79,-1.92,-7.81,7.81,7.80,4.99,5.92,5.90,5.90
23.92,-1.85,-7.75,-1.86,-7.76,7.76,7.74,5.13,5.90,5.90,5.90
24.16,-1.80,-7.69,-1.81,-7.70,7.70,7.68,5.27,5.91,5.89,5.90
24.40,-1.76,-7.66,-1.76,-7.65,7.65,7.63,5.41,5.89,5.89,5.90
24.65,-1.73,-7.61,-1.71,-7.60,7.60,7.57,5.55,5.87,5.89,5.89
24.89,-1.68,-7.57,-1.66,-7.54,7.54,7.51,5.69,5.86,5.89,5.89
25.14,-1.64,-7.53,-1.60,-7.49,7.49,7.45,5.84,5.84,5.89,5.89
25.39,-1.61,-7.50,-1.55,-7.44,7.44,7.40,5.99,5.82,5.88,5.89
25.65,-1.54,-7.42,-1.50,-7.38,7.38,7.34,6.13,5.85,5.88,5.89
25.91,-1.47,-7.34,-1.45,-7.33,7.33,7.28,6.28,5.86,5.88,5.88
26.16,-1.36,-7.24,-1.39,-7.27,7.27,7.22,6.43,5.91,5.88,5.88
26.43,-1.31,-7.18,-1.34,-7.21,7.21,7.17,6.58,5.91,5.88,5.88
26.69,-1.23,-7.10,-1.29,-7.16,7.16,7.11,6.73,5.93,5.87,5.88
26.96,-1.18,-7.05,-1.23,-7.10,7.10,7.05,6.87,5.93,5.87,5.88
27.23,-1.17,-7.03,-1.18,-7.05,7.05,7.00,7.02,5.88,5.87,5.87
27.50,-1.13,-6.99,-1.13,-6.99,6.99,6.94,7.15,5.87,5.86,5.87
27.77,-1.09,-6.95,-1.08,-6.94,6.94,6.89,7.29,5.84,5.86,5.86
28.05,-1.05,-6.90,-1.02,-6.88,6.88,6.83,7.42,5.83,5.86,5.86
28.33,-1.00,-6.85,-0.97,-6.82,6.82,6.78,7.54,5.82,5.85,5.85
28.62,-0.96,-6.80,-0.93,-6.77,6.77,6.72,7.66,5.82,5.85,5.85
28.90,-0.91,-6.75,-0.88,-6.72,6.72,6.67,7.77,5.82,5.84,5.85
29.19,-0.85,-6.68,-0.83,-6.66,6.66,6.62,7.87,5.82,5.84,5.84
29.48,-0.78,-6.62,-0.77,-6.60,6.60,6.57,7.95,5.82,5.83,5.84
29.78,-0.73,-6.55,-0.72,-6.55,6.55,6.51,8.03,5.82,5.83,5.83
30.08,-0.67,-6.49,-0.67,-6.49,6.49,6.46,8.10,5.82,5.82,5.83
30.38,-0.60,-6.41,-0.62,-6.43,6.43,6.41,8.15,5.84,5.82,5.82
30.68,-0.56,-6.37,-0.58,-6.39,6.39,6.36,8.19,5.83,5.81,5.82
30.99,-0.51,-6.31,-0.54,-6.35,6.35,6.31,8.22,5.84,5.81,5.81
31.30,-0.48,-6.27,-0.51,-6.31,6.31,6.26,8.23,5.83,5.80,5.80
31.61,-0.45,-6.24,-0.48,-6.27,6.27,6.21,8.23,5.83,5.79,5.80
31.93,-0.39,-6.17,-0.46,-6.24,6.24,6.16,8.21,5.86,5.79,5.79
32.24,-0.38,-6.15,-0.43,-6.21,6.21,6.12,8.18,5.84,5.78,5.78
32.57,-0.42,-6.20,-0.41,-6.19,6.19,6.07,8.14,5.76,5.77,5.78
32.89,-0.43,-6.19,-0.39,-6.16,6.16,6.02,8.09,5.73,5.77,5.77
33.22,-0.43,-6.18,-0.37,-6.13,6.13,5.97,8.02,5.70,5.76,5.76
33.55,-0.40,-6.15,-0.34,-6.09,6.09,5.93,7.94,5.70,5.75,5.76
33.89,-0.37,-6.11,-0.31,-6.05,6.05,5.88,7.86,5.69,5.74,5.75
34.23,-0.31,-6.04,-0.27,-6.01,6.01,5.83,7.76,5.70,5.73,5.74
34.57,-0.26,-5.98,-0.24,-5.96,5.96,5.79,7.66,5.70,5.72,5.73
34.92,-0.21,-5.92,-0.19,-5.91,5.91,5.74,7.55,5.70,5.72,5.72
35.27,-0.13,-5.83,-0.14,-5.85,5.85,5.70,7.43,5.72,5.71,5.71
35.62,-0.08,-5.77,-0.09,-5.79,5.79,5.65,7.32,5.71,5.70,5.70
35.97,-0.01,-5.70,-0.03,-5.71,5.71,5.61,7.19,5.70,5.69,5.69
36.33,0.06,-5.62,0.04,-5.64,5.64,5.56,7.07,5.69,5.68,5.68
36.70,0.11,-5.55,0.10,-5.57,5.57,5.52,6.94,5.68,5.67,5.67
37.06,0.17,-5.49,0.16,-5.49,5.49,5.47,6.81,5.66,5.66,5.66
37.43,0.21,-5.44,0.22,-5.43,5.43,5.43,6.68,5.63,5.64,5.65
37.81,0.25,-5.38,0.26,-5.37,5.37,5.38,6.55,5.62,5.63,5.64
38.19,0.30,-5.32,0.30,-5.32,5.32,5.34,6.42,5.63,5.62,5.63
38.57,0.34,-5.27,0.33,-5.28,5.28,5.29,6.29,5.63,5.61,5.62
38.95,0.38,-5.23,0.35,-5.25,5.25,5.25,6.17,5.63,5.60,5.61
39.34,0.42,-5.17,0.37,-5.22,5.22,5.21,6.04,5.64,5.59,5.59
39.74,0.46,-5.11,0.39,-5.20,5.20,5.16,5.92,5.66,5.58,5.58
40.14,0.46,-5.10,0.40,-5.17,5.17,5.12,5.80,5.63,5.57,5.57
40.54,0.45,-5.10,0.42,-5.14,5.14,5.07,5.68,5.59,5.56,5.56
40.94,0.41,-5.13,0.44,-5.11,5.11,5.03,5.57,5.52,5.55,5.55
41.35,0.39,-5.14,0.46,-5.07,5.07,4.98,5.46,5.47,5.54,5.54
41.76,0.38,-5.15,0.49,-5.03,5.03,4.94,5.35,5.41,5.52,5.53
42.18,0.42,-5.10,0.52,-4.99,4.99,4.90,5.25,5.40,5.51,5.52
42.60,0.50,-5.01,0.56,-4.93,4.93,4.85,5.15,5.43,5.50,5.51
43.03,0.57,-4.92,0.60,-4.88,4.88,4.81,5.05,5.45,5.48,5.50
43.46,0.64,-4.83,0.65,-4.82,4.82,4.76,4.96,5.46,5.47,5.48
43.90,0.72,-4.73,0.70,-4.76,4.76,4.72,4.87,5.48,5.46,5.46
44.33,0.77,-4.67,0.74,-4.70,4.70,4.67,4.78,5.46,5.44,5.44
44.78,0.81,-4.60,0.79,-4.64,4.64,4.63,4.70,5.45,5.43,5.42
45.23,0.86,-4.53,0.83,-4.58,4.58,4.58,4.62,5.45,5.41,5.40
45.68,0.92,-4.46,0.85,-4.54,4.54,4.54,4.54,5.46,5.39,5.39
46.13,0.93,-4.43,0.87,-4.50,4.50,4.49,4.47,5.44,5.37,5.37
46.60,0.93,-4.42,0.87,-4.48,4.48,4.45,4.40,5.42,5.35,5.36
47.06,0.93,-4.40,0.86,-4.47,4.47,4.40,4.34,5.40,5.33,5.34
47.53,0.88,-4.43,0.85,-4.46,4.46,4.35,4.27,5.35,5.31,5.32
48.01,0.87,-4.43,0.83,-4.46,4.46,4.31,4.21,5.33,5.29,5.31
48.49,0.82,-4.45,0.82,-4.45,4.45,4.26,4.16,5.27,5.27,5.28
48.97,0.77,-4.47,0.81,-4.44,4.44,4.22,4.10,5.21,5.24,5.25
49.46,0.71,-4.50,0.81,-4.41,4.41,4.17,4.05,5.13,5.22,5.22
49.96,0.69,-4.49,0.81,-4.38,4.38,4.12,4.01,5.08,5.20,5.19
50.46,0.71,-4.45,0.83,-4.35,4.35,4.08,3.96,5.06,5.17,5.17
50.96,0.77,-4.37,0.86,-4.29,4.29,4.03,3.92,5.07,5.15,5.15
51.47,0.85,-4.26,0.89,-4.23,4.23,3.98,3.88,5.09,5.12,5.12
51.99,0.92,-4.17,0.94,-4.16,4.16,3.94,3.84,5.08,5.10,5.10
52.51,1.00,-4.07,1.00,-4.07,4.07,3.89,3.80,5.08,5.07,5.08
53.03,1.09,-3.96,1.06,-3.99,3.99,3.84,3.76,5.08,5.05,5.06
53.56,1.16,-3.86,1.13,-3.89,3.89,3.79,3.73,5.06,5.02,5.03
54.10,1.24,-3.76,1.20,-3.80,3.80,3.75,3.70,5.05,5.00,5.01
54.64,1.31,-3.66,1.26,-3.72,3.72,3.70,3.66,5.03,4.98,4.98
55.18,1.37,-3.58,1.32,-3.64,3.64,3.65,3.63,5.01,4.96,4.96
55.74,1.39,-3.53,1.36,-3.57,3.57,3.60,3.60,4.97,4.93,4.93
56.29,1.43,-3.47,1.40,-3.51,3.51,3.56,3.57,4.94,4.91,4.91
56.86,1.44,-3.44,1.44,-3.45,3.45,3.51,3.54,4.89,4.89,4.89
57.42,1.49,-3.36,1.47,-3.40,3.40,3.46,3.50,4.89,4.86,4.86
58.00,1.49,-3.34,1.50,-3.34,3.34,3.41,3.47,4.84,4.84,4.84
58.58,1.49,-3.32,1.52,-3.29,3.29,3.36,3.44,4.79,4.81,4.82
59.16,1.49,-3.30,1.54,-3.24,3.24,3.32,3.40,4.74,4.79,4.80
59.76,1.50,-3.27,1.57,-3.20,3.20,3.27,3.37,4.70,4.76,4.78
60.35,1.53,-3.21,1.59,-3.15,3.15,3.22,3.33,4.68,4.73,4.75
60.96,1.57,-3.14,1.61,-3.10,3.10,3.17,3.29,4.67,4.71,4.72
61.57,1.63,-3.04,1.63,-3.05,3.05,3.12,3.25,4.68,4.68,4.68
62.18,1.69,-2.95,1.66,-2.99,2.99,3.08,3.21,4.69,4.65,4.65
62.80,1.72,-2.89,1.68,-2.94,2.94,3.03,3.17,4.67,4.62,4.62
63.43,1.72,-2.86,1.70,-2.89,2.89,2.98,3.12,4.62,4.59,4.59
64.07,1.74,-2.81,1.72,-2.84,2.84,2.93,3.08,4.59,4.56,4.56
64.71,1.74,-2.79,1.74,-2.79,2.79,2.89,3.03,4.54,4.53,4.54
65.35,1.77,-2.73,1.76,-2.75,2.75,2.84,2.98,4.52,4.50,4.51
66.01,1.77,-2.70,1.77,-2.70,2.70,2.79,2.93,4.48,4.47,4.48
66.67,1.77,-2.67,1.78,-2.67,2.67,2.75,2.87,4.44,4.44,4.45
67.33,1.77,-2.64,1.78,-2.63,2.63,2.70,2.82,4.41,4.42,4.42
68.01,1.77,-2.61,1.78,-2.60,2.60,2.65,2.76,4.38,4.39,4.39
68.69,1.77,-2.58,1.78,-2.58,2.58,2.60,2.70,4.35,4.36,4.36
69.37,1.77,-2.55,1.77,-2.55,2.55,2.56,2.65,4.33,4.32,4.33
70.07,1.77,-2.52,1.77,-2.52,2.52,2.51,2.59,4.30,4.29,4.30
70.77,1.77,-2.49,1.77,-2.49,2.49,2.47,2.53,4.26,4.26,4.27
71.48,1.77,-2.46,1.77,-2.46,2.46,2.42,2.47,4.23,4.23,4.24
72.19,1.77,-2.42,1.78,-2.42,2.42,2.37,2.40,4.19,4.20,4.20
72.91,1.77,-2.39,1.78,-2.38,2.38,2.33,2.34,4.16,4.16,4.17
73.64,1.77,-2.35,1.79,-2.34,2.34,2.28,2.28,4.12,4.13,4.13
74.38,1.77,-2.32,1.79,-2.30,2.30,2.24,2.22,4.08,4.10,4.10
75.12,1.77,-2.28,1.80,-2.26,2.26,2.19,2.16,4.04,4.06,4.06
75.87,1.78,-2.24,1.81,-2.22,2.22,2.15,2.10,4.01,4.03,4.03
76.63,1.81,-2.18,1.82,-2.18,2.18,2.10,2.03,3.99,4.00,4.00
77.40,1.84,-2.12,1.83,-2.14,2.14,2.06,1.97,3.98,3.96,3.97
78.17,1.86,-2.06,1.84,-2.09,2.09,2.01,1.91,3.96,3.93,3.93
78.95,1.86,-2.03,1.84,-2.05,2.05,1.97,1.85,3.92,3.89,3.90
79.74,1.86,-2.00,1.85,-2.01,2.01,1.92,1.79,3.87,3.86,3.87
80.54,1.86,-1.96,1.86,-1.97,1.97,1.88,1.73,3.83,3.83,3.83
81.35,1.86,-1.93,1.86,-1.93,1.93,1.84,1.68,3.79,3.79,3.80
82.16,1.86,-1.89,1.87,-1.89,1.89,1.79,1.62,3.75,3.76,3.76
82.98,1.86,-1.86,1.87,-1.85,1.85,1.75,1.56,3.71,3.72,3.73
83.81,1.86,-1.82,1.88,-1.81,1.81,1.71,1.51,3.68,3.69,3.69
84.65,1.86,-1.78,1.87,-1.78,1.78,1.66,1.45,3.64,3.65,3.65
85.50,1.86,-1.75,1.87,-1.74,1.74,1.62,1.40,3.61,3.61,3.62
86.35,1.86,-1.71,1.87,-1.71,1.71,1.58,1.35,3.57,3.57,3.58
87.22,1.86,-1.67,1.86,-1.67,1.67,1.53,1.30,3.54,3.53,3.54
88.09,1.86,-1.63,1.86,-1.64,1.64,1.49,1.24,3.50,3.49,3.50
88.97,1.86,-1.59,1.85,-1.60,1.60,1.45,1.19,3.46,3.45,3.46
89.86,1.86,-1.55,1.85,-1.56,1.56,1.41,1.14,3.43,3.41,3.42
90.76,1.86,-1.50,1.85,-1.52,1.52,1.36,1.10,3.39,3.37,3.37
91.66,1.84,-1.48,1.84,-1.48,1.48,1.32,1.05,3.33,3.33,3.33
92.58,1.81,-1.46,1.84,-1.44,1.44,1.28,1.00,3.26,3.28,3.28
93.51,1.81,-1.42,1.83,-1.40,1.40,1.24,0.96,3.22,3.24,3.24
94.44,1.81,-1.38,1.83,-1.36,1.36,1.20,0.91,3.18,3.19,3.20
95.39,1.81,-1.33,1.82,-1.32,1.32,1.16,0.87,3.13,3.14,3.15
96.34,1.81,-1.28,1.82,-1.28,1.28,1.11,0.82,3.09,3.10,3.10
97.30,1.81,-1.23,1.81,-1.24,1.24,1.07,0.78,3.05,3.05,3.05
98.28,1.81,-1.18,1.80,-1.20,1.20,1.03,0.74,3.01,3.00,3.00
99.26,1.81,-1.14,1.80,-1.15,1.15,0.99,0.70,2.97,2.95,2.96
100.25,1.81,-1.09,1.80,-1.11,1.11,0.95,0.65,2.92,2.91,2.91
101.25,1.80,-1.05,1.79,-1.07,1.07,0.91,0.61,2.87,2.86,2.86
102.27,1.77,-1.03,1.79,-1.02,1.02,0.87,0.57,2.79,2.81,2.81
103.29,1.77,-0.98,1.79,-0.97,0.97,0.82,0.53,2.75,2.76,2.76
104.32,1.77,-0.94,1.78,-0.93,0.93,0.78,0.50,2.70,2.71,2.72
105.37,1.77,-0.89,1.78,-0.88,0.88,0.74,0.46,2.66,2.66,2.67
106.42,1.77,-0.84,1.78,-0.84,0.84,0.70,0.42,2.61,2.61,2.62
107.48,1.77,-0.79,1.77,-0.79,0.79,0.66,0.38,2.57,2.56,2.57
108.56,1.77,-0.74,1.77,-0.74,0.74,0.62,0.35,2.52,2.51,2.52
109.64,1.77,-0.69,1.77,-0.69,0.69,0.57,0.31,2.47,2.46,2.47
110.74,1.77,-0.64,1.77,-0.64,0.64,0.53,0.28,2.42,2.41,2.42
111.85,1.77,-0.59,1.77,-0.59,0.59,0.49,0.24,2.37,2.36,2.37
112.97,1.77,-0.53,1.77,-0.54,0.54,0.45,0.21,2.31,2.31,2.31
114.10,1.77,-0.48,1.77,-0.48,0.48,0.41,0.17,2.25,2.25,2.26
115.24,1.77,-0.42,1.78,-0.42,0.42,0.36,0.14,2.20,2.20,2.20
116.39,1.77,-0.37,1.78,-0.36,0.36,0.32,0.11,2.14,2.15,2.15
117.55,1.77,-0.31,1.79,-0.30,0.30,0.28,0.07,2.08,2.09,2.09
118.73,1.77,-0.26,1.80,-0.24,0.24,0.23,0.04,2.02,2.04,2.04
119.92,1.81,-0.17,1.81,-0.18,0.18,0.19,0.01,2.00,1.99,1.99
121.12,1.81,-0.12,1.82,-0.12,0.12,0.15,-0.02,1.93,1.94,1.94
122.33,1.81,-0.07,1.83,-0.05,0.05,0.10,-0.05,1.86,1.88,1.89
123.55,1.86,0.03,1.85,0.01,-0.01,0.06,-0.08,1.85,1.83,1.84
124.79,1.86,0.08,1.86,0.08,-0.08,0.01,-0.11,1.79,1.78,1.79
126.03,1.86,0.13,1.87,0.14,-0.14,-0.03,-0.14,1.72,1.73,1.74
127.29,1.91,0.23,1.89,0.21,-0.21,-0.08,-0.17,1.71,1.68,1.69
128.57,1.91,0.29,1.90,0.27,-0.27,-0.12,-0.20,1.64,1.63,1.63
129.85,1.91,0.34,1.92,0.34,-0.34,-0.17,-0.23,1.58,1.58,1.58
131.15,1.91,0.39,1.93,0.40,-0.40,-0.21,-0.26,1.51,1.53,1.53
132.46,1.95,0.48,1.94,0.46,-0.46,-0.26,-0.29,1.49,1.48,1.48
133.79,1.95,0.52,1.95,0.52,-0.52,-0.31,-0.32,1.43,1.43,1.44
135.12,1.95,0.57,1.96,0.58,-0.58,-0.36,-0.34,1.38,1.39,1.39
136.48,1.95,0.61,1.97,0.63,-0.63,-0.40,-0.37,1.33,1.34,1.35
137.84,1.97,0.68,1.98,0.68,-0.68,-0.45,-0.40,1.30,1.30,1.30
139.22,2.00,0.76,1.98,0.73,-0.73,-0.50,-0.43,1.28,1.26,1.25
140.61,2.00,0.80,1.99,0.77,-0.77,-0.55,-0.46,1.23,1.21,1.21
142.02,2.00,0.83,1.99,0.82,-0.82,-0.60,-0.49,1.19,1.17,1.18
143.44,2.00,0.87,2.00,0.86,-0.86,-0.65,-0.52,1.14,1.14,1.14
144.87,2.00,0.91,2.00,0.91,-0.91,-0.70,-0.55,1.10,1.10,1.10
146.32,2.00,0.95,2.01,0.95,-0.95,-0.76,-0.58,1.05,1.06,1.06
147.78,2.00,0.98,2.01,1.00,-1.00,-0.81,-0.61,1.01,1.02,1.03
149.26,2.00,1.02,2.02,1.04,-1.04,-0.86,-0.64,0.96,0.98,0.99
150.75,2.00,1.06,2.03,1.09,-1.09,-0.91,-0.67,0.92,0.94,0.95
152.26,2.03,1.13,2.04,1.14,-1.14,-0.97,-0.70,0.90,0.90,0.91
153.78,2.05,1.19,2.05,1.18,-1.18,-1.02,-0.73,0.87,0.86,0.87
155.32,2.05,1.23,2.06,1.23,-1.23,-1.08,-0.76,0.82,0.83,0.83
156.88,2.05,1.27,2.07,1.28,-1.28,-1.13,-0.80,0.78,0.79,0.79
158.44,2.09,1.35,2.08,1.33,-1.33,-1.19,-0.83,0.77,0.75,0.75
160.03,2.09,1.39,2.09,1.38,-1.38,-1.24,-0.87,0.72,0.71,0.71
161.63,2.10,1.44,2.10,1.43,-1.43,-1.30,-0.90,0.68,0.67,0.67
163.24,2.12,1.50,2.11,1.48,-1.48,-1.36,-0.94,0.64,0.63,0.63
164.88,2.12,1.53,2.12,1.53,-1.53,-1.41,-0.98,0.59,0.59,0.60
166.53,2.12,1.57,2.13,1.58,-1.58,-1.47,-1.02,0.54,0.55,0.56
168.19,2.14,1.63,2.14,1.63,-1.63,-1.53,-1.06,0.52,0.51,0.52
169.87,2.14,1.67,2.15,1.67,-1.67,-1.58,-1.10,0.47,0.48,0.48
171.57,2.14,1.71,2.16,1.72,-1.72,-1.64,-1.14,0.43,0.44,0.44
173.29,2.14,1.74,2.16,1.76,-1.76,-1.70,-1.18,0.38,0.40,0.41
175.02,2.18,1.82,2.17,1.81,-1.81,-1.75,-1.23,0.38,0.36,0.37
176.77,2.19,1.87,2.17,1.85,-1.85,-1.81,-1.27,0.34,0.32,0.33
178.54,2.19,1.91,2.18,1.89,-1.89,-1.87,-1.32,0.30,0.29,0.29
180.32,2.19,1.95,2.19,1.94,-1.94,-1.92,-1.37,0.26,0.25,0.25
182.13,2.19,1.98,2.19,1.98,-1.98,-1.98,-1.42,0.21,0.21,0.22
183.95,2.19,2.02,2.20,2.03,-2.03,-2.03,-1.47,0.17,0.18,0.18
185.79,2.19,2.05,2.21,2.07,-2.07,-2.09,-1.52,0.12,0.14,0.15
187.65,2.19,2.09,2.22,2.11,-2.11,-2.14,-1.57,0.08,0.11,0.11
189.52,2.23,2.16,2.23,2.15,-2.15,-2.19,-1.62,0.08,0.08,0.08
191.42,2.23,2.19,2.23,2.19,-2.19,-2.24,-1.67,0.04,0.04,0.05
193.33,2.23,2.22,2.24,2.23,-2.23,-2.29,-1.73,0.01,0.01,0.02
195.27,2.23,2.25,2.25,2.26,-2.26,-2.34,-1.78,-0.03,-0.02,-0.01
197.22,2.28,2.33,2.26,2.30,-2.30,-2.38,-1.84,-0.01,-0.04,-0.04
199.19,2.28,2.36,2.27,2.33,-2.33,-2.42,-1.89,-0.05,-0.07,-0.07
201.18,2.28,2.38,2.28,2.37,-2.37,-2.46,-1.95,-0.08,-0.09,-0.09
203.19,2.28,2.40,2.29,2.40,-2.40,-2.50,-2.01,-0.11,-0.11,-0.11
205.23,2.28,2.42,2.29,2.42,-2.42,-2.54,-2.06,-0.14,-0.13,-0.13
207.28,2.28,2.43,2.30,2.45,-2.45,-2.57,-2.12,-0.17,-0.15,-0.14
209.35,2.30,2.47,2.31,2.47,-2.47,-2.60,-2.17,-0.17,-0.17,-0.16
211.44,2.30,2.49,2.31,2.49,-2.49,-2.63,-2.23,-0.19,-0.18,-0.18
213.56,2.33,2.53,2.32,2.51,-2.51,-2.66,-2.28,-0.18,-0.19,-0.19
215.69,2.33,2.53,2.33,2.53,-2.53,-2.68,-2.34,-0.19,-0.20,-0.19
217.85,2.33,2.54,2.33,2.54,-2.54,-2.70,-2.39,-0.21,-0.21,-0.20
220.03,2.33,2.55,2.34,2.55,-2.55,-2.71,-2.44,-0.22,-0.21,-0.21
222.23,2.33,2.56,2.34,2.56,-2.56,-2.72,-2.49,-0.23,-0.22,-0.22
224.45,2.33,2.56,2.35,2.57,-2.57,-2.73,-2.53,-0.24,-0.22,-0.22
226.70,2.34,2.57,2.36,2.58,-2.58,-2.74,-2.58,-0.23,-0.22,-0.22
228.96,2.37,2.60,2.36,2.58,-2.58,-2.74,-2.62,-0.21,-0.22,-0.22
231.25,2.37,2.59,2.36,2.59,-2.59,-2.74,-2.66,-0.21,-0.22,-0.21
233.57,2.37,2.59,2.37,2.58,-2.58,-2.74,-2.69,-0.21,-0.22,-0.21
235.90,2.37,2.59,2.37,2.58,-2.58,-2.73,-2.72,-0.21,-0.21,-0.21
238.26,2.37,2.58,2.37,2.58,-2.58,-2.72,-2.75,-0.20,-0.20,-0.20
240.64,2.37,2.57,2.37,2.57,-2.57,-2.70,-2.77,-0.20,-0.20,-0.19
243.05,2.37,2.56,2.38,2.56,-2.56,-2.69,-2.79,-0.19,-0.19,-0.18
245.48,2.37,2.55,2.38,2.56,-2.56,-2.67,-2.81,-0.18,-0.17,-0.17
247.93,2.37,2.54,2.38,2.54,-2.54,-2.65,-2.82,-0.17,-0.16,-0.16
250.41,2.37,2.53,2.38,2.53,-2.53,-2.62,-2.82,-0.15,-0.15,-0.15
252.92,2.37,2.51,2.38,2.51,-2.51,-2.59,-2.82,-0.14,-0.13,-0.13
255.45,2.37,2.49,2.37,2.49,-2.49,-2.57,-2.82,-0.12,-0.12,-0.11
258.00,2.37,2.48,2.37,2.47,-2.47,-2.53,-2.81,-0.10,-0.10,-0.10
260.58,2.37,2.46,2.37,2.45,-2.45,-2.50,-2.80,-0.08,-0.08,-0.08
263.19,2.37,2.44,2.37,2.43,-2.43,-2.47,-2.79,-0.06,-0.06,-0.06
265.82,2.37,2.42,2.36,2.41,-2.41,-2.43,-2.77,-0.03,-0.05,-0.04
268.48,2.37,2.40,2.36,2.39,-2.39,-2.39,-2.74,-0.01,-0.03,-0.02
271.16,2.33,2.34,2.35,2.36,-2.36,-2.35,-2.71,-0.03,-0.01,-0.00
273.87,2.33,2.32,2.35,2.33,-2.33,-2.31,-2.68,0.00,0.01,0.02
276.61,2.33,2.30,2.34,2.31,-2.31,-2.27,-2.65,0.03,0.03,0.04
279.38,2.33,2.28,2.33,2.28,-2.28,-2.23,-2.61,0.05,0.05,0.06
282.17,2.33,2.26,2.33,2.25,-2.25,-2.19,-2.58,0.08,0.07,0.08
284.99,2.32,2.23,2.32,2.22,-2.22,-2.15,-2.54,0.10,0.09,0.10
287.84,2.29,2.18,2.31,2.19,-2.19,-2.10,-2.49,0.10,0.11,0.12
290.72,2.28,2.15,2.29,2.16,-2.16,-2.06,-2.45,0.13,0.14,0.14
293.63,2.28,2.13,2.28,2.12,-2.12,-2.02,-2.41,0.16,0.16,0.16
296.57,2.28,2.11,2.26,2.09,-2.09,-1.97,-2.36,0.20,0.18,0.18
299.53,2.24,2.05,2.25,2.05,-2.05,-1.93,-2.32,0.20,0.20,0.20
302.53,2.23,2.02,2.23,2.01,-2.01,-1.88,-2.27,0.23,0.22,0.22
305.55,2.23,1.99,2.21,1.96,-1.96,-1.84,-2.22,0.27,0.25,0.25
308.61,2.19,1.93,2.19,1.92,-1.92,-1.80,-2.18,0.28,0.27,0.27
311.69,2.18,1.89,2.17,1.87,-1.87,-1.76,-2.13,0.31,0.29,0.30
314.81,2.14,1.82,2.15,1.83,-1.83,-1.71,-2.08,0.31,0.32,0.33
317.96,2.14,1.80,2.13,1.79,-1.79,-1.67,-2.04,0.35,0.34,0.35
321.14,2.09,1.73,2.12,1.76,-1.76,-1.63,-2.00,0.34,0.36,0.37
324.35,2.09,1.71,2.11,1.72,-1.72,-1.59,-1.95,0.37,0.38,0.39
327.59,2.09,1.69,2.10,1.69,-1.69,-1.55,-1.91,0.40,0.41,0.41
330.87,2.05,1.63,2.09,1.66,-1.66,-1.51,-1.87,0.39,0.43,0.43
334.18,2.05,1.61,2.09,1.64,-1.64,-1.47,-1.83,0.41,0.45,0.45
337.52,2.09,1.63,2.09,1.63,-1.63,-1.43,-1.79,0.47,0.47,0.47
340.90,2.09,1.61,2.10,1.61,-1.61,-1.39,-1.75,0.48,0.49,0.49
344.30,2.09,1.59,2.11,1.60,-1.60,-1.36,-1.71,0.49,0.51,0.51
347.75,2.14,1.62,2.12,1.59,-1.59,-1.32,-1.68,0.55,0.53,0.53
351.23,2.14,1.60,2.13,1.59,-1.59,-1.28,-1.64,0.56,0.54,0.55
354.74,2.14,1.58,2.14,1.58,-1.58,-1.25,-1.61,0.56,0.56,0.57
358.28,2.14,1.57,2.16,1.58,-1.58,-1.22,-1.58,0.57,0.58,0.58
361.87,2.19,1.60,2.17,1.57,-1.57,-1.18,-1.55,0.62,0.60,0.60
365.49,2.19,1.58,2.18,1.56,-1.56,-1.15,-1.52,0.63,0.61,0.62
369.14,2.19,1.57,2.19,1.56,-1.56,-1.12,-1.49,0.64,0.63,0.63
372.83,2.19,1.55,2.19,1.55,-1.55,-1.08,-1.47,0.65,0.64,0.65
376.56,2.19,1.54,2.19,1.54,-1.54,-1.05,-1.44,0.66,0.66,0.66
380.33,2.19,1.52,2.20,1.53,-1.53,-1.02,-1.42,0.67,0.67,0.68
384.13,2.19,1.51,2.20,1.52,-1.52,-0.99,-1.40,0.68,0.69,0.69
387.97,2.19,1.50,2.20,1.50,-1.50,-0.96,-1.37,0.69,0.70,0.70
391.85,2.19,1.49,2.20,1.49,-1.49,-0.94,-1.35,0.70,0.71,0.71
395.77,2.19,1.47,2.20,1.48,-1.48,-0.91,-1.33,0.71,0.72,0.73
399.73,2.19,1.46,2.20,1.47,-1.47,-0.88,-1.32,0.73,0.73,0.74
403.72,2.19,1.45,2.20,1.45,-1.45,-0.85,-1.30,0.74,0.74,0.75
407.76,2.19,1.44,2.19,1.44,-1.44,-0.83,-1.28,0.76,0.75,0.76
411.84,2.19,1.43,2.19,1.42,-1.42,-0.80,-1.26,0.77,0.76,0.77
415.96,2.19,1.42,2.18,1.41,-1.41,-0.78,-1.25,0.79,0.78,0.78
420.12,2.19,1.41,2.18,1.39,-1.39,-0.75,-1.23,0.80,0.79,0.79
424.32,2.15,1.36,2.17,1.37,-1.37,-0.73,-1.22,0.78,0.80,0.80
428.56,2.14,1.34,2.16,1.35,-1.35,-0.70,-1.20,0.79,0.81,0.81
432.85,2.14,1.33,2.15,1.33,-1.33,-0.68,-1.19,0.82,0.82,0.82
437.18,2.14,1.32,2.13,1.30,-1.30,-0.66,-1.17,0.85,0.83,0.83
441.55,2.09,1.25,2.11,1.27,-1.27,-0.63,-1.16,0.83,0.84,0.85
445.96,2.09,1.24,2.09,1.23,-1.23,-0.61,-1.14,0.86,0.85,0.86
450.42,2.06,1.20,2.06,1.19,-1.19,-0.59,-1.13,0.87,0.87,0.87
454.93,2.05,1.17,2.03,1.15,-1.15,-0.57,-1.11,0.91,0.88,0.89
459.48,2.00,1.11,1.99,1.10,-1.10,-0.55,-1.10,0.91,0.90,0.90
464.07,1.98,1.08,1.96,1.05,-1.05,-0.53,-1.08,0.94,0.91,0.91
468.71,1.93,1.01,1.92,1.00,-1.00,-0.51,-1.06,0.94,0.92,0.93
473.40,1.90,0.97,1.89,0.95,-0.95,-0.49,-1.04,0.96,0.94,0.94
478.13,1.84,0.89,1.85,0.90,-0.90,-0.47,-1.02,0.95,0.95,0.96
482.91,1.81,0.85,1.82,0.85,-0.85,-0.45,-1.00,0.97,0.97,0.97
487.74,1.76,0.78,1.79,0.80,-0.80,-0.43,-0.98,0.96,0.98,0.99
492.62,1.73,0.73,1.76,0.76,-0.76,-0.41,-0.96,0.97,1.00,1.01
497.55,1.67,0.66,1.73,0.72,-0.72,-0.39,-0.93,0.96,1.02,1.02
502.52,1.67,0.64,1.71,0.68,-0.68,-0.37,-0.91,1.00,1.03,1.04
507.55,1.67,0.63,1.69,0.64,-0.64,-0.36,-0.88,1.04,1.05,1.05
512.62,1.67,0.61,1.67,0.60,-0.60,-0.34,-0.85,1.07,1.07,1.07
517.75,1.67,0.59,1.65,0.57,-0.57,-0.32,-0.82,1.11,1.09,1.09
522.93,1.67,0.57,1.64,0.54,-0.54,-0.30,-0.79,1.14,1.10,1.11
528.16,1.65,0.54,1.63,0.51,-0.51,-0.29,-0.76,1.15,1.12,1.12
533.44,1.63,0.50,1.62,0.48,-0.48,-0.27,-0.73,1.16,1.14,1.14
538.77,1.61,0.46,1.60,0.45,-0.45,-0.25,-0.69,1.17,1.16,1.16
544.16,1.58,0.41,1.59,0.41,-0.41,-0.23,-0.65,1.17,1.17,1.18
