frequency,raw,error,smoothed,error_smoothed,equalization,parametric_eq,fixed_band_eq,equalized_raw,equalized_smoothed,target
20.00,-2.83,-8.55,-2.83,-8.55,8.53,8.81,3.08,5.70,5.70,5.73
20.20,-2.81,-8.56,-2.80,-8.56,8.57,8.78,3.17,5.77,5.77,5.76
20.40,-2.79,-8.58,-2.78,-8.57,8.60,8.74,3.26,5.81,5.82,5.79
20.61,-2.76,-8.56,-2.77,-8.58,8.62,8.70,3.35,5.86,5.84,5.81
20.81,-2.76,-8.59,-2.78,-8.61,8.62,8.66,3.45,5.86,5.84,5.84
21.02,-2.81,-8.67,-2.78,-8.64,8.61,8.61,3.55,5.80,5.83,5.87
21.23,-2.77,-8.64,-2.76,-8.64,8.58,8.57,3.65,5.82,5.82,5.88
21.44,-2.70,-8.59,-2.71,-8.59,8.55,8.52,3.75,5.84,5.84,5.89
21.66,-2.62,-8.51,-2.62,-8.51,8.49,8.47,3.86,5.88,5.88,5.90
21.87,-2.51,-8.41,-2.52,-8.42,8.42,8.42,3.97,5.91,5.90,5.90
22.09,-2.42,-8.33,-2.42,-8.32,8.34,8.37,4.09,5.91,5.92,5.91
22.31,-2.31,-8.22,-2.32,-8.22,8.24,8.32,4.20,5.93,5.93,5.91
22.54,-2.23,-8.13,-2.23,-8.14,8.15,8.27,4.32,5.92,5.92,5.91
22.76,-2.14,-8.05,-2.15,-8.05,8.06,8.22,4.45,5.91,5.91,5.91
22.99,-2.09,-7.98,-2.07,-7.97,7.98,8.16,4.57,5.89,5.91,5.90
23.22,-2.00,-7.89,-2.00,-7.90,7.91,8.11,4.70,5.91,5.91,5.90
23.45,-1.94,-7.83,-1.94,-7.84,7.85,8.05,4.83,5.91,5.90,5.90
23.69,-1.90,-7.79,-1.89,-7.79,7.79,7.99,4.97,5.89,5.90,5.90
23.92,-1.85,-7.75,-1.85,-7.74,7.74,7.94,5.10,5.89,5.90,5.90
24.16,-1.80,-7.69,-1.81,-7.70,7.70,7.88,5.24,5.90,5.89,5.90
24.40,-1.76,-7.66,-1.76,-7.65,7.66,7.82,5.38,5.89,5.90,5.90
24.65,-1.73,-7.61,-1.72,-7.61,7.62,7.76,5.53,5.89,5.90,5.89
24.89,-1.68,-7.57,-1.69,-7.58,7.57,7.71,5.67,5.89,5.88,5.89
25.14,-1.64,-7.53,-1.65,-7.53,7.52,7.65,5.82,5.87,5.87,5.89
25.39,-1.61,-7.50,-1.60,-7.49,7.46,7.59,5.97,5.85,5.86,5.89
25.65,-1.54,-7.42,-1.54,-7.42,7.40,7.53,6.12,5.86,5.86,5.89
25.91,-1.47,-7.34,-1.46,-7.34,7.33,7.47,6.27,5.86,5.87,5.88
26.16,-1.36,-7.24,-1.38,-7.25,7.26,7.42,6.42,5.90,5.89,5.88
26.43,-1.31,-7.18,-1.30,-7.17,7.20,7.36,6.58,5.89,5.90,5.88
26.69,-1.23,-7.10,-1.23,-7.11,7.14,7.30,6.72,5.91,5.90,5.88
26.96,-1.18,-7.05,-1.19,-7.06,7.08,7.25,6.87,5.90,5.89,5.88
27.23,-1.17,-7.03,-1.15,-7.02,7.03,7.19,7.02,5.86,5.87,5.87
27.50,-1.13,-6.99,-1.13,-6.99,6.98,7.13,7.16,5.85,5.85,5.87
27.77,-1.09,-6.95,-1.09,-6.95,6.94,7.08,7.30,5.84,5.84,5.86
28.05,-1.05,-6.90,-1.05,-6.90,6.89,7.02,7.43,5.85,5.85,5.86
28.33,-1.00,-6.85,-1.00,-6.85,6.85,6.97,7.55,5.84,5.84,5.85
28.62,-0.96,-6.80,-0.96,-6.80,6.80,6.91,7.67,5.84,5.84,5.85
28.90,-0.91,-6.75,-0.90,-6.75,6.74,6.86,7.78,5.83,5.84,5.85
29.19,-0.85,-6.68,-0.85,-6.68,6.68,6.80,7.88,5.83,5.83,5.84
29.48,-0.78,-6.62,-0.79,-6.62,6.62,6.75,7.97,5.83,5.83,5.84
29.78,-0.73,-6.55,-0.72,-6.55,6.55,6.70,8.05,5.83,5.83,5.83
30.08,-0.67,-6.49,-0.66,-6.49,6.49,6.64,8.12,5.82,5.83,5.83
30.38,-0.60,-6.41,-0.60,-6.42,6.42,6.59,8.17,5.83,5.82,5.82
30.68,-0.56,-6.37,-0.55,-6.36,6.37,6.54,8.21,5.81,5.81,5.82
30.99,-0.51,-6.31,-0.51,-6.32,6.31,6.49,8.24,5.81,5.80,5.81
31.30,-0.48,-6.27,-0.47,-6.27,6.27,6.44,8.26,5.80,5.80,5.80
31.61,-0.45,-6.24,-0.43,-6.22,6.24,6.39,8.26,5.79,5.81,5.80
31.93,-0.39,-6.17,-0.40,-6.19,6.22,6.34,8.24,5.83,5.81,5.79
32.24,-0.38,-6.15,-0.40,-6.18,6.20,6.29,8.21,5.82,5.81,5.78
32.57,-0.42,-6.20,-0.41,-6.18,6.19,6.24,8.17,5.76,5.78,5.78
32.89,-0.43,-6.19,-0.42,-6.19,6.17,6.19,8.12,5.75,5.75,5.77
33.22,-0.43,-6.18,-0.42,-6.18,6.15,6.14,8.06,5.73,5.73,5.76
33.55,-0.40,-6.15,-0.40,-6.15,6.12,6.09,7.98,5.73,5.73,5.76
33.89,-0.37,-6.11,-0.36,-6.10,6.09,6.04,7.90,5.72,5.73,5.75
34.23,-0.31,-6.04,-0.31,-6.05,6.04,5.99,7.80,5.74,5.73,5.74
34.57,-0.26,-5.98,-0.26,-5.98,5.99,5.95,7.70,5.73,5.73,5.73
34.92,-0.21,-5.92,-0.20,-5.91,5.92,5.90,7.59,5.71,5.72,5.72
35.27,-0.13,-5.83,-0.14,-5.84,5.84,5.85,7.48,5.72,5.71,5.71
35.62,-0.08,-5.77,-0.07,-5.77,5.77,5.81,7.36,5.70,5.70,5.70
35.97,-0.01,-5.70,-0.01,-5.69,5.70,5.76,7.24,5.68,5.69,5.69
36.33,0.06,-5.62,0.05,-5.62,5.63,5.71,7.11,5.68,5.68,5.68
36.70,0.11,-5.55,0.11,-5.55,5.56,5.67,6.98,5.68,5.67,5.67
37.06,0.17,-5.49,0.16,-5.49,5.50,5.62,6.85,5.66,5.66,5.66
37.43,0.21,-5.44,0.21,-5.44,5.43,5.57,6.72,5.64,5.64,5.65
37.81,0.25,-5.38,0.26,-5.38,5.37,5.53,6.59,5.63,5.63,5.64
38.19,0.30,-5.32,0.30,-5.33,5.31,5.48,6.47,5.62,5.61,5.63
38.57,0.34,-5.27,0.34,-5.27,5.26,5.44,6.34,5.60,5.60,5.62
38.95,0.38,-5.23,0.38,-5.22,5.22,5.39,6.21,5.59,5.60,5.61
39.34,0.42,-5.17,0.42,-5.17,5.18,5.35,6.09,5.60,5.60,5.59
39.74,0.46,-5.11,0.45,-5.12,5.16,5.30,5.96,5.62,5.61,5.58
40.14,0.46,-5.10,0.46,-5.10,5.15,5.26,5.84,5.61,5.61,5.57
40.54,0.45,-5.10,0.45,-5.11,5.14,5.21,5.73,5.59,5.59,5.56
40.94,0.41,-5.13,0.42,-5.13,5.13,5.16,5.61,5.54,5.54,5.55
41.35,0.39,-5.14,0.39,-5.15,5.11,5.12,5.50,5.50,5.50,5.54
41.76,0.38,-5.15,0.39,-5.14,5.08,5.07,5.40,5.46,5.47,5.53
42.18,0.42,-5.10,0.42,-5.09,5.04,5.03,5.29,5.46,5.47,5.52
42.60,0.50,-5.01,0.49,-5.02,4.99,4.98,5.19,5.49,5.48,5.51
43.03,0.57,-4.92,0.57,-4.92,4.93,4.94,5.09,5.50,5.50,5.50
43.46,0.64,-4.83,0.65,-4.83,4.85,4.89,5.00,5.49,5.50,5.48
43.90,0.72,-4.73,0.71,-4.74,4.76,4.84,4.91,5.48,5.47,5.46
44.33,0.77,-4.67,0.77,-4.67,4.67,4.80,4.82,5.44,5.44,5.44
44.78,0.81,-4.60,0.82,-4.59,4.60,4.75,4.74,5.41,5.42,5.42
45.23,0.86,-4.53,0.87,-4.53,4.53,4.71,4.66,5.40,5.40,5.40
45.68,0.92,-4.46,0.91,-4.47,4.48,4.66,4.58,5.41,5.39,5.39
46.13,0.93,-4.43,0.94,-4.43,4.45,4.61,4.51,5.38,5.39,5.37
46.60,0.93,-4.42,0.94,-4.41,4.43,4.57,4.44,5.36,5.37,5.36
47.06,0.93,-4.40,0.92,-4.41,4.43,4.52,4.37,5.36,5.35,5.34
47.53,0.88,-4.43,0.90,-4.42,4.43,4.47,4.31,5.32,5.33,5.32
48.01,0.87,-4.43,0.87,-4.43,4.45,4.43,4.25,5.32,5.31,5.31
48.49,0.82,-4.45,0.82,-4.46,4.46,4.38,4.20,5.29,5.28,5.28
48.97,0.77,-4.47,0.77,-4.48,4.47,4.33,4.14,5.25,5.24,5.25
49.46,0.71,-4.50,0.72,-4.49,4.47,4.28,4.09,5.18,5.19,5.22
49.96,0.69,-4.49,0.70,-4.49,4.45,4.24,4.04,5.14,5.15,5.19
50.46,0.71,-4.45,0.72,-4.44,4.41,4.19,4.00,5.12,5.13,5.17
50.96,0.77,-4.37,0.77,-4.37,4.35,4.14,3.95,5.12,5.12,5.15
51.47,0.85,-4.26,0.85,-4.27,4.27,4.09,3.91,5.13,5.12,5.12
51.99,0.92,-4.17,0.93,-4.17,4.18,4.05,3.87,5.10,5.11,5.10
52.51,1.00,-4.07,1.01,-4.07,4.08,4.00,3.83,5.08,5.08,5.08
53.03,1.09,-3.96,1.09,-3.97,3.97,3.95,3.79,5.06,5.06,5.06
53.56,1.16,-3.86,1.17,-3.86,3.87,3.90,3.76,5.03,5.03,5.03
54.10,1.24,-3.76,1.25,-3.76,3.77,3.85,3.73,5.01,5.02,5.01
54.64,1.31,-3.66,1.31,-3.67,3.68,3.80,3.69,4.99,4.99,4.98
55.18,1.37,-3.58,1.37,-3.59,3.60,3.76,3.66,4.97,4.97,4.96
55.74,1.39,-3.53,1.40,-3.53,3.53,3.71,3.63,4.93,4.93,4.93
56.29,1.43,-3.47,1.43,-3.47,3.47,3.66,3.59,4.91,4.91,4.91
56.86,1.44,-3.44,1.46,-3.42,3.43,3.61,3.56,4.87,4.89,4.89
57.42,1.49,-3.36,1.48,-3.38,3.39,3.56,3.53,4.89,4.87,4.86
58.00,1.49,-3.34,1.49,-3.34,3.36,3.51,3.50,4.85,4.85,4.84
58.58,1.49,-3.32,1.50,-3.32,3.32,3.46,3.46,4.82,4.82,4.82
59.16,1.49,-3.30,1.50,-3.30,3.28,3.42,3.43,4.77,4.77,4.80
59.76,1.50,-3.27,1.51,-3.27,3.23,3.37,3.39,4.73,4.74,4.78
60.35,1.53,-3.21,1.53,-3.21,3.17,3.32,3.35,4.71,4.71,4.75
60.96,1.57,-3.14,1.58,-3.13,3.12,3.27,3.32,4.69,4.70,4.72
61.57,1.63,-3.04,1.64,-3.04,3.05,3.22,3.28,4.69,4.69,4.68
62.18,1.69,-2.95,1.68,-2.96,2.99,3.17,3.23,4.68,4.67,4.65
62.80,1.72,-2.89,1.72,-2.90,2.93,3.12,3.19,4.65,4.65,4.62
63.43,1.72,-2.86,1.73,-2.85,2.87,3.08,3.14,4.59,4.60,4.59
64.07,1.74,-2.81,1.74,-2.82,2.81,3.03,3.10,4.56,4.56,4.56
64.71,1.74,-2.79,1.75,-2.78,2.77,2.98,3.05,4.51,4.52,4.54
65.35,1.77,-2.73,1.77,-2.74,2.73,2.93,3.00,4.51,4.50,4.51
66.01,1.77,-2.70,1.77,-2.70,2.70,2.88,2.95,4.48,4.47,4.48
66.67,1.77,-2.67,1.78,-2.67,2.67,2.84,2.89,4.45,4.45,4.45
67.33,1.77,-2.64,1.77,-2.64,2.64,2.79,2.84,4.42,4.42,4.42
68.01,1.77,-2.61,1.77,-2.61,2.61,2.74,2.78,4.39,4.39,4.39
68.69,1.77,-2.58,1.77,-2.58,2.58,2.69,2.72,4.35,4.35,4.36
69.37,1.77,-2.55,1.77,-2.55,2.55,2.65,2.66,4.32,4.32,4.33
70.07,1.77,-2.52,1.77,-2.52,2.52,2.60,2.60,4.29,4.29,4.30
70.77,1.77,-2.49,1.77,-2.49,2.49,2.55,2.54,4.26,4.26,4.27
71.48,1.77,-2.46,1.77,-2.46,2.46,2.50,2.48,4.23,4.23,4.24
72.19,1.77,-2.42,1.77,-2.42,2.43,2.46,2.42,4.20,4.20,4.20
72.91,1.77,-2.39,1.77,-2.39,2.39,2.41,2.36,4.17,4.17,4.17
73.64,1.77,-2.35,1.77,-2.35,2.35,2.36,2.30,4.13,4.13,4.13
74.38,1.77,-2.32,1.77,-2.32,2.31,2.32,2.23,4.09,4.09,4.10
75.12,1.77,-2.28,1.78,-2.28,2.27,2.27,2.17,4.04,4.05,4.06
75.87,1.78,-2.24,1.79,-2.24,2.22,2.23,2.11,4.01,4.01,4.03
76.63,1.81,-2.18,1.82,-2.18,2.18,2.18,2.05,3.99,3.99,4.00
77.40,1.84,-2.12,1.84,-2.12,2.13,2.14,1.99,3.98,3.97,3.97
78.17,1.86,-2.06,1.86,-2.07,2.09,2.09,1.93,3.95,3.94,3.93
78.95,1.86,-2.03,1.87,-2.03,2.04,2.04,1.87,3.91,3.91,3.90
79.74,1.86,-2.00,1.87,-2.00,2.00,2.00,1.81,3.86,3.87,3.87
80.54,1.86,-1.96,1.86,-1.96,1.96,1.95,1.75,3.82,3.82,3.83
81.35,1.86,-1.93,1.86,-1.93,1.92,1.91,1.69,3.79,3.79,3.80
82.16,1.86,-1.89,1.86,-1.89,1.89,1.87,1.63,3.75,3.75,3.76
82.98,1.86,-1.86,1.86,-1.86,1.86,1.82,1.58,3.72,3.72,3.73
83.81,1.86,-1.82,1.86,-1.82,1.82,1.78,1.52,3.69,3.69,3.69
84.65,1.86,-1.78,1.86,-1.79,1.79,1.73,1.47,3.65,3.65,3.65
85.50,1.86,-1.75,1.86,-1.75,1.75,1.69,1.41,3.61,3.61,3.62
86.35,1.86,-1.71,1.86,-1.71,1.71,1.65,1.36,3.57,3.57,3.58
87.22,1.86,-1.67,1.86,-1.67,1.67,1.60,1.31,3.53,3.53,3.54
88.09,1.86,-1.63,1.86,-1.63,1.63,1.56,1.26,3.49,3.49,3.50
88.97,1.86,-1.59,1.87,-1.59,1.59,1.52,1.21,3.46,3.46,3.46
89.86,1.86,-1.55,1.87,-1.55,1.56,1.47,1.16,3.42,3.42,3.42
90.76,1.86,-1.50,1.86,-1.51,1.52,1.43,1.11,3.39,3.38,3.37
91.66,1.84,-1.48,1.84,-1.48,1.49,1.39,1.06,3.33,3.33,3.33
92.58,1.81,-1.46,1.83,-1.45,1.45,1.34,1.01,3.26,3.27,3.28
93.51,1.81,-1.42,1.81,-1.42,1.41,1.30,0.97,3.22,3.22,3.24
94.44,1.81,-1.38,1.81,-1.38,1.37,1.26,0.92,3.18,3.18,3.20
95.39,1.81,-1.33,1.81,-1.33,1.33,1.22,0.88,3.14,3.14,3.15
96.34,1.81,-1.28,1.81,-1.28,1.28,1.17,0.83,3.10,3.10,3.10
97.30,1.81,-1.23,1.81,-1.23,1.24,1.13,0.79,3.05,3.05,3.05
98.28,1.81,-1.18,1.82,-1.18,1.19,1.09,0.75,3.01,3.01,3.00
99.26,1.81,-1.14,1.82,-1.14,1.15,1.05,0.71,2.96,2.96,2.96
100.25,1.81,-1.09,1.81,-1.10,1.10,1.00,0.66,2.92,2.91,2.91
101.25,1.80,-1.05,1.80,-1.06,1.06,0.96,0.62,2.86,2.86,2.86
102.27,1.77,-1.03,1.79,-1.02,1.02,0.92,0.58,2.79,2.80,2.81
103.29,1.77,-0.98,1.78,-0.98,0.98,0.88,0.54,2.75,2.75,2.76
104.32,1.77,-0.94,1.77,-0.94,0.93,0.84,0.51,2.71,2.70,2.72
105.37,1.77,-0.89,1.77,-0.89,0.89,0.79,0.47,2.66,2.66,2.67
106.42,1.77,-0.84,1.77,-0.84,0.84,0.75,0.43,2.62,2.62,2.62
107.48,1.77,-0.79,1.77,-0.79,0.79,0.71,0.39,2.57,2.57,2.57
108.56,1.77,-0.74,1.77,-0.74,0.74,0.67,0.36,2.52,2.52,2.52
109.64,1.77,-0.69,1.77,-0.69,0.69,0.62,0.32,2.47,2.47,2.47
110.74,1.77,-0.64,1.77,-0.64,0.64,0.58,0.28,2.41,2.41,2.42
111.85,1.77,-0.59,1.77,-0.59,0.59,0.54,0.25,2.36,2.36,2.37
112.97,1.77,-0.53,1.77,-0.53,0.54,0.49,0.22,2.31,2.31,2.31
114.10,1.77,-0.48,1.77,-0.48,0.48,0.45,0.18,2.26,2.26,2.26
115.24,1.77,-0.42,1.77,-0.42,0.43,0.41,0.15,2.20,2.20,2.20
116.39,1.77,-0.37,1.77,-0.37,0.37,0.36,0.11,2.14,2.14,2.15
117.55,1.77,-0.31,1.78,-0.31,0.31,0.32,0.08,2.08,2.09,2.09
118.73,1.77,-0.26,1.79,-0.25,0.25,0.28,0.05,2.02,2.04,2.04
119.92,1.81,-0.17,1.80,-0.19,0.19,0.23,0.02,2.00,1.98,1.99
121.12,1.81,-0.12,1.82,-0.12,0.12,0.19,-0.01,1.94,1.94,1.94
122.33,1.81,-0.07,1.84,-0.05,0.05,0.14,-0.04,1.87,1.89,1.89
123.55,1.86,0.03,1.84,0.01,-0.01,0.10,-0.07,1.85,1.83,1.84
124.79,1.86,0.08,1.86,0.08,-0.08,0.05,-0.10,1.78,1.78,1.79
126.03,1.86,0.13,1.89,0.15,-0.15,0.01,-0.13,1.72,1.74,1.74
127.29,1.91,0.23,1.90,0.22,-0.21,-0.04,-0.16,1.70,1.68,1.69
128.57,1.91,0.29,1.91,0.28,-0.28,-0.09,-0.19,1.64,1.63,1.63
129.85,1.91,0.34,1.92,0.35,-0.34,-0.13,-0.22,1.57,1.58,1.58
131.15,1.91,0.39,1.93,0.40,-0.40,-0.18,-0.25,1.51,1.53,1.53
132.46,1.95,0.48,1.94,0.46,-0.46,-0.23,-0.28,1.49,1.48,1.48
133.79,1.95,0.52,1.95,0.52,-0.52,-0.28,-0.31,1.43,1.43,1.44
135.12,1.95,0.57,1.96,0.57,-0.58,-0.33,-0.34,1.38,1.38,1.39
136.48,1.95,0.61,1.96,0.62,-0.63,-0.38,-0.37,1.32,1.33,1.35
137.84,1.97,0.68,1.98,0.68,-0.69,-0.42,-0.39,1.29,1.29,1.30
139.22,2.00,0.76,1.99,0.74,-0.74,-0.47,-0.42,1.27,1.26,1.25
140.61,2.00,0.80,2.01,0.80,-0.78,-0.53,-0.45,1.22,1.22,1.21
142.02,2.00,0.83,2.01,0.84,-0.83,-0.58,-0.48,1.18,1.18,1.18
143.44,2.00,0.87,2.00,0.87,-0.87,-0.63,-0.51,1.14,1.14,1.14
144.87,2.00,0.91,2.00,0.91,-0.91,-0.68,-0.54,1.10,1.10,1.10
146.32,2.00,0.95,2.00,0.95,-0.95,-0.73,-0.57,1.06,1.06,1.06
147.78,2.00,0.98,2.00,0.98,-0.99,-0.79,-0.60,1.02,1.01,1.03
149.26,2.00,1.02,2.00,1.02,-1.03,-0.84,-0.63,0.97,0.97,0.99
150.75,2.00,1.06,2.02,1.07,-1.08,-0.89,-0.66,0.93,0.94,0.95
152.26,2.03,1.13,2.03,1.13,-1.12,-0.95,-0.70,0.91,0.91,0.91
153.78,2.05,1.19,2.04,1.18,-1.18,-1.00,-0.73,0.88,0.87,0.87
155.32,2.05,1.23,2.06,1.23,-1.23,-1.06,-0.76,0.83,0.83,0.83
156.88,2.05,1.27,2.07,1.28,-1.28,-1.12,-0.80,0.77,0.79,0.79
158.44,2.09,1.35,2.08,1.33,-1.34,-1.17,-0.83,0.76,0.74,0.75
160.03,2.09,1.39,2.10,1.39,-1.39,-1.23,-0.87,0.71,0.71,0.71
161.63,2.10,1.44,2.11,1.45,-1.44,-1.29,-0.90,0.67,0.67,0.67
163.24,2.12,1.50,2.12,1.49,-1.49,-1.34,-0.94,0.64,0.63,0.63
164.88,2.12,1.53,2.13,1.53,-1.53,-1.40,-0.98,0.59,0.59,0.60
166.53,2.12,1.57,2.13,1.58,-1.58,-1.46,-1.02,0.55,0.56,0.56
168.19,2.14,1.63,2.14,1.62,-1.62,-1.52,-1.06,0.52,0.51,0.52
169.87,2.14,1.67,2.14,1.66,-1.67,-1.57,-1.10,0.47,0.47,0.48
171.57,2.14,1.71,2.15,1.71,-1.72,-1.63,-1.14,0.43,0.43,0.44
173.29,2.14,1.74,2.16,1.76,-1.76,-1.69,-1.19,0.38,0.39,0.41
175.02,2.18,1.82,2.17,1.81,-1.81,-1.75,-1.23,0.38,0.37,0.37
176.77,2.19,1.87,2.19,1.86,-1.85,-1.81,-1.28,0.34,0.34,0.33
178.54,2.19,1.91,2.20,1.91,-1.90,-1.86,-1.32,0.30,0.30,0.29
180.32,2.19,1.95,2.20,1.95,-1.94,-1.92,-1.37,0.25,0.25,0.25
182.13,2.19,1.98,2.19,1.98,-1.98,-1.97,-1.42,0.21,0.21,0.22
183.95,2.19,2.02,2.19,2.01,-2.02,-2.03,-1.47,0.17,0.17,0.18
185.79,2.19,2.05,2.20,2.05,-2.06,-2.08,-1.52,0.13,0.13,0.15
187.65,2.19,2.09,2.21,2.10,-2.10,-2.13,-1.57,0.09,0.11,0.11
189.52,2.23,2.16,2.22,2.15,-2.14,-2.18,-1.63,0.09,0.08,0.08
191.42,2.23,2.19,2.23,2.18,-2.19,-2.23,-1.68,0.05,0.04,0.05
193.33,2.23,2.22,2.24,2.23,-2.23,-2.28,-1.74,0.01,0.01,0.02
195.27,2.23,2.25,2.25,2.27,-2.27,-2.33,-1.79,-0.03,-0.02,-0.01
197.22,2.28,2.33,2.27,2.31,-2.31,-2.37,-1.85,-0.02,-0.04,-0.04
199.19,2.28,2.36,2.28,2.35,-2.34,-2.42,-1.90,-0.06,-0.06,-0.07
201.18,2.28,2.38,2.29,2.39,-2.37,-2.46,-1.96,-0.09,-0.08,-0.09
203.19,2.28,2.40,2.28,2.40,-2.40,-2.49,-2.02,-0.12,-0.12,-0.11
205.23,2.28,2.42,2.29,2.42,-2.43,-2.53,-2.07,-0.14,-0.14,-0.13
207.28,2.28,2.43,2.29,2.44,-2.45,-2.56,-2.13,-0.17,-0.16,-0.14
209.35,2.30,2.47,2.30,2.47,-2.47,-2.59,-2.19,-0.17,-0.17,-0.16
211.44,2.30,2.49,2.31,2.49,-2.49,-2.62,-2.24,-0.19,-0.18,-0.18
213.56,2.33,2.53,2.33,2.52,-2.51,-2.64,-2.30,-0.17,-0.18,-0.19
215.69,2.33,2.53,2.33,2.53,-2.52,-2.66,-2.35,-0.19,-0.19,-0.19
217.85,2.33,2.54,2.34,2.54,-2.54,-2.68,-2.41,-0.20,-0.20,-0.20
220.03,2.33,2.55,2.33,2.55,-2.55,-2.69,-2.46,-0.22,-0.22,-0.21
222.23,2.33,2.56,2.33,2.55,-2.56,-2.70,-2.51,-0.23,-0.23,-0.22
224.45,2.33,2.56,2.34,2.57,-2.57,-2.71,-2.55,-0.24,-0.23,-0.22
226.70,2.34,2.57,2.35,2.58,-2.58,-2.71,-2.60,-0.23,-0.23,-0.22
228.96,2.37,2.60,2.36,2.59,-2.58,-2.71,-2.64,-0.21,-0.22,-0.22
231.25,2.37,2.59,2.37,2.59,-2.59,-2.71,-2.68,-0.21,-0.21,-0.21
233.57,2.37,2.59,2.38,2.59,-2.59,-2.70,-2.71,-0.21,-0.21,-0.21
235.90,2.37,2.59,2.37,2.59,-2.58,-2.69,-2.74,-0.21,-0.21,-0.21
238.26,2.37,2.58,2.37,2.58,-2.58,-2.68,-2.77,-0.21,-0.21,-0.20
240.64,2.37,2.57,2.37,2.57,-2.57,-2.66,-2.79,-0.20,-0.20,-0.19
243.05,2.37,2.56,2.37,2.56,-2.56,-2.64,-2.81,-0.19,-0.19,-0.18
245.48,2.37,2.55,2.37,2.55,-2.55,-2.62,-2.83,-0.18,-0.18,-0.17
247.93,2.37,2.54,2.37,2.54,-2.54,-2.60,-2.84,-0.16,-0.16,-0.16
250.41,2.37,2.53,2.37,2.53,-2.53,-2.57,-2.84,-0.15,-0.15,-0.15
252.92,2.37,2.51,2.37,2.51,-2.51,-2.54,-2.85,-0.14,-0.14,-0.13
255.45,2.37,2.49,2.37,2.49,-2.50,-2.51,-2.84,-0.12,-0.12,-0.11
258.00,2.37,2.48,2.37,2.48,-2.48,-2.48,-2.84,-0.10,-0.10,-0.10
260.58,2.37,2.46,2.37,2.46,-2.46,-2.44,-2.82,-0.08,-0.08,-0.08
263.19,2.37,2.44,2.38,2.44,-2.43,-2.41,-2.81,-0.06,-0.06,-0.06
265.82,2.37,2.42,2.37,2.42,-2.41,-2.37,-2.79,-0.04,-0.04,-0.04
268.48,2.37,2.40,2.36,2.39,-2.39,-2.33,-2.76,-0.01,-0.02,-0.02
271.16,2.33,2.34,2.35,2.35,-2.36,-2.29,-2.73,-0.02,-0.01,-0.00
273.87,2.33,2.32,2.34,2.32,-2.33,-2.25,-2.70,0.00,0.00,0.02
276.61,2.33,2.30,2.33,2.30,-2.30,-2.21,-2.67,0.03,0.03,0.04
279.38,2.33,2.28,2.34,2.28,-2.28,-2.17,-2.63,0.06,0.06,0.06
282.17,2.33,2.26,2.33,2.26,-2.25,-2.13,-2.60,0.09,0.08,0.08
284.99,2.32,2.23,2.32,2.22,-2.22,-2.08,-2.55,0.11,0.10,0.10
287.84,2.29,2.18,2.30,2.19,-2.19,-2.04,-2.51,0.10,0.11,0.12
290.72,2.28,2.15,2.29,2.16,-2.16,-2.00,-2.47,0.12,0.13,0.14
293.63,2.28,2.13,2.28,2.13,-2.13,-1.95,-2.42,0.16,0.15,0.16
296.57,2.28,2.11,2.27,2.10,-2.09,-1.91,-2.38,0.19,0.18,0.18
299.53,2.24,2.05,2.26,2.06,-2.06,-1.87,-2.33,0.19,0.20,0.20
302.53,2.23,2.02,2.24,2.02,-2.01,-1.82,-2.28,0.22,0.22,0.22
305.55,2.23,1.99,2.22,1.98,-1.97,-1.78,-2.24,0.26,0.25,0.25
308.61,2.19,1.93,2.20,1.93,-1.93,-1.74,-2.19,0.27,0.27,0.27
311.69,2.18,1.89,2.18,1.88,-1.88,-1.70,-2.14,0.30,0.30,0.30
314.81,2.14,1.82,2.15,1.83,-1.83,-1.65,-2.10,0.31,0.32,0.33
317.96,2.14,1.80,2.13,1.78,-1.79,-1.61,-2.05,0.36,0.34,0.35
321.14,2.09,1.73,2.11,1.74,-1.75,-1.57,-2.01,0.35,0.37,0.37
324.35,2.09,1.71,2.10,1.71,-1.71,-1.53,-1.96,0.39,0.39,0.39
327.59,2.09,1.69,2.07,1.67,-1.68,-1.49,-1.92,0.42,0.40,0.41
330.87,2.05,1.63,2.07,1.64,-1.65,-1.45,-1.88,0.40,0.42,0.43
334.18,2.05,1.61,2.07,1.62,-1.63,-1.42,-1.84,0.42,0.44,0.45
337.52,2.09,1.63,2.07,1.61,-1.62,-1.38,-1.80,0.48,0.46,0.47
340.90,2.09,1.61,2.10,1.61,-1.61,-1.34,-1.76,0.49,0.49,0.49
344.30,2.09,1.59,2.12,1.61,-1.60,-1.30,-1.72,0.50,0.52,0.51
347.75,2.14,1.62,2.13,1.60,-1.60,-1.27,-1.68,0.55,0.53,0.53
351.23,2.14,1.60,2.14,1.59,-1.59,-1.23,-1.65,0.55,0.54,0.55
354.74,2.14,1.58,2.15,1.59,-1.59,-1.20,-1.62,0.55,0.56,0.57
358.28,2.14,1.57,2.16,1.58,-1.59,-1.17,-1.58,0.56,0.57,0.58
361.87,2.19,1.60,2.18,1.58,-1.58,-1.13,-1.55,0.61,0.60,0.60
365.49,2.19,1.58,2.19,1.58,-1.57,-1.10,-1.52,0.62,0.62,0.62
369.14,2.19,1.57,2.20,1.57,-1.56,-1.07,-1.50,0.63,0.64,0.63
372.83,2.19,1.55,2.19,1.55,-1.55,-1.04,-1.47,0.64,0.64,0.65
376.56,2.19,1.54,2.19,1.54,-1.54,-1.01,-1.44,0.66,0.66,0.66
380.33,2.19,1.52,2.19,1.52,-1.53,-0.98,-1.42,0.67,0.67,0.68
384.13,2.19,1.51,2.19,1.51,-1.51,-0.95,-1.40,0.68,0.68,0.69
387.97,2.19,1.50,2.19,1.50,-1.50,-0.92,-1.37,0.70,0.70,0.70
391.85,2.19,1.49,2.19,1.49,-1.49,-0.90,-1.35,0.71,0.71,0.71
395.77,2.19,1.47,2.19,1.47,-1.47,-0.87,-1.33,0.72,0.72,0.73
399.73,2.19,1.46,2.19,1.46,-1.46,-0.84,-1.31,0.73,0.73,0.74
403.72,2.19,1.45,2.19,1.45,-1.45,-0.82,-1.30,0.74,0.74,0.75
407.76,2.19,1.44,2.19,1.44,-1.44,-0.79,-1.28,0.75,0.75,0.76
411.84,2.19,1.43,2.20,1.43,-1.43,-0.77,-1.26,0.77,0.77,0.77
415.96,2.19,1.42,2.19,1.42,-1.41,-0.74,-1.24,0.78,0.78,0.78
420.12,2.19,1.41,2.18,1.40,-1.39,-0.72,-1.23,0.80,0.79,0.79
424.32,2.15,1.36,2.16,1.37,-1.37,-0.70,-1.21,0.78,0.79,0.80
428.56,2.14,1.34,2.15,1.35,-1.35,-0.67,-1.20,0.79,0.80,0.81
432.85,2.14,1.33,2.14,1.32,-1.33,-0.65,-1.18,0.82,0.81,0.82
437.18,2.14,1.32,2.13,1.30,-1.30,-0.63,-1.17,0.85,0.83,0.83
441.55,2.09,1.25,2.11,1.27,-1.27,-0.61,-1.15,0.83,0.84,0.85
445.96,2.09,1.24,2.09,1.24,-1.24,-0.59,-1.14,0.86,0.86,0.86
450.42,2.06,1.20,2.07,1.20,-1.20,-0.57,-1.12,0.87,0.87,0.87
454.93,2.05,1.17,2.05,1.17,-1.16,-0.55,-1.11,0.90,0.89,0.89
459.48,2.00,1.11,2.01,1.12,-1.11,-0.53,-1.09,0.89,0.90,0.90
464.07,1.98,1.08,1.98,1.07,-1.07,-0.51,-1.07,0.92,0.91,0.91
468.71,1.93,1.01,1.94,1.01,-1.01,-0.49,-1.05,0.92,0.93,0.93
473.40,1.90,0.97,1.90,0.96,-0.95,-0.47,-1.03,0.95,0.94,0.94
478.13,1.84,0.89,1.85,0.90,-0.89,-0.45,-1.02,0.95,0.96,0.96
482.91,1.81,0.85,1.81,0.84,-0.84,-0.43,-0.99,0.98,0.97,0.97
487.74,1.76,0.78,1.76,0.78,-0.78,-0.41,-0.97,0.98,0.98,0.99
492.62,1.73,0.73,1.72,0.72,-0.74,-0.40,-0.95,1.00,0.99,1.01
497.55,1.67,0.66,1.69,0.67,-0.69,-0.38,-0.92,0.98,1.00,1.02
502.52,1.67,0.64,1.67,0.64,-0.66,-0.36,-0.90,1.02,1.02,1.04
507.55,1.67,0.63,1.67,0.62,-0.63,-0.34,-0.87,1.05,1.04,1.05
512.62,1.67,0.61,1.68,0.61,-0.60,-0.33,-0.84,1.07,1.07,1.07
517.75,1.67,0.59,1.68,0.59,-0.58,-0.31,-0.81,1.10,1.10,1.09
522.93,1.67,0.57,1.67,0.57,-0.55,-0.29,-0.78,1.12,1.12,1.11
528.16,1.65,0.54,1.66,0.54,-0.53,-0.27,-0.75,1.13,1.13,1.12
533.44,1.63,0.50,1.63,0.50,-0.49,-0.26,-0.72,1.14,1.14,1.14
538.77,1.61,0.46,1.61,0.46,-0.46,-0.24,-0.68,1.16,1.16,1.16
544.16,1.58,0.41,1.59,0.42,-0.42,-0.23,-0.65,1.16,1.17,1.18
