frequency,raw,error,smoothed,error_smoothed,equalization,parametric_eq,fixed_band_eq,equalized_raw,equalized_smoothed,target
20.00,14.84,2.58,14.84,2.58,-2.58,-3.00,-1.56,12.26,12.26,12.26
20.20,14.88,2.62,14.87,2.61,-2.61,-3.01,-1.60,12.27,12.26,12.26
20.40,14.91,2.65,14.91,2.65,-2.65,-3.02,-1.65,12.26,12.26,12.26
20.61,14.94,2.68,14.94,2.69,-2.69,-3.04,-1.70,12.25,12.26,12.26
20.81,14.98,2.73,14.98,2.72,-2.72,-3.05,-1.75,12.26,12.25,12.25
21.02,15.01,2.77,15.01,2.76,-2.76,-3.06,-1.80,12.25,12.25,12.25
21.23,15.03,2.79,15.04,2.79,-2.79,-3.07,-1.86,12.24,12.25,12.25
21.44,15.06,2.81,15.07,2.83,-2.83,-3.08,-1.91,12.23,12.24,12.25
21.66,15.10,2.86,15.11,2.87,-2.87,-3.10,-1.97,12.23,12.24,12.24
21.87,15.13,2.89,15.14,2.90,-2.90,-3.11,-2.03,12.23,12.24,12.24
22.09,15.16,2.93,15.17,2.94,-2.94,-3.12,-2.09,12.22,12.23,12.23
22.31,15.20,2.97,15.20,2.97,-2.97,-3.13,-2.15,12.23,12.23,12.23
22.54,15.23,3.01,15.23,3.01,-3.01,-3.14,-2.21,12.22,12.22,12.22
22.76,15.27,3.05,15.27,3.05,-3.05,-3.15,-2.28,12.22,12.22,12.22
22.99,15.30,3.08,15.30,3.09,-3.09,-3.16,-2.35,12.22,12.21,12.22
23.22,15.33,3.13,15.33,3.12,-3.12,-3.17,-2.41,12.21,12.21,12.21
23.45,15.36,3.16,15.36,3.16,-3.16,-3.18,-2.48,12.20,12.20,12.20
23.69,15.39,3.20,15.39,3.19,-3.19,-3.19,-2.56,12.20,12.19,12.19
23.92,15.42,3.24,15.42,3.23,-3.23,-3.20,-2.63,12.19,12.19,12.18
24.16,15.45,3.27,15.44,3.26,-3.26,-3.21,-2.70,12.19,12.18,12.18
24.40,15.47,3.29,15.47,3.29,-3.29,-3.22,-2.78,12.18,12.18,12.18
24.65,15.49,3.31,15.50,3.32,-3.32,-3.23,-2.85,12.17,12.18,12.18
24.89,15.52,3.35,15.52,3.35,-3.35,-3.24,-2.93,12.17,12.17,12.18
25.14,15.54,3.37,15.55,3.38,-3.38,-3.25,-3.01,12.16,12.17,12.17
25.39,15.57,3.41,15.57,3.40,-3.40,-3.26,-3.09,12.17,12.17,12.16
25.65,15.59,3.43,15.59,3.43,-3.43,-3.26,-3.17,12.16,12.17,12.16
25.91,15.61,3.45,15.62,3.45,-3.45,-3.27,-3.25,12.16,12.16,12.16
26.16,15.64,3.48,15.64,3.47,-3.47,-3.28,-3.33,12.17,12.16,12.17
26.43,15.66,3.50,15.66,3.50,-3.50,-3.29,-3.41,12.17,12.16,12.16
26.69,15.68,3.52,15.68,3.52,-3.52,-3.30,-3.48,12.17,12.16,12.16
26.96,15.70,3.54,15.70,3.54,-3.54,-3.30,-3.56,12.17,12.16,12.16
27.23,15.71,3.55,15.71,3.56,-3.56,-3.31,-3.64,12.16,12.16,12.16
27.50,15.72,3.57,15.73,3.57,-3.57,-3.32,-3.71,12.15,12.15,12.15
27.77,15.74,3.58,15.74,3.59,-3.59,-3.32,-3.78,12.15,12.15,12.16
28.05,15.76,3.61,15.76,3.61,-3.61,-3.33,-3.85,12.15,12.15,12.15
28.33,15.76,3.61,15.77,3.62,-3.62,-3.34,-3.92,12.14,12.14,12.15
28.62,15.78,3.65,15.78,3.64,-3.64,-3.34,-3.98,12.14,12.14,12.13
28.90,15.78,3.64,15.78,3.65,-3.65,-3.35,-4.04,12.13,12.13,12.14
29.19,15.79,3.66,15.79,3.66,-3.66,-3.35,-4.09,12.13,12.13,12.13
29.48,15.79,3.68,15.79,3.67,-3.67,-3.36,-4.14,12.12,12.12,12.11
29.78,15.80,3.69,15.80,3.68,-3.68,-3.36,-4.18,12.12,12.11,12.11
30.08,15.80,3.69,15.80,3.69,-3.69,-3.37,-4.22,12.11,12.11,12.11
30.38,15.79,3.70,15.80,3.69,-3.69,-3.37,-4.26,12.10,12.10,12.09
30.68,15.79,3.70,15.79,3.70,-3.70,-3.38,-4.28,12.09,12.10,12.09
30.99,15.78,3.70,15.79,3.70,-3.70,-3.38,-4.30,12.09,12.09,12.09
31.30,15.78,3.70,15.78,3.69,-3.69,-3.39,-4.32,12.09,12.09,12.08
31.61,15.77,3.69,15.77,3.69,-3.69,-3.39,-4.33,12.08,12.08,12.08
31.93,15.76,3.69,15.76,3.68,-3.68,-3.40,-4.33,12.08,12.08,12.07
32.24,15.75,3.67,15.75,3.67,-3.67,-3.40,-4.33,12.08,12.08,12.08
32.57,15.73,3.67,15.73,3.66,-3.66,-3.40,-4.32,12.07,12.07,12.06
32.89,15.72,3.65,15.72,3.65,-3.65,-3.41,-4.30,12.07,12.07,12.07
33.22,15.70,3.64,15.70,3.64,-3.64,-3.41,-4.29,12.06,12.06,12.06
33.55,15.67,3.61,15.68,3.63,-3.63,-3.41,-4.26,12.04,12.05,12.06
33.89,15.65,3.61,15.66,3.61,-3.61,-3.42,-4.23,12.04,12.04,12.04
34.23,15.63,3.60,15.63,3.60,-3.60,-3.42,-4.20,12.03,12.03,12.03
34.57,15.61,3.59,15.61,3.59,-3.59,-3.42,-4.16,12.02,12.01,12.02
34.92,15.58,3.59,15.58,3.58,-3.58,-3.42,-4.12,12.00,12.00,12.00
35.27,15.55,3.56,15.55,3.57,-3.57,-3.43,-4.08,11.98,11.98,11.99
35.62,15.52,3.57,15.52,3.57,-3.57,-3.43,-4.03,11.96,11.95,11.95
35.97,15.48,3.55,15.49,3.56,-3.56,-3.43,-3.98,11.92,11.93,11.94
36.33,15.45,3.54,15.45,3.55,-3.55,-3.43,-3.93,11.90,11.90,11.91
36.70,15.42,3.55,15.42,3.55,-3.55,-3.43,-3.88,11.87,11.87,11.87
37.06,15.38,3.54,15.38,3.54,-3.54,-3.43,-3.83,11.84,11.84,11.84
37.43,15.34,3.54,15.35,3.54,-3.54,-3.44,-3.78,11.80,11.81,11.80
37.81,15.31,3.53,15.31,3.53,-3.53,-3.44,-3.73,11.78,11.78,11.78
38.19,15.27,3.53,15.27,3.52,-3.52,-3.44,-3.68,11.75,11.74,11.74
38.57,15.23,3.52,15.23,3.52,-3.52,-3.44,-3.63,11.72,11.71,11.71
38.95,15.19,3.51,15.19,3.51,-3.51,-3.44,-3.57,11.68,11.68,11.68
39.34,15.14,3.50,15.14,3.50,-3.50,-3.44,-3.53,11.64,11.65,11.64
39.74,15.10,3.49,15.10,3.48,-3.48,-3.44,-3.48,11.62,11.62,11.61
40.14,15.05,3.47,15.05,3.47,-3.47,-3.44,-3.43,11.58,11.59,11.58
40.54,15.00,3.44,15.01,3.45,-3.45,-3.44,-3.39,11.55,11.56,11.56
40.94,14.96,3.43,14.96,3.43,-3.43,-3.44,-3.34,11.53,11.53,11.53
41.35,14.91,3.42,14.91,3.41,-3.41,-3.44,-3.30,11.50,11.50,11.50
41.76,14.86,3.40,14.86,3.39,-3.39,-3.43,-3.26,11.47,11.47,11.46
42.18,14.81,3.36,14.81,3.36,-3.36,-3.43,-3.23,11.45,11.44,11.45
42.60,14.75,3.33,14.75,3.34,-3.34,-3.43,-3.19,11.41,11.42,11.42
43.03,14.70,3.32,14.70,3.31,-3.31,-3.43,-3.16,11.39,11.39,11.38
43.46,14.65,3.29,14.65,3.28,-3.28,-3.43,-3.13,11.37,11.36,11.36
43.90,14.59,3.26,14.59,3.26,-3.26,-3.43,-3.10,11.33,11.34,11.34
44.33,14.53,3.23,14.54,3.23,-3.23,-3.43,-3.07,11.30,11.31,11.30
44.78,14.48,3.21,14.48,3.21,-3.21,-3.42,-3.05,11.28,11.27,11.28
45.23,14.42,3.16,14.43,3.18,-3.18,-3.42,-3.03,11.24,11.24,11.26
45.68,14.37,3.16,14.37,3.16,-3.16,-3.42,-3.01,11.21,11.21,11.21
46.13,14.31,3.15,14.31,3.14,-3.14,-3.42,-2.99,11.17,11.17,11.16
46.60,14.25,3.11,14.26,3.12,-3.12,-3.41,-2.98,11.13,11.13,11.14
47.06,14.20,3.10,14.20,3.11,-3.11,-3.41,-2.97,11.09,11.09,11.10
47.53,14.14,3.08,14.14,3.10,-3.10,-3.41,-2.96,11.05,11.05,11.06
48.01,14.08,3.08,14.08,3.08,-3.08,-3.40,-2.95,11.00,11.00,11.00
48.49,14.03,3.07,14.03,3.07,-3.07,-3.40,-2.95,10.96,10.95,10.96
48.97,13.97,3.06,13.97,3.06,-3.06,-3.40,-2.94,10.91,10.91,10.91
49.46,13.91,3.05,13.91,3.05,-3.05,-3.39,-2.94,10.86,10.86,10.87
49.96,13.86,3.07,13.85,3.05,-3.05,-3.39,-2.94,10.82,10.81,10.79
50.46,13.79,3.04,13.79,3.04,-3.04,-3.39,-2.94,10.75,10.76,10.75
50.96,13.73,3.04,13.74,3.03,-3.03,-3.38,-2.95,10.70,10.70,10.69
51.47,13.67,3.02,13.68,3.03,-3.03,-3.38,-2.95,10.65,10.65,10.65
51.99,13.62,3.03,13.62,3.02,-3.02,-3.37,-2.96,10.60,10.60,10.59
52.51,13.56,3.02,13.56,3.01,-3.01,-3.37,-2.97,10.55,10.55,10.55
53.03,13.50,2.99,13.50,3.01,-3.01,-3.36,-2.97,10.49,10.49,10.51
53.56,13.44,2.99,13.44,3.00,-3.00,-3.36,-2.98,10.44,10.44,10.45
54.10,13.39,3.00,13.39,3.00,-3.00,-3.35,-2.99,10.39,10.39,10.39
54.64,13.32,2.98,13.33,2.99,-2.99,-3.35,-3.01,10.33,10.34,10.34
55.18,13.27,2.99,13.27,2.98,-2.98,-3.34,-3.02,10.29,10.29,10.28
55.74,13.21,2.99,13.21,2.97,-2.97,-3.34,-3.03,10.24,10.24,10.23
56.29,13.16,2.98,13.16,2.97,-2.97,-3.33,-3.04,10.20,10.19,10.18
56.86,13.10,2.96,13.10,2.96,-2.96,-3.33,-3.05,10.14,10.14,10.14
57.42,13.04,2.97,13.04,2.95,-2.95,-3.32,-3.06,10.09,10.09,10.07
58.00,12.99,2.97,12.98,2.95,-2.95,-3.32,-3.07,10.04,10.03,10.03
58.58,12.93,2.94,12.93,2.95,-2.95,-3.31,-3.08,9.98,9.98,9.99
59.16,12.86,2.92,12.87,2.95,-2.95,-3.31,-3.09,9.91,9.92,9.94
59.76,12.81,2.92,12.81,2.95,-2.95,-3.30,-3.10,9.86,9.86,9.89
60.35,12.75,2.93,12.76,2.96,-2.96,-3.29,-3.11,9.79,9.80,9.82
60.96,12.70,2.95,12.70,2.96,-2.96,-3.29,-3.11,9.74,9.74,9.76
61.57,12.64,2.97,12.64,2.97,-2.97,-3.28,-3.12,9.68,9.68,9.67
62.18,12.58,2.98,12.59,2.97,-2.97,-3.28,-3.12,9.61,9.61,9.60
62.80,12.53,3.00,12.53,2.98,-2.98,-3.27,-3.12,9.55,9.54,9.53
63.43,12.47,3.02,12.47,2.99,-2.99,-3.26,-3.12,9.48,9.48,9.46
64.07,12.42,3.02,12.42,3.00,-3.00,-3.26,-3.12,9.42,9.41,9.40
64.71,12.36,3.02,12.36,3.01,-3.01,-3.25,-3.12,9.35,9.35,9.34
65.35,12.30,3.02,12.30,3.03,-3.03,-3.24,-3.12,9.28,9.28,9.28
66.01,12.25,3.04,12.25,3.04,-3.04,-3.24,-3.11,9.22,9.21,9.22
66.67,12.19,3.03,12.19,3.04,-3.04,-3.23,-3.11,9.15,9.15,9.16
67.33,12.13,3.04,12.14,3.05,-3.05,-3.23,-3.10,9.08,9.08,9.09
68.01,12.08,3.06,12.08,3.06,-3.06,-3.22,-3.10,9.02,9.02,9.02
68.69,12.03,3.08,12.03,3.07,-3.07,-3.21,-3.09,8.96,8.96,8.95
69.37,11.97,3.08,11.97,3.08,-3.08,-3.21,-3.08,8.89,8.89,8.90
70.07,11.91,3.08,11.92,3.09,-3.09,-3.20,-3.08,8.82,8.82,8.84
70.77,11.86,3.10,11.86,3.10,-3.10,-3.19,-3.07,8.76,8.76,8.76
71.48,11.81,3.12,11.81,3.12,-3.12,-3.19,-3.06,8.70,8.69,8.69
72.19,11.75,3.13,11.75,3.13,-3.13,-3.18,-3.05,8.62,8.62,8.62
72.91,11.69,3.14,11.69,3.14,-3.14,-3.17,-3.05,8.55,8.55,8.55
73.64,11.64,3.16,11.64,3.15,-3.15,-3.17,-3.04,8.49,8.49,8.48
74.38,11.58,3.17,11.58,3.16,-3.16,-3.16,-3.04,8.42,8.42,8.41
75.12,11.52,3.18,11.52,3.17,-3.17,-3.16,-3.04,8.35,8.35,8.34
75.87,11.47,3.18,11.47,3.18,-3.18,-3.15,-3.03,8.29,8.29,8.29
76.63,11.41,3.19,11.41,3.19,-3.19,-3.15,-3.03,8.22,8.22,8.22
77.40,11.35,3.20,11.35,3.20,-3.20,-3.14,-3.04,8.15,8.16,8.16
78.17,11.30,3.22,11.30,3.20,-3.20,-3.13,-3.04,8.10,8.09,8.08
78.95,11.23,3.19,11.24,3.21,-3.21,-3.13,-3.04,8.02,8.03,8.04
79.74,11.18,3.21,11.18,3.22,-3.22,-3.12,-3.05,7.96,7.97,7.97
80.54,11.12,3.22,11.13,3.22,-3.22,-3.12,-3.06,7.90,7.90,7.90
81.35,11.07,3.23,11.07,3.23,-3.23,-3.11,-3.07,7.84,7.84,7.84
82.16,11.01,3.23,11.01,3.23,-3.23,-3.11,-3.08,7.78,7.78,7.79
82.98,10.95,3.24,10.95,3.24,-3.24,-3.11,-3.10,7.71,7.72,7.71
83.81,10.90,3.25,10.90,3.25,-3.25,-3.10,-3.12,7.66,7.65,7.65
84.65,10.84,3.26,10.84,3.25,-3.25,-3.10,-3.14,7.59,7.59,7.58
85.50,10.78,3.27,10.78,3.26,-3.26,-3.10,-3.16,7.52,7.52,7.52
86.35,10.73,3.27,10.72,3.26,-3.26,-3.09,-3.18,7.47,7.46,7.46
87.22,10.66,3.27,10.67,3.27,-3.27,-3.09,-3.21,7.39,7.39,7.39
88.09,10.61,3.28,10.61,3.28,-3.28,-3.09,-3.24,7.33,7.33,7.33
88.97,10.54,3.28,10.55,3.29,-3.29,-3.09,-3.27,7.25,7.26,7.26
89.86,10.49,3.30,10.49,3.30,-3.30,-3.09,-3.31,7.19,7.19,7.19
90.76,10.43,3.31,10.43,3.31,-3.31,-3.09,-3.34,7.12,7.12,7.12
91.66,10.37,3.32,10.37,3.32,-3.32,-3.09,-3.38,7.05,7.05,7.05
92.58,10.31,3.33,10.31,3.34,-3.34,-3.09,-3.42,6.97,6.98,6.98
93.51,10.25,3.34,10.26,3.35,-3.35,-3.09,-3.47,6.90,6.90,6.91
94.44,10.20,3.36,10.20,3.37,-3.37,-3.09,-3.52,6.83,6.83,6.84
95.39,10.14,3.39,10.14,3.39,-3.39,-3.09,-3.56,6.75,6.75,6.76
96.34,10.08,3.41,10.08,3.41,-3.41,-3.09,-3.61,6.67,6.67,6.67
97.30,10.02,3.42,10.03,3.43,-3.43,-3.10,-3.67,6.59,6.59,6.60
98.28,9.97,3.47,9.97,3.46,-3.46,-3.10,-3.72,6.52,6.51,6.51
99.26,9.91,3.49,9.91,3.48,-3.48,-3.11,-3.78,6.43,6.43,6.42
100.25,9.86,3.52,9.85,3.50,-3.50,-3.11,-3.84,6.37,6.36,6.35
101.25,9.79,3.52,9.79,3.52,-3.52,-3.12,-3.89,6.28,6.28,6.27
102.27,9.74,3.55,9.74,3.53,-3.53,-3.13,-3.95,6.21,6.20,6.20
103.29,9.68,3.56,9.68,3.55,-3.55,-3.14,-4.01,6.13,6.13,6.12
104.32,9.62,3.57,9.62,3.57,-3.57,-3.15,-4.07,6.06,6.05,6.06
105.37,9.56,3.58,9.56,3.58,-3.58,-3.16,-4.13,5.98,5.98,5.98
106.42,9.50,3.59,9.50,3.59,-3.59,-3.17,-4.19,5.91,5.91,5.91
107.48,9.44,3.61,9.44,3.61,-3.61,-3.18,-4.25,5.83,5.84,5.83
108.56,9.38,3.62,9.38,3.62,-3.62,-3.20,-4.31,5.76,5.76,5.76
109.64,9.32,3.62,9.32,3.63,-3.63,-3.21,-4.37,5.69,5.69,5.70
110.74,9.26,3.64,9.26,3.65,-3.65,-3.23,-4.42,5.61,5.62,5.62
111.85,9.21,3.66,9.20,3.66,-3.66,-3.25,-4.48,5.55,5.54,5.55
112.97,9.15,3.68,9.15,3.68,-3.68,-3.27,-4.53,5.47,5.47,5.47
114.10,9.09,3.69,9.09,3.70,-3.70,-3.29,-4.57,5.40,5.39,5.40
115.24,9.02,3.70,9.02,3.71,-3.71,-3.31,-4.61,5.31,5.31,5.32
116.39,8.96,3.74,8.96,3.73,-3.73,-3.34,-4.65,5.23,5.23,5.22
117.55,8.90,3.75,8.90,3.75,-3.75,-3.36,-4.69,5.15,5.15,5.15
118.73,8.84,3.78,8.84,3.77,-3.77,-3.39,-4.71,5.07,5.07,5.06
119.92,8.78,3.80,8.78,3.80,-3.80,-3.42,-4.74,4.99,4.99,4.98
121.12,8.72,3.82,8.72,3.82,-3.82,-3.45,-4.75,4.90,4.90,4.91
122.33,8.66,3.85,8.66,3.85,-3.85,-3.49,-4.76,4.82,4.81,4.82
123.55,8.60,3.86,8.60,3.87,-3.87,-3.52,-4.77,4.73,4.73,4.74
124.79,8.54,3.88,8.54,3.89,-3.89,-3.56,-4.77,4.65,4.64,4.66
126.03,8.47,3.90,8.48,3.92,-3.92,-3.60,-4.76,4.55,4.56,4.57
127.29,8.41,3.94,8.42,3.94,-3.94,-3.64,-4.75,4.47,4.47,4.47
128.57,8.36,3.97,8.35,3.96,-3.96,-3.69,-4.73,4.40,4.39,4.39
129.85,8.29,3.99,8.29,3.99,-3.99,-3.73,-4.70,4.31,4.31,4.30
131.15,8.24,4.02,8.23,4.01,-4.01,-3.78,-4.67,4.23,4.23,4.22
132.46,8.17,4.04,8.17,4.03,-4.03,-3.83,-4.63,4.15,4.15,4.13
133.79,8.11,4.05,8.11,4.04,-4.04,-3.88,-4.59,4.07,4.07,4.06
135.12,8.05,4.07,8.05,4.06,-4.06,-3.93,-4.54,3.99,3.99,3.98
136.48,7.99,4.07,8.00,4.08,-4.08,-3.99,-4.49,3.92,3.92,3.92
137.84,7.94,4.09,7.94,4.09,-4.09,-4.05,-4.43,3.85,3.85,3.85
139.22,7.88,4.11,7.88,4.10,-4.10,-4.10,-4.37,3.78,3.78,3.77
140.61,7.82,4.10,7.83,4.11,-4.11,-4.16,-4.30,3.71,3.72,3.72
142.02,7.77,4.12,7.77,4.12,-4.12,-4.22,-4.24,3.65,3.65,3.65
143.44,7.72,4.13,7.72,4.13,-4.13,-4.28,-4.17,3.59,3.59,3.59
144.87,7.67,4.14,7.67,4.14,-4.14,-4.34,-4.10,3.53,3.53,3.54
146.32,7.62,4.15,7.62,4.15,-4.15,-4.40,-4.03,3.47,3.47,3.47
147.78,7.57,4.16,7.57,4.16,-4.16,-4.46,-3.95,3.41,3.41,3.41
149.26,7.52,4.17,7.52,4.17,-4.17,-4.52,-3.88,3.35,3.35,3.35
150.75,7.47,4.19,7.47,4.18,-4.18,-4.58,-3.81,3.29,3.29,3.29
152.26,7.43,4.19,7.43,4.19,-4.19,-4.63,-3.73,3.24,3.23,3.24
153.78,7.38,4.21,7.38,4.21,-4.21,-4.68,-3.66,3.17,3.17,3.17
155.32,7.34,4.22,7.34,4.23,-4.23,-4.73,-3.59,3.12,3.11,3.12
156.88,7.29,4.23,7.30,4.25,-4.25,-4.77,-3.52,3.05,3.05,3.06
158.44,7.26,4.27,7.26,4.27,-4.27,-4.81,-3.45,2.99,2.99,3.00
160.03,7.22,4.29,7.22,4.29,-4.29,-4.84,-3.38,2.93,2.93,2.94
161.63,7.18,4.31,7.19,4.32,-4.32,-4.86,-3.31,2.86,2.87,2.88
163.24,7.15,4.35,7.16,4.35,-4.35,-4.88,-3.24,2.80,2.81,2.80
164.88,7.12,4.38,7.13,4.38,-4.38,-4.89,-3.18,2.74,2.74,2.74
166.53,7.10,4.42,7.10,4.42,-4.42,-4.89,-3.12,2.68,2.68,2.68
168.19,7.06,4.44,7.07,4.46,-4.46,-4.89,-3.06,2.61,2.62,2.62
169.87,7.04,4.48,7.05,4.49,-4.49,-4.87,-3.00,2.55,2.56,2.56
171.57,7.02,4.53,7.03,4.53,-4.53,-4.85,-2.94,2.49,2.50,2.49
173.29,7.00,4.57,7.00,4.57,-4.57,-4.82,-2.89,2.43,2.44,2.43
175.02,6.97,4.60,6.98,4.61,-4.61,-4.78,-2.83,2.37,2.38,2.37
176.77,6.95,4.64,6.96,4.64,-4.64,-4.73,-2.78,2.31,2.32,2.31
178.54,6.92,4.66,6.93,4.67,-4.67,-4.67,-2.74,2.25,2.26,2.26
180.32,6.89,4.70,6.90,4.70,-4.70,-4.61,-2.69,2.19,2.20,2.19
182.13,6.85,4.71,6.86,4.72,-4.72,-4.54,-2.65,2.13,2.14,2.14
183.95,6.81,4.72,6.81,4.73,-4.73,-4.46,-2.61,2.08,2.08,2.09
185.79,6.77,4.75,6.76,4.74,-4.74,-4.37,-2.57,2.04,2.02,2.03
187.65,6.71,4.74,6.69,4.73,-4.73,-4.29,-2.53,1.99,1.97,1.98
189.52,6.63,4.71,6.61,4.70,-4.70,-4.19,-2.49,1.93,1.91,1.92
191.42,6.55,4.69,6.52,4.66,-4.66,-4.10,-2.46,1.89,1.86,1.86
193.33,6.46,4.66,6.42,4.61,-4.61,-4.00,-2.43,1.85,1.80,1.80
195.27,6.33,4.59,6.30,4.55,-4.55,-3.90,-2.40,1.78,1.75,1.75
197.22,6.20,4.51,6.17,4.47,-4.47,-3.79,-2.37,1.73,1.70,1.69
199.19,6.05,4.40,6.03,4.38,-4.38,-3.69,-2.34,1.68,1.65,1.65
201.18,5.89,4.30,5.87,4.27,-4.27,-3.58,-2.32,1.62,1.60,1.60
203.19,5.72,4.17,5.71,4.16,-4.16,-3.48,-2.30,1.56,1.56,1.55
205.23,5.53,4.02,5.54,4.04,-4.04,-3.37,-2.27,1.50,1.51,1.51
207.28,5.35,3.88,5.37,3.90,-3.90,-3.27,-2.25,1.45,1.46,1.47
209.35,5.16,3.74,5.19,3.77,-3.77,-3.17,-2.23,1.39,1.42,1.42
211.44,4.99,3.60,5.01,3.63,-3.63,-3.06,-2.21,1.36,1.38,1.39
213.56,4.81,3.47,4.83,3.49,-3.49,-2.96,-2.19,1.32,1.34,1.34
215.69,4.63,3.33,4.65,3.35,-3.35,-2.86,-2.17,1.28,1.30,1.30
217.85,4.46,3.19,4.48,3.21,-3.21,-2.76,-2.15,1.25,1.27,1.27
220.03,4.29,3.07,4.30,3.07,-3.07,-2.67,-2.14,1.22,1.23,1.22
222.23,4.13,2.94,4.13,2.94,-2.94,-2.57,-2.12,1.19,1.19,1.19
224.45,3.96,2.81,3.97,2.81,-2.81,-2.48,-2.10,1.15,1.16,1.16
226.70,3.79,2.67,3.80,2.67,-2.67,-2.39,-2.08,1.12,1.13,1.12
228.96,3.63,2.53,3.64,2.54,-2.54,-2.30,-2.06,1.09,1.09,1.10
231.25,3.48,2.41,3.47,2.41,-2.41,-2.22,-2.04,1.07,1.06,1.07
233.57,3.31,2.27,3.31,2.27,-2.27,-2.13,-2.02,1.04,1.04,1.04
235.90,3.15,2.15,3.14,2.14,-2.14,-2.05,-2.00,1.02,1.01,1.00
238.26,2.99,2.02,2.98,1.99,-1.99,-1.97,-1.97,1.00,0.98,0.97
240.64,2.82,1.86,2.81,1.85,-1.85,-1.89,-1.95,0.97,0.96,0.97
243.05,2.66,1.72,2.64,1.70,-1.70,-1.82,-1.92,0.96,0.94,0.94
245.48,2.48,1.57,2.47,1.56,-1.56,-1.74,-1.89,0.93,0.92,0.91
247.93,2.31,1.43,2.30,1.40,-1.40,-1.67,-1.86,0.91,0.90,0.88
250.41,2.14,1.26,2.13,1.25,-1.25,-1.60,-1.83,0.89,0.88,0.88
252.92,1.96,1.10,1.96,1.10,-1.10,-1.53,-1.80,0.86,0.86,0.86
255.45,1.78,0.94,1.78,0.95,-0.95,-1.47,-1.76,0.84,0.84,0.84
258.00,1.61,0.79,1.61,0.79,-0.79,-1.40,-1.73,0.82,0.82,0.82
260.58,1.44,0.63,1.45,0.64,-0.64,-1.34,-1.69,0.80,0.80,0.81
263.19,1.28,0.49,1.28,0.49,-0.49,-1.28,-1.65,0.79,0.79,0.79
265.82,1.12,0.35,1.12,0.35,-0.35,-1.21,-1.61,0.78,0.77,0.78
268.48,0.96,0.20,0.96,0.21,-0.21,-1.15,-1.57,0.75,0.76,0.76
271.16,0.82,0.08,0.82,0.07,-0.07,-1.10,-1.52,0.75,0.74,0.74
273.87,0.67,-0.06,0.67,-0.05,0.05,-1.04,-1.47,0.72,0.73,0.73
276.61,0.54,-0.17,0.54,-0.17,0.17,-0.98,-1.43,0.71,0.71,0.71
279.38,0.41,-0.28,0.42,-0.28,0.28,-0.93,-1.38,0.69,0.70,0.69
282.17,0.30,-0.38,0.31,-0.38,0.38,-0.88,-1.33,0.68,0.68,0.68
284.99,0.19,-0.49,0.21,-0.47,0.47,-0.82,-1.28,0.66,0.67,0.68
287.84,0.10,-0.57,0.12,-0.54,0.54,-0.77,-1.23,0.65,0.66,0.67
290.72,0.03,-0.61,0.04,-0.61,0.61,-0.72,-1.17,0.64,0.65,0.64
293.63,-0.04,-0.68,-0.03,-0.67,0.67,-0.67,-1.12,0.63,0.64,0.64
296.57,-0.09,-0.72,-0.08,-0.71,0.71,-0.62,-1.07,0.62,0.63,0.63
299.53,-0.13,-0.75,-0.12,-0.74,0.74,-0.57,-1.01,0.61,0.62,0.62
302.53,-0.17,-0.78,-0.15,-0.77,0.77,-0.53,-0.96,0.60,0.61,0.62
305.55,-0.18,-0.79,-0.17,-0.78,0.78,-0.48,-0.90,0.60,0.61,0.61
308.61,-0.19,-0.79,-0.18,-0.78,0.78,-0.44,-0.85,0.59,0.60,0.60
311.69,-0.18,-0.77,-0.18,-0.77,0.77,-0.39,-0.79,0.59,0.60,0.59
314.81,-0.17,-0.76,-0.17,-0.76,0.76,-0.35,-0.74,0.59,0.59,0.59
317.96,-0.15,-0.73,-0.15,-0.74,0.74,-0.30,-0.68,0.59,0.58,0.58
321.14,-0.13,-0.71,-0.13,-0.71,0.71,-0.26,-0.63,0.58,0.58,0.59
324.35,-0.11,-0.68,-0.10,-0.68,0.68,-0.22,-0.57,0.57,0.58,0.57
327.59,-0.07,-0.65,-0.07,-0.65,0.65,-0.17,-0.52,0.58,0.57,0.58
330.87,-0.04,-0.62,-0.04,-0.61,0.61,-0.13,-0.46,0.57,0.57,0.58
334.18,0.00,-0.56,-0.01,-0.58,0.58,-0.09,-0.41,0.58,0.57,0.56
337.52,0.03,-0.54,0.03,-0.54,0.54,-0.05,-0.35,0.57,0.57,0.57
340.90,0.07,-0.49,0.06,-0.51,0.51,-0.01,-0.30,0.58,0.57,0.56
344.30,0.10,-0.47,0.09,-0.47,0.47,0.03,-0.24,0.58,0.57,0.57
347.75,0.13,-0.44,0.12,-0.44,0.44,0.07,-0.18,0.57,0.57,0.57
351.23,0.16,-0.40,0.15,-0.41,0.41,0.11,-0.13,0.57,0.57,0.56
354.74,0.18,-0.39,0.18,-0.39,0.39,0.15,-0.07,0.57,0.57,0.57
358.28,0.20,-0.36,0.20,-0.36,0.36,0.19,-0.02,0.56,0.56,0.56
361.87,0.23,-0.33,0.22,-0.34,0.34,0.23,0.04,0.57,0.56,0.57
365.49,0.24,-0.32,0.24,-0.32,0.32,0.27,0.09,0.56,0.56,0.56
369.14,0.25,-0.32,0.25,-0.31,0.31,0.31,0.15,0.56,0.56,0.57
372.83,0.27,-0.29,0.26,-0.30,0.30,0.34,0.20,0.57,0.56,0.57
376.56,0.27,-0.29,0.27,-0.29,0.29,0.38,0.26,0.56,0.56,0.56
380.33,0.28,-0.28,0.28,-0.28,0.28,0.42,0.31,0.57,0.56,0.56
384.13,0.28,-0.27,0.28,-0.28,0.28,0.46,0.37,0.56,0.56,0.56
387.97,0.28,-0.28,0.28,-0.28,0.28,0.50,0.42,0.56,0.56,0.56
391.85,0.27,-0.29,0.27,-0.29,0.29,0.53,0.47,0.56,0.56,0.56
395.77,0.26,-0.30,0.27,-0.29,0.29,0.57,0.53,0.55,0.56,0.56
399.73,0.26,-0.29,0.26,-0.30,0.30,0.61,0.58,0.56,0.56,0.55
403.72,0.24,-0.32,0.25,-0.31,0.31,0.65,0.64,0.55,0.56,0.56
407.76,0.23,-0.33,0.23,-0.32,0.32,0.68,0.69,0.56,0.56,0.56
411.84,0.22,-0.34,0.22,-0.34,0.34,0.72,0.74,0.56,0.56,0.56
415.96,0.20,-0.36,0.20,-0.36,0.36,0.76,0.80,0.56,0.56,0.56
420.12,0.17,-0.38,0.18,-0.38,0.38,0.79,0.85,0.55,0.55,0.55
424.32,0.15,-0.40,0.15,-0.40,0.40,0.83,0.90,0.55,0.55,0.55
428.56,0.13,-0.43,0.13,-0.42,0.42,0.87,0.95,0.56,0.55,0.56
432.85,0.10,-0.45,0.10,-0.45,0.45,0.91,1.00,0.55,0.55,0.56
437.18,0.07,-0.47,0.07,-0.48,0.48,0.94,1.05,0.55,0.55,0.54
441.55,0.04,-0.50,0.04,-0.51,0.51,0.98,1.10,0.55,0.55,0.54
445.96,0.00,-0.54,0.00,-0.54,0.54,1.02,1.15,0.54,0.54,0.54
450.42,-0.03,-0.57,-0.03,-0.57,0.57,1.05,1.19,0.54,0.54,0.54
454.93,-0.07,-0.61,-0.07,-0.61,0.61,1.09,1.24,0.54,0.54,0.54
459.48,-0.11,-0.64,-0.10,-0.64,0.64,1.13,1.28,0.54,0.54,0.54
464.07,-0.15,-0.69,-0.14,-0.68,0.68,1.16,1.32,0.53,0.54,0.54
468.71,-0.18,-0.72,-0.18,-0.72,0.72,1.20,1.36,0.54,0.54,0.54
473.40,-0.22,-0.76,-0.22,-0.76,0.76,1.24,1.40,0.54,0.54,0.54
478.13,-0.27,-0.81,-0.26,-0.80,0.80,1.28,1.43,0.53,0.54,0.54
482.91,-0.30,-0.84,-0.31,-0.85,0.85,1.31,1.47,0.55,0.54,0.54
487.74,-0.35,-0.90,-0.35,-0.89,0.89,1.35,1.50,0.54,0.54,0.55
