frequency,raw,error,smoothed,error_smoothed,equalization,parametric_eq,fixed_band_eq,equalized_raw,equalized_smoothed,target
20.00,4.03,-3.67,4.03,-3.68,3.68,3.38,1.36,7.71,7.71,7.71
20.20,4.05,-3.64,4.05,-3.64,3.64,3.38,1.40,7.70,7.70,7.70
20.40,4.07,-3.61,4.07,-3.61,3.61,3.37,1.44,7.68,7.68,7.69
20.61,4.09,-3.58,4.09,-3.58,3.58,3.37,1.49,7.67,7.67,7.68
20.81,4.11,-3.54,4.11,-3.55,3.55,3.36,1.53,7.66,7.66,7.65
21.02,4.13,-3.51,4.13,-3.52,3.52,3.36,1.58,7.65,7.65,7.64
21.23,4.15,-3.48,4.15,-3.48,3.48,3.35,1.62,7.64,7.64,7.63
21.44,4.17,-3.47,4.17,-3.46,3.46,3.34,1.67,7.63,7.63,7.64
21.66,4.19,-3.43,4.19,-3.43,3.43,3.34,1.72,7.62,7.62,7.62
21.87,4.21,-3.41,4.21,-3.40,3.40,3.33,1.77,7.61,7.61,7.62
22.09,4.23,-3.37,4.23,-3.37,3.37,3.32,1.82,7.61,7.60,7.60
22.31,4.25,-3.34,4.25,-3.35,3.35,3.31,1.88,7.60,7.60,7.60
22.54,4.26,-3.32,4.27,-3.32,3.32,3.31,1.93,7.58,7.59,7.59
22.76,4.28,-3.30,4.29,-3.30,3.30,3.30,1.99,7.58,7.58,7.59
22.99,4.30,-3.27,4.31,-3.27,3.27,3.29,2.04,7.58,7.58,7.57
23.22,4.32,-3.24,4.32,-3.25,3.25,3.28,2.10,7.57,7.57,7.56
23.45,4.34,-3.23,4.34,-3.22,3.22,3.27,2.16,7.57,7.57,7.57
23.69,4.36,-3.20,4.36,-3.20,3.20,3.26,2.22,7.57,7.56,7.56
23.92,4.37,-3.18,4.38,-3.18,3.18,3.25,2.29,7.55,7.56,7.55
24.16,4.39,-3.16,4.39,-3.16,3.16,3.24,2.35,7.55,7.55,7.56
24.40,4.41,-3.14,4.41,-3.14,3.14,3.23,2.41,7.55,7.55,7.56
24.65,4.43,-3.12,4.43,-3.12,3.12,3.22,2.48,7.55,7.55,7.55
24.89,4.44,-3.11,4.45,-3.10,3.10,3.21,2.54,7.55,7.55,7.55
25.14,4.46,-3.08,4.46,-3.08,3.08,3.20,2.61,7.55,7.54,7.54
25.39,4.47,-3.07,4.48,-3.06,3.06,3.19,2.67,7.54,7.54,7.54
25.65,4.49,-3.04,4.49,-3.05,3.05,3.18,2.74,7.54,7.54,7.54
25.91,4.50,-3.03,4.51,-3.03,3.03,3.16,2.80,7.53,7.54,7.54
26.16,4.52,-3.02,4.53,-3.01,3.01,3.15,2.87,7.54,7.54,7.54
26.43,4.54,-3.00,4.54,-3.00,3.00,3.14,2.93,7.54,7.54,7.54
26.69,4.55,-2.99,4.56,-2.98,2.98,3.13,2.99,7.54,7.54,7.54
26.96,4.57,-2.96,4.57,-2.97,2.97,3.11,3.05,7.54,7.54,7.54
27.23,4.58,-2.95,4.58,-2.96,2.96,3.10,3.11,7.54,7.54,7.53
27.50,4.60,-2.93,4.60,-2.94,2.94,3.08,3.17,7.55,7.54,7.53
27.77,4.61,-2.93,4.61,-2.93,2.93,3.07,3.22,7.54,7.54,7.54
28.05,4.62,-2.91,4.62,-2.92,2.92,3.06,3.28,7.54,7.54,7.54
28.33,4.63,-2.91,4.64,-2.90,2.90,3.04,3.33,7.54,7.54,7.54
28.62,4.64,-2.90,4.65,-2.89,2.89,3.03,3.37,7.54,7.54,7.54
28.90,4.66,-2.88,4.66,-2.88,2.88,3.01,3.41,7.54,7.54,7.55
29.19,4.67,-2.87,4.67,-2.87,2.87,2.99,3.45,7.54,7.54,7.55
29.48,4.68,-2.86,4.68,-2.85,2.85,2.98,3.48,7.54,7.54,7.54
29.78,4.69,-2.85,4.70,-2.84,2.84,2.96,3.51,7.53,7.53,7.54
30.08,4.70,-2.83,4.71,-2.83,2.83,2.94,3.53,7.53,7.53,7.54
30.38,4.71,-2.81,4.71,-2.81,2.81,2.93,3.55,7.53,7.53,7.52
30.68,4.72,-2.79,4.72,-2.80,2.80,2.91,3.56,7.52,7.52,7.52
30.99,4.73,-2.78,4.73,-2.79,2.79,2.89,3.56,7.52,7.52,7.51
31.30,4.74,-2.77,4.74,-2.77,2.77,2.87,3.56,7.52,7.51,7.51
31.61,4.74,-2.76,4.74,-2.76,2.76,2.85,3.56,7.50,7.50,7.51
31.93,4.75,-2.73,4.75,-2.75,2.75,2.83,3.55,7.50,7.49,7.48
32.24,4.75,-2.73,4.75,-2.73,2.73,2.82,3.53,7.49,7.48,7.49
32.57,4.75,-2.72,4.76,-2.72,2.72,2.80,3.51,7.47,7.48,7.47
32.89,4.75,-2.71,4.76,-2.71,2.71,2.78,3.48,7.46,7.47,7.47
33.22,4.75,-2.71,4.76,-2.70,2.70,2.76,3.45,7.45,7.46,7.46
33.55,4.76,-2.69,4.77,-2.69,2.69,2.73,3.41,7.45,7.45,7.46
33.89,4.76,-2.68,4.77,-2.68,2.68,2.71,3.37,7.44,7.44,7.44
34.23,4.76,-2.66,4.77,-2.67,2.67,2.69,3.33,7.43,7.43,7.43
34.57,4.77,-2.65,4.77,-2.65,2.65,2.67,3.28,7.43,7.42,7.42
34.92,4.77,-2.63,4.77,-2.64,2.64,2.65,3.23,7.42,7.41,7.40
35.27,4.77,-2.64,4.77,-2.63,2.63,2.62,3.17,7.41,7.40,7.42
35.62,4.77,-2.62,4.77,-2.62,2.62,2.60,3.12,7.39,7.39,7.39
35.97,4.77,-2.61,4.77,-2.61,2.61,2.58,3.06,7.38,7.37,7.38
36.33,4.77,-2.59,4.77,-2.59,2.59,2.55,3.00,7.37,7.36,7.37
36.70,4.76,-2.58,4.76,-2.58,2.58,2.53,2.94,7.34,7.34,7.34
37.06,4.76,-2.56,4.76,-2.56,2.56,2.51,2.88,7.33,7.32,7.32
37.43,4.75,-2.55,4.76,-2.55,2.55,2.48,2.81,7.30,7.30,7.30
37.81,4.74,-2.54,4.75,-2.53,2.53,2.46,2.75,7.27,7.28,7.28
38.19,4.74,-2.51,4.75,-2.51,2.51,2.43,2.68,7.25,7.26,7.26
38.57,4.74,-2.49,4.75,-2.49,2.49,2.40,2.62,7.23,7.24,7.24
38.95,4.74,-2.47,4.75,-2.47,2.47,2.38,2.56,7.21,7.21,7.22
39.34,4.74,-2.44,4.74,-2.44,2.44,2.35,2.49,7.19,7.19,7.19
39.74,4.74,-2.41,4.74,-2.42,2.42,2.32,2.43,7.17,7.16,7.16
40.14,4.74,-2.39,4.74,-2.40,2.40,2.29,2.37,7.14,7.14,7.14
40.54,4.74,-2.37,4.74,-2.37,2.37,2.27,2.31,7.12,7.11,7.12
40.94,4.74,-2.34,4.74,-2.35,2.35,2.24,2.25,7.09,7.09,7.09
41.35,4.74,-2.32,4.74,-2.32,2.32,2.21,2.19,7.07,7.07,7.06
41.76,4.74,-2.29,4.74,-2.30,2.30,2.18,2.14,7.04,7.04,7.03
42.18,4.74,-2.27,4.74,-2.27,2.27,2.15,2.08,7.01,7.01,7.02
42.60,4.74,-2.24,4.74,-2.24,2.24,2.12,2.03,6.99,6.99,6.99
43.03,4.74,-2.22,4.74,-2.22,2.22,2.09,1.97,6.96,6.96,6.96
43.46,4.74,-2.18,4.74,-2.19,2.19,2.06,1.92,6.93,6.93,6.93
43.90,4.74,-2.16,4.74,-2.16,2.16,2.03,1.87,6.90,6.90,6.90
44.33,4.74,-2.12,4.74,-2.13,2.13,1.99,1.82,6.87,6.87,6.87
44.78,4.74,-2.10,4.74,-2.10,2.10,1.96,1.78,6.84,6.84,6.84
45.23,4.74,-2.07,4.74,-2.06,2.06,1.93,1.73,6.81,6.81,6.82
45.68,4.74,-2.03,4.74,-2.03,2.03,1.90,1.69,6.77,6.77,6.77
46.13,4.74,-1.99,4.74,-1.99,1.99,1.86,1.64,6.73,6.73,6.73
46.60,4.74,-1.95,4.74,-1.95,1.95,1.83,1.60,6.69,6.69,6.69
47.06,4.74,-1.91,4.75,-1.90,1.90,1.80,1.56,6.65,6.65,6.66
47.53,4.74,-1.87,4.75,-1.86,1.86,1.76,1.53,6.60,6.61,6.62
48.01,4.74,-1.81,4.75,-1.81,1.81,1.73,1.49,6.55,6.56,6.56
48.49,4.74,-1.77,4.75,-1.76,1.76,1.69,1.45,6.51,6.52,6.52
48.97,4.75,-1.71,4.76,-1.71,1.71,1.65,1.42,6.47,6.47,6.46
49.46,4.75,-1.67,4.76,-1.66,1.66,1.62,1.38,6.42,6.42,6.42
49.96,4.76,-1.60,4.76,-1.62,1.62,1.58,1.35,6.38,6.38,6.36
50.46,4.76,-1.56,4.76,-1.57,1.57,1.54,1.32,6.33,6.33,6.33
50.96,4.77,-1.51,4.77,-1.52,1.52,1.51,1.29,6.29,6.28,6.28
51.47,4.77,-1.46,4.77,-1.47,1.47,1.47,1.26,6.24,6.24,6.24
51.99,4.77,-1.41,4.77,-1.42,1.42,1.43,1.23,6.20,6.19,6.18
52.51,4.76,-1.38,4.76,-1.38,1.38,1.39,1.20,6.14,6.14,6.14
53.03,4.76,-1.34,4.76,-1.34,1.34,1.35,1.18,6.10,6.09,6.11
53.56,4.75,-1.30,4.75,-1.30,1.30,1.31,1.15,6.05,6.05,6.06
54.10,4.74,-1.25,4.74,-1.26,1.26,1.27,1.12,6.00,6.00,6.00
54.64,4.73,-1.22,4.74,-1.22,1.22,1.23,1.10,5.96,5.96,5.96
55.18,4.72,-1.18,4.72,-1.19,1.19,1.19,1.07,5.91,5.91,5.91
55.74,4.71,-1.14,4.71,-1.16,1.16,1.15,1.04,5.87,5.87,5.85
56.29,4.69,-1.13,4.69,-1.13,1.13,1.11,1.02,5.82,5.82,5.82
56.86,4.67,-1.10,4.68,-1.10,1.10,1.07,0.99,5.77,5.78,5.78
57.42,4.66,-1.06,4.66,-1.07,1.07,1.03,0.96,5.73,5.73,5.72
58.00,4.64,-1.03,4.64,-1.04,1.04,0.99,0.94,5.68,5.68,5.67
58.58,4.62,-1.01,4.62,-1.01,1.01,0.94,0.91,5.63,5.63,5.64
59.16,4.60,-0.99,4.60,-0.98,0.98,0.90,0.88,5.58,5.58,5.60
59.76,4.58,-0.96,4.58,-0.94,0.94,0.86,0.85,5.53,5.52,5.55
60.35,4.56,-0.92,4.56,-0.91,0.91,0.81,0.82,5.47,5.47,5.49
60.96,4.53,-0.89,4.54,-0.87,0.87,0.77,0.79,5.41,5.41,5.42
61.57,4.51,-0.84,4.52,-0.83,0.83,0.72,0.76,5.35,5.35,5.35
62.18,4.49,-0.79,4.50,-0.79,0.79,0.68,0.73,5.29,5.29,5.29
62.80,4.48,-0.74,4.48,-0.75,0.75,0.63,0.69,5.23,5.23,5.22
63.43,4.46,-0.69,4.46,-0.71,0.71,0.59,0.66,5.17,5.17,5.15
64.07,4.44,-0.65,4.45,-0.66,0.66,0.54,0.63,5.10,5.11,5.09
64.71,4.43,-0.60,4.44,-0.61,0.61,0.50,0.59,5.04,5.04,5.04
65.35,4.42,-0.55,4.42,-0.55,0.55,0.45,0.55,4.98,4.98,4.97
66.01,4.41,-0.50,4.42,-0.50,0.50,0.40,0.51,4.91,4.91,4.91
66.67,4.40,-0.46,4.41,-0.44,0.44,0.36,0.47,4.84,4.85,4.86
67.33,4.40,-0.38,4.41,-0.38,0.38,0.31,0.43,4.78,4.79,4.78
68.01,4.39,-0.34,4.41,-0.31,0.31,0.26,0.39,4.71,4.72,4.73
68.69,4.40,-0.26,4.41,-0.25,0.25,0.22,0.35,4.65,4.66,4.66
69.37,4.40,-0.20,4.41,-0.18,0.18,0.17,0.31,4.58,4.59,4.60
70.07,4.41,-0.12,4.42,-0.11,0.11,0.12,0.26,4.52,4.53,4.53
70.77,4.42,-0.04,4.42,-0.04,0.04,0.07,0.22,4.46,4.46,4.46
71.48,4.42,0.02,4.43,0.03,-0.03,0.02,0.17,4.39,4.39,4.40
72.19,4.43,0.11,4.43,0.11,-0.11,-0.03,0.12,4.33,4.33,4.33
72.91,4.44,0.19,4.43,0.17,-0.17,-0.08,0.08,4.27,4.26,4.25
73.64,4.44,0.26,4.43,0.24,-0.24,-0.13,0.03,4.20,4.19,4.18
74.38,4.44,0.33,4.43,0.31,-0.31,-0.18,-0.02,4.14,4.13,4.12
75.12,4.44,0.39,4.43,0.36,-0.36,-0.22,-0.07,4.08,4.06,4.06
75.87,4.42,0.43,4.42,0.42,-0.42,-0.27,-0.12,4.00,4.00,4.00
76.63,4.41,0.49,4.40,0.47,-0.47,-0.32,-0.17,3.94,3.93,3.93
77.40,4.39,0.52,4.39,0.52,-0.52,-0.38,-0.23,3.88,3.87,3.87
78.17,4.37,0.57,4.37,0.56,-0.56,-0.43,-0.28,3.81,3.81,3.80
78.95,4.35,0.60,4.35,0.60,-0.60,-0.48,-0.33,3.76,3.75,3.76
79.74,4.32,0.63,4.32,0.64,-0.64,-0.53,-0.39,3.69,3.69,3.69
80.54,4.29,0.66,4.30,0.67,-0.67,-0.58,-0.44,3.62,3.63,3.63
81.35,4.27,0.71,4.27,0.71,-0.71,-0.63,-0.50,3.57,3.56,3.56
82.16,4.24,0.73,4.25,0.74,-0.74,-0.68,-0.55,3.50,3.50,3.51
82.98,4.21,0.77,4.22,0.78,-0.78,-0.73,-0.61,3.43,3.44,3.44
83.81,4.19,0.81,4.20,0.82,-0.82,-0.78,-0.67,3.37,3.38,3.38
84.65,4.16,0.86,4.18,0.87,-0.87,-0.83,-0.73,3.30,3.31,3.31
85.50,4.14,0.90,4.16,0.91,-0.91,-0.88,-0.78,3.23,3.25,3.24
86.35,4.12,0.95,4.14,0.96,-0.96,-0.93,-0.84,3.16,3.18,3.18
87.22,4.11,1.00,4.13,1.01,-1.01,-0.99,-0.90,3.10,3.11,3.11
88.09,4.10,1.06,4.11,1.07,-1.07,-1.04,-0.97,3.04,3.05,3.05
88.97,4.09,1.12,4.10,1.12,-1.12,-1.09,-1.03,2.97,2.98,2.98
89.86,4.08,1.17,4.08,1.17,-1.17,-1.14,-1.09,2.91,2.91,2.91
90.76,4.07,1.23,4.06,1.23,-1.23,-1.19,-1.15,2.85,2.84,2.84
91.66,4.06,1.30,4.05,1.28,-1.28,-1.24,-1.22,2.78,2.76,2.76
92.58,4.05,1.35,4.03,1.33,-1.33,-1.29,-1.28,2.72,2.69,2.70
93.51,4.02,1.40,4.01,1.39,-1.39,-1.34,-1.35,2.64,2.62,2.63
94.44,4.00,1.45,3.99,1.44,-1.44,-1.39,-1.42,2.56,2.55,2.56
95.39,3.97,1.50,3.96,1.49,-1.49,-1.45,-1.48,2.48,2.47,2.47
96.34,3.94,1.54,3.94,1.54,-1.54,-1.50,-1.55,2.40,2.40,2.40
97.30,3.90,1.58,3.92,1.59,-1.59,-1.55,-1.62,2.31,2.32,2.33
98.28,3.87,1.63,3.89,1.64,-1.64,-1.60,-1.69,2.23,2.25,2.24
99.26,3.84,1.68,3.87,1.69,-1.69,-1.65,-1.76,2.15,2.18,2.17
100.25,3.82,1.73,3.85,1.74,-1.74,-1.70,-1.83,2.08,2.11,2.09
101.25,3.80,1.77,3.82,1.79,-1.79,-1.75,-1.90,2.02,2.03,2.03
102.27,3.79,1.83,3.80,1.83,-1.83,-1.80,-1.97,1.96,1.96,1.96
103.29,3.78,1.90,3.78,1.88,-1.88,-1.85,-2.04,1.90,1.89,1.89
104.32,3.76,1.94,3.75,1.93,-1.93,-1.89,-2.10,1.83,1.82,1.82
105.37,3.74,1.99,3.73,1.98,-1.98,-1.94,-2.17,1.77,1.76,1.76
106.42,3.72,2.03,3.71,2.02,-2.02,-1.99,-2.24,1.70,1.69,1.69
107.48,3.70,2.09,3.69,2.07,-2.07,-2.04,-2.31,1.63,1.62,1.62
108.56,3.67,2.12,3.66,2.12,-2.12,-2.09,-2.38,1.56,1.55,1.55
109.64,3.63,2.15,3.64,2.16,-2.16,-2.14,-2.44,1.47,1.48,1.49
110.74,3.60,2.19,3.61,2.20,-2.20,-2.18,-2.50,1.40,1.41,1.41
111.85,3.57,2.24,3.58,2.25,-2.25,-2.23,-2.56,1.33,1.33,1.34
112.97,3.54,2.27,3.55,2.29,-2.29,-2.28,-2.62,1.25,1.26,1.27
114.10,3.52,2.33,3.52,2.33,-2.33,-2.32,-2.68,1.19,1.19,1.20
115.24,3.49,2.38,3.49,2.37,-2.37,-2.37,-2.74,1.12,1.12,1.11
116.39,3.46,2.42,3.46,2.41,-2.41,-2.41,-2.79,1.05,1.05,1.04
117.55,3.43,2.47,3.43,2.45,-2.45,-2.46,-2.84,0.98,0.98,0.97
118.73,3.40,2.51,3.40,2.49,-2.49,-2.50,-2.88,0.91,0.91,0.90
119.92,3.36,2.53,3.38,2.53,-2.53,-2.55,-2.92,0.83,0.84,0.83
121.12,3.33,2.56,3.35,2.58,-2.58,-2.59,-2.96,0.76,0.77,0.77
122.33,3.32,2.62,3.32,2.62,-2.62,-2.63,-3.00,0.71,0.70,0.70
123.55,3.29,2.65,3.29,2.66,-2.66,-2.68,-3.03,0.64,0.63,0.64
124.79,3.26,2.69,3.26,2.70,-2.70,-2.72,-3.06,0.57,0.57,0.58
126.03,3.23,2.73,3.23,2.74,-2.74,-2.76,-3.08,0.50,0.50,0.51
127.29,3.22,2.78,3.21,2.77,-2.77,-2.80,-3.10,0.45,0.43,0.44
128.57,3.19,2.83,3.18,2.81,-2.81,-2.84,-3.11,0.38,0.37,0.36
129.85,3.15,2.85,3.15,2.86,-2.86,-2.88,-3.13,0.30,0.30,0.30
131.15,3.11,2.89,3.13,2.90,-2.90,-2.92,-3.14,0.22,0.23,0.23
132.46,3.09,2.93,3.10,2.94,-2.94,-2.96,-3.14,0.16,0.16,0.16
133.79,3.06,2.97,3.08,2.98,-2.98,-3.00,-3.15,0.08,0.10,0.09
135.12,3.03,3.00,3.05,3.02,-3.02,-3.03,-3.15,0.02,0.03,0.03
136.48,3.01,3.05,3.02,3.05,-3.05,-3.07,-3.14,-0.04,-0.04,-0.03
137.84,2.98,3.08,2.99,3.09,-3.09,-3.10,-3.14,-0.10,-0.10,-0.10
139.22,2.97,3.14,2.95,3.12,-3.12,-3.14,-3.13,-0.14,-0.16,-0.17
140.61,2.94,3.17,2.92,3.15,-3.15,-3.17,-3.13,-0.20,-0.22,-0.22
142.02,2.90,3.19,2.89,3.17,-3.17,-3.21,-3.12,-0.27,-0.28,-0.29
143.44,2.87,3.22,2.86,3.20,-3.20,-3.24,-3.11,-0.33,-0.34,-0.34
144.87,2.83,3.23,2.83,3.23,-3.23,-3.27,-3.10,-0.40,-0.40,-0.40
146.32,2.79,3.25,2.80,3.26,-3.26,-3.30,-3.09,-0.46,-0.46,-0.46
147.78,2.75,3.26,2.77,3.28,-3.28,-3.33,-3.08,-0.53,-0.51,-0.51
149.26,2.71,3.28,2.74,3.30,-3.30,-3.36,-3.06,-0.59,-0.57,-0.57
150.75,2.68,3.31,2.70,3.33,-3.33,-3.39,-3.05,-0.64,-0.62,-0.63
152.26,2.66,3.34,2.67,3.35,-3.35,-3.42,-3.04,-0.68,-0.68,-0.67
153.78,2.63,3.36,2.63,3.36,-3.36,-3.45,-3.04,-0.73,-0.73,-0.73
155.32,2.62,3.41,2.60,3.39,-3.39,-3.47,-3.03,-0.76,-0.79,-0.78
156.88,2.58,3.42,2.57,3.41,-3.41,-3.50,-3.02,-0.83,-0.84,-0.84
158.44,2.55,3.45,2.54,3.43,-3.43,-3.52,-3.02,-0.88,-0.90,-0.90
160.03,2.50,3.45,2.51,3.46,-3.46,-3.55,-3.01,-0.96,-0.95,-0.95
161.63,2.47,3.48,2.48,3.49,-3.49,-3.57,-3.01,-1.01,-1.01,-1.01
163.24,2.44,3.51,2.45,3.51,-3.51,-3.59,-3.01,-1.07,-1.06,-1.06
164.88,2.38,3.50,2.41,3.54,-3.54,-3.61,-3.01,-1.15,-1.12,-1.12
166.53,2.36,3.55,2.38,3.56,-3.56,-3.63,-3.02,-1.19,-1.18,-1.18
168.19,2.34,3.57,2.35,3.58,-3.58,-3.65,-3.02,-1.24,-1.23,-1.23
169.87,2.32,3.61,2.31,3.60,-3.60,-3.67,-3.03,-1.28,-1.29,-1.29
171.57,2.30,3.66,2.27,3.62,-3.62,-3.69,-3.04,-1.32,-1.35,-1.35
173.29,2.26,3.67,2.24,3.65,-3.65,-3.70,-3.06,-1.38,-1.41,-1.40
175.02,2.20,3.66,2.21,3.67,-3.67,-3.72,-3.07,-1.46,-1.46,-1.46
176.77,2.16,3.68,2.17,3.69,-3.69,-3.73,-3.09,-1.53,-1.52,-1.52
178.54,2.12,3.70,2.14,3.71,-3.71,-3.75,-3.11,-1.59,-1.57,-1.57
180.32,2.08,3.72,2.10,3.73,-3.73,-3.76,-3.14,-1.64,-1.63,-1.64
182.13,2.05,3.74,2.06,3.74,-3.74,-3.77,-3.16,-1.69,-1.68,-1.68
183.95,2.01,3.75,2.02,3.76,-3.76,-3.78,-3.19,-1.75,-1.74,-1.73
185.79,1.98,3.78,1.98,3.77,-3.77,-3.79,-3.22,-1.79,-1.79,-1.80
187.65,1.95,3.80,1.94,3.78,-3.78,-3.80,-3.25,-1.83,-1.85,-1.85
189.52,1.91,3.81,1.90,3.79,-3.79,-3.81,-3.29,-1.88,-1.90,-1.90
191.42,1.86,3.81,1.86,3.80,-3.80,-3.82,-3.32,-1.94,-1.95,-1.94
193.33,1.81,3.80,1.82,3.81,-3.81,-3.82,-3.36,-2.00,-2.00,-1.99
195.27,1.76,3.81,1.78,3.82,-3.82,-3.83,-3.40,-2.06,-2.04,-2.05
197.22,1.72,3.82,1.74,3.82,-3.82,-3.83,-3.45,-2.10,-2.09,-2.10
199.19,1.68,3.82,1.69,3.83,-3.83,-3.84,-3.49,-2.14,-2.13,-2.13
201.18,1.65,3.84,1.65,3.83,-3.83,-3.84,-3.54,-2.17,-2.17,-2.19
203.19,1.61,3.83,1.61,3.83,-3.83,-3.84,-3.58,-2.21,-2.22,-2.22
205.23,1.58,3.83,1.57,3.83,-3.83,-3.84,-3.63,-2.24,-2.26,-2.25
207.28,1.53,3.82,1.53,3.83,-3.83,-3.84,-3.68,-2.29,-2.29,-2.29
209.35,1.48,3.81,1.49,3.82,-3.82,-3.84,-3.73,-2.34,-2.33,-2.33
211.44,1.44,3.81,1.45,3.82,-3.82,-3.84,-3.78,-2.37,-2.37,-2.37
213.56,1.40,3.80,1.40,3.81,-3.81,-3.83,-3.82,-2.40,-2.40,-2.39
215.69,1.36,3.79,1.36,3.80,-3.80,-3.83,-3.87,-2.43,-2.43,-2.43
217.85,1.31,3.78,1.31,3.78,-3.78,-3.83,-3.92,-2.47,-2.47,-2.46
220.03,1.28,3.78,1.27,3.76,-3.76,-3.82,-3.96,-2.48,-2.50,-2.50
222.23,1.25,3.79,1.22,3.75,-3.75,-3.82,-4.01,-2.49,-2.53,-2.53
224.45,1.19,3.75,1.17,3.73,-3.73,-3.81,-4.05,-2.54,-2.55,-2.56
226.70,1.13,3.72,1.13,3.71,-3.71,-3.80,-4.09,-2.58,-2.58,-2.59
228.96,1.07,3.67,1.09,3.69,-3.69,-3.79,-4.12,-2.62,-2.61,-2.60
231.25,1.03,3.66,1.04,3.67,-3.67,-3.78,-4.16,-2.64,-2.63,-2.63
233.57,0.99,3.64,1.01,3.66,-3.66,-3.77,-4.19,-2.66,-2.65,-2.65
235.90,0.94,3.61,0.97,3.64,-3.64,-3.76,-4.21,-2.70,-2.67,-2.67
238.26,0.92,3.62,0.94,3.63,-3.63,-3.75,-4.23,-2.70,-2.69,-2.70
240.64,0.90,3.60,0.91,3.61,-3.61,-3.74,-4.25,-2.71,-2.70,-2.70
243.05,0.89,3.61,0.89,3.60,-3.60,-3.73,-4.26,-2.71,-2.72,-2.71
245.48,0.87,3.61,0.87,3.60,-3.60,-3.71,-4.26,-2.72,-2.73,-2.73
247.93,0.84,3.59,0.86,3.59,-3.59,-3.70,-4.27,-2.75,-2.74,-2.75
250.41,0.83,3.58,0.85,3.60,-3.60,-3.68,-4.26,-2.76,-2.75,-2.74
252.92,0.83,3.58,0.85,3.60,-3.60,-3.67,-4.25,-2.77,-2.75,-2.75
255.45,0.84,3.61,0.85,3.61,-3.61,-3.65,-4.23,-2.77,-2.76,-2.76
258.00,0.84,3.61,0.85,3.62,-3.62,-3.64,-4.21,-2.78,-2.77,-2.77
260.58,0.85,3.63,0.86,3.63,-3.63,-3.62,-4.19,-2.78,-2.78,-2.77
263.19,0.86,3.64,0.86,3.64,-3.64,-3.60,-4.16,-2.78,-2.78,-2.77
265.82,0.86,3.65,0.86,3.65,-3.65,-3.58,-4.12,-2.78,-2.79,-2.79
268.48,0.87,3.66,0.86,3.65,-3.65,-3.57,-4.08,-2.78,-2.79,-2.79
271.16,0.87,3.67,0.86,3.65,-3.65,-3.55,-4.04,-2.78,-2.80,-2.79
273.87,0.87,3.68,0.85,3.65,-3.65,-3.53,-3.99,-2.78,-2.80,-2.80
276.61,0.85,3.66,0.84,3.65,-3.65,-3.51,-3.94,-2.79,-2.81,-2.80
279.38,0.83,3.66,0.82,3.63,-3.63,-3.48,-3.88,-2.80,-2.81,-2.82
282.17,0.82,3.65,0.80,3.61,-3.61,-3.46,-3.82,-2.79,-2.81,-2.82
284.99,0.79,3.61,0.78,3.59,-3.59,-3.44,-3.76,-2.80,-2.81,-2.81
287.84,0.75,3.57,0.75,3.56,-3.56,-3.42,-3.70,-2.81,-2.82,-2.81
290.72,0.72,3.55,0.72,3.53,-3.53,-3.40,-3.64,-2.81,-2.81,-2.82
293.63,0.68,3.50,0.69,3.51,-3.51,-3.37,-3.58,-2.82,-2.81,-2.81
296.57,0.65,3.46,0.66,3.47,-3.47,-3.35,-3.51,-2.82,-2.81,-2.81
299.53,0.62,3.43,0.64,3.45,-3.45,-3.33,-3.45,-2.82,-2.81,-2.81
302.53,0.58,3.38,0.61,3.42,-3.42,-3.30,-3.38,-2.83,-2.80,-2.80
305.55,0.56,3.37,0.59,3.39,-3.39,-3.28,-3.32,-2.83,-2.80,-2.80
308.61,0.54,3.33,0.57,3.37,-3.37,-3.26,-3.25,-2.82,-2.79,-2.79
311.69,0.53,3.32,0.56,3.35,-3.35,-3.23,-3.19,-2.81,-2.79,-2.79
314.81,0.53,3.32,0.54,3.32,-3.32,-3.21,-3.13,-2.79,-2.78,-2.78
317.96,0.53,3.31,0.53,3.30,-3.30,-3.18,-3.06,-2.77,-2.78,-2.78
321.14,0.52,3.29,0.51,3.28,-3.28,-3.15,-3.00,-2.76,-2.77,-2.77
324.35,0.52,3.30,0.50,3.26,-3.26,-3.13,-2.94,-2.74,-2.77,-2.77
327.59,0.50,3.25,0.48,3.24,-3.24,-3.10,-2.88,-2.74,-2.76,-2.75
330.87,0.49,3.25,0.46,3.22,-3.22,-3.08,-2.83,-2.72,-2.75,-2.75
334.18,0.46,3.21,0.45,3.19,-3.19,-3.05,-2.77,-2.73,-2.75,-2.75
337.52,0.42,3.17,0.43,3.17,-3.17,-3.02,-2.72,-2.74,-2.74,-2.75
340.90,0.39,3.12,0.40,3.13,-3.13,-3.00,-2.67,-2.74,-2.73,-2.73
344.30,0.36,3.09,0.37,3.10,-3.10,-2.97,-2.62,-2.74,-2.73,-2.72
347.75,0.33,3.05,0.35,3.07,-3.07,-2.94,-2.57,-2.73,-2.72,-2.72
351.23,0.31,3.04,0.32,3.03,-3.03,-2.92,-2.52,-2.72,-2.71,-2.72
354.74,0.28,2.98,0.29,2.99,-2.99,-2.89,-2.48,-2.71,-2.71,-2.70
358.28,0.25,2.96,0.26,2.96,-2.96,-2.86,-2.44,-2.70,-2.70,-2.70
361.87,0.22,2.92,0.22,2.92,-2.92,-2.84,-2.40,-2.70,-2.69,-2.70
365.49,0.19,2.88,0.19,2.88,-2.88,-2.81,-2.36,-2.69,-2.69,-2.69
369.14,0.16,2.84,0.16,2.84,-2.84,-2.78,-2.32,-2.68,-2.68,-2.67
372.83,0.13,2.80,0.13,2.81,-2.81,-2.75,-2.29,-2.67,-2.67,-2.67
376.56,0.10,2.77,0.10,2.77,-2.77,-2.73,-2.26,-2.66,-2.66,-2.67
380.33,0.08,2.75,0.07,2.73,-2.73,-2.70,-2.23,-2.64,-2.66,-2.66
384.13,0.05,2.70,0.04,2.69,-2.69,-2.67,-2.20,-2.63,-2.65,-2.65
387.97,0.02,2.66,0.01,2.65,-2.65,-2.64,-2.17,-2.63,-2.64,-2.64
391.85,-0.01,2.63,-0.01,2.62,-2.62,-2.62,-2.14,-2.62,-2.63,-2.63
395.77,-0.05,2.58,-0.03,2.59,-2.59,-2.59,-2.12,-2.63,-2.62,-2.63
399.73,-0.07,2.55,-0.05,2.56,-2.56,-2.56,-2.10,-2.63,-2.61,-2.62
403.72,-0.10,2.49,-0.07,2.54,-2.54,-2.53,-2.08,-2.63,-2.60,-2.59
407.76,-0.12,2.48,-0.08,2.51,-2.51,-2.51,-2.06,-2.63,-2.59,-2.59
411.84,-0.13,2.46,-0.09,2.49,-2.49,-2.48,-2.04,-2.62,-2.59,-2.59
415.96,-0.13,2.44,-0.10,2.47,-2.47,-2.45,-2.02,-2.60,-2.58,-2.57
420.12,-0.12,2.45,-0.11,2.45,-2.45,-2.43,-2.00,-2.57,-2.57,-2.57
424.32,-0.11,2.46,-0.13,2.43,-2.43,-2.40,-1.99,-2.54,-2.56,-2.56
428.56,-0.11,2.44,-0.14,2.41,-2.41,-2.37,-1.98,-2.52,-2.55,-2.54
432.85,-0.12,2.42,-0.15,2.39,-2.39,-2.35,-1.96,-2.51,-2.54,-2.54
437.18,-0.14,2.40,-0.17,2.37,-2.37,-2.32,-1.95,-2.50,-2.53,-2.54
441.55,-0.16,2.37,-0.18,2.34,-2.34,-2.30,-1.94,-2.50,-2.53,-2.53
445.96,-0.19,2.34,-0.21,2.31,-2.31,-2.27,-1.93,-2.50,-2.52,-2.52
450.42,-0.23,2.29,-0.23,2.28,-2.28,-2.24,-1.92,-2.50,-2.51,-2.51
454.93,-0.26,2.25,-0.26,2.24,-2.24,-2.22,-1.91,-2.50,-2.50,-2.50
459.48,-0.30,2.20,-0.29,2.20,-2.20,-2.19,-1.90,-2.50,-2.49,-2.50
464.07,-0.33,2.15,-0.32,2.16,-2.16,-2.17,-1.89,-2.49,-2.48,-2.48
468.71,-0.36,2.11,-0.35,2.12,-2.12,-2.14,-1.89,-2.48,-2.47,-2.47
473.40,-0.40,2.06,-0.38,2.09,-2.09,-2.12,-1.88,-2.48,-2.46,-2.46
478.13,-0.42,2.04,-0.40,2.06,-2.06,-2.09,-1.87,-2.47,-2.45,-2.45
482.91,-0.44,2.01,-0.42,2.03,-2.03,-2.07,-1.86,-2.46,-2.44,-2.44
487.74,-0.46,1.98,-0.43,2.00,-2.00,-2.05,-1.85,-2.46,-2.43,-2.43
492.62,-0.47,1.96,-0.44,1.99,-1.99,-2.02,-1.85,-2.45,-2.42,-2.43
497.55,-0.47,1.95,-0.44,1.97,-1.97,-2.00,-1.84,-2.44,-2.41,-2.42
502.52,-0.46,1.95,-0.44,1.96,-1.96,-1.98,-1.83,-2.41,-2.40,-2.41
507.55,-0.45,1.94,-0.44,1.95,-1.95,-1.95,-1.82,-2.39,-2.39,-2.39
512.62,-0.44,1.94,-0.44,1.93,-1.93,-1.93,-1.82,-2.37,-2.38,-2.38
517.75,-0.43,1.93,-0.44,1.92,-1.92,-1.91,-1.81,-2.35,-2.37,-2.36
