frequency,raw,error,smoothed,error_smoothed,equalization,parametric_eq,fixed_band_eq,equalized_raw,equalized_smoothed,target
20.00,-2.92,-5.02,-2.92,-5.04,5.04,4.67,1.67,2.12,2.12,2.10
20.20,-2.90,-5.00,-2.90,-5.02,5.02,4.65,1.72,2.12,2.11,2.10
20.40,-2.89,-4.99,-2.88,-4.99,4.99,4.64,1.77,2.10,2.11,2.10
20.61,-2.86,-4.96,-2.86,-4.96,4.96,4.63,1.82,2.10,2.10,2.10
20.81,-2.84,-4.94,-2.84,-4.93,4.93,4.61,1.88,2.09,2.09,2.10
21.02,-2.83,-4.93,-2.82,-4.90,4.90,4.60,1.93,2.07,2.08,2.10
21.23,-2.80,-4.88,-2.80,-4.87,4.87,4.58,1.99,2.07,2.06,2.08
21.44,-2.78,-4.85,-2.78,-4.83,4.83,4.57,2.05,2.05,2.05,2.07
21.66,-2.76,-4.81,-2.76,-4.80,4.80,4.55,2.11,2.04,2.04,2.05
21.87,-2.75,-4.78,-2.74,-4.77,4.77,4.54,2.17,2.01,2.02,2.03
22.09,-2.72,-4.74,-2.72,-4.73,4.73,4.52,2.24,2.01,2.01,2.02
22.31,-2.70,-4.69,-2.70,-4.69,4.69,4.51,2.30,1.99,1.99,1.99
22.54,-2.68,-4.65,-2.68,-4.65,4.65,4.49,2.37,1.97,1.97,1.97
22.76,-2.66,-4.61,-2.66,-4.61,4.61,4.47,2.44,1.94,1.94,1.95
22.99,-2.64,-4.56,-2.64,-4.56,4.56,4.46,2.51,1.92,1.92,1.92
23.22,-2.62,-4.51,-2.62,-4.52,4.52,4.44,2.58,1.90,1.90,1.89
23.45,-2.60,-4.46,-2.60,-4.47,4.47,4.42,2.66,1.87,1.88,1.86
23.69,-2.58,-4.43,-2.58,-4.43,4.43,4.40,2.73,1.85,1.86,1.85
23.92,-2.55,-4.38,-2.56,-4.39,4.39,4.39,2.81,1.84,1.83,1.83
24.16,-2.53,-4.35,-2.54,-4.35,4.35,4.37,2.89,1.82,1.81,1.82
24.40,-2.52,-4.32,-2.51,-4.31,4.31,4.35,2.97,1.79,1.80,1.80
24.65,-2.49,-4.27,-2.49,-4.27,4.27,4.33,3.05,1.78,1.78,1.78
24.89,-2.47,-4.23,-2.47,-4.23,4.23,4.31,3.13,1.76,1.76,1.76
25.14,-2.45,-4.20,-2.45,-4.20,4.20,4.29,3.22,1.74,1.74,1.75
25.39,-2.43,-4.16,-2.43,-4.16,4.16,4.27,3.30,1.73,1.73,1.73
25.65,-2.41,-4.13,-2.42,-4.13,4.13,4.25,3.38,1.71,1.71,1.72
25.91,-2.40,-4.09,-2.40,-4.09,4.09,4.23,3.47,1.69,1.70,1.69
26.16,-2.38,-4.06,-2.38,-4.06,4.06,4.21,3.55,1.68,1.68,1.68
26.43,-2.36,-4.03,-2.36,-4.02,4.02,4.19,3.63,1.66,1.66,1.67
26.69,-2.34,-3.98,-2.34,-3.99,3.99,4.17,3.71,1.65,1.65,1.64
26.96,-2.32,-3.95,-2.32,-3.95,3.95,4.15,3.79,1.63,1.63,1.63
27.23,-2.30,-3.92,-2.31,-3.92,3.92,4.13,3.87,1.62,1.62,1.62
27.50,-2.29,-3.90,-2.29,-3.89,3.89,4.11,3.95,1.60,1.60,1.61
27.77,-2.27,-3.86,-2.27,-3.86,3.86,4.09,4.02,1.59,1.59,1.59
28.05,-2.25,-3.83,-2.26,-3.83,3.83,4.07,4.09,1.58,1.57,1.58
28.33,-2.24,-3.80,-2.24,-3.80,3.80,4.05,4.16,1.56,1.56,1.56
28.62,-2.22,-3.77,-2.22,-3.77,3.77,4.02,4.22,1.55,1.55,1.55
28.90,-2.21,-3.74,-2.21,-3.74,3.74,4.00,4.28,1.53,1.53,1.53
29.19,-2.20,-3.71,-2.19,-3.72,3.72,3.98,4.34,1.51,1.52,1.51
29.48,-2.18,-3.69,-2.18,-3.69,3.69,3.95,4.39,1.51,1.51,1.51
29.78,-2.17,-3.67,-2.17,-3.66,3.66,3.93,4.43,1.49,1.49,1.50
30.08,-2.15,-3.64,-2.16,-3.64,3.64,3.91,4.46,1.48,1.48,1.49
30.38,-2.15,-3.62,-2.14,-3.61,3.61,3.88,4.50,1.46,1.47,1.47
30.68,-2.13,-3.59,-2.13,-3.58,3.58,3.86,4.52,1.45,1.45,1.46
30.99,-2.11,-3.54,-2.12,-3.56,3.56,3.84,4.54,1.45,1.43,1.43
31.30,-2.11,-3.53,-2.12,-3.53,3.53,3.81,4.55,1.42,1.42,1.42
31.61,-2.10,-3.51,-2.11,-3.51,3.51,3.79,4.55,1.41,1.40,1.41
31.93,-2.10,-3.49,-2.10,-3.48,3.48,3.76,4.55,1.38,1.38,1.39
32.24,-2.10,-3.46,-2.10,-3.46,3.46,3.74,4.54,1.36,1.36,1.36
32.57,-2.09,-3.43,-2.09,-3.44,3.44,3.71,4.52,1.34,1.34,1.34
32.89,-2.09,-3.42,-2.09,-3.41,3.41,3.69,4.50,1.32,1.32,1.33
33.22,-2.08,-3.38,-2.09,-3.39,3.39,3.66,4.47,1.31,1.30,1.30
33.55,-2.09,-3.38,-2.09,-3.37,3.37,3.63,4.43,1.28,1.28,1.29
33.89,-2.09,-3.35,-2.09,-3.35,3.35,3.61,4.39,1.26,1.26,1.26
34.23,-2.09,-3.33,-2.09,-3.33,3.33,3.58,4.35,1.24,1.24,1.24
34.57,-2.09,-3.31,-2.09,-3.31,3.31,3.56,4.30,1.22,1.22,1.22
34.92,-2.09,-3.29,-2.10,-3.29,3.29,3.53,4.25,1.20,1.20,1.20
35.27,-2.09,-3.27,-2.10,-3.28,3.28,3.50,4.19,1.19,1.18,1.18
35.62,-2.10,-3.26,-2.10,-3.26,3.26,3.47,4.13,1.16,1.16,1.16
35.97,-2.11,-3.25,-2.11,-3.25,3.25,3.45,4.07,1.13,1.14,1.14
36.33,-2.11,-3.23,-2.11,-3.23,3.23,3.42,4.01,1.12,1.12,1.12
36.70,-2.12,-3.22,-2.12,-3.21,3.21,3.39,3.94,1.09,1.10,1.10
37.06,-2.12,-3.20,-2.12,-3.20,3.20,3.36,3.88,1.08,1.08,1.08
37.43,-2.13,-3.19,-2.13,-3.18,3.18,3.34,3.81,1.05,1.05,1.06
37.81,-2.14,-3.18,-2.14,-3.17,3.17,3.31,3.74,1.03,1.03,1.04
38.19,-2.14,-3.15,-2.14,-3.16,3.16,3.28,3.68,1.01,1.01,1.01
38.57,-2.15,-3.15,-2.15,-3.14,3.14,3.25,3.61,0.99,0.99,1.00
38.95,-2.15,-3.12,-2.15,-3.13,3.13,3.22,3.54,0.97,0.97,0.97
39.34,-2.15,-3.10,-2.16,-3.11,3.11,3.19,3.48,0.96,0.95,0.95
39.74,-2.16,-3.09,-2.16,-3.10,3.10,3.16,3.42,0.94,0.93,0.93
40.14,-2.17,-3.09,-2.17,-3.08,3.08,3.14,3.35,0.91,0.92,0.92
40.54,-2.17,-3.07,-2.17,-3.07,3.07,3.11,3.29,0.90,0.90,0.90
40.94,-2.17,-3.05,-2.17,-3.05,3.05,3.08,3.24,0.88,0.88,0.88
41.35,-2.18,-3.03,-2.17,-3.04,3.04,3.05,3.18,0.85,0.86,0.85
41.76,-2.17,-3.02,-2.18,-3.02,3.02,3.02,3.12,0.85,0.84,0.85
42.18,-2.18,-3.01,-2.18,-3.00,3.00,2.99,3.07,0.82,0.82,0.83
42.60,-2.18,-2.99,-2.18,-2.98,2.98,2.96,3.02,0.80,0.80,0.81
43.03,-2.18,-2.98,-2.18,-2.96,2.96,2.93,2.97,0.78,0.78,0.80
43.46,-2.18,-2.95,-2.18,-2.95,2.95,2.90,2.93,0.76,0.77,0.77
43.90,-2.17,-2.92,-2.18,-2.93,2.93,2.87,2.88,0.76,0.75,0.75
44.33,-2.17,-2.90,-2.18,-2.91,2.91,2.84,2.84,0.74,0.73,0.73
44.78,-2.18,-2.89,-2.18,-2.89,2.89,2.81,2.80,0.71,0.71,0.71
45.23,-2.17,-2.85,-2.18,-2.87,2.87,2.77,2.76,0.70,0.69,0.68
45.68,-2.18,-2.84,-2.17,-2.85,2.85,2.74,2.73,0.66,0.67,0.66
46.13,-2.17,-2.82,-2.17,-2.82,2.82,2.71,2.69,0.65,0.65,0.65
46.60,-2.16,-2.80,-2.17,-2.80,2.80,2.68,2.66,0.64,0.63,0.64
47.06,-2.16,-2.78,-2.16,-2.77,2.77,2.65,2.63,0.61,0.61,0.62
47.53,-2.16,-2.76,-2.16,-2.75,2.75,2.62,2.61,0.59,0.59,0.60
48.01,-2.15,-2.74,-2.15,-2.72,2.72,2.59,2.58,0.57,0.57,0.59
48.49,-2.15,-2.71,-2.15,-2.69,2.69,2.55,2.56,0.54,0.55,0.56
48.97,-2.14,-2.67,-2.14,-2.67,2.67,2.52,2.54,0.53,0.53,0.53
49.46,-2.13,-2.63,-2.13,-2.64,2.64,2.49,2.52,0.51,0.51,0.50
49.96,-2.12,-2.59,-2.12,-2.61,2.61,2.46,2.50,0.48,0.48,0.47
50.46,-2.11,-2.57,-2.11,-2.58,2.58,2.43,2.48,0.46,0.46,0.46
50.96,-2.10,-2.54,-2.10,-2.54,2.54,2.39,2.47,0.44,0.44,0.44
51.47,-2.09,-2.50,-2.09,-2.51,2.51,2.36,2.45,0.42,0.41,0.41
51.99,-2.08,-2.47,-2.08,-2.47,2.47,2.33,2.44,0.39,0.39,0.39
52.51,-2.07,-2.44,-2.07,-2.44,2.44,2.30,2.43,0.37,0.36,0.37
53.03,-2.06,-2.41,-2.06,-2.40,2.40,2.26,2.41,0.34,0.34,0.35
53.56,-2.05,-2.37,-2.05,-2.36,2.36,2.23,2.40,0.31,0.32,0.32
54.10,-2.03,-2.33,-2.03,-2.33,2.33,2.20,2.39,0.30,0.29,0.30
54.64,-2.03,-2.30,-2.02,-2.29,2.29,2.17,2.38,0.26,0.27,0.27
55.18,-2.01,-2.26,-2.01,-2.26,2.26,2.13,2.37,0.24,0.25,0.25
55.74,-1.99,-2.21,-1.99,-2.22,2.22,2.10,2.35,0.23,0.22,0.22
56.29,-1.98,-2.18,-1.98,-2.18,2.18,2.07,2.34,0.20,0.20,0.20
56.86,-1.96,-2.13,-1.97,-2.14,2.14,2.03,2.32,0.18,0.18,0.17
57.42,-1.95,-2.10,-1.95,-2.10,2.10,2.00,2.31,0.15,0.15,0.15
58.00,-1.93,-2.06,-1.94,-2.06,2.06,1.97,2.29,0.13,0.13,0.13
58.58,-1.92,-2.02,-1.92,-2.02,2.02,1.93,2.27,0.10,0.10,0.10
59.16,-1.90,-1.98,-1.91,-1.98,1.98,1.90,2.25,0.08,0.07,0.08
59.76,-1.89,-1.95,-1.89,-1.94,1.94,1.86,2.23,0.05,0.05,0.06
60.35,-1.88,-1.91,-1.88,-1.90,1.90,1.83,2.20,0.02,0.02,0.03
60.96,-1.87,-1.88,-1.87,-1.86,1.86,1.80,2.17,-0.01,-0.01,0.01
61.57,-1.85,-1.82,-1.86,-1.82,1.82,1.76,2.14,-0.03,-0.03,-0.03
62.18,-1.84,-1.78,-1.84,-1.79,1.79,1.73,2.11,-0.06,-0.06,-0.06
62.80,-1.83,-1.74,-1.83,-1.75,1.75,1.69,2.07,-0.08,-0.09,-0.09
63.43,-1.82,-1.70,-1.82,-1.71,1.71,1.66,2.03,-0.11,-0.11,-0.12
64.07,-1.82,-1.67,-1.81,-1.68,1.68,1.62,1.99,-0.15,-0.14,-0.15
64.71,-1.80,-1.63,-1.81,-1.64,1.64,1.59,1.95,-0.16,-0.17,-0.17
65.35,-1.80,-1.61,-1.80,-1.61,1.61,1.55,1.90,-0.19,-0.19,-0.19
66.01,-1.79,-1.58,-1.79,-1.57,1.57,1.52,1.85,-0.22,-0.22,-0.21
66.67,-1.78,-1.54,-1.78,-1.54,1.54,1.48,1.80,-0.24,-0.24,-0.24
67.33,-1.77,-1.51,-1.77,-1.51,1.51,1.45,1.75,-0.26,-0.27,-0.26
68.01,-1.77,-1.48,-1.77,-1.48,1.48,1.41,1.69,-0.29,-0.29,-0.29
68.69,-1.76,-1.45,-1.76,-1.45,1.45,1.37,1.63,-0.31,-0.32,-0.31
69.37,-1.76,-1.42,-1.76,-1.42,1.42,1.34,1.57,-0.34,-0.34,-0.34
70.07,-1.75,-1.38,-1.76,-1.39,1.39,1.30,1.51,-0.36,-0.37,-0.37
70.77,-1.75,-1.36,-1.75,-1.36,1.36,1.26,1.45,-0.40,-0.40,-0.39
71.48,-1.74,-1.32,-1.75,-1.32,1.32,1.23,1.38,-0.42,-0.43,-0.42
72.19,-1.75,-1.30,-1.75,-1.29,1.29,1.19,1.32,-0.46,-0.46,-0.45
72.91,-1.74,-1.25,-1.75,-1.26,1.26,1.15,1.25,-0.48,-0.49,-0.49
73.64,-1.75,-1.23,-1.75,-1.23,1.23,1.11,1.18,-0.53,-0.52,-0.52
74.38,-1.75,-1.20,-1.75,-1.19,1.19,1.07,1.11,-0.56,-0.56,-0.55
75.12,-1.74,-1.14,-1.75,-1.16,1.16,1.03,1.04,-0.59,-0.59,-0.60
75.87,-1.74,-1.11,-1.75,-1.12,1.12,0.99,0.97,-0.62,-0.63,-0.63
76.63,-1.75,-1.09,-1.75,-1.08,1.08,0.95,0.89,-0.67,-0.67,-0.66
77.40,-1.75,-1.05,-1.74,-1.04,1.04,0.91,0.82,-0.71,-0.71,-0.70
78.17,-1.74,-0.98,-1.74,-0.99,0.99,0.87,0.75,-0.75,-0.75,-0.76
78.95,-1.74,-0.96,-1.74,-0.95,0.95,0.83,0.67,-0.79,-0.79,-0.78
79.74,-1.74,-0.92,-1.73,-0.90,0.90,0.79,0.60,-0.84,-0.83,-0.82
80.54,-1.73,-0.86,-1.73,-0.86,0.86,0.75,0.52,-0.88,-0.87,-0.87
81.35,-1.72,-0.81,-1.72,-0.81,0.81,0.71,0.45,-0.92,-0.92,-0.91
82.16,-1.71,-0.75,-1.71,-0.75,0.75,0.66,0.37,-0.96,-0.96,-0.96
82.98,-1.70,-0.70,-1.71,-0.70,0.70,0.62,0.30,-1.00,-1.00,-1.00
83.81,-1.69,-0.63,-1.70,-0.65,0.65,0.57,0.22,-1.05,-1.05,-1.06
84.65,-1.69,-0.59,-1.69,-0.59,0.59,0.53,0.14,-1.10,-1.10,-1.10
85.50,-1.68,-0.54,-1.68,-0.53,0.53,0.48,0.07,-1.15,-1.15,-1.14
86.35,-1.66,-0.47,-1.67,-0.47,0.47,0.44,-0.01,-1.19,-1.19,-1.19
87.22,-1.66,-0.42,-1.65,-0.41,0.41,0.39,-0.09,-1.25,-1.24,-1.24
88.09,-1.64,-0.34,-1.64,-0.35,0.35,0.34,-0.16,-1.29,-1.29,-1.30
88.97,-1.63,-0.29,-1.63,-0.29,0.29,0.29,-0.24,-1.34,-1.34,-1.34
89.86,-1.62,-0.23,-1.62,-0.23,0.23,0.24,-0.32,-1.39,-1.39,-1.39
90.76,-1.61,-0.16,-1.61,-0.17,0.17,0.19,-0.40,-1.45,-1.45,-1.45
91.66,-1.60,-0.10,-1.60,-0.10,0.10,0.14,-0.47,-1.50,-1.50,-1.50
92.58,-1.59,-0.03,-1.59,-0.04,0.04,0.09,-0.55,-1.55,-1.55,-1.56
93.51,-1.58,0.02,-1.58,0.02,-0.02,0.03,-0.63,-1.61,-1.61,-1.60
94.44,-1.57,0.08,-1.57,0.09,-0.09,-0.02,-0.71,-1.66,-1.66,-1.65
95.39,-1.56,0.15,-1.56,0.16,-0.16,-0.08,-0.79,-1.72,-1.72,-1.71
96.34,-1.56,0.22,-1.56,0.22,-0.22,-0.14,-0.86,-1.78,-1.78,-1.78
97.30,-1.55,0.28,-1.55,0.29,-0.29,-0.19,-0.94,-1.84,-1.83,-1.83
98.28,-1.54,0.35,-1.54,0.35,-0.35,-0.25,-1.02,-1.89,-1.89,-1.89
99.26,-1.53,0.43,-1.53,0.42,-0.42,-0.32,-1.10,-1.95,-1.95,-1.96
100.25,-1.52,0.49,-1.53,0.49,-0.49,-0.38,-1.18,-2.01,-2.01,-2.01
101.25,-1.52,0.55,-1.52,0.56,-0.56,-0.44,-1.25,-2.08,-2.08,-2.07
102.27,-1.51,0.63,-1.51,0.63,-0.63,-0.51,-1.33,-2.14,-2.14,-2.14
103.29,-1.50,0.71,-1.51,0.70,-0.70,-0.57,-1.40,-2.20,-2.20,-2.21
104.32,-1.50,0.76,-1.50,0.77,-0.77,-0.64,-1.48,-2.27,-2.27,-2.26
105.37,-1.49,0.83,-1.49,0.84,-0.84,-0.71,-1.55,-2.33,-2.33,-2.32
106.42,-1.49,0.90,-1.48,0.91,-0.91,-0.78,-1.62,-2.40,-2.39,-2.39
107.48,-1.48,0.98,-1.48,0.99,-0.99,-0.86,-1.69,-2.47,-2.46,-2.46
108.56,-1.47,1.06,-1.47,1.06,-1.06,-0.93,-1.76,-2.53,-2.53,-2.53
109.64,-1.46,1.13,-1.46,1.13,-1.13,-1.00,-1.83,-2.59,-2.59,-2.59
110.74,-1.45,1.20,-1.46,1.21,-1.21,-1.08,-1.89,-2.66,-2.66,-2.65
111.85,-1.45,1.27,-1.45,1.28,-1.28,-1.16,-1.95,-2.73,-2.73,-2.72
112.97,-1.44,1.36,-1.44,1.35,-1.35,-1.24,-2.01,-2.80,-2.80,-2.80
114.10,-1.44,1.42,-1.44,1.42,-1.42,-1.32,-2.06,-2.87,-2.86,-2.86
115.24,-1.43,1.50,-1.44,1.49,-1.49,-1.40,-2.11,-2.92,-2.93,-2.93
116.39,-1.43,1.57,-1.44,1.56,-1.56,-1.48,-2.16,-2.99,-3.00,-3.00
117.55,-1.44,1.63,-1.44,1.62,-1.62,-1.56,-2.20,-3.07,-3.06,-3.07
118.73,-1.44,1.69,-1.44,1.68,-1.68,-1.65,-2.23,-3.13,-3.13,-3.13
119.92,-1.44,1.75,-1.45,1.74,-1.74,-1.73,-2.27,-3.18,-3.19,-3.19
121.12,-1.45,1.80,-1.46,1.80,-1.80,-1.81,-2.29,-3.25,-3.25,-3.25
122.33,-1.46,1.86,-1.47,1.85,-1.85,-1.90,-2.32,-3.31,-3.32,-3.32
123.55,-1.47,1.90,-1.48,1.90,-1.90,-1.98,-2.33,-3.37,-3.38,-3.37
124.79,-1.49,1.94,-1.49,1.94,-1.94,-2.06,-2.35,-3.43,-3.44,-3.43
126.03,-1.51,1.97,-1.51,1.98,-1.98,-2.13,-2.35,-3.49,-3.49,-3.48
127.29,-1.53,2.01,-1.53,2.02,-2.02,-2.21,-2.35,-3.55,-3.55,-3.54
128.57,-1.55,2.06,-1.55,2.06,-2.06,-2.28,-2.35,-3.61,-3.61,-3.61
129.85,-1.56,2.10,-1.57,2.09,-2.09,-2.35,-2.34,-3.65,-3.66,-3.66
131.15,-1.59,2.12,-1.59,2.12,-2.12,-2.42,-2.33,-3.71,-3.71,-3.71
132.46,-1.61,2.16,-1.61,2.15,-2.15,-2.48,-2.31,-3.76,-3.76,-3.77
133.79,-1.64,2.17,-1.64,2.18,-2.18,-2.54,-2.29,-3.82,-3.81,-3.81
135.12,-1.66,2.21,-1.66,2.20,-2.20,-2.59,-2.26,-3.86,-3.86,-3.87
136.48,-1.68,2.22,-1.68,2.22,-2.22,-2.63,-2.23,-3.91,-3.90,-3.90
137.84,-1.71,2.23,-1.70,2.25,-2.25,-2.67,-2.19,-3.96,-3.94,-3.94
139.22,-1.72,2.27,-1.72,2.27,-2.27,-2.71,-2.16,-3.99,-3.98,-3.99
140.61,-1.74,2.29,-1.73,2.29,-2.29,-2.73,-2.12,-4.03,-4.02,-4.03
142.02,-1.75,2.30,-1.75,2.30,-2.30,-2.75,-2.07,-4.05,-4.06,-4.05
143.44,-1.77,2.31,-1.77,2.32,-2.32,-2.76,-2.02,-4.09,-4.09,-4.08
144.87,-1.79,2.33,-1.79,2.33,-2.33,-2.77,-1.98,-4.12,-4.12,-4.12
146.32,-1.80,2.35,-1.81,2.34,-2.34,-2.77,-1.93,-4.15,-4.15,-4.15
147.78,-1.82,2.35,-1.82,2.35,-2.35,-2.76,-1.87,-4.18,-4.18,-4.17
149.26,-1.84,2.36,-1.84,2.37,-2.37,-2.74,-1.82,-4.21,-4.21,-4.20
150.75,-1.86,2.38,-1.86,2.37,-2.37,-2.72,-1.77,-4.23,-4.24,-4.24
152.26,-1.88,2.38,-1.89,2.38,-2.38,-2.69,-1.71,-4.26,-4.26,-4.26
153.78,-1.91,2.38,-1.91,2.38,-2.38,-2.66,-1.66,-4.29,-4.29,-4.29
155.32,-1.93,2.38,-1.94,2.38,-2.38,-2.62,-1.60,-4.31,-4.32,-4.31
156.88,-1.96,2.38,-1.96,2.38,-2.38,-2.58,-1.54,-4.34,-4.35,-4.34
158.44,-2.00,2.37,-2.00,2.38,-2.38,-2.53,-1.49,-4.38,-4.37,-4.37
160.03,-2.02,2.38,-2.03,2.37,-2.37,-2.49,-1.43,-4.39,-4.40,-4.40
161.63,-2.07,2.36,-2.07,2.36,-2.36,-2.43,-1.37,-4.43,-4.43,-4.43
163.24,-2.10,2.36,-2.10,2.35,-2.35,-2.38,-1.32,-4.45,-4.45,-4.46
164.88,-2.14,2.34,-2.15,2.34,-2.34,-2.32,-1.26,-4.48,-4.48,-4.48
166.53,-2.19,2.31,-2.19,2.32,-2.32,-2.26,-1.21,-4.51,-4.51,-4.50
168.19,-2.24,2.30,-2.24,2.30,-2.30,-2.20,-1.15,-4.54,-4.54,-4.54
169.87,-2.29,2.28,-2.29,2.28,-2.28,-2.14,-1.10,-4.57,-4.57,-4.57
171.57,-2.34,2.26,-2.35,2.26,-2.26,-2.08,-1.04,-4.60,-4.60,-4.60
173.29,-2.40,2.22,-2.40,2.23,-2.23,-2.01,-0.99,-4.63,-4.64,-4.62
175.02,-2.46,2.20,-2.46,2.21,-2.21,-1.95,-0.94,-4.67,-4.67,-4.66
176.77,-2.53,2.17,-2.53,2.18,-2.18,-1.89,-0.89,-4.71,-4.70,-4.70
178.54,-2.59,2.15,-2.60,2.14,-2.14,-1.83,-0.84,-4.73,-4.74,-4.74
180.32,-2.66,2.11,-2.67,2.11,-2.11,-1.76,-0.79,-4.77,-4.77,-4.77
182.13,-2.74,2.06,-2.74,2.07,-2.07,-1.70,-0.74,-4.81,-4.81,-4.80
183.95,-2.82,2.02,-2.81,2.03,-2.03,-1.64,-0.69,-4.85,-4.84,-4.84
185.79,-2.89,1.99,-2.89,1.98,-1.98,-1.58,-0.64,-4.87,-4.88,-4.88
187.65,-2.97,1.95,-2.98,1.93,-1.93,-1.53,-0.60,-4.91,-4.91,-4.92
189.52,-3.06,1.89,-3.06,1.88,-1.88,-1.47,-0.55,-4.94,-4.94,-4.95
191.42,-3.14,1.83,-3.15,1.83,-1.83,-1.41,-0.50,-4.97,-4.97,-4.97
193.33,-3.23,1.76,-3.24,1.77,-1.77,-1.35,-0.46,-5.00,-5.00,-4.99
195.27,-3.32,1.70,-3.33,1.71,-1.71,-1.30,-0.42,-5.03,-5.03,-5.02
197.22,-3.42,1.63,-3.42,1.64,-1.64,-1.24,-0.37,-5.06,-5.06,-5.05
199.19,-3.51,1.59,-3.51,1.57,-1.57,-1.19,-0.33,-5.08,-5.08,-5.10
201.18,-3.60,1.51,-3.61,1.50,-1.50,-1.14,-0.29,-5.10,-5.11,-5.11
203.19,-3.71,1.42,-3.71,1.43,-1.43,-1.08,-0.25,-5.14,-5.13,-5.13
205.23,-3.80,1.35,-3.80,1.35,-1.35,-1.03,-0.21,-5.15,-5.15,-5.15
207.28,-3.90,1.26,-3.90,1.27,-1.27,-0.98,-0.17,-5.17,-5.17,-5.16
209.35,-4.00,1.19,-4.00,1.19,-1.19,-0.93,-0.13,-5.20,-5.19,-5.19
211.44,-4.09,1.12,-4.10,1.12,-1.12,-0.87,-0.10,-5.21,-5.21,-5.21
213.56,-4.19,1.04,-4.19,1.03,-1.03,-0.82,-0.06,-5.23,-5.23,-5.23
215.69,-4.29,0.94,-4.29,0.95,-0.95,-0.77,-0.03,-5.25,-5.24,-5.23
217.85,-4.39,0.85,-4.38,0.87,-0.87,-0.72,0.01,-5.26,-5.25,-5.24
220.03,-4.47,0.80,-4.47,0.79,-0.79,-0.67,0.04,-5.26,-5.26,-5.27
222.23,-4.56,0.72,-4.56,0.71,-0.71,-0.61,0.07,-5.27,-5.27,-5.28
224.45,-4.65,0.62,-4.65,0.62,-0.62,-0.56,0.10,-5.28,-5.27,-5.27
226.70,-4.74,0.54,-4.73,0.54,-0.54,-0.50,0.12,-5.28,-5.28,-5.28
228.96,-4.82,0.46,-4.82,0.46,-0.46,-0.45,0.15,-5.28,-5.28,-5.28
231.25,-4.90,0.37,-4.90,0.38,-0.38,-0.39,0.17,-5.28,-5.27,-5.27
233.57,-4.98,0.28,-4.98,0.29,-0.29,-0.33,0.19,-5.27,-5.27,-5.26
235.90,-5.06,0.20,-5.06,0.20,-0.20,-0.27,0.21,-5.26,-5.26,-5.26
238.26,-5.13,0.13,-5.13,0.12,-0.12,-0.21,0.23,-5.25,-5.25,-5.26
240.64,-5.20,0.04,-5.21,0.03,-0.03,-0.15,0.25,-5.23,-5.24,-5.24
243.05,-5.27,-0.05,-5.29,-0.06,0.06,-0.09,0.26,-5.21,-5.22,-5.22
245.48,-5.36,-0.16,-5.36,-0.15,0.15,-0.02,0.27,-5.21,-5.21,-5.20
247.93,-5.43,-0.24,-5.43,-0.24,0.24,0.04,0.28,-5.19,-5.19,-5.19
250.41,-5.49,-0.31,-5.50,-0.33,0.33,0.11,0.29,-5.16,-5.17,-5.18
252.92,-5.56,-0.42,-5.57,-0.42,0.42,0.18,0.30,-5.14,-5.15,-5.14
255.45,-5.64,-0.52,-5.64,-0.51,0.51,0.25,0.30,-5.13,-5.13,-5.12
258.00,-5.71,-0.61,-5.71,-0.60,0.60,0.33,0.30,-5.11,-5.11,-5.10
260.58,-5.77,-0.69,-5.77,-0.69,0.69,0.40,0.30,-5.08,-5.08,-5.08
263.19,-5.83,-0.77,-5.83,-0.77,0.77,0.48,0.30,-5.06,-5.06,-5.06
265.82,-5.89,-0.85,-5.89,-0.85,0.85,0.56,0.30,-5.04,-5.04,-5.04
268.48,-5.94,-0.93,-5.94,-0.93,0.93,0.64,0.29,-5.02,-5.01,-5.01
271.16,-5.98,-1.00,-5.98,-1.00,1.00,0.72,0.28,-4.99,-4.99,-4.98
273.87,-6.03,-1.07,-6.02,-1.06,1.06,0.80,0.27,-4.97,-4.96,-4.96
276.61,-6.06,-1.13,-6.06,-1.12,1.12,0.88,0.26,-4.94,-4.94,-4.93
279.38,-6.09,-1.18,-6.09,-1.17,1.17,0.95,0.25,-4.92,-4.91,-4.91
282.17,-6.11,-1.22,-6.11,-1.22,1.22,1.03,0.24,-4.89,-4.89,-4.89
284.99,-6.13,-1.27,-6.12,-1.26,1.26,1.11,0.22,-4.87,-4.86,-4.86
287.84,-6.13,-1.29,-6.13,-1.29,1.29,1.18,0.21,-4.84,-4.83,-4.84
290.72,-6.13,-1.33,-6.13,-1.32,1.32,1.24,0.19,-4.81,-4.81,-4.80
293.63,-6.12,-1.34,-6.12,-1.34,1.34,1.31,0.17,-4.78,-4.78,-4.78
296.57,-6.11,-1.36,-6.11,-1.36,1.36,1.36,0.16,-4.75,-4.75,-4.75
299.53,-6.09,-1.37,-6.09,-1.37,1.37,1.41,0.14,-4.72,-4.72,-4.72
302.53,-6.06,-1.36,-6.06,-1.38,1.38,1.45,0.12,-4.68,-4.69,-4.70
305.55,-6.04,-1.39,-6.03,-1.38,1.38,1.48,0.10,-4.66,-4.65,-4.65
308.61,-5.99,-1.37,-6.00,-1.38,1.38,1.51,0.07,-4.62,-4.62,-4.62
311.69,-5.95,-1.37,-5.96,-1.37,1.37,1.52,0.05,-4.59,-4.59,-4.58
314.81,-5.90,-1.35,-5.91,-1.35,1.35,1.52,0.03,-4.55,-4.56,-4.55
317.96,-5.86,-1.34,-5.86,-1.33,1.33,1.51,0.01,-4.53,-4.53,-4.52
321.14,-5.80,-1.31,-5.80,-1.31,1.31,1.49,-0.01,-4.49,-4.50,-4.49
324.35,-5.75,-1.28,-5.74,-1.28,1.28,1.46,-0.04,-4.47,-4.47,-4.47
327.59,-5.68,-1.25,-5.68,-1.24,1.24,1.42,-0.06,-4.44,-4.44,-4.43
330.87,-5.61,-1.21,-5.61,-1.20,1.20,1.37,-0.08,-4.41,-4.41,-4.40
334.18,-5.55,-1.17,-5.54,-1.16,1.16,1.31,-0.11,-4.39,-4.38,-4.38
337.52,-5.46,-1.10,-5.47,-1.11,1.11,1.24,-0.13,-4.35,-4.36,-4.36
340.90,-5.39,-1.06,-5.39,-1.06,1.06,1.16,-0.16,-4.33,-4.33,-4.33
344.30,-5.31,-1.00,-5.32,-1.00,1.00,1.08,-0.18,-4.31,-4.31,-4.31
347.75,-5.23,-0.95,-5.24,-0.95,0.95,0.99,-0.20,-4.29,-4.29,-4.28
351.23,-5.13,-0.87,-5.15,-0.89,0.89,0.90,-0.23,-4.25,-4.27,-4.26
354.74,-5.05,-0.80,-5.07,-0.82,0.82,0.81,-0.25,-4.23,-4.25,-4.25
358.28,-4.98,-0.75,-4.99,-0.76,0.76,0.71,-0.28,-4.22,-4.23,-4.23
361.87,-4.90,-0.69,-4.90,-0.69,0.69,0.62,-0.30,-4.21,-4.21,-4.21
365.49,-4.81,-0.63,-4.81,-0.62,0.62,0.52,-0.33,-4.19,-4.19,-4.18
369.14,-4.73,-0.56,-4.72,-0.55,0.55,0.42,-0.36,-4.18,-4.17,-4.17
372.83,-4.64,-0.48,-4.62,-0.47,0.47,0.32,-0.38,-4.17,-4.15,-4.16
376.56,-4.53,-0.39,-4.53,-0.40,0.40,0.23,-0.41,-4.13,-4.13,-4.14
380.33,-4.44,-0.33,-4.43,-0.32,0.32,0.13,-0.43,-4.12,-4.11,-4.11
384.13,-4.33,-0.24,-4.33,-0.24,0.24,0.04,-0.46,-4.09,-4.09,-4.09
387.97,-4.23,-0.16,-4.23,-0.16,0.16,-0.05,-0.48,-4.08,-4.07,-4.07
391.85,-4.12,-0.07,-4.12,-0.07,0.07,-0.14,-0.51,-4.05,-4.05,-4.05
395.77,-4.01,0.01,-4.02,0.01,-0.01,-0.22,-0.54,-4.03,-4.03,-4.02
399.73,-3.90,0.10,-3.91,0.10,-0.10,-0.30,-0.56,-4.00,-4.01,-4.00
403.72,-3.79,0.20,-3.80,0.19,-0.19,-0.38,-0.59,-3.98,-3.99,-3.99
407.76,-3.68,0.29,-3.68,0.28,-0.28,-0.46,-0.61,-3.96,-3.97,-3.97
411.84,-3.57,0.37,-3.57,0.37,-0.37,-0.53,-0.64,-3.94,-3.94,-3.94
415.96,-3.45,0.47,-3.46,0.46,-0.46,-0.60,-0.67,-3.92,-3.92,-3.92
420.12,-3.34,0.56,-3.34,0.56,-0.56,-0.66,-0.69,-3.90,-3.90,-3.90
424.32,-3.23,0.64,-3.23,0.65,-0.65,-0.73,-0.72,-3.88,-3.88,-3.87
428.56,-3.12,0.73,-3.11,0.74,-0.74,-0.79,-0.74,-3.86,-3.85,-3.85
432.85,-3.00,0.83,-2.99,0.84,-0.84,-0.84,-0.77,-3.84,-3.83,-3.83
437.18,-2.89,0.91,-2.88,0.93,-0.93,-0.90,-0.79,-3.82,-3.81,-3.80
441.55,-2.77,1.00,-2.76,1.02,-1.02,-0.95,-0.82,-3.79,-3.78,-3.77
445.96,-2.65,1.10,-2.65,1.10,-1.10,-1.00,-0.84,-3.76,-3.75,-3.75
450.42,-2.54,1.20,-2.54,1.19,-1.19,-1.04,-0.86,-3.73,-3.73,-3.74
454.93,-2.43,1.27,-2.43,1.27,-1.27,-1.09,-0.89,-3.70,-3.70,-3.70
459.48,-2.32,1.36,-2.33,1.35,-1.35,-1.13,-0.91,-3.67,-3.67,-3.68
