frequency,raw,error,smoothed,error_smoothed,equalization,parametric_eq,fixed_band_eq,equalized_raw,equalized_smoothed,target
20.00,0.27,-7.55,0.26,-7.56,7.53,7.11,2.64,7.80,7.80,7.82
20.20,0.35,-7.46,0.35,-7.46,7.45,7.08,2.71,7.80,7.80,7.81
20.40,0.43,-7.37,0.43,-7.37,7.37,7.05,2.79,7.80,7.80,7.80
20.61,0.51,-7.29,0.51,-7.28,7.29,7.02,2.87,7.80,7.81,7.80
20.81,0.60,-7.18,0.59,-7.19,7.22,6.99,2.95,7.82,7.81,7.78
21.02,0.67,-7.11,0.66,-7.12,7.15,6.96,3.04,7.81,7.81,7.78
21.23,0.72,-7.05,0.72,-7.06,7.08,6.93,3.12,7.80,7.80,7.77
21.44,0.76,-7.02,0.76,-7.01,7.01,6.89,3.21,7.77,7.77,7.78
21.66,0.80,-6.97,0.80,-6.97,6.96,6.86,3.31,7.76,7.76,7.77
21.87,0.85,-6.91,0.85,-6.92,6.91,6.82,3.40,7.76,7.75,7.76
22.09,0.89,-6.86,0.89,-6.86,6.86,6.79,3.50,7.75,7.75,7.75
22.31,0.94,-6.81,0.94,-6.81,6.81,6.75,3.60,7.75,7.75,7.75
22.54,0.99,-6.75,0.98,-6.76,6.75,6.72,3.70,7.73,7.73,7.74
22.76,1.04,-6.69,1.04,-6.69,6.68,6.68,3.81,7.72,7.72,7.73
22.99,1.09,-6.63,1.10,-6.62,6.61,6.64,3.91,7.70,7.71,7.72
23.22,1.17,-6.54,1.17,-6.55,6.54,6.60,4.02,7.71,7.71,7.71
23.45,1.25,-6.47,1.24,-6.47,6.47,6.56,4.14,7.72,7.72,7.72
23.69,1.32,-6.39,1.32,-6.39,6.41,6.52,4.25,7.72,7.73,7.71
23.92,1.40,-6.31,1.40,-6.32,6.34,6.48,4.37,7.74,7.74,7.71
24.16,1.46,-6.26,1.45,-6.27,6.29,6.44,4.49,7.74,7.74,7.72
24.40,1.50,-6.23,1.50,-6.23,6.23,6.39,4.61,7.73,7.73,7.73
24.65,1.53,-6.20,1.53,-6.20,6.18,6.35,4.73,7.71,7.71,7.73
24.89,1.57,-6.16,1.57,-6.15,6.13,6.30,4.86,7.70,7.71,7.73
25.14,1.62,-6.10,1.62,-6.11,6.10,6.26,4.98,7.71,7.71,7.72
25.39,1.67,-6.05,1.67,-6.05,6.06,6.21,5.11,7.73,7.73,7.72
25.65,1.71,-6.01,1.71,-6.01,6.03,6.17,5.24,7.74,7.74,7.72
25.91,1.76,-5.97,1.75,-5.98,6.00,6.12,5.36,7.75,7.75,7.73
26.16,1.79,-5.95,1.78,-5.95,5.97,6.07,5.49,7.75,7.75,7.74
26.43,1.81,-5.93,1.80,-5.94,5.93,6.03,5.62,7.74,7.74,7.74
26.69,1.82,-5.92,1.82,-5.92,5.90,5.98,5.74,7.72,7.72,7.74
26.96,1.84,-5.89,1.85,-5.89,5.87,5.93,5.87,7.71,7.72,7.73
27.23,1.89,-5.84,1.89,-5.84,5.83,5.88,5.99,7.72,7.72,7.73
27.50,1.95,-5.78,1.94,-5.79,5.79,5.83,6.10,7.74,7.73,7.73
27.77,2.00,-5.74,2.00,-5.74,5.73,5.78,6.22,7.73,7.74,7.74
28.05,2.06,-5.68,2.06,-5.67,5.68,5.73,6.32,7.73,7.74,7.74
28.33,2.12,-5.60,2.12,-5.61,5.61,5.68,6.42,7.73,7.73,7.72
28.62,2.19,-5.53,2.18,-5.54,5.54,5.62,6.52,7.73,7.72,7.72
28.90,2.25,-5.48,2.25,-5.47,5.47,5.57,6.60,7.72,7.72,7.73
29.19,2.32,-5.41,2.32,-5.41,5.40,5.52,6.68,7.72,7.72,7.73
29.48,2.39,-5.33,2.39,-5.33,5.33,5.46,6.75,7.72,7.73,7.72
29.78,2.47,-5.25,2.46,-5.26,5.27,5.41,6.81,7.74,7.73,7.72
30.08,2.53,-5.20,2.52,-5.20,5.22,5.36,6.86,7.74,7.74,7.73
30.38,2.56,-5.16,2.56,-5.15,5.17,5.30,6.89,7.73,7.73,7.72
30.68,2.59,-5.11,2.59,-5.12,5.13,5.25,6.92,7.72,7.73,7.70
30.99,2.62,-5.08,2.61,-5.09,5.10,5.19,6.93,7.72,7.71,7.70
31.30,2.63,-5.06,2.62,-5.07,5.07,5.14,6.93,7.70,7.69,7.69
31.61,2.63,-5.05,2.63,-5.05,5.04,5.08,6.91,7.66,7.67,7.68
31.93,2.64,-5.03,2.65,-5.02,5.00,5.02,6.89,7.64,7.65,7.67
32.24,2.68,-4.99,2.68,-4.98,4.96,4.97,6.85,7.64,7.64,7.67
32.57,2.74,-4.91,2.73,-4.93,4.91,4.91,6.80,7.65,7.65,7.65
32.89,2.79,-4.86,2.79,-4.86,4.86,4.85,6.74,7.65,7.65,7.65
33.22,2.85,-4.80,2.85,-4.80,4.80,4.79,6.67,7.65,7.65,7.65
33.55,2.91,-4.73,2.91,-4.74,4.74,4.74,6.59,7.65,7.65,7.64
33.89,2.97,-4.68,2.97,-4.68,4.69,4.68,6.50,7.66,7.65,7.65
34.23,3.02,-4.61,3.02,-4.62,4.63,4.62,6.40,7.65,7.65,7.63
34.57,3.06,-4.57,3.06,-4.57,4.58,4.56,6.30,7.64,7.65,7.63
34.92,3.11,-4.51,3.10,-4.52,4.53,4.50,6.18,7.64,7.64,7.62
35.27,3.14,-4.49,3.13,-4.49,4.48,4.44,6.07,7.62,7.61,7.63
35.62,3.16,-4.45,3.16,-4.46,4.43,4.38,5.95,7.58,7.58,7.61
35.97,3.18,-4.43,3.20,-4.41,4.37,4.32,5.82,7.55,7.57,7.61
36.33,3.26,-4.33,3.27,-4.33,4.32,4.26,5.69,7.58,7.59,7.59
36.70,3.34,-4.24,3.33,-4.25,4.28,4.20,5.56,7.61,7.61,7.58
37.06,3.41,-4.15,3.38,-4.18,4.22,4.14,5.43,7.63,7.60,7.56
37.43,3.39,-4.15,3.39,-4.15,4.17,4.08,5.30,7.56,7.56,7.54
37.81,3.38,-4.14,3.39,-4.13,4.12,4.02,5.16,7.50,7.51,7.52
38.19,3.39,-4.10,3.40,-4.10,4.06,3.96,5.03,7.45,7.46,7.49
38.57,3.44,-4.03,3.43,-4.03,4.01,3.90,4.90,7.45,7.44,7.47
38.95,3.48,-3.96,3.47,-3.97,3.96,3.84,4.77,7.44,7.43,7.44
39.34,3.51,-3.89,3.51,-3.90,3.90,3.78,4.63,7.41,7.41,7.40
39.74,3.54,-3.84,3.54,-3.84,3.84,3.71,4.50,7.38,7.38,7.38
40.14,3.58,-3.77,3.58,-3.77,3.78,3.65,4.38,7.35,7.36,7.35
40.54,3.63,-3.70,3.63,-3.70,3.72,3.59,4.25,7.34,7.34,7.33
40.94,3.68,-3.62,3.66,-3.64,3.66,3.53,4.13,7.33,7.32,7.30
41.35,3.69,-3.59,3.68,-3.59,3.60,3.47,4.00,7.29,7.28,7.28
41.76,3.69,-3.55,3.70,-3.55,3.54,3.40,3.88,7.23,7.24,7.24
42.18,3.71,-3.51,3.71,-3.51,3.48,3.34,3.77,7.19,7.20,7.22
42.60,3.75,-3.45,3.75,-3.45,3.43,3.28,3.65,7.17,7.17,7.20
43.03,3.79,-3.38,3.79,-3.38,3.38,3.22,3.54,7.16,7.17,7.17
43.46,3.84,-3.30,3.84,-3.31,3.33,3.15,3.43,7.17,7.17,7.14
43.90,3.88,-3.24,3.87,-3.24,3.28,3.09,3.32,7.16,7.15,7.12
44.33,3.89,-3.19,3.89,-3.20,3.23,3.03,3.22,7.12,7.12,7.08
44.78,3.89,-3.16,3.89,-3.17,3.17,2.96,3.12,7.06,7.06,7.05
45.23,3.89,-3.15,3.88,-3.14,3.11,2.90,3.02,6.99,6.99,7.04
45.68,3.89,-3.10,3.90,-3.10,3.05,2.84,2.92,6.93,6.94,6.99
46.13,3.92,-3.03,3.95,-3.01,2.99,2.77,2.82,6.90,6.93,6.95
46.60,4.02,-2.90,4.01,-2.91,2.92,2.71,2.73,6.94,6.93,6.92
47.06,4.10,-2.78,4.07,-2.82,2.86,2.65,2.64,6.96,6.93,6.88
47.53,4.09,-2.76,4.10,-2.74,2.79,2.58,2.55,6.88,6.89,6.85
48.01,4.09,-2.70,4.09,-2.70,2.71,2.52,2.47,6.80,6.80,6.79
48.49,4.09,-2.65,4.09,-2.66,2.63,2.46,2.39,6.72,6.72,6.74
48.97,4.09,-2.61,4.10,-2.59,2.55,2.39,2.30,6.64,6.66,6.70
49.46,4.14,-2.52,4.14,-2.51,2.48,2.33,2.23,6.62,6.62,6.66
49.96,4.19,-2.40,4.19,-2.41,2.41,2.26,2.15,6.60,6.60,6.59
50.46,4.24,-2.31,4.24,-2.31,2.34,2.20,2.07,6.58,6.58,6.55
50.96,4.29,-2.22,4.27,-2.23,2.27,2.14,2.00,6.56,6.55,6.51
51.47,4.29,-2.18,4.29,-2.18,2.20,2.07,1.93,6.49,6.49,6.47
51.99,4.29,-2.13,4.29,-2.13,2.13,2.01,1.86,6.41,6.42,6.42
52.51,4.30,-2.08,4.29,-2.09,2.06,1.94,1.79,6.36,6.35,6.38
53.03,4.30,-2.05,4.32,-2.02,2.00,1.88,1.72,6.30,6.31,6.35
53.56,4.35,-1.94,4.35,-1.95,1.94,1.81,1.65,6.29,6.29,6.29
54.10,4.39,-1.85,4.37,-1.87,1.89,1.75,1.59,6.28,6.26,6.24
54.64,4.39,-1.81,4.39,-1.80,1.83,1.68,1.52,6.22,6.23,6.20
55.18,4.39,-1.75,4.39,-1.75,1.77,1.62,1.46,6.16,6.17,6.14
55.74,4.39,-1.70,4.38,-1.72,1.71,1.56,1.40,6.10,6.09,6.09
56.29,4.39,-1.67,4.38,-1.67,1.64,1.49,1.33,6.03,6.03,6.06
56.86,4.39,-1.63,4.40,-1.61,1.58,1.43,1.27,5.97,5.98,6.02
57.42,4.43,-1.53,4.43,-1.54,1.51,1.36,1.21,5.94,5.95,5.96
58.00,4.49,-1.44,4.49,-1.44,1.45,1.30,1.15,5.94,5.94,5.93
58.58,4.55,-1.35,4.54,-1.36,1.38,1.23,1.10,5.93,5.92,5.90
59.16,4.59,-1.27,4.58,-1.28,1.31,1.17,1.04,5.90,5.89,5.86
59.76,4.59,-1.23,4.59,-1.22,1.24,1.10,0.98,5.83,5.83,5.82
60.35,4.59,-1.16,4.59,-1.17,1.17,1.04,0.92,5.76,5.76,5.75
60.96,4.59,-1.11,4.59,-1.11,1.10,0.97,0.86,5.68,5.68,5.70
61.57,4.59,-1.04,4.58,-1.05,1.03,0.91,0.81,5.61,5.61,5.63
62.18,4.59,-0.97,4.59,-0.98,0.96,0.84,0.75,5.55,5.54,5.56
62.80,4.59,-0.91,4.61,-0.89,0.89,0.77,0.69,5.47,5.49,5.50
63.43,4.64,-0.80,4.64,-0.80,0.81,0.71,0.63,5.45,5.45,5.44
64.07,4.70,-0.69,4.68,-0.71,0.73,0.64,0.58,5.43,5.41,5.39
64.71,4.70,-0.63,4.69,-0.63,0.65,0.58,0.52,5.34,5.34,5.33
65.35,4.70,-0.57,4.70,-0.57,0.56,0.51,0.46,5.26,5.27,5.27
66.01,4.70,-0.51,4.72,-0.50,0.48,0.45,0.40,5.18,5.20,5.21
66.67,4.76,-0.41,4.75,-0.41,0.41,0.38,0.34,5.16,5.15,5.17
67.33,4.79,-0.30,4.78,-0.32,0.33,0.32,0.29,5.12,5.11,5.09
68.01,4.80,-0.24,4.80,-0.24,0.26,0.25,0.23,5.06,5.06,5.04
68.69,4.80,-0.17,4.80,-0.17,0.19,0.18,0.17,4.99,4.99,4.97
69.37,4.80,-0.12,4.80,-0.12,0.11,0.12,0.11,4.91,4.91,4.92
70.07,4.80,-0.05,4.80,-0.06,0.03,0.05,0.05,4.83,4.83,4.85
70.77,4.80,0.01,4.81,0.02,-0.05,-0.02,-0.01,4.75,4.76,4.79
71.48,4.83,0.11,4.84,0.12,-0.13,-0.08,-0.07,4.70,4.71,4.72
72.19,4.88,0.23,4.87,0.21,-0.21,-0.15,-0.13,4.67,4.66,4.65
72.91,4.90,0.31,4.89,0.30,-0.28,-0.21,-0.20,4.62,4.61,4.59
73.64,4.90,0.38,4.90,0.38,-0.36,-0.28,-0.26,4.54,4.54,4.52
74.38,4.90,0.44,4.90,0.44,-0.43,-0.35,-0.32,4.46,4.47,4.46
75.12,4.90,0.51,4.90,0.50,-0.50,-0.41,-0.39,4.40,4.40,4.39
75.87,4.90,0.55,4.90,0.56,-0.56,-0.48,-0.45,4.34,4.34,4.35
76.63,4.90,0.62,4.90,0.62,-0.62,-0.55,-0.51,4.28,4.28,4.28
77.40,4.90,0.67,4.90,0.67,-0.67,-0.61,-0.58,4.23,4.23,4.23
78.17,4.90,0.73,4.90,0.72,-0.72,-0.68,-0.65,4.18,4.18,4.17
78.95,4.90,0.77,4.90,0.77,-0.77,-0.75,-0.71,4.13,4.13,4.13
79.74,4.90,0.83,4.90,0.83,-0.82,-0.82,-0.78,4.08,4.08,4.07
80.54,4.90,0.89,4.90,0.88,-0.89,-0.88,-0.85,4.01,4.01,4.01
81.35,4.90,0.94,4.90,0.94,-0.96,-0.95,-0.92,3.94,3.94,3.96
82.16,4.91,1.00,4.91,1.00,-1.04,-1.02,-0.99,3.87,3.87,3.91
82.98,4.94,1.09,4.95,1.10,-1.13,-1.08,-1.06,3.81,3.82,3.85
83.81,5.00,1.21,5.00,1.21,-1.21,-1.15,-1.14,3.79,3.79,3.79
84.65,5.07,1.34,5.06,1.33,-1.30,-1.22,-1.21,3.77,3.75,3.73
85.50,5.10,1.44,5.09,1.43,-1.39,-1.29,-1.28,3.71,3.70,3.66
86.35,5.10,1.50,5.10,1.50,-1.47,-1.36,-1.36,3.63,3.63,3.60
87.22,5.10,1.55,5.10,1.56,-1.55,-1.42,-1.44,3.55,3.55,3.55
88.09,5.10,1.62,5.10,1.61,-1.62,-1.49,-1.51,3.47,3.47,3.48
88.97,5.10,1.67,5.10,1.68,-1.69,-1.56,-1.59,3.41,3.41,3.43
89.86,5.10,1.75,5.10,1.74,-1.75,-1.63,-1.67,3.35,3.35,3.35
90.76,5.10,1.81,5.10,1.81,-1.81,-1.70,-1.76,3.29,3.29,3.29
91.66,5.10,1.88,5.10,1.88,-1.88,-1.76,-1.84,3.22,3.23,3.22
92.58,5.11,1.95,5.11,1.95,-1.95,-1.83,-1.92,3.16,3.16,3.16
93.51,5.11,2.02,5.11,2.02,-2.02,-1.90,-2.01,3.09,3.09,3.09
94.44,5.11,2.09,5.11,2.09,-2.09,-1.97,-2.09,3.02,3.01,3.02
95.39,5.10,2.16,5.10,2.16,-2.17,-2.04,-2.18,2.93,2.94,2.94
96.34,5.10,2.24,5.10,2.24,-2.24,-2.11,-2.27,2.86,2.86,2.86
97.30,5.10,2.32,5.10,2.32,-2.31,-2.18,-2.36,2.78,2.78,2.78
98.28,5.09,2.40,5.09,2.40,-2.39,-2.24,-2.45,2.70,2.70,2.69
99.26,5.07,2.47,5.07,2.46,-2.46,-2.31,-2.54,2.61,2.61,2.60
100.25,5.05,2.53,5.05,2.53,-2.53,-2.38,-2.63,2.52,2.52,2.52
101.25,5.03,2.58,5.03,2.59,-2.59,-2.45,-2.73,2.43,2.44,2.45
102.27,5.02,2.66,5.02,2.65,-2.66,-2.52,-2.82,2.36,2.36,2.36
103.29,5.01,2.73,5.01,2.72,-2.72,-2.59,-2.91,2.29,2.29,2.28
104.32,4.99,2.78,4.99,2.78,-2.78,-2.66,-3.00,2.21,2.21,2.21
105.37,4.97,2.84,4.97,2.84,-2.83,-2.73,-3.10,2.14,2.14,2.13
106.42,4.94,2.90,4.94,2.90,-2.89,-2.80,-3.19,2.05,2.05,2.04
107.48,4.92,2.97,4.92,2.95,-2.95,-2.87,-3.28,1.97,1.96,1.95
108.56,4.89,3.00,4.89,3.01,-3.02,-2.94,-3.37,1.87,1.87,1.89
109.64,4.87,3.07,4.87,3.06,-3.09,-3.00,-3.46,1.78,1.78,1.80
110.74,4.85,3.13,4.87,3.14,-3.16,-3.07,-3.54,1.69,1.71,1.72
111.85,4.89,3.24,4.89,3.24,-3.24,-3.14,-3.63,1.65,1.65,1.65
112.97,4.93,3.35,4.91,3.33,-3.32,-3.21,-3.71,1.61,1.59,1.58
114.10,4.92,3.41,4.92,3.42,-3.40,-3.28,-3.79,1.52,1.52,1.51
115.24,4.92,3.49,4.92,3.49,-3.48,-3.35,-3.87,1.44,1.44,1.43
116.39,4.92,3.57,4.92,3.56,-3.56,-3.42,-3.94,1.36,1.36,1.35
117.55,4.92,3.63,4.92,3.64,-3.64,-3.49,-4.01,1.28,1.28,1.29
118.73,4.93,3.72,4.93,3.71,-3.71,-3.56,-4.08,1.22,1.22,1.21
119.92,4.94,3.79,4.93,3.78,-3.78,-3.63,-4.14,1.16,1.15,1.15
121.12,4.94,3.84,4.94,3.85,-3.85,-3.70,-4.20,1.09,1.09,1.10
122.33,4.95,3.92,4.95,3.91,-3.91,-3.76,-4.25,1.03,1.04,1.03
123.55,4.96,3.98,4.96,3.98,-3.98,-3.83,-4.30,0.98,0.97,0.98
124.79,4.97,4.05,4.97,4.05,-4.05,-3.90,-4.35,0.92,0.91,0.92
126.03,4.97,4.12,4.97,4.12,-4.12,-3.97,-4.39,0.85,0.85,0.85
127.29,4.98,4.19,4.98,4.19,-4.19,-4.04,-4.43,0.79,0.79,0.79
128.57,4.99,4.26,4.99,4.26,-4.26,-4.11,-4.46,0.73,0.73,0.73
129.85,4.99,4.33,4.99,4.33,-4.33,-4.17,-4.49,0.66,0.67,0.66
131.15,5.00,4.40,5.00,4.40,-4.39,-4.24,-4.51,0.60,0.60,0.60
132.46,5.00,4.46,5.00,4.46,-4.46,-4.31,-4.53,0.54,0.54,0.54
133.79,5.01,4.53,5.01,4.52,-4.53,-4.38,-4.55,0.48,0.48,0.48
135.12,5.01,4.59,5.01,4.58,-4.59,-4.44,-4.56,0.42,0.42,0.42
136.48,5.01,4.63,5.01,4.64,-4.64,-4.51,-4.57,0.36,0.37,0.38
137.84,5.02,4.70,5.02,4.71,-4.69,-4.58,-4.58,0.32,0.33,0.32
139.22,5.02,4.78,5.02,4.76,-4.74,-4.64,-4.59,0.28,0.28,0.24
140.61,5.02,4.82,5.00,4.80,-4.79,-4.71,-4.60,0.23,0.21,0.20
142.02,4.95,4.81,4.96,4.83,-4.83,-4.77,-4.60,0.12,0.13,0.14
143.44,4.93,4.86,4.94,4.86,-4.88,-4.84,-4.60,0.05,0.06,0.07
144.87,4.92,4.90,4.92,4.90,-4.92,-4.90,-4.61,-0.00,-0.01,0.02
146.32,4.92,4.95,4.92,4.95,-4.96,-4.97,-4.61,-0.04,-0.05,-0.03
147.78,4.92,5.01,4.92,5.01,-5.00,-5.03,-4.62,-0.08,-0.08,-0.09
149.26,4.92,5.06,4.92,5.07,-5.04,-5.10,-4.62,-0.12,-0.12,-0.14
150.75,4.92,5.13,4.91,5.11,-5.08,-5.16,-4.63,-0.16,-0.17,-0.21
152.26,4.89,5.14,4.88,5.13,-5.12,-5.22,-4.63,-0.23,-0.24,-0.25
153.78,4.83,5.14,4.85,5.15,-5.17,-5.28,-4.64,-0.34,-0.32,-0.31
155.32,4.82,5.18,4.82,5.18,-5.21,-5.34,-4.65,-0.39,-0.39,-0.36
156.88,4.82,5.24,4.81,5.23,-5.25,-5.40,-4.67,-0.44,-0.44,-0.42
158.44,4.82,5.30,4.82,5.29,-5.30,-5.46,-4.68,-0.48,-0.48,-0.48
160.03,4.82,5.36,4.82,5.36,-5.35,-5.52,-4.70,-0.54,-0.53,-0.54
161.63,4.82,5.42,4.82,5.42,-5.41,-5.58,-4.72,-0.59,-0.59,-0.60
163.24,4.82,5.49,4.82,5.48,-5.47,-5.64,-4.75,-0.65,-0.65,-0.67
164.88,4.81,5.53,4.81,5.54,-5.53,-5.70,-4.77,-0.72,-0.72,-0.72
166.53,4.81,5.60,4.81,5.59,-5.59,-5.75,-4.80,-0.78,-0.78,-0.79
168.19,4.80,5.64,4.80,5.64,-5.65,-5.81,-4.84,-0.85,-0.84,-0.84
169.87,4.80,5.70,4.80,5.70,-5.70,-5.86,-4.88,-0.90,-0.90,-0.90
171.57,4.79,5.76,4.79,5.75,-5.75,-5.92,-4.92,-0.96,-0.97,-0.97
173.29,4.78,5.81,4.78,5.81,-5.81,-5.97,-4.96,-1.03,-1.02,-1.03
175.02,4.78,5.86,4.78,5.86,-5.86,-6.02,-5.01,-1.08,-1.08,-1.08
176.77,4.78,5.91,4.78,5.91,-5.92,-6.07,-5.07,-1.14,-1.14,-1.13
178.54,4.78,5.97,4.78,5.97,-5.98,-6.12,-5.12,-1.20,-1.20,-1.19
180.32,4.78,6.03,4.78,6.02,-6.03,-6.17,-5.18,-1.25,-1.26,-1.25
182.13,4.78,6.07,4.78,6.08,-6.08,-6.22,-5.25,-1.30,-1.30,-1.29
183.95,4.79,6.13,4.80,6.14,-6.13,-6.26,-5.32,-1.34,-1.33,-1.34
185.79,4.81,6.20,4.81,6.19,-6.17,-6.31,-5.39,-1.36,-1.36,-1.39
187.65,4.82,6.25,4.80,6.24,-6.20,-6.35,-5.47,-1.38,-1.40,-1.43
189.52,4.78,6.26,4.78,6.25,-6.23,-6.40,-5.55,-1.45,-1.45,-1.48
191.42,4.74,6.25,4.74,6.25,-6.26,-6.44,-5.63,-1.52,-1.53,-1.51
193.33,4.69,6.25,4.70,6.26,-6.29,-6.48,-5.72,-1.60,-1.59,-1.56
195.27,4.68,6.29,4.68,6.29,-6.32,-6.52,-5.81,-1.64,-1.64,-1.61
197.22,4.69,6.35,4.68,6.34,-6.35,-6.55,-5.90,-1.67,-1.67,-1.66
199.19,4.70,6.39,4.70,6.39,-6.39,-6.59,-6.00,-1.69,-1.69,-1.69
201.18,4.71,6.45,4.71,6.44,-6.43,-6.63,-6.09,-1.72,-1.72,-1.74
203.19,4.71,6.48,4.71,6.48,-6.47,-6.66,-6.19,-1.76,-1.76,-1.77
205.23,4.72,6.53,4.72,6.52,-6.52,-6.69,-6.30,-1.80,-1.81,-1.81
207.28,4.72,6.56,4.71,6.56,-6.57,-6.72,-6.40,-1.85,-1.85,-1.84
209.35,4.71,6.59,4.71,6.60,-6.61,-6.75,-6.50,-1.90,-1.90,-1.88
211.44,4.71,6.64,4.71,6.63,-6.64,-6.78,-6.61,-1.93,-1.93,-1.93
213.56,4.71,6.67,4.71,6.67,-6.66,-6.80,-6.71,-1.95,-1.95,-1.96
215.69,4.70,6.70,4.71,6.71,-6.67,-6.83,-6.82,-1.97,-1.97,-2.00
217.85,4.70,6.73,4.68,6.71,-6.68,-6.85,-6.92,-1.98,-2.00,-2.03
220.03,4.63,6.71,4.63,6.70,-6.68,-6.87,-7.02,-2.05,-2.05,-2.08
222.23,4.56,6.66,4.56,6.67,-6.68,-6.89,-7.12,-2.12,-2.11,-2.10
224.45,4.50,6.63,4.51,6.65,-6.68,-6.90,-7.21,-2.18,-2.17,-2.13
226.70,4.49,6.65,4.49,6.64,-6.68,-6.92,-7.30,-2.19,-2.19,-2.16
228.96,4.50,6.68,4.49,6.67,-6.69,-6.93,-7.39,-2.19,-2.20,-2.18
231.25,4.50,6.69,4.50,6.70,-6.71,-6.95,-7.46,-2.21,-2.21,-2.19
233.57,4.51,6.73,4.51,6.73,-6.72,-6.96,-7.54,-2.22,-2.21,-2.22
235.90,4.53,6.76,4.53,6.76,-6.74,-6.96,-7.60,-2.21,-2.21,-2.23
238.26,4.54,6.79,4.54,6.78,-6.75,-6.97,-7.66,-2.22,-2.21,-2.25
240.64,4.56,6.80,4.55,6.79,-6.76,-6.98,-7.70,-2.20,-2.21,-2.24
243.05,4.53,6.78,4.53,6.79,-6.76,-6.98,-7.74,-2.24,-2.23,-2.25
245.48,4.51,6.78,4.50,6.76,-6.76,-6.98,-7.77,-2.26,-2.27,-2.27
247.93,4.45,6.73,4.46,6.73,-6.76,-6.98,-7.78,-2.31,-2.30,-2.28
250.41,4.44,6.71,4.45,6.72,-6.76,-6.98,-7.79,-2.32,-2.31,-2.27
252.92,4.46,6.73,4.45,6.73,-6.76,-6.98,-7.79,-2.30,-2.31,-2.27
255.45,4.47,6.76,4.47,6.75,-6.75,-6.97,-7.77,-2.28,-2.29,-2.29
258.00,4.48,6.78,4.48,6.78,-6.75,-6.97,-7.75,-2.27,-2.27,-2.30
260.58,4.48,6.79,4.47,6.79,-6.75,-6.96,-7.71,-2.28,-2.28,-2.31
263.19,4.47,6.79,4.45,6.77,-6.76,-6.95,-7.67,-2.29,-2.31,-2.32
265.82,4.40,6.74,4.42,6.75,-6.76,-6.94,-7.62,-2.36,-2.34,-2.34
268.48,4.38,6.72,4.39,6.73,-6.75,-6.92,-7.56,-2.37,-2.37,-2.34
271.16,4.37,6.73,4.37,6.73,-6.74,-6.91,-7.49,-2.37,-2.37,-2.36
273.87,4.37,6.74,4.36,6.73,-6.72,-6.89,-7.41,-2.35,-2.37,-2.37
276.61,4.34,6.73,4.33,6.72,-6.70,-6.88,-7.33,-2.36,-2.37,-2.39
279.38,4.28,6.70,4.30,6.71,-6.69,-6.86,-7.25,-2.41,-2.39,-2.42
282.17,4.27,6.69,4.25,6.67,-6.68,-6.84,-7.16,-2.41,-2.42,-2.42
284.99,4.23,6.65,4.22,6.64,-6.67,-6.81,-7.07,-2.44,-2.45,-2.42
287.84,4.18,6.60,4.20,6.63,-6.66,-6.79,-6.97,-2.48,-2.46,-2.42
290.72,4.20,6.64,4.19,6.62,-6.64,-6.77,-6.88,-2.45,-2.45,-2.44
293.63,4.21,6.64,4.21,6.64,-6.62,-6.74,-6.78,-2.41,-2.41,-2.43
296.57,4.22,6.65,4.22,6.66,-6.60,-6.71,-6.68,-2.38,-2.38,-2.43
299.53,4.23,6.67,4.19,6.62,-6.59,-6.69,-6.58,-2.36,-2.40,-2.44
302.53,4.14,6.57,4.14,6.57,-6.58,-6.66,-6.49,-2.44,-2.43,-2.43
305.55,4.06,6.50,4.09,6.53,-6.56,-6.63,-6.39,-2.51,-2.47,-2.44
308.61,4.06,6.49,4.06,6.49,-6.55,-6.59,-6.30,-2.49,-2.49,-2.43
311.69,4.07,6.52,4.06,6.50,-6.53,-6.56,-6.20,-2.46,-2.47,-2.45
314.81,4.07,6.51,4.08,6.52,-6.51,-6.53,-6.11,-2.44,-2.43,-2.44
317.96,4.08,6.54,4.08,6.53,-6.49,-6.49,-6.03,-2.41,-2.41,-2.46
321.14,4.07,6.52,4.05,6.50,-6.47,-6.46,-5.94,-2.40,-2.42,-2.45
324.35,4.00,6.46,4.00,6.46,-6.44,-6.42,-5.86,-2.44,-2.44,-2.46
327.59,3.94,6.39,3.95,6.40,-6.41,-6.38,-5.78,-2.47,-2.46,-2.45
330.87,3.89,6.35,3.89,6.35,-6.37,-6.35,-5.71,-2.49,-2.48,-2.46
334.18,3.87,6.34,3.85,6.32,-6.33,-6.31,-5.64,-2.46,-2.47,-2.47
337.52,3.81,6.27,3.82,6.29,-6.28,-6.27,-5.57,-2.47,-2.46,-2.46
340.90,3.78,6.25,3.78,6.24,-6.24,-6.23,-5.51,-2.46,-2.46,-2.47
344.30,3.75,6.21,3.73,6.19,-6.21,-6.19,-5.45,-2.46,-2.48,-2.46
347.75,3.68,6.13,3.70,6.16,-6.17,-6.15,-5.39,-2.49,-2.47,-2.45
351.23,3.67,6.14,3.67,6.13,-6.14,-6.11,-5.34,-2.47,-2.46,-2.47
354.74,3.67,6.12,3.65,6.10,-6.10,-6.07,-5.30,-2.43,-2.45,-2.45
358.28,3.62,6.07,3.63,6.09,-6.05,-6.02,-5.26,-2.44,-2.42,-2.45
361.87,3.59,6.04,3.60,6.04,-6.01,-5.98,-5.22,-2.43,-2.41,-2.45
365.49,3.58,6.02,3.54,5.98,-5.98,-5.94,-5.18,-2.40,-2.43,-2.44
369.14,3.48,5.91,3.49,5.92,-5.94,-5.90,-5.15,-2.46,-2.45,-2.43
372.83,3.41,5.83,3.44,5.86,-5.89,-5.86,-5.13,-2.49,-2.46,-2.42
376.56,3.41,5.84,3.41,5.83,-5.85,-5.81,-5.10,-2.44,-2.45,-2.43
380.33,3.41,5.84,3.40,5.82,-5.81,-5.77,-5.08,-2.41,-2.41,-2.43
384.13,3.39,5.81,3.38,5.80,-5.78,-5.73,-5.07,-2.39,-2.40,-2.42
387.97,3.34,5.76,3.33,5.76,-5.75,-5.69,-5.06,-2.41,-2.42,-2.42
391.85,3.27,5.70,3.28,5.71,-5.73,-5.65,-5.05,-2.46,-2.44,-2.43
395.77,3.24,5.68,3.25,5.68,-5.70,-5.61,-5.04,-2.46,-2.45,-2.44
399.73,3.23,5.67,3.22,5.66,-5.67,-5.57,-5.04,-2.44,-2.44,-2.44
403.72,3.22,5.65,3.20,5.64,-5.63,-5.53,-5.04,-2.41,-2.43,-2.43
407.76,3.15,5.60,3.17,5.61,-5.59,-5.49,-5.04,-2.44,-2.42,-2.45
411.84,3.12,5.58,3.11,5.56,-5.55,-5.45,-5.04,-2.43,-2.44,-2.46
415.96,3.05,5.51,3.04,5.50,-5.51,-5.41,-5.05,-2.46,-2.47,-2.46
420.12,2.97,5.44,2.98,5.45,-5.46,-5.37,-5.05,-2.49,-2.48,-2.47
424.32,2.93,5.39,2.95,5.40,-5.41,-5.33,-5.06,-2.48,-2.46,-2.46
428.56,2.93,5.37,2.92,5.36,-5.36,-5.29,-5.07,-2.43,-2.44,-2.44
432.85,2.93,5.35,2.89,5.31,-5.31,-5.26,-5.07,-2.39,-2.42,-2.42
437.18,2.84,5.25,2.86,5.26,-5.27,-5.22,-5.08,-2.43,-2.41,-2.41
441.55,2.81,5.19,2.84,5.21,-5.23,-5.18,-5.09,-2.42,-2.39,-2.38
445.96,2.85,5.19,2.84,5.18,-5.18,-5.15,-5.10,-2.34,-2.35,-2.34
450.42,2.87,5.17,2.85,5.15,-5.14,-5.11,-5.10,-2.28,-2.29,-2.30
454.93,2.87,5.12,2.86,5.11,-5.10,-5.07,-5.10,-2.23,-2.24,-2.25
459.48,2.85,5.04,2.87,5.06,-5.05,-5.04,-5.10,-2.21,-2.19,-2.19
464.07,2.88,5.00,2.88,5.01,-5.01,-5.00,-5.10,-2.13,-2.13,-2.12
468.71,2.91,4.98,2.89,4.96,-4.96,-4.96,-5.09,-2.05,-2.07,-2.07
473.40,2.91,4.92,2.91,4.92,-4.91,-4.92,-5.08,-2.00,-2.00,-2.01
478.13,2.90,4.85,2.90,4.86,-4.86,-4.88,-5.07,-1.96,-1.95,-1.95
482.91,2.91,4.81,2.89,4.79,-4.80,-4.83,-5.05,-1.89,-1.91,-1.90
487.74,2.85,4.72,2.88,4.75,-4.74,-4.79,-5.03,-1.89,-1.86,-1.87
492.62,2.87,4.70,2.86,4.69,-4.68,-4.74,-5.00,-1.81,-1.82,-1.83
497.55,2.86,4.65,2.82,4.62,-4.62,-4.69,-4.97,-1.76,-1.79,-1.79
502.52,2.76,4.53,2.80,4.57,-4.55,-4.63,-4.93,-1.79,-1.75,-1.77
507.55,2.75,4.49,2.75,4.50,-4.49,-4.58,-4.88,-1.75,-1.74,-1.74
512.62,2.75,4.48,2.69,4.42,-4.44,-4.51,-4.84,-1.69,-1.75,-1.73
517.75,2.61,4.33,2.64,4.36,-4.38,-4.45,-4.78,-1.78,-1.74,-1.72
522.93,2.55,4.27,2.58,4.31,-4.33,-4.38,-4.72,-1.78,-1.74,-1.72
