frequency,raw,error,smoothed,error_smoothed,equalization,parametric_eq,fixed_band_eq,equalized_raw,equalized_smoothed,target
20.00,-25.98,-27.92,-25.86,-27.82,27.82,29.03,12.47,1.84,1.96,1.94
20.20,-25.81,-27.79,-25.75,-27.74,27.74,28.76,12.66,1.93,1.99,1.98
20.40,-25.64,-27.65,-25.64,-27.66,27.66,28.50,12.86,2.02,2.02,2.01
20.61,-25.48,-27.52,-25.52,-27.57,27.57,28.24,13.06,2.09,2.05,2.04
20.81,-25.29,-27.37,-25.41,-27.48,27.48,28.00,13.27,2.19,2.07,2.08
21.02,-25.13,-27.25,-25.29,-27.38,27.38,27.76,13.48,2.25,2.09,2.12
21.23,-25.07,-27.20,-25.16,-27.28,27.28,27.53,13.70,2.20,2.12,2.13
21.44,-25.00,-27.15,-25.03,-27.17,27.17,27.31,13.92,2.17,2.14,2.15
21.66,-24.93,-27.10,-24.90,-27.06,27.06,27.10,14.15,2.12,2.16,2.17
21.87,-24.87,-27.05,-24.77,-26.94,26.94,26.89,14.38,2.07,2.17,2.18
22.09,-24.75,-26.95,-24.63,-26.82,26.82,26.70,14.62,2.07,2.19,2.20
22.31,-24.56,-26.76,-24.49,-26.69,26.69,26.51,14.87,2.13,2.20,2.20
22.54,-24.38,-26.58,-24.36,-26.57,26.57,26.33,15.12,2.20,2.21,2.21
22.76,-24.18,-26.40,-24.22,-26.44,26.44,26.16,15.38,2.26,2.22,2.22
22.99,-23.99,-26.21,-24.06,-26.29,26.29,25.99,15.65,2.30,2.23,2.21
23.22,-23.86,-26.09,-23.90,-26.14,26.14,25.83,15.92,2.28,2.23,2.22
23.45,-23.74,-25.97,-23.74,-25.98,25.98,25.68,16.20,2.24,2.24,2.23
23.69,-23.61,-25.86,-23.58,-25.83,25.83,25.53,16.50,2.21,2.24,2.24
23.92,-23.49,-25.74,-23.43,-25.67,25.67,25.39,16.80,2.18,2.25,2.25
24.16,-23.31,-25.57,-23.28,-25.53,25.53,25.26,17.11,2.22,2.25,2.26
24.40,-23.10,-25.37,-23.13,-25.38,25.38,25.12,17.43,2.28,2.25,2.27
24.65,-22.90,-25.16,-22.98,-25.24,25.24,25.00,17.76,2.33,2.26,2.26
24.89,-22.69,-24.95,-22.84,-25.10,25.10,24.87,18.10,2.41,2.26,2.26
25.14,-22.57,-24.83,-22.69,-24.95,24.95,24.75,18.45,2.38,2.26,2.26
25.39,-22.51,-24.77,-22.54,-24.80,24.80,24.64,18.82,2.29,2.26,2.26
25.65,-22.45,-24.71,-22.39,-24.65,24.65,24.52,19.20,2.20,2.26,2.25
25.91,-22.39,-24.64,-22.23,-24.49,24.49,24.41,19.59,2.09,2.26,2.24
26.16,-22.22,-24.47,-22.07,-24.32,24.32,24.30,20.00,2.10,2.25,2.25
26.43,-22.00,-24.25,-21.90,-24.15,24.15,24.19,20.43,2.16,2.25,2.25
26.69,-21.76,-24.01,-21.74,-23.98,23.98,24.08,20.87,2.22,2.25,2.25
26.96,-21.53,-23.78,-21.57,-23.82,23.82,23.97,21.33,2.28,2.24,2.25
27.23,-21.35,-23.60,-21.41,-23.65,23.65,23.86,21.81,2.29,2.24,2.25
27.50,-21.19,-23.44,-21.23,-23.47,23.47,23.75,22.30,2.28,2.24,2.25
27.77,-21.02,-23.25,-21.06,-23.30,23.30,23.64,22.82,2.28,2.24,2.23
28.05,-20.86,-23.09,-20.88,-23.12,23.12,23.53,23.35,2.26,2.24,2.23
28.33,-20.69,-22.91,-20.71,-22.94,22.94,23.41,23.90,2.25,2.23,2.22
28.62,-20.52,-22.75,-20.54,-22.77,22.77,23.29,24.46,2.24,2.23,2.23
28.90,-20.35,-22.58,-20.38,-22.61,22.61,23.17,25.03,2.26,2.23,2.23
29.19,-20.20,-22.42,-20.24,-22.46,22.46,23.04,25.60,2.26,2.22,2.22
29.48,-20.07,-22.30,-20.11,-22.33,22.33,22.91,26.16,2.25,2.22,2.22
29.78,-19.93,-22.16,-19.97,-22.18,22.18,22.77,26.69,2.25,2.22,2.22
30.08,-19.80,-22.02,-19.82,-22.03,22.03,22.63,27.17,2.23,2.21,2.22
30.38,-19.69,-21.90,-19.67,-21.88,21.88,22.49,27.59,2.18,2.21,2.21
30.68,-19.57,-21.78,-19.52,-21.72,21.72,22.33,27.90,2.15,2.20,2.21
30.99,-19.46,-21.66,-19.37,-21.57,21.57,22.18,28.09,2.11,2.20,2.19
31.30,-19.29,-21.49,-19.23,-21.42,21.42,22.02,28.14,2.13,2.19,2.19
31.61,-19.13,-21.32,-19.08,-21.27,21.27,21.85,28.05,2.14,2.19,2.19
31.93,-18.96,-21.14,-18.93,-21.11,21.11,21.68,27.82,2.15,2.18,2.18
32.24,-18.76,-20.92,-18.78,-20.96,20.96,21.50,27.47,2.20,2.17,2.16
32.57,-18.54,-20.70,-18.62,-20.79,20.79,21.31,27.05,2.24,2.17,2.16
32.89,-18.33,-20.49,-18.45,-20.61,20.61,21.13,26.56,2.28,2.16,2.16
33.22,-18.20,-20.36,-18.28,-20.43,20.43,20.93,26.03,2.23,2.15,2.15
33.55,-18.12,-20.27,-18.11,-20.26,20.26,20.74,25.48,2.13,2.15,2.15
33.89,-18.04,-20.19,-17.94,-20.08,20.08,20.54,24.93,2.04,2.14,2.15
34.23,-17.87,-20.02,-17.77,-19.91,19.91,20.33,24.39,2.04,2.14,2.14
34.57,-17.65,-19.78,-17.62,-19.75,19.75,20.13,23.85,2.10,2.13,2.13
34.92,-17.44,-19.57,-17.47,-19.59,19.59,19.92,23.33,2.15,2.13,2.13
35.27,-17.25,-19.38,-17.31,-19.43,19.43,19.70,22.83,2.18,2.12,2.12
35.62,-17.07,-19.18,-17.15,-19.26,19.26,19.49,22.34,2.19,2.12,2.11
35.97,-16.89,-19.00,-16.99,-19.10,19.10,19.27,21.87,2.20,2.11,2.11
36.33,-16.79,-18.89,-16.82,-18.92,18.92,19.06,21.42,2.13,2.10,2.10
36.70,-16.69,-18.79,-16.66,-18.75,18.75,18.84,20.99,2.06,2.09,2.10
37.06,-16.58,-18.66,-16.48,-18.57,18.57,18.62,20.58,1.99,2.08,2.08
37.43,-16.40,-18.48,-16.31,-18.39,18.39,18.40,20.19,1.99,2.08,2.08
37.81,-16.23,-18.31,-16.14,-18.21,18.21,18.18,19.81,1.98,2.07,2.07
38.19,-16.02,-18.08,-15.98,-18.04,18.04,17.96,19.44,2.02,2.06,2.06
38.57,-15.77,-17.83,-15.82,-17.87,17.87,17.74,19.09,2.10,2.06,2.05
38.95,-15.53,-17.58,-15.65,-17.70,17.70,17.52,18.75,2.17,2.05,2.05
39.34,-15.41,-17.44,-15.49,-17.53,17.53,17.30,18.43,2.12,2.04,2.03
39.74,-15.31,-17.33,-15.33,-17.36,17.36,17.09,18.12,2.04,2.03,2.01
40.14,-15.18,-17.20,-15.15,-17.17,17.17,16.87,17.82,1.99,2.02,2.02
40.54,-15.01,-17.03,-14.98,-16.98,16.98,16.66,17.53,1.97,2.01,2.01
40.94,-14.84,-16.85,-14.81,-16.81,16.81,16.44,17.25,1.97,2.00,2.01
41.35,-14.67,-16.66,-14.67,-16.65,16.65,16.23,16.98,1.98,1.98,1.99
41.76,-14.51,-16.48,-14.53,-16.49,16.49,16.03,16.72,1.98,1.96,1.97
42.18,-14.36,-16.32,-14.40,-16.34,16.34,15.82,16.48,1.98,1.94,1.95
42.60,-14.24,-16.17,-14.27,-16.18,16.18,15.61,16.23,1.94,1.91,1.93
43.03,-14.12,-16.03,-14.13,-16.01,16.01,15.41,16.00,1.89,1.89,1.91
43.46,-13.92,-15.80,-13.99,-15.85,15.85,15.21,15.78,1.93,1.86,1.88
43.90,-13.73,-15.57,-13.85,-15.69,15.69,15.01,15.56,1.95,1.83,1.83
44.33,-13.68,-15.48,-13.71,-15.51,15.51,14.82,15.35,1.83,1.81,1.80
44.78,-13.68,-15.44,-13.55,-15.33,15.33,14.62,15.14,1.65,1.78,1.76
45.23,-13.56,-15.30,-13.39,-15.14,15.14,14.43,14.95,1.57,1.75,1.73
45.68,-13.33,-15.04,-13.21,-14.93,14.93,14.24,14.75,1.60,1.72,1.70
46.13,-13.08,-14.76,-13.04,-14.73,14.73,14.06,14.57,1.65,1.70,1.68
46.60,-12.82,-14.50,-12.86,-14.54,14.54,13.87,14.39,1.71,1.68,1.67
47.06,-12.58,-14.23,-12.68,-14.34,14.34,13.69,14.22,1.76,1.66,1.65
47.53,-12.53,-14.17,-12.50,-14.14,14.14,13.51,14.05,1.61,1.64,1.64
48.01,-12.46,-14.10,-12.31,-13.94,13.94,13.33,13.88,1.48,1.63,1.64
48.49,-12.10,-13.73,-12.12,-13.75,13.75,13.16,13.72,1.64,1.63,1.62
48.97,-11.74,-13.35,-11.92,-13.54,13.54,12.99,13.57,1.80,1.62,1.61
49.46,-11.57,-13.17,-11.72,-13.34,13.34,12.82,13.42,1.76,1.62,1.60
49.96,-11.41,-13.01,-11.52,-13.13,13.13,12.65,13.27,1.72,1.61,1.59
50.46,-11.38,-12.98,-11.35,-12.95,12.95,12.49,13.13,1.57,1.60,1.60
50.96,-11.35,-12.96,-11.19,-12.78,12.78,12.32,12.99,1.43,1.59,1.60
51.47,-11.11,-12.70,-11.03,-12.61,12.61,12.16,12.86,1.50,1.58,1.59
51.99,-10.85,-12.43,-10.87,-12.43,12.43,12.00,12.72,1.58,1.56,1.57
52.51,-10.66,-12.22,-10.71,-12.24,12.24,11.85,12.59,1.58,1.54,1.56
53.03,-10.48,-12.01,-10.55,-12.05,12.05,11.69,12.47,1.57,1.51,1.53
53.56,-10.36,-11.85,-10.40,-11.87,11.87,11.54,12.34,1.51,1.47,1.49
54.10,-10.24,-11.69,-10.26,-11.69,11.69,11.39,12.22,1.45,1.44,1.44
54.64,-10.11,-11.51,-10.10,-11.49,11.49,11.24,12.10,1.38,1.39,1.39
55.18,-9.99,-11.34,-9.93,-11.28,11.28,11.10,11.98,1.28,1.34,1.34
55.74,-9.86,-11.15,-9.76,-11.05,11.05,10.95,11.86,1.19,1.29,1.29
56.29,-9.66,-10.89,-9.59,-10.83,10.83,10.81,11.74,1.17,1.23,1.23
56.86,-9.41,-10.59,-9.44,-10.61,10.61,10.67,11.62,1.19,1.17,1.17
57.42,-9.25,-10.35,-9.29,-10.40,10.40,10.53,11.50,1.15,1.11,1.10
58.00,-9.12,-10.16,-9.15,-10.19,10.19,10.39,11.38,1.07,1.04,1.04
58.58,-8.99,-9.97,-8.99,-9.97,9.97,10.26,11.27,0.97,0.98,0.97
59.16,-8.82,-9.74,-8.83,-9.74,9.74,10.13,11.15,0.92,0.91,0.92
59.76,-8.56,-9.42,-8.67,-9.51,9.51,10.00,11.03,0.95,0.85,0.85
60.35,-8.45,-9.23,-8.52,-9.30,9.30,9.87,10.91,0.85,0.78,0.78
60.96,-8.44,-9.16,-8.38,-9.09,9.09,9.74,10.78,0.65,0.71,0.72
61.57,-8.31,-8.96,-8.24,-8.89,8.89,9.61,10.66,0.58,0.65,0.64
62.18,-8.17,-8.75,-8.11,-8.70,8.70,9.49,10.54,0.53,0.59,0.58
62.80,-8.02,-8.55,-7.99,-8.52,8.52,9.37,10.41,0.50,0.53,0.53
63.43,-7.84,-8.31,-7.87,-8.34,8.34,9.25,10.28,0.50,0.47,0.47
64.07,-7.64,-8.06,-7.74,-8.16,8.16,9.13,10.15,0.52,0.42,0.42
64.71,-7.56,-7.93,-7.63,-7.99,7.99,9.01,10.02,0.43,0.37,0.36
65.35,-7.52,-7.83,-7.52,-7.84,7.84,8.89,9.89,0.32,0.32,0.31
66.01,-7.52,-7.79,-7.42,-7.69,7.69,8.78,9.75,0.17,0.27,0.27
66.67,-7.37,-7.60,-7.33,-7.56,7.56,8.66,9.62,0.18,0.23,0.22
67.33,-7.22,-7.41,-7.23,-7.42,7.42,8.55,9.48,0.20,0.19,0.19
68.01,-7.07,-7.22,-7.14,-7.29,7.29,8.44,9.34,0.22,0.15,0.15
68.69,-7.05,-7.17,-7.06,-7.18,7.18,8.33,9.20,0.12,0.11,0.11
69.37,-6.96,-7.04,-6.99,-7.07,7.07,8.22,9.06,0.11,0.08,0.08
70.07,-6.84,-6.88,-6.92,-6.96,6.96,8.12,8.92,0.12,0.04,0.04
70.77,-6.84,-6.86,-6.85,-6.85,6.85,8.01,8.78,0.01,0.00,0.02
71.48,-6.84,-6.82,-6.79,-6.75,6.75,7.91,8.64,-0.09,-0.03,-0.03
72.19,-6.79,-6.73,-6.72,-6.65,6.65,7.81,8.50,-0.14,-0.07,-0.06
72.91,-6.63,-6.53,-6.65,-6.54,6.54,7.71,8.36,-0.09,-0.11,-0.10
73.64,-6.61,-6.48,-6.58,-6.44,6.44,7.61,8.22,-0.17,-0.14,-0.14
74.38,-6.55,-6.38,-6.53,-6.35,6.35,7.51,8.08,-0.20,-0.18,-0.17
75.12,-6.43,-6.22,-6.46,-6.24,6.24,7.41,7.94,-0.19,-0.22,-0.22
75.87,-6.39,-6.14,-6.39,-6.14,6.14,7.31,7.80,-0.25,-0.25,-0.25
76.63,-6.27,-5.98,-6.31,-6.02,6.02,7.22,7.66,-0.25,-0.29,-0.29
77.40,-6.18,-5.86,-6.22,-5.90,5.90,7.12,7.52,-0.28,-0.32,-0.32
78.17,-6.16,-5.80,-6.13,-5.78,5.78,7.03,7.38,-0.39,-0.35,-0.36
78.95,-6.16,-5.78,-6.02,-5.64,5.64,6.94,7.24,-0.52,-0.38,-0.38
79.74,-5.99,-5.59,-5.92,-5.51,5.51,6.85,7.11,-0.48,-0.41,-0.40
80.54,-5.85,-5.42,-5.82,-5.39,5.39,6.76,6.98,-0.46,-0.43,-0.44
81.35,-5.75,-5.29,-5.73,-5.28,5.28,6.67,6.84,-0.47,-0.45,-0.46
82.16,-5.65,-5.18,-5.64,-5.17,5.17,6.58,6.71,-0.48,-0.47,-0.47
82.98,-5.47,-4.99,-5.56,-5.08,5.08,6.50,6.58,-0.40,-0.48,-0.48
83.81,-5.47,-4.97,-5.48,-4.99,4.99,6.41,6.45,-0.48,-0.49,-0.50
84.65,-5.32,-4.81,-5.41,-4.91,4.91,6.33,6.32,-0.41,-0.50,-0.51
85.50,-5.24,-4.73,-5.36,-4.85,4.85,6.24,6.20,-0.40,-0.51,-0.51
86.35,-5.24,-4.72,-5.32,-4.80,4.80,6.16,6.07,-0.45,-0.52,-0.52
87.22,-5.24,-4.71,-5.28,-4.75,4.75,6.08,5.95,-0.49,-0.53,-0.53
88.09,-5.24,-4.70,-5.25,-4.71,4.71,6.00,5.83,-0.53,-0.54,-0.54
88.97,-5.24,-4.71,-5.23,-4.69,4.69,5.92,5.71,-0.56,-0.54,-0.53
89.86,-5.24,-4.70,-5.21,-4.66,4.66,5.84,5.59,-0.58,-0.55,-0.54
90.76,-5.24,-4.68,-5.20,-4.63,4.63,5.77,5.47,-0.61,-0.57,-0.57
91.66,-5.24,-4.67,-5.19,-4.61,4.61,5.69,5.36,-0.64,-0.58,-0.57
92.58,-5.24,-4.64,-5.18,-4.58,4.58,5.61,5.24,-0.66,-0.60,-0.60
93.51,-5.24,-4.63,-5.16,-4.54,4.54,5.54,5.13,-0.70,-0.62,-0.61
94.44,-5.24,-4.61,-5.15,-4.51,4.51,5.47,5.02,-0.73,-0.64,-0.63
95.39,-5.15,-4.49,-5.13,-4.47,4.47,5.39,4.91,-0.68,-0.67,-0.66
96.34,-5.02,-4.32,-5.11,-4.41,4.41,5.32,4.80,-0.61,-0.69,-0.70
97.30,-5.02,-4.29,-5.08,-4.35,4.35,5.25,4.69,-0.67,-0.72,-0.73
98.28,-5.02,-4.26,-5.05,-4.29,4.29,5.18,4.59,-0.73,-0.76,-0.77
99.26,-5.02,-4.22,-5.04,-4.24,4.24,5.11,4.48,-0.78,-0.80,-0.80
100.25,-5.02,-4.18,-5.03,-4.18,4.18,5.05,4.38,-0.84,-0.84,-0.84
101.25,-5.02,-4.13,-5.02,-4.13,4.13,4.98,4.28,-0.89,-0.89,-0.89
102.27,-5.02,-4.09,-5.03,-4.09,4.09,4.91,4.18,-0.94,-0.94,-0.94
103.29,-5.02,-4.03,-5.03,-4.04,4.04,4.85,4.08,-0.98,-0.99,-0.99
104.32,-5.02,-3.98,-5.05,-4.00,4.00,4.78,3.98,-1.03,-1.05,-1.04
105.37,-5.02,-3.92,-5.07,-3.96,3.96,4.72,3.89,-1.07,-1.12,-1.10
106.42,-5.02,-3.86,-5.10,-3.92,3.92,4.66,3.80,-1.10,-1.18,-1.17
107.48,-5.11,-3.87,-5.13,-3.87,3.87,4.60,3.71,-1.24,-1.26,-1.24
108.56,-5.23,-3.90,-5.14,-3.81,3.81,4.54,3.62,-1.42,-1.33,-1.33
109.64,-5.24,-3.83,-5.15,-3.74,3.74,4.48,3.53,-1.50,-1.41,-1.41
110.74,-5.24,-3.76,-5.17,-3.68,3.68,4.42,3.45,-1.56,-1.49,-1.49
111.85,-5.24,-3.68,-5.20,-3.62,3.62,4.36,3.37,-1.62,-1.57,-1.56
112.97,-5.24,-3.58,-5.22,-3.56,3.56,4.30,3.29,-1.68,-1.66,-1.66
114.10,-5.24,-3.50,-5.24,-3.50,3.50,4.24,3.21,-1.74,-1.74,-1.74
115.24,-5.24,-3.42,-5.26,-3.44,3.44,4.19,3.14,-1.80,-1.82,-1.82
116.39,-5.24,-3.33,-5.28,-3.39,3.39,4.13,3.07,-1.86,-1.89,-1.91
117.55,-5.24,-3.26,-5.30,-3.34,3.34,4.08,3.00,-1.91,-1.97,-1.98
118.73,-5.24,-3.18,-5.33,-3.29,3.29,4.03,2.94,-1.95,-2.04,-2.06
119.92,-5.25,-3.14,-5.35,-3.25,3.25,3.97,2.88,-2.00,-2.10,-2.11
121.12,-5.47,-3.29,-5.38,-3.22,3.22,3.92,2.82,-2.25,-2.16,-2.18
122.33,-5.47,-3.24,-5.41,-3.19,3.19,3.87,2.77,-2.28,-2.22,-2.23
123.55,-5.47,-3.21,-5.44,-3.17,3.17,3.82,2.71,-2.30,-2.27,-2.26
124.79,-5.47,-3.16,-5.48,-3.16,3.16,3.77,2.67,-2.31,-2.32,-2.32
126.03,-5.47,-3.11,-5.52,-3.16,3.16,3.72,2.62,-2.32,-2.36,-2.36
127.29,-5.54,-3.14,-5.56,-3.16,3.16,3.68,2.58,-2.39,-2.41,-2.40
128.57,-5.65,-3.20,-5.61,-3.16,3.16,3.63,2.54,-2.49,-2.45,-2.45
129.85,-5.70,-3.22,-5.66,-3.16,3.16,3.58,2.51,-2.54,-2.49,-2.49
131.15,-5.70,-3.18,-5.70,-3.17,3.17,3.54,2.48,-2.54,-2.53,-2.53
132.46,-5.70,-3.13,-5.74,-3.16,3.16,3.49,2.45,-2.54,-2.58,-2.57
133.79,-5.70,-3.09,-5.77,-3.15,3.15,3.45,2.42,-2.55,-2.62,-2.61
135.12,-5.71,-3.05,-5.79,-3.13,3.13,3.41,2.40,-2.58,-2.66,-2.67
136.48,-5.87,-3.17,-5.82,-3.12,3.12,3.37,2.38,-2.76,-2.70,-2.70
137.84,-5.93,-3.19,-5.84,-3.10,3.10,3.33,2.36,-2.84,-2.75,-2.74
139.22,-5.93,-3.12,-5.87,-3.08,3.08,3.29,2.35,-2.85,-2.79,-2.81
140.61,-5.93,-3.07,-5.89,-3.05,3.05,3.25,2.34,-2.88,-2.84,-2.86
142.02,-5.93,-3.04,-5.91,-3.02,3.02,3.21,2.33,-2.92,-2.89,-2.89
143.44,-5.93,-2.99,-5.92,-2.98,2.98,3.17,2.32,-2.96,-2.94,-2.94
144.87,-5.93,-2.94,-5.94,-2.94,2.94,3.13,2.31,-2.99,-3.00,-2.99
146.32,-5.93,-2.88,-5.97,-2.90,2.90,3.10,2.31,-3.03,-3.07,-3.05
147.78,-5.93,-2.84,-5.99,-2.86,2.86,3.06,2.31,-3.07,-3.13,-3.10
149.26,-5.93,-2.76,-6.02,-2.81,2.81,3.03,2.31,-3.12,-3.20,-3.17
150.75,-6.03,-2.77,-6.05,-2.77,2.77,3.00,2.31,-3.26,-3.28,-3.26
152.26,-6.12,-2.79,-6.09,-2.74,2.74,2.96,2.32,-3.39,-3.35,-3.33
153.78,-6.16,-2.75,-6.14,-2.71,2.71,2.93,2.32,-3.45,-3.43,-3.42
155.32,-6.16,-2.64,-6.20,-2.69,2.69,2.90,2.33,-3.47,-3.51,-3.52
156.88,-6.17,-2.57,-6.26,-2.67,2.67,2.87,2.34,-3.50,-3.59,-3.60
158.44,-6.32,-2.64,-6.33,-2.66,2.66,2.84,2.35,-3.67,-3.67,-3.68
160.03,-6.38,-2.62,-6.37,-2.64,2.64,2.81,2.36,-3.75,-3.74,-3.76
161.63,-6.38,-2.55,-6.42,-2.62,2.62,2.79,2.37,-3.76,-3.80,-3.83
163.24,-6.52,-2.64,-6.47,-2.61,2.61,2.76,2.39,-3.91,-3.86,-3.89
164.88,-6.61,-2.68,-6.52,-2.60,2.60,2.73,2.40,-4.01,-3.91,-3.93
166.53,-6.75,-2.77,-6.56,-2.61,2.61,2.71,2.42,-4.15,-3.96,-3.98
168.19,-6.68,-2.67,-6.60,-2.61,2.61,2.69,2.44,-4.07,-3.99,-4.01
169.87,-6.61,-2.58,-6.64,-2.62,2.62,2.66,2.46,-3.99,-4.01,-4.04
171.57,-6.61,-2.56,-6.67,-2.64,2.64,2.64,2.48,-3.97,-4.03,-4.05
173.29,-6.61,-2.56,-6.70,-2.66,2.66,2.62,2.50,-3.95,-4.04,-4.05
175.02,-6.61,-2.57,-6.73,-2.67,2.67,2.60,2.52,-3.94,-4.05,-4.04
176.77,-6.61,-2.56,-6.74,-2.68,2.68,2.58,2.54,-3.93,-4.06,-4.05
178.54,-6.79,-2.74,-6.76,-2.70,2.70,2.56,2.57,-4.10,-4.06,-4.05
180.32,-6.84,-2.79,-6.78,-2.71,2.71,2.55,2.59,-4.14,-4.07,-4.05
182.13,-6.84,-2.79,-6.78,-2.70,2.70,2.53,2.62,-4.14,-4.08,-4.05
183.95,-6.84,-2.79,-6.78,-2.70,2.70,2.51,2.65,-4.14,-4.08,-4.06
185.79,-6.84,-2.77,-6.79,-2.70,2.70,2.50,2.68,-4.15,-4.09,-4.07
187.65,-6.84,-2.74,-6.81,-2.70,2.70,2.49,2.71,-4.14,-4.11,-4.10
189.52,-6.84,-2.72,-6.83,-2.71,2.71,2.48,2.74,-4.13,-4.12,-4.12
191.42,-6.84,-2.70,-6.85,-2.71,2.71,2.46,2.77,-4.13,-4.14,-4.15
193.33,-6.84,-2.67,-6.87,-2.71,2.71,2.45,2.80,-4.14,-4.16,-4.17
195.27,-6.84,-2.66,-6.88,-2.70,2.70,2.45,2.84,-4.14,-4.18,-4.18
197.22,-6.84,-2.64,-6.90,-2.69,2.69,2.44,2.87,-4.15,-4.21,-4.20
199.19,-6.84,-2.60,-6.90,-2.68,2.68,2.43,2.90,-4.17,-4.23,-4.24
201.18,-6.84,-2.59,-6.92,-2.67,2.67,2.43,2.94,-4.17,-4.25,-4.25
203.19,-6.89,-2.62,-6.95,-2.67,2.67,2.42,2.97,-4.22,-4.28,-4.27
205.23,-7.01,-2.71,-6.97,-2.67,2.67,2.42,3.01,-4.34,-4.30,-4.30
207.28,-7.07,-2.76,-6.99,-2.67,2.67,2.42,3.04,-4.40,-4.32,-4.31
209.35,-7.07,-2.73,-7.01,-2.67,2.67,2.41,3.08,-4.40,-4.34,-4.34
211.44,-7.07,-2.71,-7.03,-2.68,2.68,2.41,3.11,-4.40,-4.36,-4.37
213.56,-7.07,-2.70,-7.05,-2.68,2.68,2.42,3.15,-4.40,-4.37,-4.37
215.69,-7.07,-2.69,-7.06,-2.67,2.67,2.42,3.18,-4.40,-4.39,-4.38
217.85,-7.07,-2.67,-7.07,-2.66,2.66,2.42,3.21,-4.41,-4.41,-4.41
220.03,-7.07,-2.65,-7.07,-2.65,2.65,2.43,3.24,-4.42,-4.42,-4.42
222.23,-7.07,-2.63,-7.07,-2.64,2.64,2.43,3.27,-4.44,-4.43,-4.44
224.45,-7.07,-2.62,-7.07,-2.63,2.63,2.44,3.30,-4.45,-4.45,-4.45
226.70,-7.07,-2.62,-7.07,-2.62,2.62,2.45,3.33,-4.45,-4.46,-4.45
228.96,-7.07,-2.61,-7.08,-2.61,2.61,2.46,3.35,-4.46,-4.47,-4.47
231.25,-7.07,-2.60,-7.09,-2.62,2.62,2.47,3.37,-4.46,-4.47,-4.47
233.57,-7.07,-2.59,-7.11,-2.63,2.63,2.48,3.39,-4.44,-4.48,-4.48
235.90,-7.07,-2.58,-7.13,-2.64,2.64,2.50,3.40,-4.43,-4.48,-4.49
238.26,-7.07,-2.58,-7.15,-2.66,2.66,2.51,3.41,-4.41,-4.49,-4.49
240.64,-7.07,-2.58,-7.17,-2.68,2.68,2.53,3.42,-4.39,-4.49,-4.49
243.05,-7.23,-2.75,-7.19,-2.70,2.70,2.54,3.42,-4.53,-4.49,-4.48
245.48,-7.30,-2.82,-7.21,-2.73,2.73,2.56,3.42,-4.57,-4.48,-4.48
247.93,-7.30,-2.83,-7.24,-2.75,2.75,2.58,3.42,-4.55,-4.48,-4.47
250.41,-7.30,-2.82,-7.26,-2.78,2.78,2.60,3.41,-4.52,-4.48,-4.48
252.92,-7.30,-2.83,-7.27,-2.79,2.79,2.62,3.40,-4.51,-4.47,-4.47
255.45,-7.30,-2.85,-7.28,-2.81,2.81,2.64,3.38,-4.49,-4.47,-4.45
258.00,-7.30,-2.85,-7.29,-2.83,2.83,2.67,3.36,-4.47,-4.46,-4.45
260.58,-7.30,-2.85,-7.30,-2.85,2.85,2.69,3.34,-4.45,-4.45,-4.45
263.19,-7.30,-2.87,-7.31,-2.88,2.88,2.72,3.31,-4.43,-4.44,-4.44
265.82,-7.30,-2.87,-7.32,-2.90,2.90,2.74,3.28,-4.40,-4.42,-4.43
268.48,-7.30,-2.89,-7.33,-2.92,2.92,2.77,3.25,-4.38,-4.41,-4.41
271.16,-7.30,-2.90,-7.34,-2.95,2.95,2.79,3.21,-4.36,-4.39,-4.40
273.87,-7.30,-2.92,-7.35,-2.98,2.98,2.82,3.18,-4.32,-4.37,-4.39
276.61,-7.30,-2.95,-7.37,-3.02,3.02,2.84,3.13,-4.28,-4.35,-4.35
279.38,-7.30,-2.96,-7.40,-3.06,3.06,2.87,3.09,-4.24,-4.33,-4.34
282.17,-7.46,-3.15,-7.42,-3.11,3.11,2.90,3.05,-4.36,-4.31,-4.31
284.99,-7.52,-3.23,-7.44,-3.15,3.15,2.92,3.00,-4.37,-4.29,-4.29
287.84,-7.52,-3.26,-7.46,-3.20,3.20,2.95,2.95,-4.32,-4.26,-4.27
290.72,-7.52,-3.29,-7.48,-3.25,3.25,2.97,2.90,-4.28,-4.23,-4.23
293.63,-7.52,-3.32,-7.50,-3.29,3.29,2.99,2.85,-4.23,-4.21,-4.21
296.57,-7.52,-3.34,-7.53,-3.35,3.35,3.02,2.80,-4.17,-4.18,-4.18
299.53,-7.52,-3.37,-7.57,-3.41,3.41,3.04,2.75,-4.11,-4.16,-4.16
302.53,-7.52,-3.38,-7.61,-3.47,3.47,3.05,2.70,-4.05,-4.14,-4.14
305.55,-7.52,-3.42,-7.63,-3.51,3.51,3.07,2.65,-4.02,-4.12,-4.11
308.61,-7.52,-3.43,-7.63,-3.53,3.53,3.09,2.60,-4.00,-4.10,-4.09
311.69,-7.52,-3.45,-7.59,-3.51,3.51,3.10,2.55,-4.01,-4.09,-4.07
314.81,-7.52,-3.47,-7.53,-3.45,3.45,3.11,2.50,-4.07,-4.07,-4.05
317.96,-7.52,-3.47,-7.44,-3.37,3.37,3.11,2.45,-4.15,-4.06,-4.05
321.14,-7.52,-3.47,-7.32,-3.27,3.27,3.12,2.40,-4.25,-4.05,-4.06
324.35,-7.52,-3.47,-7.20,-3.15,3.15,3.12,2.35,-4.37,-4.04,-4.05
327.59,-7.47,-3.43,-7.06,-3.03,3.03,3.12,2.31,-4.44,-4.04,-4.04
330.87,-7.17,-3.14,-6.93,-2.90,2.90,3.11,2.26,-4.27,-4.03,-4.04
334.18,-6.82,-2.79,-6.79,-2.77,2.77,3.10,2.22,-4.05,-4.02,-4.03
337.52,-6.50,-2.48,-6.65,-2.64,2.64,3.09,2.17,-3.86,-4.00,-4.02
340.90,-6.24,-2.25,-6.51,-2.52,2.52,3.07,2.13,-3.72,-3.99,-3.99
344.30,-5.98,-2.00,-6.39,-2.41,2.41,3.05,2.09,-3.57,-3.98,-3.99
347.75,-5.93,-1.96,-6.28,-2.32,2.32,3.03,2.05,-3.62,-3.96,-3.97
351.23,-5.93,-1.99,-6.18,-2.24,2.24,3.01,2.02,-3.69,-3.94,-3.94
354.74,-6.03,-2.11,-6.10,-2.18,2.18,2.98,1.98,-3.85,-3.92,-3.93
358.28,-6.14,-2.24,-6.05,-2.15,2.15,2.94,1.95,-3.99,-3.90,-3.90
361.87,-6.16,-2.28,-6.02,-2.14,2.14,2.91,1.91,-4.02,-3.88,-3.88
365.49,-6.16,-2.31,-6.02,-2.17,2.17,2.87,1.88,-4.00,-3.85,-3.85
369.14,-6.16,-2.33,-6.05,-2.21,2.21,2.83,1.85,-3.95,-3.83,-3.83
372.83,-6.16,-2.36,-6.08,-2.27,2.27,2.79,1.82,-3.89,-3.81,-3.81
376.56,-6.16,-2.37,-6.13,-2.34,2.34,2.74,1.79,-3.82,-3.79,-3.79
380.33,-6.16,-2.40,-6.17,-2.40,2.40,2.69,1.77,-3.76,-3.77,-3.76
384.13,-6.16,-2.42,-6.19,-2.44,2.44,2.64,1.74,-3.72,-3.75,-3.74
387.97,-6.16,-2.43,-6.20,-2.46,2.46,2.59,1.72,-3.71,-3.74,-3.73
391.85,-6.16,-2.44,-6.19,-2.46,2.46,2.54,1.70,-3.70,-3.73,-3.73
395.77,-6.16,-2.45,-6.17,-2.45,2.45,2.48,1.67,-3.71,-3.71,-3.72
399.73,-6.16,-2.45,-6.15,-2.45,2.45,2.43,1.65,-3.71,-3.71,-3.71
403.72,-6.16,-2.46,-6.14,-2.44,2.44,2.37,1.63,-3.72,-3.70,-3.70
407.76,-6.16,-2.47,-6.13,-2.43,2.43,2.32,1.61,-3.73,-3.69,-3.69
411.84,-6.16,-2.48,-6.10,-2.41,2.41,2.26,1.60,-3.75,-3.69,-3.68
415.96,-6.16,-2.49,-6.08,-2.39,2.39,2.20,1.58,-3.77,-3.68,-3.67
420.12,-5.98,-2.31,-6.05,-2.37,2.37,2.14,1.56,-3.61,-3.68,-3.68
