frequency,raw,error,smoothed,error_smoothed,equalization,parametric_eq,fixed_band_eq,equalized_raw,equalized_smoothed,target
20.00,-25.98,-26.79,-26.00,-26.80,26.70,28.22,12.42,0.72,0.71,0.81
20.20,-25.81,-26.66,-25.80,-26.65,26.62,28.02,12.61,0.80,0.81,0.85
20.40,-25.64,-26.52,-25.62,-26.51,26.53,27.82,12.81,0.89,0.90,0.88
20.61,-25.48,-26.38,-25.46,-26.37,26.43,27.62,13.01,0.96,0.98,0.91
20.81,-25.29,-26.24,-25.29,-26.24,26.34,27.41,13.22,1.05,1.04,0.95
21.02,-25.13,-26.12,-25.16,-26.14,26.24,27.20,13.43,1.11,1.08,0.99
21.23,-25.07,-26.07,-25.06,-26.06,26.13,26.99,13.64,1.06,1.07,1.00
21.44,-25.00,-26.02,-25.00,-26.02,26.03,26.78,13.86,1.02,1.03,1.02
21.66,-24.93,-25.97,-24.95,-25.98,25.94,26.58,14.09,1.00,0.99,1.04
21.87,-24.87,-25.92,-24.86,-25.90,25.83,26.37,14.32,0.96,0.98,1.05
22.09,-24.75,-25.81,-24.73,-25.79,25.72,26.18,14.56,0.97,0.98,1.06
22.31,-24.56,-25.62,-24.57,-25.63,25.59,25.99,14.80,1.03,1.02,1.06
22.54,-24.38,-25.44,-24.37,-25.44,25.45,25.80,15.05,1.08,1.08,1.07
22.76,-24.18,-25.26,-24.18,-25.25,25.31,25.62,15.31,1.13,1.13,1.08
22.99,-23.99,-25.07,-24.01,-25.09,25.16,25.44,15.58,1.17,1.15,1.08
23.22,-23.86,-24.95,-23.86,-24.95,25.00,25.27,15.85,1.14,1.14,1.09
23.45,-23.74,-24.84,-23.74,-24.84,24.84,25.11,16.13,1.10,1.11,1.10
23.69,-23.61,-24.72,-23.62,-24.73,24.68,24.95,16.42,1.07,1.06,1.11
23.92,-23.49,-24.61,-23.47,-24.59,24.52,24.79,16.72,1.03,1.05,1.12
24.16,-23.31,-24.44,-23.30,-24.43,24.37,24.64,17.03,1.06,1.06,1.13
24.40,-23.10,-24.24,-23.10,-24.23,24.22,24.49,17.35,1.12,1.12,1.14
24.65,-22.90,-24.03,-22.89,-24.02,24.08,24.35,17.69,1.17,1.19,1.13
24.89,-22.69,-23.82,-22.71,-23.84,23.94,24.21,18.03,1.25,1.23,1.13
25.14,-22.57,-23.70,-22.59,-23.71,23.81,24.08,18.39,1.23,1.22,1.13
25.39,-22.51,-23.64,-22.51,-23.64,23.67,23.95,18.76,1.16,1.16,1.13
25.65,-22.45,-23.58,-22.46,-23.58,23.53,23.82,19.15,1.08,1.07,1.13
25.91,-22.39,-23.50,-22.36,-23.48,23.38,23.69,19.55,0.99,1.02,1.11
26.16,-22.22,-23.34,-22.21,-23.33,23.24,23.56,19.97,1.02,1.03,1.12
26.43,-22.00,-23.11,-22.00,-23.12,23.08,23.44,20.41,1.08,1.08,1.12
26.69,-21.76,-22.88,-21.77,-22.88,22.91,23.31,20.87,1.14,1.14,1.12
26.96,-21.53,-22.65,-21.55,-22.67,22.72,23.18,21.34,1.18,1.17,1.12
27.23,-21.35,-22.47,-21.36,-22.47,22.52,23.06,21.84,1.16,1.16,1.12
27.50,-21.19,-22.31,-21.18,-22.30,22.32,22.93,22.37,1.13,1.13,1.12
27.77,-21.02,-22.13,-21.02,-22.13,22.13,22.80,22.91,1.11,1.10,1.11
28.05,-20.86,-21.97,-20.86,-21.96,21.94,22.67,23.48,1.08,1.09,1.11
28.33,-20.69,-21.78,-20.69,-21.79,21.78,22.54,24.08,1.09,1.09,1.09
28.62,-20.52,-21.62,-20.52,-21.62,21.62,22.40,24.70,1.09,1.10,1.10
28.90,-20.35,-21.45,-20.36,-21.45,21.46,22.26,25.33,1.11,1.11,1.10
29.19,-20.20,-21.29,-20.21,-21.30,21.32,22.11,25.98,1.11,1.11,1.09
29.48,-20.07,-21.17,-20.06,-21.16,21.18,21.97,26.62,1.10,1.11,1.10
29.78,-19.93,-21.03,-19.93,-21.03,21.04,21.81,27.25,1.11,1.11,1.10
30.08,-19.80,-20.90,-19.81,-20.90,20.91,21.65,27.82,1.11,1.10,1.10
30.38,-19.69,-20.77,-19.69,-20.78,20.78,21.49,28.32,1.09,1.09,1.08
30.68,-19.57,-20.65,-19.58,-20.65,20.64,21.32,28.69,1.07,1.07,1.08
30.99,-19.46,-20.53,-19.45,-20.52,20.49,21.15,28.90,1.03,1.05,1.07
31.30,-19.29,-20.36,-19.30,-20.37,20.33,20.97,28.91,1.03,1.03,1.07
31.61,-19.13,-20.20,-19.14,-20.20,20.16,20.78,28.74,1.02,1.02,1.07
31.93,-18.96,-20.01,-18.95,-20.01,19.98,20.60,28.40,1.02,1.03,1.05
32.24,-18.76,-19.80,-18.75,-19.79,19.81,20.40,27.92,1.05,1.06,1.04
32.57,-18.54,-19.58,-18.54,-19.58,19.64,20.20,27.34,1.09,1.10,1.04
32.89,-18.33,-19.37,-18.35,-19.39,19.47,20.00,26.72,1.14,1.12,1.04
33.22,-18.20,-19.24,-18.22,-19.26,19.31,19.80,26.06,1.10,1.09,1.04
33.55,-18.12,-19.15,-18.12,-19.15,19.14,19.59,25.40,1.02,1.02,1.03
33.89,-18.04,-19.07,-18.01,-19.04,18.97,19.38,24.75,0.93,0.96,1.03
34.23,-17.87,-18.90,-17.86,-18.88,18.80,19.16,24.12,0.93,0.94,1.03
34.57,-17.65,-18.67,-17.67,-18.68,18.64,18.94,23.51,0.98,0.97,1.02
34.92,-17.44,-18.45,-17.45,-18.47,18.47,18.72,22.92,1.02,1.02,1.01
35.27,-17.25,-18.26,-17.25,-18.25,18.30,18.50,22.35,1.05,1.05,1.01
35.62,-17.07,-18.07,-17.07,-18.06,18.14,18.28,21.81,1.06,1.07,1.00
35.97,-16.89,-17.88,-16.92,-17.91,17.97,18.06,21.29,1.08,1.05,0.99
36.33,-16.79,-17.78,-16.79,-17.78,17.81,17.84,20.79,1.02,1.01,0.99
36.70,-16.69,-17.68,-16.68,-17.66,17.64,17.61,20.32,0.95,0.96,0.99
37.06,-16.58,-17.55,-16.56,-17.54,17.48,17.39,19.86,0.90,0.91,0.97
37.43,-16.40,-17.37,-16.41,-17.38,17.31,17.17,19.42,0.90,0.89,0.97
37.81,-16.23,-17.19,-16.23,-17.19,17.13,16.94,19.00,0.90,0.90,0.96
38.19,-16.02,-16.97,-16.00,-16.95,16.95,16.72,18.60,0.93,0.95,0.95
38.57,-15.77,-16.72,-15.77,-16.72,16.77,16.50,18.20,1.00,0.99,0.95
38.95,-15.53,-16.47,-15.57,-16.51,16.58,16.28,17.83,1.05,1.01,0.94
39.34,-15.41,-16.34,-15.42,-16.34,16.40,16.07,17.46,0.99,0.98,0.93
39.74,-15.31,-16.22,-15.29,-16.21,16.21,15.85,17.11,0.90,0.92,0.91
40.14,-15.18,-16.10,-15.17,-16.08,16.04,15.64,16.77,0.86,0.87,0.92
40.54,-15.01,-15.92,-15.02,-15.93,15.89,15.43,16.44,0.87,0.87,0.91
40.94,-14.84,-15.75,-14.84,-15.75,15.73,15.22,16.12,0.89,0.88,0.91
41.35,-14.67,-15.56,-14.67,-15.56,15.57,15.01,15.81,0.90,0.90,0.89
41.76,-14.51,-15.38,-14.51,-15.38,15.40,14.80,15.51,0.89,0.89,0.87
42.18,-14.36,-15.22,-14.38,-15.23,15.22,14.60,15.22,0.86,0.85,0.86
42.60,-14.24,-15.07,-14.24,-15.08,15.06,14.40,14.93,0.82,0.82,0.83
43.03,-14.12,-14.94,-14.08,-14.90,14.90,14.20,14.65,0.78,0.82,0.82
43.46,-13.92,-14.71,-13.92,-14.70,14.75,14.01,14.38,0.83,0.84,0.79
43.90,-13.73,-14.47,-13.79,-14.54,14.60,13.82,14.11,0.86,0.81,0.74
44.33,-13.68,-14.39,-13.71,-14.42,14.43,13.63,13.85,0.75,0.72,0.71
44.78,-13.68,-14.36,-13.64,-14.32,14.25,13.44,13.60,0.57,0.61,0.68
45.23,-13.56,-14.21,-13.53,-14.18,14.08,13.25,13.35,0.51,0.54,0.65
45.68,-13.33,-13.95,-13.34,-13.96,13.90,13.07,13.11,0.57,0.56,0.62
46.13,-13.08,-13.68,-13.07,-13.67,13.72,12.89,12.87,0.64,0.64,0.60
46.60,-12.82,-13.41,-12.82,-13.41,13.51,12.72,12.63,0.68,0.68,0.59
47.06,-12.58,-13.15,-12.67,-13.24,13.28,12.54,12.40,0.69,0.61,0.57
47.53,-12.53,-13.10,-12.53,-13.10,13.04,12.37,12.18,0.51,0.51,0.57
48.01,-12.46,-13.03,-12.34,-12.90,12.81,12.20,11.96,0.35,0.47,0.57
48.49,-12.10,-12.65,-12.11,-12.66,12.61,12.03,11.74,0.50,0.50,0.55
48.97,-11.74,-12.28,-11.81,-12.35,12.42,11.87,11.53,0.68,0.61,0.54
49.46,-11.57,-12.10,-11.56,-12.09,12.25,11.71,11.32,0.68,0.69,0.53
49.96,-11.41,-11.94,-11.45,-11.98,12.07,11.55,11.11,0.66,0.62,0.53
50.46,-11.38,-11.92,-11.39,-11.93,11.89,11.39,10.91,0.51,0.50,0.54
50.96,-11.35,-11.90,-11.27,-11.82,11.71,11.24,10.71,0.36,0.43,0.55
51.47,-11.11,-11.65,-11.11,-11.65,11.54,11.08,10.51,0.43,0.43,0.54
51.99,-10.85,-11.37,-10.89,-11.41,11.38,10.93,10.32,0.52,0.49,0.52
52.51,-10.66,-11.17,-10.66,-11.17,11.22,10.78,10.13,0.56,0.56,0.51
53.03,-10.48,-10.96,-10.49,-10.97,11.05,10.64,9.95,0.57,0.55,0.48
53.56,-10.36,-10.81,-10.36,-10.81,10.86,10.49,9.76,0.49,0.50,0.45
54.10,-10.24,-10.65,-10.23,-10.64,10.65,10.35,9.59,0.41,0.42,0.41
54.64,-10.11,-10.47,-10.12,-10.48,10.45,10.21,9.41,0.34,0.33,0.36
55.18,-9.99,-10.30,-10.00,-10.31,10.25,10.07,9.24,0.26,0.25,0.31
55.74,-9.86,-10.12,-9.84,-10.10,10.05,9.94,9.07,0.19,0.21,0.26
56.29,-9.66,-9.87,-9.65,-9.85,9.84,9.80,8.90,0.18,0.19,0.21
56.86,-9.41,-9.56,-9.45,-9.59,9.61,9.67,8.74,0.20,0.16,0.15
57.42,-9.25,-9.33,-9.27,-9.35,9.38,9.54,8.58,0.12,0.11,0.08
58.00,-9.12,-9.14,-9.12,-9.14,9.14,9.41,8.43,0.02,0.02,0.02
58.58,-8.99,-8.95,-8.97,-8.93,8.92,9.29,8.28,-0.07,-0.05,-0.04
59.16,-8.82,-8.73,-8.78,-8.69,8.71,9.16,8.13,-0.11,-0.07,-0.09
59.76,-8.56,-8.41,-8.62,-8.47,8.50,9.04,7.98,-0.06,-0.12,-0.15
60.35,-8.45,-8.23,-8.49,-8.28,8.30,8.92,7.84,-0.15,-0.19,-0.22
60.96,-8.44,-8.17,-8.39,-8.11,8.10,8.80,7.71,-0.34,-0.29,-0.27
61.57,-8.31,-7.97,-8.31,-7.97,7.90,8.68,7.58,-0.41,-0.41,-0.34
62.18,-8.17,-7.76,-8.18,-7.78,7.71,8.57,7.45,-0.46,-0.47,-0.41
62.80,-8.02,-7.57,-8.00,-7.55,7.53,8.45,7.32,-0.49,-0.47,-0.45
63.43,-7.84,-7.33,-7.83,-7.32,7.36,8.34,7.20,-0.48,-0.47,-0.51
64.07,-7.64,-7.09,-7.67,-7.12,7.20,8.23,7.08,-0.44,-0.48,-0.55
64.71,-7.56,-6.96,-7.58,-6.98,7.04,8.12,6.97,-0.53,-0.55,-0.60
65.35,-7.52,-6.87,-7.53,-6.88,6.88,8.01,6.86,-0.65,-0.65,-0.65
66.01,-7.52,-6.84,-7.47,-6.79,6.72,7.90,6.75,-0.80,-0.75,-0.68
66.67,-7.37,-6.65,-7.36,-6.64,6.59,7.80,6.64,-0.79,-0.78,-0.72
67.33,-7.22,-6.47,-7.24,-6.49,6.46,7.69,6.54,-0.76,-0.77,-0.75
68.01,-7.07,-6.29,-7.12,-6.33,6.35,7.59,6.44,-0.72,-0.76,-0.78
68.69,-7.05,-6.24,-7.02,-6.20,6.25,7.49,6.35,-0.81,-0.77,-0.81
69.37,-6.96,-6.11,-6.94,-6.09,6.14,7.39,6.25,-0.82,-0.80,-0.85
70.07,-6.84,-5.96,-6.89,-6.01,6.04,7.29,6.16,-0.81,-0.85,-0.88
70.77,-6.84,-5.95,-6.85,-5.95,5.94,7.19,6.08,-0.90,-0.91,-0.89
71.48,-6.84,-5.91,-6.81,-5.88,5.85,7.09,5.99,-0.99,-0.95,-0.93
72.19,-6.79,-5.84,-6.76,-5.80,5.77,7.00,5.91,-1.03,-0.99,-0.95
72.91,-6.63,-5.64,-6.69,-5.70,5.68,6.90,5.82,-0.96,-1.01,-0.99
73.64,-6.61,-5.59,-6.60,-5.58,5.58,6.81,5.74,-1.03,-1.02,-1.02
74.38,-6.55,-5.50,-6.53,-5.47,5.48,6.72,5.66,-1.07,-1.05,-1.05
75.12,-6.43,-5.35,-6.46,-5.38,5.38,6.63,5.59,-1.06,-1.09,-1.08
75.87,-6.39,-5.28,-6.36,-5.25,5.28,6.54,5.51,-1.12,-1.09,-1.11
76.63,-6.27,-5.13,-6.27,-5.13,5.17,6.45,5.44,-1.10,-1.10,-1.14
77.40,-6.18,-5.01,-6.22,-5.05,5.06,6.37,5.36,-1.12,-1.16,-1.17
78.17,-6.16,-4.96,-6.17,-4.97,4.96,6.28,5.29,-1.21,-1.21,-1.20
78.95,-6.16,-4.95,-6.10,-4.88,4.84,6.20,5.22,-1.32,-1.26,-1.21
79.74,-5.99,-4.76,-6.00,-4.77,4.73,6.11,5.15,-1.26,-1.28,-1.23
80.54,-5.85,-4.60,-5.89,-4.63,4.61,6.03,5.08,-1.24,-1.28,-1.25
81.35,-5.75,-4.48,-5.73,-4.47,4.49,5.95,5.01,-1.27,-1.25,-1.27
82.16,-5.65,-4.38,-5.63,-4.36,4.37,5.87,4.94,-1.29,-1.26,-1.27
82.98,-5.47,-4.20,-5.53,-4.25,4.25,5.79,4.87,-1.22,-1.28,-1.27
83.81,-5.47,-4.19,-5.42,-4.14,4.15,5.71,4.80,-1.32,-1.26,-1.28
84.65,-5.32,-4.03,-5.33,-4.04,4.07,5.63,4.74,-1.25,-1.25,-1.29
85.50,-5.24,-3.96,-5.28,-3.99,4.02,5.56,4.67,-1.22,-1.26,-1.28
86.35,-5.24,-3.96,-5.23,-3.95,3.98,5.48,4.60,-1.26,-1.25,-1.28
87.22,-5.24,-3.96,-5.23,-3.95,3.96,5.41,4.54,-1.28,-1.27,-1.28
88.09,-5.24,-3.96,-5.24,-3.97,3.95,5.34,4.47,-1.29,-1.29,-1.28
88.97,-5.24,-3.98,-5.24,-3.97,3.96,5.26,4.41,-1.28,-1.28,-1.26
89.86,-5.24,-3.98,-5.24,-3.98,3.97,5.19,4.34,-1.27,-1.27,-1.26
90.76,-5.24,-3.96,-5.24,-3.97,3.97,5.12,4.28,-1.27,-1.27,-1.28
91.66,-5.24,-3.97,-5.24,-3.96,3.96,5.05,4.21,-1.28,-1.28,-1.27
92.58,-5.24,-3.94,-5.25,-3.96,3.94,4.98,4.15,-1.30,-1.31,-1.30
93.51,-5.24,-3.95,-5.25,-3.95,3.90,4.92,4.08,-1.34,-1.35,-1.29
94.44,-5.24,-3.93,-5.21,-3.89,3.85,4.85,4.02,-1.39,-1.35,-1.31
95.39,-5.15,-3.83,-5.14,-3.81,3.80,4.78,3.96,-1.35,-1.34,-1.32
96.34,-5.02,-3.66,-5.07,-3.72,3.75,4.72,3.89,-1.27,-1.32,-1.36
97.30,-5.02,-3.64,-5.02,-3.64,3.70,4.66,3.83,-1.33,-1.32,-1.38
98.28,-5.02,-3.62,-5.01,-3.60,3.64,4.59,3.77,-1.38,-1.37,-1.40
99.26,-5.02,-3.59,-5.02,-3.59,3.59,4.53,3.71,-1.43,-1.43,-1.43
100.25,-5.02,-3.56,-5.02,-3.56,3.54,4.47,3.65,-1.48,-1.48,-1.46
101.25,-5.02,-3.53,-5.02,-3.53,3.50,4.41,3.59,-1.52,-1.52,-1.49
102.27,-5.02,-3.49,-5.02,-3.49,3.47,4.35,3.53,-1.56,-1.56,-1.53
103.29,-5.02,-3.44,-5.02,-3.45,3.44,4.29,3.47,-1.58,-1.58,-1.58
104.32,-5.02,-3.40,-5.01,-3.39,3.42,4.23,3.41,-1.61,-1.60,-1.62
105.37,-5.02,-3.35,-5.02,-3.34,3.39,4.18,3.36,-1.63,-1.63,-1.67
106.42,-5.02,-3.30,-5.06,-3.33,3.36,4.12,3.30,-1.66,-1.70,-1.72
107.48,-5.11,-3.32,-5.12,-3.33,3.33,4.07,3.24,-1.78,-1.79,-1.79
108.56,-5.23,-3.36,-5.19,-3.33,3.30,4.01,3.19,-1.93,-1.89,-1.87
109.64,-5.24,-3.30,-5.24,-3.31,3.26,3.96,3.14,-1.98,-1.98,-1.94
110.74,-5.24,-3.24,-5.25,-3.25,3.21,3.91,3.08,-2.03,-2.04,-2.00
111.85,-5.24,-3.17,-5.24,-3.17,3.15,3.86,3.03,-2.09,-2.09,-2.07
112.97,-5.24,-3.08,-5.24,-3.09,3.08,3.80,2.98,-2.16,-2.16,-2.16
114.10,-5.24,-3.02,-5.24,-3.01,3.01,3.75,2.94,-2.23,-2.23,-2.22
115.24,-5.24,-2.94,-5.24,-2.94,2.94,3.71,2.89,-2.30,-2.30,-2.30
116.39,-5.24,-2.86,-5.24,-2.86,2.88,3.66,2.84,-2.36,-2.36,-2.38
117.55,-5.24,-2.80,-5.22,-2.78,2.84,3.61,2.80,-2.41,-2.39,-2.44
118.73,-5.24,-2.73,-5.26,-2.75,2.80,3.56,2.76,-2.44,-2.45,-2.51
119.92,-5.25,-2.70,-5.32,-2.76,2.78,3.52,2.72,-2.48,-2.55,-2.55
121.12,-5.47,-2.86,-5.40,-2.79,2.76,3.47,2.68,-2.71,-2.64,-2.61
122.33,-5.47,-2.82,-5.46,-2.82,2.76,3.43,2.65,-2.71,-2.70,-2.65
123.55,-5.47,-2.80,-5.49,-2.81,2.77,3.38,2.61,-2.70,-2.72,-2.67
124.79,-5.47,-2.76,-5.47,-2.75,2.78,3.34,2.58,-2.69,-2.68,-2.71
126.03,-5.47,-2.72,-5.50,-2.75,2.79,3.30,2.55,-2.68,-2.70,-2.75
127.29,-5.54,-2.76,-5.56,-2.77,2.79,3.26,2.52,-2.75,-2.77,-2.78
128.57,-5.65,-2.83,-5.63,-2.81,2.79,3.22,2.50,-2.86,-2.84,-2.82
129.85,-5.70,-2.85,-5.69,-2.84,2.79,3.18,2.47,-2.92,-2.90,-2.85
131.15,-5.70,-2.82,-5.71,-2.83,2.79,3.14,2.45,-2.91,-2.92,-2.88
132.46,-5.70,-2.79,-5.69,-2.78,2.80,3.10,2.43,-2.90,-2.89,-2.91
133.79,-5.70,-2.76,-5.71,-2.76,2.82,3.07,2.42,-2.89,-2.89,-2.94
135.12,-5.71,-2.72,-5.77,-2.78,2.82,3.03,2.40,-2.89,-2.95,-2.99
136.48,-5.87,-2.85,-5.84,-2.82,2.82,3.00,2.39,-3.05,-3.02,-3.02
137.84,-5.93,-2.88,-5.91,-2.84,2.81,2.96,2.37,-3.12,-3.10,-3.05
139.22,-5.93,-2.83,-5.94,-2.84,2.80,2.93,2.36,-3.14,-3.15,-3.10
140.61,-5.93,-2.78,-5.94,-2.80,2.78,2.89,2.35,-3.16,-3.16,-3.15
142.02,-5.93,-2.76,-5.93,-2.75,2.75,2.86,2.35,-3.18,-3.18,-3.17
143.44,-5.93,-2.72,-5.93,-2.72,2.72,2.83,2.34,-3.21,-3.21,-3.21
144.87,-5.93,-2.68,-5.93,-2.68,2.69,2.80,2.34,-3.25,-3.25,-3.25
146.32,-5.93,-2.63,-5.92,-2.63,2.65,2.77,2.33,-3.29,-3.28,-3.30
147.78,-5.93,-2.59,-5.93,-2.58,2.61,2.74,2.33,-3.33,-3.32,-3.34
149.26,-5.93,-2.52,-5.97,-2.55,2.57,2.72,2.33,-3.36,-3.40,-3.41
150.75,-6.03,-2.54,-6.03,-2.55,2.53,2.69,2.34,-3.50,-3.50,-3.49
152.26,-6.12,-2.56,-6.10,-2.54,2.50,2.66,2.34,-3.62,-3.60,-3.56
153.78,-6.16,-2.53,-6.14,-2.50,2.47,2.64,2.34,-3.69,-3.67,-3.63
155.32,-6.16,-2.43,-6.17,-2.45,2.45,2.61,2.35,-3.71,-3.72,-3.73
156.88,-6.17,-2.37,-6.23,-2.42,2.44,2.59,2.36,-3.73,-3.78,-3.80
158.44,-6.32,-2.45,-6.28,-2.40,2.44,2.57,2.36,-3.88,-3.84,-3.87
160.03,-6.38,-2.43,-6.35,-2.41,2.45,2.55,2.37,-3.93,-3.91,-3.95
161.63,-6.38,-2.37,-6.43,-2.42,2.46,2.52,2.38,-3.93,-3.98,-4.01
163.24,-6.52,-2.46,-6.52,-2.46,2.46,2.50,2.40,-4.06,-4.06,-4.06
164.88,-6.61,-2.51,-6.63,-2.52,2.46,2.49,2.41,-4.15,-4.16,-4.10
166.53,-6.75,-2.61,-6.69,-2.55,2.46,2.47,2.42,-4.29,-4.23,-4.14
168.19,-6.68,-2.51,-6.68,-2.52,2.46,2.45,2.44,-4.22,-4.22,-4.17
169.87,-6.61,-2.43,-6.65,-2.47,2.46,2.43,2.45,-4.15,-4.19,-4.18
171.57,-6.61,-2.42,-6.61,-2.42,2.47,2.42,2.47,-4.14,-4.14,-4.19
173.29,-6.61,-2.42,-6.59,-2.40,2.49,2.40,2.49,-4.13,-4.10,-4.19
175.02,-6.61,-2.44,-6.62,-2.43,2.50,2.39,2.51,-4.11,-4.11,-4.17
176.77,-6.61,-2.43,-6.67,-2.50,2.53,2.38,2.53,-4.08,-4.15,-4.18
178.54,-6.79,-2.62,-6.75,-2.58,2.56,2.37,2.55,-4.23,-4.19,-4.17
180.32,-6.84,-2.68,-6.82,-2.65,2.60,2.36,2.57,-4.25,-4.22,-4.16
182.13,-6.84,-2.68,-6.86,-2.70,2.63,2.35,2.60,-4.21,-4.23,-4.16
183.95,-6.84,-2.68,-6.85,-2.68,2.66,2.34,2.62,-4.19,-4.19,-4.16
185.79,-6.84,-2.67,-6.84,-2.67,2.67,2.33,2.65,-4.17,-4.17,-4.17
187.65,-6.84,-2.65,-6.84,-2.65,2.66,2.32,2.68,-4.18,-4.18,-4.19
189.52,-6.84,-2.63,-6.84,-2.63,2.64,2.32,2.71,-4.20,-4.20,-4.21
191.42,-6.84,-2.61,-6.84,-2.61,2.61,2.31,2.74,-4.23,-4.23,-4.23
193.33,-6.84,-2.59,-6.84,-2.60,2.59,2.31,2.77,-4.25,-4.25,-4.25
195.27,-6.84,-2.59,-6.84,-2.58,2.57,2.31,2.80,-4.27,-4.27,-4.25
197.22,-6.84,-2.57,-6.84,-2.56,2.57,2.31,2.83,-4.27,-4.27,-4.27
199.19,-6.84,-2.53,-6.83,-2.54,2.58,2.31,2.86,-4.27,-4.26,-4.31
201.18,-6.84,-2.53,-6.86,-2.54,2.59,2.31,2.89,-4.25,-4.27,-4.31
203.19,-6.89,-2.56,-6.92,-2.58,2.60,2.31,2.93,-4.29,-4.31,-4.33
205.23,-7.01,-2.65,-6.99,-2.64,2.62,2.31,2.96,-4.39,-4.37,-4.36
207.28,-7.07,-2.71,-7.05,-2.68,2.64,2.32,2.99,-4.43,-4.41,-4.36
209.35,-7.07,-2.69,-7.08,-2.69,2.65,2.32,3.03,-4.42,-4.43,-4.38
211.44,-7.07,-2.66,-7.08,-2.68,2.66,2.33,3.06,-4.41,-4.42,-4.41
213.56,-7.07,-2.66,-7.07,-2.66,2.66,2.34,3.09,-4.41,-4.41,-4.41
215.69,-7.07,-2.66,-7.07,-2.65,2.66,2.35,3.12,-4.41,-4.41,-4.41
217.85,-7.07,-2.63,-7.07,-2.64,2.65,2.36,3.15,-4.43,-4.43,-4.44
220.03,-7.07,-2.62,-7.07,-2.62,2.63,2.37,3.18,-4.44,-4.44,-4.45
222.23,-7.07,-2.60,-7.07,-2.61,2.61,2.38,3.21,-4.46,-4.46,-4.47
224.45,-7.07,-2.60,-7.07,-2.60,2.60,2.40,3.24,-4.47,-4.47,-4.47
226.70,-7.07,-2.60,-7.07,-2.60,2.58,2.41,3.26,-4.49,-4.49,-4.47
228.96,-7.07,-2.59,-7.07,-2.59,2.57,2.43,3.28,-4.50,-4.50,-4.48
231.25,-7.07,-2.59,-7.07,-2.59,2.57,2.45,3.30,-4.50,-4.50,-4.48
233.57,-7.07,-2.58,-7.07,-2.58,2.58,2.46,3.32,-4.49,-4.49,-4.49
235.90,-7.07,-2.57,-7.06,-2.56,2.60,2.48,3.33,-4.47,-4.45,-4.50
238.26,-7.07,-2.57,-7.07,-2.57,2.63,2.50,3.34,-4.44,-4.44,-4.50
240.64,-7.07,-2.57,-7.13,-2.63,2.66,2.53,3.35,-4.41,-4.46,-4.50
243.05,-7.23,-2.74,-7.20,-2.71,2.70,2.55,3.35,-4.53,-4.50,-4.49
245.48,-7.30,-2.82,-7.27,-2.79,2.74,2.57,3.35,-4.56,-4.53,-4.48
247.93,-7.30,-2.83,-7.31,-2.83,2.78,2.60,3.35,-4.52,-4.54,-4.47
250.41,-7.30,-2.82,-7.31,-2.84,2.81,2.62,3.34,-4.49,-4.50,-4.48
252.92,-7.30,-2.83,-7.30,-2.84,2.84,2.65,3.33,-4.46,-4.46,-4.47
255.45,-7.30,-2.86,-7.30,-2.85,2.86,2.68,3.32,-4.44,-4.44,-4.44
258.00,-7.30,-2.86,-7.30,-2.86,2.87,2.70,3.30,-4.43,-4.43,-4.44
260.58,-7.30,-2.86,-7.30,-2.87,2.87,2.73,3.28,-4.43,-4.43,-4.44
263.19,-7.30,-2.88,-7.30,-2.87,2.87,2.76,3.25,-4.43,-4.43,-4.42
265.82,-7.30,-2.88,-7.30,-2.89,2.87,2.79,3.22,-4.43,-4.43,-4.42
268.48,-7.30,-2.91,-7.30,-2.90,2.89,2.82,3.19,-4.41,-4.41,-4.39
271.16,-7.30,-2.92,-7.30,-2.92,2.92,2.85,3.16,-4.38,-4.38,-4.38
273.87,-7.30,-2.93,-7.29,-2.93,2.97,2.88,3.12,-4.34,-4.32,-4.37
276.61,-7.30,-2.97,-7.30,-2.96,3.02,2.91,3.08,-4.29,-4.29,-4.33
279.38,-7.30,-2.98,-7.36,-3.04,3.07,2.94,3.04,-4.23,-4.29,-4.32
282.17,-7.46,-3.17,-7.43,-3.14,3.13,2.96,3.00,-4.33,-4.30,-4.29
284.99,-7.52,-3.26,-7.49,-3.23,3.19,2.99,2.95,-4.33,-4.31,-4.26
287.84,-7.52,-3.28,-7.53,-3.30,3.25,3.02,2.91,-4.28,-4.29,-4.24
290.72,-7.52,-3.32,-7.53,-3.32,3.30,3.04,2.86,-4.22,-4.23,-4.20
293.63,-7.52,-3.34,-7.52,-3.34,3.35,3.07,2.81,-4.18,-4.18,-4.18
296.57,-7.52,-3.37,-7.52,-3.37,3.38,3.09,2.77,-4.14,-4.14,-4.15
299.53,-7.52,-3.40,-7.52,-3.39,3.41,3.11,2.72,-4.11,-4.11,-4.12
302.53,-7.52,-3.41,-7.52,-3.42,3.43,3.13,2.67,-4.09,-4.09,-4.11
305.55,-7.52,-3.45,-7.52,-3.44,3.46,3.14,2.62,-4.06,-4.06,-4.07
308.61,-7.52,-3.47,-7.52,-3.47,3.49,3.16,2.57,-4.03,-4.03,-4.05
311.69,-7.52,-3.48,-7.52,-3.49,3.53,3.17,2.53,-3.99,-3.99,-4.04
314.81,-7.52,-3.51,-7.52,-3.50,3.55,3.18,2.48,-3.97,-3.97,-4.01
317.96,-7.52,-3.51,-7.53,-3.51,3.54,3.18,2.43,-3.98,-3.98,-4.01
321.14,-7.52,-3.50,-7.55,-3.54,3.49,3.18,2.39,-4.03,-4.06,-4.02
324.35,-7.52,-3.51,-7.52,-3.51,3.38,3.18,2.34,-4.14,-4.14,-4.01
327.59,-7.47,-3.47,-7.40,-3.40,3.23,3.18,2.30,-4.25,-4.18,-4.00
330.87,-7.17,-3.18,-7.17,-3.17,3.03,3.17,2.26,-4.14,-4.14,-3.99
334.18,-6.82,-2.83,-6.85,-2.87,2.81,3.16,2.22,-4.01,-4.04,-3.99
337.52,-6.50,-2.52,-6.50,-2.53,2.60,3.14,2.18,-3.90,-3.90,-3.98
340.90,-6.24,-2.29,-6.22,-2.26,2.41,3.13,2.14,-3.83,-3.81,-3.95
344.30,-5.98,-2.04,-6.02,-2.08,2.26,3.11,2.11,-3.72,-3.76,-3.94
347.75,-5.93,-2.00,-5.93,-2.01,2.16,3.08,2.07,-3.78,-3.77,-3.93
351.23,-5.93,-2.03,-5.95,-2.04,2.11,3.05,2.04,-3.82,-3.84,-3.90
354.74,-6.03,-2.15,-6.03,-2.15,2.12,3.02,2.00,-3.92,-3.92,-3.88
358.28,-6.14,-2.29,-6.11,-2.25,2.16,2.99,1.97,-3.98,-3.95,-3.85
361.87,-6.16,-2.33,-6.16,-2.33,2.23,2.95,1.94,-3.93,-3.93,-3.83
365.49,-6.16,-2.35,-6.17,-2.36,2.31,2.91,1.92,-3.86,-3.87,-3.81
369.14,-6.16,-2.37,-6.16,-2.37,2.37,2.87,1.89,-3.79,-3.80,-3.79
372.83,-6.16,-2.40,-6.16,-2.40,2.41,2.83,1.86,-3.75,-3.75,-3.76
376.56,-6.16,-2.42,-6.16,-2.42,2.44,2.78,1.84,-3.72,-3.72,-3.74
380.33,-6.16,-2.45,-6.16,-2.45,2.45,2.73,1.82,-3.71,-3.71,-3.71
384.13,-6.16,-2.47,-6.16,-2.47,2.46,2.68,1.80,-3.70,-3.70,-3.69
387.97,-6.16,-2.48,-6.16,-2.48,2.48,2.63,1.78,-3.68,-3.68,-3.68
391.85,-6.16,-2.48,-6.16,-2.48,2.50,2.58,1.76,-3.67,-3.67,-3.68
395.77,-6.16,-2.49,-6.16,-2.49,2.51,2.52,1.74,-3.65,-3.65,-3.67
399.73,-6.16,-2.50,-6.16,-2.50,2.52,2.47,1.72,-3.64,-3.64,-3.66
403.72,-6.16,-2.51,-6.16,-2.51,2.51,2.41,1.71,-3.65,-3.65,-3.65
407.76,-6.16,-2.52,-6.18,-2.54,2.49,2.35,1.69,-3.67,-3.69,-3.64
411.84,-6.16,-2.53,-6.16,-2.53,2.47,2.30,1.68,-3.69,-3.68,-3.63
415.96,-6.16,-2.54,-6.10,-2.48,2.45,2.24,1.66,-3.71,-3.65,-3.62
