frequency,raw,error,smoothed,error_smoothed,equalization,parametric_eq,fixed_band_eq,equalized_raw,equalized_smoothed,target
20.00,7.51,-1.15,7.52,-1.15,1.15,0.90,-0.15,8.66,8.67,8.66
20.20,7.56,-1.10,7.56,-1.11,1.11,0.89,-0.15,8.67,8.67,8.66
20.40,7.60,-1.06,7.60,-1.07,1.07,0.89,-0.15,8.67,8.66,8.66
20.61,7.64,-1.02,7.64,-1.02,1.02,0.88,-0.15,8.66,8.66,8.66
20.81,7.68,-0.97,7.68,-0.98,0.98,0.86,-0.15,8.66,8.66,8.65
21.02,7.73,-0.92,7.72,-0.94,0.94,0.85,-0.15,8.67,8.66,8.65
21.23,7.76,-0.89,7.76,-0.89,0.89,0.83,-0.15,8.65,8.66,8.65
21.44,7.80,-0.86,7.80,-0.85,0.85,0.81,-0.15,8.65,8.65,8.66
21.66,7.84,-0.81,7.84,-0.81,0.81,0.79,-0.15,8.65,8.65,8.65
21.87,7.88,-0.77,7.88,-0.76,0.76,0.77,-0.15,8.64,8.65,8.65
22.09,7.92,-0.72,7.92,-0.72,0.72,0.74,-0.15,8.64,8.64,8.64
22.31,7.96,-0.68,7.96,-0.68,0.68,0.72,-0.15,8.64,8.64,8.64
22.54,8.00,-0.63,8.00,-0.63,0.63,0.69,-0.15,8.63,8.63,8.63
22.76,8.04,-0.59,8.04,-0.59,0.59,0.66,-0.15,8.63,8.63,8.63
22.99,8.08,-0.54,8.08,-0.54,0.54,0.62,-0.15,8.62,8.62,8.62
23.22,8.12,-0.49,8.12,-0.50,0.50,0.59,-0.15,8.62,8.62,8.61
23.45,8.16,-0.45,8.16,-0.45,0.45,0.55,-0.15,8.62,8.61,8.61
23.69,8.20,-0.40,8.20,-0.41,0.41,0.51,-0.15,8.61,8.61,8.60
23.92,8.24,-0.35,8.24,-0.36,0.36,0.47,-0.15,8.61,8.60,8.59
24.16,8.28,-0.31,8.27,-0.32,0.32,0.43,-0.15,8.60,8.60,8.59
24.40,8.31,-0.28,8.31,-0.28,0.28,0.39,-0.15,8.59,8.59,8.59
24.65,8.35,-0.24,8.35,-0.24,0.24,0.34,-0.15,8.59,8.59,8.59
24.89,8.38,-0.21,8.39,-0.20,0.20,0.30,-0.15,8.58,8.59,8.59
25.14,8.42,-0.16,8.43,-0.16,0.16,0.25,-0.15,8.58,8.58,8.58
25.39,8.46,-0.11,8.46,-0.12,0.12,0.20,-0.15,8.58,8.58,8.57
25.65,8.50,-0.07,8.50,-0.08,0.08,0.16,-0.16,8.58,8.58,8.57
25.91,8.53,-0.04,8.53,-0.05,0.05,0.11,-0.16,8.58,8.58,8.57
26.16,8.57,-0.01,8.57,-0.01,0.01,0.06,-0.16,8.58,8.58,8.58
26.43,8.61,0.03,8.60,0.03,-0.03,0.01,-0.16,8.59,8.58,8.58
26.69,8.64,0.06,8.64,0.06,-0.06,-0.04,-0.17,8.58,8.58,8.58
26.96,8.68,0.11,8.67,0.10,-0.10,-0.09,-0.17,8.58,8.58,8.57
27.23,8.71,0.14,8.71,0.13,-0.13,-0.14,-0.18,8.58,8.58,8.57
27.50,8.74,0.17,8.74,0.17,-0.17,-0.19,-0.18,8.57,8.57,8.57
27.77,8.77,0.19,8.78,0.21,-0.21,-0.24,-0.19,8.57,8.57,8.58
28.05,8.81,0.24,8.81,0.24,-0.24,-0.29,-0.20,8.57,8.57,8.57
28.33,8.84,0.28,8.84,0.28,-0.28,-0.34,-0.20,8.56,8.57,8.56
28.62,8.88,0.33,8.88,0.32,-0.32,-0.39,-0.22,8.56,8.56,8.55
28.90,8.91,0.35,8.91,0.35,-0.35,-0.45,-0.23,8.56,8.55,8.56
29.19,8.94,0.39,8.94,0.39,-0.39,-0.50,-0.24,8.55,8.55,8.55
29.48,8.97,0.43,8.97,0.43,-0.43,-0.55,-0.25,8.54,8.54,8.54
29.78,9.01,0.48,9.00,0.47,-0.47,-0.60,-0.27,8.54,8.54,8.53
30.08,9.04,0.51,9.04,0.50,-0.50,-0.65,-0.29,8.54,8.53,8.53
30.38,9.06,0.54,9.07,0.54,-0.54,-0.70,-0.30,8.52,8.53,8.52
30.68,9.10,0.59,9.10,0.57,-0.57,-0.75,-0.33,8.53,8.53,8.51
30.99,9.13,0.62,9.13,0.61,-0.61,-0.80,-0.35,8.52,8.52,8.51
31.30,9.16,0.65,9.16,0.64,-0.64,-0.85,-0.37,8.52,8.52,8.51
31.61,9.19,0.68,9.19,0.68,-0.68,-0.90,-0.40,8.51,8.52,8.51
31.93,9.22,0.72,9.22,0.71,-0.71,-0.96,-0.43,8.51,8.51,8.50
32.24,9.25,0.74,9.26,0.75,-0.75,-1.01,-0.45,8.50,8.51,8.51
32.57,9.28,0.78,9.29,0.78,-0.78,-1.06,-0.49,8.50,8.51,8.50
32.89,9.32,0.82,9.32,0.81,-0.81,-1.11,-0.52,8.51,8.50,8.50
33.22,9.35,0.85,9.35,0.85,-0.85,-1.16,-0.55,8.50,8.50,8.50
33.55,9.37,0.88,9.38,0.89,-0.89,-1.21,-0.59,8.48,8.49,8.49
33.89,9.41,0.93,9.41,0.93,-0.93,-1.26,-0.63,8.49,8.48,8.48
34.23,9.44,0.98,9.44,0.96,-0.96,-1.31,-0.67,8.48,8.47,8.46
34.57,9.47,1.01,9.47,1.01,-1.01,-1.36,-0.71,8.46,8.46,8.46
34.92,9.50,1.06,9.49,1.05,-1.05,-1.41,-0.76,8.45,8.44,8.44
35.27,9.52,1.09,9.52,1.10,-1.10,-1.46,-0.80,8.42,8.42,8.43
35.62,9.55,1.15,9.55,1.15,-1.15,-1.51,-0.85,8.40,8.40,8.40
35.97,9.57,1.19,9.58,1.20,-1.20,-1.56,-0.90,8.37,8.38,8.38
36.33,9.60,1.25,9.61,1.26,-1.26,-1.61,-0.95,8.35,8.35,8.35
36.70,9.63,1.31,9.63,1.31,-1.31,-1.66,-1.00,8.32,8.32,8.32
37.06,9.66,1.37,9.66,1.37,-1.37,-1.71,-1.05,8.29,8.29,8.29
37.43,9.69,1.43,9.69,1.42,-1.42,-1.76,-1.10,8.27,8.27,8.26
37.81,9.72,1.49,9.72,1.48,-1.48,-1.81,-1.16,8.24,8.23,8.23
38.19,9.74,1.55,9.74,1.54,-1.54,-1.86,-1.22,8.20,8.20,8.19
38.57,9.77,1.60,9.77,1.60,-1.60,-1.91,-1.28,8.17,8.17,8.17
38.95,9.80,1.66,9.80,1.66,-1.66,-1.96,-1.33,8.14,8.14,8.14
39.34,9.83,1.73,9.83,1.72,-1.72,-2.01,-1.40,8.11,8.11,8.10
39.74,9.86,1.79,9.86,1.77,-1.77,-2.06,-1.46,8.09,8.08,8.07
40.14,9.89,1.84,9.89,1.83,-1.83,-2.11,-1.52,8.06,8.06,8.05
40.54,9.90,1.87,9.91,1.89,-1.89,-2.16,-1.59,8.01,8.03,8.03
40.94,9.94,1.94,9.94,1.94,-1.94,-2.21,-1.65,8.00,8.00,8.00
41.35,9.97,2.00,9.97,1.99,-1.99,-2.26,-1.72,7.98,7.98,7.97
41.76,10.00,2.06,10.00,2.04,-2.04,-2.31,-1.79,7.96,7.95,7.94
42.18,10.03,2.10,10.02,2.10,-2.10,-2.37,-1.86,7.93,7.93,7.93
42.60,10.05,2.15,10.05,2.15,-2.15,-2.42,-1.93,7.90,7.90,7.90
43.03,10.08,2.21,10.08,2.20,-2.20,-2.47,-2.01,7.88,7.88,7.87
43.46,10.11,2.26,10.11,2.25,-2.25,-2.52,-2.08,7.86,7.86,7.85
43.90,10.14,2.31,10.13,2.30,-2.30,-2.57,-2.16,7.84,7.83,7.83
44.33,10.16,2.37,10.16,2.36,-2.36,-2.63,-2.24,7.80,7.80,7.79
44.78,10.18,2.41,10.19,2.41,-2.41,-2.68,-2.32,7.77,7.78,7.77
45.23,10.21,2.45,10.22,2.47,-2.47,-2.73,-2.40,7.74,7.75,7.76
45.68,10.24,2.52,10.24,2.53,-2.53,-2.79,-2.48,7.71,7.72,7.72
46.13,10.27,2.60,10.27,2.59,-2.59,-2.84,-2.57,7.68,7.68,7.67
46.60,10.30,2.65,10.30,2.65,-2.65,-2.89,-2.65,7.65,7.65,7.65
47.06,10.33,2.72,10.32,2.71,-2.71,-2.95,-2.74,7.62,7.61,7.61
47.53,10.35,2.77,10.35,2.78,-2.78,-3.00,-2.83,7.57,7.57,7.58
48.01,10.38,2.86,10.38,2.85,-2.85,-3.06,-2.92,7.53,7.53,7.52
48.49,10.40,2.91,10.40,2.92,-2.92,-3.11,-3.01,7.48,7.48,7.49
48.97,10.43,2.99,10.43,2.99,-2.99,-3.17,-3.10,7.44,7.44,7.44
49.46,10.46,3.06,10.46,3.06,-3.06,-3.22,-3.19,7.40,7.40,7.40
49.96,10.48,3.15,10.48,3.13,-3.13,-3.28,-3.29,7.35,7.35,7.33
50.46,10.50,3.21,10.51,3.21,-3.21,-3.34,-3.38,7.29,7.30,7.29
50.96,10.53,3.29,10.54,3.28,-3.28,-3.39,-3.48,7.25,7.26,7.24
51.47,10.56,3.36,10.56,3.35,-3.35,-3.45,-3.58,7.21,7.21,7.20
51.99,10.59,3.44,10.59,3.43,-3.43,-3.51,-3.67,7.16,7.16,7.15
52.51,10.62,3.51,10.62,3.50,-3.50,-3.56,-3.77,7.12,7.11,7.11
53.03,10.64,3.56,10.64,3.58,-3.58,-3.62,-3.87,7.06,7.07,7.08
53.56,10.67,3.64,10.67,3.65,-3.65,-3.68,-3.97,7.02,7.02,7.03
54.10,10.70,3.73,10.70,3.73,-3.73,-3.74,-4.06,6.98,6.98,6.97
54.64,10.72,3.79,10.73,3.80,-3.80,-3.80,-4.16,6.92,6.93,6.93
55.18,10.76,3.89,10.76,3.87,-3.87,-3.86,-4.25,6.89,6.89,6.87
55.74,10.78,3.95,10.78,3.94,-3.94,-3.92,-4.35,6.84,6.85,6.83
56.29,10.81,4.02,10.81,4.01,-4.01,-3.98,-4.44,6.80,6.80,6.79
56.86,10.84,4.09,10.84,4.08,-4.08,-4.04,-4.53,6.76,6.76,6.75
57.42,10.87,4.18,10.87,4.15,-4.15,-4.10,-4.62,6.72,6.71,6.69
58.00,10.90,4.25,10.89,4.23,-4.23,-4.16,-4.70,6.67,6.66,6.65
58.58,10.92,4.30,10.92,4.31,-4.31,-4.22,-4.79,6.62,6.61,6.62
59.16,10.94,4.36,10.94,4.38,-4.38,-4.29,-4.87,6.56,6.56,6.58
59.76,10.97,4.43,10.97,4.46,-4.46,-4.35,-4.94,6.51,6.51,6.54
60.35,10.99,4.52,11.00,4.54,-4.54,-4.41,-5.02,6.45,6.46,6.47
60.96,11.02,4.60,11.02,4.62,-4.62,-4.48,-5.09,6.40,6.40,6.42
61.57,11.05,4.71,11.05,4.70,-4.70,-4.54,-5.15,6.35,6.35,6.34
62.18,11.07,4.79,11.07,4.78,-4.78,-4.60,-5.22,6.29,6.29,6.28
62.80,11.10,4.88,11.10,4.86,-4.86,-4.67,-5.28,6.24,6.24,6.22
63.43,11.12,4.97,11.12,4.95,-4.95,-4.73,-5.33,6.17,6.18,6.15
64.07,11.15,5.05,11.15,5.03,-5.03,-4.80,-5.39,6.12,6.12,6.10
64.71,11.18,5.13,11.18,5.12,-5.12,-4.86,-5.44,6.07,6.06,6.05
65.35,11.20,5.20,11.20,5.20,-5.20,-4.93,-5.48,6.00,6.00,6.00
66.01,11.23,5.29,11.23,5.28,-5.28,-5.00,-5.53,5.95,5.95,5.94
66.67,11.26,5.36,11.26,5.37,-5.37,-5.06,-5.57,5.89,5.89,5.90
67.33,11.28,5.45,11.28,5.45,-5.45,-5.13,-5.61,5.83,5.84,5.83
68.01,11.31,5.53,11.31,5.53,-5.53,-5.20,-5.65,5.78,5.78,5.78
68.69,11.34,5.62,11.34,5.61,-5.61,-5.27,-5.68,5.73,5.72,5.72
69.37,11.36,5.69,11.36,5.69,-5.69,-5.34,-5.72,5.67,5.67,5.67
70.07,11.39,5.77,11.39,5.78,-5.78,-5.41,-5.75,5.62,5.61,5.62
70.77,11.42,5.86,11.42,5.86,-5.86,-5.48,-5.78,5.56,5.56,5.56
71.48,11.44,5.94,11.44,5.94,-5.94,-5.55,-5.82,5.50,5.50,5.50
72.19,11.46,6.03,11.47,6.03,-6.03,-5.62,-5.85,5.43,5.44,5.43
72.91,11.50,6.12,11.50,6.11,-6.11,-5.69,-5.89,5.39,5.38,5.38
73.64,11.52,6.21,11.52,6.20,-6.20,-5.76,-5.92,5.32,5.32,5.31
74.38,11.54,6.29,11.55,6.29,-6.29,-5.83,-5.96,5.26,5.27,5.25
75.12,11.58,6.38,11.58,6.37,-6.37,-5.90,-6.00,5.21,5.21,5.20
75.87,11.61,6.45,11.61,6.45,-6.45,-5.98,-6.04,5.16,5.16,5.16
76.63,11.64,6.54,11.64,6.54,-6.54,-6.05,-6.08,5.10,5.10,5.10
77.40,11.67,6.63,11.67,6.62,-6.62,-6.12,-6.13,5.05,5.05,5.04
78.17,11.70,6.72,11.70,6.70,-6.70,-6.20,-6.18,5.00,4.99,4.98
78.95,11.73,6.78,11.73,6.78,-6.78,-6.27,-6.23,4.95,4.94,4.95
79.74,11.76,6.87,11.76,6.86,-6.86,-6.34,-6.29,4.90,4.89,4.89
80.54,11.78,6.95,11.78,6.94,-6.94,-6.42,-6.35,4.84,4.84,4.83
81.35,11.82,7.03,11.81,7.02,-7.02,-6.50,-6.41,4.80,4.79,4.79
82.16,11.84,7.10,11.84,7.10,-7.10,-6.57,-6.48,4.74,4.74,4.74
82.98,11.86,7.18,11.87,7.18,-7.18,-6.65,-6.55,4.68,4.69,4.68
83.81,11.90,7.27,11.90,7.26,-7.26,-6.72,-6.63,4.64,4.63,4.63
84.65,11.92,7.35,11.92,7.34,-7.34,-6.80,-6.71,4.58,4.58,4.57
85.50,11.95,7.43,11.95,7.42,-7.42,-6.88,-6.79,4.53,4.53,4.52
86.35,11.98,7.51,11.98,7.51,-7.51,-6.96,-6.88,4.48,4.48,4.47
87.22,12.00,7.58,12.01,7.59,-7.59,-7.04,-6.98,4.41,4.42,4.42
88.09,12.04,7.68,12.04,7.67,-7.67,-7.12,-7.08,4.37,4.37,4.36
88.97,12.06,7.75,12.07,7.75,-7.75,-7.19,-7.18,4.31,4.31,4.31
89.86,12.10,7.85,12.10,7.84,-7.84,-7.27,-7.29,4.26,4.26,4.25
90.76,12.13,7.94,12.12,7.93,-7.93,-7.35,-7.41,4.20,4.20,4.19
91.66,12.15,8.01,12.15,8.02,-8.02,-7.44,-7.53,4.14,4.14,4.14
92.58,12.18,8.10,12.18,8.11,-8.11,-7.52,-7.65,4.08,4.08,4.08
93.51,12.21,8.19,12.21,8.20,-8.20,-7.60,-7.78,4.01,4.01,4.02
94.44,12.24,8.28,12.24,8.29,-8.29,-7.68,-7.92,3.95,3.95,3.96
95.39,12.27,8.38,12.27,8.38,-8.38,-7.76,-8.06,3.89,3.89,3.89
96.34,12.29,8.47,12.30,8.48,-8.48,-7.84,-8.20,3.82,3.82,3.82
97.30,12.32,8.56,12.32,8.57,-8.57,-7.93,-8.35,3.75,3.75,3.76
98.28,12.36,8.69,12.35,8.66,-8.66,-8.01,-8.50,3.70,3.69,3.67
99.26,12.37,8.77,12.38,8.76,-8.76,-8.10,-8.66,3.62,3.62,3.60
100.25,12.41,8.87,12.40,8.85,-8.85,-8.18,-8.82,3.56,3.56,3.54
101.25,12.43,8.95,12.43,8.94,-8.94,-8.26,-8.99,3.49,3.49,3.48
102.27,12.45,9.03,12.46,9.03,-9.03,-8.35,-9.15,3.42,3.43,3.42
103.29,12.48,9.13,12.48,9.12,-9.12,-8.43,-9.32,3.36,3.36,3.35
104.32,12.51,9.21,12.51,9.21,-9.21,-8.52,-9.50,3.30,3.30,3.30
105.37,12.53,9.29,12.54,9.29,-9.29,-8.61,-9.67,3.24,3.24,3.24
106.42,12.56,9.38,12.56,9.38,-9.38,-8.69,-9.85,3.18,3.18,3.18
107.48,12.59,9.48,12.59,9.47,-9.47,-8.78,-10.02,3.12,3.12,3.11
108.56,12.61,9.55,12.62,9.55,-9.55,-8.87,-10.20,3.06,3.06,3.06
109.64,12.64,9.63,12.64,9.64,-9.64,-8.96,-10.38,3.00,3.00,3.01
110.74,12.67,9.73,12.67,9.73,-9.73,-9.04,-10.55,2.94,2.94,2.94
111.85,12.70,9.82,12.70,9.82,-9.82,-9.13,-10.72,2.88,2.88,2.88
112.97,12.73,9.91,12.73,9.91,-9.91,-9.22,-10.88,2.82,2.82,2.82
114.10,12.76,10.00,12.75,10.00,-10.00,-9.31,-11.04,2.76,2.75,2.76
115.24,12.77,10.08,12.78,10.09,-10.09,-9.40,-11.19,2.68,2.69,2.69
116.39,12.80,10.19,12.80,10.18,-10.18,-9.49,-11.34,2.62,2.62,2.61
117.55,12.83,10.28,12.83,10.27,-10.27,-9.58,-11.48,2.56,2.55,2.55
118.73,12.85,10.38,12.85,10.36,-10.36,-9.67,-11.61,2.49,2.48,2.47
119.92,12.87,10.47,12.87,10.46,-10.46,-9.76,-11.72,2.41,2.41,2.40
121.12,12.89,10.55,12.89,10.55,-10.55,-9.85,-11.83,2.34,2.34,2.34
122.33,12.91,10.65,12.91,10.65,-10.65,-9.95,-11.92,2.26,2.27,2.26
123.55,12.93,10.73,12.93,10.74,-10.74,-10.04,-12.00,2.19,2.19,2.20
124.79,12.96,10.83,12.95,10.83,-10.83,-10.13,-12.07,2.13,2.12,2.13
126.03,12.97,10.91,12.97,10.93,-10.93,-10.22,-12.13,2.04,2.05,2.06
127.29,12.99,11.02,12.99,11.02,-11.02,-10.32,-12.17,1.97,1.97,1.97
128.57,13.01,11.11,13.01,11.11,-11.11,-10.41,-12.20,1.90,1.90,1.90
129.85,13.03,11.21,13.03,11.19,-11.19,-10.50,-12.21,1.84,1.83,1.82
131.15,13.05,11.30,13.04,11.28,-11.28,-10.60,-12.22,1.77,1.76,1.75
132.46,13.06,11.38,13.06,11.36,-11.36,-10.69,-12.22,1.70,1.70,1.68
133.79,13.08,11.46,13.08,11.44,-11.44,-10.78,-12.20,1.64,1.63,1.62
135.12,13.09,11.54,13.09,11.52,-11.52,-10.88,-12.18,1.57,1.57,1.55
136.48,13.11,11.60,13.11,11.60,-11.60,-10.97,-12.15,1.51,1.51,1.51
137.84,13.13,11.68,13.12,11.67,-11.67,-11.07,-12.11,1.46,1.45,1.45
139.22,13.14,11.76,13.14,11.75,-11.75,-11.16,-12.07,1.39,1.39,1.38
140.61,13.15,11.81,13.16,11.82,-11.82,-11.26,-12.03,1.33,1.34,1.34
142.02,13.17,11.88,13.18,11.89,-11.89,-11.35,-11.98,1.28,1.29,1.29
143.44,13.19,11.96,13.19,11.95,-11.95,-11.45,-11.93,1.24,1.24,1.23
144.87,13.21,12.02,13.21,12.02,-12.02,-11.54,-11.88,1.19,1.19,1.19
146.32,13.23,12.09,13.24,12.09,-12.09,-11.64,-11.83,1.14,1.14,1.14
147.78,13.26,12.17,13.26,12.16,-12.16,-11.73,-11.78,1.10,1.10,1.09
149.26,13.28,12.23,13.28,12.23,-12.23,-11.83,-11.74,1.05,1.05,1.05
150.75,13.30,12.31,13.31,12.30,-12.30,-11.92,-11.70,1.00,1.00,0.99
152.26,13.33,12.37,13.33,12.38,-12.38,-12.02,-11.66,0.95,0.95,0.96
153.78,13.36,12.46,13.36,12.45,-12.45,-12.11,-11.62,0.91,0.91,0.90
155.32,13.39,12.53,13.39,12.53,-12.53,-12.21,-11.59,0.86,0.86,0.86
156.88,13.41,12.60,13.42,12.61,-12.61,-12.30,-11.56,0.80,0.81,0.81
158.44,13.44,12.68,13.44,12.69,-12.69,-12.39,-11.54,0.75,0.76,0.76
160.03,13.48,12.77,13.47,12.77,-12.77,-12.49,-11.53,0.71,0.71,0.71
161.63,13.50,12.84,13.50,12.85,-12.85,-12.58,-11.52,0.65,0.66,0.66
163.24,13.53,12.94,13.53,12.93,-12.93,-12.67,-11.52,0.60,0.61,0.59
164.88,13.56,13.01,13.56,13.01,-13.01,-12.77,-11.53,0.55,0.55,0.55
166.53,13.59,13.10,13.59,13.09,-13.09,-12.86,-11.54,0.50,0.50,0.49
168.19,13.62,13.17,13.62,13.17,-13.17,-12.95,-11.56,0.45,0.45,0.45
169.87,13.64,13.24,13.64,13.25,-13.25,-13.04,-11.59,0.39,0.40,0.40
171.57,13.67,13.34,13.67,13.33,-13.33,-13.13,-11.62,0.35,0.34,0.33
173.29,13.70,13.42,13.69,13.40,-13.40,-13.22,-11.67,0.30,0.29,0.28
175.02,13.72,13.48,13.72,13.48,-13.48,-13.31,-11.72,0.25,0.24,0.24
176.77,13.74,13.55,13.74,13.55,-13.55,-13.40,-11.78,0.19,0.19,0.19
178.54,13.76,13.62,13.76,13.62,-13.62,-13.49,-11.84,0.14,0.14,0.14
180.32,13.78,13.70,13.78,13.68,-13.68,-13.57,-11.92,0.10,0.09,0.08
182.13,13.79,13.75,13.79,13.75,-13.75,-13.66,-12.00,0.04,0.04,0.04
183.95,13.81,13.81,13.81,13.82,-13.82,-13.74,-12.09,-0.01,-0.01,0.00
185.79,13.82,13.88,13.82,13.88,-13.88,-13.82,-12.19,-0.06,-0.06,-0.06
187.65,13.84,13.94,13.84,13.94,-13.94,-13.90,-12.30,-0.10,-0.10,-0.10
189.52,13.84,13.99,13.85,14.00,-14.00,-13.98,-12.42,-0.16,-0.15,-0.15
191.42,13.85,14.05,13.86,14.05,-14.05,-14.06,-12.54,-0.20,-0.20,-0.20
193.33,13.86,14.11,13.86,14.11,-14.11,-14.14,-12.68,-0.24,-0.24,-0.25
195.27,13.87,14.17,13.87,14.16,-14.16,-14.21,-12.82,-0.29,-0.29,-0.30
197.22,13.88,14.23,13.88,14.21,-14.21,-14.29,-12.96,-0.33,-0.33,-0.35
199.19,13.88,14.26,13.88,14.25,-14.25,-14.36,-13.12,-0.37,-0.38,-0.38
201.18,13.88,14.31,13.88,14.30,-14.30,-14.43,-13.29,-0.42,-0.42,-0.43
203.19,13.89,14.35,13.89,14.34,-14.34,-14.49,-13.46,-0.45,-0.46,-0.46
205.23,13.88,14.38,13.89,14.39,-14.39,-14.56,-13.63,-0.50,-0.50,-0.50
207.28,13.89,14.42,13.89,14.42,-14.42,-14.62,-13.82,-0.53,-0.54,-0.53
209.35,13.88,14.45,13.89,14.46,-14.46,-14.68,-14.01,-0.58,-0.57,-0.57
211.44,13.88,14.49,13.89,14.49,-14.49,-14.74,-14.20,-0.61,-0.61,-0.61
213.56,13.88,14.53,13.88,14.52,-14.52,-14.79,-14.40,-0.64,-0.64,-0.65
215.69,13.88,14.56,13.88,14.55,-14.55,-14.85,-14.61,-0.67,-0.67,-0.68
217.85,13.87,14.58,13.87,14.58,-14.58,-14.90,-14.81,-0.71,-0.71,-0.71
220.03,13.87,14.62,13.86,14.60,-14.60,-14.94,-15.02,-0.73,-0.74,-0.75
222.23,13.86,14.63,13.86,14.62,-14.62,-14.99,-15.22,-0.76,-0.77,-0.77
224.45,13.85,14.65,13.85,14.64,-14.64,-15.03,-15.42,-0.79,-0.80,-0.80
226.70,13.83,14.66,13.84,14.66,-14.66,-15.06,-15.62,-0.83,-0.82,-0.83
228.96,13.83,14.68,13.83,14.68,-14.68,-15.10,-15.81,-0.85,-0.85,-0.85
231.25,13.82,14.69,13.82,14.69,-14.69,-15.13,-15.98,-0.87,-0.88,-0.87
233.57,13.80,14.70,13.80,14.70,-14.70,-15.15,-16.15,-0.90,-0.90,-0.90
235.90,13.78,14.71,13.79,14.71,-14.71,-15.18,-16.30,-0.93,-0.92,-0.93
238.26,13.77,14.73,13.77,14.71,-14.71,-15.20,-16.43,-0.94,-0.94,-0.96
240.64,13.75,14.71,13.75,14.71,-14.71,-15.21,-16.54,-0.96,-0.96,-0.96
243.05,13.74,14.72,13.74,14.71,-14.71,-15.22,-16.63,-0.97,-0.98,-0.98
245.48,13.72,14.73,13.72,14.71,-14.71,-15.23,-16.69,-0.99,-1.00,-1.01
247.93,13.69,14.72,13.70,14.71,-14.71,-15.24,-16.73,-1.02,-1.01,-1.03
250.41,13.68,14.71,13.68,14.70,-14.70,-15.24,-16.74,-1.02,-1.03,-1.03
252.92,13.65,14.69,13.65,14.70,-14.70,-15.23,-16.72,-1.05,-1.04,-1.04
255.45,13.63,14.69,13.63,14.69,-14.69,-15.23,-16.67,-1.06,-1.06,-1.06
258.00,13.60,14.67,13.61,14.68,-14.68,-15.22,-16.60,-1.08,-1.07,-1.07
260.58,13.58,14.66,13.58,14.67,-14.67,-15.20,-16.50,-1.09,-1.08,-1.08
263.19,13.56,14.66,13.56,14.65,-14.65,-15.18,-16.38,-1.09,-1.10,-1.10
265.82,13.53,14.64,13.53,14.64,-14.64,-15.16,-16.24,-1.11,-1.11,-1.11
268.48,13.50,14.62,13.50,14.62,-14.62,-15.14,-16.08,-1.12,-1.12,-1.12
271.16,13.47,14.61,13.47,14.61,-14.61,-15.11,-15.91,-1.14,-1.14,-1.14
273.87,13.44,14.59,13.44,14.59,-14.59,-15.07,-15.72,-1.15,-1.15,-1.15
276.61,13.41,14.58,13.41,14.57,-14.57,-15.04,-15.53,-1.16,-1.16,-1.17
279.38,13.37,14.56,13.37,14.55,-14.55,-15.00,-15.33,-1.18,-1.17,-1.19
282.17,13.34,14.54,13.34,14.52,-14.52,-14.95,-15.12,-1.18,-1.18,-1.20
284.99,13.30,14.49,13.30,14.50,-14.50,-14.91,-14.91,-1.20,-1.19,-1.19
287.84,13.26,14.46,13.27,14.47,-14.47,-14.86,-14.71,-1.21,-1.20,-1.20
290.72,13.23,14.46,13.23,14.44,-14.44,-14.80,-14.50,-1.21,-1.21,-1.23
293.63,13.19,14.41,13.19,14.41,-14.41,-14.75,-14.29,-1.22,-1.22,-1.22
296.57,13.15,14.38,13.14,14.37,-14.37,-14.69,-14.09,-1.22,-1.23,-1.23
299.53,13.10,14.34,13.10,14.34,-14.34,-14.62,-13.90,-1.23,-1.23,-1.24
302.53,13.05,14.29,13.06,14.30,-14.30,-14.56,-13.71,-1.25,-1.24,-1.24
305.55,13.01,14.26,13.01,14.26,-14.26,-14.49,-13.52,-1.24,-1.24,-1.25
308.61,12.96,14.21,12.96,14.21,-14.21,-14.42,-13.34,-1.25,-1.25,-1.25
311.69,12.91,14.17,12.92,14.17,-14.17,-14.35,-13.17,-1.26,-1.25,-1.26
314.81,12.87,14.13,12.86,14.12,-14.12,-14.27,-13.00,-1.25,-1.26,-1.26
317.96,12.81,14.08,12.81,14.07,-14.07,-14.19,-12.85,-1.26,-1.26,-1.27
321.14,12.76,14.02,12.76,14.02,-14.02,-14.11,-12.70,-1.26,-1.26,-1.26
324.35,12.70,13.98,12.70,13.97,-13.97,-14.03,-12.55,-1.27,-1.26,-1.28
327.59,12.65,13.91,12.65,13.92,-13.92,-13.94,-12.42,-1.26,-1.27,-1.26
330.87,12.59,13.86,12.59,13.86,-13.86,-13.86,-12.30,-1.27,-1.27,-1.27
334.18,12.54,13.82,12.53,13.80,-13.80,-13.77,-12.18,-1.26,-1.27,-1.28
337.52,12.47,13.74,12.47,13.74,-13.74,-13.68,-12.07,-1.27,-1.27,-1.27
340.90,12.41,13.69,12.41,13.68,-13.68,-13.59,-11.97,-1.27,-1.27,-1.28
344.30,12.34,13.61,12.35,13.61,-13.61,-13.49,-11.88,-1.27,-1.27,-1.27
347.75,12.28,13.54,12.28,13.55,-13.55,-13.40,-11.79,-1.27,-1.27,-1.26
351.23,12.22,13.50,12.22,13.48,-13.48,-13.30,-11.72,-1.26,-1.27,-1.28
354.74,12.15,13.41,12.15,13.41,-13.41,-13.20,-11.65,-1.26,-1.26,-1.26
358.28,12.07,13.34,12.08,13.34,-13.34,-13.11,-11.59,-1.27,-1.26,-1.27
361.87,12.01,13.28,12.01,13.27,-13.27,-13.01,-11.54,-1.26,-1.26,-1.27
365.49,11.93,13.20,11.93,13.20,-13.20,-12.90,-11.49,-1.27,-1.26,-1.27
369.14,11.86,13.12,11.86,13.12,-13.12,-12.80,-11.45,-1.26,-1.26,-1.26
372.83,11.79,13.05,11.78,13.05,-13.05,-12.70,-11.43,-1.26,-1.26,-1.26
376.56,11.70,12.97,11.71,12.97,-12.97,-12.59,-11.40,-1.27,-1.26,-1.27
380.33,11.63,12.90,11.63,12.89,-12.89,-12.49,-11.39,-1.26,-1.26,-1.27
384.13,11.55,12.82,11.55,12.81,-12.81,-12.38,-11.38,-1.26,-1.26,-1.27
387.97,11.46,12.72,11.46,12.73,-12.73,-12.27,-11.38,-1.26,-1.26,-1.26
391.85,11.38,12.65,11.38,12.64,-12.64,-12.17,-11.39,-1.26,-1.26,-1.27
395.77,11.29,12.56,11.29,12.56,-12.56,-12.06,-11.40,-1.26,-1.26,-1.27
399.73,11.21,12.48,11.21,12.47,-12.47,-11.95,-11.41,-1.26,-1.26,-1.27
403.72,11.12,12.38,11.12,12.38,-12.38,-11.84,-11.44,-1.26,-1.26,-1.26
407.76,11.03,12.29,11.03,12.29,-12.29,-11.73,-11.46,-1.26,-1.26,-1.26
411.84,10.94,12.20,10.94,12.20,-12.20,-11.62,-11.50,-1.26,-1.26,-1.26
415.96,10.85,12.11,10.85,12.11,-12.11,-11.51,-11.53,-1.26,-1.26,-1.26
420.12,10.75,12.02,10.76,12.02,-12.02,-11.40,-11.57,-1.27,-1.26,-1.27
424.32,10.66,11.93,10.67,11.93,-11.93,-11.28,-11.61,-1.27,-1.26,-1.27
428.56,10.57,11.83,10.57,11.84,-11.84,-11.17,-11.65,-1.27,-1.26,-1.26
432.85,10.48,11.74,10.48,11.74,-11.74,-11.06,-11.70,-1.26,-1.26,-1.26
