frequency,raw,error,smoothed,error_smoothed,equalization,parametric_eq,fixed_band_eq,equalized_raw,equalized_smoothed,target
20.00,8.64,0.04,8.62,0.01,-0.01,-0.29,-0.37,8.63,8.61,8.61
20.20,8.65,0.06,8.65,0.04,-0.04,-0.30,-0.38,8.61,8.60,8.60
20.40,8.66,0.08,8.67,0.08,-0.08,-0.30,-0.39,8.59,8.59,8.59
20.61,8.66,0.08,8.69,0.11,-0.11,-0.31,-0.40,8.56,8.58,8.59
20.81,8.67,0.11,8.71,0.14,-0.14,-0.32,-0.41,8.53,8.57,8.57
21.02,8.69,0.13,8.74,0.17,-0.17,-0.32,-0.42,8.52,8.57,8.57
21.23,8.74,0.19,8.76,0.20,-0.20,-0.33,-0.43,8.54,8.56,8.56
21.44,8.80,0.24,8.79,0.24,-0.24,-0.34,-0.44,8.57,8.55,8.57
21.66,8.85,0.30,8.81,0.27,-0.27,-0.34,-0.45,8.58,8.55,8.56
21.87,8.91,0.37,8.84,0.30,-0.30,-0.35,-0.46,8.61,8.54,8.55
22.09,8.94,0.41,8.87,0.33,-0.33,-0.36,-0.47,8.61,8.53,8.54
22.31,8.93,0.40,8.90,0.37,-0.37,-0.36,-0.48,8.57,8.53,8.54
22.54,8.92,0.40,8.93,0.40,-0.40,-0.37,-0.50,8.52,8.52,8.53
22.76,8.91,0.40,8.96,0.44,-0.44,-0.38,-0.51,8.47,8.52,8.52
22.99,8.90,0.40,8.99,0.48,-0.48,-0.38,-0.52,8.43,8.52,8.51
23.22,8.95,0.46,9.02,0.51,-0.51,-0.39,-0.53,8.44,8.51,8.50
23.45,9.01,0.51,9.05,0.54,-0.54,-0.40,-0.54,8.47,8.51,8.51
23.69,9.07,0.58,9.08,0.57,-0.57,-0.41,-0.56,8.50,8.51,8.50
23.92,9.12,0.63,9.10,0.59,-0.59,-0.41,-0.57,8.53,8.50,8.50
24.16,9.16,0.66,9.12,0.62,-0.62,-0.42,-0.58,8.55,8.51,8.51
24.40,9.18,0.67,9.15,0.64,-0.64,-0.43,-0.60,8.54,8.51,8.52
24.65,9.21,0.70,9.17,0.67,-0.67,-0.44,-0.61,8.55,8.51,8.52
24.89,9.23,0.72,9.20,0.69,-0.69,-0.45,-0.63,8.54,8.51,8.52
25.14,9.24,0.74,9.23,0.72,-0.72,-0.46,-0.64,8.53,8.51,8.51
25.39,9.24,0.74,9.25,0.74,-0.74,-0.46,-0.65,8.51,8.51,8.51
25.65,9.24,0.74,9.27,0.75,-0.75,-0.47,-0.67,8.49,8.52,8.51
25.91,9.24,0.73,9.28,0.76,-0.76,-0.48,-0.68,8.48,8.52,8.52
26.16,9.26,0.74,9.29,0.77,-0.77,-0.49,-0.70,8.49,8.52,8.53
26.43,9.28,0.76,9.30,0.78,-0.78,-0.50,-0.71,8.51,8.52,8.53
26.69,9.31,0.79,9.30,0.78,-0.78,-0.51,-0.73,8.53,8.52,8.53
26.96,9.34,0.83,9.31,0.79,-0.79,-0.52,-0.74,8.55,8.52,8.52
27.23,9.34,0.83,9.32,0.80,-0.80,-0.53,-0.76,8.55,8.52,8.52
27.50,9.34,0.83,9.33,0.81,-0.81,-0.54,-0.77,8.54,8.52,8.52
27.77,9.34,0.82,9.34,0.82,-0.82,-0.55,-0.79,8.53,8.52,8.53
28.05,9.34,0.82,9.35,0.83,-0.83,-0.56,-0.80,8.52,8.52,8.53
28.33,9.34,0.84,9.36,0.84,-0.84,-0.57,-0.81,8.50,8.52,8.51
28.62,9.34,0.84,9.37,0.85,-0.85,-0.58,-0.83,8.49,8.52,8.51
28.90,9.34,0.83,9.38,0.87,-0.87,-0.59,-0.84,8.48,8.52,8.52
29.19,9.36,0.85,9.39,0.88,-0.88,-0.60,-0.86,8.49,8.51,8.52
29.48,9.39,0.89,9.40,0.89,-0.89,-0.62,-0.87,8.51,8.51,8.51
29.78,9.42,0.92,9.41,0.90,-0.90,-0.63,-0.88,8.52,8.51,8.51
30.08,9.44,0.93,9.41,0.91,-0.91,-0.64,-0.89,8.53,8.50,8.52
30.38,9.44,0.94,9.42,0.93,-0.93,-0.65,-0.90,8.52,8.50,8.51
30.68,9.44,0.96,9.43,0.94,-0.94,-0.66,-0.92,8.50,8.49,8.49
30.99,9.44,0.96,9.43,0.95,-0.95,-0.67,-0.93,8.49,8.48,8.49
31.30,9.44,0.97,9.44,0.96,-0.96,-0.69,-0.94,8.48,8.48,8.48
31.61,9.44,0.98,9.44,0.97,-0.97,-0.70,-0.95,8.47,8.47,8.47
31.93,9.44,0.99,9.44,0.98,-0.98,-0.71,-0.96,8.46,8.46,8.46
32.24,9.44,0.99,9.45,0.99,-0.99,-0.73,-0.97,8.45,8.46,8.46
32.57,9.44,1.01,9.45,1.00,-1.00,-0.74,-0.97,8.44,8.45,8.44
32.89,9.44,1.01,9.45,1.01,-1.01,-0.75,-0.98,8.43,8.44,8.44
33.22,9.44,1.01,9.46,1.02,-1.02,-0.77,-0.99,8.42,8.44,8.44
33.55,9.44,1.02,9.47,1.03,-1.03,-0.78,-1.00,8.41,8.43,8.43
33.89,9.44,1.01,9.48,1.05,-1.05,-0.79,-1.01,8.40,8.43,8.44
34.23,9.46,1.05,9.49,1.06,-1.06,-0.81,-1.02,8.40,8.42,8.42
34.57,9.50,1.09,9.50,1.08,-1.08,-0.82,-1.02,8.43,8.42,8.42
34.92,9.53,1.13,9.51,1.09,-1.09,-0.84,-1.03,8.44,8.41,8.41
35.27,9.54,1.13,9.52,1.11,-1.11,-0.85,-1.04,8.44,8.41,8.42
35.62,9.54,1.15,9.52,1.13,-1.13,-0.87,-1.05,8.42,8.40,8.40
35.97,9.54,1.15,9.53,1.15,-1.15,-0.88,-1.06,8.40,8.39,8.40
36.33,9.54,1.17,9.54,1.17,-1.17,-0.90,-1.07,8.38,8.37,8.38
36.70,9.54,1.18,9.55,1.19,-1.19,-0.92,-1.08,8.35,8.36,8.37
37.06,9.54,1.20,9.55,1.21,-1.21,-0.93,-1.09,8.33,8.34,8.35
37.43,9.54,1.22,9.55,1.23,-1.23,-0.95,-1.10,8.31,8.32,8.33
37.81,9.54,1.24,9.55,1.25,-1.25,-0.97,-1.11,8.29,8.30,8.31
38.19,9.54,1.27,9.54,1.27,-1.27,-0.98,-1.12,8.28,8.28,8.28
38.57,9.54,1.29,9.53,1.28,-1.28,-1.00,-1.13,8.26,8.25,8.26
38.95,9.54,1.32,9.53,1.30,-1.30,-1.02,-1.15,8.25,8.23,8.23
39.34,9.53,1.35,9.52,1.32,-1.32,-1.04,-1.16,8.21,8.20,8.19
39.74,9.52,1.36,9.51,1.34,-1.34,-1.06,-1.17,8.19,8.17,8.17
40.14,9.50,1.37,9.50,1.36,-1.36,-1.07,-1.19,8.15,8.15,8.14
40.54,9.47,1.36,9.49,1.37,-1.37,-1.09,-1.21,8.10,8.12,8.12
40.94,9.44,1.36,9.48,1.39,-1.39,-1.11,-1.22,8.06,8.09,8.09
41.35,9.44,1.38,9.46,1.40,-1.40,-1.13,-1.24,8.04,8.06,8.07
41.76,9.44,1.42,9.45,1.41,-1.41,-1.15,-1.26,8.03,8.04,8.03
42.18,9.44,1.44,9.43,1.42,-1.42,-1.17,-1.28,8.02,8.01,8.01
42.60,9.44,1.46,9.42,1.44,-1.44,-1.19,-1.30,8.01,7.98,7.99
43.03,9.44,1.49,9.41,1.45,-1.45,-1.21,-1.32,7.99,7.96,7.96
43.46,9.40,1.48,9.40,1.47,-1.47,-1.23,-1.34,7.93,7.93,7.93
43.90,9.36,1.46,9.39,1.49,-1.49,-1.25,-1.37,7.87,7.90,7.91
44.33,9.35,1.49,9.38,1.51,-1.51,-1.27,-1.39,7.84,7.87,7.87
44.78,9.34,1.51,9.37,1.53,-1.53,-1.30,-1.42,7.82,7.84,7.84
45.23,9.34,1.52,9.36,1.55,-1.55,-1.32,-1.45,7.80,7.81,7.83
45.68,9.34,1.57,9.34,1.56,-1.56,-1.34,-1.48,7.78,7.78,7.78
46.13,9.34,1.61,9.32,1.58,-1.58,-1.36,-1.50,7.76,7.74,7.74
46.60,9.34,1.64,9.30,1.60,-1.60,-1.38,-1.53,7.74,7.70,7.71
47.06,9.33,1.67,9.28,1.62,-1.62,-1.41,-1.57,7.71,7.66,7.67
47.53,9.29,1.66,9.26,1.64,-1.64,-1.43,-1.60,7.65,7.62,7.64
48.01,9.24,1.67,9.24,1.67,-1.67,-1.45,-1.63,7.58,7.58,7.58
48.49,9.19,1.67,9.22,1.69,-1.69,-1.48,-1.66,7.51,7.53,7.53
48.97,9.14,1.66,9.20,1.71,-1.71,-1.50,-1.70,7.43,7.49,7.49
49.46,9.14,1.70,9.18,1.73,-1.73,-1.53,-1.73,7.41,7.44,7.45
49.96,9.14,1.77,9.16,1.76,-1.76,-1.55,-1.77,7.38,7.40,7.38
50.46,9.14,1.81,9.14,1.79,-1.79,-1.58,-1.81,7.35,7.35,7.34
50.96,9.14,1.85,9.12,1.82,-1.82,-1.60,-1.84,7.33,7.30,7.30
51.47,9.10,1.85,9.10,1.84,-1.84,-1.63,-1.88,7.26,7.26,7.26
51.99,9.05,1.85,9.08,1.87,-1.87,-1.65,-1.92,7.19,7.21,7.21
52.51,9.04,1.88,9.06,1.90,-1.90,-1.68,-1.96,7.14,7.16,7.17
53.03,9.04,1.91,9.05,1.93,-1.93,-1.71,-1.99,7.11,7.12,7.14
53.56,9.04,1.97,9.03,1.96,-1.96,-1.73,-2.03,7.09,7.07,7.08
54.10,9.04,2.02,9.01,1.98,-1.98,-1.76,-2.07,7.06,7.03,7.03
54.64,9.02,2.04,8.98,2.00,-2.00,-1.79,-2.10,7.02,6.98,6.99
55.18,8.99,2.07,8.96,2.02,-2.02,-1.81,-2.14,6.98,6.94,6.93
55.74,8.92,2.05,8.93,2.03,-2.03,-1.84,-2.18,6.89,6.90,6.88
56.29,8.88,2.04,8.91,2.05,-2.05,-1.87,-2.21,6.83,6.86,6.85
56.86,8.85,2.05,8.89,2.07,-2.07,-1.90,-2.24,6.78,6.81,6.81
57.42,8.84,2.10,8.86,2.10,-2.10,-1.93,-2.28,6.75,6.77,6.75
58.00,8.84,2.13,8.84,2.11,-2.11,-1.96,-2.31,6.73,6.72,6.72
58.58,8.78,2.10,8.81,2.13,-2.13,-1.99,-2.34,6.65,6.67,6.69
59.16,8.74,2.10,8.78,2.15,-2.15,-2.01,-2.36,6.59,6.62,6.65
59.76,8.74,2.14,8.75,2.17,-2.17,-2.04,-2.39,6.57,6.57,6.61
60.35,8.74,2.21,8.72,2.19,-2.19,-2.07,-2.41,6.55,6.52,6.54
60.96,8.74,2.26,8.69,2.22,-2.22,-2.10,-2.44,6.53,6.47,6.49
61.57,8.69,2.28,8.66,2.24,-2.24,-2.13,-2.45,6.45,6.42,6.42
62.18,8.64,2.30,8.63,2.27,-2.27,-2.17,-2.47,6.37,6.36,6.35
62.80,8.56,2.28,8.61,2.30,-2.30,-2.20,-2.49,6.26,6.30,6.29
63.43,8.54,2.32,8.57,2.33,-2.33,-2.23,-2.50,6.21,6.24,6.23
64.07,8.54,2.37,8.54,2.35,-2.35,-2.26,-2.51,6.19,6.18,6.18
64.71,8.51,2.40,8.50,2.38,-2.38,-2.29,-2.52,6.13,6.12,6.12
65.35,8.48,2.43,8.48,2.42,-2.42,-2.32,-2.53,6.07,6.06,6.06
66.01,8.44,2.45,8.45,2.45,-2.45,-2.35,-2.54,6.00,6.00,6.00
66.67,8.39,2.44,8.41,2.47,-2.47,-2.38,-2.54,5.92,5.94,5.96
67.33,8.36,2.49,8.38,2.50,-2.50,-2.42,-2.54,5.87,5.88,5.88
68.01,8.34,2.52,8.35,2.53,-2.53,-2.45,-2.55,5.82,5.82,5.83
68.69,8.33,2.58,8.32,2.56,-2.56,-2.48,-2.55,5.77,5.76,5.76
69.37,8.29,2.59,8.29,2.59,-2.59,-2.51,-2.55,5.70,5.70,5.71
70.07,8.22,2.59,8.26,2.62,-2.62,-2.55,-2.54,5.60,5.63,5.64
70.77,8.24,2.67,8.22,2.65,-2.65,-2.58,-2.54,5.59,5.57,5.58
71.48,8.24,2.74,8.18,2.68,-2.68,-2.61,-2.54,5.57,5.50,5.51
72.19,8.20,2.77,8.14,2.70,-2.70,-2.64,-2.54,5.50,5.44,5.44
72.91,8.04,2.67,8.10,2.73,-2.73,-2.68,-2.54,5.32,5.38,5.38
73.64,8.03,2.73,8.07,2.75,-2.75,-2.71,-2.54,5.28,5.32,5.31
74.38,8.03,2.79,8.04,2.78,-2.78,-2.74,-2.53,5.25,5.25,5.25
75.12,8.02,2.85,8.00,2.80,-2.80,-2.77,-2.53,5.22,5.19,5.18
75.87,7.94,2.81,7.95,2.82,-2.82,-2.81,-2.53,5.13,5.13,5.14
76.63,7.87,2.81,7.91,2.83,-2.83,-2.84,-2.54,5.04,5.08,5.07
77.40,7.83,2.82,7.88,2.86,-2.86,-2.87,-2.54,4.98,5.02,5.02
78.17,7.83,2.88,7.84,2.87,-2.87,-2.91,-2.54,4.96,4.96,4.96
78.95,7.83,2.92,7.79,2.88,-2.88,-2.94,-2.55,4.95,4.91,4.92
79.74,7.73,2.88,7.75,2.89,-2.89,-2.97,-2.55,4.84,4.85,4.86
80.54,7.74,2.95,7.71,2.91,-2.91,-3.00,-2.56,4.84,4.80,4.80
81.35,7.72,2.98,7.67,2.93,-2.93,-3.04,-2.57,4.80,4.74,4.75
82.16,7.61,2.92,7.63,2.94,-2.94,-3.07,-2.58,4.68,4.69,4.70
82.98,7.53,2.90,7.58,2.95,-2.95,-3.10,-2.60,4.59,4.63,4.64
83.81,7.51,2.94,7.53,2.96,-2.96,-3.13,-2.61,4.56,4.57,4.58
84.65,7.55,3.04,7.49,2.98,-2.98,-3.16,-2.63,4.58,4.51,4.52
85.50,7.46,3.02,7.45,2.99,-2.99,-3.20,-2.65,4.47,4.46,4.45
86.35,7.33,2.95,7.41,3.01,-3.01,-3.23,-2.67,4.32,4.40,4.39
87.22,7.32,2.99,7.37,3.03,-3.03,-3.26,-2.69,4.29,4.34,4.34
88.09,7.33,3.07,7.32,3.05,-3.05,-3.29,-2.72,4.29,4.27,4.27
88.97,7.29,3.08,7.28,3.07,-3.07,-3.32,-2.75,4.23,4.21,4.22
89.86,7.24,3.11,7.24,3.09,-3.09,-3.35,-2.78,4.15,4.15,4.14
90.76,7.15,3.08,7.20,3.12,-3.12,-3.38,-2.81,4.03,4.08,4.08
91.66,7.14,3.14,7.16,3.15,-3.15,-3.41,-2.84,3.99,4.01,4.01
92.58,7.14,3.20,7.12,3.18,-3.18,-3.44,-2.88,3.97,3.94,3.95
93.51,7.10,3.23,7.06,3.20,-3.20,-3.46,-2.92,3.91,3.87,3.88
94.44,7.05,3.25,7.02,3.23,-3.23,-3.49,-2.96,3.83,3.79,3.81
95.39,6.99,3.27,6.97,3.26,-3.26,-3.52,-3.00,3.74,3.72,3.73
96.34,6.89,3.25,6.92,3.28,-3.28,-3.55,-3.04,3.62,3.64,3.65
97.30,6.82,3.26,6.86,3.30,-3.30,-3.57,-3.09,3.53,3.56,3.57
98.28,6.82,3.35,6.80,3.32,-3.32,-3.60,-3.14,3.51,3.48,3.48
99.26,6.81,3.43,6.74,3.34,-3.34,-3.62,-3.18,3.47,3.40,3.39
100.25,6.66,3.36,6.68,3.36,-3.36,-3.65,-3.23,3.30,3.32,3.31
101.25,6.56,3.33,6.62,3.38,-3.38,-3.67,-3.28,3.18,3.24,3.24
102.27,6.50,3.36,6.55,3.40,-3.40,-3.70,-3.34,3.10,3.15,3.15
103.29,6.52,3.46,6.48,3.41,-3.41,-3.72,-3.39,3.11,3.07,3.07
104.32,6.45,3.46,6.42,3.43,-3.43,-3.74,-3.44,3.02,2.99,3.00
105.37,6.27,3.36,6.35,3.44,-3.44,-3.76,-3.49,2.83,2.91,2.92
106.42,6.25,3.43,6.27,3.44,-3.44,-3.78,-3.55,2.81,2.83,2.83
107.48,6.27,3.54,6.20,3.45,-3.45,-3.80,-3.60,2.82,2.75,2.74
108.56,6.21,3.54,6.13,3.46,-3.46,-3.82,-3.65,2.75,2.67,2.68
109.64,6.07,3.49,6.06,3.47,-3.47,-3.84,-3.70,2.60,2.59,2.59
110.74,5.99,3.49,6.00,3.49,-3.49,-3.86,-3.75,2.50,2.51,2.51
111.85,5.93,3.50,5.95,3.51,-3.51,-3.87,-3.80,2.42,2.44,2.44
112.97,5.85,3.49,5.90,3.53,-3.53,-3.89,-3.85,2.32,2.36,2.37
114.10,5.78,3.49,5.84,3.55,-3.55,-3.90,-3.89,2.24,2.29,2.30
115.24,5.73,3.52,5.77,3.55,-3.55,-3.92,-3.93,2.18,2.22,2.22
116.39,5.62,3.49,5.73,3.58,-3.58,-3.93,-3.97,2.04,2.15,2.14
117.55,5.64,3.57,5.69,3.61,-3.61,-3.94,-4.00,2.04,2.08,2.08
118.73,5.73,3.74,5.63,3.61,-3.61,-3.95,-4.03,2.12,2.01,2.00
119.92,5.66,3.73,5.57,3.62,-3.62,-3.96,-4.06,2.05,1.95,1.94
121.12,5.56,3.68,5.53,3.64,-3.64,-3.97,-4.08,1.92,1.88,1.89
122.33,5.51,3.70,5.49,3.67,-3.67,-3.98,-4.10,1.85,1.82,1.82
123.55,5.44,3.68,5.44,3.68,-3.68,-3.99,-4.12,1.76,1.76,1.77
124.79,5.39,3.69,5.40,3.71,-3.71,-3.99,-4.12,1.69,1.69,1.71
126.03,5.26,3.63,5.36,3.73,-3.73,-4.00,-4.13,1.53,1.63,1.64
127.29,5.32,3.75,5.31,3.74,-3.74,-4.00,-4.13,1.58,1.57,1.58
128.57,5.33,3.82,5.27,3.75,-3.75,-4.01,-4.13,1.58,1.51,1.52
129.85,5.11,3.67,5.22,3.77,-3.77,-4.01,-4.12,1.34,1.45,1.45
131.15,5.05,3.67,5.16,3.77,-3.77,-4.01,-4.11,1.28,1.39,1.39
132.46,5.16,3.84,5.10,3.76,-3.76,-4.01,-4.09,1.40,1.33,1.33
133.79,5.17,3.91,5.04,3.77,-3.77,-4.01,-4.07,1.41,1.27,1.27
135.12,4.97,3.77,4.99,3.78,-3.78,-4.01,-4.05,1.19,1.21,1.21
136.48,4.94,3.78,4.94,3.79,-3.79,-4.00,-4.02,1.16,1.15,1.17
137.84,5.00,3.90,4.88,3.79,-3.79,-4.00,-3.99,1.22,1.10,1.11
139.22,4.81,3.79,4.83,3.80,-3.80,-3.99,-3.96,1.02,1.04,1.03
140.61,4.70,3.72,4.79,3.81,-3.81,-3.99,-3.93,0.90,0.98,0.99
142.02,4.79,3.87,4.73,3.80,-3.80,-3.98,-3.89,0.99,0.92,0.93
143.44,4.61,3.76,4.67,3.81,-3.81,-3.97,-3.85,0.81,0.87,0.86
144.87,4.47,3.67,4.62,3.81,-3.81,-3.96,-3.82,0.66,0.81,0.81
146.32,4.51,3.76,4.56,3.81,-3.81,-3.95,-3.78,0.71,0.76,0.76
147.78,4.55,3.86,4.50,3.80,-3.80,-3.94,-3.74,0.76,0.70,0.70
149.26,4.54,3.90,4.45,3.80,-3.80,-3.93,-3.70,0.74,0.64,0.65
150.75,4.39,3.82,4.40,3.81,-3.81,-3.92,-3.66,0.58,0.59,0.58
152.26,4.35,3.82,4.34,3.81,-3.81,-3.90,-3.63,0.54,0.53,0.54
153.78,4.40,3.93,4.28,3.81,-3.81,-3.89,-3.59,0.59,0.48,0.48
155.32,4.22,3.80,4.24,3.82,-3.82,-3.87,-3.56,0.40,0.42,0.43
156.88,4.07,3.71,4.19,3.83,-3.83,-3.86,-3.52,0.24,0.36,0.37
158.44,4.12,3.82,4.13,3.83,-3.83,-3.84,-3.49,0.29,0.30,0.31
160.03,4.08,3.84,4.08,3.84,-3.84,-3.82,-3.46,0.25,0.24,0.25
161.63,4.02,3.84,4.02,3.84,-3.84,-3.80,-3.43,0.19,0.18,0.19
163.24,3.96,3.85,3.95,3.83,-3.83,-3.78,-3.41,0.14,0.12,0.12
164.88,3.88,3.82,3.88,3.82,-3.82,-3.76,-3.38,0.06,0.06,0.07
166.53,3.82,3.83,3.82,3.82,-3.82,-3.74,-3.36,0.00,0.00,-0.00
168.19,3.75,3.81,3.76,3.82,-3.82,-3.72,-3.34,-0.07,-0.06,-0.05
169.87,3.75,3.87,3.69,3.81,-3.81,-3.69,-3.32,-0.06,-0.12,-0.11
171.57,3.69,3.88,3.63,3.81,-3.81,-3.67,-3.31,-0.11,-0.18,-0.18
173.29,3.52,3.77,3.58,3.81,-3.81,-3.64,-3.30,-0.29,-0.24,-0.24
175.02,3.46,3.76,3.52,3.81,-3.81,-3.62,-3.29,-0.35,-0.29,-0.29
176.77,3.46,3.81,3.46,3.80,-3.80,-3.59,-3.28,-0.34,-0.35,-0.34
178.54,3.41,3.82,3.41,3.81,-3.81,-3.57,-3.28,-0.39,-0.40,-0.40
180.32,3.33,3.80,3.35,3.80,-3.80,-3.54,-3.27,-0.47,-0.45,-0.46
182.13,3.27,3.78,3.30,3.80,-3.80,-3.51,-3.27,-0.53,-0.50,-0.50
183.95,3.20,3.76,3.25,3.80,-3.80,-3.49,-3.28,-0.60,-0.55,-0.55
185.79,3.16,3.77,3.20,3.80,-3.80,-3.46,-3.28,-0.63,-0.60,-0.60
187.65,3.14,3.79,3.15,3.79,-3.79,-3.43,-3.29,-0.65,-0.65,-0.64
189.52,3.19,3.89,3.09,3.78,-3.78,-3.40,-3.30,-0.59,-0.69,-0.69
191.42,3.10,3.83,3.05,3.79,-3.79,-3.37,-3.31,-0.68,-0.74,-0.72
193.33,2.98,3.76,3.02,3.79,-3.79,-3.34,-3.33,-0.81,-0.78,-0.77
195.27,3.02,3.85,2.97,3.79,-3.79,-3.31,-3.34,-0.76,-0.82,-0.82
197.22,2.91,3.79,2.92,3.78,-3.78,-3.28,-3.36,-0.87,-0.86,-0.87
199.19,2.78,3.69,2.88,3.79,-3.79,-3.25,-3.38,-1.00,-0.90,-0.90
201.18,2.80,3.76,2.83,3.78,-3.78,-3.21,-3.40,-0.97,-0.94,-0.95
203.19,2.77,3.76,2.77,3.76,-3.76,-3.18,-3.43,-0.98,-0.98,-0.98
205.23,2.71,3.74,2.72,3.75,-3.75,-3.15,-3.45,-1.03,-1.02,-1.02
207.28,2.65,3.71,2.67,3.74,-3.74,-3.12,-3.47,-1.08,-1.06,-1.05
209.35,2.66,3.76,2.61,3.71,-3.71,-3.09,-3.50,-1.05,-1.10,-1.09
211.44,2.69,3.84,2.55,3.69,-3.69,-3.05,-3.53,-1.00,-1.14,-1.14
213.56,2.49,3.67,2.50,3.68,-3.68,-3.02,-3.55,-1.19,-1.18,-1.17
215.69,2.38,3.60,2.45,3.67,-3.67,-2.99,-3.58,-1.28,-1.21,-1.21
217.85,2.45,3.70,2.39,3.64,-3.64,-2.95,-3.60,-1.19,-1.25,-1.24
220.03,2.28,3.58,2.34,3.62,-3.62,-2.92,-3.62,-1.33,-1.28,-1.29
222.23,2.15,3.47,2.29,3.59,-3.59,-2.89,-3.65,-1.44,-1.31,-1.31
224.45,2.22,3.57,2.23,3.56,-3.56,-2.85,-3.67,-1.34,-1.34,-1.34
226.70,2.28,3.66,2.17,3.54,-3.54,-2.82,-3.68,-1.25,-1.36,-1.37
228.96,2.12,3.52,2.12,3.51,-3.51,-2.78,-3.70,-1.39,-1.39,-1.39
231.25,1.99,3.40,2.07,3.48,-3.48,-2.75,-3.71,-1.49,-1.41,-1.40
233.57,2.04,3.48,2.02,3.44,-3.44,-2.72,-3.72,-1.40,-1.42,-1.43
235.90,2.05,3.50,1.96,3.40,-3.40,-2.68,-3.73,-1.35,-1.44,-1.44
238.26,1.84,3.31,1.93,3.38,-3.38,-2.65,-3.73,-1.53,-1.45,-1.46
240.64,1.86,3.32,1.89,3.35,-3.35,-2.61,-3.73,-1.49,-1.46,-1.45
243.05,1.87,3.34,1.85,3.32,-3.32,-2.58,-3.72,-1.44,-1.47,-1.46
245.48,1.83,3.32,1.82,3.29,-3.29,-2.55,-3.71,-1.46,-1.48,-1.48
247.93,1.77,3.27,1.77,3.25,-3.25,-2.51,-3.70,-1.48,-1.48,-1.49
250.41,1.73,3.22,1.72,3.21,-3.21,-2.48,-3.68,-1.48,-1.49,-1.48
252.92,1.66,3.15,1.68,3.18,-3.18,-2.44,-3.66,-1.52,-1.50,-1.48
255.45,1.57,3.08,1.65,3.16,-3.16,-2.41,-3.63,-1.58,-1.51,-1.50
258.00,1.53,3.05,1.60,3.12,-3.12,-2.38,-3.59,-1.59,-1.52,-1.51
260.58,1.61,3.14,1.56,3.09,-3.09,-2.34,-3.56,-1.47,-1.53,-1.52
263.19,1.64,3.18,1.51,3.05,-3.05,-2.31,-3.51,-1.41,-1.54,-1.53
265.82,1.50,3.06,1.47,3.02,-3.02,-2.28,-3.47,-1.52,-1.55,-1.55
268.48,1.40,2.96,1.41,2.98,-2.98,-2.24,-3.42,-1.57,-1.56,-1.55
271.16,1.31,2.89,1.36,2.94,-2.94,-2.21,-3.36,-1.62,-1.58,-1.57
273.87,1.28,2.87,1.31,2.90,-2.90,-2.18,-3.31,-1.61,-1.59,-1.58
276.61,1.32,2.93,1.25,2.85,-2.85,-2.14,-3.24,-1.53,-1.60,-1.60
279.38,1.21,2.85,1.19,2.80,-2.80,-2.11,-3.18,-1.59,-1.61,-1.63
282.17,1.07,2.71,1.14,2.76,-2.76,-2.08,-3.12,-1.68,-1.62,-1.63
284.99,1.09,2.73,1.09,2.71,-2.71,-2.05,-3.05,-1.62,-1.63,-1.63
287.84,1.08,2.72,1.03,2.67,-2.67,-2.01,-2.98,-1.58,-1.63,-1.63
290.72,0.87,2.53,0.98,2.62,-2.62,-1.98,-2.91,-1.75,-1.64,-1.65
293.63,0.91,2.56,0.93,2.58,-2.58,-1.95,-2.83,-1.67,-1.64,-1.64
296.57,0.93,2.58,0.90,2.55,-2.55,-1.92,-2.76,-1.62,-1.65,-1.64
299.53,0.85,2.51,0.87,2.52,-2.52,-1.89,-2.69,-1.67,-1.65,-1.65
302.53,0.74,2.39,0.83,2.48,-2.48,-1.86,-2.61,-1.74,-1.65,-1.64
305.55,0.70,2.36,0.79,2.44,-2.44,-1.82,-2.54,-1.74,-1.65,-1.65
308.61,0.80,2.45,0.74,2.40,-2.40,-1.79,-2.46,-1.59,-1.66,-1.64
311.69,0.82,2.49,0.71,2.36,-2.36,-1.76,-2.39,-1.54,-1.66,-1.66
314.81,0.71,2.37,0.66,2.32,-2.32,-1.73,-2.31,-1.61,-1.66,-1.65
317.96,0.62,2.30,0.61,2.27,-2.27,-1.70,-2.24,-1.65,-1.66,-1.67
321.14,0.58,2.25,0.55,2.22,-2.22,-1.67,-2.16,-1.64,-1.67,-1.66
324.35,0.52,2.20,0.51,2.17,-2.17,-1.64,-2.09,-1.65,-1.67,-1.67
327.59,0.51,2.18,0.45,2.12,-2.12,-1.61,-2.02,-1.61,-1.67,-1.66
330.87,0.35,2.03,0.40,2.07,-2.07,-1.58,-1.95,-1.72,-1.67,-1.67
334.18,0.26,1.95,0.35,2.02,-2.02,-1.55,-1.88,-1.76,-1.67,-1.68
337.52,0.28,1.96,0.29,1.97,-1.97,-1.52,-1.81,-1.68,-1.68,-1.67
340.90,0.21,1.90,0.23,1.90,-1.90,-1.49,-1.74,-1.69,-1.67,-1.68
344.30,0.14,1.82,0.17,1.84,-1.84,-1.46,-1.67,-1.70,-1.67,-1.67
347.75,0.05,1.72,0.12,1.79,-1.79,-1.44,-1.61,-1.74,-1.67,-1.66
351.23,0.04,1.73,0.08,1.75,-1.75,-1.41,-1.54,-1.70,-1.67,-1.68
354.74,0.09,1.76,0.04,1.70,-1.70,-1.38,-1.48,-1.61,-1.66,-1.66
358.28,0.06,1.73,-0.00,1.66,-1.66,-1.35,-1.41,-1.60,-1.66,-1.66
361.87,-0.01,1.66,-0.04,1.61,-1.61,-1.32,-1.35,-1.62,-1.66,-1.66
365.49,-0.10,1.56,-0.08,1.57,-1.57,-1.29,-1.29,-1.67,-1.65,-1.65
369.14,-0.14,1.51,-0.11,1.54,-1.54,-1.27,-1.23,-1.67,-1.65,-1.64
372.83,-0.19,1.45,-0.15,1.50,-1.50,-1.24,-1.17,-1.68,-1.64,-1.63
376.56,-0.18,1.47,-0.19,1.45,-1.45,-1.21,-1.12,-1.63,-1.64,-1.64
380.33,-0.19,1.46,-0.23,1.41,-1.41,-1.18,-1.06,-1.60,-1.64,-1.64
384.13,-0.26,1.38,-0.27,1.37,-1.37,-1.16,-1.01,-1.63,-1.64,-1.63
387.97,-0.33,1.31,-0.32,1.33,-1.33,-1.13,-0.95,-1.65,-1.65,-1.63
391.85,-0.38,1.27,-0.37,1.28,-1.28,-1.10,-0.90,-1.66,-1.65,-1.64
395.77,-0.45,1.21,-0.42,1.24,-1.24,-1.07,-0.85,-1.68,-1.65,-1.65
399.73,-0.47,1.19,-0.47,1.19,-1.19,-1.05,-0.80,-1.66,-1.66,-1.65
403.72,-0.47,1.18,-0.51,1.15,-1.15,-1.02,-0.75,-1.62,-1.66,-1.64
407.76,-0.51,1.16,-0.56,1.11,-1.11,-0.99,-0.70,-1.61,-1.67,-1.66
411.84,-0.64,1.04,-0.61,1.06,-1.06,-0.97,-0.65,-1.70,-1.67,-1.67
415.96,-0.68,1.00,-0.66,1.02,-1.02,-0.94,-0.61,-1.69,-1.67,-1.67
420.12,-0.68,1.01,-0.70,0.97,-0.97,-0.91,-0.56,-1.65,-1.67,-1.68
424.32,-0.74,0.94,-0.73,0.93,-0.93,-0.88,-0.52,-1.67,-1.66,-1.67
428.56,-0.76,0.90,-0.75,0.90,-0.90,-0.86,-0.47,-1.65,-1.65,-1.65
432.85,-0.77,0.87,-0.77,0.86,-0.86,-0.83,-0.43,-1.62,-1.63,-1.63
437.18,-0.86,0.77,-0.79,0.81,-0.81,-0.80,-0.39,-1.67,-1.60,-1.62
441.55,-0.88,0.72,-0.80,0.77,-0.77,-0.78,-0.35,-1.65,-1.57,-1.59
445.96,-0.85,0.71,-0.80,0.73,-0.73,-0.75,-0.31,-1.58,-1.53,-1.55
450.42,-0.80,0.72,-0.80,0.69,-0.69,-0.72,-0.28,-1.49,-1.49,-1.51
454.93,-0.77,0.70,-0.79,0.65,-0.65,-0.70,-0.24,-1.42,-1.44,-1.46
459.48,-0.77,0.64,-0.77,0.62,-0.62,-0.67,-0.21,-1.39,-1.39,-1.40
464.07,-0.72,0.62,-0.76,0.58,-0.58,-0.64,-0.17,-1.30,-1.34,-1.33
468.71,-0.72,0.57,-0.74,0.55,-0.55,-0.61,-0.14,-1.26,-1.29,-1.28
473.40,-0.72,0.51,-0.72,0.51,-0.51,-0.59,-0.11,-1.23,-1.23,-1.22
478.13,-0.74,0.43,-0.71,0.48,-0.48,-0.56,-0.08,-1.21,-1.18,-1.16
482.91,-0.70,0.42,-0.69,0.44,-0.44,-0.53,-0.06,-1.14,-1.13,-1.11
487.74,-0.67,0.42,-0.68,0.40,-0.40,-0.50,-0.03,-1.07,-1.08,-1.08
492.62,-0.70,0.35,-0.68,0.36,-0.36,-0.47,-0.01,-1.06,-1.04,-1.04
497.55,-0.70,0.31,-0.69,0.32,-0.32,-0.44,0.01,-1.02,-1.01,-1.00
502.52,-0.67,0.32,-0.70,0.29,-0.29,-0.41,0.04,-0.95,-0.98,-0.98
507.55,-0.68,0.28,-0.72,0.25,-0.25,-0.38,0.05,-0.93,-0.97,-0.95
512.62,-0.72,0.23,-0.74,0.21,-0.21,-0.35,0.07,-0.93,-0.95,-0.94
