frequency,raw,error,smoothed,error_smoothed,equalization,parametric_eq,fixed_band_eq,equalized_raw,equalized_smoothed,target
20.00,2.11,-4.54,2.11,-4.54,4.53,4.03,1.47,6.64,6.64,6.65
20.20,2.16,-4.49,2.16,-4.49,4.49,4.02,1.51,6.65,6.65,6.65
20.40,2.20,-4.45,2.20,-4.45,4.45,4.01,1.56,6.65,6.65,6.65
20.61,2.25,-4.40,2.25,-4.40,4.40,4.00,1.61,6.65,6.65,6.65
20.81,2.30,-4.35,2.29,-4.36,4.36,3.99,1.66,6.66,6.65,6.65
21.02,2.33,-4.32,2.34,-4.31,4.31,3.98,1.71,6.64,6.65,6.65
21.23,2.38,-4.25,2.37,-4.26,4.26,3.97,1.76,6.64,6.64,6.63
21.44,2.41,-4.21,2.41,-4.21,4.21,3.95,1.81,6.62,6.62,6.62
21.66,2.44,-4.16,2.44,-4.16,4.16,3.94,1.87,6.60,6.60,6.60
21.87,2.47,-4.11,2.47,-4.11,4.11,3.93,1.92,6.58,6.58,6.58
22.09,2.51,-4.06,2.51,-4.05,4.05,3.91,1.98,6.56,6.56,6.57
22.31,2.55,-3.99,2.54,-4.00,3.99,3.90,2.04,6.54,6.54,6.54
22.54,2.58,-3.94,2.58,-3.94,3.93,3.88,2.10,6.51,6.52,6.52
22.76,2.62,-3.88,2.62,-3.88,3.87,3.87,2.16,6.49,6.49,6.50
22.99,2.66,-3.81,2.65,-3.81,3.81,3.85,2.23,6.47,6.46,6.47
23.22,2.69,-3.75,2.69,-3.75,3.75,3.83,2.29,6.44,6.44,6.44
23.45,2.74,-3.67,2.73,-3.68,3.69,3.82,2.36,6.43,6.42,6.41
23.69,2.77,-3.63,2.77,-3.62,3.63,3.80,2.43,6.40,6.40,6.40
23.92,2.81,-3.57,2.81,-3.57,3.58,3.78,2.50,6.39,6.38,6.38
24.16,2.84,-3.53,2.83,-3.53,3.53,3.76,2.57,6.37,6.36,6.37
24.40,2.86,-3.49,2.86,-3.48,3.48,3.74,2.64,6.34,6.34,6.35
24.65,2.89,-3.44,2.89,-3.44,3.44,3.72,2.71,6.33,6.33,6.33
24.89,2.92,-3.39,2.91,-3.40,3.40,3.70,2.78,6.32,6.31,6.31
25.14,2.94,-3.36,2.94,-3.36,3.36,3.68,2.86,6.30,6.30,6.30
25.39,2.96,-3.32,2.96,-3.32,3.32,3.66,2.93,6.28,6.28,6.28
25.65,2.98,-3.29,2.98,-3.28,3.28,3.63,3.00,6.26,6.26,6.27
25.91,3.00,-3.24,3.00,-3.25,3.25,3.61,3.07,6.24,6.24,6.24
26.16,3.02,-3.21,3.02,-3.21,3.21,3.59,3.15,6.23,6.23,6.23
26.43,3.03,-3.19,3.03,-3.18,3.18,3.56,3.22,6.21,6.21,6.22
26.69,3.05,-3.14,3.05,-3.15,3.15,3.54,3.29,6.20,6.20,6.19
26.96,3.06,-3.12,3.06,-3.12,3.13,3.51,3.36,6.19,6.18,6.18
27.23,3.07,-3.10,3.07,-3.10,3.10,3.49,3.42,6.17,6.17,6.17
27.50,3.07,-3.09,3.07,-3.08,3.08,3.46,3.49,6.15,6.15,6.16
27.77,3.08,-3.06,3.08,-3.06,3.06,3.43,3.55,6.14,6.14,6.14
28.05,3.09,-3.04,3.08,-3.04,3.04,3.40,3.61,6.13,6.12,6.13
28.33,3.09,-3.02,3.09,-3.02,3.02,3.37,3.66,6.11,6.11,6.11
28.62,3.10,-3.00,3.09,-3.00,3.00,3.35,3.71,6.10,6.10,6.10
28.90,3.10,-2.98,3.10,-2.98,2.99,3.32,3.75,6.08,6.08,6.08
29.19,3.10,-2.96,3.10,-2.96,2.97,3.29,3.79,6.07,6.07,6.06
29.48,3.11,-2.95,3.10,-2.95,2.95,3.25,3.83,6.06,6.06,6.06
29.78,3.11,-2.94,3.11,-2.94,2.94,3.22,3.85,6.05,6.04,6.05
30.08,3.11,-2.93,3.11,-2.93,2.92,3.19,3.87,6.03,6.03,6.04
30.38,3.11,-2.91,3.11,-2.91,2.91,3.16,3.89,6.02,6.02,6.02
30.68,3.11,-2.90,3.11,-2.89,2.89,3.12,3.90,6.00,6.00,6.01
30.99,3.12,-2.86,3.11,-2.87,2.88,3.09,3.90,6.00,5.99,5.98
31.30,3.11,-2.86,3.11,-2.86,2.86,3.05,3.89,5.97,5.97,5.97
31.61,3.12,-2.84,3.11,-2.84,2.84,3.02,3.88,5.96,5.95,5.96
31.93,3.11,-2.83,3.11,-2.82,2.82,2.98,3.86,5.93,5.93,5.94
32.24,3.11,-2.80,3.11,-2.80,2.80,2.95,3.83,5.91,5.91,5.91
32.57,3.12,-2.77,3.11,-2.78,2.78,2.91,3.79,5.89,5.89,5.89
32.89,3.12,-2.76,3.12,-2.75,2.75,2.87,3.75,5.87,5.87,5.88
33.22,3.13,-2.72,3.13,-2.73,2.73,2.83,3.71,5.86,5.86,5.85
33.55,3.13,-2.71,3.13,-2.71,2.71,2.79,3.65,5.83,5.83,5.84
33.89,3.13,-2.68,3.13,-2.68,2.68,2.75,3.59,5.81,5.81,5.81
34.23,3.13,-2.66,3.13,-2.66,2.66,2.71,3.53,5.79,5.79,5.79
34.57,3.14,-2.63,3.13,-2.63,2.63,2.67,3.46,5.77,5.77,5.77
34.92,3.14,-2.61,3.14,-2.61,2.61,2.63,3.39,5.75,5.75,5.75
35.27,3.15,-2.58,3.14,-2.58,2.59,2.58,3.31,5.73,5.73,5.73
35.62,3.15,-2.56,3.15,-2.56,2.56,2.54,3.23,5.71,5.71,5.71
35.97,3.15,-2.54,3.15,-2.54,2.54,2.50,3.15,5.68,5.69,5.69
36.33,3.16,-2.51,3.16,-2.51,2.51,2.45,3.06,5.67,5.67,5.67
36.70,3.16,-2.49,3.16,-2.48,2.48,2.41,2.97,5.64,5.65,5.65
37.06,3.18,-2.45,3.17,-2.46,2.46,2.36,2.88,5.64,5.63,5.63
37.43,3.18,-2.43,3.18,-2.43,2.43,2.32,2.79,5.61,5.61,5.61
37.81,3.18,-2.41,3.19,-2.40,2.40,2.27,2.70,5.58,5.59,5.59
38.19,3.20,-2.36,3.19,-2.37,2.37,2.22,2.61,5.57,5.56,5.56
38.57,3.20,-2.35,3.20,-2.34,2.34,2.17,2.51,5.54,5.54,5.55
38.95,3.21,-2.31,3.21,-2.31,2.31,2.12,2.42,5.52,5.52,5.52
39.34,3.22,-2.28,3.22,-2.28,2.28,2.07,2.33,5.50,5.50,5.50
39.74,3.23,-2.25,3.23,-2.25,2.25,2.02,2.23,5.48,5.48,5.48
40.14,3.24,-2.23,3.24,-2.23,2.22,1.97,2.14,5.46,5.46,5.47
40.54,3.25,-2.20,3.25,-2.20,2.19,1.92,2.04,5.44,5.45,5.45
40.94,3.27,-2.16,3.26,-2.16,2.16,1.87,1.95,5.43,5.43,5.43
41.35,3.28,-2.12,3.28,-2.13,2.13,1.82,1.86,5.41,5.41,5.40
41.76,3.30,-2.10,3.30,-2.10,2.10,1.76,1.77,5.40,5.40,5.40
42.18,3.31,-2.07,3.31,-2.07,2.07,1.71,1.68,5.37,5.38,5.38
42.60,3.33,-2.03,3.33,-2.04,2.03,1.65,1.59,5.36,5.36,5.36
43.03,3.35,-2.00,3.35,-1.99,1.99,1.60,1.50,5.33,5.34,5.35
43.46,3.38,-1.94,3.38,-1.94,1.94,1.54,1.41,5.32,5.32,5.32
43.90,3.41,-1.89,3.41,-1.89,1.89,1.49,1.33,5.30,5.30,5.30
44.33,3.44,-1.84,3.44,-1.84,1.84,1.43,1.24,5.28,5.28,5.28
44.78,3.47,-1.79,3.47,-1.79,1.79,1.37,1.16,5.26,5.26,5.26
45.23,3.51,-1.72,3.50,-1.73,1.73,1.31,1.08,5.24,5.23,5.23
45.68,3.54,-1.67,3.54,-1.67,1.67,1.26,0.99,5.21,5.22,5.21
46.13,3.59,-1.61,3.59,-1.61,1.61,1.20,0.91,5.20,5.20,5.20
46.60,3.64,-1.55,3.64,-1.55,1.55,1.14,0.83,5.19,5.18,5.19
47.06,3.69,-1.48,3.69,-1.48,1.48,1.08,0.75,5.17,5.17,5.17
47.53,3.74,-1.41,3.74,-1.42,1.41,1.01,0.68,5.15,5.15,5.15
48.01,3.79,-1.35,3.79,-1.34,1.34,0.95,0.60,5.12,5.13,5.14
48.49,3.85,-1.26,3.85,-1.26,1.26,0.89,0.52,5.10,5.10,5.11
48.97,3.91,-1.17,3.90,-1.17,1.17,0.83,0.45,5.08,5.08,5.08
49.46,3.97,-1.08,3.97,-1.08,1.09,0.77,0.37,5.05,5.05,5.05
49.96,4.03,-0.99,4.03,-0.99,1.00,0.70,0.30,5.02,5.03,5.02
50.46,4.11,-0.90,4.10,-0.90,0.90,0.64,0.23,5.01,5.01,5.01
50.96,4.18,-0.81,4.18,-0.81,0.81,0.57,0.15,4.99,4.99,4.99
51.47,4.25,-0.71,4.25,-0.71,0.71,0.51,0.08,4.96,4.96,4.96
51.99,4.32,-0.62,4.32,-0.62,0.62,0.44,0.01,4.93,4.94,4.94
52.51,4.40,-0.52,4.40,-0.52,0.52,0.38,-0.06,4.91,4.91,4.92
53.03,4.48,-0.42,4.48,-0.42,0.41,0.31,-0.13,4.89,4.89,4.90
53.56,4.57,-0.30,4.56,-0.31,0.31,0.24,-0.19,4.87,4.87,4.87
54.10,4.65,-0.20,4.65,-0.20,0.20,0.17,-0.26,4.85,4.85,4.85
54.64,4.73,-0.09,4.73,-0.09,0.09,0.11,-0.33,4.82,4.82,4.82
55.18,4.82,0.02,4.82,0.02,-0.02,0.04,-0.39,4.80,4.80,4.80
55.74,4.91,0.14,4.90,0.13,-0.13,-0.03,-0.45,4.78,4.77,4.77
56.29,4.99,0.24,4.99,0.24,-0.24,-0.10,-0.52,4.75,4.75,4.75
56.86,5.07,0.35,5.07,0.35,-0.35,-0.17,-0.58,4.72,4.72,4.72
57.42,5.16,0.46,5.15,0.45,-0.45,-0.24,-0.64,4.71,4.70,4.70
58.00,5.23,0.55,5.23,0.56,-0.55,-0.31,-0.70,4.67,4.68,4.68
58.58,5.31,0.66,5.31,0.66,-0.65,-0.38,-0.76,4.65,4.66,4.65
59.16,5.39,0.76,5.38,0.75,-0.75,-0.45,-0.82,4.64,4.63,4.63
59.76,5.45,0.84,5.45,0.85,-0.85,-0.52,-0.87,4.60,4.61,4.61
60.35,5.52,0.94,5.52,0.93,-0.94,-0.60,-0.93,4.58,4.57,4.58
60.96,5.58,1.02,5.58,1.03,-1.03,-0.67,-0.99,4.54,4.54,4.56
61.57,5.64,1.12,5.64,1.12,-1.12,-0.74,-1.04,4.51,4.52,4.52
62.18,5.71,1.22,5.70,1.21,-1.21,-0.81,-1.09,4.50,4.49,4.49
62.80,5.76,1.30,5.76,1.30,-1.29,-0.89,-1.14,4.46,4.46,4.46
63.43,5.81,1.38,5.81,1.38,-1.37,-0.96,-1.19,4.43,4.44,4.43
64.07,5.86,1.46,5.86,1.46,-1.45,-1.03,-1.25,4.41,4.41,4.40
64.71,5.91,1.53,5.90,1.52,-1.53,-1.11,-1.29,4.38,4.38,4.38
65.35,5.95,1.59,5.95,1.59,-1.59,-1.18,-1.34,4.35,4.35,4.36
66.01,5.99,1.65,5.99,1.66,-1.66,-1.26,-1.39,4.33,4.33,4.34
66.67,6.04,1.73,6.03,1.72,-1.72,-1.33,-1.44,4.31,4.31,4.31
67.33,6.08,1.79,6.07,1.79,-1.79,-1.40,-1.49,4.29,4.29,4.29
68.01,6.11,1.85,6.11,1.85,-1.85,-1.48,-1.53,4.26,4.26,4.26
68.69,6.15,1.91,6.15,1.91,-1.91,-1.55,-1.58,4.24,4.23,4.24
69.37,6.18,1.97,6.18,1.97,-1.97,-1.63,-1.63,4.21,4.21,4.21
70.07,6.22,2.04,6.22,2.03,-2.03,-1.70,-1.68,4.18,4.18,4.18
70.77,6.25,2.09,6.25,2.09,-2.10,-1.78,-1.72,4.15,4.15,4.16
71.48,6.29,2.16,6.28,2.16,-2.16,-1.86,-1.77,4.13,4.13,4.13
72.19,6.31,2.21,6.31,2.22,-2.22,-1.93,-1.82,4.09,4.10,4.10
72.91,6.35,2.29,6.34,2.28,-2.28,-2.01,-1.87,4.07,4.06,4.06
73.64,6.37,2.34,6.37,2.34,-2.34,-2.08,-1.92,4.03,4.03,4.03
74.38,6.39,2.39,6.40,2.41,-2.40,-2.16,-1.97,3.99,3.99,4.00
75.12,6.43,2.48,6.42,2.47,-2.46,-2.23,-2.02,3.96,3.96,3.95
75.87,6.45,2.53,6.45,2.53,-2.53,-2.31,-2.07,3.92,3.92,3.92
76.63,6.47,2.58,6.47,2.59,-2.59,-2.38,-2.13,3.88,3.88,3.89
77.40,6.49,2.64,6.49,2.65,-2.65,-2.46,-2.19,3.84,3.84,3.85
78.17,6.51,2.72,6.51,2.71,-2.71,-2.53,-2.24,3.80,3.80,3.79
78.95,6.54,2.77,6.53,2.77,-2.77,-2.61,-2.30,3.77,3.76,3.77
79.74,6.56,2.83,6.56,2.83,-2.84,-2.68,-2.36,3.72,3.72,3.73
80.54,6.58,2.90,6.58,2.90,-2.90,-2.76,-2.43,3.68,3.68,3.68
81.35,6.60,2.96,6.60,2.96,-2.96,-2.83,-2.49,3.64,3.64,3.64
82.16,6.62,3.03,6.62,3.03,-3.02,-2.91,-2.56,3.59,3.59,3.59
82.98,6.64,3.09,6.63,3.09,-3.09,-2.98,-2.63,3.55,3.55,3.55
83.81,6.65,3.16,6.65,3.15,-3.15,-3.06,-2.70,3.50,3.50,3.49
84.65,6.66,3.21,6.66,3.21,-3.21,-3.13,-2.77,3.45,3.45,3.45
85.50,6.68,3.27,6.67,3.27,-3.27,-3.20,-2.84,3.40,3.40,3.41
86.35,6.69,3.33,6.69,3.33,-3.33,-3.28,-2.92,3.35,3.35,3.36
87.22,6.70,3.39,6.70,3.40,-3.40,-3.35,-3.00,3.30,3.31,3.31
88.09,6.72,3.47,6.71,3.46,-3.46,-3.42,-3.08,3.26,3.26,3.25
88.97,6.73,3.52,6.72,3.52,-3.52,-3.49,-3.17,3.21,3.21,3.21
89.86,6.73,3.57,6.73,3.58,-3.58,-3.56,-3.26,3.15,3.15,3.16
90.76,6.74,3.64,6.74,3.64,-3.64,-3.63,-3.35,3.10,3.10,3.10
91.66,6.75,3.70,6.75,3.70,-3.70,-3.70,-3.44,3.05,3.05,3.05
92.58,6.76,3.77,6.76,3.76,-3.76,-3.77,-3.53,3.00,3.00,2.99
93.51,6.77,3.82,6.77,3.82,-3.82,-3.84,-3.63,2.95,2.94,2.95
94.44,6.78,3.88,6.78,3.88,-3.88,-3.91,-3.73,2.89,2.89,2.90
95.39,6.78,3.94,6.78,3.94,-3.95,-3.98,-3.83,2.83,2.83,2.84
96.34,6.79,4.02,6.79,4.01,-4.01,-4.05,-3.93,2.78,2.78,2.77
97.30,6.79,4.07,6.79,4.08,-4.07,-4.12,-4.04,2.71,2.72,2.72
98.28,6.80,4.14,6.80,4.14,-4.14,-4.18,-4.14,2.66,2.66,2.66
99.26,6.80,4.21,6.80,4.20,-4.20,-4.25,-4.25,2.60,2.60,2.59
100.25,6.80,4.26,6.80,4.26,-4.26,-4.31,-4.36,2.53,2.53,2.54
101.25,6.80,4.32,6.80,4.33,-4.33,-4.38,-4.47,2.47,2.47,2.48
102.27,6.80,4.39,6.80,4.39,-4.39,-4.44,-4.58,2.41,2.41,2.41
103.29,6.81,4.47,6.81,4.46,-4.46,-4.50,-4.69,2.35,2.35,2.34
104.32,6.81,4.52,6.81,4.52,-4.52,-4.56,-4.81,2.29,2.29,2.29
105.37,6.81,4.58,6.81,4.58,-4.58,-4.63,-4.92,2.22,2.22,2.23
106.42,6.80,4.64,6.80,4.65,-4.65,-4.69,-5.03,2.15,2.15,2.16
107.48,6.81,4.72,6.80,4.72,-4.72,-4.74,-5.14,2.09,2.09,2.09
108.56,6.81,4.79,6.81,4.78,-4.78,-4.80,-5.25,2.03,2.02,2.02
109.64,6.81,4.85,6.81,4.85,-4.85,-4.86,-5.36,1.96,1.96,1.96
110.74,6.81,4.91,6.81,4.92,-4.92,-4.92,-5.46,1.89,1.89,1.90
111.85,6.81,4.98,6.81,4.98,-4.99,-4.97,-5.56,1.82,1.82,1.83
112.97,6.81,5.06,6.81,5.05,-5.05,-5.02,-5.66,1.76,1.75,1.75
114.10,6.80,5.11,6.80,5.12,-5.12,-5.08,-5.75,1.68,1.69,1.69
115.24,6.81,5.19,6.80,5.19,-5.18,-5.13,-5.83,1.63,1.62,1.62
116.39,6.80,5.25,6.80,5.25,-5.24,-5.18,-5.92,1.55,1.55,1.55
117.55,6.79,5.31,6.79,5.31,-5.30,-5.23,-5.99,1.48,1.49,1.48
118.73,6.78,5.36,6.78,5.36,-5.36,-5.28,-6.06,1.42,1.42,1.42
119.92,6.77,5.41,6.77,5.41,-5.41,-5.32,-6.12,1.35,1.35,1.36
121.12,6.76,5.46,6.76,5.46,-5.46,-5.37,-6.17,1.29,1.30,1.30
122.33,6.75,5.52,6.75,5.51,-5.51,-5.41,-6.21,1.24,1.24,1.23
123.55,6.74,5.56,6.74,5.56,-5.56,-5.46,-6.25,1.18,1.18,1.18
124.79,6.72,5.60,6.72,5.60,-5.60,-5.50,-6.27,1.11,1.12,1.12
126.03,6.71,5.64,6.71,5.64,-5.65,-5.54,-6.29,1.06,1.06,1.07
127.29,6.69,5.68,6.69,5.69,-5.69,-5.57,-6.30,1.00,1.00,1.01
128.57,6.68,5.74,6.68,5.73,-5.73,-5.61,-6.30,0.95,0.95,0.94
129.85,6.66,5.77,6.66,5.77,-5.77,-5.65,-6.30,0.89,0.89,0.89
131.15,6.64,5.80,6.64,5.80,-5.80,-5.68,-6.28,0.84,0.84,0.84
132.46,6.62,5.84,6.62,5.84,-5.83,-5.71,-6.26,0.78,0.78,0.78
133.79,6.60,5.86,6.60,5.87,-5.86,-5.75,-6.23,0.73,0.73,0.74
135.12,6.58,5.90,6.58,5.89,-5.89,-5.77,-6.20,0.69,0.69,0.68
136.48,6.56,5.91,6.56,5.91,-5.91,-5.80,-6.16,0.65,0.64,0.65
137.84,6.53,5.92,6.53,5.93,-5.93,-5.83,-6.11,0.60,0.60,0.61
139.22,6.51,5.95,6.51,5.94,-5.94,-5.85,-6.06,0.57,0.56,0.56
140.61,6.48,5.96,6.48,5.95,-5.95,-5.88,-6.00,0.52,0.53,0.52
142.02,6.46,5.96,6.45,5.96,-5.96,-5.90,-5.95,0.50,0.49,0.50
143.44,6.43,5.96,6.43,5.97,-5.97,-5.92,-5.89,0.46,0.46,0.47
144.87,6.40,5.97,6.40,5.97,-5.97,-5.94,-5.83,0.43,0.43,0.43
146.32,6.38,5.98,6.38,5.97,-5.97,-5.95,-5.76,0.41,0.40,0.40
147.78,6.35,5.97,6.35,5.97,-5.97,-5.97,-5.70,0.38,0.37,0.38
149.26,6.32,5.97,6.32,5.97,-5.97,-5.98,-5.64,0.35,0.35,0.35
150.75,6.28,5.97,6.28,5.97,-5.97,-5.99,-5.57,0.31,0.31,0.31
152.26,6.25,5.96,6.25,5.96,-5.96,-6.00,-5.51,0.29,0.29,0.29
153.78,6.22,5.96,6.22,5.96,-5.96,-6.01,-5.45,0.26,0.26,0.26
155.32,6.19,5.95,6.18,5.95,-5.95,-6.01,-5.39,0.24,0.23,0.24
156.88,6.15,5.94,6.15,5.94,-5.94,-6.02,-5.33,0.21,0.21,0.21
158.44,6.11,5.93,6.11,5.93,-5.93,-6.02,-5.28,0.17,0.18,0.18
160.03,6.08,5.93,6.07,5.92,-5.92,-6.02,-5.23,0.15,0.15,0.15
161.63,6.03,5.91,6.03,5.92,-5.91,-6.02,-5.18,0.11,0.12,0.12
163.24,6.00,5.91,6.00,5.90,-5.90,-6.02,-5.13,0.10,0.10,0.09
164.88,5.96,5.89,5.96,5.89,-5.89,-6.01,-5.09,0.07,0.07,0.07
166.53,5.92,5.87,5.91,5.87,-5.87,-6.00,-5.05,0.05,0.04,0.05
168.19,5.87,5.86,5.87,5.86,-5.86,-6.00,-5.01,0.01,0.01,0.01
169.87,5.82,5.84,5.82,5.84,-5.84,-5.99,-4.98,-0.02,-0.02,-0.02
171.57,5.78,5.83,5.77,5.82,-5.82,-5.98,-4.95,-0.05,-0.05,-0.05
173.29,5.72,5.79,5.72,5.80,-5.81,-5.96,-4.92,-0.09,-0.08,-0.07
175.02,5.68,5.79,5.67,5.79,-5.79,-5.95,-4.90,-0.11,-0.11,-0.11
176.77,5.62,5.77,5.62,5.77,-5.77,-5.93,-4.88,-0.15,-0.15,-0.15
178.54,5.57,5.76,5.57,5.76,-5.75,-5.91,-4.87,-0.18,-0.18,-0.19
180.32,5.52,5.74,5.51,5.73,-5.74,-5.89,-4.86,-0.22,-0.22,-0.22
182.13,5.46,5.71,5.46,5.71,-5.72,-5.87,-4.85,-0.26,-0.26,-0.25
183.95,5.40,5.69,5.40,5.69,-5.70,-5.85,-4.85,-0.30,-0.30,-0.29
185.79,5.35,5.68,5.35,5.68,-5.68,-5.82,-4.85,-0.33,-0.33,-0.33
187.65,5.30,5.67,5.29,5.66,-5.66,-5.79,-4.85,-0.36,-0.36,-0.37
189.52,5.24,5.64,5.24,5.64,-5.63,-5.77,-4.86,-0.39,-0.39,-0.40
191.42,5.19,5.61,5.19,5.61,-5.61,-5.74,-4.87,-0.42,-0.42,-0.42
193.33,5.13,5.57,5.13,5.57,-5.58,-5.70,-4.89,-0.45,-0.45,-0.44
195.27,5.07,5.54,5.07,5.54,-5.54,-5.67,-4.90,-0.48,-0.48,-0.47
197.22,5.00,5.50,5.00,5.51,-5.51,-5.64,-4.92,-0.51,-0.51,-0.50
199.19,4.94,5.49,4.94,5.48,-5.47,-5.60,-4.95,-0.53,-0.53,-0.55
201.18,4.88,5.44,4.87,5.44,-5.43,-5.56,-4.97,-0.55,-0.56,-0.56
203.19,4.81,5.39,4.81,5.39,-5.39,-5.53,-5.00,-0.58,-0.58,-0.58
205.23,4.75,5.35,4.75,5.35,-5.35,-5.48,-5.03,-0.60,-0.60,-0.60
207.28,4.69,5.30,4.69,5.31,-5.31,-5.44,-5.06,-0.62,-0.62,-0.61
209.35,4.63,5.27,4.63,5.27,-5.27,-5.40,-5.09,-0.64,-0.64,-0.64
211.44,4.58,5.24,4.57,5.23,-5.23,-5.36,-5.12,-0.65,-0.65,-0.66
213.56,4.52,5.20,4.52,5.19,-5.19,-5.31,-5.15,-0.67,-0.67,-0.68
215.69,4.47,5.15,4.47,5.16,-5.16,-5.26,-5.18,-0.69,-0.69,-0.68
217.85,4.43,5.12,4.43,5.13,-5.13,-5.22,-5.21,-0.70,-0.70,-0.69
220.03,4.40,5.12,4.40,5.11,-5.11,-5.17,-5.24,-0.72,-0.72,-0.72
222.23,4.38,5.11,4.38,5.10,-5.11,-5.12,-5.27,-0.73,-0.73,-0.73
224.45,4.38,5.10,4.38,5.11,-5.11,-5.06,-5.29,-0.74,-0.74,-0.72
226.70,4.39,5.12,4.39,5.12,-5.13,-5.01,-5.31,-0.75,-0.74,-0.73
228.96,4.43,5.16,4.42,5.15,-5.17,-4.96,-5.33,-0.74,-0.75,-0.73
231.25,4.47,5.19,4.47,5.20,-5.22,-4.90,-5.35,-0.75,-0.74,-0.72
233.57,4.54,5.25,4.54,5.25,-5.27,-4.85,-5.35,-0.73,-0.74,-0.71
235.90,4.61,5.32,4.61,5.32,-5.33,-4.79,-5.36,-0.72,-0.72,-0.71
238.26,4.69,5.40,4.69,5.39,-5.39,-4.73,-5.36,-0.70,-0.70,-0.71
240.64,4.76,5.45,4.76,5.45,-5.43,-4.67,-5.35,-0.68,-0.68,-0.69
243.05,4.82,5.49,4.81,5.48,-5.47,-4.61,-5.34,-0.65,-0.66,-0.67
245.48,4.83,5.48,4.84,5.49,-5.47,-4.55,-5.32,-0.65,-0.64,-0.65
247.93,4.84,5.48,4.84,5.48,-5.45,-4.49,-5.29,-0.62,-0.62,-0.64
250.41,4.82,5.45,4.81,5.43,-5.41,-4.42,-5.25,-0.59,-0.60,-0.63
252.92,4.75,5.34,4.75,5.35,-5.33,-4.36,-5.21,-0.58,-0.58,-0.59
255.45,4.66,5.23,4.66,5.24,-5.23,-4.30,-5.16,-0.57,-0.56,-0.57
258.00,4.56,5.11,4.55,5.10,-5.10,-4.23,-5.11,-0.54,-0.55,-0.55
260.58,4.43,4.96,4.43,4.96,-4.96,-4.17,-5.05,-0.53,-0.53,-0.53
263.19,4.29,4.80,4.29,4.80,-4.81,-4.10,-4.98,-0.52,-0.52,-0.51
265.82,4.16,4.65,4.16,4.64,-4.65,-4.03,-4.90,-0.49,-0.49,-0.49
268.48,4.02,4.48,4.02,4.48,-4.49,-3.96,-4.82,-0.48,-0.47,-0.46
271.16,3.90,4.33,3.89,4.33,-4.34,-3.89,-4.74,-0.44,-0.45,-0.43
273.87,3.77,4.18,3.77,4.18,-4.20,-3.82,-4.64,-0.43,-0.42,-0.41
276.61,3.66,4.04,3.66,4.05,-4.06,-3.75,-4.55,-0.40,-0.40,-0.38
279.38,3.57,3.93,3.56,3.92,-3.93,-3.68,-4.45,-0.37,-0.37,-0.36
282.17,3.47,3.81,3.47,3.81,-3.82,-3.61,-4.34,-0.35,-0.35,-0.34
284.99,3.39,3.70,3.39,3.70,-3.70,-3.54,-4.24,-0.32,-0.32,-0.31
287.84,3.31,3.60,3.31,3.60,-3.60,-3.47,-4.13,-0.29,-0.29,-0.29
290.72,3.24,3.49,3.24,3.49,-3.49,-3.40,-4.02,-0.25,-0.25,-0.25
293.63,3.16,3.39,3.15,3.38,-3.37,-3.32,-3.90,-0.22,-0.22,-0.23
296.57,3.07,3.27,3.07,3.27,-3.26,-3.25,-3.79,-0.19,-0.19,-0.20
299.53,2.97,3.14,2.97,3.14,-3.13,-3.17,-3.67,-0.16,-0.16,-0.17
302.53,2.87,3.02,2.87,3.01,-3.00,-3.10,-3.55,-0.13,-0.13,-0.15
305.55,2.76,2.86,2.76,2.87,-2.87,-3.03,-3.44,-0.11,-0.10,-0.10
308.61,2.66,2.73,2.66,2.73,-2.73,-2.95,-3.32,-0.07,-0.07,-0.07
311.69,2.55,2.58,2.55,2.58,-2.58,-2.87,-3.20,-0.04,-0.04,-0.03
314.81,2.44,2.44,2.44,2.44,-2.44,-2.80,-3.08,-0.00,-0.00,-0.00
317.96,2.33,2.30,2.33,2.30,-2.30,-2.72,-2.97,0.02,0.03,0.03
321.14,2.23,2.17,2.23,2.17,-2.17,-2.65,-2.85,0.06,0.05,0.06
324.35,2.13,2.05,2.13,2.04,-2.05,-2.57,-2.73,0.08,0.08,0.08
327.59,2.04,1.92,2.04,1.92,-1.93,-2.49,-2.62,0.11,0.11,0.12
330.87,1.96,1.81,1.96,1.82,-1.82,-2.42,-2.51,0.14,0.14,0.15
334.18,1.89,1.72,1.89,1.72,-1.72,-2.34,-2.40,0.16,0.16,0.17
337.52,1.83,1.64,1.83,1.63,-1.64,-2.26,-2.29,0.19,0.19,0.19
340.90,1.77,1.55,1.77,1.56,-1.56,-2.18,-2.18,0.21,0.21,0.22
344.30,1.73,1.49,1.73,1.48,-1.49,-2.11,-2.07,0.24,0.24,0.24
347.75,1.69,1.42,1.69,1.43,-1.43,-2.03,-1.96,0.26,0.27,0.27
351.23,1.67,1.38,1.66,1.38,-1.37,-1.95,-1.86,0.30,0.30,0.29
354.74,1.64,1.34,1.63,1.33,-1.31,-1.87,-1.75,0.32,0.31,0.30
358.28,1.59,1.27,1.59,1.27,-1.27,-1.79,-1.65,0.32,0.33,0.32
361.87,1.56,1.22,1.56,1.22,-1.22,-1.72,-1.55,0.33,0.34,0.34
365.49,1.54,1.17,1.53,1.17,-1.19,-1.64,-1.45,0.35,0.35,0.37
369.14,1.52,1.14,1.52,1.14,-1.15,-1.56,-1.35,0.37,0.37,0.38
372.83,1.51,1.12,1.51,1.12,-1.12,-1.48,-1.25,0.39,0.39,0.39
376.56,1.52,1.11,1.51,1.10,-1.10,-1.41,-1.15,0.42,0.41,0.41
380.33,1.51,1.07,1.51,1.08,-1.08,-1.33,-1.06,0.43,0.44,0.44
384.13,1.52,1.06,1.52,1.06,-1.06,-1.25,-0.97,0.46,0.46,0.46
387.97,1.52,1.04,1.52,1.04,-1.04,-1.17,-0.87,0.48,0.48,0.48
391.85,1.53,1.03,1.52,1.02,-1.02,-1.10,-0.78,0.51,0.50,0.50
395.77,1.52,0.99,1.52,1.00,-1.00,-1.02,-0.69,0.52,0.53,0.53
399.73,1.53,0.98,1.52,0.98,-0.97,-0.94,-0.60,0.56,0.55,0.55
403.72,1.51,0.95,1.51,0.94,-0.94,-0.87,-0.52,0.57,0.57,0.56
407.76,1.49,0.91,1.49,0.91,-0.90,-0.79,-0.43,0.58,0.59,0.58
411.84,1.47,0.86,1.47,0.87,-0.86,-0.72,-0.35,0.61,0.61,0.61
415.96,1.45,0.82,1.44,0.82,-0.81,-0.64,-0.26,0.63,0.63,0.63
420.12,1.42,0.77,1.42,0.76,-0.76,-0.57,-0.18,0.66,0.66,0.65
424.32,1.38,0.70,1.38,0.71,-0.70,-0.49,-0.10,0.68,0.68,0.68
428.56,1.35,0.65,1.35,0.65,-0.64,-0.42,-0.02,0.70,0.70,0.70
432.85,1.31,0.59,1.31,0.58,-0.58,-0.34,0.05,0.72,0.72,0.72
437.18,1.27,0.52,1.27,0.52,-0.53,-0.27,0.13,0.74,0.74,0.75
441.55,1.23,0.45,1.23,0.46,-0.47,-0.19,0.20,0.76,0.76,0.78
445.96,1.19,0.39,1.20,0.40,-0.42,-0.12,0.27,0.77,0.78,0.80
450.42,1.18,0.37,1.17,0.36,-0.36,-0.05,0.34,0.81,0.81,0.81
454.93,1.16,0.31,1.16,0.32,-0.31,0.02,0.41,0.85,0.85,0.85
459.48,1.15,0.28,1.14,0.27,-0.26,0.09,0.47,0.89,0.88,0.87
464.07,1.12,0.22,1.12,0.22,-0.21,0.16,0.53,0.91,0.91,0.90
468.71,1.09,0.15,1.09,0.16,-0.15,0.24,0.59,0.94,0.94,0.94
473.40,1.06,0.10,1.05,0.09,-0.09,0.30,0.65,0.97,0.96,0.96
478.13,1.02,0.03,1.01,0.03,-0.03,0.37,0.71,0.99,0.99,0.99
482.91,0.97,-0.05,0.97,-0.05,0.04,0.44,0.76,1.01,1.01,1.02
487.74,0.93,-0.12,0.93,-0.12,0.12,0.51,0.81,1.04,1.04,1.05
492.62,0.89,-0.19,0.88,-0.19,0.19,0.58,0.85,1.08,1.07,1.08
497.55,0.84,-0.26,0.84,-0.27,0.27,0.65,0.90,1.11,1.11,1.10
502.52,0.78,-0.36,0.78,-0.35,0.35,0.71,0.94,1.13,1.14,1.14
507.55,0.73,-0.43,0.73,-0.43,0.44,0.78,0.98,1.17,1.16,1.16
512.62,0.67,-0.52,0.67,-0.52,0.53,0.84,1.01,1.19,1.19,1.19
517.75,0.61,-0.61,0.60,-0.61,0.62,0.91,1.05,1.23,1.22,1.22
522.93,0.54,-0.71,0.54,-0.71,0.71,0.97,1.08,1.25,1.25,1.25
528.16,0.47,-0.80,0.47,-0.80,0.80,1.03,1.11,1.27,1.27,1.27
533.44,0.41,-0.89,0.40,-0.90,0.89,1.09,1.13,1.30,1.30,1.30
538.77,0.34,-0.99,0.34,-0.99,0.98,1.16,1.16,1.32,1.32,1.33
