frequency,raw,error,smoothed,error_smoothed,equalization,parametric_eq,fixed_band_eq,equalized_raw,equalized_smoothed,target
20.00,-5.19,-10.17,-5.16,-10.14,10.14,9.37,4.23,4.95,4.98,4.98
20.20,-5.14,-10.11,-5.12,-10.10,10.10,9.46,4.34,4.96,4.98,4.97
20.40,-5.10,-10.07,-5.08,-10.05,10.05,9.54,4.46,4.95,4.97,4.97
20.61,-5.05,-10.02,-5.04,-10.01,10.01,9.62,4.57,4.96,4.97,4.97
20.81,-5.00,-9.95,-5.00,-9.97,9.97,9.69,4.70,4.97,4.96,4.95
21.02,-4.96,-9.91,-4.97,-9.93,9.93,9.76,4.82,4.97,4.96,4.95
21.23,-4.91,-9.86,-4.93,-9.89,9.89,9.82,4.95,4.98,4.96,4.95
21.44,-4.86,-9.82,-4.89,-9.85,9.85,9.87,5.08,4.99,4.96,4.96
21.66,-4.81,-9.76,-4.85,-9.81,9.81,9.92,5.21,5.00,4.96,4.95
21.87,-4.76,-9.72,-4.82,-9.77,9.77,9.97,5.35,5.01,4.96,4.96
22.09,-4.73,-9.68,-4.78,-9.73,9.73,10.01,5.50,5.00,4.95,4.95
22.31,-4.72,-9.68,-4.74,-9.70,9.70,10.04,5.64,4.98,4.95,4.96
22.54,-4.71,-9.66,-4.71,-9.67,9.67,10.06,5.79,4.96,4.96,4.95
22.76,-4.70,-9.65,-4.68,-9.63,9.63,10.08,5.95,4.93,4.96,4.95
22.99,-4.69,-9.64,-4.64,-9.60,9.60,10.09,6.10,4.91,4.96,4.95
23.22,-4.65,-9.60,-4.60,-9.57,9.57,10.10,6.27,4.92,4.96,4.95
23.45,-4.61,-9.57,-4.57,-9.54,9.54,10.10,6.43,4.93,4.97,4.96
23.69,-4.57,-9.53,-4.54,-9.51,9.51,10.09,6.60,4.94,4.97,4.96
23.92,-4.52,-9.48,-4.51,-9.48,9.48,10.08,6.77,4.96,4.97,4.96
24.16,-4.47,-9.44,-4.48,-9.45,9.45,10.06,6.95,4.98,4.97,4.97
24.40,-4.42,-9.40,-4.44,-9.42,9.42,10.04,7.13,5.00,4.97,4.98
24.65,-4.36,-9.34,-4.40,-9.38,9.38,10.01,7.31,5.02,4.98,4.98
24.89,-4.30,-9.28,-4.36,-9.34,9.34,9.98,7.50,5.04,4.98,4.98
25.14,-4.28,-9.25,-4.32,-9.30,9.30,9.94,7.69,5.02,4.98,4.97
25.39,-4.28,-9.26,-4.28,-9.27,9.27,9.90,7.88,4.99,4.98,4.98
25.65,-4.28,-9.26,-4.25,-9.24,9.24,9.85,8.07,4.96,4.98,4.98
25.91,-4.28,-9.25,-4.22,-9.21,9.21,9.80,8.27,4.93,4.98,4.97
26.16,-4.24,-9.22,-4.20,-9.18,9.18,9.75,8.46,4.94,4.98,4.98
26.43,-4.18,-9.16,-4.17,-9.15,9.15,9.69,8.66,4.97,4.98,4.98
26.69,-4.12,-9.10,-4.14,-9.11,9.11,9.63,8.85,4.99,4.98,4.98
26.96,-4.06,-9.02,-4.11,-9.08,9.08,9.57,9.05,5.02,4.97,4.96
27.23,-4.05,-9.01,-4.07,-9.05,9.05,9.50,9.24,5.00,4.97,4.96
27.50,-4.05,-9.01,-4.04,-9.01,9.01,9.44,9.42,4.96,4.97,4.96
27.77,-4.05,-9.02,-4.01,-8.97,8.97,9.37,9.61,4.93,4.97,4.97
28.05,-4.04,-9.00,-3.98,-8.94,8.94,9.30,9.78,4.90,4.96,4.96
28.33,-3.97,-8.92,-3.95,-8.91,8.91,9.23,9.95,4.94,4.96,4.95
28.62,-3.91,-8.85,-3.93,-8.88,8.88,9.16,10.11,4.97,4.95,4.94
28.90,-3.84,-8.79,-3.90,-8.85,8.85,9.09,10.26,5.01,4.94,4.95
29.19,-3.82,-8.76,-3.88,-8.82,8.82,9.02,10.40,5.00,4.94,4.94
29.48,-3.82,-8.74,-3.86,-8.79,8.79,8.95,10.52,4.97,4.93,4.92
29.78,-3.82,-8.74,-3.83,-8.76,8.76,8.88,10.63,4.94,4.92,4.92
30.08,-3.82,-8.74,-3.81,-8.72,8.72,8.81,10.72,4.90,4.91,4.92
30.38,-3.82,-8.72,-3.78,-8.68,8.68,8.74,10.80,4.86,4.90,4.90
30.68,-3.82,-8.71,-3.75,-8.65,8.65,8.67,10.85,4.83,4.89,4.89
30.99,-3.82,-8.70,-3.73,-8.62,8.62,8.61,10.89,4.80,4.88,4.88
31.30,-3.75,-8.62,-3.71,-8.59,8.59,8.54,10.91,4.84,4.88,4.87
31.61,-3.68,-8.54,-3.70,-8.57,8.57,8.48,10.90,4.89,4.87,4.86
31.93,-3.61,-8.45,-3.68,-8.54,8.54,8.42,10.88,4.93,4.86,4.84
32.24,-3.59,-8.44,-3.66,-8.51,8.51,8.36,10.84,4.92,4.85,4.85
32.57,-3.59,-8.42,-3.63,-8.48,8.48,8.30,10.79,4.89,4.85,4.83
32.89,-3.59,-8.42,-3.61,-8.45,8.45,8.24,10.71,4.86,4.84,4.83
33.22,-3.59,-8.42,-3.58,-8.41,8.41,8.19,10.63,4.82,4.84,4.83
33.55,-3.59,-8.41,-3.55,-8.38,8.38,8.14,10.52,4.79,4.83,4.82
33.89,-3.59,-8.42,-3.52,-8.35,8.35,8.09,10.41,4.76,4.83,4.83
34.23,-3.55,-8.36,-3.49,-8.32,8.32,8.04,10.29,4.77,4.82,4.81
34.57,-3.50,-8.32,-3.47,-8.29,8.29,7.99,10.15,4.79,4.82,4.82
34.92,-3.44,-8.25,-3.46,-8.27,8.27,7.95,10.02,4.83,4.81,4.81
35.27,-3.41,-8.23,-3.45,-8.26,8.26,7.91,9.87,4.85,4.81,4.82
35.62,-3.39,-8.18,-3.44,-8.24,8.24,7.87,9.72,4.85,4.80,4.79
35.97,-3.37,-8.16,-3.43,-8.22,8.22,7.84,9.57,4.85,4.79,4.79
36.33,-3.37,-8.15,-3.41,-8.19,8.19,7.80,9.41,4.82,4.78,4.78
36.70,-3.37,-8.13,-3.39,-8.15,8.15,7.77,9.26,4.78,4.76,4.76
37.06,-3.37,-8.11,-3.37,-8.12,8.12,7.74,9.10,4.75,4.74,4.74
37.43,-3.37,-8.10,-3.35,-8.08,8.08,7.72,8.95,4.71,4.72,4.73
37.81,-3.37,-8.07,-3.33,-8.03,8.03,7.69,8.80,4.66,4.70,4.70
38.19,-3.37,-8.05,-3.32,-7.99,7.99,7.67,8.65,4.62,4.68,4.68
38.57,-3.37,-8.03,-3.30,-7.95,7.95,7.65,8.50,4.58,4.65,4.66
38.95,-3.37,-8.00,-3.28,-7.90,7.90,7.63,8.35,4.54,4.62,4.63
39.34,-3.29,-7.87,-3.26,-7.86,7.86,7.61,8.21,4.57,4.59,4.58
39.74,-3.20,-7.75,-3.24,-7.81,7.81,7.60,8.08,4.61,4.57,4.55
40.14,-3.14,-7.66,-3.22,-7.76,7.76,7.59,7.95,4.62,4.54,4.52
40.54,-3.14,-7.64,-3.20,-7.71,7.71,7.57,7.82,4.57,4.51,4.50
40.94,-3.14,-7.60,-3.19,-7.66,7.66,7.56,7.69,4.53,4.48,4.46
41.35,-3.14,-7.58,-3.18,-7.63,7.63,7.55,7.58,4.49,4.45,4.44
41.76,-3.14,-7.55,-3.16,-7.58,7.58,7.54,7.46,4.44,4.42,4.41
42.18,-3.14,-7.53,-3.15,-7.54,7.54,7.54,7.35,4.40,4.39,4.39
42.60,-3.14,-7.50,-3.13,-7.49,7.49,7.53,7.25,4.35,4.36,4.36
43.03,-3.14,-7.47,-3.12,-7.45,7.45,7.52,7.15,4.31,4.33,4.33
43.46,-3.14,-7.44,-3.10,-7.41,7.41,7.51,7.06,4.27,4.31,4.30
43.90,-3.14,-7.42,-3.09,-7.37,7.37,7.50,6.97,4.23,4.28,4.28
44.33,-3.14,-7.38,-3.08,-7.33,7.33,7.49,6.89,4.19,4.25,4.24
44.78,-3.14,-7.35,-3.06,-7.28,7.28,7.48,6.81,4.14,4.22,4.21
45.23,-3.09,-7.29,-3.04,-7.23,7.23,7.46,6.74,4.14,4.19,4.20
45.68,-2.98,-7.13,-3.02,-7.17,7.17,7.45,6.67,4.19,4.15,4.15
46.13,-2.91,-7.02,-2.99,-7.11,7.11,7.43,6.61,4.20,4.12,4.11
46.60,-2.91,-6.99,-2.97,-7.05,7.05,7.41,6.55,4.15,4.08,4.08
47.06,-2.91,-6.96,-2.95,-7.00,7.00,7.38,6.49,4.09,4.05,4.05
47.53,-2.91,-6.93,-2.93,-6.94,6.94,7.35,6.44,4.03,4.01,4.02
48.01,-2.91,-6.87,-2.92,-6.89,6.89,7.32,6.40,3.98,3.97,3.96
48.49,-2.91,-6.83,-2.91,-6.83,6.83,7.29,6.36,3.92,3.93,3.92
48.97,-2.91,-6.79,-2.90,-6.78,6.78,7.25,6.32,3.87,3.89,3.88
49.46,-2.91,-6.75,-2.89,-6.74,6.74,7.21,6.29,3.83,3.85,3.84
49.96,-2.91,-6.69,-2.90,-6.70,6.70,7.16,6.26,3.80,3.80,3.78
50.46,-2.91,-6.65,-2.91,-6.67,6.67,7.11,6.23,3.76,3.76,3.74
50.96,-2.91,-6.62,-2.92,-6.64,6.64,7.05,6.21,3.73,3.71,3.71
51.47,-2.91,-6.58,-2.92,-6.59,6.59,6.99,6.18,3.68,3.67,3.67
51.99,-2.91,-6.53,-2.92,-6.54,6.54,6.92,6.17,3.63,3.62,3.62
52.51,-2.91,-6.49,-2.90,-6.48,6.48,6.85,6.15,3.57,3.58,3.58
53.03,-2.91,-6.46,-2.89,-6.42,6.42,6.78,6.13,3.51,3.53,3.55
53.56,-2.91,-6.39,-2.87,-6.35,6.35,6.70,6.12,3.44,3.48,3.48
54.10,-2.91,-6.34,-2.85,-6.29,6.29,6.62,6.11,3.38,3.44,3.43
54.64,-2.91,-6.30,-2.83,-6.22,6.22,6.53,6.09,3.31,3.39,3.39
55.18,-2.87,-6.20,-2.81,-6.16,6.16,6.44,6.08,3.29,3.35,3.33
55.74,-2.74,-6.03,-2.79,-6.09,6.09,6.35,6.07,3.35,3.31,3.28
56.29,-2.68,-5.92,-2.76,-6.02,6.02,6.25,6.05,3.34,3.26,3.24
56.86,-2.68,-5.89,-2.74,-5.96,5.96,6.15,6.03,3.28,3.22,3.21
57.42,-2.68,-5.83,-2.72,-5.89,5.89,6.05,6.02,3.21,3.17,3.15
58.00,-2.68,-5.79,-2.70,-5.82,5.82,5.95,6.00,3.14,3.12,3.11
58.58,-2.68,-5.76,-2.69,-5.76,5.76,5.84,5.97,3.08,3.07,3.08
59.16,-2.68,-5.73,-2.68,-5.70,5.70,5.74,5.95,3.02,3.02,3.05
59.76,-2.68,-5.68,-2.67,-5.64,5.64,5.63,5.92,2.96,2.98,3.00
60.35,-2.68,-5.61,-2.66,-5.59,5.59,5.52,5.88,2.91,2.92,2.93
60.96,-2.68,-5.56,-2.66,-5.53,5.53,5.41,5.84,2.85,2.87,2.88
61.57,-2.68,-5.49,-2.67,-5.49,5.49,5.30,5.80,2.81,2.82,2.81
62.18,-2.68,-5.42,-2.68,-5.44,5.44,5.19,5.75,2.76,2.76,2.74
62.80,-2.68,-5.37,-2.68,-5.38,5.38,5.08,5.70,2.71,2.71,2.69
63.43,-2.68,-5.31,-2.68,-5.33,5.33,4.97,5.65,2.65,2.65,2.63
64.07,-2.68,-5.26,-2.68,-5.27,5.27,4.86,5.59,2.60,2.59,2.58
64.71,-2.68,-5.21,-2.69,-5.22,5.22,4.75,5.52,2.54,2.53,2.53
65.35,-2.68,-5.14,-2.70,-5.17,5.17,4.64,5.45,2.49,2.47,2.46
66.01,-2.68,-5.08,-2.70,-5.10,5.10,4.53,5.38,2.42,2.41,2.40
66.67,-2.68,-5.03,-2.69,-5.04,5.04,4.43,5.30,2.36,2.35,2.35
67.33,-2.68,-4.96,-2.68,-4.97,4.97,4.32,5.22,2.29,2.29,2.28
68.01,-2.68,-4.91,-2.67,-4.89,4.89,4.22,5.13,2.21,2.23,2.23
68.69,-2.68,-4.84,-2.65,-4.81,4.81,4.12,5.04,2.13,2.16,2.16
69.37,-2.68,-4.79,-2.63,-4.73,4.73,4.02,4.95,2.05,2.10,2.11
70.07,-2.68,-4.72,-2.61,-4.65,4.65,3.92,4.86,1.97,2.04,2.04
70.77,-2.68,-4.66,-2.59,-4.56,4.56,3.82,4.76,1.88,1.97,1.98
71.48,-2.57,-4.47,-2.56,-4.47,4.47,3.72,4.67,1.90,1.91,1.90
72.19,-2.45,-4.29,-2.54,-4.39,4.39,3.63,4.57,1.94,1.84,1.84
72.91,-2.45,-4.23,-2.52,-4.30,4.30,3.54,4.47,1.85,1.78,1.78
73.64,-2.45,-4.15,-2.50,-4.22,4.22,3.45,4.37,1.77,1.72,1.70
74.38,-2.45,-4.09,-2.48,-4.14,4.14,3.36,4.27,1.69,1.66,1.64
75.12,-2.45,-4.03,-2.46,-4.07,4.07,3.27,4.17,1.62,1.60,1.58
75.87,-2.45,-4.00,-2.45,-4.00,4.00,3.18,4.07,1.55,1.55,1.55
76.63,-2.45,-3.93,-2.44,-3.93,3.93,3.10,3.97,1.48,1.49,1.48
77.40,-2.45,-3.88,-2.43,-3.87,3.87,3.02,3.87,1.42,1.44,1.43
78.17,-2.45,-3.83,-2.43,-3.82,3.82,2.93,3.77,1.37,1.39,1.38
78.95,-2.45,-3.79,-2.43,-3.77,3.77,2.85,3.68,1.32,1.34,1.34
79.74,-2.45,-3.73,-2.44,-3.73,3.73,2.78,3.58,1.28,1.29,1.28
80.54,-2.45,-3.68,-2.45,-3.68,3.68,2.70,3.49,1.23,1.23,1.23
81.35,-2.45,-3.63,-2.45,-3.63,3.63,2.63,3.40,1.18,1.18,1.18
82.16,-2.45,-3.59,-2.45,-3.58,3.58,2.55,3.30,1.13,1.13,1.14
82.98,-2.45,-3.53,-2.45,-3.52,3.52,2.48,3.22,1.07,1.07,1.08
83.81,-2.45,-3.47,-2.45,-3.47,3.47,2.41,3.13,1.02,1.02,1.02
84.65,-2.45,-3.41,-2.45,-3.41,3.41,2.34,3.04,0.96,0.96,0.96
85.50,-2.45,-3.34,-2.45,-3.35,3.35,2.28,2.96,0.90,0.90,0.89
86.35,-2.45,-3.28,-2.45,-3.29,3.29,2.21,2.88,0.84,0.84,0.83
87.22,-2.45,-3.22,-2.45,-3.22,3.22,2.15,2.80,0.77,0.77,0.77
88.09,-2.45,-3.15,-2.45,-3.16,3.16,2.08,2.72,0.71,0.71,0.70
88.97,-2.45,-3.09,-2.45,-3.10,3.10,2.02,2.65,0.65,0.65,0.64
89.86,-2.45,-3.02,-2.45,-3.03,3.03,1.96,2.57,0.58,0.58,0.57
90.76,-2.45,-2.95,-2.45,-2.96,2.96,1.90,2.50,0.51,0.51,0.50
91.66,-2.45,-2.89,-2.45,-2.89,2.89,1.84,2.43,0.44,0.44,0.44
92.58,-2.45,-2.83,-2.45,-2.82,2.82,1.78,2.37,0.38,0.38,0.38
93.51,-2.45,-2.76,-2.45,-2.75,2.75,1.73,2.30,0.31,0.31,0.31
94.44,-2.45,-2.70,-2.45,-2.68,2.68,1.67,2.24,0.24,0.24,0.25
95.39,-2.45,-2.62,-2.45,-2.62,2.62,1.62,2.17,0.17,0.17,0.17
96.34,-2.45,-2.54,-2.45,-2.55,2.55,1.57,2.11,0.10,0.10,0.09
97.30,-2.45,-2.48,-2.45,-2.48,2.48,1.51,2.05,0.03,0.03,0.03
98.28,-2.45,-2.39,-2.45,-2.41,2.41,1.46,1.99,-0.04,-0.04,-0.06
99.26,-2.45,-2.32,-2.45,-2.34,2.34,1.41,1.94,-0.11,-0.11,-0.13
100.25,-2.45,-2.26,-2.45,-2.27,2.27,1.36,1.88,-0.18,-0.18,-0.19
101.25,-2.45,-2.20,-2.45,-2.21,2.21,1.31,1.83,-0.24,-0.24,-0.25
102.27,-2.45,-2.13,-2.45,-2.14,2.14,1.27,1.78,-0.31,-0.31,-0.32
103.29,-2.45,-2.07,-2.45,-2.08,2.08,1.22,1.73,-0.37,-0.37,-0.38
104.32,-2.45,-2.02,-2.45,-2.02,2.02,1.17,1.68,-0.43,-0.43,-0.43
105.37,-2.45,-1.96,-2.45,-1.96,1.96,1.13,1.63,-0.49,-0.49,-0.49
106.42,-2.45,-1.90,-2.45,-1.90,1.90,1.08,1.58,-0.55,-0.55,-0.55
107.48,-2.45,-1.83,-2.45,-1.85,1.85,1.04,1.53,-0.60,-0.60,-0.62
108.56,-2.45,-1.79,-2.45,-1.79,1.79,1.00,1.49,-0.66,-0.66,-0.66
109.64,-2.45,-1.73,-2.45,-1.73,1.73,0.95,1.44,-0.72,-0.72,-0.72
110.74,-2.45,-1.67,-2.45,-1.67,1.67,0.91,1.40,-0.78,-0.78,-0.78
111.85,-2.45,-1.61,-2.45,-1.61,1.61,0.87,1.35,-0.84,-0.84,-0.84
112.97,-2.45,-1.56,-2.45,-1.55,1.55,0.83,1.31,-0.90,-0.90,-0.89
114.10,-2.45,-1.50,-2.45,-1.49,1.49,0.79,1.27,-0.96,-0.96,-0.95
115.24,-2.45,-1.43,-2.45,-1.43,1.43,0.74,1.22,-1.02,-1.02,-1.02
116.39,-2.45,-1.36,-2.45,-1.37,1.37,0.70,1.18,-1.08,-1.08,-1.09
117.55,-2.45,-1.30,-2.45,-1.31,1.31,0.67,1.14,-1.14,-1.15,-1.15
118.73,-2.45,-1.23,-2.46,-1.25,1.25,0.63,1.10,-1.20,-1.21,-1.22
119.92,-2.45,-1.16,-2.47,-1.19,1.19,0.59,1.05,-1.26,-1.27,-1.29
121.12,-2.45,-1.11,-2.47,-1.13,1.13,0.55,1.01,-1.32,-1.34,-1.34
122.33,-2.45,-1.03,-2.46,-1.05,1.05,0.51,0.97,-1.40,-1.41,-1.42
123.55,-2.45,-0.98,-2.45,-0.98,0.98,0.47,0.93,-1.47,-1.48,-1.47
124.79,-2.45,-0.91,-2.44,-0.90,0.90,0.44,0.88,-1.55,-1.54,-1.54
126.03,-2.45,-0.84,-2.43,-0.82,0.82,0.40,0.84,-1.63,-1.61,-1.61
127.29,-2.45,-0.77,-2.41,-0.73,0.73,0.36,0.80,-1.72,-1.68,-1.68
128.57,-2.45,-0.71,-2.39,-0.65,0.65,0.32,0.75,-1.80,-1.74,-1.74
129.85,-2.45,-0.63,-2.37,-0.56,0.56,0.29,0.71,-1.89,-1.81,-1.82
131.15,-2.41,-0.53,-2.35,-0.48,0.48,0.25,0.67,-1.93,-1.87,-1.88
132.46,-2.28,-0.33,-2.33,-0.39,0.39,0.22,0.62,-1.89,-1.94,-1.95
133.79,-2.23,-0.22,-2.31,-0.31,0.31,0.18,0.58,-1.92,-2.00,-2.01
135.12,-2.23,-0.15,-2.29,-0.23,0.23,0.14,0.53,-2.00,-2.06,-2.08
136.48,-2.23,-0.11,-2.27,-0.15,0.15,0.11,0.48,-2.08,-2.12,-2.12
137.84,-2.23,-0.05,-2.25,-0.07,0.07,0.07,0.44,-2.16,-2.18,-2.18
139.22,-2.23,0.02,-2.24,0.00,-0.00,0.04,0.39,-2.23,-2.24,-2.25
140.61,-2.23,0.07,-2.22,0.07,-0.07,-0.00,0.34,-2.30,-2.29,-2.30
142.02,-2.23,0.12,-2.22,0.13,-0.13,-0.04,0.30,-2.36,-2.35,-2.35
143.44,-2.23,0.18,-2.21,0.19,-0.19,-0.07,0.25,-2.42,-2.40,-2.41
144.87,-2.23,0.22,-2.21,0.24,-0.24,-0.11,0.20,-2.47,-2.45,-2.45
146.32,-2.23,0.27,-2.22,0.28,-0.28,-0.14,0.15,-2.51,-2.50,-2.50
147.78,-2.23,0.33,-2.23,0.32,-0.32,-0.18,0.10,-2.55,-2.55,-2.56
149.26,-2.23,0.37,-2.23,0.37,-0.37,-0.21,0.05,-2.60,-2.60,-2.60
150.75,-2.23,0.43,-2.23,0.42,-0.42,-0.25,-0.00,-2.65,-2.65,-2.66
152.26,-2.23,0.46,-2.23,0.47,-0.47,-0.29,-0.05,-2.70,-2.70,-2.69
153.78,-2.23,0.52,-2.23,0.52,-0.52,-0.32,-0.10,-2.74,-2.74,-2.75
155.32,-2.23,0.56,-2.23,0.56,-0.56,-0.36,-0.16,-2.79,-2.79,-2.79
156.88,-2.23,0.61,-2.23,0.61,-0.61,-0.39,-0.21,-2.84,-2.84,-2.84
158.44,-2.23,0.66,-2.23,0.66,-0.66,-0.43,-0.26,-2.89,-2.89,-2.89
160.03,-2.23,0.71,-2.23,0.71,-0.71,-0.47,-0.32,-2.94,-2.94,-2.94
161.63,-2.23,0.76,-2.23,0.76,-0.76,-0.50,-0.37,-2.99,-2.99,-2.99
163.24,-2.23,0.82,-2.23,0.81,-0.81,-0.54,-0.42,-3.04,-3.04,-3.05
164.88,-2.23,0.86,-2.23,0.85,-0.85,-0.58,-0.48,-3.08,-3.08,-3.09
166.53,-2.23,0.92,-2.23,0.90,-0.90,-0.61,-0.54,-3.13,-3.13,-3.15
168.19,-2.23,0.95,-2.23,0.95,-0.95,-0.65,-0.59,-3.18,-3.18,-3.18
169.87,-2.23,1.00,-2.23,1.01,-1.01,-0.69,-0.65,-3.24,-3.24,-3.23
171.57,-2.23,1.06,-2.23,1.06,-1.06,-0.73,-0.71,-3.29,-3.29,-3.29
173.29,-2.23,1.11,-2.23,1.11,-1.11,-0.77,-0.77,-3.34,-3.34,-3.34
175.02,-2.23,1.16,-2.23,1.16,-1.16,-0.80,-0.83,-3.39,-3.39,-3.39
176.77,-2.23,1.21,-2.23,1.21,-1.21,-0.84,-0.89,-3.44,-3.44,-3.44
178.54,-2.23,1.26,-2.23,1.26,-1.26,-0.88,-0.95,-3.49,-3.49,-3.49
180.32,-2.23,1.32,-2.23,1.31,-1.31,-0.92,-1.02,-3.54,-3.54,-3.55
182.13,-2.23,1.37,-2.23,1.36,-1.36,-0.96,-1.08,-3.59,-3.59,-3.60
183.95,-2.23,1.42,-2.23,1.42,-1.42,-1.00,-1.14,-3.65,-3.65,-3.65
185.79,-2.23,1.48,-2.23,1.47,-1.47,-1.04,-1.21,-3.70,-3.70,-3.71
187.65,-2.23,1.52,-2.23,1.52,-1.52,-1.08,-1.27,-3.75,-3.75,-3.75
189.52,-2.23,1.57,-2.23,1.57,-1.57,-1.12,-1.34,-3.80,-3.80,-3.80
191.42,-2.23,1.61,-2.23,1.61,-1.61,-1.16,-1.41,-3.84,-3.84,-3.84
193.33,-2.23,1.66,-2.23,1.66,-1.66,-1.20,-1.47,-3.89,-3.89,-3.89
195.27,-2.23,1.71,-2.23,1.70,-1.70,-1.24,-1.54,-3.93,-3.93,-3.94
197.22,-2.23,1.76,-2.23,1.74,-1.74,-1.29,-1.61,-3.97,-3.97,-3.99
199.19,-2.23,1.79,-2.23,1.79,-1.79,-1.33,-1.68,-4.01,-4.01,-4.02
201.18,-2.23,1.84,-2.23,1.82,-1.82,-1.37,-1.75,-4.05,-4.05,-4.07
203.19,-2.23,1.87,-2.23,1.86,-1.86,-1.41,-1.82,-4.09,-4.09,-4.10
205.23,-2.23,1.90,-2.23,1.90,-1.90,-1.45,-1.89,-4.13,-4.13,-4.13
207.28,-2.23,1.93,-2.23,1.94,-1.94,-1.50,-1.95,-4.17,-4.17,-4.16
209.35,-2.23,1.97,-2.23,1.97,-1.97,-1.54,-2.02,-4.20,-4.20,-4.20
211.44,-2.23,2.01,-2.23,2.01,-2.01,-1.58,-2.09,-4.24,-4.24,-4.24
213.56,-2.23,2.04,-2.23,2.04,-2.04,-1.62,-2.16,-4.27,-4.27,-4.27
215.69,-2.23,2.07,-2.23,2.07,-2.07,-1.67,-2.22,-4.30,-4.30,-4.30
217.85,-2.23,2.10,-2.23,2.10,-2.10,-1.71,-2.28,-4.33,-4.33,-4.33
220.03,-2.23,2.14,-2.23,2.13,-2.13,-1.75,-2.35,-4.36,-4.36,-4.37
222.23,-2.23,2.17,-2.23,2.16,-2.16,-1.80,-2.41,-4.39,-4.39,-4.40
224.45,-2.23,2.20,-2.23,2.20,-2.20,-1.84,-2.46,-4.42,-4.42,-4.43
226.70,-2.23,2.23,-2.23,2.22,-2.22,-1.88,-2.52,-4.45,-4.45,-4.46
228.96,-2.23,2.26,-2.23,2.25,-2.25,-1.93,-2.57,-4.48,-4.48,-4.49
231.25,-2.23,2.28,-2.23,2.28,-2.28,-1.97,-2.62,-4.51,-4.51,-4.51
233.57,-2.23,2.31,-2.23,2.30,-2.30,-2.01,-2.66,-4.53,-4.53,-4.54
235.90,-2.23,2.33,-2.23,2.33,-2.33,-2.05,-2.71,-4.56,-4.56,-4.56
238.26,-2.23,2.37,-2.23,2.35,-2.35,-2.09,-2.74,-4.58,-4.58,-4.60
240.64,-2.23,2.37,-2.23,2.37,-2.37,-2.13,-2.78,-4.60,-4.60,-4.60
243.05,-2.23,2.39,-2.23,2.39,-2.39,-2.17,-2.81,-4.62,-4.62,-4.62
245.48,-2.23,2.42,-2.23,2.41,-2.41,-2.21,-2.83,-4.64,-4.64,-4.65
247.93,-2.23,2.44,-2.23,2.43,-2.43,-2.25,-2.85,-4.66,-4.66,-4.67
250.41,-2.23,2.44,-2.23,2.45,-2.45,-2.29,-2.87,-4.68,-4.68,-4.67
252.92,-2.23,2.46,-2.23,2.46,-2.46,-2.33,-2.88,-4.69,-4.69,-4.69
255.45,-2.23,2.48,-2.23,2.48,-2.48,-2.37,-2.89,-4.71,-4.71,-4.71
258.00,-2.23,2.50,-2.23,2.49,-2.49,-2.40,-2.89,-4.72,-4.72,-4.73
260.58,-2.23,2.51,-2.23,2.50,-2.50,-2.44,-2.89,-4.73,-4.73,-4.74
263.19,-2.23,2.52,-2.23,2.51,-2.51,-2.47,-2.88,-4.74,-4.74,-4.75
265.82,-2.23,2.53,-2.23,2.52,-2.52,-2.51,-2.87,-4.75,-4.75,-4.76
268.48,-2.23,2.53,-2.23,2.53,-2.53,-2.54,-2.86,-4.76,-4.76,-4.76
271.16,-2.23,2.53,-2.23,2.54,-2.54,-2.57,-2.84,-4.77,-4.77,-4.76
273.87,-2.23,2.54,-2.23,2.54,-2.54,-2.60,-2.82,-4.77,-4.77,-4.77
276.61,-2.23,2.55,-2.23,2.55,-2.55,-2.62,-2.80,-4.78,-4.78,-4.78
279.38,-2.23,2.57,-2.23,2.55,-2.55,-2.65,-2.77,-4.78,-4.78,-4.80
282.17,-2.23,2.57,-2.23,2.56,-2.56,-2.68,-2.75,-4.79,-4.79,-4.80
284.99,-2.23,2.56,-2.23,2.56,-2.56,-2.70,-2.72,-4.79,-4.79,-4.79
287.84,-2.23,2.56,-2.23,2.56,-2.56,-2.72,-2.68,-4.79,-4.79,-4.79
290.72,-2.23,2.57,-2.23,2.56,-2.56,-2.74,-2.65,-4.79,-4.79,-4.80
293.63,-2.23,2.56,-2.23,2.56,-2.56,-2.76,-2.62,-4.79,-4.79,-4.79
296.57,-2.23,2.56,-2.23,2.56,-2.56,-2.77,-2.59,-4.79,-4.79,-4.79
299.53,-2.23,2.57,-2.23,2.56,-2.56,-2.79,-2.55,-4.79,-4.79,-4.80
302.53,-2.23,2.55,-2.23,2.56,-2.56,-2.80,-2.52,-4.79,-4.79,-4.78
305.55,-2.23,2.56,-2.23,2.56,-2.56,-2.81,-2.48,-4.79,-4.79,-4.79
308.61,-2.23,2.55,-2.23,2.56,-2.56,-2.82,-2.45,-4.78,-4.78,-4.78
311.69,-2.23,2.56,-2.23,2.55,-2.55,-2.82,-2.41,-4.78,-4.78,-4.79
314.81,-2.23,2.55,-2.23,2.55,-2.55,-2.83,-2.38,-4.78,-4.78,-4.78
317.96,-2.23,2.56,-2.23,2.55,-2.55,-2.83,-2.35,-4.78,-4.78,-4.79
321.14,-2.23,2.55,-2.23,2.55,-2.55,-2.83,-2.32,-4.78,-4.78,-4.78
324.35,-2.23,2.56,-2.23,2.54,-2.54,-2.83,-2.29,-4.77,-4.77,-4.79
327.59,-2.23,2.53,-2.23,2.54,-2.54,-2.83,-2.26,-4.77,-4.77,-4.76
330.87,-2.23,2.54,-2.23,2.53,-2.53,-2.82,-2.23,-4.76,-4.76,-4.77
334.18,-2.23,2.54,-2.23,2.53,-2.53,-2.81,-2.20,-4.76,-4.76,-4.77
337.52,-2.23,2.53,-2.23,2.53,-2.53,-2.81,-2.18,-4.75,-4.75,-4.76
340.90,-2.23,2.52,-2.22,2.53,-2.53,-2.80,-2.15,-4.76,-4.75,-4.75
344.30,-2.23,2.51,-2.21,2.53,-2.53,-2.78,-2.13,-4.76,-4.74,-4.74
347.75,-2.23,2.50,-2.22,2.51,-2.51,-2.77,-2.11,-4.74,-4.73,-4.73
351.23,-2.23,2.51,-2.23,2.49,-2.49,-2.76,-2.09,-4.72,-4.72,-4.74
354.74,-2.23,2.48,-2.23,2.48,-2.48,-2.74,-2.08,-4.71,-4.72,-4.71
358.28,-2.23,2.48,-2.24,2.47,-2.47,-2.72,-2.06,-4.70,-4.71,-4.71
361.87,-2.23,2.48,-2.24,2.46,-2.46,-2.70,-2.05,-4.69,-4.70,-4.71
365.49,-2.23,2.47,-2.25,2.44,-2.44,-2.68,-2.04,-4.67,-4.70,-4.70
369.14,-2.23,2.46,-2.27,2.42,-2.42,-2.66,-2.03,-4.65,-4.69,-4.69
372.83,-2.23,2.45,-2.29,2.39,-2.39,-2.64,-2.02,-4.62,-4.69,-4.68
376.56,-2.28,2.41,-2.31,2.37,-2.37,-2.61,-2.01,-4.65,-4.68,-4.69
380.33,-2.42,2.26,-2.33,2.35,-2.35,-2.59,-2.00,-4.77,-4.68,-4.68
384.13,-2.45,2.22,-2.34,2.33,-2.33,-2.56,-2.00,-4.78,-4.67,-4.67
387.97,-2.30,2.37,-2.35,2.32,-2.32,-2.54,-2.00,-4.62,-4.67,-4.67
391.85,-2.24,2.43,-2.36,2.31,-2.31,-2.51,-1.99,-4.55,-4.67,-4.67
395.77,-2.39,2.29,-2.36,2.30,-2.30,-2.48,-1.99,-4.69,-4.66,-4.68
399.73,-2.45,2.22,-2.36,2.30,-2.30,-2.46,-2.00,-4.75,-4.65,-4.67
403.72,-2.45,2.20,-2.35,2.30,-2.30,-2.43,-2.00,-4.75,-4.65,-4.65
407.76,-2.45,2.20,-2.34,2.30,-2.30,-2.40,-2.00,-4.75,-4.64,-4.65
411.84,-2.32,2.32,-2.33,2.31,-2.31,-2.37,-2.01,-4.63,-4.63,-4.64
415.96,-2.24,2.39,-2.31,2.31,-2.31,-2.34,-2.01,-4.55,-4.63,-4.63
420.12,-2.23,2.40,-2.29,2.33,-2.33,-2.31,-2.02,-4.55,-4.62,-4.63
424.32,-2.23,2.38,-2.27,2.33,-2.33,-2.28,-2.02,-4.56,-4.61,-4.61
428.56,-2.23,2.36,-2.26,2.33,-2.33,-2.25,-2.03,-4.56,-4.60,-4.59
432.85,-2.23,2.35,-2.26,2.33,-2.33,-2.22,-2.04,-4.56,-4.58,-4.58
437.18,-2.23,2.34,-2.24,2.33,-2.33,-2.19,-2.05,-4.56,-4.57,-4.57
441.55,-2.23,2.34,-2.22,2.33,-2.33,-2.16,-2.05,-4.56,-4.56,-4.57
445.96,-2.23,2.32,-2.21,2.33,-2.33,-2.14,-2.06,-4.56,-4.54,-4.55
450.42,-2.23,2.31,-2.21,2.32,-2.32,-2.11,-2.07,-4.55,-4.53,-4.54
454.93,-2.23,2.29,-2.22,2.30,-2.30,-2.08,-2.07,-4.53,-4.52,-4.52
459.48,-2.23,2.28,-2.22,2.28,-2.28,-2.05,-2.08,-4.51,-4.50,-4.51
464.07,-2.23,2.26,-2.23,2.26,-2.26,-2.02,-2.09,-4.49,-4.49,-4.49
468.71,-2.23,2.24,-2.23,2.25,-2.25,-1.99,-2.09,-4.47,-4.47,-4.47
