frequency,raw,error,smoothed,error_smoothed,equalization,parametric_eq,fixed_band_eq,equalized_raw,equalized_smoothed,target
20.00,-5.19,-11.87,-5.16,-11.83,11.83,10.81,4.96,6.64,6.67,6.68
20.20,-5.14,-11.81,-5.12,-11.79,11.79,10.90,5.09,6.65,6.67,6.67
20.40,-5.10,-11.76,-5.08,-11.74,11.74,10.98,5.22,6.64,6.66,6.67
20.61,-5.05,-11.71,-5.04,-11.70,11.70,11.06,5.36,6.65,6.66,6.66
20.81,-5.00,-11.64,-5.00,-11.66,11.66,11.13,5.50,6.66,6.65,6.64
21.02,-4.96,-11.60,-4.97,-11.62,11.62,11.20,5.64,6.66,6.65,6.64
21.23,-4.91,-11.55,-4.93,-11.58,11.58,11.26,5.79,6.67,6.65,6.64
21.44,-4.86,-11.51,-4.89,-11.54,11.54,11.31,5.95,6.68,6.65,6.65
21.66,-4.81,-11.45,-4.85,-11.50,11.50,11.36,6.10,6.69,6.64,6.64
21.87,-4.76,-11.41,-4.82,-11.46,11.46,11.41,6.26,6.70,6.64,6.65
22.09,-4.73,-11.37,-4.78,-11.42,11.42,11.44,6.43,6.69,6.64,6.64
22.31,-4.72,-11.37,-4.74,-11.38,11.38,11.47,6.60,6.66,6.64,6.65
22.54,-4.71,-11.35,-4.71,-11.35,11.35,11.50,6.78,6.64,6.64,6.64
22.76,-4.70,-11.34,-4.68,-11.32,11.32,11.52,6.96,6.62,6.64,6.64
22.99,-4.69,-11.33,-4.64,-11.29,11.29,11.53,7.14,6.60,6.64,6.64
23.22,-4.65,-11.29,-4.60,-11.25,11.25,11.53,7.33,6.60,6.65,6.64
23.45,-4.61,-11.26,-4.57,-11.22,11.22,11.53,7.53,6.61,6.65,6.65
23.69,-4.57,-11.22,-4.54,-11.19,11.19,11.52,7.73,6.62,6.65,6.65
23.92,-4.52,-11.17,-4.51,-11.16,11.16,11.51,7.93,6.64,6.65,6.65
24.16,-4.47,-11.13,-4.48,-11.13,11.13,11.49,8.14,6.66,6.66,6.66
24.40,-4.42,-11.08,-4.44,-11.10,11.10,11.46,8.36,6.68,6.66,6.66
24.65,-4.36,-11.02,-4.40,-11.06,11.06,11.43,8.58,6.70,6.66,6.66
24.89,-4.30,-10.96,-4.36,-11.02,11.02,11.40,8.80,6.72,6.66,6.66
25.14,-4.28,-10.94,-4.32,-10.98,10.98,11.36,9.03,6.70,6.66,6.66
25.39,-4.28,-10.95,-4.28,-10.95,10.95,11.32,9.27,6.67,6.66,6.67
25.65,-4.28,-10.95,-4.25,-10.91,10.91,11.27,9.50,6.64,6.66,6.67
25.91,-4.28,-10.93,-4.22,-10.89,10.89,11.22,9.74,6.61,6.66,6.65
26.16,-4.24,-10.90,-4.20,-10.86,10.86,11.16,9.99,6.62,6.66,6.66
26.43,-4.18,-10.84,-4.17,-10.83,10.83,11.10,10.24,6.64,6.66,6.66
26.69,-4.12,-10.78,-4.14,-10.79,10.79,11.04,10.48,6.67,6.66,6.66
26.96,-4.06,-10.71,-4.11,-10.76,10.76,10.98,10.73,6.70,6.65,6.65
27.23,-4.05,-10.69,-4.07,-10.72,10.72,10.91,10.98,6.67,6.65,6.64
27.50,-4.05,-10.69,-4.04,-10.69,10.69,10.84,11.23,6.64,6.65,6.64
27.77,-4.05,-10.70,-4.01,-10.65,10.65,10.78,11.47,6.60,6.64,6.65
28.05,-4.04,-10.67,-3.98,-10.62,10.62,10.71,11.71,6.58,6.64,6.64
28.33,-3.97,-10.60,-3.95,-10.58,10.58,10.64,11.94,6.61,6.63,6.63
28.62,-3.91,-10.53,-3.93,-10.55,10.55,10.56,12.17,6.64,6.63,6.62
28.90,-3.84,-10.47,-3.90,-10.52,10.52,10.49,12.38,6.68,6.62,6.63
29.19,-3.82,-10.43,-3.88,-10.49,10.49,10.42,12.58,6.67,6.61,6.61
29.48,-3.82,-10.42,-3.86,-10.46,10.46,10.35,12.76,6.64,6.60,6.60
29.78,-3.82,-10.42,-3.83,-10.43,10.43,10.28,12.92,6.61,6.59,6.60
30.08,-3.82,-10.41,-3.81,-10.39,10.39,10.21,13.06,6.57,6.58,6.59
30.38,-3.82,-10.39,-3.78,-10.35,10.35,10.14,13.18,6.53,6.57,6.57
30.68,-3.82,-10.39,-3.75,-10.32,10.32,10.07,13.27,6.50,6.56,6.57
30.99,-3.82,-10.37,-3.73,-10.28,10.28,10.00,13.33,6.46,6.55,6.55
31.30,-3.75,-10.29,-3.71,-10.26,10.26,9.93,13.37,6.51,6.54,6.54
31.61,-3.68,-10.21,-3.70,-10.23,10.23,9.87,13.38,6.55,6.53,6.53
31.93,-3.61,-10.12,-3.68,-10.21,10.21,9.81,13.36,6.60,6.52,6.51
32.24,-3.59,-10.10,-3.66,-10.18,10.18,9.74,13.31,6.59,6.52,6.52
32.57,-3.59,-10.09,-3.63,-10.14,10.14,9.68,13.24,6.55,6.51,6.50
32.89,-3.59,-10.09,-3.61,-10.11,10.11,9.63,13.15,6.52,6.50,6.50
33.22,-3.59,-10.08,-3.58,-10.07,10.07,9.57,13.03,6.48,6.50,6.49
33.55,-3.59,-10.08,-3.55,-10.04,10.04,9.52,12.90,6.45,6.49,6.49
33.89,-3.59,-10.08,-3.52,-10.01,10.01,9.46,12.75,6.42,6.49,6.49
34.23,-3.55,-10.02,-3.49,-9.98,9.98,9.41,12.58,6.43,6.48,6.47
34.57,-3.50,-9.98,-3.47,-9.95,9.95,9.37,12.41,6.45,6.48,6.48
34.92,-3.44,-9.91,-3.46,-9.93,9.93,9.32,12.23,6.49,6.47,6.47
35.27,-3.41,-9.89,-3.45,-9.91,9.91,9.28,12.04,6.50,6.46,6.48
35.62,-3.39,-9.84,-3.44,-9.89,9.89,9.24,11.85,6.50,6.45,6.45
35.97,-3.37,-9.81,-3.43,-9.87,9.87,9.20,11.65,6.50,6.44,6.44
36.33,-3.37,-9.80,-3.41,-9.84,9.84,9.17,11.46,6.47,6.43,6.43
36.70,-3.37,-9.78,-3.39,-9.80,9.80,9.14,11.26,6.43,6.41,6.41
37.06,-3.37,-9.76,-3.37,-9.76,9.76,9.11,11.07,6.39,6.39,6.39
37.43,-3.37,-9.74,-3.35,-9.72,9.72,9.08,10.88,6.35,6.37,6.37
37.81,-3.37,-9.71,-3.33,-9.67,9.67,9.05,10.69,6.30,6.34,6.34
38.19,-3.37,-9.69,-3.32,-9.63,9.63,9.03,10.51,6.26,6.31,6.32
38.57,-3.37,-9.66,-3.30,-9.58,9.58,9.01,10.33,6.22,6.29,6.30
38.95,-3.37,-9.63,-3.28,-9.54,9.54,8.99,10.15,6.17,6.26,6.27
39.34,-3.29,-9.50,-3.26,-9.49,9.49,8.98,9.99,6.20,6.23,6.22
39.74,-3.20,-9.39,-3.24,-9.43,9.43,8.96,9.82,6.23,6.19,6.19
40.14,-3.14,-9.30,-3.22,-9.38,9.38,8.95,9.67,6.24,6.16,6.16
40.54,-3.14,-9.26,-3.20,-9.33,9.33,8.94,9.52,6.19,6.13,6.13
40.94,-3.14,-9.22,-3.19,-9.29,9.29,8.94,9.37,6.15,6.10,6.08
41.35,-3.14,-9.20,-3.18,-9.24,9.24,8.93,9.24,6.10,6.07,6.06
41.76,-3.14,-9.17,-3.16,-9.20,9.20,8.92,9.10,6.06,6.04,6.03
42.18,-3.14,-9.15,-3.15,-9.15,9.15,8.92,8.98,6.01,6.00,6.01
42.60,-3.14,-9.11,-3.13,-9.10,9.10,8.92,8.86,5.96,5.97,5.97
43.03,-3.14,-9.08,-3.12,-9.06,9.06,8.91,8.75,5.92,5.94,5.94
43.46,-3.14,-9.05,-3.10,-9.01,9.01,8.91,8.65,5.87,5.91,5.91
43.90,-3.14,-9.02,-3.09,-8.97,8.97,8.91,8.55,5.83,5.88,5.88
44.33,-3.14,-8.99,-3.08,-8.93,8.93,8.91,8.45,5.79,5.85,5.85
44.78,-3.14,-8.95,-3.06,-8.88,8.88,8.91,8.37,5.74,5.82,5.81
45.23,-3.09,-8.89,-3.04,-8.82,8.82,8.90,8.29,5.73,5.78,5.80
45.68,-2.98,-8.73,-3.02,-8.76,8.76,8.90,8.21,5.78,5.74,5.75
46.13,-2.91,-8.61,-2.99,-8.70,8.70,8.89,8.14,5.79,5.71,5.70
46.60,-2.91,-8.57,-2.97,-8.64,8.64,8.89,8.08,5.73,5.67,5.66
47.06,-2.91,-8.54,-2.95,-8.58,8.58,8.88,8.03,5.67,5.62,5.63
47.53,-2.91,-8.50,-2.93,-8.52,8.52,8.87,7.97,5.61,5.58,5.60
48.01,-2.91,-8.45,-2.92,-8.46,8.46,8.85,7.93,5.55,5.54,5.54
48.49,-2.91,-8.40,-2.91,-8.40,8.40,8.84,7.88,5.49,5.50,5.50
48.97,-2.91,-8.35,-2.90,-8.35,8.35,8.82,7.85,5.44,5.45,5.44
49.46,-2.91,-8.31,-2.89,-8.30,8.30,8.79,7.82,5.39,5.40,5.40
49.96,-2.91,-8.25,-2.90,-8.26,8.26,8.76,7.79,5.35,5.36,5.34
50.46,-2.91,-8.20,-2.91,-8.22,8.22,8.73,7.76,5.31,5.31,5.30
50.96,-2.91,-8.17,-2.92,-8.18,8.18,8.69,7.74,5.27,5.26,5.26
51.47,-2.91,-8.13,-2.92,-8.13,8.13,8.65,7.72,5.22,5.21,5.22
51.99,-2.91,-8.07,-2.92,-8.07,8.07,8.61,7.71,5.16,5.16,5.16
52.51,-2.91,-8.02,-2.90,-8.01,8.01,8.56,7.70,5.10,5.10,5.11
53.03,-2.91,-7.98,-2.89,-7.94,7.94,8.50,7.68,5.03,5.05,5.08
53.56,-2.91,-7.92,-2.87,-7.87,7.87,8.44,7.67,4.96,5.00,5.01
54.10,-2.91,-7.86,-2.85,-7.80,7.80,8.38,7.67,4.89,4.95,4.95
54.64,-2.91,-7.81,-2.83,-7.73,7.73,8.31,7.66,4.82,4.90,4.90
55.18,-2.87,-7.70,-2.81,-7.66,7.66,8.23,7.65,4.79,4.85,4.83
55.74,-2.74,-7.52,-2.79,-7.59,7.59,8.15,7.64,4.84,4.80,4.78
56.29,-2.68,-7.41,-2.76,-7.51,7.51,8.07,7.63,4.83,4.75,4.73
56.86,-2.68,-7.37,-2.74,-7.44,7.44,7.98,7.61,4.76,4.70,4.69
57.42,-2.68,-7.31,-2.72,-7.36,7.36,7.89,7.60,4.68,4.64,4.63
58.00,-2.68,-7.26,-2.70,-7.29,7.29,7.80,7.58,4.61,4.59,4.58
58.58,-2.68,-7.22,-2.69,-7.22,7.22,7.70,7.56,4.54,4.53,4.54
59.16,-2.68,-7.19,-2.68,-7.15,7.15,7.60,7.53,4.47,4.48,4.51
59.76,-2.68,-7.13,-2.67,-7.09,7.09,7.50,7.50,4.41,4.42,4.45
60.35,-2.68,-7.05,-2.66,-7.02,7.02,7.39,7.46,4.35,4.36,4.37
60.96,-2.68,-6.99,-2.66,-6.97,6.97,7.29,7.42,4.29,4.30,4.31
61.57,-2.68,-6.92,-2.67,-6.91,6.91,7.18,7.37,4.23,4.24,4.24
62.18,-2.68,-6.84,-2.68,-6.85,6.85,7.07,7.32,4.17,4.18,4.16
62.80,-2.68,-6.78,-2.68,-6.79,6.79,6.96,7.26,4.11,4.11,4.10
63.43,-2.68,-6.71,-2.68,-6.73,6.73,6.85,7.19,4.05,4.05,4.03
64.07,-2.68,-6.65,-2.68,-6.66,6.66,6.75,7.12,3.99,3.98,3.97
64.71,-2.68,-6.59,-2.69,-6.61,6.61,6.64,7.04,3.93,3.91,3.91
65.35,-2.68,-6.52,-2.70,-6.54,6.54,6.53,6.96,3.86,3.84,3.84
66.01,-2.68,-6.45,-2.70,-6.47,6.47,6.42,6.87,3.79,3.77,3.77
66.67,-2.68,-6.39,-2.69,-6.39,6.39,6.31,6.77,3.71,3.70,3.71
67.33,-2.68,-6.31,-2.68,-6.31,6.31,6.21,6.67,3.63,3.63,3.63
68.01,-2.68,-6.25,-2.67,-6.23,6.23,6.10,6.57,3.55,3.56,3.57
68.69,-2.68,-6.17,-2.65,-6.14,6.14,6.00,6.46,3.46,3.49,3.49
69.37,-2.68,-6.11,-2.63,-6.05,6.05,5.90,6.35,3.37,3.42,3.43
70.07,-2.68,-6.03,-2.61,-5.95,5.95,5.80,6.23,3.28,3.35,3.35
70.77,-2.68,-5.96,-2.59,-5.86,5.86,5.70,6.11,3.18,3.27,3.28
71.48,-2.57,-5.77,-2.56,-5.76,5.76,5.61,5.99,3.19,3.20,3.20
72.19,-2.45,-5.57,-2.54,-5.67,5.67,5.52,5.87,3.22,3.12,3.12
72.91,-2.45,-5.50,-2.52,-5.57,5.57,5.43,5.75,3.12,3.05,3.05
73.64,-2.45,-5.41,-2.50,-5.48,5.48,5.34,5.63,3.03,2.98,2.96
74.38,-2.45,-5.35,-2.48,-5.39,5.39,5.25,5.51,2.94,2.91,2.90
75.12,-2.45,-5.28,-2.46,-5.31,5.31,5.17,5.38,2.86,2.84,2.83
75.87,-2.45,-5.23,-2.45,-5.23,5.23,5.09,5.26,2.78,2.78,2.78
76.63,-2.45,-5.15,-2.44,-5.15,5.15,5.01,5.14,2.70,2.71,2.71
77.40,-2.45,-5.09,-2.43,-5.08,5.08,4.94,5.02,2.63,2.65,2.64
78.17,-2.45,-5.03,-2.43,-5.01,5.01,4.87,4.90,2.56,2.58,2.58
78.95,-2.45,-4.97,-2.43,-4.95,4.95,4.80,4.78,2.51,2.52,2.52
79.74,-2.45,-4.91,-2.44,-4.90,4.90,4.73,4.67,2.45,2.46,2.46
80.54,-2.45,-4.85,-2.45,-4.84,4.84,4.66,4.56,2.40,2.40,2.40
81.35,-2.45,-4.78,-2.45,-4.78,4.78,4.60,4.44,2.33,2.33,2.33
82.16,-2.45,-4.73,-2.45,-4.72,4.72,4.53,4.33,2.27,2.27,2.28
82.98,-2.45,-4.66,-2.45,-4.65,4.65,4.47,4.23,2.20,2.20,2.21
83.81,-2.45,-4.59,-2.45,-4.58,4.58,4.42,4.12,2.13,2.13,2.14
84.65,-2.45,-4.52,-2.45,-4.51,4.51,4.36,4.02,2.06,2.06,2.07
85.50,-2.45,-4.43,-2.45,-4.44,4.44,4.30,3.92,1.99,1.99,1.98
86.35,-2.45,-4.37,-2.45,-4.37,4.37,4.25,3.83,1.92,1.92,1.92
87.22,-2.45,-4.29,-2.45,-4.29,4.29,4.19,3.73,1.84,1.84,1.84
88.09,-2.45,-4.21,-2.45,-4.22,4.22,4.14,3.64,1.77,1.77,1.76
88.97,-2.45,-4.14,-2.45,-4.14,4.14,4.08,3.55,1.69,1.69,1.69
89.86,-2.45,-4.06,-2.45,-4.06,4.06,4.03,3.47,1.61,1.61,1.61
90.76,-2.45,-3.98,-2.45,-3.98,3.98,3.97,3.38,1.53,1.53,1.53
91.66,-2.45,-3.90,-2.45,-3.90,3.90,3.92,3.30,1.45,1.45,1.45
92.58,-2.45,-3.83,-2.45,-3.82,3.82,3.86,3.22,1.37,1.37,1.38
93.51,-2.45,-3.75,-2.45,-3.74,3.74,3.80,3.14,1.29,1.29,1.30
94.44,-2.45,-3.67,-2.45,-3.66,3.66,3.74,3.07,1.21,1.21,1.22
95.39,-2.45,-3.58,-2.45,-3.57,3.57,3.68,3.00,1.13,1.13,1.13
96.34,-2.45,-3.49,-2.45,-3.49,3.49,3.61,2.93,1.04,1.04,1.04
97.30,-2.45,-3.41,-2.45,-3.41,3.41,3.55,2.86,0.96,0.96,0.97
98.28,-2.45,-3.32,-2.45,-3.33,3.33,3.48,2.80,0.88,0.88,0.87
99.26,-2.45,-3.24,-2.45,-3.25,3.25,3.41,2.73,0.80,0.80,0.79
100.25,-2.45,-3.16,-2.45,-3.17,3.17,3.34,2.67,0.72,0.72,0.71
101.25,-2.45,-3.09,-2.45,-3.09,3.09,3.26,2.61,0.64,0.64,0.64
102.27,-2.45,-3.01,-2.45,-3.02,3.02,3.18,2.55,0.57,0.57,0.56
103.29,-2.45,-2.94,-2.45,-2.94,2.94,3.10,2.50,0.49,0.49,0.49
104.32,-2.45,-2.87,-2.45,-2.87,2.87,3.02,2.44,0.42,0.42,0.42
105.37,-2.45,-2.80,-2.45,-2.80,2.80,2.94,2.39,0.35,0.35,0.35
106.42,-2.45,-2.73,-2.45,-2.73,2.73,2.85,2.33,0.28,0.28,0.28
107.48,-2.45,-2.65,-2.45,-2.66,2.66,2.76,2.28,0.21,0.21,0.20
108.56,-2.45,-2.59,-2.45,-2.59,2.59,2.67,2.23,0.14,0.14,0.14
109.64,-2.45,-2.51,-2.45,-2.51,2.51,2.58,2.18,0.07,0.07,0.07
110.74,-2.45,-2.45,-2.45,-2.44,2.44,2.49,2.13,-0.01,-0.01,0.00
111.85,-2.45,-2.37,-2.45,-2.37,2.37,2.40,2.08,-0.08,-0.08,-0.07
112.97,-2.45,-2.31,-2.45,-2.30,2.30,2.31,2.03,-0.15,-0.15,-0.14
114.10,-2.45,-2.24,-2.45,-2.22,2.22,2.21,1.99,-0.23,-0.23,-0.21
115.24,-2.45,-2.15,-2.45,-2.15,2.15,2.12,1.94,-0.30,-0.30,-0.30
116.39,-2.45,-2.07,-2.45,-2.07,2.07,2.03,1.89,-0.37,-0.37,-0.38
117.55,-2.45,-2.00,-2.45,-2.00,2.00,1.93,1.84,-0.45,-0.45,-0.45
118.73,-2.45,-1.91,-2.46,-1.93,1.93,1.84,1.79,-0.52,-0.53,-0.53
119.92,-2.45,-1.83,-2.47,-1.86,1.86,1.75,1.75,-0.59,-0.60,-0.62
121.12,-2.45,-1.77,-2.47,-1.78,1.78,1.66,1.70,-0.67,-0.68,-0.68
122.33,-2.45,-1.68,-2.46,-1.70,1.70,1.57,1.65,-0.75,-0.76,-0.77
123.55,-2.45,-1.61,-2.45,-1.61,1.61,1.48,1.60,-0.84,-0.84,-0.84
124.79,-2.45,-1.53,-2.44,-1.52,1.52,1.39,1.55,-0.93,-0.92,-0.92
126.03,-2.45,-1.46,-2.43,-1.43,1.43,1.31,1.50,-1.02,-1.00,-0.99
127.29,-2.45,-1.37,-2.41,-1.33,1.33,1.22,1.44,-1.12,-1.08,-1.08
128.57,-2.45,-1.29,-2.39,-1.23,1.23,1.14,1.39,-1.22,-1.16,-1.16
129.85,-2.45,-1.21,-2.37,-1.13,1.13,1.05,1.34,-1.31,-1.24,-1.24
131.15,-2.41,-1.09,-2.35,-1.04,1.04,0.97,1.28,-1.37,-1.32,-1.32
132.46,-2.28,-0.88,-2.33,-0.94,0.94,0.89,1.23,-1.34,-1.39,-1.40
133.79,-2.23,-0.76,-2.31,-0.84,0.84,0.81,1.17,-1.39,-1.47,-1.47
135.12,-2.23,-0.68,-2.29,-0.75,0.75,0.73,1.12,-1.48,-1.54,-1.55
136.48,-2.23,-0.62,-2.27,-0.65,0.65,0.66,1.06,-1.57,-1.61,-1.61
137.84,-2.23,-0.55,-2.25,-0.57,0.57,0.58,1.00,-1.66,-1.69,-1.68
139.22,-2.23,-0.47,-2.24,-0.48,0.48,0.50,0.94,-1.75,-1.75,-1.76
140.61,-2.23,-0.40,-2.22,-0.40,0.40,0.43,0.88,-1.83,-1.82,-1.83
142.02,-2.23,-0.34,-2.22,-0.33,0.33,0.36,0.82,-1.90,-1.89,-1.89
143.44,-2.23,-0.27,-2.21,-0.26,0.26,0.29,0.76,-1.97,-1.95,-1.96
144.87,-2.23,-0.22,-2.21,-0.20,0.20,0.22,0.70,-2.03,-2.01,-2.01
146.32,-2.23,-0.16,-2.22,-0.14,0.14,0.15,0.64,-2.09,-2.08,-2.07
147.78,-2.23,-0.09,-2.23,-0.09,0.09,0.08,0.58,-2.14,-2.14,-2.14
149.26,-2.23,-0.03,-2.23,-0.03,0.03,0.01,0.52,-2.20,-2.20,-2.20
150.75,-2.23,0.04,-2.23,0.03,-0.03,-0.05,0.45,-2.26,-2.26,-2.27
152.26,-2.23,0.09,-2.23,0.09,-0.09,-0.12,0.39,-2.32,-2.32,-2.31
153.78,-2.23,0.15,-2.23,0.15,-0.15,-0.18,0.32,-2.38,-2.38,-2.38
155.32,-2.23,0.20,-2.23,0.21,-0.21,-0.25,0.26,-2.44,-2.44,-2.43
156.88,-2.23,0.27,-2.23,0.27,-0.27,-0.31,0.19,-2.50,-2.50,-2.50
158.44,-2.23,0.33,-2.23,0.33,-0.33,-0.37,0.13,-2.56,-2.56,-2.56
160.03,-2.23,0.39,-2.23,0.39,-0.39,-0.43,0.06,-2.62,-2.62,-2.62
161.63,-2.23,0.45,-2.23,0.45,-0.45,-0.49,-0.00,-2.68,-2.68,-2.68
163.24,-2.23,0.52,-2.23,0.51,-0.51,-0.55,-0.07,-2.74,-2.74,-2.74
164.88,-2.23,0.57,-2.23,0.57,-0.57,-0.61,-0.14,-2.80,-2.80,-2.80
166.53,-2.23,0.64,-2.23,0.63,-0.63,-0.66,-0.21,-2.86,-2.86,-2.87
168.19,-2.23,0.68,-2.23,0.69,-0.69,-0.72,-0.28,-2.92,-2.92,-2.91
169.87,-2.23,0.74,-2.23,0.75,-0.75,-0.78,-0.35,-2.98,-2.98,-2.97
171.57,-2.23,0.80,-2.23,0.81,-0.81,-0.83,-0.42,-3.04,-3.04,-3.03
173.29,-2.23,0.86,-2.23,0.87,-0.87,-0.89,-0.49,-3.10,-3.10,-3.09
175.02,-2.23,0.92,-2.23,0.93,-0.93,-0.94,-0.56,-3.16,-3.16,-3.15
176.77,-2.23,0.99,-2.23,0.99,-0.99,-0.99,-0.63,-3.22,-3.22,-3.22
178.54,-2.23,1.05,-2.23,1.05,-1.05,-1.05,-0.70,-3.28,-3.28,-3.27
180.32,-2.23,1.11,-2.23,1.11,-1.11,-1.10,-0.78,-3.34,-3.34,-3.34
182.13,-2.23,1.17,-2.23,1.17,-1.17,-1.15,-0.85,-3.40,-3.40,-3.40
183.95,-2.23,1.23,-2.23,1.23,-1.23,-1.20,-0.92,-3.46,-3.46,-3.46
185.79,-2.23,1.30,-2.23,1.29,-1.29,-1.25,-1.00,-3.52,-3.52,-3.53
187.65,-2.23,1.35,-2.23,1.35,-1.35,-1.30,-1.07,-3.58,-3.58,-3.58
189.52,-2.23,1.41,-2.23,1.40,-1.40,-1.35,-1.15,-3.63,-3.63,-3.64
191.42,-2.23,1.46,-2.23,1.46,-1.46,-1.40,-1.23,-3.69,-3.69,-3.68
193.33,-2.23,1.51,-2.23,1.51,-1.51,-1.44,-1.30,-3.74,-3.74,-3.74
195.27,-2.23,1.57,-2.23,1.57,-1.57,-1.49,-1.38,-3.79,-3.79,-3.80
197.22,-2.23,1.62,-2.23,1.61,-1.61,-1.54,-1.46,-3.84,-3.84,-3.85
199.19,-2.23,1.67,-2.23,1.66,-1.66,-1.58,-1.54,-3.89,-3.89,-3.90
201.18,-2.23,1.72,-2.23,1.71,-1.71,-1.63,-1.61,-3.94,-3.94,-3.95
203.19,-2.23,1.76,-2.23,1.75,-1.75,-1.67,-1.69,-3.98,-3.98,-3.99
205.23,-2.23,1.79,-2.23,1.80,-1.80,-1.71,-1.77,-4.03,-4.03,-4.02
207.28,-2.23,1.83,-2.23,1.84,-1.84,-1.76,-1.85,-4.07,-4.07,-4.06
209.35,-2.23,1.88,-2.23,1.88,-1.88,-1.80,-1.92,-4.11,-4.11,-4.11
211.44,-2.23,1.92,-2.23,1.92,-1.92,-1.84,-2.00,-4.15,-4.15,-4.15
213.56,-2.23,1.96,-2.23,1.96,-1.96,-1.88,-2.07,-4.19,-4.19,-4.18
215.69,-2.23,1.99,-2.23,2.00,-2.00,-1.92,-2.14,-4.23,-4.23,-4.22
217.85,-2.23,2.03,-2.23,2.04,-2.04,-1.96,-2.21,-4.27,-4.27,-4.26
220.03,-2.23,2.07,-2.23,2.07,-2.07,-2.00,-2.28,-4.30,-4.30,-4.30
222.23,-2.23,2.12,-2.23,2.11,-2.11,-2.03,-2.35,-4.34,-4.34,-4.34
224.45,-2.23,2.15,-2.23,2.14,-2.14,-2.07,-2.41,-4.37,-4.37,-4.38
226.70,-2.23,2.18,-2.23,2.18,-2.18,-2.10,-2.48,-4.41,-4.41,-4.41
228.96,-2.23,2.21,-2.23,2.21,-2.21,-2.14,-2.53,-4.44,-4.44,-4.44
231.25,-2.23,2.24,-2.23,2.24,-2.24,-2.17,-2.59,-4.47,-4.47,-4.47
233.57,-2.23,2.27,-2.23,2.27,-2.27,-2.20,-2.64,-4.50,-4.50,-4.50
235.90,-2.23,2.30,-2.23,2.30,-2.30,-2.24,-2.69,-4.53,-4.53,-4.53
238.26,-2.23,2.34,-2.23,2.33,-2.33,-2.27,-2.73,-4.56,-4.56,-4.57
240.64,-2.23,2.35,-2.23,2.36,-2.36,-2.30,-2.77,-4.59,-4.59,-4.58
243.05,-2.23,2.38,-2.23,2.38,-2.38,-2.33,-2.80,-4.61,-4.61,-4.61
245.48,-2.23,2.40,-2.23,2.40,-2.40,-2.35,-2.83,-4.63,-4.63,-4.63
247.93,-2.23,2.43,-2.23,2.42,-2.42,-2.38,-2.86,-4.65,-4.65,-4.66
250.41,-2.23,2.44,-2.23,2.44,-2.44,-2.41,-2.88,-4.67,-4.67,-4.66
252.92,-2.23,2.46,-2.23,2.46,-2.46,-2.43,-2.89,-4.69,-4.69,-4.69
255.45,-2.23,2.49,-2.23,2.48,-2.48,-2.46,-2.90,-4.71,-4.71,-4.71
258.00,-2.23,2.50,-2.23,2.50,-2.50,-2.48,-2.91,-4.73,-4.73,-4.73
260.58,-2.23,2.51,-2.23,2.51,-2.51,-2.50,-2.91,-4.74,-4.74,-4.74
263.19,-2.23,2.53,-2.23,2.53,-2.53,-2.52,-2.91,-4.76,-4.76,-4.76
265.82,-2.23,2.54,-2.23,2.54,-2.54,-2.54,-2.90,-4.77,-4.77,-4.77
268.48,-2.23,2.55,-2.23,2.55,-2.55,-2.56,-2.89,-4.78,-4.78,-4.78
271.16,-2.23,2.55,-2.23,2.56,-2.56,-2.57,-2.87,-4.79,-4.79,-4.78
273.87,-2.23,2.56,-2.23,2.57,-2.57,-2.59,-2.85,-4.80,-4.80,-4.79
276.61,-2.23,2.58,-2.23,2.58,-2.58,-2.61,-2.83,-4.81,-4.81,-4.80
279.38,-2.23,2.60,-2.23,2.58,-2.58,-2.62,-2.81,-4.81,-4.81,-4.83
282.17,-2.23,2.60,-2.23,2.59,-2.59,-2.63,-2.78,-4.82,-4.82,-4.83
284.99,-2.23,2.60,-2.23,2.59,-2.59,-2.64,-2.75,-4.82,-4.82,-4.83
287.84,-2.23,2.60,-2.23,2.60,-2.60,-2.65,-2.72,-4.83,-4.83,-4.82
290.72,-2.23,2.60,-2.23,2.60,-2.60,-2.66,-2.69,-4.83,-4.83,-4.83
293.63,-2.23,2.60,-2.23,2.60,-2.60,-2.67,-2.66,-4.83,-4.83,-4.83
296.57,-2.23,2.60,-2.23,2.61,-2.61,-2.68,-2.63,-4.84,-4.84,-4.83
299.53,-2.23,2.61,-2.23,2.61,-2.61,-2.69,-2.59,-4.84,-4.84,-4.84
302.53,-2.23,2.60,-2.23,2.61,-2.61,-2.69,-2.56,-4.84,-4.84,-4.83
305.55,-2.23,2.61,-2.23,2.61,-2.61,-2.69,-2.53,-4.84,-4.84,-4.83
308.61,-2.23,2.60,-2.23,2.61,-2.61,-2.70,-2.49,-4.84,-4.84,-4.83
311.69,-2.23,2.61,-2.23,2.61,-2.61,-2.70,-2.46,-4.84,-4.84,-4.84
314.81,-2.23,2.61,-2.23,2.61,-2.61,-2.70,-2.43,-4.84,-4.84,-4.84
317.96,-2.23,2.61,-2.23,2.61,-2.61,-2.70,-2.39,-4.84,-4.84,-4.84
321.14,-2.23,2.61,-2.23,2.61,-2.61,-2.70,-2.36,-4.84,-4.84,-4.84
324.35,-2.23,2.62,-2.23,2.60,-2.60,-2.69,-2.33,-4.83,-4.83,-4.84
327.59,-2.23,2.59,-2.23,2.60,-2.60,-2.69,-2.31,-4.83,-4.83,-4.82
330.87,-2.23,2.60,-2.23,2.60,-2.60,-2.69,-2.28,-4.83,-4.83,-4.83
334.18,-2.23,2.60,-2.23,2.59,-2.59,-2.68,-2.25,-4.82,-4.82,-4.83
337.52,-2.23,2.60,-2.23,2.59,-2.59,-2.68,-2.23,-4.82,-4.82,-4.83
340.90,-2.23,2.58,-2.22,2.60,-2.60,-2.67,-2.21,-4.83,-4.81,-4.81
344.30,-2.23,2.58,-2.21,2.60,-2.60,-2.66,-2.19,-4.82,-4.81,-4.81
347.75,-2.23,2.57,-2.22,2.58,-2.58,-2.65,-2.17,-4.81,-4.80,-4.80
351.23,-2.23,2.58,-2.23,2.56,-2.56,-2.64,-2.15,-4.79,-4.80,-4.81
354.74,-2.23,2.55,-2.23,2.55,-2.55,-2.63,-2.13,-4.78,-4.79,-4.78
358.28,-2.23,2.55,-2.24,2.55,-2.55,-2.62,-2.12,-4.78,-4.78,-4.78
361.87,-2.23,2.55,-2.24,2.54,-2.54,-2.61,-2.11,-4.76,-4.78,-4.78
365.49,-2.23,2.54,-2.25,2.52,-2.52,-2.60,-2.10,-4.75,-4.77,-4.77
369.14,-2.23,2.54,-2.27,2.50,-2.50,-2.58,-2.09,-4.73,-4.77,-4.76
372.83,-2.23,2.53,-2.29,2.47,-2.47,-2.57,-2.08,-4.70,-4.76,-4.76
376.56,-2.28,2.48,-2.31,2.45,-2.45,-2.56,-2.07,-4.73,-4.76,-4.76
380.33,-2.42,2.34,-2.33,2.43,-2.43,-2.54,-2.07,-4.85,-4.76,-4.75
384.13,-2.45,2.30,-2.34,2.41,-2.41,-2.53,-2.07,-4.86,-4.76,-4.75
387.97,-2.30,2.45,-2.35,2.40,-2.40,-2.51,-2.07,-4.70,-4.75,-4.75
391.85,-2.24,2.50,-2.36,2.39,-2.39,-2.50,-2.07,-4.63,-4.75,-4.74
395.77,-2.39,2.37,-2.36,2.39,-2.39,-2.48,-2.07,-4.77,-4.74,-4.76
399.73,-2.45,2.30,-2.36,2.38,-2.38,-2.46,-2.07,-4.83,-4.74,-4.75
403.72,-2.45,2.28,-2.35,2.38,-2.38,-2.44,-2.07,-4.83,-4.73,-4.73
407.76,-2.45,2.29,-2.34,2.39,-2.39,-2.43,-2.08,-4.83,-4.73,-4.73
411.84,-2.32,2.40,-2.33,2.39,-2.39,-2.41,-2.09,-4.71,-4.72,-4.72
415.96,-2.24,2.47,-2.31,2.40,-2.40,-2.39,-2.09,-4.64,-4.71,-4.71
420.12,-2.23,2.48,-2.29,2.41,-2.41,-2.37,-2.10,-4.64,-4.70,-4.71
424.32,-2.23,2.46,-2.27,2.42,-2.42,-2.35,-2.11,-4.65,-4.69,-4.69
428.56,-2.23,2.45,-2.26,2.42,-2.42,-2.33,-2.12,-4.65,-4.68,-4.68
432.85,-2.23,2.44,-2.26,2.42,-2.42,-2.31,-2.13,-4.64,-4.67,-4.67
437.18,-2.23,2.43,-2.24,2.42,-2.42,-2.30,-2.14,-4.65,-4.66,-4.66
441.55,-2.23,2.42,-2.22,2.42,-2.42,-2.28,-2.15,-4.65,-4.65,-4.65
445.96,-2.23,2.40,-2.21,2.42,-2.42,-2.26,-2.15,-4.65,-4.63,-4.63
450.42,-2.23,2.40,-2.21,2.41,-2.41,-2.24,-2.16,-4.64,-4.62,-4.62
454.93,-2.23,2.38,-2.22,2.39,-2.39,-2.22,-2.17,-4.62,-4.61,-4.61
