frequency,raw,error,smoothed,error_smoothed,equalization,parametric_eq,fixed_band_eq,equalized_raw,equalized_smoothed,target
20.00,5.55,0.83,5.55,0.80,-0.80,-0.47,-0.62,4.75,4.75,4.72
20.20,5.58,0.82,5.58,0.81,-0.81,-0.48,-0.64,4.77,4.78,4.76
20.40,5.62,0.82,5.62,0.81,-0.81,-0.49,-0.66,4.81,4.81,4.80
20.61,5.65,0.82,5.65,0.82,-0.82,-0.50,-0.68,4.83,4.83,4.83
20.81,5.69,0.82,5.69,0.83,-0.83,-0.51,-0.69,4.86,4.86,4.87
21.02,5.72,0.81,5.72,0.83,-0.83,-0.52,-0.71,4.88,4.89,4.91
21.23,5.76,0.83,5.76,0.85,-0.85,-0.53,-0.73,4.91,4.91,4.93
21.44,5.79,0.84,5.79,0.86,-0.86,-0.54,-0.75,4.93,4.93,4.95
21.66,5.83,0.86,5.82,0.87,-0.87,-0.55,-0.77,4.96,4.95,4.97
21.87,5.86,0.88,5.86,0.89,-0.89,-0.56,-0.80,4.97,4.97,4.98
22.09,5.89,0.89,5.89,0.90,-0.90,-0.57,-0.82,4.99,4.99,5.00
22.31,5.93,0.92,5.93,0.92,-0.92,-0.58,-0.84,5.01,5.01,5.01
22.54,5.96,0.94,5.96,0.94,-0.94,-0.59,-0.86,5.02,5.02,5.02
22.76,5.99,0.96,5.99,0.97,-0.97,-0.60,-0.89,5.02,5.03,5.03
22.99,6.03,1.00,6.03,0.99,-0.99,-0.61,-0.91,5.04,5.04,5.03
23.22,6.06,1.02,6.06,1.02,-1.02,-0.62,-0.94,5.04,5.04,5.03
23.45,6.09,1.05,6.09,1.04,-1.04,-0.63,-0.96,5.05,5.05,5.04
23.69,6.13,1.08,6.13,1.07,-1.07,-0.64,-0.99,5.06,5.06,5.05
23.92,6.16,1.10,6.16,1.09,-1.09,-0.66,-1.01,5.07,5.07,5.06
24.16,6.19,1.11,6.19,1.12,-1.12,-0.67,-1.04,5.07,5.08,5.08
24.40,6.23,1.13,6.23,1.14,-1.14,-0.68,-1.07,5.09,5.09,5.10
24.65,6.26,1.16,6.26,1.16,-1.16,-0.69,-1.10,5.10,5.10,5.10
24.89,6.30,1.19,6.29,1.18,-1.18,-0.70,-1.12,5.11,5.11,5.11
25.14,6.33,1.21,6.33,1.21,-1.21,-0.72,-1.15,5.12,5.12,5.12
25.39,6.36,1.23,6.36,1.23,-1.23,-0.73,-1.18,5.13,5.13,5.13
25.65,6.39,1.24,6.39,1.25,-1.25,-0.74,-1.21,5.14,5.14,5.15
25.91,6.42,1.27,6.42,1.27,-1.27,-0.76,-1.24,5.15,5.15,5.14
26.16,6.45,1.30,6.45,1.29,-1.29,-0.77,-1.27,5.16,5.16,5.15
26.43,6.48,1.32,6.48,1.31,-1.31,-0.78,-1.29,5.16,5.17,5.16
26.69,6.51,1.34,6.51,1.34,-1.34,-0.80,-1.32,5.17,5.17,5.17
26.96,6.54,1.35,6.54,1.36,-1.36,-0.81,-1.35,5.18,5.18,5.19
27.23,6.57,1.37,6.57,1.38,-1.38,-0.82,-1.38,5.19,5.19,5.20
27.50,6.60,1.39,6.60,1.40,-1.40,-0.84,-1.40,5.20,5.20,5.21
27.77,6.63,1.42,6.62,1.41,-1.41,-0.85,-1.43,5.21,5.21,5.21
28.05,6.65,1.43,6.65,1.43,-1.43,-0.87,-1.46,5.21,5.22,5.22
28.33,6.68,1.46,6.68,1.45,-1.45,-0.88,-1.48,5.22,5.23,5.22
28.62,6.71,1.48,6.71,1.47,-1.47,-0.90,-1.51,5.23,5.23,5.23
28.90,6.73,1.49,6.73,1.49,-1.49,-0.91,-1.53,5.24,5.24,5.24
29.19,6.76,1.52,6.76,1.51,-1.51,-0.93,-1.55,5.25,5.25,5.24
29.48,6.78,1.51,6.79,1.53,-1.53,-0.94,-1.57,5.25,5.25,5.26
29.78,6.81,1.55,6.81,1.55,-1.55,-0.96,-1.59,5.26,5.26,5.26
30.08,6.84,1.57,6.84,1.57,-1.57,-0.98,-1.61,5.27,5.27,5.27
30.38,6.86,1.59,6.86,1.59,-1.59,-0.99,-1.62,5.27,5.27,5.27
30.68,6.88,1.59,6.88,1.60,-1.60,-1.01,-1.64,5.28,5.28,5.29
30.99,6.91,1.62,6.90,1.62,-1.62,-1.03,-1.65,5.29,5.29,5.28
31.30,6.93,1.64,6.92,1.63,-1.63,-1.04,-1.66,5.30,5.29,5.29
31.61,6.95,1.65,6.94,1.64,-1.64,-1.06,-1.67,5.31,5.30,5.30
31.93,6.97,1.66,6.96,1.65,-1.65,-1.08,-1.68,5.32,5.31,5.31
32.24,6.98,1.68,6.98,1.66,-1.66,-1.09,-1.68,5.32,5.31,5.30
32.57,6.99,1.67,6.99,1.67,-1.67,-1.11,-1.69,5.32,5.32,5.32
32.89,7.01,1.68,7.01,1.68,-1.68,-1.13,-1.69,5.33,5.33,5.33
33.22,7.02,1.68,7.02,1.69,-1.69,-1.15,-1.70,5.33,5.33,5.34
33.55,7.03,1.69,7.03,1.69,-1.69,-1.17,-1.70,5.33,5.34,5.34
33.89,7.05,1.70,7.05,1.70,-1.70,-1.19,-1.70,5.35,5.35,5.35
34.23,7.06,1.70,7.06,1.71,-1.71,-1.21,-1.70,5.35,5.35,5.36
34.57,7.07,1.71,7.08,1.72,-1.72,-1.22,-1.70,5.35,5.36,5.36
34.92,7.09,1.73,7.09,1.73,-1.73,-1.24,-1.69,5.36,5.36,5.36
35.27,7.10,1.73,7.10,1.74,-1.74,-1.26,-1.69,5.36,5.37,5.36
35.62,7.11,1.74,7.12,1.75,-1.75,-1.28,-1.69,5.36,5.37,5.37
35.97,7.13,1.76,7.13,1.76,-1.76,-1.30,-1.68,5.37,5.37,5.37
36.33,7.15,1.78,7.15,1.77,-1.77,-1.32,-1.68,5.38,5.37,5.37
36.70,7.17,1.80,7.16,1.79,-1.79,-1.35,-1.68,5.38,5.37,5.37
37.06,7.18,1.81,7.17,1.80,-1.80,-1.37,-1.67,5.38,5.37,5.37
37.43,7.19,1.81,7.19,1.82,-1.82,-1.39,-1.67,5.37,5.37,5.38
37.81,7.20,1.83,7.20,1.83,-1.83,-1.41,-1.67,5.36,5.37,5.37
38.19,7.22,1.85,7.22,1.85,-1.85,-1.43,-1.67,5.37,5.36,5.37
38.57,7.23,1.87,7.23,1.87,-1.87,-1.45,-1.67,5.36,5.36,5.36
38.95,7.24,1.88,7.24,1.88,-1.88,-1.47,-1.67,5.35,5.36,5.36
39.34,7.25,1.90,7.26,1.90,-1.90,-1.50,-1.67,5.35,5.36,5.35
39.74,7.27,1.92,7.27,1.92,-1.92,-1.52,-1.67,5.35,5.35,5.35
40.14,7.28,1.93,7.28,1.93,-1.93,-1.54,-1.67,5.35,5.35,5.35
40.54,7.30,1.96,7.29,1.95,-1.95,-1.56,-1.67,5.35,5.35,5.34
40.94,7.31,1.97,7.30,1.96,-1.96,-1.59,-1.68,5.35,5.34,5.34
41.35,7.32,1.99,7.31,1.98,-1.98,-1.61,-1.68,5.34,5.34,5.33
41.76,7.33,2.00,7.33,2.00,-2.00,-1.63,-1.69,5.33,5.33,5.33
42.18,7.34,2.00,7.34,2.01,-2.01,-1.66,-1.70,5.33,5.33,5.33
42.60,7.35,2.02,7.35,2.03,-2.03,-1.68,-1.71,5.32,5.32,5.33
43.03,7.36,2.03,7.37,2.05,-2.05,-1.71,-1.72,5.31,5.32,5.33
43.46,7.37,2.05,7.38,2.07,-2.07,-1.73,-1.73,5.30,5.31,5.32
43.90,7.39,2.09,7.40,2.09,-2.09,-1.75,-1.74,5.30,5.31,5.30
44.33,7.40,2.10,7.41,2.11,-2.11,-1.78,-1.76,5.29,5.31,5.30
44.78,7.42,2.13,7.43,2.13,-2.13,-1.80,-1.77,5.29,5.30,5.29
45.23,7.44,2.16,7.44,2.15,-2.15,-1.83,-1.79,5.29,5.30,5.28
45.68,7.46,2.18,7.46,2.17,-2.17,-1.86,-1.81,5.29,5.29,5.28
46.13,7.47,2.20,7.47,2.19,-2.19,-1.88,-1.83,5.28,5.28,5.27
46.60,7.49,2.21,7.48,2.21,-2.21,-1.91,-1.85,5.28,5.27,5.28
47.06,7.50,2.23,7.50,2.23,-2.23,-1.93,-1.88,5.27,5.27,5.27
47.53,7.51,2.25,7.50,2.25,-2.25,-1.96,-1.90,5.26,5.26,5.26
48.01,7.52,2.25,7.51,2.26,-2.26,-1.98,-1.92,5.25,5.25,5.27
48.49,7.52,2.27,7.51,2.28,-2.28,-2.01,-1.95,5.24,5.24,5.24
48.97,7.52,2.30,7.51,2.29,-2.29,-2.04,-1.98,5.23,5.22,5.22
49.46,7.52,2.31,7.51,2.30,-2.30,-2.06,-2.01,5.22,5.21,5.21
49.96,7.51,2.32,7.50,2.31,-2.31,-2.09,-2.04,5.20,5.20,5.18
50.46,7.50,2.32,7.49,2.32,-2.32,-2.12,-2.07,5.18,5.18,5.18
50.96,7.49,2.32,7.48,2.32,-2.32,-2.15,-2.10,5.17,5.16,5.16
51.47,7.47,2.34,7.47,2.33,-2.33,-2.17,-2.13,5.14,5.14,5.13
51.99,7.45,2.34,7.46,2.34,-2.34,-2.20,-2.16,5.11,5.12,5.11
52.51,7.43,2.32,7.44,2.34,-2.34,-2.23,-2.20,5.09,5.10,5.11
53.03,7.41,2.33,7.43,2.35,-2.35,-2.26,-2.23,5.06,5.08,5.08
53.56,7.40,2.34,7.41,2.36,-2.36,-2.28,-2.26,5.04,5.06,5.06
54.10,7.39,2.36,7.39,2.36,-2.36,-2.31,-2.30,5.03,5.03,5.03
54.64,7.38,2.36,7.37,2.36,-2.36,-2.34,-2.33,5.02,5.01,5.02
55.18,7.36,2.37,7.35,2.36,-2.36,-2.37,-2.36,5.00,4.99,4.99
55.74,7.34,2.38,7.33,2.37,-2.37,-2.40,-2.40,4.97,4.97,4.96
56.29,7.32,2.37,7.31,2.37,-2.37,-2.42,-2.43,4.95,4.94,4.94
56.86,7.30,2.39,7.29,2.37,-2.37,-2.45,-2.46,4.93,4.92,4.91
57.42,7.27,2.39,7.26,2.37,-2.37,-2.48,-2.49,4.90,4.89,4.88
58.00,7.24,2.38,7.24,2.37,-2.37,-2.51,-2.52,4.87,4.86,4.86
58.58,7.21,2.37,7.21,2.38,-2.38,-2.54,-2.54,4.83,4.83,4.83
59.16,7.18,2.37,7.18,2.38,-2.38,-2.57,-2.57,4.80,4.80,4.81
59.76,7.15,2.36,7.15,2.38,-2.38,-2.59,-2.59,4.77,4.77,4.78
60.35,7.12,2.37,7.12,2.38,-2.38,-2.62,-2.62,4.74,4.74,4.75
60.96,7.09,2.38,7.09,2.39,-2.39,-2.65,-2.64,4.70,4.70,4.71
61.57,7.06,2.39,7.06,2.40,-2.40,-2.68,-2.66,4.66,4.66,4.66
62.18,7.03,2.41,7.04,2.41,-2.41,-2.71,-2.67,4.62,4.63,4.62
62.80,7.01,2.42,7.01,2.43,-2.43,-2.74,-2.69,4.58,4.59,4.59
63.43,6.98,2.44,6.99,2.45,-2.45,-2.77,-2.70,4.53,4.55,4.54
64.07,6.96,2.46,6.97,2.47,-2.47,-2.79,-2.71,4.49,4.50,4.50
64.71,6.95,2.49,6.95,2.49,-2.49,-2.82,-2.72,4.46,4.46,4.45
65.35,6.93,2.52,6.94,2.52,-2.52,-2.85,-2.73,4.41,4.42,4.41
66.01,6.92,2.55,6.92,2.55,-2.55,-2.88,-2.74,4.37,4.37,4.37
66.67,6.91,2.58,6.90,2.58,-2.58,-2.91,-2.74,4.33,4.33,4.33
67.33,6.90,2.61,6.89,2.61,-2.61,-2.94,-2.75,4.29,4.28,4.29
68.01,6.89,2.65,6.88,2.64,-2.64,-2.96,-2.75,4.25,4.24,4.24
68.69,6.87,2.68,6.87,2.67,-2.67,-2.99,-2.75,4.19,4.19,4.19
69.37,6.85,2.70,6.85,2.71,-2.71,-3.02,-2.75,4.14,4.15,4.15
70.07,6.84,2.74,6.84,2.74,-2.74,-3.05,-2.75,4.10,4.10,4.10
70.77,6.82,2.76,6.83,2.77,-2.77,-3.08,-2.75,4.05,4.06,4.06
71.48,6.81,2.79,6.81,2.80,-2.80,-3.10,-2.75,4.01,4.01,4.02
72.19,6.80,2.84,6.80,2.83,-2.83,-3.13,-2.75,3.97,3.97,3.96
72.91,6.78,2.86,6.78,2.86,-2.86,-3.16,-2.75,3.92,3.92,3.92
73.64,6.77,2.89,6.76,2.88,-2.88,-3.18,-2.75,3.89,3.88,3.88
74.38,6.75,2.91,6.74,2.90,-2.90,-3.21,-2.76,3.85,3.84,3.84
75.12,6.73,2.93,6.72,2.92,-2.92,-3.24,-2.76,3.81,3.80,3.79
75.87,6.70,2.94,6.69,2.94,-2.94,-3.26,-2.76,3.76,3.76,3.76
76.63,6.68,2.96,6.67,2.95,-2.95,-3.29,-2.77,3.73,3.72,3.72
77.40,6.65,2.97,6.65,2.97,-2.97,-3.32,-2.77,3.68,3.68,3.68
78.17,6.62,2.98,6.62,2.98,-2.98,-3.34,-2.78,3.64,3.65,3.64
78.95,6.60,2.99,6.60,2.99,-2.99,-3.37,-2.79,3.61,3.61,3.61
79.74,6.58,3.00,6.58,3.00,-3.00,-3.39,-2.80,3.58,3.57,3.58
80.54,6.55,3.00,6.56,3.02,-3.02,-3.41,-2.81,3.53,3.54,3.54
81.35,6.53,3.02,6.54,3.03,-3.03,-3.44,-2.83,3.50,3.51,3.51
82.16,6.52,3.04,6.53,3.05,-3.05,-3.46,-2.84,3.47,3.48,3.48
82.98,6.51,3.06,6.52,3.07,-3.07,-3.49,-2.86,3.44,3.45,3.45
83.81,6.50,3.09,6.51,3.10,-3.10,-3.51,-2.89,3.40,3.42,3.41
84.65,6.49,3.11,6.51,3.12,-3.12,-3.53,-2.91,3.37,3.39,3.38
85.50,6.49,3.13,6.51,3.15,-3.15,-3.55,-2.93,3.34,3.36,3.36
86.35,6.50,3.17,6.51,3.18,-3.18,-3.57,-2.96,3.32,3.33,3.33
87.22,6.51,3.21,6.51,3.21,-3.21,-3.60,-2.99,3.30,3.30,3.30
88.09,6.52,3.25,6.52,3.24,-3.24,-3.62,-3.03,3.28,3.27,3.27
88.97,6.53,3.28,6.52,3.27,-3.27,-3.64,-3.06,3.26,3.25,3.25
89.86,6.54,3.31,6.52,3.30,-3.30,-3.66,-3.10,3.24,3.22,3.23
90.76,6.54,3.36,6.52,3.33,-3.33,-3.68,-3.14,3.21,3.19,3.18
91.66,6.53,3.37,6.51,3.35,-3.35,-3.69,-3.18,3.18,3.16,3.16
92.58,6.52,3.39,6.50,3.37,-3.37,-3.71,-3.23,3.15,3.13,3.13
93.51,6.50,3.39,6.49,3.39,-3.39,-3.73,-3.27,3.11,3.10,3.11
94.44,6.48,3.40,6.48,3.40,-3.40,-3.75,-3.32,3.08,3.07,3.08
95.39,6.46,3.41,6.46,3.42,-3.42,-3.76,-3.37,3.04,3.04,3.05
96.34,6.43,3.42,6.43,3.43,-3.43,-3.78,-3.43,3.00,3.01,3.01
97.30,6.40,3.43,6.41,3.43,-3.43,-3.79,-3.48,2.97,2.97,2.97
98.28,6.37,3.44,6.38,3.44,-3.44,-3.81,-3.54,2.93,2.94,2.93
99.26,6.35,3.45,6.35,3.45,-3.45,-3.82,-3.60,2.90,2.90,2.90
100.25,6.32,3.46,6.32,3.46,-3.46,-3.83,-3.65,2.86,2.86,2.86
101.25,6.28,3.46,6.29,3.47,-3.47,-3.84,-3.72,2.81,2.82,2.82
102.27,6.24,3.46,6.26,3.48,-3.48,-3.86,-3.78,2.76,2.78,2.78
103.29,6.22,3.49,6.22,3.49,-3.49,-3.87,-3.84,2.73,2.73,2.73
104.32,6.19,3.50,6.19,3.50,-3.50,-3.87,-3.90,2.68,2.68,2.69
105.37,6.15,3.51,6.15,3.52,-3.52,-3.88,-3.96,2.63,2.63,2.64
106.42,6.12,3.53,6.11,3.53,-3.53,-3.89,-4.02,2.59,2.58,2.58
107.48,6.08,3.54,6.07,3.54,-3.54,-3.90,-4.08,2.54,2.53,2.54
108.56,6.04,3.57,6.02,3.56,-3.56,-3.90,-4.14,2.48,2.47,2.47
109.64,5.99,3.58,5.98,3.57,-3.57,-3.91,-4.20,2.42,2.41,2.41
110.74,5.94,3.59,5.93,3.58,-3.58,-3.91,-4.25,2.35,2.34,2.35
111.85,5.90,3.61,5.88,3.60,-3.60,-3.92,-4.30,2.30,2.28,2.29
112.97,5.83,3.62,5.83,3.62,-3.62,-3.92,-4.35,2.21,2.21,2.21
114.10,5.76,3.61,5.78,3.63,-3.63,-3.92,-4.39,2.13,2.15,2.15
115.24,5.70,3.62,5.72,3.64,-3.64,-3.92,-4.43,2.06,2.08,2.08
116.39,5.66,3.66,5.67,3.66,-3.66,-3.92,-4.46,2.00,2.01,2.00
117.55,5.61,3.67,5.62,3.67,-3.67,-3.92,-4.49,1.93,1.94,1.94
118.73,5.56,3.70,5.56,3.69,-3.69,-3.91,-4.51,1.87,1.87,1.86
119.92,5.50,3.69,5.51,3.70,-3.70,-3.91,-4.53,1.80,1.81,1.81
121.12,5.45,3.72,5.45,3.71,-3.71,-3.91,-4.54,1.73,1.74,1.73
122.33,5.41,3.74,5.40,3.73,-3.73,-3.90,-4.54,1.68,1.67,1.67
123.55,5.36,3.74,5.35,3.74,-3.74,-3.89,-4.54,1.62,1.61,1.62
124.79,5.29,3.73,5.29,3.74,-3.74,-3.88,-4.53,1.55,1.55,1.55
126.03,5.23,3.74,5.24,3.75,-3.75,-3.87,-4.51,1.48,1.49,1.49
127.29,5.20,3.77,5.19,3.76,-3.76,-3.86,-4.48,1.44,1.43,1.43
128.57,5.15,3.79,5.13,3.76,-3.76,-3.85,-4.45,1.39,1.37,1.36
129.85,5.07,3.76,5.07,3.76,-3.76,-3.84,-4.41,1.31,1.32,1.31
131.15,5.00,3.74,5.01,3.75,-3.75,-3.82,-4.36,1.25,1.26,1.26
132.46,4.96,3.75,4.95,3.75,-3.75,-3.80,-4.31,1.21,1.21,1.21
133.79,4.89,3.73,4.89,3.74,-3.74,-3.79,-4.25,1.15,1.16,1.16
135.12,4.82,3.71,4.83,3.72,-3.72,-3.77,-4.18,1.10,1.11,1.11
136.48,4.78,3.72,4.76,3.71,-3.71,-3.75,-4.11,1.07,1.06,1.06
137.84,4.71,3.70,4.70,3.69,-3.69,-3.72,-4.03,1.02,1.01,1.01
139.22,4.65,3.70,4.64,3.67,-3.67,-3.70,-3.95,0.97,0.96,0.95
140.61,4.57,3.67,4.57,3.66,-3.66,-3.68,-3.87,0.91,0.91,0.90
142.02,4.47,3.60,4.50,3.63,-3.63,-3.65,-3.78,0.84,0.87,0.87
143.44,4.43,3.60,4.44,3.61,-3.61,-3.62,-3.69,0.82,0.82,0.83
144.87,4.36,3.58,4.37,3.59,-3.59,-3.59,-3.59,0.77,0.78,0.78
146.32,4.30,3.57,4.29,3.56,-3.56,-3.56,-3.50,0.74,0.73,0.73
147.78,4.22,3.52,4.22,3.54,-3.54,-3.53,-3.40,0.68,0.68,0.69
149.26,4.16,3.51,4.14,3.51,-3.51,-3.50,-3.30,0.65,0.64,0.65
150.75,4.07,3.49,4.07,3.48,-3.48,-3.46,-3.20,0.59,0.59,0.58
152.26,4.01,3.47,3.99,3.45,-3.45,-3.42,-3.10,0.56,0.54,0.54
153.78,3.92,3.42,3.91,3.42,-3.42,-3.39,-3.00,0.50,0.49,0.49
155.32,3.85,3.42,3.83,3.39,-3.39,-3.35,-2.90,0.46,0.44,0.43
156.88,3.74,3.35,3.75,3.36,-3.36,-3.30,-2.80,0.38,0.39,0.39
158.44,3.66,3.32,3.67,3.34,-3.34,-3.26,-2.70,0.32,0.34,0.34
160.03,3.56,3.28,3.59,3.30,-3.30,-3.22,-2.60,0.26,0.28,0.28
161.63,3.49,3.27,3.50,3.27,-3.27,-3.17,-2.50,0.22,0.23,0.22
163.24,3.42,3.24,3.42,3.24,-3.24,-3.12,-2.40,0.18,0.18,0.17
164.88,3.33,3.20,3.33,3.21,-3.21,-3.07,-2.30,0.12,0.13,0.13
166.53,3.25,3.18,3.25,3.18,-3.18,-3.02,-2.21,0.07,0.07,0.07
168.19,3.18,3.16,3.16,3.14,-3.14,-2.96,-2.11,0.03,0.02,0.02
169.87,3.07,3.11,3.07,3.11,-3.11,-2.91,-2.02,-0.04,-0.04,-0.04
171.57,2.98,3.07,2.99,3.08,-3.08,-2.85,-1.93,-0.10,-0.10,-0.09
173.29,2.91,3.06,2.90,3.05,-3.05,-2.79,-1.84,-0.14,-0.15,-0.15
175.02,2.79,2.99,2.80,3.02,-3.02,-2.73,-1.75,-0.23,-0.21,-0.20
176.77,2.70,2.97,2.71,2.98,-2.98,-2.67,-1.66,-0.28,-0.27,-0.27
178.54,2.62,2.95,2.61,2.94,-2.94,-2.61,-1.58,-0.32,-0.33,-0.33
180.32,2.53,2.92,2.51,2.90,-2.90,-2.54,-1.49,-0.37,-0.39,-0.39
182.13,2.44,2.89,2.40,2.85,-2.85,-2.47,-1.41,-0.42,-0.45,-0.45
183.95,2.29,2.80,2.30,2.81,-2.81,-2.40,-1.33,-0.52,-0.51,-0.52
185.79,2.19,2.76,2.19,2.77,-2.77,-2.33,-1.25,-0.58,-0.58,-0.57
187.65,2.07,2.72,2.09,2.72,-2.72,-2.26,-1.17,-0.65,-0.64,-0.65
189.52,1.96,2.66,1.98,2.67,-2.67,-2.18,-1.09,-0.71,-0.69,-0.70
191.42,1.85,2.60,1.87,2.62,-2.62,-2.10,-1.01,-0.77,-0.75,-0.76
193.33,1.74,2.55,1.76,2.57,-2.57,-2.03,-0.94,-0.83,-0.81,-0.81
195.27,1.64,2.50,1.65,2.52,-2.52,-1.94,-0.86,-0.88,-0.87,-0.86
197.22,1.53,2.45,1.53,2.45,-2.45,-1.86,-0.79,-0.92,-0.92,-0.92
199.19,1.42,2.40,1.41,2.39,-2.39,-1.78,-0.72,-0.97,-0.98,-0.98
201.18,1.31,2.34,1.29,2.32,-2.32,-1.69,-0.65,-1.01,-1.03,-1.03
203.19,1.20,2.27,1.17,2.25,-2.25,-1.60,-0.58,-1.05,-1.08,-1.07
205.23,1.06,2.19,1.05,2.18,-2.18,-1.51,-0.51,-1.12,-1.13,-1.13
207.28,0.93,2.09,0.92,2.10,-2.10,-1.42,-0.44,-1.17,-1.18,-1.16
209.35,0.80,2.02,0.79,2.02,-2.02,-1.33,-0.37,-1.22,-1.22,-1.22
211.44,0.67,1.95,0.66,1.92,-1.92,-1.23,-0.30,-1.26,-1.27,-1.28
213.56,0.51,1.82,0.52,1.83,-1.83,-1.13,-0.23,-1.32,-1.31,-1.31
215.69,0.35,1.69,0.37,1.72,-1.72,-1.03,-0.17,-1.37,-1.35,-1.34
217.85,0.20,1.58,0.22,1.61,-1.61,-0.93,-0.10,-1.41,-1.39,-1.38
220.03,0.09,1.52,0.07,1.49,-1.49,-0.83,-0.03,-1.40,-1.42,-1.43
222.23,-0.05,1.41,-0.08,1.37,-1.37,-0.72,0.03,-1.43,-1.46,-1.46
224.45,-0.22,1.27,-0.24,1.25,-1.25,-0.62,0.10,-1.47,-1.49,-1.49
226.70,-0.40,1.11,-0.39,1.12,-1.12,-0.51,0.16,-1.52,-1.51,-1.51
228.96,-0.59,0.95,-0.56,0.98,-0.98,-0.40,0.23,-1.58,-1.54,-1.54
231.25,-0.72,0.84,-0.72,0.84,-0.84,-0.29,0.29,-1.56,-1.56,-1.56
233.57,-0.89,0.69,-0.89,0.69,-0.69,-0.17,0.36,-1.58,-1.58,-1.58
235.90,-1.08,0.52,-1.06,0.54,-0.54,-0.06,0.42,-1.62,-1.60,-1.60
238.26,-1.21,0.40,-1.23,0.38,-0.38,0.06,0.48,-1.59,-1.61,-1.61
240.64,-1.39,0.23,-1.40,0.22,-0.22,0.18,0.55,-1.61,-1.62,-1.62
243.05,-1.53,0.09,-1.57,0.05,-0.05,0.30,0.61,-1.58,-1.63,-1.62
245.48,-1.71,-0.08,-1.75,-0.12,0.12,0.42,0.68,-1.59,-1.63,-1.63
247.93,-1.96,-0.33,-1.93,-0.29,0.29,0.55,0.74,-1.67,-1.63,-1.63
250.41,-2.12,-0.48,-2.10,-0.47,0.47,0.68,0.81,-1.65,-1.63,-1.64
252.92,-2.32,-0.69,-2.28,-0.65,0.65,0.80,0.87,-1.67,-1.63,-1.63
255.45,-2.47,-0.85,-2.46,-0.83,0.83,0.93,0.94,-1.64,-1.63,-1.62
258.00,-2.62,-1.00,-2.64,-1.02,1.02,1.06,1.01,-1.60,-1.62,-1.62
260.58,-2.83,-1.21,-2.82,-1.21,1.21,1.20,1.08,-1.62,-1.61,-1.62
263.19,-2.99,-1.38,-3.01,-1.40,1.40,1.33,1.14,-1.59,-1.61,-1.61
265.82,-3.19,-1.59,-3.20,-1.60,1.60,1.46,1.21,-1.59,-1.60,-1.60
268.48,-3.37,-1.79,-3.38,-1.80,1.80,1.60,1.28,-1.57,-1.59,-1.58
271.16,-3.54,-1.97,-3.57,-2.00,2.00,1.74,1.35,-1.55,-1.57,-1.57
273.87,-3.77,-2.21,-3.75,-2.19,2.19,1.88,1.42,-1.58,-1.56,-1.56
276.61,-3.94,-2.40,-3.94,-2.39,2.39,2.02,1.50,-1.55,-1.55,-1.54
279.38,-4.12,-2.58,-4.13,-2.59,2.59,2.16,1.57,-1.53,-1.54,-1.54
282.17,-4.30,-2.78,-4.32,-2.79,2.79,2.30,1.65,-1.51,-1.53,-1.52
284.99,-4.47,-2.96,-4.51,-2.99,2.99,2.45,1.72,-1.48,-1.51,-1.51
287.84,-4.70,-3.20,-4.69,-3.19,3.19,2.59,1.80,-1.51,-1.50,-1.50
290.72,-4.87,-3.38,-4.86,-3.38,3.38,2.74,1.88,-1.49,-1.49,-1.49
293.63,-5.04,-3.57,-5.03,-3.56,3.56,2.88,1.96,-1.48,-1.48,-1.48
296.57,-5.21,-3.75,-5.20,-3.74,3.74,3.03,2.04,-1.47,-1.46,-1.46
299.53,-5.38,-3.93,-5.36,-3.91,3.91,3.18,2.12,-1.47,-1.45,-1.46
302.53,-5.54,-4.09,-5.51,-4.07,4.07,3.33,2.21,-1.47,-1.44,-1.45
305.55,-5.68,-4.26,-5.65,-4.23,4.23,3.47,2.30,-1.46,-1.43,-1.42
308.61,-5.81,-4.39,-5.79,-4.37,4.37,3.62,2.38,-1.44,-1.42,-1.42
311.69,-5.94,-4.53,-5.92,-4.51,4.51,3.77,2.48,-1.43,-1.41,-1.41
314.81,-6.03,-4.64,-6.04,-4.64,4.64,3.92,2.57,-1.39,-1.40,-1.39
317.96,-6.13,-4.74,-6.16,-4.76,4.76,4.07,2.66,-1.37,-1.39,-1.39
321.14,-6.25,-4.87,-6.26,-4.88,4.88,4.21,2.76,-1.38,-1.39,-1.38
324.35,-6.37,-4.98,-6.36,-4.98,4.98,4.36,2.86,-1.39,-1.38,-1.39
327.59,-6.48,-5.11,-6.46,-5.08,5.08,4.51,2.96,-1.40,-1.38,-1.37
330.87,-6.55,-5.18,-6.55,-5.18,5.18,4.65,3.07,-1.37,-1.37,-1.37
334.18,-6.64,-5.26,-6.64,-5.27,5.27,4.79,3.18,-1.37,-1.37,-1.38
337.52,-6.73,-5.36,-6.73,-5.36,5.36,4.94,3.29,-1.37,-1.37,-1.37
340.90,-6.81,-5.45,-6.82,-5.45,5.45,5.08,3.40,-1.36,-1.37,-1.36
344.30,-6.89,-5.52,-6.90,-5.53,5.53,5.21,3.51,-1.36,-1.37,-1.37
347.75,-6.97,-5.60,-6.99,-5.62,5.62,5.35,3.63,-1.35,-1.37,-1.37
351.23,-7.07,-5.70,-7.07,-5.70,5.70,5.48,3.75,-1.37,-1.37,-1.37
354.74,-7.14,-5.77,-7.16,-5.78,5.78,5.61,3.88,-1.36,-1.38,-1.37
358.28,-7.23,-5.84,-7.23,-5.85,5.85,5.74,4.00,-1.38,-1.38,-1.39
361.87,-7.31,-5.92,-7.31,-5.93,5.93,5.86,4.13,-1.39,-1.39,-1.39
365.49,-7.39,-6.00,-7.39,-6.00,6.00,5.98,4.26,-1.39,-1.39,-1.39
369.14,-7.46,-6.06,-7.47,-6.07,6.07,6.10,4.40,-1.40,-1.40,-1.40
372.83,-7.54,-6.14,-7.54,-6.13,6.13,6.21,4.54,-1.41,-1.41,-1.41
376.56,-7.62,-6.20,-7.61,-6.19,6.19,6.32,4.68,-1.43,-1.42,-1.42
380.33,-7.69,-6.27,-7.67,-6.25,6.25,6.42,4.82,-1.44,-1.42,-1.42
384.13,-7.75,-6.32,-7.74,-6.31,6.31,6.52,4.97,-1.45,-1.43,-1.43
387.97,-7.80,-6.36,-7.80,-6.36,6.36,6.61,5.12,-1.44,-1.44,-1.44
391.85,-7.86,-6.41,-7.85,-6.41,6.41,6.69,5.27,-1.45,-1.45,-1.45
395.77,-7.91,-6.46,-7.91,-6.45,6.45,6.77,5.42,-1.46,-1.45,-1.45
399.73,-7.95,-6.49,-7.96,-6.50,6.50,6.85,5.58,-1.45,-1.46,-1.46
403.72,-7.99,-6.52,-8.01,-6.54,6.54,6.91,5.73,-1.45,-1.47,-1.47
407.76,-8.04,-6.56,-8.05,-6.58,6.58,6.97,5.89,-1.46,-1.47,-1.48
411.84,-8.09,-6.62,-8.10,-6.62,6.62,7.03,6.05,-1.47,-1.48,-1.47
415.96,-8.13,-6.65,-8.14,-6.66,6.66,7.08,6.21,-1.47,-1.48,-1.48
420.12,-8.17,-6.69,-8.18,-6.69,6.69,7.12,6.37,-1.48,-1.49,-1.48
424.32,-8.22,-6.73,-8.22,-6.73,6.73,7.15,6.52,-1.49,-1.49,-1.49
428.56,-8.26,-6.76,-8.26,-6.77,6.77,7.17,6.68,-1.49,-1.49,-1.50
432.85,-8.29,-6.79,-8.30,-6.80,6.80,7.19,6.83,-1.49,-1.49,-1.50
437.18,-8.32,-6.82,-8.33,-6.83,6.83,7.21,6.98,-1.49,-1.50,-1.50
441.55,-8.34,-6.85,-8.35,-6.86,6.86,7.21,7.13,-1.48,-1.50,-1.49
445.96,-8.37,-6.88,-8.38,-6.88,6.88,7.21,7.27,-1.49,-1.50,-1.49
450.42,-8.41,-6.91,-8.39,-6.90,6.90,7.20,7.40,-1.51,-1.49,-1.50
454.93,-8.43,-6.94,-8.40,-6.91,6.91,7.19,7.53,-1.52,-1.49,-1.49
459.48,-8.43,-6.94,-8.41,-6.92,6.92,7.17,7.65,-1.51,-1.49,-1.49
464.07,-8.42,-6.94,-8.40,-6.92,6.92,7.14,7.75,-1.50,-1.48,-1.49
468.71,-8.41,-6.93,-8.39,-6.91,6.91,7.11,7.85,-1.50,-1.48,-1.48
473.40,-8.37,-6.89,-8.38,-6.90,6.90,7.07,7.93,-1.47,-1.48,-1.48
478.13,-8.35,-6.88,-8.35,-6.88,6.88,7.03,8.00,-1.47,-1.47,-1.47
482.91,-8.33,-6.86,-8.33,-6.86,6.86,6.98,8.05,-1.47,-1.46,-1.47
487.74,-8.29,-6.83,-8.29,-6.83,6.83,6.93,8.09,-1.46,-1.46,-1.46
492.62,-8.25,-6.80,-8.25,-6.80,6.80,6.87,8.11,-1.45,-1.46,-1.45
497.55,-8.20,-6.75,-8.21,-6.76,6.76,6.81,8.11,-1.44,-1.45,-1.45
502.52,-8.15,-6.71,-8.16,-6.71,6.71,6.74,8.10,-1.44,-1.44,-1.44
507.55,-8.10,-6.66,-8.11,-6.67,6.67,6.67,8.07,-1.43,-1.44,-1.44
