frequency,raw,error,smoothed,error_smoothed,equalization,parametric_eq,fixed_band_eq,equalized_raw,equalized_smoothed,target
20.00,-19.00,-22.81,-19.01,-22.84,22.84,21.56,10.29,3.84,3.84,3.81
20.20,-18.85,-22.75,-18.85,-22.77,22.77,22.02,10.47,3.91,3.91,3.90
20.40,-18.70,-22.68,-18.70,-22.69,22.69,22.44,10.66,3.99,3.99,3.98
20.61,-18.56,-22.61,-18.55,-22.61,22.61,22.80,10.86,4.05,4.06,4.05
20.81,-18.40,-22.54,-18.40,-22.53,22.53,23.09,11.05,4.13,4.13,4.14
21.02,-18.25,-22.47,-18.25,-22.44,22.44,23.31,11.26,4.19,4.19,4.22
21.23,-18.09,-22.37,-18.09,-22.35,22.35,23.43,11.47,4.26,4.26,4.28
21.44,-17.94,-22.28,-17.94,-22.26,22.26,23.48,11.68,4.32,4.32,4.34
21.66,-17.78,-22.18,-17.79,-22.16,22.16,23.45,11.90,4.38,4.38,4.39
21.87,-17.63,-22.07,-17.63,-22.07,22.07,23.34,12.13,4.44,4.43,4.44
22.09,-17.47,-21.96,-17.48,-21.97,21.97,23.18,12.36,4.50,4.49,4.49
22.31,-17.32,-21.86,-17.32,-21.86,21.86,22.97,12.60,4.54,4.54,4.54
22.54,-17.17,-21.76,-17.17,-21.75,21.75,22.73,12.84,4.58,4.58,4.58
22.76,-17.01,-21.63,-17.01,-21.64,21.64,22.47,13.10,4.63,4.62,4.62
22.99,-16.86,-21.51,-16.86,-21.52,21.52,22.19,13.36,4.66,4.66,4.65
23.22,-16.70,-21.39,-16.70,-21.40,21.40,21.91,13.62,4.70,4.70,4.69
23.45,-16.54,-21.27,-16.54,-21.28,21.28,21.62,13.90,4.74,4.74,4.73
23.69,-16.39,-21.17,-16.39,-21.16,21.16,21.34,14.19,4.77,4.78,4.77
23.92,-16.23,-21.04,-16.23,-21.04,21.04,21.06,14.48,4.81,4.81,4.81
24.16,-16.07,-20.93,-16.07,-20.92,20.92,20.78,14.79,4.85,4.85,4.86
24.40,-15.91,-20.80,-15.92,-20.80,20.80,20.52,15.10,4.89,4.88,4.89
24.65,-15.76,-20.67,-15.76,-20.67,20.67,20.27,15.43,4.91,4.91,4.91
24.89,-15.60,-20.54,-15.60,-20.55,20.55,20.03,15.77,4.95,4.95,4.94
25.14,-15.44,-20.42,-15.44,-20.42,20.42,19.80,16.13,4.98,4.98,4.98
25.39,-15.28,-20.29,-15.28,-20.30,20.30,19.58,16.49,5.02,5.01,5.01
25.65,-15.12,-20.17,-15.12,-20.17,20.17,19.37,16.87,5.05,5.05,5.05
25.91,-14.97,-20.04,-14.96,-20.04,20.04,19.18,17.27,5.08,5.08,5.07
26.16,-14.80,-19.90,-14.80,-19.91,19.91,18.99,17.69,5.11,5.11,5.10
26.43,-14.64,-19.79,-14.64,-19.78,19.78,18.82,18.12,5.14,5.14,5.14
26.69,-14.48,-19.65,-14.48,-19.65,19.65,18.65,18.57,5.17,5.17,5.17
26.96,-14.33,-19.53,-14.32,-19.52,19.52,18.50,19.05,5.19,5.20,5.20
27.23,-14.16,-19.40,-14.16,-19.39,19.39,18.35,19.54,5.23,5.23,5.23
27.50,-14.00,-19.26,-14.00,-19.26,19.26,18.22,20.06,5.26,5.26,5.26
27.77,-13.84,-19.12,-13.84,-19.13,19.13,18.09,20.60,5.29,5.29,5.28
28.05,-13.68,-19.00,-13.68,-19.00,19.00,17.97,21.17,5.32,5.32,5.32
28.33,-13.52,-18.86,-13.52,-18.87,18.87,17.86,21.76,5.35,5.35,5.34
28.62,-13.36,-18.74,-13.36,-18.74,18.74,17.75,22.38,5.38,5.38,5.37
28.90,-13.20,-18.61,-13.21,-18.61,18.61,17.66,23.02,5.41,5.41,5.41
29.19,-13.05,-18.48,-13.05,-18.49,18.49,17.57,23.67,5.43,5.44,5.43
29.48,-12.89,-18.37,-12.89,-18.36,18.36,17.48,24.32,5.47,5.47,5.48
29.78,-12.73,-18.22,-12.74,-18.23,18.23,17.40,24.97,5.50,5.49,5.49
30.08,-12.58,-18.10,-12.58,-18.11,18.11,17.32,25.57,5.53,5.52,5.52
30.38,-12.42,-17.98,-12.43,-17.98,17.98,17.25,26.11,5.56,5.55,5.55
30.68,-12.28,-17.86,-12.28,-17.86,17.86,17.18,26.53,5.57,5.58,5.58
30.99,-12.13,-17.74,-12.13,-17.73,17.73,17.11,26.80,5.60,5.60,5.60
31.30,-11.98,-17.61,-11.98,-17.61,17.61,17.05,26.89,5.63,5.63,5.62
31.61,-11.83,-17.48,-11.84,-17.49,17.49,16.98,26.77,5.65,5.65,5.65
31.93,-11.68,-17.36,-11.69,-17.36,17.36,16.92,26.48,5.68,5.68,5.67
32.24,-11.54,-17.23,-11.54,-17.24,17.24,16.85,26.04,5.70,5.70,5.69
32.57,-11.39,-17.11,-11.39,-17.11,17.11,16.79,25.49,5.72,5.72,5.72
32.89,-11.25,-16.99,-11.25,-16.98,16.98,16.72,24.88,5.73,5.74,5.74
33.22,-11.10,-16.86,-11.10,-16.86,16.86,16.65,24.23,5.76,5.76,5.76
33.55,-10.95,-16.73,-10.95,-16.73,16.73,16.57,23.57,5.78,5.78,5.78
33.89,-10.80,-16.59,-10.80,-16.59,16.59,16.49,22.92,5.79,5.79,5.79
34.23,-10.65,-16.46,-10.65,-16.46,16.46,16.40,22.29,5.80,5.81,5.81
34.57,-10.50,-16.32,-10.50,-16.32,16.32,16.31,21.67,5.82,5.82,5.82
34.92,-10.35,-16.19,-10.35,-16.18,16.18,16.21,21.08,5.83,5.83,5.83
35.27,-10.19,-16.05,-10.20,-16.04,16.04,16.11,20.52,5.85,5.84,5.85
35.62,-10.04,-15.88,-10.05,-15.90,15.90,16.00,19.98,5.85,5.85,5.84
35.97,-9.89,-15.74,-9.90,-15.75,15.75,15.88,19.46,5.86,5.86,5.85
36.33,-9.74,-15.61,-9.74,-15.60,15.60,15.75,18.97,5.86,5.86,5.87
36.70,-9.59,-15.45,-9.59,-15.45,15.45,15.61,18.50,5.86,5.86,5.86
37.06,-9.43,-15.29,-9.44,-15.30,15.30,15.46,18.05,5.87,5.86,5.86
37.43,-9.28,-15.14,-9.28,-15.15,15.15,15.31,17.62,5.87,5.86,5.86
37.81,-9.13,-14.99,-9.13,-14.99,14.99,15.15,17.20,5.86,5.86,5.86
38.19,-8.97,-14.83,-8.97,-14.83,14.83,14.98,16.81,5.86,5.86,5.86
38.57,-8.82,-14.68,-8.81,-14.67,14.67,14.80,16.43,5.85,5.86,5.86
38.95,-8.66,-14.52,-8.66,-14.51,14.51,14.62,16.06,5.85,5.85,5.86
39.34,-8.50,-14.34,-8.50,-14.35,14.35,14.43,15.71,5.85,5.85,5.84
39.74,-8.34,-14.18,-8.34,-14.19,14.19,14.23,15.37,5.84,5.84,5.84
40.14,-8.18,-14.02,-8.18,-14.02,14.02,14.03,15.04,5.84,5.84,5.83
40.54,-8.01,-13.85,-8.02,-13.85,13.85,13.82,14.73,5.84,5.83,5.83
40.94,-7.85,-13.67,-7.86,-13.68,13.68,13.61,14.42,5.83,5.83,5.82
41.35,-7.69,-13.51,-7.70,-13.51,13.51,13.40,14.13,5.82,5.82,5.82
41.76,-7.53,-13.34,-7.53,-13.34,13.34,13.18,13.84,5.81,5.81,5.81
42.18,-7.37,-13.17,-7.37,-13.17,13.17,12.96,13.57,5.80,5.80,5.80
42.60,-7.21,-13.00,-7.20,-12.99,12.99,12.74,13.30,5.78,5.79,5.79
43.03,-7.05,-12.84,-7.04,-12.82,12.82,12.52,13.04,5.76,5.78,5.79
43.46,-6.87,-12.65,-6.87,-12.64,12.64,12.29,12.79,5.77,5.77,5.78
43.90,-6.70,-12.47,-6.70,-12.46,12.46,12.07,12.54,5.76,5.76,5.76
44.33,-6.53,-12.27,-6.54,-12.29,12.29,11.85,12.30,5.76,5.75,5.74
44.78,-6.36,-12.09,-6.37,-12.11,12.11,11.63,12.07,5.75,5.74,5.73
45.23,-6.20,-11.93,-6.20,-11.93,11.93,11.40,11.85,5.73,5.73,5.72
45.68,-6.04,-11.75,-6.04,-11.75,11.75,11.19,11.63,5.71,5.72,5.71
46.13,-5.87,-11.57,-5.87,-11.58,11.58,10.97,11.42,5.70,5.71,5.70
46.60,-5.70,-11.41,-5.70,-11.40,11.40,10.75,11.21,5.70,5.70,5.70
47.06,-5.53,-11.22,-5.54,-11.23,11.23,10.54,11.00,5.69,5.69,5.69
47.53,-5.37,-11.05,-5.37,-11.05,11.05,10.33,10.81,5.68,5.68,5.68
48.01,-5.21,-10.89,-5.21,-10.88,10.88,10.12,10.61,5.67,5.67,5.68
48.49,-5.05,-10.72,-5.05,-10.72,10.72,9.91,10.42,5.66,5.66,5.67
48.97,-4.90,-10.56,-4.90,-10.55,10.55,9.71,10.24,5.65,5.66,5.66
49.46,-4.74,-10.38,-4.74,-10.40,10.40,9.51,10.06,5.66,5.65,5.64
49.96,-4.58,-10.21,-4.59,-10.24,10.24,9.31,9.88,5.66,5.65,5.63
50.46,-4.44,-10.08,-4.44,-10.09,10.09,9.12,9.71,5.64,5.65,5.64
50.96,-4.29,-9.93,-4.30,-9.94,9.94,8.93,9.54,5.65,5.64,5.64
51.47,-4.15,-9.78,-4.16,-9.79,9.79,8.74,9.37,5.64,5.64,5.63
51.99,-4.00,-9.63,-4.02,-9.65,9.65,8.55,9.21,5.65,5.63,5.63
52.51,-3.87,-9.50,-3.88,-9.51,9.51,8.37,9.05,5.64,5.63,5.63
53.03,-3.74,-9.37,-3.75,-9.37,9.37,8.19,8.89,5.63,5.62,5.63
53.56,-3.63,-9.26,-3.62,-9.24,9.24,8.02,8.73,5.61,5.62,5.63
54.10,-3.51,-9.13,-3.50,-9.11,9.11,7.85,8.58,5.60,5.61,5.62
54.64,-3.37,-8.98,-3.38,-8.98,8.98,7.68,8.43,5.61,5.61,5.61
55.18,-3.24,-8.84,-3.26,-8.86,8.86,7.51,8.29,5.62,5.60,5.60
55.74,-3.13,-8.71,-3.14,-8.73,8.73,7.35,8.14,5.60,5.59,5.58
56.29,-3.02,-8.60,-3.03,-8.61,8.61,7.19,8.00,5.59,5.58,5.58
56.86,-2.90,-8.46,-2.92,-8.48,8.48,7.04,7.86,5.58,5.56,5.56
57.42,-2.79,-8.33,-2.81,-8.36,8.36,6.88,7.72,5.56,5.55,5.54
58.00,-2.69,-8.22,-2.69,-8.22,8.22,6.73,7.58,5.53,5.53,5.53
58.58,-2.58,-8.09,-2.58,-8.09,8.09,6.59,7.44,5.51,5.51,5.51
59.16,-2.47,-7.97,-2.46,-7.95,7.95,6.44,7.31,5.48,5.49,5.50
59.76,-2.35,-7.83,-2.34,-7.81,7.81,6.30,7.18,5.45,5.47,5.48
60.35,-2.23,-7.68,-2.22,-7.66,7.66,6.16,7.05,5.43,5.44,5.45
60.96,-2.10,-7.54,-2.09,-7.51,7.51,6.03,6.91,5.40,5.42,5.44
61.57,-1.96,-7.35,-1.95,-7.35,7.35,5.90,6.79,5.39,5.40,5.39
62.18,-1.83,-7.19,-1.81,-7.19,7.19,5.77,6.66,5.35,5.37,5.36
62.80,-1.68,-7.03,-1.67,-7.02,7.02,5.64,6.53,5.34,5.35,5.35
63.43,-1.52,-6.83,-1.52,-6.85,6.85,5.51,6.40,5.32,5.33,5.31
64.07,-1.36,-6.65,-1.36,-6.67,6.67,5.39,6.28,5.30,5.31,5.29
64.71,-1.20,-6.48,-1.20,-6.49,6.49,5.27,6.15,5.28,5.29,5.28
65.35,-1.03,-6.29,-1.03,-6.30,6.30,5.15,6.03,5.27,5.27,5.26
66.01,-0.86,-6.11,-0.86,-6.12,6.12,5.04,5.91,5.26,5.26,5.25
66.67,-0.69,-5.93,-0.69,-5.93,5.93,4.92,5.78,5.24,5.24,5.24
67.33,-0.52,-5.75,-0.52,-5.75,5.75,4.81,5.66,5.23,5.23,5.23
68.01,-0.35,-5.57,-0.34,-5.56,5.56,4.70,5.54,5.21,5.22,5.22
68.69,-0.17,-5.38,-0.17,-5.38,5.38,4.60,5.42,5.21,5.21,5.21
69.37,-0.00,-5.21,0.01,-5.20,5.20,4.49,5.30,5.20,5.21,5.21
70.07,0.18,-5.02,0.18,-5.02,5.02,4.39,5.18,5.20,5.20,5.20
70.77,0.35,-4.85,0.35,-4.85,4.85,4.29,5.06,5.19,5.19,5.20
71.48,0.52,-4.67,0.51,-4.67,4.67,4.19,4.94,5.19,5.18,5.19
72.19,0.68,-4.49,0.66,-4.51,4.51,4.09,4.82,5.19,5.17,5.17
72.91,0.83,-4.34,0.81,-4.35,4.35,4.00,4.70,5.18,5.16,5.17
73.64,0.97,-4.18,0.95,-4.20,4.20,3.90,4.58,5.17,5.15,5.15
74.38,1.10,-4.04,1.09,-4.05,4.05,3.81,4.47,5.15,5.14,5.14
75.12,1.24,-3.88,1.21,-3.91,3.91,3.72,4.35,5.15,5.12,5.12
75.87,1.35,-3.76,1.33,-3.78,3.78,3.63,4.23,5.13,5.11,5.11
76.63,1.45,-3.65,1.44,-3.66,3.66,3.54,4.12,5.10,5.10,5.10
77.40,1.54,-3.54,1.54,-3.54,3.54,3.46,4.00,5.08,5.08,5.08
78.17,1.63,-3.43,1.64,-3.43,3.43,3.37,3.89,5.06,5.07,5.06
78.95,1.72,-3.34,1.73,-3.33,3.33,3.29,3.77,5.05,5.06,5.06
79.74,1.80,-3.25,1.81,-3.24,3.24,3.20,3.66,5.04,5.05,5.05
80.54,1.89,-3.15,1.89,-3.16,3.16,3.12,3.54,5.04,5.05,5.04
81.35,1.97,-3.06,1.96,-3.08,3.08,3.04,3.43,5.04,5.04,5.03
82.16,2.04,-2.98,2.03,-3.00,3.00,2.96,3.31,5.04,5.03,5.02
82.98,2.11,-2.92,2.10,-2.93,2.93,2.88,3.20,5.04,5.03,5.03
83.81,2.17,-2.85,2.16,-2.87,2.87,2.80,3.09,5.04,5.03,5.02
84.65,2.23,-2.78,2.22,-2.80,2.80,2.73,2.97,5.03,5.02,5.01
85.50,2.28,-2.74,2.28,-2.74,2.74,2.65,2.86,5.02,5.02,5.02
86.35,2.34,-2.68,2.34,-2.68,2.68,2.57,2.74,5.02,5.02,5.02
87.22,2.38,-2.63,2.39,-2.62,2.62,2.50,2.63,5.00,5.01,5.01
88.09,2.44,-2.57,2.45,-2.56,2.56,2.43,2.52,5.00,5.01,5.01
88.97,2.49,-2.51,2.50,-2.49,2.49,2.35,2.40,4.98,5.00,5.00
89.86,2.55,-2.44,2.56,-2.43,2.43,2.28,2.29,4.98,4.98,4.99
90.76,2.61,-2.36,2.61,-2.36,2.36,2.20,2.17,4.96,4.97,4.97
91.66,2.68,-2.27,2.67,-2.28,2.28,2.13,2.06,4.96,4.95,4.95
92.58,2.73,-2.19,2.73,-2.19,2.19,2.06,1.94,4.92,4.92,4.92
93.51,2.78,-2.12,2.79,-2.10,2.10,1.99,1.83,4.88,4.89,4.90
94.44,2.85,-2.02,2.86,-2.00,2.00,1.91,1.72,4.85,4.86,4.87
95.39,2.92,-1.91,2.92,-1.90,1.90,1.84,1.60,4.82,4.82,4.83
96.34,2.98,-1.81,2.98,-1.79,1.79,1.77,1.49,4.77,4.78,4.79
97.30,3.04,-1.69,3.05,-1.68,1.68,1.69,1.38,4.72,4.73,4.73
98.28,3.11,-1.57,3.11,-1.57,1.57,1.62,1.26,4.68,4.68,4.68
99.26,3.18,-1.45,3.17,-1.46,1.46,1.55,1.15,4.64,4.63,4.63
100.25,3.25,-1.32,3.23,-1.35,1.35,1.47,1.04,4.59,4.57,4.57
101.25,3.32,-1.19,3.29,-1.23,1.23,1.40,0.92,4.55,4.52,4.51
102.27,3.38,-1.07,3.35,-1.11,1.11,1.32,0.81,4.49,4.46,4.45
103.29,3.41,-0.98,3.41,-0.99,0.99,1.24,0.70,4.40,4.40,4.39
104.32,3.45,-0.89,3.47,-0.87,0.87,1.17,0.60,4.32,4.34,4.34
105.37,3.50,-0.77,3.53,-0.75,0.75,1.09,0.49,4.25,4.28,4.27
106.42,3.56,-0.65,3.58,-0.63,0.63,1.01,0.38,4.19,4.22,4.21
107.48,3.62,-0.54,3.64,-0.52,0.52,0.93,0.28,4.13,4.16,4.16
108.56,3.68,-0.42,3.70,-0.40,0.40,0.84,0.18,4.08,4.10,4.10
109.64,3.75,-0.29,3.76,-0.29,0.29,0.76,0.08,4.03,4.05,4.04
110.74,3.82,-0.17,3.82,-0.17,0.17,0.67,-0.02,3.99,3.99,3.99
111.85,3.89,-0.06,3.87,-0.07,0.07,0.59,-0.11,3.96,3.94,3.95
112.97,3.94,0.06,3.92,0.04,-0.04,0.50,-0.20,3.90,3.89,3.88
114.10,3.99,0.15,3.97,0.14,-0.14,0.41,-0.28,3.85,3.84,3.84
115.24,4.05,0.26,4.02,0.23,-0.23,0.32,-0.36,3.82,3.79,3.79
116.39,4.07,0.33,4.07,0.31,-0.31,0.22,-0.44,3.75,3.75,3.74
117.55,4.11,0.41,4.10,0.39,-0.39,0.13,-0.51,3.72,3.71,3.70
118.73,4.14,0.48,4.13,0.46,-0.46,0.03,-0.58,3.68,3.67,3.66
119.92,4.17,0.54,4.15,0.52,-0.52,-0.06,-0.64,3.65,3.64,3.63
121.12,4.18,0.58,4.17,0.57,-0.57,-0.16,-0.70,3.61,3.60,3.60
122.33,4.19,0.62,4.18,0.61,-0.61,-0.26,-0.75,3.58,3.57,3.57
123.55,4.20,0.66,4.19,0.65,-0.65,-0.36,-0.80,3.55,3.54,3.54
124.79,4.21,0.70,4.20,0.69,-0.69,-0.46,-0.84,3.52,3.51,3.51
126.03,4.20,0.71,4.20,0.72,-0.72,-0.55,-0.87,3.48,3.48,3.49
127.29,4.19,0.73,4.20,0.75,-0.75,-0.65,-0.90,3.44,3.45,3.46
128.57,4.18,0.76,4.20,0.78,-0.78,-0.74,-0.92,3.40,3.43,3.42
129.85,4.18,0.78,4.20,0.81,-0.81,-0.83,-0.94,3.37,3.40,3.40
131.15,4.18,0.81,4.20,0.83,-0.83,-0.91,-0.96,3.34,3.37,3.37
132.46,4.19,0.86,4.20,0.86,-0.86,-0.99,-0.96,3.33,3.34,3.33
133.79,4.20,0.89,4.20,0.89,-0.89,-1.06,-0.97,3.31,3.31,3.31
135.12,4.20,0.92,4.20,0.92,-0.92,-1.13,-0.96,3.28,3.28,3.28
136.48,4.20,0.95,4.19,0.94,-0.94,-1.18,-0.96,3.25,3.25,3.25
137.84,4.19,0.97,4.18,0.97,-0.97,-1.23,-0.95,3.22,3.21,3.22
139.22,4.18,1.01,4.17,0.99,-0.99,-1.27,-0.93,3.19,3.18,3.17
140.61,4.17,1.03,4.16,1.01,-1.01,-1.30,-0.91,3.16,3.15,3.14
142.02,4.15,1.03,4.14,1.03,-1.03,-1.32,-0.89,3.12,3.11,3.12
143.44,4.13,1.05,4.12,1.04,-1.04,-1.32,-0.87,3.09,3.08,3.08
144.87,4.09,1.05,4.09,1.04,-1.04,-1.32,-0.85,3.05,3.04,3.04
146.32,4.06,1.06,4.05,1.04,-1.04,-1.31,-0.82,3.02,3.01,3.00
147.78,4.01,1.04,4.01,1.04,-1.04,-1.29,-0.79,2.97,2.97,2.97
149.26,3.97,1.03,3.96,1.03,-1.03,-1.26,-0.76,2.94,2.93,2.94
150.75,3.91,1.02,3.91,1.02,-1.02,-1.22,-0.73,2.89,2.89,2.89
152.26,3.86,1.01,3.85,1.00,-1.00,-1.18,-0.69,2.86,2.85,2.85
153.78,3.80,0.98,3.79,0.98,-0.98,-1.13,-0.66,2.82,2.81,2.82
155.32,3.74,0.97,3.72,0.95,-0.95,-1.08,-0.63,2.78,2.77,2.77
156.88,3.65,0.91,3.65,0.93,-0.93,-1.02,-0.59,2.72,2.73,2.74
158.44,3.58,0.90,3.58,0.89,-0.89,-0.96,-0.56,2.68,2.68,2.68
160.03,3.49,0.85,3.50,0.86,-0.86,-0.90,-0.52,2.63,2.64,2.64
161.63,3.43,0.84,3.42,0.82,-0.82,-0.84,-0.49,2.61,2.60,2.59
163.24,3.37,0.82,3.34,0.78,-0.78,-0.77,-0.46,2.59,2.56,2.55
164.88,3.26,0.75,3.25,0.74,-0.74,-0.71,-0.42,2.52,2.51,2.51
166.53,3.18,0.71,3.17,0.70,-0.70,-0.65,-0.39,2.48,2.47,2.47
168.19,3.11,0.68,3.09,0.66,-0.66,-0.58,-0.36,2.45,2.43,2.43
169.87,2.99,0.60,3.01,0.62,-0.62,-0.52,-0.32,2.36,2.39,2.39
171.57,2.92,0.56,2.94,0.59,-0.59,-0.46,-0.29,2.33,2.35,2.36
173.29,2.86,0.54,2.87,0.55,-0.55,-0.41,-0.26,2.31,2.32,2.32
175.02,2.78,0.50,2.80,0.52,-0.52,-0.35,-0.23,2.26,2.29,2.28
176.77,2.72,0.47,2.74,0.49,-0.49,-0.29,-0.20,2.23,2.26,2.25
178.54,2.66,0.44,2.68,0.46,-0.46,-0.24,-0.17,2.20,2.23,2.22
180.32,2.62,0.43,2.63,0.43,-0.43,-0.19,-0.15,2.19,2.20,2.19
182.13,2.59,0.42,2.58,0.40,-0.40,-0.14,-0.12,2.19,2.18,2.17
183.95,2.53,0.38,2.53,0.37,-0.37,-0.10,-0.09,2.15,2.15,2.15
185.79,2.50,0.37,2.48,0.35,-0.35,-0.05,-0.07,2.15,2.13,2.13
187.65,2.46,0.35,2.43,0.32,-0.32,-0.01,-0.04,2.14,2.11,2.11
189.52,2.40,0.30,2.38,0.29,-0.29,0.03,-0.02,2.11,2.10,2.10
191.42,2.35,0.27,2.33,0.25,-0.25,0.07,0.01,2.10,2.08,2.08
193.33,2.31,0.24,2.29,0.22,-0.22,0.11,0.03,2.09,2.07,2.07
195.27,2.26,0.20,2.24,0.19,-0.19,0.15,0.05,2.07,2.05,2.06
197.22,2.20,0.16,2.19,0.15,-0.15,0.19,0.08,2.04,2.04,2.04
199.19,2.15,0.13,2.15,0.12,-0.12,0.22,0.10,2.03,2.03,2.02
201.18,2.09,0.08,2.11,0.09,-0.09,0.25,0.12,2.00,2.02,2.01
203.19,2.04,0.03,2.07,0.06,-0.06,0.28,0.14,1.98,2.00,2.01
205.23,2.00,0.01,2.03,0.04,-0.04,0.31,0.16,1.96,1.99,1.99
207.28,1.97,-0.02,2.00,0.02,-0.02,0.34,0.18,1.95,1.98,1.99
209.35,1.96,-0.01,1.97,-0.00,0.00,0.37,0.20,1.96,1.97,1.97
211.44,1.95,-0.00,1.94,-0.02,0.02,0.40,0.22,1.96,1.96,1.95
213.56,1.92,-0.02,1.92,-0.03,0.03,0.43,0.24,1.95,1.95,1.94
215.69,1.89,-0.05,1.89,-0.04,0.04,0.45,0.26,1.93,1.93,1.94
217.85,1.87,-0.05,1.87,-0.05,0.05,0.48,0.28,1.92,1.92,1.92
220.03,1.86,-0.05,1.85,-0.06,0.06,0.51,0.30,1.92,1.91,1.91
222.23,1.84,-0.05,1.83,-0.07,0.07,0.53,0.32,1.91,1.90,1.89
224.45,1.82,-0.07,1.80,-0.08,0.08,0.55,0.34,1.90,1.88,1.89
226.70,1.79,-0.08,1.77,-0.10,0.10,0.58,0.36,1.88,1.87,1.87
228.96,1.76,-0.10,1.74,-0.11,0.11,0.60,0.38,1.87,1.86,1.86
231.25,1.72,-0.13,1.71,-0.13,0.13,0.62,0.40,1.85,1.84,1.85
233.57,1.68,-0.15,1.67,-0.16,0.16,0.65,0.42,1.84,1.83,1.83
235.90,1.62,-0.20,1.63,-0.19,0.19,0.67,0.45,1.80,1.81,1.82
238.26,1.59,-0.21,1.59,-0.21,0.21,0.69,0.47,1.80,1.80,1.80
240.64,1.54,-0.24,1.54,-0.25,0.25,0.71,0.49,1.78,1.79,1.78
243.05,1.50,-0.27,1.49,-0.28,0.28,0.73,0.52,1.78,1.78,1.77
245.48,1.44,-0.32,1.44,-0.33,0.33,0.76,0.54,1.76,1.77,1.76
247.93,1.37,-0.38,1.39,-0.37,0.37,0.78,0.56,1.74,1.76,1.75
250.41,1.33,-0.41,1.34,-0.42,0.42,0.80,0.59,1.75,1.76,1.74
252.92,1.29,-0.46,1.29,-0.47,0.47,0.82,0.62,1.76,1.75,1.75
255.45,1.25,-0.50,1.23,-0.52,0.52,0.84,0.64,1.77,1.76,1.75
258.00,1.20,-0.56,1.18,-0.58,0.58,0.86,0.67,1.78,1.76,1.76
260.58,1.13,-0.63,1.13,-0.64,0.64,0.89,0.70,1.76,1.77,1.76
263.19,1.08,-0.69,1.08,-0.70,0.70,0.91,0.73,1.78,1.78,1.77
265.82,1.01,-0.77,1.02,-0.76,0.76,0.93,0.76,1.77,1.79,1.78
268.48,0.96,-0.84,0.97,-0.83,0.83,0.95,0.79,1.79,1.80,1.80
271.16,0.92,-0.90,0.92,-0.90,0.90,0.98,0.82,1.81,1.81,1.82
273.87,0.87,-0.96,0.87,-0.96,0.96,1.00,0.86,1.83,1.83,1.83
276.61,0.83,-1.03,0.82,-1.03,1.03,1.02,0.89,1.86,1.84,1.86
279.38,0.77,-1.09,0.76,-1.10,1.10,1.04,0.93,1.87,1.86,1.86
282.17,0.72,-1.16,0.71,-1.16,1.16,1.07,0.97,1.88,1.88,1.88
284.99,0.67,-1.22,0.66,-1.23,1.23,1.09,1.00,1.90,1.89,1.89
287.84,0.60,-1.31,0.61,-1.30,1.30,1.12,1.04,1.89,1.91,1.91
290.72,0.56,-1.37,0.57,-1.36,1.36,1.14,1.08,1.92,1.93,1.93
293.63,0.52,-1.42,0.52,-1.43,1.43,1.16,1.12,1.94,1.95,1.94
296.57,0.48,-1.49,0.48,-1.49,1.49,1.19,1.16,1.97,1.97,1.97
299.53,0.43,-1.55,0.43,-1.55,1.55,1.21,1.21,1.98,1.99,1.98
302.53,0.38,-1.61,0.39,-1.62,1.62,1.24,1.25,2.00,2.01,1.99
305.55,0.34,-1.68,0.34,-1.68,1.68,1.27,1.30,2.02,2.03,2.02
308.61,0.30,-1.74,0.30,-1.75,1.75,1.29,1.34,2.05,2.05,2.04
311.69,0.26,-1.81,0.25,-1.82,1.82,1.32,1.39,2.07,2.07,2.07
314.81,0.23,-1.88,0.21,-1.88,1.88,1.35,1.44,2.11,2.09,2.11
317.96,0.19,-1.93,0.16,-1.95,1.95,1.38,1.49,2.14,2.11,2.12
321.14,0.13,-2.01,0.12,-2.02,2.02,1.41,1.54,2.15,2.14,2.14
324.35,0.08,-2.08,0.07,-2.09,2.09,1.43,1.60,2.17,2.16,2.16
327.59,0.03,-2.15,0.03,-2.16,2.16,1.46,1.65,2.19,2.18,2.18
330.87,-0.01,-2.21,-0.02,-2.23,2.23,1.49,1.71,2.21,2.21,2.20
334.18,-0.06,-2.29,-0.06,-2.29,2.29,1.52,1.76,2.23,2.23,2.23
337.52,-0.13,-2.38,-0.11,-2.36,2.36,1.56,1.82,2.23,2.26,2.25
340.90,-0.17,-2.44,-0.15,-2.43,2.43,1.59,1.88,2.26,2.28,2.27
344.30,-0.21,-2.51,-0.19,-2.49,2.49,1.62,1.95,2.28,2.30,2.30
347.75,-0.24,-2.56,-0.23,-2.56,2.56,1.65,2.01,2.32,2.32,2.32
351.23,-0.27,-2.62,-0.27,-2.62,2.62,1.69,2.07,2.35,2.35,2.35
354.74,-0.29,-2.67,-0.31,-2.68,2.68,1.72,2.14,2.39,2.37,2.38
358.28,-0.32,-2.71,-0.34,-2.74,2.74,1.76,2.21,2.42,2.40,2.39
361.87,-0.37,-2.79,-0.38,-2.80,2.80,1.79,2.28,2.43,2.42,2.42
365.49,-0.41,-2.86,-0.41,-2.86,2.86,1.83,2.35,2.45,2.45,2.45
369.14,-0.44,-2.90,-0.45,-2.92,2.92,1.87,2.42,2.47,2.47,2.46
372.83,-0.48,-2.97,-0.48,-2.97,2.97,1.90,2.50,2.49,2.49,2.49
376.56,-0.51,-3.02,-0.51,-3.02,3.02,1.94,2.57,2.51,2.51,2.51
380.33,-0.53,-3.07,-0.54,-3.07,3.07,1.98,2.65,2.54,2.54,2.54
384.13,-0.56,-3.11,-0.57,-3.12,3.12,2.02,2.73,2.56,2.55,2.55
387.97,-0.59,-3.16,-0.59,-3.16,3.16,2.06,2.81,2.57,2.57,2.57
391.85,-0.62,-3.20,-0.61,-3.20,3.20,2.10,2.89,2.58,2.59,2.58
395.77,-0.65,-3.26,-0.63,-3.23,3.23,2.14,2.97,2.58,2.60,2.61
399.73,-0.67,-3.29,-0.65,-3.26,3.26,2.19,3.05,2.59,2.61,2.62
403.72,-0.68,-3.30,-0.66,-3.28,3.28,2.23,3.14,2.60,2.62,2.62
407.76,-0.68,-3.31,-0.67,-3.30,3.30,2.27,3.22,2.62,2.63,2.63
411.84,-0.69,-3.33,-0.69,-3.32,3.32,2.32,3.30,2.63,2.63,2.64
415.96,-0.69,-3.32,-0.70,-3.33,3.33,2.36,3.39,2.64,2.63,2.63
420.12,-0.69,-3.32,-0.71,-3.35,3.35,2.41,3.47,2.66,2.63,2.63
424.32,-0.71,-3.34,-0.73,-3.36,3.36,2.46,3.55,2.65,2.63,2.63
428.56,-0.72,-3.35,-0.75,-3.38,3.38,2.51,3.63,2.65,2.63,2.63
432.85,-0.75,-3.37,-0.77,-3.39,3.39,2.55,3.71,2.64,2.63,2.62
437.18,-0.78,-3.40,-0.79,-3.41,3.41,2.60,3.79,2.63,2.62,2.62
441.55,-0.81,-3.43,-0.81,-3.43,3.43,2.65,3.87,2.62,2.62,2.62
445.96,-0.84,-3.45,-0.84,-3.46,3.46,2.70,3.94,2.62,2.62,2.61
450.42,-0.87,-3.48,-0.88,-3.49,3.49,2.76,4.01,2.62,2.61,2.61
454.93,-0.90,-3.51,-0.91,-3.52,3.52,2.81,4.08,2.62,2.61,2.61
459.48,-0.94,-3.54,-0.94,-3.55,3.55,2.86,4.14,2.61,2.61,2.60
464.07,-0.98,-3.59,-0.98,-3.59,3.59,2.91,4.20,2.61,2.61,2.61
468.71,-1.02,-3.63,-1.02,-3.62,3.62,2.97,4.26,2.60,2.61,2.61
473.40,-1.06,-3.66,-1.05,-3.66,3.66,3.02,4.31,2.60,2.61,2.60
478.13,-1.10,-3.71,-1.09,-3.70,3.70,3.08,4.35,2.60,2.61,2.61
482.91,-1.13,-3.73,-1.13,-3.73,3.73,3.13,4.39,2.60,2.61,2.60
487.74,-1.16,-3.77,-1.16,-3.77,3.77,3.19,4.43,2.61,2.61,2.61
492.62,-1.18,-3.80,-1.19,-3.81,3.81,3.24,4.45,2.62,2.61,2.62
