frequency,raw,error,smoothed,error_smoothed,equalization,parametric_eq,fixed_band_eq,equalized_raw,equalized_smoothed,target
20.00,-6.80,-10.12,-6.79,-10.14,10.14,10.10,4.23,3.34,3.34,3.32
20.20,-6.75,-10.11,-6.75,-10.12,10.12,10.09,4.35,3.38,3.37,3.36
20.40,-6.71,-10.11,-6.70,-10.11,10.11,10.08,4.46,3.40,3.40,3.40
20.61,-6.66,-10.09,-6.66,-10.09,10.09,10.07,4.58,3.43,3.43,3.43
20.81,-6.61,-10.08,-6.61,-10.07,10.07,10.06,4.71,3.46,3.46,3.47
21.02,-6.57,-10.08,-6.57,-10.05,10.05,10.05,4.83,3.48,3.48,3.51
21.23,-6.52,-10.05,-6.52,-10.03,10.03,10.03,4.96,3.51,3.51,3.53
21.44,-6.48,-10.03,-6.48,-10.01,10.01,10.02,5.10,3.53,3.53,3.55
21.66,-6.43,-10.00,-6.43,-9.98,9.98,10.00,5.23,3.55,3.55,3.57
21.87,-6.39,-9.96,-6.38,-9.95,9.95,9.99,5.37,3.57,3.57,3.58
22.09,-6.34,-9.93,-6.34,-9.93,9.93,9.97,5.52,3.59,3.59,3.60
22.31,-6.29,-9.89,-6.29,-9.89,9.89,9.95,5.67,3.61,3.60,3.60
22.54,-6.25,-9.86,-6.25,-9.86,9.86,9.93,5.82,3.61,3.61,3.61
22.76,-6.20,-9.82,-6.20,-9.82,9.82,9.91,5.98,3.63,3.62,3.62
22.99,-6.15,-9.77,-6.15,-9.79,9.79,9.88,6.14,3.64,3.63,3.62
23.22,-6.11,-9.74,-6.11,-9.75,9.75,9.86,6.30,3.64,3.64,3.63
23.45,-6.06,-9.70,-6.06,-9.71,9.71,9.83,6.47,3.65,3.65,3.64
23.69,-6.01,-9.66,-6.01,-9.67,9.67,9.81,6.64,3.66,3.66,3.65
23.92,-5.97,-9.63,-5.96,-9.63,9.63,9.78,6.82,3.66,3.67,3.66
24.16,-5.92,-9.60,-5.91,-9.59,9.59,9.75,7.00,3.67,3.68,3.68
24.40,-5.87,-9.57,-5.87,-9.55,9.55,9.72,7.19,3.68,3.69,3.70
24.65,-5.82,-9.52,-5.82,-9.51,9.51,9.69,7.37,3.69,3.69,3.70
24.89,-5.77,-9.47,-5.77,-9.48,9.48,9.66,7.56,3.71,3.71,3.71
25.14,-5.72,-9.43,-5.72,-9.44,9.44,9.63,7.76,3.72,3.72,3.72
25.39,-5.67,-9.39,-5.67,-9.40,9.40,9.60,7.96,3.73,3.73,3.72
25.65,-5.63,-9.37,-5.63,-9.36,9.36,9.56,8.16,3.73,3.74,3.74
25.91,-5.58,-9.32,-5.58,-9.32,9.32,9.53,8.36,3.74,3.75,3.74
26.16,-5.53,-9.28,-5.53,-9.29,9.29,9.49,8.56,3.76,3.76,3.75
26.43,-5.48,-9.24,-5.48,-9.25,9.25,9.46,8.76,3.77,3.76,3.76
26.69,-5.44,-9.21,-5.43,-9.21,9.21,9.42,8.97,3.77,3.77,3.77
26.96,-5.39,-9.18,-5.39,-9.17,9.17,9.38,9.17,3.78,3.78,3.79
27.23,-5.34,-9.13,-5.34,-9.13,9.13,9.34,9.37,3.79,3.79,3.80
27.50,-5.29,-9.09,-5.29,-9.09,9.09,9.30,9.57,3.80,3.80,3.80
27.77,-5.25,-9.05,-5.24,-9.05,9.05,9.26,9.76,3.80,3.81,3.80
28.05,-5.20,-9.02,-5.20,-9.01,9.01,9.22,9.95,3.81,3.81,3.82
28.33,-5.15,-8.97,-5.15,-8.97,8.97,9.18,10.12,3.82,3.82,3.82
28.62,-5.10,-8.93,-5.10,-8.93,8.93,9.14,10.29,3.83,3.83,3.83
28.90,-5.06,-8.89,-5.05,-8.89,8.89,9.09,10.45,3.83,3.84,3.84
29.19,-5.01,-8.84,-5.01,-8.85,8.85,9.05,10.60,3.85,3.84,3.83
29.48,-4.96,-8.82,-4.97,-8.82,8.82,9.00,10.73,3.86,3.85,3.86
29.78,-4.92,-8.78,-4.92,-8.78,8.78,8.96,10.85,3.86,3.86,3.86
30.08,-4.87,-8.74,-4.88,-8.74,8.74,8.91,10.94,3.87,3.86,3.87
30.38,-4.83,-8.69,-4.83,-8.70,8.70,8.86,11.02,3.87,3.87,3.87
30.68,-4.79,-8.67,-4.79,-8.67,8.67,8.82,11.08,3.88,3.88,3.88
30.99,-4.75,-8.63,-4.75,-8.63,8.63,8.77,11.12,3.88,3.88,3.88
31.30,-4.71,-8.60,-4.70,-8.60,8.60,8.72,11.13,3.89,3.89,3.89
31.61,-4.67,-8.57,-4.66,-8.56,8.56,8.67,11.13,3.89,3.90,3.90
31.93,-4.63,-8.53,-4.62,-8.53,8.53,8.62,11.10,3.90,3.91,3.90
32.24,-4.59,-8.49,-4.58,-8.49,8.49,8.57,11.05,3.91,3.91,3.90
32.57,-4.54,-8.46,-4.54,-8.46,8.46,8.52,10.98,3.92,3.92,3.92
32.89,-4.49,-8.41,-4.50,-8.42,8.42,8.46,10.90,3.94,3.92,3.93
33.22,-4.45,-8.38,-4.46,-8.39,8.39,8.41,10.79,3.94,3.93,3.93
33.55,-4.41,-8.35,-4.42,-8.35,8.35,8.36,10.67,3.94,3.94,3.94
33.89,-4.37,-8.31,-4.37,-8.32,8.32,8.30,10.54,3.95,3.94,3.95
34.23,-4.33,-8.28,-4.33,-8.28,8.28,8.25,10.39,3.95,3.95,3.95
34.57,-4.29,-8.25,-4.28,-8.24,8.24,8.19,10.24,3.95,3.95,3.96
34.92,-4.25,-8.20,-4.24,-8.20,8.20,8.13,10.08,3.95,3.96,3.96
35.27,-4.20,-8.16,-4.19,-8.16,8.16,8.08,9.91,3.96,3.96,3.96
35.62,-4.15,-8.12,-4.15,-8.11,8.11,8.02,9.73,3.96,3.97,3.97
35.97,-4.10,-8.06,-4.10,-8.07,8.07,7.96,9.55,3.97,3.97,3.96
36.33,-4.05,-8.02,-4.05,-8.02,8.02,7.90,9.37,3.97,3.97,3.97
36.70,-4.00,-7.96,-4.00,-7.97,7.97,7.84,9.19,3.97,3.97,3.97
37.06,-3.95,-7.92,-3.94,-7.91,7.91,7.78,9.00,3.96,3.97,3.97
37.43,-3.89,-7.86,-3.89,-7.86,7.86,7.72,8.82,3.97,3.97,3.98
37.81,-3.83,-7.80,-3.83,-7.80,7.80,7.66,8.64,3.97,3.96,3.97
38.19,-3.77,-7.73,-3.77,-7.74,7.74,7.60,8.46,3.97,3.96,3.97
38.57,-3.71,-7.67,-3.71,-7.67,7.67,7.54,8.29,3.96,3.96,3.96
38.95,-3.66,-7.61,-3.65,-7.61,7.61,7.48,8.11,3.95,3.96,3.95
39.34,-3.59,-7.54,-3.59,-7.54,7.54,7.41,7.94,3.96,3.95,3.95
39.74,-3.52,-7.46,-3.52,-7.48,7.48,7.35,7.77,3.96,3.95,3.94
40.14,-3.46,-7.41,-3.46,-7.41,7.41,7.29,7.61,3.95,3.95,3.95
40.54,-3.39,-7.33,-3.39,-7.33,7.33,7.22,7.45,3.94,3.94,3.94
40.94,-3.33,-7.26,-3.32,-7.26,7.26,7.16,7.30,3.93,3.94,3.93
41.35,-3.26,-7.18,-3.25,-7.18,7.18,7.09,7.15,3.92,3.93,3.93
41.76,-3.18,-7.11,-3.18,-7.10,7.10,7.03,7.00,3.93,3.93,3.93
42.18,-3.11,-7.04,-3.10,-7.03,7.03,6.96,6.86,3.92,3.92,3.93
42.60,-3.03,-6.95,-3.03,-6.95,6.95,6.89,6.73,3.92,3.92,3.92
43.03,-2.95,-6.87,-2.95,-6.86,6.86,6.83,6.60,3.91,3.91,3.93
43.46,-2.87,-6.79,-2.87,-6.78,6.78,6.76,6.47,3.91,3.91,3.92
43.90,-2.79,-6.69,-2.79,-6.70,6.70,6.69,6.35,3.91,3.91,3.90
44.33,-2.71,-6.61,-2.71,-6.61,6.61,6.62,6.23,3.91,3.90,3.90
44.78,-2.63,-6.52,-2.63,-6.53,6.53,6.55,6.12,3.90,3.90,3.89
45.23,-2.55,-6.43,-2.55,-6.44,6.44,6.48,6.01,3.89,3.89,3.88
45.68,-2.47,-6.35,-2.47,-6.36,6.36,6.41,5.90,3.89,3.89,3.88
46.13,-2.39,-6.26,-2.39,-6.27,6.27,6.34,5.81,3.88,3.88,3.87
46.60,-2.31,-6.19,-2.32,-6.19,6.19,6.27,5.71,3.88,3.87,3.88
47.06,-2.24,-6.11,-2.24,-6.10,6.10,6.20,5.62,3.86,3.86,3.87
47.53,-2.16,-6.01,-2.16,-6.02,6.02,6.13,5.53,3.86,3.85,3.86
48.01,-2.09,-5.95,-2.09,-5.93,5.93,6.06,5.45,3.84,3.84,3.86
48.49,-2.02,-5.86,-2.01,-5.84,5.84,5.98,5.37,3.83,3.83,3.84
48.97,-1.94,-5.76,-1.94,-5.76,5.76,5.91,5.29,3.82,3.82,3.82
49.46,-1.87,-5.67,-1.87,-5.67,5.67,5.84,5.22,3.81,3.81,3.81
49.96,-1.80,-5.58,-1.80,-5.59,5.59,5.77,5.15,3.79,3.79,3.78
50.46,-1.73,-5.51,-1.73,-5.51,5.51,5.69,5.08,3.78,3.78,3.78
50.96,-1.66,-5.42,-1.66,-5.42,5.42,5.62,5.01,3.76,3.76,3.76
51.47,-1.59,-5.32,-1.60,-5.33,5.33,5.54,4.95,3.75,3.74,3.73
51.99,-1.52,-5.23,-1.53,-5.25,5.25,5.47,4.89,3.73,3.72,3.71
52.51,-1.46,-5.16,-1.46,-5.16,5.16,5.39,4.83,3.70,3.70,3.70
53.03,-1.41,-5.09,-1.40,-5.08,5.08,5.32,4.78,3.67,3.68,3.68
53.56,-1.35,-5.01,-1.34,-4.99,4.99,5.24,4.73,3.64,3.65,3.66
54.10,-1.29,-4.92,-1.27,-4.91,4.91,5.17,4.67,3.62,3.63,3.63
54.64,-1.22,-4.83,-1.22,-4.83,4.83,5.09,4.62,3.61,3.61,3.61
55.18,-1.16,-4.74,-1.16,-4.74,4.74,5.02,4.57,3.59,3.59,3.58
55.74,-1.10,-4.65,-1.10,-4.66,4.66,4.94,4.52,3.57,3.56,3.55
56.29,-1.04,-4.58,-1.04,-4.58,4.58,4.86,4.47,3.55,3.54,3.54
56.86,-0.98,-4.49,-0.99,-4.50,4.50,4.79,4.42,3.53,3.51,3.51
57.42,-0.93,-4.41,-0.94,-4.43,4.43,4.71,4.37,3.50,3.49,3.48
58.00,-0.88,-4.33,-0.89,-4.35,4.35,4.63,4.32,3.47,3.46,3.46
58.58,-0.83,-4.26,-0.83,-4.26,4.26,4.55,4.27,3.44,3.43,3.43
59.16,-0.79,-4.20,-0.78,-4.18,4.18,4.48,4.22,3.40,3.40,3.41
59.76,-0.75,-4.13,-0.74,-4.10,4.10,4.40,4.17,3.35,3.37,3.38
60.35,-0.70,-4.04,-0.69,-4.02,4.02,4.32,4.11,3.33,3.33,3.35
60.96,-0.65,-3.96,-0.65,-3.94,3.94,4.24,4.06,3.30,3.30,3.31
61.57,-0.61,-3.87,-0.61,-3.87,3.87,4.17,4.00,3.26,3.26,3.26
62.18,-0.57,-3.78,-0.56,-3.79,3.79,4.09,3.94,3.22,3.22,3.21
62.80,-0.52,-3.70,-0.53,-3.71,3.71,4.01,3.88,3.19,3.18,3.18
63.43,-0.48,-3.61,-0.49,-3.63,3.63,3.93,3.82,3.15,3.14,3.13
64.07,-0.44,-3.53,-0.45,-3.55,3.55,3.85,3.75,3.11,3.10,3.09
64.71,-0.41,-3.46,-0.41,-3.47,3.47,3.77,3.68,3.06,3.06,3.05
65.35,-0.38,-3.39,-0.38,-3.39,3.39,3.70,3.62,3.01,3.01,3.01
66.01,-0.34,-3.30,-0.34,-3.31,3.31,3.62,3.54,2.97,2.97,2.97
66.67,-0.31,-3.24,-0.31,-3.23,3.23,3.54,3.47,2.92,2.92,2.93
67.33,-0.28,-3.16,-0.27,-3.15,3.15,3.46,3.40,2.87,2.88,2.89
68.01,-0.25,-3.09,-0.24,-3.07,3.07,3.38,3.32,2.82,2.83,2.84
68.69,-0.21,-3.00,-0.20,-2.99,2.99,3.30,3.25,2.78,2.79,2.79
69.37,-0.17,-2.91,-0.16,-2.91,2.91,3.23,3.17,2.74,2.74,2.74
70.07,-0.14,-2.83,-0.13,-2.83,2.83,3.15,3.09,2.69,2.70,2.69
70.77,-0.09,-2.74,-0.09,-2.75,2.75,3.07,3.01,2.66,2.65,2.65
71.48,-0.06,-2.67,-0.06,-2.67,2.67,2.99,2.93,2.61,2.61,2.61
72.19,-0.03,-2.59,-0.02,-2.59,2.59,2.91,2.85,2.56,2.56,2.56
72.91,0.01,-2.51,0.01,-2.51,2.51,2.84,2.77,2.53,2.52,2.52
73.64,0.04,-2.43,0.04,-2.44,2.44,2.76,2.68,2.48,2.48,2.47
74.38,0.08,-2.36,0.06,-2.37,2.37,2.68,2.60,2.45,2.43,2.44
75.12,0.10,-2.29,0.09,-2.30,2.30,2.60,2.52,2.41,2.39,2.39
75.87,0.13,-2.22,0.12,-2.24,2.24,2.53,2.44,2.37,2.36,2.35
76.63,0.15,-2.16,0.14,-2.18,2.18,2.45,2.36,2.33,2.32,2.32
77.40,0.16,-2.12,0.16,-2.12,2.12,2.37,2.28,2.28,2.28,2.28
78.17,0.17,-2.07,0.18,-2.06,2.06,2.30,2.20,2.23,2.24,2.24
78.95,0.18,-2.02,0.20,-2.01,2.01,2.22,2.12,2.19,2.21,2.21
79.74,0.20,-1.97,0.22,-1.95,1.95,2.14,2.04,2.16,2.17,2.17
80.54,0.23,-1.91,0.24,-1.90,1.90,2.07,1.96,2.13,2.14,2.14
81.35,0.25,-1.86,0.25,-1.85,1.85,1.99,1.88,2.10,2.11,2.11
82.16,0.27,-1.80,0.27,-1.80,1.80,1.92,1.80,2.07,2.07,2.07
82.98,0.30,-1.75,0.29,-1.75,1.75,1.84,1.73,2.05,2.04,2.05
83.81,0.32,-1.69,0.31,-1.70,1.70,1.77,1.65,2.02,2.01,2.01
84.65,0.33,-1.64,0.34,-1.65,1.65,1.69,1.58,1.98,1.98,1.97
85.50,0.35,-1.60,0.36,-1.59,1.59,1.62,1.50,1.94,1.95,1.96
86.35,0.37,-1.56,0.39,-1.54,1.54,1.54,1.43,1.91,1.93,1.93
87.22,0.41,-1.49,0.42,-1.48,1.48,1.47,1.36,1.89,1.90,1.90
88.09,0.43,-1.43,0.44,-1.43,1.43,1.40,1.29,1.86,1.87,1.87
88.97,0.46,-1.38,0.47,-1.38,1.38,1.33,1.22,1.84,1.84,1.85
89.86,0.49,-1.33,0.49,-1.33,1.33,1.25,1.15,1.82,1.82,1.82
90.76,0.52,-1.26,0.51,-1.28,1.28,1.18,1.08,1.80,1.79,1.78
91.66,0.54,-1.22,0.53,-1.23,1.23,1.11,1.01,1.77,1.76,1.76
92.58,0.56,-1.16,0.55,-1.19,1.19,1.04,0.94,1.75,1.73,1.72
93.51,0.58,-1.13,0.56,-1.14,1.14,0.97,0.88,1.72,1.70,1.71
94.44,0.58,-1.09,0.57,-1.10,1.10,0.90,0.81,1.68,1.67,1.68
95.39,0.59,-1.06,0.58,-1.06,1.06,0.83,0.75,1.65,1.64,1.65
96.34,0.58,-1.02,0.58,-1.03,1.03,0.76,0.68,1.61,1.61,1.60
97.30,0.58,-0.99,0.58,-1.00,1.00,0.69,0.62,1.58,1.57,1.57
98.28,0.57,-0.96,0.57,-0.96,0.96,0.62,0.56,1.53,1.54,1.53
99.26,0.56,-0.93,0.57,-0.93,0.93,0.55,0.49,1.49,1.50,1.49
100.25,0.56,-0.90,0.56,-0.90,0.90,0.49,0.43,1.46,1.46,1.46
101.25,0.56,-0.86,0.56,-0.86,0.86,0.42,0.37,1.42,1.42,1.42
102.27,0.55,-0.82,0.55,-0.82,0.82,0.35,0.31,1.37,1.37,1.37
103.29,0.55,-0.77,0.55,-0.78,0.78,0.29,0.25,1.33,1.33,1.32
104.32,0.55,-0.74,0.56,-0.72,0.72,0.22,0.19,1.28,1.28,1.29
105.37,0.55,-0.69,0.57,-0.67,0.67,0.16,0.14,1.22,1.23,1.24
106.42,0.55,-0.63,0.58,-0.60,0.60,0.09,0.08,1.15,1.18,1.18
107.48,0.57,-0.56,0.59,-0.53,0.53,0.03,0.02,1.10,1.12,1.13
108.56,0.60,-0.46,0.61,-0.45,0.45,-0.03,-0.04,1.05,1.07,1.07
109.64,0.62,-0.39,0.64,-0.37,0.37,-0.10,-0.09,0.99,1.01,1.01
110.74,0.65,-0.30,0.67,-0.28,0.28,-0.16,-0.14,0.93,0.94,0.95
111.85,0.69,-0.19,0.69,-0.18,0.18,-0.22,-0.20,0.87,0.88,0.88
112.97,0.73,-0.08,0.72,-0.09,0.09,-0.28,-0.25,0.82,0.81,0.81
114.10,0.76,0.01,0.75,0.01,-0.01,-0.34,-0.30,0.75,0.74,0.75
115.24,0.80,0.13,0.78,0.11,-0.11,-0.40,-0.35,0.69,0.68,0.67
116.39,0.82,0.22,0.81,0.20,-0.20,-0.46,-0.40,0.62,0.61,0.60
117.55,0.84,0.31,0.84,0.30,-0.30,-0.52,-0.45,0.55,0.54,0.53
118.73,0.87,0.41,0.86,0.38,-0.38,-0.58,-0.50,0.49,0.47,0.46
119.92,0.89,0.49,0.87,0.47,-0.47,-0.63,-0.54,0.42,0.40,0.40
121.12,0.90,0.57,0.88,0.55,-0.55,-0.69,-0.59,0.35,0.34,0.33
122.33,0.91,0.64,0.89,0.62,-0.62,-0.75,-0.63,0.29,0.27,0.27
123.55,0.90,0.69,0.90,0.69,-0.69,-0.80,-0.68,0.21,0.21,0.21
124.79,0.90,0.75,0.90,0.76,-0.76,-0.86,-0.72,0.15,0.15,0.15
126.03,0.89,0.80,0.90,0.82,-0.82,-0.91,-0.76,0.07,0.09,0.09
127.29,0.89,0.86,0.90,0.88,-0.88,-0.97,-0.80,0.02,0.03,0.03
128.57,0.89,0.93,0.90,0.93,-0.93,-1.02,-0.84,-0.04,-0.03,-0.04
129.85,0.89,0.98,0.90,0.99,-0.99,-1.07,-0.88,-0.09,-0.09,-0.09
131.15,0.89,1.04,0.90,1.04,-1.04,-1.12,-0.91,-0.15,-0.14,-0.15
132.46,0.89,1.09,0.89,1.09,-1.09,-1.17,-0.95,-0.20,-0.19,-0.19
133.79,0.89,1.13,0.89,1.14,-1.14,-1.22,-0.99,-0.25,-0.25,-0.24
135.12,0.89,1.19,0.89,1.19,-1.19,-1.27,-1.02,-0.30,-0.30,-0.30
136.48,0.89,1.23,0.89,1.24,-1.24,-1.32,-1.06,-0.34,-0.35,-0.34
137.84,0.89,1.29,0.89,1.29,-1.29,-1.37,-1.09,-0.39,-0.39,-0.40
139.22,0.89,1.34,0.89,1.33,-1.33,-1.42,-1.13,-0.44,-0.44,-0.45
140.61,0.89,1.39,0.89,1.38,-1.38,-1.47,-1.16,-0.49,-0.49,-0.50
142.02,0.89,1.42,0.89,1.43,-1.43,-1.51,-1.20,-0.53,-0.53,-0.53
143.44,0.89,1.46,0.89,1.47,-1.47,-1.56,-1.23,-0.58,-0.58,-0.57
144.87,0.89,1.51,0.89,1.52,-1.52,-1.61,-1.27,-0.63,-0.63,-0.62
146.32,0.89,1.56,0.89,1.56,-1.56,-1.65,-1.30,-0.67,-0.67,-0.67
147.78,0.89,1.60,0.89,1.61,-1.61,-1.69,-1.34,-0.72,-0.72,-0.71
149.26,0.89,1.65,0.89,1.66,-1.66,-1.74,-1.38,-0.77,-0.77,-0.75
150.75,0.89,1.71,0.89,1.71,-1.71,-1.78,-1.41,-0.81,-0.81,-0.82
152.26,0.89,1.76,0.89,1.76,-1.76,-1.82,-1.45,-0.86,-0.86,-0.86
153.78,0.89,1.80,0.89,1.80,-1.80,-1.86,-1.49,-0.91,-0.91,-0.91
155.32,0.89,1.86,0.89,1.85,-1.85,-1.90,-1.53,-0.96,-0.96,-0.97
156.88,0.89,1.90,0.89,1.91,-1.91,-1.94,-1.57,-1.01,-1.01,-1.01
158.44,0.89,1.95,0.89,1.96,-1.96,-1.98,-1.62,-1.07,-1.07,-1.06
160.03,0.89,2.01,0.89,2.01,-2.01,-2.02,-1.66,-1.12,-1.12,-1.12
161.63,0.89,2.07,0.89,2.06,-2.06,-2.06,-1.70,-1.17,-1.17,-1.18
163.24,0.89,2.12,0.89,2.12,-2.12,-2.10,-1.75,-1.22,-1.22,-1.23
164.88,0.89,2.17,0.89,2.17,-2.17,-2.14,-1.80,-1.28,-1.28,-1.27
166.53,0.89,2.22,0.89,2.22,-2.22,-2.17,-1.85,-1.33,-1.33,-1.33
168.19,0.89,2.28,0.89,2.28,-2.28,-2.21,-1.90,-1.39,-1.39,-1.39
169.87,0.89,2.33,0.89,2.33,-2.33,-2.24,-1.95,-1.44,-1.44,-1.44
171.57,0.89,2.38,0.89,2.39,-2.39,-2.28,-2.01,-1.50,-1.50,-1.49
173.29,0.89,2.45,0.89,2.45,-2.45,-2.31,-2.06,-1.56,-1.56,-1.55
175.02,0.89,2.50,0.89,2.51,-2.51,-2.34,-2.12,-1.62,-1.62,-1.61
176.77,0.89,2.57,0.89,2.57,-2.57,-2.38,-2.18,-1.67,-1.67,-1.68
178.54,0.89,2.63,0.89,2.63,-2.63,-2.41,-2.24,-1.73,-1.73,-1.73
180.32,0.89,2.68,0.89,2.69,-2.69,-2.44,-2.31,-1.79,-1.79,-1.79
182.13,0.89,2.74,0.89,2.75,-2.75,-2.47,-2.37,-1.86,-1.86,-1.85
183.95,0.89,2.81,0.89,2.81,-2.81,-2.50,-2.44,-1.92,-1.92,-1.92
185.79,0.89,2.87,0.89,2.87,-2.87,-2.53,-2.51,-1.98,-1.98,-1.97
187.65,0.89,2.94,0.89,2.93,-2.93,-2.56,-2.58,-2.04,-2.04,-2.05
189.52,0.89,3.00,0.89,2.99,-2.99,-2.59,-2.65,-2.10,-2.10,-2.10
191.42,0.89,3.05,0.89,3.05,-3.05,-2.61,-2.72,-2.16,-2.16,-2.16
193.33,0.89,3.10,0.89,3.11,-3.11,-2.64,-2.80,-2.21,-2.21,-2.21
195.27,0.89,3.15,0.89,3.16,-3.16,-2.67,-2.88,-2.27,-2.27,-2.26
197.22,0.89,3.22,0.89,3.22,-3.22,-2.69,-2.95,-2.32,-2.32,-2.33
199.19,0.89,3.28,0.89,3.27,-3.27,-2.72,-3.03,-2.38,-2.38,-2.39
201.18,0.89,3.33,0.89,3.32,-3.32,-2.74,-3.11,-2.43,-2.43,-2.44
203.19,0.89,3.37,0.89,3.37,-3.37,-2.77,-3.19,-2.48,-2.48,-2.48
205.23,0.89,3.43,0.89,3.42,-3.42,-2.79,-3.27,-2.53,-2.53,-2.54
207.28,0.89,3.46,0.89,3.47,-3.47,-2.81,-3.35,-2.58,-2.58,-2.56
209.35,0.89,3.51,0.89,3.52,-3.52,-2.84,-3.43,-2.62,-2.62,-2.62
211.44,0.89,3.57,0.89,3.56,-3.56,-2.86,-3.51,-2.67,-2.67,-2.68
213.56,0.89,3.61,0.89,3.60,-3.60,-2.88,-3.59,-2.71,-2.71,-2.72
215.69,0.89,3.63,0.89,3.64,-3.64,-2.90,-3.66,-2.75,-2.75,-2.74
217.85,0.89,3.68,0.89,3.68,-3.68,-2.92,-3.74,-2.79,-2.79,-2.79
220.03,0.89,3.72,0.89,3.72,-3.72,-2.94,-3.81,-2.83,-2.83,-2.83
222.23,0.89,3.76,0.89,3.75,-3.75,-2.96,-3.89,-2.86,-2.86,-2.87
224.45,0.89,3.78,0.89,3.78,-3.78,-2.97,-3.95,-2.89,-2.89,-2.89
226.70,0.89,3.81,0.89,3.81,-3.81,-2.99,-4.02,-2.92,-2.92,-2.91
228.96,0.89,3.84,0.89,3.83,-3.83,-3.01,-4.08,-2.94,-2.94,-2.95
231.25,0.89,3.85,0.89,3.86,-3.86,-3.02,-4.14,-2.96,-2.96,-2.96
233.57,0.89,3.87,0.89,3.87,-3.87,-3.04,-4.19,-2.98,-2.98,-2.98
235.90,0.89,3.90,0.89,3.89,-3.89,-3.05,-4.24,-3.00,-3.00,-3.00
238.26,0.89,3.91,0.89,3.90,-3.90,-3.07,-4.28,-3.01,-3.01,-3.02
240.64,0.89,3.92,0.89,3.91,-3.91,-3.08,-4.31,-3.02,-3.02,-3.03
243.05,0.89,3.92,0.89,3.92,-3.92,-3.10,-4.34,-3.03,-3.03,-3.03
245.48,0.89,3.93,0.89,3.93,-3.93,-3.11,-4.37,-3.03,-3.03,-3.04
247.93,0.89,3.93,0.89,3.93,-3.93,-3.12,-4.39,-3.04,-3.04,-3.04
250.41,0.89,3.94,0.89,3.93,-3.93,-3.13,-4.40,-3.04,-3.04,-3.05
252.92,0.89,3.93,0.89,3.93,-3.93,-3.14,-4.40,-3.04,-3.04,-3.04
255.45,0.89,3.92,0.89,3.92,-3.92,-3.16,-4.40,-3.03,-3.03,-3.02
258.00,0.89,3.91,0.89,3.92,-3.92,-3.17,-4.39,-3.02,-3.02,-3.02
260.58,0.89,3.91,0.89,3.91,-3.91,-3.17,-4.38,-3.02,-3.02,-3.02
263.19,0.89,3.90,0.89,3.90,-3.90,-3.18,-4.36,-3.01,-3.01,-3.01
265.82,0.89,3.90,0.89,3.89,-3.89,-3.19,-4.33,-3.00,-3.00,-3.01
268.48,0.89,3.87,0.89,3.88,-3.88,-3.20,-4.30,-2.99,-2.99,-2.98
271.16,0.89,3.86,0.89,3.87,-3.87,-3.21,-4.27,-2.98,-2.98,-2.97
273.87,0.89,3.86,0.89,3.86,-3.86,-3.21,-4.23,-2.96,-2.96,-2.97
276.61,0.89,3.84,0.89,3.84,-3.84,-3.22,-4.19,-2.95,-2.95,-2.94
279.38,0.89,3.83,0.89,3.83,-3.83,-3.23,-4.14,-2.94,-2.94,-2.94
282.17,0.89,3.82,0.89,3.82,-3.82,-3.23,-4.09,-2.93,-2.93,-2.93
284.99,0.89,3.80,0.89,3.81,-3.81,-3.24,-4.04,-2.92,-2.92,-2.91
287.84,0.89,3.80,0.89,3.80,-3.80,-3.24,-3.98,-2.90,-2.90,-2.91
290.72,0.89,3.78,0.89,3.78,-3.78,-3.24,-3.92,-2.89,-2.89,-2.89
293.63,0.89,3.77,0.90,3.78,-3.78,-3.25,-3.87,-2.88,-2.88,-2.88
296.57,0.89,3.75,0.90,3.77,-3.77,-3.25,-3.81,-2.87,-2.87,-2.86
299.53,0.89,3.75,0.90,3.76,-3.76,-3.25,-3.75,-2.87,-2.85,-2.86
302.53,0.89,3.74,0.91,3.75,-3.75,-3.25,-3.69,-2.86,-2.84,-2.85
305.55,0.90,3.73,0.91,3.74,-3.74,-3.25,-3.63,-2.84,-2.83,-2.83
308.61,0.91,3.73,0.91,3.73,-3.73,-3.25,-3.57,-2.82,-2.82,-2.82
311.69,0.91,3.73,0.91,3.72,-3.72,-3.25,-3.52,-2.81,-2.81,-2.82
314.81,0.91,3.70,0.91,3.71,-3.71,-3.25,-3.46,-2.80,-2.80,-2.79
317.96,0.90,3.69,0.90,3.69,-3.69,-3.25,-3.40,-2.79,-2.80,-2.79
321.14,0.89,3.68,0.88,3.67,-3.67,-3.25,-3.35,-2.78,-2.79,-2.79
324.35,0.88,3.67,0.87,3.65,-3.65,-3.25,-3.30,-2.77,-2.78,-2.79
327.59,0.85,3.63,0.84,3.62,-3.62,-3.24,-3.25,-2.77,-2.78,-2.77
330.87,0.83,3.61,0.81,3.59,-3.59,-3.24,-3.20,-2.76,-2.77,-2.78
334.18,0.78,3.56,0.77,3.55,-3.55,-3.24,-3.15,-2.76,-2.77,-2.78
337.52,0.74,3.51,0.73,3.50,-3.50,-3.23,-3.11,-2.76,-2.77,-2.77
340.90,0.69,3.46,0.68,3.45,-3.45,-3.23,-3.07,-2.76,-2.77,-2.77
344.30,0.63,3.40,0.62,3.39,-3.39,-3.22,-3.03,-2.76,-2.77,-2.77
347.75,0.58,3.35,0.56,3.33,-3.33,-3.22,-2.99,-2.75,-2.77,-2.77
351.23,0.50,3.28,0.49,3.27,-3.27,-3.21,-2.95,-2.77,-2.78,-2.77
354.74,0.43,3.21,0.42,3.21,-3.21,-3.20,-2.92,-2.77,-2.78,-2.78
358.28,0.35,3.14,0.36,3.14,-3.14,-3.20,-2.89,-2.79,-2.79,-2.79
361.87,0.28,3.07,0.29,3.08,-3.08,-3.19,-2.86,-2.80,-2.79,-2.79
365.49,0.20,3.00,0.23,3.03,-3.03,-3.18,-2.83,-2.82,-2.80,-2.79
369.14,0.14,2.95,0.17,2.97,-2.97,-3.17,-2.81,-2.83,-2.80,-2.81
372.83,0.09,2.90,0.11,2.92,-2.92,-3.16,-2.79,-2.83,-2.81,-2.81
376.56,0.05,2.87,0.06,2.88,-2.88,-3.15,-2.77,-2.83,-2.82,-2.82
380.33,0.01,2.83,0.01,2.84,-2.84,-3.14,-2.75,-2.83,-2.83,-2.82
384.13,-0.03,2.81,-0.03,2.81,-2.81,-3.13,-2.74,-2.84,-2.83,-2.83
387.97,-0.06,2.79,-0.06,2.78,-2.78,-3.12,-2.72,-2.84,-2.84,-2.85
391.85,-0.08,2.78,-0.08,2.77,-2.77,-3.10,-2.71,-2.85,-2.85,-2.86
395.77,-0.09,2.76,-0.10,2.76,-2.76,-3.09,-2.70,-2.85,-2.86,-2.85
399.73,-0.11,2.75,-0.11,2.76,-2.76,-3.08,-2.69,-2.87,-2.86,-2.86
403.72,-0.13,2.74,-0.11,2.76,-2.76,-3.06,-2.69,-2.89,-2.87,-2.87
407.76,-0.12,2.76,-0.10,2.77,-2.77,-3.05,-2.68,-2.89,-2.88,-2.88
411.84,-0.11,2.77,-0.09,2.79,-2.79,-3.03,-2.68,-2.90,-2.88,-2.87
415.96,-0.09,2.80,-0.07,2.81,-2.81,-3.02,-2.68,-2.90,-2.89,-2.89
420.12,-0.06,2.83,-0.05,2.84,-2.84,-3.00,-2.67,-2.90,-2.89,-2.89
424.32,-0.03,2.86,-0.02,2.87,-2.87,-2.98,-2.67,-2.90,-2.89,-2.89
428.56,0.00,2.90,0.01,2.91,-2.91,-2.97,-2.67,-2.90,-2.90,-2.90
432.85,0.03,2.93,0.05,2.94,-2.94,-2.95,-2.67,-2.91,-2.90,-2.90
437.18,0.07,2.97,0.08,2.98,-2.98,-2.93,-2.67,-2.91,-2.90,-2.90
441.55,0.11,3.00,0.12,3.02,-3.02,-2.91,-2.68,-2.90,-2.90,-2.89
445.96,0.15,3.05,0.15,3.05,-3.05,-2.89,-2.68,-2.90,-2.90,-2.89
450.42,0.19,3.10,0.18,3.07,-3.07,-2.87,-2.68,-2.88,-2.90,-2.91
454.93,0.22,3.12,0.20,3.09,-3.09,-2.85,-2.68,-2.87,-2.89,-2.90
459.48,0.24,3.14,0.21,3.11,-3.11,-2.83,-2.67,-2.86,-2.89,-2.90
464.07,0.25,3.14,0.22,3.11,-3.11,-2.81,-2.67,-2.86,-2.89,-2.89
468.71,0.24,3.12,0.22,3.11,-3.11,-2.79,-2.67,-2.86,-2.88,-2.88
473.40,0.23,3.11,0.22,3.09,-3.09,-2.76,-2.67,-2.86,-2.88,-2.88
478.13,0.21,3.08,0.20,3.07,-3.07,-2.74,-2.66,-2.86,-2.87,-2.87
482.91,0.17,3.04,0.18,3.04,-3.04,-2.72,-2.65,-2.87,-2.87,-2.87
487.74,0.13,2.99,0.14,3.00,-3.00,-2.69,-2.64,-2.87,-2.86,-2.86
492.62,0.09,2.94,0.10,2.96,-2.96,-2.67,-2.63,-2.87,-2.86,-2.85
497.55,0.04,2.89,0.05,2.90,-2.90,-2.64,-2.62,-2.86,-2.85,-2.85
