frequency,raw,error,smoothed,error_smoothed,equalization,parametric_eq,fixed_band_eq,equalized_raw,equalized_smoothed,target
20.00,12.64,0.93,12.65,0.94,-0.94,-0.56,-0.61,11.70,11.71,11.71
20.20,12.66,0.96,12.67,0.97,-0.97,-0.57,-0.62,11.69,11.70,11.70
20.40,12.68,0.99,12.69,1.00,-1.00,-0.58,-0.64,11.68,11.69,11.69
20.61,12.70,1.01,12.71,1.02,-1.02,-0.59,-0.66,11.68,11.68,11.69
20.81,12.72,1.05,12.72,1.05,-1.05,-0.61,-0.67,11.67,11.67,11.67
21.02,12.74,1.07,12.74,1.07,-1.07,-0.62,-0.69,11.67,11.67,11.67
21.23,12.76,1.10,12.76,1.10,-1.10,-0.63,-0.71,11.66,11.66,11.66
21.44,12.78,1.11,12.77,1.12,-1.12,-0.64,-0.73,11.66,11.65,11.67
21.66,12.81,1.15,12.79,1.14,-1.14,-0.65,-0.75,11.67,11.65,11.66
21.87,12.83,1.18,12.80,1.16,-1.16,-0.66,-0.77,11.67,11.64,11.65
22.09,12.84,1.20,12.81,1.18,-1.18,-0.67,-0.79,11.66,11.63,11.64
22.31,12.84,1.20,12.82,1.19,-1.19,-0.69,-0.81,11.65,11.63,11.64
22.54,12.84,1.21,12.83,1.21,-1.21,-0.70,-0.83,11.63,11.62,11.63
22.76,12.84,1.22,12.84,1.22,-1.22,-0.71,-0.85,11.62,11.62,11.62
22.99,12.84,1.23,12.84,1.23,-1.23,-0.72,-0.87,11.61,11.62,11.61
23.22,12.84,1.24,12.85,1.24,-1.24,-0.74,-0.90,11.60,11.61,11.60
23.45,12.84,1.23,12.86,1.25,-1.25,-0.75,-0.92,11.59,11.61,11.61
23.69,12.84,1.24,12.86,1.26,-1.26,-0.76,-0.94,11.58,11.61,11.60
23.92,12.84,1.24,12.87,1.26,-1.26,-0.78,-0.97,11.58,11.60,11.60
24.16,12.86,1.25,12.87,1.27,-1.27,-0.79,-0.99,11.59,11.61,11.61
24.40,12.88,1.26,12.88,1.27,-1.27,-0.80,-1.02,11.61,11.61,11.62
24.65,12.91,1.29,12.89,1.28,-1.28,-0.82,-1.04,11.63,11.61,11.62
24.89,12.93,1.31,12.91,1.30,-1.30,-0.83,-1.07,11.63,11.61,11.62
25.14,12.94,1.33,12.92,1.31,-1.31,-0.85,-1.09,11.63,11.61,11.61
25.39,12.94,1.33,12.94,1.32,-1.32,-0.86,-1.12,11.62,11.61,11.61
25.65,12.94,1.33,12.95,1.33,-1.33,-0.88,-1.15,11.61,11.62,11.61
25.91,12.94,1.32,12.97,1.35,-1.35,-0.89,-1.17,11.59,11.62,11.62
26.16,12.96,1.33,12.98,1.36,-1.36,-0.91,-1.20,11.60,11.62,11.63
26.43,12.98,1.35,12.99,1.37,-1.37,-0.92,-1.23,11.61,11.62,11.63
26.69,13.01,1.38,13.00,1.38,-1.38,-0.94,-1.25,11.63,11.62,11.63
26.96,13.04,1.42,13.01,1.39,-1.39,-0.96,-1.28,11.65,11.62,11.62
27.23,13.04,1.42,13.02,1.40,-1.40,-0.97,-1.30,11.64,11.62,11.62
27.50,13.04,1.42,13.03,1.41,-1.41,-0.99,-1.33,11.63,11.62,11.62
27.77,13.04,1.41,13.03,1.41,-1.41,-1.01,-1.35,11.63,11.62,11.63
28.05,13.04,1.41,13.04,1.42,-1.42,-1.02,-1.38,11.62,11.62,11.63
28.33,13.04,1.43,13.04,1.42,-1.42,-1.04,-1.40,11.62,11.62,11.61
28.62,13.04,1.43,13.05,1.43,-1.43,-1.06,-1.43,11.61,11.62,11.61
28.90,13.04,1.42,13.05,1.43,-1.43,-1.08,-1.45,11.61,11.62,11.62
29.19,13.04,1.42,13.05,1.43,-1.43,-1.09,-1.47,11.61,11.61,11.62
29.48,13.04,1.43,13.04,1.43,-1.43,-1.11,-1.49,11.61,11.61,11.61
29.78,13.04,1.43,13.04,1.44,-1.44,-1.13,-1.51,11.60,11.61,11.61
30.08,13.04,1.42,13.04,1.44,-1.44,-1.15,-1.53,11.60,11.60,11.62
30.38,13.04,1.43,13.04,1.44,-1.44,-1.17,-1.54,11.60,11.60,11.61
30.68,13.04,1.45,13.04,1.45,-1.45,-1.19,-1.56,11.59,11.59,11.59
30.99,13.04,1.45,13.04,1.46,-1.46,-1.21,-1.58,11.58,11.58,11.59
31.30,13.04,1.46,13.04,1.46,-1.46,-1.23,-1.59,11.58,11.58,11.58
31.61,13.04,1.47,13.04,1.47,-1.47,-1.25,-1.60,11.57,11.57,11.57
31.93,13.04,1.48,13.04,1.48,-1.48,-1.27,-1.61,11.56,11.56,11.56
32.24,13.04,1.48,13.04,1.48,-1.48,-1.29,-1.62,11.56,11.56,11.56
32.57,13.04,1.50,13.04,1.49,-1.49,-1.31,-1.63,11.55,11.55,11.54
32.89,13.04,1.50,13.04,1.50,-1.50,-1.33,-1.64,11.54,11.54,11.54
33.22,13.04,1.50,13.04,1.50,-1.50,-1.35,-1.65,11.54,11.54,11.54
33.55,13.04,1.51,13.04,1.51,-1.51,-1.37,-1.66,11.53,11.53,11.53
33.89,13.04,1.50,13.04,1.51,-1.51,-1.40,-1.66,11.53,11.53,11.54
34.23,13.04,1.52,13.04,1.51,-1.51,-1.42,-1.67,11.53,11.53,11.52
34.57,13.04,1.52,13.04,1.52,-1.52,-1.44,-1.67,11.52,11.52,11.52
34.92,13.04,1.53,13.04,1.53,-1.53,-1.46,-1.68,11.51,11.51,11.51
35.27,13.04,1.52,13.04,1.53,-1.53,-1.49,-1.68,11.51,11.51,11.52
35.62,13.04,1.54,13.04,1.54,-1.54,-1.51,-1.69,11.50,11.50,11.50
35.97,13.04,1.54,13.04,1.55,-1.55,-1.53,-1.69,11.49,11.49,11.50
36.33,13.04,1.56,13.04,1.57,-1.57,-1.56,-1.70,11.47,11.47,11.48
36.70,13.04,1.57,13.05,1.59,-1.59,-1.58,-1.70,11.45,11.46,11.47
37.06,13.04,1.59,13.05,1.61,-1.61,-1.60,-1.71,11.43,11.44,11.45
37.43,13.04,1.61,13.05,1.62,-1.62,-1.63,-1.72,11.42,11.42,11.43
37.81,13.04,1.63,13.04,1.64,-1.64,-1.65,-1.72,11.40,11.40,11.41
38.19,13.04,1.66,13.04,1.66,-1.66,-1.68,-1.73,11.38,11.38,11.38
38.57,13.04,1.68,13.03,1.68,-1.68,-1.70,-1.74,11.36,11.35,11.36
38.95,13.04,1.71,13.03,1.70,-1.70,-1.73,-1.75,11.34,11.33,11.33
39.34,13.04,1.75,13.02,1.72,-1.72,-1.76,-1.76,11.32,11.30,11.29
39.74,13.05,1.78,13.01,1.74,-1.74,-1.78,-1.77,11.31,11.27,11.27
40.14,13.03,1.79,13.00,1.75,-1.75,-1.81,-1.78,11.28,11.25,11.24
40.54,12.99,1.77,12.99,1.77,-1.77,-1.83,-1.80,11.22,11.22,11.22
40.94,12.95,1.76,12.98,1.79,-1.79,-1.86,-1.81,11.16,11.19,11.19
41.35,12.94,1.77,12.97,1.81,-1.81,-1.89,-1.83,11.13,11.16,11.17
41.76,12.94,1.81,12.96,1.83,-1.83,-1.92,-1.85,11.11,11.14,11.13
42.18,12.94,1.83,12.95,1.84,-1.84,-1.94,-1.86,11.10,11.11,11.11
42.60,12.94,1.85,12.95,1.86,-1.86,-1.97,-1.88,11.08,11.08,11.09
43.03,12.94,1.88,12.94,1.88,-1.88,-2.00,-1.91,11.06,11.06,11.06
43.46,12.94,1.91,12.94,1.90,-1.90,-2.03,-1.93,11.04,11.03,11.03
43.90,12.94,1.93,12.93,1.93,-1.93,-2.06,-1.95,11.01,11.00,11.01
44.33,12.94,1.97,12.94,1.96,-1.96,-2.09,-1.98,10.98,10.97,10.97
44.78,12.94,2.00,12.95,2.00,-2.00,-2.11,-2.01,10.94,10.94,10.94
45.23,12.94,2.01,12.95,2.04,-2.04,-2.14,-2.04,10.90,10.91,10.93
45.68,12.94,2.06,12.95,2.08,-2.08,-2.17,-2.07,10.86,10.88,10.88
46.13,12.94,2.10,12.95,2.11,-2.11,-2.20,-2.10,10.83,10.84,10.84
46.60,12.94,2.13,12.94,2.14,-2.14,-2.23,-2.13,10.80,10.80,10.81
47.06,12.94,2.17,12.93,2.17,-2.17,-2.26,-2.17,10.77,10.76,10.77
47.53,12.94,2.20,12.91,2.20,-2.20,-2.29,-2.21,10.74,10.72,10.74
48.01,12.94,2.26,12.90,2.22,-2.22,-2.32,-2.24,10.72,10.68,10.68
48.49,12.94,2.31,12.88,2.25,-2.25,-2.35,-2.28,10.69,10.63,10.63
48.97,12.94,2.35,12.86,2.27,-2.27,-2.39,-2.32,10.67,10.59,10.59
49.46,12.85,2.30,12.84,2.30,-2.30,-2.42,-2.36,10.55,10.54,10.55
49.96,12.75,2.27,12.82,2.32,-2.32,-2.45,-2.41,10.43,10.50,10.48
50.46,12.74,2.30,12.80,2.35,-2.35,-2.48,-2.45,10.39,10.45,10.44
50.96,12.74,2.34,12.79,2.39,-2.39,-2.51,-2.49,10.35,10.40,10.40
51.47,12.74,2.38,12.78,2.42,-2.42,-2.54,-2.54,10.32,10.36,10.36
51.99,12.74,2.43,12.76,2.45,-2.45,-2.58,-2.58,10.29,10.31,10.31
52.51,12.74,2.47,12.75,2.49,-2.49,-2.61,-2.63,10.25,10.26,10.27
53.03,12.74,2.50,12.74,2.52,-2.52,-2.64,-2.67,10.22,10.22,10.24
53.56,12.74,2.56,12.73,2.56,-2.56,-2.67,-2.72,10.18,10.17,10.18
54.10,12.74,2.61,12.72,2.59,-2.59,-2.71,-2.77,10.15,10.13,10.13
54.64,12.74,2.65,12.71,2.63,-2.63,-2.74,-2.81,10.11,10.08,10.09
55.18,12.74,2.71,12.70,2.66,-2.66,-2.77,-2.86,10.08,10.04,10.03
55.74,12.74,2.76,12.69,2.69,-2.69,-2.81,-2.90,10.05,10.00,9.98
56.29,12.71,2.76,12.68,2.72,-2.72,-2.84,-2.94,9.99,9.96,9.95
56.86,12.65,2.74,12.66,2.75,-2.75,-2.87,-2.98,9.90,9.91,9.91
57.42,12.63,2.78,12.65,2.78,-2.78,-2.91,-3.03,9.85,9.87,9.85
58.00,12.62,2.80,12.63,2.81,-2.81,-2.94,-3.06,9.81,9.82,9.82
58.58,12.57,2.78,12.61,2.84,-2.84,-2.97,-3.10,9.73,9.77,9.79
59.16,12.54,2.79,12.59,2.87,-2.87,-3.01,-3.14,9.67,9.72,9.75
59.76,12.54,2.83,12.57,2.90,-2.90,-3.04,-3.17,9.64,9.67,9.71
60.35,12.54,2.90,12.55,2.93,-2.93,-3.08,-3.20,9.61,9.62,9.64
60.96,12.54,2.95,12.53,2.96,-2.96,-3.11,-3.23,9.58,9.57,9.59
61.57,12.55,3.03,12.51,2.99,-2.99,-3.14,-3.26,9.56,9.52,9.52
62.18,12.54,3.09,12.49,3.03,-3.03,-3.18,-3.28,9.51,9.46,9.45
62.80,12.49,3.10,12.48,3.08,-3.08,-3.21,-3.30,9.41,9.40,9.39
63.43,12.46,3.13,12.46,3.12,-3.12,-3.25,-3.32,9.34,9.34,9.33
64.07,12.44,3.16,12.44,3.15,-3.15,-3.28,-3.34,9.29,9.28,9.28
64.71,12.43,3.21,12.42,3.20,-3.20,-3.32,-3.35,9.24,9.22,9.22
65.35,12.40,3.24,12.40,3.24,-3.24,-3.35,-3.36,9.16,9.16,9.16
66.01,12.34,3.24,12.38,3.28,-3.28,-3.39,-3.37,9.06,9.10,9.10
66.67,12.34,3.28,12.36,3.32,-3.32,-3.42,-3.38,9.02,9.04,9.06
67.33,12.34,3.36,12.34,3.36,-3.36,-3.46,-3.39,8.98,8.98,8.98
68.01,12.34,3.41,12.31,3.39,-3.39,-3.49,-3.39,8.95,8.92,8.93
68.69,12.27,3.41,12.29,3.43,-3.43,-3.53,-3.40,8.84,8.86,8.86
69.37,12.24,3.43,12.26,3.47,-3.47,-3.56,-3.40,8.77,8.80,8.81
70.07,12.24,3.50,12.24,3.51,-3.51,-3.60,-3.40,8.73,8.73,8.74
70.77,12.24,3.56,12.22,3.55,-3.55,-3.63,-3.41,8.69,8.67,8.68
71.48,12.24,3.63,12.20,3.59,-3.59,-3.66,-3.41,8.65,8.60,8.61
72.19,12.22,3.68,12.17,3.63,-3.63,-3.70,-3.41,8.59,8.54,8.54
72.91,12.15,3.67,12.15,3.67,-3.67,-3.73,-3.41,8.48,8.48,8.48
73.64,12.08,3.67,12.12,3.71,-3.71,-3.77,-3.42,8.37,8.42,8.41
74.38,12.04,3.69,12.09,3.74,-3.74,-3.80,-3.42,8.30,8.35,8.35
75.12,12.04,3.76,12.06,3.77,-3.77,-3.84,-3.42,8.27,8.29,8.28
75.87,12.04,3.80,12.04,3.80,-3.80,-3.87,-3.43,8.24,8.23,8.24
76.63,12.04,3.87,12.01,3.84,-3.84,-3.91,-3.44,8.20,8.18,8.17
77.40,12.02,3.90,11.99,3.87,-3.87,-3.94,-3.45,8.16,8.12,8.12
78.17,11.97,3.91,11.95,3.89,-3.89,-3.97,-3.46,8.08,8.06,8.06
78.95,11.91,3.89,11.92,3.91,-3.91,-4.01,-3.47,8.00,8.01,8.02
79.74,11.86,3.90,11.89,3.94,-3.94,-4.04,-3.48,7.92,7.95,7.96
80.54,11.84,3.94,11.87,3.97,-3.97,-4.07,-3.50,7.87,7.90,7.90
81.35,11.84,3.99,11.85,4.00,-4.00,-4.11,-3.52,7.84,7.84,7.85
82.16,11.84,4.04,11.82,4.03,-4.03,-4.14,-3.54,7.81,7.79,7.80
82.98,11.84,4.10,11.80,4.06,-4.06,-4.17,-3.56,7.78,7.73,7.74
83.81,11.78,4.10,11.77,4.09,-4.09,-4.21,-3.59,7.69,7.67,7.68
84.65,11.72,4.10,11.74,4.12,-4.12,-4.24,-3.62,7.60,7.62,7.62
85.50,11.67,4.12,11.71,4.15,-4.15,-4.27,-3.65,7.52,7.56,7.55
86.35,11.64,4.15,11.68,4.18,-4.18,-4.30,-3.68,7.46,7.50,7.49
87.22,11.64,4.20,11.65,4.21,-4.21,-4.33,-3.72,7.43,7.44,7.44
88.09,11.64,4.27,11.62,4.25,-4.25,-4.37,-3.76,7.39,7.37,7.37
88.97,11.64,4.32,11.59,4.27,-4.27,-4.40,-3.80,7.37,7.31,7.32
89.86,11.58,4.34,11.55,4.30,-4.30,-4.43,-3.85,7.28,7.25,7.24
90.76,11.52,4.34,11.52,4.34,-4.34,-4.46,-3.90,7.18,7.18,7.18
91.66,11.46,4.35,11.48,4.37,-4.37,-4.49,-3.95,7.09,7.11,7.11
92.58,11.44,4.39,11.45,4.41,-4.41,-4.52,-4.00,7.03,7.04,7.05
93.51,11.39,4.41,11.42,4.46,-4.46,-4.55,-4.06,6.93,6.97,6.98
94.44,11.35,4.44,11.39,4.50,-4.50,-4.58,-4.12,6.85,6.89,6.91
95.39,11.34,4.51,11.35,4.53,-4.53,-4.61,-4.18,6.81,6.82,6.83
96.34,11.32,4.57,11.31,4.56,-4.56,-4.64,-4.25,6.76,6.74,6.75
97.30,11.27,4.60,11.26,4.60,-4.60,-4.66,-4.32,6.67,6.66,6.67
98.28,11.22,4.64,11.21,4.63,-4.63,-4.69,-4.39,6.59,6.58,6.58
99.26,11.21,4.72,11.17,4.67,-4.67,-4.72,-4.46,6.54,6.50,6.49
100.25,11.17,4.76,11.12,4.70,-4.70,-4.75,-4.53,6.47,6.42,6.41
101.25,11.07,4.73,11.06,4.73,-4.73,-4.77,-4.60,6.34,6.34,6.34
102.27,11.02,4.77,11.01,4.75,-4.75,-4.80,-4.68,6.27,6.25,6.25
103.29,10.94,4.77,10.95,4.78,-4.78,-4.83,-4.76,6.16,6.17,6.17
104.32,10.86,4.76,10.89,4.80,-4.80,-4.85,-4.84,6.06,6.09,6.10
105.37,10.80,4.78,10.83,4.82,-4.82,-4.88,-4.91,5.98,6.01,6.02
106.42,10.78,4.85,10.76,4.83,-4.83,-4.90,-4.99,5.95,5.93,5.93
107.48,10.72,4.88,10.70,4.86,-4.86,-4.93,-5.07,5.86,5.85,5.84
108.56,10.64,4.86,10.65,4.88,-4.88,-4.95,-5.15,5.76,5.77,5.78
109.64,10.55,4.86,10.58,4.89,-4.89,-4.97,-5.22,5.66,5.69,5.69
110.74,10.49,4.88,10.52,4.91,-4.91,-5.00,-5.29,5.58,5.61,5.61
111.85,10.47,4.93,10.47,4.93,-4.93,-5.02,-5.36,5.54,5.54,5.54
112.97,10.46,4.99,10.42,4.96,-4.96,-5.04,-5.43,5.50,5.46,5.47
114.10,10.41,5.01,10.37,4.98,-4.98,-5.06,-5.50,5.43,5.39,5.40
115.24,10.28,4.96,10.33,5.01,-5.01,-5.08,-5.56,5.27,5.32,5.32
116.39,10.26,5.02,10.28,5.03,-5.03,-5.10,-5.61,5.23,5.25,5.24
117.55,10.26,5.08,10.24,5.06,-5.06,-5.12,-5.67,5.20,5.18,5.18
118.73,10.23,5.13,10.19,5.08,-5.08,-5.14,-5.71,5.15,5.11,5.10
119.92,10.10,5.06,10.15,5.10,-5.10,-5.16,-5.75,5.00,5.05,5.04
121.12,10.07,5.08,10.11,5.13,-5.13,-5.18,-5.79,4.94,4.98,4.99
122.33,10.08,5.16,10.08,5.16,-5.16,-5.20,-5.81,4.92,4.92,4.92
123.55,10.09,5.22,10.04,5.18,-5.18,-5.21,-5.84,4.91,4.86,4.87
124.79,10.03,5.22,10.00,5.20,-5.20,-5.23,-5.85,4.83,4.79,4.81
126.03,9.91,5.17,9.96,5.23,-5.23,-5.24,-5.86,4.68,4.73,4.74
127.29,9.91,5.23,9.92,5.25,-5.25,-5.26,-5.86,4.66,4.67,4.68
128.57,9.90,5.28,9.88,5.27,-5.27,-5.27,-5.85,4.63,4.61,4.62
129.85,9.84,5.29,9.84,5.28,-5.28,-5.29,-5.84,4.56,4.55,4.55
131.15,9.80,5.31,9.79,5.30,-5.30,-5.30,-5.83,4.50,4.49,4.49
132.46,9.75,5.32,9.75,5.32,-5.32,-5.31,-5.80,4.43,4.43,4.43
133.79,9.73,5.36,9.72,5.34,-5.34,-5.32,-5.77,4.39,4.37,4.37
135.12,9.68,5.37,9.67,5.35,-5.35,-5.33,-5.74,4.33,4.31,4.31
136.48,9.62,5.35,9.62,5.36,-5.36,-5.34,-5.70,4.26,4.25,4.27
137.84,9.55,5.34,9.57,5.37,-5.37,-5.35,-5.66,4.18,4.20,4.21
139.22,9.49,5.36,9.52,5.38,-5.38,-5.36,-5.62,4.11,4.14,4.13
140.61,9.45,5.36,9.46,5.38,-5.38,-5.37,-5.57,4.07,4.08,4.09
142.02,9.45,5.42,9.40,5.38,-5.38,-5.38,-5.52,4.07,4.02,4.03
143.44,9.38,5.42,9.35,5.38,-5.38,-5.39,-5.46,4.00,3.97,3.96
144.87,9.32,5.41,9.30,5.38,-5.38,-5.39,-5.41,3.94,3.91,3.91
146.32,9.26,5.40,9.24,5.39,-5.39,-5.40,-5.36,3.87,3.86,3.86
147.78,9.18,5.38,9.19,5.39,-5.39,-5.40,-5.30,3.79,3.80,3.80
149.26,9.11,5.36,9.14,5.40,-5.40,-5.41,-5.25,3.71,3.75,3.75
150.75,9.05,5.37,9.09,5.40,-5.40,-5.41,-5.20,3.65,3.69,3.68
152.26,8.98,5.34,9.04,5.41,-5.41,-5.41,-5.14,3.57,3.63,3.64
153.78,8.94,5.36,8.99,5.42,-5.42,-5.41,-5.09,3.52,3.58,3.58
155.32,8.94,5.41,8.94,5.42,-5.42,-5.41,-5.04,3.52,3.52,3.53
156.88,8.95,5.48,8.89,5.43,-5.43,-5.41,-5.00,3.52,3.46,3.47
158.44,8.87,5.46,8.83,5.43,-5.43,-5.41,-4.95,3.44,3.40,3.41
160.03,8.82,5.47,8.78,5.44,-5.44,-5.41,-4.91,3.38,3.34,3.35
161.63,8.75,5.46,8.73,5.44,-5.44,-5.41,-4.87,3.31,3.28,3.29
163.24,8.68,5.46,8.67,5.45,-5.45,-5.41,-4.83,3.23,3.22,3.22
164.88,8.62,5.45,8.62,5.45,-5.45,-5.40,-4.80,3.17,3.16,3.17
166.53,8.55,5.45,8.56,5.45,-5.45,-5.40,-4.77,3.10,3.10,3.10
168.19,8.50,5.45,8.49,5.45,-5.45,-5.39,-4.74,3.05,3.04,3.05
169.87,8.43,5.44,8.43,5.45,-5.45,-5.39,-4.72,2.98,2.98,2.99
171.57,8.33,5.41,8.36,5.44,-5.44,-5.38,-4.69,2.89,2.92,2.92
173.29,8.29,5.43,8.29,5.42,-5.42,-5.37,-4.68,2.87,2.86,2.86
175.02,8.22,5.41,8.22,5.41,-5.41,-5.36,-4.66,2.81,2.81,2.81
176.77,8.16,5.40,8.15,5.40,-5.40,-5.35,-4.65,2.76,2.75,2.76
178.54,8.10,5.40,8.09,5.39,-5.39,-5.34,-4.65,2.71,2.70,2.70
180.32,8.03,5.39,8.04,5.39,-5.39,-5.33,-4.65,2.64,2.65,2.64
182.13,7.97,5.37,7.99,5.39,-5.39,-5.32,-4.65,2.58,2.60,2.60
183.95,7.91,5.36,7.94,5.39,-5.39,-5.31,-4.65,2.52,2.55,2.55
185.79,7.87,5.37,7.89,5.39,-5.39,-5.29,-4.66,2.48,2.50,2.50
187.65,7.83,5.37,7.84,5.38,-5.38,-5.28,-4.67,2.45,2.45,2.46
189.52,7.77,5.36,7.79,5.38,-5.38,-5.26,-4.68,2.39,2.41,2.41
191.42,7.71,5.33,7.75,5.38,-5.38,-5.25,-4.70,2.33,2.37,2.38
193.33,7.69,5.36,7.70,5.38,-5.38,-5.23,-4.72,2.31,2.32,2.33
195.27,7.69,5.41,7.66,5.38,-5.38,-5.21,-4.75,2.31,2.28,2.28
197.22,7.68,5.45,7.61,5.37,-5.37,-5.19,-4.77,2.31,2.24,2.23
199.19,7.58,5.38,7.55,5.36,-5.36,-5.18,-4.80,2.22,2.20,2.20
201.18,7.52,5.37,7.50,5.34,-5.34,-5.16,-4.83,2.18,2.16,2.15
203.19,7.44,5.32,7.44,5.32,-5.32,-5.13,-4.86,2.12,2.12,2.12
205.23,7.35,5.27,7.38,5.31,-5.31,-5.11,-4.90,2.04,2.08,2.08
207.28,7.33,5.28,7.32,5.29,-5.29,-5.09,-4.93,2.04,2.04,2.05
209.35,7.28,5.27,7.26,5.26,-5.26,-5.07,-4.97,2.02,2.00,2.01
211.44,7.22,5.26,7.20,5.24,-5.24,-5.04,-5.01,1.98,1.96,1.96
213.56,7.13,5.20,7.13,5.21,-5.21,-5.02,-5.04,1.92,1.92,1.93
215.69,7.03,5.14,7.07,5.18,-5.18,-4.99,-5.08,1.85,1.89,1.89
217.85,6.92,5.06,7.00,5.15,-5.15,-4.96,-5.12,1.77,1.85,1.86
220.03,6.91,5.10,6.94,5.12,-5.12,-4.94,-5.15,1.79,1.82,1.81
222.23,6.91,5.12,6.88,5.09,-5.09,-4.91,-5.18,1.82,1.79,1.79
224.45,6.84,5.08,6.82,5.05,-5.05,-4.88,-5.21,1.79,1.76,1.76
226.70,6.79,5.06,6.76,5.02,-5.02,-4.85,-5.24,1.77,1.74,1.73
228.96,6.71,5.00,6.70,4.99,-4.99,-4.82,-5.26,1.72,1.71,1.71
231.25,6.66,4.96,6.64,4.95,-4.95,-4.79,-5.28,1.71,1.69,1.70
233.57,6.62,4.95,6.58,4.91,-4.91,-4.75,-5.30,1.71,1.68,1.67
235.90,6.51,4.85,6.53,4.87,-4.87,-4.72,-5.31,1.64,1.66,1.66
238.26,6.45,4.81,6.48,4.83,-4.83,-4.69,-5.31,1.62,1.65,1.64
240.64,6.39,4.74,6.43,4.79,-4.79,-4.65,-5.31,1.60,1.64,1.65
243.05,6.35,4.71,6.38,4.75,-4.75,-4.62,-5.31,1.60,1.63,1.64
245.48,6.32,4.70,6.32,4.70,-4.70,-4.58,-5.29,1.62,1.62,1.62
247.93,6.26,4.65,6.26,4.65,-4.65,-4.54,-5.27,1.61,1.62,1.61
250.41,6.23,4.61,6.21,4.60,-4.60,-4.51,-5.25,1.63,1.61,1.62
252.92,6.17,4.55,6.16,4.55,-4.55,-4.47,-5.21,1.62,1.60,1.62
255.45,6.11,4.51,6.10,4.51,-4.51,-4.43,-5.17,1.60,1.59,1.60
258.00,6.07,4.48,6.05,4.47,-4.47,-4.39,-5.12,1.60,1.58,1.59
260.58,6.00,4.42,5.99,4.42,-4.42,-4.35,-5.07,1.58,1.57,1.58
263.19,5.94,4.37,5.94,4.38,-4.38,-4.30,-5.01,1.56,1.56,1.57
265.82,5.89,4.34,5.88,4.33,-4.33,-4.26,-4.94,1.56,1.55,1.55
268.48,5.81,4.26,5.82,4.28,-4.28,-4.22,-4.87,1.53,1.54,1.55
271.16,5.75,4.22,5.75,4.23,-4.23,-4.17,-4.79,1.52,1.52,1.53
273.87,5.68,4.16,5.68,4.17,-4.17,-4.13,-4.71,1.51,1.51,1.52
276.61,5.61,4.11,5.62,4.12,-4.12,-4.08,-4.63,1.49,1.50,1.50
279.38,5.56,4.09,5.56,4.07,-4.07,-4.04,-4.54,1.49,1.49,1.47
282.17,5.50,4.03,5.49,4.01,-4.01,-3.99,-4.44,1.49,1.48,1.47
284.99,5.43,3.96,5.42,3.95,-3.95,-3.94,-4.35,1.48,1.47,1.47
287.84,5.34,3.87,5.36,3.89,-3.89,-3.90,-4.25,1.45,1.47,1.47
290.72,5.30,3.85,5.30,3.84,-3.84,-3.85,-4.15,1.46,1.46,1.45
293.63,5.23,3.77,5.24,3.78,-3.78,-3.80,-4.04,1.45,1.46,1.46
296.57,5.19,3.73,5.18,3.73,-3.73,-3.75,-3.94,1.46,1.45,1.46
299.53,5.07,3.62,5.12,3.67,-3.67,-3.69,-3.84,1.40,1.45,1.45
302.53,5.05,3.59,5.06,3.61,-3.61,-3.64,-3.73,1.44,1.45,1.46
305.55,5.03,3.58,5.00,3.55,-3.55,-3.59,-3.63,1.47,1.45,1.45
308.61,4.91,3.45,4.94,3.50,-3.50,-3.54,-3.52,1.41,1.44,1.46
311.69,4.87,3.43,4.88,3.43,-3.43,-3.48,-3.42,1.44,1.44,1.44
314.81,4.85,3.40,4.81,3.37,-3.37,-3.43,-3.31,1.48,1.44,1.45
317.96,4.75,3.32,4.75,3.31,-3.31,-3.37,-3.21,1.44,1.44,1.43
321.14,4.69,3.25,4.68,3.25,-3.25,-3.32,-3.11,1.44,1.43,1.44
324.35,4.67,3.24,4.61,3.18,-3.18,-3.26,-3.01,1.49,1.43,1.43
327.59,4.56,3.12,4.54,3.11,-3.11,-3.20,-2.91,1.45,1.43,1.44
330.87,4.45,3.02,4.47,3.04,-3.04,-3.14,-2.81,1.41,1.43,1.43
334.18,4.38,2.96,4.40,2.97,-2.97,-3.08,-2.71,1.41,1.43,1.42
337.52,4.34,2.91,4.32,2.90,-2.90,-3.03,-2.62,1.44,1.43,1.43
340.90,4.22,2.80,4.25,2.82,-2.82,-2.97,-2.52,1.40,1.43,1.42
344.30,4.15,2.72,4.18,2.75,-2.75,-2.90,-2.43,1.40,1.43,1.43
347.75,4.09,2.65,4.11,2.68,-2.68,-2.84,-2.34,1.41,1.43,1.44
351.23,4.02,2.60,4.03,2.60,-2.60,-2.78,-2.26,1.42,1.43,1.42
354.74,3.96,2.52,3.96,2.53,-2.53,-2.72,-2.17,1.43,1.44,1.44
358.28,3.89,2.45,3.89,2.45,-2.45,-2.66,-2.08,1.44,1.44,1.44
361.87,3.83,2.39,3.82,2.38,-2.38,-2.59,-2.00,1.45,1.44,1.44
365.49,3.79,2.34,3.76,2.31,-2.31,-2.53,-1.92,1.48,1.45,1.45
369.14,3.71,2.25,3.70,2.25,-2.25,-2.46,-1.84,1.46,1.45,1.46
372.83,3.66,2.19,3.63,2.18,-2.18,-2.40,-1.76,1.48,1.46,1.47
376.56,3.59,2.13,3.57,2.11,-2.11,-2.33,-1.69,1.48,1.46,1.46
380.33,3.48,2.02,3.51,2.05,-2.05,-2.26,-1.61,1.43,1.46,1.46
384.13,3.41,1.94,3.45,1.99,-1.99,-2.20,-1.54,1.42,1.46,1.47
387.97,3.36,1.89,3.39,1.93,-1.93,-2.13,-1.47,1.43,1.45,1.47
391.85,3.31,1.85,3.32,1.87,-1.87,-2.06,-1.40,1.44,1.45,1.46
395.77,3.24,1.79,3.25,1.81,-1.81,-1.99,-1.33,1.43,1.45,1.45
399.73,3.23,1.78,3.19,1.75,-1.75,-1.92,-1.26,1.48,1.44,1.45
403.72,3.19,1.73,3.12,1.68,-1.68,-1.85,-1.19,1.51,1.44,1.46
407.76,3.05,1.61,3.05,1.62,-1.62,-1.78,-1.13,1.43,1.43,1.44
411.84,3.01,1.58,2.99,1.56,-1.56,-1.71,-1.06,1.45,1.43,1.43
415.96,2.95,1.52,2.93,1.50,-1.50,-1.64,-1.00,1.45,1.43,1.43
420.12,2.86,1.44,2.87,1.44,-1.44,-1.56,-0.94,1.42,1.43,1.42
424.32,2.84,1.41,2.83,1.38,-1.38,-1.49,-0.88,1.46,1.44,1.43
428.56,2.75,1.30,2.78,1.33,-1.33,-1.42,-0.82,1.42,1.45,1.45
432.85,2.65,1.18,2.73,1.26,-1.26,-1.34,-0.76,1.39,1.47,1.47
437.18,2.69,1.21,2.70,1.20,-1.20,-1.27,-0.70,1.49,1.50,1.48
441.55,2.65,1.14,2.66,1.13,-1.13,-1.19,-0.65,1.52,1.53,1.51
445.96,2.56,1.01,2.63,1.07,-1.07,-1.12,-0.59,1.49,1.57,1.55
450.42,2.61,1.02,2.61,1.00,-1.00,-1.04,-0.54,1.61,1.61,1.59
454.93,2.63,0.99,2.60,0.94,-0.94,-0.97,-0.48,1.69,1.66,1.64
459.48,2.55,0.85,2.59,0.88,-0.88,-0.89,-0.43,1.67,1.71,1.70
464.07,2.60,0.83,2.57,0.81,-0.81,-0.81,-0.38,1.79,1.76,1.77
468.71,2.60,0.78,2.55,0.74,-0.74,-0.74,-0.33,1.86,1.81,1.82
473.40,2.55,0.67,2.54,0.67,-0.67,-0.66,-0.28,1.88,1.87,1.88
478.13,2.50,0.56,2.51,0.60,-0.60,-0.58,-0.23,1.90,1.92,1.94
482.91,2.51,0.52,2.49,0.52,-0.52,-0.50,-0.18,1.99,1.97,1.99
487.74,2.47,0.45,2.46,0.44,-0.44,-0.42,-0.13,2.03,2.02,2.02
