frequency,raw,error,smoothed,error_smoothed,equalization,parametric_eq,fixed_band_eq,equalized_raw,equalized_smoothed,target
20.00,12.64,-0.76,12.65,-0.76,0.76,-0.19,0.13,13.40,13.40,13.40
20.20,12.66,-0.73,12.67,-0.72,0.72,-0.19,0.13,13.38,13.39,13.39
20.40,12.68,-0.70,12.69,-0.69,0.69,-0.20,0.14,13.37,13.38,13.38
20.61,12.70,-0.68,12.71,-0.67,0.67,-0.20,0.15,13.37,13.37,13.38
20.81,12.72,-0.64,12.72,-0.64,0.64,-0.21,0.15,13.36,13.36,13.36
21.02,12.74,-0.62,12.74,-0.61,0.61,-0.21,0.16,13.35,13.36,13.36
21.23,12.76,-0.59,12.76,-0.59,0.59,-0.21,0.16,13.35,13.35,13.35
21.44,12.78,-0.57,12.77,-0.57,0.57,-0.22,0.17,13.35,13.34,13.35
21.66,12.81,-0.53,12.79,-0.55,0.55,-0.22,0.18,13.36,13.33,13.34
21.87,12.83,-0.50,12.80,-0.53,0.53,-0.23,0.18,13.36,13.33,13.33
22.09,12.84,-0.48,12.81,-0.51,0.51,-0.23,0.19,13.35,13.32,13.32
22.31,12.84,-0.48,12.82,-0.49,0.49,-0.24,0.20,13.33,13.32,13.32
22.54,12.84,-0.47,12.83,-0.48,0.48,-0.24,0.21,13.32,13.31,13.31
22.76,12.84,-0.47,12.84,-0.47,0.47,-0.25,0.22,13.31,13.31,13.31
22.99,12.84,-0.46,12.84,-0.46,0.46,-0.25,0.22,13.30,13.30,13.30
23.22,12.84,-0.45,12.85,-0.45,0.45,-0.26,0.23,13.29,13.30,13.29
23.45,12.84,-0.45,12.86,-0.44,0.44,-0.26,0.24,13.28,13.29,13.29
23.69,12.84,-0.44,12.86,-0.43,0.43,-0.27,0.25,13.27,13.29,13.28
23.92,12.84,-0.44,12.87,-0.42,0.42,-0.27,0.26,13.26,13.29,13.28
24.16,12.86,-0.43,12.87,-0.42,0.42,-0.28,0.27,13.28,13.29,13.29
24.40,12.88,-0.42,12.88,-0.41,0.41,-0.28,0.27,13.29,13.29,13.30
24.65,12.91,-0.39,12.89,-0.40,0.40,-0.29,0.28,13.31,13.29,13.30
24.89,12.93,-0.36,12.91,-0.39,0.39,-0.29,0.29,13.32,13.29,13.30
25.14,12.94,-0.35,12.92,-0.37,0.37,-0.30,0.30,13.31,13.29,13.29
25.39,12.94,-0.35,12.94,-0.36,0.36,-0.30,0.31,13.30,13.30,13.29
25.65,12.94,-0.35,12.95,-0.35,0.35,-0.31,0.32,13.29,13.30,13.29
25.91,12.94,-0.36,12.97,-0.33,0.33,-0.32,0.33,13.27,13.30,13.30
26.16,12.96,-0.35,12.98,-0.32,0.32,-0.32,0.33,13.28,13.30,13.31
26.43,12.98,-0.32,12.99,-0.31,0.31,-0.33,0.34,13.29,13.30,13.30
26.69,13.01,-0.29,13.00,-0.30,0.30,-0.34,0.35,13.31,13.30,13.30
26.96,13.04,-0.26,13.01,-0.29,0.29,-0.34,0.35,13.32,13.30,13.30
27.23,13.04,-0.26,13.02,-0.28,0.28,-0.35,0.36,13.32,13.30,13.30
27.50,13.04,-0.25,13.03,-0.27,0.27,-0.36,0.37,13.31,13.30,13.29
27.77,13.04,-0.26,13.03,-0.27,0.27,-0.36,0.37,13.31,13.30,13.30
28.05,13.04,-0.26,13.04,-0.26,0.26,-0.37,0.38,13.30,13.30,13.30
28.33,13.04,-0.25,13.04,-0.25,0.25,-0.38,0.38,13.29,13.30,13.29
28.62,13.04,-0.24,13.05,-0.25,0.25,-0.38,0.38,13.29,13.29,13.28
28.90,13.04,-0.25,13.05,-0.24,0.24,-0.39,0.38,13.28,13.29,13.29
29.19,13.04,-0.25,13.05,-0.24,0.24,-0.40,0.38,13.28,13.29,13.29
29.48,13.04,-0.24,13.04,-0.24,0.24,-0.41,0.38,13.28,13.28,13.28
29.78,13.04,-0.24,13.04,-0.24,0.24,-0.41,0.38,13.28,13.28,13.28
30.08,13.04,-0.25,13.04,-0.23,0.23,-0.42,0.38,13.27,13.27,13.29
30.38,13.04,-0.23,13.04,-0.23,0.23,-0.43,0.37,13.27,13.27,13.27
30.68,13.04,-0.22,13.04,-0.22,0.22,-0.44,0.37,13.26,13.26,13.26
30.99,13.04,-0.22,13.04,-0.21,0.21,-0.45,0.36,13.25,13.25,13.26
31.30,13.04,-0.20,13.04,-0.21,0.21,-0.46,0.35,13.25,13.25,13.24
31.61,13.04,-0.20,13.04,-0.20,0.20,-0.47,0.34,13.24,13.24,13.24
31.93,13.04,-0.18,13.04,-0.19,0.19,-0.47,0.33,13.23,13.23,13.22
32.24,13.04,-0.18,13.04,-0.18,0.18,-0.48,0.32,13.22,13.22,13.22
32.57,13.04,-0.16,13.04,-0.17,0.17,-0.49,0.30,13.21,13.21,13.20
32.89,13.04,-0.16,13.04,-0.17,0.17,-0.50,0.29,13.21,13.21,13.20
33.22,13.04,-0.15,13.04,-0.16,0.16,-0.51,0.27,13.20,13.20,13.19
33.55,13.04,-0.15,13.04,-0.15,0.15,-0.52,0.25,13.19,13.19,13.19
33.89,13.04,-0.15,13.04,-0.15,0.15,-0.53,0.24,13.19,13.19,13.19
34.23,13.04,-0.14,13.04,-0.14,0.14,-0.54,0.22,13.18,13.18,13.18
34.57,13.04,-0.13,13.04,-0.14,0.14,-0.55,0.19,13.18,13.18,13.17
34.92,13.04,-0.13,13.04,-0.13,0.13,-0.56,0.17,13.17,13.17,13.17
35.27,13.04,-0.13,13.04,-0.12,0.12,-0.57,0.15,13.16,13.16,13.17
35.62,13.04,-0.11,13.04,-0.11,0.11,-0.58,0.12,13.15,13.15,13.15
35.97,13.04,-0.11,13.04,-0.10,0.10,-0.60,0.10,13.14,13.14,13.15
36.33,13.04,-0.09,13.04,-0.08,0.08,-0.61,0.07,13.12,13.12,13.13
36.70,13.04,-0.07,13.05,-0.06,0.06,-0.62,0.05,13.10,13.11,13.11
37.06,13.04,-0.05,13.05,-0.04,0.04,-0.63,0.02,13.08,13.09,13.09
37.43,13.04,-0.02,13.05,-0.02,0.02,-0.64,-0.01,13.06,13.06,13.06
37.81,13.04,-0.01,13.04,0.00,-0.00,-0.65,-0.04,13.04,13.04,13.05
38.19,13.04,0.02,13.04,0.02,-0.02,-0.67,-0.07,13.02,13.02,13.02
38.57,13.04,0.05,13.03,0.05,-0.05,-0.68,-0.10,12.99,12.99,12.99
38.95,13.04,0.08,13.03,0.07,-0.07,-0.69,-0.13,12.97,12.96,12.96
39.34,13.04,0.12,13.02,0.09,-0.09,-0.71,-0.16,12.95,12.93,12.92
39.74,13.05,0.15,13.01,0.11,-0.11,-0.72,-0.19,12.94,12.90,12.90
40.14,13.03,0.16,13.00,0.13,-0.13,-0.73,-0.22,12.90,12.87,12.87
40.54,12.99,0.15,12.99,0.15,-0.15,-0.75,-0.25,12.84,12.84,12.84
40.94,12.95,0.14,12.98,0.17,-0.17,-0.76,-0.28,12.78,12.81,12.81
41.35,12.94,0.15,12.97,0.19,-0.19,-0.77,-0.31,12.75,12.78,12.79
41.76,12.94,0.20,12.96,0.21,-0.21,-0.79,-0.35,12.73,12.75,12.74
42.18,12.94,0.22,12.95,0.23,-0.23,-0.80,-0.38,12.71,12.72,12.72
42.60,12.94,0.24,12.95,0.25,-0.25,-0.82,-0.41,12.69,12.69,12.70
43.03,12.94,0.28,12.94,0.28,-0.28,-0.83,-0.44,12.66,12.67,12.66
43.46,12.94,0.31,12.94,0.30,-0.30,-0.85,-0.48,12.64,12.64,12.63
43.90,12.94,0.33,12.93,0.33,-0.33,-0.87,-0.51,12.61,12.60,12.61
44.33,12.94,0.37,12.94,0.36,-0.36,-0.88,-0.55,12.58,12.57,12.57
44.78,12.94,0.40,12.95,0.41,-0.41,-0.90,-0.58,12.53,12.54,12.54
45.23,12.94,0.42,12.95,0.45,-0.45,-0.91,-0.62,12.49,12.50,12.52
45.68,12.94,0.47,12.95,0.49,-0.49,-0.93,-0.65,12.45,12.47,12.47
46.13,12.94,0.52,12.95,0.52,-0.52,-0.95,-0.69,12.42,12.43,12.42
46.60,12.94,0.55,12.94,0.56,-0.56,-0.97,-0.72,12.38,12.38,12.39
47.06,12.94,0.59,12.93,0.59,-0.59,-0.98,-0.76,12.35,12.34,12.35
47.53,12.94,0.63,12.91,0.62,-0.62,-1.00,-0.80,12.32,12.29,12.31
48.01,12.94,0.69,12.90,0.65,-0.65,-1.02,-0.83,12.29,12.25,12.25
48.49,12.94,0.74,12.88,0.68,-0.68,-1.04,-0.87,12.26,12.20,12.20
48.97,12.94,0.79,12.86,0.71,-0.71,-1.06,-0.91,12.23,12.15,12.15
49.46,12.85,0.74,12.84,0.74,-0.74,-1.08,-0.95,12.11,12.10,12.10
49.96,12.75,0.72,12.82,0.77,-0.77,-1.10,-0.98,11.98,12.05,12.03
50.46,12.74,0.75,12.80,0.81,-0.81,-1.12,-1.02,11.94,12.00,11.99
50.96,12.74,0.80,12.79,0.84,-0.84,-1.14,-1.06,11.90,11.95,11.94
51.47,12.74,0.84,12.78,0.88,-0.88,-1.16,-1.10,11.86,11.90,11.90
51.99,12.74,0.90,12.76,0.92,-0.92,-1.18,-1.14,11.82,11.85,11.84
52.51,12.74,0.94,12.75,0.96,-0.96,-1.20,-1.17,11.78,11.79,11.80
53.03,12.74,0.98,12.74,1.00,-1.00,-1.22,-1.21,11.74,11.74,11.76
53.56,12.74,1.04,12.73,1.04,-1.04,-1.24,-1.25,11.70,11.69,11.70
54.10,12.74,1.10,12.72,1.08,-1.08,-1.27,-1.29,11.66,11.64,11.64
54.64,12.74,1.15,12.71,1.12,-1.12,-1.29,-1.33,11.62,11.59,11.59
55.18,12.74,1.21,12.70,1.16,-1.16,-1.31,-1.36,11.58,11.54,11.53
55.74,12.74,1.26,12.69,1.20,-1.20,-1.34,-1.40,11.54,11.49,11.48
56.29,12.71,1.28,12.68,1.23,-1.23,-1.36,-1.44,11.48,11.44,11.43
56.86,12.65,1.26,12.66,1.27,-1.27,-1.38,-1.47,11.38,11.39,11.39
57.42,12.63,1.31,12.65,1.30,-1.30,-1.41,-1.51,11.33,11.34,11.32
58.00,12.62,1.33,12.63,1.34,-1.34,-1.43,-1.54,11.28,11.29,11.29
58.58,12.57,1.32,12.61,1.38,-1.38,-1.46,-1.58,11.19,11.23,11.25
59.16,12.54,1.34,12.59,1.41,-1.41,-1.48,-1.61,11.13,11.18,11.20
59.76,12.54,1.39,12.57,1.45,-1.45,-1.51,-1.64,11.09,11.12,11.15
60.35,12.54,1.46,12.55,1.49,-1.49,-1.54,-1.67,11.05,11.06,11.08
60.96,12.54,1.52,12.53,1.53,-1.53,-1.56,-1.70,11.01,11.00,11.02
61.57,12.55,1.61,12.51,1.57,-1.57,-1.59,-1.73,10.98,10.94,10.94
62.18,12.54,1.67,12.49,1.62,-1.62,-1.62,-1.76,10.92,10.88,10.87
62.80,12.49,1.70,12.48,1.67,-1.67,-1.65,-1.79,10.82,10.81,10.79
63.43,12.46,1.73,12.46,1.72,-1.72,-1.67,-1.81,10.74,10.74,10.73
64.07,12.44,1.77,12.44,1.76,-1.76,-1.70,-1.84,10.68,10.68,10.67
64.71,12.43,1.83,12.42,1.81,-1.81,-1.73,-1.86,10.62,10.61,10.60
65.35,12.40,1.86,12.40,1.87,-1.87,-1.76,-1.89,10.53,10.54,10.54
66.01,12.34,1.88,12.38,1.92,-1.92,-1.79,-1.91,10.42,10.47,10.46
66.67,12.34,1.93,12.36,1.97,-1.97,-1.82,-1.93,10.37,10.40,10.41
67.33,12.34,2.01,12.34,2.01,-2.01,-1.85,-1.96,10.33,10.33,10.33
68.01,12.34,2.08,12.31,2.06,-2.06,-1.88,-1.98,10.28,10.26,10.26
68.69,12.27,2.09,12.29,2.10,-2.10,-1.92,-2.00,10.17,10.19,10.18
69.37,12.24,2.11,12.26,2.15,-2.15,-1.95,-2.02,10.09,10.11,10.13
70.07,12.24,2.19,12.24,2.20,-2.20,-1.98,-2.04,10.04,10.04,10.05
70.77,12.24,2.27,12.22,2.25,-2.25,-2.01,-2.07,9.99,9.97,9.97
71.48,12.24,2.34,12.20,2.30,-2.30,-2.05,-2.09,9.94,9.89,9.90
72.19,12.22,2.40,12.17,2.35,-2.35,-2.08,-2.11,9.87,9.82,9.82
72.91,12.15,2.41,12.15,2.40,-2.40,-2.11,-2.14,9.75,9.75,9.74
73.64,12.08,2.41,12.12,2.45,-2.45,-2.15,-2.16,9.63,9.68,9.67
74.38,12.04,2.44,12.09,2.49,-2.49,-2.18,-2.19,9.55,9.60,9.60
75.12,12.04,2.52,12.06,2.53,-2.53,-2.22,-2.21,9.51,9.53,9.52
75.87,12.04,2.58,12.04,2.57,-2.57,-2.26,-2.24,9.47,9.46,9.46
76.63,12.04,2.65,12.01,2.62,-2.62,-2.29,-2.27,9.42,9.40,9.39
77.40,12.02,2.69,11.99,2.66,-2.66,-2.33,-2.30,9.36,9.33,9.33
78.17,11.97,2.72,11.95,2.69,-2.69,-2.37,-2.33,9.27,9.26,9.25
78.95,11.91,2.71,11.92,2.73,-2.73,-2.40,-2.36,9.18,9.19,9.20
79.74,11.86,2.73,11.89,2.77,-2.77,-2.44,-2.40,9.09,9.13,9.13
80.54,11.84,2.78,11.87,2.81,-2.81,-2.48,-2.44,9.03,9.06,9.06
81.35,11.84,2.85,11.85,2.85,-2.85,-2.52,-2.47,8.99,8.99,8.99
82.16,11.84,2.91,11.82,2.90,-2.90,-2.56,-2.51,8.94,8.93,8.93
82.98,11.84,2.98,11.80,2.94,-2.94,-2.60,-2.56,8.90,8.86,8.86
83.81,11.78,2.99,11.77,2.98,-2.98,-2.64,-2.60,8.80,8.79,8.79
84.65,11.72,3.00,11.74,3.02,-3.02,-2.68,-2.65,8.70,8.72,8.72
85.50,11.67,3.03,11.71,3.06,-3.06,-2.72,-2.69,8.61,8.65,8.64
86.35,11.64,3.07,11.68,3.10,-3.10,-2.76,-2.75,8.54,8.58,8.57
87.22,11.64,3.14,11.65,3.14,-3.14,-2.80,-2.80,8.50,8.50,8.50
88.09,11.64,3.21,11.62,3.19,-3.19,-2.84,-2.85,8.45,8.43,8.43
88.97,11.64,3.28,11.59,3.23,-3.23,-2.88,-2.91,8.41,8.35,8.36
89.86,11.58,3.31,11.55,3.27,-3.27,-2.93,-2.97,8.31,8.28,8.27
90.76,11.52,3.32,11.52,3.32,-3.32,-2.97,-3.03,8.20,8.20,8.20
91.66,11.46,3.35,11.48,3.37,-3.37,-3.01,-3.09,8.09,8.12,8.11
92.58,11.44,3.40,11.45,3.42,-3.42,-3.06,-3.16,8.02,8.04,8.04
93.51,11.39,3.43,11.42,3.47,-3.47,-3.10,-3.23,7.92,7.95,7.96
94.44,11.35,3.47,11.39,3.52,-3.52,-3.14,-3.30,7.83,7.87,7.88
95.39,11.34,3.55,11.35,3.57,-3.57,-3.19,-3.37,7.77,7.78,7.79
96.34,11.32,3.63,11.31,3.62,-3.62,-3.23,-3.44,7.70,7.69,7.69
97.30,11.27,3.67,11.26,3.66,-3.66,-3.28,-3.52,7.61,7.60,7.60
98.28,11.22,3.72,11.21,3.71,-3.71,-3.32,-3.60,7.51,7.50,7.50
99.26,11.21,3.81,11.17,3.76,-3.76,-3.37,-3.68,7.45,7.41,7.40
100.25,11.17,3.86,11.12,3.80,-3.80,-3.41,-3.76,7.37,7.32,7.31
101.25,11.07,3.85,11.06,3.84,-3.84,-3.46,-3.84,7.23,7.22,7.22
102.27,11.02,3.89,11.01,3.88,-3.88,-3.50,-3.92,7.14,7.13,7.13
103.29,10.94,3.91,10.95,3.92,-3.92,-3.55,-4.00,7.02,7.03,7.03
104.32,10.86,3.91,10.89,3.95,-3.95,-3.60,-4.08,6.91,6.94,6.95
105.37,10.80,3.95,10.83,3.98,-3.98,-3.64,-4.17,6.82,6.85,6.85
106.42,10.78,4.03,10.76,4.01,-4.01,-3.69,-4.25,6.77,6.75,6.75
107.48,10.72,4.07,10.70,4.04,-4.04,-3.74,-4.33,6.68,6.66,6.65
108.56,10.64,4.07,10.65,4.08,-4.08,-3.78,-4.41,6.56,6.57,6.57
109.64,10.55,4.07,10.58,4.11,-4.11,-3.83,-4.49,6.44,6.48,6.48
110.74,10.49,4.11,10.52,4.14,-4.14,-3.88,-4.57,6.35,6.39,6.38
111.85,10.47,4.17,10.47,4.17,-4.17,-3.92,-4.64,6.30,6.30,6.30
112.97,10.46,4.25,10.42,4.21,-4.21,-3.97,-4.71,6.25,6.21,6.21
114.10,10.41,4.28,10.37,4.25,-4.25,-4.02,-4.78,6.16,6.12,6.13
115.24,10.28,4.24,10.33,4.29,-4.29,-4.06,-4.85,5.99,6.04,6.04
116.39,10.26,4.32,10.28,4.32,-4.32,-4.11,-4.91,5.94,5.96,5.94
117.55,10.26,4.39,10.24,4.36,-4.36,-4.16,-4.96,5.90,5.88,5.87
118.73,10.23,4.45,10.19,4.40,-4.40,-4.20,-5.01,5.83,5.80,5.78
119.92,10.10,4.39,10.15,4.43,-4.43,-4.25,-5.06,5.67,5.72,5.71
121.12,10.07,4.42,10.11,4.47,-4.47,-4.29,-5.10,5.60,5.64,5.65
122.33,10.08,4.51,10.08,4.51,-4.51,-4.34,-5.13,5.57,5.56,5.57
123.55,10.09,4.59,10.04,4.55,-4.55,-4.38,-5.16,5.54,5.49,5.50
124.79,10.03,4.60,10.00,4.58,-4.58,-4.43,-5.18,5.45,5.41,5.43
126.03,9.91,4.56,9.96,4.62,-4.62,-4.47,-5.20,5.29,5.34,5.35
127.29,9.91,4.64,9.92,4.65,-4.65,-4.52,-5.21,5.26,5.27,5.27
128.57,9.90,4.70,9.88,4.68,-4.68,-4.56,-5.22,5.22,5.20,5.20
129.85,9.84,4.72,9.84,4.71,-4.71,-4.60,-5.21,5.13,5.12,5.12
131.15,9.80,4.75,9.79,4.74,-4.74,-4.65,-5.21,5.06,5.05,5.05
132.46,9.75,4.78,9.75,4.78,-4.78,-4.69,-5.19,4.97,4.98,4.97
133.79,9.73,4.83,9.72,4.81,-4.81,-4.73,-5.18,4.92,4.91,4.90
135.12,9.68,4.85,9.67,4.83,-4.83,-4.77,-5.16,4.85,4.83,4.83
136.48,9.62,4.85,9.62,4.86,-4.86,-4.81,-5.13,4.76,4.76,4.77
137.84,9.55,4.85,9.57,4.88,-4.88,-4.85,-5.10,4.67,4.69,4.70
139.22,9.49,4.88,9.52,4.90,-4.90,-4.89,-5.07,4.59,4.62,4.61
140.61,9.45,4.89,9.46,4.91,-4.91,-4.92,-5.03,4.54,4.55,4.56
142.02,9.45,4.97,9.40,4.92,-4.92,-4.96,-5.00,4.53,4.48,4.48
143.44,9.38,4.97,9.35,4.93,-4.93,-4.99,-4.96,4.45,4.42,4.41
144.87,9.32,4.98,9.30,4.95,-4.95,-5.03,-4.92,4.37,4.35,4.34
146.32,9.26,4.98,9.24,4.96,-4.96,-5.06,-4.88,4.30,4.28,4.28
147.78,9.18,4.97,9.19,4.98,-4.98,-5.09,-4.84,4.20,4.21,4.21
149.26,9.11,4.97,9.14,5.00,-5.00,-5.13,-4.80,4.11,4.14,4.14
150.75,9.05,4.98,9.09,5.02,-5.02,-5.16,-4.76,4.03,4.08,4.07
152.26,8.98,4.97,9.04,5.03,-5.03,-5.18,-4.72,3.95,4.01,4.01
153.78,8.94,5.00,8.99,5.05,-5.05,-5.21,-4.68,3.89,3.94,3.94
155.32,8.94,5.06,8.94,5.07,-5.07,-5.24,-4.64,3.87,3.87,3.88
156.88,8.95,5.14,8.89,5.09,-5.09,-5.26,-4.61,3.86,3.80,3.81
158.44,8.87,5.13,8.83,5.10,-5.10,-5.29,-4.58,3.77,3.73,3.74
160.03,8.82,5.16,8.78,5.12,-5.12,-5.31,-4.55,3.70,3.66,3.66
161.63,8.75,5.15,8.73,5.14,-5.14,-5.33,-4.52,3.61,3.59,3.60
163.24,8.68,5.16,8.67,5.15,-5.15,-5.35,-4.50,3.53,3.52,3.52
164.88,8.62,5.17,8.62,5.17,-5.17,-5.36,-4.47,3.45,3.45,3.45
166.53,8.55,5.17,8.56,5.18,-5.18,-5.38,-4.45,3.37,3.38,3.38
168.19,8.50,5.19,8.49,5.18,-5.18,-5.39,-4.44,3.32,3.31,3.31
169.87,8.43,5.19,8.43,5.19,-5.19,-5.41,-4.43,3.24,3.24,3.24
171.57,8.33,5.16,8.36,5.19,-5.19,-5.42,-4.42,3.14,3.17,3.17
173.29,8.29,5.19,8.29,5.18,-5.18,-5.43,-4.41,3.11,3.10,3.10
175.02,8.22,5.18,8.22,5.18,-5.18,-5.43,-4.41,3.04,3.04,3.04
176.77,8.16,5.19,8.15,5.18,-5.18,-5.44,-4.41,2.98,2.98,2.97
178.54,8.10,5.19,8.09,5.18,-5.18,-5.44,-4.42,2.92,2.91,2.91
180.32,8.03,5.19,8.04,5.18,-5.18,-5.45,-4.42,2.85,2.85,2.84
182.13,7.97,5.18,7.99,5.19,-5.19,-5.45,-4.44,2.78,2.79,2.79
183.95,7.91,5.17,7.94,5.20,-5.20,-5.44,-4.45,2.71,2.74,2.74
185.79,7.87,5.19,7.89,5.21,-5.21,-5.44,-4.47,2.66,2.68,2.68
187.65,7.83,5.20,7.84,5.21,-5.21,-5.44,-4.49,2.62,2.62,2.63
189.52,7.77,5.20,7.79,5.22,-5.22,-5.43,-4.52,2.55,2.57,2.57
191.42,7.71,5.18,7.75,5.23,-5.23,-5.42,-4.54,2.48,2.52,2.53
193.33,7.69,5.22,7.70,5.23,-5.23,-5.41,-4.57,2.46,2.47,2.47
195.27,7.69,5.27,7.66,5.24,-5.24,-5.40,-4.61,2.45,2.42,2.42
197.22,7.68,5.32,7.61,5.24,-5.24,-5.38,-4.64,2.44,2.37,2.36
199.19,7.58,5.26,7.55,5.23,-5.23,-5.37,-4.68,2.35,2.32,2.32
201.18,7.52,5.25,7.50,5.22,-5.22,-5.35,-4.72,2.30,2.27,2.27
203.19,7.44,5.22,7.44,5.21,-5.21,-5.33,-4.76,2.23,2.23,2.22
205.23,7.35,5.17,7.38,5.20,-5.20,-5.31,-4.80,2.15,2.18,2.18
207.28,7.33,5.19,7.32,5.19,-5.19,-5.29,-4.85,2.14,2.13,2.14
209.35,7.28,5.19,7.26,5.17,-5.17,-5.27,-4.89,2.11,2.09,2.09
211.44,7.22,5.17,7.20,5.15,-5.15,-5.24,-4.94,2.07,2.04,2.05
213.56,7.13,5.12,7.13,5.13,-5.13,-5.21,-4.98,2.00,2.00,2.01
215.69,7.03,5.07,7.07,5.11,-5.11,-5.18,-5.03,1.92,1.96,1.96
217.85,6.92,4.99,7.00,5.08,-5.08,-5.15,-5.07,1.84,1.92,1.93
220.03,6.91,5.04,6.94,5.06,-5.06,-5.12,-5.11,1.85,1.88,1.87
222.23,6.91,5.07,6.88,5.03,-5.03,-5.09,-5.15,1.88,1.85,1.84
224.45,6.84,5.03,6.82,5.00,-5.00,-5.05,-5.19,1.84,1.81,1.81
226.70,6.79,5.02,6.76,4.98,-4.98,-5.02,-5.23,1.81,1.78,1.77
228.96,6.71,4.96,6.70,4.95,-4.95,-4.98,-5.26,1.76,1.75,1.75
231.25,6.66,4.93,6.64,4.91,-4.91,-4.94,-5.28,1.75,1.73,1.73
233.57,6.62,4.92,6.58,4.88,-4.88,-4.90,-5.30,1.74,1.71,1.70
235.90,6.51,4.83,6.53,4.84,-4.84,-4.86,-5.32,1.67,1.69,1.68
238.26,6.45,4.79,6.48,4.81,-4.81,-4.82,-5.33,1.64,1.67,1.66
240.64,6.39,4.73,6.43,4.77,-4.77,-4.77,-5.33,1.62,1.66,1.66
243.05,6.35,4.70,6.38,4.73,-4.73,-4.73,-5.33,1.62,1.65,1.65
245.48,6.32,4.69,6.32,4.69,-4.69,-4.68,-5.32,1.63,1.63,1.63
247.93,6.26,4.65,6.26,4.64,-4.64,-4.64,-5.31,1.62,1.62,1.61
250.41,6.23,4.61,6.21,4.60,-4.60,-4.59,-5.28,1.63,1.61,1.62
252.92,6.17,4.56,6.16,4.56,-4.56,-4.54,-5.25,1.61,1.60,1.61
255.45,6.11,4.52,6.10,4.51,-4.51,-4.49,-5.22,1.60,1.59,1.59
258.00,6.07,4.49,6.05,4.47,-4.47,-4.44,-5.17,1.60,1.57,1.58
260.58,6.00,4.43,5.99,4.43,-4.43,-4.39,-5.12,1.57,1.56,1.57
263.19,5.94,4.38,5.94,4.39,-4.39,-4.34,-5.06,1.55,1.55,1.56
265.82,5.89,4.36,5.88,4.35,-4.35,-4.28,-5.00,1.54,1.53,1.53
268.48,5.81,4.29,5.82,4.30,-4.30,-4.23,-4.93,1.51,1.52,1.52
271.16,5.75,4.25,5.75,4.25,-4.25,-4.18,-4.85,1.50,1.50,1.50
273.87,5.68,4.19,5.68,4.20,-4.20,-4.12,-4.77,1.48,1.49,1.49
276.61,5.61,4.14,5.62,4.15,-4.15,-4.07,-4.69,1.46,1.47,1.47
279.38,5.56,4.12,5.56,4.10,-4.10,-4.01,-4.60,1.46,1.46,1.44
282.17,5.50,4.06,5.49,4.04,-4.04,-3.95,-4.50,1.46,1.45,1.44
284.99,5.43,4.00,5.42,3.99,-3.99,-3.90,-4.41,1.44,1.44,1.43
287.84,5.34,3.91,5.36,3.93,-3.93,-3.84,-4.31,1.41,1.43,1.43
290.72,5.30,3.89,5.30,3.88,-3.88,-3.78,-4.21,1.42,1.42,1.41
293.63,5.23,3.82,5.24,3.82,-3.82,-3.72,-4.11,1.41,1.41,1.41
296.57,5.19,3.78,5.18,3.77,-3.77,-3.66,-4.00,1.42,1.41,1.41
299.53,5.07,3.67,5.12,3.72,-3.72,-3.60,-3.90,1.35,1.40,1.40
302.53,5.05,3.64,5.06,3.66,-3.66,-3.54,-3.79,1.39,1.40,1.41
305.55,5.03,3.63,5.00,3.61,-3.61,-3.48,-3.69,1.42,1.39,1.40
308.61,4.91,3.51,4.94,3.55,-3.55,-3.42,-3.59,1.36,1.39,1.40
311.69,4.87,3.49,4.88,3.49,-3.49,-3.36,-3.48,1.38,1.39,1.38
314.81,4.85,3.46,4.81,3.43,-3.43,-3.30,-3.38,1.42,1.38,1.39
317.96,4.75,3.38,4.75,3.37,-3.37,-3.24,-3.27,1.38,1.38,1.37
321.14,4.69,3.32,4.68,3.31,-3.31,-3.18,-3.17,1.38,1.37,1.37
324.35,4.67,3.30,4.61,3.24,-3.24,-3.12,-3.07,1.43,1.37,1.37
327.59,4.56,3.19,4.54,3.17,-3.17,-3.06,-2.97,1.39,1.37,1.37
330.87,4.45,3.08,4.47,3.10,-3.10,-3.00,-2.88,1.35,1.36,1.37
334.18,4.38,3.03,4.40,3.04,-3.04,-2.94,-2.78,1.34,1.36,1.35
337.52,4.34,2.98,4.32,2.96,-2.96,-2.87,-2.68,1.38,1.36,1.36
340.90,4.22,2.87,4.25,2.89,-2.89,-2.81,-2.59,1.33,1.36,1.35
344.30,4.15,2.79,4.18,2.82,-2.82,-2.75,-2.50,1.33,1.36,1.36
347.75,4.09,2.73,4.11,2.75,-2.75,-2.69,-2.41,1.34,1.36,1.36
351.23,4.02,2.67,4.03,2.67,-2.67,-2.62,-2.32,1.35,1.36,1.35
354.74,3.96,2.60,3.96,2.60,-2.60,-2.56,-2.24,1.36,1.36,1.36
358.28,3.89,2.53,3.89,2.53,-2.53,-2.50,-2.16,1.36,1.37,1.36
361.87,3.83,2.46,3.82,2.45,-2.45,-2.44,-2.07,1.38,1.37,1.37
365.49,3.79,2.42,3.76,2.39,-2.39,-2.37,-1.99,1.40,1.37,1.37
369.14,3.71,2.33,3.70,2.32,-2.32,-2.31,-1.91,1.39,1.37,1.38
372.83,3.66,2.27,3.63,2.26,-2.26,-2.25,-1.84,1.40,1.38,1.38
376.56,3.59,2.21,3.57,2.19,-2.19,-2.18,-1.76,1.40,1.38,1.38
380.33,3.48,2.10,3.51,2.13,-2.13,-2.12,-1.69,1.35,1.38,1.38
384.13,3.41,2.02,3.45,2.07,-2.07,-2.06,-1.62,1.34,1.38,1.39
387.97,3.36,1.98,3.39,2.01,-2.01,-1.99,-1.55,1.35,1.37,1.38
391.85,3.31,1.93,3.32,1.95,-1.95,-1.93,-1.48,1.36,1.37,1.38
395.77,3.24,1.87,3.25,1.89,-1.89,-1.87,-1.41,1.35,1.36,1.37
399.73,3.23,1.87,3.19,1.83,-1.83,-1.80,-1.34,1.40,1.36,1.36
403.72,3.19,1.82,3.12,1.77,-1.77,-1.74,-1.28,1.42,1.35,1.37
407.76,3.05,1.70,3.05,1.70,-1.70,-1.67,-1.21,1.35,1.35,1.35
411.84,3.01,1.66,2.99,1.65,-1.65,-1.61,-1.15,1.36,1.34,1.35
415.96,2.95,1.61,2.93,1.59,-1.59,-1.54,-1.09,1.36,1.34,1.34
420.12,2.86,1.53,2.87,1.53,-1.53,-1.48,-1.03,1.33,1.35,1.33
424.32,2.84,1.50,2.83,1.47,-1.47,-1.42,-0.97,1.37,1.35,1.34
428.56,2.75,1.39,2.78,1.41,-1.41,-1.35,-0.91,1.34,1.37,1.36
432.85,2.65,1.27,2.73,1.35,-1.35,-1.29,-0.86,1.30,1.38,1.38
437.18,2.69,1.31,2.70,1.29,-1.29,-1.22,-0.80,1.40,1.41,1.38
441.55,2.65,1.23,2.66,1.22,-1.22,-1.15,-0.75,1.43,1.44,1.42
445.96,2.56,1.10,2.63,1.16,-1.16,-1.09,-0.69,1.40,1.48,1.46
450.42,2.61,1.11,2.61,1.10,-1.10,-1.02,-0.64,1.51,1.52,1.50
454.93,2.63,1.08,2.60,1.04,-1.04,-0.96,-0.59,1.59,1.56,1.55
459.48,2.55,0.94,2.59,0.97,-0.97,-0.89,-0.54,1.58,1.61,1.61
464.07,2.60,0.93,2.57,0.90,-0.90,-0.82,-0.49,1.70,1.67,1.67
468.71,2.60,0.88,2.55,0.83,-0.83,-0.76,-0.44,1.77,1.72,1.72
473.40,2.55,0.77,2.54,0.76,-0.76,-0.69,-0.39,1.79,1.77,1.78
478.13,2.50,0.66,2.51,0.69,-0.69,-0.62,-0.34,1.81,1.83,1.84
482.91,2.51,0.62,2.49,0.61,-0.61,-0.55,-0.29,1.90,1.88,1.89
