frequency,raw,error,smoothed,error_smoothed,equalization,parametric_eq,fixed_band_eq,equalized_raw,equalized_smoothed,target
20.00,-6.68,-9.83,-6.71,-9.87,9.87,9.16,4.06,3.19,3.17,3.14
20.20,-6.65,-9.83,-6.65,-9.84,9.84,9.24,4.17,3.19,3.19,3.17
20.40,-6.61,-9.82,-6.60,-9.81,9.81,9.32,4.28,3.20,3.21,3.20
20.61,-6.56,-9.78,-6.55,-9.78,9.78,9.39,4.39,3.22,3.23,3.22
20.81,-6.51,-9.77,-6.50,-9.75,9.75,9.46,4.51,3.23,3.24,3.25
21.02,-6.46,-9.75,-6.45,-9.71,9.71,9.52,4.63,3.25,3.26,3.28
21.23,-6.42,-9.72,-6.41,-9.68,9.68,9.58,4.76,3.25,3.27,3.29
21.44,-6.36,-9.66,-6.36,-9.64,9.64,9.63,4.89,3.28,3.28,3.30
21.66,-6.31,-9.62,-6.31,-9.61,9.61,9.67,5.02,3.30,3.29,3.31
21.87,-6.25,-9.56,-6.27,-9.57,9.57,9.71,5.15,3.32,3.30,3.31
22.09,-6.21,-9.53,-6.22,-9.54,9.54,9.74,5.29,3.32,3.31,3.32
22.31,-6.16,-9.48,-6.18,-9.50,9.50,9.76,5.44,3.33,3.32,3.32
22.54,-6.14,-9.45,-6.14,-9.46,9.46,9.78,5.58,3.32,3.32,3.32
22.76,-6.08,-9.40,-6.09,-9.41,9.41,9.79,5.74,3.33,3.32,3.32
22.99,-6.05,-9.36,-6.05,-9.37,9.37,9.80,5.89,3.32,3.32,3.31
23.22,-6.01,-9.32,-6.01,-9.33,9.33,9.80,6.05,3.31,3.31,3.31
23.45,-5.97,-9.28,-5.98,-9.29,9.29,9.79,6.21,3.31,3.31,3.30
23.69,-5.95,-9.25,-5.94,-9.25,9.25,9.77,6.38,3.30,3.31,3.30
23.92,-5.91,-9.22,-5.90,-9.21,9.21,9.76,6.55,3.29,3.31,3.30
24.16,-5.86,-9.18,-5.86,-9.17,9.17,9.73,6.72,3.30,3.31,3.31
24.40,-5.83,-9.14,-5.82,-9.12,9.12,9.70,6.90,3.29,3.30,3.31
24.65,-5.78,-9.08,-5.78,-9.08,9.08,9.66,7.08,3.31,3.30,3.30
24.89,-5.74,-9.04,-5.74,-9.04,9.04,9.62,7.26,3.30,3.30,3.30
25.14,-5.69,-8.99,-5.70,-9.00,9.00,9.58,7.45,3.30,3.30,3.30
25.39,-5.66,-8.96,-5.66,-8.95,8.95,9.53,7.64,3.29,3.30,3.30
25.65,-5.61,-8.91,-5.61,-8.91,8.91,9.48,7.83,3.29,3.29,3.30
25.91,-5.58,-8.86,-5.57,-8.86,8.86,9.43,8.02,3.29,3.29,3.29
26.16,-5.53,-8.82,-5.53,-8.82,8.82,9.37,8.21,3.28,3.29,3.28
26.43,-5.49,-8.77,-5.49,-8.77,8.77,9.31,8.40,3.29,3.29,3.28
26.69,-5.45,-8.74,-5.44,-8.73,8.73,9.25,8.60,3.27,3.28,3.28
26.96,-5.41,-8.69,-5.41,-8.68,8.68,9.18,8.79,3.28,3.28,3.28
27.23,-5.38,-8.65,-5.37,-8.64,8.64,9.12,8.98,3.27,3.27,3.28
27.50,-5.32,-8.60,-5.33,-8.61,8.61,9.05,9.16,3.28,3.27,3.28
27.77,-5.29,-8.56,-5.30,-8.57,8.57,8.98,9.34,3.27,3.27,3.27
28.05,-5.27,-8.54,-5.27,-8.54,8.54,8.91,9.52,3.26,3.26,3.26
28.33,-5.23,-8.49,-5.25,-8.51,8.51,8.85,9.68,3.27,3.26,3.25
28.62,-5.23,-8.49,-5.23,-8.48,8.48,8.78,9.84,3.25,3.25,3.25
28.90,-5.18,-8.43,-5.22,-8.47,8.47,8.71,9.99,3.28,3.25,3.25
29.19,-5.18,-8.42,-5.21,-8.45,8.45,8.64,10.12,3.27,3.24,3.24
29.48,-5.18,-8.43,-5.20,-8.44,8.44,8.58,10.24,3.25,3.24,3.25
29.78,-5.18,-8.42,-5.20,-8.43,8.43,8.51,10.35,3.24,3.23,3.23
30.08,-5.18,-8.42,-5.20,-8.42,8.42,8.45,10.44,3.24,3.23,3.23
30.38,-5.18,-8.40,-5.19,-8.42,8.42,8.39,10.51,3.23,3.22,3.22
30.68,-5.18,-8.40,-5.19,-8.41,8.41,8.32,10.56,3.22,3.21,3.22
30.99,-5.21,-8.42,-5.19,-8.40,8.40,8.26,10.60,3.18,3.21,3.20
31.30,-5.19,-8.40,-5.18,-8.38,8.38,8.21,10.61,3.19,3.20,3.20
31.61,-5.18,-8.38,-5.17,-8.36,8.36,8.15,10.61,3.18,3.20,3.20
31.93,-5.18,-8.37,-5.15,-8.34,8.34,8.10,10.59,3.15,3.19,3.19
32.24,-5.14,-8.32,-5.13,-8.31,8.31,8.04,10.54,3.17,3.18,3.17
32.57,-5.12,-8.30,-5.10,-8.27,8.27,7.99,10.49,3.15,3.17,3.17
32.89,-5.08,-8.25,-5.06,-8.23,8.23,7.95,10.41,3.14,3.17,3.17
33.22,-5.03,-8.19,-5.02,-8.18,8.18,7.90,10.32,3.15,3.16,3.16
33.55,-4.97,-8.13,-4.98,-8.13,8.13,7.86,10.22,3.15,3.15,3.15
33.89,-4.91,-8.05,-4.93,-8.07,8.07,7.82,10.10,3.15,3.14,3.14
34.23,-4.86,-8.00,-4.87,-8.01,8.01,7.78,9.98,3.14,3.13,3.14
34.57,-4.82,-7.95,-4.82,-7.94,7.94,7.75,9.84,3.12,3.12,3.12
34.92,-4.78,-7.88,-4.77,-7.88,7.88,7.71,9.70,3.11,3.11,3.11
35.27,-4.72,-7.82,-4.72,-7.82,7.82,7.68,9.55,3.11,3.10,3.11
35.62,-4.65,-7.75,-4.67,-7.76,7.76,7.65,9.40,3.11,3.09,3.09
35.97,-4.60,-7.68,-4.63,-7.71,7.71,7.63,9.25,3.11,3.08,3.08
36.33,-4.57,-7.65,-4.59,-7.66,7.66,7.60,9.09,3.08,3.07,3.07
36.70,-4.53,-7.59,-4.55,-7.61,7.61,7.58,8.93,3.07,3.06,3.06
37.06,-4.49,-7.54,-4.52,-7.56,7.56,7.56,8.78,3.07,3.05,3.04
37.43,-4.49,-7.53,-4.49,-7.52,7.52,7.55,8.62,3.03,3.04,3.04
37.81,-4.45,-7.48,-4.47,-7.49,7.49,7.53,8.47,3.04,3.02,3.02
38.19,-4.45,-7.46,-4.45,-7.46,7.46,7.52,8.31,3.00,3.01,3.01
38.57,-4.43,-7.44,-4.43,-7.43,7.43,7.50,8.16,2.99,3.00,3.00
38.95,-4.40,-7.39,-4.42,-7.40,7.40,7.49,8.02,3.00,2.99,2.99
39.34,-4.39,-7.37,-4.40,-7.38,7.38,7.48,7.87,2.98,2.98,2.97
39.74,-4.36,-7.32,-4.39,-7.35,7.35,7.47,7.73,2.99,2.96,2.96
40.14,-4.36,-7.31,-4.37,-7.32,7.32,7.46,7.60,2.96,2.95,2.95
40.54,-4.36,-7.30,-4.35,-7.29,7.29,7.46,7.47,2.93,2.94,2.93
40.94,-4.36,-7.29,-4.33,-7.26,7.26,7.45,7.34,2.89,2.93,2.93
41.35,-4.35,-7.26,-4.31,-7.22,7.22,7.44,7.22,2.87,2.92,2.91
41.76,-4.30,-7.21,-4.28,-7.18,7.18,7.43,7.10,2.87,2.90,2.90
42.18,-4.25,-7.15,-4.25,-7.13,7.13,7.42,6.99,2.88,2.89,2.90
42.60,-4.21,-7.09,-4.21,-7.09,7.09,7.41,6.88,2.87,2.87,2.88
43.03,-4.17,-7.04,-4.18,-7.03,7.03,7.40,6.78,2.86,2.86,2.87
43.46,-4.11,-6.97,-4.14,-6.98,6.98,7.38,6.68,2.87,2.84,2.85
43.90,-4.08,-6.91,-4.10,-6.92,6.92,7.37,6.59,2.84,2.83,2.82
44.33,-4.04,-6.85,-4.05,-6.86,6.86,7.35,6.50,2.82,2.81,2.80
44.78,-4.00,-6.79,-4.00,-6.80,6.80,7.33,6.42,2.79,2.79,2.78
45.23,-3.96,-6.72,-3.95,-6.73,6.73,7.30,6.34,2.77,2.77,2.76
45.68,-3.91,-6.66,-3.90,-6.66,6.66,7.28,6.27,2.74,2.75,2.74
46.13,-3.86,-6.59,-3.86,-6.59,6.59,7.24,6.20,2.72,2.73,2.72
46.60,-3.83,-6.54,-3.81,-6.52,6.52,7.21,6.14,2.70,2.71,2.71
47.06,-3.77,-6.47,-3.77,-6.45,6.45,7.17,6.08,2.68,2.69,2.69
47.53,-3.71,-6.38,-3.72,-6.38,6.38,7.13,6.02,2.67,2.66,2.67
48.01,-3.66,-6.32,-3.68,-6.32,6.32,7.08,5.97,2.65,2.64,2.66
48.49,-3.62,-6.25,-3.63,-6.25,6.25,7.03,5.93,2.62,2.62,2.63
48.97,-3.58,-6.18,-3.59,-6.18,6.18,6.97,5.88,2.60,2.59,2.59
49.46,-3.54,-6.10,-3.55,-6.12,6.12,6.91,5.84,2.57,2.57,2.56
49.96,-3.50,-6.03,-3.51,-6.05,6.05,6.85,5.81,2.55,2.54,2.53
50.46,-3.47,-5.99,-3.48,-5.99,5.99,6.78,5.77,2.52,2.51,2.51
50.96,-3.44,-5.93,-3.44,-5.93,5.93,6.71,5.74,2.48,2.49,2.49
51.47,-3.41,-5.86,-3.41,-5.87,5.87,6.63,5.71,2.45,2.46,2.45
51.99,-3.37,-5.79,-3.38,-5.81,5.81,6.55,5.69,2.44,2.43,2.42
52.51,-3.35,-5.76,-3.35,-5.75,5.75,6.47,5.66,2.40,2.40,2.41
53.03,-3.32,-5.71,-3.32,-5.69,5.69,6.38,5.64,2.37,2.37,2.38
53.56,-3.28,-5.64,-3.29,-5.64,5.64,6.30,5.62,2.35,2.35,2.35
54.10,-3.28,-5.61,-3.26,-5.59,5.59,6.20,5.60,2.30,2.32,2.32
54.64,-3.23,-5.53,-3.24,-5.53,5.53,6.11,5.58,2.30,2.30,2.30
55.18,-3.20,-5.47,-3.21,-5.48,5.48,6.01,5.56,2.28,2.27,2.27
55.74,-3.19,-5.43,-3.19,-5.43,5.43,5.92,5.54,2.23,2.24,2.24
56.29,-3.15,-5.37,-3.16,-5.38,5.38,5.82,5.52,2.22,2.22,2.22
56.86,-3.13,-5.32,-3.13,-5.32,5.32,5.72,5.49,2.19,2.19,2.18
57.42,-3.10,-5.26,-3.11,-5.27,5.27,5.62,5.47,2.17,2.16,2.15
58.00,-3.07,-5.20,-3.09,-5.22,5.22,5.52,5.44,2.14,2.13,2.13
58.58,-3.06,-5.17,-3.06,-5.16,5.16,5.41,5.42,2.10,2.10,2.11
59.16,-3.04,-5.13,-3.04,-5.11,5.11,5.31,5.38,2.07,2.07,2.08
59.76,-3.02,-5.08,-3.01,-5.06,5.06,5.21,5.35,2.03,2.04,2.06
60.35,-2.98,-5.00,-2.99,-5.00,5.00,5.11,5.31,2.02,2.01,2.02
60.96,-2.97,-4.97,-2.97,-4.95,4.95,5.01,5.27,1.98,1.98,1.99
61.57,-2.93,-4.88,-2.95,-4.89,4.89,4.91,5.23,1.96,1.95,1.95
62.18,-2.93,-4.84,-2.92,-4.84,4.84,4.81,5.18,1.91,1.92,1.91
62.80,-2.89,-4.77,-2.90,-4.78,4.78,4.71,5.12,1.89,1.88,1.88
63.43,-2.89,-4.73,-2.88,-4.73,4.73,4.61,5.07,1.83,1.85,1.84
64.07,-2.84,-4.65,-2.86,-4.67,4.67,4.51,5.01,1.83,1.81,1.81
64.71,-2.84,-4.62,-2.83,-4.61,4.61,4.42,4.94,1.77,1.78,1.78
65.35,-2.80,-4.55,-2.81,-4.56,4.56,4.32,4.87,1.75,1.74,1.74
66.01,-2.80,-4.51,-2.79,-4.50,4.50,4.23,4.80,1.69,1.71,1.71
66.67,-2.76,-4.44,-2.77,-4.44,4.44,4.14,4.72,1.68,1.67,1.67
67.33,-2.76,-4.40,-2.75,-4.39,4.39,4.05,4.64,1.62,1.64,1.64
68.01,-2.71,-4.32,-2.73,-4.33,4.33,3.96,4.56,1.62,1.60,1.60
68.69,-2.71,-4.28,-2.71,-4.28,4.28,3.87,4.47,1.56,1.56,1.56
69.37,-2.67,-4.20,-2.69,-4.22,4.22,3.79,4.38,1.54,1.53,1.53
70.07,-2.67,-4.16,-2.67,-4.16,4.16,3.70,4.29,1.49,1.49,1.49
70.77,-2.65,-4.11,-2.65,-4.10,4.10,3.62,4.20,1.45,1.45,1.46
71.48,-2.63,-4.05,-2.63,-4.04,4.04,3.54,4.11,1.41,1.41,1.42
72.19,-2.63,-4.01,-2.61,-3.99,3.99,3.46,4.01,1.35,1.37,1.37
72.91,-2.58,-3.92,-2.60,-3.93,3.93,3.38,3.92,1.34,1.33,1.33
73.64,-2.58,-3.87,-2.58,-3.87,3.87,3.31,3.82,1.29,1.29,1.29
74.38,-2.54,-3.80,-2.56,-3.81,3.81,3.23,3.72,1.27,1.25,1.25
75.12,-2.54,-3.75,-2.54,-3.75,3.75,3.16,3.62,1.21,1.21,1.21
75.87,-2.53,-3.70,-2.53,-3.70,3.70,3.09,3.53,1.16,1.17,1.17
76.63,-2.50,-3.63,-2.51,-3.64,3.64,3.02,3.43,1.13,1.13,1.13
77.40,-2.50,-3.60,-2.49,-3.58,3.58,2.95,3.33,1.08,1.09,1.09
78.17,-2.45,-3.50,-2.47,-3.52,3.52,2.88,3.24,1.07,1.05,1.04
78.95,-2.45,-3.46,-2.46,-3.46,3.46,2.81,3.14,1.01,1.01,1.01
79.74,-2.45,-3.42,-2.44,-3.40,3.40,2.74,3.05,0.95,0.96,0.97
80.54,-2.41,-3.34,-2.42,-3.34,3.34,2.68,2.96,0.93,0.92,0.92
81.35,-2.41,-3.30,-2.41,-3.29,3.29,2.62,2.86,0.87,0.88,0.88
82.16,-2.38,-3.22,-2.39,-3.23,3.23,2.56,2.77,0.84,0.84,0.84
82.98,-2.37,-3.18,-2.38,-3.17,3.17,2.49,2.69,0.80,0.79,0.80
83.81,-2.37,-3.12,-2.36,-3.11,3.11,2.43,2.60,0.74,0.75,0.74
84.65,-2.33,-3.03,-2.35,-3.05,3.05,2.37,2.51,0.72,0.70,0.70
85.50,-2.32,-2.98,-2.34,-2.99,2.99,2.32,2.43,0.67,0.66,0.66
86.35,-2.32,-2.93,-2.32,-2.93,2.93,2.26,2.35,0.61,0.61,0.61
87.22,-2.32,-2.89,-2.31,-2.87,2.87,2.20,2.26,0.55,0.56,0.56
88.09,-2.28,-2.79,-2.30,-2.81,2.81,2.15,2.19,0.53,0.51,0.51
88.97,-2.28,-2.75,-2.29,-2.75,2.75,2.09,2.11,0.46,0.46,0.47
89.86,-2.28,-2.70,-2.28,-2.69,2.69,2.04,2.03,0.40,0.41,0.42
90.76,-2.28,-2.64,-2.26,-2.62,2.62,1.98,1.96,0.34,0.36,0.35
91.66,-2.24,-2.56,-2.25,-2.56,2.56,1.93,1.88,0.32,0.31,0.31
92.58,-2.24,-2.49,-2.24,-2.49,2.49,1.88,1.81,0.25,0.25,0.25
93.51,-2.24,-2.45,-2.23,-2.43,2.43,1.83,1.74,0.18,0.20,0.20
94.44,-2.19,-2.34,-2.22,-2.36,2.36,1.78,1.67,0.17,0.14,0.15
95.39,-2.19,-2.29,-2.21,-2.29,2.29,1.73,1.60,0.10,0.09,0.09
96.34,-2.19,-2.22,-2.19,-2.22,2.22,1.68,1.54,0.03,0.03,0.03
97.30,-2.19,-2.17,-2.18,-2.15,2.15,1.63,1.47,-0.04,-0.03,-0.03
98.28,-2.15,-2.07,-2.17,-2.09,2.09,1.58,1.41,-0.07,-0.08,-0.09
99.26,-2.15,-2.01,-2.16,-2.02,2.02,1.53,1.34,-0.14,-0.14,-0.14
100.25,-2.15,-1.96,-2.14,-1.94,1.94,1.48,1.28,-0.21,-0.20,-0.20
101.25,-2.11,-1.86,-2.13,-1.87,1.87,1.43,1.22,-0.24,-0.26,-0.26
102.27,-2.11,-1.80,-2.12,-1.80,1.80,1.38,1.16,-0.31,-0.31,-0.31
103.29,-2.11,-1.73,-2.10,-1.73,1.73,1.33,1.10,-0.39,-0.37,-0.38
104.32,-2.07,-1.65,-2.08,-1.65,1.65,1.29,1.05,-0.42,-0.43,-0.43
105.37,-2.06,-1.58,-2.07,-1.58,1.58,1.24,0.99,-0.49,-0.49,-0.49
106.42,-2.06,-1.52,-2.05,-1.50,1.50,1.19,0.94,-0.57,-0.55,-0.54
107.48,-2.02,-1.42,-2.02,-1.42,1.42,1.14,0.88,-0.61,-0.61,-0.60
108.56,-2.02,-1.35,-2.00,-1.34,1.34,1.09,0.83,-0.69,-0.67,-0.67
109.64,-1.98,-1.26,-1.98,-1.25,1.25,1.05,0.78,-0.73,-0.73,-0.73
110.74,-1.95,-1.17,-1.96,-1.17,1.17,1.00,0.73,-0.79,-0.79,-0.79
111.85,-1.93,-1.09,-1.94,-1.08,1.08,0.95,0.68,-0.85,-0.85,-0.84
112.97,-1.90,-0.99,-1.91,-1.00,1.00,0.90,0.63,-0.91,-0.92,-0.92
114.10,-1.89,-0.92,-1.89,-0.91,0.91,0.85,0.58,-0.98,-0.98,-0.98
115.24,-1.86,-0.82,-1.87,-0.83,0.83,0.81,0.54,-1.03,-1.04,-1.04
116.39,-1.85,-0.75,-1.85,-0.75,0.75,0.76,0.49,-1.11,-1.10,-1.11
117.55,-1.82,-0.65,-1.83,-0.67,0.67,0.71,0.45,-1.16,-1.17,-1.17
118.73,-1.81,-0.58,-1.82,-0.59,0.59,0.66,0.40,-1.23,-1.23,-1.24
119.92,-1.80,-0.51,-1.80,-0.51,0.51,0.61,0.36,-1.29,-1.29,-1.29
121.12,-1.77,-0.42,-1.79,-0.44,0.44,0.56,0.32,-1.34,-1.36,-1.36
122.33,-1.76,-0.34,-1.78,-0.36,0.36,0.51,0.28,-1.40,-1.42,-1.42
123.55,-1.76,-0.29,-1.77,-0.29,0.29,0.46,0.24,-1.47,-1.48,-1.47
124.79,-1.76,-0.23,-1.76,-0.22,0.22,0.41,0.20,-1.54,-1.54,-1.53
126.03,-1.76,-0.17,-1.75,-0.15,0.15,0.36,0.16,-1.62,-1.60,-1.60
127.29,-1.73,-0.08,-1.73,-0.07,0.07,0.31,0.12,-1.66,-1.66,-1.66
128.57,-1.72,0.00,-1.72,0.00,-0.00,0.26,0.08,-1.73,-1.72,-1.73
129.85,-1.72,0.06,-1.70,0.08,-0.08,0.20,0.05,-1.80,-1.78,-1.79
131.15,-1.72,0.12,-1.69,0.15,-0.15,0.15,0.01,-1.87,-1.84,-1.84
132.46,-1.68,0.22,-1.67,0.23,-0.23,0.10,-0.02,-1.91,-1.90,-1.90
133.79,-1.65,0.29,-1.65,0.30,-0.30,0.04,-0.06,-1.96,-1.95,-1.95
135.12,-1.62,0.39,-1.63,0.37,-0.37,-0.01,-0.09,-2.00,-2.01,-2.01
136.48,-1.59,0.46,-1.61,0.45,-0.45,-0.07,-0.13,-2.05,-2.06,-2.06
137.84,-1.56,0.55,-1.59,0.53,-0.53,-0.12,-0.16,-2.09,-2.11,-2.11
139.22,-1.55,0.62,-1.57,0.60,-0.60,-0.18,-0.19,-2.15,-2.17,-2.18
140.61,-1.55,0.67,-1.55,0.67,-0.67,-0.24,-0.23,-2.22,-2.22,-2.23
142.02,-1.55,0.70,-1.53,0.73,-0.73,-0.29,-0.26,-2.29,-2.26,-2.26
143.44,-1.50,0.80,-1.51,0.80,-0.80,-0.35,-0.29,-2.30,-2.31,-2.31
144.87,-1.49,0.86,-1.50,0.86,-0.86,-0.41,-0.33,-2.36,-2.36,-2.36
146.32,-1.46,0.94,-1.48,0.92,-0.92,-0.47,-0.36,-2.39,-2.41,-2.41
147.78,-1.46,0.98,-1.47,0.98,-0.98,-0.53,-0.39,-2.45,-2.45,-2.44
149.26,-1.45,1.04,-1.46,1.04,-1.04,-0.59,-0.43,-2.49,-2.50,-2.49
150.75,-1.44,1.10,-1.46,1.09,-1.09,-0.65,-0.46,-2.53,-2.55,-2.55
152.26,-1.46,1.13,-1.45,1.14,-1.14,-0.71,-0.50,-2.61,-2.59,-2.59
153.78,-1.46,1.17,-1.45,1.19,-1.19,-0.77,-0.53,-2.66,-2.64,-2.63
155.32,-1.46,1.22,-1.44,1.24,-1.24,-0.83,-0.57,-2.71,-2.69,-2.69
156.88,-1.44,1.28,-1.44,1.29,-1.29,-0.89,-0.60,-2.74,-2.73,-2.73
158.44,-1.42,1.35,-1.44,1.34,-1.34,-0.96,-0.64,-2.76,-2.78,-2.78
160.03,-1.42,1.40,-1.45,1.38,-1.38,-1.02,-0.68,-2.80,-2.82,-2.83
161.63,-1.46,1.41,-1.45,1.42,-1.42,-1.08,-0.71,-2.88,-2.87,-2.88
163.24,-1.46,1.46,-1.46,1.46,-1.46,-1.15,-0.75,-2.92,-2.92,-2.92
164.88,-1.46,1.50,-1.47,1.49,-1.49,-1.21,-0.79,-2.96,-2.96,-2.96
166.53,-1.46,1.54,-1.48,1.53,-1.53,-1.27,-0.83,-2.99,-3.01,-3.01
168.19,-1.46,1.59,-1.49,1.56,-1.56,-1.33,-0.87,-3.02,-3.05,-3.05
169.87,-1.50,1.59,-1.51,1.59,-1.59,-1.40,-0.91,-3.09,-3.10,-3.10
171.57,-1.52,1.61,-1.52,1.62,-1.62,-1.46,-0.96,-3.14,-3.14,-3.14
173.29,-1.55,1.63,-1.54,1.64,-1.64,-1.52,-1.00,-3.20,-3.19,-3.18
175.02,-1.57,1.65,-1.56,1.67,-1.67,-1.59,-1.04,-3.24,-3.23,-3.22
176.77,-1.59,1.68,-1.58,1.69,-1.69,-1.65,-1.09,-3.29,-3.27,-3.27
178.54,-1.59,1.73,-1.60,1.72,-1.72,-1.71,-1.14,-3.31,-3.32,-3.32
180.32,-1.62,1.74,-1.61,1.74,-1.74,-1.77,-1.18,-3.37,-3.36,-3.36
182.13,-1.63,1.76,-1.63,1.77,-1.77,-1.83,-1.23,-3.40,-3.40,-3.40
183.95,-1.63,1.81,-1.65,1.80,-1.80,-1.88,-1.28,-3.43,-3.44,-3.44
185.79,-1.65,1.83,-1.66,1.82,-1.82,-1.94,-1.33,-3.48,-3.48,-3.48
187.65,-1.68,1.84,-1.67,1.85,-1.85,-2.00,-1.38,-3.54,-3.52,-3.53
189.52,-1.68,1.88,-1.68,1.88,-1.88,-2.05,-1.43,-3.57,-3.56,-3.56
191.42,-1.68,1.91,-1.68,1.91,-1.91,-2.10,-1.49,-3.60,-3.60,-3.59
193.33,-1.68,1.94,-1.69,1.94,-1.94,-2.15,-1.54,-3.63,-3.63,-3.63
195.27,-1.68,1.98,-1.69,1.97,-1.97,-2.20,-1.59,-3.66,-3.66,-3.66
197.22,-1.68,2.01,-1.69,2.00,-2.00,-2.25,-1.65,-3.68,-3.69,-3.69
199.19,-1.68,2.05,-1.69,2.03,-2.03,-2.29,-1.70,-3.71,-3.72,-3.73
201.18,-1.68,2.07,-1.69,2.06,-2.06,-2.34,-1.76,-3.74,-3.75,-3.75
203.19,-1.68,2.09,-1.68,2.09,-2.09,-2.38,-1.81,-3.78,-3.78,-3.77
205.23,-1.68,2.12,-1.68,2.12,-2.12,-2.41,-1.87,-3.81,-3.80,-3.80
207.28,-1.68,2.13,-1.66,2.16,-2.16,-2.45,-1.92,-3.84,-3.82,-3.81
209.35,-1.66,2.17,-1.65,2.19,-2.19,-2.48,-1.98,-3.85,-3.84,-3.84
211.44,-1.63,2.23,-1.64,2.22,-2.22,-2.51,-2.03,-3.86,-3.86,-3.87
213.56,-1.63,2.24,-1.62,2.25,-2.25,-2.53,-2.09,-3.89,-3.87,-3.87
215.69,-1.59,2.28,-1.60,2.28,-2.28,-2.55,-2.14,-3.88,-3.88,-3.88
217.85,-1.57,2.32,-1.58,2.32,-2.32,-2.57,-2.19,-3.89,-3.90,-3.89
220.03,-1.55,2.35,-1.55,2.35,-2.35,-2.59,-2.24,-3.90,-3.90,-3.91
222.23,-1.51,2.41,-1.53,2.38,-2.38,-2.60,-2.29,-3.90,-3.91,-3.92
224.45,-1.50,2.41,-1.50,2.41,-2.41,-2.61,-2.34,-3.92,-3.92,-3.92
226.70,-1.47,2.45,-1.48,2.44,-2.44,-2.62,-2.38,-3.92,-3.92,-3.92
228.96,-1.46,2.46,-1.45,2.47,-2.47,-2.62,-2.42,-3.94,-3.92,-3.92
231.25,-1.42,2.49,-1.43,2.50,-2.50,-2.62,-2.46,-3.92,-3.93,-3.92
233.57,-1.40,2.51,-1.40,2.52,-2.52,-2.61,-2.50,-3.93,-3.92,-3.92
235.90,-1.37,2.55,-1.38,2.54,-2.54,-2.61,-2.53,-3.91,-3.92,-3.92
238.26,-1.36,2.56,-1.36,2.55,-2.55,-2.60,-2.56,-3.92,-3.92,-3.92
240.64,-1.33,2.58,-1.34,2.57,-2.57,-2.59,-2.58,-3.90,-3.91,-3.91
243.05,-1.33,2.57,-1.33,2.57,-2.57,-2.57,-2.60,-3.91,-3.90,-3.90
245.48,-1.29,2.60,-1.32,2.58,-2.58,-2.55,-2.62,-3.87,-3.89,-3.89
247.93,-1.29,2.59,-1.31,2.58,-2.58,-2.53,-2.64,-3.87,-3.88,-3.88
250.41,-1.29,2.59,-1.30,2.57,-2.57,-2.51,-2.65,-3.87,-3.87,-3.88
252.92,-1.29,2.57,-1.29,2.56,-2.56,-2.48,-2.65,-3.86,-3.86,-3.86
255.45,-1.29,2.55,-1.29,2.55,-2.55,-2.46,-2.65,-3.85,-3.85,-3.84
258.00,-1.29,2.53,-1.29,2.54,-2.54,-2.43,-2.65,-3.83,-3.83,-3.83
260.58,-1.29,2.52,-1.29,2.52,-2.52,-2.40,-2.64,-3.82,-3.81,-3.82
263.19,-1.29,2.50,-1.30,2.50,-2.50,-2.37,-2.63,-3.80,-3.80,-3.80
265.82,-1.29,2.49,-1.30,2.48,-2.48,-2.33,-2.62,-3.78,-3.78,-3.78
268.48,-1.31,2.45,-1.30,2.46,-2.46,-2.30,-2.60,-3.78,-3.76,-3.76
271.16,-1.31,2.42,-1.30,2.44,-2.44,-2.26,-2.58,-3.75,-3.74,-3.74
273.87,-1.31,2.41,-1.31,2.42,-2.42,-2.22,-2.56,-3.73,-3.73,-3.72
276.61,-1.31,2.39,-1.31,2.39,-2.39,-2.19,-2.54,-3.71,-3.71,-3.70
279.38,-1.31,2.37,-1.32,2.37,-2.37,-2.15,-2.51,-3.69,-3.69,-3.69
282.17,-1.33,2.34,-1.32,2.35,-2.35,-2.11,-2.48,-3.68,-3.67,-3.67
284.99,-1.33,2.31,-1.33,2.32,-2.32,-2.07,-2.45,-3.66,-3.65,-3.65
287.84,-1.33,2.30,-1.34,2.29,-2.29,-2.03,-2.41,-3.63,-3.63,-3.63
290.72,-1.33,2.27,-1.35,2.26,-2.26,-1.99,-2.38,-3.60,-3.61,-3.61
293.63,-1.34,2.25,-1.36,2.23,-2.23,-1.95,-2.35,-3.58,-3.59,-3.59
296.57,-1.37,2.20,-1.37,2.20,-2.20,-1.91,-2.31,-3.57,-3.57,-3.57
299.53,-1.38,2.17,-1.39,2.16,-2.16,-1.88,-2.27,-3.54,-3.55,-3.55
302.53,-1.42,2.11,-1.41,2.11,-2.11,-1.84,-2.24,-3.54,-3.53,-3.54
305.55,-1.43,2.07,-1.44,2.07,-2.07,-1.80,-2.20,-3.50,-3.51,-3.50
308.61,-1.46,2.02,-1.47,2.02,-2.02,-1.76,-2.16,-3.48,-3.48,-3.49
311.69,-1.50,1.96,-1.50,1.96,-1.96,-1.72,-2.13,-3.46,-3.46,-3.46
314.81,-1.52,1.90,-1.54,1.90,-1.90,-1.69,-2.09,-3.42,-3.44,-3.43
317.96,-1.58,1.83,-1.58,1.83,-1.83,-1.65,-2.06,-3.42,-3.42,-3.41
321.14,-1.61,1.78,-1.63,1.76,-1.76,-1.62,-2.02,-3.38,-3.40,-3.39
324.35,-1.66,1.71,-1.68,1.69,-1.69,-1.58,-1.99,-3.35,-3.37,-3.38
327.59,-1.72,1.63,-1.74,1.61,-1.61,-1.55,-1.96,-3.34,-3.35,-3.35
330.87,-1.78,1.55,-1.80,1.53,-1.53,-1.52,-1.93,-3.32,-3.33,-3.33
334.18,-1.84,1.47,-1.86,1.46,-1.46,-1.49,-1.90,-3.30,-3.31,-3.32
337.52,-1.91,1.39,-1.91,1.38,-1.38,-1.46,-1.87,-3.29,-3.29,-3.30
340.90,-1.96,1.31,-1.97,1.30,-1.30,-1.43,-1.84,-3.27,-3.28,-3.27
344.30,-2.03,1.22,-2.03,1.23,-1.23,-1.41,-1.82,-3.26,-3.26,-3.26
347.75,-2.09,1.14,-2.08,1.16,-1.16,-1.38,-1.79,-3.25,-3.24,-3.24
351.23,-2.13,1.09,-2.13,1.09,-1.09,-1.36,-1.77,-3.23,-3.22,-3.22
354.74,-2.19,1.01,-2.17,1.04,-1.04,-1.33,-1.75,-3.23,-3.20,-3.20
358.28,-2.22,0.96,-2.20,0.99,-0.99,-1.31,-1.73,-3.21,-3.19,-3.19
361.87,-2.24,0.92,-2.22,0.94,-0.94,-1.29,-1.71,-3.19,-3.17,-3.17
365.49,-2.24,0.91,-2.24,0.91,-0.91,-1.27,-1.69,-3.16,-3.15,-3.15
369.14,-2.24,0.90,-2.25,0.89,-0.89,-1.26,-1.67,-3.13,-3.14,-3.14
372.83,-2.26,0.86,-2.25,0.87,-0.87,-1.24,-1.66,-3.14,-3.12,-3.12
376.56,-2.24,0.87,-2.24,0.87,-0.87,-1.23,-1.64,-3.11,-3.11,-3.12
380.33,-2.24,0.84,-2.23,0.87,-0.87,-1.21,-1.63,-3.12,-3.10,-3.09
384.13,-2.20,0.88,-2.20,0.88,-0.88,-1.20,-1.62,-3.08,-3.08,-3.08
387.97,-2.17,0.90,-2.18,0.90,-0.90,-1.19,-1.61,-3.07,-3.07,-3.07
391.85,-2.13,0.93,-2.14,0.92,-0.92,-1.18,-1.60,-3.05,-3.06,-3.06
395.77,-2.09,0.95,-2.10,0.95,-0.95,-1.17,-1.59,-3.04,-3.05,-3.05
399.73,-2.06,0.97,-2.06,0.98,-0.98,-1.17,-1.59,-3.04,-3.04,-3.04
403.72,-2.01,1.01,-2.02,1.01,-1.01,-1.17,-1.58,-3.02,-3.03,-3.03
407.76,-1.96,1.06,-1.97,1.05,-1.05,-1.16,-1.58,-3.01,-3.02,-3.02
411.84,-1.91,1.09,-1.92,1.09,-1.09,-1.16,-1.58,-3.00,-3.01,-3.00
415.96,-1.87,1.12,-1.87,1.13,-1.13,-1.16,-1.57,-3.00,-3.00,-2.99
420.12,-1.82,1.16,-1.82,1.17,-1.17,-1.17,-1.57,-2.99,-2.99,-2.98
424.32,-1.75,1.22,-1.76,1.21,-1.21,-1.17,-1.57,-2.97,-2.98,-2.98
428.56,-1.70,1.26,-1.71,1.25,-1.25,-1.17,-1.57,-2.96,-2.97,-2.97
432.85,-1.65,1.30,-1.66,1.29,-1.29,-1.18,-1.57,-2.95,-2.95,-2.96
437.18,-1.61,1.33,-1.61,1.33,-1.33,-1.19,-1.57,-2.95,-2.94,-2.95
441.55,-1.57,1.36,-1.56,1.37,-1.37,-1.20,-1.58,-2.94,-2.93,-2.93
445.96,-1.51,1.41,-1.52,1.40,-1.40,-1.21,-1.58,-2.92,-2.92,-2.92
450.42,-1.46,1.45,-1.47,1.43,-1.43,-1.23,-1.58,-2.90,-2.91,-2.91
454.93,-1.41,1.48,-1.43,1.47,-1.47,-1.24,-1.58,-2.88,-2.89,-2.89
459.48,-1.38,1.50,-1.39,1.49,-1.49,-1.26,-1.58,-2.88,-2.88,-2.88
464.07,-1.33,1.53,-1.35,1.52,-1.52,-1.28,-1.59,-2.85,-2.87,-2.86
468.71,-1.30,1.54,-1.31,1.54,-1.54,-1.29,-1.59,-2.85,-2.85,-2.85
