frequency,raw,error,smoothed,error_smoothed,equalization,parametric_eq,fixed_band_eq,equalized_raw,equalized_smoothed,target
20.00,-0.15,-2.25,-0.15,-2.26,2.24,4.03,-0.50,2.09,2.09,2.10
20.20,-0.03,-2.18,-0.02,-2.18,2.17,3.88,-0.52,2.14,2.15,2.15
20.40,0.10,-2.10,0.10,-2.10,2.10,3.70,-0.53,2.20,2.20,2.20
20.61,0.22,-2.01,0.23,-2.01,2.02,3.49,-0.54,2.24,2.25,2.23
20.81,0.35,-1.93,0.35,-1.93,1.95,3.26,-0.55,2.30,2.30,2.28
21.02,0.47,-1.85,0.46,-1.85,1.87,3.02,-0.57,2.34,2.33,2.32
21.23,0.56,-1.78,0.56,-1.78,1.79,2.77,-0.58,2.35,2.36,2.34
21.44,0.65,-1.71,0.65,-1.71,1.71,2.53,-0.59,2.37,2.37,2.36
21.66,0.74,-1.64,0.74,-1.64,1.64,2.29,-0.61,2.38,2.38,2.38
21.87,0.83,-1.56,0.83,-1.57,1.55,2.06,-0.62,2.39,2.39,2.39
22.09,0.92,-1.49,0.92,-1.49,1.47,1.84,-0.64,2.39,2.39,2.41
22.31,1.02,-1.40,1.02,-1.40,1.38,1.64,-0.65,2.41,2.40,2.42
22.54,1.12,-1.30,1.12,-1.30,1.30,1.44,-0.67,2.41,2.42,2.42
22.76,1.22,-1.20,1.22,-1.20,1.21,1.26,-0.69,2.43,2.43,2.42
22.99,1.33,-1.08,1.32,-1.10,1.12,1.09,-0.70,2.45,2.44,2.41
23.22,1.40,-1.01,1.40,-1.01,1.03,0.94,-0.72,2.43,2.43,2.41
23.45,1.48,-0.93,1.48,-0.93,0.94,0.79,-0.74,2.42,2.42,2.41
23.69,1.56,-0.86,1.56,-0.86,0.85,0.66,-0.75,2.41,2.41,2.42
23.92,1.64,-0.78,1.64,-0.78,0.76,0.53,-0.77,2.40,2.40,2.42
24.16,1.73,-0.69,1.74,-0.69,0.67,0.41,-0.79,2.40,2.41,2.42
24.40,1.84,-0.59,1.84,-0.59,0.58,0.30,-0.81,2.42,2.42,2.43
24.65,1.95,-0.47,1.95,-0.48,0.48,0.20,-0.83,2.43,2.43,2.42
24.89,2.05,-0.37,2.05,-0.37,0.38,0.11,-0.85,2.44,2.44,2.42
25.14,2.15,-0.27,2.15,-0.28,0.29,0.02,-0.87,2.44,2.44,2.42
25.39,2.24,-0.19,2.24,-0.19,0.19,-0.07,-0.89,2.43,2.44,2.43
25.65,2.33,-0.10,2.33,-0.10,0.10,-0.15,-0.91,2.43,2.43,2.43
25.91,2.42,-0.00,2.42,-0.01,0.01,-0.22,-0.93,2.43,2.43,2.42
26.16,2.50,0.08,2.50,0.08,-0.07,-0.29,-0.95,2.43,2.43,2.42
26.43,2.58,0.16,2.58,0.16,-0.17,-0.36,-0.97,2.41,2.42,2.42
26.69,2.67,0.25,2.67,0.24,-0.26,-0.42,-0.99,2.41,2.40,2.42
26.96,2.75,0.33,2.76,0.33,-0.36,-0.49,-1.01,2.39,2.40,2.42
27.23,2.86,0.44,2.86,0.44,-0.46,-0.54,-1.04,2.40,2.40,2.42
27.50,2.97,0.55,2.98,0.56,-0.55,-0.60,-1.06,2.42,2.42,2.42
27.77,3.09,0.68,3.09,0.67,-0.64,-0.66,-1.08,2.45,2.44,2.41
28.05,3.19,0.78,3.18,0.77,-0.73,-0.71,-1.10,2.46,2.45,2.41
28.33,3.25,0.85,3.25,0.85,-0.82,-0.76,-1.13,2.43,2.43,2.40
28.62,3.31,0.91,3.31,0.91,-0.91,-0.81,-1.15,2.40,2.40,2.40
28.90,3.37,0.96,3.38,0.97,-1.00,-0.86,-1.17,2.37,2.37,2.41
29.19,3.46,1.06,3.47,1.06,-1.09,-0.90,-1.20,2.37,2.37,2.40
29.48,3.57,1.16,3.57,1.16,-1.18,-0.95,-1.22,2.39,2.39,2.41
29.78,3.69,1.29,3.68,1.28,-1.27,-0.99,-1.24,2.41,2.41,2.40
30.08,3.79,1.38,3.79,1.38,-1.37,-1.03,-1.27,2.42,2.42,2.41
30.38,3.88,1.48,3.89,1.48,-1.47,-1.08,-1.29,2.41,2.42,2.40
30.68,3.97,1.57,3.98,1.57,-1.56,-1.12,-1.31,2.41,2.42,2.40
30.99,4.07,1.67,4.06,1.66,-1.65,-1.16,-1.34,2.42,2.41,2.40
31.30,4.13,1.74,4.13,1.73,-1.72,-1.20,-1.36,2.41,2.41,2.39
31.61,4.19,1.80,4.20,1.81,-1.80,-1.24,-1.39,2.39,2.40,2.39
31.93,4.26,1.87,4.26,1.87,-1.87,-1.28,-1.41,2.39,2.38,2.39
32.24,4.32,1.94,4.32,1.93,-1.95,-1.32,-1.44,2.38,2.37,2.38
32.57,4.38,2.00,4.38,2.00,-2.02,-1.36,-1.46,2.36,2.36,2.38
32.89,4.45,2.07,4.45,2.07,-2.10,-1.40,-1.49,2.35,2.36,2.38
33.22,4.53,2.16,4.54,2.16,-2.17,-1.44,-1.51,2.36,2.36,2.37
33.55,4.63,2.26,4.63,2.26,-2.25,-1.48,-1.54,2.38,2.38,2.37
33.89,4.72,2.36,4.71,2.35,-2.32,-1.52,-1.56,2.40,2.39,2.36
34.23,4.78,2.42,4.78,2.42,-2.39,-1.56,-1.59,2.39,2.39,2.36
34.57,4.82,2.47,4.83,2.47,-2.46,-1.60,-1.62,2.36,2.37,2.35
34.92,4.87,2.52,4.87,2.52,-2.53,-1.64,-1.65,2.34,2.35,2.35
35.27,4.92,2.58,4.92,2.57,-2.59,-1.68,-1.68,2.33,2.32,2.34
35.62,4.97,2.63,4.97,2.63,-2.66,-1.72,-1.71,2.31,2.31,2.34
35.97,5.03,2.69,5.04,2.70,-2.72,-1.76,-1.74,2.31,2.32,2.34
36.33,5.11,2.77,5.12,2.78,-2.78,-1.80,-1.77,2.33,2.34,2.34
36.70,5.21,2.88,5.20,2.87,-2.85,-1.84,-1.80,2.36,2.35,2.33
37.06,5.29,2.96,5.27,2.94,-2.92,-1.88,-1.84,2.37,2.36,2.33
37.43,5.32,2.98,5.33,2.99,-2.98,-1.92,-1.87,2.34,2.34,2.34
37.81,5.36,3.02,5.37,3.03,-3.04,-1.96,-1.91,2.32,2.33,2.34
38.19,5.42,3.09,5.43,3.09,-3.09,-2.00,-1.95,2.33,2.34,2.33
38.57,5.49,3.15,5.50,3.15,-3.14,-2.04,-1.99,2.35,2.36,2.34
38.95,5.57,3.22,5.55,3.20,-3.18,-2.08,-2.03,2.39,2.37,2.35
39.34,5.58,3.24,5.57,3.23,-3.22,-2.12,-2.07,2.36,2.35,2.34
39.74,5.58,3.24,5.59,3.25,-3.27,-2.16,-2.11,2.31,2.32,2.34
40.14,5.61,3.27,5.63,3.29,-3.32,-2.21,-2.16,2.29,2.31,2.34
40.54,5.69,3.35,5.69,3.35,-3.37,-2.25,-2.21,2.32,2.32,2.34
40.94,5.77,3.44,5.76,3.42,-3.42,-2.29,-2.26,2.35,2.33,2.33
41.35,5.82,3.49,5.82,3.49,-3.47,-2.33,-2.31,2.35,2.34,2.33
41.76,5.86,3.54,5.86,3.54,-3.53,-2.38,-2.36,2.33,2.34,2.32
42.18,5.90,3.58,5.91,3.59,-3.58,-2.42,-2.41,2.33,2.33,2.32
42.60,5.94,3.63,5.94,3.63,-3.62,-2.47,-2.47,2.32,2.32,2.31
43.03,5.98,3.68,5.97,3.67,-3.65,-2.51,-2.53,2.33,2.32,2.30
43.46,5.98,3.69,5.98,3.69,-3.68,-2.56,-2.59,2.30,2.30,2.29
43.90,5.98,3.71,5.98,3.71,-3.71,-2.60,-2.65,2.27,2.27,2.27
44.33,5.98,3.73,5.98,3.72,-3.74,-2.65,-2.72,2.24,2.24,2.25
44.78,5.98,3.75,5.99,3.75,-3.78,-2.70,-2.78,2.20,2.21,2.23
45.23,6.00,3.78,6.01,3.79,-3.81,-2.74,-2.85,2.19,2.20,2.22
45.68,6.05,3.84,6.04,3.84,-3.85,-2.79,-2.92,2.20,2.20,2.21
46.13,6.09,3.90,6.10,3.90,-3.89,-2.84,-2.99,2.21,2.21,2.19
46.60,6.14,3.95,6.14,3.96,-3.92,-2.89,-3.07,2.22,2.22,2.19
47.06,6.18,4.01,6.17,3.99,-3.97,-2.93,-3.14,2.22,2.20,2.17
47.53,6.18,4.02,6.18,4.01,-4.01,-2.98,-3.22,2.17,2.18,2.16
48.01,6.18,4.02,6.19,4.03,-4.04,-3.03,-3.30,2.14,2.14,2.16
48.49,6.19,4.05,6.19,4.05,-4.08,-3.08,-3.38,2.11,2.11,2.14
48.97,6.21,4.09,6.22,4.09,-4.11,-3.13,-3.47,2.10,2.10,2.12
49.46,6.24,4.14,6.24,4.14,-4.14,-3.18,-3.55,2.10,2.10,2.10
49.96,6.28,4.20,6.27,4.18,-4.17,-3.24,-3.64,2.11,2.10,2.08
50.46,6.28,4.21,6.28,4.21,-4.19,-3.29,-3.72,2.09,2.09,2.07
50.96,6.28,4.22,6.28,4.23,-4.22,-3.34,-3.81,2.07,2.07,2.06
51.47,6.28,4.24,6.28,4.24,-4.24,-3.39,-3.90,2.05,2.05,2.04
51.99,6.28,4.25,6.28,4.25,-4.25,-3.44,-3.99,2.03,2.03,2.03
52.51,6.28,4.26,6.28,4.26,-4.26,-3.50,-4.08,2.02,2.02,2.02
53.03,6.28,4.26,6.28,4.26,-4.27,-3.55,-4.17,2.01,2.01,2.02
53.56,6.28,4.28,6.28,4.28,-4.28,-3.61,-4.25,2.00,2.00,2.00
54.10,6.28,4.29,6.28,4.29,-4.30,-3.66,-4.34,1.99,1.99,1.99
54.64,6.28,4.31,6.28,4.30,-4.31,-3.72,-4.43,1.97,1.97,1.97
55.18,6.28,4.31,6.28,4.31,-4.31,-3.77,-4.51,1.97,1.97,1.97
55.74,6.28,4.33,6.28,4.33,-4.32,-3.83,-4.60,1.96,1.97,1.95
56.29,6.28,4.34,6.28,4.34,-4.32,-3.88,-4.68,1.96,1.97,1.94
56.86,6.28,4.35,6.26,4.34,-4.32,-3.94,-4.76,1.96,1.95,1.93
57.42,6.24,4.34,6.23,4.32,-4.32,-4.00,-4.83,1.92,1.92,1.90
58.00,6.18,4.29,6.20,4.31,-4.32,-4.05,-4.90,1.86,1.88,1.89
58.58,6.18,4.30,6.18,4.30,-4.33,-4.11,-4.97,1.85,1.85,1.88
59.16,6.18,4.32,6.18,4.31,-4.34,-4.17,-5.03,1.84,1.83,1.86
59.76,6.18,4.34,6.18,4.34,-4.36,-4.23,-5.09,1.82,1.82,1.84
60.35,6.18,4.38,6.18,4.38,-4.38,-4.29,-5.15,1.80,1.80,1.80
60.96,6.18,4.42,6.19,4.42,-4.41,-4.34,-5.20,1.77,1.78,1.76
61.57,6.19,4.47,6.18,4.46,-4.44,-4.40,-5.24,1.75,1.74,1.72
62.18,6.17,4.49,6.16,4.48,-4.47,-4.46,-5.28,1.71,1.69,1.68
62.80,6.12,4.49,6.13,4.50,-4.49,-4.52,-5.32,1.63,1.64,1.63
63.43,6.09,4.50,6.10,4.51,-4.51,-4.58,-5.34,1.58,1.59,1.59
64.07,6.08,4.54,6.08,4.53,-4.53,-4.64,-5.37,1.55,1.55,1.54
64.71,6.06,4.56,6.05,4.55,-4.55,-4.70,-5.39,1.51,1.50,1.50
65.35,6.03,4.57,6.02,4.57,-4.57,-4.76,-5.40,1.46,1.45,1.46
66.01,5.98,4.57,6.00,4.59,-4.60,-4.82,-5.41,1.38,1.40,1.41
66.67,5.98,4.62,5.98,4.62,-4.63,-4.88,-5.42,1.35,1.35,1.36
67.33,5.98,4.67,5.98,4.66,-4.67,-4.94,-5.42,1.31,1.31,1.31
68.01,5.98,4.71,5.98,4.71,-4.71,-5.00,-5.42,1.27,1.27,1.27
68.69,5.98,4.76,5.98,4.76,-4.76,-5.06,-5.42,1.22,1.22,1.22
69.37,5.98,4.81,5.98,4.81,-4.81,-5.12,-5.41,1.17,1.17,1.17
70.07,5.98,4.86,5.98,4.86,-4.85,-5.18,-5.40,1.13,1.13,1.12
70.77,5.98,4.91,5.99,4.91,-4.90,-5.24,-5.39,1.08,1.09,1.07
71.48,5.98,4.96,5.96,4.95,-4.94,-5.30,-5.38,1.04,1.02,1.02
72.19,5.95,5.00,5.94,4.98,-4.98,-5.36,-5.37,0.97,0.96,0.95
72.91,5.87,4.98,5.91,5.01,-5.01,-5.42,-5.35,0.86,0.90,0.89
73.64,5.89,5.05,5.88,5.05,-5.05,-5.48,-5.34,0.85,0.84,0.84
74.38,5.88,5.10,5.86,5.08,-5.08,-5.54,-5.33,0.80,0.78,0.78
75.12,5.83,5.11,5.84,5.11,-5.11,-5.60,-5.32,0.72,0.73,0.72
75.87,5.79,5.13,5.80,5.14,-5.14,-5.65,-5.31,0.65,0.66,0.66
76.63,5.78,5.17,5.78,5.17,-5.18,-5.71,-5.30,0.60,0.60,0.61
77.40,5.78,5.22,5.78,5.22,-5.21,-5.77,-5.30,0.57,0.56,0.56
78.17,5.78,5.28,5.78,5.27,-5.26,-5.82,-5.29,0.52,0.52,0.50
78.95,5.78,5.32,5.78,5.32,-5.31,-5.88,-5.29,0.47,0.47,0.46
79.74,5.78,5.37,5.78,5.37,-5.38,-5.94,-5.29,0.40,0.40,0.41
80.54,5.78,5.42,5.77,5.41,-5.45,-5.99,-5.30,0.33,0.32,0.36
81.35,5.79,5.48,5.81,5.50,-5.53,-6.05,-5.31,0.26,0.28,0.31
82.16,5.83,5.57,5.87,5.60,-5.61,-6.10,-5.32,0.22,0.26,0.26
82.98,5.98,5.76,5.93,5.71,-5.68,-6.15,-5.33,0.30,0.25,0.22
83.81,5.98,5.81,5.98,5.81,-5.76,-6.20,-5.35,0.22,0.22,0.17
84.65,5.98,5.86,5.99,5.87,-5.83,-6.25,-5.38,0.15,0.16,0.12
85.50,5.98,5.90,5.98,5.90,-5.90,-6.31,-5.40,0.08,0.08,0.08
86.35,5.98,5.95,5.98,5.95,-5.96,-6.35,-5.43,0.02,0.02,0.03
87.22,5.98,6.00,5.98,6.00,-6.02,-6.40,-5.47,-0.04,-0.04,-0.02
88.09,5.98,6.05,5.98,6.05,-6.07,-6.45,-5.50,-0.08,-0.08,-0.07
88.97,5.98,6.11,5.98,6.11,-6.11,-6.50,-5.55,-0.13,-0.13,-0.13
89.86,5.99,6.17,5.99,6.16,-6.16,-6.54,-5.59,-0.17,-0.17,-0.18
90.76,5.99,6.22,5.99,6.22,-6.21,-6.59,-5.64,-0.22,-0.22,-0.23
91.66,5.99,6.27,5.99,6.27,-6.26,-6.63,-5.70,-0.27,-0.27,-0.28
92.58,5.99,6.33,5.99,6.32,-6.32,-6.67,-5.76,-0.33,-0.33,-0.34
93.51,5.99,6.38,5.99,6.37,-6.37,-6.71,-5.82,-0.38,-0.38,-0.39
94.44,5.99,6.42,5.99,6.42,-6.43,-6.75,-5.89,-0.44,-0.44,-0.43
95.39,5.99,6.47,5.99,6.47,-6.49,-6.79,-5.96,-0.50,-0.50,-0.48
96.34,5.99,6.52,6.00,6.53,-6.55,-6.83,-6.03,-0.56,-0.54,-0.53
97.30,6.02,6.60,6.03,6.61,-6.60,-6.86,-6.11,-0.58,-0.57,-0.58
98.28,6.07,6.70,6.05,6.67,-6.66,-6.90,-6.19,-0.59,-0.61,-0.63
99.26,6.06,6.73,6.06,6.73,-6.71,-6.93,-6.27,-0.65,-0.65,-0.67
100.25,6.04,6.76,6.05,6.76,-6.75,-6.96,-6.36,-0.71,-0.71,-0.72
101.25,6.02,6.79,6.03,6.79,-6.80,-6.99,-6.45,-0.78,-0.77,-0.77
102.27,6.01,6.83,6.01,6.83,-6.83,-7.02,-6.54,-0.82,-0.82,-0.82
103.29,6.00,6.87,6.00,6.86,-6.86,-7.05,-6.63,-0.86,-0.87,-0.87
104.32,5.98,6.89,5.98,6.89,-6.89,-7.07,-6.73,-0.91,-0.91,-0.91
105.37,5.95,6.91,5.95,6.91,-6.92,-7.10,-6.83,-0.97,-0.96,-0.96
106.42,5.93,6.94,5.93,6.94,-6.95,-7.12,-6.92,-1.01,-1.02,-1.01
107.48,5.90,6.97,5.90,6.97,-6.98,-7.14,-7.02,-1.07,-1.07,-1.07
108.56,5.88,7.00,5.88,7.00,-7.00,-7.17,-7.12,-1.12,-1.12,-1.12
109.64,5.86,7.03,5.86,7.03,-7.03,-7.19,-7.21,-1.17,-1.17,-1.17
110.74,5.84,7.07,5.85,7.07,-7.06,-7.20,-7.31,-1.22,-1.21,-1.23
111.85,5.82,7.09,5.82,7.10,-7.09,-7.22,-7.40,-1.26,-1.26,-1.27
112.97,5.81,7.14,5.79,7.11,-7.11,-7.24,-7.49,-1.30,-1.33,-1.33
114.10,5.74,7.12,5.75,7.13,-7.14,-7.25,-7.58,-1.40,-1.39,-1.38
115.24,5.70,7.13,5.72,7.15,-7.16,-7.27,-7.66,-1.46,-1.44,-1.43
116.39,5.71,7.19,5.71,7.18,-7.18,-7.28,-7.74,-1.47,-1.47,-1.48
117.55,5.71,7.23,5.70,7.22,-7.20,-7.29,-7.81,-1.49,-1.50,-1.52
118.73,5.70,7.26,5.68,7.24,-7.22,-7.30,-7.87,-1.52,-1.54,-1.56
119.92,5.63,7.22,5.66,7.25,-7.25,-7.31,-7.93,-1.62,-1.59,-1.59
121.12,5.63,7.26,5.64,7.26,-7.28,-7.32,-7.99,-1.64,-1.64,-1.63
122.33,5.64,7.30,5.63,7.29,-7.30,-7.33,-8.03,-1.66,-1.67,-1.66
123.55,5.64,7.33,5.64,7.33,-7.33,-7.34,-8.07,-1.69,-1.69,-1.69
124.79,5.65,7.37,5.65,7.37,-7.37,-7.34,-8.10,-1.72,-1.72,-1.72
126.03,5.66,7.41,5.66,7.40,-7.40,-7.35,-8.12,-1.74,-1.75,-1.75
127.29,5.66,7.43,5.67,7.44,-7.44,-7.36,-8.14,-1.78,-1.77,-1.77
128.57,5.67,7.48,5.67,7.48,-7.47,-7.36,-8.15,-1.80,-1.80,-1.81
129.85,5.68,7.52,5.68,7.52,-7.50,-7.37,-8.15,-1.82,-1.82,-1.84
131.15,5.68,7.55,5.69,7.56,-7.53,-7.37,-8.14,-1.85,-1.84,-1.87
132.46,5.69,7.59,5.67,7.57,-7.57,-7.38,-8.13,-1.88,-1.89,-1.90
133.79,5.67,7.60,5.65,7.58,-7.60,-7.39,-8.11,-1.93,-1.94,-1.93
135.12,5.60,7.56,5.65,7.61,-7.63,-7.39,-8.09,-2.03,-1.98,-1.96
136.48,5.67,7.65,5.66,7.64,-7.66,-7.40,-8.06,-1.99,-2.00,-1.98
137.84,5.70,7.72,5.68,7.70,-7.69,-7.40,-8.03,-1.99,-2.01,-2.02
139.22,5.70,7.75,5.71,7.75,-7.73,-7.41,-7.99,-2.03,-2.02,-2.05
140.61,5.70,7.78,5.70,7.78,-7.76,-7.41,-7.95,-2.06,-2.06,-2.08
142.02,5.70,7.80,5.70,7.80,-7.80,-7.42,-7.91,-2.10,-2.10,-2.10
143.44,5.70,7.83,5.70,7.83,-7.83,-7.43,-7.87,-2.13,-2.13,-2.13
144.87,5.70,7.87,5.70,7.87,-7.87,-7.44,-7.83,-2.17,-2.17,-2.17
146.32,5.70,7.91,5.70,7.90,-7.92,-7.45,-7.79,-2.22,-2.22,-2.21
147.78,5.70,7.94,5.70,7.94,-7.96,-7.46,-7.75,-2.26,-2.26,-2.24
149.26,5.70,7.99,5.70,7.99,-8.01,-7.47,-7.71,-2.31,-2.31,-2.29
150.75,5.70,8.05,5.71,8.06,-8.07,-7.48,-7.67,-2.37,-2.36,-2.35
152.26,5.70,8.12,5.70,8.11,-8.11,-7.49,-7.63,-2.41,-2.42,-2.42
153.78,5.70,8.19,5.68,8.17,-8.15,-7.51,-7.60,-2.45,-2.47,-2.49
155.32,5.63,8.19,5.66,8.22,-8.18,-7.53,-7.57,-2.55,-2.52,-2.56
156.88,5.61,8.25,5.60,8.24,-8.19,-7.54,-7.54,-2.58,-2.59,-2.64
158.44,5.53,8.25,5.51,8.23,-8.20,-7.56,-7.52,-2.66,-2.69,-2.72
160.03,5.40,8.20,5.41,8.21,-8.20,-7.58,-7.50,-2.80,-2.79,-2.80
161.63,5.29,8.16,5.31,8.17,-8.20,-7.61,-7.49,-2.91,-2.89,-2.87
163.24,5.23,8.16,5.22,8.15,-8.21,-7.63,-7.48,-2.98,-2.98,-2.93
164.88,5.19,8.17,5.19,8.17,-8.22,-7.66,-7.47,-3.03,-3.04,-2.98
166.53,5.17,8.20,5.19,8.22,-8.25,-7.69,-7.47,-3.08,-3.06,-3.03
168.19,5.22,8.29,5.22,8.29,-8.29,-7.72,-7.47,-3.07,-3.07,-3.07
169.87,5.28,8.39,5.25,8.35,-8.34,-7.75,-7.48,-3.06,-3.09,-3.11
171.57,5.27,8.40,5.29,8.42,-8.39,-7.79,-7.50,-3.12,-3.10,-3.13
173.29,5.31,8.45,5.32,8.46,-8.43,-7.82,-7.52,-3.12,-3.11,-3.14
175.02,5.36,8.51,5.34,8.49,-8.47,-7.86,-7.54,-3.11,-3.13,-3.15
176.77,5.36,8.52,5.36,8.52,-8.50,-7.90,-7.58,-3.14,-3.14,-3.16
178.54,5.36,8.53,5.37,8.53,-8.52,-7.95,-7.61,-3.16,-3.15,-3.17
180.32,5.36,8.52,5.36,8.52,-8.53,-7.99,-7.66,-3.17,-3.17,-3.16
182.13,5.37,8.52,5.37,8.52,-8.54,-8.04,-7.70,-3.17,-3.17,-3.15
183.95,5.38,8.54,5.38,8.53,-8.55,-8.09,-7.76,-3.17,-3.17,-3.16
185.79,5.39,8.55,5.39,8.55,-8.56,-8.15,-7.82,-3.17,-3.17,-3.16
187.65,5.40,8.58,5.40,8.58,-8.58,-8.20,-7.88,-3.18,-3.18,-3.18
189.52,5.42,8.61,5.42,8.61,-8.61,-8.26,-7.95,-3.19,-3.19,-3.19
191.42,5.43,8.64,5.43,8.64,-8.64,-8.32,-8.03,-3.21,-3.21,-3.21
193.33,5.45,8.68,5.45,8.68,-8.67,-8.38,-8.11,-3.22,-3.23,-3.23
195.27,5.46,8.71,5.46,8.71,-8.71,-8.44,-8.19,-3.25,-3.24,-3.25
197.22,5.48,8.75,5.48,8.75,-8.74,-8.51,-8.28,-3.26,-3.26,-3.27
199.19,5.49,8.78,5.49,8.78,-8.77,-8.57,-8.38,-3.28,-3.28,-3.29
201.18,5.49,8.80,5.50,8.80,-8.80,-8.64,-8.47,-3.31,-3.30,-3.31
203.19,5.50,8.83,5.50,8.83,-8.82,-8.70,-8.58,-3.32,-3.33,-3.33
205.23,5.50,8.85,5.50,8.84,-8.85,-8.77,-8.68,-3.35,-3.35,-3.35
207.28,5.50,8.86,5.50,8.87,-8.87,-8.84,-8.79,-3.37,-3.37,-3.36
209.35,5.50,8.88,5.50,8.88,-8.89,-8.90,-8.90,-3.39,-3.39,-3.38
211.44,5.50,8.91,5.50,8.90,-8.90,-8.96,-9.01,-3.40,-3.41,-3.41
213.56,5.49,8.91,5.49,8.91,-8.91,-9.02,-9.12,-3.42,-3.42,-3.42
215.69,5.49,8.92,5.49,8.92,-8.92,-9.08,-9.23,-3.43,-3.43,-3.43
217.85,5.48,8.92,5.49,8.93,-8.91,-9.14,-9.34,-3.43,-3.42,-3.44
220.03,5.48,8.93,5.48,8.93,-8.91,-9.19,-9.44,-3.43,-3.43,-3.45
222.23,5.48,8.96,5.45,8.91,-8.90,-9.24,-9.55,-3.42,-3.45,-3.48
224.45,5.39,8.86,5.41,8.88,-8.88,-9.28,-9.65,-3.49,-3.47,-3.47
226.70,5.36,8.83,5.38,8.85,-8.87,-9.31,-9.74,-3.51,-3.49,-3.47
228.96,5.38,8.84,5.37,8.83,-8.86,-9.34,-9.83,-3.48,-3.49,-3.46
231.25,5.39,8.84,5.39,8.83,-8.85,-9.36,-9.90,-3.46,-3.46,-3.45
233.57,5.40,8.84,5.40,8.84,-8.84,-9.37,-9.97,-3.44,-3.44,-3.44
235.90,5.41,8.84,5.41,8.84,-8.85,-9.37,-10.03,-3.43,-3.43,-3.43
238.26,5.43,8.85,5.43,8.84,-8.85,-9.37,-10.07,-3.41,-3.42,-3.42
240.64,5.45,8.84,5.45,8.84,-8.84,-9.35,-10.10,-3.39,-3.39,-3.39
243.05,5.46,8.82,5.48,8.84,-8.82,-9.32,-10.11,-3.36,-3.34,-3.36
245.48,5.50,8.84,5.50,8.83,-8.79,-9.29,-10.11,-3.29,-3.29,-3.34
247.93,5.52,8.83,5.49,8.80,-8.76,-9.24,-10.10,-3.24,-3.27,-3.31
250.41,5.45,8.74,5.45,8.74,-8.72,-9.18,-10.06,-3.27,-3.27,-3.29
252.92,5.38,8.64,5.39,8.65,-8.69,-9.11,-10.01,-3.31,-3.30,-3.26
255.45,5.34,8.58,5.36,8.59,-8.66,-9.03,-9.94,-3.31,-3.30,-3.24
258.00,5.35,8.57,5.35,8.56,-8.62,-8.95,-9.86,-3.27,-3.27,-3.22
260.58,5.37,8.57,5.36,8.56,-8.57,-8.85,-9.76,-3.20,-3.21,-3.20
263.19,5.37,8.54,5.39,8.56,-8.52,-8.74,-9.65,-3.15,-3.13,-3.17
265.82,5.39,8.54,5.39,8.53,-8.47,-8.63,-9.52,-3.08,-3.09,-3.15
268.48,5.38,8.51,5.33,8.46,-8.42,-8.51,-9.38,-3.04,-3.09,-3.13
271.16,5.25,8.35,5.27,8.37,-8.36,-8.38,-9.23,-3.11,-3.10,-3.10
273.87,5.14,8.22,5.19,8.27,-8.29,-8.25,-9.07,-3.15,-3.10,-3.08
276.61,5.16,8.21,5.13,8.18,-8.21,-8.11,-8.90,-3.05,-3.08,-3.05
279.38,5.10,8.12,5.09,8.11,-8.12,-7.96,-8.72,-3.02,-3.03,-3.02
282.17,5.05,8.05,5.05,8.04,-8.03,-7.82,-8.53,-2.98,-2.98,-3.00
284.99,4.98,7.94,4.99,7.96,-7.95,-7.67,-8.34,-2.97,-2.95,-2.96
287.84,4.93,7.87,4.93,7.87,-7.86,-7.52,-8.15,-2.93,-2.93,-2.94
290.72,4.88,7.79,4.85,7.76,-7.78,-7.36,-7.95,-2.90,-2.93,-2.91
293.63,4.77,7.65,4.79,7.67,-7.69,-7.21,-7.75,-2.92,-2.90,-2.88
296.57,4.71,7.56,4.74,7.59,-7.59,-7.05,-7.55,-2.88,-2.85,-2.85
299.53,4.71,7.53,4.68,7.50,-7.48,-6.89,-7.35,-2.77,-2.80,-2.82
302.53,4.62,7.42,4.60,7.39,-7.36,-6.74,-7.15,-2.74,-2.76,-2.80
305.55,4.48,7.24,4.50,7.26,-7.24,-6.58,-6.95,-2.76,-2.74,-2.76
308.61,4.36,7.10,4.37,7.10,-7.10,-6.43,-6.75,-2.74,-2.74,-2.74
311.69,4.25,6.96,4.24,6.95,-6.96,-6.28,-6.55,-2.71,-2.72,-2.71
314.81,4.12,6.81,4.12,6.81,-6.82,-6.12,-6.36,-2.70,-2.70,-2.69
317.96,3.99,6.66,4.00,6.67,-6.67,-5.97,-6.16,-2.68,-2.67,-2.67
321.14,3.87,6.53,3.86,6.51,-6.52,-5.83,-5.97,-2.65,-2.66,-2.66
324.35,3.73,6.37,3.72,6.37,-6.37,-5.68,-5.78,-2.64,-2.65,-2.64
327.59,3.58,6.21,3.60,6.23,-6.22,-5.54,-5.59,-2.64,-2.62,-2.63
330.87,3.48,6.10,3.49,6.10,-6.08,-5.39,-5.41,-2.60,-2.60,-2.62
334.18,3.39,5.99,3.37,5.97,-5.95,-5.26,-5.23,-2.56,-2.58,-2.60
337.52,3.26,5.85,3.25,5.84,-5.83,-5.12,-5.05,-2.57,-2.58,-2.59
340.90,3.11,5.69,3.12,5.70,-5.72,-4.99,-4.88,-2.61,-2.60,-2.58
344.30,2.99,5.56,3.00,5.57,-5.63,-4.85,-4.71,-2.63,-2.62,-2.57
347.75,2.93,5.50,2.93,5.50,-5.54,-4.72,-4.54,-2.61,-2.61,-2.57
351.23,2.88,5.44,2.90,5.47,-5.47,-4.60,-4.37,-2.59,-2.57,-2.56
354.74,2.90,5.47,2.88,5.44,-5.42,-4.47,-4.21,-2.52,-2.54,-2.57
358.28,2.85,5.41,2.83,5.39,-5.37,-4.35,-4.05,-2.52,-2.54,-2.56
361.87,2.75,5.31,2.77,5.33,-5.32,-4.23,-3.89,-2.57,-2.55,-2.56
365.49,2.69,5.24,2.71,5.26,-5.26,-4.12,-3.74,-2.57,-2.56,-2.55
369.14,2.65,5.21,2.66,5.21,-5.18,-4.00,-3.59,-2.53,-2.53,-2.56
372.83,2.61,5.17,2.59,5.15,-5.09,-3.89,-3.44,-2.48,-2.50,-2.56
376.56,2.50,5.07,2.48,5.04,-4.98,-3.78,-3.29,-2.48,-2.50,-2.57
380.33,2.33,4.89,2.33,4.89,-4.87,-3.67,-3.15,-2.54,-2.53,-2.56
384.13,2.16,4.72,2.17,4.74,-4.76,-3.57,-3.01,-2.60,-2.59,-2.56
387.97,2.03,4.60,2.04,4.61,-4.67,-3.46,-2.87,-2.64,-2.63,-2.57
391.85,1.96,4.54,1.96,4.53,-4.60,-3.36,-2.74,-2.64,-2.64,-2.58
395.77,1.92,4.49,1.91,4.48,-4.55,-3.26,-2.61,-2.63,-2.64,-2.57
399.73,1.89,4.47,1.89,4.47,-4.52,-3.16,-2.48,-2.63,-2.63,-2.58
403.72,1.89,4.47,1.91,4.49,-4.51,-3.07,-2.35,-2.61,-2.60,-2.58
407.76,1.93,4.53,1.94,4.53,-4.50,-2.97,-2.23,-2.56,-2.56,-2.60
411.84,1.98,4.58,1.95,4.55,-4.48,-2.88,-2.11,-2.50,-2.53,-2.60
415.96,1.92,4.52,1.93,4.53,-4.45,-2.79,-1.99,-2.53,-2.52,-2.60
420.12,1.85,4.45,1.84,4.44,-4.40,-2.70,-1.87,-2.55,-2.55,-2.60
424.32,1.73,4.33,1.73,4.32,-4.32,-2.61,-1.76,-2.59,-2.59,-2.60
428.56,1.59,4.18,1.61,4.20,-4.22,-2.52,-1.65,-2.63,-2.61,-2.59
432.85,1.50,4.08,1.50,4.08,-4.10,-2.43,-1.55,-2.60,-2.60,-2.58
437.18,1.40,3.97,1.40,3.95,-3.97,-2.34,-1.44,-2.57,-2.57,-2.57
441.55,1.29,3.82,1.30,3.83,-3.83,-2.26,-1.34,-2.54,-2.53,-2.53
445.96,1.20,3.70,1.19,3.69,-3.70,-2.17,-1.24,-2.49,-2.51,-2.50
450.42,1.08,3.55,1.08,3.54,-3.56,-2.09,-1.15,-2.48,-2.48,-2.47
454.93,0.97,3.39,0.99,3.41,-3.42,-2.00,-1.06,-2.45,-2.43,-2.42
459.48,0.91,3.29,0.91,3.28,-3.28,-1.91,-0.97,-2.37,-2.38,-2.38
464.07,0.84,3.17,0.83,3.15,-3.14,-1.83,-0.89,-2.30,-2.31,-2.33
468.71,0.73,3.00,0.73,3.00,-2.99,-1.74,-0.81,-2.26,-2.26,-2.27
473.40,0.61,2.84,0.61,2.83,-2.84,-1.66,-0.74,-2.23,-2.22,-2.23
478.13,0.48,2.65,0.49,2.67,-2.68,-1.57,-0.67,-2.20,-2.18,-2.17
482.91,0.38,2.51,0.38,2.51,-2.51,-1.48,-0.60,-2.13,-2.13,-2.13
487.74,0.27,2.36,0.25,2.34,-2.34,-1.39,-0.54,-2.07,-2.08,-2.09
492.62,0.12,2.16,0.11,2.16,-2.15,-1.30,-0.48,-2.03,-2.04,-2.04
497.55,-0.07,1.95,-0.04,1.97,-1.96,-1.21,-0.43,-2.03,-2.00,-2.02
