frequency,raw,error,smoothed,error_smoothed,equalization,parametric_eq,fixed_band_eq,equalized_raw,equalized_smoothed,target
20.00,-21.87,-21.49,-21.69,-21.33,21.33,22.32,7.96,-0.54,-0.36,-0.38
20.20,-21.67,-21.33,-21.55,-21.23,21.23,22.12,8.13,-0.44,-0.33,-0.34
20.40,-21.47,-21.16,-21.41,-21.12,21.12,21.92,8.30,-0.35,-0.30,-0.31
20.61,-21.28,-21.01,-21.28,-21.00,21.00,21.72,8.47,-0.28,-0.27,-0.28
20.81,-21.08,-20.84,-21.13,-20.89,20.89,21.52,8.65,-0.19,-0.25,-0.24
21.02,-20.88,-20.68,-20.99,-20.77,20.77,21.33,8.84,-0.11,-0.22,-0.20
21.23,-20.70,-20.51,-20.84,-20.64,20.64,21.14,9.02,-0.06,-0.20,-0.19
21.44,-20.51,-20.34,-20.69,-20.51,20.51,20.95,9.22,0.00,-0.18,-0.17
21.66,-20.33,-20.19,-20.54,-20.38,20.38,20.77,9.42,0.05,-0.16,-0.15
21.87,-20.15,-20.01,-20.39,-20.24,20.24,20.58,9.62,0.09,-0.15,-0.14
22.09,-20.04,-19.91,-20.23,-20.10,20.10,20.40,9.83,0.06,-0.13,-0.13
22.31,-20.03,-19.90,-20.07,-19.96,19.96,20.23,10.04,-0.07,-0.12,-0.13
22.54,-20.02,-19.90,-19.93,-19.82,19.82,20.06,10.26,-0.20,-0.11,-0.12
22.76,-20.02,-19.91,-19.77,-19.67,19.67,19.88,10.49,-0.35,-0.10,-0.11
22.99,-20.01,-19.90,-19.61,-19.52,19.52,19.72,10.72,-0.49,-0.09,-0.11
23.22,-19.72,-19.62,-19.45,-19.36,19.36,19.55,10.96,-0.36,-0.09,-0.10
23.45,-19.41,-19.32,-19.28,-19.20,19.20,19.39,11.21,-0.20,-0.08,-0.09
23.69,-19.11,-19.03,-19.12,-19.04,19.04,19.23,11.46,-0.06,-0.07,-0.08
23.92,-18.79,-18.72,-18.95,-18.88,18.88,19.07,11.72,0.09,-0.07,-0.07
24.16,-18.58,-18.52,-18.78,-18.72,18.72,18.91,11.99,0.14,-0.07,-0.06
24.40,-18.42,-18.37,-18.60,-18.54,18.54,18.75,12.26,0.12,-0.06,-0.05
24.65,-18.27,-18.21,-18.42,-18.36,18.36,18.60,12.55,0.08,-0.06,-0.06
24.89,-18.11,-18.05,-18.23,-18.17,18.17,18.44,12.84,0.06,-0.06,-0.06
25.14,-17.99,-17.93,-18.04,-17.98,17.98,18.29,13.14,-0.01,-0.06,-0.06
25.39,-17.90,-17.84,-17.87,-17.81,17.81,18.14,13.45,-0.09,-0.06,-0.06
25.65,-17.81,-17.75,-17.71,-17.66,17.66,17.98,13.76,-0.15,-0.06,-0.06
25.91,-17.72,-17.65,-17.58,-17.52,17.52,17.83,14.09,-0.20,-0.06,-0.08
26.16,-17.56,-17.49,-17.45,-17.39,17.39,17.68,14.42,-0.17,-0.06,-0.07
26.43,-17.36,-17.30,-17.31,-17.25,17.25,17.53,14.76,-0.12,-0.06,-0.07
26.69,-17.16,-17.09,-17.17,-17.10,17.10,17.38,15.11,-0.06,-0.07,-0.07
26.96,-16.96,-16.90,-17.01,-16.94,16.94,17.22,15.47,-0.02,-0.07,-0.07
27.23,-16.82,-16.76,-16.85,-16.78,16.78,17.07,15.83,-0.05,-0.07,-0.07
27.50,-16.68,-16.61,-16.68,-16.61,16.61,16.92,16.20,-0.07,-0.07,-0.07
27.77,-16.54,-16.46,-16.51,-16.44,16.44,16.77,16.57,-0.10,-0.08,-0.08
28.05,-16.39,-16.31,-16.35,-16.27,16.27,16.61,16.94,-0.12,-0.08,-0.08
28.33,-16.19,-16.09,-16.19,-16.11,16.11,16.46,17.31,-0.08,-0.08,-0.10
28.62,-16.00,-15.92,-16.03,-15.95,15.95,16.30,17.67,-0.05,-0.08,-0.09
28.90,-15.80,-15.71,-15.88,-15.79,15.79,16.15,18.02,-0.01,-0.08,-0.09
29.19,-15.65,-15.55,-15.72,-15.64,15.64,15.99,18.35,-0.01,-0.09,-0.10
29.48,-15.52,-15.43,-15.57,-15.48,15.48,15.84,18.66,-0.04,-0.09,-0.09
29.78,-15.39,-15.30,-15.41,-15.31,15.31,15.68,18.94,-0.08,-0.10,-0.09
30.08,-15.26,-15.18,-15.24,-15.14,15.14,15.52,19.17,-0.12,-0.10,-0.09
30.38,-15.14,-15.04,-15.07,-14.97,14.97,15.36,19.36,-0.17,-0.11,-0.11
30.68,-15.02,-14.91,-14.91,-14.80,14.80,15.20,19.50,-0.22,-0.11,-0.11
30.99,-14.90,-14.78,-14.75,-14.64,14.64,15.04,19.57,-0.26,-0.11,-0.12
31.30,-14.66,-14.55,-14.60,-14.48,14.48,14.88,19.59,-0.18,-0.12,-0.12
31.61,-14.42,-14.30,-14.45,-14.33,14.33,14.71,19.54,-0.09,-0.12,-0.12
31.93,-14.19,-14.06,-14.30,-14.17,14.17,14.55,19.42,-0.02,-0.13,-0.14
32.24,-14.02,-13.87,-14.15,-14.02,14.02,14.39,19.26,-0.00,-0.13,-0.15
32.57,-13.88,-13.73,-13.99,-13.85,13.85,14.22,19.04,-0.03,-0.14,-0.15
32.89,-13.75,-13.60,-13.82,-13.68,13.68,14.06,18.78,-0.07,-0.15,-0.15
33.22,-13.64,-13.49,-13.66,-13.51,13.51,13.89,18.49,-0.13,-0.15,-0.15
33.55,-13.56,-13.40,-13.49,-13.34,13.34,13.73,18.17,-0.22,-0.16,-0.16
33.89,-13.48,-13.32,-13.33,-13.18,13.18,13.56,17.83,-0.30,-0.16,-0.16
34.23,-13.31,-13.15,-13.18,-13.02,13.02,13.40,17.48,-0.29,-0.16,-0.16
34.57,-13.09,-12.92,-13.03,-12.86,12.86,13.23,17.13,-0.23,-0.17,-0.17
34.92,-12.88,-12.71,-12.89,-12.71,12.71,13.06,16.76,-0.17,-0.17,-0.18
35.27,-12.69,-12.52,-12.74,-12.56,12.56,12.90,16.40,-0.13,-0.18,-0.18
35.62,-12.51,-12.32,-12.59,-12.40,12.40,12.73,16.04,-0.11,-0.18,-0.19
35.97,-12.33,-12.13,-12.43,-12.24,12.24,12.57,15.69,-0.09,-0.19,-0.20
36.33,-12.23,-12.03,-12.27,-12.07,12.07,12.40,15.34,-0.16,-0.20,-0.20
36.70,-12.13,-11.93,-12.11,-11.91,11.91,12.24,15.00,-0.22,-0.21,-0.20
37.06,-12.02,-11.80,-11.96,-11.75,11.75,12.08,14.66,-0.27,-0.21,-0.22
37.43,-11.84,-11.62,-11.80,-11.59,11.59,11.91,14.34,-0.25,-0.22,-0.22
37.81,-11.67,-11.44,-11.65,-11.43,11.43,11.75,14.02,-0.24,-0.22,-0.23
38.19,-11.50,-11.26,-11.51,-11.27,11.27,11.59,13.71,-0.23,-0.23,-0.24
38.57,-11.35,-11.11,-11.36,-11.12,11.12,11.43,13.41,-0.23,-0.24,-0.24
38.95,-11.19,-10.94,-11.22,-10.97,10.97,11.27,13.12,-0.22,-0.24,-0.25
39.34,-11.08,-10.82,-11.08,-10.83,10.83,11.11,12.84,-0.25,-0.25,-0.26
39.74,-10.98,-10.70,-10.95,-10.69,10.69,10.95,12.56,-0.29,-0.26,-0.28
40.14,-10.85,-10.58,-10.81,-10.54,10.54,10.80,12.29,-0.31,-0.27,-0.27
40.54,-10.68,-10.40,-10.66,-10.39,10.39,10.64,12.04,-0.30,-0.28,-0.28
40.94,-10.51,-10.23,-10.52,-10.23,10.23,10.48,11.78,-0.28,-0.29,-0.28
41.35,-10.34,-10.04,-10.38,-10.08,10.08,10.33,11.54,-0.26,-0.30,-0.30
41.76,-10.18,-9.86,-10.26,-9.93,9.93,10.18,11.31,-0.25,-0.32,-0.32
42.18,-10.07,-9.74,-10.14,-9.79,9.79,10.03,11.08,-0.28,-0.34,-0.33
42.60,-10.05,-9.69,-10.01,-9.65,9.65,9.88,10.86,-0.40,-0.37,-0.36
43.03,-10.02,-9.65,-9.89,-9.50,9.50,9.73,10.64,-0.52,-0.39,-0.37
43.46,-9.82,-9.42,-9.78,-9.36,9.36,9.58,10.43,-0.46,-0.42,-0.40
43.90,-9.62,-9.18,-9.67,-9.23,9.23,9.43,10.23,-0.39,-0.44,-0.45
44.33,-9.49,-9.01,-9.56,-9.10,9.10,9.29,10.03,-0.39,-0.47,-0.48
44.78,-9.39,-8.88,-9.46,-8.97,8.97,9.15,9.84,-0.42,-0.50,-0.51
45.23,-9.33,-8.79,-9.36,-8.84,8.84,9.00,9.66,-0.49,-0.52,-0.54
45.68,-9.30,-8.73,-9.27,-8.72,8.72,8.86,9.48,-0.58,-0.55,-0.57
46.13,-9.23,-8.64,-9.17,-8.60,8.60,8.73,9.30,-0.63,-0.57,-0.59
46.60,-9.05,-8.46,-9.06,-8.48,8.48,8.59,9.13,-0.58,-0.59,-0.60
47.06,-8.89,-8.27,-8.95,-8.35,8.35,8.45,8.97,-0.54,-0.60,-0.62
47.53,-8.86,-8.24,-8.83,-8.22,8.22,8.32,8.81,-0.64,-0.62,-0.62
48.01,-8.84,-8.22,-8.71,-8.09,8.09,8.19,8.65,-0.75,-0.63,-0.62
48.49,-8.64,-8.00,-8.60,-7.97,7.97,8.05,8.50,-0.68,-0.63,-0.64
48.97,-8.44,-7.79,-8.47,-7.84,7.84,7.93,8.35,-0.60,-0.63,-0.65
49.46,-8.33,-7.67,-8.33,-7.70,7.70,7.80,8.21,-0.63,-0.64,-0.66
49.96,-8.22,-7.56,-8.18,-7.54,7.54,7.67,8.07,-0.68,-0.64,-0.66
50.46,-8.08,-7.43,-8.03,-7.38,7.38,7.55,7.93,-0.70,-0.65,-0.65
50.96,-7.94,-7.30,-7.88,-7.23,7.23,7.42,7.80,-0.71,-0.65,-0.64
51.47,-7.74,-7.09,-7.73,-7.07,7.07,7.30,7.67,-0.67,-0.66,-0.65
51.99,-7.53,-6.87,-7.59,-6.91,6.91,7.18,7.54,-0.62,-0.68,-0.67
52.51,-7.40,-6.72,-7.44,-6.74,6.74,7.06,7.42,-0.66,-0.70,-0.68
53.03,-7.28,-6.57,-7.29,-6.57,6.57,6.94,7.30,-0.71,-0.72,-0.71
53.56,-7.17,-6.43,-7.15,-6.40,6.40,6.83,7.18,-0.77,-0.75,-0.74
54.10,-7.05,-6.27,-7.03,-6.25,6.25,6.71,7.07,-0.81,-0.79,-0.78
54.64,-6.92,-6.09,-6.93,-6.10,6.10,6.60,6.96,-0.82,-0.83,-0.83
55.18,-6.84,-5.96,-6.84,-5.97,5.97,6.49,6.84,-0.87,-0.87,-0.88
55.74,-6.84,-5.91,-6.78,-5.85,5.85,6.38,6.74,-0.99,-0.92,-0.93
56.29,-6.77,-5.79,-6.75,-5.77,5.77,6.27,6.63,-1.00,-0.98,-0.98
56.86,-6.64,-5.60,-6.75,-5.71,5.71,6.17,6.52,-0.93,-1.04,-1.04
57.42,-6.61,-5.50,-6.78,-5.68,5.68,6.06,6.42,-0.93,-1.10,-1.11
58.00,-6.61,-5.44,-6.83,-5.67,5.67,5.96,6.32,-0.94,-1.16,-1.17
58.58,-6.74,-5.51,-6.88,-5.66,5.66,5.85,6.22,-1.08,-1.22,-1.23
59.16,-6.88,-5.60,-6.95,-5.67,5.67,5.75,6.11,-1.21,-1.28,-1.28
59.76,-7.01,-5.67,-7.02,-5.68,5.68,5.65,6.02,-1.33,-1.34,-1.34
60.35,-7.14,-5.73,-7.10,-5.69,5.69,5.56,5.92,-1.45,-1.41,-1.41
60.96,-7.28,-5.82,-7.18,-5.71,5.71,5.46,5.82,-1.57,-1.47,-1.46
61.57,-7.42,-5.89,-7.25,-5.72,5.72,5.37,5.72,-1.70,-1.52,-1.53
62.18,-7.52,-5.92,-7.30,-5.72,5.72,5.27,5.62,-1.80,-1.58,-1.60
62.80,-7.52,-5.88,-7.35,-5.72,5.72,5.18,5.53,-1.80,-1.63,-1.64
63.43,-7.48,-5.78,-7.39,-5.71,5.71,5.09,5.43,-1.77,-1.69,-1.70
64.07,-7.41,-5.67,-7.41,-5.68,5.68,5.00,5.34,-1.74,-1.73,-1.74
64.71,-7.33,-5.54,-7.40,-5.62,5.62,4.91,5.24,-1.71,-1.78,-1.79
65.35,-7.29,-5.45,-7.38,-5.56,5.56,4.82,5.14,-1.73,-1.82,-1.84
66.01,-7.29,-5.42,-7.35,-5.48,5.48,4.74,5.05,-1.81,-1.86,-1.87
66.67,-7.29,-5.38,-7.30,-5.40,5.40,4.65,4.96,-1.89,-1.90,-1.91
67.33,-7.22,-5.28,-7.24,-5.30,5.30,4.57,4.86,-1.92,-1.94,-1.94
68.01,-7.07,-5.10,-7.16,-5.19,5.19,4.49,4.77,-1.88,-1.97,-1.97
68.69,-7.07,-5.07,-7.10,-5.10,5.10,4.41,4.67,-1.97,-2.00,-2.00
69.37,-7.07,-5.03,-7.03,-5.00,5.00,4.33,4.58,-2.07,-2.03,-2.04
70.07,-7.05,-4.98,-6.96,-4.90,4.90,4.25,4.49,-2.15,-2.06,-2.07
70.77,-6.89,-4.81,-6.88,-4.79,4.79,4.17,4.40,-2.10,-2.09,-2.08
71.48,-6.84,-4.72,-6.80,-4.67,4.67,4.10,4.31,-2.17,-2.12,-2.12
72.19,-6.79,-4.65,-6.71,-4.56,4.56,4.02,4.22,-2.23,-2.15,-2.14
72.91,-6.63,-4.45,-6.62,-4.44,4.44,3.95,4.13,-2.19,-2.18,-2.18
73.64,-6.46,-4.25,-6.52,-4.31,4.31,3.88,4.04,-2.15,-2.21,-2.21
74.38,-6.38,-4.14,-6.43,-4.19,4.19,3.81,3.95,-2.19,-2.24,-2.24
75.12,-6.37,-4.10,-6.34,-4.07,4.07,3.74,3.87,-2.30,-2.27,-2.27
75.87,-6.33,-4.03,-6.25,-3.96,3.96,3.67,3.78,-2.37,-2.30,-2.30
76.63,-6.10,-3.77,-6.17,-3.84,3.84,3.60,3.70,-2.26,-2.33,-2.33
77.40,-5.95,-3.59,-6.08,-3.73,3.73,3.53,3.61,-2.22,-2.35,-2.36
78.17,-5.93,-3.54,-6.00,-3.63,3.63,3.47,3.53,-2.30,-2.37,-2.39
78.95,-5.93,-3.53,-5.93,-3.54,3.54,3.40,3.45,-2.39,-2.40,-2.40
79.74,-5.93,-3.51,-5.86,-3.45,3.45,3.34,3.37,-2.48,-2.42,-2.42
80.54,-5.85,-3.41,-5.80,-3.37,3.37,3.28,3.29,-2.48,-2.43,-2.44
81.35,-5.75,-3.29,-5.75,-3.31,3.31,3.21,3.22,-2.44,-2.44,-2.46
82.16,-5.70,-3.24,-5.71,-3.26,3.26,3.15,3.14,-2.44,-2.45,-2.46
82.98,-5.70,-3.24,-5.67,-3.21,3.21,3.09,3.06,-2.49,-2.46,-2.46
83.81,-5.70,-3.23,-5.63,-3.16,3.16,3.04,2.99,-2.54,-2.46,-2.47
84.65,-5.55,-3.07,-5.59,-3.13,3.13,2.98,2.92,-2.42,-2.46,-2.48
85.50,-5.47,-3.00,-5.56,-3.10,3.10,2.92,2.85,-2.37,-2.47,-2.47
86.35,-5.47,-3.00,-5.53,-3.06,3.06,2.86,2.77,-2.41,-2.46,-2.47
87.22,-5.47,-3.00,-5.49,-3.03,3.03,2.81,2.71,-2.44,-2.46,-2.47
88.09,-5.47,-3.00,-5.46,-3.00,3.00,2.76,2.64,-2.47,-2.46,-2.47
88.97,-5.47,-3.02,-5.43,-2.97,2.97,2.70,2.57,-2.50,-2.46,-2.45
89.86,-5.47,-3.02,-5.40,-2.94,2.94,2.65,2.50,-2.53,-2.46,-2.45
90.76,-5.45,-2.98,-5.36,-2.90,2.90,2.60,2.44,-2.55,-2.46,-2.47
91.66,-5.31,-2.85,-5.33,-2.86,2.86,2.55,2.38,-2.45,-2.47,-2.46
92.58,-5.24,-2.75,-5.29,-2.81,2.81,2.50,2.31,-2.43,-2.48,-2.49
93.51,-5.24,-2.76,-5.26,-2.77,2.77,2.45,2.25,-2.47,-2.49,-2.48
94.44,-5.24,-2.74,-5.23,-2.73,2.73,2.40,2.19,-2.51,-2.50,-2.50
95.39,-5.24,-2.73,-5.19,-2.67,2.67,2.35,2.13,-2.57,-2.52,-2.51
96.34,-5.21,-2.66,-5.16,-2.62,2.62,2.30,2.07,-2.59,-2.54,-2.55
97.30,-5.10,-2.53,-5.13,-2.57,2.57,2.26,2.01,-2.53,-2.56,-2.57
98.28,-5.01,-2.42,-5.10,-2.52,2.52,2.21,1.96,-2.49,-2.58,-2.59
99.26,-5.01,-2.39,-5.07,-2.46,2.46,2.17,1.90,-2.55,-2.61,-2.62
100.25,-5.01,-2.36,-5.05,-2.40,2.40,2.12,1.84,-2.61,-2.65,-2.65
101.25,-5.01,-2.33,-5.03,-2.34,2.34,2.08,1.79,-2.67,-2.68,-2.68
102.27,-5.01,-2.29,-5.01,-2.28,2.28,2.04,1.74,-2.73,-2.72,-2.72
103.29,-5.01,-2.24,-4.98,-2.21,2.21,2.00,1.68,-2.80,-2.77,-2.77
104.32,-5.01,-2.20,-4.95,-2.14,2.14,1.96,1.63,-2.87,-2.82,-2.81
105.37,-5.01,-2.15,-4.93,-2.06,2.06,1.91,1.58,-2.95,-2.87,-2.86
106.42,-5.01,-2.10,-4.91,-1.98,1.98,1.87,1.53,-3.03,-2.93,-2.91
107.48,-4.92,-1.94,-4.89,-1.90,1.90,1.84,1.48,-3.02,-2.99,-2.98
108.56,-4.80,-1.74,-4.88,-1.82,1.82,1.80,1.43,-2.98,-3.05,-3.06
109.64,-4.79,-1.66,-4.86,-1.74,1.74,1.76,1.38,-3.05,-3.12,-3.13
110.74,-4.79,-1.60,-4.84,-1.64,1.64,1.72,1.34,-3.15,-3.20,-3.19
111.85,-4.79,-1.53,-4.82,-1.55,1.55,1.68,1.29,-3.24,-3.27,-3.26
112.97,-4.79,-1.44,-4.81,-1.46,1.46,1.65,1.25,-3.33,-3.34,-3.35
114.10,-4.79,-1.38,-4.79,-1.38,1.38,1.61,1.20,-3.41,-3.41,-3.41
115.24,-4.79,-1.30,-4.78,-1.30,1.30,1.58,1.16,-3.49,-3.48,-3.49
116.39,-4.79,-1.22,-4.78,-1.23,1.23,1.54,1.11,-3.56,-3.55,-3.57
117.55,-4.79,-1.16,-4.77,-1.16,1.16,1.51,1.07,-3.63,-3.61,-3.63
118.73,-4.79,-1.09,-4.78,-1.10,1.10,1.47,1.03,-3.69,-3.67,-3.70
119.92,-4.79,-1.05,-4.79,-1.07,1.07,1.44,0.99,-3.72,-3.72,-3.74
121.12,-4.79,-0.99,-4.81,-1.03,1.03,1.41,0.95,-3.76,-3.77,-3.80
122.33,-4.79,-0.95,-4.81,-0.99,0.99,1.38,0.91,-3.80,-3.82,-3.84
123.55,-4.79,-0.93,-4.81,-0.94,0.94,1.34,0.87,-3.85,-3.86,-3.86
124.79,-4.79,-0.89,-4.80,-0.90,0.90,1.31,0.83,-3.89,-3.90,-3.90
126.03,-4.79,-0.85,-4.79,-0.85,0.85,1.28,0.80,-3.94,-3.94,-3.94
127.29,-4.79,-0.82,-4.77,-0.80,0.80,1.25,0.76,-3.99,-3.97,-3.97
128.57,-4.79,-0.78,-4.76,-0.75,0.75,1.22,0.72,-4.04,-4.01,-4.01
129.85,-4.79,-0.75,-4.74,-0.70,0.70,1.19,0.69,-4.09,-4.04,-4.04
131.15,-4.79,-0.72,-4.72,-0.65,0.65,1.16,0.65,-4.14,-4.07,-4.07
132.46,-4.79,-0.69,-4.70,-0.59,0.59,1.14,0.62,-4.20,-4.10,-4.10
133.79,-4.65,-0.52,-4.67,-0.54,0.54,1.11,0.59,-4.11,-4.14,-4.13
135.12,-4.56,-0.38,-4.65,-0.48,0.48,1.08,0.55,-4.08,-4.17,-4.18
136.48,-4.56,-0.35,-4.63,-0.43,0.43,1.05,0.52,-4.13,-4.20,-4.21
137.84,-4.56,-0.32,-4.61,-0.37,0.37,1.03,0.49,-4.19,-4.24,-4.24
139.22,-4.56,-0.27,-4.59,-0.32,0.32,1.00,0.46,-4.24,-4.27,-4.29
140.61,-4.56,-0.22,-4.57,-0.26,0.26,0.97,0.42,-4.30,-4.31,-4.34
142.02,-4.56,-0.20,-4.55,-0.20,0.20,0.95,0.39,-4.36,-4.35,-4.36
143.44,-4.56,-0.16,-4.53,-0.13,0.13,0.92,0.36,-4.43,-4.40,-4.40
144.87,-4.56,-0.12,-4.51,-0.06,0.06,0.90,0.33,-4.50,-4.45,-4.44
146.32,-4.56,-0.07,-4.51,-0.00,0.00,0.87,0.30,-4.56,-4.51,-4.49
147.78,-4.56,-0.03,-4.52,0.04,-0.04,0.85,0.27,-4.60,-4.57,-4.53
149.26,-4.56,0.04,-4.55,0.08,-0.08,0.82,0.24,-4.64,-4.63,-4.60
150.75,-4.56,0.12,-4.58,0.11,-0.11,0.80,0.21,-4.67,-4.69,-4.68
152.26,-4.56,0.19,-4.62,0.14,-0.14,0.77,0.18,-4.70,-4.76,-4.75
153.78,-4.56,0.26,-4.66,0.18,-0.18,0.75,0.14,-4.74,-4.84,-4.82
155.32,-4.56,0.36,-4.69,0.21,-0.21,0.73,0.11,-4.77,-4.91,-4.92
156.88,-4.58,0.41,-4.73,0.25,-0.25,0.70,0.08,-4.83,-4.98,-4.99
158.44,-4.73,0.33,-4.76,0.29,-0.29,0.68,0.05,-5.02,-5.05,-5.06
160.03,-4.85,0.29,-4.79,0.33,-0.33,0.66,0.02,-5.18,-5.11,-5.14
161.63,-4.98,0.22,-4.81,0.36,-0.36,0.64,-0.02,-5.34,-5.17,-5.20
163.24,-5.01,0.24,-4.84,0.39,-0.39,0.61,-0.05,-5.40,-5.22,-5.25
164.88,-5.01,0.28,-4.86,0.41,-0.41,0.59,-0.08,-5.42,-5.27,-5.29
166.53,-4.98,0.35,-4.87,0.43,-0.43,0.57,-0.11,-5.41,-5.30,-5.33
168.19,-4.86,0.50,-4.88,0.45,-0.45,0.55,-0.15,-5.31,-5.33,-5.36
169.87,-4.79,0.58,-4.88,0.47,-0.47,0.53,-0.18,-5.26,-5.35,-5.37
171.57,-4.79,0.59,-4.87,0.48,-0.48,0.51,-0.22,-5.27,-5.36,-5.38
173.29,-4.79,0.59,-4.86,0.50,-0.50,0.49,-0.25,-5.29,-5.37,-5.38
175.02,-4.79,0.57,-4.84,0.53,-0.53,0.47,-0.29,-5.32,-5.37,-5.36
176.77,-4.79,0.58,-4.82,0.55,-0.55,0.45,-0.32,-5.34,-5.37,-5.37
178.54,-4.79,0.57,-4.80,0.57,-0.57,0.43,-0.36,-5.36,-5.37,-5.36
180.32,-4.79,0.56,-4.78,0.59,-0.59,0.41,-0.40,-5.38,-5.37,-5.35
182.13,-4.79,0.56,-4.78,0.59,-0.59,0.39,-0.44,-5.38,-5.37,-5.35
183.95,-4.79,0.56,-4.78,0.59,-0.59,0.37,-0.47,-5.38,-5.37,-5.35
185.79,-4.79,0.57,-4.79,0.58,-0.58,0.35,-0.51,-5.37,-5.38,-5.36
187.65,-4.79,0.59,-4.80,0.58,-0.58,0.33,-0.55,-5.37,-5.39,-5.38
189.52,-4.79,0.61,-4.80,0.59,-0.59,0.31,-0.59,-5.38,-5.40,-5.40
191.42,-4.79,0.63,-4.80,0.61,-0.61,0.29,-0.63,-5.40,-5.41,-5.42
193.33,-4.79,0.65,-4.78,0.64,-0.64,0.27,-0.67,-5.43,-5.43,-5.44
195.27,-4.79,0.65,-4.78,0.66,-0.66,0.25,-0.71,-5.45,-5.44,-5.44
197.22,-4.79,0.67,-4.77,0.69,-0.69,0.23,-0.75,-5.48,-5.46,-5.46
199.19,-4.79,0.71,-4.75,0.73,-0.73,0.22,-0.79,-5.52,-5.48,-5.50
201.18,-4.79,0.71,-4.72,0.78,-0.78,0.20,-0.83,-5.57,-5.50,-5.50
203.19,-4.74,0.78,-4.69,0.82,-0.82,0.18,-0.87,-5.56,-5.52,-5.52
205.23,-4.62,0.93,-4.66,0.88,-0.88,0.16,-0.92,-5.50,-5.54,-5.55
207.28,-4.56,0.99,-4.62,0.93,-0.93,0.14,-0.96,-5.49,-5.55,-5.55
209.35,-4.56,1.01,-4.58,0.98,-0.98,0.12,-1.00,-5.54,-5.57,-5.57
211.44,-4.56,1.04,-4.56,1.03,-1.03,0.11,-1.04,-5.59,-5.58,-5.60
213.56,-4.56,1.04,-4.52,1.08,-1.08,0.09,-1.08,-5.64,-5.60,-5.60
215.69,-4.56,1.04,-4.48,1.13,-1.13,0.07,-1.12,-5.69,-5.61,-5.60
217.85,-4.35,1.28,-4.44,1.18,-1.18,0.05,-1.16,-5.53,-5.62,-5.63
220.03,-4.33,1.31,-4.40,1.23,-1.23,0.03,-1.19,-5.56,-5.64,-5.64
222.23,-4.33,1.33,-4.37,1.28,-1.28,0.02,-1.23,-5.61,-5.65,-5.66
224.45,-4.33,1.33,-4.33,1.32,-1.32,-0.00,-1.27,-5.65,-5.65,-5.66
226.70,-4.33,1.33,-4.30,1.36,-1.36,-0.02,-1.30,-5.69,-5.66,-5.66
228.96,-4.33,1.34,-4.28,1.38,-1.38,-0.04,-1.33,-5.71,-5.67,-5.67
231.25,-4.33,1.34,-4.26,1.42,-1.42,-0.05,-1.36,-5.75,-5.67,-5.67
233.57,-4.30,1.38,-4.23,1.45,-1.45,-0.07,-1.39,-5.75,-5.68,-5.68
235.90,-4.11,1.58,-4.20,1.48,-1.48,-0.09,-1.42,-5.59,-5.68,-5.69
238.26,-4.10,1.59,-4.17,1.51,-1.51,-0.11,-1.45,-5.61,-5.68,-5.69
240.64,-4.10,1.59,-4.14,1.54,-1.54,-0.13,-1.47,-5.64,-5.68,-5.69
243.05,-4.10,1.58,-4.11,1.56,-1.56,-0.14,-1.49,-5.66,-5.67,-5.68
245.48,-4.10,1.57,-4.08,1.59,-1.59,-0.16,-1.51,-5.69,-5.67,-5.67
247.93,-4.10,1.56,-4.04,1.62,-1.62,-0.18,-1.53,-5.72,-5.67,-5.66
250.41,-4.10,1.57,-4.01,1.65,-1.65,-0.20,-1.54,-5.75,-5.66,-5.67
252.92,-4.06,1.60,-3.98,1.67,-1.67,-0.21,-1.56,-5.73,-5.65,-5.66
255.45,-3.90,1.73,-3.95,1.69,-1.69,-0.23,-1.57,-5.59,-5.64,-5.63
258.00,-3.87,1.76,-3.93,1.70,-1.70,-0.25,-1.58,-5.57,-5.63,-5.63
260.58,-3.87,1.76,-3.92,1.70,-1.70,-0.27,-1.58,-5.57,-5.62,-5.63
263.19,-3.87,1.74,-3.91,1.70,-1.70,-0.29,-1.59,-5.57,-5.61,-5.61
265.82,-3.87,1.74,-3.89,1.70,-1.70,-0.30,-1.59,-5.57,-5.59,-5.61
268.48,-3.87,1.71,-3.88,1.70,-1.70,-0.32,-1.59,-5.57,-5.58,-5.58
271.16,-3.87,1.70,-3.86,1.70,-1.70,-0.34,-1.59,-5.57,-5.56,-5.57
273.87,-3.87,1.69,-3.86,1.69,-1.69,-0.36,-1.58,-5.56,-5.54,-5.56
276.61,-3.87,1.65,-3.85,1.67,-1.67,-0.38,-1.58,-5.54,-5.52,-5.52
279.38,-3.87,1.64,-3.85,1.64,-1.64,-0.39,-1.57,-5.51,-5.50,-5.51
282.17,-3.87,1.61,-3.86,1.61,-1.61,-0.41,-1.57,-5.48,-5.47,-5.48
284.99,-3.87,1.58,-3.87,1.58,-1.58,-0.43,-1.56,-5.45,-5.45,-5.45
287.84,-3.87,1.56,-3.87,1.55,-1.55,-0.45,-1.55,-5.42,-5.42,-5.43
290.72,-3.87,1.52,-3.87,1.52,-1.52,-0.47,-1.54,-5.39,-5.39,-5.39
293.63,-3.87,1.50,-3.87,1.49,-1.49,-0.49,-1.53,-5.36,-5.36,-5.37
296.57,-3.87,1.47,-3.87,1.47,-1.47,-0.50,-1.52,-5.34,-5.34,-5.34
299.53,-3.87,1.44,-3.87,1.44,-1.44,-0.52,-1.51,-5.31,-5.31,-5.31
302.53,-3.87,1.43,-3.87,1.42,-1.42,-0.54,-1.50,-5.29,-5.29,-5.30
305.55,-3.87,1.39,-3.87,1.40,-1.40,-0.56,-1.50,-5.27,-5.27,-5.26
308.61,-3.87,1.37,-3.87,1.38,-1.38,-0.58,-1.49,-5.25,-5.25,-5.24
311.69,-3.87,1.36,-3.87,1.37,-1.37,-0.60,-1.48,-5.24,-5.24,-5.23
314.81,-3.87,1.33,-3.87,1.35,-1.35,-0.62,-1.47,-5.22,-5.22,-5.20
317.96,-3.87,1.33,-3.87,1.34,-1.34,-0.64,-1.46,-5.21,-5.21,-5.20
321.14,-3.87,1.34,-3.87,1.33,-1.33,-0.66,-1.46,-5.20,-5.20,-5.21
324.35,-3.87,1.33,-3.87,1.32,-1.32,-0.68,-1.45,-5.19,-5.19,-5.20
327.59,-3.87,1.32,-3.87,1.31,-1.31,-0.70,-1.45,-5.18,-5.18,-5.19
330.87,-3.87,1.31,-3.87,1.30,-1.30,-0.72,-1.44,-5.17,-5.17,-5.18
334.18,-3.87,1.31,-3.88,1.28,-1.28,-0.74,-1.44,-5.15,-5.16,-5.18
337.52,-3.87,1.30,-3.89,1.26,-1.26,-0.76,-1.44,-5.13,-5.15,-5.17
340.90,-3.87,1.27,-3.89,1.25,-1.25,-0.78,-1.44,-5.12,-5.14,-5.14
344.30,-3.87,1.26,-3.88,1.24,-1.24,-0.80,-1.44,-5.11,-5.12,-5.13
347.75,-3.87,1.25,-3.88,1.23,-1.23,-0.82,-1.44,-5.10,-5.10,-5.12
351.23,-3.87,1.22,-3.87,1.22,-1.22,-0.84,-1.44,-5.09,-5.09,-5.09
354.74,-3.87,1.20,-3.85,1.21,-1.21,-0.86,-1.44,-5.08,-5.06,-5.07
358.28,-3.87,1.17,-3.83,1.20,-1.20,-0.88,-1.45,-5.07,-5.04,-5.04
361.87,-3.87,1.15,-3.82,1.20,-1.20,-0.90,-1.45,-5.07,-5.02,-5.02
365.49,-3.87,1.13,-3.80,1.20,-1.20,-0.93,-1.46,-5.07,-4.99,-5.00
369.14,-3.85,1.13,-3.77,1.20,-1.20,-0.95,-1.47,-5.05,-4.97,-4.98
372.83,-3.71,1.24,-3.75,1.20,-1.20,-0.97,-1.48,-4.91,-4.95,-4.95
376.56,-3.65,1.28,-3.73,1.20,-1.20,-0.99,-1.49,-4.85,-4.93,-4.93
380.33,-3.65,1.25,-3.71,1.20,-1.20,-1.01,-1.50,-4.85,-4.91,-4.90
384.13,-3.65,1.23,-3.69,1.20,-1.20,-1.04,-1.51,-4.85,-4.89,-4.88
387.97,-3.65,1.22,-3.67,1.20,-1.20,-1.06,-1.53,-4.85,-4.88,-4.87
391.85,-3.65,1.22,-3.66,1.20,-1.20,-1.08,-1.54,-4.85,-4.86,-4.87
395.77,-3.65,1.21,-3.65,1.20,-1.20,-1.10,-1.56,-4.85,-4.85,-4.86
399.73,-3.65,1.20,-3.64,1.20,-1.20,-1.13,-1.57,-4.85,-4.84,-4.85
403.72,-3.65,1.19,-3.63,1.20,-1.20,-1.15,-1.59,-4.85,-4.83,-4.84
407.76,-3.65,1.18,-3.63,1.19,-1.19,-1.17,-1.61,-4.84,-4.83,-4.83
