frequency,raw,error,smoothed,error_smoothed,equalization,parametric_eq,fixed_band_eq,equalized_raw,equalized_smoothed,target
20.00,3.65,-7.85,3.64,-7.88,7.88,7.62,1.93,11.52,11.52,11.50
20.20,3.76,-7.78,3.75,-7.80,7.80,7.57,1.99,11.55,11.55,11.54
20.40,3.87,-7.71,3.87,-7.72,7.72,7.52,2.05,11.58,11.58,11.58
20.61,3.97,-7.63,3.98,-7.63,7.63,7.46,2.11,11.61,11.61,11.61
20.81,4.09,-7.56,4.09,-7.55,7.55,7.39,2.17,11.63,11.64,11.65
21.02,4.20,-7.49,4.20,-7.46,7.46,7.32,2.24,11.66,11.66,11.69
21.23,4.31,-7.40,4.31,-7.38,7.38,7.24,2.31,11.68,11.68,11.70
21.44,4.42,-7.31,4.42,-7.29,7.29,7.16,2.37,11.70,11.71,11.72
21.66,4.52,-7.22,4.53,-7.20,7.20,7.07,2.44,11.72,11.73,11.74
21.87,4.65,-7.11,4.64,-7.11,7.11,6.98,2.52,11.75,11.75,11.75
22.09,4.76,-7.02,4.75,-7.01,7.01,6.89,2.59,11.77,11.76,11.77
22.31,4.87,-6.92,4.86,-6.92,6.92,6.79,2.67,11.79,11.78,11.78
22.54,4.97,-6.82,4.97,-6.82,6.82,6.69,2.75,11.79,11.79,11.79
22.76,5.09,-6.71,5.08,-6.72,6.72,6.59,2.83,11.81,11.80,11.80
22.99,5.19,-6.61,5.19,-6.62,6.62,6.49,2.91,11.80,11.81,11.80
23.22,5.30,-6.51,5.30,-6.52,6.52,6.39,2.99,11.81,11.82,11.81
23.45,5.41,-6.41,5.41,-6.42,6.42,6.28,3.08,11.82,11.83,11.82
23.69,5.51,-6.31,5.52,-6.32,6.32,6.18,3.17,11.83,11.84,11.83
23.92,5.63,-6.21,5.63,-6.22,6.22,6.07,3.25,11.84,11.85,11.84
24.16,5.74,-6.12,5.74,-6.12,6.12,5.96,3.35,11.85,11.85,11.86
24.40,5.85,-6.03,5.84,-6.02,6.02,5.86,3.44,11.87,11.86,11.88
24.65,5.95,-5.92,5.95,-5.92,5.92,5.75,3.53,11.88,11.87,11.87
24.89,6.06,-5.83,6.06,-5.82,5.82,5.65,3.63,11.88,11.88,11.88
25.14,6.17,-5.73,6.17,-5.73,5.73,5.54,3.72,11.89,11.89,11.89
25.39,6.28,-5.62,6.27,-5.63,5.63,5.44,3.82,11.91,11.90,11.90
25.65,6.37,-5.55,6.38,-5.53,5.53,5.33,3.91,11.91,11.91,11.92
25.91,6.48,-5.44,6.49,-5.44,5.44,5.23,4.01,11.92,11.92,11.92
26.16,6.60,-5.33,6.59,-5.34,5.34,5.13,4.10,11.94,11.93,11.93
26.43,6.69,-5.24,6.69,-5.25,5.25,5.03,4.20,11.94,11.94,11.94
26.69,6.80,-5.15,6.80,-5.15,5.15,4.93,4.29,11.95,11.95,11.95
26.96,6.89,-5.07,6.90,-5.06,5.06,4.83,4.39,11.95,11.96,11.96
27.23,7.00,-4.97,7.00,-4.96,4.96,4.74,4.48,11.97,11.97,11.97
27.50,7.10,-4.88,7.10,-4.87,4.87,4.64,4.56,11.98,11.98,11.98
27.77,7.21,-4.77,7.20,-4.78,4.78,4.55,4.65,11.99,11.98,11.98
28.05,7.31,-4.69,7.30,-4.69,4.69,4.46,4.73,12.00,11.99,12.00
28.33,7.40,-4.60,7.40,-4.60,4.60,4.37,4.81,12.00,12.00,12.00
28.62,7.49,-4.51,7.50,-4.51,4.51,4.28,4.88,12.01,12.01,12.00
28.90,7.60,-4.42,7.59,-4.43,4.43,4.19,4.95,12.02,12.02,12.01
29.19,7.69,-4.33,7.68,-4.34,4.34,4.11,5.01,12.02,12.02,12.01
29.48,7.78,-4.26,7.78,-4.25,4.25,4.03,5.07,12.03,12.03,12.04
29.78,7.86,-4.17,7.87,-4.17,4.17,3.94,5.12,12.03,12.04,12.04
30.08,7.95,-4.09,7.95,-4.09,4.09,3.87,5.16,12.04,12.04,12.05
30.38,8.04,-4.00,8.04,-4.01,4.01,3.79,5.19,12.05,12.05,12.04
30.68,8.13,-3.94,8.13,-3.93,3.93,3.71,5.22,12.05,12.05,12.06
30.99,8.21,-3.84,8.21,-3.85,3.85,3.64,5.24,12.06,12.06,12.06
31.30,8.29,-3.77,8.29,-3.77,3.77,3.56,5.25,12.07,12.07,12.07
31.61,8.38,-3.70,8.38,-3.70,3.70,3.49,5.26,12.07,12.08,12.07
31.93,8.45,-3.63,8.46,-3.63,3.63,3.42,5.25,12.08,12.08,12.08
32.24,8.54,-3.54,8.54,-3.55,3.55,3.36,5.24,12.09,12.09,12.08
32.57,8.60,-3.49,8.61,-3.48,3.48,3.29,5.22,12.09,12.10,12.10
32.89,8.69,-3.42,8.69,-3.41,3.41,3.23,5.20,12.10,12.10,12.10
33.22,8.76,-3.35,8.76,-3.35,3.35,3.16,5.16,12.10,12.11,12.11
33.55,8.84,-3.28,8.83,-3.28,3.28,3.10,5.12,12.12,12.11,12.12
33.89,8.91,-3.22,8.90,-3.22,3.22,3.04,5.08,12.12,12.12,12.12
34.23,8.97,-3.16,8.97,-3.16,3.16,2.98,5.03,12.13,12.13,12.13
34.57,9.05,-3.09,9.04,-3.10,3.10,2.93,4.97,12.14,12.13,12.14
34.92,9.10,-3.03,9.10,-3.04,3.04,2.87,4.92,12.14,12.14,12.13
35.27,9.16,-2.97,9.16,-2.98,2.98,2.82,4.85,12.15,12.14,12.14
35.62,9.22,-2.93,9.21,-2.93,2.93,2.77,4.79,12.15,12.14,12.15
35.97,9.28,-2.87,9.27,-2.88,2.88,2.72,4.72,12.15,12.15,12.14
36.33,9.32,-2.83,9.32,-2.82,2.82,2.67,4.65,12.14,12.15,12.15
36.70,9.36,-2.78,9.37,-2.78,2.78,2.62,4.58,12.14,12.15,12.14
37.06,9.42,-2.73,9.42,-2.73,2.73,2.58,4.50,12.14,12.15,12.15
37.43,9.46,-2.70,9.46,-2.68,2.68,2.53,4.43,12.14,12.14,12.15
37.81,9.51,-2.64,9.51,-2.64,2.64,2.49,4.35,12.14,12.14,12.15
38.19,9.55,-2.60,9.55,-2.59,2.59,2.45,4.28,12.14,12.14,12.14
38.57,9.59,-2.55,9.59,-2.55,2.55,2.41,4.21,12.14,12.14,12.14
38.95,9.64,-2.50,9.63,-2.51,2.51,2.37,4.13,12.14,12.13,12.13
39.34,9.67,-2.46,9.67,-2.47,2.47,2.33,4.06,12.13,12.13,12.13
39.74,9.71,-2.42,9.70,-2.42,2.42,2.30,3.99,12.13,12.13,12.12
40.14,9.73,-2.39,9.74,-2.38,2.38,2.26,3.93,12.12,12.12,12.12
40.54,9.77,-2.35,9.78,-2.34,2.34,2.23,3.86,12.11,12.12,12.12
40.94,9.81,-2.31,9.81,-2.30,2.30,2.20,3.79,12.11,12.12,12.11
41.35,9.84,-2.27,9.85,-2.27,2.27,2.17,3.73,12.10,12.11,12.10
41.76,9.88,-2.23,9.88,-2.23,2.23,2.14,3.67,12.10,12.11,12.11
42.18,9.91,-2.20,9.91,-2.19,2.19,2.11,3.61,12.10,12.10,12.11
42.60,9.95,-2.16,9.94,-2.16,2.16,2.09,3.56,12.11,12.10,12.10
43.03,9.98,-2.13,9.97,-2.13,2.13,2.06,3.51,12.10,12.09,12.10
43.46,10.00,-2.10,9.99,-2.10,2.10,2.04,3.45,12.09,12.09,12.09
43.90,10.02,-2.06,10.02,-2.07,2.07,2.02,3.41,12.08,12.08,12.08
44.33,10.05,-2.03,10.04,-2.04,2.04,1.99,3.36,12.09,12.08,12.08
44.78,10.07,-2.00,10.06,-2.02,2.02,1.98,3.32,12.08,12.08,12.07
45.23,10.08,-1.98,10.08,-1.99,1.99,1.96,3.28,12.07,12.07,12.06
45.68,10.09,-1.97,10.09,-1.97,1.97,1.94,3.24,12.06,12.06,12.06
46.13,10.10,-1.95,10.11,-1.95,1.95,1.93,3.21,12.05,12.06,12.05
46.60,10.12,-1.94,10.12,-1.93,1.93,1.91,3.17,12.05,12.05,12.06
47.06,10.13,-1.92,10.12,-1.92,1.92,1.90,3.14,12.04,12.04,12.05
47.53,10.14,-1.90,10.13,-1.90,1.90,1.89,3.12,12.04,12.03,12.03
48.01,10.14,-1.91,10.14,-1.88,1.88,1.88,3.09,12.02,12.02,12.04
48.49,10.14,-1.88,10.14,-1.87,1.87,1.88,3.07,12.00,12.01,12.02
48.97,10.15,-1.85,10.14,-1.86,1.86,1.87,3.05,12.00,12.00,12.00
49.46,10.15,-1.84,10.14,-1.84,1.84,1.87,3.03,11.99,11.98,11.98
49.96,10.14,-1.82,10.14,-1.83,1.83,1.87,3.01,11.96,11.97,11.96
50.46,10.13,-1.83,10.14,-1.82,1.82,1.87,3.00,11.94,11.95,11.95
50.96,10.12,-1.82,10.13,-1.81,1.81,1.87,2.98,11.92,11.93,11.94
51.47,10.12,-1.79,10.12,-1.80,1.80,1.87,2.97,11.91,11.92,11.90
51.99,10.11,-1.78,10.10,-1.79,1.79,1.88,2.96,11.90,11.90,11.89
52.51,10.09,-1.80,10.08,-1.79,1.79,1.88,2.95,11.88,11.87,11.88
53.03,10.07,-1.79,10.06,-1.80,1.80,1.89,2.94,11.86,11.85,11.85
53.56,10.04,-1.80,10.03,-1.80,1.80,1.91,2.93,11.84,11.83,11.84
54.10,10.01,-1.80,9.99,-1.82,1.82,1.92,2.92,11.82,11.81,11.81
54.64,9.97,-1.82,9.95,-1.83,1.83,1.94,2.91,11.80,11.79,11.79
55.18,9.92,-1.85,9.91,-1.85,1.85,1.95,2.91,11.77,11.76,11.76
55.74,9.87,-1.86,9.86,-1.88,1.88,1.98,2.90,11.74,11.74,11.73
56.29,9.81,-1.91,9.81,-1.90,1.90,2.00,2.89,11.71,11.72,11.72
56.86,9.75,-1.94,9.75,-1.94,1.94,2.03,2.88,11.68,11.69,11.69
57.42,9.67,-1.98,9.69,-1.97,1.97,2.05,2.87,11.65,11.67,11.66
58.00,9.62,-2.02,9.63,-2.01,2.01,2.09,2.86,11.63,11.64,11.63
58.58,9.56,-2.05,9.55,-2.05,2.05,2.12,2.85,11.61,11.61,11.61
59.16,9.48,-2.10,9.48,-2.10,2.10,2.16,2.83,11.58,11.58,11.58
59.76,9.40,-2.16,9.40,-2.15,2.15,2.20,2.82,11.54,11.54,11.56
60.35,9.31,-2.21,9.31,-2.20,2.20,2.24,2.80,11.51,11.51,11.52
60.96,9.24,-2.25,9.22,-2.25,2.25,2.29,2.78,11.49,11.47,11.49
61.57,9.14,-2.30,9.13,-2.31,2.31,2.34,2.76,11.45,11.44,11.44
62.18,9.03,-2.36,9.03,-2.37,2.37,2.39,2.74,11.41,11.40,11.39
62.80,8.92,-2.44,8.92,-2.44,2.44,2.44,2.71,11.37,11.36,11.36
63.43,8.81,-2.50,8.81,-2.51,2.51,2.50,2.68,11.33,11.32,11.31
64.07,8.70,-2.57,8.69,-2.59,2.59,2.56,2.65,11.28,11.28,11.27
64.71,8.58,-2.65,8.57,-2.67,2.67,2.62,2.62,11.24,11.23,11.23
65.35,8.44,-2.74,8.44,-2.75,2.75,2.69,2.58,11.19,11.19,11.19
66.01,8.32,-2.83,8.31,-2.84,2.84,2.76,2.55,11.15,11.15,11.14
66.67,8.19,-2.92,8.18,-2.92,2.92,2.82,2.51,11.11,11.10,11.11
67.33,8.04,-3.02,8.04,-3.02,3.02,2.89,2.47,11.06,11.06,11.06
68.01,7.92,-3.10,7.90,-3.11,3.11,2.96,2.43,11.02,11.01,11.02
68.69,7.78,-3.19,7.77,-3.20,3.20,3.04,2.38,10.97,10.97,10.97
69.37,7.63,-3.29,7.63,-3.29,3.29,3.10,2.34,10.92,10.92,10.92
70.07,7.51,-3.37,7.50,-3.37,3.37,3.17,2.29,10.88,10.88,10.87
70.77,7.38,-3.46,7.38,-3.46,3.46,3.24,2.24,10.83,10.83,10.83
71.48,7.26,-3.53,7.26,-3.53,3.53,3.30,2.19,10.79,10.79,10.79
72.19,7.15,-3.59,7.14,-3.60,3.60,3.36,2.14,10.74,10.74,10.74
72.91,7.03,-3.66,7.04,-3.65,3.65,3.41,2.09,10.69,10.70,10.69
73.64,6.95,-3.71,6.95,-3.70,3.70,3.46,2.04,10.65,10.65,10.65
74.38,6.87,-3.75,6.88,-3.73,3.73,3.50,1.99,10.60,10.61,10.62
75.12,6.80,-3.77,6.82,-3.76,3.76,3.53,1.94,10.55,10.57,10.57
75.87,6.76,-3.78,6.77,-3.76,3.76,3.55,1.89,10.52,10.53,10.53
76.63,6.72,-3.78,6.74,-3.75,3.75,3.56,1.84,10.47,10.49,10.49
77.40,6.71,-3.75,6.73,-3.73,3.73,3.56,1.79,10.43,10.46,10.45
78.17,6.72,-3.70,6.73,-3.69,3.69,3.55,1.74,10.40,10.42,10.41
78.95,6.74,-3.65,6.75,-3.63,3.63,3.53,1.69,10.37,10.38,10.38
79.74,6.78,-3.58,6.79,-3.56,3.56,3.49,1.65,10.33,10.35,10.35
80.54,6.83,-3.49,6.85,-3.47,3.47,3.45,1.60,10.29,10.32,10.32
81.35,6.90,-3.39,6.92,-3.37,3.37,3.39,1.55,10.26,10.28,10.29
82.16,6.98,-3.27,6.99,-3.26,3.26,3.33,1.50,10.23,10.25,10.25
82.98,7.08,-3.15,7.08,-3.14,3.14,3.26,1.46,10.21,10.22,10.22
83.81,7.19,-3.00,7.18,-3.01,3.01,3.18,1.41,10.20,10.19,10.19
84.65,7.30,-2.86,7.28,-2.88,2.88,3.09,1.37,10.17,10.16,10.15
85.50,7.40,-2.73,7.39,-2.74,2.74,3.00,1.33,10.14,10.13,10.13
86.35,7.53,-2.58,7.50,-2.60,2.60,2.90,1.29,10.13,10.10,10.10
87.22,7.63,-2.44,7.62,-2.46,2.46,2.80,1.25,10.10,10.08,10.07
88.09,7.74,-2.31,7.73,-2.32,2.32,2.70,1.21,10.06,10.05,10.04
88.97,7.84,-2.19,7.83,-2.19,2.19,2.59,1.17,10.02,10.02,10.02
89.86,7.93,-2.08,7.93,-2.06,2.06,2.48,1.13,9.98,9.99,10.00
90.76,8.02,-1.93,8.03,-1.93,1.93,2.38,1.09,9.96,9.97,9.96
91.66,8.12,-1.82,8.12,-1.82,1.82,2.27,1.05,9.93,9.94,9.94
92.58,8.21,-1.70,8.20,-1.71,1.71,2.17,1.02,9.92,9.91,9.90
93.51,8.29,-1.60,8.27,-1.61,1.61,2.06,0.98,9.90,9.88,9.89
94.44,8.35,-1.51,8.32,-1.52,1.52,1.96,0.95,9.87,9.85,9.85
95.39,8.40,-1.43,8.37,-1.44,1.44,1.86,0.92,9.84,9.82,9.83
96.34,8.43,-1.36,8.41,-1.37,1.37,1.76,0.88,9.79,9.78,9.78
97.30,8.46,-1.29,8.44,-1.31,1.31,1.66,0.85,9.76,9.75,9.75
98.28,8.48,-1.23,8.46,-1.25,1.25,1.57,0.82,9.73,9.71,9.71
99.26,8.48,-1.20,8.47,-1.21,1.21,1.48,0.79,9.68,9.68,9.67
100.25,8.47,-1.17,8.46,-1.17,1.17,1.39,0.76,9.64,9.64,9.63
101.25,8.45,-1.15,8.45,-1.15,1.15,1.30,0.73,9.59,9.60,9.60
102.27,8.41,-1.14,8.42,-1.13,1.13,1.21,0.70,9.54,9.55,9.55
103.29,8.39,-1.12,8.38,-1.13,1.13,1.13,0.67,9.51,9.51,9.50
104.32,8.37,-1.10,8.34,-1.12,1.12,1.05,0.64,9.49,9.46,9.46
105.37,8.32,-1.10,8.28,-1.13,1.13,0.97,0.61,9.44,9.41,9.42
106.42,8.26,-1.10,8.23,-1.13,1.13,0.89,0.59,9.39,9.36,9.36
107.48,8.18,-1.14,8.17,-1.14,1.14,0.82,0.56,9.31,9.30,9.31
108.56,8.10,-1.15,8.10,-1.14,1.14,0.75,0.53,9.24,9.24,9.24
109.64,8.02,-1.17,8.04,-1.15,1.15,0.67,0.50,9.16,9.18,9.19
110.74,7.96,-1.17,7.97,-1.15,1.15,0.60,0.47,9.10,9.12,9.13
111.85,7.90,-1.17,7.91,-1.15,1.15,0.53,0.44,9.04,9.05,9.06
112.97,7.84,-1.15,7.85,-1.14,1.14,0.47,0.41,8.98,8.99,8.98
114.10,7.79,-1.14,7.79,-1.13,1.13,0.40,0.38,8.91,8.92,8.93
115.24,7.73,-1.13,7.74,-1.11,1.11,0.33,0.35,8.84,8.85,8.85
116.39,7.71,-1.07,7.70,-1.09,1.09,0.27,0.31,8.79,8.78,8.78
117.55,7.67,-1.05,7.66,-1.06,1.06,0.21,0.28,8.72,8.72,8.71
118.73,7.64,-1.00,7.64,-1.01,1.01,0.14,0.25,8.65,8.65,8.64
119.92,7.63,-0.96,7.62,-0.96,0.96,0.08,0.21,8.58,8.58,8.58
121.12,7.62,-0.89,7.62,-0.90,0.90,0.02,0.17,8.51,8.51,8.51
122.33,7.62,-0.83,7.63,-0.82,0.82,-0.05,0.14,8.44,8.45,8.44
123.55,7.63,-0.77,7.64,-0.74,0.74,-0.11,0.10,8.37,8.39,8.39
124.79,7.67,-0.66,7.68,-0.65,0.65,-0.17,0.06,8.31,8.32,8.33
126.03,7.72,-0.55,7.72,-0.55,0.55,-0.23,0.02,8.26,8.26,8.27
127.29,7.75,-0.46,7.77,-0.43,0.43,-0.30,-0.02,8.18,8.20,8.21
128.57,7.81,-0.33,7.84,-0.31,0.31,-0.36,-0.07,8.11,8.15,8.14
129.85,7.91,-0.18,7.92,-0.17,0.17,-0.42,-0.11,8.08,8.09,8.09
131.15,8.02,-0.01,8.01,-0.03,0.03,-0.49,-0.16,8.05,8.04,8.03
132.46,8.08,0.09,8.10,0.12,-0.12,-0.55,-0.21,7.96,7.98,7.98
133.79,8.20,0.26,8.21,0.28,-0.28,-0.62,-0.26,7.92,7.93,7.94
135.12,8.35,0.47,8.32,0.44,-0.44,-0.69,-0.31,7.91,7.88,7.88
136.48,8.43,0.59,8.44,0.60,-0.60,-0.76,-0.36,7.82,7.83,7.83
137.84,8.58,0.79,8.55,0.77,-0.77,-0.82,-0.42,7.80,7.78,7.78
139.22,8.68,0.95,8.68,0.94,-0.94,-0.90,-0.47,7.74,7.74,7.73
140.61,8.80,1.12,8.80,1.11,-1.11,-0.97,-0.53,7.69,7.69,7.68
142.02,8.95,1.30,8.92,1.27,-1.27,-1.04,-0.59,7.67,7.64,7.64
143.44,9.04,1.43,9.03,1.43,-1.43,-1.12,-0.65,7.60,7.60,7.60
144.87,9.17,1.61,9.14,1.59,-1.59,-1.20,-0.71,7.57,7.55,7.55
146.32,9.26,1.75,9.25,1.75,-1.75,-1.28,-0.77,7.51,7.51,7.51
147.78,9.38,1.91,9.36,1.90,-1.90,-1.36,-0.83,7.47,7.46,7.47
149.26,9.46,2.03,9.46,2.05,-2.05,-1.44,-0.90,7.41,7.41,7.42
150.75,9.57,2.21,9.55,2.19,-2.19,-1.53,-0.97,7.38,7.36,7.36
152.26,9.65,2.33,9.64,2.33,-2.33,-1.62,-1.03,7.32,7.31,7.31
153.78,9.74,2.47,9.73,2.46,-2.46,-1.71,-1.10,7.27,7.26,7.27
155.32,9.81,2.60,9.81,2.60,-2.60,-1.80,-1.17,7.21,7.21,7.21
156.88,9.89,2.72,9.89,2.73,-2.73,-1.90,-1.25,7.16,7.16,7.17
158.44,9.95,2.83,9.96,2.85,-2.85,-2.00,-1.32,7.10,7.11,7.12
160.03,10.04,2.98,10.03,2.97,-2.97,-2.11,-1.40,7.06,7.06,7.06
161.63,10.10,3.10,10.09,3.09,-3.09,-2.22,-1.47,7.01,7.01,7.00
163.24,10.15,3.20,10.15,3.20,-3.20,-2.33,-1.55,6.94,6.95,6.95
164.88,10.22,3.31,10.21,3.31,-3.31,-2.44,-1.63,6.91,6.90,6.90
166.53,10.28,3.43,10.26,3.41,-3.41,-2.56,-1.72,6.86,6.85,6.85
168.19,10.33,3.53,10.31,3.52,-3.52,-2.68,-1.80,6.81,6.79,6.79
169.87,10.38,3.64,10.36,3.62,-3.62,-2.81,-1.89,6.76,6.74,6.74
171.57,10.41,3.72,10.40,3.72,-3.72,-2.94,-1.97,6.68,6.68,6.69
173.29,10.44,3.81,10.44,3.82,-3.82,-3.07,-2.06,6.61,6.62,6.62
175.02,10.48,3.90,10.49,3.92,-3.92,-3.21,-2.16,6.55,6.56,6.57
176.77,10.52,4.01,10.53,4.02,-4.02,-3.35,-2.25,6.49,6.50,6.50
178.54,10.54,4.09,10.56,4.12,-4.12,-3.50,-2.34,6.41,6.44,6.44
180.32,10.58,4.19,10.60,4.22,-4.22,-3.64,-2.44,6.36,6.38,6.38
182.13,10.62,4.29,10.64,4.32,-4.32,-3.79,-2.54,6.30,6.32,6.33
183.95,10.68,4.42,10.68,4.42,-4.42,-3.94,-2.64,6.26,6.26,6.26
185.79,10.72,4.51,10.71,4.51,-4.51,-4.10,-2.74,6.20,6.20,6.20
187.65,10.75,4.62,10.74,4.61,-4.61,-4.25,-2.84,6.14,6.14,6.13
189.52,10.78,4.70,10.78,4.70,-4.70,-4.41,-2.95,6.08,6.08,6.07
191.42,10.81,4.79,10.80,4.78,-4.78,-4.56,-3.06,6.03,6.02,6.02
193.33,10.83,4.86,10.82,4.86,-4.86,-4.71,-3.16,5.97,5.96,5.97
195.27,10.85,4.93,10.83,4.93,-4.93,-4.85,-3.27,5.92,5.91,5.91
197.22,10.86,5.00,10.84,4.99,-4.99,-5.00,-3.38,5.87,5.85,5.85
199.19,10.86,5.06,10.84,5.04,-5.04,-5.13,-3.49,5.82,5.80,5.79
201.18,10.85,5.10,10.83,5.08,-5.08,-5.26,-3.61,5.76,5.75,5.74
203.19,10.84,5.13,10.81,5.11,-5.11,-5.38,-3.72,5.72,5.70,5.70
205.23,10.81,5.16,10.78,5.14,-5.14,-5.48,-3.83,5.67,5.65,5.64
207.28,10.77,5.15,10.75,5.15,-5.15,-5.57,-3.94,5.61,5.60,5.61
209.35,10.72,5.16,10.72,5.16,-5.16,-5.65,-4.05,5.55,5.55,5.56
211.44,10.66,5.16,10.68,5.17,-5.17,-5.71,-4.16,5.49,5.51,5.50
213.56,10.62,5.15,10.63,5.16,-5.16,-5.76,-4.27,5.45,5.47,5.46
215.69,10.57,5.13,10.58,5.16,-5.16,-5.78,-4.37,5.41,5.43,5.44
217.85,10.50,5.10,10.53,5.14,-5.14,-5.79,-4.47,5.35,5.39,5.39
220.03,10.47,5.12,10.47,5.12,-5.12,-5.78,-4.57,5.34,5.35,5.35
222.23,10.42,5.10,10.42,5.10,-5.10,-5.74,-4.66,5.32,5.32,5.31
224.45,10.36,5.07,10.36,5.07,-5.07,-5.70,-4.75,5.29,5.29,5.29
226.70,10.30,5.03,10.29,5.03,-5.03,-5.63,-4.83,5.26,5.26,5.26
228.96,10.24,5.01,10.23,5.00,-5.00,-5.55,-4.91,5.24,5.24,5.23
231.25,10.19,4.97,10.17,4.95,-4.95,-5.45,-4.98,5.23,5.21,5.22
233.57,10.13,4.93,10.10,4.90,-4.90,-5.34,-5.04,5.22,5.19,5.20
235.90,10.03,4.85,10.03,4.85,-4.85,-5.22,-5.09,5.18,5.18,5.17
238.26,9.96,4.79,9.96,4.79,-4.79,-5.09,-5.14,5.16,5.17,5.16
240.64,9.88,4.72,9.88,4.73,-4.73,-4.95,-5.17,5.15,5.15,5.15
243.05,9.82,4.66,9.81,4.66,-4.66,-4.80,-5.19,5.16,5.15,5.15
245.48,9.73,4.58,9.73,4.58,-4.58,-4.65,-5.20,5.14,5.14,5.14
247.93,9.63,4.48,9.65,4.50,-4.50,-4.50,-5.20,5.12,5.14,5.14
250.41,9.57,4.43,9.56,4.42,-4.42,-4.34,-5.19,5.14,5.14,5.13
252.92,9.47,4.32,9.48,4.34,-4.34,-4.19,-5.17,5.13,5.14,5.14
255.45,9.40,4.24,9.40,4.25,-4.25,-4.03,-5.14,5.14,5.15,5.15
258.00,9.33,4.17,9.32,4.17,-4.17,-3.88,-5.09,5.16,5.15,5.15
260.58,9.25,4.09,9.24,4.08,-4.08,-3.72,-5.04,5.16,5.16,5.16
263.19,9.16,3.99,9.16,3.99,-3.99,-3.57,-4.97,5.16,5.17,5.17
265.82,9.06,3.88,9.08,3.90,-3.90,-3.42,-4.90,5.16,5.18,5.17
268.48,8.98,3.78,9.00,3.81,-3.81,-3.27,-4.82,5.17,5.19,5.19
271.16,8.92,3.71,8.91,3.71,-3.71,-3.13,-4.72,5.21,5.20,5.21
273.87,8.83,3.61,8.82,3.61,-3.61,-2.99,-4.62,5.22,5.21,5.21
276.61,8.74,3.50,8.73,3.51,-3.51,-2.86,-4.51,5.23,5.22,5.23
279.38,8.66,3.42,8.64,3.40,-3.40,-2.72,-4.40,5.26,5.24,5.24
282.17,8.57,3.31,8.54,3.29,-3.29,-2.60,-4.28,5.28,5.25,5.25
284.99,8.47,3.20,8.44,3.17,-3.17,-2.47,-4.15,5.29,5.26,5.27
287.84,8.34,3.07,8.33,3.06,-3.06,-2.35,-4.02,5.28,5.27,5.27
290.72,8.22,2.93,8.22,2.94,-2.94,-2.23,-3.89,5.28,5.29,5.28
293.63,8.10,2.80,8.11,2.81,-2.81,-2.12,-3.75,5.28,5.30,5.30
296.57,8.00,2.68,8.00,2.69,-2.69,-2.01,-3.61,5.31,5.31,5.31
299.53,7.88,2.56,7.88,2.55,-2.55,-1.90,-3.47,5.32,5.32,5.32
302.53,7.76,2.43,7.76,2.42,-2.42,-1.80,-3.32,5.33,5.33,5.32
305.55,7.64,2.28,7.63,2.29,-2.29,-1.70,-3.18,5.35,5.35,5.35
308.61,7.51,2.15,7.51,2.15,-2.15,-1.60,-3.03,5.35,5.35,5.36
311.69,7.38,2.01,7.38,2.02,-2.02,-1.51,-2.88,5.36,5.36,5.36
314.81,7.27,1.88,7.26,1.89,-1.89,-1.42,-2.74,5.38,5.37,5.39
317.96,7.14,1.75,7.13,1.75,-1.75,-1.33,-2.59,5.38,5.38,5.38
321.14,7.01,1.61,7.01,1.62,-1.62,-1.24,-2.44,5.39,5.39,5.39
324.35,6.87,1.48,6.88,1.48,-1.48,-1.16,-2.29,5.38,5.39,5.39
327.59,6.74,1.33,6.75,1.35,-1.35,-1.08,-2.15,5.39,5.40,5.40
330.87,6.63,1.23,6.62,1.22,-1.22,-1.00,-2.00,5.41,5.40,5.40
334.18,6.51,1.11,6.49,1.08,-1.08,-0.92,-1.86,5.42,5.40,5.40
337.52,6.35,0.94,6.36,0.95,-0.95,-0.84,-1.71,5.40,5.41,5.40
340.90,6.24,0.82,6.22,0.82,-0.82,-0.77,-1.57,5.42,5.41,5.41
344.30,6.09,0.68,6.09,0.69,-0.69,-0.70,-1.43,5.40,5.40,5.41
347.75,5.96,0.55,5.95,0.55,-0.55,-0.63,-1.28,5.40,5.40,5.41
351.23,5.82,0.41,5.82,0.42,-0.42,-0.56,-1.14,5.40,5.40,5.40
354.74,5.69,0.29,5.68,0.28,-0.28,-0.49,-1.00,5.40,5.40,5.40
358.28,5.56,0.17,5.54,0.15,-0.15,-0.42,-0.86,5.41,5.39,5.39
361.87,5.44,0.05,5.40,0.02,-0.02,-0.36,-0.72,5.42,5.39,5.39
365.49,5.28,-0.11,5.27,-0.11,0.11,-0.29,-0.59,5.39,5.38,5.38
369.14,5.14,-0.24,5.13,-0.24,0.24,-0.23,-0.45,5.38,5.37,5.37
372.83,5.01,-0.36,5.00,-0.37,0.37,-0.17,-0.31,5.37,5.37,5.37
376.56,4.86,-0.50,4.87,-0.49,0.49,-0.10,-0.18,5.34,5.36,5.36
380.33,4.73,-0.63,4.75,-0.60,0.60,-0.04,-0.04,5.33,5.35,5.36
384.13,4.62,-0.73,4.63,-0.72,0.72,0.02,0.09,5.33,5.34,5.34
387.97,4.51,-0.83,4.51,-0.83,0.83,0.08,0.22,5.33,5.34,5.33
391.85,4.41,-0.91,4.40,-0.93,0.93,0.14,0.35,5.33,5.33,5.32
395.77,4.31,-1.02,4.30,-1.02,1.02,0.20,0.49,5.33,5.32,5.33
399.73,4.21,-1.11,4.21,-1.11,1.11,0.26,0.62,5.31,5.31,5.32
403.72,4.13,-1.18,4.12,-1.18,1.18,0.32,0.74,5.31,5.31,5.31
407.76,4.04,-1.26,4.05,-1.25,1.25,0.38,0.87,5.29,5.30,5.29
411.84,3.97,-1.34,3.99,-1.31,1.31,0.44,1.00,5.28,5.30,5.30
415.96,3.91,-1.39,3.93,-1.36,1.36,0.51,1.12,5.27,5.29,5.29
420.12,3.87,-1.42,3.88,-1.41,1.41,0.57,1.25,5.27,5.29,5.29
424.32,3.83,-1.46,3.84,-1.44,1.44,0.63,1.37,5.27,5.28,5.29
428.56,3.81,-1.47,3.81,-1.47,1.47,0.69,1.49,5.28,5.28,5.28
432.85,3.80,-1.48,3.78,-1.50,1.50,0.75,1.61,5.29,5.28,5.28
437.18,3.78,-1.50,3.76,-1.51,1.51,0.82,1.72,5.29,5.28,5.28
441.55,3.77,-1.52,3.75,-1.52,1.52,0.88,1.83,5.29,5.28,5.28
445.96,3.75,-1.54,3.75,-1.53,1.53,0.95,1.95,5.28,5.28,5.28
450.42,3.73,-1.55,3.75,-1.53,1.53,1.01,2.05,5.26,5.28,5.27
454.93,3.73,-1.56,3.75,-1.53,1.53,1.08,2.16,5.26,5.28,5.28
459.48,3.74,-1.55,3.75,-1.53,1.53,1.15,2.26,5.27,5.29,5.28
464.07,3.76,-1.53,3.76,-1.53,1.53,1.22,2.36,5.29,5.29,5.29
468.71,3.77,-1.53,3.76,-1.54,1.54,1.29,2.45,5.30,5.29,5.30
473.40,3.77,-1.53,3.76,-1.54,1.54,1.36,2.54,5.31,5.30,5.30
478.13,3.76,-1.55,3.75,-1.55,1.55,1.44,2.63,5.31,5.31,5.31
482.91,3.76,-1.55,3.74,-1.57,1.57,1.51,2.71,5.32,5.31,5.31
487.74,3.75,-1.57,3.73,-1.59,1.59,1.59,2.79,5.33,5.32,5.32
492.62,3.73,-1.60,3.71,-1.61,1.61,1.67,2.86,5.34,5.32,5.32
497.55,3.71,-1.62,3.68,-1.64,1.64,1.75,2.93,5.35,5.33,5.32
502.52,3.66,-1.68,3.64,-1.69,1.69,1.84,3.00,5.34,5.33,5.33
507.55,3.61,-1.73,3.59,-1.74,1.74,1.92,3.06,5.34,5.33,5.33
512.62,3.56,-1.78,3.54,-1.80,1.80,2.01,3.11,5.35,5.34,5.33
