frequency,raw,error,smoothed,error_smoothed,equalization,parametric_eq,fixed_band_eq,equalized_raw,equalized_smoothed,target
20.00,-19.46,-20.24,-18.32,-19.12,19.12,19.33,7.19,-0.34,0.80,0.78
20.20,-18.93,-19.75,-18.28,-19.11,19.11,19.17,7.35,0.18,0.83,0.82
20.40,-18.38,-19.23,-18.23,-19.08,19.08,19.01,7.51,0.70,0.86,0.85
20.61,-17.87,-18.75,-18.15,-19.03,19.03,18.85,7.68,1.16,0.88,0.88
20.81,-17.32,-18.23,-18.06,-18.96,18.96,18.69,7.85,1.65,0.91,0.92
21.02,-16.85,-17.81,-17.94,-18.87,18.87,18.53,8.02,2.02,0.93,0.96
21.23,-16.93,-17.90,-17.81,-18.76,18.76,18.37,8.20,1.83,0.95,0.97
21.44,-17.01,-18.00,-17.66,-18.63,18.63,18.21,8.39,1.62,0.97,0.99
21.66,-17.10,-18.10,-17.49,-18.48,18.48,18.05,8.58,1.38,0.99,1.00
21.87,-17.18,-18.19,-17.30,-18.31,18.31,17.89,8.77,1.13,1.01,1.01
22.09,-17.19,-18.22,-17.09,-18.12,18.12,17.73,8.97,0.93,1.02,1.03
22.31,-17.10,-18.13,-16.86,-17.90,17.90,17.57,9.17,0.80,1.04,1.03
22.54,-17.01,-18.05,-16.71,-17.76,17.76,17.41,9.38,0.75,1.05,1.04
22.76,-16.92,-17.97,-16.47,-17.53,17.53,17.26,9.60,0.61,1.06,1.05
22.99,-16.82,-17.87,-16.17,-17.23,17.23,17.10,9.82,0.41,1.06,1.05
23.22,-16.35,-17.41,-15.81,-16.89,16.89,16.95,10.04,0.53,1.07,1.06
23.45,-15.87,-16.94,-15.45,-16.52,16.52,16.80,10.28,0.66,1.08,1.07
23.69,-15.39,-16.47,-15.09,-16.17,16.17,16.65,10.51,0.78,1.08,1.08
23.92,-14.88,-15.97,-14.76,-15.85,15.85,16.50,10.76,0.96,1.08,1.09
24.16,-14.32,-15.42,-14.48,-15.57,15.57,16.35,11.01,1.24,1.09,1.10
24.40,-13.72,-14.83,-14.25,-15.34,15.34,16.20,11.27,1.62,1.09,1.11
24.65,-13.15,-14.24,-14.07,-15.16,15.16,16.05,11.53,2.01,1.09,1.10
24.89,-12.54,-13.64,-13.94,-15.03,15.03,15.91,11.80,2.49,1.09,1.09
25.14,-12.69,-13.78,-13.85,-14.95,14.95,15.76,12.08,2.26,1.10,1.09
25.39,-13.37,-14.46,-13.80,-14.90,14.90,15.62,12.37,1.53,1.10,1.09
25.65,-14.03,-15.12,-13.80,-14.89,14.89,15.48,12.66,0.86,1.09,1.09
25.91,-14.70,-15.78,-13.84,-14.93,14.93,15.34,12.95,0.23,1.09,1.08
26.16,-14.87,-15.96,-13.90,-14.99,14.99,15.20,13.26,0.13,1.09,1.09
26.43,-14.73,-15.82,-13.99,-15.07,15.07,15.07,13.57,0.34,1.09,1.09
26.69,-14.59,-15.68,-14.08,-15.16,15.16,14.93,13.88,0.57,1.08,1.09
26.96,-14.44,-15.53,-14.16,-15.25,15.25,14.80,14.20,0.80,1.08,1.09
27.23,-14.25,-15.34,-14.24,-15.32,15.32,14.66,14.52,1.06,1.08,1.08
27.50,-14.05,-15.13,-14.27,-15.35,15.35,14.53,14.84,1.30,1.08,1.08
27.77,-13.85,-14.92,-14.25,-15.32,15.32,14.40,15.16,1.47,1.07,1.07
28.05,-13.69,-14.76,-14.13,-15.20,15.20,14.27,15.48,1.51,1.07,1.07
28.33,-13.69,-14.75,-13.95,-15.02,15.02,14.14,15.79,1.33,1.07,1.06
28.62,-13.68,-14.75,-13.77,-14.83,14.83,14.01,16.09,1.15,1.07,1.07
28.90,-13.68,-14.74,-13.60,-14.67,14.67,13.89,16.39,0.99,1.06,1.06
29.19,-13.64,-14.69,-13.49,-14.55,14.55,13.76,16.66,0.91,1.06,1.05
29.48,-13.57,-14.63,-13.39,-14.45,14.45,13.64,16.91,0.88,1.06,1.06
29.78,-13.50,-14.56,-13.30,-14.35,14.35,13.52,17.14,0.85,1.05,1.06
30.08,-13.38,-14.44,-13.20,-14.25,14.25,13.40,17.33,0.86,1.05,1.06
30.38,-13.12,-14.17,-13.10,-14.14,14.14,13.28,17.49,1.02,1.04,1.04
30.68,-12.86,-13.90,-13.00,-14.03,14.03,13.16,17.60,1.17,1.04,1.04
30.99,-12.59,-13.62,-12.89,-13.92,13.92,13.04,17.67,1.33,1.03,1.03
31.30,-12.61,-13.64,-12.78,-13.81,13.81,12.92,17.69,1.20,1.03,1.03
31.61,-12.64,-13.66,-12.66,-13.68,13.68,12.80,17.67,1.04,1.02,1.02
31.93,-12.67,-13.68,-12.55,-13.57,13.57,12.69,17.60,0.90,1.02,1.01
32.24,-12.54,-13.54,-12.44,-13.45,13.45,12.58,17.49,0.92,1.01,1.00
32.57,-12.35,-13.35,-12.34,-13.34,13.34,12.46,17.34,0.99,1.00,1.00
32.89,-12.16,-13.15,-12.24,-13.24,13.24,12.35,17.15,1.08,1.00,0.99
33.22,-12.08,-13.07,-12.14,-13.13,13.13,12.24,16.93,1.05,0.99,0.99
33.55,-12.04,-13.03,-12.05,-13.04,13.04,12.13,16.69,1.00,0.99,0.99
33.89,-12.01,-12.99,-11.97,-12.95,12.95,12.02,16.43,0.94,0.98,0.98
34.23,-11.93,-12.91,-11.88,-12.85,12.85,11.91,16.15,0.92,0.97,0.98
34.57,-11.82,-12.79,-11.77,-12.74,12.74,11.80,15.87,0.92,0.97,0.97
34.92,-11.72,-12.69,-11.65,-12.61,12.61,11.70,15.57,0.89,0.96,0.96
35.27,-11.55,-12.51,-11.52,-12.48,12.48,11.59,15.27,0.92,0.96,0.96
35.62,-11.37,-12.32,-11.39,-12.34,12.34,11.49,14.97,0.97,0.95,0.95
35.97,-11.19,-12.13,-11.26,-12.21,12.21,11.38,14.67,1.02,0.94,0.94
36.33,-11.09,-12.03,-11.13,-12.06,12.06,11.28,14.37,0.97,0.94,0.94
36.70,-10.99,-11.92,-10.98,-11.91,11.91,11.18,14.08,0.92,0.93,0.93
37.06,-10.88,-11.80,-10.82,-11.74,11.74,11.08,13.79,0.86,0.92,0.92
37.43,-10.70,-11.61,-10.66,-11.57,11.57,10.98,13.51,0.87,0.91,0.91
37.81,-10.53,-11.44,-10.50,-11.40,11.40,10.88,13.23,0.87,0.91,0.91
38.19,-10.35,-11.25,-10.34,-11.24,11.24,10.78,12.96,0.88,0.90,0.89
38.57,-10.18,-11.07,-10.18,-11.07,11.07,10.68,12.69,0.89,0.89,0.89
38.95,-10.00,-10.88,-10.03,-10.92,10.92,10.58,12.44,0.92,0.88,0.88
39.34,-9.83,-10.70,-9.89,-10.76,10.76,10.49,12.19,0.94,0.88,0.87
39.74,-9.65,-10.50,-9.74,-10.61,10.61,10.39,11.94,0.96,0.87,0.85
40.14,-9.51,-10.37,-9.59,-10.45,10.45,10.30,11.71,0.94,0.86,0.86
40.54,-9.43,-10.28,-9.44,-10.29,10.29,10.20,11.48,0.85,0.85,0.85
40.94,-9.35,-10.19,-9.29,-10.12,10.12,10.11,11.25,0.77,0.83,0.84
41.35,-9.20,-10.02,-9.14,-9.96,9.96,10.02,11.04,0.76,0.82,0.82
41.76,-9.03,-9.84,-9.01,-9.80,9.80,9.92,10.83,0.78,0.80,0.81
42.18,-8.89,-9.68,-8.87,-9.65,9.65,9.83,10.63,0.76,0.77,0.79
42.60,-8.77,-9.53,-8.73,-9.48,9.48,9.74,10.43,0.72,0.75,0.76
43.03,-8.65,-9.39,-8.59,-9.31,9.31,9.65,10.25,0.66,0.72,0.74
43.46,-8.45,-9.17,-8.45,-9.14,9.14,9.56,10.06,0.69,0.70,0.72
43.90,-8.26,-8.93,-8.30,-8.97,8.97,9.47,9.89,0.71,0.67,0.67
44.33,-8.13,-8.77,-8.15,-8.79,8.79,9.39,9.72,0.67,0.64,0.64
44.78,-8.03,-8.63,-8.00,-8.61,8.61,9.30,9.55,0.58,0.61,0.60
45.23,-7.91,-8.48,-7.85,-8.43,8.43,9.21,9.39,0.52,0.58,0.57
45.68,-7.78,-8.32,-7.71,-8.27,8.27,9.13,9.24,0.49,0.56,0.54
46.13,-7.64,-8.16,-7.59,-8.13,8.13,9.04,9.09,0.49,0.53,0.52
46.60,-7.45,-7.96,-7.49,-8.00,8.00,8.96,8.95,0.55,0.51,0.51
47.06,-7.29,-7.78,-7.40,-7.89,7.89,8.87,8.81,0.60,0.50,0.49
47.53,-7.27,-7.74,-7.33,-7.81,7.81,8.79,8.67,0.54,0.48,0.47
48.01,-7.25,-7.72,-7.29,-7.76,7.76,8.71,8.55,0.51,0.47,0.47
48.49,-7.16,-7.62,-7.27,-7.73,7.73,8.62,8.42,0.57,0.46,0.46
48.97,-7.07,-7.52,-7.26,-7.72,7.72,8.54,8.30,0.65,0.46,0.45
49.46,-7.17,-7.60,-7.26,-7.71,7.71,8.46,8.19,0.54,0.45,0.43
49.96,-7.28,-7.71,-7.27,-7.72,7.72,8.38,8.08,0.44,0.45,0.43
50.46,-7.31,-7.75,-7.30,-7.74,7.74,8.30,7.97,0.43,0.44,0.44
50.96,-7.34,-7.78,-7.33,-7.76,7.76,8.22,7.86,0.42,0.43,0.44
51.47,-7.43,-7.86,-7.36,-7.77,7.77,8.14,7.76,0.34,0.41,0.43
51.99,-7.52,-7.93,-7.37,-7.77,7.77,8.07,7.67,0.25,0.39,0.41
52.51,-7.52,-7.91,-7.37,-7.75,7.75,7.99,7.57,0.23,0.37,0.39
53.03,-7.51,-7.88,-7.36,-7.70,7.70,7.91,7.48,0.19,0.34,0.37
53.56,-7.39,-7.72,-7.34,-7.65,7.65,7.84,7.39,0.26,0.31,0.33
54.10,-7.29,-7.57,-7.32,-7.59,7.59,7.76,7.31,0.30,0.27,0.28
54.64,-7.29,-7.52,-7.27,-7.50,7.50,7.69,7.22,0.21,0.23,0.23
55.18,-7.25,-7.43,-7.21,-7.39,7.39,7.61,7.14,0.14,0.18,0.18
55.74,-7.13,-7.25,-7.14,-7.27,7.27,7.54,7.06,0.14,0.13,0.12
56.29,-7.00,-7.07,-7.08,-7.15,7.15,7.47,6.99,0.15,0.07,0.07
56.86,-6.87,-6.88,-7.01,-7.02,7.02,7.39,6.91,0.14,0.01,0.01
57.42,-6.84,-6.78,-6.93,-6.88,6.88,7.32,6.84,0.04,-0.05,-0.06
58.00,-6.84,-6.71,-6.86,-6.74,6.74,7.25,6.77,-0.10,-0.12,-0.13
58.58,-6.84,-6.65,-6.79,-6.61,6.61,7.18,6.69,-0.23,-0.19,-0.19
59.16,-6.80,-6.55,-6.73,-6.48,6.48,7.11,6.62,-0.32,-0.25,-0.24
59.76,-6.67,-6.36,-6.68,-6.36,6.36,7.04,6.55,-0.31,-0.32,-0.31
60.35,-6.62,-6.23,-6.63,-6.25,6.25,6.97,6.48,-0.37,-0.38,-0.39
60.96,-6.61,-6.17,-6.58,-6.13,6.13,6.90,6.41,-0.48,-0.45,-0.44
61.57,-6.61,-6.09,-6.54,-6.03,6.03,6.83,6.35,-0.58,-0.51,-0.52
62.18,-6.57,-5.98,-6.51,-5.94,5.94,6.76,6.28,-0.63,-0.57,-0.59
62.80,-6.42,-5.78,-6.48,-5.85,5.85,6.70,6.21,-0.57,-0.63,-0.64
63.43,-6.38,-5.68,-6.46,-5.77,5.77,6.63,6.14,-0.61,-0.69,-0.70
64.07,-6.38,-5.63,-6.43,-5.68,5.68,6.57,6.07,-0.70,-0.74,-0.75
64.71,-6.38,-5.58,-6.40,-5.61,5.61,6.50,6.01,-0.77,-0.80,-0.80
65.35,-6.38,-5.53,-6.39,-5.54,5.54,6.44,5.94,-0.84,-0.85,-0.85
66.01,-6.38,-5.48,-6.38,-5.48,5.48,6.37,5.87,-0.90,-0.89,-0.90
66.67,-6.38,-5.44,-6.37,-5.44,5.44,6.31,5.81,-0.94,-0.93,-0.94
67.33,-6.38,-5.40,-6.37,-5.39,5.39,6.24,5.74,-0.99,-0.97,-0.98
68.01,-6.38,-5.37,-6.36,-5.35,5.35,6.18,5.67,-1.03,-1.01,-1.01
68.69,-6.38,-5.33,-6.36,-5.31,5.31,6.12,5.61,-1.07,-1.05,-1.05
69.37,-6.38,-5.29,-6.37,-5.28,5.28,6.06,5.55,-1.10,-1.09,-1.09
70.07,-6.38,-5.25,-6.38,-5.25,5.25,6.00,5.48,-1.13,-1.12,-1.13
70.77,-6.38,-5.23,-6.38,-5.22,5.22,5.94,5.42,-1.16,-1.16,-1.15
71.48,-6.38,-5.19,-6.37,-5.17,5.17,5.88,5.36,-1.21,-1.20,-1.19
72.19,-6.38,-5.16,-6.36,-5.13,5.13,5.82,5.30,-1.25,-1.23,-1.22
72.91,-6.38,-5.12,-6.36,-5.09,5.09,5.76,5.24,-1.29,-1.27,-1.26
73.64,-6.38,-5.08,-6.36,-5.06,5.06,5.70,5.18,-1.32,-1.31,-1.30
74.38,-6.38,-5.05,-6.37,-5.02,5.02,5.65,5.13,-1.36,-1.34,-1.33
75.12,-6.38,-5.00,-6.37,-4.99,4.99,5.59,5.07,-1.39,-1.38,-1.38
75.87,-6.38,-4.96,-6.38,-4.97,4.97,5.53,5.02,-1.41,-1.41,-1.42
76.63,-6.38,-4.92,-6.40,-4.95,4.95,5.48,4.97,-1.43,-1.45,-1.46
77.40,-6.38,-4.90,-6.43,-4.94,4.94,5.42,4.92,-1.44,-1.48,-1.48
78.17,-6.38,-4.86,-6.46,-4.94,4.94,5.37,4.88,-1.44,-1.51,-1.52
78.95,-6.38,-4.84,-6.49,-4.95,4.95,5.32,4.83,-1.44,-1.54,-1.55
79.74,-6.55,-4.98,-6.52,-4.95,4.95,5.26,4.79,-1.60,-1.57,-1.57
80.54,-6.61,-5.01,-6.56,-4.97,4.97,5.21,4.75,-1.64,-1.59,-1.60
81.35,-6.61,-4.99,-6.61,-5.00,5.00,5.16,4.72,-1.61,-1.61,-1.62
82.16,-6.63,-4.99,-6.65,-5.02,5.02,5.11,4.68,-1.61,-1.63,-1.64
82.98,-6.71,-5.07,-6.69,-5.05,5.05,5.06,4.65,-1.66,-1.64,-1.64
83.81,-6.82,-5.16,-6.73,-5.07,5.07,5.01,4.62,-1.75,-1.66,-1.66
84.65,-6.84,-5.16,-6.78,-5.11,5.11,4.96,4.59,-1.73,-1.67,-1.68
85.50,-6.84,-5.16,-6.82,-5.14,5.14,4.91,4.57,-1.70,-1.68,-1.68
86.35,-6.84,-5.16,-6.85,-5.17,5.17,4.86,4.55,-1.67,-1.68,-1.68
87.22,-6.85,-5.16,-6.89,-5.19,5.19,4.81,4.53,-1.66,-1.69,-1.69
88.09,-6.91,-5.20,-6.92,-5.22,5.22,4.77,4.51,-1.69,-1.70,-1.71
88.97,-7.06,-5.36,-6.95,-5.25,5.25,4.72,4.50,-1.81,-1.71,-1.70
89.86,-6.91,-5.20,-6.98,-5.26,5.26,4.68,4.49,-1.65,-1.72,-1.71
90.76,-6.86,-5.13,-7.00,-5.27,5.27,4.63,4.48,-1.59,-1.73,-1.73
91.66,-7.00,-5.27,-7.03,-5.29,5.29,4.59,4.47,-1.72,-1.75,-1.73
92.58,-7.15,-5.38,-7.06,-5.30,5.30,4.55,4.47,-1.85,-1.76,-1.77
93.51,-7.15,-5.38,-7.09,-5.31,5.31,4.50,4.47,-1.84,-1.78,-1.77
94.44,-7.09,-5.29,-7.13,-5.33,5.33,4.46,4.47,-1.76,-1.80,-1.80
95.39,-7.16,-5.34,-7.17,-5.34,5.34,4.42,4.47,-1.82,-1.83,-1.82
96.34,-7.29,-5.42,-7.20,-5.35,5.35,4.38,4.48,-1.94,-1.86,-1.87
97.30,-7.29,-5.40,-7.25,-5.36,5.36,4.34,4.48,-1.93,-1.89,-1.89
98.28,-7.24,-5.31,-7.30,-5.37,5.37,4.31,4.49,-1.87,-1.92,-1.93
99.26,-7.16,-5.19,-7.35,-5.39,5.39,4.27,4.51,-1.77,-1.96,-1.97
100.25,-7.35,-5.35,-7.40,-5.40,5.40,4.23,4.52,-1.95,-2.01,-2.00
101.25,-7.52,-5.47,-7.43,-5.38,5.38,4.20,4.54,-2.14,-2.05,-2.05
102.27,-7.52,-5.42,-7.46,-5.35,5.35,4.16,4.56,-2.17,-2.10,-2.10
103.29,-7.52,-5.36,-7.50,-5.34,5.34,4.13,4.58,-2.18,-2.16,-2.16
104.32,-7.52,-5.32,-7.54,-5.32,5.32,4.10,4.60,-2.20,-2.22,-2.20
105.37,-7.58,-5.32,-7.57,-5.29,5.29,4.07,4.62,-2.29,-2.28,-2.26
106.42,-7.71,-5.38,-7.61,-5.26,5.26,4.03,4.64,-2.45,-2.35,-2.33
107.48,-7.75,-5.34,-7.65,-5.23,5.23,4.00,4.67,-2.52,-2.42,-2.41
108.56,-7.75,-5.25,-7.68,-5.19,5.19,3.98,4.69,-2.56,-2.49,-2.50
109.64,-7.60,-5.03,-7.72,-5.14,5.14,3.95,4.72,-2.46,-2.57,-2.57
110.74,-7.53,-4.88,-7.74,-5.08,5.08,3.92,4.75,-2.45,-2.66,-2.65
111.85,-7.73,-5.00,-7.76,-5.02,5.02,3.90,4.78,-2.71,-2.74,-2.73
112.97,-7.97,-5.14,-7.79,-4.97,4.97,3.87,4.80,-3.00,-2.82,-2.82
114.10,-7.93,-5.03,-7.85,-4.94,4.94,3.85,4.83,-2.99,-2.90,-2.90
115.24,-7.78,-4.79,-7.90,-4.92,4.92,3.83,4.86,-2.86,-2.98,-2.99
116.39,-7.92,-4.85,-7.96,-4.90,4.90,3.81,4.89,-3.02,-3.06,-3.07
117.55,-8.10,-4.95,-8.02,-4.89,4.89,3.79,4.91,-3.21,-3.13,-3.15
118.73,-8.03,-4.81,-8.09,-4.89,4.89,3.77,4.94,-3.14,-3.20,-3.22
119.92,-7.99,-4.71,-8.17,-4.90,4.90,3.75,4.97,-3.09,-3.26,-3.28
121.12,-8.21,-4.87,-8.26,-4.93,4.93,3.74,4.99,-3.27,-3.32,-3.34
122.33,-8.35,-4.95,-8.36,-4.98,4.98,3.73,5.01,-3.37,-3.38,-3.40
123.55,-8.53,-5.10,-8.45,-5.01,5.01,3.71,5.04,-3.52,-3.43,-3.43
124.79,-8.65,-5.17,-8.53,-5.05,5.05,3.70,5.06,-3.60,-3.48,-3.48
126.03,-8.66,-5.14,-8.61,-5.09,5.09,3.70,5.08,-3.57,-3.53,-3.52
127.29,-8.66,-5.10,-8.71,-5.13,5.13,3.69,5.10,-3.53,-3.57,-3.56
128.57,-8.71,-5.10,-8.79,-5.17,5.17,3.68,5.12,-3.54,-3.61,-3.61
129.85,-8.87,-5.22,-8.84,-5.19,5.19,3.68,5.14,-3.68,-3.66,-3.65
131.15,-8.94,-5.25,-8.89,-5.20,5.20,3.68,5.15,-3.74,-3.70,-3.69
132.46,-9.07,-5.33,-8.95,-5.22,5.22,3.68,5.17,-3.85,-3.74,-3.74
133.79,-9.12,-5.35,-9.01,-5.23,5.23,3.68,5.19,-3.89,-3.78,-3.77
135.12,-9.12,-5.29,-9.06,-5.23,5.23,3.69,5.20,-3.89,-3.82,-3.83
136.48,-9.12,-5.26,-9.11,-5.24,5.24,3.70,5.22,-3.88,-3.87,-3.86
137.84,-9.12,-5.21,-9.16,-5.25,5.25,3.71,5.23,-3.87,-3.91,-3.91
139.22,-9.12,-5.15,-9.23,-5.27,5.27,3.72,5.25,-3.85,-3.95,-3.97
140.61,-9.12,-5.10,-9.30,-5.30,5.30,3.73,5.27,-3.82,-4.00,-4.02
142.02,-9.23,-5.18,-9.37,-5.32,5.32,3.75,5.29,-3.91,-4.05,-4.05
143.44,-9.33,-5.23,-9.44,-5.34,5.34,3.77,5.31,-3.99,-4.11,-4.10
144.87,-9.53,-5.38,-9.50,-5.34,5.34,3.80,5.33,-4.19,-4.17,-4.15
146.32,-9.72,-5.51,-9.57,-5.34,5.34,3.83,5.35,-4.38,-4.23,-4.21
147.78,-9.80,-5.54,-9.64,-5.35,5.35,3.86,5.37,-4.45,-4.30,-4.26
149.26,-9.80,-5.46,-9.73,-5.36,5.36,3.89,5.40,-4.44,-4.37,-4.34
150.75,-9.90,-5.48,-9.83,-5.39,5.39,3.93,5.43,-4.51,-4.44,-4.42
152.26,-9.99,-5.49,-9.95,-5.43,5.43,3.97,5.46,-4.56,-4.52,-4.50
153.78,-10.03,-5.45,-10.07,-5.47,5.47,4.02,5.49,-4.56,-4.60,-4.58
155.32,-10.08,-5.40,-10.19,-5.51,5.51,4.07,5.53,-4.57,-4.68,-4.68
156.88,-10.24,-5.48,-10.30,-5.54,5.54,4.12,5.57,-4.70,-4.75,-4.76
158.44,-10.26,-5.42,-10.40,-5.57,5.57,4.18,5.61,-4.69,-4.83,-4.84
160.03,-10.32,-5.40,-10.50,-5.60,5.60,4.25,5.66,-4.72,-4.90,-4.92
161.63,-10.58,-5.59,-10.60,-5.64,5.64,4.32,5.71,-4.94,-4.97,-4.99
163.24,-10.83,-5.78,-10.71,-5.68,5.68,4.40,5.76,-5.15,-5.03,-5.05
164.88,-10.94,-5.84,-10.82,-5.74,5.74,4.48,5.82,-5.20,-5.08,-5.10
166.53,-11.12,-5.98,-10.94,-5.82,5.82,4.57,5.88,-5.30,-5.12,-5.14
168.19,-11.17,-5.99,-11.04,-5.89,5.89,4.66,5.95,-5.28,-5.15,-5.18
169.87,-11.17,-5.97,-11.14,-5.96,5.96,4.77,6.02,-5.21,-5.18,-5.20
171.57,-11.17,-5.96,-11.25,-6.05,6.05,4.88,6.09,-5.12,-5.19,-5.21
173.29,-11.31,-6.09,-11.35,-6.14,6.14,5.00,6.17,-5.17,-5.21,-5.22
175.02,-11.40,-6.19,-11.45,-6.23,6.23,5.12,6.25,-5.17,-5.22,-5.21
176.77,-11.59,-6.37,-11.56,-6.34,6.34,5.26,6.34,-5.25,-5.22,-5.22
178.54,-11.62,-6.40,-11.66,-6.43,6.43,5.40,6.43,-5.19,-5.23,-5.22
180.32,-11.70,-6.49,-11.75,-6.52,6.52,5.55,6.52,-5.18,-5.23,-5.21
182.13,-11.80,-6.59,-11.85,-6.61,6.61,5.72,6.62,-5.19,-5.24,-5.21
183.95,-11.94,-6.72,-11.96,-6.71,6.71,5.89,6.73,-5.23,-5.25,-5.22
185.79,-12.07,-6.83,-12.08,-6.82,6.82,6.07,6.84,-5.25,-5.26,-5.24
187.65,-12.24,-6.98,-12.22,-6.95,6.95,6.27,6.95,-5.29,-5.27,-5.26
189.52,-12.48,-7.19,-12.37,-7.08,7.08,6.48,7.07,-5.40,-5.28,-5.29
191.42,-12.59,-7.28,-12.53,-7.23,7.23,6.69,7.19,-5.36,-5.30,-5.31
193.33,-12.71,-7.38,-12.70,-7.38,7.38,6.92,7.32,-5.33,-5.32,-5.33
195.27,-12.87,-7.52,-12.87,-7.52,7.52,7.16,7.45,-5.35,-5.35,-5.35
197.22,-12.97,-7.60,-13.05,-7.68,7.68,7.41,7.58,-5.29,-5.37,-5.37
199.19,-13.13,-7.72,-13.26,-7.87,7.87,7.67,7.72,-5.26,-5.39,-5.41
201.18,-13.38,-7.96,-13.48,-8.06,8.06,7.94,7.86,-5.32,-5.42,-5.42
203.19,-13.65,-8.21,-13.71,-8.27,8.27,8.21,8.00,-5.38,-5.44,-5.44
205.23,-13.91,-8.44,-13.93,-8.47,8.47,8.49,8.15,-5.44,-5.46,-5.47
207.28,-14.17,-8.69,-14.17,-8.69,8.69,8.77,8.30,-5.48,-5.48,-5.48
209.35,-14.43,-8.93,-14.41,-8.91,8.91,9.04,8.45,-5.52,-5.50,-5.50
211.44,-14.69,-9.16,-14.66,-9.14,9.14,9.31,8.60,-5.55,-5.52,-5.53
213.56,-14.80,-9.26,-14.93,-9.39,9.39,9.56,8.75,-5.41,-5.54,-5.54
215.69,-15.00,-9.46,-15.18,-9.63,9.63,9.80,8.90,-5.37,-5.55,-5.54
217.85,-15.47,-9.90,-15.42,-9.85,9.85,10.00,9.05,-5.62,-5.57,-5.57
220.03,-15.66,-10.08,-15.64,-10.05,10.05,10.17,9.19,-5.61,-5.58,-5.58
222.23,-15.73,-10.12,-15.80,-10.20,10.20,10.29,9.33,-5.53,-5.60,-5.61
224.45,-15.83,-10.22,-15.89,-10.28,10.28,10.37,9.46,-5.55,-5.61,-5.61
226.70,-15.94,-10.32,-15.91,-10.29,10.29,10.39,9.58,-5.65,-5.62,-5.62
228.96,-16.11,-10.48,-15.86,-10.23,10.23,10.35,9.70,-5.88,-5.63,-5.63
231.25,-16.15,-10.52,-15.73,-10.10,10.10,10.26,9.80,-6.05,-5.64,-5.63
233.57,-16.06,-10.42,-15.55,-9.90,9.90,10.11,9.89,-6.16,-5.64,-5.64
235.90,-15.79,-10.13,-15.32,-9.67,9.67,9.92,9.97,-6.12,-5.65,-5.66
238.26,-15.41,-9.75,-15.07,-9.42,9.42,9.68,10.03,-5.99,-5.65,-5.66
240.64,-15.02,-9.36,-14.79,-9.14,9.14,9.41,10.07,-5.88,-5.65,-5.66
243.05,-14.47,-8.82,-14.51,-8.85,8.85,9.11,10.09,-5.62,-5.65,-5.65
245.48,-13.92,-8.27,-14.24,-8.60,8.60,8.80,10.09,-5.32,-5.65,-5.65
247.93,-13.49,-7.85,-14.01,-8.37,8.37,8.47,10.06,-5.12,-5.65,-5.64
250.41,-13.22,-7.57,-13.82,-8.17,8.17,8.14,10.02,-5.05,-5.64,-5.65
252.92,-13.00,-7.36,-13.66,-8.02,8.02,7.81,9.95,-4.98,-5.64,-5.64
255.45,-13.10,-7.48,-13.55,-7.92,7.92,7.47,9.86,-5.18,-5.63,-5.62
258.00,-13.33,-7.72,-13.51,-7.89,7.89,7.15,9.75,-5.44,-5.62,-5.61
260.58,-13.59,-7.98,-13.54,-7.92,7.92,6.83,9.62,-5.67,-5.61,-5.61
263.19,-13.68,-8.08,-13.61,-8.01,8.01,6.51,9.46,-5.67,-5.60,-5.60
265.82,-13.88,-8.28,-13.72,-8.13,8.13,6.21,9.29,-5.75,-5.59,-5.60
268.48,-13.96,-8.39,-13.85,-8.28,8.28,5.92,9.10,-5.68,-5.57,-5.57
271.16,-14.18,-8.62,-13.99,-8.44,8.44,5.63,8.90,-5.74,-5.56,-5.56
273.87,-14.35,-8.80,-14.12,-8.58,8.58,5.36,8.69,-5.77,-5.54,-5.55
276.61,-14.36,-8.84,-14.21,-8.69,8.69,5.10,8.46,-5.67,-5.52,-5.52
279.38,-14.36,-8.86,-14.26,-8.76,8.76,4.85,8.22,-5.60,-5.50,-5.50
282.17,-14.36,-8.88,-14.26,-8.79,8.79,4.61,7.97,-5.57,-5.47,-5.48
284.99,-14.31,-8.86,-14.21,-8.76,8.76,4.38,7.72,-5.55,-5.45,-5.45
287.84,-14.10,-8.67,-14.11,-8.69,8.69,4.16,7.46,-5.41,-5.42,-5.43
290.72,-13.92,-8.53,-13.96,-8.57,8.57,3.94,7.20,-5.35,-5.40,-5.39
293.63,-13.79,-8.42,-13.78,-8.41,8.41,3.74,6.93,-5.38,-5.37,-5.37
296.57,-13.55,-8.21,-13.56,-8.21,8.21,3.54,6.66,-5.34,-5.35,-5.34
299.53,-13.29,-7.97,-13.31,-7.99,7.99,3.35,6.39,-5.30,-5.32,-5.32
302.53,-13.02,-7.72,-13.03,-7.73,7.73,3.17,6.12,-5.29,-5.30,-5.30
305.55,-12.77,-7.50,-12.72,-7.44,7.44,3.00,5.85,-5.33,-5.28,-5.27
308.61,-12.47,-7.22,-12.38,-7.12,7.12,2.83,5.57,-5.35,-5.27,-5.25
311.69,-12.09,-6.85,-12.03,-6.78,6.78,2.66,5.30,-5.31,-5.25,-5.24
314.81,-11.63,-6.42,-11.65,-6.42,6.42,2.51,5.03,-5.21,-5.24,-5.21
317.96,-11.19,-5.98,-11.28,-6.05,6.05,2.35,4.76,-5.14,-5.23,-5.21
321.14,-10.80,-5.58,-10.89,-5.68,5.68,2.20,4.49,-5.12,-5.22,-5.22
324.35,-10.50,-5.29,-10.50,-5.29,5.29,2.06,4.22,-5.21,-5.21,-5.21
327.59,-10.13,-4.92,-10.09,-4.89,4.89,1.91,3.96,-5.24,-5.20,-5.21
330.87,-9.68,-4.48,-9.67,-4.48,4.48,1.77,3.69,-5.20,-5.19,-5.20
334.18,-9.19,-4.00,-9.24,-4.06,4.06,1.64,3.43,-5.13,-5.18,-5.19
337.52,-8.72,-3.53,-8.81,-3.65,3.65,1.50,3.17,-5.07,-5.17,-5.18
340.90,-8.33,-3.17,-8.39,-3.23,3.23,1.37,2.91,-5.10,-5.16,-5.16
344.30,-8.02,-2.87,-7.96,-2.82,2.82,1.24,2.65,-5.20,-5.14,-5.15
347.75,-7.65,-2.52,-7.54,-2.42,2.42,1.10,2.39,-5.23,-5.13,-5.13
351.23,-7.24,-2.13,-7.12,-2.02,2.02,0.97,2.13,-5.22,-5.11,-5.11
354.74,-6.73,-1.64,-6.70,-1.62,1.62,0.84,1.88,-5.11,-5.08,-5.09
358.28,-6.26,-1.20,-6.28,-1.22,1.22,0.70,1.62,-5.04,-5.06,-5.06
361.87,-5.78,-0.74,-5.87,-0.83,0.83,0.56,1.37,-4.95,-5.04,-5.04
365.49,-5.43,-0.41,-5.47,-0.45,0.45,0.42,1.12,-4.98,-5.02,-5.02
369.14,-5.07,-0.07,-5.09,-0.09,0.09,0.28,0.87,-4.98,-5.00,-5.00
372.83,-4.70,0.27,-4.71,0.26,-0.26,0.13,0.62,-4.96,-4.97,-4.97
376.56,-4.36,0.59,-4.34,0.61,-0.61,-0.03,0.37,-4.97,-4.95,-4.95
380.33,-3.95,0.97,-3.98,0.96,-0.96,-0.19,0.12,-4.91,-4.94,-4.92
384.13,-3.60,1.31,-3.63,1.28,-1.28,-0.37,-0.13,-4.88,-4.92,-4.91
387.97,-3.30,1.60,-3.32,1.58,-1.58,-0.55,-0.37,-4.88,-4.90,-4.90
391.85,-3.03,1.86,-3.04,1.85,-1.85,-0.75,-0.62,-4.88,-4.89,-4.89
395.77,-2.76,2.12,-2.77,2.11,-2.11,-0.96,-0.86,-4.87,-4.88,-4.88
399.73,-2.50,2.37,-2.50,2.36,-2.36,-1.19,-1.10,-4.86,-4.87,-4.87
403.72,-2.24,2.62,-2.25,2.61,-2.61,-1.44,-1.34,-4.85,-4.86,-4.86
407.76,-1.98,2.88,-2.01,2.85,-2.85,-1.71,-1.58,-4.83,-4.86,-4.85
411.84,-1.72,3.13,-1.78,3.07,-3.07,-2.01,-1.82,-4.79,-4.85,-4.85
415.96,-1.61,3.23,-1.58,3.27,-3.27,-2.33,-2.05,-4.88,-4.85,-4.84
420.12,-1.42,3.42,-1.39,3.46,-3.46,-2.68,-2.29,-4.88,-4.84,-4.84
