frequency,raw,error,smoothed,error_smoothed,equalization,parametric_eq,fixed_band_eq,equalized_raw,equalized_smoothed,target
20.00,-19.46,-19.10,-19.54,-19.18,17.97,16.24,5.63,-1.49,-1.57,-0.36
20.20,-18.93,-18.61,-18.88,-18.56,17.75,16.18,5.77,-1.18,-1.13,-0.32
20.40,-18.38,-18.10,-18.30,-18.02,17.56,16.12,5.91,-0.83,-0.74,-0.28
20.61,-17.87,-17.61,-17.80,-17.55,17.39,16.06,6.06,-0.48,-0.42,-0.26
20.81,-17.32,-17.10,-17.31,-17.10,17.23,16.00,6.21,-0.08,-0.08,-0.21
21.02,-16.85,-16.67,-17.00,-16.82,17.11,15.94,6.36,0.26,0.10,-0.18
21.23,-16.93,-16.76,-16.90,-16.74,17.00,15.88,6.52,0.07,0.10,-0.17
21.44,-17.01,-16.87,-16.97,-16.83,16.92,15.81,6.68,-0.09,-0.05,-0.15
21.66,-17.10,-16.97,-17.11,-16.98,16.93,15.75,6.84,-0.17,-0.18,-0.13
21.87,-17.18,-17.07,-17.16,-17.05,16.96,15.68,7.02,-0.22,-0.20,-0.12
22.09,-17.19,-17.08,-17.17,-17.06,17.00,15.61,7.19,-0.19,-0.17,-0.11
22.31,-17.10,-16.99,-17.11,-17.01,16.99,15.55,7.37,-0.10,-0.12,-0.11
22.54,-17.01,-16.92,-17.05,-16.96,16.93,15.48,7.55,-0.08,-0.12,-0.10
22.76,-16.92,-16.83,-16.94,-16.85,16.78,15.41,7.75,-0.14,-0.15,-0.09
22.99,-16.82,-16.73,-16.72,-16.63,16.54,15.34,7.94,-0.28,-0.17,-0.09
23.22,-16.35,-16.28,-16.37,-16.29,16.20,15.27,8.14,-0.16,-0.17,-0.08
23.45,-15.87,-15.80,-15.91,-15.84,15.75,15.20,8.34,-0.12,-0.16,-0.07
23.69,-15.39,-15.33,-15.39,-15.33,15.23,15.12,8.55,-0.16,-0.16,-0.06
23.92,-14.88,-14.84,-14.87,-14.82,14.68,15.05,8.77,-0.20,-0.18,-0.05
24.16,-14.32,-14.29,-14.32,-14.28,14.16,14.98,8.99,-0.16,-0.16,-0.04
24.40,-13.72,-13.70,-13.67,-13.63,13.71,14.90,9.21,-0.01,0.04,-0.03
24.65,-13.15,-13.11,-13.05,-13.02,13.35,14.83,9.44,0.21,0.30,-0.04
24.89,-12.54,-12.51,-12.73,-12.70,13.12,14.75,9.68,0.58,0.39,-0.04
25.14,-12.69,-12.65,-12.81,-12.77,13.03,14.67,9.92,0.34,0.22,-0.04
25.39,-13.37,-13.34,-13.31,-13.28,13.09,14.59,10.16,-0.29,-0.23,-0.04
25.65,-14.03,-13.99,-14.03,-13.99,13.25,14.51,10.42,-0.78,-0.79,-0.04
25.91,-14.70,-14.64,-14.57,-14.53,13.48,14.43,10.67,-1.22,-1.09,-0.05
26.16,-14.87,-14.82,-14.80,-14.76,13.73,14.35,10.93,-1.14,-1.07,-0.05
26.43,-14.73,-14.69,-14.80,-14.75,13.95,14.26,11.18,-0.78,-0.85,-0.05
26.69,-14.59,-14.54,-14.62,-14.58,14.08,14.18,11.45,-0.51,-0.54,-0.05
26.96,-14.44,-14.40,-14.43,-14.39,14.13,14.10,11.71,-0.31,-0.30,-0.05
27.23,-14.25,-14.21,-14.25,-14.20,14.11,14.01,11.97,-0.14,-0.14,-0.05
27.50,-14.05,-14.01,-14.04,-13.99,14.05,13.92,12.23,-0.01,0.01,-0.05
27.77,-13.85,-13.79,-13.86,-13.80,13.96,13.83,12.49,0.11,0.10,-0.06
28.05,-13.69,-13.63,-13.73,-13.67,13.85,13.74,12.74,0.16,0.12,-0.06
28.33,-13.69,-13.61,-13.68,-13.61,13.75,13.65,12.99,0.06,0.07,-0.08
28.62,-13.68,-13.61,-13.67,-13.60,13.65,13.56,13.22,-0.03,-0.02,-0.07
28.90,-13.68,-13.61,-13.67,-13.60,13.58,13.47,13.44,-0.10,-0.09,-0.07
29.19,-13.64,-13.56,-13.64,-13.57,13.51,13.37,13.66,-0.13,-0.13,-0.08
29.48,-13.57,-13.50,-13.59,-13.52,13.41,13.28,13.84,-0.16,-0.18,-0.07
29.78,-13.50,-13.44,-13.50,-13.43,13.30,13.18,14.01,-0.20,-0.20,-0.07
30.08,-13.38,-13.32,-13.34,-13.27,13.17,13.09,14.15,-0.21,-0.17,-0.07
30.38,-13.12,-13.04,-13.11,-13.03,13.04,12.99,14.27,-0.08,-0.07,-0.09
30.68,-12.86,-12.78,-12.86,-12.77,12.90,12.89,14.35,0.04,0.04,-0.09
30.99,-12.59,-12.50,-12.67,-12.58,12.76,12.79,14.41,0.17,0.09,-0.10
31.30,-12.61,-12.51,-12.62,-12.52,12.62,12.68,14.42,0.01,0.01,-0.10
31.61,-12.64,-12.54,-12.62,-12.52,12.49,12.58,14.42,-0.15,-0.13,-0.10
31.93,-12.67,-12.55,-12.63,-12.51,12.38,12.48,14.37,-0.29,-0.25,-0.11
32.24,-12.54,-12.41,-12.52,-12.40,12.29,12.37,14.31,-0.25,-0.23,-0.13
32.57,-12.35,-12.23,-12.36,-12.23,12.21,12.26,14.20,-0.14,-0.15,-0.13
32.89,-12.16,-12.03,-12.19,-12.07,12.14,12.15,14.08,-0.02,-0.05,-0.13
33.22,-12.08,-11.95,-12.09,-11.96,12.06,12.04,13.92,-0.02,-0.03,-0.13
33.55,-12.04,-11.90,-12.04,-11.90,11.96,11.93,13.76,-0.08,-0.08,-0.14
33.89,-12.01,-11.87,-11.99,-11.86,11.85,11.82,13.56,-0.17,-0.15,-0.14
34.23,-11.93,-11.80,-11.93,-11.79,11.73,11.71,13.36,-0.20,-0.20,-0.14
34.57,-11.82,-11.67,-11.83,-11.69,11.62,11.59,13.14,-0.20,-0.22,-0.15
34.92,-11.72,-11.57,-11.70,-11.55,11.51,11.48,12.92,-0.22,-0.20,-0.16
35.27,-11.55,-11.40,-11.54,-11.38,11.39,11.36,12.69,-0.17,-0.16,-0.16
35.62,-11.37,-11.21,-11.37,-11.21,11.25,11.24,12.46,-0.12,-0.12,-0.17
35.97,-11.19,-11.01,-11.21,-11.05,11.10,11.12,12.22,-0.09,-0.11,-0.18
36.33,-11.09,-10.91,-11.09,-10.92,10.95,11.00,11.98,-0.14,-0.14,-0.18
36.70,-10.99,-10.82,-10.98,-10.80,10.79,10.88,11.74,-0.20,-0.19,-0.18
37.06,-10.88,-10.68,-10.86,-10.67,10.63,10.76,11.51,-0.24,-0.23,-0.20
37.43,-10.70,-10.50,-10.71,-10.51,10.47,10.63,11.27,-0.23,-0.24,-0.20
37.81,-10.53,-10.33,-10.53,-10.33,10.30,10.51,11.04,-0.23,-0.23,-0.21
38.19,-10.35,-10.14,-10.35,-10.14,10.13,10.38,10.82,-0.22,-0.22,-0.22
38.57,-10.18,-9.97,-10.18,-9.96,9.96,10.25,10.60,-0.22,-0.22,-0.22
38.95,-10.00,-9.77,-10.00,-9.77,9.79,10.12,10.38,-0.21,-0.21,-0.23
39.34,-9.83,-9.59,-9.82,-9.58,9.62,9.99,10.17,-0.21,-0.20,-0.24
39.74,-9.65,-9.40,-9.66,-9.41,9.46,9.86,9.96,-0.19,-0.20,-0.26
40.14,-9.51,-9.27,-9.53,-9.28,9.31,9.73,9.76,-0.20,-0.22,-0.25
40.54,-9.43,-9.18,-9.43,-9.18,9.17,9.60,9.57,-0.26,-0.26,-0.26
40.94,-9.35,-9.09,-9.32,-9.06,9.03,9.47,9.38,-0.32,-0.29,-0.26
41.35,-9.20,-8.92,-9.19,-8.92,8.89,9.33,9.20,-0.31,-0.30,-0.28
41.76,-9.03,-8.73,-9.04,-8.75,8.74,9.20,9.02,-0.29,-0.30,-0.30
42.18,-8.89,-8.58,-8.90,-8.59,8.59,9.06,8.85,-0.30,-0.32,-0.31
42.60,-8.77,-8.43,-8.77,-8.44,8.42,8.92,8.68,-0.35,-0.35,-0.34
43.03,-8.65,-8.30,-8.62,-8.27,8.25,8.79,8.52,-0.40,-0.37,-0.35
43.46,-8.45,-8.07,-8.45,-8.07,8.07,8.65,8.37,-0.38,-0.38,-0.38
43.90,-8.26,-7.84,-8.29,-7.87,7.89,8.51,8.22,-0.37,-0.39,-0.42
44.33,-8.13,-7.67,-8.14,-7.68,7.71,8.37,8.08,-0.42,-0.42,-0.46
44.78,-8.03,-7.55,-8.02,-7.53,7.53,8.24,7.94,-0.50,-0.49,-0.49
45.23,-7.91,-7.40,-7.91,-7.39,7.36,8.10,7.81,-0.55,-0.55,-0.51
45.68,-7.78,-7.24,-7.78,-7.24,7.19,7.96,7.68,-0.59,-0.59,-0.55
46.13,-7.64,-7.07,-7.61,-7.05,7.04,7.82,7.56,-0.60,-0.57,-0.57
46.60,-7.45,-6.88,-7.46,-6.87,6.90,7.69,7.44,-0.55,-0.56,-0.58
47.06,-7.29,-6.69,-7.34,-6.75,6.78,7.55,7.33,-0.51,-0.56,-0.60
47.53,-7.27,-6.67,-7.26,-6.67,6.68,7.41,7.22,-0.59,-0.59,-0.60
48.01,-7.25,-6.65,-7.20,-6.60,6.60,7.28,7.11,-0.65,-0.59,-0.60
48.49,-7.16,-6.55,-7.15,-6.54,6.56,7.15,7.01,-0.60,-0.59,-0.62
48.97,-7.07,-6.45,-7.14,-6.51,6.56,7.01,6.92,-0.52,-0.58,-0.63
49.46,-7.17,-6.54,-7.17,-6.53,6.58,6.88,6.83,-0.59,-0.58,-0.64
49.96,-7.28,-6.64,-7.23,-6.60,6.63,6.75,6.74,-0.65,-0.60,-0.64
50.46,-7.31,-6.68,-7.31,-6.69,6.69,6.63,6.66,-0.62,-0.62,-0.63
50.96,-7.34,-6.72,-7.37,-6.75,6.74,6.50,6.58,-0.60,-0.64,-0.62
51.47,-7.43,-6.80,-7.43,-6.81,6.78,6.38,6.50,-0.65,-0.66,-0.63
51.99,-7.52,-6.87,-7.50,-6.86,6.80,6.26,6.43,-0.72,-0.70,-0.65
52.51,-7.52,-6.86,-7.52,-6.86,6.80,6.14,6.36,-0.72,-0.73,-0.66
53.03,-7.51,-6.82,-7.48,-6.79,6.77,6.03,6.29,-0.74,-0.71,-0.69
53.56,-7.39,-6.67,-7.40,-6.69,6.70,5.92,6.22,-0.69,-0.70,-0.72
54.10,-7.29,-6.54,-7.34,-6.58,6.60,5.81,6.16,-0.69,-0.74,-0.76
54.64,-7.29,-6.48,-7.28,-6.47,6.47,5.71,6.10,-0.82,-0.80,-0.81
55.18,-7.25,-6.39,-7.22,-6.37,6.34,5.61,6.04,-0.91,-0.88,-0.86
55.74,-7.13,-6.23,-7.13,-6.22,6.20,5.51,5.98,-0.93,-0.92,-0.90
56.29,-7.00,-6.04,-7.00,-6.04,6.07,5.42,5.93,-0.93,-0.93,-0.96
56.86,-6.87,-5.86,-6.90,-5.88,5.94,5.33,5.87,-0.93,-0.96,-1.01
57.42,-6.84,-5.75,-6.85,-5.77,5.82,5.24,5.82,-1.02,-1.03,-1.09
58.00,-6.84,-5.69,-6.84,-5.70,5.70,5.16,5.76,-1.14,-1.14,-1.15
58.58,-6.84,-5.63,-6.82,-5.62,5.59,5.09,5.71,-1.25,-1.24,-1.21
59.16,-6.80,-5.54,-6.77,-5.51,5.48,5.01,5.66,-1.32,-1.29,-1.26
59.76,-6.67,-5.36,-6.70,-5.38,5.38,4.95,5.61,-1.29,-1.32,-1.31
60.35,-6.62,-5.23,-6.64,-5.26,5.27,4.88,5.55,-1.35,-1.37,-1.39
60.96,-6.61,-5.18,-6.62,-5.17,5.16,4.82,5.50,-1.45,-1.45,-1.44
61.57,-6.61,-5.11,-6.59,-5.08,5.05,4.77,5.45,-1.56,-1.53,-1.50
62.18,-6.57,-4.99,-6.53,-4.96,4.95,4.72,5.40,-1.62,-1.58,-1.58
62.80,-6.42,-4.80,-6.46,-4.84,4.85,4.67,5.34,-1.57,-1.61,-1.62
63.43,-6.38,-4.70,-6.40,-4.73,4.76,4.63,5.29,-1.62,-1.64,-1.68
64.07,-6.38,-4.66,-6.37,-4.65,4.69,4.59,5.24,-1.69,-1.68,-1.72
64.71,-6.38,-4.61,-6.38,-4.61,4.62,4.56,5.18,-1.76,-1.75,-1.77
65.35,-6.38,-4.56,-6.38,-4.57,4.57,4.53,5.13,-1.81,-1.81,-1.82
66.01,-6.38,-4.53,-6.38,-4.53,4.52,4.50,5.08,-1.86,-1.86,-1.85
66.67,-6.38,-4.49,-6.38,-4.50,4.48,4.48,5.02,-1.90,-1.90,-1.89
67.33,-6.38,-4.46,-6.38,-4.47,4.46,4.46,4.97,-1.92,-1.92,-1.92
68.01,-6.38,-4.43,-6.38,-4.43,4.43,4.44,4.91,-1.95,-1.95,-1.95
68.69,-6.38,-4.40,-6.38,-4.40,4.40,4.43,4.86,-1.98,-1.98,-1.98
69.37,-6.38,-4.36,-6.38,-4.37,4.37,4.42,4.80,-2.01,-2.01,-2.02
70.07,-6.38,-4.33,-6.38,-4.34,4.34,4.41,4.75,-2.04,-2.04,-2.05
70.77,-6.38,-4.32,-6.38,-4.32,4.31,4.40,4.70,-2.07,-2.07,-2.06
71.48,-6.38,-4.28,-6.38,-4.29,4.29,4.40,4.64,-2.09,-2.09,-2.10
72.19,-6.38,-4.26,-6.38,-4.26,4.26,4.40,4.59,-2.12,-2.12,-2.12
72.91,-6.38,-4.22,-6.38,-4.23,4.23,4.40,4.54,-2.15,-2.15,-2.16
73.64,-6.38,-4.19,-6.38,-4.20,4.19,4.40,4.49,-2.19,-2.19,-2.19
74.38,-6.38,-4.16,-6.38,-4.16,4.15,4.40,4.45,-2.23,-2.23,-2.22
75.12,-6.38,-4.13,-6.38,-4.13,4.12,4.40,4.40,-2.26,-2.26,-2.25
75.87,-6.38,-4.10,-6.38,-4.10,4.09,4.41,4.35,-2.29,-2.29,-2.28
76.63,-6.38,-4.07,-6.38,-4.07,4.07,4.41,4.31,-2.31,-2.31,-2.31
77.40,-6.38,-4.04,-6.36,-4.03,4.06,4.42,4.27,-2.32,-2.30,-2.34
78.17,-6.38,-4.01,-6.38,-4.02,4.07,4.43,4.23,-2.31,-2.32,-2.37
78.95,-6.38,-4.01,-6.44,-4.06,4.08,4.44,4.19,-2.30,-2.36,-2.38
79.74,-6.55,-4.15,-6.51,-4.11,4.11,4.45,4.16,-2.44,-2.41,-2.40
80.54,-6.61,-4.19,-6.58,-4.16,4.14,4.45,4.12,-2.47,-2.43,-2.42
81.35,-6.61,-4.17,-6.62,-4.19,4.19,4.46,4.09,-2.42,-2.44,-2.44
82.16,-6.63,-4.19,-6.66,-4.22,4.23,4.47,4.06,-2.40,-2.43,-2.44
82.98,-6.71,-4.28,-6.72,-4.28,4.28,4.48,4.04,-2.43,-2.44,-2.44
83.81,-6.82,-4.37,-6.79,-4.34,4.32,4.49,4.01,-2.50,-2.47,-2.45
84.65,-6.84,-4.38,-6.83,-4.39,4.36,4.50,3.99,-2.48,-2.47,-2.46
85.50,-6.84,-4.39,-6.84,-4.40,4.39,4.51,3.97,-2.45,-2.45,-2.45
86.35,-6.84,-4.39,-6.83,-4.39,4.42,4.52,3.96,-2.42,-2.41,-2.45
87.22,-6.85,-4.40,-6.89,-4.44,4.44,4.53,3.94,-2.41,-2.44,-2.45
88.09,-6.91,-4.46,-6.94,-4.50,4.47,4.54,3.93,-2.44,-2.47,-2.45
88.97,-7.06,-4.63,-6.94,-4.51,4.50,4.55,3.92,-2.56,-2.45,-2.43
89.86,-6.91,-4.49,-6.93,-4.50,4.52,4.56,3.91,-2.39,-2.41,-2.43
90.76,-6.86,-4.41,-6.95,-4.52,4.55,4.57,3.91,-2.31,-2.40,-2.45
91.66,-7.00,-4.57,-7.00,-4.55,4.59,4.58,3.91,-2.41,-2.41,-2.44
92.58,-7.15,-4.68,-7.08,-4.62,4.62,4.59,3.91,-2.53,-2.46,-2.47
93.51,-7.15,-4.69,-7.13,-4.67,4.64,4.60,3.91,-2.51,-2.49,-2.46
94.44,-7.09,-4.61,-7.15,-4.68,4.65,4.60,3.91,-2.44,-2.50,-2.48
95.39,-7.16,-4.67,-7.19,-4.70,4.67,4.61,3.92,-2.49,-2.52,-2.49
96.34,-7.29,-4.76,-7.24,-4.72,4.69,4.62,3.93,-2.60,-2.55,-2.53
97.30,-7.29,-4.74,-7.25,-4.71,4.71,4.63,3.94,-2.58,-2.54,-2.55
98.28,-7.24,-4.67,-7.24,-4.67,4.72,4.63,3.96,-2.52,-2.51,-2.57
99.26,-7.16,-4.56,-7.26,-4.67,4.73,4.64,3.97,-2.43,-2.53,-2.60
100.25,-7.35,-4.72,-7.34,-4.72,4.74,4.65,3.99,-2.61,-2.60,-2.63
101.25,-7.52,-4.86,-7.45,-4.79,4.76,4.66,4.01,-2.76,-2.69,-2.66
102.27,-7.52,-4.82,-7.52,-4.83,4.78,4.66,4.03,-2.74,-2.74,-2.70
103.29,-7.52,-4.77,-7.53,-4.79,4.79,4.67,4.05,-2.73,-2.74,-2.75
104.32,-7.52,-4.73,-7.54,-4.76,4.79,4.68,4.08,-2.73,-2.76,-2.79
105.37,-7.58,-4.74,-7.61,-4.77,4.77,4.68,4.10,-2.81,-2.84,-2.84
106.42,-7.71,-4.82,-7.69,-4.80,4.73,4.69,4.13,-2.98,-2.96,-2.89
107.48,-7.75,-4.79,-7.74,-4.78,4.69,4.70,4.16,-3.06,-3.04,-2.96
108.56,-7.75,-4.71,-7.69,-4.66,4.65,4.70,4.19,-3.10,-3.04,-3.04
109.64,-7.60,-4.49,-7.62,-4.52,4.61,4.71,4.22,-2.99,-3.01,-3.11
110.74,-7.53,-4.36,-7.64,-4.47,4.57,4.72,4.25,-2.96,-3.08,-3.17
111.85,-7.73,-4.49,-7.74,-4.50,4.52,4.73,4.28,-3.21,-3.22,-3.24
112.97,-7.97,-4.64,-7.84,-4.53,4.48,4.73,4.31,-3.49,-3.36,-3.32
114.10,-7.93,-4.55,-7.89,-4.50,4.43,4.74,4.35,-3.50,-3.46,-3.39
115.24,-7.78,-4.32,-7.92,-4.45,4.40,4.75,4.38,-3.38,-3.52,-3.47
116.39,-7.92,-4.37,-7.94,-4.40,4.39,4.76,4.41,-3.53,-3.55,-3.55
117.55,-8.10,-4.49,-7.97,-4.36,4.40,4.77,4.44,-3.70,-3.57,-3.61
118.73,-8.03,-4.35,-8.04,-4.37,4.42,4.78,4.47,-3.61,-3.62,-3.68
119.92,-7.99,-4.27,-8.09,-4.36,4.45,4.79,4.51,-3.54,-3.64,-3.72
121.12,-8.21,-4.43,-8.18,-4.41,4.48,4.80,4.54,-3.73,-3.69,-3.78
122.33,-8.35,-4.53,-8.35,-4.55,4.53,4.82,4.57,-3.82,-3.83,-3.82
123.55,-8.53,-4.69,-8.52,-4.68,4.58,4.83,4.60,-3.95,-3.94,-3.84
124.79,-8.65,-4.77,-8.61,-4.74,4.65,4.84,4.63,-4.00,-3.97,-3.88
126.03,-8.66,-4.74,-8.66,-4.74,4.71,4.86,4.65,-3.95,-3.94,-3.92
127.29,-8.66,-4.71,-8.69,-4.74,4.78,4.87,4.68,-3.88,-3.91,-3.95
128.57,-8.71,-4.72,-8.74,-4.76,4.84,4.89,4.71,-3.87,-3.90,-3.99
129.85,-8.87,-4.85,-8.84,-4.82,4.88,4.91,4.74,-3.99,-3.96,-4.02
131.15,-8.94,-4.89,-8.96,-4.92,4.90,4.93,4.76,-4.04,-4.06,-4.05
132.46,-9.07,-4.99,-9.06,-4.98,4.92,4.95,4.79,-4.15,-4.14,-4.08
133.79,-9.12,-5.01,-9.10,-4.99,4.92,4.97,4.81,-4.20,-4.18,-4.11
135.12,-9.12,-4.96,-9.13,-4.98,4.92,4.99,4.84,-4.20,-4.21,-4.16
136.48,-9.12,-4.93,-9.12,-4.94,4.91,5.02,4.87,-4.21,-4.21,-4.19
137.84,-9.12,-4.90,-9.11,-4.88,4.91,5.04,4.90,-4.21,-4.20,-4.22
139.22,-9.12,-4.85,-9.12,-4.85,4.92,5.07,4.92,-4.20,-4.20,-4.27
140.61,-9.12,-4.80,-9.14,-4.84,4.94,5.10,4.95,-4.18,-4.21,-4.32
142.02,-9.23,-4.89,-9.22,-4.88,4.97,5.13,4.98,-4.26,-4.25,-4.34
143.44,-9.33,-4.95,-9.36,-4.98,5.02,5.16,5.01,-4.31,-4.34,-4.38
144.87,-9.53,-5.11,-9.54,-5.12,5.07,5.19,5.05,-4.46,-4.46,-4.42
146.32,-9.72,-5.25,-9.67,-5.21,5.13,5.23,5.08,-4.59,-4.54,-4.47
147.78,-9.80,-5.29,-9.78,-5.27,5.19,5.26,5.12,-4.61,-4.59,-4.51
149.26,-9.80,-5.22,-9.85,-5.27,5.23,5.30,5.16,-4.57,-4.62,-4.58
150.75,-9.90,-5.24,-9.90,-5.26,5.24,5.34,5.20,-4.66,-4.66,-4.66
152.26,-9.99,-5.26,-9.96,-5.23,5.24,5.39,5.24,-4.75,-4.71,-4.73
153.78,-10.03,-5.23,-10.04,-5.24,5.23,5.43,5.29,-4.80,-4.82,-4.80
155.32,-10.08,-5.18,-10.12,-5.23,5.23,5.48,5.34,-4.85,-4.89,-4.90
156.88,-10.24,-5.27,-10.17,-5.21,5.25,5.53,5.39,-4.99,-4.92,-4.97
158.44,-10.26,-5.22,-10.26,-5.22,5.30,5.58,5.44,-4.96,-4.96,-5.04
160.03,-10.32,-5.20,-10.40,-5.29,5.37,5.63,5.50,-4.95,-5.04,-5.12
161.63,-10.58,-5.40,-10.56,-5.39,5.44,5.69,5.57,-5.14,-5.12,-5.18
163.24,-10.83,-5.60,-10.78,-5.55,5.52,5.74,5.63,-5.31,-5.26,-5.23
164.88,-10.94,-5.67,-10.98,-5.71,5.60,5.81,5.70,-5.34,-5.38,-5.27
166.53,-11.12,-5.81,-11.10,-5.79,5.69,5.87,5.77,-5.43,-5.41,-5.31
168.19,-11.17,-5.83,-11.14,-5.81,5.78,5.93,5.85,-5.39,-5.37,-5.34
169.87,-11.17,-5.82,-11.18,-5.83,5.86,6.00,5.93,-5.31,-5.32,-5.35
171.57,-11.17,-5.81,-11.21,-5.86,5.94,6.07,6.02,-5.23,-5.27,-5.36
173.29,-11.31,-5.95,-11.30,-5.95,6.01,6.14,6.11,-5.30,-5.29,-5.36
175.02,-11.40,-6.06,-11.42,-6.07,6.08,6.22,6.21,-5.32,-5.34,-5.34
176.77,-11.59,-6.24,-11.54,-6.20,6.16,6.29,6.30,-5.43,-5.38,-5.35
178.54,-11.62,-6.28,-11.63,-6.29,6.26,6.38,6.41,-5.36,-5.37,-5.34
180.32,-11.70,-6.37,-11.72,-6.39,6.38,6.46,6.51,-5.32,-5.34,-5.33
182.13,-11.80,-6.47,-11.80,-6.48,6.51,6.54,6.63,-5.29,-5.29,-5.33
183.95,-11.94,-6.61,-11.92,-6.60,6.64,6.63,6.74,-5.30,-5.28,-5.33
185.79,-12.07,-6.73,-12.09,-6.75,6.77,6.72,6.86,-5.30,-5.32,-5.34
187.65,-12.24,-6.88,-12.26,-6.91,6.89,6.81,6.99,-5.35,-5.37,-5.36
189.52,-12.48,-7.10,-12.43,-7.06,7.01,6.91,7.12,-5.47,-5.42,-5.38
191.42,-12.59,-7.19,-12.60,-7.20,7.14,7.00,7.25,-5.45,-5.45,-5.40
193.33,-12.71,-7.29,-12.73,-7.32,7.28,7.10,7.39,-5.43,-5.45,-5.42
195.27,-12.87,-7.45,-12.84,-7.41,7.43,7.20,7.53,-5.44,-5.41,-5.42
197.22,-12.97,-7.53,-12.98,-7.54,7.59,7.30,7.68,-5.38,-5.39,-5.44
199.19,-13.13,-7.65,-13.16,-7.70,7.77,7.41,7.83,-5.36,-5.39,-5.48
201.18,-13.38,-7.90,-13.38,-7.89,7.95,7.51,7.99,-5.43,-5.43,-5.48
203.19,-13.65,-8.16,-13.64,-8.14,8.15,7.62,8.14,-5.50,-5.49,-5.50
205.23,-13.91,-8.38,-13.91,-8.40,8.36,7.73,8.30,-5.55,-5.55,-5.53
207.28,-14.17,-8.64,-14.19,-8.65,8.60,7.84,8.46,-5.57,-5.59,-5.53
209.35,-14.43,-8.88,-14.43,-8.88,8.85,7.94,8.63,-5.58,-5.58,-5.55
211.44,-14.69,-9.11,-14.62,-9.06,9.11,8.05,8.79,-5.58,-5.51,-5.58
213.56,-14.80,-9.22,-14.85,-9.27,9.37,8.16,8.95,-5.43,-5.48,-5.58
215.69,-15.00,-9.43,-15.11,-9.53,9.61,8.27,9.12,-5.39,-5.51,-5.58
217.85,-15.47,-9.86,-15.37,-9.77,9.80,8.37,9.28,-5.67,-5.57,-5.61
220.03,-15.66,-10.04,-15.61,-9.99,9.94,8.48,9.43,-5.72,-5.67,-5.62
222.23,-15.73,-10.09,-15.76,-10.13,10.03,8.58,9.58,-5.70,-5.74,-5.64
224.45,-15.83,-10.19,-15.85,-10.22,10.04,8.68,9.73,-5.79,-5.81,-5.64
226.70,-15.94,-10.30,-15.97,-10.33,9.99,8.77,9.87,-5.95,-5.98,-5.64
228.96,-16.11,-10.46,-16.09,-10.45,9.86,8.86,10.00,-6.25,-6.23,-5.65
231.25,-16.15,-10.50,-16.13,-10.48,9.67,8.95,10.11,-6.48,-6.46,-5.65
233.57,-16.06,-10.40,-16.03,-10.38,9.44,9.03,10.22,-6.62,-6.60,-5.66
235.90,-15.79,-10.12,-15.80,-10.13,9.15,9.10,10.30,-6.63,-6.64,-5.67
238.26,-15.41,-9.74,-15.44,-9.77,8.85,9.16,10.37,-6.56,-6.59,-5.67
240.64,-15.02,-9.35,-14.97,-9.31,8.53,9.21,10.41,-6.49,-6.44,-5.67
243.05,-14.47,-8.81,-14.46,-8.80,8.24,9.26,10.45,-6.23,-6.21,-5.66
245.48,-13.92,-8.27,-13.96,-8.31,8.01,9.28,10.45,-5.91,-5.95,-5.65
247.93,-13.49,-7.85,-13.50,-7.85,7.82,9.31,10.43,-5.66,-5.67,-5.64
250.41,-13.22,-7.57,-13.19,-7.55,7.70,9.31,10.38,-5.52,-5.49,-5.65
252.92,-13.00,-7.36,-13.06,-7.44,7.64,9.31,10.32,-5.36,-5.42,-5.64
255.45,-13.10,-7.49,-13.13,-7.51,7.65,9.28,10.23,-5.45,-5.48,-5.61
258.00,-13.33,-7.72,-13.30,-7.69,7.73,9.25,10.12,-5.60,-5.57,-5.61
260.58,-13.59,-7.98,-13.53,-7.94,7.86,9.19,9.97,-5.73,-5.67,-5.61
263.19,-13.68,-8.09,-13.71,-8.12,8.04,9.13,9.82,-5.64,-5.67,-5.59
265.82,-13.88,-8.29,-13.85,-8.28,8.24,9.04,9.64,-5.64,-5.61,-5.59
268.48,-13.96,-8.40,-14.01,-8.45,8.45,8.94,9.45,-5.51,-5.56,-5.56
271.16,-14.18,-8.63,-14.18,-8.63,8.62,8.82,9.23,-5.56,-5.56,-5.55
273.87,-14.35,-8.81,-14.29,-8.77,8.75,8.69,9.01,-5.60,-5.54,-5.54
276.61,-14.36,-8.86,-14.37,-8.87,8.83,8.54,8.77,-5.53,-5.54,-5.50
279.38,-14.36,-8.87,-14.39,-8.91,8.87,8.38,8.52,-5.49,-5.53,-5.49
282.17,-14.36,-8.90,-14.35,-8.90,8.87,8.20,8.26,-5.49,-5.49,-5.46
284.99,-14.31,-8.88,-14.26,-8.83,8.82,8.02,8.00,-5.49,-5.44,-5.43
287.84,-14.10,-8.69,-14.13,-8.73,8.73,7.81,7.73,-5.37,-5.40,-5.41
290.72,-13.92,-8.55,-13.96,-8.58,8.60,7.60,7.46,-5.32,-5.35,-5.37
293.63,-13.79,-8.44,-13.76,-8.41,8.44,7.37,7.18,-5.35,-5.31,-5.35
296.57,-13.55,-8.23,-13.54,-8.23,8.25,7.14,6.90,-5.30,-5.29,-5.32
299.53,-13.29,-8.00,-13.30,-8.01,8.03,6.89,6.62,-5.26,-5.27,-5.29
302.53,-13.02,-7.74,-13.04,-7.77,7.77,6.64,6.34,-5.25,-5.27,-5.28
305.55,-12.77,-7.53,-12.77,-7.53,7.48,6.38,6.06,-5.29,-5.29,-5.24
308.61,-12.47,-7.25,-12.45,-7.23,7.17,6.11,5.78,-5.30,-5.28,-5.22
311.69,-12.09,-6.88,-12.07,-6.87,6.84,5.84,5.50,-5.25,-5.23,-5.21
314.81,-11.63,-6.45,-11.64,-6.45,6.48,5.56,5.22,-5.15,-5.15,-5.18
317.96,-11.19,-6.01,-11.21,-6.03,6.10,5.27,4.94,-5.09,-5.11,-5.18
321.14,-10.80,-5.61,-10.83,-5.66,5.70,4.98,4.66,-5.10,-5.13,-5.19
324.35,-10.50,-5.32,-10.48,-5.30,5.29,4.69,4.38,-5.21,-5.19,-5.18
327.59,-10.13,-4.96,-10.10,-4.93,4.88,4.39,4.11,-5.25,-5.23,-5.17
330.87,-9.68,-4.52,-9.67,-4.51,4.47,4.09,3.84,-5.21,-5.20,-5.16
334.18,-9.19,-4.03,-9.19,-4.04,4.08,3.79,3.56,-5.11,-5.11,-5.16
337.52,-8.72,-3.57,-8.75,-3.61,3.69,3.48,3.29,-5.03,-5.06,-5.15
340.90,-8.33,-3.22,-8.35,-3.23,3.29,3.17,3.03,-5.04,-5.06,-5.12
344.30,-8.02,-2.91,-8.00,-2.90,2.88,2.86,2.76,-5.14,-5.12,-5.11
347.75,-7.65,-2.55,-7.64,-2.55,2.47,2.55,2.49,-5.18,-5.17,-5.10
351.23,-7.24,-2.18,-7.22,-2.15,2.06,2.23,2.23,-5.18,-5.16,-5.07
354.74,-6.73,-1.69,-6.74,-1.69,1.67,1.92,1.97,-5.06,-5.07,-5.05
358.28,-6.26,-1.24,-6.26,-1.24,1.28,1.60,1.71,-4.98,-4.98,-5.02
361.87,-5.78,-0.79,-5.82,-0.82,0.89,1.29,1.45,-4.89,-4.93,-5.00
365.49,-5.43,-0.46,-5.42,-0.45,0.49,0.97,1.19,-4.94,-4.92,-4.98
369.14,-5.07,-0.11,-5.06,-0.11,0.11,0.65,0.93,-4.96,-4.95,-4.96
372.83,-4.70,0.23,-4.71,0.22,-0.26,0.34,0.67,-4.96,-4.96,-4.93
376.56,-4.36,0.55,-4.33,0.57,-0.60,0.02,0.41,-4.96,-4.93,-4.91
380.33,-3.95,0.92,-3.96,0.91,-0.92,-0.29,0.16,-4.87,-4.88,-4.88
384.13,-3.60,1.26,-3.62,1.24,-1.23,-0.60,-0.10,-4.83,-4.84,-4.86
387.97,-3.30,1.55,-3.30,1.55,-1.53,-0.91,-0.35,-4.83,-4.83,-4.85
391.85,-3.03,1.82,-3.02,1.82,-1.82,-1.21,-0.60,-4.85,-4.84,-4.85
395.77,-2.76,2.08,-2.76,2.07,-2.10,-1.51,-0.85,-4.86,-4.86,-4.84
399.73,-2.50,2.33,-2.50,2.33,-2.35,-1.80,-1.10,-4.85,-4.85,-4.83
403.72,-2.24,2.58,-2.22,2.59,-2.57,-2.09,-1.35,-4.81,-4.80,-4.82
