frequency,raw,error,smoothed,error_smoothed,equalization,parametric_eq,fixed_band_eq,equalized_raw,equalized_smoothed,target
20.00,6.16,-4.71,6.16,-4.71,4.71,4.49,1.35,10.87,10.87,10.87
20.20,6.20,-4.66,6.20,-4.66,4.66,4.47,1.40,10.86,10.86,10.86
20.40,6.25,-4.60,6.25,-4.60,4.60,4.45,1.44,10.85,10.85,10.85
20.61,6.29,-4.55,6.29,-4.55,4.55,4.43,1.49,10.84,10.84,10.84
20.81,6.33,-4.49,6.33,-4.49,4.49,4.40,1.54,10.82,10.82,10.82
21.02,6.37,-4.44,6.38,-4.44,4.44,4.38,1.59,10.81,10.81,10.81
21.23,6.42,-4.38,6.42,-4.38,4.38,4.35,1.64,10.80,10.80,10.80
21.44,6.46,-4.34,6.46,-4.33,4.33,4.33,1.69,10.79,10.79,10.81
21.66,6.50,-4.28,6.51,-4.28,4.28,4.30,1.75,10.78,10.78,10.79
21.87,6.55,-4.23,6.55,-4.23,4.23,4.27,1.81,10.78,10.78,10.78
22.09,6.59,-4.17,6.59,-4.18,4.18,4.24,1.86,10.77,10.77,10.76
22.31,6.63,-4.13,6.63,-4.13,4.13,4.21,1.92,10.76,10.76,10.76
22.54,6.67,-4.08,6.68,-4.08,4.08,4.18,1.99,10.75,10.75,10.75
22.76,6.72,-4.03,6.72,-4.03,4.03,4.15,2.05,10.75,10.75,10.75
22.99,6.76,-3.98,6.76,-3.98,3.98,4.11,2.11,10.74,10.74,10.74
23.22,6.80,-3.93,6.80,-3.93,3.93,4.08,2.18,10.74,10.74,10.73
23.45,6.84,-3.89,6.84,-3.89,3.89,4.04,2.25,10.73,10.73,10.74
23.69,6.88,-3.84,6.89,-3.84,3.84,4.01,2.32,10.72,10.73,10.72
23.92,6.93,-3.78,6.93,-3.79,3.79,3.97,2.39,10.73,10.72,10.71
24.16,6.97,-3.75,6.97,-3.75,3.75,3.94,2.46,10.72,10.72,10.72
24.40,7.01,-3.71,7.01,-3.71,3.71,3.90,2.53,10.72,10.72,10.72
24.65,7.05,-3.67,7.05,-3.66,3.66,3.86,2.61,10.71,10.71,10.72
24.89,7.09,-3.62,7.09,-3.62,3.62,3.82,2.68,10.71,10.71,10.72
25.14,7.13,-3.57,7.13,-3.57,3.57,3.78,2.76,10.71,10.71,10.70
25.39,7.17,-3.53,7.18,-3.53,3.53,3.74,2.83,10.70,10.71,10.70
25.65,7.21,-3.49,7.22,-3.49,3.49,3.70,2.91,10.70,10.71,10.70
25.91,7.26,-3.44,7.26,-3.44,3.44,3.66,2.98,10.71,10.70,10.70
26.16,7.30,-3.41,7.30,-3.40,3.40,3.61,3.06,10.70,10.70,10.71
26.43,7.34,-3.36,7.34,-3.36,3.36,3.57,3.13,10.70,10.70,10.71
26.69,7.38,-3.32,7.38,-3.32,3.32,3.53,3.20,10.70,10.70,10.70
26.96,7.42,-3.28,7.42,-3.28,3.28,3.48,3.28,10.70,10.70,10.70
27.23,7.46,-3.24,7.46,-3.24,3.24,3.44,3.35,10.70,10.70,10.70
27.50,7.50,-3.19,7.50,-3.20,3.20,3.39,3.41,10.70,10.70,10.70
27.77,7.54,-3.16,7.54,-3.16,3.16,3.35,3.48,10.71,10.70,10.70
28.05,7.58,-3.12,7.58,-3.13,3.13,3.30,3.54,10.71,10.71,10.70
28.33,7.61,-3.10,7.62,-3.09,3.09,3.26,3.60,10.70,10.71,10.71
28.62,7.65,-3.05,7.66,-3.05,3.05,3.21,3.65,10.70,10.71,10.71
28.90,7.69,-3.02,7.69,-3.01,3.01,3.17,3.70,10.70,10.70,10.71
29.19,7.73,-2.98,7.73,-2.97,2.97,3.12,3.74,10.71,10.70,10.71
29.48,7.76,-2.94,7.76,-2.94,2.94,3.07,3.78,10.70,10.70,10.71
29.78,7.80,-2.90,7.80,-2.90,2.90,3.02,3.81,10.70,10.70,10.70
30.08,7.84,-2.86,7.83,-2.86,2.86,2.98,3.84,10.70,10.69,10.70
30.38,7.87,-2.81,7.87,-2.82,2.82,2.93,3.86,10.70,10.69,10.69
30.68,7.90,-2.78,7.90,-2.79,2.79,2.88,3.87,10.69,10.69,10.68
30.99,7.93,-2.75,7.93,-2.75,2.75,2.83,3.87,10.68,10.68,10.68
31.30,7.96,-2.71,7.96,-2.71,2.71,2.78,3.87,10.67,10.67,10.67
31.61,7.99,-2.68,7.99,-2.67,2.67,2.73,3.86,10.66,10.66,10.67
31.93,8.02,-2.62,8.02,-2.63,2.63,2.68,3.84,10.65,10.66,10.65
32.24,8.05,-2.60,8.05,-2.59,2.59,2.63,3.82,10.65,10.65,10.65
32.57,8.08,-2.55,8.08,-2.56,2.56,2.58,3.79,10.64,10.64,10.64
32.89,8.11,-2.52,8.11,-2.52,2.52,2.53,3.75,10.63,10.63,10.63
33.22,8.14,-2.48,8.14,-2.48,2.48,2.48,3.71,10.62,10.62,10.63
33.55,8.17,-2.45,8.17,-2.45,2.45,2.43,3.66,10.62,10.62,10.62
33.89,8.20,-2.40,8.20,-2.41,2.41,2.38,3.60,10.61,10.61,10.61
34.23,8.23,-2.36,8.23,-2.37,2.37,2.33,3.54,10.60,10.60,10.59
34.57,8.26,-2.32,8.26,-2.33,2.33,2.28,3.47,10.59,10.59,10.58
34.92,8.28,-2.29,8.29,-2.29,2.29,2.23,3.40,10.57,10.58,10.57
35.27,8.31,-2.27,8.32,-2.25,2.25,2.18,3.33,10.56,10.56,10.58
35.62,8.34,-2.21,8.34,-2.21,2.21,2.13,3.25,10.55,10.55,10.55
35.97,8.37,-2.18,8.37,-2.17,2.17,2.08,3.17,10.54,10.54,10.55
36.33,8.39,-2.14,8.39,-2.13,2.13,2.03,3.08,10.52,10.52,10.53
36.70,8.42,-2.08,8.42,-2.09,2.09,1.98,3.00,10.51,10.50,10.50
37.06,8.44,-2.04,8.44,-2.05,2.05,1.93,2.91,10.49,10.49,10.48
37.43,8.47,-1.99,8.46,-2.00,2.00,1.88,2.82,10.48,10.47,10.47
37.81,8.49,-1.96,8.48,-1.96,1.96,1.83,2.73,10.45,10.45,10.45
38.19,8.51,-1.91,8.51,-1.92,1.92,1.78,2.64,10.43,10.42,10.42
38.57,8.52,-1.88,8.53,-1.87,1.87,1.73,2.55,10.39,10.40,10.40
38.95,8.54,-1.84,8.55,-1.83,1.83,1.68,2.46,10.37,10.38,10.38
39.34,8.56,-1.79,8.57,-1.78,1.78,1.62,2.36,10.34,10.35,10.35
39.74,8.58,-1.74,8.59,-1.74,1.74,1.57,2.27,10.32,10.33,10.32
40.14,8.61,-1.69,8.61,-1.69,1.69,1.52,2.18,10.31,10.30,10.30
40.54,8.63,-1.65,8.63,-1.65,1.65,1.47,2.09,10.28,10.28,10.28
40.94,8.65,-1.60,8.65,-1.60,1.60,1.42,2.00,10.26,10.25,10.25
41.35,8.67,-1.56,8.67,-1.56,1.56,1.37,1.91,10.23,10.23,10.23
41.76,8.69,-1.50,8.69,-1.51,1.51,1.32,1.82,10.20,10.20,10.19
42.18,8.71,-1.47,8.72,-1.46,1.46,1.27,1.73,10.17,10.18,10.18
42.60,8.74,-1.41,8.74,-1.41,1.41,1.22,1.65,10.15,10.15,10.15
43.03,8.76,-1.36,8.76,-1.36,1.36,1.16,1.56,10.12,10.12,10.13
43.46,8.78,-1.31,8.78,-1.31,1.31,1.11,1.48,10.09,10.10,10.09
43.90,8.80,-1.27,8.81,-1.26,1.26,1.06,1.40,10.06,10.07,10.07
44.33,8.83,-1.20,8.83,-1.21,1.21,1.01,1.31,10.04,10.04,10.03
44.78,8.85,-1.16,8.85,-1.16,1.16,0.96,1.23,10.01,10.00,10.01
45.23,8.87,-1.11,8.87,-1.10,1.10,0.91,1.15,9.97,9.97,9.98
45.68,8.89,-1.04,8.89,-1.04,1.04,0.86,1.07,9.93,9.93,9.93
46.13,8.91,-0.98,8.91,-0.99,0.99,0.80,1.00,9.90,9.89,9.90
46.60,8.92,-0.94,8.93,-0.93,0.93,0.75,0.92,9.85,9.85,9.86
47.06,8.94,-0.88,8.94,-0.87,0.87,0.70,0.84,9.81,9.81,9.82
47.53,8.96,-0.82,8.96,-0.81,0.81,0.65,0.77,9.77,9.77,9.78
48.01,8.98,-0.74,8.98,-0.75,0.75,0.60,0.70,9.73,9.72,9.72
48.49,8.99,-0.69,8.99,-0.69,0.69,0.55,0.62,9.68,9.68,9.68
48.97,9.01,-0.62,9.01,-0.63,0.63,0.50,0.55,9.64,9.63,9.63
49.46,9.02,-0.56,9.02,-0.57,0.57,0.44,0.48,9.59,9.59,9.59
49.96,9.03,-0.49,9.03,-0.51,0.51,0.39,0.41,9.54,9.54,9.52
50.46,9.04,-0.45,9.05,-0.45,0.45,0.34,0.34,9.49,9.49,9.49
50.96,9.05,-0.39,9.06,-0.38,0.38,0.29,0.28,9.44,9.45,9.45
51.47,9.06,-0.34,9.07,-0.33,0.33,0.24,0.21,9.39,9.40,9.40
51.99,9.08,-0.26,9.08,-0.27,0.27,0.18,0.14,9.35,9.35,9.34
52.51,9.09,-0.22,9.09,-0.21,0.21,0.13,0.08,9.31,9.31,9.31
53.03,9.10,-0.17,9.10,-0.16,0.16,0.08,0.01,9.26,9.26,9.27
53.56,9.11,-0.11,9.10,-0.11,0.11,0.03,-0.05,9.22,9.21,9.22
54.10,9.11,-0.05,9.10,-0.07,0.07,-0.03,-0.11,9.18,9.17,9.16
54.64,9.12,0.00,9.10,-0.02,0.02,-0.08,-0.17,9.14,9.12,9.12
55.18,9.12,0.05,9.10,0.02,-0.02,-0.13,-0.24,9.10,9.08,9.07
55.74,9.11,0.09,9.10,0.07,-0.07,-0.19,-0.30,9.05,9.03,9.02
56.29,9.10,0.12,9.10,0.11,-0.11,-0.24,-0.36,8.99,8.99,8.98
56.86,9.08,0.14,9.09,0.15,-0.15,-0.29,-0.41,8.93,8.94,8.94
57.42,9.08,0.20,9.09,0.20,-0.20,-0.35,-0.47,8.88,8.89,8.88
58.00,9.07,0.23,9.09,0.24,-0.24,-0.40,-0.53,8.83,8.84,8.84
58.58,9.07,0.27,9.09,0.30,-0.30,-0.45,-0.59,8.78,8.79,8.80
59.16,9.07,0.31,9.09,0.35,-0.35,-0.51,-0.64,8.72,8.74,8.76
59.76,9.09,0.38,9.09,0.41,-0.41,-0.56,-0.70,8.68,8.69,8.71
60.35,9.10,0.45,9.10,0.47,-0.47,-0.62,-0.75,8.63,8.63,8.65
60.96,9.11,0.52,9.11,0.53,-0.53,-0.67,-0.80,8.58,8.57,8.59
61.57,9.12,0.61,9.12,0.60,-0.60,-0.73,-0.86,8.52,8.52,8.51
62.18,9.14,0.69,9.14,0.68,-0.68,-0.78,-0.91,8.46,8.46,8.45
62.80,9.15,0.77,9.15,0.76,-0.76,-0.84,-0.96,8.39,8.39,8.38
63.43,9.17,0.85,9.17,0.84,-0.84,-0.89,-1.01,8.33,8.33,8.32
64.07,9.19,0.93,9.19,0.92,-0.92,-0.95,-1.06,8.27,8.27,8.26
64.71,9.21,1.01,9.22,1.01,-1.01,-1.01,-1.11,8.20,8.21,8.20
65.35,9.23,1.09,9.24,1.10,-1.10,-1.06,-1.16,8.14,8.14,8.14
66.01,9.26,1.19,9.26,1.18,-1.18,-1.12,-1.21,8.08,8.08,8.08
66.67,9.28,1.26,9.28,1.27,-1.27,-1.18,-1.25,8.01,8.01,8.02
67.33,9.30,1.35,9.31,1.36,-1.36,-1.23,-1.30,7.95,7.95,7.95
68.01,9.33,1.44,9.33,1.44,-1.44,-1.29,-1.35,7.89,7.89,7.89
68.69,9.35,1.53,9.35,1.53,-1.53,-1.35,-1.40,7.82,7.82,7.83
69.37,9.37,1.60,9.37,1.61,-1.61,-1.41,-1.45,7.76,7.76,7.77
70.07,9.39,1.69,9.39,1.70,-1.70,-1.47,-1.50,7.70,7.69,7.70
70.77,9.41,1.79,9.40,1.78,-1.78,-1.53,-1.55,7.63,7.62,7.63
71.48,9.42,1.86,9.41,1.86,-1.86,-1.59,-1.59,7.57,7.56,7.56
72.19,9.43,1.94,9.42,1.93,-1.93,-1.65,-1.65,7.50,7.49,7.49
72.91,9.44,2.03,9.43,2.01,-2.01,-1.71,-1.70,7.44,7.42,7.41
73.64,9.44,2.09,9.43,2.08,-2.08,-1.77,-1.75,7.37,7.36,7.35
74.38,9.44,2.16,9.44,2.14,-2.14,-1.83,-1.80,7.30,7.29,7.28
75.12,9.44,2.22,9.44,2.21,-2.21,-1.89,-1.86,7.23,7.23,7.22
75.87,9.42,2.26,9.44,2.27,-2.27,-1.95,-1.91,7.15,7.16,7.16
76.63,9.42,2.33,9.43,2.33,-2.33,-2.01,-1.97,7.09,7.10,7.09
77.40,9.42,2.38,9.43,2.40,-2.40,-2.07,-2.02,7.03,7.04,7.04
78.17,9.42,2.46,9.43,2.45,-2.45,-2.14,-2.08,6.97,6.97,6.96
78.95,9.42,2.50,9.43,2.51,-2.51,-2.20,-2.14,6.91,6.91,6.92
79.74,9.42,2.57,9.42,2.57,-2.57,-2.26,-2.21,6.85,6.85,6.85
80.54,9.42,2.63,9.42,2.63,-2.63,-2.33,-2.27,6.79,6.79,6.79
81.35,9.42,2.70,9.42,2.69,-2.69,-2.39,-2.34,6.73,6.73,6.73
82.16,9.42,2.74,9.42,2.75,-2.75,-2.46,-2.40,6.67,6.67,6.68
82.98,9.42,2.82,9.42,2.82,-2.82,-2.52,-2.47,6.60,6.60,6.61
83.81,9.42,2.88,9.42,2.88,-2.88,-2.59,-2.55,6.54,6.54,6.54
84.65,9.42,2.95,9.42,2.95,-2.95,-2.66,-2.62,6.47,6.47,6.47
85.50,9.42,3.01,9.42,3.01,-3.01,-2.72,-2.70,6.41,6.41,6.41
86.35,9.42,3.08,9.42,3.08,-3.08,-2.79,-2.77,6.34,6.34,6.34
87.22,9.42,3.15,9.42,3.14,-3.14,-2.86,-2.85,6.28,6.28,6.28
88.09,9.42,3.21,9.42,3.21,-3.21,-2.93,-2.94,6.21,6.21,6.21
88.97,9.42,3.28,9.42,3.28,-3.28,-3.00,-3.02,6.14,6.14,6.14
89.86,9.42,3.35,9.42,3.35,-3.35,-3.07,-3.11,6.07,6.07,6.07
90.76,9.42,3.42,9.42,3.42,-3.42,-3.14,-3.20,6.00,6.00,6.00
91.66,9.42,3.50,9.42,3.49,-3.49,-3.21,-3.29,5.93,5.93,5.92
92.58,9.42,3.56,9.42,3.56,-3.56,-3.28,-3.38,5.86,5.86,5.86
93.51,9.42,3.63,9.42,3.64,-3.64,-3.35,-3.48,5.78,5.78,5.79
94.44,9.42,3.70,9.42,3.71,-3.71,-3.42,-3.57,5.71,5.71,5.72
95.39,9.42,3.78,9.42,3.79,-3.79,-3.49,-3.67,5.64,5.64,5.64
96.34,9.42,3.86,9.42,3.86,-3.86,-3.56,-3.78,5.56,5.56,5.56
97.30,9.42,3.93,9.42,3.93,-3.93,-3.64,-3.88,5.49,5.49,5.49
98.28,9.42,4.01,9.42,4.01,-4.01,-3.71,-3.98,5.41,5.41,5.41
99.26,9.42,4.09,9.42,4.08,-4.08,-3.79,-4.09,5.34,5.34,5.33
100.25,9.42,4.16,9.42,4.15,-4.15,-3.86,-4.20,5.27,5.27,5.26
101.25,9.42,4.23,9.42,4.22,-4.22,-3.94,-4.31,5.20,5.20,5.19
102.27,9.42,4.29,9.42,4.29,-4.29,-4.01,-4.42,5.13,5.13,5.13
103.29,9.42,4.37,9.42,4.36,-4.36,-4.09,-4.53,5.06,5.06,5.05
104.32,9.42,4.43,9.42,4.43,-4.43,-4.16,-4.64,4.99,4.99,4.99
105.37,9.42,4.50,9.42,4.50,-4.50,-4.24,-4.75,4.92,4.92,4.92
106.42,9.42,4.57,9.42,4.57,-4.57,-4.32,-4.86,4.85,4.85,4.86
107.48,9.42,4.64,9.42,4.64,-4.64,-4.39,-4.97,4.78,4.78,4.78
108.56,9.42,4.71,9.42,4.71,-4.71,-4.47,-5.08,4.71,4.71,4.72
109.64,9.42,4.77,9.43,4.79,-4.79,-4.55,-5.19,4.64,4.64,4.65
110.74,9.42,4.85,9.43,4.86,-4.86,-4.63,-5.29,4.56,4.57,4.58
111.85,9.42,4.92,9.43,4.93,-4.93,-4.71,-5.40,4.49,4.50,4.50
112.97,9.42,4.99,9.44,5.01,-5.01,-4.79,-5.50,4.41,4.43,4.44
114.10,9.42,5.06,9.44,5.08,-5.08,-4.86,-5.59,4.34,4.36,4.36
115.24,9.43,5.15,9.44,5.15,-5.15,-4.94,-5.68,4.28,4.29,4.28
116.39,9.44,5.24,9.43,5.22,-5.22,-5.02,-5.77,4.22,4.21,4.21
117.55,9.44,5.31,9.43,5.28,-5.28,-5.10,-5.85,4.16,4.14,4.13
118.73,9.44,5.38,9.42,5.34,-5.34,-5.18,-5.93,4.10,4.07,4.06
119.92,9.42,5.42,9.41,5.40,-5.40,-5.26,-6.00,4.02,4.01,4.00
121.12,9.40,5.46,9.39,5.46,-5.46,-5.34,-6.06,3.95,3.94,3.94
122.33,9.39,5.52,9.37,5.50,-5.50,-5.42,-6.12,3.89,3.87,3.87
123.55,9.36,5.55,9.35,5.55,-5.55,-5.50,-6.17,3.81,3.80,3.81
124.79,9.33,5.59,9.32,5.59,-5.59,-5.58,-6.22,3.74,3.73,3.74
126.03,9.29,5.62,9.29,5.63,-5.63,-5.65,-6.25,3.66,3.66,3.67
127.29,9.26,5.66,9.26,5.66,-5.66,-5.73,-6.29,3.60,3.60,3.60
128.57,9.23,5.70,9.23,5.70,-5.70,-5.81,-6.31,3.53,3.53,3.53
129.85,9.19,5.73,9.20,5.74,-5.74,-5.89,-6.33,3.46,3.46,3.46
131.15,9.15,5.76,9.17,5.78,-5.78,-5.96,-6.34,3.38,3.39,3.39
132.46,9.13,5.81,9.15,5.82,-5.82,-6.04,-6.35,3.31,3.33,3.33
133.79,9.10,5.85,9.12,5.87,-5.87,-6.11,-6.35,3.24,3.26,3.25
135.12,9.08,5.89,9.11,5.91,-5.91,-6.18,-6.34,3.17,3.19,3.19
136.48,9.07,5.94,9.09,5.97,-5.97,-6.26,-6.34,3.11,3.13,3.13
137.84,9.07,6.01,9.08,6.02,-6.02,-6.33,-6.33,3.05,3.06,3.06
139.22,9.07,6.08,9.08,6.08,-6.08,-6.40,-6.31,2.99,3.00,3.00
140.61,9.08,6.14,9.08,6.14,-6.14,-6.46,-6.29,2.95,2.94,2.94
142.02,9.09,6.22,9.08,6.19,-6.19,-6.53,-6.27,2.90,2.88,2.87
143.44,9.09,6.27,9.08,6.25,-6.25,-6.59,-6.25,2.84,2.82,2.82
144.87,9.09,6.33,9.08,6.32,-6.32,-6.66,-6.23,2.78,2.76,2.77
146.32,9.09,6.39,9.08,6.37,-6.37,-6.72,-6.21,2.72,2.71,2.70
147.78,9.09,6.44,9.09,6.43,-6.43,-6.77,-6.19,2.66,2.65,2.65
149.26,9.09,6.50,9.09,6.49,-6.49,-6.83,-6.17,2.60,2.60,2.59
150.75,9.09,6.55,9.09,6.55,-6.55,-6.88,-6.15,2.54,2.54,2.54
152.26,9.09,6.60,9.09,6.61,-6.61,-6.93,-6.13,2.49,2.49,2.49
153.78,9.09,6.66,9.09,6.66,-6.66,-6.98,-6.12,2.43,2.43,2.44
155.32,9.09,6.71,9.09,6.72,-6.72,-7.02,-6.11,2.37,2.38,2.38
156.88,9.09,6.76,9.10,6.77,-6.77,-7.06,-6.10,2.32,2.32,2.33
158.44,9.09,6.82,9.10,6.83,-6.83,-7.10,-6.09,2.26,2.27,2.27
160.03,9.09,6.87,9.10,6.89,-6.89,-7.14,-6.08,2.20,2.21,2.22
161.63,9.09,6.93,9.11,6.95,-6.95,-7.17,-6.08,2.14,2.16,2.16
163.24,9.10,7.00,9.11,7.01,-7.01,-7.20,-6.09,2.09,2.10,2.10
164.88,9.10,7.06,9.11,7.07,-7.07,-7.22,-6.09,2.04,2.04,2.04
166.53,9.11,7.13,9.11,7.12,-7.12,-7.24,-6.11,1.99,1.99,1.98
168.19,9.11,7.18,9.10,7.17,-7.17,-7.26,-6.12,1.94,1.93,1.94
169.87,9.11,7.24,9.09,7.22,-7.22,-7.28,-6.14,1.89,1.87,1.87
171.57,9.10,7.29,9.08,7.27,-7.27,-7.30,-6.17,1.84,1.82,1.81
173.29,9.09,7.33,9.06,7.31,-7.31,-7.31,-6.19,1.78,1.76,1.76
175.02,9.06,7.36,9.04,7.34,-7.34,-7.32,-6.23,1.72,1.70,1.70
176.77,9.03,7.39,9.02,7.38,-7.38,-7.34,-6.27,1.65,1.65,1.65
178.54,9.01,7.42,9.00,7.41,-7.41,-7.35,-6.31,1.60,1.59,1.59
180.32,8.97,7.45,8.97,7.44,-7.44,-7.36,-6.36,1.53,1.53,1.53
182.13,8.94,7.46,8.94,7.46,-7.46,-7.38,-6.41,1.48,1.48,1.48
183.95,8.90,7.47,8.92,7.49,-7.49,-7.40,-6.47,1.41,1.42,1.43
185.79,8.86,7.49,8.89,7.52,-7.52,-7.42,-6.53,1.34,1.37,1.37
187.65,8.84,7.52,8.86,7.55,-7.55,-7.44,-6.60,1.29,1.32,1.32
189.52,8.81,7.54,8.84,7.57,-7.57,-7.47,-6.67,1.24,1.27,1.27
191.42,8.80,7.58,8.82,7.60,-7.60,-7.50,-6.74,1.20,1.22,1.22
193.33,8.79,7.62,8.80,7.63,-7.63,-7.54,-6.82,1.16,1.17,1.17
195.27,8.78,7.66,8.78,7.66,-7.66,-7.58,-6.91,1.12,1.12,1.12
197.22,8.76,7.70,8.76,7.68,-7.68,-7.62,-7.00,1.08,1.08,1.06
199.19,8.75,7.72,8.74,7.71,-7.71,-7.66,-7.09,1.04,1.03,1.03
201.18,8.74,7.76,8.72,7.73,-7.73,-7.71,-7.18,1.01,0.99,0.98
203.19,8.72,7.78,8.70,7.75,-7.75,-7.76,-7.28,0.97,0.95,0.94
205.23,8.70,7.79,8.68,7.77,-7.77,-7.81,-7.38,0.93,0.91,0.91
207.28,8.66,7.79,8.66,7.79,-7.79,-7.86,-7.48,0.87,0.87,0.87
209.35,8.63,7.80,8.63,7.80,-7.80,-7.90,-7.58,0.83,0.83,0.84
211.44,8.60,7.80,8.61,7.81,-7.81,-7.95,-7.68,0.79,0.80,0.80
213.56,8.57,7.80,8.58,7.82,-7.82,-7.99,-7.79,0.76,0.76,0.77
215.69,8.54,7.81,8.55,7.82,-7.82,-8.03,-7.89,0.72,0.73,0.73
217.85,8.51,7.81,8.52,7.82,-7.82,-8.07,-7.99,0.69,0.70,0.70
220.03,8.49,7.83,8.49,7.82,-7.82,-8.10,-8.09,0.67,0.67,0.66
222.23,8.46,7.83,8.46,7.82,-7.82,-8.13,-8.19,0.64,0.64,0.63
224.45,8.43,7.82,8.43,7.82,-7.82,-8.15,-8.28,0.61,0.61,0.61
226.70,8.39,7.82,8.40,7.82,-7.82,-8.17,-8.37,0.57,0.58,0.58
228.96,8.36,7.80,8.38,7.82,-7.82,-8.18,-8.46,0.54,0.56,0.56
231.25,8.34,7.81,8.35,7.81,-7.81,-8.19,-8.53,0.53,0.53,0.53
233.57,8.32,7.81,8.32,7.80,-7.80,-8.19,-8.60,0.52,0.51,0.51
235.90,8.29,7.80,8.29,7.79,-7.79,-8.19,-8.66,0.50,0.49,0.49
238.26,8.27,7.81,8.26,7.78,-7.78,-8.18,-8.71,0.49,0.48,0.46
240.64,8.25,7.78,8.23,7.77,-7.77,-8.17,-8.75,0.49,0.46,0.47
243.05,8.21,7.76,8.20,7.75,-7.75,-8.15,-8.78,0.46,0.45,0.45
245.48,8.17,7.74,8.17,7.73,-7.73,-8.13,-8.79,0.44,0.44,0.43
247.93,8.12,7.71,8.14,7.71,-7.71,-8.10,-8.80,0.41,0.43,0.42
250.41,8.09,7.67,8.11,7.69,-7.69,-8.07,-8.79,0.40,0.42,0.42
252.92,8.04,7.63,8.07,7.66,-7.66,-8.03,-8.77,0.38,0.41,0.41
255.45,8.02,7.62,8.04,7.64,-7.64,-8.00,-8.74,0.39,0.40,0.40
258.00,8.00,7.61,8.00,7.61,-7.61,-7.96,-8.70,0.40,0.39,0.40
260.58,7.98,7.59,7.96,7.57,-7.57,-7.91,-8.64,0.41,0.39,0.39
263.19,7.95,7.56,7.92,7.54,-7.54,-7.86,-8.57,0.41,0.38,0.39
265.82,7.90,7.52,7.89,7.51,-7.51,-7.81,-8.50,0.39,0.38,0.38
268.48,7.86,7.49,7.85,7.48,-7.48,-7.76,-8.41,0.38,0.37,0.37
271.16,7.81,7.44,7.81,7.44,-7.44,-7.71,-8.32,0.37,0.36,0.37
273.87,7.75,7.39,7.77,7.41,-7.41,-7.65,-8.22,0.34,0.36,0.36
276.61,7.72,7.36,7.73,7.37,-7.37,-7.59,-8.11,0.35,0.36,0.36
279.38,7.68,7.34,7.69,7.34,-7.34,-7.53,-7.99,0.34,0.35,0.34
282.17,7.64,7.30,7.65,7.30,-7.30,-7.47,-7.87,0.34,0.35,0.34
284.99,7.61,7.26,7.61,7.26,-7.26,-7.41,-7.75,0.35,0.35,0.35
287.84,7.56,7.21,7.56,7.22,-7.22,-7.34,-7.62,0.35,0.35,0.35
290.72,7.52,7.18,7.52,7.17,-7.17,-7.28,-7.50,0.35,0.35,0.34
293.63,7.48,7.13,7.48,7.13,-7.13,-7.22,-7.37,0.35,0.35,0.35
296.57,7.44,7.09,7.44,7.09,-7.09,-7.15,-7.24,0.35,0.35,0.35
299.53,7.40,7.05,7.40,7.04,-7.04,-7.08,-7.11,0.36,0.36,0.36
302.53,7.36,6.99,7.36,7.00,-7.00,-7.02,-6.98,0.36,0.36,0.37
305.55,7.32,6.96,7.32,6.95,-6.95,-6.95,-6.85,0.37,0.36,0.36
308.61,7.28,6.91,7.27,6.90,-6.90,-6.88,-6.72,0.38,0.37,0.37
311.69,7.23,6.86,7.23,6.85,-6.85,-6.82,-6.60,0.38,0.38,0.38
314.81,7.19,6.81,7.19,6.80,-6.80,-6.75,-6.48,0.39,0.38,0.38
317.96,7.15,6.77,7.14,6.76,-6.76,-6.69,-6.36,0.39,0.39,0.38
321.14,7.09,6.70,7.10,6.71,-6.71,-6.62,-6.24,0.38,0.39,0.40
324.35,7.04,6.65,7.06,6.66,-6.66,-6.56,-6.13,0.38,0.40,0.39
327.59,7.00,6.59,7.02,6.61,-6.61,-6.49,-6.02,0.39,0.40,0.41
330.87,6.97,6.56,6.98,6.57,-6.57,-6.43,-5.91,0.40,0.41,0.41
334.18,6.93,6.52,6.94,6.52,-6.52,-6.37,-5.81,0.41,0.42,0.41
337.52,6.89,6.47,6.90,6.48,-6.48,-6.31,-5.71,0.42,0.42,0.42
340.90,6.86,6.43,6.86,6.43,-6.43,-6.25,-5.62,0.43,0.43,0.43
344.30,6.82,6.38,6.82,6.39,-6.39,-6.19,-5.53,0.44,0.44,0.44
347.75,6.78,6.34,6.78,6.34,-6.34,-6.13,-5.44,0.44,0.44,0.44
351.23,6.74,6.30,6.74,6.29,-6.29,-6.08,-5.36,0.45,0.45,0.44
354.74,6.70,6.24,6.69,6.24,-6.24,-6.02,-5.28,0.46,0.46,0.47
358.28,6.65,6.19,6.65,6.19,-6.19,-5.97,-5.21,0.46,0.46,0.46
361.87,6.61,6.14,6.60,6.13,-6.13,-5.92,-5.14,0.48,0.47,0.47
365.49,6.57,6.10,6.55,6.08,-6.08,-5.87,-5.07,0.50,0.48,0.47
369.14,6.52,6.03,6.50,6.02,-6.02,-5.82,-5.01,0.51,0.48,0.49
372.83,6.46,5.96,6.45,5.95,-5.95,-5.77,-4.95,0.51,0.49,0.50
376.56,6.38,5.89,6.39,5.89,-5.89,-5.72,-4.89,0.49,0.50,0.49
380.33,6.31,5.81,6.33,5.82,-5.82,-5.68,-4.84,0.49,0.51,0.50
384.13,6.25,5.73,6.27,5.76,-5.76,-5.63,-4.79,0.50,0.52,0.52
387.97,6.20,5.68,6.21,5.69,-5.69,-5.59,-4.75,0.51,0.52,0.52
391.85,6.15,5.62,6.15,5.62,-5.62,-5.54,-4.71,0.53,0.53,0.53
395.77,6.09,5.55,6.09,5.55,-5.55,-5.50,-4.67,0.54,0.54,0.54
399.73,6.03,5.49,6.03,5.48,-5.48,-5.45,-4.63,0.56,0.55,0.55
403.72,5.97,5.40,5.97,5.40,-5.40,-5.40,-4.60,0.57,0.56,0.57
407.76,5.91,5.34,5.90,5.33,-5.33,-5.36,-4.57,0.58,0.57,0.57
411.84,5.84,5.26,5.85,5.27,-5.27,-5.31,-4.54,0.57,0.58,0.58
415.96,5.78,5.19,5.79,5.20,-5.20,-5.26,-4.51,0.58,0.59,0.60
420.12,5.71,5.12,5.73,5.13,-5.13,-5.20,-4.49,0.58,0.60,0.59
424.32,5.66,5.06,5.67,5.06,-5.06,-5.15,-4.46,0.60,0.60,0.60
428.56,5.61,4.99,5.61,4.99,-4.99,-5.09,-4.44,0.62,0.61,0.62
432.85,5.54,4.91,5.54,4.92,-4.92,-5.03,-4.42,0.62,0.62,0.63
437.18,5.47,4.85,5.48,4.85,-4.85,-4.96,-4.39,0.62,0.63,0.63
441.55,5.42,4.79,5.42,4.78,-4.78,-4.90,-4.37,0.64,0.64,0.63
445.96,5.37,4.73,5.35,4.70,-4.70,-4.82,-4.35,0.67,0.65,0.64
450.42,5.29,4.64,5.29,4.63,-4.63,-4.75,-4.33,0.66,0.65,0.65
454.93,5.22,4.56,5.22,4.56,-4.56,-4.67,-4.30,0.67,0.66,0.66
459.48,5.14,4.47,5.15,4.48,-4.48,-4.58,-4.28,0.66,0.67,0.67
464.07,5.08,4.40,5.08,4.40,-4.40,-4.50,-4.25,0.68,0.68,0.69
468.71,5.03,4.34,5.01,4.32,-4.32,-4.41,-4.22,0.71,0.69,0.69
473.40,4.94,4.24,4.94,4.24,-4.24,-4.32,-4.19,0.70,0.70,0.70
478.13,4.86,4.15,4.87,4.16,-4.16,-4.22,-4.15,0.70,0.71,0.71
482.91,4.79,4.07,4.80,4.08,-4.08,-4.13,-4.12,0.71,0.72,0.72
487.74,4.73,4.00,4.73,4.00,-4.00,-4.03,-4.08,0.73,0.73,0.73
492.62,4.66,3.92,4.66,3.92,-3.92,-3.93,-4.03,0.75,0.74,0.74
497.55,4.58,3.83,4.59,3.83,-3.83,-3.83,-3.99,0.75,0.75,0.75
502.52,4.51,3.76,4.51,3.75,-3.75,-3.73,-3.94,0.76,0.76,0.76
507.55,4.44,3.67,4.44,3.67,-3.67,-3.64,-3.88,0.77,0.77,0.77
512.62,4.37,3.59,4.37,3.58,-3.58,-3.54,-3.83,0.79,0.79,0.78
517.75,4.30,3.50,4.30,3.50,-3.50,-3.44,-3.77,0.80,0.80,0.80
522.93,4.22,3.41,4.22,3.41,-3.41,-3.34,-3.70,0.81,0.81,0.81
528.16,4.14,3.32,4.15,3.33,-3.33,-3.24,-3.64,0.81,0.82,0.82
533.44,4.08,3.25,4.08,3.24,-3.24,-3.15,-3.57,0.84,0.83,0.83
