frequency,raw,error,smoothed,error_smoothed,equalization,parametric_eq,fixed_band_eq,equalized_raw,equalized_smoothed,target
20.00,-2.57,-4.58,-2.57,-4.58,4.58,4.49,1.50,2.01,2.01,2.01
20.20,-2.49,-4.59,-2.49,-4.59,4.59,4.46,1.54,2.10,2.10,2.10
20.40,-2.41,-4.59,-2.41,-4.59,4.59,4.43,1.59,2.18,2.18,2.18
20.61,-2.33,-4.58,-2.33,-4.59,4.59,4.40,1.64,2.26,2.26,2.25
20.81,-2.24,-4.58,-2.24,-4.58,4.58,4.37,1.68,2.34,2.34,2.34
21.02,-2.16,-4.58,-2.16,-4.58,4.57,4.34,1.73,2.41,2.41,2.42
21.23,-2.08,-4.56,-2.08,-4.56,4.56,4.31,1.79,2.48,2.48,2.48
21.44,-2.00,-4.54,-2.00,-4.54,4.54,4.28,1.84,2.54,2.54,2.54
21.66,-1.92,-4.51,-1.92,-4.51,4.51,4.25,1.90,2.59,2.59,2.59
21.87,-1.84,-4.48,-1.84,-4.48,4.48,4.22,1.95,2.65,2.64,2.64
22.09,-1.76,-4.45,-1.76,-4.45,4.45,4.19,2.01,2.69,2.69,2.69
22.31,-1.68,-4.42,-1.68,-4.42,4.41,4.15,2.07,2.73,2.74,2.74
22.54,-1.59,-4.37,-1.59,-4.38,4.37,4.12,2.13,2.78,2.78,2.78
22.76,-1.51,-4.33,-1.51,-4.33,4.33,4.09,2.20,2.82,2.82,2.82
22.99,-1.43,-4.28,-1.43,-4.28,4.29,4.06,2.26,2.86,2.86,2.85
23.22,-1.35,-4.24,-1.35,-4.24,4.25,4.03,2.33,2.90,2.90,2.89
23.45,-1.27,-4.20,-1.27,-4.20,4.21,3.99,2.39,2.94,2.94,2.93
23.69,-1.19,-4.16,-1.19,-4.16,4.16,3.96,2.46,2.97,2.97,2.97
23.92,-1.11,-4.12,-1.11,-4.13,4.12,3.93,2.53,3.01,3.01,3.01
24.16,-1.03,-4.09,-1.03,-4.09,4.08,3.89,2.61,3.05,3.05,3.06
24.40,-0.95,-4.04,-0.95,-4.04,4.03,3.86,2.68,3.08,3.08,3.09
24.65,-0.87,-3.98,-0.87,-3.99,3.99,3.83,2.75,3.12,3.12,3.11
24.89,-0.79,-3.93,-0.79,-3.94,3.94,3.79,2.83,3.15,3.15,3.14
25.14,-0.71,-3.89,-0.71,-3.89,3.90,3.76,2.90,3.19,3.18,3.18
25.39,-0.64,-3.85,-0.64,-3.85,3.85,3.72,2.97,3.21,3.21,3.21
25.65,-0.56,-3.81,-0.56,-3.80,3.80,3.69,3.05,3.24,3.24,3.25
25.91,-0.48,-3.75,-0.48,-3.76,3.76,3.65,3.12,3.28,3.27,3.27
26.16,-0.40,-3.70,-0.40,-3.71,3.71,3.62,3.20,3.31,3.31,3.30
26.43,-0.33,-3.67,-0.33,-3.66,3.67,3.58,3.27,3.33,3.34,3.34
26.69,-0.25,-3.62,-0.25,-3.62,3.62,3.55,3.34,3.37,3.37,3.37
26.96,-0.17,-3.57,-0.17,-3.58,3.57,3.51,3.42,3.40,3.40,3.40
27.23,-0.10,-3.53,-0.10,-3.53,3.53,3.48,3.48,3.43,3.43,3.43
27.50,-0.02,-3.48,-0.02,-3.48,3.48,3.44,3.55,3.46,3.46,3.46
27.77,0.05,-3.43,0.05,-3.44,3.44,3.41,3.62,3.49,3.49,3.48
28.05,0.12,-3.40,0.12,-3.40,3.40,3.37,3.68,3.52,3.52,3.52
28.33,0.19,-3.35,0.19,-3.36,3.35,3.33,3.73,3.54,3.54,3.54
28.62,0.26,-3.31,0.26,-3.31,3.31,3.30,3.79,3.57,3.57,3.57
28.90,0.34,-3.27,0.34,-3.27,3.27,3.26,3.83,3.61,3.61,3.61
29.19,0.41,-3.22,0.41,-3.23,3.23,3.22,3.88,3.64,3.64,3.63
29.48,0.48,-3.20,0.48,-3.19,3.19,3.19,3.92,3.67,3.67,3.68
29.78,0.55,-3.14,0.55,-3.15,3.15,3.15,3.95,3.70,3.70,3.69
30.08,0.61,-3.11,0.61,-3.12,3.12,3.11,3.98,3.73,3.73,3.72
30.38,0.67,-3.08,0.67,-3.08,3.09,3.08,4.00,3.76,3.75,3.75
30.68,0.72,-3.06,0.72,-3.06,3.05,3.04,4.01,3.77,3.78,3.78
30.99,0.78,-3.02,0.78,-3.03,3.02,3.00,4.02,3.80,3.80,3.80
31.30,0.83,-2.99,0.83,-3.00,2.99,2.97,4.02,3.82,3.82,3.82
31.61,0.88,-2.97,0.88,-2.97,2.96,2.93,4.01,3.84,3.85,3.85
31.93,0.94,-2.93,0.94,-2.94,2.93,2.89,4.00,3.87,3.87,3.87
32.24,0.99,-2.90,0.99,-2.90,2.90,2.86,3.98,3.89,3.90,3.89
32.57,1.05,-2.87,1.05,-2.87,2.87,2.82,3.96,3.92,3.92,3.92
32.89,1.10,-2.84,1.10,-2.84,2.84,2.78,3.92,3.94,3.94,3.94
33.22,1.16,-2.80,1.16,-2.81,2.81,2.74,3.89,3.97,3.96,3.96
33.55,1.21,-2.77,1.21,-2.77,2.77,2.71,3.84,3.98,3.98,3.98
33.89,1.26,-2.73,1.26,-2.74,2.74,2.67,3.79,4.00,4.00,3.99
34.23,1.31,-2.70,1.31,-2.70,2.70,2.63,3.74,4.01,4.01,4.01
34.57,1.36,-2.66,1.36,-2.66,2.66,2.59,3.68,4.02,4.02,4.02
34.92,1.41,-2.62,1.41,-2.63,2.62,2.56,3.62,4.03,4.03,4.03
35.27,1.46,-2.59,1.46,-2.58,2.58,2.52,3.55,4.04,4.04,4.05
35.62,1.51,-2.53,1.51,-2.54,2.54,2.48,3.49,4.05,4.05,4.04
35.97,1.57,-2.48,1.57,-2.49,2.49,2.44,3.42,4.06,4.06,4.05
36.33,1.62,-2.45,1.62,-2.44,2.44,2.41,3.34,4.06,4.06,4.07
36.70,1.67,-2.39,1.67,-2.39,2.39,2.37,3.27,4.06,4.07,4.06
37.06,1.72,-2.34,1.72,-2.34,2.34,2.33,3.19,4.06,4.06,4.06
37.43,1.77,-2.29,1.77,-2.29,2.29,2.29,3.11,4.06,4.06,4.06
37.81,1.82,-2.24,1.82,-2.24,2.24,2.26,3.04,4.06,4.06,4.06
38.19,1.87,-2.19,1.87,-2.19,2.19,2.22,2.96,4.06,4.06,4.06
38.57,1.92,-2.14,1.92,-2.14,2.14,2.18,2.88,4.06,4.06,4.06
38.95,1.96,-2.10,1.96,-2.09,2.09,2.14,2.80,4.05,4.06,4.06
39.34,2.01,-2.03,2.01,-2.04,2.04,2.11,2.72,4.05,4.05,4.04
39.74,2.05,-1.99,2.05,-1.99,2.00,2.07,2.64,4.05,4.05,4.04
40.14,2.09,-1.94,2.09,-1.94,1.95,2.03,2.57,4.04,4.04,4.03
40.54,2.13,-1.90,2.13,-1.90,1.90,1.99,2.49,4.03,4.03,4.03
40.94,2.16,-1.86,2.16,-1.86,1.86,1.96,2.42,4.02,4.02,4.02
41.35,2.20,-1.82,2.20,-1.82,1.82,1.92,2.34,4.02,4.02,4.02
41.76,2.24,-1.77,2.24,-1.77,1.77,1.88,2.27,4.01,4.01,4.01
42.18,2.28,-1.72,2.28,-1.73,1.73,1.85,2.20,4.01,4.00,4.00
42.60,2.31,-1.68,2.31,-1.68,1.68,1.81,2.13,3.99,4.00,3.99
43.03,2.35,-1.64,2.35,-1.64,1.63,1.77,2.06,3.98,3.98,3.99
43.46,2.39,-1.59,2.39,-1.59,1.59,1.74,1.99,3.98,3.97,3.98
43.90,2.42,-1.54,2.42,-1.54,1.54,1.70,1.93,3.96,3.96,3.96
44.33,2.46,-1.48,2.46,-1.49,1.49,1.66,1.86,3.95,3.95,3.94
44.78,2.49,-1.44,2.49,-1.44,1.44,1.63,1.80,3.93,3.93,3.93
45.23,2.53,-1.39,2.53,-1.39,1.40,1.59,1.74,3.93,3.93,3.92
45.68,2.56,-1.35,2.56,-1.35,1.35,1.55,1.68,3.91,3.92,3.91
46.13,2.60,-1.30,2.60,-1.31,1.31,1.52,1.62,3.91,3.91,3.90
46.60,2.63,-1.27,2.63,-1.27,1.27,1.48,1.56,3.90,3.90,3.90
47.06,2.66,-1.23,2.66,-1.23,1.23,1.45,1.51,3.89,3.89,3.89
47.53,2.69,-1.19,2.69,-1.20,1.19,1.41,1.45,3.88,3.88,3.88
48.01,2.72,-1.16,2.72,-1.16,1.15,1.37,1.40,3.87,3.87,3.88
48.49,2.75,-1.12,2.75,-1.12,1.12,1.34,1.35,3.87,3.87,3.87
48.97,2.78,-1.08,2.78,-1.08,1.09,1.30,1.30,3.87,3.86,3.86
49.46,2.80,-1.04,2.80,-1.04,1.06,1.27,1.25,3.86,3.86,3.84
49.96,2.82,-1.01,2.82,-1.02,1.03,1.23,1.20,3.85,3.85,3.83
50.46,2.83,-1.01,2.83,-1.01,1.01,1.19,1.16,3.84,3.84,3.84
50.96,2.84,-1.00,2.84,-1.00,0.99,1.16,1.11,3.83,3.83,3.84
51.47,2.85,-0.98,2.85,-0.98,0.98,1.12,1.07,3.83,3.83,3.83
51.99,2.87,-0.96,2.87,-0.96,0.96,1.09,1.02,3.83,3.83,3.83
52.51,2.89,-0.94,2.89,-0.95,0.95,1.05,0.98,3.84,3.83,3.83
53.03,2.90,-0.93,2.90,-0.93,0.93,1.02,0.94,3.83,3.83,3.83
53.56,2.92,-0.91,2.92,-0.91,0.91,0.98,0.90,3.83,3.83,3.83
54.10,2.93,-0.89,2.93,-0.89,0.89,0.95,0.86,3.82,3.82,3.82
54.64,2.95,-0.86,2.95,-0.86,0.86,0.91,0.82,3.81,3.81,3.81
55.18,2.97,-0.83,2.97,-0.83,0.83,0.88,0.78,3.80,3.80,3.80
55.74,2.99,-0.79,2.99,-0.80,0.80,0.84,0.74,3.79,3.79,3.78
56.29,3.01,-0.77,3.01,-0.77,0.77,0.80,0.71,3.78,3.78,3.78
56.86,3.03,-0.73,3.03,-0.73,0.74,0.77,0.67,3.76,3.77,3.76
57.42,3.05,-0.69,3.05,-0.70,0.70,0.73,0.64,3.75,3.75,3.74
58.00,3.07,-0.66,3.07,-0.66,0.67,0.70,0.60,3.74,3.74,3.73
58.58,3.08,-0.63,3.08,-0.64,0.64,0.66,0.57,3.72,3.72,3.71
59.16,3.09,-0.61,3.09,-0.61,0.61,0.63,0.53,3.70,3.70,3.70
59.76,3.10,-0.58,3.10,-0.58,0.57,0.59,0.50,3.67,3.67,3.68
60.35,3.11,-0.54,3.11,-0.55,0.53,0.55,0.46,3.64,3.65,3.65
60.96,3.13,-0.51,3.13,-0.50,0.49,0.52,0.43,3.62,3.62,3.64
61.57,3.15,-0.44,3.15,-0.45,0.45,0.48,0.40,3.60,3.60,3.59
62.18,3.17,-0.39,3.17,-0.40,0.40,0.45,0.36,3.57,3.57,3.56
62.80,3.19,-0.36,3.19,-0.35,0.35,0.41,0.33,3.54,3.54,3.55
63.43,3.22,-0.29,3.22,-0.30,0.30,0.37,0.30,3.52,3.52,3.51
64.07,3.25,-0.24,3.25,-0.25,0.25,0.34,0.27,3.50,3.50,3.49
64.71,3.28,-0.20,3.28,-0.20,0.21,0.30,0.23,3.48,3.48,3.48
65.35,3.30,-0.16,3.30,-0.16,0.16,0.26,0.20,3.46,3.47,3.46
66.01,3.33,-0.12,3.33,-0.12,0.12,0.23,0.17,3.45,3.45,3.45
66.67,3.36,-0.08,3.36,-0.08,0.08,0.19,0.14,3.44,3.44,3.44
67.33,3.38,-0.05,3.38,-0.05,0.05,0.15,0.10,3.43,3.43,3.43
68.01,3.41,-0.01,3.41,-0.01,0.02,0.12,0.07,3.43,3.43,3.42
68.69,3.43,0.02,3.43,0.01,-0.01,0.08,0.04,3.42,3.42,3.41
69.37,3.45,0.04,3.45,0.04,-0.04,0.04,0.01,3.41,3.41,3.41
70.07,3.46,0.06,3.46,0.06,-0.06,0.00,-0.03,3.40,3.40,3.40
70.77,3.48,0.08,3.48,0.08,-0.09,-0.04,-0.06,3.39,3.39,3.40
71.48,3.50,0.11,3.50,0.11,-0.12,-0.07,-0.09,3.38,3.38,3.39
72.19,3.53,0.16,3.53,0.15,-0.15,-0.11,-0.13,3.38,3.38,3.37
72.91,3.55,0.18,3.55,0.18,-0.18,-0.15,-0.16,3.37,3.37,3.37
73.64,3.56,0.21,3.56,0.21,-0.21,-0.19,-0.19,3.35,3.35,3.35
74.38,3.58,0.24,3.58,0.24,-0.24,-0.23,-0.23,3.34,3.34,3.34
75.12,3.59,0.27,3.59,0.27,-0.26,-0.27,-0.26,3.33,3.33,3.32
75.87,3.61,0.30,3.61,0.29,-0.28,-0.31,-0.30,3.33,3.32,3.31
76.63,3.61,0.31,3.61,0.31,-0.30,-0.35,-0.33,3.31,3.31,3.30
77.40,3.60,0.32,3.60,0.32,-0.31,-0.39,-0.37,3.29,3.29,3.28
78.17,3.59,0.33,3.59,0.32,-0.32,-0.43,-0.41,3.27,3.27,3.26
78.95,3.58,0.32,3.58,0.32,-0.33,-0.47,-0.44,3.25,3.25,3.26
79.74,3.57,0.32,3.58,0.32,-0.34,-0.51,-0.48,3.23,3.24,3.25
80.54,3.58,0.34,3.58,0.34,-0.35,-0.55,-0.52,3.23,3.23,3.24
81.35,3.59,0.36,3.59,0.35,-0.36,-0.59,-0.56,3.23,3.23,3.23
82.16,3.60,0.38,3.60,0.37,-0.37,-0.63,-0.60,3.23,3.23,3.22
82.98,3.62,0.39,3.62,0.40,-0.39,-0.67,-0.64,3.23,3.23,3.23
83.81,3.64,0.42,3.64,0.42,-0.42,-0.71,-0.68,3.22,3.22,3.22
84.65,3.67,0.46,3.67,0.44,-0.44,-0.76,-0.72,3.23,3.22,3.21
85.50,3.69,0.47,3.69,0.48,-0.47,-0.80,-0.76,3.22,3.22,3.22
86.35,3.72,0.50,3.72,0.50,-0.51,-0.84,-0.80,3.21,3.22,3.22
87.22,3.76,0.55,3.75,0.54,-0.54,-0.88,-0.85,3.22,3.21,3.21
88.09,3.78,0.57,3.79,0.58,-0.58,-0.92,-0.89,3.20,3.21,3.21
88.97,3.82,0.62,3.82,0.62,-0.62,-0.97,-0.94,3.20,3.20,3.20
89.86,3.85,0.66,3.85,0.65,-0.66,-1.01,-0.98,3.19,3.19,3.19
90.76,3.87,0.70,3.87,0.70,-0.70,-1.05,-1.03,3.17,3.17,3.17
91.66,3.89,0.74,3.89,0.74,-0.74,-1.09,-1.08,3.15,3.15,3.15
92.58,3.91,0.79,3.91,0.78,-0.78,-1.13,-1.12,3.13,3.13,3.12
93.51,3.93,0.83,3.92,0.82,-0.82,-1.17,-1.17,3.11,3.10,3.10
94.44,3.93,0.86,3.94,0.87,-0.86,-1.22,-1.22,3.07,3.07,3.07
95.39,3.94,0.91,3.94,0.90,-0.90,-1.26,-1.27,3.04,3.04,3.03
96.34,3.94,0.95,3.93,0.95,-0.95,-1.30,-1.32,2.99,2.99,2.99
97.30,3.92,0.99,3.92,0.99,-0.99,-1.34,-1.37,2.93,2.93,2.93
98.28,3.91,1.03,3.91,1.03,-1.04,-1.38,-1.43,2.87,2.88,2.88
99.26,3.91,1.08,3.91,1.08,-1.09,-1.42,-1.48,2.82,2.82,2.83
100.25,3.91,1.14,3.91,1.14,-1.14,-1.46,-1.53,2.77,2.77,2.77
101.25,3.91,1.20,3.91,1.20,-1.20,-1.50,-1.58,2.71,2.71,2.71
102.27,3.91,1.26,3.91,1.26,-1.25,-1.54,-1.63,2.66,2.66,2.65
103.29,3.91,1.32,3.91,1.31,-1.31,-1.58,-1.69,2.60,2.60,2.59
104.32,3.91,1.37,3.91,1.38,-1.37,-1.62,-1.74,2.54,2.54,2.54
105.37,3.91,1.44,3.91,1.43,-1.43,-1.66,-1.79,2.48,2.48,2.47
106.42,3.91,1.50,3.91,1.49,-1.49,-1.70,-1.84,2.42,2.42,2.41
107.48,3.91,1.55,3.91,1.55,-1.55,-1.73,-1.89,2.36,2.36,2.36
108.56,3.91,1.61,3.91,1.61,-1.61,-1.77,-1.94,2.30,2.30,2.30
109.64,3.91,1.67,3.91,1.66,-1.66,-1.81,-1.99,2.25,2.25,2.24
110.74,3.91,1.72,3.91,1.72,-1.72,-1.84,-2.04,2.19,2.19,2.19
111.85,3.91,1.76,3.91,1.77,-1.77,-1.88,-2.08,2.14,2.14,2.15
112.97,3.91,1.83,3.91,1.82,-1.82,-1.91,-2.12,2.09,2.09,2.08
114.10,3.91,1.87,3.91,1.87,-1.87,-1.94,-2.17,2.04,2.04,2.04
115.24,3.91,1.92,3.91,1.92,-1.92,-1.97,-2.20,1.99,1.99,1.99
116.39,3.91,1.97,3.91,1.96,-1.96,-2.01,-2.24,1.95,1.95,1.94
117.55,3.91,2.01,3.91,2.01,-2.00,-2.04,-2.27,1.91,1.91,1.90
118.73,3.91,2.05,3.91,2.05,-2.04,-2.07,-2.31,1.87,1.87,1.86
119.92,3.91,2.08,3.91,2.08,-2.08,-2.10,-2.33,1.83,1.83,1.83
121.12,3.91,2.11,3.91,2.11,-2.11,-2.13,-2.36,1.80,1.80,1.80
122.33,3.91,2.14,3.91,2.14,-2.15,-2.15,-2.38,1.76,1.76,1.77
123.55,3.91,2.17,3.91,2.17,-2.18,-2.18,-2.40,1.73,1.73,1.74
124.79,3.92,2.21,3.92,2.21,-2.21,-2.20,-2.41,1.71,1.71,1.71
126.03,3.94,2.25,3.93,2.25,-2.24,-2.23,-2.43,1.70,1.69,1.69
127.29,3.94,2.28,3.94,2.28,-2.27,-2.25,-2.43,1.67,1.67,1.66
128.57,3.94,2.32,3.94,2.30,-2.30,-2.28,-2.44,1.64,1.64,1.62
129.85,3.92,2.32,3.92,2.32,-2.32,-2.30,-2.44,1.60,1.61,1.60
131.15,3.90,2.33,3.91,2.34,-2.33,-2.32,-2.44,1.57,1.57,1.57
132.46,3.89,2.36,3.88,2.34,-2.34,-2.34,-2.43,1.55,1.54,1.53
133.79,3.86,2.35,3.86,2.35,-2.35,-2.35,-2.43,1.51,1.51,1.51
135.12,3.82,2.34,3.83,2.35,-2.35,-2.37,-2.42,1.47,1.48,1.48
136.48,3.80,2.35,3.79,2.34,-2.35,-2.39,-2.41,1.45,1.45,1.45
137.84,3.76,2.34,3.76,2.35,-2.35,-2.40,-2.39,1.41,1.42,1.42
139.22,3.73,2.36,3.73,2.35,-2.35,-2.42,-2.38,1.38,1.38,1.37
140.61,3.70,2.36,3.69,2.35,-2.35,-2.43,-2.36,1.35,1.34,1.34
142.02,3.65,2.33,3.66,2.35,-2.36,-2.44,-2.34,1.29,1.31,1.32
143.44,3.64,2.36,3.64,2.36,-2.37,-2.45,-2.32,1.27,1.27,1.28
144.87,3.62,2.38,3.62,2.38,-2.38,-2.46,-2.30,1.24,1.24,1.24
146.32,3.61,2.41,3.61,2.40,-2.40,-2.47,-2.28,1.21,1.21,1.20
147.78,3.59,2.42,3.59,2.42,-2.42,-2.48,-2.26,1.17,1.17,1.17
149.26,3.58,2.44,3.58,2.44,-2.44,-2.48,-2.24,1.14,1.13,1.14
150.75,3.56,2.47,3.56,2.47,-2.47,-2.49,-2.22,1.09,1.10,1.09
152.26,3.55,2.50,3.55,2.50,-2.49,-2.49,-2.19,1.06,1.07,1.05
153.78,3.54,2.52,3.53,2.52,-2.51,-2.50,-2.17,1.03,1.03,1.02
155.32,3.52,2.55,3.51,2.53,-2.53,-2.50,-2.15,0.99,0.98,0.97
156.88,3.47,2.53,3.48,2.55,-2.55,-2.50,-2.13,0.92,0.93,0.94
158.44,3.45,2.57,3.44,2.56,-2.57,-2.50,-2.11,0.88,0.88,0.88
160.03,3.41,2.57,3.41,2.57,-2.58,-2.50,-2.09,0.83,0.83,0.84
161.63,3.39,2.60,3.39,2.60,-2.60,-2.50,-2.08,0.79,0.79,0.79
163.24,3.37,2.62,3.37,2.61,-2.61,-2.49,-2.06,0.76,0.76,0.75
164.88,3.34,2.63,3.34,2.63,-2.62,-2.49,-2.05,0.72,0.72,0.71
166.53,3.31,2.64,3.31,2.64,-2.63,-2.49,-2.04,0.68,0.68,0.67
168.19,3.28,2.65,3.28,2.64,-2.64,-2.48,-2.02,0.64,0.63,0.63
169.87,3.24,2.65,3.24,2.65,-2.65,-2.47,-2.01,0.59,0.59,0.59
171.57,3.21,2.65,3.21,2.65,-2.67,-2.47,-2.01,0.54,0.55,0.56
173.29,3.19,2.67,3.19,2.66,-2.68,-2.46,-2.00,0.51,0.51,0.52
175.02,3.16,2.68,3.16,2.68,-2.68,-2.45,-1.99,0.48,0.48,0.48
176.77,3.14,2.69,3.14,2.69,-2.69,-2.44,-1.99,0.45,0.45,0.45
178.54,3.12,2.70,3.12,2.70,-2.69,-2.43,-1.99,0.43,0.43,0.42
180.32,3.10,2.71,3.10,2.70,-2.68,-2.42,-1.99,0.42,0.41,0.39
182.13,3.07,2.70,3.06,2.69,-2.67,-2.40,-1.99,0.40,0.39,0.37
183.95,3.01,2.66,3.02,2.67,-2.66,-2.39,-1.99,0.35,0.36,0.35
185.79,2.97,2.64,2.97,2.64,-2.64,-2.38,-1.99,0.33,0.33,0.33
187.65,2.93,2.62,2.92,2.61,-2.62,-2.36,-2.00,0.31,0.30,0.31
189.52,2.88,2.58,2.89,2.59,-2.60,-2.35,-2.01,0.28,0.29,0.30
191.42,2.85,2.57,2.85,2.56,-2.58,-2.33,-2.02,0.27,0.27,0.28
193.33,2.82,2.55,2.82,2.55,-2.56,-2.31,-2.03,0.26,0.26,0.27
195.27,2.80,2.54,2.80,2.54,-2.54,-2.30,-2.04,0.26,0.26,0.26
197.22,2.77,2.53,2.77,2.53,-2.52,-2.28,-2.05,0.25,0.25,0.24
199.19,2.74,2.52,2.74,2.51,-2.50,-2.26,-2.06,0.24,0.24,0.22
201.18,2.70,2.49,2.70,2.48,-2.47,-2.24,-2.07,0.23,0.23,0.21
203.19,2.65,2.44,2.65,2.44,-2.44,-2.22,-2.09,0.21,0.21,0.21
205.23,2.60,2.41,2.60,2.40,-2.41,-2.20,-2.10,0.19,0.19,0.19
207.28,2.55,2.36,2.55,2.37,-2.38,-2.18,-2.12,0.17,0.18,0.19
209.35,2.51,2.34,2.51,2.34,-2.34,-2.16,-2.14,0.17,0.17,0.17
211.44,2.46,2.31,2.46,2.31,-2.30,-2.14,-2.15,0.16,0.16,0.15
213.56,2.42,2.28,2.42,2.27,-2.27,-2.12,-2.17,0.15,0.15,0.14
215.69,2.37,2.23,2.37,2.23,-2.23,-2.09,-2.18,0.14,0.14,0.14
217.85,2.31,2.19,2.32,2.20,-2.20,-2.07,-2.20,0.11,0.12,0.12
220.03,2.28,2.17,2.27,2.16,-2.16,-2.05,-2.21,0.12,0.11,0.11
222.23,2.23,2.14,2.23,2.13,-2.13,-2.02,-2.22,0.10,0.10,0.09
224.45,2.18,2.09,2.18,2.10,-2.09,-2.00,-2.24,0.09,0.09,0.09
226.70,2.14,2.07,2.13,2.06,-2.06,-1.98,-2.25,0.08,0.07,0.07
228.96,2.08,2.02,2.09,2.03,-2.03,-1.95,-2.25,0.05,0.06,0.06
231.25,2.05,2.00,2.05,2.00,-2.00,-1.93,-2.26,0.05,0.05,0.05
233.57,2.02,1.99,2.01,1.97,-1.98,-1.90,-2.26,0.04,0.03,0.03
235.90,1.97,1.95,1.97,1.95,-1.95,-1.88,-2.26,0.02,0.02,0.02
238.26,1.93,1.93,1.93,1.93,-1.93,-1.85,-2.26,0.00,0.01,0.00
240.64,1.89,1.91,1.89,1.90,-1.90,-1.82,-2.26,-0.01,-0.01,-0.02
243.05,1.85,1.88,1.85,1.88,-1.88,-1.80,-2.25,-0.03,-0.03,-0.03
245.48,1.81,1.85,1.81,1.85,-1.85,-1.77,-2.24,-0.04,-0.04,-0.04
247.93,1.77,1.82,1.78,1.82,-1.82,-1.74,-2.23,-0.05,-0.05,-0.05
250.41,1.75,1.81,1.75,1.80,-1.80,-1.72,-2.21,-0.05,-0.05,-0.06
252.92,1.72,1.77,1.72,1.77,-1.77,-1.69,-2.19,-0.05,-0.05,-0.05
255.45,1.70,1.75,1.70,1.74,-1.75,-1.66,-2.17,-0.05,-0.05,-0.05
258.00,1.68,1.72,1.68,1.72,-1.72,-1.63,-2.15,-0.04,-0.05,-0.04
260.58,1.65,1.69,1.66,1.69,-1.70,-1.61,-2.11,-0.05,-0.04,-0.04
263.19,1.65,1.68,1.65,1.67,-1.68,-1.58,-2.08,-0.03,-0.03,-0.03
265.82,1.64,1.66,1.64,1.66,-1.66,-1.55,-2.05,-0.02,-0.02,-0.02
268.48,1.64,1.64,1.64,1.64,-1.64,-1.52,-2.01,0.00,0.00,0.00
271.16,1.64,1.62,1.64,1.62,-1.62,-1.49,-1.97,0.02,0.02,0.02
273.87,1.63,1.60,1.63,1.59,-1.59,-1.46,-1.93,0.04,0.04,0.03
276.61,1.62,1.56,1.62,1.56,-1.57,-1.43,-1.88,0.05,0.05,0.06
279.38,1.60,1.54,1.60,1.54,-1.53,-1.40,-1.83,0.07,0.07,0.06
282.17,1.58,1.50,1.58,1.50,-1.50,-1.37,-1.78,0.08,0.09,0.08
284.99,1.56,1.47,1.55,1.46,-1.45,-1.34,-1.73,0.11,0.10,0.09
287.84,1.52,1.41,1.52,1.41,-1.40,-1.31,-1.68,0.12,0.12,0.11
290.72,1.47,1.34,1.48,1.35,-1.34,-1.28,-1.62,0.13,0.13,0.13
293.63,1.43,1.29,1.43,1.28,-1.28,-1.25,-1.57,0.15,0.15,0.14
296.57,1.38,1.21,1.38,1.21,-1.21,-1.22,-1.51,0.17,0.17,0.17
299.53,1.33,1.15,1.33,1.15,-1.14,-1.19,-1.45,0.19,0.19,0.18
302.53,1.27,1.08,1.27,1.07,-1.07,-1.16,-1.40,0.20,0.20,0.19
305.55,1.22,1.00,1.22,1.00,-1.00,-1.13,-1.34,0.22,0.22,0.22
308.61,1.17,0.93,1.17,0.92,-0.93,-1.10,-1.28,0.24,0.24,0.24
311.69,1.12,0.85,1.13,0.85,-0.87,-1.07,-1.22,0.25,0.26,0.27
314.81,1.10,0.79,1.10,0.79,-0.80,-1.04,-1.16,0.30,0.29,0.31
317.96,1.07,0.75,1.07,0.74,-0.75,-1.00,-1.10,0.32,0.32,0.32
321.14,1.05,0.71,1.05,0.70,-0.70,-0.97,-1.04,0.35,0.35,0.34
324.35,1.02,0.66,1.02,0.66,-0.65,-0.94,-0.98,0.37,0.37,0.36
327.59,1.00,0.62,1.00,0.62,-0.61,-0.91,-0.93,0.39,0.39,0.38
330.87,0.99,0.59,0.98,0.58,-0.58,-0.88,-0.87,0.41,0.40,0.40
334.18,0.97,0.54,0.97,0.55,-0.55,-0.84,-0.81,0.42,0.42,0.43
337.52,0.97,0.52,0.97,0.52,-0.53,-0.81,-0.75,0.44,0.44,0.45
340.90,0.98,0.51,0.98,0.50,-0.51,-0.78,-0.69,0.47,0.47,0.47
344.30,0.99,0.49,0.99,0.49,-0.49,-0.74,-0.63,0.50,0.50,0.50
347.75,1.00,0.48,1.00,0.47,-0.47,-0.71,-0.58,0.53,0.53,0.52
351.23,1.01,0.46,1.01,0.46,-0.45,-0.67,-0.52,0.56,0.55,0.55
354.74,1.01,0.43,1.01,0.44,-0.43,-0.64,-0.46,0.58,0.58,0.58
358.28,1.02,0.43,1.02,0.41,-0.41,-0.60,-0.41,0.61,0.61,0.59
361.87,1.01,0.39,1.01,0.39,-0.38,-0.57,-0.35,0.63,0.63,0.62
365.49,1.00,0.35,1.00,0.36,-0.35,-0.53,-0.30,0.65,0.65,0.65
369.14,0.98,0.32,0.98,0.31,-0.31,-0.50,-0.24,0.67,0.67,0.66
372.83,0.96,0.27,0.96,0.26,-0.26,-0.46,-0.19,0.70,0.69,0.69
376.56,0.92,0.21,0.93,0.21,-0.21,-0.42,-0.13,0.71,0.71,0.71
380.33,0.90,0.16,0.90,0.16,-0.16,-0.39,-0.08,0.74,0.74,0.74
384.13,0.87,0.12,0.87,0.11,-0.11,-0.35,-0.03,0.76,0.76,0.75
387.97,0.84,0.07,0.84,0.06,-0.06,-0.31,0.03,0.78,0.77,0.77
391.85,0.80,0.02,0.80,0.01,-0.02,-0.27,0.08,0.78,0.79,0.78
395.77,0.77,-0.04,0.77,-0.03,0.02,-0.24,0.13,0.79,0.80,0.81
399.73,0.75,-0.07,0.75,-0.07,0.06,-0.20,0.18,0.81,0.81,0.82
403.72,0.73,-0.09,0.73,-0.10,0.09,-0.16,0.24,0.82,0.82,0.82
407.76,0.71,-0.12,0.71,-0.12,0.12,-0.12,0.29,0.83,0.83,0.83
411.84,0.69,-0.15,0.69,-0.14,0.14,-0.08,0.34,0.83,0.84,0.84
415.96,0.68,-0.15,0.67,-0.16,0.16,-0.04,0.38,0.84,0.83,0.83
420.12,0.65,-0.18,0.65,-0.18,0.18,0.01,0.43,0.83,0.83,0.83
424.32,0.63,-0.20,0.64,-0.20,0.20,0.05,0.48,0.83,0.83,0.83
428.56,0.62,-0.21,0.62,-0.21,0.22,0.09,0.53,0.84,0.83,0.83
432.85,0.60,-0.22,0.60,-0.23,0.24,0.13,0.57,0.84,0.84,0.82
437.18,0.57,-0.25,0.57,-0.25,0.26,0.18,0.61,0.83,0.83,0.82
441.55,0.54,-0.28,0.54,-0.28,0.29,0.22,0.66,0.83,0.82,0.82
445.96,0.50,-0.31,0.50,-0.32,0.32,0.26,0.70,0.82,0.82,0.81
450.42,0.46,-0.35,0.47,-0.35,0.34,0.31,0.74,0.80,0.81,0.81
454.93,0.44,-0.37,0.43,-0.38,0.37,0.35,0.78,0.81,0.80,0.81
459.48,0.40,-0.40,0.40,-0.41,0.40,0.40,0.81,0.80,0.80,0.80
464.07,0.38,-0.43,0.38,-0.42,0.42,0.44,0.85,0.80,0.80,0.81
468.71,0.37,-0.44,0.37,-0.44,0.44,0.49,0.88,0.81,0.80,0.81
473.40,0.36,-0.44,0.36,-0.45,0.45,0.53,0.91,0.81,0.81,0.80
478.13,0.34,-0.47,0.34,-0.46,0.46,0.58,0.94,0.80,0.81,0.81
482.91,0.33,-0.47,0.33,-0.48,0.48,0.62,0.96,0.81,0.81,0.80
487.74,0.32,-0.49,0.32,-0.49,0.49,0.67,0.98,0.81,0.81,0.81
492.62,0.31,-0.51,0.31,-0.51,0.51,0.71,1.01,0.82,0.82,0.82
497.55,0.29,-0.52,0.29,-0.53,0.54,0.76,1.02,0.83,0.83,0.81
502.52,0.26,-0.56,0.26,-0.56,0.57,0.80,1.04,0.83,0.83,0.82
507.55,0.23,-0.59,0.23,-0.60,0.60,0.84,1.05,0.83,0.83,0.82
512.62,0.19,-0.64,0.19,-0.64,0.64,0.89,1.07,0.83,0.83,0.83
517.75,0.16,-0.68,0.16,-0.68,0.68,0.93,1.08,0.84,0.84,0.84
522.93,0.12,-0.73,0.12,-0.73,0.72,0.97,1.08,0.84,0.85,0.85
528.16,0.09,-0.76,0.09,-0.76,0.77,1.01,1.09,0.86,0.86,0.85
533.44,0.07,-0.79,0.06,-0.80,0.81,1.05,1.09,0.88,0.87,0.86
538.77,0.04,-0.84,0.04,-0.84,0.84,1.08,1.09,0.88,0.88,0.88
544.16,0.01,-0.88,0.02,-0.88,0.87,1.12,1.09,0.88,0.89,0.89
549.60,-0.00,-0.91,0.00,-0.91,0.89,1.15,1.09,0.89,0.90,0.91
