frequency,raw,error,smoothed,error_smoothed,equalization,parametric_eq,fixed_band_eq,equalized_raw,equalized_smoothed,target
20.00,-3.63,-6.00,-3.64,-6.01,6.01,5.60,1.66,2.38,2.37,2.37
20.20,-3.57,-5.93,-3.57,-5.93,5.93,5.56,1.71,2.36,2.36,2.36
20.40,-3.51,-5.86,-3.51,-5.86,5.86,5.53,1.76,2.35,2.35,2.35
20.61,-3.45,-5.79,-3.45,-5.79,5.79,5.49,1.82,2.33,2.34,2.34
20.81,-3.39,-5.71,-3.39,-5.71,5.71,5.45,1.87,2.32,2.33,2.32
21.02,-3.32,-5.63,-3.32,-5.64,5.64,5.41,1.93,2.32,2.32,2.31
21.23,-3.26,-5.56,-3.26,-5.57,5.57,5.37,1.99,2.31,2.31,2.30
21.44,-3.20,-5.51,-3.20,-5.50,5.50,5.33,2.05,2.30,2.30,2.31
21.66,-3.14,-5.43,-3.14,-5.43,5.43,5.29,2.11,2.28,2.29,2.29
21.87,-3.08,-5.37,-3.08,-5.36,5.36,5.25,2.18,2.28,2.28,2.29
22.09,-3.01,-5.28,-3.02,-5.29,5.29,5.21,2.24,2.28,2.27,2.27
22.31,-2.95,-5.21,-2.96,-5.22,5.22,5.17,2.31,2.27,2.26,2.26
22.54,-2.89,-5.14,-2.89,-5.15,5.15,5.13,2.38,2.26,2.26,2.25
22.76,-2.83,-5.08,-2.83,-5.08,5.08,5.08,2.45,2.25,2.25,2.25
22.99,-2.77,-5.01,-2.77,-5.02,5.02,5.04,2.53,2.24,2.25,2.24
23.22,-2.71,-4.94,-2.71,-4.95,4.95,4.99,2.60,2.24,2.24,2.23
23.45,-2.65,-4.89,-2.65,-4.89,4.89,4.95,2.68,2.23,2.24,2.24
23.69,-2.59,-4.82,-2.59,-4.82,4.82,4.90,2.76,2.23,2.23,2.23
23.92,-2.53,-4.75,-2.53,-4.76,4.76,4.86,2.83,2.23,2.23,2.22
24.16,-2.47,-4.70,-2.47,-4.70,4.70,4.81,2.91,2.22,2.22,2.23
24.40,-2.41,-4.64,-2.41,-4.63,4.63,4.76,3.00,2.22,2.22,2.23
24.65,-2.35,-4.57,-2.35,-4.57,4.57,4.72,3.08,2.22,2.22,2.22
24.89,-2.29,-4.51,-2.30,-4.51,4.51,4.67,3.16,2.22,2.22,2.22
25.14,-2.24,-4.45,-2.24,-4.45,4.45,4.62,3.24,2.21,2.22,2.21
25.39,-2.18,-4.39,-2.18,-4.39,4.39,4.57,3.33,2.21,2.21,2.21
25.65,-2.12,-4.33,-2.12,-4.33,4.33,4.52,3.41,2.21,2.21,2.21
25.91,-2.06,-4.27,-2.06,-4.28,4.28,4.47,3.50,2.21,2.21,2.21
26.16,-2.00,-4.22,-2.01,-4.22,4.22,4.42,3.58,2.22,2.21,2.22
26.43,-1.95,-4.16,-1.95,-4.16,4.16,4.37,3.66,2.21,2.21,2.21
26.69,-1.89,-4.10,-1.89,-4.11,4.11,4.32,3.74,2.21,2.21,2.21
26.96,-1.84,-4.05,-1.84,-4.05,4.05,4.27,3.82,2.21,2.21,2.21
27.23,-1.78,-3.99,-1.78,-4.00,4.00,4.22,3.90,2.21,2.21,2.21
27.50,-1.73,-3.94,-1.73,-3.94,3.94,4.16,3.97,2.21,2.22,2.21
27.77,-1.67,-3.89,-1.67,-3.89,3.89,4.11,4.04,2.22,2.22,2.22
28.05,-1.62,-3.83,-1.62,-3.84,3.84,4.06,4.11,2.22,2.22,2.21
28.33,-1.57,-3.79,-1.56,-3.78,3.78,4.00,4.17,2.21,2.22,2.22
28.62,-1.51,-3.73,-1.51,-3.73,3.73,3.95,4.23,2.22,2.22,2.22
28.90,-1.46,-3.69,-1.46,-3.68,3.68,3.90,4.28,2.22,2.22,2.23
29.19,-1.41,-3.64,-1.42,-3.64,3.64,3.84,4.33,2.22,2.22,2.23
29.48,-1.36,-3.58,-1.37,-3.59,3.59,3.79,4.36,2.23,2.22,2.22
29.78,-1.31,-3.53,-1.32,-3.54,3.54,3.74,4.40,2.23,2.22,2.22
30.08,-1.26,-3.48,-1.28,-3.49,3.49,3.68,4.42,2.23,2.21,2.22
30.38,-1.23,-3.43,-1.24,-3.45,3.45,3.63,4.44,2.22,2.21,2.20
30.68,-1.19,-3.39,-1.20,-3.40,3.40,3.57,4.45,2.21,2.21,2.20
30.99,-1.16,-3.36,-1.16,-3.36,3.36,3.51,4.46,2.20,2.20,2.20
31.30,-1.12,-3.32,-1.12,-3.31,3.31,3.46,4.45,2.19,2.20,2.20
31.61,-1.09,-3.28,-1.08,-3.27,3.27,3.40,4.44,2.18,2.19,2.19
31.93,-1.05,-3.22,-1.04,-3.22,3.22,3.35,4.42,2.17,2.18,2.17
32.24,-1.01,-3.19,-1.00,-3.18,3.18,3.29,4.39,2.17,2.17,2.18
32.57,-0.97,-3.13,-0.97,-3.13,3.13,3.24,4.35,2.16,2.17,2.16
32.89,-0.93,-3.09,-0.93,-3.09,3.09,3.18,4.31,2.16,2.16,2.16
33.22,-0.89,-3.04,-0.89,-3.05,3.05,3.12,4.26,2.15,2.15,2.15
33.55,-0.85,-3.00,-0.85,-3.00,3.00,3.07,4.20,2.15,2.15,2.15
33.89,-0.81,-2.95,-0.81,-2.95,2.95,3.01,4.14,2.14,2.14,2.14
34.23,-0.77,-2.89,-0.78,-2.91,2.91,2.95,4.07,2.14,2.13,2.12
34.57,-0.73,-2.85,-0.74,-2.86,2.86,2.89,4.00,2.13,2.12,2.12
34.92,-0.69,-2.79,-0.70,-2.81,2.81,2.84,3.92,2.12,2.11,2.10
35.27,-0.66,-2.78,-0.66,-2.77,2.77,2.78,3.84,2.10,2.10,2.12
35.62,-0.62,-2.71,-0.63,-2.72,2.72,2.72,3.75,2.10,2.09,2.09
35.97,-0.59,-2.68,-0.59,-2.67,2.67,2.66,3.66,2.08,2.08,2.09
36.33,-0.56,-2.63,-0.56,-2.62,2.62,2.61,3.57,2.06,2.06,2.07
36.70,-0.53,-2.58,-0.53,-2.58,2.58,2.55,3.47,2.04,2.05,2.05
37.06,-0.49,-2.52,-0.49,-2.52,2.52,2.49,3.38,2.03,2.03,2.03
37.43,-0.46,-2.47,-0.46,-2.47,2.47,2.43,3.28,2.01,2.01,2.01
37.81,-0.43,-2.43,-0.43,-2.42,2.42,2.37,3.18,1.99,1.99,2.00
38.19,-0.39,-2.36,-0.39,-2.37,2.37,2.32,3.08,1.98,1.98,1.97
38.57,-0.36,-2.31,-0.36,-2.32,2.32,2.26,2.99,1.95,1.95,1.95
38.95,-0.33,-2.27,-0.33,-2.26,2.26,2.20,2.89,1.93,1.93,1.94
39.34,-0.30,-2.21,-0.30,-2.21,2.21,2.14,2.79,1.90,1.91,1.91
39.74,-0.26,-2.14,-0.26,-2.15,2.15,2.08,2.69,1.89,1.89,1.88
40.14,-0.23,-2.09,-0.23,-2.10,2.10,2.03,2.59,1.87,1.87,1.86
40.54,-0.20,-2.04,-0.20,-2.04,2.04,1.97,2.49,1.84,1.84,1.84
40.94,-0.16,-1.97,-0.17,-1.99,1.99,1.91,2.40,1.83,1.82,1.81
41.35,-0.14,-1.94,-0.14,-1.94,1.94,1.85,2.30,1.80,1.80,1.80
41.76,-0.11,-1.88,-0.11,-1.89,1.89,1.79,2.21,1.77,1.78,1.77
42.18,-0.08,-1.84,-0.08,-1.83,1.83,1.73,2.11,1.75,1.75,1.76
42.60,-0.05,-1.78,-0.05,-1.78,1.78,1.67,2.02,1.73,1.73,1.73
43.03,-0.02,-1.73,-0.03,-1.73,1.73,1.62,1.93,1.71,1.70,1.71
43.46,-0.00,-1.67,-0.00,-1.68,1.68,1.56,1.84,1.68,1.68,1.67
43.90,0.02,-1.63,0.02,-1.63,1.63,1.50,1.75,1.65,1.65,1.65
44.33,0.05,-1.57,0.04,-1.58,1.58,1.44,1.67,1.63,1.63,1.62
44.78,0.08,-1.52,0.07,-1.53,1.53,1.38,1.58,1.61,1.60,1.60
45.23,0.10,-1.48,0.09,-1.48,1.48,1.32,1.50,1.58,1.57,1.58
45.68,0.11,-1.42,0.10,-1.43,1.43,1.27,1.41,1.53,1.53,1.53
46.13,0.12,-1.38,0.12,-1.37,1.37,1.21,1.33,1.49,1.50,1.50
46.60,0.14,-1.32,0.14,-1.32,1.32,1.15,1.25,1.46,1.46,1.46
47.06,0.15,-1.28,0.16,-1.27,1.27,1.09,1.17,1.41,1.42,1.43
47.53,0.17,-1.22,0.17,-1.21,1.21,1.03,1.10,1.38,1.38,1.39
48.01,0.19,-1.15,0.19,-1.15,1.15,0.97,1.02,1.34,1.34,1.34
48.49,0.21,-1.09,0.21,-1.10,1.10,0.91,0.95,1.30,1.30,1.30
48.97,0.23,-1.02,0.22,-1.04,1.04,0.86,0.87,1.27,1.26,1.25
49.46,0.24,-0.98,0.24,-0.98,0.98,0.80,0.80,1.22,1.22,1.22
49.96,0.26,-0.90,0.26,-0.92,0.92,0.74,0.73,1.18,1.18,1.16
50.46,0.27,-0.86,0.28,-0.86,0.86,0.68,0.66,1.12,1.13,1.13
50.96,0.29,-0.80,0.30,-0.79,0.79,0.62,0.59,1.08,1.09,1.09
51.47,0.31,-0.74,0.32,-0.73,0.73,0.56,0.52,1.04,1.05,1.05
51.99,0.34,-0.66,0.34,-0.67,0.67,0.51,0.45,1.01,1.01,1.00
52.51,0.36,-0.61,0.35,-0.61,0.61,0.45,0.39,0.97,0.97,0.97
53.03,0.38,-0.56,0.37,-0.55,0.55,0.39,0.32,0.93,0.92,0.94
53.56,0.40,-0.49,0.39,-0.49,0.49,0.33,0.26,0.89,0.88,0.89
54.10,0.42,-0.42,0.41,-0.43,0.43,0.27,0.19,0.85,0.85,0.84
54.64,0.44,-0.36,0.43,-0.38,0.38,0.22,0.13,0.82,0.81,0.80
55.18,0.45,-0.31,0.45,-0.32,0.32,0.16,0.07,0.77,0.77,0.76
55.74,0.46,-0.25,0.47,-0.27,0.27,0.10,0.01,0.72,0.73,0.71
56.29,0.48,-0.21,0.48,-0.21,0.21,0.04,-0.05,0.69,0.69,0.69
56.86,0.50,-0.15,0.50,-0.15,0.15,-0.02,-0.11,0.65,0.65,0.65
57.42,0.51,-0.09,0.52,-0.09,0.09,-0.07,-0.16,0.60,0.61,0.60
58.00,0.53,-0.03,0.53,-0.03,0.03,-0.13,-0.22,0.56,0.57,0.56
58.58,0.55,0.02,0.55,0.03,-0.03,-0.19,-0.27,0.52,0.52,0.53
59.16,0.56,0.06,0.56,0.09,-0.09,-0.25,-0.33,0.47,0.48,0.50
59.76,0.58,0.13,0.58,0.15,-0.15,-0.31,-0.38,0.43,0.43,0.45
60.35,0.59,0.19,0.59,0.21,-0.21,-0.36,-0.43,0.38,0.38,0.40
60.96,0.61,0.27,0.60,0.27,-0.27,-0.42,-0.48,0.34,0.33,0.34
61.57,0.62,0.34,0.61,0.32,-0.32,-0.48,-0.53,0.29,0.28,0.28
62.18,0.62,0.40,0.61,0.38,-0.38,-0.54,-0.58,0.23,0.23,0.22
62.80,0.63,0.47,0.62,0.44,-0.44,-0.59,-0.63,0.19,0.18,0.16
63.43,0.63,0.52,0.62,0.50,-0.50,-0.65,-0.68,0.13,0.12,0.11
64.07,0.63,0.57,0.62,0.55,-0.55,-0.71,-0.73,0.08,0.07,0.06
64.71,0.62,0.61,0.62,0.61,-0.61,-0.77,-0.78,0.01,0.01,0.01
65.35,0.62,0.67,0.62,0.66,-0.66,-0.82,-0.82,-0.04,-0.04,-0.05
66.01,0.61,0.71,0.61,0.71,-0.71,-0.88,-0.87,-0.10,-0.10,-0.10
66.67,0.60,0.74,0.61,0.76,-0.76,-0.94,-0.91,-0.16,-0.15,-0.14
67.33,0.60,0.81,0.61,0.81,-0.81,-0.99,-0.96,-0.21,-0.21,-0.21
68.01,0.60,0.86,0.60,0.86,-0.86,-1.05,-1.00,-0.26,-0.26,-0.26
68.69,0.60,0.91,0.59,0.91,-0.91,-1.11,-1.05,-0.31,-0.32,-0.31
69.37,0.60,0.96,0.59,0.96,-0.96,-1.16,-1.09,-0.36,-0.37,-0.36
70.07,0.60,1.02,0.58,1.01,-1.01,-1.22,-1.14,-0.42,-0.43,-0.42
70.77,0.59,1.08,0.58,1.07,-1.07,-1.28,-1.18,-0.48,-0.49,-0.49
71.48,0.59,1.13,0.58,1.13,-1.13,-1.34,-1.23,-0.54,-0.54,-0.54
72.19,0.58,1.18,0.58,1.19,-1.19,-1.39,-1.27,-0.61,-0.60,-0.60
72.91,0.58,1.25,0.59,1.25,-1.25,-1.45,-1.32,-0.67,-0.66,-0.67
73.64,0.59,1.31,0.59,1.31,-1.31,-1.50,-1.37,-0.72,-0.71,-0.72
74.38,0.59,1.37,0.60,1.37,-1.37,-1.56,-1.41,-0.79,-0.77,-0.78
75.12,0.60,1.43,0.61,1.44,-1.44,-1.62,-1.46,-0.84,-0.82,-0.83
75.87,0.63,1.51,0.63,1.51,-1.51,-1.67,-1.51,-0.88,-0.88,-0.88
76.63,0.64,1.58,0.64,1.57,-1.57,-1.73,-1.56,-0.94,-0.93,-0.94
77.40,0.66,1.64,0.66,1.65,-1.65,-1.79,-1.61,-0.99,-0.98,-0.98
78.17,0.69,1.73,0.69,1.72,-1.72,-1.84,-1.66,-1.03,-1.03,-1.04
78.95,0.71,1.79,0.71,1.79,-1.79,-1.90,-1.72,-1.09,-1.08,-1.08
79.74,0.74,1.87,0.74,1.87,-1.87,-1.95,-1.77,-1.13,-1.13,-1.13
80.54,0.77,1.95,0.77,1.95,-1.95,-2.01,-1.83,-1.18,-1.18,-1.18
81.35,0.79,2.03,0.79,2.03,-2.03,-2.07,-1.89,-1.24,-1.23,-1.24
82.16,0.82,2.09,0.82,2.10,-2.10,-2.12,-1.95,-1.28,-1.28,-1.27
82.98,0.85,2.18,0.84,2.18,-2.18,-2.18,-2.01,-1.33,-1.33,-1.33
83.81,0.87,2.25,0.87,2.25,-2.25,-2.23,-2.07,-1.38,-1.39,-1.38
84.65,0.90,2.34,0.88,2.32,-2.32,-2.29,-2.13,-1.43,-1.44,-1.44
85.50,0.92,2.42,0.90,2.39,-2.39,-2.34,-2.20,-1.48,-1.49,-1.50
86.35,0.93,2.48,0.91,2.46,-2.46,-2.40,-2.27,-1.53,-1.55,-1.55
87.22,0.94,2.54,0.92,2.53,-2.53,-2.45,-2.34,-1.59,-1.60,-1.60
88.09,0.95,2.61,0.93,2.59,-2.59,-2.51,-2.41,-1.64,-1.66,-1.66
88.97,0.95,2.67,0.94,2.65,-2.65,-2.56,-2.48,-1.70,-1.71,-1.72
89.86,0.94,2.71,0.94,2.71,-2.71,-2.62,-2.55,-1.77,-1.77,-1.77
90.76,0.93,2.76,0.94,2.77,-2.77,-2.67,-2.63,-1.84,-1.83,-1.83
91.66,0.93,2.83,0.94,2.83,-2.83,-2.73,-2.71,-1.90,-1.89,-1.90
92.58,0.93,2.88,0.94,2.89,-2.89,-2.78,-2.79,-1.96,-1.95,-1.95
93.51,0.93,2.93,0.94,2.95,-2.95,-2.84,-2.87,-2.02,-2.01,-2.00
94.44,0.93,2.99,0.93,3.01,-3.01,-2.89,-2.95,-2.08,-2.07,-2.06
95.39,0.93,3.06,0.93,3.06,-3.06,-2.94,-3.04,-2.14,-2.13,-2.13
96.34,0.93,3.13,0.93,3.12,-3.12,-3.00,-3.13,-2.20,-2.20,-2.20
97.30,0.93,3.19,0.93,3.19,-3.19,-3.05,-3.21,-2.26,-2.26,-2.26
98.28,0.93,3.26,0.93,3.24,-3.24,-3.11,-3.30,-2.32,-2.32,-2.33
99.26,0.93,3.32,0.93,3.31,-3.31,-3.16,-3.39,-2.38,-2.38,-2.39
100.25,0.93,3.38,0.93,3.37,-3.37,-3.21,-3.49,-2.44,-2.44,-2.45
101.25,0.93,3.43,0.93,3.43,-3.43,-3.27,-3.58,-2.50,-2.50,-2.50
102.27,0.93,3.49,0.93,3.48,-3.48,-3.32,-3.67,-2.56,-2.56,-2.56
103.29,0.93,3.55,0.93,3.54,-3.54,-3.37,-3.77,-2.61,-2.61,-2.62
104.32,0.93,3.60,0.93,3.60,-3.60,-3.43,-3.86,-2.67,-2.67,-2.67
105.37,0.93,3.66,0.93,3.65,-3.65,-3.48,-3.95,-2.73,-2.73,-2.73
106.42,0.93,3.71,0.93,3.71,-3.71,-3.53,-4.05,-2.78,-2.78,-2.78
107.48,0.93,3.77,0.93,3.77,-3.77,-3.58,-4.14,-2.84,-2.84,-2.84
108.56,0.93,3.82,0.93,3.83,-3.83,-3.64,-4.23,-2.90,-2.90,-2.89
109.64,0.93,3.88,0.93,3.88,-3.88,-3.69,-4.32,-2.96,-2.96,-2.95
110.74,0.93,3.94,0.93,3.94,-3.94,-3.74,-4.41,-3.01,-3.01,-3.01
111.85,0.93,4.00,0.93,4.00,-4.00,-3.79,-4.50,-3.07,-3.07,-3.07
112.97,0.93,4.05,0.93,4.06,-4.06,-3.84,-4.58,-3.13,-3.13,-3.12
114.10,0.93,4.11,0.93,4.12,-4.12,-3.90,-4.67,-3.19,-3.19,-3.18
115.24,0.93,4.19,0.93,4.18,-4.18,-3.95,-4.74,-3.25,-3.25,-3.26
116.39,0.93,4.25,0.93,4.23,-4.23,-4.00,-4.82,-3.31,-3.31,-3.32
117.55,0.93,4.31,0.93,4.29,-4.29,-4.05,-4.89,-3.36,-3.36,-3.38
118.73,0.93,4.37,0.93,4.35,-4.35,-4.10,-4.96,-3.42,-3.42,-3.44
119.92,0.93,4.41,0.93,4.41,-4.41,-4.15,-5.02,-3.48,-3.48,-3.48
121.12,0.93,4.46,0.93,4.46,-4.46,-4.20,-5.07,-3.53,-3.53,-3.53
122.33,0.93,4.52,0.93,4.52,-4.52,-4.25,-5.13,-3.59,-3.59,-3.59
123.55,0.93,4.57,0.93,4.57,-4.57,-4.30,-5.17,-3.65,-3.65,-3.64
124.79,0.93,4.62,0.93,4.63,-4.63,-4.35,-5.21,-3.70,-3.70,-3.69
126.03,0.93,4.68,0.93,4.68,-4.68,-4.40,-5.25,-3.76,-3.76,-3.75
127.29,0.93,4.73,0.93,4.74,-4.74,-4.45,-5.28,-3.81,-3.81,-3.80
128.57,0.93,4.80,0.93,4.79,-4.79,-4.50,-5.30,-3.86,-3.86,-3.87
129.85,0.93,4.85,0.93,4.85,-4.85,-4.55,-5.33,-3.92,-3.92,-3.92
131.15,0.93,4.91,0.93,4.90,-4.90,-4.60,-5.34,-3.97,-3.97,-3.98
132.46,0.93,4.96,0.93,4.96,-4.96,-4.65,-5.35,-4.03,-4.03,-4.03
133.79,0.93,5.02,0.93,5.01,-5.01,-4.70,-5.36,-4.08,-4.08,-4.09
135.12,0.93,5.07,0.93,5.07,-5.07,-4.75,-5.36,-4.14,-4.14,-4.14
136.48,0.93,5.12,0.93,5.12,-5.12,-4.80,-5.36,-4.19,-4.19,-4.19
137.84,0.93,5.17,0.93,5.17,-5.17,-4.85,-5.36,-4.24,-4.24,-4.24
139.22,0.93,5.23,0.93,5.22,-5.22,-4.90,-5.36,-4.29,-4.29,-4.30
140.61,0.93,5.27,0.93,5.27,-5.27,-4.94,-5.35,-4.34,-4.34,-4.34
142.02,0.93,5.33,0.93,5.32,-5.32,-4.99,-5.34,-4.39,-4.39,-4.40
143.44,0.93,5.37,0.93,5.36,-5.36,-5.04,-5.33,-4.43,-4.44,-4.44
144.87,0.93,5.41,0.92,5.41,-5.41,-5.09,-5.32,-4.48,-4.48,-4.48
146.32,0.93,5.46,0.92,5.45,-5.45,-5.13,-5.31,-4.52,-4.53,-4.53
147.78,0.93,5.50,0.92,5.49,-5.49,-5.18,-5.30,-4.56,-4.57,-4.57
149.26,0.93,5.55,0.92,5.53,-5.53,-5.23,-5.29,-4.60,-4.61,-4.62
150.75,0.93,5.59,0.91,5.57,-5.57,-5.28,-5.28,-4.64,-4.66,-4.66
152.26,0.92,5.62,0.91,5.61,-5.61,-5.32,-5.28,-4.70,-4.70,-4.70
153.78,0.92,5.66,0.91,5.66,-5.66,-5.37,-5.27,-4.74,-4.74,-4.74
155.32,0.91,5.69,0.92,5.70,-5.70,-5.42,-5.27,-4.80,-4.79,-4.78
156.88,0.91,5.74,0.92,5.75,-5.75,-5.46,-5.27,-4.84,-4.83,-4.83
158.44,0.91,5.79,0.93,5.80,-5.80,-5.51,-5.27,-4.90,-4.87,-4.88
160.03,0.93,5.85,0.94,5.86,-5.86,-5.55,-5.27,-4.93,-4.92,-4.92
161.63,0.95,5.91,0.96,5.92,-5.92,-5.60,-5.28,-4.98,-4.96,-4.96
163.24,0.96,5.97,0.98,5.99,-5.99,-5.65,-5.29,-5.03,-5.01,-5.01
164.88,1.00,6.06,1.00,6.06,-6.06,-5.69,-5.30,-5.06,-5.06,-5.06
166.53,1.02,6.13,1.03,6.13,-6.13,-5.74,-5.32,-5.11,-5.10,-5.11
168.19,1.05,6.19,1.06,6.21,-6.21,-5.78,-5.34,-5.16,-5.15,-5.14
169.87,1.09,6.29,1.09,6.29,-6.29,-5.83,-5.36,-5.20,-5.20,-5.20
171.57,1.12,6.37,1.12,6.37,-6.37,-5.87,-5.39,-5.25,-5.25,-5.25
173.29,1.16,6.45,1.15,6.44,-6.44,-5.92,-5.43,-5.29,-5.29,-5.29
175.02,1.20,6.54,1.18,6.52,-6.52,-5.96,-5.46,-5.32,-5.34,-5.34
176.77,1.22,6.61,1.20,6.59,-6.59,-6.00,-5.50,-5.37,-5.39,-5.39
178.54,1.24,6.67,1.22,6.65,-6.65,-6.05,-5.55,-5.41,-5.43,-5.43
180.32,1.26,6.75,1.24,6.71,-6.71,-6.09,-5.59,-5.46,-5.48,-5.49
182.13,1.27,6.79,1.25,6.77,-6.77,-6.14,-5.65,-5.51,-5.52,-5.52
183.95,1.28,6.85,1.26,6.83,-6.83,-6.18,-5.70,-5.55,-5.57,-5.57
185.79,1.27,6.89,1.26,6.88,-6.88,-6.22,-5.76,-5.61,-5.62,-5.62
187.65,1.26,6.92,1.27,6.93,-6.93,-6.27,-5.83,-5.67,-5.66,-5.66
189.52,1.25,6.95,1.26,6.97,-6.97,-6.31,-5.89,-5.72,-5.70,-5.70
191.42,1.25,6.99,1.26,7.01,-7.01,-6.35,-5.97,-5.76,-5.75,-5.74
193.33,1.25,7.03,1.26,7.05,-7.05,-6.40,-6.04,-5.80,-5.79,-5.78
195.27,1.25,7.08,1.26,7.08,-7.08,-6.44,-6.12,-5.84,-5.83,-5.83
197.22,1.25,7.13,1.25,7.12,-7.12,-6.48,-6.20,-5.87,-5.86,-5.88
199.19,1.25,7.16,1.25,7.15,-7.15,-6.53,-6.29,-5.91,-5.90,-5.91
201.18,1.25,7.20,1.25,7.19,-7.19,-6.57,-6.37,-5.94,-5.94,-5.95
203.19,1.25,7.23,1.25,7.22,-7.22,-6.61,-6.46,-5.97,-5.97,-5.98
205.23,1.25,7.25,1.24,7.25,-7.25,-6.66,-6.56,-6.00,-6.01,-6.00
207.28,1.25,7.28,1.24,7.28,-7.28,-6.70,-6.65,-6.03,-6.04,-6.03
209.35,1.25,7.32,1.24,7.31,-7.31,-6.74,-6.75,-6.06,-6.07,-6.07
211.44,1.25,7.35,1.24,7.34,-7.34,-6.78,-6.85,-6.09,-6.10,-6.10
213.56,1.25,7.37,1.24,7.36,-7.36,-6.83,-6.94,-6.11,-6.13,-6.12
215.69,1.25,7.40,1.24,7.39,-7.39,-6.87,-7.04,-6.14,-6.16,-6.15
217.85,1.24,7.42,1.24,7.42,-7.42,-6.91,-7.14,-6.18,-6.18,-6.18
220.03,1.23,7.44,1.24,7.45,-7.45,-6.95,-7.24,-6.22,-6.20,-6.21
222.23,1.23,7.47,1.25,7.48,-7.48,-7.00,-7.34,-6.25,-6.23,-6.24
224.45,1.24,7.49,1.26,7.51,-7.51,-7.04,-7.43,-6.27,-6.25,-6.25
226.70,1.26,7.54,1.27,7.54,-7.54,-7.08,-7.52,-6.29,-6.27,-6.28
228.96,1.28,7.57,1.29,7.58,-7.58,-7.12,-7.61,-6.30,-6.29,-6.29
231.25,1.30,7.61,1.31,7.62,-7.62,-7.16,-7.70,-6.32,-6.31,-6.31
233.57,1.32,7.65,1.33,7.66,-7.66,-7.21,-7.78,-6.34,-6.33,-6.33
235.90,1.36,7.70,1.36,7.71,-7.71,-7.25,-7.86,-6.35,-6.34,-6.34
238.26,1.39,7.76,1.39,7.75,-7.75,-7.29,-7.93,-6.36,-6.36,-6.37
240.64,1.42,7.78,1.43,7.79,-7.79,-7.33,-8.00,-6.37,-6.37,-6.36
243.05,1.46,7.84,1.46,7.83,-7.83,-7.38,-8.06,-6.37,-6.38,-6.38
245.48,1.49,7.88,1.48,7.87,-7.87,-7.42,-8.12,-6.38,-6.38,-6.39
247.93,1.53,7.93,1.51,7.90,-7.90,-7.46,-8.17,-6.37,-6.39,-6.40
250.41,1.55,7.94,1.53,7.92,-7.92,-7.50,-8.21,-6.38,-6.40,-6.39
252.92,1.58,7.98,1.54,7.94,-7.94,-7.55,-8.25,-6.37,-6.40,-6.40
255.45,1.59,8.00,1.56,7.96,-7.96,-7.59,-8.28,-6.37,-6.41,-6.41
258.00,1.60,8.01,1.56,7.98,-7.98,-7.63,-8.31,-6.38,-6.41,-6.41
260.58,1.60,8.01,1.57,7.98,-7.98,-7.68,-8.33,-6.39,-6.41,-6.41
263.19,1.59,8.00,1.58,7.99,-7.99,-7.72,-8.34,-6.40,-6.42,-6.41
265.82,1.57,7.99,1.58,8.00,-8.00,-7.76,-8.35,-6.43,-6.42,-6.42
268.48,1.56,7.98,1.59,8.01,-8.01,-7.81,-8.36,-6.45,-6.42,-6.42
271.16,1.56,7.98,1.59,8.02,-8.02,-7.85,-8.36,-6.46,-6.42,-6.42
273.87,1.57,7.99,1.60,8.03,-8.03,-7.90,-8.36,-6.46,-6.43,-6.42
276.61,1.59,8.01,1.61,8.04,-8.04,-7.94,-8.36,-6.45,-6.43,-6.42
279.38,1.61,8.05,1.63,8.06,-8.06,-7.99,-8.35,-6.45,-6.43,-6.44
282.17,1.63,8.07,1.65,8.08,-8.08,-8.03,-8.34,-6.45,-6.43,-6.44
284.99,1.66,8.09,1.67,8.10,-8.10,-8.07,-8.33,-6.44,-6.42,-6.43
287.84,1.71,8.13,1.70,8.12,-8.12,-8.12,-8.33,-6.42,-6.42,-6.42
290.72,1.74,8.17,1.73,8.15,-8.15,-8.17,-8.32,-6.41,-6.42,-6.43
293.63,1.77,8.19,1.76,8.17,-8.17,-8.21,-8.31,-6.41,-6.42,-6.42
296.57,1.80,8.21,1.78,8.20,-8.20,-8.26,-8.30,-6.40,-6.41,-6.41
299.53,1.84,8.25,1.81,8.22,-8.22,-8.30,-8.30,-6.38,-6.41,-6.41
302.53,1.86,8.25,1.83,8.23,-8.23,-8.35,-8.30,-6.38,-6.40,-6.39
305.55,1.88,8.28,1.85,8.25,-8.25,-8.40,-8.30,-6.37,-6.40,-6.40
308.61,1.89,8.28,1.87,8.26,-8.26,-8.45,-8.30,-6.37,-6.39,-6.39
311.69,1.89,8.27,1.88,8.26,-8.26,-8.49,-8.31,-6.38,-6.38,-6.38
314.81,1.90,8.28,1.90,8.27,-8.27,-8.54,-8.32,-6.37,-6.37,-6.38
317.96,1.91,8.28,1.91,8.28,-8.28,-8.59,-8.34,-6.37,-6.37,-6.37
321.14,1.92,8.28,1.92,8.28,-8.28,-8.64,-8.36,-6.37,-6.36,-6.36
324.35,1.94,8.30,1.94,8.29,-8.29,-8.69,-8.39,-6.35,-6.35,-6.36
327.59,1.95,8.28,1.96,8.30,-8.30,-8.74,-8.42,-6.36,-6.34,-6.33
330.87,1.96,8.30,1.98,8.32,-8.32,-8.79,-8.45,-6.36,-6.34,-6.34
334.18,1.99,8.32,2.01,8.34,-8.34,-8.84,-8.50,-6.35,-6.33,-6.33
337.52,2.03,8.36,2.04,8.36,-8.36,-8.90,-8.54,-6.34,-6.32,-6.33
340.90,2.08,8.39,2.08,8.39,-8.39,-8.95,-8.60,-6.31,-6.31,-6.31
344.30,2.12,8.42,2.12,8.43,-8.43,-9.00,-8.66,-6.31,-6.31,-6.30
347.75,2.16,8.46,2.17,8.47,-8.47,-9.05,-8.72,-6.31,-6.30,-6.30
351.23,2.22,8.52,2.22,8.51,-8.51,-9.11,-8.79,-6.29,-6.29,-6.30
354.74,2.28,8.55,2.27,8.55,-8.55,-9.16,-8.87,-6.28,-6.28,-6.27
358.28,2.35,8.63,2.33,8.60,-8.60,-9.22,-8.96,-6.25,-6.27,-6.28
361.87,2.40,8.67,2.39,8.66,-8.66,-9.27,-9.05,-6.26,-6.27,-6.27
365.49,2.47,8.73,2.45,8.71,-8.71,-9.33,-9.15,-6.24,-6.26,-6.26
369.14,2.53,8.77,2.52,8.77,-8.77,-9.39,-9.25,-6.24,-6.25,-6.24
372.83,2.58,8.82,2.58,8.83,-8.83,-9.45,-9.36,-6.25,-6.24,-6.24
376.56,2.65,8.89,2.65,8.88,-8.88,-9.51,-9.48,-6.24,-6.23,-6.24
380.33,2.72,8.95,2.72,8.95,-8.95,-9.57,-9.60,-6.23,-6.22,-6.23
384.13,2.79,9.00,2.80,9.01,-9.01,-9.63,-9.73,-6.22,-6.21,-6.21
387.97,2.87,9.08,2.87,9.08,-9.08,-9.69,-9.87,-6.21,-6.21,-6.21
391.85,2.95,9.15,2.95,9.14,-9.14,-9.75,-10.01,-6.20,-6.19,-6.20
395.77,3.04,9.23,3.03,9.21,-9.21,-9.81,-10.15,-6.18,-6.19,-6.19
399.73,3.11,9.29,3.11,9.28,-9.28,-9.88,-10.31,-6.18,-6.17,-6.18
403.72,3.18,9.33,3.19,9.36,-9.36,-9.94,-10.47,-6.18,-6.16,-6.15
407.76,3.28,9.44,3.28,9.43,-9.43,-10.01,-10.63,-6.16,-6.16,-6.16
411.84,3.37,9.52,3.37,9.51,-9.51,-10.08,-10.80,-6.14,-6.15,-6.15
415.96,3.47,9.60,3.46,9.59,-9.59,-10.15,-10.97,-6.12,-6.14,-6.13
420.12,3.55,9.68,3.55,9.67,-9.67,-10.21,-11.14,-6.13,-6.13,-6.13
424.32,3.64,9.76,3.63,9.75,-9.75,-10.28,-11.32,-6.12,-6.12,-6.12
428.56,3.72,9.82,3.72,9.83,-9.83,-10.36,-11.50,-6.12,-6.11,-6.10
432.85,3.81,9.90,3.81,9.91,-9.91,-10.43,-11.68,-6.11,-6.10,-6.09
437.18,3.92,10.02,3.90,10.00,-10.00,-10.50,-11.86,-6.08,-6.09,-6.10
441.55,4.00,10.09,4.00,10.08,-10.08,-10.58,-12.04,-6.08,-6.08,-6.09
445.96,4.10,10.18,4.09,10.16,-10.16,-10.65,-12.21,-6.06,-6.07,-6.08
450.42,4.21,10.28,4.18,10.25,-10.25,-10.73,-12.38,-6.04,-6.07,-6.07
454.93,4.28,10.34,4.28,10.33,-10.33,-10.81,-12.54,-6.05,-6.06,-6.06
459.48,4.38,10.43,4.37,10.42,-10.42,-10.88,-12.70,-6.04,-6.05,-6.05
464.07,4.46,10.49,4.47,10.51,-10.51,-10.96,-12.84,-6.05,-6.04,-6.03
468.71,4.55,10.57,4.57,10.60,-10.60,-11.04,-12.98,-6.05,-6.03,-6.02
473.40,4.67,10.69,4.67,10.69,-10.69,-11.13,-13.09,-6.02,-6.02,-6.02
478.13,4.78,10.79,4.78,10.79,-10.79,-11.21,-13.20,-6.01,-6.01,-6.01
482.91,4.89,10.89,4.89,10.89,-10.89,-11.29,-13.28,-6.00,-6.00,-6.00
