frequency,raw,error,smoothed,error_smoothed,equalization,parametric_eq,fixed_band_eq,equalized_raw,equalized_smoothed,target
20.00,-3.63,-7.69,-3.64,-7.70,7.70,7.11,2.51,4.07,4.06,4.06
20.20,-3.57,-7.62,-3.57,-7.62,7.62,7.07,2.58,4.05,4.05,4.05
20.40,-3.51,-7.55,-3.51,-7.55,7.55,7.04,2.65,4.04,4.04,4.04
20.61,-3.45,-7.48,-3.45,-7.47,7.47,7.01,2.73,4.02,4.03,4.03
20.81,-3.39,-7.40,-3.39,-7.40,7.40,6.97,2.81,4.01,4.01,4.01
21.02,-3.32,-7.32,-3.32,-7.33,7.33,6.94,2.89,4.01,4.00,4.00
21.23,-3.26,-7.25,-3.26,-7.25,7.25,6.91,2.98,3.99,3.99,3.99
21.44,-3.20,-7.20,-3.20,-7.18,7.18,6.87,3.06,3.98,3.98,4.00
21.66,-3.14,-7.12,-3.14,-7.11,7.11,6.83,3.15,3.97,3.97,3.97
21.87,-3.08,-7.05,-3.08,-7.04,7.04,6.80,3.24,3.96,3.96,3.97
22.09,-3.01,-6.96,-3.02,-6.97,6.97,6.76,3.33,3.96,3.96,3.95
22.31,-2.95,-6.90,-2.96,-6.90,6.90,6.72,3.43,3.95,3.95,3.95
22.54,-2.89,-6.83,-2.89,-6.84,6.84,6.68,3.53,3.94,3.94,3.94
22.76,-2.83,-6.77,-2.83,-6.77,6.77,6.64,3.63,3.94,3.94,3.94
22.99,-2.77,-6.70,-2.77,-6.70,6.70,6.60,3.74,3.93,3.93,3.93
23.22,-2.71,-6.63,-2.71,-6.64,6.64,6.56,3.84,3.92,3.93,3.92
23.45,-2.65,-6.58,-2.65,-6.57,6.57,6.52,3.95,3.92,3.92,3.93
23.69,-2.59,-6.51,-2.59,-6.51,6.51,6.48,4.06,3.91,3.92,3.91
23.92,-2.53,-6.43,-2.53,-6.44,6.44,6.44,4.18,3.91,3.91,3.90
24.16,-2.47,-6.38,-2.47,-6.38,6.38,6.39,4.29,3.91,3.91,3.91
24.40,-2.41,-6.32,-2.41,-6.32,6.32,6.35,4.41,3.91,3.90,3.91
24.65,-2.35,-6.26,-2.35,-6.26,6.26,6.31,4.53,3.90,3.90,3.91
24.89,-2.29,-6.20,-2.30,-6.20,6.20,6.26,4.65,3.90,3.90,3.91
25.14,-2.24,-6.14,-2.24,-6.14,6.14,6.22,4.77,3.89,3.90,3.89
25.39,-2.18,-6.07,-2.18,-6.07,6.07,6.17,4.89,3.89,3.90,3.89
25.65,-2.12,-6.01,-2.12,-6.02,6.02,6.13,5.02,3.89,3.89,3.89
25.91,-2.06,-5.95,-2.06,-5.96,5.96,6.08,5.14,3.89,3.89,3.89
26.16,-2.00,-5.90,-2.01,-5.90,5.90,6.03,5.26,3.90,3.89,3.90
26.43,-1.95,-5.85,-1.95,-5.84,5.84,5.99,5.39,3.89,3.89,3.89
26.69,-1.89,-5.78,-1.89,-5.79,5.79,5.94,5.51,3.89,3.89,3.89
26.96,-1.84,-5.73,-1.84,-5.73,5.73,5.89,5.63,3.89,3.89,3.89
27.23,-1.78,-5.67,-1.78,-5.68,5.68,5.84,5.75,3.89,3.89,3.89
27.50,-1.73,-5.62,-1.73,-5.62,5.62,5.79,5.86,3.89,3.89,3.89
27.77,-1.67,-5.56,-1.67,-5.57,5.57,5.74,5.97,3.89,3.89,3.89
28.05,-1.62,-5.51,-1.62,-5.51,5.51,5.69,6.07,3.89,3.90,3.89
28.33,-1.57,-5.47,-1.56,-5.46,5.46,5.64,6.17,3.89,3.90,3.90
28.62,-1.51,-5.41,-1.51,-5.41,5.41,5.59,6.27,3.90,3.90,3.89
28.90,-1.46,-5.36,-1.46,-5.36,5.36,5.54,6.35,3.90,3.89,3.90
29.19,-1.41,-5.31,-1.42,-5.31,5.31,5.48,6.43,3.90,3.89,3.90
29.48,-1.36,-5.26,-1.37,-5.26,5.26,5.43,6.50,3.90,3.89,3.90
29.78,-1.31,-5.20,-1.32,-5.21,5.21,5.38,6.55,3.90,3.89,3.89
30.08,-1.26,-5.15,-1.28,-5.16,5.16,5.32,6.60,3.90,3.88,3.89
30.38,-1.23,-5.11,-1.24,-5.12,5.12,5.27,6.64,3.89,3.88,3.88
30.68,-1.19,-5.06,-1.20,-5.07,5.07,5.22,6.67,3.88,3.88,3.87
30.99,-1.16,-5.03,-1.16,-5.03,5.03,5.16,6.68,3.86,3.87,3.87
31.30,-1.12,-4.99,-1.12,-4.98,4.98,5.11,6.68,3.86,3.86,3.86
31.61,-1.09,-4.95,-1.08,-4.93,4.93,5.05,6.67,3.84,3.85,3.86
31.93,-1.05,-4.89,-1.04,-4.89,4.89,4.99,6.65,3.84,3.85,3.84
32.24,-1.01,-4.85,-1.00,-4.84,4.84,4.94,6.62,3.83,3.84,3.84
32.57,-0.97,-4.80,-0.97,-4.80,4.80,4.88,6.57,3.82,3.83,3.83
32.89,-0.93,-4.75,-0.93,-4.75,4.75,4.82,6.52,3.82,3.82,3.82
33.22,-0.89,-4.71,-0.89,-4.71,4.71,4.77,6.45,3.81,3.81,3.82
33.55,-0.85,-4.66,-0.85,-4.66,4.66,4.71,6.38,3.81,3.81,3.81
33.89,-0.81,-4.61,-0.81,-4.61,4.61,4.65,6.30,3.80,3.80,3.79
34.23,-0.77,-4.55,-0.78,-4.56,4.56,4.59,6.21,3.79,3.79,3.78
34.57,-0.73,-4.51,-0.74,-4.52,4.52,4.53,6.11,3.78,3.78,3.77
34.92,-0.69,-4.45,-0.70,-4.47,4.47,4.48,6.00,3.77,3.77,3.76
35.27,-0.66,-4.43,-0.66,-4.42,4.42,4.42,5.89,3.76,3.75,3.77
35.62,-0.62,-4.37,-0.63,-4.37,4.37,4.36,5.78,3.75,3.74,3.74
35.97,-0.59,-4.33,-0.59,-4.32,4.32,4.30,5.66,3.73,3.73,3.74
36.33,-0.56,-4.28,-0.56,-4.27,4.27,4.24,5.54,3.71,3.71,3.72
36.70,-0.53,-4.22,-0.53,-4.22,4.22,4.17,5.42,3.69,3.69,3.69
37.06,-0.49,-4.17,-0.49,-4.17,4.17,4.11,5.29,3.68,3.68,3.67
37.43,-0.46,-4.12,-0.46,-4.12,4.12,4.05,5.17,3.65,3.66,3.66
37.81,-0.43,-4.07,-0.43,-4.06,4.06,3.99,5.04,3.63,3.64,3.64
38.19,-0.39,-4.00,-0.39,-4.01,4.01,3.93,4.92,3.62,3.61,3.61
38.57,-0.36,-3.95,-0.36,-3.95,3.95,3.87,4.79,3.59,3.59,3.59
38.95,-0.33,-3.90,-0.33,-3.90,3.90,3.81,4.67,3.56,3.57,3.57
39.34,-0.30,-3.84,-0.30,-3.84,3.84,3.74,4.54,3.54,3.54,3.54
39.74,-0.26,-3.77,-0.26,-3.78,3.78,3.68,4.42,3.52,3.52,3.51
40.14,-0.23,-3.72,-0.23,-3.73,3.73,3.62,4.30,3.49,3.49,3.49
40.54,-0.20,-3.67,-0.20,-3.67,3.67,3.55,4.18,3.47,3.47,3.47
40.94,-0.16,-3.60,-0.17,-3.61,3.61,3.49,4.07,3.45,3.44,3.44
41.35,-0.14,-3.56,-0.14,-3.56,3.56,3.43,3.95,3.42,3.42,3.42
41.76,-0.11,-3.50,-0.11,-3.50,3.50,3.36,3.84,3.39,3.39,3.38
42.18,-0.08,-3.45,-0.08,-3.45,3.45,3.30,3.73,3.36,3.37,3.37
42.60,-0.05,-3.39,-0.05,-3.39,3.39,3.23,3.62,3.34,3.34,3.34
43.03,-0.02,-3.34,-0.03,-3.34,3.34,3.17,3.52,3.32,3.31,3.32
43.46,-0.00,-3.28,-0.00,-3.29,3.29,3.10,3.42,3.28,3.29,3.28
43.90,0.02,-3.24,0.02,-3.23,3.23,3.04,3.32,3.25,3.26,3.26
44.33,0.05,-3.17,0.04,-3.18,3.18,2.97,3.22,3.23,3.23,3.22
44.78,0.08,-3.12,0.07,-3.13,3.13,2.91,3.13,3.21,3.19,3.20
45.23,0.10,-3.07,0.09,-3.07,3.07,2.84,3.04,3.17,3.16,3.17
45.68,0.11,-3.02,0.10,-3.02,3.02,2.78,2.95,3.13,3.12,3.12
46.13,0.12,-2.97,0.12,-2.96,2.96,2.71,2.86,3.08,3.08,3.09
46.60,0.14,-2.91,0.14,-2.90,2.90,2.65,2.78,3.04,3.04,3.05
47.06,0.15,-2.86,0.16,-2.85,2.85,2.58,2.70,2.99,3.00,3.01
47.53,0.17,-2.80,0.17,-2.79,2.79,2.51,2.62,2.95,2.96,2.97
48.01,0.19,-2.72,0.19,-2.73,2.73,2.45,2.54,2.91,2.91,2.91
48.49,0.21,-2.66,0.21,-2.66,2.66,2.38,2.47,2.87,2.87,2.87
48.97,0.23,-2.59,0.22,-2.60,2.60,2.31,2.39,2.83,2.82,2.82
49.46,0.24,-2.54,0.24,-2.54,2.54,2.25,2.32,2.78,2.78,2.78
49.96,0.26,-2.46,0.26,-2.47,2.47,2.18,2.25,2.73,2.73,2.71
50.46,0.27,-2.41,0.28,-2.41,2.41,2.11,2.19,2.67,2.68,2.68
50.96,0.29,-2.35,0.30,-2.34,2.34,2.05,2.12,2.63,2.64,2.64
51.47,0.31,-2.28,0.32,-2.27,2.27,1.98,2.06,2.58,2.59,2.59
51.99,0.34,-2.20,0.34,-2.21,2.21,1.91,2.00,2.54,2.54,2.53
52.51,0.36,-2.14,0.35,-2.14,2.14,1.84,1.94,2.50,2.49,2.50
53.03,0.38,-2.08,0.37,-2.07,2.07,1.78,1.88,2.45,2.45,2.46
53.56,0.40,-2.01,0.39,-2.01,2.01,1.71,1.82,2.41,2.40,2.41
54.10,0.42,-1.93,0.41,-1.95,1.95,1.64,1.76,2.36,2.36,2.35
54.64,0.44,-1.87,0.43,-1.88,1.88,1.57,1.70,2.32,2.31,2.31
55.18,0.45,-1.81,0.45,-1.82,1.82,1.50,1.65,2.27,2.27,2.26
55.74,0.46,-1.75,0.47,-1.76,1.76,1.44,1.59,2.22,2.22,2.21
56.29,0.48,-1.70,0.48,-1.69,1.69,1.37,1.54,2.17,2.18,2.17
56.86,0.50,-1.63,0.50,-1.63,1.63,1.30,1.48,2.13,2.13,2.13
57.42,0.51,-1.57,0.52,-1.57,1.57,1.23,1.43,2.07,2.08,2.07
58.00,0.53,-1.50,0.53,-1.50,1.50,1.16,1.38,2.03,2.03,2.03
58.58,0.55,-1.44,0.55,-1.43,1.43,1.10,1.32,1.98,1.98,1.99
59.16,0.56,-1.39,0.56,-1.37,1.37,1.03,1.27,1.93,1.93,1.95
59.76,0.58,-1.32,0.58,-1.30,1.30,0.96,1.21,1.88,1.88,1.90
60.35,0.59,-1.25,0.59,-1.23,1.23,0.89,1.16,1.82,1.82,1.84
60.96,0.61,-1.17,0.60,-1.17,1.17,0.82,1.10,1.77,1.76,1.78
61.57,0.62,-1.09,0.61,-1.10,1.10,0.75,1.05,1.72,1.71,1.70
62.18,0.62,-1.02,0.61,-1.03,1.03,0.69,0.99,1.65,1.65,1.64
62.80,0.63,-0.95,0.62,-0.97,0.97,0.62,0.94,1.60,1.58,1.57
63.43,0.63,-0.88,0.62,-0.90,0.90,0.55,0.88,1.53,1.52,1.51
64.07,0.63,-0.82,0.62,-0.84,0.84,0.48,0.82,1.47,1.46,1.45
64.71,0.62,-0.77,0.62,-0.78,0.78,0.41,0.76,1.39,1.40,1.39
65.35,0.62,-0.71,0.62,-0.71,0.71,0.34,0.70,1.33,1.33,1.33
66.01,0.61,-0.66,0.61,-0.65,0.65,0.28,0.64,1.26,1.27,1.27
66.67,0.60,-0.61,0.61,-0.59,0.59,0.21,0.58,1.19,1.20,1.21
67.33,0.60,-0.54,0.61,-0.53,0.53,0.14,0.52,1.13,1.14,1.14
68.01,0.60,-0.48,0.60,-0.48,0.48,0.07,0.45,1.07,1.08,1.08
68.69,0.60,-0.42,0.59,-0.42,0.42,0.00,0.39,1.02,1.01,1.02
69.37,0.60,-0.36,0.59,-0.36,0.36,-0.07,0.33,0.96,0.95,0.96
70.07,0.60,-0.29,0.58,-0.30,0.30,-0.13,0.26,0.89,0.88,0.89
70.77,0.59,-0.23,0.58,-0.23,0.23,-0.20,0.19,0.82,0.81,0.82
71.48,0.59,-0.17,0.58,-0.16,0.16,-0.27,0.13,0.75,0.75,0.75
72.19,0.58,-0.10,0.58,-0.10,0.10,-0.34,0.06,0.67,0.68,0.68
72.91,0.58,-0.03,0.59,-0.03,0.03,-0.41,-0.01,0.60,0.61,0.60
73.64,0.59,0.05,0.59,0.05,-0.05,-0.47,-0.08,0.54,0.55,0.54
74.38,0.59,0.12,0.60,0.12,-0.12,-0.54,-0.15,0.47,0.48,0.47
75.12,0.60,0.19,0.61,0.20,-0.20,-0.61,-0.22,0.40,0.42,0.41
75.87,0.63,0.28,0.63,0.28,-0.28,-0.68,-0.29,0.35,0.35,0.35
76.63,0.64,0.36,0.64,0.36,-0.36,-0.74,-0.37,0.28,0.29,0.28
77.40,0.66,0.43,0.66,0.44,-0.44,-0.81,-0.44,0.22,0.23,0.23
78.17,0.69,0.53,0.69,0.52,-0.52,-0.88,-0.51,0.16,0.16,0.15
78.95,0.71,0.60,0.71,0.61,-0.61,-0.95,-0.59,0.10,0.10,0.11
79.74,0.74,0.70,0.74,0.70,-0.70,-1.01,-0.67,0.04,0.04,0.04
80.54,0.77,0.78,0.77,0.79,-0.79,-1.08,-0.74,-0.02,-0.02,-0.02
81.35,0.79,0.87,0.79,0.88,-0.88,-1.15,-0.82,-0.09,-0.08,-0.08
82.16,0.82,0.95,0.82,0.96,-0.96,-1.22,-0.90,-0.15,-0.14,-0.13
82.98,0.85,1.05,0.84,1.05,-1.05,-1.28,-0.98,-0.20,-0.21,-0.20
83.81,0.87,1.13,0.87,1.14,-1.14,-1.35,-1.06,-0.27,-0.27,-0.27
84.65,0.90,1.24,0.88,1.22,-1.22,-1.42,-1.14,-0.32,-0.34,-0.34
85.50,0.92,1.32,0.90,1.30,-1.30,-1.48,-1.22,-0.38,-0.40,-0.40
86.35,0.93,1.40,0.91,1.38,-1.38,-1.55,-1.31,-0.45,-0.47,-0.47
87.22,0.94,1.47,0.92,1.46,-1.46,-1.61,-1.39,-0.52,-0.53,-0.53
88.09,0.95,1.55,0.93,1.53,-1.53,-1.68,-1.48,-0.59,-0.60,-0.60
88.97,0.95,1.62,0.94,1.61,-1.61,-1.75,-1.57,-0.66,-0.67,-0.67
89.86,0.94,1.68,0.94,1.68,-1.68,-1.81,-1.65,-0.74,-0.74,-0.74
90.76,0.93,1.73,0.94,1.75,-1.75,-1.88,-1.74,-0.82,-0.81,-0.81
91.66,0.93,1.81,0.94,1.82,-1.82,-1.94,-1.83,-0.89,-0.88,-0.89
92.58,0.93,1.88,0.94,1.89,-1.89,-2.01,-1.93,-0.96,-0.95,-0.95
93.51,0.93,1.95,0.94,1.96,-1.96,-2.07,-2.02,-1.03,-1.03,-1.02
94.44,0.93,2.02,0.93,2.03,-2.03,-2.14,-2.11,-1.10,-1.10,-1.09
95.39,0.93,2.10,0.93,2.10,-2.10,-2.20,-2.21,-1.18,-1.17,-1.17
96.34,0.93,2.17,0.93,2.18,-2.18,-2.27,-2.30,-1.25,-1.25,-1.25
97.30,0.93,2.25,0.93,2.25,-2.25,-2.33,-2.40,-1.32,-1.32,-1.32
98.28,0.93,2.33,0.93,2.32,-2.32,-2.40,-2.50,-1.39,-1.40,-1.40
99.26,0.93,2.41,0.93,2.39,-2.39,-2.46,-2.59,-1.47,-1.47,-1.48
100.25,0.93,2.48,0.93,2.47,-2.47,-2.53,-2.69,-1.54,-1.54,-1.55
101.25,0.93,2.55,0.93,2.54,-2.54,-2.59,-2.79,-1.61,-1.61,-1.62
102.27,0.93,2.61,0.93,2.61,-2.61,-2.65,-2.89,-1.68,-1.68,-1.68
103.29,0.93,2.69,0.93,2.68,-2.68,-2.72,-2.99,-1.75,-1.75,-1.76
104.32,0.93,2.75,0.93,2.75,-2.75,-2.78,-3.09,-1.82,-1.82,-1.82
105.37,0.93,2.82,0.93,2.82,-2.82,-2.84,-3.19,-1.89,-1.89,-1.89
106.42,0.93,2.88,0.93,2.89,-2.89,-2.91,-3.29,-1.96,-1.96,-1.95
107.48,0.93,2.96,0.93,2.96,-2.96,-2.97,-3.38,-2.03,-2.03,-2.03
108.56,0.93,3.02,0.93,3.03,-3.03,-3.03,-3.48,-2.10,-2.10,-2.10
109.64,0.93,3.09,0.93,3.10,-3.10,-3.10,-3.58,-2.17,-2.17,-2.16
110.74,0.93,3.16,0.93,3.17,-3.17,-3.16,-3.67,-2.24,-2.24,-2.24
111.85,0.93,3.24,0.93,3.24,-3.24,-3.22,-3.76,-2.31,-2.31,-2.31
112.97,0.93,3.30,0.93,3.31,-3.31,-3.28,-3.85,-2.38,-2.38,-2.37
114.10,0.93,3.38,0.93,3.38,-3.38,-3.34,-3.93,-2.45,-2.45,-2.45
115.24,0.93,3.46,0.93,3.45,-3.45,-3.40,-4.02,-2.53,-2.53,-2.53
116.39,0.93,3.53,0.93,3.52,-3.52,-3.46,-4.09,-2.60,-2.60,-2.61
117.55,0.93,3.61,0.93,3.59,-3.59,-3.53,-4.17,-2.67,-2.67,-2.68
118.73,0.93,3.68,0.93,3.66,-3.66,-3.59,-4.24,-2.74,-2.74,-2.75
119.92,0.93,3.74,0.93,3.73,-3.73,-3.65,-4.31,-2.80,-2.80,-2.81
121.12,0.93,3.80,0.93,3.80,-3.80,-3.71,-4.37,-2.87,-2.87,-2.87
122.33,0.93,3.87,0.93,3.87,-3.87,-3.77,-4.43,-2.94,-2.94,-2.94
123.55,0.93,3.93,0.93,3.94,-3.94,-3.83,-4.48,-3.01,-3.01,-3.00
124.79,0.93,4.00,0.93,4.01,-4.01,-3.89,-4.53,-3.08,-3.08,-3.07
126.03,0.93,4.07,0.93,4.08,-4.08,-3.95,-4.57,-3.15,-3.15,-3.14
127.29,0.93,4.13,0.93,4.14,-4.14,-4.00,-4.61,-3.21,-3.21,-3.21
128.57,0.93,4.21,0.93,4.21,-4.21,-4.06,-4.65,-3.28,-3.28,-3.28
129.85,0.93,4.27,0.93,4.28,-4.28,-4.12,-4.68,-3.35,-3.35,-3.35
131.15,0.93,4.35,0.93,4.34,-4.34,-4.18,-4.70,-3.42,-3.42,-3.42
132.46,0.93,4.41,0.93,4.41,-4.41,-4.24,-4.73,-3.48,-3.48,-3.48
133.79,0.93,4.48,0.93,4.48,-4.48,-4.30,-4.74,-3.55,-3.55,-3.56
135.12,0.93,4.55,0.93,4.54,-4.54,-4.35,-4.76,-3.62,-3.62,-3.62
136.48,0.93,4.61,0.93,4.61,-4.61,-4.41,-4.77,-3.68,-3.68,-3.68
137.84,0.93,4.67,0.93,4.67,-4.67,-4.47,-4.78,-3.75,-3.75,-3.75
139.22,0.93,4.74,0.93,4.74,-4.74,-4.53,-4.79,-3.81,-3.81,-3.81
140.61,0.93,4.80,0.93,4.80,-4.80,-4.58,-4.80,-3.87,-3.87,-3.87
142.02,0.93,4.86,0.93,4.86,-4.86,-4.64,-4.80,-3.93,-3.93,-3.94
143.44,0.93,4.92,0.93,4.92,-4.92,-4.69,-4.80,-3.99,-3.99,-3.99
144.87,0.93,4.97,0.92,4.97,-4.97,-4.75,-4.81,-4.04,-4.05,-4.04
146.32,0.93,5.03,0.92,5.02,-5.02,-4.81,-4.81,-4.10,-4.10,-4.11
147.78,0.93,5.08,0.92,5.08,-5.08,-4.86,-4.81,-4.15,-4.16,-4.16
149.26,0.93,5.14,0.92,5.13,-5.13,-4.92,-4.82,-4.20,-4.21,-4.22
150.75,0.93,5.20,0.91,5.18,-5.18,-4.97,-4.82,-4.26,-4.27,-4.27
152.26,0.92,5.24,0.91,5.24,-5.24,-5.03,-4.83,-4.32,-4.32,-4.32
153.78,0.92,5.29,0.91,5.29,-5.29,-5.08,-4.84,-4.37,-4.38,-4.38
155.32,0.91,5.34,0.92,5.35,-5.35,-5.13,-4.85,-4.44,-4.43,-4.43
156.88,0.91,5.39,0.92,5.41,-5.41,-5.19,-4.86,-4.50,-4.49,-4.48
158.44,0.91,5.45,0.93,5.47,-5.47,-5.24,-4.87,-4.56,-4.54,-4.54
160.03,0.93,5.52,0.94,5.54,-5.54,-5.30,-4.89,-4.61,-4.60,-4.59
161.63,0.95,5.60,0.96,5.61,-5.61,-5.35,-4.91,-4.66,-4.65,-4.65
163.24,0.96,5.67,0.98,5.69,-5.69,-5.40,-4.93,-4.73,-4.71,-4.71
164.88,1.00,5.76,1.00,5.77,-5.77,-5.46,-4.96,-4.77,-4.77,-4.77
166.53,1.02,5.85,1.03,5.85,-5.85,-5.51,-4.99,-4.83,-4.82,-4.83
168.19,1.05,5.92,1.06,5.94,-5.94,-5.56,-5.02,-4.89,-4.88,-4.87
169.87,1.09,6.03,1.09,6.03,-6.03,-5.61,-5.06,-4.94,-4.94,-4.94
171.57,1.12,6.12,1.12,6.12,-6.12,-5.66,-5.10,-5.00,-5.00,-5.00
173.29,1.16,6.21,1.15,6.20,-6.20,-5.72,-5.14,-5.05,-5.05,-5.05
175.02,1.20,6.30,1.18,6.29,-6.29,-5.77,-5.19,-5.09,-5.11,-5.11
176.77,1.22,6.38,1.20,6.36,-6.36,-5.82,-5.24,-5.15,-5.16,-5.16
178.54,1.24,6.46,1.22,6.44,-6.44,-5.87,-5.30,-5.20,-5.22,-5.22
180.32,1.26,6.54,1.24,6.51,-6.51,-5.92,-5.36,-5.25,-5.28,-5.28
182.13,1.27,6.60,1.25,6.58,-6.58,-5.97,-5.42,-5.31,-5.33,-5.33
183.95,1.28,6.66,1.26,6.64,-6.64,-6.02,-5.49,-5.36,-5.39,-5.38
185.79,1.27,6.71,1.26,6.70,-6.70,-6.07,-5.56,-5.43,-5.44,-5.44
187.65,1.26,6.75,1.27,6.76,-6.76,-6.12,-5.63,-5.50,-5.49,-5.49
189.52,1.25,6.79,1.26,6.81,-6.81,-6.17,-5.71,-5.56,-5.54,-5.54
191.42,1.25,6.84,1.26,6.86,-6.86,-6.22,-5.79,-5.61,-5.59,-5.59
193.33,1.25,6.88,1.26,6.90,-6.90,-6.27,-5.87,-5.65,-5.64,-5.64
195.27,1.25,6.94,1.26,6.95,-6.95,-6.32,-5.96,-5.70,-5.69,-5.69
197.22,1.25,7.00,1.25,6.99,-6.99,-6.37,-6.05,-5.74,-5.73,-5.75
199.19,1.25,7.03,1.25,7.03,-7.03,-6.42,-6.15,-5.78,-5.78,-5.78
201.18,1.25,7.08,1.25,7.07,-7.07,-6.47,-6.25,-5.82,-5.82,-5.83
203.19,1.25,7.11,1.25,7.11,-7.11,-6.52,-6.34,-5.86,-5.86,-5.87
205.23,1.25,7.14,1.24,7.14,-7.14,-6.57,-6.45,-5.90,-5.90,-5.90
207.28,1.25,7.18,1.24,7.18,-7.18,-6.62,-6.55,-5.93,-5.94,-5.94
209.35,1.25,7.22,1.24,7.22,-7.22,-6.67,-6.65,-5.97,-5.98,-5.97
211.44,1.25,7.26,1.24,7.25,-7.25,-6.71,-6.76,-6.00,-6.01,-6.01
213.56,1.25,7.29,1.24,7.28,-7.28,-6.76,-6.87,-6.04,-6.05,-6.04
215.69,1.25,7.32,1.24,7.32,-7.32,-6.81,-6.97,-6.07,-6.08,-6.08
217.85,1.24,7.35,1.24,7.35,-7.35,-6.86,-7.08,-6.11,-6.11,-6.11
220.03,1.23,7.37,1.24,7.38,-7.38,-6.91,-7.18,-6.16,-6.14,-6.15
222.23,1.23,7.41,1.25,7.42,-7.42,-6.95,-7.29,-6.19,-6.17,-6.18
224.45,1.24,7.44,1.26,7.46,-7.46,-7.00,-7.39,-6.22,-6.20,-6.20
226.70,1.26,7.49,1.27,7.50,-7.50,-7.05,-7.49,-6.24,-6.23,-6.24
228.96,1.28,7.52,1.29,7.54,-7.54,-7.10,-7.59,-6.26,-6.25,-6.25
231.25,1.30,7.58,1.31,7.59,-7.59,-7.15,-7.68,-6.29,-6.28,-6.28
233.57,1.32,7.62,1.33,7.63,-7.63,-7.19,-7.77,-6.31,-6.30,-6.30
235.90,1.36,7.67,1.36,7.68,-7.68,-7.24,-7.85,-6.32,-6.32,-6.32
238.26,1.39,7.73,1.39,7.73,-7.73,-7.29,-7.93,-6.34,-6.33,-6.35
240.64,1.42,7.76,1.43,7.77,-7.77,-7.34,-8.00,-6.36,-6.35,-6.34
243.05,1.46,7.82,1.46,7.82,-7.82,-7.38,-8.07,-6.36,-6.36,-6.36
245.48,1.49,7.87,1.48,7.86,-7.86,-7.43,-8.13,-6.37,-6.37,-6.38
247.93,1.53,7.92,1.51,7.89,-7.89,-7.48,-8.19,-6.36,-6.38,-6.39
250.41,1.55,7.94,1.53,7.92,-7.92,-7.53,-8.24,-6.37,-6.39,-6.39
252.92,1.58,7.97,1.54,7.94,-7.94,-7.57,-8.28,-6.37,-6.40,-6.40
255.45,1.59,8.00,1.56,7.97,-7.97,-7.62,-8.31,-6.38,-6.41,-6.41
258.00,1.60,8.01,1.56,7.98,-7.98,-7.67,-8.34,-6.38,-6.42,-6.41
260.58,1.60,8.02,1.57,7.99,-7.99,-7.72,-8.36,-6.40,-6.42,-6.42
263.19,1.59,8.01,1.58,8.00,-8.00,-7.77,-8.38,-6.42,-6.43,-6.42
265.82,1.57,8.00,1.58,8.02,-8.02,-7.81,-8.40,-6.45,-6.43,-6.43
268.48,1.56,7.99,1.59,8.03,-8.03,-7.86,-8.40,-6.47,-6.44,-6.44
271.16,1.56,8.00,1.59,8.04,-8.04,-7.91,-8.41,-6.48,-6.45,-6.44
273.87,1.57,8.02,1.60,8.05,-8.05,-7.96,-8.41,-6.48,-6.45,-6.45
276.61,1.59,8.04,1.61,8.07,-8.07,-8.01,-8.40,-6.48,-6.45,-6.45
279.38,1.61,8.08,1.63,8.09,-8.09,-8.06,-8.40,-6.48,-6.46,-6.47
282.17,1.63,8.10,1.65,8.11,-8.11,-8.11,-8.39,-6.48,-6.46,-6.47
284.99,1.66,8.12,1.67,8.13,-8.13,-8.16,-8.38,-6.48,-6.46,-6.46
287.84,1.71,8.17,1.70,8.16,-8.16,-8.21,-8.38,-6.45,-6.46,-6.46
290.72,1.74,8.21,1.73,8.19,-8.19,-8.26,-8.37,-6.45,-6.46,-6.47
293.63,1.77,8.23,1.76,8.22,-8.22,-8.31,-8.36,-6.45,-6.46,-6.46
296.57,1.80,8.25,1.78,8.24,-8.24,-8.36,-8.36,-6.44,-6.46,-6.46
299.53,1.84,8.29,1.81,8.26,-8.26,-8.41,-8.35,-6.43,-6.45,-6.45
302.53,1.86,8.30,1.83,8.28,-8.28,-8.46,-8.35,-6.42,-6.45,-6.44
305.55,1.88,8.33,1.85,8.30,-8.30,-8.51,-8.35,-6.42,-6.45,-6.45
308.61,1.89,8.33,1.87,8.31,-8.31,-8.56,-8.36,-6.42,-6.44,-6.44
311.69,1.89,8.32,1.88,8.32,-8.32,-8.61,-8.37,-6.43,-6.43,-6.43
314.81,1.90,8.33,1.90,8.33,-8.33,-8.66,-8.38,-6.43,-6.43,-6.43
317.96,1.91,8.34,1.91,8.34,-8.34,-8.72,-8.40,-6.43,-6.42,-6.43
321.14,1.92,8.33,1.92,8.34,-8.34,-8.77,-8.42,-6.42,-6.42,-6.41
324.35,1.94,8.36,1.94,8.35,-8.35,-8.82,-8.44,-6.41,-6.41,-6.42
327.59,1.95,8.34,1.96,8.37,-8.37,-8.88,-8.48,-6.42,-6.41,-6.40
330.87,1.96,8.36,1.98,8.38,-8.38,-8.93,-8.51,-6.42,-6.40,-6.40
334.18,1.99,8.38,2.01,8.40,-8.40,-8.99,-8.56,-6.42,-6.39,-6.40
337.52,2.03,8.42,2.04,8.43,-8.43,-9.04,-8.60,-6.40,-6.39,-6.39
340.90,2.08,8.45,2.08,8.46,-8.46,-9.10,-8.66,-6.38,-6.38,-6.38
344.30,2.12,8.49,2.12,8.50,-8.50,-9.15,-8.72,-6.38,-6.37,-6.37
347.75,2.16,8.52,2.17,8.54,-8.54,-9.21,-8.78,-6.38,-6.37,-6.37
351.23,2.22,8.59,2.22,8.58,-8.58,-9.27,-8.86,-6.36,-6.36,-6.37
354.74,2.28,8.62,2.27,8.63,-8.63,-9.33,-8.94,-6.35,-6.35,-6.34
358.28,2.35,8.70,2.33,8.68,-8.68,-9.39,-9.02,-6.33,-6.35,-6.35
361.87,2.40,8.74,2.39,8.73,-8.73,-9.45,-9.11,-6.33,-6.34,-6.34
365.49,2.47,8.80,2.45,8.79,-8.79,-9.51,-9.21,-6.32,-6.33,-6.34
369.14,2.53,8.85,2.52,8.84,-8.84,-9.57,-9.32,-6.32,-6.33,-6.32
372.83,2.58,8.89,2.58,8.90,-8.90,-9.63,-9.43,-6.33,-6.32,-6.31
376.56,2.65,8.96,2.65,8.96,-8.96,-9.69,-9.55,-6.32,-6.31,-6.32
380.33,2.72,9.03,2.72,9.03,-9.03,-9.75,-9.67,-6.31,-6.30,-6.31
384.13,2.79,9.08,2.80,9.09,-9.09,-9.82,-9.80,-6.30,-6.29,-6.29
387.97,2.87,9.15,2.87,9.16,-9.16,-9.88,-9.94,-6.29,-6.29,-6.29
391.85,2.95,9.23,2.95,9.23,-9.23,-9.95,-10.08,-6.28,-6.28,-6.28
395.77,3.04,9.31,3.03,9.30,-9.30,-10.01,-10.23,-6.26,-6.27,-6.27
399.73,3.11,9.37,3.11,9.37,-9.37,-10.08,-10.39,-6.26,-6.26,-6.26
403.72,3.18,9.42,3.19,9.44,-9.44,-10.15,-10.55,-6.26,-6.25,-6.24
407.76,3.28,9.52,3.28,9.52,-9.52,-10.22,-10.71,-6.24,-6.24,-6.24
411.84,3.37,9.60,3.37,9.60,-9.60,-10.29,-10.88,-6.23,-6.23,-6.23
415.96,3.47,9.68,3.46,9.68,-9.68,-10.36,-11.05,-6.21,-6.22,-6.21
420.12,3.55,9.76,3.55,9.76,-9.76,-10.43,-11.23,-6.21,-6.21,-6.22
424.32,3.64,9.85,3.63,9.84,-9.84,-10.50,-11.41,-6.20,-6.21,-6.21
428.56,3.72,9.91,3.72,9.92,-9.92,-10.58,-11.59,-6.20,-6.20,-6.19
432.85,3.81,9.99,3.81,10.00,-10.00,-10.65,-11.77,-6.20,-6.19,-6.18
437.18,3.92,10.10,3.90,10.09,-10.09,-10.73,-11.95,-6.17,-6.18,-6.18
441.55,4.00,10.17,4.00,10.17,-10.17,-10.80,-12.13,-6.17,-6.17,-6.18
445.96,4.10,10.27,4.09,10.25,-10.25,-10.88,-12.31,-6.16,-6.16,-6.17
450.42,4.21,10.37,4.18,10.34,-10.34,-10.96,-12.48,-6.13,-6.16,-6.16
454.93,4.28,10.43,4.28,10.42,-10.42,-11.04,-12.65,-6.15,-6.15,-6.15
459.48,4.38,10.52,4.37,10.51,-10.51,-11.12,-12.80,-6.13,-6.14,-6.14
464.07,4.46,10.58,4.47,10.60,-10.60,-11.20,-12.95,-6.14,-6.13,-6.12
468.71,4.55,10.66,4.57,10.69,-10.69,-11.29,-13.08,-6.14,-6.12,-6.12
473.40,4.67,10.78,4.67,10.78,-10.78,-11.37,-13.21,-6.12,-6.11,-6.11
478.13,4.78,10.88,4.78,10.88,-10.88,-11.46,-13.31,-6.10,-6.10,-6.10
482.91,4.89,10.98,4.89,10.98,-10.98,-11.54,-13.40,-6.09,-6.09,-6.09
487.74,5.00,11.08,5.00,11.08,-11.08,-11.63,-13.46,-6.08,-6.08,-6.08
