frequency,raw,error,smoothed,error_smoothed,equalization,parametric_eq,fixed_band_eq,equalized_raw,equalized_smoothed,target
20.00,-17.26,-17.93,-17.26,-17.93,17.94,16.10,6.42,0.68,0.68,0.68
20.20,-17.10,-17.82,-17.09,-17.82,17.82,16.28,6.57,0.73,0.73,0.73
20.40,-16.93,-17.71,-16.93,-17.71,17.71,16.43,6.72,0.77,0.77,0.78
20.61,-16.78,-17.58,-16.77,-17.59,17.59,16.55,6.88,0.81,0.81,0.81
20.81,-16.61,-17.47,-16.62,-17.47,17.46,16.64,7.04,0.85,0.85,0.86
21.02,-16.46,-17.35,-16.46,-17.35,17.34,16.69,7.20,0.89,0.88,0.90
21.23,-16.31,-17.22,-16.30,-17.22,17.22,16.71,7.37,0.91,0.92,0.92
21.44,-16.15,-17.09,-16.15,-17.09,17.09,16.70,7.54,0.94,0.94,0.94
21.66,-16.01,-16.96,-16.01,-16.96,16.97,16.65,7.72,0.96,0.96,0.96
21.87,-15.86,-16.83,-15.86,-16.83,16.84,16.57,7.90,0.98,0.98,0.97
22.09,-15.71,-16.70,-15.72,-16.70,16.71,16.47,8.09,1.00,0.99,0.99
22.31,-15.58,-16.58,-15.58,-16.58,16.58,16.35,8.28,1.00,0.99,1.00
22.54,-15.46,-16.45,-15.46,-16.45,16.45,16.21,8.48,0.99,0.99,1.00
22.76,-15.32,-16.32,-15.33,-16.32,16.31,16.05,8.68,0.99,0.98,1.00
22.99,-15.20,-16.18,-15.19,-16.18,16.17,15.88,8.89,0.98,0.98,0.99
23.22,-15.05,-16.03,-15.05,-16.03,16.03,15.69,9.11,0.99,0.99,0.99
23.45,-14.89,-15.88,-14.90,-15.89,15.89,15.51,9.32,1.00,0.99,0.99
23.69,-14.75,-15.74,-14.75,-15.74,15.75,15.32,9.55,1.00,1.00,1.00
23.92,-14.60,-15.60,-14.60,-15.60,15.60,15.12,9.78,1.00,1.00,1.00
24.16,-14.45,-15.45,-14.45,-15.45,15.45,14.93,10.02,1.00,1.00,1.00
24.40,-14.30,-15.31,-14.30,-15.30,15.30,14.74,10.26,1.00,1.00,1.01
24.65,-14.16,-15.15,-14.16,-15.15,15.15,14.55,10.51,1.00,1.00,1.00
24.89,-14.00,-15.00,-14.01,-15.01,15.01,14.37,10.77,1.00,1.00,1.00
25.14,-13.86,-14.86,-13.86,-14.86,14.86,14.19,11.03,1.00,1.00,1.00
25.39,-13.71,-14.72,-13.71,-14.72,14.72,14.01,11.30,1.00,1.00,1.01
25.65,-13.57,-14.57,-13.57,-14.57,14.57,13.84,11.57,1.01,1.01,1.01
25.91,-13.42,-14.42,-13.42,-14.42,14.44,13.68,11.85,1.02,1.02,1.00
26.16,-13.28,-14.28,-13.29,-14.28,14.30,13.52,12.13,1.02,1.01,1.00
26.43,-13.16,-14.15,-13.16,-14.16,14.16,13.37,12.42,1.00,1.00,1.00
26.69,-13.04,-14.03,-13.03,-14.03,14.01,13.23,12.71,0.98,0.98,1.00
26.96,-12.91,-13.90,-12.90,-13.90,13.87,13.09,13.01,0.96,0.97,1.00
27.23,-12.75,-13.74,-12.75,-13.74,13.72,12.96,13.30,0.98,0.98,1.00
27.50,-12.59,-13.58,-12.58,-13.58,13.58,12.83,13.60,0.99,0.99,1.00
27.77,-12.41,-13.40,-12.42,-13.41,13.43,12.71,13.89,1.01,1.01,0.99
28.05,-12.26,-13.25,-12.27,-13.25,13.28,12.60,14.18,1.01,1.01,0.99
28.33,-12.12,-13.10,-12.13,-13.11,13.12,12.49,14.47,1.00,0.99,0.98
28.62,-12.00,-12.97,-12.00,-12.98,12.97,12.39,14.74,0.97,0.97,0.98
28.90,-11.86,-12.85,-11.86,-12.84,12.82,12.29,15.00,0.95,0.96,0.99
29.19,-11.71,-12.68,-11.71,-12.69,12.67,12.19,15.24,0.97,0.97,0.98
29.48,-11.54,-12.53,-11.55,-12.53,12.53,12.10,15.46,0.99,0.98,0.99
29.78,-11.39,-12.36,-11.39,-12.37,12.39,12.01,15.65,1.00,1.00,0.98
30.08,-11.24,-12.22,-11.24,-12.22,12.24,11.92,15.81,1.00,1.00,0.99
30.38,-11.11,-12.08,-11.11,-12.09,12.09,11.83,15.94,0.98,0.98,0.98
30.68,-10.98,-11.95,-10.98,-11.95,11.94,11.74,16.02,0.96,0.96,0.98
30.99,-10.85,-11.82,-10.84,-11.81,11.78,11.66,16.07,0.94,0.95,0.98
31.30,-10.68,-11.64,-10.68,-11.65,11.63,11.57,16.07,0.95,0.95,0.97
31.61,-10.52,-11.48,-10.52,-11.48,11.48,11.48,16.03,0.96,0.96,0.97
31.93,-10.35,-11.31,-10.35,-11.31,11.33,11.40,15.95,0.98,0.98,0.97
32.24,-10.19,-11.15,-10.20,-11.16,11.18,11.30,15.82,0.99,0.98,0.96
32.57,-10.06,-11.01,-10.05,-11.01,11.04,11.21,15.66,0.98,0.99,0.96
32.89,-9.92,-10.88,-9.93,-10.88,10.90,11.11,15.47,0.98,0.98,0.96
33.22,-9.81,-10.75,-9.81,-10.76,10.77,11.01,15.25,0.96,0.95,0.95
33.55,-9.70,-10.65,-9.71,-10.65,10.63,10.90,15.00,0.93,0.93,0.95
33.89,-9.61,-10.54,-9.59,-10.53,10.50,10.79,14.74,0.90,0.91,0.94
34.23,-9.47,-10.40,-9.46,-10.40,10.37,10.68,14.46,0.90,0.91,0.94
34.57,-9.32,-10.24,-9.32,-10.25,10.23,10.55,14.17,0.92,0.92,0.93
34.92,-9.16,-10.08,-9.16,-10.09,10.10,10.43,13.87,0.94,0.93,0.93
35.27,-9.02,-9.93,-9.01,-9.93,9.96,10.30,13.57,0.94,0.94,0.92
35.62,-8.88,-9.79,-8.87,-9.79,9.81,10.16,13.27,0.94,0.94,0.92
35.97,-8.73,-9.65,-8.74,-9.66,9.66,10.02,12.96,0.93,0.92,0.92
36.33,-8.61,-9.53,-8.62,-9.53,9.51,9.87,12.65,0.90,0.89,0.92
36.70,-8.49,-9.39,-8.49,-9.40,9.36,9.72,12.35,0.87,0.88,0.91
37.06,-8.35,-9.26,-8.33,-9.25,9.22,9.56,12.05,0.86,0.88,0.91
37.43,-8.16,-9.08,-8.16,-9.07,9.08,9.40,11.76,0.91,0.92,0.92
37.81,-7.98,-8.89,-7.99,-8.90,8.94,9.24,11.47,0.97,0.95,0.92
38.19,-7.83,-8.73,-7.84,-8.76,8.80,9.07,11.18,0.98,0.96,0.91
38.57,-7.74,-8.65,-7.73,-8.64,8.67,8.90,10.90,0.93,0.94,0.92
38.95,-7.63,-8.56,-7.63,-8.54,8.53,8.73,10.63,0.89,0.90,0.93
39.34,-7.51,-8.43,-7.52,-8.44,8.39,8.56,10.36,0.88,0.88,0.92
39.74,-7.39,-8.30,-7.39,-8.30,8.26,8.39,10.09,0.88,0.88,0.92
40.14,-7.25,-8.16,-7.23,-8.15,8.14,8.21,9.84,0.89,0.91,0.92
40.54,-7.08,-7.99,-7.08,-7.99,8.02,8.04,9.59,0.94,0.94,0.92
40.94,-6.92,-7.82,-6.94,-7.85,7.89,7.87,9.34,0.98,0.95,0.91
41.35,-6.83,-7.73,-6.83,-7.73,7.77,7.69,9.10,0.94,0.94,0.91
41.76,-6.74,-7.64,-6.73,-7.63,7.64,7.52,8.87,0.89,0.90,0.90
42.18,-6.64,-7.54,-6.64,-7.53,7.51,7.35,8.64,0.86,0.87,0.90
42.60,-6.51,-7.40,-6.52,-7.41,7.37,7.18,8.42,0.86,0.85,0.89
43.03,-6.40,-7.27,-6.40,-7.27,7.24,7.01,8.20,0.85,0.85,0.88
43.46,-6.27,-7.13,-6.27,-7.13,7.11,6.84,7.99,0.85,0.84,0.87
43.90,-6.14,-6.98,-6.13,-6.98,6.98,6.68,7.78,0.84,0.85,0.85
44.33,-5.99,-6.82,-5.99,-6.81,6.85,6.52,7.57,0.86,0.86,0.83
44.78,-5.85,-6.65,-5.86,-6.67,6.72,6.36,7.38,0.87,0.86,0.81
45.23,-5.75,-6.54,-5.76,-6.56,6.58,6.20,7.18,0.84,0.82,0.80
45.68,-5.70,-6.48,-5.68,-6.47,6.46,6.05,6.99,0.76,0.77,0.79
46.13,-5.61,-6.38,-5.60,-6.37,6.33,5.90,6.81,0.72,0.73,0.77
46.60,-5.49,-6.25,-5.49,-6.25,6.21,5.75,6.62,0.73,0.72,0.77
47.06,-5.35,-6.10,-5.35,-6.10,6.10,5.61,6.45,0.74,0.75,0.75
47.53,-5.21,-5.95,-5.21,-5.96,5.98,5.46,6.27,0.76,0.77,0.74
48.01,-5.08,-5.81,-5.10,-5.83,5.85,5.32,6.10,0.77,0.75,0.74
48.49,-5.02,-5.73,-5.01,-5.73,5.72,5.19,5.94,0.70,0.71,0.72
48.97,-4.94,-5.64,-4.93,-5.63,5.60,5.06,5.77,0.65,0.67,0.70
49.46,-4.83,-5.51,-4.84,-5.51,5.48,4.93,5.61,0.65,0.64,0.68
49.96,-4.72,-5.37,-4.70,-5.36,5.38,4.80,5.46,0.66,0.68,0.66
50.46,-4.59,-5.23,-4.57,-5.22,5.29,4.68,5.30,0.70,0.71,0.65
50.96,-4.45,-5.08,-4.53,-5.16,5.20,4.55,5.15,0.75,0.67,0.64
51.47,-4.51,-5.12,-4.51,-5.13,5.12,4.44,5.01,0.62,0.61,0.62
51.99,-4.57,-5.18,-4.47,-5.08,5.05,4.32,4.87,0.48,0.59,0.61
52.51,-4.41,-5.00,-4.41,-5.01,4.99,4.21,4.72,0.59,0.59,0.60
53.03,-4.24,-4.83,-4.33,-4.92,4.94,4.10,4.59,0.70,0.60,0.60
53.56,-4.28,-4.85,-4.26,-4.84,4.87,3.99,4.45,0.59,0.61,0.58
54.10,-4.29,-4.85,-4.23,-4.80,4.78,3.89,4.32,0.50,0.55,0.57
54.64,-4.18,-4.72,-4.19,-4.74,4.68,3.79,4.19,0.50,0.49,0.55
55.18,-4.07,-4.62,-4.09,-4.64,4.57,3.69,4.07,0.49,0.47,0.55
55.74,-3.98,-4.50,-3.94,-4.47,4.45,3.59,3.95,0.47,0.50,0.53
56.29,-3.81,-4.33,-3.79,-4.30,4.33,3.50,3.83,0.51,0.54,0.52
56.86,-3.60,-4.10,-3.66,-4.16,4.22,3.40,3.71,0.62,0.56,0.51
57.42,-3.55,-4.02,-3.56,-4.05,4.11,3.31,3.60,0.57,0.55,0.48
58.00,-3.56,-4.02,-3.52,-3.98,4.02,3.23,3.49,0.46,0.50,0.47
58.58,-3.49,-3.94,-3.47,-3.93,3.94,3.14,3.38,0.45,0.46,0.46
59.16,-3.41,-3.85,-3.40,-3.84,3.86,3.06,3.27,0.44,0.46,0.44
59.76,-3.33,-3.74,-3.39,-3.81,3.79,2.98,3.17,0.46,0.39,0.42
60.35,-3.37,-3.74,-3.40,-3.78,3.72,2.90,3.07,0.35,0.32,0.38
60.96,-3.49,-3.83,-3.35,-3.69,3.64,2.82,2.98,0.14,0.29,0.34
61.57,-3.26,-3.55,-3.27,-3.57,3.54,2.74,2.88,0.29,0.27,0.30
62.18,-3.07,-3.32,-3.16,-3.42,3.43,2.67,2.79,0.37,0.27,0.26
62.80,-3.09,-3.29,-3.05,-3.26,3.31,2.60,2.71,0.22,0.25,0.21
63.43,-3.05,-3.21,-3.03,-3.19,3.18,2.53,2.62,0.14,0.15,0.17
64.07,-2.98,-3.09,-2.99,-3.11,3.06,2.46,2.54,0.09,0.07,0.12
64.71,-2.92,-2.99,-2.87,-2.95,2.96,2.39,2.46,0.04,0.08,0.08
65.35,-2.78,-2.82,-2.76,-2.79,2.86,2.33,2.38,0.08,0.10,0.04
66.01,-2.61,-2.59,-2.70,-2.69,2.78,2.26,2.31,0.17,0.08,-0.01
66.67,-2.72,-2.65,-2.73,-2.66,2.70,2.20,2.24,-0.02,-0.03,-0.06
67.33,-2.81,-2.69,-2.78,-2.67,2.63,2.14,2.17,-0.18,-0.15,-0.11
68.01,-2.88,-2.72,-2.79,-2.64,2.55,2.08,2.10,-0.32,-0.24,-0.15
68.69,-2.69,-2.48,-2.72,-2.52,2.48,2.02,2.03,-0.21,-0.24,-0.20
69.37,-2.60,-2.34,-2.64,-2.39,2.40,1.96,1.97,-0.19,-0.24,-0.25
70.07,-2.59,-2.28,-2.58,-2.28,2.31,1.90,1.91,-0.28,-0.27,-0.30
70.77,-2.59,-2.23,-2.59,-2.24,2.20,1.85,1.85,-0.39,-0.39,-0.35
71.48,-2.59,-2.18,-2.56,-2.15,2.09,1.79,1.79,-0.49,-0.47,-0.40
72.19,-2.53,-2.05,-2.47,-2.00,1.99,1.74,1.73,-0.53,-0.47,-0.47
72.91,-2.32,-1.78,-2.37,-1.84,1.90,1.69,1.68,-0.41,-0.47,-0.53
73.64,-2.29,-1.70,-2.33,-1.74,1.83,1.64,1.62,-0.46,-0.50,-0.58
74.38,-2.37,-1.72,-2.36,-1.72,1.76,1.59,1.57,-0.60,-0.60,-0.64
75.12,-2.49,-1.78,-2.44,-1.74,1.71,1.54,1.51,-0.77,-0.73,-0.70
75.87,-2.49,-1.72,-2.49,-1.73,1.67,1.49,1.46,-0.81,-0.82,-0.76
76.63,-2.49,-1.67,-2.50,-1.68,1.65,1.44,1.41,-0.83,-0.84,-0.81
77.40,-2.49,-1.62,-2.47,-1.61,1.64,1.40,1.36,-0.84,-0.83,-0.86
78.17,-2.49,-1.56,-2.49,-1.57,1.62,1.35,1.31,-0.86,-0.86,-0.92
78.95,-2.49,-1.52,-2.54,-1.57,1.59,1.31,1.26,-0.90,-0.96,-0.96
79.74,-2.62,-1.60,-2.61,-1.59,1.53,1.26,1.21,-1.08,-1.07,-1.01
80.54,-2.68,-1.61,-2.61,-1.55,1.47,1.22,1.16,-1.21,-1.14,-1.06
81.35,-2.59,-1.47,-2.56,-1.45,1.39,1.17,1.11,-1.20,-1.17,-1.11
82.16,-2.39,-1.22,-2.46,-1.30,1.30,1.13,1.07,-1.08,-1.16,-1.16
82.98,-2.39,-1.18,-2.39,-1.19,1.22,1.09,1.02,-1.17,-1.18,-1.20
83.81,-2.39,-1.13,-2.37,-1.11,1.14,1.05,0.97,-1.24,-1.23,-1.25
84.65,-2.39,-1.08,-2.35,-1.05,1.08,1.01,0.92,-1.31,-1.27,-1.30
85.50,-2.31,-0.96,-2.31,-0.96,1.03,0.97,0.88,-1.27,-1.28,-1.34
86.35,-2.27,-0.87,-2.31,-0.91,1.00,0.93,0.83,-1.26,-1.30,-1.39
87.22,-2.36,-0.91,-2.37,-0.93,0.98,0.89,0.78,-1.38,-1.39,-1.44
88.09,-2.50,-1.00,-2.51,-1.01,0.95,0.85,0.74,-1.54,-1.55,-1.49
88.97,-2.64,-1.08,-2.59,-1.04,0.92,0.81,0.69,-1.71,-1.66,-1.55
89.86,-2.65,-1.04,-2.58,-0.98,0.88,0.78,0.64,-1.77,-1.71,-1.60
90.76,-2.45,-0.79,-2.53,-0.87,0.82,0.74,0.59,-1.62,-1.70,-1.65
91.66,-2.44,-0.73,-2.44,-0.73,0.76,0.70,0.55,-1.67,-1.68,-1.70
92.58,-2.42,-0.65,-2.38,-0.62,0.69,0.66,0.50,-1.73,-1.69,-1.76
93.51,-2.36,-0.54,-2.38,-0.57,0.62,0.63,0.45,-1.74,-1.76,-1.81
94.44,-2.36,-0.50,-2.36,-0.51,0.55,0.59,0.40,-1.81,-1.82,-1.85
95.39,-2.38,-0.47,-2.36,-0.46,0.49,0.55,0.36,-1.88,-1.87,-1.90
96.34,-2.39,-0.43,-2.37,-0.42,0.44,0.52,0.31,-1.94,-1.93,-1.95
97.30,-2.39,-0.38,-2.41,-0.41,0.39,0.48,0.26,-1.99,-2.01,-2.00
98.28,-2.43,-0.37,-2.46,-0.41,0.34,0.45,0.21,-2.09,-2.12,-2.05
99.26,-2.52,-0.42,-2.47,-0.37,0.28,0.41,0.17,-2.24,-2.19,-2.09
100.25,-2.48,-0.33,-2.41,-0.27,0.21,0.38,0.12,-2.26,-2.20,-2.14
101.25,-2.29,-0.09,-2.32,-0.13,0.15,0.34,0.07,-2.14,-2.17,-2.19
102.27,-2.18,0.07,-2.24,0.01,0.08,0.31,0.02,-2.10,-2.16,-2.24
103.29,-2.24,0.06,-2.22,0.07,0.02,0.27,-0.02,-2.22,-2.20,-2.29
104.32,-2.29,0.05,-2.26,0.07,-0.04,0.24,-0.07,-2.33,-2.31,-2.33
105.37,-2.32,0.07,-2.31,0.07,-0.09,0.20,-0.12,-2.41,-2.41,-2.38
106.42,-2.34,0.10,-2.34,0.09,-0.12,0.17,-0.16,-2.46,-2.47,-2.43
107.48,-2.37,0.13,-2.36,0.13,-0.15,0.13,-0.21,-2.51,-2.51,-2.49
108.56,-2.39,0.16,-2.39,0.16,-0.17,0.10,-0.25,-2.55,-2.55,-2.54
109.64,-2.41,0.19,-2.41,0.19,-0.20,0.06,-0.30,-2.60,-2.60,-2.59
110.74,-2.43,0.23,-2.43,0.22,-0.23,0.03,-0.34,-2.66,-2.66,-2.65
111.85,-2.45,0.25,-2.45,0.25,-0.27,-0.01,-0.38,-2.72,-2.72,-2.69
112.97,-2.46,0.30,-2.44,0.31,-0.31,-0.04,-0.43,-2.76,-2.75,-2.75
114.10,-2.45,0.36,-2.44,0.37,-0.34,-0.08,-0.47,-2.79,-2.77,-2.80
115.24,-2.41,0.45,-2.45,0.41,-0.37,-0.11,-0.51,-2.78,-2.82,-2.85
116.39,-2.49,0.42,-2.48,0.42,-0.40,-0.15,-0.54,-2.89,-2.88,-2.90
117.55,-2.55,0.40,-2.52,0.42,-0.43,-0.18,-0.58,-2.98,-2.95,-2.94
118.73,-2.56,0.43,-2.55,0.43,-0.46,-0.22,-0.62,-3.02,-3.01,-2.98
119.92,-2.55,0.47,-2.55,0.47,-0.49,-0.26,-0.65,-3.03,-3.04,-3.01
121.12,-2.54,0.52,-2.54,0.51,-0.52,-0.29,-0.68,-3.05,-3.05,-3.05
122.33,-2.53,0.56,-2.53,0.55,-0.55,-0.33,-0.71,-3.07,-3.08,-3.08
123.55,-2.53,0.59,-2.52,0.59,-0.58,-0.37,-0.74,-3.11,-3.10,-3.11
124.79,-2.52,0.63,-2.52,0.63,-0.62,-0.41,-0.77,-3.14,-3.14,-3.14
126.03,-2.51,0.67,-2.51,0.66,-0.66,-0.44,-0.80,-3.17,-3.17,-3.17
127.29,-2.51,0.69,-2.50,0.70,-0.70,-0.48,-0.82,-3.21,-3.20,-3.19
128.57,-2.50,0.74,-2.50,0.73,-0.74,-0.52,-0.85,-3.23,-3.23,-3.23
129.85,-2.49,0.78,-2.49,0.77,-0.77,-0.56,-0.87,-3.26,-3.26,-3.26
131.15,-2.49,0.81,-2.48,0.81,-0.81,-0.60,-0.89,-3.29,-3.29,-3.29
132.46,-2.48,0.85,-2.48,0.85,-0.84,-0.64,-0.91,-3.32,-3.32,-3.32
133.79,-2.48,0.88,-2.48,0.88,-0.88,-0.68,-0.92,-3.35,-3.35,-3.35
135.12,-2.48,0.91,-2.47,0.91,-0.91,-0.72,-0.94,-3.39,-3.38,-3.38
136.48,-2.47,0.94,-2.47,0.94,-0.94,-0.76,-0.95,-3.41,-3.41,-3.40
137.84,-2.47,0.98,-2.47,0.98,-0.97,-0.80,-0.97,-3.44,-3.44,-3.44
139.22,-2.47,1.01,-2.46,1.01,-1.00,-0.84,-0.98,-3.47,-3.47,-3.47
140.61,-2.47,1.04,-2.47,1.03,-1.03,-0.89,-1.00,-3.50,-3.50,-3.50
142.02,-2.47,1.06,-2.47,1.06,-1.06,-0.93,-1.01,-3.52,-3.52,-3.52
143.44,-2.47,1.09,-2.47,1.09,-1.09,-0.97,-1.02,-3.56,-3.56,-3.55
144.87,-2.47,1.13,-2.47,1.12,-1.13,-1.01,-1.03,-3.59,-3.59,-3.59
146.32,-2.47,1.17,-2.47,1.16,-1.17,-1.06,-1.04,-3.64,-3.64,-3.63
147.78,-2.47,1.20,-2.47,1.20,-1.22,-1.10,-1.06,-3.68,-3.68,-3.66
149.26,-2.47,1.25,-2.47,1.25,-1.27,-1.15,-1.07,-3.73,-3.73,-3.71
150.75,-2.47,1.31,-2.47,1.31,-1.32,-1.19,-1.08,-3.78,-3.78,-3.77
152.26,-2.47,1.38,-2.46,1.38,-1.37,-1.23,-1.09,-3.84,-3.83,-3.84
153.78,-2.47,1.45,-2.46,1.45,-1.43,-1.28,-1.11,-3.89,-3.89,-3.91
155.32,-2.46,1.53,-2.50,1.49,-1.48,-1.33,-1.12,-3.94,-3.98,-3.98
156.88,-2.55,1.52,-2.54,1.52,-1.54,-1.37,-1.13,-4.08,-4.07,-4.06
158.44,-2.63,1.52,-2.58,1.57,-1.58,-1.42,-1.15,-4.20,-4.16,-4.14
160.03,-2.59,1.64,-2.60,1.62,-1.62,-1.46,-1.17,-4.20,-4.22,-4.22
161.63,-2.61,1.69,-2.62,1.67,-1.65,-1.51,-1.18,-4.25,-4.27,-4.29
163.24,-2.65,1.71,-2.66,1.70,-1.67,-1.55,-1.20,-4.32,-4.33,-4.35
164.88,-2.73,1.68,-2.71,1.69,-1.70,-1.60,-1.22,-4.42,-4.41,-4.40
166.53,-2.77,1.69,-2.76,1.70,-1.72,-1.64,-1.24,-4.48,-4.47,-4.45
168.19,-2.78,1.72,-2.78,1.71,-1.73,-1.68,-1.26,-4.51,-4.51,-4.49
169.87,-2.79,1.75,-2.79,1.74,-1.74,-1.73,-1.28,-4.53,-4.53,-4.53
171.57,-2.80,1.76,-2.79,1.76,-1.74,-1.77,-1.31,-4.54,-4.54,-4.55
173.29,-2.80,1.77,-2.80,1.77,-1.75,-1.81,-1.33,-4.54,-4.55,-4.56
175.02,-2.81,1.77,-2.80,1.77,-1.75,-1.85,-1.36,-4.56,-4.56,-4.57
176.77,-2.81,1.78,-2.81,1.78,-1.77,-1.89,-1.38,-4.58,-4.58,-4.58
178.54,-2.81,1.79,-2.81,1.77,-1.80,-1.93,-1.41,-4.60,-4.61,-4.59
180.32,-2.81,1.78,-2.81,1.77,-1.82,-1.97,-1.44,-4.63,-4.64,-4.58
182.13,-2.80,1.78,-2.77,1.81,-1.85,-2.01,-1.47,-4.65,-4.62,-4.57
183.95,-2.73,1.86,-2.69,1.89,-1.88,-2.04,-1.50,-4.61,-4.58,-4.58
185.79,-2.58,2.01,-2.63,1.96,-1.92,-2.08,-1.54,-4.49,-4.55,-4.58
187.65,-2.58,2.03,-2.60,2.00,-1.95,-2.11,-1.57,-4.53,-4.55,-4.60
189.52,-2.64,1.98,-2.60,2.01,-1.99,-2.14,-1.61,-4.62,-4.59,-4.61
191.42,-2.64,2.00,-2.63,2.01,-2.03,-2.17,-1.64,-4.66,-4.65,-4.63
193.33,-2.62,2.04,-2.62,2.03,-2.06,-2.19,-1.68,-4.67,-4.68,-4.65
195.27,-2.61,2.07,-2.60,2.07,-2.08,-2.22,-1.72,-4.69,-4.69,-4.67
197.22,-2.59,2.11,-2.59,2.10,-2.11,-2.24,-1.76,-4.69,-4.69,-4.69
199.19,-2.58,2.14,-2.58,2.13,-2.13,-2.26,-1.80,-4.70,-4.71,-4.71
201.18,-2.58,2.16,-2.57,2.16,-2.15,-2.27,-1.84,-4.73,-4.72,-4.73
203.19,-2.57,2.19,-2.57,2.18,-2.18,-2.29,-1.88,-4.74,-4.75,-4.75
205.23,-2.57,2.21,-2.57,2.20,-2.20,-2.30,-1.92,-4.77,-4.77,-4.77
207.28,-2.57,2.22,-2.56,2.22,-2.23,-2.31,-1.96,-4.80,-4.80,-4.78
209.35,-2.57,2.24,-2.57,2.24,-2.26,-2.32,-2.00,-4.83,-4.83,-4.80
211.44,-2.57,2.27,-2.58,2.25,-2.28,-2.32,-2.04,-4.85,-4.86,-4.83
213.56,-2.58,2.27,-2.56,2.28,-2.29,-2.32,-2.08,-4.87,-4.85,-4.84
215.69,-2.58,2.28,-2.54,2.31,-2.29,-2.32,-2.12,-4.87,-4.83,-4.85
217.85,-2.49,2.38,-2.54,2.32,-2.27,-2.32,-2.15,-4.76,-4.82,-4.86
220.03,-2.57,2.31,-2.56,2.32,-2.25,-2.31,-2.19,-4.81,-4.81,-4.87
222.23,-2.66,2.25,-2.62,2.27,-2.22,-2.31,-2.22,-4.87,-4.84,-4.90
224.45,-2.69,2.21,-2.74,2.16,-2.18,-2.30,-2.26,-4.87,-4.92,-4.89
226.70,-2.83,2.07,-2.81,2.08,-2.15,-2.29,-2.29,-4.97,-4.95,-4.89
228.96,-2.90,1.99,-2.84,2.05,-2.11,-2.27,-2.32,-5.00,-4.95,-4.88
231.25,-2.81,2.07,-2.83,2.04,-2.08,-2.26,-2.34,-4.88,-4.91,-4.87
233.57,-2.77,2.10,-2.79,2.08,-2.07,-2.24,-2.37,-4.83,-4.85,-4.86
235.90,-2.76,2.10,-2.75,2.11,-2.07,-2.22,-2.39,-4.83,-4.82,-4.85
238.26,-2.74,2.11,-2.74,2.10,-2.09,-2.20,-2.40,-4.83,-4.84,-4.84
240.64,-2.72,2.10,-2.73,2.08,-2.12,-2.18,-2.42,-4.84,-4.86,-4.81
243.05,-2.71,2.08,-2.66,2.13,-2.15,-2.15,-2.43,-4.85,-4.81,-4.78
245.48,-2.61,2.16,-2.58,2.18,-2.17,-2.13,-2.43,-4.77,-4.75,-4.76
247.93,-2.43,2.31,-2.52,2.22,-2.18,-2.10,-2.43,-4.60,-4.69,-4.73
250.41,-2.50,2.22,-2.48,2.23,-2.18,-2.08,-2.43,-4.68,-4.66,-4.71
252.92,-2.53,2.16,-2.49,2.19,-2.18,-2.05,-2.43,-4.70,-4.67,-4.68
255.45,-2.52,2.15,-2.52,2.14,-2.17,-2.02,-2.42,-4.69,-4.69,-4.66
258.00,-2.51,2.14,-2.51,2.13,-2.16,-2.00,-2.40,-4.66,-4.66,-4.64
260.58,-2.50,2.13,-2.50,2.12,-2.13,-1.97,-2.38,-4.63,-4.63,-4.62
263.19,-2.50,2.10,-2.50,2.10,-2.10,-1.94,-2.36,-4.60,-4.60,-4.59
265.82,-2.50,2.08,-2.50,2.08,-2.07,-1.91,-2.34,-4.57,-4.57,-4.57
268.48,-2.51,2.05,-2.50,2.05,-2.04,-1.88,-2.31,-4.55,-4.55,-4.55
271.16,-2.51,2.02,-2.51,2.02,-2.02,-1.85,-2.28,-4.53,-4.53,-4.52
273.87,-2.51,2.00,-2.51,1.99,-1.99,-1.82,-2.24,-4.50,-4.50,-4.50
276.61,-2.51,1.97,-2.51,1.97,-1.97,-1.79,-2.21,-4.47,-4.47,-4.47
279.38,-2.51,1.94,-2.51,1.94,-1.94,-1.76,-2.17,-4.45,-4.45,-4.44
282.17,-2.51,1.92,-2.51,1.91,-1.91,-1.73,-2.13,-4.42,-4.42,-4.42
284.99,-2.51,1.88,-2.50,1.89,-1.89,-1.70,-2.08,-4.40,-4.40,-4.38
287.84,-2.50,1.87,-2.50,1.87,-1.87,-1.68,-2.04,-4.36,-4.36,-4.36
290.72,-2.49,1.85,-2.48,1.85,-1.85,-1.65,-1.99,-4.33,-4.33,-4.33
293.63,-2.47,1.84,-2.47,1.83,-1.83,-1.62,-1.94,-4.30,-4.30,-4.30
296.57,-2.46,1.82,-2.46,1.82,-1.82,-1.59,-1.90,-4.27,-4.27,-4.27
299.53,-2.45,1.80,-2.44,1.80,-1.81,-1.56,-1.85,-4.26,-4.26,-4.24
302.53,-2.44,1.79,-2.44,1.78,-1.81,-1.54,-1.80,-4.25,-4.25,-4.22
305.55,-2.43,1.76,-2.43,1.76,-1.80,-1.51,-1.74,-4.22,-4.23,-4.18
308.61,-2.42,1.75,-2.39,1.77,-1.77,-1.49,-1.69,-4.18,-4.16,-4.16
311.69,-2.39,1.75,-2.36,1.78,-1.72,-1.46,-1.64,-4.11,-4.08,-4.13
314.81,-2.31,1.81,-2.38,1.73,-1.66,-1.43,-1.59,-3.97,-4.04,-4.11
317.96,-2.43,1.67,-2.43,1.67,-1.59,-1.41,-1.54,-4.02,-4.02,-4.09
321.14,-2.61,1.48,-2.54,1.54,-1.52,-1.39,-1.49,-4.13,-4.06,-4.08
324.35,-2.62,1.45,-2.69,1.38,-1.45,-1.36,-1.44,-4.06,-4.13,-4.06
327.59,-2.81,1.25,-2.77,1.28,-1.36,-1.34,-1.39,-4.17,-4.13,-4.05
330.87,-2.87,1.18,-2.82,1.22,-1.27,-1.31,-1.34,-4.13,-4.09,-4.04
334.18,-2.83,1.20,-2.86,1.16,-1.17,-1.29,-1.29,-3.99,-4.03,-4.02
337.52,-2.87,1.15,-2.86,1.16,-1.08,-1.27,-1.25,-3.95,-3.94,-4.01
340.90,-2.91,1.10,-2.90,1.10,-1.01,-1.25,-1.20,-3.92,-3.92,-4.00
344.30,-2.96,1.04,-3.02,0.97,-0.96,-1.22,-1.15,-3.92,-3.98,-3.99
347.75,-3.16,0.84,-3.12,0.87,-0.92,-1.20,-1.11,-4.08,-4.04,-3.99
351.23,-3.25,0.74,-3.18,0.81,-0.89,-1.18,-1.06,-4.14,-4.07,-3.98
354.74,-3.15,0.85,-3.18,0.81,-0.87,-1.16,-1.02,-4.02,-4.06,-3.99
358.28,-3.11,0.88,-3.13,0.85,-0.86,-1.14,-0.97,-3.97,-4.00,-3.98
361.87,-3.11,0.88,-3.10,0.89,-0.85,-1.12,-0.93,-3.96,-3.95,-3.98
365.49,-3.10,0.88,-3.09,0.89,-0.86,-1.09,-0.89,-3.95,-3.95,-3.97
369.14,-3.09,0.90,-3.08,0.90,-0.86,-1.07,-0.85,-3.95,-3.94,-3.98
372.83,-3.08,0.91,-3.07,0.92,-0.87,-1.05,-0.81,-3.95,-3.94,-3.98
376.56,-3.08,0.92,-3.11,0.88,-0.86,-1.03,-0.77,-3.94,-3.97,-3.99
380.33,-3.14,0.85,-3.17,0.81,-0.84,-1.01,-0.73,-3.97,-4.01,-3.98
384.13,-3.30,0.69,-3.21,0.78,-0.80,-0.98,-0.69,-4.10,-4.02,-3.98
387.97,-3.24,0.76,-3.21,0.78,-0.78,-0.96,-0.65,-4.01,-3.99,-3.99
391.85,-3.17,0.84,-3.23,0.77,-0.77,-0.94,-0.62,-3.93,-3.99,-4.00
395.77,-3.20,0.80,-3.25,0.75,-0.76,-0.92,-0.58,-3.95,-4.01,-3.99
399.73,-3.38,0.63,-3.32,0.68,-0.74,-0.89,-0.55,-4.12,-4.06,-4.00
403.72,-3.38,0.63,-3.32,0.69,-0.73,-0.87,-0.52,-4.10,-4.04,-4.00
407.76,-3.29,0.74,-3.26,0.75,-0.71,-0.84,-0.48,-3.99,-3.97,-4.02
411.84,-3.12,0.91,-3.23,0.79,-0.69,-0.82,-0.45,-3.81,-3.92,-4.02
415.96,-3.27,0.76,-3.28,0.75,-0.68,-0.79,-0.42,-3.94,-3.96,-4.02
420.12,-3.46,0.57,-3.37,0.65,-0.67,-0.76,-0.39,-4.12,-4.04,-4.02
424.32,-3.47,0.56,-3.47,0.55,-0.66,-0.74,-0.37,-4.12,-4.13,-4.02
428.56,-3.45,0.57,-3.47,0.55,-0.64,-0.71,-0.34,-4.09,-4.11,-4.01
432.85,-3.44,0.57,-3.37,0.63,-0.62,-0.68,-0.32,-4.05,-3.99,-4.00
