frequency,raw,error,smoothed,error_smoothed,equalization,parametric_eq,fixed_band_eq,equalized_raw,equalized_smoothed,target
20.00,-3.82,-3.99,-3.93,-4.13,4.13,2.96,0.65,0.30,0.19,0.17
20.20,-3.77,-3.99,-3.85,-4.08,4.08,3.05,0.67,0.31,0.23,0.22
20.40,-3.72,-3.99,-3.76,-4.03,4.03,3.13,0.69,0.30,0.27,0.27
20.61,-3.67,-3.97,-3.67,-3.97,3.97,3.19,0.71,0.30,0.30,0.29
20.81,-3.62,-3.97,-3.58,-3.91,3.91,3.22,0.73,0.29,0.33,0.35
21.02,-3.56,-3.95,-3.49,-3.85,3.85,3.23,0.75,0.29,0.36,0.39
21.23,-3.49,-3.90,-3.40,-3.79,3.79,3.22,0.78,0.30,0.38,0.41
21.44,-3.42,-3.85,-3.31,-3.72,3.72,3.19,0.80,0.30,0.41,0.43
21.66,-3.35,-3.80,-3.22,-3.65,3.65,3.13,0.82,0.30,0.43,0.44
21.87,-3.28,-3.74,-3.13,-3.58,3.58,3.05,0.85,0.30,0.45,0.46
22.09,-3.16,-3.63,-3.04,-3.50,3.50,2.96,0.87,0.34,0.46,0.48
22.31,-2.97,-3.45,-2.95,-3.42,3.42,2.86,0.90,0.45,0.48,0.49
22.54,-2.78,-3.27,-2.84,-3.32,3.32,2.74,0.92,0.54,0.48,0.49
22.76,-2.60,-3.09,-2.74,-3.22,3.22,2.62,0.95,0.62,0.49,0.49
22.99,-2.41,-2.89,-2.63,-3.12,3.12,2.49,0.98,0.71,0.49,0.48
23.22,-2.38,-2.86,-2.53,-3.02,3.02,2.36,1.01,0.64,0.49,0.48
23.45,-2.37,-2.85,-2.43,-2.92,2.92,2.23,1.04,0.55,0.49,0.48
23.69,-2.35,-2.84,-2.33,-2.82,2.82,2.10,1.07,0.47,0.49,0.49
23.92,-2.34,-2.83,-2.24,-2.73,2.73,1.98,1.09,0.39,0.49,0.49
24.16,-2.25,-2.74,-2.15,-2.64,2.64,1.86,1.12,0.39,0.49,0.49
24.40,-2.14,-2.63,-2.06,-2.55,2.55,1.74,1.15,0.41,0.49,0.50
24.65,-2.03,-2.52,-1.98,-2.46,2.46,1.63,1.19,0.43,0.49,0.49
24.89,-1.92,-2.40,-1.89,-2.38,2.38,1.52,1.22,0.46,0.49,0.49
25.14,-1.81,-2.30,-1.80,-2.29,2.29,1.42,1.25,0.48,0.49,0.49
25.39,-1.72,-2.21,-1.71,-2.20,2.20,1.33,1.28,0.48,0.49,0.50
25.65,-1.62,-2.12,-1.62,-2.11,2.11,1.24,1.31,0.49,0.49,0.50
25.91,-1.53,-2.02,-1.52,-2.01,2.01,1.15,1.34,0.48,0.49,0.49
26.16,-1.42,-1.90,-1.43,-1.92,1.92,1.07,1.37,0.50,0.49,0.49
26.43,-1.30,-1.79,-1.35,-1.83,1.83,0.99,1.39,0.53,0.49,0.49
26.69,-1.18,-1.67,-1.27,-1.76,1.76,0.92,1.42,0.57,0.48,0.49
26.96,-1.07,-1.56,-1.20,-1.69,1.69,0.85,1.45,0.61,0.48,0.49
27.23,-1.05,-1.54,-1.13,-1.61,1.61,0.79,1.47,0.56,0.48,0.49
27.50,-1.04,-1.53,-1.06,-1.54,1.54,0.73,1.50,0.50,0.48,0.49
27.77,-1.04,-1.52,-0.99,-1.47,1.47,0.67,1.52,0.43,0.48,0.48
28.05,-1.03,-1.51,-0.93,-1.41,1.41,0.62,1.54,0.38,0.48,0.48
28.33,-0.96,-1.43,-0.88,-1.35,1.35,0.56,1.55,0.39,0.47,0.47
28.62,-0.90,-1.37,-0.82,-1.30,1.30,0.51,1.57,0.39,0.47,0.47
28.90,-0.83,-1.31,-0.77,-1.24,1.24,0.47,1.58,0.41,0.47,0.48
29.19,-0.73,-1.20,-0.71,-1.18,1.18,0.42,1.59,0.45,0.47,0.47
29.48,-0.61,-1.09,-0.65,-1.12,1.12,0.38,1.60,0.51,0.47,0.48
29.78,-0.48,-0.95,-0.58,-1.05,1.05,0.34,1.60,0.57,0.47,0.47
30.08,-0.39,-0.87,-0.51,-0.98,0.98,0.30,1.60,0.58,0.47,0.48
30.38,-0.39,-0.86,-0.43,-0.90,0.90,0.26,1.59,0.51,0.46,0.47
30.68,-0.40,-0.87,-0.35,-0.82,0.82,0.23,1.59,0.41,0.46,0.47
30.99,-0.40,-0.87,-0.27,-0.73,0.73,0.19,1.57,0.33,0.46,0.47
31.30,-0.27,-0.73,-0.19,-0.65,0.65,0.16,1.56,0.37,0.46,0.46
31.61,-0.12,-0.58,-0.12,-0.57,0.57,0.12,1.54,0.45,0.46,0.46
31.93,0.02,-0.44,-0.05,-0.51,0.51,0.09,1.52,0.52,0.45,0.46
32.24,0.07,-0.38,0.00,-0.45,0.45,0.06,1.49,0.52,0.45,0.45
32.57,0.11,-0.34,0.07,-0.37,0.37,0.03,1.46,0.48,0.44,0.45
32.89,0.14,-0.31,0.15,-0.29,0.29,0.00,1.43,0.43,0.44,0.45
33.22,0.21,-0.23,0.23,-0.20,0.20,-0.03,1.39,0.41,0.44,0.44
33.55,0.31,-0.13,0.31,-0.12,0.12,-0.05,1.35,0.43,0.43,0.44
33.89,0.40,-0.03,0.38,-0.05,0.05,-0.08,1.31,0.45,0.43,0.43
34.23,0.44,0.01,0.45,0.02,-0.02,-0.11,1.26,0.41,0.42,0.43
34.57,0.45,0.03,0.52,0.10,-0.10,-0.14,1.21,0.35,0.42,0.42
34.92,0.47,0.05,0.59,0.18,-0.18,-0.16,1.16,0.29,0.41,0.42
35.27,0.61,0.20,0.65,0.24,-0.24,-0.19,1.11,0.36,0.41,0.41
35.62,0.79,0.38,0.71,0.30,-0.30,-0.22,1.05,0.48,0.41,0.41
35.97,0.98,0.57,0.77,0.36,-0.36,-0.24,0.99,0.61,0.41,0.41
36.33,0.90,0.49,0.82,0.42,-0.42,-0.27,0.93,0.48,0.40,0.41
36.70,0.81,0.41,0.87,0.47,-0.47,-0.29,0.87,0.34,0.40,0.40
37.06,0.76,0.37,0.92,0.52,-0.52,-0.32,0.81,0.24,0.40,0.40
37.43,0.95,0.55,0.97,0.57,-0.57,-0.35,0.74,0.39,0.40,0.41
37.81,1.14,0.73,1.02,0.61,-0.61,-0.37,0.68,0.53,0.40,0.41
38.19,1.18,0.78,1.05,0.65,-0.65,-0.40,0.61,0.53,0.40,0.40
38.57,1.09,0.68,1.09,0.68,-0.68,-0.42,0.54,0.41,0.40,0.41
38.95,0.99,0.57,1.12,0.71,-0.71,-0.45,0.47,0.28,0.40,0.42
39.34,1.05,0.64,1.14,0.74,-0.74,-0.48,0.41,0.31,0.41,0.41
39.74,1.14,0.73,1.16,0.76,-0.76,-0.50,0.34,0.38,0.41,0.41
40.14,1.21,0.80,1.18,0.78,-0.78,-0.53,0.27,0.43,0.40,0.41
40.54,1.28,0.87,1.22,0.82,-0.82,-0.56,0.20,0.46,0.40,0.41
40.94,1.35,0.95,1.26,0.86,-0.86,-0.59,0.13,0.48,0.40,0.40
41.35,1.32,0.92,1.30,0.91,-0.91,-0.61,0.05,0.41,0.39,0.40
41.76,1.27,0.88,1.32,0.94,-0.94,-0.64,-0.02,0.33,0.39,0.39
42.18,1.28,0.89,1.35,0.98,-0.98,-0.67,-0.09,0.30,0.38,0.39
42.60,1.38,1.00,1.39,1.03,-1.03,-0.70,-0.16,0.35,0.37,0.38
43.03,1.47,1.10,1.44,1.08,-1.08,-0.73,-0.23,0.39,0.36,0.37
43.46,1.44,1.08,1.48,1.13,-1.13,-0.76,-0.31,0.30,0.34,0.36
43.90,1.42,1.08,1.51,1.18,-1.18,-0.79,-0.38,0.24,0.33,0.34
44.33,1.53,1.22,1.54,1.22,-1.22,-0.83,-0.45,0.31,0.32,0.32
44.78,1.70,1.40,1.58,1.27,-1.27,-0.86,-0.53,0.43,0.31,0.30
45.23,1.73,1.44,1.60,1.31,-1.31,-0.89,-0.60,0.42,0.29,0.29
45.68,1.63,1.35,1.63,1.35,-1.35,-0.92,-0.68,0.28,0.28,0.28
46.13,1.58,1.32,1.65,1.39,-1.39,-0.96,-0.75,0.19,0.27,0.26
46.60,1.65,1.39,1.68,1.43,-1.43,-0.99,-0.83,0.22,0.25,0.26
47.06,1.71,1.47,1.70,1.46,-1.46,-1.03,-0.90,0.25,0.24,0.24
47.53,1.74,1.51,1.71,1.49,-1.49,-1.06,-0.98,0.25,0.22,0.23
48.01,1.76,1.53,1.72,1.51,-1.51,-1.10,-1.05,0.24,0.21,0.23
48.49,1.76,1.55,1.74,1.54,-1.54,-1.14,-1.13,0.21,0.19,0.21
48.97,1.76,1.57,1.76,1.58,-1.58,-1.17,-1.20,0.18,0.18,0.19
49.46,1.71,1.54,1.77,1.60,-1.60,-1.21,-1.28,0.10,0.17,0.17
49.96,1.66,1.51,1.78,1.62,-1.62,-1.25,-1.35,0.03,0.15,0.15
50.46,1.75,1.61,1.79,1.65,-1.65,-1.29,-1.43,0.10,0.14,0.14
50.96,1.85,1.72,1.81,1.68,-1.68,-1.33,-1.50,0.17,0.13,0.13
51.47,1.86,1.75,1.82,1.71,-1.71,-1.37,-1.58,0.15,0.11,0.11
51.99,1.86,1.76,1.82,1.72,-1.72,-1.42,-1.65,0.14,0.10,0.10
52.51,1.86,1.77,1.83,1.74,-1.74,-1.46,-1.72,0.12,0.09,0.09
53.03,1.86,1.77,1.83,1.76,-1.76,-1.50,-1.79,0.10,0.08,0.09
53.56,1.92,1.85,1.84,1.78,-1.78,-1.54,-1.86,0.14,0.06,0.07
54.10,1.93,1.87,1.86,1.80,-1.80,-1.59,-1.93,0.13,0.05,0.06
54.64,1.79,1.75,1.86,1.82,-1.82,-1.63,-2.00,-0.03,0.04,0.04
55.18,1.72,1.68,1.87,1.83,-1.83,-1.67,-2.06,-0.12,0.03,0.04
55.74,1.82,1.80,1.87,1.85,-1.85,-1.72,-2.12,-0.03,0.02,0.02
56.29,1.86,1.85,1.86,1.85,-1.85,-1.76,-2.18,0.01,0.01,0.01
56.86,1.86,1.86,1.85,1.86,-1.86,-1.80,-2.24,0.00,-0.01,-0.00
57.42,1.86,1.89,1.85,1.87,-1.87,-1.85,-2.29,-0.01,-0.02,-0.03
58.00,1.87,1.91,1.84,1.88,-1.88,-1.89,-2.34,-0.01,-0.04,-0.04
58.58,1.88,1.93,1.82,1.89,-1.89,-1.93,-2.39,-0.01,-0.06,-0.05
59.16,1.86,1.93,1.80,1.89,-1.89,-1.97,-2.43,-0.04,-0.09,-0.07
59.76,1.79,1.88,1.79,1.90,-1.90,-2.01,-2.47,-0.12,-0.12,-0.09
60.35,1.76,1.89,1.78,1.92,-1.92,-2.05,-2.50,-0.16,-0.15,-0.14
60.96,1.76,1.93,1.76,1.94,-1.94,-2.09,-2.53,-0.19,-0.18,-0.17
61.57,1.75,1.96,1.74,1.96,-1.96,-2.13,-2.56,-0.21,-0.22,-0.21
62.18,1.72,1.97,1.71,1.97,-1.97,-2.16,-2.58,-0.25,-0.26,-0.25
62.80,1.66,1.96,1.68,1.98,-1.98,-2.20,-2.59,-0.32,-0.30,-0.31
63.43,1.61,1.95,1.66,2.00,-2.00,-2.23,-2.60,-0.39,-0.34,-0.34
64.07,1.57,1.96,1.63,2.02,-2.02,-2.26,-2.61,-0.45,-0.38,-0.39
64.71,1.58,2.01,1.60,2.03,-2.03,-2.28,-2.61,-0.46,-0.43,-0.43
65.35,1.59,2.06,1.58,2.05,-2.05,-2.31,-2.61,-0.46,-0.48,-0.48
66.01,1.61,2.13,1.54,2.07,-2.07,-2.33,-2.60,-0.46,-0.52,-0.52
66.67,1.53,2.10,1.51,2.08,-2.08,-2.35,-2.59,-0.55,-0.57,-0.57
67.33,1.48,2.10,1.48,2.09,-2.09,-2.36,-2.58,-0.62,-0.62,-0.63
68.01,1.47,2.13,1.43,2.10,-2.10,-2.38,-2.56,-0.63,-0.67,-0.66
68.69,1.41,2.12,1.40,2.11,-2.11,-2.39,-2.54,-0.70,-0.72,-0.71
69.37,1.38,2.14,1.36,2.13,-2.13,-2.39,-2.51,-0.75,-0.77,-0.77
70.07,1.37,2.18,1.32,2.14,-2.14,-2.40,-2.49,-0.77,-0.82,-0.81
70.77,1.25,2.11,1.27,2.15,-2.15,-2.40,-2.46,-0.90,-0.87,-0.86
71.48,1.18,2.09,1.23,2.15,-2.15,-2.39,-2.43,-0.98,-0.93,-0.91
72.19,1.13,2.11,1.18,2.16,-2.16,-2.39,-2.40,-1.03,-0.99,-0.98
72.91,1.09,2.13,1.13,2.17,-2.17,-2.38,-2.36,-1.08,-1.04,-1.05
73.64,1.09,2.18,1.08,2.18,-2.18,-2.36,-2.33,-1.09,-1.10,-1.10
74.38,1.05,2.20,1.04,2.19,-2.19,-2.35,-2.29,-1.14,-1.15,-1.15
75.12,0.99,2.20,1.00,2.21,-2.21,-2.33,-2.26,-1.22,-1.21,-1.22
75.87,0.99,2.26,0.96,2.22,-2.22,-2.31,-2.22,-1.23,-1.26,-1.28
76.63,0.93,2.25,0.92,2.24,-2.24,-2.28,-2.19,-1.31,-1.32,-1.32
77.40,0.87,2.24,0.88,2.25,-2.25,-2.26,-2.15,-1.38,-1.37,-1.37
78.17,0.82,2.25,0.84,2.26,-2.26,-2.23,-2.12,-1.44,-1.43,-1.43
78.95,0.80,2.27,0.80,2.27,-2.27,-2.20,-2.08,-1.48,-1.48,-1.48
79.74,0.79,2.31,0.76,2.28,-2.28,-2.16,-2.05,-1.50,-1.53,-1.53
80.54,0.70,2.27,0.71,2.28,-2.28,-2.13,-2.01,-1.59,-1.57,-1.57
81.35,0.62,2.24,0.66,2.28,-2.28,-2.09,-1.98,-1.66,-1.62,-1.62
82.16,0.61,2.28,0.61,2.28,-2.28,-2.05,-1.95,-1.67,-1.67,-1.67
82.98,0.60,2.31,0.55,2.27,-2.27,-2.01,-1.92,-1.67,-1.72,-1.71
83.81,0.51,2.27,0.50,2.26,-2.26,-1.97,-1.89,-1.75,-1.77,-1.76
84.65,0.42,2.23,0.44,2.25,-2.25,-1.93,-1.86,-1.83,-1.81,-1.81
85.50,0.36,2.21,0.37,2.23,-2.23,-1.89,-1.84,-1.87,-1.86,-1.85
86.35,0.29,2.19,0.30,2.21,-2.21,-1.85,-1.81,-1.93,-1.91,-1.90
87.22,0.23,2.18,0.23,2.19,-2.19,-1.81,-1.79,-1.96,-1.96,-1.95
88.09,0.18,2.18,0.15,2.16,-2.16,-1.77,-1.77,-1.98,-2.01,-2.00
88.97,0.04,2.10,0.06,2.12,-2.12,-1.73,-1.75,-2.08,-2.06,-2.06
89.86,-0.00,2.11,-0.03,2.08,-2.08,-1.69,-1.73,-2.09,-2.11,-2.11
90.76,-0.12,2.04,-0.13,2.04,-2.04,-1.64,-1.71,-2.16,-2.16,-2.16
91.66,-0.22,1.99,-0.23,1.98,-1.98,-1.60,-1.70,-2.20,-2.21,-2.22
92.58,-0.33,1.94,-0.35,1.92,-1.92,-1.56,-1.68,-2.25,-2.27,-2.27
93.51,-0.46,1.86,-0.46,1.86,-1.86,-1.52,-1.67,-2.32,-2.32,-2.32
94.44,-0.57,1.79,-0.58,1.79,-1.79,-1.48,-1.66,-2.36,-2.37,-2.36
95.39,-0.67,1.74,-0.71,1.71,-1.71,-1.45,-1.64,-2.38,-2.42,-2.41
96.34,-0.82,1.64,-0.84,1.63,-1.63,-1.41,-1.64,-2.45,-2.46,-2.46
97.30,-0.99,1.52,-0.97,1.54,-1.54,-1.37,-1.63,-2.54,-2.51,-2.51
98.28,-1.11,1.45,-1.10,1.46,-1.46,-1.34,-1.62,-2.57,-2.56,-2.56
99.26,-1.22,1.38,-1.24,1.37,-1.37,-1.31,-1.61,-2.59,-2.61,-2.60
100.25,-1.37,1.28,-1.37,1.28,-1.28,-1.28,-1.61,-2.65,-2.66,-2.65
101.25,-1.50,1.20,-1.51,1.20,-1.20,-1.25,-1.60,-2.70,-2.70,-2.71
102.27,-1.63,1.12,-1.63,1.12,-1.12,-1.22,-1.60,-2.75,-2.75,-2.75
103.29,-1.77,1.03,-1.76,1.04,-1.04,-1.19,-1.59,-2.82,-2.80,-2.80
104.32,-1.89,0.95,-1.88,0.97,-0.97,-1.17,-1.59,-2.86,-2.85,-2.84
105.37,-1.97,0.92,-1.99,0.91,-0.91,-1.15,-1.59,-2.88,-2.90,-2.89
106.42,-2.08,0.86,-2.09,0.86,-0.86,-1.13,-1.58,-2.94,-2.95,-2.94
107.48,-2.19,0.81,-2.18,0.83,-0.83,-1.11,-1.58,-3.02,-3.01,-3.00
108.56,-2.28,0.77,-2.26,0.80,-0.80,-1.10,-1.58,-3.08,-3.06,-3.05
109.64,-2.32,0.78,-2.32,0.79,-0.79,-1.09,-1.57,-3.11,-3.11,-3.11
110.74,-2.35,0.81,-2.37,0.79,-0.79,-1.08,-1.57,-3.15,-3.16,-3.16
111.85,-2.44,0.76,-2.40,0.81,-0.81,-1.08,-1.56,-3.25,-3.21,-3.20
112.97,-2.46,0.80,-2.42,0.85,-0.85,-1.09,-1.55,-3.31,-3.26,-3.26
114.10,-2.47,0.84,-2.41,0.90,-0.90,-1.10,-1.54,-3.37,-3.31,-3.31
115.24,-2.45,0.91,-2.39,0.96,-0.96,-1.12,-1.53,-3.42,-3.36,-3.36
116.39,-2.37,1.04,-2.36,1.04,-1.04,-1.14,-1.52,-3.41,-3.40,-3.41
117.55,-2.29,1.16,-2.32,1.13,-1.13,-1.18,-1.51,-3.42,-3.45,-3.45
118.73,-2.27,1.22,-2.25,1.23,-1.23,-1.23,-1.49,-3.50,-3.49,-3.49
119.92,-2.23,1.29,-2.18,1.34,-1.34,-1.29,-1.48,-3.57,-3.52,-3.52
121.12,-2.09,1.47,-2.11,1.45,-1.45,-1.37,-1.46,-3.54,-3.56,-3.56
122.33,-2.03,1.56,-2.03,1.57,-1.57,-1.46,-1.43,-3.60,-3.59,-3.59
123.55,-1.96,1.66,-1.94,1.68,-1.68,-1.58,-1.41,-3.64,-3.63,-3.62
124.79,-1.82,1.83,-1.86,1.80,-1.80,-1.71,-1.38,-3.62,-3.66,-3.65
126.03,-1.74,1.94,-1.77,1.91,-1.91,-1.86,-1.35,-3.66,-3.69,-3.68
127.29,-1.69,2.01,-1.70,2.02,-2.02,-2.03,-1.32,-3.71,-3.72,-3.70
128.57,-1.64,2.10,-1.63,2.12,-2.12,-2.21,-1.28,-3.76,-3.75,-3.74
129.85,-1.57,2.20,-1.57,2.21,-2.21,-2.39,-1.24,-3.78,-3.78,-3.77
131.15,-1.52,2.28,-1.52,2.28,-2.28,-2.54,-1.20,-3.81,-3.80,-3.80
132.46,-1.52,2.31,-1.49,2.35,-2.35,-2.64,-1.16,-3.87,-3.83,-3.83
133.79,-1.51,2.35,-1.48,2.38,-2.38,-2.67,-1.11,-3.89,-3.86,-3.86
135.12,-1.51,2.38,-1.49,2.39,-2.39,-2.62,-1.06,-3.91,-3.89,-3.89
136.48,-1.51,2.40,-1.54,2.38,-2.38,-2.49,-1.01,-3.89,-3.92,-3.91
137.84,-1.55,2.40,-1.61,2.33,-2.33,-2.29,-0.96,-3.88,-3.94,-3.95
139.22,-1.64,2.34,-1.72,2.25,-2.25,-2.06,-0.90,-3.89,-3.97,-3.98
140.61,-1.76,2.25,-1.86,2.15,-2.15,-1.81,-0.85,-3.91,-4.00,-4.01
142.02,-1.88,2.15,-2.01,2.03,-2.03,-1.56,-0.79,-3.91,-4.03,-4.03
143.44,-2.10,1.96,-2.19,1.88,-1.88,-1.32,-0.73,-3.98,-4.07,-4.06
144.87,-2.38,1.72,-2.38,1.72,-1.72,-1.10,-0.67,-4.11,-4.11,-4.10
146.32,-2.65,1.49,-2.60,1.55,-1.55,-0.90,-0.60,-4.20,-4.15,-4.14
147.78,-2.92,1.25,-2.86,1.34,-1.34,-0.71,-0.54,-4.27,-4.20,-4.17
149.26,-3.23,0.99,-3.15,1.10,-1.10,-0.55,-0.47,-4.34,-4.25,-4.22
150.75,-3.59,0.69,-3.48,0.83,-0.83,-0.40,-0.40,-4.43,-4.31,-4.28
152.26,-3.86,0.49,-3.83,0.54,-0.54,-0.26,-0.33,-4.41,-4.37,-4.35
153.78,-4.06,0.36,-4.20,0.24,-0.24,-0.14,-0.27,-4.30,-4.44,-4.42
155.32,-4.34,0.15,-4.57,-0.06,0.06,-0.02,-0.20,-4.28,-4.51,-4.49
156.88,-4.68,-0.11,-4.94,-0.37,0.37,0.09,-0.12,-4.32,-4.58,-4.57
158.44,-5.09,-0.44,-5.30,-0.65,0.65,0.19,-0.05,-4.44,-4.65,-4.65
160.03,-5.45,-0.72,-5.64,-0.92,0.92,0.29,0.02,-4.53,-4.72,-4.73
161.63,-6.05,-1.25,-5.95,-1.17,1.17,0.38,0.10,-4.88,-4.78,-4.80
163.24,-6.54,-1.68,-6.24,-1.39,1.39,0.48,0.17,-5.15,-4.84,-4.86
164.88,-6.85,-1.94,-6.48,-1.58,1.58,0.56,0.24,-5.27,-4.90,-4.91
166.53,-6.99,-2.03,-6.69,-1.74,1.74,0.65,0.32,-5.25,-4.95,-4.96
168.19,-7.09,-2.09,-6.86,-1.87,1.87,0.74,0.40,-5.22,-4.99,-5.00
169.87,-7.14,-2.10,-6.99,-1.97,1.97,0.82,0.47,-5.17,-5.02,-5.04
171.57,-7.12,-2.06,-7.07,-2.02,2.02,0.91,0.55,-5.10,-5.05,-5.06
173.29,-7.09,-2.02,-7.10,-2.03,2.03,1.00,0.63,-5.06,-5.07,-5.07
175.02,-7.05,-1.97,-7.09,-2.01,2.01,1.08,0.71,-5.04,-5.08,-5.08
176.77,-7.01,-1.92,-7.04,-1.95,1.95,1.17,0.79,-5.06,-5.09,-5.09
178.54,-6.93,-1.83,-6.98,-1.88,1.88,1.26,0.87,-5.05,-5.10,-5.10
180.32,-6.80,-1.71,-6.89,-1.79,1.79,1.35,0.95,-5.01,-5.10,-5.09
182.13,-6.75,-1.67,-6.82,-1.71,1.71,1.44,1.03,-5.04,-5.11,-5.08
183.95,-6.73,-1.64,-6.77,-1.66,1.66,1.53,1.12,-5.08,-5.11,-5.09
185.79,-6.68,-1.59,-6.75,-1.63,1.63,1.63,1.20,-5.05,-5.12,-5.09
187.65,-6.62,-1.51,-6.75,-1.62,1.62,1.72,1.28,-5.00,-5.13,-5.11
189.52,-6.59,-1.47,-6.76,-1.63,1.63,1.82,1.37,-4.97,-5.14,-5.12
191.42,-6.68,-1.54,-6.80,-1.65,1.65,1.92,1.45,-5.04,-5.15,-5.14
193.33,-6.80,-1.64,-6.84,-1.67,1.67,2.02,1.54,-5.13,-5.17,-5.16
195.27,-6.90,-1.72,-6.89,-1.71,1.71,2.12,1.62,-5.19,-5.18,-5.18
197.22,-7.00,-1.80,-6.97,-1.77,1.77,2.22,1.71,-5.23,-5.20,-5.20
199.19,-7.12,-1.90,-7.06,-1.84,1.84,2.32,1.79,-5.28,-5.22,-5.22
201.18,-7.27,-2.03,-7.17,-1.93,1.93,2.41,1.88,-5.35,-5.24,-5.24
203.19,-7.42,-2.16,-7.27,-2.01,2.01,2.51,1.96,-5.41,-5.26,-5.26
205.23,-7.48,-2.20,-7.39,-2.11,2.11,2.61,2.05,-5.37,-5.28,-5.28
207.28,-7.49,-2.20,-7.53,-2.22,2.22,2.70,2.13,-5.27,-5.30,-5.29
209.35,-7.57,-2.26,-7.67,-2.35,2.35,2.79,2.21,-5.23,-5.32,-5.31
211.44,-7.65,-2.31,-7.81,-2.47,2.47,2.88,2.29,-5.18,-5.34,-5.34
213.56,-7.80,-2.45,-7.94,-2.59,2.59,2.96,2.37,-5.21,-5.35,-5.35
215.69,-8.03,-2.67,-8.08,-2.71,2.71,3.03,2.45,-5.32,-5.37,-5.36
217.85,-8.21,-2.84,-8.20,-2.82,2.82,3.10,2.52,-5.39,-5.38,-5.37
220.03,-8.31,-2.93,-8.33,-2.94,2.94,3.16,2.59,-5.37,-5.39,-5.38
222.23,-8.43,-3.02,-8.44,-3.04,3.04,3.21,2.66,-5.39,-5.39,-5.41
224.45,-8.56,-3.16,-8.54,-3.14,3.14,3.25,2.72,-5.42,-5.40,-5.40
226.70,-8.77,-3.37,-8.63,-3.23,3.23,3.28,2.78,-5.54,-5.40,-5.40
228.96,-8.84,-3.45,-8.70,-3.31,3.31,3.30,2.84,-5.53,-5.39,-5.39
231.25,-8.84,-3.46,-8.76,-3.37,3.37,3.31,2.89,-5.47,-5.38,-5.38
233.57,-8.83,-3.46,-8.78,-3.40,3.40,3.30,2.94,-5.43,-5.37,-5.37
235.90,-8.81,-3.45,-8.77,-3.41,3.41,3.29,2.98,-5.40,-5.36,-5.36
238.26,-8.76,-3.41,-8.74,-3.40,3.40,3.26,3.01,-5.36,-5.34,-5.35
240.64,-8.69,-3.37,-8.69,-3.37,3.37,3.23,3.04,-5.32,-5.32,-5.32
243.05,-8.63,-3.34,-8.62,-3.32,3.32,3.18,3.06,-5.31,-5.30,-5.29
245.48,-8.55,-3.28,-8.54,-3.27,3.27,3.13,3.08,-5.29,-5.28,-5.27
247.93,-8.41,-3.17,-8.45,-3.20,3.20,3.06,3.08,-5.22,-5.25,-5.24
250.41,-8.30,-3.08,-8.34,-3.11,3.11,2.99,3.09,-5.19,-5.23,-5.22
252.92,-8.18,-2.99,-8.23,-3.03,3.03,2.92,3.08,-5.16,-5.21,-5.19
255.45,-8.05,-2.88,-8.13,-2.94,2.94,2.83,3.07,-5.11,-5.18,-5.17
258.00,-7.98,-2.83,-8.02,-2.86,2.86,2.75,3.05,-5.12,-5.16,-5.15
260.58,-7.90,-2.77,-7.90,-2.77,2.77,2.66,3.02,-5.13,-5.13,-5.13
263.19,-7.80,-2.70,-7.79,-2.68,2.68,2.57,2.99,-5.12,-5.11,-5.10
265.82,-7.70,-2.62,-7.68,-2.59,2.59,2.47,2.95,-5.11,-5.08,-5.08
268.48,-7.58,-2.52,-7.56,-2.50,2.50,2.38,2.91,-5.08,-5.06,-5.06
271.16,-7.46,-2.43,-7.45,-2.42,2.42,2.29,2.86,-5.04,-5.03,-5.03
273.87,-7.37,-2.36,-7.35,-2.34,2.34,2.19,2.80,-5.03,-5.01,-5.01
276.61,-7.24,-2.26,-7.24,-2.26,2.26,2.10,2.74,-4.98,-4.98,-4.98
279.38,-7.15,-2.20,-7.14,-2.18,2.18,2.00,2.68,-4.97,-4.96,-4.95
282.17,-7.02,-2.09,-7.03,-2.10,2.10,1.91,2.61,-4.92,-4.93,-4.93
284.99,-6.84,-1.95,-6.92,-2.02,2.02,1.82,2.54,-4.82,-4.90,-4.89
287.84,-6.75,-1.88,-6.80,-1.93,1.93,1.74,2.46,-4.82,-4.87,-4.87
290.72,-6.71,-1.87,-6.69,-1.85,1.85,1.65,2.39,-4.87,-4.84,-4.84
293.63,-6.58,-1.77,-6.57,-1.76,1.76,1.57,2.31,-4.82,-4.81,-4.81
296.57,-6.49,-1.71,-6.46,-1.68,1.68,1.49,2.22,-4.81,-4.78,-4.78
299.53,-6.44,-1.69,-6.35,-1.60,1.60,1.41,2.14,-4.84,-4.76,-4.75
302.53,-6.28,-1.55,-6.24,-1.52,1.52,1.33,2.06,-4.77,-4.73,-4.73
305.55,-6.11,-1.42,-6.14,-1.44,1.44,1.26,1.97,-4.67,-4.70,-4.69
308.61,-6.03,-1.36,-6.04,-1.36,1.36,1.19,1.88,-4.67,-4.68,-4.67
311.69,-5.90,-1.26,-5.93,-1.27,1.27,1.12,1.80,-4.63,-4.65,-4.64
314.81,-5.80,-1.18,-5.83,-1.20,1.20,1.05,1.71,-4.60,-4.63,-4.62
317.96,-5.70,-1.10,-5.73,-1.12,1.12,0.99,1.62,-4.58,-4.61,-4.60
321.14,-5.61,-1.02,-5.63,-1.04,1.04,0.93,1.53,-4.57,-4.59,-4.59
324.35,-5.57,-1.00,-5.54,-0.97,0.97,0.87,1.45,-4.61,-4.58,-4.57
327.59,-5.49,-0.93,-5.46,-0.90,0.90,0.81,1.36,-4.59,-4.56,-4.56
330.87,-5.34,-0.79,-5.38,-0.83,0.83,0.75,1.27,-4.51,-4.55,-4.55
334.18,-5.30,-0.77,-5.31,-0.77,0.77,0.70,1.18,-4.53,-4.54,-4.53
337.52,-5.25,-0.73,-5.24,-0.71,0.71,0.65,1.10,-4.54,-4.53,-4.52
340.90,-5.09,-0.58,-5.17,-0.66,0.66,0.60,1.01,-4.43,-4.52,-4.51
344.30,-5.09,-0.59,-5.11,-0.60,0.60,0.55,0.93,-4.49,-4.51,-4.50
347.75,-5.12,-0.62,-5.04,-0.54,0.54,0.50,0.84,-4.58,-4.51,-4.50
351.23,-4.98,-0.49,-4.98,-0.48,0.48,0.45,0.76,-4.50,-4.50,-4.49
354.74,-4.91,-0.41,-4.93,-0.43,0.43,0.41,0.67,-4.48,-4.50,-4.50
358.28,-4.93,-0.44,-4.87,-0.37,0.37,0.36,0.59,-4.56,-4.49,-4.49
361.87,-4.84,-0.35,-4.80,-0.31,0.31,0.32,0.51,-4.53,-4.49,-4.49
365.49,-4.71,-0.23,-4.74,-0.25,0.25,0.28,0.43,-4.46,-4.49,-4.48
369.14,-4.69,-0.20,-4.69,-0.20,0.20,0.24,0.35,-4.49,-4.49,-4.49
372.83,-4.61,-0.12,-4.64,-0.14,0.14,0.20,0.26,-4.47,-4.49,-4.49
376.56,-4.57,-0.07,-4.58,-0.09,0.09,0.16,0.19,-4.48,-4.50,-4.50
380.33,-4.50,-0.01,-4.53,-0.03,0.03,0.12,0.11,-4.47,-4.50,-4.49
384.13,-4.47,0.02,-4.47,0.03,-0.03,0.09,0.03,-4.50,-4.50,-4.49
387.97,-4.48,0.02,-4.42,0.09,-0.09,0.05,-0.05,-4.57,-4.51,-4.50
391.85,-4.38,0.13,-4.38,0.13,-0.13,0.01,-0.13,-4.51,-4.51,-4.51
395.77,-4.24,0.26,-4.33,0.18,-0.18,-0.02,-0.20,-4.43,-4.52,-4.50
399.73,-4.22,0.29,-4.29,0.24,-0.24,-0.06,-0.28,-4.46,-4.52,-4.51
403.72,-4.29,0.22,-4.25,0.28,-0.28,-0.09,-0.36,-4.57,-4.53,-4.51
407.76,-4.25,0.28,-4.20,0.33,-0.33,-0.12,-0.43,-4.58,-4.53,-4.53
411.84,-4.12,0.41,-4.15,0.38,-0.38,-0.16,-0.50,-4.50,-4.54,-4.53
415.96,-4.08,0.45,-4.10,0.43,-0.43,-0.19,-0.58,-4.52,-4.54,-4.53
420.12,-4.03,0.50,-4.04,0.49,-0.49,-0.22,-0.65,-4.52,-4.53,-4.53
424.32,-4.00,0.53,-3.98,0.54,-0.54,-0.25,-0.72,-4.55,-4.53,-4.53
428.56,-4.00,0.52,-3.91,0.60,-0.60,-0.28,-0.79,-4.60,-4.52,-4.52
432.85,-3.89,0.62,-3.84,0.67,-0.67,-0.31,-0.85,-4.56,-4.50,-4.51
437.18,-3.72,0.78,-3.75,0.73,-0.73,-0.35,-0.92,-4.45,-4.48,-4.50
441.55,-3.70,0.76,-3.66,0.79,-0.79,-0.38,-0.99,-4.50,-4.46,-4.46
445.96,-3.59,0.84,-3.56,0.86,-0.86,-0.41,-1.05,-4.45,-4.42,-4.43
450.42,-3.43,0.97,-3.45,0.93,-0.93,-0.44,-1.11,-4.37,-4.39,-4.40
454.93,-3.39,0.96,-3.35,0.99,-0.99,-0.47,-1.17,-4.38,-4.35,-4.35
459.48,-3.27,1.04,-3.25,1.05,-1.05,-0.50,-1.23,-4.32,-4.30,-4.31
464.07,-3.14,1.12,-3.15,1.11,-1.11,-0.53,-1.29,-4.25,-4.26,-4.26
468.71,-3.01,1.19,-3.04,1.17,-1.17,-0.56,-1.34,-4.18,-4.21,-4.20
