frequency,raw,error,smoothed,error_smoothed,equalization,parametric_eq,fixed_band_eq,equalized_raw,equalized_smoothed,target
20.00,-3.82,-5.12,-3.93,-5.26,5.26,3.73,1.02,1.44,1.33,1.30
20.20,-3.77,-5.12,-3.85,-5.21,5.21,3.86,1.06,1.44,1.37,1.35
20.40,-3.72,-5.12,-3.76,-5.16,5.16,3.98,1.09,1.44,1.40,1.40
20.61,-3.67,-5.10,-3.67,-5.11,5.11,4.09,1.12,1.43,1.43,1.43
20.81,-3.62,-5.10,-3.58,-5.05,5.05,4.20,1.16,1.43,1.46,1.48
21.02,-3.56,-5.08,-3.49,-4.99,4.99,4.30,1.20,1.42,1.49,1.52
21.23,-3.49,-5.03,-3.40,-4.92,4.92,4.38,1.23,1.43,1.52,1.54
21.44,-3.42,-4.98,-3.31,-4.85,4.85,4.45,1.27,1.43,1.54,1.56
21.66,-3.35,-4.93,-3.22,-4.78,4.78,4.51,1.31,1.43,1.56,1.58
21.87,-3.28,-4.87,-3.13,-4.71,4.71,4.55,1.35,1.43,1.58,1.59
22.09,-3.16,-4.77,-3.04,-4.63,4.63,4.58,1.40,1.47,1.59,1.61
22.31,-2.97,-4.58,-2.95,-4.55,4.55,4.59,1.44,1.58,1.61,1.62
22.54,-2.78,-4.40,-2.84,-4.45,4.45,4.58,1.48,1.67,1.61,1.61
22.76,-2.60,-4.21,-2.74,-4.35,4.35,4.55,1.53,1.75,1.61,1.61
22.99,-2.41,-4.02,-2.63,-4.25,4.25,4.50,1.58,1.84,1.62,1.60
23.22,-2.38,-3.98,-2.53,-4.15,4.15,4.44,1.63,1.76,1.62,1.60
23.45,-2.37,-3.97,-2.43,-4.05,4.05,4.37,1.67,1.68,1.62,1.60
23.69,-2.35,-3.96,-2.33,-3.95,3.95,4.28,1.72,1.60,1.62,1.61
23.92,-2.34,-3.95,-2.24,-3.86,3.86,4.18,1.78,1.52,1.62,1.61
24.16,-2.25,-3.87,-2.15,-3.77,3.77,4.08,1.83,1.52,1.62,1.62
24.40,-2.14,-3.77,-2.06,-3.68,3.68,3.96,1.88,1.54,1.62,1.63
24.65,-2.03,-3.65,-1.98,-3.59,3.59,3.84,1.93,1.56,1.62,1.62
24.89,-1.92,-3.54,-1.89,-3.51,3.51,3.72,1.99,1.59,1.62,1.62
25.14,-1.81,-3.43,-1.80,-3.42,3.42,3.59,2.04,1.61,1.62,1.62
25.39,-1.72,-3.34,-1.71,-3.33,3.33,3.46,2.09,1.61,1.62,1.62
25.65,-1.62,-3.25,-1.62,-3.24,3.24,3.33,2.15,1.62,1.62,1.62
25.91,-1.53,-3.15,-1.52,-3.14,3.14,3.20,2.20,1.61,1.62,1.61
26.16,-1.42,-3.03,-1.43,-3.05,3.05,3.07,2.25,1.63,1.62,1.61
26.43,-1.30,-2.91,-1.35,-2.96,2.96,2.95,2.30,1.66,1.61,1.61
26.69,-1.18,-2.79,-1.27,-2.88,2.88,2.82,2.36,1.70,1.61,1.61
26.96,-1.07,-2.69,-1.20,-2.81,2.81,2.70,2.40,1.74,1.61,1.62
27.23,-1.05,-2.67,-1.13,-2.74,2.74,2.59,2.45,1.69,1.61,1.62
27.50,-1.04,-2.66,-1.06,-2.67,2.67,2.48,2.50,1.63,1.61,1.61
27.77,-1.04,-2.64,-0.99,-2.60,2.60,2.37,2.54,1.56,1.60,1.60
28.05,-1.03,-2.63,-0.93,-2.53,2.53,2.26,2.58,1.50,1.60,1.60
28.33,-0.96,-2.55,-0.88,-2.48,2.48,2.16,2.62,1.51,1.60,1.59
28.62,-0.90,-2.49,-0.82,-2.42,2.42,2.06,2.66,1.52,1.60,1.59
28.90,-0.83,-2.43,-0.77,-2.37,2.37,1.97,2.69,1.54,1.60,1.60
29.19,-0.73,-2.32,-0.71,-2.31,2.31,1.88,2.71,1.58,1.60,1.58
29.48,-0.61,-2.21,-0.65,-2.24,2.24,1.79,2.74,1.63,1.59,1.60
29.78,-0.48,-2.07,-0.58,-2.17,2.17,1.71,2.76,1.69,1.59,1.59
30.08,-0.39,-1.99,-0.51,-2.10,2.10,1.63,2.77,1.71,1.59,1.60
30.38,-0.39,-1.98,-0.43,-2.02,2.02,1.56,2.78,1.63,1.59,1.59
30.68,-0.40,-1.99,-0.35,-1.94,1.94,1.49,2.78,1.54,1.58,1.58
30.99,-0.40,-1.98,-0.27,-1.85,1.85,1.42,2.78,1.45,1.58,1.58
31.30,-0.27,-1.85,-0.19,-1.77,1.77,1.35,2.77,1.50,1.58,1.58
31.61,-0.12,-1.70,-0.12,-1.69,1.69,1.29,2.76,1.57,1.58,1.58
31.93,0.02,-1.56,-0.05,-1.63,1.63,1.23,2.74,1.64,1.57,1.57
32.24,0.07,-1.49,0.00,-1.57,1.57,1.17,2.72,1.64,1.57,1.56
32.57,0.11,-1.46,0.07,-1.49,1.49,1.11,2.69,1.60,1.56,1.57
32.89,0.14,-1.43,0.15,-1.41,1.41,1.06,2.65,1.55,1.56,1.57
33.22,0.21,-1.34,0.23,-1.32,1.32,1.01,2.61,1.53,1.55,1.55
33.55,0.31,-1.24,0.31,-1.24,1.24,0.96,2.57,1.55,1.55,1.55
33.89,0.40,-1.14,0.38,-1.17,1.17,0.91,2.52,1.56,1.54,1.54
34.23,0.44,-1.11,0.45,-1.09,1.09,0.86,2.47,1.53,1.54,1.54
34.57,0.45,-1.08,0.52,-1.01,1.01,0.82,2.41,1.46,1.53,1.53
34.92,0.47,-1.06,0.59,-0.94,0.94,0.78,2.36,1.41,1.53,1.53
35.27,0.61,-0.92,0.65,-0.87,0.87,0.73,2.29,1.48,1.52,1.52
35.62,0.79,-0.73,0.71,-0.81,0.81,0.69,2.23,1.60,1.52,1.52
35.97,0.98,-0.54,0.77,-0.75,0.75,0.66,2.16,1.73,1.52,1.51
36.33,0.90,-0.62,0.82,-0.69,0.69,0.62,2.09,1.59,1.52,1.52
36.70,0.81,-0.70,0.87,-0.64,0.64,0.58,2.02,1.45,1.51,1.51
37.06,0.76,-0.74,0.92,-0.59,0.59,0.55,1.94,1.35,1.51,1.50
37.43,0.95,-0.57,0.97,-0.54,0.54,0.51,1.87,1.49,1.51,1.52
37.81,1.14,-0.37,1.02,-0.50,0.50,0.48,1.79,1.63,1.51,1.51
38.19,1.18,-0.33,1.05,-0.46,0.46,0.45,1.72,1.63,1.51,1.51
38.57,1.09,-0.42,1.09,-0.42,0.42,0.41,1.64,1.51,1.51,1.51
38.95,0.99,-0.53,1.12,-0.39,0.39,0.38,1.56,1.38,1.51,1.52
39.34,1.05,-0.46,1.14,-0.37,0.37,0.35,1.48,1.42,1.51,1.51
39.74,1.14,-0.37,1.16,-0.34,0.34,0.32,1.40,1.48,1.51,1.50
40.14,1.21,-0.30,1.18,-0.32,0.32,0.29,1.32,1.53,1.50,1.51
40.54,1.28,-0.22,1.22,-0.28,0.28,0.26,1.24,1.56,1.50,1.50
40.94,1.35,-0.15,1.26,-0.23,0.23,0.24,1.16,1.58,1.50,1.49
41.35,1.32,-0.17,1.30,-0.19,0.19,0.21,1.09,1.51,1.49,1.49
41.76,1.27,-0.21,1.32,-0.16,0.16,0.18,1.01,1.42,1.48,1.48
42.18,1.28,-0.20,1.35,-0.12,0.12,0.15,0.93,1.40,1.47,1.48
42.60,1.38,-0.09,1.39,-0.07,0.07,0.12,0.85,1.45,1.46,1.46
43.03,1.47,0.01,1.44,-0.01,0.01,0.10,0.77,1.48,1.45,1.46
43.46,1.44,-0.01,1.48,0.05,-0.05,0.07,0.69,1.39,1.43,1.45
43.90,1.42,-0.00,1.51,0.09,-0.09,0.04,0.62,1.33,1.42,1.42
44.33,1.53,0.13,1.54,0.14,-0.14,0.02,0.54,1.40,1.41,1.40
44.78,1.70,0.32,1.58,0.18,-0.18,-0.01,0.46,1.51,1.39,1.38
45.23,1.73,0.36,1.60,0.23,-0.23,-0.04,0.39,1.50,1.38,1.37
45.68,1.63,0.28,1.63,0.27,-0.27,-0.06,0.31,1.36,1.36,1.35
46.13,1.58,0.25,1.65,0.31,-0.31,-0.09,0.24,1.27,1.34,1.33
46.60,1.65,0.32,1.68,0.35,-0.35,-0.12,0.16,1.30,1.33,1.33
47.06,1.71,0.40,1.70,0.39,-0.39,-0.15,0.09,1.32,1.31,1.31
47.53,1.74,0.44,1.71,0.42,-0.42,-0.17,0.02,1.32,1.29,1.30
48.01,1.76,0.46,1.72,0.44,-0.44,-0.20,-0.06,1.31,1.28,1.30
48.49,1.76,0.49,1.74,0.48,-0.48,-0.23,-0.13,1.28,1.26,1.27
48.97,1.76,0.51,1.76,0.51,-0.51,-0.26,-0.20,1.25,1.25,1.25
49.46,1.71,0.48,1.77,0.54,-0.54,-0.29,-0.27,1.17,1.23,1.23
49.96,1.66,0.46,1.78,0.56,-0.56,-0.31,-0.34,1.09,1.21,1.20
50.46,1.75,0.55,1.79,0.59,-0.59,-0.34,-0.41,1.15,1.20,1.20
50.96,1.85,0.67,1.81,0.63,-0.63,-0.37,-0.48,1.22,1.18,1.18
51.47,1.86,0.70,1.82,0.65,-0.65,-0.40,-0.55,1.21,1.17,1.16
51.99,1.86,0.72,1.82,0.67,-0.67,-0.43,-0.61,1.19,1.15,1.14
52.51,1.86,0.72,1.83,0.69,-0.69,-0.46,-0.68,1.17,1.14,1.14
53.03,1.86,0.73,1.83,0.71,-0.71,-0.50,-0.74,1.15,1.12,1.13
53.56,1.92,0.81,1.84,0.74,-0.74,-0.53,-0.81,1.18,1.11,1.11
54.10,1.93,0.84,1.86,0.76,-0.76,-0.56,-0.87,1.16,1.09,1.09
54.64,1.79,0.72,1.86,0.78,-0.78,-0.59,-0.93,1.00,1.08,1.07
55.18,1.72,0.66,1.87,0.80,-0.80,-0.63,-0.99,0.92,1.06,1.06
55.74,1.82,0.77,1.87,0.82,-0.82,-0.66,-1.04,1.00,1.05,1.04
56.29,1.86,0.83,1.86,0.83,-0.83,-0.70,-1.10,1.03,1.03,1.03
56.86,1.86,0.85,1.85,0.84,-0.84,-0.73,-1.15,1.02,1.01,1.01
57.42,1.86,0.88,1.85,0.85,-0.85,-0.77,-1.20,1.01,0.99,0.98
58.00,1.87,0.90,1.84,0.87,-0.87,-0.80,-1.24,1.00,0.97,0.97
58.58,1.88,0.93,1.82,0.88,-0.88,-0.84,-1.28,1.00,0.94,0.95
59.16,1.86,0.93,1.80,0.89,-0.89,-0.88,-1.32,0.97,0.91,0.93
59.76,1.79,0.89,1.79,0.91,-0.91,-0.91,-1.36,0.88,0.88,0.90
60.35,1.76,0.90,1.78,0.93,-0.93,-0.95,-1.39,0.83,0.85,0.86
60.96,1.76,0.94,1.76,0.95,-0.95,-0.98,-1.42,0.80,0.81,0.82
61.57,1.75,0.98,1.74,0.97,-0.97,-1.02,-1.45,0.78,0.77,0.77
62.18,1.72,0.99,1.71,0.99,-0.99,-1.06,-1.47,0.73,0.73,0.72
62.80,1.66,0.98,1.68,1.00,-1.00,-1.09,-1.49,0.66,0.68,0.68
63.43,1.61,0.98,1.66,1.02,-1.02,-1.13,-1.51,0.58,0.63,0.63
64.07,1.57,0.99,1.63,1.05,-1.05,-1.16,-1.52,0.52,0.58,0.57
64.71,1.58,1.06,1.60,1.07,-1.07,-1.19,-1.53,0.51,0.53,0.52
65.35,1.59,1.11,1.58,1.10,-1.10,-1.23,-1.54,0.49,0.48,0.48
66.01,1.61,1.18,1.54,1.12,-1.12,-1.26,-1.54,0.49,0.43,0.43
66.67,1.53,1.16,1.51,1.14,-1.14,-1.29,-1.54,0.39,0.37,0.37
67.33,1.48,1.16,1.48,1.16,-1.16,-1.31,-1.54,0.32,0.32,0.32
68.01,1.47,1.20,1.43,1.17,-1.17,-1.34,-1.54,0.30,0.27,0.27
68.69,1.41,1.20,1.40,1.19,-1.19,-1.36,-1.53,0.22,0.21,0.21
69.37,1.38,1.22,1.36,1.20,-1.20,-1.38,-1.52,0.17,0.15,0.15
70.07,1.37,1.27,1.32,1.22,-1.22,-1.40,-1.51,0.14,0.09,0.09
70.77,1.25,1.20,1.27,1.24,-1.24,-1.42,-1.50,0.01,0.03,0.04
71.48,1.18,1.20,1.23,1.25,-1.25,-1.43,-1.48,-0.07,-0.03,-0.02
72.19,1.13,1.22,1.18,1.27,-1.27,-1.44,-1.47,-0.14,-0.09,-0.09
72.91,1.09,1.24,1.13,1.28,-1.28,-1.45,-1.45,-0.20,-0.15,-0.15
73.64,1.09,1.30,1.08,1.30,-1.30,-1.45,-1.43,-0.21,-0.22,-0.22
74.38,1.05,1.33,1.04,1.32,-1.32,-1.46,-1.41,-0.27,-0.28,-0.28
75.12,0.99,1.34,1.00,1.34,-1.34,-1.45,-1.39,-0.35,-0.34,-0.35
75.87,0.99,1.40,0.96,1.36,-1.36,-1.45,-1.38,-0.37,-0.40,-0.41
76.63,0.93,1.40,0.92,1.38,-1.38,-1.44,-1.36,-0.46,-0.47,-0.47
77.40,0.87,1.40,0.88,1.40,-1.40,-1.43,-1.34,-0.54,-0.53,-0.53
78.17,0.82,1.42,0.84,1.42,-1.42,-1.42,-1.32,-0.61,-0.59,-0.60
78.95,0.80,1.44,0.80,1.44,-1.44,-1.40,-1.30,-0.65,-0.65,-0.64
79.74,0.79,1.49,0.76,1.46,-1.46,-1.38,-1.28,-0.67,-0.70,-0.70
80.54,0.70,1.46,0.71,1.47,-1.47,-1.36,-1.26,-0.77,-0.76,-0.76
81.35,0.62,1.44,0.66,1.48,-1.48,-1.34,-1.25,-0.86,-0.82,-0.82
82.16,0.61,1.48,0.61,1.48,-1.48,-1.31,-1.23,-0.87,-0.87,-0.88
82.98,0.60,1.52,0.55,1.48,-1.48,-1.29,-1.21,-0.88,-0.93,-0.92
83.81,0.51,1.50,0.50,1.48,-1.48,-1.26,-1.20,-0.98,-0.99,-0.99
84.65,0.42,1.46,0.44,1.48,-1.48,-1.23,-1.18,-1.06,-1.04,-1.05
85.50,0.36,1.45,0.37,1.47,-1.47,-1.20,-1.17,-1.11,-1.10,-1.09
86.35,0.29,1.44,0.30,1.46,-1.46,-1.17,-1.16,-1.17,-1.16,-1.15
87.22,0.23,1.44,0.23,1.45,-1.45,-1.14,-1.15,-1.22,-1.22,-1.21
88.09,0.18,1.45,0.15,1.42,-1.42,-1.11,-1.14,-1.25,-1.28,-1.27
88.97,0.04,1.37,0.06,1.40,-1.40,-1.07,-1.13,-1.36,-1.34,-1.33
89.86,-0.00,1.39,-0.03,1.37,-1.37,-1.04,-1.12,-1.37,-1.40,-1.40
90.76,-0.12,1.34,-0.13,1.33,-1.33,-1.01,-1.11,-1.45,-1.45,-1.46
91.66,-0.22,1.29,-0.23,1.28,-1.28,-0.98,-1.11,-1.50,-1.51,-1.51
92.58,-0.33,1.25,-0.35,1.23,-1.23,-0.95,-1.10,-1.56,-1.57,-1.59
93.51,-0.46,1.18,-0.46,1.18,-1.18,-0.92,-1.09,-1.64,-1.63,-1.64
94.44,-0.57,1.12,-0.58,1.11,-1.11,-0.89,-1.09,-1.69,-1.69,-1.69
95.39,-0.67,1.08,-0.71,1.05,-1.05,-0.86,-1.09,-1.72,-1.75,-1.75
96.34,-0.82,0.99,-0.84,0.98,-0.98,-0.83,-1.09,-1.80,-1.81,-1.82
97.30,-0.99,0.88,-0.97,0.90,-0.90,-0.80,-1.08,-1.89,-1.87,-1.87
98.28,-1.11,0.82,-1.10,0.82,-0.82,-0.77,-1.08,-1.93,-1.93,-1.93
99.26,-1.22,0.76,-1.24,0.74,-0.74,-0.75,-1.08,-1.97,-1.98,-1.98
100.25,-1.37,0.67,-1.37,0.67,-0.67,-0.72,-1.08,-2.04,-2.04,-2.04
101.25,-1.50,0.60,-1.51,0.60,-0.60,-0.70,-1.08,-2.10,-2.10,-2.10
102.27,-1.63,0.53,-1.63,0.53,-0.53,-0.67,-1.08,-2.16,-2.16,-2.16
103.29,-1.77,0.45,-1.76,0.46,-0.46,-0.65,-1.08,-2.23,-2.22,-2.22
104.32,-1.89,0.38,-1.88,0.40,-0.40,-0.63,-1.09,-2.29,-2.28,-2.27
105.37,-1.97,0.36,-1.99,0.34,-0.34,-0.62,-1.09,-2.32,-2.34,-2.33
106.42,-2.08,0.31,-2.09,0.30,-0.30,-0.60,-1.09,-2.39,-2.40,-2.39
107.48,-2.19,0.26,-2.18,0.28,-0.28,-0.58,-1.09,-2.47,-2.46,-2.46
108.56,-2.28,0.24,-2.26,0.26,-0.26,-0.57,-1.09,-2.55,-2.52,-2.52
109.64,-2.32,0.26,-2.32,0.26,-0.26,-0.56,-1.09,-2.58,-2.58,-2.58
110.74,-2.35,0.30,-2.37,0.28,-0.28,-0.55,-1.09,-2.63,-2.65,-2.65
111.85,-2.44,0.25,-2.40,0.31,-0.31,-0.55,-1.08,-2.75,-2.71,-2.70
112.97,-2.46,0.31,-2.42,0.35,-0.35,-0.55,-1.08,-2.81,-2.77,-2.77
114.10,-2.47,0.36,-2.41,0.41,-0.41,-0.55,-1.07,-2.88,-2.83,-2.83
115.24,-2.45,0.43,-2.39,0.49,-0.49,-0.56,-1.07,-2.94,-2.88,-2.88
116.39,-2.37,0.58,-2.36,0.57,-0.57,-0.57,-1.06,-2.95,-2.94,-2.95
117.55,-2.29,0.70,-2.32,0.67,-0.67,-0.58,-1.05,-2.96,-2.99,-3.00
118.73,-2.27,0.78,-2.25,0.78,-0.78,-0.60,-1.04,-3.06,-3.04,-3.05
119.92,-2.23,0.85,-2.18,0.90,-0.90,-0.64,-1.03,-3.14,-3.09,-3.09
121.12,-2.09,1.05,-2.11,1.03,-1.03,-0.67,-1.01,-3.12,-3.13,-3.14
122.33,-2.03,1.15,-2.03,1.15,-1.15,-0.72,-0.99,-3.18,-3.18,-3.18
123.55,-1.96,1.25,-1.94,1.28,-1.28,-0.79,-0.97,-3.24,-3.22,-3.22
124.79,-1.82,1.44,-1.86,1.41,-1.41,-0.86,-0.95,-3.23,-3.26,-3.26
126.03,-1.74,1.56,-1.77,1.53,-1.53,-0.95,-0.93,-3.27,-3.30,-3.30
127.29,-1.69,1.64,-1.70,1.64,-1.64,-1.06,-0.90,-3.33,-3.34,-3.33
128.57,-1.64,1.74,-1.63,1.75,-1.75,-1.19,-0.87,-3.39,-3.38,-3.38
129.85,-1.57,1.85,-1.57,1.85,-1.85,-1.34,-0.84,-3.42,-3.42,-3.42
131.15,-1.52,1.94,-1.52,1.94,-1.94,-1.50,-0.80,-3.46,-3.46,-3.46
132.46,-1.52,1.97,-1.49,2.01,-2.01,-1.68,-0.77,-3.53,-3.49,-3.49
133.79,-1.51,2.02,-1.48,2.05,-2.05,-1.85,-0.73,-3.56,-3.53,-3.53
135.12,-1.51,2.06,-1.49,2.07,-2.07,-1.99,-0.69,-3.58,-3.57,-3.58
136.48,-1.51,2.09,-1.54,2.07,-2.07,-2.09,-0.64,-3.58,-3.60,-3.60
137.84,-1.55,2.09,-1.61,2.02,-2.02,-2.12,-0.60,-3.58,-3.64,-3.65
139.22,-1.64,2.05,-1.72,1.95,-1.95,-2.07,-0.55,-3.59,-3.68,-3.69
140.61,-1.76,1.97,-1.86,1.86,-1.86,-1.94,-0.50,-3.62,-3.71,-3.73
142.02,-1.88,1.87,-2.01,1.75,-1.75,-1.76,-0.45,-3.63,-3.76,-3.75
143.44,-2.10,1.69,-2.19,1.61,-1.61,-1.54,-0.40,-3.71,-3.80,-3.79
144.87,-2.38,1.46,-2.38,1.46,-1.46,-1.30,-0.35,-3.84,-3.84,-3.84
146.32,-2.65,1.24,-2.60,1.29,-1.29,-1.07,-0.29,-3.95,-3.90,-3.89
147.78,-2.92,1.01,-2.86,1.10,-1.10,-0.85,-0.24,-4.02,-3.95,-3.93
149.26,-3.23,0.75,-3.15,0.87,-0.87,-0.64,-0.18,-4.10,-4.02,-3.98
150.75,-3.59,0.47,-3.48,0.60,-0.60,-0.46,-0.12,-4.20,-4.08,-4.06
152.26,-3.86,0.27,-3.83,0.32,-0.32,-0.29,-0.06,-4.18,-4.15,-4.13
153.78,-4.06,0.14,-4.20,0.03,-0.03,-0.14,0.00,-4.09,-4.23,-4.21
155.32,-4.34,-0.05,-4.57,-0.27,0.27,0.00,0.06,-4.07,-4.30,-4.29
156.88,-4.68,-0.31,-4.94,-0.56,0.56,0.13,0.13,-4.12,-4.38,-4.37
158.44,-5.09,-0.63,-5.30,-0.84,0.84,0.24,0.19,-4.25,-4.46,-4.46
160.03,-5.45,-0.90,-5.64,-1.11,1.11,0.35,0.25,-4.35,-4.53,-4.55
161.63,-6.05,-1.42,-5.95,-1.35,1.35,0.45,0.32,-4.70,-4.61,-4.63
163.24,-6.54,-1.85,-6.24,-1.56,1.56,0.55,0.39,-4.98,-4.67,-4.70
164.88,-6.85,-2.10,-6.48,-1.75,1.75,0.64,0.45,-5.11,-4.74,-4.75
166.53,-6.99,-2.18,-6.69,-1.90,1.90,0.73,0.52,-5.09,-4.79,-4.81
168.19,-7.09,-2.24,-6.86,-2.02,2.02,0.82,0.59,-5.07,-4.84,-4.85
169.87,-7.14,-2.24,-6.99,-2.11,2.11,0.91,0.66,-5.03,-4.88,-4.90
171.57,-7.12,-2.20,-7.07,-2.16,2.16,0.99,0.73,-4.96,-4.91,-4.92
173.29,-7.09,-2.15,-7.10,-2.17,2.17,1.08,0.80,-4.92,-4.93,-4.94
175.02,-7.05,-2.10,-7.09,-2.14,2.14,1.16,0.87,-4.92,-4.95,-4.95
176.77,-7.01,-2.04,-7.04,-2.07,2.07,1.25,0.95,-4.94,-4.97,-4.97
178.54,-6.93,-1.95,-6.98,-1.99,1.99,1.33,1.02,-4.94,-4.98,-4.98
180.32,-6.80,-1.82,-6.89,-1.90,1.90,1.42,1.09,-4.90,-4.99,-4.98
182.13,-6.75,-1.77,-6.82,-1.81,1.81,1.51,1.17,-4.94,-5.00,-4.98
183.95,-6.73,-1.73,-6.77,-1.76,1.76,1.60,1.24,-4.98,-5.01,-5.00
185.79,-6.68,-1.68,-6.75,-1.72,1.72,1.69,1.32,-4.96,-5.03,-5.00
187.65,-6.62,-1.59,-6.75,-1.71,1.71,1.78,1.40,-4.91,-5.04,-5.03
189.52,-6.59,-1.55,-6.76,-1.71,1.71,1.88,1.47,-4.88,-5.05,-5.04
191.42,-6.68,-1.61,-6.80,-1.72,1.72,1.97,1.55,-4.96,-5.07,-5.07
193.33,-6.80,-1.71,-6.84,-1.75,1.75,2.07,1.63,-5.06,-5.09,-5.09
195.27,-6.90,-1.79,-6.89,-1.78,1.78,2.16,1.71,-5.12,-5.11,-5.11
197.22,-7.00,-1.87,-6.97,-1.83,1.83,2.26,1.79,-5.17,-5.13,-5.13
199.19,-7.12,-1.96,-7.06,-1.90,1.90,2.36,1.87,-5.22,-5.16,-5.17
201.18,-7.27,-2.09,-7.17,-1.98,1.98,2.45,1.95,-5.29,-5.18,-5.19
203.19,-7.42,-2.22,-7.27,-2.07,2.07,2.55,2.03,-5.35,-5.21,-5.21
205.23,-7.48,-2.25,-7.39,-2.16,2.16,2.64,2.10,-5.32,-5.23,-5.23
207.28,-7.49,-2.25,-7.53,-2.27,2.27,2.73,2.18,-5.22,-5.26,-5.24
209.35,-7.57,-2.30,-7.67,-2.39,2.39,2.82,2.26,-5.18,-5.28,-5.27
211.44,-7.65,-2.34,-7.81,-2.51,2.51,2.91,2.33,-5.14,-5.30,-5.31
213.56,-7.80,-2.49,-7.94,-2.63,2.63,2.99,2.40,-5.18,-5.32,-5.31
215.69,-8.03,-2.70,-8.08,-2.74,2.74,3.06,2.48,-5.29,-5.33,-5.33
217.85,-8.21,-2.87,-8.20,-2.86,2.86,3.12,2.55,-5.35,-5.35,-5.35
220.03,-8.31,-2.95,-8.33,-2.97,2.97,3.18,2.61,-5.35,-5.36,-5.36
222.23,-8.43,-3.05,-8.44,-3.07,3.07,3.23,2.67,-5.36,-5.37,-5.39
224.45,-8.56,-3.18,-8.54,-3.17,3.17,3.27,2.73,-5.40,-5.37,-5.38
226.70,-8.77,-3.39,-8.63,-3.25,3.25,3.30,2.79,-5.52,-5.38,-5.38
228.96,-8.84,-3.47,-8.70,-3.33,3.33,3.32,2.84,-5.51,-5.37,-5.38
231.25,-8.84,-3.47,-8.76,-3.39,3.39,3.32,2.89,-5.46,-5.37,-5.37
233.57,-8.83,-3.47,-8.78,-3.42,3.42,3.32,2.93,-5.41,-5.36,-5.36
235.90,-8.81,-3.46,-8.77,-3.42,3.42,3.30,2.97,-5.39,-5.35,-5.35
238.26,-8.76,-3.42,-8.74,-3.41,3.41,3.28,3.00,-5.35,-5.33,-5.34
240.64,-8.69,-3.37,-8.69,-3.37,3.37,3.24,3.02,-5.32,-5.32,-5.33
243.05,-8.63,-3.34,-8.62,-3.32,3.32,3.19,3.04,-5.31,-5.30,-5.30
245.48,-8.55,-3.28,-8.54,-3.26,3.26,3.14,3.05,-5.29,-5.28,-5.28
247.93,-8.41,-3.17,-8.45,-3.19,3.19,3.07,3.06,-5.22,-5.26,-5.25
250.41,-8.30,-3.07,-8.34,-3.11,3.11,3.00,3.06,-5.19,-5.24,-5.24
252.92,-8.18,-2.98,-8.23,-3.02,3.02,2.92,3.05,-5.16,-5.21,-5.20
255.45,-8.05,-2.87,-8.13,-2.93,2.93,2.84,3.03,-5.12,-5.19,-5.18
258.00,-7.98,-2.82,-8.02,-2.85,2.85,2.75,3.01,-5.13,-5.17,-5.16
260.58,-7.90,-2.75,-7.90,-2.76,2.76,2.66,2.99,-5.14,-5.15,-5.15
263.19,-7.80,-2.68,-7.79,-2.67,2.67,2.57,2.95,-5.13,-5.12,-5.12
265.82,-7.70,-2.60,-7.68,-2.58,2.58,2.48,2.91,-5.12,-5.10,-5.11
268.48,-7.58,-2.50,-7.56,-2.49,2.49,2.38,2.87,-5.10,-5.08,-5.08
271.16,-7.46,-2.41,-7.45,-2.40,2.40,2.28,2.82,-5.06,-5.05,-5.05
273.87,-7.37,-2.34,-7.35,-2.32,2.32,2.19,2.76,-5.05,-5.03,-5.04
276.61,-7.24,-2.24,-7.24,-2.24,2.24,2.09,2.70,-5.00,-5.00,-5.00
279.38,-7.15,-2.17,-7.14,-2.16,2.16,2.00,2.64,-4.99,-4.98,-4.98
282.17,-7.02,-2.07,-7.03,-2.08,2.08,1.91,2.57,-4.95,-4.95,-4.96
284.99,-6.84,-1.92,-6.92,-1.99,1.99,1.82,2.50,-4.85,-4.93,-4.92
287.84,-6.75,-1.84,-6.80,-1.91,1.91,1.73,2.42,-4.85,-4.90,-4.91
290.72,-6.71,-1.84,-6.69,-1.82,1.82,1.65,2.34,-4.89,-4.87,-4.87
293.63,-6.58,-1.73,-6.57,-1.73,1.73,1.56,2.26,-4.85,-4.84,-4.85
296.57,-6.49,-1.68,-6.46,-1.65,1.65,1.48,2.18,-4.84,-4.81,-4.81
299.53,-6.44,-1.65,-6.35,-1.57,1.57,1.40,2.10,-4.87,-4.79,-4.79
302.53,-6.28,-1.51,-6.24,-1.48,1.48,1.33,2.01,-4.80,-4.76,-4.77
305.55,-6.11,-1.39,-6.14,-1.40,1.40,1.25,1.93,-4.71,-4.74,-4.73
308.61,-6.03,-1.32,-6.04,-1.32,1.32,1.18,1.84,-4.71,-4.71,-4.71
311.69,-5.90,-1.22,-5.93,-1.24,1.24,1.11,1.75,-4.67,-4.69,-4.68
314.81,-5.80,-1.14,-5.83,-1.16,1.16,1.05,1.67,-4.64,-4.67,-4.66
317.96,-5.70,-1.06,-5.73,-1.08,1.08,0.98,1.58,-4.62,-4.65,-4.64
321.14,-5.61,-0.98,-5.63,-1.00,1.00,0.92,1.49,-4.61,-4.63,-4.64
324.35,-5.57,-0.95,-5.54,-0.92,0.92,0.86,1.40,-4.65,-4.62,-4.62
327.59,-5.49,-0.89,-5.46,-0.86,0.86,0.80,1.32,-4.63,-4.60,-4.60
330.87,-5.34,-0.75,-5.38,-0.79,0.79,0.75,1.23,-4.55,-4.59,-4.60
334.18,-5.30,-0.72,-5.31,-0.73,0.73,0.69,1.14,-4.57,-4.58,-4.58
337.52,-5.25,-0.68,-5.24,-0.67,0.67,0.64,1.06,-4.58,-4.57,-4.57
340.90,-5.09,-0.54,-5.17,-0.61,0.61,0.59,0.97,-4.48,-4.56,-4.56
344.30,-5.09,-0.54,-5.11,-0.55,0.55,0.54,0.88,-4.54,-4.56,-4.55
347.75,-5.12,-0.57,-5.04,-0.49,0.49,0.49,0.80,-4.63,-4.55,-4.55
351.23,-4.98,-0.44,-4.98,-0.44,0.44,0.45,0.71,-4.55,-4.55,-4.54
354.74,-4.91,-0.37,-4.93,-0.38,0.38,0.40,0.63,-4.53,-4.54,-4.55
358.28,-4.93,-0.39,-4.87,-0.33,0.33,0.36,0.55,-4.60,-4.54,-4.54
361.87,-4.84,-0.30,-4.80,-0.26,0.26,0.31,0.47,-4.58,-4.54,-4.54
365.49,-4.71,-0.18,-4.74,-0.20,0.20,0.27,0.38,-4.51,-4.54,-4.53
369.14,-4.69,-0.15,-4.69,-0.15,0.15,0.23,0.30,-4.54,-4.54,-4.55
372.83,-4.61,-0.06,-4.64,-0.09,0.09,0.19,0.22,-4.52,-4.54,-4.55
376.56,-4.57,-0.02,-4.58,-0.04,0.04,0.15,0.14,-4.53,-4.54,-4.55
380.33,-4.50,0.04,-4.53,0.02,-0.02,0.12,0.06,-4.52,-4.55,-4.54
384.13,-4.47,0.07,-4.47,0.08,-0.08,0.08,-0.02,-4.55,-4.55,-4.54
387.97,-4.48,0.07,-4.42,0.14,-0.14,0.04,-0.10,-4.62,-4.56,-4.55
391.85,-4.38,0.18,-4.38,0.18,-0.18,0.01,-0.17,-4.56,-4.56,-4.57
395.77,-4.24,0.32,-4.33,0.24,-0.24,-0.03,-0.25,-4.48,-4.57,-4.56
399.73,-4.22,0.35,-4.29,0.29,-0.29,-0.06,-0.33,-4.51,-4.57,-4.57
403.72,-4.29,0.28,-4.25,0.33,-0.33,-0.10,-0.40,-4.62,-4.58,-4.57
407.76,-4.25,0.33,-4.20,0.38,-0.38,-0.13,-0.48,-4.63,-4.58,-4.58
411.84,-4.12,0.46,-4.15,0.44,-0.44,-0.16,-0.55,-4.56,-4.59,-4.58
415.96,-4.08,0.50,-4.10,0.49,-0.49,-0.20,-0.63,-4.57,-4.59,-4.59
420.12,-4.03,0.56,-4.04,0.54,-0.54,-0.23,-0.70,-4.57,-4.59,-4.59
424.32,-4.00,0.59,-3.98,0.60,-0.60,-0.26,-0.77,-4.60,-4.58,-4.59
428.56,-4.00,0.58,-3.91,0.66,-0.66,-0.29,-0.84,-4.66,-4.57,-4.58
432.85,-3.89,0.68,-3.84,0.72,-0.72,-0.32,-0.91,-4.61,-4.56,-4.57
437.18,-3.72,0.84,-3.75,0.78,-0.78,-0.35,-0.98,-4.50,-4.54,-4.56
441.55,-3.70,0.82,-3.66,0.85,-0.85,-0.39,-1.04,-4.55,-4.51,-4.52
445.96,-3.59,0.90,-3.56,0.92,-0.92,-0.42,-1.11,-4.51,-4.48,-4.49
450.42,-3.43,1.03,-3.45,0.99,-0.99,-0.45,-1.17,-4.42,-4.44,-4.46
454.93,-3.39,1.02,-3.35,1.05,-1.05,-0.48,-1.23,-4.44,-4.40,-4.42
459.48,-3.27,1.09,-3.25,1.10,-1.10,-0.51,-1.29,-4.38,-4.36,-4.37
464.07,-3.14,1.18,-3.15,1.17,-1.17,-0.54,-1.34,-4.31,-4.31,-4.32
468.71,-3.01,1.25,-3.04,1.23,-1.23,-0.57,-1.40,-4.24,-4.27,-4.26
473.40,-2.89,1.33,-2.93,1.28,-1.28,-0.60,-1.45,-4.17,-4.22,-4.22
478.13,-2.78,1.38,-2.83,1.33,-1.33,-0.63,-1.50,-4.12,-4.17,-4.16
