frequency,raw,error,smoothed,error_smoothed,equalization,parametric_eq,fixed_band_eq,equalized_raw,equalized_smoothed,target
20.00,3.41,-7.35,3.42,-7.35,7.35,6.72,3.06,10.76,10.76,10.76
20.20,3.43,-7.32,3.43,-7.32,7.32,6.78,3.14,10.75,10.75,10.75
20.40,3.45,-7.29,3.45,-7.29,7.29,6.83,3.23,10.74,10.74,10.74
20.61,3.47,-7.26,3.47,-7.26,7.26,6.88,3.32,10.74,10.73,10.74
20.81,3.48,-7.23,3.49,-7.23,7.23,6.92,3.41,10.72,10.72,10.71
21.02,3.50,-7.20,3.51,-7.20,7.21,6.96,3.51,10.71,10.71,10.70
21.23,3.52,-7.17,3.52,-7.18,7.18,7.00,3.61,10.70,10.70,10.69
21.44,3.54,-7.16,3.54,-7.15,7.15,7.04,3.71,10.70,10.69,10.70
21.66,3.55,-7.13,3.56,-7.13,7.13,7.07,3.81,10.68,10.68,10.69
21.87,3.57,-7.11,3.58,-7.10,7.10,7.10,3.92,10.67,10.68,10.68
22.09,3.59,-7.07,3.59,-7.07,7.07,7.12,4.03,10.67,10.67,10.66
22.31,3.61,-7.04,3.61,-7.05,7.05,7.14,4.14,10.66,10.66,10.65
22.54,3.62,-7.02,3.63,-7.02,7.02,7.16,4.25,10.65,10.65,10.65
22.76,3.64,-7.00,3.65,-6.99,7.00,7.17,4.37,10.64,10.64,10.64
22.99,3.66,-6.97,3.66,-6.97,6.97,7.18,4.49,10.64,10.64,10.63
23.22,3.68,-6.94,3.68,-6.95,6.95,7.19,4.61,10.64,10.63,10.62
23.45,3.69,-6.94,3.70,-6.93,6.93,7.19,4.74,10.63,10.63,10.63
23.69,3.71,-6.91,3.71,-6.91,6.91,7.19,4.87,10.63,10.62,10.63
23.92,3.72,-6.89,3.73,-6.90,6.89,7.18,5.00,10.62,10.62,10.62
24.16,3.74,-6.88,3.75,-6.87,6.87,7.17,5.13,10.62,10.62,10.62
24.40,3.76,-6.86,3.76,-6.86,6.85,7.16,5.27,10.62,10.62,10.62
24.65,3.78,-6.83,3.78,-6.84,6.84,7.14,5.40,10.62,10.62,10.62
24.89,3.79,-6.82,3.80,-6.81,6.82,7.12,5.54,10.61,10.61,10.61
25.14,3.81,-6.79,3.81,-6.79,6.80,7.10,5.68,10.61,10.61,10.60
25.39,3.83,-6.78,3.83,-6.78,6.78,7.08,5.82,10.61,10.61,10.60
25.65,3.84,-6.76,3.84,-6.76,6.76,7.05,5.97,10.61,10.61,10.60
25.91,3.85,-6.75,3.86,-6.75,6.75,7.02,6.11,10.60,10.60,10.60
26.16,3.87,-6.74,3.87,-6.73,6.73,6.99,6.25,10.60,10.60,10.61
26.43,3.89,-6.71,3.89,-6.72,6.71,6.95,6.39,10.61,10.61,10.61
26.69,3.90,-6.70,3.91,-6.70,6.70,6.92,6.53,10.60,10.61,10.60
26.96,3.92,-6.68,3.92,-6.68,6.68,6.88,6.67,10.61,10.61,10.60
27.23,3.93,-6.67,3.94,-6.67,6.67,6.84,6.81,10.61,10.61,10.60
27.50,3.95,-6.65,3.95,-6.65,6.66,6.80,6.94,10.61,10.61,10.60
27.77,3.96,-6.65,3.96,-6.64,6.65,6.76,7.07,10.61,10.61,10.61
28.05,3.97,-6.63,3.97,-6.64,6.64,6.71,7.19,10.61,10.61,10.60
28.33,3.98,-6.63,3.99,-6.63,6.63,6.67,7.31,10.61,10.61,10.61
28.62,3.99,-6.62,4.00,-6.62,6.62,6.62,7.42,10.61,10.62,10.61
28.90,4.01,-6.61,4.01,-6.61,6.61,6.58,7.53,10.62,10.62,10.62
29.19,4.02,-6.60,4.02,-6.60,6.59,6.53,7.62,10.62,10.62,10.62
29.48,4.03,-6.58,4.04,-6.59,6.58,6.49,7.71,10.62,10.62,10.61
29.78,4.04,-6.57,4.04,-6.57,6.57,6.44,7.78,10.61,10.61,10.61
30.08,4.05,-6.56,4.05,-6.55,6.55,6.40,7.85,10.61,10.61,10.61
30.38,4.06,-6.53,4.06,-6.54,6.54,6.35,7.90,10.60,10.60,10.60
30.68,4.07,-6.52,4.08,-6.52,6.52,6.31,7.94,10.60,10.60,10.59
30.99,4.08,-6.51,4.08,-6.51,6.51,6.26,7.97,10.60,10.59,10.59
31.30,4.09,-6.50,4.09,-6.50,6.50,6.22,7.99,10.59,10.59,10.59
31.61,4.09,-6.49,4.10,-6.49,6.48,6.18,8.00,10.58,10.58,10.58
31.93,4.10,-6.46,4.10,-6.47,6.47,6.13,7.99,10.58,10.58,10.57
32.24,4.10,-6.47,4.11,-6.46,6.46,6.09,7.98,10.57,10.57,10.57
32.57,4.11,-6.44,4.11,-6.45,6.45,6.05,7.95,10.57,10.56,10.56
32.89,4.11,-6.44,4.11,-6.44,6.44,6.02,7.91,10.55,10.55,10.55
33.22,4.11,-6.43,4.12,-6.43,6.43,5.98,7.86,10.54,10.55,10.54
33.55,4.12,-6.42,4.12,-6.42,6.42,5.94,7.80,10.54,10.54,10.54
33.89,4.12,-6.41,4.12,-6.41,6.40,5.91,7.73,10.53,10.53,10.53
34.23,4.12,-6.39,4.13,-6.39,6.39,5.88,7.66,10.52,10.52,10.52
34.57,4.13,-6.38,4.13,-6.38,6.38,5.85,7.58,10.52,10.52,10.51
34.92,4.14,-6.35,4.14,-6.36,6.37,5.82,7.49,10.51,10.51,10.50
35.27,4.14,-6.37,4.15,-6.36,6.36,5.80,7.40,10.50,10.50,10.51
35.62,4.14,-6.34,4.15,-6.35,6.34,5.77,7.30,10.49,10.49,10.49
35.97,4.14,-6.34,4.14,-6.34,6.33,5.75,7.20,10.47,10.47,10.48
36.33,4.14,-6.32,4.14,-6.32,6.32,5.73,7.10,10.46,10.46,10.46
36.70,4.14,-6.30,4.15,-6.30,6.30,5.71,7.00,10.45,10.45,10.45
37.06,4.14,-6.28,4.14,-6.28,6.29,5.69,6.90,10.43,10.43,10.42
37.43,4.14,-6.26,4.14,-6.27,6.27,5.68,6.79,10.42,10.41,10.40
37.81,4.13,-6.26,4.14,-6.25,6.25,5.67,6.69,10.39,10.39,10.39
38.19,4.13,-6.23,4.13,-6.24,6.24,5.65,6.59,10.37,10.37,10.37
38.57,4.12,-6.22,4.13,-6.22,6.22,5.65,6.49,10.34,10.34,10.34
38.95,4.12,-6.21,4.13,-6.20,6.20,5.64,6.39,10.32,10.32,10.33
39.34,4.12,-6.18,4.12,-6.18,6.18,5.63,6.29,10.30,10.30,10.30
39.74,4.12,-6.15,4.12,-6.16,6.16,5.63,6.19,10.28,10.28,10.28
40.14,4.12,-6.13,4.12,-6.13,6.13,5.63,6.10,10.26,10.26,10.26
40.54,4.12,-6.11,4.12,-6.11,6.11,5.63,6.01,10.24,10.24,10.24
40.94,4.12,-6.08,4.12,-6.09,6.09,5.63,5.93,10.21,10.21,10.20
41.35,4.12,-6.07,4.12,-6.07,6.07,5.64,5.85,10.19,10.19,10.19
41.76,4.12,-6.04,4.12,-6.04,6.04,5.64,5.77,10.17,10.17,10.16
42.18,4.12,-6.03,4.12,-6.03,6.02,5.65,5.69,10.15,10.15,10.15
42.60,4.12,-6.00,4.12,-6.00,6.00,5.65,5.62,10.12,10.12,10.12
43.03,4.12,-5.98,4.12,-5.98,5.97,5.66,5.56,10.10,10.10,10.10
43.46,4.12,-5.94,4.12,-5.95,5.95,5.67,5.49,10.07,10.07,10.06
43.90,4.12,-5.92,4.12,-5.92,5.92,5.68,5.44,10.05,10.05,10.05
44.33,4.12,-5.89,4.12,-5.89,5.90,5.68,5.38,10.02,10.02,10.01
44.78,4.12,-5.87,4.12,-5.87,5.87,5.69,5.33,9.99,9.99,10.00
45.23,4.12,-5.85,4.12,-5.84,5.84,5.70,5.28,9.96,9.96,9.98
45.68,4.12,-5.80,4.12,-5.81,5.80,5.70,5.24,9.93,9.93,9.93
46.13,4.12,-5.77,4.12,-5.77,5.77,5.71,5.20,9.90,9.90,9.89
46.60,4.12,-5.73,4.12,-5.73,5.73,5.71,5.17,9.86,9.86,9.86
47.06,4.12,-5.70,4.12,-5.70,5.70,5.71,5.13,9.82,9.82,9.82
47.53,4.12,-5.66,4.12,-5.66,5.65,5.71,5.11,9.78,9.78,9.78
48.01,4.12,-5.61,4.12,-5.61,5.61,5.71,5.08,9.74,9.74,9.74
48.49,4.12,-5.57,4.12,-5.57,5.57,5.70,5.06,9.69,9.69,9.70
48.97,4.12,-5.52,4.12,-5.52,5.53,5.69,5.04,9.65,9.65,9.64
49.46,4.12,-5.49,4.12,-5.48,5.48,5.68,5.03,9.61,9.61,9.61
49.96,4.12,-5.43,4.12,-5.44,5.44,5.67,5.01,9.57,9.57,9.56
50.46,4.12,-5.40,4.12,-5.40,5.40,5.65,5.00,9.52,9.52,9.53
50.96,4.12,-5.36,4.12,-5.36,5.36,5.62,5.00,9.48,9.48,9.48
51.47,4.12,-5.32,4.12,-5.32,5.32,5.59,4.99,9.44,9.44,9.44
51.99,4.12,-5.27,4.12,-5.28,5.28,5.56,4.99,9.40,9.40,9.40
52.51,4.12,-5.24,4.12,-5.24,5.24,5.52,4.98,9.36,9.36,9.37
53.03,4.12,-5.21,4.12,-5.20,5.20,5.48,4.98,9.32,9.32,9.33
53.56,4.12,-5.16,4.12,-5.16,5.16,5.43,4.98,9.28,9.28,9.28
54.10,4.12,-5.11,4.12,-5.12,5.11,5.38,4.98,9.24,9.24,9.24
54.64,4.12,-5.07,4.12,-5.07,5.07,5.33,4.98,9.20,9.20,9.20
55.18,4.12,-5.03,4.12,-5.03,5.03,5.27,4.98,9.16,9.16,9.15
55.74,4.12,-4.98,4.12,-4.99,4.99,5.21,4.98,9.12,9.12,9.11
56.29,4.12,-4.96,4.12,-4.95,4.95,5.14,4.98,9.08,9.08,9.08
56.86,4.12,-4.92,4.12,-4.91,4.92,5.07,4.97,9.04,9.04,9.05
57.42,4.12,-4.87,4.12,-4.88,4.88,4.99,4.97,9.00,9.00,8.99
58.00,4.12,-4.83,4.12,-4.84,4.84,4.92,4.96,8.97,8.97,8.96
58.58,4.12,-4.80,4.12,-4.80,4.80,4.84,4.95,8.93,8.93,8.93
59.16,4.12,-4.77,4.12,-4.76,4.76,4.75,4.93,8.88,8.88,8.89
59.76,4.12,-4.72,4.12,-4.72,4.71,4.67,4.92,8.83,8.83,8.85
60.35,4.12,-4.67,4.12,-4.67,4.66,4.58,4.89,8.78,8.78,8.79
60.96,4.12,-4.61,4.12,-4.61,4.61,4.50,4.87,8.73,8.73,8.74
61.57,4.12,-4.55,4.12,-4.55,4.55,4.41,4.84,8.68,8.68,8.68
62.18,4.12,-4.49,4.12,-4.49,4.50,4.32,4.81,8.62,8.62,8.61
62.80,4.12,-4.43,4.12,-4.43,4.44,4.23,4.77,8.57,8.57,8.55
63.43,4.12,-4.38,4.12,-4.38,4.38,4.14,4.72,8.51,8.51,8.50
64.07,4.12,-4.33,4.12,-4.33,4.33,4.05,4.68,8.45,8.45,8.46
64.71,4.12,-4.28,4.12,-4.28,4.28,3.96,4.63,8.40,8.40,8.41
65.35,4.12,-4.22,4.12,-4.23,4.22,3.86,4.57,8.35,8.35,8.34
66.01,4.12,-4.17,4.12,-4.17,4.17,3.77,4.51,8.30,8.30,8.30
66.67,4.12,-4.13,4.12,-4.12,4.12,3.68,4.45,8.24,8.24,8.26
67.33,4.12,-4.06,4.12,-4.07,4.07,3.60,4.38,8.19,8.19,8.18
68.01,4.12,-4.01,4.12,-4.01,4.01,3.51,4.31,8.14,8.14,8.14
68.69,4.12,-3.96,4.12,-3.96,3.96,3.42,4.23,8.08,8.08,8.09
69.37,4.12,-3.91,4.12,-3.91,3.90,3.34,4.16,8.03,8.03,8.03
70.07,4.12,-3.85,4.12,-3.85,3.84,3.25,4.08,7.97,7.97,7.98
70.77,4.12,-3.78,4.12,-3.79,3.79,3.17,4.00,7.91,7.91,7.91
71.48,4.12,-3.73,4.12,-3.73,3.73,3.09,3.92,7.85,7.85,7.86
72.19,4.12,-3.67,4.12,-3.67,3.67,3.01,3.83,7.79,7.79,7.79
72.91,4.12,-3.60,4.12,-3.61,3.61,2.93,3.75,7.73,7.73,7.72
73.64,4.12,-3.55,4.12,-3.55,3.55,2.85,3.66,7.68,7.68,7.67
74.38,4.12,-3.49,4.12,-3.49,3.49,2.77,3.57,7.62,7.62,7.61
75.12,4.12,-3.44,4.12,-3.44,3.44,2.70,3.49,7.56,7.56,7.56
75.87,4.12,-3.39,4.12,-3.39,3.39,2.63,3.40,7.51,7.51,7.51
76.63,4.12,-3.33,4.12,-3.34,3.34,2.55,3.32,7.46,7.46,7.45
77.40,4.12,-3.29,4.12,-3.28,3.29,2.48,3.23,7.41,7.41,7.41
78.17,4.12,-3.23,4.12,-3.24,3.24,2.42,3.15,7.36,7.36,7.35
78.95,4.12,-3.19,4.12,-3.19,3.19,2.35,3.06,7.31,7.31,7.31
79.74,4.12,-3.14,4.12,-3.14,3.14,2.28,2.98,7.26,7.26,7.26
80.54,4.12,-3.09,4.12,-3.09,3.09,2.22,2.90,7.21,7.21,7.21
81.35,4.12,-3.03,4.12,-3.04,3.04,2.16,2.82,7.16,7.16,7.16
82.16,4.12,-3.00,4.12,-2.99,2.99,2.10,2.74,7.11,7.11,7.12
82.98,4.12,-2.94,4.12,-2.94,2.94,2.04,2.66,7.06,7.06,7.06
83.81,4.12,-2.89,4.12,-2.89,2.89,1.98,2.59,7.01,7.01,7.01
84.65,4.12,-2.83,4.12,-2.83,2.83,1.92,2.51,6.96,6.96,6.95
85.50,4.12,-2.77,4.12,-2.78,2.78,1.87,2.44,6.90,6.90,6.90
86.35,4.12,-2.72,4.12,-2.72,2.72,1.81,2.37,6.85,6.85,6.84
87.22,4.12,-2.67,4.12,-2.67,2.67,1.76,2.30,6.79,6.79,6.80
88.09,4.12,-2.61,4.12,-2.61,2.61,1.71,2.23,6.73,6.73,6.74
88.97,4.12,-2.55,4.12,-2.56,2.55,1.66,2.16,6.68,6.68,6.68
89.86,4.12,-2.50,4.12,-2.50,2.50,1.61,2.10,6.62,6.62,6.63
90.76,4.12,-2.44,4.12,-2.44,2.44,1.56,2.04,6.56,6.56,6.57
91.66,4.12,-2.37,4.12,-2.38,2.38,1.51,1.98,6.51,6.51,6.49
92.58,4.12,-2.32,4.12,-2.32,2.32,1.46,1.92,6.45,6.45,6.44
93.51,4.12,-2.27,4.12,-2.27,2.26,1.42,1.86,6.39,6.39,6.40
94.44,4.12,-2.21,4.12,-2.21,2.20,1.37,1.80,6.32,6.32,6.33
95.39,4.12,-2.14,4.12,-2.14,2.14,1.33,1.74,6.26,6.26,6.27
96.34,4.12,-2.07,4.12,-2.07,2.07,1.29,1.69,6.20,6.20,6.19
97.30,4.12,-2.01,4.12,-2.01,2.01,1.25,1.64,6.14,6.14,6.13
98.28,4.12,-1.94,4.12,-1.94,1.95,1.21,1.59,6.07,6.07,6.07
99.26,4.12,-1.88,4.12,-1.88,1.89,1.17,1.54,6.01,6.01,6.00
100.25,4.12,-1.82,4.12,-1.82,1.82,1.13,1.49,5.95,5.95,5.94
101.25,4.12,-1.77,4.12,-1.77,1.77,1.09,1.44,5.89,5.89,5.89
102.27,4.12,-1.71,4.12,-1.71,1.71,1.05,1.39,5.83,5.83,5.84
103.29,4.12,-1.65,4.12,-1.65,1.65,1.01,1.35,5.78,5.78,5.77
104.32,4.12,-1.60,4.12,-1.60,1.60,0.98,1.30,5.72,5.72,5.72
105.37,4.12,-1.54,4.12,-1.54,1.54,0.94,1.26,5.67,5.67,5.67
106.42,4.12,-1.49,4.12,-1.49,1.49,0.90,1.22,5.61,5.61,5.61
107.48,4.12,-1.43,4.12,-1.43,1.43,0.87,1.18,5.56,5.56,5.55
108.56,4.12,-1.38,4.12,-1.38,1.38,0.83,1.14,5.50,5.50,5.51
109.64,4.12,-1.32,4.12,-1.32,1.32,0.80,1.10,5.44,5.44,5.44
110.74,4.12,-1.26,4.12,-1.26,1.26,0.77,1.06,5.39,5.39,5.38
111.85,4.12,-1.20,4.12,-1.21,1.20,0.73,1.02,5.33,5.33,5.33
112.97,4.12,-1.15,4.12,-1.15,1.14,0.70,0.98,5.26,5.26,5.28
114.10,4.12,-1.09,4.12,-1.08,1.08,0.67,0.94,5.20,5.20,5.22
115.24,4.12,-1.01,4.12,-1.02,1.02,0.64,0.90,5.14,5.14,5.14
116.39,4.12,-0.95,4.12,-0.95,0.96,0.61,0.87,5.08,5.08,5.07
117.55,4.12,-0.89,4.12,-0.89,0.90,0.57,0.83,5.02,5.02,5.01
118.73,4.12,-0.83,4.12,-0.84,0.84,0.54,0.79,4.97,4.97,4.95
119.92,4.12,-0.79,4.12,-0.79,0.79,0.51,0.75,4.91,4.91,4.92
121.12,4.12,-0.74,4.12,-0.74,0.73,0.48,0.72,4.86,4.86,4.87
122.33,4.12,-0.68,4.12,-0.69,0.68,0.45,0.68,4.81,4.81,4.81
123.55,4.12,-0.63,4.12,-0.63,0.63,0.42,0.65,4.75,4.75,4.75
124.79,4.12,-0.58,4.12,-0.58,0.57,0.39,0.61,4.70,4.70,4.71
126.03,4.12,-0.52,4.12,-0.52,0.52,0.36,0.57,4.64,4.64,4.64
127.29,4.12,-0.47,4.12,-0.47,0.46,0.33,0.54,4.59,4.59,4.59
128.57,4.12,-0.40,4.12,-0.41,0.41,0.30,0.50,4.53,4.53,4.53
129.85,4.12,-0.35,4.12,-0.35,0.35,0.27,0.46,4.48,4.48,4.47
131.15,4.12,-0.29,4.12,-0.29,0.29,0.25,0.43,4.42,4.42,4.41
132.46,4.12,-0.24,4.12,-0.24,0.24,0.22,0.39,4.36,4.36,4.36
133.79,4.12,-0.18,4.12,-0.18,0.18,0.19,0.35,4.31,4.31,4.31
135.12,4.12,-0.13,4.12,-0.13,0.13,0.16,0.31,4.25,4.25,4.25
136.48,4.12,-0.08,4.12,-0.08,0.08,0.13,0.28,4.20,4.20,4.21
137.84,4.12,-0.03,4.12,-0.03,0.03,0.10,0.24,4.15,4.15,4.15
139.22,4.12,0.03,4.12,0.02,-0.02,0.07,0.20,4.10,4.10,4.09
140.61,4.12,0.07,4.12,0.08,-0.07,0.04,0.16,4.05,4.05,4.05
142.02,4.12,0.13,4.12,0.12,-0.12,0.01,0.12,4.00,4.00,4.00
143.44,4.12,0.17,4.12,0.17,-0.17,-0.02,0.08,3.96,3.96,3.96
144.87,4.12,0.21,4.12,0.21,-0.21,-0.05,0.04,3.91,3.91,3.91
146.32,4.12,0.26,4.12,0.26,-0.26,-0.08,0.00,3.87,3.87,3.86
147.78,4.12,0.30,4.12,0.30,-0.30,-0.11,-0.04,3.82,3.82,3.82
149.26,4.12,0.35,4.12,0.35,-0.34,-0.14,-0.08,3.78,3.78,3.77
150.75,4.12,0.39,4.12,0.39,-0.39,-0.17,-0.12,3.74,3.74,3.73
152.26,4.12,0.43,4.12,0.43,-0.43,-0.21,-0.16,3.69,3.69,3.69
153.78,4.12,0.47,4.12,0.47,-0.47,-0.24,-0.20,3.65,3.65,3.65
155.32,4.12,0.51,4.12,0.51,-0.52,-0.27,-0.24,3.61,3.61,3.61
156.88,4.12,0.56,4.12,0.56,-0.56,-0.30,-0.29,3.56,3.56,3.57
158.44,4.12,0.61,4.12,0.60,-0.60,-0.34,-0.33,3.52,3.52,3.51
160.03,4.12,0.65,4.12,0.65,-0.65,-0.37,-0.38,3.48,3.48,3.47
161.63,4.12,0.69,4.12,0.69,-0.69,-0.40,-0.42,3.43,3.43,3.43
163.24,4.12,0.74,4.12,0.74,-0.74,-0.44,-0.47,3.38,3.38,3.38
164.88,4.12,0.79,4.12,0.79,-0.79,-0.47,-0.51,3.34,3.34,3.34
166.53,4.12,0.84,4.12,0.83,-0.83,-0.51,-0.56,3.29,3.29,3.29
168.19,4.12,0.87,4.12,0.88,-0.88,-0.54,-0.61,3.24,3.24,3.25
169.87,4.12,0.93,4.12,0.93,-0.93,-0.58,-0.66,3.20,3.20,3.19
171.57,4.12,0.98,4.12,0.97,-0.98,-0.62,-0.70,3.15,3.15,3.14
173.29,4.12,1.02,4.12,1.02,-1.02,-0.66,-0.75,3.10,3.10,3.10
175.02,4.12,1.07,4.12,1.07,-1.07,-0.70,-0.80,3.05,3.05,3.05
176.77,4.12,1.12,4.12,1.12,-1.12,-0.73,-0.86,3.01,3.01,3.00
178.54,4.12,1.16,4.12,1.17,-1.16,-0.77,-0.91,2.96,2.96,2.96
180.32,4.12,1.22,4.12,1.21,-1.21,-0.82,-0.96,2.91,2.91,2.90
182.13,4.12,1.25,4.12,1.26,-1.26,-0.86,-1.01,2.87,2.87,2.87
183.95,4.12,1.30,4.12,1.30,-1.30,-0.90,-1.07,2.82,2.82,2.82
185.79,4.12,1.35,4.12,1.34,-1.34,-0.94,-1.12,2.78,2.78,2.77
187.65,4.12,1.39,4.12,1.39,-1.39,-0.99,-1.18,2.74,2.74,2.74
189.52,4.12,1.43,4.12,1.43,-1.43,-1.03,-1.24,2.69,2.69,2.69
191.42,4.12,1.47,4.12,1.47,-1.48,-1.08,-1.29,2.65,2.65,2.65
193.33,4.12,1.51,4.12,1.51,-1.52,-1.12,-1.35,2.61,2.61,2.61
195.27,4.12,1.56,4.12,1.56,-1.56,-1.17,-1.41,2.57,2.57,2.57
197.22,4.12,1.61,4.12,1.60,-1.60,-1.21,-1.47,2.53,2.53,2.51
199.19,4.12,1.64,4.12,1.64,-1.64,-1.26,-1.53,2.49,2.49,2.48
201.18,4.12,1.68,4.12,1.68,-1.67,-1.31,-1.58,2.45,2.45,2.44
203.19,4.12,1.71,4.12,1.70,-1.71,-1.36,-1.64,2.42,2.42,2.41
205.23,4.12,1.73,4.12,1.73,-1.74,-1.41,-1.70,2.39,2.39,2.39
207.28,4.12,1.76,4.12,1.76,-1.77,-1.46,-1.76,2.36,2.36,2.36
209.35,4.12,1.80,4.12,1.79,-1.80,-1.51,-1.82,2.33,2.33,2.32
211.44,4.12,1.83,4.12,1.83,-1.83,-1.56,-1.88,2.30,2.30,2.29
213.56,4.12,1.85,4.12,1.85,-1.85,-1.61,-1.93,2.27,2.27,2.27
215.69,4.12,1.88,4.12,1.88,-1.88,-1.66,-1.99,2.24,2.24,2.24
217.85,4.12,1.91,4.12,1.91,-1.91,-1.71,-2.04,2.21,2.21,2.21
220.03,4.12,1.94,4.12,1.94,-1.94,-1.76,-2.09,2.19,2.19,2.18
222.23,4.12,1.97,4.12,1.96,-1.96,-1.81,-2.14,2.16,2.16,2.15
224.45,4.12,1.98,4.12,1.99,-1.98,-1.86,-2.19,2.14,2.14,2.14
226.70,4.12,2.01,4.12,2.00,-2.00,-1.91,-2.23,2.12,2.12,2.11
228.96,4.12,2.02,4.12,2.02,-2.02,-1.96,-2.28,2.10,2.10,2.10
231.25,4.12,2.04,4.12,2.04,-2.04,-2.01,-2.32,2.08,2.08,2.08
233.57,4.12,2.06,4.12,2.06,-2.06,-2.05,-2.35,2.07,2.07,2.06
235.90,4.12,2.07,4.12,2.07,-2.07,-2.10,-2.38,2.05,2.05,2.05
238.26,4.12,2.10,4.12,2.09,-2.09,-2.14,-2.41,2.04,2.04,2.02
240.64,4.12,2.09,4.12,2.10,-2.10,-2.18,-2.44,2.03,2.03,2.03
243.05,4.12,2.11,4.12,2.11,-2.11,-2.22,-2.46,2.02,2.02,2.01
245.48,4.12,2.12,4.12,2.12,-2.12,-2.26,-2.47,2.01,2.01,2.00
247.93,4.12,2.13,4.12,2.12,-2.12,-2.30,-2.49,2.00,2.00,1.99
250.41,4.12,2.12,4.12,2.13,-2.13,-2.33,-2.49,2.00,2.00,2.00
252.92,4.12,2.13,4.12,2.13,-2.13,-2.36,-2.50,1.99,1.99,1.99
255.45,4.12,2.14,4.12,2.13,-2.14,-2.38,-2.50,1.99,1.99,1.98
258.00,4.12,2.14,4.12,2.14,-2.14,-2.40,-2.49,1.99,1.99,1.98
260.58,4.12,2.14,4.12,2.14,-2.14,-2.42,-2.48,1.98,1.98,1.98
263.19,4.12,2.14,4.12,2.14,-2.14,-2.44,-2.47,1.98,1.98,1.98
265.82,4.12,2.15,4.12,2.15,-2.15,-2.45,-2.45,1.98,1.98,1.97
268.48,4.12,2.15,4.12,2.15,-2.15,-2.46,-2.43,1.98,1.98,1.97
271.16,4.12,2.15,4.12,2.15,-2.15,-2.46,-2.41,1.97,1.97,1.97
273.87,4.12,2.15,4.12,2.15,-2.15,-2.46,-2.38,1.97,1.97,1.97
276.61,4.12,2.15,4.12,2.16,-2.16,-2.46,-2.35,1.97,1.97,1.97
279.38,4.12,2.17,4.12,2.16,-2.16,-2.45,-2.32,1.96,1.96,1.95
282.17,4.12,2.17,4.12,2.16,-2.17,-2.44,-2.28,1.96,1.96,1.95
284.99,4.12,2.16,4.13,2.17,-2.17,-2.42,-2.24,1.95,1.96,1.96
287.84,4.13,2.16,4.14,2.17,-2.17,-2.40,-2.20,1.97,1.97,1.97
290.72,4.14,2.18,4.14,2.17,-2.17,-2.38,-2.16,1.98,1.98,1.96
293.63,4.14,2.17,4.14,2.17,-2.16,-2.36,-2.12,1.99,1.99,1.97
296.57,4.13,2.15,4.13,2.15,-2.14,-2.33,-2.08,1.99,1.99,1.98
299.53,4.11,2.13,4.12,2.13,-2.13,-2.30,-2.04,1.99,1.99,1.98
302.53,4.09,2.09,4.10,2.10,-2.10,-2.26,-1.99,1.99,1.99,2.00
305.55,4.07,2.08,4.07,2.07,-2.07,-2.23,-1.95,2.00,2.00,1.99
308.61,4.04,2.04,4.05,2.04,-2.04,-2.19,-1.91,2.00,2.00,2.00
311.69,4.01,2.00,4.02,2.01,-2.00,-2.15,-1.86,2.01,2.01,2.01
314.81,3.98,1.97,3.99,1.97,-1.96,-2.10,-1.82,2.02,2.02,2.01
317.96,3.95,1.93,3.96,1.93,-1.92,-2.06,-1.78,2.03,2.03,2.02
321.14,3.92,1.89,3.92,1.89,-1.88,-2.01,-1.74,2.04,2.03,2.03
324.35,3.88,1.85,3.88,1.84,-1.84,-1.97,-1.70,2.04,2.04,2.03
327.59,3.84,1.78,3.86,1.80,-1.81,-1.92,-1.66,2.04,2.05,2.06
330.87,3.83,1.78,3.83,1.77,-1.77,-1.87,-1.62,2.06,2.05,2.05
334.18,3.81,1.75,3.81,1.74,-1.75,-1.82,-1.58,2.07,2.06,2.06
337.52,3.78,1.72,3.79,1.72,-1.72,-1.77,-1.54,2.06,2.07,2.06
340.90,3.77,1.69,3.78,1.70,-1.71,-1.72,-1.50,2.07,2.07,2.08
344.30,3.77,1.68,3.77,1.69,-1.69,-1.67,-1.47,2.08,2.08,2.09
347.75,3.78,1.69,3.78,1.68,-1.68,-1.62,-1.43,2.10,2.10,2.09
351.23,3.78,1.69,3.79,1.68,-1.68,-1.57,-1.40,2.11,2.11,2.09
354.74,3.79,1.67,3.79,1.68,-1.67,-1.52,-1.37,2.12,2.12,2.12
358.28,3.79,1.68,3.79,1.67,-1.67,-1.47,-1.34,2.12,2.12,2.11
361.87,3.79,1.67,3.80,1.67,-1.67,-1.42,-1.31,2.13,2.13,2.12
365.49,3.79,1.66,3.80,1.66,-1.67,-1.37,-1.28,2.13,2.13,2.13
369.14,3.80,1.65,3.80,1.66,-1.66,-1.32,-1.25,2.14,2.14,2.15
372.83,3.81,1.66,3.81,1.66,-1.66,-1.28,-1.23,2.16,2.15,2.15
376.56,3.81,1.66,3.82,1.65,-1.65,-1.23,-1.20,2.16,2.16,2.15
380.33,3.81,1.65,3.81,1.65,-1.64,-1.18,-1.18,2.17,2.17,2.16
384.13,3.80,1.62,3.81,1.63,-1.62,-1.14,-1.16,2.18,2.18,2.18
387.97,3.79,1.61,3.80,1.61,-1.60,-1.09,-1.13,2.19,2.19,2.18
391.85,3.78,1.59,3.78,1.58,-1.58,-1.05,-1.11,2.21,2.20,2.19
395.77,3.75,1.55,3.76,1.55,-1.54,-1.00,-1.09,2.21,2.21,2.20
399.73,3.72,1.51,3.73,1.51,-1.51,-0.96,-1.07,2.22,2.22,2.21
403.72,3.69,1.45,3.69,1.46,-1.47,-0.92,-1.05,2.23,2.23,2.24
407.76,3.66,1.43,3.66,1.42,-1.42,-0.88,-1.04,2.24,2.24,2.23
411.84,3.62,1.38,3.63,1.38,-1.38,-0.84,-1.02,2.24,2.24,2.24
415.96,3.59,1.33,3.59,1.34,-1.34,-0.80,-1.00,2.25,2.25,2.26
420.12,3.56,1.30,3.57,1.30,-1.31,-0.76,-0.98,2.26,2.26,2.26
424.32,3.54,1.27,3.55,1.27,-1.27,-0.72,-0.97,2.27,2.28,2.27
428.56,3.53,1.24,3.53,1.24,-1.24,-0.68,-0.95,2.30,2.29,2.29
432.85,3.50,1.20,3.51,1.21,-1.21,-0.65,-0.93,2.30,2.30,2.30
437.18,3.47,1.18,3.48,1.18,-1.17,-0.61,-0.92,2.30,2.31,2.29
441.55,3.45,1.15,3.45,1.14,-1.14,-0.58,-0.90,2.31,2.31,2.30
445.96,3.42,1.11,3.42,1.11,-1.11,-0.54,-0.88,2.32,2.32,2.31
450.42,3.39,1.07,3.40,1.07,-1.08,-0.51,-0.86,2.32,2.32,2.32
454.93,3.37,1.04,3.37,1.04,-1.04,-0.47,-0.85,2.33,2.33,2.33
459.48,3.34,1.00,3.35,1.00,-1.00,-0.44,-0.83,2.34,2.35,2.34
464.07,3.32,0.96,3.33,0.96,-0.96,-0.41,-0.81,2.36,2.36,2.36
468.71,3.30,0.93,3.30,0.93,-0.92,-0.38,-0.79,2.38,2.38,2.37
473.40,3.26,0.89,3.27,0.89,-0.88,-0.34,-0.76,2.39,2.39,2.37
478.13,3.22,0.84,3.23,0.84,-0.83,-0.31,-0.74,2.39,2.39,2.38
482.91,3.18,0.79,3.18,0.79,-0.79,-0.28,-0.72,2.40,2.39,2.39
487.74,3.13,0.73,3.14,0.73,-0.74,-0.25,-0.69,2.39,2.40,2.40
492.62,3.09,0.68,3.10,0.68,-0.69,-0.22,-0.66,2.40,2.40,2.41
497.55,3.06,0.64,3.06,0.64,-0.65,-0.19,-0.64,2.42,2.42,2.42
502.52,3.03,0.60,3.04,0.60,-0.60,-0.17,-0.61,2.44,2.44,2.43
507.55,3.00,0.55,3.00,0.55,-0.55,-0.14,-0.57,2.46,2.46,2.45
512.62,2.97,0.51,2.97,0.50,-0.49,-0.11,-0.54,2.48,2.47,2.46
517.75,2.92,0.44,2.93,0.45,-0.44,-0.08,-0.51,2.48,2.49,2.48
522.93,2.88,0.39,2.88,0.39,-0.39,-0.05,-0.47,2.50,2.50,2.49
528.16,2.83,0.33,2.83,0.33,-0.33,-0.03,-0.43,2.51,2.50,2.50
533.44,2.78,0.27,2.79,0.27,-0.27,0.00,-0.40,2.51,2.51,2.51
538.77,2.73,0.21,2.73,0.21,-0.21,0.03,-0.36,2.52,2.52,2.52
544.16,2.68,0.15,2.68,0.15,-0.16,0.05,-0.31,2.53,2.53,2.53
