frequency,raw,error,smoothed,error_smoothed,equalization,parametric_eq,fixed_band_eq,equalized_raw,equalized_smoothed,target
20.00,-9.19,-15.22,-9.19,-15.25,15.25,14.06,5.85,6.05,6.06,6.03
20.20,-9.12,-15.15,-9.13,-15.18,15.18,14.16,5.99,6.05,6.05,6.03
20.40,-9.07,-15.10,-9.07,-15.10,15.10,14.25,6.13,6.03,6.04,6.03
20.61,-9.00,-15.03,-9.00,-15.03,15.03,14.33,6.29,6.03,6.03,6.03
20.81,-8.93,-14.96,-8.94,-14.96,14.96,14.40,6.44,6.03,6.02,6.03
21.02,-8.88,-14.91,-8.87,-14.88,14.88,14.45,6.60,6.00,6.01,6.03
21.23,-8.81,-14.82,-8.81,-14.80,14.80,14.48,6.76,5.99,5.99,6.01
21.44,-8.74,-14.74,-8.74,-14.72,14.72,14.51,6.93,5.98,5.98,6.00
21.66,-8.68,-14.66,-8.68,-14.64,14.64,14.52,7.10,5.96,5.97,5.98
21.87,-8.62,-14.58,-8.61,-14.56,14.56,14.52,7.28,5.94,5.95,5.96
22.09,-8.54,-14.49,-8.54,-14.48,14.48,14.50,7.46,5.94,5.94,5.95
22.31,-8.47,-14.39,-8.47,-14.39,14.39,14.47,7.64,5.92,5.92,5.92
22.54,-8.41,-14.31,-8.41,-14.30,14.30,14.43,7.84,5.89,5.90,5.90
22.76,-8.33,-14.21,-8.34,-14.21,14.21,14.37,8.03,5.88,5.87,5.88
22.99,-8.26,-14.11,-8.27,-14.12,14.12,14.31,8.23,5.86,5.85,5.85
23.22,-8.20,-14.02,-8.20,-14.03,14.03,14.23,8.44,5.82,5.83,5.81
23.45,-8.12,-13.91,-8.12,-13.93,13.93,14.14,8.65,5.81,5.81,5.79
23.69,-8.05,-13.84,-8.05,-13.84,13.84,14.05,8.87,5.79,5.79,5.78
23.92,-7.98,-13.74,-7.98,-13.75,13.75,13.95,9.10,5.77,5.77,5.76
24.16,-7.90,-13.65,-7.91,-13.65,13.65,13.84,9.33,5.75,5.75,5.75
24.40,-7.84,-13.57,-7.83,-13.56,13.56,13.72,9.56,5.72,5.73,5.73
24.65,-7.76,-13.47,-7.76,-13.47,13.47,13.60,9.80,5.70,5.71,5.71
24.89,-7.69,-13.38,-7.68,-13.37,13.37,13.48,10.05,5.69,5.69,5.69
25.14,-7.61,-13.29,-7.61,-13.28,13.28,13.35,10.30,5.67,5.67,5.68
25.39,-7.53,-13.19,-7.53,-13.19,13.19,13.22,10.56,5.66,5.66,5.66
25.65,-7.45,-13.10,-7.46,-13.10,13.10,13.09,10.83,5.65,5.64,5.65
25.91,-7.38,-13.00,-7.38,-13.00,13.00,12.95,11.10,5.62,5.62,5.61
26.16,-7.30,-12.90,-7.30,-12.91,12.91,12.82,11.37,5.61,5.61,5.60
26.43,-7.22,-12.81,-7.22,-12.81,12.81,12.68,11.65,5.59,5.59,5.59
26.69,-7.14,-12.71,-7.14,-12.71,12.71,12.55,11.93,5.57,5.57,5.57
26.96,-7.06,-12.62,-7.06,-12.62,12.62,12.41,12.21,5.56,5.56,5.56
27.23,-6.98,-12.53,-6.98,-12.52,12.52,12.28,12.49,5.54,5.54,5.55
27.50,-6.90,-12.44,-6.90,-12.43,12.43,12.14,12.77,5.52,5.53,5.54
27.77,-6.81,-12.32,-6.81,-12.33,12.33,12.01,13.06,5.52,5.52,5.51
28.05,-6.73,-12.23,-6.73,-12.23,12.23,11.88,13.33,5.50,5.50,5.50
28.33,-6.65,-12.13,-6.65,-12.14,12.14,11.76,13.60,5.49,5.49,5.48
28.62,-6.56,-12.03,-6.57,-12.04,12.04,11.63,13.86,5.48,5.47,5.47
28.90,-6.48,-11.94,-6.48,-11.94,11.94,11.51,14.11,5.46,5.46,5.46
29.19,-6.41,-11.85,-6.40,-11.85,11.85,11.39,14.35,5.44,5.45,5.44
29.48,-6.32,-11.75,-6.32,-11.75,11.75,11.27,14.56,5.43,5.43,5.43
29.78,-6.24,-11.66,-6.24,-11.66,11.66,11.15,14.75,5.42,5.42,5.42
30.08,-6.16,-11.57,-6.16,-11.57,11.57,11.04,14.92,5.40,5.40,5.41
30.38,-6.08,-11.47,-6.08,-11.47,11.47,10.93,15.05,5.39,5.39,5.39
30.68,-6.00,-11.38,-6.01,-11.38,11.38,10.83,15.15,5.38,5.37,5.38
30.99,-5.92,-11.28,-5.93,-11.29,11.29,10.72,15.22,5.37,5.36,5.35
31.30,-5.85,-11.19,-5.86,-11.20,11.20,10.63,15.25,5.35,5.34,5.34
31.61,-5.78,-11.11,-5.78,-11.11,11.11,10.53,15.24,5.33,5.32,5.33
31.93,-5.71,-11.02,-5.71,-11.02,11.02,10.44,15.20,5.30,5.30,5.31
32.24,-5.65,-10.92,-5.64,-10.92,10.92,10.35,15.12,5.28,5.28,5.27
32.57,-5.57,-10.83,-5.57,-10.83,10.83,10.26,15.01,5.26,5.26,5.26
32.89,-5.51,-10.76,-5.50,-10.74,10.74,10.18,14.87,5.23,5.24,5.25
33.22,-5.43,-10.65,-5.43,-10.65,10.65,10.10,14.71,5.22,5.22,5.22
33.55,-5.37,-10.57,-5.37,-10.57,10.57,10.02,14.52,5.20,5.20,5.20
33.89,-5.30,-10.48,-5.30,-10.48,10.48,9.95,14.31,5.18,5.18,5.18
34.23,-5.23,-10.39,-5.23,-10.39,10.39,9.87,14.09,5.16,5.16,5.16
34.57,-5.16,-10.29,-5.17,-10.30,10.30,9.81,13.85,5.14,5.14,5.13
34.92,-5.10,-10.21,-5.10,-10.21,10.21,9.74,13.61,5.11,5.11,5.11
35.27,-5.03,-10.13,-5.03,-10.13,10.13,9.68,13.36,5.09,5.09,5.09
35.62,-4.97,-10.04,-4.97,-10.04,10.04,9.62,13.11,5.07,5.07,5.07
35.97,-4.90,-9.95,-4.90,-9.95,9.95,9.56,12.86,5.05,5.05,5.05
36.33,-4.83,-9.86,-4.84,-9.86,9.86,9.51,12.61,5.03,5.03,5.03
36.70,-4.78,-9.79,-4.77,-9.78,9.78,9.46,12.36,5.00,5.01,5.01
37.06,-4.71,-9.69,-4.71,-9.69,9.69,9.40,12.11,4.98,4.99,4.98
37.43,-4.64,-9.61,-4.64,-9.61,9.61,9.36,11.86,4.97,4.96,4.97
37.81,-4.58,-9.52,-4.58,-9.52,9.52,9.31,11.62,4.94,4.94,4.94
38.19,-4.51,-9.43,-4.52,-9.44,9.44,9.27,11.39,4.92,4.92,4.92
38.57,-4.45,-9.35,-4.45,-9.35,9.35,9.22,11.16,4.90,4.90,4.90
38.95,-4.39,-9.27,-4.39,-9.27,9.27,9.18,10.93,4.88,4.88,4.88
39.34,-4.33,-9.18,-4.33,-9.19,9.19,9.14,10.72,4.86,4.86,4.85
39.74,-4.27,-9.10,-4.27,-9.11,9.11,9.10,10.51,4.84,4.84,4.83
40.14,-4.21,-9.03,-4.21,-9.03,9.03,9.06,10.30,4.82,4.82,4.82
40.54,-4.15,-8.94,-4.15,-8.95,8.95,9.02,10.10,4.80,4.80,4.79
40.94,-4.09,-8.87,-4.09,-8.87,8.87,8.98,9.91,4.78,4.78,4.78
41.35,-4.04,-8.79,-4.03,-8.79,8.79,8.94,9.73,4.75,4.76,4.75
41.76,-3.97,-8.71,-3.98,-8.71,8.71,8.90,9.55,4.74,4.74,4.74
42.18,-3.92,-8.65,-3.92,-8.64,8.64,8.86,9.38,4.72,4.72,4.72
42.60,-3.87,-8.57,-3.86,-8.56,8.56,8.82,9.21,4.69,4.70,4.70
43.03,-3.81,-8.50,-3.81,-8.48,8.48,8.78,9.05,4.67,4.68,4.69
43.46,-3.75,-8.41,-3.75,-8.41,8.41,8.74,8.90,4.66,4.66,4.66
43.90,-3.69,-8.32,-3.70,-8.33,8.33,8.69,8.75,4.64,4.64,4.63
44.33,-3.64,-8.25,-3.64,-8.26,8.26,8.64,8.61,4.62,4.62,4.61
44.78,-3.59,-8.18,-3.59,-8.19,8.19,8.59,8.48,4.59,4.60,4.59
45.23,-3.54,-8.11,-3.54,-8.11,8.11,8.54,8.35,4.57,4.57,4.56
45.68,-3.49,-8.03,-3.49,-8.04,8.04,8.49,8.23,4.55,4.55,4.54
46.13,-3.43,-7.95,-3.43,-7.96,7.96,8.43,8.11,4.53,4.53,4.52
46.60,-3.38,-7.89,-3.38,-7.89,7.89,8.37,8.00,4.51,4.51,4.51
47.06,-3.33,-7.82,-3.33,-7.82,7.82,8.31,7.89,4.49,4.48,4.49
47.53,-3.28,-7.75,-3.29,-7.75,7.75,8.24,7.79,4.47,4.46,4.47
48.01,-3.24,-7.70,-3.24,-7.68,7.68,8.17,7.69,4.44,4.44,4.46
48.49,-3.19,-7.62,-3.19,-7.61,7.61,8.10,7.59,4.42,4.42,4.42
48.97,-3.14,-7.53,-3.14,-7.54,7.54,8.03,7.51,4.40,4.39,4.39
49.46,-3.10,-7.46,-3.10,-7.47,7.47,7.95,7.42,4.36,4.37,4.36
49.96,-3.06,-7.39,-3.05,-7.40,7.40,7.87,7.34,4.33,4.34,4.32
50.46,-3.00,-7.32,-3.01,-7.33,7.33,7.78,7.26,4.32,4.32,4.32
50.96,-2.96,-7.26,-2.96,-7.25,7.25,7.70,7.19,4.29,4.29,4.30
51.47,-2.92,-7.18,-2.92,-7.18,7.18,7.61,7.12,4.26,4.27,4.26
51.99,-2.87,-7.11,-2.87,-7.11,7.11,7.52,7.05,4.24,4.24,4.23
52.51,-2.83,-7.05,-2.83,-7.04,7.04,7.42,6.98,4.21,4.21,4.22
53.03,-2.79,-6.98,-2.79,-6.97,6.97,7.33,6.92,4.18,4.18,4.19
53.56,-2.74,-6.90,-2.74,-6.90,6.90,7.23,6.86,4.16,4.16,4.16
54.10,-2.69,-6.83,-2.70,-6.83,6.83,7.13,6.80,4.14,4.13,4.13
54.64,-2.66,-6.77,-2.65,-6.76,6.76,7.03,6.74,4.10,4.10,4.11
55.18,-2.61,-6.69,-2.61,-6.69,6.69,6.93,6.68,4.08,4.08,4.08
55.74,-2.56,-6.61,-2.56,-6.62,6.62,6.83,6.62,4.06,4.05,4.05
56.29,-2.52,-6.55,-2.52,-6.55,6.55,6.73,6.56,4.02,4.02,4.02
56.86,-2.48,-6.47,-2.48,-6.47,6.47,6.63,6.51,3.99,4.00,3.99
57.42,-2.43,-6.39,-2.44,-6.40,6.40,6.53,6.45,3.97,3.97,3.96
58.00,-2.39,-6.33,-2.39,-6.33,6.33,6.42,6.39,3.94,3.94,3.94
58.58,-2.35,-6.26,-2.35,-6.26,6.26,6.32,6.33,3.91,3.91,3.90
59.16,-2.30,-6.18,-2.31,-6.18,6.18,6.22,6.26,3.88,3.88,3.88
59.76,-2.27,-6.13,-2.27,-6.11,6.11,6.12,6.20,3.84,3.85,3.85
60.35,-2.22,-6.04,-2.22,-6.04,6.04,6.03,6.13,3.82,3.82,3.82
60.96,-2.19,-5.99,-2.18,-5.97,5.97,5.93,6.06,3.78,3.78,3.80
61.57,-2.14,-5.90,-2.14,-5.90,5.90,5.83,5.99,3.75,3.75,3.75
62.18,-2.10,-5.82,-2.10,-5.82,5.82,5.74,5.91,3.72,3.72,3.72
62.80,-2.05,-5.74,-2.06,-5.75,5.75,5.65,5.84,3.70,3.69,3.69
63.43,-2.02,-5.67,-2.02,-5.68,5.68,5.56,5.76,3.66,3.66,3.65
64.07,-1.98,-5.60,-1.98,-5.61,5.61,5.48,5.67,3.63,3.63,3.62
64.71,-1.94,-5.54,-1.94,-5.54,5.54,5.40,5.58,3.59,3.60,3.59
65.35,-1.90,-5.46,-1.90,-5.46,5.46,5.32,5.49,3.56,3.57,3.56
66.01,-1.86,-5.40,-1.86,-5.39,5.39,5.24,5.40,3.53,3.53,3.54
66.67,-1.82,-5.32,-1.82,-5.32,5.32,5.17,5.31,3.50,3.50,3.50
67.33,-1.77,-5.25,-1.78,-5.25,5.25,5.10,5.21,3.48,3.47,3.48
68.01,-1.74,-5.18,-1.74,-5.18,5.18,5.03,5.11,3.44,3.44,3.44
68.69,-1.70,-5.12,-1.70,-5.11,5.11,4.97,5.01,3.41,3.41,3.41
69.37,-1.67,-5.05,-1.67,-5.04,5.04,4.91,4.90,3.37,3.38,3.38
70.07,-1.63,-4.98,-1.63,-4.97,4.97,4.85,4.80,3.34,3.35,3.35
70.77,-1.59,-4.91,-1.59,-4.90,4.90,4.80,4.69,3.31,3.31,3.32
71.48,-1.55,-4.83,-1.55,-4.83,4.83,4.75,4.59,3.28,3.27,3.28
72.19,-1.52,-4.76,-1.52,-4.76,4.76,4.70,4.48,3.23,3.24,3.24
72.91,-1.48,-4.68,-1.49,-4.68,4.68,4.65,4.37,3.20,3.20,3.20
73.64,-1.45,-4.61,-1.45,-4.61,4.61,4.61,4.26,3.16,3.16,3.16
74.38,-1.42,-4.54,-1.42,-4.53,4.53,4.56,4.15,3.11,3.12,3.12
75.12,-1.38,-4.45,-1.39,-4.46,4.46,4.52,4.04,3.08,3.07,3.06
75.87,-1.35,-4.38,-1.35,-4.38,4.38,4.47,3.94,3.03,3.03,3.03
76.63,-1.32,-4.31,-1.32,-4.30,4.30,4.42,3.83,2.98,2.99,2.99
77.40,-1.29,-4.23,-1.29,-4.23,4.23,4.36,3.72,2.94,2.94,2.94
78.17,-1.26,-4.14,-1.26,-4.15,4.15,4.30,3.61,2.89,2.89,2.88
78.95,-1.23,-4.08,-1.23,-4.07,4.07,4.24,3.51,2.84,2.84,2.85
79.74,-1.20,-4.00,-1.20,-3.99,3.99,4.17,3.41,2.79,2.79,2.80
80.54,-1.17,-3.92,-1.17,-3.91,3.91,4.09,3.30,2.74,2.74,2.74
81.35,-1.13,-3.82,-1.14,-3.83,3.83,4.00,3.20,2.70,2.69,2.69
82.16,-1.10,-3.74,-1.11,-3.75,3.75,3.91,3.10,2.65,2.64,2.64
82.98,-1.08,-3.67,-1.08,-3.67,3.67,3.82,3.00,2.58,2.58,2.59
83.81,-1.05,-3.57,-1.05,-3.58,3.58,3.72,2.90,2.53,2.53,2.52
84.65,-1.03,-3.50,-1.03,-3.50,3.50,3.61,2.81,2.47,2.47,2.47
85.50,-1.00,-3.42,-1.00,-3.41,3.41,3.50,2.71,2.41,2.42,2.42
86.35,-0.97,-3.33,-0.97,-3.33,3.33,3.39,2.62,2.36,2.36,2.36
87.22,-0.95,-3.25,-0.95,-3.25,3.25,3.28,2.53,2.30,2.30,2.30
88.09,-0.92,-3.16,-0.92,-3.16,3.16,3.17,2.44,2.24,2.24,2.24
88.97,-0.89,-3.08,-0.90,-3.08,3.08,3.06,2.35,2.19,2.18,2.19
89.86,-0.87,-3.00,-0.87,-2.99,2.99,2.95,2.26,2.12,2.12,2.13
90.76,-0.85,-2.90,-0.85,-2.91,2.91,2.85,2.18,2.06,2.06,2.05
91.66,-0.82,-2.82,-0.82,-2.82,2.82,2.74,2.09,2.00,2.00,2.00
92.58,-0.80,-2.73,-0.80,-2.74,2.74,2.64,2.01,1.94,1.94,1.93
93.51,-0.78,-2.66,-0.78,-2.65,2.65,2.54,1.93,1.87,1.88,1.88
94.44,-0.75,-2.57,-0.75,-2.56,2.56,2.44,1.85,1.81,1.81,1.82
95.39,-0.73,-2.48,-0.73,-2.48,2.48,2.35,1.77,1.75,1.74,1.75
96.34,-0.71,-2.39,-0.71,-2.39,2.39,2.26,1.69,1.68,1.68,1.68
97.30,-0.69,-2.30,-0.69,-2.30,2.30,2.17,1.61,1.61,1.61,1.61
98.28,-0.67,-2.22,-0.67,-2.21,2.21,2.08,1.54,1.54,1.54,1.54
99.26,-0.65,-2.12,-0.65,-2.13,2.13,1.99,1.46,1.47,1.47,1.47
100.25,-0.63,-2.03,-0.64,-2.04,2.04,1.91,1.39,1.41,1.40,1.40
101.25,-0.62,-1.95,-0.62,-1.95,1.95,1.83,1.32,1.33,1.33,1.33
102.27,-0.60,-1.86,-0.60,-1.86,1.86,1.75,1.25,1.26,1.26,1.26
103.29,-0.59,-1.77,-0.59,-1.77,1.77,1.68,1.18,1.18,1.19,1.18
104.32,-0.57,-1.68,-0.57,-1.68,1.68,1.60,1.11,1.11,1.11,1.11
105.37,-0.55,-1.59,-0.56,-1.59,1.59,1.53,1.04,1.04,1.04,1.04
106.42,-0.55,-1.52,-0.54,-1.50,1.50,1.45,0.98,0.95,0.96,0.96
107.48,-0.53,-1.42,-0.53,-1.42,1.42,1.38,0.92,0.88,0.89,0.89
108.56,-0.52,-1.33,-0.52,-1.33,1.33,1.31,0.85,0.80,0.81,0.81
109.64,-0.50,-1.23,-0.51,-1.24,1.24,1.25,0.79,0.74,0.73,0.73
110.74,-0.49,-1.15,-0.49,-1.15,1.15,1.18,0.74,0.66,0.65,0.66
111.85,-0.48,-1.07,-0.48,-1.06,1.06,1.11,0.68,0.58,0.58,0.59
112.97,-0.47,-0.96,-0.47,-0.97,0.97,1.05,0.62,0.50,0.50,0.49
114.10,-0.47,-0.89,-0.46,-0.88,0.88,0.98,0.57,0.41,0.42,0.42
115.24,-0.45,-0.80,-0.45,-0.80,0.80,0.92,0.52,0.35,0.35,0.35
116.39,-0.44,-0.70,-0.45,-0.72,0.72,0.85,0.47,0.28,0.27,0.26
117.55,-0.44,-0.63,-0.44,-0.63,0.63,0.79,0.42,0.19,0.19,0.19
118.73,-0.43,-0.54,-0.43,-0.55,0.55,0.72,0.37,0.12,0.12,0.11
119.92,-0.42,-0.47,-0.43,-0.47,0.47,0.66,0.32,0.05,0.05,0.05
121.12,-0.42,-0.39,-0.42,-0.39,0.39,0.60,0.28,-0.03,-0.03,-0.03
122.33,-0.41,-0.31,-0.41,-0.31,0.31,0.54,0.24,-0.10,-0.10,-0.10
123.55,-0.41,-0.25,-0.41,-0.24,0.24,0.47,0.20,-0.17,-0.17,-0.16
124.79,-0.41,-0.18,-0.40,-0.16,0.16,0.41,0.16,-0.25,-0.24,-0.24
126.03,-0.40,-0.10,-0.40,-0.09,0.09,0.35,0.13,-0.31,-0.31,-0.30
127.29,-0.40,-0.03,-0.40,-0.02,0.02,0.28,0.09,-0.38,-0.37,-0.37
128.57,-0.39,0.06,-0.39,0.05,-0.05,0.22,0.06,-0.44,-0.44,-0.45
129.85,-0.38,0.13,-0.39,0.11,-0.11,0.16,0.03,-0.49,-0.50,-0.51
131.15,-0.38,0.18,-0.39,0.18,-0.18,0.09,0.00,-0.56,-0.56,-0.56
132.46,-0.38,0.25,-0.38,0.24,-0.24,0.03,-0.03,-0.62,-0.62,-0.63
133.79,-0.38,0.30,-0.38,0.30,-0.30,-0.03,-0.05,-0.68,-0.68,-0.68
135.12,-0.38,0.36,-0.38,0.36,-0.36,-0.10,-0.08,-0.74,-0.74,-0.74
136.48,-0.38,0.41,-0.38,0.41,-0.41,-0.16,-0.10,-0.79,-0.79,-0.79
137.84,-0.38,0.45,-0.38,0.46,-0.46,-0.23,-0.12,-0.84,-0.84,-0.83
139.22,-0.38,0.52,-0.37,0.51,-0.51,-0.29,-0.14,-0.89,-0.89,-0.90
140.61,-0.38,0.57,-0.37,0.56,-0.56,-0.36,-0.16,-0.94,-0.93,-0.95
142.02,-0.37,0.60,-0.37,0.60,-0.60,-0.42,-0.18,-0.97,-0.98,-0.97
143.44,-0.37,0.64,-0.37,0.64,-0.64,-0.49,-0.20,-1.01,-1.02,-1.01
144.87,-0.37,0.69,-0.37,0.68,-0.68,-0.55,-0.22,-1.05,-1.06,-1.06
146.32,-0.37,0.73,-0.37,0.72,-0.72,-0.61,-0.23,-1.09,-1.09,-1.10
147.78,-0.37,0.75,-0.37,0.76,-0.76,-0.68,-0.25,-1.13,-1.13,-1.13
149.26,-0.37,0.79,-0.38,0.79,-0.79,-0.74,-0.27,-1.16,-1.17,-1.16
150.75,-0.38,0.83,-0.38,0.83,-0.83,-0.80,-0.29,-1.21,-1.21,-1.21
152.26,-0.38,0.86,-0.38,0.86,-0.86,-0.87,-0.30,-1.24,-1.24,-1.24
153.78,-0.38,0.89,-0.39,0.89,-0.89,-0.93,-0.32,-1.27,-1.28,-1.28
155.32,-0.39,0.92,-0.39,0.92,-0.92,-0.99,-0.33,-1.31,-1.31,-1.31
156.88,-0.40,0.94,-0.40,0.95,-0.95,-1.04,-0.35,-1.35,-1.34,-1.34
158.44,-0.41,0.97,-0.40,0.97,-0.97,-1.10,-0.37,-1.39,-1.38,-1.38
160.03,-0.41,1.01,-0.41,1.00,-1.00,-1.15,-0.38,-1.41,-1.41,-1.42
161.63,-0.42,1.04,-0.42,1.03,-1.03,-1.20,-0.40,-1.45,-1.45,-1.46
163.24,-0.43,1.05,-0.43,1.05,-1.05,-1.25,-0.42,-1.49,-1.48,-1.49
164.88,-0.43,1.08,-0.44,1.08,-1.08,-1.30,-0.44,-1.51,-1.52,-1.51
166.53,-0.44,1.11,-0.45,1.11,-1.11,-1.34,-0.46,-1.55,-1.55,-1.55
168.19,-0.46,1.13,-0.46,1.13,-1.13,-1.38,-0.48,-1.59,-1.59,-1.59
169.87,-0.47,1.16,-0.47,1.16,-1.16,-1.42,-0.50,-1.63,-1.63,-1.63
171.57,-0.48,1.18,-0.48,1.19,-1.19,-1.45,-0.52,-1.67,-1.66,-1.66
173.29,-0.49,1.20,-0.49,1.21,-1.21,-1.48,-0.54,-1.70,-1.70,-1.69
175.02,-0.50,1.23,-0.50,1.24,-1.24,-1.50,-0.56,-1.74,-1.74,-1.73
176.77,-0.51,1.27,-0.52,1.27,-1.27,-1.52,-0.58,-1.78,-1.78,-1.78
178.54,-0.53,1.29,-0.53,1.29,-1.29,-1.54,-0.60,-1.82,-1.82,-1.82
180.32,-0.54,1.32,-0.54,1.32,-1.32,-1.55,-0.63,-1.86,-1.86,-1.86
182.13,-0.56,1.34,-0.56,1.34,-1.34,-1.55,-0.65,-1.90,-1.90,-1.90
183.95,-0.58,1.36,-0.58,1.36,-1.36,-1.56,-0.68,-1.94,-1.94,-1.95
185.79,-0.59,1.39,-0.59,1.39,-1.39,-1.56,-0.70,-1.98,-1.98,-1.98
187.65,-0.61,1.42,-0.61,1.41,-1.41,-1.55,-0.73,-2.02,-2.02,-2.03
189.52,-0.63,1.43,-0.63,1.42,-1.42,-1.54,-0.75,-2.05,-2.05,-2.06
191.42,-0.65,1.44,-0.65,1.44,-1.44,-1.53,-0.78,-2.09,-2.09,-2.10
193.33,-0.67,1.45,-0.67,1.45,-1.45,-1.51,-0.81,-2.12,-2.13,-2.12
195.27,-0.69,1.46,-0.69,1.46,-1.46,-1.50,-0.84,-2.16,-2.16,-2.15
197.22,-0.72,1.46,-0.72,1.47,-1.47,-1.47,-0.86,-2.19,-2.19,-2.18
199.19,-0.74,1.49,-0.74,1.48,-1.48,-1.45,-0.89,-2.22,-2.22,-2.23
201.18,-0.76,1.49,-0.77,1.48,-1.48,-1.42,-0.92,-2.24,-2.25,-2.25
203.19,-0.79,1.48,-0.79,1.49,-1.49,-1.40,-0.95,-2.28,-2.28,-2.27
205.23,-0.82,1.48,-0.82,1.49,-1.49,-1.37,-0.98,-2.31,-2.30,-2.30
207.28,-0.84,1.47,-0.84,1.48,-1.48,-1.33,-1.01,-2.32,-2.33,-2.31
209.35,-0.87,1.48,-0.87,1.48,-1.48,-1.30,-1.04,-2.35,-2.35,-2.35
211.44,-0.89,1.49,-0.90,1.47,-1.47,-1.27,-1.06,-2.37,-2.37,-2.38
213.56,-0.92,1.47,-0.92,1.47,-1.47,-1.24,-1.09,-2.39,-2.39,-2.39
215.69,-0.95,1.45,-0.95,1.46,-1.46,-1.20,-1.12,-2.41,-2.41,-2.40
217.85,-0.98,1.43,-0.98,1.44,-1.44,-1.17,-1.15,-2.42,-2.42,-2.41
220.03,-1.00,1.44,-1.01,1.43,-1.43,-1.13,-1.17,-2.43,-2.43,-2.44
222.23,-1.03,1.42,-1.03,1.41,-1.41,-1.10,-1.19,-2.44,-2.44,-2.45
224.45,-1.06,1.39,-1.06,1.39,-1.39,-1.06,-1.22,-2.45,-2.45,-2.45
226.70,-1.09,1.37,-1.09,1.37,-1.37,-1.03,-1.24,-2.46,-2.46,-2.46
228.96,-1.11,1.35,-1.11,1.35,-1.35,-1.00,-1.26,-2.46,-2.46,-2.46
231.25,-1.14,1.32,-1.14,1.32,-1.32,-0.96,-1.27,-2.46,-2.46,-2.46
233.57,-1.17,1.28,-1.16,1.29,-1.29,-0.93,-1.29,-2.46,-2.46,-2.45
235.90,-1.19,1.26,-1.19,1.26,-1.26,-0.90,-1.30,-2.45,-2.45,-2.45
238.26,-1.21,1.24,-1.21,1.23,-1.23,-0.87,-1.31,-2.45,-2.44,-2.45
240.64,-1.23,1.20,-1.23,1.21,-1.21,-0.84,-1.32,-2.44,-2.43,-2.43
243.05,-1.25,1.17,-1.25,1.17,-1.17,-0.81,-1.33,-2.43,-2.42,-2.42
245.48,-1.27,1.13,-1.26,1.14,-1.14,-0.78,-1.33,-2.41,-2.41,-2.40
247.93,-1.28,1.11,-1.28,1.11,-1.11,-0.75,-1.33,-2.39,-2.39,-2.39
250.41,-1.29,1.09,-1.30,1.08,-1.08,-0.73,-1.33,-2.37,-2.38,-2.38
252.92,-1.31,1.04,-1.31,1.05,-1.05,-0.70,-1.32,-2.36,-2.36,-2.35
255.45,-1.33,1.00,-1.32,1.01,-1.01,-0.68,-1.31,-2.34,-2.34,-2.33
258.00,-1.34,0.97,-1.34,0.98,-0.98,-0.65,-1.30,-2.32,-2.32,-2.31
260.58,-1.34,0.96,-1.35,0.94,-0.94,-0.63,-1.29,-2.29,-2.30,-2.30
263.19,-1.36,0.91,-1.36,0.91,-0.91,-0.60,-1.28,-2.27,-2.27,-2.28
265.82,-1.37,0.88,-1.38,0.87,-0.87,-0.58,-1.26,-2.24,-2.25,-2.25
268.48,-1.39,0.84,-1.39,0.84,-0.84,-0.56,-1.24,-2.23,-2.23,-2.23
271.16,-1.40,0.80,-1.40,0.80,-0.80,-0.54,-1.21,-2.20,-2.21,-2.20
273.87,-1.42,0.76,-1.42,0.77,-0.77,-0.52,-1.19,-2.19,-2.18,-2.18
276.61,-1.43,0.72,-1.43,0.73,-0.73,-0.50,-1.16,-2.16,-2.16,-2.15
279.38,-1.44,0.70,-1.44,0.69,-0.69,-0.49,-1.13,-2.13,-2.14,-2.14
282.17,-1.46,0.65,-1.46,0.66,-0.66,-0.47,-1.10,-2.12,-2.11,-2.11
284.99,-1.47,0.62,-1.47,0.62,-0.62,-0.45,-1.07,-2.09,-2.09,-2.09
287.84,-1.48,0.58,-1.48,0.58,-0.58,-0.44,-1.04,-2.06,-2.06,-2.06
290.72,-1.49,0.54,-1.49,0.54,-0.54,-0.42,-1.00,-2.03,-2.03,-2.03
293.63,-1.50,0.51,-1.50,0.51,-0.51,-0.41,-0.97,-2.01,-2.01,-2.02
296.57,-1.51,0.47,-1.51,0.47,-0.47,-0.39,-0.93,-1.98,-1.98,-1.98
299.53,-1.51,0.44,-1.51,0.44,-0.44,-0.38,-0.89,-1.95,-1.95,-1.96
302.53,-1.52,0.41,-1.52,0.40,-0.40,-0.36,-0.86,-1.92,-1.92,-1.93
305.55,-1.53,0.35,-1.52,0.37,-0.37,-0.35,-0.82,-1.90,-1.89,-1.88
308.61,-1.52,0.34,-1.53,0.33,-0.33,-0.34,-0.78,-1.85,-1.86,-1.86
311.69,-1.53,0.29,-1.53,0.29,-0.29,-0.33,-0.74,-1.83,-1.83,-1.82
314.81,-1.53,0.26,-1.53,0.26,-0.26,-0.32,-0.70,-1.79,-1.80,-1.79
317.96,-1.54,0.22,-1.54,0.23,-0.23,-0.31,-0.66,-1.77,-1.76,-1.76
321.14,-1.54,0.19,-1.54,0.19,-0.19,-0.30,-0.62,-1.73,-1.73,-1.73
324.35,-1.54,0.17,-1.55,0.16,-0.16,-0.29,-0.58,-1.70,-1.71,-1.71
327.59,-1.55,0.12,-1.55,0.12,-0.12,-0.28,-0.54,-1.68,-1.68,-1.67
330.87,-1.55,0.09,-1.56,0.09,-0.09,-0.27,-0.50,-1.64,-1.65,-1.64
334.18,-1.56,0.07,-1.56,0.06,-0.06,-0.26,-0.47,-1.62,-1.62,-1.63
337.52,-1.56,0.04,-1.57,0.03,-0.03,-0.25,-0.43,-1.59,-1.60,-1.60
340.90,-1.57,0.00,-1.58,0.00,-0.00,-0.24,-0.39,-1.57,-1.58,-1.57
344.30,-1.58,-0.02,-1.58,-0.03,0.03,-0.23,-0.35,-1.55,-1.56,-1.56
347.75,-1.59,-0.06,-1.59,-0.05,0.05,-0.23,-0.31,-1.54,-1.53,-1.53
351.23,-1.59,-0.08,-1.59,-0.08,0.08,-0.22,-0.27,-1.52,-1.51,-1.51
354.74,-1.60,-0.11,-1.59,-0.10,0.10,-0.21,-0.23,-1.50,-1.49,-1.49
358.28,-1.60,-0.12,-1.59,-0.12,0.12,-0.21,-0.20,-1.48,-1.48,-1.48
361.87,-1.60,-0.14,-1.59,-0.14,0.14,-0.20,-0.16,-1.46,-1.46,-1.46
365.49,-1.59,-0.16,-1.59,-0.15,0.15,-0.19,-0.12,-1.44,-1.44,-1.43
369.14,-1.59,-0.17,-1.59,-0.17,0.17,-0.19,-0.08,-1.42,-1.42,-1.42
372.83,-1.58,-0.18,-1.58,-0.18,0.18,-0.18,-0.05,-1.40,-1.40,-1.41
376.56,-1.57,-0.18,-1.57,-0.19,0.19,-0.18,-0.01,-1.38,-1.38,-1.39
380.33,-1.56,-0.20,-1.56,-0.20,0.20,-0.17,0.03,-1.36,-1.36,-1.36
384.13,-1.55,-0.21,-1.55,-0.21,0.21,-0.17,0.06,-1.34,-1.34,-1.34
387.97,-1.54,-0.22,-1.54,-0.22,0.22,-0.16,0.10,-1.32,-1.32,-1.32
391.85,-1.53,-0.23,-1.53,-0.23,0.23,-0.16,0.13,-1.30,-1.30,-1.30
395.77,-1.51,-0.23,-1.51,-0.23,0.23,-0.15,0.17,-1.28,-1.28,-1.28
399.73,-1.49,-0.23,-1.50,-0.24,0.24,-0.15,0.20,-1.25,-1.26,-1.26
403.72,-1.48,-0.24,-1.48,-0.24,0.24,-0.14,0.24,-1.24,-1.24,-1.24
407.76,-1.47,-0.25,-1.46,-0.24,0.24,-0.14,0.27,-1.23,-1.22,-1.22
411.84,-1.45,-0.26,-1.44,-0.24,0.24,-0.14,0.30,-1.21,-1.20,-1.19
415.96,-1.42,-0.25,-1.42,-0.25,0.25,-0.13,0.33,-1.18,-1.17,-1.17
420.12,-1.40,-0.25,-1.40,-0.24,0.24,-0.13,0.37,-1.16,-1.15,-1.15
424.32,-1.38,-0.25,-1.37,-0.24,0.24,-0.13,0.40,-1.14,-1.13,-1.13
428.56,-1.36,-0.25,-1.35,-0.25,0.25,-0.12,0.43,-1.12,-1.11,-1.11
432.85,-1.33,-0.24,-1.33,-0.25,0.25,-0.12,0.46,-1.09,-1.08,-1.09
437.18,-1.30,-0.24,-1.31,-0.25,0.25,-0.12,0.49,-1.05,-1.06,-1.06
441.55,-1.27,-0.24,-1.29,-0.25,0.25,-0.11,0.51,-1.02,-1.03,-1.03
445.96,-1.25,-0.24,-1.27,-0.26,0.26,-0.11,0.54,-0.99,-1.01,-1.01
450.42,-1.23,-0.24,-1.25,-0.26,0.26,-0.11,0.56,-0.97,-0.98,-0.99
454.93,-1.22,-0.27,-1.23,-0.27,0.27,-0.11,0.59,-0.95,-0.96,-0.95
