frequency,raw,error,smoothed,error_smoothed,equalization,parametric_eq,fixed_band_eq,equalized_raw,equalized_smoothed,target
20.00,-9.19,-14.09,-9.19,-14.11,14.11,13.41,5.14,4.92,4.92,4.90
20.20,-9.12,-14.02,-9.13,-14.04,14.04,13.50,5.27,4.92,4.91,4.90
20.40,-9.07,-13.97,-9.07,-13.97,13.97,13.59,5.40,4.90,4.90,4.90
20.61,-9.00,-13.90,-9.00,-13.90,13.90,13.66,5.54,4.90,4.90,4.90
20.81,-8.93,-13.83,-8.94,-13.82,13.82,13.72,5.68,4.89,4.89,4.90
21.02,-8.88,-13.78,-8.87,-13.75,13.75,13.76,5.83,4.87,4.87,4.90
21.23,-8.81,-13.69,-8.81,-13.67,13.67,13.79,5.97,4.86,4.86,4.88
21.44,-8.74,-13.61,-8.74,-13.59,13.59,13.80,6.13,4.85,4.85,4.87
21.66,-8.68,-13.53,-8.68,-13.51,13.51,13.80,6.29,4.83,4.84,4.85
21.87,-8.62,-13.45,-8.61,-13.43,13.43,13.78,6.45,4.81,4.82,4.83
22.09,-8.54,-13.36,-8.54,-13.35,13.35,13.75,6.62,4.81,4.81,4.82
22.31,-8.47,-13.26,-8.47,-13.26,13.26,13.70,6.79,4.79,4.79,4.79
22.54,-8.41,-13.18,-8.41,-13.17,13.17,13.64,6.96,4.76,4.77,4.77
22.76,-8.33,-13.08,-8.34,-13.08,13.08,13.57,7.14,4.75,4.74,4.75
22.99,-8.26,-12.98,-8.27,-12.99,12.99,13.49,7.33,4.73,4.72,4.72
23.22,-8.20,-12.89,-8.20,-12.89,12.89,13.39,7.52,4.69,4.70,4.69
23.45,-8.12,-12.78,-8.12,-12.80,12.80,13.29,7.72,4.68,4.68,4.66
23.69,-8.05,-12.70,-8.05,-12.71,12.71,13.17,7.92,4.65,4.65,4.65
23.92,-7.98,-12.61,-7.98,-12.61,12.61,13.05,8.12,4.63,4.63,4.63
24.16,-7.90,-12.52,-7.91,-12.52,12.52,12.93,8.33,4.62,4.61,4.62
24.40,-7.84,-12.44,-7.83,-12.43,12.43,12.79,8.55,4.59,4.60,4.60
24.65,-7.76,-12.34,-7.76,-12.34,12.34,12.66,8.77,4.57,4.58,4.58
24.89,-7.69,-12.25,-7.68,-12.24,12.24,12.52,9.00,4.55,4.56,4.56
25.14,-7.61,-12.16,-7.61,-12.15,12.15,12.38,9.23,4.54,4.54,4.55
25.39,-7.53,-12.06,-7.53,-12.06,12.06,12.23,9.46,4.53,4.53,4.53
25.65,-7.45,-11.97,-7.46,-11.97,11.97,12.08,9.70,4.52,4.51,4.52
25.91,-7.38,-11.87,-7.38,-11.87,11.87,11.94,9.94,4.49,4.49,4.49
26.16,-7.30,-11.78,-7.30,-11.78,11.78,11.79,10.19,4.48,4.48,4.48
26.43,-7.22,-11.69,-7.22,-11.68,11.68,11.64,10.44,4.46,4.46,4.47
26.69,-7.14,-11.58,-7.14,-11.59,11.59,11.50,10.69,4.45,4.45,4.44
26.96,-7.06,-11.49,-7.06,-11.49,11.49,11.35,10.94,4.43,4.43,4.43
27.23,-6.98,-11.40,-6.98,-11.39,11.39,11.21,11.19,4.41,4.42,4.42
27.50,-6.90,-11.31,-6.90,-11.30,11.30,11.07,11.44,4.40,4.40,4.41
27.77,-6.81,-11.20,-6.81,-11.20,11.20,10.93,11.69,4.39,4.39,4.39
28.05,-6.73,-11.11,-6.73,-11.11,11.11,10.79,11.93,4.38,4.37,4.38
28.33,-6.65,-11.01,-6.65,-11.01,11.01,10.66,12.17,4.36,4.36,4.36
28.62,-6.56,-10.91,-6.57,-10.91,10.91,10.53,12.39,4.35,4.35,4.35
28.90,-6.48,-10.81,-6.48,-10.82,10.82,10.40,12.61,4.34,4.33,4.33
29.19,-6.41,-10.72,-6.40,-10.72,10.72,10.28,12.81,4.31,4.32,4.31
29.48,-6.32,-10.63,-6.32,-10.63,10.63,10.16,12.99,4.31,4.31,4.31
29.78,-6.24,-10.54,-6.24,-10.54,10.54,10.04,13.16,4.29,4.29,4.30
30.08,-6.16,-10.45,-6.16,-10.44,10.44,9.92,13.30,4.28,4.28,4.29
30.38,-6.08,-10.35,-6.08,-10.35,10.35,9.81,13.41,4.27,4.26,4.27
30.68,-6.00,-10.26,-6.01,-10.26,10.26,9.71,13.50,4.26,4.25,4.26
30.99,-5.92,-10.15,-5.93,-10.17,10.17,9.60,13.56,4.24,4.23,4.23
31.30,-5.85,-10.07,-5.86,-10.07,10.07,9.50,13.59,4.22,4.22,4.22
31.61,-5.78,-9.99,-5.78,-9.98,9.98,9.40,13.59,4.20,4.20,4.21
31.93,-5.71,-9.90,-5.71,-9.89,9.89,9.31,13.56,4.18,4.18,4.19
32.24,-5.65,-9.81,-5.64,-9.80,9.80,9.22,13.50,4.16,4.16,4.16
32.57,-5.57,-9.71,-5.57,-9.72,9.72,9.13,13.42,4.14,4.14,4.14
32.89,-5.51,-9.64,-5.50,-9.62,9.62,9.05,13.30,4.11,4.12,4.13
33.22,-5.43,-9.53,-5.43,-9.54,9.54,8.97,13.17,4.11,4.10,4.10
33.55,-5.37,-9.46,-5.37,-9.45,9.45,8.89,13.01,4.08,4.08,4.09
33.89,-5.30,-9.36,-5.30,-9.36,9.36,8.82,12.84,4.06,4.06,4.06
34.23,-5.23,-9.27,-5.23,-9.27,9.27,8.75,12.65,4.04,4.04,4.04
34.57,-5.16,-9.18,-5.17,-9.19,9.19,8.68,12.45,4.03,4.02,4.02
34.92,-5.10,-9.10,-5.10,-9.10,9.10,8.62,12.24,4.00,4.00,4.00
35.27,-5.03,-9.01,-5.03,-9.01,9.01,8.56,12.03,3.98,3.98,3.98
35.62,-4.97,-8.93,-4.97,-8.92,8.92,8.50,11.81,3.95,3.96,3.96
35.97,-4.90,-8.84,-4.90,-8.84,8.84,8.44,11.59,3.94,3.94,3.94
36.33,-4.83,-8.75,-4.84,-8.75,8.75,8.39,11.36,3.92,3.92,3.92
36.70,-4.78,-8.68,-4.77,-8.67,8.67,8.34,11.14,3.89,3.90,3.90
37.06,-4.71,-8.59,-4.71,-8.58,8.58,8.29,10.91,3.87,3.88,3.88
37.43,-4.64,-8.50,-4.64,-8.50,8.50,8.24,10.69,3.86,3.85,3.86
37.81,-4.58,-8.42,-4.58,-8.41,8.41,8.19,10.47,3.83,3.83,3.84
38.19,-4.51,-8.32,-4.52,-8.33,8.33,8.15,10.26,3.82,3.81,3.81
38.57,-4.45,-8.25,-4.45,-8.25,8.25,8.10,10.05,3.80,3.79,3.80
38.95,-4.39,-8.16,-4.39,-8.16,8.16,8.06,9.84,3.77,3.77,3.77
39.34,-4.33,-8.08,-4.33,-8.08,8.08,8.02,9.64,3.75,3.75,3.75
39.74,-4.27,-8.00,-4.27,-8.01,8.01,7.98,9.45,3.73,3.73,3.73
40.14,-4.21,-7.93,-4.21,-7.93,7.93,7.94,9.26,3.71,3.72,3.72
40.54,-4.15,-7.85,-4.15,-7.85,7.85,7.90,9.07,3.70,3.70,3.70
40.94,-4.09,-7.77,-4.09,-7.77,7.77,7.85,8.89,3.68,3.68,3.68
41.35,-4.04,-7.69,-4.03,-7.69,7.69,7.81,8.72,3.65,3.66,3.65
41.76,-3.97,-7.62,-3.98,-7.62,7.62,7.77,8.55,3.65,3.64,3.65
42.18,-3.92,-7.55,-3.92,-7.54,7.54,7.72,8.39,3.62,3.62,3.63
42.60,-3.87,-7.48,-3.86,-7.47,7.47,7.68,8.24,3.60,3.60,3.61
43.03,-3.81,-7.41,-3.81,-7.39,7.39,7.63,8.09,3.58,3.58,3.60
43.46,-3.75,-7.32,-3.75,-7.32,7.32,7.58,7.94,3.57,3.57,3.57
43.90,-3.69,-7.24,-3.70,-7.25,7.25,7.53,7.81,3.55,3.55,3.55
44.33,-3.64,-7.17,-3.64,-7.17,7.17,7.48,7.67,3.53,3.53,3.53
44.78,-3.59,-7.10,-3.59,-7.10,7.10,7.42,7.55,3.51,3.51,3.51
45.23,-3.54,-7.02,-3.54,-7.03,7.03,7.36,7.42,3.49,3.49,3.48
45.68,-3.49,-6.95,-3.49,-6.96,6.96,7.30,7.31,3.47,3.47,3.46
46.13,-3.43,-6.88,-3.43,-6.89,6.89,7.24,7.20,3.46,3.45,3.45
46.60,-3.38,-6.82,-3.38,-6.82,6.82,7.17,7.09,3.43,3.43,3.44
47.06,-3.33,-6.75,-3.33,-6.75,6.75,7.11,6.99,3.41,3.41,3.42
47.53,-3.28,-6.68,-3.29,-6.68,6.68,7.03,6.89,3.39,3.39,3.40
48.01,-3.24,-6.63,-3.24,-6.61,6.61,6.96,6.80,3.37,3.37,3.39
48.49,-3.19,-6.55,-3.19,-6.54,6.54,6.88,6.71,3.35,3.35,3.36
48.97,-3.14,-6.47,-3.14,-6.47,6.47,6.80,6.62,3.33,3.33,3.33
49.46,-3.10,-6.40,-3.10,-6.40,6.40,6.72,6.54,3.30,3.31,3.30
49.96,-3.06,-6.33,-3.05,-6.34,6.34,6.64,6.46,3.27,3.28,3.27
50.46,-3.00,-6.26,-3.01,-6.27,6.27,6.55,6.39,3.27,3.26,3.26
50.96,-2.96,-6.20,-2.96,-6.20,6.20,6.46,6.32,3.24,3.24,3.24
51.47,-2.92,-6.13,-2.92,-6.13,6.13,6.37,6.25,3.21,3.21,3.21
51.99,-2.87,-6.06,-2.87,-6.06,6.06,6.28,6.19,3.19,3.19,3.19
52.51,-2.83,-6.00,-2.83,-5.99,5.99,6.19,6.13,3.16,3.16,3.17
53.03,-2.79,-5.94,-2.79,-5.93,5.93,6.10,6.06,3.14,3.14,3.15
53.56,-2.74,-5.86,-2.74,-5.86,5.86,6.01,6.01,3.12,3.12,3.12
54.10,-2.69,-5.79,-2.70,-5.79,5.79,5.91,5.95,3.10,3.09,3.10
54.64,-2.66,-5.73,-2.65,-5.72,5.72,5.82,5.89,3.06,3.07,3.07
55.18,-2.61,-5.66,-2.61,-5.66,5.66,5.73,5.84,3.04,3.05,3.05
55.74,-2.56,-5.58,-2.56,-5.59,5.59,5.63,5.78,3.03,3.02,3.02
56.29,-2.52,-5.52,-2.52,-5.52,5.52,5.54,5.73,3.00,3.00,3.00
56.86,-2.48,-5.45,-2.48,-5.45,5.45,5.45,5.67,2.97,2.98,2.97
57.42,-2.43,-5.38,-2.44,-5.39,5.39,5.36,5.62,2.96,2.95,2.95
58.00,-2.39,-5.32,-2.39,-5.32,5.32,5.27,5.56,2.93,2.93,2.93
58.58,-2.35,-5.25,-2.35,-5.25,5.25,5.18,5.50,2.90,2.90,2.90
59.16,-2.30,-5.18,-2.31,-5.18,5.18,5.10,5.44,2.88,2.87,2.88
59.76,-2.27,-5.13,-2.27,-5.11,5.11,5.02,5.38,2.84,2.85,2.86
60.35,-2.22,-5.05,-2.22,-5.04,5.04,4.93,5.32,2.82,2.82,2.83
60.96,-2.19,-5.00,-2.18,-4.98,4.98,4.86,5.26,2.79,2.79,2.81
61.57,-2.14,-4.91,-2.14,-4.91,4.91,4.78,5.19,2.77,2.77,2.77
62.18,-2.10,-4.84,-2.10,-4.84,4.84,4.70,5.12,2.74,2.74,2.74
62.80,-2.05,-4.76,-2.06,-4.77,4.77,4.63,5.05,2.72,2.71,2.71
63.43,-2.02,-4.70,-2.02,-4.71,4.71,4.57,4.97,2.69,2.69,2.68
64.07,-1.98,-4.63,-1.98,-4.64,4.64,4.50,4.89,2.66,2.66,2.65
64.71,-1.94,-4.57,-1.94,-4.57,4.57,4.44,4.81,2.63,2.63,2.63
65.35,-1.90,-4.51,-1.90,-4.51,4.51,4.38,4.73,2.61,2.61,2.61
66.01,-1.86,-4.45,-1.86,-4.44,4.44,4.32,4.64,2.58,2.58,2.59
66.67,-1.82,-4.38,-1.82,-4.38,4.38,4.26,4.56,2.56,2.56,2.56
67.33,-1.77,-4.31,-1.78,-4.31,4.31,4.21,4.46,2.54,2.53,2.54
68.01,-1.74,-4.25,-1.74,-4.25,4.25,4.16,4.37,2.51,2.51,2.51
68.69,-1.70,-4.19,-1.70,-4.19,4.19,4.11,4.28,2.49,2.48,2.49
69.37,-1.67,-4.13,-1.67,-4.12,4.12,4.07,4.18,2.45,2.46,2.46
70.07,-1.63,-4.06,-1.63,-4.06,4.06,4.02,4.09,2.43,2.43,2.43
70.77,-1.59,-4.00,-1.59,-3.99,3.99,3.98,3.99,2.40,2.40,2.41
71.48,-1.55,-3.93,-1.55,-3.93,3.93,3.93,3.89,2.38,2.37,2.38
72.19,-1.52,-3.87,-1.52,-3.86,3.86,3.89,3.79,2.34,2.34,2.35
72.91,-1.48,-3.79,-1.49,-3.79,3.79,3.84,3.69,2.31,2.31,2.31
73.64,-1.45,-3.73,-1.45,-3.73,3.73,3.79,3.59,2.28,2.28,2.28
74.38,-1.42,-3.67,-1.42,-3.66,3.66,3.74,3.48,2.24,2.24,2.25
75.12,-1.38,-3.58,-1.39,-3.59,3.59,3.68,3.38,2.21,2.21,2.20
75.87,-1.35,-3.52,-1.35,-3.52,3.52,3.62,3.28,2.17,2.17,2.17
76.63,-1.32,-3.46,-1.32,-3.45,3.45,3.56,3.18,2.13,2.13,2.14
77.40,-1.29,-3.39,-1.29,-3.38,3.38,3.49,3.08,2.09,2.09,2.10
78.17,-1.26,-3.30,-1.26,-3.31,3.31,3.42,2.98,2.05,2.05,2.04
78.95,-1.23,-3.25,-1.23,-3.24,3.24,3.34,2.88,2.01,2.01,2.02
79.74,-1.20,-3.18,-1.20,-3.17,3.17,3.26,2.78,1.97,1.97,1.98
80.54,-1.17,-3.10,-1.17,-3.09,3.09,3.18,2.69,1.92,1.93,1.93
81.35,-1.13,-3.02,-1.14,-3.02,3.02,3.09,2.59,1.89,1.88,1.89
82.16,-1.10,-2.94,-1.11,-2.95,2.95,3.00,2.50,1.85,1.84,1.84
82.98,-1.08,-2.88,-1.08,-2.88,2.88,2.91,2.40,1.79,1.79,1.80
83.81,-1.05,-2.79,-1.05,-2.80,2.80,2.82,2.31,1.75,1.75,1.74
84.65,-1.03,-2.73,-1.03,-2.73,2.73,2.73,2.22,1.70,1.70,1.70
85.50,-1.00,-2.66,-1.00,-2.65,2.65,2.63,2.13,1.65,1.65,1.66
86.35,-0.97,-2.58,-0.97,-2.58,2.58,2.54,2.04,1.61,1.60,1.61
87.22,-0.95,-2.51,-0.95,-2.50,2.50,2.45,1.95,1.55,1.56,1.56
88.09,-0.92,-2.42,-0.92,-2.43,2.43,2.36,1.86,1.51,1.51,1.50
88.97,-0.89,-2.35,-0.90,-2.35,2.35,2.27,1.77,1.46,1.46,1.46
89.86,-0.87,-2.28,-0.87,-2.28,2.28,2.18,1.69,1.41,1.40,1.41
90.76,-0.85,-2.20,-0.85,-2.20,2.20,2.09,1.60,1.35,1.35,1.35
91.66,-0.82,-2.12,-0.82,-2.12,2.12,2.01,1.52,1.30,1.30,1.30
92.58,-0.80,-2.04,-0.80,-2.05,2.05,1.93,1.44,1.25,1.25,1.24
93.51,-0.78,-1.98,-0.78,-1.97,1.97,1.85,1.36,1.19,1.19,1.20
94.44,-0.75,-1.90,-0.75,-1.89,1.89,1.77,1.28,1.14,1.14,1.15
95.39,-0.73,-1.82,-0.73,-1.81,1.81,1.69,1.20,1.08,1.08,1.09
96.34,-0.71,-1.73,-0.71,-1.73,1.73,1.62,1.12,1.02,1.02,1.02
97.30,-0.69,-1.66,-0.69,-1.66,1.66,1.54,1.04,0.97,0.97,0.97
98.28,-0.67,-1.58,-0.67,-1.58,1.58,1.47,0.97,0.91,0.91,0.91
99.26,-0.65,-1.49,-0.65,-1.50,1.50,1.40,0.89,0.85,0.85,0.84
100.25,-0.63,-1.42,-0.64,-1.42,1.42,1.33,0.82,0.79,0.78,0.79
101.25,-0.62,-1.35,-0.62,-1.34,1.34,1.26,0.74,0.72,0.72,0.73
102.27,-0.60,-1.26,-0.60,-1.26,1.26,1.20,0.67,0.66,0.66,0.66
103.29,-0.59,-1.18,-0.59,-1.18,1.18,1.13,0.60,0.59,0.60,0.59
104.32,-0.57,-1.11,-0.57,-1.11,1.11,1.07,0.53,0.53,0.53,0.54
105.37,-0.55,-1.03,-0.56,-1.03,1.03,1.01,0.47,0.48,0.47,0.48
106.42,-0.55,-0.96,-0.54,-0.95,0.95,0.94,0.40,0.40,0.40,0.41
107.48,-0.53,-0.87,-0.53,-0.87,0.87,0.88,0.33,0.34,0.34,0.34
108.56,-0.52,-0.79,-0.52,-0.79,0.79,0.82,0.27,0.27,0.27,0.27
109.64,-0.50,-0.71,-0.51,-0.71,0.71,0.76,0.21,0.21,0.21,0.21
110.74,-0.49,-0.64,-0.49,-0.63,0.63,0.70,0.15,0.14,0.14,0.15
111.85,-0.48,-0.56,-0.48,-0.55,0.55,0.64,0.09,0.07,0.07,0.08
112.97,-0.47,-0.47,-0.47,-0.47,0.47,0.59,0.04,0.00,0.00,-0.00
114.10,-0.47,-0.41,-0.46,-0.40,0.40,0.53,-0.02,-0.07,-0.06,-0.06
115.24,-0.45,-0.32,-0.45,-0.32,0.32,0.47,-0.07,-0.13,-0.13,-0.13
116.39,-0.44,-0.24,-0.45,-0.25,0.25,0.41,-0.12,-0.19,-0.20,-0.20
117.55,-0.44,-0.17,-0.44,-0.18,0.18,0.35,-0.17,-0.26,-0.26,-0.27
118.73,-0.43,-0.10,-0.43,-0.10,0.10,0.30,-0.21,-0.33,-0.33,-0.33
119.92,-0.42,-0.03,-0.43,-0.03,0.03,0.24,-0.25,-0.39,-0.39,-0.39
121.12,-0.42,0.03,-0.42,0.03,-0.03,0.18,-0.29,-0.46,-0.45,-0.45
122.33,-0.41,0.11,-0.41,0.10,-0.10,0.12,-0.33,-0.51,-0.52,-0.52
123.55,-0.41,0.16,-0.41,0.17,-0.17,0.06,-0.37,-0.58,-0.58,-0.57
124.79,-0.41,0.22,-0.40,0.23,-0.23,0.01,-0.40,-0.64,-0.64,-0.63
126.03,-0.40,0.28,-0.40,0.30,-0.30,-0.05,-0.43,-0.70,-0.69,-0.68
127.29,-0.40,0.34,-0.40,0.36,-0.36,-0.11,-0.45,-0.76,-0.75,-0.74
128.57,-0.39,0.42,-0.39,0.41,-0.41,-0.17,-0.48,-0.81,-0.81,-0.81
129.85,-0.38,0.48,-0.39,0.47,-0.47,-0.23,-0.50,-0.85,-0.86,-0.86
131.15,-0.38,0.53,-0.39,0.53,-0.53,-0.29,-0.52,-0.91,-0.91,-0.91
132.46,-0.38,0.59,-0.38,0.58,-0.58,-0.35,-0.54,-0.96,-0.96,-0.97
133.79,-0.38,0.63,-0.38,0.63,-0.63,-0.41,-0.55,-1.01,-1.01,-1.01
135.12,-0.38,0.69,-0.38,0.68,-0.68,-0.47,-0.57,-1.06,-1.06,-1.07
136.48,-0.38,0.72,-0.38,0.72,-0.72,-0.53,-0.58,-1.11,-1.10,-1.10
137.84,-0.38,0.76,-0.38,0.77,-0.77,-0.59,-0.59,-1.15,-1.14,-1.14
139.22,-0.38,0.81,-0.37,0.81,-0.81,-0.65,-0.60,-1.19,-1.18,-1.19
140.61,-0.38,0.85,-0.37,0.85,-0.85,-0.71,-0.60,-1.23,-1.22,-1.23
142.02,-0.37,0.88,-0.37,0.88,-0.88,-0.77,-0.61,-1.25,-1.26,-1.25
143.44,-0.37,0.91,-0.37,0.92,-0.92,-0.83,-0.61,-1.29,-1.29,-1.28
144.87,-0.37,0.95,-0.37,0.95,-0.95,-0.89,-0.62,-1.32,-1.32,-1.32
146.32,-0.37,0.98,-0.37,0.98,-0.98,-0.95,-0.62,-1.35,-1.35,-1.35
147.78,-0.37,1.00,-0.37,1.00,-1.00,-1.00,-0.62,-1.38,-1.38,-1.37
149.26,-0.37,1.03,-0.38,1.03,-1.03,-1.06,-0.62,-1.40,-1.41,-1.40
150.75,-0.38,1.06,-0.38,1.06,-1.06,-1.12,-0.63,-1.44,-1.44,-1.44
152.26,-0.38,1.08,-0.38,1.08,-1.08,-1.17,-0.63,-1.46,-1.46,-1.46
153.78,-0.38,1.11,-0.39,1.11,-1.11,-1.22,-0.63,-1.49,-1.49,-1.49
155.32,-0.39,1.12,-0.39,1.13,-1.13,-1.27,-0.63,-1.52,-1.52,-1.51
156.88,-0.40,1.14,-0.40,1.15,-1.15,-1.32,-0.63,-1.55,-1.55,-1.54
158.44,-0.41,1.16,-0.40,1.17,-1.17,-1.37,-0.63,-1.58,-1.57,-1.57
160.03,-0.41,1.19,-0.41,1.19,-1.19,-1.41,-0.63,-1.60,-1.60,-1.60
161.63,-0.42,1.21,-0.42,1.21,-1.21,-1.45,-0.63,-1.63,-1.63,-1.63
163.24,-0.43,1.23,-0.43,1.23,-1.23,-1.49,-0.64,-1.66,-1.65,-1.66
164.88,-0.43,1.25,-0.44,1.25,-1.25,-1.52,-0.64,-1.68,-1.68,-1.68
166.53,-0.44,1.26,-0.45,1.27,-1.27,-1.55,-0.64,-1.71,-1.71,-1.70
168.19,-0.46,1.28,-0.46,1.28,-1.28,-1.58,-0.65,-1.75,-1.74,-1.74
169.87,-0.47,1.30,-0.47,1.30,-1.30,-1.60,-0.65,-1.78,-1.77,-1.77
171.57,-0.48,1.32,-0.48,1.33,-1.33,-1.62,-0.65,-1.81,-1.80,-1.80
173.29,-0.49,1.33,-0.49,1.35,-1.35,-1.64,-0.66,-1.84,-1.84,-1.82
175.02,-0.50,1.36,-0.50,1.37,-1.37,-1.65,-0.67,-1.87,-1.87,-1.86
176.77,-0.51,1.39,-0.52,1.39,-1.39,-1.66,-0.67,-1.90,-1.90,-1.90
178.54,-0.53,1.41,-0.53,1.41,-1.41,-1.66,-0.68,-1.94,-1.94,-1.94
180.32,-0.54,1.43,-0.54,1.43,-1.43,-1.66,-0.69,-1.97,-1.97,-1.97
182.13,-0.56,1.44,-0.56,1.45,-1.45,-1.65,-0.70,-2.01,-2.01,-2.00
183.95,-0.58,1.46,-0.58,1.47,-1.47,-1.65,-0.71,-2.05,-2.04,-2.04
185.79,-0.59,1.49,-0.59,1.48,-1.48,-1.63,-0.72,-2.07,-2.08,-2.08
187.65,-0.61,1.51,-0.61,1.50,-1.50,-1.62,-0.73,-2.11,-2.11,-2.12
189.52,-0.63,1.52,-0.63,1.51,-1.51,-1.60,-0.74,-2.14,-2.14,-2.15
191.42,-0.65,1.52,-0.65,1.52,-1.52,-1.58,-0.75,-2.17,-2.17,-2.17
193.33,-0.67,1.52,-0.67,1.53,-1.53,-1.56,-0.76,-2.20,-2.20,-2.19
195.27,-0.69,1.53,-0.69,1.54,-1.54,-1.53,-0.78,-2.23,-2.23,-2.22
197.22,-0.72,1.53,-0.72,1.54,-1.54,-1.50,-0.79,-2.26,-2.26,-2.25
199.19,-0.74,1.56,-0.74,1.54,-1.54,-1.47,-0.80,-2.28,-2.28,-2.30
201.18,-0.76,1.55,-0.77,1.54,-1.54,-1.44,-0.82,-2.30,-2.31,-2.31
203.19,-0.79,1.54,-0.79,1.54,-1.54,-1.41,-0.83,-2.33,-2.33,-2.33
205.23,-0.82,1.53,-0.82,1.54,-1.54,-1.38,-0.85,-2.36,-2.35,-2.35
207.28,-0.84,1.52,-0.84,1.53,-1.53,-1.34,-0.86,-2.37,-2.37,-2.36
209.35,-0.87,1.52,-0.87,1.53,-1.53,-1.31,-0.88,-2.40,-2.39,-2.39
211.44,-0.89,1.52,-0.90,1.52,-1.52,-1.28,-0.89,-2.41,-2.41,-2.41
213.56,-0.92,1.51,-0.92,1.50,-1.50,-1.24,-0.90,-2.43,-2.43,-2.43
215.69,-0.95,1.48,-0.95,1.49,-1.49,-1.21,-0.92,-2.44,-2.44,-2.43
217.85,-0.98,1.46,-0.98,1.47,-1.47,-1.17,-0.93,-2.45,-2.45,-2.44
220.03,-1.00,1.47,-1.01,1.46,-1.46,-1.14,-0.94,-2.46,-2.46,-2.47
222.23,-1.03,1.45,-1.03,1.43,-1.43,-1.10,-0.96,-2.47,-2.47,-2.48
224.45,-1.06,1.41,-1.06,1.41,-1.41,-1.07,-0.97,-2.47,-2.47,-2.47
226.70,-1.09,1.39,-1.09,1.39,-1.39,-1.03,-0.98,-2.48,-2.48,-2.48
228.96,-1.11,1.37,-1.11,1.36,-1.36,-1.00,-0.99,-2.47,-2.48,-2.48
231.25,-1.14,1.33,-1.14,1.34,-1.34,-0.97,-1.00,-2.48,-2.48,-2.47
233.57,-1.17,1.29,-1.16,1.31,-1.31,-0.94,-1.00,-2.48,-2.47,-2.46
235.90,-1.19,1.27,-1.19,1.27,-1.27,-0.91,-1.01,-2.47,-2.46,-2.46
238.26,-1.21,1.25,-1.21,1.24,-1.24,-0.88,-1.01,-2.45,-2.45,-2.46
240.64,-1.23,1.21,-1.23,1.21,-1.21,-0.85,-1.01,-2.44,-2.44,-2.44
243.05,-1.25,1.17,-1.25,1.18,-1.18,-0.82,-1.01,-2.43,-2.42,-2.42
245.48,-1.27,1.13,-1.26,1.14,-1.14,-0.79,-1.01,-2.41,-2.41,-2.40
247.93,-1.28,1.11,-1.28,1.11,-1.11,-0.76,-1.01,-2.39,-2.39,-2.39
250.41,-1.29,1.09,-1.30,1.07,-1.07,-0.74,-1.00,-2.37,-2.37,-2.38
252.92,-1.31,1.03,-1.31,1.04,-1.04,-0.71,-1.00,-2.35,-2.35,-2.34
255.45,-1.33,0.99,-1.32,1.00,-1.00,-0.69,-0.99,-2.34,-2.33,-2.32
258.00,-1.34,0.96,-1.34,0.97,-0.97,-0.67,-0.98,-2.31,-2.31,-2.30
260.58,-1.34,0.94,-1.35,0.93,-0.93,-0.64,-0.96,-2.27,-2.28,-2.28
263.19,-1.36,0.90,-1.36,0.90,-0.90,-0.62,-0.95,-2.26,-2.26,-2.26
265.82,-1.37,0.87,-1.38,0.86,-0.86,-0.60,-0.93,-2.23,-2.24,-2.24
268.48,-1.39,0.82,-1.39,0.82,-0.82,-0.58,-0.92,-2.21,-2.21,-2.21
271.16,-1.40,0.78,-1.40,0.78,-0.78,-0.56,-0.90,-2.18,-2.19,-2.18
273.87,-1.42,0.74,-1.42,0.75,-0.75,-0.54,-0.88,-2.17,-2.16,-2.16
276.61,-1.43,0.70,-1.43,0.71,-0.71,-0.52,-0.85,-2.14,-2.14,-2.13
279.38,-1.44,0.67,-1.44,0.67,-0.67,-0.51,-0.83,-2.11,-2.11,-2.11
282.17,-1.46,0.63,-1.46,0.63,-0.63,-0.49,-0.80,-2.09,-2.09,-2.09
284.99,-1.47,0.59,-1.47,0.60,-0.60,-0.47,-0.78,-2.07,-2.06,-2.06
287.84,-1.48,0.56,-1.48,0.56,-0.56,-0.46,-0.75,-2.04,-2.04,-2.04
290.72,-1.49,0.51,-1.49,0.52,-0.52,-0.44,-0.73,-2.01,-2.01,-2.00
293.63,-1.50,0.48,-1.50,0.48,-0.48,-0.43,-0.70,-1.98,-1.98,-1.98
296.57,-1.51,0.44,-1.51,0.44,-0.44,-0.41,-0.67,-1.95,-1.95,-1.95
299.53,-1.51,0.41,-1.51,0.41,-0.41,-0.40,-0.64,-1.92,-1.92,-1.92
302.53,-1.52,0.38,-1.52,0.37,-0.37,-0.39,-0.61,-1.89,-1.89,-1.90
305.55,-1.53,0.32,-1.52,0.33,-0.33,-0.37,-0.58,-1.86,-1.85,-1.85
308.61,-1.52,0.30,-1.53,0.30,-0.30,-0.36,-0.55,-1.82,-1.82,-1.82
311.69,-1.53,0.25,-1.53,0.26,-0.26,-0.35,-0.52,-1.79,-1.79,-1.78
314.81,-1.53,0.22,-1.53,0.22,-0.22,-0.34,-0.49,-1.75,-1.76,-1.75
317.96,-1.54,0.18,-1.54,0.19,-0.19,-0.33,-0.46,-1.73,-1.73,-1.72
321.14,-1.54,0.15,-1.54,0.15,-0.15,-0.32,-0.42,-1.69,-1.70,-1.69
324.35,-1.54,0.13,-1.55,0.12,-0.12,-0.31,-0.39,-1.66,-1.67,-1.67
327.59,-1.55,0.08,-1.55,0.08,-0.08,-0.30,-0.36,-1.64,-1.64,-1.63
330.87,-1.55,0.05,-1.56,0.05,-0.05,-0.29,-0.33,-1.60,-1.61,-1.60
334.18,-1.56,0.02,-1.56,0.02,-0.02,-0.28,-0.30,-1.58,-1.58,-1.58
337.52,-1.56,0.00,-1.57,-0.01,0.01,-0.27,-0.27,-1.55,-1.56,-1.56
340.90,-1.57,-0.04,-1.58,-0.04,0.04,-0.26,-0.24,-1.53,-1.53,-1.53
344.30,-1.58,-0.07,-1.58,-0.07,0.07,-0.25,-0.21,-1.51,-1.51,-1.51
347.75,-1.59,-0.11,-1.59,-0.10,0.10,-0.25,-0.18,-1.50,-1.49,-1.48
351.23,-1.59,-0.13,-1.59,-0.12,0.12,-0.24,-0.15,-1.47,-1.47,-1.46
354.74,-1.60,-0.15,-1.59,-0.14,0.14,-0.23,-0.12,-1.46,-1.45,-1.45
358.28,-1.60,-0.17,-1.59,-0.16,0.16,-0.23,-0.09,-1.44,-1.43,-1.43
361.87,-1.60,-0.19,-1.59,-0.18,0.18,-0.22,-0.06,-1.42,-1.41,-1.41
365.49,-1.59,-0.21,-1.59,-0.20,0.20,-0.21,-0.03,-1.39,-1.39,-1.38
369.14,-1.59,-0.22,-1.59,-0.22,0.22,-0.21,0.00,-1.38,-1.37,-1.37
372.83,-1.58,-0.22,-1.58,-0.23,0.23,-0.20,0.03,-1.35,-1.35,-1.36
376.56,-1.57,-0.23,-1.57,-0.24,0.24,-0.19,0.06,-1.33,-1.33,-1.34
380.33,-1.56,-0.25,-1.56,-0.25,0.25,-0.19,0.09,-1.31,-1.31,-1.31
384.13,-1.55,-0.26,-1.55,-0.26,0.26,-0.18,0.12,-1.29,-1.29,-1.29
387.97,-1.54,-0.27,-1.54,-0.27,0.27,-0.18,0.15,-1.27,-1.27,-1.27
391.85,-1.53,-0.28,-1.53,-0.28,0.28,-0.17,0.18,-1.25,-1.25,-1.25
395.77,-1.51,-0.29,-1.51,-0.28,0.28,-0.17,0.21,-1.23,-1.23,-1.22
399.73,-1.49,-0.29,-1.50,-0.29,0.29,-0.16,0.24,-1.20,-1.21,-1.20
403.72,-1.48,-0.29,-1.48,-0.29,0.29,-0.16,0.27,-1.19,-1.19,-1.19
407.76,-1.47,-0.30,-1.46,-0.30,0.30,-0.15,0.29,-1.18,-1.17,-1.17
411.84,-1.45,-0.31,-1.44,-0.30,0.30,-0.15,0.32,-1.15,-1.14,-1.14
415.96,-1.42,-0.30,-1.42,-0.30,0.30,-0.15,0.35,-1.12,-1.12,-1.12
420.12,-1.40,-0.30,-1.40,-0.30,0.30,-0.14,0.37,-1.10,-1.10,-1.10
424.32,-1.38,-0.31,-1.37,-0.30,0.30,-0.14,0.40,-1.08,-1.08,-1.07
428.56,-1.36,-0.31,-1.35,-0.30,0.30,-0.13,0.42,-1.06,-1.05,-1.05
432.85,-1.33,-0.30,-1.33,-0.30,0.30,-0.13,0.45,-1.03,-1.03,-1.03
437.18,-1.30,-0.30,-1.31,-0.30,0.30,-0.13,0.47,-1.00,-1.01,-1.00
441.55,-1.27,-0.30,-1.29,-0.31,0.31,-0.12,0.50,-0.97,-0.98,-0.97
445.96,-1.25,-0.30,-1.27,-0.31,0.31,-0.12,0.52,-0.94,-0.95,-0.95
450.42,-1.23,-0.29,-1.25,-0.32,0.32,-0.12,0.54,-0.91,-0.93,-0.94
454.93,-1.22,-0.32,-1.23,-0.33,0.33,-0.11,0.56,-0.89,-0.90,-0.90
