frequency,raw,error,smoothed,error_smoothed,equalization,parametric_eq,fixed_band_eq,equalized_raw,equalized_smoothed,target
20.00,10.98,-2.51,10.97,-2.52,2.43,2.35,0.22,13.41,13.40,13.49
20.20,11.04,-2.44,11.05,-2.43,2.40,2.31,0.23,13.44,13.45,13.48
20.40,11.11,-2.36,11.11,-2.35,2.37,2.27,0.24,13.48,13.49,13.47
20.61,11.17,-2.30,11.17,-2.29,2.34,2.23,0.26,13.51,13.51,13.47
20.81,11.23,-2.22,11.23,-2.22,2.30,2.19,0.27,13.53,13.53,13.45
21.02,11.29,-2.16,11.27,-2.17,2.25,2.15,0.28,13.54,13.53,13.45
21.23,11.29,-2.15,11.29,-2.15,2.21,2.11,0.29,13.50,13.50,13.44
21.44,11.29,-2.16,11.29,-2.15,2.15,2.06,0.30,13.44,13.44,13.45
21.66,11.29,-2.15,11.28,-2.16,2.11,2.02,0.32,13.40,13.39,13.44
21.87,11.29,-2.14,11.30,-2.13,2.05,1.97,0.33,13.34,13.36,13.43
22.09,11.34,-2.08,11.36,-2.06,1.99,1.92,0.34,13.33,13.34,13.42
22.31,11.46,-1.96,11.45,-1.96,1.92,1.87,0.36,13.38,13.37,13.42
22.54,11.57,-1.84,11.58,-1.83,1.85,1.82,0.37,13.41,13.42,13.41
22.76,11.69,-1.71,11.69,-1.70,1.78,1.77,0.39,13.47,13.47,13.40
22.99,11.80,-1.59,11.77,-1.62,1.72,1.72,0.40,13.52,13.48,13.39
23.22,11.80,-1.58,11.80,-1.58,1.66,1.67,0.42,13.46,13.46,13.38
23.45,11.79,-1.60,11.79,-1.59,1.61,1.62,0.44,13.39,13.40,13.39
23.69,11.78,-1.60,11.77,-1.61,1.55,1.57,0.45,13.33,13.32,13.38
23.92,11.76,-1.62,11.79,-1.59,1.50,1.52,0.47,13.26,13.29,13.38
24.16,11.85,-1.54,11.86,-1.53,1.44,1.47,0.49,13.29,13.30,13.39
24.40,11.98,-1.42,11.97,-1.42,1.38,1.41,0.50,13.36,13.35,13.40
24.65,12.11,-1.29,12.11,-1.29,1.32,1.36,0.52,13.42,13.43,13.40
24.89,12.23,-1.17,12.22,-1.18,1.25,1.31,0.54,13.48,13.46,13.40
25.14,12.30,-1.09,12.29,-1.10,1.17,1.26,0.56,13.47,13.46,13.39
25.39,12.32,-1.07,12.32,-1.06,1.10,1.20,0.57,13.42,13.43,13.39
25.65,12.34,-1.05,12.34,-1.05,1.04,1.15,0.59,13.38,13.38,13.39
25.91,12.35,-1.05,12.36,-1.04,1.00,1.10,0.60,13.35,13.36,13.40
26.16,12.40,-1.01,12.40,-1.00,0.96,1.05,0.62,13.36,13.36,13.41
26.43,12.46,-0.95,12.46,-0.95,0.93,0.99,0.64,13.39,13.38,13.41
26.69,12.52,-0.89,12.52,-0.89,0.89,0.94,0.65,13.41,13.41,13.41
26.96,12.58,-0.82,12.57,-0.83,0.86,0.89,0.66,13.43,13.43,13.40
27.23,12.61,-0.79,12.61,-0.79,0.81,0.83,0.67,13.42,13.42,13.40
27.50,12.64,-0.76,12.64,-0.76,0.76,0.78,0.69,13.40,13.40,13.40
27.77,12.67,-0.74,12.67,-0.73,0.71,0.73,0.69,13.38,13.38,13.41
28.05,12.70,-0.71,12.71,-0.69,0.67,0.68,0.70,13.37,13.37,13.41
28.33,12.76,-0.63,12.76,-0.64,0.63,0.63,0.71,13.39,13.39,13.39
28.62,12.81,-0.58,12.81,-0.58,0.61,0.57,0.71,13.42,13.42,13.39
28.90,12.87,-0.53,12.86,-0.54,0.59,0.52,0.71,13.45,13.44,13.40
29.19,12.88,-0.52,12.87,-0.52,0.56,0.47,0.71,13.44,13.43,13.40
29.48,12.87,-0.52,12.87,-0.53,0.53,0.42,0.71,13.39,13.39,13.39
29.78,12.86,-0.53,12.86,-0.53,0.48,0.37,0.71,13.34,13.35,13.39
30.08,12.87,-0.53,12.89,-0.50,0.43,0.32,0.70,13.30,13.32,13.40
30.38,12.96,-0.43,12.95,-0.43,0.37,0.27,0.69,13.33,13.33,13.39
30.68,13.05,-0.32,13.04,-0.34,0.31,0.21,0.67,13.36,13.35,13.37
30.99,13.14,-0.23,13.13,-0.23,0.24,0.16,0.66,13.38,13.38,13.37
31.30,13.21,-0.15,13.22,-0.13,0.18,0.11,0.64,13.39,13.41,13.36
31.61,13.29,-0.06,13.29,-0.06,0.13,0.06,0.61,13.42,13.42,13.35
31.93,13.36,0.02,13.33,-0.01,0.08,0.01,0.59,13.44,13.42,13.34
32.24,13.34,0.00,13.32,-0.01,0.04,-0.04,0.56,13.37,13.36,13.34
32.57,13.29,-0.03,13.29,-0.04,-0.01,-0.09,0.53,13.28,13.28,13.32
32.89,13.24,-0.08,13.27,-0.04,-0.05,-0.14,0.49,13.19,13.23,13.32
33.22,13.31,-0.01,13.32,0.01,-0.09,-0.19,0.46,13.22,13.23,13.32
33.55,13.43,0.12,13.42,0.11,-0.14,-0.24,0.41,13.29,13.28,13.31
33.89,13.56,0.24,13.54,0.23,-0.19,-0.29,0.37,13.37,13.34,13.32
34.23,13.62,0.32,13.61,0.31,-0.25,-0.34,0.33,13.36,13.36,13.30
34.57,13.66,0.36,13.66,0.37,-0.32,-0.39,0.28,13.33,13.34,13.30
34.92,13.69,0.40,13.69,0.40,-0.40,-0.44,0.23,13.29,13.30,13.29
35.27,13.73,0.43,13.73,0.44,-0.46,-0.49,0.17,13.27,13.27,13.30
35.62,13.76,0.48,13.76,0.48,-0.50,-0.53,0.12,13.26,13.26,13.28
35.97,13.80,0.52,13.80,0.52,-0.52,-0.58,0.06,13.28,13.28,13.28
36.33,13.83,0.57,13.84,0.58,-0.54,-0.63,0.00,13.29,13.30,13.26
36.70,13.87,0.62,13.87,0.62,-0.58,-0.68,-0.06,13.29,13.29,13.25
37.06,13.89,0.66,13.86,0.63,-0.63,-0.73,-0.12,13.26,13.23,13.23
37.43,13.85,0.64,13.83,0.63,-0.69,-0.78,-0.18,13.16,13.15,13.21
37.81,13.80,0.61,13.83,0.65,-0.74,-0.83,-0.25,13.05,13.09,13.19
38.19,13.87,0.71,13.92,0.76,-0.81,-0.88,-0.32,13.06,13.11,13.16
38.57,14.05,0.91,14.05,0.92,-0.88,-0.93,-0.38,13.17,13.17,13.14
38.95,14.24,1.13,14.15,1.05,-0.96,-0.98,-0.45,13.28,13.19,13.11
39.34,14.19,1.12,14.17,1.10,-1.05,-1.03,-0.52,13.14,13.12,13.07
39.74,14.11,1.06,14.15,1.10,-1.15,-1.08,-0.59,12.96,13.00,13.05
40.14,14.11,1.09,14.18,1.16,-1.23,-1.14,-0.67,12.88,12.94,13.02
40.54,14.28,1.28,14.27,1.27,-1.30,-1.19,-0.74,12.98,12.97,13.00
40.94,14.44,1.47,14.36,1.40,-1.35,-1.24,-0.81,13.09,13.02,12.97
41.35,14.40,1.45,14.40,1.46,-1.38,-1.29,-0.89,13.02,13.02,12.95
41.76,14.34,1.43,14.36,1.45,-1.40,-1.34,-0.96,12.94,12.96,12.91
42.18,14.30,1.41,14.32,1.43,-1.42,-1.39,-1.04,12.88,12.90,12.89
42.60,14.30,1.43,14.30,1.44,-1.44,-1.44,-1.12,12.86,12.86,12.87
43.03,14.30,1.46,14.27,1.43,-1.46,-1.50,-1.20,12.84,12.81,12.84
43.46,14.25,1.44,14.25,1.44,-1.49,-1.55,-1.28,12.76,12.76,12.81
43.90,14.21,1.42,14.24,1.46,-1.53,-1.60,-1.36,12.67,12.70,12.79
44.33,14.27,1.52,14.27,1.52,-1.59,-1.66,-1.44,12.68,12.68,12.75
44.78,14.36,1.64,14.36,1.63,-1.65,-1.71,-1.53,12.71,12.71,12.72
45.23,14.46,1.75,14.48,1.79,-1.71,-1.77,-1.61,12.75,12.77,12.71
45.68,14.58,1.92,14.56,1.90,-1.78,-1.82,-1.69,12.80,12.78,12.66
46.13,14.62,2.00,14.54,1.92,-1.85,-1.88,-1.78,12.77,12.69,12.62
46.60,14.47,1.88,14.49,1.90,-1.92,-1.93,-1.87,12.55,12.56,12.59
47.06,14.36,1.81,14.45,1.90,-1.98,-1.99,-1.95,12.38,12.47,12.55
47.53,14.48,1.96,14.47,1.96,-2.04,-2.04,-2.04,12.44,12.43,12.52
48.01,14.60,2.14,14.54,2.08,-2.09,-2.10,-2.13,12.51,12.46,12.46
48.49,14.60,2.19,14.60,2.19,-2.14,-2.16,-2.22,12.46,12.47,12.41
48.97,14.60,2.23,14.61,2.24,-2.21,-2.22,-2.31,12.39,12.40,12.37
49.46,14.60,2.27,14.60,2.28,-2.29,-2.28,-2.41,12.31,12.31,12.33
49.96,14.60,2.34,14.61,2.35,-2.37,-2.34,-2.50,12.22,12.24,12.26
50.46,14.65,2.43,14.65,2.43,-2.46,-2.40,-2.59,12.19,12.19,12.22
50.96,14.70,2.52,14.70,2.53,-2.53,-2.46,-2.68,12.17,12.17,12.18
51.47,14.75,2.61,14.75,2.62,-2.60,-2.52,-2.78,12.15,12.15,12.14
51.99,14.81,2.72,14.79,2.70,-2.67,-2.58,-2.87,12.14,12.12,12.09
52.51,14.81,2.76,14.81,2.76,-2.74,-2.64,-2.96,12.07,12.07,12.05
53.03,14.81,2.79,14.81,2.81,-2.81,-2.70,-3.05,12.00,12.01,12.02
53.56,14.81,2.85,14.81,2.85,-2.86,-2.77,-3.14,11.95,11.95,11.96
54.10,14.81,2.90,14.81,2.90,-2.89,-2.83,-3.23,11.91,11.91,11.91
54.64,14.81,2.94,14.81,2.95,-2.93,-2.90,-3.32,11.88,11.89,11.87
55.18,14.81,3.00,14.81,3.00,-2.96,-2.96,-3.41,11.85,11.85,11.81
55.74,14.81,3.05,14.78,3.02,-3.01,-3.03,-3.50,11.80,11.77,11.76
56.29,14.77,3.04,14.75,3.03,-3.08,-3.10,-3.58,11.69,11.67,11.73
56.86,14.69,3.00,14.74,3.06,-3.15,-3.16,-3.66,11.54,11.59,11.69
57.42,14.77,3.14,14.79,3.15,-3.22,-3.23,-3.74,11.55,11.57,11.63
58.00,14.91,3.31,14.90,3.30,-3.30,-3.30,-3.82,11.61,11.60,11.60
58.58,15.03,3.46,15.01,3.45,-3.38,-3.37,-3.89,11.65,11.64,11.57
59.16,15.10,3.57,15.06,3.54,-3.46,-3.44,-3.96,11.64,11.61,11.53
59.76,15.04,3.55,15.06,3.58,-3.54,-3.51,-4.03,11.50,11.52,11.49
60.35,15.02,3.60,15.03,3.61,-3.62,-3.58,-4.09,11.40,11.41,11.42
60.96,15.01,3.64,15.01,3.64,-3.69,-3.65,-4.15,11.32,11.32,11.37
61.57,15.01,3.71,15.01,3.71,-3.74,-3.73,-4.21,11.27,11.26,11.30
62.18,15.01,3.78,15.01,3.78,-3.78,-3.80,-4.26,11.22,11.22,11.23
62.80,15.01,3.84,15.01,3.84,-3.82,-3.87,-4.31,11.19,11.19,11.17
63.43,15.01,3.90,15.01,3.90,-3.87,-3.94,-4.35,11.14,11.15,11.11
64.07,15.01,3.95,15.01,3.96,-3.92,-4.02,-4.39,11.08,11.09,11.06
64.71,15.01,4.01,14.97,3.98,-3.99,-4.09,-4.43,11.02,10.98,11.00
65.35,14.96,4.02,14.94,4.00,-4.06,-4.16,-4.46,10.90,10.89,10.94
66.01,14.87,3.99,14.95,4.07,-4.13,-4.23,-4.49,10.74,10.83,10.88
66.67,15.02,4.18,15.00,4.17,-4.20,-4.31,-4.52,10.82,10.79,10.84
67.33,15.10,4.34,15.06,4.29,-4.28,-4.38,-4.54,10.82,10.78,10.76
68.01,15.11,4.40,15.12,4.41,-4.36,-4.45,-4.56,10.75,10.76,10.71
68.69,15.11,4.47,15.12,4.48,-4.44,-4.52,-4.58,10.67,10.68,10.64
69.37,15.11,4.52,15.11,4.53,-4.52,-4.59,-4.60,10.59,10.59,10.59
70.07,15.11,4.59,15.11,4.59,-4.60,-4.66,-4.62,10.51,10.51,10.52
70.77,15.11,4.65,15.11,4.65,-4.67,-4.73,-4.63,10.44,10.44,10.46
71.48,15.11,4.72,15.11,4.72,-4.73,-4.79,-4.65,10.38,10.38,10.39
72.19,15.11,4.79,15.11,4.79,-4.79,-4.86,-4.67,10.32,10.32,10.32
72.91,15.11,4.85,15.11,4.85,-4.85,-4.92,-4.68,10.26,10.26,10.26
73.64,15.11,4.92,15.11,4.92,-4.92,-4.99,-4.70,10.19,10.19,10.19
74.38,15.11,4.98,15.11,4.98,-4.98,-5.05,-4.71,10.13,10.13,10.13
75.12,15.11,5.05,15.11,5.04,-5.04,-5.11,-4.73,10.07,10.07,10.06
75.87,15.11,5.09,15.11,5.10,-5.10,-5.17,-4.75,10.01,10.01,10.02
76.63,15.11,5.16,15.11,5.16,-5.16,-5.23,-4.77,9.95,9.95,9.95
77.40,15.11,5.21,15.11,5.21,-5.21,-5.28,-4.80,9.90,9.90,9.90
78.17,15.11,5.27,15.11,5.27,-5.27,-5.34,-4.82,9.84,9.84,9.84
78.95,15.11,5.31,15.11,5.32,-5.32,-5.39,-4.85,9.79,9.79,9.80
79.74,15.11,5.37,15.11,5.37,-5.37,-5.45,-4.88,9.74,9.74,9.74
80.54,15.11,5.43,15.11,5.43,-5.43,-5.50,-4.92,9.68,9.68,9.68
81.35,15.11,5.48,15.11,5.48,-5.48,-5.55,-4.96,9.63,9.63,9.63
82.16,15.11,5.53,15.11,5.54,-5.54,-5.60,-5.00,9.57,9.57,9.58
82.98,15.11,5.59,15.11,5.59,-5.60,-5.65,-5.04,9.51,9.51,9.52
83.81,15.11,5.65,15.11,5.65,-5.65,-5.70,-5.09,9.45,9.45,9.46
84.65,15.11,5.71,15.11,5.72,-5.71,-5.75,-5.14,9.40,9.40,9.40
85.50,15.11,5.78,15.11,5.78,-5.77,-5.80,-5.20,9.34,9.34,9.33
86.35,15.11,5.84,15.11,5.84,-5.83,-5.85,-5.26,9.27,9.27,9.27
87.22,15.11,5.89,15.11,5.90,-5.90,-5.89,-5.32,9.21,9.21,9.22
88.09,15.11,5.96,15.11,5.96,-5.96,-5.94,-5.39,9.15,9.15,9.15
88.97,15.11,6.01,15.11,6.02,-6.02,-5.99,-5.46,9.09,9.09,9.10
89.86,15.11,6.09,15.11,6.09,-6.09,-6.03,-5.53,9.02,9.02,9.02
90.76,15.11,6.15,15.11,6.15,-6.15,-6.08,-5.61,8.96,8.96,8.96
91.66,15.11,6.22,15.11,6.22,-6.21,-6.13,-5.69,8.90,8.90,8.89
92.58,15.11,6.28,15.11,6.28,-6.28,-6.18,-5.78,8.83,8.83,8.83
93.51,15.11,6.35,15.11,6.35,-6.36,-6.22,-5.87,8.75,8.75,8.76
94.44,15.11,6.42,15.11,6.42,-6.45,-6.27,-5.97,8.66,8.66,8.69
95.39,15.11,6.50,15.11,6.50,-6.53,-6.32,-6.07,8.58,8.58,8.61
96.34,15.11,6.58,15.10,6.57,-6.61,-6.37,-6.17,8.50,8.49,8.53
97.30,15.10,6.65,15.11,6.67,-6.67,-6.42,-6.27,8.43,8.44,8.45
98.28,15.11,6.75,15.14,6.78,-6.72,-6.47,-6.38,8.39,8.43,8.36
99.26,15.15,6.88,15.13,6.86,-6.76,-6.52,-6.50,8.39,8.37,8.27
100.25,15.13,6.94,15.04,6.85,-6.79,-6.57,-6.61,8.33,8.25,8.19
101.25,14.89,6.77,14.92,6.81,-6.83,-6.62,-6.73,8.06,8.09,8.12
102.27,14.72,6.69,14.80,6.77,-6.86,-6.67,-6.85,7.86,7.95,8.03
103.29,14.77,6.82,14.75,6.80,-6.89,-6.72,-6.97,7.88,7.86,7.95
104.32,14.80,6.92,14.76,6.89,-6.92,-6.77,-7.09,7.88,7.84,7.88
105.37,14.78,6.98,14.78,6.99,-6.96,-6.83,-7.22,7.82,7.82,7.80
106.42,14.75,7.04,14.76,7.05,-7.01,-6.88,-7.34,7.74,7.75,7.71
107.48,14.73,7.11,14.73,7.10,-7.08,-6.93,-7.47,7.65,7.65,7.62
108.56,14.70,7.14,14.70,7.16,-7.15,-6.99,-7.59,7.55,7.55,7.56
109.64,14.68,7.21,14.68,7.21,-7.22,-7.04,-7.71,7.46,7.46,7.47
110.74,14.66,7.27,14.66,7.27,-7.28,-7.10,-7.83,7.37,7.37,7.39
111.85,14.64,7.32,14.64,7.33,-7.34,-7.15,-7.95,7.30,7.31,7.32
112.97,14.64,7.39,14.64,7.39,-7.39,-7.21,-8.06,7.25,7.25,7.25
114.10,14.63,7.45,14.63,7.45,-7.44,-7.26,-8.17,7.19,7.19,7.18
115.24,14.62,7.52,14.61,7.51,-7.48,-7.32,-8.27,7.14,7.12,7.10
116.39,14.56,7.54,14.57,7.55,-7.52,-7.37,-8.37,7.03,7.04,7.02
117.55,14.53,7.57,14.52,7.57,-7.57,-7.43,-8.46,6.96,6.95,6.96
118.73,14.47,7.59,14.47,7.59,-7.61,-7.48,-8.54,6.86,6.86,6.88
119.92,14.44,7.62,14.45,7.63,-7.66,-7.54,-8.61,6.78,6.79,6.82
121.12,14.45,7.68,14.44,7.69,-7.71,-7.59,-8.68,6.74,6.73,6.77
122.33,14.46,7.76,14.45,7.75,-7.77,-7.65,-8.73,6.69,6.69,6.70
123.55,14.47,7.82,14.47,7.82,-7.82,-7.71,-8.78,6.64,6.64,6.65
124.79,14.47,7.88,14.48,7.89,-7.88,-7.76,-8.81,6.59,6.59,6.59
126.03,14.48,7.96,14.48,7.96,-7.93,-7.82,-8.84,6.54,6.55,6.52
127.29,14.49,8.03,14.48,8.02,-7.98,-7.87,-8.86,6.50,6.49,6.46
128.57,14.46,8.06,14.45,8.06,-8.03,-7.93,-8.86,6.43,6.42,6.40
129.85,14.40,8.07,14.40,8.07,-8.08,-7.98,-8.86,6.32,6.32,6.33
131.15,14.34,8.07,14.35,8.08,-8.11,-8.04,-8.84,6.22,6.24,6.27
132.46,14.32,8.11,14.32,8.12,-8.15,-8.09,-8.82,6.17,6.17,6.21
133.79,14.31,8.16,14.31,8.16,-8.18,-8.15,-8.79,6.13,6.13,6.15
135.12,14.32,8.23,14.32,8.22,-8.21,-8.20,-8.76,6.11,6.11,6.09
136.48,14.32,8.27,14.33,8.29,-8.25,-8.25,-8.72,6.07,6.08,6.05
137.84,14.32,8.33,14.28,8.30,-8.30,-8.30,-8.67,6.02,5.99,5.99
139.22,14.25,8.34,14.23,8.30,-8.34,-8.36,-8.62,5.90,5.88,5.91
140.61,14.13,8.26,14.22,8.36,-8.39,-8.41,-8.56,5.74,5.83,5.87
142.02,14.22,8.41,14.23,8.43,-8.43,-8.46,-8.50,5.78,5.79,5.81
143.44,14.33,8.59,14.24,8.49,-8.47,-8.51,-8.44,5.86,5.77,5.74
144.87,14.22,8.53,14.23,8.55,-8.50,-8.56,-8.38,5.72,5.73,5.69
146.32,14.15,8.51,14.18,8.55,-8.53,-8.61,-8.32,5.62,5.65,5.64
147.78,14.12,8.54,14.12,8.55,-8.55,-8.65,-8.26,5.56,5.57,5.58
149.26,14.12,8.59,14.10,8.58,-8.58,-8.70,-8.20,5.54,5.53,5.53
150.75,14.07,8.61,14.06,8.59,-8.59,-8.75,-8.14,5.48,5.47,5.46
152.26,14.01,8.59,14.00,8.59,-8.60,-8.79,-8.08,5.41,5.40,5.42
153.78,13.93,8.57,13.95,8.59,-8.62,-8.84,-8.03,5.31,5.33,5.36
155.32,13.92,8.61,13.93,8.62,-8.64,-8.88,-7.98,5.27,5.29,5.31
156.88,13.93,8.68,13.92,8.68,-8.68,-8.92,-7.93,5.25,5.24,5.25
158.44,13.93,8.74,13.89,8.70,-8.71,-8.96,-7.89,5.21,5.18,5.19
160.03,13.86,8.73,13.87,8.74,-8.74,-9.00,-7.85,5.12,5.13,5.13
161.63,13.78,8.71,13.84,8.78,-8.76,-9.04,-7.81,5.02,5.09,5.07
163.24,13.87,8.87,13.82,8.82,-8.78,-9.07,-7.78,5.09,5.04,5.00
164.88,13.81,8.86,13.80,8.86,-8.81,-9.11,-7.76,5.00,4.99,4.95
166.53,13.73,8.85,13.72,8.84,-8.83,-9.14,-7.74,4.89,4.89,4.88
168.19,13.63,8.80,13.60,8.78,-8.86,-9.18,-7.72,4.77,4.74,4.83
169.87,13.48,8.71,13.56,8.80,-8.88,-9.21,-7.71,4.60,4.68,4.77
171.57,13.55,8.85,13.58,8.88,-8.89,-9.24,-7.71,4.66,4.69,4.70
173.29,13.67,9.03,13.62,8.98,-8.90,-9.26,-7.71,4.76,4.71,4.64
175.02,13.65,9.06,13.59,9.00,-8.92,-9.29,-7.72,4.73,4.67,4.59
176.77,13.50,8.96,13.50,8.96,-8.94,-9.31,-7.73,4.56,4.56,4.54
178.54,13.30,8.82,13.41,8.93,-8.96,-9.34,-7.75,4.34,4.45,4.48
180.32,13.38,8.96,13.35,8.93,-8.98,-9.36,-7.78,4.40,4.37,4.42
182.13,13.41,9.03,13.34,8.96,-8.99,-9.38,-7.81,4.42,4.34,4.38
183.95,13.29,8.96,13.35,9.03,-9.00,-9.39,-7.84,4.29,4.35,4.33
185.79,13.31,9.03,13.31,9.03,-9.02,-9.41,-7.88,4.29,4.29,4.28
187.65,13.32,9.08,13.25,9.02,-9.05,-9.42,-7.93,4.27,4.20,4.24
189.52,13.20,9.01,13.26,9.06,-9.08,-9.43,-7.98,4.11,4.17,4.19
191.42,13.22,9.06,13.26,9.11,-9.11,-9.44,-8.04,4.11,4.15,4.16
193.33,13.32,9.21,13.25,9.15,-9.12,-9.45,-8.11,4.19,4.13,4.11
195.27,13.25,9.19,13.23,9.17,-9.12,-9.46,-8.17,4.13,4.11,4.06
197.22,13.14,9.13,13.18,9.17,-9.12,-9.46,-8.25,4.02,4.06,4.01
199.19,13.08,9.10,13.11,9.14,-9.12,-9.46,-8.32,3.96,3.99,3.98
201.18,13.09,9.16,13.03,9.09,-9.12,-9.46,-8.41,3.97,3.91,3.93
203.19,12.97,9.07,12.94,9.05,-9.10,-9.46,-8.49,3.86,3.84,3.90
205.23,12.81,8.95,12.88,9.02,-9.09,-9.45,-8.58,3.72,3.79,3.86
207.28,12.85,9.02,12.89,9.06,-9.08,-9.45,-8.67,3.77,3.81,3.83
209.35,12.94,9.15,12.91,9.12,-9.07,-9.44,-8.76,3.86,3.83,3.79
211.44,12.99,9.25,12.88,9.13,-9.08,-9.43,-8.86,3.91,3.80,3.74
213.56,12.74,9.03,12.78,9.08,-9.09,-9.42,-8.95,3.65,3.69,3.71
215.69,12.63,8.96,12.71,9.04,-9.10,-9.40,-9.05,3.53,3.61,3.67
217.85,12.69,9.05,12.71,9.08,-9.10,-9.38,-9.14,3.59,3.61,3.64
220.03,12.79,9.20,12.72,9.12,-9.08,-9.36,-9.24,3.70,3.63,3.59
222.23,12.76,9.19,12.66,9.10,-9.06,-9.34,-9.33,3.70,3.60,3.57
224.45,12.47,8.93,12.61,9.08,-9.02,-9.32,-9.41,3.44,3.59,3.54
226.70,12.47,8.96,12.52,9.01,-9.00,-9.30,-9.49,3.47,3.53,3.51
228.96,12.62,9.13,12.41,8.92,-8.98,-9.27,-9.57,3.64,3.43,3.49
231.25,12.30,8.82,12.36,8.89,-8.95,-9.24,-9.64,3.35,3.41,3.48
233.57,12.19,8.74,12.34,8.89,-8.92,-9.21,-9.70,3.27,3.43,3.45
235.90,12.38,8.94,12.30,8.87,-8.88,-9.18,-9.76,3.50,3.42,3.44
238.26,12.44,9.02,12.30,8.88,-8.85,-9.14,-9.80,3.59,3.46,3.42
240.64,12.20,8.77,12.29,8.87,-8.82,-9.10,-9.83,3.38,3.48,3.43
243.05,12.15,8.73,12.24,8.83,-8.79,-9.07,-9.85,3.36,3.45,3.42
245.48,12.28,8.88,12.16,8.76,-8.76,-9.03,-9.86,3.51,3.40,3.40
247.93,12.16,8.77,12.11,8.71,-8.74,-8.98,-9.85,3.42,3.37,3.39
250.41,11.94,8.54,12.04,8.65,-8.71,-8.94,-9.84,3.23,3.34,3.40
252.92,11.98,8.58,12.02,8.63,-8.68,-8.89,-9.80,3.30,3.34,3.40
255.45,12.08,8.70,12.03,8.65,-8.65,-8.85,-9.76,3.43,3.38,3.38
258.00,12.12,8.75,12.02,8.65,-8.61,-8.80,-9.70,3.50,3.40,3.37
260.58,11.90,8.54,11.99,8.64,-8.58,-8.75,-9.63,3.32,3.41,3.36
263.19,11.85,8.50,11.93,8.58,-8.55,-8.70,-9.55,3.30,3.37,3.35
265.82,11.99,8.66,11.82,8.48,-8.51,-8.64,-9.46,3.48,3.30,3.33
268.48,11.73,8.40,11.79,8.47,-8.47,-8.59,-9.36,3.26,3.32,3.33
271.16,11.61,8.30,11.73,8.42,-8.42,-8.53,-9.25,3.18,3.31,3.31
273.87,11.76,8.46,11.61,8.32,-8.37,-8.47,-9.13,3.39,3.24,3.30
276.61,11.58,8.30,11.57,8.30,-8.30,-8.41,-9.01,3.28,3.27,3.28
279.38,11.40,8.15,11.54,8.28,-8.24,-8.35,-8.88,3.16,3.30,3.25
282.17,11.53,8.28,11.43,8.18,-8.18,-8.29,-8.74,3.35,3.25,3.25
284.99,11.44,8.19,11.39,8.15,-8.12,-8.23,-8.60,3.31,3.27,3.25
287.84,11.23,7.98,11.33,8.09,-8.07,-8.17,-8.46,3.16,3.26,3.25
290.72,11.28,8.05,11.19,7.95,-8.01,-8.10,-8.32,3.27,3.18,3.23
293.63,11.11,7.87,11.15,7.92,-7.95,-8.03,-8.17,3.16,3.20,3.24
296.57,11.05,7.81,11.14,7.91,-7.89,-7.97,-8.03,3.16,3.25,3.24
299.53,11.22,7.99,11.06,7.83,-7.84,-7.90,-7.88,3.38,3.22,3.23
302.53,11.02,7.78,11.04,7.81,-7.80,-7.83,-7.74,3.22,3.24,3.24
305.55,10.87,7.64,11.01,7.78,-7.75,-7.76,-7.60,3.11,3.25,3.23
308.61,11.02,7.78,10.91,7.68,-7.71,-7.68,-7.46,3.30,3.19,3.24
311.69,10.92,7.70,10.88,7.65,-7.67,-7.61,-7.32,3.25,3.21,3.22
314.81,10.75,7.52,10.87,7.65,-7.61,-7.54,-7.19,3.13,3.25,3.23
317.96,10.82,7.61,10.79,7.57,-7.56,-7.46,-7.06,3.26,3.23,3.21
321.14,10.81,7.59,10.72,7.51,-7.50,-7.39,-6.93,3.31,3.22,3.22
324.35,10.60,7.39,10.66,7.44,-7.43,-7.31,-6.81,3.17,3.23,3.21
327.59,10.52,7.30,10.54,7.33,-7.34,-7.23,-6.69,3.17,3.19,3.22
330.87,10.47,7.26,10.45,7.24,-7.25,-7.16,-6.57,3.21,3.20,3.21
334.18,10.38,7.18,10.39,7.19,-7.16,-7.08,-6.46,3.22,3.24,3.20
337.52,10.33,7.12,10.31,7.11,-7.06,-7.00,-6.35,3.26,3.25,3.21
340.90,10.20,7.00,10.17,6.97,-6.98,-6.92,-6.25,3.22,3.19,3.20
344.30,10.05,6.84,10.04,6.83,-6.90,-6.84,-6.15,3.15,3.13,3.21
347.75,9.88,6.66,9.97,6.76,-6.83,-6.76,-6.06,3.05,3.14,3.22
351.23,9.94,6.74,9.96,6.75,-6.76,-6.67,-5.97,3.18,3.20,3.20
354.74,10.05,6.83,9.93,6.72,-6.70,-6.59,-5.89,3.35,3.24,3.22
358.28,9.90,6.68,9.89,6.68,-6.63,-6.51,-5.81,3.27,3.26,3.22
361.87,9.72,6.50,9.81,6.59,-6.56,-6.42,-5.73,3.15,3.25,3.22
365.49,9.73,6.50,9.71,6.48,-6.49,-6.34,-5.66,3.24,3.21,3.23
369.14,9.70,6.46,9.67,6.44,-6.41,-6.25,-5.60,3.29,3.26,3.24
372.83,9.58,6.33,9.61,6.37,-6.33,-6.17,-5.54,3.25,3.29,3.25
376.56,9.56,6.32,9.49,6.25,-6.24,-6.08,-5.48,3.31,3.24,3.24
380.33,9.33,6.09,9.35,6.11,-6.16,-6.00,-5.42,3.17,3.19,3.24
384.13,9.21,5.96,9.26,6.02,-6.08,-5.91,-5.37,3.13,3.18,3.25
387.97,9.20,5.95,9.20,5.96,-6.01,-5.82,-5.32,3.19,3.20,3.25
391.85,9.22,5.98,9.19,5.96,-5.93,-5.73,-5.28,3.29,3.26,3.24
395.77,9.18,5.95,9.14,5.91,-5.85,-5.65,-5.24,3.33,3.29,3.23
399.73,9.03,5.80,9.04,5.81,-5.77,-5.56,-5.20,3.26,3.27,3.23
403.72,8.89,5.65,8.92,5.70,-5.69,-5.47,-5.17,3.20,3.23,3.24
407.76,8.82,5.60,8.81,5.59,-5.60,-5.38,-5.13,3.22,3.21,3.22
411.84,8.73,5.52,8.71,5.50,-5.51,-5.29,-5.10,3.22,3.20,3.21
415.96,8.60,5.39,8.61,5.41,-5.41,-5.20,-5.07,3.19,3.19,3.21
420.12,8.49,5.29,8.50,5.30,-5.31,-5.10,-5.04,3.18,3.19,3.20
424.32,8.42,5.21,8.42,5.21,-5.22,-5.01,-5.02,3.20,3.20,3.21
428.56,8.35,5.12,8.33,5.11,-5.12,-4.92,-4.99,3.23,3.21,3.23
432.85,8.28,5.03,8.27,5.03,-5.03,-4.83,-4.96,3.25,3.24,3.25
437.18,8.18,4.92,8.23,4.97,-4.94,-4.74,-4.93,3.24,3.30,3.26
441.55,8.20,4.91,8.17,4.88,-4.85,-4.64,-4.90,3.35,3.31,3.29
445.96,8.15,4.82,8.09,4.76,-4.77,-4.55,-4.87,3.38,3.31,3.33
450.42,7.96,4.59,8.02,4.65,-4.69,-4.45,-4.84,3.26,3.33,3.37
454.93,7.95,4.53,7.98,4.56,-4.62,-4.36,-4.81,3.33,3.37,3.42
459.48,8.01,4.53,7.99,4.52,-4.53,-4.26,-4.77,3.48,3.46,3.48
464.07,8.06,4.51,8.03,4.50,-4.45,-4.17,-4.73,3.61,3.59,3.55
468.71,8.03,4.43,8.01,4.41,-4.35,-4.07,-4.68,3.68,3.66,3.60
