frequency,raw,error,smoothed,error_smoothed,equalization,parametric_eq,fixed_band_eq,equalized_raw,equalized_smoothed,target
20.00,-9.44,-12.29,-9.46,-12.33,12.33,11.19,4.84,2.90,2.87,2.85
20.20,-9.42,-12.30,-9.39,-12.29,12.29,11.30,4.96,2.87,2.90,2.88
20.40,-9.34,-12.25,-9.33,-12.25,12.25,11.39,5.09,2.91,2.92,2.91
20.61,-9.28,-12.21,-9.26,-12.20,12.20,11.48,5.23,2.92,2.94,2.93
20.81,-9.19,-12.15,-9.19,-12.15,12.15,11.56,5.36,2.96,2.96,2.96
21.02,-9.12,-12.11,-9.12,-12.09,12.09,11.63,5.50,2.98,2.97,2.99
21.23,-9.04,-12.04,-9.05,-12.04,12.04,11.69,5.65,3.00,2.99,3.00
21.44,-8.97,-11.98,-8.98,-11.98,11.98,11.73,5.80,3.01,3.00,3.01
21.66,-8.89,-11.91,-8.90,-11.92,11.92,11.77,5.95,3.03,3.01,3.02
21.87,-8.82,-11.84,-8.83,-11.85,11.85,11.80,6.11,3.03,3.02,3.02
22.09,-8.76,-11.79,-8.75,-11.78,11.78,11.82,6.27,3.03,3.03,3.03
22.31,-8.70,-11.73,-8.68,-11.71,11.71,11.82,6.44,3.02,3.03,3.03
22.54,-8.62,-11.65,-8.59,-11.63,11.63,11.82,6.61,3.01,3.04,3.03
22.76,-8.54,-11.57,-8.51,-11.55,11.55,11.80,6.78,3.01,3.04,3.03
22.99,-8.45,-11.47,-8.43,-11.46,11.46,11.78,6.96,3.02,3.03,3.02
23.22,-8.36,-11.38,-8.34,-11.38,11.38,11.75,7.15,3.02,3.03,3.02
23.45,-8.29,-11.31,-8.26,-11.29,11.29,11.70,7.34,3.00,3.03,3.02
23.69,-8.19,-11.21,-8.18,-11.21,11.21,11.65,7.53,3.02,3.03,3.02
23.92,-8.08,-11.10,-8.10,-11.12,11.12,11.60,7.73,3.05,3.02,3.02
24.16,-8.00,-11.02,-8.02,-11.04,11.04,11.53,7.94,3.05,3.02,3.02
24.40,-7.91,-10.94,-7.94,-10.96,10.96,11.46,8.15,3.05,3.02,3.02
24.65,-7.83,-10.84,-7.87,-10.89,10.89,11.38,8.36,3.06,3.02,3.01
24.89,-7.78,-10.79,-7.80,-10.81,10.81,11.30,8.58,3.04,3.02,3.01
25.14,-7.72,-10.73,-7.73,-10.74,10.74,11.21,8.80,3.03,3.02,3.01
25.39,-7.66,-10.67,-7.67,-10.68,10.68,11.12,9.03,3.02,3.01,3.01
25.65,-7.61,-10.62,-7.60,-10.62,10.62,11.03,9.26,3.01,3.01,3.01
25.91,-7.57,-10.57,-7.55,-10.56,10.56,10.93,9.49,2.99,3.01,3.00
26.16,-7.52,-10.52,-7.49,-10.50,10.50,10.84,9.73,2.98,3.01,3.00
26.43,-7.46,-10.46,-7.44,-10.44,10.44,10.74,9.97,2.98,3.00,3.00
26.69,-7.40,-10.40,-7.38,-10.39,10.39,10.64,10.21,2.99,3.00,3.00
26.96,-7.34,-10.34,-7.33,-10.33,10.33,10.54,10.45,2.99,3.00,3.00
27.23,-7.28,-10.27,-7.28,-10.27,10.27,10.44,10.68,3.00,3.00,2.99
27.50,-7.22,-10.21,-7.23,-10.22,10.22,10.34,10.92,3.00,2.99,2.99
27.77,-7.17,-10.15,-7.17,-10.16,10.16,10.24,11.15,2.99,2.99,2.98
28.05,-7.11,-10.09,-7.12,-10.10,10.10,10.14,11.38,3.00,2.98,2.98
28.33,-7.05,-10.02,-7.06,-10.04,10.04,10.05,11.59,3.00,2.98,2.97
28.62,-7.01,-9.98,-7.00,-9.98,9.98,9.95,11.80,2.97,2.98,2.97
28.90,-6.96,-9.93,-6.95,-9.92,9.92,9.86,12.00,2.96,2.97,2.97
29.19,-6.91,-9.87,-6.89,-9.86,9.86,9.77,12.18,2.95,2.97,2.96
29.48,-6.85,-9.81,-6.83,-9.80,9.80,9.69,12.34,2.95,2.96,2.96
29.78,-6.79,-9.74,-6.78,-9.74,9.74,9.60,12.48,2.95,2.96,2.95
30.08,-6.73,-9.68,-6.72,-9.67,9.67,9.52,12.60,2.95,2.95,2.95
30.38,-6.67,-9.61,-6.67,-9.61,9.61,9.45,12.70,2.95,2.95,2.94
30.68,-6.61,-9.55,-6.61,-9.55,9.55,9.37,12.77,2.95,2.94,2.94
30.99,-6.55,-9.48,-6.56,-9.49,9.49,9.30,12.81,2.95,2.93,2.93
31.30,-6.49,-9.41,-6.50,-9.43,9.43,9.24,12.83,2.94,2.93,2.92
31.61,-6.44,-9.36,-6.45,-9.37,9.37,9.17,12.81,2.93,2.92,2.92
31.93,-6.40,-9.31,-6.39,-9.31,9.31,9.12,12.77,2.91,2.92,2.91
32.24,-6.35,-9.25,-6.34,-9.25,9.25,9.06,12.70,2.90,2.91,2.90
32.57,-6.30,-9.20,-6.29,-9.19,9.19,9.01,12.61,2.89,2.90,2.90
32.89,-6.24,-9.13,-6.23,-9.13,9.13,8.96,12.49,2.89,2.90,2.89
33.22,-6.18,-9.06,-6.18,-9.07,9.07,8.92,12.36,2.90,2.89,2.88
33.55,-6.14,-9.02,-6.13,-9.01,9.01,8.88,12.20,2.88,2.88,2.88
33.89,-6.10,-8.97,-6.08,-8.95,8.95,8.84,12.03,2.86,2.87,2.87
34.23,-6.04,-8.90,-6.03,-8.90,8.90,8.80,11.85,2.86,2.86,2.86
34.57,-5.98,-8.83,-5.98,-8.84,8.84,8.77,11.65,2.86,2.85,2.85
34.92,-5.94,-8.78,-5.94,-8.78,8.78,8.75,11.45,2.84,2.84,2.84
35.27,-5.89,-8.72,-5.89,-8.72,8.72,8.72,11.24,2.84,2.84,2.83
35.62,-5.84,-8.66,-5.84,-8.67,8.67,8.70,11.03,2.83,2.83,2.82
35.97,-5.79,-8.60,-5.79,-8.61,8.61,8.68,10.81,2.83,2.82,2.81
36.33,-5.75,-8.55,-5.75,-8.56,8.56,8.66,10.60,2.81,2.81,2.80
36.70,-5.71,-8.50,-5.71,-8.51,8.51,8.65,10.38,2.80,2.80,2.79
37.06,-5.66,-8.44,-5.67,-8.45,8.45,8.63,10.16,2.80,2.78,2.78
37.43,-5.63,-8.40,-5.63,-8.40,8.40,8.62,9.95,2.78,2.77,2.77
37.81,-5.60,-8.36,-5.59,-8.35,8.35,8.61,9.74,2.76,2.76,2.76
38.19,-5.55,-8.30,-5.55,-8.30,8.30,8.60,9.53,2.76,2.75,2.75
38.57,-5.51,-8.25,-5.51,-8.25,8.25,8.58,9.33,2.75,2.74,2.74
38.95,-5.48,-8.21,-5.47,-8.20,8.20,8.57,9.13,2.73,2.73,2.73
39.34,-5.45,-8.16,-5.43,-8.16,8.16,8.56,8.94,2.71,2.72,2.71
39.74,-5.40,-8.10,-5.39,-8.10,8.10,8.54,8.75,2.71,2.71,2.70
40.14,-5.37,-8.06,-5.35,-8.05,8.05,8.52,8.56,2.69,2.70,2.69
40.54,-5.32,-8.00,-5.31,-8.00,8.00,8.50,8.39,2.68,2.69,2.68
40.94,-5.27,-7.94,-5.26,-7.94,7.94,8.47,8.21,2.68,2.68,2.67
41.35,-5.23,-7.89,-5.22,-7.88,7.88,8.44,8.04,2.66,2.67,2.66
41.76,-5.19,-7.84,-5.17,-7.82,7.82,8.40,7.88,2.64,2.65,2.65
42.18,-5.13,-7.77,-5.12,-7.76,7.76,8.36,7.73,2.63,2.64,2.64
42.60,-5.07,-7.70,-5.07,-7.70,7.70,8.31,7.57,2.63,2.63,2.63
43.03,-5.03,-7.65,-5.03,-7.64,7.64,8.26,7.43,2.61,2.61,2.62
43.46,-4.98,-7.58,-4.98,-7.58,7.58,8.20,7.29,2.60,2.60,2.60
43.90,-4.93,-7.51,-4.94,-7.52,7.52,8.13,7.15,2.59,2.58,2.58
44.33,-4.88,-7.44,-4.89,-7.46,7.46,8.06,7.02,2.59,2.57,2.56
44.78,-4.85,-7.39,-4.85,-7.41,7.41,7.98,6.90,2.56,2.55,2.54
45.23,-4.82,-7.34,-4.82,-7.35,7.35,7.89,6.78,2.54,2.54,2.52
45.68,-4.77,-7.28,-4.78,-7.30,7.30,7.80,6.66,2.54,2.52,2.51
46.13,-4.76,-7.25,-4.75,-7.25,7.25,7.70,6.55,2.50,2.50,2.49
46.60,-4.73,-7.21,-4.73,-7.21,7.21,7.60,6.45,2.48,2.48,2.48
47.06,-4.70,-7.16,-4.70,-7.16,7.16,7.49,6.35,2.47,2.46,2.46
47.53,-4.69,-7.13,-4.68,-7.12,7.12,7.37,6.25,2.43,2.44,2.44
48.01,-4.64,-7.07,-4.66,-7.08,7.08,7.25,6.16,2.44,2.42,2.43
48.49,-4.64,-7.04,-4.64,-7.04,7.04,7.13,6.07,2.40,2.39,2.40
48.97,-4.62,-6.99,-4.63,-7.00,7.00,7.00,5.99,2.38,2.37,2.37
49.46,-4.60,-6.94,-4.61,-6.96,6.96,6.87,5.91,2.36,2.35,2.34
49.96,-4.59,-6.90,-4.59,-6.91,6.91,6.73,5.83,2.33,2.33,2.31
50.46,-4.56,-6.85,-4.56,-6.86,6.86,6.60,5.75,2.31,2.30,2.29
50.96,-4.55,-6.82,-4.53,-6.81,6.81,6.46,5.68,2.26,2.28,2.27
51.47,-4.51,-6.75,-4.50,-6.75,6.75,6.32,5.62,2.24,2.25,2.24
51.99,-4.47,-6.69,-4.46,-6.68,6.68,6.18,5.55,2.22,2.23,2.22
52.51,-4.42,-6.62,-4.41,-6.61,6.61,6.04,5.49,2.19,2.20,2.20
53.03,-4.36,-6.54,-4.35,-6.53,6.53,5.91,5.43,2.17,2.18,2.18
53.56,-4.31,-6.46,-4.29,-6.44,6.44,5.77,5.37,2.13,2.15,2.15
54.10,-4.22,-6.35,-4.21,-6.34,6.34,5.63,5.31,2.12,2.13,2.13
54.64,-4.14,-6.24,-4.12,-6.23,6.23,5.50,5.26,2.09,2.11,2.10
55.18,-4.04,-6.12,-4.02,-6.11,6.11,5.36,5.20,2.07,2.09,2.08
55.74,-3.93,-5.98,-3.91,-5.98,5.98,5.23,5.15,2.05,2.06,2.05
56.29,-3.82,-5.85,-3.80,-5.84,5.84,5.10,5.10,2.02,2.04,2.03
56.86,-3.71,-5.72,-3.67,-5.69,5.69,4.97,5.04,1.98,2.02,2.01
57.42,-3.56,-5.54,-3.53,-5.53,5.53,4.84,4.99,1.97,1.99,1.98
58.00,-3.41,-5.37,-3.39,-5.36,5.36,4.72,4.94,1.95,1.97,1.96
58.58,-3.25,-5.19,-3.25,-5.19,5.19,4.60,4.88,1.94,1.94,1.94
59.16,-3.10,-5.02,-3.10,-5.02,5.02,4.48,4.83,1.92,1.92,1.92
59.76,-2.95,-4.85,-2.95,-4.84,4.84,4.36,4.77,1.89,1.89,1.90
60.35,-2.80,-4.67,-2.80,-4.67,4.67,4.25,4.71,1.87,1.86,1.87
60.96,-2.65,-4.49,-2.66,-4.50,4.50,4.14,4.65,1.85,1.84,1.84
61.57,-2.50,-4.30,-2.52,-4.33,4.33,4.03,4.59,1.83,1.81,1.80
62.18,-2.38,-4.15,-2.39,-4.17,4.17,3.93,4.53,1.79,1.78,1.77
62.80,-2.24,-3.98,-2.26,-4.01,4.01,3.82,4.47,1.78,1.75,1.74
63.43,-2.12,-3.83,-2.14,-3.86,3.86,3.72,4.40,1.75,1.72,1.71
64.07,-2.03,-3.71,-2.04,-3.73,3.73,3.62,4.33,1.70,1.69,1.68
64.71,-1.93,-3.59,-1.94,-3.60,3.60,3.53,4.26,1.67,1.66,1.66
65.35,-1.85,-3.48,-1.85,-3.48,3.48,3.43,4.19,1.64,1.63,1.63
66.01,-1.78,-3.38,-1.77,-3.38,3.38,3.34,4.12,1.60,1.60,1.60
66.67,-1.70,-3.27,-1.70,-3.28,3.28,3.25,4.04,1.58,1.57,1.57
67.33,-1.63,-3.17,-1.64,-3.19,3.19,3.17,3.97,1.56,1.54,1.54
68.01,-1.59,-3.10,-1.59,-3.11,3.11,3.08,3.89,1.52,1.51,1.51
68.69,-1.55,-3.03,-1.55,-3.03,3.03,3.00,3.81,1.49,1.49,1.48
69.37,-1.52,-2.97,-1.51,-2.97,2.97,2.92,3.73,1.45,1.45,1.45
70.07,-1.48,-2.90,-1.48,-2.91,2.91,2.84,3.65,1.43,1.42,1.42
70.77,-1.46,-2.85,-1.46,-2.85,2.85,2.77,3.57,1.39,1.39,1.39
71.48,-1.44,-2.80,-1.44,-2.80,2.80,2.70,3.48,1.36,1.36,1.36
72.19,-1.44,-2.76,-1.42,-2.75,2.75,2.62,3.40,1.31,1.33,1.32
72.91,-1.40,-2.69,-1.41,-2.70,2.70,2.55,3.32,1.30,1.29,1.29
73.64,-1.40,-2.65,-1.40,-2.66,2.66,2.49,3.23,1.26,1.26,1.25
74.38,-1.40,-2.62,-1.39,-2.62,2.62,2.42,3.15,1.22,1.23,1.22
75.12,-1.40,-2.58,-1.39,-2.58,2.58,2.35,3.07,1.18,1.19,1.18
75.87,-1.40,-2.55,-1.38,-2.54,2.54,2.29,2.99,1.14,1.16,1.15
76.63,-1.40,-2.52,-1.37,-2.50,2.50,2.23,2.90,1.10,1.13,1.12
77.40,-1.37,-2.46,-1.37,-2.46,2.46,2.17,2.82,1.09,1.09,1.09
78.17,-1.36,-2.41,-1.36,-2.42,2.42,2.11,2.74,1.07,1.06,1.05
78.95,-1.35,-2.37,-1.36,-2.38,2.38,2.05,2.66,1.03,1.02,1.02
79.74,-1.35,-2.34,-1.35,-2.34,2.34,2.00,2.58,0.99,0.99,0.99
80.54,-1.35,-2.30,-1.34,-2.30,2.30,1.94,2.51,0.95,0.96,0.95
81.35,-1.35,-2.27,-1.33,-2.26,2.26,1.89,2.43,0.91,0.92,0.92
82.16,-1.35,-2.23,-1.32,-2.21,2.21,1.84,2.35,0.87,0.89,0.88
82.98,-1.31,-2.16,-1.31,-2.17,2.17,1.79,2.28,0.86,0.85,0.85
83.81,-1.31,-2.12,-1.31,-2.12,2.12,1.74,2.21,0.82,0.82,0.81
84.65,-1.31,-2.08,-1.30,-2.08,2.08,1.69,2.13,0.77,0.78,0.77
85.50,-1.30,-2.04,-1.29,-2.03,2.03,1.64,2.06,0.74,0.74,0.74
86.35,-1.27,-1.97,-1.29,-1.99,1.99,1.60,1.99,0.72,0.70,0.70
87.22,-1.27,-1.93,-1.28,-1.94,1.94,1.55,1.92,0.68,0.66,0.66
88.09,-1.27,-1.89,-1.27,-1.90,1.90,1.51,1.86,0.63,0.62,0.62
88.97,-1.27,-1.85,-1.27,-1.85,1.85,1.46,1.79,0.59,0.58,0.58
89.86,-1.27,-1.81,-1.27,-1.81,1.81,1.42,1.72,0.54,0.54,0.54
90.76,-1.27,-1.76,-1.26,-1.76,1.76,1.38,1.66,0.50,0.50,0.49
91.66,-1.27,-1.72,-1.26,-1.72,1.72,1.34,1.60,0.45,0.45,0.45
92.58,-1.27,-1.67,-1.26,-1.67,1.67,1.30,1.54,0.41,0.41,0.40
93.51,-1.27,-1.63,-1.26,-1.63,1.63,1.26,1.48,0.36,0.36,0.36
94.44,-1.27,-1.59,-1.26,-1.58,1.58,1.22,1.42,0.32,0.32,0.32
95.39,-1.27,-1.54,-1.26,-1.54,1.54,1.18,1.36,0.27,0.27,0.27
96.34,-1.27,-1.49,-1.26,-1.49,1.49,1.15,1.30,0.22,0.22,0.22
97.30,-1.27,-1.44,-1.26,-1.44,1.44,1.11,1.24,0.18,0.18,0.17
98.28,-1.27,-1.39,-1.26,-1.40,1.40,1.07,1.19,0.13,0.13,0.12
99.26,-1.27,-1.35,-1.27,-1.35,1.35,1.04,1.13,0.08,0.08,0.08
100.25,-1.27,-1.30,-1.27,-1.30,1.30,1.00,1.08,0.04,0.03,0.03
101.25,-1.27,-1.25,-1.27,-1.26,1.26,0.97,1.03,-0.01,-0.01,-0.02
102.27,-1.27,-1.20,-1.27,-1.21,1.21,0.93,0.97,-0.06,-0.06,-0.07
103.29,-1.27,-1.15,-1.27,-1.16,1.16,0.90,0.92,-0.10,-0.11,-0.12
104.32,-1.27,-1.11,-1.27,-1.11,1.11,0.87,0.87,-0.15,-0.16,-0.16
105.37,-1.27,-1.06,-1.27,-1.07,1.07,0.83,0.82,-0.20,-0.21,-0.21
106.42,-1.29,-1.03,-1.28,-1.02,1.02,0.80,0.78,-0.27,-0.26,-0.26
107.48,-1.29,-0.98,-1.28,-0.97,0.97,0.77,0.73,-0.31,-0.31,-0.31
108.56,-1.29,-0.93,-1.28,-0.92,0.92,0.74,0.68,-0.36,-0.36,-0.36
109.64,-1.29,-0.88,-1.28,-0.87,0.87,0.71,0.64,-0.41,-0.41,-0.41
110.74,-1.29,-0.83,-1.28,-0.82,0.82,0.68,0.59,-0.46,-0.46,-0.46
111.85,-1.29,-0.78,-1.29,-0.77,0.77,0.64,0.55,-0.51,-0.51,-0.51
112.97,-1.29,-0.72,-1.29,-0.72,0.72,0.61,0.51,-0.56,-0.57,-0.57
114.10,-1.29,-0.67,-1.29,-0.67,0.67,0.58,0.46,-0.61,-0.62,-0.62
115.24,-1.29,-0.61,-1.30,-0.62,0.62,0.55,0.42,-0.66,-0.67,-0.68
116.39,-1.31,-0.58,-1.30,-0.58,0.58,0.52,0.38,-0.73,-0.72,-0.73
117.55,-1.31,-0.52,-1.30,-0.53,0.53,0.49,0.34,-0.78,-0.78,-0.79
118.73,-1.31,-0.47,-1.31,-0.48,0.48,0.46,0.31,-0.83,-0.83,-0.84
119.92,-1.31,-0.42,-1.31,-0.43,0.43,0.43,0.27,-0.88,-0.88,-0.89
121.12,-1.31,-0.37,-1.32,-0.38,0.38,0.40,0.23,-0.92,-0.93,-0.94
122.33,-1.31,-0.32,-1.32,-0.33,0.33,0.37,0.20,-0.97,-0.99,-0.99
123.55,-1.34,-0.30,-1.32,-0.29,0.29,0.34,0.17,-1.05,-1.04,-1.04
124.79,-1.35,-0.26,-1.33,-0.24,0.24,0.31,0.13,-1.11,-1.09,-1.09
126.03,-1.35,-0.21,-1.33,-0.19,0.19,0.28,0.10,-1.15,-1.14,-1.14
127.29,-1.35,-0.16,-1.34,-0.15,0.15,0.25,0.07,-1.20,-1.19,-1.19
128.57,-1.35,-0.10,-1.34,-0.10,0.10,0.22,0.04,-1.24,-1.24,-1.25
129.85,-1.35,-0.05,-1.35,-0.06,0.06,0.19,0.01,-1.29,-1.29,-1.30
131.15,-1.35,-0.00,-1.36,-0.01,0.01,0.16,-0.02,-1.33,-1.34,-1.35
132.46,-1.35,0.05,-1.36,0.03,-0.03,0.13,-0.05,-1.38,-1.39,-1.40
133.79,-1.36,0.08,-1.36,0.07,-0.07,0.10,-0.07,-1.43,-1.44,-1.44
135.12,-1.37,0.12,-1.37,0.12,-0.12,0.07,-0.10,-1.48,-1.48,-1.49
136.48,-1.37,0.16,-1.37,0.16,-0.16,0.03,-0.12,-1.52,-1.53,-1.53
137.84,-1.40,0.18,-1.38,0.19,-0.19,0.00,-0.15,-1.59,-1.57,-1.58
139.22,-1.40,0.23,-1.38,0.23,-0.23,-0.03,-0.18,-1.63,-1.62,-1.63
140.61,-1.40,0.27,-1.39,0.26,-0.26,-0.06,-0.20,-1.66,-1.66,-1.67
142.02,-1.40,0.30,-1.40,0.30,-0.30,-0.10,-0.23,-1.69,-1.70,-1.70
143.44,-1.40,0.34,-1.41,0.33,-0.33,-0.13,-0.25,-1.73,-1.74,-1.74
144.87,-1.40,0.38,-1.41,0.36,-0.36,-0.16,-0.27,-1.76,-1.78,-1.78
146.32,-1.41,0.41,-1.42,0.40,-0.40,-0.20,-0.30,-1.80,-1.81,-1.82
147.78,-1.44,0.41,-1.42,0.43,-0.43,-0.23,-0.32,-1.87,-1.85,-1.85
149.26,-1.44,0.45,-1.43,0.47,-0.47,-0.27,-0.35,-1.90,-1.89,-1.89
150.75,-1.44,0.49,-1.43,0.50,-0.50,-0.31,-0.37,-1.94,-1.93,-1.93
152.26,-1.44,0.53,-1.43,0.54,-0.54,-0.34,-0.40,-1.97,-1.97,-1.97
153.78,-1.44,0.57,-1.43,0.57,-0.57,-0.38,-0.42,-2.01,-2.01,-2.01
155.32,-1.44,0.61,-1.44,0.61,-0.61,-0.42,-0.45,-2.05,-2.05,-2.05
156.88,-1.44,0.65,-1.44,0.65,-0.65,-0.46,-0.47,-2.08,-2.08,-2.09
158.44,-1.44,0.69,-1.44,0.68,-0.68,-0.50,-0.50,-2.12,-2.12,-2.13
160.03,-1.44,0.73,-1.44,0.72,-0.72,-0.54,-0.53,-2.16,-2.16,-2.17
161.63,-1.44,0.77,-1.44,0.76,-0.76,-0.58,-0.55,-2.20,-2.20,-2.21
163.24,-1.44,0.81,-1.44,0.80,-0.80,-0.62,-0.58,-2.24,-2.24,-2.25
164.88,-1.44,0.84,-1.43,0.85,-0.85,-0.67,-0.61,-2.28,-2.28,-2.28
166.53,-1.44,0.88,-1.43,0.89,-0.89,-0.71,-0.64,-2.32,-2.32,-2.32
168.19,-1.44,0.92,-1.43,0.92,-0.92,-0.75,-0.67,-2.36,-2.36,-2.36
169.87,-1.44,0.96,-1.43,0.96,-0.96,-0.80,-0.70,-2.40,-2.40,-2.40
171.57,-1.44,1.00,-1.44,1.00,-1.00,-0.84,-0.73,-2.43,-2.43,-2.44
173.29,-1.44,1.03,-1.44,1.03,-1.03,-0.89,-0.76,-2.47,-2.47,-2.47
175.02,-1.44,1.07,-1.44,1.07,-1.07,-0.94,-0.79,-2.50,-2.51,-2.51
176.77,-1.44,1.11,-1.44,1.10,-1.10,-0.98,-0.83,-2.54,-2.55,-2.55
178.54,-1.44,1.15,-1.45,1.14,-1.14,-1.03,-0.86,-2.57,-2.58,-2.59
180.32,-1.44,1.19,-1.45,1.17,-1.17,-1.08,-0.90,-2.61,-2.62,-2.63
182.13,-1.46,1.20,-1.46,1.20,-1.20,-1.12,-0.93,-2.66,-2.66,-2.66
183.95,-1.47,1.23,-1.46,1.23,-1.23,-1.17,-0.97,-2.70,-2.69,-2.70
185.79,-1.48,1.25,-1.46,1.27,-1.27,-1.22,-1.01,-2.74,-2.73,-2.73
187.65,-1.48,1.29,-1.47,1.30,-1.30,-1.26,-1.04,-2.77,-2.76,-2.77
189.52,-1.48,1.32,-1.47,1.32,-1.32,-1.31,-1.08,-2.80,-2.80,-2.80
191.42,-1.48,1.35,-1.48,1.35,-1.35,-1.36,-1.12,-2.83,-2.83,-2.83
193.33,-1.48,1.38,-1.48,1.38,-1.38,-1.40,-1.16,-2.86,-2.86,-2.86
195.27,-1.48,1.41,-1.48,1.41,-1.41,-1.44,-1.20,-2.88,-2.89,-2.89
197.22,-1.48,1.44,-1.48,1.43,-1.43,-1.49,-1.24,-2.91,-2.91,-2.92
199.19,-1.48,1.47,-1.48,1.46,-1.46,-1.53,-1.28,-2.94,-2.94,-2.95
201.18,-1.48,1.49,-1.48,1.49,-1.49,-1.56,-1.33,-2.96,-2.96,-2.97
203.19,-1.48,1.51,-1.47,1.51,-1.51,-1.60,-1.37,-2.99,-2.98,-2.99
205.23,-1.48,1.53,-1.47,1.53,-1.53,-1.63,-1.41,-3.01,-3.00,-3.01
207.28,-1.48,1.54,-1.46,1.56,-1.56,-1.66,-1.45,-3.03,-3.02,-3.02
209.35,-1.48,1.56,-1.46,1.58,-1.58,-1.69,-1.49,-3.05,-3.04,-3.04
211.44,-1.46,1.60,-1.46,1.59,-1.59,-1.72,-1.53,-3.05,-3.05,-3.06
213.56,-1.44,1.63,-1.46,1.61,-1.61,-1.74,-1.57,-3.04,-3.06,-3.07
215.69,-1.44,1.63,-1.45,1.62,-1.62,-1.76,-1.61,-3.06,-3.07,-3.07
217.85,-1.44,1.64,-1.45,1.63,-1.63,-1.78,-1.65,-3.07,-3.08,-3.08
220.03,-1.44,1.65,-1.44,1.64,-1.64,-1.79,-1.68,-3.08,-3.09,-3.09
222.23,-1.44,1.66,-1.44,1.65,-1.65,-1.80,-1.72,-3.09,-3.09,-3.10
224.45,-1.44,1.66,-1.43,1.66,-1.66,-1.80,-1.75,-3.10,-3.09,-3.10
226.70,-1.44,1.66,-1.43,1.67,-1.67,-1.80,-1.78,-3.10,-3.09,-3.10
228.96,-1.44,1.66,-1.42,1.67,-1.67,-1.80,-1.81,-3.11,-3.09,-3.10
231.25,-1.44,1.65,-1.42,1.67,-1.67,-1.79,-1.84,-3.11,-3.09,-3.09
233.57,-1.42,1.67,-1.41,1.67,-1.67,-1.79,-1.87,-3.09,-3.09,-3.09
235.90,-1.40,1.69,-1.41,1.67,-1.67,-1.77,-1.89,-3.06,-3.08,-3.09
238.26,-1.40,1.68,-1.41,1.66,-1.66,-1.76,-1.91,-3.06,-3.08,-3.08
240.64,-1.40,1.67,-1.41,1.66,-1.66,-1.74,-1.92,-3.05,-3.07,-3.07
243.05,-1.40,1.66,-1.40,1.65,-1.65,-1.72,-1.94,-3.05,-3.06,-3.06
245.48,-1.40,1.65,-1.40,1.65,-1.65,-1.70,-1.95,-3.04,-3.05,-3.05
247.93,-1.40,1.64,-1.40,1.64,-1.64,-1.68,-1.95,-3.03,-3.03,-3.04
250.41,-1.40,1.63,-1.39,1.63,-1.63,-1.65,-1.96,-3.02,-3.02,-3.03
252.92,-1.40,1.61,-1.39,1.62,-1.62,-1.63,-1.96,-3.01,-3.00,-3.01
255.45,-1.40,1.59,-1.38,1.61,-1.61,-1.60,-1.95,-3.00,-2.99,-2.99
258.00,-1.40,1.58,-1.38,1.59,-1.59,-1.57,-1.95,-2.99,-2.97,-2.98
260.58,-1.40,1.56,-1.37,1.58,-1.58,-1.54,-1.94,-2.98,-2.95,-2.96
263.19,-1.35,1.59,-1.37,1.57,-1.57,-1.51,-1.93,-2.91,-2.94,-2.94
265.82,-1.35,1.57,-1.36,1.56,-1.56,-1.48,-1.91,-2.90,-2.92,-2.92
268.48,-1.35,1.55,-1.35,1.54,-1.54,-1.45,-1.89,-2.89,-2.90,-2.90
271.16,-1.35,1.53,-1.35,1.53,-1.53,-1.43,-1.87,-2.88,-2.88,-2.88
273.87,-1.35,1.51,-1.34,1.52,-1.52,-1.40,-1.85,-2.87,-2.86,-2.86
276.61,-1.33,1.51,-1.33,1.51,-1.51,-1.37,-1.82,-2.84,-2.84,-2.84
279.38,-1.31,1.51,-1.32,1.50,-1.50,-1.34,-1.79,-2.80,-2.82,-2.82
282.17,-1.31,1.49,-1.31,1.48,-1.48,-1.32,-1.76,-2.79,-2.80,-2.80
284.99,-1.31,1.47,-1.31,1.47,-1.47,-1.29,-1.73,-2.78,-2.78,-2.78
287.84,-1.31,1.45,-1.30,1.46,-1.46,-1.27,-1.70,-2.76,-2.76,-2.76
290.72,-1.31,1.43,-1.30,1.44,-1.44,-1.25,-1.66,-2.75,-2.74,-2.74
293.63,-1.30,1.42,-1.29,1.42,-1.42,-1.23,-1.63,-2.72,-2.71,-2.72
296.57,-1.27,1.43,-1.28,1.41,-1.41,-1.21,-1.59,-2.67,-2.69,-2.70
299.53,-1.27,1.41,-1.28,1.39,-1.39,-1.19,-1.56,-2.66,-2.67,-2.68
302.53,-1.27,1.39,-1.27,1.38,-1.38,-1.18,-1.52,-2.64,-2.65,-2.66
305.55,-1.27,1.36,-1.26,1.36,-1.36,-1.16,-1.48,-2.63,-2.62,-2.63
308.61,-1.27,1.34,-1.25,1.35,-1.35,-1.15,-1.45,-2.61,-2.60,-2.61
311.69,-1.27,1.31,-1.24,1.33,-1.33,-1.14,-1.41,-2.60,-2.58,-2.58
314.81,-1.22,1.33,-1.23,1.32,-1.32,-1.14,-1.37,-2.54,-2.56,-2.55
317.96,-1.22,1.31,-1.22,1.31,-1.31,-1.13,-1.34,-2.53,-2.53,-2.53
321.14,-1.22,1.29,-1.20,1.30,-1.30,-1.13,-1.30,-2.52,-2.51,-2.51
324.35,-1.18,1.31,-1.19,1.30,-1.30,-1.13,-1.26,-2.47,-2.49,-2.49
327.59,-1.18,1.29,-1.17,1.29,-1.29,-1.13,-1.23,-2.47,-2.47,-2.47
330.87,-1.18,1.27,-1.16,1.28,-1.28,-1.14,-1.19,-2.46,-2.44,-2.45
334.18,-1.14,1.29,-1.14,1.28,-1.28,-1.15,-1.16,-2.42,-2.42,-2.43
337.52,-1.14,1.27,-1.12,1.28,-1.28,-1.16,-1.13,-2.41,-2.40,-2.41
340.90,-1.09,1.30,-1.11,1.28,-1.28,-1.17,-1.10,-2.36,-2.38,-2.39
344.30,-1.09,1.28,-1.09,1.28,-1.28,-1.19,-1.06,-2.36,-2.36,-2.37
347.75,-1.07,1.28,-1.07,1.28,-1.28,-1.21,-1.03,-2.34,-2.35,-2.35
351.23,-1.05,1.28,-1.05,1.28,-1.28,-1.23,-1.00,-2.32,-2.33,-2.33
354.74,-1.05,1.26,-1.03,1.28,-1.28,-1.25,-0.97,-2.32,-2.31,-2.31
358.28,-1.01,1.29,-1.01,1.28,-1.28,-1.27,-0.94,-2.28,-2.29,-2.30
361.87,-1.01,1.27,-1.00,1.28,-1.28,-1.30,-0.92,-2.28,-2.28,-2.28
365.49,-0.99,1.27,-0.98,1.28,-1.28,-1.32,-0.89,-2.27,-2.26,-2.26
369.14,-0.96,1.29,-0.96,1.28,-1.28,-1.35,-0.86,-2.24,-2.24,-2.25
372.83,-0.96,1.27,-0.95,1.28,-1.28,-1.37,-0.84,-2.23,-2.23,-2.23
376.56,-0.92,1.30,-0.94,1.28,-1.28,-1.39,-0.81,-2.19,-2.21,-2.22
380.33,-0.92,1.28,-0.93,1.27,-1.27,-1.40,-0.79,-2.19,-2.20,-2.20
384.13,-0.92,1.27,-0.91,1.27,-1.27,-1.42,-0.77,-2.19,-2.19,-2.19
387.97,-0.92,1.26,-0.90,1.27,-1.27,-1.42,-0.74,-2.19,-2.17,-2.18
391.85,-0.88,1.29,-0.89,1.27,-1.27,-1.42,-0.72,-2.14,-2.16,-2.17
395.77,-0.88,1.27,-0.88,1.27,-1.27,-1.42,-0.70,-2.14,-2.15,-2.15
399.73,-0.88,1.26,-0.87,1.26,-1.26,-1.40,-0.68,-2.14,-2.14,-2.14
403.72,-0.88,1.25,-0.87,1.26,-1.26,-1.38,-0.66,-2.14,-2.13,-2.13
407.76,-0.88,1.24,-0.86,1.26,-1.26,-1.35,-0.64,-2.13,-2.12,-2.12
411.84,-0.88,1.23,-0.85,1.25,-1.25,-1.32,-0.63,-2.13,-2.11,-2.11
415.96,-0.85,1.25,-0.85,1.25,-1.25,-1.28,-0.61,-2.09,-2.10,-2.10
420.12,-0.83,1.26,-0.84,1.24,-1.24,-1.24,-0.59,-2.07,-2.08,-2.09
424.32,-0.83,1.25,-0.84,1.24,-1.24,-1.19,-0.58,-2.06,-2.07,-2.08
428.56,-0.83,1.24,-0.83,1.23,-1.23,-1.14,-0.56,-2.06,-2.06,-2.07
432.85,-0.83,1.23,-0.83,1.22,-1.22,-1.09,-0.54,-2.05,-2.05,-2.06
437.18,-0.83,1.22,-0.82,1.22,-1.22,-1.04,-0.53,-2.04,-2.04,-2.05
441.55,-0.83,1.20,-0.82,1.21,-1.21,-1.00,-0.52,-2.03,-2.03,-2.03
445.96,-0.83,1.19,-0.82,1.19,-1.19,-0.95,-0.50,-2.02,-2.02,-2.02
450.42,-0.83,1.18,-0.82,1.18,-1.18,-0.90,-0.49,-2.01,-2.00,-2.01
454.93,-0.83,1.16,-0.82,1.17,-1.17,-0.86,-0.48,-1.99,-1.99,-1.99
459.48,-0.83,1.15,-0.83,1.15,-1.15,-0.81,-0.47,-1.98,-1.98,-1.98
