frequency,raw,error,smoothed,error_smoothed,equalization,parametric_eq,fixed_band_eq,equalized_raw,equalized_smoothed,target
20.00,-2.58,-5.17,-2.58,-5.17,5.19,4.99,2.01,2.61,2.61,2.59
20.20,-2.54,-5.18,-2.54,-5.18,5.19,5.00,2.07,2.65,2.65,2.64
20.40,-2.50,-5.19,-2.50,-5.19,5.18,5.01,2.13,2.68,2.68,2.69
20.61,-2.46,-5.18,-2.46,-5.19,5.18,5.02,2.20,2.71,2.71,2.72
20.81,-2.42,-5.19,-2.42,-5.19,5.17,5.03,2.26,2.75,2.75,2.77
21.02,-2.38,-5.19,-2.38,-5.18,5.16,5.04,2.33,2.78,2.78,2.81
21.23,-2.33,-5.16,-2.34,-5.17,5.15,5.04,2.39,2.82,2.82,2.83
21.44,-2.29,-5.14,-2.29,-5.14,5.14,5.05,2.46,2.85,2.85,2.85
21.66,-2.25,-5.12,-2.25,-5.11,5.13,5.05,2.54,2.87,2.88,2.87
21.87,-2.20,-5.08,-2.21,-5.09,5.11,5.05,2.61,2.91,2.90,2.88
22.09,-2.18,-5.08,-2.19,-5.08,5.10,5.05,2.69,2.92,2.92,2.90
22.31,-2.17,-5.08,-2.17,-5.08,5.09,5.05,2.77,2.91,2.92,2.91
22.54,-2.17,-5.08,-2.17,-5.08,5.07,5.05,2.85,2.90,2.90,2.91
22.76,-2.16,-5.07,-2.17,-5.07,5.06,5.05,2.93,2.89,2.89,2.91
22.99,-2.16,-5.06,-2.15,-5.05,5.04,5.04,3.01,2.87,2.88,2.90
23.22,-2.12,-5.02,-2.13,-5.03,5.01,5.03,3.10,2.89,2.89,2.90
23.45,-2.08,-4.98,-2.09,-4.99,4.98,5.03,3.19,2.90,2.90,2.90
23.69,-2.04,-4.95,-2.04,-4.94,4.95,5.02,3.28,2.91,2.91,2.91
23.92,-1.99,-4.90,-2.00,-4.91,4.92,5.01,3.37,2.93,2.92,2.91
24.16,-1.96,-4.87,-1.97,-4.88,4.89,5.00,3.46,2.92,2.92,2.91
24.40,-1.94,-4.86,-1.94,-4.85,4.86,4.98,3.56,2.91,2.92,2.92
24.65,-1.91,-4.82,-1.92,-4.83,4.83,4.97,3.65,2.92,2.91,2.91
24.89,-1.89,-4.80,-1.89,-4.80,4.80,4.96,3.75,2.91,2.91,2.91
25.14,-1.87,-4.78,-1.87,-4.78,4.78,4.94,3.85,2.90,2.91,2.91
25.39,-1.84,-4.76,-1.84,-4.76,4.75,4.92,3.94,2.91,2.91,2.92
25.65,-1.81,-4.73,-1.82,-4.73,4.73,4.91,4.04,2.91,2.91,2.92
25.91,-1.79,-4.70,-1.79,-4.70,4.70,4.89,4.14,2.91,2.91,2.91
26.16,-1.76,-4.67,-1.77,-4.68,4.67,4.87,4.24,2.91,2.91,2.91
26.43,-1.74,-4.65,-1.74,-4.65,4.65,4.85,4.34,2.91,2.91,2.91
26.69,-1.71,-4.62,-1.71,-4.62,4.63,4.83,4.44,2.92,2.92,2.91
26.96,-1.68,-4.59,-1.69,-4.60,4.61,4.81,4.53,2.93,2.92,2.91
27.23,-1.68,-4.59,-1.68,-4.59,4.60,4.78,4.63,2.92,2.92,2.91
27.50,-1.68,-4.59,-1.68,-4.59,4.59,4.76,4.72,2.91,2.91,2.91
27.77,-1.68,-4.58,-1.68,-4.59,4.58,4.74,4.81,2.90,2.90,2.90
28.05,-1.68,-4.58,-1.68,-4.58,4.57,4.71,4.89,2.89,2.89,2.90
28.33,-1.67,-4.56,-1.68,-4.57,4.56,4.69,4.97,2.89,2.88,2.89
28.62,-1.66,-4.55,-1.66,-4.56,4.54,4.67,5.05,2.88,2.88,2.89
28.90,-1.64,-4.54,-1.64,-4.53,4.52,4.64,5.12,2.87,2.87,2.90
29.19,-1.61,-4.50,-1.61,-4.50,4.49,4.62,5.19,2.88,2.88,2.89
29.48,-1.56,-4.46,-1.56,-4.46,4.46,4.59,5.25,2.90,2.90,2.90
29.78,-1.52,-4.41,-1.52,-4.42,4.43,4.56,5.30,2.91,2.91,2.89
30.08,-1.48,-4.38,-1.49,-4.39,4.41,4.54,5.35,2.93,2.92,2.90
30.38,-1.48,-4.37,-1.48,-4.37,4.39,4.51,5.39,2.91,2.91,2.89
30.68,-1.48,-4.37,-1.48,-4.37,4.38,4.49,5.42,2.90,2.90,2.89
30.99,-1.48,-4.37,-1.48,-4.37,4.37,4.46,5.44,2.88,2.88,2.89
31.30,-1.48,-4.36,-1.49,-4.37,4.36,4.44,5.46,2.87,2.87,2.88
31.61,-1.48,-4.36,-1.49,-4.37,4.34,4.41,5.47,2.86,2.86,2.88
31.93,-1.48,-4.36,-1.48,-4.35,4.33,4.38,5.47,2.85,2.85,2.88
32.24,-1.46,-4.33,-1.46,-4.33,4.32,4.36,5.47,2.85,2.86,2.87
32.57,-1.42,-4.29,-1.43,-4.30,4.30,4.33,5.45,2.88,2.87,2.87
32.89,-1.39,-4.26,-1.40,-4.27,4.28,4.31,5.43,2.89,2.88,2.87
33.22,-1.38,-4.24,-1.38,-4.25,4.26,4.29,5.41,2.88,2.88,2.86
33.55,-1.38,-4.24,-1.38,-4.24,4.25,4.26,5.37,2.86,2.87,2.86
33.89,-1.38,-4.23,-1.38,-4.23,4.23,4.24,5.33,2.85,2.85,2.85
34.23,-1.38,-4.23,-1.38,-4.23,4.22,4.22,5.29,2.84,2.84,2.85
34.57,-1.38,-4.22,-1.38,-4.22,4.22,4.20,5.24,2.84,2.84,2.84
34.92,-1.38,-4.22,-1.38,-4.22,4.22,4.18,5.19,2.84,2.84,2.84
35.27,-1.38,-4.21,-1.38,-4.21,4.22,4.16,5.14,2.84,2.84,2.83
35.62,-1.38,-4.21,-1.38,-4.21,4.22,4.14,5.08,2.83,2.83,2.83
35.97,-1.38,-4.21,-1.38,-4.21,4.21,4.12,5.02,2.83,2.83,2.83
36.33,-1.38,-4.21,-1.39,-4.21,4.20,4.10,4.95,2.82,2.82,2.83
36.70,-1.38,-4.20,-1.38,-4.20,4.19,4.09,4.89,2.80,2.81,2.82
37.06,-1.37,-4.19,-1.37,-4.19,4.17,4.07,4.83,2.80,2.81,2.82
37.43,-1.34,-4.17,-1.34,-4.16,4.16,4.06,4.76,2.82,2.82,2.83
37.81,-1.30,-4.13,-1.31,-4.14,4.15,4.05,4.70,2.84,2.84,2.83
38.19,-1.28,-4.10,-1.29,-4.12,4.13,4.04,4.63,2.85,2.85,2.82
38.57,-1.28,-4.11,-1.28,-4.11,4.12,4.03,4.57,2.84,2.84,2.83
38.95,-1.28,-4.12,-1.28,-4.11,4.12,4.02,4.51,2.83,2.83,2.84
39.34,-1.28,-4.11,-1.28,-4.12,4.11,4.01,4.45,2.83,2.83,2.83
39.74,-1.28,-4.11,-1.28,-4.11,4.11,4.01,4.39,2.82,2.82,2.83
40.14,-1.28,-4.11,-1.28,-4.11,4.11,4.01,4.33,2.82,2.82,2.83
40.54,-1.28,-4.11,-1.28,-4.11,4.10,4.01,4.27,2.82,2.82,2.83
40.94,-1.28,-4.10,-1.28,-4.11,4.10,4.01,4.22,2.82,2.82,2.82
41.35,-1.28,-4.10,-1.28,-4.10,4.10,4.01,4.17,2.81,2.81,2.82
41.76,-1.28,-4.09,-1.28,-4.10,4.10,4.01,4.12,2.81,2.81,2.81
42.18,-1.28,-4.09,-1.28,-4.09,4.10,4.02,4.08,2.81,2.82,2.81
42.60,-1.28,-4.08,-1.28,-4.08,4.10,4.02,4.04,2.82,2.82,2.80
43.03,-1.28,-4.07,-1.30,-4.09,4.10,4.03,4.00,2.82,2.80,2.79
43.46,-1.33,-4.11,-1.33,-4.11,4.10,4.04,3.96,2.77,2.77,2.78
43.90,-1.37,-4.13,-1.36,-4.12,4.10,4.05,3.93,2.73,2.74,2.76
44.33,-1.38,-4.12,-1.38,-4.12,4.10,4.07,3.90,2.72,2.72,2.74
44.78,-1.38,-4.10,-1.39,-4.11,4.09,4.08,3.87,2.71,2.71,2.72
45.23,-1.38,-4.09,-1.38,-4.09,4.09,4.10,3.85,2.71,2.71,2.71
45.68,-1.38,-4.08,-1.38,-4.08,4.09,4.12,3.83,2.70,2.71,2.70
46.13,-1.38,-4.06,-1.38,-4.07,4.09,4.14,3.81,2.70,2.71,2.68
46.60,-1.38,-4.06,-1.38,-4.06,4.08,4.16,3.79,2.70,2.70,2.68
47.06,-1.39,-4.05,-1.41,-4.07,4.08,4.18,3.78,2.69,2.68,2.66
47.53,-1.43,-4.08,-1.44,-4.09,4.08,4.21,3.77,2.65,2.65,2.65
48.01,-1.48,-4.13,-1.47,-4.11,4.09,4.23,3.76,2.60,2.62,2.65
48.49,-1.48,-4.11,-1.48,-4.11,4.09,4.25,3.76,2.60,2.60,2.63
48.97,-1.48,-4.09,-1.49,-4.10,4.08,4.28,3.75,2.60,2.59,2.61
49.46,-1.48,-4.07,-1.48,-4.07,4.08,4.30,3.75,2.59,2.59,2.59
49.96,-1.48,-4.05,-1.48,-4.06,4.07,4.32,3.75,2.58,2.58,2.57
50.46,-1.48,-4.04,-1.48,-4.04,4.05,4.34,3.76,2.57,2.57,2.56
50.96,-1.48,-4.03,-1.48,-4.03,4.03,4.36,3.76,2.55,2.55,2.55
51.47,-1.48,-4.01,-1.48,-4.01,4.02,4.38,3.77,2.53,2.53,2.53
51.99,-1.48,-4.00,-1.48,-4.00,4.00,4.39,3.78,2.52,2.52,2.52
52.51,-1.48,-3.99,-1.48,-3.99,3.99,4.40,3.78,2.50,2.50,2.51
53.03,-1.48,-3.99,-1.48,-3.99,3.98,4.41,3.79,2.49,2.49,2.51
53.56,-1.48,-3.97,-1.48,-3.97,3.96,4.41,3.80,2.48,2.48,2.49
54.10,-1.48,-3.96,-1.48,-3.96,3.96,4.41,3.81,2.47,2.47,2.48
54.64,-1.48,-3.94,-1.48,-3.95,3.95,4.40,3.82,2.47,2.47,2.46
55.18,-1.49,-3.95,-1.49,-3.94,3.96,4.39,3.83,2.47,2.47,2.46
55.74,-1.50,-3.94,-1.51,-3.96,3.97,4.37,3.84,2.47,2.46,2.44
56.29,-1.55,-3.98,-1.56,-3.99,4.00,4.35,3.84,2.44,2.44,2.43
56.86,-1.61,-4.03,-1.60,-4.01,4.03,4.32,3.85,2.41,2.43,2.42
57.42,-1.66,-4.05,-1.66,-4.06,4.07,4.29,3.85,2.40,2.41,2.39
58.00,-1.70,-4.08,-1.72,-4.10,4.11,4.25,3.85,2.41,2.39,2.38
58.58,-1.78,-4.15,-1.78,-4.15,4.15,4.21,3.84,2.37,2.37,2.37
59.16,-1.85,-4.20,-1.83,-4.18,4.18,4.16,3.84,2.32,2.34,2.35
59.76,-1.87,-4.20,-1.90,-4.22,4.19,4.10,3.83,2.32,2.30,2.33
60.35,-1.92,-4.21,-1.93,-4.22,4.19,4.04,3.81,2.27,2.26,2.29
60.96,-1.98,-4.23,-1.94,-4.19,4.17,3.98,3.80,2.19,2.23,2.25
61.57,-1.92,-4.13,-1.94,-4.14,4.13,3.91,3.78,2.21,2.20,2.21
62.18,-1.88,-4.05,-1.91,-4.08,4.08,3.84,3.75,2.20,2.17,2.17
62.80,-1.88,-4.00,-1.87,-3.99,4.01,3.76,3.72,2.12,2.14,2.12
63.43,-1.84,-3.92,-1.84,-3.91,3.92,3.68,3.69,2.08,2.08,2.08
64.07,-1.78,-3.81,-1.79,-3.83,3.82,3.60,3.65,2.04,2.03,2.03
64.71,-1.74,-3.73,-1.74,-3.73,3.72,3.52,3.61,1.98,1.98,1.99
65.35,-1.68,-3.63,-1.68,-3.63,3.62,3.44,3.56,1.94,1.94,1.95
66.01,-1.62,-3.52,-1.61,-3.51,3.52,3.36,3.51,1.90,1.91,1.90
66.67,-1.53,-3.38,-1.54,-3.40,3.41,3.27,3.46,1.88,1.87,1.85
67.33,-1.47,-3.27,-1.48,-3.29,3.30,3.19,3.40,1.83,1.82,1.80
68.01,-1.44,-3.20,-1.43,-3.19,3.19,3.11,3.34,1.75,1.76,1.76
68.69,-1.38,-3.09,-1.39,-3.10,3.07,3.03,3.28,1.69,1.68,1.71
69.37,-1.32,-2.98,-1.32,-2.98,2.96,2.94,3.21,1.63,1.63,1.66
70.07,-1.27,-2.88,-1.24,-2.85,2.84,2.86,3.15,1.57,1.60,1.61
70.77,-1.13,-2.69,-1.16,-2.72,2.73,2.78,3.08,1.59,1.56,1.56
71.48,-1.08,-2.59,-1.10,-2.60,2.62,2.71,3.00,1.53,1.52,1.51
72.19,-1.07,-2.51,-1.05,-2.49,2.51,2.63,2.93,1.44,1.46,1.44
72.91,-1.02,-2.40,-1.02,-2.41,2.41,2.55,2.85,1.39,1.39,1.38
73.64,-0.98,-2.31,-0.99,-2.32,2.32,2.48,2.78,1.34,1.33,1.33
74.38,-0.97,-2.24,-0.97,-2.24,2.25,2.41,2.70,1.27,1.27,1.27
75.12,-0.97,-2.18,-0.97,-2.18,2.18,2.34,2.62,1.21,1.21,1.21
75.87,-0.97,-2.12,-0.97,-2.12,2.12,2.27,2.55,1.15,1.15,1.15
76.63,-0.97,-2.07,-0.97,-2.07,2.07,2.20,2.47,1.09,1.09,1.10
77.40,-0.97,-2.02,-0.97,-2.02,2.01,2.13,2.39,1.04,1.04,1.05
78.17,-0.97,-1.96,-0.97,-1.97,1.96,2.07,2.31,0.99,0.99,0.99
78.95,-0.97,-1.92,-0.97,-1.92,1.92,2.01,2.24,0.94,0.94,0.95
79.74,-0.97,-1.87,-0.97,-1.87,1.87,1.95,2.16,0.90,0.90,0.90
80.54,-0.97,-1.82,-0.97,-1.82,1.82,1.89,2.09,0.85,0.85,0.85
81.35,-0.97,-1.77,-0.97,-1.77,1.78,1.83,2.01,0.80,0.80,0.80
82.16,-0.97,-1.72,-0.98,-1.73,1.73,1.78,1.94,0.76,0.75,0.75
82.98,-0.98,-1.69,-0.98,-1.68,1.69,1.72,1.86,0.70,0.71,0.71
83.81,-0.98,-1.64,-0.98,-1.64,1.64,1.67,1.79,0.66,0.66,0.66
84.65,-0.98,-1.59,-0.98,-1.60,1.59,1.62,1.72,0.61,0.61,0.61
85.50,-0.98,-1.55,-0.98,-1.55,1.54,1.57,1.65,0.56,0.56,0.57
86.35,-0.97,-1.49,-0.98,-1.50,1.49,1.52,1.58,0.52,0.52,0.52
87.22,-0.97,-1.44,-0.97,-1.44,1.44,1.47,1.51,0.47,0.47,0.47
88.09,-0.97,-1.39,-0.97,-1.39,1.39,1.43,1.45,0.42,0.42,0.42
88.97,-0.97,-1.33,-0.97,-1.34,1.34,1.38,1.38,0.36,0.36,0.36
89.86,-0.97,-1.28,-0.97,-1.28,1.28,1.34,1.32,0.31,0.31,0.31
90.76,-0.97,-1.23,-0.97,-1.23,1.23,1.29,1.25,0.26,0.26,0.26
91.66,-0.97,-1.18,-0.97,-1.18,1.18,1.25,1.19,0.20,0.20,0.21
92.58,-0.97,-1.12,-0.97,-1.13,1.13,1.21,1.13,0.15,0.15,0.15
93.51,-0.97,-1.07,-0.97,-1.08,1.08,1.17,1.07,0.10,0.10,0.10
94.44,-0.97,-1.03,-0.97,-1.03,1.03,1.13,1.01,0.05,0.05,0.06
95.39,-0.97,-0.98,-0.97,-0.98,0.98,1.10,0.95,0.01,0.01,0.01
96.34,-0.97,-0.93,-0.98,-0.94,0.94,1.06,0.89,-0.03,-0.04,-0.04
97.30,-0.98,-0.89,-0.98,-0.89,0.90,1.02,0.83,-0.08,-0.08,-0.09
98.28,-0.99,-0.85,-0.99,-0.85,0.86,0.99,0.78,-0.13,-0.13,-0.14
99.26,-1.00,-0.82,-1.01,-0.82,0.83,0.95,0.72,-0.18,-0.18,-0.18
100.25,-1.02,-0.79,-1.02,-0.79,0.79,0.92,0.67,-0.23,-0.23,-0.23
101.25,-1.04,-0.76,-1.04,-0.76,0.75,0.88,0.62,-0.30,-0.29,-0.28
102.27,-1.05,-0.72,-1.06,-0.73,0.71,0.85,0.57,-0.35,-0.35,-0.33
103.29,-1.06,-0.68,-1.05,-0.68,0.66,0.82,0.52,-0.40,-0.39,-0.38
104.32,-1.05,-0.63,-1.04,-0.62,0.62,0.79,0.47,-0.43,-0.42,-0.42
105.37,-1.01,-0.54,-1.03,-0.56,0.58,0.75,0.42,-0.44,-0.46,-0.47
106.42,-1.03,-0.51,-1.03,-0.51,0.53,0.72,0.37,-0.50,-0.50,-0.52
107.48,-1.05,-0.47,-1.05,-0.47,0.49,0.69,0.32,-0.56,-0.56,-0.58
108.56,-1.08,-0.45,-1.08,-0.45,0.45,0.66,0.28,-0.63,-0.63,-0.63
109.64,-1.10,-0.42,-1.10,-0.42,0.41,0.63,0.23,-0.69,-0.69,-0.68
110.74,-1.12,-0.38,-1.12,-0.39,0.37,0.60,0.19,-0.75,-0.75,-0.74
111.85,-1.14,-0.36,-1.14,-0.35,0.33,0.57,0.14,-0.81,-0.80,-0.78
112.97,-1.14,-0.30,-1.15,-0.31,0.30,0.54,0.10,-0.85,-0.85,-0.84
114.10,-1.15,-0.26,-1.15,-0.26,0.26,0.52,0.06,-0.89,-0.89,-0.89
115.24,-1.15,-0.21,-1.15,-0.21,0.22,0.49,0.02,-0.93,-0.93,-0.94
116.39,-1.15,-0.16,-1.15,-0.16,0.19,0.46,-0.02,-0.96,-0.96,-0.99
117.55,-1.15,-0.12,-1.17,-0.14,0.16,0.43,-0.05,-1.00,-1.01,-1.03
118.73,-1.18,-0.11,-1.19,-0.12,0.13,0.40,-0.09,-1.06,-1.07,-1.07
119.92,-1.24,-0.14,-1.22,-0.11,0.10,0.37,-0.12,-1.14,-1.12,-1.10
121.12,-1.23,-0.09,-1.23,-0.09,0.07,0.34,-0.16,-1.16,-1.16,-1.14
122.33,-1.22,-0.05,-1.23,-0.06,0.05,0.32,-0.19,-1.18,-1.19,-1.17
123.55,-1.21,-0.01,-1.22,-0.01,0.02,0.29,-0.22,-1.20,-1.20,-1.20
124.79,-1.21,0.02,-1.21,0.02,-0.02,0.26,-0.25,-1.23,-1.22,-1.23
126.03,-1.20,0.06,-1.20,0.05,-0.05,0.23,-0.28,-1.25,-1.25,-1.26
127.29,-1.19,0.09,-1.20,0.09,-0.09,0.20,-0.30,-1.28,-1.29,-1.28
128.57,-1.19,0.13,-1.19,0.13,-0.13,0.17,-0.33,-1.32,-1.32,-1.32
129.85,-1.18,0.17,-1.18,0.17,-0.17,0.14,-0.35,-1.35,-1.35,-1.35
131.15,-1.17,0.21,-1.18,0.20,-0.21,0.11,-0.38,-1.38,-1.38,-1.38
132.46,-1.17,0.24,-1.17,0.24,-0.24,0.08,-0.40,-1.42,-1.41,-1.41
133.79,-1.17,0.27,-1.17,0.27,-0.27,0.05,-0.42,-1.45,-1.44,-1.44
135.12,-1.16,0.31,-1.16,0.30,-0.30,0.02,-0.44,-1.46,-1.46,-1.47
136.48,-1.16,0.33,-1.16,0.34,-0.32,-0.01,-0.46,-1.48,-1.48,-1.49
137.84,-1.16,0.37,-1.17,0.36,-0.34,-0.04,-0.48,-1.50,-1.51,-1.53
139.22,-1.18,0.38,-1.19,0.36,-0.35,-0.07,-0.50,-1.54,-1.55,-1.56
140.61,-1.23,0.36,-1.22,0.37,-0.37,-0.11,-0.52,-1.60,-1.59,-1.59
142.02,-1.25,0.36,-1.25,0.37,-0.39,-0.14,-0.54,-1.64,-1.63,-1.61
143.44,-1.25,0.39,-1.26,0.39,-0.41,-0.18,-0.56,-1.66,-1.66,-1.64
144.87,-1.25,0.43,-1.26,0.42,-0.44,-0.21,-0.57,-1.69,-1.69,-1.68
146.32,-1.25,0.47,-1.25,0.46,-0.47,-0.25,-0.59,-1.72,-1.72,-1.72
147.78,-1.25,0.50,-1.25,0.50,-0.51,-0.28,-0.61,-1.77,-1.77,-1.75
149.26,-1.25,0.55,-1.25,0.55,-0.56,-0.32,-0.63,-1.81,-1.81,-1.80
150.75,-1.25,0.61,-1.25,0.61,-0.60,-0.36,-0.64,-1.86,-1.85,-1.86
152.26,-1.25,0.68,-1.25,0.68,-0.65,-0.40,-0.66,-1.91,-1.91,-1.93
153.78,-1.26,0.74,-1.28,0.72,-0.70,-0.45,-0.68,-1.96,-1.98,-2.00
155.32,-1.32,0.75,-1.33,0.75,-0.74,-0.49,-0.70,-2.06,-2.07,-2.07
156.88,-1.39,0.76,-1.39,0.77,-0.78,-0.53,-0.72,-2.17,-2.16,-2.15
158.44,-1.44,0.79,-1.43,0.81,-0.81,-0.58,-0.74,-2.25,-2.24,-2.23
160.03,-1.45,0.86,-1.45,0.86,-0.85,-0.63,-0.75,-2.30,-2.30,-2.31
161.63,-1.45,0.93,-1.48,0.89,-0.89,-0.68,-0.78,-2.34,-2.37,-2.38
163.24,-1.52,0.92,-1.52,0.92,-0.93,-0.73,-0.80,-2.45,-2.45,-2.44
164.88,-1.56,0.93,-1.54,0.95,-0.98,-0.78,-0.82,-2.55,-2.53,-2.49
166.53,-1.54,1.00,-1.54,1.00,-1.04,-0.84,-0.84,-2.58,-2.58,-2.54
168.19,-1.49,1.09,-1.49,1.09,-1.09,-0.90,-0.86,-2.59,-2.59,-2.58
169.87,-1.43,1.19,-1.44,1.18,-1.15,-0.96,-0.89,-2.58,-2.59,-2.62
171.57,-1.39,1.25,-1.41,1.23,-1.20,-1.02,-0.91,-2.59,-2.61,-2.64
173.29,-1.39,1.26,-1.39,1.27,-1.25,-1.08,-0.94,-2.64,-2.64,-2.65
175.02,-1.39,1.27,-1.36,1.30,-1.29,-1.15,-0.96,-2.68,-2.65,-2.66
176.77,-1.31,1.36,-1.34,1.34,-1.32,-1.22,-0.99,-2.64,-2.66,-2.67
178.54,-1.30,1.38,-1.31,1.36,-1.35,-1.29,-1.02,-2.66,-2.66,-2.68
180.32,-1.29,1.38,-1.29,1.38,-1.38,-1.36,-1.05,-2.67,-2.67,-2.67
182.13,-1.29,1.37,-1.28,1.39,-1.41,-1.44,-1.08,-2.70,-2.69,-2.66
183.95,-1.25,1.42,-1.25,1.42,-1.45,-1.51,-1.11,-2.70,-2.69,-2.67
185.79,-1.18,1.49,-1.20,1.47,-1.49,-1.59,-1.14,-2.67,-2.69,-2.67
187.65,-1.15,1.54,-1.15,1.54,-1.54,-1.67,-1.17,-2.70,-2.69,-2.69
189.52,-1.10,1.60,-1.10,1.60,-1.60,-1.75,-1.20,-2.71,-2.70,-2.70
191.42,-1.04,1.68,-1.04,1.68,-1.67,-1.83,-1.23,-2.72,-2.72,-2.72
193.33,-0.98,1.76,-0.99,1.75,-1.75,-1.91,-1.27,-2.73,-2.74,-2.74
195.27,-0.92,1.84,-0.92,1.84,-1.83,-1.99,-1.30,-2.76,-2.76,-2.76
197.22,-0.87,1.91,-0.87,1.91,-1.92,-2.07,-1.34,-2.79,-2.79,-2.78
199.19,-0.80,2.00,-0.82,1.98,-2.00,-2.14,-1.37,-2.81,-2.82,-2.80
201.18,-0.76,2.06,-0.75,2.07,-2.08,-2.22,-1.41,-2.85,-2.83,-2.82
203.19,-0.69,2.15,-0.68,2.16,-2.15,-2.29,-1.45,-2.85,-2.83,-2.84
205.23,-0.59,2.27,-0.61,2.24,-2.22,-2.35,-1.48,-2.81,-2.83,-2.86
207.28,-0.55,2.32,-0.57,2.31,-2.27,-2.41,-1.52,-2.83,-2.84,-2.87
209.35,-0.55,2.34,-0.55,2.35,-2.32,-2.46,-1.55,-2.88,-2.87,-2.89
211.44,-0.56,2.36,-0.56,2.35,-2.37,-2.50,-1.59,-2.93,-2.93,-2.92
213.56,-0.56,2.37,-0.56,2.37,-2.41,-2.54,-1.62,-2.97,-2.97,-2.93
215.69,-0.56,2.38,-0.54,2.40,-2.43,-2.56,-1.66,-3.00,-2.97,-2.94
217.85,-0.49,2.46,-0.51,2.45,-2.45,-2.58,-1.69,-2.94,-2.96,-2.95
220.03,-0.46,2.50,-0.48,2.49,-2.46,-2.59,-1.73,-2.93,-2.94,-2.96
222.23,-0.46,2.53,-0.46,2.52,-2.48,-2.58,-1.76,-2.94,-2.94,-2.99
224.45,-0.47,2.51,-0.47,2.52,-2.50,-2.57,-1.79,-2.97,-2.97,-2.98
226.70,-0.47,2.51,-0.48,2.51,-2.52,-2.55,-1.82,-2.99,-3.00,-2.98
228.96,-0.47,2.50,-0.48,2.49,-2.54,-2.52,-1.84,-3.01,-3.02,-2.97
231.25,-0.46,2.50,-0.45,2.51,-2.56,-2.48,-1.87,-3.02,-3.01,-2.96
233.57,-0.42,2.53,-0.40,2.55,-2.57,-2.44,-1.89,-2.99,-2.97,-2.95
235.90,-0.31,2.63,-0.35,2.60,-2.58,-2.39,-1.91,-2.89,-2.92,-2.94
238.26,-0.29,2.64,-0.31,2.62,-2.58,-2.33,-1.93,-2.88,-2.89,-2.93
240.64,-0.30,2.60,-0.29,2.62,-2.58,-2.27,-1.95,-2.89,-2.87,-2.90
243.05,-0.29,2.58,-0.28,2.60,-2.57,-2.21,-1.96,-2.87,-2.85,-2.87
245.48,-0.27,2.58,-0.29,2.56,-2.56,-2.14,-1.97,-2.83,-2.85,-2.85
247.93,-0.28,2.54,-0.31,2.51,-2.53,-2.08,-1.98,-2.82,-2.84,-2.82
250.41,-0.37,2.43,-0.33,2.47,-2.50,-2.01,-1.98,-2.87,-2.82,-2.80
252.92,-0.34,2.43,-0.33,2.44,-2.46,-1.94,-1.98,-2.80,-2.79,-2.77
255.45,-0.31,2.44,-0.35,2.41,-2.41,-1.87,-1.98,-2.73,-2.76,-2.75
258.00,-0.33,2.40,-0.37,2.36,-2.37,-1.80,-1.98,-2.70,-2.73,-2.73
260.58,-0.44,2.27,-0.38,2.33,-2.31,-1.73,-1.97,-2.75,-2.69,-2.71
263.19,-0.43,2.25,-0.42,2.27,-2.25,-1.67,-1.96,-2.68,-2.67,-2.68
265.82,-0.38,2.28,-0.46,2.20,-2.18,-1.60,-1.95,-2.56,-2.64,-2.66
268.48,-0.55,2.09,-0.53,2.11,-2.10,-1.54,-1.94,-2.65,-2.63,-2.64
271.16,-0.64,1.97,-0.62,2.00,-2.00,-1.48,-1.92,-2.65,-2.62,-2.61
273.87,-0.72,1.87,-0.70,1.89,-1.90,-1.42,-1.90,-2.62,-2.59,-2.59
276.61,-0.72,1.84,-0.76,1.80,-1.78,-1.36,-1.88,-2.51,-2.54,-2.56
279.38,-0.81,1.72,-0.85,1.69,-1.67,-1.30,-1.86,-2.49,-2.52,-2.53
282.17,-0.98,1.53,-0.94,1.56,-1.57,-1.24,-1.84,-2.55,-2.51,-2.51
284.99,-1.05,1.42,-1.03,1.44,-1.47,-1.19,-1.81,-2.52,-2.51,-2.47
287.84,-1.09,1.36,-1.11,1.34,-1.38,-1.14,-1.79,-2.47,-2.49,-2.45
290.72,-1.12,1.30,-1.17,1.25,-1.29,-1.08,-1.76,-2.41,-2.46,-2.42
293.63,-1.24,1.15,-1.18,1.21,-1.20,-1.03,-1.73,-2.45,-2.38,-2.39
296.57,-1.23,1.13,-1.20,1.16,-1.12,-0.98,-1.70,-2.36,-2.32,-2.36
299.53,-1.15,1.18,-1.27,1.07,-1.04,-0.93,-1.68,-2.20,-2.31,-2.33
302.53,-1.33,0.98,-1.33,0.97,-0.96,-0.88,-1.65,-2.30,-2.29,-2.31
305.55,-1.52,0.75,-1.41,0.86,-0.87,-0.83,-1.62,-2.39,-2.28,-2.27
308.61,-1.45,0.80,-1.50,0.75,-0.77,-0.78,-1.59,-2.22,-2.27,-2.25
311.69,-1.50,0.72,-1.54,0.68,-0.66,-0.72,-1.56,-2.16,-2.20,-2.22
314.81,-1.62,0.58,-1.61,0.60,-0.54,-0.67,-1.53,-2.17,-2.15,-2.20
317.96,-1.73,0.45,-1.74,0.44,-0.43,-0.61,-1.51,-2.16,-2.17,-2.18
321.14,-1.86,0.31,-1.87,0.30,-0.33,-0.56,-1.48,-2.19,-2.19,-2.17
324.35,-1.98,0.17,-1.96,0.19,-0.23,-0.50,-1.45,-2.21,-2.19,-2.15
327.59,-2.03,0.11,-2.03,0.11,-0.14,-0.44,-1.43,-2.17,-2.16,-2.14
330.87,-2.05,0.08,-2.07,0.06,-0.06,-0.37,-1.40,-2.11,-2.12,-2.13
334.18,-2.09,0.02,-2.11,0.01,0.01,-0.31,-1.38,-2.09,-2.10,-2.11
337.52,-2.14,-0.04,-2.15,-0.05,0.05,-0.25,-1.36,-2.10,-2.10,-2.10
340.90,-2.19,-0.10,-2.17,-0.08,0.06,-0.19,-1.34,-2.13,-2.10,-2.09
344.30,-2.16,-0.08,-2.17,-0.08,0.06,-0.13,-1.32,-2.10,-2.10,-2.08
347.75,-2.12,-0.04,-2.14,-0.07,0.05,-0.07,-1.30,-2.07,-2.10,-2.08
351.23,-2.11,-0.04,-2.11,-0.03,0.02,-0.03,-1.28,-2.09,-2.08,-2.07
354.74,-2.07,0.01,-2.06,0.02,-0.01,0.01,-1.26,-2.09,-2.07,-2.08
358.28,-2.00,0.07,-2.00,0.07,-0.06,0.03,-1.24,-2.07,-2.06,-2.07
361.87,-1.92,0.15,-1.95,0.12,-0.12,0.04,-1.22,-2.04,-2.07,-2.07
365.49,-1.89,0.17,-1.90,0.17,-0.17,0.04,-1.21,-2.06,-2.07,-2.06
369.14,-1.88,0.19,-1.85,0.22,-0.22,0.02,-1.20,-2.10,-2.07,-2.07
372.83,-1.80,0.27,-1.81,0.26,-0.25,-0.01,-1.18,-2.05,-2.06,-2.07
376.56,-1.76,0.32,-1.77,0.30,-0.27,-0.04,-1.17,-2.03,-2.04,-2.08
380.33,-1.75,0.32,-1.76,0.32,-0.28,-0.09,-1.16,-2.03,-2.04,-2.07
384.13,-1.77,0.30,-1.78,0.30,-0.28,-0.14,-1.15,-2.06,-2.06,-2.07
387.97,-1.82,0.26,-1.81,0.27,-0.28,-0.19,-1.14,-2.10,-2.09,-2.08
391.85,-1.84,0.25,-1.84,0.25,-0.27,-0.25,-1.13,-2.12,-2.11,-2.09
395.77,-1.84,0.24,-1.85,0.24,-0.26,-0.30,-1.12,-2.11,-2.11,-2.08
399.73,-1.84,0.25,-1.84,0.25,-0.25,-0.35,-1.12,-2.09,-2.10,-2.09
403.72,-1.84,0.25,-1.84,0.25,-0.24,-0.41,-1.11,-2.09,-2.09,-2.09
407.76,-1.84,0.27,-1.85,0.26,-0.24,-0.45,-1.10,-2.09,-2.09,-2.11
411.84,-1.85,0.26,-1.85,0.26,-0.25,-0.50,-1.10,-2.10,-2.10,-2.11
415.96,-1.85,0.26,-1.86,0.26,-0.26,-0.54,-1.10,-2.11,-2.12,-2.11
420.12,-1.85,0.26,-1.84,0.27,-0.28,-0.58,-1.09,-2.13,-2.12,-2.11
424.32,-1.81,0.30,-1.81,0.30,-0.30,-0.62,-1.09,-2.12,-2.11,-2.11
428.56,-1.75,0.35,-1.77,0.33,-0.34,-0.66,-1.09,-2.09,-2.11,-2.10
432.85,-1.72,0.37,-1.72,0.37,-0.38,-0.70,-1.09,-2.11,-2.11,-2.09
437.18,-1.67,0.41,-1.65,0.42,-0.44,-0.73,-1.08,-2.11,-2.09,-2.08
441.55,-1.55,0.49,-1.55,0.50,-0.51,-0.77,-1.08,-2.06,-2.06,-2.04
445.96,-1.42,0.59,-1.43,0.59,-0.58,-0.80,-1.08,-2.00,-2.00,-2.01
450.42,-1.28,0.70,-1.31,0.66,-0.65,-0.83,-1.08,-1.94,-1.96,-1.98
454.93,-1.20,0.73,-1.19,0.74,-0.73,-0.87,-1.08,-1.93,-1.92,-1.93
459.48,-1.11,0.78,-1.07,0.82,-0.81,-0.90,-1.08,-1.92,-1.88,-1.89
464.07,-0.91,0.93,-0.96,0.88,-0.88,-0.93,-1.08,-1.80,-1.84,-1.84
468.71,-0.82,0.96,-0.83,0.96,-0.96,-0.96,-1.08,-1.78,-1.79,-1.78
