frequency,raw,error,smoothed,error_smoothed,equalization,parametric_eq,fixed_band_eq,equalized_raw,equalized_smoothed,target
20.00,12.29,0.73,12.27,0.72,-0.72,-0.14,-0.28,11.57,11.56,11.55
20.20,12.29,0.74,12.28,0.73,-0.73,-0.15,-0.28,11.55,11.55,11.54
20.40,12.29,0.76,12.28,0.75,-0.75,-0.15,-0.29,11.54,11.54,11.53
20.61,12.29,0.76,12.29,0.76,-0.76,-0.15,-0.30,11.53,11.53,11.53
20.81,12.29,0.78,12.29,0.77,-0.77,-0.16,-0.30,11.51,11.52,11.51
21.02,12.29,0.78,12.29,0.79,-0.79,-0.16,-0.31,11.50,11.51,11.51
21.23,12.29,0.79,12.30,0.79,-0.79,-0.16,-0.32,11.49,11.50,11.50
21.44,12.29,0.78,12.30,0.80,-0.80,-0.17,-0.33,11.48,11.49,11.51
21.66,12.29,0.79,12.30,0.81,-0.81,-0.17,-0.33,11.48,11.49,11.50
21.87,12.29,0.80,12.30,0.82,-0.82,-0.17,-0.34,11.47,11.48,11.49
22.09,12.29,0.81,12.30,0.82,-0.82,-0.18,-0.35,11.47,11.47,11.47
22.31,12.29,0.81,12.29,0.83,-0.83,-0.18,-0.36,11.46,11.47,11.47
22.54,12.29,0.82,12.29,0.83,-0.83,-0.18,-0.37,11.46,11.46,11.46
22.76,12.29,0.83,12.29,0.84,-0.84,-0.19,-0.38,11.45,11.46,11.46
22.99,12.29,0.84,12.29,0.84,-0.84,-0.19,-0.39,11.45,11.45,11.45
23.22,12.29,0.85,12.29,0.84,-0.84,-0.19,-0.39,11.45,11.45,11.44
23.45,12.29,0.84,12.28,0.83,-0.83,-0.20,-0.40,11.45,11.45,11.45
23.69,12.29,0.85,12.27,0.83,-0.83,-0.20,-0.41,11.46,11.44,11.44
23.92,12.29,0.85,12.26,0.82,-0.82,-0.21,-0.42,11.47,11.44,11.43
24.16,12.27,0.82,12.25,0.80,-0.80,-0.21,-0.43,11.46,11.44,11.44
24.40,12.25,0.80,12.23,0.79,-0.79,-0.22,-0.44,11.46,11.44,11.45
24.65,12.22,0.77,12.21,0.77,-0.77,-0.22,-0.45,11.45,11.44,11.45
24.89,12.20,0.75,12.19,0.75,-0.75,-0.22,-0.46,11.45,11.45,11.45
25.14,12.18,0.73,12.18,0.73,-0.73,-0.23,-0.47,11.45,11.45,11.45
25.39,12.15,0.70,12.16,0.71,-0.71,-0.23,-0.48,11.44,11.45,11.45
25.65,12.12,0.67,12.14,0.69,-0.69,-0.24,-0.49,11.43,11.45,11.44
25.91,12.10,0.65,12.13,0.67,-0.67,-0.24,-0.50,11.42,11.45,11.45
26.16,12.09,0.63,12.11,0.66,-0.66,-0.25,-0.51,11.43,11.45,11.46
26.43,12.09,0.63,12.10,0.65,-0.65,-0.25,-0.53,11.44,11.45,11.46
26.69,12.09,0.63,12.09,0.64,-0.64,-0.26,-0.54,11.45,11.45,11.46
26.96,12.09,0.63,12.09,0.63,-0.63,-0.26,-0.55,11.45,11.45,11.45
27.23,12.09,0.64,12.08,0.63,-0.63,-0.27,-0.56,11.46,11.45,11.45
27.50,12.09,0.64,12.08,0.63,-0.63,-0.27,-0.57,11.46,11.45,11.45
27.77,12.09,0.63,12.08,0.63,-0.63,-0.28,-0.58,11.46,11.45,11.46
28.05,12.09,0.63,12.08,0.63,-0.63,-0.28,-0.59,11.46,11.45,11.45
28.33,12.09,0.65,12.09,0.64,-0.64,-0.29,-0.60,11.45,11.45,11.44
28.62,12.09,0.65,12.09,0.65,-0.65,-0.30,-0.61,11.44,11.45,11.44
28.90,12.09,0.64,12.10,0.65,-0.65,-0.30,-0.62,11.44,11.44,11.44
29.19,12.09,0.65,12.10,0.66,-0.66,-0.31,-0.62,11.43,11.44,11.44
29.48,12.09,0.65,12.10,0.66,-0.66,-0.31,-0.63,11.43,11.44,11.44
29.78,12.09,0.65,12.09,0.66,-0.66,-0.32,-0.64,11.43,11.43,11.43
30.08,12.09,0.65,12.09,0.66,-0.66,-0.33,-0.65,11.43,11.43,11.44
30.38,12.09,0.66,12.07,0.65,-0.65,-0.33,-0.66,11.43,11.42,11.43
30.68,12.09,0.67,12.06,0.65,-0.65,-0.34,-0.67,11.44,11.41,11.41
30.99,12.09,0.68,12.05,0.64,-0.64,-0.35,-0.67,11.45,11.41,11.41
31.30,12.06,0.66,12.03,0.63,-0.63,-0.35,-0.68,11.43,11.40,11.40
31.61,12.03,0.64,12.01,0.62,-0.62,-0.36,-0.69,11.41,11.39,11.39
31.93,12.00,0.62,11.99,0.61,-0.61,-0.37,-0.69,11.39,11.38,11.38
32.24,11.97,0.59,11.97,0.60,-0.60,-0.38,-0.70,11.37,11.37,11.37
32.57,11.93,0.57,11.96,0.59,-0.59,-0.38,-0.70,11.34,11.37,11.36
32.89,11.90,0.54,11.94,0.58,-0.58,-0.39,-0.71,11.32,11.36,11.35
33.22,11.89,0.54,11.93,0.57,-0.57,-0.40,-0.71,11.31,11.35,11.35
33.55,11.89,0.54,11.92,0.57,-0.57,-0.41,-0.72,11.32,11.35,11.34
33.89,11.89,0.54,11.91,0.56,-0.56,-0.42,-0.72,11.32,11.34,11.35
34.23,11.89,0.56,11.90,0.56,-0.56,-0.42,-0.73,11.33,11.34,11.33
34.57,11.89,0.56,11.89,0.56,-0.56,-0.43,-0.73,11.33,11.33,11.33
34.92,11.89,0.57,11.88,0.56,-0.56,-0.44,-0.74,11.33,11.32,11.32
35.27,11.89,0.57,11.87,0.55,-0.55,-0.45,-0.74,11.34,11.31,11.32
35.62,11.89,0.58,11.85,0.55,-0.55,-0.46,-0.75,11.34,11.30,11.31
35.97,11.89,0.59,11.84,0.55,-0.55,-0.47,-0.75,11.34,11.29,11.30
36.33,11.87,0.59,11.83,0.55,-0.55,-0.48,-0.76,11.32,11.28,11.28
36.70,11.84,0.57,11.81,0.55,-0.55,-0.49,-0.76,11.29,11.26,11.26
37.06,11.81,0.56,11.79,0.55,-0.55,-0.50,-0.77,11.25,11.24,11.25
37.43,11.76,0.54,11.78,0.56,-0.56,-0.51,-0.77,11.20,11.22,11.22
37.81,11.71,0.51,11.76,0.57,-0.57,-0.52,-0.78,11.14,11.19,11.20
38.19,11.69,0.52,11.75,0.58,-0.58,-0.53,-0.79,11.11,11.17,11.17
38.57,11.69,0.55,11.73,0.59,-0.59,-0.54,-0.79,11.10,11.14,11.14
38.95,11.69,0.57,11.72,0.60,-0.60,-0.55,-0.80,11.09,11.11,11.11
39.34,11.69,0.61,11.70,0.61,-0.61,-0.56,-0.81,11.07,11.08,11.07
39.74,11.69,0.63,11.68,0.62,-0.62,-0.57,-0.82,11.06,11.06,11.05
40.14,11.69,0.66,11.66,0.64,-0.64,-0.58,-0.83,11.05,11.03,11.02
40.54,11.69,0.70,11.64,0.65,-0.65,-0.59,-0.84,11.04,10.99,10.99
40.94,11.69,0.73,11.63,0.66,-0.66,-0.61,-0.85,11.02,10.97,10.96
41.35,11.66,0.72,11.61,0.68,-0.68,-0.62,-0.86,10.98,10.94,10.94
41.76,11.63,0.73,11.60,0.70,-0.70,-0.63,-0.87,10.93,10.91,10.90
42.18,11.59,0.71,11.59,0.71,-0.71,-0.64,-0.88,10.87,10.88,10.87
42.60,11.54,0.69,11.58,0.73,-0.73,-0.66,-0.89,10.81,10.85,10.85
43.03,11.49,0.67,11.56,0.74,-0.74,-0.67,-0.91,10.75,10.82,10.82
43.46,11.49,0.70,11.54,0.75,-0.75,-0.68,-0.92,10.74,10.79,10.78
43.90,11.49,0.73,11.52,0.76,-0.76,-0.70,-0.94,10.73,10.76,10.76
44.33,11.49,0.76,11.49,0.77,-0.77,-0.71,-0.95,10.72,10.73,10.72
44.78,11.49,0.80,11.47,0.78,-0.78,-0.72,-0.97,10.71,10.69,10.69
45.23,11.49,0.82,11.45,0.79,-0.79,-0.74,-0.98,10.70,10.66,10.67
45.68,11.49,0.86,11.43,0.81,-0.81,-0.75,-1.00,10.68,10.62,10.63
46.13,11.48,0.90,11.41,0.84,-0.84,-0.77,-1.02,10.64,10.58,10.58
46.60,11.42,0.88,11.40,0.87,-0.87,-0.78,-1.04,10.55,10.54,10.54
47.06,11.37,0.87,11.39,0.89,-0.89,-0.80,-1.06,10.47,10.49,10.50
47.53,11.33,0.87,11.37,0.92,-0.92,-0.81,-1.08,10.40,10.45,10.46
48.01,11.29,0.89,11.35,0.95,-0.95,-0.83,-1.10,10.34,10.40,10.40
48.49,11.29,0.94,11.32,0.97,-0.97,-0.85,-1.12,10.32,10.35,10.35
48.97,11.29,0.99,11.30,0.99,-0.99,-0.86,-1.14,10.30,10.30,10.30
49.46,11.29,1.03,11.27,1.02,-1.02,-0.88,-1.17,10.27,10.26,10.26
49.96,11.29,1.10,11.25,1.04,-1.04,-0.90,-1.19,10.24,10.21,10.19
50.46,11.27,1.13,11.23,1.07,-1.07,-0.92,-1.21,10.19,10.15,10.14
50.96,11.25,1.15,11.20,1.10,-1.10,-0.93,-1.24,10.15,10.10,10.10
51.47,11.18,1.12,11.18,1.13,-1.13,-0.95,-1.26,10.05,10.05,10.05
51.99,11.11,1.11,11.15,1.16,-1.16,-0.97,-1.29,9.95,10.00,10.00
52.51,11.10,1.15,11.13,1.18,-1.18,-0.99,-1.31,9.91,9.95,9.95
53.03,11.09,1.18,11.10,1.21,-1.21,-1.01,-1.34,9.88,9.89,9.91
53.56,11.09,1.23,11.08,1.23,-1.23,-1.03,-1.36,9.85,9.84,9.85
54.10,11.08,1.28,11.05,1.26,-1.26,-1.05,-1.39,9.82,9.79,9.79
54.64,11.05,1.30,11.02,1.28,-1.28,-1.07,-1.41,9.77,9.74,9.74
55.18,11.01,1.33,10.99,1.30,-1.30,-1.09,-1.44,9.71,9.70,9.68
55.74,10.93,1.30,10.96,1.31,-1.31,-1.11,-1.47,9.61,9.65,9.63
56.29,10.90,1.31,10.94,1.34,-1.34,-1.14,-1.49,9.56,9.60,9.59
56.86,10.89,1.35,10.91,1.36,-1.36,-1.16,-1.52,9.52,9.55,9.54
57.42,10.89,1.41,10.89,1.39,-1.39,-1.18,-1.54,9.49,9.50,9.48
58.00,10.89,1.45,10.86,1.42,-1.42,-1.20,-1.56,9.46,9.44,9.44
58.58,10.87,1.47,10.83,1.45,-1.45,-1.23,-1.59,9.42,9.39,9.40
59.16,10.83,1.47,10.80,1.47,-1.47,-1.25,-1.61,9.36,9.33,9.35
59.76,10.77,1.47,10.77,1.49,-1.49,-1.28,-1.63,9.27,9.27,9.30
60.35,10.72,1.49,10.74,1.52,-1.52,-1.30,-1.65,9.20,9.22,9.23
60.96,10.69,1.52,10.71,1.55,-1.55,-1.33,-1.67,9.14,9.16,9.17
61.57,10.69,1.59,10.68,1.59,-1.59,-1.35,-1.69,9.10,9.09,9.10
62.18,10.68,1.66,10.65,1.62,-1.62,-1.38,-1.71,9.05,9.03,9.02
62.80,10.64,1.69,10.62,1.66,-1.66,-1.40,-1.73,8.98,8.96,8.95
63.43,10.58,1.70,10.58,1.69,-1.69,-1.43,-1.75,8.89,8.90,8.88
64.07,10.52,1.70,10.55,1.72,-1.72,-1.46,-1.77,8.80,8.83,8.82
64.71,10.49,1.74,10.52,1.76,-1.76,-1.49,-1.78,8.73,8.76,8.75
65.35,10.48,1.79,10.49,1.80,-1.80,-1.51,-1.80,8.68,8.69,8.69
66.01,10.48,1.86,10.46,1.84,-1.84,-1.54,-1.81,8.64,8.62,8.62
66.67,10.45,1.88,10.43,1.88,-1.88,-1.57,-1.83,8.57,8.55,8.57
67.33,10.42,1.94,10.40,1.92,-1.92,-1.60,-1.84,8.50,8.48,8.48
68.01,10.38,1.96,10.37,1.96,-1.96,-1.63,-1.86,8.42,8.41,8.41
68.69,10.31,1.97,10.34,2.00,-2.00,-1.66,-1.87,8.31,8.34,8.34
69.37,10.28,2.00,10.30,2.04,-2.04,-1.70,-1.88,8.24,8.27,8.28
70.07,10.28,2.08,10.27,2.07,-2.07,-1.73,-1.90,8.20,8.20,8.20
70.77,10.28,2.15,10.24,2.11,-2.11,-1.76,-1.91,8.16,8.12,8.13
71.48,10.23,2.17,10.20,2.15,-2.15,-1.79,-1.93,8.07,8.05,8.06
72.19,10.16,2.19,10.17,2.19,-2.19,-1.83,-1.94,7.97,7.97,7.97
72.91,10.09,2.19,10.13,2.23,-2.23,-1.86,-1.96,7.86,7.90,7.90
73.64,10.08,2.26,10.09,2.26,-2.26,-1.90,-1.97,7.82,7.83,7.82
74.38,10.08,2.32,10.05,2.29,-2.29,-1.93,-1.99,7.79,7.76,7.75
75.12,10.06,2.38,10.01,2.33,-2.33,-1.97,-2.01,7.73,7.69,7.67
75.87,9.95,2.33,9.98,2.36,-2.36,-2.00,-2.03,7.58,7.62,7.61
76.63,9.90,2.36,9.94,2.39,-2.39,-2.04,-2.05,7.50,7.55,7.54
77.40,9.88,2.40,9.90,2.42,-2.42,-2.08,-2.07,7.46,7.48,7.48
78.17,9.88,2.47,9.86,2.45,-2.45,-2.12,-2.09,7.43,7.41,7.41
78.95,9.86,2.51,9.82,2.47,-2.47,-2.15,-2.12,7.38,7.35,7.35
79.74,9.80,2.51,9.78,2.50,-2.50,-2.19,-2.14,7.29,7.28,7.28
80.54,9.73,2.51,9.74,2.53,-2.53,-2.23,-2.17,7.20,7.21,7.22
81.35,9.68,2.53,9.70,2.56,-2.56,-2.27,-2.20,7.12,7.15,7.15
82.16,9.68,2.59,9.66,2.58,-2.58,-2.31,-2.23,7.10,7.08,7.09
82.98,9.68,2.66,9.62,2.60,-2.60,-2.35,-2.26,7.07,7.01,7.02
83.81,9.55,2.60,9.57,2.63,-2.63,-2.39,-2.29,6.92,6.94,6.95
84.65,9.49,2.61,9.53,2.66,-2.66,-2.44,-2.33,6.83,6.87,6.87
85.50,9.48,2.69,9.49,2.68,-2.68,-2.48,-2.36,6.79,6.80,6.79
86.35,9.46,2.73,9.44,2.71,-2.71,-2.52,-2.40,6.75,6.73,6.72
87.22,9.42,2.76,9.39,2.74,-2.74,-2.57,-2.44,6.68,6.66,6.66
88.09,9.36,2.78,9.35,2.77,-2.77,-2.61,-2.49,6.59,6.58,6.58
88.97,9.28,2.76,9.31,2.80,-2.80,-2.65,-2.53,6.48,6.51,6.51
89.86,9.28,2.85,9.27,2.83,-2.83,-2.70,-2.58,6.44,6.43,6.42
90.76,9.22,2.86,9.23,2.87,-2.87,-2.74,-2.63,6.34,6.35,6.36
91.66,9.17,2.90,9.18,2.91,-2.91,-2.79,-2.68,6.25,6.27,6.27
92.58,9.11,2.91,9.14,2.95,-2.95,-2.83,-2.73,6.15,6.19,6.19
93.51,9.08,2.96,9.10,3.00,-3.00,-2.88,-2.78,6.08,6.10,6.11
94.44,9.08,3.05,9.06,3.04,-3.04,-2.93,-2.84,6.04,6.02,6.03
95.39,9.05,3.11,9.01,3.08,-3.08,-2.97,-2.90,5.97,5.93,5.94
96.34,8.97,3.12,8.96,3.12,-3.12,-3.02,-2.96,5.84,5.84,5.85
97.30,8.91,3.15,8.92,3.17,-3.17,-3.07,-3.02,5.74,5.75,5.75
98.28,8.86,3.20,8.87,3.21,-3.21,-3.11,-3.08,5.65,5.66,5.66
99.26,8.85,3.29,8.81,3.24,-3.24,-3.16,-3.14,5.60,5.56,5.55
100.25,8.80,3.34,8.74,3.27,-3.27,-3.21,-3.21,5.53,5.47,5.46
101.25,8.67,3.29,8.68,3.30,-3.30,-3.26,-3.27,5.37,5.38,5.37
102.27,8.59,3.31,8.61,3.33,-3.33,-3.30,-3.34,5.26,5.28,5.28
103.29,8.55,3.36,8.54,3.35,-3.35,-3.35,-3.40,5.20,5.19,5.18
104.32,8.50,3.40,8.47,3.37,-3.37,-3.40,-3.47,5.12,5.09,5.10
105.37,8.41,3.40,8.40,3.40,-3.40,-3.45,-3.54,5.01,5.00,5.00
106.42,8.31,3.40,8.33,3.42,-3.42,-3.49,-3.60,4.89,4.91,4.91
107.48,8.23,3.42,8.25,3.44,-3.44,-3.54,-3.67,4.79,4.81,4.80
108.56,8.14,3.41,8.18,3.46,-3.46,-3.59,-3.73,4.68,4.72,4.73
109.64,8.06,3.43,8.10,3.47,-3.47,-3.63,-3.80,4.58,4.63,4.63
110.74,8.03,3.49,8.04,3.50,-3.50,-3.68,-3.86,4.53,4.54,4.54
111.85,8.01,3.56,7.97,3.52,-3.52,-3.73,-3.92,4.49,4.45,4.45
112.97,7.95,3.58,7.92,3.55,-3.55,-3.77,-3.98,4.39,4.36,4.37
114.10,7.89,3.60,7.86,3.58,-3.58,-3.82,-4.03,4.31,4.28,4.28
115.24,7.81,3.62,7.80,3.61,-3.61,-3.86,-4.08,4.20,4.19,4.19
116.39,7.73,3.63,7.75,3.64,-3.64,-3.90,-4.13,4.09,4.11,4.10
117.55,7.64,3.61,7.70,3.67,-3.67,-3.95,-4.17,3.97,4.03,4.02
118.73,7.60,3.67,7.65,3.70,-3.70,-3.99,-4.21,3.90,3.95,3.93
119.92,7.61,3.75,7.60,3.73,-3.73,-4.03,-4.25,3.88,3.87,3.86
121.12,7.60,3.80,7.55,3.76,-3.76,-4.07,-4.28,3.84,3.79,3.80
122.33,7.54,3.82,7.51,3.79,-3.79,-4.11,-4.31,3.75,3.72,3.72
123.55,7.47,3.82,7.46,3.81,-3.81,-4.15,-4.33,3.65,3.64,3.65
124.79,7.42,3.84,7.41,3.84,-3.84,-4.18,-4.34,3.58,3.57,3.58
126.03,7.35,3.84,7.36,3.87,-3.87,-4.22,-4.35,3.48,3.49,3.50
127.29,7.29,3.86,7.32,3.89,-3.89,-4.25,-4.36,3.39,3.42,3.43
128.57,7.26,3.91,7.27,3.92,-3.92,-4.28,-4.36,3.34,3.35,3.35
129.85,7.26,3.98,7.22,3.94,-3.94,-4.31,-4.36,3.32,3.28,3.28
131.15,7.18,3.98,7.17,3.97,-3.97,-4.34,-4.35,3.21,3.21,3.20
132.46,7.10,3.97,7.12,3.98,-3.98,-4.37,-4.33,3.11,3.13,3.13
133.79,7.07,4.01,7.06,4.00,-4.00,-4.40,-4.32,3.07,3.06,3.06
135.12,7.02,4.03,7.00,4.02,-4.02,-4.42,-4.30,3.00,2.99,2.98
136.48,6.96,4.03,6.95,4.04,-4.04,-4.44,-4.27,2.92,2.92,2.92
137.84,6.89,4.03,6.90,4.05,-4.05,-4.47,-4.25,2.83,2.85,2.86
139.22,6.83,4.06,6.85,4.07,-4.07,-4.48,-4.22,2.76,2.78,2.77
140.61,6.79,4.08,6.79,4.08,-4.08,-4.50,-4.18,2.70,2.71,2.71
142.02,6.72,4.08,6.73,4.10,-4.10,-4.52,-4.15,2.62,2.64,2.64
143.44,6.70,4.14,6.67,4.11,-4.11,-4.53,-4.12,2.59,2.57,2.56
144.87,6.66,4.16,6.62,4.11,-4.11,-4.54,-4.08,2.54,2.50,2.50
146.32,6.54,4.10,6.56,4.13,-4.13,-4.55,-4.04,2.41,2.43,2.44
147.78,6.48,4.11,6.50,4.14,-4.14,-4.55,-4.01,2.34,2.37,2.37
149.26,6.45,4.15,6.44,4.14,-4.14,-4.56,-3.97,2.30,2.30,2.30
150.75,6.39,4.17,6.38,4.15,-4.15,-4.56,-3.93,2.23,2.23,2.22
152.26,6.32,4.16,6.32,4.16,-4.16,-4.56,-3.90,2.16,2.16,2.16
153.78,6.27,4.17,6.26,4.17,-4.17,-4.56,-3.86,2.10,2.09,2.10
155.32,6.21,4.17,6.20,4.18,-4.18,-4.55,-3.83,2.03,2.02,2.03
156.88,6.14,4.18,6.14,4.19,-4.19,-4.54,-3.80,1.95,1.95,1.96
158.44,6.09,4.20,6.08,4.19,-4.19,-4.54,-3.76,1.89,1.89,1.89
160.03,6.01,4.19,6.02,4.20,-4.20,-4.52,-3.74,1.81,1.82,1.82
161.63,5.95,4.20,5.96,4.21,-4.21,-4.51,-3.71,1.74,1.75,1.75
163.24,5.90,4.23,5.89,4.22,-4.22,-4.50,-3.69,1.68,1.67,1.67
164.88,5.82,4.21,5.83,4.22,-4.22,-4.48,-3.66,1.60,1.60,1.61
166.53,5.78,4.25,5.76,4.22,-4.22,-4.46,-3.64,1.55,1.53,1.53
168.19,5.70,4.23,5.69,4.23,-4.23,-4.44,-3.63,1.47,1.46,1.47
169.87,5.66,4.26,5.63,4.23,-4.23,-4.41,-3.61,1.42,1.39,1.40
171.57,5.58,4.25,5.56,4.24,-4.24,-4.39,-3.60,1.34,1.33,1.32
173.29,5.48,4.22,5.50,4.24,-4.24,-4.36,-3.59,1.23,1.26,1.25
175.02,5.44,4.24,5.44,4.25,-4.25,-4.33,-3.59,1.19,1.19,1.20
176.77,5.40,4.27,5.38,4.25,-4.25,-4.30,-3.58,1.15,1.13,1.13
178.54,5.27,4.21,5.32,4.25,-4.25,-4.27,-3.58,1.02,1.07,1.06
180.32,5.24,4.24,5.26,4.25,-4.25,-4.24,-3.58,0.98,1.01,1.00
182.13,5.21,4.26,5.21,4.26,-4.26,-4.20,-3.59,0.95,0.95,0.94
183.95,5.15,4.26,5.15,4.27,-4.27,-4.17,-3.60,0.88,0.89,0.89
185.79,5.11,4.28,5.11,4.27,-4.27,-4.13,-3.61,0.83,0.83,0.83
187.65,5.07,4.29,5.06,4.28,-4.28,-4.09,-3.62,0.79,0.78,0.78
189.52,5.01,4.29,5.01,4.29,-4.29,-4.05,-3.64,0.72,0.72,0.72
191.42,4.95,4.27,4.96,4.29,-4.29,-4.01,-3.66,0.66,0.67,0.68
193.33,4.91,4.28,4.91,4.29,-4.29,-3.97,-3.68,0.61,0.62,0.63
195.27,4.86,4.29,4.86,4.29,-4.29,-3.92,-3.70,0.56,0.57,0.57
197.22,4.83,4.31,4.81,4.29,-4.29,-3.88,-3.72,0.54,0.52,0.52
199.19,4.78,4.31,4.76,4.29,-4.29,-3.83,-3.75,0.49,0.47,0.47
201.18,4.75,4.33,4.70,4.28,-4.28,-3.79,-3.78,0.47,0.43,0.42
203.19,4.67,4.29,4.64,4.27,-4.27,-3.74,-3.81,0.40,0.38,0.38
205.23,4.59,4.25,4.58,4.25,-4.25,-3.70,-3.84,0.33,0.33,0.34
207.28,4.51,4.21,4.52,4.24,-4.24,-3.65,-3.87,0.27,0.29,0.30
209.35,4.45,4.20,4.46,4.22,-4.22,-3.60,-3.90,0.23,0.24,0.25
211.44,4.39,4.19,4.39,4.20,-4.20,-3.55,-3.93,0.19,0.20,0.20
213.56,4.32,4.16,4.33,4.17,-4.17,-3.50,-3.96,0.14,0.15,0.16
215.69,4.27,4.15,4.26,4.15,-4.15,-3.45,-4.00,0.12,0.11,0.12
217.85,4.18,4.10,4.19,4.12,-4.12,-3.40,-4.03,0.06,0.07,0.08
220.03,4.11,4.08,4.12,4.08,-4.08,-3.36,-4.06,0.03,0.04,0.03
222.23,4.06,4.07,4.05,4.05,-4.05,-3.31,-4.08,0.01,0.00,-0.01
224.45,3.98,4.02,3.98,4.01,-4.01,-3.26,-4.11,-0.03,-0.03,-0.04
226.70,3.93,4.00,3.92,3.98,-3.98,-3.21,-4.13,-0.05,-0.06,-0.07
228.96,3.85,3.94,3.85,3.94,-3.94,-3.16,-4.15,-0.09,-0.09,-0.09
231.25,3.80,3.91,3.79,3.90,-3.90,-3.11,-4.17,-0.10,-0.12,-0.12
233.57,3.76,3.90,3.73,3.86,-3.86,-3.06,-4.18,-0.11,-0.14,-0.15
235.90,3.65,3.81,3.67,3.83,-3.83,-3.01,-4.19,-0.18,-0.16,-0.16
238.26,3.59,3.77,3.62,3.79,-3.79,-2.96,-4.20,-0.20,-0.17,-0.18
240.64,3.53,3.71,3.57,3.75,-3.75,-2.91,-4.19,-0.23,-0.19,-0.18
243.05,3.49,3.69,3.51,3.72,-3.72,-2.86,-4.19,-0.23,-0.20,-0.20
245.48,3.46,3.67,3.46,3.67,-3.67,-2.81,-4.18,-0.22,-0.21,-0.22
247.93,3.40,3.63,3.41,3.63,-3.63,-2.76,-4.16,-0.24,-0.22,-0.23
250.41,3.37,3.60,3.36,3.59,-3.59,-2.71,-4.14,-0.23,-0.23,-0.23
252.92,3.30,3.53,3.31,3.55,-3.55,-2.67,-4.11,-0.26,-0.25,-0.23
255.45,3.32,3.58,3.26,3.52,-3.52,-2.62,-4.08,-0.20,-0.26,-0.26
258.00,3.28,3.54,3.21,3.48,-3.48,-2.57,-4.04,-0.20,-0.27,-0.26
260.58,3.19,3.46,3.16,3.44,-3.44,-2.52,-4.00,-0.25,-0.28,-0.28
263.19,3.09,3.38,3.11,3.41,-3.41,-2.48,-3.95,-0.32,-0.30,-0.29
265.82,3.03,3.34,3.05,3.37,-3.37,-2.43,-3.89,-0.34,-0.31,-0.31
268.48,2.95,3.27,3.00,3.33,-3.33,-2.39,-3.84,-0.38,-0.33,-0.32
271.16,2.92,3.26,2.94,3.28,-3.28,-2.34,-3.77,-0.36,-0.35,-0.35
273.87,2.92,3.27,2.88,3.24,-3.24,-2.30,-3.70,-0.32,-0.36,-0.36
276.61,2.82,3.20,2.81,3.19,-3.19,-2.25,-3.63,-0.37,-0.37,-0.38
279.38,2.74,3.15,2.75,3.14,-3.14,-2.21,-3.56,-0.40,-0.39,-0.41
282.17,2.72,3.13,2.69,3.09,-3.09,-2.16,-3.48,-0.37,-0.40,-0.41
284.99,2.65,3.07,2.63,3.04,-3.04,-2.12,-3.40,-0.39,-0.41,-0.42
287.84,2.54,2.96,2.57,2.99,-2.99,-2.08,-3.32,-0.45,-0.42,-0.42
290.72,2.54,2.97,2.52,2.95,-2.95,-2.03,-3.24,-0.41,-0.43,-0.44
293.63,2.43,2.86,2.47,2.90,-2.90,-1.99,-3.15,-0.47,-0.43,-0.44
296.57,2.38,2.81,2.40,2.85,-2.85,-1.95,-3.06,-0.47,-0.44,-0.43
299.53,2.38,2.82,2.35,2.79,-2.79,-1.91,-2.98,-0.41,-0.44,-0.44
302.53,2.29,2.73,2.28,2.73,-2.73,-1.87,-2.89,-0.45,-0.45,-0.44
305.55,2.21,2.66,2.23,2.68,-2.68,-1.83,-2.80,-0.47,-0.45,-0.45
308.61,2.21,2.65,2.18,2.63,-2.63,-1.79,-2.71,-0.43,-0.46,-0.45
311.69,2.14,2.60,2.12,2.58,-2.58,-1.75,-2.62,-0.44,-0.46,-0.46
314.81,2.05,2.51,2.07,2.53,-2.53,-1.71,-2.53,-0.48,-0.46,-0.46
317.96,2.02,2.49,2.01,2.48,-2.48,-1.67,-2.45,-0.46,-0.47,-0.48
321.14,1.96,2.43,1.96,2.43,-2.43,-1.63,-2.36,-0.47,-0.47,-0.47
324.35,1.84,2.32,1.90,2.37,-2.37,-1.59,-2.27,-0.53,-0.48,-0.48
327.59,1.82,2.29,1.83,2.31,-2.31,-1.56,-2.19,-0.49,-0.48,-0.47
330.87,1.81,2.29,1.76,2.24,-2.24,-1.52,-2.10,-0.44,-0.48,-0.48
334.18,1.74,2.23,1.69,2.18,-2.18,-1.48,-2.02,-0.44,-0.49,-0.49
337.52,1.69,2.18,1.62,2.11,-2.11,-1.44,-1.94,-0.42,-0.49,-0.49
340.90,1.56,2.05,1.56,2.04,-2.04,-1.41,-1.86,-0.49,-0.49,-0.49
344.30,1.49,1.98,1.49,1.98,-1.98,-1.37,-1.78,-0.49,-0.49,-0.49
347.75,1.43,1.91,1.42,1.91,-1.91,-1.34,-1.70,-0.48,-0.49,-0.48
351.23,1.36,1.86,1.36,1.85,-1.85,-1.30,-1.62,-0.49,-0.49,-0.50
354.74,1.26,1.74,1.30,1.78,-1.78,-1.27,-1.54,-0.53,-0.48,-0.48
358.28,1.14,1.62,1.24,1.72,-1.72,-1.23,-1.47,-0.58,-0.48,-0.49
361.87,1.12,1.60,1.18,1.66,-1.66,-1.20,-1.39,-0.54,-0.48,-0.48
365.49,1.13,1.60,1.12,1.60,-1.60,-1.17,-1.32,-0.47,-0.48,-0.47
369.14,1.10,1.57,1.06,1.53,-1.53,-1.13,-1.25,-0.44,-0.47,-0.47
372.83,1.05,1.51,1.01,1.48,-1.48,-1.10,-1.18,-0.43,-0.47,-0.46
376.56,0.98,1.44,0.96,1.43,-1.43,-1.06,-1.11,-0.45,-0.47,-0.46
380.33,0.94,1.41,0.91,1.38,-1.38,-1.03,-1.04,-0.44,-0.47,-0.47
384.13,0.88,1.34,0.86,1.33,-1.33,-1.00,-0.97,-0.45,-0.47,-0.46
387.97,0.81,1.27,0.80,1.28,-1.28,-0.97,-0.90,-0.47,-0.47,-0.46
391.85,0.75,1.21,0.75,1.22,-1.22,-0.93,-0.84,-0.48,-0.48,-0.47
395.77,0.69,1.17,0.69,1.17,-1.17,-0.90,-0.78,-0.48,-0.48,-0.48
399.73,0.62,1.10,0.63,1.12,-1.12,-0.87,-0.71,-0.50,-0.49,-0.48
403.72,0.57,1.04,0.56,1.05,-1.05,-0.84,-0.65,-0.49,-0.49,-0.48
407.76,0.49,0.99,0.49,0.99,-0.99,-0.81,-0.59,-0.50,-0.50,-0.50
411.84,0.46,0.96,0.42,0.92,-0.92,-0.77,-0.53,-0.46,-0.50,-0.50
415.96,0.39,0.89,0.36,0.86,-0.86,-0.74,-0.47,-0.47,-0.50,-0.50
420.12,0.31,0.82,0.30,0.80,-0.80,-0.71,-0.41,-0.50,-0.50,-0.51
424.32,0.27,0.77,0.25,0.74,-0.74,-0.68,-0.36,-0.48,-0.49,-0.51
428.56,0.18,0.67,0.21,0.69,-0.69,-0.65,-0.30,-0.51,-0.48,-0.49
432.85,0.11,0.58,0.17,0.63,-0.63,-0.61,-0.25,-0.52,-0.46,-0.47
437.18,0.12,0.58,0.14,0.58,-0.58,-0.58,-0.20,-0.46,-0.44,-0.46
441.55,0.09,0.51,0.12,0.53,-0.53,-0.55,-0.15,-0.44,-0.41,-0.42
445.96,0.02,0.40,0.11,0.48,-0.48,-0.52,-0.09,-0.46,-0.37,-0.39
450.42,0.04,0.39,0.10,0.43,-0.43,-0.49,-0.05,-0.39,-0.33,-0.35
454.93,0.11,0.41,0.10,0.38,-0.38,-0.45,0.00,-0.27,-0.28,-0.30
459.48,0.16,0.40,0.10,0.33,-0.33,-0.42,0.05,-0.17,-0.23,-0.24
464.07,0.13,0.30,0.10,0.28,-0.28,-0.39,0.09,-0.15,-0.18,-0.17
468.71,0.10,0.22,0.11,0.23,-0.23,-0.36,0.13,-0.13,-0.13,-0.12
473.40,0.14,0.20,0.11,0.18,-0.18,-0.32,0.18,-0.04,-0.07,-0.07
478.13,0.18,0.18,0.11,0.13,-0.13,-0.29,0.22,0.04,-0.02,-0.01
