frequency,raw,error,smoothed,error_smoothed,equalization,parametric_eq,fixed_band_eq,equalized_raw,equalized_smoothed,target
20.00,8.73,-1.15,8.71,-1.18,1.18,1.20,0.58,9.91,9.89,9.88
20.20,8.67,-1.20,8.66,-1.21,1.21,1.21,0.60,9.89,9.87,9.87
20.40,8.62,-1.24,8.62,-1.24,1.24,1.21,0.61,9.87,9.86,9.86
20.61,8.57,-1.28,8.58,-1.27,1.27,1.22,0.63,9.85,9.85,9.85
20.81,8.53,-1.30,8.54,-1.30,1.30,1.23,0.65,9.83,9.84,9.83
21.02,8.49,-1.33,8.51,-1.32,1.32,1.23,0.67,9.81,9.83,9.82
21.23,8.46,-1.35,8.48,-1.34,1.34,1.24,0.69,9.80,9.82,9.81
21.44,8.43,-1.39,8.45,-1.36,1.36,1.24,0.70,9.79,9.81,9.82
21.66,8.40,-1.40,8.42,-1.37,1.37,1.25,0.72,9.78,9.80,9.80
21.87,8.38,-1.41,8.40,-1.39,1.39,1.25,0.75,9.77,9.79,9.80
22.09,8.36,-1.41,8.38,-1.40,1.40,1.26,0.77,9.76,9.78,9.78
22.31,8.34,-1.43,8.37,-1.40,1.40,1.26,0.79,9.75,9.77,9.78
22.54,8.35,-1.41,8.36,-1.40,1.40,1.27,0.81,9.76,9.77,9.76
22.76,8.36,-1.40,8.36,-1.40,1.40,1.27,0.83,9.76,9.76,9.76
22.99,8.37,-1.38,8.36,-1.40,1.40,1.28,0.86,9.77,9.75,9.75
23.22,8.37,-1.37,8.36,-1.39,1.39,1.28,0.88,9.76,9.75,9.74
23.45,8.37,-1.38,8.36,-1.38,1.38,1.29,0.90,9.76,9.74,9.75
23.69,8.37,-1.36,8.36,-1.38,1.38,1.29,0.93,9.75,9.74,9.74
23.92,8.37,-1.35,8.37,-1.37,1.37,1.29,0.95,9.74,9.73,9.73
24.16,8.37,-1.36,8.37,-1.36,1.36,1.29,0.98,9.73,9.73,9.73
24.40,8.37,-1.36,8.37,-1.36,1.36,1.30,1.01,9.73,9.73,9.73
24.65,8.37,-1.36,8.37,-1.35,1.35,1.30,1.03,9.73,9.73,9.73
24.89,8.37,-1.36,8.37,-1.35,1.35,1.30,1.06,9.72,9.72,9.73
25.14,8.37,-1.35,8.37,-1.35,1.35,1.30,1.08,9.72,9.72,9.72
25.39,8.37,-1.34,8.37,-1.35,1.35,1.30,1.11,9.73,9.72,9.72
25.65,8.37,-1.34,8.36,-1.36,1.36,1.30,1.14,9.73,9.72,9.71
25.91,8.37,-1.34,8.36,-1.36,1.36,1.30,1.16,9.73,9.72,9.71
26.16,8.37,-1.35,8.36,-1.36,1.36,1.30,1.19,9.73,9.72,9.72
26.43,8.36,-1.36,8.36,-1.36,1.36,1.30,1.21,9.72,9.72,9.72
26.69,8.36,-1.35,8.36,-1.35,1.35,1.30,1.24,9.72,9.72,9.72
26.96,8.35,-1.36,8.37,-1.35,1.35,1.30,1.26,9.70,9.72,9.71
27.23,8.35,-1.36,8.37,-1.34,1.34,1.30,1.28,9.70,9.72,9.71
27.50,8.36,-1.35,8.38,-1.33,1.33,1.30,1.31,9.70,9.72,9.71
27.77,8.38,-1.33,8.40,-1.32,1.32,1.30,1.33,9.70,9.72,9.72
28.05,8.40,-1.31,8.42,-1.30,1.30,1.29,1.34,9.71,9.72,9.71
28.33,8.42,-1.30,8.44,-1.28,1.28,1.29,1.36,9.70,9.72,9.72
28.62,8.45,-1.27,8.47,-1.25,1.25,1.29,1.38,9.71,9.72,9.72
28.90,8.48,-1.24,8.49,-1.22,1.22,1.28,1.39,9.71,9.72,9.73
29.19,8.51,-1.21,8.53,-1.19,1.19,1.28,1.40,9.70,9.72,9.72
29.48,8.54,-1.18,8.56,-1.16,1.16,1.28,1.41,9.70,9.71,9.72
29.78,8.58,-1.13,8.59,-1.13,1.13,1.27,1.42,9.71,9.71,9.72
30.08,8.62,-1.09,8.61,-1.10,1.10,1.27,1.43,9.72,9.71,9.71
30.38,8.65,-1.05,8.63,-1.07,1.07,1.26,1.43,9.72,9.70,9.70
30.68,8.67,-1.02,8.65,-1.05,1.05,1.25,1.43,9.72,9.70,9.70
30.99,8.68,-1.01,8.66,-1.04,1.04,1.25,1.43,9.72,9.69,9.69
31.30,8.69,-0.99,8.66,-1.03,1.03,1.24,1.42,9.72,9.69,9.69
31.61,8.68,-1.00,8.65,-1.03,1.03,1.23,1.42,9.71,9.68,9.68
31.93,8.66,-1.00,8.64,-1.03,1.03,1.22,1.41,9.69,9.67,9.66
32.24,8.64,-1.02,8.62,-1.04,1.04,1.21,1.40,9.68,9.66,9.66
32.57,8.60,-1.05,8.60,-1.05,1.05,1.21,1.38,9.66,9.65,9.65
32.89,8.56,-1.08,8.57,-1.08,1.08,1.20,1.36,9.64,9.65,9.64
33.22,8.52,-1.12,8.54,-1.10,1.10,1.19,1.35,9.62,9.64,9.64
33.55,8.49,-1.14,8.51,-1.12,1.12,1.18,1.32,9.61,9.63,9.63
33.89,8.46,-1.16,8.48,-1.14,1.14,1.16,1.30,9.61,9.62,9.62
34.23,8.43,-1.17,8.45,-1.16,1.16,1.15,1.28,9.59,9.61,9.60
34.57,8.41,-1.18,8.43,-1.18,1.18,1.14,1.25,9.59,9.60,9.60
34.92,8.39,-1.19,8.41,-1.18,1.18,1.13,1.22,9.58,9.59,9.58
35.27,8.37,-1.22,8.39,-1.19,1.19,1.12,1.19,9.56,9.58,9.59
35.62,8.36,-1.20,8.38,-1.19,1.19,1.10,1.16,9.55,9.57,9.57
35.97,8.35,-1.21,8.37,-1.18,1.18,1.09,1.13,9.54,9.55,9.56
36.33,8.35,-1.19,8.36,-1.17,1.17,1.07,1.10,9.53,9.54,9.54
36.70,8.36,-1.15,8.36,-1.16,1.16,1.06,1.06,9.52,9.52,9.52
37.06,8.37,-1.13,8.36,-1.14,1.14,1.04,1.03,9.51,9.50,9.50
37.43,8.37,-1.11,8.36,-1.12,1.12,1.03,0.99,9.49,9.48,9.48
37.81,8.37,-1.09,8.36,-1.10,1.10,1.01,0.96,9.47,9.46,9.46
38.19,8.37,-1.06,8.37,-1.07,1.07,0.99,0.92,9.45,9.44,9.43
38.57,8.37,-1.04,8.37,-1.05,1.05,0.98,0.89,9.42,9.41,9.41
38.95,8.37,-1.02,8.37,-1.02,1.02,0.96,0.85,9.39,9.39,9.39
39.34,8.37,-0.99,8.37,-0.99,0.99,0.94,0.82,9.37,9.37,9.36
39.74,8.37,-0.96,8.37,-0.97,0.97,0.92,0.78,9.34,9.34,9.33
40.14,8.37,-0.94,8.37,-0.94,0.94,0.90,0.75,9.32,9.32,9.31
40.54,8.37,-0.92,8.37,-0.92,0.92,0.88,0.71,9.29,9.29,9.29
40.94,8.37,-0.89,8.37,-0.89,0.89,0.86,0.68,9.27,9.27,9.26
41.35,8.37,-0.87,8.37,-0.87,0.87,0.84,0.65,9.24,9.24,9.24
41.76,8.37,-0.84,8.37,-0.84,0.84,0.82,0.61,9.22,9.22,9.21
42.18,8.37,-0.82,8.37,-0.82,0.82,0.80,0.58,9.19,9.19,9.20
42.60,8.37,-0.79,8.37,-0.79,0.79,0.77,0.55,9.16,9.16,9.16
43.03,8.37,-0.77,8.37,-0.76,0.76,0.75,0.52,9.14,9.14,9.14
43.46,8.37,-0.73,8.37,-0.74,0.74,0.73,0.48,9.11,9.11,9.11
43.90,8.37,-0.71,8.37,-0.71,0.71,0.70,0.45,9.08,9.08,9.08
44.33,8.37,-0.67,8.37,-0.68,0.68,0.68,0.42,9.05,9.05,9.05
44.78,8.37,-0.65,8.37,-0.64,0.64,0.65,0.39,9.02,9.02,9.02
45.23,8.37,-0.62,8.37,-0.61,0.61,0.63,0.36,8.98,8.98,8.99
45.68,8.37,-0.57,8.37,-0.57,0.57,0.60,0.33,8.95,8.95,8.95
46.13,8.37,-0.54,8.37,-0.54,0.54,0.57,0.30,8.91,8.91,8.91
46.60,8.37,-0.50,8.37,-0.50,0.50,0.55,0.27,8.87,8.87,8.87
47.06,8.37,-0.46,8.37,-0.45,0.45,0.52,0.25,8.83,8.83,8.83
47.53,8.37,-0.42,8.37,-0.41,0.41,0.49,0.22,8.78,8.78,8.79
48.01,8.37,-0.36,8.37,-0.36,0.36,0.46,0.19,8.74,8.74,8.73
48.49,8.37,-0.32,8.38,-0.32,0.32,0.43,0.16,8.69,8.69,8.69
48.97,8.37,-0.27,8.38,-0.27,0.27,0.40,0.14,8.64,8.65,8.64
49.46,8.37,-0.23,8.38,-0.22,0.22,0.37,0.11,8.59,8.60,8.60
49.96,8.37,-0.16,8.39,-0.17,0.17,0.34,0.08,8.54,8.55,8.54
50.46,8.37,-0.13,8.39,-0.12,0.12,0.31,0.06,8.49,8.51,8.50
50.96,8.38,-0.08,8.39,-0.07,0.07,0.28,0.03,8.45,8.46,8.46
51.47,8.39,-0.02,8.39,-0.02,0.02,0.24,0.01,8.41,8.41,8.41
51.99,8.40,0.04,8.39,0.02,-0.02,0.21,-0.02,8.38,8.37,8.36
52.51,8.40,0.08,8.38,0.07,-0.07,0.18,-0.04,8.34,8.32,8.32
53.03,8.39,0.11,8.38,0.10,-0.10,0.14,-0.07,8.29,8.27,8.28
53.56,8.38,0.15,8.36,0.14,-0.14,0.11,-0.09,8.25,8.23,8.23
54.10,8.36,0.19,8.35,0.17,-0.17,0.08,-0.12,8.19,8.18,8.18
54.64,8.34,0.21,8.33,0.20,-0.20,0.04,-0.14,8.15,8.14,8.13
55.18,8.31,0.23,8.31,0.22,-0.22,0.00,-0.17,8.09,8.09,8.08
55.74,8.29,0.26,8.29,0.24,-0.24,-0.03,-0.19,8.05,8.05,8.03
56.29,8.26,0.27,8.26,0.26,-0.26,-0.07,-0.22,8.00,8.00,8.00
56.86,8.22,0.27,8.24,0.28,-0.28,-0.11,-0.24,7.94,7.96,7.95
57.42,8.19,0.30,8.21,0.30,-0.30,-0.14,-0.27,7.89,7.91,7.90
58.00,8.16,0.31,8.18,0.32,-0.32,-0.18,-0.30,7.84,7.86,7.85
58.58,8.14,0.33,8.16,0.35,-0.35,-0.22,-0.32,7.79,7.81,7.81
59.16,8.12,0.35,8.13,0.38,-0.38,-0.26,-0.35,7.75,7.75,7.77
59.76,8.10,0.38,8.11,0.41,-0.41,-0.30,-0.37,7.70,7.70,7.72
60.35,8.08,0.42,8.09,0.44,-0.44,-0.34,-0.40,7.64,7.65,7.66
60.96,8.06,0.46,8.06,0.47,-0.47,-0.38,-0.43,7.59,7.59,7.60
61.57,8.04,0.52,8.04,0.51,-0.51,-0.42,-0.45,7.53,7.53,7.53
62.18,8.02,0.56,8.02,0.55,-0.55,-0.46,-0.48,7.47,7.47,7.46
62.80,8.00,0.61,8.00,0.59,-0.59,-0.50,-0.51,7.41,7.41,7.40
63.43,7.99,0.66,7.98,0.64,-0.64,-0.54,-0.54,7.36,7.35,7.33
64.07,7.97,0.70,7.96,0.68,-0.68,-0.58,-0.57,7.29,7.28,7.27
64.71,7.94,0.73,7.94,0.72,-0.72,-0.62,-0.60,7.22,7.22,7.21
65.35,7.91,0.76,7.92,0.76,-0.76,-0.67,-0.62,7.15,7.16,7.15
66.01,7.88,0.79,7.89,0.80,-0.80,-0.71,-0.66,7.08,7.09,7.09
66.67,7.86,0.83,7.87,0.84,-0.84,-0.75,-0.69,7.03,7.03,7.04
67.33,7.84,0.88,7.84,0.87,-0.87,-0.79,-0.72,6.97,6.96,6.96
68.01,7.82,0.92,7.81,0.91,-0.91,-0.84,-0.75,6.91,6.90,6.91
68.69,7.79,0.95,7.78,0.95,-0.95,-0.88,-0.78,6.85,6.84,6.84
69.37,7.76,0.98,7.76,0.99,-0.99,-0.93,-0.82,6.78,6.77,6.78
70.07,7.72,1.01,7.73,1.03,-1.03,-0.97,-0.85,6.70,6.70,6.71
70.77,7.69,1.05,7.70,1.07,-1.07,-1.02,-0.89,6.63,6.64,6.64
71.48,7.66,1.09,7.68,1.11,-1.11,-1.06,-0.92,6.56,6.57,6.58
72.19,7.63,1.13,7.65,1.15,-1.15,-1.11,-0.96,6.48,6.50,6.50
72.91,7.61,1.18,7.62,1.19,-1.19,-1.15,-0.99,6.43,6.44,6.43
73.64,7.59,1.23,7.60,1.23,-1.23,-1.20,-1.03,6.37,6.37,6.36
74.38,7.57,1.28,7.57,1.26,-1.26,-1.24,-1.07,6.31,6.30,6.29
75.12,7.55,1.32,7.54,1.30,-1.30,-1.29,-1.11,6.26,6.24,6.24
75.87,7.53,1.36,7.51,1.33,-1.33,-1.34,-1.15,6.20,6.18,6.18
76.63,7.49,1.39,7.48,1.37,-1.37,-1.38,-1.20,6.12,6.11,6.10
77.40,7.46,1.41,7.45,1.40,-1.40,-1.43,-1.24,6.06,6.05,6.05
78.17,7.42,1.45,7.43,1.44,-1.44,-1.48,-1.28,5.98,5.99,5.98
78.95,7.38,1.45,7.40,1.47,-1.47,-1.53,-1.33,5.91,5.93,5.93
79.74,7.34,1.48,7.37,1.50,-1.50,-1.57,-1.38,5.84,5.86,5.87
80.54,7.31,1.50,7.34,1.53,-1.53,-1.62,-1.42,5.78,5.80,5.81
81.35,7.29,1.55,7.30,1.56,-1.56,-1.67,-1.47,5.73,5.74,5.74
82.16,7.27,1.58,7.27,1.59,-1.59,-1.72,-1.52,5.68,5.68,5.69
82.98,7.25,1.63,7.24,1.62,-1.62,-1.76,-1.58,5.63,5.62,5.62
83.81,7.22,1.67,7.20,1.65,-1.65,-1.81,-1.63,5.58,5.55,5.56
84.65,7.18,1.70,7.16,1.68,-1.68,-1.86,-1.68,5.51,5.49,5.48
85.50,7.13,1.71,7.13,1.71,-1.71,-1.91,-1.74,5.43,5.42,5.42
86.35,7.09,1.74,7.09,1.74,-1.74,-1.96,-1.80,5.36,5.36,5.36
87.22,7.05,1.76,7.06,1.77,-1.77,-2.00,-1.86,5.29,5.29,5.29
88.09,7.01,1.79,7.02,1.80,-1.80,-2.05,-1.92,5.21,5.22,5.22
88.97,6.97,1.82,6.98,1.83,-1.83,-2.10,-1.98,5.15,5.15,5.16
89.86,6.93,1.85,6.94,1.85,-1.85,-2.15,-2.04,5.08,5.09,5.09
90.76,6.89,1.88,6.90,1.88,-1.88,-2.20,-2.11,5.01,5.01,5.02
91.66,6.84,1.91,6.85,1.91,-1.91,-2.25,-2.17,4.93,4.94,4.94
92.58,6.81,1.94,6.81,1.94,-1.94,-2.29,-2.24,4.88,4.87,4.88
93.51,6.77,1.97,6.76,1.97,-1.97,-2.34,-2.31,4.81,4.80,4.81
94.44,6.73,2.00,6.72,1.99,-1.99,-2.39,-2.38,4.74,4.72,4.73
95.39,6.68,2.03,6.67,2.02,-2.02,-2.44,-2.45,4.66,4.65,4.65
96.34,6.63,2.06,6.63,2.05,-2.05,-2.49,-2.52,4.58,4.58,4.58
97.30,6.58,2.08,6.58,2.07,-2.07,-2.54,-2.60,4.51,4.50,4.50
98.28,6.52,2.10,6.53,2.10,-2.10,-2.58,-2.67,4.42,4.43,4.42
99.26,6.48,2.14,6.48,2.12,-2.12,-2.63,-2.75,4.36,4.36,4.35
100.25,6.43,2.16,6.43,2.15,-2.15,-2.68,-2.82,4.28,4.28,4.27
101.25,6.39,2.19,6.39,2.18,-2.18,-2.73,-2.90,4.22,4.21,4.21
102.27,6.34,2.20,6.35,2.20,-2.20,-2.78,-2.98,4.14,4.14,4.14
103.29,6.29,2.23,6.30,2.23,-2.23,-2.82,-3.06,4.06,4.07,4.07
104.32,6.25,2.25,6.26,2.26,-2.26,-2.87,-3.14,3.99,4.00,4.00
105.37,6.21,2.28,6.22,2.29,-2.29,-2.92,-3.21,3.92,3.93,3.93
106.42,6.18,2.31,6.19,2.33,-2.33,-2.97,-3.29,3.86,3.86,3.87
107.48,6.16,2.37,6.16,2.37,-2.37,-3.01,-3.37,3.80,3.79,3.79
108.56,6.14,2.41,6.14,2.41,-2.41,-3.06,-3.44,3.73,3.72,3.73
109.64,6.12,2.46,6.11,2.46,-2.46,-3.11,-3.52,3.66,3.65,3.66
110.74,6.11,2.52,6.10,2.51,-2.51,-3.15,-3.59,3.60,3.58,3.59
111.85,6.08,2.57,6.08,2.57,-2.57,-3.20,-3.66,3.51,3.51,3.51
112.97,6.06,2.61,6.07,2.63,-2.63,-3.24,-3.73,3.43,3.44,3.45
114.10,6.05,2.68,6.07,2.70,-2.70,-3.29,-3.79,3.35,3.37,3.38
115.24,6.06,2.77,6.07,2.77,-2.77,-3.33,-3.86,3.29,3.30,3.29
116.39,6.08,2.86,6.08,2.85,-2.85,-3.38,-3.92,3.23,3.23,3.22
117.55,6.09,2.95,6.09,2.94,-2.94,-3.42,-3.97,3.16,3.16,3.15
118.73,6.11,3.04,6.11,3.02,-3.02,-3.47,-4.02,3.09,3.09,3.07
119.92,6.12,3.11,6.14,3.12,-3.12,-3.51,-4.07,3.00,3.02,3.01
121.12,6.15,3.20,6.17,3.22,-3.22,-3.56,-4.11,2.93,2.95,2.95
122.33,6.19,3.31,6.21,3.33,-3.33,-3.60,-4.15,2.86,2.88,2.88
123.55,6.23,3.41,6.25,3.44,-3.44,-3.64,-4.19,2.79,2.81,2.82
124.79,6.29,3.54,6.30,3.56,-3.56,-3.68,-4.22,2.73,2.74,2.75
126.03,6.34,3.66,6.35,3.68,-3.68,-3.73,-4.24,2.67,2.68,2.69
127.29,6.40,3.79,6.41,3.80,-3.80,-3.77,-4.26,2.61,2.61,2.62
128.57,6.46,3.92,6.46,3.91,-3.91,-3.81,-4.28,2.55,2.54,2.54
129.85,6.51,4.04,6.51,4.03,-4.03,-3.85,-4.29,2.48,2.48,2.48
131.15,6.57,4.17,6.56,4.15,-4.15,-3.89,-4.29,2.43,2.41,2.40
132.46,6.62,4.28,6.60,4.26,-4.26,-3.93,-4.30,2.36,2.34,2.34
133.79,6.66,4.40,6.64,4.37,-4.37,-3.97,-4.30,2.29,2.27,2.27
135.12,6.70,4.50,6.68,4.47,-4.47,-4.01,-4.29,2.23,2.21,2.21
136.48,6.73,4.59,6.71,4.57,-4.57,-4.05,-4.29,2.16,2.14,2.15
137.84,6.75,4.68,6.74,4.66,-4.66,-4.09,-4.28,2.09,2.08,2.08
139.22,6.76,4.75,6.76,4.74,-4.74,-4.13,-4.26,2.02,2.01,2.01
140.61,6.76,4.81,6.78,4.82,-4.82,-4.16,-4.25,1.94,1.95,1.95
142.02,6.77,4.89,6.79,4.89,-4.89,-4.20,-4.23,1.88,1.89,1.89
143.44,6.78,4.95,6.79,4.96,-4.96,-4.24,-4.22,1.82,1.84,1.83
144.87,6.79,5.01,6.80,5.02,-5.02,-4.27,-4.20,1.77,1.78,1.78
146.32,6.79,5.07,6.80,5.07,-5.07,-4.31,-4.18,1.72,1.72,1.72
147.78,6.78,5.12,6.79,5.13,-5.13,-4.34,-4.17,1.66,1.67,1.67
149.26,6.77,5.16,6.78,5.17,-5.17,-4.38,-4.15,1.60,1.61,1.61
150.75,6.76,5.21,6.77,5.22,-5.22,-4.41,-4.13,1.55,1.55,1.55
152.26,6.76,5.26,6.75,5.25,-5.25,-4.44,-4.12,1.51,1.50,1.50
153.78,6.74,5.29,6.73,5.29,-5.29,-4.48,-4.10,1.46,1.45,1.45
155.32,6.71,5.32,6.70,5.31,-5.31,-4.51,-4.09,1.40,1.39,1.39
156.88,6.68,5.34,6.67,5.34,-5.34,-4.54,-4.08,1.35,1.34,1.34
158.44,6.64,5.36,6.63,5.35,-5.35,-4.57,-4.07,1.29,1.28,1.28
160.03,6.60,5.37,6.59,5.36,-5.36,-4.60,-4.06,1.24,1.23,1.23
161.63,6.55,5.38,6.54,5.37,-5.37,-4.63,-4.06,1.18,1.17,1.17
163.24,6.50,5.39,6.48,5.37,-5.37,-4.66,-4.06,1.13,1.11,1.11
164.88,6.43,5.38,6.43,5.37,-5.37,-4.68,-4.06,1.06,1.06,1.06
166.53,6.36,5.37,6.37,5.37,-5.37,-4.71,-4.06,1.00,1.00,0.99
168.19,6.29,5.34,6.30,5.36,-5.36,-4.74,-4.07,0.93,0.94,0.95
169.87,6.22,5.34,6.24,5.35,-5.35,-4.76,-4.08,0.87,0.89,0.89
171.57,6.16,5.34,6.17,5.35,-5.35,-4.79,-4.09,0.82,0.83,0.83
173.29,6.10,5.33,6.11,5.34,-5.34,-4.81,-4.11,0.76,0.77,0.78
175.02,6.03,5.32,6.05,5.33,-5.33,-4.84,-4.13,0.70,0.71,0.72
176.77,5.97,5.31,5.99,5.33,-5.33,-4.86,-4.15,0.65,0.66,0.66
178.54,5.91,5.31,5.92,5.32,-5.32,-4.88,-4.17,0.59,0.60,0.60
180.32,5.86,5.32,5.87,5.32,-5.32,-4.90,-4.20,0.54,0.55,0.54
182.13,5.81,5.32,5.81,5.32,-5.32,-4.92,-4.23,0.49,0.49,0.50
183.95,5.76,5.32,5.76,5.32,-5.32,-4.94,-4.27,0.44,0.44,0.44
185.79,5.71,5.33,5.71,5.32,-5.32,-4.96,-4.31,0.39,0.38,0.38
187.65,5.66,5.33,5.66,5.33,-5.33,-4.98,-4.35,0.34,0.33,0.33
189.52,5.61,5.33,5.61,5.33,-5.33,-5.00,-4.39,0.29,0.28,0.28
191.42,5.55,5.32,5.56,5.33,-5.33,-5.01,-4.44,0.23,0.23,0.23
193.33,5.50,5.32,5.51,5.33,-5.33,-5.03,-4.49,0.18,0.18,0.19
195.27,5.45,5.32,5.46,5.33,-5.33,-5.04,-4.54,0.13,0.13,0.13
197.22,5.42,5.35,5.41,5.33,-5.33,-5.06,-4.60,0.10,0.09,0.08
199.19,5.37,5.33,5.37,5.32,-5.32,-5.07,-4.65,0.05,0.05,0.04
201.18,5.32,5.33,5.32,5.32,-5.32,-5.08,-4.71,0.01,0.00,-0.01
203.19,5.27,5.31,5.27,5.31,-5.31,-5.09,-4.77,-0.04,-0.04,-0.04
205.23,5.21,5.29,5.22,5.30,-5.30,-5.10,-4.83,-0.09,-0.08,-0.07
207.28,5.16,5.28,5.18,5.29,-5.29,-5.11,-4.90,-0.13,-0.12,-0.11
209.35,5.13,5.28,5.13,5.28,-5.28,-5.12,-4.96,-0.15,-0.15,-0.15
211.44,5.10,5.29,5.08,5.27,-5.27,-5.13,-5.02,-0.17,-0.19,-0.19
213.56,5.05,5.27,5.04,5.26,-5.26,-5.14,-5.09,-0.21,-0.22,-0.22
215.69,4.99,5.25,4.99,5.25,-5.25,-5.14,-5.15,-0.25,-0.26,-0.25
217.85,4.94,5.23,4.94,5.23,-5.23,-5.15,-5.21,-0.29,-0.29,-0.29
220.03,4.88,5.21,4.89,5.21,-5.21,-5.15,-5.27,-0.33,-0.32,-0.32
222.23,4.83,5.19,4.85,5.19,-5.19,-5.15,-5.33,-0.36,-0.35,-0.36
224.45,4.79,5.17,4.80,5.18,-5.18,-5.15,-5.38,-0.38,-0.38,-0.38
226.70,4.76,5.17,4.75,5.16,-5.16,-5.15,-5.44,-0.40,-0.40,-0.41
228.96,4.71,5.14,4.71,5.14,-5.14,-5.15,-5.48,-0.43,-0.43,-0.42
231.25,4.66,5.12,4.66,5.11,-5.11,-5.15,-5.53,-0.45,-0.45,-0.45
233.57,4.61,5.09,4.62,5.09,-5.09,-5.15,-5.57,-0.48,-0.47,-0.47
235.90,4.56,5.06,4.57,5.06,-5.06,-5.15,-5.60,-0.50,-0.49,-0.49
238.26,4.51,5.03,4.53,5.04,-5.04,-5.14,-5.63,-0.53,-0.51,-0.52
240.64,4.48,5.00,4.49,5.01,-5.01,-5.14,-5.65,-0.53,-0.52,-0.52
243.05,4.44,4.98,4.44,4.98,-4.98,-5.13,-5.66,-0.54,-0.54,-0.54
245.48,4.41,4.97,4.40,4.95,-4.95,-5.12,-5.67,-0.54,-0.55,-0.55
247.93,4.36,4.93,4.35,4.91,-4.91,-5.12,-5.67,-0.55,-0.56,-0.57
250.41,4.31,4.88,4.31,4.88,-4.88,-5.11,-5.67,-0.56,-0.57,-0.57
252.92,4.27,4.84,4.26,4.84,-4.84,-5.10,-5.65,-0.57,-0.58,-0.57
255.45,4.22,4.81,4.22,4.81,-4.81,-5.08,-5.63,-0.58,-0.59,-0.59
258.00,4.18,4.77,4.18,4.77,-4.77,-5.07,-5.60,-0.59,-0.59,-0.59
260.58,4.14,4.74,4.14,4.74,-4.74,-5.06,-5.57,-0.59,-0.60,-0.59
263.19,4.09,4.69,4.10,4.70,-4.70,-5.04,-5.53,-0.61,-0.60,-0.60
265.82,4.04,4.65,4.06,4.67,-4.67,-5.03,-5.48,-0.63,-0.61,-0.61
268.48,4.00,4.62,4.02,4.64,-4.64,-5.01,-5.43,-0.63,-0.62,-0.61
271.16,3.96,4.58,3.98,4.60,-4.60,-4.99,-5.37,-0.64,-0.62,-0.61
273.87,3.94,4.57,3.95,4.57,-4.57,-4.97,-5.30,-0.63,-0.63,-0.63
276.61,3.92,4.55,3.91,4.54,-4.54,-4.95,-5.23,-0.62,-0.63,-0.63
279.38,3.89,4.54,3.89,4.52,-4.52,-4.93,-5.16,-0.63,-0.63,-0.65
282.17,3.87,4.52,3.86,4.49,-4.49,-4.91,-5.09,-0.62,-0.64,-0.65
284.99,3.83,4.47,3.83,4.47,-4.47,-4.89,-5.01,-0.64,-0.64,-0.64
287.84,3.80,4.44,3.81,4.44,-4.44,-4.86,-4.93,-0.64,-0.64,-0.64
290.72,3.76,4.41,3.78,4.42,-4.42,-4.84,-4.85,-0.65,-0.64,-0.65
293.63,3.73,4.37,3.75,4.39,-4.39,-4.81,-4.76,-0.66,-0.64,-0.63
296.57,3.71,4.35,3.73,4.36,-4.36,-4.78,-4.68,-0.65,-0.63,-0.63
299.53,3.70,4.33,3.70,4.33,-4.33,-4.75,-4.60,-0.63,-0.63,-0.63
302.53,3.69,4.31,3.67,4.29,-4.29,-4.72,-4.51,-0.60,-0.63,-0.62
305.55,3.66,4.29,3.63,4.26,-4.26,-4.69,-4.43,-0.59,-0.62,-0.63
308.61,3.62,4.24,3.60,4.22,-4.22,-4.66,-4.35,-0.60,-0.62,-0.61
311.69,3.58,4.19,3.57,4.18,-4.18,-4.62,-4.26,-0.60,-0.61,-0.61
314.81,3.53,4.14,3.54,4.14,-4.14,-4.59,-4.18,-0.61,-0.61,-0.61
317.96,3.49,4.10,3.50,4.10,-4.10,-4.55,-4.10,-0.61,-0.60,-0.60
321.14,3.45,4.04,3.47,4.06,-4.06,-4.52,-4.03,-0.61,-0.59,-0.59
324.35,3.41,4.01,3.43,4.02,-4.02,-4.48,-3.95,-0.61,-0.59,-0.60
327.59,3.38,3.95,3.40,3.98,-3.98,-4.44,-3.88,-0.59,-0.58,-0.57
330.87,3.35,3.93,3.36,3.93,-3.93,-4.40,-3.81,-0.58,-0.58,-0.58
334.18,3.32,3.90,3.32,3.89,-3.89,-4.36,-3.74,-0.56,-0.57,-0.57
337.52,3.29,3.86,3.28,3.84,-3.84,-4.32,-3.67,-0.55,-0.56,-0.57
340.90,3.25,3.81,3.24,3.80,-3.80,-4.27,-3.61,-0.54,-0.56,-0.55
344.30,3.20,3.75,3.21,3.76,-3.76,-4.23,-3.55,-0.55,-0.55,-0.55
347.75,3.16,3.71,3.17,3.71,-3.71,-4.18,-3.49,-0.55,-0.54,-0.54
351.23,3.12,3.67,3.13,3.67,-3.67,-4.14,-3.43,-0.55,-0.54,-0.55
354.74,3.09,3.61,3.09,3.62,-3.62,-4.09,-3.38,-0.53,-0.53,-0.52
358.28,3.05,3.58,3.05,3.58,-3.58,-4.04,-3.33,-0.52,-0.52,-0.52
361.87,3.01,3.53,3.01,3.53,-3.53,-3.99,-3.28,-0.51,-0.52,-0.52
365.49,2.97,3.49,2.97,3.48,-3.48,-3.94,-3.23,-0.50,-0.51,-0.51
369.14,2.94,3.44,2.93,3.43,-3.43,-3.89,-3.19,-0.49,-0.50,-0.50
372.83,2.90,3.39,2.89,3.38,-3.38,-3.84,-3.15,-0.48,-0.50,-0.49
376.56,2.85,3.35,2.85,3.33,-3.33,-3.78,-3.11,-0.48,-0.49,-0.49
380.33,2.80,3.29,2.81,3.29,-3.29,-3.73,-3.08,-0.49,-0.48,-0.49
384.13,2.75,3.22,2.77,3.25,-3.25,-3.67,-3.04,-0.49,-0.47,-0.47
387.97,2.71,3.18,2.74,3.20,-3.20,-3.62,-3.01,-0.49,-0.46,-0.46
391.85,2.68,3.14,2.70,3.16,-3.16,-3.56,-2.98,-0.47,-0.45,-0.46
395.77,2.65,3.10,2.67,3.11,-3.11,-3.51,-2.95,-0.46,-0.44,-0.45
399.73,2.64,3.08,2.63,3.07,-3.07,-3.45,-2.93,-0.43,-0.43,-0.44
403.72,2.61,3.03,2.60,3.03,-3.03,-3.39,-2.90,-0.42,-0.43,-0.41
407.76,2.59,3.01,2.57,2.99,-2.99,-3.33,-2.88,-0.40,-0.42,-0.42
411.84,2.56,2.97,2.54,2.95,-2.95,-3.27,-2.86,-0.39,-0.41,-0.41
415.96,2.52,2.91,2.51,2.91,-2.91,-3.21,-2.84,-0.39,-0.40,-0.39
420.12,2.48,2.88,2.49,2.88,-2.88,-3.15,-2.82,-0.39,-0.39,-0.39
424.32,2.45,2.84,2.46,2.84,-2.84,-3.09,-2.81,-0.39,-0.38,-0.38
428.56,2.42,2.79,2.44,2.81,-2.81,-3.03,-2.79,-0.39,-0.37,-0.37
432.85,2.40,2.76,2.41,2.77,-2.77,-2.96,-2.77,-0.37,-0.37,-0.36
437.18,2.38,2.74,2.38,2.74,-2.74,-2.90,-2.76,-0.36,-0.36,-0.36
441.55,2.35,2.71,2.36,2.70,-2.70,-2.84,-2.74,-0.35,-0.35,-0.35
445.96,2.33,2.68,2.33,2.67,-2.67,-2.78,-2.73,-0.34,-0.34,-0.34
450.42,2.30,2.64,2.31,2.64,-2.64,-2.71,-2.71,-0.34,-0.33,-0.34
454.93,2.28,2.61,2.28,2.61,-2.61,-2.65,-2.69,-0.32,-0.32,-0.33
459.48,2.26,2.58,2.26,2.58,-2.58,-2.59,-2.68,-0.31,-0.31,-0.32
464.07,2.24,2.54,2.24,2.55,-2.55,-2.52,-2.66,-0.30,-0.31,-0.30
468.71,2.21,2.51,2.22,2.52,-2.52,-2.46,-2.64,-0.30,-0.30,-0.29
473.40,2.19,2.48,2.20,2.48,-2.48,-2.40,-2.62,-0.29,-0.29,-0.28
478.13,2.17,2.45,2.17,2.45,-2.45,-2.33,-2.60,-0.28,-0.28,-0.27
482.91,2.15,2.42,2.15,2.41,-2.41,-2.27,-2.57,-0.26,-0.27,-0.27
487.74,2.13,2.39,2.12,2.38,-2.38,-2.21,-2.55,-0.25,-0.26,-0.26
492.62,2.11,2.36,2.10,2.34,-2.34,-2.14,-2.52,-0.23,-0.25,-0.25
497.55,2.08,2.32,2.07,2.31,-2.31,-2.08,-2.49,-0.23,-0.23,-0.24
502.52,2.05,2.28,2.05,2.27,-2.27,-2.02,-2.46,-0.22,-0.22,-0.23
507.55,2.02,2.23,2.03,2.24,-2.24,-1.96,-2.43,-0.22,-0.21,-0.21
512.62,1.99,2.20,2.00,2.20,-2.20,-1.90,-2.39,-0.21,-0.20,-0.20
517.75,1.96,2.15,1.98,2.17,-2.17,-1.84,-2.35,-0.21,-0.19,-0.18
522.93,1.94,2.12,1.96,2.14,-2.14,-1.78,-2.31,-0.20,-0.18,-0.17
528.16,1.93,2.10,1.94,2.11,-2.11,-1.73,-2.27,-0.17,-0.17,-0.17
