frequency,raw,error,smoothed,error_smoothed,equalization,parametric_eq,fixed_band_eq,equalized_raw,equalized_smoothed,target
20.00,1.09,-4.19,1.10,-4.21,4.21,4.26,0.99,5.30,5.31,5.28
20.20,1.16,-4.17,1.16,-4.19,4.19,4.22,1.02,5.34,5.34,5.33
20.40,1.22,-4.16,1.22,-4.16,4.16,4.18,1.06,5.37,5.38,5.38
20.61,1.28,-4.12,1.28,-4.13,4.13,4.14,1.09,5.41,5.41,5.40
20.81,1.35,-4.11,1.35,-4.09,4.09,4.10,1.12,5.44,5.44,5.45
21.02,1.42,-4.08,1.41,-4.06,4.06,4.05,1.16,5.48,5.47,5.49
21.23,1.48,-4.04,1.47,-4.02,4.02,4.01,1.20,5.50,5.49,5.51
21.44,1.54,-4.00,1.54,-3.98,3.98,3.96,1.23,5.52,5.51,5.53
21.66,1.61,-3.95,1.60,-3.94,3.94,3.92,1.27,5.54,5.53,5.55
21.87,1.67,-3.89,1.66,-3.89,3.89,3.87,1.31,5.56,5.55,5.56
22.09,1.74,-3.84,1.73,-3.84,3.84,3.82,1.36,5.58,5.57,5.58
22.31,1.80,-3.79,1.79,-3.79,3.79,3.77,1.40,5.58,5.58,5.59
22.54,1.86,-3.73,1.86,-3.73,3.73,3.72,1.44,5.58,5.59,5.59
22.76,1.92,-3.67,1.92,-3.66,3.66,3.67,1.49,5.58,5.59,5.59
22.99,1.99,-3.59,1.99,-3.60,3.60,3.62,1.53,5.59,5.59,5.58
23.22,2.05,-3.53,2.06,-3.53,3.53,3.57,1.58,5.58,5.59,5.58
23.45,2.12,-3.46,2.13,-3.47,3.47,3.52,1.63,5.58,5.59,5.58
23.69,2.19,-3.40,2.19,-3.40,3.40,3.47,1.68,5.58,5.59,5.59
23.92,2.26,-3.33,2.26,-3.33,3.33,3.42,1.73,5.59,5.59,5.59
24.16,2.33,-3.27,2.33,-3.27,3.27,3.36,1.78,5.59,5.59,5.59
24.40,2.40,-3.21,2.39,-3.20,3.20,3.31,1.83,5.60,5.59,5.60
24.65,2.47,-3.13,2.45,-3.14,3.14,3.26,1.88,5.60,5.59,5.59
24.89,2.54,-3.05,2.51,-3.08,3.08,3.20,1.93,5.61,5.59,5.59
25.14,2.60,-2.99,2.57,-3.02,3.02,3.15,1.99,5.62,5.59,5.59
25.39,2.65,-2.95,2.63,-2.96,2.96,3.09,2.04,5.61,5.59,5.60
25.65,2.69,-2.91,2.69,-2.91,2.91,3.04,2.09,5.60,5.59,5.60
25.91,2.74,-2.85,2.74,-2.86,2.86,2.99,2.14,5.59,5.59,5.59
26.16,2.79,-2.80,2.79,-2.80,2.80,2.93,2.19,5.59,5.59,5.59
26.43,2.85,-2.74,2.84,-2.75,2.75,2.88,2.24,5.59,5.59,5.59
26.69,2.90,-2.69,2.90,-2.69,2.69,2.82,2.29,5.59,5.59,5.58
26.96,2.95,-2.65,2.95,-2.63,2.63,2.76,2.34,5.58,5.58,5.59
27.23,3.00,-2.60,3.01,-2.57,2.57,2.71,2.39,5.57,5.58,5.59
27.50,3.06,-2.53,3.07,-2.51,2.51,2.65,2.43,5.56,5.58,5.59
27.77,3.11,-2.47,3.14,-2.44,2.44,2.60,2.47,5.55,5.58,5.58
28.05,3.17,-2.41,3.20,-2.38,2.38,2.54,2.51,5.54,5.58,5.58
28.33,3.25,-2.32,3.27,-2.31,2.31,2.48,2.55,5.56,5.58,5.57
28.62,3.32,-2.24,3.33,-2.24,2.24,2.43,2.58,5.57,5.57,5.56
28.90,3.41,-2.17,3.39,-2.18,2.18,2.37,2.61,5.59,5.57,5.57
29.19,3.48,-2.08,3.45,-2.12,2.12,2.32,2.63,5.60,5.57,5.56
29.48,3.55,-2.03,3.51,-2.06,2.06,2.26,2.65,5.60,5.57,5.58
29.78,3.62,-1.95,3.57,-2.00,2.00,2.20,2.66,5.61,5.57,5.57
30.08,3.68,-1.90,3.63,-1.94,1.94,2.15,2.67,5.61,5.56,5.57
30.38,3.70,-1.87,3.68,-1.88,1.88,2.09,2.68,5.58,5.56,5.56
30.68,3.72,-1.84,3.73,-1.83,1.83,2.04,2.68,5.54,5.56,5.56
30.99,3.75,-1.81,3.78,-1.77,1.77,1.98,2.67,5.52,5.56,5.56
31.30,3.81,-1.75,3.83,-1.72,1.72,1.92,2.66,5.53,5.56,5.55
31.61,3.87,-1.69,3.89,-1.67,1.67,1.87,2.64,5.53,5.55,5.55
31.93,3.93,-1.62,3.94,-1.61,1.61,1.81,2.62,5.54,5.55,5.55
32.24,3.98,-1.56,3.99,-1.56,1.56,1.75,2.59,5.53,5.54,5.54
32.57,4.04,-1.51,4.04,-1.50,1.50,1.70,2.55,5.53,5.54,5.54
32.89,4.09,-1.45,4.10,-1.44,1.44,1.64,2.51,5.52,5.53,5.54
33.22,4.15,-1.38,4.15,-1.38,1.38,1.59,2.47,5.52,5.53,5.53
33.55,4.22,-1.31,4.21,-1.31,1.31,1.53,2.42,5.53,5.52,5.53
33.89,4.28,-1.24,4.27,-1.25,1.25,1.47,2.36,5.52,5.52,5.51
34.23,4.34,-1.18,4.33,-1.18,1.18,1.42,2.31,5.52,5.51,5.52
34.57,4.40,-1.11,4.38,-1.13,1.13,1.36,2.24,5.52,5.51,5.51
34.92,4.46,-1.05,4.43,-1.07,1.07,1.31,2.18,5.53,5.50,5.50
35.27,4.50,-1.00,4.48,-1.02,1.02,1.25,2.11,5.51,5.50,5.50
35.62,4.54,-0.96,4.53,-0.97,0.97,1.20,2.04,5.50,5.50,5.49
35.97,4.59,-0.90,4.58,-0.92,0.92,1.14,1.96,5.50,5.49,5.49
36.33,4.62,-0.88,4.62,-0.87,0.87,1.09,1.89,5.49,5.49,5.50
36.70,4.66,-0.83,4.66,-0.83,0.83,1.03,1.81,5.49,5.49,5.48
37.06,4.70,-0.78,4.70,-0.79,0.79,0.97,1.73,5.49,5.49,5.48
37.43,4.73,-0.76,4.74,-0.75,0.75,0.92,1.65,5.47,5.49,5.49
37.81,4.77,-0.72,4.78,-0.71,0.71,0.86,1.56,5.47,5.49,5.49
38.19,4.81,-0.68,4.82,-0.66,0.66,0.81,1.48,5.47,5.49,5.48
38.57,4.86,-0.63,4.86,-0.62,0.62,0.75,1.40,5.48,5.49,5.49
38.95,4.90,-0.59,4.90,-0.58,0.58,0.70,1.31,5.48,5.48,5.49
39.34,4.94,-0.55,4.94,-0.54,0.54,0.64,1.22,5.48,5.48,5.48
39.74,4.97,-0.51,4.98,-0.50,0.50,0.59,1.14,5.47,5.48,5.48
40.14,5.01,-0.48,5.02,-0.46,0.46,0.53,1.05,5.47,5.48,5.48
40.54,5.08,-0.40,5.06,-0.41,0.41,0.48,0.97,5.49,5.48,5.48
40.94,5.15,-0.32,5.10,-0.37,0.37,0.42,0.88,5.52,5.47,5.47
41.35,5.16,-0.31,5.14,-0.33,0.33,0.37,0.80,5.48,5.47,5.46
41.76,5.17,-0.29,5.18,-0.28,0.28,0.31,0.71,5.45,5.46,5.46
42.18,5.19,-0.27,5.21,-0.24,0.24,0.26,0.62,5.42,5.45,5.46
42.60,5.23,-0.21,5.24,-0.19,0.19,0.20,0.54,5.42,5.44,5.44
43.03,5.27,-0.17,5.27,-0.15,0.15,0.15,0.45,5.42,5.42,5.43
43.46,5.32,-0.11,5.30,-0.11,0.11,0.09,0.37,5.43,5.41,5.42
43.90,5.36,-0.04,5.32,-0.08,0.08,0.04,0.29,5.43,5.40,5.39
44.33,5.37,-0.01,5.34,-0.04,0.04,-0.02,0.20,5.40,5.38,5.38
44.78,5.37,0.01,5.36,-0.00,0.00,-0.07,0.12,5.37,5.37,5.36
45.23,5.39,0.04,5.38,0.03,-0.03,-0.13,0.03,5.35,5.35,5.35
45.68,5.42,0.09,5.41,0.07,-0.07,-0.18,-0.05,5.35,5.34,5.33
46.13,5.44,0.13,5.44,0.12,-0.12,-0.24,-0.13,5.32,5.32,5.31
46.60,5.45,0.14,5.47,0.17,-0.17,-0.29,-0.21,5.28,5.30,5.31
47.06,5.47,0.18,5.50,0.21,-0.21,-0.35,-0.30,5.25,5.29,5.28
47.53,5.51,0.23,5.53,0.26,-0.26,-0.40,-0.38,5.24,5.27,5.27
48.01,5.56,0.29,5.57,0.31,-0.31,-0.46,-0.46,5.24,5.25,5.27
48.49,5.60,0.35,5.61,0.37,-0.37,-0.52,-0.54,5.23,5.24,5.25
48.97,5.65,0.42,5.65,0.43,-0.43,-0.57,-0.62,5.21,5.22,5.22
49.46,5.70,0.50,5.71,0.50,-0.50,-0.63,-0.70,5.20,5.21,5.20
49.96,5.76,0.58,5.76,0.57,-0.57,-0.68,-0.78,5.19,5.19,5.18
50.46,5.84,0.66,5.82,0.64,-0.64,-0.74,-0.86,5.19,5.17,5.17
50.96,5.92,0.76,5.88,0.72,-0.72,-0.80,-0.94,5.19,5.16,5.16
51.47,5.94,0.80,5.94,0.80,-0.80,-0.85,-1.02,5.14,5.14,5.13
51.99,5.96,0.84,6.00,0.88,-0.88,-0.91,-1.10,5.08,5.13,5.12
52.51,6.05,0.94,6.06,0.95,-0.95,-0.96,-1.17,5.09,5.11,5.11
53.03,6.14,1.03,6.12,1.02,-1.02,-1.02,-1.25,5.11,5.10,5.10
53.56,6.20,1.11,6.17,1.09,-1.09,-1.08,-1.33,5.10,5.08,5.09
54.10,6.25,1.18,6.23,1.16,-1.16,-1.14,-1.40,5.08,5.07,5.07
54.64,6.30,1.25,6.28,1.23,-1.23,-1.19,-1.47,5.07,5.05,5.05
55.18,6.35,1.31,6.33,1.29,-1.29,-1.25,-1.55,5.05,5.04,5.04
55.74,6.40,1.38,6.37,1.35,-1.35,-1.31,-1.62,5.05,5.02,5.02
56.29,6.43,1.42,6.42,1.41,-1.41,-1.36,-1.69,5.02,5.01,5.01
56.86,6.43,1.44,6.45,1.46,-1.46,-1.42,-1.76,4.96,4.99,4.99
57.42,6.47,1.51,6.49,1.52,-1.52,-1.48,-1.82,4.94,4.97,4.95
58.00,6.52,1.57,6.52,1.58,-1.58,-1.54,-1.89,4.94,4.95,4.94
58.58,6.58,1.65,6.55,1.63,-1.63,-1.60,-1.95,4.94,4.92,4.93
59.16,6.62,1.71,6.58,1.69,-1.69,-1.66,-2.01,4.92,4.89,4.90
59.76,6.62,1.74,6.61,1.75,-1.75,-1.71,-2.07,4.86,4.86,4.88
60.35,6.62,1.78,6.64,1.82,-1.82,-1.77,-2.13,4.80,4.82,4.83
60.96,6.62,1.82,6.66,1.88,-1.88,-1.83,-2.18,4.74,4.78,4.80
61.57,6.68,1.93,6.69,1.95,-1.95,-1.89,-2.23,4.73,4.74,4.75
62.18,6.72,2.02,6.71,2.01,-2.01,-1.95,-2.28,4.70,4.70,4.70
62.80,6.72,2.07,6.73,2.08,-2.08,-2.01,-2.33,4.64,4.66,4.65
63.43,6.76,2.16,6.75,2.14,-2.14,-2.07,-2.38,4.62,4.61,4.60
64.07,6.81,2.26,6.76,2.20,-2.20,-2.13,-2.42,4.60,4.56,4.55
64.71,6.81,2.31,6.77,2.26,-2.26,-2.19,-2.46,4.54,4.51,4.50
65.35,6.81,2.35,6.78,2.33,-2.33,-2.25,-2.50,4.48,4.46,4.45
66.01,6.81,2.40,6.80,2.39,-2.39,-2.31,-2.54,4.41,4.40,4.40
66.67,6.81,2.46,6.81,2.46,-2.46,-2.37,-2.58,4.35,4.35,4.35
67.33,6.81,2.52,6.82,2.52,-2.52,-2.43,-2.61,4.28,4.30,4.29
68.01,6.81,2.56,6.83,2.59,-2.59,-2.49,-2.65,4.22,4.24,4.24
68.69,6.81,2.62,6.84,2.65,-2.65,-2.55,-2.68,4.15,4.18,4.19
69.37,6.81,2.68,6.85,2.72,-2.72,-2.61,-2.71,4.08,4.13,4.13
70.07,6.82,2.75,6.86,2.79,-2.79,-2.68,-2.75,4.02,4.07,4.07
70.77,6.89,2.87,6.87,2.87,-2.87,-2.74,-2.78,4.02,4.01,4.02
71.48,6.91,2.95,6.88,2.94,-2.94,-2.80,-2.81,3.97,3.95,3.96
72.19,6.91,3.02,6.90,3.01,-3.01,-2.86,-2.84,3.89,3.88,3.89
72.91,6.91,3.08,6.91,3.09,-3.09,-2.92,-2.87,3.82,3.82,3.82
73.64,6.91,3.15,6.92,3.16,-3.16,-2.99,-2.91,3.75,3.76,3.76
74.38,6.94,3.24,6.93,3.23,-3.23,-3.05,-2.94,3.71,3.70,3.69
75.12,7.00,3.37,6.94,3.30,-3.30,-3.11,-2.98,3.69,3.63,3.63
75.87,7.00,3.44,6.94,3.37,-3.37,-3.17,-3.01,3.62,3.57,3.56
76.63,6.94,3.43,6.94,3.44,-3.44,-3.23,-3.05,3.50,3.51,3.50
77.40,6.91,3.46,6.94,3.49,-3.49,-3.30,-3.09,3.41,3.45,3.44
78.17,6.91,3.53,6.93,3.55,-3.55,-3.36,-3.13,3.36,3.39,3.37
78.95,6.91,3.57,6.92,3.60,-3.60,-3.42,-3.18,3.31,3.33,3.33
79.74,6.91,3.64,6.91,3.64,-3.64,-3.49,-3.22,3.26,3.27,3.27
80.54,6.91,3.69,6.91,3.69,-3.69,-3.55,-3.27,3.21,3.21,3.22
81.35,6.91,3.75,6.90,3.74,-3.74,-3.61,-3.32,3.17,3.16,3.15
82.16,6.91,3.81,6.88,3.78,-3.78,-3.67,-3.37,3.13,3.10,3.10
82.98,6.91,3.85,6.86,3.82,-3.82,-3.74,-3.43,3.09,3.05,3.05
83.81,6.83,3.84,6.85,3.86,-3.86,-3.80,-3.49,2.97,2.99,2.99
84.65,6.81,3.88,6.83,3.90,-3.90,-3.86,-3.55,2.91,2.93,2.93
85.50,6.81,3.92,6.82,3.95,-3.95,-3.92,-3.61,2.86,2.87,2.88
86.35,6.81,3.98,6.81,4.00,-4.00,-3.98,-3.67,2.81,2.82,2.82
87.22,6.81,4.04,6.80,4.04,-4.04,-4.05,-3.74,2.77,2.76,2.76
88.09,6.81,4.10,6.78,4.08,-4.08,-4.11,-3.81,2.72,2.70,2.70
88.97,6.77,4.12,6.76,4.12,-4.12,-4.17,-3.89,2.64,2.64,2.64
89.86,6.73,4.15,6.75,4.17,-4.17,-4.23,-3.97,2.56,2.58,2.58
90.76,6.72,4.20,6.73,4.21,-4.21,-4.29,-4.05,2.51,2.52,2.52
91.66,6.72,4.25,6.72,4.26,-4.26,-4.35,-4.13,2.46,2.46,2.46
92.58,6.72,4.33,6.70,4.30,-4.30,-4.41,-4.22,2.41,2.40,2.39
93.51,6.72,4.38,6.69,4.35,-4.35,-4.47,-4.31,2.36,2.34,2.34
94.44,6.72,4.44,6.68,4.40,-4.40,-4.53,-4.40,2.32,2.28,2.28
95.39,6.69,4.46,6.67,4.45,-4.45,-4.59,-4.49,2.24,2.22,2.23
96.34,6.63,4.47,6.66,4.49,-4.49,-4.65,-4.59,2.13,2.16,2.16
97.30,6.62,4.51,6.65,4.55,-4.55,-4.70,-4.69,2.07,2.11,2.10
98.28,6.63,4.58,6.66,4.61,-4.61,-4.76,-4.79,2.02,2.05,2.05
99.26,6.69,4.70,6.66,4.67,-4.67,-4.82,-4.90,2.02,1.99,1.99
100.25,6.67,4.73,6.66,4.73,-4.73,-4.87,-5.00,1.94,1.93,1.93
101.25,6.65,4.77,6.67,4.79,-4.79,-4.93,-5.11,1.85,1.87,1.88
102.27,6.65,4.83,6.68,4.87,-4.87,-4.98,-5.22,1.78,1.82,1.82
103.29,6.69,4.94,6.71,4.95,-4.95,-5.03,-5.33,1.74,1.76,1.75
104.32,6.72,5.01,6.73,5.03,-5.03,-5.09,-5.44,1.69,1.70,1.70
105.37,6.75,5.10,6.76,5.12,-5.12,-5.14,-5.55,1.63,1.64,1.65
106.42,6.79,5.20,6.79,5.21,-5.21,-5.19,-5.66,1.58,1.58,1.59
107.48,6.82,5.30,6.81,5.30,-5.30,-5.24,-5.76,1.52,1.52,1.52
108.56,6.80,5.34,6.83,5.38,-5.38,-5.29,-5.87,1.42,1.45,1.45
109.64,6.80,5.40,6.84,5.45,-5.45,-5.33,-5.97,1.35,1.39,1.39
110.74,6.89,5.56,6.85,5.52,-5.52,-5.38,-6.08,1.37,1.33,1.33
111.85,6.94,5.66,6.85,5.58,-5.58,-5.42,-6.17,1.36,1.27,1.28
112.97,6.93,5.72,6.84,5.63,-5.63,-5.47,-6.27,1.30,1.21,1.20
114.10,6.86,5.71,6.82,5.67,-5.67,-5.51,-6.35,1.18,1.15,1.15
115.24,6.82,5.73,6.80,5.70,-5.70,-5.55,-6.44,1.11,1.09,1.09
116.39,6.79,5.76,6.76,5.72,-5.72,-5.59,-6.51,1.06,1.04,1.02
117.55,6.74,5.76,6.72,5.73,-5.73,-5.63,-6.58,1.00,0.99,0.98
118.73,6.65,5.72,6.67,5.74,-5.74,-5.66,-6.64,0.91,0.94,0.92
119.92,6.56,5.67,6.62,5.73,-5.73,-5.70,-6.69,0.82,0.89,0.89
121.12,6.56,5.72,6.56,5.72,-5.72,-5.73,-6.74,0.84,0.84,0.84
122.33,6.52,5.72,6.50,5.70,-5.70,-5.76,-6.77,0.81,0.80,0.79
123.55,6.44,5.68,6.43,5.68,-5.68,-5.79,-6.79,0.76,0.75,0.76
124.79,6.39,5.67,6.38,5.66,-5.66,-5.82,-6.81,0.72,0.71,0.72
126.03,6.37,5.69,6.33,5.65,-5.65,-5.85,-6.81,0.71,0.67,0.68
127.29,6.30,5.65,6.29,5.65,-5.65,-5.87,-6.80,0.64,0.63,0.65
128.57,6.23,5.63,6.26,5.66,-5.66,-5.89,-6.79,0.56,0.60,0.60
129.85,6.22,5.66,6.24,5.68,-5.68,-5.91,-6.76,0.53,0.56,0.56
131.15,6.19,5.67,6.23,5.71,-5.71,-5.93,-6.73,0.47,0.52,0.52
132.46,6.15,5.67,6.24,5.76,-5.76,-5.95,-6.69,0.39,0.48,0.48
133.79,6.17,5.72,6.25,5.80,-5.80,-5.97,-6.64,0.36,0.44,0.44
135.12,6.24,5.84,6.26,5.85,-5.85,-5.98,-6.58,0.39,0.41,0.40
136.48,6.24,5.86,6.28,5.90,-5.90,-5.99,-6.51,0.33,0.37,0.37
137.84,6.29,5.96,6.30,5.97,-5.97,-6.00,-6.44,0.32,0.34,0.33
139.22,6.35,6.06,6.33,6.03,-6.03,-6.01,-6.36,0.32,0.30,0.29
140.61,6.42,6.17,6.35,6.09,-6.09,-6.01,-6.28,0.32,0.26,0.24
142.02,6.44,6.21,6.38,6.16,-6.16,-6.01,-6.20,0.28,0.22,0.22
143.44,6.44,6.25,6.40,6.22,-6.22,-6.01,-6.11,0.21,0.18,0.18
144.87,6.44,6.30,6.41,6.28,-6.28,-6.01,-6.02,0.16,0.13,0.13
146.32,6.41,6.32,6.41,6.33,-6.33,-6.01,-5.93,0.08,0.08,0.09
147.78,6.35,6.30,6.38,6.36,-6.36,-6.00,-5.83,-0.01,0.02,0.05
149.26,6.34,6.34,6.33,6.37,-6.37,-6.00,-5.74,-0.04,-0.04,-0.01
150.75,6.34,6.42,6.26,6.37,-6.37,-5.99,-5.65,-0.03,-0.11,-0.08
152.26,6.24,6.39,6.17,6.35,-6.35,-5.98,-5.55,-0.11,-0.18,-0.16
153.78,6.12,6.35,6.06,6.31,-6.31,-5.96,-5.46,-0.19,-0.25,-0.23
155.32,6.07,6.38,5.94,6.26,-6.26,-5.95,-5.37,-0.20,-0.33,-0.31
156.88,5.98,6.37,5.82,6.22,-6.22,-5.93,-5.28,-0.24,-0.40,-0.40
158.44,5.77,6.25,5.70,6.19,-6.19,-5.91,-5.19,-0.42,-0.48,-0.49
160.03,5.59,6.16,5.60,6.16,-6.16,-5.89,-5.11,-0.58,-0.56,-0.58
161.63,5.42,6.07,5.52,6.15,-6.15,-5.87,-5.03,-0.73,-0.63,-0.65
163.24,5.23,5.95,5.44,6.14,-6.14,-5.85,-4.95,-0.91,-0.70,-0.72
164.88,5.13,5.91,5.37,6.13,-6.13,-5.82,-4.87,-1.00,-0.76,-0.78
166.53,5.09,5.92,5.31,6.12,-6.12,-5.79,-4.79,-1.03,-0.82,-0.83
168.19,5.09,5.97,5.26,6.12,-6.12,-5.77,-4.72,-1.03,-0.86,-0.88
169.87,5.15,6.07,5.22,6.12,-6.12,-5.73,-4.66,-0.97,-0.90,-0.92
171.57,5.25,6.19,5.19,6.12,-6.12,-5.70,-4.59,-0.88,-0.93,-0.95
173.29,5.32,6.28,5.16,6.12,-6.12,-5.67,-4.53,-0.80,-0.96,-0.97
175.02,5.34,6.32,5.14,6.12,-6.12,-5.63,-4.47,-0.78,-0.98,-0.98
176.77,5.30,6.30,5.12,6.11,-6.11,-5.60,-4.42,-0.82,-0.99,-1.00
178.54,5.21,6.22,5.10,6.10,-6.10,-5.56,-4.37,-0.90,-1.01,-1.01
180.32,5.10,6.10,5.07,6.08,-6.08,-5.52,-4.32,-0.99,-1.02,-1.01
182.13,5.03,6.03,5.02,6.05,-6.05,-5.48,-4.27,-1.02,-1.03,-1.01
183.95,4.97,5.99,4.95,5.99,-5.99,-5.44,-4.23,-1.03,-1.04,-1.02
185.79,4.85,5.87,4.88,5.93,-5.93,-5.39,-4.20,-1.08,-1.05,-1.03
187.65,4.73,5.78,4.79,5.85,-5.85,-5.35,-4.16,-1.13,-1.06,-1.05
189.52,4.65,5.71,4.69,5.77,-5.77,-5.30,-4.13,-1.13,-1.08,-1.07
191.42,4.54,5.63,4.59,5.69,-5.69,-5.26,-4.10,-1.15,-1.10,-1.09
193.33,4.46,5.57,4.50,5.61,-5.61,-5.21,-4.08,-1.16,-1.12,-1.12
195.27,4.40,5.53,4.40,5.54,-5.54,-5.16,-4.05,-1.15,-1.14,-1.14
197.22,4.32,5.48,4.31,5.47,-5.47,-5.11,-4.03,-1.15,-1.16,-1.16
199.19,4.20,5.39,4.22,5.40,-5.40,-5.06,-4.02,-1.20,-1.18,-1.19
201.18,4.13,5.34,4.12,5.33,-5.33,-5.01,-4.00,-1.20,-1.21,-1.21
203.19,4.07,5.30,4.03,5.26,-5.26,-4.96,-3.99,-1.19,-1.23,-1.23
205.23,3.99,5.25,3.93,5.19,-5.19,-4.91,-3.98,-1.20,-1.26,-1.26
207.28,3.88,5.14,3.84,5.12,-5.12,-4.85,-3.97,-1.24,-1.28,-1.27
209.35,3.76,5.05,3.74,5.04,-5.04,-4.80,-3.96,-1.29,-1.30,-1.30
211.44,3.66,4.99,3.64,4.97,-4.97,-4.74,-3.95,-1.31,-1.32,-1.33
213.56,3.54,4.88,3.54,4.89,-4.89,-4.68,-3.95,-1.35,-1.34,-1.34
215.69,3.38,4.73,3.44,4.79,-4.79,-4.63,-3.94,-1.42,-1.36,-1.36
217.85,3.26,4.63,3.33,4.70,-4.70,-4.57,-3.94,-1.45,-1.37,-1.37
220.03,3.24,4.62,3.23,4.61,-4.61,-4.51,-3.93,-1.37,-1.38,-1.39
222.23,3.17,4.58,3.12,4.52,-4.52,-4.45,-3.93,-1.35,-1.39,-1.41
224.45,3.04,4.44,3.02,4.42,-4.42,-4.39,-3.93,-1.39,-1.40,-1.40
226.70,2.92,4.32,2.93,4.33,-4.33,-4.32,-3.92,-1.41,-1.40,-1.41
228.96,2.85,4.25,2.84,4.24,-4.24,-4.26,-3.92,-1.39,-1.40,-1.40
231.25,2.79,4.18,2.75,4.15,-4.15,-4.19,-3.91,-1.36,-1.39,-1.39
233.57,2.66,4.04,2.67,4.05,-4.05,-4.12,-3.90,-1.40,-1.38,-1.39
235.90,2.53,3.90,2.59,3.96,-3.96,-4.06,-3.89,-1.44,-1.37,-1.38
238.26,2.44,3.81,2.52,3.88,-3.88,-3.98,-3.88,-1.44,-1.36,-1.37
240.64,2.44,3.79,2.44,3.79,-3.79,-3.91,-3.87,-1.35,-1.34,-1.35
243.05,2.40,3.72,2.37,3.69,-3.69,-3.83,-3.85,-1.30,-1.32,-1.32
245.48,2.31,3.61,2.28,3.59,-3.59,-3.76,-3.83,-1.28,-1.30,-1.30
247.93,2.24,3.51,2.21,3.49,-3.49,-3.67,-3.81,-1.25,-1.28,-1.27
250.41,2.16,3.42,2.13,3.39,-3.39,-3.59,-3.79,-1.24,-1.26,-1.26
252.92,2.06,3.29,2.06,3.30,-3.30,-3.49,-3.76,-1.24,-1.24,-1.23
255.45,2.00,3.20,1.98,3.20,-3.20,-3.40,-3.74,-1.20,-1.22,-1.21
258.00,1.94,3.12,1.90,3.09,-3.09,-3.29,-3.71,-1.16,-1.19,-1.19
260.58,1.85,3.02,1.81,2.98,-2.98,-3.18,-3.67,-1.14,-1.17,-1.17
263.19,1.72,2.86,1.72,2.87,-2.87,-3.07,-3.64,-1.15,-1.15,-1.14
265.82,1.61,2.74,1.63,2.75,-2.75,-2.94,-3.60,-1.15,-1.12,-1.13
268.48,1.53,2.63,1.53,2.63,-2.63,-2.80,-3.56,-1.11,-1.10,-1.11
271.16,1.44,2.51,1.44,2.51,-2.51,-2.66,-3.52,-1.08,-1.08,-1.07
273.87,1.39,2.45,1.35,2.40,-2.40,-2.50,-3.47,-1.01,-1.05,-1.06
276.61,1.30,2.32,1.26,2.29,-2.29,-2.34,-3.43,-0.99,-1.03,-1.03
279.38,1.22,2.22,1.18,2.19,-2.19,-2.18,-3.38,-0.97,-1.00,-1.00
282.17,1.10,2.08,1.11,2.09,-2.09,-2.03,-3.34,-0.99,-0.98,-0.98
284.99,0.97,1.91,1.04,2.00,-2.00,-1.89,-3.29,-1.03,-0.95,-0.95
287.84,0.93,1.86,0.99,1.91,-1.91,-1.78,-3.24,-0.99,-0.92,-0.93
290.72,0.94,1.83,0.95,1.85,-1.85,-1.70,-3.19,-0.91,-0.89,-0.90
293.63,0.90,1.77,0.92,1.79,-1.79,-1.66,-3.14,-0.89,-0.87,-0.87
296.57,0.87,1.70,0.90,1.74,-1.74,-1.66,-3.10,-0.87,-0.84,-0.84
299.53,0.88,1.69,0.88,1.70,-1.70,-1.69,-3.05,-0.82,-0.81,-0.81
302.53,0.89,1.68,0.88,1.67,-1.67,-1.74,-3.00,-0.78,-0.79,-0.80
305.55,0.90,1.65,0.89,1.65,-1.65,-1.80,-2.95,-0.75,-0.76,-0.75
308.61,0.91,1.64,0.90,1.64,-1.64,-1.87,-2.91,-0.73,-0.74,-0.74
311.69,0.91,1.62,0.92,1.64,-1.64,-1.93,-2.86,-0.73,-0.72,-0.71
314.81,0.99,1.67,0.95,1.65,-1.65,-1.99,-2.82,-0.66,-0.69,-0.68
317.96,1.02,1.68,0.98,1.65,-1.65,-2.04,-2.78,-0.64,-0.67,-0.67
321.14,1.02,1.68,1.01,1.66,-1.66,-2.07,-2.74,-0.65,-0.66,-0.66
324.35,1.03,1.67,1.03,1.68,-1.68,-2.10,-2.70,-0.65,-0.64,-0.64
327.59,1.10,1.72,1.07,1.70,-1.70,-2.12,-2.66,-0.60,-0.63,-0.63
330.87,1.11,1.73,1.11,1.72,-1.72,-2.14,-2.62,-0.62,-0.61,-0.62
334.18,1.17,1.77,1.15,1.75,-1.75,-2.14,-2.59,-0.58,-0.60,-0.60
337.52,1.20,1.79,1.18,1.78,-1.78,-2.14,-2.55,-0.58,-0.59,-0.60
340.90,1.20,1.78,1.23,1.82,-1.82,-2.14,-2.52,-0.62,-0.59,-0.58
344.30,1.25,1.82,1.28,1.86,-1.86,-2.13,-2.49,-0.61,-0.58,-0.57
347.75,1.30,1.87,1.33,1.91,-1.91,-2.12,-2.47,-0.61,-0.58,-0.58
351.23,1.37,1.93,1.38,1.96,-1.96,-2.11,-2.44,-0.59,-0.57,-0.57
354.74,1.43,2.00,1.44,2.01,-2.01,-2.09,-2.42,-0.58,-0.57,-0.57
358.28,1.51,2.07,1.49,2.06,-2.06,-2.07,-2.39,-0.55,-0.56,-0.56
361.87,1.57,2.13,1.55,2.11,-2.11,-2.05,-2.37,-0.55,-0.56,-0.57
365.49,1.60,2.15,1.60,2.17,-2.17,-2.03,-2.36,-0.57,-0.56,-0.56
369.14,1.62,2.19,1.66,2.22,-2.22,-2.00,-2.34,-0.60,-0.56,-0.57
372.83,1.76,2.33,1.70,2.27,-2.27,-1.98,-2.32,-0.52,-0.57,-0.57
376.56,1.82,2.39,1.75,2.32,-2.32,-1.95,-2.31,-0.51,-0.57,-0.57
380.33,1.83,2.39,1.80,2.37,-2.37,-1.93,-2.30,-0.55,-0.57,-0.57
384.13,1.84,2.40,1.84,2.41,-2.41,-1.90,-2.29,-0.58,-0.58,-0.57
387.97,1.84,2.42,1.86,2.45,-2.45,-1.87,-2.28,-0.61,-0.58,-0.58
391.85,1.85,2.44,1.88,2.47,-2.47,-1.85,-2.28,-0.62,-0.59,-0.59
395.77,1.92,2.50,1.90,2.49,-2.49,-1.82,-2.27,-0.57,-0.59,-0.58
399.73,1.94,2.53,1.91,2.51,-2.51,-1.79,-2.27,-0.57,-0.60,-0.59
403.72,1.94,2.53,1.91,2.52,-2.52,-1.76,-2.26,-0.58,-0.60,-0.60
407.76,1.94,2.54,1.91,2.52,-2.52,-1.74,-2.26,-0.59,-0.61,-0.61
411.84,1.94,2.55,1.91,2.52,-2.52,-1.71,-2.26,-0.59,-0.61,-0.61
415.96,1.93,2.54,1.90,2.52,-2.52,-1.68,-2.26,-0.59,-0.61,-0.61
420.12,1.91,2.52,1.90,2.51,-2.51,-1.65,-2.26,-0.60,-0.61,-0.61
424.32,1.85,2.46,1.90,2.50,-2.50,-1.62,-2.26,-0.66,-0.61,-0.61
428.56,1.85,2.45,1.89,2.49,-2.49,-1.60,-2.26,-0.65,-0.60,-0.60
432.85,1.87,2.46,1.89,2.47,-2.47,-1.57,-2.26,-0.61,-0.58,-0.60
437.18,1.89,2.47,1.89,2.45,-2.45,-1.54,-2.26,-0.57,-0.56,-0.59
441.55,1.92,2.46,1.90,2.44,-2.44,-1.51,-2.26,-0.52,-0.54,-0.55
445.96,1.90,2.41,1.91,2.42,-2.42,-1.49,-2.26,-0.52,-0.50,-0.52
450.42,1.93,2.42,1.93,2.40,-2.40,-1.46,-2.26,-0.47,-0.47,-0.49
454.93,1.91,2.35,1.95,2.37,-2.37,-1.43,-2.26,-0.47,-0.43,-0.44
459.48,1.95,2.34,1.97,2.35,-2.35,-1.41,-2.25,-0.41,-0.38,-0.39
464.07,2.01,2.35,2.00,2.34,-2.34,-1.38,-2.25,-0.33,-0.34,-0.34
468.71,2.03,2.31,2.03,2.32,-2.32,-1.36,-2.25,-0.29,-0.29,-0.28
473.40,2.05,2.29,2.06,2.30,-2.30,-1.33,-2.24,-0.26,-0.24,-0.24
478.13,2.09,2.27,2.09,2.28,-2.28,-1.30,-2.23,-0.20,-0.19,-0.18
482.91,2.14,2.28,2.11,2.26,-2.26,-1.28,-2.22,-0.13,-0.15,-0.15
487.74,2.17,2.27,2.14,2.24,-2.24,-1.25,-2.21,-0.08,-0.11,-0.11
492.62,2.14,2.19,2.15,2.22,-2.22,-1.23,-2.19,-0.09,-0.07,-0.06
497.55,2.14,2.17,2.16,2.20,-2.20,-1.20,-2.18,-0.07,-0.04,-0.04
502.52,2.17,2.17,2.16,2.18,-2.18,-1.18,-2.16,-0.01,-0.02,-0.01
507.55,2.19,2.18,2.16,2.16,-2.16,-1.16,-2.14,0.02,-0.00,0.00
512.62,2.20,2.19,2.14,2.14,-2.14,-1.13,-2.11,0.05,0.00,0.01
517.75,2.14,2.12,2.12,2.12,-2.12,-1.11,-2.09,0.02,-0.00,0.02
522.93,2.11,2.10,2.08,2.09,-2.09,-1.08,-2.06,0.01,-0.01,0.01
