frequency,raw,error,smoothed,error_smoothed,equalization,parametric_eq,fixed_band_eq,equalized_raw,equalized_smoothed,target
20.00,1.09,-3.05,1.10,-3.07,3.07,3.20,0.57,4.16,4.17,4.14
20.20,1.16,-3.03,1.16,-3.05,3.05,3.15,0.59,4.21,4.21,4.19
20.40,1.22,-3.02,1.22,-3.02,3.02,3.10,0.61,4.24,4.24,4.24
20.61,1.28,-2.98,1.28,-2.99,2.99,3.04,0.63,4.28,4.28,4.27
20.81,1.35,-2.97,1.35,-2.96,2.96,2.98,0.65,4.31,4.31,4.32
21.02,1.42,-2.94,1.41,-2.93,2.93,2.93,0.67,4.34,4.33,4.36
21.23,1.48,-2.90,1.47,-2.89,2.89,2.87,0.69,4.36,4.36,4.38
21.44,1.54,-2.86,1.54,-2.85,2.85,2.81,0.72,4.38,4.38,4.40
21.66,1.61,-2.81,1.60,-2.80,2.80,2.75,0.74,4.41,4.40,4.42
21.87,1.67,-2.76,1.66,-2.76,2.76,2.69,0.76,4.43,4.42,4.43
22.09,1.74,-2.71,1.73,-2.71,2.71,2.63,0.79,4.45,4.44,4.45
22.31,1.80,-2.66,1.79,-2.66,2.66,2.57,0.81,4.45,4.45,4.46
22.54,1.86,-2.61,1.86,-2.60,2.60,2.51,0.84,4.45,4.46,4.46
22.76,1.92,-2.54,1.92,-2.54,2.54,2.45,0.86,4.45,4.46,4.46
22.99,1.99,-2.46,1.99,-2.47,2.47,2.39,0.89,4.46,4.46,4.45
23.22,2.05,-2.40,2.06,-2.40,2.40,2.33,0.92,4.45,4.46,4.45
23.45,2.12,-2.33,2.13,-2.34,2.34,2.27,0.95,4.45,4.46,4.45
23.69,2.19,-2.28,2.19,-2.27,2.27,2.21,0.97,4.45,4.46,4.46
23.92,2.26,-2.20,2.26,-2.20,2.20,2.14,1.00,4.46,4.46,4.46
24.16,2.33,-2.13,2.33,-2.14,2.14,2.08,1.03,4.46,4.46,4.46
24.40,2.40,-2.07,2.39,-2.07,2.07,2.02,1.06,4.47,4.46,4.47
24.65,2.47,-1.99,2.45,-2.01,2.01,1.96,1.09,4.47,4.46,4.46
24.89,2.54,-1.92,2.51,-1.95,1.95,1.90,1.12,4.49,4.46,4.46
25.14,2.60,-1.86,2.57,-1.89,1.89,1.84,1.15,4.49,4.46,4.46
25.39,2.65,-1.82,2.63,-1.83,1.83,1.78,1.18,4.48,4.46,4.47
25.65,2.69,-1.78,2.69,-1.78,1.78,1.72,1.21,4.47,4.47,4.47
25.91,2.74,-1.73,2.74,-1.73,1.73,1.66,1.24,4.46,4.46,4.46
26.16,2.79,-1.67,2.79,-1.67,1.67,1.60,1.26,4.46,4.46,4.46
26.43,2.85,-1.62,2.84,-1.62,1.62,1.54,1.29,4.46,4.46,4.46
26.69,2.90,-1.56,2.90,-1.56,1.56,1.48,1.32,4.46,4.46,4.46
26.96,2.95,-1.51,2.95,-1.51,1.51,1.42,1.34,4.45,4.46,4.46
27.23,3.00,-1.46,3.01,-1.44,1.44,1.36,1.37,4.44,4.46,4.46
27.50,3.06,-1.40,3.07,-1.38,1.38,1.30,1.39,4.44,4.45,4.46
27.77,3.11,-1.34,3.14,-1.32,1.32,1.24,1.41,4.42,4.45,4.45
28.05,3.17,-1.28,3.20,-1.25,1.25,1.19,1.43,4.42,4.45,4.45
28.33,3.25,-1.19,3.27,-1.18,1.18,1.13,1.44,4.43,4.45,4.44
28.62,3.32,-1.12,3.33,-1.12,1.12,1.07,1.46,4.44,4.45,4.44
28.90,3.41,-1.04,3.39,-1.06,1.06,1.02,1.47,4.46,4.45,4.45
29.19,3.48,-0.96,3.45,-1.00,1.00,0.96,1.47,4.47,4.45,4.44
29.48,3.55,-0.90,3.51,-0.93,0.93,0.91,1.48,4.48,4.44,4.45
29.78,3.62,-0.82,3.57,-0.87,0.87,0.85,1.48,4.49,4.44,4.44
30.08,3.68,-0.77,3.63,-0.82,0.82,0.79,1.48,4.49,4.44,4.45
30.38,3.70,-0.74,3.68,-0.76,0.76,0.74,1.47,4.46,4.44,4.44
30.68,3.72,-0.72,3.73,-0.71,0.71,0.69,1.46,4.42,4.44,4.44
30.99,3.75,-0.69,3.78,-0.65,0.65,0.63,1.45,4.40,4.44,4.44
31.30,3.81,-0.62,3.83,-0.60,0.60,0.58,1.43,4.40,4.43,4.43
31.61,3.87,-0.56,3.89,-0.55,0.55,0.52,1.41,4.41,4.43,4.43
31.93,3.93,-0.51,3.94,-0.49,0.49,0.47,1.38,4.42,4.43,4.43
32.24,3.98,-0.44,3.99,-0.44,0.44,0.42,1.35,4.41,4.42,4.42
32.57,4.04,-0.38,4.04,-0.38,0.38,0.37,1.32,4.41,4.42,4.42
32.89,4.09,-0.33,4.10,-0.32,0.32,0.31,1.28,4.41,4.42,4.42
33.22,4.15,-0.26,4.15,-0.26,0.26,0.26,1.24,4.40,4.41,4.41
33.55,4.22,-0.19,4.21,-0.19,0.19,0.21,1.20,4.41,4.41,4.41
33.89,4.28,-0.12,4.27,-0.13,0.13,0.16,1.15,4.41,4.40,4.40
34.23,4.34,-0.06,4.33,-0.07,0.07,0.11,1.10,4.40,4.40,4.40
34.57,4.40,0.01,4.38,-0.01,0.01,0.06,1.05,4.41,4.39,4.39
34.92,4.46,0.07,4.43,0.04,-0.04,0.00,0.99,4.41,4.39,4.39
35.27,4.50,0.12,4.48,0.10,-0.10,-0.05,0.93,4.40,4.39,4.38
35.62,4.54,0.16,4.53,0.15,-0.15,-0.10,0.87,4.39,4.38,4.38
35.97,4.59,0.21,4.58,0.20,-0.20,-0.15,0.81,4.39,4.38,4.38
36.33,4.62,0.24,4.62,0.24,-0.24,-0.20,0.75,4.38,4.38,4.38
36.70,4.66,0.29,4.66,0.28,-0.28,-0.25,0.68,4.38,4.38,4.37
37.06,4.70,0.33,4.70,0.32,-0.32,-0.30,0.61,4.38,4.38,4.37
37.43,4.73,0.35,4.74,0.36,-0.36,-0.35,0.54,4.37,4.38,4.38
37.81,4.77,0.39,4.78,0.40,-0.40,-0.40,0.47,4.36,4.38,4.38
38.19,4.81,0.44,4.82,0.44,-0.44,-0.45,0.40,4.36,4.38,4.37
38.57,4.86,0.48,4.86,0.48,-0.48,-0.50,0.33,4.38,4.38,4.38
38.95,4.90,0.51,4.90,0.52,-0.52,-0.55,0.26,4.38,4.38,4.39
39.34,4.94,0.56,4.94,0.56,-0.56,-0.59,0.18,4.38,4.38,4.38
39.74,4.97,0.59,4.98,0.60,-0.60,-0.64,0.11,4.37,4.38,4.38
40.14,5.01,0.63,5.02,0.64,-0.64,-0.69,0.03,4.36,4.38,4.38
40.54,5.08,0.70,5.06,0.68,-0.68,-0.74,-0.05,4.39,4.38,4.38
40.94,5.15,0.78,5.10,0.73,-0.73,-0.79,-0.12,4.42,4.37,4.37
41.35,5.16,0.79,5.14,0.77,-0.77,-0.84,-0.20,4.39,4.37,4.37
41.76,5.17,0.81,5.18,0.82,-0.82,-0.89,-0.28,4.35,4.36,4.36
42.18,5.19,0.83,5.21,0.86,-0.86,-0.94,-0.36,4.33,4.35,4.36
42.60,5.23,0.88,5.24,0.90,-0.90,-0.99,-0.44,4.33,4.34,4.35
43.03,5.27,0.93,5.27,0.94,-0.94,-1.04,-0.52,4.33,4.33,4.34
43.46,5.32,0.99,5.30,0.98,-0.98,-1.09,-0.59,4.34,4.32,4.33
43.90,5.36,1.05,5.32,1.01,-1.01,-1.14,-0.67,4.34,4.31,4.31
44.33,5.37,1.08,5.34,1.05,-1.05,-1.19,-0.76,4.32,4.30,4.29
44.78,5.37,1.10,5.36,1.08,-1.08,-1.24,-0.84,4.28,4.28,4.27
45.23,5.39,1.13,5.38,1.11,-1.11,-1.29,-0.92,4.27,4.27,4.26
45.68,5.42,1.17,5.41,1.15,-1.15,-1.34,-1.00,4.27,4.26,4.25
46.13,5.44,1.21,5.44,1.19,-1.19,-1.39,-1.08,4.24,4.24,4.23
46.60,5.45,1.22,5.47,1.24,-1.24,-1.44,-1.16,4.20,4.23,4.23
47.06,5.47,1.26,5.50,1.29,-1.29,-1.49,-1.25,4.18,4.21,4.21
47.53,5.51,1.31,5.53,1.33,-1.33,-1.54,-1.33,4.17,4.20,4.20
48.01,5.56,1.36,5.57,1.38,-1.38,-1.59,-1.42,4.17,4.18,4.20
48.49,5.60,1.42,5.61,1.44,-1.44,-1.64,-1.50,4.16,4.17,4.18
48.97,5.65,1.49,5.65,1.50,-1.50,-1.69,-1.58,4.15,4.16,4.16
49.46,5.70,1.56,5.71,1.56,-1.56,-1.74,-1.67,4.13,4.14,4.14
49.96,5.76,1.64,5.76,1.63,-1.63,-1.79,-1.75,4.12,4.13,4.12
50.46,5.84,1.73,5.82,1.70,-1.70,-1.84,-1.84,4.13,4.12,4.11
50.96,5.92,1.82,5.88,1.78,-1.78,-1.90,-1.92,4.14,4.10,4.10
51.47,5.94,1.86,5.94,1.85,-1.85,-1.95,-2.01,4.08,4.09,4.08
51.99,5.96,1.89,6.00,1.93,-1.93,-2.00,-2.09,4.03,4.08,4.07
52.51,6.05,1.98,6.06,2.00,-2.00,-2.05,-2.18,4.05,4.06,4.06
53.03,6.14,2.08,6.12,2.07,-2.07,-2.10,-2.26,4.07,4.05,4.06
53.56,6.20,2.16,6.17,2.14,-2.14,-2.16,-2.34,4.06,4.04,4.04
54.10,6.25,2.22,6.23,2.20,-2.20,-2.21,-2.42,4.04,4.03,4.03
54.64,6.30,2.29,6.28,2.27,-2.27,-2.26,-2.50,4.03,4.02,4.01
55.18,6.35,2.34,6.33,2.32,-2.32,-2.32,-2.58,4.02,4.01,4.01
55.74,6.40,2.41,6.37,2.38,-2.38,-2.37,-2.66,4.02,4.00,3.99
56.29,6.43,2.45,6.42,2.43,-2.43,-2.42,-2.73,3.99,3.98,3.98
56.86,6.43,2.46,6.45,2.48,-2.48,-2.48,-2.81,3.94,3.97,3.97
57.42,6.47,2.53,6.49,2.54,-2.54,-2.53,-2.88,3.93,3.95,3.94
58.00,6.52,2.59,6.52,2.59,-2.59,-2.58,-2.95,3.93,3.93,3.93
58.58,6.58,2.66,6.55,2.64,-2.64,-2.64,-3.01,3.93,3.91,3.92
59.16,6.62,2.72,6.58,2.70,-2.70,-2.69,-3.08,3.92,3.89,3.90
59.76,6.62,2.74,6.61,2.75,-2.75,-2.75,-3.14,3.86,3.86,3.88
60.35,6.62,2.78,6.64,2.81,-2.81,-2.80,-3.20,3.81,3.83,3.84
60.96,6.62,2.82,6.66,2.87,-2.87,-2.86,-3.25,3.75,3.79,3.80
61.57,6.68,2.92,6.69,2.93,-2.93,-2.92,-3.30,3.74,3.76,3.76
62.18,6.72,3.00,6.71,2.99,-2.99,-2.97,-3.35,3.72,3.72,3.72
62.80,6.72,3.05,6.73,3.05,-3.05,-3.03,-3.39,3.66,3.68,3.67
63.43,6.76,3.13,6.75,3.11,-3.11,-3.08,-3.43,3.64,3.64,3.63
64.07,6.81,3.23,6.76,3.17,-3.17,-3.14,-3.47,3.64,3.59,3.58
64.71,6.81,3.27,6.77,3.22,-3.22,-3.20,-3.51,3.58,3.55,3.54
65.35,6.81,3.31,6.78,3.28,-3.28,-3.25,-3.54,3.52,3.50,3.50
66.01,6.81,3.36,6.80,3.34,-3.34,-3.31,-3.57,3.46,3.45,3.45
66.67,6.81,3.41,6.81,3.40,-3.40,-3.37,-3.60,3.40,3.40,3.40
67.33,6.81,3.46,6.82,3.46,-3.46,-3.42,-3.62,3.35,3.36,3.35
68.01,6.81,3.50,6.83,3.52,-3.52,-3.48,-3.64,3.29,3.31,3.31
68.69,6.81,3.55,6.84,3.58,-3.58,-3.54,-3.66,3.23,3.26,3.26
69.37,6.81,3.60,6.85,3.64,-3.64,-3.60,-3.68,3.16,3.21,3.21
70.07,6.82,3.66,6.86,3.71,-3.71,-3.65,-3.70,3.11,3.15,3.16
70.77,6.89,3.78,6.87,3.77,-3.77,-3.71,-3.72,3.11,3.10,3.11
71.48,6.91,3.85,6.88,3.84,-3.84,-3.77,-3.74,3.07,3.05,3.06
72.19,6.91,3.92,6.90,3.91,-3.91,-3.83,-3.76,3.00,2.99,2.99
72.91,6.91,3.98,6.91,3.97,-3.97,-3.89,-3.77,2.93,2.93,2.93
73.64,6.91,4.03,6.92,4.04,-4.04,-3.94,-3.79,2.87,2.88,2.88
74.38,6.94,4.12,6.93,4.10,-4.10,-4.00,-3.81,2.83,2.82,2.82
75.12,7.00,4.24,6.94,4.17,-4.17,-4.06,-3.83,2.83,2.77,2.76
75.87,7.00,4.30,6.94,4.23,-4.23,-4.12,-3.85,2.76,2.71,2.70
76.63,6.94,4.29,6.94,4.29,-4.29,-4.18,-3.87,2.65,2.66,2.65
77.40,6.91,4.31,6.94,4.34,-4.34,-4.23,-3.90,2.57,2.60,2.60
78.17,6.91,4.37,6.93,4.38,-4.38,-4.29,-3.93,2.52,2.55,2.54
78.95,6.91,4.41,6.92,4.42,-4.42,-4.35,-3.95,2.48,2.50,2.50
79.74,6.91,4.46,6.91,4.47,-4.47,-4.41,-3.98,2.44,2.45,2.45
80.54,6.91,4.51,6.91,4.51,-4.51,-4.47,-4.02,2.40,2.40,2.40
81.35,6.91,4.56,6.90,4.54,-4.54,-4.52,-4.05,2.36,2.35,2.35
82.16,6.91,4.61,6.88,4.58,-4.58,-4.58,-4.09,2.33,2.30,2.30
82.98,6.91,4.65,6.86,4.61,-4.61,-4.64,-4.13,2.30,2.26,2.26
83.81,6.83,4.62,6.85,4.64,-4.64,-4.69,-4.18,2.19,2.21,2.21
84.65,6.81,4.65,6.83,4.67,-4.67,-4.75,-4.23,2.13,2.16,2.16
85.50,6.81,4.69,6.82,4.71,-4.71,-4.81,-4.28,2.10,2.11,2.12
86.35,6.81,4.74,6.81,4.75,-4.75,-4.86,-4.33,2.06,2.06,2.07
87.22,6.81,4.79,6.80,4.79,-4.79,-4.92,-4.39,2.02,2.01,2.02
88.09,6.81,4.84,6.78,4.82,-4.82,-4.97,-4.45,1.99,1.96,1.97
88.97,6.77,4.86,6.76,4.85,-4.85,-5.03,-4.52,1.92,1.91,1.91
89.86,6.73,4.87,6.75,4.88,-4.88,-5.08,-4.58,1.84,1.86,1.86
90.76,6.72,4.91,6.73,4.92,-4.92,-5.13,-4.66,1.80,1.81,1.81
91.66,6.72,4.96,6.72,4.96,-4.96,-5.18,-4.73,1.76,1.76,1.76
92.58,6.72,5.02,6.70,4.99,-4.99,-5.24,-4.81,1.72,1.71,1.70
93.51,6.72,5.07,6.69,5.03,-5.03,-5.29,-4.89,1.68,1.66,1.65
94.44,6.72,5.11,6.68,5.07,-5.07,-5.34,-4.98,1.64,1.61,1.61
95.39,6.69,5.13,6.67,5.11,-5.11,-5.39,-5.06,1.58,1.56,1.56
96.34,6.63,5.12,6.66,5.15,-5.15,-5.44,-5.15,1.48,1.51,1.51
97.30,6.62,5.16,6.65,5.19,-5.19,-5.49,-5.25,1.42,1.46,1.46
98.28,6.63,5.22,6.66,5.24,-5.24,-5.53,-5.34,1.38,1.41,1.41
99.26,6.69,5.32,6.66,5.29,-5.29,-5.58,-5.44,1.40,1.37,1.37
100.25,6.67,5.35,6.66,5.34,-5.34,-5.62,-5.54,1.32,1.32,1.32
101.25,6.65,5.38,6.67,5.40,-5.40,-5.67,-5.65,1.25,1.27,1.27
102.27,6.65,5.43,6.68,5.46,-5.46,-5.71,-5.75,1.18,1.22,1.22
103.29,6.69,5.52,6.71,5.53,-5.53,-5.75,-5.86,1.15,1.17,1.17
104.32,6.72,5.59,6.73,5.61,-5.61,-5.80,-5.96,1.11,1.12,1.13
105.37,6.75,5.67,6.76,5.68,-5.68,-5.84,-6.07,1.06,1.07,1.08
106.42,6.79,5.76,6.79,5.76,-5.76,-5.87,-6.18,1.02,1.02,1.03
107.48,6.82,5.85,6.81,5.84,-5.84,-5.91,-6.28,0.97,0.97,0.97
108.56,6.80,5.88,6.83,5.91,-5.91,-5.95,-6.38,0.88,0.92,0.92
109.64,6.80,5.93,6.84,5.98,-5.98,-5.98,-6.49,0.82,0.87,0.87
110.74,6.89,6.08,6.85,6.03,-6.03,-6.01,-6.59,0.85,0.81,0.81
111.85,6.94,6.17,6.85,6.09,-6.09,-6.05,-6.68,0.85,0.76,0.77
112.97,6.93,6.22,6.84,6.13,-6.13,-6.08,-6.77,0.80,0.71,0.71
114.10,6.86,6.20,6.82,6.16,-6.16,-6.11,-6.86,0.70,0.66,0.66
115.24,6.82,6.21,6.80,6.18,-6.18,-6.13,-6.94,0.64,0.62,0.61
116.39,6.79,6.23,6.76,6.19,-6.19,-6.16,-7.01,0.60,0.57,0.56
117.55,6.74,6.22,6.72,6.19,-6.19,-6.18,-7.08,0.54,0.53,0.52
118.73,6.65,6.17,6.67,6.18,-6.18,-6.20,-7.13,0.46,0.49,0.48
119.92,6.56,6.11,6.62,6.17,-6.17,-6.22,-7.18,0.39,0.45,0.45
121.12,6.56,6.15,6.56,6.15,-6.15,-6.24,-7.22,0.41,0.42,0.41
122.33,6.52,6.14,6.50,6.12,-6.12,-6.26,-7.25,0.40,0.38,0.38
123.55,6.44,6.09,6.43,6.09,-6.09,-6.27,-7.27,0.35,0.35,0.35
124.79,6.39,6.07,6.38,6.06,-6.06,-6.29,-7.28,0.33,0.32,0.32
126.03,6.37,6.08,6.33,6.04,-6.04,-6.30,-7.28,0.33,0.29,0.29
127.29,6.30,6.03,6.29,6.03,-6.03,-6.31,-7.26,0.26,0.26,0.27
128.57,6.23,6.00,6.26,6.03,-6.03,-6.32,-7.24,0.20,0.23,0.23
129.85,6.22,6.02,6.24,6.04,-6.04,-6.32,-7.21,0.18,0.20,0.20
131.15,6.19,6.02,6.23,6.06,-6.06,-6.33,-7.17,0.12,0.17,0.17
132.46,6.15,6.01,6.24,6.10,-6.10,-6.33,-7.12,0.05,0.14,0.14
133.79,6.17,6.06,6.25,6.13,-6.13,-6.33,-7.06,0.03,0.11,0.11
135.12,6.24,6.16,6.26,6.17,-6.17,-6.33,-6.99,0.07,0.09,0.08
136.48,6.24,6.18,6.28,6.22,-6.22,-6.32,-6.92,0.02,0.06,0.06
137.84,6.29,6.27,6.30,6.27,-6.27,-6.32,-6.84,0.01,0.03,0.02
139.22,6.35,6.36,6.33,6.33,-6.33,-6.31,-6.75,0.02,0.00,-0.01
140.61,6.42,6.46,6.35,6.38,-6.38,-6.30,-6.66,0.04,-0.03,-0.04
142.02,6.44,6.50,6.38,6.44,-6.44,-6.29,-6.57,-0.00,-0.06,-0.06
143.44,6.44,6.53,6.40,6.49,-6.49,-6.28,-6.47,-0.06,-0.09,-0.09
144.87,6.44,6.57,6.41,6.54,-6.54,-6.26,-6.37,-0.11,-0.13,-0.13
146.32,6.41,6.58,6.41,6.58,-6.58,-6.25,-6.27,-0.18,-0.18,-0.17
147.78,6.35,6.55,6.38,6.61,-6.61,-6.23,-6.16,-0.26,-0.23,-0.20
149.26,6.34,6.59,6.33,6.61,-6.61,-6.21,-6.06,-0.28,-0.28,-0.25
150.75,6.34,6.65,6.26,6.60,-6.60,-6.19,-5.96,-0.26,-0.34,-0.31
152.26,6.24,6.62,6.17,6.57,-6.57,-6.17,-5.86,-0.33,-0.40,-0.38
153.78,6.12,6.57,6.06,6.52,-6.52,-6.14,-5.75,-0.41,-0.46,-0.45
155.32,6.07,6.59,5.94,6.47,-6.47,-6.11,-5.65,-0.40,-0.53,-0.52
156.88,5.98,6.58,5.82,6.42,-6.42,-6.09,-5.56,-0.44,-0.60,-0.60
158.44,5.77,6.45,5.70,6.38,-6.38,-6.06,-5.46,-0.61,-0.67,-0.68
160.03,5.59,6.35,5.60,6.35,-6.35,-6.03,-5.37,-0.76,-0.74,-0.76
161.63,5.42,6.25,5.52,6.32,-6.32,-5.99,-5.27,-0.91,-0.81,-0.83
163.24,5.23,6.12,5.44,6.31,-6.31,-5.96,-5.19,-1.08,-0.87,-0.89
164.88,5.13,6.07,5.37,6.29,-6.29,-5.93,-5.10,-1.16,-0.92,-0.94
166.53,5.09,6.08,5.31,6.28,-6.28,-5.89,-5.02,-1.19,-0.97,-0.99
168.19,5.09,6.12,5.26,6.27,-6.27,-5.85,-4.94,-1.18,-1.01,-1.03
169.87,5.15,6.22,5.22,6.27,-6.27,-5.81,-4.86,-1.12,-1.05,-1.07
171.57,5.25,6.34,5.19,6.26,-6.26,-5.77,-4.79,-1.02,-1.07,-1.09
173.29,5.32,6.42,5.16,6.25,-6.25,-5.73,-4.72,-0.94,-1.09,-1.10
175.02,5.34,6.45,5.14,6.24,-6.24,-5.69,-4.66,-0.91,-1.10,-1.11
176.77,5.30,6.42,5.12,6.24,-6.24,-5.65,-4.59,-0.94,-1.11,-1.12
178.54,5.21,6.34,5.10,6.22,-6.22,-5.60,-4.54,-1.01,-1.12,-1.13
180.32,5.10,6.22,5.07,6.19,-6.19,-5.56,-4.48,-1.10,-1.13,-1.12
182.13,5.03,6.14,5.02,6.15,-6.15,-5.51,-4.43,-1.12,-1.13,-1.11
183.95,4.97,6.09,4.95,6.09,-6.09,-5.46,-4.38,-1.13,-1.14,-1.12
185.79,4.85,5.97,4.88,6.02,-6.02,-5.41,-4.34,-1.18,-1.15,-1.12
187.65,4.73,5.87,4.79,5.94,-5.94,-5.37,-4.29,-1.22,-1.15,-1.14
189.52,4.65,5.80,4.69,5.86,-5.86,-5.32,-4.26,-1.21,-1.16,-1.15
191.42,4.54,5.71,4.59,5.77,-5.77,-5.27,-4.22,-1.23,-1.18,-1.17
193.33,4.46,5.65,4.50,5.69,-5.69,-5.21,-4.19,-1.23,-1.19,-1.19
195.27,4.40,5.61,4.40,5.61,-5.61,-5.16,-4.16,-1.22,-1.21,-1.21
197.22,4.32,5.55,4.31,5.54,-5.54,-5.11,-4.13,-1.22,-1.23,-1.23
199.19,4.20,5.45,4.22,5.46,-5.46,-5.06,-4.11,-1.26,-1.24,-1.25
201.18,4.13,5.40,4.12,5.39,-5.39,-5.00,-4.09,-1.26,-1.27,-1.27
203.19,4.07,5.36,4.03,5.32,-5.32,-4.95,-4.07,-1.25,-1.29,-1.29
205.23,3.99,5.30,3.93,5.24,-5.24,-4.89,-4.05,-1.25,-1.31,-1.31
207.28,3.88,5.20,3.84,5.16,-5.16,-4.84,-4.04,-1.29,-1.33,-1.32
209.35,3.76,5.10,3.74,5.09,-5.09,-4.78,-4.02,-1.33,-1.35,-1.34
211.44,3.66,5.03,3.64,5.01,-5.01,-4.72,-4.01,-1.35,-1.36,-1.37
213.56,3.54,4.92,3.54,4.92,-4.92,-4.66,-4.00,-1.39,-1.38,-1.38
215.69,3.38,4.77,3.44,4.83,-4.83,-4.61,-3.99,-1.45,-1.39,-1.39
217.85,3.26,4.66,3.33,4.73,-4.73,-4.55,-3.98,-1.48,-1.40,-1.40
220.03,3.24,4.65,3.23,4.64,-4.64,-4.49,-3.97,-1.40,-1.41,-1.41
222.23,3.17,4.61,3.12,4.54,-4.54,-4.43,-3.96,-1.38,-1.42,-1.44
224.45,3.04,4.47,3.02,4.45,-4.45,-4.36,-3.95,-1.41,-1.42,-1.43
226.70,2.92,4.35,2.93,4.35,-4.35,-4.30,-3.94,-1.43,-1.42,-1.43
228.96,2.85,4.27,2.84,4.25,-4.25,-4.24,-3.93,-1.41,-1.42,-1.42
231.25,2.79,4.20,2.75,4.16,-4.16,-4.17,-3.92,-1.37,-1.41,-1.41
233.57,2.66,4.06,2.67,4.07,-4.07,-4.11,-3.91,-1.41,-1.40,-1.40
235.90,2.53,3.92,2.59,3.97,-3.97,-4.04,-3.89,-1.45,-1.38,-1.39
238.26,2.44,3.82,2.52,3.88,-3.88,-3.97,-3.88,-1.45,-1.37,-1.38
240.64,2.44,3.79,2.44,3.79,-3.79,-3.90,-3.86,-1.36,-1.35,-1.35
243.05,2.40,3.72,2.37,3.69,-3.69,-3.83,-3.84,-1.30,-1.33,-1.32
245.48,2.31,3.61,2.28,3.59,-3.59,-3.75,-3.82,-1.28,-1.30,-1.30
247.93,2.24,3.51,2.21,3.49,-3.49,-3.67,-3.80,-1.25,-1.28,-1.27
250.41,2.16,3.41,2.13,3.39,-3.39,-3.59,-3.77,-1.23,-1.26,-1.25
252.92,2.06,3.28,2.06,3.29,-3.29,-3.50,-3.74,-1.23,-1.23,-1.22
255.45,2.00,3.20,1.98,3.19,-3.19,-3.41,-3.71,-1.19,-1.21,-1.20
258.00,1.94,3.12,1.90,3.08,-3.08,-3.32,-3.68,-1.14,-1.18,-1.18
260.58,1.85,3.01,1.81,2.97,-2.97,-3.21,-3.65,-1.12,-1.16,-1.16
263.19,1.72,2.85,1.72,2.86,-2.86,-3.10,-3.61,-1.14,-1.13,-1.13
265.82,1.61,2.72,1.63,2.74,-2.74,-2.99,-3.57,-1.13,-1.11,-1.11
268.48,1.53,2.62,1.53,2.61,-2.61,-2.86,-3.53,-1.09,-1.08,-1.09
271.16,1.44,2.50,1.44,2.49,-2.49,-2.72,-3.49,-1.06,-1.06,-1.06
273.87,1.39,2.43,1.35,2.38,-2.38,-2.57,-3.44,-0.99,-1.03,-1.04
276.61,1.30,2.31,1.26,2.27,-2.27,-2.42,-3.40,-0.97,-1.01,-1.01
279.38,1.22,2.20,1.18,2.17,-2.17,-2.26,-3.35,-0.95,-0.98,-0.98
282.17,1.10,2.06,1.11,2.06,-2.06,-2.09,-3.30,-0.97,-0.95,-0.96
284.99,0.97,1.89,1.04,1.97,-1.97,-1.94,-3.25,-1.00,-0.92,-0.92
287.84,0.93,1.83,0.99,1.89,-1.89,-1.80,-3.20,-0.96,-0.90,-0.90
290.72,0.94,1.81,0.95,1.82,-1.82,-1.68,-3.16,-0.88,-0.87,-0.87
293.63,0.90,1.74,0.92,1.76,-1.76,-1.60,-3.11,-0.86,-0.84,-0.84
296.57,0.87,1.68,0.90,1.71,-1.71,-1.57,-3.06,-0.84,-0.81,-0.81
299.53,0.88,1.66,0.88,1.66,-1.66,-1.57,-3.01,-0.79,-0.78,-0.78
302.53,0.89,1.65,0.88,1.63,-1.63,-1.60,-2.96,-0.75,-0.75,-0.76
305.55,0.90,1.62,0.89,1.61,-1.61,-1.66,-2.91,-0.72,-0.73,-0.72
308.61,0.91,1.61,0.90,1.60,-1.60,-1.73,-2.87,-0.70,-0.70,-0.70
311.69,0.91,1.58,0.92,1.60,-1.60,-1.80,-2.82,-0.70,-0.68,-0.67
314.81,0.99,1.64,0.95,1.61,-1.61,-1.87,-2.78,-0.62,-0.66,-0.65
317.96,1.02,1.65,0.98,1.62,-1.62,-1.92,-2.74,-0.60,-0.64,-0.63
321.14,1.02,1.64,1.01,1.62,-1.62,-1.97,-2.69,-0.61,-0.62,-0.62
324.35,1.03,1.63,1.03,1.63,-1.63,-2.01,-2.65,-0.61,-0.60,-0.60
327.59,1.10,1.69,1.07,1.66,-1.66,-2.04,-2.62,-0.56,-0.59,-0.59
330.87,1.11,1.69,1.11,1.68,-1.68,-2.07,-2.58,-0.58,-0.57,-0.58
334.18,1.17,1.73,1.15,1.71,-1.71,-2.08,-2.54,-0.54,-0.56,-0.56
337.52,1.20,1.75,1.18,1.73,-1.73,-2.09,-2.51,-0.54,-0.55,-0.55
340.90,1.20,1.74,1.23,1.77,-1.77,-2.09,-2.48,-0.58,-0.54,-0.54
344.30,1.25,1.78,1.28,1.82,-1.82,-2.09,-2.45,-0.57,-0.54,-0.53
347.75,1.30,1.83,1.33,1.86,-1.86,-2.08,-2.42,-0.57,-0.53,-0.53
351.23,1.37,1.89,1.38,1.91,-1.91,-2.07,-2.40,-0.54,-0.53,-0.52
354.74,1.43,1.96,1.44,1.96,-1.96,-2.06,-2.37,-0.53,-0.52,-0.53
358.28,1.51,2.03,1.49,2.01,-2.01,-2.04,-2.35,-0.51,-0.52,-0.52
361.87,1.57,2.09,1.55,2.07,-2.07,-2.02,-2.33,-0.50,-0.52,-0.52
365.49,1.60,2.11,1.60,2.12,-2.12,-2.00,-2.31,-0.52,-0.52,-0.51
369.14,1.62,2.14,1.66,2.17,-2.17,-1.98,-2.29,-0.56,-0.52,-0.52
372.83,1.76,2.28,1.70,2.22,-2.22,-1.96,-2.28,-0.47,-0.52,-0.52
376.56,1.82,2.35,1.75,2.27,-2.27,-1.93,-2.26,-0.46,-0.52,-0.53
380.33,1.83,2.35,1.80,2.32,-2.32,-1.91,-2.25,-0.50,-0.52,-0.52
384.13,1.84,2.36,1.84,2.36,-2.36,-1.88,-2.24,-0.53,-0.53,-0.52
387.97,1.84,2.37,1.86,2.40,-2.40,-1.86,-2.23,-0.56,-0.53,-0.53
391.85,1.85,2.39,1.88,2.42,-2.42,-1.83,-2.22,-0.57,-0.54,-0.54
395.77,1.92,2.45,1.90,2.44,-2.44,-1.81,-2.22,-0.52,-0.54,-0.53
399.73,1.94,2.48,1.91,2.45,-2.45,-1.78,-2.21,-0.52,-0.55,-0.54
403.72,1.94,2.48,1.91,2.46,-2.46,-1.75,-2.21,-0.53,-0.55,-0.54
407.76,1.94,2.50,1.91,2.47,-2.47,-1.72,-2.20,-0.54,-0.56,-0.56
411.84,1.94,2.50,1.91,2.47,-2.47,-1.70,-2.20,-0.54,-0.56,-0.56
415.96,1.93,2.49,1.90,2.46,-2.46,-1.67,-2.20,-0.54,-0.56,-0.56
420.12,1.91,2.47,1.90,2.46,-2.46,-1.64,-2.20,-0.55,-0.56,-0.56
424.32,1.85,2.41,1.90,2.45,-2.45,-1.62,-2.20,-0.60,-0.55,-0.56
428.56,1.85,2.40,1.89,2.44,-2.44,-1.59,-2.19,-0.59,-0.54,-0.55
432.85,1.87,2.41,1.89,2.42,-2.42,-1.56,-2.19,-0.55,-0.53,-0.54
437.18,1.89,2.42,1.89,2.40,-2.40,-1.53,-2.19,-0.51,-0.51,-0.53
441.55,1.92,2.41,1.90,2.38,-2.38,-1.51,-2.19,-0.46,-0.48,-0.49
445.96,1.90,2.36,1.91,2.36,-2.36,-1.48,-2.19,-0.47,-0.45,-0.46
450.42,1.93,2.36,1.93,2.34,-2.34,-1.45,-2.19,-0.42,-0.41,-0.43
454.93,1.91,2.29,1.95,2.32,-2.32,-1.43,-2.19,-0.41,-0.37,-0.38
459.48,1.95,2.29,1.97,2.30,-2.30,-1.40,-2.18,-0.35,-0.33,-0.34
464.07,2.01,2.30,2.00,2.28,-2.28,-1.38,-2.18,-0.27,-0.28,-0.29
468.71,2.03,2.26,2.03,2.26,-2.26,-1.35,-2.17,-0.24,-0.23,-0.23
473.40,2.05,2.24,2.06,2.25,-2.25,-1.32,-2.17,-0.20,-0.19,-0.19
478.13,2.09,2.22,2.09,2.23,-2.23,-1.30,-2.16,-0.14,-0.14,-0.13
482.91,2.14,2.23,2.11,2.21,-2.21,-1.27,-2.15,-0.07,-0.09,-0.09
487.74,2.17,2.22,2.14,2.19,-2.19,-1.25,-2.13,-0.02,-0.05,-0.05
492.62,2.14,2.14,2.15,2.17,-2.17,-1.22,-2.12,-0.03,-0.01,0.00
497.55,2.14,2.12,2.16,2.15,-2.15,-1.20,-2.10,-0.01,0.02,0.02
502.52,2.17,2.12,2.16,2.12,-2.12,-1.18,-2.08,0.04,0.04,0.05
507.55,2.19,2.13,2.16,2.10,-2.10,-1.15,-2.06,0.08,0.05,0.06
512.62,2.20,2.13,2.14,2.08,-2.08,-1.13,-2.04,0.11,0.06,0.07
517.75,2.14,2.06,2.12,2.06,-2.06,-1.10,-2.02,0.08,0.06,0.08
