frequency,raw,error,smoothed,error_smoothed,equalization,parametric_eq,fixed_band_eq,equalized_raw,equalized_smoothed,target
20.00,-36.38,-29.74,-36.38,-29.74,29.74,29.71,15.57,-6.64,-6.64,-6.64
20.20,-36.28,-29.65,-36.28,-29.65,29.65,29.58,15.77,-6.63,-6.63,-6.63
20.40,-36.17,-29.55,-36.17,-29.55,29.55,29.45,15.99,-6.62,-6.62,-6.62
20.61,-36.07,-29.46,-36.07,-29.46,29.46,29.32,16.20,-6.61,-6.61,-6.61
20.81,-35.97,-29.36,-35.97,-29.36,29.37,29.20,16.43,-6.60,-6.60,-6.61
21.02,-35.86,-29.26,-35.86,-29.27,29.27,29.08,16.65,-6.59,-6.59,-6.60
21.23,-35.76,-29.17,-35.76,-29.17,29.18,28.96,16.88,-6.58,-6.59,-6.59
21.44,-35.66,-29.09,-35.66,-29.08,29.08,28.85,17.12,-6.58,-6.58,-6.57
21.66,-35.56,-28.99,-35.56,-28.99,28.99,28.74,17.37,-6.58,-6.57,-6.57
21.87,-35.45,-28.89,-35.45,-28.89,28.89,28.63,17.61,-6.56,-6.56,-6.56
22.09,-35.35,-28.79,-35.35,-28.79,28.79,28.52,17.87,-6.56,-6.56,-6.56
22.31,-35.25,-28.70,-35.25,-28.69,28.70,28.41,18.13,-6.55,-6.55,-6.55
22.54,-35.14,-28.59,-35.15,-28.60,28.60,28.31,18.40,-6.55,-6.55,-6.55
22.76,-35.04,-28.50,-35.04,-28.50,28.50,28.21,18.68,-6.54,-6.54,-6.54
22.99,-34.94,-28.40,-34.94,-28.40,28.40,28.11,18.97,-6.54,-6.54,-6.54
23.22,-34.83,-28.29,-34.84,-28.30,28.30,28.01,19.26,-6.53,-6.54,-6.54
23.45,-34.73,-28.20,-34.73,-28.20,28.20,27.91,19.56,-6.53,-6.53,-6.53
23.69,-34.63,-28.10,-34.63,-28.10,28.10,27.82,19.88,-6.53,-6.53,-6.53
23.92,-34.52,-27.99,-34.52,-28.00,28.00,27.72,20.20,-6.52,-6.52,-6.53
24.16,-34.42,-27.90,-34.42,-27.90,27.90,27.63,20.53,-6.52,-6.52,-6.52
24.40,-34.32,-27.81,-34.32,-27.80,27.80,27.53,20.88,-6.52,-6.51,-6.51
24.65,-34.21,-27.70,-34.21,-27.70,27.70,27.44,21.24,-6.51,-6.51,-6.51
24.89,-34.11,-27.60,-34.11,-27.60,27.60,27.35,21.61,-6.51,-6.51,-6.51
25.14,-34.01,-27.50,-34.01,-27.50,27.50,27.26,22.00,-6.51,-6.51,-6.51
25.39,-33.91,-27.40,-33.91,-27.40,27.40,27.17,22.40,-6.51,-6.51,-6.51
25.65,-33.80,-27.29,-33.81,-27.30,27.30,27.08,22.82,-6.50,-6.51,-6.51
25.91,-33.70,-27.19,-33.70,-27.20,27.20,26.99,23.25,-6.51,-6.51,-6.51
26.16,-33.60,-27.10,-33.60,-27.09,27.09,26.91,23.71,-6.51,-6.50,-6.50
26.43,-33.49,-26.99,-33.50,-27.00,26.99,26.82,24.19,-6.50,-6.50,-6.50
26.69,-33.39,-26.89,-33.39,-26.89,26.89,26.73,24.69,-6.50,-6.50,-6.50
26.96,-33.29,-26.79,-33.29,-26.79,26.79,26.64,25.21,-6.50,-6.50,-6.50
27.23,-33.18,-26.68,-33.19,-26.69,26.69,26.55,25.76,-6.49,-6.50,-6.50
27.50,-33.08,-26.58,-33.08,-26.59,26.59,26.47,26.34,-6.50,-6.50,-6.50
27.77,-32.98,-26.49,-32.98,-26.48,26.49,26.38,26.96,-6.49,-6.49,-6.49
28.05,-32.87,-26.38,-32.87,-26.38,26.38,26.29,27.60,-6.49,-6.49,-6.49
28.33,-32.77,-26.28,-32.77,-26.28,26.28,26.20,28.29,-6.49,-6.49,-6.49
28.62,-32.67,-26.18,-32.67,-26.18,26.18,26.11,29.01,-6.49,-6.49,-6.49
28.90,-32.57,-26.09,-32.57,-26.08,26.08,26.02,29.76,-6.49,-6.48,-6.48
29.19,-32.46,-25.98,-32.47,-25.98,25.98,25.93,30.55,-6.48,-6.48,-6.48
29.48,-32.36,-25.88,-32.36,-25.88,25.88,25.84,31.37,-6.48,-6.48,-6.48
29.78,-32.26,-25.78,-32.26,-25.78,25.78,25.75,32.19,-6.48,-6.48,-6.48
30.08,-32.15,-25.68,-32.16,-25.68,25.68,25.66,32.99,-6.47,-6.48,-6.47
30.38,-32.05,-25.57,-32.05,-25.58,25.58,25.57,33.73,-6.48,-6.48,-6.48
30.68,-31.95,-25.47,-31.95,-25.47,25.47,25.48,34.32,-6.48,-6.48,-6.48
30.99,-31.84,-25.36,-31.85,-25.37,25.37,25.38,34.70,-6.48,-6.48,-6.48
31.30,-31.74,-25.26,-31.74,-25.26,25.26,25.29,34.81,-6.48,-6.48,-6.48
31.61,-31.64,-25.16,-31.64,-25.16,25.16,25.19,34.63,-6.49,-6.48,-6.48
31.93,-31.53,-25.04,-31.54,-25.05,25.05,25.10,34.19,-6.48,-6.48,-6.49
32.24,-31.43,-24.95,-31.43,-24.95,24.95,25.00,33.58,-6.48,-6.48,-6.48
32.57,-31.33,-24.84,-31.33,-24.84,24.84,24.90,32.87,-6.49,-6.48,-6.49
32.89,-31.22,-24.73,-31.22,-24.74,24.74,24.80,32.11,-6.48,-6.49,-6.49
33.22,-31.12,-24.63,-31.12,-24.63,24.63,24.70,31.34,-6.49,-6.49,-6.49
33.55,-31.02,-24.53,-31.02,-24.53,24.53,24.60,30.59,-6.49,-6.49,-6.49
33.89,-30.92,-24.43,-30.92,-24.43,24.42,24.50,29.87,-6.50,-6.49,-6.49
34.23,-30.81,-24.31,-30.82,-24.32,24.32,24.40,29.18,-6.49,-6.50,-6.50
34.57,-30.71,-24.21,-30.71,-24.21,24.21,24.29,28.54,-6.50,-6.50,-6.50
34.92,-30.61,-24.10,-30.61,-24.10,24.10,24.19,27.93,-6.51,-6.50,-6.51
35.27,-30.50,-24.00,-30.51,-24.00,24.00,24.08,27.35,-6.51,-6.51,-6.50
35.62,-30.40,-23.88,-30.40,-23.89,23.89,23.97,26.81,-6.52,-6.52,-6.52
35.97,-30.30,-23.78,-30.30,-23.78,23.78,23.87,26.31,-6.52,-6.52,-6.52
36.33,-30.19,-23.66,-30.19,-23.66,23.66,23.76,25.83,-6.53,-6.53,-6.53
36.70,-30.09,-23.55,-30.09,-23.55,23.55,23.64,25.37,-6.54,-6.54,-6.54
37.06,-29.99,-23.44,-29.99,-23.44,23.44,23.53,24.95,-6.55,-6.55,-6.55
37.43,-29.88,-23.32,-29.88,-23.33,23.33,23.42,24.54,-6.55,-6.56,-6.56
37.81,-29.78,-23.21,-29.78,-23.21,23.21,23.30,24.16,-6.57,-6.57,-6.57
38.19,-29.68,-23.10,-29.68,-23.10,23.10,23.19,23.80,-6.58,-6.58,-6.58
38.57,-29.57,-22.98,-29.57,-22.98,22.98,23.07,23.45,-6.59,-6.59,-6.59
38.95,-29.47,-22.87,-29.47,-22.87,22.87,22.95,23.13,-6.60,-6.60,-6.60
39.34,-29.37,-22.75,-29.37,-22.75,22.76,22.83,22.81,-6.61,-6.61,-6.62
39.74,-29.27,-22.64,-29.27,-22.64,22.64,22.71,22.52,-6.63,-6.63,-6.63
40.14,-29.16,-22.52,-29.17,-22.53,22.52,22.59,22.24,-6.64,-6.64,-6.64
40.54,-29.06,-22.41,-29.06,-22.41,22.41,22.47,21.97,-6.65,-6.65,-6.65
40.94,-28.96,-22.29,-28.96,-22.29,22.29,22.35,21.72,-6.67,-6.67,-6.67
41.35,-28.85,-22.17,-28.85,-22.17,22.17,22.22,21.47,-6.68,-6.68,-6.68
41.76,-28.75,-22.05,-28.75,-22.05,22.05,22.10,21.24,-6.70,-6.70,-6.70
42.18,-28.65,-21.94,-28.65,-21.93,21.93,21.97,21.02,-6.72,-6.71,-6.71
42.60,-28.54,-21.81,-28.54,-21.81,21.81,21.84,20.81,-6.73,-6.73,-6.73
43.03,-28.44,-21.69,-28.44,-21.69,21.69,21.71,20.61,-6.75,-6.75,-6.75
43.46,-28.34,-21.57,-28.34,-21.57,21.57,21.58,20.42,-6.77,-6.77,-6.77
43.90,-28.23,-21.44,-28.24,-21.44,21.45,21.45,20.24,-6.79,-6.79,-6.79
44.33,-28.13,-21.32,-28.13,-21.32,21.32,21.32,20.07,-6.81,-6.81,-6.81
44.78,-28.03,-21.20,-28.03,-21.20,21.20,21.19,19.91,-6.84,-6.83,-6.83
45.23,-27.92,-21.08,-27.92,-21.08,21.07,21.06,19.75,-6.85,-6.85,-6.84
45.68,-27.82,-20.95,-27.82,-20.95,20.95,20.92,19.61,-6.87,-6.87,-6.87
46.13,-27.72,-20.82,-27.72,-20.82,20.83,20.79,19.47,-6.89,-6.89,-6.90
46.60,-27.62,-20.70,-27.61,-20.70,20.72,20.66,19.33,-6.90,-6.90,-6.92
47.06,-27.51,-20.57,-27.52,-20.58,20.60,20.52,19.21,-6.91,-6.92,-6.94
47.53,-27.43,-20.47,-27.44,-20.48,20.48,20.38,19.09,-6.95,-6.96,-6.96
48.01,-27.37,-20.37,-27.37,-20.37,20.36,20.25,18.97,-7.01,-7.00,-7.00
48.49,-27.30,-20.28,-27.28,-20.26,20.24,20.11,18.87,-7.07,-7.05,-7.02
48.97,-27.17,-20.12,-27.18,-20.13,20.10,19.97,18.77,-7.07,-7.08,-7.05
49.46,-27.06,-19.99,-27.05,-19.98,19.97,19.83,18.67,-7.09,-7.09,-7.07
49.96,-26.92,-19.81,-26.92,-19.82,19.82,19.70,18.58,-7.10,-7.10,-7.11
50.46,-26.77,-19.64,-26.79,-19.66,19.67,19.56,18.49,-7.10,-7.11,-7.13
50.96,-26.67,-19.52,-26.66,-19.50,19.52,19.42,18.41,-7.15,-7.14,-7.15
51.47,-26.52,-19.35,-26.53,-19.36,19.36,19.28,18.33,-7.16,-7.17,-7.17
51.99,-26.40,-19.20,-26.40,-19.20,19.20,19.14,18.25,-7.20,-7.20,-7.20
52.51,-26.27,-19.05,-26.26,-19.05,19.05,19.00,18.18,-7.23,-7.22,-7.22
53.03,-26.12,-18.89,-26.14,-18.90,18.89,18.86,18.11,-7.23,-7.24,-7.23
53.56,-26.01,-18.75,-26.00,-18.74,18.74,18.72,18.04,-7.27,-7.26,-7.26
54.10,-25.87,-18.58,-25.87,-18.58,18.59,18.57,17.97,-7.29,-7.28,-7.29
54.64,-25.73,-18.42,-25.74,-18.43,18.43,18.43,17.90,-7.30,-7.31,-7.31
55.18,-25.62,-18.28,-25.61,-18.27,18.28,18.29,17.84,-7.34,-7.33,-7.34
55.74,-25.48,-18.12,-25.49,-18.13,18.13,18.15,17.77,-7.35,-7.36,-7.36
56.29,-25.36,-17.99,-25.36,-17.99,17.98,18.01,17.70,-7.38,-7.38,-7.37
56.86,-25.23,-17.85,-25.22,-17.84,17.84,17.87,17.63,-7.40,-7.39,-7.38
57.42,-25.08,-17.67,-25.09,-17.69,17.69,17.72,17.56,-7.39,-7.40,-7.41
58.00,-24.96,-17.54,-24.96,-17.54,17.55,17.58,17.48,-7.41,-7.40,-7.42
58.58,-24.83,-17.41,-24.83,-17.40,17.41,17.44,17.40,-7.42,-7.42,-7.42
59.16,-24.69,-17.26,-24.70,-17.27,17.26,17.30,17.31,-7.43,-7.44,-7.43
59.76,-24.58,-17.14,-24.57,-17.13,17.12,17.16,17.23,-7.47,-7.46,-7.44
60.35,-24.44,-16.97,-24.45,-16.98,16.97,17.02,17.13,-7.47,-7.48,-7.47
60.96,-24.32,-16.83,-24.32,-16.83,16.82,16.87,17.03,-7.50,-7.50,-7.49
61.57,-24.19,-16.67,-24.18,-16.66,16.66,16.73,16.93,-7.53,-7.52,-7.52
62.18,-24.04,-16.49,-24.06,-16.51,16.51,16.59,16.81,-7.53,-7.54,-7.55
62.80,-23.93,-16.36,-23.92,-16.35,16.36,16.45,16.70,-7.57,-7.56,-7.57
63.43,-23.79,-16.20,-23.79,-16.20,16.21,16.31,16.57,-7.58,-7.58,-7.59
64.07,-23.64,-16.04,-23.66,-16.06,16.06,16.17,16.44,-7.58,-7.59,-7.60
64.71,-23.54,-15.93,-23.52,-15.91,15.92,16.03,16.31,-7.62,-7.61,-7.61
65.35,-23.39,-15.77,-23.40,-15.78,15.78,15.89,16.17,-7.61,-7.62,-7.62
66.01,-23.27,-15.64,-23.27,-15.65,15.64,15.75,16.02,-7.64,-7.64,-7.63
66.67,-23.15,-15.52,-23.14,-15.50,15.50,15.61,15.87,-7.65,-7.64,-7.63
67.33,-23.00,-15.35,-23.01,-15.36,15.36,15.47,15.71,-7.64,-7.65,-7.65
68.01,-22.87,-15.21,-22.87,-15.22,15.22,15.33,15.55,-7.65,-7.65,-7.66
68.69,-22.75,-15.08,-22.74,-15.07,15.08,15.19,15.39,-7.67,-7.66,-7.67
69.37,-22.60,-14.93,-22.61,-14.94,14.94,15.05,15.22,-7.66,-7.67,-7.67
70.07,-22.49,-14.81,-22.48,-14.80,14.80,14.91,15.05,-7.69,-7.69,-7.68
70.77,-22.35,-14.66,-22.35,-14.66,14.66,14.77,14.88,-7.70,-7.70,-7.69
71.48,-22.22,-14.52,-22.22,-14.52,14.51,14.64,14.71,-7.71,-7.71,-7.70
72.19,-22.08,-14.37,-22.08,-14.37,14.37,14.50,14.54,-7.71,-7.71,-7.71
72.91,-21.94,-14.22,-21.94,-14.22,14.23,14.36,14.36,-7.71,-7.72,-7.72
73.64,-21.81,-14.08,-21.81,-14.08,14.09,14.23,14.19,-7.72,-7.72,-7.73
74.38,-21.67,-13.94,-21.67,-13.94,13.94,14.09,14.02,-7.73,-7.72,-7.73
75.12,-21.53,-13.80,-21.53,-13.80,13.81,13.96,13.85,-7.72,-7.73,-7.73
75.87,-21.39,-13.67,-21.39,-13.67,13.67,13.82,13.67,-7.72,-7.72,-7.72
76.63,-21.26,-13.54,-21.26,-13.54,13.54,13.69,13.51,-7.72,-7.72,-7.72
77.40,-21.12,-13.41,-21.12,-13.41,13.41,13.55,13.34,-7.71,-7.71,-7.71
78.17,-20.98,-13.27,-20.98,-13.28,13.28,13.42,13.18,-7.70,-7.70,-7.71
78.95,-20.85,-13.16,-20.85,-13.15,13.16,13.28,13.02,-7.70,-7.69,-7.69
79.74,-20.71,-13.03,-20.71,-13.03,13.03,13.15,12.86,-7.68,-7.68,-7.68
80.54,-20.57,-12.90,-20.58,-12.91,12.90,13.02,12.70,-7.67,-7.67,-7.67
81.35,-20.44,-12.78,-20.44,-12.78,12.78,12.89,12.55,-7.66,-7.66,-7.66
82.16,-20.30,-12.66,-20.30,-12.66,12.66,12.76,12.41,-7.65,-7.65,-7.64
82.98,-20.16,-12.53,-20.17,-12.54,12.53,12.63,12.26,-7.63,-7.63,-7.63
83.81,-20.03,-12.41,-20.03,-12.41,12.41,12.50,12.12,-7.62,-7.62,-7.62
84.65,-19.89,-12.28,-19.89,-12.28,12.28,12.37,11.98,-7.61,-7.61,-7.61
85.50,-19.75,-12.15,-19.76,-12.16,12.16,12.24,11.85,-7.59,-7.59,-7.60
86.35,-19.62,-12.04,-19.62,-12.04,12.04,12.11,11.72,-7.58,-7.58,-7.58
87.22,-19.48,-11.92,-19.48,-11.92,11.92,11.98,11.60,-7.57,-7.56,-7.56
88.09,-19.34,-11.79,-19.34,-11.80,11.79,11.85,11.48,-7.55,-7.55,-7.55
88.97,-19.20,-11.67,-19.20,-11.67,11.67,11.72,11.36,-7.53,-7.53,-7.53
89.86,-19.07,-11.55,-19.07,-11.55,11.55,11.60,11.25,-7.52,-7.52,-7.52
90.76,-18.93,-11.43,-18.93,-11.43,11.43,11.47,11.14,-7.50,-7.50,-7.50
91.66,-18.79,-11.30,-18.80,-11.31,11.31,11.35,11.04,-7.48,-7.48,-7.49
92.58,-18.66,-11.19,-18.66,-11.19,11.19,11.22,10.94,-7.47,-7.47,-7.47
93.51,-18.52,-11.07,-18.52,-11.07,11.07,11.10,10.84,-7.45,-7.45,-7.45
94.44,-18.38,-10.95,-18.39,-10.95,10.94,10.97,10.75,-7.44,-7.44,-7.43
95.39,-18.25,-10.83,-18.25,-10.83,10.81,10.85,10.66,-7.44,-7.43,-7.42
96.34,-18.11,-10.70,-18.11,-10.71,10.68,10.73,10.57,-7.43,-7.43,-7.41
97.30,-17.97,-10.58,-17.98,-10.58,10.56,10.61,10.49,-7.41,-7.42,-7.39
98.28,-17.84,-10.46,-17.83,-10.45,10.45,10.49,10.41,-7.40,-7.39,-7.38
99.26,-17.70,-10.33,-17.69,-10.33,10.35,10.36,10.33,-7.35,-7.34,-7.37
100.25,-17.56,-10.21,-17.57,-10.22,10.27,10.24,10.26,-7.29,-7.30,-7.35
101.25,-17.46,-10.14,-17.47,-10.15,10.21,10.12,10.19,-7.25,-7.26,-7.32
102.27,-17.42,-10.12,-17.43,-10.13,10.18,10.01,10.12,-7.25,-7.25,-7.30
103.29,-17.42,-10.14,-17.42,-10.14,10.15,9.89,10.05,-7.27,-7.26,-7.28
104.32,-17.42,-10.17,-17.41,-10.16,10.14,9.77,9.99,-7.28,-7.27,-7.25
105.37,-17.38,-10.15,-17.38,-10.15,10.13,9.65,9.92,-7.25,-7.25,-7.23
106.42,-17.33,-10.13,-17.33,-10.13,10.10,9.53,9.86,-7.23,-7.23,-7.20
107.48,-17.26,-10.07,-17.27,-10.08,10.05,9.42,9.80,-7.21,-7.22,-7.19
108.56,-17.18,-10.02,-17.18,-10.02,9.96,9.30,9.74,-7.22,-7.22,-7.16
109.64,-17.06,-9.92,-17.05,-9.91,9.83,9.19,9.67,-7.23,-7.22,-7.14
110.74,-16.90,-9.78,-16.88,-9.76,9.69,9.07,9.61,-7.21,-7.19,-7.12
111.85,-16.65,-9.55,-16.66,-9.56,9.54,8.96,9.55,-7.11,-7.12,-7.10
112.97,-16.43,-9.35,-16.43,-9.35,9.40,8.85,9.48,-7.03,-7.03,-7.08
114.10,-16.23,-9.17,-16.24,-9.17,9.29,8.73,9.42,-6.94,-6.95,-7.06
115.24,-16.09,-9.04,-16.12,-9.07,9.20,8.62,9.35,-6.89,-6.91,-7.05
116.39,-16.07,-9.03,-16.07,-9.03,9.14,8.51,9.28,-6.93,-6.93,-7.04
117.55,-16.08,-9.06,-16.09,-9.06,9.10,8.40,9.20,-6.99,-6.99,-7.02
118.73,-16.12,-9.11,-16.12,-9.11,9.06,8.29,9.13,-7.06,-7.06,-7.01
119.92,-16.13,-9.14,-16.11,-9.12,9.02,8.18,9.05,-7.11,-7.09,-6.99
121.12,-16.05,-9.09,-16.04,-9.08,8.96,8.07,8.96,-7.09,-7.08,-6.96
122.33,-15.90,-8.95,-15.91,-8.96,8.88,7.96,8.87,-7.02,-7.03,-6.95
123.55,-15.72,-8.79,-15.72,-8.79,8.76,7.85,8.78,-6.96,-6.96,-6.93
124.79,-15.51,-8.60,-15.51,-8.59,8.61,7.75,8.68,-6.90,-6.89,-6.91
126.03,-15.29,-8.39,-15.30,-8.40,8.44,7.64,8.58,-6.85,-6.86,-6.90
127.29,-15.08,-8.19,-15.10,-8.21,8.26,7.53,8.47,-6.82,-6.84,-6.89
128.57,-14.93,-8.05,-14.92,-8.04,8.08,7.43,8.36,-6.85,-6.84,-6.88
129.85,-14.76,-7.89,-14.76,-7.89,7.91,7.32,8.25,-6.85,-6.85,-6.87
131.15,-14.61,-7.75,-14.62,-7.76,7.75,7.22,8.13,-6.86,-6.87,-6.86
132.46,-14.47,-7.62,-14.47,-7.62,7.60,7.11,8.01,-6.87,-6.87,-6.85
133.79,-14.33,-7.49,-14.32,-7.48,7.45,7.01,7.88,-6.88,-6.87,-6.84
135.12,-14.15,-7.32,-14.16,-7.34,7.31,6.91,7.75,-6.84,-6.85,-6.83
136.48,-14.01,-7.20,-14.00,-7.18,7.18,6.81,7.61,-6.83,-6.82,-6.81
137.84,-13.83,-7.03,-13.84,-7.03,7.06,6.70,7.48,-6.77,-6.78,-6.80
139.22,-13.69,-6.89,-13.70,-6.91,6.95,6.60,7.34,-6.74,-6.75,-6.80
140.61,-13.59,-6.81,-13.59,-6.81,6.85,6.50,7.19,-6.74,-6.74,-6.78
142.02,-13.51,-6.74,-13.51,-6.74,6.76,6.40,7.05,-6.75,-6.75,-6.77
143.44,-13.45,-6.69,-13.45,-6.69,6.68,6.30,6.90,-6.77,-6.77,-6.76
144.87,-13.37,-6.63,-13.37,-6.63,6.60,6.20,6.75,-6.77,-6.77,-6.74
146.32,-13.29,-6.56,-13.28,-6.55,6.52,6.11,6.61,-6.77,-6.76,-6.73
147.78,-13.17,-6.45,-13.18,-6.46,6.43,6.01,6.46,-6.74,-6.74,-6.72
149.26,-13.06,-6.35,-13.06,-6.35,6.34,5.91,6.31,-6.72,-6.72,-6.71
150.75,-12.93,-6.22,-12.93,-6.23,6.23,5.81,6.16,-6.70,-6.70,-6.71
152.26,-12.81,-6.12,-12.81,-6.12,6.11,5.72,6.01,-6.70,-6.70,-6.69
153.78,-12.69,-6.00,-12.69,-6.00,6.00,5.62,5.86,-6.70,-6.69,-6.69
155.32,-12.56,-5.88,-12.56,-5.88,5.88,5.53,5.71,-6.68,-6.68,-6.68
156.88,-12.43,-5.75,-12.43,-5.75,5.77,5.43,5.56,-6.66,-6.66,-6.68
158.44,-12.31,-5.63,-12.32,-5.64,5.67,5.34,5.41,-6.64,-6.64,-6.68
160.03,-12.21,-5.53,-12.22,-5.54,5.57,5.25,5.26,-6.64,-6.65,-6.68
161.63,-12.15,-5.47,-12.15,-5.46,5.47,5.15,5.11,-6.68,-6.67,-6.68
163.24,-12.07,-5.38,-12.08,-5.39,5.37,5.06,4.97,-6.70,-6.71,-6.69
164.88,-12.01,-5.32,-12.00,-5.30,5.25,4.97,4.82,-6.76,-6.74,-6.69
166.53,-11.89,-5.19,-11.89,-5.19,5.14,4.88,4.68,-6.75,-6.75,-6.70
168.19,-11.76,-5.06,-11.76,-5.06,5.03,4.79,4.54,-6.73,-6.73,-6.70
169.87,-11.62,-4.91,-11.61,-4.90,4.92,4.69,4.40,-6.70,-6.69,-6.71
171.57,-11.47,-4.75,-11.48,-4.76,4.82,4.60,4.26,-6.65,-6.65,-6.72
173.29,-11.36,-4.63,-11.37,-4.64,4.73,4.52,4.12,-6.63,-6.64,-6.73
175.02,-11.29,-4.55,-11.31,-4.57,4.64,4.43,3.98,-6.65,-6.67,-6.74
176.77,-11.28,-4.53,-11.29,-4.54,4.54,4.34,3.85,-6.74,-6.74,-6.75
178.54,-11.28,-4.52,-11.26,-4.49,4.45,4.25,3.71,-6.84,-6.81,-6.76
180.32,-11.19,-4.41,-11.19,-4.41,4.33,4.16,3.58,-6.86,-6.86,-6.78
182.13,-11.06,-4.27,-11.06,-4.27,4.20,4.07,3.45,-6.86,-6.86,-6.79
183.95,-10.88,-4.08,-10.89,-4.08,4.03,3.99,3.32,-6.85,-6.85,-6.80
185.79,-10.68,-3.86,-10.68,-3.86,3.84,3.90,3.19,-6.84,-6.84,-6.82
187.65,-10.46,-3.63,-10.45,-3.62,3.62,3.82,3.06,-6.84,-6.83,-6.83
189.52,-10.21,-3.36,-10.23,-3.38,3.39,3.73,2.93,-6.82,-6.84,-6.85
191.42,-10.00,-3.14,-10.00,-3.14,3.15,3.65,2.81,-6.85,-6.84,-6.86
193.33,-9.80,-2.92,-9.79,-2.91,2.93,3.56,2.69,-6.87,-6.86,-6.88
195.27,-9.59,-2.69,-9.61,-2.71,2.74,3.48,2.56,-6.85,-6.87,-6.90
197.22,-9.46,-2.54,-9.45,-2.54,2.58,3.39,2.44,-6.88,-6.88,-6.92
199.19,-9.33,-2.40,-9.34,-2.40,2.45,3.31,2.32,-6.88,-6.89,-6.93
201.18,-9.25,-2.30,-9.25,-2.30,2.35,3.23,2.20,-6.90,-6.90,-6.95
203.19,-9.20,-2.24,-9.20,-2.25,2.27,3.15,2.09,-6.93,-6.94,-6.96
205.23,-9.16,-2.19,-9.19,-2.21,2.20,3.06,1.97,-6.96,-6.98,-6.97
207.28,-9.20,-2.22,-9.17,-2.18,2.14,2.98,1.86,-7.06,-7.03,-6.98
209.35,-9.13,-2.13,-9.13,-2.13,2.08,2.90,1.74,-7.06,-7.05,-7.00
211.44,-9.06,-2.05,-9.07,-2.06,2.00,2.82,1.63,-7.06,-7.06,-7.01
213.56,-8.96,-1.94,-8.97,-1.95,1.92,2.74,1.53,-7.04,-7.05,-7.02
215.69,-8.88,-1.85,-8.87,-1.84,1.83,2.66,1.42,-7.05,-7.03,-7.03
217.85,-8.75,-1.71,-8.76,-1.71,1.74,2.58,1.31,-7.01,-7.02,-7.04
220.03,-8.66,-1.60,-8.67,-1.61,1.65,2.50,1.21,-7.01,-7.02,-7.06
222.23,-8.58,-1.51,-8.59,-1.52,1.57,2.43,1.11,-7.01,-7.02,-7.07
224.45,-8.55,-1.47,-8.53,-1.45,1.49,2.35,1.02,-7.06,-7.05,-7.08
226.70,-8.48,-1.39,-8.50,-1.41,1.41,2.27,0.92,-7.07,-7.09,-7.09
228.96,-8.45,-1.36,-8.46,-1.37,1.33,2.19,0.83,-7.12,-7.12,-7.09
231.25,-8.42,-1.32,-8.40,-1.30,1.26,2.12,0.74,-7.16,-7.14,-7.10
233.57,-8.33,-1.22,-8.32,-1.21,1.18,2.04,0.65,-7.15,-7.15,-7.11
235.90,-8.21,-1.09,-8.22,-1.10,1.09,1.96,0.57,-7.12,-7.13,-7.12
238.26,-8.10,-0.97,-8.10,-0.98,0.99,1.89,0.49,-7.11,-7.11,-7.13
240.64,-8.00,-0.88,-8.00,-0.88,0.89,1.81,0.42,-7.11,-7.11,-7.12
243.05,-7.90,-0.77,-7.90,-0.77,0.79,1.74,0.34,-7.11,-7.12,-7.13
245.48,-7.82,-0.68,-7.81,-0.67,0.69,1.66,0.28,-7.14,-7.13,-7.14
247.93,-7.71,-0.56,-7.72,-0.58,0.59,1.59,0.21,-7.12,-7.13,-7.15
250.41,-7.63,-0.49,-7.63,-0.48,0.49,1.51,0.15,-7.14,-7.14,-7.14
252.92,-7.53,-0.39,-7.53,-0.39,0.39,1.44,0.09,-7.14,-7.14,-7.14
255.45,-7.45,-0.30,-7.45,-0.30,0.29,1.37,0.03,-7.16,-7.16,-7.15
258.00,-7.34,-0.19,-7.35,-0.20,0.18,1.29,-0.02,-7.16,-7.17,-7.15
260.58,-7.26,-0.11,-7.25,-0.10,0.07,1.22,-0.07,-7.19,-7.18,-7.15
263.19,-7.13,0.02,-7.12,0.03,-0.05,1.15,-0.11,-7.18,-7.17,-7.15
265.82,-6.98,0.17,-6.99,0.16,-0.16,1.08,-0.15,-7.14,-7.15,-7.15
268.48,-6.85,0.30,-6.85,0.30,-0.28,1.01,-0.19,-7.13,-7.13,-7.15
271.16,-6.72,0.43,-6.73,0.42,-0.38,0.94,-0.23,-7.11,-7.11,-7.15
273.87,-6.64,0.51,-6.64,0.51,-0.49,0.87,-0.27,-7.13,-7.13,-7.15
276.61,-6.56,0.59,-6.57,0.58,-0.58,0.80,-0.30,-7.14,-7.15,-7.15
279.38,-6.52,0.64,-6.51,0.65,-0.66,0.73,-0.33,-7.18,-7.17,-7.16
282.17,-6.44,0.71,-6.44,0.71,-0.73,0.66,-0.36,-7.17,-7.16,-7.15
284.99,-6.36,0.78,-6.36,0.78,-0.78,0.59,-0.38,-7.14,-7.15,-7.14
287.84,-6.28,0.85,-6.29,0.84,-0.84,0.52,-0.41,-7.12,-7.13,-7.13
290.72,-6.24,0.90,-6.24,0.89,-0.88,0.45,-0.43,-7.12,-7.13,-7.14
293.63,-6.21,0.92,-6.20,0.93,-0.93,0.38,-0.46,-7.14,-7.13,-7.13
296.57,-6.16,0.96,-6.16,0.96,-0.97,0.31,-0.48,-7.13,-7.13,-7.12
299.53,-6.11,1.01,-6.12,1.00,-1.01,0.25,-0.50,-7.12,-7.12,-7.12
302.53,-6.07,1.04,-6.06,1.05,-1.04,0.18,-0.53,-7.11,-7.10,-7.11
305.55,-6.02,1.09,-6.02,1.08,-1.07,0.11,-0.55,-7.09,-7.09,-7.11
308.61,-5.98,1.12,-6.00,1.11,-1.10,0.04,-0.57,-7.08,-7.10,-7.10
311.69,-5.98,1.12,-5.97,1.13,-1.13,-0.02,-0.59,-7.11,-7.10,-7.10
314.81,-5.95,1.14,-5.94,1.15,-1.16,-0.09,-0.61,-7.11,-7.10,-7.09
317.96,-5.90,1.19,-5.91,1.18,-1.19,-0.15,-0.64,-7.09,-7.10,-7.09
321.14,-5.85,1.23,-5.86,1.22,-1.23,-0.22,-0.66,-7.08,-7.09,-7.08
324.35,-5.82,1.26,-5.81,1.26,-1.27,-0.28,-0.68,-7.09,-7.08,-7.08
327.59,-5.77,1.29,-5.76,1.30,-1.31,-0.35,-0.71,-7.08,-7.07,-7.06
330.87,-5.70,1.36,-5.71,1.35,-1.36,-0.41,-0.73,-7.06,-7.06,-7.06
334.18,-5.65,1.41,-5.65,1.41,-1.40,-0.47,-0.76,-7.05,-7.05,-7.06
337.52,-5.59,1.46,-5.59,1.46,-1.44,-0.54,-0.78,-7.04,-7.04,-7.05
340.90,-5.54,1.50,-5.55,1.49,-1.48,-0.60,-0.81,-7.03,-7.03,-7.04
344.30,-5.50,1.53,-5.50,1.53,-1.52,-0.66,-0.84,-7.02,-7.02,-7.03
347.75,-5.46,1.56,-5.46,1.56,-1.56,-0.72,-0.87,-7.02,-7.02,-7.02
351.23,-5.41,1.61,-5.42,1.59,-1.59,-0.79,-0.90,-7.00,-7.02,-7.02
354.74,-5.40,1.60,-5.39,1.62,-1.63,-0.85,-0.93,-7.03,-7.01,-7.00
358.28,-5.35,1.65,-5.35,1.65,-1.66,-0.91,-0.96,-7.01,-7.01,-7.00
361.87,-5.30,1.69,-5.30,1.68,-1.70,-0.97,-1.00,-7.00,-7.01,-6.99
