frequency,raw,error,smoothed,error_smoothed,equalization,parametric_eq,fixed_band_eq,equalized_raw,equalized_smoothed,target
20.00,-3.15,-6.30,-3.15,-6.32,6.32,6.03,1.99,3.18,3.17,3.15
20.20,-3.08,-6.27,-3.08,-6.29,6.29,5.99,2.05,3.21,3.21,3.19
20.40,-3.02,-6.25,-3.01,-6.25,6.25,5.96,2.11,3.23,3.24,3.23
20.61,-2.95,-6.21,-2.95,-6.21,6.21,5.92,2.17,3.26,3.26,3.26
20.81,-2.88,-6.18,-2.88,-6.17,6.17,5.88,2.24,3.29,3.29,3.30
21.02,-2.81,-6.15,-2.81,-6.13,6.13,5.85,2.30,3.32,3.31,3.34
21.23,-2.75,-6.11,-2.74,-6.08,6.08,5.81,2.37,3.33,3.34,3.36
21.44,-2.68,-6.05,-2.68,-6.04,6.04,5.77,2.44,3.36,3.36,3.38
21.66,-2.61,-6.01,-2.61,-5.99,5.99,5.74,2.51,3.38,3.38,3.40
21.87,-2.55,-5.95,-2.54,-5.94,5.94,5.70,2.59,3.40,3.40,3.41
22.09,-2.48,-5.90,-2.47,-5.89,5.89,5.66,2.66,3.41,3.42,3.43
22.31,-2.41,-5.84,-2.41,-5.84,5.84,5.62,2.74,3.43,3.43,3.44
22.54,-2.34,-5.78,-2.34,-5.78,5.78,5.58,2.82,3.44,3.45,3.45
22.76,-2.27,-5.72,-2.27,-5.72,5.72,5.54,2.91,3.46,3.46,3.45
22.99,-2.20,-5.65,-2.20,-5.67,5.67,5.50,2.99,3.47,3.46,3.45
23.22,-2.14,-5.60,-2.13,-5.61,5.61,5.46,3.08,3.47,3.47,3.46
23.45,-2.07,-5.54,-2.07,-5.55,5.55,5.42,3.16,3.48,3.48,3.47
23.69,-2.00,-5.48,-2.00,-5.49,5.49,5.37,3.25,3.49,3.49,3.48
23.92,-1.93,-5.42,-1.93,-5.43,5.43,5.33,3.35,3.50,3.50,3.49
24.16,-1.87,-5.38,-1.86,-5.37,5.37,5.29,3.44,3.50,3.51,3.51
24.40,-1.80,-5.32,-1.80,-5.31,5.31,5.25,3.54,3.52,3.52,3.53
24.65,-1.73,-5.26,-1.73,-5.25,5.25,5.20,3.63,3.53,3.53,3.53
24.89,-1.67,-5.20,-1.66,-5.20,5.20,5.16,3.73,3.53,3.54,3.54
25.14,-1.60,-5.14,-1.59,-5.14,5.14,5.12,3.83,3.54,3.55,3.55
25.39,-1.53,-5.08,-1.53,-5.08,5.08,5.07,3.93,3.56,3.56,3.56
25.65,-1.46,-5.03,-1.46,-5.03,5.03,5.03,4.03,3.57,3.57,3.57
25.91,-1.40,-4.97,-1.39,-4.97,4.97,4.98,4.13,3.57,3.58,3.57
26.16,-1.33,-4.91,-1.33,-4.91,4.91,4.94,4.22,3.59,3.59,3.58
26.43,-1.26,-4.85,-1.26,-4.86,4.86,4.89,4.32,3.60,3.60,3.59
26.69,-1.20,-4.80,-1.19,-4.80,4.80,4.85,4.42,3.60,3.60,3.60
26.96,-1.13,-4.75,-1.13,-4.74,4.74,4.80,4.51,3.61,3.61,3.62
27.23,-1.06,-4.68,-1.06,-4.68,4.68,4.75,4.60,3.62,3.62,3.63
27.50,-1.00,-4.63,-0.99,-4.62,4.62,4.71,4.69,3.63,3.63,3.63
27.77,-0.93,-4.56,-0.93,-4.57,4.57,4.66,4.78,3.64,3.64,3.63
28.05,-0.87,-4.52,-0.86,-4.51,4.51,4.61,4.86,3.64,3.65,3.65
28.33,-0.80,-4.45,-0.80,-4.45,4.45,4.56,4.94,3.66,3.65,3.65
28.62,-0.74,-4.40,-0.73,-4.40,4.40,4.52,5.01,3.66,3.66,3.66
28.90,-0.67,-4.33,-0.67,-4.34,4.34,4.47,5.08,3.67,3.67,3.67
29.19,-0.61,-4.27,-0.61,-4.29,4.29,4.42,5.13,3.68,3.68,3.67
29.48,-0.55,-4.24,-0.55,-4.23,4.23,4.37,5.19,3.68,3.68,3.69
29.78,-0.49,-4.18,-0.49,-4.18,4.18,4.32,5.23,3.69,3.69,3.69
30.08,-0.43,-4.13,-0.43,-4.13,4.13,4.27,5.26,3.70,3.69,3.70
30.38,-0.37,-4.06,-0.37,-4.08,4.08,4.22,5.29,3.71,3.70,3.70
30.68,-0.32,-4.03,-0.32,-4.03,4.03,4.17,5.31,3.71,3.71,3.71
30.99,-0.26,-3.97,-0.26,-3.98,3.98,4.12,5.32,3.72,3.72,3.71
31.30,-0.21,-3.93,-0.21,-3.93,3.93,4.07,5.32,3.72,3.72,3.72
31.61,-0.16,-3.88,-0.15,-3.88,3.88,4.02,5.30,3.73,3.73,3.73
31.93,-0.10,-3.83,-0.10,-3.84,3.84,3.97,5.28,3.74,3.74,3.73
32.24,-0.05,-3.78,-0.05,-3.79,3.79,3.92,5.26,3.74,3.74,3.73
32.57,0.00,-3.75,0.01,-3.74,3.74,3.87,5.22,3.74,3.75,3.75
32.89,0.05,-3.70,0.07,-3.69,3.69,3.82,5.17,3.74,3.76,3.76
33.22,0.11,-3.65,0.12,-3.64,3.64,3.77,5.12,3.75,3.76,3.76
33.55,0.17,-3.60,0.18,-3.59,3.59,3.72,5.05,3.76,3.77,3.77
33.89,0.23,-3.54,0.24,-3.54,3.54,3.66,4.98,3.77,3.77,3.78
34.23,0.29,-3.49,0.29,-3.49,3.49,3.61,4.91,3.78,3.78,3.78
34.57,0.35,-3.44,0.35,-3.44,3.44,3.56,4.83,3.79,3.79,3.79
34.92,0.41,-3.37,0.41,-3.38,3.38,3.51,4.74,3.80,3.79,3.79
35.27,0.46,-3.33,0.46,-3.33,3.33,3.46,4.65,3.79,3.79,3.79
35.62,0.52,-3.28,0.52,-3.28,3.28,3.40,4.55,3.80,3.80,3.80
35.97,0.58,-3.21,0.57,-3.23,3.23,3.35,4.45,3.81,3.80,3.80
36.33,0.63,-3.17,0.63,-3.17,3.17,3.30,4.35,3.81,3.80,3.80
36.70,0.68,-3.11,0.68,-3.12,3.12,3.24,4.25,3.80,3.80,3.80
37.06,0.73,-3.07,0.73,-3.07,3.07,3.19,4.14,3.80,3.80,3.80
37.43,0.78,-3.02,0.79,-3.01,3.01,3.14,4.03,3.80,3.80,3.81
37.81,0.83,-2.97,0.84,-2.96,2.96,3.09,3.93,3.79,3.80,3.80
38.19,0.88,-2.91,0.89,-2.90,2.90,3.03,3.82,3.79,3.79,3.80
38.57,0.93,-2.86,0.94,-2.85,2.85,2.98,3.71,3.78,3.79,3.79
38.95,0.98,-2.80,0.99,-2.80,2.80,2.92,3.60,3.78,3.79,3.79
39.34,1.04,-2.74,1.04,-2.75,2.75,2.87,3.49,3.79,3.78,3.78
39.74,1.09,-2.68,1.09,-2.69,2.69,2.82,3.39,3.79,3.78,3.77
40.14,1.14,-2.64,1.13,-2.64,2.64,2.76,3.28,3.79,3.78,3.78
40.54,1.18,-2.59,1.18,-2.59,2.59,2.71,3.18,3.77,3.77,3.77
40.94,1.23,-2.53,1.23,-2.54,2.54,2.65,3.08,3.77,3.77,3.76
41.35,1.28,-2.47,1.28,-2.49,2.49,2.60,2.98,3.77,3.77,3.76
41.76,1.32,-2.44,1.33,-2.43,2.43,2.55,2.88,3.76,3.76,3.76
42.18,1.36,-2.40,1.37,-2.38,2.38,2.49,2.78,3.75,3.76,3.76
42.60,1.41,-2.34,1.42,-2.33,2.33,2.44,2.68,3.75,3.75,3.76
43.03,1.45,-2.30,1.46,-2.28,2.28,2.38,2.59,3.74,3.75,3.76
43.46,1.50,-2.25,1.51,-2.24,2.24,2.33,2.50,3.74,3.74,3.75
43.90,1.54,-2.19,1.55,-2.19,2.19,2.27,2.41,3.73,3.74,3.73
44.33,1.59,-2.14,1.59,-2.15,2.15,2.22,2.32,3.74,3.73,3.73
44.78,1.64,-2.08,1.63,-2.10,2.10,2.16,2.24,3.74,3.73,3.72
45.23,1.68,-2.03,1.67,-2.05,2.05,2.11,2.15,3.74,3.72,3.71
45.68,1.71,-2.00,1.71,-2.01,2.01,2.05,2.07,3.72,3.72,3.71
46.13,1.74,-1.96,1.74,-1.97,1.97,2.00,1.99,3.71,3.71,3.70
46.60,1.78,-1.93,1.78,-1.92,1.92,1.94,1.91,3.71,3.70,3.71
47.06,1.81,-1.89,1.81,-1.88,1.88,1.88,1.83,3.69,3.69,3.70
47.53,1.84,-1.84,1.85,-1.84,1.84,1.83,1.76,3.68,3.68,3.69
48.01,1.87,-1.82,1.88,-1.79,1.79,1.77,1.69,3.66,3.67,3.70
48.49,1.91,-1.76,1.92,-1.75,1.75,1.72,1.61,3.66,3.66,3.67
48.97,1.95,-1.70,1.95,-1.70,1.70,1.66,1.54,3.66,3.65,3.65
49.46,1.98,-1.65,1.98,-1.66,1.66,1.61,1.48,3.64,3.64,3.64
49.96,2.01,-1.60,2.02,-1.61,1.61,1.55,1.41,3.62,3.62,3.61
50.46,2.04,-1.57,2.05,-1.56,1.56,1.49,1.34,3.60,3.61,3.61
50.96,2.08,-1.51,2.09,-1.50,1.50,1.44,1.28,3.59,3.59,3.59
51.47,2.11,-1.44,2.12,-1.45,1.45,1.38,1.22,3.56,3.57,3.56
51.99,2.15,-1.39,2.15,-1.40,1.40,1.33,1.16,3.55,3.55,3.54
52.51,2.19,-1.34,2.18,-1.34,1.34,1.27,1.10,3.54,3.53,3.54
53.03,2.22,-1.29,2.22,-1.29,1.29,1.21,1.04,3.51,3.51,3.51
53.56,2.25,-1.24,2.25,-1.24,1.24,1.16,0.98,3.49,3.48,3.49
54.10,2.28,-1.18,2.28,-1.19,1.19,1.10,0.92,3.47,3.46,3.46
54.64,2.31,-1.13,2.31,-1.13,1.13,1.04,0.87,3.45,3.44,3.44
55.18,2.34,-1.07,2.34,-1.08,1.08,0.99,0.81,3.43,3.42,3.41
55.74,2.36,-1.02,2.36,-1.03,1.03,0.93,0.76,3.39,3.40,3.38
56.29,2.38,-0.99,2.39,-0.98,0.98,0.87,0.71,3.36,3.37,3.37
56.86,2.40,-0.94,2.42,-0.92,0.92,0.82,0.65,3.33,3.35,3.34
57.42,2.44,-0.87,2.45,-0.87,0.87,0.76,0.60,3.31,3.32,3.31
58.00,2.47,-0.81,2.48,-0.82,0.82,0.70,0.55,3.29,3.29,3.29
58.58,2.50,-0.76,2.50,-0.76,0.76,0.64,0.50,3.26,3.26,3.26
59.16,2.54,-0.70,2.53,-0.70,0.70,0.59,0.45,3.24,3.23,3.24
59.76,2.56,-0.65,2.56,-0.64,0.64,0.53,0.40,3.20,3.20,3.21
60.35,2.58,-0.59,2.59,-0.57,0.57,0.47,0.35,3.16,3.16,3.18
60.96,2.61,-0.53,2.62,-0.51,0.51,0.42,0.31,3.12,3.13,3.14
61.57,2.64,-0.45,2.65,-0.45,0.45,0.36,0.26,3.09,3.09,3.09
62.18,2.67,-0.37,2.67,-0.38,0.38,0.30,0.21,3.05,3.05,3.04
62.80,2.69,-0.32,2.70,-0.32,0.32,0.24,0.16,3.01,3.01,3.02
63.43,2.72,-0.24,2.72,-0.25,0.25,0.18,0.12,2.98,2.97,2.97
64.07,2.75,-0.17,2.74,-0.19,0.19,0.13,0.07,2.94,2.93,2.92
64.71,2.77,-0.11,2.76,-0.13,0.13,0.07,0.03,2.90,2.89,2.88
65.35,2.79,-0.05,2.78,-0.07,0.07,0.01,-0.02,2.86,2.84,2.84
66.01,2.80,0.01,2.80,-0.00,0.00,-0.05,-0.07,2.81,2.80,2.80
66.67,2.81,0.05,2.81,0.06,-0.06,-0.11,-0.11,2.75,2.75,2.76
67.33,2.82,0.11,2.83,0.12,-0.12,-0.17,-0.16,2.70,2.71,2.72
68.01,2.83,0.16,2.84,0.18,-0.18,-0.22,-0.21,2.66,2.66,2.67
68.69,2.84,0.22,2.85,0.23,-0.23,-0.28,-0.25,2.61,2.62,2.62
69.37,2.86,0.29,2.86,0.29,-0.29,-0.34,-0.30,2.57,2.58,2.57
70.07,2.87,0.35,2.88,0.35,-0.35,-0.40,-0.35,2.53,2.53,2.53
70.77,2.89,0.41,2.89,0.40,-0.40,-0.46,-0.39,2.49,2.49,2.48
71.48,2.90,0.46,2.90,0.46,-0.46,-0.52,-0.44,2.44,2.44,2.44
72.19,2.92,0.53,2.92,0.52,-0.52,-0.58,-0.49,2.40,2.40,2.39
72.91,2.93,0.58,2.93,0.58,-0.58,-0.64,-0.54,2.35,2.35,2.35
73.64,2.94,0.64,2.95,0.64,-0.64,-0.70,-0.59,2.30,2.31,2.30
74.38,2.96,0.69,2.97,0.71,-0.71,-0.76,-0.64,2.26,2.27,2.27
75.12,2.97,0.75,2.99,0.77,-0.77,-0.82,-0.69,2.21,2.23,2.22
75.87,3.00,0.82,3.01,0.83,-0.83,-0.88,-0.74,2.17,2.19,2.19
76.63,3.03,0.89,3.04,0.89,-0.89,-0.94,-0.79,2.14,2.15,2.15
77.40,3.05,0.94,3.06,0.95,-0.95,-1.00,-0.84,2.11,2.11,2.11
78.17,3.08,1.01,3.08,1.01,-1.01,-1.06,-0.89,2.08,2.07,2.07
78.95,3.11,1.08,3.10,1.06,-1.06,-1.12,-0.95,2.05,2.04,2.04
79.74,3.13,1.13,3.12,1.12,-1.12,-1.18,-1.00,2.02,2.00,2.01
80.54,3.15,1.18,3.14,1.17,-1.17,-1.24,-1.06,1.98,1.97,1.97
81.35,3.17,1.23,3.16,1.22,-1.22,-1.30,-1.11,1.96,1.94,1.94
82.16,3.18,1.28,3.17,1.27,-1.27,-1.36,-1.17,1.92,1.91,1.90
82.98,3.19,1.31,3.19,1.31,-1.31,-1.43,-1.23,1.88,1.87,1.88
83.81,3.20,1.36,3.20,1.36,-1.36,-1.49,-1.29,1.85,1.84,1.84
84.65,3.21,1.41,3.21,1.40,-1.40,-1.55,-1.35,1.81,1.81,1.80
85.50,3.22,1.44,3.23,1.44,-1.44,-1.61,-1.41,1.78,1.79,1.79
86.35,3.23,1.48,3.24,1.49,-1.49,-1.67,-1.47,1.75,1.76,1.76
87.22,3.24,1.52,3.26,1.53,-1.53,-1.74,-1.53,1.71,1.73,1.73
88.09,3.25,1.56,3.28,1.58,-1.58,-1.80,-1.60,1.68,1.70,1.70
88.97,3.28,1.61,3.30,1.63,-1.63,-1.86,-1.66,1.66,1.67,1.68
89.86,3.31,1.66,3.33,1.68,-1.68,-1.92,-1.73,1.63,1.65,1.65
90.76,3.34,1.73,3.35,1.73,-1.73,-1.99,-1.80,1.61,1.62,1.61
91.66,3.37,1.78,3.38,1.79,-1.79,-2.05,-1.87,1.59,1.59,1.59
92.58,3.40,1.85,3.41,1.84,-1.84,-2.11,-1.94,1.56,1.56,1.56
93.51,3.44,1.90,3.43,1.90,-1.90,-2.17,-2.01,1.54,1.53,1.54
94.44,3.46,1.96,3.46,1.96,-1.96,-2.24,-2.09,1.51,1.50,1.51
95.39,3.49,2.01,3.48,2.01,-2.01,-2.30,-2.16,1.48,1.47,1.48
96.34,3.52,2.09,3.50,2.06,-2.06,-2.37,-2.24,1.46,1.44,1.44
97.30,3.53,2.13,3.52,2.12,-2.12,-2.43,-2.31,1.42,1.40,1.40
98.28,3.54,2.18,3.53,2.16,-2.16,-2.49,-2.39,1.38,1.37,1.36
99.26,3.55,2.23,3.54,2.21,-2.21,-2.56,-2.47,1.34,1.33,1.33
100.25,3.55,2.26,3.54,2.25,-2.25,-2.62,-2.55,1.30,1.29,1.29
101.25,3.55,2.30,3.55,2.30,-2.30,-2.69,-2.63,1.26,1.25,1.25
102.27,3.54,2.34,3.54,2.34,-2.34,-2.75,-2.71,1.20,1.21,1.20
103.29,3.53,2.38,3.54,2.38,-2.38,-2.81,-2.79,1.15,1.16,1.16
104.32,3.53,2.41,3.54,2.42,-2.42,-2.88,-2.87,1.11,1.11,1.12
105.37,3.53,2.46,3.53,2.47,-2.47,-2.94,-2.95,1.06,1.06,1.07
106.42,3.53,2.52,3.53,2.52,-2.52,-3.01,-3.03,1.02,1.01,1.01
107.48,3.53,2.57,3.52,2.57,-2.57,-3.07,-3.11,0.96,0.96,0.97
108.56,3.51,2.62,3.52,2.63,-2.63,-3.14,-3.19,0.89,0.90,0.90
109.64,3.51,2.67,3.53,2.69,-2.69,-3.21,-3.27,0.82,0.84,0.84
110.74,3.52,2.74,3.54,2.76,-2.76,-3.27,-3.35,0.76,0.77,0.78
111.85,3.53,2.82,3.55,2.84,-2.84,-3.34,-3.42,0.69,0.71,0.72
112.97,3.55,2.91,3.57,2.92,-2.92,-3.40,-3.50,0.63,0.64,0.64
114.10,3.57,2.99,3.59,3.01,-3.01,-3.47,-3.57,0.56,0.57,0.58
115.24,3.60,3.10,3.61,3.10,-3.10,-3.53,-3.64,0.50,0.51,0.51
116.39,3.62,3.19,3.64,3.20,-3.20,-3.60,-3.71,0.42,0.44,0.43
117.55,3.65,3.29,3.67,3.30,-3.30,-3.66,-3.78,0.35,0.37,0.36
118.73,3.69,3.40,3.70,3.40,-3.40,-3.73,-3.84,0.30,0.30,0.29
119.92,3.74,3.51,3.73,3.50,-3.50,-3.80,-3.90,0.25,0.23,0.23
121.12,3.77,3.61,3.76,3.59,-3.59,-3.86,-3.96,0.18,0.17,0.16
122.33,3.79,3.70,3.79,3.69,-3.69,-3.93,-4.01,0.11,0.10,0.10
123.55,3.82,3.78,3.81,3.77,-3.77,-3.99,-4.06,0.05,0.04,0.05
124.79,3.85,3.87,3.83,3.85,-3.85,-4.06,-4.11,0.00,-0.02,-0.02
126.03,3.87,3.95,3.84,3.92,-3.92,-4.13,-4.15,-0.05,-0.08,-0.08
127.29,3.88,4.02,3.85,3.99,-3.99,-4.19,-4.19,-0.11,-0.14,-0.14
128.57,3.88,4.09,3.86,4.06,-4.06,-4.26,-4.23,-0.17,-0.20,-0.21
129.85,3.87,4.13,3.86,4.11,-4.11,-4.32,-4.27,-0.24,-0.26,-0.26
131.15,3.86,4.18,3.86,4.17,-4.17,-4.39,-4.30,-0.31,-0.31,-0.32
132.46,3.85,4.22,3.86,4.22,-4.22,-4.46,-4.33,-0.37,-0.36,-0.36
133.79,3.84,4.25,3.86,4.27,-4.27,-4.52,-4.36,-0.43,-0.42,-0.41
135.12,3.83,4.30,3.86,4.32,-4.32,-4.59,-4.38,-0.49,-0.47,-0.47
136.48,3.83,4.34,3.86,4.38,-4.38,-4.65,-4.40,-0.54,-0.51,-0.51
137.84,3.84,4.41,3.87,4.43,-4.43,-4.72,-4.43,-0.59,-0.56,-0.57
139.22,3.85,4.47,3.88,4.49,-4.49,-4.78,-4.45,-0.64,-0.61,-0.62
140.61,3.87,4.54,3.90,4.55,-4.55,-4.85,-4.47,-0.68,-0.66,-0.67
142.02,3.91,4.61,3.92,4.62,-4.62,-4.91,-4.48,-0.71,-0.70,-0.70
143.44,3.93,4.68,3.94,4.69,-4.69,-4.97,-4.50,-0.76,-0.75,-0.74
144.87,3.97,4.76,3.97,4.76,-4.76,-5.04,-4.52,-0.79,-0.79,-0.79
146.32,3.99,4.83,4.00,4.84,-4.84,-5.10,-4.54,-0.84,-0.84,-0.84
147.78,4.03,4.91,4.02,4.91,-4.91,-5.16,-4.56,-0.88,-0.89,-0.88
149.26,4.06,4.99,4.05,4.99,-4.99,-5.23,-4.59,-0.93,-0.94,-0.92
150.75,4.10,5.09,4.08,5.06,-5.06,-5.29,-4.61,-0.96,-0.98,-0.99
152.26,4.12,5.16,4.10,5.14,-5.14,-5.35,-4.63,-1.01,-1.03,-1.03
153.78,4.15,5.23,4.13,5.21,-5.21,-5.41,-4.66,-1.05,-1.08,-1.08
155.32,4.16,5.30,4.15,5.28,-5.28,-5.48,-4.69,-1.12,-1.13,-1.14
156.88,4.17,5.35,4.17,5.35,-5.35,-5.54,-4.72,-1.18,-1.18,-1.18
158.44,4.18,5.41,4.19,5.42,-5.42,-5.60,-4.76,-1.24,-1.23,-1.23
160.03,4.20,5.49,4.21,5.49,-5.49,-5.66,-4.80,-1.29,-1.29,-1.29
161.63,4.21,5.56,4.23,5.57,-5.57,-5.72,-4.84,-1.35,-1.34,-1.35
163.24,4.22,5.62,4.25,5.64,-5.64,-5.78,-4.88,-1.42,-1.39,-1.40
164.88,4.25,5.70,4.27,5.72,-5.72,-5.83,-4.93,-1.47,-1.45,-1.44
166.53,4.27,5.77,4.30,5.80,-5.80,-5.89,-4.98,-1.52,-1.50,-1.50
168.19,4.30,5.86,4.32,5.88,-5.88,-5.95,-5.03,-1.57,-1.55,-1.55
169.87,4.35,5.96,4.35,5.96,-5.96,-6.00,-5.09,-1.61,-1.61,-1.61
171.57,4.37,6.03,4.38,6.05,-6.05,-6.06,-5.15,-1.68,-1.67,-1.66
173.29,4.41,6.14,4.41,6.14,-6.14,-6.11,-5.22,-1.72,-1.73,-1.72
175.02,4.45,6.23,4.44,6.22,-6.22,-6.17,-5.29,-1.77,-1.78,-1.77
176.77,4.47,6.32,4.46,6.31,-6.31,-6.22,-5.36,-1.83,-1.84,-1.84
178.54,4.49,6.40,4.49,6.39,-6.39,-6.27,-5.44,-1.90,-1.90,-1.90
180.32,4.51,6.48,4.51,6.47,-6.47,-6.32,-5.52,-1.96,-1.96,-1.96
182.13,4.53,6.55,4.52,6.54,-6.54,-6.38,-5.61,-2.01,-2.02,-2.02
183.95,4.54,6.63,4.53,6.61,-6.61,-6.42,-5.70,-2.07,-2.09,-2.09
185.79,4.54,6.69,4.53,6.68,-6.68,-6.47,-5.79,-2.14,-2.15,-2.14
187.65,4.53,6.75,4.53,6.74,-6.74,-6.52,-5.89,-2.20,-2.21,-2.22
189.52,4.52,6.80,4.52,6.78,-6.78,-6.57,-5.99,-2.26,-2.27,-2.27
191.42,4.51,6.84,4.51,6.83,-6.83,-6.61,-6.10,-2.32,-2.32,-2.33
193.33,4.49,6.87,4.49,6.87,-6.87,-6.66,-6.20,-2.38,-2.38,-2.38
195.27,4.47,6.91,4.47,6.91,-6.91,-6.70,-6.32,-2.43,-2.44,-2.43
197.22,4.44,6.94,4.44,6.93,-6.93,-6.74,-6.43,-2.49,-2.49,-2.49
199.19,4.41,6.97,4.41,6.96,-6.96,-6.78,-6.55,-2.55,-2.55,-2.56
201.18,4.38,6.99,4.39,6.99,-6.99,-6.82,-6.67,-2.60,-2.60,-2.61
203.19,4.34,6.99,4.36,7.01,-7.01,-6.86,-6.80,-2.66,-2.65,-2.65
205.23,4.31,7.02,4.33,7.03,-7.03,-6.90,-6.92,-2.71,-2.70,-2.70
207.28,4.28,7.02,4.30,7.05,-7.05,-6.93,-7.05,-2.76,-2.75,-2.73
209.35,4.26,7.05,4.27,7.06,-7.06,-6.96,-7.18,-2.80,-2.79,-2.79
211.44,4.24,7.09,4.24,7.08,-7.08,-7.00,-7.30,-2.84,-2.84,-2.85
213.56,4.21,7.10,4.22,7.10,-7.10,-7.03,-7.43,-2.88,-2.88,-2.88
215.69,4.18,7.09,4.19,7.11,-7.11,-7.06,-7.56,-2.93,-2.92,-2.91
217.85,4.15,7.11,4.16,7.12,-7.12,-7.09,-7.68,-2.97,-2.96,-2.96
220.03,4.14,7.14,4.13,7.13,-7.13,-7.11,-7.80,-2.98,-2.99,-3.00
222.23,4.12,7.16,4.11,7.13,-7.13,-7.14,-7.92,-3.01,-3.03,-3.04
224.45,4.09,7.15,4.08,7.14,-7.14,-7.16,-8.04,-3.04,-3.06,-3.06
226.70,4.06,7.15,4.05,7.14,-7.14,-7.18,-8.14,-3.07,-3.09,-3.08
228.96,4.02,7.14,4.02,7.13,-7.13,-7.20,-8.24,-3.11,-3.11,-3.12
231.25,4.00,7.13,3.99,7.12,-7.12,-7.22,-8.34,-3.12,-3.13,-3.13
233.57,3.97,7.12,3.96,7.11,-7.11,-7.24,-8.42,-3.14,-3.15,-3.15
235.90,3.92,7.10,3.93,7.10,-7.10,-7.25,-8.49,-3.18,-3.17,-3.17
238.26,3.90,7.09,3.91,7.09,-7.09,-7.27,-8.56,-3.18,-3.18,-3.18
240.64,3.88,7.08,3.88,7.07,-7.07,-7.28,-8.61,-3.19,-3.19,-3.19
243.05,3.86,7.06,3.86,7.06,-7.06,-7.29,-8.65,-3.20,-3.20,-3.20
245.48,3.84,7.05,3.85,7.05,-7.05,-7.30,-8.67,-3.21,-3.20,-3.21
247.93,3.82,7.03,3.84,7.05,-7.05,-7.31,-8.69,-3.22,-3.21,-3.21
250.41,3.81,7.03,3.84,7.05,-7.05,-7.31,-8.68,-3.23,-3.21,-3.21
252.92,3.82,7.03,3.85,7.05,-7.05,-7.32,-8.67,-3.23,-3.20,-3.20
255.45,3.84,7.04,3.86,7.06,-7.06,-7.32,-8.64,-3.22,-3.20,-3.19
258.00,3.85,7.04,3.88,7.07,-7.07,-7.32,-8.60,-3.22,-3.19,-3.19
260.58,3.88,7.07,3.90,7.08,-7.08,-7.32,-8.54,-3.20,-3.19,-3.19
263.19,3.90,7.08,3.92,7.10,-7.10,-7.31,-8.47,-3.20,-3.18,-3.18
265.82,3.95,7.13,3.95,7.12,-7.12,-7.31,-8.39,-3.17,-3.17,-3.17
268.48,3.98,7.14,3.98,7.14,-7.14,-7.30,-8.30,-3.15,-3.16,-3.15
271.16,4.01,7.15,4.01,7.15,-7.15,-7.29,-8.20,-3.14,-3.14,-3.14
273.87,4.05,7.19,4.03,7.16,-7.16,-7.28,-8.09,-3.11,-3.13,-3.14
276.61,4.07,7.19,4.05,7.17,-7.17,-7.27,-7.97,-3.10,-3.12,-3.11
279.38,4.08,7.19,4.06,7.17,-7.17,-7.26,-7.85,-3.09,-3.11,-3.11
282.17,4.09,7.19,4.06,7.16,-7.16,-7.25,-7.72,-3.07,-3.10,-3.09
284.99,4.09,7.17,4.06,7.15,-7.15,-7.23,-7.59,-3.05,-3.08,-3.08
287.84,4.08,7.16,4.05,7.12,-7.12,-7.21,-7.45,-3.04,-3.07,-3.08
290.72,4.06,7.12,4.04,7.10,-7.10,-7.19,-7.31,-3.03,-3.06,-3.06
293.63,4.03,7.08,4.02,7.07,-7.07,-7.17,-7.17,-3.03,-3.05,-3.05
296.57,4.00,7.04,4.00,7.03,-7.03,-7.15,-7.02,-3.03,-3.03,-3.03
299.53,3.97,7.00,3.98,7.00,-7.00,-7.13,-6.88,-3.03,-3.02,-3.03
302.53,3.93,6.95,3.96,6.97,-6.97,-7.10,-6.74,-3.03,-3.01,-3.02
305.55,3.89,6.89,3.93,6.93,-6.93,-7.08,-6.59,-3.04,-3.00,-3.00
308.61,3.86,6.85,3.91,6.91,-6.91,-7.05,-6.45,-3.04,-2.99,-2.99
311.69,3.85,6.84,3.90,6.88,-6.88,-7.02,-6.31,-3.03,-2.98,-2.98
314.81,3.85,6.81,3.88,6.86,-6.86,-6.99,-6.17,-3.00,-2.97,-2.96
317.96,3.85,6.82,3.87,6.84,-6.84,-6.95,-6.04,-2.98,-2.97,-2.96
321.14,3.86,6.82,3.86,6.82,-6.82,-6.92,-5.91,-2.96,-2.96,-2.96
324.35,3.87,6.83,3.85,6.80,-6.80,-6.89,-5.78,-2.93,-2.95,-2.96
327.59,3.86,6.81,3.84,6.79,-6.79,-6.85,-5.65,-2.93,-2.95,-2.94
330.87,3.85,6.80,3.83,6.77,-6.77,-6.81,-5.52,-2.92,-2.94,-2.95
334.18,3.83,6.78,3.81,6.76,-6.76,-6.77,-5.40,-2.92,-2.94,-2.95
337.52,3.80,6.75,3.80,6.74,-6.74,-6.73,-5.29,-2.93,-2.94,-2.94
340.90,3.79,6.73,3.77,6.71,-6.71,-6.69,-5.17,-2.92,-2.94,-2.94
344.30,3.76,6.70,3.75,6.69,-6.69,-6.64,-5.06,-2.92,-2.94,-2.94
347.75,3.72,6.66,3.71,6.66,-6.66,-6.60,-4.95,-2.93,-2.94,-2.94
351.23,3.68,6.63,3.68,6.62,-6.62,-6.55,-4.85,-2.94,-2.95,-2.94
354.74,3.64,6.59,3.63,6.58,-6.58,-6.50,-4.75,-2.94,-2.95,-2.95
358.28,3.57,6.53,3.59,6.55,-6.55,-6.46,-4.66,-2.97,-2.95,-2.96
361.87,3.53,6.49,3.55,6.51,-6.51,-6.40,-4.56,-2.97,-2.96,-2.96
365.49,3.48,6.45,3.50,6.47,-6.47,-6.35,-4.47,-2.98,-2.97,-2.96
369.14,3.44,6.42,3.46,6.43,-6.43,-6.30,-4.39,-2.99,-2.97,-2.97
372.83,3.39,6.37,3.41,6.39,-6.39,-6.24,-4.30,-3.00,-2.98,-2.98
376.56,3.35,6.34,3.36,6.35,-6.35,-6.18,-4.23,-3.00,-2.99,-2.99
380.33,3.31,6.30,3.32,6.31,-6.31,-6.13,-4.15,-3.00,-3.00,-2.99
384.13,3.27,6.28,3.27,6.28,-6.28,-6.06,-4.08,-3.00,-3.00,-3.00
387.97,3.22,6.24,3.23,6.24,-6.24,-6.00,-4.01,-3.01,-3.01,-3.01
391.85,3.17,6.20,3.18,6.20,-6.20,-5.94,-3.94,-3.02,-3.02,-3.03
395.77,3.13,6.15,3.13,6.15,-6.15,-5.87,-3.88,-3.02,-3.03,-3.02
399.73,3.07,6.10,3.07,6.11,-6.11,-5.80,-3.82,-3.03,-3.03,-3.03
403.72,3.01,6.05,3.02,6.05,-6.05,-5.73,-3.76,-3.04,-3.04,-3.04
407.76,2.95,6.01,2.95,6.00,-6.00,-5.65,-3.70,-3.05,-3.04,-3.05
411.84,2.89,5.94,2.89,5.94,-5.94,-5.58,-3.65,-3.04,-3.05,-3.04
415.96,2.83,5.89,2.81,5.87,-5.87,-5.50,-3.60,-3.04,-3.05,-3.05
420.12,2.74,5.80,2.73,5.79,-5.79,-5.41,-3.55,-3.05,-3.06,-3.06
424.32,2.64,5.70,2.65,5.71,-5.71,-5.33,-3.50,-3.07,-3.06,-3.06
428.56,2.55,5.62,2.56,5.62,-5.62,-5.24,-3.46,-3.07,-3.06,-3.07
432.85,2.45,5.52,2.46,5.52,-5.52,-5.14,-3.42,-3.07,-3.07,-3.07
437.18,2.33,5.40,2.35,5.42,-5.42,-5.04,-3.38,-3.08,-3.07,-3.07
441.55,2.23,5.30,2.23,5.30,-5.30,-4.94,-3.34,-3.07,-3.07,-3.06
445.96,2.11,5.18,2.10,5.17,-5.17,-4.83,-3.30,-3.06,-3.07,-3.06
450.42,1.96,5.04,1.97,5.03,-5.03,-4.71,-3.27,-3.07,-3.07,-3.07
454.93,1.82,4.89,1.82,4.88,-4.88,-4.59,-3.23,-3.06,-3.06,-3.06
459.48,1.66,4.73,1.66,4.72,-4.72,-4.46,-3.20,-3.06,-3.06,-3.07
464.07,1.51,4.57,1.49,4.55,-4.55,-4.33,-3.17,-3.04,-3.06,-3.06
468.71,1.34,4.39,1.31,4.37,-4.37,-4.19,-3.14,-3.02,-3.05,-3.05
473.40,1.11,4.16,1.12,4.17,-4.17,-4.03,-3.11,-3.05,-3.05,-3.05
478.13,0.90,3.94,0.91,3.95,-3.95,-3.87,-3.08,-3.05,-3.04,-3.04
482.91,0.69,3.73,0.69,3.72,-3.72,-3.70,-3.05,-3.03,-3.04,-3.04
487.74,0.47,3.50,0.45,3.48,-3.48,-3.52,-3.02,-3.01,-3.03,-3.03
492.62,0.23,3.25,0.20,3.23,-3.23,-3.32,-3.00,-2.99,-3.03,-3.02
497.55,-0.02,3.01,-0.06,2.96,-2.96,-3.11,-2.97,-2.98,-3.02,-3.02
502.52,-0.28,2.74,-0.33,2.68,-2.68,-2.89,-2.95,-2.96,-3.02,-3.01
507.55,-0.57,2.45,-0.61,2.40,-2.40,-2.66,-2.92,-2.97,-3.01,-3.01
512.62,-0.88,2.14,-0.90,2.11,-2.11,-2.41,-2.90,-2.99,-3.01,-3.01
