frequency,raw,error,smoothed,error_smoothed,equalization,parametric_eq,fixed_band_eq,equalized_raw,equalized_smoothed,target
20.00,-20.94,-25.24,-20.89,-25.22,25.22,21.04,6.57,4.28,4.33,4.30
20.20,-20.64,-24.99,-20.61,-24.98,24.98,21.59,6.71,4.34,4.37,4.35
20.40,-20.34,-24.74,-20.34,-24.74,24.74,22.14,6.86,4.41,4.41,4.40
20.61,-20.06,-24.49,-20.06,-24.50,24.50,22.70,7.01,4.43,4.44,4.43
20.81,-19.74,-24.23,-19.78,-24.25,24.25,23.25,7.16,4.50,4.47,4.48
21.02,-19.45,-23.97,-19.50,-23.99,23.99,23.77,7.32,4.54,4.49,4.52
21.23,-19.18,-23.72,-19.22,-23.73,23.73,24.24,7.49,4.56,4.52,4.54
21.44,-18.89,-23.46,-18.93,-23.47,23.47,24.65,7.65,4.58,4.54,4.56
21.66,-18.63,-23.21,-18.65,-23.21,23.21,24.96,7.82,4.58,4.56,4.58
21.87,-18.34,-22.93,-18.36,-22.94,22.94,25.15,8.00,4.60,4.58,4.59
22.09,-18.06,-22.67,-18.07,-22.66,22.66,25.21,8.18,4.60,4.60,4.61
22.31,-17.78,-22.40,-17.78,-22.39,22.39,25.12,8.36,4.60,4.61,4.62
22.54,-17.51,-22.13,-17.49,-22.10,22.10,24.89,8.55,4.59,4.61,4.62
22.76,-17.23,-21.84,-17.20,-21.82,21.82,24.55,8.74,4.59,4.62,4.62
22.99,-16.94,-21.54,-16.91,-21.53,21.53,24.11,8.94,4.59,4.62,4.61
23.22,-16.63,-21.23,-16.61,-21.23,21.23,23.61,9.14,4.60,4.62,4.61
23.45,-16.32,-20.92,-16.31,-20.93,20.93,23.06,9.35,4.62,4.62,4.60
23.69,-16.02,-20.64,-16.01,-20.63,20.63,22.49,9.57,4.60,4.62,4.61
23.92,-15.69,-20.31,-15.70,-20.32,20.32,21.91,9.79,4.63,4.62,4.61
24.16,-15.38,-20.01,-15.39,-20.01,20.01,21.34,10.01,4.63,4.62,4.62
24.40,-15.07,-19.70,-15.08,-19.70,19.70,20.77,10.24,4.63,4.62,4.63
24.65,-14.77,-19.39,-14.77,-19.39,19.39,20.21,10.48,4.62,4.62,4.62
24.89,-14.44,-19.06,-14.47,-19.09,19.09,19.67,10.72,4.64,4.62,4.62
25.14,-14.15,-18.77,-14.16,-18.78,18.78,19.14,10.97,4.63,4.62,4.62
25.39,-13.83,-18.46,-13.86,-18.48,18.48,18.63,11.22,4.65,4.62,4.63
25.65,-13.55,-18.18,-13.56,-18.19,18.19,18.13,11.48,4.64,4.62,4.63
25.91,-13.25,-17.87,-13.27,-17.89,17.89,17.65,11.74,4.64,4.62,4.62
26.16,-12.94,-17.56,-12.97,-17.59,17.59,17.19,12.01,4.65,4.62,4.61
26.43,-12.66,-17.27,-12.67,-17.29,17.29,16.74,12.28,4.63,4.62,4.61
26.69,-12.37,-16.98,-12.37,-16.99,16.99,16.30,12.55,4.62,4.61,4.61
26.96,-12.08,-16.70,-12.07,-16.68,16.68,15.88,12.83,4.60,4.61,4.62
27.23,-11.78,-16.40,-11.76,-16.37,16.37,15.46,13.10,4.59,4.61,4.62
27.50,-11.48,-16.10,-11.44,-16.05,16.05,15.06,13.38,4.57,4.61,4.62
27.77,-11.17,-15.78,-11.12,-15.73,15.73,14.67,13.65,4.56,4.61,4.61
28.05,-10.86,-15.46,-10.80,-15.40,15.40,14.28,13.92,4.55,4.60,4.60
28.33,-10.50,-15.09,-10.47,-15.07,15.07,13.91,14.18,4.57,4.60,4.59
28.62,-10.15,-14.74,-10.13,-14.73,14.73,13.54,14.43,4.58,4.60,4.59
28.90,-9.77,-14.36,-9.79,-14.39,14.39,13.18,14.66,4.63,4.60,4.60
29.19,-9.42,-14.00,-9.45,-14.05,14.05,12.82,14.88,4.63,4.60,4.59
29.48,-9.06,-13.67,-9.11,-13.70,13.70,12.48,15.07,4.64,4.60,4.61
29.78,-8.71,-13.30,-8.76,-13.35,13.35,12.13,15.24,4.64,4.59,4.59
30.08,-8.38,-12.98,-8.41,-13.00,13.00,11.79,15.37,4.61,4.59,4.60
30.38,-8.04,-12.63,-8.05,-12.64,12.64,11.45,15.46,4.60,4.59,4.59
30.68,-7.71,-12.30,-7.70,-12.29,12.29,11.12,15.52,4.58,4.59,4.59
30.99,-7.37,-11.96,-7.36,-11.94,11.94,10.79,15.53,4.57,4.59,4.58
31.30,-7.03,-11.61,-7.01,-11.60,11.60,10.46,15.50,4.56,4.58,4.58
31.61,-6.68,-11.26,-6.67,-11.25,11.25,10.14,15.43,4.57,4.58,4.58
31.93,-6.34,-10.92,-6.32,-10.90,10.90,9.81,15.31,4.55,4.58,4.58
32.24,-5.95,-10.52,-5.97,-10.54,10.54,9.49,15.15,4.59,4.57,4.56
32.57,-5.59,-10.16,-5.61,-10.18,10.18,9.17,14.95,4.59,4.57,4.57
32.89,-5.22,-9.78,-5.25,-9.81,9.81,8.85,14.72,4.60,4.56,4.57
33.22,-4.88,-9.43,-4.89,-9.45,9.45,8.52,14.46,4.57,4.56,4.56
33.55,-4.54,-9.10,-4.53,-9.08,9.08,8.20,14.17,4.54,4.55,4.55
33.89,-4.22,-8.76,-4.16,-8.71,8.71,7.88,13.87,4.49,4.55,4.54
34.23,-3.82,-8.37,-3.79,-8.33,8.33,7.56,13.55,4.51,4.54,4.55
34.57,-3.39,-7.92,-3.41,-7.94,7.94,7.23,13.21,4.56,4.54,4.53
34.92,-2.95,-7.48,-3.02,-7.55,7.55,6.90,12.87,4.60,4.53,4.53
35.27,-2.58,-7.11,-2.63,-7.15,7.15,6.58,12.52,4.57,4.53,4.53
35.62,-2.22,-6.74,-2.22,-6.74,6.74,6.25,12.16,4.52,4.52,4.52
35.97,-1.85,-6.37,-1.80,-6.32,6.32,5.91,11.80,4.47,4.52,4.52
36.33,-1.43,-5.96,-1.36,-5.88,5.88,5.58,11.45,4.45,4.52,4.52
36.70,-1.00,-5.51,-0.92,-5.44,5.44,5.24,11.09,4.44,4.52,4.51
37.06,-0.54,-5.05,-0.47,-4.98,4.98,4.91,10.73,4.44,4.52,4.50
37.43,-0.06,-4.58,-0.01,-4.52,4.52,4.56,10.38,4.46,4.51,4.52
37.81,0.39,-4.12,0.46,-4.06,4.06,4.22,10.03,4.45,4.51,4.51
38.19,0.87,-3.64,0.91,-3.60,3.60,3.88,9.68,4.47,4.51,4.51
38.57,1.37,-3.14,1.37,-3.15,3.15,3.53,9.34,4.52,4.51,4.51
38.95,1.88,-2.64,1.81,-2.70,2.70,3.18,9.00,4.58,4.51,4.52
39.34,2.32,-2.20,2.24,-2.27,2.27,2.83,8.66,4.59,4.51,4.51
39.74,2.74,-1.77,2.66,-1.85,1.85,2.47,8.33,4.59,4.51,4.51
40.14,3.15,-1.36,3.06,-1.45,1.45,2.12,8.00,4.60,4.51,4.51
40.54,3.50,-1.00,3.44,-1.07,1.07,1.77,7.67,4.57,4.50,4.50
40.94,3.86,-0.63,3.80,-0.70,0.70,1.41,7.35,4.56,4.50,4.50
41.35,4.15,-0.34,4.14,-0.35,0.35,1.06,7.03,4.50,4.49,4.49
41.76,4.45,-0.04,4.46,-0.03,0.03,0.72,6.72,4.47,4.48,4.48
42.18,4.70,0.22,4.75,0.27,-0.27,0.37,6.40,4.43,4.47,4.49
42.60,4.92,0.46,5.00,0.54,-0.54,0.04,6.10,4.38,4.46,4.47
43.03,5.15,0.69,5.23,0.78,-0.78,-0.29,5.79,4.37,4.45,4.46
43.46,5.41,0.96,5.44,1.01,-1.01,-0.61,5.49,4.40,4.44,4.45
43.90,5.67,1.25,5.64,1.21,-1.21,-0.92,5.18,4.46,4.42,4.42
44.33,5.89,1.49,5.81,1.40,-1.40,-1.21,4.88,4.49,4.41,4.40
44.78,6.10,1.72,5.97,1.57,-1.57,-1.48,4.59,4.53,4.39,4.38
45.23,6.22,1.85,6.12,1.74,-1.74,-1.74,4.29,4.48,4.38,4.37
45.68,6.24,1.89,6.25,1.89,-1.89,-1.97,4.00,4.36,4.36,4.35
46.13,6.28,1.95,6.36,2.02,-2.02,-2.18,3.71,4.27,4.35,4.33
46.60,6.35,2.02,6.46,2.13,-2.13,-2.37,3.42,4.22,4.33,4.33
47.06,6.42,2.11,6.54,2.22,-2.22,-2.53,3.13,4.20,4.31,4.31
47.53,6.53,2.23,6.59,2.30,-2.30,-2.66,2.84,4.24,4.30,4.30
48.01,6.63,2.33,6.62,2.34,-2.34,-2.76,2.56,4.29,4.28,4.30
48.49,6.67,2.40,6.63,2.36,-2.36,-2.84,2.27,4.31,4.26,4.28
48.97,6.72,2.47,6.62,2.37,-2.37,-2.89,1.99,4.35,4.25,4.25
49.46,6.71,2.48,6.60,2.36,-2.36,-2.91,1.71,4.35,4.23,4.23
49.96,6.70,2.50,6.57,2.35,-2.35,-2.92,1.43,4.35,4.22,4.21
50.46,6.59,2.39,6.53,2.33,-2.33,-2.90,1.16,4.26,4.20,4.20
50.96,6.48,2.30,6.49,2.30,-2.30,-2.86,0.88,4.18,4.19,4.19
51.47,6.40,2.24,6.44,2.27,-2.27,-2.81,0.61,4.14,4.17,4.16
51.99,6.32,2.18,6.38,2.23,-2.23,-2.74,0.34,4.09,4.15,4.14
52.51,6.22,2.09,6.33,2.19,-2.19,-2.66,0.08,4.04,4.14,4.14
53.03,6.12,1.99,6.26,2.14,-2.14,-2.57,-0.18,3.98,4.12,4.13
53.56,6.12,2.01,6.20,2.10,-2.10,-2.47,-0.44,4.03,4.11,4.11
54.10,6.11,2.02,6.15,2.06,-2.06,-2.37,-0.69,4.06,4.09,4.09
54.64,6.06,1.99,6.10,2.02,-2.02,-2.26,-0.94,4.04,4.08,4.08
55.18,6.02,1.96,6.06,1.99,-1.99,-2.15,-1.18,4.03,4.07,4.07
55.74,6.02,1.98,6.01,1.96,-1.96,-2.04,-1.41,4.06,4.05,4.05
56.29,6.02,1.99,5.97,1.94,-1.94,-1.93,-1.64,4.09,4.03,4.04
56.86,6.02,2.01,5.92,1.91,-1.91,-1.82,-1.85,4.12,4.02,4.01
57.42,5.94,1.96,5.87,1.87,-1.87,-1.71,-2.06,4.07,4.00,3.98
58.00,5.83,1.86,5.80,1.83,-1.83,-1.61,-2.25,4.00,3.97,3.97
58.58,5.74,1.79,5.73,1.79,-1.79,-1.50,-2.43,3.96,3.95,3.96
59.16,5.66,1.73,5.64,1.73,-1.73,-1.40,-2.60,3.93,3.92,3.93
59.76,5.57,1.67,5.54,1.66,-1.66,-1.31,-2.76,3.91,3.88,3.91
60.35,5.45,1.59,5.44,1.59,-1.59,-1.21,-2.91,3.87,3.85,3.86
60.96,5.32,1.50,5.32,1.51,-1.51,-1.12,-3.04,3.81,3.81,3.82
61.57,5.19,1.42,5.21,1.44,-1.44,-1.04,-3.15,3.76,3.77,3.78
62.18,5.06,1.33,5.09,1.36,-1.36,-0.96,-3.25,3.70,3.73,3.73
62.80,4.93,1.25,4.97,1.28,-1.28,-0.88,-3.33,3.65,3.68,3.68
63.43,4.81,1.18,4.84,1.20,-1.20,-0.80,-3.40,3.61,3.64,3.63
64.07,4.69,1.12,4.72,1.13,-1.13,-0.74,-3.46,3.56,3.59,3.58
64.71,4.55,1.03,4.59,1.06,-1.06,-0.67,-3.50,3.50,3.54,3.53
65.35,4.44,0.96,4.46,0.98,-0.98,-0.61,-3.52,3.46,3.48,3.48
66.01,4.36,0.93,4.34,0.91,-0.91,-0.55,-3.53,3.46,3.43,3.43
66.67,4.26,0.89,4.21,0.84,-0.84,-0.50,-3.53,3.43,3.38,3.37
67.33,4.15,0.83,4.09,0.77,-0.77,-0.45,-3.52,3.38,3.32,3.32
68.01,4.02,0.75,3.97,0.71,-0.71,-0.40,-3.50,3.32,3.27,3.27
68.69,3.86,0.65,3.86,0.64,-0.64,-0.36,-3.47,3.22,3.21,3.21
69.37,3.71,0.55,3.74,0.58,-0.58,-0.32,-3.43,3.13,3.15,3.16
70.07,3.56,0.47,3.62,0.52,-0.52,-0.28,-3.38,3.04,3.10,3.10
70.77,3.48,0.44,3.51,0.47,-0.47,-0.25,-3.32,3.01,3.04,3.05
71.48,3.38,0.40,3.39,0.42,-0.42,-0.22,-3.26,2.96,2.97,2.99
72.19,3.28,0.37,3.29,0.38,-0.38,-0.19,-3.19,2.91,2.91,2.91
72.91,3.19,0.34,3.19,0.34,-0.34,-0.17,-3.12,2.85,2.85,2.85
73.64,3.10,0.32,3.09,0.30,-0.30,-0.15,-3.04,2.80,2.79,2.79
74.38,2.99,0.27,3.00,0.27,-0.27,-0.13,-2.97,2.72,2.72,2.72
75.12,2.89,0.24,2.91,0.25,-0.25,-0.11,-2.89,2.64,2.66,2.65
75.87,2.81,0.22,2.83,0.24,-0.24,-0.10,-2.80,2.58,2.60,2.59
76.63,2.75,0.22,2.76,0.23,-0.23,-0.09,-2.72,2.52,2.54,2.53
77.40,2.69,0.22,2.70,0.22,-0.22,-0.08,-2.64,2.47,2.47,2.47
78.17,2.63,0.23,2.63,0.22,-0.22,-0.07,-2.56,2.42,2.41,2.40
78.95,2.57,0.21,2.56,0.21,-0.21,-0.06,-2.47,2.36,2.36,2.36
79.74,2.52,0.22,2.50,0.20,-0.20,-0.06,-2.39,2.32,2.30,2.30
80.54,2.44,0.20,2.43,0.19,-0.19,-0.06,-2.31,2.25,2.24,2.24
81.35,2.36,0.18,2.37,0.19,-0.19,-0.06,-2.23,2.17,2.18,2.18
82.16,2.31,0.19,2.32,0.19,-0.19,-0.06,-2.15,2.12,2.13,2.13
82.98,2.29,0.21,2.26,0.19,-0.19,-0.06,-2.07,2.11,2.07,2.08
83.81,2.21,0.20,2.20,0.18,-0.18,-0.07,-1.99,2.03,2.02,2.01
84.65,2.16,0.21,2.14,0.18,-0.18,-0.07,-1.92,1.98,1.96,1.96
85.50,2.08,0.17,2.08,0.18,-0.18,-0.08,-1.84,1.91,1.90,1.91
86.35,1.99,0.14,2.02,0.17,-0.17,-0.09,-1.77,1.82,1.84,1.85
87.22,1.94,0.15,1.96,0.18,-0.18,-0.10,-1.70,1.77,1.79,1.79
88.09,1.89,0.16,1.91,0.18,-0.18,-0.11,-1.63,1.71,1.73,1.73
88.97,1.88,0.21,1.86,0.19,-0.19,-0.12,-1.57,1.69,1.67,1.67
89.86,1.81,0.21,1.81,0.20,-0.20,-0.14,-1.50,1.61,1.61,1.61
90.76,1.74,0.20,1.76,0.21,-0.21,-0.15,-1.44,1.53,1.55,1.54
91.66,1.69,0.20,1.72,0.23,-0.23,-0.17,-1.38,1.46,1.49,1.49
92.58,1.63,0.21,1.67,0.24,-0.24,-0.18,-1.32,1.39,1.43,1.42
93.51,1.60,0.24,1.63,0.26,-0.26,-0.20,-1.26,1.34,1.37,1.36
94.44,1.60,0.29,1.59,0.28,-0.28,-0.22,-1.21,1.32,1.31,1.31
95.39,1.56,0.31,1.55,0.30,-0.30,-0.23,-1.15,1.27,1.25,1.25
96.34,1.50,0.31,1.50,0.31,-0.31,-0.25,-1.10,1.20,1.19,1.19
97.30,1.49,0.36,1.45,0.31,-0.31,-0.27,-1.05,1.18,1.13,1.13
98.28,1.45,0.38,1.39,0.32,-0.32,-0.29,-1.01,1.14,1.08,1.07
99.26,1.36,0.34,1.34,0.32,-0.32,-0.31,-0.96,1.04,1.02,1.02
100.25,1.32,0.36,1.29,0.33,-0.33,-0.33,-0.91,0.99,0.96,0.96
101.25,1.22,0.32,1.24,0.34,-0.34,-0.35,-0.87,0.89,0.90,0.90
102.27,1.18,0.34,1.19,0.34,-0.34,-0.37,-0.83,0.84,0.84,0.85
103.29,1.10,0.32,1.13,0.35,-0.35,-0.40,-0.79,0.76,0.79,0.78
104.32,1.02,0.29,1.07,0.35,-0.35,-0.42,-0.75,0.68,0.73,0.73
105.37,0.96,0.29,1.01,0.35,-0.35,-0.44,-0.71,0.62,0.67,0.67
106.42,0.93,0.32,0.96,0.35,-0.35,-0.46,-0.68,0.58,0.60,0.62
107.48,0.91,0.36,0.91,0.37,-0.37,-0.49,-0.65,0.55,0.54,0.55
108.56,0.88,0.40,0.86,0.38,-0.38,-0.51,-0.61,0.50,0.48,0.48
109.64,0.86,0.44,0.82,0.40,-0.40,-0.53,-0.58,0.46,0.42,0.42
110.74,0.82,0.47,0.78,0.42,-0.42,-0.56,-0.56,0.40,0.36,0.35
111.85,0.74,0.43,0.73,0.44,-0.44,-0.58,-0.53,0.30,0.30,0.31
112.97,0.67,0.44,0.70,0.46,-0.46,-0.61,-0.50,0.21,0.24,0.23
114.10,0.61,0.44,0.66,0.48,-0.48,-0.63,-0.48,0.13,0.18,0.17
115.24,0.61,0.49,0.62,0.50,-0.50,-0.65,-0.46,0.11,0.12,0.12
116.39,0.61,0.56,0.60,0.53,-0.53,-0.68,-0.44,0.08,0.07,0.05
117.55,0.61,0.61,0.57,0.56,-0.56,-0.70,-0.42,0.06,0.01,0.01
118.73,0.58,0.63,0.54,0.58,-0.58,-0.73,-0.40,0.00,-0.04,-0.05
119.92,0.46,0.55,0.52,0.61,-0.61,-0.75,-0.39,-0.14,-0.08,-0.08
121.12,0.43,0.57,0.50,0.63,-0.63,-0.77,-0.38,-0.20,-0.13,-0.14
122.33,0.44,0.62,0.48,0.65,-0.65,-0.80,-0.37,-0.21,-0.18,-0.18
123.55,0.45,0.66,0.46,0.68,-0.68,-0.82,-0.36,-0.23,-0.22,-0.21
124.79,0.45,0.71,0.44,0.70,-0.70,-0.85,-0.35,-0.25,-0.26,-0.25
126.03,0.46,0.76,0.43,0.73,-0.73,-0.87,-0.34,-0.26,-0.30,-0.30
127.29,0.47,0.80,0.41,0.75,-0.75,-0.90,-0.34,-0.28,-0.34,-0.33
128.57,0.46,0.84,0.40,0.77,-0.77,-0.92,-0.33,-0.31,-0.38,-0.38
129.85,0.40,0.82,0.38,0.80,-0.80,-0.94,-0.33,-0.39,-0.41,-0.42
131.15,0.36,0.82,0.37,0.82,-0.82,-0.97,-0.33,-0.46,-0.45,-0.45
132.46,0.31,0.80,0.36,0.85,-0.85,-0.99,-0.34,-0.54,-0.49,-0.49
133.79,0.29,0.82,0.35,0.88,-0.88,-1.01,-0.34,-0.58,-0.53,-0.53
135.12,0.30,0.88,0.33,0.90,-0.90,-1.04,-0.34,-0.59,-0.56,-0.57
136.48,0.30,0.90,0.32,0.92,-0.92,-1.06,-0.35,-0.61,-0.60,-0.60
137.84,0.30,0.95,0.30,0.94,-0.94,-1.08,-0.36,-0.63,-0.64,-0.64
139.22,0.30,0.99,0.28,0.96,-0.96,-1.11,-0.37,-0.65,-0.67,-0.69
140.61,0.31,1.04,0.26,0.98,-0.98,-1.13,-0.38,-0.66,-0.71,-0.73
142.02,0.27,1.02,0.25,1.00,-1.00,-1.15,-0.39,-0.73,-0.75,-0.75
143.44,0.23,1.02,0.24,1.04,-1.04,-1.17,-0.40,-0.80,-0.80,-0.79
144.87,0.21,1.05,0.23,1.07,-1.07,-1.20,-0.42,-0.86,-0.84,-0.84
146.32,0.21,1.10,0.22,1.11,-1.11,-1.22,-0.43,-0.90,-0.89,-0.89
147.78,0.21,1.14,0.20,1.15,-1.15,-1.24,-0.45,-0.94,-0.95,-0.92
149.26,0.20,1.18,0.18,1.19,-1.19,-1.26,-0.47,-0.99,-1.01,-0.98
150.75,0.15,1.21,0.16,1.24,-1.24,-1.28,-0.49,-1.08,-1.08,-1.06
152.26,0.12,1.25,0.14,1.29,-1.29,-1.30,-0.51,-1.16,-1.15,-1.13
153.78,0.11,1.32,0.11,1.34,-1.34,-1.32,-0.53,-1.23,-1.22,-1.20
155.32,0.11,1.40,0.10,1.39,-1.39,-1.34,-0.55,-1.28,-1.30,-1.29
156.88,0.11,1.48,0.08,1.46,-1.46,-1.36,-0.57,-1.35,-1.38,-1.37
158.44,0.04,1.50,0.07,1.53,-1.53,-1.38,-0.59,-1.48,-1.46,-1.46
160.03,0.01,1.56,0.06,1.59,-1.59,-1.40,-0.62,-1.58,-1.53,-1.55
161.63,0.01,1.64,0.04,1.65,-1.65,-1.42,-0.64,-1.63,-1.60,-1.63
163.24,0.00,1.70,0.02,1.70,-1.70,-1.44,-0.67,-1.69,-1.67,-1.69
164.88,0.00,1.75,0.00,1.74,-1.74,-1.46,-0.69,-1.73,-1.73,-1.75
166.53,0.00,1.81,-0.02,1.77,-1.77,-1.48,-0.72,-1.77,-1.79,-1.81
168.19,-0.01,1.84,-0.04,1.80,-1.80,-1.50,-0.75,-1.80,-1.83,-1.85
169.87,-0.02,1.88,-0.06,1.81,-1.81,-1.52,-0.78,-1.83,-1.87,-1.90
171.57,-0.02,1.90,-0.09,1.82,-1.82,-1.54,-0.81,-1.84,-1.90,-1.92
173.29,-0.05,1.89,-0.11,1.82,-1.82,-1.56,-0.84,-1.87,-1.93,-1.94
175.02,-0.12,1.83,-0.13,1.82,-1.82,-1.57,-0.87,-1.94,-1.95,-1.95
176.77,-0.17,1.80,-0.14,1.82,-1.82,-1.59,-0.90,-1.99,-1.97,-1.97
178.54,-0.23,1.75,-0.16,1.82,-1.82,-1.61,-0.94,-2.05,-1.98,-1.98
180.32,-0.24,1.74,-0.17,1.82,-1.82,-1.63,-0.97,-2.06,-1.99,-1.98
182.13,-0.23,1.75,-0.17,1.83,-1.83,-1.64,-1.01,-2.05,-2.00,-1.98
183.95,-0.22,1.78,-0.18,1.83,-1.83,-1.66,-1.04,-2.05,-2.01,-1.99
185.79,-0.21,1.79,-0.18,1.84,-1.84,-1.67,-1.08,-2.05,-2.02,-2.00
187.65,-0.20,1.83,-0.18,1.86,-1.86,-1.69,-1.11,-2.05,-2.04,-2.03
189.52,-0.18,1.86,-0.18,1.87,-1.87,-1.71,-1.15,-2.05,-2.05,-2.04
191.42,-0.17,1.90,-0.18,1.88,-1.88,-1.72,-1.19,-2.05,-2.07,-2.06
193.33,-0.15,1.94,-0.19,1.89,-1.89,-1.74,-1.23,-2.04,-2.09,-2.09
195.27,-0.14,1.97,-0.20,1.90,-1.90,-1.75,-1.27,-2.04,-2.11,-2.11
197.22,-0.14,1.99,-0.22,1.91,-1.91,-1.77,-1.31,-2.05,-2.13,-2.13
199.19,-0.19,1.98,-0.24,1.92,-1.92,-1.78,-1.35,-2.11,-2.15,-2.16
201.18,-0.21,1.98,-0.26,1.92,-1.92,-1.80,-1.39,-2.13,-2.18,-2.18
203.19,-0.26,1.94,-0.29,1.92,-1.92,-1.81,-1.43,-2.18,-2.20,-2.20
205.23,-0.32,1.91,-0.31,1.92,-1.92,-1.82,-1.47,-2.23,-2.23,-2.23
207.28,-0.38,1.86,-0.34,1.92,-1.92,-1.84,-1.51,-2.30,-2.25,-2.24
209.35,-0.45,1.82,-0.36,1.92,-1.92,-1.85,-1.55,-2.37,-2.27,-2.27
211.44,-0.50,1.81,-0.38,1.92,-1.92,-1.86,-1.59,-2.42,-2.30,-2.31
213.56,-0.50,1.81,-0.40,1.92,-1.92,-1.88,-1.62,-2.41,-2.31,-2.31
215.69,-0.42,1.91,-0.42,1.91,-1.91,-1.89,-1.66,-2.33,-2.33,-2.33
217.85,-0.42,1.93,-0.44,1.90,-1.90,-1.90,-1.70,-2.32,-2.34,-2.34
220.03,-0.42,1.94,-0.46,1.90,-1.90,-1.91,-1.74,-2.32,-2.36,-2.36
222.23,-0.42,1.97,-0.47,1.89,-1.89,-1.93,-1.77,-2.31,-2.37,-2.38
224.45,-0.42,1.96,-0.48,1.89,-1.89,-1.94,-1.81,-2.31,-2.37,-2.38
226.70,-0.42,1.96,-0.49,1.89,-1.89,-1.95,-1.84,-2.31,-2.37,-2.38
228.96,-0.42,1.96,-0.49,1.88,-1.88,-1.96,-1.87,-2.30,-2.37,-2.37
231.25,-0.49,1.88,-0.49,1.88,-1.88,-1.97,-1.90,-2.37,-2.37,-2.37
233.57,-0.53,1.83,-0.49,1.87,-1.87,-1.98,-1.92,-2.39,-2.36,-2.36
235.90,-0.59,1.76,-0.49,1.86,-1.86,-1.99,-1.95,-2.44,-2.35,-2.35
238.26,-0.57,1.77,-0.49,1.84,-1.84,-2.00,-1.97,-2.41,-2.33,-2.34
240.64,-0.55,1.77,-0.49,1.83,-1.83,-2.01,-1.99,-2.37,-2.31,-2.32
243.05,-0.54,1.76,-0.49,1.81,-1.81,-2.02,-2.01,-2.35,-2.30,-2.29
245.48,-0.52,1.76,-0.49,1.79,-1.79,-2.03,-2.02,-2.31,-2.28,-2.27
247.93,-0.41,1.84,-0.49,1.76,-1.76,-2.04,-2.03,-2.17,-2.25,-2.24
250.41,-0.47,1.76,-0.49,1.74,-1.74,-2.05,-2.04,-2.21,-2.23,-2.23
252.92,-0.46,1.74,-0.50,1.72,-1.72,-2.06,-2.04,-2.17,-2.21,-2.20
255.45,-0.45,1.73,-0.50,1.69,-1.69,-2.07,-2.05,-2.14,-2.19,-2.18
258.00,-0.44,1.72,-0.50,1.67,-1.67,-2.08,-2.05,-2.10,-2.17,-2.16
260.58,-0.43,1.72,-0.51,1.63,-1.63,-2.08,-2.04,-2.06,-2.14,-2.15
263.19,-0.50,1.62,-0.53,1.59,-1.59,-2.09,-2.04,-2.09,-2.12,-2.12
265.82,-0.61,1.49,-0.55,1.55,-1.55,-2.10,-2.03,-2.15,-2.10,-2.10
268.48,-0.64,1.44,-0.58,1.50,-1.50,-2.11,-2.02,-2.14,-2.07,-2.08
271.16,-0.64,1.41,-0.60,1.45,-1.45,-2.11,-2.01,-2.08,-2.05,-2.05
273.87,-0.65,1.39,-0.63,1.40,-1.40,-2.12,-1.99,-2.04,-2.03,-2.03
276.61,-0.65,1.35,-0.66,1.35,-1.35,-2.13,-1.98,-1.99,-2.00,-2.00
279.38,-0.65,1.33,-0.67,1.30,-1.30,-2.14,-1.96,-1.95,-1.98,-1.98
282.17,-0.71,1.24,-0.69,1.26,-1.26,-2.14,-1.94,-1.97,-1.95,-1.95
284.99,-0.74,1.18,-0.71,1.22,-1.22,-2.15,-1.92,-1.95,-1.92,-1.92
287.84,-0.73,1.18,-0.72,1.18,-1.18,-2.15,-1.90,-1.91,-1.90,-1.90
290.72,-0.72,1.15,-0.71,1.15,-1.15,-2.16,-1.88,-1.87,-1.87,-1.87
293.63,-0.71,1.14,-0.70,1.14,-1.14,-2.17,-1.86,-1.84,-1.84,-1.84
296.57,-0.70,1.11,-0.69,1.12,-1.12,-2.17,-1.83,-1.82,-1.81,-1.81
299.53,-0.68,1.11,-0.68,1.11,-1.11,-2.18,-1.81,-1.78,-1.78,-1.78
302.53,-0.67,1.10,-0.67,1.09,-1.09,-2.18,-1.79,-1.76,-1.76,-1.77
305.55,-0.66,1.07,-0.65,1.08,-1.08,-2.19,-1.77,-1.74,-1.73,-1.72
308.61,-0.65,1.06,-0.63,1.08,-1.08,-2.19,-1.74,-1.73,-1.71,-1.71
311.69,-0.65,1.03,-0.62,1.07,-1.07,-2.20,-1.72,-1.72,-1.69,-1.68
314.81,-0.58,1.08,-0.60,1.07,-1.07,-2.20,-1.70,-1.64,-1.67,-1.66
317.96,-0.54,1.10,-0.59,1.06,-1.06,-2.20,-1.68,-1.60,-1.65,-1.64
321.14,-0.54,1.10,-0.58,1.05,-1.05,-2.21,-1.66,-1.59,-1.63,-1.63
324.35,-0.54,1.08,-0.57,1.04,-1.04,-2.21,-1.64,-1.58,-1.61,-1.62
327.59,-0.54,1.06,-0.56,1.04,-1.04,-2.22,-1.62,-1.58,-1.60,-1.60
330.87,-0.54,1.06,-0.55,1.04,-1.04,-2.22,-1.61,-1.58,-1.59,-1.59
334.18,-0.54,1.04,-0.54,1.04,-1.04,-2.22,-1.59,-1.57,-1.58,-1.58
337.52,-0.55,1.02,-0.53,1.04,-1.04,-2.23,-1.58,-1.58,-1.57,-1.57
340.90,-0.55,1.01,-0.52,1.04,-1.04,-2.23,-1.56,-1.59,-1.56,-1.55
344.30,-0.55,1.00,-0.50,1.05,-1.05,-2.23,-1.55,-1.60,-1.55,-1.55
347.75,-0.52,1.03,-0.48,1.06,-1.06,-2.24,-1.54,-1.58,-1.55,-1.55
351.23,-0.47,1.07,-0.47,1.08,-1.08,-2.24,-1.53,-1.55,-1.54,-1.54
354.74,-0.44,1.11,-0.44,1.10,-1.10,-2.24,-1.52,-1.54,-1.54,-1.54
358.28,-0.42,1.12,-0.41,1.13,-1.13,-2.24,-1.51,-1.54,-1.54,-1.54
361.87,-0.36,1.18,-0.37,1.17,-1.17,-2.25,-1.51,-1.52,-1.54,-1.54
365.49,-0.33,1.20,-0.33,1.21,-1.21,-2.25,-1.50,-1.54,-1.54,-1.53
369.14,-0.32,1.22,-0.28,1.26,-1.26,-2.25,-1.50,-1.57,-1.54,-1.54
372.83,-0.24,1.31,-0.24,1.30,-1.30,-2.25,-1.50,-1.54,-1.54,-1.54
376.56,-0.18,1.37,-0.20,1.35,-1.35,-2.26,-1.49,-1.52,-1.54,-1.55
380.33,-0.11,1.43,-0.15,1.39,-1.39,-2.26,-1.49,-1.50,-1.55,-1.54
384.13,-0.09,1.45,-0.11,1.44,-1.44,-2.26,-1.49,-1.53,-1.55,-1.54
387.97,-0.08,1.47,-0.06,1.50,-1.50,-2.26,-1.50,-1.57,-1.55,-1.55
391.85,-0.01,1.56,-0.01,1.55,-1.55,-2.27,-1.50,-1.56,-1.56,-1.56
395.77,0.09,1.65,0.04,1.61,-1.61,-2.27,-1.50,-1.52,-1.57,-1.56
399.73,0.12,1.69,0.09,1.66,-1.66,-2.28,-1.51,-1.54,-1.57,-1.57
403.72,0.12,1.69,0.13,1.71,-1.71,-2.28,-1.51,-1.59,-1.58,-1.57
407.76,0.12,1.70,0.18,1.76,-1.76,-2.28,-1.52,-1.64,-1.58,-1.58
411.84,0.18,1.76,0.23,1.82,-1.82,-2.29,-1.52,-1.63,-1.59,-1.58
415.96,0.31,1.89,0.28,1.86,-1.86,-2.30,-1.53,-1.55,-1.59,-1.58
420.12,0.40,1.99,0.34,1.92,-1.92,-2.30,-1.53,-1.52,-1.59,-1.58
424.32,0.46,2.05,0.40,1.98,-1.98,-2.31,-1.54,-1.52,-1.58,-1.59
428.56,0.51,2.09,0.48,2.05,-2.05,-2.32,-1.55,-1.53,-1.57,-1.58
432.85,0.54,2.11,0.56,2.12,-2.12,-2.33,-1.55,-1.57,-1.55,-1.57
437.18,0.57,2.13,0.66,2.19,-2.19,-2.35,-1.56,-1.62,-1.53,-1.56
441.55,0.66,2.18,0.76,2.27,-2.27,-2.36,-1.56,-1.61,-1.51,-1.52
445.96,0.79,2.28,0.87,2.35,-2.35,-2.38,-1.57,-1.56,-1.48,-1.49
450.42,1.00,2.46,0.99,2.44,-2.44,-2.40,-1.57,-1.43,-1.44,-1.46
454.93,1.10,2.51,1.13,2.53,-2.53,-2.43,-1.57,-1.42,-1.40,-1.41
459.48,1.25,2.62,1.27,2.62,-2.62,-2.46,-1.57,-1.37,-1.36,-1.36
464.07,1.47,2.79,1.42,2.73,-2.73,-2.50,-1.57,-1.26,-1.31,-1.31
468.71,1.58,2.84,1.58,2.84,-2.84,-2.54,-1.57,-1.26,-1.26,-1.26
