frequency,raw,error,smoothed,error_smoothed,equalization,parametric_eq,fixed_band_eq,equalized_raw,equalized_smoothed,target
20.00,8.92,-1.46,8.92,-1.46,1.47,1.17,0.30,10.39,10.39,10.38
20.20,8.96,-1.41,8.96,-1.41,1.41,1.16,0.31,10.38,10.37,10.37
20.40,8.99,-1.37,9.00,-1.37,1.36,1.15,0.32,10.36,10.36,10.36
20.61,9.03,-1.32,9.03,-1.32,1.32,1.13,0.33,10.35,10.35,10.35
20.81,9.06,-1.27,9.06,-1.27,1.27,1.12,0.34,10.34,10.34,10.33
21.02,9.09,-1.23,9.09,-1.23,1.23,1.11,0.36,10.33,10.33,10.32
21.23,9.12,-1.19,9.12,-1.20,1.19,1.10,0.37,10.32,10.32,10.31
21.44,9.14,-1.18,9.15,-1.17,1.16,1.09,0.38,10.30,10.31,10.32
21.66,9.17,-1.13,9.17,-1.14,1.13,1.07,0.39,10.30,10.30,10.30
21.87,9.19,-1.11,9.20,-1.10,1.10,1.06,0.41,10.29,10.30,10.30
22.09,9.22,-1.06,9.22,-1.06,1.08,1.05,0.42,10.30,10.30,10.28
22.31,9.24,-1.03,9.23,-1.04,1.06,1.03,0.44,10.30,10.29,10.27
22.54,9.23,-1.03,9.24,-1.03,1.04,1.02,0.45,10.27,10.28,10.26
22.76,9.23,-1.03,9.24,-1.02,1.02,1.01,0.47,10.25,10.26,10.26
22.99,9.24,-1.01,9.24,-1.01,1.00,0.99,0.48,10.25,10.24,10.25
23.22,9.25,-0.99,9.25,-1.00,0.99,0.98,0.50,10.24,10.24,10.24
23.45,9.27,-0.98,9.27,-0.97,0.97,0.96,0.51,10.24,10.24,10.25
23.69,9.29,-0.95,9.30,-0.95,0.94,0.95,0.53,10.24,10.24,10.24
23.92,9.32,-0.91,9.32,-0.92,0.92,0.94,0.55,10.24,10.24,10.23
24.16,9.35,-0.89,9.35,-0.89,0.88,0.92,0.56,10.24,10.24,10.24
24.40,9.38,-0.86,9.39,-0.85,0.85,0.91,0.58,10.23,10.24,10.24
24.65,9.42,-0.81,9.42,-0.82,0.81,0.89,0.60,10.24,10.24,10.23
24.89,9.45,-0.78,9.45,-0.78,0.78,0.88,0.61,10.23,10.23,10.23
25.14,9.48,-0.74,9.48,-0.74,0.75,0.86,0.63,10.23,10.23,10.22
25.39,9.50,-0.72,9.51,-0.71,0.72,0.85,0.65,10.22,10.23,10.22
25.65,9.53,-0.69,9.53,-0.69,0.70,0.83,0.66,10.23,10.23,10.22
25.91,9.55,-0.67,9.55,-0.68,0.68,0.81,0.68,10.23,10.23,10.22
26.16,9.56,-0.67,9.57,-0.66,0.66,0.80,0.70,10.23,10.23,10.23
26.43,9.57,-0.65,9.57,-0.65,0.66,0.78,0.71,10.23,10.23,10.22
26.69,9.58,-0.64,9.58,-0.65,0.65,0.77,0.73,10.24,10.23,10.22
26.96,9.57,-0.65,9.57,-0.65,0.65,0.75,0.75,10.23,10.23,10.22
27.23,9.56,-0.66,9.57,-0.66,0.66,0.73,0.76,10.22,10.22,10.22
27.50,9.56,-0.66,9.56,-0.67,0.66,0.72,0.77,10.22,10.22,10.22
27.77,9.55,-0.68,9.56,-0.67,0.67,0.70,0.79,10.22,10.22,10.23
28.05,9.55,-0.67,9.55,-0.67,0.67,0.68,0.80,10.23,10.23,10.22
28.33,9.55,-0.68,9.55,-0.68,0.68,0.66,0.81,10.23,10.23,10.23
28.62,9.55,-0.68,9.55,-0.68,0.68,0.65,0.82,10.24,10.24,10.23
28.90,9.55,-0.69,9.55,-0.69,0.68,0.63,0.82,10.24,10.24,10.24
29.19,9.55,-0.69,9.55,-0.69,0.68,0.61,0.83,10.24,10.24,10.24
29.48,9.55,-0.68,9.55,-0.69,0.68,0.59,0.83,10.23,10.23,10.23
29.78,9.55,-0.68,9.55,-0.68,0.68,0.57,0.84,10.23,10.23,10.23
30.08,9.55,-0.68,9.55,-0.67,0.67,0.56,0.84,10.23,10.23,10.23
30.38,9.55,-0.66,9.55,-0.67,0.67,0.54,0.84,10.22,10.22,10.21
30.68,9.55,-0.66,9.55,-0.66,0.67,0.52,0.83,10.22,10.22,10.21
30.99,9.55,-0.66,9.55,-0.66,0.67,0.50,0.83,10.22,10.22,10.21
31.30,9.55,-0.66,9.55,-0.66,0.66,0.48,0.82,10.22,10.21,10.21
31.61,9.54,-0.66,9.54,-0.66,0.66,0.46,0.81,10.20,10.20,10.20
31.93,9.53,-0.65,9.54,-0.66,0.65,0.44,0.80,10.19,10.19,10.18
32.24,9.53,-0.66,9.53,-0.65,0.64,0.43,0.79,10.18,10.18,10.19
32.57,9.54,-0.63,9.54,-0.64,0.63,0.41,0.77,10.17,10.17,10.17
32.89,9.55,-0.62,9.55,-0.62,0.61,0.39,0.75,10.17,10.17,10.17
33.22,9.57,-0.59,9.57,-0.59,0.59,0.37,0.73,10.16,10.16,10.16
33.55,9.59,-0.57,9.59,-0.56,0.56,0.35,0.71,10.16,10.16,10.16
33.89,9.62,-0.53,9.62,-0.53,0.53,0.33,0.69,10.15,10.15,10.15
34.23,9.64,-0.49,9.65,-0.49,0.50,0.31,0.66,10.14,10.14,10.13
34.57,9.67,-0.46,9.68,-0.45,0.46,0.29,0.64,10.13,10.13,10.13
34.92,9.71,-0.40,9.71,-0.41,0.42,0.27,0.61,10.13,10.13,10.11
35.27,9.74,-0.39,9.74,-0.38,0.38,0.25,0.58,10.12,10.12,10.13
35.62,9.77,-0.33,9.77,-0.34,0.33,0.22,0.55,10.11,10.11,10.10
35.97,9.80,-0.30,9.80,-0.30,0.29,0.20,0.52,10.10,10.09,10.10
36.33,9.82,-0.26,9.83,-0.25,0.25,0.18,0.48,10.07,10.08,10.08
36.70,9.85,-0.21,9.85,-0.21,0.21,0.16,0.45,10.07,10.06,10.06
37.06,9.87,-0.17,9.87,-0.17,0.18,0.14,0.42,10.05,10.05,10.04
37.43,9.89,-0.13,9.89,-0.13,0.14,0.12,0.38,10.04,10.04,10.02
37.81,9.90,-0.11,9.90,-0.10,0.12,0.10,0.35,10.02,10.02,10.01
38.19,9.90,-0.08,9.90,-0.08,0.09,0.07,0.31,9.99,9.99,9.98
38.57,9.90,-0.06,9.90,-0.07,0.07,0.05,0.27,9.97,9.97,9.96
38.95,9.89,-0.06,9.89,-0.05,0.05,0.03,0.24,9.94,9.94,9.95
39.34,9.88,-0.04,9.89,-0.04,0.03,0.01,0.20,9.91,9.91,9.92
39.74,9.88,-0.01,9.88,-0.02,0.01,-0.02,0.16,9.89,9.89,9.89
40.14,9.88,0.01,9.88,0.01,-0.01,-0.04,0.12,9.87,9.87,9.87
40.54,9.88,0.03,9.88,0.03,-0.03,-0.06,0.08,9.85,9.85,9.85
40.94,9.88,0.06,9.88,0.05,-0.05,-0.09,0.04,9.83,9.83,9.82
41.35,9.88,0.07,9.88,0.07,-0.07,-0.11,0.01,9.81,9.81,9.81
41.76,9.88,0.10,9.88,0.10,-0.10,-0.13,-0.03,9.79,9.79,9.78
42.18,9.88,0.11,9.88,0.11,-0.12,-0.16,-0.07,9.76,9.76,9.77
42.60,9.88,0.14,9.88,0.14,-0.14,-0.18,-0.11,9.74,9.74,9.74
43.03,9.88,0.16,9.88,0.16,-0.17,-0.21,-0.15,9.72,9.72,9.72
43.46,9.88,0.20,9.88,0.19,-0.19,-0.23,-0.19,9.69,9.69,9.68
43.90,9.88,0.22,9.88,0.22,-0.22,-0.26,-0.23,9.67,9.67,9.66
44.33,9.88,0.25,9.88,0.25,-0.24,-0.28,-0.27,9.64,9.64,9.63
44.78,9.88,0.27,9.88,0.27,-0.27,-0.31,-0.31,9.61,9.61,9.61
45.23,9.88,0.29,9.88,0.30,-0.30,-0.33,-0.35,9.58,9.58,9.59
45.68,9.88,0.34,9.88,0.33,-0.33,-0.36,-0.39,9.55,9.55,9.54
46.13,9.88,0.37,9.88,0.37,-0.37,-0.39,-0.43,9.51,9.51,9.51
46.60,9.88,0.41,9.88,0.41,-0.40,-0.41,-0.47,9.48,9.48,9.47
47.06,9.88,0.44,9.88,0.44,-0.44,-0.44,-0.51,9.44,9.44,9.44
47.53,9.88,0.48,9.88,0.48,-0.49,-0.47,-0.55,9.40,9.39,9.40
48.01,9.88,0.53,9.88,0.53,-0.53,-0.50,-0.59,9.35,9.35,9.35
48.49,9.88,0.57,9.89,0.57,-0.58,-0.52,-0.63,9.30,9.31,9.31
48.97,9.89,0.63,9.89,0.63,-0.63,-0.55,-0.67,9.27,9.27,9.26
49.46,9.90,0.67,9.90,0.68,-0.67,-0.58,-0.71,9.23,9.23,9.23
49.96,9.90,0.73,9.90,0.72,-0.71,-0.61,-0.75,9.19,9.19,9.17
50.46,9.90,0.76,9.90,0.76,-0.75,-0.64,-0.79,9.15,9.15,9.14
50.96,9.89,0.79,9.89,0.80,-0.79,-0.67,-0.83,9.11,9.11,9.10
51.47,9.88,0.82,9.88,0.82,-0.81,-0.70,-0.87,9.07,9.07,9.06
51.99,9.86,0.85,9.86,0.84,-0.84,-0.73,-0.91,9.03,9.02,9.01
52.51,9.83,0.85,9.84,0.85,-0.86,-0.76,-0.95,8.98,8.98,8.98
53.03,9.81,0.86,9.81,0.87,-0.87,-0.79,-0.99,8.94,8.94,8.95
53.56,9.78,0.88,9.78,0.88,-0.88,-0.83,-1.03,8.90,8.90,8.90
54.10,9.75,0.90,9.75,0.89,-0.89,-0.86,-1.07,8.86,8.86,8.85
54.64,9.72,0.91,9.72,0.91,-0.90,-0.89,-1.11,8.82,8.82,8.81
55.18,9.68,0.91,9.69,0.92,-0.91,-0.93,-1.15,8.77,8.77,8.77
55.74,9.65,0.93,9.65,0.92,-0.92,-0.96,-1.19,8.73,8.73,8.72
56.29,9.62,0.92,9.62,0.93,-0.93,-0.99,-1.22,8.69,8.69,8.70
56.86,9.60,0.94,9.60,0.94,-0.94,-1.03,-1.26,8.66,8.66,8.66
57.42,9.57,0.96,9.58,0.96,-0.96,-1.07,-1.29,8.62,8.62,8.61
58.00,9.56,0.99,9.56,0.98,-0.98,-1.10,-1.33,8.59,8.58,8.57
58.58,9.54,1.00,9.54,1.00,-1.00,-1.14,-1.36,8.54,8.54,8.54
59.16,9.53,1.02,9.54,1.03,-1.04,-1.18,-1.40,8.49,8.49,8.51
59.76,9.53,1.07,9.53,1.07,-1.09,-1.21,-1.43,8.45,8.45,8.46
60.35,9.53,1.12,9.54,1.12,-1.14,-1.25,-1.46,8.40,8.40,8.41
60.96,9.54,1.19,9.54,1.19,-1.19,-1.29,-1.49,8.35,8.35,8.35
61.57,9.55,1.26,9.55,1.26,-1.25,-1.33,-1.52,8.31,8.30,8.29
62.18,9.55,1.32,9.55,1.32,-1.31,-1.37,-1.54,8.25,8.25,8.23
62.80,9.55,1.38,9.55,1.38,-1.37,-1.41,-1.57,8.19,8.19,8.17
63.43,9.55,1.43,9.55,1.43,-1.42,-1.45,-1.60,8.13,8.13,8.12
64.07,9.55,1.48,9.55,1.48,-1.48,-1.50,-1.62,8.07,8.07,8.07
64.71,9.55,1.53,9.55,1.53,-1.54,-1.54,-1.64,8.02,8.02,8.02
65.35,9.55,1.59,9.55,1.58,-1.59,-1.58,-1.67,7.96,7.96,7.96
66.01,9.55,1.64,9.56,1.64,-1.65,-1.63,-1.69,7.91,7.91,7.91
66.67,9.56,1.69,9.56,1.70,-1.70,-1.67,-1.71,7.86,7.86,7.87
67.33,9.56,1.76,9.57,1.76,-1.76,-1.72,-1.73,7.81,7.81,7.80
68.01,9.57,1.82,9.57,1.81,-1.81,-1.76,-1.75,7.76,7.76,7.75
68.69,9.57,1.87,9.57,1.87,-1.87,-1.81,-1.77,7.70,7.70,7.70
69.37,9.57,1.92,9.58,1.93,-1.93,-1.85,-1.79,7.65,7.65,7.65
70.07,9.57,1.98,9.57,1.98,-1.98,-1.90,-1.81,7.59,7.59,7.59
70.77,9.56,2.04,9.56,2.03,-2.03,-1.95,-1.83,7.54,7.53,7.52
71.48,9.54,2.07,9.54,2.07,-2.07,-1.99,-1.85,7.47,7.47,7.47
72.19,9.52,2.11,9.52,2.11,-2.11,-2.04,-1.87,7.41,7.41,7.41
72.91,9.49,2.15,9.50,2.15,-2.15,-2.09,-1.89,7.35,7.35,7.34
73.64,9.47,2.18,9.47,2.18,-2.18,-2.14,-1.91,7.30,7.30,7.29
74.38,9.44,2.21,9.44,2.21,-2.20,-2.18,-1.93,7.24,7.24,7.23
75.12,9.41,2.23,9.41,2.23,-2.23,-2.23,-1.95,7.19,7.18,7.18
75.87,9.37,2.24,9.38,2.25,-2.25,-2.28,-1.97,7.13,7.13,7.13
76.63,9.34,2.27,9.34,2.27,-2.27,-2.32,-2.00,7.08,7.08,7.07
77.40,9.31,2.28,9.31,2.29,-2.29,-2.37,-2.02,7.03,7.03,7.03
78.17,9.29,2.32,9.29,2.31,-2.31,-2.41,-2.05,6.98,6.98,6.97
78.95,9.26,2.33,9.26,2.33,-2.33,-2.46,-2.08,6.93,6.93,6.93
79.74,9.24,2.36,9.24,2.36,-2.37,-2.50,-2.11,6.88,6.88,6.88
80.54,9.22,2.39,9.23,2.39,-2.41,-2.55,-2.14,6.82,6.82,6.83
81.35,9.22,2.45,9.22,2.44,-2.45,-2.59,-2.17,6.77,6.77,6.77
82.16,9.22,2.48,9.23,2.49,-2.50,-2.63,-2.21,6.72,6.72,6.74
82.98,9.23,2.55,9.23,2.55,-2.55,-2.67,-2.24,6.68,6.68,6.68
83.81,9.24,2.61,9.24,2.61,-2.61,-2.71,-2.28,6.64,6.63,6.63
84.65,9.24,2.67,9.24,2.67,-2.66,-2.74,-2.32,6.58,6.59,6.57
85.50,9.24,2.73,9.24,2.72,-2.71,-2.78,-2.36,6.53,6.53,6.51
86.35,9.23,2.77,9.23,2.77,-2.76,-2.82,-2.40,6.48,6.47,6.46
87.22,9.21,2.80,9.21,2.80,-2.80,-2.85,-2.45,6.41,6.41,6.41
88.09,9.18,2.83,9.19,2.83,-2.84,-2.88,-2.49,6.35,6.35,6.35
88.97,9.16,2.87,9.16,2.86,-2.87,-2.92,-2.54,6.30,6.29,6.29
89.86,9.13,2.89,9.13,2.89,-2.89,-2.95,-2.59,6.24,6.24,6.24
90.76,9.10,2.92,9.10,2.92,-2.92,-2.98,-2.64,6.19,6.19,6.18
91.66,9.07,2.96,9.07,2.95,-2.94,-3.01,-2.70,6.13,6.13,6.11
92.58,9.03,2.97,9.04,2.97,-2.97,-3.04,-2.76,6.06,6.06,6.06
93.51,9.00,2.99,9.00,2.99,-3.00,-3.07,-2.81,6.00,6.00,6.01
94.44,8.97,3.02,8.97,3.02,-3.04,-3.10,-2.87,5.93,5.94,5.95
95.39,8.95,3.07,8.95,3.07,-3.08,-3.13,-2.94,5.87,5.87,5.88
96.34,8.93,3.12,8.94,3.12,-3.12,-3.15,-3.00,5.81,5.81,5.81
97.30,8.92,3.17,8.92,3.17,-3.17,-3.18,-3.06,5.75,5.75,5.75
98.28,8.91,3.23,8.91,3.23,-3.22,-3.21,-3.13,5.69,5.69,5.68
99.26,8.90,3.28,8.91,3.28,-3.28,-3.24,-3.20,5.62,5.63,5.62
100.25,8.90,3.34,8.90,3.33,-3.33,-3.27,-3.27,5.57,5.57,5.56
101.25,8.89,3.38,8.89,3.38,-3.38,-3.30,-3.34,5.51,5.51,5.51
102.27,8.88,3.43,8.89,3.43,-3.43,-3.32,-3.41,5.46,5.46,5.45
103.29,8.87,3.48,8.87,3.47,-3.47,-3.35,-3.48,5.41,5.41,5.39
104.32,8.85,3.51,8.85,3.51,-3.50,-3.38,-3.55,5.35,5.35,5.34
105.37,8.82,3.54,8.82,3.54,-3.54,-3.41,-3.62,5.29,5.29,5.28
106.42,8.79,3.56,8.79,3.56,-3.57,-3.44,-3.69,5.23,5.23,5.23
107.48,8.76,3.59,8.76,3.59,-3.60,-3.47,-3.76,5.17,5.17,5.17
108.56,8.73,3.61,8.74,3.62,-3.62,-3.50,-3.83,5.11,5.11,5.12
109.64,8.71,3.65,8.71,3.65,-3.65,-3.53,-3.90,5.06,5.06,5.06
110.74,8.69,3.69,8.69,3.69,-3.68,-3.56,-3.96,5.01,5.01,5.00
111.85,8.66,3.72,8.67,3.72,-3.72,-3.59,-4.03,4.95,4.95,4.94
112.97,8.64,3.75,8.64,3.75,-3.75,-3.63,-4.09,4.90,4.89,4.89
114.10,8.60,3.77,8.61,3.78,-3.78,-3.66,-4.15,4.82,4.83,4.83
115.24,8.57,3.82,8.57,3.81,-3.81,-3.69,-4.20,4.76,4.76,4.75
116.39,8.54,3.85,8.54,3.85,-3.85,-3.72,-4.26,4.70,4.69,4.69
117.55,8.51,3.88,8.51,3.88,-3.88,-3.76,-4.31,4.63,4.63,4.63
118.73,8.48,3.91,8.49,3.91,-3.91,-3.79,-4.35,4.57,4.58,4.57
119.92,8.46,3.93,8.47,3.94,-3.94,-3.82,-4.39,4.52,4.53,4.53
121.12,8.45,3.97,8.45,3.97,-3.97,-3.86,-4.43,4.48,4.48,4.48
122.33,8.43,4.01,8.43,4.00,-4.00,-3.89,-4.46,4.43,4.43,4.42
123.55,8.40,4.03,8.41,4.03,-4.02,-3.93,-4.48,4.38,4.38,4.37
124.79,8.37,4.05,8.37,4.05,-4.05,-3.96,-4.50,4.33,4.33,4.32
126.03,8.33,4.07,8.33,4.07,-4.07,-3.99,-4.52,4.27,4.27,4.26
127.29,8.29,4.08,8.29,4.09,-4.08,-4.03,-4.53,4.21,4.21,4.21
128.57,8.25,4.11,8.25,4.10,-4.10,-4.06,-4.54,4.15,4.15,4.14
129.85,8.21,4.12,8.21,4.12,-4.12,-4.10,-4.54,4.09,4.09,4.09
131.15,8.17,4.14,8.17,4.14,-4.14,-4.13,-4.53,4.03,4.03,4.03
132.46,8.13,4.15,8.13,4.15,-4.17,-4.17,-4.53,3.97,3.97,3.98
133.79,8.10,4.18,8.11,4.18,-4.19,-4.20,-4.51,3.91,3.92,3.92
135.12,8.08,4.21,8.09,4.21,-4.22,-4.23,-4.50,3.86,3.87,3.87
136.48,8.07,4.25,8.07,4.25,-4.25,-4.27,-4.48,3.83,3.82,3.82
137.84,8.05,4.28,8.05,4.28,-4.27,-4.30,-4.46,3.78,3.78,3.77
139.22,8.02,4.31,8.03,4.31,-4.29,-4.33,-4.43,3.73,3.73,3.71
140.61,7.99,4.32,7.99,4.33,-4.31,-4.36,-4.41,3.68,3.68,3.67
142.02,7.96,4.35,7.96,4.34,-4.33,-4.40,-4.38,3.63,3.63,3.61
143.44,7.92,4.35,7.93,4.35,-4.35,-4.43,-4.35,3.57,3.57,3.57
144.87,7.89,4.36,7.89,4.36,-4.37,-4.46,-4.32,3.52,3.52,3.53
146.32,7.85,4.37,7.85,4.37,-4.39,-4.49,-4.29,3.47,3.47,3.48
147.78,7.82,4.38,7.83,4.39,-4.40,-4.52,-4.26,3.42,3.43,3.44
149.26,7.81,4.42,7.81,4.42,-4.42,-4.55,-4.23,3.39,3.39,3.39
150.75,7.80,4.45,7.80,4.44,-4.44,-4.57,-4.20,3.37,3.36,3.35
152.26,7.78,4.47,7.78,4.47,-4.45,-4.60,-4.17,3.33,3.33,3.31
153.78,7.74,4.47,7.75,4.47,-4.46,-4.63,-4.14,3.28,3.28,3.27
155.32,7.71,4.48,7.71,4.48,-4.47,-4.65,-4.12,3.24,3.23,3.23
156.88,7.66,4.48,7.67,4.48,-4.48,-4.68,-4.09,3.18,3.18,3.18
158.44,7.62,4.49,7.62,4.49,-4.49,-4.70,-4.07,3.13,3.13,3.13
160.03,7.58,4.49,7.58,4.49,-4.50,-4.73,-4.05,3.09,3.09,3.09
161.63,7.54,4.49,7.55,4.50,-4.50,-4.75,-4.03,3.04,3.04,3.05
163.24,7.51,4.51,7.51,4.51,-4.51,-4.77,-4.01,3.00,3.00,3.00
164.88,7.47,4.52,7.48,4.52,-4.52,-4.79,-4.00,2.95,2.95,2.95
166.53,7.44,4.54,7.44,4.53,-4.54,-4.81,-3.99,2.91,2.91,2.90
168.19,7.41,4.54,7.41,4.55,-4.55,-4.83,-3.98,2.86,2.86,2.87
169.87,7.37,4.56,7.38,4.56,-4.56,-4.84,-3.98,2.81,2.82,2.81
171.57,7.34,4.58,7.34,4.57,-4.57,-4.86,-3.98,2.78,2.78,2.76
173.29,7.30,4.58,7.30,4.58,-4.57,-4.87,-3.98,2.73,2.73,2.72
175.02,7.25,4.58,7.25,4.58,-4.57,-4.89,-3.98,2.68,2.68,2.67
176.77,7.19,4.57,7.20,4.57,-4.57,-4.90,-3.99,2.62,2.63,2.62
178.54,7.14,4.56,7.14,4.56,-4.57,-4.91,-4.00,2.58,2.57,2.58
180.32,7.08,4.56,7.09,4.55,-4.56,-4.92,-4.02,2.52,2.53,2.52
182.13,7.03,4.54,7.03,4.55,-4.55,-4.92,-4.03,2.48,2.48,2.49
183.95,6.98,4.54,6.98,4.54,-4.54,-4.93,-4.05,2.44,2.44,2.44
185.79,6.93,4.54,6.94,4.54,-4.53,-4.93,-4.08,2.40,2.41,2.39
187.65,6.89,4.54,6.89,4.53,-4.52,-4.94,-4.10,2.37,2.36,2.35
189.52,6.83,4.52,6.84,4.52,-4.52,-4.94,-4.13,2.31,2.31,2.31
191.42,6.78,4.51,6.79,4.51,-4.52,-4.94,-4.16,2.26,2.26,2.27
193.33,6.74,4.51,6.74,4.51,-4.53,-4.94,-4.20,2.21,2.21,2.23
195.27,6.70,4.52,6.71,4.52,-4.54,-4.94,-4.23,2.16,2.17,2.18
197.22,6.68,4.55,6.69,4.55,-4.55,-4.93,-4.27,2.13,2.13,2.13
199.19,6.67,4.57,6.67,4.57,-4.57,-4.93,-4.31,2.11,2.11,2.10
201.18,6.66,4.60,6.66,4.60,-4.58,-4.92,-4.35,2.08,2.08,2.06
203.19,6.65,4.62,6.65,4.61,-4.60,-4.91,-4.40,2.05,2.05,2.03
205.23,6.63,4.62,6.63,4.63,-4.62,-4.90,-4.44,2.01,2.01,2.01
207.28,6.61,4.63,6.61,4.63,-4.64,-4.89,-4.49,1.97,1.97,1.98
209.35,6.59,4.65,6.59,4.65,-4.65,-4.88,-4.54,1.94,1.94,1.94
211.44,6.57,4.66,6.58,4.66,-4.66,-4.86,-4.58,1.91,1.92,1.91
213.56,6.56,4.67,6.56,4.67,-4.66,-4.85,-4.63,1.90,1.89,1.89
215.69,6.53,4.67,6.53,4.67,-4.67,-4.83,-4.68,1.87,1.87,1.86
217.85,6.50,4.67,6.50,4.67,-4.67,-4.81,-4.72,1.83,1.83,1.83
220.03,6.47,4.67,6.47,4.67,-4.67,-4.79,-4.77,1.80,1.80,1.80
222.23,6.44,4.67,6.45,4.67,-4.67,-4.77,-4.81,1.77,1.78,1.77
224.45,6.42,4.66,6.42,4.66,-4.66,-4.75,-4.85,1.76,1.75,1.76
226.70,6.39,4.66,6.40,4.66,-4.66,-4.72,-4.89,1.73,1.74,1.73
228.96,6.37,4.65,6.37,4.65,-4.65,-4.70,-4.92,1.72,1.72,1.72
231.25,6.35,4.65,6.35,4.65,-4.65,-4.67,-4.95,1.70,1.70,1.70
233.57,6.33,4.65,6.33,4.65,-4.64,-4.64,-4.97,1.69,1.69,1.68
235.90,6.30,4.63,6.31,4.64,-4.64,-4.62,-4.99,1.66,1.66,1.67
238.26,6.28,4.64,6.28,4.63,-4.64,-4.59,-5.01,1.65,1.65,1.64
240.64,6.26,4.61,6.27,4.62,-4.63,-4.55,-5.02,1.63,1.64,1.65
243.05,6.25,4.62,6.25,4.62,-4.62,-4.52,-5.02,1.63,1.63,1.63
245.48,6.24,4.62,6.24,4.61,-4.61,-4.49,-5.02,1.64,1.63,1.62
247.93,6.22,4.61,6.22,4.60,-4.59,-4.45,-5.01,1.63,1.63,1.61
250.41,6.19,4.57,6.19,4.58,-4.57,-4.42,-4.99,1.63,1.63,1.62
252.92,6.15,4.54,6.15,4.54,-4.54,-4.38,-4.97,1.61,1.61,1.61
255.45,6.11,4.51,6.11,4.50,-4.51,-4.34,-4.94,1.61,1.60,1.60
258.00,6.06,4.46,6.07,4.46,-4.47,-4.30,-4.90,1.60,1.60,1.60
260.58,6.02,4.42,6.02,4.42,-4.42,-4.26,-4.86,1.60,1.60,1.60
263.19,5.98,4.38,5.98,4.38,-4.38,-4.22,-4.81,1.61,1.60,1.60
265.82,5.93,4.34,5.93,4.33,-4.33,-4.18,-4.76,1.60,1.60,1.59
268.48,5.87,4.28,5.88,4.28,-4.29,-4.14,-4.70,1.59,1.59,1.59
271.16,5.82,4.23,5.82,4.23,-4.24,-4.10,-4.64,1.58,1.58,1.59
273.87,5.77,4.18,5.77,4.18,-4.19,-4.05,-4.57,1.58,1.58,1.59
276.61,5.72,4.13,5.73,4.14,-4.14,-4.01,-4.49,1.58,1.58,1.59
279.38,5.68,4.11,5.68,4.10,-4.09,-3.97,-4.42,1.59,1.59,1.57
282.17,5.63,4.06,5.63,4.05,-4.04,-3.92,-4.34,1.59,1.59,1.57
284.99,5.58,4.00,5.58,4.00,-3.99,-3.87,-4.26,1.60,1.59,1.58
287.84,5.52,3.93,5.52,3.93,-3.93,-3.83,-4.17,1.59,1.59,1.59
290.72,5.45,3.87,5.46,3.87,-3.88,-3.78,-4.08,1.58,1.58,1.58
293.63,5.40,3.81,5.40,3.81,-3.82,-3.73,-4.00,1.58,1.58,1.59
296.57,5.35,3.75,5.35,3.75,-3.76,-3.68,-3.91,1.60,1.59,1.60
299.53,5.30,3.70,5.31,3.70,-3.70,-3.63,-3.82,1.61,1.61,1.60
302.53,5.26,3.64,5.26,3.64,-3.63,-3.59,-3.73,1.63,1.62,1.62
305.55,5.20,3.59,5.20,3.58,-3.58,-3.54,-3.64,1.63,1.63,1.61
308.61,5.14,3.52,5.14,3.52,-3.52,-3.49,-3.55,1.63,1.63,1.62
311.69,5.08,3.45,5.08,3.45,-3.46,-3.44,-3.46,1.62,1.62,1.63
314.81,5.02,3.39,5.03,3.39,-3.40,-3.38,-3.37,1.62,1.63,1.63
317.96,4.98,3.34,4.98,3.34,-3.34,-3.33,-3.28,1.64,1.64,1.64
321.14,4.94,3.29,4.94,3.29,-3.29,-3.28,-3.20,1.66,1.65,1.65
324.35,4.90,3.25,4.90,3.24,-3.23,-3.23,-3.11,1.67,1.66,1.65
327.59,4.85,3.17,4.85,3.18,-3.18,-3.18,-3.03,1.67,1.67,1.68
330.87,4.80,3.13,4.81,3.13,-3.13,-3.13,-2.95,1.67,1.67,1.67
334.18,4.76,3.08,4.76,3.08,-3.08,-3.07,-2.87,1.68,1.68,1.68
337.52,4.72,3.04,4.72,3.03,-3.03,-3.02,-2.79,1.69,1.69,1.68
340.90,4.68,2.98,4.68,2.98,-2.98,-2.97,-2.71,1.70,1.71,1.70
344.30,4.64,2.93,4.64,2.93,-2.92,-2.92,-2.64,1.72,1.72,1.71
347.75,4.59,2.88,4.59,2.87,-2.87,-2.86,-2.56,1.72,1.72,1.71
351.23,4.53,2.82,4.54,2.81,-2.81,-2.81,-2.49,1.72,1.72,1.71
354.74,4.48,2.74,4.48,2.75,-2.76,-2.76,-2.42,1.73,1.72,1.74
358.28,4.42,2.69,4.43,2.69,-2.70,-2.70,-2.36,1.72,1.73,1.73
361.87,4.38,2.64,4.38,2.64,-2.64,-2.65,-2.29,1.74,1.74,1.74
365.49,4.34,2.59,4.34,2.59,-2.59,-2.59,-2.23,1.76,1.76,1.75
369.14,4.30,2.53,4.30,2.53,-2.53,-2.54,-2.17,1.77,1.77,1.77
372.83,4.25,2.48,4.25,2.48,-2.47,-2.49,-2.11,1.78,1.78,1.77
376.56,4.20,2.43,4.20,2.42,-2.42,-2.43,-2.05,1.78,1.79,1.77
380.33,4.15,2.37,4.15,2.37,-2.36,-2.38,-1.99,1.79,1.79,1.78
384.13,4.10,2.30,4.10,2.31,-2.31,-2.33,-1.94,1.79,1.79,1.80
387.97,4.05,2.25,4.06,2.25,-2.26,-2.27,-1.89,1.80,1.80,1.80
391.85,4.01,2.20,4.02,2.20,-2.21,-2.22,-1.84,1.81,1.81,1.81
395.77,3.98,2.16,3.98,2.16,-2.16,-2.16,-1.79,1.82,1.82,1.82
399.73,3.95,2.12,3.95,2.11,-2.11,-2.11,-1.74,1.84,1.84,1.83
403.72,3.91,2.05,3.92,2.07,-2.07,-2.05,-1.69,1.85,1.85,1.86
407.76,3.88,2.03,3.88,2.02,-2.02,-2.00,-1.65,1.86,1.86,1.85
411.84,3.85,1.99,3.85,1.98,-1.98,-1.95,-1.60,1.88,1.87,1.86
415.96,3.81,1.93,3.82,1.94,-1.93,-1.89,-1.56,1.88,1.88,1.88
420.12,3.78,1.90,3.78,1.89,-1.89,-1.84,-1.52,1.90,1.89,1.88
424.32,3.73,1.84,3.74,1.84,-1.84,-1.78,-1.47,1.89,1.90,1.89
428.56,3.69,1.78,3.70,1.79,-1.79,-1.73,-1.43,1.90,1.90,1.91
432.85,3.65,1.73,3.66,1.74,-1.75,-1.67,-1.39,1.91,1.91,1.92
437.18,3.62,1.71,3.62,1.70,-1.70,-1.62,-1.36,1.92,1.92,1.91
441.55,3.58,1.66,3.58,1.66,-1.66,-1.56,-1.32,1.93,1.93,1.92
445.96,3.54,1.61,3.54,1.61,-1.61,-1.51,-1.28,1.93,1.94,1.93
450.42,3.50,1.56,3.51,1.56,-1.56,-1.45,-1.24,1.94,1.94,1.94
454.93,3.47,1.52,3.47,1.52,-1.52,-1.40,-1.21,1.96,1.96,1.95
459.48,3.43,1.47,3.44,1.47,-1.47,-1.34,-1.17,1.97,1.97,1.96
464.07,3.40,1.42,3.40,1.42,-1.41,-1.29,-1.13,1.99,1.98,1.98
468.71,3.35,1.36,3.35,1.36,-1.36,-1.23,-1.10,1.99,1.99,1.99
473.40,3.30,1.31,3.30,1.31,-1.31,-1.18,-1.06,1.99,2.00,1.99
478.13,3.25,1.25,3.25,1.25,-1.26,-1.12,-1.02,2.00,2.00,2.00
482.91,3.20,1.19,3.21,1.19,-1.20,-1.07,-0.99,2.00,2.00,2.01
487.74,3.16,1.14,3.16,1.14,-1.15,-1.01,-0.95,2.02,2.02,2.02
492.62,3.12,1.09,3.12,1.09,-1.09,-0.96,-0.91,2.04,2.04,2.03
497.55,3.08,1.04,3.08,1.04,-1.03,-0.90,-0.87,2.06,2.06,2.04
502.52,3.03,0.98,3.03,0.98,-0.96,-0.84,-0.83,2.07,2.07,2.05
507.55,2.97,0.90,2.97,0.90,-0.90,-0.79,-0.80,2.08,2.08,2.07
512.62,2.91,0.83,2.91,0.83,-0.83,-0.73,-0.76,2.08,2.08,2.08
517.75,2.85,0.75,2.86,0.75,-0.76,-0.68,-0.72,2.09,2.09,2.10
522.93,2.80,0.69,2.80,0.69,-0.70,-0.62,-0.68,2.11,2.10,2.11
528.16,2.74,0.62,2.75,0.62,-0.63,-0.56,-0.64,2.12,2.12,2.12
533.44,2.69,0.56,2.69,0.56,-0.56,-0.51,-0.60,2.14,2.14,2.13
