frequency,raw,error,smoothed,error_smoothed,equalization,parametric_eq,fixed_band_eq,equalized_raw,equalized_smoothed,target
20.00,8.92,-1.46,8.95,-1.43,1.43,1.02,0.31,10.36,10.39,10.38
20.20,8.96,-1.41,8.98,-1.40,1.40,1.03,0.32,10.36,10.37,10.37
20.40,8.99,-1.37,9.00,-1.36,1.36,1.04,0.33,10.35,10.36,10.36
20.61,9.03,-1.32,9.03,-1.32,1.32,1.05,0.34,10.35,10.35,10.35
20.81,9.06,-1.27,9.05,-1.28,1.28,1.06,0.35,10.35,10.34,10.33
21.02,9.09,-1.23,9.08,-1.25,1.25,1.07,0.36,10.34,10.33,10.32
21.23,9.12,-1.19,9.10,-1.22,1.22,1.07,0.37,10.34,10.32,10.31
21.44,9.14,-1.18,9.13,-1.18,1.18,1.08,0.39,10.33,10.31,10.32
21.66,9.17,-1.13,9.15,-1.15,1.15,1.08,0.40,10.32,10.30,10.30
21.87,9.19,-1.11,9.17,-1.12,1.12,1.09,0.41,10.31,10.29,10.30
22.09,9.22,-1.06,9.19,-1.09,1.09,1.09,0.43,10.31,10.28,10.28
22.31,9.24,-1.03,9.21,-1.06,1.06,1.09,0.44,10.31,10.28,10.27
22.54,9.23,-1.03,9.23,-1.04,1.04,1.09,0.45,10.27,10.27,10.26
22.76,9.23,-1.03,9.24,-1.02,1.02,1.08,0.47,10.25,10.26,10.26
22.99,9.24,-1.01,9.26,-1.00,1.00,1.08,0.48,10.24,10.26,10.25
23.22,9.25,-0.99,9.28,-0.98,0.98,1.08,0.50,10.23,10.25,10.24
23.45,9.27,-0.98,9.30,-0.95,0.95,1.07,0.52,10.22,10.25,10.25
23.69,9.29,-0.95,9.32,-0.93,0.93,1.06,0.53,10.22,10.24,10.24
23.92,9.32,-0.91,9.34,-0.90,0.90,1.05,0.55,10.22,10.24,10.23
24.16,9.35,-0.89,9.36,-0.87,0.87,1.04,0.56,10.22,10.24,10.24
24.40,9.38,-0.86,9.39,-0.84,0.84,1.03,0.58,10.23,10.23,10.24
24.65,9.42,-0.81,9.42,-0.81,0.81,1.02,0.60,10.24,10.23,10.23
24.89,9.45,-0.78,9.45,-0.78,0.78,1.01,0.61,10.24,10.23,10.23
25.14,9.48,-0.74,9.47,-0.76,0.76,0.99,0.63,10.24,10.23,10.22
25.39,9.50,-0.72,9.50,-0.73,0.73,0.98,0.65,10.23,10.23,10.22
25.65,9.53,-0.69,9.52,-0.71,0.71,0.96,0.67,10.24,10.23,10.22
25.91,9.55,-0.67,9.53,-0.69,0.69,0.94,0.68,10.24,10.22,10.22
26.16,9.56,-0.67,9.55,-0.67,0.67,0.93,0.70,10.24,10.22,10.23
26.43,9.57,-0.65,9.56,-0.67,0.67,0.91,0.71,10.24,10.22,10.22
26.69,9.58,-0.64,9.57,-0.66,0.66,0.89,0.73,10.24,10.22,10.22
26.96,9.57,-0.65,9.57,-0.66,0.66,0.87,0.74,10.23,10.23,10.22
27.23,9.56,-0.66,9.57,-0.66,0.66,0.84,0.76,10.22,10.23,10.22
27.50,9.56,-0.66,9.57,-0.66,0.66,0.82,0.77,10.22,10.23,10.22
27.77,9.55,-0.68,9.57,-0.66,0.66,0.80,0.78,10.22,10.23,10.23
28.05,9.55,-0.67,9.56,-0.67,0.67,0.78,0.79,10.22,10.23,10.22
28.33,9.55,-0.68,9.56,-0.67,0.67,0.75,0.80,10.22,10.23,10.23
28.62,9.55,-0.68,9.56,-0.67,0.67,0.73,0.81,10.23,10.23,10.23
28.90,9.55,-0.69,9.56,-0.68,0.68,0.71,0.82,10.23,10.23,10.24
29.19,9.55,-0.69,9.55,-0.68,0.68,0.68,0.82,10.23,10.23,10.24
29.48,9.55,-0.68,9.55,-0.68,0.68,0.66,0.83,10.23,10.23,10.23
29.78,9.55,-0.68,9.55,-0.68,0.68,0.63,0.83,10.23,10.23,10.23
30.08,9.55,-0.68,9.55,-0.68,0.68,0.61,0.83,10.23,10.23,10.23
30.38,9.55,-0.66,9.54,-0.68,0.68,0.58,0.83,10.23,10.22,10.21
30.68,9.55,-0.66,9.54,-0.68,0.68,0.56,0.82,10.23,10.22,10.21
30.99,9.55,-0.66,9.54,-0.67,0.67,0.53,0.82,10.23,10.21,10.21
31.30,9.55,-0.66,9.54,-0.67,0.67,0.50,0.81,10.22,10.21,10.21
31.61,9.54,-0.66,9.54,-0.66,0.66,0.48,0.80,10.20,10.20,10.20
31.93,9.53,-0.65,9.54,-0.65,0.65,0.45,0.79,10.18,10.19,10.18
32.24,9.53,-0.66,9.55,-0.64,0.64,0.43,0.77,10.17,10.19,10.19
32.57,9.54,-0.63,9.56,-0.62,0.62,0.40,0.76,10.16,10.18,10.17
32.89,9.55,-0.62,9.57,-0.60,0.60,0.38,0.74,10.16,10.17,10.17
33.22,9.57,-0.59,9.59,-0.58,0.58,0.35,0.72,10.15,10.17,10.16
33.55,9.59,-0.57,9.60,-0.56,0.56,0.33,0.70,10.15,10.16,10.16
33.89,9.62,-0.53,9.63,-0.53,0.53,0.30,0.68,10.15,10.15,10.15
34.23,9.64,-0.49,9.65,-0.49,0.49,0.28,0.65,10.14,10.14,10.13
34.57,9.67,-0.46,9.68,-0.46,0.46,0.25,0.62,10.13,10.14,10.13
34.92,9.71,-0.40,9.71,-0.42,0.42,0.23,0.60,10.13,10.13,10.11
35.27,9.74,-0.39,9.74,-0.37,0.37,0.20,0.57,10.12,10.12,10.13
35.62,9.77,-0.33,9.77,-0.33,0.33,0.18,0.54,10.11,10.10,10.10
35.97,9.80,-0.30,9.80,-0.29,0.29,0.15,0.51,10.10,10.09,10.10
36.33,9.82,-0.26,9.82,-0.26,0.26,0.13,0.47,10.08,10.08,10.08
36.70,9.85,-0.21,9.84,-0.22,0.22,0.10,0.44,10.07,10.06,10.06
37.06,9.87,-0.17,9.86,-0.19,0.19,0.08,0.41,10.06,10.04,10.04
37.43,9.89,-0.13,9.87,-0.15,0.15,0.06,0.37,10.05,10.03,10.02
37.81,9.90,-0.11,9.88,-0.12,0.12,0.03,0.34,10.03,10.01,10.01
38.19,9.90,-0.08,9.89,-0.10,0.10,0.01,0.30,10.00,9.99,9.98
38.57,9.90,-0.06,9.90,-0.07,0.07,-0.01,0.26,9.97,9.97,9.96
38.95,9.89,-0.06,9.90,-0.05,0.05,-0.04,0.23,9.94,9.95,9.95
39.34,9.88,-0.04,9.90,-0.02,0.02,-0.06,0.19,9.91,9.92,9.92
39.74,9.88,-0.01,9.90,-0.01,0.01,-0.09,0.15,9.89,9.90,9.89
40.14,9.88,0.01,9.89,0.02,-0.02,-0.11,0.11,9.87,9.88,9.87
40.54,9.88,0.03,9.89,0.04,-0.04,-0.13,0.08,9.85,9.86,9.85
40.94,9.88,0.06,9.89,0.05,-0.05,-0.16,0.04,9.83,9.83,9.82
41.35,9.88,0.07,9.88,0.07,-0.07,-0.18,-0.00,9.81,9.81,9.81
41.76,9.88,0.10,9.88,0.09,-0.09,-0.20,-0.04,9.79,9.79,9.78
42.18,9.88,0.11,9.88,0.12,-0.12,-0.22,-0.08,9.77,9.76,9.77
42.60,9.88,0.14,9.88,0.14,-0.14,-0.25,-0.12,9.74,9.74,9.74
43.03,9.88,0.16,9.88,0.16,-0.16,-0.27,-0.16,9.72,9.72,9.72
43.46,9.88,0.20,9.88,0.19,-0.19,-0.29,-0.19,9.69,9.69,9.68
43.90,9.88,0.22,9.88,0.22,-0.22,-0.32,-0.23,9.67,9.67,9.66
44.33,9.88,0.25,9.88,0.24,-0.24,-0.34,-0.27,9.64,9.64,9.63
44.78,9.88,0.27,9.88,0.27,-0.27,-0.36,-0.31,9.61,9.61,9.61
45.23,9.88,0.29,9.88,0.30,-0.30,-0.39,-0.35,9.58,9.58,9.59
45.68,9.88,0.34,9.88,0.34,-0.34,-0.41,-0.39,9.54,9.54,9.54
46.13,9.88,0.37,9.88,0.38,-0.38,-0.43,-0.43,9.51,9.51,9.51
46.60,9.88,0.41,9.89,0.41,-0.41,-0.45,-0.47,9.47,9.47,9.47
47.06,9.88,0.44,9.89,0.46,-0.46,-0.48,-0.51,9.43,9.43,9.44
47.53,9.88,0.48,9.89,0.50,-0.50,-0.50,-0.55,9.38,9.39,9.40
48.01,9.88,0.53,9.90,0.54,-0.54,-0.52,-0.59,9.34,9.35,9.35
48.49,9.88,0.57,9.90,0.58,-0.58,-0.55,-0.63,9.30,9.31,9.31
48.97,9.89,0.63,9.90,0.62,-0.62,-0.57,-0.68,9.27,9.27,9.26
49.46,9.90,0.67,9.90,0.67,-0.67,-0.59,-0.72,9.24,9.23,9.23
49.96,9.90,0.73,9.89,0.70,-0.70,-0.62,-0.76,9.20,9.19,9.17
50.46,9.90,0.76,9.89,0.74,-0.74,-0.64,-0.80,9.16,9.15,9.14
50.96,9.89,0.79,9.88,0.77,-0.77,-0.66,-0.84,9.12,9.10,9.10
51.47,9.88,0.82,9.86,0.80,-0.80,-0.69,-0.88,9.08,9.06,9.06
51.99,9.86,0.85,9.85,0.83,-0.83,-0.71,-0.92,9.04,9.02,9.01
52.51,9.83,0.85,9.83,0.85,-0.85,-0.74,-0.96,8.98,8.98,8.98
53.03,9.81,0.86,9.80,0.87,-0.87,-0.76,-1.00,8.95,8.94,8.95
53.56,9.78,0.88,9.78,0.88,-0.88,-0.79,-1.04,8.90,8.90,8.90
54.10,9.75,0.90,9.75,0.89,-0.89,-0.81,-1.08,8.86,8.86,8.85
54.64,9.72,0.91,9.72,0.90,-0.90,-0.83,-1.12,8.82,8.82,8.81
55.18,9.68,0.91,9.69,0.91,-0.91,-0.86,-1.16,8.78,8.78,8.77
55.74,9.65,0.93,9.66,0.92,-0.92,-0.88,-1.19,8.74,8.74,8.72
56.29,9.62,0.92,9.63,0.93,-0.93,-0.91,-1.23,8.69,8.70,8.70
56.86,9.60,0.94,9.61,0.95,-0.95,-0.94,-1.27,8.66,8.66,8.66
57.42,9.57,0.96,9.59,0.97,-0.97,-0.96,-1.30,8.61,8.62,8.61
58.00,9.56,0.99,9.57,0.99,-0.99,-0.99,-1.34,8.57,8.58,8.57
58.58,9.54,1.00,9.56,1.03,-1.03,-1.01,-1.37,8.52,8.53,8.54
59.16,9.53,1.02,9.55,1.06,-1.06,-1.04,-1.41,8.47,8.49,8.51
59.76,9.53,1.07,9.54,1.10,-1.10,-1.07,-1.44,8.43,8.44,8.46
60.35,9.53,1.12,9.54,1.14,-1.14,-1.09,-1.47,8.39,8.40,8.41
60.96,9.54,1.19,9.54,1.19,-1.19,-1.12,-1.50,8.35,8.35,8.35
61.57,9.55,1.26,9.54,1.24,-1.24,-1.15,-1.53,8.31,8.29,8.29
62.18,9.55,1.32,9.54,1.30,-1.30,-1.17,-1.56,8.26,8.24,8.23
62.80,9.55,1.38,9.54,1.35,-1.35,-1.20,-1.58,8.20,8.19,8.17
63.43,9.55,1.43,9.55,1.41,-1.41,-1.23,-1.61,8.14,8.14,8.12
64.07,9.55,1.48,9.55,1.47,-1.47,-1.26,-1.63,8.08,8.08,8.07
64.71,9.55,1.53,9.56,1.53,-1.53,-1.29,-1.66,8.02,8.03,8.02
65.35,9.55,1.59,9.56,1.59,-1.59,-1.32,-1.68,7.96,7.97,7.96
66.01,9.55,1.64,9.57,1.65,-1.65,-1.34,-1.70,7.90,7.92,7.91
66.67,9.56,1.69,9.57,1.71,-1.71,-1.37,-1.72,7.85,7.86,7.87
67.33,9.56,1.76,9.57,1.77,-1.77,-1.40,-1.74,7.80,7.81,7.80
68.01,9.57,1.82,9.57,1.82,-1.82,-1.43,-1.76,7.75,7.75,7.75
68.69,9.57,1.87,9.57,1.87,-1.87,-1.46,-1.78,7.70,7.70,7.70
69.37,9.57,1.92,9.56,1.92,-1.92,-1.49,-1.80,7.65,7.64,7.65
70.07,9.57,1.98,9.56,1.97,-1.97,-1.52,-1.82,7.60,7.58,7.59
70.77,9.56,2.04,9.54,2.02,-2.02,-1.56,-1.84,7.55,7.53,7.52
71.48,9.54,2.07,9.53,2.06,-2.06,-1.59,-1.86,7.48,7.47,7.47
72.19,9.52,2.11,9.51,2.10,-2.10,-1.62,-1.88,7.42,7.41,7.41
72.91,9.49,2.15,9.49,2.13,-2.13,-1.65,-1.90,7.36,7.36,7.34
73.64,9.47,2.18,9.46,2.17,-2.17,-1.68,-1.92,7.31,7.30,7.29
74.38,9.44,2.21,9.44,2.19,-2.19,-1.72,-1.94,7.25,7.24,7.23
75.12,9.41,2.23,9.41,2.22,-2.22,-1.75,-1.96,7.19,7.19,7.18
75.87,9.37,2.24,9.38,2.24,-2.24,-1.78,-1.98,7.13,7.13,7.13
76.63,9.34,2.27,9.35,2.27,-2.27,-1.82,-2.01,7.08,7.08,7.07
77.40,9.31,2.28,9.32,2.29,-2.29,-1.85,-2.03,7.02,7.03,7.03
78.17,9.29,2.32,9.30,2.32,-2.32,-1.88,-2.06,6.97,6.98,6.97
78.95,9.26,2.33,9.28,2.35,-2.35,-1.92,-2.09,6.91,6.93,6.93
79.74,9.24,2.36,9.27,2.39,-2.39,-1.95,-2.12,6.85,6.88,6.88
80.54,9.22,2.39,9.26,2.43,-2.43,-1.99,-2.15,6.80,6.83,6.83
81.35,9.22,2.45,9.25,2.47,-2.47,-2.02,-2.18,6.76,6.78,6.77
82.16,9.22,2.48,9.24,2.51,-2.51,-2.06,-2.21,6.71,6.73,6.74
82.98,9.23,2.55,9.23,2.56,-2.56,-2.10,-2.25,6.68,6.68,6.68
83.81,9.24,2.61,9.23,2.60,-2.60,-2.13,-2.28,6.64,6.63,6.63
84.65,9.24,2.67,9.22,2.65,-2.65,-2.17,-2.32,6.59,6.57,6.57
85.50,9.24,2.73,9.21,2.69,-2.69,-2.21,-2.36,6.55,6.52,6.51
86.35,9.23,2.77,9.20,2.74,-2.74,-2.24,-2.41,6.50,6.47,6.46
87.22,9.21,2.80,9.19,2.78,-2.78,-2.28,-2.45,6.44,6.41,6.41
88.09,9.18,2.83,9.17,2.82,-2.82,-2.32,-2.50,6.37,6.36,6.35
88.97,9.16,2.87,9.15,2.85,-2.85,-2.36,-2.55,6.31,6.30,6.29
89.86,9.13,2.89,9.13,2.89,-2.89,-2.40,-2.60,6.25,6.24,6.24
90.76,9.10,2.92,9.10,2.92,-2.92,-2.43,-2.65,6.18,6.18,6.18
91.66,9.07,2.96,9.07,2.95,-2.95,-2.47,-2.70,6.12,6.12,6.11
92.58,9.03,2.97,9.05,2.98,-2.98,-2.51,-2.76,6.05,6.06,6.06
93.51,9.00,2.99,9.02,3.02,-3.02,-2.55,-2.82,5.98,6.00,6.01
94.44,8.97,3.02,9.00,3.06,-3.06,-2.59,-2.88,5.92,5.94,5.95
95.39,8.95,3.07,8.97,3.10,-3.10,-2.63,-2.94,5.86,5.88,5.88
96.34,8.93,3.12,8.96,3.14,-3.14,-2.67,-3.00,5.79,5.82,5.81
97.30,8.92,3.17,8.94,3.18,-3.18,-2.71,-3.06,5.74,5.75,5.75
98.28,8.91,3.23,8.92,3.23,-3.23,-2.76,-3.13,5.68,5.69,5.68
99.26,8.90,3.28,8.91,3.27,-3.27,-2.80,-3.20,5.63,5.63,5.62
100.25,8.90,3.34,8.89,3.32,-3.32,-2.84,-3.26,5.58,5.57,5.56
101.25,8.89,3.38,8.88,3.36,-3.36,-2.88,-3.33,5.53,5.51,5.51
102.27,8.88,3.43,8.86,3.41,-3.41,-2.92,-3.40,5.47,5.46,5.45
103.29,8.87,3.48,8.85,3.45,-3.45,-2.96,-3.47,5.42,5.40,5.39
104.32,8.85,3.51,8.83,3.49,-3.49,-3.01,-3.54,5.36,5.34,5.34
105.37,8.82,3.54,8.82,3.53,-3.53,-3.05,-3.62,5.29,5.29,5.28
106.42,8.79,3.56,8.80,3.57,-3.57,-3.09,-3.69,5.23,5.23,5.23
107.48,8.76,3.59,8.77,3.60,-3.60,-3.13,-3.76,5.16,5.17,5.17
108.56,8.73,3.61,8.75,3.63,-3.63,-3.18,-3.82,5.10,5.11,5.12
109.64,8.71,3.65,8.72,3.66,-3.66,-3.22,-3.89,5.05,5.06,5.06
110.74,8.69,3.69,8.69,3.69,-3.69,-3.26,-3.96,5.00,5.00,5.00
111.85,8.66,3.72,8.66,3.72,-3.72,-3.30,-4.02,4.94,4.94,4.94
112.97,8.64,3.75,8.63,3.75,-3.75,-3.35,-4.08,4.89,4.88,4.89
114.10,8.60,3.77,8.61,3.78,-3.78,-3.39,-4.14,4.82,4.82,4.83
115.24,8.57,3.82,8.58,3.81,-3.81,-3.43,-4.20,4.76,4.76,4.75
116.39,8.54,3.85,8.55,3.85,-3.85,-3.47,-4.25,4.70,4.71,4.69
117.55,8.51,3.88,8.53,3.88,-3.88,-3.52,-4.30,4.63,4.65,4.63
118.73,8.48,3.91,8.50,3.91,-3.91,-3.56,-4.34,4.57,4.59,4.57
119.92,8.46,3.93,8.47,3.94,-3.94,-3.60,-4.38,4.52,4.54,4.53
121.12,8.45,3.97,8.44,3.97,-3.97,-3.65,-4.42,4.49,4.48,4.48
122.33,8.43,4.01,8.41,3.99,-3.99,-3.69,-4.45,4.44,4.42,4.42
123.55,8.40,4.03,8.38,4.01,-4.01,-3.73,-4.48,4.39,4.37,4.37
124.79,8.37,4.05,8.35,4.04,-4.04,-3.77,-4.50,4.34,4.31,4.32
126.03,8.33,4.07,8.32,4.06,-4.06,-3.81,-4.51,4.27,4.26,4.26
127.29,8.29,4.08,8.29,4.08,-4.08,-3.85,-4.52,4.21,4.20,4.21
128.57,8.25,4.11,8.26,4.11,-4.11,-3.90,-4.53,4.15,4.15,4.14
129.85,8.21,4.12,8.22,4.13,-4.13,-3.94,-4.53,4.08,4.09,4.09
131.15,8.17,4.14,8.19,4.15,-4.15,-3.98,-4.53,4.02,4.04,4.03
132.46,8.13,4.15,8.16,4.18,-4.18,-4.02,-4.52,3.96,3.98,3.98
133.79,8.10,4.18,8.13,4.20,-4.20,-4.06,-4.51,3.90,3.93,3.92
135.12,8.08,4.21,8.09,4.22,-4.22,-4.10,-4.49,3.86,3.87,3.87
136.48,8.07,4.25,8.06,4.24,-4.24,-4.13,-4.47,3.83,3.82,3.82
137.84,8.05,4.28,8.03,4.26,-4.26,-4.17,-4.45,3.79,3.77,3.77
139.22,8.02,4.31,8.00,4.29,-4.29,-4.21,-4.43,3.74,3.72,3.71
140.61,7.99,4.32,7.98,4.31,-4.31,-4.25,-4.40,3.68,3.67,3.67
142.02,7.96,4.35,7.95,4.33,-4.33,-4.28,-4.37,3.63,3.62,3.61
143.44,7.92,4.35,7.93,4.35,-4.35,-4.32,-4.34,3.57,3.58,3.57
144.87,7.89,4.36,7.90,4.37,-4.37,-4.35,-4.31,3.52,3.53,3.53
146.32,7.85,4.37,7.88,4.39,-4.39,-4.39,-4.28,3.46,3.49,3.48
147.78,7.82,4.38,7.85,4.41,-4.41,-4.42,-4.25,3.41,3.44,3.44
149.26,7.81,4.42,7.82,4.42,-4.42,-4.45,-4.22,3.39,3.40,3.39
150.75,7.80,4.45,7.79,4.43,-4.43,-4.49,-4.19,3.37,3.35,3.35
152.26,7.78,4.47,7.76,4.44,-4.44,-4.52,-4.16,3.34,3.31,3.31
153.78,7.74,4.47,7.72,4.46,-4.46,-4.55,-4.14,3.29,3.27,3.27
155.32,7.71,4.48,7.69,4.47,-4.47,-4.57,-4.11,3.25,3.23,3.23
156.88,7.66,4.48,7.66,4.48,-4.48,-4.60,-4.08,3.18,3.18,3.18
158.44,7.62,4.49,7.63,4.49,-4.49,-4.63,-4.06,3.13,3.14,3.13
160.03,7.58,4.49,7.60,4.50,-4.50,-4.65,-4.04,3.08,3.09,3.09
161.63,7.54,4.49,7.56,4.51,-4.51,-4.68,-4.02,3.03,3.05,3.05
163.24,7.51,4.51,7.53,4.53,-4.53,-4.70,-4.01,2.99,3.00,3.00
164.88,7.47,4.52,7.49,4.53,-4.53,-4.72,-3.99,2.94,2.96,2.95
166.53,7.44,4.54,7.45,4.54,-4.54,-4.75,-3.98,2.90,2.91,2.90
168.19,7.41,4.54,7.41,4.54,-4.54,-4.77,-3.98,2.87,2.86,2.87
169.87,7.37,4.56,7.37,4.55,-4.55,-4.78,-3.97,2.82,2.81,2.81
171.57,7.34,4.58,7.32,4.56,-4.56,-4.80,-3.97,2.79,2.77,2.76
173.29,7.30,4.58,7.28,4.56,-4.56,-4.82,-3.97,2.74,2.72,2.72
175.02,7.25,4.58,7.24,4.56,-4.56,-4.83,-3.98,2.69,2.67,2.67
176.77,7.19,4.57,7.19,4.56,-4.56,-4.84,-3.98,2.63,2.63,2.62
178.54,7.14,4.56,7.14,4.56,-4.56,-4.86,-3.99,2.59,2.58,2.58
180.32,7.08,4.56,7.09,4.55,-4.55,-4.87,-4.01,2.53,2.53,2.52
182.13,7.03,4.54,7.03,4.55,-4.55,-4.87,-4.03,2.49,2.49,2.49
183.95,6.98,4.54,6.98,4.54,-4.54,-4.88,-4.05,2.44,2.44,2.44
185.79,6.93,4.54,6.93,4.54,-4.54,-4.89,-4.07,2.40,2.40,2.39
187.65,6.89,4.54,6.89,4.53,-4.53,-4.89,-4.09,2.36,2.35,2.35
189.52,6.83,4.52,6.84,4.53,-4.53,-4.89,-4.12,2.30,2.31,2.31
191.42,6.78,4.51,6.80,4.54,-4.54,-4.90,-4.15,2.25,2.27,2.27
193.33,6.74,4.51,6.77,4.54,-4.54,-4.90,-4.19,2.20,2.23,2.23
195.27,6.70,4.52,6.73,4.55,-4.55,-4.89,-4.22,2.15,2.19,2.18
197.22,6.68,4.55,6.71,4.56,-4.56,-4.89,-4.26,2.12,2.15,2.13
199.19,6.67,4.57,6.68,4.57,-4.57,-4.88,-4.30,2.10,2.11,2.10
201.18,6.66,4.60,6.66,4.59,-4.59,-4.88,-4.35,2.08,2.07,2.06
203.19,6.65,4.62,6.64,4.60,-4.60,-4.87,-4.39,2.05,2.04,2.03
205.23,6.63,4.62,6.62,4.61,-4.61,-4.86,-4.44,2.02,2.01,2.01
207.28,6.61,4.63,6.60,4.63,-4.63,-4.85,-4.48,1.99,1.97,1.98
209.35,6.59,4.65,6.58,4.64,-4.64,-4.84,-4.53,1.95,1.94,1.94
211.44,6.57,4.66,6.56,4.65,-4.65,-4.82,-4.58,1.92,1.91,1.91
213.56,6.56,4.67,6.54,4.66,-4.66,-4.81,-4.62,1.90,1.88,1.89
215.69,6.53,4.67,6.52,4.67,-4.67,-4.79,-4.67,1.87,1.86,1.86
217.85,6.50,4.67,6.50,4.67,-4.67,-4.77,-4.71,1.83,1.83,1.83
220.03,6.47,4.67,6.48,4.67,-4.67,-4.75,-4.76,1.81,1.81,1.80
222.23,6.44,4.67,6.45,4.67,-4.67,-4.73,-4.80,1.78,1.78,1.77
224.45,6.42,4.66,6.43,4.67,-4.67,-4.71,-4.84,1.76,1.76,1.76
226.70,6.39,4.66,6.40,4.66,-4.66,-4.69,-4.88,1.73,1.74,1.73
228.96,6.37,4.65,6.38,4.66,-4.66,-4.66,-4.91,1.71,1.72,1.72
231.25,6.35,4.65,6.36,4.66,-4.66,-4.63,-4.94,1.69,1.70,1.70
233.57,6.33,4.65,6.34,4.65,-4.65,-4.61,-4.96,1.68,1.68,1.68
235.90,6.30,4.63,6.32,4.65,-4.65,-4.58,-4.98,1.66,1.67,1.67
238.26,6.28,4.64,6.30,4.64,-4.64,-4.55,-5.00,1.64,1.66,1.64
240.64,6.26,4.61,6.28,4.63,-4.63,-4.52,-5.01,1.63,1.65,1.65
243.05,6.25,4.62,6.25,4.62,-4.62,-4.48,-5.01,1.64,1.64,1.63
245.48,6.24,4.62,6.23,4.60,-4.60,-4.45,-5.01,1.64,1.63,1.62
247.93,6.22,4.61,6.20,4.58,-4.58,-4.42,-5.00,1.64,1.62,1.61
250.41,6.19,4.57,6.17,4.56,-4.56,-4.38,-4.98,1.64,1.62,1.62
252.92,6.15,4.54,6.14,4.53,-4.53,-4.34,-4.96,1.63,1.61,1.61
255.45,6.11,4.51,6.10,4.50,-4.50,-4.31,-4.93,1.62,1.61,1.60
258.00,6.06,4.46,6.06,4.46,-4.46,-4.27,-4.89,1.60,1.60,1.60
260.58,6.02,4.42,6.02,4.42,-4.42,-4.23,-4.85,1.60,1.60,1.60
263.19,5.98,4.38,5.98,4.39,-4.39,-4.19,-4.81,1.60,1.60,1.60
265.82,5.93,4.34,5.93,4.34,-4.34,-4.15,-4.75,1.59,1.59,1.59
268.48,5.87,4.28,5.89,4.29,-4.29,-4.11,-4.69,1.58,1.59,1.59
271.16,5.82,4.23,5.83,4.24,-4.24,-4.06,-4.63,1.58,1.59,1.59
273.87,5.77,4.18,5.78,4.19,-4.19,-4.02,-4.56,1.58,1.59,1.59
276.61,5.72,4.13,5.73,4.14,-4.14,-3.98,-4.49,1.58,1.59,1.59
279.38,5.68,4.11,5.68,4.09,-4.09,-3.93,-4.41,1.59,1.59,1.57
282.17,5.63,4.06,5.63,4.04,-4.04,-3.89,-4.33,1.59,1.59,1.57
284.99,5.58,4.00,5.57,3.98,-3.98,-3.84,-4.25,1.60,1.59,1.58
287.84,5.52,3.93,5.52,3.93,-3.93,-3.79,-4.16,1.59,1.59,1.59
290.72,5.45,3.87,5.46,3.87,-3.87,-3.75,-4.08,1.58,1.59,1.58
293.63,5.40,3.81,5.41,3.82,-3.82,-3.70,-3.99,1.59,1.59,1.59
296.57,5.35,3.75,5.36,3.76,-3.76,-3.65,-3.90,1.60,1.60,1.60
299.53,5.30,3.70,5.30,3.70,-3.70,-3.60,-3.81,1.60,1.60,1.60
302.53,5.26,3.64,5.25,3.64,-3.64,-3.56,-3.72,1.62,1.61,1.62
305.55,5.20,3.59,5.20,3.58,-3.58,-3.51,-3.63,1.62,1.62,1.61
308.61,5.14,3.52,5.14,3.52,-3.52,-3.46,-3.54,1.62,1.62,1.62
311.69,5.08,3.45,5.09,3.46,-3.46,-3.41,-3.45,1.62,1.63,1.63
314.81,5.02,3.39,5.04,3.40,-3.40,-3.36,-3.37,1.62,1.64,1.63
317.96,4.98,3.34,4.99,3.35,-3.35,-3.31,-3.28,1.63,1.64,1.64
321.14,4.94,3.29,4.95,3.30,-3.30,-3.26,-3.19,1.65,1.65,1.65
324.35,4.90,3.25,4.90,3.24,-3.24,-3.20,-3.11,1.66,1.66,1.65
327.59,4.85,3.17,4.85,3.19,-3.19,-3.15,-3.02,1.67,1.67,1.68
330.87,4.80,3.13,4.81,3.13,-3.13,-3.10,-2.94,1.67,1.67,1.67
334.18,4.76,3.08,4.76,3.08,-3.08,-3.05,-2.86,1.68,1.68,1.68
337.52,4.72,3.04,4.72,3.02,-3.02,-3.00,-2.78,1.70,1.69,1.68
340.90,4.68,2.98,4.67,2.97,-2.97,-2.95,-2.71,1.71,1.70,1.70
344.30,4.64,2.93,4.63,2.92,-2.92,-2.90,-2.63,1.72,1.71,1.71
347.75,4.59,2.88,4.58,2.87,-2.87,-2.84,-2.56,1.73,1.72,1.71
351.23,4.53,2.82,4.54,2.81,-2.81,-2.79,-2.49,1.72,1.72,1.71
354.74,4.48,2.74,4.49,2.76,-2.76,-2.74,-2.42,1.73,1.73,1.74
358.28,4.42,2.69,4.44,2.70,-2.70,-2.69,-2.35,1.72,1.74,1.73
361.87,4.38,2.64,4.39,2.64,-2.64,-2.63,-2.29,1.74,1.75,1.74
365.49,4.34,2.59,4.34,2.59,-2.59,-2.58,-2.23,1.76,1.75,1.75
369.14,4.30,2.53,4.29,2.53,-2.53,-2.53,-2.16,1.77,1.76,1.77
372.83,4.25,2.48,4.24,2.47,-2.47,-2.48,-2.11,1.78,1.77,1.77
376.56,4.20,2.43,4.20,2.42,-2.42,-2.42,-2.05,1.79,1.78,1.77
380.33,4.15,2.37,4.15,2.36,-2.36,-2.37,-1.99,1.79,1.79,1.78
384.13,4.10,2.30,4.11,2.31,-2.31,-2.32,-1.94,1.79,1.80,1.80
387.97,4.05,2.25,4.07,2.26,-2.26,-2.26,-1.88,1.79,1.81,1.80
391.85,4.01,2.20,4.03,2.21,-2.21,-2.21,-1.83,1.80,1.82,1.81
395.77,3.98,2.16,3.99,2.16,-2.16,-2.16,-1.78,1.82,1.83,1.82
399.73,3.95,2.12,3.95,2.12,-2.12,-2.10,-1.74,1.84,1.84,1.83
403.72,3.91,2.05,3.91,2.07,-2.07,-2.05,-1.69,1.85,1.85,1.86
407.76,3.88,2.03,3.88,2.02,-2.02,-2.00,-1.64,1.86,1.86,1.85
411.84,3.85,1.99,3.84,1.97,-1.97,-1.94,-1.60,1.88,1.87,1.86
415.96,3.81,1.93,3.80,1.93,-1.93,-1.89,-1.56,1.89,1.88,1.88
420.12,3.78,1.90,3.77,1.88,-1.88,-1.84,-1.51,1.90,1.89,1.88
424.32,3.73,1.84,3.73,1.84,-1.84,-1.78,-1.47,1.89,1.89,1.89
428.56,3.69,1.78,3.70,1.80,-1.80,-1.73,-1.43,1.90,1.90,1.91
432.85,3.65,1.73,3.66,1.75,-1.75,-1.68,-1.39,1.90,1.91,1.92
437.18,3.62,1.71,3.63,1.70,-1.70,-1.62,-1.35,1.92,1.92,1.91
441.55,3.58,1.66,3.59,1.66,-1.66,-1.57,-1.32,1.93,1.93,1.92
445.96,3.54,1.61,3.55,1.61,-1.61,-1.52,-1.28,1.93,1.94,1.93
450.42,3.50,1.56,3.51,1.56,-1.56,-1.46,-1.24,1.94,1.95,1.94
454.93,3.47,1.52,3.47,1.51,-1.51,-1.41,-1.20,1.96,1.96,1.95
459.48,3.43,1.47,3.43,1.46,-1.46,-1.35,-1.17,1.97,1.97,1.96
464.07,3.40,1.42,3.39,1.41,-1.41,-1.30,-1.13,1.99,1.97,1.98
468.71,3.35,1.36,3.35,1.36,-1.36,-1.25,-1.09,1.99,1.98,1.99
473.40,3.30,1.31,3.31,1.31,-1.31,-1.19,-1.06,1.99,1.99,1.99
478.13,3.25,1.25,3.26,1.26,-1.26,-1.14,-1.02,2.00,2.00,2.00
482.91,3.20,1.19,3.22,1.20,-1.20,-1.08,-0.98,2.00,2.01,2.01
487.74,3.16,1.14,3.17,1.14,-1.14,-1.03,-0.95,2.02,2.03,2.02
492.62,3.12,1.09,3.12,1.08,-1.08,-0.97,-0.91,2.04,2.04,2.03
497.55,3.08,1.04,3.07,1.02,-1.02,-0.92,-0.87,2.06,2.05,2.04
502.52,3.03,0.98,3.02,0.96,-0.96,-0.86,-0.83,2.07,2.06,2.05
507.55,2.97,0.90,2.97,0.89,-0.89,-0.81,-0.80,2.08,2.07,2.07
512.62,2.91,0.83,2.91,0.83,-0.83,-0.75,-0.76,2.08,2.08,2.08
517.75,2.85,0.75,2.86,0.76,-0.76,-0.70,-0.72,2.09,2.10,2.10
522.93,2.80,0.69,2.81,0.70,-0.70,-0.64,-0.68,2.11,2.11,2.11
528.16,2.74,0.62,2.75,0.63,-0.63,-0.58,-0.64,2.11,2.12,2.12
533.44,2.69,0.56,2.70,0.56,-0.56,-0.53,-0.60,2.13,2.13,2.13
