frequency,raw,error,smoothed,error_smoothed,equalization,parametric_eq,fixed_band_eq,equalized_raw,equalized_smoothed,target
20.00,-1.14,-5.19,-1.07,-5.13,5.13,4.71,2.13,3.99,4.07,4.05
20.20,-1.09,-5.18,-1.05,-5.15,5.15,4.77,2.20,4.06,4.10,4.09
20.40,-1.05,-5.17,-1.04,-5.16,5.16,4.82,2.26,4.11,4.12,4.12
20.61,-1.00,-5.15,-1.02,-5.17,5.17,4.87,2.33,4.17,4.15,4.15
20.81,-0.95,-5.14,-1.00,-5.18,5.18,4.92,2.40,4.23,4.18,4.19
21.02,-0.91,-5.14,-0.99,-5.19,5.19,4.96,2.47,4.28,4.20,4.23
21.23,-0.91,-5.15,-0.97,-5.19,5.19,5.01,2.54,4.28,4.22,4.24
21.44,-0.91,-5.16,-0.95,-5.20,5.20,5.05,2.61,4.29,4.24,4.25
21.66,-0.91,-5.18,-0.94,-5.20,5.20,5.08,2.69,4.29,4.26,4.27
21.87,-0.91,-5.19,-0.92,-5.20,5.20,5.12,2.77,4.29,4.28,4.28
22.09,-0.91,-5.21,-0.90,-5.19,5.19,5.15,2.85,4.28,4.29,4.30
22.31,-0.91,-5.21,-0.88,-5.19,5.19,5.18,2.93,4.28,4.31,4.30
22.54,-0.91,-5.22,-0.87,-5.19,5.19,5.20,3.02,4.28,4.32,4.31
22.76,-0.91,-5.23,-0.85,-5.18,5.18,5.23,3.11,4.27,4.33,4.32
22.99,-0.91,-5.23,-0.84,-5.17,5.17,5.24,3.20,4.26,4.33,4.32
23.22,-0.86,-5.19,-0.82,-5.16,5.16,5.26,3.29,4.30,4.34,4.33
23.45,-0.80,-5.14,-0.80,-5.15,5.15,5.27,3.38,4.35,4.34,4.34
23.69,-0.75,-5.10,-0.78,-5.13,5.13,5.28,3.47,4.38,4.35,4.35
23.92,-0.70,-5.06,-0.77,-5.12,5.12,5.28,3.57,4.42,4.35,4.36
24.16,-0.68,-5.05,-0.75,-5.11,5.11,5.28,3.67,4.43,4.36,4.37
24.40,-0.68,-5.06,-0.73,-5.09,5.09,5.28,3.77,4.41,4.36,4.38
24.65,-0.68,-5.04,-0.71,-5.07,5.07,5.27,3.87,4.39,4.36,4.36
24.89,-0.68,-5.04,-0.69,-5.05,5.05,5.27,3.97,4.37,4.36,4.36
25.14,-0.68,-5.04,-0.66,-5.03,5.03,5.25,4.08,4.35,4.36,4.36
25.39,-0.68,-5.04,-0.64,-5.01,5.01,5.24,4.18,4.33,4.36,4.36
25.65,-0.68,-5.04,-0.62,-4.99,4.99,5.22,4.29,4.31,4.36,4.36
25.91,-0.68,-5.03,-0.60,-4.97,4.97,5.20,4.39,4.29,4.36,4.35
26.16,-0.64,-5.00,-0.59,-4.95,4.95,5.17,4.49,4.31,4.36,4.36
26.43,-0.59,-4.95,-0.57,-4.93,4.93,5.15,4.60,4.34,4.36,4.36
26.69,-0.53,-4.89,-0.55,-4.91,4.91,5.12,4.70,4.38,4.35,4.36
26.96,-0.47,-4.82,-0.53,-4.88,4.88,5.09,4.80,4.41,4.35,4.35
27.23,-0.46,-4.81,-0.52,-4.86,4.86,5.05,4.90,4.40,4.35,4.35
27.50,-0.46,-4.81,-0.50,-4.85,4.85,5.02,4.99,4.39,4.35,4.35
27.77,-0.46,-4.80,-0.49,-4.83,4.83,4.98,5.08,4.37,4.34,4.34
28.05,-0.46,-4.80,-0.48,-4.82,4.82,4.94,5.17,4.36,4.34,4.34
28.33,-0.46,-4.79,-0.47,-4.80,4.80,4.90,5.25,4.34,4.34,4.33
28.62,-0.46,-4.79,-0.45,-4.79,4.79,4.86,5.33,4.33,4.34,4.33
28.90,-0.46,-4.79,-0.44,-4.78,4.78,4.82,5.40,4.32,4.33,4.33
29.19,-0.46,-4.78,-0.43,-4.76,4.76,4.77,5.47,4.30,4.33,4.32
29.48,-0.46,-4.79,-0.42,-4.75,4.75,4.73,5.53,4.29,4.33,4.33
29.78,-0.46,-4.79,-0.41,-4.73,4.73,4.69,5.58,4.27,4.32,4.33
30.08,-0.45,-4.78,-0.40,-4.71,4.71,4.64,5.63,4.26,4.32,4.33
30.38,-0.40,-4.71,-0.38,-4.69,4.69,4.60,5.67,4.29,4.31,4.31
30.68,-0.35,-4.66,-0.35,-4.66,4.66,4.55,5.70,4.31,4.31,4.31
30.99,-0.30,-4.60,-0.33,-4.63,4.63,4.51,5.72,4.33,4.30,4.30
31.30,-0.28,-4.58,-0.31,-4.61,4.61,4.46,5.73,4.33,4.30,4.30
31.61,-0.26,-4.55,-0.29,-4.58,4.58,4.42,5.73,4.32,4.29,4.29
31.93,-0.24,-4.52,-0.27,-4.56,4.56,4.37,5.73,4.32,4.28,4.28
32.24,-0.23,-4.50,-0.25,-4.53,4.53,4.33,5.72,4.30,4.28,4.27
32.57,-0.23,-4.50,-0.24,-4.51,4.51,4.29,5.70,4.28,4.27,4.27
32.89,-0.23,-4.49,-0.23,-4.50,4.50,4.25,5.67,4.27,4.27,4.26
33.22,-0.23,-4.49,-0.22,-4.48,4.48,4.21,5.64,4.25,4.26,4.26
33.55,-0.23,-4.49,-0.22,-4.48,4.48,4.17,5.60,4.25,4.25,4.26
33.89,-0.23,-4.48,-0.23,-4.48,4.48,4.13,5.55,4.25,4.25,4.25
34.23,-0.23,-4.48,-0.24,-4.48,4.48,4.09,5.50,4.25,4.24,4.25
34.57,-0.23,-4.47,-0.24,-4.48,4.48,4.06,5.44,4.25,4.24,4.24
34.92,-0.23,-4.46,-0.24,-4.47,4.47,4.02,5.38,4.24,4.23,4.23
35.27,-0.23,-4.46,-0.23,-4.46,4.46,3.99,5.31,4.23,4.23,4.23
35.62,-0.23,-4.45,-0.22,-4.44,4.44,3.96,5.25,4.21,4.22,4.22
35.97,-0.23,-4.44,-0.20,-4.42,4.42,3.93,5.18,4.19,4.21,4.21
36.33,-0.23,-4.44,-0.18,-4.39,4.39,3.90,5.10,4.16,4.21,4.21
36.70,-0.23,-4.43,-0.16,-4.36,4.36,3.88,5.03,4.13,4.20,4.20
37.06,-0.22,-4.41,-0.14,-4.33,4.33,3.85,4.96,4.11,4.19,4.19
37.43,-0.13,-4.31,-0.12,-4.30,4.30,3.83,4.88,4.17,4.18,4.18
37.81,-0.04,-4.22,-0.10,-4.27,4.27,3.81,4.81,4.23,4.18,4.18
38.19,-0.00,-4.16,-0.07,-4.24,4.24,3.79,4.73,4.24,4.17,4.16
38.57,0.00,-4.16,-0.05,-4.21,4.21,3.78,4.66,4.21,4.16,4.16
38.95,0.00,-4.15,-0.03,-4.19,4.19,3.76,4.59,4.19,4.15,4.15
39.34,0.00,-4.14,-0.02,-4.16,4.16,3.75,4.52,4.16,4.15,4.14
39.74,0.00,-4.12,-0.00,-4.14,4.14,3.74,4.45,4.14,4.14,4.12
40.14,0.00,-4.12,0.01,-4.12,4.12,3.73,4.38,4.12,4.13,4.12
40.54,0.00,-4.12,0.01,-4.10,4.10,3.72,4.32,4.10,4.12,4.12
40.94,0.00,-4.11,0.02,-4.08,4.08,3.71,4.26,4.08,4.10,4.11
41.35,0.00,-4.09,0.01,-4.07,4.07,3.71,4.20,4.07,4.09,4.09
41.76,0.00,-4.08,0.01,-4.06,4.06,3.71,4.14,4.06,4.07,4.08
42.18,0.00,-4.06,0.00,-4.04,4.04,3.71,4.09,4.04,4.04,4.06
42.60,0.00,-4.03,0.00,-4.02,4.02,3.71,4.04,4.02,4.02,4.03
43.03,0.00,-4.01,-0.00,-3.99,3.99,3.71,3.99,3.99,3.99,4.01
43.46,0.00,-3.98,-0.00,-3.97,3.97,3.71,3.94,3.97,3.97,3.98
43.90,0.00,-3.94,-0.00,-3.94,3.94,3.72,3.90,3.94,3.94,3.94
44.33,0.00,-3.91,0.00,-3.91,3.91,3.72,3.86,3.91,3.91,3.91
44.78,0.00,-3.87,0.00,-3.88,3.88,3.73,3.82,3.88,3.88,3.87
45.23,0.00,-3.84,0.00,-3.85,3.85,3.73,3.79,3.85,3.85,3.84
45.68,0.00,-3.81,0.00,-3.83,3.83,3.74,3.76,3.83,3.83,3.81
46.13,0.00,-3.79,0.00,-3.80,3.80,3.75,3.73,3.80,3.80,3.79
46.60,0.00,-3.78,0.00,-3.78,3.78,3.75,3.71,3.78,3.78,3.78
47.06,0.00,-3.76,0.00,-3.76,3.76,3.76,3.68,3.76,3.76,3.76
47.53,0.00,-3.74,0.00,-3.75,3.75,3.76,3.66,3.75,3.75,3.74
48.01,0.00,-3.74,0.00,-3.74,3.74,3.77,3.65,3.74,3.74,3.74
48.49,0.00,-3.73,0.00,-3.73,3.73,3.77,3.63,3.73,3.73,3.73
48.97,0.00,-3.72,0.00,-3.73,3.73,3.77,3.62,3.73,3.73,3.72
49.46,0.00,-3.70,0.00,-3.72,3.72,3.77,3.61,3.72,3.72,3.70
49.96,0.00,-3.70,0.00,-3.71,3.71,3.77,3.60,3.71,3.71,3.70
50.46,0.00,-3.70,0.00,-3.71,3.71,3.76,3.59,3.71,3.71,3.70
50.96,0.00,-3.71,0.00,-3.70,3.70,3.75,3.59,3.70,3.70,3.71
51.47,0.00,-3.69,0.00,-3.68,3.68,3.74,3.59,3.68,3.68,3.69
51.99,0.00,-3.68,0.00,-3.66,3.66,3.73,3.59,3.66,3.66,3.68
52.51,0.00,-3.66,0.00,-3.64,3.64,3.71,3.58,3.64,3.64,3.66
53.03,0.00,-3.63,0.00,-3.61,3.61,3.69,3.58,3.61,3.61,3.63
53.56,0.00,-3.60,0.00,-3.58,3.58,3.66,3.58,3.58,3.58,3.60
54.10,0.00,-3.55,0.00,-3.54,3.54,3.63,3.58,3.54,3.54,3.55
54.64,0.00,-3.50,0.00,-3.50,3.50,3.60,3.58,3.50,3.50,3.50
55.18,0.00,-3.45,0.00,-3.45,3.45,3.57,3.58,3.45,3.45,3.45
55.74,0.00,-3.39,0.00,-3.39,3.39,3.53,3.58,3.39,3.40,3.39
56.29,0.00,-3.34,0.01,-3.33,3.33,3.49,3.58,3.33,3.34,3.34
56.86,0.00,-3.28,0.02,-3.26,3.26,3.45,3.58,3.26,3.28,3.28
57.42,0.00,-3.21,0.02,-3.20,3.20,3.40,3.57,3.20,3.21,3.21
58.00,0.00,-3.14,0.01,-3.14,3.14,3.36,3.56,3.14,3.15,3.14
58.58,0.00,-3.08,0.01,-3.08,3.08,3.31,3.55,3.08,3.08,3.08
59.16,0.00,-3.02,-0.01,-3.02,3.02,3.25,3.54,3.02,3.02,3.02
59.76,0.00,-2.96,-0.02,-2.97,2.97,3.20,3.53,2.97,2.95,2.96
60.35,0.00,-2.88,-0.04,-2.93,2.93,3.15,3.51,2.93,2.89,2.88
60.96,0.00,-2.83,-0.06,-2.88,2.88,3.09,3.49,2.88,2.82,2.83
61.57,0.00,-2.75,-0.08,-2.84,2.84,3.04,3.46,2.84,2.76,2.75
62.18,-0.04,-2.72,-0.10,-2.80,2.80,2.98,3.43,2.76,2.70,2.68
62.80,-0.19,-2.82,-0.13,-2.76,2.76,2.93,3.40,2.57,2.64,2.63
63.43,-0.23,-2.80,-0.15,-2.73,2.73,2.87,3.36,2.50,2.58,2.57
64.07,-0.23,-2.75,-0.16,-2.69,2.69,2.82,3.32,2.46,2.53,2.52
64.71,-0.23,-2.70,-0.18,-2.65,2.65,2.77,3.28,2.42,2.47,2.47
65.35,-0.23,-2.65,-0.20,-2.63,2.63,2.72,3.23,2.40,2.42,2.42
66.01,-0.23,-2.60,-0.22,-2.60,2.60,2.67,3.18,2.37,2.38,2.37
66.67,-0.23,-2.56,-0.24,-2.57,2.57,2.62,3.13,2.34,2.33,2.33
67.33,-0.23,-2.52,-0.25,-2.54,2.54,2.57,3.07,2.31,2.29,2.29
68.01,-0.23,-2.49,-0.25,-2.50,2.50,2.53,3.01,2.27,2.26,2.26
68.69,-0.23,-2.45,-0.25,-2.47,2.47,2.49,2.95,2.24,2.22,2.22
69.37,-0.23,-2.41,-0.25,-2.43,2.43,2.45,2.89,2.20,2.18,2.18
70.07,-0.23,-2.37,-0.25,-2.39,2.39,2.41,2.82,2.16,2.14,2.14
70.77,-0.23,-2.35,-0.25,-2.36,2.36,2.38,2.75,2.13,2.11,2.12
71.48,-0.34,-2.42,-0.27,-2.34,2.34,2.35,2.68,2.00,2.07,2.08
72.19,-0.41,-2.46,-0.29,-2.32,2.32,2.32,2.61,1.91,2.04,2.05
72.91,-0.25,-2.25,-0.31,-2.31,2.31,2.30,2.53,2.06,2.00,2.00
73.64,-0.23,-2.20,-0.34,-2.30,2.30,2.28,2.46,2.07,1.96,1.97
74.38,-0.29,-2.23,-0.37,-2.30,2.30,2.26,2.39,2.01,1.93,1.94
75.12,-0.41,-2.30,-0.41,-2.30,2.30,2.25,2.31,1.89,1.89,1.89
75.87,-0.45,-2.30,-0.44,-2.29,2.29,2.24,2.23,1.84,1.85,1.85
76.63,-0.46,-2.27,-0.47,-2.29,2.29,2.23,2.16,1.83,1.82,1.81
77.40,-0.48,-2.26,-0.50,-2.29,2.29,2.23,2.08,1.81,1.79,1.78
78.17,-0.55,-2.30,-0.53,-2.29,2.29,2.23,2.01,1.74,1.76,1.74
78.95,-0.67,-2.39,-0.57,-2.30,2.30,2.24,1.93,1.63,1.73,1.72
79.74,-0.68,-2.38,-0.61,-2.31,2.31,2.25,1.86,1.63,1.70,1.70
80.54,-0.68,-2.35,-0.65,-2.33,2.33,2.26,1.78,1.65,1.68,1.67
81.35,-0.68,-2.33,-0.70,-2.36,2.36,2.28,1.71,1.68,1.66,1.65
82.16,-0.68,-2.31,-0.73,-2.37,2.37,2.30,1.63,1.69,1.64,1.63
82.98,-0.68,-2.31,-0.76,-2.39,2.39,2.32,1.56,1.71,1.62,1.63
83.81,-0.68,-2.29,-0.79,-2.41,2.41,2.34,1.49,1.72,1.61,1.61
84.65,-0.83,-2.42,-0.83,-2.43,2.43,2.36,1.42,1.60,1.60,1.59
85.50,-0.91,-2.50,-0.86,-2.45,2.45,2.38,1.35,1.54,1.59,1.59
86.35,-0.91,-2.49,-0.87,-2.46,2.46,2.40,1.28,1.55,1.59,1.58
87.22,-0.91,-2.48,-0.88,-2.46,2.46,2.42,1.21,1.55,1.58,1.57
88.09,-0.91,-2.47,-0.88,-2.45,2.45,2.43,1.14,1.54,1.57,1.56
88.97,-0.91,-2.48,-0.89,-2.45,2.45,2.44,1.07,1.54,1.56,1.57
89.86,-0.91,-2.47,-0.90,-2.45,2.45,2.44,1.01,1.54,1.55,1.56
90.76,-0.91,-2.45,-0.89,-2.43,2.43,2.43,0.94,1.52,1.54,1.54
91.66,-0.91,-2.45,-0.88,-2.40,2.40,2.41,0.87,1.49,1.52,1.54
92.58,-0.91,-2.41,-0.86,-2.37,2.37,2.38,0.81,1.46,1.51,1.50
93.51,-0.81,-2.31,-0.83,-2.32,2.32,2.33,0.75,1.51,1.49,1.50
94.44,-0.70,-2.17,-0.79,-2.26,2.26,2.28,0.68,1.56,1.47,1.47
95.39,-0.68,-2.13,-0.75,-2.19,2.19,2.21,0.62,1.51,1.44,1.45
96.34,-0.68,-2.08,-0.71,-2.13,2.13,2.13,0.56,1.45,1.41,1.40
97.30,-0.68,-2.06,-0.66,-2.04,2.04,2.04,0.50,1.36,1.38,1.38
98.28,-0.68,-2.02,-0.61,-1.95,1.95,1.94,0.44,1.27,1.35,1.34
99.26,-0.62,-1.92,-0.55,-1.85,1.85,1.83,0.38,1.23,1.31,1.30
100.25,-0.46,-1.72,-0.49,-1.76,1.76,1.72,0.33,1.30,1.26,1.26
101.25,-0.46,-1.68,-0.43,-1.65,1.65,1.59,0.27,1.19,1.22,1.22
102.27,-0.43,-1.60,-0.37,-1.54,1.54,1.47,0.21,1.11,1.17,1.17
103.29,-0.31,-1.42,-0.32,-1.43,1.43,1.34,0.16,1.12,1.11,1.11
104.32,-0.23,-1.29,-0.27,-1.32,1.32,1.21,0.10,1.09,1.05,1.06
105.37,-0.17,-1.18,-0.20,-1.19,1.19,1.07,0.05,1.02,0.99,1.01
106.42,-0.04,-0.98,-0.13,-1.05,1.05,0.94,0.00,1.01,0.92,0.94
107.48,0.00,-0.86,-0.06,-0.91,0.91,0.81,-0.05,0.91,0.85,0.86
108.56,0.00,-0.77,0.00,-0.77,0.77,0.68,-0.10,0.77,0.77,0.77
109.64,0.00,-0.70,0.07,-0.63,0.63,0.55,-0.15,0.63,0.70,0.70
110.74,0.01,-0.61,0.13,-0.49,0.49,0.42,-0.20,0.50,0.61,0.62
111.85,0.20,-0.34,0.19,-0.35,0.35,0.30,-0.24,0.55,0.53,0.54
112.97,0.23,-0.21,0.25,-0.20,0.20,0.18,-0.28,0.43,0.45,0.44
114.10,0.27,-0.10,0.31,-0.06,0.06,0.06,-0.33,0.33,0.37,0.37
115.24,0.46,0.18,0.36,0.07,-0.07,-0.05,-0.37,0.39,0.29,0.28
116.39,0.46,0.26,0.40,0.19,-0.19,-0.16,-0.41,0.27,0.21,0.20
117.55,0.46,0.34,0.44,0.31,-0.31,-0.27,-0.44,0.15,0.14,0.12
118.73,0.46,0.41,0.49,0.42,-0.42,-0.37,-0.48,0.04,0.07,0.05
119.92,0.46,0.47,0.54,0.53,-0.53,-0.47,-0.51,-0.07,0.01,-0.01
121.12,0.68,0.75,0.59,0.64,-0.64,-0.57,-0.54,0.03,-0.05,-0.07
122.33,0.68,0.81,0.64,0.75,-0.75,-0.67,-0.57,-0.07,-0.11,-0.13
123.55,0.68,0.84,0.67,0.84,-0.84,-0.76,-0.60,-0.16,-0.16,-0.16
124.79,0.68,0.89,0.70,0.92,-0.92,-0.85,-0.62,-0.24,-0.21,-0.21
126.03,0.68,0.93,0.74,1.00,-1.00,-0.93,-0.65,-0.32,-0.26,-0.25
127.29,0.68,0.97,0.77,1.07,-1.07,-1.01,-0.67,-0.39,-0.30,-0.29
128.57,0.73,1.07,0.79,1.14,-1.14,-1.09,-0.69,-0.41,-0.34,-0.34
129.85,0.89,1.27,0.82,1.21,-1.21,-1.17,-0.71,-0.32,-0.39,-0.38
131.15,0.91,1.33,0.85,1.28,-1.28,-1.24,-0.72,-0.37,-0.43,-0.42
132.46,0.91,1.38,0.87,1.34,-1.34,-1.31,-0.74,-0.43,-0.47,-0.47
133.79,0.91,1.41,0.88,1.40,-1.40,-1.37,-0.75,-0.49,-0.51,-0.50
135.12,0.91,1.47,0.90,1.45,-1.45,-1.43,-0.76,-0.54,-0.55,-0.56
136.48,0.91,1.50,0.92,1.51,-1.51,-1.49,-0.77,-0.60,-0.60,-0.59
137.84,0.91,1.55,0.93,1.57,-1.57,-1.54,-0.78,-0.66,-0.64,-0.64
139.22,0.91,1.61,0.94,1.63,-1.63,-1.59,-0.78,-0.72,-0.69,-0.70
140.61,0.91,1.66,0.95,1.69,-1.69,-1.64,-0.79,-0.78,-0.73,-0.75
142.02,0.91,1.70,0.95,1.74,-1.74,-1.68,-0.79,-0.83,-0.78,-0.79
143.44,0.91,1.75,0.95,1.78,-1.78,-1.72,-0.80,-0.87,-0.84,-0.84
144.87,0.91,1.79,0.93,1.83,-1.83,-1.75,-0.80,-0.92,-0.90,-0.88
146.32,0.91,1.85,0.93,1.89,-1.89,-1.78,-0.81,-0.98,-0.96,-0.94
147.78,0.91,1.90,0.91,1.93,-1.93,-1.81,-0.81,-1.02,-1.03,-0.99
149.26,0.91,1.98,0.86,1.96,-1.96,-1.83,-0.81,-1.05,-1.10,-1.07
150.75,0.81,1.96,0.79,1.96,-1.96,-1.85,-0.81,-1.15,-1.17,-1.15
152.26,0.72,1.95,0.69,1.94,-1.94,-1.87,-0.82,-1.22,-1.25,-1.23
153.78,0.68,1.99,0.56,1.89,-1.89,-1.88,-0.82,-1.21,-1.33,-1.31
155.32,0.63,2.04,0.43,1.83,-1.83,-1.89,-0.82,-1.20,-1.41,-1.41
156.88,0.46,1.95,0.29,1.77,-1.77,-1.89,-0.83,-1.31,-1.49,-1.49
158.44,0.29,1.86,0.14,1.71,-1.71,-1.90,-0.83,-1.42,-1.56,-1.57
160.03,0.17,1.82,0.01,1.64,-1.64,-1.89,-0.83,-1.47,-1.63,-1.65
161.63,-0.10,1.62,-0.11,1.59,-1.59,-1.89,-0.84,-1.69,-1.70,-1.72
163.24,-0.42,1.36,-0.21,1.55,-1.55,-1.88,-0.84,-1.97,-1.76,-1.78
164.88,-0.65,1.18,-0.29,1.52,-1.52,-1.88,-0.85,-2.17,-1.81,-1.83
166.53,-0.68,1.19,-0.35,1.50,-1.50,-1.87,-0.85,-2.18,-1.85,-1.87
168.19,-0.68,1.23,-0.38,1.50,-1.50,-1.85,-0.86,-2.18,-1.88,-1.91
169.87,-0.63,1.30,-0.40,1.51,-1.51,-1.84,-0.87,-2.14,-1.91,-1.93
171.57,-0.38,1.56,-0.39,1.53,-1.53,-1.82,-0.87,-1.91,-1.93,-1.94
173.29,-0.26,1.69,-0.36,1.58,-1.58,-1.80,-0.88,-1.84,-1.94,-1.95
175.02,-0.23,1.71,-0.31,1.64,-1.64,-1.78,-0.89,-1.87,-1.95,-1.94
176.77,-0.04,1.91,-0.25,1.71,-1.71,-1.76,-0.90,-1.75,-1.95,-1.95
178.54,-0.00,1.95,-0.18,1.78,-1.78,-1.74,-0.91,-1.78,-1.96,-1.95
180.32,0.00,1.95,-0.10,1.86,-1.86,-1.72,-0.93,-1.86,-1.96,-1.95
182.13,0.00,1.94,-0.04,1.93,-1.93,-1.70,-0.94,-1.93,-1.97,-1.94
183.95,0.00,1.95,-0.01,1.97,-1.97,-1.67,-0.95,-1.97,-1.98,-1.95
185.79,0.00,1.97,-0.01,1.98,-1.98,-1.65,-0.97,-1.98,-1.99,-1.97
187.65,0.00,1.99,-0.03,1.98,-1.98,-1.63,-0.98,-1.98,-2.00,-1.99
189.52,-0.00,2.02,-0.05,1.96,-1.96,-1.60,-1.00,-1.96,-2.02,-2.02
191.42,-0.06,1.98,-0.10,1.94,-1.94,-1.58,-1.01,-2.00,-2.03,-2.04
193.33,-0.18,1.88,-0.14,1.91,-1.91,-1.55,-1.03,-2.09,-2.06,-2.06
195.27,-0.23,1.85,-0.18,1.90,-1.90,-1.53,-1.05,-2.12,-2.08,-2.08
197.22,-0.23,1.87,-0.24,1.86,-1.86,-1.51,-1.06,-2.09,-2.10,-2.10
199.19,-0.37,1.77,-0.29,1.83,-1.83,-1.48,-1.08,-2.20,-2.12,-2.14
201.18,-0.46,1.69,-0.34,1.81,-1.81,-1.46,-1.10,-2.27,-2.15,-2.15
203.19,-0.46,1.71,-0.39,1.78,-1.78,-1.44,-1.12,-2.24,-2.17,-2.17
205.23,-0.46,1.74,-0.45,1.74,-1.74,-1.41,-1.14,-2.20,-2.19,-2.20
207.28,-0.46,1.75,-0.51,1.71,-1.71,-1.39,-1.16,-2.17,-2.21,-2.21
209.35,-0.46,1.77,-0.57,1.67,-1.67,-1.37,-1.18,-2.13,-2.23,-2.23
211.44,-0.58,1.68,-0.63,1.62,-1.62,-1.35,-1.20,-2.20,-2.25,-2.26
213.56,-0.67,1.60,-0.69,1.58,-1.58,-1.33,-1.22,-2.25,-2.27,-2.27
215.69,-0.68,1.59,-0.76,1.53,-1.53,-1.31,-1.24,-2.21,-2.28,-2.27
217.85,-0.89,1.41,-0.83,1.47,-1.47,-1.29,-1.26,-2.36,-2.30,-2.30
220.03,-0.91,1.40,-0.90,1.42,-1.42,-1.27,-1.27,-2.33,-2.32,-2.31
222.23,-0.91,1.43,-0.97,1.36,-1.36,-1.25,-1.29,-2.27,-2.33,-2.34
224.45,-1.02,1.32,-1.03,1.31,-1.31,-1.23,-1.31,-2.33,-2.34,-2.34
226.70,-1.13,1.22,-1.09,1.26,-1.26,-1.22,-1.33,-2.39,-2.35,-2.35
228.96,-1.14,1.22,-1.15,1.21,-1.21,-1.20,-1.34,-2.35,-2.36,-2.36
231.25,-1.31,1.05,-1.22,1.15,-1.15,-1.18,-1.36,-2.46,-2.37,-2.36
233.57,-1.37,1.00,-1.27,1.10,-1.10,-1.17,-1.37,-2.47,-2.37,-2.37
235.90,-1.37,1.02,-1.32,1.06,-1.06,-1.15,-1.38,-2.43,-2.38,-2.39
238.26,-1.37,1.02,-1.36,1.02,-1.02,-1.14,-1.39,-2.39,-2.38,-2.39
240.64,-1.37,1.02,-1.40,0.98,-0.98,-1.12,-1.40,-2.35,-2.38,-2.39
243.05,-1.37,1.01,-1.43,0.95,-0.95,-1.11,-1.40,-2.32,-2.38,-2.38
245.48,-1.37,1.01,-1.47,0.91,-0.91,-1.10,-1.41,-2.28,-2.38,-2.38
247.93,-1.37,1.00,-1.50,0.88,-0.88,-1.08,-1.41,-2.25,-2.38,-2.37
250.41,-1.56,0.82,-1.52,0.86,-0.86,-1.07,-1.41,-2.42,-2.37,-2.38
252.92,-1.60,0.77,-1.53,0.83,-0.83,-1.06,-1.41,-2.43,-2.37,-2.37
255.45,-1.60,0.75,-1.55,0.81,-0.81,-1.05,-1.41,-2.41,-2.36,-2.35
258.00,-1.60,0.74,-1.56,0.79,-0.79,-1.04,-1.41,-2.39,-2.35,-2.34
260.58,-1.60,0.74,-1.57,0.77,-0.77,-1.03,-1.40,-2.37,-2.34,-2.34
263.19,-1.60,0.73,-1.59,0.74,-0.74,-1.02,-1.40,-2.34,-2.33,-2.33
265.82,-1.60,0.73,-1.60,0.71,-0.71,-1.01,-1.39,-2.31,-2.32,-2.33
268.48,-1.60,0.71,-1.61,0.69,-0.69,-1.00,-1.38,-2.29,-2.30,-2.31
271.16,-1.60,0.69,-1.62,0.67,-0.67,-0.99,-1.37,-2.27,-2.29,-2.29
273.87,-1.60,0.68,-1.63,0.64,-0.64,-0.98,-1.35,-2.24,-2.27,-2.28
276.61,-1.60,0.65,-1.63,0.62,-0.62,-0.97,-1.34,-2.22,-2.25,-2.25
279.38,-1.60,0.63,-1.62,0.61,-0.61,-0.97,-1.32,-2.21,-2.23,-2.23
282.17,-1.60,0.61,-1.61,0.59,-0.59,-0.96,-1.31,-2.19,-2.21,-2.21
284.99,-1.60,0.58,-1.61,0.57,-0.57,-0.95,-1.29,-2.17,-2.18,-2.18
287.84,-1.60,0.56,-1.59,0.56,-0.56,-0.94,-1.27,-2.16,-2.15,-2.16
290.72,-1.60,0.53,-1.59,0.54,-0.54,-0.94,-1.26,-2.14,-2.13,-2.13
293.63,-1.60,0.50,-1.58,0.52,-0.52,-0.93,-1.24,-2.12,-2.10,-2.10
296.57,-1.60,0.48,-1.56,0.52,-0.52,-0.93,-1.22,-2.12,-2.08,-2.08
299.53,-1.60,0.45,-1.54,0.52,-0.52,-0.92,-1.20,-2.12,-2.05,-2.05
302.53,-1.59,0.45,-1.51,0.53,-0.53,-0.91,-1.19,-2.12,-2.03,-2.04
305.55,-1.40,0.60,-1.47,0.54,-0.54,-0.91,-1.17,-1.94,-2.01,-2.00
308.61,-1.37,0.61,-1.44,0.55,-0.55,-0.90,-1.15,-1.92,-2.00,-1.98
311.69,-1.37,0.60,-1.41,0.57,-0.57,-0.90,-1.13,-1.94,-1.98,-1.97
314.81,-1.37,0.57,-1.37,0.59,-0.59,-0.90,-1.11,-1.96,-1.97,-1.94
317.96,-1.37,0.58,-1.33,0.63,-0.63,-0.89,-1.10,-2.00,-1.96,-1.95
321.14,-1.36,0.59,-1.29,0.66,-0.66,-0.89,-1.08,-2.02,-1.95,-1.95
324.35,-1.19,0.75,-1.25,0.69,-0.69,-0.88,-1.06,-1.88,-1.94,-1.94
327.59,-1.14,0.80,-1.21,0.72,-0.72,-0.88,-1.05,-1.86,-1.93,-1.94
330.87,-1.14,0.79,-1.17,0.75,-0.75,-0.88,-1.03,-1.89,-1.92,-1.93
334.18,-1.14,0.78,-1.12,0.79,-0.79,-0.87,-1.02,-1.93,-1.91,-1.92
337.52,-1.14,0.78,-1.08,0.82,-0.82,-0.87,-1.01,-1.96,-1.90,-1.92
340.90,-1.14,0.75,-1.05,0.84,-0.84,-0.87,-0.99,-1.98,-1.89,-1.89
344.30,-0.96,0.92,-1.00,0.87,-0.87,-0.86,-0.98,-1.83,-1.87,-1.88
347.75,-0.91,0.95,-0.95,0.90,-0.90,-0.86,-0.97,-1.81,-1.86,-1.86
351.23,-0.91,0.93,-0.90,0.94,-0.94,-0.86,-0.96,-1.85,-1.84,-1.84
354.74,-0.91,0.91,-0.86,0.96,-0.96,-0.85,-0.95,-1.87,-1.82,-1.82
358.28,-0.80,0.99,-0.82,0.97,-0.97,-0.85,-0.94,-1.77,-1.79,-1.79
361.87,-0.71,1.06,-0.78,0.99,-0.99,-0.85,-0.93,-1.70,-1.77,-1.77
365.49,-0.68,1.07,-0.73,1.02,-1.02,-0.85,-0.93,-1.70,-1.75,-1.75
369.14,-0.68,1.05,-0.67,1.06,-1.06,-0.84,-0.92,-1.74,-1.73,-1.73
372.83,-0.68,1.02,-0.61,1.09,-1.09,-0.84,-0.91,-1.77,-1.71,-1.70
376.56,-0.63,1.05,-0.57,1.12,-1.12,-0.84,-0.91,-1.75,-1.69,-1.68
380.33,-0.49,1.16,-0.53,1.14,-1.14,-0.84,-0.90,-1.63,-1.67,-1.65
384.13,-0.46,1.18,-0.49,1.16,-1.16,-0.84,-0.90,-1.62,-1.65,-1.64
387.97,-0.46,1.17,-0.44,1.19,-1.19,-0.83,-0.90,-1.65,-1.63,-1.63
391.85,-0.45,1.17,-0.39,1.23,-1.23,-0.83,-0.90,-1.68,-1.62,-1.62
395.77,-0.29,1.32,-0.35,1.26,-1.26,-0.83,-0.89,-1.55,-1.61,-1.61
399.73,-0.23,1.37,-0.31,1.29,-1.29,-0.83,-0.89,-1.52,-1.60,-1.60
403.72,-0.23,1.36,-0.27,1.32,-1.32,-0.83,-0.89,-1.55,-1.59,-1.59
407.76,-0.23,1.36,-0.22,1.37,-1.37,-0.82,-0.89,-1.60,-1.59,-1.59
411.84,-0.23,1.35,-0.17,1.42,-1.42,-0.82,-0.89,-1.65,-1.58,-1.58
415.96,-0.23,1.34,-0.12,1.45,-1.45,-0.82,-0.89,-1.68,-1.58,-1.57
420.12,-0.05,1.52,-0.08,1.49,-1.49,-0.82,-0.89,-1.54,-1.58,-1.57
424.32,-0.00,1.57,-0.04,1.53,-1.53,-0.82,-0.89,-1.53,-1.57,-1.57
428.56,0.00,1.57,0.01,1.58,-1.58,-0.82,-0.89,-1.58,-1.57,-1.57
432.85,0.00,1.57,0.07,1.63,-1.63,-0.81,-0.90,-1.63,-1.57,-1.57
437.18,0.11,1.67,0.13,1.69,-1.69,-0.81,-0.90,-1.58,-1.56,-1.56
441.55,0.20,1.76,0.18,1.74,-1.74,-0.81,-0.90,-1.54,-1.56,-1.56
445.96,0.23,1.79,0.25,1.80,-1.80,-0.81,-0.90,-1.57,-1.55,-1.56
450.42,0.23,1.78,0.30,1.84,-1.84,-0.81,-0.90,-1.61,-1.54,-1.55
454.93,0.23,1.77,0.35,1.88,-1.88,-0.81,-0.90,-1.65,-1.53,-1.54
459.48,0.28,1.81,0.38,1.90,-1.90,-0.81,-0.90,-1.62,-1.52,-1.53
464.07,0.43,1.94,0.38,1.89,-1.89,-0.80,-0.90,-1.46,-1.51,-1.51
468.71,0.46,1.95,0.36,1.85,-1.85,-0.80,-0.90,-1.39,-1.49,-1.49
473.40,0.46,1.94,0.31,1.78,-1.78,-0.80,-0.90,-1.32,-1.47,-1.48
478.13,0.46,1.91,0.24,1.69,-1.69,-0.80,-0.90,-1.23,-1.45,-1.45
482.91,0.28,1.71,0.15,1.58,-1.58,-0.80,-0.90,-1.30,-1.43,-1.43
487.74,0.18,1.58,0.03,1.44,-1.44,-0.80,-0.90,-1.26,-1.40,-1.40
