frequency,raw,error,smoothed,error_smoothed,equalization,parametric_eq,fixed_band_eq,equalized_raw,equalized_smoothed,target
20.00,-23.08,-27.19,-23.03,-27.17,27.17,22.43,11.95,4.09,4.13,4.11
20.20,-23.02,-27.16,-23.02,-27.17,27.17,23.08,12.14,4.16,4.16,4.14
20.40,-22.96,-27.14,-22.99,-27.16,27.16,23.73,12.32,4.20,4.18,4.17
20.61,-22.91,-27.10,-22.95,-27.14,27.14,24.36,12.51,4.24,4.19,4.19
20.81,-22.85,-27.08,-22.90,-27.11,27.11,24.96,12.71,4.26,4.21,4.22
21.02,-22.80,-27.05,-22.84,-27.07,27.07,25.50,12.91,4.27,4.23,4.25
21.23,-22.75,-27.00,-22.77,-27.01,27.01,25.95,13.11,4.26,4.24,4.26
21.44,-22.68,-26.95,-22.68,-26.94,26.94,26.30,13.32,4.25,4.25,4.27
21.66,-22.64,-26.91,-22.59,-26.85,26.85,26.52,13.53,4.22,4.26,4.28
21.87,-22.54,-26.82,-22.48,-26.76,26.76,26.61,13.75,4.21,4.27,4.28
22.09,-22.45,-26.74,-22.37,-26.65,26.65,26.57,13.98,4.19,4.28,4.29
22.31,-22.33,-26.62,-22.24,-26.53,26.53,26.42,14.21,4.19,4.29,4.29
22.54,-22.16,-26.44,-22.10,-26.38,26.38,26.18,14.45,4.23,4.29,4.29
22.76,-21.94,-26.23,-21.94,-26.23,26.23,25.88,14.69,4.28,4.29,4.29
22.99,-21.77,-26.04,-21.77,-26.06,26.06,25.54,14.94,4.29,4.28,4.27
23.22,-21.56,-25.83,-21.59,-25.88,25.88,25.18,15.20,4.32,4.28,4.27
23.45,-21.37,-25.65,-21.40,-25.68,25.68,24.82,15.47,4.31,4.28,4.27
23.69,-21.18,-25.45,-21.21,-25.49,25.49,24.47,15.75,4.31,4.28,4.27
23.92,-20.98,-25.25,-21.01,-25.28,25.28,24.13,16.03,4.30,4.28,4.27
24.16,-20.77,-25.05,-20.80,-25.08,25.08,23.81,16.32,4.30,4.27,4.28
24.40,-20.58,-24.86,-20.60,-24.87,24.87,23.51,16.63,4.29,4.27,4.28
24.65,-20.39,-24.66,-20.40,-24.67,24.67,23.24,16.94,4.28,4.27,4.27
24.89,-20.21,-24.48,-20.20,-24.47,24.47,22.99,17.27,4.26,4.27,4.27
25.14,-20.00,-24.27,-20.01,-24.27,24.27,22.77,17.61,4.27,4.27,4.27
25.39,-19.81,-24.08,-19.81,-24.08,24.08,22.57,17.96,4.27,4.26,4.27
25.65,-19.61,-23.87,-19.62,-23.88,23.88,22.40,18.33,4.27,4.26,4.26
25.91,-19.42,-23.67,-19.42,-23.68,23.68,22.25,18.71,4.26,4.26,4.25
26.16,-19.23,-23.48,-19.23,-23.49,23.49,22.12,19.11,4.25,4.26,4.25
26.43,-19.05,-23.30,-19.04,-23.29,23.29,22.02,19.52,4.24,4.25,4.25
26.69,-18.84,-23.09,-18.84,-23.09,23.09,21.93,19.96,4.26,4.25,4.25
26.96,-18.66,-22.91,-18.65,-22.89,22.89,21.87,20.41,4.23,4.25,4.25
27.23,-18.44,-22.69,-18.45,-22.69,22.69,21.82,20.89,4.26,4.24,4.25
27.50,-18.27,-22.51,-18.25,-22.49,22.49,21.79,21.38,4.23,4.24,4.25
27.77,-18.04,-22.28,-18.05,-22.29,22.29,21.78,21.91,4.25,4.24,4.23
28.05,-17.87,-22.11,-17.86,-22.09,22.09,21.78,22.45,4.21,4.23,4.23
28.33,-17.65,-21.88,-17.66,-21.89,21.89,21.78,23.02,4.23,4.23,4.22
28.62,-17.45,-21.67,-17.46,-21.68,21.68,21.80,23.61,4.23,4.22,4.22
28.90,-17.27,-21.49,-17.26,-21.48,21.48,21.81,24.22,4.20,4.22,4.22
29.19,-17.06,-21.26,-17.06,-21.27,21.27,21.83,24.84,4.21,4.21,4.21
29.48,-16.83,-21.05,-16.85,-21.06,21.06,21.84,25.47,4.23,4.21,4.21
29.78,-16.67,-20.87,-16.65,-20.85,20.85,21.84,26.08,4.19,4.20,4.20
30.08,-16.45,-20.65,-16.45,-20.64,20.64,21.82,26.65,4.20,4.20,4.20
30.38,-16.23,-20.42,-16.25,-20.44,20.44,21.79,27.15,4.21,4.19,4.19
30.68,-16.06,-20.24,-16.04,-20.22,20.22,21.73,27.54,4.17,4.18,4.19
30.99,-15.84,-20.01,-15.84,-20.02,20.02,21.64,27.78,4.18,4.18,4.17
31.30,-15.63,-19.80,-15.64,-19.81,19.81,21.52,27.83,4.18,4.17,4.17
31.61,-15.43,-19.59,-15.43,-19.60,19.60,21.36,27.68,4.17,4.16,4.17
31.93,-15.24,-19.39,-15.23,-19.38,19.38,21.17,27.35,4.15,4.16,4.16
32.24,-15.01,-19.16,-15.02,-19.17,19.17,20.94,26.88,4.16,4.15,4.14
32.57,-14.83,-18.97,-14.82,-18.96,18.96,20.68,26.30,4.14,4.14,4.14
32.89,-14.62,-18.76,-14.62,-18.75,18.75,20.39,25.65,4.13,4.13,4.14
33.22,-14.40,-18.53,-14.41,-18.54,18.54,20.07,24.96,4.13,4.13,4.12
33.55,-14.19,-18.31,-14.21,-18.33,18.33,19.72,24.27,4.13,4.12,4.12
33.89,-14.02,-18.12,-14.00,-18.11,18.11,19.36,23.58,4.10,4.11,4.11
34.23,-13.80,-17.90,-13.80,-17.90,17.90,18.99,22.90,4.10,4.10,4.10
34.57,-13.59,-17.68,-13.59,-17.68,17.68,18.61,22.24,4.10,4.09,4.09
34.92,-13.38,-17.46,-13.39,-17.47,17.47,18.22,21.61,4.09,4.08,4.08
35.27,-13.20,-17.27,-13.18,-17.25,17.25,17.83,20.99,4.05,4.07,4.07
35.62,-12.98,-17.04,-12.97,-17.03,17.03,17.45,20.40,4.06,4.06,4.06
35.97,-12.75,-16.80,-12.76,-16.82,16.82,17.06,19.84,4.06,4.05,4.05
36.33,-12.55,-16.59,-12.56,-16.59,16.59,16.69,19.29,4.04,4.04,4.04
36.70,-12.35,-16.37,-12.35,-16.37,16.37,16.33,18.76,4.03,4.03,4.03
37.06,-12.12,-16.14,-12.13,-16.15,16.15,15.98,18.25,4.03,4.02,4.01
37.43,-11.93,-15.94,-11.92,-15.92,15.92,15.64,17.76,3.99,4.00,4.01
37.81,-11.72,-15.71,-11.70,-15.69,15.69,15.31,17.29,3.98,3.99,3.99
38.19,-11.48,-15.45,-11.48,-15.46,15.46,15.00,16.83,3.98,3.98,3.98
38.57,-11.26,-15.23,-11.26,-15.23,15.23,14.70,16.38,3.97,3.97,3.97
38.95,-11.03,-14.99,-11.03,-14.99,14.99,14.42,15.95,3.96,3.96,3.96
39.34,-10.81,-14.75,-10.80,-14.75,14.75,14.15,15.52,3.94,3.94,3.94
39.74,-10.59,-14.51,-10.58,-14.51,14.51,13.89,15.11,3.92,3.93,3.92
40.14,-10.37,-14.29,-10.35,-14.27,14.27,13.65,14.71,3.90,3.92,3.92
40.54,-10.11,-14.01,-10.11,-14.02,14.02,13.43,14.32,3.92,3.91,3.90
40.94,-9.87,-13.77,-9.88,-13.78,13.78,13.22,13.93,3.90,3.90,3.90
41.35,-9.61,-13.49,-9.64,-13.53,13.53,13.01,13.56,3.91,3.88,3.88
41.76,-9.39,-13.26,-9.40,-13.27,13.27,12.82,13.19,3.88,3.87,3.87
42.18,-9.13,-13.00,-9.16,-13.01,13.01,12.63,12.82,3.88,3.86,3.86
42.60,-8.90,-12.75,-8.91,-12.75,12.75,12.44,12.46,3.85,3.84,3.85
43.03,-8.67,-12.50,-8.66,-12.49,12.49,12.26,12.11,3.82,3.82,3.84
43.46,-8.44,-12.25,-8.41,-12.22,12.22,12.07,11.76,3.78,3.81,3.82
43.90,-8.19,-11.98,-8.15,-11.94,11.94,11.87,11.42,3.75,3.79,3.79
44.33,-7.91,-11.68,-7.89,-11.67,11.67,11.66,11.08,3.75,3.78,3.77
44.78,-7.65,-11.40,-7.63,-11.39,11.39,11.44,10.75,3.74,3.76,3.75
45.23,-7.37,-11.10,-7.36,-11.10,11.10,11.20,10.42,3.73,3.74,3.73
45.68,-7.10,-10.81,-7.09,-10.81,10.81,10.94,10.09,3.72,3.72,3.71
46.13,-6.80,-10.49,-6.82,-10.52,10.52,10.66,9.76,3.72,3.70,3.69
46.60,-6.54,-10.22,-6.55,-10.23,10.23,10.37,9.44,3.69,3.68,3.68
47.06,-6.25,-9.91,-6.28,-9.93,9.93,10.06,9.12,3.68,3.65,3.66
47.53,-5.98,-9.62,-6.00,-9.64,9.64,9.74,8.80,3.65,3.63,3.64
48.01,-5.72,-9.34,-5.73,-9.34,9.34,9.41,8.49,3.62,3.61,3.63
48.49,-5.46,-9.05,-5.46,-9.04,9.04,9.07,8.18,3.58,3.58,3.59
48.97,-5.19,-8.75,-5.19,-8.75,8.75,8.72,7.87,3.55,3.56,3.56
49.46,-4.91,-8.44,-4.92,-8.45,8.45,8.38,7.56,3.54,3.53,3.53
49.96,-4.65,-8.14,-4.65,-8.16,8.16,8.03,7.25,3.51,3.51,3.49
50.46,-4.40,-7.88,-4.38,-7.86,7.86,7.69,6.95,3.46,3.48,3.48
50.96,-4.11,-7.57,-4.11,-7.57,7.57,7.35,6.65,3.45,3.45,3.45
51.47,-3.86,-7.27,-3.84,-7.27,7.27,7.02,6.35,3.42,3.43,3.42
51.99,-3.58,-6.97,-3.58,-6.97,6.97,6.69,6.06,3.40,3.40,3.39
52.51,-3.31,-6.68,-3.31,-6.68,6.68,6.38,5.76,3.37,3.37,3.38
53.03,-3.04,-6.38,-3.04,-6.38,6.38,6.06,5.48,3.35,3.34,3.35
53.56,-2.77,-6.09,-2.77,-6.09,6.09,5.76,5.19,3.33,3.32,3.32
54.10,-2.50,-5.79,-2.51,-5.80,5.80,5.46,4.92,3.30,3.29,3.29
54.64,-2.25,-5.51,-2.24,-5.51,5.51,5.17,4.64,3.26,3.26,3.26
55.18,-1.97,-5.21,-1.98,-5.21,5.21,4.89,4.37,3.24,3.24,3.23
55.74,-1.71,-4.91,-1.71,-4.92,4.92,4.61,4.11,3.22,3.21,3.20
56.29,-1.45,-4.64,-1.45,-4.63,4.63,4.34,3.86,3.18,3.18,3.18
56.86,-1.18,-4.33,-1.18,-4.34,4.34,4.07,3.61,3.16,3.16,3.15
57.42,-0.94,-4.06,-0.92,-4.05,4.05,3.80,3.38,3.10,3.13,3.12
58.00,-0.67,-3.76,-0.66,-3.76,3.76,3.54,3.15,3.09,3.10,3.10
58.58,-0.41,-3.48,-0.40,-3.47,3.47,3.29,2.93,3.06,3.07,3.07
59.16,-0.15,-3.20,-0.14,-3.18,3.18,3.03,2.72,3.03,3.04,3.05
59.76,0.12,-2.90,0.11,-2.90,2.90,2.78,2.52,3.02,3.01,3.02
60.35,0.37,-2.62,0.37,-2.61,2.61,2.53,2.33,2.98,2.98,2.99
60.96,0.63,-2.33,0.61,-2.34,2.34,2.29,2.16,2.97,2.95,2.96
61.57,0.87,-2.04,0.85,-2.06,2.06,2.04,1.99,2.94,2.92,2.91
62.18,1.12,-1.76,1.09,-1.79,1.79,1.79,1.84,2.91,2.88,2.88
62.80,1.34,-1.51,1.32,-1.53,1.53,1.55,1.70,2.87,2.85,2.85
63.43,1.55,-1.26,1.55,-1.27,1.27,1.31,1.57,2.81,2.82,2.81
64.07,1.76,-1.01,1.77,-1.01,1.01,1.06,1.46,2.78,2.78,2.78
64.71,1.98,-0.76,1.98,-0.76,0.76,0.82,1.36,2.75,2.75,2.74
65.35,2.18,-0.53,2.19,-0.52,0.52,0.58,1.26,2.69,2.71,2.71
66.01,2.39,-0.28,2.40,-0.28,0.28,0.34,1.18,2.67,2.68,2.68
66.67,2.59,-0.05,2.60,-0.04,0.04,0.10,1.11,2.63,2.64,2.64
67.33,2.79,0.18,2.80,0.20,-0.20,-0.14,1.05,2.59,2.60,2.61
68.01,2.98,0.41,2.99,0.42,-0.42,-0.37,0.99,2.56,2.57,2.57
68.69,3.15,0.62,3.18,0.65,-0.65,-0.60,0.95,2.51,2.53,2.53
69.37,3.35,0.85,3.36,0.87,-0.87,-0.83,0.91,2.48,2.50,2.50
70.07,3.54,1.09,3.54,1.09,-1.09,-1.05,0.88,2.46,2.46,2.46
70.77,3.70,1.28,3.71,1.29,-1.29,-1.27,0.85,2.41,2.42,2.43
71.48,3.86,1.48,3.87,1.49,-1.49,-1.47,0.83,2.37,2.38,2.38
72.19,4.03,1.69,4.02,1.68,-1.68,-1.67,0.81,2.35,2.34,2.34
72.91,4.17,1.87,4.16,1.86,-1.86,-1.86,0.79,2.31,2.30,2.30
73.64,4.29,2.04,4.28,2.02,-2.02,-2.03,0.78,2.28,2.26,2.25
74.38,4.40,2.18,4.39,2.17,-2.17,-2.19,0.77,2.24,2.22,2.22
75.12,4.49,2.32,4.48,2.30,-2.30,-2.34,0.76,2.20,2.18,2.17
75.87,4.57,2.44,4.55,2.41,-2.41,-2.47,0.75,2.16,2.14,2.14
76.63,4.64,2.55,4.61,2.51,-2.51,-2.58,0.74,2.13,2.10,2.10
77.40,4.66,2.61,4.65,2.60,-2.60,-2.67,0.74,2.07,2.06,2.06
78.17,4.68,2.68,4.68,2.66,-2.66,-2.74,0.73,2.02,2.02,2.01
78.95,4.68,2.71,4.69,2.71,-2.71,-2.79,0.72,1.97,1.97,1.98
79.74,4.66,2.73,4.68,2.75,-2.75,-2.83,0.71,1.92,1.93,1.94
80.54,4.65,2.76,4.66,2.77,-2.77,-2.84,0.69,1.89,1.89,1.89
81.35,4.61,2.77,4.62,2.77,-2.77,-2.84,0.68,1.85,1.85,1.85
82.16,4.56,2.76,4.56,2.76,-2.76,-2.83,0.66,1.81,1.81,1.80
82.98,4.49,2.72,4.49,2.73,-2.73,-2.79,0.64,1.76,1.76,1.77
83.81,4.43,2.72,4.41,2.69,-2.69,-2.75,0.62,1.74,1.72,1.71
84.65,4.32,2.66,4.31,2.64,-2.64,-2.69,0.60,1.68,1.67,1.67
85.50,4.22,2.60,4.21,2.58,-2.58,-2.62,0.58,1.64,1.62,1.63
86.35,4.10,2.53,4.09,2.51,-2.51,-2.54,0.55,1.59,1.58,1.58
87.22,3.97,2.44,3.96,2.43,-2.43,-2.46,0.52,1.53,1.53,1.53
88.09,3.82,2.35,3.83,2.35,-2.35,-2.37,0.48,1.48,1.48,1.48
88.97,3.68,2.25,3.68,2.25,-2.25,-2.28,0.45,1.43,1.43,1.44
89.86,3.53,2.15,3.54,2.16,-2.16,-2.19,0.41,1.38,1.38,1.39
90.76,3.37,2.04,3.38,2.05,-2.05,-2.09,0.37,1.31,1.33,1.32
91.66,3.21,1.93,3.23,1.95,-1.95,-2.00,0.33,1.26,1.28,1.28
92.58,3.07,1.86,3.07,1.85,-1.85,-1.90,0.28,1.23,1.22,1.22
93.51,2.90,1.72,2.91,1.74,-1.74,-1.81,0.23,1.15,1.17,1.17
94.44,2.75,1.64,2.75,1.64,-1.64,-1.71,0.18,1.11,1.11,1.12
95.39,2.59,1.52,2.60,1.54,-1.54,-1.62,0.13,1.04,1.06,1.06
96.34,2.44,1.45,2.45,1.45,-1.45,-1.53,0.07,0.99,1.00,1.00
97.30,2.28,1.34,2.30,1.36,-1.36,-1.45,0.01,0.92,0.94,0.94
98.28,2.14,1.26,2.16,1.27,-1.27,-1.37,-0.05,0.87,0.89,0.88
99.26,2.02,1.20,2.02,1.19,-1.19,-1.29,-0.11,0.83,0.83,0.83
100.25,1.86,1.09,1.88,1.11,-1.11,-1.21,-0.17,0.75,0.77,0.77
101.25,1.74,1.03,1.74,1.03,-1.03,-1.14,-0.24,0.71,0.71,0.71
102.27,1.60,0.95,1.61,0.96,-0.96,-1.07,-0.30,0.65,0.65,0.65
103.29,1.49,0.91,1.48,0.89,-0.89,-1.00,-0.37,0.61,0.60,0.59
104.32,1.35,0.82,1.36,0.82,-0.82,-0.94,-0.44,0.53,0.54,0.54
105.37,1.25,0.77,1.24,0.76,-0.76,-0.87,-0.51,0.50,0.48,0.48
106.42,1.14,0.72,1.12,0.70,-0.70,-0.82,-0.57,0.45,0.42,0.42
107.48,1.00,0.64,1.00,0.64,-0.64,-0.76,-0.64,0.36,0.36,0.37
108.56,0.87,0.58,0.89,0.59,-0.59,-0.71,-0.71,0.29,0.30,0.30
109.64,0.76,0.52,0.77,0.54,-0.54,-0.66,-0.77,0.23,0.24,0.24
110.74,0.65,0.47,0.67,0.49,-0.49,-0.61,-0.84,0.17,0.18,0.18
111.85,0.55,0.43,0.56,0.44,-0.44,-0.57,-0.90,0.11,0.11,0.13
112.97,0.46,0.42,0.45,0.40,-0.40,-0.53,-0.96,0.06,0.05,0.05
114.10,0.35,0.36,0.35,0.36,-0.36,-0.49,-1.02,-0.01,-0.01,-0.01
115.24,0.24,0.32,0.25,0.33,-0.33,-0.45,-1.07,-0.08,-0.07,-0.07
116.39,0.16,0.30,0.16,0.30,-0.30,-0.41,-1.12,-0.13,-0.14,-0.14
117.55,0.07,0.28,0.07,0.27,-0.27,-0.38,-1.17,-0.19,-0.20,-0.20
118.73,-0.04,0.23,-0.02,0.24,-0.24,-0.35,-1.21,-0.28,-0.26,-0.27
119.92,-0.10,0.23,-0.10,0.22,-0.22,-0.32,-1.25,-0.32,-0.32,-0.32
121.12,-0.20,0.19,-0.19,0.20,-0.20,-0.29,-1.29,-0.40,-0.39,-0.39
122.33,-0.27,0.19,-0.27,0.18,-0.18,-0.26,-1.32,-0.45,-0.45,-0.45
123.55,-0.36,0.15,-0.35,0.17,-0.17,-0.24,-1.34,-0.52,-0.51,-0.50
124.79,-0.43,0.14,-0.42,0.15,-0.15,-0.22,-1.36,-0.57,-0.57,-0.57
126.03,-0.50,0.13,-0.50,0.13,-0.13,-0.19,-1.38,-0.63,-0.63,-0.63
127.29,-0.57,0.12,-0.57,0.12,-0.12,-0.17,-1.39,-0.69,-0.69,-0.69
128.57,-0.64,0.12,-0.64,0.11,-0.11,-0.15,-1.39,-0.74,-0.75,-0.76
129.85,-0.72,0.10,-0.72,0.10,-0.10,-0.13,-1.39,-0.81,-0.81,-0.82
131.15,-0.78,0.10,-0.79,0.08,-0.08,-0.11,-1.39,-0.86,-0.87,-0.88
132.46,-0.85,0.09,-0.86,0.07,-0.07,-0.10,-1.38,-0.92,-0.93,-0.93
133.79,-0.93,0.05,-0.93,0.06,-0.06,-0.08,-1.37,-0.98,-0.99,-0.98
135.12,-1.01,0.04,-0.99,0.05,-0.05,-0.07,-1.35,-1.05,-1.04,-1.05
136.48,-1.06,0.04,-1.06,0.04,-0.04,-0.05,-1.33,-1.09,-1.09,-1.09
137.84,-1.14,0.01,-1.12,0.03,-0.03,-0.04,-1.30,-1.16,-1.15,-1.14
139.22,-1.19,0.02,-1.19,0.01,-0.01,-0.03,-1.27,-1.20,-1.20,-1.21
140.61,-1.25,0.01,-1.25,-0.00,0.00,-0.01,-1.24,-1.25,-1.25,-1.26
142.02,-1.32,-0.02,-1.31,-0.01,0.01,-0.00,-1.21,-1.30,-1.30,-1.29
143.44,-1.38,-0.03,-1.37,-0.03,0.03,0.01,-1.17,-1.35,-1.34,-1.34
144.87,-1.43,-0.03,-1.43,-0.04,0.04,0.02,-1.13,-1.39,-1.39,-1.39
146.32,-1.47,-0.03,-1.48,-0.05,0.05,0.03,-1.09,-1.42,-1.44,-1.44
147.78,-1.52,-0.04,-1.54,-0.05,0.05,0.04,-1.05,-1.46,-1.48,-1.48
149.26,-1.59,-0.06,-1.59,-0.06,0.06,0.05,-1.01,-1.53,-1.53,-1.52
150.75,-1.65,-0.07,-1.64,-0.06,0.06,0.05,-0.97,-1.58,-1.58,-1.58
152.26,-1.71,-0.08,-1.69,-0.07,0.07,0.06,-0.93,-1.64,-1.62,-1.62
153.78,-1.75,-0.08,-1.74,-0.07,0.07,0.07,-0.88,-1.68,-1.67,-1.67
155.32,-1.79,-0.07,-1.78,-0.07,0.07,0.08,-0.84,-1.72,-1.72,-1.72
156.88,-1.85,-0.09,-1.83,-0.07,0.07,0.08,-0.80,-1.78,-1.76,-1.76
158.44,-1.88,-0.07,-1.87,-0.06,0.06,0.09,-0.75,-1.81,-1.81,-1.81
160.03,-1.92,-0.06,-1.92,-0.06,0.06,0.10,-0.71,-1.85,-1.86,-1.86
161.63,-1.96,-0.05,-1.96,-0.06,0.06,0.10,-0.67,-1.90,-1.90,-1.91
163.24,-2.00,-0.04,-2.00,-0.05,0.05,0.11,-0.63,-1.94,-1.95,-1.96
164.88,-2.03,-0.03,-2.04,-0.05,0.05,0.11,-0.58,-1.98,-1.99,-1.99
166.53,-2.08,-0.04,-2.08,-0.04,0.04,0.12,-0.54,-2.04,-2.04,-2.04
168.19,-2.11,-0.02,-2.12,-0.03,0.03,0.13,-0.51,-2.07,-2.08,-2.08
169.87,-2.17,-0.04,-2.15,-0.02,0.02,0.13,-0.47,-2.14,-2.13,-2.13
171.57,-2.20,-0.03,-2.19,-0.02,0.02,0.14,-0.43,-2.18,-2.17,-2.17
173.29,-2.24,-0.02,-2.23,-0.01,0.01,0.14,-0.39,-2.23,-2.22,-2.21
175.02,-2.27,-0.01,-2.26,-0.00,0.00,0.14,-0.36,-2.26,-2.26,-2.25
176.77,-2.29,0.02,-2.30,0.01,-0.01,0.15,-0.32,-2.29,-2.30,-2.30
178.54,-2.34,0.02,-2.33,0.02,-0.02,0.15,-0.29,-2.35,-2.35,-2.35
180.32,-2.38,0.02,-2.36,0.03,-0.03,0.16,-0.26,-2.40,-2.39,-2.39
182.13,-2.39,0.04,-2.40,0.04,-0.04,0.16,-0.23,-2.42,-2.43,-2.43
183.95,-2.43,0.05,-2.42,0.05,-0.05,0.17,-0.20,-2.47,-2.47,-2.48
185.79,-2.47,0.05,-2.45,0.06,-0.06,0.17,-0.17,-2.53,-2.51,-2.51
187.65,-2.48,0.08,-2.48,0.07,-0.07,0.17,-0.14,-2.55,-2.55,-2.56
189.52,-2.52,0.08,-2.51,0.08,-0.08,0.18,-0.11,-2.60,-2.59,-2.59
191.42,-2.52,0.11,-2.53,0.09,-0.09,0.18,-0.09,-2.61,-2.63,-2.63
193.33,-2.57,0.09,-2.56,0.10,-0.10,0.19,-0.06,-2.67,-2.66,-2.66
195.27,-2.58,0.12,-2.58,0.11,-0.11,0.19,-0.04,-2.69,-2.69,-2.69
197.22,-2.62,0.11,-2.61,0.12,-0.12,0.19,-0.01,-2.73,-2.72,-2.72
199.19,-2.62,0.15,-2.63,0.13,-0.13,0.20,0.01,-2.74,-2.75,-2.76
201.18,-2.66,0.13,-2.65,0.13,-0.13,0.20,0.03,-2.79,-2.78,-2.78
203.19,-2.66,0.15,-2.67,0.13,-0.13,0.21,0.05,-2.79,-2.81,-2.80
205.23,-2.71,0.13,-2.69,0.14,-0.14,0.21,0.07,-2.84,-2.83,-2.83
207.28,-2.71,0.14,-2.71,0.14,-0.14,0.22,0.09,-2.84,-2.85,-2.84
209.35,-2.75,0.12,-2.73,0.14,-0.14,0.22,0.11,-2.88,-2.87,-2.87
211.44,-2.76,0.14,-2.75,0.14,-0.14,0.22,0.13,-2.89,-2.89,-2.90
213.56,-2.76,0.15,-2.77,0.14,-0.14,0.23,0.15,-2.89,-2.90,-2.90
215.69,-2.80,0.11,-2.78,0.13,-0.13,0.23,0.16,-2.93,-2.92,-2.91
217.85,-2.80,0.13,-2.80,0.13,-0.13,0.24,0.18,-2.92,-2.93,-2.93
220.03,-2.80,0.14,-2.81,0.12,-0.12,0.24,0.20,-2.92,-2.94,-2.94
222.23,-2.85,0.11,-2.83,0.12,-0.12,0.25,0.21,-2.96,-2.94,-2.95
224.45,-2.85,0.10,-2.84,0.11,-0.11,0.25,0.23,-2.96,-2.95,-2.95
226.70,-2.85,0.11,-2.85,0.10,-0.10,0.26,0.24,-2.95,-2.95,-2.95
228.96,-2.85,0.11,-2.86,0.10,-0.10,0.26,0.26,-2.94,-2.96,-2.96
231.25,-2.86,0.09,-2.87,0.09,-0.09,0.27,0.27,-2.94,-2.96,-2.95
233.57,-2.90,0.05,-2.88,0.08,-0.08,0.27,0.28,-2.97,-2.95,-2.95
235.90,-2.90,0.06,-2.88,0.07,-0.07,0.28,0.30,-2.96,-2.95,-2.95
238.26,-2.90,0.06,-2.89,0.06,-0.06,0.28,0.31,-2.95,-2.95,-2.95
240.64,-2.90,0.05,-2.90,0.04,-0.04,0.29,0.32,-2.94,-2.94,-2.94
243.05,-2.90,0.04,-2.91,0.03,-0.03,0.30,0.33,-2.92,-2.93,-2.93
245.48,-2.94,-0.01,-2.92,0.01,-0.01,0.30,0.35,-2.94,-2.93,-2.92
247.93,-2.94,-0.02,-2.93,-0.01,0.01,0.31,0.36,-2.92,-2.92,-2.91
250.41,-2.94,-0.02,-2.94,-0.03,0.03,0.32,0.37,-2.90,-2.90,-2.91
252.92,-2.94,-0.04,-2.95,-0.06,0.06,0.32,0.38,-2.87,-2.89,-2.89
255.45,-2.94,-0.06,-2.97,-0.09,0.09,0.33,0.39,-2.84,-2.88,-2.87
258.00,-2.98,-0.12,-2.99,-0.12,0.12,0.34,0.40,-2.85,-2.86,-2.86
260.58,-2.99,-0.14,-3.00,-0.16,0.16,0.34,0.41,-2.83,-2.85,-2.85
263.19,-3.03,-0.20,-3.02,-0.19,0.19,0.35,0.42,-2.83,-2.83,-2.83
265.82,-3.06,-0.24,-3.04,-0.23,0.23,0.36,0.43,-2.82,-2.81,-2.81
268.48,-3.08,-0.28,-3.06,-0.27,0.27,0.37,0.44,-2.81,-2.79,-2.79
271.16,-3.08,-0.31,-3.08,-0.31,0.31,0.38,0.45,-2.77,-2.77,-2.77
273.87,-3.13,-0.37,-3.10,-0.35,0.35,0.39,0.46,-2.78,-2.76,-2.76
276.61,-3.13,-0.39,-3.13,-0.39,0.39,0.40,0.47,-2.74,-2.74,-2.73
279.38,-3.17,-0.45,-3.15,-0.43,0.43,0.41,0.48,-2.74,-2.72,-2.72
282.17,-3.18,-0.47,-3.17,-0.47,0.47,0.42,0.50,-2.71,-2.70,-2.70
284.99,-3.18,-0.50,-3.19,-0.50,0.50,0.43,0.51,-2.67,-2.68,-2.68
287.84,-3.20,-0.53,-3.20,-0.54,0.54,0.44,0.52,-2.66,-2.66,-2.67
290.72,-3.22,-0.57,-3.22,-0.58,0.58,0.45,0.53,-2.64,-2.64,-2.64
293.63,-3.22,-0.59,-3.23,-0.61,0.61,0.46,0.54,-2.60,-2.62,-2.63
296.57,-3.26,-0.65,-3.25,-0.65,0.65,0.47,0.55,-2.61,-2.60,-2.60
299.53,-3.27,-0.68,-3.26,-0.68,0.68,0.48,0.56,-2.58,-2.58,-2.59
302.53,-3.27,-0.69,-3.27,-0.72,0.72,0.50,0.57,-2.55,-2.56,-2.57
305.55,-3.28,-0.74,-3.28,-0.75,0.75,0.51,0.59,-2.53,-2.54,-2.54
308.61,-3.32,-0.80,-3.30,-0.78,0.78,0.52,0.60,-2.53,-2.52,-2.52
311.69,-3.32,-0.82,-3.30,-0.81,0.81,0.54,0.61,-2.50,-2.49,-2.49
314.81,-3.32,-0.86,-3.31,-0.84,0.84,0.55,0.63,-2.48,-2.47,-2.46
317.96,-3.32,-0.87,-3.31,-0.87,0.87,0.57,0.64,-2.45,-2.45,-2.44
321.14,-3.32,-0.89,-3.32,-0.89,0.89,0.58,0.65,-2.43,-2.43,-2.43
324.35,-3.32,-0.91,-3.32,-0.91,0.91,0.60,0.67,-2.40,-2.41,-2.41
327.59,-3.32,-0.93,-3.32,-0.93,0.93,0.62,0.68,-2.38,-2.39,-2.38
330.87,-3.32,-0.95,-3.31,-0.95,0.95,0.63,0.70,-2.37,-2.36,-2.37
334.18,-3.32,-0.97,-3.31,-0.96,0.96,0.65,0.72,-2.35,-2.34,-2.35
337.52,-3.32,-0.98,-3.30,-0.98,0.98,0.67,0.73,-2.34,-2.32,-2.33
340.90,-3.29,-0.98,-3.29,-0.99,0.99,0.69,0.75,-2.30,-2.31,-2.30
344.30,-3.27,-0.98,-3.28,-1.00,1.00,0.71,0.77,-2.27,-2.29,-2.29
347.75,-3.27,-1.00,-3.27,-1.00,1.00,0.73,0.79,-2.26,-2.27,-2.27
351.23,-3.27,-1.01,-3.27,-1.01,1.01,0.75,0.80,-2.25,-2.25,-2.25
354.74,-3.27,-1.03,-3.26,-1.02,1.02,0.77,0.82,-2.25,-2.24,-2.24
358.28,-3.27,-1.05,-3.25,-1.03,1.03,0.79,0.84,-2.24,-2.22,-2.22
361.87,-3.22,-1.02,-3.24,-1.04,1.04,0.81,0.86,-2.18,-2.20,-2.20
365.49,-3.22,-1.03,-3.23,-1.04,1.04,0.83,0.89,-2.17,-2.19,-2.18
369.14,-3.22,-1.04,-3.22,-1.05,1.05,0.85,0.91,-2.17,-2.17,-2.17
372.83,-3.22,-1.06,-3.21,-1.05,1.05,0.87,0.93,-2.16,-2.16,-2.16
376.56,-3.22,-1.07,-3.20,-1.06,1.06,0.90,0.95,-2.16,-2.14,-2.15
380.33,-3.18,-1.06,-3.19,-1.06,1.06,0.92,0.98,-2.11,-2.13,-2.12
384.13,-3.18,-1.06,-3.18,-1.07,1.07,0.94,1.00,-2.11,-2.12,-2.11
387.97,-3.18,-1.07,-3.17,-1.07,1.07,0.96,1.02,-2.11,-2.10,-2.10
391.85,-3.18,-1.08,-3.16,-1.07,1.07,0.99,1.05,-2.10,-2.09,-2.10
395.77,-3.18,-1.10,-3.15,-1.07,1.07,1.01,1.07,-2.10,-2.08,-2.08
399.73,-3.14,-1.07,-3.14,-1.07,1.07,1.03,1.09,-2.06,-2.07,-2.07
403.72,-3.13,-1.07,-3.13,-1.07,1.07,1.05,1.12,-2.05,-2.06,-2.06
407.76,-3.13,-1.07,-3.12,-1.07,1.07,1.08,1.14,-2.05,-2.05,-2.05
411.84,-3.13,-1.09,-3.11,-1.07,1.07,1.10,1.17,-2.05,-2.04,-2.03
415.96,-3.08,-1.05,-3.10,-1.07,1.07,1.12,1.19,-2.00,-2.03,-2.02
420.12,-3.08,-1.06,-3.09,-1.07,1.07,1.14,1.22,-2.00,-2.02,-2.02
424.32,-3.08,-1.07,-3.08,-1.08,1.08,1.16,1.24,-2.00,-2.01,-2.01
428.56,-3.08,-1.08,-3.07,-1.08,1.08,1.17,1.26,-2.00,-2.00,-2.00
432.85,-3.08,-1.09,-3.06,-1.08,1.08,1.19,1.28,-2.00,-1.99,-1.99
437.18,-3.04,-1.06,-3.05,-1.08,1.08,1.21,1.30,-1.96,-1.97,-1.98
441.55,-3.04,-1.07,-3.04,-1.08,1.08,1.22,1.32,-1.96,-1.96,-1.96
445.96,-3.04,-1.08,-3.03,-1.08,1.08,1.23,1.34,-1.95,-1.95,-1.95
