frequency,raw,error,smoothed,error_smoothed,equalization,parametric_eq,fixed_band_eq,equalized_raw,equalized_smoothed,target
20.00,6.96,0.13,6.94,0.09,-0.09,-0.51,-0.60,6.86,6.85,6.83
20.20,6.97,0.14,6.96,0.12,-0.12,-0.52,-0.62,6.85,6.84,6.83
20.40,6.97,0.14,6.98,0.14,-0.14,-0.53,-0.63,6.83,6.83,6.83
20.61,6.99,0.16,6.99,0.17,-0.17,-0.54,-0.65,6.82,6.82,6.83
20.81,7.01,0.18,7.01,0.19,-0.19,-0.56,-0.67,6.81,6.81,6.83
21.02,7.02,0.19,7.02,0.22,-0.22,-0.57,-0.68,6.80,6.80,6.83
21.23,7.04,0.23,7.04,0.25,-0.25,-0.58,-0.70,6.79,6.79,6.81
21.44,7.06,0.26,7.06,0.28,-0.28,-0.59,-0.72,6.78,6.78,6.79
21.66,7.07,0.29,7.07,0.31,-0.31,-0.60,-0.74,6.76,6.76,6.77
21.87,7.09,0.33,7.09,0.34,-0.34,-0.62,-0.76,6.74,6.75,6.75
22.09,7.11,0.36,7.11,0.38,-0.38,-0.63,-0.78,6.73,6.73,6.74
22.31,7.13,0.41,7.13,0.41,-0.41,-0.64,-0.80,6.71,6.71,6.71
22.54,7.14,0.44,7.15,0.46,-0.46,-0.66,-0.83,6.68,6.69,6.69
22.76,7.17,0.50,7.17,0.50,-0.50,-0.67,-0.85,6.67,6.67,6.67
22.99,7.19,0.55,7.19,0.54,-0.54,-0.69,-0.87,6.65,6.65,6.64
23.22,7.21,0.60,7.21,0.58,-0.58,-0.70,-0.89,6.62,6.62,6.61
23.45,7.24,0.65,7.23,0.62,-0.62,-0.71,-0.92,6.61,6.60,6.59
23.69,7.25,0.67,7.25,0.66,-0.66,-0.73,-0.94,6.58,6.58,6.58
23.92,7.28,0.72,7.26,0.70,-0.70,-0.75,-0.97,6.57,6.56,6.56
24.16,7.30,0.75,7.28,0.74,-0.74,-0.76,-0.99,6.55,6.54,6.55
24.40,7.30,0.77,7.30,0.78,-0.78,-0.78,-1.02,6.52,6.52,6.53
24.65,7.32,0.81,7.32,0.82,-0.82,-0.79,-1.04,6.50,6.50,6.51
24.89,7.34,0.85,7.34,0.85,-0.85,-0.81,-1.07,6.48,6.48,6.48
25.14,7.35,0.87,7.36,0.89,-0.89,-0.83,-1.10,6.46,6.47,6.47
25.39,7.37,0.92,7.37,0.92,-0.92,-0.84,-1.12,6.44,6.45,6.45
25.65,7.39,0.95,7.39,0.96,-0.96,-0.86,-1.15,6.43,6.44,6.44
25.91,7.41,1.00,7.41,0.99,-0.99,-0.88,-1.18,6.42,6.42,6.41
26.16,7.43,1.03,7.43,1.02,-1.02,-0.90,-1.20,6.40,6.40,6.40
26.43,7.45,1.06,7.45,1.06,-1.06,-0.92,-1.23,6.39,6.39,6.39
26.69,7.47,1.10,7.46,1.09,-1.09,-0.93,-1.26,6.37,6.37,6.37
26.96,7.49,1.13,7.48,1.13,-1.13,-0.95,-1.28,6.36,6.35,6.35
27.23,7.51,1.16,7.50,1.16,-1.16,-0.97,-1.31,6.34,6.34,6.34
27.50,7.52,1.19,7.52,1.19,-1.19,-0.99,-1.34,6.32,6.32,6.33
27.77,7.54,1.23,7.54,1.23,-1.23,-1.01,-1.36,6.31,6.31,6.31
28.05,7.56,1.26,7.55,1.26,-1.26,-1.03,-1.38,6.30,6.30,6.30
28.33,7.57,1.29,7.57,1.29,-1.29,-1.05,-1.41,6.28,6.28,6.28
28.62,7.59,1.32,7.59,1.32,-1.32,-1.07,-1.43,6.27,6.27,6.27
28.90,7.60,1.34,7.60,1.34,-1.34,-1.10,-1.45,6.25,6.26,6.25
29.19,7.61,1.38,7.61,1.37,-1.37,-1.12,-1.47,6.23,6.24,6.23
29.48,7.63,1.40,7.63,1.40,-1.40,-1.14,-1.49,6.23,6.23,6.23
29.78,7.64,1.42,7.64,1.42,-1.42,-1.16,-1.51,6.22,6.21,6.22
30.08,7.65,1.44,7.64,1.44,-1.44,-1.18,-1.53,6.20,6.20,6.21
30.38,7.65,1.46,7.65,1.47,-1.47,-1.21,-1.54,6.18,6.18,6.18
30.68,7.67,1.50,7.65,1.49,-1.49,-1.23,-1.56,6.18,6.17,6.17
30.99,7.67,1.52,7.65,1.50,-1.50,-1.25,-1.57,6.16,6.15,6.15
31.30,7.66,1.52,7.65,1.52,-1.52,-1.28,-1.58,6.14,6.13,6.14
31.61,7.66,1.53,7.65,1.53,-1.53,-1.30,-1.59,6.12,6.12,6.12
31.93,7.65,1.54,7.65,1.55,-1.55,-1.33,-1.60,6.10,6.10,6.10
32.24,7.64,1.57,7.64,1.56,-1.56,-1.35,-1.60,6.08,6.08,6.07
32.57,7.63,1.57,7.63,1.57,-1.57,-1.37,-1.61,6.06,6.06,6.06
32.89,7.62,1.57,7.62,1.58,-1.58,-1.40,-1.62,6.03,6.04,6.04
33.22,7.61,1.60,7.61,1.59,-1.59,-1.42,-1.62,6.01,6.02,6.01
33.55,7.60,1.60,7.60,1.60,-1.60,-1.45,-1.62,6.00,5.99,6.00
33.89,7.58,1.60,7.58,1.61,-1.61,-1.48,-1.62,5.97,5.97,5.97
34.23,7.57,1.62,7.57,1.62,-1.62,-1.50,-1.62,5.95,5.95,5.95
34.57,7.56,1.63,7.56,1.63,-1.63,-1.53,-1.62,5.93,5.93,5.93
34.92,7.55,1.64,7.54,1.63,-1.63,-1.55,-1.62,5.91,5.91,5.90
35.27,7.53,1.64,7.53,1.64,-1.64,-1.58,-1.62,5.88,5.89,5.89
35.62,7.52,1.65,7.52,1.65,-1.65,-1.60,-1.62,5.87,5.87,5.87
35.97,7.51,1.67,7.50,1.66,-1.66,-1.63,-1.62,5.85,5.85,5.84
36.33,7.50,1.67,7.49,1.67,-1.67,-1.66,-1.62,5.83,5.82,5.83
36.70,7.48,1.67,7.48,1.68,-1.68,-1.68,-1.62,5.80,5.80,5.80
37.06,7.47,1.69,7.47,1.69,-1.69,-1.71,-1.62,5.78,5.78,5.78
37.43,7.46,1.69,7.45,1.70,-1.70,-1.73,-1.62,5.76,5.76,5.76
37.81,7.44,1.70,7.44,1.71,-1.71,-1.76,-1.62,5.73,5.74,5.74
38.19,7.44,1.72,7.43,1.72,-1.72,-1.79,-1.62,5.72,5.72,5.71
38.57,7.43,1.73,7.43,1.73,-1.73,-1.81,-1.62,5.69,5.69,5.70
38.95,7.42,1.74,7.42,1.75,-1.75,-1.84,-1.62,5.67,5.67,5.67
39.34,7.41,1.76,7.41,1.76,-1.76,-1.86,-1.62,5.65,5.65,5.65
39.74,7.41,1.79,7.41,1.77,-1.77,-1.89,-1.63,5.63,5.63,5.62
40.14,7.40,1.78,7.40,1.79,-1.79,-1.91,-1.63,5.61,5.61,5.61
40.54,7.40,1.81,7.40,1.81,-1.81,-1.94,-1.64,5.59,5.59,5.59
40.94,7.40,1.83,7.40,1.83,-1.83,-1.96,-1.64,5.57,5.57,5.57
41.35,7.40,1.85,7.40,1.85,-1.85,-1.98,-1.65,5.55,5.55,5.54
41.76,7.41,1.87,7.40,1.87,-1.87,-2.01,-1.66,5.54,5.53,5.54
42.18,7.41,1.89,7.40,1.89,-1.89,-2.03,-1.67,5.51,5.51,5.52
42.60,7.41,1.91,7.41,1.92,-1.92,-2.05,-1.68,5.49,5.49,5.49
43.03,7.41,1.92,7.41,1.94,-1.94,-2.08,-1.70,5.46,5.47,5.48
43.46,7.42,1.96,7.42,1.97,-1.97,-2.10,-1.71,5.45,5.45,5.46
43.90,7.44,2.01,7.43,2.00,-2.00,-2.12,-1.73,5.44,5.43,5.43
44.33,7.44,2.03,7.44,2.02,-2.02,-2.14,-1.74,5.41,5.41,5.41
44.78,7.44,2.05,7.44,2.05,-2.05,-2.16,-1.76,5.38,5.39,5.39
45.23,7.46,2.10,7.45,2.08,-2.08,-2.18,-1.78,5.37,5.37,5.36
45.68,7.46,2.12,7.46,2.11,-2.11,-2.20,-1.80,5.34,5.35,5.34
46.13,7.47,2.15,7.47,2.14,-2.14,-2.22,-1.82,5.32,5.33,5.32
46.60,7.48,2.17,7.48,2.17,-2.17,-2.24,-1.85,5.30,5.30,5.31
47.06,7.49,2.20,7.48,2.20,-2.20,-2.26,-1.87,5.28,5.28,5.29
47.53,7.50,2.23,7.49,2.23,-2.23,-2.27,-1.90,5.26,5.26,5.26
48.01,7.50,2.24,7.50,2.26,-2.26,-2.29,-1.92,5.23,5.23,5.25
48.49,7.50,2.28,7.50,2.29,-2.29,-2.31,-1.95,5.21,5.21,5.22
48.97,7.51,2.32,7.50,2.32,-2.32,-2.32,-1.98,5.19,5.19,5.19
49.46,7.51,2.35,7.51,2.34,-2.34,-2.34,-2.01,5.16,5.16,5.15
49.96,7.51,2.39,7.51,2.37,-2.37,-2.35,-2.04,5.14,5.14,5.12
50.46,7.52,2.40,7.51,2.40,-2.40,-2.37,-2.08,5.12,5.11,5.12
50.96,7.51,2.42,7.51,2.42,-2.42,-2.38,-2.11,5.08,5.09,5.09
51.47,7.51,2.45,7.51,2.45,-2.45,-2.40,-2.14,5.06,5.06,5.05
51.99,7.51,2.48,7.51,2.47,-2.47,-2.41,-2.18,5.04,5.03,5.03
52.51,7.50,2.48,7.50,2.49,-2.49,-2.42,-2.21,5.00,5.01,5.01
53.03,7.50,2.51,7.50,2.52,-2.52,-2.44,-2.25,4.98,4.98,4.99
53.56,7.50,2.54,7.49,2.54,-2.54,-2.45,-2.28,4.96,4.95,4.96
54.10,7.49,2.56,7.48,2.56,-2.56,-2.46,-2.32,4.93,4.93,4.93
54.64,7.48,2.58,7.48,2.58,-2.58,-2.47,-2.35,4.90,4.90,4.90
55.18,7.47,2.60,7.47,2.59,-2.59,-2.49,-2.39,4.87,4.87,4.87
55.74,7.46,2.62,7.46,2.61,-2.61,-2.50,-2.43,4.85,4.85,4.84
56.29,7.44,2.62,7.45,2.63,-2.63,-2.51,-2.46,4.81,4.82,4.82
56.86,7.44,2.65,7.43,2.64,-2.64,-2.52,-2.49,4.79,4.79,4.79
57.42,7.42,2.66,7.42,2.66,-2.66,-2.53,-2.53,4.76,4.76,4.76
58.00,7.41,2.67,7.40,2.67,-2.67,-2.55,-2.56,4.74,4.73,4.73
58.58,7.39,2.69,7.39,2.69,-2.69,-2.56,-2.59,4.70,4.70,4.70
59.16,7.38,2.70,7.37,2.70,-2.70,-2.57,-2.62,4.68,4.67,4.68
59.76,7.36,2.71,7.35,2.71,-2.71,-2.58,-2.65,4.64,4.64,4.65
60.35,7.34,2.72,7.34,2.72,-2.72,-2.59,-2.68,4.61,4.61,4.61
60.96,7.31,2.71,7.32,2.74,-2.74,-2.61,-2.71,4.57,4.58,4.60
61.57,7.30,2.75,7.29,2.75,-2.75,-2.62,-2.73,4.55,4.55,4.55
62.18,7.28,2.77,7.27,2.75,-2.75,-2.63,-2.75,4.52,4.52,4.51
62.80,7.25,2.76,7.25,2.76,-2.76,-2.65,-2.78,4.48,4.49,4.48
63.43,7.23,2.78,7.22,2.77,-2.77,-2.66,-2.80,4.46,4.45,4.44
64.07,7.20,2.79,7.20,2.78,-2.78,-2.67,-2.82,4.42,4.42,4.41
64.71,7.18,2.79,7.17,2.78,-2.78,-2.69,-2.83,4.40,4.39,4.39
65.35,7.15,2.79,7.15,2.78,-2.78,-2.70,-2.85,4.36,4.36,4.36
66.01,7.12,2.78,7.12,2.79,-2.79,-2.72,-2.87,4.33,4.33,4.33
66.67,7.09,2.79,7.09,2.79,-2.79,-2.73,-2.88,4.29,4.30,4.30
67.33,7.07,2.79,7.06,2.79,-2.79,-2.75,-2.89,4.27,4.27,4.27
68.01,7.03,2.79,7.03,2.80,-2.80,-2.77,-2.91,4.23,4.24,4.24
68.69,7.01,2.80,7.00,2.80,-2.80,-2.78,-2.92,4.21,4.21,4.21
69.37,6.98,2.81,6.98,2.80,-2.80,-2.80,-2.93,4.17,4.17,4.17
70.07,6.95,2.81,6.95,2.81,-2.81,-2.82,-2.94,4.14,4.14,4.14
70.77,6.92,2.81,6.92,2.81,-2.81,-2.84,-2.96,4.11,4.11,4.11
71.48,6.89,2.82,6.89,2.82,-2.82,-2.86,-2.97,4.07,4.07,4.07
72.19,6.86,2.82,6.86,2.83,-2.83,-2.88,-2.98,4.03,4.03,4.04
72.91,6.84,2.84,6.83,2.84,-2.84,-2.90,-2.99,4.00,3.99,4.00
73.64,6.80,2.85,6.80,2.85,-2.85,-2.92,-3.01,3.95,3.95,3.95
74.38,6.77,2.85,6.77,2.86,-2.86,-2.95,-3.02,3.91,3.91,3.92
75.12,6.75,2.89,6.74,2.87,-2.87,-2.97,-3.04,3.87,3.87,3.86
75.87,6.72,2.89,6.72,2.89,-2.89,-3.00,-3.06,3.83,3.83,3.82
76.63,6.69,2.90,6.69,2.91,-2.91,-3.02,-3.08,3.78,3.78,3.78
77.40,6.66,2.92,6.66,2.93,-2.93,-3.05,-3.10,3.73,3.73,3.74
78.17,6.64,2.96,6.64,2.95,-2.95,-3.07,-3.12,3.69,3.69,3.68
78.95,6.62,2.97,6.61,2.97,-2.97,-3.10,-3.14,3.64,3.64,3.64
79.74,6.59,2.99,6.59,3.00,-3.00,-3.13,-3.17,3.59,3.59,3.59
80.54,6.56,3.02,6.57,3.03,-3.03,-3.16,-3.20,3.53,3.54,3.54
81.35,6.55,3.06,6.54,3.06,-3.06,-3.19,-3.23,3.49,3.49,3.49
82.16,6.53,3.10,6.52,3.09,-3.09,-3.22,-3.26,3.44,3.43,3.43
82.98,6.51,3.12,6.50,3.12,-3.12,-3.25,-3.30,3.38,3.38,3.39
83.81,6.49,3.17,6.48,3.16,-3.16,-3.28,-3.34,3.33,3.32,3.32
84.65,6.46,3.20,6.47,3.20,-3.20,-3.31,-3.38,3.26,3.27,3.26
85.50,6.45,3.23,6.45,3.24,-3.24,-3.35,-3.42,3.21,3.21,3.21
86.35,6.44,3.28,6.43,3.28,-3.28,-3.38,-3.47,3.16,3.15,3.15
87.22,6.42,3.32,6.42,3.32,-3.32,-3.42,-3.52,3.09,3.10,3.09
88.09,6.41,3.37,6.40,3.37,-3.37,-3.45,-3.57,3.04,3.04,3.03
88.97,6.39,3.40,6.39,3.41,-3.41,-3.49,-3.63,2.97,2.98,2.98
89.86,6.38,3.46,6.38,3.46,-3.46,-3.53,-3.69,2.92,2.92,2.92
90.76,6.37,3.52,6.37,3.51,-3.51,-3.56,-3.75,2.86,2.86,2.85
91.66,6.36,3.56,6.35,3.56,-3.56,-3.60,-3.81,2.80,2.80,2.80
92.58,6.34,3.61,6.34,3.61,-3.61,-3.64,-3.88,2.73,2.73,2.72
93.51,6.33,3.65,6.33,3.66,-3.66,-3.68,-3.94,2.67,2.67,2.68
94.44,6.33,3.71,6.32,3.71,-3.71,-3.72,-4.01,2.61,2.61,2.61
95.39,6.31,3.76,6.31,3.77,-3.77,-3.76,-4.09,2.54,2.54,2.55
96.34,6.30,3.82,6.30,3.82,-3.82,-3.80,-4.16,2.47,2.47,2.47
97.30,6.28,3.87,6.29,3.88,-3.88,-3.85,-4.24,2.40,2.41,2.41
98.28,6.28,3.94,6.27,3.94,-3.94,-3.89,-4.32,2.34,2.34,2.34
99.26,6.26,3.99,6.26,3.99,-3.99,-3.93,-4.40,2.27,2.27,2.26
100.25,6.25,4.05,6.24,4.05,-4.05,-3.97,-4.49,2.20,2.20,2.20
101.25,6.23,4.10,6.23,4.10,-4.10,-4.02,-4.57,2.12,2.13,2.13
102.27,6.22,4.17,6.21,4.16,-4.16,-4.06,-4.66,2.06,2.05,2.05
103.29,6.20,4.22,6.19,4.21,-4.21,-4.10,-4.74,1.98,1.98,1.97
104.32,6.18,4.27,6.18,4.27,-4.27,-4.15,-4.83,1.91,1.91,1.91
105.37,6.16,4.32,6.15,4.32,-4.32,-4.19,-4.92,1.83,1.83,1.84
106.42,6.13,4.37,6.13,4.37,-4.37,-4.23,-5.00,1.75,1.76,1.76
107.48,6.11,4.42,6.11,4.43,-4.43,-4.28,-5.09,1.68,1.68,1.68
108.56,6.08,4.47,6.08,4.48,-4.48,-4.32,-5.17,1.60,1.60,1.60
109.64,6.06,4.53,6.05,4.53,-4.53,-4.36,-5.25,1.53,1.53,1.53
110.74,6.03,4.57,6.02,4.57,-4.57,-4.41,-5.33,1.45,1.45,1.46
111.85,6.00,4.61,5.99,4.62,-4.62,-4.45,-5.40,1.38,1.37,1.38
112.97,5.96,4.67,5.96,4.66,-4.66,-4.49,-5.47,1.29,1.29,1.29
114.10,5.92,4.70,5.92,4.71,-4.71,-4.53,-5.53,1.21,1.22,1.22
115.24,5.89,4.74,5.88,4.74,-4.74,-4.57,-5.59,1.14,1.14,1.14
116.39,5.85,4.79,5.84,4.78,-4.78,-4.61,-5.65,1.07,1.06,1.06
117.55,5.81,4.83,5.80,4.82,-4.82,-4.65,-5.69,0.99,0.99,0.98
118.73,5.77,4.86,5.76,4.85,-4.85,-4.69,-5.73,0.92,0.91,0.91
119.92,5.72,4.88,5.72,4.87,-4.87,-4.73,-5.76,0.84,0.84,0.84
121.12,5.67,4.90,5.67,4.90,-4.90,-4.76,-5.78,0.77,0.77,0.77
122.33,5.62,4.92,5.62,4.92,-4.92,-4.80,-5.80,0.69,0.70,0.69
123.55,5.57,4.94,5.57,4.95,-4.95,-4.83,-5.80,0.62,0.62,0.63
124.79,5.52,4.96,5.52,4.96,-4.96,-4.86,-5.80,0.56,0.56,0.56
126.03,5.47,4.97,5.46,4.98,-4.98,-4.89,-5.78,0.49,0.49,0.50
127.29,5.41,4.98,5.41,4.99,-4.99,-4.92,-5.76,0.42,0.42,0.43
128.57,5.36,5.01,5.35,5.00,-5.00,-4.95,-5.73,0.36,0.36,0.35
129.85,5.31,5.02,5.30,5.01,-5.01,-4.97,-5.69,0.30,0.29,0.29
131.15,5.24,5.01,5.24,5.01,-5.01,-5.00,-5.64,0.23,0.23,0.23
132.46,5.19,5.02,5.18,5.01,-5.01,-5.02,-5.58,0.17,0.17,0.16
133.79,5.13,5.01,5.13,5.01,-5.01,-5.03,-5.51,0.11,0.11,0.12
135.12,5.07,5.02,5.07,5.01,-5.01,-5.05,-5.44,0.06,0.06,0.05
136.48,5.01,5.00,5.01,5.01,-5.01,-5.06,-5.36,0.00,0.01,0.01
137.84,4.95,4.99,4.95,5.00,-5.00,-5.07,-5.27,-0.05,-0.04,-0.04
139.22,4.90,5.00,4.90,4.99,-4.99,-5.08,-5.18,-0.09,-0.09,-0.10
140.61,4.84,4.99,4.84,4.98,-4.98,-5.09,-5.08,-0.14,-0.14,-0.15
142.02,4.79,4.96,4.79,4.97,-4.97,-5.09,-4.98,-0.18,-0.18,-0.17
143.44,4.73,4.94,4.73,4.95,-4.95,-5.09,-4.88,-0.23,-0.22,-0.22
144.87,4.67,4.93,4.68,4.94,-4.94,-5.09,-4.77,-0.27,-0.26,-0.26
146.32,4.63,4.93,4.62,4.92,-4.92,-5.08,-4.67,-0.30,-0.30,-0.30
147.78,4.57,4.90,4.57,4.91,-4.91,-5.07,-4.56,-0.34,-0.34,-0.33
149.26,4.52,4.88,4.52,4.89,-4.89,-5.06,-4.44,-0.37,-0.37,-0.37
150.75,4.46,4.87,4.46,4.87,-4.87,-5.04,-4.33,-0.41,-0.41,-0.41
152.26,4.41,4.85,4.41,4.85,-4.85,-5.02,-4.22,-0.45,-0.45,-0.45
153.78,4.36,4.84,4.35,4.83,-4.83,-5.00,-4.11,-0.47,-0.48,-0.48
155.32,4.30,4.81,4.29,4.81,-4.81,-4.98,-4.00,-0.51,-0.51,-0.51
156.88,4.24,4.78,4.24,4.78,-4.78,-4.95,-3.88,-0.55,-0.55,-0.54
158.44,4.18,4.76,4.18,4.76,-4.76,-4.92,-3.77,-0.58,-0.58,-0.58
160.03,4.12,4.74,4.11,4.73,-4.73,-4.88,-3.67,-0.61,-0.62,-0.62
161.63,4.05,4.71,4.05,4.70,-4.70,-4.85,-3.56,-0.65,-0.65,-0.66
163.24,3.98,4.67,3.98,4.67,-4.67,-4.81,-3.45,-0.69,-0.69,-0.69
164.88,3.92,4.63,3.91,4.64,-4.64,-4.76,-3.35,-0.72,-0.72,-0.72
166.53,3.85,4.60,3.84,4.60,-4.60,-4.72,-3.24,-0.75,-0.76,-0.75
168.19,3.77,4.56,3.77,4.56,-4.56,-4.67,-3.14,-0.79,-0.79,-0.80
169.87,3.69,4.52,3.69,4.52,-4.52,-4.61,-3.05,-0.83,-0.83,-0.83
171.57,3.62,4.48,3.61,4.48,-4.48,-4.56,-2.95,-0.86,-0.87,-0.86
173.29,3.53,4.42,3.52,4.43,-4.43,-4.50,-2.85,-0.91,-0.91,-0.90
175.02,3.45,4.38,3.44,4.39,-4.39,-4.44,-2.76,-0.94,-0.95,-0.94
176.77,3.36,4.34,3.35,4.34,-4.34,-4.38,-2.67,-0.98,-0.99,-0.99
178.54,3.27,4.29,3.26,4.29,-4.29,-4.31,-2.58,-1.02,-1.03,-1.03
180.32,3.17,4.23,3.17,4.23,-4.23,-4.24,-2.50,-1.07,-1.06,-1.07
182.13,3.07,4.17,3.08,4.18,-4.18,-4.17,-2.41,-1.11,-1.11,-1.10
183.95,2.97,4.12,2.98,4.13,-4.13,-4.10,-2.33,-1.16,-1.15,-1.15
185.79,2.88,4.06,2.88,4.07,-4.07,-4.02,-2.25,-1.19,-1.18,-1.19
187.65,2.78,4.01,2.79,4.01,-4.01,-3.94,-2.17,-1.23,-1.22,-1.23
189.52,2.68,3.94,2.69,3.95,-3.95,-3.86,-2.10,-1.27,-1.26,-1.27
191.42,2.59,3.89,2.59,3.88,-3.88,-3.78,-2.02,-1.30,-1.30,-1.30
193.33,2.49,3.81,2.49,3.82,-3.82,-3.70,-1.95,-1.33,-1.33,-1.32
195.27,2.39,3.74,2.38,3.75,-3.75,-3.61,-1.88,-1.36,-1.36,-1.36
197.22,2.28,3.66,2.28,3.67,-3.67,-3.52,-1.81,-1.39,-1.39,-1.39
199.19,2.18,3.62,2.17,3.59,-3.59,-3.43,-1.74,-1.42,-1.42,-1.44
201.18,2.07,3.53,2.06,3.51,-3.51,-3.34,-1.68,-1.44,-1.45,-1.46
203.19,1.95,3.42,1.94,3.42,-3.42,-3.25,-1.61,-1.48,-1.48,-1.48
205.23,1.84,3.34,1.83,3.33,-3.33,-3.15,-1.55,-1.50,-1.51,-1.51
207.28,1.72,3.23,1.71,3.24,-3.24,-3.06,-1.49,-1.52,-1.53,-1.52
209.35,1.59,3.14,1.59,3.14,-3.14,-2.96,-1.42,-1.55,-1.55,-1.55
211.44,1.47,3.05,1.46,3.04,-3.04,-2.86,-1.36,-1.57,-1.57,-1.58
213.56,1.34,2.93,1.33,2.93,-2.93,-2.76,-1.30,-1.59,-1.59,-1.60
215.69,1.20,2.80,1.20,2.81,-2.81,-2.65,-1.24,-1.62,-1.61,-1.60
217.85,1.07,2.69,1.07,2.70,-2.70,-2.55,-1.19,-1.63,-1.63,-1.62
220.03,0.94,2.58,0.94,2.58,-2.58,-2.44,-1.13,-1.64,-1.64,-1.64
222.23,0.82,2.48,0.81,2.46,-2.46,-2.34,-1.07,-1.64,-1.65,-1.66
224.45,0.68,2.33,0.68,2.33,-2.33,-2.23,-1.01,-1.66,-1.65,-1.65
226.70,0.55,2.21,0.55,2.21,-2.21,-2.12,-0.96,-1.66,-1.66,-1.67
228.96,0.42,2.09,0.42,2.08,-2.08,-2.00,-0.90,-1.67,-1.66,-1.67
231.25,0.29,1.95,0.29,1.95,-1.95,-1.89,-0.84,-1.67,-1.66,-1.66
233.57,0.16,1.81,0.16,1.82,-1.82,-1.77,-0.79,-1.67,-1.66,-1.65
235.90,0.03,1.68,0.04,1.69,-1.69,-1.66,-0.73,-1.67,-1.66,-1.66
238.26,-0.09,1.56,-0.09,1.56,-1.56,-1.54,-0.67,-1.66,-1.65,-1.66
240.64,-0.21,1.42,-0.21,1.43,-1.43,-1.42,-0.62,-1.65,-1.64,-1.64
243.05,-0.33,1.30,-0.33,1.30,-1.30,-1.29,-0.56,-1.63,-1.63,-1.63
245.48,-0.45,1.16,-0.45,1.17,-1.17,-1.17,-0.50,-1.62,-1.61,-1.61
247.93,-0.57,1.03,-0.56,1.03,-1.03,-1.04,-0.44,-1.61,-1.60,-1.60
250.41,-0.68,0.90,-0.68,0.90,-0.90,-0.92,-0.38,-1.58,-1.58,-1.59
252.92,-0.79,0.76,-0.80,0.76,-0.76,-0.78,-0.32,-1.56,-1.56,-1.56
255.45,-0.92,0.61,-0.92,0.62,-0.62,-0.65,-0.26,-1.55,-1.54,-1.54
258.00,-1.03,0.48,-1.04,0.48,-0.48,-0.52,-0.20,-1.52,-1.52,-1.51
260.58,-1.15,0.35,-1.16,0.34,-0.34,-0.38,-0.13,-1.49,-1.50,-1.50
263.19,-1.28,0.20,-1.29,0.19,-0.19,-0.24,-0.07,-1.47,-1.48,-1.48
265.82,-1.40,0.05,-1.42,0.04,-0.04,-0.10,-0.00,-1.44,-1.46,-1.46
268.48,-1.54,-0.11,-1.55,-0.12,0.12,0.05,0.06,-1.42,-1.43,-1.44
271.16,-1.67,-0.27,-1.69,-0.28,0.28,0.19,0.13,-1.40,-1.41,-1.40
273.87,-1.82,-0.43,-1.83,-0.44,0.44,0.34,0.20,-1.38,-1.39,-1.39
276.61,-1.96,-0.61,-1.97,-0.61,0.61,0.50,0.27,-1.36,-1.36,-1.36
279.38,-2.11,-0.77,-2.12,-0.78,0.78,0.65,0.34,-1.34,-1.34,-1.34
282.17,-2.27,-0.96,-2.27,-0.95,0.95,0.81,0.41,-1.32,-1.32,-1.32
284.99,-2.42,-1.13,-2.42,-1.12,1.12,0.97,0.49,-1.30,-1.29,-1.29
287.84,-2.58,-1.31,-2.57,-1.30,1.30,1.14,0.56,-1.28,-1.27,-1.27
290.72,-2.72,-1.49,-2.72,-1.48,1.48,1.31,0.64,-1.24,-1.24,-1.23
293.63,-2.88,-1.66,-2.87,-1.66,1.66,1.48,0.71,-1.22,-1.21,-1.22
296.57,-3.03,-1.85,-3.02,-1.84,1.84,1.66,0.79,-1.19,-1.18,-1.19
299.53,-3.18,-2.02,-3.18,-2.02,2.02,1.84,0.87,-1.16,-1.15,-1.16
302.53,-3.33,-2.20,-3.33,-2.21,2.21,2.03,0.95,-1.12,-1.12,-1.13
305.55,-3.49,-2.40,-3.49,-2.40,2.40,2.22,1.03,-1.10,-1.09,-1.09
308.61,-3.64,-2.58,-3.65,-2.59,2.59,2.41,1.12,-1.06,-1.06,-1.06
311.69,-3.79,-2.77,-3.81,-2.78,2.78,2.61,1.20,-1.02,-1.03,-1.03
314.81,-3.95,-2.96,-3.97,-2.97,2.97,2.81,1.29,-0.99,-1.00,-0.99
317.96,-4.12,-3.16,-4.13,-3.16,3.16,3.01,1.38,-0.96,-0.97,-0.97
321.14,-4.28,-3.34,-4.29,-3.35,3.35,3.22,1.47,-0.93,-0.94,-0.94
324.35,-4.46,-3.55,-4.46,-3.55,3.55,3.44,1.56,-0.92,-0.91,-0.91
327.59,-4.63,-3.76,-4.62,-3.74,3.74,3.65,1.65,-0.89,-0.88,-0.88
330.87,-4.80,-3.95,-4.80,-3.94,3.94,3.87,1.74,-0.86,-0.86,-0.85
334.18,-4.98,-4.15,-4.97,-4.14,4.14,4.10,1.84,-0.84,-0.83,-0.83
337.52,-5.15,-4.35,-5.15,-4.34,4.34,4.32,1.94,-0.81,-0.80,-0.81
340.90,-5.32,-4.54,-5.33,-4.55,4.55,4.55,2.04,-0.78,-0.78,-0.78
344.30,-5.50,-4.74,-5.51,-4.75,4.75,4.78,2.14,-0.75,-0.76,-0.76
347.75,-5.68,-4.95,-5.70,-4.96,4.96,5.01,2.24,-0.72,-0.74,-0.73
351.23,-5.84,-5.13,-5.89,-5.17,5.17,5.24,2.35,-0.67,-0.72,-0.72
354.74,-6.02,-5.32,-6.08,-5.38,5.38,5.47,2.46,-0.64,-0.70,-0.70
358.28,-6.24,-5.56,-6.27,-5.59,5.59,5.70,2.56,-0.66,-0.68,-0.68
361.87,-6.44,-5.78,-6.45,-5.79,5.79,5.92,2.68,-0.65,-0.66,-0.66
365.49,-6.64,-6.01,-6.64,-5.99,5.99,6.14,2.79,-0.65,-0.64,-0.64
369.14,-6.82,-6.20,-6.81,-6.19,6.19,6.35,2.90,-0.63,-0.62,-0.63
372.83,-7.00,-6.39,-6.99,-6.38,6.38,6.55,3.02,-0.62,-0.60,-0.61
376.56,-7.16,-6.57,-7.15,-6.56,6.56,6.74,3.14,-0.60,-0.59,-0.59
380.33,-7.32,-6.76,-7.30,-6.73,6.73,6.92,3.26,-0.59,-0.57,-0.56
384.13,-7.45,-6.91,-7.44,-6.89,6.89,7.08,3.38,-0.56,-0.55,-0.55
387.97,-7.57,-7.05,-7.56,-7.04,7.04,7.22,3.50,-0.54,-0.53,-0.53
391.85,-7.68,-7.17,-7.67,-7.16,7.16,7.34,3.63,-0.52,-0.51,-0.51
395.77,-7.76,-7.28,-7.75,-7.27,7.27,7.44,3.75,-0.49,-0.49,-0.48
399.73,-7.82,-7.36,-7.82,-7.36,7.36,7.52,3.88,-0.47,-0.47,-0.46
403.72,-7.88,-7.44,-7.87,-7.42,7.42,7.57,4.01,-0.46,-0.44,-0.44
407.76,-7.91,-7.49,-7.90,-7.47,7.47,7.60,4.14,-0.44,-0.42,-0.43
411.84,-7.92,-7.53,-7.91,-7.51,7.51,7.61,4.26,-0.42,-0.40,-0.40
415.96,-7.90,-7.52,-7.89,-7.52,7.52,7.58,4.39,-0.39,-0.38,-0.38
420.12,-7.87,-7.51,-7.86,-7.51,7.51,7.54,4.52,-0.37,-0.36,-0.36
424.32,-7.81,-7.48,-7.81,-7.48,7.48,7.47,4.64,-0.33,-0.33,-0.33
428.56,-7.75,-7.44,-7.75,-7.43,7.43,7.39,4.76,-0.32,-0.31,-0.31
432.85,-7.66,-7.37,-7.66,-7.37,7.37,7.28,4.89,-0.29,-0.29,-0.29
437.18,-7.56,-7.30,-7.55,-7.29,7.29,7.16,5.00,-0.27,-0.26,-0.26
441.55,-7.44,-7.21,-7.43,-7.19,7.19,7.02,5.12,-0.25,-0.24,-0.24
445.96,-7.31,-7.10,-7.30,-7.09,7.09,6.87,5.23,-0.23,-0.21,-0.22
450.42,-7.15,-6.96,-7.15,-6.96,6.96,6.72,5.33,-0.19,-0.19,-0.20
454.93,-6.99,-6.84,-6.99,-6.83,6.83,6.55,5.43,-0.17,-0.16,-0.16
459.48,-6.81,-6.67,-6.81,-6.68,6.68,6.38,5.52,-0.13,-0.13,-0.14
464.07,-6.62,-6.51,-6.63,-6.53,6.53,6.21,5.61,-0.10,-0.11,-0.11
468.71,-6.43,-6.36,-6.44,-6.36,6.36,6.03,5.68,-0.07,-0.08,-0.07
473.40,-6.23,-6.18,-6.24,-6.19,6.19,5.85,5.75,-0.04,-0.05,-0.05
478.13,-6.03,-6.01,-6.04,-6.02,6.02,5.67,5.81,-0.02,-0.02,-0.02
482.91,-5.82,-5.83,-5.83,-5.83,5.83,5.50,5.86,0.01,0.01,0.01
487.74,-5.61,-5.65,-5.61,-5.65,5.65,5.32,5.89,0.03,0.03,0.04
492.62,-5.39,-5.46,-5.40,-5.46,5.46,5.15,5.92,0.06,0.06,0.07
497.55,-5.16,-5.25,-5.18,-5.27,5.27,4.98,5.94,0.10,0.09,0.08
502.52,-4.95,-5.08,-4.95,-5.07,5.07,4.81,5.94,0.12,0.12,0.12
507.55,-4.73,-4.88,-4.73,-4.88,4.88,4.65,5.93,0.14,0.15,0.14
