frequency,raw,error,smoothed,error_smoothed,equalization,parametric_eq,fixed_band_eq,equalized_raw,equalized_smoothed,target
20.00,3.02,-9.10,3.01,-9.11,9.11,8.24,3.73,12.12,12.12,12.12
20.20,3.05,-9.06,3.04,-9.06,9.06,8.31,3.83,12.11,12.11,12.11
20.40,3.08,-9.02,3.08,-9.02,9.02,8.38,3.93,12.10,12.10,12.10
20.61,3.11,-8.98,3.11,-8.98,8.98,8.44,4.04,12.08,12.08,12.09
20.81,3.14,-8.93,3.14,-8.93,8.93,8.50,4.15,12.07,12.07,12.07
21.02,3.17,-8.89,3.17,-8.89,8.89,8.56,4.26,12.06,12.06,12.05
21.23,3.21,-8.84,3.20,-8.85,8.85,8.61,4.38,12.05,12.05,12.04
21.44,3.24,-8.82,3.23,-8.81,8.81,8.65,4.50,12.04,12.04,12.05
21.66,3.27,-8.77,3.27,-8.77,8.77,8.69,4.62,12.03,12.03,12.03
21.87,3.30,-8.73,3.30,-8.72,8.72,8.73,4.75,12.02,12.02,12.03
22.09,3.33,-8.68,3.33,-8.69,8.69,8.76,4.88,12.01,12.01,12.01
22.31,3.36,-8.65,3.36,-8.65,8.65,8.79,5.01,12.00,12.01,12.01
22.54,3.40,-8.60,3.39,-8.61,8.61,8.81,5.15,12.00,12.00,12.00
22.76,3.43,-8.57,3.43,-8.57,8.57,8.82,5.29,11.99,11.99,12.00
22.99,3.46,-8.53,3.46,-8.53,8.53,8.84,5.43,11.99,11.99,11.99
23.22,3.49,-8.49,3.49,-8.49,8.49,8.84,5.58,11.98,11.98,11.97
23.45,3.52,-8.47,3.52,-8.46,8.46,8.84,5.73,11.97,11.98,11.98
23.69,3.56,-8.42,3.55,-8.42,8.42,8.84,5.88,11.98,11.97,11.97
23.92,3.59,-8.37,3.58,-8.39,8.39,8.83,6.04,11.97,11.97,11.96
24.16,3.62,-8.35,3.61,-8.35,8.35,8.82,6.20,11.97,11.97,11.97
24.40,3.65,-8.32,3.64,-8.32,8.32,8.80,6.37,11.97,11.96,11.97
24.65,3.68,-8.29,3.67,-8.29,8.29,8.78,6.53,11.96,11.96,11.97
24.89,3.71,-8.26,3.70,-8.25,8.25,8.76,6.70,11.96,11.96,11.96
25.14,3.74,-8.22,3.73,-8.22,8.22,8.73,6.87,11.96,11.96,11.95
25.39,3.76,-8.19,3.76,-8.19,8.19,8.69,7.05,11.95,11.95,11.95
25.65,3.79,-8.16,3.79,-8.16,8.16,8.66,7.22,11.95,11.95,11.95
25.91,3.82,-8.13,3.82,-8.13,8.13,8.62,7.40,11.95,11.95,11.95
26.16,3.85,-8.11,3.85,-8.10,8.10,8.58,7.58,11.95,11.95,11.95
26.43,3.88,-8.08,3.88,-8.07,8.07,8.53,7.75,11.95,11.95,11.95
26.69,3.91,-8.04,3.90,-8.05,8.05,8.48,7.93,11.95,11.95,11.95
26.96,3.94,-8.01,3.93,-8.02,8.02,8.44,8.10,11.95,11.95,11.95
27.23,3.96,-7.99,3.96,-7.99,7.99,8.38,8.28,11.95,11.95,11.95
27.50,3.99,-7.96,3.99,-7.96,7.96,8.33,8.44,11.95,11.95,11.94
27.77,4.02,-7.93,4.01,-7.94,7.94,8.28,8.61,11.95,11.95,11.95
28.05,4.04,-7.91,4.04,-7.91,7.91,8.22,8.77,11.95,11.95,11.95
28.33,4.07,-7.89,4.07,-7.89,7.89,8.17,8.92,11.95,11.95,11.96
28.62,4.10,-7.86,4.09,-7.86,7.86,8.11,9.06,11.96,11.95,11.95
28.90,4.12,-7.84,4.12,-7.84,7.84,8.05,9.20,11.95,11.95,11.96
29.19,4.15,-7.81,4.14,-7.81,7.81,8.00,9.32,11.96,11.95,11.96
29.48,4.17,-7.79,4.16,-7.78,7.78,7.94,9.43,11.95,11.95,11.95
29.78,4.19,-7.76,4.19,-7.76,7.76,7.88,9.53,11.94,11.95,11.95
30.08,4.21,-7.74,4.21,-7.73,7.73,7.82,9.61,11.94,11.94,11.95
30.38,4.23,-7.71,4.23,-7.71,7.71,7.77,9.68,11.93,11.94,11.93
30.68,4.25,-7.68,4.25,-7.68,7.68,7.71,9.73,11.93,11.93,11.93
30.99,4.27,-7.66,4.27,-7.66,7.66,7.66,9.77,11.93,11.93,11.93
31.30,4.29,-7.64,4.28,-7.64,7.64,7.60,9.79,11.92,11.92,11.92
31.61,4.31,-7.61,4.30,-7.61,7.61,7.55,9.79,11.92,11.91,11.92
31.93,4.33,-7.57,4.32,-7.59,7.59,7.50,9.77,11.91,11.90,11.89
32.24,4.34,-7.56,4.33,-7.56,7.56,7.45,9.74,11.90,11.90,11.90
32.57,4.35,-7.54,4.34,-7.54,7.54,7.40,9.70,11.89,11.89,11.88
32.89,4.36,-7.52,4.36,-7.52,7.52,7.36,9.64,11.88,11.88,11.88
33.22,4.37,-7.51,4.37,-7.50,7.50,7.31,9.56,11.87,11.87,11.87
33.55,4.38,-7.49,4.38,-7.48,7.48,7.27,9.48,11.86,11.86,11.87
33.89,4.40,-7.46,4.40,-7.46,7.46,7.23,9.38,11.86,11.86,11.85
34.23,4.41,-7.43,4.41,-7.44,7.44,7.19,9.27,11.84,11.85,11.84
34.57,4.42,-7.41,4.42,-7.41,7.41,7.16,9.16,11.83,11.84,11.83
34.92,4.44,-7.38,4.43,-7.39,7.39,7.12,9.04,11.83,11.82,11.81
35.27,4.45,-7.38,4.45,-7.36,7.36,7.09,8.91,11.81,11.81,11.83
35.62,4.46,-7.35,4.46,-7.34,7.34,7.06,8.78,11.79,11.80,11.80
35.97,4.48,-7.32,4.48,-7.31,7.31,7.03,8.64,11.79,11.78,11.79
36.33,4.49,-7.29,4.49,-7.28,7.28,7.01,8.50,11.76,11.77,11.78
36.70,4.51,-7.24,4.50,-7.25,7.25,6.99,8.37,11.75,11.75,11.75
37.06,4.52,-7.22,4.52,-7.21,7.21,6.97,8.23,11.73,11.73,11.73
37.43,4.54,-7.18,4.53,-7.18,7.18,6.95,8.09,11.72,11.71,11.71
37.81,4.55,-7.15,4.55,-7.15,7.15,6.93,7.95,11.69,11.69,11.70
38.19,4.57,-7.10,4.56,-7.11,7.11,6.92,7.82,11.68,11.67,11.67
38.57,4.58,-7.07,4.57,-7.08,7.08,6.91,7.68,11.65,11.65,11.65
38.95,4.59,-7.04,4.58,-7.04,7.04,6.90,7.55,11.63,11.62,11.63
39.34,4.60,-7.00,4.60,-7.00,7.00,6.89,7.43,11.60,11.60,11.60
39.74,4.61,-6.96,4.61,-6.97,6.97,6.89,7.30,11.58,11.58,11.57
40.14,4.62,-6.93,4.62,-6.93,6.93,6.88,7.18,11.55,11.55,11.55
40.54,4.63,-6.90,4.63,-6.90,6.90,6.88,7.07,11.52,11.53,11.53
40.94,4.64,-6.86,4.64,-6.86,6.86,6.88,6.95,11.50,11.50,11.50
41.35,4.65,-6.83,4.65,-6.83,6.83,6.88,6.85,11.47,11.48,11.47
41.76,4.66,-6.79,4.66,-6.79,6.79,6.89,6.74,11.45,11.45,11.44
42.18,4.67,-6.76,4.67,-6.76,6.76,6.89,6.65,11.42,11.42,11.43
42.60,4.68,-6.72,4.68,-6.72,6.72,6.89,6.55,11.39,11.40,11.40
43.03,4.69,-6.69,4.69,-6.68,6.68,6.90,6.46,11.37,11.37,11.37
43.46,4.70,-6.64,4.70,-6.64,6.64,6.90,6.38,11.34,11.34,11.34
43.90,4.72,-6.60,4.71,-6.61,6.61,6.90,6.30,11.32,11.31,11.31
44.33,4.72,-6.56,4.72,-6.57,6.57,6.91,6.23,11.28,11.28,11.28
44.78,4.73,-6.53,4.72,-6.53,6.53,6.91,6.16,11.25,11.25,11.25
45.23,4.73,-6.50,4.73,-6.49,6.49,6.91,6.09,11.21,11.22,11.23
45.68,4.74,-6.45,4.73,-6.45,6.45,6.91,6.03,11.18,11.18,11.18
46.13,4.74,-6.41,4.74,-6.41,6.41,6.90,5.97,11.14,11.14,11.14
46.60,4.75,-6.36,4.74,-6.36,6.36,6.90,5.92,11.11,11.10,11.11
47.06,4.75,-6.32,4.74,-6.32,6.32,6.89,5.88,11.07,11.06,11.07
47.53,4.74,-6.29,4.74,-6.28,6.28,6.88,5.83,11.02,11.02,11.03
48.01,4.74,-6.23,4.74,-6.24,6.24,6.86,5.79,10.97,10.97,10.97
48.49,4.74,-6.19,4.73,-6.19,6.19,6.84,5.76,10.93,10.93,10.93
48.97,4.73,-6.15,4.73,-6.15,6.15,6.82,5.73,10.88,10.88,10.88
49.46,4.73,-6.11,4.73,-6.11,6.11,6.79,5.70,10.83,10.84,10.83
49.96,4.72,-6.06,4.73,-6.06,6.06,6.76,5.67,10.78,10.79,10.77
50.46,4.72,-6.02,4.72,-6.02,6.02,6.72,5.65,10.73,10.74,10.74
50.96,4.72,-5.98,4.72,-5.97,5.97,6.68,5.63,10.69,10.69,10.69
51.47,4.72,-5.93,4.72,-5.93,5.93,6.63,5.61,10.64,10.65,10.65
51.99,4.72,-5.88,4.72,-5.88,5.88,6.58,5.60,10.60,10.60,10.59
52.51,4.72,-5.84,4.72,-5.84,5.84,6.52,5.59,10.55,10.55,10.56
53.03,4.72,-5.80,4.72,-5.79,5.79,6.46,5.57,10.51,10.51,10.52
53.56,4.72,-5.75,4.71,-5.74,5.74,6.40,5.56,10.46,10.46,10.47
54.10,4.72,-5.69,4.71,-5.70,5.70,6.33,5.55,10.42,10.41,10.41
54.64,4.72,-5.65,4.72,-5.65,5.65,6.25,5.54,10.37,10.37,10.37
55.18,4.72,-5.60,4.72,-5.61,5.61,6.17,5.53,10.33,10.33,10.32
55.74,4.72,-5.55,4.72,-5.56,5.56,6.09,5.52,10.28,10.28,10.26
56.29,4.72,-5.52,4.72,-5.52,5.52,6.00,5.51,10.24,10.24,10.23
56.86,4.72,-5.47,4.72,-5.47,5.47,5.92,5.50,10.19,10.19,10.19
57.42,4.72,-5.42,4.72,-5.43,5.43,5.82,5.48,10.14,10.14,10.13
58.00,4.72,-5.37,4.72,-5.38,5.38,5.73,5.47,10.09,10.09,10.08
58.58,4.72,-5.33,4.72,-5.32,5.32,5.63,5.45,10.04,10.04,10.05
59.16,4.72,-5.29,4.72,-5.27,5.27,5.54,5.42,9.99,9.99,10.01
59.76,4.72,-5.24,4.72,-5.22,5.22,5.44,5.40,9.93,9.93,9.96
60.35,4.72,-5.18,4.72,-5.16,5.16,5.34,5.37,9.88,9.88,9.90
60.96,4.72,-5.12,4.72,-5.10,5.10,5.23,5.33,9.82,9.82,9.84
61.57,4.72,-5.05,4.72,-5.05,5.05,5.13,5.29,9.76,9.76,9.76
62.18,4.72,-4.98,4.71,-4.99,4.99,5.03,5.25,9.70,9.70,9.70
62.80,4.72,-4.91,4.71,-4.93,4.93,4.93,5.20,9.65,9.64,9.63
63.43,4.72,-4.85,4.71,-4.87,4.87,4.83,5.15,9.59,9.58,9.56
64.07,4.72,-4.79,4.71,-4.81,4.81,4.72,5.09,9.53,9.52,9.51
64.71,4.72,-4.73,4.71,-4.75,4.75,4.62,5.03,9.46,9.45,9.45
65.35,4.72,-4.67,4.71,-4.68,4.68,4.52,4.97,9.40,9.39,9.39
66.01,4.71,-4.62,4.71,-4.62,4.62,4.43,4.90,9.33,9.33,9.32
66.67,4.70,-4.57,4.71,-4.55,4.55,4.33,4.82,9.25,9.26,9.27
67.33,4.70,-4.50,4.71,-4.49,4.49,4.23,4.75,9.18,9.20,9.20
68.01,4.70,-4.44,4.71,-4.42,4.42,4.14,4.67,9.12,9.13,9.14
68.69,4.71,-4.37,4.72,-4.35,4.35,4.04,4.58,9.06,9.07,9.07
69.37,4.72,-4.30,4.73,-4.28,4.28,3.95,4.50,8.99,9.00,9.01
70.07,4.73,-4.22,4.73,-4.20,4.20,3.86,4.41,8.93,8.94,8.94
70.77,4.75,-4.13,4.74,-4.13,4.13,3.77,4.32,8.87,8.87,8.87
71.48,4.76,-4.05,4.75,-4.05,4.05,3.68,4.22,8.81,8.80,8.81
72.19,4.77,-3.97,4.76,-3.97,3.97,3.60,4.13,8.74,8.74,8.74
72.91,4.79,-3.88,4.77,-3.90,3.90,3.51,4.03,8.68,8.67,8.66
73.64,4.80,-3.80,4.79,-3.82,3.82,3.43,3.94,8.61,8.60,8.60
74.38,4.80,-3.73,4.80,-3.74,3.74,3.35,3.84,8.54,8.54,8.53
75.12,4.81,-3.66,4.80,-3.67,3.67,3.27,3.74,8.48,8.47,8.47
75.87,4.81,-3.60,4.81,-3.60,3.60,3.19,3.65,8.41,8.41,8.41
76.63,4.82,-3.52,4.81,-3.53,3.53,3.11,3.55,8.35,8.35,8.34
77.40,4.82,-3.47,4.81,-3.47,3.47,3.04,3.46,8.29,8.28,8.29
78.17,4.82,-3.40,4.81,-3.41,3.41,2.97,3.36,8.22,8.22,8.21
78.95,4.81,-3.36,4.81,-3.35,3.35,2.89,3.27,8.16,8.16,8.17
79.74,4.81,-3.29,4.80,-3.30,3.30,2.82,3.17,8.10,8.10,8.10
80.54,4.80,-3.25,4.79,-3.24,3.24,2.76,3.08,8.04,8.04,8.04
81.35,4.80,-3.18,4.78,-3.19,3.19,2.69,2.99,7.99,7.98,7.97
82.16,4.79,-3.14,4.77,-3.14,3.14,2.62,2.90,7.93,7.91,7.92
82.98,4.77,-3.09,4.76,-3.09,3.09,2.56,2.81,7.85,7.85,7.85
83.81,4.76,-3.04,4.75,-3.03,3.03,2.49,2.73,7.79,7.79,7.79
84.65,4.75,-2.97,4.74,-2.98,2.98,2.43,2.64,7.72,7.72,7.72
85.50,4.73,-2.93,4.73,-2.92,2.92,2.37,2.56,7.65,7.66,7.65
86.35,4.71,-2.88,4.73,-2.86,2.86,2.31,2.48,7.57,7.59,7.59
87.22,4.70,-2.83,4.72,-2.80,2.80,2.25,2.40,7.50,7.52,7.52
88.09,4.70,-2.76,4.72,-2.74,2.74,2.20,2.32,7.44,7.46,7.46
88.97,4.71,-2.68,4.71,-2.68,2.68,2.14,2.25,7.38,7.39,7.39
89.86,4.72,-2.60,4.71,-2.61,2.61,2.08,2.17,7.33,7.32,7.32
90.76,4.72,-2.53,4.71,-2.54,2.54,2.03,2.10,7.26,7.25,7.25
91.66,4.72,-2.46,4.71,-2.47,2.47,1.98,2.03,7.18,7.18,7.17
92.58,4.72,-2.39,4.71,-2.40,2.40,1.92,1.96,7.11,7.10,7.11
93.51,4.72,-2.32,4.71,-2.32,2.32,1.87,1.89,7.04,7.03,7.04
94.44,4.72,-2.25,4.71,-2.24,2.24,1.82,1.82,6.96,6.96,6.97
95.39,4.72,-2.17,4.72,-2.17,2.17,1.77,1.76,6.88,6.88,6.88
96.34,4.72,-2.10,4.72,-2.09,2.09,1.72,1.70,6.81,6.81,6.81
97.30,4.72,-2.02,4.72,-2.02,2.02,1.67,1.63,6.73,6.74,6.74
98.28,4.72,-1.94,4.72,-1.94,1.94,1.62,1.57,6.66,6.66,6.65
99.26,4.72,-1.86,4.72,-1.87,1.87,1.57,1.51,6.59,6.59,6.58
100.25,4.72,-1.79,4.72,-1.80,1.80,1.53,1.45,6.52,6.52,6.51
101.25,4.72,-1.72,4.72,-1.73,1.73,1.48,1.40,6.45,6.45,6.44
102.27,4.72,-1.66,4.72,-1.66,1.66,1.43,1.34,6.37,6.37,6.37
103.29,4.72,-1.58,4.72,-1.59,1.59,1.39,1.29,6.30,6.30,6.30
104.32,4.72,-1.52,4.72,-1.52,1.52,1.34,1.23,6.24,6.24,6.23
105.37,4.72,-1.45,4.72,-1.45,1.45,1.30,1.18,6.17,6.17,6.17
106.42,4.72,-1.39,4.72,-1.38,1.38,1.25,1.13,6.10,6.10,6.10
107.48,4.72,-1.31,4.72,-1.31,1.31,1.21,1.08,6.03,6.03,6.03
108.56,4.72,-1.25,4.72,-1.24,1.24,1.16,1.03,5.96,5.96,5.96
109.64,4.72,-1.18,4.72,-1.17,1.17,1.12,0.98,5.89,5.89,5.90
110.74,4.72,-1.11,4.72,-1.10,1.10,1.07,0.93,5.82,5.82,5.82
111.85,4.72,-1.03,4.71,-1.03,1.03,1.03,0.89,5.75,5.75,5.75
112.97,4.72,-0.97,4.71,-0.96,0.96,0.99,0.84,5.68,5.67,5.68
114.10,4.72,-0.89,4.71,-0.89,0.89,0.94,0.80,5.60,5.60,5.61
115.24,4.72,-0.81,4.72,-0.82,0.82,0.90,0.75,5.53,5.53,5.53
116.39,4.72,-0.74,4.72,-0.74,0.74,0.86,0.71,5.46,5.46,5.45
117.55,4.72,-0.66,4.72,-0.67,0.67,0.81,0.67,5.39,5.39,5.38
118.73,4.72,-0.59,4.72,-0.60,0.60,0.77,0.62,5.31,5.32,5.31
119.92,4.72,-0.53,4.73,-0.53,0.53,0.72,0.58,5.24,5.25,5.25
121.12,4.72,-0.47,4.73,-0.45,0.45,0.68,0.54,5.17,5.18,5.19
122.33,4.72,-0.40,4.73,-0.38,0.38,0.64,0.50,5.10,5.11,5.11
123.55,4.73,-0.33,4.73,-0.31,0.31,0.59,0.46,5.04,5.05,5.06
124.79,4.74,-0.25,4.73,-0.25,0.25,0.55,0.42,4.98,4.98,4.99
126.03,4.75,-0.17,4.73,-0.18,0.18,0.51,0.38,4.93,4.91,4.92
127.29,4.74,-0.12,4.72,-0.12,0.12,0.46,0.34,4.86,4.84,4.85
128.57,4.73,-0.05,4.71,-0.07,0.07,0.42,0.31,4.80,4.78,4.78
129.85,4.72,0.01,4.69,-0.01,0.01,0.37,0.27,4.73,4.71,4.71
131.15,4.69,0.05,4.68,0.04,-0.04,0.33,0.23,4.65,4.64,4.64
132.46,4.68,0.10,4.66,0.08,-0.08,0.28,0.19,4.59,4.57,4.57
133.79,4.65,0.15,4.64,0.13,-0.13,0.24,0.16,4.52,4.51,4.50
135.12,4.60,0.16,4.61,0.17,-0.17,0.19,0.12,4.43,4.44,4.44
136.48,4.58,0.20,4.58,0.21,-0.21,0.15,0.08,4.37,4.38,4.38
137.84,4.54,0.23,4.55,0.24,-0.24,0.10,0.05,4.29,4.31,4.31
139.22,4.51,0.26,4.52,0.28,-0.28,0.06,0.01,4.23,4.25,4.24
140.61,4.49,0.30,4.49,0.31,-0.31,0.01,-0.03,4.18,4.19,4.19
142.02,4.47,0.35,4.47,0.34,-0.34,-0.04,-0.06,4.13,4.13,4.12
143.44,4.45,0.38,4.44,0.37,-0.37,-0.08,-0.10,4.08,4.07,4.07
144.87,4.41,0.39,4.41,0.40,-0.40,-0.13,-0.14,4.01,4.01,4.01
146.32,4.39,0.43,4.39,0.43,-0.43,-0.18,-0.17,3.96,3.96,3.95
147.78,4.36,0.45,4.36,0.46,-0.46,-0.23,-0.21,3.89,3.90,3.90
149.26,4.33,0.48,4.34,0.49,-0.49,-0.28,-0.25,3.84,3.84,3.84
150.75,4.30,0.51,4.31,0.52,-0.52,-0.32,-0.29,3.78,3.79,3.78
152.26,4.29,0.55,4.28,0.55,-0.55,-0.37,-0.33,3.74,3.73,3.74
153.78,4.26,0.57,4.25,0.57,-0.57,-0.42,-0.37,3.69,3.68,3.68
155.32,4.24,0.61,4.22,0.59,-0.59,-0.47,-0.41,3.64,3.63,3.63
156.88,4.20,0.62,4.18,0.61,-0.61,-0.52,-0.45,3.59,3.57,3.58
158.44,4.17,0.65,4.14,0.63,-0.63,-0.57,-0.49,3.54,3.52,3.51
160.03,4.12,0.65,4.11,0.65,-0.65,-0.62,-0.53,3.47,3.46,3.46
161.63,4.08,0.67,4.07,0.66,-0.66,-0.67,-0.57,3.41,3.40,3.41
163.24,4.05,0.70,4.03,0.68,-0.68,-0.72,-0.61,3.37,3.35,3.35
164.88,3.99,0.69,3.99,0.70,-0.70,-0.77,-0.66,3.29,3.29,3.29
166.53,3.95,0.72,3.95,0.71,-0.71,-0.82,-0.70,3.23,3.23,3.23
168.19,3.92,0.73,3.91,0.74,-0.74,-0.87,-0.75,3.18,3.18,3.18
169.87,3.87,0.75,3.88,0.76,-0.76,-0.92,-0.79,3.10,3.12,3.12
171.57,3.85,0.79,3.86,0.79,-0.79,-0.97,-0.84,3.05,3.06,3.06
173.29,3.83,0.82,3.84,0.83,-0.83,-1.02,-0.89,2.99,3.01,3.01
175.02,3.81,0.86,3.83,0.88,-0.88,-1.07,-0.94,2.93,2.95,2.95
176.77,3.80,0.90,3.82,0.93,-0.93,-1.12,-0.99,2.87,2.89,2.89
178.54,3.80,0.96,3.83,0.99,-0.99,-1.18,-1.04,2.81,2.84,2.84
180.32,3.81,1.03,3.84,1.05,-1.05,-1.23,-1.09,2.75,2.78,2.77
182.13,3.83,1.10,3.85,1.13,-1.13,-1.28,-1.14,2.70,2.73,2.73
183.95,3.87,1.19,3.88,1.21,-1.21,-1.33,-1.19,2.66,2.67,2.68
185.79,3.91,1.29,3.90,1.28,-1.28,-1.37,-1.25,2.62,2.62,2.62
187.65,3.94,1.37,3.93,1.37,-1.37,-1.42,-1.30,2.57,2.57,2.57
189.52,3.98,1.46,3.96,1.44,-1.44,-1.47,-1.36,2.53,2.51,2.52
191.42,4.01,1.54,3.99,1.52,-1.52,-1.52,-1.41,2.48,2.46,2.47
193.33,4.04,1.62,4.01,1.60,-1.60,-1.57,-1.47,2.44,2.41,2.42
195.27,4.06,1.69,4.03,1.66,-1.66,-1.62,-1.53,2.39,2.37,2.37
197.22,4.08,1.77,4.05,1.73,-1.73,-1.66,-1.59,2.35,2.32,2.31
199.19,4.09,1.81,4.07,1.79,-1.79,-1.71,-1.64,2.30,2.28,2.28
201.18,4.10,1.87,4.08,1.84,-1.84,-1.75,-1.70,2.26,2.24,2.22
203.19,4.09,1.89,4.08,1.89,-1.89,-1.80,-1.76,2.20,2.20,2.19
205.23,4.08,1.91,4.08,1.93,-1.93,-1.84,-1.82,2.15,2.16,2.16
207.28,4.07,1.94,4.08,1.97,-1.97,-1.88,-1.88,2.10,2.12,2.12
209.35,4.07,1.98,4.08,2.00,-2.00,-1.92,-1.93,2.07,2.08,2.08
211.44,4.07,2.02,4.08,2.03,-2.03,-1.96,-1.99,2.03,2.04,2.04
213.56,4.07,2.05,4.07,2.06,-2.06,-2.00,-2.05,2.00,2.01,2.02
215.69,4.07,2.08,4.07,2.10,-2.10,-2.03,-2.10,1.97,1.98,1.98
217.85,4.07,2.12,4.07,2.13,-2.13,-2.07,-2.15,1.94,1.94,1.95
220.03,4.07,2.15,4.07,2.16,-2.16,-2.10,-2.21,1.91,1.91,1.91
222.23,4.07,2.19,4.07,2.19,-2.19,-2.13,-2.25,1.88,1.88,1.88
224.45,4.07,2.21,4.08,2.22,-2.22,-2.16,-2.30,1.85,1.86,1.85
226.70,4.07,2.24,4.08,2.25,-2.25,-2.19,-2.34,1.81,1.83,1.82
228.96,4.08,2.27,4.08,2.28,-2.28,-2.22,-2.39,1.80,1.80,1.81
231.25,4.08,2.30,4.08,2.30,-2.30,-2.24,-2.42,1.77,1.78,1.78
233.57,4.09,2.33,4.08,2.32,-2.32,-2.26,-2.46,1.77,1.76,1.76
235.90,4.09,2.35,4.08,2.34,-2.34,-2.28,-2.49,1.75,1.74,1.74
238.26,4.09,2.37,4.07,2.34,-2.34,-2.30,-2.51,1.74,1.72,1.71
240.64,4.08,2.36,4.06,2.35,-2.35,-2.32,-2.53,1.73,1.71,1.71
243.05,4.07,2.37,4.04,2.35,-2.35,-2.33,-2.55,1.72,1.70,1.70
245.48,4.05,2.37,4.02,2.34,-2.34,-2.34,-2.56,1.71,1.68,1.68
247.93,4.01,2.34,4.00,2.32,-2.32,-2.35,-2.57,1.68,1.67,1.66
250.41,3.99,2.32,3.97,2.31,-2.31,-2.36,-2.58,1.68,1.66,1.67
252.92,3.94,2.27,3.95,2.29,-2.29,-2.36,-2.57,1.65,1.66,1.66
255.45,3.92,2.27,3.92,2.27,-2.27,-2.37,-2.57,1.65,1.65,1.65
258.00,3.89,2.24,3.89,2.25,-2.25,-2.37,-2.56,1.64,1.64,1.64
260.58,3.85,2.21,3.86,2.23,-2.23,-2.36,-2.54,1.62,1.64,1.64
263.19,3.82,2.18,3.84,2.21,-2.21,-2.36,-2.52,1.61,1.63,1.64
265.82,3.79,2.16,3.82,2.19,-2.19,-2.35,-2.50,1.59,1.62,1.62
268.48,3.77,2.14,3.80,2.18,-2.18,-2.34,-2.47,1.59,1.62,1.62
271.16,3.76,2.14,3.78,2.16,-2.16,-2.33,-2.44,1.59,1.61,1.62
273.87,3.76,2.15,3.76,2.15,-2.15,-2.32,-2.40,1.61,1.61,1.61
276.61,3.75,2.14,3.74,2.14,-2.14,-2.30,-2.36,1.61,1.60,1.61
279.38,3.74,2.15,3.72,2.12,-2.12,-2.28,-2.32,1.61,1.60,1.59
282.17,3.73,2.14,3.70,2.11,-2.11,-2.26,-2.28,1.62,1.60,1.59
284.99,3.72,2.12,3.68,2.09,-2.09,-2.24,-2.23,1.63,1.60,1.60
287.84,3.69,2.09,3.66,2.07,-2.07,-2.22,-2.18,1.62,1.60,1.60
290.72,3.66,2.07,3.64,2.04,-2.04,-2.19,-2.13,1.61,1.60,1.59
293.63,3.63,2.03,3.62,2.02,-2.02,-2.16,-2.08,1.61,1.60,1.60
296.57,3.60,2.00,3.59,1.99,-1.99,-2.13,-2.03,1.60,1.60,1.60
299.53,3.56,1.95,3.57,1.96,-1.96,-2.10,-1.98,1.59,1.60,1.60
302.53,3.53,1.91,3.54,1.94,-1.94,-2.07,-1.92,1.59,1.61,1.62
305.55,3.50,1.89,3.52,1.91,-1.91,-2.03,-1.87,1.59,1.61,1.61
308.61,3.47,1.85,3.50,1.88,-1.88,-1.99,-1.81,1.59,1.62,1.62
311.69,3.46,1.83,3.47,1.85,-1.85,-1.96,-1.76,1.61,1.62,1.62
314.81,3.45,1.82,3.45,1.82,-1.82,-1.92,-1.70,1.62,1.63,1.63
317.96,3.43,1.80,3.43,1.80,-1.80,-1.88,-1.65,1.63,1.63,1.63
321.14,3.42,1.77,3.41,1.77,-1.77,-1.83,-1.60,1.64,1.64,1.64
324.35,3.40,1.76,3.39,1.75,-1.75,-1.79,-1.54,1.65,1.65,1.64
327.59,3.39,1.72,3.38,1.73,-1.73,-1.75,-1.49,1.66,1.65,1.66
330.87,3.38,1.72,3.36,1.70,-1.70,-1.70,-1.44,1.68,1.66,1.66
334.18,3.36,1.70,3.34,1.67,-1.67,-1.66,-1.39,1.68,1.66,1.66
337.52,3.32,1.65,3.31,1.64,-1.64,-1.61,-1.34,1.67,1.67,1.67
340.90,3.29,1.61,3.29,1.61,-1.61,-1.57,-1.29,1.68,1.68,1.68
344.30,3.26,1.57,3.26,1.58,-1.58,-1.52,-1.24,1.68,1.68,1.69
347.75,3.24,1.54,3.23,1.54,-1.54,-1.47,-1.19,1.70,1.69,1.69
351.23,3.21,1.52,3.19,1.50,-1.50,-1.42,-1.14,1.71,1.70,1.69
354.74,3.18,1.46,3.16,1.46,-1.46,-1.37,-1.10,1.72,1.70,1.71
358.28,3.14,1.43,3.13,1.42,-1.42,-1.32,-1.05,1.72,1.71,1.71
361.87,3.09,1.37,3.10,1.38,-1.38,-1.28,-1.01,1.71,1.72,1.71
365.49,3.05,1.33,3.06,1.34,-1.34,-1.23,-0.96,1.71,1.72,1.72
369.14,3.02,1.28,3.03,1.30,-1.30,-1.18,-0.92,1.72,1.73,1.74
372.83,2.98,1.23,3.00,1.26,-1.26,-1.13,-0.88,1.72,1.74,1.74
376.56,2.95,1.21,2.96,1.22,-1.22,-1.08,-0.84,1.73,1.75,1.74
380.33,2.93,1.18,2.93,1.17,-1.17,-1.03,-0.80,1.75,1.75,1.75
384.13,2.91,1.14,2.90,1.13,-1.13,-0.98,-0.76,1.77,1.76,1.76
387.97,2.89,1.11,2.86,1.09,-1.09,-0.93,-0.72,1.79,1.77,1.77
391.85,2.86,1.08,2.83,1.05,-1.05,-0.88,-0.69,1.80,1.78,1.78
395.77,2.82,1.03,2.80,1.02,-1.02,-0.83,-0.65,1.80,1.79,1.79
399.73,2.78,0.98,2.78,0.98,-0.98,-0.78,-0.61,1.80,1.80,1.79
403.72,2.73,0.91,2.75,0.94,-0.94,-0.73,-0.58,1.79,1.81,1.82
407.76,2.69,0.87,2.71,0.90,-0.90,-0.69,-0.55,1.79,1.82,1.82
411.84,2.67,0.84,2.68,0.85,-0.85,-0.64,-0.51,1.81,1.83,1.83
415.96,2.65,0.80,2.65,0.81,-0.81,-0.59,-0.48,1.84,1.83,1.84
420.12,2.62,0.78,2.61,0.76,-0.76,-0.54,-0.45,1.85,1.84,1.84
424.32,2.60,0.75,2.57,0.72,-0.72,-0.50,-0.41,1.88,1.85,1.85
428.56,2.56,0.69,2.53,0.67,-0.67,-0.45,-0.38,1.88,1.86,1.87
432.85,2.52,0.64,2.50,0.63,-0.63,-0.40,-0.35,1.89,1.87,1.87
437.18,2.47,0.59,2.46,0.58,-0.58,-0.36,-0.32,1.88,1.88,1.87
441.55,2.42,0.53,2.43,0.54,-0.54,-0.31,-0.29,1.88,1.89,1.88
445.96,2.37,0.48,2.39,0.50,-0.50,-0.27,-0.26,1.87,1.89,1.89
450.42,2.33,0.43,2.35,0.45,-0.45,-0.23,-0.23,1.87,1.90,1.90
454.93,2.30,0.39,2.32,0.41,-0.41,-0.18,-0.20,1.89,1.91,1.91
459.48,2.27,0.35,2.28,0.36,-0.36,-0.14,-0.18,1.91,1.92,1.91
464.07,2.25,0.31,2.24,0.31,-0.31,-0.10,-0.15,1.93,1.93,1.93
468.71,2.24,0.29,2.21,0.27,-0.27,-0.06,-0.12,1.96,1.94,1.94
473.40,2.20,0.25,2.18,0.23,-0.23,-0.01,-0.09,1.97,1.95,1.95
478.13,2.16,0.20,2.15,0.19,-0.19,0.03,-0.06,1.97,1.96,1.96
482.91,2.11,0.14,2.12,0.15,-0.15,0.07,-0.04,1.96,1.97,1.97
487.74,2.07,0.09,2.08,0.11,-0.11,0.11,-0.01,1.96,1.98,1.98
492.62,2.04,0.05,2.05,0.06,-0.06,0.15,0.02,1.97,1.99,1.99
497.55,2.01,0.01,2.02,0.02,-0.02,0.18,0.05,1.99,2.00,1.99
502.52,1.99,-0.02,1.98,-0.03,0.03,0.22,0.07,2.01,2.01,2.00
507.55,1.97,-0.06,1.95,-0.07,0.07,0.26,0.10,2.04,2.02,2.02
512.62,1.94,-0.10,1.91,-0.12,0.12,0.30,0.13,2.06,2.03,2.03
517.75,1.90,-0.15,1.87,-0.17,0.17,0.33,0.16,2.07,2.04,2.05
522.93,1.85,-0.21,1.84,-0.22,0.22,0.37,0.19,2.06,2.06,2.06
528.16,1.80,-0.27,1.81,-0.26,0.26,0.41,0.21,2.06,2.07,2.07
533.44,1.76,-0.32,1.77,-0.31,0.31,0.44,0.24,2.07,2.08,2.08
538.77,1.71,-0.38,1.73,-0.36,0.36,0.47,0.27,2.06,2.09,2.09
