frequency,raw,error,smoothed,error_smoothed,equalization,parametric_eq,fixed_band_eq,equalized_raw,equalized_smoothed,target
20.00,-4.04,-7.85,-4.03,-7.84,7.86,7.20,2.75,3.82,3.83,3.81
20.20,-4.00,-7.84,-4.01,-7.85,7.85,7.25,2.83,3.85,3.84,3.84
20.40,-3.97,-7.84,-3.97,-7.84,7.83,7.30,2.91,3.86,3.86,3.87
20.61,-3.93,-7.82,-3.93,-7.83,7.81,7.34,3.00,3.88,3.88,3.89
20.81,-3.89,-7.81,-3.88,-7.80,7.79,7.37,3.08,3.90,3.90,3.92
21.02,-3.82,-7.77,-3.82,-7.76,7.75,7.40,3.17,3.93,3.93,3.95
21.23,-3.75,-7.71,-3.76,-7.72,7.72,7.42,3.26,3.97,3.96,3.96
21.44,-3.70,-7.67,-3.70,-7.67,7.67,7.43,3.36,3.97,3.98,3.97
21.66,-3.64,-7.62,-3.64,-7.62,7.62,7.44,3.45,3.98,3.98,3.98
21.87,-3.58,-7.56,-3.58,-7.56,7.56,7.44,3.55,3.98,3.99,3.98
22.09,-3.51,-7.50,-3.51,-7.50,7.50,7.43,3.66,3.99,3.99,3.99
22.31,-3.45,-7.44,-3.45,-7.44,7.44,7.42,3.76,3.99,3.99,3.99
22.54,-3.39,-7.38,-3.39,-7.38,7.38,7.40,3.87,3.99,3.99,3.99
22.76,-3.33,-7.32,-3.33,-7.31,7.31,7.37,3.98,3.98,3.99,3.99
22.99,-3.26,-7.24,-3.26,-7.25,7.25,7.34,4.09,3.99,3.99,3.98
23.22,-3.20,-7.18,-3.20,-7.18,7.19,7.31,4.21,3.99,3.99,3.98
23.45,-3.14,-7.12,-3.14,-7.12,7.12,7.26,4.32,3.98,3.98,3.98
23.69,-3.08,-7.06,-3.08,-7.06,7.06,7.22,4.45,3.98,3.98,3.98
23.92,-3.02,-7.00,-3.02,-7.00,6.99,7.16,4.57,3.97,3.98,3.98
24.16,-2.95,-6.93,-2.95,-6.93,6.93,7.11,4.69,3.98,3.98,3.98
24.40,-2.89,-6.87,-2.89,-6.86,6.87,7.05,4.82,3.98,3.98,3.98
24.65,-2.82,-6.79,-2.82,-6.80,6.80,6.98,4.95,3.98,3.98,3.97
24.89,-2.77,-6.74,-2.76,-6.73,6.74,6.91,5.08,3.97,3.97,3.97
25.14,-2.70,-6.67,-2.70,-6.67,6.67,6.84,5.22,3.97,3.97,3.97
25.39,-2.64,-6.61,-2.64,-6.61,6.61,6.77,5.35,3.97,3.97,3.97
25.65,-2.58,-6.55,-2.58,-6.55,6.54,6.69,5.48,3.96,3.97,3.97
25.91,-2.52,-6.48,-2.52,-6.48,6.48,6.61,5.62,3.96,3.96,3.96
26.16,-2.45,-6.41,-2.45,-6.41,6.42,6.53,5.75,3.97,3.96,3.96
26.43,-2.39,-6.35,-2.39,-6.35,6.35,6.45,5.89,3.96,3.96,3.96
26.69,-2.33,-6.29,-2.33,-6.29,6.29,6.36,6.02,3.96,3.96,3.96
26.96,-2.27,-6.23,-2.27,-6.23,6.22,6.28,6.15,3.95,3.95,3.96
27.23,-2.21,-6.16,-2.21,-6.16,6.16,6.20,6.28,3.95,3.95,3.95
27.50,-2.15,-6.10,-2.15,-6.09,6.09,6.11,6.41,3.94,3.95,3.95
27.77,-2.08,-6.02,-2.08,-6.03,6.03,6.03,6.53,3.96,3.95,3.94
28.05,-2.03,-5.97,-2.03,-5.97,5.98,5.94,6.64,3.95,3.95,3.94
28.33,-1.98,-5.91,-1.98,-5.91,5.92,5.86,6.75,3.94,3.94,3.93
28.62,-1.94,-5.87,-1.94,-5.87,5.87,5.77,6.86,3.93,3.93,3.93
28.90,-1.89,-5.82,-1.89,-5.82,5.81,5.69,6.95,3.93,3.92,3.93
29.19,-1.85,-5.77,-1.85,-5.77,5.77,5.61,7.04,3.92,3.92,3.92
29.48,-1.80,-5.72,-1.80,-5.72,5.72,5.52,7.12,3.92,3.92,3.92
29.78,-1.77,-5.68,-1.76,-5.67,5.68,5.44,7.19,3.90,3.91,3.91
30.08,-1.71,-5.62,-1.72,-5.63,5.63,5.36,7.25,3.92,3.91,3.91
30.38,-1.68,-5.58,-1.68,-5.58,5.58,5.29,7.30,3.90,3.90,3.90
30.68,-1.65,-5.55,-1.64,-5.54,5.54,5.21,7.33,3.89,3.90,3.90
30.99,-1.60,-5.49,-1.61,-5.50,5.49,5.14,7.36,3.89,3.89,3.89
31.30,-1.56,-5.44,-1.56,-5.45,5.45,5.07,7.37,3.89,3.88,3.88
31.61,-1.53,-5.41,-1.52,-5.40,5.40,5.00,7.37,3.87,3.88,3.88
31.93,-1.48,-5.35,-1.49,-5.36,5.35,4.93,7.36,3.87,3.87,3.87
32.24,-1.45,-5.31,-1.44,-5.31,5.31,4.86,7.33,3.86,3.86,3.86
32.57,-1.40,-5.26,-1.40,-5.26,5.26,4.80,7.30,3.86,3.86,3.86
32.89,-1.36,-5.21,-1.37,-5.21,5.22,4.74,7.25,3.86,3.85,3.85
33.22,-1.33,-5.17,-1.33,-5.17,5.17,4.68,7.19,3.84,3.85,3.84
33.55,-1.30,-5.14,-1.29,-5.13,5.13,4.62,7.13,3.83,3.84,3.84
33.89,-1.26,-5.09,-1.27,-5.10,5.09,4.57,7.06,3.83,3.83,3.83
34.23,-1.23,-5.05,-1.23,-5.05,5.05,4.52,6.97,3.82,3.82,3.82
34.57,-1.21,-5.02,-1.20,-5.01,5.01,4.47,6.89,3.80,3.81,3.81
34.92,-1.16,-4.96,-1.17,-4.97,4.97,4.42,6.79,3.81,3.80,3.80
35.27,-1.15,-4.94,-1.14,-4.93,4.93,4.38,6.69,3.78,3.79,3.79
35.62,-1.12,-4.90,-1.12,-4.90,4.89,4.34,6.59,3.77,3.78,3.78
35.97,-1.08,-4.85,-1.09,-4.86,4.86,4.30,6.49,3.78,3.77,3.77
36.33,-1.07,-4.83,-1.06,-4.82,4.82,4.27,6.38,3.75,3.76,3.76
36.70,-1.02,-4.77,-1.03,-4.78,4.78,4.23,6.27,3.76,3.76,3.75
37.06,-1.01,-4.75,-1.01,-4.75,4.75,4.21,6.16,3.74,3.74,3.74
37.43,-0.98,-4.71,-0.98,-4.71,4.71,4.18,6.05,3.73,3.73,3.73
37.81,-0.97,-4.69,-0.97,-4.69,4.68,4.16,5.93,3.71,3.71,3.72
38.19,-0.93,-4.64,-0.94,-4.65,4.65,4.14,5.82,3.71,3.71,3.71
38.57,-0.93,-4.63,-0.92,-4.62,4.61,4.12,5.71,3.68,3.70,3.70
38.95,-0.88,-4.57,-0.89,-4.58,4.58,4.10,5.61,3.70,3.69,3.69
39.34,-0.88,-4.55,-0.87,-4.55,4.55,4.09,5.50,3.67,3.68,3.67
39.74,-0.85,-4.51,-0.86,-4.52,4.52,4.08,5.40,3.67,3.67,3.66
40.14,-0.84,-4.49,-0.84,-4.49,4.49,4.08,5.30,3.65,3.65,3.65
40.54,-0.84,-4.48,-0.82,-4.46,4.46,4.07,5.20,3.62,3.64,3.64
40.94,-0.80,-4.43,-0.81,-4.44,4.44,4.07,5.10,3.64,3.63,3.63
41.35,-0.79,-4.41,-0.79,-4.41,4.41,4.07,5.01,3.62,3.62,3.62
41.76,-0.79,-4.40,-0.77,-4.38,4.39,4.08,4.92,3.60,3.62,3.61
42.18,-0.75,-4.35,-0.76,-4.36,4.36,4.09,4.83,3.61,3.60,3.60
42.60,-0.74,-4.33,-0.75,-4.34,4.33,4.09,4.75,3.59,3.58,3.59
43.03,-0.74,-4.32,-0.73,-4.31,4.31,4.11,4.67,3.57,3.57,3.58
43.46,-0.74,-4.30,-0.73,-4.29,4.28,4.12,4.59,3.54,3.55,3.56
43.90,-0.70,-4.24,-0.71,-4.25,4.26,4.13,4.52,3.55,3.54,3.54
44.33,-0.70,-4.22,-0.70,-4.22,4.23,4.15,4.45,3.53,3.53,3.52
44.78,-0.70,-4.20,-0.70,-4.20,4.21,4.16,4.39,3.51,3.52,3.50
45.23,-0.70,-4.18,-0.70,-4.18,4.19,4.18,4.32,3.49,3.49,3.48
45.68,-0.70,-4.17,-0.70,-4.17,4.17,4.20,4.27,3.47,3.47,3.47
46.13,-0.70,-4.15,-0.70,-4.16,4.15,4.22,4.21,3.45,3.44,3.45
46.60,-0.70,-4.14,-0.70,-4.13,4.13,4.23,4.16,3.43,3.43,3.44
47.06,-0.70,-4.12,-0.68,-4.10,4.10,4.25,4.11,3.40,3.42,3.42
47.53,-0.65,-4.05,-0.67,-4.08,4.07,4.26,4.06,3.42,3.40,3.40
48.01,-0.65,-4.04,-0.65,-4.03,4.03,4.27,4.02,3.38,3.38,3.39
48.49,-0.65,-4.01,-0.64,-4.00,3.99,4.28,3.98,3.34,3.36,3.36
48.97,-0.61,-3.94,-0.62,-3.95,3.95,4.28,3.94,3.34,3.32,3.33
49.46,-0.61,-3.91,-0.60,-3.90,3.90,4.28,3.91,3.29,3.30,3.30
49.96,-0.57,-3.84,-0.58,-3.85,3.85,4.28,3.88,3.28,3.28,3.27
50.46,-0.56,-3.81,-0.55,-3.80,3.81,4.27,3.85,3.25,3.26,3.25
50.96,-0.53,-3.76,-0.53,-3.76,3.77,4.26,3.82,3.24,3.24,3.23
51.47,-0.51,-3.71,-0.52,-3.72,3.73,4.24,3.79,3.22,3.21,3.20
51.99,-0.51,-3.69,-0.51,-3.69,3.69,4.22,3.77,3.18,3.18,3.18
52.51,-0.51,-3.67,-0.51,-3.66,3.66,4.20,3.74,3.15,3.15,3.16
53.03,-0.50,-3.64,-0.50,-3.63,3.63,4.17,3.72,3.13,3.13,3.14
53.56,-0.49,-3.60,-0.49,-3.60,3.60,4.13,3.70,3.11,3.11,3.11
54.10,-0.47,-3.56,-0.48,-3.57,3.58,4.09,3.68,3.11,3.10,3.09
54.64,-0.49,-3.55,-0.48,-3.55,3.56,4.04,3.66,3.07,3.07,3.06
55.18,-0.49,-3.53,-0.49,-3.53,3.53,3.99,3.64,3.04,3.04,3.04
55.74,-0.51,-3.52,-0.51,-3.52,3.51,3.94,3.62,3.00,3.01,3.01
56.29,-0.51,-3.50,-0.51,-3.50,3.49,3.89,3.60,2.98,2.98,2.99
56.86,-0.51,-3.48,-0.51,-3.48,3.47,3.83,3.58,2.96,2.96,2.97
57.42,-0.51,-3.45,-0.51,-3.45,3.46,3.77,3.56,2.95,2.95,2.94
58.00,-0.51,-3.43,-0.51,-3.43,3.44,3.71,3.54,2.93,2.93,2.92
58.58,-0.51,-3.41,-0.51,-3.41,3.41,3.65,3.51,2.90,2.90,2.90
59.16,-0.51,-3.39,-0.51,-3.39,3.39,3.58,3.48,2.88,2.88,2.88
59.76,-0.51,-3.37,-0.51,-3.37,3.36,3.52,3.46,2.85,2.85,2.86
60.35,-0.51,-3.34,-0.51,-3.34,3.33,3.45,3.42,2.82,2.82,2.83
60.96,-0.51,-3.31,-0.51,-3.31,3.30,3.39,3.39,2.79,2.79,2.80
61.57,-0.51,-3.27,-0.51,-3.27,3.28,3.33,3.36,2.77,2.77,2.76
62.18,-0.51,-3.24,-0.51,-3.24,3.25,3.27,3.32,2.74,2.74,2.73
62.80,-0.51,-3.21,-0.51,-3.21,3.21,3.21,3.28,2.70,2.70,2.70
63.43,-0.51,-3.18,-0.51,-3.18,3.18,3.15,3.23,2.67,2.67,2.67
64.07,-0.51,-3.15,-0.51,-3.15,3.16,3.09,3.19,2.65,2.65,2.64
64.71,-0.51,-3.13,-0.51,-3.13,3.13,3.04,3.14,2.62,2.62,2.62
65.35,-0.51,-3.10,-0.51,-3.10,3.10,2.99,3.09,2.59,2.59,2.59
66.01,-0.51,-3.07,-0.51,-3.07,3.07,2.94,3.03,2.56,2.56,2.56
66.67,-0.51,-3.04,-0.51,-3.04,3.04,2.89,2.97,2.53,2.53,2.53
67.33,-0.51,-3.01,-0.51,-3.01,3.01,2.84,2.91,2.50,2.49,2.50
68.01,-0.51,-2.98,-0.51,-2.98,2.97,2.79,2.85,2.46,2.47,2.47
68.69,-0.51,-2.95,-0.50,-2.94,2.94,2.75,2.79,2.43,2.44,2.44
69.37,-0.47,-2.88,-0.48,-2.89,2.90,2.71,2.72,2.43,2.42,2.41
70.07,-0.47,-2.85,-0.48,-2.86,2.86,2.67,2.66,2.39,2.38,2.38
70.77,-0.47,-2.82,-0.46,-2.81,2.81,2.63,2.59,2.34,2.35,2.35
71.48,-0.47,-2.79,-0.45,-2.77,2.77,2.59,2.52,2.30,2.31,2.32
72.19,-0.42,-2.70,-0.44,-2.72,2.72,2.55,2.45,2.30,2.28,2.28
72.91,-0.42,-2.67,-0.42,-2.67,2.67,2.51,2.38,2.25,2.25,2.25
73.64,-0.42,-2.63,-0.40,-2.61,2.62,2.48,2.31,2.20,2.22,2.21
74.38,-0.37,-2.55,-0.39,-2.57,2.57,2.44,2.23,2.20,2.18,2.18
75.12,-0.37,-2.51,-0.37,-2.51,2.52,2.40,2.16,2.15,2.15,2.14
75.87,-0.37,-2.48,-0.36,-2.47,2.46,2.37,2.09,2.09,2.11,2.11
76.63,-0.33,-2.41,-0.34,-2.42,2.41,2.33,2.01,2.08,2.07,2.08
77.40,-0.32,-2.37,-0.31,-2.36,2.35,2.29,1.94,2.03,2.04,2.05
78.17,-0.28,-2.29,-0.28,-2.30,2.30,2.25,1.87,2.02,2.01,2.01
78.95,-0.26,-2.24,-0.26,-2.24,2.24,2.21,1.80,1.98,1.98,1.98
79.74,-0.23,-2.18,-0.23,-2.18,2.18,2.17,1.72,1.95,1.95,1.95
80.54,-0.20,-2.11,-0.21,-2.12,2.12,2.12,1.65,1.92,1.92,1.91
81.35,-0.19,-2.07,-0.19,-2.06,2.06,2.07,1.58,1.87,1.88,1.88
82.16,-0.16,-2.00,-0.16,-2.00,2.00,2.03,1.51,1.84,1.84,1.84
82.98,-0.14,-1.95,-0.13,-1.94,1.94,1.97,1.44,1.80,1.80,1.81
83.81,-0.09,-1.86,-0.11,-1.88,1.88,1.92,1.37,1.79,1.77,1.77
84.65,-0.09,-1.82,-0.08,-1.81,1.81,1.87,1.30,1.72,1.73,1.73
85.50,-0.05,-1.75,-0.05,-1.75,1.75,1.81,1.24,1.70,1.70,1.70
86.35,-0.02,-1.68,-0.02,-1.68,1.68,1.75,1.17,1.66,1.66,1.66
87.22,-0.00,-1.62,0.01,-1.61,1.62,1.69,1.10,1.62,1.62,1.62
88.09,0.04,-1.54,0.03,-1.55,1.55,1.63,1.04,1.59,1.58,1.58
88.97,0.05,-1.49,0.05,-1.49,1.48,1.56,0.97,1.53,1.54,1.54
89.86,0.08,-1.42,0.08,-1.42,1.42,1.49,0.91,1.50,1.50,1.50
90.76,0.09,-1.36,0.10,-1.35,1.35,1.43,0.85,1.44,1.45,1.45
91.66,0.14,-1.27,0.13,-1.28,1.28,1.36,0.78,1.42,1.41,1.41
92.58,0.14,-1.22,0.15,-1.21,1.22,1.29,0.72,1.36,1.37,1.36
93.51,0.18,-1.14,0.18,-1.15,1.15,1.22,0.66,1.33,1.32,1.32
94.44,0.19,-1.09,0.19,-1.08,1.08,1.14,0.60,1.27,1.27,1.28
95.39,0.22,-1.01,0.22,-1.01,1.01,1.07,0.54,1.23,1.23,1.23
96.34,0.23,-0.95,0.24,-0.94,0.94,1.00,0.48,1.17,1.18,1.18
97.30,0.26,-0.87,0.26,-0.87,0.87,0.93,0.42,1.13,1.13,1.13
98.28,0.28,-0.80,0.28,-0.80,0.80,0.85,0.36,1.08,1.09,1.08
99.26,0.30,-0.74,0.30,-0.74,0.74,0.78,0.31,1.04,1.04,1.04
100.25,0.33,-0.66,0.32,-0.67,0.67,0.71,0.25,1.00,0.99,0.99
101.25,0.33,-0.61,0.34,-0.60,0.60,0.64,0.19,0.93,0.94,0.94
102.27,0.37,-0.52,0.35,-0.54,0.54,0.56,0.14,0.91,0.89,0.89
103.29,0.37,-0.47,0.37,-0.47,0.47,0.49,0.08,0.84,0.84,0.84
104.32,0.37,-0.43,0.39,-0.41,0.41,0.42,0.03,0.78,0.80,0.80
105.37,0.42,-0.33,0.40,-0.35,0.35,0.35,-0.02,0.77,0.75,0.75
106.42,0.42,-0.28,0.41,-0.29,0.28,0.28,-0.07,0.70,0.70,0.70
107.48,0.42,-0.23,0.43,-0.22,0.22,0.21,-0.13,0.64,0.65,0.65
108.56,0.42,-0.18,0.44,-0.16,0.16,0.15,-0.18,0.58,0.60,0.60
109.64,0.47,-0.08,0.45,-0.10,0.10,0.08,-0.22,0.57,0.55,0.55
110.74,0.47,-0.03,0.47,-0.03,0.04,0.01,-0.27,0.51,0.51,0.50
111.85,0.47,0.02,0.47,0.02,-0.02,-0.05,-0.32,0.45,0.45,0.45
112.97,0.47,0.08,0.47,0.08,-0.09,-0.12,-0.37,0.38,0.38,0.39
114.10,0.47,0.13,0.48,0.15,-0.15,-0.18,-0.41,0.32,0.33,0.34
115.24,0.51,0.23,0.49,0.21,-0.22,-0.25,-0.45,0.29,0.28,0.28
116.39,0.51,0.28,0.51,0.28,-0.28,-0.31,-0.50,0.23,0.23,0.23
117.55,0.51,0.34,0.53,0.36,-0.35,-0.37,-0.54,0.16,0.18,0.17
118.73,0.55,0.43,0.54,0.42,-0.41,-0.43,-0.58,0.14,0.13,0.12
119.92,0.56,0.49,0.55,0.48,-0.48,-0.49,-0.62,0.08,0.07,0.07
121.12,0.56,0.54,0.56,0.54,-0.54,-0.55,-0.65,0.02,0.02,0.02
122.33,0.56,0.59,0.57,0.60,-0.61,-0.61,-0.69,-0.05,-0.04,-0.03
123.55,0.58,0.66,0.58,0.66,-0.67,-0.67,-0.72,-0.09,-0.08,-0.08
124.79,0.61,0.74,0.60,0.73,-0.73,-0.73,-0.75,-0.12,-0.13,-0.13
126.03,0.61,0.79,0.61,0.79,-0.78,-0.78,-0.78,-0.17,-0.17,-0.18
127.29,0.61,0.84,0.61,0.85,-0.84,-0.84,-0.81,-0.23,-0.23,-0.23
128.57,0.61,0.90,0.61,0.90,-0.89,-0.89,-0.84,-0.28,-0.28,-0.29
129.85,0.61,0.95,0.61,0.95,-0.95,-0.95,-0.87,-0.34,-0.34,-0.34
131.15,0.61,1.00,0.61,1.00,-1.00,-1.00,-0.89,-0.39,-0.40,-0.39
132.46,0.61,1.05,0.61,1.05,-1.06,-1.06,-0.92,-0.45,-0.45,-0.44
133.79,0.61,1.09,0.62,1.11,-1.11,-1.11,-0.94,-0.50,-0.49,-0.48
135.12,0.65,1.18,0.64,1.16,-1.16,-1.16,-0.96,-0.51,-0.52,-0.53
136.48,0.65,1.22,0.65,1.22,-1.21,-1.21,-0.99,-0.56,-0.57,-0.57
137.84,0.65,1.27,0.65,1.27,-1.27,-1.26,-1.01,-0.62,-0.62,-0.62
139.22,0.65,1.32,0.65,1.31,-1.32,-1.31,-1.03,-0.67,-0.67,-0.67
140.61,0.65,1.36,0.66,1.37,-1.37,-1.36,-1.05,-0.72,-0.71,-0.71
142.02,0.67,1.41,0.67,1.42,-1.42,-1.41,-1.07,-0.75,-0.75,-0.74
143.44,0.70,1.48,0.69,1.47,-1.46,-1.46,-1.09,-0.76,-0.77,-0.78
144.87,0.70,1.52,0.70,1.52,-1.51,-1.51,-1.11,-0.81,-0.81,-0.82
146.32,0.70,1.56,0.70,1.56,-1.55,-1.55,-1.13,-0.85,-0.85,-0.86
147.78,0.70,1.59,0.70,1.59,-1.60,-1.60,-1.15,-0.90,-0.90,-0.89
149.26,0.70,1.63,0.70,1.63,-1.64,-1.65,-1.17,-0.94,-0.94,-0.93
150.75,0.70,1.67,0.71,1.68,-1.69,-1.69,-1.19,-0.99,-0.98,-0.97
152.26,0.72,1.73,0.72,1.73,-1.73,-1.74,-1.21,-1.01,-1.01,-1.01
153.78,0.74,1.79,0.73,1.78,-1.78,-1.78,-1.23,-1.04,-1.04,-1.05
155.32,0.74,1.83,0.74,1.83,-1.82,-1.82,-1.25,-1.08,-1.08,-1.09
156.88,0.74,1.87,0.74,1.87,-1.87,-1.86,-1.27,-1.13,-1.12,-1.13
158.44,0.74,1.91,0.74,1.91,-1.91,-1.91,-1.30,-1.17,-1.17,-1.17
160.03,0.74,1.95,0.74,1.95,-1.95,-1.95,-1.32,-1.21,-1.21,-1.21
161.63,0.74,1.99,0.74,1.99,-1.99,-1.99,-1.34,-1.25,-1.25,-1.25
163.24,0.74,2.03,0.74,2.03,-2.03,-2.03,-1.37,-1.29,-1.29,-1.29
164.88,0.74,2.06,0.74,2.06,-2.07,-2.06,-1.40,-1.33,-1.33,-1.32
166.53,0.74,2.10,0.74,2.10,-2.10,-2.10,-1.43,-1.36,-1.36,-1.36
168.19,0.74,2.14,0.74,2.14,-2.14,-2.14,-1.46,-1.40,-1.40,-1.40
169.87,0.74,2.18,0.74,2.18,-2.18,-2.17,-1.49,-1.44,-1.44,-1.44
171.57,0.74,2.22,0.74,2.22,-2.21,-2.21,-1.52,-1.47,-1.47,-1.48
173.29,0.74,2.25,0.74,2.25,-2.25,-2.24,-1.55,-1.51,-1.51,-1.51
175.02,0.73,2.28,0.73,2.28,-2.28,-2.27,-1.59,-1.55,-1.55,-1.55
176.77,0.72,2.31,0.72,2.31,-2.32,-2.30,-1.63,-1.60,-1.59,-1.59
178.54,0.72,2.35,0.72,2.35,-2.35,-2.33,-1.66,-1.63,-1.63,-1.63
180.32,0.72,2.39,0.72,2.39,-2.38,-2.36,-1.70,-1.66,-1.66,-1.67
182.13,0.72,2.42,0.71,2.42,-2.41,-2.39,-1.74,-1.69,-1.70,-1.70
183.95,0.70,2.44,0.71,2.44,-2.45,-2.42,-1.79,-1.75,-1.74,-1.74
185.79,0.70,2.47,0.70,2.47,-2.48,-2.44,-1.83,-1.78,-1.78,-1.77
187.65,0.70,2.51,0.70,2.51,-2.51,-2.46,-1.87,-1.81,-1.81,-1.81
189.52,0.70,2.54,0.70,2.54,-2.54,-2.49,-1.92,-1.84,-1.84,-1.84
191.42,0.70,2.57,0.70,2.57,-2.57,-2.51,-1.96,-1.87,-1.87,-1.87
193.33,0.70,2.60,0.70,2.60,-2.60,-2.53,-2.01,-1.90,-1.90,-1.90
195.27,0.70,2.63,0.70,2.63,-2.63,-2.55,-2.06,-1.93,-1.93,-1.93
197.22,0.70,2.66,0.70,2.66,-2.65,-2.56,-2.11,-1.95,-1.95,-1.96
199.19,0.70,2.69,0.70,2.69,-2.68,-2.58,-2.16,-1.98,-1.97,-1.99
201.18,0.70,2.71,0.69,2.70,-2.69,-2.60,-2.21,-1.99,-2.00,-2.01
203.19,0.68,2.71,0.68,2.71,-2.71,-2.61,-2.26,-2.03,-2.03,-2.03
205.23,0.65,2.70,0.66,2.71,-2.72,-2.62,-2.31,-2.07,-2.06,-2.05
207.28,0.65,2.71,0.65,2.71,-2.73,-2.63,-2.36,-2.08,-2.08,-2.06
209.35,0.65,2.73,0.65,2.73,-2.73,-2.64,-2.42,-2.08,-2.08,-2.08
211.44,0.65,2.75,0.65,2.74,-2.74,-2.65,-2.47,-2.09,-2.09,-2.10
213.56,0.65,2.76,0.64,2.74,-2.74,-2.65,-2.52,-2.09,-2.10,-2.11
215.69,0.61,2.72,0.62,2.74,-2.74,-2.66,-2.57,-2.13,-2.12,-2.11
217.85,0.61,2.73,0.61,2.74,-2.74,-2.66,-2.61,-2.13,-2.12,-2.12
220.03,0.61,2.74,0.61,2.74,-2.74,-2.66,-2.66,-2.13,-2.13,-2.13
222.23,0.61,2.75,0.60,2.74,-2.73,-2.66,-2.70,-2.12,-2.13,-2.14
224.45,0.58,2.72,0.58,2.72,-2.72,-2.66,-2.75,-2.14,-2.14,-2.14
226.70,0.56,2.70,0.57,2.71,-2.71,-2.66,-2.79,-2.15,-2.14,-2.14
228.96,0.56,2.70,0.56,2.70,-2.70,-2.66,-2.82,-2.14,-2.14,-2.14
231.25,0.56,2.69,0.56,2.69,-2.69,-2.65,-2.86,-2.13,-2.13,-2.13
233.57,0.56,2.69,0.55,2.68,-2.67,-2.64,-2.89,-2.11,-2.13,-2.13
235.90,0.52,2.65,0.53,2.66,-2.66,-2.64,-2.92,-2.14,-2.13,-2.13
238.26,0.51,2.63,0.52,2.64,-2.64,-2.63,-2.94,-2.13,-2.13,-2.12
240.64,0.51,2.62,0.51,2.62,-2.63,-2.62,-2.96,-2.12,-2.12,-2.11
243.05,0.51,2.61,0.51,2.61,-2.61,-2.61,-2.98,-2.10,-2.11,-2.10
245.48,0.51,2.60,0.51,2.60,-2.60,-2.59,-2.99,-2.09,-2.08,-2.09
247.93,0.51,2.59,0.51,2.59,-2.58,-2.58,-2.99,-2.07,-2.07,-2.08
250.41,0.51,2.58,0.50,2.57,-2.56,-2.57,-2.99,-2.05,-2.06,-2.07
252.92,0.49,2.54,0.49,2.54,-2.54,-2.55,-2.99,-2.05,-2.05,-2.05
255.45,0.47,2.50,0.48,2.51,-2.52,-2.53,-2.98,-2.05,-2.04,-2.03
258.00,0.47,2.49,0.47,2.49,-2.50,-2.52,-2.97,-2.03,-2.03,-2.02
260.58,0.47,2.47,0.47,2.47,-2.47,-2.50,-2.96,-2.00,-2.01,-2.00
263.19,0.47,2.45,0.47,2.45,-2.45,-2.48,-2.94,-1.98,-1.98,-1.98
265.82,0.47,2.43,0.47,2.43,-2.43,-2.46,-2.91,-1.96,-1.96,-1.96
268.48,0.47,2.41,0.47,2.41,-2.41,-2.44,-2.88,-1.94,-1.94,-1.94
271.16,0.47,2.39,0.47,2.39,-2.39,-2.42,-2.85,-1.92,-1.92,-1.92
273.87,0.47,2.37,0.47,2.37,-2.36,-2.39,-2.82,-1.89,-1.89,-1.90
276.61,0.47,2.35,0.47,2.35,-2.34,-2.37,-2.78,-1.87,-1.87,-1.88
279.38,0.47,2.33,0.45,2.31,-2.31,-2.35,-2.74,-1.84,-1.86,-1.86
282.17,0.42,2.26,0.44,2.28,-2.28,-2.32,-2.70,-1.86,-1.85,-1.84
284.99,0.42,2.24,0.42,2.24,-2.26,-2.30,-2.65,-1.84,-1.83,-1.82
287.84,0.42,2.22,0.42,2.22,-2.23,-2.27,-2.60,-1.81,-1.81,-1.80
290.72,0.42,2.20,0.42,2.20,-2.20,-2.25,-2.56,-1.78,-1.78,-1.78
293.63,0.42,2.18,0.42,2.18,-2.17,-2.22,-2.51,-1.75,-1.75,-1.76
296.57,0.42,2.16,0.41,2.15,-2.14,-2.19,-2.46,-1.72,-1.73,-1.74
299.53,0.40,2.12,0.40,2.12,-2.11,-2.17,-2.41,-1.71,-1.72,-1.72
302.53,0.37,2.07,0.38,2.08,-2.08,-2.14,-2.36,-1.71,-1.70,-1.70
305.55,0.37,2.04,0.37,2.04,-2.05,-2.11,-2.30,-1.68,-1.68,-1.67
308.61,0.37,2.02,0.37,2.02,-2.02,-2.09,-2.25,-1.65,-1.65,-1.65
311.69,0.37,1.99,0.37,1.99,-1.98,-2.06,-2.20,-1.61,-1.62,-1.62
314.81,0.37,1.96,0.36,1.95,-1.95,-2.03,-2.15,-1.58,-1.59,-1.59
317.96,0.33,1.90,0.34,1.91,-1.92,-2.00,-2.10,-1.59,-1.58,-1.57
321.14,0.33,1.88,0.33,1.88,-1.89,-1.97,-2.05,-1.56,-1.55,-1.55
324.35,0.33,1.86,0.33,1.86,-1.86,-1.94,-2.00,-1.53,-1.53,-1.53
327.59,0.33,1.84,0.32,1.83,-1.83,-1.92,-1.96,-1.50,-1.50,-1.51
330.87,0.32,1.81,0.31,1.80,-1.80,-1.89,-1.91,-1.48,-1.49,-1.49
334.18,0.28,1.75,0.29,1.76,-1.77,-1.86,-1.86,-1.49,-1.47,-1.47
337.52,0.28,1.73,0.28,1.73,-1.74,-1.83,-1.82,-1.46,-1.45,-1.45
340.90,0.28,1.71,0.28,1.71,-1.71,-1.80,-1.78,-1.43,-1.43,-1.43
344.30,0.28,1.69,0.27,1.68,-1.68,-1.77,-1.73,-1.40,-1.40,-1.41
347.75,0.26,1.65,0.26,1.65,-1.65,-1.75,-1.69,-1.39,-1.39,-1.39
351.23,0.23,1.60,0.24,1.61,-1.62,-1.72,-1.65,-1.39,-1.38,-1.37
354.74,0.23,1.58,0.23,1.58,-1.59,-1.69,-1.62,-1.36,-1.36,-1.35
358.28,0.23,1.57,0.23,1.57,-1.56,-1.66,-1.58,-1.33,-1.33,-1.34
361.87,0.23,1.55,0.23,1.55,-1.54,-1.63,-1.54,-1.31,-1.31,-1.32
365.49,0.22,1.52,0.21,1.52,-1.51,-1.61,-1.51,-1.29,-1.30,-1.30
369.14,0.19,1.48,0.20,1.49,-1.49,-1.58,-1.48,-1.30,-1.29,-1.29
372.83,0.19,1.46,0.19,1.46,-1.47,-1.55,-1.44,-1.28,-1.28,-1.27
376.56,0.19,1.45,0.19,1.45,-1.45,-1.52,-1.41,-1.26,-1.26,-1.26
380.33,0.19,1.43,0.19,1.43,-1.42,-1.50,-1.38,-1.23,-1.23,-1.24
384.13,0.19,1.42,0.18,1.41,-1.40,-1.47,-1.36,-1.21,-1.23,-1.23
387.97,0.15,1.37,0.16,1.38,-1.38,-1.44,-1.33,-1.23,-1.22,-1.22
391.85,0.14,1.35,0.15,1.35,-1.36,-1.42,-1.30,-1.22,-1.21,-1.21
395.77,0.14,1.33,0.14,1.33,-1.34,-1.39,-1.28,-1.20,-1.20,-1.19
399.73,0.14,1.32,0.14,1.32,-1.32,-1.37,-1.26,-1.18,-1.18,-1.18
403.72,0.14,1.31,0.13,1.30,-1.30,-1.34,-1.23,-1.16,-1.16,-1.17
407.76,0.12,1.28,0.12,1.28,-1.27,-1.32,-1.21,-1.15,-1.16,-1.16
411.84,0.09,1.24,0.10,1.25,-1.25,-1.29,-1.19,-1.16,-1.15,-1.15
415.96,0.09,1.23,0.09,1.23,-1.23,-1.27,-1.17,-1.14,-1.14,-1.14
420.12,0.09,1.22,0.08,1.21,-1.21,-1.24,-1.15,-1.12,-1.13,-1.13
424.32,0.05,1.17,0.07,1.19,-1.18,-1.22,-1.13,-1.13,-1.12,-1.12
428.56,0.05,1.16,0.04,1.15,-1.15,-1.19,-1.12,-1.10,-1.11,-1.11
432.85,0.03,1.13,0.03,1.13,-1.12,-1.17,-1.10,-1.09,-1.09,-1.10
437.18,0.00,1.09,0.01,1.10,-1.09,-1.15,-1.08,-1.09,-1.08,-1.09
441.55,-0.00,1.07,-0.02,1.06,-1.06,-1.12,-1.07,-1.06,-1.08,-1.07
445.96,-0.05,1.01,-0.03,1.03,-1.03,-1.10,-1.05,-1.08,-1.06,-1.06
450.42,-0.05,1.00,-0.05,1.00,-1.00,-1.08,-1.03,-1.05,-1.05,-1.05
454.93,-0.05,0.98,-0.07,0.97,-0.97,-1.06,-1.02,-1.02,-1.04,-1.03
459.48,-0.09,0.93,-0.08,0.94,-0.94,-1.03,-1.01,-1.03,-1.02,-1.02
464.07,-0.09,0.92,-0.09,0.92,-0.92,-1.01,-0.99,-1.01,-1.01,-1.01
468.71,-0.09,0.90,-0.09,0.90,-0.90,-0.99,-0.98,-0.99,-1.00,-0.99
473.40,-0.09,0.89,-0.09,0.88,-0.89,-0.97,-0.96,-0.98,-0.98,-0.98
478.13,-0.09,0.87,-0.09,0.87,-0.88,-0.95,-0.95,-0.97,-0.96,-0.96
482.91,-0.09,0.86,-0.08,0.87,-0.87,-0.93,-0.93,-0.96,-0.94,-0.95
487.74,-0.05,0.88,-0.07,0.86,-0.86,-0.91,-0.92,-0.91,-0.93,-0.93
492.62,-0.05,0.86,-0.05,0.86,-0.86,-0.89,-0.90,-0.91,-0.91,-0.91
497.55,-0.05,0.85,-0.03,0.86,-0.87,-0.87,-0.89,-0.92,-0.90,-0.90
