frequency,raw,error,smoothed,error_smoothed,equalization,parametric_eq,fixed_band_eq,equalized_raw,equalized_smoothed,target
20.00,-5.40,-15.09,-5.40,-15.09,15.09,14.34,6.86,9.69,9.69,9.69
20.20,-5.38,-15.06,-5.38,-15.06,15.06,14.41,7.02,9.68,9.68,9.68
20.40,-5.37,-15.04,-5.37,-15.03,15.03,14.48,7.18,9.66,9.67,9.67
20.61,-5.35,-15.01,-5.35,-15.01,15.01,14.55,7.35,9.65,9.65,9.66
20.81,-5.33,-14.97,-5.34,-14.98,14.98,14.60,7.52,9.65,9.64,9.64
21.02,-5.32,-14.95,-5.32,-14.95,14.95,14.66,7.69,9.63,9.63,9.62
21.23,-5.30,-14.92,-5.30,-14.92,14.92,14.71,7.87,9.62,9.62,9.61
21.44,-5.28,-14.90,-5.28,-14.89,14.89,14.75,8.06,9.61,9.61,9.62
21.66,-5.26,-14.86,-5.26,-14.86,14.86,14.79,8.25,9.60,9.60,9.60
21.87,-5.24,-14.84,-5.24,-14.84,14.84,14.82,8.44,9.59,9.59,9.60
22.09,-5.22,-14.80,-5.22,-14.81,14.81,14.85,8.64,9.59,9.58,9.58
22.31,-5.20,-14.78,-5.20,-14.78,14.78,14.87,8.85,9.58,9.58,9.58
22.54,-5.18,-14.75,-5.18,-14.75,14.75,14.89,9.06,9.57,9.57,9.57
22.76,-5.16,-14.73,-5.16,-14.72,14.72,14.90,9.27,9.56,9.56,9.57
22.99,-5.14,-14.70,-5.14,-14.70,14.70,14.91,9.50,9.56,9.56,9.56
23.22,-5.12,-14.67,-5.12,-14.67,14.67,14.91,9.72,9.55,9.55,9.54
23.45,-5.09,-14.64,-5.09,-14.64,14.64,14.91,9.96,9.55,9.55,9.55
23.69,-5.07,-14.61,-5.07,-14.62,14.62,14.90,10.20,9.54,9.54,9.54
23.92,-5.05,-14.58,-5.05,-14.59,14.59,14.89,10.45,9.54,9.54,9.53
24.16,-5.02,-14.56,-5.03,-14.56,14.56,14.87,10.70,9.54,9.54,9.54
24.40,-5.00,-14.54,-5.00,-14.53,14.53,14.85,10.96,9.53,9.53,9.54
24.65,-4.97,-14.51,-4.98,-14.51,14.51,14.82,11.22,9.53,9.53,9.54
24.89,-4.95,-14.48,-4.95,-14.48,14.48,14.79,11.50,9.53,9.53,9.53
25.14,-4.92,-14.44,-4.92,-14.45,14.45,14.76,11.78,9.53,9.53,9.52
25.39,-4.90,-14.42,-4.90,-14.42,14.42,14.72,12.06,9.52,9.52,9.52
25.65,-4.87,-14.39,-4.87,-14.39,14.39,14.68,12.35,9.52,9.52,9.52
25.91,-4.84,-14.36,-4.84,-14.36,14.36,14.64,12.65,9.52,9.52,9.52
26.16,-4.81,-14.34,-4.81,-14.33,14.33,14.59,12.96,9.52,9.52,9.52
26.43,-4.78,-14.30,-4.78,-14.30,14.30,14.55,13.26,9.52,9.52,9.52
26.69,-4.75,-14.27,-4.75,-14.27,14.27,14.49,13.58,9.52,9.52,9.52
26.96,-4.72,-14.24,-4.72,-14.24,14.24,14.44,13.89,9.52,9.52,9.52
27.23,-4.69,-14.21,-4.69,-14.21,14.21,14.38,14.21,9.52,9.52,9.52
27.50,-4.66,-14.18,-4.66,-14.18,14.18,14.33,14.53,9.52,9.52,9.51
27.77,-4.63,-14.15,-4.63,-14.15,14.15,14.27,14.85,9.52,9.52,9.52
28.05,-4.59,-14.11,-4.60,-14.12,14.12,14.21,15.16,9.53,9.52,9.52
28.33,-4.56,-14.09,-4.56,-14.09,14.09,14.15,15.47,9.53,9.52,9.53
28.62,-4.53,-14.05,-4.53,-14.05,14.05,14.08,15.77,9.52,9.52,9.52
28.90,-4.49,-14.02,-4.49,-14.02,14.02,14.02,16.06,9.52,9.52,9.53
29.19,-4.45,-13.98,-4.46,-13.98,13.98,13.95,16.33,9.52,9.52,9.53
29.48,-4.42,-13.94,-4.41,-13.93,13.93,13.89,16.57,9.51,9.52,9.52
29.78,-4.38,-13.90,-4.37,-13.89,13.89,13.82,16.79,9.51,9.52,9.52
30.08,-4.34,-13.86,-4.33,-13.84,13.84,13.76,16.98,9.50,9.51,9.52
30.38,-4.29,-13.80,-4.28,-13.79,13.79,13.69,17.14,9.50,9.51,9.50
30.68,-4.23,-13.73,-4.23,-13.73,13.73,13.62,17.26,9.50,9.50,9.50
30.99,-4.18,-13.68,-4.18,-13.68,13.68,13.56,17.34,9.50,9.50,9.50
31.30,-4.13,-13.62,-4.13,-13.62,13.62,13.49,17.37,9.49,9.49,9.49
31.61,-4.07,-13.56,-4.07,-13.55,13.55,13.43,17.37,9.48,9.48,9.49
31.93,-4.01,-13.48,-4.02,-13.49,13.49,13.36,17.32,9.48,9.47,9.46
32.24,-3.96,-13.43,-3.96,-13.43,13.43,13.30,17.23,9.47,9.47,9.47
32.57,-3.90,-13.36,-3.91,-13.36,13.36,13.23,17.11,9.46,9.46,9.45
32.89,-3.85,-13.30,-3.85,-13.30,13.30,13.17,16.95,9.45,9.45,9.45
33.22,-3.79,-13.23,-3.79,-13.24,13.24,13.10,16.77,9.44,9.44,9.44
33.55,-3.74,-13.18,-3.74,-13.17,13.17,13.04,16.57,9.43,9.43,9.44
33.89,-3.68,-13.10,-3.69,-13.11,13.11,12.98,16.35,9.43,9.43,9.42
34.23,-3.63,-13.04,-3.64,-13.05,13.05,12.92,16.12,9.42,9.42,9.41
34.57,-3.58,-12.98,-3.58,-12.99,12.99,12.86,15.87,9.41,9.41,9.40
34.92,-3.53,-12.92,-3.54,-12.93,12.93,12.80,15.62,9.40,9.39,9.38
35.27,-3.49,-12.89,-3.49,-12.87,12.87,12.74,15.37,9.38,9.38,9.40
35.62,-3.44,-12.81,-3.45,-12.82,12.82,12.68,15.11,9.37,9.37,9.37
35.97,-3.39,-12.76,-3.40,-12.76,12.76,12.63,14.86,9.37,9.35,9.36
36.33,-3.36,-12.71,-3.36,-12.70,12.70,12.57,14.61,9.34,9.34,9.35
36.70,-3.32,-12.64,-3.32,-12.64,12.64,12.52,14.36,9.32,9.32,9.32
37.06,-3.28,-12.58,-3.28,-12.59,12.59,12.46,14.12,9.31,9.30,9.30
37.43,-3.25,-12.53,-3.25,-12.53,12.53,12.41,13.88,9.28,9.28,9.28
37.81,-3.21,-12.48,-3.21,-12.47,12.47,12.36,13.65,9.26,9.26,9.27
38.19,-3.17,-12.41,-3.17,-12.42,12.42,12.31,13.43,9.24,9.24,9.24
38.57,-3.14,-12.36,-3.14,-12.36,12.36,12.26,13.21,9.22,9.22,9.22
38.95,-3.10,-12.30,-3.10,-12.30,12.30,12.21,13.00,9.20,9.19,9.20
39.34,-3.07,-12.24,-3.07,-12.24,12.24,12.16,12.80,9.17,9.17,9.17
39.74,-3.04,-12.18,-3.04,-12.18,12.18,12.11,12.61,9.14,9.15,9.14
40.14,-3.01,-12.13,-3.00,-12.12,12.12,12.06,12.43,9.11,9.12,9.12
40.54,-2.97,-12.07,-2.97,-12.06,12.06,12.02,12.25,9.09,9.10,9.10
40.94,-2.93,-12.00,-2.93,-12.00,12.00,11.97,12.09,9.07,9.07,9.07
41.35,-2.89,-11.94,-2.90,-11.94,11.94,11.93,11.93,9.05,9.05,9.04
41.76,-2.86,-11.87,-2.86,-11.88,11.88,11.88,11.77,9.02,9.02,9.01
42.18,-2.83,-11.83,-2.83,-11.82,11.82,11.84,11.63,8.99,8.99,9.00
42.60,-2.79,-11.76,-2.79,-11.76,11.76,11.79,11.50,8.97,8.97,8.97
43.03,-2.76,-11.70,-2.76,-11.70,11.70,11.75,11.37,8.94,8.94,8.94
43.46,-2.72,-11.63,-2.72,-11.64,11.64,11.71,11.25,8.91,8.91,8.91
43.90,-2.69,-11.58,-2.69,-11.57,11.57,11.67,11.13,8.88,8.88,8.88
44.33,-2.65,-11.50,-2.65,-11.51,11.51,11.62,11.03,8.85,8.85,8.85
44.78,-2.62,-11.45,-2.62,-11.44,11.44,11.58,10.93,8.82,8.82,8.82
45.23,-2.58,-11.38,-2.59,-11.37,11.37,11.54,10.84,8.79,8.79,8.80
45.68,-2.55,-11.30,-2.55,-11.30,11.30,11.49,10.76,8.75,8.75,8.75
46.13,-2.52,-11.23,-2.52,-11.23,11.23,11.45,10.68,8.71,8.71,8.71
46.60,-2.49,-11.17,-2.49,-11.16,11.16,11.41,10.61,8.67,8.67,8.68
47.06,-2.47,-11.11,-2.46,-11.09,11.09,11.37,10.54,8.62,8.63,8.64
47.53,-2.43,-11.03,-2.43,-11.02,11.02,11.32,10.48,8.59,8.59,8.60
48.01,-2.40,-10.94,-2.41,-10.95,10.95,11.28,10.43,8.55,8.54,8.54
48.49,-2.38,-10.88,-2.38,-10.88,10.88,11.23,10.38,8.50,8.50,8.50
48.97,-2.36,-10.81,-2.36,-10.81,10.81,11.19,10.34,8.45,8.45,8.45
49.46,-2.34,-10.75,-2.34,-10.74,10.74,11.14,10.31,8.40,8.41,8.40
49.96,-2.32,-10.66,-2.32,-10.68,10.68,11.09,10.27,8.36,8.36,8.34
50.46,-2.30,-10.61,-2.31,-10.62,10.62,11.04,10.25,8.31,8.31,8.31
50.96,-2.28,-10.54,-2.29,-10.56,10.56,10.99,10.22,8.27,8.26,8.26
51.47,-2.27,-10.49,-2.28,-10.50,10.50,10.94,10.21,8.22,8.22,8.22
51.99,-2.26,-10.42,-2.27,-10.44,10.44,10.89,10.19,8.18,8.17,8.16
52.51,-2.25,-10.38,-2.26,-10.38,10.38,10.84,10.18,8.13,8.12,8.13
53.03,-2.25,-10.34,-2.25,-10.33,10.33,10.78,10.16,8.08,8.08,8.09
53.56,-2.25,-10.29,-2.25,-10.28,10.28,10.72,10.15,8.03,8.03,8.04
54.10,-2.25,-10.23,-2.24,-10.23,10.23,10.67,10.15,7.98,7.98,7.98
54.64,-2.24,-10.18,-2.24,-10.18,10.18,10.61,10.14,7.94,7.94,7.94
55.18,-2.24,-10.13,-2.23,-10.13,10.13,10.54,10.13,7.89,7.90,7.89
55.74,-2.23,-10.07,-2.23,-10.08,10.08,10.48,10.12,7.85,7.85,7.83
56.29,-2.22,-10.02,-2.22,-10.03,10.03,10.42,10.11,7.81,7.81,7.80
56.86,-2.21,-9.97,-2.21,-9.97,9.97,10.35,10.10,7.76,7.76,7.76
57.42,-2.21,-9.91,-2.20,-9.91,9.91,10.28,10.08,7.70,7.71,7.70
58.00,-2.20,-9.86,-2.19,-9.85,9.85,10.21,10.06,7.65,7.66,7.65
58.58,-2.18,-9.80,-2.18,-9.79,9.79,10.14,10.04,7.61,7.61,7.62
59.16,-2.17,-9.75,-2.16,-9.72,9.72,10.06,10.01,7.55,7.56,7.58
59.76,-2.15,-9.68,-2.15,-9.65,9.65,9.99,9.97,7.50,7.50,7.53
60.35,-2.13,-9.60,-2.13,-9.58,9.58,9.91,9.93,7.45,7.45,7.47
60.96,-2.10,-9.51,-2.11,-9.51,9.51,9.83,9.88,7.40,7.39,7.41
61.57,-2.08,-9.41,-2.10,-9.43,9.43,9.75,9.83,7.35,7.33,7.33
62.18,-2.07,-9.34,-2.08,-9.35,9.35,9.67,9.77,7.28,7.27,7.27
62.80,-2.05,-9.25,-2.06,-9.27,9.27,9.58,9.70,7.22,7.21,7.20
63.43,-2.04,-9.18,-2.04,-9.19,9.19,9.50,9.62,7.15,7.15,7.13
64.07,-2.02,-9.10,-2.02,-9.11,9.11,9.41,9.54,7.09,7.09,7.08
64.71,-2.01,-9.03,-2.00,-9.02,9.02,9.32,9.44,7.01,7.02,7.02
65.35,-1.99,-8.95,-1.98,-8.94,8.94,9.23,9.35,6.95,6.96,6.96
66.01,-1.97,-8.87,-1.96,-8.86,8.86,9.14,9.24,6.89,6.90,6.89
66.67,-1.94,-8.78,-1.94,-8.78,8.78,9.04,9.13,6.83,6.83,6.84
67.33,-1.92,-8.69,-1.93,-8.69,8.69,8.95,9.01,6.77,6.77,6.77
68.01,-1.90,-8.61,-1.91,-8.61,8.61,8.85,8.89,6.71,6.70,6.71
68.69,-1.88,-8.52,-1.89,-8.53,8.53,8.76,8.77,6.64,6.64,6.64
69.37,-1.86,-8.45,-1.87,-8.44,8.44,8.66,8.64,6.58,6.57,6.58
70.07,-1.84,-8.36,-1.84,-8.35,8.35,8.56,8.50,6.51,6.51,6.51
70.77,-1.82,-8.27,-1.82,-8.26,8.26,8.46,8.37,6.44,6.44,6.44
71.48,-1.81,-8.19,-1.80,-8.17,8.17,8.36,8.23,6.36,6.37,6.38
72.19,-1.78,-8.09,-1.78,-8.08,8.08,8.26,8.09,6.30,6.31,6.31
72.91,-1.76,-7.99,-1.75,-7.99,7.99,8.16,7.95,6.23,6.24,6.23
73.64,-1.74,-7.91,-1.73,-7.91,7.91,8.05,7.81,6.16,6.17,6.17
74.38,-1.71,-7.81,-1.71,-7.82,7.82,7.95,7.68,6.11,6.11,6.10
75.12,-1.69,-7.73,-1.69,-7.74,7.74,7.85,7.54,6.05,6.04,6.04
75.87,-1.66,-7.64,-1.68,-7.66,7.66,7.75,7.40,5.99,5.98,5.98
76.63,-1.65,-7.56,-1.66,-7.58,7.58,7.64,7.27,5.93,5.92,5.91
77.40,-1.63,-7.49,-1.65,-7.50,7.50,7.54,7.13,5.87,5.85,5.86
78.17,-1.62,-7.40,-1.64,-7.43,7.43,7.44,7.00,5.81,5.79,5.78
78.95,-1.61,-7.35,-1.63,-7.36,7.36,7.33,6.87,5.74,5.73,5.74
79.74,-1.60,-7.27,-1.62,-7.28,7.28,7.23,6.75,5.68,5.67,5.67
80.54,-1.60,-7.21,-1.61,-7.21,7.21,7.13,6.62,5.61,5.61,5.61
81.35,-1.60,-7.15,-1.60,-7.14,7.14,7.02,6.50,5.54,5.55,5.54
82.16,-1.60,-7.10,-1.59,-7.07,7.07,6.92,6.39,5.47,5.48,5.49
82.98,-1.59,-7.01,-1.57,-7.00,7.00,6.82,6.28,5.40,5.42,5.42
83.81,-1.58,-6.94,-1.56,-6.92,6.92,6.72,6.17,5.34,5.36,5.36
84.65,-1.56,-6.85,-1.54,-6.84,6.84,6.62,6.06,5.27,5.29,5.29
85.50,-1.54,-6.77,-1.52,-6.75,6.75,6.52,5.96,5.21,5.23,5.22
86.35,-1.51,-6.67,-1.50,-6.66,6.66,6.42,5.86,5.15,5.16,5.16
87.22,-1.48,-6.58,-1.48,-6.57,6.57,6.32,5.77,5.09,5.09,5.09
88.09,-1.46,-6.49,-1.45,-6.48,6.48,6.22,5.68,5.02,5.03,5.03
88.97,-1.42,-6.38,-1.43,-6.38,6.38,6.13,5.59,4.96,4.96,4.96
89.86,-1.39,-6.28,-1.40,-6.29,6.29,6.03,5.51,4.90,4.89,4.89
90.76,-1.37,-6.19,-1.37,-6.19,6.19,5.93,5.43,4.82,4.82,4.82
91.66,-1.34,-6.08,-1.35,-6.09,6.09,5.84,5.35,4.75,4.75,4.74
92.58,-1.31,-5.99,-1.33,-6.00,6.00,5.74,5.28,4.69,4.67,4.68
93.51,-1.29,-5.90,-1.31,-5.91,5.91,5.65,5.21,4.62,4.60,4.61
94.44,-1.28,-5.82,-1.29,-5.82,5.82,5.56,5.15,4.54,4.53,4.54
95.39,-1.27,-5.73,-1.28,-5.74,5.74,5.47,5.09,4.47,4.45,4.45
96.34,-1.26,-5.64,-1.28,-5.66,5.66,5.38,5.03,4.39,4.38,4.38
97.30,-1.26,-5.57,-1.27,-5.58,5.58,5.29,4.97,4.32,4.31,4.31
98.28,-1.27,-5.50,-1.27,-5.50,5.50,5.20,4.92,4.23,4.23,4.22
99.26,-1.27,-5.42,-1.27,-5.43,5.43,5.11,4.87,4.16,4.16,4.15
100.25,-1.28,-5.36,-1.27,-5.35,5.35,5.03,4.83,4.07,4.09,4.08
101.25,-1.28,-5.29,-1.27,-5.28,5.28,4.94,4.78,4.00,4.02,4.01
102.27,-1.28,-5.23,-1.27,-5.22,5.22,4.86,4.74,3.93,3.94,3.94
103.29,-1.28,-5.15,-1.28,-5.15,5.15,4.77,4.70,3.87,3.87,3.87
104.32,-1.28,-5.09,-1.28,-5.09,5.09,4.69,4.66,3.81,3.81,3.80
105.37,-1.28,-5.02,-1.29,-5.02,5.02,4.61,4.63,3.74,3.74,3.74
106.42,-1.28,-4.95,-1.29,-4.96,4.96,4.53,4.59,3.68,3.67,3.67
107.48,-1.28,-4.88,-1.30,-4.89,4.89,4.45,4.56,3.61,3.60,3.60
108.56,-1.28,-4.81,-1.30,-4.83,4.83,4.37,4.52,3.55,3.53,3.53
109.64,-1.28,-4.75,-1.30,-4.76,4.76,4.30,4.49,3.48,3.46,3.47
110.74,-1.29,-4.68,-1.30,-4.69,4.69,4.22,4.46,3.39,3.39,3.39
111.85,-1.31,-4.63,-1.29,-4.61,4.61,4.15,4.43,3.30,3.32,3.32
112.97,-1.31,-4.56,-1.29,-4.53,4.53,4.08,4.39,3.22,3.24,3.25
114.10,-1.30,-4.48,-1.28,-4.45,4.45,4.00,4.36,3.15,3.17,3.18
115.24,-1.28,-4.38,-1.27,-4.37,4.37,3.93,4.33,3.09,3.10,3.10
116.39,-1.27,-4.29,-1.25,-4.28,4.28,3.86,4.29,3.01,3.03,3.02
117.55,-1.25,-4.20,-1.23,-4.19,4.19,3.79,4.25,2.94,2.96,2.95
118.73,-1.22,-4.10,-1.21,-4.10,4.10,3.72,4.22,2.88,2.89,2.88
119.92,-1.17,-3.99,-1.18,-4.00,4.00,3.66,4.18,2.83,2.82,2.82
121.12,-1.14,-3.90,-1.15,-3.90,3.90,3.59,4.13,2.76,2.75,2.76
122.33,-1.12,-3.81,-1.12,-3.80,3.80,3.53,4.09,2.68,2.68,2.68
123.55,-1.09,-3.72,-1.08,-3.70,3.70,3.46,4.04,2.61,2.62,2.63
124.79,-1.05,-3.61,-1.05,-3.60,3.60,3.40,3.99,2.55,2.55,2.56
126.03,-1.01,-3.50,-1.03,-3.51,3.51,3.34,3.94,2.50,2.48,2.49
127.29,-0.99,-3.41,-1.01,-3.42,3.42,3.28,3.89,2.43,2.41,2.42
128.57,-0.97,-3.32,-0.99,-3.33,3.33,3.22,3.83,2.36,2.35,2.35
129.85,-0.94,-3.22,-0.97,-3.25,3.25,3.16,3.77,2.31,2.28,2.28
131.15,-0.93,-3.14,-0.96,-3.17,3.17,3.10,3.71,2.24,2.21,2.21
132.46,-0.93,-3.07,-0.95,-3.09,3.09,3.04,3.65,2.16,2.14,2.14
133.79,-0.94,-3.01,-0.95,-3.02,3.02,2.99,3.58,2.08,2.08,2.07
135.12,-0.95,-2.96,-0.94,-2.95,2.95,2.93,3.51,2.00,2.01,2.01
136.48,-0.96,-2.91,-0.94,-2.89,2.89,2.88,3.44,1.93,1.95,1.95
137.84,-0.96,-2.84,-0.95,-2.83,2.83,2.82,3.37,1.87,1.88,1.88
139.22,-0.96,-2.77,-0.95,-2.77,2.77,2.77,3.30,1.81,1.82,1.81
140.61,-0.96,-2.72,-0.95,-2.71,2.71,2.72,3.22,1.75,1.76,1.76
142.02,-0.96,-2.65,-0.96,-2.65,2.65,2.67,3.15,1.69,1.70,1.69
143.44,-0.96,-2.60,-0.96,-2.60,2.60,2.62,3.07,1.64,1.64,1.64
144.87,-0.96,-2.55,-0.96,-2.54,2.54,2.57,2.99,1.58,1.58,1.58
146.32,-0.96,-2.48,-0.96,-2.49,2.49,2.52,2.91,1.53,1.53,1.52
147.78,-0.96,-2.43,-0.96,-2.43,2.43,2.48,2.83,1.47,1.47,1.47
149.26,-0.96,-2.37,-0.96,-2.38,2.38,2.43,2.76,1.42,1.41,1.41
150.75,-0.96,-2.32,-0.96,-2.32,2.32,2.38,2.68,1.36,1.36,1.35
152.26,-0.96,-2.27,-0.96,-2.27,2.27,2.34,2.60,1.30,1.30,1.31
153.78,-0.96,-2.21,-0.96,-2.21,2.21,2.29,2.52,1.25,1.25,1.25
155.32,-0.96,-2.16,-0.96,-2.16,2.16,2.25,2.44,1.20,1.20,1.20
156.88,-0.96,-2.11,-0.96,-2.10,2.10,2.21,2.36,1.14,1.14,1.15
158.44,-0.96,-2.05,-0.96,-2.05,2.05,2.17,2.29,1.09,1.09,1.08
160.03,-0.96,-2.00,-0.96,-1.99,1.99,2.13,2.21,1.03,1.03,1.03
161.63,-0.96,-1.94,-0.96,-1.94,1.94,2.09,2.13,0.97,0.97,0.98
163.24,-0.96,-1.88,-0.96,-1.88,1.88,2.05,2.06,0.92,0.92,0.92
164.88,-0.96,-1.82,-0.96,-1.82,1.82,2.01,1.98,0.86,0.86,0.86
166.53,-0.96,-1.76,-0.96,-1.77,1.77,1.97,1.91,0.80,0.80,0.80
168.19,-0.96,-1.71,-0.96,-1.71,1.71,1.93,1.84,0.75,0.75,0.75
169.87,-0.96,-1.65,-0.96,-1.65,1.65,1.89,1.76,0.69,0.69,0.69
171.57,-0.96,-1.59,-0.96,-1.59,1.59,1.86,1.69,0.63,0.63,0.63
173.29,-0.96,-1.54,-0.96,-1.54,1.54,1.82,1.62,0.58,0.58,0.58
175.02,-0.96,-1.48,-0.96,-1.48,1.48,1.79,1.55,0.52,0.52,0.52
176.77,-0.96,-1.43,-0.96,-1.42,1.42,1.75,1.49,0.46,0.46,0.46
178.54,-0.96,-1.37,-0.96,-1.37,1.37,1.72,1.42,0.41,0.41,0.41
180.32,-0.96,-1.30,-0.96,-1.31,1.31,1.69,1.35,0.35,0.35,0.34
182.13,-0.96,-1.26,-0.96,-1.26,1.26,1.65,1.29,0.30,0.30,0.30
183.95,-0.96,-1.21,-0.96,-1.20,1.20,1.62,1.22,0.24,0.24,0.25
185.79,-0.96,-1.15,-0.96,-1.15,1.15,1.59,1.16,0.19,0.19,0.19
187.65,-0.96,-1.10,-0.96,-1.10,1.10,1.56,1.10,0.14,0.14,0.14
189.52,-0.96,-1.05,-0.97,-1.05,1.05,1.53,1.03,0.09,0.08,0.09
191.42,-0.96,-1.00,-0.97,-1.00,1.00,1.50,0.97,0.04,0.03,0.04
193.33,-0.96,-0.95,-0.97,-0.96,0.96,1.47,0.91,-0.00,-0.01,-0.01
195.27,-0.96,-0.90,-0.98,-0.91,0.91,1.44,0.85,-0.05,-0.06,-0.06
197.22,-0.96,-0.84,-0.98,-0.87,0.87,1.42,0.79,-0.09,-0.11,-0.12
199.19,-0.97,-0.82,-0.98,-0.82,0.82,1.39,0.74,-0.15,-0.15,-0.15
201.18,-0.98,-0.78,-0.97,-0.78,0.78,1.36,0.68,-0.20,-0.19,-0.21
203.19,-0.98,-0.74,-0.97,-0.73,0.73,1.33,0.63,-0.25,-0.23,-0.24
205.23,-0.97,-0.70,-0.96,-0.68,0.68,1.31,0.57,-0.29,-0.27,-0.27
207.28,-0.96,-0.65,-0.95,-0.63,0.63,1.28,0.52,-0.33,-0.31,-0.31
209.35,-0.95,-0.60,-0.93,-0.58,0.58,1.26,0.47,-0.37,-0.35,-0.35
211.44,-0.93,-0.55,-0.91,-0.52,0.52,1.23,0.41,-0.41,-0.39,-0.39
213.56,-0.90,-0.49,-0.89,-0.46,0.46,1.21,0.37,-0.44,-0.42,-0.41
215.69,-0.86,-0.41,-0.86,-0.40,0.40,1.19,0.32,-0.46,-0.45,-0.45
217.85,-0.82,-0.34,-0.83,-0.34,0.34,1.16,0.27,-0.48,-0.49,-0.48
220.03,-0.80,-0.28,-0.80,-0.28,0.28,1.14,0.22,-0.52,-0.52,-0.52
222.23,-0.77,-0.22,-0.76,-0.22,0.22,1.12,0.18,-0.55,-0.55,-0.55
224.45,-0.73,-0.16,-0.74,-0.16,0.16,1.09,0.14,-0.57,-0.57,-0.58
226.70,-0.69,-0.08,-0.71,-0.11,0.11,1.07,0.10,-0.58,-0.60,-0.61
228.96,-0.66,-0.04,-0.68,-0.06,0.06,1.05,0.06,-0.60,-0.63,-0.62
231.25,-0.64,0.01,-0.66,-0.02,0.02,1.03,0.02,-0.63,-0.65,-0.65
233.57,-0.62,0.05,-0.65,0.02,-0.02,1.01,-0.01,-0.64,-0.67,-0.67
235.90,-0.61,0.08,-0.63,0.05,-0.05,0.99,-0.05,-0.67,-0.69,-0.69
238.26,-0.61,0.11,-0.63,0.08,-0.08,0.97,-0.08,-0.69,-0.71,-0.72
240.64,-0.62,0.09,-0.62,0.10,-0.10,0.95,-0.10,-0.72,-0.72,-0.72
243.05,-0.63,0.10,-0.62,0.12,-0.12,0.93,-0.13,-0.75,-0.73,-0.73
245.48,-0.63,0.12,-0.62,0.13,-0.13,0.91,-0.15,-0.76,-0.75,-0.75
247.93,-0.63,0.14,-0.62,0.14,-0.14,0.90,-0.18,-0.77,-0.76,-0.77
250.41,-0.63,0.13,-0.62,0.14,-0.14,0.88,-0.20,-0.78,-0.77,-0.76
252.92,-0.63,0.14,-0.62,0.15,-0.15,0.86,-0.21,-0.78,-0.77,-0.77
255.45,-0.63,0.15,-0.63,0.15,-0.15,0.84,-0.23,-0.79,-0.78,-0.78
258.00,-0.63,0.15,-0.63,0.16,-0.16,0.83,-0.24,-0.79,-0.79,-0.79
260.58,-0.63,0.16,-0.63,0.16,-0.16,0.81,-0.25,-0.79,-0.79,-0.79
263.19,-0.63,0.16,-0.63,0.17,-0.17,0.79,-0.26,-0.80,-0.80,-0.79
265.82,-0.63,0.17,-0.63,0.17,-0.17,0.78,-0.27,-0.81,-0.81,-0.81
268.48,-0.63,0.18,-0.63,0.18,-0.18,0.76,-0.27,-0.81,-0.81,-0.81
271.16,-0.63,0.18,-0.63,0.19,-0.19,0.75,-0.27,-0.82,-0.82,-0.81
273.87,-0.63,0.19,-0.63,0.19,-0.19,0.73,-0.28,-0.82,-0.82,-0.82
276.61,-0.63,0.19,-0.63,0.19,-0.19,0.72,-0.28,-0.83,-0.83,-0.82
279.38,-0.63,0.21,-0.63,0.20,-0.20,0.70,-0.27,-0.83,-0.83,-0.84
282.17,-0.63,0.21,-0.63,0.20,-0.20,0.69,-0.27,-0.83,-0.83,-0.84
284.99,-0.63,0.20,-0.63,0.20,-0.20,0.67,-0.27,-0.83,-0.83,-0.83
287.84,-0.63,0.20,-0.63,0.20,-0.20,0.66,-0.26,-0.83,-0.83,-0.83
290.72,-0.63,0.21,-0.63,0.20,-0.20,0.64,-0.25,-0.83,-0.83,-0.84
293.63,-0.63,0.20,-0.63,0.20,-0.20,0.63,-0.25,-0.83,-0.83,-0.83
296.57,-0.63,0.20,-0.63,0.20,-0.20,0.62,-0.24,-0.83,-0.83,-0.83
299.53,-0.63,0.20,-0.63,0.20,-0.20,0.61,-0.23,-0.83,-0.83,-0.83
302.53,-0.63,0.18,-0.63,0.19,-0.19,0.59,-0.22,-0.82,-0.82,-0.81
305.55,-0.63,0.19,-0.63,0.19,-0.19,0.58,-0.21,-0.82,-0.82,-0.82
308.61,-0.63,0.18,-0.63,0.18,-0.18,0.57,-0.20,-0.81,-0.81,-0.81
311.69,-0.63,0.18,-0.63,0.18,-0.18,0.56,-0.19,-0.81,-0.81,-0.81
314.81,-0.63,0.17,-0.63,0.17,-0.17,0.54,-0.18,-0.80,-0.80,-0.80
317.96,-0.63,0.17,-0.63,0.17,-0.17,0.53,-0.17,-0.80,-0.80,-0.80
321.14,-0.63,0.15,-0.63,0.16,-0.16,0.52,-0.16,-0.79,-0.79,-0.79
324.35,-0.63,0.16,-0.63,0.15,-0.15,0.51,-0.14,-0.78,-0.78,-0.79
327.59,-0.63,0.14,-0.63,0.15,-0.15,0.50,-0.13,-0.78,-0.78,-0.77
330.87,-0.63,0.14,-0.63,0.14,-0.14,0.49,-0.12,-0.77,-0.77,-0.77
334.18,-0.63,0.14,-0.63,0.14,-0.14,0.48,-0.11,-0.77,-0.77,-0.77
337.52,-0.63,0.13,-0.63,0.13,-0.13,0.47,-0.10,-0.76,-0.76,-0.76
340.90,-0.63,0.12,-0.63,0.12,-0.12,0.46,-0.09,-0.75,-0.75,-0.75
344.30,-0.63,0.11,-0.63,0.11,-0.11,0.45,-0.08,-0.75,-0.75,-0.74
347.75,-0.63,0.11,-0.63,0.11,-0.11,0.44,-0.07,-0.74,-0.74,-0.74
351.23,-0.63,0.11,-0.63,0.10,-0.10,0.43,-0.05,-0.73,-0.73,-0.74
354.74,-0.63,0.09,-0.63,0.09,-0.09,0.42,-0.04,-0.73,-0.73,-0.72
358.28,-0.63,0.09,-0.63,0.09,-0.09,0.41,-0.03,-0.72,-0.72,-0.72
361.87,-0.63,0.08,-0.63,0.08,-0.08,0.40,-0.02,-0.71,-0.71,-0.72
365.49,-0.63,0.08,-0.63,0.08,-0.08,0.39,-0.01,-0.71,-0.71,-0.71
369.14,-0.63,0.06,-0.63,0.07,-0.07,0.38,-0.00,-0.70,-0.70,-0.69
372.83,-0.63,0.05,-0.63,0.06,-0.06,0.37,0.01,-0.69,-0.69,-0.69
376.56,-0.63,0.06,-0.63,0.05,-0.05,0.36,0.02,-0.68,-0.68,-0.69
380.33,-0.63,0.05,-0.63,0.04,-0.04,0.36,0.03,-0.68,-0.68,-0.68
384.13,-0.63,0.03,-0.63,0.04,-0.04,0.35,0.04,-0.67,-0.67,-0.67
387.97,-0.63,0.03,-0.63,0.03,-0.03,0.34,0.05,-0.66,-0.66,-0.66
391.85,-0.63,0.02,-0.63,0.02,-0.02,0.33,0.06,-0.65,-0.65,-0.65
395.77,-0.63,0.01,-0.63,0.01,-0.01,0.32,0.07,-0.64,-0.64,-0.64
399.73,-0.63,0.01,-0.63,-0.00,0.00,0.31,0.08,-0.63,-0.63,-0.64
403.72,-0.63,-0.02,-0.63,-0.01,0.01,0.31,0.09,-0.62,-0.62,-0.61
407.76,-0.63,-0.02,-0.63,-0.02,0.02,0.30,0.09,-0.61,-0.61,-0.61
411.84,-0.63,-0.03,-0.63,-0.03,0.03,0.29,0.10,-0.60,-0.60,-0.60
415.96,-0.63,-0.04,-0.63,-0.04,0.04,0.28,0.11,-0.60,-0.60,-0.59
420.12,-0.63,-0.04,-0.63,-0.05,0.05,0.28,0.12,-0.59,-0.59,-0.59
424.32,-0.63,-0.05,-0.63,-0.05,0.05,0.27,0.13,-0.58,-0.58,-0.58
428.56,-0.63,-0.07,-0.63,-0.06,0.06,0.26,0.14,-0.57,-0.57,-0.56
432.85,-0.63,-0.08,-0.63,-0.07,0.07,0.26,0.14,-0.56,-0.56,-0.56
437.18,-0.63,-0.07,-0.63,-0.08,0.08,0.25,0.15,-0.55,-0.55,-0.56
441.55,-0.63,-0.08,-0.63,-0.09,0.09,0.24,0.16,-0.54,-0.54,-0.55
445.96,-0.63,-0.09,-0.63,-0.10,0.10,0.24,0.17,-0.54,-0.54,-0.54
450.42,-0.63,-0.10,-0.63,-0.10,0.10,0.23,0.17,-0.53,-0.53,-0.53
454.93,-0.63,-0.11,-0.63,-0.11,0.11,0.22,0.18,-0.52,-0.52,-0.52
