frequency,raw,error,smoothed,error_smoothed,equalization,parametric_eq,fixed_band_eq,equalized_raw,equalized_smoothed,target
20.00,-14.75,-18.02,-14.76,-18.03,18.05,16.43,5.40,3.29,3.29,3.27
20.20,-14.56,-17.88,-14.56,-17.88,17.89,16.36,5.53,3.32,3.32,3.32
20.40,-14.37,-17.74,-14.37,-17.74,17.73,16.30,5.67,3.36,3.36,3.37
20.61,-14.20,-17.60,-14.19,-17.60,17.58,16.23,5.81,3.38,3.39,3.40
20.81,-14.00,-17.45,-14.01,-17.45,17.44,16.17,5.95,3.43,3.43,3.45
21.02,-13.82,-17.31,-13.83,-17.31,17.30,16.10,6.10,3.48,3.47,3.49
21.23,-13.67,-17.18,-13.67,-17.18,17.17,16.03,6.25,3.50,3.50,3.51
21.44,-13.52,-17.05,-13.52,-17.05,17.05,15.96,6.41,3.53,3.53,3.53
21.66,-13.38,-16.93,-13.37,-16.92,16.94,15.89,6.57,3.56,3.57,3.55
21.87,-13.23,-16.79,-13.24,-16.80,16.84,15.82,6.73,3.60,3.60,3.56
22.09,-13.11,-16.69,-13.13,-16.70,16.74,15.75,6.90,3.63,3.61,3.58
22.31,-13.04,-16.63,-13.04,-16.63,16.65,15.67,7.07,3.60,3.61,3.59
22.54,-12.98,-16.56,-12.97,-16.56,16.55,15.60,7.25,3.57,3.57,3.59
22.76,-12.89,-16.48,-12.90,-16.49,16.44,15.52,7.43,3.55,3.54,3.59
22.99,-12.82,-16.40,-12.80,-16.38,16.33,15.45,7.62,3.51,3.53,3.58
23.22,-12.66,-16.24,-12.67,-16.25,16.21,15.37,7.81,3.55,3.54,3.58
23.45,-12.50,-16.08,-12.51,-16.09,16.08,15.29,8.01,3.58,3.57,3.58
23.69,-12.34,-15.93,-12.33,-15.92,15.94,15.21,8.21,3.60,3.61,3.59
23.92,-12.16,-15.75,-12.17,-15.76,15.79,15.13,8.42,3.63,3.62,3.59
24.16,-12.02,-15.61,-12.02,-15.61,15.64,15.04,8.63,3.61,3.62,3.59
24.40,-11.88,-15.48,-11.88,-15.47,15.48,14.96,8.85,3.60,3.60,3.60
24.65,-11.75,-15.33,-11.75,-15.34,15.33,14.87,9.07,3.59,3.59,3.59
24.89,-11.61,-15.20,-11.61,-15.20,15.19,14.79,9.30,3.58,3.58,3.59
25.14,-11.47,-15.06,-11.47,-15.06,15.05,14.70,9.53,3.58,3.58,3.59
25.39,-11.32,-14.92,-11.33,-14.92,14.91,14.61,9.77,3.59,3.59,3.60
25.65,-11.18,-14.78,-11.18,-14.77,14.78,14.52,10.01,3.60,3.60,3.60
25.91,-11.04,-14.63,-11.04,-14.63,14.65,14.43,10.25,3.61,3.61,3.59
26.16,-10.90,-14.49,-10.91,-14.50,14.52,14.33,10.50,3.62,3.61,3.59
26.43,-10.80,-14.39,-10.79,-14.38,14.39,14.24,10.75,3.59,3.60,3.59
26.69,-10.67,-14.26,-10.67,-14.26,14.26,14.14,11.00,3.58,3.58,3.59
26.96,-10.56,-14.14,-10.55,-14.14,14.13,14.04,11.25,3.57,3.57,3.59
27.23,-10.43,-14.01,-10.42,-14.01,14.00,13.94,11.50,3.57,3.57,3.59
27.50,-10.28,-13.87,-10.29,-13.87,13.86,13.84,11.75,3.58,3.58,3.59
27.77,-10.14,-13.72,-10.14,-13.73,13.73,13.74,12.00,3.58,3.58,3.58
28.05,-10.00,-13.58,-10.00,-13.58,13.58,13.64,12.24,3.58,3.58,3.58
28.33,-9.86,-13.43,-9.86,-13.43,13.44,13.54,12.47,3.58,3.58,3.57
28.62,-9.72,-13.29,-9.72,-13.29,13.29,13.43,12.70,3.57,3.57,3.57
28.90,-9.57,-13.15,-9.57,-13.15,13.14,13.32,12.91,3.57,3.57,3.58
29.19,-9.42,-12.99,-9.43,-13.00,13.00,13.21,13.10,3.58,3.58,3.57
29.48,-9.28,-12.86,-9.28,-12.86,12.86,13.10,13.27,3.58,3.58,3.58
29.78,-9.14,-12.70,-9.14,-12.71,12.72,12.99,13.43,3.59,3.58,3.57
30.08,-9.00,-12.58,-9.00,-12.57,12.58,12.88,13.55,3.58,3.58,3.58
30.38,-8.87,-12.44,-8.87,-12.44,12.44,12.76,13.66,3.57,3.57,3.57
30.68,-8.73,-12.30,-8.74,-12.31,12.29,12.65,13.73,3.56,3.55,3.57
30.99,-8.61,-12.17,-8.60,-12.16,12.14,12.53,13.77,3.54,3.55,3.57
31.30,-8.45,-12.01,-8.45,-12.01,12.00,12.41,13.77,3.55,3.55,3.56
31.61,-8.28,-11.84,-8.29,-11.84,11.85,12.29,13.75,3.56,3.56,3.56
31.93,-8.13,-11.69,-8.13,-11.69,11.70,12.16,13.69,3.58,3.57,3.56
32.24,-7.98,-11.53,-7.99,-11.54,11.56,12.04,13.60,3.58,3.57,3.55
32.57,-7.87,-11.41,-7.86,-11.41,11.42,11.91,13.48,3.55,3.56,3.55
32.89,-7.73,-11.28,-7.73,-11.28,11.28,11.79,13.34,3.55,3.55,3.55
33.22,-7.60,-11.14,-7.61,-11.15,11.15,11.66,13.16,3.54,3.54,3.54
33.55,-7.48,-11.02,-7.48,-11.02,11.02,11.53,12.97,3.54,3.54,3.54
33.89,-7.35,-10.88,-7.36,-10.89,10.89,11.40,12.76,3.54,3.54,3.53
34.23,-7.23,-10.76,-7.23,-10.76,10.76,11.26,12.54,3.53,3.53,3.53
34.57,-7.10,-10.62,-7.11,-10.63,10.63,11.13,12.30,3.52,3.52,3.52
34.92,-6.99,-10.50,-6.98,-10.49,10.49,10.99,12.06,3.50,3.51,3.52
35.27,-6.84,-10.35,-6.84,-10.35,10.34,10.85,11.80,3.50,3.50,3.51
35.62,-6.68,-10.19,-6.69,-10.20,10.18,10.71,11.54,3.49,3.49,3.51
35.97,-6.52,-10.03,-6.52,-10.03,10.01,10.57,11.28,3.49,3.49,3.51
36.33,-6.35,-9.86,-6.35,-9.86,9.84,10.43,11.02,3.49,3.49,3.51
36.70,-6.18,-9.67,-6.18,-9.68,9.68,10.28,10.75,3.50,3.50,3.50
37.06,-6.00,-9.50,-5.99,-9.50,9.52,10.13,10.49,3.52,3.53,3.50
37.43,-5.82,-9.33,-5.81,-9.32,9.38,9.98,10.23,3.56,3.57,3.51
37.81,-5.64,-9.15,-5.66,-9.17,9.24,9.84,9.97,3.59,3.58,3.51
38.19,-5.53,-9.03,-5.57,-9.08,9.09,9.68,9.72,3.56,3.52,3.50
38.57,-5.49,-9.00,-5.49,-9.00,8.94,9.53,9.47,3.45,3.45,3.51
38.95,-5.45,-8.97,-5.39,-8.91,8.80,9.38,9.22,3.35,3.41,3.52
39.34,-5.24,-8.75,-5.23,-8.74,8.67,9.22,8.98,3.43,3.44,3.51
39.74,-5.01,-8.51,-5.03,-8.54,8.55,9.06,8.74,3.55,3.52,3.51
40.14,-4.81,-8.32,-4.83,-8.33,8.44,8.90,8.51,3.63,3.62,3.51
40.54,-4.70,-8.21,-4.69,-8.20,8.32,8.74,8.28,3.62,3.63,3.51
40.94,-4.59,-8.09,-4.62,-8.13,8.19,8.58,8.05,3.60,3.57,3.50
41.35,-4.58,-8.08,-4.60,-8.10,8.05,8.42,7.83,3.47,3.45,3.50
41.76,-4.57,-8.06,-4.54,-8.03,7.91,8.26,7.62,3.34,3.37,3.49
42.18,-4.45,-7.94,-4.40,-7.89,7.77,8.09,7.41,3.31,3.36,3.49
42.60,-4.18,-7.66,-4.19,-7.67,7.62,7.92,7.20,3.44,3.42,3.48
43.03,-3.91,-7.38,-3.96,-7.43,7.46,7.75,7.00,3.54,3.50,3.47
43.46,-3.75,-7.21,-3.75,-7.20,7.28,7.59,6.81,3.53,3.54,3.46
43.90,-3.60,-7.04,-3.59,-7.03,7.10,7.42,6.62,3.50,3.51,3.44
44.33,-3.46,-6.88,-3.47,-6.89,6.92,7.25,6.43,3.45,3.45,3.42
44.78,-3.34,-6.74,-3.34,-6.75,6.74,7.07,6.25,3.40,3.40,3.40
45.23,-3.23,-6.61,-3.22,-6.61,6.58,6.90,6.07,3.36,3.36,3.39
45.68,-3.09,-6.47,-3.10,-6.47,6.44,6.73,5.89,3.35,3.35,3.38
46.13,-2.96,-6.32,-2.96,-6.33,6.32,6.55,5.72,3.36,3.36,3.36
46.60,-2.84,-6.19,-2.83,-6.18,6.20,6.38,5.56,3.37,3.37,3.36
47.06,-2.69,-6.03,-2.69,-6.03,6.08,6.20,5.39,3.39,3.39,3.34
47.53,-2.57,-5.90,-2.57,-5.90,5.95,6.03,5.23,3.37,3.38,3.33
48.01,-2.45,-5.78,-2.50,-5.82,5.81,5.85,5.08,3.36,3.31,3.33
48.49,-2.42,-5.73,-2.43,-5.74,5.67,5.68,4.92,3.25,3.24,3.31
48.97,-2.39,-5.68,-2.30,-5.59,5.53,5.50,4.77,3.13,3.23,3.29
49.46,-2.12,-5.39,-2.12,-5.39,5.36,5.33,4.63,3.24,3.25,3.27
49.96,-1.84,-5.09,-1.93,-5.18,5.20,5.15,4.48,3.36,3.26,3.25
50.46,-1.75,-4.99,-1.76,-5.00,5.03,4.98,4.34,3.27,3.27,3.24
50.96,-1.69,-4.92,-1.62,-4.85,4.86,4.80,4.21,3.17,3.24,3.23
51.47,-1.48,-4.69,-1.48,-4.69,4.69,4.63,4.07,3.21,3.21,3.21
51.99,-1.26,-4.46,-1.28,-4.48,4.53,4.46,3.94,3.27,3.24,3.20
52.51,-1.12,-4.30,-1.12,-4.31,4.37,4.28,3.81,3.25,3.25,3.19
53.03,-0.99,-4.18,-1.05,-4.24,4.21,4.11,3.68,3.22,3.16,3.19
53.56,-1.00,-4.17,-0.98,-4.15,4.07,3.94,3.56,3.07,3.09,3.17
54.10,-0.94,-4.10,-0.81,-3.97,3.93,3.78,3.44,2.99,3.12,3.16
54.64,-0.58,-3.72,-0.64,-3.78,3.80,3.61,3.32,3.22,3.16,3.14
55.18,-0.34,-3.48,-0.47,-3.61,3.66,3.44,3.20,3.31,3.18,3.14
55.74,-0.42,-3.54,-0.35,-3.47,3.52,3.28,3.08,3.10,3.17,3.12
56.29,-0.35,-3.46,-0.29,-3.40,3.39,3.12,2.97,3.04,3.10,3.11
56.86,-0.18,-3.27,-0.22,-3.31,3.26,2.96,2.86,3.08,3.04,3.10
57.42,-0.06,-3.13,-0.08,-3.15,3.14,2.80,2.75,3.08,3.06,3.07
58.00,0.03,-3.03,0.08,-2.99,3.03,2.64,2.65,3.06,3.11,3.06
58.58,0.20,-2.85,0.17,-2.87,2.92,2.49,2.54,3.11,3.09,3.05
59.16,0.32,-2.71,0.24,-2.79,2.79,2.34,2.44,3.11,3.04,3.03
59.76,0.26,-2.75,0.31,-2.69,2.66,2.19,2.34,2.92,2.97,3.01
60.35,0.35,-2.62,0.39,-2.58,2.51,2.04,2.24,2.86,2.90,2.97
60.96,0.55,-2.38,0.51,-2.43,2.36,1.90,2.15,2.91,2.87,2.93
61.57,0.68,-2.21,0.68,-2.21,2.22,1.76,2.05,2.90,2.90,2.89
62.18,0.81,-2.04,0.82,-2.03,2.07,1.62,1.96,2.88,2.89,2.85
62.80,0.95,-1.85,0.91,-1.90,1.92,1.49,1.87,2.87,2.83,2.80
63.43,1.01,-1.75,1.01,-1.74,1.78,1.36,1.78,2.78,2.79,2.76
64.07,1.05,-1.66,1.13,-1.58,1.63,1.23,1.69,2.67,2.76,2.71
64.71,1.27,-1.40,1.17,-1.50,1.48,1.10,1.61,2.75,2.66,2.67
65.35,1.30,-1.33,1.24,-1.39,1.35,0.98,1.52,2.65,2.59,2.63
66.01,1.17,-1.41,1.33,-1.25,1.23,0.86,1.44,2.39,2.56,2.58
66.67,1.46,-1.07,1.40,-1.13,1.10,0.74,1.36,2.55,2.50,2.53
67.33,1.60,-0.88,1.52,-0.96,0.96,0.62,1.28,2.56,2.48,2.48
68.01,1.59,-0.85,1.67,-0.76,0.82,0.51,1.20,2.40,2.49,2.44
68.69,1.76,-0.63,1.71,-0.68,0.67,0.40,1.12,2.42,2.38,2.39
69.37,1.82,-0.52,1.78,-0.56,0.52,0.29,1.04,2.34,2.30,2.34
70.07,1.80,-0.49,1.90,-0.39,0.38,0.19,0.96,2.17,2.28,2.29
70.77,2.04,-0.20,2.01,-0.23,0.25,0.09,0.88,2.28,2.25,2.24
71.48,2.16,-0.03,2.12,-0.07,0.11,-0.01,0.81,2.27,2.23,2.19
72.19,2.20,0.08,2.18,0.06,-0.01,-0.11,0.73,2.19,2.17,2.12
72.91,2.17,0.11,2.17,0.11,-0.13,-0.20,0.65,2.04,2.05,2.06
73.64,2.16,0.15,2.22,0.21,-0.24,-0.29,0.58,1.91,1.97,2.01
74.38,2.27,0.32,2.27,0.32,-0.36,-0.38,0.50,1.91,1.91,1.95
75.12,2.44,0.55,2.35,0.46,-0.46,-0.47,0.43,1.97,1.88,1.89
75.87,2.35,0.52,2.42,0.59,-0.57,-0.56,0.35,1.78,1.86,1.83
76.63,2.47,0.69,2.44,0.66,-0.66,-0.64,0.28,1.80,1.78,1.78
77.40,2.50,0.77,2.47,0.74,-0.76,-0.72,0.20,1.74,1.71,1.73
78.17,2.47,0.80,2.55,0.87,-0.85,-0.80,0.12,1.62,1.70,1.67
78.95,2.64,1.01,2.59,0.96,-0.93,-0.88,0.05,1.70,1.66,1.63
79.74,2.65,1.07,2.62,1.04,-1.01,-0.95,-0.03,1.63,1.61,1.58
80.54,2.62,1.09,2.62,1.09,-1.09,-1.03,-0.11,1.52,1.52,1.53
81.35,2.59,1.11,2.60,1.12,-1.17,-1.10,-0.19,1.42,1.43,1.48
82.16,2.59,1.16,2.64,1.21,-1.25,-1.17,-0.26,1.33,1.39,1.43
82.98,2.75,1.36,2.72,1.34,-1.34,-1.24,-0.34,1.41,1.38,1.39
83.81,2.85,1.51,2.79,1.45,-1.43,-1.31,-0.42,1.42,1.36,1.34
84.65,2.83,1.54,2.83,1.53,-1.52,-1.38,-0.51,1.31,1.31,1.29
85.50,2.81,1.56,2.85,1.60,-1.61,-1.44,-0.59,1.20,1.24,1.25
86.35,2.88,1.68,2.90,1.70,-1.71,-1.51,-0.67,1.17,1.19,1.20
87.22,3.01,1.86,2.96,1.81,-1.80,-1.57,-0.76,1.20,1.16,1.15
88.09,3.04,1.94,3.00,1.90,-1.89,-1.63,-0.84,1.14,1.10,1.10
88.97,2.99,1.95,3.02,1.97,-1.98,-1.70,-0.93,1.01,1.04,1.04
89.86,2.99,2.00,3.04,2.05,-2.06,-1.76,-1.01,0.93,0.98,0.99
90.76,3.12,2.18,3.08,2.14,-2.15,-1.81,-1.10,0.97,0.93,0.94
91.66,3.16,2.27,3.12,2.24,-2.23,-1.87,-1.19,0.92,0.89,0.89
92.58,3.14,2.31,3.15,2.32,-2.31,-1.93,-1.28,0.82,0.83,0.83
93.51,3.14,2.36,3.16,2.38,-2.39,-1.99,-1.37,0.74,0.77,0.78
94.44,3.19,2.45,3.19,2.46,-2.46,-2.04,-1.47,0.72,0.73,0.74
95.39,3.26,2.57,3.23,2.54,-2.53,-2.09,-1.56,0.73,0.70,0.69
96.34,3.25,2.61,3.25,2.61,-2.59,-2.15,-1.65,0.66,0.66,0.64
97.30,3.25,2.66,3.25,2.66,-2.64,-2.20,-1.75,0.61,0.61,0.59
98.28,3.24,2.70,3.23,2.69,-2.68,-2.25,-1.85,0.55,0.55,0.54
99.26,3.22,2.72,3.22,2.72,-2.73,-2.30,-1.94,0.49,0.49,0.50
100.25,3.20,2.75,3.19,2.74,-2.77,-2.35,-2.04,0.43,0.42,0.45
101.25,3.17,2.77,3.18,2.78,-2.80,-2.40,-2.14,0.36,0.37,0.40
102.27,3.17,2.82,3.18,2.83,-2.83,-2.45,-2.23,0.33,0.35,0.35
103.29,3.19,2.89,3.17,2.87,-2.86,-2.49,-2.33,0.33,0.31,0.30
104.32,3.18,2.92,3.16,2.90,-2.89,-2.54,-2.42,0.29,0.27,0.26
105.37,3.11,2.90,3.13,2.93,-2.91,-2.58,-2.52,0.20,0.23,0.21
106.42,3.10,2.94,3.09,2.93,-2.92,-2.63,-2.61,0.17,0.17,0.16
107.48,3.06,2.96,3.04,2.93,-2.93,-2.67,-2.71,0.12,0.10,0.10
108.56,2.98,2.93,2.99,2.94,-2.94,-2.71,-2.80,0.04,0.06,0.05
109.64,2.93,2.93,2.94,2.94,-2.94,-2.76,-2.89,-0.01,0.00,-0.00
110.74,2.91,2.97,2.88,2.93,-2.95,-2.80,-2.98,-0.04,-0.07,-0.06
111.85,2.84,2.94,2.83,2.93,-2.96,-2.84,-3.06,-0.12,-0.13,-0.10
112.97,2.76,2.92,2.78,2.94,-2.97,-2.88,-3.14,-0.21,-0.18,-0.16
114.10,2.76,2.97,2.76,2.97,-2.99,-2.92,-3.22,-0.23,-0.22,-0.21
115.24,2.77,3.03,2.76,3.02,-3.01,-2.95,-3.29,-0.24,-0.25,-0.26
116.39,2.78,3.09,2.75,3.06,-3.04,-2.99,-3.36,-0.26,-0.29,-0.31
117.55,2.72,3.07,2.72,3.07,-3.07,-3.03,-3.43,-0.35,-0.35,-0.35
118.73,2.68,3.07,2.70,3.09,-3.10,-3.06,-3.49,-0.42,-0.40,-0.39
119.92,2.69,3.11,2.69,3.11,-3.12,-3.10,-3.54,-0.44,-0.44,-0.42
121.12,2.70,3.16,2.69,3.15,-3.14,-3.13,-3.59,-0.44,-0.44,-0.46
122.33,2.70,3.19,2.69,3.18,-3.14,-3.16,-3.63,-0.45,-0.45,-0.49
123.55,2.67,3.19,2.66,3.18,-3.15,-3.19,-3.67,-0.48,-0.49,-0.52
124.79,2.62,3.17,2.61,3.16,-3.16,-3.23,-3.70,-0.55,-0.55,-0.55
126.03,2.55,3.13,2.57,3.14,-3.18,-3.26,-3.73,-0.63,-0.61,-0.58
127.29,2.54,3.14,2.54,3.14,-3.19,-3.28,-3.75,-0.66,-0.65,-0.60
128.57,2.54,3.18,2.53,3.17,-3.20,-3.31,-3.77,-0.67,-0.67,-0.64
129.85,2.54,3.21,2.54,3.21,-3.21,-3.34,-3.78,-0.67,-0.67,-0.67
131.15,2.55,3.25,2.55,3.25,-3.21,-3.37,-3.78,-0.67,-0.66,-0.70
132.46,2.55,3.28,2.54,3.27,-3.22,-3.39,-3.78,-0.67,-0.68,-0.73
133.79,2.54,3.30,2.50,3.26,-3.23,-3.42,-3.78,-0.69,-0.73,-0.76
135.12,2.43,3.22,2.44,3.23,-3.24,-3.44,-3.76,-0.81,-0.79,-0.79
136.48,2.38,3.19,2.39,3.21,-3.24,-3.47,-3.75,-0.87,-0.85,-0.81
137.84,2.36,3.21,2.36,3.21,-3.25,-3.49,-3.73,-0.90,-0.89,-0.85
139.22,2.37,3.25,2.36,3.24,-3.26,-3.51,-3.71,-0.90,-0.91,-0.88
140.61,2.37,3.28,2.36,3.27,-3.28,-3.53,-3.69,-0.91,-0.92,-0.91
142.02,2.37,3.30,2.37,3.30,-3.30,-3.55,-3.66,-0.93,-0.93,-0.93
143.44,2.37,3.33,2.37,3.34,-3.31,-3.57,-3.63,-0.95,-0.94,-0.96
144.87,2.37,3.37,2.37,3.37,-3.33,-3.59,-3.60,-0.96,-0.96,-1.00
146.32,2.37,3.41,2.35,3.38,-3.34,-3.61,-3.57,-0.98,-1.00,-1.04
147.78,2.31,3.38,2.29,3.37,-3.36,-3.63,-3.54,-1.05,-1.06,-1.07
149.26,2.21,3.33,2.23,3.35,-3.37,-3.64,-3.51,-1.16,-1.14,-1.12
150.75,2.16,3.34,2.16,3.34,-3.38,-3.66,-3.48,-1.23,-1.22,-1.18
152.26,2.14,3.39,2.11,3.36,-3.40,-3.67,-3.45,-1.27,-1.29,-1.25
153.78,2.07,3.39,2.10,3.41,-3.43,-3.68,-3.42,-1.36,-1.33,-1.32
155.32,2.07,3.46,2.07,3.47,-3.46,-3.69,-3.39,-1.40,-1.39,-1.39
156.88,2.09,3.56,2.04,3.51,-3.51,-3.71,-3.36,-1.43,-1.47,-1.47
158.44,2.00,3.55,2.02,3.57,-3.56,-3.72,-3.33,-1.57,-1.55,-1.55
160.03,1.97,3.60,1.99,3.62,-3.62,-3.73,-3.31,-1.65,-1.63,-1.63
161.63,1.97,3.67,1.96,3.66,-3.66,-3.73,-3.28,-1.69,-1.70,-1.70
163.24,1.97,3.73,1.94,3.70,-3.69,-3.74,-3.26,-1.73,-1.75,-1.76
164.88,1.90,3.71,1.92,3.73,-3.71,-3.75,-3.24,-1.81,-1.79,-1.81
166.53,1.87,3.73,1.87,3.73,-3.71,-3.75,-3.22,-1.84,-1.83,-1.86
168.19,1.84,3.74,1.80,3.70,-3.69,-3.76,-3.21,-1.85,-1.89,-1.90
169.87,1.72,3.66,1.74,3.67,-3.65,-3.76,-3.20,-1.94,-1.92,-1.94
171.57,1.64,3.60,1.67,3.63,-3.61,-3.76,-3.19,-1.97,-1.94,-1.96
173.29,1.63,3.60,1.59,3.56,-3.56,-3.76,-3.18,-1.94,-1.98,-1.97
175.02,1.54,3.52,1.52,3.50,-3.52,-3.76,-3.17,-1.98,-2.00,-1.98
176.77,1.42,3.41,1.46,3.45,-3.48,-3.76,-3.17,-2.06,-2.02,-1.99
178.54,1.42,3.42,1.41,3.41,-3.45,-3.76,-3.17,-2.04,-2.04,-2.00
180.32,1.42,3.41,1.41,3.40,-3.43,-3.76,-3.17,-2.02,-2.03,-1.99
182.13,1.43,3.41,1.42,3.41,-3.42,-3.76,-3.18,-2.00,-2.00,-1.98
183.95,1.44,3.43,1.44,3.43,-3.41,-3.75,-3.18,-1.98,-1.97,-1.99
185.79,1.45,3.44,1.46,3.46,-3.41,-3.75,-3.20,-1.96,-1.94,-1.99
187.65,1.48,3.49,1.45,3.46,-3.41,-3.74,-3.21,-1.93,-1.96,-2.01
189.52,1.44,3.46,1.40,3.43,-3.41,-3.73,-3.22,-1.97,-2.00,-2.02
191.42,1.32,3.36,1.35,3.39,-3.41,-3.73,-3.24,-2.10,-2.06,-2.04
193.33,1.29,3.35,1.31,3.37,-3.42,-3.72,-3.26,-2.13,-2.11,-2.06
195.27,1.32,3.40,1.30,3.38,-3.42,-3.71,-3.28,-2.11,-2.12,-2.08
197.22,1.34,3.44,1.33,3.43,-3.44,-3.70,-3.30,-2.10,-2.11,-2.10
199.19,1.35,3.47,1.35,3.47,-3.46,-3.69,-3.33,-2.11,-2.11,-2.12
201.18,1.35,3.49,1.35,3.49,-3.48,-3.67,-3.35,-2.14,-2.13,-2.14
203.19,1.36,3.52,1.35,3.51,-3.51,-3.66,-3.38,-2.15,-2.16,-2.16
205.23,1.36,3.54,1.37,3.54,-3.53,-3.64,-3.41,-2.17,-2.16,-2.18
207.28,1.37,3.56,1.36,3.56,-3.53,-3.63,-3.44,-2.17,-2.17,-2.19
209.35,1.37,3.58,1.34,3.56,-3.53,-3.61,-3.47,-2.16,-2.19,-2.21
211.44,1.29,3.53,1.31,3.54,-3.51,-3.60,-3.50,-2.23,-2.21,-2.24
213.56,1.25,3.50,1.25,3.50,-3.50,-3.58,-3.53,-2.25,-2.25,-2.25
215.69,1.21,3.47,1.19,3.45,-3.48,-3.56,-3.56,-2.27,-2.29,-2.26
217.85,1.13,3.40,1.15,3.42,-3.46,-3.54,-3.59,-2.33,-2.31,-2.27
220.03,1.13,3.41,1.13,3.42,-3.44,-3.52,-3.62,-2.32,-2.32,-2.28
222.23,1.14,3.45,1.13,3.42,-3.44,-3.50,-3.65,-2.30,-2.31,-2.31
224.45,1.14,3.44,1.13,3.44,-3.43,-3.48,-3.67,-2.30,-2.30,-2.30
226.70,1.14,3.44,1.14,3.44,-3.43,-3.46,-3.69,-2.29,-2.29,-2.30
228.96,1.14,3.43,1.15,3.44,-3.43,-3.44,-3.72,-2.29,-2.28,-2.29
231.25,1.16,3.44,1.16,3.44,-3.43,-3.41,-3.73,-2.27,-2.27,-2.28
233.57,1.18,3.45,1.16,3.43,-3.41,-3.39,-3.75,-2.24,-2.26,-2.27
235.90,1.15,3.41,1.14,3.40,-3.39,-3.36,-3.76,-2.24,-2.25,-2.26
238.26,1.10,3.35,1.12,3.37,-3.36,-3.34,-3.77,-2.26,-2.23,-2.25
240.64,1.11,3.33,1.11,3.33,-3.33,-3.31,-3.77,-2.22,-2.22,-2.22
243.05,1.12,3.31,1.09,3.28,-3.30,-3.29,-3.77,-2.18,-2.21,-2.19
245.48,1.07,3.24,1.07,3.24,-3.27,-3.26,-3.76,-2.20,-2.19,-2.17
247.93,1.05,3.19,1.06,3.20,-3.23,-3.23,-3.75,-2.19,-2.17,-2.14
250.41,1.07,3.19,1.07,3.18,-3.20,-3.21,-3.74,-2.14,-2.14,-2.12
252.92,1.10,3.19,1.10,3.19,-3.17,-3.18,-3.72,-2.08,-2.08,-2.09
255.45,1.12,3.19,1.11,3.18,-3.15,-3.15,-3.69,-2.03,-2.04,-2.07
258.00,1.12,3.17,1.09,3.14,-3.12,-3.12,-3.67,-2.00,-2.02,-2.05
260.58,1.05,3.08,1.07,3.09,-3.09,-3.09,-3.63,-2.04,-2.02,-2.03
263.19,1.03,3.03,1.04,3.04,-3.05,-3.06,-3.59,-2.03,-2.02,-2.00
265.82,1.03,3.01,1.02,3.00,-3.02,-3.03,-3.55,-1.99,-2.00,-1.98
268.48,1.02,2.98,1.02,2.98,-2.99,-3.00,-3.51,-1.97,-1.97,-1.96
271.16,1.02,2.95,1.02,2.95,-2.95,-2.97,-3.46,-1.94,-1.94,-1.93
273.87,1.02,2.93,1.01,2.92,-2.92,-2.94,-3.40,-1.91,-1.91,-1.91
276.61,1.01,2.89,1.01,2.89,-2.89,-2.91,-3.35,-1.88,-1.88,-1.88
279.38,1.01,2.86,1.01,2.86,-2.86,-2.88,-3.29,-1.85,-1.85,-1.85
282.17,1.02,2.85,1.02,2.85,-2.83,-2.85,-3.23,-1.81,-1.80,-1.83
284.99,1.02,2.81,1.01,2.81,-2.79,-2.82,-3.16,-1.77,-1.77,-1.79
287.84,1.03,2.80,0.99,2.76,-2.75,-2.79,-3.10,-1.72,-1.76,-1.77
290.72,0.94,2.68,0.97,2.71,-2.71,-2.75,-3.03,-1.77,-1.74,-1.74
293.63,0.94,2.65,0.95,2.66,-2.67,-2.72,-2.96,-1.74,-1.72,-1.71
296.57,0.97,2.65,0.95,2.63,-2.65,-2.69,-2.89,-1.68,-1.70,-1.68
299.53,0.98,2.63,0.97,2.62,-2.63,-2.66,-2.82,-1.66,-1.66,-1.65
302.53,0.99,2.62,0.97,2.60,-2.63,-2.63,-2.75,-1.64,-1.65,-1.63
305.55,1.00,2.59,1.01,2.61,-2.64,-2.59,-2.68,-1.65,-1.63,-1.59
308.61,1.04,2.61,1.08,2.65,-2.67,-2.56,-2.61,-1.63,-1.58,-1.57
311.69,1.21,2.75,1.16,2.70,-2.70,-2.53,-2.54,-1.49,-1.54,-1.54
314.81,1.26,2.78,1.22,2.74,-2.73,-2.50,-2.47,-1.47,-1.51,-1.52
317.96,1.24,2.74,1.26,2.76,-2.75,-2.46,-2.40,-1.52,-1.49,-1.50
321.14,1.25,2.74,1.30,2.79,-2.76,-2.43,-2.34,-1.52,-1.46,-1.49
324.35,1.37,2.84,1.34,2.81,-2.77,-2.40,-2.27,-1.40,-1.43,-1.47
327.59,1.40,2.86,1.32,2.78,-2.75,-2.37,-2.20,-1.36,-1.43,-1.46
330.87,1.26,2.71,1.30,2.74,-2.73,-2.33,-2.14,-1.47,-1.43,-1.45
334.18,1.17,2.60,1.24,2.67,-2.69,-2.30,-2.07,-1.53,-1.45,-1.43
337.52,1.27,2.69,1.19,2.61,-2.65,-2.27,-2.01,-1.39,-1.47,-1.42
340.90,1.18,2.59,1.18,2.59,-2.61,-2.24,-1.95,-1.44,-1.43,-1.41
344.30,1.13,2.53,1.17,2.58,-2.57,-2.20,-1.89,-1.44,-1.39,-1.40
347.75,1.17,2.57,1.13,2.52,-2.52,-2.17,-1.83,-1.36,-1.40,-1.40
351.23,1.11,2.50,1.10,2.49,-2.48,-2.14,-1.77,-1.38,-1.39,-1.39
354.74,1.04,2.44,1.07,2.46,-2.44,-2.11,-1.71,-1.41,-1.38,-1.40
358.28,1.02,2.41,1.02,2.41,-2.41,-2.08,-1.66,-1.39,-1.39,-1.39
361.87,1.02,2.41,0.99,2.38,-2.38,-2.05,-1.60,-1.36,-1.39,-1.39
365.49,0.95,2.33,0.95,2.34,-2.34,-2.01,-1.55,-1.40,-1.39,-1.38
369.14,0.91,2.30,0.90,2.29,-2.31,-1.98,-1.50,-1.41,-1.41,-1.39
372.83,0.86,2.25,0.87,2.26,-2.29,-1.95,-1.45,-1.43,-1.42,-1.39
376.56,0.85,2.25,0.87,2.27,-2.26,-1.92,-1.40,-1.42,-1.39,-1.40
380.33,0.90,2.29,0.87,2.26,-2.24,-1.89,-1.35,-1.35,-1.37,-1.39
384.13,0.89,2.28,0.86,2.25,-2.23,-1.86,-1.31,-1.34,-1.37,-1.39
387.97,0.80,2.20,0.82,2.22,-2.22,-1.82,-1.26,-1.42,-1.39,-1.40
391.85,0.78,2.19,0.79,2.19,-2.21,-1.79,-1.22,-1.44,-1.42,-1.41
395.77,0.78,2.18,0.77,2.17,-2.21,-1.76,-1.18,-1.43,-1.44,-1.40
399.73,0.78,2.19,0.77,2.18,-2.20,-1.73,-1.14,-1.43,-1.43,-1.41
403.72,0.77,2.18,0.78,2.19,-2.19,-1.70,-1.10,-1.42,-1.41,-1.41
407.76,0.78,2.21,0.77,2.19,-2.18,-1.67,-1.06,-1.40,-1.41,-1.43
411.84,0.77,2.20,0.75,2.17,-2.15,-1.64,-1.02,-1.39,-1.41,-1.43
415.96,0.70,2.13,0.72,2.15,-2.12,-1.61,-0.98,-1.43,-1.40,-1.43
420.12,0.67,2.10,0.67,2.11,-2.09,-1.57,-0.95,-1.42,-1.41,-1.43
424.32,0.65,2.08,0.62,2.05,-2.04,-1.54,-0.92,-1.40,-1.43,-1.43
428.56,0.56,1.98,0.56,1.98,-2.00,-1.51,-0.88,-1.44,-1.44,-1.42
432.85,0.49,1.90,0.49,1.90,-1.94,-1.48,-0.85,-1.45,-1.45,-1.41
437.18,0.44,1.84,0.46,1.85,-1.88,-1.45,-0.82,-1.44,-1.42,-1.40
441.55,0.46,1.82,0.46,1.83,-1.82,-1.42,-0.79,-1.37,-1.36,-1.36
445.96,0.50,1.83,0.46,1.79,-1.76,-1.38,-0.77,-1.27,-1.31,-1.33
450.42,0.45,1.75,0.44,1.73,-1.71,-1.35,-0.74,-1.27,-1.27,-1.30
454.93,0.38,1.63,0.39,1.65,-1.66,-1.32,-0.72,-1.29,-1.27,-1.25
459.48,0.36,1.57,0.36,1.57,-1.61,-1.28,-0.70,-1.25,-1.25,-1.21
464.07,0.35,1.51,0.36,1.52,-1.54,-1.25,-0.67,-1.19,-1.18,-1.16
468.71,0.39,1.49,0.37,1.48,-1.46,-1.21,-0.66,-1.07,-1.09,-1.10
473.40,0.39,1.45,0.37,1.43,-1.37,-1.18,-0.64,-0.99,-1.00,-1.06
