frequency,raw,error,smoothed,error_smoothed,equalization,parametric_eq,fixed_band_eq,equalized_raw,equalized_smoothed,target
20.00,14.35,2.52,14.35,2.52,-2.53,-2.03,-1.16,11.82,11.82,11.83
20.20,14.37,2.55,14.37,2.55,-2.55,-2.07,-1.19,11.82,11.82,11.82
20.40,14.39,2.58,14.39,2.58,-2.58,-2.11,-1.23,11.81,11.81,11.81
20.61,14.41,2.60,14.41,2.61,-2.60,-2.15,-1.27,11.81,11.81,11.81
20.81,14.43,2.64,14.43,2.63,-2.62,-2.18,-1.30,11.81,11.81,11.79
21.02,14.45,2.66,14.44,2.65,-2.64,-2.22,-1.34,11.81,11.81,11.79
21.23,14.45,2.67,14.45,2.66,-2.65,-2.26,-1.38,11.80,11.80,11.78
21.44,14.45,2.66,14.45,2.66,-2.67,-2.29,-1.42,11.78,11.78,11.79
21.66,14.45,2.67,14.45,2.67,-2.67,-2.32,-1.46,11.77,11.77,11.78
21.87,14.45,2.68,14.45,2.67,-2.68,-2.35,-1.51,11.77,11.77,11.77
22.09,14.45,2.69,14.45,2.68,-2.69,-2.38,-1.55,11.76,11.76,11.76
22.31,14.45,2.69,14.45,2.69,-2.69,-2.40,-1.60,11.75,11.75,11.76
22.54,14.45,2.70,14.45,2.70,-2.70,-2.42,-1.64,11.75,11.75,11.75
22.76,14.45,2.71,14.45,2.71,-2.71,-2.44,-1.69,11.74,11.74,11.74
22.99,14.45,2.72,14.45,2.72,-2.72,-2.46,-1.74,11.73,11.73,11.73
23.22,14.45,2.73,14.45,2.72,-2.72,-2.47,-1.79,11.73,11.73,11.72
23.45,14.45,2.72,14.45,2.73,-2.72,-2.48,-1.84,11.73,11.73,11.73
23.69,14.45,2.73,14.45,2.73,-2.71,-2.49,-1.89,11.74,11.74,11.72
23.92,14.45,2.73,14.44,2.72,-2.70,-2.50,-1.95,11.75,11.74,11.72
24.16,14.43,2.70,14.43,2.70,-2.69,-2.51,-2.00,11.74,11.74,11.73
24.40,14.41,2.67,14.41,2.67,-2.67,-2.51,-2.06,11.74,11.73,11.74
24.65,14.38,2.64,14.38,2.64,-2.66,-2.51,-2.11,11.72,11.72,11.74
24.89,14.36,2.62,14.36,2.62,-2.64,-2.52,-2.17,11.72,11.72,11.74
25.14,14.35,2.62,14.35,2.62,-2.62,-2.52,-2.23,11.72,11.73,11.73
25.39,14.35,2.62,14.35,2.62,-2.61,-2.52,-2.28,11.74,11.73,11.73
25.65,14.35,2.62,14.35,2.61,-2.61,-2.52,-2.34,11.74,11.74,11.73
25.91,14.35,2.61,14.35,2.61,-2.60,-2.52,-2.40,11.75,11.75,11.74
26.16,14.35,2.60,14.35,2.60,-2.60,-2.52,-2.46,11.75,11.75,11.75
26.43,14.35,2.60,14.35,2.60,-2.60,-2.53,-2.52,11.75,11.75,11.75
26.69,14.35,2.60,14.35,2.60,-2.60,-2.53,-2.57,11.75,11.75,11.75
26.96,14.35,2.61,14.35,2.60,-2.60,-2.53,-2.63,11.75,11.75,11.74
27.23,14.35,2.61,14.35,2.61,-2.60,-2.53,-2.68,11.74,11.74,11.74
27.50,14.35,2.61,14.35,2.60,-2.61,-2.54,-2.74,11.74,11.74,11.74
27.77,14.35,2.60,14.35,2.60,-2.61,-2.54,-2.79,11.74,11.74,11.75
28.05,14.35,2.60,14.35,2.61,-2.61,-2.55,-2.84,11.74,11.74,11.75
28.33,14.35,2.62,14.35,2.61,-2.61,-2.56,-2.89,11.74,11.74,11.73
28.62,14.35,2.62,14.35,2.61,-2.60,-2.56,-2.94,11.75,11.75,11.73
28.90,14.35,2.61,14.34,2.61,-2.59,-2.57,-2.98,11.76,11.76,11.74
29.19,14.33,2.59,14.33,2.59,-2.57,-2.58,-3.02,11.75,11.75,11.74
29.48,14.30,2.57,14.30,2.56,-2.56,-2.59,-3.06,11.74,11.74,11.73
29.78,14.27,2.54,14.27,2.54,-2.55,-2.60,-3.10,11.72,11.72,11.73
30.08,14.25,2.51,14.25,2.52,-2.54,-2.61,-3.13,11.71,11.71,11.74
30.38,14.25,2.52,14.25,2.52,-2.53,-2.62,-3.16,11.71,11.71,11.73
30.68,14.25,2.54,14.25,2.53,-2.53,-2.63,-3.18,11.72,11.71,11.71
30.99,14.25,2.54,14.25,2.54,-2.54,-2.64,-3.20,11.71,11.71,11.71
31.30,14.25,2.55,14.25,2.55,-2.55,-2.66,-3.22,11.70,11.70,11.70
31.61,14.25,2.56,14.25,2.55,-2.56,-2.67,-3.23,11.69,11.69,11.69
31.93,14.25,2.57,14.25,2.57,-2.57,-2.69,-3.24,11.68,11.68,11.68
32.24,14.25,2.57,14.25,2.58,-2.57,-2.70,-3.25,11.68,11.68,11.68
32.57,14.25,2.59,14.25,2.58,-2.57,-2.72,-3.25,11.68,11.68,11.66
32.89,14.25,2.59,14.24,2.58,-2.56,-2.73,-3.25,11.69,11.68,11.66
33.22,14.23,2.57,14.22,2.56,-2.55,-2.75,-3.24,11.68,11.67,11.66
33.55,14.19,2.54,14.19,2.54,-2.54,-2.76,-3.24,11.65,11.65,11.65
33.89,14.16,2.50,14.17,2.51,-2.53,-2.78,-3.23,11.63,11.63,11.66
34.23,14.15,2.51,14.15,2.50,-2.52,-2.80,-3.21,11.63,11.63,11.64
34.57,14.15,2.51,14.15,2.50,-2.51,-2.82,-3.20,11.63,11.63,11.64
34.92,14.15,2.52,14.15,2.51,-2.51,-2.84,-3.18,11.64,11.63,11.63
35.27,14.15,2.51,14.15,2.51,-2.52,-2.85,-3.16,11.63,11.63,11.64
35.62,14.15,2.53,14.15,2.52,-2.52,-2.87,-3.14,11.62,11.62,11.62
35.97,14.15,2.53,14.15,2.53,-2.53,-2.89,-3.12,11.62,11.62,11.62
36.33,14.15,2.55,14.15,2.55,-2.54,-2.91,-3.10,11.61,11.61,11.60
36.70,14.15,2.56,14.15,2.56,-2.54,-2.93,-3.08,11.61,11.61,11.59
37.06,14.14,2.57,14.13,2.56,-2.55,-2.95,-3.06,11.59,11.59,11.57
37.43,14.11,2.56,14.10,2.55,-2.55,-2.97,-3.03,11.56,11.55,11.55
37.81,14.07,2.54,14.08,2.55,-2.56,-2.99,-3.01,11.51,11.51,11.53
38.19,14.05,2.55,14.05,2.55,-2.58,-3.01,-2.99,11.47,11.48,11.50
38.57,14.05,2.57,14.05,2.57,-2.59,-3.03,-2.97,11.46,11.46,11.48
38.95,14.05,2.60,14.05,2.60,-2.60,-3.05,-2.95,11.44,11.44,11.45
39.34,14.05,2.64,14.05,2.63,-2.62,-3.07,-2.93,11.43,11.43,11.41
39.74,14.04,2.65,14.04,2.65,-2.63,-3.09,-2.91,11.41,11.41,11.39
40.14,14.03,2.67,14.02,2.66,-2.63,-3.11,-2.90,11.40,11.39,11.36
40.54,13.99,2.65,13.99,2.65,-2.64,-3.14,-2.88,11.35,11.36,11.34
40.94,13.96,2.65,13.95,2.64,-2.64,-3.16,-2.87,11.32,11.32,11.31
41.35,13.91,2.62,13.91,2.62,-2.64,-3.18,-2.86,11.27,11.27,11.29
41.76,13.87,2.62,13.87,2.62,-2.64,-3.20,-2.85,11.23,11.24,11.25
42.18,13.85,2.62,13.85,2.62,-2.64,-3.22,-2.84,11.21,11.21,11.23
42.60,13.85,2.64,13.85,2.64,-2.65,-3.24,-2.84,11.19,11.19,11.21
43.03,13.85,2.67,13.85,2.66,-2.67,-3.26,-2.83,11.18,11.17,11.18
43.46,13.85,2.70,13.85,2.69,-2.70,-3.28,-2.83,11.15,11.15,11.15
43.90,13.85,2.72,13.85,2.73,-2.72,-3.30,-2.83,11.13,11.13,11.13
44.33,13.85,2.76,13.85,2.76,-2.74,-3.33,-2.84,11.11,11.12,11.09
44.78,13.85,2.79,13.84,2.77,-2.75,-3.35,-2.84,11.10,11.09,11.06
45.23,13.83,2.78,13.82,2.78,-2.76,-3.37,-2.85,11.06,11.06,11.05
45.68,13.78,2.78,13.78,2.78,-2.77,-3.39,-2.86,11.01,11.01,11.00
46.13,13.74,2.78,13.73,2.77,-2.78,-3.41,-2.87,10.96,10.96,10.96
46.60,13.69,2.76,13.69,2.76,-2.78,-3.43,-2.88,10.91,10.91,10.93
47.06,13.65,2.76,13.67,2.77,-2.78,-3.45,-2.90,10.87,10.88,10.89
47.53,13.65,2.79,13.65,2.80,-2.79,-3.47,-2.91,10.86,10.86,10.86
48.01,13.65,2.85,13.62,2.82,-2.81,-3.49,-2.93,10.84,10.81,10.80
48.49,13.59,2.84,13.59,2.83,-2.84,-3.51,-2.95,10.75,10.75,10.75
48.97,13.53,2.82,13.55,2.85,-2.87,-3.53,-2.98,10.66,10.68,10.71
49.46,13.54,2.87,13.54,2.87,-2.91,-3.55,-3.00,10.63,10.63,10.67
49.96,13.55,2.95,13.55,2.94,-2.94,-3.57,-3.03,10.61,10.61,10.60
50.46,13.56,3.00,13.56,3.00,-2.96,-3.59,-3.05,10.60,10.60,10.56
50.96,13.57,3.05,13.55,3.03,-2.98,-3.61,-3.08,10.59,10.57,10.52
51.47,13.51,3.03,13.51,3.03,-2.99,-3.63,-3.11,10.51,10.52,10.48
51.99,13.45,3.02,13.45,3.01,-3.02,-3.65,-3.14,10.43,10.43,10.43
52.51,13.39,3.00,13.39,2.99,-3.04,-3.67,-3.18,10.35,10.35,10.39
53.03,13.33,2.97,13.35,3.00,-3.06,-3.69,-3.21,10.27,10.29,10.36
53.56,13.34,3.04,13.34,3.03,-3.07,-3.71,-3.24,10.27,10.27,10.30
54.10,13.35,3.10,13.34,3.09,-3.08,-3.73,-3.27,10.27,10.26,10.25
54.64,13.35,3.14,13.35,3.14,-3.10,-3.75,-3.31,10.25,10.25,10.21
55.18,13.33,3.18,13.32,3.17,-3.12,-3.77,-3.34,10.21,10.20,10.15
55.74,13.28,3.18,13.28,3.16,-3.14,-3.79,-3.37,10.14,10.13,10.10
56.29,13.22,3.15,13.22,3.15,-3.16,-3.81,-3.40,10.05,10.05,10.07
56.86,13.16,3.13,13.17,3.15,-3.18,-3.82,-3.43,9.98,9.99,10.03
57.42,13.14,3.17,13.14,3.16,-3.19,-3.84,-3.46,9.95,9.95,9.97
58.00,13.14,3.20,13.14,3.20,-3.20,-3.86,-3.49,9.94,9.94,9.94
58.58,13.14,3.23,13.13,3.22,-3.21,-3.88,-3.51,9.93,9.92,9.91
59.16,13.12,3.25,13.10,3.23,-3.22,-3.89,-3.54,9.90,9.88,9.87
59.76,13.06,3.23,13.07,3.25,-3.23,-3.91,-3.56,9.83,9.84,9.83
60.35,13.02,3.26,13.03,3.26,-3.25,-3.93,-3.58,9.77,9.78,9.76
60.96,13.01,3.30,12.98,3.27,-3.27,-3.95,-3.59,9.74,9.71,9.71
61.57,12.92,3.28,12.92,3.28,-3.29,-3.96,-3.61,9.62,9.63,9.64
62.18,12.85,3.28,12.87,3.29,-3.32,-3.98,-3.62,9.52,9.54,9.57
62.80,12.83,3.32,12.83,3.32,-3.36,-4.00,-3.63,9.47,9.47,9.51
63.43,12.83,3.38,12.83,3.37,-3.39,-4.01,-3.64,9.43,9.43,9.45
64.07,12.84,3.44,12.84,3.44,-3.43,-4.03,-3.64,9.41,9.41,9.40
64.71,12.85,3.51,12.85,3.51,-3.46,-4.04,-3.65,9.39,9.39,9.34
65.35,12.83,3.55,12.82,3.54,-3.49,-4.06,-3.65,9.33,9.33,9.28
66.01,12.80,3.58,12.76,3.54,-3.52,-4.07,-3.64,9.28,9.24,9.22
66.67,12.67,3.49,12.70,3.53,-3.54,-4.09,-3.64,9.12,9.16,9.18
67.33,12.62,3.52,12.65,3.54,-3.56,-4.10,-3.63,9.06,9.09,9.10
68.01,12.64,3.59,12.61,3.56,-3.57,-4.12,-3.63,9.06,9.03,9.05
68.69,12.58,3.60,12.58,3.59,-3.59,-4.13,-3.62,8.99,8.99,8.98
69.37,12.53,3.60,12.53,3.60,-3.60,-4.14,-3.61,8.92,8.93,8.93
70.07,12.47,3.61,12.48,3.62,-3.63,-4.16,-3.60,8.84,8.85,8.86
70.77,12.45,3.65,12.46,3.66,-3.67,-4.17,-3.59,8.78,8.79,8.80
71.48,12.44,3.71,12.42,3.68,-3.70,-4.18,-3.58,8.74,8.72,8.73
72.19,12.41,3.75,12.39,3.72,-3.72,-4.20,-3.57,8.69,8.66,8.66
72.91,12.30,3.70,12.37,3.77,-3.74,-4.21,-3.56,8.56,8.62,8.60
73.64,12.36,3.83,12.34,3.81,-3.77,-4.22,-3.55,8.59,8.57,8.53
74.38,12.34,3.87,12.29,3.81,-3.80,-4.23,-3.54,8.54,8.49,8.47
75.12,12.22,3.82,12.22,3.81,-3.83,-4.25,-3.53,8.39,8.39,8.40
75.87,12.10,3.74,12.14,3.79,-3.85,-4.26,-3.52,8.25,8.29,8.36
76.63,12.11,3.82,12.11,3.82,-3.87,-4.27,-3.51,8.24,8.25,8.29
77.40,12.14,3.90,12.15,3.91,-3.88,-4.28,-3.51,8.26,8.27,8.24
78.17,12.18,4.00,12.15,3.97,-3.89,-4.29,-3.51,8.28,8.26,8.18
78.95,12.16,4.02,12.09,3.96,-3.91,-4.30,-3.51,8.24,8.18,8.14
79.74,11.95,3.87,12.01,3.93,-3.94,-4.31,-3.51,8.01,8.07,8.08
80.54,11.90,3.88,11.93,3.90,-3.97,-4.32,-3.51,7.93,7.96,8.02
81.35,11.92,3.95,11.91,3.94,-3.99,-4.33,-3.52,7.93,7.92,7.97
82.16,11.94,4.02,11.93,4.01,-4.01,-4.34,-3.52,7.93,7.92,7.92
82.98,11.94,4.08,11.91,4.05,-4.02,-4.35,-3.53,7.92,7.89,7.86
83.81,11.86,4.06,11.88,4.07,-4.03,-4.36,-3.55,7.83,7.84,7.80
84.65,11.81,4.07,11.82,4.08,-4.05,-4.37,-3.56,7.76,7.77,7.74
85.50,11.77,4.10,11.75,4.08,-4.07,-4.38,-3.58,7.70,7.68,7.67
86.35,11.70,4.09,11.70,4.08,-4.09,-4.38,-3.60,7.60,7.60,7.61
87.22,11.63,4.07,11.63,4.08,-4.11,-4.39,-3.63,7.52,7.52,7.56
88.09,11.58,4.09,11.58,4.08,-4.12,-4.40,-3.65,7.46,7.46,7.49
88.97,11.54,4.10,11.55,4.12,-4.13,-4.41,-3.68,7.41,7.42,7.44
89.86,11.54,4.18,11.53,4.17,-4.15,-4.41,-3.71,7.39,7.39,7.36
90.76,11.52,4.22,11.51,4.20,-4.17,-4.42,-3.75,7.35,7.34,7.30
91.66,11.46,4.23,11.46,4.23,-4.19,-4.43,-3.79,7.27,7.27,7.23
92.58,11.39,4.22,11.38,4.21,-4.22,-4.43,-3.83,7.17,7.16,7.17
93.51,11.31,4.21,11.31,4.21,-4.25,-4.44,-3.87,7.06,7.06,7.10
94.44,11.24,4.21,11.27,4.24,-4.28,-4.44,-3.92,6.96,6.99,7.03
95.39,11.24,4.29,11.24,4.29,-4.30,-4.45,-3.96,6.94,6.94,6.95
96.34,11.26,4.39,11.21,4.34,-4.32,-4.46,-4.01,6.94,6.90,6.87
97.30,11.14,4.35,11.15,4.36,-4.33,-4.46,-4.07,6.81,6.82,6.79
98.28,11.08,4.38,11.08,4.38,-4.35,-4.46,-4.12,6.73,6.73,6.70
99.26,10.97,4.36,11.00,4.39,-4.37,-4.47,-4.18,6.60,6.63,6.61
100.25,10.97,4.44,10.91,4.38,-4.40,-4.47,-4.24,6.57,6.51,6.53
101.25,10.83,4.37,10.82,4.36,-4.41,-4.48,-4.30,6.41,6.40,6.46
102.27,10.69,4.32,10.76,4.38,-4.42,-4.48,-4.36,6.26,6.33,6.37
103.29,10.72,4.43,10.73,4.44,-4.44,-4.48,-4.42,6.28,6.30,6.29
104.32,10.76,4.54,10.71,4.49,-4.45,-4.48,-4.49,6.31,6.25,6.22
105.37,10.70,4.56,10.65,4.51,-4.47,-4.49,-4.55,6.23,6.18,6.14
106.42,10.48,4.43,10.55,4.49,-4.48,-4.49,-4.61,6.00,6.07,6.05
107.48,10.42,4.46,10.44,4.47,-4.49,-4.49,-4.68,5.93,5.95,5.96
108.56,10.40,4.50,10.36,4.47,-4.49,-4.49,-4.74,5.91,5.87,5.90
109.64,10.32,4.51,10.32,4.50,-4.49,-4.49,-4.80,5.83,5.83,5.81
110.74,10.23,4.50,10.24,4.50,-4.49,-4.49,-4.86,5.74,5.75,5.73
111.85,10.16,4.50,10.15,4.49,-4.49,-4.50,-4.92,5.67,5.66,5.66
112.97,10.06,4.47,10.07,4.48,-4.50,-4.50,-4.97,5.56,5.57,5.59
114.10,10.01,4.49,10.01,4.49,-4.51,-4.50,-5.02,5.49,5.49,5.52
115.24,9.95,4.51,9.96,4.52,-4.53,-4.50,-5.07,5.41,5.42,5.44
116.39,9.93,4.57,9.92,4.55,-4.55,-4.49,-5.11,5.38,5.37,5.36
117.55,9.88,4.58,9.87,4.58,-4.56,-4.49,-5.15,5.32,5.31,5.30
118.73,9.82,4.60,9.82,4.59,-4.57,-4.49,-5.19,5.25,5.25,5.22
119.92,9.76,4.60,9.76,4.60,-4.58,-4.49,-5.22,5.18,5.18,5.16
121.12,9.71,4.60,9.71,4.61,-4.59,-4.49,-5.24,5.12,5.12,5.11
122.33,9.65,4.61,9.65,4.60,-4.60,-4.49,-5.26,5.05,5.05,5.04
123.55,9.60,4.61,9.56,4.57,-4.61,-4.48,-5.28,4.99,4.95,4.99
124.79,9.49,4.56,9.50,4.57,-4.61,-4.48,-5.28,4.88,4.89,4.93
126.03,9.40,4.54,9.49,4.63,-4.63,-4.48,-5.28,4.77,4.87,4.86
127.29,9.53,4.73,9.46,4.66,-4.65,-4.48,-5.28,4.88,4.81,4.80
128.57,9.51,4.77,9.41,4.68,-4.68,-4.47,-5.27,4.83,4.74,4.74
129.85,9.27,4.60,9.38,4.71,-4.70,-4.47,-5.25,4.56,4.68,4.67
131.15,9.30,4.69,9.33,4.72,-4.73,-4.46,-5.23,4.57,4.60,4.61
132.46,9.38,4.83,9.31,4.76,-4.76,-4.46,-5.20,4.62,4.55,4.55
133.79,9.30,4.81,9.29,4.80,-4.77,-4.45,-5.17,4.53,4.52,4.49
135.12,9.22,4.79,9.24,4.80,-4.78,-4.45,-5.14,4.44,4.47,4.43
136.48,9.13,4.74,9.18,4.80,-4.78,-4.44,-5.10,4.35,4.40,4.39
137.84,9.18,4.85,9.10,4.77,-4.78,-4.44,-5.05,4.40,4.32,4.33
139.22,9.04,4.79,9.03,4.76,-4.78,-4.43,-5.00,4.26,4.25,4.25
140.61,8.88,4.67,8.97,4.77,-4.78,-4.42,-4.95,4.10,4.20,4.21
142.02,8.94,4.79,8.88,4.73,-4.77,-4.42,-4.90,4.17,4.11,4.15
143.44,8.87,4.79,8.84,4.75,-4.76,-4.41,-4.85,4.11,4.09,4.08
144.87,8.74,4.71,8.81,4.78,-4.75,-4.40,-4.79,3.99,4.06,4.03
146.32,8.78,4.80,8.71,4.74,-4.74,-4.39,-4.74,4.04,3.98,3.98
147.78,8.66,4.74,8.66,4.74,-4.73,-4.38,-4.68,3.93,3.93,3.92
149.26,8.54,4.67,8.61,4.75,-4.72,-4.37,-4.63,3.82,3.89,3.87
150.75,8.59,4.79,8.50,4.69,-4.71,-4.36,-4.57,3.88,3.79,3.80
152.26,8.45,4.69,8.43,4.67,-4.70,-4.35,-4.52,3.75,3.73,3.76
153.78,8.27,4.57,8.39,4.69,-4.68,-4.34,-4.46,3.59,3.71,3.70
155.32,8.37,4.72,8.32,4.67,-4.67,-4.33,-4.41,3.70,3.65,3.65
156.88,8.36,4.77,8.26,4.67,-4.67,-4.32,-4.36,3.69,3.59,3.59
158.44,8.13,4.60,8.21,4.68,-4.67,-4.31,-4.31,3.46,3.54,3.53
160.03,8.11,4.64,8.12,4.65,-4.67,-4.30,-4.27,3.44,3.45,3.47
161.63,8.09,4.68,8.06,4.65,-4.68,-4.29,-4.22,3.41,3.38,3.41
163.24,8.05,4.71,8.04,4.69,-4.69,-4.28,-4.18,3.36,3.35,3.34
164.88,7.97,4.68,7.99,4.70,-4.69,-4.26,-4.14,3.28,3.30,3.29
166.53,7.94,4.72,7.93,4.70,-4.69,-4.25,-4.10,3.25,3.24,3.22
168.19,7.86,4.69,7.87,4.70,-4.69,-4.24,-4.07,3.17,3.18,3.17
169.87,7.81,4.70,7.80,4.69,-4.68,-4.22,-4.04,3.13,3.12,3.11
171.57,7.72,4.68,7.72,4.67,-4.67,-4.21,-4.01,3.05,3.05,3.04
173.29,7.63,4.65,7.64,4.65,-4.66,-4.19,-3.99,2.97,2.98,2.98
175.02,7.56,4.63,7.56,4.63,-4.64,-4.18,-3.96,2.92,2.92,2.93
176.77,7.50,4.62,7.49,4.61,-4.62,-4.16,-3.95,2.88,2.86,2.88
178.54,7.41,4.59,7.42,4.60,-4.61,-4.15,-3.93,2.80,2.82,2.82
180.32,7.36,4.60,7.36,4.59,-4.59,-4.13,-3.92,2.77,2.77,2.76
182.13,7.31,4.59,7.30,4.58,-4.58,-4.11,-3.91,2.73,2.72,2.72
183.95,7.24,4.57,7.25,4.58,-4.57,-4.10,-3.90,2.66,2.67,2.67
185.79,7.20,4.58,7.19,4.57,-4.57,-4.08,-3.90,2.63,2.62,2.62
187.65,7.14,4.56,7.14,4.56,-4.57,-4.06,-3.90,2.57,2.57,2.58
189.52,7.09,4.56,7.09,4.56,-4.56,-4.04,-3.90,2.52,2.53,2.53
191.42,7.05,4.55,7.04,4.55,-4.56,-4.02,-3.90,2.49,2.49,2.50
193.33,7.00,4.55,7.00,4.55,-4.55,-4.00,-3.91,2.45,2.46,2.45
195.27,6.95,4.55,6.95,4.55,-4.53,-3.98,-3.92,2.42,2.42,2.40
197.22,6.91,4.56,6.89,4.53,-4.51,-3.96,-3.93,2.40,2.37,2.35
199.19,6.81,4.49,6.82,4.50,-4.49,-3.94,-3.95,2.32,2.32,2.32
201.18,6.73,4.46,6.74,4.46,-4.47,-3.92,-3.96,2.26,2.27,2.27
203.19,6.67,4.43,6.66,4.42,-4.44,-3.90,-3.98,2.23,2.22,2.24
205.23,6.60,4.40,6.60,4.40,-4.41,-3.88,-4.00,2.18,2.19,2.20
207.28,6.55,4.38,6.54,4.38,-4.39,-3.85,-4.02,2.16,2.16,2.17
209.35,6.48,4.35,6.48,4.35,-4.35,-3.83,-4.04,2.12,2.12,2.13
211.44,6.41,4.33,6.41,4.32,-4.31,-3.81,-4.06,2.09,2.10,2.08
213.56,6.34,4.29,6.34,4.29,-4.27,-3.78,-4.08,2.07,2.07,2.05
215.69,6.28,4.27,6.28,4.27,-4.23,-3.76,-4.10,2.05,2.05,2.01
217.85,6.21,4.23,6.21,4.23,-4.20,-3.73,-4.12,2.01,2.01,1.98
220.03,6.12,4.19,6.09,4.15,-4.18,-3.71,-4.14,1.94,1.91,1.93
222.23,5.99,4.08,5.96,4.06,-4.15,-3.68,-4.16,1.84,1.81,1.91
224.45,5.82,3.94,5.92,4.04,-4.13,-3.65,-4.17,1.69,1.79,1.88
226.70,5.91,4.06,5.93,4.07,-4.09,-3.62,-4.19,1.82,1.84,1.85
228.96,6.05,4.22,5.96,4.12,-4.04,-3.60,-4.20,2.01,1.91,1.83
231.25,5.94,4.12,5.93,4.11,-3.99,-3.57,-4.20,1.95,1.94,1.82
233.57,5.80,4.01,5.81,4.02,-3.94,-3.54,-4.21,1.86,1.88,1.79
235.90,5.61,3.83,5.65,3.87,-3.88,-3.51,-4.21,1.72,1.77,1.78
238.26,5.57,3.81,5.52,3.75,-3.83,-3.48,-4.20,1.74,1.70,1.76
240.64,5.42,3.65,5.44,3.68,-3.76,-3.45,-4.19,1.66,1.68,1.77
243.05,5.38,3.62,5.40,3.65,-3.69,-3.42,-4.18,1.69,1.71,1.76
245.48,5.39,3.65,5.37,3.62,-3.63,-3.38,-4.16,1.76,1.74,1.74
247.93,5.36,3.63,5.35,3.61,-3.58,-3.35,-4.14,1.78,1.77,1.73
250.41,5.32,3.58,5.32,3.58,-3.55,-3.32,-4.11,1.77,1.77,1.74
252.92,5.26,3.52,5.27,3.53,-3.52,-3.28,-4.07,1.74,1.75,1.74
255.45,5.21,3.49,5.21,3.49,-3.49,-3.25,-4.03,1.72,1.73,1.72
258.00,5.17,3.46,5.16,3.44,-3.44,-3.21,-3.99,1.72,1.71,1.71
260.58,5.10,3.40,5.10,3.40,-3.39,-3.18,-3.94,1.70,1.71,1.70
263.19,5.04,3.35,5.04,3.35,-3.35,-3.14,-3.88,1.69,1.69,1.69
265.82,4.98,3.31,4.97,3.29,-3.30,-3.11,-3.82,1.68,1.68,1.67
268.48,4.90,3.23,4.91,3.24,-3.25,-3.07,-3.76,1.65,1.65,1.67
271.16,4.84,3.19,4.83,3.18,-3.21,-3.03,-3.69,1.63,1.62,1.65
273.87,4.77,3.13,4.76,3.13,-3.16,-2.99,-3.61,1.61,1.61,1.64
276.61,4.70,3.08,4.73,3.11,-3.10,-2.95,-3.54,1.60,1.63,1.62
279.38,4.68,3.09,4.69,3.09,-3.04,-2.91,-3.46,1.64,1.65,1.59
282.17,4.67,3.08,4.60,3.01,-2.98,-2.87,-3.37,1.69,1.63,1.59
284.99,4.52,2.93,4.53,2.95,-2.91,-2.83,-3.29,1.61,1.62,1.59
287.84,4.36,2.77,4.43,2.84,-2.85,-2.79,-3.20,1.51,1.58,1.59
290.72,4.40,2.83,4.31,2.73,-2.79,-2.75,-3.11,1.61,1.52,1.57
293.63,4.23,2.65,4.27,2.70,-2.73,-2.70,-3.02,1.50,1.55,1.58
296.57,4.18,2.60,4.25,2.67,-2.67,-2.66,-2.93,1.51,1.58,1.58
299.53,4.30,2.73,4.17,2.59,-2.62,-2.62,-2.84,1.68,1.56,1.57
302.53,4.13,2.55,4.14,2.57,-2.56,-2.57,-2.74,1.56,1.58,1.58
305.55,4.01,2.44,4.12,2.55,-2.51,-2.52,-2.65,1.50,1.61,1.57
308.61,4.12,2.54,4.05,2.48,-2.46,-2.48,-2.55,1.66,1.59,1.58
311.69,4.07,2.51,4.00,2.44,-2.41,-2.43,-2.46,1.66,1.59,1.56
314.81,3.88,2.31,3.93,2.37,-2.35,-2.38,-2.37,1.53,1.58,1.57
317.96,3.80,2.25,3.82,2.26,-2.29,-2.33,-2.27,1.50,1.53,1.55
321.14,3.77,2.21,3.74,2.18,-2.23,-2.28,-2.18,1.54,1.50,1.56
324.35,3.69,2.14,3.70,2.15,-2.16,-2.23,-2.09,1.53,1.54,1.55
327.59,3.64,2.08,3.65,2.10,-2.08,-2.18,-2.00,1.56,1.57,1.56
330.87,3.62,2.07,3.60,2.05,-2.00,-2.13,-1.90,1.62,1.60,1.55
334.18,3.51,1.97,3.53,1.98,-1.92,-2.08,-1.82,1.59,1.61,1.54
337.52,3.45,1.90,3.40,1.85,-1.85,-2.03,-1.73,1.60,1.55,1.55
340.90,3.27,1.73,3.28,1.73,-1.77,-1.97,-1.64,1.49,1.51,1.54
344.30,3.12,1.57,3.20,1.65,-1.70,-1.92,-1.55,1.42,1.50,1.55
347.75,3.19,1.63,3.12,1.57,-1.62,-1.87,-1.47,1.57,1.50,1.56
351.23,3.12,1.58,3.09,1.54,-1.54,-1.81,-1.38,1.58,1.55,1.54
354.74,2.99,1.43,3.06,1.51,-1.46,-1.75,-1.30,1.53,1.60,1.56
358.28,3.03,1.47,2.99,1.43,-1.38,-1.70,-1.21,1.65,1.61,1.56
361.87,2.94,1.38,2.91,1.35,-1.31,-1.64,-1.13,1.63,1.60,1.56
365.49,2.81,1.24,2.83,1.25,-1.24,-1.58,-1.05,1.57,1.58,1.57
369.14,2.71,1.13,2.72,1.14,-1.18,-1.52,-0.97,1.53,1.55,1.58
372.83,2.65,1.06,2.64,1.06,-1.12,-1.46,-0.89,1.53,1.53,1.59
376.56,2.61,1.03,2.59,1.00,-1.05,-1.40,-0.81,1.55,1.53,1.58
380.33,2.54,0.96,2.57,0.98,-1.00,-1.34,-0.74,1.54,1.57,1.58
384.13,2.54,0.95,2.56,0.97,-0.94,-1.28,-0.66,1.60,1.62,1.59
387.97,2.57,0.98,2.52,0.94,-0.89,-1.22,-0.59,1.68,1.63,1.59
391.85,2.49,0.91,2.46,0.88,-0.84,-1.15,-0.51,1.65,1.62,1.58
395.77,2.34,0.77,2.38,0.80,-0.79,-1.09,-0.44,1.55,1.59,1.57
399.73,2.27,0.70,2.28,0.71,-0.73,-1.03,-0.37,1.54,1.55,1.57
403.72,2.23,0.65,2.21,0.64,-0.66,-0.96,-0.30,1.57,1.55,1.58
407.76,2.15,0.59,2.15,0.58,-0.59,-0.89,-0.23,1.56,1.56,1.56
411.84,2.08,0.53,2.06,0.51,-0.50,-0.83,-0.16,1.58,1.56,1.55
415.96,1.96,0.41,1.99,0.44,-0.42,-0.76,-0.09,1.54,1.57,1.55
420.12,1.90,0.36,1.91,0.36,-0.34,-0.69,-0.02,1.56,1.57,1.54
424.32,1.87,0.32,1.81,0.26,-0.26,-0.63,0.05,1.61,1.55,1.55
428.56,1.73,0.16,1.74,0.18,-0.19,-0.56,0.11,1.54,1.55,1.57
432.85,1.63,0.04,1.69,0.11,-0.13,-0.49,0.18,1.50,1.57,1.59
437.18,1.69,0.09,1.64,0.03,-0.06,-0.42,0.24,1.62,1.57,1.60
441.55,1.65,0.02,1.62,-0.01,-0.00,-0.35,0.30,1.64,1.62,1.63
445.96,1.56,-0.11,1.62,-0.05,0.05,-0.28,0.37,1.61,1.67,1.67
450.42,1.63,-0.08,1.62,-0.09,0.11,-0.20,0.43,1.74,1.73,1.71
454.93,1.65,-0.11,1.64,-0.13,0.16,-0.13,0.48,1.81,1.80,1.76
459.48,1.67,-0.15,1.63,-0.19,0.22,-0.06,0.54,1.89,1.85,1.82
464.07,1.59,-0.30,1.61,-0.28,0.27,0.01,0.60,1.86,1.88,1.89
468.71,1.55,-0.39,1.58,-0.36,0.33,0.09,0.65,1.88,1.91,1.94
473.40,1.60,-0.40,1.58,-0.43,0.40,0.16,0.71,1.99,1.98,2.00
478.13,1.60,-0.46,1.59,-0.46,0.46,0.24,0.76,2.06,2.06,2.06
482.91,1.60,-0.51,1.59,-0.51,0.53,0.31,0.81,2.13,2.13,2.11
487.74,1.56,-0.58,1.56,-0.59,0.60,0.39,0.86,2.16,2.17,2.14
492.62,1.53,-0.65,1.52,-0.66,0.67,0.46,0.91,2.20,2.20,2.18
