frequency,raw,error,smoothed,error_smoothed,equalization,parametric_eq,fixed_band_eq,equalized_raw,equalized_smoothed,target
20.00,-0.68,-8.60,-0.68,-8.60,8.59,9.04,3.11,7.92,7.92,7.92
20.20,-0.63,-8.54,-0.63,-8.55,8.55,8.97,3.20,7.92,7.91,7.91
20.40,-0.59,-8.50,-0.58,-8.50,8.50,8.91,3.29,7.91,7.91,7.91
20.61,-0.54,-8.45,-0.54,-8.44,8.45,8.84,3.38,7.91,7.91,7.91
20.81,-0.49,-8.38,-0.49,-8.39,8.40,8.77,3.47,7.91,7.90,7.89
21.02,-0.45,-8.34,-0.44,-8.34,8.35,8.70,3.57,7.90,7.90,7.89
21.23,-0.40,-8.29,-0.40,-8.29,8.30,8.64,3.67,7.90,7.90,7.89
21.44,-0.35,-8.25,-0.35,-8.25,8.25,8.57,3.78,7.90,7.90,7.90
21.66,-0.30,-8.19,-0.30,-8.20,8.20,8.50,3.88,7.90,7.90,7.89
21.87,-0.26,-8.16,-0.25,-8.15,8.15,8.43,4.00,7.89,7.90,7.90
22.09,-0.21,-8.10,-0.21,-8.11,8.10,8.37,4.11,7.89,7.89,7.89
22.31,-0.16,-8.06,-0.16,-8.06,8.05,8.30,4.22,7.89,7.89,7.90
22.54,-0.11,-8.00,-0.10,-8.00,8.00,8.23,4.34,7.89,7.89,7.89
22.76,-0.05,-7.94,-0.05,-7.95,7.95,8.17,4.47,7.90,7.90,7.89
22.99,0.00,-7.89,0.00,-7.89,7.90,8.10,4.59,7.90,7.90,7.89
23.22,0.05,-7.84,0.06,-7.84,7.84,8.03,4.72,7.90,7.90,7.89
23.45,0.11,-7.79,0.11,-7.79,7.79,7.97,4.85,7.91,7.90,7.90
23.69,0.16,-7.74,0.16,-7.74,7.74,7.90,4.98,7.90,7.91,7.90
23.92,0.21,-7.69,0.22,-7.69,7.69,7.84,5.12,7.91,7.91,7.90
24.16,0.27,-7.64,0.27,-7.64,7.64,7.77,5.26,7.91,7.91,7.91
24.40,0.32,-7.60,0.33,-7.59,7.59,7.71,5.40,7.91,7.91,7.92
24.65,0.38,-7.54,0.38,-7.54,7.53,7.64,5.54,7.92,7.92,7.92
24.89,0.44,-7.48,0.44,-7.48,7.48,7.58,5.69,7.92,7.92,7.92
25.14,0.49,-7.42,0.50,-7.42,7.42,7.51,5.84,7.92,7.92,7.91
25.39,0.55,-7.37,0.55,-7.37,7.37,7.45,5.99,7.92,7.92,7.92
25.65,0.61,-7.31,0.61,-7.31,7.31,7.38,6.14,7.92,7.92,7.92
25.91,0.67,-7.24,0.67,-7.25,7.25,7.32,6.29,7.93,7.92,7.91
26.16,0.72,-7.20,0.72,-7.20,7.20,7.26,6.44,7.93,7.92,7.92
26.43,0.76,-7.16,0.77,-7.16,7.16,7.19,6.59,7.92,7.93,7.92
26.69,0.80,-7.12,0.80,-7.11,7.12,7.13,6.74,7.93,7.93,7.92
26.96,0.84,-7.06,0.84,-7.07,7.09,7.07,6.89,7.93,7.93,7.90
27.23,0.86,-7.04,0.86,-7.04,7.06,7.01,7.03,7.92,7.92,7.90
27.50,0.88,-7.02,0.88,-7.03,7.02,6.94,7.18,7.91,7.90,7.90
27.77,0.90,-7.01,0.90,-7.01,6.98,6.88,7.31,7.89,7.89,7.91
28.05,0.92,-6.98,0.94,-6.97,6.94,6.82,7.45,7.86,7.88,7.90
28.33,0.99,-6.90,0.99,-6.91,6.89,6.76,7.57,7.88,7.87,7.89
28.62,1.05,-6.83,1.05,-6.84,6.82,6.70,7.69,7.88,7.88,7.88
28.90,1.12,-6.77,1.12,-6.77,6.76,6.64,7.80,7.88,7.88,7.89
29.19,1.18,-6.70,1.19,-6.69,6.70,6.58,7.90,7.88,7.89,7.88
29.48,1.25,-6.61,1.26,-6.61,6.64,6.52,7.98,7.89,7.90,7.86
29.78,1.32,-6.54,1.32,-6.55,6.58,6.46,8.06,7.91,7.90,7.86
30.08,1.37,-6.49,1.36,-6.50,6.53,6.40,8.13,7.90,7.89,7.86
30.38,1.37,-6.47,1.37,-6.48,6.48,6.34,8.18,7.85,7.85,7.84
30.68,1.37,-6.46,1.37,-6.46,6.43,6.28,8.21,7.80,7.80,7.83
30.99,1.37,-6.45,1.39,-6.43,6.39,6.22,8.24,7.76,7.78,7.82
31.30,1.44,-6.37,1.44,-6.37,6.35,6.17,8.25,7.79,7.79,7.81
31.61,1.51,-6.29,1.51,-6.29,6.31,6.11,8.25,7.82,7.82,7.80
31.93,1.58,-6.20,1.57,-6.22,6.27,6.05,8.22,7.85,7.83,7.78
32.24,1.60,-6.19,1.59,-6.19,6.22,5.99,8.19,7.82,7.81,7.79
32.57,1.60,-6.17,1.60,-6.18,6.17,5.94,8.14,7.77,7.77,7.77
32.89,1.60,-6.17,1.62,-6.16,6.12,5.88,8.08,7.72,7.74,7.77
33.22,1.65,-6.12,1.66,-6.11,6.08,5.83,8.00,7.73,7.74,7.77
33.55,1.73,-6.03,1.73,-6.04,6.05,5.77,7.92,7.78,7.77,7.76
33.89,1.80,-5.97,1.79,-5.98,6.01,5.72,7.83,7.81,7.80,7.77
34.23,1.83,-5.92,1.82,-5.94,5.97,5.66,7.72,7.80,7.79,7.75
34.57,1.83,-5.93,1.83,-5.93,5.92,5.61,7.61,7.75,7.75,7.76
34.92,1.83,-5.92,1.85,-5.90,5.87,5.55,7.49,7.71,7.73,7.75
35.27,1.89,-5.87,1.90,-5.85,5.83,5.50,7.37,7.72,7.73,7.76
35.62,1.97,-5.76,1.97,-5.78,5.79,5.45,7.24,7.76,7.75,7.73
35.97,2.04,-5.69,2.02,-5.71,5.74,5.39,7.10,7.78,7.76,7.73
36.33,2.05,-5.67,2.05,-5.67,5.68,5.34,6.96,7.74,7.73,7.72
36.70,2.05,-5.65,2.06,-5.65,5.62,5.29,6.82,7.67,7.68,7.70
37.06,2.06,-5.62,2.09,-5.60,5.56,5.23,6.68,7.62,7.65,7.68
37.43,2.15,-5.52,2.15,-5.51,5.50,5.18,6.54,7.65,7.66,7.67
37.81,2.24,-5.40,2.22,-5.42,5.45,5.13,6.40,7.69,7.67,7.64
38.19,2.28,-5.34,2.27,-5.35,5.40,5.08,6.26,7.68,7.67,7.62
38.57,2.28,-5.32,2.29,-5.31,5.35,5.03,6.12,7.63,7.63,7.60
38.95,2.28,-5.29,2.28,-5.28,5.28,4.98,5.98,7.57,7.57,7.57
39.34,2.28,-5.24,2.28,-5.25,5.22,4.93,5.84,7.50,7.49,7.52
39.74,2.28,-5.21,2.29,-5.21,5.15,4.88,5.71,7.44,7.44,7.49
40.14,2.31,-5.15,2.34,-5.13,5.10,4.83,5.58,7.41,7.43,7.46
40.54,2.40,-5.04,2.40,-5.03,5.04,4.78,5.45,7.44,7.45,7.44
40.94,2.50,-4.90,2.47,-4.94,4.99,4.73,5.32,7.49,7.46,7.40
41.35,2.51,-4.87,2.51,-4.87,4.93,4.68,5.20,7.44,7.44,7.38
41.76,2.51,-4.84,2.52,-4.83,4.86,4.63,5.07,7.37,7.38,7.35
42.18,2.51,-4.82,2.50,-4.83,4.80,4.58,4.96,7.31,7.30,7.33
42.60,2.51,-4.79,2.51,-4.79,4.73,4.53,4.84,7.24,7.24,7.30
43.03,2.52,-4.75,2.56,-4.72,4.67,4.48,4.73,7.19,7.23,7.27
43.46,2.62,-4.62,2.62,-4.62,4.61,4.43,4.62,7.24,7.24,7.24
43.90,2.72,-4.50,2.69,-4.52,4.56,4.39,4.52,7.28,7.25,7.22
44.33,2.74,-4.44,2.74,-4.45,4.50,4.34,4.42,7.24,7.24,7.18
44.78,2.74,-4.41,2.75,-4.41,4.45,4.29,4.32,7.19,7.20,7.15
45.23,2.74,-4.40,2.74,-4.38,4.40,4.24,4.23,7.14,7.14,7.14
45.68,2.74,-4.35,2.74,-4.35,4.35,4.19,4.14,7.10,7.10,7.09
46.13,2.74,-4.31,2.74,-4.32,4.31,4.14,4.05,7.06,7.05,7.05
46.60,2.74,-4.28,2.74,-4.28,4.27,4.10,3.96,7.01,7.01,7.02
47.06,2.74,-4.25,2.74,-4.25,4.21,4.05,3.88,6.95,6.95,6.99
47.53,2.76,-4.20,2.76,-4.20,4.15,4.00,3.80,6.91,6.91,6.96
48.01,2.78,-4.12,2.81,-4.10,4.08,3.95,3.73,6.86,6.89,6.90
48.49,2.87,-3.99,2.87,-3.99,4.00,3.90,3.65,6.87,6.87,6.86
48.97,2.96,-3.86,2.93,-3.89,3.93,3.85,3.58,6.89,6.86,6.82
49.46,2.96,-3.82,2.97,-3.81,3.86,3.80,3.52,6.82,6.83,6.78
49.96,2.96,-3.76,2.97,-3.76,3.80,3.75,3.45,6.76,6.77,6.72
50.46,2.96,-3.72,2.96,-3.73,3.74,3.70,3.39,6.70,6.70,6.68
50.96,2.96,-3.69,2.96,-3.69,3.69,3.65,3.33,6.65,6.65,6.65
51.47,2.96,-3.65,2.96,-3.65,3.63,3.60,3.27,6.60,6.60,6.61
51.99,2.96,-3.60,2.95,-3.62,3.57,3.55,3.21,6.53,6.52,6.56
52.51,2.96,-3.56,2.96,-3.57,3.50,3.50,3.16,6.47,6.47,6.52
53.03,2.97,-3.52,3.01,-3.47,3.43,3.45,3.10,6.40,6.44,6.49
53.56,3.09,-3.33,3.08,-3.35,3.35,3.40,3.05,6.44,6.43,6.42
54.10,3.19,-3.18,3.15,-3.23,3.26,3.35,3.00,6.46,6.42,6.37
54.64,3.19,-3.14,3.20,-3.13,3.18,3.30,2.95,6.37,6.38,6.33
55.18,3.19,-3.08,3.20,-3.07,3.11,3.25,2.90,6.30,6.31,6.27
55.74,3.19,-3.03,3.19,-3.04,3.04,3.19,2.85,6.23,6.23,6.22
56.29,3.19,-2.99,3.19,-2.99,2.99,3.14,2.80,6.18,6.18,6.18
56.86,3.19,-2.96,3.19,-2.95,2.95,3.09,2.75,6.15,6.15,6.15
57.42,3.19,-2.90,3.19,-2.91,2.92,3.03,2.71,6.11,6.11,6.09
58.00,3.19,-2.86,3.19,-2.87,2.87,2.98,2.66,6.07,6.07,6.05
58.58,3.19,-2.83,3.18,-2.84,2.81,2.92,2.61,6.01,6.00,6.02
59.16,3.19,-2.80,3.18,-2.80,2.74,2.87,2.56,5.93,5.92,5.99
59.76,3.19,-2.75,3.22,-2.71,2.66,2.81,2.51,5.85,5.88,5.94
60.35,3.27,-2.60,3.29,-2.59,2.57,2.75,2.46,5.84,5.86,5.87
60.96,3.41,-2.41,3.37,-2.45,2.48,2.70,2.41,5.89,5.85,5.82
61.57,3.42,-2.33,3.42,-2.33,2.39,2.64,2.35,5.81,5.81,5.75
62.18,3.42,-2.26,3.43,-2.26,2.30,2.58,2.30,5.73,5.74,5.68
62.80,3.42,-2.21,3.42,-2.21,2.22,2.52,2.25,5.64,5.64,5.63
63.43,3.42,-2.15,3.42,-2.15,2.15,2.46,2.19,5.57,5.57,5.57
64.07,3.42,-2.10,3.42,-2.10,2.08,2.40,2.13,5.51,5.51,5.52
64.71,3.42,-2.05,3.42,-2.04,2.03,2.34,2.07,5.45,5.45,5.47
65.35,3.42,-1.98,3.42,-1.99,1.98,2.28,2.01,5.40,5.40,5.40
66.01,3.42,-1.92,3.42,-1.92,1.93,2.22,1.95,5.35,5.35,5.34
66.67,3.42,-1.87,3.42,-1.87,1.87,2.16,1.89,5.29,5.29,5.29
67.33,3.42,-1.80,3.42,-1.81,1.81,2.09,1.83,5.23,5.23,5.22
68.01,3.42,-1.75,3.42,-1.75,1.75,2.03,1.76,5.17,5.17,5.17
68.69,3.42,-1.68,3.42,-1.69,1.70,1.97,1.69,5.12,5.12,5.10
69.37,3.42,-1.63,3.42,-1.63,1.64,1.90,1.63,5.06,5.06,5.05
70.07,3.42,-1.56,3.42,-1.56,1.57,1.84,1.56,4.99,4.99,4.98
70.77,3.42,-1.50,3.42,-1.50,1.49,1.77,1.49,4.91,4.91,4.92
71.48,3.42,-1.42,3.41,-1.44,1.40,1.70,1.42,4.82,4.81,4.84
72.19,3.42,-1.36,3.42,-1.36,1.31,1.64,1.35,4.73,4.73,4.78
72.91,3.42,-1.30,3.48,-1.24,1.21,1.57,1.28,4.63,4.69,4.72
73.64,3.57,-1.07,3.55,-1.10,1.11,1.50,1.21,4.68,4.66,4.64
74.38,3.65,-0.93,3.62,-0.97,1.02,1.43,1.14,4.67,4.63,4.58
75.12,3.65,-0.87,3.66,-0.87,0.93,1.37,1.07,4.58,4.59,4.52
75.87,3.65,-0.84,3.66,-0.82,0.84,1.30,0.99,4.50,4.50,4.49
76.63,3.65,-0.77,3.65,-0.77,0.77,1.23,0.92,4.42,4.42,4.42
77.40,3.65,-0.72,3.65,-0.73,0.71,1.16,0.85,4.36,4.36,4.37
78.17,3.65,-0.67,3.65,-0.67,0.66,1.08,0.77,4.31,4.31,4.32
78.95,3.65,-0.63,3.65,-0.62,0.62,1.01,0.70,4.27,4.27,4.28
79.74,3.65,-0.57,3.65,-0.57,0.57,0.94,0.63,4.23,4.23,4.22
80.54,3.65,-0.52,3.65,-0.52,0.53,0.87,0.55,4.18,4.18,4.17
81.35,3.65,-0.47,3.65,-0.47,0.47,0.80,0.48,4.13,4.13,4.12
82.16,3.65,-0.43,3.65,-0.43,0.42,0.72,0.41,4.07,4.07,4.08
82.98,3.65,-0.37,3.65,-0.37,0.37,0.65,0.33,4.02,4.02,4.02
83.81,3.65,-0.31,3.65,-0.31,0.31,0.58,0.26,3.96,3.96,3.96
84.65,3.65,-0.25,3.65,-0.25,0.25,0.50,0.18,3.90,3.90,3.90
85.50,3.65,-0.18,3.65,-0.19,0.19,0.43,0.11,3.84,3.84,3.83
86.35,3.65,-0.12,3.65,-0.12,0.12,0.36,0.03,3.78,3.78,3.77
87.22,3.65,-0.06,3.65,-0.06,0.06,0.28,-0.04,3.71,3.71,3.71
88.09,3.65,0.01,3.65,0.00,-0.01,0.21,-0.11,3.65,3.65,3.64
88.97,3.65,0.07,3.65,0.07,-0.07,0.13,-0.19,3.58,3.58,3.58
89.86,3.65,0.14,3.65,0.14,-0.14,0.06,-0.27,3.52,3.52,3.51
90.76,3.65,0.21,3.65,0.20,-0.20,-0.02,-0.34,3.45,3.45,3.44
91.66,3.65,0.27,3.65,0.27,-0.27,-0.09,-0.42,3.39,3.39,3.38
92.58,3.65,0.33,3.65,0.33,-0.33,-0.17,-0.49,3.32,3.32,3.32
93.51,3.65,0.40,3.65,0.39,-0.40,-0.24,-0.57,3.25,3.25,3.25
94.44,3.65,0.46,3.65,0.47,-0.47,-0.32,-0.64,3.18,3.18,3.19
95.39,3.65,0.54,3.65,0.54,-0.54,-0.39,-0.72,3.11,3.11,3.11
96.34,3.65,0.62,3.65,0.61,-0.61,-0.47,-0.80,3.04,3.04,3.03
97.30,3.65,0.68,3.65,0.69,-0.69,-0.54,-0.87,2.97,2.97,2.97
98.28,3.65,0.77,3.65,0.76,-0.76,-0.61,-0.95,2.89,2.89,2.88
99.26,3.65,0.84,3.65,0.83,-0.83,-0.69,-1.03,2.82,2.82,2.81
100.25,3.65,0.90,3.65,0.90,-0.90,-0.76,-1.10,2.76,2.76,2.75
101.25,3.65,0.96,3.65,0.96,-0.96,-0.84,-1.18,2.69,2.69,2.69
102.27,3.65,1.03,3.65,1.02,-1.03,-0.91,-1.26,2.63,2.63,2.62
103.29,3.65,1.09,3.65,1.08,-1.09,-0.98,-1.33,2.57,2.57,2.56
104.32,3.65,1.14,3.65,1.14,-1.14,-1.06,-1.41,2.51,2.51,2.51
105.37,3.65,1.20,3.65,1.20,-1.20,-1.13,-1.48,2.45,2.45,2.45
106.42,3.65,1.26,3.65,1.26,-1.26,-1.20,-1.56,2.39,2.39,2.39
107.48,3.65,1.33,3.65,1.32,-1.32,-1.28,-1.63,2.34,2.34,2.32
108.56,3.65,1.37,3.65,1.38,-1.37,-1.35,-1.70,2.28,2.28,2.28
109.64,3.65,1.43,3.65,1.43,-1.43,-1.42,-1.77,2.22,2.22,2.22
110.74,3.65,1.49,3.65,1.49,-1.49,-1.49,-1.84,2.17,2.17,2.16
111.85,3.65,1.55,3.65,1.54,-1.55,-1.56,-1.91,2.11,2.11,2.10
112.97,3.65,1.60,3.65,1.60,-1.61,-1.63,-1.97,2.05,2.05,2.05
114.10,3.65,1.66,3.65,1.66,-1.67,-1.70,-2.03,1.98,1.98,1.99
115.24,3.65,1.73,3.65,1.73,-1.73,-1.77,-2.09,1.92,1.92,1.92
116.39,3.65,1.80,3.65,1.79,-1.79,-1.83,-2.15,1.86,1.86,1.85
117.55,3.65,1.86,3.65,1.86,-1.86,-1.90,-2.21,1.79,1.79,1.79
118.73,3.65,1.93,3.65,1.93,-1.92,-1.96,-2.26,1.73,1.73,1.72
119.92,3.65,2.00,3.65,1.99,-1.99,-2.03,-2.31,1.66,1.66,1.65
121.12,3.65,2.05,3.65,2.06,-2.06,-2.09,-2.36,1.60,1.60,1.60
122.33,3.65,2.13,3.65,2.12,-2.13,-2.16,-2.40,1.52,1.52,1.52
123.55,3.65,2.18,3.65,2.18,-2.20,-2.22,-2.44,1.45,1.45,1.47
124.79,3.65,2.25,3.65,2.25,-2.27,-2.28,-2.48,1.39,1.39,1.40
126.03,3.65,2.32,3.65,2.32,-2.33,-2.34,-2.51,1.32,1.32,1.33
127.29,3.65,2.39,3.66,2.39,-2.38,-2.40,-2.54,1.27,1.28,1.26
128.57,3.65,2.45,3.66,2.46,-2.42,-2.46,-2.57,1.23,1.24,1.20
129.85,3.65,2.53,3.63,2.51,-2.46,-2.51,-2.59,1.19,1.18,1.12
131.15,3.60,2.54,3.57,2.51,-2.49,-2.57,-2.61,1.11,1.08,1.06
132.46,3.47,2.48,3.50,2.51,-2.52,-2.62,-2.63,0.95,0.98,0.99
133.79,3.42,2.49,3.44,2.51,-2.55,-2.67,-2.65,0.87,0.89,0.93
135.12,3.42,2.56,3.41,2.54,-2.58,-2.72,-2.66,0.84,0.83,0.86
136.48,3.42,2.60,3.42,2.60,-2.62,-2.77,-2.68,0.80,0.80,0.82
137.84,3.42,2.66,3.42,2.66,-2.66,-2.82,-2.69,0.76,0.76,0.76
139.22,3.42,2.73,3.42,2.72,-2.71,-2.87,-2.70,0.71,0.71,0.69
140.61,3.42,2.78,3.42,2.78,-2.76,-2.91,-2.70,0.66,0.66,0.64
142.02,3.42,2.83,3.42,2.83,-2.82,-2.95,-2.71,0.60,0.60,0.59
143.44,3.42,2.89,3.42,2.88,-2.88,-2.99,-2.72,0.54,0.54,0.53
144.87,3.42,2.93,3.42,2.93,-2.93,-3.03,-2.72,0.49,0.49,0.49
146.32,3.42,2.98,3.42,2.98,-2.98,-3.07,-2.73,0.44,0.44,0.44
147.78,3.42,3.04,3.42,3.03,-3.04,-3.11,-2.73,0.39,0.39,0.38
149.26,3.42,3.08,3.42,3.08,-3.09,-3.14,-2.74,0.33,0.33,0.34
150.75,3.42,3.14,3.42,3.13,-3.14,-3.17,-2.75,0.28,0.28,0.28
152.26,3.42,3.17,3.42,3.18,-3.19,-3.20,-2.75,0.23,0.23,0.25
153.78,3.42,3.23,3.42,3.22,-3.23,-3.23,-2.76,0.19,0.19,0.19
155.32,3.42,3.27,3.43,3.28,-3.26,-3.26,-2.77,0.16,0.17,0.15
156.88,3.42,3.32,3.43,3.33,-3.28,-3.29,-2.78,0.14,0.15,0.10
158.44,3.42,3.37,3.40,3.34,-3.30,-3.32,-2.79,0.12,0.10,0.05
160.03,3.36,3.36,3.33,3.33,-3.32,-3.34,-2.81,0.04,0.02,0.00
161.63,3.22,3.27,3.26,3.31,-3.33,-3.37,-2.82,-0.11,-0.07,-0.05
163.24,3.19,3.30,3.20,3.31,-3.35,-3.40,-2.84,-0.16,-0.15,-0.11
164.88,3.19,3.34,3.18,3.33,-3.37,-3.43,-2.86,-0.18,-0.19,-0.15
166.53,3.19,3.40,3.19,3.39,-3.39,-3.45,-2.88,-0.20,-0.20,-0.21
168.19,3.19,3.43,3.19,3.43,-3.43,-3.48,-2.91,-0.24,-0.24,-0.24
169.87,3.19,3.48,3.19,3.48,-3.48,-3.51,-2.93,-0.28,-0.28,-0.29
171.57,3.19,3.54,3.19,3.53,-3.53,-3.54,-2.96,-0.34,-0.34,-0.35
173.29,3.19,3.59,3.19,3.59,-3.60,-3.57,-2.99,-0.40,-0.40,-0.40
175.02,3.19,3.64,3.19,3.64,-3.65,-3.61,-3.02,-0.46,-0.46,-0.45
176.77,3.19,3.69,3.19,3.69,-3.69,-3.64,-3.06,-0.50,-0.50,-0.50
178.54,3.19,3.74,3.20,3.75,-3.73,-3.68,-3.10,-0.53,-0.53,-0.55
180.32,3.19,3.80,3.20,3.80,-3.75,-3.71,-3.14,-0.56,-0.55,-0.61
182.13,3.19,3.85,3.16,3.81,-3.77,-3.74,-3.18,-0.58,-0.62,-0.66
183.95,3.10,3.81,3.09,3.80,-3.79,-3.78,-3.23,-0.69,-0.70,-0.71
185.79,2.97,3.74,3.02,3.78,-3.80,-3.81,-3.27,-0.83,-0.79,-0.77
187.65,2.96,3.77,2.96,3.77,-3.82,-3.85,-3.32,-0.86,-0.86,-0.81
189.52,2.96,3.82,2.95,3.80,-3.85,-3.88,-3.38,-0.89,-0.90,-0.86
191.42,2.96,3.86,2.96,3.86,-3.88,-3.91,-3.43,-0.92,-0.92,-0.90
193.33,2.96,3.91,2.96,3.91,-3.92,-3.94,-3.49,-0.95,-0.95,-0.95
195.27,2.96,3.96,2.96,3.96,-3.95,-3.97,-3.54,-0.99,-0.99,-1.00
197.22,2.96,4.01,2.97,4.01,-3.98,-4.00,-3.61,-1.02,-1.02,-1.05
199.19,2.96,4.04,2.97,4.06,-4.01,-4.02,-3.67,-1.04,-1.03,-1.08
201.18,2.96,4.09,2.95,4.07,-4.02,-4.05,-3.73,-1.06,-1.07,-1.13
203.19,2.92,4.08,2.89,4.05,-4.03,-4.07,-3.79,-1.11,-1.13,-1.16
205.23,2.80,3.99,2.82,4.01,-4.03,-4.09,-3.86,-1.23,-1.21,-1.19
207.28,2.74,3.96,2.76,3.98,-4.03,-4.11,-3.92,-1.29,-1.27,-1.22
209.35,2.74,4.00,2.73,3.99,-4.04,-4.12,-3.99,-1.29,-1.30,-1.26
211.44,2.74,4.04,2.74,4.03,-4.05,-4.14,-4.05,-1.31,-1.31,-1.30
213.56,2.74,4.07,2.74,4.07,-4.07,-4.15,-4.12,-1.33,-1.33,-1.33
215.69,2.74,4.10,2.74,4.10,-4.10,-4.16,-4.18,-1.36,-1.36,-1.36
217.85,2.74,4.13,2.74,4.13,-4.13,-4.17,-4.24,-1.39,-1.39,-1.39
220.03,2.74,4.17,2.74,4.17,-4.16,-4.18,-4.30,-1.42,-1.42,-1.43
222.23,2.74,4.20,2.76,4.21,-4.17,-4.19,-4.36,-1.43,-1.41,-1.46
224.45,2.74,4.23,2.74,4.23,-4.18,-4.19,-4.42,-1.43,-1.44,-1.49
226.70,2.74,4.26,2.69,4.20,-4.17,-4.19,-4.47,-1.43,-1.48,-1.52
228.96,2.58,4.13,2.62,4.16,-4.17,-4.20,-4.52,-1.59,-1.55,-1.55
231.25,2.53,4.10,2.55,4.12,-4.17,-4.20,-4.56,-1.63,-1.62,-1.57
233.57,2.51,4.11,2.51,4.10,-4.17,-4.20,-4.60,-1.65,-1.66,-1.60
235.90,2.51,4.13,2.51,4.13,-4.17,-4.19,-4.64,-1.65,-1.66,-1.62
238.26,2.51,4.17,2.51,4.15,-4.16,-4.19,-4.67,-1.65,-1.65,-1.66
240.64,2.51,4.17,2.51,4.17,-4.16,-4.18,-4.69,-1.65,-1.65,-1.66
243.05,2.51,4.19,2.53,4.21,-4.15,-4.17,-4.71,-1.64,-1.62,-1.68
245.48,2.51,4.22,2.51,4.21,-4.15,-4.17,-4.72,-1.63,-1.64,-1.71
247.93,2.51,4.24,2.45,4.17,-4.14,-4.16,-4.72,-1.63,-1.69,-1.73
250.41,2.32,4.05,2.37,4.11,-4.13,-4.14,-4.72,-1.81,-1.76,-1.73
252.92,2.28,4.03,2.30,4.05,-4.12,-4.13,-4.71,-1.84,-1.81,-1.75
255.45,2.28,4.05,2.27,4.03,-4.10,-4.11,-4.69,-1.82,-1.84,-1.77
258.00,2.28,4.07,2.28,4.06,-4.08,-4.10,-4.67,-1.80,-1.80,-1.79
260.58,2.28,4.08,2.29,4.08,-4.06,-4.08,-4.64,-1.77,-1.77,-1.80
263.19,2.28,4.09,2.29,4.10,-4.03,-4.06,-4.61,-1.75,-1.74,-1.81
265.82,2.28,4.10,2.26,4.08,-4.01,-4.04,-4.57,-1.73,-1.75,-1.82
268.48,2.23,4.05,2.20,4.02,-4.00,-4.02,-4.52,-1.77,-1.80,-1.82
271.16,2.10,3.92,2.13,3.95,-3.98,-3.99,-4.47,-1.88,-1.85,-1.82
273.87,2.05,3.88,2.07,3.90,-3.96,-3.97,-4.42,-1.91,-1.89,-1.83
276.61,2.05,3.89,2.04,3.88,-3.94,-3.94,-4.36,-1.89,-1.90,-1.84
279.38,2.05,3.91,2.05,3.90,-3.91,-3.91,-4.30,-1.86,-1.86,-1.86
282.17,2.05,3.91,2.06,3.91,-3.88,-3.88,-4.23,-1.83,-1.82,-1.86
284.99,2.05,3.90,2.06,3.91,-3.85,-3.85,-4.16,-1.80,-1.79,-1.85
287.84,2.05,3.90,2.02,3.87,-3.82,-3.82,-4.09,-1.77,-1.80,-1.85
290.72,1.98,3.84,1.96,3.81,-3.80,-3.79,-4.02,-1.82,-1.84,-1.86
293.63,1.85,3.70,1.89,3.74,-3.78,-3.75,-3.94,-1.93,-1.89,-1.85
296.57,1.83,3.68,1.84,3.69,-3.75,-3.72,-3.87,-1.92,-1.91,-1.85
299.53,1.83,3.69,1.82,3.67,-3.72,-3.68,-3.79,-1.89,-1.90,-1.86
302.53,1.83,3.67,1.83,3.67,-3.68,-3.64,-3.71,-1.85,-1.85,-1.84
305.55,1.83,3.68,1.85,3.69,-3.64,-3.61,-3.64,-1.81,-1.80,-1.85
308.61,1.83,3.67,1.83,3.67,-3.61,-3.57,-3.56,-1.78,-1.78,-1.84
311.69,1.83,3.68,1.78,3.62,-3.59,-3.53,-3.49,-1.76,-1.81,-1.85
314.81,1.68,3.52,1.71,3.55,-3.56,-3.49,-3.41,-1.88,-1.86,-1.84
317.96,1.61,3.46,1.64,3.48,-3.53,-3.45,-3.34,-1.92,-1.89,-1.85
321.14,1.60,3.44,1.59,3.43,-3.49,-3.41,-3.27,-1.89,-1.89,-1.84
324.35,1.60,3.45,1.61,3.44,-3.44,-3.37,-3.20,-1.83,-1.83,-1.85
327.59,1.60,3.42,1.61,3.44,-3.38,-3.33,-3.13,-1.78,-1.78,-1.82
330.87,1.60,3.43,1.56,3.39,-3.34,-3.29,-3.06,-1.74,-1.78,-1.83
334.18,1.49,3.32,1.49,3.31,-3.30,-3.25,-2.99,-1.81,-1.81,-1.83
337.52,1.38,3.20,1.42,3.24,-3.27,-3.20,-2.93,-1.89,-1.85,-1.82
340.90,1.37,3.18,1.37,3.18,-3.24,-3.16,-2.87,-1.87,-1.87,-1.81
344.30,1.37,3.17,1.36,3.16,-3.20,-3.12,-2.81,-1.82,-1.83,-1.80
347.75,1.37,3.16,1.38,3.17,-3.15,-3.08,-2.75,-1.77,-1.76,-1.79
351.23,1.37,3.17,1.38,3.16,-3.10,-3.04,-2.70,-1.73,-1.73,-1.80
354.74,1.37,3.14,1.33,3.11,-3.07,-3.00,-2.64,-1.69,-1.73,-1.77
358.28,1.26,3.03,1.27,3.04,-3.03,-2.96,-2.59,-1.77,-1.77,-1.77
361.87,1.17,2.94,1.20,2.96,-3.00,-2.92,-2.54,-1.83,-1.80,-1.77
365.49,1.14,2.90,1.15,2.90,-2.95,-2.88,-2.50,-1.81,-1.81,-1.76
369.14,1.14,2.89,1.14,2.89,-2.90,-2.83,-2.45,-1.76,-1.76,-1.75
372.83,1.14,2.88,1.15,2.89,-2.85,-2.79,-2.41,-1.71,-1.70,-1.74
376.56,1.14,2.89,1.11,2.85,-2.81,-2.75,-2.37,-1.66,-1.70,-1.75
380.33,1.05,2.79,1.04,2.78,-2.77,-2.71,-2.33,-1.72,-1.73,-1.74
384.13,0.94,2.67,0.97,2.70,-2.74,-2.67,-2.29,-1.80,-1.76,-1.73
387.97,0.91,2.64,0.92,2.65,-2.70,-2.63,-2.26,-1.79,-1.78,-1.73
391.85,0.91,2.64,0.91,2.64,-2.65,-2.59,-2.22,-1.74,-1.74,-1.73
395.77,0.91,2.65,0.92,2.64,-2.60,-2.55,-2.19,-1.69,-1.68,-1.74
399.73,0.91,2.64,0.88,2.61,-2.56,-2.51,-2.16,-1.64,-1.67,-1.73
403.72,0.83,2.54,0.82,2.54,-2.52,-2.47,-2.13,-1.69,-1.70,-1.71
407.76,0.72,2.43,0.75,2.46,-2.49,-2.43,-2.10,-1.77,-1.74,-1.71
411.84,0.69,2.39,0.70,2.40,-2.45,-2.39,-2.08,-1.76,-1.75,-1.70
415.96,0.69,2.38,0.68,2.37,-2.41,-2.36,-2.05,-1.72,-1.73,-1.69
420.12,0.69,2.38,0.70,2.38,-2.36,-2.32,-2.03,-1.67,-1.66,-1.69
424.32,0.69,2.36,0.70,2.37,-2.31,-2.28,-2.00,-1.61,-1.61,-1.67
428.56,0.69,2.34,0.66,2.31,-2.26,-2.24,-1.98,-1.57,-1.60,-1.65
432.85,0.60,2.24,0.59,2.23,-2.22,-2.20,-1.96,-1.61,-1.63,-1.64
437.18,0.48,2.11,0.52,2.15,-2.17,-2.16,-1.94,-1.69,-1.66,-1.63
441.55,0.46,2.09,0.47,2.09,-2.14,-2.13,-1.91,-1.67,-1.67,-1.63
445.96,0.46,2.07,0.45,2.06,-2.10,-2.09,-1.89,-1.64,-1.65,-1.61
450.42,0.46,2.06,0.46,2.06,-2.07,-2.05,-1.87,-1.61,-1.61,-1.60
454.93,0.46,2.04,0.46,2.04,-2.04,-2.01,-1.85,-1.58,-1.58,-1.58
459.48,0.46,2.03,0.46,2.03,-2.02,-1.97,-1.83,-1.56,-1.56,-1.57
464.07,0.46,2.01,0.46,2.01,-2.00,-1.94,-1.81,-1.53,-1.53,-1.55
468.71,0.46,1.99,0.48,2.01,-1.96,-1.90,-1.79,-1.50,-1.48,-1.53
473.40,0.46,1.98,0.46,1.97,-1.92,-1.86,-1.77,-1.46,-1.46,-1.52
478.13,0.46,1.96,0.40,1.90,-1.88,-1.83,-1.74,-1.41,-1.48,-1.50
482.91,0.28,1.77,0.33,1.81,-1.83,-1.79,-1.72,-1.55,-1.51,-1.49
487.74,0.23,1.71,0.26,1.73,-1.79,-1.75,-1.70,-1.56,-1.53,-1.48
492.62,0.23,1.69,0.22,1.68,-1.74,-1.72,-1.67,-1.51,-1.53,-1.46
497.55,0.23,1.68,0.23,1.67,-1.69,-1.68,-1.64,-1.46,-1.46,-1.45
502.52,0.23,1.66,0.24,1.66,-1.64,-1.64,-1.62,-1.40,-1.40,-1.43
507.55,0.23,1.63,0.25,1.65,-1.58,-1.61,-1.59,-1.35,-1.34,-1.40
512.62,0.23,1.61,0.22,1.59,-1.53,-1.57,-1.56,-1.30,-1.32,-1.38
517.75,0.20,1.55,0.16,1.51,-1.49,-1.53,-1.53,-1.29,-1.33,-1.35
522.93,0.04,1.37,0.08,1.41,-1.44,-1.50,-1.50,-1.40,-1.36,-1.33
528.16,0.00,1.31,0.02,1.33,-1.39,-1.46,-1.47,-1.39,-1.37,-1.31
