frequency,raw,error,smoothed,error_smoothed,equalization,parametric_eq,fixed_band_eq,equalized_raw,equalized_smoothed,target
20.00,-24.79,-24.85,-24.79,-24.84,24.84,26.79,11.48,0.05,0.05,0.05
20.20,-24.62,-24.77,-24.63,-24.77,24.77,26.59,11.66,0.14,0.14,0.14
20.40,-24.46,-24.68,-24.46,-24.68,24.69,26.37,11.86,0.22,0.22,0.22
20.61,-24.30,-24.59,-24.30,-24.60,24.60,26.14,12.05,0.30,0.30,0.29
20.81,-24.13,-24.51,-24.13,-24.51,24.51,25.90,12.26,0.38,0.38,0.38
21.02,-23.96,-24.43,-23.96,-24.42,24.42,25.65,12.46,0.45,0.45,0.46
21.23,-23.79,-24.32,-23.80,-24.32,24.31,25.40,12.67,0.52,0.52,0.52
21.44,-23.63,-24.21,-23.63,-24.21,24.21,25.14,12.89,0.58,0.58,0.58
21.66,-23.47,-24.10,-23.46,-24.10,24.10,24.89,13.11,0.63,0.63,0.63
21.87,-23.29,-23.97,-23.29,-23.98,23.98,24.65,13.34,0.69,0.68,0.68
22.09,-23.12,-23.85,-23.12,-23.86,23.85,24.40,13.58,0.73,0.73,0.73
22.31,-22.95,-23.73,-22.95,-23.73,23.73,24.17,13.82,0.77,0.78,0.78
22.54,-22.78,-23.60,-22.78,-23.60,23.60,23.94,14.06,0.82,0.82,0.82
22.76,-22.60,-23.46,-22.61,-23.46,23.46,23.71,14.32,0.86,0.86,0.86
22.99,-22.44,-23.33,-22.43,-23.32,23.33,23.49,14.58,0.90,0.90,0.89
23.22,-22.26,-23.19,-22.26,-23.19,23.20,23.28,14.84,0.94,0.94,0.93
23.45,-22.08,-23.05,-22.09,-23.06,23.06,23.08,15.12,0.98,0.98,0.97
23.69,-21.92,-22.93,-21.91,-22.93,22.93,22.88,15.41,1.01,1.01,1.01
23.92,-21.74,-22.79,-21.74,-22.80,22.79,22.69,15.70,1.05,1.05,1.05
24.16,-21.56,-22.66,-21.57,-22.66,22.65,22.51,16.00,1.09,1.09,1.10
24.40,-21.39,-22.52,-21.39,-22.52,22.52,22.33,16.32,1.12,1.12,1.13
24.65,-21.23,-22.38,-21.22,-22.38,22.38,22.16,16.64,1.15,1.16,1.15
24.89,-21.04,-22.22,-21.05,-22.23,22.24,22.00,16.98,1.19,1.19,1.18
25.14,-20.87,-22.09,-20.87,-22.09,22.09,21.84,17.33,1.22,1.22,1.22
25.39,-20.69,-21.94,-20.69,-21.95,21.95,21.69,17.69,1.26,1.25,1.25
25.65,-20.52,-21.81,-20.52,-21.80,21.80,21.54,18.06,1.29,1.28,1.29
25.91,-20.35,-21.66,-20.34,-21.66,21.66,21.39,18.45,1.31,1.31,1.31
26.16,-20.16,-21.50,-20.16,-21.51,21.51,21.26,18.85,1.35,1.35,1.34
26.43,-19.99,-21.37,-19.99,-21.36,21.37,21.12,19.27,1.38,1.38,1.38
26.69,-19.80,-21.22,-19.81,-21.22,21.22,20.99,19.70,1.41,1.41,1.41
26.96,-19.64,-21.08,-19.63,-21.08,21.07,20.86,20.16,1.43,1.44,1.44
27.23,-19.46,-20.93,-19.45,-20.92,20.92,20.74,20.63,1.47,1.47,1.47
27.50,-19.28,-20.78,-19.28,-20.78,20.77,20.62,21.12,1.50,1.50,1.50
27.77,-19.09,-20.61,-19.10,-20.62,20.63,20.50,21.62,1.53,1.53,1.52
28.05,-18.92,-20.48,-18.92,-20.48,20.48,20.38,22.15,1.56,1.56,1.56
28.33,-18.74,-20.32,-18.75,-20.33,20.33,20.27,22.69,1.59,1.59,1.58
28.62,-18.58,-20.19,-18.57,-20.19,20.19,20.16,23.24,1.61,1.61,1.61
28.90,-18.39,-20.05,-18.39,-20.04,20.04,20.04,23.80,1.65,1.65,1.65
29.19,-18.21,-19.89,-18.22,-19.90,19.89,19.93,24.37,1.68,1.68,1.67
29.48,-18.04,-19.76,-18.04,-19.75,19.75,19.82,24.92,1.71,1.71,1.72
29.78,-17.87,-19.60,-17.87,-19.60,19.61,19.71,25.44,1.74,1.74,1.73
30.08,-17.70,-19.46,-17.70,-19.46,19.46,19.60,25.92,1.76,1.76,1.76
30.38,-17.53,-19.32,-17.53,-19.32,19.32,19.49,26.32,1.79,1.79,1.79
30.68,-17.35,-19.18,-17.36,-19.17,19.17,19.37,26.63,1.82,1.81,1.82
30.99,-17.19,-19.03,-17.19,-19.03,19.03,19.26,26.81,1.84,1.84,1.84
31.30,-17.02,-18.88,-17.02,-18.88,18.88,19.14,26.85,1.86,1.86,1.86
31.61,-16.85,-18.74,-16.85,-18.73,18.73,19.03,26.75,1.89,1.89,1.89
31.93,-16.68,-18.59,-16.67,-18.59,18.59,18.91,26.51,1.91,1.92,1.91
32.24,-16.50,-18.43,-16.51,-18.44,18.44,18.78,26.15,1.94,1.94,1.93
32.57,-16.34,-18.30,-16.34,-18.30,18.30,18.66,25.71,1.96,1.96,1.96
32.89,-16.17,-18.15,-16.17,-18.15,18.15,18.53,25.21,1.98,1.98,1.98
33.22,-16.00,-18.01,-16.00,-18.00,18.00,18.40,24.67,2.00,2.00,2.00
33.55,-15.83,-17.85,-15.84,-17.85,17.85,18.26,24.11,2.02,2.02,2.02
33.89,-15.66,-17.70,-15.67,-17.70,17.70,18.12,23.55,2.04,2.04,2.03
34.23,-15.51,-17.56,-15.50,-17.55,17.55,17.98,22.99,2.05,2.05,2.05
34.57,-15.33,-17.40,-15.34,-17.40,17.40,17.84,22.44,2.06,2.06,2.06
34.92,-15.17,-17.24,-15.17,-17.24,17.24,17.69,21.91,2.08,2.07,2.07
35.27,-15.01,-17.10,-15.00,-17.08,17.08,17.54,21.39,2.08,2.08,2.09
35.62,-14.84,-16.92,-14.84,-16.93,16.93,17.38,20.89,2.09,2.09,2.08
35.97,-14.67,-16.76,-14.67,-16.77,16.77,17.22,20.41,2.09,2.09,2.09
36.33,-14.50,-16.61,-14.51,-16.61,16.60,17.06,19.94,2.10,2.10,2.11
36.70,-14.35,-16.45,-14.34,-16.45,16.44,16.89,19.50,2.10,2.10,2.10
37.06,-14.17,-16.27,-14.18,-16.28,16.28,16.72,19.07,2.11,2.11,2.10
37.43,-14.01,-16.11,-14.01,-16.11,16.12,16.55,18.66,2.11,2.11,2.10
37.81,-13.85,-15.96,-13.85,-15.96,15.96,16.37,18.26,2.10,2.10,2.10
38.19,-13.70,-15.80,-13.70,-15.80,15.80,16.20,17.88,2.10,2.10,2.10
38.57,-13.54,-15.65,-13.54,-15.64,15.63,16.02,17.51,2.09,2.09,2.10
38.95,-13.38,-15.48,-13.38,-15.48,15.47,15.83,17.15,2.09,2.09,2.10
39.34,-13.22,-15.30,-13.22,-15.31,15.31,15.65,16.81,2.09,2.09,2.08
39.74,-13.07,-15.15,-13.07,-15.15,15.15,15.46,16.48,2.09,2.09,2.08
40.14,-12.92,-14.99,-12.92,-14.99,15.00,15.27,16.16,2.08,2.08,2.07
40.54,-12.78,-14.85,-12.77,-14.84,14.84,15.08,15.85,2.07,2.07,2.07
40.94,-12.62,-14.69,-12.63,-14.69,14.69,14.89,15.55,2.06,2.06,2.06
41.35,-12.48,-14.55,-12.48,-14.54,14.54,14.70,15.26,2.05,2.06,2.06
41.76,-12.33,-14.38,-12.34,-14.39,14.39,14.50,14.98,2.06,2.05,2.05
42.18,-12.19,-14.23,-12.20,-14.24,14.24,14.31,14.70,2.05,2.05,2.04
42.60,-12.06,-14.09,-12.06,-14.10,14.10,14.11,14.44,2.03,2.04,2.03
43.03,-11.92,-13.96,-11.93,-13.95,13.95,13.92,14.18,2.03,2.02,2.03
43.46,-11.79,-13.82,-11.79,-13.81,13.80,13.72,13.93,2.01,2.01,2.02
43.90,-11.66,-13.66,-11.66,-13.66,13.66,13.53,13.69,2.00,2.00,2.00
44.33,-11.53,-13.51,-11.53,-13.52,13.52,13.33,13.45,1.98,1.99,1.98
44.78,-11.41,-13.38,-11.40,-13.37,13.38,13.14,13.22,1.97,1.97,1.97
45.23,-11.28,-13.24,-11.27,-13.23,13.24,12.94,12.99,1.96,1.96,1.96
45.68,-11.15,-13.10,-11.15,-13.10,13.10,12.75,12.77,1.95,1.95,1.95
46.13,-11.01,-12.95,-11.02,-12.96,12.97,12.56,12.55,1.95,1.95,1.94
46.60,-10.90,-12.84,-10.89,-12.83,12.83,12.37,12.34,1.94,1.94,1.94
47.06,-10.76,-12.70,-10.77,-12.70,12.70,12.17,12.14,1.94,1.93,1.93
47.53,-10.65,-12.58,-10.65,-12.58,12.57,11.98,11.94,1.92,1.92,1.92
48.01,-10.54,-12.46,-10.53,-12.45,12.44,11.79,11.74,1.91,1.91,1.92
48.49,-10.42,-12.33,-10.42,-12.33,12.31,11.61,11.55,1.90,1.90,1.91
48.97,-10.29,-12.20,-10.29,-12.19,12.18,11.42,11.36,1.89,1.89,1.90
49.46,-10.16,-12.05,-10.17,-12.05,12.05,11.24,11.18,1.89,1.89,1.88
49.96,-10.04,-11.91,-10.03,-11.91,11.92,11.05,11.00,1.89,1.89,1.87
50.46,-9.91,-11.79,-9.91,-11.78,11.79,10.87,10.82,1.89,1.89,1.88
50.96,-9.77,-11.66,-9.78,-11.66,11.66,10.69,10.65,1.89,1.88,1.88
51.47,-9.65,-11.53,-9.65,-11.53,11.53,10.51,10.48,1.87,1.87,1.87
51.99,-9.53,-11.40,-9.52,-11.39,11.39,10.33,10.31,1.87,1.87,1.87
52.51,-9.39,-11.26,-9.39,-11.26,11.25,10.16,10.15,1.87,1.87,1.87
53.03,-9.24,-11.12,-9.25,-11.12,11.11,9.99,9.98,1.87,1.87,1.87
53.56,-9.10,-10.98,-9.10,-10.97,10.97,9.81,9.83,1.86,1.86,1.87
54.10,-8.96,-10.82,-8.96,-10.82,10.82,9.64,9.67,1.86,1.86,1.86
54.64,-8.81,-10.66,-8.81,-10.66,10.66,9.48,9.52,1.85,1.85,1.85
55.18,-8.65,-10.49,-8.65,-10.49,10.49,9.31,9.37,1.84,1.84,1.84
55.74,-8.50,-10.32,-8.50,-10.32,10.32,9.14,9.22,1.83,1.83,1.82
56.29,-8.33,-10.15,-8.34,-10.15,10.15,8.98,9.07,1.82,1.81,1.82
56.86,-8.18,-9.98,-8.17,-9.97,9.97,8.82,8.93,1.80,1.80,1.80
57.42,-8.00,-9.78,-8.01,-9.79,9.79,8.66,8.79,1.79,1.78,1.78
58.00,-7.84,-9.61,-7.84,-9.60,9.60,8.50,8.65,1.77,1.77,1.77
58.58,-7.67,-9.42,-7.66,-9.42,9.41,8.35,8.51,1.75,1.75,1.75
59.16,-7.48,-9.22,-7.48,-9.22,9.22,8.19,8.37,1.74,1.74,1.74
59.76,-7.31,-9.03,-7.30,-9.03,9.02,8.04,8.24,1.72,1.72,1.72
60.35,-7.12,-8.81,-7.13,-8.83,8.82,7.89,8.10,1.70,1.69,1.69
60.96,-6.96,-8.64,-6.95,-8.62,8.62,7.74,7.97,1.66,1.67,1.68
61.57,-6.79,-8.42,-6.78,-8.42,8.42,7.60,7.84,1.63,1.64,1.63
62.18,-6.60,-8.21,-6.61,-8.22,8.22,7.45,7.71,1.61,1.61,1.60
62.80,-6.43,-8.02,-6.43,-8.01,8.02,7.31,7.58,1.58,1.58,1.59
63.43,-6.26,-7.82,-6.26,-7.82,7.82,7.17,7.46,1.56,1.56,1.55
64.07,-6.09,-7.62,-6.09,-7.62,7.63,7.03,7.33,1.55,1.54,1.53
64.71,-5.93,-7.45,-5.92,-7.44,7.45,6.89,7.21,1.52,1.53,1.52
65.35,-5.75,-7.25,-5.76,-7.26,7.27,6.76,7.09,1.52,1.51,1.50
66.01,-5.61,-7.10,-5.60,-7.10,7.10,6.62,6.97,1.49,1.49,1.49
66.67,-5.46,-6.94,-5.45,-6.93,6.93,6.49,6.84,1.48,1.48,1.48
67.33,-5.30,-6.77,-5.30,-6.78,6.77,6.36,6.73,1.46,1.46,1.47
68.01,-5.16,-6.62,-5.15,-6.62,6.61,6.23,6.61,1.46,1.46,1.46
68.69,-5.01,-6.46,-5.00,-6.46,6.46,6.10,6.49,1.45,1.45,1.45
69.37,-4.85,-6.30,-4.85,-6.30,6.30,5.98,6.37,1.45,1.45,1.45
70.07,-4.70,-6.15,-4.71,-6.15,6.15,5.85,6.26,1.45,1.45,1.44
70.77,-4.56,-6.01,-4.57,-6.00,6.01,5.73,6.14,1.44,1.44,1.44
71.48,-4.44,-5.87,-4.43,-5.86,5.86,5.61,6.03,1.42,1.43,1.43
72.19,-4.30,-5.72,-4.30,-5.72,5.72,5.49,5.92,1.41,1.41,1.41
72.91,-4.17,-5.59,-4.17,-5.58,5.58,5.37,5.81,1.40,1.40,1.41
73.64,-4.04,-5.44,-4.04,-5.44,5.44,5.26,5.70,1.40,1.40,1.39
74.38,-3.91,-5.30,-3.92,-5.30,5.30,5.14,5.59,1.39,1.38,1.38
75.12,-3.80,-5.17,-3.80,-5.17,5.17,5.03,5.48,1.37,1.37,1.36
75.87,-3.69,-5.05,-3.69,-5.04,5.04,4.92,5.37,1.34,1.35,1.35
76.63,-3.57,-4.92,-3.58,-4.91,4.91,4.81,5.26,1.33,1.33,1.34
77.40,-3.46,-4.79,-3.46,-4.78,4.78,4.70,5.15,1.31,1.32,1.32
78.17,-3.34,-4.65,-3.35,-4.65,4.65,4.59,5.05,1.31,1.31,1.30
78.95,-3.23,-4.54,-3.23,-4.53,4.53,4.49,4.94,1.30,1.30,1.30
79.74,-3.11,-4.41,-3.12,-4.41,4.41,4.38,4.84,1.29,1.29,1.29
80.54,-3.00,-4.29,-3.01,-4.29,4.29,4.28,4.73,1.29,1.28,1.28
81.35,-2.90,-4.18,-2.90,-4.17,4.17,4.18,4.63,1.27,1.27,1.27
82.16,-2.80,-4.07,-2.80,-4.06,4.06,4.08,4.53,1.26,1.27,1.26
82.98,-2.68,-3.96,-2.69,-3.95,3.96,3.98,4.43,1.27,1.27,1.27
83.81,-2.58,-3.85,-2.58,-3.85,3.85,3.88,4.32,1.27,1.27,1.26
84.65,-2.48,-3.74,-2.49,-3.75,3.75,3.78,4.22,1.27,1.27,1.25
85.50,-2.39,-3.66,-2.40,-3.65,3.65,3.69,4.12,1.26,1.25,1.26
86.35,-2.30,-3.57,-2.30,-3.56,3.55,3.59,4.02,1.25,1.25,1.26
87.22,-2.22,-3.47,-2.21,-3.46,3.45,3.50,3.92,1.24,1.25,1.25
88.09,-2.10,-3.36,-2.11,-3.36,3.36,3.41,3.82,1.25,1.25,1.25
88.97,-2.00,-3.25,-2.01,-3.25,3.26,3.32,3.72,1.25,1.25,1.24
89.86,-1.92,-3.16,-1.92,-3.15,3.16,3.23,3.63,1.24,1.24,1.23
90.76,-1.84,-3.06,-1.85,-3.06,3.06,3.14,3.53,1.22,1.22,1.21
91.66,-1.77,-2.97,-1.77,-2.96,2.96,3.06,3.43,1.19,1.19,1.19
92.58,-1.69,-2.86,-1.70,-2.86,2.86,2.97,3.33,1.16,1.16,1.16
93.51,-1.62,-2.77,-1.62,-2.76,2.75,2.89,3.24,1.13,1.13,1.14
94.44,-1.54,-2.66,-1.55,-2.66,2.65,2.81,3.14,1.10,1.10,1.11
95.39,-1.47,-2.55,-1.48,-2.55,2.54,2.73,3.05,1.07,1.06,1.07
96.34,-1.41,-2.45,-1.41,-2.43,2.43,2.65,2.95,1.02,1.02,1.03
97.30,-1.34,-2.32,-1.35,-2.32,2.32,2.57,2.85,0.98,0.98,0.97
98.28,-1.28,-2.21,-1.29,-2.21,2.22,2.49,2.76,0.93,0.93,0.92
99.26,-1.23,-2.11,-1.23,-2.10,2.11,2.41,2.67,0.88,0.88,0.87
100.25,-1.18,-2.00,-1.19,-2.00,2.01,2.34,2.57,0.82,0.82,0.81
101.25,-1.15,-1.91,-1.15,-1.90,1.91,2.26,2.48,0.76,0.76,0.75
102.27,-1.11,-1.81,-1.12,-1.81,1.81,2.19,2.39,0.70,0.69,0.69
103.29,-1.09,-1.73,-1.09,-1.73,1.72,2.12,2.30,0.63,0.63,0.63
104.32,-1.06,-1.65,-1.06,-1.64,1.63,2.05,2.21,0.56,0.56,0.58
105.37,-1.03,-1.55,-1.03,-1.55,1.54,1.98,2.12,0.50,0.50,0.51
106.42,-0.99,-1.45,-1.00,-1.45,1.45,1.91,2.03,0.45,0.45,0.45
107.48,-0.95,-1.36,-0.95,-1.35,1.35,1.85,1.95,0.40,0.40,0.40
108.56,-0.91,-1.26,-0.92,-1.25,1.26,1.78,1.86,0.35,0.35,0.34
109.64,-0.87,-1.16,-0.88,-1.17,1.17,1.72,1.78,0.30,0.29,0.28
110.74,-0.85,-1.09,-0.85,-1.08,1.08,1.66,1.70,0.22,0.23,0.23
111.85,-0.81,-1.01,-0.82,-1.00,0.99,1.59,1.62,0.17,0.17,0.19
112.97,-0.78,-0.91,-0.78,-0.92,0.90,1.53,1.54,0.12,0.12,0.12
114.10,-0.75,-0.84,-0.75,-0.83,0.82,1.48,1.46,0.07,0.07,0.08
115.24,-0.71,-0.75,-0.72,-0.75,0.75,1.42,1.39,0.04,0.03,0.03
116.39,-0.69,-0.68,-0.69,-0.68,0.69,1.36,1.32,-0.01,-0.01,-0.02
117.55,-0.67,-0.62,-0.68,-0.62,0.64,1.31,1.25,-0.04,-0.04,-0.06
118.73,-0.67,-0.58,-0.68,-0.58,0.60,1.26,1.19,-0.08,-0.08,-0.10
119.92,-0.68,-0.56,-0.69,-0.56,0.57,1.21,1.12,-0.11,-0.12,-0.13
121.12,-0.71,-0.56,-0.71,-0.55,0.56,1.16,1.06,-0.16,-0.16,-0.16
122.33,-0.74,-0.56,-0.74,-0.55,0.55,1.11,1.00,-0.19,-0.19,-0.19
123.55,-0.77,-0.56,-0.78,-0.56,0.55,1.07,0.95,-0.22,-0.23,-0.22
124.79,-0.81,-0.57,-0.82,-0.57,0.56,1.02,0.90,-0.26,-0.26,-0.25
126.03,-0.85,-0.59,-0.85,-0.57,0.56,0.98,0.85,-0.29,-0.28,-0.27
127.29,-0.87,-0.58,-0.87,-0.57,0.57,0.94,0.80,-0.31,-0.31,-0.30
128.57,-0.89,-0.56,-0.90,-0.57,0.57,0.90,0.76,-0.32,-0.33,-0.34
129.85,-0.93,-0.58,-0.93,-0.57,0.58,0.87,0.72,-0.36,-0.36,-0.36
131.15,-0.97,-0.59,-0.97,-0.57,0.58,0.83,0.68,-0.40,-0.39,-0.39
132.46,-0.99,-0.57,-1.00,-0.58,0.58,0.80,0.65,-0.42,-0.43,-0.43
133.79,-1.03,-0.59,-1.03,-0.58,0.57,0.77,0.62,-0.46,-0.46,-0.45
135.12,-1.06,-0.59,-1.06,-0.58,0.57,0.74,0.59,-0.49,-0.49,-0.48
136.48,-1.08,-0.58,-1.09,-0.58,0.57,0.72,0.56,-0.51,-0.52,-0.51
137.84,-1.12,-0.59,-1.12,-0.57,0.57,0.69,0.53,-0.55,-0.54,-0.54
139.22,-1.14,-0.56,-1.15,-0.57,0.57,0.67,0.51,-0.57,-0.57,-0.59
140.61,-1.17,-0.56,-1.18,-0.57,0.58,0.66,0.49,-0.59,-0.60,-0.62
142.02,-1.23,-0.60,-1.23,-0.58,0.59,0.64,0.46,-0.64,-0.63,-0.64
143.44,-1.27,-0.60,-1.28,-0.60,0.61,0.63,0.45,-0.67,-0.68,-0.68
144.87,-1.35,-0.64,-1.35,-0.63,0.63,0.62,0.43,-0.72,-0.72,-0.72
146.32,-1.41,-0.66,-1.41,-0.66,0.66,0.61,0.41,-0.76,-0.76,-0.76
147.78,-1.48,-0.70,-1.48,-0.70,0.69,0.61,0.39,-0.80,-0.80,-0.79
149.26,-1.54,-0.73,-1.55,-0.73,0.72,0.61,0.38,-0.82,-0.83,-0.82
150.75,-1.63,-0.77,-1.63,-0.76,0.76,0.61,0.36,-0.88,-0.87,-0.87
152.26,-1.69,-0.79,-1.70,-0.79,0.80,0.62,0.35,-0.90,-0.90,-0.91
153.78,-1.77,-0.84,-1.77,-0.83,0.83,0.63,0.34,-0.94,-0.94,-0.94
155.32,-1.84,-0.86,-1.85,-0.87,0.87,0.64,0.32,-0.97,-0.98,-0.99
156.88,-1.94,-0.93,-1.94,-0.91,0.91,0.65,0.31,-1.03,-1.03,-1.02
158.44,-2.02,-0.95,-2.03,-0.96,0.95,0.67,0.29,-1.08,-1.08,-1.08
160.03,-2.12,-1.01,-2.11,-0.99,0.99,0.69,0.28,-1.13,-1.12,-1.12
161.63,-2.19,-1.03,-2.19,-1.03,1.03,0.72,0.27,-1.16,-1.16,-1.17
163.24,-2.26,-1.06,-2.28,-1.07,1.07,0.75,0.25,-1.19,-1.21,-1.21
164.88,-2.36,-1.12,-2.36,-1.11,1.11,0.78,0.24,-1.25,-1.24,-1.25
166.53,-2.44,-1.16,-2.44,-1.15,1.15,0.82,0.22,-1.29,-1.29,-1.29
168.19,-2.51,-1.19,-2.52,-1.20,1.19,0.85,0.21,-1.33,-1.34,-1.33
169.87,-2.60,-1.24,-2.59,-1.23,1.23,0.89,0.19,-1.38,-1.37,-1.37
171.57,-2.66,-1.27,-2.67,-1.26,1.26,0.94,0.18,-1.40,-1.41,-1.40
173.29,-2.72,-1.29,-2.74,-1.30,1.30,0.98,0.16,-1.43,-1.44,-1.44
175.02,-2.81,-1.34,-2.80,-1.33,1.33,1.03,0.14,-1.48,-1.47,-1.48
176.77,-2.86,-1.36,-2.87,-1.36,1.36,1.08,0.13,-1.50,-1.50,-1.51
178.54,-2.92,-1.39,-2.93,-1.39,1.40,1.13,0.11,-1.53,-1.53,-1.54
180.32,-2.98,-1.42,-2.98,-1.42,1.42,1.18,0.09,-1.56,-1.56,-1.57
182.13,-3.03,-1.45,-3.04,-1.45,1.45,1.23,0.07,-1.58,-1.59,-1.59
183.95,-3.09,-1.49,-3.09,-1.48,1.47,1.28,0.05,-1.62,-1.62,-1.61
185.79,-3.12,-1.50,-3.13,-1.50,1.48,1.32,0.03,-1.64,-1.64,-1.63
187.65,-3.14,-1.50,-3.15,-1.50,1.49,1.37,0.01,-1.65,-1.66,-1.65
189.52,-3.16,-1.51,-3.16,-1.49,1.49,1.41,-0.01,-1.67,-1.67,-1.66
191.42,-3.15,-1.48,-3.16,-1.48,1.49,1.44,-0.03,-1.67,-1.67,-1.68
193.33,-3.15,-1.47,-3.15,-1.47,1.47,1.47,-0.06,-1.68,-1.68,-1.69
195.27,-3.14,-1.45,-3.15,-1.44,1.45,1.50,-0.08,-1.69,-1.69,-1.70
197.22,-3.14,-1.43,-3.14,-1.42,1.43,1.51,-0.10,-1.72,-1.71,-1.72
199.19,-3.13,-1.40,-3.13,-1.40,1.40,1.52,-0.13,-1.74,-1.73,-1.74
201.18,-3.11,-1.37,-3.11,-1.37,1.36,1.52,-0.15,-1.75,-1.75,-1.75
203.19,-3.08,-1.34,-3.08,-1.33,1.32,1.51,-0.18,-1.77,-1.77,-1.75
205.23,-3.04,-1.28,-3.04,-1.28,1.27,1.49,-0.20,-1.78,-1.77,-1.77
207.28,-2.99,-1.23,-2.99,-1.22,1.22,1.46,-0.23,-1.78,-1.78,-1.77
209.35,-2.94,-1.16,-2.94,-1.15,1.16,1.42,-0.25,-1.78,-1.78,-1.79
211.44,-2.88,-1.08,-2.89,-1.09,1.10,1.36,-0.28,-1.78,-1.79,-1.81
213.56,-2.84,-1.03,-2.84,-1.03,1.04,1.30,-0.30,-1.80,-1.80,-1.82
215.69,-2.80,-0.99,-2.80,-0.97,0.98,1.22,-0.33,-1.83,-1.82,-1.82
217.85,-2.74,-0.91,-2.75,-0.92,0.91,1.14,-0.35,-1.84,-1.84,-1.84
220.03,-2.70,-0.86,-2.70,-0.85,0.84,1.04,-0.38,-1.87,-1.86,-1.85
222.23,-2.64,-0.78,-2.64,-0.77,0.76,0.94,-0.40,-1.88,-1.88,-1.87
224.45,-2.56,-0.70,-2.56,-0.69,0.68,0.83,-0.43,-1.88,-1.88,-1.87
226.70,-2.47,-0.59,-2.48,-0.59,0.59,0.72,-0.45,-1.88,-1.88,-1.89
228.96,-2.38,-0.49,-2.40,-0.50,0.50,0.60,-0.48,-1.88,-1.89,-1.90
231.25,-2.32,-0.42,-2.31,-0.40,0.41,0.47,-0.50,-1.92,-1.90,-1.91
233.57,-2.23,-0.31,-2.23,-0.31,0.31,0.34,-0.52,-1.93,-1.92,-1.93
235.90,-2.13,-0.20,-2.15,-0.21,0.21,0.21,-0.55,-1.93,-1.94,-1.94
238.26,-2.07,-0.12,-2.07,-0.11,0.11,0.07,-0.57,-1.97,-1.96,-1.96
240.64,-1.98,-0.01,-1.99,-0.01,0.00,-0.06,-0.59,-1.98,-1.98,-1.98
243.05,-1.90,0.08,-1.90,0.09,-0.10,-0.19,-0.61,-2.00,-1.99,-1.99
245.48,-1.80,0.19,-1.80,0.20,-0.20,-0.33,-0.63,-2.00,-2.00,-2.00
247.93,-1.68,0.32,-1.70,0.31,-0.29,-0.46,-0.65,-1.98,-2.00,-2.01
250.41,-1.62,0.39,-1.61,0.41,-0.39,-0.59,-0.67,-2.02,-2.00,-2.02
252.92,-1.50,0.50,-1.52,0.50,-0.49,-0.72,-0.68,-2.00,-2.01,-2.01
255.45,-1.42,0.58,-1.43,0.58,-0.59,-0.84,-0.70,-2.02,-2.02,-2.01
258.00,-1.33,0.66,-1.33,0.68,-0.69,-0.96,-0.72,-2.03,-2.02,-2.00
260.58,-1.21,0.78,-1.22,0.78,-0.79,-1.08,-0.73,-2.01,-2.01,-2.00
263.19,-1.10,0.88,-1.10,0.89,-0.89,-1.19,-0.75,-1.99,-1.99,-1.99
265.82,-0.96,1.01,-0.98,1.00,-0.99,-1.30,-0.76,-1.95,-1.97,-1.98
268.48,-0.85,1.10,-0.86,1.10,-1.09,-1.41,-0.77,-1.94,-1.95,-1.96
271.16,-0.75,1.18,-0.74,1.20,-1.19,-1.51,-0.79,-1.95,-1.93,-1.94
273.87,-0.62,1.30,-0.63,1.29,-1.30,-1.61,-0.80,-1.92,-1.93,-1.93
276.61,-0.51,1.38,-0.51,1.39,-1.40,-1.70,-0.81,-1.91,-1.91,-1.90
279.38,-0.39,1.50,-0.40,1.49,-1.50,-1.79,-0.82,-1.90,-1.90,-1.90
282.17,-0.28,1.59,-0.28,1.60,-1.61,-1.88,-0.83,-1.89,-1.89,-1.88
284.99,-0.16,1.70,-0.15,1.71,-1.72,-1.96,-0.85,-1.88,-1.87,-1.87
287.84,-0.01,1.83,-0.02,1.83,-1.82,-2.03,-0.86,-1.84,-1.84,-1.85
290.72,0.12,1.94,0.11,1.94,-1.93,-2.11,-0.87,-1.82,-1.82,-1.83
293.63,0.24,2.05,0.23,2.05,-2.04,-2.17,-0.88,-1.81,-1.81,-1.82
296.57,0.35,2.13,0.35,2.15,-2.15,-2.24,-0.89,-1.80,-1.80,-1.79
299.53,0.47,2.24,0.46,2.24,-2.25,-2.30,-0.91,-1.79,-1.79,-1.78
302.53,0.59,2.35,0.58,2.35,-2.35,-2.35,-0.92,-1.77,-1.77,-1.77
305.55,0.71,2.44,0.71,2.46,-2.45,-2.41,-0.93,-1.74,-1.73,-1.74
308.61,0.84,2.55,0.83,2.55,-2.54,-2.45,-0.95,-1.70,-1.71,-1.72
311.69,0.96,2.64,0.94,2.63,-2.62,-2.50,-0.96,-1.67,-1.68,-1.69
314.81,1.04,2.68,1.04,2.70,-2.70,-2.54,-0.98,-1.67,-1.66,-1.65
317.96,1.14,2.77,1.14,2.77,-2.78,-2.58,-0.99,-1.64,-1.64,-1.64
321.14,1.23,2.84,1.23,2.84,-2.85,-2.61,-1.01,-1.62,-1.62,-1.62
324.35,1.32,2.91,1.32,2.92,-2.91,-2.65,-1.03,-1.60,-1.59,-1.60
327.59,1.41,2.98,1.39,2.97,-2.97,-2.67,-1.05,-1.57,-1.58,-1.58
330.87,1.47,3.02,1.47,3.02,-3.02,-2.70,-1.07,-1.56,-1.56,-1.56
334.18,1.53,3.05,1.53,3.07,-3.07,-2.72,-1.09,-1.55,-1.54,-1.53
337.52,1.61,3.11,1.60,3.11,-3.11,-2.74,-1.11,-1.51,-1.52,-1.51
340.90,1.66,3.14,1.66,3.15,-3.15,-2.76,-1.14,-1.49,-1.49,-1.49
344.30,1.73,3.18,1.72,3.18,-3.17,-2.77,-1.16,-1.45,-1.45,-1.46
347.75,1.76,3.19,1.76,3.19,-3.18,-2.79,-1.19,-1.43,-1.43,-1.44
351.23,1.79,3.19,1.79,3.20,-3.19,-2.80,-1.21,-1.40,-1.40,-1.41
354.74,1.81,3.18,1.80,3.19,-3.19,-2.80,-1.24,-1.38,-1.38,-1.38
358.28,1.82,3.18,1.81,3.17,-3.17,-2.81,-1.27,-1.36,-1.36,-1.37
361.87,1.81,3.14,1.81,3.15,-3.15,-2.81,-1.30,-1.35,-1.34,-1.34
365.49,1.80,3.10,1.80,3.12,-3.12,-2.81,-1.33,-1.32,-1.32,-1.31
369.14,1.79,3.08,1.79,3.08,-3.08,-2.81,-1.36,-1.30,-1.29,-1.30
372.83,1.78,3.04,1.77,3.04,-3.03,-2.81,-1.39,-1.26,-1.26,-1.27
376.56,1.75,2.99,1.74,2.99,-2.98,-2.80,-1.43,-1.24,-1.24,-1.25
380.33,1.71,2.92,1.70,2.93,-2.92,-2.79,-1.46,-1.22,-1.22,-1.22
384.13,1.66,2.86,1.66,2.86,-2.86,-2.78,-1.50,-1.20,-1.20,-1.21
387.97,1.61,2.79,1.61,2.80,-2.79,-2.77,-1.53,-1.19,-1.19,-1.19
391.85,1.56,2.73,1.55,2.73,-2.73,-2.76,-1.57,-1.17,-1.18,-1.18
395.77,1.51,2.65,1.50,2.66,-2.67,-2.74,-1.61,-1.17,-1.17,-1.15
399.73,1.46,2.59,1.46,2.60,-2.62,-2.73,-1.65,-1.16,-1.16,-1.14
403.72,1.42,2.55,1.42,2.55,-2.57,-2.71,-1.68,-1.16,-1.15,-1.14
407.76,1.40,2.52,1.39,2.52,-2.53,-2.69,-1.72,-1.14,-1.14,-1.13
411.84,1.38,2.49,1.37,2.50,-2.50,-2.67,-1.76,-1.12,-1.12,-1.12
415.96,1.36,2.48,1.35,2.48,-2.46,-2.64,-1.80,-1.11,-1.11,-1.13
420.12,1.33,2.45,1.32,2.45,-2.43,-2.62,-1.84,-1.11,-1.11,-1.13
424.32,1.29,2.41,1.29,2.42,-2.41,-2.59,-1.88,-1.12,-1.12,-1.13
428.56,1.25,2.37,1.25,2.38,-2.38,-2.57,-1.92,-1.13,-1.13,-1.13
432.85,1.21,2.34,1.20,2.34,-2.34,-2.54,-1.95,-1.14,-1.14,-1.14
