frequency,raw,error,smoothed,error_smoothed,equalization,parametric_eq,fixed_band_eq,equalized_raw,equalized_smoothed,target
20.00,2.63,-1.28,2.63,-1.28,1.29,0.67,0.02,3.92,3.92,3.91
20.20,2.66,-1.28,2.65,-1.29,1.29,0.65,0.02,3.95,3.94,3.94
20.40,2.67,-1.30,2.68,-1.29,1.29,0.64,0.02,3.96,3.96,3.97
20.61,2.70,-1.29,2.70,-1.29,1.28,0.63,0.02,3.98,3.99,3.99
20.81,2.75,-1.27,2.74,-1.28,1.28,0.61,0.02,4.02,4.01,4.02
21.02,2.78,-1.27,2.78,-1.27,1.26,0.60,0.01,4.04,4.04,4.05
21.23,2.81,-1.25,2.81,-1.25,1.25,0.59,0.01,4.06,4.06,4.06
21.44,2.84,-1.23,2.84,-1.23,1.23,0.58,0.01,4.07,4.07,4.07
21.66,2.87,-1.21,2.87,-1.21,1.21,0.57,0.01,4.08,4.08,4.08
21.87,2.90,-1.18,2.90,-1.19,1.19,0.56,0.01,4.08,4.08,4.08
22.09,2.93,-1.16,2.93,-1.16,1.16,0.54,0.01,4.09,4.09,4.09
22.31,2.96,-1.13,2.96,-1.13,1.13,0.53,0.01,4.09,4.09,4.09
22.54,2.99,-1.10,2.99,-1.10,1.10,0.52,0.00,4.09,4.09,4.09
22.76,3.02,-1.07,3.02,-1.07,1.07,0.52,0.00,4.09,4.09,4.09
22.99,3.05,-1.03,3.05,-1.04,1.04,0.51,0.00,4.08,4.08,4.08
23.22,3.08,-1.00,3.08,-1.00,1.01,0.50,-0.00,4.08,4.08,4.08
23.45,3.11,-0.97,3.11,-0.97,0.97,0.49,-0.00,4.08,4.08,4.08
23.69,3.14,-0.94,3.14,-0.94,0.94,0.48,-0.00,4.08,4.08,4.08
23.92,3.17,-0.91,3.17,-0.91,0.91,0.47,-0.01,4.08,4.08,4.08
24.16,3.20,-0.88,3.20,-0.88,0.88,0.47,-0.01,4.08,4.08,4.08
24.40,3.22,-0.86,3.22,-0.85,0.85,0.46,-0.01,4.07,4.08,4.08
24.65,3.26,-0.81,3.25,-0.82,0.83,0.45,-0.01,4.08,4.08,4.07
24.89,3.27,-0.80,3.27,-0.80,0.80,0.45,-0.01,4.07,4.07,4.07
25.14,3.31,-0.76,3.30,-0.77,0.77,0.44,-0.01,4.08,4.07,4.07
25.39,3.31,-0.76,3.32,-0.75,0.75,0.43,-0.01,4.05,4.06,4.07
25.65,3.35,-0.72,3.34,-0.72,0.72,0.43,-0.01,4.07,4.07,4.07
25.91,3.37,-0.69,3.37,-0.70,0.70,0.42,-0.01,4.06,4.06,4.06
26.16,3.40,-0.66,3.39,-0.67,0.67,0.42,-0.01,4.07,4.07,4.06
26.43,3.41,-0.65,3.41,-0.65,0.65,0.42,-0.01,4.06,4.06,4.06
26.69,3.44,-0.62,3.43,-0.62,0.63,0.41,-0.01,4.06,4.06,4.06
26.96,3.45,-0.61,3.45,-0.61,0.60,0.41,-0.00,4.05,4.05,4.06
27.23,3.48,-0.57,3.47,-0.58,0.58,0.40,0.00,4.05,4.05,4.05
27.50,3.48,-0.57,3.49,-0.56,0.55,0.40,0.01,4.03,4.05,4.05
27.77,3.53,-0.51,3.51,-0.53,0.53,0.40,0.01,4.06,4.04,4.04
28.05,3.53,-0.51,3.53,-0.50,0.51,0.40,0.02,4.04,4.04,4.04
28.33,3.55,-0.48,3.55,-0.48,0.49,0.39,0.02,4.03,4.03,4.03
28.62,3.57,-0.46,3.56,-0.47,0.47,0.39,0.03,4.03,4.03,4.03
28.90,3.57,-0.46,3.58,-0.44,0.45,0.39,0.04,4.02,4.03,4.03
29.19,3.61,-0.41,3.60,-0.43,0.43,0.39,0.05,4.04,4.03,4.02
29.48,3.61,-0.41,3.60,-0.41,0.41,0.39,0.06,4.02,4.02,4.02
29.78,3.61,-0.40,3.61,-0.40,0.40,0.39,0.08,4.00,4.01,4.01
30.08,3.61,-0.40,3.61,-0.39,0.38,0.39,0.09,3.99,4.00,4.01
30.38,3.63,-0.37,3.63,-0.37,0.37,0.39,0.11,3.99,4.00,4.00
30.68,3.66,-0.34,3.65,-0.35,0.35,0.39,0.13,4.01,4.00,4.00
30.99,3.66,-0.33,3.66,-0.33,0.34,0.39,0.15,4.00,4.00,3.99
31.30,3.66,-0.32,3.66,-0.32,0.33,0.39,0.17,3.99,3.99,3.98
31.61,3.66,-0.32,3.66,-0.32,0.32,0.39,0.19,3.97,3.97,3.98
31.93,3.66,-0.31,3.66,-0.31,0.31,0.39,0.21,3.96,3.96,3.97
32.24,3.66,-0.30,3.66,-0.31,0.30,0.39,0.24,3.96,3.96,3.96
32.57,3.66,-0.30,3.66,-0.30,0.30,0.39,0.27,3.95,3.95,3.96
32.89,3.66,-0.29,3.66,-0.29,0.30,0.40,0.30,3.95,3.96,3.95
33.22,3.66,-0.28,3.66,-0.29,0.30,0.40,0.33,3.95,3.95,3.94
33.55,3.66,-0.28,3.65,-0.29,0.29,0.40,0.36,3.95,3.94,3.94
33.89,3.63,-0.30,3.63,-0.30,0.29,0.41,0.40,3.92,3.92,3.93
34.23,3.61,-0.31,3.61,-0.31,0.29,0.41,0.43,3.90,3.91,3.92
34.57,3.61,-0.30,3.61,-0.30,0.30,0.42,0.47,3.90,3.90,3.91
34.92,3.61,-0.29,3.60,-0.30,0.30,0.42,0.51,3.90,3.90,3.90
35.27,3.61,-0.28,3.59,-0.30,0.30,0.43,0.55,3.91,3.89,3.89
35.62,3.57,-0.31,3.58,-0.30,0.30,0.43,0.59,3.87,3.89,3.88
35.97,3.57,-0.30,3.57,-0.30,0.30,0.44,0.63,3.87,3.87,3.87
36.33,3.57,-0.29,3.55,-0.31,0.31,0.44,0.68,3.87,3.86,3.86
36.70,3.53,-0.32,3.54,-0.30,0.31,0.45,0.72,3.84,3.85,3.85
37.06,3.53,-0.31,3.53,-0.31,0.31,0.46,0.77,3.84,3.84,3.84
37.43,3.53,-0.30,3.51,-0.32,0.32,0.47,0.82,3.85,3.83,3.83
37.81,3.48,-0.34,3.50,-0.32,0.32,0.48,0.87,3.80,3.82,3.82
38.19,3.48,-0.33,3.48,-0.33,0.33,0.48,0.92,3.80,3.81,3.81
38.57,3.48,-0.32,3.46,-0.34,0.33,0.49,0.98,3.81,3.79,3.80
38.95,3.44,-0.35,3.45,-0.33,0.33,0.50,1.03,3.77,3.79,3.79
39.34,3.44,-0.33,3.43,-0.34,0.34,0.52,1.09,3.78,3.77,3.77
39.74,3.42,-0.34,3.42,-0.34,0.34,0.53,1.14,3.76,3.76,3.76
40.14,3.40,-0.35,3.40,-0.35,0.35,0.54,1.20,3.75,3.76,3.75
40.54,3.40,-0.34,3.38,-0.36,0.36,0.55,1.26,3.76,3.74,3.74
40.94,3.35,-0.38,3.36,-0.37,0.37,0.57,1.32,3.72,3.73,3.73
41.35,3.34,-0.38,3.33,-0.39,0.39,0.58,1.38,3.72,3.72,3.72
41.76,3.31,-0.40,3.30,-0.41,0.40,0.60,1.45,3.71,3.70,3.71
42.18,3.28,-0.42,3.28,-0.42,0.42,0.61,1.51,3.69,3.69,3.70
42.60,3.25,-0.44,3.25,-0.44,0.43,0.63,1.58,3.68,3.68,3.69
43.03,3.22,-0.46,3.22,-0.46,0.45,0.65,1.65,3.67,3.67,3.68
43.46,3.19,-0.47,3.18,-0.48,0.48,0.67,1.72,3.67,3.66,3.66
43.90,3.14,-0.50,3.14,-0.50,0.51,0.69,1.79,3.64,3.65,3.64
44.33,3.09,-0.53,3.09,-0.53,0.54,0.71,1.86,3.63,3.63,3.62
44.78,3.03,-0.57,3.03,-0.57,0.58,0.74,1.93,3.61,3.61,3.60
45.23,2.96,-0.62,2.96,-0.63,0.63,0.76,2.01,3.59,3.59,3.58
45.68,2.89,-0.68,2.88,-0.68,0.68,0.79,2.09,3.57,3.57,3.57
46.13,2.80,-0.75,2.81,-0.75,0.74,0.82,2.16,3.54,3.55,3.55
46.60,2.74,-0.80,2.72,-0.81,0.81,0.85,2.24,3.55,3.53,3.54
47.06,2.64,-0.88,2.64,-0.88,0.87,0.88,2.32,3.51,3.52,3.52
47.53,2.56,-0.94,2.56,-0.94,0.94,0.91,2.41,3.50,3.50,3.50
48.01,2.48,-1.01,2.46,-1.02,1.01,0.95,2.49,3.49,3.48,3.49
48.49,2.37,-1.09,2.37,-1.09,1.08,0.99,2.57,3.45,3.45,3.46
48.97,2.27,-1.16,2.28,-1.15,1.15,1.03,2.66,3.42,3.43,3.43
49.46,2.19,-1.21,2.18,-1.22,1.22,1.07,2.74,3.41,3.40,3.40
49.96,2.09,-1.28,2.08,-1.29,1.30,1.11,2.83,3.39,3.38,3.37
50.46,1.98,-1.37,1.98,-1.37,1.37,1.16,2.91,3.35,3.36,3.35
50.96,1.88,-1.45,1.88,-1.45,1.45,1.21,3.00,3.32,3.32,3.33
51.47,1.78,-1.52,1.77,-1.53,1.52,1.27,3.08,3.30,3.29,3.30
51.99,1.67,-1.61,1.67,-1.61,1.59,1.33,3.17,3.26,3.27,3.28
52.51,1.58,-1.68,1.58,-1.68,1.67,1.39,3.25,3.25,3.25,3.26
53.03,1.49,-1.75,1.48,-1.75,1.75,1.46,3.34,3.23,3.23,3.24
53.56,1.39,-1.82,1.40,-1.82,1.82,1.53,3.42,3.21,3.22,3.21
54.10,1.30,-1.89,1.29,-1.89,1.90,1.60,3.50,3.20,3.20,3.19
54.64,1.20,-1.96,1.18,-1.98,1.99,1.68,3.58,3.18,3.17,3.16
55.18,1.05,-2.09,1.06,-2.07,2.07,1.77,3.65,3.12,3.14,3.14
55.74,0.93,-2.18,0.93,-2.18,2.17,1.86,3.72,3.10,3.11,3.11
56.29,0.82,-2.27,0.80,-2.29,2.28,1.96,3.79,3.10,3.08,3.09
56.86,0.67,-2.40,0.67,-2.39,2.40,2.06,3.85,3.07,3.08,3.07
57.42,0.53,-2.51,0.53,-2.52,2.54,2.18,3.91,3.06,3.06,3.04
58.00,0.37,-2.65,0.36,-2.66,2.68,2.30,3.97,3.05,3.04,3.02
58.58,0.18,-2.82,0.18,-2.82,2.83,2.42,4.01,3.01,3.01,3.00
59.16,-0.02,-3.00,-0.02,-3.00,3.00,2.56,4.06,2.97,2.98,2.98
59.76,-0.21,-3.17,-0.22,-3.17,3.17,2.70,4.09,2.95,2.95,2.96
60.35,-0.41,-3.34,-0.42,-3.35,3.34,2.86,4.12,2.92,2.92,2.93
60.96,-0.62,-3.52,-0.62,-3.51,3.51,3.02,4.14,2.89,2.89,2.90
61.57,-0.81,-3.67,-0.82,-3.68,3.68,3.19,4.15,2.86,2.86,2.86
62.18,-1.01,-3.84,-1.01,-3.84,3.84,3.37,4.16,2.82,2.82,2.83
62.80,-1.20,-4.00,-1.20,-3.99,3.99,3.56,4.16,2.79,2.79,2.80
63.43,-1.36,-4.13,-1.37,-4.14,4.13,3.76,4.15,2.77,2.77,2.77
64.07,-1.52,-4.26,-1.53,-4.27,4.27,3.96,4.13,2.74,2.74,2.74
64.71,-1.67,-4.39,-1.68,-4.39,4.39,4.17,4.11,2.72,2.72,2.72
65.35,-1.83,-4.52,-1.83,-4.51,4.51,4.38,4.08,2.68,2.69,2.69
66.01,-1.95,-4.61,-1.96,-4.62,4.62,4.59,4.04,2.67,2.66,2.66
66.67,-2.10,-4.73,-2.09,-4.72,4.73,4.80,4.00,2.62,2.64,2.63
67.33,-2.20,-4.80,-2.21,-4.81,4.82,5.00,3.94,2.62,2.61,2.60
68.01,-2.32,-4.89,-2.33,-4.90,4.91,5.19,3.89,2.59,2.57,2.57
68.69,-2.45,-4.99,-2.44,-4.98,4.98,5.36,3.83,2.53,2.54,2.54
69.37,-2.55,-5.06,-2.55,-5.06,5.05,5.50,3.76,2.49,2.50,2.51
70.07,-2.62,-5.10,-2.63,-5.11,5.09,5.62,3.69,2.47,2.47,2.48
70.77,-2.69,-5.14,-2.70,-5.14,5.13,5.70,3.61,2.44,2.43,2.45
71.48,-2.74,-5.16,-2.75,-5.16,5.15,5.74,3.53,2.41,2.40,2.42
72.19,-2.80,-5.18,-2.79,-5.17,5.16,5.74,3.45,2.36,2.37,2.38
72.91,-2.80,-5.15,-2.81,-5.16,5.16,5.70,3.37,2.36,2.35,2.35
73.64,-2.84,-5.15,-2.84,-5.15,5.16,5.63,3.28,2.31,2.32,2.31
74.38,-2.84,-5.12,-2.86,-5.13,5.15,5.51,3.20,2.31,2.30,2.28
75.12,-2.89,-5.13,-2.89,-5.13,5.15,5.37,3.11,2.26,2.26,2.24
75.87,-2.92,-5.13,-2.92,-5.13,5.15,5.20,3.02,2.23,2.23,2.21
76.63,-2.95,-5.13,-2.96,-5.14,5.16,5.01,2.93,2.21,2.20,2.18
77.40,-3.00,-5.15,-3.00,-5.15,5.16,4.81,2.84,2.16,2.16,2.15
78.17,-3.04,-5.15,-3.05,-5.16,5.16,4.60,2.74,2.12,2.12,2.11
78.95,-3.07,-5.15,-3.08,-5.16,5.15,4.38,2.65,2.07,2.07,2.08
79.74,-3.10,-5.15,-3.09,-5.13,5.11,4.16,2.56,2.01,2.02,2.05
80.54,-3.06,-5.07,-3.07,-5.09,5.05,3.95,2.47,1.99,1.98,2.01
81.35,-3.02,-5.00,-3.02,-4.99,4.97,3.73,2.38,1.94,1.95,1.98
82.16,-2.93,-4.87,-2.92,-4.87,4.85,3.53,2.29,1.92,1.93,1.94
82.98,-2.79,-4.70,-2.80,-4.71,4.70,3.33,2.21,1.91,1.90,1.91
83.81,-2.66,-4.53,-2.66,-4.53,4.53,3.14,2.12,1.87,1.87,1.87
84.65,-2.49,-4.32,-2.50,-4.33,4.33,2.95,2.04,1.83,1.83,1.83
85.50,-2.32,-4.12,-2.32,-4.11,4.11,2.78,1.95,1.78,1.79,1.80
86.35,-2.12,-3.88,-2.11,-3.87,3.87,2.61,1.87,1.75,1.76,1.76
87.22,-1.89,-3.61,-1.90,-3.62,3.63,2.46,1.79,1.74,1.73,1.72
88.09,-1.68,-3.36,-1.69,-3.37,3.38,2.31,1.70,1.70,1.69,1.68
88.97,-1.48,-3.12,-1.48,-3.12,3.13,2.16,1.63,1.65,1.65,1.64
89.86,-1.27,-2.87,-1.28,-2.88,2.88,2.03,1.55,1.61,1.60,1.60
90.76,-1.08,-2.63,-1.08,-2.63,2.63,1.90,1.47,1.55,1.55,1.55
91.66,-0.88,-2.39,-0.88,-2.39,2.39,1.78,1.39,1.51,1.51,1.51
92.58,-0.68,-2.14,-0.69,-2.15,2.16,1.66,1.32,1.47,1.47,1.46
93.51,-0.50,-1.92,-0.50,-1.92,1.93,1.55,1.25,1.42,1.42,1.42
94.44,-0.33,-1.71,-0.33,-1.71,1.71,1.44,1.18,1.38,1.38,1.38
95.39,-0.17,-1.50,-0.17,-1.50,1.50,1.33,1.11,1.32,1.33,1.33
96.34,-0.01,-1.29,-0.01,-1.29,1.29,1.23,1.04,1.28,1.28,1.28
97.30,0.14,-1.09,0.14,-1.09,1.10,1.13,0.97,1.23,1.23,1.23
98.28,0.29,-0.89,0.28,-0.90,0.91,1.03,0.90,1.20,1.19,1.18
99.26,0.40,-0.74,0.40,-0.73,0.73,0.94,0.84,1.13,1.13,1.14
100.25,0.53,-0.56,0.52,-0.57,0.56,0.84,0.77,1.09,1.08,1.09
101.25,0.63,-0.41,0.64,-0.40,0.40,0.75,0.71,1.03,1.04,1.04
102.27,0.76,-0.23,0.75,-0.24,0.24,0.65,0.65,1.00,0.99,0.99
103.29,0.86,-0.08,0.84,-0.10,0.10,0.55,0.59,0.96,0.94,0.94
104.32,0.92,0.02,0.93,0.04,-0.04,0.45,0.53,0.88,0.90,0.90
105.37,1.02,0.17,1.01,0.17,-0.17,0.35,0.48,0.85,0.85,0.85
106.42,1.09,0.29,1.08,0.28,-0.28,0.24,0.42,0.80,0.80,0.80
107.48,1.16,0.41,1.15,0.40,-0.40,0.13,0.37,0.76,0.75,0.75
108.56,1.19,0.49,1.20,0.50,-0.50,0.01,0.32,0.69,0.70,0.70
109.64,1.25,0.60,1.24,0.59,-0.59,-0.11,0.27,0.65,0.65,0.65
110.74,1.28,0.68,1.28,0.68,-0.68,-0.24,0.22,0.59,0.60,0.60
111.85,1.32,0.77,1.31,0.76,-0.76,-0.38,0.18,0.55,0.54,0.55
112.97,1.32,0.83,1.33,0.83,-0.84,-0.52,0.14,0.48,0.49,0.49
114.10,1.34,0.90,1.34,0.91,-0.90,-0.67,0.10,0.43,0.44,0.44
115.24,1.36,0.98,1.35,0.97,-0.96,-0.81,0.06,0.39,0.38,0.38
116.39,1.36,1.03,1.35,1.02,-1.02,-0.96,0.02,0.34,0.33,0.33
117.55,1.33,1.06,1.34,1.07,-1.06,-1.09,-0.01,0.26,0.28,0.27
118.73,1.32,1.10,1.32,1.10,-1.10,-1.21,-0.04,0.22,0.22,0.22
119.92,1.31,1.14,1.30,1.13,-1.13,-1.30,-0.06,0.17,0.16,0.17
121.12,1.27,1.15,1.28,1.16,-1.16,-1.37,-0.09,0.11,0.12,0.12
122.33,1.25,1.18,1.24,1.17,-1.18,-1.40,-0.11,0.07,0.07,0.07
123.55,1.21,1.19,1.21,1.19,-1.19,-1.40,-0.13,0.02,0.02,0.02
124.79,1.17,1.20,1.17,1.20,-1.20,-1.37,-0.14,-0.03,-0.03,-0.03
126.03,1.12,1.20,1.12,1.20,-1.20,-1.31,-0.15,-0.09,-0.09,-0.08
127.29,1.06,1.19,1.06,1.19,-1.20,-1.22,-0.16,-0.14,-0.14,-0.13
128.57,1.00,1.19,1.00,1.18,-1.19,-1.12,-0.17,-0.19,-0.19,-0.19
129.85,0.92,1.16,0.92,1.17,-1.16,-1.01,-0.17,-0.25,-0.24,-0.24
131.15,0.86,1.15,0.85,1.14,-1.13,-0.90,-0.17,-0.27,-0.28,-0.29
132.46,0.75,1.09,0.75,1.09,-1.08,-0.79,-0.17,-0.33,-0.33,-0.34
133.79,0.65,1.03,0.64,1.02,-1.01,-0.68,-0.17,-0.37,-0.37,-0.38
135.12,0.51,0.94,0.51,0.94,-0.93,-0.58,-0.16,-0.43,-0.42,-0.43
136.48,0.38,0.85,0.38,0.85,-0.84,-0.49,-0.15,-0.46,-0.47,-0.47
137.84,0.23,0.75,0.22,0.75,-0.74,-0.41,-0.14,-0.51,-0.51,-0.52
139.22,0.07,0.64,0.07,0.64,-0.63,-0.33,-0.13,-0.56,-0.56,-0.57
140.61,-0.09,0.52,-0.09,0.52,-0.51,-0.26,-0.11,-0.61,-0.60,-0.61
142.02,-0.24,0.40,-0.25,0.40,-0.40,-0.19,-0.09,-0.65,-0.65,-0.64
143.44,-0.40,0.28,-0.40,0.28,-0.30,-0.13,-0.07,-0.71,-0.70,-0.68
144.87,-0.53,0.19,-0.53,0.19,-0.21,-0.08,-0.05,-0.75,-0.75,-0.72
146.32,-0.65,0.11,-0.65,0.11,-0.14,-0.03,-0.03,-0.79,-0.79,-0.76
147.78,-0.73,0.06,-0.74,0.06,-0.08,0.02,-0.01,-0.81,-0.81,-0.79
149.26,-0.82,0.01,-0.81,0.02,-0.03,0.06,0.02,-0.85,-0.84,-0.83
150.75,-0.87,-0.00,-0.88,-0.01,0.02,0.10,0.05,-0.86,-0.87,-0.87
152.26,-0.95,-0.04,-0.95,-0.04,0.05,0.14,0.07,-0.90,-0.90,-0.91
153.78,-1.02,-0.07,-1.03,-0.08,0.09,0.18,0.10,-0.93,-0.93,-0.95
155.32,-1.11,-0.12,-1.11,-0.12,0.14,0.22,0.13,-0.98,-0.98,-0.99
156.88,-1.21,-0.18,-1.21,-0.18,0.19,0.25,0.16,-1.02,-1.02,-1.03
158.44,-1.31,-0.24,-1.32,-0.25,0.25,0.29,0.19,-1.06,-1.06,-1.07
160.03,-1.43,-0.32,-1.44,-0.33,0.33,0.32,0.22,-1.10,-1.11,-1.11
161.63,-1.57,-0.42,-1.56,-0.41,0.42,0.36,0.26,-1.16,-1.15,-1.15
163.24,-1.69,-0.50,-1.70,-0.51,0.51,0.40,0.29,-1.18,-1.19,-1.19
164.88,-1.83,-0.61,-1.84,-0.61,0.61,0.44,0.32,-1.22,-1.23,-1.22
166.53,-1.98,-0.72,-1.98,-0.72,0.72,0.48,0.36,-1.27,-1.26,-1.26
168.19,-2.13,-0.83,-2.13,-0.83,0.83,0.52,0.39,-1.31,-1.31,-1.30
169.87,-2.28,-0.94,-2.28,-0.94,0.94,0.57,0.42,-1.35,-1.34,-1.34
171.57,-2.42,-1.04,-2.43,-1.05,1.05,0.62,0.46,-1.38,-1.38,-1.38
173.29,-2.57,-1.16,-2.57,-1.16,1.16,0.67,0.50,-1.41,-1.41,-1.41
175.02,-2.72,-1.27,-2.72,-1.27,1.27,0.73,0.53,-1.45,-1.45,-1.45
176.77,-2.86,-1.37,-2.87,-1.38,1.38,0.79,0.57,-1.48,-1.49,-1.49
178.54,-3.03,-1.50,-3.02,-1.49,1.50,0.86,0.61,-1.54,-1.53,-1.53
180.32,-3.17,-1.60,-3.17,-1.61,1.60,0.94,0.64,-1.57,-1.57,-1.57
182.13,-3.31,-1.71,-3.32,-1.71,1.71,1.03,0.68,-1.60,-1.61,-1.60
183.95,-3.46,-1.82,-3.45,-1.82,1.82,1.12,0.72,-1.65,-1.64,-1.64
185.79,-3.58,-1.91,-3.59,-1.92,1.92,1.22,0.76,-1.67,-1.68,-1.67
187.65,-3.72,-2.01,-3.72,-2.01,2.01,1.33,0.80,-1.71,-1.71,-1.71
189.52,-3.84,-2.10,-3.84,-2.10,2.10,1.45,0.84,-1.75,-1.74,-1.74
191.42,-3.95,-2.18,-3.95,-2.18,2.18,1.59,0.87,-1.77,-1.78,-1.77
193.33,-4.05,-2.25,-4.06,-2.26,2.26,1.73,0.91,-1.80,-1.80,-1.80
195.27,-4.16,-2.33,-4.16,-2.33,2.33,1.88,0.95,-1.84,-1.83,-1.83
197.22,-4.24,-2.38,-4.25,-2.39,2.39,2.04,0.99,-1.85,-1.86,-1.86
199.19,-4.34,-2.45,-4.33,-2.45,2.45,2.20,1.03,-1.89,-1.88,-1.89
201.18,-4.40,-2.49,-4.41,-2.50,2.50,2.35,1.07,-1.90,-1.90,-1.91
203.19,-4.47,-2.54,-4.48,-2.54,2.55,2.49,1.11,-1.92,-1.93,-1.93
205.23,-4.53,-2.58,-4.53,-2.59,2.59,2.62,1.15,-1.95,-1.95,-1.95
207.28,-4.58,-2.62,-4.58,-2.62,2.61,2.71,1.19,-1.97,-1.97,-1.96
209.35,-4.61,-2.63,-4.61,-2.63,2.63,2.77,1.23,-1.98,-1.98,-1.98
211.44,-4.62,-2.62,-4.63,-2.63,2.63,2.78,1.26,-2.00,-2.00,-2.00
213.56,-4.62,-2.61,-4.63,-2.62,2.61,2.75,1.30,-2.01,-2.02,-2.01
215.69,-4.62,-2.61,-4.61,-2.59,2.58,2.68,1.33,-2.05,-2.03,-2.01
217.85,-4.56,-2.54,-4.57,-2.54,2.53,2.58,1.37,-2.04,-2.04,-2.02
220.03,-4.50,-2.47,-4.50,-2.47,2.46,2.45,1.40,-2.04,-2.04,-2.03
222.23,-4.41,-2.37,-4.42,-2.38,2.38,2.30,1.43,-2.03,-2.03,-2.04
224.45,-4.33,-2.29,-4.33,-2.29,2.30,2.15,1.46,-2.03,-2.03,-2.04
226.70,-4.23,-2.19,-4.24,-2.20,2.21,1.99,1.48,-2.02,-2.03,-2.04
228.96,-4.15,-2.11,-4.15,-2.11,2.11,1.83,1.51,-2.04,-2.03,-2.04
231.25,-4.05,-2.02,-4.05,-2.01,2.02,1.68,1.53,-2.03,-2.03,-2.03
233.57,-3.94,-1.91,-3.96,-1.92,1.93,1.55,1.55,-2.01,-2.03,-2.03
235.90,-3.86,-1.83,-3.86,-1.84,1.84,1.42,1.56,-2.02,-2.02,-2.03
238.26,-3.78,-1.76,-3.77,-1.75,1.75,1.30,1.58,-2.03,-2.02,-2.02
240.64,-3.68,-1.67,-3.68,-1.67,1.67,1.19,1.59,-2.02,-2.02,-2.01
243.05,-3.58,-1.58,-3.59,-1.59,1.58,1.10,1.59,-2.00,-2.00,-2.00
245.48,-3.49,-1.50,-3.49,-1.50,1.50,1.01,1.60,-1.99,-1.99,-1.99
247.93,-3.39,-1.41,-3.40,-1.42,1.42,0.93,1.60,-1.98,-1.98,-1.98
250.41,-3.31,-1.34,-3.30,-1.34,1.34,0.86,1.60,-1.98,-1.96,-1.97
252.92,-3.20,-1.25,-3.21,-1.25,1.26,0.79,1.59,-1.95,-1.95,-1.95
255.45,-3.10,-1.17,-3.11,-1.18,1.18,0.73,1.58,-1.92,-1.93,-1.93
258.00,-3.02,-1.10,-3.02,-1.10,1.10,0.68,1.57,-1.92,-1.92,-1.92
260.58,-2.93,-1.03,-2.93,-1.03,1.03,0.63,1.55,-1.91,-1.90,-1.90
263.19,-2.83,-0.95,-2.84,-0.95,0.95,0.59,1.53,-1.88,-1.88,-1.88
265.82,-2.73,-0.87,-2.74,-0.88,0.88,0.55,1.51,-1.86,-1.87,-1.86
268.48,-2.65,-0.81,-2.65,-0.81,0.80,0.52,1.48,-1.85,-1.85,-1.84
271.16,-2.55,-0.73,-2.55,-0.73,0.72,0.48,1.45,-1.83,-1.83,-1.82
273.87,-2.44,-0.64,-2.45,-0.65,0.64,0.45,1.42,-1.80,-1.80,-1.80
276.61,-2.34,-0.56,-2.35,-0.56,0.57,0.43,1.39,-1.78,-1.78,-1.78
279.38,-2.24,-0.48,-2.25,-0.49,0.49,0.40,1.35,-1.75,-1.76,-1.76
282.17,-2.16,-0.42,-2.15,-0.41,0.41,0.38,1.31,-1.75,-1.74,-1.74
284.99,-2.05,-0.33,-2.06,-0.34,0.34,0.36,1.27,-1.71,-1.72,-1.72
287.84,-1.96,-0.26,-1.97,-0.27,0.27,0.34,1.23,-1.69,-1.70,-1.70
290.72,-1.89,-0.21,-1.88,-0.20,0.21,0.32,1.19,-1.69,-1.68,-1.68
293.63,-1.80,-0.14,-1.81,-0.15,0.15,0.30,1.14,-1.66,-1.66,-1.66
296.57,-1.73,-0.09,-1.73,-0.09,0.09,0.29,1.10,-1.64,-1.64,-1.64
299.53,-1.65,-0.03,-1.66,-0.04,0.04,0.27,1.05,-1.61,-1.62,-1.62
302.53,-1.59,0.01,-1.59,0.01,-0.01,0.26,1.00,-1.60,-1.60,-1.60
305.55,-1.52,0.05,-1.52,0.05,-0.05,0.25,0.96,-1.57,-1.57,-1.57
308.61,-1.45,0.10,-1.46,0.09,-0.09,0.24,0.91,-1.54,-1.55,-1.55
311.69,-1.39,0.13,-1.39,0.13,-0.13,0.22,0.86,-1.52,-1.52,-1.52
314.81,-1.33,0.16,-1.33,0.17,-0.17,0.21,0.81,-1.50,-1.49,-1.49
317.96,-1.26,0.21,-1.28,0.19,-0.20,0.20,0.76,-1.46,-1.48,-1.47
321.14,-1.22,0.23,-1.22,0.23,-0.24,0.20,0.71,-1.46,-1.45,-1.45
324.35,-1.17,0.26,-1.16,0.27,-0.27,0.19,0.66,-1.44,-1.43,-1.43
327.59,-1.09,0.32,-1.11,0.30,-0.31,0.18,0.61,-1.40,-1.41,-1.41
330.87,-1.05,0.34,-1.05,0.34,-0.34,0.17,0.56,-1.39,-1.39,-1.39
334.18,-1.00,0.37,-1.00,0.38,-0.37,0.16,0.51,-1.37,-1.37,-1.37
337.52,-0.94,0.41,-0.95,0.40,-0.40,0.16,0.46,-1.35,-1.35,-1.35
340.90,-0.89,0.44,-0.90,0.43,-0.43,0.15,0.41,-1.32,-1.33,-1.33
344.30,-0.85,0.46,-0.85,0.46,-0.46,0.15,0.36,-1.31,-1.31,-1.31
347.75,-0.81,0.48,-0.81,0.48,-0.48,0.14,0.31,-1.29,-1.29,-1.29
351.23,-0.76,0.51,-0.77,0.50,-0.50,0.13,0.26,-1.27,-1.27,-1.27
354.74,-0.73,0.52,-0.73,0.52,-0.52,0.13,0.21,-1.26,-1.26,-1.25
358.28,-0.70,0.54,-0.70,0.54,-0.54,0.12,0.16,-1.24,-1.24,-1.24
361.87,-0.66,0.56,-0.66,0.56,-0.56,0.12,0.11,-1.22,-1.22,-1.22
365.49,-0.62,0.58,-0.63,0.58,-0.58,0.12,0.06,-1.20,-1.20,-1.20
369.14,-0.59,0.60,-0.59,0.60,-0.59,0.11,0.01,-1.19,-1.19,-1.19
372.83,-0.56,0.61,-0.56,0.61,-0.61,0.11,-0.04,-1.17,-1.17,-1.17
376.56,-0.53,0.63,-0.53,0.63,-0.63,0.10,-0.09,-1.16,-1.16,-1.16
380.33,-0.50,0.64,-0.51,0.64,-0.64,0.10,-0.13,-1.14,-1.15,-1.14
384.13,-0.47,0.66,-0.48,0.65,-0.65,0.10,-0.18,-1.13,-1.13,-1.13
387.97,-0.46,0.66,-0.45,0.67,-0.67,0.09,-0.23,-1.13,-1.12,-1.12
391.85,-0.42,0.69,-0.43,0.68,-0.68,0.09,-0.28,-1.10,-1.10,-1.11
395.77,-0.40,0.69,-0.40,0.69,-0.69,0.09,-0.32,-1.09,-1.09,-1.09
399.73,-0.37,0.71,-0.38,0.70,-0.70,0.08,-0.37,-1.07,-1.08,-1.08
403.72,-0.37,0.70,-0.36,0.71,-0.71,0.08,-0.42,-1.08,-1.07,-1.07
407.76,-0.33,0.73,-0.34,0.72,-0.72,0.08,-0.46,-1.05,-1.06,-1.06
411.84,-0.33,0.72,-0.32,0.73,-0.73,0.07,-0.51,-1.06,-1.05,-1.05
415.96,-0.29,0.75,-0.31,0.73,-0.73,0.07,-0.55,-1.03,-1.04,-1.04
420.12,-0.29,0.74,-0.29,0.74,-0.74,0.07,-0.59,-1.03,-1.03,-1.03
424.32,-0.29,0.73,-0.27,0.75,-0.75,0.07,-0.64,-1.04,-1.02,-1.02
428.56,-0.24,0.77,-0.26,0.75,-0.75,0.07,-0.68,-0.99,-1.01,-1.01
432.85,-0.24,0.76,-0.24,0.76,-0.75,0.06,-0.72,-1.00,-1.00,-1.00
437.18,-0.24,0.75,-0.23,0.76,-0.76,0.06,-0.76,-1.00,-0.98,-0.99
441.55,-0.20,0.77,-0.22,0.75,-0.76,0.06,-0.79,-0.96,-0.98,-0.97
445.96,-0.20,0.76,-0.20,0.76,-0.76,0.06,-0.83,-0.96,-0.96,-0.96
450.42,-0.20,0.75,-0.19,0.76,-0.76,0.05,-0.86,-0.96,-0.95,-0.95
454.93,-0.16,0.77,-0.18,0.75,-0.76,0.05,-0.90,-0.92,-0.94,-0.93
459.48,-0.16,0.76,-0.16,0.76,-0.76,0.05,-0.93,-0.92,-0.92,-0.92
464.07,-0.16,0.75,-0.14,0.76,-0.76,0.05,-0.95,-0.92,-0.90,-0.91
468.71,-0.11,0.78,-0.13,0.76,-0.76,0.05,-0.98,-0.87,-0.89,-0.89
473.40,-0.11,0.77,-0.11,0.77,-0.76,0.05,-1.00,-0.87,-0.87,-0.88
478.13,-0.11,0.75,-0.10,0.77,-0.76,0.04,-1.03,-0.87,-0.86,-0.86
482.91,-0.07,0.78,-0.09,0.76,-0.76,0.04,-1.04,-0.84,-0.85,-0.85
487.74,-0.07,0.76,-0.07,0.76,-0.76,0.04,-1.06,-0.84,-0.83,-0.83
492.62,-0.06,0.75,-0.06,0.76,-0.77,0.04,-1.07,-0.83,-0.82,-0.81
497.55,-0.03,0.77,-0.04,0.76,-0.77,0.04,-1.08,-0.80,-0.81,-0.80
502.52,-0.03,0.75,-0.02,0.77,-0.76,0.04,-1.09,-0.80,-0.78,-0.78
507.55,0.02,0.79,0.00,0.77,-0.76,0.04,-1.10,-0.75,-0.76,-0.77
