frequency,raw,error,smoothed,error_smoothed,equalization,parametric_eq,fixed_band_eq,equalized_raw,equalized_smoothed,target
20.00,-6.83,-10.92,-6.75,-10.86,10.86,10.13,3.06,4.03,4.11,4.09
20.20,-6.66,-10.79,-6.62,-10.76,10.76,10.11,3.15,4.10,4.14,4.13
20.40,-6.49,-10.65,-6.49,-10.66,10.66,10.08,3.24,4.17,4.17,4.16
20.61,-6.32,-10.51,-6.36,-10.56,10.56,10.04,3.33,4.23,4.20,4.19
20.81,-6.14,-10.37,-6.23,-10.45,10.45,9.98,3.43,4.32,4.22,4.23
21.02,-5.98,-10.25,-6.11,-10.35,10.35,9.92,3.53,4.37,4.24,4.27
21.23,-5.92,-10.20,-5.98,-10.25,10.25,9.86,3.63,4.33,4.27,4.28
21.44,-5.85,-10.15,-5.86,-10.15,10.15,9.78,3.74,4.30,4.29,4.30
21.66,-5.78,-10.10,-5.74,-10.04,10.04,9.70,3.84,4.26,4.30,4.32
21.87,-5.72,-10.05,-5.62,-9.94,9.94,9.61,3.95,4.22,4.32,4.33
22.09,-5.61,-9.95,-5.50,-9.83,9.83,9.52,4.07,4.23,4.34,4.34
22.31,-5.45,-9.79,-5.38,-9.73,9.73,9.42,4.18,4.28,4.35,4.34
22.54,-5.30,-9.65,-5.27,-9.63,9.63,9.31,4.30,4.33,4.36,4.35
22.76,-5.14,-9.50,-5.16,-9.53,9.53,9.20,4.43,4.39,4.37,4.36
22.99,-4.98,-9.34,-5.06,-9.43,9.43,9.09,4.55,4.45,4.38,4.36
23.22,-4.88,-9.25,-4.95,-9.33,9.33,8.97,4.68,4.45,4.38,4.37
23.45,-4.78,-9.16,-4.83,-9.22,9.22,8.85,4.82,4.44,4.39,4.38
23.69,-4.69,-9.08,-4.71,-9.10,9.10,8.73,4.95,4.41,4.39,4.39
23.92,-4.59,-8.99,-4.59,-8.99,8.99,8.60,5.09,4.40,4.40,4.40
24.16,-4.49,-8.90,-4.48,-8.88,8.88,8.47,5.23,4.39,4.40,4.41
24.40,-4.39,-8.81,-4.36,-8.77,8.77,8.34,5.38,4.38,4.40,4.42
24.65,-4.29,-8.70,-4.26,-8.66,8.66,8.21,5.52,4.37,4.41,4.41
24.89,-4.18,-8.59,-4.15,-8.56,8.56,8.08,5.67,4.39,4.41,4.41
25.14,-4.07,-8.48,-4.05,-8.46,8.46,7.95,5.82,4.39,4.41,4.41
25.39,-3.94,-8.35,-3.94,-8.35,8.35,7.82,5.97,4.42,4.41,4.41
25.65,-3.82,-8.23,-3.83,-8.24,8.24,7.69,6.12,4.42,4.41,4.41
25.91,-3.70,-8.09,-3.71,-8.12,8.12,7.56,6.28,4.41,4.41,4.39
26.16,-3.58,-7.98,-3.59,-8.00,8.00,7.43,6.43,4.42,4.41,4.40
26.43,-3.48,-7.88,-3.47,-7.88,7.88,7.30,6.59,4.39,4.40,4.40
26.69,-3.37,-7.77,-3.36,-7.76,7.76,7.17,6.74,4.39,4.40,4.40
26.96,-3.27,-7.67,-3.25,-7.64,7.64,7.04,6.89,4.37,4.40,4.40
27.23,-3.14,-7.54,-3.13,-7.53,7.53,6.92,7.03,4.39,4.40,4.40
27.50,-3.00,-7.40,-3.02,-7.42,7.42,6.79,7.18,4.42,4.39,4.40
27.77,-2.86,-7.25,-2.91,-7.31,7.31,6.67,7.32,4.45,4.39,4.39
28.05,-2.74,-7.13,-2.80,-7.19,7.19,6.54,7.45,4.45,4.39,4.39
28.33,-2.67,-7.04,-2.70,-7.08,7.08,6.42,7.58,4.41,4.39,4.37
28.62,-2.60,-6.98,-2.59,-6.97,6.97,6.30,7.69,4.37,4.39,4.38
28.90,-2.53,-6.91,-2.48,-6.86,6.86,6.19,7.80,4.33,4.38,4.38
29.19,-2.42,-6.79,-2.37,-6.75,6.75,6.07,7.90,4.33,4.38,4.37
29.48,-2.29,-6.67,-2.25,-6.63,6.63,5.96,7.99,4.34,4.38,4.38
29.78,-2.15,-6.53,-2.14,-6.51,6.51,5.84,8.06,4.36,4.37,4.38
30.08,-2.02,-6.40,-2.03,-6.39,6.39,5.73,8.12,4.37,4.37,4.38
30.38,-1.91,-6.27,-1.91,-6.28,6.28,5.62,8.17,4.36,4.36,4.36
30.68,-1.79,-6.15,-1.80,-6.16,6.16,5.51,8.20,4.37,4.36,4.36
30.99,-1.68,-6.03,-1.68,-6.04,6.04,5.41,8.21,4.36,4.35,4.35
31.30,-1.56,-5.91,-1.57,-5.92,5.92,5.30,8.21,4.36,4.35,4.35
31.61,-1.44,-5.79,-1.45,-5.79,5.79,5.20,8.19,4.35,4.35,4.35
31.93,-1.32,-5.65,-1.33,-5.67,5.67,5.10,8.16,4.35,4.34,4.33
32.24,-1.20,-5.52,-1.21,-5.55,5.55,5.00,8.11,4.35,4.33,4.32
32.57,-1.08,-5.40,-1.10,-5.43,5.43,4.91,8.05,4.35,4.33,4.32
32.89,-0.97,-5.29,-0.99,-5.31,5.31,4.81,7.97,4.34,4.32,4.32
33.22,-0.87,-5.19,-0.88,-5.20,5.20,4.72,7.88,4.33,4.32,4.32
33.55,-0.79,-5.10,-0.77,-5.08,5.08,4.63,7.78,4.29,4.31,4.31
33.89,-0.71,-5.02,-0.66,-4.97,4.97,4.54,7.66,4.26,4.31,4.31
34.23,-0.59,-4.90,-0.55,-4.86,4.86,4.45,7.54,4.27,4.30,4.31
34.57,-0.46,-4.76,-0.45,-4.74,4.74,4.36,7.41,4.28,4.30,4.30
34.92,-0.32,-4.61,-0.34,-4.63,4.63,4.28,7.27,4.31,4.29,4.29
35.27,-0.21,-4.50,-0.23,-4.52,4.52,4.19,7.12,4.31,4.29,4.29
35.62,-0.12,-4.40,-0.13,-4.41,4.41,4.11,6.97,4.29,4.28,4.28
35.97,-0.02,-4.29,-0.02,-4.30,4.30,4.03,6.82,4.28,4.28,4.27
36.33,0.07,-4.20,0.07,-4.20,4.20,3.96,6.66,4.27,4.27,4.27
36.70,0.16,-4.11,0.16,-4.11,4.11,3.88,6.50,4.27,4.26,4.27
37.06,0.25,-4.00,0.24,-4.02,4.02,3.80,6.34,4.27,4.26,4.25
37.43,0.35,-3.90,0.33,-3.92,3.92,3.73,6.17,4.28,4.25,4.25
37.81,0.45,-3.79,0.41,-3.83,3.83,3.66,6.01,4.28,4.24,4.24
38.19,0.53,-3.70,0.49,-3.74,3.74,3.59,5.85,4.27,4.24,4.23
38.57,0.60,-3.63,0.58,-3.65,3.65,3.52,5.68,4.25,4.23,4.23
38.95,0.67,-3.55,0.66,-3.57,3.57,3.45,5.52,4.24,4.22,4.22
39.34,0.69,-3.52,0.74,-3.48,3.48,3.39,5.36,4.17,4.22,4.21
39.74,0.70,-3.49,0.82,-3.39,3.39,3.32,5.20,4.09,4.21,4.19
40.14,0.77,-3.43,0.90,-3.30,3.30,3.26,5.05,4.07,4.20,4.20
40.54,0.94,-3.25,0.98,-3.21,3.21,3.20,4.89,4.15,4.19,4.19
40.94,1.12,-3.07,1.06,-3.12,3.12,3.14,4.74,4.24,4.18,4.19
41.35,1.20,-2.97,1.13,-3.04,3.04,3.08,4.59,4.24,4.16,4.17
41.76,1.28,-2.87,1.20,-2.94,2.94,3.02,4.45,4.22,4.15,4.15
42.18,1.33,-2.81,1.28,-2.85,2.85,2.96,4.30,4.18,4.13,4.14
42.60,1.35,-2.76,1.35,-2.75,2.75,2.91,4.16,4.10,4.10,4.11
43.03,1.38,-2.72,1.43,-2.65,2.65,2.85,4.02,4.03,4.08,4.10
43.46,1.48,-2.59,1.49,-2.56,2.56,2.80,3.89,4.04,4.05,4.07
43.90,1.58,-2.44,1.55,-2.47,2.47,2.75,3.75,4.05,4.03,4.02
44.33,1.60,-2.39,1.60,-2.40,2.40,2.70,3.62,4.00,4.00,3.99
44.78,1.60,-2.36,1.64,-2.33,2.33,2.65,3.50,3.93,3.97,3.96
45.23,1.65,-2.28,1.68,-2.27,2.27,2.60,3.37,3.92,3.95,3.93
45.68,1.75,-2.15,1.71,-2.21,2.21,2.56,3.25,3.96,3.92,3.90
46.13,1.82,-2.06,1.75,-2.15,2.15,2.51,3.13,3.97,3.90,3.88
46.60,1.82,-2.05,1.79,-2.09,2.09,2.47,3.01,3.91,3.88,3.87
47.06,1.82,-2.03,1.82,-2.04,2.04,2.42,2.90,3.86,3.86,3.85
47.53,1.82,-2.03,1.85,-2.00,2.00,2.38,2.79,3.82,3.85,3.85
48.01,1.82,-2.03,1.89,-1.96,1.96,2.34,2.68,3.78,3.84,3.85
48.49,1.88,-1.95,1.92,-1.92,1.92,2.30,2.57,3.80,3.84,3.83
48.97,1.95,-1.87,1.95,-1.88,1.88,2.26,2.47,3.83,3.84,3.82
49.46,2.00,-1.81,1.99,-1.84,1.84,2.22,2.37,3.84,3.83,3.81
49.96,2.05,-1.76,2.03,-1.80,1.80,2.19,2.27,3.85,3.83,3.81
50.46,2.05,-1.77,2.06,-1.76,1.76,2.15,2.17,3.81,3.82,3.82
50.96,2.05,-1.78,2.10,-1.71,1.71,2.12,2.08,3.76,3.82,3.83
51.47,2.10,-1.72,2.14,-1.66,1.66,2.09,1.99,3.76,3.80,3.82
51.99,2.15,-1.65,2.18,-1.61,1.61,2.05,1.90,3.76,3.79,3.80
52.51,2.22,-1.57,2.21,-1.56,1.56,2.02,1.81,3.78,3.77,3.79
53.03,2.28,-1.48,2.22,-1.52,1.52,1.99,1.73,3.80,3.74,3.76
53.56,2.28,-1.45,2.23,-1.48,1.48,1.96,1.65,3.76,3.71,3.73
54.10,2.28,-1.41,2.23,-1.45,1.45,1.94,1.57,3.73,3.68,3.69
54.64,2.28,-1.36,2.23,-1.41,1.41,1.91,1.50,3.69,3.64,3.64
55.18,2.28,-1.31,2.22,-1.38,1.38,1.88,1.43,3.66,3.59,3.59
55.74,2.28,-1.26,2.20,-1.34,1.34,1.86,1.36,3.62,3.54,3.54
56.29,2.21,-1.28,2.20,-1.29,1.29,1.84,1.30,3.50,3.49,3.49
56.86,2.08,-1.35,2.18,-1.25,1.25,1.81,1.24,3.33,3.43,3.43
57.42,2.05,-1.31,2.16,-1.21,1.21,1.79,1.18,3.26,3.37,3.36
58.00,2.05,-1.25,2.13,-1.18,1.18,1.77,1.13,3.23,3.31,3.30
58.58,2.05,-1.19,2.10,-1.15,1.15,1.75,1.08,3.20,3.25,3.24
59.16,2.05,-1.14,2.06,-1.12,1.12,1.74,1.03,3.17,3.19,3.19
59.76,2.05,-1.08,2.03,-1.09,1.09,1.72,0.99,3.14,3.12,3.13
60.35,2.05,-1.01,2.00,-1.06,1.06,1.71,0.95,3.11,3.06,3.06
60.96,2.05,-0.96,1.98,-1.03,1.03,1.70,0.91,3.08,3.00,3.01
61.57,2.05,-0.89,1.95,-0.99,0.99,1.68,0.88,3.04,2.94,2.94
62.18,2.01,-0.86,1.94,-0.95,0.95,1.67,0.86,2.96,2.89,2.87
62.80,1.86,-0.97,1.93,-0.90,0.90,1.67,0.83,2.76,2.83,2.83
63.43,1.82,-0.95,1.93,-0.86,0.86,1.66,0.82,2.68,2.78,2.77
64.07,1.82,-0.91,1.92,-0.82,0.82,1.66,0.80,2.64,2.73,2.73
64.71,1.82,-0.86,1.91,-0.78,0.78,1.65,0.79,2.60,2.69,2.68
65.35,1.82,-0.81,1.90,-0.74,0.74,1.65,0.78,2.56,2.64,2.63
66.01,1.82,-0.78,1.90,-0.71,0.71,1.66,0.78,2.53,2.60,2.60
66.67,1.82,-0.74,1.87,-0.69,0.69,1.66,0.78,2.51,2.57,2.56
67.33,1.82,-0.71,1.83,-0.70,0.70,1.67,0.79,2.52,2.53,2.53
68.01,1.82,-0.68,1.78,-0.72,0.72,1.68,0.79,2.54,2.50,2.50
68.69,1.81,-0.66,1.70,-0.77,0.77,1.69,0.80,2.58,2.47,2.47
69.37,1.72,-0.71,1.59,-0.85,0.85,1.71,0.82,2.57,2.44,2.43
70.07,1.58,-0.82,1.44,-0.97,0.97,1.73,0.83,2.55,2.41,2.40
70.77,1.42,-0.97,1.25,-1.13,1.13,1.75,0.85,2.55,2.38,2.39
71.48,1.26,-1.09,1.03,-1.32,1.32,1.78,0.88,2.58,2.35,2.35
72.19,1.02,-1.31,0.79,-1.53,1.53,1.81,0.90,2.55,2.32,2.33
72.91,0.63,-1.66,0.54,-1.75,1.75,1.85,0.93,2.38,2.29,2.29
73.64,0.26,-2.00,0.28,-1.98,1.98,1.89,0.96,2.24,2.26,2.26
74.38,-0.04,-2.27,0.02,-2.21,2.21,1.94,0.99,2.17,2.23,2.23
75.12,-0.32,-2.52,-0.24,-2.44,2.44,2.00,1.02,2.11,2.20,2.20
75.87,-0.69,-2.86,-0.47,-2.64,2.64,2.06,1.06,1.95,2.17,2.17
76.63,-0.97,-3.11,-0.68,-2.82,2.82,2.13,1.10,1.85,2.14,2.14
77.40,-1.11,-3.22,-0.84,-2.96,2.96,2.20,1.14,1.85,2.12,2.11
78.17,-1.14,-3.22,-0.98,-3.07,3.07,2.28,1.18,1.93,2.09,2.08
78.95,-1.14,-3.21,-1.09,-3.16,3.16,2.37,1.22,2.02,2.07,2.07
79.74,-1.14,-3.19,-1.16,-3.21,3.21,2.47,1.26,2.07,2.05,2.05
80.54,-1.14,-3.17,-1.18,-3.22,3.22,2.56,1.31,2.08,2.04,2.03
81.35,-1.14,-3.15,-1.17,-3.20,3.20,2.66,1.36,2.06,2.03,2.01
82.16,-1.12,-3.13,-1.14,-3.15,3.15,2.76,1.40,2.03,2.02,2.01
82.98,-1.04,-3.05,-1.09,-3.10,3.10,2.86,1.45,2.06,2.01,2.01
83.81,-0.93,-2.93,-1.03,-3.04,3.04,2.95,1.51,2.11,2.01,2.00
84.65,-0.91,-2.90,-0.97,-2.97,2.97,3.03,1.56,2.06,2.00,1.99
85.50,-0.91,-2.91,-0.91,-2.91,2.91,3.09,1.61,2.00,2.00,2.00
86.35,-0.91,-2.91,-0.86,-2.86,2.86,3.14,1.67,1.95,2.00,2.00
87.22,-0.86,-2.86,-0.83,-2.83,2.83,3.16,1.72,1.97,2.01,2.00
88.09,-0.68,-2.68,-0.80,-2.80,2.80,3.16,1.78,2.12,2.01,2.00
88.97,-0.68,-2.70,-0.77,-2.77,2.77,3.13,1.84,2.09,2.01,2.02
89.86,-0.68,-2.70,-0.73,-2.74,2.74,3.08,1.90,2.06,2.01,2.02
90.76,-0.68,-2.68,-0.70,-2.70,2.70,3.02,1.96,2.02,2.00,2.00
91.66,-0.68,-2.69,-0.67,-2.66,2.66,2.94,2.03,1.98,2.00,2.01
92.58,-0.68,-2.66,-0.64,-2.63,2.63,2.85,2.09,1.95,1.99,1.98
93.51,-0.68,-2.67,-0.62,-2.60,2.60,2.75,2.16,1.92,1.98,1.99
94.44,-0.68,-2.65,-0.60,-2.57,2.57,2.65,2.22,1.89,1.97,1.97
95.39,-0.68,-2.64,-0.59,-2.54,2.54,2.56,2.29,1.86,1.95,1.96
96.34,-0.65,-2.57,-0.58,-2.51,2.51,2.46,2.36,1.86,1.93,1.92
97.30,-0.54,-2.44,-0.58,-2.49,2.49,2.38,2.43,1.95,1.91,1.90
98.28,-0.46,-2.34,-0.59,-2.47,2.47,2.30,2.49,2.01,1.89,1.88
99.26,-0.46,-2.31,-0.59,-2.44,2.44,2.22,2.56,1.98,1.86,1.85
100.25,-0.47,-2.29,-0.58,-2.40,2.40,2.15,2.64,1.93,1.82,1.82
101.25,-0.53,-2.32,-0.58,-2.36,2.36,2.10,2.71,1.83,1.79,1.79
102.27,-0.68,-2.43,-0.58,-2.32,2.32,2.04,2.78,1.64,1.75,1.75
103.29,-0.68,-2.38,-0.58,-2.28,2.28,2.00,2.85,1.60,1.70,1.70
104.32,-0.68,-2.34,-0.59,-2.25,2.25,1.96,2.92,1.57,1.65,1.66
105.37,-0.68,-2.29,-0.62,-2.22,2.22,1.93,2.98,1.54,1.60,1.61
106.42,-0.68,-2.24,-0.66,-2.20,2.20,1.90,3.05,1.52,1.54,1.56
107.48,-0.68,-2.17,-0.70,-2.18,2.18,1.89,3.12,1.50,1.48,1.49
108.56,-0.68,-2.09,-0.74,-2.15,2.15,1.87,3.18,1.47,1.41,1.41
109.64,-0.68,-2.02,-0.77,-2.12,2.12,1.86,3.25,1.44,1.34,1.34
110.74,-0.69,-1.97,-0.81,-2.08,2.08,1.86,3.31,1.39,1.27,1.28
111.85,-0.88,-2.09,-0.85,-2.05,2.05,1.86,3.36,1.17,1.20,1.21
112.97,-0.91,-2.03,-0.89,-2.02,2.02,1.87,3.42,1.11,1.13,1.12
114.10,-0.96,-2.02,-0.94,-1.99,1.99,1.88,3.47,1.03,1.06,1.06
115.24,-1.14,-2.12,-1.00,-1.98,1.98,1.90,3.52,0.84,0.99,0.98
116.39,-1.14,-2.04,-1.07,-1.99,1.99,1.92,3.56,0.85,0.92,0.90
117.55,-1.14,-1.98,-1.14,-2.00,2.00,1.94,3.60,0.86,0.86,0.84
118.73,-1.14,-1.91,-1.22,-2.02,2.02,1.97,3.63,0.88,0.80,0.77
119.92,-1.15,-1.88,-1.31,-2.05,2.05,2.00,3.66,0.90,0.74,0.73
121.12,-1.38,-2.05,-1.40,-2.09,2.09,2.04,3.68,0.71,0.69,0.67
122.33,-1.52,-2.15,-1.49,-2.13,2.13,2.08,3.70,0.61,0.65,0.63
123.55,-1.60,-2.21,-1.57,-2.17,2.17,2.13,3.71,0.57,0.60,0.61
124.79,-1.60,-2.17,-1.65,-2.21,2.21,2.18,3.71,0.61,0.56,0.57
126.03,-1.75,-2.28,-1.74,-2.27,2.27,2.23,3.71,0.52,0.53,0.53
127.29,-1.87,-2.37,-1.83,-2.32,2.32,2.29,3.70,0.45,0.49,0.50
128.57,-2.00,-2.46,-1.92,-2.39,2.39,2.35,3.69,0.39,0.46,0.46
129.85,-2.05,-2.48,-2.02,-2.45,2.45,2.41,3.67,0.40,0.43,0.43
131.15,-2.10,-2.50,-2.12,-2.51,2.51,2.48,3.65,0.41,0.40,0.40
132.46,-2.23,-2.60,-2.21,-2.57,2.57,2.55,3.62,0.34,0.36,0.37
133.79,-2.28,-2.62,-2.29,-2.62,2.62,2.63,3.59,0.34,0.33,0.34
135.12,-2.29,-2.58,-2.36,-2.66,2.66,2.71,3.55,0.37,0.30,0.29
136.48,-2.45,-2.71,-2.44,-2.71,2.71,2.79,3.50,0.26,0.27,0.26
137.84,-2.51,-2.74,-2.52,-2.75,2.75,2.87,3.46,0.24,0.23,0.23
139.22,-2.63,-2.81,-2.59,-2.79,2.79,2.95,3.41,0.16,0.19,0.18
140.61,-2.72,-2.85,-2.66,-2.81,2.81,3.04,3.35,0.09,0.16,0.13
142.02,-2.74,-2.85,-2.72,-2.83,2.83,3.13,3.30,0.09,0.11,0.11
143.44,-2.75,-2.82,-2.79,-2.86,2.86,3.22,3.24,0.11,0.07,0.07
144.87,-2.92,-2.95,-2.86,-2.88,2.88,3.30,3.17,-0.04,0.02,0.03
146.32,-2.95,-2.93,-2.92,-2.89,2.89,3.39,3.11,-0.06,-0.04,-0.02
147.78,-3.01,-2.95,-2.99,-2.90,2.90,3.47,3.05,-0.11,-0.10,-0.06
149.26,-3.13,-3.00,-3.08,-2.92,2.92,3.55,2.98,-0.21,-0.16,-0.13
150.75,-3.19,-2.98,-3.17,-2.95,2.95,3.63,2.92,-0.24,-0.23,-0.21
152.26,-3.20,-2.92,-3.28,-2.98,2.98,3.70,2.85,-0.22,-0.30,-0.28
153.78,-3.35,-3.00,-3.40,-3.03,3.03,3.76,2.78,-0.32,-0.37,-0.35
155.32,-3.46,-3.01,-3.55,-3.11,3.11,3.81,2.72,-0.35,-0.44,-0.45
156.88,-3.65,-3.13,-3.73,-3.22,3.22,3.86,2.65,-0.43,-0.51,-0.52
158.44,-3.81,-3.22,-3.91,-3.33,3.33,3.90,2.59,-0.48,-0.58,-0.59
160.03,-3.94,-3.27,-4.10,-3.46,3.46,3.92,2.52,-0.48,-0.65,-0.67
161.63,-4.20,-3.47,-4.30,-3.59,3.59,3.94,2.46,-0.61,-0.70,-0.73
163.24,-4.53,-3.75,-4.51,-3.75,3.75,3.94,2.40,-0.78,-0.76,-0.78
164.88,-4.76,-3.94,-4.72,-3.92,3.92,3.93,2.33,-0.84,-0.80,-0.82
166.53,-4.99,-4.13,-4.92,-4.09,4.09,3.91,2.27,-0.90,-0.83,-0.86
168.19,-5.25,-4.36,-5.13,-4.27,4.27,3.87,2.21,-0.98,-0.86,-0.89
169.87,-5.51,-4.61,-5.34,-4.47,4.47,3.83,2.16,-1.05,-0.88,-0.90
171.57,-5.66,-4.75,-5.55,-4.66,4.66,3.77,2.10,-1.00,-0.89,-0.91
173.29,-5.70,-4.79,-5.76,-4.86,4.86,3.70,2.04,-0.84,-0.90,-0.91
175.02,-5.70,-4.81,-5.94,-5.04,5.04,3.63,1.99,-0.66,-0.90,-0.89
176.77,-5.89,-4.99,-6.09,-5.19,5.19,3.54,1.94,-0.70,-0.90,-0.90
178.54,-6.09,-5.20,-6.20,-5.30,5.30,3.45,1.89,-0.79,-0.90,-0.89
180.32,-6.15,-5.27,-6.25,-5.34,5.34,3.36,1.84,-0.81,-0.90,-0.88
182.13,-6.15,-5.27,-6.22,-5.32,5.32,3.26,1.79,-0.83,-0.90,-0.88
183.95,-6.24,-5.36,-6.14,-5.23,5.23,3.16,1.74,-1.01,-0.90,-0.88
185.79,-6.37,-5.48,-5.98,-5.07,5.07,3.05,1.70,-1.30,-0.91,-0.89
187.65,-6.30,-5.39,-5.78,-4.87,4.87,2.94,1.65,-1.43,-0.92,-0.91
189.52,-6.06,-5.13,-5.54,-4.62,4.62,2.83,1.61,-1.44,-0.93,-0.93
191.42,-5.62,-4.67,-5.26,-4.32,4.32,2.73,1.57,-1.30,-0.94,-0.95
193.33,-5.16,-4.19,-4.95,-4.00,4.00,2.62,1.53,-1.16,-0.96,-0.97
195.27,-4.61,-3.64,-4.60,-3.63,3.63,2.51,1.49,-0.98,-0.97,-0.97
197.22,-4.03,-3.04,-4.23,-3.24,3.24,2.41,1.46,-0.79,-0.99,-0.99
199.19,-3.50,-2.47,-3.87,-2.86,2.86,2.30,1.42,-0.64,-1.01,-1.03
201.18,-3.07,-2.04,-3.54,-2.51,2.51,2.20,1.39,-0.56,-1.03,-1.03
203.19,-2.81,-1.76,-3.23,-2.18,2.18,2.11,1.35,-0.63,-1.05,-1.05
205.23,-2.74,-1.66,-2.95,-1.88,1.88,2.01,1.32,-0.86,-1.07,-1.08
207.28,-2.65,-1.57,-2.71,-1.63,1.63,1.92,1.29,-1.02,-1.09,-1.08
209.35,-2.43,-1.33,-2.53,-1.43,1.43,1.83,1.26,-1.00,-1.10,-1.10
211.44,-2.30,-1.17,-2.41,-1.29,1.29,1.74,1.23,-1.01,-1.12,-1.13
213.56,-2.28,-1.15,-2.34,-1.21,1.21,1.66,1.21,-1.07,-1.13,-1.13
215.69,-2.28,-1.15,-2.31,-1.16,1.16,1.58,1.18,-1.12,-1.14,-1.13
217.85,-2.49,-1.33,-2.31,-1.15,1.15,1.51,1.15,-1.34,-1.16,-1.16
220.03,-2.51,-1.34,-2.32,-1.16,1.16,1.43,1.13,-1.35,-1.17,-1.17
222.23,-2.51,-1.32,-2.33,-1.15,1.15,1.36,1.10,-1.36,-1.18,-1.19
224.45,-2.40,-1.21,-2.34,-1.15,1.15,1.30,1.08,-1.25,-1.19,-1.19
226.70,-2.29,-1.10,-2.33,-1.13,1.13,1.23,1.06,-1.16,-1.19,-1.19
228.96,-2.28,-1.08,-2.30,-1.10,1.10,1.17,1.03,-1.18,-1.20,-1.20
231.25,-2.28,-1.08,-2.27,-1.06,1.06,1.11,1.01,-1.22,-1.21,-1.20
233.57,-2.28,-1.07,-2.24,-1.04,1.04,1.05,0.99,-1.24,-1.21,-1.21
235.90,-2.28,-1.06,-2.20,-0.99,0.99,1.00,0.97,-1.29,-1.21,-1.22
238.26,-2.17,-0.95,-2.13,-0.92,0.92,0.95,0.95,-1.25,-1.21,-1.22
240.64,-2.07,-0.85,-2.04,-0.83,0.83,0.90,0.93,-1.24,-1.21,-1.22
243.05,-1.89,-0.68,-1.95,-0.75,0.75,0.85,0.91,-1.14,-1.21,-1.21
245.48,-1.82,-0.62,-1.87,-0.67,0.67,0.81,0.89,-1.15,-1.20,-1.20
247.93,-1.82,-0.63,-1.80,-0.60,0.60,0.77,0.88,-1.22,-1.20,-1.19
250.41,-1.64,-0.44,-1.72,-0.53,0.53,0.73,0.86,-1.11,-1.19,-1.20
252.92,-1.60,-0.41,-1.63,-0.44,0.44,0.69,0.84,-1.16,-1.19,-1.19
255.45,-1.60,-0.44,-1.52,-0.34,0.34,0.65,0.82,-1.26,-1.18,-1.16
258.00,-1.46,-0.30,-1.41,-0.25,0.25,0.62,0.81,-1.21,-1.17,-1.16
260.58,-1.23,-0.07,-1.30,-0.15,0.15,0.58,0.79,-1.08,-1.15,-1.16
263.19,-1.15,-0.01,-1.19,-0.05,0.05,0.55,0.78,-1.10,-1.14,-1.14
265.82,-1.14,-0.00,-1.08,0.04,-0.04,0.52,0.76,-1.18,-1.13,-1.14
268.48,-1.09,0.02,-0.98,0.14,-0.14,0.49,0.74,-1.23,-1.11,-1.11
271.16,-0.96,0.14,-0.87,0.22,-0.22,0.46,0.73,-1.18,-1.09,-1.10
273.87,-0.83,0.26,-0.77,0.30,-0.30,0.44,0.71,-1.13,-1.07,-1.09
276.61,-0.57,0.48,-0.68,0.38,-0.38,0.41,0.70,-0.95,-1.05,-1.05
279.38,-0.47,0.57,-0.59,0.44,-0.44,0.39,0.69,-0.91,-1.03,-1.04
282.17,-0.46,0.55,-0.50,0.51,-0.51,0.37,0.67,-0.97,-1.01,-1.01
284.99,-0.40,0.58,-0.41,0.56,-0.56,0.35,0.66,-0.96,-0.98,-0.98
287.84,-0.24,0.72,-0.35,0.60,-0.60,0.33,0.65,-0.84,-0.95,-0.96
290.72,-0.23,0.69,-0.28,0.64,-0.64,0.31,0.63,-0.87,-0.92,-0.92
293.63,-0.23,0.67,-0.22,0.67,-0.67,0.29,0.62,-0.90,-0.90,-0.90
296.57,-0.23,0.64,-0.17,0.70,-0.70,0.28,0.61,-0.93,-0.87,-0.87
299.53,-0.23,0.61,-0.12,0.72,-0.72,0.26,0.60,-0.95,-0.85,-0.84
302.53,-0.22,0.61,-0.09,0.73,-0.73,0.25,0.58,-0.95,-0.82,-0.83
305.55,-0.03,0.76,-0.06,0.74,-0.74,0.23,0.57,-0.77,-0.80,-0.79
308.61,-0.00,0.77,-0.04,0.74,-0.74,0.22,0.56,-0.74,-0.78,-0.77
311.69,0.00,0.76,-0.03,0.74,-0.74,0.21,0.55,-0.74,-0.77,-0.76
314.81,0.00,0.73,-0.02,0.74,-0.74,0.20,0.54,-0.74,-0.75,-0.73
317.96,0.00,0.73,-0.02,0.73,-0.73,0.19,0.53,-0.73,-0.74,-0.73
321.14,0.00,0.74,-0.02,0.71,-0.71,0.18,0.52,-0.71,-0.73,-0.74
324.35,0.00,0.73,-0.03,0.70,-0.70,0.17,0.51,-0.70,-0.72,-0.73
327.59,0.00,0.72,-0.03,0.68,-0.68,0.17,0.50,-0.68,-0.71,-0.72
330.87,0.00,0.71,-0.04,0.67,-0.67,0.16,0.49,-0.67,-0.70,-0.71
334.18,0.00,0.71,-0.06,0.64,-0.64,0.15,0.48,-0.64,-0.69,-0.71
337.52,-0.13,0.57,-0.09,0.59,-0.59,0.15,0.47,-0.72,-0.68,-0.70
340.90,-0.21,0.46,-0.13,0.54,-0.54,0.14,0.47,-0.75,-0.67,-0.67
344.30,-0.23,0.43,-0.16,0.49,-0.49,0.14,0.46,-0.72,-0.65,-0.66
347.75,-0.23,0.42,-0.19,0.45,-0.45,0.14,0.45,-0.68,-0.64,-0.65
351.23,-0.23,0.39,-0.22,0.40,-0.40,0.13,0.44,-0.63,-0.62,-0.62
354.74,-0.23,0.37,-0.25,0.34,-0.34,0.13,0.44,-0.57,-0.59,-0.60
358.28,-0.23,0.34,-0.29,0.28,-0.28,0.13,0.43,-0.51,-0.57,-0.57
361.87,-0.23,0.32,-0.33,0.22,-0.22,0.13,0.42,-0.45,-0.55,-0.55
365.49,-0.39,0.14,-0.37,0.16,-0.16,0.13,0.42,-0.55,-0.53,-0.53
369.14,-0.45,0.06,-0.40,0.10,-0.10,0.13,0.41,-0.55,-0.50,-0.51
372.83,-0.46,0.02,-0.44,0.04,-0.04,0.13,0.41,-0.50,-0.48,-0.48
376.56,-0.46,-0.00,-0.47,-0.01,0.01,0.14,0.40,-0.45,-0.46,-0.46
380.33,-0.46,-0.03,-0.50,-0.06,0.06,0.14,0.40,-0.40,-0.44,-0.43
384.13,-0.46,-0.05,-0.53,-0.11,0.11,0.14,0.39,-0.35,-0.42,-0.41
387.97,-0.61,-0.21,-0.56,-0.15,0.15,0.14,0.39,-0.46,-0.41,-0.40
391.85,-0.67,-0.27,-0.59,-0.19,0.19,0.15,0.38,-0.48,-0.39,-0.40
395.77,-0.68,-0.29,-0.62,-0.23,0.23,0.15,0.38,-0.45,-0.38,-0.39
399.73,-0.68,-0.30,-0.65,-0.27,0.27,0.16,0.38,-0.41,-0.37,-0.38
403.72,-0.68,-0.31,-0.67,-0.31,0.31,0.16,0.37,-0.37,-0.36,-0.37
407.76,-0.68,-0.32,-0.69,-0.33,0.33,0.17,0.37,-0.35,-0.36,-0.36
411.84,-0.68,-0.33,-0.72,-0.37,0.37,0.18,0.37,-0.31,-0.35,-0.35
415.96,-0.68,-0.34,-0.75,-0.40,0.40,0.18,0.37,-0.28,-0.35,-0.34
420.12,-0.68,-0.34,-0.77,-0.43,0.43,0.19,0.36,-0.25,-0.35,-0.34
424.32,-0.70,-0.36,-0.80,-0.45,0.45,0.20,0.36,-0.25,-0.34,-0.34
428.56,-0.85,-0.51,-0.82,-0.47,0.47,0.21,0.36,-0.38,-0.34,-0.34
432.85,-0.91,-0.56,-0.83,-0.49,0.49,0.22,0.36,-0.42,-0.34,-0.35
437.18,-0.91,-0.57,-0.85,-0.51,0.51,0.23,0.36,-0.40,-0.33,-0.34
441.55,-0.91,-0.58,-0.87,-0.54,0.54,0.24,0.36,-0.37,-0.33,-0.33
445.96,-0.91,-0.58,-0.88,-0.56,0.56,0.25,0.36,-0.35,-0.32,-0.33
450.42,-0.91,-0.59,-0.90,-0.59,0.59,0.26,0.36,-0.32,-0.31,-0.32
454.93,-0.91,-0.60,-0.91,-0.61,0.61,0.27,0.36,-0.30,-0.30,-0.31
459.48,-0.91,-0.61,-0.92,-0.63,0.63,0.28,0.36,-0.28,-0.29,-0.30
464.07,-0.91,-0.63,-0.93,-0.65,0.65,0.29,0.36,-0.26,-0.27,-0.28
468.71,-0.91,-0.65,-0.94,-0.68,0.68,0.31,0.36,-0.23,-0.26,-0.26
473.40,-0.91,-0.66,-0.94,-0.70,0.70,0.32,0.37,-0.21,-0.24,-0.25
478.13,-0.91,-0.69,-0.93,-0.71,0.71,0.33,0.37,-0.20,-0.22,-0.22
482.91,-0.91,-0.71,-0.92,-0.73,0.73,0.35,0.37,-0.18,-0.19,-0.20
487.74,-0.91,-0.74,-0.92,-0.75,0.75,0.36,0.37,-0.16,-0.17,-0.17
492.62,-0.91,-0.77,-0.90,-0.76,0.76,0.38,0.38,-0.15,-0.15,-0.14
497.55,-0.91,-0.79,-0.89,-0.77,0.77,0.39,0.38,-0.14,-0.12,-0.12
