frequency,raw,error,smoothed,error_smoothed,equalization,parametric_eq,fixed_band_eq,equalized_raw,equalized_smoothed,target
20.00,-1.27,-4.05,-1.26,-4.04,4.04,4.46,0.19,2.78,2.78,2.78
20.20,-1.18,-4.01,-1.18,-4.01,4.01,4.56,0.20,2.83,2.83,2.83
20.40,-1.10,-3.98,-1.10,-3.97,3.97,4.62,0.21,2.88,2.88,2.88
20.61,-1.01,-3.92,-1.01,-3.93,3.93,4.66,0.22,2.92,2.92,2.91
20.81,-0.93,-3.89,-0.93,-3.88,3.88,4.66,0.23,2.95,2.95,2.96
21.02,-0.84,-3.84,-0.83,-3.83,3.82,4.62,0.24,2.98,2.98,3.00
21.23,-0.74,-3.76,-0.74,-3.76,3.75,4.55,0.24,3.02,3.01,3.02
21.44,-0.64,-3.67,-0.64,-3.68,3.68,4.45,0.25,3.04,3.04,3.04
21.66,-0.54,-3.60,-0.54,-3.59,3.60,4.32,0.27,3.06,3.06,3.06
21.87,-0.44,-3.50,-0.43,-3.51,3.51,4.16,0.28,3.07,3.08,3.07
22.09,-0.33,-3.41,-0.33,-3.41,3.41,3.99,0.29,3.09,3.09,3.09
22.31,-0.22,-3.31,-0.22,-3.31,3.31,3.81,0.30,3.10,3.09,3.10
22.54,-0.11,-3.21,-0.11,-3.21,3.21,3.61,0.31,3.10,3.10,3.10
22.76,0.00,-3.09,0.00,-3.09,3.09,3.41,0.32,3.10,3.10,3.10
22.99,0.11,-2.98,0.12,-2.97,2.98,3.21,0.33,3.09,3.10,3.09
23.22,0.24,-2.85,0.24,-2.85,2.86,3.01,0.35,3.10,3.10,3.09
23.45,0.37,-2.72,0.37,-2.72,2.72,2.81,0.36,3.09,3.09,3.09
23.69,0.50,-2.60,0.50,-2.59,2.57,2.62,0.37,3.07,3.07,3.10
23.92,0.63,-2.46,0.64,-2.46,2.42,2.44,0.38,3.06,3.06,3.10
24.16,0.79,-2.30,0.79,-2.31,2.27,2.26,0.40,3.07,3.07,3.10
24.40,0.96,-2.14,0.97,-2.13,2.13,2.09,0.41,3.10,3.10,3.11
24.65,1.13,-1.97,1.14,-1.96,2.00,1.93,0.42,3.13,3.14,3.10
24.89,1.30,-1.79,1.29,-1.81,1.88,1.78,0.44,3.19,3.17,3.10
25.14,1.40,-1.70,1.39,-1.71,1.77,1.63,0.45,3.18,3.16,3.10
25.39,1.45,-1.66,1.45,-1.65,1.68,1.50,0.46,3.13,3.13,3.11
25.65,1.49,-1.62,1.50,-1.61,1.59,1.37,0.47,3.08,3.08,3.11
25.91,1.54,-1.56,1.55,-1.55,1.50,1.24,0.49,3.05,3.06,3.10
26.16,1.63,-1.46,1.64,-1.46,1.42,1.13,0.50,3.05,3.06,3.10
26.43,1.75,-1.35,1.74,-1.35,1.32,1.02,0.51,3.07,3.07,3.10
26.69,1.87,-1.23,1.86,-1.23,1.21,0.92,0.52,3.08,3.07,3.10
26.96,1.98,-1.12,1.99,-1.11,1.09,0.82,0.53,3.07,3.08,3.10
27.23,2.12,-0.98,2.13,-0.97,0.96,0.73,0.53,3.08,3.09,3.10
27.50,2.27,-0.83,2.28,-0.82,0.84,0.64,0.54,3.12,3.12,3.10
27.77,2.41,-0.67,2.41,-0.68,0.74,0.55,0.55,3.15,3.15,3.09
28.05,2.54,-0.55,2.52,-0.57,0.64,0.48,0.55,3.18,3.15,3.09
28.33,2.57,-0.51,2.57,-0.51,0.55,0.40,0.55,3.12,3.12,3.08
28.62,2.60,-0.48,2.61,-0.47,0.46,0.33,0.56,3.07,3.07,3.08
28.90,2.63,-0.46,2.65,-0.43,0.38,0.26,0.56,3.01,3.03,3.09
29.19,2.72,-0.36,2.73,-0.35,0.30,0.20,0.55,3.02,3.03,3.08
29.48,2.84,-0.24,2.84,-0.24,0.21,0.13,0.55,3.05,3.05,3.09
29.78,2.97,-0.11,2.96,-0.12,0.11,0.07,0.54,3.08,3.08,3.08
30.08,3.09,0.00,3.09,0.01,0.00,0.02,0.53,3.09,3.09,3.09
30.38,3.20,0.12,3.21,0.13,-0.11,-0.04,0.52,3.09,3.10,3.08
30.68,3.32,0.24,3.32,0.24,-0.23,-0.09,0.51,3.09,3.09,3.08
30.99,3.43,0.35,3.43,0.35,-0.34,-0.14,0.49,3.09,3.09,3.08
31.30,3.52,0.45,3.52,0.45,-0.44,-0.19,0.47,3.09,3.09,3.07
31.61,3.60,0.53,3.61,0.54,-0.52,-0.24,0.45,3.08,3.09,3.07
31.93,3.68,0.61,3.68,0.61,-0.60,-0.29,0.43,3.08,3.08,3.07
32.24,3.74,0.68,3.74,0.67,-0.67,-0.33,0.40,3.07,3.06,3.06
32.57,3.79,0.73,3.79,0.73,-0.74,-0.38,0.38,3.05,3.05,3.06
32.89,3.83,0.77,3.84,0.79,-0.81,-0.42,0.35,3.02,3.03,3.06
33.22,3.91,0.86,3.91,0.86,-0.88,-0.46,0.31,3.03,3.03,3.05
33.55,3.99,0.95,3.99,0.95,-0.96,-0.50,0.28,3.04,3.04,3.05
33.89,4.08,1.04,4.08,1.04,-1.03,-0.54,0.24,3.05,3.05,3.04
34.23,4.16,1.12,4.16,1.12,-1.11,-0.58,0.20,3.05,3.04,3.04
34.57,4.22,1.19,4.23,1.20,-1.19,-0.62,0.16,3.03,3.03,3.03
34.92,4.29,1.26,4.29,1.27,-1.27,-0.66,0.11,3.02,3.03,3.03
35.27,4.36,1.34,4.36,1.34,-1.34,-0.70,0.07,3.02,3.03,3.02
35.62,4.43,1.41,4.43,1.41,-1.40,-0.73,0.02,3.03,3.03,3.02
35.97,4.50,1.48,4.49,1.47,-1.46,-0.77,-0.03,3.04,3.03,3.02
36.33,4.53,1.51,4.53,1.52,-1.52,-0.80,-0.08,3.01,3.01,3.02
36.70,4.57,1.56,4.57,1.56,-1.58,-0.84,-0.13,3.00,3.00,3.01
37.06,4.61,1.60,4.62,1.61,-1.62,-0.88,-0.18,2.99,3.00,3.01
37.43,4.68,1.67,4.69,1.67,-1.67,-0.91,-0.24,3.01,3.02,3.02
37.81,4.75,1.73,4.75,1.73,-1.71,-0.95,-0.30,3.04,3.03,3.02
38.19,4.80,1.79,4.79,1.77,-1.75,-0.98,-0.35,3.05,3.03,3.01
38.57,4.81,1.79,4.81,1.79,-1.80,-1.01,-0.41,3.02,3.02,3.02
38.95,4.82,1.80,4.84,1.82,-1.84,-1.05,-0.47,2.98,3.00,3.03
39.34,4.88,1.86,4.88,1.86,-1.88,-1.08,-0.53,3.00,3.00,3.02
39.74,4.95,1.93,4.94,1.92,-1.93,-1.12,-0.59,3.02,3.01,3.02
40.14,5.00,1.98,5.00,1.98,-1.97,-1.15,-0.65,3.03,3.03,3.02
40.54,5.04,2.02,5.04,2.03,-2.02,-1.18,-0.72,3.03,3.03,3.02
40.94,5.07,2.06,5.08,2.07,-2.06,-1.22,-0.78,3.01,3.02,3.01
41.35,5.12,2.11,5.12,2.11,-2.11,-1.25,-0.85,3.01,3.01,3.01
41.76,5.16,2.16,5.16,2.16,-2.16,-1.29,-0.91,3.00,3.00,3.00
42.18,5.20,2.20,5.20,2.20,-2.21,-1.32,-0.98,2.99,2.99,3.00
42.60,5.23,2.24,5.24,2.25,-2.26,-1.35,-1.05,2.97,2.98,2.99
43.03,5.27,2.29,5.28,2.30,-2.31,-1.39,-1.11,2.96,2.96,2.98
43.46,5.32,2.35,5.32,2.35,-2.36,-1.42,-1.18,2.96,2.95,2.97
43.90,5.36,2.41,5.36,2.42,-2.42,-1.46,-1.26,2.95,2.95,2.95
44.33,5.40,2.47,5.41,2.48,-2.46,-1.49,-1.33,2.94,2.94,2.93
44.78,5.45,2.54,5.44,2.53,-2.51,-1.53,-1.40,2.94,2.93,2.91
45.23,5.47,2.57,5.46,2.57,-2.56,-1.56,-1.47,2.92,2.91,2.90
45.68,5.47,2.58,5.48,2.59,-2.59,-1.60,-1.55,2.88,2.88,2.89
46.13,5.48,2.61,5.49,2.62,-2.63,-1.63,-1.62,2.86,2.87,2.87
46.60,5.51,2.64,5.51,2.65,-2.65,-1.67,-1.70,2.86,2.86,2.87
47.06,5.54,2.69,5.54,2.68,-2.68,-1.70,-1.77,2.86,2.86,2.85
47.53,5.55,2.71,5.55,2.71,-2.70,-1.74,-1.85,2.85,2.85,2.84
48.01,5.56,2.72,5.56,2.73,-2.73,-1.77,-1.93,2.83,2.83,2.84
48.49,5.56,2.74,5.56,2.74,-2.76,-1.81,-2.01,2.80,2.80,2.82
48.97,5.56,2.76,5.58,2.78,-2.80,-1.85,-2.09,2.77,2.79,2.80
49.46,5.61,2.83,5.61,2.83,-2.83,-1.88,-2.17,2.78,2.78,2.78
49.96,5.66,2.90,5.64,2.88,-2.87,-1.92,-2.25,2.79,2.76,2.76
50.46,5.66,2.91,5.66,2.92,-2.91,-1.96,-2.33,2.75,2.75,2.75
50.96,5.66,2.92,5.69,2.95,-2.95,-2.00,-2.41,2.71,2.73,2.74
51.47,5.71,2.99,5.71,2.99,-2.99,-2.03,-2.49,2.72,2.72,2.72
51.99,5.76,3.05,5.74,3.03,-3.02,-2.07,-2.57,2.74,2.72,2.71
52.51,5.76,3.06,5.76,3.06,-3.05,-2.11,-2.65,2.71,2.72,2.70
53.03,5.76,3.06,5.77,3.07,-3.07,-2.15,-2.73,2.69,2.70,2.70
53.56,5.76,3.08,5.76,3.08,-3.09,-2.19,-2.81,2.68,2.68,2.68
54.10,5.76,3.09,5.76,3.09,-3.10,-2.23,-2.89,2.66,2.66,2.67
54.64,5.76,3.11,5.76,3.11,-3.11,-2.27,-2.97,2.65,2.65,2.65
55.18,5.76,3.11,5.76,3.12,-3.13,-2.31,-3.05,2.64,2.64,2.65
55.74,5.76,3.13,5.76,3.13,-3.14,-2.35,-3.12,2.62,2.62,2.63
56.29,5.76,3.14,5.76,3.14,-3.15,-2.39,-3.20,2.61,2.61,2.62
56.86,5.76,3.15,5.76,3.16,-3.16,-2.43,-3.27,2.60,2.60,2.61
57.42,5.76,3.18,5.76,3.18,-3.18,-2.47,-3.34,2.59,2.59,2.58
58.00,5.76,3.19,5.77,3.20,-3.19,-2.51,-3.40,2.58,2.58,2.57
58.58,5.76,3.20,5.75,3.20,-3.19,-2.56,-3.46,2.57,2.56,2.56
59.16,5.74,3.20,5.73,3.19,-3.20,-2.60,-3.52,2.54,2.53,2.54
59.76,5.68,3.16,5.71,3.19,-3.19,-2.64,-3.58,2.49,2.51,2.52
60.35,5.66,3.18,5.67,3.19,-3.19,-2.69,-3.63,2.48,2.49,2.48
60.96,5.66,3.22,5.62,3.18,-3.18,-2.73,-3.68,2.49,2.45,2.44
61.57,5.56,3.16,5.57,3.17,-3.16,-2.77,-3.73,2.40,2.41,2.40
62.18,5.47,3.11,5.49,3.14,-3.14,-2.82,-3.77,2.33,2.35,2.36
62.80,5.42,3.11,5.42,3.10,-3.12,-2.86,-3.81,2.30,2.29,2.31
63.43,5.36,3.09,5.36,3.10,-3.10,-2.91,-3.85,2.26,2.26,2.27
64.07,5.30,3.08,5.31,3.09,-3.08,-2.95,-3.88,2.23,2.23,2.22
64.71,5.25,3.07,5.24,3.06,-3.05,-3.00,-3.91,2.20,2.19,2.18
65.35,5.17,3.03,5.17,3.03,-3.03,-3.04,-3.93,2.14,2.14,2.14
66.01,5.08,2.99,5.09,3.00,-3.01,-3.09,-3.96,2.08,2.08,2.09
66.67,5.01,2.97,5.02,2.98,-2.98,-3.14,-3.97,2.03,2.04,2.04
67.33,4.96,2.97,4.96,2.97,-2.96,-3.18,-3.99,2.00,2.00,1.99
68.01,4.91,2.96,4.91,2.96,-2.94,-3.23,-4.01,1.98,1.97,1.95
68.69,4.85,2.95,4.86,2.96,-2.93,-3.28,-4.02,1.92,1.93,1.90
69.37,4.80,2.95,4.80,2.95,-2.94,-3.33,-4.03,1.86,1.85,1.85
70.07,4.75,2.95,4.74,2.94,-2.98,-3.38,-4.04,1.77,1.76,1.80
70.77,4.70,2.95,4.72,2.97,-3.04,-3.42,-4.05,1.67,1.68,1.75
71.48,4.73,3.03,4.75,3.06,-3.11,-3.47,-4.06,1.62,1.64,1.70
72.19,4.82,3.19,4.82,3.19,-3.20,-3.52,-4.07,1.62,1.62,1.63
72.91,4.93,3.36,4.92,3.35,-3.31,-3.57,-4.08,1.62,1.61,1.57
73.64,5.02,3.50,5.00,3.49,-3.44,-3.62,-4.08,1.58,1.56,1.52
74.38,5.07,3.61,5.07,3.61,-3.59,-3.67,-4.09,1.49,1.48,1.46
75.12,5.10,3.70,5.12,3.73,-3.74,-3.72,-4.10,1.37,1.39,1.40
75.87,5.20,3.86,5.19,3.85,-3.89,-3.77,-4.12,1.32,1.31,1.34
76.63,5.28,3.99,5.30,4.02,-4.03,-3.83,-4.13,1.25,1.27,1.29
77.40,5.41,4.17,5.42,4.18,-4.18,-3.88,-4.15,1.24,1.24,1.24
78.17,5.56,4.38,5.52,4.34,-4.32,-3.93,-4.16,1.24,1.20,1.18
78.95,5.59,4.46,5.62,4.48,-4.47,-3.98,-4.18,1.12,1.14,1.14
79.74,5.69,4.60,5.68,4.60,-4.62,-4.03,-4.20,1.08,1.07,1.09
80.54,5.75,4.71,5.76,4.73,-4.74,-4.08,-4.23,1.01,1.02,1.04
81.35,5.84,4.85,5.86,4.87,-4.85,-4.14,-4.26,0.99,1.01,0.99
82.16,5.96,5.02,5.94,4.99,-4.94,-4.19,-4.29,1.02,0.99,0.94
82.98,5.99,5.09,5.97,5.08,-5.03,-4.24,-4.32,0.97,0.95,0.90
83.81,5.96,5.11,5.96,5.12,-5.10,-4.29,-4.36,0.86,0.86,0.85
84.65,5.92,5.12,5.93,5.13,-5.17,-4.35,-4.40,0.75,0.76,0.80
85.50,5.91,5.15,5.94,5.18,-5.24,-4.40,-4.44,0.67,0.70,0.76
86.35,5.96,5.25,5.97,5.26,-5.30,-4.45,-4.49,0.66,0.67,0.71
87.22,6.05,5.39,6.02,5.36,-5.36,-4.51,-4.54,0.69,0.66,0.66
88.09,6.05,5.44,6.05,5.45,-5.42,-4.56,-4.59,0.63,0.63,0.61
88.97,6.05,5.50,6.06,5.51,-5.49,-4.61,-4.65,0.56,0.57,0.55
89.86,6.05,5.55,6.05,5.55,-5.56,-4.67,-4.71,0.49,0.49,0.50
90.76,6.05,5.60,6.06,5.61,-5.63,-4.72,-4.78,0.42,0.43,0.45
91.66,6.05,5.65,6.06,5.66,-5.68,-4.77,-4.84,0.37,0.38,0.40
92.58,6.05,5.71,6.05,5.70,-5.71,-4.83,-4.92,0.34,0.34,0.34
93.51,6.02,5.73,6.02,5.73,-5.71,-4.88,-4.99,0.31,0.31,0.29
94.44,5.97,5.72,5.98,5.73,-5.69,-4.93,-5.07,0.28,0.29,0.25
95.39,5.90,5.70,5.90,5.70,-5.64,-4.99,-5.15,0.26,0.25,0.20
96.34,5.78,5.63,5.78,5.63,-5.57,-5.04,-5.24,0.21,0.20,0.15
97.30,5.62,5.52,5.61,5.51,-5.49,-5.09,-5.32,0.14,0.13,0.10
98.28,5.42,5.37,5.43,5.38,-5.39,-5.14,-5.41,0.04,0.04,0.05
99.26,5.23,5.22,5.24,5.24,-5.28,-5.19,-5.51,-0.05,-0.03,0.01
100.25,5.10,5.14,5.09,5.14,-5.18,-5.25,-5.60,-0.08,-0.09,-0.04
101.25,4.96,5.05,4.99,5.08,-5.11,-5.30,-5.70,-0.14,-0.12,-0.09
102.27,4.92,5.06,4.91,5.05,-5.06,-5.35,-5.80,-0.14,-0.16,-0.14
103.29,4.84,5.03,4.83,5.02,-5.05,-5.40,-5.90,-0.20,-0.22,-0.19
104.32,4.78,5.01,4.78,5.01,-5.06,-5.45,-6.00,-0.27,-0.28,-0.23
105.37,4.73,5.01,4.78,5.06,-5.08,-5.50,-6.10,-0.35,-0.30,-0.28
106.42,4.80,5.13,4.83,5.16,-5.13,-5.55,-6.20,-0.33,-0.31,-0.33
107.48,4.94,5.33,4.86,5.25,-5.20,-5.60,-6.30,-0.25,-0.33,-0.39
108.56,4.88,5.32,4.87,5.31,-5.27,-5.65,-6.40,-0.39,-0.40,-0.44
109.64,4.80,5.29,4.84,5.34,-5.35,-5.69,-6.49,-0.55,-0.50,-0.49
110.74,4.82,5.37,4.83,5.38,-5.43,-5.74,-6.59,-0.61,-0.60,-0.55
111.85,4.87,5.46,4.88,5.48,-5.51,-5.79,-6.68,-0.64,-0.63,-0.59
112.97,4.98,5.63,4.95,5.60,-5.59,-5.83,-6.76,-0.61,-0.64,-0.65
114.10,5.00,5.70,4.99,5.69,-5.67,-5.88,-6.84,-0.66,-0.68,-0.70
115.24,5.00,5.75,5.00,5.76,-5.75,-5.92,-6.92,-0.74,-0.74,-0.75
116.39,4.99,5.79,5.01,5.81,-5.82,-5.96,-6.98,-0.83,-0.81,-0.80
117.55,5.03,5.87,5.04,5.88,-5.90,-6.00,-7.04,-0.86,-0.86,-0.84
118.73,5.09,5.97,5.08,5.96,-5.95,-6.04,-7.10,-0.86,-0.87,-0.88
119.92,5.11,6.02,5.11,6.03,-5.99,-6.08,-7.14,-0.88,-0.88,-0.91
121.12,5.12,6.07,5.11,6.06,-6.03,-6.12,-7.17,-0.90,-0.91,-0.95
122.33,5.09,6.07,5.09,6.07,-6.06,-6.16,-7.19,-0.97,-0.97,-0.98
123.55,5.05,6.06,5.06,6.08,-6.09,-6.19,-7.21,-1.04,-1.03,-1.01
124.79,5.04,6.08,5.05,6.09,-6.13,-6.23,-7.21,-1.09,-1.08,-1.04
126.03,5.05,6.12,5.04,6.11,-6.16,-6.26,-7.20,-1.10,-1.11,-1.07
127.29,5.06,6.15,5.06,6.16,-6.18,-6.29,-7.18,-1.12,-1.12,-1.09
128.57,5.06,6.19,5.09,6.22,-6.21,-6.32,-7.15,-1.14,-1.12,-1.13
129.85,5.12,6.28,5.11,6.27,-6.23,-6.35,-7.11,-1.11,-1.12,-1.16
131.15,5.13,6.32,5.11,6.30,-6.26,-6.37,-7.06,-1.13,-1.15,-1.19
132.46,5.08,6.30,5.08,6.30,-6.28,-6.40,-7.00,-1.20,-1.20,-1.22
133.79,5.00,6.25,5.03,6.28,-6.30,-6.42,-6.94,-1.30,-1.27,-1.25
135.12,4.99,6.27,5.00,6.28,-6.31,-6.44,-6.86,-1.31,-1.31,-1.28
136.48,4.99,6.29,4.99,6.30,-6.31,-6.46,-6.78,-1.32,-1.32,-1.30
137.84,4.99,6.33,4.97,6.31,-6.31,-6.48,-6.69,-1.31,-1.33,-1.34
139.22,4.94,6.31,4.95,6.32,-6.30,-6.49,-6.59,-1.36,-1.35,-1.37
140.61,4.90,6.30,4.92,6.32,-6.31,-6.51,-6.49,-1.40,-1.39,-1.40
142.02,4.90,6.32,4.89,6.31,-6.31,-6.52,-6.39,-1.41,-1.43,-1.42
143.44,4.86,6.31,4.86,6.31,-6.32,-6.52,-6.28,-1.46,-1.47,-1.45
144.87,4.82,6.31,4.84,6.33,-6.34,-6.53,-6.18,-1.51,-1.50,-1.49
146.32,4.81,6.34,4.82,6.34,-6.35,-6.53,-6.07,-1.54,-1.53,-1.53
147.78,4.81,6.37,4.80,6.37,-6.37,-6.53,-5.95,-1.56,-1.57,-1.56
149.26,4.79,6.40,4.78,6.40,-6.40,-6.53,-5.84,-1.61,-1.62,-1.61
150.75,4.73,6.40,4.75,6.42,-6.44,-6.53,-5.73,-1.70,-1.69,-1.67
152.26,4.71,6.45,4.71,6.45,-6.47,-6.52,-5.62,-1.76,-1.76,-1.74
153.78,4.67,6.48,4.68,6.49,-6.50,-6.51,-5.50,-1.83,-1.82,-1.81
155.32,4.63,6.51,4.63,6.52,-6.51,-6.50,-5.39,-1.88,-1.88,-1.88
156.88,4.58,6.54,4.55,6.51,-6.49,-6.48,-5.29,-1.91,-1.94,-1.96
158.44,4.43,6.47,4.47,6.51,-6.44,-6.47,-5.18,-2.01,-1.97,-2.04
160.03,4.33,6.45,4.35,6.47,-6.36,-6.45,-5.07,-2.03,-2.02,-2.12
161.63,4.24,6.43,4.17,6.36,-6.28,-6.42,-4.97,-2.04,-2.11,-2.19
163.24,3.96,6.21,3.96,6.21,-6.20,-6.40,-4.87,-2.24,-2.25,-2.25
164.88,3.70,6.00,3.74,6.04,-6.13,-6.37,-4.78,-2.43,-2.40,-2.30
166.53,3.54,5.89,3.57,5.93,-6.08,-6.33,-4.68,-2.54,-2.51,-2.35
168.19,3.53,5.92,3.53,5.93,-6.05,-6.30,-4.59,-2.52,-2.52,-2.39
169.87,3.58,6.01,3.57,6.00,-6.04,-6.26,-4.51,-2.46,-2.47,-2.43
171.57,3.64,6.09,3.64,6.09,-6.06,-6.22,-4.42,-2.41,-2.41,-2.45
173.29,3.70,6.16,3.69,6.15,-6.08,-6.17,-4.34,-2.38,-2.39,-2.46
175.02,3.71,6.18,3.71,6.19,-6.11,-6.13,-4.27,-2.40,-2.40,-2.47
176.77,3.70,6.18,3.71,6.19,-6.13,-6.07,-4.19,-2.43,-2.42,-2.48
178.54,3.67,6.16,3.67,6.16,-6.13,-6.02,-4.12,-2.46,-2.46,-2.49
180.32,3.63,6.11,3.62,6.10,-6.11,-5.96,-4.05,-2.47,-2.48,-2.48
182.13,3.56,6.03,3.56,6.04,-6.06,-5.90,-3.99,-2.50,-2.50,-2.47
183.95,3.48,5.96,3.50,5.98,-6.01,-5.84,-3.93,-2.53,-2.51,-2.48
185.79,3.46,5.94,3.45,5.94,-5.96,-5.77,-3.87,-2.50,-2.51,-2.48
187.65,3.39,5.89,3.41,5.91,-5.91,-5.70,-3.82,-2.52,-2.51,-2.50
189.52,3.38,5.89,3.35,5.86,-5.87,-5.63,-3.76,-2.49,-2.53,-2.51
191.42,3.28,5.81,3.29,5.82,-5.83,-5.55,-3.71,-2.55,-2.55,-2.53
193.33,3.19,5.74,3.24,5.80,-5.80,-5.48,-3.67,-2.60,-2.55,-2.55
195.27,3.21,5.78,3.19,5.76,-5.75,-5.39,-3.62,-2.54,-2.56,-2.57
197.22,3.16,5.75,3.12,5.71,-5.69,-5.31,-3.58,-2.53,-2.57,-2.59
199.19,3.01,5.62,3.04,5.66,-5.62,-5.22,-3.54,-2.61,-2.58,-2.61
201.18,2.90,5.53,2.94,5.57,-5.54,-5.13,-3.50,-2.64,-2.60,-2.63
203.19,2.86,5.51,2.82,5.47,-5.46,-5.03,-3.47,-2.59,-2.64,-2.65
205.23,2.70,5.37,2.69,5.36,-5.37,-4.94,-3.43,-2.67,-2.68,-2.67
207.28,2.52,5.20,2.55,5.24,-5.27,-4.84,-3.40,-2.75,-2.72,-2.68
209.35,2.41,5.11,2.42,5.13,-5.17,-4.73,-3.37,-2.76,-2.75,-2.70
211.44,2.32,5.05,2.32,5.05,-5.07,-4.63,-3.33,-2.75,-2.75,-2.73
213.56,2.26,5.00,2.25,4.99,-4.97,-4.52,-3.30,-2.71,-2.72,-2.74
215.69,2.15,4.90,2.16,4.91,-4.87,-4.41,-3.27,-2.72,-2.72,-2.75
217.85,2.05,4.81,2.03,4.79,-4.77,-4.29,-3.24,-2.72,-2.74,-2.76
220.03,1.87,4.64,1.88,4.66,-4.66,-4.17,-3.21,-2.79,-2.78,-2.77
222.23,1.72,4.52,1.74,4.53,-4.54,-4.05,-3.18,-2.82,-2.80,-2.80
224.45,1.60,4.39,1.62,4.42,-4.42,-3.93,-3.14,-2.81,-2.80,-2.79
226.70,1.51,4.30,1.49,4.28,-4.28,-3.81,-3.10,-2.76,-2.78,-2.79
228.96,1.39,4.17,1.34,4.12,-4.12,-3.68,-3.07,-2.73,-2.78,-2.78
231.25,1.14,3.91,1.20,3.98,-3.97,-3.54,-3.03,-2.83,-2.77,-2.77
233.57,1.05,3.81,1.08,3.85,-3.83,-3.41,-2.98,-2.78,-2.75,-2.76
235.90,0.99,3.74,0.94,3.69,-3.70,-3.27,-2.94,-2.71,-2.76,-2.75
238.26,0.84,3.58,0.78,3.52,-3.56,-3.13,-2.89,-2.72,-2.78,-2.74
240.64,0.56,3.27,0.63,3.34,-3.41,-2.99,-2.84,-2.85,-2.78,-2.71
243.05,0.46,3.14,0.55,3.24,-3.24,-2.85,-2.78,-2.78,-2.69,-2.68
245.48,0.53,3.19,0.48,3.14,-3.08,-2.70,-2.72,-2.55,-2.60,-2.66
247.93,0.50,3.13,0.39,3.02,-2.91,-2.55,-2.66,-2.41,-2.52,-2.63
250.41,0.14,2.75,0.19,2.80,-2.75,-2.39,-2.59,-2.61,-2.56,-2.61
252.92,-0.09,2.49,-0.06,2.52,-2.58,-2.24,-2.51,-2.67,-2.65,-2.58
255.45,-0.30,2.26,-0.27,2.29,-2.41,-2.08,-2.44,-2.71,-2.68,-2.56
258.00,-0.38,2.16,-0.38,2.16,-2.22,-1.92,-2.36,-2.60,-2.60,-2.54
260.58,-0.46,2.06,-0.46,2.05,-2.03,-1.76,-2.27,-2.49,-2.49,-2.52
263.19,-0.57,1.92,-0.58,1.92,-1.84,-1.59,-2.18,-2.41,-2.42,-2.49
265.82,-0.73,1.74,-0.77,1.71,-1.66,-1.42,-2.09,-2.38,-2.42,-2.47
268.48,-1.02,1.43,-1.00,1.45,-1.47,-1.25,-1.99,-2.49,-2.47,-2.45
271.16,-1.25,1.17,-1.23,1.20,-1.27,-1.08,-1.89,-2.52,-2.50,-2.42
273.87,-1.44,0.96,-1.39,1.01,-1.03,-0.90,-1.78,-2.46,-2.42,-2.40
276.61,-1.54,0.83,-1.55,0.83,-0.75,-0.72,-1.67,-2.29,-2.30,-2.37
279.38,-1.65,0.69,-1.73,0.62,-0.47,-0.54,-1.56,-2.12,-2.20,-2.34
282.17,-2.06,0.26,-2.03,0.28,-0.20,-0.36,-1.45,-2.26,-2.24,-2.32
284.99,-2.33,-0.05,-2.39,-0.11,0.06,-0.18,-1.33,-2.27,-2.34,-2.28
287.84,-2.84,-0.58,-2.70,-0.44,0.30,0.01,-1.21,-2.54,-2.40,-2.26
290.72,-2.90,-0.67,-2.90,-0.67,0.54,0.20,-1.08,-2.36,-2.37,-2.23
293.63,-2.98,-0.78,-3.04,-0.84,0.77,0.39,-0.96,-2.21,-2.27,-2.20
296.57,-3.13,-0.96,-3.11,-0.93,0.98,0.58,-0.83,-2.14,-2.12,-2.17
299.53,-3.24,-1.10,-3.24,-1.10,1.18,0.78,-0.70,-2.06,-2.07,-2.14
302.53,-3.39,-1.27,-3.39,-1.28,1.35,0.98,-0.57,-2.04,-2.05,-2.12
305.55,-3.57,-1.49,-3.57,-1.48,1.51,1.17,-0.44,-2.06,-2.06,-2.08
308.61,-3.75,-1.69,-3.76,-1.70,1.68,1.37,-0.30,-2.07,-2.08,-2.06
311.69,-3.97,-1.94,-3.93,-1.90,1.87,1.57,-0.17,-2.10,-2.06,-2.03
314.81,-4.10,-2.09,-4.09,-2.07,2.06,1.77,-0.03,-2.04,-2.03,-2.01
317.96,-4.20,-2.21,-4.24,-2.25,2.26,1.97,0.11,-1.94,-1.99,-1.99
321.14,-4.41,-2.43,-4.40,-2.43,2.45,2.18,0.25,-1.96,-1.96,-1.98
324.35,-4.61,-2.65,-4.60,-2.63,2.63,2.38,0.39,-1.97,-1.97,-1.96
327.59,-4.79,-2.84,-4.79,-2.84,2.82,2.58,0.53,-1.97,-1.97,-1.95
330.87,-4.97,-3.03,-4.94,-3.00,3.01,2.78,0.68,-1.96,-1.93,-1.94
334.18,-5.08,-3.16,-5.10,-3.17,3.20,2.98,0.82,-1.88,-1.90,-1.92
337.52,-5.24,-3.33,-5.27,-3.36,3.38,3.18,0.97,-1.86,-1.90,-1.91
340.90,-5.48,-3.58,-5.46,-3.56,3.55,3.37,1.12,-1.93,-1.91,-1.90
344.30,-5.67,-3.78,-5.64,-3.75,3.71,3.57,1.27,-1.96,-1.93,-1.89
347.75,-5.79,-3.90,-5.79,-3.90,3.87,3.76,1.42,-1.92,-1.93,-1.89
351.23,-5.90,-4.02,-5.90,-4.02,4.02,3.94,1.57,-1.88,-1.89,-1.88
354.74,-6.02,-4.13,-6.01,-4.12,4.16,4.12,1.72,-1.86,-1.85,-1.89
358.28,-6.12,-4.24,-6.13,-4.25,4.28,4.30,1.88,-1.84,-1.86,-1.88
361.87,-6.26,-4.38,-6.27,-4.39,4.38,4.47,2.03,-1.87,-1.89,-1.88
365.49,-6.42,-4.55,-6.39,-4.52,4.48,4.64,2.19,-1.94,-1.91,-1.87
369.14,-6.51,-4.63,-6.49,-4.61,4.58,4.80,2.35,-1.93,-1.92,-1.88
372.83,-6.55,-4.67,-6.56,-4.68,4.68,4.95,2.50,-1.87,-1.88,-1.88
376.56,-6.62,-4.73,-6.61,-4.73,4.79,5.09,2.67,-1.83,-1.83,-1.89
380.33,-6.69,-4.81,-6.69,-4.81,4.89,5.22,2.83,-1.79,-1.80,-1.88
384.13,-6.79,-4.91,-6.81,-4.92,4.98,5.34,2.99,-1.80,-1.83,-1.88
387.97,-6.94,-5.05,-6.94,-5.05,5.05,5.45,3.15,-1.88,-1.89,-1.89
391.85,-7.08,-5.18,-7.05,-5.15,5.09,5.56,3.32,-1.98,-1.95,-1.90
395.77,-7.11,-5.22,-7.11,-5.21,5.10,5.65,3.48,-2.01,-2.01,-1.89
399.73,-7.08,-5.18,-7.09,-5.19,5.07,5.73,3.65,-2.00,-2.02,-1.90
403.72,-7.03,-5.13,-7.01,-5.10,5.02,5.79,3.81,-2.00,-1.99,-1.90
407.76,-6.89,-4.97,-6.87,-4.96,4.95,5.85,3.98,-1.94,-1.92,-1.92
411.84,-6.72,-4.80,-6.71,-4.79,4.85,5.89,4.14,-1.86,-1.86,-1.92
415.96,-6.54,-4.62,-6.58,-4.66,4.75,5.92,4.31,-1.78,-1.83,-1.92
420.12,-6.50,-4.58,-6.51,-4.59,4.67,5.94,4.47,-1.83,-1.85,-1.92
424.32,-6.53,-4.61,-6.50,-4.59,4.62,5.95,4.63,-1.91,-1.89,-1.92
428.56,-6.53,-4.62,-6.51,-4.60,4.61,5.95,4.79,-1.92,-1.91,-1.91
432.85,-6.52,-4.62,-6.51,-4.60,4.63,5.94,4.94,-1.89,-1.88,-1.90
437.18,-6.49,-4.60,-6.50,-4.62,4.66,5.92,5.09,-1.83,-1.85,-1.89
441.55,-6.52,-4.67,-6.54,-4.69,4.69,5.88,5.24,-1.82,-1.85,-1.85
445.96,-6.61,-4.79,-6.63,-4.80,4.73,5.84,5.38,-1.88,-1.89,-1.82
450.42,-6.70,-4.91,-6.66,-4.88,4.77,5.80,5.51,-1.93,-1.90,-1.79
454.93,-6.69,-4.95,-6.60,-4.85,4.80,5.74,5.64,-1.89,-1.80,-1.74
459.48,-6.45,-4.75,-6.48,-4.78,4.82,5.68,5.75,-1.63,-1.66,-1.70
464.07,-6.31,-4.66,-6.40,-4.75,4.84,5.61,5.86,-1.47,-1.56,-1.65
468.71,-6.39,-4.80,-6.40,-4.80,4.85,5.54,5.96,-1.54,-1.55,-1.59
473.40,-6.50,-4.95,-6.43,-4.88,4.86,5.46,6.05,-1.64,-1.57,-1.55
478.13,-6.46,-4.97,-6.39,-4.89,4.87,5.38,6.12,-1.59,-1.52,-1.49
482.91,-6.26,-4.81,-6.34,-4.89,4.88,5.29,6.18,-1.38,-1.46,-1.45
487.74,-6.20,-4.79,-6.28,-4.88,4.90,5.20,6.23,-1.30,-1.38,-1.41
492.62,-6.39,-5.03,-6.26,-4.89,4.91,5.11,6.26,-1.48,-1.35,-1.36
497.55,-6.26,-4.92,-6.28,-4.95,4.90,5.02,6.28,-1.35,-1.38,-1.34
