frequency,raw,error,smoothed,error_smoothed,equalization,parametric_eq,fixed_band_eq,equalized_raw,equalized_smoothed,target
20.00,-8.87,-8.10,-8.87,-8.13,8.13,7.46,1.02,-0.75,-0.74,-0.77
20.20,-8.71,-7.98,-8.71,-8.00,8.00,7.47,1.06,-0.71,-0.71,-0.73
20.40,-8.55,-7.86,-8.55,-7.87,7.87,7.46,1.10,-0.68,-0.68,-0.69
20.61,-8.40,-7.74,-8.39,-7.74,7.74,7.43,1.13,-0.66,-0.66,-0.66
20.81,-8.23,-7.61,-8.23,-7.60,7.60,7.39,1.17,-0.63,-0.63,-0.62
21.02,-8.07,-7.49,-8.07,-7.47,7.47,7.33,1.21,-0.60,-0.60,-0.58
21.23,-7.91,-7.35,-7.91,-7.33,7.33,7.26,1.25,-0.58,-0.58,-0.56
21.44,-7.75,-7.21,-7.75,-7.19,7.19,7.17,1.30,-0.56,-0.56,-0.54
21.66,-7.59,-7.07,-7.59,-7.05,7.05,7.07,1.34,-0.54,-0.54,-0.52
21.87,-7.43,-6.92,-7.43,-6.91,6.91,6.95,1.39,-0.52,-0.52,-0.51
22.09,-7.27,-6.78,-7.27,-6.77,6.77,6.82,1.43,-0.50,-0.50,-0.49
22.31,-7.11,-6.63,-7.11,-6.62,6.62,6.68,1.48,-0.49,-0.49,-0.48
22.54,-6.94,-6.47,-6.94,-6.47,6.47,6.53,1.53,-0.47,-0.47,-0.47
22.76,-6.78,-6.32,-6.78,-6.32,6.32,6.37,1.58,-0.46,-0.46,-0.47
22.99,-6.62,-6.16,-6.62,-6.16,6.16,6.21,1.64,-0.46,-0.46,-0.47
23.22,-6.45,-6.00,-6.46,-6.01,6.01,6.03,1.69,-0.44,-0.45,-0.46
23.45,-6.29,-5.84,-6.29,-5.85,5.85,5.85,1.74,-0.44,-0.44,-0.45
23.69,-6.13,-5.70,-6.13,-5.70,5.70,5.66,1.80,-0.44,-0.43,-0.44
23.92,-5.96,-5.53,-5.96,-5.54,5.54,5.47,1.85,-0.42,-0.42,-0.43
24.16,-5.80,-5.39,-5.80,-5.39,5.39,5.28,1.91,-0.41,-0.41,-0.41
24.40,-5.63,-5.24,-5.63,-5.23,5.23,5.08,1.97,-0.40,-0.40,-0.39
24.65,-5.47,-5.08,-5.47,-5.08,5.08,4.89,2.03,-0.40,-0.39,-0.39
24.89,-5.30,-4.92,-5.30,-4.92,4.92,4.69,2.09,-0.38,-0.38,-0.38
25.14,-5.14,-4.77,-5.14,-4.77,4.77,4.49,2.15,-0.37,-0.37,-0.37
25.39,-4.97,-4.61,-4.97,-4.61,4.61,4.29,2.20,-0.36,-0.36,-0.36
25.65,-4.81,-4.47,-4.81,-4.46,4.46,4.10,2.26,-0.36,-0.35,-0.35
25.91,-4.65,-4.30,-4.64,-4.30,4.30,3.90,2.32,-0.35,-0.34,-0.35
26.16,-4.47,-4.13,-4.48,-4.14,4.14,3.70,2.38,-0.33,-0.33,-0.34
26.43,-4.31,-3.99,-4.31,-3.99,3.99,3.51,2.43,-0.33,-0.32,-0.33
26.69,-4.14,-3.82,-4.14,-3.83,3.83,3.32,2.49,-0.31,-0.32,-0.32
26.96,-3.98,-3.68,-3.98,-3.67,3.67,3.13,2.54,-0.31,-0.31,-0.30
27.23,-3.81,-3.52,-3.81,-3.51,3.51,2.95,2.59,-0.30,-0.30,-0.29
27.50,-3.64,-3.36,-3.65,-3.36,3.36,2.76,2.63,-0.29,-0.29,-0.28
27.77,-3.48,-3.19,-3.48,-3.20,3.20,2.58,2.68,-0.28,-0.28,-0.29
28.05,-3.31,-3.04,-3.31,-3.04,3.04,2.40,2.72,-0.27,-0.27,-0.27
28.33,-3.15,-2.88,-3.15,-2.88,2.88,2.23,2.75,-0.27,-0.27,-0.27
28.62,-2.98,-2.72,-2.98,-2.73,2.73,2.06,2.78,-0.26,-0.26,-0.26
28.90,-2.82,-2.57,-2.82,-2.57,2.57,1.89,2.81,-0.25,-0.25,-0.25
29.19,-2.65,-2.40,-2.66,-2.41,2.41,1.72,2.83,-0.24,-0.24,-0.25
29.48,-2.49,-2.26,-2.49,-2.25,2.25,1.56,2.84,-0.24,-0.24,-0.23
29.78,-2.32,-2.10,-2.33,-2.10,2.10,1.40,2.85,-0.23,-0.23,-0.23
30.08,-2.16,-1.94,-2.17,-1.94,1.94,1.24,2.85,-0.22,-0.22,-0.22
30.38,-2.00,-1.78,-2.00,-1.79,1.79,1.09,2.84,-0.22,-0.22,-0.22
30.68,-1.84,-1.64,-1.84,-1.63,1.63,0.94,2.83,-0.21,-0.21,-0.20
30.99,-1.68,-1.48,-1.68,-1.48,1.48,0.79,2.81,-0.21,-0.20,-0.21
31.30,-1.52,-1.32,-1.52,-1.32,1.32,0.64,2.78,-0.20,-0.20,-0.20
31.61,-1.36,-1.17,-1.36,-1.17,1.17,0.50,2.74,-0.19,-0.19,-0.19
31.93,-1.20,-1.02,-1.20,-1.02,1.02,0.36,2.70,-0.19,-0.18,-0.18
32.24,-1.04,-0.85,-1.04,-0.87,0.87,0.23,2.65,-0.17,-0.18,-0.19
32.57,-0.89,-0.72,-0.88,-0.71,0.71,0.09,2.59,-0.18,-0.17,-0.17
32.89,-0.73,-0.57,-0.72,-0.56,0.56,-0.04,2.52,-0.17,-0.16,-0.16
33.22,-0.57,-0.42,-0.57,-0.41,0.41,-0.17,2.45,-0.16,-0.16,-0.16
33.55,-0.41,-0.26,-0.41,-0.26,0.26,-0.29,2.37,-0.15,-0.15,-0.15
33.89,-0.25,-0.11,-0.26,-0.11,0.11,-0.41,2.28,-0.14,-0.14,-0.14
34.23,-0.10,0.03,-0.10,0.04,-0.04,-0.53,2.19,-0.14,-0.14,-0.14
34.57,0.06,0.19,0.05,0.18,-0.18,-0.65,2.09,-0.13,-0.13,-0.13
34.92,0.21,0.34,0.20,0.33,-0.33,-0.77,1.98,-0.12,-0.13,-0.13
35.27,0.36,0.48,0.35,0.47,-0.47,-0.88,1.88,-0.12,-0.13,-0.13
35.62,0.50,0.62,0.50,0.62,-0.62,-0.99,1.76,-0.12,-0.12,-0.12
35.97,0.64,0.76,0.64,0.76,-0.76,-1.10,1.64,-0.12,-0.12,-0.12
36.33,0.78,0.90,0.78,0.90,-0.90,-1.20,1.52,-0.12,-0.12,-0.12
36.70,0.92,1.04,0.92,1.04,-1.04,-1.31,1.40,-0.13,-0.12,-0.12
37.06,1.06,1.18,1.06,1.18,-1.18,-1.41,1.27,-0.12,-0.12,-0.12
37.43,1.20,1.31,1.19,1.32,-1.32,-1.51,1.14,-0.12,-0.12,-0.11
37.81,1.33,1.45,1.33,1.45,-1.45,-1.61,1.01,-0.12,-0.12,-0.12
38.19,1.46,1.58,1.46,1.58,-1.58,-1.70,0.87,-0.13,-0.13,-0.12
38.57,1.59,1.72,1.59,1.72,-1.72,-1.79,0.74,-0.13,-0.13,-0.13
38.95,1.72,1.85,1.71,1.85,-1.85,-1.89,0.60,-0.13,-0.13,-0.13
39.34,1.84,1.98,1.84,1.97,-1.97,-1.98,0.46,-0.14,-0.13,-0.14
39.74,1.96,2.10,1.96,2.10,-2.10,-2.06,0.32,-0.14,-0.14,-0.15
40.14,2.08,2.22,2.08,2.22,-2.22,-2.15,0.18,-0.15,-0.14,-0.14
40.54,2.20,2.34,2.20,2.34,-2.34,-2.23,0.03,-0.15,-0.15,-0.15
40.94,2.31,2.46,2.31,2.46,-2.46,-2.31,-0.11,-0.16,-0.15,-0.15
41.35,2.43,2.59,2.43,2.58,-2.58,-2.40,-0.26,-0.15,-0.15,-0.16
41.76,2.54,2.70,2.53,2.69,-2.69,-2.47,-0.40,-0.16,-0.16,-0.16
42.18,2.64,2.79,2.64,2.81,-2.81,-2.55,-0.55,-0.17,-0.16,-0.16
42.60,2.75,2.91,2.74,2.91,-2.91,-2.63,-0.70,-0.16,-0.17,-0.16
43.03,2.85,3.01,2.84,3.02,-3.02,-2.70,-0.85,-0.17,-0.17,-0.16
43.46,2.94,3.11,2.94,3.12,-3.12,-2.77,-1.00,-0.18,-0.18,-0.17
43.90,3.03,3.22,3.03,3.21,-3.21,-2.84,-1.15,-0.19,-0.18,-0.19
44.33,3.12,3.31,3.12,3.31,-3.31,-2.91,-1.30,-0.19,-0.19,-0.19
44.78,3.21,3.41,3.20,3.39,-3.39,-2.98,-1.46,-0.19,-0.19,-0.20
45.23,3.29,3.49,3.28,3.48,-3.48,-3.05,-1.61,-0.19,-0.20,-0.21
45.68,3.37,3.58,3.36,3.56,-3.56,-3.11,-1.77,-0.19,-0.20,-0.21
46.13,3.44,3.66,3.43,3.64,-3.64,-3.18,-1.92,-0.20,-0.21,-0.22
46.60,3.50,3.71,3.50,3.71,-3.71,-3.24,-2.08,-0.22,-0.22,-0.21
47.06,3.56,3.78,3.56,3.79,-3.79,-3.30,-2.23,-0.23,-0.23,-0.22
47.53,3.62,3.85,3.62,3.85,-3.85,-3.36,-2.39,-0.24,-0.23,-0.23
48.01,3.68,3.90,3.68,3.92,-3.92,-3.42,-2.55,-0.24,-0.25,-0.22
48.49,3.73,3.97,3.73,3.99,-3.99,-3.48,-2.71,-0.26,-0.26,-0.25
48.97,3.78,4.05,3.78,4.05,-4.05,-3.53,-2.87,-0.27,-0.27,-0.27
49.46,3.82,4.10,3.83,4.11,-4.11,-3.59,-3.03,-0.29,-0.28,-0.28
49.96,3.87,4.17,3.87,4.17,-4.17,-3.64,-3.19,-0.30,-0.30,-0.31
50.46,3.90,4.21,3.91,4.22,-4.22,-3.69,-3.35,-0.33,-0.31,-0.31
50.96,3.94,4.26,3.95,4.28,-4.28,-3.74,-3.51,-0.34,-0.33,-0.33
51.47,3.98,4.34,3.98,4.33,-4.33,-3.79,-3.66,-0.35,-0.35,-0.36
51.99,4.02,4.39,4.01,4.38,-4.38,-3.84,-3.82,-0.36,-0.37,-0.38
52.51,4.05,4.43,4.04,4.43,-4.43,-3.89,-3.98,-0.38,-0.39,-0.38
53.03,4.07,4.48,4.06,4.47,-4.47,-3.94,-4.13,-0.40,-0.41,-0.41
53.56,4.08,4.51,4.07,4.51,-4.51,-3.98,-4.28,-0.43,-0.44,-0.43
54.10,4.09,4.54,4.08,4.54,-4.54,-4.03,-4.43,-0.45,-0.46,-0.46
54.64,4.10,4.57,4.09,4.57,-4.57,-4.07,-4.58,-0.47,-0.48,-0.48
55.18,4.11,4.61,4.09,4.59,-4.59,-4.11,-4.72,-0.48,-0.50,-0.51
55.74,4.10,4.63,4.09,4.61,-4.61,-4.15,-4.86,-0.51,-0.52,-0.54
56.29,4.08,4.62,4.08,4.63,-4.63,-4.19,-4.99,-0.55,-0.55,-0.55
56.86,4.07,4.65,4.07,4.64,-4.64,-4.23,-5.12,-0.58,-0.57,-0.58
57.42,4.05,4.66,4.05,4.65,-4.65,-4.27,-5.24,-0.61,-0.60,-0.61
58.00,4.03,4.66,4.04,4.67,-4.67,-4.31,-5.35,-0.64,-0.63,-0.63
58.58,4.01,4.66,4.02,4.68,-4.68,-4.34,-5.46,-0.67,-0.66,-0.66
59.16,4.00,4.68,4.00,4.69,-4.69,-4.38,-5.55,-0.69,-0.69,-0.68
59.76,3.98,4.68,3.98,4.70,-4.70,-4.41,-5.64,-0.72,-0.72,-0.71
60.35,3.96,4.70,3.96,4.71,-4.71,-4.45,-5.72,-0.75,-0.76,-0.74
60.96,3.93,4.71,3.93,4.72,-4.72,-4.48,-5.79,-0.80,-0.79,-0.78
61.57,3.91,4.73,3.91,4.74,-4.74,-4.51,-5.85,-0.83,-0.83,-0.83
62.18,3.89,4.76,3.89,4.75,-4.75,-4.54,-5.91,-0.87,-0.87,-0.87
62.80,3.87,4.77,3.86,4.77,-4.77,-4.57,-5.95,-0.90,-0.91,-0.90
63.43,3.84,4.79,3.84,4.78,-4.78,-4.60,-5.98,-0.95,-0.95,-0.95
64.07,3.82,4.81,3.81,4.80,-4.80,-4.62,-6.00,-0.98,-0.99,-0.99
64.71,3.78,4.81,3.79,4.82,-4.82,-4.65,-6.01,-1.04,-1.03,-1.04
65.35,3.76,4.84,3.76,4.83,-4.83,-4.68,-6.01,-1.08,-1.08,-1.08
66.01,3.74,4.86,3.73,4.85,-4.85,-4.70,-6.00,-1.11,-1.12,-1.12
66.67,3.71,4.87,3.70,4.87,-4.87,-4.72,-5.99,-1.16,-1.17,-1.16
67.33,3.67,4.87,3.67,4.88,-4.88,-4.74,-5.97,-1.22,-1.21,-1.20
68.01,3.64,4.89,3.64,4.90,-4.90,-4.77,-5.94,-1.26,-1.25,-1.25
68.69,3.61,4.90,3.61,4.91,-4.91,-4.79,-5.90,-1.30,-1.30,-1.30
69.37,3.57,4.91,3.58,4.92,-4.92,-4.80,-5.86,-1.35,-1.34,-1.35
70.07,3.54,4.93,3.54,4.93,-4.93,-4.82,-5.82,-1.40,-1.39,-1.39
70.77,3.51,4.94,3.51,4.94,-4.94,-4.84,-5.77,-1.43,-1.43,-1.43
71.48,3.48,4.95,3.47,4.95,-4.95,-4.85,-5.71,-1.47,-1.48,-1.48
72.19,3.45,4.98,3.43,4.95,-4.95,-4.87,-5.66,-1.51,-1.52,-1.53
72.91,3.41,4.98,3.39,4.96,-4.96,-4.88,-5.60,-1.55,-1.57,-1.57
73.64,3.35,4.96,3.35,4.96,-4.96,-4.90,-5.54,-1.61,-1.61,-1.62
74.38,3.30,4.95,3.30,4.96,-4.96,-4.91,-5.48,-1.66,-1.65,-1.65
75.12,3.25,4.94,3.26,4.95,-4.95,-4.92,-5.42,-1.70,-1.69,-1.70
75.87,3.21,4.94,3.21,4.94,-4.94,-4.92,-5.36,-1.73,-1.73,-1.73
76.63,3.16,4.93,3.16,4.93,-4.93,-4.93,-5.30,-1.77,-1.77,-1.77
77.40,3.11,4.92,3.11,4.92,-4.92,-4.94,-5.24,-1.81,-1.81,-1.81
78.17,3.06,4.91,3.06,4.90,-4.90,-4.94,-5.18,-1.85,-1.85,-1.85
78.95,3.01,4.89,3.01,4.89,-4.89,-4.95,-5.12,-1.88,-1.88,-1.88
79.74,2.97,4.88,2.96,4.87,-4.87,-4.95,-5.07,-1.91,-1.92,-1.91
80.54,2.91,4.85,2.91,4.86,-4.86,-4.95,-5.02,-1.95,-1.95,-1.95
81.35,2.86,4.84,2.86,4.84,-4.84,-4.95,-4.97,-1.98,-1.98,-1.98
82.16,2.80,4.81,2.81,4.82,-4.82,-4.95,-4.92,-2.03,-2.01,-2.02
82.98,2.75,4.79,2.76,4.80,-4.80,-4.95,-4.88,-2.06,-2.04,-2.04
83.81,2.71,4.78,2.71,4.79,-4.79,-4.94,-4.84,-2.08,-2.08,-2.08
84.65,2.67,4.78,2.66,4.77,-4.77,-4.94,-4.80,-2.10,-2.11,-2.11
85.50,2.63,4.76,2.61,4.75,-4.75,-4.93,-4.77,-2.12,-2.13,-2.13
86.35,2.58,4.74,2.57,4.73,-4.73,-4.92,-4.74,-2.15,-2.16,-2.16
87.22,2.53,4.72,2.53,4.71,-4.71,-4.91,-4.71,-2.19,-2.19,-2.19
88.09,2.48,4.70,2.48,4.70,-4.70,-4.90,-4.69,-2.22,-2.22,-2.22
88.97,2.43,4.67,2.44,4.69,-4.69,-4.89,-4.67,-2.26,-2.24,-2.24
89.86,2.39,4.65,2.40,4.68,-4.68,-4.88,-4.65,-2.29,-2.27,-2.26
90.76,2.36,4.67,2.37,4.67,-4.67,-4.86,-4.64,-2.31,-2.30,-2.31
91.66,2.32,4.65,2.33,4.66,-4.66,-4.85,-4.63,-2.34,-2.33,-2.33
92.58,2.29,4.65,2.29,4.65,-4.65,-4.83,-4.62,-2.36,-2.36,-2.36
93.51,2.26,4.64,2.25,4.64,-4.64,-4.81,-4.62,-2.38,-2.39,-2.38
94.44,2.23,4.64,2.22,4.63,-4.63,-4.80,-4.62,-2.41,-2.42,-2.41
95.39,2.19,4.63,2.18,4.63,-4.63,-4.78,-4.63,-2.44,-2.45,-2.44
96.34,2.16,4.64,2.15,4.63,-4.63,-4.76,-4.64,-2.47,-2.48,-2.48
97.30,2.12,4.64,2.11,4.63,-4.63,-4.74,-4.65,-2.51,-2.52,-2.52
98.28,2.08,4.64,2.08,4.63,-4.63,-4.73,-4.66,-2.55,-2.55,-2.56
99.26,2.04,4.63,2.04,4.63,-4.63,-4.71,-4.68,-2.59,-2.59,-2.59
100.25,2.00,4.63,2.00,4.63,-4.63,-4.69,-4.69,-2.63,-2.63,-2.63
101.25,1.95,4.62,1.96,4.63,-4.63,-4.68,-4.72,-2.68,-2.67,-2.67
102.27,1.91,4.62,1.91,4.63,-4.63,-4.66,-4.74,-2.72,-2.71,-2.72
103.29,1.89,4.65,1.87,4.63,-4.63,-4.65,-4.77,-2.74,-2.76,-2.76
104.32,1.86,4.66,1.83,4.63,-4.63,-4.64,-4.79,-2.78,-2.81,-2.80
105.37,1.81,4.66,1.78,4.64,-4.64,-4.64,-4.82,-2.83,-2.86,-2.85
106.42,1.74,4.64,1.74,4.65,-4.65,-4.63,-4.85,-2.91,-2.91,-2.91
107.48,1.69,4.64,1.70,4.66,-4.66,-4.63,-4.89,-2.98,-2.96,-2.95
108.56,1.64,4.66,1.66,4.68,-4.68,-4.63,-4.92,-3.04,-3.02,-3.02
109.64,1.59,4.67,1.62,4.70,-4.70,-4.64,-4.95,-3.11,-3.08,-3.08
110.74,1.57,4.70,1.58,4.73,-4.73,-4.65,-4.99,-3.16,-3.15,-3.14
111.85,1.54,4.74,1.54,4.76,-4.76,-4.67,-5.02,-3.22,-3.21,-3.20
112.97,1.51,4.79,1.51,4.79,-4.79,-4.68,-5.06,-3.28,-3.28,-3.28
114.10,1.48,4.82,1.47,4.82,-4.82,-4.71,-5.09,-3.34,-3.34,-3.34
115.24,1.45,4.86,1.44,4.85,-4.85,-4.73,-5.12,-3.40,-3.41,-3.41
116.39,1.42,4.91,1.41,4.89,-4.89,-4.76,-5.16,-3.47,-3.48,-3.49
117.55,1.39,4.94,1.38,4.93,-4.93,-4.80,-5.19,-3.54,-3.55,-3.56
118.73,1.36,4.99,1.35,4.97,-4.97,-4.84,-5.21,-3.61,-3.62,-3.63
119.92,1.33,5.01,1.32,5.01,-5.01,-4.88,-5.24,-3.68,-3.69,-3.68
121.12,1.30,5.06,1.29,5.04,-5.04,-4.92,-5.27,-3.75,-3.75,-3.76
122.33,1.28,5.10,1.27,5.08,-5.08,-4.97,-5.29,-3.80,-3.82,-3.82
123.55,1.25,5.12,1.24,5.12,-5.12,-5.02,-5.31,-3.87,-3.88,-3.87
124.79,1.22,5.15,1.22,5.16,-5.16,-5.07,-5.33,-3.94,-3.94,-3.94
126.03,1.18,5.18,1.19,5.20,-5.20,-5.13,-5.35,-4.02,-4.00,-4.00
127.29,1.17,5.23,1.18,5.24,-5.24,-5.18,-5.36,-4.07,-4.06,-4.06
128.57,1.15,5.28,1.16,5.28,-5.28,-5.24,-5.37,-4.13,-4.12,-4.13
129.85,1.13,5.31,1.15,5.32,-5.32,-5.29,-5.38,-4.19,-4.17,-4.18
131.15,1.12,5.35,1.14,5.37,-5.37,-5.35,-5.39,-4.25,-4.23,-4.24
132.46,1.13,5.41,1.13,5.41,-5.41,-5.41,-5.40,-4.29,-4.28,-4.28
133.79,1.13,5.46,1.13,5.46,-5.46,-5.47,-5.40,-4.34,-4.34,-4.33
135.12,1.14,5.52,1.13,5.51,-5.51,-5.53,-5.41,-4.38,-4.38,-4.39
136.48,1.14,5.57,1.13,5.56,-5.56,-5.58,-5.41,-4.43,-4.43,-4.43
137.84,1.14,5.62,1.13,5.62,-5.62,-5.64,-5.41,-4.48,-4.48,-4.48
139.22,1.14,5.68,1.14,5.67,-5.67,-5.70,-5.42,-4.53,-4.53,-4.54
140.61,1.14,5.73,1.15,5.72,-5.72,-5.75,-5.42,-4.59,-4.58,-4.59
142.02,1.15,5.77,1.15,5.77,-5.77,-5.81,-5.42,-4.63,-4.62,-4.62
143.44,1.15,5.81,1.15,5.82,-5.82,-5.86,-5.42,-4.67,-4.67,-4.66
144.87,1.16,5.87,1.16,5.87,-5.87,-5.92,-5.43,-4.71,-4.71,-4.71
146.32,1.16,5.92,1.15,5.91,-5.91,-5.97,-5.43,-4.75,-4.76,-4.76
147.78,1.16,5.95,1.14,5.95,-5.95,-6.02,-5.44,-4.79,-4.81,-4.80
149.26,1.15,5.99,1.13,5.99,-5.99,-6.07,-5.44,-4.84,-4.86,-4.84
150.75,1.14,6.05,1.12,6.02,-6.02,-6.12,-5.45,-4.89,-4.90,-4.91
152.26,1.13,6.08,1.10,6.05,-6.05,-6.17,-5.47,-4.93,-4.95,-4.95
153.78,1.10,6.09,1.08,6.08,-6.08,-6.22,-5.48,-4.99,-5.00,-5.00
155.32,1.07,6.13,1.06,6.11,-6.11,-6.26,-5.50,-5.04,-5.05,-5.06
156.88,1.03,6.13,1.03,6.13,-6.13,-6.31,-5.52,-5.10,-5.10,-5.10
158.44,1.01,6.16,1.00,6.15,-6.15,-6.35,-5.54,-5.15,-5.15,-5.15
160.03,0.96,6.17,0.97,6.17,-6.17,-6.40,-5.57,-5.22,-5.21,-5.21
161.63,0.94,6.21,0.94,6.20,-6.20,-6.44,-5.60,-5.26,-5.26,-5.27
163.24,0.91,6.22,0.91,6.22,-6.22,-6.48,-5.64,-5.32,-5.31,-5.32
164.88,0.87,6.23,0.89,6.25,-6.25,-6.52,-5.68,-5.38,-5.37,-5.36
166.53,0.85,6.27,0.86,6.28,-6.28,-6.56,-5.72,-5.44,-5.42,-5.42
168.19,0.83,6.30,0.84,6.32,-6.32,-6.60,-5.76,-5.49,-5.47,-5.47
169.87,0.81,6.34,0.83,6.36,-6.36,-6.64,-5.81,-5.55,-5.53,-5.53
171.57,0.80,6.38,0.82,6.41,-6.41,-6.68,-5.87,-5.61,-5.59,-5.58
173.29,0.80,6.44,0.81,6.46,-6.46,-6.72,-5.93,-5.66,-5.64,-5.64
175.02,0.81,6.50,0.81,6.51,-6.51,-6.75,-5.99,-5.70,-5.70,-5.69
176.77,0.81,6.57,0.80,6.57,-6.57,-6.79,-6.06,-5.76,-5.76,-5.76
178.54,0.82,6.64,0.80,6.63,-6.63,-6.82,-6.13,-5.81,-5.82,-5.82
180.32,0.82,6.70,0.80,6.69,-6.69,-6.86,-6.21,-5.87,-5.88,-5.88
182.13,0.82,6.76,0.81,6.75,-6.75,-6.89,-6.29,-5.93,-5.94,-5.94
183.95,0.82,6.82,0.81,6.82,-6.82,-6.92,-6.38,-6.00,-6.01,-6.01
185.79,0.82,6.88,0.81,6.88,-6.88,-6.96,-6.47,-6.06,-6.07,-6.06
187.65,0.82,6.96,0.81,6.94,-6.94,-6.99,-6.56,-6.12,-6.13,-6.14
189.52,0.82,7.01,0.82,7.00,-7.00,-7.02,-6.66,-6.18,-6.19,-6.19
191.42,0.82,7.06,0.82,7.06,-7.06,-7.05,-6.76,-6.24,-6.24,-6.25
193.33,0.82,7.12,0.82,7.12,-7.12,-7.08,-6.87,-6.30,-6.30,-6.30
195.27,0.82,7.17,0.82,7.18,-7.18,-7.11,-6.98,-6.36,-6.36,-6.35
197.22,0.82,7.23,0.82,7.24,-7.24,-7.13,-7.09,-6.42,-6.41,-6.41
199.19,0.82,7.29,0.83,7.29,-7.29,-7.16,-7.21,-6.47,-6.47,-6.47
201.18,0.82,7.34,0.83,7.35,-7.35,-7.19,-7.33,-6.53,-6.52,-6.52
203.19,0.82,7.38,0.83,7.40,-7.40,-7.21,-7.45,-6.58,-6.57,-6.56
205.23,0.82,7.44,0.83,7.45,-7.45,-7.24,-7.58,-6.63,-6.62,-6.62
207.28,0.83,7.48,0.83,7.50,-7.50,-7.26,-7.71,-6.67,-6.67,-6.65
209.35,0.84,7.55,0.83,7.54,-7.54,-7.28,-7.83,-6.70,-6.71,-6.71
211.44,0.84,7.60,0.83,7.58,-7.58,-7.30,-7.96,-6.75,-6.76,-6.77
213.56,0.84,7.64,0.82,7.62,-7.62,-7.32,-8.09,-6.78,-6.80,-6.80
215.69,0.83,7.66,0.81,7.65,-7.65,-7.34,-8.22,-6.82,-6.84,-6.83
217.85,0.81,7.68,0.80,7.68,-7.68,-7.36,-8.34,-6.87,-6.88,-6.88
220.03,0.80,7.72,0.78,7.70,-7.70,-7.38,-8.46,-6.90,-6.91,-6.92
222.23,0.77,7.72,0.77,7.71,-7.71,-7.40,-8.58,-6.94,-6.95,-6.95
224.45,0.74,7.72,0.74,7.72,-7.72,-7.41,-8.69,-6.98,-6.98,-6.98
226.70,0.70,7.70,0.71,7.72,-7.72,-7.42,-8.80,-7.02,-7.01,-7.00
228.96,0.68,7.71,0.68,7.71,-7.71,-7.44,-8.90,-7.03,-7.03,-7.04
231.25,0.66,7.71,0.65,7.70,-7.70,-7.45,-8.99,-7.04,-7.05,-7.05
233.57,0.63,7.70,0.61,7.68,-7.68,-7.46,-9.06,-7.05,-7.07,-7.07
235.90,0.58,7.67,0.57,7.66,-7.66,-7.47,-9.13,-7.08,-7.09,-7.09
238.26,0.55,7.65,0.54,7.64,-7.64,-7.47,-9.18,-7.09,-7.10,-7.10
240.64,0.50,7.61,0.50,7.61,-7.61,-7.48,-9.22,-7.11,-7.11,-7.11
243.05,0.46,7.57,0.47,7.58,-7.58,-7.48,-9.25,-7.13,-7.12,-7.11
245.48,0.41,7.53,0.43,7.55,-7.55,-7.48,-9.26,-7.15,-7.12,-7.13
247.93,0.37,7.49,0.40,7.52,-7.52,-7.48,-9.25,-7.16,-7.13,-7.12
250.41,0.34,7.47,0.36,7.49,-7.49,-7.48,-9.23,-7.15,-7.13,-7.13
252.92,0.32,7.44,0.33,7.45,-7.45,-7.48,-9.18,-7.13,-7.12,-7.12
255.45,0.30,7.41,0.29,7.41,-7.41,-7.47,-9.13,-7.12,-7.12,-7.11
258.00,0.29,7.40,0.26,7.37,-7.37,-7.46,-9.05,-7.09,-7.11,-7.11
260.58,0.26,7.37,0.23,7.33,-7.33,-7.45,-8.96,-7.08,-7.11,-7.11
263.19,0.22,7.31,0.20,7.30,-7.30,-7.44,-8.86,-7.08,-7.10,-7.10
265.82,0.17,7.26,0.17,7.25,-7.25,-7.43,-8.74,-7.09,-7.09,-7.09
268.48,0.14,7.21,0.14,7.21,-7.21,-7.41,-8.61,-7.08,-7.08,-7.07
271.16,0.11,7.17,0.11,7.17,-7.17,-7.39,-8.46,-7.06,-7.06,-7.06
273.87,0.06,7.11,0.08,7.13,-7.13,-7.37,-8.31,-7.07,-7.05,-7.06
276.61,0.04,7.07,0.04,7.09,-7.09,-7.35,-8.15,-7.05,-7.04,-7.03
279.38,0.02,7.05,0.01,7.04,-7.04,-7.32,-7.98,-7.02,-7.03,-7.03
282.17,-0.00,7.01,-0.02,7.00,-7.00,-7.29,-7.80,-7.00,-7.02,-7.01
284.99,-0.04,6.96,-0.04,6.96,-6.96,-7.26,-7.61,-7.00,-7.00,-7.00
287.84,-0.08,6.91,-0.07,6.92,-6.92,-7.23,-7.42,-7.01,-6.99,-7.00
290.72,-0.10,6.88,-0.09,6.89,-6.89,-7.19,-7.23,-6.99,-6.98,-6.98
293.63,-0.12,6.84,-0.11,6.86,-6.86,-7.15,-7.04,-6.98,-6.97,-6.97
296.57,-0.13,6.82,-0.12,6.83,-6.83,-7.11,-6.84,-6.97,-6.95,-6.95
299.53,-0.15,6.79,-0.14,6.81,-6.81,-7.06,-6.64,-6.96,-6.94,-6.95
302.53,-0.16,6.78,-0.15,6.78,-6.78,-7.02,-6.44,-6.94,-6.93,-6.94
305.55,-0.17,6.74,-0.16,6.76,-6.76,-6.97,-6.24,-6.93,-6.92,-6.92
308.61,-0.18,6.73,-0.18,6.73,-6.73,-6.91,-6.04,-6.91,-6.91,-6.91
311.69,-0.19,6.71,-0.20,6.70,-6.70,-6.86,-5.85,-6.89,-6.90,-6.90
314.81,-0.20,6.68,-0.22,6.67,-6.67,-6.80,-5.65,-6.87,-6.89,-6.88
317.96,-0.22,6.66,-0.24,6.64,-6.64,-6.74,-5.45,-6.86,-6.88,-6.88
321.14,-0.25,6.62,-0.27,6.60,-6.60,-6.67,-5.26,-6.86,-6.88,-6.88
324.35,-0.29,6.59,-0.31,6.56,-6.56,-6.61,-5.07,-6.86,-6.87,-6.88
327.59,-0.33,6.53,-0.35,6.52,-6.52,-6.54,-4.88,-6.85,-6.87,-6.86
330.87,-0.38,6.48,-0.39,6.47,-6.47,-6.46,-4.69,-6.86,-6.86,-6.87
334.18,-0.44,6.43,-0.44,6.42,-6.42,-6.39,-4.51,-6.87,-6.86,-6.87
337.52,-0.50,6.36,-0.49,6.37,-6.37,-6.31,-4.32,-6.87,-6.86,-6.86
340.90,-0.56,6.29,-0.55,6.31,-6.31,-6.23,-4.14,-6.87,-6.86,-6.85
344.30,-0.64,6.22,-0.62,6.24,-6.24,-6.14,-3.97,-6.88,-6.86,-6.86
347.75,-0.70,6.16,-0.69,6.17,-6.17,-6.06,-3.79,-6.87,-6.86,-6.86
351.23,-0.77,6.09,-0.77,6.10,-6.10,-5.96,-3.62,-6.87,-6.87,-6.86
354.74,-0.84,6.02,-0.85,6.01,-6.01,-5.87,-3.44,-6.86,-6.87,-6.87
358.28,-0.93,5.95,-0.94,5.93,-5.93,-5.77,-3.28,-6.86,-6.87,-6.88
361.87,-1.01,5.87,-1.04,5.84,-5.84,-5.67,-3.11,-6.85,-6.88,-6.88
365.49,-1.12,5.76,-1.14,5.75,-5.75,-5.57,-2.95,-6.87,-6.88,-6.88
369.14,-1.23,5.66,-1.24,5.65,-5.65,-5.46,-2.78,-6.88,-6.89,-6.89
372.83,-1.34,5.55,-1.35,5.55,-5.55,-5.35,-2.62,-6.89,-6.90,-6.90
376.56,-1.49,5.42,-1.46,5.44,-5.44,-5.23,-2.47,-6.94,-6.91,-6.91
380.33,-1.61,5.30,-1.59,5.33,-5.33,-5.11,-2.31,-6.94,-6.92,-6.91
384.13,-1.72,5.20,-1.72,5.21,-5.21,-4.99,-2.16,-6.93,-6.92,-6.92
387.97,-1.85,5.08,-1.85,5.08,-5.08,-4.86,-2.01,-6.93,-6.93,-6.93
391.85,-1.99,4.95,-1.99,4.94,-4.94,-4.73,-1.86,-6.94,-6.94,-6.95
395.77,-2.13,4.81,-2.14,4.80,-4.80,-4.60,-1.72,-6.94,-6.94,-6.94
399.73,-2.28,4.67,-2.29,4.66,-4.66,-4.46,-1.57,-6.94,-6.95,-6.95
403.72,-2.44,4.52,-2.45,4.51,-4.51,-4.32,-1.43,-6.95,-6.96,-6.96
407.76,-2.61,4.36,-2.62,4.35,-4.35,-4.17,-1.30,-6.96,-6.96,-6.97
411.84,-2.78,4.18,-2.78,4.18,-4.18,-4.01,-1.16,-6.97,-6.97,-6.96
415.96,-2.96,4.01,-2.96,4.01,-4.01,-3.86,-1.03,-6.97,-6.97,-6.97
420.12,-3.16,3.81,-3.15,3.83,-3.83,-3.69,-0.91,-6.99,-6.98,-6.98
424.32,-3.35,3.62,-3.34,3.64,-3.64,-3.52,-0.78,-7.00,-6.98,-6.98
428.56,-3.52,3.47,-3.54,3.45,-3.45,-3.35,-0.66,-6.97,-6.98,-6.99
432.85,-3.73,3.26,-3.74,3.24,-3.24,-3.17,-0.55,-6.97,-6.99,-6.99
437.18,-3.96,3.03,-3.96,3.03,-3.03,-2.98,-0.44,-6.99,-6.99,-6.99
441.55,-4.15,2.83,-4.17,2.81,-2.81,-2.79,-0.33,-6.97,-6.99,-6.98
445.96,-4.37,2.61,-4.40,2.59,-2.59,-2.59,-0.23,-6.96,-6.99,-6.98
450.42,-4.63,2.36,-4.62,2.36,-2.36,-2.38,-0.13,-6.99,-6.98,-6.99
454.93,-4.86,2.12,-4.86,2.13,-2.13,-2.17,-0.04,-6.99,-6.98,-6.98
