frequency,raw,error,smoothed,error_smoothed,equalization,parametric_eq,fixed_band_eq,equalized_raw,equalized_smoothed,target
20.00,-10.89,-19.30,-10.89,-19.32,19.32,18.80,8.01,8.43,8.43,8.41
20.20,-10.78,-19.23,-10.78,-19.24,19.24,18.79,8.18,8.46,8.46,8.45
20.40,-10.66,-19.15,-10.66,-19.15,19.15,18.78,8.35,8.49,8.49,8.49
20.61,-10.55,-19.07,-10.55,-19.07,19.07,18.75,8.53,8.51,8.52,8.51
20.81,-10.43,-18.98,-10.43,-18.98,18.98,18.72,8.71,8.55,8.54,8.55
21.02,-10.32,-18.91,-10.32,-18.89,18.89,18.68,8.89,8.57,8.57,8.59
21.23,-10.20,-18.81,-10.20,-18.79,18.79,18.63,9.08,8.59,8.59,8.61
21.44,-10.08,-18.71,-10.08,-18.70,18.70,18.57,9.28,8.62,8.61,8.63
21.66,-9.97,-18.62,-9.97,-18.60,18.60,18.51,9.48,8.63,8.64,8.65
21.87,-9.85,-18.51,-9.85,-18.50,18.50,18.44,9.69,8.65,8.65,8.66
22.09,-9.73,-18.41,-9.73,-18.40,18.40,18.36,9.90,8.67,8.67,8.68
22.31,-9.61,-18.30,-9.61,-18.30,18.30,18.28,10.11,8.69,8.69,8.69
22.54,-9.49,-18.19,-9.49,-18.19,18.19,18.19,10.34,8.70,8.70,8.70
22.76,-9.37,-18.08,-9.37,-18.08,18.08,18.10,10.57,8.71,8.71,8.71
22.99,-9.26,-17.97,-9.25,-17.97,17.97,18.00,10.80,8.71,8.72,8.71
23.22,-9.13,-17.85,-9.13,-17.86,17.86,17.89,11.04,8.73,8.73,8.72
23.45,-9.01,-17.74,-9.01,-17.75,17.75,17.79,11.29,8.74,8.73,8.73
23.69,-8.89,-17.63,-8.89,-17.64,17.64,17.68,11.55,8.74,8.74,8.74
23.92,-8.77,-17.52,-8.77,-17.52,17.52,17.56,11.81,8.75,8.75,8.75
24.16,-8.65,-17.41,-8.65,-17.41,17.41,17.45,12.08,8.76,8.76,8.76
24.40,-8.53,-17.31,-8.53,-17.30,17.30,17.33,12.36,8.77,8.77,8.78
24.65,-8.40,-17.18,-8.40,-17.18,17.18,17.21,12.65,8.78,8.78,8.78
24.89,-8.28,-17.07,-8.28,-17.07,17.07,17.08,12.95,8.79,8.79,8.79
25.14,-8.16,-16.96,-8.16,-16.96,16.96,16.96,13.25,8.80,8.80,8.80
25.39,-8.03,-16.84,-8.04,-16.85,16.85,16.83,13.56,8.82,8.81,8.81
25.65,-7.91,-16.74,-7.91,-16.73,16.73,16.70,13.88,8.82,8.82,8.83
25.91,-7.79,-16.62,-7.79,-16.62,16.62,16.57,14.21,8.83,8.83,8.83
26.16,-7.66,-16.50,-7.66,-16.50,16.50,16.44,14.55,8.84,8.84,8.84
26.43,-7.54,-16.39,-7.54,-16.39,16.39,16.31,14.90,8.84,8.85,8.84
26.69,-7.41,-16.26,-7.41,-16.27,16.27,16.18,15.25,8.86,8.86,8.85
26.96,-7.29,-16.16,-7.29,-16.15,16.15,16.04,15.61,8.86,8.87,8.87
27.23,-7.16,-16.04,-7.16,-16.04,16.04,15.91,15.98,8.88,8.87,8.88
27.50,-7.04,-15.93,-7.04,-15.92,15.92,15.78,16.35,8.88,8.88,8.89
27.77,-6.91,-15.80,-6.91,-15.81,15.81,15.65,16.73,8.90,8.89,8.89
28.05,-6.79,-15.70,-6.79,-15.69,15.69,15.51,17.10,8.90,8.90,8.91
28.33,-6.66,-15.57,-6.67,-15.57,15.57,15.38,17.48,8.91,8.91,8.90
28.62,-6.54,-15.46,-6.54,-15.46,15.46,15.25,17.84,8.91,8.92,8.91
28.90,-6.41,-15.33,-6.42,-15.34,15.34,15.12,18.20,8.93,8.92,8.92
29.19,-6.29,-15.21,-6.29,-15.22,15.22,14.99,18.54,8.93,8.93,8.92
29.48,-6.17,-15.12,-6.17,-15.10,15.10,14.86,18.85,8.93,8.94,8.95
29.78,-6.04,-14.99,-6.04,-14.99,14.99,14.73,19.14,8.94,8.94,8.95
30.08,-5.92,-14.88,-5.92,-14.87,14.87,14.60,19.38,8.95,8.95,8.95
30.38,-5.79,-14.74,-5.80,-14.75,14.75,14.47,19.58,8.96,8.96,8.95
30.68,-5.67,-14.64,-5.67,-14.64,14.64,14.34,19.72,8.96,8.96,8.97
30.99,-5.55,-14.52,-5.55,-14.52,14.52,14.21,19.80,8.97,8.97,8.97
31.30,-5.42,-14.40,-5.43,-14.40,14.40,14.09,19.82,8.98,8.98,8.97
31.61,-5.30,-14.28,-5.30,-14.28,14.28,13.96,19.78,8.98,8.98,8.98
31.93,-5.18,-14.17,-5.18,-14.17,14.17,13.84,19.68,8.98,8.99,8.99
32.24,-5.06,-14.05,-5.05,-14.05,14.05,13.71,19.52,8.99,9.00,8.99
32.57,-4.93,-13.94,-4.93,-13.93,13.93,13.59,19.31,9.00,9.00,9.00
32.89,-4.81,-13.82,-4.81,-13.82,13.82,13.47,19.06,9.01,9.01,9.01
33.22,-4.69,-13.71,-4.69,-13.71,13.71,13.35,18.78,9.01,9.02,9.02
33.55,-4.56,-13.59,-4.57,-13.59,13.59,13.23,18.47,9.03,9.02,9.02
33.89,-4.44,-13.47,-4.45,-13.48,13.48,13.11,18.15,9.04,9.03,9.03
34.23,-4.32,-13.36,-4.33,-13.36,13.36,12.99,17.81,9.04,9.03,9.04
34.57,-4.20,-13.25,-4.21,-13.25,13.25,12.88,17.46,9.05,9.04,9.04
34.92,-4.09,-13.13,-4.10,-13.14,13.14,12.76,17.11,9.05,9.04,9.04
35.27,-3.98,-13.03,-3.98,-13.03,13.03,12.64,16.76,9.05,9.05,9.05
35.62,-3.87,-12.93,-3.86,-12.92,12.92,12.53,16.41,9.04,9.05,9.05
35.97,-3.76,-12.81,-3.75,-12.80,12.80,12.42,16.07,9.04,9.05,9.05
36.33,-3.64,-12.70,-3.64,-12.69,12.69,12.30,15.73,9.05,9.05,9.05
36.70,-3.53,-12.58,-3.52,-12.58,12.58,12.19,15.40,9.05,9.05,9.05
37.06,-3.41,-12.47,-3.41,-12.46,12.46,12.08,15.08,9.05,9.05,9.06
37.43,-3.29,-12.35,-3.30,-12.35,12.35,11.97,14.77,9.06,9.05,9.06
37.81,-3.18,-12.24,-3.18,-12.23,12.23,11.87,14.46,9.05,9.05,9.06
38.19,-3.07,-12.12,-3.07,-12.12,12.12,11.76,14.17,9.04,9.05,9.05
38.57,-2.95,-12.00,-2.96,-12.00,12.00,11.65,13.89,9.05,9.04,9.05
38.95,-2.84,-11.88,-2.84,-11.88,11.88,11.55,13.61,9.04,9.04,9.04
39.34,-2.73,-11.76,-2.73,-11.77,11.77,11.44,13.34,9.04,9.04,9.03
39.74,-2.62,-11.65,-2.61,-11.65,11.65,11.34,13.08,9.03,9.04,9.03
40.14,-2.50,-11.53,-2.50,-11.53,11.53,11.24,12.83,9.03,9.03,9.03
40.54,-2.39,-11.42,-2.39,-11.42,11.42,11.14,12.59,9.03,9.03,9.03
40.94,-2.28,-11.30,-2.28,-11.31,11.31,11.03,12.36,9.02,9.02,9.02
41.35,-2.17,-11.18,-2.17,-11.19,11.19,10.93,12.14,9.02,9.02,9.01
41.76,-2.07,-11.08,-2.07,-11.08,11.08,10.84,11.92,9.01,9.01,9.01
42.18,-1.96,-10.98,-1.97,-10.97,10.97,10.74,11.71,9.01,9.01,9.02
42.60,-1.86,-10.87,-1.86,-10.87,10.87,10.64,11.51,9.01,9.01,9.01
43.03,-1.75,-10.76,-1.77,-10.77,10.77,10.54,11.32,9.01,9.00,9.01
43.46,-1.66,-10.66,-1.67,-10.66,10.66,10.45,11.13,9.00,9.00,9.00
43.90,-1.56,-10.55,-1.57,-10.56,10.56,10.35,10.95,9.00,8.99,8.98
44.33,-1.47,-10.46,-1.48,-10.46,10.46,10.26,10.77,8.99,8.99,8.99
44.78,-1.38,-10.36,-1.38,-10.37,10.37,10.17,10.61,8.98,8.98,8.98
45.23,-1.30,-10.27,-1.29,-10.27,10.27,10.08,10.45,8.97,8.98,8.97
45.68,-1.21,-10.18,-1.20,-10.17,10.17,9.98,10.29,8.96,8.97,8.97
46.13,-1.12,-10.08,-1.11,-10.08,10.08,9.89,10.14,8.96,8.97,8.96
46.60,-1.03,-10.00,-1.02,-9.98,9.98,9.80,10.00,8.95,8.96,8.96
47.06,-0.94,-9.89,-0.94,-9.88,9.88,9.72,9.86,8.94,8.95,8.95
47.53,-0.84,-9.78,-0.85,-9.79,9.79,9.63,9.73,8.95,8.94,8.94
48.01,-0.75,-9.70,-0.76,-9.69,9.69,9.54,9.60,8.94,8.93,8.95
48.49,-0.67,-9.60,-0.67,-9.59,9.59,9.45,9.47,8.92,8.92,8.93
48.97,-0.58,-9.49,-0.59,-9.49,9.49,9.37,9.36,8.91,8.91,8.90
49.46,-0.50,-9.39,-0.50,-9.39,9.39,9.28,9.24,8.89,8.89,8.89
49.96,-0.42,-9.29,-0.42,-9.29,9.29,9.20,9.13,8.87,8.88,8.87
50.46,-0.34,-9.20,-0.33,-9.19,9.19,9.12,9.03,8.85,8.86,8.86
50.96,-0.26,-9.11,-0.25,-9.10,9.10,9.04,8.92,8.83,8.84,8.85
51.47,-0.17,-8.98,-0.17,-9.00,9.00,8.95,8.82,8.83,8.82,8.81
51.99,-0.09,-8.89,-0.10,-8.90,8.90,8.87,8.73,8.81,8.80,8.80
52.51,-0.01,-8.80,-0.02,-8.80,8.80,8.79,8.64,8.79,8.78,8.79
53.03,0.06,-8.70,0.05,-8.71,8.71,8.71,8.55,8.76,8.76,8.76
53.56,0.14,-8.61,0.13,-8.61,8.61,8.63,8.46,8.75,8.74,8.74
54.10,0.21,-8.51,0.20,-8.52,8.52,8.56,8.38,8.72,8.72,8.72
54.64,0.27,-8.43,0.27,-8.42,8.42,8.48,8.30,8.69,8.69,8.70
55.18,0.33,-8.34,0.34,-8.33,8.33,8.40,8.22,8.66,8.67,8.67
55.74,0.40,-8.24,0.41,-8.24,8.24,8.33,8.14,8.64,8.65,8.64
56.29,0.47,-8.16,0.47,-8.15,8.15,8.25,8.06,8.62,8.62,8.63
56.86,0.54,-8.06,0.54,-8.06,8.06,8.18,7.98,8.60,8.60,8.60
57.42,0.60,-7.96,0.60,-7.97,7.97,8.10,7.91,8.57,8.57,8.56
58.00,0.66,-7.88,0.66,-7.88,7.88,8.03,7.84,8.54,8.55,8.54
58.58,0.72,-7.80,0.72,-7.80,7.80,7.96,7.76,8.51,8.52,8.52
59.16,0.78,-7.71,0.78,-7.71,7.71,7.89,7.69,8.49,8.49,8.49
59.76,0.84,-7.63,0.83,-7.62,7.62,7.82,7.61,8.46,8.45,8.47
60.35,0.89,-7.54,0.88,-7.53,7.53,7.75,7.54,8.42,8.42,8.43
60.96,0.94,-7.46,0.93,-7.45,7.45,7.68,7.46,8.39,8.38,8.39
61.57,0.98,-7.37,0.98,-7.37,7.37,7.61,7.39,8.35,8.35,8.35
62.18,1.02,-7.28,1.02,-7.29,7.29,7.54,7.31,8.31,8.31,8.30
62.80,1.07,-7.20,1.06,-7.21,7.21,7.47,7.24,8.28,8.27,8.27
63.43,1.10,-7.12,1.10,-7.13,7.13,7.41,7.16,8.23,8.23,8.22
64.07,1.13,-7.05,1.13,-7.06,7.06,7.34,7.08,8.19,8.19,8.18
64.71,1.16,-6.98,1.16,-6.99,6.99,7.28,7.01,8.14,8.14,8.14
65.35,1.18,-6.92,1.18,-6.92,6.92,7.21,6.93,8.09,8.10,8.09
66.01,1.20,-6.85,1.20,-6.85,6.85,7.15,6.85,8.05,8.05,8.05
66.67,1.23,-6.79,1.22,-6.78,6.78,7.08,6.77,8.01,8.01,8.02
67.33,1.25,-6.72,1.24,-6.72,6.72,7.02,6.69,7.97,7.96,7.97
68.01,1.26,-6.67,1.26,-6.66,6.66,6.96,6.61,7.92,7.92,7.92
68.69,1.27,-6.61,1.27,-6.61,6.61,6.90,6.53,7.88,7.87,7.88
69.37,1.27,-6.56,1.28,-6.55,6.55,6.84,6.45,7.82,7.83,7.83
70.07,1.28,-6.50,1.28,-6.50,6.50,6.78,6.37,7.78,7.78,7.78
70.77,1.29,-6.45,1.29,-6.45,6.45,6.72,6.29,7.74,7.74,7.74
71.48,1.29,-6.41,1.29,-6.41,6.41,6.66,6.22,7.70,7.69,7.70
72.19,1.30,-6.35,1.29,-6.36,6.36,6.60,6.14,7.66,7.65,7.65
72.91,1.30,-6.30,1.29,-6.32,6.32,6.54,6.07,7.62,7.61,7.60
73.64,1.29,-6.27,1.29,-6.28,6.28,6.49,5.99,7.57,7.56,7.56
74.38,1.28,-6.24,1.28,-6.24,6.24,6.43,5.92,7.52,7.52,7.52
75.12,1.27,-6.21,1.28,-6.20,6.20,6.37,5.85,7.47,7.48,7.48
75.87,1.27,-6.17,1.28,-6.16,6.16,6.32,5.78,7.43,7.44,7.44
76.63,1.27,-6.13,1.28,-6.13,6.13,6.26,5.72,7.39,7.40,7.40
77.40,1.27,-6.09,1.27,-6.09,6.09,6.21,5.65,7.36,7.36,7.36
78.17,1.27,-6.05,1.27,-6.06,6.06,6.16,5.59,7.33,7.33,7.32
78.95,1.27,-6.02,1.27,-6.02,6.02,6.10,5.53,7.29,7.29,7.29
79.74,1.27,-5.99,1.27,-5.99,5.99,6.05,5.48,7.26,7.26,7.26
80.54,1.27,-5.96,1.27,-5.96,5.96,6.00,5.42,7.23,7.22,7.23
81.35,1.27,-5.92,1.27,-5.93,5.93,5.95,5.37,7.19,7.19,7.19
82.16,1.27,-5.89,1.27,-5.89,5.89,5.90,5.32,7.16,7.16,7.16
82.98,1.27,-5.86,1.27,-5.86,5.86,5.85,5.28,7.13,7.13,7.13
83.81,1.27,-5.83,1.27,-5.83,5.83,5.80,5.24,7.10,7.10,7.10
84.65,1.27,-5.79,1.27,-5.80,5.80,5.75,5.20,7.07,7.07,7.06
85.50,1.27,-5.77,1.27,-5.77,5.77,5.70,5.16,7.04,7.04,7.04
86.35,1.27,-5.74,1.27,-5.74,5.74,5.65,5.13,7.01,7.01,7.01
87.22,1.27,-5.71,1.27,-5.71,5.71,5.61,5.10,6.98,6.98,6.98
88.09,1.27,-5.68,1.27,-5.68,5.68,5.56,5.07,6.95,6.96,6.95
88.97,1.27,-5.66,1.28,-5.65,5.65,5.51,5.04,6.92,6.93,6.93
89.86,1.27,-5.64,1.28,-5.62,5.62,5.47,5.02,6.89,6.90,6.91
90.76,1.27,-5.60,1.28,-5.59,5.59,5.42,5.00,6.86,6.87,6.87
91.66,1.28,-5.56,1.29,-5.56,5.56,5.38,4.99,6.84,6.85,6.84
92.58,1.29,-5.52,1.29,-5.53,5.53,5.34,4.98,6.82,6.82,6.81
93.51,1.29,-5.51,1.28,-5.50,5.50,5.29,4.97,6.79,6.79,6.79
94.44,1.29,-5.47,1.28,-5.47,5.47,5.25,4.96,6.76,6.76,6.76
95.39,1.30,-5.44,1.28,-5.45,5.45,5.21,4.95,6.75,6.72,6.73
96.34,1.29,-5.40,1.27,-5.42,5.42,5.17,4.95,6.71,6.69,6.69
97.30,1.27,-5.38,1.26,-5.40,5.40,5.13,4.95,6.67,6.66,6.65
98.28,1.25,-5.37,1.24,-5.38,5.38,5.08,4.95,6.63,6.62,6.62
99.26,1.23,-5.35,1.22,-5.36,5.36,5.04,4.96,6.59,6.58,6.58
100.25,1.20,-5.34,1.20,-5.35,5.35,5.00,4.97,6.55,6.54,6.54
101.25,1.17,-5.34,1.17,-5.33,5.33,4.97,4.97,6.50,6.50,6.51
102.27,1.14,-5.32,1.14,-5.32,5.32,4.93,4.98,6.46,6.46,6.46
103.29,1.12,-5.29,1.11,-5.30,5.30,4.89,5.00,6.42,6.41,6.41
104.32,1.10,-5.27,1.09,-5.28,5.28,4.85,5.01,6.38,6.37,6.37
105.37,1.06,-5.27,1.06,-5.25,5.25,4.81,5.02,6.31,6.32,6.32
106.42,1.03,-5.24,1.04,-5.23,5.23,4.78,5.03,6.25,6.26,6.27
107.48,1.00,-5.22,1.02,-5.19,5.19,4.74,5.05,6.19,6.21,6.22
108.56,0.97,-5.18,1.00,-5.15,5.15,4.71,5.06,6.12,6.15,6.15
109.64,0.95,-5.15,0.98,-5.11,5.11,4.67,5.08,6.05,6.09,6.09
110.74,0.95,-5.09,0.97,-5.06,5.06,4.64,5.09,6.01,6.03,6.04
111.85,0.95,-5.02,0.95,-5.01,5.01,4.60,5.10,5.96,5.96,5.97
112.97,0.95,-4.94,0.94,-4.96,4.96,4.57,5.11,5.91,5.90,5.89
114.10,0.94,-4.90,0.92,-4.91,4.91,4.53,5.12,5.85,5.83,5.84
115.24,0.93,-4.83,0.90,-4.86,4.86,4.50,5.12,5.79,5.76,5.76
116.39,0.92,-4.77,0.88,-4.81,4.81,4.47,5.13,5.73,5.69,5.68
117.55,0.89,-4.73,0.86,-4.76,4.76,4.44,5.13,5.65,5.62,5.62
118.73,0.86,-4.68,0.84,-4.72,4.72,4.40,5.12,5.58,5.56,5.54
119.92,0.82,-4.67,0.81,-4.68,4.68,4.37,5.12,5.49,5.49,5.49
121.12,0.78,-4.64,0.79,-4.63,4.63,4.34,5.11,5.41,5.42,5.42
122.33,0.76,-4.59,0.76,-4.59,4.59,4.31,5.09,5.35,5.36,5.35
123.55,0.73,-4.57,0.74,-4.56,4.56,4.28,5.07,5.28,5.29,5.30
124.79,0.70,-4.54,0.71,-4.52,4.52,4.25,5.05,5.22,5.23,5.24
126.03,0.66,-4.52,0.69,-4.48,4.48,4.22,5.03,5.14,5.17,5.18
127.29,0.65,-4.47,0.68,-4.44,4.44,4.19,5.00,5.09,5.11,5.12
128.57,0.63,-4.42,0.66,-4.40,4.40,4.16,4.96,5.02,5.05,5.05
129.85,0.62,-4.38,0.64,-4.35,4.35,4.14,4.92,4.97,5.00,5.00
131.15,0.63,-4.31,0.63,-4.31,4.31,4.11,4.88,4.94,4.94,4.94
132.46,0.63,-4.26,0.62,-4.27,4.27,4.08,4.84,4.90,4.89,4.89
133.79,0.63,-4.22,0.61,-4.23,4.23,4.05,4.79,4.86,4.84,4.84
135.12,0.62,-4.17,0.59,-4.20,4.20,4.03,4.74,4.81,4.79,4.79
136.48,0.61,-4.13,0.58,-4.16,4.16,4.00,4.68,4.77,4.74,4.74
137.84,0.58,-4.11,0.56,-4.13,4.13,3.97,4.62,4.71,4.69,4.69
139.22,0.56,-4.08,0.53,-4.11,4.11,3.95,4.56,4.67,4.64,4.64
140.61,0.53,-4.06,0.51,-4.09,4.09,3.92,4.50,4.62,4.60,4.58
142.02,0.48,-4.07,0.48,-4.07,4.07,3.90,4.44,4.55,4.55,4.55
143.44,0.46,-4.05,0.45,-4.05,4.05,3.87,4.37,4.51,4.51,4.51
144.87,0.42,-4.04,0.43,-4.03,4.03,3.85,4.31,4.45,4.46,4.46
146.32,0.39,-4.03,0.40,-4.01,4.01,3.82,4.24,4.40,4.41,4.41
147.78,0.36,-4.02,0.38,-3.99,3.99,3.80,4.18,4.35,4.37,4.38
149.26,0.33,-4.00,0.36,-3.96,3.96,3.77,4.11,4.29,4.32,4.33
150.75,0.30,-3.97,0.34,-3.93,3.93,3.75,4.05,4.23,4.27,4.27
152.26,0.29,-3.93,0.32,-3.90,3.90,3.73,3.98,4.19,4.22,4.22
153.78,0.29,-3.89,0.31,-3.86,3.86,3.70,3.92,4.15,4.17,4.18
155.32,0.30,-3.82,0.30,-3.82,3.82,3.68,3.85,4.12,4.12,4.11
156.88,0.31,-3.77,0.29,-3.78,3.78,3.66,3.79,4.09,4.07,4.07
158.44,0.31,-3.71,0.28,-3.74,3.74,3.63,3.73,4.05,4.02,4.02
160.03,0.30,-3.67,0.27,-3.70,3.70,3.61,3.67,4.00,3.97,3.96
161.63,0.28,-3.63,0.26,-3.66,3.66,3.59,3.61,3.94,3.92,3.90
163.24,0.27,-3.59,0.24,-3.62,3.62,3.57,3.56,3.89,3.86,3.86
164.88,0.23,-3.58,0.23,-3.58,3.58,3.54,3.50,3.81,3.81,3.81
166.53,0.21,-3.55,0.21,-3.55,3.55,3.52,3.45,3.76,3.75,3.75
168.19,0.18,-3.52,0.18,-3.52,3.52,3.50,3.40,3.70,3.70,3.70
169.87,0.14,-3.51,0.15,-3.49,3.49,3.48,3.35,3.63,3.64,3.65
171.57,0.12,-3.47,0.12,-3.47,3.47,3.45,3.31,3.59,3.59,3.59
173.29,0.10,-3.43,0.08,-3.44,3.44,3.43,3.26,3.54,3.53,3.53
175.02,0.05,-3.43,0.05,-3.42,3.42,3.41,3.22,3.47,3.47,3.48
176.77,0.01,-3.40,0.01,-3.40,3.40,3.39,3.18,3.41,3.41,3.41
178.54,-0.02,-3.37,-0.02,-3.37,3.37,3.36,3.14,3.35,3.35,3.35
180.32,-0.06,-3.35,-0.06,-3.35,3.35,3.34,3.11,3.29,3.29,3.29
182.13,-0.09,-3.33,-0.09,-3.32,3.32,3.32,3.08,3.23,3.23,3.23
183.95,-0.14,-3.31,-0.13,-3.30,3.30,3.30,3.05,3.16,3.17,3.17
185.79,-0.17,-3.28,-0.16,-3.27,3.27,3.27,3.02,3.10,3.11,3.11
187.65,-0.19,-3.23,-0.20,-3.24,3.24,3.25,2.99,3.05,3.05,3.04
189.52,-0.22,-3.20,-0.23,-3.22,3.22,3.22,2.97,3.00,2.99,2.98
191.42,-0.25,-3.18,-0.26,-3.19,3.19,3.20,2.94,2.93,2.93,2.93
193.33,-0.28,-3.16,-0.28,-3.15,3.15,3.17,2.92,2.87,2.87,2.87
195.27,-0.30,-3.12,-0.30,-3.12,3.12,3.14,2.90,2.81,2.81,2.82
197.22,-0.33,-3.09,-0.32,-3.08,3.08,3.11,2.89,2.75,2.76,2.76
199.19,-0.35,-3.05,-0.34,-3.04,3.04,3.09,2.87,2.69,2.71,2.70
201.18,-0.37,-3.02,-0.35,-3.00,3.00,3.05,2.86,2.63,2.65,2.65
203.19,-0.37,-2.98,-0.36,-2.96,2.96,3.02,2.85,2.59,2.60,2.61
205.23,-0.37,-2.92,-0.37,-2.92,2.92,2.99,2.84,2.55,2.55,2.55
207.28,-0.36,-2.88,-0.37,-2.88,2.88,2.95,2.83,2.52,2.51,2.52
209.35,-0.35,-2.82,-0.38,-2.84,2.84,2.91,2.82,2.48,2.46,2.46
211.44,-0.35,-2.76,-0.37,-2.79,2.79,2.87,2.81,2.44,2.42,2.41
213.56,-0.36,-2.73,-0.37,-2.74,2.74,2.83,2.81,2.38,2.37,2.37
215.69,-0.37,-2.72,-0.36,-2.69,2.69,2.79,2.80,2.32,2.33,2.34
217.85,-0.37,-2.67,-0.35,-2.65,2.65,2.74,2.80,2.27,2.30,2.30
220.03,-0.36,-2.61,-0.34,-2.60,2.60,2.69,2.79,2.24,2.26,2.25
222.23,-0.35,-2.57,-0.33,-2.56,2.56,2.64,2.79,2.20,2.23,2.22
224.45,-0.33,-2.53,-0.32,-2.51,2.51,2.59,2.78,2.18,2.20,2.19
226.70,-0.30,-2.47,-0.31,-2.47,2.47,2.53,2.78,2.17,2.17,2.17
228.96,-0.28,-2.42,-0.30,-2.44,2.44,2.48,2.78,2.16,2.14,2.14
231.25,-0.27,-2.40,-0.29,-2.41,2.41,2.43,2.77,2.13,2.12,2.13
233.57,-0.26,-2.36,-0.28,-2.38,2.38,2.38,2.77,2.12,2.10,2.10
235.90,-0.26,-2.34,-0.27,-2.36,2.36,2.34,2.76,2.09,2.09,2.08
238.26,-0.25,-2.32,-0.26,-2.34,2.34,2.31,2.75,2.09,2.07,2.07
240.64,-0.25,-2.31,-0.26,-2.33,2.33,2.28,2.75,2.07,2.06,2.06
243.05,-0.26,-2.32,-0.27,-2.32,2.32,2.27,2.74,2.06,2.06,2.06
245.48,-0.26,-2.31,-0.27,-2.33,2.33,2.26,2.73,2.06,2.05,2.05
247.93,-0.27,-2.32,-0.28,-2.33,2.33,2.27,2.72,2.06,2.05,2.05
250.41,-0.28,-2.32,-0.29,-2.34,2.34,2.28,2.71,2.06,2.05,2.04
252.92,-0.30,-2.35,-0.30,-2.35,2.35,2.30,2.70,2.05,2.05,2.05
255.45,-0.32,-2.38,-0.32,-2.37,2.37,2.33,2.69,2.05,2.05,2.06
258.00,-0.33,-2.39,-0.33,-2.39,2.39,2.36,2.67,2.05,2.06,2.06
260.58,-0.36,-2.43,-0.33,-2.40,2.40,2.39,2.66,2.04,2.07,2.06
263.19,-0.37,-2.45,-0.34,-2.42,2.42,2.43,2.64,2.05,2.08,2.08
265.82,-0.37,-2.45,-0.35,-2.44,2.44,2.46,2.62,2.06,2.09,2.08
268.48,-0.36,-2.46,-0.35,-2.45,2.45,2.49,2.61,2.09,2.10,2.10
271.16,-0.35,-2.47,-0.36,-2.47,2.47,2.52,2.59,2.12,2.11,2.11
273.87,-0.35,-2.47,-0.36,-2.48,2.48,2.55,2.57,2.13,2.12,2.12
276.61,-0.35,-2.49,-0.36,-2.49,2.49,2.57,2.55,2.14,2.13,2.14
279.38,-0.35,-2.50,-0.36,-2.51,2.51,2.59,2.53,2.15,2.15,2.15
282.17,-0.35,-2.51,-0.36,-2.51,2.51,2.61,2.51,2.16,2.16,2.16
284.99,-0.35,-2.52,-0.36,-2.52,2.52,2.63,2.49,2.17,2.17,2.17
287.84,-0.35,-2.53,-0.35,-2.54,2.54,2.64,2.47,2.18,2.18,2.18
290.72,-0.35,-2.54,-0.35,-2.55,2.55,2.65,2.45,2.19,2.20,2.19
293.63,-0.35,-2.56,-0.35,-2.56,2.56,2.66,2.44,2.21,2.21,2.21
296.57,-0.35,-2.57,-0.35,-2.57,2.57,2.67,2.42,2.22,2.22,2.22
299.53,-0.35,-2.58,-0.35,-2.58,2.58,2.68,2.40,2.23,2.23,2.23
302.53,-0.35,-2.58,-0.35,-2.59,2.59,2.69,2.38,2.24,2.24,2.23
305.55,-0.35,-2.61,-0.35,-2.60,2.60,2.69,2.37,2.25,2.25,2.26
308.61,-0.35,-2.62,-0.35,-2.61,2.61,2.70,2.35,2.26,2.26,2.26
311.69,-0.35,-2.62,-0.35,-2.62,2.62,2.70,2.34,2.27,2.27,2.27
314.81,-0.35,-2.65,-0.35,-2.63,2.63,2.70,2.33,2.28,2.28,2.30
317.96,-0.35,-2.64,-0.35,-2.64,2.64,2.71,2.32,2.29,2.29,2.29
321.14,-0.35,-2.65,-0.35,-2.65,2.65,2.71,2.31,2.30,2.30,2.30
324.35,-0.35,-2.65,-0.35,-2.65,2.65,2.71,2.30,2.30,2.30,2.29
327.59,-0.35,-2.66,-0.35,-2.66,2.66,2.71,2.29,2.31,2.31,2.31
330.87,-0.35,-2.66,-0.35,-2.66,2.66,2.71,2.29,2.31,2.31,2.31
334.18,-0.35,-2.66,-0.35,-2.66,2.66,2.71,2.28,2.31,2.31,2.30
337.52,-0.35,-2.66,-0.35,-2.66,2.66,2.71,2.28,2.31,2.31,2.31
340.90,-0.35,-2.67,-0.35,-2.66,2.66,2.70,2.28,2.31,2.31,2.32
344.30,-0.35,-2.67,-0.34,-2.66,2.66,2.70,2.28,2.30,2.31,2.32
347.75,-0.35,-2.66,-0.34,-2.65,2.65,2.70,2.28,2.30,2.31,2.31
351.23,-0.35,-2.66,-0.34,-2.65,2.65,2.70,2.29,2.29,2.31,2.31
354.74,-0.35,-2.66,-0.34,-2.64,2.64,2.70,2.29,2.29,2.30,2.31
358.28,-0.34,-2.64,-0.34,-2.64,2.64,2.69,2.30,2.29,2.30,2.30
361.87,-0.33,-2.63,-0.34,-2.63,2.63,2.69,2.31,2.30,2.29,2.29
365.49,-0.33,-2.62,-0.34,-2.63,2.63,2.69,2.32,2.30,2.29,2.29
369.14,-0.33,-2.61,-0.35,-2.63,2.63,2.69,2.34,2.30,2.28,2.28
372.83,-0.34,-2.62,-0.36,-2.64,2.64,2.68,2.35,2.30,2.27,2.28
376.56,-0.36,-2.63,-0.38,-2.65,2.65,2.68,2.37,2.28,2.27,2.27
380.33,-0.38,-2.64,-0.40,-2.66,2.66,2.68,2.38,2.27,2.26,2.26
384.13,-0.41,-2.66,-0.42,-2.67,2.67,2.67,2.40,2.26,2.25,2.25
387.97,-0.44,-2.68,-0.45,-2.69,2.69,2.67,2.42,2.25,2.24,2.24
391.85,-0.47,-2.70,-0.48,-2.71,2.71,2.66,2.45,2.24,2.24,2.23
395.77,-0.50,-2.74,-0.51,-2.73,2.73,2.66,2.47,2.23,2.23,2.24
399.73,-0.54,-2.77,-0.54,-2.76,2.76,2.66,2.49,2.22,2.22,2.22
403.72,-0.57,-2.78,-0.57,-2.78,2.78,2.65,2.52,2.21,2.22,2.21
407.76,-0.60,-2.80,-0.59,-2.80,2.80,2.65,2.54,2.20,2.21,2.20
411.84,-0.63,-2.84,-0.62,-2.82,2.82,2.64,2.57,2.19,2.21,2.21
415.96,-0.65,-2.85,-0.64,-2.84,2.84,2.64,2.60,2.19,2.20,2.20
420.12,-0.68,-2.88,-0.66,-2.86,2.86,2.64,2.62,2.18,2.20,2.20
424.32,-0.69,-2.89,-0.68,-2.87,2.87,2.63,2.65,2.18,2.19,2.20
428.56,-0.70,-2.89,-0.69,-2.88,2.88,2.63,2.68,2.18,2.19,2.19
432.85,-0.69,-2.88,-0.70,-2.89,2.89,2.62,2.71,2.20,2.19,2.18
437.18,-0.69,-2.87,-0.70,-2.89,2.89,2.62,2.73,2.20,2.19,2.18
441.55,-0.69,-2.88,-0.70,-2.89,2.89,2.61,2.76,2.20,2.19,2.19
445.96,-0.70,-2.89,-0.70,-2.89,2.89,2.61,2.79,2.18,2.19,2.19
450.42,-0.69,-2.87,-0.69,-2.88,2.88,2.61,2.81,2.19,2.19,2.18
454.93,-0.68,-2.87,-0.68,-2.87,2.87,2.60,2.84,2.19,2.19,2.19
459.48,-0.67,-2.86,-0.66,-2.85,2.85,2.60,2.86,2.18,2.19,2.19
464.07,-0.65,-2.85,-0.64,-2.83,2.83,2.59,2.88,2.18,2.20,2.20
468.71,-0.63,-2.84,-0.61,-2.81,2.81,2.59,2.90,2.18,2.20,2.21
473.40,-0.59,-2.80,-0.58,-2.79,2.79,2.58,2.91,2.20,2.21,2.21
478.13,-0.56,-2.78,-0.56,-2.77,2.77,2.58,2.93,2.21,2.21,2.21
482.91,-0.53,-2.75,-0.53,-2.74,2.74,2.57,2.94,2.21,2.22,2.21
487.74,-0.49,-2.72,-0.50,-2.72,2.72,2.57,2.95,2.23,2.22,2.22
492.62,-0.46,-2.69,-0.47,-2.69,2.69,2.56,2.95,2.23,2.23,2.23
497.55,-0.43,-2.66,-0.44,-2.67,2.67,2.56,2.96,2.24,2.23,2.23
502.52,-0.40,-2.64,-0.41,-2.65,2.65,2.55,2.96,2.25,2.24,2.24
