frequency,raw,error,smoothed,error_smoothed,equalization,parametric_eq,fixed_band_eq,equalized_raw,equalized_smoothed,target
20.00,2.95,-2.63,2.92,-2.68,2.68,2.64,0.69,5.63,5.61,5.58
20.20,2.99,-2.64,2.98,-2.67,2.67,2.67,0.71,5.65,5.64,5.63
20.40,3.03,-2.65,3.03,-2.65,2.65,2.70,0.73,5.67,5.68,5.68
20.61,3.07,-2.64,3.08,-2.63,2.63,2.72,0.76,5.69,5.71,5.70
20.81,3.11,-2.65,3.14,-2.60,2.60,2.74,0.78,5.71,5.74,5.76
21.02,3.16,-2.64,3.19,-2.58,2.58,2.75,0.80,5.74,5.77,5.79
21.23,3.22,-2.60,3.24,-2.56,2.56,2.76,0.83,5.77,5.79,5.81
21.44,3.28,-2.56,3.28,-2.53,2.53,2.76,0.86,5.81,5.81,5.83
21.66,3.35,-2.51,3.33,-2.50,2.50,2.76,0.88,5.85,5.83,5.85
21.87,3.41,-2.45,3.38,-2.48,2.48,2.76,0.91,5.88,5.85,5.86
22.09,3.46,-2.42,3.42,-2.45,2.45,2.75,0.94,5.90,5.87,5.88
22.31,3.49,-2.40,3.46,-2.42,2.42,2.74,0.97,5.90,5.88,5.89
22.54,3.52,-2.37,3.51,-2.38,2.38,2.73,1.00,5.89,5.89,5.89
22.76,3.54,-2.35,3.55,-2.34,2.34,2.71,1.03,5.88,5.89,5.89
22.99,3.57,-2.31,3.59,-2.30,2.30,2.68,1.06,5.87,5.89,5.88
23.22,3.61,-2.27,3.63,-2.26,2.26,2.66,1.09,5.87,5.89,5.88
23.45,3.66,-2.22,3.67,-2.23,2.23,2.63,1.12,5.89,5.89,5.88
23.69,3.70,-2.19,3.70,-2.19,2.19,2.59,1.16,5.89,5.89,5.89
23.92,3.75,-2.14,3.74,-2.15,2.15,2.56,1.19,5.90,5.89,5.89
24.16,3.78,-2.12,3.78,-2.12,2.12,2.52,1.23,5.90,5.89,5.89
24.40,3.81,-2.10,3.81,-2.08,2.08,2.48,1.26,5.89,5.89,5.90
24.65,3.84,-2.06,3.84,-2.05,2.05,2.43,1.30,5.88,5.89,5.89
24.89,3.88,-2.01,3.88,-2.01,2.01,2.39,1.33,5.89,5.89,5.89
25.14,3.91,-1.98,3.91,-1.98,1.98,2.34,1.37,5.89,5.89,5.89
25.39,3.96,-1.94,3.95,-1.95,1.95,2.30,1.40,5.91,5.89,5.90
25.65,4.00,-1.90,3.98,-1.91,1.91,2.25,1.44,5.91,5.90,5.90
25.91,4.04,-1.85,4.02,-1.88,1.88,2.20,1.47,5.91,5.89,5.89
26.16,4.07,-1.82,4.05,-1.84,1.84,2.15,1.51,5.91,5.89,5.89
26.43,4.08,-1.81,4.08,-1.81,1.81,2.10,1.55,5.88,5.89,5.89
26.69,4.09,-1.80,4.11,-1.77,1.77,2.05,1.58,5.86,5.89,5.88
26.96,4.10,-1.80,4.14,-1.74,1.74,2.00,1.61,5.84,5.88,5.89
27.23,4.16,-1.73,4.18,-1.70,1.70,1.94,1.65,5.86,5.88,5.89
27.50,4.22,-1.67,4.22,-1.66,1.66,1.89,1.68,5.88,5.88,5.89
27.77,4.29,-1.59,4.26,-1.62,1.62,1.84,1.71,5.91,5.88,5.88
28.05,4.34,-1.54,4.30,-1.58,1.58,1.79,1.74,5.91,5.88,5.88
28.33,4.35,-1.52,4.34,-1.54,1.54,1.75,1.77,5.88,5.88,5.87
28.62,4.35,-1.52,4.38,-1.50,1.50,1.70,1.79,5.85,5.87,5.86
28.90,4.36,-1.51,4.41,-1.46,1.46,1.65,1.82,5.82,5.87,5.87
29.19,4.41,-1.45,4.45,-1.42,1.42,1.60,1.84,5.83,5.87,5.86
29.48,4.49,-1.39,4.48,-1.39,1.39,1.55,1.86,5.88,5.87,5.88
29.78,4.56,-1.31,4.51,-1.36,1.36,1.51,1.88,5.92,5.87,5.87
30.08,4.62,-1.26,4.53,-1.33,1.33,1.46,1.89,5.95,5.86,5.87
30.38,4.60,-1.26,4.55,-1.32,1.32,1.42,1.90,5.92,5.86,5.86
30.68,4.58,-1.28,4.56,-1.30,1.30,1.38,1.91,5.88,5.86,5.86
30.99,4.56,-1.30,4.58,-1.28,1.28,1.34,1.91,5.84,5.86,5.86
31.30,4.57,-1.29,4.60,-1.26,1.26,1.29,1.92,5.83,5.86,5.86
31.61,4.59,-1.27,4.61,-1.24,1.24,1.25,1.92,5.83,5.85,5.85
31.93,4.61,-1.24,4.63,-1.22,1.22,1.22,1.91,5.82,5.85,5.85
32.24,4.62,-1.22,4.65,-1.20,1.20,1.18,1.91,5.82,5.84,5.84
32.57,4.63,-1.22,4.66,-1.18,1.18,1.14,1.90,5.81,5.84,5.84
32.89,4.64,-1.20,4.67,-1.17,1.17,1.10,1.89,5.81,5.83,5.84
33.22,4.67,-1.16,4.68,-1.15,1.15,1.07,1.87,5.82,5.83,5.83
33.55,4.71,-1.12,4.69,-1.13,1.13,1.03,1.86,5.84,5.82,5.83
33.89,4.75,-1.06,4.71,-1.11,1.11,1.00,1.84,5.86,5.82,5.81
34.23,4.76,-1.06,4.72,-1.09,1.09,0.97,1.82,5.85,5.81,5.82
34.57,4.76,-1.05,4.74,-1.07,1.07,0.94,1.79,5.83,5.81,5.81
34.92,4.76,-1.04,4.75,-1.06,1.06,0.90,1.77,5.81,5.80,5.80
35.27,4.76,-1.04,4.75,-1.04,1.04,0.87,1.74,5.80,5.80,5.80
35.62,4.76,-1.04,4.76,-1.04,1.04,0.84,1.71,5.79,5.80,5.79
35.97,4.76,-1.03,4.76,-1.03,1.03,0.82,1.68,5.79,5.79,5.79
36.33,4.76,-1.04,4.76,-1.03,1.03,0.79,1.65,5.79,5.79,5.80
36.70,4.76,-1.02,4.75,-1.03,1.03,0.76,1.62,5.79,5.79,5.78
37.06,4.76,-1.02,4.75,-1.04,1.04,0.73,1.59,5.79,5.79,5.78
37.43,4.76,-1.03,4.75,-1.03,1.03,0.71,1.56,5.79,5.79,5.79
37.81,4.76,-1.03,4.76,-1.03,1.03,0.68,1.53,5.79,5.79,5.79
38.19,4.76,-1.02,4.77,-1.02,1.02,0.66,1.49,5.78,5.79,5.78
38.57,4.76,-1.03,4.77,-1.01,1.01,0.63,1.46,5.77,5.79,5.79
38.95,4.76,-1.03,4.78,-1.00,1.00,0.61,1.43,5.76,5.78,5.79
39.34,4.76,-1.03,4.80,-0.99,0.99,0.59,1.40,5.75,5.78,5.79
39.74,4.76,-1.02,4.81,-0.98,0.98,0.56,1.36,5.73,5.78,5.78
40.14,4.78,-1.01,4.82,-0.96,0.96,0.54,1.33,5.74,5.78,5.78
40.54,4.86,-0.92,4.83,-0.95,0.95,0.52,1.30,5.81,5.78,5.78
40.94,4.93,-0.84,4.84,-0.93,0.93,0.50,1.27,5.86,5.77,5.77
41.35,4.91,-0.86,4.85,-0.92,0.92,0.48,1.24,5.83,5.77,5.76
41.76,4.88,-0.88,4.86,-0.90,0.90,0.46,1.21,5.78,5.76,5.76
42.18,4.86,-0.90,4.87,-0.88,0.88,0.44,1.18,5.74,5.75,5.76
42.60,4.86,-0.88,4.88,-0.86,0.86,0.42,1.15,5.72,5.74,5.74
43.03,4.86,-0.87,4.88,-0.84,0.84,0.40,1.13,5.70,5.72,5.73
43.46,4.86,-0.87,4.88,-0.83,0.83,0.38,1.10,5.69,5.71,5.72
43.90,4.86,-0.84,4.87,-0.83,0.83,0.36,1.08,5.68,5.70,5.70
44.33,4.86,-0.82,4.86,-0.82,0.82,0.35,1.05,5.68,5.68,5.68
44.78,4.86,-0.80,4.85,-0.82,0.82,0.33,1.03,5.68,5.67,5.66
45.23,4.86,-0.79,4.84,-0.82,0.82,0.31,1.00,5.67,5.65,5.65
45.68,4.86,-0.77,4.83,-0.81,0.81,0.30,0.98,5.66,5.64,5.63
46.13,4.85,-0.76,4.82,-0.80,0.80,0.28,0.96,5.64,5.62,5.61
46.60,4.80,-0.81,4.81,-0.79,0.79,0.26,0.94,5.59,5.60,5.61
47.06,4.76,-0.83,4.80,-0.79,0.79,0.25,0.92,5.54,5.59,5.58
47.53,4.76,-0.82,4.78,-0.79,0.79,0.23,0.90,5.54,5.57,5.57
48.01,4.76,-0.81,4.76,-0.79,0.79,0.21,0.88,5.55,5.55,5.57
48.49,4.76,-0.79,4.75,-0.79,0.79,0.20,0.86,5.55,5.54,5.55
48.97,4.76,-0.77,4.73,-0.79,0.79,0.18,0.85,5.55,5.52,5.53
49.46,4.76,-0.74,4.72,-0.78,0.78,0.17,0.83,5.54,5.51,5.50
49.96,4.76,-0.72,4.71,-0.78,0.78,0.15,0.81,5.53,5.49,5.48
50.46,4.69,-0.79,4.70,-0.77,0.77,0.14,0.80,5.46,5.47,5.47
50.96,4.61,-0.85,4.69,-0.77,0.77,0.12,0.78,5.37,5.46,5.46
51.47,4.63,-0.81,4.68,-0.76,0.76,0.11,0.77,5.39,5.44,5.43
51.99,4.66,-0.76,4.68,-0.75,0.75,0.10,0.75,5.40,5.43,5.42
52.51,4.66,-0.75,4.67,-0.74,0.74,0.08,0.74,5.40,5.41,5.41
53.03,4.66,-0.75,4.65,-0.74,0.74,0.07,0.73,5.40,5.40,5.40
53.56,4.71,-0.68,4.64,-0.74,0.74,0.05,0.71,5.45,5.38,5.39
54.10,4.72,-0.65,4.62,-0.74,0.74,0.04,0.70,5.46,5.37,5.37
54.64,4.62,-0.73,4.60,-0.75,0.75,0.03,0.69,5.37,5.35,5.35
55.18,4.56,-0.78,4.58,-0.76,0.76,0.01,0.67,5.31,5.34,5.34
55.74,4.56,-0.76,4.56,-0.76,0.76,-0.00,0.66,5.32,5.32,5.32
56.29,4.56,-0.75,4.54,-0.76,0.76,-0.02,0.64,5.32,5.31,5.31
56.86,4.56,-0.73,4.52,-0.77,0.77,-0.03,0.63,5.32,5.29,5.29
57.42,4.49,-0.77,4.50,-0.77,0.77,-0.04,0.61,5.26,5.27,5.25
58.00,4.40,-0.84,4.47,-0.77,0.77,-0.06,0.60,5.17,5.25,5.24
58.58,4.43,-0.80,4.45,-0.77,0.77,-0.07,0.58,5.19,5.22,5.23
59.16,4.44,-0.77,4.43,-0.76,0.76,-0.08,0.56,5.20,5.19,5.20
59.76,4.38,-0.80,4.40,-0.75,0.75,-0.10,0.55,5.13,5.16,5.18
60.35,4.36,-0.77,4.38,-0.74,0.74,-0.11,0.53,5.10,5.12,5.13
60.96,4.36,-0.74,4.37,-0.72,0.72,-0.12,0.51,5.08,5.09,5.10
61.57,4.36,-0.69,4.34,-0.70,0.70,-0.14,0.49,5.06,5.04,5.05
62.18,4.36,-0.64,4.32,-0.68,0.68,-0.15,0.47,5.04,5.00,5.00
62.80,4.36,-0.59,4.30,-0.66,0.66,-0.17,0.45,5.01,4.96,4.95
63.43,4.33,-0.57,4.28,-0.62,0.62,-0.18,0.42,4.95,4.91,4.90
64.07,4.29,-0.56,4.27,-0.59,0.59,-0.19,0.40,4.88,4.86,4.85
64.71,4.23,-0.57,4.25,-0.55,0.55,-0.21,0.37,4.78,4.81,4.80
65.35,4.19,-0.57,4.23,-0.53,0.53,-0.22,0.35,4.71,4.76,4.75
66.01,4.16,-0.54,4.21,-0.49,0.49,-0.24,0.32,4.65,4.70,4.70
66.67,4.16,-0.49,4.19,-0.46,0.46,-0.25,0.29,4.62,4.65,4.65
67.33,4.16,-0.43,4.17,-0.43,0.43,-0.26,0.26,4.58,4.60,4.59
68.01,4.16,-0.39,4.15,-0.39,0.39,-0.28,0.23,4.55,4.54,4.55
68.69,4.19,-0.30,4.13,-0.36,0.36,-0.29,0.20,4.54,4.48,4.49
69.37,4.17,-0.26,4.11,-0.31,0.31,-0.31,0.17,4.48,4.43,4.43
70.07,4.11,-0.26,4.10,-0.27,0.27,-0.32,0.14,4.38,4.37,4.37
70.77,4.07,-0.25,4.09,-0.22,0.22,-0.34,0.11,4.29,4.31,4.32
71.48,4.06,-0.20,4.08,-0.16,0.16,-0.35,0.07,4.22,4.25,4.26
72.19,4.06,-0.13,4.08,-0.11,0.11,-0.37,0.04,4.16,4.18,4.19
72.91,4.06,-0.07,4.07,-0.05,0.05,-0.39,0.00,4.11,4.12,4.12
73.64,4.06,-0.00,4.07,0.01,-0.01,-0.40,-0.03,4.05,4.06,4.06
74.38,4.06,0.06,4.06,0.06,-0.06,-0.42,-0.07,4.00,4.00,3.99
75.12,4.06,0.13,4.06,0.12,-0.12,-0.43,-0.11,3.93,3.93,3.93
75.87,4.06,0.20,4.06,0.19,-0.19,-0.45,-0.15,3.87,3.87,3.86
76.63,4.06,0.26,4.05,0.25,-0.25,-0.47,-0.19,3.81,3.81,3.80
77.40,4.06,0.31,4.05,0.30,-0.30,-0.48,-0.23,3.75,3.75,3.74
78.17,4.06,0.38,4.05,0.36,-0.36,-0.50,-0.27,3.69,3.69,3.67
78.95,4.06,0.43,4.05,0.42,-0.42,-0.52,-0.31,3.63,3.63,3.63
79.74,4.06,0.49,4.05,0.48,-0.48,-0.54,-0.35,3.58,3.57,3.57
80.54,4.06,0.54,4.05,0.53,-0.53,-0.56,-0.39,3.52,3.51,3.52
81.35,4.06,0.60,4.05,0.59,-0.59,-0.57,-0.43,3.47,3.46,3.45
82.16,4.07,0.67,4.05,0.64,-0.64,-0.59,-0.47,3.42,3.40,3.40
82.98,4.10,0.74,4.04,0.70,-0.70,-0.61,-0.52,3.40,3.35,3.35
83.81,3.99,0.70,4.04,0.75,-0.75,-0.63,-0.56,3.23,3.29,3.29
84.65,3.96,0.73,4.04,0.81,-0.81,-0.65,-0.61,3.15,3.23,3.23
85.50,4.01,0.83,4.05,0.87,-0.87,-0.67,-0.65,3.13,3.17,3.18
86.35,4.07,0.94,4.05,0.94,-0.94,-0.69,-0.70,3.13,3.12,3.12
87.22,4.09,1.02,4.06,1.00,-1.00,-0.71,-0.75,3.09,3.06,3.06
88.09,4.06,1.05,4.06,1.06,-1.06,-0.73,-0.79,2.99,3.00,3.00
88.97,4.06,1.12,4.06,1.12,-1.12,-0.76,-0.84,2.93,2.94,2.94
89.86,4.06,1.18,4.06,1.18,-1.18,-0.78,-0.89,2.88,2.88,2.88
90.76,4.06,1.24,4.05,1.23,-1.23,-0.80,-0.94,2.83,2.82,2.82
91.66,4.06,1.29,4.04,1.28,-1.28,-0.82,-0.99,2.77,2.76,2.76
92.58,4.07,1.38,4.04,1.33,-1.33,-0.85,-1.04,2.73,2.70,2.69
93.51,4.07,1.43,4.03,1.38,-1.38,-0.87,-1.09,2.68,2.64,2.64
94.44,4.05,1.47,4.00,1.42,-1.42,-0.89,-1.14,2.63,2.58,2.58
95.39,4.00,1.47,3.97,1.45,-1.45,-0.92,-1.19,2.55,2.52,2.53
96.34,3.93,1.47,3.94,1.48,-1.48,-0.94,-1.25,2.45,2.46,2.46
97.30,3.86,1.45,3.91,1.50,-1.50,-0.97,-1.30,2.36,2.41,2.40
98.28,3.84,1.49,3.87,1.52,-1.52,-0.99,-1.35,2.32,2.35,2.35
99.26,3.83,1.54,3.84,1.55,-1.55,-1.02,-1.41,2.28,2.29,2.29
100.25,3.81,1.57,3.81,1.58,-1.58,-1.05,-1.46,2.23,2.23,2.23
101.25,3.79,1.61,3.78,1.61,-1.61,-1.07,-1.51,2.18,2.18,2.18
102.27,3.73,1.61,3.74,1.62,-1.62,-1.10,-1.57,2.10,2.12,2.12
103.29,3.67,1.62,3.70,1.64,-1.64,-1.13,-1.62,2.03,2.06,2.05
104.32,3.63,1.62,3.66,1.66,-1.66,-1.16,-1.68,1.97,2.00,2.00
105.37,3.63,1.68,3.62,1.68,-1.68,-1.19,-1.73,1.95,1.94,1.95
106.42,3.60,1.71,3.58,1.71,-1.71,-1.22,-1.78,1.89,1.88,1.89
107.48,3.58,1.76,3.55,1.73,-1.73,-1.25,-1.83,1.84,1.82,1.82
108.56,3.57,1.82,3.51,1.75,-1.75,-1.28,-1.88,1.81,1.75,1.75
109.64,3.58,1.88,3.46,1.77,-1.77,-1.31,-1.93,1.81,1.69,1.69
110.74,3.45,1.82,3.42,1.79,-1.79,-1.34,-1.98,1.66,1.63,1.63
111.85,3.26,1.68,3.38,1.81,-1.81,-1.38,-2.03,1.45,1.57,1.58
112.97,3.24,1.73,3.34,1.83,-1.83,-1.41,-2.07,1.41,1.51,1.50
114.10,3.28,1.83,3.30,1.85,-1.85,-1.44,-2.11,1.42,1.45,1.45
115.24,3.28,1.89,3.27,1.87,-1.87,-1.47,-2.15,1.40,1.39,1.39
116.39,3.26,1.93,3.23,1.89,-1.89,-1.51,-2.19,1.37,1.34,1.32
117.55,3.21,1.93,3.19,1.91,-1.91,-1.54,-2.22,1.30,1.29,1.28
118.73,3.15,1.92,3.16,1.92,-1.92,-1.58,-2.25,1.22,1.24,1.22
119.92,3.09,1.90,3.14,1.95,-1.95,-1.61,-2.28,1.14,1.19,1.19
121.12,3.10,1.96,3.11,1.97,-1.97,-1.65,-2.31,1.13,1.14,1.14
122.33,3.11,2.01,3.09,1.99,-1.99,-1.68,-2.33,1.12,1.10,1.09
123.55,3.12,2.06,3.07,2.02,-2.02,-1.72,-2.35,1.10,1.05,1.06
124.79,3.07,2.05,3.05,2.03,-2.03,-1.76,-2.37,1.04,1.01,1.02
126.03,3.03,2.05,3.01,2.03,-2.03,-1.79,-2.38,0.99,0.97,0.98
127.29,2.97,2.02,2.98,2.05,-2.05,-1.83,-2.39,0.92,0.93,0.95
128.57,2.94,2.04,2.96,2.06,-2.06,-1.87,-2.39,0.87,0.90,0.90
129.85,2.95,2.09,2.94,2.08,-2.08,-1.90,-2.39,0.87,0.86,0.86
131.15,2.96,2.14,2.91,2.09,-2.09,-1.94,-2.39,0.87,0.82,0.82
132.46,2.92,2.14,2.88,2.09,-2.09,-1.98,-2.39,0.82,0.78,0.78
133.79,2.77,2.02,2.85,2.10,-2.10,-2.01,-2.38,0.66,0.75,0.74
135.12,2.73,2.03,2.82,2.11,-2.11,-2.05,-2.38,0.62,0.71,0.70
136.48,2.76,2.08,2.79,2.12,-2.12,-2.09,-2.36,0.64,0.67,0.67
137.84,2.77,2.14,2.76,2.12,-2.12,-2.12,-2.35,0.65,0.64,0.63
139.22,2.79,2.20,2.72,2.12,-2.12,-2.16,-2.34,0.66,0.60,0.59
140.61,2.82,2.27,2.69,2.13,-2.13,-2.19,-2.32,0.69,0.56,0.54
142.02,2.67,2.14,2.66,2.14,-2.14,-2.23,-2.30,0.53,0.52,0.52
143.44,2.55,2.06,2.63,2.15,-2.15,-2.26,-2.28,0.40,0.48,0.48
144.87,2.54,2.10,2.60,2.17,-2.17,-2.29,-2.26,0.37,0.43,0.43
146.32,2.60,2.21,2.57,2.19,-2.19,-2.32,-2.24,0.41,0.38,0.39
147.78,2.60,2.25,2.55,2.22,-2.22,-2.35,-2.22,0.37,0.32,0.35
149.26,2.51,2.22,2.52,2.26,-2.26,-2.38,-2.20,0.25,0.26,0.29
150.75,2.38,2.16,2.48,2.28,-2.28,-2.41,-2.18,0.09,0.19,0.22
152.26,2.34,2.20,2.42,2.30,-2.30,-2.44,-2.16,0.04,0.12,0.14
153.78,2.36,2.29,2.37,2.32,-2.32,-2.47,-2.13,0.04,0.05,0.07
155.32,2.41,2.42,2.30,2.33,-2.33,-2.49,-2.11,0.08,-0.03,-0.01
156.88,2.37,2.46,2.24,2.34,-2.34,-2.51,-2.09,0.02,-0.10,-0.10
158.44,2.22,2.40,2.18,2.36,-2.36,-2.53,-2.08,-0.14,-0.18,-0.19
160.03,2.20,2.47,2.11,2.37,-2.37,-2.55,-2.06,-0.17,-0.26,-0.28
161.63,2.13,2.48,2.04,2.37,-2.37,-2.57,-2.04,-0.24,-0.33,-0.35
163.24,1.98,2.40,1.96,2.36,-2.36,-2.59,-2.03,-0.38,-0.40,-0.42
164.88,1.83,2.31,1.90,2.36,-2.36,-2.60,-2.01,-0.53,-0.46,-0.48
166.53,1.74,2.27,1.84,2.35,-2.35,-2.61,-2.00,-0.62,-0.51,-0.53
168.19,1.68,2.26,1.78,2.34,-2.34,-2.62,-1.99,-0.67,-0.56,-0.58
169.87,1.65,2.27,1.73,2.33,-2.33,-2.63,-1.98,-0.68,-0.60,-0.62
171.57,1.64,2.28,1.68,2.32,-2.32,-2.64,-1.97,-0.68,-0.63,-0.65
173.29,1.63,2.30,1.65,2.31,-2.31,-2.64,-1.96,-0.68,-0.66,-0.67
175.02,1.63,2.31,1.63,2.31,-2.31,-2.64,-1.96,-0.68,-0.68,-0.68
176.77,1.62,2.32,1.62,2.31,-2.31,-2.64,-1.95,-0.69,-0.69,-0.70
178.54,1.62,2.33,1.60,2.31,-2.31,-2.64,-1.95,-0.69,-0.71,-0.71
180.32,1.63,2.33,1.60,2.31,-2.31,-2.63,-1.95,-0.69,-0.72,-0.71
182.13,1.63,2.33,1.61,2.33,-2.33,-2.63,-1.95,-0.71,-0.73,-0.70
183.95,1.64,2.36,1.62,2.36,-2.36,-2.62,-1.95,-0.72,-0.74,-0.72
185.79,1.65,2.38,1.62,2.37,-2.37,-2.60,-1.96,-0.73,-0.75,-0.73
187.65,1.67,2.42,1.62,2.38,-2.38,-2.59,-1.96,-0.71,-0.76,-0.75
189.52,1.62,2.39,1.61,2.39,-2.39,-2.57,-1.97,-0.77,-0.78,-0.77
191.42,1.59,2.38,1.59,2.39,-2.39,-2.56,-1.98,-0.80,-0.80,-0.79
193.33,1.54,2.35,1.57,2.39,-2.39,-2.54,-1.99,-0.85,-0.82,-0.81
195.27,1.53,2.36,1.55,2.39,-2.39,-2.51,-2.00,-0.86,-0.84,-0.84
197.22,1.54,2.40,1.53,2.39,-2.39,-2.49,-2.01,-0.85,-0.86,-0.86
199.19,1.56,2.45,1.51,2.39,-2.39,-2.47,-2.02,-0.83,-0.88,-0.89
201.18,1.59,2.50,1.49,2.40,-2.40,-2.44,-2.04,-0.81,-0.91,-0.91
203.19,1.47,2.40,1.47,2.40,-2.40,-2.41,-2.05,-0.94,-0.93,-0.93
205.23,1.35,2.31,1.45,2.40,-2.40,-2.38,-2.07,-1.05,-0.96,-0.96
207.28,1.35,2.32,1.42,2.40,-2.40,-2.35,-2.08,-1.05,-0.98,-0.97
209.35,1.36,2.35,1.39,2.39,-2.39,-2.32,-2.10,-1.03,-1.00,-1.00
211.44,1.36,2.39,1.37,2.39,-2.39,-2.28,-2.11,-1.03,-1.02,-1.03
213.56,1.36,2.40,1.35,2.39,-2.39,-2.25,-2.13,-1.03,-1.04,-1.04
215.69,1.35,2.40,1.32,2.38,-2.38,-2.22,-2.14,-1.03,-1.06,-1.06
217.85,1.38,2.45,1.29,2.36,-2.36,-2.18,-2.15,-0.99,-1.07,-1.07
220.03,1.32,2.40,1.26,2.34,-2.34,-2.14,-2.17,-1.02,-1.08,-1.09
222.23,1.26,2.37,1.23,2.32,-2.32,-2.10,-2.18,-1.06,-1.09,-1.11
224.45,1.15,2.25,1.20,2.30,-2.30,-2.07,-2.19,-1.15,-1.10,-1.10
226.70,1.11,2.22,1.18,2.28,-2.28,-2.03,-2.20,-1.18,-1.10,-1.11
228.96,1.15,2.25,1.16,2.26,-2.26,-1.99,-2.21,-1.11,-1.10,-1.10
231.25,1.18,2.27,1.13,2.22,-2.22,-1.95,-2.21,-1.05,-1.09,-1.09
233.57,1.18,2.26,1.10,2.19,-2.19,-1.91,-2.21,-1.01,-1.08,-1.09
235.90,1.03,2.11,1.08,2.15,-2.15,-1.87,-2.21,-1.12,-1.07,-1.08
238.26,0.97,2.04,1.06,2.12,-2.12,-1.83,-2.21,-1.15,-1.06,-1.07
240.64,1.00,2.05,1.04,2.09,-2.09,-1.79,-2.21,-1.09,-1.04,-1.05
243.05,1.04,2.06,1.04,2.06,-2.06,-1.75,-2.20,-1.02,-1.02,-1.02
245.48,1.08,2.08,1.03,2.03,-2.03,-1.71,-2.18,-0.96,-1.00,-1.00
247.93,1.01,1.98,1.03,2.01,-2.01,-1.67,-2.17,-1.00,-0.98,-0.97
250.41,0.99,1.95,1.03,1.99,-1.99,-1.63,-2.15,-1.00,-0.96,-0.96
252.92,1.00,1.93,1.02,1.96,-1.96,-1.59,-2.13,-0.96,-0.94,-0.93
255.45,1.01,1.92,1.00,1.92,-1.92,-1.55,-2.10,-0.91,-0.92,-0.91
258.00,1.02,1.90,0.98,1.87,-1.87,-1.51,-2.08,-0.85,-0.89,-0.89
260.58,1.03,1.90,0.96,1.83,-1.83,-1.47,-2.04,-0.80,-0.87,-0.87
263.19,1.02,1.86,0.95,1.79,-1.79,-1.44,-2.01,-0.77,-0.85,-0.84
265.82,0.95,1.78,0.92,1.75,-1.75,-1.40,-1.97,-0.80,-0.82,-0.83
268.48,0.89,1.69,0.89,1.69,-1.69,-1.36,-1.93,-0.80,-0.80,-0.81
271.16,0.84,1.61,0.85,1.62,-1.62,-1.32,-1.88,-0.79,-0.78,-0.77
273.87,0.82,1.58,0.81,1.56,-1.56,-1.28,-1.84,-0.74,-0.75,-0.76
276.61,0.75,1.47,0.78,1.51,-1.51,-1.25,-1.79,-0.76,-0.73,-0.73
279.38,0.69,1.39,0.74,1.44,-1.44,-1.21,-1.74,-0.76,-0.70,-0.70
282.17,0.64,1.32,0.70,1.37,-1.37,-1.17,-1.68,-0.74,-0.68,-0.68
284.99,0.62,1.26,0.65,1.30,-1.30,-1.14,-1.63,-0.68,-0.65,-0.65
287.84,0.65,1.28,0.61,1.23,-1.23,-1.10,-1.57,-0.58,-0.62,-0.63
290.72,0.66,1.25,0.58,1.17,-1.17,-1.06,-1.51,-0.51,-0.59,-0.60
293.63,0.52,1.09,0.55,1.11,-1.11,-1.03,-1.45,-0.59,-0.57,-0.57
296.57,0.45,0.98,0.51,1.05,-1.05,-0.99,-1.39,-0.60,-0.54,-0.54
299.53,0.47,0.98,0.48,0.99,-0.99,-0.96,-1.33,-0.52,-0.51,-0.51
302.53,0.50,0.99,0.44,0.93,-0.93,-0.92,-1.27,-0.43,-0.49,-0.50
305.55,0.48,0.93,0.41,0.87,-0.87,-0.89,-1.21,-0.39,-0.46,-0.45
308.61,0.34,0.77,0.38,0.82,-0.82,-0.86,-1.14,-0.48,-0.44,-0.44
311.69,0.30,0.71,0.34,0.76,-0.76,-0.82,-1.08,-0.46,-0.42,-0.41
314.81,0.32,0.70,0.31,0.70,-0.70,-0.79,-1.01,-0.39,-0.39,-0.38
317.96,0.34,0.70,0.27,0.65,-0.65,-0.76,-0.95,-0.31,-0.37,-0.37
321.14,0.27,0.63,0.23,0.59,-0.59,-0.72,-0.88,-0.32,-0.36,-0.36
324.35,0.13,0.47,0.20,0.54,-0.54,-0.69,-0.82,-0.41,-0.34,-0.34
327.59,0.10,0.43,0.16,0.49,-0.49,-0.66,-0.76,-0.39,-0.33,-0.33
330.87,0.11,0.43,0.12,0.43,-0.43,-0.62,-0.69,-0.32,-0.31,-0.32
334.18,0.11,0.41,0.07,0.37,-0.37,-0.59,-0.63,-0.27,-0.30,-0.30
337.52,0.06,0.35,0.02,0.32,-0.32,-0.56,-0.56,-0.26,-0.29,-0.30
340.90,0.02,0.30,-0.02,0.27,-0.27,-0.53,-0.50,-0.25,-0.29,-0.28
344.30,-0.04,0.23,-0.05,0.23,-0.23,-0.50,-0.43,-0.28,-0.28,-0.27
347.75,-0.08,0.19,-0.09,0.19,-0.19,-0.46,-0.37,-0.27,-0.28,-0.28
351.23,-0.14,0.13,-0.13,0.14,-0.14,-0.43,-0.30,-0.28,-0.27,-0.27
354.74,-0.20,0.07,-0.18,0.09,-0.09,-0.40,-0.24,-0.29,-0.27,-0.27
358.28,-0.27,-0.01,-0.22,0.05,-0.05,-0.37,-0.18,-0.32,-0.26,-0.26
361.87,-0.28,-0.02,-0.25,0.01,-0.01,-0.33,-0.11,-0.30,-0.26,-0.27
365.49,-0.27,-0.01,-0.29,-0.03,0.03,-0.30,-0.05,-0.25,-0.26,-0.26
369.14,-0.32,-0.05,-0.33,-0.07,0.07,-0.27,0.01,-0.25,-0.26,-0.27
372.83,-0.36,-0.09,-0.37,-0.10,0.10,-0.24,0.07,-0.26,-0.27,-0.27
376.56,-0.33,-0.06,-0.40,-0.13,0.13,-0.20,0.14,-0.20,-0.27,-0.27
380.33,-0.43,-0.17,-0.45,-0.17,0.17,-0.17,0.20,-0.26,-0.27,-0.27
384.13,-0.55,-0.28,-0.49,-0.21,0.21,-0.14,0.26,-0.34,-0.28,-0.27
387.97,-0.56,-0.28,-0.53,-0.24,0.24,-0.10,0.32,-0.32,-0.28,-0.28
391.85,-0.54,-0.25,-0.56,-0.27,0.27,-0.07,0.38,-0.27,-0.29,-0.29
395.77,-0.54,-0.26,-0.59,-0.30,0.30,-0.04,0.44,-0.24,-0.29,-0.28
399.73,-0.60,-0.31,-0.63,-0.34,0.34,-0.00,0.51,-0.27,-0.30,-0.29
403.72,-0.67,-0.38,-0.68,-0.38,0.38,0.03,0.56,-0.29,-0.30,-0.30
407.76,-0.72,-0.42,-0.73,-0.42,0.42,0.07,0.62,-0.31,-0.31,-0.31
411.84,-0.74,-0.43,-0.76,-0.45,0.45,0.10,0.68,-0.29,-0.31,-0.31
415.96,-0.85,-0.54,-0.80,-0.48,0.48,0.14,0.74,-0.37,-0.31,-0.31
420.12,-0.89,-0.58,-0.83,-0.51,0.51,0.18,0.80,-0.38,-0.31,-0.31
424.32,-0.80,-0.49,-0.85,-0.54,0.54,0.22,0.85,-0.26,-0.31,-0.31
428.56,-0.80,-0.50,-0.87,-0.57,0.57,0.25,0.91,-0.23,-0.30,-0.30
432.85,-0.87,-0.58,-0.89,-0.61,0.61,0.29,0.96,-0.27,-0.28,-0.29
437.18,-0.96,-0.68,-0.89,-0.63,0.63,0.33,1.01,-0.33,-0.26,-0.29
441.55,-0.99,-0.75,-0.89,-0.66,0.66,0.37,1.06,-0.33,-0.24,-0.25
445.96,-0.92,-0.70,-0.89,-0.68,0.68,0.41,1.11,-0.24,-0.20,-0.22
450.42,-0.85,-0.66,-0.87,-0.70,0.70,0.46,1.15,-0.15,-0.17,-0.19
454.93,-0.83,-0.69,-0.85,-0.72,0.72,0.50,1.19,-0.11,-0.13,-0.14
459.48,-0.82,-0.73,-0.82,-0.74,0.74,0.54,1.23,-0.08,-0.08,-0.09
464.07,-0.84,-0.80,-0.80,-0.76,0.76,0.59,1.27,-0.08,-0.04,-0.04
468.71,-0.81,-0.83,-0.79,-0.80,0.80,0.63,1.31,-0.01,0.01,0.02
473.40,-0.75,-0.81,-0.78,-0.84,0.84,0.68,1.34,0.08,0.06,0.06
478.13,-0.70,-0.82,-0.76,-0.87,0.87,0.72,1.37,0.17,0.11,0.12
482.91,-0.65,-0.81,-0.74,-0.89,0.89,0.77,1.40,0.24,0.15,0.16
487.74,-0.74,-0.94,-0.72,-0.92,0.92,0.82,1.42,0.18,0.19,0.19
492.62,-0.70,-0.95,-0.71,-0.94,0.94,0.86,1.44,0.24,0.23,0.24
497.55,-0.66,-0.93,-0.72,-0.98,0.98,0.91,1.46,0.31,0.26,0.26
502.52,-0.71,-1.01,-0.72,-1.01,1.01,0.96,1.47,0.29,0.28,0.29
507.55,-0.84,-1.14,-0.73,-1.03,1.03,1.01,1.48,0.19,0.30,0.30
512.62,-0.85,-1.16,-0.75,-1.05,1.05,1.06,1.48,0.19,0.30,0.31
517.75,-0.79,-1.11,-0.77,-1.07,1.07,1.11,1.49,0.28,0.30,0.32
522.93,-0.79,-1.10,-0.82,-1.10,1.10,1.16,1.49,0.31,0.29,0.31
