frequency,raw,error,smoothed,error_smoothed,equalization,parametric_eq,fixed_band_eq,equalized_raw,equalized_smoothed,target
20.00,-2.35,-1.33,-2.35,-1.35,1.35,0.99,-0.12,-1.00,-1.00,-1.03
20.20,-2.29,-1.32,-2.28,-1.32,1.32,0.96,-0.12,-0.97,-0.96,-0.98
20.40,-2.22,-1.30,-2.22,-1.29,1.29,0.92,-0.12,-0.93,-0.92,-0.93
20.61,-2.16,-1.27,-2.15,-1.26,1.26,0.89,-0.12,-0.90,-0.89,-0.90
20.81,-2.10,-1.26,-2.09,-1.23,1.23,0.85,-0.12,-0.87,-0.86,-0.85
21.02,-2.03,-1.23,-2.03,-1.19,1.19,0.81,-0.12,-0.84,-0.83,-0.81
21.23,-1.96,-1.18,-1.96,-1.16,1.16,0.77,-0.12,-0.81,-0.81,-0.79
21.44,-1.88,-1.12,-1.90,-1.12,1.12,0.73,-0.12,-0.76,-0.78,-0.77
21.66,-1.81,-1.07,-1.84,-1.08,1.08,0.69,-0.12,-0.74,-0.76,-0.75
21.87,-1.73,-1.00,-1.78,-1.04,1.04,0.64,-0.12,-0.70,-0.74,-0.74
22.09,-1.68,-0.97,-1.72,-0.99,0.99,0.60,-0.12,-0.69,-0.73,-0.72
22.31,-1.64,-0.94,-1.66,-0.95,0.95,0.56,-0.12,-0.70,-0.72,-0.71
22.54,-1.61,-0.91,-1.60,-0.89,0.89,0.51,-0.12,-0.72,-0.71,-0.71
22.76,-1.58,-0.88,-1.55,-0.84,0.84,0.47,-0.12,-0.74,-0.71,-0.71
22.99,-1.54,-0.83,-1.49,-0.79,0.79,0.42,-0.12,-0.75,-0.70,-0.72
23.22,-1.47,-0.76,-1.44,-0.73,0.73,0.38,-0.12,-0.74,-0.70,-0.72
23.45,-1.40,-0.69,-1.38,-0.68,0.68,0.34,-0.12,-0.72,-0.70,-0.72
23.69,-1.33,-0.63,-1.33,-0.63,0.63,0.29,-0.12,-0.70,-0.70,-0.71
23.92,-1.25,-0.55,-1.28,-0.58,0.58,0.25,-0.11,-0.67,-0.70,-0.71
24.16,-1.20,-0.50,-1.23,-0.53,0.53,0.21,-0.11,-0.68,-0.70,-0.71
24.40,-1.15,-0.46,-1.17,-0.47,0.47,0.17,-0.11,-0.68,-0.70,-0.70
24.65,-1.11,-0.41,-1.12,-0.42,0.42,0.13,-0.11,-0.70,-0.70,-0.71
24.89,-1.06,-0.36,-1.06,-0.36,0.36,0.08,-0.11,-0.70,-0.70,-0.71
25.14,-1.01,-0.31,-1.01,-0.30,0.30,0.04,-0.11,-0.71,-0.70,-0.71
25.39,-0.96,-0.27,-0.95,-0.25,0.25,0.00,-0.11,-0.71,-0.70,-0.70
25.65,-0.91,-0.22,-0.90,-0.20,0.20,-0.04,-0.11,-0.71,-0.70,-0.70
25.91,-0.86,-0.16,-0.85,-0.15,0.15,-0.08,-0.11,-0.72,-0.70,-0.71
26.16,-0.81,-0.11,-0.80,-0.10,0.10,-0.12,-0.11,-0.71,-0.70,-0.71
26.43,-0.75,-0.05,-0.75,-0.05,0.05,-0.15,-0.11,-0.71,-0.71,-0.71
26.69,-0.70,0.00,-0.71,0.00,-0.00,-0.19,-0.11,-0.70,-0.71,-0.71
26.96,-0.65,0.05,-0.66,0.05,-0.05,-0.23,-0.11,-0.70,-0.71,-0.71
27.23,-0.60,0.10,-0.61,0.10,-0.10,-0.27,-0.12,-0.70,-0.71,-0.71
27.50,-0.55,0.15,-0.56,0.15,-0.15,-0.30,-0.12,-0.70,-0.71,-0.71
27.77,-0.51,0.20,-0.52,0.19,-0.19,-0.34,-0.12,-0.70,-0.71,-0.72
28.05,-0.46,0.25,-0.48,0.24,-0.24,-0.38,-0.12,-0.70,-0.71,-0.72
28.33,-0.43,0.29,-0.43,0.28,-0.28,-0.41,-0.13,-0.71,-0.72,-0.73
28.62,-0.39,0.33,-0.39,0.33,-0.33,-0.45,-0.13,-0.72,-0.72,-0.73
28.90,-0.35,0.36,-0.35,0.37,-0.37,-0.48,-0.14,-0.72,-0.72,-0.72
29.19,-0.31,0.41,-0.30,0.42,-0.42,-0.52,-0.15,-0.73,-0.72,-0.73
29.48,-0.28,0.43,-0.26,0.46,-0.46,-0.55,-0.15,-0.74,-0.72,-0.72
29.78,-0.24,0.48,-0.22,0.50,-0.50,-0.59,-0.16,-0.75,-0.72,-0.73
30.08,-0.20,0.51,-0.18,0.54,-0.54,-0.62,-0.17,-0.75,-0.72,-0.72
30.38,-0.14,0.58,-0.14,0.58,-0.58,-0.66,-0.18,-0.73,-0.73,-0.73
30.68,-0.09,0.63,-0.11,0.62,-0.62,-0.69,-0.19,-0.71,-0.73,-0.73
30.99,-0.03,0.69,-0.07,0.66,-0.66,-0.73,-0.21,-0.69,-0.73,-0.73
31.30,-0.00,0.73,-0.03,0.70,-0.70,-0.76,-0.22,-0.70,-0.73,-0.74
31.61,0.03,0.76,0.00,0.74,-0.74,-0.79,-0.23,-0.71,-0.73,-0.74
31.93,0.06,0.79,0.04,0.78,-0.78,-0.83,-0.25,-0.72,-0.74,-0.74
32.24,0.08,0.82,0.07,0.81,-0.81,-0.86,-0.27,-0.74,-0.74,-0.75
32.57,0.09,0.83,0.11,0.85,-0.85,-0.89,-0.29,-0.77,-0.75,-0.75
32.89,0.11,0.85,0.14,0.90,-0.90,-0.93,-0.31,-0.79,-0.75,-0.75
33.22,0.15,0.90,0.18,0.94,-0.94,-0.96,-0.33,-0.79,-0.75,-0.76
33.55,0.20,0.95,0.22,0.98,-0.98,-1.00,-0.35,-0.78,-0.76,-0.76
33.89,0.25,1.01,0.26,1.02,-1.02,-1.03,-0.37,-0.77,-0.76,-0.77
34.23,0.29,1.05,0.29,1.06,-1.06,-1.06,-0.40,-0.77,-0.77,-0.77
34.57,0.33,1.10,0.33,1.10,-1.10,-1.10,-0.42,-0.77,-0.77,-0.78
34.92,0.36,1.13,0.36,1.14,-1.14,-1.13,-0.45,-0.78,-0.78,-0.78
35.27,0.41,1.19,0.40,1.18,-1.18,-1.16,-0.48,-0.77,-0.78,-0.79
35.62,0.46,1.24,0.43,1.21,-1.21,-1.20,-0.51,-0.76,-0.78,-0.79
35.97,0.51,1.29,0.46,1.25,-1.25,-1.23,-0.54,-0.74,-0.79,-0.79
36.33,0.53,1.31,0.50,1.28,-1.28,-1.27,-0.57,-0.75,-0.79,-0.79
36.70,0.55,1.34,0.52,1.31,-1.31,-1.30,-0.61,-0.76,-0.79,-0.80
37.06,0.57,1.36,0.55,1.34,-1.34,-1.34,-0.64,-0.77,-0.79,-0.80
37.43,0.57,1.35,0.58,1.37,-1.37,-1.37,-0.68,-0.80,-0.79,-0.79
37.81,0.57,1.35,0.61,1.40,-1.40,-1.41,-0.71,-0.83,-0.79,-0.79
38.19,0.59,1.38,0.63,1.42,-1.42,-1.44,-0.75,-0.83,-0.79,-0.80
38.57,0.63,1.41,0.66,1.45,-1.45,-1.47,-0.79,-0.82,-0.79,-0.79
38.95,0.68,1.45,0.69,1.47,-1.47,-1.51,-0.83,-0.80,-0.79,-0.78
39.34,0.71,1.49,0.72,1.50,-1.50,-1.54,-0.87,-0.79,-0.79,-0.79
39.74,0.75,1.53,0.75,1.53,-1.53,-1.58,-0.91,-0.79,-0.79,-0.79
40.14,0.79,1.57,0.78,1.56,-1.56,-1.62,-0.95,-0.78,-0.79,-0.79
40.54,0.83,1.61,0.81,1.60,-1.60,-1.65,-0.99,-0.77,-0.79,-0.79
40.94,0.87,1.66,0.84,1.63,-1.63,-1.69,-1.04,-0.76,-0.79,-0.80
41.35,0.88,1.67,0.87,1.66,-1.66,-1.72,-1.08,-0.79,-0.80,-0.80
41.76,0.87,1.67,0.89,1.70,-1.70,-1.76,-1.13,-0.83,-0.81,-0.81
42.18,0.90,1.70,0.92,1.73,-1.73,-1.79,-1.18,-0.83,-0.81,-0.81
42.60,0.96,1.77,0.93,1.75,-1.75,-1.83,-1.23,-0.80,-0.82,-0.82
43.03,1.01,1.83,0.94,1.78,-1.78,-1.86,-1.28,-0.77,-0.83,-0.83
43.46,0.99,1.82,0.95,1.80,-1.80,-1.90,-1.33,-0.81,-0.85,-0.84
43.90,0.97,1.82,0.97,1.82,-1.82,-1.93,-1.38,-0.86,-0.86,-0.86
44.33,0.97,1.84,0.98,1.85,-1.85,-1.97,-1.43,-0.88,-0.87,-0.88
44.78,0.97,1.86,0.98,1.87,-1.87,-2.00,-1.49,-0.90,-0.88,-0.90
45.23,0.98,1.88,1.00,1.89,-1.89,-2.04,-1.54,-0.92,-0.90,-0.91
45.68,1.00,1.91,1.02,1.93,-1.93,-2.07,-1.60,-0.93,-0.91,-0.92
46.13,1.01,1.94,1.04,1.96,-1.96,-2.11,-1.65,-0.96,-0.92,-0.94
46.60,1.02,1.95,1.06,2.00,-2.00,-2.14,-1.71,-0.98,-0.94,-0.94
47.06,1.04,1.99,1.09,2.04,-2.04,-2.18,-1.77,-1.00,-0.95,-0.96
47.53,1.10,2.06,1.11,2.08,-2.08,-2.21,-1.83,-0.98,-0.97,-0.97
48.01,1.17,2.13,1.13,2.12,-2.12,-2.25,-1.89,-0.95,-0.98,-0.97
48.49,1.17,2.15,1.16,2.16,-2.16,-2.28,-1.95,-0.99,-1.00,-0.99
48.97,1.17,2.17,1.18,2.19,-2.19,-2.32,-2.02,-1.02,-1.01,-1.01
49.46,1.24,2.26,1.20,2.22,-2.22,-2.35,-2.08,-0.99,-1.02,-1.03
49.96,1.32,2.36,1.22,2.26,-2.26,-2.38,-2.14,-0.94,-1.04,-1.05
50.46,1.30,2.35,1.24,2.29,-2.29,-2.42,-2.21,-1.00,-1.05,-1.06
50.96,1.27,2.33,1.26,2.33,-2.33,-2.45,-2.27,-1.06,-1.06,-1.07
51.47,1.27,2.35,1.28,2.36,-2.36,-2.48,-2.34,-1.09,-1.08,-1.09
51.99,1.27,2.36,1.30,2.39,-2.39,-2.51,-2.40,-1.12,-1.09,-1.10
52.51,1.27,2.37,1.32,2.42,-2.42,-2.54,-2.47,-1.15,-1.10,-1.11
53.03,1.27,2.37,1.33,2.45,-2.45,-2.57,-2.53,-1.18,-1.12,-1.11
53.56,1.27,2.39,1.34,2.46,-2.46,-2.61,-2.59,-1.20,-1.13,-1.13
54.10,1.29,2.42,1.34,2.48,-2.48,-2.64,-2.65,-1.19,-1.14,-1.14
54.64,1.39,2.54,1.34,2.49,-2.49,-2.67,-2.72,-1.10,-1.15,-1.16
55.18,1.44,2.59,1.34,2.50,-2.50,-2.69,-2.78,-1.06,-1.16,-1.16
55.74,1.39,2.56,1.33,2.50,-2.50,-2.72,-2.83,-1.12,-1.17,-1.18
56.29,1.37,2.55,1.34,2.52,-2.52,-2.75,-2.89,-1.15,-1.18,-1.19
56.86,1.37,2.56,1.33,2.53,-2.53,-2.78,-2.94,-1.16,-1.20,-1.20
57.42,1.37,2.59,1.33,2.54,-2.54,-2.81,-2.99,-1.17,-1.21,-1.23
58.00,1.37,2.60,1.32,2.56,-2.56,-2.83,-3.04,-1.19,-1.23,-1.24
58.58,1.25,2.49,1.32,2.57,-2.57,-2.86,-3.09,-1.32,-1.26,-1.25
59.16,1.19,2.45,1.31,2.59,-2.59,-2.89,-3.13,-1.41,-1.28,-1.27
59.76,1.25,2.53,1.30,2.61,-2.61,-2.91,-3.17,-1.36,-1.31,-1.29
60.35,1.27,2.59,1.29,2.63,-2.63,-2.94,-3.21,-1.36,-1.34,-1.33
60.96,1.27,2.63,1.27,2.64,-2.64,-2.96,-3.24,-1.37,-1.37,-1.37
61.57,1.27,2.67,1.25,2.66,-2.66,-2.98,-3.27,-1.39,-1.41,-1.41
62.18,1.27,2.71,1.24,2.69,-2.69,-3.01,-3.30,-1.42,-1.45,-1.45
62.80,1.27,2.76,1.23,2.72,-2.72,-3.03,-3.32,-1.45,-1.49,-1.50
63.43,1.27,2.80,1.21,2.74,-2.74,-3.05,-3.33,-1.48,-1.53,-1.54
64.07,1.27,2.85,1.20,2.77,-2.77,-3.08,-3.35,-1.51,-1.57,-1.59
64.71,1.27,2.89,1.20,2.82,-2.82,-3.10,-3.36,-1.55,-1.62,-1.63
65.35,1.21,2.87,1.20,2.86,-2.86,-3.12,-3.37,-1.66,-1.67,-1.67
66.01,1.10,2.81,1.20,2.91,-2.91,-3.14,-3.37,-1.81,-1.71,-1.72
66.67,1.12,2.88,1.19,2.96,-2.96,-3.16,-3.37,-1.84,-1.76,-1.77
67.33,1.14,2.95,1.19,3.00,-3.00,-3.18,-3.37,-1.86,-1.81,-1.82
68.01,1.17,3.02,1.19,3.05,-3.05,-3.21,-3.37,-1.88,-1.86,-1.86
68.69,1.17,3.07,1.20,3.11,-3.11,-3.23,-3.36,-1.94,-1.91,-1.91
69.37,1.17,3.12,1.22,3.17,-3.17,-3.25,-3.35,-2.01,-1.96,-1.96
70.07,1.18,3.18,1.23,3.24,-3.24,-3.27,-3.34,-2.06,-2.01,-2.01
70.77,1.32,3.37,1.24,3.31,-3.31,-3.29,-3.33,-1.99,-2.07,-2.06
71.48,1.35,3.45,1.26,3.38,-3.38,-3.31,-3.32,-2.04,-2.12,-2.11
72.19,1.33,3.50,1.28,3.46,-3.46,-3.33,-3.30,-2.13,-2.18,-2.18
72.91,1.28,3.51,1.29,3.52,-3.52,-3.35,-3.29,-2.24,-2.23,-2.24
73.64,1.27,3.55,1.29,3.58,-3.58,-3.37,-3.28,-2.31,-2.29,-2.29
74.38,1.27,3.61,1.28,3.62,-3.62,-3.40,-3.26,-2.36,-2.34,-2.35
75.12,1.30,3.70,1.26,3.66,-3.66,-3.42,-3.25,-2.37,-2.40,-2.41
75.87,1.40,3.86,1.25,3.70,-3.70,-3.44,-3.24,-2.30,-2.46,-2.47
76.63,1.26,3.77,1.23,3.74,-3.74,-3.46,-3.22,-2.48,-2.51,-2.52
77.40,1.17,3.73,1.21,3.77,-3.77,-3.49,-3.21,-2.60,-2.56,-2.57
78.17,1.17,3.79,1.18,3.80,-3.80,-3.51,-3.20,-2.63,-2.62,-2.63
78.95,1.17,3.83,1.15,3.82,-3.82,-3.53,-3.20,-2.66,-2.67,-2.67
79.74,0.99,3.70,1.14,3.85,-3.85,-3.56,-3.19,-2.87,-2.72,-2.72
80.54,1.00,3.76,1.12,3.89,-3.89,-3.58,-3.19,-2.89,-2.77,-2.77
81.35,1.06,3.87,1.09,3.91,-3.91,-3.61,-3.18,-2.85,-2.81,-2.82
82.16,1.07,3.93,1.06,3.92,-3.92,-3.64,-3.18,-2.85,-2.86,-2.87
82.98,1.07,3.97,1.01,3.92,-3.92,-3.66,-3.18,-2.86,-2.91,-2.91
83.81,1.07,4.02,0.98,3.94,-3.94,-3.69,-3.19,-2.87,-2.96,-2.96
84.65,1.07,4.07,0.96,3.97,-3.97,-3.72,-3.19,-2.90,-3.00,-3.01
85.50,1.02,4.06,0.96,4.01,-4.01,-3.74,-3.20,-2.99,-3.05,-3.05
86.35,0.95,4.04,0.94,4.05,-4.05,-3.77,-3.21,-3.10,-3.10,-3.10
87.22,0.89,4.03,0.91,4.06,-4.06,-3.80,-3.23,-3.17,-3.15,-3.15
88.09,0.86,4.05,0.87,4.08,-4.08,-3.83,-3.24,-3.22,-3.20,-3.20
88.97,0.76,4.01,0.84,4.10,-4.10,-3.86,-3.26,-3.34,-3.25,-3.26
89.86,0.63,3.93,0.82,4.12,-4.12,-3.89,-3.28,-3.49,-3.30,-3.31
90.76,0.74,4.09,0.79,4.14,-4.14,-3.92,-3.31,-3.41,-3.35,-3.36
91.66,0.85,4.25,0.76,4.17,-4.17,-3.95,-3.33,-3.32,-3.41,-3.41
92.58,0.90,4.36,0.72,4.18,-4.18,-3.98,-3.36,-3.28,-3.46,-3.47
93.51,0.79,4.30,0.69,4.19,-4.19,-4.01,-3.39,-3.41,-3.51,-3.52
94.44,0.60,4.15,0.66,4.22,-4.22,-4.04,-3.43,-3.62,-3.56,-3.56
95.39,0.48,4.08,0.62,4.23,-4.23,-4.07,-3.46,-3.75,-3.61,-3.61
96.34,0.48,4.13,0.58,4.24,-4.24,-4.10,-3.50,-3.76,-3.66,-3.66
97.30,0.60,4.30,0.55,4.25,-4.25,-4.12,-3.54,-3.65,-3.70,-3.71
98.28,0.67,4.42,0.51,4.26,-4.26,-4.15,-3.58,-3.59,-3.75,-3.76
99.26,0.61,4.40,0.47,4.27,-4.27,-4.18,-3.62,-3.66,-3.80,-3.80
100.25,0.39,4.23,0.41,4.26,-4.26,-4.20,-3.67,-3.87,-3.85,-3.85
101.25,0.23,4.12,0.34,4.23,-4.23,-4.23,-3.72,-4.01,-3.90,-3.90
102.27,0.16,4.10,0.26,4.21,-4.21,-4.25,-3.76,-4.05,-3.94,-3.95
103.29,0.27,4.26,0.19,4.18,-4.18,-4.27,-3.81,-3.92,-3.99,-4.00
104.32,0.21,4.24,0.14,4.18,-4.18,-4.29,-3.86,-3.98,-4.04,-4.04
105.37,-0.04,4.04,0.09,4.18,-4.18,-4.31,-3.91,-4.22,-4.09,-4.09
106.42,0.06,4.19,0.01,4.16,-4.16,-4.32,-3.96,-4.10,-4.14,-4.14
107.48,0.09,4.28,-0.07,4.12,-4.12,-4.33,-4.01,-4.04,-4.20,-4.20
108.56,-0.12,4.12,-0.16,4.09,-4.09,-4.34,-4.05,-4.21,-4.25,-4.25
109.64,-0.27,4.02,-0.22,4.09,-4.09,-4.35,-4.10,-4.36,-4.30,-4.30
110.74,-0.36,3.99,-0.26,4.09,-4.09,-4.36,-4.14,-4.45,-4.35,-4.36
111.85,-0.40,3.99,-0.31,4.09,-4.09,-4.36,-4.19,-4.49,-4.40,-4.40
112.97,-0.40,4.05,-0.35,4.11,-4.11,-4.36,-4.23,-4.51,-4.45,-4.46
114.10,-0.38,4.12,-0.40,4.10,-4.10,-4.35,-4.27,-4.48,-4.50,-4.51
115.24,-0.33,4.22,-0.47,4.08,-4.08,-4.35,-4.30,-4.41,-4.55,-4.56
116.39,-0.60,4.00,-0.51,4.09,-4.09,-4.34,-4.33,-4.69,-4.59,-4.61
117.55,-0.67,3.97,-0.54,4.10,-4.10,-4.32,-4.36,-4.77,-4.64,-4.65
118.73,-0.58,4.10,-0.58,4.09,-4.09,-4.31,-4.38,-4.68,-4.68,-4.69
119.92,-0.47,4.24,-0.62,4.10,-4.10,-4.29,-4.40,-4.57,-4.71,-4.72
121.12,-0.55,4.20,-0.65,4.10,-4.10,-4.26,-4.41,-4.65,-4.75,-4.76
122.33,-0.75,4.03,-0.70,4.08,-4.08,-4.24,-4.42,-4.84,-4.79,-4.79
123.55,-0.76,4.05,-0.75,4.07,-4.07,-4.21,-4.42,-4.83,-4.82,-4.82
124.79,-0.72,4.12,-0.81,4.04,-4.04,-4.18,-4.42,-4.76,-4.85,-4.85
126.03,-1.04,3.83,-0.87,4.01,-4.01,-4.14,-4.41,-5.05,-4.88,-4.88
127.29,-0.91,3.98,-0.94,3.97,-3.97,-4.11,-4.40,-4.88,-4.91,-4.90
128.57,-0.85,4.08,-1.02,3.92,-3.92,-4.07,-4.38,-4.78,-4.94,-4.94
129.85,-1.05,3.91,-1.09,3.88,-3.88,-4.03,-4.36,-4.93,-4.97,-4.97
131.15,-1.20,3.79,-1.17,3.82,-3.82,-3.98,-4.33,-5.02,-4.99,-5.00
132.46,-1.34,3.68,-1.27,3.75,-3.75,-3.94,-4.29,-5.10,-5.02,-5.03
133.79,-1.46,3.59,-1.36,3.69,-3.69,-3.89,-4.26,-5.15,-5.05,-5.06
135.12,-1.36,3.72,-1.44,3.64,-3.64,-3.84,-4.21,-5.00,-5.08,-5.09
136.48,-1.46,3.64,-1.53,3.58,-3.58,-3.79,-4.17,-5.04,-5.11,-5.11
137.84,-1.63,3.51,-1.63,3.51,-3.51,-3.74,-4.12,-5.14,-5.13,-5.15
139.22,-1.76,3.41,-1.73,3.43,-3.43,-3.69,-4.06,-5.19,-5.16,-5.18
140.61,-1.85,3.35,-1.84,3.36,-3.36,-3.64,-4.01,-5.21,-5.19,-5.21
142.02,-1.91,3.31,-1.94,3.29,-3.29,-3.59,-3.95,-5.20,-5.23,-5.23
143.44,-1.99,3.26,-2.03,3.23,-3.23,-3.53,-3.89,-5.23,-5.26,-5.26
144.87,-2.05,3.24,-2.10,3.20,-3.20,-3.48,-3.83,-5.25,-5.30,-5.30
146.32,-2.15,3.18,-2.18,3.16,-3.16,-3.42,-3.77,-5.32,-5.34,-5.34
147.78,-2.22,3.14,-2.25,3.15,-3.15,-3.37,-3.70,-5.37,-5.39,-5.37
149.26,-2.33,3.08,-2.30,3.15,-3.15,-3.32,-3.64,-5.48,-5.45,-5.42
150.75,-2.50,2.97,-2.34,3.17,-3.17,-3.26,-3.57,-5.67,-5.50,-5.48
152.26,-2.54,3.00,-2.35,3.21,-3.21,-3.21,-3.51,-5.76,-5.57,-5.55
153.78,-2.53,3.08,-2.36,3.27,-3.27,-3.16,-3.45,-5.80,-5.63,-5.62
155.32,-2.37,3.31,-2.38,3.32,-3.32,-3.10,-3.38,-5.69,-5.70,-5.69
156.88,-2.30,3.46,-2.39,3.38,-3.38,-3.05,-3.32,-5.68,-5.77,-5.77
158.44,-2.47,3.37,-2.42,3.42,-3.42,-3.00,-3.26,-5.89,-5.84,-5.85
160.03,-2.52,3.40,-2.45,3.45,-3.45,-2.95,-3.20,-5.98,-5.91,-5.93
161.63,-2.36,3.63,-2.50,3.47,-3.47,-2.90,-3.14,-5.83,-5.97,-6.00
163.24,-2.31,3.74,-2.56,3.48,-3.48,-2.85,-3.09,-5.79,-6.04,-6.06
164.88,-2.36,3.74,-2.63,3.46,-3.46,-2.81,-3.03,-5.83,-6.09,-6.11
166.53,-2.53,3.62,-2.70,3.44,-3.44,-2.76,-2.98,-5.97,-6.14,-6.16
168.19,-2.75,3.44,-2.79,3.39,-3.39,-2.71,-2.93,-6.14,-6.18,-6.20
169.87,-2.93,3.30,-2.89,3.32,-3.32,-2.67,-2.88,-6.25,-6.21,-6.24
171.57,-3.07,3.18,-3.00,3.23,-3.23,-2.63,-2.83,-6.31,-6.24,-6.26
173.29,-3.21,3.05,-3.13,3.13,-3.13,-2.58,-2.79,-6.34,-6.26,-6.27
175.02,-3.41,2.86,-3.24,3.03,-3.03,-2.54,-2.74,-6.44,-6.27,-6.28
176.77,-3.49,2.79,-3.35,2.93,-2.93,-2.50,-2.70,-6.42,-6.28,-6.29
178.54,-3.55,2.74,-3.46,2.82,-2.82,-2.46,-2.66,-6.38,-6.29,-6.30
180.32,-3.57,2.71,-3.58,2.72,-2.72,-2.43,-2.63,-6.29,-6.29,-6.29
182.13,-3.59,2.68,-3.66,2.64,-2.64,-2.39,-2.59,-6.23,-6.30,-6.28
183.95,-3.66,2.62,-3.72,2.58,-2.58,-2.36,-2.56,-6.25,-6.30,-6.29
185.79,-3.70,2.58,-3.76,2.55,-2.55,-2.32,-2.53,-6.25,-6.31,-6.29
187.65,-3.72,2.58,-3.79,2.53,-2.53,-2.29,-2.50,-6.26,-6.32,-6.31
189.52,-3.86,2.45,-3.79,2.53,-2.53,-2.26,-2.47,-6.40,-6.33,-6.32
191.42,-3.89,2.44,-3.79,2.55,-2.55,-2.23,-2.44,-6.45,-6.34,-6.34
193.33,-3.81,2.54,-3.77,2.58,-2.58,-2.20,-2.42,-6.40,-6.36,-6.36
195.27,-3.82,2.55,-3.76,2.62,-2.62,-2.17,-2.40,-6.44,-6.37,-6.38
197.22,-3.84,2.55,-3.75,2.65,-2.65,-2.14,-2.38,-6.49,-6.39,-6.40
199.19,-3.73,2.68,-3.73,2.68,-2.68,-2.11,-2.36,-6.41,-6.41,-6.42
201.18,-3.67,2.76,-3.72,2.71,-2.71,-2.09,-2.34,-6.38,-6.43,-6.44
203.19,-3.70,2.75,-3.71,2.74,-2.74,-2.07,-2.33,-6.45,-6.45,-6.46
205.23,-3.61,2.86,-3.70,2.78,-2.78,-2.04,-2.31,-6.39,-6.47,-6.48
207.28,-3.52,2.96,-3.68,2.81,-2.81,-2.02,-2.30,-6.34,-6.49,-6.49
209.35,-3.54,2.96,-3.67,2.85,-2.85,-2.00,-2.29,-6.39,-6.51,-6.51
211.44,-3.61,2.92,-3.65,2.88,-2.88,-1.98,-2.27,-6.49,-6.53,-6.54
213.56,-3.72,2.82,-3.66,2.89,-2.89,-1.96,-2.26,-6.61,-6.55,-6.55
215.69,-3.75,2.80,-3.67,2.89,-2.89,-1.94,-2.25,-6.64,-6.56,-6.56
217.85,-3.75,2.81,-3.69,2.88,-2.88,-1.93,-2.24,-6.64,-6.57,-6.57
220.03,-3.75,2.82,-3.71,2.87,-2.87,-1.91,-2.23,-6.62,-6.58,-6.58
222.23,-3.75,2.85,-3.74,2.85,-2.85,-1.89,-2.22,-6.60,-6.59,-6.61
224.45,-3.76,2.83,-3.76,2.82,-2.82,-1.88,-2.21,-6.59,-6.59,-6.60
226.70,-3.75,2.84,-3.78,2.80,-2.80,-1.87,-2.21,-6.56,-6.59,-6.60
228.96,-3.75,2.83,-3.81,2.77,-2.77,-1.85,-2.20,-6.52,-6.58,-6.59
231.25,-3.82,2.75,-3.83,2.74,-2.74,-1.84,-2.19,-6.56,-6.58,-6.58
233.57,-3.88,2.68,-3.85,2.71,-2.71,-1.83,-2.17,-6.60,-6.56,-6.57
235.90,-3.92,2.63,-3.87,2.68,-2.68,-1.82,-2.16,-6.61,-6.55,-6.56
238.26,-3.91,2.63,-3.89,2.64,-2.64,-1.81,-2.15,-6.56,-6.53,-6.55
240.64,-3.92,2.59,-3.92,2.59,-2.59,-1.80,-2.14,-6.52,-6.51,-6.52
243.05,-3.95,2.53,-3.95,2.54,-2.54,-1.80,-2.12,-6.49,-6.49,-6.49
245.48,-3.96,2.50,-4.00,2.47,-2.47,-1.79,-2.11,-6.44,-6.47,-6.47
247.93,-3.98,2.45,-4.04,2.40,-2.40,-1.78,-2.09,-6.39,-6.44,-6.44
250.41,-4.02,2.39,-4.09,2.34,-2.34,-1.78,-2.07,-6.36,-6.42,-6.42
252.92,-4.15,2.23,-4.14,2.26,-2.26,-1.77,-2.06,-6.41,-6.40,-6.39
255.45,-4.17,2.19,-4.19,2.19,-2.19,-1.77,-2.04,-6.36,-6.37,-6.37
258.00,-4.23,2.11,-4.24,2.11,-2.11,-1.77,-2.01,-6.34,-6.35,-6.35
260.58,-4.34,1.98,-4.30,2.03,-2.03,-1.76,-1.99,-6.37,-6.32,-6.33
263.19,-4.37,1.92,-4.36,1.94,-1.94,-1.76,-1.97,-6.32,-6.30,-6.30
265.82,-4.40,1.87,-4.42,1.85,-1.85,-1.76,-1.94,-6.26,-6.27,-6.28
268.48,-4.49,1.76,-4.49,1.76,-1.76,-1.76,-1.92,-6.26,-6.25,-6.26
271.16,-4.55,1.67,-4.54,1.68,-1.68,-1.76,-1.89,-6.24,-6.23,-6.23
273.87,-4.58,1.62,-4.59,1.61,-1.61,-1.76,-1.86,-6.19,-6.20,-6.21
276.61,-4.64,1.53,-4.64,1.53,-1.53,-1.76,-1.84,-6.17,-6.17,-6.18
279.38,-4.70,1.44,-4.69,1.46,-1.46,-1.77,-1.81,-6.16,-6.15,-6.15
282.17,-4.76,1.36,-4.72,1.40,-1.40,-1.77,-1.78,-6.16,-6.12,-6.13
284.99,-4.78,1.30,-4.76,1.34,-1.34,-1.77,-1.75,-6.12,-6.09,-6.09
287.84,-4.77,1.29,-4.79,1.27,-1.27,-1.78,-1.72,-6.04,-6.06,-6.07
290.72,-4.86,1.17,-4.82,1.22,-1.22,-1.78,-1.69,-6.08,-6.03,-6.04
293.63,-4.86,1.14,-4.84,1.17,-1.17,-1.79,-1.66,-6.03,-6.00,-6.01
296.57,-4.83,1.14,-4.86,1.11,-1.11,-1.79,-1.62,-5.94,-5.97,-5.98
299.53,-4.82,1.12,-4.89,1.06,-1.06,-1.80,-1.59,-5.88,-5.95,-5.95
302.53,-4.90,1.02,-4.91,1.01,-1.01,-1.81,-1.56,-5.91,-5.92,-5.93
305.55,-4.93,0.95,-4.93,0.96,-0.96,-1.81,-1.53,-5.90,-5.89,-5.89
308.61,-4.90,0.96,-4.94,0.93,-0.93,-1.82,-1.50,-5.83,-5.87,-5.87
311.69,-4.97,0.86,-4.96,0.89,-0.89,-1.83,-1.47,-5.86,-5.84,-5.84
314.81,-5.02,0.79,-4.98,0.84,-0.84,-1.84,-1.44,-5.86,-5.82,-5.82
317.96,-5.00,0.79,-5.01,0.79,-0.79,-1.85,-1.42,-5.80,-5.80,-5.80
321.14,-4.98,0.80,-5.04,0.75,-0.75,-1.86,-1.39,-5.73,-5.78,-5.79
324.35,-5.05,0.71,-5.06,0.71,-0.71,-1.87,-1.36,-5.76,-5.77,-5.77
327.59,-5.15,0.60,-5.09,0.66,-0.66,-1.88,-1.33,-5.81,-5.75,-5.76
330.87,-5.10,0.64,-5.13,0.61,-0.61,-1.89,-1.31,-5.72,-5.74,-5.75
334.18,-5.08,0.64,-5.14,0.58,-0.58,-1.91,-1.28,-5.67,-5.73,-5.73
337.52,-5.09,0.62,-5.15,0.56,-0.56,-1.92,-1.26,-5.66,-5.72,-5.72
340.90,-5.15,0.55,-5.16,0.55,-0.55,-1.93,-1.23,-5.70,-5.71,-5.71
344.30,-5.26,0.43,-5.16,0.54,-0.54,-1.95,-1.21,-5.80,-5.70,-5.70
347.75,-5.23,0.46,-5.16,0.54,-0.54,-1.96,-1.19,-5.77,-5.70,-5.70
351.23,-5.20,0.48,-5.16,0.53,-0.53,-1.97,-1.16,-5.73,-5.69,-5.69
354.74,-5.18,0.51,-5.16,0.53,-0.53,-1.99,-1.14,-5.71,-5.69,-5.70
358.28,-5.18,0.50,-5.15,0.54,-0.54,-2.01,-1.12,-5.72,-5.69,-5.69
361.87,-5.17,0.51,-5.13,0.56,-0.56,-2.02,-1.10,-5.73,-5.68,-5.69
365.49,-5.03,0.64,-5.10,0.58,-0.58,-2.04,-1.08,-5.61,-5.68,-5.68
369.14,-4.95,0.73,-5.08,0.60,-0.60,-2.05,-1.06,-5.55,-5.68,-5.69
372.83,-5.01,0.67,-5.06,0.63,-0.63,-2.07,-1.05,-5.64,-5.68,-5.69
376.56,-5.04,0.65,-5.03,0.66,-0.66,-2.09,-1.03,-5.70,-5.69,-5.70
380.33,-5.04,0.64,-5.01,0.68,-0.68,-2.11,-1.01,-5.73,-5.69,-5.69
384.13,-5.03,0.65,-4.99,0.71,-0.71,-2.13,-1.00,-5.74,-5.69,-5.69
387.97,-5.03,0.66,-4.97,0.73,-0.73,-2.15,-0.99,-5.76,-5.70,-5.70
391.85,-4.90,0.80,-4.96,0.74,-0.74,-2.17,-0.97,-5.65,-5.70,-5.71
395.77,-4.82,0.87,-4.94,0.76,-0.76,-2.18,-0.96,-5.59,-5.71,-5.70
399.73,-4.88,0.82,-4.93,0.78,-0.78,-2.20,-0.95,-5.67,-5.71,-5.71
403.72,-4.92,0.78,-4.92,0.80,-0.80,-2.23,-0.94,-5.72,-5.72,-5.71
407.76,-4.93,0.79,-4.91,0.81,-0.81,-2.25,-0.93,-5.75,-5.72,-5.73
411.84,-4.93,0.79,-4.89,0.83,-0.83,-2.27,-0.92,-5.76,-5.73,-5.73
415.96,-4.93,0.79,-4.87,0.86,-0.86,-2.29,-0.91,-5.79,-5.73,-5.73
420.12,-4.85,0.87,-4.84,0.88,-0.88,-2.31,-0.90,-5.74,-5.72,-5.73
424.32,-4.82,0.90,-4.81,0.91,-0.91,-2.33,-0.90,-5.73,-5.72,-5.73
428.56,-4.74,0.97,-4.77,0.94,-0.94,-2.36,-0.89,-5.68,-5.71,-5.72
432.85,-4.70,1.00,-4.72,0.97,-0.97,-2.38,-0.89,-5.67,-5.69,-5.71
437.18,-4.67,1.02,-4.67,1.00,-1.00,-2.40,-0.88,-5.68,-5.67,-5.70
