frequency,raw,error,smoothed,error_smoothed,equalization,parametric_eq,fixed_band_eq,equalized_raw,equalized_smoothed,target
20.00,-0.80,-10.38,-0.80,-10.38,10.38,10.29,3.84,9.58,9.57,9.57
20.20,-0.72,-10.29,-0.73,-10.29,10.29,10.24,3.94,9.56,9.56,9.56
20.40,-0.65,-10.20,-0.65,-10.20,10.20,10.19,4.05,9.55,9.55,9.55
20.61,-0.58,-10.13,-0.58,-10.12,10.12,10.14,4.16,9.54,9.54,9.55
20.81,-0.50,-10.03,-0.50,-10.04,10.04,10.09,4.27,9.53,9.54,9.53
21.02,-0.42,-9.96,-0.43,-9.96,9.96,10.04,4.38,9.54,9.53,9.53
21.23,-0.36,-9.89,-0.36,-9.89,9.89,9.98,4.50,9.52,9.52,9.52
21.44,-0.30,-9.83,-0.30,-9.82,9.82,9.93,4.63,9.52,9.52,9.53
21.66,-0.24,-9.76,-0.23,-9.75,9.76,9.87,4.75,9.52,9.52,9.52
21.87,-0.17,-9.68,-0.17,-9.69,9.70,9.81,4.88,9.52,9.52,9.51
22.09,-0.11,-9.62,-0.12,-9.63,9.64,9.76,5.01,9.53,9.52,9.50
22.31,-0.08,-9.59,-0.08,-9.58,9.59,9.70,5.15,9.50,9.51,9.50
22.54,-0.05,-9.54,-0.05,-9.54,9.53,9.64,5.29,9.49,9.48,9.49
22.76,-0.01,-9.50,-0.01,-9.49,9.47,9.59,5.43,9.46,9.46,9.48
22.99,0.03,-9.45,0.03,-9.44,9.42,9.53,5.58,9.44,9.45,9.47
23.22,0.10,-9.37,0.09,-9.37,9.36,9.47,5.73,9.45,9.45,9.46
23.45,0.17,-9.31,0.16,-9.30,9.30,9.42,5.89,9.46,9.46,9.47
23.69,0.23,-9.23,0.24,-9.22,9.24,9.36,6.04,9.47,9.48,9.46
23.92,0.32,-9.15,0.31,-9.16,9.18,9.31,6.21,9.49,9.48,9.46
24.16,0.37,-9.11,0.37,-9.10,9.12,9.25,6.37,9.48,9.48,9.47
24.40,0.42,-9.07,0.42,-9.06,9.06,9.19,6.54,9.48,9.48,9.48
24.65,0.46,-9.03,0.46,-9.02,9.01,9.14,6.71,9.47,9.47,9.48
24.89,0.51,-8.97,0.50,-8.97,8.97,9.08,6.88,9.48,9.48,9.48
25.14,0.55,-8.93,0.54,-8.93,8.93,9.03,7.06,9.48,9.48,9.47
25.39,0.59,-8.89,0.58,-8.89,8.90,8.98,7.23,9.48,9.48,9.47
25.65,0.62,-8.86,0.62,-8.86,8.86,8.92,7.41,9.47,9.47,9.47
25.91,0.65,-8.83,0.66,-8.83,8.81,8.87,7.59,9.47,9.47,9.48
26.16,0.70,-8.79,0.70,-8.79,8.77,8.82,7.77,9.47,9.47,9.49
26.43,0.75,-8.74,0.75,-8.74,8.73,8.77,7.96,9.48,9.48,9.49
26.69,0.81,-8.69,0.80,-8.68,8.69,8.71,8.14,9.49,9.49,9.49
26.96,0.85,-8.63,0.85,-8.63,8.65,8.66,8.31,9.50,9.50,9.48
27.23,0.89,-8.59,0.90,-8.59,8.60,8.61,8.49,9.50,9.50,9.48
27.50,0.94,-8.55,0.93,-8.55,8.55,8.56,8.66,9.49,9.49,9.48
27.77,0.97,-8.53,0.97,-8.52,8.51,8.51,8.83,9.47,9.48,9.49
28.05,1.01,-8.49,1.01,-8.47,8.46,8.47,8.99,9.47,9.47,9.49
28.33,1.06,-8.42,1.05,-8.42,8.42,8.42,9.15,9.48,9.47,9.47
28.62,1.10,-8.37,1.10,-8.37,8.38,8.37,9.30,9.48,9.48,9.47
28.90,1.16,-8.33,1.15,-8.32,8.34,8.32,9.43,9.49,9.49,9.48
29.19,1.20,-8.29,1.20,-8.28,8.29,8.28,9.56,9.49,9.49,9.48
29.48,1.24,-8.24,1.23,-8.25,8.24,8.23,9.67,9.48,9.47,9.47
29.78,1.27,-8.21,1.27,-8.21,8.19,8.18,9.77,9.46,9.46,9.47
30.08,1.30,-8.18,1.31,-8.16,8.15,8.14,9.86,9.45,9.46,9.48
30.38,1.36,-8.11,1.36,-8.11,8.10,8.09,9.92,9.46,9.46,9.47
30.68,1.42,-8.04,1.42,-8.04,8.05,8.05,9.97,9.46,9.47,9.45
30.99,1.47,-7.98,1.47,-7.98,8.00,8.00,10.01,9.47,9.47,9.45
31.30,1.50,-7.94,1.50,-7.93,7.95,7.96,10.02,9.45,9.45,9.44
31.61,1.54,-7.90,1.54,-7.90,7.90,7.91,10.02,9.43,9.43,9.43
31.93,1.56,-7.86,1.57,-7.86,7.84,7.87,10.00,9.41,9.41,9.42
32.24,1.61,-7.81,1.61,-7.81,7.79,7.83,9.96,9.40,9.40,9.42
32.57,1.65,-7.75,1.65,-7.75,7.74,7.78,9.91,9.39,9.39,9.40
32.89,1.71,-7.70,1.70,-7.70,7.69,7.74,9.84,9.40,9.40,9.40
33.22,1.76,-7.65,1.76,-7.64,7.65,7.69,9.75,9.41,9.41,9.40
33.55,1.81,-7.59,1.81,-7.59,7.61,7.65,9.65,9.42,9.42,9.39
33.89,1.86,-7.55,1.85,-7.54,7.57,7.61,9.55,9.43,9.42,9.40
34.23,1.88,-7.51,1.87,-7.52,7.53,7.56,9.42,9.40,9.39,9.38
34.57,1.88,-7.51,1.87,-7.51,7.49,7.52,9.30,9.36,9.36,9.38
34.92,1.88,-7.50,1.89,-7.48,7.45,7.47,9.16,9.33,9.34,9.37
35.27,1.92,-7.46,1.93,-7.44,7.42,7.43,9.01,9.34,9.35,9.38
35.62,1.99,-7.37,1.99,-7.37,7.38,7.38,8.87,9.38,9.37,9.36
35.97,2.07,-7.30,2.05,-7.31,7.34,7.34,8.71,9.41,9.39,9.36
36.33,2.08,-7.27,2.07,-7.27,7.29,7.29,8.56,9.37,9.36,9.34
36.70,2.08,-7.26,2.08,-7.25,7.24,7.24,8.40,9.31,9.32,9.33
37.06,2.09,-7.22,2.11,-7.21,7.18,7.20,8.24,9.27,9.29,9.31
37.43,2.16,-7.13,2.16,-7.14,7.12,7.15,8.09,9.28,9.28,9.29
37.81,2.23,-7.05,2.21,-7.06,7.06,7.10,7.93,9.28,9.27,9.27
38.19,2.27,-6.98,2.26,-6.99,6.99,7.05,7.77,9.26,9.25,9.24
38.57,2.29,-6.94,2.29,-6.93,6.92,7.00,7.62,9.21,9.21,9.22
38.95,2.32,-6.87,2.33,-6.86,6.85,6.95,7.47,9.16,9.18,9.19
39.34,2.38,-6.77,2.38,-6.78,6.78,6.90,7.32,9.16,9.16,9.15
39.74,2.44,-6.70,2.43,-6.70,6.72,6.85,7.17,9.16,9.15,9.13
40.14,2.47,-6.63,2.46,-6.64,6.67,6.80,7.03,9.15,9.14,9.10
40.54,2.48,-6.61,2.48,-6.60,6.63,6.74,6.89,9.10,9.10,9.08
40.94,2.48,-6.58,2.48,-6.58,6.58,6.69,6.76,9.05,9.06,9.05
41.35,2.48,-6.56,2.47,-6.55,6.53,6.63,6.63,9.01,9.00,9.03
41.76,2.48,-6.52,2.48,-6.52,6.48,6.58,6.50,8.96,8.96,8.99
42.18,2.50,-6.48,2.51,-6.46,6.44,6.52,6.38,8.94,8.95,8.97
42.60,2.56,-6.39,2.55,-6.40,6.39,6.47,6.26,8.95,8.94,8.95
43.03,2.61,-6.32,2.60,-6.32,6.34,6.41,6.15,8.95,8.94,8.92
43.46,2.64,-6.26,2.64,-6.26,6.29,6.35,6.04,8.92,8.93,8.89
43.90,2.67,-6.21,2.66,-6.21,6.22,6.29,5.93,8.88,8.88,8.87
44.33,2.68,-6.16,2.67,-6.17,6.15,6.23,5.83,8.82,8.81,8.83
44.78,2.68,-6.13,2.69,-6.12,6.08,6.17,5.73,8.75,8.77,8.80
45.23,2.72,-6.07,2.74,-6.03,6.01,6.11,5.64,8.73,8.75,8.79
45.68,2.81,-5.93,2.81,-5.94,5.95,6.04,5.55,8.76,8.75,8.74
46.13,2.89,-5.82,2.86,-5.84,5.89,5.98,5.47,8.77,8.75,8.70
46.60,2.89,-5.79,2.89,-5.78,5.83,5.92,5.39,8.71,8.72,8.67
47.06,2.89,-5.75,2.89,-5.74,5.76,5.85,5.31,8.65,8.65,8.63
47.53,2.89,-5.72,2.88,-5.71,5.70,5.79,5.24,8.58,8.58,8.60
48.01,2.89,-5.66,2.88,-5.66,5.63,5.72,5.17,8.51,8.51,8.54
48.49,2.90,-5.60,2.89,-5.61,5.56,5.65,5.10,8.46,8.45,8.49
48.97,2.91,-5.55,2.93,-5.52,5.49,5.59,5.04,8.40,8.42,8.45
49.46,2.98,-5.44,2.97,-5.43,5.42,5.52,4.98,8.40,8.40,8.41
49.96,3.03,-5.31,3.02,-5.33,5.35,5.45,4.93,8.39,8.38,8.34
50.46,3.07,-5.24,3.07,-5.24,5.28,5.38,4.87,8.35,8.35,8.30
50.96,3.09,-5.18,3.08,-5.18,5.22,5.31,4.82,8.30,8.30,8.26
51.47,3.09,-5.14,3.09,-5.13,5.15,5.24,4.77,8.23,8.23,8.22
51.99,3.09,-5.09,3.08,-5.10,5.08,5.17,4.73,8.17,8.16,8.17
52.51,3.09,-5.05,3.08,-5.05,5.01,5.10,4.68,8.10,8.10,8.13
53.03,3.09,-5.02,3.10,-4.99,4.94,5.03,4.64,8.03,8.05,8.10
53.56,3.15,-4.90,3.14,-4.91,4.87,4.96,4.60,8.02,8.01,8.04
54.10,3.20,-4.80,3.19,-4.80,4.80,4.88,4.56,8.00,8.00,7.99
54.64,3.25,-4.71,3.25,-4.70,4.73,4.81,4.52,7.98,7.98,7.95
55.18,3.29,-4.61,3.27,-4.62,4.66,4.74,4.48,7.94,7.93,7.89
55.74,3.29,-4.56,3.29,-4.56,4.59,4.67,4.44,7.88,7.88,7.84
56.29,3.29,-4.53,3.29,-4.52,4.53,4.59,4.40,7.81,7.82,7.81
56.86,3.29,-4.49,3.28,-4.48,4.47,4.52,4.36,7.76,7.75,7.77
57.42,3.29,-4.43,3.28,-4.44,4.42,4.45,4.32,7.70,7.70,7.71
58.00,3.29,-4.40,3.31,-4.37,4.36,4.37,4.28,7.65,7.67,7.68
58.58,3.35,-4.31,3.34,-4.31,4.30,4.30,4.24,7.65,7.64,7.65
59.16,3.39,-4.23,3.37,-4.25,4.23,4.23,4.20,7.62,7.60,7.61
59.76,3.39,-4.19,3.40,-4.17,4.16,4.15,4.15,7.55,7.56,7.57
60.35,3.41,-4.10,3.42,-4.09,4.08,4.08,4.10,7.49,7.50,7.50
60.96,3.46,-4.00,3.44,-4.00,4.00,4.01,4.06,7.46,7.45,7.45
61.57,3.48,-3.91,3.47,-3.91,3.92,3.94,4.00,7.40,7.39,7.38
62.18,3.49,-3.83,3.49,-3.83,3.85,3.86,3.95,7.34,7.34,7.31
62.80,3.49,-3.77,3.49,-3.76,3.78,3.79,3.89,7.27,7.27,7.25
63.43,3.49,-3.71,3.49,-3.71,3.72,3.72,3.83,7.20,7.20,7.19
64.07,3.49,-3.66,3.49,-3.65,3.65,3.64,3.77,7.14,7.14,7.14
64.71,3.49,-3.60,3.49,-3.59,3.59,3.57,3.71,7.08,7.08,7.08
65.35,3.49,-3.54,3.48,-3.54,3.53,3.50,3.64,7.01,7.01,7.02
66.01,3.49,-3.48,3.48,-3.49,3.46,3.43,3.57,6.95,6.94,6.96
66.67,3.49,-3.44,3.50,-3.41,3.39,3.36,3.50,6.88,6.89,6.92
67.33,3.52,-3.32,3.53,-3.32,3.32,3.29,3.43,6.84,6.85,6.84
68.01,3.59,-3.21,3.56,-3.23,3.24,3.21,3.35,6.83,6.80,6.79
68.69,3.59,-3.14,3.58,-3.14,3.16,3.14,3.27,6.75,6.74,6.72
69.37,3.59,-3.09,3.59,-3.08,3.07,3.07,3.19,6.66,6.66,6.67
70.07,3.59,-3.02,3.60,-3.01,2.99,3.00,3.11,6.57,6.58,6.60
70.77,3.63,-2.92,3.62,-2.92,2.90,2.93,3.03,6.53,6.52,6.54
71.48,3.66,-2.82,3.65,-2.82,2.82,2.86,2.95,6.47,6.47,6.47
72.19,3.69,-2.72,3.68,-2.73,2.74,2.80,2.86,6.43,6.42,6.40
72.91,3.69,-2.66,3.69,-2.65,2.67,2.73,2.78,6.35,6.35,6.34
73.64,3.69,-2.59,3.69,-2.58,2.59,2.66,2.69,6.28,6.28,6.27
74.38,3.69,-2.53,3.69,-2.52,2.52,2.59,2.61,6.21,6.21,6.21
75.12,3.69,-2.46,3.69,-2.46,2.46,2.52,2.52,6.15,6.15,6.14
75.87,3.69,-2.42,3.69,-2.41,2.40,2.45,2.44,6.09,6.09,6.10
76.63,3.69,-2.35,3.69,-2.35,2.35,2.39,2.35,6.03,6.03,6.03
77.40,3.69,-2.30,3.69,-2.30,2.29,2.32,2.26,5.98,5.98,5.98
78.17,3.69,-2.24,3.69,-2.24,2.24,2.25,2.18,5.93,5.93,5.92
78.95,3.69,-2.20,3.69,-2.19,2.19,2.19,2.09,5.88,5.88,5.88
79.74,3.69,-2.14,3.69,-2.13,2.14,2.12,2.01,5.83,5.83,5.82
80.54,3.69,-2.08,3.69,-2.08,2.09,2.06,1.92,5.77,5.77,5.76
81.35,3.69,-2.03,3.69,-2.03,2.02,1.99,1.84,5.71,5.71,5.71
82.16,3.69,-1.98,3.68,-1.98,1.96,1.93,1.76,5.64,5.64,5.66
82.98,3.69,-1.92,3.69,-1.92,1.89,1.86,1.68,5.57,5.57,5.60
83.81,3.69,-1.86,3.71,-1.83,1.82,1.80,1.59,5.50,5.53,5.54
84.65,3.76,-1.73,3.74,-1.73,1.74,1.74,1.51,5.50,5.48,5.48
85.50,3.79,-1.63,3.77,-1.64,1.67,1.67,1.43,5.45,5.44,5.41
86.35,3.79,-1.57,3.79,-1.56,1.59,1.61,1.36,5.38,5.38,5.35
87.22,3.79,-1.52,3.79,-1.51,1.52,1.55,1.28,5.30,5.31,5.30
88.09,3.79,-1.45,3.78,-1.45,1.44,1.49,1.20,5.23,5.23,5.23
88.97,3.79,-1.40,3.79,-1.39,1.38,1.42,1.12,5.16,5.16,5.18
89.86,3.79,-1.32,3.79,-1.32,1.31,1.36,1.05,5.10,5.10,5.10
90.76,3.80,-1.25,3.79,-1.25,1.25,1.30,0.97,5.04,5.04,5.04
91.66,3.80,-1.18,3.79,-1.18,1.18,1.24,0.90,4.98,4.98,4.97
92.58,3.80,-1.12,3.80,-1.11,1.11,1.18,0.82,4.91,4.91,4.91
93.51,3.80,-1.05,3.80,-1.04,1.04,1.12,0.75,4.84,4.84,4.84
94.44,3.80,-0.98,3.79,-0.97,0.97,1.06,0.68,4.76,4.76,4.77
95.39,3.80,-0.90,3.79,-0.90,0.89,1.00,0.61,4.69,4.69,4.69
96.34,3.79,-0.83,3.79,-0.82,0.82,0.94,0.53,4.61,4.61,4.61
97.30,3.79,-0.75,3.78,-0.74,0.75,0.88,0.46,4.53,4.53,4.53
98.28,3.78,-0.67,3.77,-0.67,0.67,0.82,0.39,4.45,4.45,4.44
99.26,3.76,-0.60,3.76,-0.60,0.60,0.76,0.33,4.36,4.36,4.35
100.25,3.75,-0.53,3.74,-0.53,0.53,0.70,0.26,4.28,4.28,4.27
101.25,3.73,-0.48,3.73,-0.46,0.47,0.64,0.19,4.19,4.19,4.20
102.27,3.72,-0.40,3.71,-0.40,0.40,0.58,0.12,4.12,4.11,4.11
103.29,3.70,-0.34,3.69,-0.34,0.34,0.52,0.06,4.03,4.03,4.03
104.32,3.68,-0.29,3.68,-0.28,0.28,0.46,-0.01,3.95,3.96,3.96
105.37,3.66,-0.23,3.65,-0.22,0.22,0.40,-0.07,3.88,3.87,3.88
106.42,3.64,-0.16,3.63,-0.16,0.16,0.35,-0.13,3.80,3.79,3.79
107.48,3.61,-0.10,3.61,-0.10,0.10,0.29,-0.20,3.71,3.71,3.70
108.56,3.59,-0.06,3.59,-0.04,0.05,0.23,-0.26,3.63,3.63,3.64
109.64,3.57,0.01,3.56,0.01,-0.01,0.17,-0.32,3.56,3.55,3.55
110.74,3.55,0.07,3.54,0.07,-0.07,0.11,-0.38,3.48,3.48,3.47
111.85,3.53,0.12,3.53,0.13,-0.13,0.05,-0.43,3.40,3.40,3.40
112.97,3.52,0.18,3.51,0.18,-0.19,-0.00,-0.49,3.32,3.32,3.33
114.10,3.51,0.24,3.51,0.25,-0.26,-0.06,-0.54,3.24,3.24,3.26
115.24,3.51,0.32,3.51,0.32,-0.33,-0.12,-0.60,3.17,3.17,3.18
116.39,3.51,0.40,3.51,0.40,-0.41,-0.18,-0.65,3.10,3.10,3.10
117.55,3.52,0.47,3.51,0.48,-0.48,-0.23,-0.70,3.04,3.03,3.04
118.73,3.52,0.55,3.52,0.55,-0.54,-0.29,-0.74,2.97,2.97,2.96
119.92,3.53,0.62,3.53,0.63,-0.61,-0.35,-0.79,2.92,2.92,2.90
121.12,3.54,0.68,3.53,0.69,-0.67,-0.41,-0.83,2.87,2.87,2.85
122.33,3.54,0.75,3.52,0.73,-0.72,-0.47,-0.88,2.81,2.80,2.78
123.55,3.51,0.77,3.50,0.77,-0.77,-0.52,-0.92,2.73,2.73,2.73
124.79,3.46,0.78,3.48,0.81,-0.83,-0.58,-0.96,2.63,2.65,2.67
126.03,3.47,0.86,3.46,0.86,-0.88,-0.64,-0.99,2.58,2.58,2.60
127.29,3.47,0.92,3.46,0.92,-0.94,-0.70,-1.03,2.52,2.52,2.54
128.57,3.48,0.99,3.47,1.00,-1.00,-0.75,-1.06,2.47,2.47,2.48
129.85,3.48,1.06,3.48,1.06,-1.06,-0.81,-1.09,2.41,2.41,2.41
131.15,3.49,1.13,3.48,1.13,-1.12,-0.87,-1.12,2.36,2.36,2.35
132.46,3.49,1.19,3.49,1.20,-1.18,-0.93,-1.15,2.31,2.31,2.29
133.79,3.50,1.26,3.49,1.26,-1.23,-0.98,-1.18,2.26,2.26,2.23
135.12,3.50,1.32,3.48,1.30,-1.28,-1.04,-1.20,2.21,2.19,2.17
136.48,3.45,1.31,3.45,1.33,-1.33,-1.10,-1.23,2.11,2.12,2.13
137.84,3.41,1.33,3.42,1.36,-1.38,-1.16,-1.25,2.03,2.04,2.07
139.22,3.41,1.41,3.40,1.40,-1.42,-1.21,-1.27,1.98,1.98,1.99
140.61,3.41,1.45,3.40,1.46,-1.47,-1.27,-1.30,1.94,1.93,1.95
142.02,3.41,1.51,3.41,1.52,-1.52,-1.33,-1.32,1.89,1.89,1.89
143.44,3.41,1.58,3.41,1.58,-1.57,-1.38,-1.34,1.83,1.83,1.82
144.87,3.41,1.63,3.41,1.63,-1.63,-1.44,-1.36,1.77,1.77,1.77
146.32,3.41,1.68,3.41,1.69,-1.69,-1.50,-1.38,1.71,1.71,1.72
147.78,3.41,1.74,3.41,1.74,-1.75,-1.55,-1.40,1.66,1.66,1.66
149.26,3.41,1.79,3.41,1.80,-1.80,-1.61,-1.42,1.60,1.60,1.61
150.75,3.41,1.86,3.41,1.86,-1.85,-1.67,-1.45,1.56,1.56,1.54
152.26,3.41,1.90,3.41,1.91,-1.89,-1.72,-1.47,1.51,1.51,1.50
153.78,3.41,1.96,3.39,1.94,-1.93,-1.78,-1.49,1.47,1.45,1.44
155.32,3.36,1.96,3.36,1.97,-1.97,-1.83,-1.52,1.39,1.39,1.39
156.88,3.31,1.97,3.33,2.00,-2.00,-1.89,-1.54,1.30,1.33,1.33
158.44,3.31,2.03,3.30,2.03,-2.04,-1.94,-1.57,1.27,1.27,1.27
160.03,3.31,2.09,3.28,2.07,-2.07,-1.99,-1.59,1.24,1.21,1.21
161.63,3.24,2.08,3.25,2.10,-2.11,-2.05,-1.62,1.13,1.15,1.15
163.24,3.22,2.13,3.22,2.14,-2.15,-2.10,-1.65,1.07,1.07,1.08
164.88,3.21,2.17,3.20,2.18,-2.19,-2.15,-1.68,1.01,1.01,1.03
166.53,3.20,2.23,3.20,2.23,-2.24,-2.20,-1.71,0.96,0.96,0.96
168.19,3.20,2.28,3.19,2.28,-2.28,-2.25,-1.75,0.91,0.91,0.91
169.87,3.19,2.33,3.19,2.35,-2.33,-2.30,-1.78,0.86,0.86,0.85
171.57,3.18,2.39,3.18,2.39,-2.37,-2.35,-1.82,0.81,0.81,0.78
173.29,3.17,2.44,3.14,2.42,-2.40,-2.40,-1.86,0.76,0.74,0.72
175.02,3.10,2.42,3.11,2.44,-2.44,-2.45,-1.90,0.66,0.67,0.67
176.77,3.07,2.44,3.08,2.46,-2.47,-2.49,-1.94,0.60,0.61,0.62
178.54,3.07,2.50,3.05,2.49,-2.50,-2.54,-1.98,0.57,0.55,0.56
180.32,3.04,2.53,3.03,2.52,-2.53,-2.58,-2.03,0.51,0.50,0.50
182.13,3.00,2.53,3.00,2.55,-2.56,-2.63,-2.07,0.44,0.44,0.46
183.95,2.98,2.56,2.99,2.58,-2.60,-2.67,-2.12,0.38,0.39,0.41
185.79,3.00,2.63,2.99,2.63,-2.64,-2.71,-2.17,0.36,0.35,0.36
187.65,3.01,2.68,3.01,2.69,-2.68,-2.75,-2.22,0.32,0.33,0.32
189.52,3.03,2.75,3.02,2.75,-2.73,-2.78,-2.28,0.30,0.30,0.27
191.42,3.04,2.79,3.01,2.78,-2.77,-2.82,-2.33,0.27,0.25,0.24
193.33,2.99,2.79,3.00,2.81,-2.81,-2.86,-2.38,0.18,0.19,0.19
195.27,2.97,2.82,2.98,2.84,-2.84,-2.89,-2.44,0.12,0.14,0.14
197.22,2.98,2.88,2.97,2.88,-2.88,-2.92,-2.50,0.10,0.10,0.09
199.19,2.99,2.92,2.96,2.91,-2.90,-2.95,-2.56,0.08,0.06,0.06
201.18,2.94,2.92,2.94,2.92,-2.92,-2.98,-2.62,0.01,0.02,0.01
203.19,2.90,2.91,2.92,2.94,-2.94,-3.00,-2.67,-0.05,-0.03,-0.02
205.23,2.91,2.96,2.91,2.96,-2.96,-3.03,-2.73,-0.06,-0.06,-0.06
207.28,2.91,2.99,2.90,2.99,-2.98,-3.05,-2.79,-0.08,-0.09,-0.09
209.35,2.90,3.02,2.87,3.01,-3.00,-3.07,-2.85,-0.10,-0.13,-0.13
211.44,2.82,2.99,2.84,3.01,-3.01,-3.09,-2.91,-0.20,-0.18,-0.18
213.56,2.80,3.00,2.81,3.02,-3.03,-3.11,-2.97,-0.23,-0.22,-0.21
215.69,2.79,3.03,2.78,3.03,-3.04,-3.12,-3.03,-0.25,-0.25,-0.25
217.85,2.79,3.06,2.77,3.05,-3.05,-3.13,-3.08,-0.26,-0.28,-0.28
220.03,2.75,3.07,2.74,3.06,-3.05,-3.15,-3.14,-0.30,-0.31,-0.33
222.23,2.70,3.04,2.71,3.07,-3.05,-3.15,-3.19,-0.36,-0.34,-0.35
224.45,2.68,3.05,2.68,3.06,-3.06,-3.16,-3.24,-0.38,-0.38,-0.38
226.70,2.68,3.08,2.64,3.05,-3.06,-3.17,-3.29,-0.39,-0.42,-0.41
228.96,2.60,3.02,2.62,3.04,-3.06,-3.17,-3.33,-0.46,-0.44,-0.43
231.25,2.59,3.02,2.60,3.05,-3.06,-3.17,-3.37,-0.47,-0.45,-0.44
233.57,2.60,3.06,2.59,3.05,-3.05,-3.17,-3.41,-0.45,-0.46,-0.47
235.90,2.62,3.09,2.59,3.07,-3.04,-3.16,-3.44,-0.43,-0.46,-0.48
238.26,2.55,3.04,2.57,3.06,-3.04,-3.16,-3.46,-0.50,-0.47,-0.50
240.64,2.55,3.03,2.54,3.04,-3.05,-3.15,-3.48,-0.50,-0.50,-0.49
243.05,2.53,3.02,2.51,3.02,-3.05,-3.14,-3.50,-0.52,-0.53,-0.50
245.48,2.50,3.01,2.51,3.02,-3.05,-3.13,-3.51,-0.55,-0.54,-0.52
247.93,2.51,3.03,2.51,3.03,-3.04,-3.12,-3.52,-0.53,-0.52,-0.53
250.41,2.53,3.04,2.52,3.05,-3.03,-3.10,-3.52,-0.50,-0.50,-0.52
252.92,2.55,3.06,2.53,3.05,-3.02,-3.09,-3.51,-0.47,-0.49,-0.52
255.45,2.50,3.03,2.50,3.03,-3.01,-3.07,-3.50,-0.51,-0.51,-0.54
258.00,2.46,3.00,2.45,2.99,-3.00,-3.05,-3.49,-0.55,-0.56,-0.55
260.58,2.38,2.93,2.40,2.96,-2.99,-3.03,-3.47,-0.61,-0.59,-0.56
263.19,2.37,2.93,2.37,2.94,-2.97,-3.00,-3.44,-0.60,-0.59,-0.57
265.82,2.37,2.95,2.36,2.95,-2.94,-2.98,-3.41,-0.58,-0.58,-0.59
268.48,2.37,2.95,2.35,2.95,-2.92,-2.95,-3.37,-0.56,-0.57,-0.59
271.16,2.33,2.93,2.32,2.92,-2.90,-2.93,-3.33,-0.58,-0.59,-0.61
273.87,2.26,2.87,2.26,2.88,-2.89,-2.90,-3.29,-0.63,-0.63,-0.62
276.61,2.20,2.83,2.20,2.85,-2.87,-2.87,-3.24,-0.67,-0.67,-0.64
279.38,2.17,2.83,2.17,2.83,-2.85,-2.84,-3.19,-0.68,-0.68,-0.67
282.17,2.16,2.82,2.16,2.83,-2.82,-2.81,-3.14,-0.67,-0.66,-0.67
284.99,2.17,2.83,2.15,2.82,-2.80,-2.77,-3.08,-0.63,-0.65,-0.67
287.84,2.13,2.79,2.12,2.79,-2.77,-2.74,-3.02,-0.65,-0.66,-0.67
290.72,2.08,2.76,2.07,2.75,-2.76,-2.71,-2.96,-0.68,-0.68,-0.69
293.63,2.02,2.69,2.03,2.71,-2.74,-2.67,-2.90,-0.73,-0.71,-0.68
296.57,2.01,2.68,2.01,2.69,-2.72,-2.63,-2.84,-0.72,-0.71,-0.68
299.53,2.02,2.70,2.02,2.70,-2.70,-2.60,-2.77,-0.69,-0.69,-0.69
302.53,2.03,2.70,2.02,2.70,-2.68,-2.56,-2.71,-0.65,-0.66,-0.68
305.55,2.02,2.70,2.00,2.69,-2.66,-2.52,-2.65,-0.64,-0.66,-0.69
308.61,1.96,2.63,1.96,2.64,-2.64,-2.48,-2.58,-0.68,-0.68,-0.68
311.69,1.91,2.60,1.91,2.60,-2.62,-2.44,-2.52,-0.71,-0.71,-0.70
314.81,1.87,2.55,1.88,2.57,-2.59,-2.40,-2.46,-0.73,-0.71,-0.69
317.96,1.86,2.56,1.85,2.55,-2.56,-2.36,-2.39,-0.71,-0.71,-0.71
321.14,1.85,2.54,1.82,2.53,-2.53,-2.32,-2.33,-0.68,-0.70,-0.70
324.35,1.78,2.48,1.79,2.50,-2.49,-2.28,-2.27,-0.71,-0.69,-0.71
327.59,1.76,2.45,1.76,2.46,-2.45,-2.24,-2.21,-0.69,-0.69,-0.70
330.87,1.72,2.42,1.71,2.41,-2.41,-2.20,-2.15,-0.69,-0.70,-0.71
334.18,1.67,2.38,1.66,2.37,-2.37,-2.16,-2.09,-0.70,-0.71,-0.72
337.52,1.59,2.29,1.60,2.32,-2.33,-2.12,-2.04,-0.74,-0.72,-0.71
340.90,1.56,2.27,1.55,2.26,-2.28,-2.08,-1.98,-0.72,-0.73,-0.72
344.30,1.53,2.23,1.51,2.22,-2.23,-2.04,-1.93,-0.71,-0.72,-0.71
347.75,1.47,2.16,1.49,2.20,-2.18,-2.00,-1.88,-0.72,-0.70,-0.70
351.23,1.45,2.16,1.45,2.16,-2.14,-1.96,-1.83,-0.69,-0.69,-0.72
354.74,1.44,2.13,1.40,2.10,-2.10,-1.91,-1.78,-0.66,-0.70,-0.70
358.28,1.34,2.03,1.34,2.05,-2.05,-1.87,-1.73,-0.72,-0.71,-0.70
361.87,1.27,1.96,1.30,1.99,-2.01,-1.83,-1.68,-0.74,-0.71,-0.70
365.49,1.27,1.95,1.27,1.96,-1.96,-1.79,-1.64,-0.69,-0.69,-0.69
369.14,1.28,1.95,1.25,1.93,-1.92,-1.75,-1.60,-0.64,-0.66,-0.68
372.83,1.25,1.91,1.22,1.89,-1.88,-1.71,-1.55,-0.64,-0.67,-0.67
376.56,1.14,1.81,1.16,1.84,-1.85,-1.67,-1.51,-0.72,-0.69,-0.68
380.33,1.10,1.77,1.12,1.79,-1.82,-1.63,-1.48,-0.73,-0.71,-0.68
384.13,1.11,1.77,1.10,1.77,-1.79,-1.59,-1.44,-0.69,-0.69,-0.67
387.97,1.11,1.77,1.09,1.77,-1.76,-1.55,-1.40,-0.65,-0.66,-0.67
391.85,1.08,1.75,1.08,1.76,-1.72,-1.51,-1.36,-0.64,-0.64,-0.68
395.77,1.04,1.72,1.04,1.72,-1.68,-1.47,-1.33,-0.65,-0.65,-0.69
399.73,1.00,1.68,0.97,1.65,-1.65,-1.43,-1.30,-0.65,-0.68,-0.69
403.72,0.89,1.56,0.90,1.59,-1.61,-1.39,-1.27,-0.73,-0.72,-0.68
407.76,0.82,1.51,0.84,1.53,-1.57,-1.35,-1.23,-0.75,-0.73,-0.70
411.84,0.81,1.51,0.81,1.51,-1.52,-1.31,-1.20,-0.72,-0.71,-0.71
415.96,0.80,1.50,0.78,1.50,-1.48,-1.27,-1.17,-0.68,-0.69,-0.71
420.12,0.78,1.49,0.74,1.45,-1.43,-1.23,-1.15,-0.66,-0.69,-0.72
424.32,0.66,1.36,0.68,1.39,-1.39,-1.19,-1.12,-0.73,-0.71,-0.71
428.56,0.63,1.31,0.64,1.34,-1.35,-1.15,-1.09,-0.72,-0.71,-0.69
432.85,0.63,1.29,0.63,1.30,-1.31,-1.12,-1.06,-0.68,-0.68,-0.67
437.18,0.66,1.31,0.63,1.28,-1.27,-1.08,-1.04,-0.62,-0.64,-0.66
441.55,0.63,1.25,0.61,1.24,-1.23,-1.04,-1.01,-0.61,-0.63,-0.63
445.96,0.57,1.15,0.59,1.19,-1.20,-1.00,-0.99,-0.64,-0.61,-0.59
450.42,0.59,1.13,0.60,1.15,-1.17,-0.97,-0.96,-0.59,-0.57,-0.55
454.93,0.65,1.14,0.64,1.13,-1.14,-0.93,-0.93,-0.50,-0.50,-0.50
459.48,0.71,1.14,0.68,1.12,-1.11,-0.89,-0.91,-0.40,-0.42,-0.44
464.07,0.72,1.08,0.72,1.10,-1.07,-0.86,-0.88,-0.36,-0.35,-0.37
468.71,0.73,1.04,0.74,1.06,-1.04,-0.82,-0.86,-0.31,-0.29,-0.32
473.40,0.77,1.02,0.75,1.00,-1.00,-0.78,-0.83,-0.23,-0.25,-0.26
478.13,0.76,0.95,0.75,0.95,-0.96,-0.75,-0.81,-0.20,-0.21,-0.20
482.91,0.73,0.87,0.74,0.90,-0.91,-0.71,-0.78,-0.19,-0.17,-0.15
487.74,0.74,0.85,0.74,0.85,-0.86,-0.67,-0.76,-0.13,-0.12,-0.12
492.62,0.76,0.83,0.75,0.83,-0.81,-0.64,-0.73,-0.06,-0.06,-0.08
497.55,0.75,0.78,0.74,0.78,-0.77,-0.60,-0.70,-0.02,-0.03,-0.04
502.52,0.73,0.74,0.71,0.72,-0.73,-0.57,-0.67,-0.00,-0.02,-0.02
507.55,0.66,0.64,0.68,0.67,-0.70,-0.53,-0.65,-0.04,-0.02,0.01
512.62,0.65,0.62,0.66,0.64,-0.66,-0.49,-0.62,-0.01,0.00,0.02
517.75,0.66,0.62,0.64,0.60,-0.62,-0.46,-0.59,0.04,0.02,0.03
522.93,0.64,0.60,0.62,0.59,-0.58,-0.42,-0.56,0.06,0.04,0.03
528.16,0.55,0.53,0.59,0.58,-0.53,-0.39,-0.53,0.02,0.06,0.01
533.44,0.54,0.54,0.51,0.52,-0.48,-0.35,-0.50,0.05,0.02,-0.01
