frequency,raw,error,smoothed,error_smoothed,equalization,parametric_eq,fixed_band_eq,equalized_raw,equalized_smoothed,target
20.00,-1.86,-2.65,-1.78,-2.59,2.59,2.47,0.74,0.74,0.82,0.79
20.20,-1.79,-2.63,-1.74,-2.60,2.60,2.49,0.76,0.81,0.86,0.84
20.40,-1.71,-2.60,-1.71,-2.60,2.60,2.51,0.79,0.89,0.89,0.89
20.61,-1.64,-2.56,-1.68,-2.60,2.60,2.53,0.81,0.96,0.92,0.92
20.81,-1.57,-2.54,-1.65,-2.60,2.60,2.54,0.84,1.03,0.95,0.97
21.02,-1.50,-2.51,-1.61,-2.59,2.59,2.55,0.87,1.10,0.98,1.01
21.23,-1.51,-2.54,-1.58,-2.59,2.59,2.55,0.90,1.08,1.01,1.03
21.44,-1.52,-2.57,-1.55,-2.58,2.58,2.56,0.92,1.06,1.03,1.05
21.66,-1.53,-2.59,-1.51,-2.56,2.56,2.56,0.95,1.03,1.05,1.07
21.87,-1.54,-2.61,-1.48,-2.55,2.55,2.55,0.99,1.01,1.07,1.08
22.09,-1.52,-2.61,-1.45,-2.53,2.53,2.55,1.02,1.01,1.08,1.09
22.31,-1.48,-2.58,-1.41,-2.51,2.51,2.54,1.05,1.03,1.09,1.10
22.54,-1.43,-2.53,-1.38,-2.48,2.48,2.52,1.08,1.05,1.10,1.10
22.76,-1.39,-2.49,-1.35,-2.45,2.45,2.50,1.12,1.07,1.10,1.10
22.99,-1.34,-2.43,-1.32,-2.43,2.43,2.48,1.15,1.09,1.10,1.09
23.22,-1.28,-2.37,-1.29,-2.40,2.40,2.46,1.19,1.12,1.11,1.09
23.45,-1.22,-2.31,-1.26,-2.36,2.36,2.43,1.23,1.14,1.11,1.09
23.69,-1.15,-2.25,-1.21,-2.32,2.32,2.41,1.27,1.17,1.11,1.10
23.92,-1.09,-2.19,-1.17,-2.27,2.27,2.37,1.30,1.18,1.11,1.10
24.16,-1.07,-2.18,-1.12,-2.23,2.23,2.34,1.34,1.16,1.11,1.11
24.40,-1.07,-2.19,-1.08,-2.18,2.18,2.30,1.38,1.11,1.10,1.12
24.65,-1.07,-2.18,-1.04,-2.14,2.14,2.27,1.42,1.07,1.10,1.11
24.89,-1.07,-2.17,-1.00,-2.10,2.10,2.23,1.46,1.03,1.10,1.10
25.14,-1.03,-2.13,-0.96,-2.07,2.07,2.19,1.50,1.04,1.11,1.10
25.39,-0.97,-2.08,-0.92,-2.03,2.03,2.14,1.55,1.06,1.11,1.11
25.65,-0.90,-2.01,-0.89,-2.00,2.00,2.10,1.59,1.10,1.11,1.11
25.91,-0.83,-1.93,-0.86,-1.97,1.97,2.05,1.63,1.14,1.11,1.10
26.16,-0.79,-1.89,-0.83,-1.93,1.93,2.01,1.67,1.15,1.11,1.10
26.43,-0.76,-1.86,-0.80,-1.90,1.90,1.96,1.71,1.14,1.10,1.10
26.69,-0.73,-1.83,-0.76,-1.86,1.86,1.91,1.75,1.13,1.10,1.10
26.96,-0.70,-1.81,-0.73,-1.82,1.82,1.86,1.79,1.12,1.10,1.11
27.23,-0.69,-1.79,-0.69,-1.79,1.79,1.82,1.82,1.10,1.10,1.10
27.50,-0.67,-1.77,-0.66,-1.75,1.75,1.77,1.86,1.08,1.09,1.10
27.77,-0.65,-1.74,-0.62,-1.72,1.72,1.72,1.89,1.07,1.09,1.09
28.05,-0.63,-1.72,-0.60,-1.69,1.69,1.67,1.92,1.06,1.09,1.09
28.33,-0.59,-1.67,-0.57,-1.66,1.66,1.62,1.95,1.07,1.09,1.08
28.62,-0.55,-1.63,-0.54,-1.63,1.63,1.58,1.98,1.08,1.09,1.08
28.90,-0.51,-1.59,-0.52,-1.60,1.60,1.53,2.01,1.09,1.09,1.08
29.19,-0.48,-1.55,-0.49,-1.57,1.57,1.48,2.03,1.09,1.08,1.07
29.48,-0.45,-1.54,-0.46,-1.54,1.54,1.43,2.05,1.09,1.08,1.09
29.78,-0.42,-1.50,-0.42,-1.50,1.50,1.39,2.06,1.08,1.08,1.08
30.08,-0.39,-1.48,-0.39,-1.46,1.46,1.34,2.08,1.08,1.08,1.09
30.38,-0.36,-1.43,-0.35,-1.43,1.43,1.30,2.08,1.07,1.08,1.07
30.68,-0.32,-1.39,-0.32,-1.39,1.39,1.25,2.09,1.07,1.07,1.07
30.99,-0.29,-1.36,-0.29,-1.36,1.36,1.21,2.09,1.07,1.07,1.07
31.30,-0.26,-1.33,-0.26,-1.33,1.33,1.17,2.08,1.07,1.07,1.07
31.61,-0.23,-1.29,-0.23,-1.30,1.30,1.13,2.08,1.07,1.07,1.07
31.93,-0.21,-1.27,-0.21,-1.27,1.27,1.09,2.07,1.06,1.06,1.06
32.24,-0.17,-1.22,-0.18,-1.24,1.24,1.05,2.05,1.07,1.06,1.05
32.57,-0.14,-1.20,-0.16,-1.21,1.21,1.01,2.03,1.07,1.05,1.06
32.89,-0.10,-1.15,-0.13,-1.18,1.18,0.97,2.01,1.08,1.05,1.05
33.22,-0.09,-1.13,-0.11,-1.15,1.15,0.93,1.98,1.06,1.04,1.04
33.55,-0.09,-1.13,-0.08,-1.12,1.12,0.89,1.95,1.03,1.04,1.04
33.89,-0.09,-1.11,-0.06,-1.09,1.09,0.85,1.92,1.00,1.03,1.03
34.23,-0.07,-1.10,-0.03,-1.06,1.06,0.82,1.88,0.99,1.03,1.03
34.57,-0.03,-1.05,-0.00,-1.02,1.02,0.78,1.84,0.99,1.02,1.02
34.92,0.00,-1.01,0.03,-0.99,0.99,0.75,1.80,0.99,1.02,1.01
35.27,0.04,-0.97,0.05,-0.96,0.96,0.72,1.76,1.00,1.01,1.01
35.62,0.07,-0.94,0.07,-0.93,0.93,0.68,1.71,1.01,1.01,1.01
35.97,0.11,-0.89,0.10,-0.91,0.91,0.65,1.66,1.02,1.01,1.00
36.33,0.14,-0.87,0.12,-0.88,0.88,0.62,1.62,1.03,1.00,1.01
36.70,0.18,-0.81,0.14,-0.86,0.86,0.59,1.56,1.04,1.00,0.99
37.06,0.21,-0.78,0.17,-0.83,0.83,0.56,1.51,1.05,1.00,0.99
37.43,0.21,-0.79,0.19,-0.81,0.81,0.53,1.46,1.02,1.00,1.00
37.81,0.21,-0.79,0.21,-0.79,0.79,0.50,1.41,1.00,1.00,1.00
38.19,0.21,-0.78,0.22,-0.78,0.78,0.47,1.35,0.99,1.00,0.99
38.57,0.21,-0.79,0.23,-0.77,0.77,0.44,1.30,0.98,1.00,1.00
38.95,0.21,-0.79,0.24,-0.75,0.75,0.41,1.24,0.97,1.00,1.00
39.34,0.24,-0.76,0.26,-0.74,0.74,0.38,1.19,0.98,1.00,1.00
39.74,0.28,-0.71,0.27,-0.72,0.72,0.36,1.13,1.00,1.00,0.99
40.14,0.31,-0.69,0.29,-0.70,0.70,0.33,1.08,1.01,0.99,1.00
40.54,0.31,-0.68,0.31,-0.68,0.68,0.30,1.02,0.99,0.99,0.99
40.94,0.31,-0.67,0.33,-0.65,0.65,0.28,0.97,0.96,0.98,0.98
41.35,0.32,-0.65,0.36,-0.62,0.62,0.25,0.92,0.94,0.98,0.98
41.76,0.33,-0.64,0.38,-0.59,0.59,0.23,0.86,0.92,0.97,0.97
42.18,0.37,-0.60,0.40,-0.56,0.56,0.20,0.81,0.93,0.96,0.97
42.60,0.44,-0.51,0.43,-0.52,0.52,0.18,0.76,0.96,0.95,0.95
43.03,0.51,-0.43,0.44,-0.49,0.49,0.15,0.71,1.00,0.94,0.94
43.46,0.51,-0.43,0.46,-0.46,0.46,0.13,0.65,0.97,0.92,0.94
43.90,0.51,-0.40,0.47,-0.43,0.43,0.10,0.60,0.95,0.91,0.91
44.33,0.51,-0.38,0.49,-0.41,0.41,0.08,0.55,0.92,0.89,0.89
44.78,0.51,-0.36,0.50,-0.38,0.38,0.06,0.50,0.89,0.88,0.87
45.23,0.51,-0.35,0.51,-0.35,0.35,0.03,0.45,0.86,0.86,0.86
45.68,0.51,-0.33,0.53,-0.32,0.32,0.01,0.40,0.83,0.85,0.84
46.13,0.51,-0.31,0.54,-0.29,0.29,-0.01,0.36,0.80,0.83,0.82
46.60,0.51,-0.31,0.56,-0.26,0.26,-0.04,0.31,0.77,0.82,0.82
47.06,0.52,-0.28,0.57,-0.23,0.23,-0.06,0.26,0.75,0.80,0.80
47.53,0.56,-0.22,0.58,-0.20,0.20,-0.08,0.21,0.76,0.78,0.79
48.01,0.61,-0.17,0.59,-0.17,0.17,-0.10,0.17,0.78,0.77,0.78
48.49,0.61,-0.15,0.61,-0.14,0.14,-0.12,0.12,0.75,0.75,0.76
48.97,0.61,-0.13,0.63,-0.10,0.10,-0.15,0.08,0.72,0.73,0.74
49.46,0.66,-0.05,0.65,-0.07,0.07,-0.17,0.03,0.73,0.72,0.71
49.96,0.71,0.02,0.66,-0.04,0.04,-0.19,-0.01,0.75,0.70,0.69
50.46,0.71,0.02,0.68,-0.01,0.01,-0.21,-0.06,0.72,0.69,0.69
50.96,0.71,0.04,0.69,0.02,-0.02,-0.24,-0.10,0.69,0.67,0.67
51.47,0.71,0.06,0.70,0.05,-0.05,-0.26,-0.15,0.66,0.66,0.65
51.99,0.71,0.08,0.71,0.07,-0.07,-0.28,-0.19,0.65,0.64,0.63
52.51,0.71,0.09,0.71,0.08,-0.08,-0.30,-0.23,0.63,0.62,0.62
53.03,0.71,0.09,0.71,0.10,-0.10,-0.32,-0.28,0.61,0.61,0.62
53.56,0.71,0.11,0.71,0.12,-0.12,-0.35,-0.32,0.60,0.59,0.60
54.10,0.71,0.13,0.71,0.13,-0.13,-0.37,-0.36,0.58,0.58,0.58
54.64,0.71,0.15,0.72,0.15,-0.15,-0.39,-0.40,0.56,0.57,0.56
55.18,0.71,0.16,0.72,0.17,-0.17,-0.41,-0.44,0.54,0.55,0.55
55.74,0.71,0.18,0.73,0.19,-0.19,-0.44,-0.48,0.52,0.54,0.53
56.29,0.71,0.19,0.74,0.22,-0.22,-0.46,-0.52,0.49,0.52,0.52
56.86,0.71,0.21,0.76,0.26,-0.26,-0.48,-0.57,0.45,0.50,0.50
57.42,0.75,0.28,0.78,0.30,-0.30,-0.51,-0.61,0.46,0.48,0.47
58.00,0.81,0.36,0.80,0.34,-0.34,-0.53,-0.65,0.47,0.46,0.45
58.58,0.81,0.37,0.81,0.38,-0.38,-0.55,-0.69,0.43,0.43,0.44
59.16,0.83,0.41,0.83,0.43,-0.43,-0.58,-0.72,0.40,0.40,0.42
59.76,0.89,0.50,0.85,0.48,-0.48,-0.60,-0.76,0.41,0.37,0.39
60.35,0.91,0.57,0.87,0.53,-0.53,-0.62,-0.80,0.38,0.34,0.35
60.96,0.91,0.60,0.88,0.59,-0.59,-0.65,-0.84,0.32,0.30,0.31
61.57,0.91,0.65,0.90,0.64,-0.64,-0.67,-0.88,0.27,0.26,0.26
62.18,0.91,0.70,0.91,0.69,-0.69,-0.70,-0.92,0.22,0.21,0.21
62.80,0.91,0.75,0.92,0.75,-0.75,-0.72,-0.96,0.16,0.17,0.16
63.43,0.91,0.80,0.92,0.79,-0.79,-0.75,-0.99,0.12,0.12,0.11
64.07,0.91,0.85,0.91,0.84,-0.84,-0.77,-1.03,0.07,0.07,0.06
64.71,0.91,0.90,0.91,0.88,-0.88,-0.80,-1.07,0.03,0.02,0.01
65.35,0.91,0.94,0.90,0.94,-0.94,-0.83,-1.11,-0.03,-0.03,-0.03
66.01,0.91,1.00,0.91,0.99,-0.99,-0.85,-1.15,-0.08,-0.08,-0.09
66.67,0.91,1.05,0.91,1.05,-1.05,-0.88,-1.18,-0.14,-0.14,-0.14
67.33,0.91,1.11,0.92,1.11,-1.11,-0.91,-1.22,-0.20,-0.19,-0.20
68.01,0.91,1.15,0.93,1.18,-1.18,-0.94,-1.26,-0.27,-0.25,-0.24
68.69,0.91,1.21,0.95,1.25,-1.25,-0.96,-1.30,-0.34,-0.30,-0.30
69.37,0.91,1.27,0.96,1.32,-1.32,-0.99,-1.34,-0.41,-0.36,-0.36
70.07,0.92,1.34,0.98,1.40,-1.40,-1.02,-1.38,-0.48,-0.42,-0.42
70.77,0.99,1.46,1.00,1.48,-1.48,-1.05,-1.42,-0.49,-0.48,-0.47
71.48,1.05,1.58,1.02,1.56,-1.56,-1.08,-1.46,-0.51,-0.54,-0.53
72.19,1.09,1.69,1.04,1.64,-1.64,-1.11,-1.50,-0.55,-0.60,-0.60
72.91,1.11,1.77,1.06,1.72,-1.72,-1.14,-1.55,-0.61,-0.67,-0.66
73.64,1.11,1.84,1.08,1.80,-1.80,-1.18,-1.59,-0.69,-0.73,-0.73
74.38,1.11,1.90,1.09,1.88,-1.88,-1.21,-1.64,-0.77,-0.79,-0.79
75.12,1.11,1.97,1.10,1.96,-1.96,-1.24,-1.68,-0.85,-0.85,-0.86
75.87,1.11,2.04,1.11,2.03,-2.03,-1.27,-1.73,-0.92,-0.92,-0.93
76.63,1.11,2.10,1.12,2.10,-2.10,-1.31,-1.78,-0.99,-0.98,-0.98
77.40,1.11,2.15,1.12,2.16,-2.16,-1.34,-1.82,-1.05,-1.04,-1.04
78.17,1.11,2.22,1.12,2.22,-2.22,-1.38,-1.88,-1.11,-1.10,-1.11
78.95,1.11,2.27,1.11,2.27,-2.27,-1.41,-1.93,-1.16,-1.16,-1.15
79.74,1.11,2.33,1.11,2.32,-2.32,-1.45,-1.98,-1.21,-1.22,-1.22
80.54,1.11,2.38,1.10,2.38,-2.38,-1.49,-2.04,-1.27,-1.27,-1.27
81.35,1.11,2.44,1.10,2.43,-2.43,-1.52,-2.09,-1.32,-1.33,-1.33
82.16,1.11,2.50,1.11,2.50,-2.50,-1.56,-2.15,-1.38,-1.39,-1.39
82.98,1.11,2.54,1.12,2.56,-2.56,-1.60,-2.21,-1.45,-1.44,-1.43
83.81,1.11,2.61,1.12,2.62,-2.62,-1.64,-2.27,-1.51,-1.50,-1.50
84.65,1.11,2.67,1.13,2.69,-2.69,-1.68,-2.34,-1.58,-1.55,-1.56
85.50,1.11,2.72,1.14,2.75,-2.75,-1.73,-2.40,-1.64,-1.61,-1.61
86.35,1.11,2.78,1.15,2.82,-2.82,-1.77,-2.47,-1.71,-1.67,-1.66
87.22,1.13,2.85,1.16,2.89,-2.89,-1.81,-2.54,-1.76,-1.73,-1.72
88.09,1.22,3.00,1.17,2.96,-2.96,-1.86,-2.61,-1.74,-1.79,-1.78
88.97,1.22,3.07,1.19,3.03,-3.03,-1.90,-2.68,-1.81,-1.85,-1.85
89.86,1.22,3.13,1.20,3.10,-3.10,-1.95,-2.76,-1.88,-1.91,-1.91
90.76,1.22,3.19,1.21,3.17,-3.17,-1.99,-2.83,-1.95,-1.97,-1.97
91.66,1.22,3.24,1.22,3.24,-3.24,-2.04,-2.91,-2.02,-2.03,-2.02
92.58,1.22,3.32,1.22,3.31,-3.31,-2.09,-2.99,-2.09,-2.09,-2.10
93.51,1.22,3.37,1.23,3.37,-3.37,-2.14,-3.07,-2.15,-2.15,-2.15
94.44,1.22,3.43,1.23,3.43,-3.43,-2.19,-3.16,-2.21,-2.21,-2.21
95.39,1.22,3.48,1.23,3.49,-3.49,-2.24,-3.24,-2.27,-2.27,-2.26
96.34,1.22,3.55,1.22,3.54,-3.54,-2.30,-3.33,-2.32,-2.32,-2.33
97.30,1.21,3.59,1.21,3.59,-3.59,-2.35,-3.42,-2.38,-2.38,-2.38
98.28,1.20,3.64,1.19,3.63,-3.63,-2.40,-3.51,-2.43,-2.44,-2.44
99.26,1.19,3.69,1.18,3.67,-3.67,-2.46,-3.60,-2.48,-2.50,-2.50
100.25,1.17,3.72,1.17,3.72,-3.72,-2.52,-3.70,-2.55,-2.55,-2.55
101.25,1.15,3.76,1.15,3.77,-3.77,-2.58,-3.79,-2.61,-2.61,-2.61
102.27,1.14,3.81,1.14,3.81,-3.81,-2.64,-3.89,-2.67,-2.67,-2.67
103.29,1.13,3.87,1.13,3.86,-3.86,-2.70,-3.98,-2.73,-2.73,-2.74
104.32,1.11,3.89,1.11,3.90,-3.90,-2.76,-4.08,-2.79,-2.79,-2.78
105.37,1.08,3.92,1.10,3.95,-3.95,-2.82,-4.17,-2.87,-2.85,-2.84
106.42,1.06,3.96,1.08,3.99,-3.99,-2.89,-4.27,-2.93,-2.91,-2.90
107.48,1.04,4.01,1.07,4.04,-4.04,-2.96,-4.37,-3.00,-2.97,-2.97
108.56,1.08,4.12,1.06,4.09,-4.09,-3.02,-4.46,-3.01,-3.03,-3.03
109.64,1.09,4.18,1.05,4.15,-4.15,-3.09,-4.55,-3.06,-3.10,-3.09
110.74,1.07,4.23,1.04,4.20,-4.20,-3.16,-4.65,-3.13,-3.16,-3.16
111.85,1.05,4.26,1.05,4.26,-4.26,-3.24,-4.74,-3.21,-3.22,-3.21
112.97,1.04,4.32,1.05,4.33,-4.33,-3.31,-4.82,-3.29,-3.28,-3.28
114.10,1.04,4.38,1.06,4.40,-4.40,-3.38,-4.91,-3.36,-3.34,-3.34
115.24,1.04,4.44,1.07,4.47,-4.47,-3.46,-4.99,-3.43,-3.39,-3.40
116.39,1.04,4.50,1.09,4.54,-4.54,-3.54,-5.07,-3.50,-3.45,-3.46
117.55,1.07,4.58,1.11,4.61,-4.61,-3.62,-5.14,-3.54,-3.50,-3.51
118.73,1.14,4.70,1.13,4.69,-4.69,-3.70,-5.21,-3.54,-3.55,-3.56
119.92,1.15,4.75,1.15,4.75,-4.75,-3.78,-5.28,-3.60,-3.60,-3.60
121.12,1.17,4.82,1.17,4.82,-4.82,-3.87,-5.34,-3.64,-3.64,-3.65
122.33,1.23,4.93,1.19,4.88,-4.88,-3.95,-5.39,-3.65,-3.69,-3.69
123.55,1.28,5.01,1.22,4.95,-4.95,-4.04,-5.44,-3.67,-3.73,-3.73
124.79,1.28,5.05,1.24,5.02,-5.02,-4.13,-5.49,-3.74,-3.77,-3.77
126.03,1.29,5.10,1.27,5.08,-5.08,-4.22,-5.53,-3.79,-3.81,-3.81
127.29,1.30,5.14,1.29,5.14,-5.14,-4.31,-5.56,-3.84,-3.85,-3.84
128.57,1.30,5.19,1.31,5.20,-5.20,-4.40,-5.59,-3.90,-3.89,-3.89
129.85,1.31,5.24,1.33,5.26,-5.26,-4.50,-5.62,-3.95,-3.93,-3.93
131.15,1.32,5.29,1.35,5.32,-5.32,-4.59,-5.64,-4.00,-3.97,-3.97
132.46,1.32,5.33,1.37,5.38,-5.38,-4.69,-5.65,-4.06,-4.00,-4.01
133.79,1.35,5.39,1.39,5.44,-5.44,-4.79,-5.67,-4.08,-4.04,-4.04
135.12,1.45,5.54,1.41,5.49,-5.49,-4.89,-5.68,-4.04,-4.08,-4.09
136.48,1.42,5.53,1.42,5.54,-5.54,-4.99,-5.68,-4.11,-4.11,-4.11
137.84,1.41,5.57,1.44,5.59,-5.59,-5.10,-5.69,-4.18,-4.15,-4.16
139.22,1.49,5.69,1.46,5.65,-5.65,-5.20,-5.69,-4.15,-4.19,-4.20
140.61,1.54,5.78,1.48,5.71,-5.71,-5.31,-5.69,-4.17,-4.23,-4.24
142.02,1.54,5.80,1.51,5.78,-5.78,-5.41,-5.68,-4.24,-4.27,-4.26
143.44,1.54,5.84,1.54,5.85,-5.85,-5.52,-5.68,-4.31,-4.31,-4.30
144.87,1.54,5.89,1.57,5.92,-5.92,-5.63,-5.68,-4.38,-4.36,-4.35
146.32,1.54,5.94,1.59,6.00,-6.00,-5.74,-5.68,-4.46,-4.41,-4.40
147.78,1.54,5.98,1.61,6.08,-6.08,-5.85,-5.67,-4.54,-4.47,-4.44
149.26,1.54,6.04,1.63,6.16,-6.16,-5.96,-5.67,-4.62,-4.53,-4.50
150.75,1.59,6.16,1.64,6.23,-6.23,-6.07,-5.67,-4.64,-4.59,-4.57
152.26,1.69,6.34,1.64,6.30,-6.30,-6.18,-5.68,-4.61,-4.66,-4.65
153.78,1.74,6.46,1.63,6.36,-6.36,-6.29,-5.68,-4.62,-4.74,-4.72
155.32,1.69,6.49,1.60,6.42,-6.42,-6.40,-5.69,-4.72,-4.81,-4.80
156.88,1.64,6.52,1.57,6.46,-6.46,-6.51,-5.69,-4.82,-4.89,-4.88
158.44,1.57,6.54,1.53,6.50,-6.50,-6.62,-5.71,-4.93,-4.97,-4.97
160.03,1.54,6.60,1.48,6.53,-6.53,-6.73,-5.72,-4.99,-5.04,-5.06
161.63,1.50,6.64,1.43,6.55,-6.55,-6.84,-5.74,-5.05,-5.12,-5.14
163.24,1.42,6.63,1.38,6.57,-6.57,-6.94,-5.76,-5.15,-5.19,-5.21
164.88,1.29,6.56,1.33,6.57,-6.57,-7.04,-5.79,-5.28,-5.25,-5.27
166.53,1.19,6.51,1.27,6.57,-6.57,-7.14,-5.82,-5.38,-5.30,-5.32
168.19,1.14,6.51,1.22,6.57,-6.57,-7.24,-5.85,-5.43,-5.35,-5.37
169.87,1.13,6.54,1.18,6.56,-6.56,-7.33,-5.89,-5.43,-5.39,-5.41
171.57,1.04,6.47,1.15,6.57,-6.57,-7.42,-5.94,-5.53,-5.42,-5.43
173.29,1.07,6.53,1.14,6.59,-6.59,-7.51,-5.98,-5.52,-5.44,-5.45
175.02,1.10,6.57,1.15,6.61,-6.61,-7.59,-6.03,-5.51,-5.46,-5.47
176.77,1.17,6.66,1.16,6.64,-6.64,-7.67,-6.09,-5.47,-5.48,-5.49
178.54,1.19,6.69,1.18,6.68,-6.68,-7.74,-6.15,-5.49,-5.49,-5.50
180.32,1.20,6.70,1.22,6.72,-6.72,-7.80,-6.22,-5.52,-5.50,-5.49
182.13,1.26,6.75,1.26,6.77,-6.77,-7.86,-6.29,-5.51,-5.52,-5.49
183.95,1.33,6.84,1.30,6.83,-6.83,-7.92,-6.36,-5.50,-5.53,-5.51
185.79,1.41,6.93,1.35,6.88,-6.88,-7.96,-6.44,-5.47,-5.54,-5.52
187.65,1.44,6.98,1.38,6.93,-6.93,-8.00,-6.52,-5.49,-5.55,-5.54
189.52,1.46,7.02,1.41,6.97,-6.97,-8.03,-6.61,-5.51,-5.57,-5.56
191.42,1.47,7.05,1.44,7.02,-7.02,-8.06,-6.70,-5.55,-5.58,-5.58
193.33,1.48,7.08,1.47,7.07,-7.07,-8.07,-6.80,-5.59,-5.60,-5.60
195.27,1.50,7.13,1.49,7.12,-7.12,-8.08,-6.90,-5.62,-5.62,-5.62
197.22,1.51,7.16,1.52,7.17,-7.17,-8.08,-7.00,-5.65,-5.65,-5.65
199.19,1.52,7.20,1.54,7.21,-7.21,-8.08,-7.11,-5.69,-5.67,-5.68
201.18,1.53,7.23,1.57,7.26,-7.26,-8.06,-7.22,-5.73,-5.69,-5.70
203.19,1.53,7.25,1.59,7.31,-7.31,-8.04,-7.33,-5.78,-5.72,-5.72
205.23,1.52,7.27,1.60,7.35,-7.35,-8.01,-7.45,-5.83,-5.74,-5.75
207.28,1.55,7.31,1.62,7.39,-7.39,-7.97,-7.56,-5.84,-5.77,-5.75
209.35,1.70,7.48,1.64,7.43,-7.43,-7.92,-7.68,-5.73,-5.79,-5.78
211.44,1.75,7.57,1.66,7.47,-7.47,-7.87,-7.80,-5.72,-5.81,-5.82
213.56,1.73,7.56,1.68,7.50,-7.50,-7.81,-7.92,-5.77,-5.83,-5.83
215.69,1.73,7.57,1.69,7.54,-7.54,-7.75,-8.03,-5.81,-5.84,-5.84
217.85,1.72,7.58,1.70,7.56,-7.56,-7.68,-8.15,-5.84,-5.86,-5.86
220.03,1.72,7.59,1.72,7.59,-7.59,-7.60,-8.26,-5.87,-5.87,-5.87
222.23,1.72,7.62,1.73,7.61,-7.61,-7.52,-8.37,-5.89,-5.88,-5.90
224.45,1.72,7.61,1.74,7.62,-7.62,-7.44,-8.47,-5.90,-5.89,-5.89
226.70,1.72,7.62,1.75,7.64,-7.64,-7.35,-8.56,-5.92,-5.89,-5.90
228.96,1.72,7.61,1.76,7.64,-7.64,-7.25,-8.65,-5.92,-5.89,-5.89
231.25,1.73,7.61,1.76,7.64,-7.64,-7.16,-8.73,-5.91,-5.88,-5.88
233.57,1.74,7.61,1.75,7.63,-7.63,-7.06,-8.80,-5.89,-5.87,-5.87
235.90,1.75,7.62,1.76,7.62,-7.62,-6.95,-8.85,-5.87,-5.86,-5.86
238.26,1.77,7.63,1.77,7.62,-7.62,-6.85,-8.90,-5.85,-5.85,-5.86
240.64,1.78,7.62,1.78,7.61,-7.61,-6.74,-8.93,-5.83,-5.83,-5.84
243.05,1.79,7.60,1.79,7.60,-7.60,-6.63,-8.94,-5.81,-5.81,-5.81
245.48,1.82,7.61,1.80,7.59,-7.59,-6.52,-8.94,-5.77,-5.79,-5.79
247.93,1.85,7.61,1.80,7.57,-7.57,-6.41,-8.92,-5.72,-5.77,-5.76
250.41,1.82,7.57,1.80,7.55,-7.55,-6.30,-8.89,-5.73,-5.75,-5.75
252.92,1.74,7.46,1.79,7.52,-7.52,-6.19,-8.84,-5.78,-5.73,-5.72
255.45,1.77,7.47,1.79,7.49,-7.49,-6.07,-8.77,-5.72,-5.70,-5.70
258.00,1.79,7.46,1.78,7.46,-7.46,-5.96,-8.68,-5.67,-5.68,-5.67
260.58,1.80,7.46,1.76,7.42,-7.42,-5.85,-8.58,-5.62,-5.66,-5.66
263.19,1.79,7.42,1.74,7.37,-7.37,-5.74,-8.47,-5.58,-5.63,-5.63
265.82,1.67,7.29,1.72,7.33,-7.33,-5.62,-8.33,-5.66,-5.61,-5.62
268.48,1.71,7.31,1.70,7.29,-7.29,-5.51,-8.19,-5.58,-5.59,-5.59
271.16,1.68,7.24,1.68,7.25,-7.25,-5.40,-8.04,-5.57,-5.56,-5.56
273.87,1.60,7.15,1.66,7.20,-7.20,-5.29,-7.87,-5.60,-5.54,-5.55
276.61,1.59,7.11,1.64,7.15,-7.15,-5.18,-7.69,-5.56,-5.52,-5.51
279.38,1.59,7.08,1.61,7.10,-7.10,-5.07,-7.51,-5.51,-5.49,-5.49
282.17,1.59,7.06,1.57,7.04,-7.04,-4.97,-7.32,-5.45,-5.46,-5.47
284.99,1.52,6.95,1.53,6.97,-6.97,-4.86,-7.12,-5.45,-5.44,-5.43
287.84,1.48,6.90,1.50,6.90,-6.90,-4.76,-6.92,-5.42,-5.41,-5.42
290.72,1.52,6.90,1.45,6.83,-6.83,-4.65,-6.71,-5.31,-5.38,-5.38
293.63,1.44,6.80,1.41,6.77,-6.77,-4.55,-6.50,-5.33,-5.35,-5.36
296.57,1.40,6.72,1.37,6.69,-6.69,-4.45,-6.29,-5.29,-5.33,-5.32
299.53,1.32,6.62,1.29,6.59,-6.59,-4.35,-6.08,-5.27,-5.30,-5.30
302.53,1.17,6.45,1.20,6.47,-6.47,-4.25,-5.86,-5.30,-5.27,-5.28
305.55,1.09,6.33,1.11,6.36,-6.36,-4.15,-5.65,-5.27,-5.25,-5.24
308.61,0.98,6.20,1.02,6.24,-6.24,-4.05,-5.43,-5.26,-5.23,-5.22
311.69,0.95,6.15,0.92,6.13,-6.13,-3.96,-5.22,-5.18,-5.20,-5.20
314.81,0.96,6.13,0.83,6.01,-6.01,-3.86,-5.01,-5.05,-5.18,-5.17
317.96,0.78,5.94,0.72,5.88,-5.88,-3.77,-4.79,-5.10,-5.16,-5.15
321.14,0.59,5.74,0.61,5.75,-5.75,-3.68,-4.58,-5.16,-5.14,-5.15
324.35,0.47,5.60,0.49,5.62,-5.62,-3.59,-4.37,-5.15,-5.13,-5.13
327.59,0.21,5.33,0.38,5.50,-5.50,-3.50,-4.16,-5.29,-5.11,-5.11
330.87,0.05,5.16,0.27,5.37,-5.37,-3.41,-3.95,-5.32,-5.10,-5.11
334.18,0.13,5.22,0.16,5.25,-5.25,-3.32,-3.75,-5.12,-5.09,-5.09
337.52,0.18,5.27,0.05,5.13,-5.13,-3.23,-3.54,-4.95,-5.08,-5.08
340.90,0.04,5.11,-0.08,5.00,-5.00,-3.14,-3.34,-4.96,-5.07,-5.07
344.30,-0.13,4.93,-0.20,4.86,-4.86,-3.06,-3.14,-4.99,-5.07,-5.06
347.75,-0.39,4.67,-0.34,4.72,-4.72,-2.97,-2.94,-5.11,-5.06,-5.06
351.23,-0.56,4.50,-0.47,4.58,-4.58,-2.89,-2.74,-5.14,-5.06,-5.06
354.74,-0.60,4.46,-0.60,4.46,-4.46,-2.80,-2.55,-5.06,-5.05,-5.06
358.28,-0.68,4.37,-0.73,4.32,-4.32,-2.72,-2.35,-5.00,-5.05,-5.05
361.87,-0.89,4.16,-0.89,4.16,-4.16,-2.63,-2.16,-5.05,-5.05,-5.05
365.49,-1.04,4.01,-1.07,3.98,-3.98,-2.55,-1.97,-5.02,-5.05,-5.04
369.14,-1.25,3.81,-1.26,3.79,-3.79,-2.46,-1.78,-5.04,-5.05,-5.06
372.83,-1.53,3.53,-1.47,3.59,-3.59,-2.37,-1.59,-5.12,-5.05,-5.06
376.56,-1.63,3.43,-1.67,3.38,-3.38,-2.29,-1.41,-5.01,-5.06,-5.06
380.33,-1.85,3.20,-1.89,3.17,-3.17,-2.20,-1.22,-5.02,-5.06,-5.05
384.13,-2.09,2.97,-2.11,2.96,-2.96,-2.11,-1.04,-5.05,-5.06,-5.05
387.97,-2.30,2.77,-2.33,2.74,-2.74,-2.02,-0.86,-5.04,-5.07,-5.07
391.85,-2.56,2.52,-2.58,2.49,-2.49,-1.93,-0.68,-5.05,-5.07,-5.08
395.77,-2.94,2.13,-2.85,2.23,-2.23,-1.83,-0.51,-5.17,-5.08,-5.07
399.73,-3.26,1.82,-3.14,1.94,-1.94,-1.74,-0.33,-5.20,-5.09,-5.08
403.72,-3.43,1.65,-3.44,1.65,-1.65,-1.64,-0.16,-5.08,-5.09,-5.08
407.76,-3.53,1.57,-3.74,1.36,-1.36,-1.54,0.01,-4.89,-5.10,-5.09
411.84,-3.90,1.20,-4.05,1.05,-1.05,-1.43,0.17,-4.94,-5.10,-5.10
415.96,-4.34,0.76,-4.40,0.70,-0.70,-1.32,0.34,-5.04,-5.10,-5.10
420.12,-4.65,0.45,-4.74,0.36,-0.36,-1.20,0.50,-5.01,-5.10,-5.10
424.32,-4.85,0.25,-5.04,0.05,-0.05,-1.08,0.65,-4.90,-5.09,-5.10
428.56,-5.24,-0.15,-5.32,-0.24,0.24,-0.95,0.80,-5.00,-5.08,-5.09
432.85,-5.67,-0.59,-5.56,-0.49,0.49,-0.81,0.95,-5.18,-5.07,-5.08
437.18,-6.01,-0.94,-5.74,-0.70,0.70,-0.67,1.09,-5.31,-5.05,-5.07
441.55,-6.20,-1.16,-5.89,-0.87,0.87,-0.52,1.23,-5.33,-5.02,-5.03
445.96,-6.30,-1.29,-6.04,-1.04,1.04,-0.35,1.36,-5.26,-4.99,-5.01
450.42,-6.48,-1.50,-6.17,-1.21,1.21,-0.17,1.48,-5.27,-4.96,-4.98
454.93,-6.72,-1.79,-6.28,-1.36,1.36,0.02,1.60,-5.36,-4.91,-4.93
459.48,-6.61,-1.73,-6.36,-1.48,1.48,0.22,1.70,-5.12,-4.87,-4.88
464.07,-6.13,-1.30,-6.42,-1.60,1.60,0.44,1.80,-4.53,-4.83,-4.83
468.71,-6.06,-1.29,-6.49,-1.71,1.71,0.68,1.89,-4.35,-4.78,-4.77
473.40,-6.11,-1.38,-6.56,-1.83,1.83,0.94,1.97,-4.28,-4.73,-4.73
478.13,-6.15,-1.48,-6.62,-1.94,1.94,1.21,2.04,-4.21,-4.68,-4.67
482.91,-6.36,-1.73,-6.68,-2.05,2.05,1.50,2.10,-4.31,-4.64,-4.63
487.74,-6.75,-2.16,-6.76,-2.17,2.17,1.81,2.15,-4.58,-4.59,-4.59
