frequency,raw,error,smoothed,error_smoothed,equalization,parametric_eq,fixed_band_eq,equalized_raw,equalized_smoothed,target
20.00,-25.03,-24.17,-24.94,-24.11,24.11,25.28,10.47,-0.92,-0.83,-0.85
20.20,-24.81,-24.00,-24.75,-23.96,23.96,25.03,10.66,-0.85,-0.79,-0.80
20.40,-24.60,-23.84,-24.57,-23.81,23.81,24.78,10.85,-0.78,-0.75,-0.75
20.61,-24.38,-23.66,-24.38,-23.67,23.67,24.54,11.04,-0.72,-0.72,-0.72
20.81,-24.17,-23.49,-24.21,-23.52,23.52,24.31,11.24,-0.65,-0.69,-0.67
21.02,-23.95,-23.31,-24.04,-23.38,23.38,24.09,11.45,-0.57,-0.66,-0.63
21.23,-23.80,-23.18,-23.87,-23.23,23.23,23.87,11.66,-0.57,-0.63,-0.61
21.44,-23.64,-23.04,-23.70,-23.09,23.09,23.65,11.88,-0.55,-0.61,-0.59
21.66,-23.48,-22.91,-23.54,-22.95,22.95,23.44,12.10,-0.53,-0.59,-0.57
21.87,-23.32,-22.75,-23.38,-22.81,22.81,23.24,12.32,-0.50,-0.57,-0.56
22.09,-23.18,-22.63,-23.23,-22.67,22.67,23.04,12.56,-0.50,-0.56,-0.54
22.31,-23.07,-22.53,-23.08,-22.54,22.54,22.85,12.80,-0.53,-0.54,-0.53
22.54,-22.96,-22.43,-22.95,-22.41,22.41,22.66,13.04,-0.55,-0.54,-0.53
22.76,-22.85,-22.31,-22.82,-22.29,22.29,22.48,13.30,-0.56,-0.53,-0.53
22.99,-22.75,-22.20,-22.69,-22.16,22.16,22.30,13.56,-0.59,-0.53,-0.54
23.22,-22.61,-22.07,-22.56,-22.03,22.03,22.13,13.82,-0.58,-0.53,-0.54
23.45,-22.47,-21.92,-22.43,-21.90,21.90,21.96,14.10,-0.57,-0.53,-0.54
23.69,-22.33,-21.80,-22.28,-21.75,21.75,21.79,14.38,-0.58,-0.53,-0.53
23.92,-22.19,-21.65,-22.14,-21.61,21.61,21.63,14.68,-0.58,-0.53,-0.53
24.16,-22.04,-21.50,-22.00,-21.46,21.46,21.47,14.98,-0.57,-0.53,-0.53
24.40,-21.89,-21.36,-21.87,-21.34,21.34,21.31,15.29,-0.54,-0.53,-0.52
24.65,-21.74,-21.21,-21.77,-21.23,21.23,21.16,15.61,-0.50,-0.53,-0.53
24.89,-21.59,-21.05,-21.67,-21.14,21.14,21.01,15.95,-0.45,-0.53,-0.53
25.14,-21.46,-20.92,-21.58,-21.05,21.05,20.86,16.29,-0.41,-0.53,-0.53
25.39,-21.34,-20.81,-21.47,-20.95,20.95,20.72,16.65,-0.39,-0.53,-0.52
25.65,-21.22,-20.70,-21.36,-20.83,20.83,20.58,17.01,-0.39,-0.53,-0.52
25.91,-21.09,-20.56,-21.24,-20.71,20.71,20.44,17.40,-0.38,-0.53,-0.53
26.16,-21.07,-20.53,-21.11,-20.58,20.58,20.30,17.79,-0.49,-0.53,-0.53
26.43,-21.09,-20.55,-20.98,-20.44,20.44,20.16,18.20,-0.64,-0.53,-0.53
26.69,-21.12,-20.58,-20.84,-20.31,20.31,20.03,18.63,-0.81,-0.53,-0.53
26.96,-21.15,-20.61,-20.70,-20.17,20.17,19.90,19.07,-0.98,-0.54,-0.53
27.23,-20.84,-20.31,-20.56,-20.02,20.02,19.77,19.52,-0.82,-0.54,-0.53
27.50,-20.46,-19.93,-20.40,-19.86,19.86,19.64,19.99,-0.60,-0.54,-0.53
27.77,-20.08,-19.54,-20.24,-19.70,19.70,19.52,20.47,-0.38,-0.54,-0.54
28.05,-19.77,-19.22,-20.08,-19.53,19.53,19.39,20.96,-0.23,-0.54,-0.54
28.33,-19.69,-19.13,-19.91,-19.36,19.36,19.27,21.47,-0.32,-0.54,-0.55
28.62,-19.61,-19.06,-19.73,-19.19,19.19,19.14,21.98,-0.42,-0.55,-0.55
28.90,-19.53,-18.98,-19.55,-19.01,19.01,19.02,22.49,-0.52,-0.55,-0.54
29.19,-19.39,-18.83,-19.37,-18.82,18.82,18.90,22.99,-0.56,-0.55,-0.55
29.48,-19.23,-18.68,-19.19,-18.64,18.64,18.78,23.48,-0.58,-0.55,-0.54
29.78,-19.07,-18.52,-19.02,-18.47,18.47,18.66,23.93,-0.60,-0.55,-0.55
30.08,-18.92,-18.38,-18.87,-18.32,18.32,18.54,24.33,-0.60,-0.55,-0.54
30.38,-18.79,-18.24,-18.75,-18.19,18.19,18.43,24.66,-0.60,-0.55,-0.55
30.68,-18.66,-18.10,-18.63,-18.07,18.07,18.31,24.90,-0.59,-0.56,-0.55
30.99,-18.53,-17.98,-18.50,-17.94,17.94,18.19,25.05,-0.59,-0.56,-0.55
31.30,-18.37,-17.81,-18.37,-17.81,17.81,18.07,25.07,-0.56,-0.56,-0.56
31.61,-18.21,-17.65,-18.22,-17.66,17.66,17.96,24.99,-0.55,-0.56,-0.56
31.93,-18.05,-17.49,-18.08,-17.52,17.52,17.84,24.79,-0.53,-0.57,-0.56
32.24,-17.91,-17.33,-17.95,-17.38,17.38,17.72,24.51,-0.53,-0.57,-0.57
32.57,-17.78,-17.21,-17.81,-17.24,17.24,17.61,24.15,-0.54,-0.57,-0.57
32.89,-17.65,-17.07,-17.67,-17.09,17.09,17.49,23.73,-0.56,-0.58,-0.57
33.22,-17.53,-16.94,-17.52,-16.94,16.94,17.37,23.28,-0.59,-0.58,-0.58
33.55,-17.40,-16.81,-17.38,-16.79,16.79,17.26,22.81,-0.60,-0.59,-0.58
33.89,-17.28,-16.68,-17.25,-16.66,16.66,17.14,22.32,-0.62,-0.59,-0.59
34.23,-17.16,-16.57,-17.12,-16.52,16.52,17.02,21.84,-0.64,-0.60,-0.59
34.57,-17.04,-16.43,-16.98,-16.38,16.38,16.90,21.36,-0.65,-0.60,-0.60
34.92,-16.92,-16.32,-16.85,-16.25,16.25,16.79,20.89,-0.67,-0.61,-0.60
35.27,-16.73,-16.12,-16.73,-16.12,16.12,16.67,20.43,-0.61,-0.61,-0.61
35.62,-16.52,-15.91,-16.61,-16.00,16.00,16.55,19.98,-0.52,-0.61,-0.61
35.97,-16.32,-15.70,-16.49,-15.87,15.87,16.43,19.55,-0.44,-0.61,-0.61
36.33,-16.28,-15.66,-16.36,-15.75,15.75,16.31,19.14,-0.53,-0.62,-0.61
36.70,-16.26,-15.63,-16.23,-15.62,15.62,16.19,18.74,-0.64,-0.62,-0.62
37.06,-16.21,-15.58,-16.10,-15.48,15.48,16.07,18.35,-0.72,-0.62,-0.62
37.43,-16.02,-15.40,-15.97,-15.36,15.36,15.94,17.99,-0.66,-0.62,-0.61
37.81,-15.83,-15.22,-15.84,-15.22,15.22,15.82,17.63,-0.60,-0.62,-0.61
38.19,-15.70,-15.08,-15.71,-15.09,15.09,15.70,17.29,-0.61,-0.62,-0.62
38.57,-15.64,-15.02,-15.57,-14.96,14.96,15.57,16.96,-0.68,-0.61,-0.61
38.95,-15.58,-14.97,-15.45,-14.84,14.84,15.45,16.65,-0.74,-0.61,-0.60
39.34,-15.37,-14.75,-15.34,-14.73,14.73,15.32,16.34,-0.64,-0.61,-0.61
39.74,-15.13,-14.52,-15.22,-14.61,14.61,15.20,16.05,-0.52,-0.61,-0.61
40.14,-14.95,-14.34,-15.09,-14.47,14.47,15.07,15.77,-0.48,-0.61,-0.61
40.54,-14.87,-14.26,-14.93,-14.31,14.31,14.94,15.50,-0.56,-0.62,-0.61
40.94,-14.78,-14.15,-14.76,-14.14,14.14,14.82,15.24,-0.64,-0.62,-0.62
41.35,-14.65,-14.02,-14.59,-13.96,13.96,14.69,14.99,-0.69,-0.63,-0.62
41.76,-14.50,-13.86,-14.44,-13.81,13.81,14.56,14.75,-0.69,-0.63,-0.63
42.18,-14.39,-13.75,-14.31,-13.67,13.67,14.43,14.52,-0.72,-0.64,-0.63
42.60,-14.32,-13.67,-14.18,-13.53,13.53,14.29,14.30,-0.79,-0.65,-0.64
43.03,-14.23,-13.57,-14.06,-13.40,13.40,14.16,14.08,-0.83,-0.66,-0.65
43.46,-13.93,-13.26,-13.94,-13.26,13.26,14.03,13.87,-0.66,-0.67,-0.66
43.90,-13.63,-12.95,-13.83,-13.14,13.14,13.90,13.67,-0.49,-0.69,-0.68
44.33,-13.48,-12.77,-13.74,-13.05,13.05,13.76,13.48,-0.43,-0.70,-0.70
44.78,-13.38,-12.66,-13.67,-12.96,12.96,13.63,13.30,-0.42,-0.71,-0.72
45.23,-13.43,-12.69,-13.60,-12.87,12.87,13.49,13.12,-0.56,-0.72,-0.73
45.68,-13.62,-12.87,-13.52,-12.79,12.79,13.36,12.95,-0.83,-0.74,-0.74
46.13,-13.71,-12.94,-13.47,-12.72,12.72,13.22,12.78,-0.99,-0.75,-0.76
46.60,-13.55,-12.79,-13.42,-12.66,12.66,13.09,12.62,-0.89,-0.77,-0.76
47.06,-13.41,-12.62,-13.38,-12.60,12.60,12.95,12.47,-0.81,-0.78,-0.78
47.53,-13.29,-12.49,-13.33,-12.54,12.54,12.81,12.32,-0.75,-0.80,-0.79
48.01,-13.18,-12.39,-13.29,-12.48,12.48,12.67,12.17,-0.70,-0.81,-0.79
48.49,-13.30,-12.48,-13.24,-12.42,12.42,12.53,12.03,-0.88,-0.82,-0.81
48.97,-13.41,-12.57,-13.18,-12.34,12.34,12.40,11.90,-1.06,-0.84,-0.83
49.46,-13.17,-12.31,-13.10,-12.25,12.25,12.26,11.77,-0.92,-0.85,-0.85
49.96,-12.90,-12.03,-13.00,-12.14,12.14,12.12,11.65,-0.76,-0.86,-0.87
50.46,-12.88,-11.99,-12.89,-12.01,12.01,11.98,11.52,-0.87,-0.88,-0.88
50.96,-12.89,-11.99,-12.76,-11.87,11.87,11.84,11.41,-1.02,-0.89,-0.89
51.47,-12.70,-11.78,-12.64,-11.74,11.74,11.70,11.29,-0.96,-0.90,-0.91
51.99,-12.49,-11.57,-12.54,-11.62,11.62,11.56,11.18,-0.87,-0.92,-0.92
52.51,-12.35,-11.42,-12.43,-11.50,11.50,11.42,11.07,-0.85,-0.93,-0.93
53.03,-12.22,-11.28,-12.32,-11.37,11.37,11.27,10.96,-0.84,-0.94,-0.93
53.56,-12.16,-11.20,-12.21,-11.25,11.25,11.13,10.86,-0.90,-0.96,-0.95
54.10,-12.09,-11.13,-12.10,-11.13,11.13,10.99,10.75,-0.96,-0.97,-0.96
54.64,-11.99,-11.01,-11.99,-11.01,11.01,10.85,10.65,-0.98,-0.98,-0.98
55.18,-11.88,-10.89,-11.89,-10.90,10.90,10.71,10.55,-0.97,-0.99,-0.98
55.74,-11.72,-10.72,-11.79,-10.79,10.79,10.57,10.45,-0.93,-1.00,-1.00
56.29,-11.65,-10.63,-11.68,-10.67,10.67,10.43,10.35,-0.98,-1.01,-1.01
56.86,-11.66,-10.63,-11.57,-10.55,10.55,10.29,10.24,-1.11,-1.02,-1.02
57.42,-11.56,-10.50,-11.47,-10.43,10.43,10.15,10.14,-1.13,-1.04,-1.05
58.00,-11.42,-10.36,-11.38,-10.32,10.32,10.01,10.04,-1.10,-1.06,-1.06
58.58,-11.39,-10.31,-11.28,-10.19,10.19,9.87,9.93,-1.20,-1.08,-1.07
59.16,-11.28,-10.18,-11.17,-10.07,10.07,9.73,9.83,-1.21,-1.11,-1.09
59.76,-10.96,-9.85,-11.07,-9.93,9.93,9.59,9.72,-1.03,-1.14,-1.11
60.35,-10.82,-9.66,-10.96,-9.80,9.80,9.45,9.61,-1.02,-1.17,-1.15
60.96,-10.79,-9.59,-10.86,-9.67,9.67,9.31,9.50,-1.12,-1.20,-1.19
61.57,-10.76,-9.53,-10.77,-9.53,9.53,9.17,9.38,-1.23,-1.24,-1.23
62.18,-10.70,-9.42,-10.67,-9.40,9.40,9.03,9.26,-1.30,-1.27,-1.27
62.80,-10.55,-9.22,-10.58,-9.27,9.27,8.89,9.14,-1.28,-1.31,-1.32
63.43,-10.49,-9.12,-10.49,-9.14,9.14,8.75,9.02,-1.35,-1.36,-1.36
64.07,-10.46,-9.05,-10.41,-9.01,9.01,8.61,8.89,-1.45,-1.40,-1.41
64.71,-10.33,-8.88,-10.33,-8.88,8.88,8.48,8.76,-1.45,-1.45,-1.45
65.35,-10.23,-8.73,-10.25,-8.76,8.76,8.34,8.63,-1.47,-1.49,-1.49
66.01,-10.17,-8.63,-10.17,-8.63,8.63,8.20,8.49,-1.54,-1.54,-1.54
66.67,-10.10,-8.51,-10.09,-8.50,8.50,8.07,8.35,-1.60,-1.59,-1.59
67.33,-10.03,-8.38,-9.99,-8.35,8.35,7.93,8.21,-1.67,-1.64,-1.64
68.01,-9.97,-8.28,-9.89,-8.20,8.20,7.80,8.07,-1.76,-1.69,-1.68
68.69,-9.89,-8.16,-9.79,-8.05,8.05,7.66,7.92,-1.84,-1.74,-1.73
69.37,-9.77,-7.98,-9.69,-7.90,7.90,7.53,7.78,-1.86,-1.79,-1.78
70.07,-9.61,-7.78,-9.60,-7.76,7.76,7.40,7.63,-1.85,-1.84,-1.83
70.77,-9.46,-7.57,-9.52,-7.62,7.62,7.27,7.48,-1.84,-1.89,-1.88
71.48,-9.40,-7.47,-9.44,-7.49,7.49,7.14,7.33,-1.91,-1.95,-1.93
72.19,-9.34,-7.33,-9.37,-7.37,7.37,7.00,7.18,-1.97,-2.00,-2.00
72.91,-9.13,-7.06,-9.31,-7.25,7.25,6.87,7.03,-1.88,-2.06,-2.06
73.64,-9.11,-6.99,-9.26,-7.14,7.14,6.74,6.88,-1.97,-2.12,-2.11
74.38,-9.15,-6.97,-9.21,-7.04,7.04,6.62,6.73,-2.11,-2.17,-2.17
75.12,-9.20,-6.96,-9.16,-6.93,6.93,6.49,6.57,-2.27,-2.23,-2.23
75.87,-9.09,-6.79,-9.11,-6.83,6.83,6.36,6.42,-2.26,-2.28,-2.29
76.63,-9.11,-6.76,-9.07,-6.73,6.73,6.23,6.27,-2.38,-2.34,-2.34
77.40,-9.12,-6.72,-9.03,-6.64,6.64,6.11,6.12,-2.48,-2.39,-2.39
78.17,-9.09,-6.63,-8.99,-6.55,6.55,5.98,5.98,-2.54,-2.44,-2.45
78.95,-9.02,-6.52,-8.94,-6.45,6.45,5.86,5.83,-2.57,-2.50,-2.49
79.74,-8.95,-6.40,-8.89,-6.34,6.34,5.74,5.68,-2.61,-2.55,-2.54
80.54,-8.87,-6.27,-8.82,-6.23,6.23,5.61,5.54,-2.64,-2.59,-2.59
81.35,-8.74,-6.10,-8.75,-6.11,6.11,5.49,5.39,-2.63,-2.64,-2.64
82.16,-8.56,-5.86,-8.65,-5.96,5.96,5.37,5.25,-2.59,-2.69,-2.69
82.98,-8.49,-5.75,-8.55,-5.81,5.81,5.25,5.11,-2.68,-2.74,-2.73
83.81,-8.47,-5.68,-8.43,-5.65,5.65,5.13,4.97,-2.82,-2.78,-2.78
84.65,-8.36,-5.52,-8.32,-5.48,5.48,5.02,4.83,-2.87,-2.83,-2.83
85.50,-8.23,-5.36,-8.20,-5.32,5.32,4.90,4.69,-2.91,-2.88,-2.87
86.35,-8.11,-5.18,-8.08,-5.15,5.15,4.78,4.56,-2.96,-2.93,-2.92
87.22,-7.97,-5.00,-7.97,-4.99,4.99,4.67,4.42,-2.98,-2.98,-2.97
88.09,-7.83,-4.81,-7.85,-4.82,4.82,4.55,4.29,-3.01,-3.03,-3.02
88.97,-7.72,-4.63,-7.75,-4.67,4.67,4.44,4.16,-3.05,-3.08,-3.08
89.86,-7.60,-4.47,-7.65,-4.51,4.51,4.33,4.03,-3.08,-3.13,-3.13
90.76,-7.50,-4.32,-7.55,-4.37,4.37,4.21,3.90,-3.13,-3.18,-3.18
91.66,-7.37,-4.13,-7.45,-4.22,4.22,4.10,3.77,-3.15,-3.23,-3.23
92.58,-7.34,-4.04,-7.35,-4.07,4.07,3.99,3.65,-3.27,-3.28,-3.29
93.51,-7.31,-3.96,-7.25,-3.92,3.92,3.89,3.52,-3.39,-3.33,-3.34
94.44,-7.23,-3.84,-7.16,-3.78,3.78,3.78,3.40,-3.45,-3.39,-3.38
95.39,-7.11,-3.68,-7.08,-3.65,3.65,3.67,3.28,-3.46,-3.44,-3.43
96.34,-6.99,-3.50,-7.00,-3.52,3.52,3.56,3.16,-3.47,-3.48,-3.48
97.30,-6.95,-3.41,-6.92,-3.39,3.39,3.46,3.04,-3.56,-3.53,-3.53
98.28,-6.89,-3.31,-6.85,-3.27,3.27,3.36,2.92,-3.62,-3.58,-3.58
99.26,-6.77,-3.14,-6.77,-3.15,3.15,3.25,2.81,-3.62,-3.63,-3.62
100.25,-6.68,-3.00,-6.70,-3.02,3.02,3.15,2.69,-3.65,-3.68,-3.67
101.25,-6.60,-2.87,-6.63,-2.91,2.91,3.05,2.58,-3.69,-3.72,-3.72
102.27,-6.51,-2.74,-6.56,-2.79,2.79,2.95,2.47,-3.72,-3.77,-3.77
103.29,-6.50,-2.67,-6.50,-2.68,2.68,2.85,2.36,-3.82,-3.82,-3.82
104.32,-6.46,-2.59,-6.44,-2.57,2.57,2.75,2.25,-3.89,-3.87,-3.86
105.37,-6.36,-2.45,-6.39,-2.47,2.47,2.66,2.14,-3.89,-3.92,-3.91
106.42,-6.33,-2.36,-6.34,-2.37,2.37,2.56,2.03,-3.96,-3.97,-3.96
107.48,-6.30,-2.27,-6.30,-2.27,2.27,2.47,1.93,-4.03,-4.02,-4.02
108.56,-6.22,-2.14,-6.25,-2.17,2.17,2.37,1.83,-4.05,-4.08,-4.07
109.64,-6.17,-2.04,-6.20,-2.07,2.07,2.28,1.73,-4.10,-4.13,-4.12
110.74,-6.19,-2.00,-6.15,-1.97,1.97,2.19,1.63,-4.21,-4.18,-4.18
111.85,-6.15,-1.92,-6.10,-1.87,1.87,2.10,1.53,-4.28,-4.23,-4.22
112.97,-6.11,-1.82,-6.05,-1.77,1.77,2.01,1.44,-4.34,-4.28,-4.28
114.10,-6.03,-1.70,-5.99,-1.66,1.66,1.92,1.34,-4.37,-4.33,-4.33
115.24,-5.98,-1.59,-5.93,-1.56,1.56,1.83,1.25,-4.42,-4.38,-4.38
116.39,-5.87,-1.43,-5.87,-1.45,1.45,1.74,1.17,-4.42,-4.42,-4.43
117.55,-5.81,-1.33,-5.82,-1.35,1.35,1.66,1.08,-4.45,-4.46,-4.47
118.73,-5.74,-1.22,-5.76,-1.25,1.25,1.57,1.00,-4.49,-4.50,-4.51
119.92,-5.66,-1.12,-5.69,-1.15,1.15,1.49,0.92,-4.51,-4.54,-4.54
121.12,-5.58,-1.00,-5.63,-1.05,1.05,1.40,0.84,-4.53,-4.58,-4.58
122.33,-5.52,-0.90,-5.56,-0.95,0.95,1.32,0.76,-4.57,-4.61,-4.61
123.55,-5.48,-0.83,-5.49,-0.84,0.84,1.24,0.69,-4.63,-4.65,-4.64
124.79,-5.47,-0.79,-5.43,-0.75,0.75,1.16,0.62,-4.72,-4.68,-4.67
126.03,-5.42,-0.71,-5.37,-0.66,0.66,1.08,0.55,-4.76,-4.71,-4.70
127.29,-5.31,-0.58,-5.31,-0.57,0.57,1.00,0.49,-4.74,-4.74,-4.72
128.57,-5.25,-0.48,-5.25,-0.49,0.49,0.93,0.42,-4.76,-4.77,-4.76
129.85,-5.24,-0.44,-5.20,-0.41,0.41,0.85,0.36,-4.83,-4.79,-4.79
131.15,-5.13,-0.30,-5.15,-0.33,0.33,0.77,0.31,-4.80,-4.82,-4.82
132.46,-5.06,-0.20,-5.11,-0.25,0.25,0.70,0.25,-4.80,-4.85,-4.85
133.79,-5.03,-0.14,-5.06,-0.18,0.18,0.63,0.19,-4.85,-4.88,-4.88
135.12,-5.01,-0.09,-5.01,-0.10,0.10,0.55,0.14,-4.91,-4.91,-4.91
136.48,-4.95,-0.01,-4.95,-0.02,0.02,0.48,0.09,-4.93,-4.93,-4.93
137.84,-4.91,0.07,-4.90,0.07,-0.07,0.41,0.04,-4.98,-4.96,-4.97
139.22,-4.85,0.16,-4.84,0.15,-0.15,0.34,-0.01,-5.00,-4.99,-5.00
140.61,-4.81,0.23,-4.79,0.23,-0.23,0.27,-0.05,-5.04,-5.02,-5.03
142.02,-4.81,0.25,-4.75,0.30,-0.30,0.21,-0.10,-5.11,-5.05,-5.05
143.44,-4.76,0.33,-4.70,0.39,-0.39,0.14,-0.14,-5.14,-5.09,-5.08
144.87,-4.71,0.42,-4.66,0.47,-0.47,0.07,-0.19,-5.18,-5.13,-5.12
146.32,-4.60,0.57,-4.63,0.54,-0.54,0.01,-0.23,-5.14,-5.17,-5.16
147.78,-4.52,0.68,-4.60,0.62,-0.62,-0.05,-0.28,-5.14,-5.22,-5.19
149.26,-4.51,0.74,-4.58,0.70,-0.70,-0.12,-0.32,-5.20,-5.27,-5.24
150.75,-4.51,0.80,-4.56,0.77,-0.77,-0.18,-0.36,-5.28,-5.33,-5.30
152.26,-4.51,0.87,-4.55,0.84,-0.84,-0.24,-0.41,-5.35,-5.39,-5.37
153.78,-4.51,0.94,-4.54,0.91,-0.91,-0.30,-0.45,-5.42,-5.46,-5.44
155.32,-4.51,1.01,-4.54,0.99,-0.99,-0.36,-0.50,-5.50,-5.53,-5.51
156.88,-4.51,1.09,-4.53,1.07,-1.07,-0.42,-0.54,-5.58,-5.60,-5.59
158.44,-4.52,1.16,-4.52,1.15,-1.15,-0.48,-0.59,-5.67,-5.67,-5.67
160.03,-4.59,1.17,-4.51,1.23,-1.23,-0.53,-0.63,-5.82,-5.74,-5.75
161.63,-4.61,1.22,-4.49,1.31,-1.31,-0.59,-0.68,-5.91,-5.80,-5.82
163.24,-4.57,1.32,-4.48,1.38,-1.38,-0.64,-0.73,-5.95,-5.86,-5.88
164.88,-4.52,1.42,-4.46,1.46,-1.46,-0.70,-0.78,-5.98,-5.92,-5.93
166.53,-4.45,1.54,-4.43,1.54,-1.54,-0.75,-0.83,-5.99,-5.97,-5.98
168.19,-4.37,1.66,-4.39,1.62,-1.62,-0.80,-0.88,-5.99,-6.01,-6.02
169.87,-4.33,1.74,-4.34,1.70,-1.70,-0.86,-0.93,-6.03,-6.04,-6.06
171.57,-4.26,1.83,-4.29,1.77,-1.77,-0.91,-0.99,-6.03,-6.07,-6.08
173.29,-4.18,1.92,-4.24,1.84,-1.84,-0.96,-1.04,-6.02,-6.08,-6.09
175.02,-4.15,1.96,-4.19,1.91,-1.91,-1.01,-1.10,-6.05,-6.10,-6.10
176.77,-4.15,1.97,-4.14,1.97,-1.97,-1.06,-1.16,-6.12,-6.11,-6.11
178.54,-4.11,2.02,-4.09,2.03,-2.03,-1.10,-1.22,-6.14,-6.12,-6.12
180.32,-4.06,2.06,-4.04,2.08,-2.08,-1.15,-1.28,-6.14,-6.12,-6.11
182.13,-3.98,2.13,-4.01,2.12,-2.12,-1.20,-1.34,-6.10,-6.13,-6.10
183.95,-3.93,2.19,-3.97,2.16,-2.16,-1.24,-1.40,-6.09,-6.13,-6.11
185.79,-3.92,2.20,-3.94,2.20,-2.20,-1.29,-1.47,-6.12,-6.14,-6.11
187.65,-3.91,2.23,-3.90,2.24,-2.24,-1.33,-1.53,-6.15,-6.15,-6.13
189.52,-3.89,2.26,-3.87,2.29,-2.29,-1.37,-1.60,-6.18,-6.16,-6.14
191.42,-3.88,2.29,-3.84,2.33,-2.33,-1.41,-1.67,-6.21,-6.17,-6.16
193.33,-3.82,2.37,-3.80,2.39,-2.39,-1.45,-1.74,-6.20,-6.18,-6.18
195.27,-3.76,2.45,-3.76,2.44,-2.44,-1.50,-1.81,-6.20,-6.20,-6.20
197.22,-3.73,2.50,-3.72,2.50,-2.50,-1.54,-1.88,-6.23,-6.22,-6.22
199.19,-3.72,2.53,-3.68,2.56,-2.56,-1.57,-1.95,-6.28,-6.24,-6.24
201.18,-3.66,2.61,-3.64,2.62,-2.62,-1.61,-2.03,-6.27,-6.26,-6.26
203.19,-3.61,2.68,-3.61,2.67,-2.67,-1.65,-2.10,-6.28,-6.28,-6.28
205.23,-3.55,2.76,-3.58,2.72,-2.72,-1.69,-2.17,-6.27,-6.30,-6.30
207.28,-3.51,2.81,-3.55,2.78,-2.78,-1.72,-2.25,-6.29,-6.32,-6.31
209.35,-3.51,2.83,-3.51,2.83,-2.83,-1.76,-2.32,-6.34,-6.34,-6.33
211.44,-3.46,2.91,-3.49,2.87,-2.87,-1.79,-2.39,-6.33,-6.36,-6.36
213.56,-3.42,2.96,-3.47,2.91,-2.91,-1.83,-2.47,-6.33,-6.37,-6.37
215.69,-3.42,2.97,-3.44,2.94,-2.94,-1.86,-2.54,-6.36,-6.39,-6.38
217.85,-3.42,2.98,-3.42,2.98,-2.98,-1.89,-2.61,-6.40,-6.40,-6.39
220.03,-3.43,2.98,-3.40,3.01,-3.01,-1.92,-2.68,-6.44,-6.41,-6.40
222.23,-3.43,3.01,-3.37,3.04,-3.04,-1.95,-2.74,-6.47,-6.41,-6.43
224.45,-3.40,3.03,-3.35,3.07,-3.07,-1.98,-2.80,-6.47,-6.42,-6.42
226.70,-3.34,3.09,-3.33,3.09,-3.09,-2.01,-2.86,-6.43,-6.42,-6.42
228.96,-3.32,3.10,-3.30,3.11,-3.11,-2.04,-2.92,-6.43,-6.41,-6.41
231.25,-3.32,3.09,-3.28,3.12,-3.12,-2.07,-2.98,-6.44,-6.40,-6.40
233.57,-3.29,3.11,-3.25,3.14,-3.14,-2.10,-3.03,-6.43,-6.39,-6.39
235.90,-3.19,3.20,-3.23,3.14,-3.14,-2.12,-3.07,-6.33,-6.38,-6.38
238.26,-3.18,3.20,-3.22,3.14,-3.14,-2.15,-3.11,-6.32,-6.36,-6.37
240.64,-3.16,3.19,-3.20,3.14,-3.14,-2.18,-3.15,-6.30,-6.34,-6.34
243.05,-3.15,3.17,-3.18,3.14,-3.14,-2.20,-3.18,-6.29,-6.32,-6.31
245.48,-3.13,3.17,-3.17,3.13,-3.13,-2.22,-3.21,-6.26,-6.30,-6.29
247.93,-3.17,3.10,-3.16,3.11,-3.11,-2.25,-3.23,-6.28,-6.27,-6.26
250.41,-3.18,3.07,-3.16,3.08,-3.08,-2.27,-3.25,-6.26,-6.25,-6.24
252.92,-3.17,3.05,-3.17,3.05,-3.05,-2.29,-3.26,-6.22,-6.23,-6.21
255.45,-3.18,3.02,-3.18,3.02,-3.02,-2.31,-3.27,-6.20,-6.20,-6.19
258.00,-3.22,2.96,-3.20,2.98,-2.98,-2.33,-3.27,-6.20,-6.18,-6.17
260.58,-3.24,2.92,-3.22,2.93,-2.93,-2.35,-3.26,-6.17,-6.15,-6.15
263.19,-3.24,2.89,-3.24,2.88,-2.88,-2.37,-3.26,-6.12,-6.13,-6.12
265.82,-3.24,2.87,-3.26,2.84,-2.84,-2.39,-3.24,-6.08,-6.10,-6.10
268.48,-3.24,2.85,-3.27,2.81,-2.81,-2.41,-3.22,-6.05,-6.08,-6.08
271.16,-3.28,2.78,-3.28,2.77,-2.77,-2.42,-3.20,-6.05,-6.05,-6.05
273.87,-3.35,2.69,-3.29,2.74,-2.74,-2.44,-3.18,-6.09,-6.03,-6.03
276.61,-3.35,2.66,-3.30,2.70,-2.70,-2.45,-3.15,-6.05,-6.00,-6.00
279.38,-3.35,2.63,-3.31,2.67,-2.67,-2.47,-3.12,-6.01,-5.97,-5.97
282.17,-3.35,2.61,-3.32,2.63,-2.63,-2.48,-3.09,-5.97,-5.95,-5.95
284.99,-3.34,2.58,-3.33,2.59,-2.59,-2.49,-3.05,-5.92,-5.92,-5.91
287.84,-3.34,2.56,-3.35,2.54,-2.54,-2.51,-3.01,-5.88,-5.89,-5.89
290.72,-3.32,2.55,-3.37,2.50,-2.50,-2.52,-2.97,-5.81,-5.86,-5.86
293.63,-3.31,2.53,-3.39,2.44,-2.44,-2.53,-2.93,-5.75,-5.83,-5.83
296.57,-3.34,2.47,-3.41,2.40,-2.40,-2.54,-2.89,-5.73,-5.80,-5.80
299.53,-3.42,2.36,-3.43,2.35,-2.35,-2.55,-2.85,-5.77,-5.77,-5.77
302.53,-3.46,2.30,-3.45,2.30,-2.30,-2.55,-2.81,-5.76,-5.75,-5.75
305.55,-3.49,2.23,-3.48,2.25,-2.25,-2.56,-2.77,-5.73,-5.72,-5.71
308.61,-3.55,2.15,-3.51,2.19,-2.19,-2.57,-2.73,-5.73,-5.70,-5.69
311.69,-3.56,2.11,-3.55,2.12,-2.12,-2.57,-2.69,-5.68,-5.67,-5.66
314.81,-3.58,2.07,-3.59,2.06,-2.06,-2.58,-2.65,-5.64,-5.65,-5.64
317.96,-3.64,1.99,-3.62,2.01,-2.01,-2.58,-2.61,-5.64,-5.63,-5.62
321.14,-3.66,1.96,-3.65,1.96,-1.96,-2.59,-2.57,-5.61,-5.61,-5.61
324.35,-3.65,1.95,-3.68,1.91,-1.91,-2.59,-2.53,-5.56,-5.59,-5.59
327.59,-3.65,1.94,-3.70,1.88,-1.88,-2.59,-2.50,-5.53,-5.58,-5.58
330.87,-3.75,1.83,-3.71,1.86,-1.86,-2.59,-2.46,-5.61,-5.57,-5.57
334.18,-3.78,1.78,-3.71,1.84,-1.84,-2.59,-2.43,-5.62,-5.55,-5.55
337.52,-3.78,1.77,-3.71,1.83,-1.83,-2.59,-2.40,-5.61,-5.54,-5.54
340.90,-3.77,1.77,-3.72,1.82,-1.82,-2.59,-2.37,-5.59,-5.54,-5.53
344.30,-3.73,1.80,-3.72,1.81,-1.81,-2.58,-2.34,-5.54,-5.53,-5.52
347.75,-3.68,1.85,-3.71,1.81,-1.81,-2.58,-2.32,-5.49,-5.52,-5.52
351.23,-3.64,1.88,-3.70,1.82,-1.82,-2.57,-2.29,-5.46,-5.52,-5.51
354.74,-3.64,1.89,-3.69,1.83,-1.83,-2.57,-2.27,-5.47,-5.52,-5.52
358.28,-3.65,1.87,-3.68,1.84,-1.84,-2.56,-2.25,-5.49,-5.51,-5.51
361.87,-3.64,1.88,-3.66,1.85,-1.85,-2.55,-2.23,-5.49,-5.51,-5.51
365.49,-3.64,1.87,-3.63,1.88,-1.88,-2.54,-2.21,-5.51,-5.51,-5.50
369.14,-3.63,1.89,-3.60,1.91,-1.91,-2.53,-2.20,-5.53,-5.51,-5.51
372.83,-3.64,1.88,-3.58,1.93,-1.93,-2.52,-2.19,-5.57,-5.51,-5.51
376.56,-3.63,1.90,-3.55,1.96,-1.96,-2.51,-2.18,-5.59,-5.51,-5.52
380.33,-3.52,2.00,-3.54,1.98,-1.98,-2.50,-2.17,-5.50,-5.52,-5.51
384.13,-3.50,2.02,-3.52,2.00,-2.00,-2.49,-2.16,-5.50,-5.52,-5.51
387.97,-3.50,2.03,-3.50,2.02,-2.02,-2.48,-2.15,-5.52,-5.53,-5.52
