frequency,raw,error,smoothed,error_smoothed,equalization,parametric_eq,fixed_band_eq,equalized_raw,equalized_smoothed,target
20.00,14.30,2.35,14.30,2.35,-2.35,-1.98,-0.92,11.96,11.96,11.96
20.20,14.28,2.34,14.28,2.33,-2.33,-1.98,-0.94,11.95,11.95,11.95
20.40,14.26,2.33,14.26,2.32,-2.32,-1.98,-0.97,11.94,11.94,11.94
20.61,14.24,2.31,14.24,2.31,-2.31,-1.98,-1.00,11.93,11.93,11.94
20.81,14.22,2.31,14.22,2.30,-2.30,-1.99,-1.03,11.92,11.92,11.92
21.02,14.20,2.29,14.21,2.29,-2.30,-1.99,-1.06,11.90,11.91,11.92
21.23,14.20,2.30,14.20,2.29,-2.29,-1.99,-1.09,11.91,11.91,11.91
21.44,14.20,2.29,14.20,2.29,-2.29,-1.99,-1.12,11.91,11.91,11.92
21.66,14.20,2.30,14.20,2.30,-2.30,-1.99,-1.16,11.90,11.90,11.91
21.87,14.20,2.31,14.20,2.30,-2.30,-1.99,-1.19,11.90,11.90,11.90
22.09,14.20,2.32,14.20,2.31,-2.31,-1.99,-1.22,11.89,11.89,11.89
22.31,14.20,2.32,14.20,2.32,-2.32,-1.99,-1.26,11.88,11.88,11.89
22.54,14.20,2.33,14.20,2.33,-2.33,-1.99,-1.30,11.87,11.87,11.88
22.76,14.20,2.34,14.20,2.34,-2.34,-1.99,-1.33,11.86,11.86,11.87
22.99,14.20,2.35,14.20,2.34,-2.34,-1.99,-1.37,11.86,11.86,11.86
23.22,14.20,2.36,14.20,2.35,-2.35,-2.00,-1.41,11.85,11.85,11.85
23.45,14.20,2.35,14.20,2.35,-2.35,-2.00,-1.45,11.85,11.85,11.86
23.69,14.20,2.36,14.20,2.35,-2.35,-2.00,-1.49,11.85,11.85,11.85
23.92,14.20,2.36,14.20,2.35,-2.35,-2.00,-1.54,11.85,11.85,11.85
24.16,14.20,2.35,14.20,2.35,-2.35,-2.00,-1.58,11.85,11.85,11.86
24.40,14.20,2.34,14.20,2.34,-2.35,-2.00,-1.62,11.85,11.86,11.87
24.65,14.20,2.34,14.20,2.34,-2.34,-2.00,-1.67,11.86,11.86,11.87
24.89,14.20,2.34,14.20,2.33,-2.33,-2.00,-1.71,11.87,11.86,11.87
25.14,14.19,2.34,14.19,2.33,-2.33,-2.00,-1.76,11.86,11.86,11.86
25.39,14.18,2.33,14.18,2.33,-2.32,-2.00,-1.80,11.86,11.87,11.86
25.65,14.17,2.32,14.17,2.31,-2.31,-2.01,-1.85,11.87,11.87,11.86
25.91,14.16,2.30,14.16,2.30,-2.29,-2.01,-1.89,11.87,11.87,11.87
26.16,14.15,2.28,14.15,2.28,-2.28,-2.01,-1.93,11.87,11.87,11.88
26.43,14.14,2.27,14.14,2.26,-2.27,-2.01,-1.98,11.87,11.87,11.88
26.69,14.13,2.26,14.13,2.25,-2.27,-2.01,-2.02,11.86,11.86,11.88
26.96,14.11,2.25,14.12,2.25,-2.26,-2.01,-2.07,11.85,11.86,11.87
27.23,14.11,2.25,14.12,2.25,-2.26,-2.01,-2.11,11.86,11.86,11.87
27.50,14.12,2.26,14.12,2.25,-2.25,-2.01,-2.15,11.87,11.87,11.87
27.77,14.13,2.26,14.12,2.25,-2.24,-2.02,-2.19,11.89,11.89,11.88
28.05,14.12,2.25,14.12,2.25,-2.23,-2.02,-2.23,11.89,11.89,11.88
28.33,14.09,2.24,14.09,2.23,-2.21,-2.02,-2.26,11.88,11.88,11.86
28.62,14.06,2.21,14.06,2.20,-2.20,-2.02,-2.30,11.87,11.86,11.86
28.90,14.02,2.16,14.03,2.17,-2.17,-2.02,-2.33,11.85,11.85,11.87
29.19,14.00,2.14,14.00,2.14,-2.15,-2.02,-2.36,11.85,11.85,11.87
29.48,13.99,2.14,13.99,2.12,-2.13,-2.02,-2.39,11.86,11.85,11.86
29.78,13.97,2.12,13.97,2.11,-2.11,-2.03,-2.41,11.86,11.86,11.86
30.08,13.96,2.10,13.96,2.10,-2.11,-2.03,-2.43,11.86,11.85,11.87
30.38,13.94,2.09,13.94,2.09,-2.10,-2.03,-2.45,11.84,11.84,11.86
30.68,13.93,2.10,13.93,2.09,-2.11,-2.03,-2.47,11.82,11.82,11.84
30.99,13.92,2.09,13.93,2.09,-2.11,-2.03,-2.48,11.81,11.82,11.84
31.30,13.93,2.11,13.93,2.11,-2.10,-2.03,-2.49,11.83,11.83,11.83
31.61,13.93,2.12,13.94,2.12,-2.09,-2.04,-2.50,11.85,11.85,11.82
31.93,13.94,2.14,13.92,2.12,-2.07,-2.04,-2.50,11.87,11.86,11.81
32.24,13.88,2.07,13.87,2.08,-2.04,-2.04,-2.50,11.84,11.83,11.81
32.57,13.81,2.03,13.81,2.02,-2.02,-2.04,-2.49,11.79,11.79,11.79
32.89,13.73,1.95,13.75,1.96,-2.00,-2.04,-2.49,11.73,11.75,11.79
33.22,13.71,1.93,13.72,1.94,-1.99,-2.04,-2.48,11.72,11.73,11.79
33.55,13.72,1.95,13.71,1.93,-1.97,-2.05,-2.47,11.75,11.74,11.78
33.89,13.72,1.94,13.72,1.94,-1.95,-2.05,-2.45,11.77,11.76,11.79
34.23,13.72,1.96,13.73,1.96,-1.94,-2.05,-2.44,11.78,11.80,11.77
34.57,13.73,1.97,13.74,1.97,-1.92,-2.05,-2.42,11.81,11.82,11.77
34.92,13.74,1.99,13.72,1.96,-1.90,-2.05,-2.40,11.84,11.82,11.76
35.27,13.68,1.92,13.67,1.91,-1.89,-2.05,-2.37,11.79,11.78,11.77
35.62,13.60,1.86,13.60,1.85,-1.87,-2.06,-2.35,11.73,11.74,11.75
35.97,13.52,1.78,13.54,1.80,-1.85,-2.06,-2.33,11.67,11.69,11.75
36.33,13.52,1.80,13.52,1.79,-1.84,-2.06,-2.30,11.68,11.68,11.73
36.70,13.52,1.81,13.52,1.80,-1.83,-2.06,-2.27,11.69,11.69,11.72
37.06,13.53,1.84,13.53,1.83,-1.83,-2.06,-2.25,11.70,11.70,11.70
37.43,13.53,1.86,13.53,1.86,-1.84,-2.07,-2.22,11.69,11.69,11.68
37.81,13.53,1.88,13.53,1.87,-1.85,-2.07,-2.20,11.68,11.68,11.66
38.19,13.51,1.89,13.51,1.88,-1.86,-2.07,-2.17,11.65,11.64,11.63
38.57,13.48,1.88,13.48,1.88,-1.87,-2.07,-2.14,11.61,11.61,11.61
38.95,13.44,1.87,13.45,1.87,-1.87,-2.07,-2.12,11.57,11.58,11.57
39.34,13.41,1.88,13.41,1.87,-1.86,-2.08,-2.09,11.55,11.55,11.54
39.74,13.37,1.86,13.37,1.85,-1.85,-2.08,-2.07,11.52,11.52,11.52
40.14,13.32,1.84,13.32,1.84,-1.84,-2.08,-2.05,11.48,11.49,11.49
40.54,13.28,1.82,13.28,1.81,-1.83,-2.08,-2.02,11.45,11.45,11.47
40.94,13.23,1.80,13.24,1.80,-1.82,-2.08,-2.00,11.41,11.42,11.44
41.35,13.21,1.80,13.21,1.80,-1.82,-2.09,-1.98,11.39,11.39,11.42
41.76,13.20,1.83,13.19,1.81,-1.82,-2.09,-1.96,11.38,11.37,11.38
42.18,13.18,1.83,13.19,1.83,-1.82,-2.09,-1.95,11.36,11.37,11.36
42.60,13.17,1.84,13.17,1.84,-1.82,-2.09,-1.93,11.35,11.35,11.34
43.03,13.15,1.85,13.14,1.83,-1.82,-2.09,-1.92,11.33,11.32,11.31
43.46,13.10,1.83,13.11,1.83,-1.81,-2.10,-1.90,11.29,11.29,11.28
43.90,13.06,1.81,13.06,1.82,-1.81,-2.10,-1.89,11.25,11.25,11.26
44.33,13.02,1.81,13.02,1.80,-1.81,-2.10,-1.88,11.21,11.21,11.22
44.78,12.98,1.80,12.98,1.79,-1.81,-2.10,-1.87,11.17,11.17,11.19
45.23,12.94,1.77,12.94,1.78,-1.81,-2.11,-1.87,11.13,11.13,11.18
45.68,12.91,1.79,12.91,1.78,-1.80,-2.11,-1.86,11.11,11.11,11.13
46.13,12.89,1.81,12.91,1.82,-1.80,-2.11,-1.86,11.09,11.11,11.09
46.60,12.90,1.84,12.90,1.84,-1.80,-2.11,-1.85,11.10,11.09,11.06
47.06,12.89,1.88,12.86,1.84,-1.81,-2.11,-1.85,11.08,11.04,11.02
47.53,12.80,1.82,12.80,1.83,-1.83,-2.12,-1.85,10.97,10.98,10.99
48.01,12.71,1.79,12.73,1.81,-1.84,-2.12,-1.85,10.87,10.89,10.93
48.49,12.69,1.82,12.68,1.80,-1.85,-2.12,-1.85,10.84,10.83,10.88
48.97,12.66,1.83,12.68,1.85,-1.86,-2.12,-1.86,10.80,10.82,10.84
49.46,12.68,1.89,12.69,1.91,-1.87,-2.13,-1.86,10.81,10.82,10.80
49.96,12.71,1.98,12.65,1.91,-1.88,-2.13,-1.87,10.83,10.77,10.73
50.46,12.59,1.91,12.58,1.89,-1.88,-2.13,-1.87,10.71,10.70,10.69
50.96,12.45,1.81,12.53,1.88,-1.88,-2.13,-1.88,10.57,10.65,10.65
51.47,12.47,1.87,12.48,1.88,-1.88,-2.13,-1.89,10.59,10.60,10.61
51.99,12.51,1.95,12.43,1.87,-1.88,-2.14,-1.90,10.63,10.56,10.56
52.51,12.38,1.87,12.38,1.86,-1.87,-2.14,-1.91,10.51,10.51,10.52
53.03,12.25,1.77,12.32,1.84,-1.86,-2.14,-1.92,10.39,10.45,10.49
53.56,12.27,1.85,12.26,1.83,-1.86,-2.14,-1.93,10.41,10.40,10.43
54.10,12.28,1.90,12.25,1.87,-1.87,-2.15,-1.94,10.41,10.38,10.38
54.64,12.24,1.91,12.24,1.91,-1.88,-2.15,-1.95,10.36,10.35,10.34
55.18,12.19,1.92,12.19,1.91,-1.90,-2.15,-1.96,10.29,10.29,10.28
55.74,12.12,1.90,12.14,1.90,-1.91,-2.15,-1.97,10.21,10.23,10.23
56.29,12.09,1.90,12.10,1.91,-1.92,-2.15,-1.98,10.17,10.18,10.20
56.86,12.09,1.93,12.08,1.93,-1.93,-2.16,-2.00,10.16,10.15,10.16
57.42,12.06,1.97,12.06,1.95,-1.94,-2.16,-2.00,10.12,10.12,10.10
58.00,12.03,1.97,12.02,1.96,-1.95,-2.16,-2.01,10.08,10.08,10.07
58.58,11.97,1.94,11.97,1.94,-1.95,-2.16,-2.02,10.02,10.02,10.04
59.16,11.92,1.93,11.93,1.94,-1.95,-2.16,-2.03,9.97,9.98,10.00
59.76,11.90,1.95,11.90,1.95,-1.95,-2.16,-2.04,9.95,9.95,9.96
60.35,11.87,1.99,11.86,1.97,-1.94,-2.17,-2.04,9.93,9.92,9.89
60.96,11.81,1.98,11.80,1.97,-1.94,-2.17,-2.05,9.87,9.85,9.84
61.57,11.71,1.95,11.71,1.95,-1.95,-2.17,-2.05,9.76,9.76,9.77
62.18,11.61,1.92,11.63,1.93,-1.96,-2.17,-2.05,9.65,9.67,9.70
62.80,11.56,1.93,11.56,1.93,-1.97,-2.17,-2.06,9.59,9.59,9.64
63.43,11.53,1.96,11.53,1.95,-1.98,-2.17,-2.06,9.55,9.55,9.58
64.07,11.52,2.00,11.52,2.00,-1.98,-2.18,-2.05,9.54,9.54,9.53
64.71,11.51,2.05,11.51,2.05,-1.99,-2.18,-2.05,9.52,9.52,9.47
65.35,11.48,2.08,11.47,2.06,-2.01,-2.18,-2.05,9.47,9.46,9.41
66.01,11.42,2.08,11.39,2.04,-2.03,-2.18,-2.04,9.39,9.35,9.35
66.67,11.27,1.97,11.30,2.00,-2.05,-2.18,-2.04,9.22,9.24,9.31
67.33,11.20,1.98,11.24,2.01,-2.07,-2.18,-2.03,9.13,9.17,9.23
68.01,11.23,2.06,11.23,2.05,-2.08,-2.18,-2.03,9.15,9.15,9.18
68.69,11.26,2.15,11.24,2.13,-2.09,-2.18,-2.02,9.17,9.15,9.11
69.37,11.23,2.18,11.21,2.15,-2.11,-2.19,-2.01,9.12,9.10,9.05
70.07,11.13,2.15,11.13,2.14,-2.13,-2.19,-2.00,9.00,9.00,8.99
70.77,11.02,2.10,11.06,2.14,-2.15,-2.19,-1.99,8.87,8.91,8.93
71.48,11.00,2.15,10.99,2.14,-2.17,-2.19,-1.98,8.83,8.83,8.86
72.19,10.99,2.21,10.96,2.17,-2.18,-2.19,-1.98,8.81,8.78,8.79
72.91,10.89,2.17,10.94,2.22,-2.18,-2.19,-1.97,8.71,8.76,8.73
73.64,10.90,2.25,10.86,2.21,-2.18,-2.19,-1.96,8.72,8.68,8.66
74.38,10.81,2.22,10.77,2.18,-2.19,-2.19,-1.95,8.62,8.58,8.60
75.12,10.64,2.12,10.71,2.18,-2.21,-2.19,-1.94,8.43,8.50,8.53
75.87,10.65,2.17,10.66,2.18,-2.21,-2.19,-1.94,8.44,8.44,8.49
76.63,10.66,2.25,10.64,2.22,-2.22,-2.19,-1.93,8.44,8.42,8.42
77.40,10.64,2.28,10.61,2.25,-2.22,-2.19,-1.93,8.42,8.39,8.37
78.17,10.56,2.26,10.57,2.25,-2.22,-2.20,-1.92,8.34,8.34,8.31
78.95,10.45,2.19,10.50,2.24,-2.23,-2.20,-1.92,8.22,8.27,8.27
79.74,10.48,2.27,10.42,2.22,-2.24,-2.20,-1.92,8.24,8.18,8.21
80.54,10.36,2.22,10.35,2.20,-2.23,-2.20,-1.92,8.13,8.12,8.15
81.35,10.26,2.17,10.34,2.25,-2.23,-2.20,-1.92,8.03,8.11,8.10
82.16,10.30,2.26,10.28,2.24,-2.23,-2.20,-1.92,8.07,8.06,8.05
82.98,10.33,2.34,10.22,2.23,-2.23,-2.20,-1.92,8.10,7.99,7.99
83.81,10.08,2.16,10.15,2.23,-2.24,-2.20,-1.93,7.85,7.92,7.93
84.65,10.03,2.17,10.09,2.23,-2.25,-2.20,-1.93,7.78,7.84,7.87
85.50,10.08,2.28,10.04,2.24,-2.26,-2.20,-1.94,7.82,7.78,7.80
86.35,10.07,2.34,10.01,2.27,-2.27,-2.20,-1.95,7.80,7.74,7.74
87.22,9.94,2.26,9.98,2.30,-2.28,-2.20,-1.96,7.66,7.70,7.69
88.09,9.86,2.25,9.92,2.30,-2.29,-2.20,-1.98,7.57,7.63,7.62
88.97,9.94,2.38,9.86,2.30,-2.30,-2.21,-1.99,7.64,7.56,7.57
89.86,9.79,2.31,9.82,2.33,-2.30,-2.21,-2.00,7.49,7.52,7.49
90.76,9.72,2.30,9.75,2.32,-2.30,-2.21,-2.02,7.42,7.45,7.43
91.66,9.69,2.33,9.64,2.29,-2.30,-2.21,-2.04,7.39,7.34,7.36
92.58,9.56,2.27,9.58,2.29,-2.30,-2.21,-2.06,7.26,7.28,7.30
93.51,9.49,2.27,9.52,2.29,-2.31,-2.21,-2.08,7.18,7.21,7.23
94.44,9.48,2.33,9.45,2.30,-2.32,-2.22,-2.10,7.16,7.13,7.16
95.39,9.40,2.33,9.40,2.32,-2.33,-2.22,-2.13,7.07,7.07,7.08
96.34,9.33,2.34,9.35,2.35,-2.35,-2.22,-2.15,6.98,7.00,7.00
97.30,9.29,2.38,9.28,2.37,-2.37,-2.22,-2.18,6.92,6.91,6.92
98.28,9.23,2.41,9.22,2.40,-2.39,-2.22,-2.21,6.84,6.83,6.83
99.26,9.16,2.43,9.16,2.42,-2.41,-2.23,-2.23,6.75,6.75,6.74
100.25,9.08,2.43,9.09,2.43,-2.43,-2.23,-2.26,6.65,6.67,6.66
101.25,9.04,2.46,9.02,2.44,-2.44,-2.23,-2.29,6.60,6.58,6.59
102.27,8.93,2.44,8.95,2.45,-2.45,-2.24,-2.33,6.48,6.50,6.50
103.29,8.87,2.46,8.87,2.45,-2.45,-2.24,-2.36,6.42,6.42,6.42
104.32,8.79,2.45,8.78,2.44,-2.45,-2.25,-2.39,6.34,6.33,6.35
105.37,8.70,2.44,8.70,2.45,-2.45,-2.25,-2.42,6.25,6.26,6.27
106.42,8.62,2.45,8.62,2.44,-2.44,-2.25,-2.45,6.18,6.18,6.18
107.48,8.53,2.45,8.54,2.44,-2.43,-2.26,-2.48,6.10,6.11,6.09
108.56,8.46,2.44,8.45,2.43,-2.42,-2.26,-2.51,6.04,6.03,6.03
109.64,8.36,2.43,8.35,2.41,-2.40,-2.27,-2.54,5.96,5.94,5.94
110.74,8.23,2.38,8.25,2.39,-2.40,-2.28,-2.57,5.83,5.85,5.86
111.85,8.16,2.38,8.16,2.37,-2.39,-2.28,-2.60,5.77,5.77,5.79
112.97,8.08,2.37,8.08,2.37,-2.39,-2.29,-2.63,5.69,5.69,5.72
114.10,8.03,2.39,8.03,2.39,-2.40,-2.30,-2.65,5.63,5.63,5.65
115.24,7.97,2.41,7.97,2.40,-2.41,-2.30,-2.68,5.56,5.56,5.57
116.39,7.92,2.44,7.92,2.43,-2.43,-2.31,-2.70,5.49,5.49,5.49
117.55,7.87,2.45,7.88,2.46,-2.45,-2.32,-2.72,5.42,5.43,5.43
118.73,7.82,2.48,7.83,2.48,-2.46,-2.33,-2.73,5.36,5.37,5.35
119.92,7.81,2.53,7.78,2.50,-2.48,-2.33,-2.75,5.33,5.30,5.29
121.12,7.72,2.49,7.73,2.50,-2.49,-2.34,-2.76,5.23,5.24,5.24
122.33,7.66,2.50,7.67,2.49,-2.50,-2.35,-2.77,5.16,5.17,5.17
123.55,7.60,2.49,7.60,2.49,-2.50,-2.36,-2.77,5.10,5.10,5.12
124.79,7.55,2.50,7.55,2.50,-2.50,-2.37,-2.77,5.05,5.05,5.06
126.03,7.49,2.51,7.49,2.50,-2.50,-2.38,-2.77,4.99,4.99,4.99
127.29,7.43,2.51,7.42,2.50,-2.50,-2.39,-2.77,4.94,4.93,4.93
128.57,7.34,2.48,7.35,2.49,-2.50,-2.40,-2.76,4.84,4.85,4.87
129.85,7.29,2.50,7.29,2.49,-2.50,-2.41,-2.75,4.79,4.79,4.80
131.15,7.22,2.49,7.23,2.49,-2.50,-2.42,-2.74,4.72,4.72,4.74
132.46,7.19,2.52,7.18,2.51,-2.50,-2.43,-2.72,4.69,4.68,4.68
133.79,7.12,2.51,7.14,2.52,-2.51,-2.44,-2.71,4.62,4.63,4.62
135.12,7.10,2.55,7.08,2.52,-2.51,-2.44,-2.69,4.59,4.57,4.56
136.48,7.02,2.51,7.02,2.51,-2.51,-2.45,-2.67,4.51,4.50,4.52
137.84,6.94,2.49,6.95,2.50,-2.51,-2.46,-2.64,4.43,4.44,4.46
139.22,6.88,2.51,6.89,2.49,-2.51,-2.47,-2.62,4.37,4.37,4.38
140.61,6.84,2.51,6.84,2.51,-2.50,-2.48,-2.59,4.34,4.34,4.34
142.02,6.78,2.51,6.78,2.51,-2.49,-2.49,-2.56,4.29,4.29,4.28
143.44,6.73,2.53,6.71,2.50,-2.48,-2.50,-2.53,4.25,4.23,4.21
144.87,6.61,2.46,6.63,2.47,-2.47,-2.51,-2.50,4.14,4.16,4.16
146.32,6.55,2.45,6.55,2.45,-2.46,-2.51,-2.47,4.09,4.09,4.11
147.78,6.47,2.43,6.47,2.43,-2.45,-2.52,-2.44,4.02,4.03,4.05
149.26,6.42,2.43,6.42,2.43,-2.44,-2.53,-2.41,3.98,3.98,4.00
150.75,6.36,2.44,6.36,2.43,-2.43,-2.53,-2.38,3.93,3.93,3.93
152.26,6.30,2.42,6.30,2.42,-2.43,-2.54,-2.35,3.87,3.88,3.89
153.78,6.26,2.44,6.25,2.43,-2.43,-2.54,-2.32,3.83,3.83,3.83
155.32,6.19,2.42,6.21,2.44,-2.43,-2.55,-2.29,3.76,3.78,3.78
156.88,6.17,2.46,6.16,2.44,-2.44,-2.55,-2.26,3.73,3.72,3.72
158.44,6.11,2.46,6.10,2.44,-2.44,-2.55,-2.24,3.67,3.66,3.66
160.03,6.02,2.43,6.04,2.44,-2.44,-2.56,-2.21,3.58,3.60,3.60
161.63,5.97,2.44,5.96,2.43,-2.44,-2.56,-2.19,3.53,3.53,3.54
163.24,5.90,2.44,5.91,2.44,-2.43,-2.56,-2.16,3.47,3.48,3.47
164.88,5.84,2.43,5.85,2.44,-2.42,-2.55,-2.14,3.42,3.43,3.42
166.53,5.79,2.45,5.77,2.42,-2.40,-2.55,-2.12,3.39,3.36,3.35
168.19,5.68,2.39,5.68,2.39,-2.39,-2.55,-2.10,3.29,3.29,3.30
169.87,5.58,2.35,5.60,2.37,-2.37,-2.54,-2.08,3.21,3.22,3.24
171.57,5.51,2.35,5.51,2.34,-2.36,-2.53,-2.07,3.15,3.15,3.17
173.29,5.46,2.36,5.45,2.34,-2.35,-2.53,-2.05,3.11,3.10,3.11
175.02,5.39,2.34,5.39,2.34,-2.34,-2.52,-2.04,3.05,3.05,3.06
176.77,5.34,2.34,5.34,2.34,-2.34,-2.51,-2.03,3.00,2.99,3.01
178.54,5.28,2.34,5.28,2.33,-2.35,-2.50,-2.02,2.93,2.93,2.95
180.32,5.23,2.35,5.24,2.35,-2.35,-2.48,-2.01,2.88,2.89,2.89
182.13,5.19,2.35,5.21,2.37,-2.35,-2.47,-2.00,2.84,2.85,2.85
183.95,5.19,2.40,5.16,2.36,-2.35,-2.46,-2.00,2.84,2.81,2.80
185.79,5.11,2.37,5.11,2.36,-2.34,-2.44,-1.99,2.77,2.77,2.75
187.65,5.01,2.31,5.06,2.35,-2.33,-2.42,-1.99,2.69,2.73,2.71
189.52,5.01,2.36,4.97,2.31,-2.31,-2.40,-1.99,2.70,2.66,2.66
191.42,4.92,2.30,4.89,2.27,-2.30,-2.38,-1.99,2.62,2.60,2.63
193.33,4.77,2.20,4.84,2.26,-2.28,-2.36,-2.00,2.49,2.55,2.58
195.27,4.78,2.26,4.76,2.23,-2.27,-2.33,-2.00,2.51,2.49,2.53
197.22,4.75,2.28,4.72,2.24,-2.25,-2.31,-2.00,2.50,2.46,2.48
199.19,4.65,2.21,4.70,2.26,-2.23,-2.28,-2.01,2.42,2.47,2.45
201.18,4.65,2.26,4.64,2.24,-2.21,-2.25,-2.01,2.44,2.43,2.40
203.19,4.62,2.26,4.58,2.22,-2.19,-2.23,-2.02,2.43,2.39,2.37
205.23,4.49,2.17,4.52,2.19,-2.17,-2.20,-2.03,2.32,2.35,2.33
207.28,4.43,2.14,4.42,2.13,-2.15,-2.17,-2.04,2.28,2.27,2.30
209.35,4.35,2.10,4.33,2.08,-2.12,-2.13,-2.04,2.23,2.21,2.26
211.44,4.23,2.03,4.29,2.08,-2.09,-2.10,-2.05,2.14,2.21,2.21
213.56,4.25,2.08,4.23,2.05,-2.06,-2.07,-2.06,2.19,2.17,2.18
215.69,4.24,2.10,4.17,2.04,-2.03,-2.03,-2.07,2.21,2.14,2.14
217.85,4.04,1.94,4.12,2.02,-2.00,-1.99,-2.07,2.04,2.12,2.11
220.03,4.05,2.00,4.04,1.97,-1.98,-1.96,-2.08,2.07,2.06,2.06
222.23,4.00,1.97,3.97,1.94,-1.95,-1.92,-2.08,2.05,2.02,2.04
224.45,3.92,1.92,3.95,1.95,-1.93,-1.88,-2.09,1.99,2.02,2.01
226.70,3.88,1.91,3.88,1.90,-1.90,-1.84,-2.09,1.98,1.98,1.98
228.96,3.86,1.91,3.80,1.84,-1.86,-1.80,-2.09,2.00,1.94,1.96
231.25,3.69,1.75,3.76,1.82,-1.82,-1.76,-2.09,1.87,1.94,1.95
233.57,3.69,1.78,3.72,1.80,-1.78,-1.72,-2.08,1.91,1.94,1.92
235.90,3.74,1.84,3.66,1.75,-1.74,-1.68,-2.07,2.00,1.92,1.91
238.26,3.60,1.72,3.61,1.71,-1.69,-1.63,-2.06,1.91,1.92,1.89
240.64,3.48,1.59,3.52,1.63,-1.64,-1.59,-2.05,1.84,1.88,1.90
243.05,3.45,1.57,3.44,1.56,-1.60,-1.55,-2.04,1.85,1.84,1.89
245.48,3.40,1.54,3.40,1.53,-1.56,-1.50,-2.02,1.84,1.85,1.87
247.93,3.39,1.54,3.38,1.51,-1.52,-1.46,-2.00,1.87,1.86,1.86
250.41,3.33,1.47,3.34,1.48,-1.48,-1.41,-1.97,1.85,1.86,1.87
252.92,3.30,1.44,3.30,1.44,-1.44,-1.37,-1.94,1.86,1.85,1.87
255.45,3.26,1.42,3.26,1.41,-1.40,-1.32,-1.91,1.86,1.86,1.85
258.00,3.21,1.38,3.24,1.40,-1.37,-1.27,-1.87,1.84,1.87,1.84
260.58,3.21,1.39,3.17,1.34,-1.33,-1.23,-1.83,1.88,1.84,1.83
263.19,3.11,1.30,3.09,1.28,-1.28,-1.18,-1.79,1.83,1.81,1.82
265.82,2.95,1.16,3.03,1.23,-1.23,-1.14,-1.75,1.72,1.81,1.80
268.48,2.98,1.19,2.95,1.16,-1.18,-1.09,-1.70,1.80,1.78,1.80
271.16,2.95,1.18,2.89,1.11,-1.13,-1.04,-1.65,1.82,1.76,1.78
273.87,2.79,1.03,2.84,1.08,-1.08,-0.99,-1.60,1.71,1.76,1.77
276.61,2.75,1.01,2.76,1.02,-1.04,-0.95,-1.54,1.71,1.73,1.75
279.38,2.73,1.02,2.70,0.98,-0.99,-0.90,-1.48,1.74,1.71,1.72
282.17,2.67,0.96,2.69,0.98,-0.95,-0.85,-1.42,1.72,1.75,1.72
284.99,2.63,0.92,2.64,0.93,-0.90,-0.81,-1.36,1.73,1.74,1.72
287.84,2.64,0.93,2.57,0.86,-0.85,-0.76,-1.29,1.79,1.72,1.72
290.72,2.45,0.76,2.51,0.80,-0.80,-0.71,-1.23,1.65,1.70,1.70
293.63,2.43,0.73,2.45,0.74,-0.76,-0.66,-1.16,1.67,1.69,1.71
296.57,2.41,0.71,2.39,0.69,-0.71,-0.61,-1.09,1.70,1.68,1.71
299.53,2.37,0.68,2.36,0.66,-0.66,-0.57,-1.02,1.71,1.70,1.70
302.53,2.30,0.60,2.31,0.61,-0.62,-0.52,-0.95,1.69,1.69,1.71
305.55,2.26,0.57,2.26,0.57,-0.57,-0.47,-0.88,1.69,1.70,1.70
308.61,2.21,0.51,2.23,0.53,-0.52,-0.42,-0.81,1.69,1.71,1.71
311.69,2.21,0.53,2.19,0.49,-0.47,-0.38,-0.74,1.74,1.72,1.69
314.81,2.13,0.44,2.12,0.43,-0.41,-0.33,-0.66,1.72,1.71,1.70
317.96,2.04,0.37,2.05,0.37,-0.36,-0.28,-0.59,1.69,1.69,1.68
321.14,1.95,0.27,1.97,0.29,-0.30,-0.23,-0.52,1.66,1.67,1.69
324.35,1.91,0.24,1.90,0.22,-0.24,-0.19,-0.44,1.67,1.66,1.68
327.59,1.84,0.16,1.84,0.16,-0.18,-0.14,-0.37,1.66,1.66,1.69
330.87,1.77,0.10,1.78,0.11,-0.12,-0.09,-0.29,1.65,1.66,1.68
334.18,1.74,0.08,1.72,0.05,-0.05,-0.04,-0.22,1.69,1.66,1.67
337.52,1.65,-0.02,1.68,0.01,0.00,0.01,-0.14,1.66,1.68,1.68
340.90,1.63,-0.03,1.64,-0.04,0.06,0.05,-0.07,1.69,1.70,1.67
344.30,1.61,-0.06,1.57,-0.10,0.11,0.10,0.01,1.72,1.69,1.68
347.75,1.50,-0.18,1.51,-0.17,0.17,0.15,0.08,1.67,1.67,1.69
351.23,1.41,-0.25,1.43,-0.25,0.22,0.20,0.16,1.63,1.65,1.67
354.74,1.36,-0.32,1.38,-0.30,0.28,0.25,0.23,1.64,1.66,1.69
358.28,1.35,-0.33,1.35,-0.34,0.34,0.29,0.31,1.69,1.69,1.69
361.87,1.35,-0.33,1.31,-0.38,0.41,0.34,0.39,1.76,1.72,1.69
365.49,1.23,-0.46,1.26,-0.44,0.47,0.39,0.46,1.70,1.73,1.70
369.14,1.18,-0.52,1.18,-0.52,0.53,0.44,0.54,1.71,1.71,1.71
372.83,1.13,-0.58,1.10,-0.61,0.58,0.49,0.62,1.71,1.68,1.72
376.56,1.02,-0.68,1.06,-0.65,0.63,0.53,0.69,1.65,1.69,1.71
380.33,1.01,-0.69,1.01,-0.70,0.68,0.58,0.77,1.69,1.69,1.71
384.13,0.99,-0.72,0.97,-0.74,0.73,0.63,0.85,1.72,1.70,1.72
387.97,0.94,-0.77,0.95,-0.76,0.77,0.68,0.92,1.71,1.72,1.72
391.85,0.91,-0.79,0.91,-0.80,0.81,0.73,1.00,1.72,1.72,1.71
395.77,0.85,-0.84,0.86,-0.84,0.85,0.78,1.08,1.70,1.72,1.70
399.73,0.83,-0.86,0.82,-0.88,0.89,0.83,1.15,1.73,1.72,1.70
403.72,0.76,-0.94,0.76,-0.93,0.94,0.88,1.23,1.70,1.70,1.71
407.76,0.71,-0.97,0.69,-1.00,0.99,0.93,1.30,1.70,1.68,1.69
411.84,0.60,-1.07,0.61,-1.06,1.05,0.98,1.38,1.65,1.66,1.68
415.96,0.54,-1.13,0.57,-1.10,1.10,1.03,1.45,1.65,1.67,1.68
420.12,0.53,-1.13,0.52,-1.15,1.16,1.08,1.53,1.69,1.68,1.67
424.32,0.51,-1.16,0.48,-1.20,1.22,1.13,1.60,1.73,1.70,1.68
428.56,0.41,-1.28,0.42,-1.27,1.27,1.18,1.67,1.68,1.69,1.70
432.85,0.36,-1.35,0.36,-1.35,1.32,1.23,1.74,1.68,1.68,1.72
437.18,0.32,-1.40,0.34,-1.39,1.36,1.28,1.81,1.68,1.70,1.73
441.55,0.34,-1.41,0.35,-1.41,1.41,1.33,1.88,1.75,1.75,1.76
445.96,0.38,-1.41,0.35,-1.44,1.45,1.38,1.95,1.83,1.80,1.80
450.42,0.36,-1.47,0.35,-1.49,1.49,1.43,2.01,1.85,1.84,1.84
454.93,0.32,-1.56,0.36,-1.53,1.54,1.48,2.08,1.86,1.90,1.89
459.48,0.36,-1.58,0.37,-1.58,1.59,1.53,2.13,1.95,1.96,1.95
464.07,0.42,-1.59,0.38,-1.63,1.65,1.59,2.19,2.07,2.03,2.02
468.71,0.37,-1.69,0.39,-1.68,1.71,1.64,2.25,2.08,2.09,2.07
473.40,0.36,-1.76,0.36,-1.77,1.77,1.69,2.30,2.13,2.13,2.13
478.13,0.33,-1.85,0.32,-1.86,1.84,1.74,2.35,2.17,2.16,2.19
482.91,0.28,-1.95,0.31,-1.92,1.90,1.80,2.39,2.18,2.21,2.24
487.74,0.30,-1.96,0.30,-1.97,1.96,1.85,2.44,2.26,2.26,2.27
492.62,0.30,-2.00,0.29,-2.02,2.02,1.90,2.48,2.32,2.31,2.31
497.55,0.28,-2.06,0.27,-2.07,2.07,1.96,2.51,2.35,2.34,2.35
