frequency,raw,error,smoothed,error_smoothed,equalization,parametric_eq,fixed_band_eq,equalized_raw,equalized_smoothed,target
20.00,1.92,-7.46,1.92,-7.46,7.46,7.60,2.60,9.38,9.38,9.38
20.20,1.96,-7.41,1.96,-7.40,7.40,7.55,2.68,9.36,9.37,9.37
20.40,2.01,-7.35,2.01,-7.35,7.35,7.49,2.75,9.36,9.36,9.36
20.61,2.05,-7.30,2.05,-7.30,7.30,7.44,2.83,9.35,9.34,9.35
20.81,2.09,-7.24,2.09,-7.24,7.24,7.39,2.91,9.33,9.33,9.33
21.02,2.13,-7.19,2.13,-7.19,7.19,7.33,3.00,9.32,9.32,9.32
21.23,2.18,-7.13,2.18,-7.14,7.14,7.28,3.08,9.32,9.31,9.31
21.44,2.22,-7.10,2.22,-7.09,7.09,7.23,3.17,9.31,9.31,9.32
21.66,2.26,-7.04,2.26,-7.04,7.03,7.18,3.26,9.29,9.30,9.30
21.87,2.31,-6.99,2.31,-6.99,6.98,7.12,3.36,9.29,9.29,9.30
22.09,2.35,-6.93,2.35,-6.93,6.93,7.07,3.46,9.28,9.28,9.28
22.31,2.39,-6.88,2.39,-6.88,6.88,7.02,3.56,9.27,9.27,9.27
22.54,2.43,-6.83,2.43,-6.83,6.83,6.97,3.66,9.26,9.26,9.26
22.76,2.48,-6.78,2.48,-6.78,6.78,6.91,3.76,9.26,9.26,9.26
22.99,2.52,-6.73,2.52,-6.73,6.73,6.86,3.87,9.25,9.25,9.25
23.22,2.56,-6.68,2.56,-6.69,6.68,6.81,3.98,9.24,9.24,9.24
23.45,2.60,-6.65,2.60,-6.64,6.64,6.76,4.09,9.24,9.24,9.25
23.69,2.64,-6.60,2.64,-6.59,6.59,6.71,4.21,9.23,9.24,9.24
23.92,2.69,-6.54,2.69,-6.55,6.55,6.65,4.32,9.24,9.24,9.23
24.16,2.73,-6.51,2.73,-6.50,6.51,6.60,4.44,9.24,9.23,9.24
24.40,2.77,-6.47,2.77,-6.46,6.46,6.55,4.56,9.23,9.23,9.24
24.65,2.81,-6.42,2.81,-6.42,6.42,6.50,4.69,9.23,9.23,9.23
24.89,2.85,-6.38,2.85,-6.37,6.37,6.45,4.81,9.22,9.22,9.23
25.14,2.89,-6.33,2.89,-6.33,6.33,6.40,4.94,9.22,9.22,9.22
25.39,2.94,-6.28,2.94,-6.28,6.28,6.34,5.06,9.23,9.22,9.22
25.65,2.98,-6.24,2.98,-6.24,6.24,6.29,5.19,9.22,9.22,9.22
25.91,3.02,-6.20,3.02,-6.20,6.20,6.24,5.32,9.22,9.22,9.22
26.16,3.07,-6.16,3.06,-6.16,6.16,6.19,5.44,9.23,9.22,9.23
26.43,3.10,-6.12,3.10,-6.12,6.12,6.14,5.57,9.21,9.22,9.22
26.69,3.14,-6.08,3.14,-6.08,6.07,6.09,5.70,9.21,9.21,9.22
26.96,3.18,-6.04,3.18,-6.04,6.03,6.04,5.82,9.21,9.21,9.22
27.23,3.22,-6.00,3.22,-6.00,5.99,5.99,5.94,9.21,9.22,9.22
27.50,3.27,-5.95,3.27,-5.95,5.96,5.94,6.06,9.23,9.22,9.22
27.77,3.31,-5.92,3.31,-5.91,5.92,5.89,6.17,9.23,9.23,9.23
28.05,3.35,-5.87,3.35,-5.88,5.88,5.84,6.28,9.23,9.23,9.22
28.33,3.38,-5.85,3.38,-5.84,5.84,5.79,6.38,9.22,9.23,9.23
28.62,3.42,-5.81,3.42,-5.81,5.81,5.74,6.48,9.23,9.23,9.23
28.90,3.46,-5.78,3.46,-5.78,5.77,5.69,6.57,9.23,9.23,9.24
29.19,3.50,-5.74,3.50,-5.74,5.73,5.65,6.66,9.23,9.23,9.24
29.48,3.53,-5.70,3.53,-5.70,5.69,5.60,6.73,9.22,9.23,9.23
29.78,3.57,-5.66,3.57,-5.66,5.65,5.55,6.79,9.22,9.23,9.23
30.08,3.61,-5.62,3.61,-5.61,5.61,5.50,6.84,9.22,9.22,9.23
30.38,3.65,-5.56,3.65,-5.57,5.57,5.45,6.89,9.22,9.22,9.21
30.68,3.68,-5.53,3.68,-5.53,5.53,5.41,6.92,9.21,9.22,9.21
30.99,3.72,-5.49,3.72,-5.49,5.49,5.36,6.94,9.21,9.21,9.21
31.30,3.75,-5.46,3.75,-5.45,5.45,5.31,6.95,9.20,9.20,9.21
31.61,3.78,-5.42,3.78,-5.42,5.41,5.27,6.95,9.19,9.19,9.20
31.93,3.81,-5.37,3.81,-5.38,5.37,5.22,6.93,9.18,9.18,9.18
32.24,3.84,-5.35,3.84,-5.34,5.34,5.17,6.90,9.18,9.18,9.19
32.57,3.88,-5.29,3.88,-5.30,5.30,5.13,6.86,9.18,9.17,9.17
32.89,3.91,-5.26,3.91,-5.26,5.26,5.08,6.82,9.17,9.17,9.17
33.22,3.94,-5.22,3.94,-5.22,5.21,5.04,6.76,9.15,9.16,9.16
33.55,3.98,-5.18,3.98,-5.18,5.17,4.99,6.69,9.16,9.15,9.16
33.89,4.01,-5.14,4.01,-5.13,5.14,4.95,6.62,9.15,9.15,9.15
34.23,4.04,-5.09,4.04,-5.09,5.10,4.90,6.54,9.14,9.14,9.13
34.57,4.07,-5.06,4.07,-5.06,5.06,4.86,6.44,9.13,9.13,9.13
34.92,4.09,-5.02,4.09,-5.03,5.03,4.81,6.35,9.12,9.12,9.11
35.27,4.12,-5.01,4.12,-5.00,4.99,4.77,6.25,9.11,9.11,9.13
35.62,4.14,-4.96,4.14,-4.96,4.96,4.73,6.14,9.10,9.10,9.10
35.97,4.17,-4.93,4.17,-4.93,4.92,4.68,6.03,9.09,9.09,9.10
36.33,4.19,-4.89,4.19,-4.89,4.89,4.64,5.92,9.08,9.07,9.08
36.70,4.21,-4.85,4.21,-4.85,4.85,4.60,5.81,9.06,9.06,9.06
37.06,4.23,-4.81,4.23,-4.80,4.80,4.55,5.69,9.04,9.04,9.04
37.43,4.26,-4.76,4.26,-4.76,4.76,4.51,5.58,9.02,9.02,9.02
37.81,4.29,-4.72,4.29,-4.71,4.72,4.47,5.46,9.01,9.00,9.01
38.19,4.31,-4.67,4.31,-4.67,4.67,4.43,5.34,8.98,8.98,8.98
38.57,4.34,-4.62,4.34,-4.62,4.62,4.39,5.23,8.96,8.96,8.96
38.95,4.37,-4.58,4.37,-4.57,4.57,4.34,5.11,8.94,8.94,8.95
39.34,4.39,-4.53,4.39,-4.52,4.52,4.30,5.00,8.91,8.92,8.92
39.74,4.42,-4.47,4.42,-4.47,4.47,4.26,4.89,8.89,8.89,8.89
40.14,4.45,-4.42,4.45,-4.42,4.42,4.22,4.78,8.87,8.87,8.87
40.54,4.47,-4.38,4.47,-4.37,4.38,4.18,4.67,8.85,8.85,8.85
40.94,4.50,-4.32,4.50,-4.32,4.33,4.14,4.56,8.83,8.83,8.82
41.35,4.52,-4.29,4.52,-4.28,4.28,4.10,4.46,8.80,8.80,8.81
41.76,4.55,-4.23,4.55,-4.23,4.23,4.06,4.36,8.78,8.78,8.78
42.18,4.57,-4.20,4.57,-4.19,4.19,4.02,4.26,8.76,8.76,8.77
42.60,4.60,-4.14,4.60,-4.14,4.14,3.98,4.17,8.74,8.74,8.74
43.03,4.62,-4.10,4.62,-4.09,4.09,3.94,4.08,8.71,8.71,8.72
43.46,4.64,-4.04,4.64,-4.04,4.05,3.90,3.99,8.69,8.69,8.68
43.90,4.66,-4.00,4.66,-4.00,4.00,3.86,3.90,8.66,8.66,8.66
44.33,4.68,-3.95,4.68,-3.95,3.95,3.82,3.82,8.63,8.63,8.63
44.78,4.70,-3.91,4.70,-3.91,3.90,3.78,3.74,8.60,8.60,8.61
45.23,4.72,-3.87,4.72,-3.86,3.85,3.74,3.66,8.57,8.57,8.59
45.68,4.74,-3.80,4.74,-3.81,3.81,3.70,3.59,8.55,8.54,8.54
46.13,4.75,-3.76,4.75,-3.75,3.76,3.66,3.52,8.51,8.51,8.51
46.60,4.77,-3.70,4.77,-3.70,3.71,3.62,3.45,8.48,8.47,8.47
47.06,4.78,-3.66,4.78,-3.66,3.65,3.58,3.38,8.43,8.43,8.44
47.53,4.79,-3.61,4.79,-3.60,3.60,3.54,3.32,8.39,8.39,8.40
48.01,4.80,-3.55,4.80,-3.55,3.55,3.50,3.26,8.35,8.35,8.35
48.49,4.81,-3.50,4.81,-3.50,3.50,3.46,3.20,8.31,8.31,8.31
48.97,4.82,-3.44,4.82,-3.44,3.44,3.42,3.15,8.26,8.26,8.26
49.46,4.83,-3.40,4.83,-3.39,3.39,3.38,3.09,8.22,8.22,8.23
49.96,4.84,-3.33,4.84,-3.34,3.33,3.34,3.04,8.17,8.17,8.17
50.46,4.85,-3.29,4.85,-3.28,3.28,3.30,2.99,8.13,8.13,8.14
50.96,4.87,-3.23,4.87,-3.22,3.22,3.26,2.95,8.09,8.09,8.10
51.47,4.89,-3.17,4.89,-3.16,3.17,3.22,2.90,8.06,8.06,8.06
51.99,4.91,-3.10,4.91,-3.11,3.11,3.18,2.86,8.02,8.02,8.01
52.51,4.93,-3.05,4.93,-3.05,3.06,3.14,2.81,7.99,7.98,7.98
53.03,4.94,-3.01,4.94,-3.00,3.00,3.10,2.77,7.94,7.94,7.95
53.56,4.95,-2.95,4.95,-2.95,2.94,3.06,2.73,7.89,7.89,7.90
54.10,4.96,-2.89,4.96,-2.89,2.89,3.01,2.69,7.85,7.85,7.85
54.64,4.97,-2.84,4.97,-2.83,2.83,2.97,2.66,7.80,7.81,7.81
55.18,4.99,-2.78,4.99,-2.78,2.78,2.93,2.62,7.77,7.77,7.77
55.74,5.00,-2.72,5.00,-2.73,2.73,2.88,2.58,7.73,7.73,7.72
56.29,5.02,-2.68,5.02,-2.67,2.67,2.84,2.54,7.69,7.69,7.70
56.86,5.04,-2.62,5.04,-2.62,2.62,2.80,2.51,7.66,7.65,7.66
57.42,5.05,-2.56,5.05,-2.56,2.56,2.75,2.47,7.61,7.62,7.61
58.00,5.07,-2.50,5.07,-2.50,2.51,2.71,2.43,7.58,7.58,7.57
58.58,5.09,-2.45,5.09,-2.45,2.45,2.66,2.39,7.54,7.54,7.54
59.16,5.11,-2.40,5.11,-2.39,2.38,2.62,2.35,7.49,7.49,7.51
59.76,5.13,-2.33,5.13,-2.33,2.32,2.57,2.31,7.45,7.45,7.46
60.35,5.15,-2.26,5.15,-2.26,2.25,2.52,2.27,7.40,7.40,7.41
60.96,5.16,-2.19,5.16,-2.18,2.18,2.48,2.23,7.34,7.35,7.35
61.57,5.18,-2.11,5.18,-2.11,2.11,2.43,2.19,7.29,7.29,7.29
62.18,5.19,-2.04,5.19,-2.04,2.05,2.38,2.15,7.24,7.24,7.23
62.80,5.20,-1.97,5.20,-1.97,1.98,2.33,2.10,7.18,7.18,7.17
63.43,5.20,-1.92,5.20,-1.91,1.92,2.28,2.05,7.12,7.12,7.12
64.07,5.21,-1.86,5.21,-1.86,1.86,2.23,2.01,7.07,7.07,7.07
64.71,5.21,-1.81,5.21,-1.80,1.80,2.18,1.96,7.01,7.01,7.02
65.35,5.21,-1.75,5.21,-1.75,1.75,2.13,1.91,6.96,6.96,6.96
66.01,5.21,-1.70,5.21,-1.70,1.70,2.08,1.85,6.91,6.91,6.91
66.67,5.20,-1.67,5.20,-1.65,1.66,2.02,1.80,6.86,6.86,6.87
67.33,5.20,-1.60,5.20,-1.61,1.61,1.97,1.75,6.81,6.80,6.80
68.01,5.19,-1.56,5.19,-1.56,1.55,1.91,1.69,6.75,6.75,6.75
68.69,5.19,-1.51,5.19,-1.51,1.50,1.86,1.63,6.69,6.69,6.70
69.37,5.19,-1.46,5.19,-1.45,1.44,1.80,1.58,6.63,6.63,6.65
70.07,5.19,-1.40,5.19,-1.39,1.38,1.75,1.52,6.57,6.58,6.59
70.77,5.20,-1.32,5.20,-1.33,1.32,1.69,1.46,6.52,6.52,6.52
71.48,5.20,-1.27,5.20,-1.26,1.26,1.63,1.40,6.46,6.47,6.47
72.19,5.21,-1.20,5.21,-1.20,1.20,1.57,1.34,6.41,6.41,6.41
72.91,5.21,-1.13,5.21,-1.14,1.15,1.52,1.28,6.36,6.35,6.34
73.64,5.20,-1.09,5.20,-1.08,1.09,1.46,1.21,6.29,6.30,6.29
74.38,5.19,-1.04,5.19,-1.04,1.05,1.40,1.15,6.24,6.24,6.23
75.12,5.18,-1.00,5.17,-1.00,1.01,1.33,1.09,6.19,6.18,6.18
75.87,5.15,-0.98,5.15,-0.97,0.97,1.27,1.02,6.12,6.12,6.13
76.63,5.13,-0.94,5.13,-0.94,0.94,1.21,0.96,6.07,6.07,6.07
77.40,5.11,-0.92,5.11,-0.91,0.91,1.15,0.90,6.02,6.02,6.03
78.17,5.10,-0.87,5.10,-0.88,0.88,1.08,0.83,5.98,5.97,5.97
78.95,5.08,-0.85,5.08,-0.85,0.84,1.02,0.77,5.92,5.92,5.93
79.74,5.07,-0.81,5.07,-0.81,0.81,0.96,0.71,5.88,5.87,5.88
80.54,5.05,-0.78,5.06,-0.77,0.77,0.89,0.64,5.82,5.82,5.83
81.35,5.05,-0.72,5.05,-0.73,0.73,0.82,0.58,5.78,5.78,5.77
82.16,5.05,-0.69,5.05,-0.68,0.68,0.76,0.51,5.73,5.73,5.74
82.98,5.05,-0.63,5.05,-0.63,0.63,0.69,0.45,5.68,5.68,5.68
83.81,5.05,-0.58,5.05,-0.57,0.57,0.62,0.39,5.62,5.62,5.63
84.65,5.06,-0.51,5.06,-0.51,0.51,0.56,0.32,5.57,5.57,5.57
85.50,5.06,-0.45,5.06,-0.45,0.45,0.49,0.26,5.51,5.51,5.51
86.35,5.08,-0.38,5.08,-0.38,0.38,0.42,0.19,5.46,5.45,5.46
87.22,5.09,-0.32,5.09,-0.31,0.30,0.35,0.13,5.39,5.39,5.41
88.09,5.11,-0.24,5.11,-0.23,0.23,0.28,0.07,5.34,5.34,5.35
88.97,5.14,-0.15,5.14,-0.15,0.15,0.21,0.00,5.29,5.28,5.29
89.86,5.17,-0.07,5.17,-0.07,0.07,0.14,-0.06,5.24,5.23,5.24
90.76,5.19,0.01,5.19,0.02,-0.01,0.07,-0.13,5.18,5.18,5.18
91.66,5.21,0.10,5.21,0.10,-0.09,0.00,-0.19,5.13,5.13,5.11
92.58,5.23,0.17,5.23,0.17,-0.15,-0.07,-0.26,5.08,5.07,5.06
93.51,5.23,0.22,5.23,0.23,-0.22,-0.14,-0.32,5.01,5.01,5.01
94.44,5.22,0.27,5.22,0.28,-0.28,-0.21,-0.38,4.94,4.94,4.95
95.39,5.20,0.32,5.20,0.32,-0.33,-0.28,-0.45,4.87,4.87,4.88
96.34,5.18,0.37,5.18,0.37,-0.37,-0.35,-0.51,4.81,4.81,4.81
97.30,5.15,0.40,5.15,0.41,-0.41,-0.42,-0.58,4.74,4.75,4.75
98.28,5.13,0.45,5.13,0.45,-0.44,-0.49,-0.64,4.69,4.69,4.68
99.26,5.10,0.48,5.10,0.48,-0.47,-0.56,-0.70,4.63,4.62,4.62
100.25,5.06,0.50,5.06,0.50,-0.51,-0.63,-0.77,4.55,4.56,4.56
101.25,5.03,0.52,5.03,0.53,-0.53,-0.70,-0.83,4.50,4.50,4.51
102.27,5.00,0.55,5.00,0.56,-0.56,-0.77,-0.90,4.44,4.44,4.45
103.29,4.98,0.59,4.98,0.59,-0.59,-0.84,-0.96,4.39,4.39,4.39
104.32,4.96,0.62,4.96,0.62,-0.61,-0.91,-1.02,4.35,4.34,4.34
105.37,4.93,0.65,4.93,0.65,-0.64,-0.98,-1.08,4.29,4.29,4.28
106.42,4.90,0.67,4.90,0.67,-0.67,-1.04,-1.14,4.23,4.23,4.23
107.48,4.87,0.70,4.87,0.70,-0.71,-1.11,-1.20,4.16,4.16,4.17
108.56,4.85,0.73,4.85,0.74,-0.75,-1.18,-1.26,4.10,4.10,4.12
109.64,4.84,0.78,4.84,0.78,-0.80,-1.25,-1.32,4.04,4.04,4.06
110.74,4.84,0.84,4.84,0.84,-0.85,-1.31,-1.38,3.99,3.99,4.00
111.85,4.85,0.91,4.85,0.91,-0.91,-1.38,-1.43,3.94,3.94,3.94
112.97,4.86,0.97,4.86,0.97,-0.97,-1.44,-1.48,3.89,3.89,3.89
114.10,4.86,1.03,4.86,1.04,-1.03,-1.51,-1.54,3.83,3.83,3.83
115.24,4.86,1.11,4.86,1.10,-1.09,-1.57,-1.58,3.77,3.76,3.75
116.39,4.85,1.16,4.85,1.17,-1.15,-1.64,-1.63,3.70,3.70,3.69
117.55,4.85,1.22,4.85,1.22,-1.21,-1.70,-1.68,3.64,3.64,3.63
118.73,4.85,1.28,4.85,1.27,-1.27,-1.76,-1.72,3.58,3.58,3.57
119.92,4.85,1.32,4.86,1.33,-1.33,-1.82,-1.76,3.52,3.52,3.53
121.12,4.87,1.39,4.86,1.39,-1.40,-1.88,-1.80,3.47,3.46,3.48
122.33,4.88,1.46,4.88,1.45,-1.47,-1.94,-1.83,3.41,3.40,3.42
123.55,4.90,1.53,4.90,1.54,-1.55,-2.00,-1.87,3.35,3.35,3.37
124.79,4.93,1.61,4.94,1.62,-1.64,-2.05,-1.90,3.29,3.30,3.32
126.03,4.99,1.73,4.98,1.72,-1.72,-2.11,-1.93,3.27,3.25,3.26
127.29,5.02,1.81,5.02,1.82,-1.81,-2.16,-1.95,3.21,3.21,3.21
128.57,5.05,1.91,5.06,1.91,-1.90,-2.22,-1.97,3.15,3.16,3.14
129.85,5.09,2.00,5.08,2.00,-1.99,-2.27,-1.99,3.10,3.10,3.09
131.15,5.10,2.07,5.10,2.07,-2.06,-2.32,-2.01,3.04,3.04,3.03
132.46,5.11,2.13,5.11,2.14,-2.13,-2.37,-2.03,2.98,2.98,2.98
133.79,5.11,2.19,5.11,2.19,-2.19,-2.42,-2.04,2.92,2.92,2.92
135.12,5.10,2.23,5.10,2.23,-2.23,-2.47,-2.05,2.87,2.87,2.87
136.48,5.09,2.27,5.09,2.27,-2.27,-2.51,-2.06,2.82,2.82,2.82
137.84,5.06,2.29,5.07,2.30,-2.30,-2.56,-2.07,2.76,2.77,2.77
139.22,5.04,2.33,5.04,2.32,-2.32,-2.60,-2.08,2.72,2.72,2.71
140.61,5.01,2.34,5.00,2.34,-2.33,-2.65,-2.08,2.68,2.67,2.67
142.02,4.95,2.34,4.96,2.35,-2.35,-2.69,-2.09,2.60,2.61,2.61
143.44,4.93,2.36,4.93,2.36,-2.36,-2.73,-2.09,2.57,2.56,2.57
144.87,4.89,2.36,4.89,2.37,-2.38,-2.77,-2.10,2.51,2.52,2.53
146.32,4.88,2.40,4.87,2.39,-2.40,-2.80,-2.10,2.48,2.47,2.48
147.78,4.85,2.41,4.85,2.42,-2.43,-2.84,-2.11,2.42,2.42,2.44
149.26,4.84,2.45,4.84,2.45,-2.46,-2.87,-2.11,2.38,2.38,2.39
150.75,4.84,2.49,4.84,2.49,-2.50,-2.91,-2.12,2.34,2.34,2.35
152.26,4.85,2.54,4.85,2.55,-2.55,-2.94,-2.12,2.30,2.30,2.31
153.78,4.87,2.60,4.87,2.60,-2.60,-2.97,-2.13,2.27,2.27,2.27
155.32,4.88,2.65,4.88,2.65,-2.65,-3.00,-2.14,2.23,2.23,2.23
156.88,4.88,2.70,4.88,2.71,-2.70,-3.02,-2.14,2.18,2.19,2.18
158.44,4.88,2.75,4.88,2.75,-2.74,-3.05,-2.15,2.14,2.14,2.13
160.03,4.88,2.79,4.88,2.79,-2.78,-3.07,-2.16,2.10,2.10,2.09
161.63,4.86,2.81,4.86,2.82,-2.82,-3.10,-2.18,2.04,2.05,2.05
163.24,4.85,2.85,4.84,2.85,-2.84,-3.12,-2.19,2.01,2.00,2.00
164.88,4.81,2.86,4.82,2.87,-2.87,-3.14,-2.20,1.94,1.95,1.95
166.53,4.79,2.89,4.79,2.88,-2.88,-3.16,-2.22,1.91,1.91,1.90
168.19,4.76,2.89,4.76,2.90,-2.90,-3.17,-2.24,1.86,1.86,1.87
169.87,4.72,2.91,4.73,2.91,-2.91,-3.19,-2.26,1.81,1.81,1.81
171.57,4.69,2.93,4.69,2.93,-2.93,-3.21,-2.28,1.76,1.76,1.76
173.29,4.66,2.94,4.66,2.94,-2.95,-3.22,-2.30,1.71,1.71,1.72
175.02,4.62,2.95,4.63,2.96,-2.97,-3.23,-2.33,1.65,1.66,1.67
176.77,4.60,2.98,4.60,2.98,-2.99,-3.24,-2.36,1.61,1.61,1.62
178.54,4.58,3.00,4.58,3.01,-3.01,-3.25,-2.39,1.57,1.57,1.58
180.32,4.57,3.05,4.57,3.04,-3.04,-3.26,-2.42,1.53,1.53,1.52
182.13,4.56,3.07,4.55,3.07,-3.07,-3.27,-2.45,1.49,1.49,1.49
183.95,4.53,3.09,4.53,3.10,-3.09,-3.27,-2.49,1.44,1.44,1.44
185.79,4.51,3.12,4.51,3.12,-3.12,-3.28,-2.52,1.39,1.39,1.39
187.65,4.49,3.14,4.49,3.14,-3.14,-3.28,-2.56,1.35,1.35,1.35
189.52,4.47,3.16,4.47,3.17,-3.17,-3.28,-2.60,1.30,1.31,1.31
191.42,4.46,3.19,4.45,3.19,-3.18,-3.28,-2.64,1.28,1.27,1.27
193.33,4.43,3.20,4.43,3.20,-3.20,-3.28,-2.69,1.23,1.23,1.23
195.27,4.39,3.21,4.40,3.22,-3.21,-3.28,-2.73,1.18,1.18,1.18
197.22,4.36,3.23,4.36,3.23,-3.22,-3.28,-2.78,1.14,1.13,1.13
199.19,4.33,3.23,4.33,3.24,-3.23,-3.28,-2.83,1.10,1.09,1.10
201.18,4.30,3.24,4.30,3.24,-3.24,-3.27,-2.88,1.06,1.06,1.06
203.19,4.28,3.25,4.28,3.25,-3.25,-3.27,-2.92,1.03,1.03,1.03
205.23,4.26,3.25,4.26,3.26,-3.26,-3.26,-2.97,1.00,1.00,1.01
207.28,4.24,3.26,4.24,3.27,-3.27,-3.25,-3.02,0.97,0.97,0.98
209.35,4.22,3.28,4.22,3.28,-3.28,-3.25,-3.07,0.94,0.94,0.94
211.44,4.20,3.29,4.20,3.29,-3.29,-3.24,-3.12,0.91,0.91,0.91
213.56,4.18,3.29,4.18,3.30,-3.30,-3.23,-3.17,0.88,0.88,0.89
215.69,4.17,3.31,4.17,3.31,-3.31,-3.22,-3.22,0.86,0.85,0.86
217.85,4.15,3.32,4.15,3.32,-3.32,-3.21,-3.27,0.83,0.83,0.83
220.03,4.13,3.33,4.13,3.33,-3.32,-3.19,-3.31,0.81,0.80,0.80
222.23,4.10,3.33,4.10,3.33,-3.32,-3.18,-3.36,0.78,0.78,0.77
224.45,4.08,3.32,4.07,3.32,-3.32,-3.17,-3.40,0.76,0.75,0.76
226.70,4.04,3.31,4.04,3.31,-3.31,-3.15,-3.44,0.73,0.74,0.73
228.96,4.01,3.29,4.01,3.30,-3.29,-3.14,-3.47,0.72,0.72,0.72
231.25,3.98,3.28,3.97,3.27,-3.27,-3.12,-3.50,0.71,0.70,0.70
233.57,3.93,3.25,3.93,3.25,-3.25,-3.11,-3.53,0.68,0.68,0.68
235.90,3.88,3.21,3.89,3.23,-3.23,-3.09,-3.55,0.65,0.66,0.67
238.26,3.85,3.21,3.85,3.20,-3.20,-3.08,-3.58,0.65,0.65,0.64
240.64,3.81,3.16,3.81,3.17,-3.17,-3.06,-3.59,0.64,0.63,0.65
243.05,3.77,3.14,3.77,3.15,-3.15,-3.04,-3.60,0.62,0.62,0.63
245.48,3.74,3.12,3.74,3.12,-3.13,-3.02,-3.60,0.61,0.61,0.62
247.93,3.71,3.10,3.71,3.10,-3.10,-3.00,-3.60,0.61,0.61,0.61
250.41,3.69,3.07,3.69,3.08,-3.08,-2.98,-3.60,0.61,0.61,0.62
252.92,3.66,3.05,3.66,3.06,-3.05,-2.96,-3.59,0.61,0.61,0.61
255.45,3.64,3.04,3.64,3.04,-3.03,-2.94,-3.57,0.61,0.61,0.60
258.00,3.61,3.01,3.61,3.01,-3.00,-2.92,-3.55,0.61,0.61,0.60
260.58,3.57,2.97,3.57,2.97,-2.97,-2.90,-3.52,0.60,0.60,0.60
263.19,3.53,2.93,3.53,2.94,-2.94,-2.88,-3.49,0.59,0.59,0.60
265.82,3.49,2.90,3.50,2.91,-2.91,-2.85,-3.46,0.58,0.58,0.59
268.48,3.47,2.88,3.47,2.88,-2.89,-2.83,-3.42,0.58,0.58,0.59
271.16,3.44,2.85,3.44,2.85,-2.86,-2.81,-3.37,0.58,0.58,0.59
273.87,3.41,2.82,3.41,2.83,-2.84,-2.78,-3.32,0.57,0.58,0.59
276.61,3.39,2.80,3.39,2.81,-2.81,-2.76,-3.27,0.58,0.58,0.59
279.38,3.37,2.80,3.37,2.80,-2.79,-2.73,-3.22,0.58,0.59,0.57
282.17,3.35,2.78,3.35,2.77,-2.76,-2.70,-3.16,0.59,0.59,0.57
284.99,3.32,2.74,3.31,2.74,-2.73,-2.68,-3.10,0.59,0.59,0.58
287.84,3.27,2.68,3.27,2.69,-2.69,-2.65,-3.03,0.58,0.58,0.59
290.72,3.23,2.65,3.24,2.65,-2.66,-2.62,-2.97,0.57,0.58,0.58
293.63,3.20,2.61,3.20,2.61,-2.62,-2.59,-2.90,0.58,0.58,0.59
296.57,3.17,2.57,3.17,2.57,-2.58,-2.56,-2.84,0.59,0.59,0.60
299.53,3.13,2.53,3.14,2.53,-2.54,-2.53,-2.77,0.59,0.60,0.60
302.53,3.11,2.49,3.11,2.50,-2.50,-2.50,-2.70,0.61,0.61,0.62
305.55,3.08,2.47,3.08,2.46,-2.46,-2.47,-2.63,0.62,0.61,0.61
308.61,3.05,2.43,3.05,2.43,-2.43,-2.44,-2.57,0.62,0.62,0.62
311.69,3.02,2.39,3.02,2.40,-2.40,-2.40,-2.50,0.62,0.63,0.63
314.81,3.00,2.37,3.00,2.36,-2.37,-2.37,-2.43,0.63,0.63,0.63
317.96,2.97,2.33,2.97,2.34,-2.34,-2.34,-2.36,0.63,0.64,0.64
321.14,2.95,2.30,2.95,2.31,-2.31,-2.30,-2.30,0.64,0.64,0.65
324.35,2.94,2.29,2.94,2.28,-2.29,-2.27,-2.23,0.65,0.65,0.65
327.59,2.92,2.24,2.92,2.26,-2.26,-2.23,-2.17,0.66,0.66,0.68
330.87,2.91,2.24,2.91,2.24,-2.24,-2.20,-2.11,0.67,0.67,0.67
334.18,2.90,2.22,2.90,2.22,-2.22,-2.16,-2.04,0.68,0.68,0.68
337.52,2.88,2.20,2.88,2.20,-2.19,-2.13,-1.98,0.69,0.69,0.68
340.90,2.87,2.17,2.86,2.17,-2.16,-2.09,-1.92,0.71,0.70,0.70
344.30,2.84,2.13,2.84,2.14,-2.13,-2.05,-1.87,0.71,0.71,0.71
347.75,2.81,2.10,2.81,2.10,-2.10,-2.02,-1.81,0.71,0.71,0.71
351.23,2.78,2.07,2.78,2.06,-2.07,-1.98,-1.75,0.71,0.71,0.71
354.74,2.75,2.01,2.75,2.03,-2.03,-1.94,-1.70,0.72,0.72,0.74
358.28,2.72,1.99,2.72,1.99,-1.99,-1.91,-1.65,0.73,0.73,0.73
361.87,2.70,1.96,2.70,1.95,-1.95,-1.87,-1.59,0.75,0.74,0.74
365.49,2.67,1.92,2.67,1.92,-1.91,-1.83,-1.54,0.76,0.76,0.75
369.14,2.64,1.87,2.64,1.88,-1.88,-1.80,-1.50,0.76,0.76,0.77
372.83,2.61,1.84,2.61,1.84,-1.84,-1.76,-1.45,0.77,0.77,0.77
376.56,2.57,1.80,2.57,1.80,-1.80,-1.72,-1.40,0.77,0.77,0.77
380.33,2.54,1.76,2.54,1.76,-1.77,-1.68,-1.36,0.77,0.77,0.78
384.13,2.51,1.71,2.52,1.73,-1.74,-1.65,-1.31,0.77,0.78,0.80
387.97,2.50,1.70,2.50,1.70,-1.70,-1.61,-1.27,0.80,0.80,0.80
391.85,2.48,1.67,2.48,1.67,-1.67,-1.57,-1.23,0.81,0.81,0.81
395.77,2.46,1.64,2.46,1.64,-1.63,-1.54,-1.19,0.83,0.83,0.82
399.73,2.43,1.60,2.43,1.60,-1.58,-1.50,-1.15,0.85,0.85,0.83
403.72,2.39,1.53,2.39,1.55,-1.54,-1.47,-1.11,0.85,0.86,0.86
407.76,2.35,1.50,2.34,1.49,-1.49,-1.43,-1.08,0.86,0.86,0.85
411.84,2.29,1.43,2.29,1.43,-1.43,-1.39,-1.04,0.86,0.86,0.86
415.96,2.24,1.36,2.24,1.38,-1.38,-1.36,-1.01,0.86,0.86,0.88
420.12,2.20,1.32,2.20,1.32,-1.33,-1.32,-0.97,0.87,0.86,0.88
424.32,2.16,1.27,2.16,1.27,-1.29,-1.29,-0.94,0.87,0.88,0.89
428.56,2.13,1.22,2.13,1.23,-1.24,-1.25,-0.90,0.89,0.89,0.91
432.85,2.11,1.19,2.11,1.20,-1.20,-1.21,-0.87,0.91,0.91,0.92
437.18,2.08,1.17,2.08,1.17,-1.15,-1.18,-0.84,0.93,0.93,0.91
441.55,2.05,1.13,2.04,1.13,-1.11,-1.14,-0.81,0.94,0.94,0.92
445.96,2.00,1.07,2.00,1.08,-1.06,-1.11,-0.78,0.94,0.94,0.93
450.42,1.95,1.01,1.95,1.02,-1.01,-1.07,-0.75,0.94,0.94,0.94
454.93,1.91,0.96,1.91,0.96,-0.97,-1.04,-0.72,0.94,0.94,0.95
459.48,1.86,0.90,1.87,0.90,-0.92,-1.00,-0.69,0.94,0.95,0.96
464.07,1.83,0.85,1.83,0.86,-0.87,-0.96,-0.66,0.96,0.96,0.98
468.71,1.80,0.81,1.80,0.82,-0.82,-0.93,-0.64,0.98,0.97,0.99
473.40,1.77,0.78,1.77,0.78,-0.78,-0.89,-0.61,0.99,1.00,0.99
478.13,1.75,0.75,1.74,0.75,-0.73,-0.86,-0.58,1.02,1.01,1.00
482.91,1.71,0.70,1.71,0.70,-0.68,-0.82,-0.55,1.03,1.02,1.01
487.74,1.66,0.64,1.66,0.64,-0.63,-0.78,-0.53,1.03,1.03,1.02
492.62,1.61,0.58,1.61,0.58,-0.59,-0.75,-0.50,1.02,1.02,1.03
497.55,1.56,0.52,1.56,0.52,-0.54,-0.71,-0.47,1.02,1.02,1.04
502.52,1.52,0.47,1.52,0.47,-0.49,-0.67,-0.45,1.03,1.04,1.05
507.55,1.49,0.42,1.49,0.43,-0.44,-0.64,-0.42,1.05,1.05,1.07
512.62,1.47,0.39,1.47,0.39,-0.39,-0.60,-0.39,1.08,1.08,1.08
517.75,1.44,0.34,1.44,0.35,-0.34,-0.56,-0.37,1.10,1.10,1.10
522.93,1.41,0.30,1.41,0.30,-0.29,-0.52,-0.34,1.12,1.12,1.11
528.16,1.37,0.25,1.37,0.25,-0.24,-0.49,-0.31,1.13,1.13,1.12
533.44,1.32,0.19,1.32,0.19,-0.19,-0.45,-0.29,1.13,1.14,1.13
538.77,1.27,0.13,1.27,0.13,-0.13,-0.41,-0.26,1.14,1.14,1.14
544.16,1.22,0.07,1.22,0.07,-0.08,-0.37,-0.23,1.14,1.14,1.15
549.60,1.18,0.02,1.18,0.02,-0.03,-0.33,-0.20,1.15,1.15,1.16
555.10,1.15,-0.03,1.15,-0.02,0.01,-0.28,-0.18,1.16,1.16,1.18
560.65,1.12,-0.07,1.12,-0.06,0.05,-0.24,-0.15,1.17,1.17,1.19
