frequency,raw,error,smoothed,error_smoothed,equalization,parametric_eq,fixed_band_eq,equalized_raw,equalized_smoothed,target
20.00,6.79,-0.80,6.79,-0.80,0.80,0.43,-0.11,7.58,7.59,7.59
20.20,6.82,-0.81,6.81,-0.81,0.82,0.41,-0.11,7.63,7.63,7.63
20.40,6.85,-0.82,6.84,-0.82,0.83,0.39,-0.11,7.67,7.67,7.67
20.61,6.87,-0.82,6.87,-0.83,0.83,0.37,-0.11,7.71,7.71,7.70
20.81,6.91,-0.83,6.91,-0.83,0.83,0.35,-0.11,7.74,7.74,7.74
21.02,6.95,-0.83,6.95,-0.83,0.83,0.32,-0.10,7.77,7.77,7.78
21.23,6.99,-0.81,6.98,-0.82,0.81,0.30,-0.10,7.80,7.80,7.80
21.44,7.03,-0.79,7.02,-0.80,0.80,0.27,-0.10,7.82,7.82,7.82
21.66,7.06,-0.77,7.07,-0.77,0.77,0.25,-0.10,7.84,7.84,7.84
21.87,7.11,-0.74,7.11,-0.74,0.74,0.22,-0.10,7.85,7.85,7.85
22.09,7.16,-0.71,7.15,-0.71,0.71,0.20,-0.09,7.86,7.86,7.87
22.31,7.21,-0.67,7.21,-0.67,0.66,0.17,-0.09,7.87,7.87,7.88
22.54,7.26,-0.62,7.27,-0.62,0.62,0.14,-0.09,7.88,7.89,7.89
22.76,7.33,-0.57,7.32,-0.57,0.58,0.12,-0.09,7.90,7.90,7.90
22.99,7.39,-0.51,7.38,-0.52,0.53,0.09,-0.09,7.91,7.91,7.90
23.22,7.44,-0.47,7.43,-0.47,0.48,0.06,-0.08,7.92,7.92,7.91
23.45,7.49,-0.43,7.49,-0.43,0.44,0.04,-0.08,7.92,7.92,7.92
23.69,7.53,-0.39,7.54,-0.39,0.39,0.01,-0.08,7.92,7.93,7.93
23.92,7.60,-0.34,7.59,-0.35,0.34,-0.02,-0.08,7.94,7.94,7.94
24.16,7.65,-0.31,7.65,-0.31,0.30,-0.04,-0.07,7.95,7.95,7.96
24.40,7.71,-0.27,7.71,-0.26,0.26,-0.07,-0.07,7.97,7.97,7.98
24.65,7.76,-0.20,7.76,-0.21,0.22,-0.10,-0.07,7.98,7.98,7.97
24.89,7.82,-0.16,7.81,-0.17,0.18,-0.12,-0.07,7.99,7.99,7.98
25.14,7.86,-0.13,7.86,-0.13,0.13,-0.15,-0.06,7.99,7.99,7.99
25.39,7.91,-0.09,7.91,-0.10,0.09,-0.18,-0.06,7.99,7.99,8.00
25.65,7.96,-0.06,7.96,-0.05,0.04,-0.20,-0.06,8.00,8.00,8.02
25.91,8.01,-0.00,8.02,-0.01,-0.00,-0.23,-0.06,8.01,8.01,8.02
26.16,8.08,0.05,8.08,0.05,-0.04,-0.26,-0.06,8.03,8.03,8.03
26.43,8.13,0.10,8.13,0.09,-0.08,-0.28,-0.06,8.05,8.05,8.04
26.69,8.19,0.14,8.18,0.13,-0.12,-0.31,-0.06,8.06,8.06,8.05
26.96,8.22,0.16,8.23,0.16,-0.16,-0.33,-0.06,8.06,8.07,8.07
27.23,8.26,0.19,8.27,0.19,-0.19,-0.36,-0.06,8.07,8.07,8.08
27.50,8.31,0.23,8.30,0.22,-0.22,-0.39,-0.06,8.08,8.08,8.08
27.77,8.34,0.26,8.34,0.25,-0.25,-0.41,-0.07,8.09,8.09,8.08
28.05,8.37,0.27,8.37,0.27,-0.27,-0.44,-0.07,8.10,8.10,8.10
28.33,8.40,0.30,8.39,0.29,-0.29,-0.46,-0.08,8.10,8.10,8.10
28.62,8.42,0.31,8.42,0.31,-0.32,-0.49,-0.09,8.10,8.10,8.11
28.90,8.45,0.33,8.45,0.33,-0.34,-0.51,-0.09,8.11,8.11,8.12
29.19,8.49,0.37,8.48,0.35,-0.36,-0.54,-0.10,8.12,8.12,8.12
29.48,8.52,0.37,8.52,0.38,-0.39,-0.57,-0.11,8.13,8.13,8.15
29.78,8.55,0.42,8.56,0.41,-0.41,-0.59,-0.13,8.15,8.15,8.14
30.08,8.59,0.45,8.59,0.44,-0.43,-0.62,-0.14,8.17,8.16,8.15
30.38,8.62,0.47,8.62,0.46,-0.45,-0.64,-0.16,8.17,8.17,8.15
30.68,8.64,0.47,8.63,0.47,-0.47,-0.67,-0.17,8.17,8.16,8.17
30.99,8.65,0.48,8.65,0.48,-0.49,-0.70,-0.19,8.16,8.16,8.17
31.30,8.67,0.50,8.67,0.49,-0.51,-0.72,-0.22,8.16,8.16,8.17
31.61,8.70,0.52,8.70,0.52,-0.53,-0.75,-0.24,8.17,8.17,8.18
31.93,8.73,0.55,8.74,0.55,-0.55,-0.78,-0.27,8.19,8.19,8.19
32.24,8.78,0.59,8.77,0.58,-0.57,-0.81,-0.29,8.21,8.20,8.19
32.57,8.81,0.60,8.80,0.60,-0.59,-0.83,-0.32,8.21,8.21,8.21
32.89,8.83,0.62,8.83,0.62,-0.61,-0.86,-0.35,8.21,8.22,8.21
33.22,8.87,0.65,8.86,0.64,-0.64,-0.89,-0.39,8.23,8.23,8.22
33.55,8.90,0.67,8.89,0.66,-0.66,-0.92,-0.42,8.23,8.23,8.23
33.89,8.93,0.69,8.92,0.69,-0.69,-0.95,-0.46,8.24,8.23,8.24
34.23,8.95,0.71,8.95,0.71,-0.72,-0.98,-0.50,8.22,8.23,8.24
34.57,9.00,0.75,8.99,0.75,-0.76,-1.01,-0.54,8.24,8.23,8.25
34.92,9.04,0.80,9.05,0.80,-0.81,-1.04,-0.58,8.24,8.24,8.25
35.27,9.11,0.86,9.11,0.86,-0.86,-1.07,-0.63,8.26,8.25,8.26
35.62,9.18,0.92,9.18,0.92,-0.92,-1.10,-0.67,8.26,8.26,8.26
35.97,9.25,0.99,9.25,0.98,-0.98,-1.13,-0.72,8.27,8.27,8.26
36.33,9.32,1.05,9.32,1.06,-1.05,-1.16,-0.77,8.27,8.27,8.27
36.70,9.39,1.14,9.39,1.13,-1.12,-1.19,-0.82,8.28,8.27,8.26
37.06,9.47,1.20,9.47,1.20,-1.19,-1.22,-0.87,8.27,8.27,8.27
37.43,9.54,1.27,9.54,1.27,-1.27,-1.26,-0.93,8.27,8.27,8.27
37.81,9.61,1.34,9.60,1.33,-1.35,-1.29,-0.98,8.26,8.26,8.27
38.19,9.67,1.41,9.68,1.41,-1.43,-1.32,-1.04,8.25,8.25,8.27
38.57,9.76,1.50,9.76,1.50,-1.51,-1.36,-1.10,8.25,8.25,8.26
38.95,9.85,1.59,9.84,1.59,-1.58,-1.39,-1.16,8.26,8.26,8.26
39.34,9.93,1.68,9.93,1.68,-1.66,-1.43,-1.22,8.27,8.27,8.25
39.74,10.00,1.76,10.00,1.75,-1.74,-1.47,-1.28,8.27,8.26,8.25
40.14,10.06,1.82,10.06,1.82,-1.81,-1.50,-1.35,8.26,8.26,8.25
40.54,10.11,1.87,10.12,1.88,-1.88,-1.54,-1.41,8.24,8.25,8.25
40.94,10.18,1.94,10.18,1.93,-1.94,-1.58,-1.48,8.24,8.24,8.24
41.35,10.24,2.00,10.23,1.99,-2.00,-1.62,-1.55,8.24,8.23,8.24
41.76,10.29,2.05,10.29,2.05,-2.05,-1.66,-1.62,8.23,8.23,8.24
42.18,10.35,2.11,10.34,2.11,-2.11,-1.70,-1.69,8.24,8.23,8.24
42.60,10.40,2.16,10.40,2.16,-2.16,-1.74,-1.76,8.23,8.24,8.24
43.03,10.46,2.22,10.45,2.22,-2.22,-1.78,-1.83,8.24,8.24,8.24
43.46,10.51,2.27,10.50,2.27,-2.27,-1.82,-1.91,8.24,8.23,8.24
43.90,10.54,2.33,10.54,2.32,-2.32,-1.87,-1.99,8.23,8.23,8.22
44.33,10.58,2.36,10.58,2.36,-2.36,-1.91,-2.07,8.22,8.22,8.22
44.78,10.62,2.41,10.61,2.40,-2.40,-1.96,-2.15,8.22,8.22,8.21
45.23,10.65,2.44,10.64,2.44,-2.43,-2.00,-2.23,8.21,8.21,8.21
45.68,10.68,2.47,10.67,2.46,-2.46,-2.05,-2.31,8.21,8.21,8.21
46.13,10.69,2.49,10.69,2.48,-2.49,-2.10,-2.40,8.20,8.20,8.20
46.60,10.71,2.50,10.71,2.51,-2.51,-2.15,-2.48,8.20,8.20,8.21
47.06,10.73,2.53,10.72,2.52,-2.52,-2.19,-2.57,8.20,8.20,8.20
47.53,10.74,2.55,10.74,2.54,-2.54,-2.24,-2.66,8.20,8.20,8.19
48.01,10.75,2.55,10.74,2.56,-2.55,-2.30,-2.75,8.19,8.19,8.20
48.49,10.75,2.57,10.74,2.57,-2.57,-2.35,-2.84,8.18,8.18,8.18
48.97,10.75,2.59,10.75,2.58,-2.58,-2.40,-2.93,8.16,8.16,8.16
49.46,10.75,2.60,10.75,2.60,-2.60,-2.46,-3.03,8.14,8.15,8.15
49.96,10.76,2.63,10.75,2.62,-2.62,-2.51,-3.12,8.13,8.13,8.13
50.46,10.77,2.64,10.76,2.64,-2.64,-2.57,-3.22,8.12,8.12,8.13
50.96,10.78,2.67,10.78,2.67,-2.67,-2.62,-3.31,8.11,8.11,8.11
51.47,10.79,2.71,10.79,2.70,-2.70,-2.68,-3.41,8.08,8.09,8.08
51.99,10.82,2.75,10.81,2.74,-2.74,-2.74,-3.51,8.08,8.07,8.07
52.51,10.84,2.78,10.83,2.78,-2.78,-2.80,-3.60,8.05,8.05,8.06
53.03,10.87,2.83,10.87,2.83,-2.84,-2.86,-3.70,8.03,8.03,8.04
53.56,10.92,2.89,10.92,2.89,-2.90,-2.93,-3.79,8.02,8.02,8.03
54.10,10.97,2.98,10.97,2.96,-2.97,-2.99,-3.89,8.01,8.00,8.00
54.64,11.03,3.04,11.03,3.05,-3.04,-3.05,-3.98,7.98,7.98,7.99
55.18,11.09,3.13,11.09,3.13,-3.13,-3.12,-4.07,7.96,7.96,7.96
55.74,11.15,3.23,11.16,3.22,-3.22,-3.19,-4.16,7.94,7.94,7.93
56.29,11.24,3.31,11.23,3.32,-3.31,-3.25,-4.25,7.92,7.92,7.93
56.86,11.31,3.42,11.31,3.41,-3.41,-3.32,-4.33,7.90,7.90,7.90
57.42,11.39,3.52,11.39,3.51,-3.51,-3.39,-4.41,7.87,7.88,7.87
58.00,11.47,3.62,11.47,3.62,-3.62,-3.47,-4.49,7.85,7.85,7.85
58.58,11.56,3.73,11.55,3.72,-3.73,-3.54,-4.56,7.83,7.83,7.83
59.16,11.64,3.83,11.64,3.83,-3.84,-3.61,-4.63,7.80,7.80,7.81
59.76,11.72,3.94,11.73,3.94,-3.95,-3.69,-4.70,7.77,7.78,7.79
60.35,11.82,4.06,11.82,4.06,-4.06,-3.76,-4.76,7.75,7.75,7.76
60.96,11.90,4.18,11.90,4.18,-4.18,-3.84,-4.81,7.73,7.73,7.73
61.57,11.98,4.31,11.98,4.30,-4.29,-3.92,-4.87,7.70,7.70,7.68
62.18,12.06,4.42,12.05,4.41,-4.39,-3.99,-4.91,7.66,7.66,7.64
62.80,12.12,4.50,12.11,4.51,-4.50,-4.07,-4.95,7.62,7.61,7.62
63.43,12.17,4.60,12.17,4.60,-4.60,-4.15,-4.99,7.56,7.57,7.57
64.07,12.23,4.70,12.22,4.69,-4.70,-4.24,-5.02,7.53,7.53,7.53
64.71,12.29,4.79,12.28,4.79,-4.79,-4.32,-5.05,7.50,7.49,7.50
65.35,12.33,4.87,12.33,4.87,-4.88,-4.40,-5.07,7.45,7.45,7.46
66.01,12.39,4.97,12.39,4.96,-4.97,-4.48,-5.09,7.42,7.42,7.42
66.67,12.44,5.05,12.43,5.05,-5.05,-4.57,-5.10,7.39,7.39,7.39
67.33,12.49,5.14,12.48,5.13,-5.13,-4.65,-5.11,7.36,7.35,7.35
68.01,12.52,5.21,12.52,5.21,-5.20,-4.74,-5.12,7.31,7.31,7.31
68.69,12.55,5.28,12.55,5.28,-5.27,-4.82,-5.12,7.27,7.28,7.27
69.37,12.59,5.36,12.58,5.35,-5.34,-4.91,-5.12,7.25,7.24,7.23
70.07,12.61,5.42,12.60,5.41,-5.40,-5.00,-5.12,7.20,7.19,7.19
70.77,12.61,5.46,12.61,5.46,-5.46,-5.08,-5.12,7.14,7.15,7.15
71.48,12.62,5.50,12.62,5.51,-5.52,-5.17,-5.12,7.09,7.10,7.12
72.19,12.65,5.58,12.64,5.57,-5.58,-5.25,-5.12,7.06,7.06,7.07
72.91,12.68,5.64,12.67,5.64,-5.64,-5.34,-5.11,7.03,7.03,7.04
73.64,12.71,5.71,12.71,5.71,-5.70,-5.43,-5.11,7.01,7.01,7.00
74.38,12.74,5.77,12.73,5.77,-5.76,-5.51,-5.11,6.98,6.97,6.97
75.12,12.76,5.83,12.75,5.82,-5.82,-5.60,-5.11,6.94,6.94,6.93
75.87,12.78,5.88,12.78,5.88,-5.88,-5.68,-5.11,6.90,6.90,6.90
76.63,12.80,5.93,12.80,5.93,-5.94,-5.76,-5.11,6.86,6.86,6.87
77.40,12.83,5.99,12.82,5.98,-5.99,-5.84,-5.11,6.83,6.83,6.84
78.17,12.85,6.04,12.85,6.04,-6.05,-5.92,-5.12,6.80,6.80,6.81
78.95,12.89,6.11,12.88,6.10,-6.10,-6.00,-5.13,6.78,6.78,6.78
79.74,12.92,6.16,12.91,6.16,-6.16,-6.08,-5.14,6.76,6.76,6.76
80.54,12.95,6.21,12.94,6.21,-6.21,-6.15,-5.15,6.74,6.73,6.74
81.35,12.97,6.26,12.97,6.26,-6.26,-6.23,-5.17,6.70,6.71,6.71
82.16,13.00,6.32,12.99,6.31,-6.31,-6.30,-5.19,6.69,6.69,6.68
82.98,13.02,6.35,13.01,6.35,-6.35,-6.37,-5.22,6.67,6.67,6.67
83.81,13.03,6.39,13.03,6.39,-6.38,-6.43,-5.25,6.64,6.65,6.64
84.65,13.04,6.43,13.03,6.42,-6.41,-6.50,-5.28,6.63,6.62,6.61
85.50,13.04,6.44,13.04,6.44,-6.43,-6.56,-5.31,6.60,6.60,6.60
86.35,13.04,6.46,13.03,6.46,-6.45,-6.62,-5.35,6.58,6.58,6.58
87.22,13.03,6.47,13.03,6.47,-6.47,-6.67,-5.40,6.55,6.55,6.56
88.09,13.02,6.48,13.02,6.48,-6.49,-6.73,-5.45,6.53,6.53,6.54
88.97,13.02,6.50,13.01,6.49,-6.50,-6.78,-5.50,6.51,6.51,6.52
89.86,13.02,6.51,13.01,6.51,-6.52,-6.82,-5.55,6.50,6.50,6.51
90.76,13.02,6.54,13.02,6.53,-6.53,-6.87,-5.61,6.48,6.48,6.48
91.66,13.02,6.56,13.02,6.55,-6.55,-6.90,-5.68,6.47,6.47,6.46
92.58,13.02,6.58,13.02,6.57,-6.57,-6.94,-5.75,6.45,6.45,6.44
93.51,13.02,6.59,13.02,6.59,-6.59,-6.97,-5.82,6.43,6.43,6.43
94.44,13.02,6.61,13.01,6.61,-6.61,-7.00,-5.90,6.40,6.40,6.41
95.39,13.02,6.63,13.01,6.63,-6.64,-7.03,-5.98,6.38,6.37,6.39
96.34,13.02,6.66,13.02,6.66,-6.67,-7.05,-6.06,6.35,6.35,6.36
97.30,13.03,6.70,13.03,6.70,-6.70,-7.07,-6.15,6.33,6.33,6.33
98.28,13.04,6.74,13.03,6.73,-6.73,-7.09,-6.24,6.31,6.31,6.30
99.26,13.04,6.76,13.04,6.76,-6.76,-7.10,-6.34,6.28,6.28,6.28
100.25,13.04,6.79,13.04,6.79,-6.78,-7.11,-6.43,6.25,6.25,6.25
101.25,13.04,6.82,13.03,6.81,-6.81,-7.12,-6.53,6.23,6.22,6.22
102.27,13.02,6.84,13.02,6.84,-6.83,-7.12,-6.63,6.19,6.19,6.18
103.29,13.01,6.86,13.00,6.85,-6.85,-7.12,-6.74,6.16,6.15,6.15
104.32,12.98,6.86,12.98,6.86,-6.87,-7.12,-6.84,6.11,6.11,6.12
105.37,12.96,6.88,12.95,6.88,-6.88,-7.12,-6.95,6.07,6.07,6.08
106.42,12.93,6.90,12.93,6.89,-6.90,-7.12,-7.06,6.02,6.03,6.03
107.48,12.91,6.91,12.90,6.91,-6.92,-7.11,-7.16,5.99,5.98,6.00
108.56,12.88,6.94,12.88,6.94,-6.94,-7.10,-7.27,5.94,5.94,5.94
109.64,12.86,6.97,12.85,6.96,-6.96,-7.09,-7.37,5.90,5.90,5.89
110.74,12.83,6.99,12.82,6.99,-6.98,-7.08,-7.47,5.85,5.85,5.84
111.85,12.79,7.00,12.79,7.00,-7.00,-7.07,-7.57,5.79,5.79,5.79
112.97,12.75,7.03,12.75,7.02,-7.02,-7.06,-7.66,5.73,5.73,5.72
114.10,12.71,7.04,12.71,7.04,-7.04,-7.04,-7.75,5.66,5.66,5.67
115.24,12.67,7.06,12.66,7.06,-7.07,-7.03,-7.83,5.60,5.60,5.61
116.39,12.63,7.09,12.62,7.08,-7.09,-7.01,-7.91,5.53,5.53,5.54
117.55,12.59,7.11,12.59,7.11,-7.12,-7.00,-7.98,5.47,5.47,5.48
118.73,12.57,7.15,12.57,7.15,-7.15,-6.98,-8.04,5.42,5.42,5.42
119.92,12.55,7.18,12.54,7.18,-7.17,-6.97,-8.10,5.37,5.37,5.37
121.12,12.53,7.22,12.52,7.21,-7.20,-6.95,-8.14,5.32,5.32,5.31
122.33,12.50,7.24,12.49,7.24,-7.23,-6.94,-8.18,5.27,5.27,5.26
123.55,12.47,7.26,12.46,7.25,-7.25,-6.92,-8.20,5.22,5.21,5.21
124.79,12.42,7.26,12.42,7.26,-7.27,-6.91,-8.22,5.15,5.16,5.16
126.03,12.39,7.28,12.38,7.28,-7.28,-6.90,-8.22,5.10,5.10,5.11
127.29,12.35,7.29,12.34,7.29,-7.29,-6.88,-8.21,5.05,5.05,5.06
128.57,12.31,7.31,12.31,7.30,-7.30,-6.87,-8.20,5.00,5.00,5.00
129.85,12.27,7.31,12.26,7.31,-7.31,-6.86,-8.17,4.95,4.95,4.96
131.15,12.23,7.32,12.22,7.31,-7.32,-6.85,-8.14,4.91,4.91,4.91
132.46,12.19,7.32,12.19,7.32,-7.32,-6.85,-8.09,4.86,4.87,4.87
133.79,12.16,7.33,12.16,7.33,-7.33,-6.84,-8.04,4.83,4.83,4.83
135.12,12.13,7.34,12.12,7.33,-7.32,-6.83,-7.98,4.80,4.80,4.79
136.48,12.08,7.33,12.07,7.32,-7.31,-6.83,-7.92,4.76,4.76,4.75
137.84,12.01,7.30,12.01,7.31,-7.30,-6.83,-7.85,4.71,4.71,4.71
139.22,11.95,7.29,11.95,7.28,-7.28,-6.82,-7.77,4.66,4.66,4.66
140.61,11.89,7.27,11.89,7.26,-7.26,-6.82,-7.69,4.62,4.62,4.62
142.02,11.83,7.23,11.82,7.23,-7.24,-6.83,-7.61,4.59,4.59,4.60
143.44,11.77,7.21,11.76,7.20,-7.21,-6.83,-7.52,4.55,4.55,4.56
144.87,11.70,7.18,11.70,7.18,-7.18,-6.83,-7.43,4.51,4.51,4.52
146.32,11.64,7.16,11.64,7.16,-7.16,-6.84,-7.34,4.48,4.48,4.48
147.78,11.59,7.14,11.58,7.13,-7.13,-6.84,-7.25,4.45,4.45,4.45
149.26,11.53,7.11,11.52,7.11,-7.11,-6.85,-7.17,4.42,4.41,4.42
150.75,11.46,7.10,11.46,7.09,-7.08,-6.86,-7.08,4.37,4.37,4.36
152.26,11.39,7.07,11.39,7.06,-7.06,-6.87,-6.99,4.32,4.32,4.32
153.78,11.32,7.03,11.32,7.04,-7.04,-6.89,-6.91,4.27,4.27,4.29
155.32,11.26,7.03,11.26,7.02,-7.03,-6.90,-6.83,4.23,4.23,4.23
156.88,11.20,7.00,11.20,7.00,-7.01,-6.92,-6.75,4.19,4.19,4.20
158.44,11.15,7.00,11.14,7.00,-6.99,-6.93,-6.67,4.15,4.15,4.15
160.03,11.09,6.99,11.08,6.98,-6.98,-6.95,-6.60,4.11,4.11,4.10
161.63,11.03,6.98,11.02,6.97,-6.97,-6.97,-6.53,4.06,4.06,4.05
163.24,10.97,6.96,10.97,6.96,-6.96,-6.99,-6.47,4.01,4.01,4.01
164.88,10.91,6.94,10.91,6.95,-6.95,-7.00,-6.41,3.96,3.96,3.97
166.53,10.87,6.95,10.86,6.94,-6.94,-7.02,-6.35,3.93,3.92,3.92
168.19,10.81,6.94,10.80,6.93,-6.93,-7.05,-6.30,3.87,3.87,3.87
169.87,10.75,6.93,10.75,6.93,-6.92,-7.07,-6.25,3.82,3.82,3.82
171.57,10.69,6.91,10.69,6.92,-6.92,-7.09,-6.21,3.77,3.77,3.78
173.29,10.64,6.92,10.63,6.91,-6.91,-7.11,-6.17,3.72,3.72,3.72
175.02,10.58,6.91,10.57,6.91,-6.91,-7.13,-6.14,3.66,3.66,3.67
176.77,10.52,6.91,10.52,6.91,-6.91,-7.15,-6.11,3.61,3.61,3.61
178.54,10.47,6.91,10.46,6.91,-6.91,-7.17,-6.08,3.56,3.56,3.56
180.32,10.42,6.92,10.41,6.91,-6.91,-7.19,-6.07,3.51,3.50,3.50
182.13,10.36,6.91,10.36,6.91,-6.91,-7.21,-6.05,3.45,3.45,3.45
183.95,10.31,6.92,10.30,6.91,-6.91,-7.22,-6.04,3.40,3.40,3.39
185.79,10.25,6.91,10.24,6.91,-6.91,-7.24,-6.04,3.34,3.33,3.34
187.65,10.19,6.92,10.18,6.91,-6.91,-7.25,-6.03,3.27,3.27,3.27
189.52,10.13,6.91,10.13,6.91,-6.92,-7.26,-6.04,3.21,3.21,3.22
191.42,10.08,6.91,10.08,6.91,-6.92,-7.27,-6.04,3.16,3.16,3.17
193.33,10.04,6.92,10.03,6.92,-6.92,-7.28,-6.06,3.11,3.11,3.12
195.27,10.00,6.93,9.99,6.93,-6.93,-7.28,-6.07,3.07,3.07,3.07
197.22,9.96,6.95,9.95,6.94,-6.93,-7.28,-6.09,3.02,3.02,3.01
199.19,9.91,6.95,9.90,6.94,-6.94,-7.28,-6.11,2.97,2.97,2.96
201.18,9.86,6.95,9.85,6.94,-6.94,-7.28,-6.13,2.91,2.91,2.91
203.19,9.81,6.93,9.81,6.94,-6.95,-7.27,-6.16,2.86,2.86,2.88
205.23,9.77,6.95,9.77,6.94,-6.95,-7.25,-6.19,2.82,2.82,2.82
207.28,9.74,6.94,9.73,6.95,-6.95,-7.23,-6.22,2.78,2.78,2.80
209.35,9.71,6.97,9.70,6.96,-6.95,-7.21,-6.25,2.75,2.75,2.74
211.44,9.66,6.97,9.65,6.96,-6.95,-7.18,-6.28,2.70,2.70,2.69
213.56,9.61,6.96,9.61,6.96,-6.96,-7.14,-6.31,2.65,2.65,2.65
215.69,9.57,6.94,9.57,6.95,-6.96,-7.10,-6.34,2.61,2.61,2.63
217.85,9.54,6.95,9.54,6.95,-6.96,-7.06,-6.37,2.58,2.58,2.59
220.03,9.51,6.96,9.51,6.95,-6.95,-7.00,-6.39,2.55,2.55,2.55
222.23,9.48,6.96,9.47,6.95,-6.94,-6.95,-6.42,2.53,2.53,2.52
224.45,9.43,6.93,9.43,6.94,-6.92,-6.88,-6.44,2.50,2.50,2.50
226.70,9.38,6.91,9.37,6.91,-6.90,-6.81,-6.45,2.48,2.47,2.47
228.96,9.32,6.88,9.31,6.87,-6.87,-6.73,-6.46,2.45,2.44,2.44
231.25,9.25,6.82,9.25,6.82,-6.83,-6.65,-6.47,2.42,2.42,2.43
233.57,9.18,6.77,9.18,6.77,-6.77,-6.56,-6.46,2.40,2.41,2.41
235.90,9.11,6.71,9.11,6.71,-6.71,-6.47,-6.45,2.40,2.40,2.40
238.26,9.04,6.65,9.03,6.64,-6.64,-6.36,-6.43,2.40,2.39,2.39
240.64,8.94,6.56,8.94,6.56,-6.55,-6.25,-6.40,2.39,2.39,2.38
243.05,8.84,6.46,8.83,6.46,-6.45,-6.14,-6.37,2.38,2.38,2.38
245.48,8.72,6.35,8.72,6.35,-6.35,-6.02,-6.32,2.37,2.37,2.37
247.93,8.60,6.23,8.60,6.23,-6.23,-5.89,-6.26,2.37,2.37,2.37
250.41,8.48,6.11,8.47,6.10,-6.10,-5.76,-6.19,2.38,2.37,2.37
252.92,8.34,5.96,8.34,5.96,-5.96,-5.63,-6.11,2.38,2.38,2.38
255.45,8.20,5.81,8.20,5.81,-5.81,-5.48,-6.02,2.39,2.39,2.39
258.00,8.05,5.65,8.05,5.65,-5.65,-5.34,-5.92,2.39,2.39,2.40
260.58,7.90,5.50,7.89,5.49,-5.49,-5.19,-5.80,2.40,2.40,2.40
263.19,7.74,5.33,7.74,5.33,-5.33,-5.03,-5.68,2.40,2.40,2.41
265.82,7.58,5.16,7.58,5.16,-5.16,-4.87,-5.55,2.41,2.42,2.42
268.48,7.43,4.99,7.43,4.99,-4.99,-4.71,-5.41,2.43,2.43,2.44
271.16,7.28,4.82,7.27,4.82,-4.82,-4.54,-5.26,2.45,2.45,2.46
273.87,7.12,4.66,7.11,4.65,-4.64,-4.37,-5.10,2.47,2.47,2.46
276.61,6.95,4.46,6.95,4.47,-4.46,-4.20,-4.93,2.48,2.48,2.49
279.38,6.78,4.29,6.78,4.28,-4.28,-4.02,-4.76,2.50,2.50,2.49
282.17,6.60,4.09,6.59,4.09,-4.09,-3.84,-4.59,2.51,2.51,2.51
284.99,6.42,3.90,6.41,3.90,-3.89,-3.66,-4.40,2.52,2.52,2.52
287.84,6.22,3.69,6.22,3.69,-3.69,-3.48,-4.22,2.52,2.53,2.53
290.72,6.04,3.50,6.03,3.49,-3.48,-3.29,-4.02,2.55,2.55,2.54
293.63,5.84,3.28,5.83,3.27,-3.27,-3.11,-3.83,2.56,2.56,2.56
296.57,5.63,3.05,5.63,3.05,-3.05,-2.92,-3.63,2.57,2.57,2.58
299.53,5.41,2.83,5.41,2.83,-2.83,-2.73,-3.43,2.58,2.58,2.58
302.53,5.20,2.61,5.19,2.60,-2.60,-2.54,-3.23,2.60,2.59,2.59
305.55,4.98,2.37,4.98,2.37,-2.37,-2.35,-3.03,2.61,2.61,2.61
308.61,4.76,2.14,4.76,2.14,-2.13,-2.16,-2.82,2.63,2.63,2.62
311.69,4.54,1.91,4.53,1.89,-1.89,-1.96,-2.61,2.64,2.64,2.63
314.81,4.30,1.64,4.30,1.65,-1.66,-1.77,-2.41,2.64,2.64,2.66
317.96,4.06,1.41,4.06,1.41,-1.42,-1.58,-2.20,2.64,2.64,2.65
321.14,3.84,1.18,3.83,1.17,-1.19,-1.39,-1.99,2.65,2.65,2.66
324.35,3.61,0.95,3.61,0.95,-0.95,-1.19,-1.78,2.65,2.66,2.66
327.59,3.39,0.72,3.39,0.72,-0.72,-1.00,-1.58,2.67,2.67,2.67
330.87,3.17,0.50,3.16,0.49,-0.48,-0.81,-1.37,2.68,2.68,2.67
334.18,2.94,0.27,2.94,0.26,-0.25,-0.62,-1.16,2.68,2.68,2.67
337.52,2.71,0.03,2.70,0.03,-0.02,-0.43,-0.95,2.69,2.68,2.68
340.90,2.47,-0.21,2.47,-0.21,0.21,-0.24,-0.74,2.68,2.68,2.68
344.30,2.24,-0.44,2.23,-0.45,0.44,-0.05,-0.53,2.68,2.68,2.68
347.75,2.01,-0.67,2.00,-0.68,0.67,0.14,-0.32,2.68,2.68,2.68
351.23,1.78,-0.90,1.78,-0.90,0.90,0.33,-0.11,2.67,2.68,2.68
354.74,1.57,-1.11,1.56,-1.11,1.11,0.52,0.09,2.68,2.67,2.68
358.28,1.35,-1.31,1.34,-1.32,1.32,0.70,0.30,2.67,2.67,2.66
361.87,1.14,-1.52,1.14,-1.52,1.52,0.89,0.51,2.66,2.66,2.66
365.49,0.94,-1.72,0.94,-1.72,1.71,1.07,0.72,2.65,2.65,2.66
369.14,0.76,-1.89,0.76,-1.89,1.89,1.25,0.93,2.64,2.65,2.65
372.83,0.60,-2.05,0.59,-2.06,2.05,1.43,1.14,2.65,2.64,2.65
376.56,0.44,-2.20,0.43,-2.21,2.20,1.60,1.35,2.64,2.64,2.64
380.33,0.29,-2.34,0.29,-2.34,2.34,1.78,1.56,2.63,2.63,2.63
384.13,0.15,-2.47,0.15,-2.47,2.46,1.95,1.77,2.61,2.62,2.62
387.97,0.04,-2.57,0.03,-2.58,2.58,2.12,1.98,2.61,2.61,2.61
391.85,-0.07,-2.67,-0.07,-2.68,2.67,2.29,2.19,2.60,2.60,2.60
395.77,-0.16,-2.77,-0.16,-2.77,2.76,2.46,2.39,2.60,2.60,2.61
399.73,-0.24,-2.84,-0.25,-2.84,2.84,2.62,2.60,2.60,2.59,2.60
403.72,-0.32,-2.91,-0.32,-2.91,2.91,2.78,2.81,2.59,2.59,2.59
407.76,-0.39,-2.97,-0.39,-2.98,2.98,2.93,3.02,2.59,2.59,2.58
411.84,-0.45,-3.04,-0.46,-3.04,3.04,3.09,3.22,2.59,2.58,2.59
415.96,-0.52,-3.09,-0.52,-3.10,3.10,3.24,3.42,2.58,2.58,2.57
420.12,-0.59,-3.16,-0.59,-3.16,3.16,3.38,3.63,2.57,2.57,2.57
424.32,-0.65,-3.22,-0.66,-3.22,3.22,3.53,3.82,2.57,2.56,2.57
428.56,-0.72,-3.28,-0.72,-3.28,3.28,3.67,4.02,2.56,2.56,2.56
432.85,-0.78,-3.34,-0.79,-3.35,3.35,3.80,4.21,2.56,2.56,2.56
437.18,-0.85,-3.41,-0.85,-3.42,3.42,3.93,4.40,2.56,2.56,2.56
441.55,-0.92,-3.49,-0.92,-3.49,3.49,4.06,4.58,2.56,2.57,2.57
445.96,-0.99,-3.56,-1.00,-3.57,3.57,4.18,4.76,2.57,2.56,2.57
450.42,-1.08,-3.64,-1.08,-3.65,3.65,4.30,4.93,2.56,2.57,2.56
454.93,-1.17,-3.74,-1.16,-3.73,3.74,4.41,5.09,2.56,2.57,2.57
459.48,-1.24,-3.81,-1.25,-3.83,3.83,4.52,5.24,2.58,2.57,2.57
464.07,-1.34,-3.92,-1.35,-3.93,3.93,4.62,5.38,2.58,2.58,2.58
468.71,-1.45,-4.04,-1.45,-4.03,4.03,4.71,5.52,2.58,2.58,2.59
473.40,-1.55,-4.13,-1.56,-4.14,4.14,4.81,5.64,2.59,2.58,2.58
478.13,-1.66,-4.25,-1.66,-4.25,4.25,4.89,5.75,2.59,2.59,2.59
482.91,-1.77,-4.36,-1.77,-4.37,4.37,4.97,5.85,2.59,2.60,2.59
487.74,-1.88,-4.48,-1.89,-4.49,4.49,5.05,5.93,2.60,2.60,2.60
492.62,-2.00,-4.61,-2.00,-4.61,4.60,5.12,6.00,2.60,2.60,2.61
497.55,-2.11,-4.72,-2.11,-4.72,4.72,5.18,6.06,2.60,2.61,2.61
502.52,-2.21,-4.83,-2.22,-4.83,4.83,5.24,6.11,2.62,2.61,2.62
507.55,-2.31,-4.93,-2.32,-4.94,4.94,5.29,6.14,2.63,2.62,2.62
512.62,-2.42,-5.04,-2.42,-5.04,5.05,5.34,6.15,2.62,2.63,2.62
517.75,-2.52,-5.15,-2.52,-5.15,5.15,5.38,6.16,2.62,2.63,2.63
