frequency,raw,error,smoothed,error_smoothed,equalization,parametric_eq,fixed_band_eq,equalized_raw,equalized_smoothed,target
20.00,5.66,0.46,5.65,0.45,-0.45,-0.57,-0.38,5.21,5.21,5.20
20.20,5.71,0.46,5.71,0.46,-0.46,-0.57,-0.39,5.25,5.25,5.25
20.40,5.77,0.47,5.77,0.47,-0.48,-0.57,-0.40,5.29,5.29,5.30
20.61,5.82,0.49,5.82,0.48,-0.49,-0.57,-0.41,5.33,5.33,5.33
20.81,5.87,0.49,5.87,0.49,-0.49,-0.58,-0.42,5.37,5.38,5.38
21.02,5.92,0.50,5.91,0.50,-0.50,-0.58,-0.43,5.42,5.41,5.42
21.23,5.94,0.50,5.94,0.50,-0.50,-0.58,-0.45,5.44,5.44,5.44
21.44,5.96,0.50,5.97,0.50,-0.50,-0.58,-0.46,5.46,5.46,5.46
21.66,5.99,0.51,5.99,0.51,-0.50,-0.59,-0.47,5.49,5.49,5.48
21.87,6.01,0.52,6.00,0.51,-0.49,-0.59,-0.48,5.52,5.51,5.49
22.09,6.01,0.50,6.00,0.50,-0.48,-0.59,-0.50,5.53,5.53,5.51
22.31,5.99,0.47,5.99,0.48,-0.47,-0.60,-0.51,5.52,5.53,5.52
22.54,5.98,0.46,5.97,0.45,-0.46,-0.60,-0.53,5.51,5.51,5.52
22.76,5.96,0.44,5.95,0.44,-0.47,-0.60,-0.54,5.49,5.49,5.52
22.99,5.94,0.43,5.96,0.44,-0.48,-0.60,-0.56,5.46,5.48,5.51
23.22,5.98,0.47,5.97,0.46,-0.49,-0.61,-0.57,5.49,5.49,5.51
23.45,6.02,0.51,6.02,0.50,-0.50,-0.61,-0.59,5.51,5.51,5.51
23.69,6.06,0.54,6.06,0.55,-0.52,-0.61,-0.61,5.54,5.54,5.52
23.92,6.11,0.59,6.09,0.57,-0.54,-0.62,-0.62,5.57,5.56,5.52
24.16,6.11,0.59,6.11,0.58,-0.55,-0.62,-0.64,5.56,5.55,5.52
24.40,6.10,0.57,6.10,0.58,-0.57,-0.62,-0.66,5.53,5.53,5.53
24.65,6.09,0.57,6.09,0.56,-0.58,-0.63,-0.67,5.51,5.50,5.52
24.89,6.08,0.56,6.09,0.56,-0.59,-0.63,-0.69,5.48,5.49,5.52
25.14,6.10,0.58,6.10,0.58,-0.61,-0.63,-0.71,5.49,5.49,5.52
25.39,6.14,0.61,6.13,0.61,-0.62,-0.64,-0.73,5.52,5.51,5.53
25.65,6.17,0.64,6.17,0.65,-0.64,-0.64,-0.74,5.53,5.53,5.53
25.91,6.21,0.69,6.20,0.68,-0.66,-0.65,-0.76,5.55,5.54,5.52
26.16,6.22,0.70,6.22,0.69,-0.67,-0.65,-0.78,5.55,5.54,5.52
26.43,6.22,0.70,6.22,0.70,-0.68,-0.65,-0.80,5.53,5.54,5.52
26.69,6.22,0.70,6.22,0.70,-0.69,-0.66,-0.82,5.53,5.53,5.52
26.96,6.22,0.70,6.22,0.70,-0.70,-0.66,-0.83,5.52,5.52,5.52
27.23,6.22,0.70,6.21,0.69,-0.70,-0.67,-0.85,5.52,5.51,5.52
27.50,6.21,0.69,6.21,0.69,-0.71,-0.67,-0.87,5.50,5.50,5.52
27.77,6.21,0.70,6.21,0.70,-0.72,-0.67,-0.88,5.49,5.49,5.51
28.05,6.22,0.71,6.22,0.71,-0.73,-0.68,-0.90,5.49,5.49,5.51
28.33,6.25,0.75,6.25,0.74,-0.75,-0.68,-0.91,5.50,5.50,5.50
28.62,6.28,0.78,6.28,0.78,-0.77,-0.69,-0.93,5.51,5.51,5.50
28.90,6.32,0.81,6.31,0.81,-0.79,-0.69,-0.94,5.53,5.52,5.51
29.19,6.33,0.83,6.33,0.82,-0.80,-0.70,-0.95,5.53,5.53,5.50
29.48,6.33,0.82,6.33,0.83,-0.81,-0.70,-0.96,5.52,5.52,5.51
29.78,6.33,0.83,6.33,0.82,-0.81,-0.71,-0.98,5.51,5.52,5.50
30.08,6.33,0.82,6.32,0.82,-0.82,-0.71,-0.98,5.51,5.51,5.51
30.38,6.32,0.82,6.31,0.81,-0.82,-0.72,-0.99,5.49,5.49,5.50
30.68,6.31,0.81,6.31,0.81,-0.83,-0.72,-1.00,5.48,5.47,5.50
30.99,6.30,0.80,6.31,0.82,-0.84,-0.73,-1.01,5.45,5.47,5.50
31.30,6.34,0.85,6.34,0.84,-0.86,-0.73,-1.01,5.48,5.48,5.49
31.61,6.38,0.89,6.38,0.88,-0.88,-0.74,-1.02,5.50,5.50,5.49
31.93,6.42,0.93,6.41,0.92,-0.90,-0.74,-1.02,5.52,5.51,5.49
32.24,6.43,0.95,6.43,0.94,-0.92,-0.75,-1.02,5.51,5.51,5.48
32.57,6.43,0.95,6.43,0.95,-0.94,-0.76,-1.02,5.49,5.49,5.48
32.89,6.43,0.95,6.43,0.95,-0.95,-0.76,-1.02,5.48,5.48,5.48
33.22,6.43,0.96,6.43,0.95,-0.96,-0.77,-1.02,5.47,5.47,5.47
33.55,6.43,0.96,6.43,0.96,-0.97,-0.77,-1.02,5.46,5.46,5.47
33.89,6.43,0.97,6.43,0.97,-0.97,-0.78,-1.01,5.46,5.46,5.46
34.23,6.43,0.97,6.43,0.97,-0.97,-0.79,-1.01,5.46,5.46,5.46
34.57,6.43,0.98,6.43,0.98,-0.98,-0.79,-1.00,5.45,5.45,5.45
34.92,6.43,0.98,6.43,0.98,-0.98,-0.80,-1.00,5.45,5.45,5.45
35.27,6.43,0.99,6.43,0.99,-0.98,-0.81,-0.99,5.44,5.44,5.44
35.62,6.43,0.99,6.43,0.99,-0.99,-0.81,-0.99,5.44,5.44,5.44
35.97,6.43,0.99,6.43,0.99,-0.99,-0.82,-0.98,5.44,5.44,5.44
36.33,6.43,0.99,6.43,0.99,-0.99,-0.83,-0.97,5.44,5.44,5.44
36.70,6.43,1.00,6.43,0.99,-1.00,-0.84,-0.97,5.43,5.43,5.43
37.06,6.43,1.00,6.43,0.99,-1.00,-0.84,-0.96,5.43,5.43,5.43
37.43,6.43,0.99,6.43,0.99,-1.00,-0.85,-0.95,5.43,5.43,5.44
37.81,6.43,0.99,6.43,0.99,-0.99,-0.86,-0.94,5.43,5.43,5.44
38.19,6.43,1.00,6.44,1.00,-0.98,-0.87,-0.94,5.44,5.45,5.43
38.57,6.44,1.00,6.44,1.00,-0.97,-0.87,-0.93,5.46,5.47,5.44
38.95,6.45,1.00,6.43,0.99,-0.96,-0.88,-0.92,5.48,5.47,5.45
39.34,6.41,0.97,6.40,0.96,-0.96,-0.89,-0.92,5.45,5.44,5.44
39.74,6.36,0.92,6.37,0.93,-0.96,-0.90,-0.91,5.40,5.41,5.44
40.14,6.34,0.90,6.36,0.92,-0.96,-0.91,-0.90,5.38,5.40,5.44
40.54,6.38,0.94,6.37,0.94,-0.96,-0.92,-0.90,5.42,5.42,5.44
40.94,6.42,0.99,6.40,0.97,-0.96,-0.93,-0.89,5.45,5.44,5.43
41.35,6.43,1.00,6.43,1.00,-0.97,-0.94,-0.89,5.46,5.45,5.43
41.76,6.43,1.01,6.43,1.01,-0.99,-0.94,-0.88,5.44,5.44,5.42
42.18,6.43,1.01,6.43,1.01,-1.01,-0.95,-0.88,5.42,5.42,5.42
42.60,6.43,1.02,6.43,1.02,-1.03,-0.96,-0.88,5.40,5.40,5.41
43.03,6.43,1.03,6.43,1.03,-1.04,-0.97,-0.88,5.39,5.39,5.40
43.46,6.43,1.04,6.43,1.04,-1.05,-0.98,-0.87,5.37,5.37,5.39
43.90,6.43,1.06,6.43,1.06,-1.06,-0.99,-0.87,5.37,5.37,5.37
44.33,6.43,1.08,6.43,1.08,-1.07,-1.00,-0.87,5.36,5.36,5.35
44.78,6.43,1.10,6.42,1.09,-1.07,-1.01,-0.87,5.36,5.35,5.33
45.23,6.41,1.09,6.41,1.09,-1.07,-1.02,-0.87,5.34,5.33,5.32
45.68,6.38,1.07,6.38,1.07,-1.07,-1.04,-0.88,5.31,5.31,5.31
46.13,6.36,1.07,6.36,1.06,-1.07,-1.05,-0.88,5.29,5.29,5.29
46.60,6.34,1.05,6.34,1.06,-1.07,-1.06,-0.88,5.27,5.27,5.29
47.06,6.33,1.06,6.33,1.06,-1.07,-1.07,-0.88,5.26,5.26,5.27
47.53,6.33,1.07,6.33,1.06,-1.08,-1.08,-0.89,5.25,5.25,5.26
48.01,6.33,1.07,6.33,1.07,-1.08,-1.09,-0.89,5.25,5.25,5.26
48.49,6.33,1.09,6.33,1.09,-1.09,-1.10,-0.90,5.24,5.24,5.24
48.97,6.33,1.11,6.33,1.11,-1.10,-1.12,-0.90,5.23,5.23,5.22
49.46,6.32,1.12,6.32,1.12,-1.10,-1.13,-0.91,5.22,5.22,5.20
49.96,6.31,1.13,6.30,1.11,-1.10,-1.14,-0.92,5.21,5.20,5.18
50.46,6.27,1.10,6.26,1.10,-1.09,-1.16,-0.92,5.18,5.18,5.17
50.96,6.22,1.06,6.23,1.07,-1.07,-1.17,-0.93,5.14,5.16,5.16
51.47,6.20,1.06,6.20,1.06,-1.06,-1.18,-0.94,5.14,5.14,5.14
51.99,6.18,1.05,6.17,1.04,-1.05,-1.20,-0.95,5.13,5.12,5.13
52.51,6.15,1.03,6.15,1.02,-1.04,-1.21,-0.96,5.11,5.11,5.12
53.03,6.12,1.00,6.13,1.01,-1.03,-1.22,-0.97,5.09,5.10,5.12
53.56,6.12,1.02,6.12,1.01,-1.03,-1.24,-0.98,5.09,5.09,5.10
54.10,6.12,1.03,6.11,1.03,-1.03,-1.25,-0.99,5.09,5.08,5.09
54.64,6.12,1.05,6.12,1.05,-1.03,-1.27,-1.00,5.09,5.09,5.07
55.18,6.12,1.05,6.12,1.06,-1.03,-1.28,-1.02,5.09,5.09,5.07
55.74,6.12,1.07,6.11,1.05,-1.03,-1.30,-1.03,5.09,5.07,5.05
56.29,6.09,1.05,6.08,1.04,-1.03,-1.31,-1.04,5.05,5.04,5.04
56.86,6.03,1.00,6.05,1.02,-1.04,-1.33,-1.05,4.99,5.01,5.03
57.42,6.02,1.02,6.02,1.01,-1.04,-1.34,-1.07,4.98,4.98,5.00
58.00,6.02,1.03,6.01,1.02,-1.04,-1.36,-1.08,4.98,4.98,4.99
58.58,6.02,1.04,6.02,1.04,-1.04,-1.38,-1.09,4.98,4.99,4.98
59.16,6.02,1.06,6.02,1.06,-1.04,-1.39,-1.11,4.98,4.98,4.96
59.76,6.02,1.08,6.00,1.07,-1.05,-1.41,-1.12,4.97,4.95,4.94
60.35,5.98,1.08,5.97,1.07,-1.07,-1.43,-1.14,4.91,4.90,4.90
60.96,5.92,1.06,5.94,1.08,-1.09,-1.44,-1.15,4.83,4.85,4.86
61.57,5.92,1.10,5.92,1.10,-1.12,-1.46,-1.17,4.80,4.80,4.82
62.18,5.92,1.14,5.91,1.13,-1.15,-1.48,-1.18,4.77,4.76,4.78
62.80,5.92,1.19,5.92,1.18,-1.18,-1.50,-1.20,4.74,4.74,4.73
63.43,5.92,1.23,5.92,1.23,-1.22,-1.52,-1.22,4.70,4.70,4.69
64.07,5.92,1.28,5.92,1.27,-1.27,-1.54,-1.23,4.65,4.65,4.64
64.71,5.92,1.32,5.92,1.32,-1.31,-1.55,-1.25,4.60,4.60,4.60
65.35,5.92,1.36,5.92,1.36,-1.36,-1.57,-1.26,4.56,4.56,4.56
66.01,5.92,1.41,5.92,1.41,-1.41,-1.59,-1.28,4.51,4.51,4.51
66.67,5.92,1.46,5.92,1.46,-1.46,-1.61,-1.30,4.46,4.46,4.46
67.33,5.92,1.51,5.92,1.50,-1.50,-1.63,-1.32,4.42,4.42,4.41
68.01,5.92,1.55,5.92,1.55,-1.55,-1.66,-1.34,4.37,4.37,4.37
68.69,5.92,1.60,5.92,1.60,-1.60,-1.68,-1.36,4.32,4.32,4.32
69.37,5.92,1.65,5.92,1.65,-1.65,-1.70,-1.38,4.27,4.27,4.27
70.07,5.92,1.70,5.92,1.70,-1.70,-1.72,-1.40,4.22,4.22,4.22
70.77,5.92,1.75,5.92,1.75,-1.76,-1.74,-1.42,4.16,4.16,4.17
71.48,5.92,1.80,5.92,1.80,-1.82,-1.76,-1.44,4.10,4.10,4.12
72.19,5.92,1.87,5.92,1.86,-1.87,-1.79,-1.46,4.04,4.04,4.05
72.91,5.92,1.93,5.92,1.92,-1.92,-1.81,-1.49,3.99,4.00,3.99
73.64,5.92,1.98,5.92,1.99,-1.97,-1.83,-1.51,3.95,3.96,3.94
74.38,5.92,2.04,5.92,2.04,-2.00,-1.86,-1.54,3.92,3.92,3.88
75.12,5.91,2.09,5.88,2.06,-2.03,-1.88,-1.56,3.88,3.85,3.82
75.87,5.83,2.07,5.83,2.07,-2.06,-1.90,-1.59,3.77,3.77,3.76
76.63,5.76,2.05,5.77,2.06,-2.09,-1.93,-1.62,3.67,3.69,3.71
77.40,5.72,2.06,5.73,2.07,-2.11,-1.95,-1.65,3.61,3.61,3.66
78.17,5.72,2.12,5.71,2.11,-2.14,-1.98,-1.68,3.58,3.57,3.60
78.95,5.72,2.16,5.71,2.16,-2.17,-2.00,-1.72,3.55,3.54,3.56
79.74,5.72,2.21,5.72,2.21,-2.20,-2.03,-1.75,3.52,3.52,3.51
80.54,5.72,2.26,5.72,2.26,-2.24,-2.06,-1.79,3.48,3.49,3.46
81.35,5.72,2.31,5.71,2.30,-2.27,-2.08,-1.82,3.44,3.44,3.41
82.16,5.71,2.35,5.69,2.33,-2.31,-2.11,-1.86,3.40,3.38,3.36
82.98,5.65,2.33,5.66,2.35,-2.35,-2.14,-1.90,3.30,3.32,3.32
83.81,5.63,2.36,5.63,2.36,-2.38,-2.16,-1.94,3.25,3.25,3.27
84.65,5.62,2.40,5.62,2.39,-2.42,-2.19,-1.99,3.20,3.19,3.22
85.50,5.62,2.44,5.62,2.44,-2.46,-2.22,-2.03,3.16,3.16,3.18
86.35,5.62,2.49,5.62,2.49,-2.50,-2.25,-2.08,3.12,3.12,3.13
87.22,5.62,2.54,5.62,2.54,-2.54,-2.28,-2.13,3.08,3.08,3.08
88.09,5.62,2.59,5.63,2.60,-2.57,-2.31,-2.18,3.05,3.06,3.03
88.97,5.62,2.65,5.62,2.65,-2.60,-2.34,-2.23,3.02,3.02,2.97
89.86,5.62,2.70,5.58,2.66,-2.63,-2.37,-2.28,2.99,2.95,2.92
90.76,5.51,2.64,5.52,2.65,-2.65,-2.40,-2.33,2.85,2.87,2.87
91.66,5.44,2.62,5.46,2.65,-2.68,-2.43,-2.39,2.76,2.79,2.82
92.58,5.43,2.67,5.42,2.66,-2.70,-2.46,-2.45,2.72,2.72,2.76
93.51,5.43,2.72,5.42,2.71,-2.73,-2.49,-2.51,2.70,2.69,2.71
94.44,5.43,2.76,5.43,2.76,-2.76,-2.53,-2.57,2.67,2.67,2.67
95.39,5.43,2.81,5.43,2.81,-2.80,-2.56,-2.63,2.63,2.63,2.62
96.34,5.42,2.85,5.42,2.85,-2.84,-2.59,-2.69,2.58,2.58,2.57
97.30,5.42,2.90,5.41,2.89,-2.89,-2.62,-2.76,2.53,2.53,2.52
98.28,5.41,2.94,5.40,2.93,-2.93,-2.66,-2.82,2.47,2.47,2.47
99.26,5.39,2.96,5.39,2.97,-2.97,-2.69,-2.89,2.42,2.42,2.43
100.25,5.38,3.00,5.38,3.00,-2.99,-2.73,-2.96,2.38,2.38,2.38
101.25,5.36,3.03,5.36,3.03,-3.01,-2.76,-3.03,2.35,2.35,2.33
102.27,5.33,3.05,5.32,3.04,-3.02,-2.80,-3.10,2.31,2.30,2.28
103.29,5.27,3.04,5.27,3.04,-3.02,-2.83,-3.17,2.25,2.25,2.23
104.32,5.21,3.02,5.21,3.03,-3.02,-2.87,-3.24,2.19,2.19,2.19
105.37,5.17,3.03,5.15,3.01,-3.02,-2.90,-3.31,2.15,2.13,2.14
106.42,5.08,2.99,5.09,3.00,-3.02,-2.94,-3.38,2.05,2.07,2.09
107.48,5.04,3.01,5.04,3.01,-3.03,-2.98,-3.44,2.01,2.01,2.03
108.56,5.01,3.03,5.01,3.03,-3.04,-3.01,-3.51,1.97,1.96,1.98
109.64,4.99,3.06,4.99,3.06,-3.06,-3.05,-3.58,1.93,1.93,1.93
110.74,4.98,3.11,4.97,3.10,-3.09,-3.09,-3.64,1.88,1.88,1.87
111.85,4.96,3.13,4.96,3.14,-3.13,-3.12,-3.70,1.83,1.83,1.83
112.97,4.95,3.18,4.95,3.18,-3.17,-3.16,-3.76,1.77,1.77,1.77
114.10,4.94,3.22,4.94,3.22,-3.22,-3.20,-3.82,1.72,1.72,1.72
115.24,4.94,3.27,4.94,3.27,-3.27,-3.24,-3.88,1.67,1.67,1.67
116.39,4.94,3.32,4.94,3.32,-3.31,-3.28,-3.93,1.62,1.63,1.62
117.55,4.95,3.37,4.94,3.36,-3.36,-3.32,-3.97,1.59,1.59,1.58
118.73,4.95,3.41,4.95,3.41,-3.40,-3.36,-4.02,1.54,1.55,1.54
119.92,4.96,3.45,4.95,3.45,-3.45,-3.40,-4.06,1.51,1.51,1.51
121.12,4.96,3.49,4.96,3.49,-3.49,-3.44,-4.10,1.47,1.47,1.47
122.33,4.97,3.53,4.97,3.53,-3.53,-3.48,-4.12,1.44,1.44,1.44
123.55,4.98,3.57,4.98,3.57,-3.57,-3.52,-4.15,1.41,1.41,1.41
124.79,4.99,3.61,4.98,3.60,-3.61,-3.55,-4.17,1.38,1.37,1.38
126.03,4.99,3.64,4.99,3.64,-3.65,-3.59,-4.19,1.34,1.34,1.35
127.29,5.00,3.67,5.00,3.68,-3.68,-3.63,-4.20,1.32,1.32,1.33
128.57,5.01,3.72,5.01,3.72,-3.71,-3.67,-4.21,1.30,1.30,1.29
129.85,5.01,3.75,5.01,3.75,-3.73,-3.71,-4.21,1.27,1.27,1.26
131.15,5.01,3.78,4.99,3.76,-3.75,-3.75,-4.21,1.26,1.24,1.23
132.46,4.95,3.75,4.97,3.77,-3.75,-3.79,-4.21,1.20,1.22,1.20
133.79,4.93,3.76,4.94,3.77,-3.75,-3.83,-4.20,1.18,1.19,1.17
135.12,4.92,3.78,4.89,3.75,-3.75,-3.87,-4.19,1.17,1.15,1.14
136.48,4.86,3.74,4.84,3.73,-3.74,-3.91,-4.17,1.12,1.10,1.12
137.84,4.75,3.67,4.78,3.70,-3.72,-3.95,-4.15,1.02,1.06,1.08
139.22,4.74,3.69,4.74,3.69,-3.71,-3.99,-4.13,1.03,1.03,1.05
140.61,4.74,3.72,4.74,3.71,-3.70,-4.03,-4.11,1.04,1.03,1.02
142.02,4.74,3.74,4.71,3.72,-3.70,-4.06,-4.09,1.04,1.02,1.00
143.44,4.70,3.73,4.68,3.71,-3.70,-4.10,-4.06,1.00,0.98,0.97
144.87,4.60,3.67,4.65,3.72,-3.71,-4.14,-4.03,0.89,0.94,0.93
146.32,4.64,3.75,4.63,3.73,-3.74,-4.18,-4.01,0.90,0.89,0.89
147.78,4.65,3.79,4.62,3.76,-3.79,-4.21,-3.98,0.86,0.83,0.86
149.26,4.63,3.82,4.63,3.83,-3.86,-4.25,-3.95,0.77,0.78,0.81
150.75,4.62,3.87,4.64,3.89,-3.94,-4.28,-3.93,0.67,0.70,0.75
152.26,4.70,4.02,4.68,4.00,-4.04,-4.32,-3.90,0.65,0.64,0.68
153.78,4.74,4.13,4.75,4.14,-4.15,-4.35,-3.88,0.59,0.60,0.61
155.32,4.82,4.28,4.81,4.27,-4.25,-4.38,-3.86,0.56,0.55,0.54
156.88,4.86,4.40,4.85,4.39,-4.34,-4.41,-3.83,0.51,0.51,0.46
158.44,4.85,4.47,4.87,4.49,-4.42,-4.44,-3.82,0.43,0.45,0.38
160.03,4.86,4.56,4.83,4.52,-4.46,-4.47,-3.80,0.40,0.36,0.30
161.63,4.75,4.52,4.75,4.51,-4.48,-4.50,-3.78,0.27,0.26,0.23
163.24,4.64,4.47,4.65,4.48,-4.48,-4.53,-3.77,0.16,0.17,0.17
164.88,4.54,4.42,4.56,4.44,-4.46,-4.56,-3.76,0.08,0.10,0.12
166.53,4.50,4.43,4.48,4.41,-4.44,-4.58,-3.75,0.06,0.04,0.07
168.19,4.44,4.41,4.41,4.38,-4.41,-4.61,-3.74,0.02,-0.01,0.03
169.87,4.33,4.34,4.35,4.36,-4.39,-4.63,-3.74,-0.06,-0.04,-0.01
171.57,4.31,4.34,4.34,4.36,-4.38,-4.65,-3.74,-0.07,-0.05,-0.03
173.29,4.36,4.40,4.35,4.39,-4.39,-4.68,-3.74,-0.03,-0.03,-0.04
175.02,4.42,4.47,4.39,4.44,-4.41,-4.70,-3.75,0.01,-0.02,-0.05
176.77,4.40,4.46,4.39,4.45,-4.44,-4.71,-3.76,-0.04,-0.05,-0.06
178.54,4.38,4.45,4.39,4.45,-4.48,-4.73,-3.77,-0.10,-0.09,-0.07
180.32,4.38,4.44,4.43,4.49,-4.52,-4.75,-3.78,-0.14,-0.09,-0.06
182.13,4.52,4.57,4.50,4.56,-4.56,-4.76,-3.80,-0.05,-0.06,-0.05
183.95,4.63,4.69,4.58,4.64,-4.61,-4.77,-3.82,0.02,-0.02,-0.06
185.79,4.63,4.69,4.64,4.70,-4.66,-4.78,-3.84,-0.03,-0.02,-0.06
187.65,4.64,4.72,4.64,4.71,-4.71,-4.79,-3.87,-0.08,-0.08,-0.08
189.52,4.64,4.73,4.64,4.73,-4.77,-4.80,-3.90,-0.13,-0.13,-0.09
191.42,4.65,4.76,4.68,4.79,-4.83,-4.81,-3.93,-0.18,-0.15,-0.11
193.33,4.74,4.87,4.73,4.86,-4.87,-4.81,-3.96,-0.13,-0.14,-0.13
195.27,4.80,4.95,4.78,4.93,-4.90,-4.82,-3.99,-0.10,-0.12,-0.15
197.22,4.81,4.98,4.81,4.98,-4.93,-4.82,-4.03,-0.12,-0.11,-0.17
199.19,4.82,5.01,4.80,4.99,-4.95,-4.82,-4.07,-0.14,-0.16,-0.19
201.18,4.76,4.97,4.76,4.98,-4.98,-4.82,-4.11,-0.22,-0.21,-0.21
203.19,4.72,4.95,4.74,4.97,-5.00,-4.82,-4.16,-0.28,-0.26,-0.23
205.23,4.73,4.98,4.72,4.97,-5.01,-4.81,-4.20,-0.28,-0.28,-0.25
207.28,4.74,5.00,4.73,4.99,-5.02,-4.81,-4.25,-0.28,-0.29,-0.26
209.35,4.74,5.02,4.73,5.02,-5.03,-4.80,-4.29,-0.29,-0.29,-0.28
211.44,4.73,5.04,4.73,5.04,-5.04,-4.79,-4.34,-0.31,-0.30,-0.31
213.56,4.73,5.05,4.74,5.06,-5.04,-4.78,-4.39,-0.31,-0.30,-0.32
215.69,4.74,5.07,4.73,5.06,-5.04,-4.77,-4.43,-0.30,-0.31,-0.33
217.85,4.74,5.08,4.71,5.05,-5.03,-4.75,-4.48,-0.29,-0.31,-0.34
220.03,4.66,5.01,4.68,5.04,-5.01,-4.74,-4.52,-0.35,-0.33,-0.35
222.23,4.62,5.00,4.62,4.99,-4.99,-4.72,-4.57,-0.37,-0.37,-0.38
224.45,4.59,4.96,4.56,4.93,-4.96,-4.71,-4.61,-0.38,-0.40,-0.37
226.70,4.50,4.87,4.52,4.89,-4.94,-4.69,-4.65,-0.44,-0.41,-0.37
228.96,4.50,4.86,4.51,4.87,-4.90,-4.67,-4.68,-0.40,-0.39,-0.36
231.25,4.52,4.87,4.52,4.87,-4.86,-4.65,-4.71,-0.35,-0.35,-0.35
233.57,4.55,4.89,4.54,4.88,-4.83,-4.62,-4.75,-0.28,-0.29,-0.34
235.90,4.53,4.86,4.51,4.84,-4.79,-4.60,-4.77,-0.27,-0.28,-0.33
238.26,4.48,4.80,4.47,4.78,-4.77,-4.58,-4.79,-0.29,-0.30,-0.32
240.64,4.39,4.68,4.42,4.71,-4.74,-4.55,-4.81,-0.36,-0.33,-0.29
243.05,4.39,4.65,4.39,4.66,-4.72,-4.52,-4.82,-0.33,-0.32,-0.26
245.48,4.41,4.65,4.40,4.64,-4.68,-4.49,-4.83,-0.27,-0.28,-0.24
247.93,4.44,4.65,4.44,4.65,-4.64,-4.47,-4.83,-0.21,-0.20,-0.21
250.41,4.46,4.65,4.47,4.65,-4.61,-4.44,-4.83,-0.15,-0.14,-0.19
252.92,4.49,4.65,4.45,4.62,-4.57,-4.41,-4.82,-0.08,-0.12,-0.16
255.45,4.42,4.56,4.41,4.55,-4.53,-4.38,-4.81,-0.12,-0.13,-0.14
258.00,4.32,4.44,4.35,4.47,-4.49,-4.34,-4.79,-0.17,-0.13,-0.12
260.58,4.30,4.40,4.31,4.41,-4.43,-4.31,-4.77,-0.13,-0.12,-0.10
263.19,4.31,4.38,4.29,4.37,-4.37,-4.28,-4.74,-0.06,-0.07,-0.07
265.82,4.28,4.33,4.26,4.31,-4.30,-4.24,-4.71,-0.02,-0.04,-0.05
268.48,4.21,4.24,4.20,4.23,-4.23,-4.21,-4.67,-0.02,-0.02,-0.03
271.16,4.12,4.12,4.14,4.14,-4.16,-4.17,-4.63,-0.04,-0.02,0.00
273.87,4.09,4.07,4.10,4.08,-4.09,-4.14,-4.59,-0.01,0.01,0.02
276.61,4.09,4.04,4.08,4.03,-4.03,-4.10,-4.54,0.06,0.05,0.05
279.38,4.07,3.99,4.05,3.97,-3.96,-4.07,-4.49,0.11,0.09,0.08
282.17,4.01,3.91,4.00,3.90,-3.89,-4.03,-4.44,0.12,0.11,0.10
284.99,3.94,3.80,3.95,3.82,-3.82,-4.00,-4.38,0.12,0.14,0.14
287.84,3.90,3.74,3.91,3.75,-3.75,-3.96,-4.33,0.15,0.16,0.16
290.72,3.91,3.72,3.88,3.69,-3.69,-3.92,-4.27,0.22,0.20,0.19
293.63,3.85,3.63,3.85,3.63,-3.63,-3.89,-4.22,0.22,0.22,0.22
296.57,3.81,3.56,3.81,3.56,-3.57,-3.85,-4.16,0.24,0.24,0.25
299.53,3.76,3.48,3.77,3.49,-3.52,-3.81,-4.10,0.24,0.25,0.28
302.53,3.76,3.46,3.76,3.45,-3.47,-3.78,-4.05,0.28,0.29,0.30
305.55,3.77,3.43,3.78,3.44,-3.43,-3.74,-3.99,0.34,0.34,0.34
308.61,3.80,3.44,3.79,3.42,-3.40,-3.71,-3.94,0.40,0.39,0.36
311.69,3.80,3.41,3.77,3.38,-3.36,-3.67,-3.88,0.44,0.41,0.39
314.81,3.72,3.31,3.74,3.33,-3.32,-3.63,-3.83,0.39,0.41,0.41
317.96,3.69,3.26,3.70,3.27,-3.28,-3.60,-3.78,0.40,0.42,0.43
321.14,3.69,3.25,3.69,3.24,-3.24,-3.56,-3.73,0.45,0.45,0.44
324.35,3.69,3.23,3.68,3.23,-3.20,-3.53,-3.68,0.49,0.49,0.46
327.59,3.69,3.22,3.66,3.19,-3.16,-3.49,-3.64,0.52,0.50,0.47
330.87,3.62,3.14,3.63,3.14,-3.15,-3.46,-3.60,0.47,0.48,0.48
334.18,3.59,3.09,3.59,3.09,-3.15,-3.43,-3.56,0.44,0.44,0.50
337.52,3.59,3.08,3.60,3.09,-3.17,-3.40,-3.52,0.42,0.43,0.51
340.90,3.65,3.13,3.67,3.15,-3.19,-3.36,-3.49,0.46,0.48,0.52
344.30,3.78,3.25,3.76,3.23,-3.22,-3.33,-3.45,0.56,0.54,0.53
347.75,3.87,3.34,3.84,3.31,-3.26,-3.30,-3.43,0.61,0.59,0.53
351.23,3.89,3.35,3.89,3.35,-3.30,-3.27,-3.40,0.59,0.59,0.54
354.74,3.89,3.36,3.89,3.36,-3.33,-3.24,-3.37,0.55,0.56,0.53
358.28,3.89,3.35,3.89,3.35,-3.36,-3.21,-3.35,0.53,0.53,0.54
361.87,3.90,3.36,3.90,3.36,-3.37,-3.19,-3.33,0.52,0.53,0.54
365.49,3.91,3.36,3.91,3.36,-3.37,-3.16,-3.32,0.54,0.54,0.55
369.14,3.91,3.37,3.90,3.36,-3.36,-3.13,-3.30,0.54,0.54,0.54
372.83,3.89,3.35,3.88,3.34,-3.35,-3.11,-3.29,0.54,0.53,0.54
376.56,3.84,3.31,3.86,3.32,-3.33,-3.08,-3.28,0.51,0.53,0.53
380.33,3.84,3.30,3.83,3.30,-3.30,-3.06,-3.28,0.54,0.53,0.54
384.13,3.82,3.28,3.81,3.27,-3.27,-3.04,-3.27,0.55,0.54,0.54
387.97,3.77,3.24,3.77,3.24,-3.22,-3.02,-3.27,0.55,0.55,0.53
391.85,3.71,3.19,3.70,3.17,-3.15,-3.00,-3.27,0.55,0.55,0.52
395.77,3.62,3.09,3.62,3.10,-3.08,-2.98,-3.27,0.54,0.55,0.53
399.73,3.53,3.01,3.54,3.02,-3.00,-2.96,-3.27,0.53,0.54,0.52
403.72,3.46,2.94,3.44,2.92,-2.92,-2.94,-3.28,0.54,0.52,0.52
407.76,3.34,2.84,3.33,2.82,-2.84,-2.93,-3.29,0.50,0.49,0.50
411.84,3.22,2.72,3.22,2.72,-2.76,-2.91,-3.29,0.46,0.46,0.50
415.96,3.13,2.63,3.16,2.66,-2.69,-2.90,-3.30,0.44,0.47,0.50
420.12,3.12,2.62,3.13,2.63,-2.63,-2.89,-3.31,0.49,0.50,0.50
424.32,3.16,2.66,3.12,2.61,-2.59,-2.88,-3.32,0.57,0.53,0.50
428.56,3.11,2.60,3.10,2.59,-2.57,-2.87,-3.33,0.54,0.53,0.51
432.85,3.07,2.55,3.09,2.57,-2.57,-2.86,-3.34,0.50,0.51,0.52
437.18,3.08,2.55,3.10,2.56,-2.59,-2.85,-3.35,0.48,0.50,0.53
441.55,3.17,2.60,3.16,2.60,-2.63,-2.85,-3.35,0.53,0.53,0.57
445.96,3.27,2.67,3.26,2.66,-2.69,-2.84,-3.36,0.58,0.58,0.60
450.42,3.38,2.75,3.38,2.75,-2.75,-2.84,-3.36,0.63,0.63,0.63
454.93,3.51,2.83,3.51,2.83,-2.82,-2.84,-3.37,0.69,0.69,0.68
459.48,3.64,2.92,3.63,2.91,-2.90,-2.84,-3.37,0.74,0.74,0.72
464.07,3.77,3.00,3.76,2.99,-2.97,-2.83,-3.37,0.80,0.79,0.77
468.71,3.86,3.03,3.87,3.05,-3.04,-2.83,-3.36,0.82,0.84,0.83
473.40,3.98,3.11,3.97,3.10,-3.09,-2.84,-3.35,0.89,0.89,0.87
478.13,4.07,3.14,4.06,3.14,-3.13,-2.84,-3.34,0.94,0.93,0.93
482.91,4.13,3.16,4.13,3.15,-3.15,-2.84,-3.33,0.98,0.98,0.97
487.74,4.17,3.16,4.17,3.15,-3.16,-2.84,-3.31,1.01,1.01,1.01
492.62,4.20,3.14,4.21,3.16,-3.15,-2.85,-3.29,1.04,1.06,1.06
497.55,4.24,3.16,4.24,3.15,-3.14,-2.85,-3.26,1.10,1.10,1.08
502.52,4.26,3.15,4.24,3.13,-3.11,-2.85,-3.23,1.14,1.12,1.11
507.55,4.21,3.09,4.21,3.09,-3.08,-2.86,-3.20,1.13,1.13,1.12
512.62,4.16,3.03,4.17,3.03,-3.05,-2.86,-3.16,1.11,1.12,1.13
517.75,4.13,2.99,4.13,3.00,-3.01,-2.86,-3.12,1.11,1.12,1.14
522.93,4.10,2.97,4.10,2.97,-2.99,-2.86,-3.07,1.11,1.11,1.13
528.16,4.08,2.98,4.05,2.95,-2.97,-2.86,-3.02,1.11,1.09,1.10
533.44,3.99,2.92,4.00,2.93,-2.95,-2.86,-2.97,1.04,1.05,1.07
