frequency,raw,error,smoothed,error_smoothed,equalization,parametric_eq,fixed_band_eq,equalized_raw,equalized_smoothed,target
20.00,-2.95,-4.27,-2.95,-4.29,4.29,3.47,1.11,1.35,1.35,1.32
20.20,-2.88,-4.24,-2.88,-4.26,4.26,3.44,1.14,1.38,1.38,1.36
20.40,-2.82,-4.22,-2.81,-4.22,4.22,3.40,1.17,1.40,1.41,1.40
20.61,-2.75,-4.18,-2.75,-4.18,4.18,3.37,1.21,1.43,1.43,1.43
20.81,-2.69,-4.16,-2.68,-4.14,4.14,3.34,1.25,1.46,1.46,1.47
21.02,-2.62,-4.13,-2.62,-4.10,4.10,3.30,1.28,1.49,1.49,1.51
21.23,-2.56,-4.09,-2.55,-4.06,4.06,3.27,1.32,1.50,1.51,1.53
21.44,-2.49,-4.03,-2.49,-4.02,4.02,3.23,1.36,1.53,1.53,1.55
21.66,-2.42,-3.98,-2.42,-3.97,3.97,3.20,1.40,1.55,1.55,1.57
21.87,-2.36,-3.93,-2.35,-3.93,3.93,3.17,1.45,1.57,1.57,1.58
22.09,-2.29,-3.88,-2.29,-3.88,3.88,3.13,1.49,1.59,1.59,1.60
22.31,-2.23,-3.83,-2.22,-3.83,3.83,3.10,1.53,1.60,1.60,1.61
22.54,-2.16,-3.77,-2.16,-3.77,3.77,3.07,1.58,1.62,1.62,1.62
22.76,-2.10,-3.72,-2.09,-3.72,3.72,3.03,1.63,1.62,1.63,1.62
22.99,-2.03,-3.65,-2.03,-3.66,3.66,3.00,1.68,1.64,1.63,1.62
23.22,-1.97,-3.60,-1.96,-3.61,3.61,2.97,1.72,1.64,1.64,1.63
23.45,-1.90,-3.54,-1.90,-3.55,3.55,2.94,1.77,1.65,1.65,1.64
23.69,-1.84,-3.49,-1.83,-3.49,3.49,2.91,1.83,1.66,1.66,1.65
23.92,-1.77,-3.43,-1.77,-3.44,3.44,2.87,1.88,1.67,1.67,1.66
24.16,-1.71,-3.39,-1.70,-3.38,3.38,2.84,1.93,1.68,1.68,1.68
24.40,-1.64,-3.33,-1.64,-3.33,3.33,2.81,1.98,1.69,1.69,1.70
24.65,-1.58,-3.28,-1.58,-3.27,3.27,2.78,2.04,1.70,1.70,1.70
24.89,-1.52,-3.22,-1.51,-3.22,3.22,2.75,2.09,1.71,1.71,1.71
25.14,-1.46,-3.17,-1.45,-3.17,3.17,2.72,2.15,1.71,1.72,1.72
25.39,-1.39,-3.11,-1.39,-3.12,3.12,2.69,2.20,1.73,1.73,1.73
25.65,-1.33,-3.07,-1.33,-3.07,3.07,2.66,2.26,1.74,1.74,1.74
25.91,-1.27,-3.01,-1.27,-3.01,3.01,2.63,2.31,1.75,1.75,1.74
26.16,-1.21,-2.96,-1.21,-2.96,2.96,2.60,2.37,1.76,1.76,1.75
26.43,-1.15,-2.91,-1.14,-2.91,2.91,2.57,2.42,1.76,1.77,1.76
26.69,-1.09,-2.86,-1.08,-2.86,2.86,2.54,2.47,1.77,1.77,1.77
26.96,-1.03,-2.81,-1.02,-2.81,2.81,2.51,2.52,1.78,1.78,1.79
27.23,-0.97,-2.76,-0.96,-2.75,2.75,2.48,2.57,1.79,1.79,1.80
27.50,-0.91,-2.71,-0.90,-2.70,2.70,2.46,2.62,1.80,1.80,1.81
27.77,-0.85,-2.65,-0.84,-2.65,2.65,2.43,2.67,1.81,1.81,1.80
28.05,-0.79,-2.61,-0.78,-2.60,2.60,2.40,2.71,1.81,1.82,1.82
28.33,-0.73,-2.55,-0.73,-2.55,2.55,2.38,2.76,1.83,1.82,1.82
28.62,-0.68,-2.51,-0.67,-2.50,2.50,2.35,2.79,1.83,1.83,1.83
28.90,-0.62,-2.45,-0.62,-2.46,2.46,2.32,2.83,1.84,1.84,1.84
29.19,-0.57,-2.40,-0.57,-2.41,2.41,2.30,2.86,1.85,1.85,1.84
29.48,-0.51,-2.37,-0.52,-2.37,2.37,2.27,2.89,1.86,1.85,1.86
29.78,-0.46,-2.32,-0.47,-2.33,2.33,2.25,2.92,1.87,1.86,1.86
30.08,-0.41,-2.28,-0.43,-2.29,2.29,2.22,2.94,1.88,1.87,1.87
30.38,-0.38,-2.24,-0.38,-2.25,2.25,2.20,2.95,1.88,1.87,1.87
30.68,-0.34,-2.22,-0.34,-2.22,2.22,2.18,2.97,1.88,1.88,1.89
30.99,-0.31,-2.19,-0.30,-2.19,2.19,2.15,2.97,1.88,1.89,1.88
31.30,-0.27,-2.16,-0.26,-2.16,2.16,2.13,2.98,1.89,1.89,1.89
31.61,-0.24,-2.13,-0.23,-2.13,2.13,2.11,2.98,1.89,1.90,1.90
31.93,-0.20,-2.10,-0.19,-2.10,2.10,2.09,2.97,1.90,1.91,1.91
32.24,-0.16,-2.06,-0.15,-2.07,2.07,2.06,2.96,1.91,1.91,1.90
32.57,-0.13,-2.05,-0.12,-2.04,2.04,2.04,2.95,1.91,1.92,1.92
32.89,-0.09,-2.01,-0.08,-2.01,2.01,2.02,2.93,1.92,1.93,1.93
33.22,-0.05,-1.98,-0.05,-1.98,1.98,2.00,2.91,1.93,1.93,1.93
33.55,-0.01,-1.95,-0.01,-1.95,1.95,1.98,2.88,1.94,1.94,1.94
33.89,0.03,-1.91,0.03,-1.92,1.92,1.96,2.85,1.95,1.95,1.95
34.23,0.07,-1.88,0.07,-1.88,1.88,1.94,2.82,1.96,1.95,1.95
34.57,0.10,-1.86,0.11,-1.85,1.85,1.92,2.78,1.95,1.96,1.96
34.92,0.14,-1.81,0.14,-1.82,1.82,1.91,2.74,1.96,1.96,1.96
35.27,0.18,-1.78,0.18,-1.78,1.78,1.89,2.70,1.97,1.96,1.96
35.62,0.21,-1.76,0.22,-1.75,1.75,1.87,2.66,1.96,1.97,1.97
35.97,0.25,-1.71,0.26,-1.71,1.71,1.85,2.61,1.96,1.97,1.97
36.33,0.29,-1.68,0.30,-1.67,1.67,1.84,2.56,1.97,1.97,1.97
36.70,0.33,-1.63,0.34,-1.63,1.63,1.82,2.52,1.97,1.97,1.97
37.06,0.38,-1.59,0.37,-1.60,1.60,1.81,2.47,1.98,1.97,1.97
37.43,0.41,-1.56,0.41,-1.56,1.56,1.79,2.42,1.97,1.97,1.98
37.81,0.44,-1.53,0.45,-1.52,1.52,1.78,2.37,1.96,1.97,1.97
38.19,0.48,-1.48,0.49,-1.48,1.48,1.76,2.32,1.96,1.96,1.97
38.57,0.52,-1.44,0.53,-1.44,1.44,1.75,2.27,1.96,1.96,1.96
38.95,0.56,-1.39,0.56,-1.40,1.40,1.73,2.22,1.96,1.96,1.96
39.34,0.59,-1.36,0.60,-1.36,1.36,1.72,2.17,1.95,1.96,1.95
39.74,0.62,-1.32,0.63,-1.32,1.32,1.71,2.12,1.95,1.95,1.94
40.14,0.65,-1.29,0.66,-1.29,1.29,1.70,2.07,1.95,1.95,1.95
40.54,0.68,-1.26,0.68,-1.26,1.26,1.68,2.02,1.95,1.94,1.94
40.94,0.72,-1.21,0.71,-1.23,1.23,1.67,1.97,1.96,1.94,1.94
41.35,0.73,-1.19,0.73,-1.21,1.21,1.66,1.92,1.94,1.94,1.93
41.76,0.74,-1.19,0.74,-1.19,1.19,1.65,1.88,1.93,1.93,1.93
42.18,0.76,-1.17,0.76,-1.17,1.17,1.64,1.83,1.93,1.93,1.93
42.60,0.77,-1.15,0.77,-1.15,1.15,1.63,1.79,1.93,1.92,1.93
43.03,0.78,-1.14,0.78,-1.14,1.14,1.62,1.75,1.92,1.92,1.93
43.46,0.78,-1.14,0.78,-1.13,1.13,1.61,1.70,1.91,1.91,1.92
43.90,0.77,-1.13,0.78,-1.12,1.12,1.60,1.66,1.90,1.91,1.90
44.33,0.77,-1.13,0.78,-1.12,1.12,1.60,1.62,1.90,1.90,1.90
44.78,0.77,-1.12,0.78,-1.12,1.12,1.59,1.59,1.90,1.90,1.89
45.23,0.77,-1.11,0.77,-1.13,1.13,1.58,1.55,1.90,1.89,1.88
45.68,0.76,-1.12,0.76,-1.13,1.13,1.57,1.51,1.89,1.89,1.88
46.13,0.75,-1.12,0.75,-1.14,1.14,1.57,1.48,1.89,1.88,1.87
46.60,0.73,-1.15,0.73,-1.14,1.14,1.56,1.44,1.87,1.87,1.88
47.06,0.72,-1.15,0.72,-1.15,1.15,1.55,1.41,1.87,1.86,1.87
47.53,0.69,-1.16,0.70,-1.15,1.15,1.55,1.38,1.85,1.86,1.86
48.01,0.67,-1.19,0.68,-1.16,1.16,1.54,1.35,1.84,1.84,1.87
48.49,0.65,-1.19,0.66,-1.17,1.17,1.54,1.32,1.83,1.83,1.84
48.97,0.63,-1.19,0.64,-1.18,1.18,1.53,1.29,1.82,1.82,1.82
49.46,0.61,-1.19,0.62,-1.19,1.19,1.53,1.27,1.81,1.81,1.81
49.96,0.59,-1.19,0.59,-1.20,1.20,1.52,1.24,1.80,1.79,1.78
50.46,0.57,-1.20,0.57,-1.21,1.21,1.52,1.22,1.78,1.78,1.78
50.96,0.54,-1.22,0.54,-1.22,1.22,1.52,1.20,1.76,1.76,1.76
51.47,0.51,-1.21,0.51,-1.23,1.23,1.51,1.17,1.74,1.74,1.73
51.99,0.47,-1.24,0.48,-1.24,1.24,1.51,1.15,1.71,1.72,1.71
52.51,0.44,-1.26,0.45,-1.25,1.25,1.51,1.13,1.69,1.70,1.71
53.03,0.42,-1.26,0.42,-1.26,1.26,1.50,1.12,1.68,1.68,1.68
53.56,0.38,-1.28,0.38,-1.27,1.27,1.50,1.10,1.66,1.65,1.66
54.10,0.34,-1.29,0.35,-1.29,1.29,1.50,1.09,1.63,1.63,1.63
54.64,0.31,-1.30,0.31,-1.31,1.31,1.50,1.07,1.62,1.61,1.61
55.18,0.27,-1.31,0.26,-1.32,1.32,1.49,1.06,1.60,1.59,1.58
55.74,0.22,-1.33,0.22,-1.34,1.34,1.49,1.05,1.57,1.57,1.55
56.29,0.17,-1.37,0.18,-1.36,1.36,1.49,1.04,1.54,1.54,1.54
56.86,0.12,-1.39,0.13,-1.39,1.39,1.49,1.03,1.51,1.52,1.51
57.42,0.07,-1.41,0.08,-1.41,1.41,1.49,1.02,1.48,1.49,1.48
58.00,0.02,-1.43,0.03,-1.43,1.43,1.49,1.02,1.46,1.46,1.46
58.58,-0.03,-1.46,-0.03,-1.46,1.46,1.49,1.02,1.43,1.43,1.43
59.16,-0.08,-1.49,-0.09,-1.49,1.49,1.49,1.01,1.41,1.40,1.41
59.76,-0.14,-1.52,-0.15,-1.51,1.51,1.48,1.01,1.38,1.37,1.38
60.35,-0.20,-1.54,-0.21,-1.54,1.54,1.48,1.01,1.34,1.33,1.35
60.96,-0.26,-1.57,-0.27,-1.57,1.57,1.48,1.02,1.31,1.30,1.31
61.57,-0.33,-1.59,-0.33,-1.60,1.60,1.48,1.02,1.27,1.26,1.26
62.18,-0.40,-1.61,-0.40,-1.62,1.62,1.48,1.03,1.23,1.22,1.22
62.80,-0.48,-1.66,-0.46,-1.65,1.65,1.48,1.04,1.17,1.18,1.19
63.43,-0.55,-1.68,-0.53,-1.68,1.68,1.48,1.04,1.13,1.14,1.14
64.07,-0.62,-1.71,-0.60,-1.70,1.70,1.48,1.06,1.09,1.10,1.10
64.71,-0.67,-1.72,-0.67,-1.73,1.73,1.48,1.07,1.06,1.06,1.05
65.35,-0.74,-1.75,-0.74,-1.75,1.75,1.48,1.08,1.02,1.01,1.01
66.01,-0.80,-1.76,-0.81,-1.78,1.78,1.48,1.10,0.98,0.97,0.97
66.67,-0.87,-1.80,-0.87,-1.80,1.80,1.48,1.12,0.93,0.92,0.93
67.33,-0.93,-1.81,-0.94,-1.82,1.82,1.48,1.14,0.89,0.88,0.89
68.01,-1.00,-1.84,-1.00,-1.83,1.83,1.48,1.16,0.84,0.84,0.84
68.69,-1.06,-1.85,-1.06,-1.85,1.85,1.48,1.18,0.79,0.79,0.79
69.37,-1.12,-1.86,-1.11,-1.86,1.86,1.49,1.20,0.74,0.75,0.74
70.07,-1.18,-1.87,-1.17,-1.87,1.87,1.49,1.23,0.69,0.70,0.70
70.77,-1.23,-1.88,-1.22,-1.87,1.87,1.49,1.26,0.65,0.66,0.66
71.48,-1.28,-1.89,-1.26,-1.87,1.87,1.49,1.29,0.60,0.61,0.61
72.19,-1.32,-1.88,-1.31,-1.87,1.87,1.49,1.32,0.55,0.57,0.56
72.91,-1.36,-1.88,-1.34,-1.86,1.86,1.49,1.35,0.51,0.52,0.52
73.64,-1.39,-1.86,-1.37,-1.85,1.85,1.49,1.38,0.47,0.48,0.47
74.38,-1.42,-1.86,-1.40,-1.84,1.84,1.50,1.42,0.42,0.44,0.44
75.12,-1.44,-1.83,-1.43,-1.83,1.83,1.50,1.46,0.39,0.40,0.39
75.87,-1.46,-1.81,-1.45,-1.81,1.81,1.50,1.50,0.36,0.36,0.36
76.63,-1.47,-1.78,-1.48,-1.79,1.79,1.50,1.54,0.33,0.32,0.32
77.40,-1.49,-1.77,-1.50,-1.78,1.78,1.51,1.58,0.29,0.28,0.28
78.17,-1.50,-1.74,-1.51,-1.76,1.76,1.51,1.62,0.26,0.24,0.24
78.95,-1.52,-1.72,-1.53,-1.74,1.74,1.52,1.67,0.22,0.21,0.21
79.74,-1.54,-1.71,-1.54,-1.72,1.72,1.52,1.71,0.18,0.17,0.18
80.54,-1.57,-1.71,-1.56,-1.70,1.70,1.53,1.76,0.14,0.14,0.14
81.35,-1.60,-1.71,-1.58,-1.69,1.69,1.53,1.81,0.09,0.11,0.11
82.16,-1.62,-1.69,-1.60,-1.68,1.68,1.54,1.86,0.06,0.08,0.07
82.98,-1.63,-1.68,-1.62,-1.67,1.67,1.54,1.92,0.04,0.05,0.05
83.81,-1.65,-1.66,-1.65,-1.66,1.66,1.55,1.97,0.02,0.01,0.01
84.65,-1.66,-1.63,-1.67,-1.66,1.66,1.56,2.03,0.00,-0.01,-0.02
85.50,-1.69,-1.64,-1.70,-1.66,1.66,1.57,2.09,-0.03,-0.04,-0.04
86.35,-1.72,-1.64,-1.73,-1.66,1.66,1.58,2.15,-0.05,-0.07,-0.07
87.22,-1.76,-1.65,-1.77,-1.67,1.67,1.59,2.21,-0.09,-0.10,-0.10
88.09,-1.80,-1.66,-1.80,-1.67,1.67,1.60,2.27,-0.13,-0.13,-0.13
88.97,-1.85,-1.69,-1.83,-1.68,1.68,1.62,2.34,-0.17,-0.15,-0.15
89.86,-1.88,-1.70,-1.87,-1.69,1.69,1.63,2.40,-0.19,-0.18,-0.17
90.76,-1.93,-1.71,-1.91,-1.70,1.70,1.64,2.47,-0.23,-0.21,-0.22
91.66,-1.97,-1.73,-1.95,-1.71,1.71,1.66,2.54,-0.25,-0.24,-0.24
92.58,-2.01,-1.73,-2.00,-1.73,1.73,1.68,2.62,-0.28,-0.27,-0.27
93.51,-2.05,-1.76,-2.05,-1.75,1.75,1.70,2.69,-0.29,-0.30,-0.29
94.44,-2.09,-1.76,-2.10,-1.77,1.77,1.72,2.77,-0.31,-0.33,-0.32
95.39,-2.13,-1.78,-2.15,-1.79,1.79,1.74,2.84,-0.34,-0.36,-0.35
96.34,-2.19,-1.79,-2.20,-1.81,1.81,1.76,2.92,-0.38,-0.39,-0.39
97.30,-2.25,-1.82,-2.26,-1.83,1.83,1.79,3.00,-0.42,-0.43,-0.43
98.28,-2.32,-1.85,-2.31,-1.85,1.85,1.81,3.08,-0.47,-0.46,-0.47
99.26,-2.39,-1.88,-2.37,-1.87,1.87,1.84,3.16,-0.52,-0.50,-0.50
100.25,-2.46,-1.92,-2.43,-1.89,1.89,1.87,3.25,-0.56,-0.54,-0.54
101.25,-2.53,-1.95,-2.50,-1.92,1.92,1.91,3.33,-0.61,-0.58,-0.58
102.27,-2.60,-1.97,-2.57,-1.95,1.95,1.94,3.41,-0.65,-0.62,-0.63
103.29,-2.64,-1.96,-2.64,-1.97,1.97,1.98,3.50,-0.66,-0.67,-0.67
104.32,-2.70,-1.99,-2.72,-2.01,2.01,2.01,3.58,-0.69,-0.72,-0.71
105.37,-2.78,-2.02,-2.81,-2.04,2.04,2.06,3.66,-0.74,-0.77,-0.76
106.42,-2.87,-2.05,-2.89,-2.07,2.07,2.10,3.74,-0.79,-0.82,-0.82
107.48,-2.96,-2.09,-2.98,-2.10,2.10,2.15,3.82,-0.86,-0.87,-0.86
108.56,-3.07,-2.13,-3.06,-2.13,2.13,2.19,3.90,-0.94,-0.93,-0.93
109.64,-3.17,-2.18,-3.16,-2.16,2.16,2.25,3.98,-1.00,-0.99,-0.99
110.74,-3.26,-2.21,-3.25,-2.20,2.20,2.30,4.05,-1.06,-1.06,-1.05
111.85,-3.37,-2.25,-3.35,-2.23,2.23,2.36,4.12,-1.14,-1.12,-1.11
112.97,-3.49,-2.29,-3.45,-2.27,2.27,2.42,4.19,-1.22,-1.19,-1.19
114.10,-3.59,-2.34,-3.56,-2.31,2.31,2.48,4.25,-1.28,-1.25,-1.25
115.24,-3.70,-2.37,-3.67,-2.35,2.35,2.54,4.31,-1.35,-1.32,-1.32
116.39,-3.77,-2.37,-3.78,-2.39,2.39,2.61,4.36,-1.37,-1.39,-1.40
117.55,-3.87,-2.40,-3.89,-2.44,2.44,2.69,4.41,-1.43,-1.46,-1.47
118.73,-4.01,-2.47,-4.01,-2.49,2.49,2.76,4.45,-1.52,-1.53,-1.54
119.92,-4.15,-2.55,-4.14,-2.54,2.54,2.84,4.49,-1.60,-1.60,-1.59
121.12,-4.30,-2.63,-4.26,-2.60,2.60,2.92,4.52,-1.69,-1.66,-1.67
122.33,-4.38,-2.64,-4.40,-2.67,2.67,3.01,4.54,-1.70,-1.73,-1.73
123.55,-4.50,-2.71,-4.54,-2.75,2.75,3.10,4.56,-1.75,-1.79,-1.78
124.79,-4.68,-2.83,-4.69,-2.84,2.84,3.19,4.56,-1.84,-1.85,-1.85
126.03,-4.86,-2.95,-4.84,-2.93,2.93,3.29,4.57,-1.93,-1.91,-1.91
127.29,-4.97,-3.00,-4.99,-3.02,3.02,3.39,4.56,-1.94,-1.97,-1.97
128.57,-5.13,-3.09,-5.16,-3.13,3.13,3.49,4.55,-2.00,-2.03,-2.04
129.85,-5.34,-3.25,-5.33,-3.24,3.24,3.60,4.53,-2.09,-2.08,-2.09
131.15,-5.56,-3.41,-5.50,-3.36,3.36,3.71,4.50,-2.19,-2.14,-2.15
132.46,-5.67,-3.47,-5.68,-3.49,3.49,3.83,4.47,-2.18,-2.19,-2.19
133.79,-5.86,-3.62,-5.86,-3.62,3.62,3.95,4.43,-2.24,-2.25,-2.24
135.12,-6.09,-3.79,-6.05,-3.75,3.75,4.07,4.39,-2.33,-2.29,-2.30
136.48,-6.22,-3.88,-6.24,-3.90,3.90,4.19,4.34,-2.32,-2.34,-2.34
137.84,-6.43,-4.03,-6.43,-4.04,4.04,4.32,4.28,-2.39,-2.39,-2.39
139.22,-6.58,-4.13,-6.62,-4.18,4.18,4.45,4.23,-2.40,-2.44,-2.45
140.61,-6.78,-4.28,-6.81,-4.32,4.32,4.58,4.16,-2.46,-2.49,-2.50
142.02,-7.05,-4.51,-7.00,-4.47,4.47,4.71,4.10,-2.58,-2.53,-2.53
143.44,-7.19,-4.61,-7.19,-4.61,4.61,4.85,4.03,-2.57,-2.58,-2.57
144.87,-7.42,-4.80,-7.38,-4.76,4.76,4.98,3.96,-2.66,-2.62,-2.62
146.32,-7.56,-4.89,-7.57,-4.90,4.90,5.12,3.89,-2.65,-2.67,-2.67
147.78,-7.77,-5.06,-7.76,-5.04,5.04,5.25,3.82,-2.72,-2.72,-2.71
149.26,-7.92,-5.16,-7.94,-5.18,5.18,5.38,3.75,-2.74,-2.77,-2.75
150.75,-8.12,-5.30,-8.12,-5.31,5.31,5.51,3.67,-2.81,-2.81,-2.82
152.26,-8.27,-5.40,-8.29,-5.43,5.43,5.64,3.60,-2.84,-2.86,-2.86
153.78,-8.47,-5.56,-8.46,-5.54,5.54,5.76,3.53,-2.92,-2.91,-2.91
155.32,-8.63,-5.66,-8.61,-5.65,5.65,5.87,3.45,-2.97,-2.96,-2.97
156.88,-8.81,-5.80,-8.76,-5.75,5.75,5.98,3.38,-3.06,-3.01,-3.01
158.44,-8.92,-5.86,-8.90,-5.83,5.83,6.08,3.31,-3.08,-3.06,-3.06
160.03,-9.08,-5.96,-9.03,-5.92,5.92,6.17,3.24,-3.16,-3.12,-3.12
161.63,-9.16,-5.98,-9.16,-5.99,5.99,6.25,3.17,-3.17,-3.17,-3.18
163.24,-9.25,-6.02,-9.27,-6.05,6.05,6.32,3.10,-3.19,-3.22,-3.23
164.88,-9.38,-6.10,-9.38,-6.10,6.10,6.37,3.04,-3.27,-3.28,-3.27
166.53,-9.47,-6.14,-9.48,-6.15,6.15,6.40,2.98,-3.32,-3.33,-3.33
168.19,-9.55,-6.16,-9.56,-6.18,6.18,6.43,2.91,-3.37,-3.38,-3.38
169.87,-9.66,-6.22,-9.64,-6.20,6.20,6.43,2.85,-3.45,-3.44,-3.44
171.57,-9.72,-6.23,-9.71,-6.21,6.21,6.42,2.80,-3.50,-3.50,-3.49
173.29,-9.77,-6.21,-9.77,-6.22,6.22,6.39,2.74,-3.55,-3.55,-3.55
175.02,-9.84,-6.23,-9.83,-6.21,6.21,6.34,2.69,-3.62,-3.61,-3.60
176.77,-9.88,-6.20,-9.87,-6.20,6.20,6.28,2.64,-3.67,-3.67,-3.67
178.54,-9.91,-6.17,-9.91,-6.18,6.18,6.20,2.59,-3.72,-3.73,-3.73
180.32,-9.95,-6.15,-9.95,-6.15,6.15,6.10,2.54,-3.79,-3.79,-3.79
182.13,-9.98,-6.13,-9.97,-6.12,6.12,5.99,2.49,-3.86,-3.85,-3.85
183.95,-9.99,-6.07,-9.98,-6.07,6.07,5.87,2.45,-3.92,-3.91,-3.92
185.79,-10.00,-6.02,-9.99,-6.02,6.02,5.73,2.41,-3.98,-3.98,-3.97
187.65,-9.99,-5.94,-9.99,-5.96,5.96,5.59,2.37,-4.03,-4.04,-4.05
189.52,-9.99,-5.88,-9.99,-5.89,5.89,5.43,2.34,-4.09,-4.10,-4.10
191.42,-9.98,-5.82,-9.98,-5.82,5.82,5.27,2.30,-4.15,-4.15,-4.16
193.33,-9.94,-5.73,-9.96,-5.75,5.75,5.09,2.27,-4.19,-4.21,-4.21
195.27,-9.91,-5.64,-9.93,-5.67,5.67,4.92,2.23,-4.24,-4.27,-4.26
197.22,-9.88,-5.55,-9.90,-5.57,5.57,4.74,2.20,-4.30,-4.32,-4.32
199.19,-9.84,-5.45,-9.85,-5.47,5.47,4.55,2.18,-4.37,-4.38,-4.38
201.18,-9.80,-5.36,-9.79,-5.36,5.36,4.36,2.15,-4.44,-4.43,-4.43
203.19,-9.74,-5.26,-9.72,-5.24,5.24,4.17,2.12,-4.49,-4.48,-4.47
205.23,-9.67,-5.13,-9.65,-5.12,5.12,3.98,2.10,-4.55,-4.53,-4.53
207.28,-9.58,-5.01,-9.55,-4.97,4.97,3.79,2.07,-4.60,-4.58,-4.56
209.35,-9.47,-4.85,-9.44,-4.82,4.82,3.60,2.05,-4.65,-4.62,-4.62
211.44,-9.34,-4.66,-9.31,-4.65,4.65,3.41,2.02,-4.69,-4.67,-4.68
213.56,-9.19,-4.47,-9.17,-4.46,4.46,3.23,2.00,-4.72,-4.71,-4.71
215.69,-9.02,-4.28,-9.02,-4.27,4.27,3.04,1.98,-4.75,-4.75,-4.74
217.85,-8.84,-4.05,-8.84,-4.05,4.05,2.86,1.96,-4.78,-4.79,-4.79
220.03,-8.71,-3.88,-8.66,-3.83,3.83,2.68,1.93,-4.87,-4.82,-4.83
222.23,-8.53,-3.66,-8.46,-3.61,3.61,2.50,1.91,-4.92,-4.86,-4.86
224.45,-8.28,-3.39,-8.26,-3.37,3.37,2.33,1.88,-4.91,-4.89,-4.89
226.70,-8.02,-3.10,-8.04,-3.13,3.13,2.16,1.86,-4.89,-4.92,-4.91
228.96,-7.76,-2.81,-7.82,-2.88,2.88,1.99,1.83,-4.88,-4.94,-4.95
231.25,-7.59,-2.63,-7.59,-2.63,2.63,1.83,1.81,-4.96,-4.96,-4.96
233.57,-7.35,-2.37,-7.36,-2.38,2.38,1.67,1.78,-4.96,-4.98,-4.98
235.90,-7.08,-2.07,-7.13,-2.13,2.13,1.51,1.75,-4.94,-5.00,-5.00
238.26,-6.90,-1.88,-6.90,-1.89,1.89,1.36,1.72,-5.01,-5.01,-5.01
240.64,-6.66,-1.63,-6.67,-1.65,1.65,1.21,1.68,-5.01,-5.02,-5.02
243.05,-6.47,-1.44,-6.43,-1.40,1.40,1.06,1.65,-5.06,-5.03,-5.02
245.48,-6.23,-1.19,-6.20,-1.16,1.16,0.92,1.61,-5.06,-5.03,-5.04
247.93,-5.95,-0.91,-5.97,-0.93,0.93,0.78,1.57,-5.02,-5.04,-5.03
250.41,-5.75,-0.70,-5.74,-0.70,0.70,0.64,1.52,-5.04,-5.04,-5.04
252.92,-5.49,-0.45,-5.51,-0.48,0.48,0.51,1.48,-5.01,-5.03,-5.03
255.45,-5.29,-0.26,-5.28,-0.25,0.25,0.38,1.43,-5.03,-5.03,-5.02
258.00,-5.10,-0.08,-5.06,-0.03,0.03,0.25,1.38,-5.06,-5.02,-5.02
260.58,-4.85,0.17,-4.84,0.18,-0.18,0.13,1.33,-5.02,-5.02,-5.02
263.19,-4.64,0.37,-4.62,0.39,-0.39,0.01,1.27,-5.02,-5.01,-5.01
265.82,-4.38,0.63,-4.41,0.59,-0.59,-0.11,1.21,-4.97,-5.00,-5.00
268.48,-4.19,0.80,-4.20,0.78,-0.78,-0.22,1.15,-4.97,-4.99,-4.98
271.16,-4.02,0.95,-4.00,0.97,-0.97,-0.33,1.09,-4.99,-4.97,-4.97
273.87,-3.77,1.20,-3.82,1.15,-1.15,-0.44,1.03,-4.91,-4.96,-4.97
276.61,-3.61,1.34,-3.64,1.31,-1.31,-0.55,0.96,-4.92,-4.95,-4.94
279.38,-3.46,1.48,-3.46,1.48,-1.48,-0.65,0.89,-4.93,-4.94,-4.94
282.17,-3.30,1.63,-3.30,1.63,-1.63,-0.75,0.82,-4.93,-4.93,-4.92
284.99,-3.17,1.74,-3.14,1.77,-1.77,-0.85,0.75,-4.94,-4.91,-4.91
287.84,-2.99,1.92,-2.99,1.91,-1.91,-0.95,0.67,-4.89,-4.90,-4.91
290.72,-2.85,2.05,-2.86,2.03,-2.03,-1.04,0.60,-4.88,-4.89,-4.89
293.63,-2.73,2.15,-2.73,2.15,-2.15,-1.13,0.52,-4.88,-4.88,-4.88
296.57,-2.61,2.26,-2.60,2.26,-2.26,-1.22,0.45,-4.87,-4.86,-4.86
299.53,-2.50,2.36,-2.49,2.37,-2.37,-1.31,0.37,-4.86,-4.85,-4.86
302.53,-2.39,2.46,-2.37,2.47,-2.47,-1.39,0.29,-4.85,-4.84,-4.85
305.55,-2.28,2.55,-2.27,2.56,-2.56,-1.48,0.21,-4.84,-4.83,-4.83
308.61,-2.17,2.65,-2.17,2.65,-2.65,-1.56,0.12,-4.82,-4.82,-4.82
311.69,-2.08,2.74,-2.08,2.73,-2.73,-1.64,0.04,-4.81,-4.81,-4.81
314.81,-2.01,2.78,-1.99,2.81,-2.81,-1.71,-0.04,-4.82,-4.80,-4.79
317.96,-1.93,2.87,-1.91,2.88,-2.88,-1.79,-0.13,-4.81,-4.79,-4.79
321.14,-1.84,2.95,-1.84,2.94,-2.94,-1.86,-0.21,-4.78,-4.79,-4.79
324.35,-1.77,3.02,-1.78,3.00,-3.00,-1.93,-0.30,-4.77,-4.78,-4.79
327.59,-1.71,3.07,-1.72,3.06,-3.06,-2.00,-0.39,-4.76,-4.78,-4.77
330.87,-1.66,3.12,-1.67,3.11,-3.11,-2.07,-0.48,-4.76,-4.77,-4.78
334.18,-1.62,3.16,-1.62,3.15,-3.15,-2.14,-0.57,-4.77,-4.77,-4.78
337.52,-1.58,3.20,-1.58,3.19,-3.19,-2.21,-0.66,-4.76,-4.77,-4.77
340.90,-1.57,3.20,-1.55,3.22,-3.22,-2.27,-0.75,-4.78,-4.77,-4.76
344.30,-1.54,3.23,-1.53,3.24,-3.24,-2.33,-0.84,-4.77,-4.77,-4.77
347.75,-1.53,3.24,-1.52,3.25,-3.25,-2.39,-0.93,-4.78,-4.77,-4.77
351.23,-1.52,3.26,-1.51,3.27,-3.27,-2.45,-1.02,-4.78,-4.78,-4.77
354.74,-1.50,3.28,-1.51,3.27,-3.27,-2.51,-1.12,-4.77,-4.78,-4.78
358.28,-1.50,3.29,-1.52,3.27,-3.27,-2.57,-1.21,-4.76,-4.78,-4.79
361.87,-1.51,3.28,-1.53,3.26,-3.26,-2.62,-1.31,-4.77,-4.79,-4.79
365.49,-1.54,3.26,-1.55,3.25,-3.25,-2.68,-1.40,-4.79,-4.79,-4.79
369.14,-1.57,3.24,-1.57,3.23,-3.23,-2.73,-1.50,-4.80,-4.80,-4.80
372.83,-1.59,3.22,-1.59,3.22,-3.22,-2.78,-1.60,-4.80,-4.81,-4.81
376.56,-1.63,3.19,-1.62,3.20,-3.20,-2.83,-1.70,-4.82,-4.82,-4.82
380.33,-1.66,3.16,-1.65,3.17,-3.17,-2.88,-1.80,-4.83,-4.83,-4.82
384.13,-1.69,3.15,-1.69,3.15,-3.15,-2.93,-1.90,-4.83,-4.83,-4.83
387.97,-1.72,3.13,-1.72,3.12,-3.12,-2.98,-2.00,-4.84,-4.84,-4.84
391.85,-1.76,3.10,-1.75,3.10,-3.10,-3.03,-2.10,-4.85,-4.85,-4.86
395.77,-1.79,3.06,-1.78,3.08,-3.08,-3.07,-2.20,-4.86,-4.85,-4.85
399.73,-1.82,3.04,-1.80,3.06,-3.06,-3.11,-2.30,-4.88,-4.86,-4.86
403.72,-1.84,3.03,-1.82,3.04,-3.04,-3.16,-2.40,-4.88,-4.87,-4.87
407.76,-1.86,3.03,-1.84,3.03,-3.03,-3.20,-2.50,-4.89,-4.87,-4.88
411.84,-1.88,3.00,-1.86,3.02,-3.02,-3.24,-2.61,-4.90,-4.88,-4.87
415.96,-1.89,3.00,-1.87,3.01,-3.01,-3.28,-2.71,-4.90,-4.88,-4.88
420.12,-1.89,3.00,-1.88,3.01,-3.01,-3.32,-2.81,-4.90,-4.89,-4.89
424.32,-1.88,3.01,-1.89,3.01,-3.01,-3.36,-2.91,-4.88,-4.89,-4.89
428.56,-1.87,3.03,-1.89,3.00,-3.00,-3.40,-3.01,-4.87,-4.89,-4.90
432.85,-1.87,3.03,-1.89,3.00,-3.00,-3.44,-3.10,-4.87,-4.90,-4.90
437.18,-1.87,3.03,-1.89,3.01,-3.01,-3.47,-3.20,-4.87,-4.90,-4.90
441.55,-1.88,3.02,-1.89,3.01,-3.01,-3.51,-3.29,-4.89,-4.90,-4.89
445.96,-1.89,3.01,-1.88,3.02,-3.02,-3.54,-3.38,-4.90,-4.90,-4.89
450.42,-1.89,3.02,-1.87,3.03,-3.03,-3.57,-3.47,-4.91,-4.89,-4.90
454.93,-1.87,3.03,-1.85,3.04,-3.04,-3.61,-3.55,-4.91,-4.89,-4.89
459.48,-1.86,3.04,-1.84,3.05,-3.05,-3.64,-3.63,-4.91,-4.89,-4.90
464.07,-1.84,3.05,-1.82,3.07,-3.07,-3.67,-3.71,-4.90,-4.89,-4.89
468.71,-1.82,3.06,-1.80,3.08,-3.08,-3.70,-3.78,-4.90,-4.88,-4.88
473.40,-1.78,3.10,-1.77,3.10,-3.10,-3.73,-3.85,-4.88,-4.88,-4.88
478.13,-1.75,3.12,-1.74,3.13,-3.13,-3.76,-3.91,-4.87,-4.87,-4.87
