frequency,raw,error,smoothed,error_smoothed,equalization,parametric_eq,fixed_band_eq,equalized_raw,equalized_smoothed,target
20.00,5.43,-4.65,5.43,-4.66,4.65,4.46,1.54,10.08,10.08,10.09
20.20,5.46,-4.61,5.47,-4.61,4.61,4.45,1.58,10.07,10.08,10.08
20.40,5.50,-4.56,5.50,-4.56,4.57,4.43,1.63,10.07,10.07,10.07
20.61,5.53,-4.52,5.53,-4.52,4.52,4.41,1.68,10.06,10.06,10.06
20.81,5.56,-4.47,5.56,-4.47,4.48,4.39,1.73,10.05,10.05,10.04
21.02,5.59,-4.43,5.59,-4.44,4.44,4.37,1.78,10.04,10.04,10.03
21.23,5.62,-4.39,5.62,-4.40,4.40,4.35,1.83,10.03,10.03,10.02
21.44,5.65,-4.37,5.65,-4.36,4.36,4.33,1.89,10.02,10.01,10.03
21.66,5.68,-4.32,5.68,-4.33,4.32,4.30,1.95,10.00,10.01,10.01
21.87,5.71,-4.29,5.71,-4.29,4.28,4.28,2.01,10.00,10.00,10.01
22.09,5.74,-4.24,5.74,-4.24,4.24,4.25,2.07,9.99,9.99,9.99
22.31,5.77,-4.20,5.78,-4.20,4.20,4.23,2.13,9.98,9.98,9.98
22.54,5.81,-4.15,5.81,-4.16,4.16,4.20,2.19,9.98,9.97,9.97
22.76,5.84,-4.12,5.84,-4.12,4.12,4.18,2.26,9.97,9.97,9.97
22.99,5.87,-4.08,5.87,-4.08,4.09,4.15,2.32,9.96,9.96,9.96
23.22,5.90,-4.04,5.90,-4.05,4.05,4.12,2.39,9.95,9.95,9.95
23.45,5.93,-4.02,5.94,-4.01,4.01,4.09,2.46,9.95,9.95,9.96
23.69,5.97,-3.97,5.97,-3.98,3.98,4.06,2.53,9.95,9.95,9.95
23.92,6.00,-3.93,6.00,-3.94,3.94,4.03,2.60,9.95,9.95,9.94
24.16,6.03,-3.91,6.03,-3.91,3.91,4.00,2.67,9.94,9.94,9.95
24.40,6.06,-3.88,6.06,-3.88,3.87,3.97,2.75,9.94,9.94,9.95
24.65,6.09,-3.84,6.10,-3.84,3.84,3.94,2.82,9.93,9.94,9.94
24.89,6.13,-3.80,6.13,-3.80,3.80,3.90,2.90,9.94,9.94,9.94
25.14,6.16,-3.76,6.16,-3.77,3.77,3.87,2.97,9.94,9.94,9.93
25.39,6.19,-3.73,6.20,-3.73,3.74,3.84,3.05,9.93,9.93,9.93
25.65,6.22,-3.70,6.22,-3.70,3.71,3.80,3.13,9.93,9.93,9.93
25.91,6.25,-3.67,6.25,-3.68,3.67,3.77,3.20,9.93,9.93,9.93
26.16,6.28,-3.65,6.28,-3.65,3.64,3.74,3.28,9.93,9.93,9.94
26.43,6.31,-3.61,6.31,-3.62,3.61,3.70,3.35,9.92,9.92,9.93
26.69,6.34,-3.58,6.34,-3.58,3.58,3.67,3.43,9.92,9.92,9.93
26.96,6.37,-3.55,6.38,-3.55,3.55,3.63,3.50,9.92,9.93,9.93
27.23,6.41,-3.51,6.41,-3.52,3.52,3.60,3.57,9.93,9.93,9.93
27.50,6.44,-3.48,6.44,-3.49,3.49,3.56,3.64,9.93,9.94,9.93
27.77,6.47,-3.46,6.47,-3.46,3.46,3.53,3.70,9.94,9.94,9.94
28.05,6.50,-3.42,6.50,-3.43,3.44,3.50,3.76,9.94,9.94,9.93
28.33,6.52,-3.41,6.53,-3.41,3.41,3.46,3.82,9.93,9.94,9.94
28.62,6.55,-3.38,6.55,-3.39,3.38,3.43,3.87,9.94,9.94,9.94
28.90,6.58,-3.36,6.58,-3.36,3.35,3.40,3.92,9.94,9.94,9.95
29.19,6.61,-3.33,6.61,-3.33,3.33,3.37,3.97,9.94,9.94,9.95
29.48,6.64,-3.29,6.64,-3.30,3.30,3.33,4.01,9.94,9.94,9.94
29.78,6.67,-3.26,6.67,-3.26,3.26,3.30,4.04,9.94,9.94,9.94
30.08,6.70,-3.23,6.70,-3.23,3.23,3.27,4.06,9.94,9.93,9.94
30.38,6.72,-3.19,6.73,-3.20,3.20,3.24,4.08,9.93,9.93,9.92
30.68,6.75,-3.16,6.75,-3.16,3.17,3.21,4.10,9.92,9.93,9.92
30.99,6.78,-3.13,6.78,-3.14,3.14,3.18,4.10,9.92,9.92,9.92
31.30,6.80,-3.11,6.80,-3.11,3.11,3.15,4.10,9.91,9.91,9.92
31.61,6.82,-3.08,6.82,-3.08,3.08,3.12,4.09,9.90,9.90,9.91
31.93,6.84,-3.04,6.85,-3.05,3.04,3.09,4.08,9.89,9.89,9.89
32.24,6.87,-3.02,6.87,-3.01,3.01,3.06,4.06,9.89,9.89,9.90
32.57,6.90,-2.97,6.90,-2.98,2.98,3.03,4.03,9.88,9.88,9.88
32.89,6.93,-2.94,6.93,-2.94,2.95,2.99,3.99,9.88,9.88,9.88
33.22,6.96,-2.90,6.96,-2.91,2.91,2.96,3.95,9.88,9.87,9.87
33.55,6.98,-2.88,6.99,-2.88,2.88,2.93,3.91,9.86,9.86,9.87
33.89,7.00,-2.85,7.01,-2.85,2.85,2.90,3.86,9.85,9.85,9.86
34.23,7.03,-2.80,7.03,-2.81,2.81,2.87,3.80,9.85,9.84,9.84
34.57,7.05,-2.78,7.05,-2.78,2.78,2.84,3.74,9.84,9.84,9.84
34.92,7.07,-2.74,7.08,-2.75,2.75,2.81,3.67,9.83,9.83,9.82
35.27,7.10,-2.73,7.10,-2.72,2.72,2.78,3.60,9.83,9.82,9.84
35.62,7.12,-2.68,7.12,-2.69,2.69,2.75,3.53,9.81,9.81,9.81
35.97,7.14,-2.66,7.15,-2.66,2.66,2.71,3.45,9.80,9.80,9.81
36.33,7.16,-2.62,7.16,-2.62,2.62,2.68,3.38,9.78,9.78,9.79
36.70,7.18,-2.58,7.18,-2.59,2.58,2.65,3.30,9.77,9.77,9.77
37.06,7.19,-2.55,7.20,-2.55,2.55,2.61,3.22,9.74,9.75,9.75
37.43,7.22,-2.50,7.22,-2.51,2.51,2.58,3.14,9.73,9.73,9.73
37.81,7.24,-2.47,7.24,-2.47,2.47,2.54,3.05,9.71,9.71,9.72
38.19,7.26,-2.42,7.26,-2.43,2.43,2.51,2.97,9.70,9.69,9.69
38.57,7.27,-2.39,7.28,-2.39,2.39,2.47,2.89,9.67,9.67,9.67
38.95,7.29,-2.36,7.29,-2.36,2.36,2.44,2.80,9.65,9.65,9.66
39.34,7.30,-2.32,7.30,-2.32,2.32,2.40,2.72,9.63,9.62,9.63
39.74,7.31,-2.28,7.31,-2.29,2.29,2.36,2.64,9.60,9.60,9.60
40.14,7.32,-2.25,7.32,-2.25,2.25,2.33,2.55,9.58,9.58,9.58
40.54,7.33,-2.22,7.33,-2.22,2.22,2.29,2.47,9.56,9.56,9.56
40.94,7.34,-2.18,7.34,-2.19,2.19,2.25,2.39,9.54,9.54,9.53
41.35,7.35,-2.16,7.35,-2.16,2.16,2.21,2.31,9.52,9.52,9.52
41.76,7.36,-2.12,7.36,-2.13,2.13,2.17,2.24,9.50,9.49,9.49
42.18,7.36,-2.11,7.37,-2.11,2.10,2.13,2.16,9.46,9.47,9.48
42.60,7.37,-2.07,7.37,-2.07,2.07,2.09,2.08,9.44,9.44,9.45
43.03,7.38,-2.04,7.38,-2.04,2.04,2.05,2.01,9.42,9.42,9.43
43.46,7.39,-1.99,7.40,-2.00,2.00,2.00,1.94,9.39,9.40,9.39
43.90,7.41,-1.95,7.41,-1.96,1.96,1.96,1.87,9.37,9.37,9.37
44.33,7.42,-1.91,7.42,-1.92,1.92,1.92,1.80,9.34,9.34,9.34
44.78,7.43,-1.88,7.44,-1.88,1.88,1.87,1.73,9.31,9.31,9.32
45.23,7.45,-1.84,7.45,-1.84,1.83,1.83,1.66,9.28,9.28,9.30
45.68,7.47,-1.77,7.47,-1.78,1.78,1.79,1.60,9.26,9.25,9.25
46.13,7.48,-1.73,7.49,-1.73,1.73,1.74,1.53,9.22,9.22,9.22
46.60,7.50,-1.67,7.50,-1.68,1.68,1.70,1.47,9.19,9.19,9.18
47.06,7.51,-1.63,7.51,-1.63,1.63,1.65,1.41,9.15,9.15,9.15
47.53,7.52,-1.58,7.52,-1.58,1.58,1.61,1.35,9.10,9.10,9.11
48.01,7.53,-1.52,7.53,-1.53,1.53,1.56,1.29,9.06,9.06,9.06
48.49,7.54,-1.47,7.54,-1.47,1.47,1.51,1.23,9.02,9.01,9.02
48.97,7.55,-1.41,7.55,-1.42,1.42,1.47,1.18,8.97,8.97,8.97
49.46,7.56,-1.37,7.57,-1.36,1.36,1.42,1.12,8.93,8.93,8.94
49.96,7.58,-1.29,7.58,-1.31,1.31,1.37,1.07,8.89,8.89,8.88
50.46,7.59,-1.25,7.60,-1.25,1.25,1.32,1.02,8.84,8.84,8.85
50.96,7.61,-1.19,7.61,-1.19,1.19,1.28,0.97,8.80,8.80,8.81
51.47,7.63,-1.13,7.63,-1.13,1.13,1.23,0.92,8.77,8.77,8.77
51.99,7.65,-1.06,7.65,-1.07,1.07,1.18,0.87,8.73,8.73,8.72
52.51,7.67,-1.01,7.67,-1.02,1.02,1.13,0.82,8.69,8.69,8.69
53.03,7.68,-0.97,7.69,-0.96,0.96,1.08,0.77,8.64,8.65,8.66
53.56,7.70,-0.90,7.70,-0.91,0.90,1.03,0.72,8.61,8.60,8.61
54.10,7.71,-0.84,7.71,-0.85,0.85,0.98,0.68,8.56,8.56,8.56
54.64,7.72,-0.79,7.72,-0.79,0.80,0.93,0.63,8.52,8.52,8.52
55.18,7.73,-0.74,7.73,-0.74,0.74,0.88,0.59,8.48,8.48,8.48
55.74,7.74,-0.68,7.74,-0.69,0.69,0.83,0.54,8.44,8.44,8.43
56.29,7.75,-0.65,7.75,-0.65,0.65,0.78,0.50,8.40,8.40,8.41
56.86,7.76,-0.60,7.76,-0.60,0.60,0.73,0.46,8.36,8.36,8.37
57.42,7.76,-0.55,7.77,-0.55,0.56,0.68,0.41,8.32,8.33,8.32
58.00,7.77,-0.50,7.77,-0.51,0.52,0.63,0.37,8.29,8.29,8.28
58.58,7.77,-0.47,7.77,-0.47,0.48,0.57,0.33,8.25,8.25,8.25
59.16,7.77,-0.44,7.77,-0.44,0.44,0.52,0.29,8.21,8.21,8.22
59.76,7.76,-0.40,7.76,-0.41,0.39,0.47,0.25,8.16,8.16,8.17
60.35,7.75,-0.36,7.75,-0.36,0.35,0.42,0.21,8.10,8.10,8.12
60.96,7.74,-0.31,7.75,-0.31,0.30,0.37,0.17,8.05,8.05,8.06
61.57,7.74,-0.25,7.74,-0.25,0.25,0.32,0.13,8.00,8.00,8.00
62.18,7.74,-0.19,7.74,-0.19,0.20,0.26,0.09,7.94,7.94,7.94
62.80,7.74,-0.13,7.74,-0.14,0.14,0.21,0.04,7.89,7.89,7.88
63.43,7.74,-0.08,7.74,-0.08,0.09,0.16,0.00,7.83,7.83,7.83
64.07,7.74,-0.03,7.74,-0.03,0.03,0.10,-0.04,7.78,7.78,7.78
64.71,7.74,0.02,7.74,0.02,-0.02,0.05,-0.08,7.72,7.72,7.73
65.35,7.74,0.08,7.74,0.07,-0.07,-0.00,-0.12,7.67,7.67,7.67
66.01,7.74,0.13,7.74,0.12,-0.12,-0.05,-0.16,7.62,7.62,7.62
66.67,7.74,0.17,7.74,0.18,-0.18,-0.11,-0.20,7.57,7.57,7.58
67.33,7.74,0.24,7.74,0.23,-0.23,-0.16,-0.24,7.51,7.51,7.51
68.01,7.74,0.29,7.74,0.28,-0.28,-0.21,-0.28,7.46,7.46,7.46
68.69,7.74,0.34,7.74,0.34,-0.34,-0.27,-0.32,7.41,7.41,7.41
69.37,7.74,0.39,7.74,0.39,-0.39,-0.32,-0.36,7.35,7.35,7.36
70.07,7.74,0.45,7.74,0.45,-0.45,-0.38,-0.40,7.29,7.29,7.30
70.77,7.74,0.52,7.74,0.51,-0.51,-0.43,-0.45,7.23,7.23,7.23
71.48,7.74,0.57,7.74,0.57,-0.57,-0.48,-0.49,7.17,7.17,7.18
72.19,7.74,0.63,7.74,0.63,-0.63,-0.54,-0.53,7.11,7.11,7.12
72.91,7.74,0.70,7.74,0.69,-0.69,-0.59,-0.58,7.06,7.06,7.05
73.64,7.74,0.75,7.74,0.75,-0.75,-0.64,-0.62,7.00,7.00,7.00
74.38,7.74,0.81,7.74,0.80,-0.80,-0.70,-0.66,6.94,6.94,6.94
75.12,7.74,0.86,7.74,0.86,-0.86,-0.75,-0.71,6.89,6.89,6.89
75.87,7.74,0.91,7.74,0.91,-0.91,-0.81,-0.76,6.83,6.83,6.84
76.63,7.74,0.97,7.74,0.96,-0.96,-0.86,-0.80,6.78,6.78,6.78
77.40,7.74,1.01,7.74,1.01,-1.01,-0.91,-0.85,6.73,6.73,6.74
78.17,7.74,1.07,7.74,1.06,-1.06,-0.97,-0.90,6.68,6.68,6.68
78.95,7.74,1.11,7.74,1.11,-1.11,-1.02,-0.95,6.63,6.63,6.64
79.74,7.74,1.16,7.74,1.16,-1.16,-1.08,-1.00,6.59,6.59,6.59
80.54,7.74,1.21,7.74,1.21,-1.21,-1.13,-1.05,6.54,6.54,6.54
81.35,7.74,1.27,7.74,1.26,-1.26,-1.18,-1.11,6.49,6.49,6.48
82.16,7.74,1.30,7.74,1.31,-1.31,-1.24,-1.16,6.44,6.44,6.45
82.98,7.74,1.36,7.74,1.35,-1.36,-1.29,-1.21,6.38,6.38,6.39
83.81,7.74,1.41,7.74,1.41,-1.41,-1.34,-1.27,6.33,6.33,6.34
84.65,7.74,1.47,7.74,1.47,-1.46,-1.40,-1.33,6.28,6.28,6.28
85.50,7.74,1.53,7.74,1.52,-1.52,-1.45,-1.38,6.23,6.23,6.22
86.35,7.74,1.58,7.74,1.58,-1.57,-1.51,-1.44,6.17,6.17,6.17
87.22,7.74,1.63,7.74,1.63,-1.63,-1.56,-1.50,6.11,6.11,6.12
88.09,7.74,1.69,7.74,1.69,-1.69,-1.61,-1.56,6.06,6.06,6.06
88.97,7.74,1.75,7.74,1.74,-1.74,-1.67,-1.63,6.00,6.00,6.00
89.86,7.74,1.80,7.74,1.80,-1.80,-1.72,-1.69,5.94,5.94,5.95
90.76,7.74,1.86,7.74,1.86,-1.86,-1.77,-1.76,5.89,5.89,5.89
91.66,7.74,1.93,7.74,1.92,-1.91,-1.83,-1.82,5.83,5.83,5.82
92.58,7.74,1.98,7.74,1.98,-1.97,-1.88,-1.89,5.77,5.77,5.77
93.51,7.74,2.03,7.74,2.03,-2.03,-1.93,-1.96,5.71,5.71,5.72
94.44,7.74,2.09,7.74,2.09,-2.10,-1.99,-2.03,5.65,5.65,5.66
95.39,7.74,2.16,7.74,2.15,-2.16,-2.04,-2.10,5.58,5.58,5.59
96.34,7.74,2.23,7.74,2.22,-2.23,-2.09,-2.17,5.52,5.52,5.52
97.30,7.74,2.29,7.75,2.29,-2.29,-2.14,-2.25,5.45,5.45,5.46
98.28,7.75,2.37,7.75,2.36,-2.36,-2.20,-2.32,5.39,5.39,5.39
99.26,7.75,2.43,7.76,2.43,-2.43,-2.25,-2.40,5.33,5.33,5.33
100.25,7.76,2.50,7.77,2.50,-2.49,-2.30,-2.47,5.27,5.27,5.27
101.25,7.77,2.56,7.77,2.56,-2.55,-2.35,-2.55,5.22,5.22,5.22
102.27,7.77,2.62,7.77,2.62,-2.61,-2.40,-2.62,5.16,5.16,5.16
103.29,7.76,2.67,7.77,2.67,-2.66,-2.45,-2.70,5.10,5.11,5.10
104.32,7.75,2.71,7.75,2.71,-2.70,-2.51,-2.77,5.05,5.05,5.05
105.37,7.73,2.75,7.74,2.75,-2.74,-2.56,-2.85,4.99,4.99,4.99
106.42,7.71,2.78,7.71,2.78,-2.77,-2.61,-2.93,4.94,4.94,4.94
107.48,7.68,2.81,7.68,2.80,-2.80,-2.66,-3.00,4.89,4.88,4.88
108.56,7.64,2.82,7.65,2.82,-2.82,-2.71,-3.07,4.82,4.83,4.83
109.64,7.61,2.85,7.61,2.84,-2.84,-2.76,-3.15,4.77,4.77,4.77
110.74,7.57,2.87,7.57,2.86,-2.87,-2.81,-3.22,4.71,4.71,4.71
111.85,7.53,2.89,7.54,2.89,-2.89,-2.86,-3.29,4.64,4.65,4.65
112.97,7.50,2.91,7.50,2.91,-2.92,-2.91,-3.35,4.59,4.58,4.60
114.10,7.47,2.94,7.47,2.94,-2.95,-2.96,-3.42,4.52,4.52,4.54
115.24,7.44,2.99,7.45,2.98,-2.99,-3.00,-3.48,4.46,4.46,4.46
116.39,7.43,3.04,7.43,3.03,-3.03,-3.05,-3.54,4.41,4.40,4.40
117.55,7.41,3.08,7.41,3.08,-3.07,-3.10,-3.59,4.34,4.34,4.34
118.73,7.40,3.13,7.41,3.12,-3.12,-3.15,-3.64,4.28,4.28,4.28
119.92,7.40,3.17,7.40,3.17,-3.18,-3.20,-3.69,4.23,4.23,4.24
121.12,7.41,3.23,7.41,3.23,-3.23,-3.24,-3.74,4.18,4.18,4.19
122.33,7.41,3.29,7.42,3.28,-3.28,-3.29,-3.78,4.13,4.13,4.13
123.55,7.42,3.35,7.42,3.34,-3.34,-3.34,-3.81,4.09,4.08,4.08
124.79,7.42,3.40,7.42,3.40,-3.40,-3.38,-3.84,4.03,4.03,4.03
126.03,7.42,3.46,7.42,3.46,-3.46,-3.43,-3.87,3.97,3.97,3.97
127.29,7.42,3.51,7.42,3.51,-3.52,-3.47,-3.89,3.91,3.91,3.92
128.57,7.42,3.58,7.42,3.57,-3.58,-3.52,-3.91,3.85,3.85,3.85
129.85,7.42,3.63,7.43,3.63,-3.64,-3.56,-3.92,3.79,3.79,3.80
131.15,7.43,3.70,7.43,3.70,-3.70,-3.60,-3.93,3.74,3.74,3.74
132.46,7.44,3.76,7.44,3.76,-3.75,-3.65,-3.94,3.69,3.69,3.69
133.79,7.44,3.82,7.45,3.82,-3.81,-3.69,-3.95,3.64,3.64,3.63
135.12,7.44,3.87,7.44,3.86,-3.86,-3.73,-3.95,3.59,3.59,3.58
136.48,7.43,3.91,7.43,3.91,-3.90,-3.77,-3.94,3.53,3.53,3.53
137.84,7.41,3.94,7.42,3.94,-3.94,-3.82,-3.94,3.48,3.48,3.48
139.22,7.39,3.98,7.39,3.97,-3.97,-3.86,-3.93,3.43,3.43,3.42
140.61,7.36,3.99,7.36,3.99,-3.99,-3.90,-3.93,3.37,3.37,3.38
142.02,7.32,4.01,7.33,4.01,-4.01,-3.94,-3.92,3.32,3.32,3.32
143.44,7.30,4.03,7.30,4.02,-4.02,-3.98,-3.91,3.28,3.28,3.28
144.87,7.26,4.03,7.27,4.03,-4.03,-4.01,-3.90,3.23,3.23,3.24
146.32,7.23,4.05,7.24,4.05,-4.04,-4.05,-3.88,3.19,3.19,3.19
147.78,7.20,4.06,7.20,4.06,-4.05,-4.09,-3.87,3.15,3.15,3.15
149.26,7.17,4.08,7.17,4.07,-4.07,-4.13,-3.86,3.11,3.11,3.10
150.75,7.14,4.09,7.14,4.08,-4.08,-4.16,-3.85,3.06,3.06,3.06
152.26,7.11,4.10,7.11,4.10,-4.11,-4.20,-3.84,3.01,3.01,3.02
153.78,7.09,4.12,7.10,4.12,-4.14,-4.23,-3.84,2.96,2.96,2.98
155.32,7.08,4.15,7.09,4.15,-4.18,-4.27,-3.83,2.91,2.91,2.94
156.88,7.09,4.21,7.09,4.21,-4.22,-4.30,-3.83,2.88,2.88,2.89
158.44,7.10,4.27,7.10,4.26,-4.26,-4.33,-3.82,2.85,2.85,2.84
160.03,7.11,4.32,7.11,4.32,-4.30,-4.37,-3.82,2.81,2.81,2.80
161.63,7.11,4.36,7.11,4.36,-4.34,-4.40,-3.82,2.77,2.77,2.76
163.24,7.10,4.40,7.10,4.39,-4.38,-4.43,-3.83,2.72,2.72,2.71
164.88,7.07,4.42,7.08,4.42,-4.41,-4.46,-3.84,2.66,2.67,2.66
166.53,7.05,4.45,7.05,4.44,-4.44,-4.49,-3.85,2.62,2.62,2.61
168.19,7.02,4.45,7.02,4.45,-4.46,-4.51,-3.86,2.57,2.57,2.58
169.87,6.98,4.47,6.99,4.47,-4.47,-4.54,-3.87,2.51,2.52,2.52
171.57,6.95,4.49,6.95,4.48,-4.48,-4.57,-3.89,2.47,2.47,2.47
173.29,6.92,4.50,6.92,4.49,-4.49,-4.59,-3.91,2.43,2.42,2.43
175.02,6.87,4.50,6.88,4.50,-4.51,-4.62,-3.94,2.37,2.37,2.38
176.77,6.84,4.52,6.85,4.52,-4.52,-4.64,-3.97,2.32,2.33,2.33
178.54,6.82,4.54,6.82,4.54,-4.54,-4.67,-4.00,2.28,2.28,2.29
180.32,6.80,4.58,6.80,4.56,-4.56,-4.69,-4.03,2.24,2.24,2.23
182.13,6.78,4.59,6.78,4.59,-4.59,-4.71,-4.07,2.19,2.19,2.20
183.95,6.75,4.61,6.76,4.62,-4.62,-4.73,-4.11,2.13,2.14,2.15
185.79,6.75,4.66,6.75,4.65,-4.66,-4.75,-4.15,2.09,2.09,2.10
187.65,6.75,4.70,6.75,4.70,-4.70,-4.77,-4.20,2.05,2.05,2.06
189.52,6.76,4.75,6.76,4.75,-4.75,-4.79,-4.25,2.02,2.01,2.02
191.42,6.77,4.80,6.77,4.79,-4.80,-4.80,-4.30,1.98,1.97,1.98
193.33,6.77,4.84,6.78,4.85,-4.85,-4.82,-4.35,1.93,1.93,1.94
195.27,6.78,4.90,6.78,4.90,-4.90,-4.83,-4.41,1.89,1.89,1.89
197.22,6.79,4.96,6.79,4.95,-4.94,-4.85,-4.47,1.85,1.85,1.84
199.19,6.79,4.99,6.80,4.99,-4.98,-4.86,-4.53,1.81,1.81,1.81
201.18,6.79,5.03,6.80,5.03,-5.02,-4.87,-4.59,1.78,1.78,1.77
203.19,6.79,5.06,6.79,5.05,-5.05,-4.88,-4.65,1.75,1.75,1.74
205.23,6.78,5.07,6.78,5.07,-5.06,-4.89,-4.72,1.72,1.72,1.72
207.28,6.76,5.08,6.76,5.08,-5.08,-4.90,-4.78,1.69,1.69,1.69
209.35,6.73,5.09,6.74,5.08,-5.08,-4.91,-4.85,1.65,1.65,1.65
211.44,6.70,5.09,6.71,5.08,-5.08,-4.92,-4.92,1.62,1.62,1.62
213.56,6.67,5.08,6.67,5.08,-5.08,-4.92,-4.99,1.59,1.59,1.60
215.69,6.63,5.07,6.63,5.07,-5.07,-4.93,-5.05,1.56,1.56,1.57
217.85,6.59,5.06,6.60,5.06,-5.07,-4.93,-5.12,1.53,1.53,1.54
220.03,6.57,5.07,6.57,5.06,-5.06,-4.94,-5.18,1.51,1.51,1.51
222.23,6.54,5.07,6.54,5.06,-5.06,-4.94,-5.24,1.49,1.48,1.48
224.45,6.51,5.05,6.51,5.05,-5.05,-4.94,-5.30,1.46,1.46,1.47
226.70,6.48,5.05,6.49,5.05,-5.05,-4.94,-5.35,1.43,1.44,1.44
228.96,6.47,5.05,6.47,5.05,-5.06,-4.94,-5.40,1.42,1.42,1.43
231.25,6.46,5.06,6.46,5.05,-5.06,-4.93,-5.45,1.41,1.40,1.41
233.57,6.44,5.06,6.45,5.06,-5.06,-4.93,-5.49,1.38,1.39,1.39
235.90,6.43,5.06,6.43,5.06,-5.06,-4.92,-5.52,1.37,1.37,1.38
238.26,6.42,5.08,6.42,5.06,-5.06,-4.92,-5.55,1.37,1.36,1.35
240.64,6.40,5.05,6.41,5.06,-5.05,-4.91,-5.57,1.35,1.36,1.36
243.05,6.39,5.06,6.39,5.05,-5.04,-4.90,-5.59,1.35,1.35,1.34
245.48,6.36,5.04,6.36,5.03,-5.03,-4.89,-5.60,1.34,1.34,1.33
247.93,6.32,5.01,6.33,5.01,-5.01,-4.88,-5.60,1.32,1.32,1.32
250.41,6.29,4.97,6.29,4.97,-4.99,-4.87,-5.59,1.31,1.31,1.33
252.92,6.26,4.95,6.27,4.95,-4.96,-4.86,-5.58,1.30,1.31,1.32
255.45,6.24,4.94,6.24,4.93,-4.93,-4.84,-5.56,1.31,1.31,1.31
258.00,6.22,4.92,6.22,4.91,-4.91,-4.83,-5.53,1.32,1.32,1.31
260.58,6.19,4.89,6.19,4.89,-4.88,-4.81,-5.50,1.32,1.31,1.31
263.19,6.16,4.86,6.16,4.85,-4.85,-4.80,-5.45,1.31,1.31,1.31
265.82,6.11,4.82,6.12,4.82,-4.82,-4.78,-5.40,1.29,1.30,1.30
268.48,6.09,4.80,6.09,4.79,-4.80,-4.76,-5.35,1.30,1.29,1.30
271.16,6.06,4.77,6.06,4.76,-4.77,-4.74,-5.29,1.29,1.29,1.30
273.87,6.02,4.73,6.03,4.73,-4.75,-4.72,-5.22,1.28,1.28,1.30
276.61,6.00,4.71,6.00,4.71,-4.72,-4.70,-5.15,1.28,1.28,1.30
279.38,5.98,4.71,5.98,4.70,-4.70,-4.67,-5.08,1.29,1.29,1.28
282.17,5.96,4.69,5.96,4.68,-4.67,-4.65,-5.00,1.29,1.30,1.28
284.99,5.94,4.66,5.94,4.65,-4.64,-4.62,-4.92,1.30,1.30,1.29
287.84,5.90,4.61,5.90,4.61,-4.61,-4.60,-4.84,1.30,1.30,1.30
290.72,5.86,4.58,5.87,4.57,-4.57,-4.57,-4.76,1.30,1.30,1.29
293.63,5.82,4.53,5.83,4.53,-4.53,-4.54,-4.67,1.29,1.30,1.30
296.57,5.79,4.49,5.79,4.49,-4.49,-4.51,-4.59,1.30,1.30,1.31
299.53,5.75,4.45,5.75,4.44,-4.45,-4.48,-4.50,1.30,1.30,1.31
302.53,5.71,4.39,5.72,4.40,-4.41,-4.45,-4.41,1.30,1.30,1.33
305.55,5.68,4.37,5.69,4.36,-4.38,-4.41,-4.32,1.31,1.31,1.32
308.61,5.66,4.34,5.66,4.34,-4.34,-4.38,-4.24,1.32,1.33,1.33
311.69,5.64,4.31,5.65,4.31,-4.30,-4.35,-4.15,1.34,1.35,1.34
314.81,5.62,4.29,5.62,4.28,-4.26,-4.31,-4.07,1.37,1.36,1.34
317.96,5.58,4.24,5.58,4.23,-4.21,-4.27,-3.99,1.37,1.37,1.35
321.14,5.52,4.17,5.53,4.18,-4.17,-4.24,-3.91,1.36,1.37,1.36
324.35,5.48,4.13,5.48,4.11,-4.12,-4.20,-3.83,1.36,1.36,1.36
327.59,5.43,4.05,5.43,4.06,-4.07,-4.16,-3.75,1.36,1.36,1.39
330.87,5.38,4.01,5.39,4.01,-4.02,-4.12,-3.68,1.36,1.36,1.38
334.18,5.35,3.97,5.35,3.96,-3.98,-4.08,-3.60,1.38,1.37,1.39
337.52,5.31,3.93,5.32,3.93,-3.93,-4.04,-3.53,1.38,1.39,1.39
340.90,5.30,3.90,5.30,3.89,-3.89,-3.99,-3.47,1.42,1.41,1.41
344.30,5.27,3.86,5.27,3.86,-3.84,-3.95,-3.40,1.43,1.43,1.42
347.75,5.23,3.82,5.23,3.81,-3.80,-3.90,-3.34,1.43,1.43,1.42
351.23,5.18,3.77,5.19,3.76,-3.76,-3.86,-3.28,1.43,1.43,1.42
354.74,5.14,3.70,5.14,3.71,-3.71,-3.81,-3.22,1.43,1.43,1.45
358.28,5.09,3.66,5.10,3.65,-3.67,-3.76,-3.17,1.43,1.43,1.44
361.87,5.05,3.61,5.06,3.61,-3.62,-3.72,-3.11,1.44,1.44,1.45
365.49,5.02,3.57,5.02,3.56,-3.57,-3.67,-3.06,1.45,1.45,1.46
369.14,4.99,3.52,4.99,3.52,-3.52,-3.62,-3.02,1.47,1.47,1.48
372.83,4.96,3.49,4.96,3.49,-3.47,-3.57,-2.97,1.49,1.49,1.48
376.56,4.92,3.45,4.92,3.44,-3.43,-3.52,-2.93,1.50,1.50,1.48
380.33,4.87,3.39,4.87,3.38,-3.38,-3.47,-2.89,1.50,1.50,1.49
384.13,4.82,3.32,4.82,3.32,-3.33,-3.41,-2.85,1.50,1.50,1.51
387.97,4.77,3.27,4.78,3.27,-3.28,-3.36,-2.81,1.50,1.50,1.51
391.85,4.73,3.22,4.74,3.22,-3.22,-3.31,-2.78,1.51,1.51,1.52
395.77,4.70,3.18,4.70,3.17,-3.17,-3.25,-2.75,1.53,1.53,1.53
399.73,4.66,3.13,4.66,3.12,-3.12,-3.20,-2.71,1.54,1.54,1.54
403.72,4.62,3.06,4.63,3.07,-3.07,-3.14,-2.68,1.55,1.56,1.57
407.76,4.59,3.04,4.59,3.02,-3.02,-3.09,-2.66,1.57,1.57,1.56
411.84,4.54,2.98,4.55,2.97,-2.97,-3.03,-2.63,1.57,1.57,1.57
415.96,4.50,2.92,4.51,2.93,-2.92,-2.97,-2.61,1.58,1.59,1.59
420.12,4.46,2.88,4.46,2.87,-2.87,-2.91,-2.58,1.59,1.59,1.59
424.32,4.42,2.83,4.42,2.82,-2.82,-2.85,-2.56,1.60,1.60,1.60
428.56,4.37,2.76,4.37,2.76,-2.77,-2.80,-2.53,1.60,1.60,1.62
432.85,4.32,2.70,4.33,2.71,-2.72,-2.74,-2.51,1.61,1.61,1.63
437.18,4.28,2.67,4.28,2.66,-2.67,-2.68,-2.49,1.62,1.62,1.62
441.55,4.24,2.62,4.24,2.62,-2.61,-2.62,-2.47,1.64,1.64,1.63
445.96,4.20,2.57,4.20,2.57,-2.55,-2.55,-2.44,1.65,1.65,1.64
450.42,4.15,2.51,4.15,2.51,-2.49,-2.49,-2.42,1.66,1.66,1.65
454.93,4.09,2.44,4.09,2.44,-2.43,-2.43,-2.40,1.66,1.66,1.66
459.48,4.03,2.37,4.03,2.36,-2.37,-2.37,-2.37,1.67,1.67,1.67
464.07,3.97,2.29,3.98,2.29,-2.31,-2.31,-2.34,1.67,1.67,1.69
468.71,3.92,2.23,3.92,2.23,-2.25,-2.24,-2.32,1.68,1.68,1.70
473.40,3.87,2.18,3.88,2.18,-2.18,-2.18,-2.29,1.69,1.69,1.70
478.13,3.83,2.13,3.83,2.13,-2.12,-2.12,-2.26,1.71,1.71,1.71
482.91,3.79,2.08,3.79,2.07,-2.06,-2.05,-2.22,1.73,1.73,1.72
487.74,3.74,2.02,3.74,2.02,-2.01,-1.99,-2.19,1.74,1.74,1.73
492.62,3.69,1.96,3.69,1.95,-1.95,-1.92,-2.15,1.74,1.74,1.74
497.55,3.63,1.89,3.64,1.89,-1.89,-1.86,-2.11,1.74,1.75,1.75
502.52,3.58,1.83,3.59,1.83,-1.83,-1.79,-2.07,1.75,1.75,1.76
507.55,3.54,1.77,3.54,1.77,-1.77,-1.73,-2.03,1.77,1.77,1.78
512.62,3.50,1.72,3.50,1.71,-1.71,-1.66,-1.98,1.79,1.79,1.79
517.75,3.46,1.66,3.46,1.66,-1.66,-1.59,-1.94,1.81,1.81,1.81
522.93,3.41,1.60,3.42,1.60,-1.60,-1.53,-1.89,1.81,1.82,1.82
528.16,3.37,1.55,3.37,1.54,-1.54,-1.46,-1.83,1.83,1.83,1.83
533.44,3.32,1.49,3.33,1.49,-1.49,-1.40,-1.78,1.84,1.84,1.84
538.77,3.28,1.44,3.28,1.43,-1.43,-1.33,-1.72,1.85,1.85,1.85
544.16,3.23,1.38,3.24,1.38,-1.38,-1.26,-1.66,1.86,1.86,1.86
549.60,3.19,1.33,3.19,1.32,-1.32,-1.20,-1.60,1.87,1.87,1.87
555.10,3.15,1.27,3.15,1.27,-1.27,-1.13,-1.54,1.89,1.88,1.89
