frequency,raw,error,smoothed,error_smoothed,equalization,parametric_eq,fixed_band_eq,equalized_raw,equalized_smoothed,target
20.00,-16.62,-21.36,-16.42,-21.19,21.19,19.50,8.83,4.58,4.77,4.74
20.20,-16.36,-21.15,-16.25,-21.06,21.06,19.79,9.00,4.70,4.81,4.79
20.40,-16.11,-20.95,-16.08,-20.92,20.92,20.05,9.18,4.82,4.85,4.84
20.61,-15.85,-20.73,-15.91,-20.79,20.79,20.25,9.36,4.93,4.88,4.87
20.81,-15.59,-20.51,-15.75,-20.66,20.66,20.40,9.54,5.07,4.91,4.92
21.02,-15.35,-20.31,-15.59,-20.52,20.52,20.48,9.73,5.17,4.94,4.96
21.23,-15.27,-20.25,-15.43,-20.39,20.39,20.50,9.92,5.12,4.96,4.98
21.44,-15.18,-20.18,-15.27,-20.26,20.26,20.47,10.11,5.08,4.99,5.00
21.66,-15.10,-20.12,-15.12,-20.13,20.13,20.37,10.32,5.03,5.01,5.02
21.87,-15.01,-20.04,-14.98,-20.00,20.00,20.23,10.52,5.00,5.02,5.03
22.09,-14.91,-19.96,-14.84,-19.88,19.88,20.04,10.74,4.97,5.04,5.05
22.31,-14.78,-19.84,-14.70,-19.75,19.75,19.82,10.95,4.97,5.05,5.06
22.54,-14.65,-19.71,-14.58,-19.64,19.64,19.58,11.18,4.99,5.06,5.06
22.76,-14.52,-19.58,-14.47,-19.53,19.53,19.32,11.41,5.02,5.06,5.06
22.99,-14.39,-19.44,-14.36,-19.43,19.43,19.04,11.64,5.04,5.07,5.05
23.22,-14.24,-19.29,-14.25,-19.32,19.32,18.76,11.89,5.08,5.07,5.05
23.45,-14.09,-19.14,-14.13,-19.19,19.19,18.48,12.14,5.10,5.07,5.05
23.69,-13.94,-19.00,-13.99,-19.06,19.06,18.20,12.39,5.11,5.07,5.06
23.92,-13.79,-18.85,-13.85,-18.91,18.91,17.92,12.66,5.13,5.07,5.06
24.16,-13.67,-18.73,-13.70,-18.77,18.77,17.66,12.93,5.10,5.07,5.06
24.40,-13.56,-18.63,-13.56,-18.62,18.62,17.40,13.21,5.06,5.07,5.07
24.65,-13.46,-18.52,-13.41,-18.48,18.48,17.15,13.50,5.02,5.06,5.06
24.89,-13.35,-18.41,-13.27,-18.33,18.33,16.91,13.79,4.99,5.07,5.06
25.14,-13.20,-18.26,-13.12,-18.19,18.19,16.68,14.10,4.99,5.07,5.06
25.39,-13.01,-18.08,-12.98,-18.05,18.05,16.46,14.41,5.04,5.07,5.07
25.65,-12.81,-17.88,-12.83,-17.90,17.90,16.26,14.73,5.09,5.07,5.07
25.91,-12.62,-17.69,-12.69,-17.75,17.75,16.06,15.06,5.13,5.07,5.06
26.16,-12.47,-17.53,-12.54,-17.60,17.60,15.88,15.41,5.14,5.07,5.06
26.43,-12.35,-17.41,-12.38,-17.45,17.45,15.71,15.76,5.10,5.06,5.06
26.69,-12.22,-17.28,-12.23,-17.29,17.29,15.55,16.11,5.07,5.06,5.06
26.96,-12.10,-17.16,-12.06,-17.12,17.12,15.40,16.48,5.02,5.06,5.06
27.23,-11.94,-17.00,-11.90,-16.96,16.96,15.26,16.85,5.02,5.06,5.06
27.50,-11.78,-16.84,-11.74,-16.79,16.79,15.13,17.23,5.01,5.06,5.06
27.77,-11.61,-16.66,-11.58,-16.63,16.63,15.02,17.62,5.02,5.06,5.05
28.05,-11.45,-16.50,-11.43,-16.48,16.48,14.91,18.00,5.03,5.05,5.05
28.33,-11.29,-16.33,-11.29,-16.34,16.34,14.81,18.39,5.06,5.05,5.04
28.62,-11.12,-16.17,-11.16,-16.21,16.21,14.72,18.76,5.09,5.05,5.04
28.90,-10.96,-16.01,-11.02,-16.07,16.07,14.63,19.13,5.11,5.05,5.05
29.19,-10.81,-15.85,-10.88,-15.93,15.93,14.56,19.48,5.12,5.05,5.04
29.48,-10.68,-15.73,-10.74,-15.79,15.79,14.49,19.80,5.11,5.05,5.05
29.78,-10.55,-15.59,-10.60,-15.65,15.65,14.42,20.09,5.09,5.05,5.04
30.08,-10.43,-15.48,-10.45,-15.50,15.50,14.36,20.33,5.07,5.04,5.05
30.38,-10.35,-15.39,-10.31,-15.35,15.35,14.31,20.52,5.00,5.04,5.04
30.68,-10.27,-15.31,-10.16,-15.21,15.21,14.26,20.65,4.94,5.04,5.04
30.99,-10.19,-15.23,-10.03,-15.07,15.07,14.21,20.71,4.88,5.04,5.04
31.30,-9.99,-15.03,-9.90,-14.94,14.94,14.17,20.70,4.95,5.04,5.03
31.61,-9.77,-14.80,-9.77,-14.80,14.80,14.12,20.61,5.03,5.03,5.03
31.93,-9.56,-14.60,-9.63,-14.66,14.66,14.07,20.46,5.10,5.03,5.03
32.24,-9.39,-14.41,-9.49,-14.52,14.52,14.03,20.25,5.13,5.03,5.02
32.57,-9.23,-14.25,-9.34,-14.36,14.36,13.98,19.99,5.13,5.02,5.02
32.89,-9.07,-14.09,-9.17,-14.19,14.19,13.92,19.68,5.12,5.02,5.02
33.22,-8.98,-13.99,-9.00,-14.01,14.01,13.86,19.34,5.04,5.01,5.01
33.55,-8.91,-13.92,-8.83,-13.84,13.84,13.80,18.97,4.93,5.01,5.01
33.89,-8.84,-13.84,-8.67,-13.67,13.67,13.72,18.58,4.83,5.00,5.00
34.23,-8.66,-13.66,-8.51,-13.51,13.51,13.64,18.18,4.85,5.00,5.00
34.57,-8.41,-13.40,-8.35,-13.35,13.35,13.55,17.78,4.94,5.00,4.99
34.92,-8.17,-13.17,-8.20,-13.19,13.19,13.45,17.37,5.02,4.99,4.99
35.27,-7.96,-12.95,-8.04,-13.03,13.03,13.34,16.97,5.07,4.99,4.98
35.62,-7.77,-12.75,-7.88,-12.87,12.87,13.22,16.57,5.10,4.99,4.98
35.97,-7.57,-12.55,-7.72,-12.71,12.71,13.09,16.17,5.14,4.98,4.98
36.33,-7.51,-12.49,-7.56,-12.54,12.54,12.95,15.79,5.03,4.98,4.98
36.70,-7.46,-12.43,-7.40,-12.38,12.38,12.80,15.41,4.92,4.98,4.97
37.06,-7.38,-12.35,-7.24,-12.22,12.22,12.64,15.04,4.84,4.98,4.97
37.43,-7.16,-12.14,-7.10,-12.08,12.08,12.46,14.67,4.92,4.98,4.98
37.81,-6.94,-11.92,-6.96,-11.94,11.94,12.28,14.32,5.00,4.98,4.98
38.19,-6.77,-11.74,-6.83,-11.81,11.81,12.09,13.97,5.04,4.98,4.97
38.57,-6.65,-11.63,-6.70,-11.69,11.69,11.89,13.63,5.04,4.98,4.98
38.95,-6.52,-11.51,-6.57,-11.56,11.56,11.69,13.31,5.04,4.98,4.99
39.34,-6.41,-11.39,-6.44,-11.42,11.42,11.48,12.99,5.01,4.98,4.98
39.74,-6.29,-11.27,-6.30,-11.28,11.28,11.26,12.67,4.99,4.98,4.98
40.14,-6.18,-11.16,-6.15,-11.13,11.13,11.04,12.37,4.95,4.98,4.98
40.54,-6.09,-11.07,-5.99,-10.98,10.98,10.82,12.07,4.89,4.98,4.98
40.94,-6.00,-10.97,-5.84,-10.82,10.82,10.59,11.78,4.82,4.98,4.97
41.35,-5.78,-10.75,-5.70,-10.67,10.67,10.36,11.50,4.89,4.97,4.97
41.76,-5.53,-10.49,-5.56,-10.52,10.52,10.13,11.22,4.99,4.96,4.96
42.18,-5.33,-10.29,-5.42,-10.37,10.37,9.91,10.95,5.04,4.96,4.96
42.60,-5.21,-10.16,-5.27,-10.22,10.22,9.68,10.68,5.01,4.95,4.95
43.03,-5.08,-10.02,-5.13,-10.06,10.06,9.45,10.42,4.98,4.93,4.94
43.46,-4.95,-9.88,-4.98,-9.90,9.90,9.23,10.17,4.96,4.92,4.93
43.90,-4.82,-9.73,-4.83,-9.75,9.75,9.00,9.92,4.92,4.91,4.91
44.33,-4.69,-9.58,-4.69,-9.59,9.59,8.78,9.68,4.90,4.90,4.89
44.78,-4.56,-9.43,-4.56,-9.45,9.45,8.57,9.44,4.89,4.89,4.87
45.23,-4.44,-9.30,-4.44,-9.31,9.31,8.35,9.20,4.87,4.87,4.86
45.68,-4.32,-9.17,-4.32,-9.18,9.18,8.14,8.97,4.86,4.86,4.85
46.13,-4.20,-9.03,-4.21,-9.05,9.05,7.93,8.75,4.85,4.84,4.83
46.60,-4.08,-8.91,-4.09,-8.92,8.92,7.73,8.52,4.84,4.83,4.83
47.06,-3.96,-8.77,-3.95,-8.77,8.77,7.53,8.31,4.81,4.82,4.81
47.53,-3.81,-8.61,-3.81,-8.61,8.61,7.33,8.09,4.80,4.80,4.80
48.01,-3.67,-8.47,-3.67,-8.46,8.46,7.14,7.88,4.79,4.79,4.80
48.49,-3.59,-8.37,-3.54,-8.31,8.31,6.95,7.67,4.72,4.77,4.78
48.97,-3.51,-8.27,-3.39,-8.15,8.15,6.77,7.47,4.64,4.76,4.76
49.46,-3.33,-8.07,-3.24,-7.99,7.99,6.59,7.27,4.66,4.75,4.74
49.96,-3.14,-7.86,-3.09,-7.83,7.83,6.41,7.07,4.69,4.73,4.72
50.46,-2.89,-7.60,-2.94,-7.66,7.66,6.24,6.88,4.77,4.72,4.71
50.96,-2.64,-7.34,-2.79,-7.49,7.49,6.07,6.69,4.86,4.71,4.70
51.47,-2.53,-7.21,-2.63,-7.32,7.32,5.91,6.50,4.80,4.69,4.68
51.99,-2.42,-7.09,-2.47,-7.15,7.15,5.75,6.31,4.73,4.68,4.67
52.51,-2.34,-7.00,-2.31,-6.98,6.98,5.59,6.13,4.64,4.67,4.66
53.03,-2.26,-6.92,-2.15,-6.80,6.80,5.44,5.95,4.55,4.65,4.66
53.56,-2.01,-6.65,-1.99,-6.63,6.63,5.29,5.78,4.62,4.64,4.64
54.10,-1.79,-6.42,-1.82,-6.46,6.46,5.14,5.61,4.66,4.63,4.63
54.64,-1.70,-6.31,-1.66,-6.28,6.28,5.00,5.44,4.58,4.62,4.61
55.18,-1.58,-6.19,-1.51,-6.12,6.12,4.86,5.27,4.55,4.61,4.61
55.74,-1.38,-5.97,-1.37,-5.97,5.97,4.73,5.11,4.59,4.60,4.59
56.29,-1.20,-5.78,-1.22,-5.81,5.81,4.60,4.96,4.61,4.59,4.58
56.86,-1.02,-5.59,-1.07,-5.65,5.65,4.47,4.80,4.63,4.57,4.57
57.42,-0.89,-5.43,-0.92,-5.48,5.48,4.34,4.65,4.59,4.56,4.54
58.00,-0.78,-5.31,-0.77,-5.31,5.31,4.22,4.50,4.53,4.54,4.53
58.58,-0.61,-5.13,-0.63,-5.14,5.14,4.10,4.36,4.53,4.51,4.52
59.16,-0.46,-4.96,-0.49,-4.98,4.98,3.98,4.22,4.52,4.49,4.50
59.76,-0.33,-4.81,-0.36,-4.82,4.82,3.87,4.09,4.49,4.46,4.48
60.35,-0.23,-4.67,-0.23,-4.66,4.66,3.76,3.95,4.44,4.43,4.44
60.96,-0.16,-4.56,-0.09,-4.49,4.49,3.65,3.83,4.33,4.40,4.40
61.57,0.01,-4.35,0.04,-4.32,4.32,3.54,3.70,4.33,4.36,4.36
62.18,0.16,-4.16,0.16,-4.16,4.16,3.44,3.58,4.32,4.32,4.32
62.80,0.25,-4.02,0.29,-4.00,4.00,3.33,3.47,4.25,4.28,4.27
63.43,0.36,-3.87,0.41,-3.83,3.83,3.23,3.36,4.19,4.24,4.23
64.07,0.48,-3.70,0.52,-3.67,3.67,3.14,3.25,4.15,4.19,4.18
64.71,0.67,-3.47,0.63,-3.52,3.52,3.04,3.15,4.19,4.15,4.14
65.35,0.77,-3.33,0.73,-3.37,3.37,2.95,3.04,4.14,4.10,4.10
66.01,0.80,-3.25,0.83,-3.22,3.22,2.86,2.95,4.02,4.06,4.05
66.67,1.04,-2.96,0.93,-3.08,3.08,2.77,2.85,4.12,4.01,4.00
67.33,1.13,-2.82,1.02,-2.94,2.94,2.68,2.76,4.07,3.96,3.95
68.01,1.08,-2.83,1.10,-2.81,2.81,2.59,2.68,3.89,3.91,3.91
68.69,1.17,-2.69,1.17,-2.69,2.69,2.51,2.59,3.86,3.86,3.86
69.37,1.22,-2.59,1.24,-2.57,2.57,2.43,2.51,3.79,3.81,3.81
70.07,1.25,-2.51,1.30,-2.46,2.46,2.35,2.43,3.71,3.76,3.76
70.77,1.32,-2.39,1.37,-2.34,2.34,2.27,2.35,3.66,3.70,3.71
71.48,1.41,-2.25,1.42,-2.23,2.23,2.19,2.27,3.64,3.65,3.66
72.19,1.50,-2.09,1.47,-2.13,2.13,2.11,2.20,3.63,3.59,3.59
72.91,1.52,-2.01,1.51,-2.02,2.02,2.04,2.12,3.54,3.54,3.53
73.64,1.52,-1.96,1.56,-1.92,1.92,1.97,2.05,3.44,3.48,3.48
74.38,1.58,-1.84,1.61,-1.82,1.82,1.89,1.98,3.40,3.43,3.42
75.12,1.68,-1.68,1.66,-1.71,1.71,1.82,1.91,3.39,3.37,3.36
75.87,1.65,-1.65,1.71,-1.60,1.60,1.75,1.84,3.25,3.31,3.30
76.63,1.77,-1.48,1.75,-1.51,1.51,1.68,1.77,3.28,3.26,3.25
77.40,1.85,-1.35,1.78,-1.42,1.42,1.62,1.71,3.27,3.20,3.20
78.17,1.84,-1.30,1.81,-1.34,1.34,1.55,1.64,3.18,3.15,3.14
78.95,1.78,-1.32,1.83,-1.27,1.27,1.49,1.57,3.05,3.10,3.10
79.74,1.82,-1.23,1.85,-1.20,1.20,1.42,1.50,3.03,3.05,3.05
80.54,1.93,-1.07,1.86,-1.14,1.14,1.36,1.44,3.07,3.00,3.00
81.35,1.96,-0.99,1.87,-1.09,1.09,1.30,1.37,3.05,2.96,2.95
82.16,1.87,-1.03,1.87,-1.04,1.04,1.23,1.30,2.91,2.91,2.90
82.98,1.84,-1.02,1.86,-1.00,1.00,1.17,1.23,2.84,2.86,2.86
83.81,1.84,-0.97,1.85,-0.96,0.96,1.11,1.16,2.80,2.81,2.81
84.65,1.84,-0.92,1.85,-0.92,0.92,1.06,1.09,2.76,2.76,2.76
85.50,1.84,-0.88,1.84,-0.88,0.88,1.00,1.02,2.72,2.72,2.72
86.35,1.85,-0.82,1.84,-0.83,0.83,0.94,0.95,2.68,2.67,2.67
87.22,1.85,-0.77,1.85,-0.77,0.77,0.88,0.88,2.62,2.62,2.62
88.09,1.85,-0.72,1.87,-0.70,0.70,0.83,0.81,2.55,2.57,2.57
88.97,1.81,-0.70,1.89,-0.63,0.63,0.77,0.74,2.44,2.52,2.51
89.86,1.81,-0.65,1.92,-0.55,0.55,0.72,0.66,2.36,2.46,2.46
90.76,1.92,-0.49,1.96,-0.45,0.45,0.66,0.59,2.37,2.41,2.41
91.66,2.02,-0.34,2.01,-0.35,0.35,0.61,0.51,2.37,2.36,2.36
92.58,2.05,-0.25,2.07,-0.25,0.25,0.55,0.44,2.30,2.31,2.30
93.51,2.10,-0.15,2.13,-0.13,0.13,0.50,0.36,2.23,2.26,2.25
94.44,2.18,-0.03,2.20,-0.02,0.02,0.45,0.29,2.20,2.21,2.21
95.39,2.26,0.10,2.25,0.09,-0.09,0.40,0.21,2.17,2.16,2.16
96.34,2.36,0.25,2.31,0.19,-0.19,0.35,0.13,2.17,2.11,2.11
97.30,2.39,0.33,2.36,0.30,-0.30,0.29,0.05,2.09,2.07,2.06
98.28,2.42,0.41,2.41,0.40,-0.40,0.24,-0.03,2.02,2.02,2.01
99.26,2.50,0.53,2.44,0.47,-0.47,0.19,-0.11,2.03,1.97,1.97
100.25,2.46,0.54,2.45,0.53,-0.53,0.14,-0.19,1.94,1.92,1.92
101.25,2.44,0.57,2.44,0.57,-0.57,0.09,-0.27,1.88,1.87,1.87
102.27,2.56,0.74,2.43,0.60,-0.60,0.05,-0.35,1.96,1.82,1.82
103.29,2.49,0.72,2.41,0.63,-0.63,-0.00,-0.43,1.86,1.78,1.77
104.32,2.37,0.64,2.37,0.65,-0.65,-0.05,-0.51,1.72,1.73,1.73
105.37,2.25,0.57,2.33,0.65,-0.65,-0.10,-0.58,1.60,1.68,1.68
106.42,2.33,0.70,2.27,0.64,-0.64,-0.15,-0.66,1.69,1.62,1.63
107.48,2.25,0.68,2.20,0.63,-0.63,-0.20,-0.74,1.62,1.57,1.57
108.56,2.08,0.56,2.13,0.61,-0.61,-0.24,-0.81,1.47,1.52,1.52
109.64,1.93,0.46,2.08,0.61,-0.61,-0.29,-0.89,1.32,1.47,1.47
110.74,1.98,0.57,2.02,0.61,-0.61,-0.34,-0.96,1.37,1.42,1.41
111.85,2.09,0.72,1.97,0.61,-0.61,-0.38,-1.03,1.48,1.37,1.37
112.97,2.00,0.69,1.93,0.62,-0.62,-0.43,-1.10,1.39,1.32,1.31
114.10,1.87,0.61,1.90,0.64,-0.64,-0.48,-1.17,1.23,1.27,1.26
115.24,1.86,0.65,1.90,0.68,-0.68,-0.52,-1.23,1.18,1.22,1.21
116.39,1.80,0.64,1.92,0.74,-0.74,-0.57,-1.29,1.06,1.18,1.16
117.55,1.77,0.65,1.95,0.82,-0.82,-0.61,-1.35,0.96,1.13,1.12
118.73,1.91,0.83,1.99,0.89,-0.89,-0.66,-1.40,1.02,1.09,1.08
119.92,2.07,1.02,2.04,0.99,-0.99,-0.70,-1.45,1.08,1.06,1.05
121.12,2.18,1.17,2.10,1.08,-1.08,-0.75,-1.50,1.10,1.02,1.01
122.33,2.06,1.08,2.16,1.18,-1.18,-0.79,-1.54,0.88,0.98,0.98
123.55,2.13,1.18,2.21,1.26,-1.26,-0.84,-1.58,0.87,0.95,0.95
124.79,2.38,1.46,2.26,1.34,-1.34,-0.88,-1.62,1.04,0.92,0.92
126.03,2.43,1.54,2.32,1.43,-1.43,-0.92,-1.65,1.00,0.89,0.89
127.29,2.49,1.62,2.38,1.52,-1.52,-0.97,-1.68,0.97,0.86,0.87
128.57,2.54,1.71,2.43,1.60,-1.60,-1.01,-1.70,0.94,0.83,0.83
129.85,2.57,1.77,2.47,1.67,-1.67,-1.05,-1.72,0.90,0.80,0.80
131.15,2.45,1.68,2.50,1.72,-1.72,-1.10,-1.74,0.73,0.77,0.77
132.46,2.45,1.71,2.51,1.77,-1.77,-1.14,-1.75,0.68,0.75,0.74
133.79,2.46,1.75,2.53,1.81,-1.81,-1.18,-1.76,0.65,0.72,0.71
135.12,2.46,1.78,2.53,1.84,-1.84,-1.22,-1.76,0.62,0.69,0.68
136.48,2.47,1.81,2.53,1.87,-1.87,-1.26,-1.77,0.60,0.66,0.66
137.84,2.47,1.85,2.51,1.87,-1.87,-1.30,-1.77,0.60,0.63,0.62
139.22,2.51,1.92,2.47,1.87,-1.87,-1.35,-1.77,0.65,0.61,0.59
140.61,2.57,2.01,2.45,1.87,-1.87,-1.39,-1.76,0.70,0.58,0.56
142.02,2.52,1.98,2.43,1.89,-1.89,-1.42,-1.76,0.63,0.54,0.54
143.44,2.41,1.90,2.42,1.91,-1.91,-1.46,-1.75,0.50,0.51,0.51
144.87,2.37,1.90,2.42,1.95,-1.95,-1.50,-1.75,0.42,0.47,0.47
146.32,2.42,1.99,2.42,1.99,-1.99,-1.54,-1.74,0.43,0.43,0.43
147.78,2.29,1.89,2.40,2.02,-2.02,-1.58,-1.73,0.27,0.38,0.40
149.26,2.17,1.82,2.36,2.03,-2.03,-1.61,-1.72,0.14,0.32,0.35
150.75,2.16,1.87,2.30,2.04,-2.04,-1.65,-1.71,0.12,0.27,0.29
152.26,2.17,1.95,2.22,2.02,-2.02,-1.69,-1.70,0.16,0.20,0.22
153.78,2.22,2.07,2.11,1.97,-1.97,-1.72,-1.69,0.25,0.14,0.15
155.32,2.26,2.18,1.97,1.90,-1.90,-1.76,-1.68,0.36,0.07,0.08
156.88,2.15,2.15,1.83,1.83,-1.83,-1.79,-1.68,0.32,-0.00,0.00
158.44,1.96,2.04,1.68,1.75,-1.75,-1.82,-1.67,0.21,-0.07,-0.08
160.03,1.76,1.92,1.53,1.67,-1.67,-1.85,-1.66,0.09,-0.14,-0.16
161.63,1.39,1.62,1.38,1.58,-1.58,-1.88,-1.66,-0.19,-0.20,-0.23
163.24,1.17,1.46,1.24,1.50,-1.50,-1.92,-1.65,-0.33,-0.27,-0.29
164.88,0.98,1.32,1.11,1.44,-1.44,-1.94,-1.65,-0.45,-0.32,-0.34
166.53,0.73,1.12,1.01,1.38,-1.38,-1.97,-1.65,-0.65,-0.37,-0.39
168.19,0.56,0.99,0.92,1.33,-1.33,-2.00,-1.65,-0.77,-0.41,-0.43
169.87,0.54,1.01,0.86,1.30,-1.30,-2.03,-1.65,-0.76,-0.44,-0.47
171.57,0.64,1.13,0.83,1.29,-1.29,-2.05,-1.65,-0.65,-0.47,-0.49
173.29,0.75,1.25,0.82,1.31,-1.31,-2.08,-1.66,-0.56,-0.49,-0.50
175.02,0.86,1.37,0.85,1.35,-1.35,-2.10,-1.67,-0.49,-0.50,-0.51
176.77,0.99,1.51,0.90,1.42,-1.42,-2.12,-1.67,-0.43,-0.51,-0.52
178.54,1.09,1.62,0.99,1.51,-1.51,-2.14,-1.68,-0.42,-0.52,-0.53
180.32,1.23,1.75,1.09,1.61,-1.61,-2.16,-1.69,-0.38,-0.52,-0.52
182.13,1.34,1.85,1.19,1.72,-1.72,-2.18,-1.71,-0.38,-0.53,-0.51
183.95,1.44,1.96,1.28,1.82,-1.82,-2.20,-1.72,-0.38,-0.54,-0.52
185.79,1.45,1.97,1.38,1.92,-1.92,-2.21,-1.74,-0.47,-0.54,-0.52
187.65,1.47,2.01,1.46,2.01,-2.01,-2.23,-1.76,-0.53,-0.55,-0.54
189.52,1.45,2.00,1.51,2.07,-2.07,-2.24,-1.77,-0.61,-0.56,-0.55
191.42,1.43,2.00,1.54,2.11,-2.11,-2.25,-1.80,-0.68,-0.57,-0.57
193.33,1.48,2.07,1.56,2.14,-2.14,-2.26,-1.82,-0.66,-0.59,-0.59
195.27,1.62,2.23,1.57,2.17,-2.17,-2.27,-1.84,-0.55,-0.60,-0.61
197.22,1.68,2.31,1.57,2.20,-2.20,-2.28,-1.86,-0.52,-0.62,-0.63
199.19,1.60,2.25,1.58,2.22,-2.22,-2.28,-1.89,-0.62,-0.64,-0.65
201.18,1.56,2.23,1.58,2.24,-2.24,-2.29,-1.92,-0.68,-0.66,-0.67
203.19,1.58,2.27,1.57,2.26,-2.26,-2.29,-1.94,-0.67,-0.68,-0.69
205.23,1.60,2.31,1.57,2.27,-2.27,-2.29,-1.97,-0.67,-0.71,-0.71
207.28,1.52,2.24,1.57,2.29,-2.29,-2.29,-2.00,-0.77,-0.73,-0.72
209.35,1.45,2.19,1.56,2.30,-2.30,-2.29,-2.03,-0.85,-0.74,-0.74
211.44,1.50,2.27,1.55,2.31,-2.31,-2.29,-2.05,-0.81,-0.76,-0.77
213.56,1.55,2.33,1.53,2.31,-2.31,-2.29,-2.08,-0.76,-0.78,-0.78
215.69,1.55,2.34,1.52,2.30,-2.30,-2.28,-2.11,-0.75,-0.79,-0.79
217.85,1.55,2.35,1.49,2.29,-2.29,-2.28,-2.14,-0.74,-0.80,-0.80
220.03,1.50,2.31,1.47,2.28,-2.28,-2.27,-2.16,-0.78,-0.81,-0.81
222.23,1.46,2.30,1.46,2.27,-2.27,-2.26,-2.19,-0.81,-0.82,-0.84
224.45,1.44,2.27,1.44,2.26,-2.26,-2.25,-2.21,-0.82,-0.82,-0.83
226.70,1.44,2.27,1.43,2.25,-2.25,-2.24,-2.23,-0.81,-0.82,-0.83
228.96,1.44,2.26,1.42,2.24,-2.24,-2.23,-2.25,-0.80,-0.81,-0.82
231.25,1.37,2.18,1.42,2.22,-2.22,-2.22,-2.27,-0.85,-0.81,-0.81
233.57,1.36,2.16,1.41,2.21,-2.21,-2.20,-2.29,-0.85,-0.79,-0.80
235.90,1.38,2.17,1.41,2.19,-2.19,-2.19,-2.30,-0.81,-0.78,-0.79
238.26,1.38,2.16,1.41,2.17,-2.17,-2.17,-2.31,-0.79,-0.76,-0.78
240.64,1.32,2.07,1.41,2.15,-2.15,-2.16,-2.31,-0.83,-0.74,-0.75
243.05,1.39,2.11,1.41,2.13,-2.13,-2.14,-2.32,-0.74,-0.72,-0.72
245.48,1.44,2.14,1.41,2.11,-2.11,-2.12,-2.32,-0.67,-0.70,-0.70
247.93,1.47,2.14,1.40,2.08,-2.08,-2.10,-2.32,-0.61,-0.68,-0.67
250.41,1.45,2.10,1.40,2.05,-2.05,-2.08,-2.31,-0.60,-0.65,-0.65
252.92,1.40,2.02,1.39,2.02,-2.02,-2.06,-2.30,-0.62,-0.63,-0.62
255.45,1.42,2.02,1.39,1.99,-1.99,-2.03,-2.28,-0.57,-0.60,-0.60
258.00,1.43,2.01,1.38,1.96,-1.96,-2.01,-2.27,-0.53,-0.58,-0.58
260.58,1.38,1.94,1.36,1.91,-1.91,-1.99,-2.25,-0.53,-0.55,-0.56
263.19,1.33,1.86,1.34,1.87,-1.87,-1.96,-2.22,-0.54,-0.53,-0.53
265.82,1.25,1.76,1.31,1.82,-1.82,-1.94,-2.20,-0.57,-0.50,-0.51
268.48,1.23,1.72,1.28,1.76,-1.76,-1.91,-2.17,-0.53,-0.48,-0.49
271.16,1.22,1.68,1.24,1.70,-1.70,-1.88,-2.13,-0.47,-0.46,-0.46
273.87,1.22,1.66,1.20,1.63,-1.63,-1.86,-2.10,-0.41,-0.43,-0.44
276.61,1.22,1.63,1.16,1.56,-1.56,-1.83,-2.06,-0.34,-0.40,-0.41
279.38,1.20,1.58,1.11,1.49,-1.49,-1.80,-2.02,-0.29,-0.38,-0.38
282.17,1.08,1.44,1.06,1.41,-1.41,-1.78,-1.98,-0.33,-0.35,-0.36
284.99,1.03,1.35,1.01,1.33,-1.33,-1.75,-1.94,-0.30,-0.32,-0.32
287.84,1.03,1.33,0.98,1.27,-1.27,-1.72,-1.89,-0.24,-0.29,-0.30
290.72,1.04,1.31,0.97,1.24,-1.24,-1.69,-1.85,-0.20,-0.26,-0.27
293.63,0.97,1.21,0.99,1.23,-1.23,-1.66,-1.80,-0.26,-0.23,-0.24
296.57,0.97,1.18,1.04,1.25,-1.25,-1.63,-1.75,-0.28,-0.21,-0.21
299.53,0.98,1.16,1.11,1.29,-1.29,-1.60,-1.70,-0.31,-0.18,-0.18
302.53,0.98,1.14,1.20,1.35,-1.35,-1.57,-1.65,-0.37,-0.15,-0.16
305.55,1.02,1.14,1.31,1.43,-1.43,-1.54,-1.61,-0.41,-0.12,-0.12
308.61,1.13,1.23,1.42,1.52,-1.52,-1.51,-1.56,-0.39,-0.10,-0.10
311.69,1.35,1.42,1.54,1.62,-1.62,-1.48,-1.51,-0.26,-0.08,-0.07
314.81,1.71,1.76,1.65,1.71,-1.71,-1.45,-1.46,0.01,-0.05,-0.05
317.96,1.95,1.98,1.75,1.78,-1.78,-1.42,-1.41,0.17,-0.03,-0.03
321.14,2.09,2.11,1.83,1.84,-1.84,-1.38,-1.36,0.25,-0.01,-0.02
324.35,2.25,2.25,1.90,1.89,-1.89,-1.35,-1.31,0.36,0.00,0.00
327.59,2.24,2.23,1.94,1.92,-1.92,-1.32,-1.27,0.32,0.02,0.01
330.87,2.12,2.10,1.95,1.92,-1.92,-1.29,-1.22,0.20,0.03,0.02
334.18,2.03,1.99,1.93,1.89,-1.89,-1.26,-1.17,0.14,0.04,0.04
337.52,1.93,1.88,1.89,1.84,-1.84,-1.23,-1.13,0.10,0.05,0.05
340.90,1.74,1.68,1.82,1.76,-1.76,-1.20,-1.08,-0.02,0.06,0.06
344.30,1.57,1.50,1.74,1.67,-1.67,-1.17,-1.04,-0.10,0.07,0.07
347.75,1.46,1.39,1.62,1.55,-1.55,-1.13,-0.99,-0.09,0.07,0.07
351.23,1.41,1.33,1.50,1.42,-1.42,-1.10,-0.95,-0.01,0.08,0.08
354.74,1.36,1.29,1.38,1.30,-1.30,-1.07,-0.91,0.06,0.08,0.07
358.28,1.18,1.10,1.29,1.20,-1.20,-1.04,-0.87,-0.02,0.08,0.08
361.87,1.09,1.01,1.20,1.11,-1.11,-1.01,-0.83,-0.02,0.09,0.08
365.49,1.12,1.03,1.12,1.04,-1.04,-0.98,-0.79,0.09,0.09,0.09
369.14,1.07,0.99,1.06,0.97,-0.97,-0.94,-0.75,0.10,0.09,0.08
372.83,1.03,0.95,1.01,0.93,-0.93,-0.91,-0.71,0.10,0.08,0.08
376.56,1.11,1.04,0.98,0.89,-0.89,-0.88,-0.67,0.22,0.08,0.07
380.33,0.99,0.91,0.94,0.86,-0.86,-0.85,-0.64,0.13,0.08,0.08
384.13,0.83,0.75,0.90,0.83,-0.83,-0.82,-0.60,0.01,0.08,0.08
387.97,0.83,0.76,0.86,0.79,-0.79,-0.79,-0.57,0.04,0.07,0.07
391.85,0.87,0.81,0.83,0.76,-0.76,-0.75,-0.53,0.11,0.07,0.06
395.77,0.85,0.78,0.80,0.74,-0.74,-0.72,-0.50,0.11,0.06,0.07
399.73,0.73,0.67,0.78,0.73,-0.73,-0.69,-0.46,0.00,0.05,0.06
403.72,0.71,0.65,0.75,0.70,-0.70,-0.66,-0.43,0.01,0.05,0.06
407.76,0.76,0.72,0.73,0.68,-0.68,-0.63,-0.40,0.08,0.04,0.04
411.84,0.77,0.73,0.71,0.67,-0.67,-0.59,-0.37,0.10,0.04,0.04
415.96,0.62,0.58,0.68,0.64,-0.64,-0.56,-0.34,-0.02,0.04,0.04
420.12,0.58,0.54,0.66,0.61,-0.61,-0.53,-0.31,-0.03,0.04,0.04
424.32,0.66,0.62,0.65,0.60,-0.60,-0.50,-0.28,0.06,0.05,0.04
428.56,0.69,0.64,0.65,0.59,-0.59,-0.46,-0.25,0.10,0.06,0.05
432.85,0.70,0.64,0.65,0.58,-0.58,-0.43,-0.22,0.12,0.08,0.06
437.18,0.68,0.61,0.66,0.56,-0.56,-0.40,-0.19,0.12,0.10,0.07
441.55,0.66,0.55,0.65,0.53,-0.53,-0.37,-0.17,0.13,0.12,0.11
445.96,0.63,0.49,0.66,0.51,-0.51,-0.33,-0.14,0.12,0.15,0.14
450.42,0.66,0.49,0.68,0.49,-0.49,-0.30,-0.11,0.17,0.19,0.17
454.93,0.62,0.40,0.70,0.47,-0.47,-0.27,-0.09,0.15,0.23,0.22
459.48,0.56,0.30,0.72,0.44,-0.44,-0.23,-0.06,0.12,0.27,0.26
464.07,0.74,0.43,0.74,0.42,-0.42,-0.20,-0.04,0.32,0.32,0.31
468.71,0.91,0.54,0.75,0.38,-0.38,-0.17,-0.02,0.53,0.37,0.37
473.40,0.86,0.45,0.75,0.33,-0.33,-0.13,0.01,0.53,0.42,0.41
478.13,0.78,0.31,0.76,0.30,-0.30,-0.10,0.03,0.49,0.47,0.47
482.91,0.65,0.14,0.77,0.26,-0.26,-0.06,0.05,0.39,0.51,0.51
