frequency,raw,error,smoothed,error_smoothed,equalization,parametric_eq,fixed_band_eq,equalized_raw,equalized_smoothed,target
20.00,3.97,-0.54,3.97,-0.54,0.54,0.34,0.18,4.51,4.51,4.51
20.20,3.95,-0.56,3.95,-0.57,0.57,0.36,0.19,4.52,4.51,4.51
20.40,3.92,-0.59,3.92,-0.59,0.59,0.38,0.20,4.51,4.51,4.51
20.61,3.89,-0.62,3.89,-0.62,0.62,0.41,0.20,4.51,4.51,4.51
20.81,3.87,-0.64,3.87,-0.64,0.64,0.43,0.21,4.51,4.51,4.51
21.02,3.84,-0.67,3.84,-0.66,0.66,0.46,0.22,4.50,4.50,4.51
21.23,3.82,-0.67,3.82,-0.68,0.68,0.48,0.23,4.50,4.49,4.49
21.44,3.79,-0.69,3.78,-0.69,0.70,0.51,0.23,4.48,4.48,4.48
21.66,3.75,-0.71,3.75,-0.71,0.71,0.54,0.24,4.46,4.46,4.46
21.87,3.72,-0.72,3.72,-0.72,0.72,0.56,0.25,4.44,4.44,4.44
22.09,3.70,-0.73,3.69,-0.73,0.73,0.59,0.26,4.43,4.42,4.43
22.31,3.66,-0.74,3.66,-0.74,0.74,0.61,0.27,4.40,4.40,4.40
22.54,3.63,-0.75,3.63,-0.75,0.75,0.64,0.28,4.38,4.38,4.38
22.76,3.61,-0.75,3.60,-0.76,0.75,0.66,0.29,4.36,4.35,4.36
22.99,3.57,-0.76,3.57,-0.76,0.76,0.68,0.29,4.33,4.33,4.33
23.22,3.53,-0.77,3.54,-0.76,0.77,0.70,0.30,4.30,4.31,4.30
23.45,3.51,-0.76,3.50,-0.77,0.78,0.72,0.31,4.29,4.28,4.27
23.69,3.47,-0.79,3.47,-0.78,0.79,0.74,0.32,4.26,4.26,4.26
23.92,3.44,-0.80,3.44,-0.80,0.80,0.75,0.33,4.24,4.24,4.24
24.16,3.41,-0.82,3.41,-0.82,0.82,0.76,0.34,4.23,4.22,4.23
24.40,3.37,-0.84,3.37,-0.83,0.83,0.76,0.35,4.20,4.20,4.21
24.65,3.35,-0.84,3.35,-0.85,0.84,0.77,0.36,4.19,4.19,4.19
24.89,3.32,-0.85,3.32,-0.85,0.85,0.76,0.37,4.17,4.17,4.17
25.14,3.30,-0.86,3.30,-0.86,0.86,0.76,0.38,4.16,4.16,4.16
25.39,3.28,-0.86,3.28,-0.86,0.87,0.75,0.39,4.14,4.14,4.14
25.65,3.26,-0.87,3.26,-0.87,0.87,0.74,0.40,4.13,4.13,4.13
25.91,3.24,-0.86,3.24,-0.87,0.87,0.72,0.41,4.11,4.11,4.10
26.16,3.22,-0.87,3.22,-0.87,0.87,0.71,0.42,4.09,4.09,4.09
26.43,3.21,-0.87,3.21,-0.86,0.86,0.69,0.43,4.07,4.07,4.08
26.69,3.20,-0.85,3.20,-0.85,0.86,0.66,0.44,4.06,4.06,4.05
26.96,3.20,-0.84,3.20,-0.84,0.85,0.64,0.44,4.05,4.05,4.04
27.23,3.20,-0.83,3.19,-0.83,0.84,0.61,0.45,4.03,4.03,4.03
27.50,3.19,-0.83,3.20,-0.82,0.82,0.58,0.45,4.01,4.01,4.02
27.77,3.20,-0.80,3.20,-0.80,0.80,0.55,0.46,4.00,4.00,4.00
28.05,3.21,-0.78,3.21,-0.78,0.78,0.52,0.46,3.98,3.98,3.99
28.33,3.22,-0.75,3.22,-0.75,0.75,0.49,0.46,3.97,3.97,3.97
28.62,3.24,-0.72,3.24,-0.72,0.72,0.45,0.46,3.96,3.96,3.96
28.90,3.26,-0.68,3.26,-0.68,0.69,0.42,0.46,3.95,3.95,3.94
29.19,3.27,-0.65,3.28,-0.65,0.65,0.39,0.46,3.92,3.93,3.92
29.48,3.31,-0.61,3.30,-0.61,0.62,0.35,0.46,3.93,3.92,3.92
29.78,3.33,-0.58,3.33,-0.58,0.58,0.32,0.45,3.91,3.91,3.91
30.08,3.36,-0.54,3.36,-0.54,0.54,0.28,0.44,3.89,3.89,3.90
30.38,3.38,-0.50,3.38,-0.50,0.49,0.25,0.43,3.87,3.88,3.88
30.68,3.42,-0.45,3.42,-0.45,0.45,0.22,0.42,3.87,3.87,3.87
30.99,3.45,-0.39,3.45,-0.40,0.40,0.18,0.41,3.85,3.85,3.84
31.30,3.48,-0.35,3.48,-0.35,0.36,0.15,0.39,3.83,3.84,3.83
31.61,3.51,-0.31,3.51,-0.31,0.31,0.12,0.37,3.82,3.81,3.82
31.93,3.54,-0.26,3.54,-0.26,0.26,0.08,0.35,3.80,3.79,3.80
32.24,3.56,-0.21,3.56,-0.21,0.21,0.05,0.33,3.77,3.77,3.77
32.57,3.60,-0.15,3.59,-0.16,0.16,0.02,0.31,3.76,3.75,3.75
32.89,3.62,-0.12,3.63,-0.11,0.11,-0.01,0.28,3.73,3.74,3.74
33.22,3.66,-0.05,3.65,-0.06,0.06,-0.04,0.26,3.72,3.72,3.71
33.55,3.68,-0.02,3.68,-0.02,0.02,-0.07,0.23,3.70,3.70,3.70
33.89,3.70,0.03,3.70,0.03,-0.02,-0.10,0.20,3.67,3.68,3.67
34.23,3.72,0.07,3.72,0.07,-0.07,-0.13,0.16,3.65,3.65,3.65
34.57,3.74,0.11,3.74,0.11,-0.10,-0.16,0.13,3.63,3.63,3.63
34.92,3.75,0.14,3.75,0.14,-0.14,-0.19,0.09,3.61,3.61,3.61
35.27,3.77,0.18,3.77,0.18,-0.18,-0.22,0.05,3.59,3.59,3.59
35.62,3.78,0.21,3.78,0.21,-0.21,-0.25,0.01,3.57,3.57,3.57
35.97,3.80,0.25,3.80,0.25,-0.25,-0.28,-0.03,3.55,3.55,3.55
36.33,3.82,0.29,3.82,0.29,-0.29,-0.31,-0.07,3.53,3.53,3.53
36.70,3.83,0.32,3.84,0.33,-0.33,-0.34,-0.11,3.50,3.51,3.51
37.06,3.86,0.37,3.85,0.36,-0.37,-0.37,-0.15,3.49,3.49,3.49
37.43,3.88,0.41,3.88,0.41,-0.41,-0.40,-0.20,3.47,3.47,3.47
37.81,3.90,0.45,3.90,0.46,-0.46,-0.44,-0.25,3.44,3.45,3.45
38.19,3.94,0.52,3.93,0.51,-0.51,-0.47,-0.29,3.43,3.42,3.42
38.57,3.96,0.55,3.96,0.56,-0.56,-0.50,-0.34,3.40,3.40,3.41
38.95,4.00,0.62,4.00,0.62,-0.62,-0.53,-0.39,3.38,3.38,3.38
39.34,4.04,0.68,4.04,0.68,-0.68,-0.57,-0.44,3.36,3.36,3.36
39.74,4.08,0.74,4.08,0.74,-0.74,-0.60,-0.49,3.34,3.34,3.34
40.14,4.13,0.80,4.13,0.80,-0.81,-0.63,-0.54,3.32,3.32,3.33
40.54,4.18,0.87,4.18,0.87,-0.87,-0.67,-0.59,3.31,3.31,3.31
40.94,4.24,0.95,4.24,0.95,-0.94,-0.71,-0.64,3.30,3.29,3.29
41.35,4.29,1.03,4.29,1.02,-1.02,-0.74,-0.70,3.27,3.28,3.26
41.76,4.35,1.09,4.35,1.10,-1.09,-0.78,-0.75,3.26,3.26,3.26
42.18,4.41,1.17,4.41,1.17,-1.17,-0.82,-0.81,3.24,3.24,3.24
42.60,4.47,1.25,4.47,1.24,-1.25,-0.86,-0.86,3.22,3.22,3.22
43.03,4.53,1.32,4.53,1.33,-1.34,-0.90,-0.92,3.19,3.20,3.21
43.46,4.60,1.42,4.60,1.42,-1.42,-0.95,-0.98,3.18,3.18,3.18
43.90,4.67,1.51,4.67,1.50,-1.50,-0.99,-1.03,3.17,3.16,3.16
44.33,4.73,1.59,4.73,1.59,-1.59,-1.04,-1.09,3.14,3.14,3.14
44.78,4.79,1.67,4.79,1.67,-1.67,-1.09,-1.15,3.12,3.12,3.12
45.23,4.85,1.76,4.85,1.76,-1.75,-1.14,-1.21,3.10,3.10,3.09
45.68,4.91,1.84,4.91,1.83,-1.83,-1.19,-1.27,3.08,3.08,3.07
46.13,4.97,1.91,4.97,1.91,-1.90,-1.25,-1.33,3.07,3.06,3.06
46.60,5.02,1.97,5.02,1.98,-1.97,-1.31,-1.40,3.05,3.05,3.05
47.06,5.07,2.04,5.07,2.04,-2.04,-1.37,-1.46,3.03,3.03,3.03
47.53,5.12,2.11,5.12,2.10,-2.11,-1.43,-1.52,3.01,3.01,3.01
48.01,5.16,2.16,5.16,2.17,-2.17,-1.49,-1.59,2.99,2.99,3.00
48.49,5.20,2.23,5.20,2.23,-2.23,-1.56,-1.65,2.97,2.97,2.97
48.97,5.23,2.29,5.23,2.29,-2.29,-1.63,-1.72,2.94,2.94,2.94
49.46,5.27,2.36,5.27,2.35,-2.35,-1.70,-1.78,2.92,2.92,2.91
49.96,5.29,2.41,5.30,2.41,-2.40,-1.78,-1.85,2.89,2.89,2.88
50.46,5.33,2.46,5.32,2.46,-2.45,-1.85,-1.92,2.88,2.87,2.87
50.96,5.35,2.50,5.35,2.50,-2.50,-1.93,-1.98,2.85,2.85,2.85
51.47,5.36,2.54,5.36,2.54,-2.54,-2.01,-2.05,2.82,2.82,2.82
51.99,5.38,2.58,5.38,2.58,-2.58,-2.10,-2.11,2.80,2.80,2.80
52.51,5.39,2.61,5.39,2.61,-2.61,-2.18,-2.18,2.78,2.78,2.78
53.03,5.40,2.64,5.40,2.64,-2.64,-2.27,-2.25,2.76,2.76,2.76
53.56,5.40,2.67,5.40,2.67,-2.67,-2.35,-2.31,2.73,2.73,2.73
54.10,5.41,2.70,5.40,2.70,-2.70,-2.44,-2.37,2.71,2.71,2.71
54.64,5.40,2.72,5.40,2.72,-2.72,-2.52,-2.43,2.68,2.68,2.68
55.18,5.40,2.74,5.40,2.74,-2.74,-2.60,-2.50,2.66,2.66,2.66
55.74,5.40,2.77,5.40,2.76,-2.76,-2.67,-2.55,2.64,2.63,2.63
56.29,5.39,2.78,5.39,2.78,-2.78,-2.75,-2.61,2.61,2.61,2.61
56.86,5.38,2.80,5.38,2.80,-2.80,-2.81,-2.67,2.58,2.58,2.58
57.42,5.37,2.81,5.37,2.81,-2.81,-2.87,-2.72,2.56,2.56,2.56
58.00,5.36,2.82,5.36,2.82,-2.82,-2.92,-2.77,2.54,2.54,2.54
58.58,5.34,2.83,5.34,2.83,-2.82,-2.96,-2.82,2.51,2.52,2.51
59.16,5.33,2.84,5.32,2.83,-2.83,-2.99,-2.86,2.50,2.49,2.49
59.76,5.30,2.83,5.30,2.83,-2.84,-3.01,-2.90,2.46,2.46,2.47
60.35,5.28,2.84,5.28,2.83,-2.84,-3.03,-2.94,2.44,2.43,2.44
60.96,5.25,2.83,5.25,2.84,-2.85,-3.03,-2.97,2.40,2.41,2.42
61.57,5.23,2.85,5.23,2.85,-2.85,-3.02,-3.00,2.38,2.38,2.38
62.18,5.21,2.86,5.21,2.85,-2.85,-3.01,-3.03,2.36,2.35,2.35
62.80,5.18,2.86,5.18,2.86,-2.85,-2.99,-3.05,2.33,2.33,2.32
63.43,5.15,2.86,5.15,2.86,-2.85,-2.96,-3.07,2.30,2.30,2.29
64.07,5.11,2.85,5.11,2.85,-2.84,-2.93,-3.09,2.27,2.27,2.26
64.71,5.08,2.84,5.08,2.84,-2.84,-2.90,-3.10,2.24,2.24,2.24
65.35,5.04,2.82,5.04,2.82,-2.83,-2.86,-3.11,2.21,2.21,2.22
66.01,5.01,2.81,5.01,2.81,-2.82,-2.82,-3.12,2.19,2.19,2.20
66.67,4.98,2.81,4.97,2.80,-2.80,-2.78,-3.12,2.18,2.17,2.17
67.33,4.94,2.79,4.94,2.79,-2.79,-2.74,-3.12,2.15,2.15,2.15
68.01,4.90,2.78,4.90,2.78,-2.78,-2.69,-3.12,2.12,2.12,2.12
68.69,4.87,2.77,4.87,2.77,-2.77,-2.66,-3.12,2.10,2.10,2.10
69.37,4.83,2.76,4.83,2.76,-2.76,-2.62,-3.11,2.07,2.07,2.07
70.07,4.79,2.75,4.79,2.75,-2.75,-2.58,-3.10,2.04,2.05,2.04
70.77,4.75,2.73,4.75,2.73,-2.74,-2.55,-3.09,2.01,2.02,2.02
71.48,4.72,2.73,4.71,2.72,-2.73,-2.52,-3.09,1.99,1.99,1.99
72.19,4.67,2.71,4.68,2.72,-2.72,-2.50,-3.07,1.95,1.96,1.96
72.91,4.64,2.72,4.64,2.71,-2.71,-2.47,-3.06,1.93,1.92,1.92
73.64,4.60,2.71,4.59,2.71,-2.71,-2.45,-3.05,1.89,1.89,1.89
74.38,4.55,2.69,4.56,2.71,-2.70,-2.43,-3.04,1.85,1.86,1.86
75.12,4.52,2.71,4.52,2.70,-2.70,-2.42,-3.03,1.82,1.82,1.81
75.87,4.48,2.70,4.47,2.69,-2.69,-2.41,-3.02,1.79,1.78,1.78
76.63,4.43,2.68,4.43,2.69,-2.69,-2.40,-3.01,1.74,1.75,1.75
77.40,4.39,2.68,4.39,2.68,-2.69,-2.39,-3.00,1.70,1.70,1.71
78.17,4.35,2.70,4.35,2.68,-2.68,-2.39,-3.00,1.66,1.66,1.65
78.95,4.31,2.68,4.31,2.68,-2.69,-2.38,-2.99,1.62,1.62,1.63
79.74,4.27,2.68,4.27,2.68,-2.69,-2.38,-2.99,1.58,1.58,1.59
80.54,4.23,2.69,4.23,2.69,-2.69,-2.39,-2.98,1.54,1.54,1.54
81.35,4.20,2.70,4.20,2.70,-2.70,-2.39,-2.98,1.50,1.50,1.50
82.16,4.16,2.71,4.16,2.71,-2.70,-2.40,-2.98,1.46,1.46,1.45
82.98,4.12,2.71,4.12,2.72,-2.71,-2.41,-2.99,1.41,1.41,1.41
83.81,4.08,2.73,4.08,2.72,-2.72,-2.42,-2.99,1.36,1.36,1.35
84.65,4.04,2.73,4.04,2.73,-2.73,-2.44,-3.00,1.31,1.31,1.31
85.50,4.01,2.74,4.01,2.74,-2.74,-2.45,-3.01,1.27,1.26,1.27
86.35,3.97,2.75,3.97,2.75,-2.75,-2.47,-3.02,1.22,1.22,1.22
87.22,3.93,2.76,3.93,2.77,-2.76,-2.49,-3.04,1.17,1.17,1.17
88.09,3.90,2.79,3.90,2.78,-2.78,-2.51,-3.06,1.12,1.12,1.11
88.97,3.86,2.79,3.86,2.79,-2.79,-2.53,-3.07,1.07,1.07,1.07
89.86,3.82,2.80,3.82,2.81,-2.81,-2.56,-3.10,1.01,1.02,1.02
90.76,3.79,2.83,3.79,2.82,-2.82,-2.58,-3.12,0.97,0.96,0.96
91.66,3.75,2.84,3.75,2.84,-2.84,-2.61,-3.15,0.91,0.91,0.91
92.58,3.72,2.87,3.72,2.86,-2.86,-2.64,-3.18,0.86,0.86,0.85
93.51,3.68,2.87,3.68,2.88,-2.88,-2.67,-3.21,0.80,0.81,0.81
94.44,3.66,2.90,3.65,2.90,-2.90,-2.70,-3.24,0.76,0.75,0.76
95.39,3.62,2.92,3.62,2.92,-2.93,-2.73,-3.27,0.69,0.69,0.70
96.34,3.59,2.96,3.59,2.95,-2.95,-2.76,-3.31,0.64,0.64,0.63
97.30,3.56,2.98,3.56,2.98,-2.98,-2.79,-3.35,0.58,0.58,0.58
98.28,3.53,3.01,3.53,3.01,-3.01,-2.83,-3.39,0.52,0.52,0.52
99.26,3.50,3.05,3.50,3.04,-3.04,-2.86,-3.44,0.46,0.46,0.45
100.25,3.47,3.07,3.47,3.07,-3.07,-2.90,-3.48,0.40,0.40,0.40
101.25,3.44,3.10,3.44,3.11,-3.10,-2.94,-3.53,0.34,0.34,0.34
102.27,3.41,3.14,3.41,3.14,-3.14,-2.98,-3.57,0.27,0.27,0.27
103.29,3.38,3.18,3.38,3.17,-3.17,-3.02,-3.62,0.21,0.21,0.20
104.32,3.35,3.20,3.35,3.20,-3.20,-3.05,-3.67,0.15,0.15,0.15
105.37,3.32,3.23,3.32,3.23,-3.24,-3.09,-3.72,0.08,0.08,0.09
106.42,3.29,3.27,3.29,3.27,-3.27,-3.14,-3.76,0.02,0.02,0.02
107.48,3.26,3.31,3.26,3.31,-3.31,-3.18,-3.81,-0.05,-0.05,-0.05
108.56,3.23,3.35,3.23,3.35,-3.34,-3.22,-3.86,-0.12,-0.11,-0.12
109.64,3.21,3.39,3.21,3.38,-3.38,-3.26,-3.91,-0.17,-0.18,-0.18
110.74,3.18,3.42,3.18,3.42,-3.42,-3.30,-3.95,-0.24,-0.24,-0.24
111.85,3.15,3.46,3.15,3.46,-3.46,-3.34,-4.00,-0.32,-0.32,-0.31
112.97,3.12,3.51,3.12,3.50,-3.51,-3.39,-4.04,-0.39,-0.39,-0.39
114.10,3.09,3.54,3.09,3.55,-3.55,-3.43,-4.08,-0.46,-0.46,-0.45
115.24,3.07,3.59,3.07,3.59,-3.59,-3.47,-4.11,-0.52,-0.52,-0.52
116.39,3.05,3.64,3.05,3.63,-3.63,-3.52,-4.15,-0.58,-0.58,-0.59
117.55,3.02,3.68,3.02,3.68,-3.67,-3.56,-4.18,-0.65,-0.65,-0.66
118.73,2.99,3.71,2.99,3.71,-3.71,-3.60,-4.20,-0.72,-0.72,-0.72
119.92,2.96,3.74,2.96,3.74,-3.74,-3.64,-4.22,-0.78,-0.78,-0.78
121.12,2.94,3.78,2.94,3.78,-3.78,-3.68,-4.24,-0.84,-0.84,-0.84
122.33,2.91,3.82,2.91,3.81,-3.81,-3.73,-4.25,-0.90,-0.90,-0.91
123.55,2.88,3.84,2.88,3.84,-3.84,-3.77,-4.26,-0.97,-0.96,-0.96
124.79,2.86,3.88,2.86,3.87,-3.88,-3.81,-4.27,-1.02,-1.02,-1.02
126.03,2.83,3.90,2.83,3.90,-3.91,-3.85,-4.27,-1.08,-1.08,-1.07
127.29,2.81,3.94,2.81,3.94,-3.94,-3.89,-4.26,-1.13,-1.14,-1.13
128.57,2.78,3.98,2.78,3.97,-3.98,-3.92,-4.25,-1.20,-1.19,-1.20
129.85,2.76,4.01,2.76,4.01,-4.01,-3.96,-4.23,-1.25,-1.25,-1.25
131.15,2.74,4.04,2.74,4.04,-4.04,-4.00,-4.22,-1.30,-1.30,-1.30
132.46,2.71,4.07,2.71,4.07,-4.06,-4.03,-4.19,-1.35,-1.35,-1.36
133.79,2.69,4.09,2.69,4.09,-4.09,-4.06,-4.17,-1.40,-1.40,-1.40
135.12,2.66,4.12,2.66,4.11,-4.11,-4.10,-4.13,-1.45,-1.45,-1.46
136.48,2.64,4.13,2.64,4.13,-4.13,-4.13,-4.10,-1.49,-1.50,-1.49
137.84,2.61,4.14,2.61,4.15,-4.15,-4.16,-4.06,-1.54,-1.54,-1.53
139.22,2.59,4.17,2.59,4.17,-4.16,-4.18,-4.02,-1.58,-1.57,-1.58
140.61,2.57,4.19,2.57,4.18,-4.18,-4.21,-3.98,-1.61,-1.61,-1.62
142.02,2.55,4.19,2.55,4.19,-4.19,-4.23,-3.94,-1.64,-1.64,-1.64
143.44,2.52,4.19,2.52,4.20,-4.20,-4.26,-3.89,-1.68,-1.67,-1.67
144.87,2.50,4.21,2.50,4.20,-4.21,-4.28,-3.85,-1.71,-1.71,-1.71
146.32,2.48,4.22,2.48,4.21,-4.21,-4.30,-3.80,-1.73,-1.74,-1.74
147.78,2.45,4.21,2.45,4.22,-4.22,-4.31,-3.75,-1.77,-1.77,-1.76
149.26,2.43,4.22,2.43,4.22,-4.22,-4.33,-3.71,-1.79,-1.79,-1.79
150.75,2.40,4.23,2.40,4.22,-4.22,-4.34,-3.66,-1.83,-1.82,-1.83
152.26,2.38,4.23,2.38,4.23,-4.23,-4.35,-3.61,-1.85,-1.85,-1.85
153.78,2.35,4.23,2.35,4.23,-4.23,-4.35,-3.57,-1.88,-1.88,-1.88
155.32,2.33,4.23,2.33,4.23,-4.23,-4.36,-3.52,-1.90,-1.90,-1.90
156.88,2.30,4.23,2.30,4.23,-4.23,-4.36,-3.48,-1.93,-1.93,-1.93
158.44,2.26,4.22,2.27,4.23,-4.23,-4.36,-3.44,-1.97,-1.96,-1.96
160.03,2.24,4.23,2.23,4.22,-4.22,-4.36,-3.40,-1.98,-1.99,-1.99
161.63,2.20,4.22,2.20,4.22,-4.22,-4.36,-3.36,-2.02,-2.02,-2.02
163.24,2.17,4.22,2.17,4.22,-4.22,-4.35,-3.32,-2.05,-2.05,-2.05
164.88,2.14,4.21,2.14,4.21,-4.21,-4.34,-3.29,-2.07,-2.07,-2.07
166.53,2.11,4.20,2.11,4.21,-4.21,-4.33,-3.26,-2.10,-2.10,-2.09
168.19,2.08,4.21,2.08,4.20,-4.20,-4.32,-3.23,-2.12,-2.13,-2.13
169.87,2.04,4.20,2.04,4.20,-4.20,-4.30,-3.20,-2.16,-2.16,-2.16
171.57,2.01,4.20,2.00,4.19,-4.19,-4.28,-3.17,-2.18,-2.19,-2.19
173.29,1.96,4.17,1.97,4.18,-4.19,-4.26,-3.15,-2.23,-2.22,-2.21
175.02,1.93,4.18,1.92,4.18,-4.18,-4.24,-3.13,-2.25,-2.25,-2.25
176.77,1.88,4.17,1.88,4.17,-4.16,-4.22,-3.11,-2.29,-2.29,-2.29
178.54,1.83,4.16,1.83,4.16,-4.15,-4.19,-3.09,-2.32,-2.32,-2.33
180.32,1.78,4.14,1.78,4.13,-4.13,-4.16,-3.08,-2.35,-2.36,-2.36
182.13,1.72,4.11,1.72,4.11,-4.11,-4.13,-3.07,-2.39,-2.40,-2.39
183.95,1.65,4.08,1.66,4.09,-4.09,-4.10,-3.06,-2.44,-2.43,-2.43
185.79,1.60,4.07,1.59,4.06,-4.06,-4.06,-3.05,-2.46,-2.47,-2.47
187.65,1.53,4.04,1.53,4.04,-4.03,-4.03,-3.05,-2.50,-2.50,-2.51
189.52,1.46,4.00,1.47,4.00,-4.00,-3.99,-3.05,-2.54,-2.53,-2.54
191.42,1.40,3.96,1.40,3.96,-3.96,-3.95,-3.05,-2.56,-2.56,-2.56
193.33,1.34,3.92,1.34,3.92,-3.93,-3.91,-3.05,-2.59,-2.59,-2.58
195.27,1.27,3.88,1.27,3.88,-3.89,-3.87,-3.05,-2.62,-2.62,-2.61
197.22,1.21,3.85,1.21,3.86,-3.86,-3.83,-3.06,-2.65,-2.65,-2.64
199.19,1.15,3.84,1.15,3.83,-3.82,-3.79,-3.07,-2.67,-2.67,-2.69
201.18,1.09,3.79,1.09,3.79,-3.78,-3.74,-3.07,-2.69,-2.69,-2.70
203.19,1.03,3.75,1.03,3.75,-3.75,-3.70,-3.08,-2.72,-2.72,-2.72
205.23,0.97,3.71,0.97,3.71,-3.71,-3.65,-3.10,-2.74,-2.74,-2.74
207.28,0.91,3.66,0.91,3.67,-3.67,-3.61,-3.11,-2.76,-2.76,-2.75
209.35,0.85,3.63,0.85,3.63,-3.63,-3.56,-3.12,-2.78,-2.78,-2.78
211.44,0.79,3.59,0.79,3.59,-3.58,-3.51,-3.13,-2.80,-2.80,-2.80
213.56,0.73,3.55,0.73,3.54,-3.54,-3.46,-3.15,-2.81,-2.81,-2.82
215.69,0.67,3.49,0.67,3.49,-3.50,-3.41,-3.16,-2.83,-2.83,-2.82
217.85,0.61,3.44,0.61,3.45,-3.46,-3.36,-3.17,-2.85,-2.84,-2.83
220.03,0.56,3.42,0.56,3.41,-3.41,-3.31,-3.19,-2.85,-2.85,-2.86
222.23,0.51,3.38,0.51,3.37,-3.37,-3.26,-3.20,-2.86,-2.86,-2.87
224.45,0.46,3.32,0.46,3.33,-3.32,-3.21,-3.21,-2.86,-2.86,-2.86
226.70,0.40,3.27,0.40,3.27,-3.27,-3.16,-3.22,-2.87,-2.87,-2.87
228.96,0.36,3.23,0.36,3.22,-3.22,-3.11,-3.22,-2.86,-2.87,-2.87
231.25,0.31,3.17,0.31,3.17,-3.17,-3.06,-3.23,-2.87,-2.87,-2.86
233.57,0.27,3.12,0.27,3.12,-3.12,-3.01,-3.23,-2.85,-2.86,-2.85
235.90,0.22,3.07,0.22,3.07,-3.07,-2.96,-3.23,-2.85,-2.85,-2.85
238.26,0.19,3.04,0.18,3.03,-3.02,-2.91,-3.23,-2.83,-2.84,-2.85
240.64,0.14,2.97,0.14,2.97,-2.97,-2.86,-3.23,-2.83,-2.83,-2.83
243.05,0.11,2.92,0.11,2.92,-2.92,-2.81,-3.22,-2.81,-2.82,-2.81
245.48,0.07,2.86,0.07,2.87,-2.87,-2.76,-3.21,-2.80,-2.80,-2.79
247.93,0.04,2.82,0.04,2.82,-2.82,-2.71,-3.19,-2.78,-2.77,-2.78
250.41,0.02,2.79,0.01,2.77,-2.77,-2.66,-3.17,-2.75,-2.76,-2.77
252.92,-0.01,2.72,-0.01,2.72,-2.72,-2.61,-3.15,-2.73,-2.73,-2.73
255.45,-0.05,2.66,-0.04,2.67,-2.67,-2.56,-3.13,-2.72,-2.71,-2.71
258.00,-0.07,2.62,-0.07,2.62,-2.63,-2.51,-3.10,-2.70,-2.70,-2.69
260.58,-0.09,2.58,-0.10,2.58,-2.58,-2.46,-3.07,-2.67,-2.67,-2.67
263.19,-0.12,2.53,-0.11,2.54,-2.53,-2.41,-3.03,-2.65,-2.65,-2.65
265.82,-0.13,2.50,-0.13,2.49,-2.49,-2.36,-2.99,-2.62,-2.62,-2.63
268.48,-0.15,2.45,-0.15,2.45,-2.44,-2.32,-2.95,-2.59,-2.60,-2.60
271.16,-0.17,2.40,-0.17,2.40,-2.40,-2.27,-2.91,-2.57,-2.57,-2.57
273.87,-0.20,2.35,-0.19,2.35,-2.36,-2.22,-2.86,-2.56,-2.55,-2.55
276.61,-0.21,2.31,-0.21,2.31,-2.31,-2.18,-2.81,-2.52,-2.53,-2.52
279.38,-0.23,2.27,-0.23,2.27,-2.27,-2.13,-2.76,-2.50,-2.50,-2.50
282.17,-0.25,2.23,-0.25,2.23,-2.23,-2.08,-2.70,-2.48,-2.48,-2.48
284.99,-0.26,2.19,-0.26,2.19,-2.19,-2.04,-2.65,-2.45,-2.45,-2.45
287.84,-0.28,2.15,-0.28,2.15,-2.14,-1.99,-2.59,-2.43,-2.42,-2.43
290.72,-0.29,2.10,-0.29,2.10,-2.10,-1.95,-2.54,-2.39,-2.40,-2.39
293.63,-0.31,2.06,-0.31,2.06,-2.06,-1.91,-2.48,-2.37,-2.37,-2.37
296.57,-0.33,2.01,-0.33,2.01,-2.01,-1.86,-2.42,-2.34,-2.34,-2.34
299.53,-0.34,1.97,-0.34,1.97,-1.96,-1.82,-2.36,-2.31,-2.31,-2.31
302.53,-0.36,1.93,-0.36,1.92,-1.92,-1.78,-2.30,-2.28,-2.28,-2.29
305.55,-0.38,1.86,-0.38,1.87,-1.87,-1.73,-2.24,-2.25,-2.24,-2.24
308.61,-0.39,1.82,-0.39,1.81,-1.82,-1.69,-2.19,-2.21,-2.21,-2.21
311.69,-0.41,1.76,-0.41,1.76,-1.76,-1.65,-2.13,-2.18,-2.18,-2.17
314.81,-0.43,1.71,-0.43,1.71,-1.71,-1.61,-2.07,-2.14,-2.14,-2.14
317.96,-0.45,1.66,-0.45,1.66,-1.66,-1.57,-2.01,-2.11,-2.11,-2.11
321.14,-0.47,1.61,-0.47,1.61,-1.61,-1.53,-1.95,-2.08,-2.08,-2.08
324.35,-0.50,1.56,-0.50,1.56,-1.55,-1.48,-1.90,-2.05,-2.05,-2.06
327.59,-0.52,1.50,-0.52,1.50,-1.50,-1.44,-1.84,-2.02,-2.02,-2.02
330.87,-0.55,1.44,-0.55,1.44,-1.45,-1.40,-1.79,-2.00,-2.00,-1.99
334.18,-0.58,1.39,-0.58,1.39,-1.39,-1.36,-1.73,-1.97,-1.97,-1.97
337.52,-0.60,1.35,-0.60,1.34,-1.34,-1.32,-1.68,-1.94,-1.95,-1.95
340.90,-0.63,1.29,-0.63,1.29,-1.29,-1.28,-1.63,-1.92,-1.92,-1.92
344.30,-0.66,1.24,-0.66,1.24,-1.24,-1.25,-1.58,-1.90,-1.89,-1.90
347.75,-0.69,1.18,-0.69,1.18,-1.18,-1.21,-1.53,-1.88,-1.87,-1.87
351.23,-0.71,1.14,-0.72,1.14,-1.13,-1.17,-1.48,-1.84,-1.85,-1.85
354.74,-0.75,1.09,-0.75,1.09,-1.09,-1.13,-1.43,-1.84,-1.83,-1.84
358.28,-0.78,1.04,-0.78,1.04,-1.04,-1.09,-1.39,-1.82,-1.82,-1.82
361.87,-0.81,0.99,-0.81,0.99,-0.99,-1.05,-1.34,-1.80,-1.80,-1.80
365.49,-0.83,0.94,-0.83,0.94,-0.95,-1.02,-1.30,-1.78,-1.78,-1.77
369.14,-0.85,0.91,-0.85,0.91,-0.91,-0.98,-1.25,-1.76,-1.76,-1.76
372.83,-0.87,0.88,-0.87,0.88,-0.87,-0.94,-1.21,-1.74,-1.74,-1.75
376.56,-0.88,0.85,-0.88,0.84,-0.84,-0.91,-1.17,-1.72,-1.72,-1.73
380.33,-0.90,0.80,-0.89,0.81,-0.81,-0.87,-1.13,-1.71,-1.70,-1.70
384.13,-0.90,0.78,-0.90,0.78,-0.78,-0.83,-1.09,-1.68,-1.68,-1.68
387.97,-0.91,0.75,-0.91,0.74,-0.75,-0.80,-1.06,-1.66,-1.66,-1.66
391.85,-0.92,0.72,-0.92,0.72,-0.72,-0.76,-1.02,-1.64,-1.64,-1.64
395.77,-0.92,0.69,-0.92,0.70,-0.70,-0.73,-0.98,-1.62,-1.62,-1.61
399.73,-0.91,0.68,-0.92,0.68,-0.67,-0.70,-0.95,-1.58,-1.59,-1.59
403.72,-0.92,0.66,-0.92,0.66,-0.65,-0.67,-0.91,-1.57,-1.57,-1.58
407.76,-0.92,0.64,-0.92,0.64,-0.63,-0.63,-0.88,-1.55,-1.55,-1.56
411.84,-0.92,0.61,-0.92,0.62,-0.62,-0.60,-0.85,-1.54,-1.53,-1.53
415.96,-0.91,0.60,-0.91,0.60,-0.60,-0.58,-0.82,-1.51,-1.51,-1.51
420.12,-0.90,0.59,-0.90,0.58,-0.58,-0.55,-0.78,-1.49,-1.49,-1.49
424.32,-0.89,0.57,-0.89,0.57,-0.57,-0.52,-0.75,-1.46,-1.47,-1.46
428.56,-0.88,0.56,-0.88,0.56,-0.56,-0.50,-0.73,-1.44,-1.44,-1.44
432.85,-0.87,0.55,-0.86,0.55,-0.56,-0.47,-0.70,-1.43,-1.42,-1.42
437.18,-0.84,0.55,-0.84,0.54,-0.55,-0.45,-0.67,-1.39,-1.39,-1.39
441.55,-0.82,0.54,-0.82,0.54,-0.54,-0.43,-0.64,-1.36,-1.36,-1.36
445.96,-0.80,0.54,-0.80,0.54,-0.54,-0.41,-0.62,-1.34,-1.34,-1.34
450.42,-0.78,0.55,-0.78,0.54,-0.53,-0.40,-0.59,-1.31,-1.31,-1.33
454.93,-0.77,0.52,-0.76,0.53,-0.53,-0.38,-0.57,-1.30,-1.29,-1.29
459.48,-0.74,0.53,-0.75,0.52,-0.52,-0.37,-0.54,-1.26,-1.27,-1.27
464.07,-0.73,0.51,-0.73,0.51,-0.51,-0.35,-0.52,-1.24,-1.24,-1.24
468.71,-0.71,0.49,-0.71,0.50,-0.50,-0.34,-0.50,-1.21,-1.21,-1.20
473.40,-0.69,0.49,-0.69,0.48,-0.49,-0.33,-0.48,-1.18,-1.18,-1.18
478.13,-0.67,0.48,-0.67,0.48,-0.48,-0.32,-0.45,-1.15,-1.15,-1.15
482.91,-0.66,0.46,-0.66,0.46,-0.46,-0.31,-0.43,-1.12,-1.12,-1.12
487.74,-0.64,0.45,-0.64,0.45,-0.45,-0.31,-0.41,-1.09,-1.09,-1.09
492.62,-0.63,0.43,-0.63,0.43,-0.43,-0.30,-0.40,-1.06,-1.06,-1.06
497.55,-0.61,0.43,-0.62,0.42,-0.41,-0.30,-0.38,-1.03,-1.03,-1.04
