frequency,raw,error,smoothed,error_smoothed,equalization,parametric_eq,fixed_band_eq,equalized_raw,equalized_smoothed,target
20.00,-11.40,-18.39,-11.40,-18.39,18.39,18.79,7.29,6.98,6.99,6.99
20.20,-11.28,-18.31,-11.28,-18.31,18.31,18.67,7.45,7.03,7.03,7.03
20.40,-11.16,-18.23,-11.16,-18.23,18.23,18.55,7.61,7.07,7.07,7.07
20.61,-11.05,-18.14,-11.05,-18.15,18.15,18.43,7.78,7.11,7.11,7.10
20.81,-10.93,-18.07,-10.93,-18.07,18.07,18.32,7.95,7.14,7.14,7.14
21.02,-10.81,-17.99,-10.81,-17.98,17.98,18.20,8.13,7.17,7.17,7.18
21.23,-10.69,-17.89,-10.69,-17.89,17.89,18.09,8.31,7.20,7.19,7.20
21.44,-10.57,-17.79,-10.58,-17.79,17.79,17.98,8.49,7.22,7.22,7.22
21.66,-10.46,-17.70,-10.46,-17.70,17.70,17.87,8.68,7.23,7.24,7.24
21.87,-10.34,-17.59,-10.34,-17.60,17.59,17.76,8.88,7.25,7.25,7.25
22.09,-10.23,-17.50,-10.23,-17.50,17.49,17.65,9.08,7.26,7.26,7.27
22.31,-10.11,-17.39,-10.11,-17.39,17.38,17.54,9.29,7.27,7.27,7.28
22.54,-9.99,-17.28,-9.99,-17.28,17.28,17.43,9.50,7.28,7.29,7.29
22.76,-9.86,-17.16,-9.87,-17.16,17.17,17.32,9.72,7.31,7.30,7.30
22.99,-9.75,-17.05,-9.76,-17.06,17.07,17.22,9.94,7.31,7.31,7.30
23.22,-9.65,-16.96,-9.65,-16.96,16.96,17.11,10.17,7.31,7.31,7.31
23.45,-9.54,-16.86,-9.54,-16.86,16.86,17.01,10.40,7.32,7.32,7.32
23.69,-9.43,-16.76,-9.43,-16.76,16.76,16.91,10.64,7.32,7.32,7.33
23.92,-9.31,-16.65,-9.32,-16.66,16.65,16.80,10.89,7.34,7.34,7.34
24.16,-9.20,-16.56,-9.20,-16.56,16.55,16.70,11.15,7.35,7.35,7.36
24.40,-9.08,-16.46,-9.09,-16.45,16.45,16.60,11.41,7.37,7.36,7.38
24.65,-8.97,-16.34,-8.97,-16.35,16.35,16.50,11.68,7.37,7.37,7.37
24.89,-8.86,-16.24,-8.86,-16.24,16.24,16.40,11.95,7.38,7.39,7.38
25.14,-8.74,-16.13,-8.74,-16.13,16.14,16.30,12.23,7.40,7.39,7.39
25.39,-8.63,-16.03,-8.63,-16.03,16.03,16.20,12.52,7.40,7.40,7.40
25.65,-8.52,-15.94,-8.52,-15.93,15.93,16.10,12.81,7.41,7.41,7.42
25.91,-8.42,-15.83,-8.41,-15.83,15.83,16.00,13.11,7.41,7.41,7.42
26.16,-8.29,-15.72,-8.30,-15.73,15.72,15.90,13.42,7.43,7.43,7.43
26.43,-8.18,-15.62,-8.18,-15.62,15.62,15.80,13.73,7.43,7.44,7.44
26.69,-8.06,-15.51,-8.06,-15.52,15.52,15.70,14.05,7.45,7.45,7.45
26.96,-7.94,-15.41,-7.95,-15.42,15.41,15.60,14.37,7.47,7.46,7.47
27.23,-7.84,-15.32,-7.84,-15.31,15.31,15.50,14.70,7.47,7.47,7.48
27.50,-7.73,-15.21,-7.73,-15.21,15.21,15.40,15.02,7.48,7.48,7.48
27.77,-7.62,-15.10,-7.63,-15.11,15.12,15.30,15.35,7.49,7.49,7.48
28.05,-7.53,-15.03,-7.52,-15.02,15.02,15.21,15.67,7.49,7.50,7.50
28.33,-7.42,-14.92,-7.43,-14.93,14.93,15.11,15.99,7.51,7.50,7.50
28.62,-7.32,-14.83,-7.33,-14.83,14.84,15.01,16.30,7.51,7.51,7.51
28.90,-7.23,-14.75,-7.23,-14.74,14.75,14.91,16.60,7.51,7.52,7.52
29.19,-7.13,-14.65,-7.13,-14.66,14.66,14.81,16.88,7.52,7.52,7.52
29.48,-7.03,-14.58,-7.04,-14.57,14.57,14.71,17.13,7.54,7.53,7.55
29.78,-6.94,-14.48,-6.94,-14.48,14.48,14.61,17.36,7.54,7.54,7.54
30.08,-6.83,-14.38,-6.84,-14.39,14.39,14.51,17.56,7.56,7.55,7.55
30.38,-6.74,-14.29,-6.75,-14.30,14.30,14.41,17.73,7.55,7.55,7.55
30.68,-6.65,-14.22,-6.65,-14.21,14.21,14.31,17.85,7.55,7.56,7.57
30.99,-6.54,-14.11,-6.55,-14.12,14.11,14.21,17.92,7.57,7.56,7.57
31.30,-6.44,-14.01,-6.44,-14.02,14.02,14.10,17.95,7.57,7.57,7.57
31.61,-6.34,-13.92,-6.34,-13.91,13.92,14.00,17.94,7.57,7.58,7.58
31.93,-6.22,-13.81,-6.23,-13.82,13.82,13.90,17.88,7.59,7.58,7.59
32.24,-6.12,-13.71,-6.12,-13.72,13.71,13.80,17.77,7.59,7.59,7.59
32.57,-6.01,-13.62,-6.01,-13.61,13.61,13.70,17.63,7.60,7.60,7.61
32.89,-5.89,-13.50,-5.89,-13.50,13.50,13.59,17.45,7.61,7.61,7.61
33.22,-5.77,-13.39,-5.78,-13.40,13.40,13.49,17.24,7.62,7.62,7.62
33.55,-5.66,-13.29,-5.66,-13.28,13.29,13.39,17.01,7.63,7.63,7.63
33.89,-5.54,-13.18,-5.54,-13.18,13.18,13.28,16.75,7.63,7.64,7.64
34.23,-5.42,-13.06,-5.43,-13.07,13.07,13.18,16.49,7.64,7.64,7.64
34.57,-5.31,-12.96,-5.31,-12.96,12.96,13.07,16.21,7.64,7.65,7.65
34.92,-5.19,-12.84,-5.19,-12.84,12.84,12.97,15.92,7.65,7.65,7.65
35.27,-5.07,-12.73,-5.08,-12.73,12.73,12.86,15.64,7.66,7.65,7.66
35.62,-4.96,-12.62,-4.96,-12.62,12.62,12.76,15.35,7.66,7.66,7.66
35.97,-4.84,-12.50,-4.85,-12.51,12.51,12.65,15.06,7.67,7.66,7.66
36.33,-4.73,-12.40,-4.73,-12.40,12.39,12.54,14.77,7.66,7.66,7.67
36.70,-4.62,-12.28,-4.62,-12.28,12.28,12.44,14.49,7.66,7.66,7.66
37.06,-4.50,-12.17,-4.50,-12.17,12.17,12.33,14.21,7.67,7.66,7.67
37.43,-4.38,-12.05,-4.39,-12.06,12.05,12.22,13.94,7.67,7.66,7.67
37.81,-4.28,-11.95,-4.27,-11.94,11.94,12.12,13.68,7.66,7.67,7.67
38.19,-4.16,-11.83,-4.17,-11.83,11.83,12.01,13.42,7.67,7.67,7.67
38.57,-4.05,-11.71,-4.06,-11.72,11.72,11.90,13.17,7.67,7.66,7.66
38.95,-3.96,-11.62,-3.95,-11.61,11.62,11.79,12.93,7.65,7.66,7.66
39.34,-3.85,-11.50,-3.85,-11.51,11.51,11.69,12.69,7.66,7.66,7.65
39.74,-3.75,-11.40,-3.76,-11.41,11.41,11.58,12.46,7.65,7.65,7.65
40.14,-3.66,-11.31,-3.66,-11.31,11.30,11.47,12.24,7.64,7.65,7.65
40.54,-3.56,-11.21,-3.56,-11.21,11.20,11.36,12.03,7.64,7.64,7.65
40.94,-3.46,-11.10,-3.47,-11.11,11.11,11.25,11.83,7.64,7.64,7.64
41.35,-3.37,-11.01,-3.37,-11.00,11.01,11.14,11.63,7.64,7.64,7.64
41.76,-3.26,-10.90,-3.27,-10.91,10.91,11.04,11.44,7.65,7.64,7.64
42.18,-3.17,-10.81,-3.17,-10.81,10.81,10.93,11.26,7.64,7.64,7.64
42.60,-3.07,-10.71,-3.07,-10.71,10.71,10.82,11.08,7.64,7.64,7.64
43.03,-2.97,-10.61,-2.97,-10.61,10.61,10.71,10.91,7.63,7.63,7.64
43.46,-2.87,-10.51,-2.87,-10.50,10.50,10.60,10.75,7.63,7.63,7.64
43.90,-2.77,-10.39,-2.77,-10.39,10.39,10.50,10.60,7.62,7.62,7.62
44.33,-2.66,-10.28,-2.67,-10.29,10.28,10.39,10.45,7.62,7.61,7.62
44.78,-2.56,-10.17,-2.56,-10.17,10.17,10.28,10.31,7.61,7.61,7.61
45.23,-2.46,-10.07,-2.45,-10.06,10.06,10.17,10.17,7.59,7.60,7.61
45.68,-2.33,-9.94,-2.34,-9.94,9.94,10.06,10.04,7.61,7.60,7.61
46.13,-2.21,-9.81,-2.22,-9.82,9.83,9.96,9.92,7.61,7.61,7.60
46.60,-2.10,-9.71,-2.10,-9.70,9.71,9.85,9.80,7.61,7.61,7.61
47.06,-1.99,-9.59,-1.99,-9.59,9.59,9.74,9.69,7.60,7.60,7.60
47.53,-1.88,-9.47,-1.88,-9.48,9.48,9.64,9.58,7.60,7.60,7.59
48.01,-1.77,-9.37,-1.78,-9.36,9.36,9.53,9.48,7.59,7.58,7.60
48.49,-1.67,-9.25,-1.67,-9.25,9.24,9.43,9.38,7.57,7.57,7.58
48.97,-1.57,-9.13,-1.57,-9.13,9.13,9.32,9.29,7.56,7.56,7.56
49.46,-1.47,-9.02,-1.47,-9.02,9.01,9.22,9.20,7.54,7.54,7.55
49.96,-1.36,-8.89,-1.36,-8.90,8.90,9.11,9.12,7.54,7.53,7.53
50.46,-1.26,-8.79,-1.26,-8.78,8.79,9.01,9.04,7.52,7.53,7.53
50.96,-1.16,-8.67,-1.17,-8.67,8.68,8.90,8.96,7.52,7.51,7.51
51.47,-1.08,-8.56,-1.08,-8.57,8.58,8.80,8.89,7.49,7.49,7.48
51.99,-1.00,-8.47,-1.00,-8.47,8.48,8.70,8.82,7.47,7.47,7.47
52.51,-0.93,-8.39,-0.93,-8.38,8.38,8.60,8.75,7.45,7.45,7.46
53.03,-0.85,-8.29,-0.85,-8.30,8.29,8.50,8.68,7.44,7.44,7.44
53.56,-0.78,-8.21,-0.78,-8.21,8.20,8.39,8.62,7.42,7.42,7.43
54.10,-0.71,-8.11,-0.71,-8.12,8.12,8.29,8.56,7.41,7.41,7.40
54.64,-0.65,-8.04,-0.66,-8.04,8.04,8.19,8.50,7.39,7.38,7.39
55.18,-0.60,-7.96,-0.60,-7.96,7.96,8.09,8.44,7.36,7.36,7.36
55.74,-0.55,-7.88,-0.55,-7.88,7.88,8.00,8.38,7.33,7.34,7.33
56.29,-0.48,-7.81,-0.49,-7.80,7.80,7.90,8.32,7.32,7.32,7.33
56.86,-0.42,-7.72,-0.43,-7.72,7.73,7.80,8.26,7.31,7.30,7.30
57.42,-0.37,-7.64,-0.38,-7.65,7.66,7.70,8.20,7.28,7.28,7.27
58.00,-0.33,-7.58,-0.33,-7.58,7.58,7.61,8.14,7.25,7.25,7.25
58.58,-0.28,-7.51,-0.28,-7.51,7.51,7.51,8.07,7.22,7.23,7.23
59.16,-0.22,-7.43,-0.22,-7.43,7.43,7.42,8.01,7.20,7.20,7.21
59.76,-0.16,-7.35,-0.17,-7.36,7.34,7.32,7.94,7.18,7.18,7.19
60.35,-0.11,-7.27,-0.11,-7.27,7.26,7.23,7.87,7.15,7.15,7.16
60.96,-0.06,-7.19,-0.06,-7.18,7.17,7.14,7.80,7.11,7.12,7.13
61.57,0.01,-7.07,0.01,-7.08,7.08,7.04,7.72,7.09,7.09,7.08
62.18,0.08,-6.96,0.07,-6.97,6.98,6.95,7.64,7.06,7.06,7.04
62.80,0.14,-6.88,0.14,-6.87,6.88,6.86,7.56,7.02,7.02,7.02
63.43,0.20,-6.77,0.19,-6.78,6.78,6.77,7.47,6.97,6.97,6.97
64.07,0.25,-6.68,0.25,-6.68,6.67,6.68,7.38,6.92,6.92,6.93
64.71,0.32,-6.58,0.32,-6.57,6.56,6.60,7.29,6.88,6.89,6.90
65.35,0.40,-6.46,0.39,-6.46,6.46,6.51,7.19,6.86,6.85,6.86
66.01,0.48,-6.34,0.48,-6.35,6.35,6.42,7.09,6.83,6.83,6.82
66.67,0.55,-6.24,0.55,-6.24,6.25,6.34,6.99,6.80,6.80,6.79
67.33,0.62,-6.13,0.61,-6.14,6.14,6.25,6.88,6.76,6.75,6.75
68.01,0.67,-6.04,0.67,-6.04,6.04,6.17,6.78,6.70,6.71,6.71
68.69,0.73,-5.94,0.73,-5.94,5.93,6.08,6.67,6.66,6.66,6.67
69.37,0.80,-5.83,0.80,-5.83,5.82,6.00,6.56,6.62,6.62,6.63
70.07,0.87,-5.72,0.87,-5.72,5.72,5.92,6.45,6.59,6.59,6.59
70.77,0.94,-5.61,0.93,-5.62,5.61,5.84,6.33,6.55,6.55,6.55
71.48,1.00,-5.52,1.00,-5.51,5.51,5.76,6.22,6.51,6.51,6.52
72.19,1.06,-5.41,1.06,-5.41,5.41,5.68,6.10,6.47,6.47,6.47
72.91,1.12,-5.32,1.12,-5.32,5.32,5.60,5.99,6.44,6.44,6.44
73.64,1.18,-5.22,1.18,-5.22,5.23,5.52,5.87,6.41,6.41,6.40
74.38,1.23,-5.14,1.22,-5.14,5.15,5.45,5.76,6.38,6.38,6.37
75.12,1.26,-5.07,1.26,-5.07,5.08,5.37,5.65,6.34,6.34,6.33
75.87,1.28,-5.02,1.28,-5.02,5.02,5.29,5.53,6.30,6.30,6.30
76.63,1.31,-4.96,1.30,-4.96,4.96,5.22,5.42,6.27,6.26,6.27
77.40,1.33,-4.91,1.33,-4.91,4.91,5.15,5.31,6.23,6.23,6.24
78.17,1.35,-4.86,1.35,-4.86,4.85,5.07,5.20,6.20,6.20,6.21
78.95,1.37,-4.81,1.37,-4.81,4.80,5.00,5.10,6.17,6.17,6.18
79.74,1.40,-4.76,1.40,-4.76,4.76,4.93,4.99,6.15,6.15,6.16
80.54,1.43,-4.71,1.43,-4.71,4.70,4.86,4.89,6.13,6.13,6.14
81.35,1.46,-4.65,1.46,-4.65,4.65,4.79,4.79,6.11,6.11,6.11
82.16,1.49,-4.59,1.48,-4.60,4.60,4.72,4.69,6.09,6.09,6.08
82.98,1.51,-4.56,1.51,-4.55,4.55,4.66,4.59,6.06,6.06,6.07
83.81,1.53,-4.51,1.53,-4.51,4.51,4.59,4.50,6.03,6.04,6.04
84.65,1.56,-4.45,1.56,-4.46,4.46,4.52,4.40,6.02,6.01,6.01
85.50,1.59,-4.41,1.58,-4.41,4.41,4.46,4.31,6.00,6.00,6.00
86.35,1.61,-4.37,1.61,-4.37,4.37,4.39,4.23,5.98,5.98,5.98
87.22,1.64,-4.32,1.63,-4.33,4.33,4.33,4.14,5.96,5.96,5.96
88.09,1.65,-4.29,1.65,-4.29,4.29,4.27,4.06,5.93,5.94,5.94
88.97,1.67,-4.25,1.67,-4.25,4.24,4.21,3.98,5.91,5.91,5.92
89.86,1.70,-4.21,1.69,-4.21,4.20,4.15,3.90,5.90,5.90,5.91
90.76,1.72,-4.16,1.72,-4.16,4.16,4.09,3.83,5.88,5.88,5.88
91.66,1.75,-4.11,1.74,-4.12,4.12,4.03,3.75,5.87,5.87,5.86
92.58,1.77,-4.07,1.77,-4.07,4.08,3.97,3.68,5.85,5.85,5.84
93.51,1.79,-4.04,1.79,-4.04,4.04,3.91,3.61,5.83,5.83,5.83
94.44,1.81,-4.00,1.81,-4.00,3.99,3.85,3.55,5.80,5.80,5.81
95.39,1.83,-3.96,1.83,-3.96,3.94,3.80,3.48,5.77,5.77,5.79
96.34,1.86,-3.90,1.86,-3.90,3.89,3.74,3.42,5.75,5.75,5.76
97.30,1.89,-3.84,1.89,-3.84,3.84,3.69,3.36,5.73,5.73,5.73
98.28,1.92,-3.78,1.92,-3.78,3.79,3.64,3.30,5.70,5.70,5.70
99.26,1.95,-3.73,1.95,-3.73,3.73,3.58,3.24,5.68,5.68,5.68
100.25,1.98,-3.67,1.98,-3.67,3.67,3.53,3.19,5.65,5.65,5.65
101.25,2.01,-3.61,2.01,-3.61,3.61,3.48,3.14,5.62,5.62,5.62
102.27,2.03,-3.55,2.03,-3.55,3.56,3.43,3.09,5.59,5.59,5.58
103.29,2.05,-3.50,2.05,-3.50,3.51,3.38,3.04,5.56,5.56,5.55
104.32,2.06,-3.46,2.06,-3.45,3.46,3.33,2.99,5.52,5.52,5.52
105.37,2.07,-3.41,2.07,-3.41,3.42,3.28,2.95,5.48,5.48,5.48
106.42,2.07,-3.36,2.06,-3.37,3.37,3.24,2.90,5.44,5.44,5.43
107.48,2.06,-3.34,2.06,-3.33,3.33,3.19,2.86,5.39,5.39,5.40
108.56,2.05,-3.29,2.05,-3.29,3.28,3.14,2.82,5.33,5.33,5.34
109.64,2.05,-3.24,2.05,-3.25,3.24,3.10,2.78,5.28,5.28,5.29
110.74,2.05,-3.19,2.05,-3.19,3.19,3.05,2.74,5.23,5.23,5.24
111.85,2.05,-3.14,2.05,-3.14,3.13,3.01,2.70,5.18,5.18,5.19
112.97,2.05,-3.07,2.05,-3.08,3.08,2.97,2.66,5.12,5.12,5.12
114.10,2.05,-3.02,2.05,-3.02,3.02,2.93,2.62,5.07,5.07,5.07
115.24,2.05,-2.96,2.05,-2.96,2.96,2.89,2.59,5.00,5.00,5.01
116.39,2.05,-2.89,2.05,-2.89,2.90,2.84,2.55,4.94,4.94,4.94
117.55,2.05,-2.83,2.05,-2.83,2.83,2.80,2.52,4.88,4.88,4.88
118.73,2.05,-2.77,2.05,-2.77,2.77,2.77,2.49,4.82,4.82,4.82
119.92,2.05,-2.72,2.05,-2.71,2.71,2.73,2.45,4.76,4.76,4.77
121.12,2.06,-2.65,2.05,-2.66,2.65,2.69,2.42,4.71,4.71,4.71
122.33,2.06,-2.60,2.06,-2.60,2.60,2.65,2.39,4.65,4.66,4.66
123.55,2.07,-2.54,2.07,-2.54,2.55,2.62,2.36,4.61,4.61,4.61
124.79,2.07,-2.49,2.06,-2.49,2.50,2.58,2.32,4.56,4.56,4.56
126.03,2.06,-2.45,2.06,-2.45,2.46,2.54,2.29,4.51,4.51,4.51
127.29,2.04,-2.42,2.04,-2.42,2.42,2.51,2.26,4.46,4.46,4.46
128.57,2.02,-2.38,2.02,-2.39,2.39,2.48,2.23,4.41,4.41,4.40
129.85,2.00,-2.36,1.99,-2.36,2.37,2.44,2.20,4.36,4.36,4.36
131.15,1.97,-2.34,1.97,-2.34,2.35,2.41,2.17,4.31,4.31,4.31
132.46,1.94,-2.33,1.94,-2.33,2.33,2.38,2.14,4.27,4.27,4.27
133.79,1.91,-2.32,1.91,-2.32,2.32,2.35,2.11,4.22,4.22,4.23
135.12,1.88,-2.31,1.88,-2.31,2.31,2.32,2.08,4.18,4.18,4.19
136.48,1.85,-2.30,1.85,-2.30,2.30,2.29,2.05,4.14,4.14,4.15
137.84,1.82,-2.29,1.82,-2.29,2.29,2.26,2.03,4.11,4.11,4.11
139.22,1.79,-2.27,1.79,-2.27,2.28,2.23,2.00,4.07,4.07,4.06
140.61,1.77,-2.25,1.76,-2.26,2.27,2.20,1.97,4.03,4.03,4.02
142.02,1.74,-2.26,1.74,-2.25,2.25,2.17,1.94,3.99,3.99,4.00
143.44,1.72,-2.24,1.72,-2.24,2.23,2.14,1.92,3.95,3.95,3.96
144.87,1.71,-2.21,1.70,-2.21,2.20,2.12,1.89,3.91,3.90,3.92
146.32,1.70,-2.18,1.70,-2.18,2.17,2.09,1.87,3.86,3.87,3.88
147.78,1.71,-2.14,1.71,-2.14,2.13,2.07,1.84,3.83,3.84,3.85
149.26,1.72,-2.10,1.72,-2.09,2.09,2.04,1.82,3.80,3.81,3.82
150.75,1.74,-2.02,1.73,-2.03,2.04,2.02,1.79,3.78,3.78,3.76
152.26,1.74,-1.98,1.74,-1.98,2.00,1.99,1.77,3.74,3.74,3.72
153.78,1.74,-1.95,1.73,-1.94,1.96,1.97,1.75,3.70,3.69,3.69
155.32,1.72,-1.91,1.72,-1.92,1.92,1.94,1.73,3.64,3.64,3.63
156.88,1.70,-1.90,1.70,-1.90,1.89,1.92,1.71,3.59,3.59,3.60
158.44,1.68,-1.87,1.67,-1.87,1.87,1.90,1.69,3.55,3.54,3.55
160.03,1.65,-1.85,1.65,-1.85,1.85,1.87,1.67,3.50,3.50,3.50
161.63,1.63,-1.82,1.62,-1.83,1.83,1.85,1.66,3.46,3.46,3.45
163.24,1.60,-1.81,1.59,-1.82,1.82,1.83,1.64,3.41,3.41,3.41
164.88,1.56,-1.81,1.56,-1.80,1.80,1.81,1.62,3.35,3.36,3.37
166.53,1.53,-1.79,1.53,-1.79,1.78,1.79,1.61,3.30,3.31,3.32
168.19,1.51,-1.76,1.51,-1.76,1.76,1.76,1.60,3.26,3.26,3.27
169.87,1.49,-1.73,1.49,-1.74,1.73,1.74,1.58,3.22,3.22,3.22
171.57,1.47,-1.71,1.46,-1.71,1.71,1.72,1.57,3.18,3.17,3.18
173.29,1.44,-1.68,1.44,-1.68,1.68,1.70,1.56,3.12,3.13,3.12
175.02,1.42,-1.65,1.41,-1.65,1.66,1.68,1.55,3.07,3.07,3.07
176.77,1.39,-1.62,1.39,-1.62,1.63,1.66,1.54,3.01,3.01,3.01
178.54,1.36,-1.60,1.36,-1.60,1.60,1.63,1.53,2.95,2.95,2.96
180.32,1.33,-1.57,1.33,-1.57,1.56,1.61,1.53,2.89,2.89,2.90
182.13,1.31,-1.54,1.31,-1.54,1.53,1.59,1.52,2.84,2.84,2.85
183.95,1.29,-1.50,1.29,-1.50,1.50,1.56,1.51,2.78,2.78,2.79
185.79,1.27,-1.47,1.27,-1.46,1.46,1.54,1.51,2.73,2.73,2.74
187.65,1.25,-1.42,1.25,-1.43,1.43,1.51,1.51,2.68,2.68,2.67
189.52,1.23,-1.39,1.22,-1.39,1.40,1.49,1.50,2.63,2.63,2.62
191.42,1.20,-1.37,1.20,-1.37,1.38,1.46,1.50,2.57,2.57,2.57
193.33,1.17,-1.35,1.17,-1.35,1.35,1.43,1.50,2.52,2.52,2.52
195.27,1.13,-1.34,1.13,-1.34,1.34,1.40,1.50,2.46,2.46,2.47
197.22,1.09,-1.32,1.09,-1.32,1.32,1.37,1.50,2.41,2.41,2.41
199.19,1.05,-1.31,1.05,-1.31,1.31,1.34,1.50,2.36,2.36,2.36
201.18,1.02,-1.29,1.01,-1.30,1.30,1.31,1.51,2.32,2.31,2.31
203.19,0.98,-1.30,0.98,-1.29,1.29,1.27,1.51,2.26,2.26,2.28
205.23,0.95,-1.27,0.95,-1.28,1.27,1.24,1.51,2.22,2.22,2.22
207.28,0.92,-1.28,0.92,-1.27,1.26,1.21,1.52,2.17,2.18,2.20
209.35,0.90,-1.24,0.90,-1.24,1.24,1.19,1.52,2.14,2.14,2.14
211.44,0.88,-1.21,0.87,-1.22,1.22,1.16,1.52,2.10,2.10,2.09
213.56,0.85,-1.20,0.85,-1.20,1.21,1.15,1.53,2.05,2.06,2.05
215.69,0.83,-1.20,0.83,-1.19,1.19,1.14,1.53,2.02,2.02,2.03
217.85,0.82,-1.17,0.81,-1.18,1.18,1.13,1.54,1.99,1.99,1.99
220.03,0.79,-1.16,0.79,-1.16,1.16,1.14,1.55,1.95,1.95,1.95
222.23,0.77,-1.15,0.77,-1.15,1.15,1.15,1.55,1.92,1.92,1.92
224.45,0.75,-1.15,0.74,-1.15,1.15,1.16,1.56,1.89,1.89,1.90
226.70,0.72,-1.15,0.72,-1.15,1.14,1.18,1.56,1.86,1.86,1.87
228.96,0.70,-1.14,0.70,-1.15,1.15,1.20,1.57,1.84,1.84,1.84
231.25,0.68,-1.15,0.68,-1.15,1.15,1.23,1.57,1.83,1.83,1.83
233.57,0.66,-1.15,0.65,-1.15,1.16,1.25,1.58,1.82,1.81,1.81
235.90,0.63,-1.17,0.63,-1.17,1.17,1.27,1.58,1.80,1.80,1.80
238.26,0.61,-1.18,0.60,-1.18,1.19,1.30,1.59,1.79,1.79,1.79
240.64,0.58,-1.20,0.57,-1.21,1.21,1.32,1.59,1.79,1.78,1.78
243.05,0.54,-1.24,0.54,-1.23,1.23,1.34,1.59,1.77,1.78,1.78
245.48,0.51,-1.26,0.51,-1.26,1.26,1.36,1.59,1.77,1.77,1.77
247.93,0.49,-1.28,0.48,-1.29,1.29,1.38,1.60,1.77,1.77,1.77
250.41,0.46,-1.31,0.46,-1.31,1.31,1.40,1.60,1.77,1.77,1.77
252.92,0.44,-1.34,0.43,-1.34,1.33,1.41,1.60,1.77,1.77,1.78
255.45,0.42,-1.37,0.42,-1.37,1.35,1.43,1.60,1.77,1.77,1.79
258.00,0.41,-1.39,0.41,-1.38,1.37,1.44,1.60,1.77,1.78,1.80
260.58,0.42,-1.38,0.41,-1.39,1.38,1.46,1.60,1.80,1.79,1.80
263.19,0.42,-1.39,0.42,-1.39,1.39,1.47,1.60,1.81,1.81,1.81
265.82,0.43,-1.39,0.43,-1.40,1.41,1.48,1.60,1.83,1.83,1.82
268.48,0.43,-1.41,0.43,-1.41,1.42,1.49,1.60,1.85,1.85,1.84
271.16,0.43,-1.43,0.42,-1.43,1.44,1.51,1.59,1.87,1.86,1.86
273.87,0.41,-1.45,0.41,-1.46,1.46,1.52,1.59,1.87,1.87,1.86
276.61,0.39,-1.50,0.39,-1.49,1.49,1.53,1.59,1.88,1.88,1.89
279.38,0.37,-1.52,0.36,-1.53,1.53,1.54,1.59,1.89,1.89,1.89
282.17,0.34,-1.57,0.34,-1.57,1.57,1.55,1.58,1.90,1.91,1.91
284.99,0.31,-1.61,0.31,-1.61,1.61,1.56,1.58,1.92,1.92,1.92
287.84,0.28,-1.65,0.28,-1.65,1.65,1.57,1.58,1.93,1.93,1.93
290.72,0.25,-1.69,0.24,-1.70,1.70,1.58,1.58,1.95,1.94,1.94
293.63,0.21,-1.75,0.21,-1.75,1.74,1.59,1.58,1.95,1.95,1.96
296.57,0.18,-1.80,0.18,-1.79,1.79,1.60,1.58,1.96,1.97,1.98
299.53,0.16,-1.82,0.15,-1.83,1.83,1.61,1.58,1.99,1.98,1.98
302.53,0.13,-1.86,0.13,-1.86,1.87,1.62,1.58,1.99,2.00,1.99
305.55,0.11,-1.90,0.11,-1.90,1.90,1.63,1.58,2.01,2.01,2.01
308.61,0.09,-1.93,0.09,-1.93,1.93,1.64,1.58,2.01,2.01,2.02
311.69,0.08,-1.95,0.08,-1.96,1.95,1.65,1.59,2.02,2.02,2.03
314.81,0.08,-1.98,0.08,-1.97,1.96,1.66,1.59,2.04,2.03,2.06
317.96,0.08,-1.97,0.08,-1.97,1.97,1.67,1.60,2.04,2.04,2.05
321.14,0.09,-1.97,0.09,-1.97,1.97,1.68,1.60,2.05,2.05,2.06
324.35,0.10,-1.96,0.10,-1.96,1.97,1.69,1.61,2.06,2.06,2.06
327.59,0.11,-1.96,0.11,-1.96,1.96,1.70,1.62,2.07,2.07,2.07
330.87,0.12,-1.95,0.12,-1.95,1.96,1.71,1.63,2.08,2.08,2.07
334.18,0.12,-1.95,0.12,-1.95,1.96,1.72,1.64,2.08,2.08,2.07
337.52,0.12,-1.96,0.12,-1.96,1.97,1.73,1.65,2.08,2.08,2.08
340.90,0.11,-1.97,0.11,-1.97,1.98,1.74,1.66,2.08,2.08,2.08
344.30,0.09,-1.99,0.09,-1.99,1.99,1.76,1.67,2.08,2.08,2.08
347.75,0.07,-2.01,0.07,-2.01,2.01,1.77,1.69,2.08,2.08,2.08
351.23,0.04,-2.04,0.04,-2.04,2.03,1.78,1.71,2.07,2.07,2.08
354.74,0.02,-2.06,0.01,-2.06,2.06,1.79,1.72,2.08,2.07,2.08
358.28,-0.01,-2.07,-0.02,-2.08,2.09,1.80,1.74,2.07,2.07,2.06
361.87,-0.05,-2.11,-0.05,-2.11,2.11,1.81,1.76,2.06,2.06,2.06
365.49,-0.08,-2.14,-0.08,-2.14,2.14,1.82,1.79,2.05,2.05,2.06
369.14,-0.11,-2.16,-0.11,-2.17,2.16,1.84,1.81,2.05,2.05,2.05
372.83,-0.14,-2.19,-0.14,-2.19,2.18,1.85,1.83,2.04,2.04,2.05
376.56,-0.17,-2.21,-0.17,-2.21,2.21,1.86,1.86,2.03,2.03,2.04
380.33,-0.19,-2.22,-0.19,-2.22,2.22,1.87,1.89,2.03,2.03,2.03
384.13,-0.21,-2.23,-0.21,-2.23,2.24,1.88,1.91,2.02,2.02,2.02
387.97,-0.23,-2.24,-0.23,-2.24,2.24,1.89,1.94,2.01,2.01,2.01
391.85,-0.24,-2.24,-0.25,-2.25,2.24,1.91,1.97,2.00,2.00,2.00
395.77,-0.25,-2.26,-0.25,-2.25,2.24,1.92,2.00,1.98,1.99,2.01
399.73,-0.25,-2.25,-0.25,-2.24,2.23,1.93,2.03,1.98,1.98,2.00
403.72,-0.23,-2.22,-0.23,-2.23,2.22,1.94,2.07,1.98,1.98,1.99
407.76,-0.21,-2.19,-0.22,-2.20,2.21,1.96,2.10,1.99,1.99,1.98
411.84,-0.20,-2.19,-0.20,-2.18,2.20,1.97,2.13,1.99,1.99,1.99
415.96,-0.20,-2.17,-0.20,-2.18,2.19,1.98,2.17,1.99,1.99,1.97
420.12,-0.21,-2.18,-0.21,-2.18,2.19,1.99,2.20,1.97,1.98,1.97
424.32,-0.22,-2.19,-0.22,-2.19,2.19,2.01,2.23,1.97,1.97,1.97
428.56,-0.24,-2.20,-0.24,-2.20,2.21,2.02,2.27,1.96,1.96,1.96
432.85,-0.26,-2.22,-0.26,-2.22,2.23,2.03,2.30,1.96,1.96,1.96
437.18,-0.29,-2.25,-0.29,-2.25,2.25,2.04,2.33,1.96,1.96,1.96
441.55,-0.32,-2.29,-0.32,-2.29,2.28,2.05,2.36,1.96,1.96,1.97
445.96,-0.35,-2.32,-0.35,-2.32,2.31,2.07,2.39,1.96,1.96,1.97
450.42,-0.38,-2.34,-0.38,-2.35,2.35,2.08,2.42,1.96,1.96,1.96
454.93,-0.41,-2.38,-0.41,-2.38,2.38,2.09,2.45,1.97,1.97,1.97
459.48,-0.44,-2.41,-0.44,-2.42,2.42,2.10,2.48,1.97,1.97,1.97
464.07,-0.47,-2.45,-0.47,-2.45,2.45,2.12,2.51,1.98,1.98,1.98
468.71,-0.50,-2.49,-0.50,-2.48,2.48,2.13,2.53,1.98,1.98,1.99
473.40,-0.52,-2.50,-0.52,-2.51,2.51,2.14,2.55,1.98,1.98,1.98
478.13,-0.54,-2.53,-0.55,-2.53,2.53,2.15,2.57,1.99,1.98,1.99
482.91,-0.56,-2.55,-0.56,-2.55,2.55,2.16,2.59,1.99,1.99,1.99
487.74,-0.57,-2.57,-0.57,-2.57,2.56,2.17,2.60,1.99,1.99,2.00
492.62,-0.57,-2.58,-0.58,-2.58,2.57,2.19,2.62,2.00,2.00,2.01
497.55,-0.57,-2.58,-0.57,-2.58,2.58,2.20,2.63,2.00,2.01,2.01
502.52,-0.56,-2.58,-0.56,-2.58,2.58,2.21,2.63,2.02,2.02,2.02
507.55,-0.55,-2.57,-0.56,-2.57,2.58,2.22,2.64,2.03,2.02,2.02
512.62,-0.55,-2.57,-0.55,-2.57,2.58,2.23,2.64,2.03,2.03,2.02
