frequency,raw,error,smoothed,error_smoothed,equalization,parametric_eq,fixed_band_eq,equalized_raw,equalized_smoothed,target
20.00,-11.40,-19.53,-11.40,-19.55,19.55,19.93,8.11,8.15,8.15,8.12
20.20,-11.28,-19.45,-11.28,-19.46,19.46,19.81,8.28,8.18,8.18,8.16
20.40,-11.16,-19.37,-11.16,-19.37,19.37,19.69,8.46,8.21,8.21,8.20
20.61,-11.05,-19.28,-11.05,-19.28,19.28,19.57,8.64,8.24,8.24,8.23
20.81,-10.93,-19.21,-10.93,-19.19,19.19,19.45,8.82,8.26,8.26,8.27
21.02,-10.81,-19.13,-10.81,-19.10,19.10,19.33,9.01,8.28,8.29,8.31
21.23,-10.69,-19.02,-10.69,-19.00,19.00,19.22,9.20,8.31,8.31,8.33
21.44,-10.57,-18.92,-10.58,-18.91,18.91,19.10,9.40,8.34,8.33,8.35
21.66,-10.46,-18.84,-10.46,-18.81,18.81,18.99,9.61,8.35,8.35,8.37
21.87,-10.34,-18.72,-10.34,-18.72,18.72,18.87,9.81,8.37,8.37,8.38
22.09,-10.23,-18.63,-10.23,-18.62,18.62,18.76,10.03,8.39,8.39,8.40
22.31,-10.11,-18.52,-10.11,-18.52,18.52,18.65,10.25,8.41,8.41,8.41
22.54,-9.99,-18.41,-10.00,-18.41,18.41,18.54,10.48,8.42,8.42,8.42
22.76,-9.86,-18.29,-9.88,-18.31,18.31,18.44,10.71,8.45,8.43,8.43
22.99,-9.75,-18.18,-9.77,-18.20,18.20,18.33,10.95,8.45,8.44,8.43
23.22,-9.65,-18.09,-9.65,-18.10,18.10,18.22,11.20,8.44,8.45,8.44
23.45,-9.54,-17.99,-9.54,-17.99,17.99,18.12,11.45,8.45,8.45,8.45
23.69,-9.43,-17.89,-9.42,-17.89,17.89,18.01,11.71,8.45,8.46,8.45
23.92,-9.31,-17.78,-9.31,-17.78,17.78,17.91,11.98,8.47,8.47,8.46
24.16,-9.20,-17.69,-9.20,-17.68,17.68,17.80,12.26,8.48,8.48,8.48
24.40,-9.08,-17.58,-9.09,-17.58,17.58,17.70,12.55,8.49,8.49,8.50
24.65,-8.97,-17.48,-8.97,-17.47,17.47,17.60,12.84,8.50,8.50,8.50
24.89,-8.86,-17.37,-8.86,-17.37,17.37,17.50,13.14,8.51,8.51,8.51
25.14,-8.74,-17.26,-8.75,-17.26,17.26,17.39,13.45,8.52,8.52,8.52
25.39,-8.63,-17.16,-8.63,-17.16,17.16,17.29,13.78,8.53,8.53,8.53
25.65,-8.52,-17.07,-8.52,-17.06,17.06,17.19,14.11,8.53,8.54,8.55
25.91,-8.42,-16.96,-8.40,-16.95,16.95,17.09,14.45,8.54,8.55,8.55
26.16,-8.29,-16.85,-8.29,-16.85,16.85,16.99,14.80,8.56,8.56,8.55
26.43,-8.18,-16.75,-8.18,-16.75,16.75,16.89,15.16,8.56,8.57,8.56
26.69,-8.06,-16.64,-8.07,-16.64,16.64,16.79,15.53,8.58,8.58,8.57
26.96,-7.94,-16.54,-7.96,-16.54,16.54,16.69,15.91,8.60,8.58,8.59
27.23,-7.84,-16.44,-7.85,-16.44,16.44,16.60,16.29,8.60,8.59,8.60
27.50,-7.73,-16.34,-7.74,-16.34,16.34,16.50,16.69,8.61,8.60,8.61
27.77,-7.62,-16.23,-7.64,-16.25,16.25,16.40,17.09,8.62,8.61,8.61
28.05,-7.53,-16.16,-7.53,-16.15,16.15,16.30,17.49,8.62,8.62,8.63
28.33,-7.42,-16.05,-7.43,-16.06,16.06,16.20,17.89,8.63,8.63,8.62
28.62,-7.32,-15.96,-7.33,-15.96,15.96,16.10,18.29,8.64,8.63,8.63
28.90,-7.23,-15.87,-7.23,-15.87,15.87,16.00,18.68,8.64,8.64,8.64
29.19,-7.13,-15.77,-7.13,-15.78,15.78,15.90,19.06,8.65,8.65,8.64
29.48,-7.03,-15.70,-7.04,-15.69,15.69,15.80,19.41,8.66,8.66,8.67
29.78,-6.94,-15.61,-6.94,-15.60,15.60,15.70,19.73,8.66,8.66,8.66
30.08,-6.83,-15.51,-6.84,-15.51,15.51,15.60,20.01,8.67,8.67,8.67
30.38,-6.74,-15.41,-6.74,-15.42,15.42,15.50,20.24,8.67,8.67,8.67
30.68,-6.65,-15.34,-6.64,-15.32,15.32,15.40,20.41,8.67,8.68,8.69
30.99,-6.54,-15.23,-6.54,-15.23,15.23,15.29,20.52,8.69,8.69,8.69
31.30,-6.44,-15.14,-6.44,-15.13,15.13,15.19,20.55,8.69,8.70,8.69
31.61,-6.34,-15.04,-6.33,-15.04,15.04,15.09,20.52,8.69,8.70,8.70
31.93,-6.22,-14.93,-6.22,-14.93,14.93,14.99,20.41,8.71,8.71,8.71
32.24,-6.12,-14.83,-6.12,-14.83,14.83,14.88,20.25,8.71,8.72,8.71
32.57,-6.01,-14.74,-6.00,-14.73,14.73,14.78,20.02,8.71,8.72,8.72
32.89,-5.89,-14.62,-5.89,-14.62,14.62,14.67,19.75,8.73,8.73,8.73
33.22,-5.77,-14.51,-5.78,-14.51,14.51,14.57,19.45,8.74,8.74,8.74
33.55,-5.66,-14.41,-5.66,-14.40,14.40,14.47,19.12,8.74,8.74,8.74
33.89,-5.54,-14.29,-5.55,-14.29,14.29,14.36,18.76,8.75,8.75,8.75
34.23,-5.42,-14.18,-5.43,-14.18,14.18,14.25,18.40,8.76,8.75,8.76
34.57,-5.31,-14.08,-5.31,-14.07,14.07,14.15,18.03,8.76,8.76,8.76
34.92,-5.19,-13.95,-5.19,-13.96,13.96,14.04,17.66,8.76,8.76,8.76
35.27,-5.07,-13.84,-5.08,-13.84,13.84,13.93,17.29,8.77,8.77,8.77
35.62,-4.96,-13.74,-4.96,-13.73,13.73,13.83,16.93,8.77,8.77,8.77
35.97,-4.84,-13.61,-4.84,-13.62,13.62,13.72,16.57,8.77,8.77,8.77
36.33,-4.73,-13.51,-4.73,-13.50,13.50,13.61,16.22,8.77,8.77,8.77
36.70,-4.62,-13.39,-4.61,-13.39,13.39,13.50,15.88,8.76,8.77,8.77
37.06,-4.50,-13.28,-4.50,-13.28,13.28,13.39,15.54,8.77,8.77,8.77
37.43,-4.38,-13.16,-4.39,-13.16,13.16,13.28,15.22,8.78,8.77,8.78
37.81,-4.28,-13.06,-4.28,-13.05,13.05,13.17,14.91,8.77,8.77,8.78
38.19,-4.16,-12.93,-4.17,-12.94,12.94,13.06,14.61,8.78,8.77,8.77
38.57,-4.05,-12.82,-4.07,-12.83,12.83,12.95,14.32,8.78,8.76,8.76
38.95,-3.96,-12.72,-3.96,-12.72,12.72,12.84,14.04,8.76,8.76,8.76
39.34,-3.85,-12.61,-3.86,-12.62,12.62,12.73,13.77,8.77,8.76,8.75
39.74,-3.75,-12.50,-3.76,-12.51,12.51,12.62,13.51,8.76,8.75,8.75
40.14,-3.66,-12.42,-3.66,-12.41,12.41,12.50,13.26,8.75,8.75,8.75
40.54,-3.56,-12.31,-3.56,-12.31,12.31,12.39,13.02,8.74,8.75,8.74
40.94,-3.46,-12.20,-3.46,-12.21,12.21,12.28,12.79,8.74,8.74,8.74
41.35,-3.37,-12.10,-3.37,-12.10,12.10,12.17,12.56,8.73,8.74,8.73
41.76,-3.26,-12.00,-3.27,-12.00,12.00,12.06,12.35,8.74,8.73,8.73
42.18,-3.17,-11.91,-3.17,-11.90,11.90,11.94,12.14,8.73,8.73,8.74
42.60,-3.07,-11.80,-3.07,-11.80,11.80,11.83,11.94,8.72,8.72,8.73
43.03,-2.97,-11.70,-2.97,-11.69,11.69,11.72,11.75,8.72,8.72,8.73
43.46,-2.87,-11.59,-2.87,-11.58,11.58,11.61,11.57,8.71,8.71,8.72
43.90,-2.77,-11.48,-2.76,-11.47,11.47,11.49,11.39,8.70,8.71,8.70
44.33,-2.66,-11.37,-2.66,-11.36,11.36,11.38,11.22,8.70,8.71,8.70
44.78,-2.56,-11.26,-2.55,-11.25,11.25,11.27,11.06,8.69,8.70,8.69
45.23,-2.46,-11.15,-2.44,-11.14,11.14,11.16,10.90,8.67,8.70,8.68
45.68,-2.33,-11.02,-2.33,-11.02,11.02,11.04,10.75,8.69,8.69,8.68
46.13,-2.21,-10.89,-2.22,-10.91,10.91,10.93,10.61,8.69,8.68,8.67
46.60,-2.10,-10.79,-2.11,-10.79,10.79,10.82,10.47,8.68,8.68,8.68
47.06,-1.99,-10.67,-2.00,-10.67,10.67,10.71,10.34,8.67,8.67,8.67
47.53,-1.88,-10.54,-1.89,-10.55,10.55,10.60,10.21,8.66,8.66,8.66
48.01,-1.77,-10.44,-1.78,-10.43,10.43,10.48,10.09,8.65,8.65,8.67
48.49,-1.67,-10.32,-1.67,-10.31,10.31,10.37,9.97,8.63,8.64,8.65
48.97,-1.57,-10.20,-1.57,-10.19,10.19,10.26,9.86,8.62,8.62,8.62
49.46,-1.47,-10.08,-1.46,-10.07,10.07,10.15,9.76,8.60,8.61,8.61
49.96,-1.36,-9.95,-1.36,-9.96,9.96,10.04,9.65,8.60,8.60,8.59
50.46,-1.26,-9.85,-1.27,-9.85,9.85,9.93,9.56,8.59,8.58,8.58
50.96,-1.16,-9.73,-1.18,-9.74,9.74,9.82,9.46,8.58,8.56,8.57
51.47,-1.08,-9.61,-1.09,-9.64,9.64,9.71,9.37,8.55,8.54,8.53
51.99,-1.00,-9.52,-1.01,-9.53,9.53,9.60,9.28,8.53,8.52,8.52
52.51,-0.93,-9.44,-0.93,-9.43,9.43,9.50,9.20,8.50,8.50,8.51
53.03,-0.85,-9.33,-0.86,-9.34,9.34,9.39,9.12,8.49,8.48,8.48
53.56,-0.78,-9.25,-0.79,-9.25,9.25,9.28,9.04,8.46,8.46,8.46
54.10,-0.71,-9.15,-0.72,-9.16,9.16,9.17,8.96,8.44,8.44,8.44
54.64,-0.65,-9.07,-0.66,-9.07,9.07,9.07,8.88,8.42,8.41,8.42
55.18,-0.60,-8.99,-0.60,-8.99,8.99,8.96,8.80,8.39,8.39,8.39
55.74,-0.55,-8.91,-0.54,-8.91,8.91,8.86,8.73,8.36,8.37,8.36
56.29,-0.48,-8.83,-0.49,-8.83,8.83,8.75,8.66,8.35,8.34,8.35
56.86,-0.42,-8.74,-0.43,-8.75,8.75,8.65,8.58,8.33,8.32,8.31
57.42,-0.37,-8.66,-0.38,-8.67,8.67,8.55,8.51,8.30,8.29,8.28
58.00,-0.33,-8.59,-0.32,-8.59,8.59,8.44,8.43,8.26,8.26,8.26
58.58,-0.28,-8.52,-0.27,-8.51,8.51,8.34,8.36,8.22,8.23,8.24
59.16,-0.22,-8.43,-0.22,-8.42,8.42,8.24,8.28,8.20,8.20,8.21
59.76,-0.16,-8.35,-0.16,-8.34,8.34,8.14,8.20,8.17,8.17,8.19
60.35,-0.11,-8.26,-0.11,-8.25,8.25,8.04,8.12,8.13,8.14,8.15
60.96,-0.06,-8.18,-0.05,-8.15,8.15,7.94,8.04,8.09,8.10,8.11
61.57,0.01,-8.06,0.01,-8.05,8.05,7.84,7.96,8.06,8.07,8.07
62.18,0.08,-7.94,0.07,-7.95,7.95,7.74,7.87,8.03,8.03,8.02
62.80,0.14,-7.85,0.13,-7.85,7.85,7.64,7.79,7.99,7.99,7.99
63.43,0.20,-7.74,0.20,-7.75,7.75,7.55,7.70,7.95,7.95,7.94
64.07,0.25,-7.65,0.26,-7.64,7.64,7.45,7.60,7.89,7.90,7.90
64.71,0.32,-7.54,0.33,-7.53,7.53,7.36,7.51,7.85,7.86,7.86
65.35,0.40,-7.42,0.40,-7.42,7.42,7.26,7.41,7.82,7.82,7.81
66.01,0.48,-7.29,0.47,-7.31,7.31,7.17,7.31,7.78,7.77,7.77
66.67,0.55,-7.19,0.53,-7.19,7.19,7.08,7.21,7.74,7.73,7.74
67.33,0.62,-7.07,0.60,-7.08,7.08,6.98,7.11,7.70,7.68,7.69
68.01,0.67,-6.98,0.67,-6.96,6.96,6.89,7.01,7.63,7.64,7.64
68.69,0.73,-6.87,0.74,-6.85,6.85,6.80,6.90,7.58,7.59,7.60
69.37,0.80,-6.75,0.81,-6.74,6.74,6.71,6.80,7.54,7.55,7.55
70.07,0.87,-6.63,0.88,-6.63,6.63,6.63,6.69,7.49,7.50,7.50
70.77,0.94,-6.52,0.94,-6.52,6.52,6.54,6.58,7.46,7.46,7.46
71.48,1.00,-6.42,1.00,-6.41,6.41,6.45,6.48,7.41,7.41,7.42
72.19,1.06,-6.31,1.05,-6.31,6.31,6.36,6.37,7.37,7.37,7.36
72.91,1.12,-6.20,1.10,-6.22,6.22,6.28,6.26,7.34,7.32,7.32
73.64,1.18,-6.10,1.15,-6.13,6.13,6.19,6.16,7.31,7.28,7.28
74.38,1.23,-6.02,1.19,-6.05,6.05,6.11,6.05,7.27,7.24,7.24
75.12,1.26,-5.94,1.23,-5.96,5.96,6.03,5.95,7.22,7.20,7.20
75.87,1.28,-5.88,1.27,-5.89,5.89,5.95,5.85,7.16,7.16,7.16
76.63,1.31,-5.81,1.31,-5.82,5.82,5.87,5.75,7.12,7.12,7.12
77.40,1.33,-5.75,1.33,-5.75,5.75,5.78,5.65,7.08,7.08,7.08
78.17,1.35,-5.69,1.36,-5.68,5.68,5.71,5.55,7.03,7.05,7.04
78.95,1.37,-5.64,1.39,-5.62,5.62,5.63,5.45,6.99,7.01,7.01
79.74,1.40,-5.58,1.41,-5.56,5.56,5.55,5.36,6.96,6.98,6.98
80.54,1.43,-5.52,1.44,-5.51,5.51,5.47,5.27,6.93,6.94,6.95
81.35,1.46,-5.46,1.46,-5.45,5.45,5.40,5.18,6.91,6.91,6.91
82.16,1.49,-5.39,1.48,-5.40,5.40,5.32,5.09,6.88,6.88,6.88
82.98,1.51,-5.34,1.50,-5.34,5.34,5.25,5.01,6.85,6.85,6.85
83.81,1.53,-5.29,1.53,-5.29,5.29,5.17,4.93,6.81,6.82,6.82
84.65,1.56,-5.22,1.56,-5.23,5.23,5.10,4.85,6.79,6.79,6.78
85.50,1.59,-5.17,1.58,-5.18,5.18,5.03,4.77,6.77,6.76,6.76
86.35,1.61,-5.12,1.60,-5.13,5.13,4.96,4.70,6.73,6.73,6.73
87.22,1.64,-5.06,1.63,-5.07,5.07,4.89,4.62,6.71,6.70,6.70
88.09,1.65,-5.02,1.65,-5.02,5.02,4.82,4.56,6.67,6.68,6.67
88.97,1.67,-4.98,1.67,-4.97,4.97,4.75,4.49,6.64,6.65,6.65
89.86,1.70,-4.93,1.70,-4.93,4.93,4.69,4.42,6.62,6.62,6.63
90.76,1.72,-4.87,1.72,-4.87,4.87,4.62,4.36,6.59,6.59,6.59
91.66,1.75,-4.82,1.74,-4.82,4.82,4.55,4.30,6.57,6.56,6.56
92.58,1.77,-4.76,1.77,-4.77,4.77,4.49,4.25,6.54,6.54,6.53
93.51,1.79,-4.73,1.79,-4.72,4.72,4.43,4.19,6.50,6.51,6.51
94.44,1.81,-4.67,1.82,-4.66,4.66,4.36,4.14,6.47,6.47,6.48
95.39,1.83,-4.63,1.84,-4.60,4.60,4.30,4.09,6.43,6.44,6.45
96.34,1.86,-4.55,1.87,-4.54,4.54,4.24,4.04,6.40,6.41,6.41
97.30,1.89,-4.49,1.90,-4.48,4.48,4.18,4.00,6.36,6.38,6.37
98.28,1.92,-4.42,1.93,-4.41,4.41,4.12,3.96,6.33,6.34,6.34
99.26,1.95,-4.35,1.95,-4.35,4.35,4.06,3.91,6.30,6.30,6.30
100.25,1.98,-4.28,1.97,-4.29,4.29,4.00,3.87,6.27,6.26,6.26
101.25,2.01,-4.22,1.99,-4.23,4.23,3.95,3.84,6.24,6.22,6.22
102.27,2.03,-4.15,2.01,-4.17,4.17,3.89,3.80,6.20,6.18,6.18
103.29,2.05,-4.08,2.03,-4.11,4.11,3.84,3.77,6.15,6.13,6.13
104.32,2.06,-4.03,2.04,-4.05,4.05,3.78,3.73,6.10,6.09,6.09
105.37,2.07,-3.98,2.05,-3.99,3.99,3.73,3.70,6.05,6.04,6.04
106.42,2.07,-3.92,2.06,-3.93,3.93,3.68,3.67,5.99,5.98,5.99
107.48,2.06,-3.88,2.06,-3.87,3.87,3.62,3.64,5.93,5.93,5.94
108.56,2.05,-3.82,2.06,-3.81,3.81,3.57,3.61,5.86,5.87,5.87
109.64,2.05,-3.77,2.06,-3.75,3.75,3.52,3.58,5.80,5.81,5.81
110.74,2.05,-3.71,2.06,-3.69,3.69,3.47,3.56,5.74,5.75,5.76
111.85,2.05,-3.64,2.05,-3.63,3.63,3.42,3.53,5.67,5.68,5.69
112.97,2.05,-3.56,2.05,-3.56,3.56,3.38,3.50,5.61,5.61,5.61
114.10,2.05,-3.51,2.05,-3.50,3.50,3.33,3.47,5.54,5.55,5.55
115.24,2.05,-3.43,2.05,-3.43,3.43,3.28,3.45,5.48,5.48,5.48
116.39,2.05,-3.36,2.05,-3.36,3.36,3.24,3.42,5.41,5.41,5.40
117.55,2.05,-3.29,2.06,-3.29,3.29,3.19,3.39,5.34,5.34,5.34
118.73,2.05,-3.22,2.06,-3.22,3.22,3.15,3.36,5.26,5.28,5.26
119.92,2.05,-3.16,2.06,-3.15,3.15,3.11,3.33,5.19,5.21,5.21
121.12,2.06,-3.08,2.06,-3.08,3.08,3.06,3.30,5.14,5.14,5.13
122.33,2.06,-3.01,2.06,-3.02,3.02,3.02,3.27,5.07,5.08,5.07
123.55,2.07,-2.95,2.05,-2.96,2.96,2.98,3.24,5.03,5.01,5.02
124.79,2.07,-2.89,2.05,-2.90,2.90,2.94,3.20,4.97,4.95,4.96
126.03,2.06,-2.84,2.04,-2.86,2.86,2.90,3.17,4.91,4.89,4.89
127.29,2.04,-2.80,2.02,-2.81,2.81,2.86,3.13,4.85,4.83,4.83
128.57,2.02,-2.75,2.01,-2.77,2.77,2.82,3.10,4.78,4.77,4.76
129.85,2.00,-2.72,1.99,-2.73,2.73,2.79,3.06,4.73,4.72,4.72
131.15,1.97,-2.69,1.96,-2.70,2.70,2.75,3.02,4.67,4.66,4.66
132.46,1.94,-2.67,1.94,-2.67,2.67,2.71,2.98,4.61,4.61,4.61
133.79,1.91,-2.66,1.91,-2.65,2.65,2.68,2.94,4.56,4.56,4.56
135.12,1.88,-2.63,1.88,-2.63,2.63,2.64,2.90,4.51,4.51,4.51
136.48,1.85,-2.61,1.85,-2.61,2.61,2.61,2.85,4.46,4.46,4.46
137.84,1.82,-2.59,1.82,-2.59,2.59,2.58,2.81,4.41,4.41,4.41
139.22,1.79,-2.57,1.79,-2.57,2.57,2.55,2.77,4.36,4.36,4.35
140.61,1.77,-2.54,1.77,-2.54,2.54,2.51,2.72,4.31,4.32,4.30
142.02,1.74,-2.53,1.76,-2.51,2.51,2.48,2.68,4.25,4.27,4.27
143.44,1.72,-2.51,1.75,-2.48,2.48,2.45,2.63,4.20,4.23,4.23
144.87,1.71,-2.47,1.74,-2.44,2.44,2.42,2.59,4.15,4.18,4.18
146.32,1.70,-2.44,1.73,-2.40,2.40,2.39,2.55,4.10,4.13,4.13
147.78,1.71,-2.39,1.72,-2.36,2.36,2.37,2.50,4.07,4.08,4.10
149.26,1.72,-2.33,1.72,-2.32,2.32,2.34,2.46,4.03,4.04,4.05
150.75,1.74,-2.25,1.71,-2.28,2.28,2.31,2.42,4.01,3.99,3.98
152.26,1.74,-2.20,1.71,-2.23,2.23,2.29,2.37,3.97,3.94,3.94
153.78,1.74,-2.16,1.70,-2.19,2.19,2.26,2.33,3.93,3.89,3.90
155.32,1.72,-2.12,1.69,-2.15,2.15,2.24,2.29,3.87,3.84,3.83
156.88,1.70,-2.10,1.68,-2.11,2.11,2.21,2.25,3.81,3.79,3.79
158.44,1.68,-2.07,1.66,-2.07,2.07,2.19,2.21,3.75,3.74,3.74
160.03,1.65,-2.04,1.65,-2.04,2.04,2.16,2.17,3.69,3.69,3.68
161.63,1.63,-2.00,1.63,-2.01,2.01,2.14,2.13,3.63,3.63,3.62
163.24,1.60,-1.98,1.60,-1.98,1.98,2.12,2.10,3.58,3.58,3.58
164.88,1.56,-1.97,1.57,-1.95,1.95,2.10,2.06,3.51,3.53,3.53
166.53,1.53,-1.95,1.55,-1.93,1.93,2.08,2.03,3.45,3.47,3.47
168.19,1.51,-1.91,1.52,-1.90,1.90,2.06,1.99,3.41,3.42,3.42
169.87,1.49,-1.88,1.49,-1.87,1.87,2.04,1.96,3.36,3.36,3.37
171.57,1.47,-1.85,1.46,-1.84,1.84,2.02,1.93,3.31,3.31,3.31
173.29,1.44,-1.81,1.44,-1.81,1.81,2.00,1.90,3.25,3.25,3.25
175.02,1.42,-1.78,1.41,-1.78,1.78,1.98,1.87,3.19,3.19,3.20
176.77,1.39,-1.74,1.39,-1.74,1.74,1.97,1.84,3.13,3.13,3.13
178.54,1.36,-1.71,1.36,-1.71,1.71,1.95,1.81,3.06,3.07,3.07
180.32,1.33,-1.68,1.34,-1.67,1.67,1.93,1.79,3.00,3.01,3.01
182.13,1.31,-1.65,1.32,-1.63,1.63,1.92,1.76,2.94,2.95,2.95
183.95,1.29,-1.60,1.29,-1.59,1.59,1.90,1.74,2.88,2.89,2.89
185.79,1.27,-1.56,1.27,-1.56,1.56,1.89,1.72,2.83,2.83,2.83
187.65,1.25,-1.51,1.24,-1.53,1.53,1.87,1.70,2.77,2.77,2.75
189.52,1.23,-1.47,1.21,-1.50,1.50,1.86,1.68,2.73,2.71,2.70
191.42,1.20,-1.45,1.18,-1.47,1.47,1.85,1.66,2.67,2.65,2.65
193.33,1.17,-1.43,1.15,-1.44,1.44,1.84,1.64,2.61,2.59,2.59
195.27,1.13,-1.41,1.12,-1.42,1.42,1.82,1.62,2.54,2.53,2.54
197.22,1.09,-1.39,1.09,-1.39,1.39,1.81,1.60,2.48,2.48,2.48
199.19,1.05,-1.37,1.05,-1.37,1.37,1.80,1.59,2.42,2.43,2.42
201.18,1.02,-1.35,1.02,-1.35,1.35,1.79,1.58,2.37,2.37,2.37
203.19,0.98,-1.35,0.99,-1.33,1.33,1.78,1.56,2.31,2.32,2.33
205.23,0.95,-1.32,0.96,-1.31,1.31,1.77,1.55,2.26,2.27,2.27
207.28,0.92,-1.32,0.93,-1.29,1.29,1.76,1.54,2.21,2.23,2.24
209.35,0.90,-1.29,0.90,-1.28,1.28,1.75,1.53,2.17,2.18,2.18
211.44,0.88,-1.25,0.88,-1.26,1.26,1.75,1.52,2.14,2.14,2.13
213.56,0.85,-1.24,0.85,-1.24,1.24,1.74,1.51,2.09,2.09,2.09
215.69,0.83,-1.24,0.83,-1.22,1.22,1.73,1.50,2.05,2.05,2.06
217.85,0.82,-1.20,0.81,-1.21,1.21,1.73,1.49,2.02,2.01,2.02
220.03,0.79,-1.19,0.79,-1.19,1.19,1.72,1.48,1.98,1.98,1.97
222.23,0.77,-1.17,0.76,-1.18,1.18,1.71,1.47,1.95,1.95,1.94
224.45,0.75,-1.17,0.74,-1.17,1.17,1.71,1.47,1.92,1.92,1.91
226.70,0.72,-1.17,0.72,-1.17,1.17,1.70,1.46,1.88,1.89,1.89
228.96,0.70,-1.16,0.70,-1.17,1.17,1.70,1.46,1.86,1.86,1.86
231.25,0.68,-1.17,0.67,-1.17,1.17,1.70,1.45,1.84,1.84,1.84
233.57,0.66,-1.17,0.64,-1.18,1.18,1.69,1.45,1.83,1.82,1.82
235.90,0.63,-1.17,0.62,-1.19,1.19,1.69,1.44,1.82,1.81,1.80
238.26,0.61,-1.18,0.59,-1.20,1.20,1.69,1.44,1.81,1.79,1.79
240.64,0.58,-1.20,0.56,-1.22,1.22,1.69,1.43,1.80,1.78,1.78
243.05,0.54,-1.24,0.54,-1.24,1.24,1.68,1.43,1.78,1.77,1.78
245.48,0.51,-1.26,0.51,-1.26,1.26,1.68,1.42,1.76,1.77,1.77
247.93,0.49,-1.28,0.49,-1.27,1.27,1.68,1.42,1.76,1.77,1.77
250.41,0.46,-1.30,0.48,-1.29,1.29,1.68,1.42,1.75,1.77,1.76
252.92,0.44,-1.33,0.46,-1.31,1.31,1.68,1.41,1.74,1.77,1.77
255.45,0.42,-1.36,0.45,-1.32,1.32,1.68,1.41,1.74,1.77,1.78
258.00,0.41,-1.37,0.44,-1.34,1.34,1.68,1.41,1.75,1.78,1.78
260.58,0.42,-1.37,0.43,-1.36,1.36,1.68,1.40,1.78,1.79,1.78
263.19,0.42,-1.38,0.42,-1.38,1.38,1.68,1.40,1.79,1.80,1.80
265.82,0.43,-1.37,0.41,-1.39,1.39,1.69,1.40,1.82,1.81,1.80
268.48,0.43,-1.39,0.40,-1.41,1.41,1.69,1.40,1.84,1.82,1.82
271.16,0.43,-1.41,0.39,-1.43,1.43,1.69,1.40,1.86,1.83,1.83
273.87,0.41,-1.43,0.38,-1.46,1.46,1.69,1.39,1.86,1.84,1.84
276.61,0.39,-1.47,0.37,-1.48,1.48,1.70,1.39,1.87,1.85,1.86
279.38,0.37,-1.50,0.35,-1.52,1.52,1.70,1.39,1.88,1.86,1.86
282.17,0.34,-1.54,0.33,-1.55,1.55,1.70,1.39,1.89,1.88,1.88
284.99,0.31,-1.59,0.30,-1.59,1.59,1.71,1.39,1.89,1.89,1.89
287.84,0.28,-1.62,0.27,-1.63,1.63,1.71,1.39,1.90,1.90,1.90
290.72,0.25,-1.66,0.24,-1.67,1.67,1.72,1.40,1.92,1.91,1.91
293.63,0.21,-1.72,0.21,-1.71,1.71,1.72,1.40,1.92,1.93,1.93
296.57,0.18,-1.76,0.19,-1.75,1.75,1.73,1.40,1.93,1.94,1.94
299.53,0.16,-1.79,0.16,-1.79,1.79,1.73,1.41,1.95,1.95,1.95
302.53,0.13,-1.82,0.14,-1.82,1.82,1.74,1.41,1.95,1.96,1.95
305.55,0.11,-1.87,0.12,-1.85,1.85,1.75,1.42,1.96,1.97,1.98
308.61,0.09,-1.90,0.11,-1.87,1.87,1.75,1.42,1.96,1.98,1.98
311.69,0.08,-1.91,0.10,-1.89,1.89,1.76,1.43,1.97,1.99,1.99
314.81,0.08,-1.94,0.10,-1.90,1.90,1.77,1.44,1.98,2.00,2.01
317.96,0.08,-1.93,0.10,-1.91,1.91,1.77,1.45,1.99,2.01,2.01
321.14,0.09,-1.93,0.10,-1.92,1.92,1.78,1.46,2.01,2.02,2.02
324.35,0.10,-1.92,0.10,-1.92,1.92,1.79,1.47,2.02,2.02,2.01
327.59,0.11,-1.92,0.10,-1.93,1.93,1.80,1.48,2.03,2.03,2.03
330.87,0.12,-1.91,0.10,-1.93,1.93,1.81,1.50,2.05,2.03,2.03
334.18,0.12,-1.91,0.10,-1.94,1.94,1.82,1.51,2.05,2.03,2.02
337.52,0.12,-1.91,0.09,-1.94,1.94,1.83,1.53,2.06,2.03,2.03
340.90,0.11,-1.93,0.08,-1.95,1.95,1.84,1.54,2.06,2.03,2.04
344.30,0.09,-1.95,0.07,-1.96,1.96,1.85,1.56,2.05,2.03,2.04
347.75,0.07,-1.97,0.05,-1.98,1.98,1.86,1.58,2.04,2.03,2.03
351.23,0.04,-1.99,0.03,-1.99,1.99,1.87,1.60,2.03,2.03,2.03
354.74,0.02,-2.01,0.01,-2.01,2.01,1.88,1.62,2.03,2.02,2.03
358.28,-0.01,-2.03,-0.02,-2.04,2.04,1.89,1.64,2.02,2.02,2.01
361.87,-0.05,-2.07,-0.05,-2.06,2.06,1.91,1.67,2.01,2.01,2.01
365.49,-0.08,-2.09,-0.08,-2.09,2.09,1.92,1.69,2.01,2.01,2.01
369.14,-0.11,-2.11,-0.11,-2.11,2.11,1.93,1.72,2.00,2.00,2.00
372.83,-0.14,-2.14,-0.14,-2.13,2.13,1.94,1.75,1.99,1.99,2.00
376.56,-0.17,-2.16,-0.16,-2.15,2.15,1.96,1.78,1.98,1.99,1.98
380.33,-0.19,-2.18,-0.18,-2.16,2.16,1.97,1.81,1.97,1.98,1.98
384.13,-0.21,-2.18,-0.20,-2.17,2.17,1.99,1.84,1.96,1.97,1.97
387.97,-0.23,-2.19,-0.21,-2.17,2.17,2.00,1.87,1.94,1.96,1.96
391.85,-0.24,-2.19,-0.22,-2.17,2.17,2.02,1.90,1.93,1.96,1.95
395.77,-0.25,-2.21,-0.22,-2.17,2.17,2.04,1.93,1.92,1.95,1.96
399.73,-0.25,-2.20,-0.22,-2.17,2.17,2.05,1.97,1.91,1.94,1.94
403.72,-0.23,-2.17,-0.23,-2.16,2.16,2.07,2.00,1.93,1.94,1.93
407.76,-0.21,-2.13,-0.23,-2.16,2.16,2.09,2.04,1.94,1.93,1.92
411.84,-0.20,-2.13,-0.23,-2.15,2.15,2.11,2.07,1.95,1.92,1.93
415.96,-0.20,-2.12,-0.23,-2.15,2.15,2.13,2.11,1.95,1.92,1.92
420.12,-0.21,-2.13,-0.24,-2.15,2.15,2.16,2.14,1.94,1.91,1.92
424.32,-0.22,-2.14,-0.25,-2.16,2.16,2.18,2.18,1.94,1.91,1.92
428.56,-0.24,-2.15,-0.26,-2.17,2.17,2.20,2.21,1.93,1.91,1.90
432.85,-0.26,-2.17,-0.28,-2.18,2.18,2.23,2.25,1.92,1.91,1.90
437.18,-0.29,-2.20,-0.30,-2.20,2.20,2.25,2.28,1.91,1.91,1.90
441.55,-0.32,-2.23,-0.32,-2.23,2.23,2.28,2.31,1.90,1.90,1.91
445.96,-0.35,-2.26,-0.35,-2.26,2.26,2.30,2.35,1.90,1.91,1.91
450.42,-0.38,-2.28,-0.38,-2.29,2.29,2.33,2.38,1.91,1.91,1.90
454.93,-0.41,-2.32,-0.41,-2.32,2.32,2.36,2.41,1.91,1.91,1.91
459.48,-0.44,-2.35,-0.44,-2.36,2.36,2.38,2.44,1.91,1.91,1.91
464.07,-0.47,-2.39,-0.47,-2.39,2.39,2.41,2.46,1.91,1.92,1.92
468.71,-0.50,-2.43,-0.49,-2.41,2.41,2.43,2.49,1.91,1.92,1.93
473.40,-0.52,-2.45,-0.51,-2.44,2.44,2.45,2.51,1.92,1.93,1.92
478.13,-0.54,-2.48,-0.53,-2.46,2.46,2.47,2.53,1.92,1.93,1.93
482.91,-0.56,-2.50,-0.54,-2.48,2.48,2.48,2.55,1.92,1.94,1.93
487.74,-0.57,-2.52,-0.55,-2.50,2.50,2.49,2.56,1.92,1.94,1.94
492.62,-0.57,-2.52,-0.56,-2.51,2.51,2.50,2.58,1.93,1.95,1.95
497.55,-0.57,-2.52,-0.56,-2.52,2.52,2.50,2.59,1.94,1.95,1.95
502.52,-0.56,-2.52,-0.57,-2.52,2.52,2.50,2.60,1.96,1.96,1.96
507.55,-0.55,-2.51,-0.57,-2.53,2.53,2.50,2.60,1.97,1.96,1.96
