frequency,raw,error,smoothed,error_smoothed,equalization,parametric_eq,fixed_band_eq,equalized_raw,equalized_smoothed,target
20.00,-9.76,-14.01,-9.76,-14.00,14.05,13.31,5.13,4.29,4.30,4.25
20.20,-9.68,-13.98,-9.69,-13.98,14.00,13.35,5.26,4.32,4.32,4.30
20.40,-9.60,-13.95,-9.61,-13.95,13.94,13.38,5.39,4.34,4.33,4.35
20.61,-9.52,-13.90,-9.52,-13.91,13.88,13.40,5.52,4.36,4.36,4.38
20.81,-9.43,-13.86,-9.44,-13.86,13.81,13.41,5.66,4.38,4.38,4.43
21.02,-9.35,-13.82,-9.34,-13.79,13.74,13.41,5.80,4.39,4.41,4.47
21.23,-9.21,-13.70,-9.21,-13.70,13.66,13.39,5.95,4.45,4.45,4.49
21.44,-9.07,-13.58,-9.08,-13.58,13.58,13.37,6.10,4.51,4.50,4.51
21.66,-8.93,-13.46,-8.93,-13.45,13.48,13.34,6.25,4.54,4.55,4.53
21.87,-8.79,-13.33,-8.80,-13.34,13.37,13.30,6.41,4.58,4.57,4.54
22.09,-8.67,-13.23,-8.68,-13.24,13.27,13.25,6.57,4.59,4.58,4.56
22.31,-8.59,-13.16,-8.59,-13.15,13.16,13.19,6.74,4.57,4.58,4.57
22.54,-8.50,-13.07,-8.50,-13.07,13.06,13.13,6.91,4.56,4.56,4.57
22.76,-8.42,-12.99,-8.42,-12.99,12.97,13.05,7.08,4.55,4.55,4.57
22.99,-8.33,-12.89,-8.33,-12.89,12.88,12.97,7.26,4.55,4.55,4.56
23.22,-8.24,-12.80,-8.24,-12.80,12.80,12.89,7.45,4.55,4.56,4.56
23.45,-8.14,-12.70,-8.15,-12.71,12.71,12.80,7.64,4.57,4.56,4.56
23.69,-8.05,-12.62,-8.05,-12.61,12.62,12.70,7.83,4.56,4.57,4.57
23.92,-7.95,-12.52,-7.95,-12.52,12.52,12.60,8.02,4.57,4.57,4.57
24.16,-7.85,-12.42,-7.85,-12.42,12.42,12.49,8.22,4.57,4.57,4.57
24.40,-7.75,-12.33,-7.75,-12.32,12.32,12.39,8.43,4.57,4.57,4.58
24.65,-7.65,-12.22,-7.65,-12.22,12.21,12.28,8.64,4.56,4.56,4.57
24.89,-7.54,-12.11,-7.54,-12.11,12.10,12.16,8.85,4.56,4.56,4.57
25.14,-7.43,-12.00,-7.43,-12.00,11.99,12.05,9.07,4.56,4.56,4.57
25.39,-7.31,-11.89,-7.31,-11.88,11.88,11.93,9.29,4.57,4.57,4.58
25.65,-7.19,-11.77,-7.19,-11.76,11.78,11.81,9.51,4.58,4.58,4.58
25.91,-7.07,-11.64,-7.08,-11.65,11.67,11.70,9.74,4.60,4.59,4.57
26.16,-6.98,-11.55,-6.98,-11.55,11.57,11.58,9.96,4.59,4.59,4.57
26.43,-6.89,-11.46,-6.90,-11.46,11.47,11.46,10.19,4.57,4.57,4.57
26.69,-6.81,-11.38,-6.81,-11.38,11.36,11.34,10.42,4.55,4.55,4.57
26.96,-6.72,-11.29,-6.72,-11.29,11.26,11.22,10.64,4.54,4.54,4.57
27.23,-6.61,-11.18,-6.61,-11.18,11.15,11.11,10.87,4.54,4.54,4.57
27.50,-6.49,-11.06,-6.49,-11.06,11.04,10.99,11.09,4.55,4.55,4.57
27.77,-6.37,-10.93,-6.37,-10.93,10.93,10.88,11.31,4.56,4.56,4.56
28.05,-6.25,-10.81,-6.26,-10.81,10.82,10.76,11.52,4.57,4.56,4.56
28.33,-6.15,-10.70,-6.15,-10.70,10.72,10.65,11.72,4.57,4.57,4.55
28.62,-6.05,-10.60,-6.05,-10.60,10.62,10.54,11.92,4.57,4.57,4.55
28.90,-5.95,-10.51,-5.96,-10.51,10.54,10.43,12.10,4.58,4.57,4.56
29.19,-5.89,-10.44,-5.89,-10.45,10.46,10.33,12.26,4.57,4.57,4.55
29.48,-5.84,-10.40,-5.84,-10.39,10.40,10.22,12.41,4.55,4.56,4.56
29.78,-5.79,-10.34,-5.79,-10.34,10.33,10.12,12.54,4.54,4.54,4.55
30.08,-5.73,-10.29,-5.73,-10.29,10.27,10.02,12.65,4.54,4.54,4.56
30.38,-5.67,-10.22,-5.67,-10.22,10.21,9.92,12.74,4.54,4.54,4.55
30.68,-5.60,-10.15,-5.61,-10.15,10.14,9.82,12.81,4.54,4.53,4.55
30.99,-5.53,-10.08,-5.53,-10.07,10.06,9.73,12.85,4.53,4.53,4.55
31.30,-5.43,-9.97,-5.44,-9.98,9.97,9.64,12.86,4.53,4.53,4.54
31.61,-5.33,-9.87,-5.34,-9.87,9.87,9.55,12.85,4.53,4.53,4.54
31.93,-5.23,-9.77,-5.23,-9.76,9.76,9.46,12.81,4.52,4.53,4.54
32.24,-5.12,-9.65,-5.12,-9.65,9.64,9.38,12.75,4.52,4.52,4.53
32.57,-5.00,-9.53,-5.01,-9.53,9.53,9.29,12.67,4.53,4.52,4.53
32.89,-4.89,-9.42,-4.89,-9.42,9.42,9.21,12.56,4.53,4.53,4.53
33.22,-4.79,-9.31,-4.79,-9.31,9.33,9.14,12.44,4.53,4.54,4.52
33.55,-4.69,-9.21,-4.69,-9.20,9.24,9.06,12.30,4.55,4.55,4.52
33.89,-4.60,-9.11,-4.61,-9.12,9.16,8.99,12.14,4.56,4.55,4.51
34.23,-4.55,-9.06,-4.56,-9.07,9.08,8.91,11.97,4.53,4.52,4.51
34.57,-4.53,-9.03,-4.53,-9.03,9.01,8.84,11.79,4.48,4.48,4.50
34.92,-4.51,-9.01,-4.49,-8.98,8.94,8.78,11.61,4.43,4.45,4.50
35.27,-4.42,-8.91,-4.42,-8.91,8.87,8.71,11.41,4.44,4.45,4.49
35.62,-4.31,-8.80,-4.32,-8.81,8.79,8.65,11.21,4.48,4.47,4.49
35.97,-4.21,-8.70,-4.22,-8.70,8.72,8.59,11.01,4.51,4.50,4.49
36.33,-4.13,-8.62,-4.13,-8.62,8.64,8.53,10.81,4.51,4.50,4.49
36.70,-4.06,-8.54,-4.06,-8.54,8.56,8.47,10.60,4.49,4.50,4.48
37.06,-3.99,-8.47,-3.99,-8.47,8.48,8.41,10.40,4.49,4.49,4.48
37.43,-3.92,-8.41,-3.92,-8.40,8.41,8.35,10.19,4.49,4.49,4.49
37.81,-3.85,-8.34,-3.85,-8.34,8.35,8.30,9.99,4.50,4.50,4.49
38.19,-3.79,-8.27,-3.80,-8.28,8.29,8.25,9.79,4.50,4.50,4.48
38.57,-3.74,-8.23,-3.74,-8.23,8.23,8.20,9.60,4.49,4.49,4.49
38.95,-3.69,-8.19,-3.69,-8.18,8.16,8.15,9.40,4.47,4.47,4.50
39.34,-3.62,-8.11,-3.63,-8.12,8.08,8.10,9.22,4.45,4.44,4.49
39.74,-3.56,-8.05,-3.56,-8.05,7.99,8.05,9.03,4.43,4.44,4.49
40.14,-3.47,-7.96,-3.44,-7.93,7.91,8.00,8.85,4.44,4.47,4.49
40.54,-3.31,-7.80,-3.32,-7.80,7.83,7.95,8.68,4.52,4.51,4.49
40.94,-3.16,-7.64,-3.21,-7.69,7.75,7.91,8.51,4.59,4.54,4.48
41.35,-3.14,-7.62,-3.14,-7.62,7.67,7.86,8.35,4.53,4.53,4.48
41.76,-3.13,-7.60,-3.11,-7.58,7.60,7.81,8.19,4.47,4.49,4.47
42.18,-3.10,-7.57,-3.09,-7.56,7.53,7.76,8.03,4.43,4.44,4.47
42.60,-3.04,-7.50,-3.05,-7.50,7.47,7.72,7.88,4.43,4.42,4.46
43.03,-2.99,-7.44,-2.99,-7.44,7.41,7.67,7.74,4.42,4.42,4.45
43.46,-2.93,-7.37,-2.94,-7.37,7.35,7.62,7.60,4.42,4.41,4.44
43.90,-2.88,-7.30,-2.88,-7.29,7.28,7.57,7.46,4.40,4.41,4.42
44.33,-2.81,-7.21,-2.81,-7.21,7.21,7.52,7.33,4.40,4.40,4.40
44.78,-2.74,-7.12,-2.74,-7.12,7.14,7.47,7.21,4.40,4.40,4.38
45.23,-2.67,-7.04,-2.68,-7.04,7.07,7.42,7.09,4.40,4.40,4.37
45.68,-2.63,-6.99,-2.63,-6.98,7.01,7.37,6.97,4.38,4.38,4.36
46.13,-2.59,-6.93,-2.60,-6.94,6.95,7.32,6.86,4.35,4.35,4.34
46.60,-2.57,-6.91,-2.57,-6.90,6.88,7.26,6.76,4.31,4.31,4.34
47.06,-2.55,-6.87,-2.53,-6.85,6.82,7.20,6.65,4.27,4.29,4.32
47.53,-2.47,-6.78,-2.47,-6.79,6.76,7.15,6.56,4.29,4.29,4.31
48.01,-2.39,-6.70,-2.41,-6.71,6.70,7.09,6.46,4.31,4.30,4.31
48.49,-2.34,-6.63,-2.34,-6.63,6.64,7.03,6.37,4.30,4.30,4.29
48.97,-2.29,-6.56,-2.29,-6.56,6.58,6.96,6.29,4.29,4.29,4.27
49.46,-2.25,-6.50,-2.25,-6.49,6.51,6.90,6.21,4.25,4.26,4.25
49.96,-2.20,-6.43,-2.23,-6.46,6.44,6.83,6.13,4.24,4.21,4.23
50.46,-2.20,-6.42,-2.20,-6.42,6.39,6.76,6.05,4.18,4.18,4.22
50.96,-2.19,-6.40,-2.15,-6.35,6.34,6.69,5.98,4.15,4.20,4.21
51.47,-2.09,-6.28,-2.08,-6.27,6.30,6.62,5.91,4.21,4.22,4.19
51.99,-1.97,-6.15,-2.04,-6.22,6.26,6.55,5.85,4.29,4.22,4.18
52.51,-2.03,-6.20,-2.03,-6.20,6.23,6.47,5.78,4.19,4.19,4.17
53.03,-2.09,-6.26,-2.07,-6.23,6.20,6.40,5.72,4.10,4.13,4.17
53.56,-2.09,-6.24,-2.08,-6.23,6.18,6.32,5.66,4.09,4.10,4.15
54.10,-2.06,-6.20,-2.01,-6.15,6.17,6.24,5.60,4.10,4.15,4.14
54.64,-1.92,-6.04,-1.97,-6.09,6.15,6.16,5.55,4.23,4.18,4.12
55.18,-1.89,-6.01,-1.98,-6.09,6.13,6.08,5.49,4.23,4.15,4.12
55.74,-2.07,-6.17,-2.00,-6.10,6.09,5.99,5.44,4.02,4.09,4.10
56.29,-2.07,-6.16,-2.02,-6.10,6.03,5.91,5.38,3.96,4.01,4.09
56.86,-1.93,-6.01,-1.98,-6.05,5.96,5.83,5.33,4.03,3.98,4.08
57.42,-1.85,-5.90,-1.87,-5.92,5.89,5.74,5.28,4.04,4.02,4.05
58.00,-1.79,-5.83,-1.75,-5.79,5.83,5.65,5.23,4.03,4.07,4.04
58.58,-1.66,-5.69,-1.67,-5.69,5.75,5.57,5.17,4.09,4.08,4.03
59.16,-1.56,-5.57,-1.60,-5.61,5.67,5.48,5.12,4.10,4.07,4.01
59.76,-1.57,-5.56,-1.57,-5.55,5.58,5.39,5.07,4.01,4.01,3.99
60.35,-1.57,-5.52,-1.57,-5.52,5.50,5.31,5.01,3.93,3.93,3.95
60.96,-1.58,-5.49,-1.56,-5.47,5.43,5.22,4.95,3.84,3.86,3.91
61.57,-1.52,-5.39,-1.52,-5.39,5.36,5.13,4.90,3.84,3.84,3.87
62.18,-1.46,-5.29,-1.47,-5.29,5.29,5.04,4.84,3.83,3.83,3.83
62.80,-1.40,-5.18,-1.42,-5.20,5.22,4.96,4.78,3.82,3.80,3.78
63.43,-1.38,-5.12,-1.39,-5.12,5.13,4.87,4.72,3.75,3.75,3.74
64.07,-1.37,-5.06,-1.35,-5.04,5.04,4.78,4.66,3.66,3.68,3.69
64.71,-1.31,-4.96,-1.31,-4.96,4.94,4.70,4.59,3.62,3.62,3.65
65.35,-1.24,-4.85,-1.25,-4.85,4.84,4.61,4.53,3.59,3.59,3.61
66.01,-1.18,-4.74,-1.18,-4.74,4.73,4.52,4.46,3.55,3.55,3.56
66.67,-1.11,-4.62,-1.11,-4.62,4.63,4.44,4.39,3.52,3.52,3.51
67.33,-1.05,-4.51,-1.05,-4.51,4.54,4.36,4.32,3.49,3.48,3.46
68.01,-0.99,-4.41,-1.01,-4.42,4.45,4.27,4.25,3.45,3.44,3.42
68.69,-0.98,-4.35,-0.97,-4.34,4.35,4.19,4.18,3.37,3.38,3.37
69.37,-0.94,-4.26,-0.92,-4.24,4.24,4.11,4.11,3.30,3.32,3.32
70.07,-0.87,-4.14,-0.88,-4.15,4.13,4.03,4.04,3.26,3.25,3.27
70.77,-0.80,-4.02,-0.87,-4.09,4.02,3.95,3.97,3.22,3.15,3.22
71.48,-0.85,-4.02,-0.82,-3.98,3.92,3.88,3.90,3.07,3.10,3.17
72.19,-0.84,-3.94,-0.73,-3.83,3.82,3.80,3.82,2.98,3.10,3.10
72.91,-0.54,-3.58,-0.61,-3.65,3.72,3.72,3.75,3.18,3.12,3.04
73.64,-0.45,-3.44,-0.52,-3.51,3.62,3.65,3.68,3.17,3.10,2.99
74.38,-0.52,-3.45,-0.56,-3.48,3.52,3.57,3.61,3.00,2.96,2.93
75.12,-0.68,-3.55,-0.63,-3.49,3.41,3.50,3.54,2.73,2.78,2.87
75.87,-0.72,-3.53,-0.59,-3.40,3.30,3.43,3.47,2.58,2.71,2.81
76.63,-0.41,-3.17,-0.49,-3.24,3.20,3.36,3.40,2.79,2.71,2.76
77.40,-0.28,-2.99,-0.40,-3.10,3.10,3.29,3.34,2.82,2.70,2.71
78.17,-0.38,-3.03,-0.32,-2.98,3.01,3.22,3.27,2.62,2.68,2.65
78.95,-0.38,-2.99,-0.29,-2.89,2.92,3.16,3.20,2.54,2.63,2.61
79.74,-0.19,-2.75,-0.23,-2.79,2.84,3.09,3.14,2.65,2.61,2.56
80.54,-0.12,-2.63,-0.22,-2.73,2.78,3.03,3.08,2.65,2.55,2.51
81.35,-0.24,-2.70,-0.22,-2.67,2.73,2.96,3.02,2.49,2.52,2.46
82.16,-0.42,-2.83,-0.28,-2.69,2.69,2.90,2.96,2.27,2.41,2.41
82.98,-0.19,-2.56,-0.35,-2.71,2.65,2.84,2.90,2.45,2.30,2.37
83.81,-0.41,-2.73,-0.37,-2.69,2.60,2.78,2.85,2.19,2.23,2.32
84.65,-0.40,-2.67,-0.35,-2.62,2.56,2.72,2.80,2.16,2.21,2.27
85.50,-0.33,-2.56,-0.32,-2.55,2.52,2.67,2.74,2.19,2.20,2.23
86.35,-0.22,-2.40,-0.23,-2.40,2.47,2.61,2.69,2.25,2.25,2.18
87.22,-0.13,-2.26,-0.21,-2.34,2.42,2.55,2.65,2.29,2.21,2.13
88.09,-0.26,-2.34,-0.25,-2.33,2.37,2.50,2.60,2.11,2.11,2.08
88.97,-0.38,-2.40,-0.32,-2.34,2.32,2.45,2.55,1.94,2.00,2.02
89.86,-0.37,-2.34,-0.38,-2.35,2.29,2.39,2.51,1.92,1.92,1.97
90.76,-0.37,-2.29,-0.39,-2.30,2.28,2.34,2.47,1.91,1.89,1.92
91.66,-0.39,-2.26,-0.40,-2.26,2.28,2.29,2.43,1.89,1.88,1.87
92.58,-0.44,-2.25,-0.45,-2.26,2.28,2.24,2.39,1.84,1.84,1.81
93.51,-0.52,-2.28,-0.51,-2.27,2.29,2.20,2.35,1.77,1.78,1.76
94.44,-0.58,-2.30,-0.58,-2.29,2.29,2.15,2.32,1.71,1.71,1.72
95.39,-0.64,-2.31,-0.65,-2.32,2.30,2.10,2.28,1.65,1.65,1.67
96.34,-0.71,-2.33,-0.71,-2.33,2.31,2.06,2.25,1.60,1.60,1.62
97.30,-0.78,-2.35,-0.77,-2.34,2.33,2.01,2.22,1.55,1.56,1.57
98.28,-0.82,-2.34,-0.83,-2.35,2.36,1.97,2.19,1.54,1.53,1.52
99.26,-0.91,-2.39,-0.90,-2.37,2.39,1.92,2.16,1.48,1.49,1.48
100.25,-0.96,-2.39,-0.99,-2.41,2.44,1.88,2.13,1.48,1.45,1.43
101.25,-1.09,-2.47,-1.07,-2.45,2.49,1.84,2.11,1.39,1.41,1.38
102.27,-1.18,-2.51,-1.16,-2.49,2.53,1.80,2.08,1.35,1.37,1.33
103.29,-1.24,-2.52,-1.29,-2.57,2.56,1.76,2.06,1.32,1.27,1.28
104.32,-1.38,-2.62,-1.41,-2.64,2.58,1.72,2.03,1.20,1.17,1.24
105.37,-1.57,-2.76,-1.48,-2.67,2.59,1.68,2.01,1.01,1.10,1.19
106.42,-1.51,-2.65,-1.52,-2.65,2.59,1.65,1.99,1.08,1.07,1.14
107.48,-1.46,-2.54,-1.51,-2.59,2.59,1.61,1.96,1.12,1.08,1.08
108.56,-1.49,-2.52,-1.48,-2.51,2.58,1.57,1.94,1.09,1.10,1.03
109.64,-1.51,-2.49,-1.48,-2.46,2.57,1.54,1.92,1.06,1.09,0.98
110.74,-1.53,-2.45,-1.56,-2.48,2.54,1.50,1.90,1.01,0.98,0.92
111.85,-1.58,-2.46,-1.66,-2.53,2.52,1.47,1.88,0.94,0.85,0.88
112.97,-1.84,-2.66,-1.73,-2.55,2.49,1.44,1.86,0.65,0.76,0.82
114.10,-1.79,-2.56,-1.76,-2.53,2.46,1.40,1.83,0.67,0.70,0.77
115.24,-1.66,-2.38,-1.74,-2.45,2.40,1.37,1.81,0.74,0.67,0.72
116.39,-1.66,-2.33,-1.66,-2.33,2.33,1.34,1.79,0.67,0.67,0.67
117.55,-1.65,-2.28,-1.63,-2.25,2.25,1.31,1.76,0.60,0.62,0.63
118.73,-1.58,-2.17,-1.60,-2.19,2.16,1.28,1.74,0.58,0.56,0.59
119.92,-1.52,-2.08,-1.50,-2.05,2.08,1.25,1.71,0.55,0.58,0.56
121.12,-1.42,-1.94,-1.36,-1.88,1.99,1.22,1.69,0.56,0.62,0.52
122.33,-1.22,-1.71,-1.30,-1.79,1.89,1.19,1.66,0.66,0.58,0.49
123.55,-1.24,-1.70,-1.36,-1.81,1.80,1.16,1.63,0.56,0.44,0.46
124.79,-1.49,-1.92,-1.40,-1.83,1.72,1.13,1.60,0.23,0.32,0.43
126.03,-1.52,-1.92,-1.36,-1.76,1.64,1.10,1.57,0.12,0.29,0.40
127.29,-1.14,-1.52,-1.18,-1.55,1.56,1.08,1.54,0.42,0.38,0.38
128.57,-0.90,-1.24,-1.06,-1.40,1.48,1.05,1.50,0.57,0.42,0.34
129.85,-0.95,-1.26,-1.03,-1.34,1.40,1.02,1.47,0.45,0.37,0.31
131.15,-1.28,-1.56,-1.09,-1.36,1.33,1.00,1.43,0.05,0.25,0.28
132.46,-1.07,-1.32,-1.04,-1.28,1.26,0.97,1.40,0.18,0.22,0.25
133.79,-0.89,-1.11,-0.92,-1.14,1.18,0.94,1.36,0.28,0.25,0.22
135.12,-0.68,-0.87,-0.86,-1.05,1.11,0.92,1.32,0.43,0.25,0.19
136.48,-0.95,-1.12,-0.90,-1.06,1.05,0.89,1.28,0.10,0.15,0.17
137.84,-1.08,-1.21,-0.95,-1.08,0.99,0.87,1.24,-0.09,0.03,0.13
139.22,-0.88,-0.98,-0.89,-0.99,0.91,0.84,1.19,0.03,0.02,0.10
140.61,-0.72,-0.79,-0.70,-0.77,0.82,0.82,1.15,0.10,0.12,0.07
142.02,-0.48,-0.53,-0.62,-0.67,0.72,0.79,1.11,0.24,0.10,0.05
143.44,-0.58,-0.60,-0.64,-0.65,0.63,0.77,1.06,0.05,-0.01,0.02
144.87,-0.82,-0.80,-0.59,-0.57,0.54,0.75,1.02,-0.28,-0.05,-0.02
146.32,-0.52,-0.46,-0.53,-0.47,0.45,0.72,0.97,-0.07,-0.08,-0.06
147.78,-0.26,-0.17,-0.43,-0.33,0.38,0.70,0.93,0.12,-0.05,-0.09
149.26,-0.38,-0.24,-0.34,-0.20,0.31,0.68,0.88,-0.07,-0.03,-0.14
150.75,-0.46,-0.26,-0.41,-0.20,0.25,0.65,0.83,-0.22,-0.16,-0.20
152.26,-0.45,-0.18,-0.52,-0.25,0.16,0.63,0.79,-0.29,-0.36,-0.27
153.78,-0.57,-0.23,-0.54,-0.20,0.08,0.60,0.74,-0.50,-0.46,-0.34
155.32,-0.58,-0.17,-0.51,-0.09,-0.00,0.58,0.69,-0.58,-0.51,-0.41
156.88,-0.39,0.10,-0.44,0.05,-0.07,0.56,0.65,-0.46,-0.51,-0.49
158.44,-0.36,0.21,-0.37,0.20,-0.12,0.53,0.60,-0.48,-0.49,-0.57
160.03,-0.35,0.30,-0.39,0.27,-0.17,0.51,0.55,-0.52,-0.55,-0.65
161.63,-0.48,0.24,-0.47,0.25,-0.20,0.48,0.50,-0.68,-0.67,-0.72
163.24,-0.61,0.17,-0.56,0.22,-0.20,0.46,0.45,-0.81,-0.76,-0.78
164.88,-0.63,0.20,-0.67,0.17,-0.16,0.43,0.41,-0.79,-0.83,-0.83
166.53,-0.75,0.13,-0.78,0.11,-0.09,0.41,0.36,-0.84,-0.87,-0.88
168.19,-0.90,0.02,-0.88,0.05,-0.01,0.38,0.31,-0.92,-0.89,-0.92
169.87,-1.03,-0.07,-1.01,-0.05,0.05,0.36,0.26,-0.98,-0.96,-0.96
171.57,-1.08,-0.10,-1.15,-0.17,0.09,0.33,0.21,-1.00,-1.07,-0.98
173.29,-1.24,-0.25,-1.22,-0.23,0.11,0.30,0.16,-1.13,-1.11,-0.99
175.02,-1.32,-0.32,-1.21,-0.20,0.13,0.28,0.12,-1.19,-1.08,-1.00
176.77,-1.08,-0.07,-1.15,-0.14,0.14,0.25,0.07,-0.94,-1.01,-1.01
178.54,-1.01,0.01,-1.05,-0.03,0.14,0.22,0.02,-0.88,-0.91,-1.02
180.32,-1.00,0.01,-0.97,0.04,0.11,0.19,-0.03,-0.89,-0.87,-1.01
182.13,-0.99,0.01,-1.02,-0.01,0.05,0.16,-0.08,-0.94,-0.97,-1.00
183.95,-1.04,-0.03,-1.09,-0.08,-0.01,0.13,-0.13,-1.05,-1.10,-1.01
185.79,-1.16,-0.15,-1.09,-0.08,-0.07,0.09,-0.18,-1.23,-1.17,-1.01
187.65,-1.06,-0.03,-0.99,0.04,-0.12,0.06,-0.23,-1.19,-1.11,-1.03
189.52,-0.80,0.24,-0.82,0.22,-0.18,0.02,-0.27,-0.98,-1.00,-1.04
191.42,-0.58,0.48,-0.71,0.36,-0.25,-0.01,-0.32,-0.83,-0.95,-1.06
193.33,-0.67,0.41,-0.68,0.41,-0.33,-0.05,-0.37,-1.00,-1.01,-1.08
195.27,-0.80,0.30,-0.69,0.41,-0.43,-0.09,-0.42,-1.23,-1.12,-1.10
197.22,-0.68,0.44,-0.69,0.43,-0.52,-0.14,-0.47,-1.20,-1.21,-1.12
199.19,-0.57,0.57,-0.63,0.52,-0.58,-0.18,-0.52,-1.15,-1.21,-1.14
201.18,-0.56,0.60,-0.52,0.64,-0.61,-0.23,-0.57,-1.18,-1.13,-1.16
203.19,-0.49,0.69,-0.47,0.71,-0.63,-0.27,-0.61,-1.12,-1.10,-1.18
205.23,-0.41,0.79,-0.49,0.71,-0.64,-0.33,-0.66,-1.05,-1.13,-1.20
207.28,-0.53,0.68,-0.53,0.69,-0.65,-0.38,-0.71,-1.19,-1.18,-1.21
209.35,-0.65,0.58,-0.60,0.63,-0.66,-0.44,-0.76,-1.31,-1.27,-1.23
211.44,-0.66,0.60,-0.67,0.59,-0.66,-0.50,-0.80,-1.32,-1.33,-1.26
213.56,-0.67,0.60,-0.68,0.59,-0.64,-0.56,-0.85,-1.31,-1.32,-1.27
215.69,-0.67,0.61,-0.67,0.61,-0.61,-0.62,-0.89,-1.29,-1.29,-1.28
217.85,-0.67,0.62,-0.68,0.62,-0.59,-0.69,-0.93,-1.26,-1.27,-1.29
220.03,-0.68,0.62,-0.67,0.64,-0.58,-0.77,-0.98,-1.26,-1.25,-1.30
222.23,-0.68,0.65,-0.69,0.63,-0.57,-0.84,-1.02,-1.26,-1.26,-1.33
224.45,-0.68,0.64,-0.73,0.59,-0.59,-0.92,-1.06,-1.27,-1.32,-1.32
226.70,-0.78,0.54,-0.74,0.59,-0.62,-1.00,-1.09,-1.41,-1.36,-1.32
228.96,-0.74,0.57,-0.70,0.61,-0.68,-1.09,-1.13,-1.42,-1.38,-1.31
231.25,-0.56,0.74,-0.61,0.69,-0.77,-1.17,-1.16,-1.33,-1.39,-1.30
233.57,-0.45,0.84,-0.46,0.83,-0.89,-1.26,-1.19,-1.34,-1.35,-1.29
235.90,-0.31,0.97,-0.27,1.02,-1.04,-1.35,-1.22,-1.35,-1.31,-1.28
238.26,-0.06,1.21,-0.05,1.21,-1.21,-1.44,-1.25,-1.27,-1.26,-1.27
240.64,0.22,1.46,0.16,1.41,-1.39,-1.52,-1.28,-1.17,-1.23,-1.24
243.05,0.39,1.60,0.39,1.61,-1.56,-1.60,-1.30,-1.17,-1.17,-1.21
245.48,0.51,1.70,0.58,1.77,-1.71,-1.68,-1.32,-1.21,-1.13,-1.19
247.93,0.80,1.96,0.71,1.88,-1.85,-1.75,-1.34,-1.05,-1.13,-1.16
250.41,0.83,1.97,0.82,1.96,-1.95,-1.81,-1.35,-1.12,-1.12,-1.14
252.92,0.85,1.96,0.91,2.02,-2.02,-1.86,-1.36,-1.17,-1.11,-1.11
255.45,0.97,2.06,0.94,2.04,-2.06,-1.90,-1.37,-1.09,-1.12,-1.09
258.00,1.01,2.08,0.99,2.06,-2.07,-1.93,-1.38,-1.07,-1.08,-1.07
260.58,1.02,2.07,1.03,2.08,-2.07,-1.94,-1.39,-1.05,-1.04,-1.05
263.19,1.02,2.04,1.03,2.06,-2.05,-1.94,-1.39,-1.03,-1.02,-1.02
265.82,1.04,2.04,1.01,2.02,-2.02,-1.93,-1.39,-0.98,-1.00,-1.00
268.48,0.99,1.97,0.98,1.96,-1.97,-1.90,-1.39,-0.98,-0.99,-0.98
271.16,0.93,1.88,0.95,1.91,-1.91,-1.87,-1.39,-0.99,-0.97,-0.95
273.87,0.91,1.84,0.92,1.85,-1.85,-1.82,-1.38,-0.94,-0.93,-0.93
276.61,0.91,1.81,0.89,1.80,-1.78,-1.76,-1.37,-0.87,-0.89,-0.90
279.38,0.88,1.75,0.84,1.72,-1.71,-1.70,-1.37,-0.84,-0.87,-0.87
282.17,0.76,1.61,0.78,1.63,-1.65,-1.63,-1.36,-0.89,-0.87,-0.85
284.99,0.71,1.52,0.74,1.56,-1.59,-1.56,-1.35,-0.88,-0.85,-0.81
287.84,0.73,1.52,0.71,1.50,-1.53,-1.49,-1.33,-0.80,-0.82,-0.79
290.72,0.73,1.49,0.70,1.46,-1.47,-1.42,-1.32,-0.74,-0.77,-0.76
293.63,0.66,1.39,0.69,1.43,-1.41,-1.34,-1.31,-0.75,-0.71,-0.73
296.57,0.66,1.36,0.67,1.37,-1.35,-1.27,-1.30,-0.69,-0.68,-0.70
299.53,0.67,1.34,0.62,1.30,-1.29,-1.21,-1.28,-0.62,-0.66,-0.67
302.53,0.58,1.23,0.59,1.23,-1.22,-1.14,-1.27,-0.64,-0.64,-0.65
305.55,0.50,1.11,0.53,1.15,-1.15,-1.08,-1.26,-0.65,-0.62,-0.61
308.61,0.50,1.09,0.48,1.07,-1.08,-1.02,-1.24,-0.58,-0.60,-0.59
311.69,0.45,1.01,0.44,1.00,-1.00,-0.97,-1.23,-0.55,-0.56,-0.56
314.81,0.39,0.93,0.39,0.93,-0.93,-0.92,-1.22,-0.54,-0.54,-0.54
317.96,0.33,0.85,0.32,0.85,-0.85,-0.87,-1.20,-0.53,-0.53,-0.52
321.14,0.26,0.77,0.27,0.78,-0.79,-0.83,-1.19,-0.53,-0.52,-0.51
324.35,0.22,0.71,0.23,0.73,-0.73,-0.79,-1.18,-0.51,-0.50,-0.49
327.59,0.21,0.69,0.19,0.67,-0.68,-0.75,-1.17,-0.47,-0.49,-0.48
330.87,0.17,0.64,0.16,0.63,-0.63,-0.72,-1.16,-0.46,-0.47,-0.47
334.18,0.11,0.56,0.13,0.58,-0.59,-0.69,-1.15,-0.48,-0.46,-0.45
337.52,0.10,0.54,0.11,0.55,-0.55,-0.66,-1.14,-0.45,-0.44,-0.44
340.90,0.10,0.53,0.09,0.53,-0.51,-0.64,-1.13,-0.42,-0.42,-0.43
344.30,0.10,0.52,0.07,0.50,-0.49,-0.62,-1.13,-0.39,-0.41,-0.42
347.75,0.04,0.46,0.04,0.46,-0.46,-0.60,-1.12,-0.42,-0.42,-0.42
351.23,-0.00,0.41,0.01,0.43,-0.44,-0.58,-1.12,-0.45,-0.43,-0.41
354.74,-0.00,0.42,-0.00,0.41,-0.43,-0.57,-1.11,-0.43,-0.44,-0.42
358.28,0.01,0.42,-0.00,0.41,-0.42,-0.56,-1.11,-0.42,-0.42,-0.41
361.87,0.01,0.42,0.01,0.42,-0.42,-0.55,-1.11,-0.41,-0.41,-0.41
365.49,0.02,0.42,0.02,0.43,-0.42,-0.55,-1.11,-0.40,-0.40,-0.40
369.14,0.03,0.44,0.02,0.44,-0.42,-0.54,-1.11,-0.40,-0.40,-0.41
372.83,0.03,0.44,0.03,0.45,-0.44,-0.54,-1.11,-0.41,-0.41,-0.41
376.56,0.04,0.46,0.04,0.46,-0.45,-0.54,-1.11,-0.42,-0.41,-0.42
380.33,0.05,0.46,0.04,0.46,-0.47,-0.54,-1.11,-0.42,-0.43,-0.41
384.13,0.06,0.47,0.05,0.47,-0.49,-0.55,-1.12,-0.43,-0.44,-0.41
387.97,0.06,0.48,0.08,0.50,-0.51,-0.55,-1.12,-0.45,-0.42,-0.42
391.85,0.13,0.56,0.12,0.55,-0.53,-0.56,-1.12,-0.40,-0.41,-0.43
395.77,0.17,0.59,0.15,0.58,-0.55,-0.57,-1.13,-0.39,-0.40,-0.42
399.73,0.17,0.60,0.16,0.60,-0.58,-0.58,-1.13,-0.42,-0.42,-0.43
403.72,0.16,0.59,0.17,0.60,-0.62,-0.59,-1.14,-0.46,-0.45,-0.43
407.76,0.17,0.62,0.18,0.63,-0.66,-0.60,-1.15,-0.49,-0.48,-0.45
411.84,0.23,0.68,0.22,0.68,-0.70,-0.62,-1.15,-0.48,-0.48,-0.45
415.96,0.29,0.74,0.28,0.74,-0.74,-0.64,-1.16,-0.46,-0.46,-0.45
420.12,0.35,0.80,0.35,0.80,-0.78,-0.66,-1.17,-0.44,-0.44,-0.45
424.32,0.40,0.85,0.40,0.85,-0.82,-0.68,-1.18,-0.43,-0.42,-0.45
428.56,0.46,0.90,0.45,0.90,-0.87,-0.70,-1.18,-0.41,-0.42,-0.44
432.85,0.49,0.92,0.48,0.92,-0.91,-0.72,-1.19,-0.42,-0.43,-0.43
437.18,0.52,0.94,0.51,0.93,-0.95,-0.75,-1.19,-0.43,-0.44,-0.42
441.55,0.55,0.93,0.57,0.96,-0.98,-0.77,-1.20,-0.44,-0.42,-0.38
445.96,0.63,0.98,0.64,1.00,-1.01,-0.80,-1.21,-0.38,-0.37,-0.35
450.42,0.75,1.07,0.72,1.04,-1.04,-0.83,-1.21,-0.29,-0.31,-0.32
454.93,0.81,1.08,0.81,1.09,-1.06,-0.85,-1.21,-0.25,-0.25,-0.27
459.48,0.87,1.10,0.87,1.10,-1.08,-0.88,-1.21,-0.22,-0.21,-0.23
464.07,0.93,1.11,0.93,1.11,-1.10,-0.91,-1.22,-0.18,-0.18,-0.18
468.71,0.98,1.10,0.98,1.11,-1.12,-0.94,-1.21,-0.14,-0.13,-0.12
473.40,1.05,1.13,1.04,1.12,-1.13,-0.97,-1.21,-0.08,-0.08,-0.08
