frequency,raw,error,smoothed,error_smoothed,equalization,parametric_eq,fixed_band_eq,equalized_raw,equalized_smoothed,target
20.00,-2.11,-4.60,-2.11,-4.60,4.61,5.05,1.89,2.49,2.50,2.49
20.20,-2.13,-4.67,-2.14,-4.67,4.68,5.03,1.95,2.55,2.54,2.54
20.40,-2.15,-4.74,-2.16,-4.74,4.74,5.01,2.00,2.59,2.59,2.59
20.61,-2.17,-4.79,-2.18,-4.80,4.80,4.99,2.06,2.63,2.63,2.62
20.81,-2.19,-4.86,-2.19,-4.86,4.85,4.97,2.12,2.66,2.66,2.67
21.02,-2.21,-4.92,-2.21,-4.91,4.90,4.95,2.19,2.68,2.69,2.71
21.23,-2.21,-4.94,-2.21,-4.95,4.93,4.93,2.25,2.72,2.72,2.73
21.44,-2.21,-4.96,-2.22,-4.97,4.97,4.91,2.32,2.75,2.75,2.75
21.66,-2.21,-4.98,-2.21,-4.98,4.99,4.89,2.39,2.77,2.77,2.77
21.87,-2.21,-4.99,-2.21,-5.00,5.00,4.87,2.46,2.79,2.79,2.78
22.09,-2.21,-5.01,-2.21,-5.01,5.01,4.85,2.53,2.80,2.80,2.80
22.31,-2.21,-5.02,-2.21,-5.02,5.02,4.83,2.60,2.80,2.80,2.81
22.54,-2.21,-5.02,-2.21,-5.02,5.02,4.81,2.68,2.80,2.80,2.81
22.76,-2.21,-5.02,-2.21,-5.02,5.02,4.79,2.76,2.81,2.81,2.81
22.99,-2.21,-5.01,-2.21,-5.02,5.02,4.77,2.84,2.81,2.81,2.80
23.22,-2.21,-5.01,-2.21,-5.01,5.02,4.75,2.92,2.81,2.81,2.80
23.45,-2.21,-5.01,-2.21,-5.02,5.02,4.73,3.00,2.81,2.81,2.80
23.69,-2.21,-5.02,-2.21,-5.02,5.02,4.70,3.09,2.81,2.81,2.81
23.92,-2.21,-5.02,-2.21,-5.02,5.02,4.68,3.17,2.81,2.81,2.81
24.16,-2.21,-5.02,-2.21,-5.03,5.02,4.66,3.26,2.81,2.81,2.81
24.40,-2.21,-5.03,-2.21,-5.03,5.02,4.64,3.35,2.81,2.81,2.82
24.65,-2.21,-5.02,-2.21,-5.02,5.03,4.62,3.44,2.81,2.81,2.81
24.89,-2.21,-5.02,-2.21,-5.02,5.03,4.60,3.53,2.81,2.81,2.81
25.14,-2.21,-5.02,-2.21,-5.03,5.03,4.58,3.63,2.81,2.81,2.81
25.39,-2.21,-5.03,-2.21,-5.03,5.03,4.55,3.72,2.81,2.81,2.82
25.65,-2.21,-5.03,-2.21,-5.03,5.03,4.53,3.81,2.81,2.81,2.82
25.91,-2.21,-5.02,-2.21,-5.03,5.03,4.51,3.91,2.81,2.81,2.81
26.16,-2.21,-5.02,-2.21,-5.02,5.03,4.49,4.00,2.81,2.81,2.81
26.43,-2.21,-5.02,-2.21,-5.02,5.03,4.47,4.09,2.82,2.82,2.81
26.69,-2.21,-5.02,-2.21,-5.02,5.03,4.44,4.18,2.82,2.82,2.81
26.96,-2.21,-5.02,-2.21,-5.02,5.03,4.42,4.27,2.82,2.82,2.81
27.23,-2.21,-5.02,-2.21,-5.02,5.03,4.40,4.36,2.81,2.81,2.81
27.50,-2.21,-5.02,-2.22,-5.03,5.01,4.38,4.45,2.80,2.80,2.81
27.77,-2.21,-5.01,-2.21,-5.01,5.00,4.35,4.53,2.78,2.78,2.80
28.05,-2.20,-5.00,-2.19,-4.99,4.97,4.33,4.61,2.77,2.78,2.80
28.33,-2.14,-4.93,-2.15,-4.94,4.94,4.31,4.68,2.79,2.78,2.79
28.62,-2.09,-4.88,-2.10,-4.89,4.89,4.29,4.76,2.80,2.80,2.79
28.90,-2.03,-4.83,-2.03,-4.83,4.84,4.26,4.82,2.81,2.81,2.80
29.19,-1.97,-4.76,-1.98,-4.77,4.79,4.24,4.88,2.81,2.81,2.79
29.48,-1.91,-4.71,-1.92,-4.71,4.72,4.22,4.93,2.81,2.80,2.80
29.78,-1.85,-4.64,-1.85,-4.65,4.65,4.20,4.98,2.79,2.80,2.79
30.08,-1.78,-4.58,-1.78,-4.57,4.57,4.17,5.02,2.78,2.79,2.80
30.38,-1.69,-4.47,-1.69,-4.48,4.47,4.15,5.05,2.79,2.78,2.79
30.68,-1.58,-4.37,-1.59,-4.38,4.36,4.13,5.08,2.78,2.77,2.79
30.99,-1.48,-4.27,-1.47,-4.26,4.24,4.11,5.10,2.75,2.77,2.79
31.30,-1.34,-4.11,-1.33,-4.12,4.10,4.08,5.10,2.76,2.76,2.78
31.61,-1.17,-3.95,-1.18,-3.96,3.94,4.06,5.11,2.77,2.76,2.78
31.93,-1.02,-3.80,-1.01,-3.79,3.78,4.04,5.10,2.76,2.77,2.78
32.24,-0.85,-3.62,-0.85,-3.62,3.62,4.01,5.09,2.77,2.77,2.77
32.57,-0.69,-3.45,-0.68,-3.45,3.47,3.99,5.07,2.78,2.78,2.77
32.89,-0.52,-3.29,-0.54,-3.30,3.33,3.97,5.04,2.80,2.79,2.77
33.22,-0.41,-3.17,-0.41,-3.18,3.20,3.95,5.00,2.79,2.79,2.76
33.55,-0.33,-3.09,-0.32,-3.08,3.10,3.92,4.96,2.77,2.78,2.76
33.89,-0.25,-3.00,-0.26,-3.02,3.03,3.90,4.92,2.77,2.76,2.75
34.23,-0.22,-2.97,-0.23,-2.97,2.97,3.88,4.87,2.75,2.75,2.75
34.57,-0.21,-2.95,-0.21,-2.95,2.94,3.85,4.81,2.73,2.73,2.74
34.92,-0.20,-2.94,-0.21,-2.94,2.93,3.83,4.75,2.73,2.73,2.74
35.27,-0.21,-2.94,-0.21,-2.94,2.94,3.81,4.68,2.73,2.74,2.73
35.62,-0.22,-2.95,-0.22,-2.95,2.97,3.79,4.61,2.74,2.74,2.73
35.97,-0.24,-2.97,-0.26,-2.99,3.00,3.76,4.54,2.75,2.74,2.73
36.33,-0.31,-3.04,-0.31,-3.04,3.04,3.74,4.47,2.73,2.73,2.73
36.70,-0.38,-3.10,-0.38,-3.10,3.09,3.72,4.40,2.71,2.71,2.72
37.06,-0.45,-3.17,-0.44,-3.16,3.15,3.69,4.32,2.69,2.71,2.72
37.43,-0.48,-3.21,-0.48,-3.21,3.21,3.67,4.25,2.72,2.72,2.73
37.81,-0.51,-3.24,-0.53,-3.25,3.26,3.65,4.17,2.75,2.74,2.73
38.19,-0.57,-3.29,-0.58,-3.31,3.32,3.62,4.09,2.74,2.74,2.72
38.57,-0.64,-3.37,-0.64,-3.37,3.36,3.60,4.02,2.72,2.72,2.73
38.95,-0.71,-3.45,-0.70,-3.43,3.40,3.58,3.94,2.69,2.71,2.74
39.34,-0.72,-3.45,-0.72,-3.45,3.44,3.55,3.87,2.71,2.71,2.73
39.74,-0.72,-3.45,-0.73,-3.46,3.46,3.53,3.80,2.74,2.73,2.73
40.14,-0.73,-3.46,-0.74,-3.47,3.49,3.51,3.72,2.75,2.74,2.73
40.54,-0.76,-3.49,-0.77,-3.49,3.50,3.48,3.66,2.74,2.74,2.73
40.94,-0.80,-3.52,-0.79,-3.51,3.51,3.46,3.59,2.71,2.72,2.72
41.35,-0.80,-3.52,-0.80,-3.52,3.52,3.44,3.52,2.71,2.71,2.72
41.76,-0.80,-3.51,-0.81,-3.52,3.52,3.41,3.46,2.71,2.71,2.71
42.18,-0.80,-3.51,-0.80,-3.51,3.52,3.39,3.40,2.71,2.71,2.71
42.60,-0.80,-3.50,-0.80,-3.50,3.51,3.37,3.34,2.70,2.70,2.70
43.03,-0.80,-3.49,-0.81,-3.50,3.49,3.34,3.28,2.69,2.68,2.69
43.46,-0.80,-3.48,-0.81,-3.48,3.47,3.32,3.23,2.66,2.66,2.68
43.90,-0.80,-3.46,-0.79,-3.45,3.44,3.30,3.18,2.64,2.65,2.66
44.33,-0.77,-3.41,-0.77,-3.41,3.41,3.27,3.13,2.63,2.64,2.64
44.78,-0.72,-3.34,-0.74,-3.36,3.37,3.25,3.08,2.65,2.64,2.62
45.23,-0.70,-3.31,-0.71,-3.32,3.33,3.22,3.04,2.63,2.62,2.61
45.68,-0.69,-3.29,-0.69,-3.29,3.29,3.20,3.00,2.59,2.60,2.60
46.13,-0.67,-3.25,-0.67,-3.25,3.24,3.17,2.96,2.57,2.57,2.58
46.60,-0.63,-3.21,-0.64,-3.21,3.19,3.15,2.92,2.56,2.56,2.58
47.06,-0.59,-3.15,-0.59,-3.15,3.15,3.12,2.88,2.56,2.56,2.56
47.53,-0.55,-3.10,-0.55,-3.10,3.12,3.10,2.85,2.57,2.57,2.55
48.01,-0.50,-3.05,-0.52,-3.06,3.09,3.07,2.82,2.58,2.57,2.55
48.49,-0.50,-3.03,-0.50,-3.03,3.05,3.05,2.79,2.55,2.55,2.53
48.97,-0.50,-3.01,-0.50,-3.01,3.01,3.02,2.77,2.51,2.51,2.51
49.46,-0.50,-2.99,-0.51,-2.99,2.97,3.00,2.74,2.47,2.47,2.49
49.96,-0.50,-2.97,-0.49,-2.96,2.93,2.97,2.72,2.43,2.44,2.47
50.46,-0.45,-2.91,-0.46,-2.91,2.89,2.95,2.70,2.44,2.44,2.46
50.96,-0.40,-2.85,-0.40,-2.85,2.85,2.92,2.68,2.45,2.45,2.45
51.47,-0.35,-2.78,-0.35,-2.78,2.81,2.89,2.66,2.46,2.46,2.43
51.99,-0.30,-2.72,-0.32,-2.74,2.76,2.87,2.64,2.46,2.44,2.42
52.51,-0.30,-2.71,-0.30,-2.71,2.72,2.84,2.63,2.42,2.42,2.41
53.03,-0.30,-2.71,-0.28,-2.68,2.68,2.81,2.61,2.37,2.40,2.41
53.56,-0.24,-2.63,-0.25,-2.64,2.64,2.79,2.60,2.39,2.38,2.39
54.10,-0.20,-2.58,-0.22,-2.60,2.60,2.76,2.58,2.39,2.37,2.38
54.64,-0.20,-2.56,-0.19,-2.56,2.56,2.73,2.57,2.35,2.36,2.36
55.18,-0.18,-2.54,-0.17,-2.52,2.51,2.70,2.55,2.33,2.34,2.36
55.74,-0.13,-2.47,-0.14,-2.48,2.47,2.67,2.54,2.34,2.33,2.34
56.29,-0.09,-2.42,-0.10,-2.43,2.43,2.64,2.52,2.33,2.33,2.33
56.86,-0.06,-2.38,-0.06,-2.37,2.38,2.61,2.51,2.32,2.32,2.32
57.42,-0.03,-2.32,-0.03,-2.33,2.34,2.58,2.49,2.31,2.31,2.29
58.00,-0.00,-2.28,-0.01,-2.29,2.30,2.55,2.48,2.30,2.29,2.28
58.58,-0.00,-2.27,-0.00,-2.27,2.27,2.52,2.46,2.27,2.27,2.27
59.16,-0.00,-2.25,-0.00,-2.25,2.24,2.49,2.44,2.24,2.24,2.25
59.76,-0.00,-2.23,0.00,-2.22,2.22,2.46,2.42,2.21,2.22,2.23
60.35,-0.00,-2.19,-0.00,-2.19,2.20,2.43,2.39,2.20,2.20,2.19
60.96,-0.00,-2.15,-0.03,-2.18,2.19,2.40,2.37,2.19,2.16,2.15
61.57,-0.06,-2.17,-0.06,-2.17,2.18,2.36,2.34,2.11,2.12,2.11
62.18,-0.11,-2.18,-0.10,-2.16,2.17,2.33,2.32,2.05,2.07,2.07
62.80,-0.12,-2.14,-0.14,-2.16,2.15,2.30,2.28,2.03,2.01,2.02
63.43,-0.16,-2.14,-0.17,-2.14,2.13,2.26,2.25,1.97,1.96,1.98
64.07,-0.20,-2.13,-0.19,-2.12,2.11,2.23,2.22,1.91,1.92,1.93
64.71,-0.20,-2.09,-0.21,-2.10,2.08,2.19,2.18,1.88,1.88,1.89
65.35,-0.20,-2.05,-0.21,-2.05,2.05,2.16,2.14,1.84,1.84,1.85
66.01,-0.20,-2.00,-0.20,-2.00,2.01,2.12,2.10,1.80,1.80,1.80
66.67,-0.20,-1.95,-0.20,-1.95,1.96,2.08,2.06,1.76,1.76,1.75
67.33,-0.20,-1.90,-0.20,-1.91,1.91,2.05,2.01,1.71,1.71,1.70
68.01,-0.20,-1.86,-0.20,-1.86,1.87,2.01,1.97,1.66,1.66,1.66
68.69,-0.20,-1.81,-0.20,-1.81,1.81,1.97,1.92,1.61,1.61,1.61
69.37,-0.20,-1.76,-0.20,-1.76,1.76,1.93,1.87,1.56,1.56,1.56
70.07,-0.20,-1.71,-0.20,-1.71,1.71,1.89,1.82,1.51,1.51,1.51
70.77,-0.20,-1.66,-0.20,-1.66,1.66,1.85,1.77,1.45,1.45,1.46
71.48,-0.20,-1.61,-0.20,-1.61,1.60,1.81,1.72,1.39,1.39,1.41
72.19,-0.20,-1.54,-0.20,-1.55,1.54,1.77,1.66,1.34,1.34,1.34
72.91,-0.20,-1.48,-0.20,-1.49,1.48,1.73,1.61,1.28,1.28,1.28
73.64,-0.20,-1.43,-0.20,-1.43,1.43,1.68,1.55,1.23,1.23,1.23
74.38,-0.20,-1.37,-0.20,-1.37,1.38,1.64,1.50,1.18,1.18,1.17
75.12,-0.20,-1.31,-0.20,-1.31,1.34,1.60,1.44,1.13,1.13,1.11
75.87,-0.20,-1.25,-0.23,-1.28,1.29,1.55,1.39,1.09,1.07,1.05
76.63,-0.26,-1.26,-0.26,-1.25,1.26,1.51,1.33,0.99,1.00,1.00
77.40,-0.30,-1.25,-0.29,-1.23,1.22,1.46,1.28,0.91,0.93,0.95
78.17,-0.30,-1.19,-0.31,-1.20,1.18,1.41,1.22,0.88,0.87,0.89
78.95,-0.30,-1.15,-0.31,-1.15,1.14,1.37,1.16,0.84,0.83,0.85
79.74,-0.30,-1.10,-0.30,-1.10,1.10,1.32,1.11,0.80,0.80,0.80
80.54,-0.30,-1.05,-0.30,-1.05,1.06,1.27,1.05,0.75,0.75,0.75
81.35,-0.30,-1.00,-0.30,-1.00,1.01,1.22,1.00,0.71,0.71,0.70
82.16,-0.30,-0.95,-0.30,-0.96,0.96,1.18,0.94,0.66,0.66,0.65
82.98,-0.30,-0.91,-0.30,-0.91,0.91,1.13,0.89,0.61,0.61,0.61
83.81,-0.30,-0.86,-0.30,-0.86,0.86,1.08,0.83,0.56,0.56,0.56
84.65,-0.30,-0.81,-0.30,-0.82,0.82,1.03,0.78,0.51,0.51,0.51
85.50,-0.30,-0.77,-0.30,-0.77,0.77,0.98,0.73,0.47,0.47,0.47
86.35,-0.30,-0.72,-0.30,-0.72,0.72,0.93,0.67,0.42,0.42,0.42
87.22,-0.30,-0.67,-0.30,-0.67,0.67,0.88,0.62,0.37,0.37,0.37
88.09,-0.30,-0.62,-0.30,-0.62,0.62,0.82,0.57,0.31,0.31,0.32
88.97,-0.30,-0.56,-0.30,-0.57,0.56,0.77,0.52,0.26,0.26,0.26
89.86,-0.30,-0.51,-0.30,-0.51,0.51,0.72,0.47,0.21,0.21,0.21
90.76,-0.29,-0.45,-0.30,-0.45,0.46,0.67,0.42,0.16,0.16,0.16
91.66,-0.29,-0.40,-0.29,-0.40,0.40,0.62,0.37,0.11,0.11,0.11
92.58,-0.29,-0.34,-0.29,-0.35,0.35,0.57,0.32,0.06,0.06,0.05
93.51,-0.29,-0.29,-0.29,-0.30,0.30,0.51,0.27,0.00,0.00,-0.00
94.44,-0.29,-0.25,-0.29,-0.25,0.25,0.46,0.22,-0.04,-0.05,-0.04
95.39,-0.29,-0.20,-0.30,-0.20,0.20,0.41,0.17,-0.09,-0.09,-0.09
96.34,-0.30,-0.16,-0.30,-0.16,0.16,0.36,0.12,-0.15,-0.14,-0.14
97.30,-0.30,-0.11,-0.31,-0.12,0.12,0.31,0.07,-0.19,-0.19,-0.19
98.28,-0.31,-0.07,-0.32,-0.08,0.08,0.26,0.02,-0.24,-0.24,-0.24
99.26,-0.33,-0.05,-0.33,-0.04,0.04,0.20,-0.03,-0.29,-0.29,-0.28
100.25,-0.34,-0.01,-0.35,-0.01,0.01,0.15,-0.07,-0.33,-0.33,-0.33
101.25,-0.36,0.02,-0.36,0.02,-0.01,0.10,-0.12,-0.37,-0.37,-0.38
102.27,-0.38,0.05,-0.38,0.05,-0.03,0.05,-0.16,-0.41,-0.41,-0.43
103.29,-0.41,0.07,-0.42,0.06,-0.04,0.01,-0.21,-0.45,-0.46,-0.48
104.32,-0.46,0.06,-0.47,0.05,-0.05,-0.04,-0.25,-0.52,-0.52,-0.52
105.37,-0.53,0.04,-0.52,0.05,-0.07,-0.09,-0.30,-0.60,-0.59,-0.57
106.42,-0.56,0.06,-0.56,0.06,-0.08,-0.14,-0.34,-0.65,-0.64,-0.62
107.48,-0.58,0.10,-0.59,0.09,-0.10,-0.18,-0.39,-0.69,-0.69,-0.68
108.56,-0.60,0.13,-0.60,0.13,-0.13,-0.23,-0.43,-0.73,-0.73,-0.73
109.64,-0.62,0.16,-0.62,0.16,-0.16,-0.27,-0.47,-0.78,-0.78,-0.78
110.74,-0.64,0.20,-0.64,0.19,-0.19,-0.32,-0.51,-0.84,-0.84,-0.84
111.85,-0.66,0.22,-0.66,0.23,-0.23,-0.36,-0.55,-0.89,-0.89,-0.88
112.97,-0.67,0.27,-0.67,0.26,-0.26,-0.40,-0.59,-0.94,-0.94,-0.94
114.10,-0.68,0.31,-0.68,0.31,-0.30,-0.44,-0.63,-0.98,-0.97,-0.99
115.24,-0.68,0.36,-0.69,0.36,-0.33,-0.48,-0.66,-1.01,-1.01,-1.04
116.39,-0.69,0.40,-0.71,0.38,-0.36,-0.52,-0.70,-1.06,-1.07,-1.09
117.55,-0.73,0.40,-0.74,0.39,-0.40,-0.56,-0.73,-1.13,-1.14,-1.13
118.73,-0.77,0.40,-0.75,0.42,-0.45,-0.60,-0.76,-1.22,-1.20,-1.17
119.92,-0.76,0.44,-0.74,0.46,-0.50,-0.63,-0.79,-1.26,-1.24,-1.20
121.12,-0.67,0.57,-0.71,0.53,-0.56,-0.67,-0.82,-1.23,-1.27,-1.24
122.33,-0.66,0.61,-0.66,0.61,-0.62,-0.71,-0.85,-1.28,-1.28,-1.27
123.55,-0.64,0.66,-0.61,0.69,-0.68,-0.75,-0.88,-1.32,-1.29,-1.30
124.79,-0.56,0.77,-0.58,0.75,-0.74,-0.78,-0.90,-1.30,-1.31,-1.33
126.03,-0.52,0.84,-0.53,0.83,-0.79,-0.82,-0.93,-1.31,-1.32,-1.36
127.29,-0.52,0.86,-0.51,0.87,-0.83,-0.86,-0.95,-1.36,-1.35,-1.38
128.57,-0.51,0.91,-0.54,0.88,-0.87,-0.90,-0.97,-1.38,-1.40,-1.42
129.85,-0.57,0.88,-0.56,0.89,-0.89,-0.94,-0.99,-1.47,-1.46,-1.45
131.15,-0.60,0.88,-0.59,0.90,-0.92,-0.98,-1.01,-1.52,-1.50,-1.48
132.46,-0.59,0.92,-0.60,0.91,-0.94,-1.03,-1.03,-1.53,-1.54,-1.51
133.79,-0.59,0.95,-0.60,0.94,-0.96,-1.07,-1.04,-1.55,-1.55,-1.54
135.12,-0.59,0.98,-0.59,0.98,-0.98,-1.12,-1.06,-1.57,-1.57,-1.57
136.48,-0.58,1.01,-0.59,1.01,-1.00,-1.16,-1.07,-1.59,-1.59,-1.59
137.84,-0.58,1.05,-0.58,1.04,-1.04,-1.21,-1.09,-1.62,-1.62,-1.63
139.22,-0.58,1.08,-0.58,1.08,-1.07,-1.26,-1.10,-1.65,-1.65,-1.66
140.61,-0.58,1.11,-0.58,1.10,-1.10,-1.30,-1.11,-1.68,-1.68,-1.69
142.02,-0.58,1.13,-0.58,1.13,-1.13,-1.35,-1.13,-1.71,-1.71,-1.71
143.44,-0.58,1.16,-0.58,1.16,-1.16,-1.39,-1.14,-1.74,-1.74,-1.74
144.87,-0.58,1.20,-0.58,1.19,-1.20,-1.44,-1.15,-1.78,-1.78,-1.78
146.32,-0.58,1.24,-0.58,1.23,-1.24,-1.48,-1.16,-1.82,-1.82,-1.82
147.78,-0.58,1.27,-0.58,1.27,-1.28,-1.52,-1.17,-1.87,-1.87,-1.85
149.26,-0.58,1.32,-0.58,1.32,-1.33,-1.57,-1.19,-1.92,-1.92,-1.90
150.75,-0.58,1.38,-0.58,1.38,-1.39,-1.61,-1.20,-1.97,-1.97,-1.96
152.26,-0.58,1.45,-0.58,1.44,-1.45,-1.64,-1.21,-2.03,-2.03,-2.03
153.78,-0.58,1.52,-0.58,1.52,-1.51,-1.68,-1.23,-2.09,-2.09,-2.10
155.32,-0.58,1.59,-0.58,1.59,-1.57,-1.72,-1.24,-2.15,-2.15,-2.17
156.88,-0.58,1.67,-0.61,1.64,-1.63,-1.75,-1.25,-2.21,-2.24,-2.25
158.44,-0.65,1.68,-0.64,1.69,-1.69,-1.78,-1.27,-2.34,-2.33,-2.33
160.03,-0.68,1.73,-0.67,1.74,-1.75,-1.81,-1.29,-2.43,-2.42,-2.41
161.63,-0.68,1.80,-0.69,1.79,-1.80,-1.84,-1.30,-2.49,-2.49,-2.48
163.24,-0.68,1.86,-0.69,1.85,-1.86,-1.87,-1.32,-2.54,-2.55,-2.54
164.88,-0.68,1.91,-0.69,1.90,-1.92,-1.90,-1.34,-2.60,-2.60,-2.59
166.53,-0.69,1.95,-0.67,1.97,-1.97,-1.92,-1.36,-2.67,-2.64,-2.64
168.19,-0.64,2.04,-0.65,2.03,-2.03,-1.95,-1.38,-2.68,-2.68,-2.68
169.87,-0.60,2.12,-0.63,2.09,-2.09,-1.97,-1.41,-2.69,-2.72,-2.72
171.57,-0.61,2.13,-0.60,2.14,-2.13,-1.99,-1.43,-2.75,-2.73,-2.74
173.29,-0.59,2.16,-0.57,2.18,-2.17,-2.01,-1.45,-2.76,-2.74,-2.75
175.02,-0.52,2.24,-0.55,2.22,-2.20,-2.03,-1.48,-2.72,-2.74,-2.76
176.77,-0.52,2.25,-0.53,2.24,-2.22,-2.04,-1.51,-2.74,-2.75,-2.77
178.54,-0.52,2.26,-0.53,2.24,-2.23,-2.06,-1.54,-2.76,-2.77,-2.78
180.32,-0.56,2.21,-0.54,2.23,-2.24,-2.07,-1.56,-2.81,-2.79,-2.77
182.13,-0.54,2.22,-0.54,2.23,-2.26,-2.08,-1.60,-2.80,-2.79,-2.76
183.95,-0.50,2.27,-0.52,2.25,-2.27,-2.10,-1.63,-2.77,-2.79,-2.77
185.79,-0.49,2.28,-0.49,2.28,-2.29,-2.11,-1.66,-2.78,-2.78,-2.77
187.65,-0.48,2.31,-0.48,2.31,-2.31,-2.12,-1.69,-2.79,-2.79,-2.79
189.52,-0.46,2.34,-0.47,2.34,-2.34,-2.13,-1.73,-2.80,-2.80,-2.80
191.42,-0.45,2.37,-0.45,2.37,-2.37,-2.13,-1.77,-2.82,-2.82,-2.82
193.33,-0.43,2.41,-0.44,2.40,-2.40,-2.14,-1.80,-2.84,-2.84,-2.84
195.27,-0.42,2.44,-0.42,2.44,-2.44,-2.15,-1.84,-2.86,-2.86,-2.86
197.22,-0.40,2.48,-0.41,2.47,-2.47,-2.15,-1.88,-2.87,-2.88,-2.88
199.19,-0.39,2.51,-0.40,2.50,-2.50,-2.16,-1.92,-2.89,-2.90,-2.90
201.18,-0.39,2.53,-0.39,2.53,-2.53,-2.16,-1.96,-2.92,-2.92,-2.92
203.19,-0.38,2.56,-0.39,2.55,-2.55,-2.16,-2.00,-2.94,-2.94,-2.94
205.23,-0.38,2.58,-0.38,2.57,-2.58,-2.16,-2.04,-2.96,-2.96,-2.96
207.28,-0.38,2.59,-0.38,2.59,-2.59,-2.17,-2.08,-2.98,-2.98,-2.97
209.35,-0.38,2.61,-0.38,2.61,-2.61,-2.17,-2.13,-2.99,-2.99,-2.99
211.44,-0.38,2.64,-0.39,2.63,-2.63,-2.17,-2.17,-3.01,-3.01,-3.02
213.56,-0.39,2.64,-0.39,2.64,-2.64,-2.17,-2.21,-3.04,-3.03,-3.03
215.69,-0.39,2.65,-0.39,2.65,-2.66,-2.16,-2.25,-3.05,-3.05,-3.04
217.85,-0.39,2.66,-0.40,2.66,-2.67,-2.16,-2.29,-3.06,-3.06,-3.05
220.03,-0.40,2.66,-0.40,2.67,-2.67,-2.16,-2.32,-3.07,-3.07,-3.06
222.23,-0.40,2.69,-0.40,2.68,-2.66,-2.16,-2.36,-3.07,-3.06,-3.09
224.45,-0.40,2.68,-0.40,2.68,-2.65,-2.15,-2.40,-3.06,-3.06,-3.08
226.70,-0.40,2.68,-0.42,2.66,-2.64,-2.15,-2.43,-3.05,-3.06,-3.08
228.96,-0.44,2.63,-0.44,2.63,-2.63,-2.14,-2.46,-3.07,-3.07,-3.07
231.25,-0.48,2.58,-0.47,2.59,-2.61,-2.14,-2.49,-3.10,-3.08,-3.06
233.57,-0.48,2.57,-0.48,2.57,-2.60,-2.13,-2.51,-3.08,-3.08,-3.05
235.90,-0.47,2.57,-0.47,2.57,-2.59,-2.13,-2.54,-3.06,-3.06,-3.04
238.26,-0.45,2.58,-0.46,2.57,-2.57,-2.12,-2.56,-3.02,-3.03,-3.03
240.64,-0.43,2.57,-0.44,2.56,-2.55,-2.11,-2.58,-2.99,-2.99,-3.00
243.05,-0.42,2.55,-0.41,2.56,-2.54,-2.11,-2.59,-2.96,-2.95,-2.97
245.48,-0.40,2.55,-0.41,2.54,-2.52,-2.10,-2.60,-2.92,-2.93,-2.95
247.93,-0.38,2.54,-0.41,2.51,-2.50,-2.09,-2.61,-2.89,-2.91,-2.92
250.41,-0.44,2.46,-0.42,2.47,-2.48,-2.08,-2.61,-2.93,-2.91,-2.90
252.92,-0.44,2.43,-0.44,2.44,-2.46,-2.08,-2.61,-2.90,-2.89,-2.87
255.45,-0.43,2.42,-0.44,2.41,-2.43,-2.07,-2.61,-2.87,-2.87,-2.85
258.00,-0.42,2.41,-0.42,2.41,-2.41,-2.06,-2.60,-2.83,-2.83,-2.83
260.58,-0.41,2.40,-0.42,2.39,-2.38,-2.05,-2.59,-2.80,-2.80,-2.81
263.19,-0.41,2.37,-0.41,2.37,-2.36,-2.04,-2.58,-2.77,-2.77,-2.78
265.82,-0.41,2.35,-0.42,2.34,-2.34,-2.03,-2.56,-2.75,-2.75,-2.76
268.48,-0.42,2.32,-0.42,2.32,-2.32,-2.02,-2.54,-2.74,-2.74,-2.74
271.16,-0.42,2.29,-0.42,2.29,-2.29,-2.01,-2.52,-2.71,-2.71,-2.71
273.87,-0.42,2.27,-0.42,2.26,-2.26,-2.00,-2.50,-2.69,-2.69,-2.69
276.61,-0.42,2.24,-0.42,2.24,-2.24,-1.99,-2.47,-2.66,-2.66,-2.66
279.38,-0.42,2.21,-0.42,2.21,-2.21,-1.98,-2.44,-2.64,-2.64,-2.63
282.17,-0.42,2.19,-0.42,2.18,-2.19,-1.97,-2.41,-2.61,-2.61,-2.61
284.99,-0.42,2.15,-0.42,2.16,-2.17,-1.96,-2.38,-2.59,-2.59,-2.57
287.84,-0.41,2.14,-0.41,2.14,-2.14,-1.95,-2.35,-2.55,-2.55,-2.55
290.72,-0.40,2.12,-0.39,2.12,-2.11,-1.94,-2.32,-2.51,-2.51,-2.52
293.63,-0.38,2.11,-0.39,2.10,-2.08,-1.93,-2.28,-2.47,-2.47,-2.49
296.57,-0.37,2.09,-0.40,2.06,-2.05,-1.92,-2.25,-2.43,-2.45,-2.46
299.53,-0.43,2.00,-0.42,2.01,-2.02,-1.90,-2.21,-2.45,-2.44,-2.43
302.53,-0.45,1.96,-0.44,1.97,-1.98,-1.89,-2.18,-2.44,-2.42,-2.41
305.55,-0.44,1.93,-0.44,1.93,-1.94,-1.88,-2.14,-2.39,-2.39,-2.37
308.61,-0.43,1.92,-0.44,1.91,-1.90,-1.87,-2.11,-2.33,-2.34,-2.35
311.69,-0.43,1.89,-0.45,1.87,-1.85,-1.86,-2.07,-2.29,-2.31,-2.32
314.81,-0.49,1.81,-0.48,1.83,-1.81,-1.85,-2.04,-2.30,-2.28,-2.30
317.96,-0.52,1.76,-0.52,1.77,-1.76,-1.84,-2.00,-2.29,-2.28,-2.28
321.14,-0.53,1.74,-0.56,1.71,-1.72,-1.83,-1.97,-2.26,-2.28,-2.27
324.35,-0.60,1.65,-0.59,1.66,-1.69,-1.82,-1.94,-2.29,-2.27,-2.25
327.59,-0.62,1.62,-0.61,1.63,-1.64,-1.81,-1.91,-2.27,-2.26,-2.24
330.87,-0.62,1.61,-0.63,1.60,-1.60,-1.80,-1.88,-2.23,-2.23,-2.23
334.18,-0.62,1.59,-0.62,1.59,-1.57,-1.78,-1.85,-2.19,-2.19,-2.21
337.52,-0.62,1.58,-0.63,1.57,-1.54,-1.77,-1.82,-2.16,-2.17,-2.20
340.90,-0.65,1.54,-0.66,1.53,-1.51,-1.76,-1.80,-2.17,-2.18,-2.19
344.30,-0.71,1.47,-0.70,1.48,-1.49,-1.75,-1.77,-2.21,-2.19,-2.18
347.75,-0.73,1.45,-0.73,1.45,-1.47,-1.74,-1.75,-2.21,-2.20,-2.18
351.23,-0.73,1.44,-0.74,1.44,-1.46,-1.73,-1.73,-2.19,-2.20,-2.17
354.74,-0.72,1.46,-0.73,1.45,-1.45,-1.72,-1.71,-2.17,-2.18,-2.18
358.28,-0.72,1.45,-0.72,1.45,-1.44,-1.71,-1.69,-2.16,-2.16,-2.17
361.87,-0.71,1.46,-0.72,1.45,-1.44,-1.70,-1.67,-2.15,-2.16,-2.17
365.49,-0.71,1.45,-0.71,1.45,-1.45,-1.69,-1.65,-2.16,-2.16,-2.16
369.14,-0.70,1.47,-0.70,1.47,-1.46,-1.68,-1.64,-2.17,-2.17,-2.17
372.83,-0.69,1.48,-0.70,1.47,-1.48,-1.67,-1.62,-2.18,-2.18,-2.17
376.56,-0.68,1.50,-0.69,1.49,-1.51,-1.66,-1.61,-2.19,-2.20,-2.18
380.33,-0.68,1.49,-0.67,1.51,-1.53,-1.65,-1.60,-2.22,-2.20,-2.17
384.13,-0.63,1.54,-0.63,1.55,-1.56,-1.64,-1.59,-2.19,-2.19,-2.17
387.97,-0.58,1.60,-0.59,1.59,-1.58,-1.63,-1.58,-2.16,-2.17,-2.18
391.85,-0.56,1.63,-0.56,1.62,-1.59,-1.63,-1.57,-2.15,-2.15,-2.19
395.77,-0.56,1.62,-0.57,1.62,-1.59,-1.62,-1.56,-2.15,-2.15,-2.18
399.73,-0.59,1.60,-0.60,1.59,-1.57,-1.61,-1.55,-2.17,-2.17,-2.19
403.72,-0.64,1.55,-0.64,1.56,-1.54,-1.60,-1.55,-2.19,-2.19,-2.19
407.76,-0.70,1.51,-0.70,1.50,-1.50,-1.59,-1.55,-2.20,-2.20,-2.21
411.84,-0.76,1.45,-0.77,1.44,-1.44,-1.58,-1.54,-2.21,-2.21,-2.21
415.96,-0.84,1.37,-0.83,1.38,-1.37,-1.57,-1.54,-2.22,-2.21,-2.21
420.12,-0.89,1.32,-0.90,1.31,-1.30,-1.57,-1.54,-2.20,-2.21,-2.21
424.32,-0.96,1.25,-0.97,1.24,-1.24,-1.56,-1.54,-2.20,-2.20,-2.21
428.56,-1.02,1.18,-1.02,1.19,-1.19,-1.55,-1.53,-2.21,-2.20,-2.20
432.85,-1.05,1.14,-1.06,1.13,-1.15,-1.54,-1.53,-2.20,-2.21,-2.19
437.18,-1.07,1.11,-1.08,1.10,-1.13,-1.54,-1.53,-2.21,-2.21,-2.18
441.55,-1.07,1.07,-1.05,1.10,-1.14,-1.53,-1.53,-2.21,-2.19,-2.14
445.96,-0.97,1.14,-0.98,1.13,-1.16,-1.52,-1.53,-2.13,-2.14,-2.11
450.42,-0.88,1.20,-0.88,1.19,-1.19,-1.52,-1.53,-2.08,-2.08,-2.08
454.93,-0.76,1.27,-0.77,1.27,-1.24,-1.51,-1.53,-2.01,-2.01,-2.03
459.48,-0.66,1.33,-0.66,1.32,-1.30,-1.50,-1.53,-1.97,-1.97,-1.99
464.07,-0.55,1.39,-0.56,1.38,-1.37,-1.50,-1.53,-1.92,-1.92,-1.94
