frequency,raw,error,smoothed,error_smoothed,equalization,parametric_eq,fixed_band_eq,equalized_raw,equalized_smoothed,target
20.00,-4.90,-6.25,-4.88,-6.26,6.26,5.35,2.82,1.36,1.37,1.35
20.20,-4.87,-6.27,-4.86,-6.27,6.27,5.41,2.90,1.40,1.41,1.40
20.40,-4.84,-6.29,-4.83,-6.28,6.28,5.46,2.98,1.44,1.45,1.45
20.61,-4.81,-6.29,-4.81,-6.29,6.29,5.52,3.07,1.48,1.48,1.48
20.81,-4.79,-6.32,-4.79,-6.30,6.30,5.58,3.16,1.51,1.51,1.53
21.02,-4.76,-6.33,-4.77,-6.31,6.31,5.63,3.25,1.55,1.54,1.57
21.23,-4.74,-6.33,-4.75,-6.32,6.32,5.69,3.34,1.58,1.57,1.59
21.44,-4.72,-6.33,-4.73,-6.32,6.32,5.74,3.44,1.60,1.59,1.61
21.66,-4.69,-6.32,-4.72,-6.33,6.33,5.79,3.54,1.64,1.61,1.63
21.87,-4.67,-6.31,-4.70,-6.33,6.33,5.84,3.64,1.66,1.63,1.64
22.09,-4.66,-6.32,-4.69,-6.33,6.33,5.90,3.74,1.67,1.64,1.66
22.31,-4.66,-6.33,-4.68,-6.33,6.33,5.94,3.85,1.67,1.66,1.67
22.54,-4.66,-6.33,-4.67,-6.33,6.33,5.99,3.96,1.67,1.66,1.67
22.76,-4.66,-6.33,-4.66,-6.33,6.33,6.04,4.07,1.67,1.67,1.67
22.99,-4.66,-6.32,-4.66,-6.32,6.32,6.09,4.19,1.66,1.67,1.66
23.22,-4.66,-6.32,-4.65,-6.32,6.32,6.13,4.31,1.66,1.67,1.66
23.45,-4.66,-6.32,-4.64,-6.31,6.31,6.17,4.43,1.65,1.67,1.66
23.69,-4.66,-6.33,-4.64,-6.31,6.31,6.22,4.55,1.65,1.67,1.67
23.92,-4.66,-6.33,-4.63,-6.30,6.30,6.26,4.68,1.64,1.67,1.67
24.16,-4.64,-6.31,-4.63,-6.30,6.30,6.29,4.80,1.66,1.67,1.67
24.40,-4.62,-6.30,-4.62,-6.29,6.29,6.33,4.93,1.67,1.67,1.68
24.65,-4.59,-6.26,-4.61,-6.28,6.28,6.36,5.07,1.69,1.67,1.67
24.89,-4.57,-6.24,-4.59,-6.26,6.26,6.40,5.20,1.69,1.67,1.67
25.14,-4.56,-6.23,-4.58,-6.25,6.25,6.43,5.34,1.69,1.67,1.67
25.39,-4.56,-6.24,-4.56,-6.24,6.24,6.46,5.47,1.67,1.67,1.68
25.65,-4.56,-6.24,-4.55,-6.22,6.22,6.48,5.61,1.66,1.67,1.68
25.91,-4.56,-6.23,-4.53,-6.20,6.20,6.51,5.75,1.64,1.67,1.67
26.16,-4.54,-6.21,-4.52,-6.19,6.19,6.53,5.89,1.65,1.67,1.67
26.43,-4.52,-6.19,-4.51,-6.17,6.17,6.55,6.02,1.65,1.67,1.67
26.69,-4.49,-6.16,-4.50,-6.16,6.16,6.57,6.16,1.67,1.67,1.67
26.96,-4.46,-6.13,-4.49,-6.15,6.15,6.58,6.29,1.69,1.66,1.67
27.23,-4.46,-6.13,-4.48,-6.14,6.14,6.60,6.42,1.68,1.66,1.67
27.50,-4.46,-6.13,-4.47,-6.14,6.14,6.61,6.55,1.67,1.66,1.67
27.77,-4.46,-6.12,-4.47,-6.13,6.13,6.61,6.68,1.67,1.66,1.66
28.05,-4.46,-6.12,-4.46,-6.12,6.12,6.62,6.79,1.66,1.66,1.66
28.33,-4.46,-6.11,-4.46,-6.12,6.12,6.62,6.91,1.65,1.66,1.65
28.62,-4.46,-6.11,-4.46,-6.11,6.11,6.62,7.01,1.65,1.65,1.65
28.90,-4.46,-6.12,-4.46,-6.11,6.11,6.62,7.11,1.65,1.65,1.66
29.19,-4.46,-6.11,-4.46,-6.12,6.12,6.62,7.20,1.65,1.65,1.65
29.48,-4.46,-6.12,-4.47,-6.12,6.12,6.61,7.28,1.66,1.65,1.66
29.78,-4.46,-6.11,-4.47,-6.12,6.12,6.60,7.36,1.66,1.65,1.65
30.08,-4.46,-6.12,-4.47,-6.11,6.11,6.59,7.42,1.65,1.65,1.66
30.38,-4.46,-6.11,-4.46,-6.10,6.10,6.58,7.47,1.64,1.65,1.65
30.68,-4.46,-6.11,-4.45,-6.09,6.09,6.56,7.51,1.63,1.64,1.65
30.99,-4.46,-6.11,-4.44,-6.08,6.08,6.54,7.53,1.62,1.64,1.65
31.30,-4.45,-6.09,-4.43,-6.07,6.07,6.52,7.55,1.62,1.64,1.64
31.61,-4.44,-6.08,-4.41,-6.05,6.05,6.50,7.55,1.61,1.64,1.64
31.93,-4.43,-6.07,-4.39,-6.03,6.03,6.48,7.54,1.60,1.63,1.64
32.24,-4.39,-6.02,-4.37,-6.00,6.00,6.45,7.51,1.61,1.63,1.63
32.57,-4.33,-5.96,-4.35,-5.97,5.97,6.42,7.48,1.64,1.63,1.63
32.89,-4.28,-5.91,-4.33,-5.95,5.95,6.39,7.44,1.67,1.62,1.63
33.22,-4.27,-5.89,-4.30,-5.92,5.92,6.36,7.38,1.65,1.62,1.62
33.55,-4.28,-5.90,-4.29,-5.90,5.90,6.32,7.32,1.62,1.61,1.62
33.89,-4.30,-5.91,-4.27,-5.88,5.88,6.28,7.25,1.58,1.61,1.61
34.23,-4.27,-5.88,-4.26,-5.86,5.86,6.24,7.17,1.59,1.60,1.61
34.57,-4.22,-5.82,-4.25,-5.85,5.85,6.20,7.08,1.63,1.60,1.60
34.92,-4.17,-5.77,-4.25,-5.84,5.84,6.16,6.99,1.67,1.59,1.60
35.27,-4.19,-5.78,-4.25,-5.84,5.84,6.12,6.89,1.65,1.59,1.59
35.62,-4.22,-5.81,-4.24,-5.83,5.83,6.07,6.79,1.61,1.59,1.59
35.97,-4.26,-5.85,-4.24,-5.82,5.82,6.03,6.69,1.56,1.59,1.59
36.33,-4.26,-5.85,-4.24,-5.82,5.82,5.98,6.58,1.56,1.58,1.59
36.70,-4.26,-5.84,-4.23,-5.82,5.82,5.93,6.47,1.56,1.58,1.58
37.06,-4.26,-5.84,-4.22,-5.80,5.80,5.88,6.36,1.54,1.58,1.58
37.43,-4.23,-5.82,-4.20,-5.78,5.78,5.83,6.25,1.55,1.58,1.59
37.81,-4.20,-5.79,-4.17,-5.75,5.75,5.77,6.14,1.55,1.58,1.59
38.19,-4.16,-5.74,-4.14,-5.72,5.72,5.72,6.04,1.56,1.58,1.58
38.57,-4.09,-5.68,-4.10,-5.69,5.69,5.66,5.93,1.60,1.59,1.59
38.95,-4.03,-5.63,-4.05,-5.64,5.64,5.61,5.82,1.61,1.59,1.60
39.34,-4.00,-5.59,-3.99,-5.57,5.57,5.55,5.72,1.57,1.59,1.59
39.74,-3.98,-5.57,-3.92,-5.50,5.50,5.49,5.61,1.52,1.59,1.59
40.14,-3.92,-5.51,-3.85,-5.43,5.43,5.44,5.51,1.51,1.59,1.59
40.54,-3.79,-5.38,-3.78,-5.36,5.36,5.38,5.42,1.57,1.58,1.59
40.94,-3.66,-5.24,-3.71,-5.29,5.29,5.32,5.32,1.63,1.58,1.58
41.35,-3.62,-5.20,-3.65,-5.23,5.23,5.26,5.23,1.61,1.57,1.58
41.76,-3.59,-5.16,-3.60,-5.17,5.17,5.20,5.14,1.58,1.57,1.57
42.18,-3.53,-5.10,-3.55,-5.11,5.11,5.14,5.06,1.58,1.56,1.57
42.60,-3.45,-5.01,-3.51,-5.06,5.06,5.08,4.98,1.61,1.55,1.56
43.03,-3.38,-4.93,-3.48,-5.02,5.02,5.02,4.90,1.64,1.54,1.55
43.46,-3.41,-4.95,-3.45,-4.98,4.98,4.95,4.82,1.57,1.53,1.54
43.90,-3.44,-4.96,-3.43,-4.95,4.95,4.89,4.75,1.51,1.51,1.52
44.33,-3.45,-4.95,-3.42,-4.92,4.92,4.83,4.69,1.47,1.50,1.50
44.78,-3.45,-4.93,-3.41,-4.90,4.90,4.77,4.62,1.45,1.49,1.48
45.23,-3.45,-4.92,-3.42,-4.90,4.90,4.71,4.56,1.44,1.48,1.47
45.68,-3.45,-4.91,-3.43,-4.90,4.90,4.64,4.51,1.45,1.46,1.46
46.13,-3.45,-4.89,-3.44,-4.89,4.89,4.58,4.45,1.44,1.45,1.44
46.60,-3.45,-4.89,-3.45,-4.88,4.88,4.52,4.40,1.43,1.43,1.44
47.06,-3.45,-4.87,-3.46,-4.88,4.88,4.46,4.35,1.43,1.42,1.42
47.53,-3.45,-4.86,-3.46,-4.87,4.87,4.40,4.31,1.42,1.40,1.41
48.01,-3.45,-4.86,-3.47,-4.86,4.86,4.34,4.27,1.41,1.39,1.41
48.49,-3.45,-4.84,-3.47,-4.85,4.85,4.27,4.23,1.40,1.38,1.39
48.97,-3.45,-4.82,-3.47,-4.83,4.83,4.21,4.20,1.38,1.36,1.37
49.46,-3.51,-4.86,-3.47,-4.82,4.82,4.15,4.17,1.31,1.35,1.35
49.96,-3.56,-4.89,-3.47,-4.80,4.80,4.09,4.14,1.24,1.34,1.33
50.46,-3.47,-4.79,-3.46,-4.78,4.78,4.03,4.11,1.31,1.32,1.32
50.96,-3.36,-4.67,-3.44,-4.74,4.74,3.97,4.08,1.38,1.31,1.31
51.47,-3.37,-4.66,-3.42,-4.71,4.71,3.91,4.06,1.34,1.30,1.29
51.99,-3.40,-4.68,-3.40,-4.68,4.68,3.85,4.04,1.28,1.28,1.28
52.51,-3.42,-4.69,-3.38,-4.65,4.65,3.79,4.02,1.23,1.27,1.27
53.03,-3.42,-4.69,-3.35,-4.61,4.61,3.73,4.00,1.19,1.26,1.27
53.56,-3.33,-4.58,-3.32,-4.56,4.56,3.67,3.98,1.23,1.24,1.25
54.10,-3.24,-4.48,-3.28,-4.51,4.51,3.62,3.96,1.27,1.23,1.24
54.64,-3.19,-4.41,-3.23,-4.45,4.45,3.56,3.94,1.26,1.22,1.22
55.18,-3.13,-4.35,-3.18,-4.39,4.39,3.50,3.93,1.26,1.21,1.22
55.74,-3.08,-4.28,-3.12,-4.32,4.32,3.44,3.91,1.24,1.20,1.20
56.29,-3.07,-4.26,-3.07,-4.26,4.26,3.39,3.89,1.18,1.19,1.19
56.86,-3.12,-4.30,-3.00,-4.18,4.18,3.33,3.87,1.06,1.18,1.18
57.42,-3.03,-4.18,-2.92,-4.08,4.08,3.28,3.86,1.05,1.16,1.15
58.00,-2.90,-4.04,-2.84,-3.98,3.98,3.22,3.83,1.08,1.14,1.14
58.58,-2.74,-3.87,-2.77,-3.88,3.88,3.17,3.81,1.14,1.12,1.13
59.16,-2.63,-3.74,-2.70,-3.79,3.79,3.11,3.79,1.16,1.09,1.11
59.76,-2.61,-3.70,-2.63,-3.69,3.69,3.06,3.76,1.08,1.06,1.09
60.35,-2.55,-3.60,-2.56,-3.59,3.59,3.01,3.73,1.04,1.03,1.05
60.96,-2.46,-3.47,-2.49,-3.49,3.49,2.95,3.70,1.03,1.00,1.01
61.57,-2.39,-3.36,-2.42,-3.39,3.39,2.90,3.67,1.00,0.96,0.97
62.18,-2.33,-3.26,-2.36,-3.29,3.29,2.85,3.64,0.96,0.93,0.93
62.80,-2.27,-3.15,-2.30,-3.19,3.19,2.80,3.60,0.92,0.89,0.88
63.43,-2.25,-3.09,-2.25,-3.10,3.10,2.75,3.56,0.85,0.84,0.84
64.07,-2.25,-3.04,-2.22,-3.02,3.02,2.70,3.51,0.77,0.80,0.79
64.71,-2.25,-3.00,-2.20,-2.95,2.95,2.65,3.47,0.70,0.75,0.75
65.35,-2.19,-2.90,-2.17,-2.88,2.88,2.60,3.42,0.69,0.71,0.71
66.01,-2.09,-2.75,-2.15,-2.81,2.81,2.55,3.37,0.72,0.66,0.66
66.67,-2.12,-2.73,-2.14,-2.75,2.75,2.50,3.31,0.63,0.61,0.61
67.33,-2.14,-2.70,-2.14,-2.70,2.70,2.45,3.26,0.56,0.56,0.56
68.01,-2.15,-2.67,-2.15,-2.66,2.66,2.41,3.20,0.51,0.51,0.52
68.69,-2.15,-2.62,-2.15,-2.61,2.61,2.36,3.14,0.46,0.46,0.47
69.37,-2.15,-2.57,-2.15,-2.56,2.56,2.31,3.08,0.41,0.41,0.42
70.07,-2.15,-2.52,-2.15,-2.51,2.51,2.27,3.01,0.36,0.36,0.37
70.77,-2.15,-2.47,-2.15,-2.46,2.46,2.22,2.95,0.31,0.31,0.32
71.48,-2.15,-2.42,-2.17,-2.42,2.42,2.18,2.89,0.27,0.25,0.27
72.19,-2.18,-2.38,-2.19,-2.38,2.38,2.13,2.82,0.20,0.20,0.20
72.91,-2.31,-2.45,-2.21,-2.35,2.35,2.09,2.75,0.04,0.14,0.14
73.64,-2.28,-2.37,-2.24,-2.33,2.33,2.05,2.69,0.05,0.08,0.09
74.38,-2.25,-2.28,-2.26,-2.29,2.29,2.00,2.62,0.04,0.03,0.03
75.12,-2.24,-2.21,-2.29,-2.26,2.26,1.96,2.55,0.02,-0.03,-0.03
75.87,-2.18,-2.09,-2.31,-2.23,2.23,1.92,2.49,0.05,-0.08,-0.09
76.63,-2.26,-2.12,-2.34,-2.20,2.20,1.88,2.42,-0.06,-0.14,-0.14
77.40,-2.37,-2.18,-2.36,-2.17,2.17,1.84,2.35,-0.20,-0.19,-0.19
78.17,-2.46,-2.21,-2.37,-2.13,2.13,1.79,2.29,-0.33,-0.24,-0.25
78.95,-2.51,-2.22,-2.39,-2.10,2.10,1.75,2.22,-0.41,-0.30,-0.29
79.74,-2.47,-2.13,-2.41,-2.07,2.07,1.71,2.16,-0.40,-0.35,-0.34
80.54,-2.45,-2.06,-2.44,-2.04,2.04,1.67,2.09,-0.41,-0.39,-0.39
81.35,-2.45,-2.01,-2.45,-2.01,2.01,1.64,2.03,-0.44,-0.44,-0.44
82.16,-2.45,-1.96,-2.46,-1.98,1.98,1.60,1.97,-0.48,-0.49,-0.49
82.98,-2.45,-1.92,-2.48,-1.94,1.94,1.56,1.91,-0.51,-0.54,-0.53
83.81,-2.45,-1.87,-2.49,-1.91,1.91,1.52,1.85,-0.54,-0.58,-0.58
84.65,-2.45,-1.82,-2.50,-1.87,1.87,1.48,1.79,-0.58,-0.63,-0.63
85.50,-2.45,-1.78,-2.50,-1.82,1.82,1.45,1.74,-0.63,-0.68,-0.67
86.35,-2.52,-1.80,-2.51,-1.78,1.78,1.41,1.68,-0.74,-0.73,-0.72
87.22,-2.63,-1.86,-2.52,-1.74,1.74,1.37,1.62,-0.89,-0.78,-0.77
88.09,-2.59,-1.77,-2.54,-1.71,1.71,1.34,1.57,-0.88,-0.83,-0.82
88.97,-2.53,-1.65,-2.56,-1.68,1.68,1.30,1.52,-0.85,-0.88,-0.88
89.86,-2.45,-1.52,-2.58,-1.65,1.65,1.27,1.47,-0.80,-0.93,-0.93
90.76,-2.56,-1.58,-2.59,-1.61,1.61,1.23,1.42,-0.95,-0.98,-0.98
91.66,-2.63,-1.60,-2.60,-1.57,1.57,1.20,1.37,-1.06,-1.03,-1.03
92.58,-2.64,-1.55,-2.61,-1.53,1.53,1.16,1.32,-1.11,-1.08,-1.09
93.51,-2.64,-1.50,-2.62,-1.48,1.48,1.13,1.27,-1.16,-1.13,-1.14
94.44,-2.68,-1.50,-2.62,-1.43,1.43,1.10,1.23,-1.25,-1.19,-1.18
95.39,-2.72,-1.49,-2.62,-1.38,1.38,1.06,1.18,-1.34,-1.24,-1.23
96.34,-2.67,-1.39,-2.61,-1.33,1.33,1.03,1.14,-1.34,-1.28,-1.28
97.30,-2.55,-1.22,-2.61,-1.28,1.28,1.00,1.10,-1.27,-1.33,-1.33
98.28,-2.56,-1.18,-2.62,-1.24,1.24,0.96,1.05,-1.32,-1.38,-1.38
99.26,-2.58,-1.16,-2.63,-1.20,1.20,0.93,1.01,-1.38,-1.43,-1.42
100.25,-2.59,-1.12,-2.63,-1.16,1.16,0.90,0.97,-1.43,-1.48,-1.47
101.25,-2.61,-1.09,-2.63,-1.11,1.11,0.87,0.93,-1.50,-1.52,-1.52
102.27,-2.62,-1.05,-2.63,-1.06,1.06,0.84,0.90,-1.56,-1.57,-1.57
103.29,-2.64,-1.02,-2.64,-1.02,1.02,0.81,0.86,-1.62,-1.62,-1.62
104.32,-2.66,-1.00,-2.65,-0.98,0.98,0.77,0.82,-1.68,-1.67,-1.66
105.37,-2.68,-0.97,-2.67,-0.95,0.95,0.74,0.78,-1.74,-1.72,-1.71
106.42,-2.70,-0.94,-2.69,-0.92,0.92,0.71,0.75,-1.78,-1.77,-1.76
107.48,-2.73,-0.91,-2.72,-0.90,0.90,0.68,0.71,-1.83,-1.82,-1.82
108.56,-2.75,-0.88,-2.75,-0.88,0.88,0.65,0.68,-1.87,-1.88,-1.87
109.64,-2.77,-0.85,-2.78,-0.85,0.85,0.62,0.65,-1.92,-1.93,-1.92
110.74,-2.79,-0.81,-2.80,-0.82,0.82,0.59,0.61,-1.97,-1.98,-1.98
111.85,-2.81,-0.79,-2.83,-0.79,0.79,0.56,0.58,-2.02,-2.03,-2.02
112.97,-2.82,-0.74,-2.85,-0.77,0.77,0.53,0.55,-2.06,-2.08,-2.08
114.10,-2.83,-0.70,-2.86,-0.73,0.73,0.51,0.52,-2.10,-2.13,-2.13
115.24,-2.95,-0.77,-2.88,-0.70,0.70,0.48,0.49,-2.25,-2.18,-2.18
116.39,-2.94,-0.71,-2.89,-0.67,0.67,0.45,0.46,-2.27,-2.22,-2.23
117.55,-2.93,-0.66,-2.90,-0.64,0.64,0.42,0.43,-2.29,-2.26,-2.27
118.73,-2.92,-0.61,-2.91,-0.60,0.60,0.39,0.40,-2.32,-2.30,-2.31
119.92,-2.91,-0.57,-2.91,-0.57,0.57,0.36,0.37,-2.34,-2.34,-2.34
121.12,-2.90,-0.52,-2.91,-0.53,0.53,0.33,0.35,-2.37,-2.38,-2.38
122.33,-2.90,-0.49,-2.91,-0.49,0.49,0.31,0.32,-2.41,-2.41,-2.41
123.55,-2.89,-0.45,-2.90,-0.46,0.46,0.28,0.29,-2.44,-2.45,-2.44
124.79,-2.88,-0.41,-2.89,-0.42,0.42,0.25,0.27,-2.46,-2.48,-2.47
126.03,-2.87,-0.37,-2.88,-0.38,0.38,0.22,0.24,-2.49,-2.51,-2.50
127.29,-2.87,-0.35,-2.87,-0.34,0.34,0.20,0.21,-2.53,-2.54,-2.52
128.57,-2.86,-0.30,-2.86,-0.29,0.29,0.17,0.19,-2.57,-2.57,-2.56
129.85,-2.85,-0.26,-2.85,-0.26,0.26,0.14,0.16,-2.59,-2.59,-2.59
131.15,-2.85,-0.23,-2.85,-0.23,0.23,0.11,0.14,-2.62,-2.62,-2.62
132.46,-2.84,-0.19,-2.85,-0.19,0.19,0.09,0.11,-2.65,-2.65,-2.65
133.79,-2.84,-0.16,-2.84,-0.16,0.16,0.06,0.09,-2.68,-2.68,-2.68
135.12,-2.84,-0.13,-2.84,-0.13,0.13,0.03,0.06,-2.71,-2.71,-2.71
136.48,-2.83,-0.10,-2.83,-0.10,0.10,0.01,0.04,-2.73,-2.73,-2.73
137.84,-2.83,-0.06,-2.83,-0.07,0.07,-0.02,0.01,-2.76,-2.76,-2.77
139.22,-2.83,-0.03,-2.83,-0.04,0.04,-0.05,-0.01,-2.79,-2.79,-2.80
140.61,-2.83,0.00,-2.84,-0.02,0.02,-0.07,-0.03,-2.82,-2.82,-2.83
142.02,-2.83,0.02,-2.83,0.02,-0.02,-0.10,-0.06,-2.85,-2.85,-2.85
143.44,-2.83,0.05,-2.82,0.07,-0.07,-0.13,-0.08,-2.90,-2.89,-2.88
144.87,-2.83,0.09,-2.82,0.11,-0.11,-0.15,-0.11,-2.94,-2.93,-2.92
146.32,-2.83,0.13,-2.82,0.15,-0.15,-0.18,-0.13,-2.99,-2.97,-2.96
147.78,-2.83,0.16,-2.82,0.20,-0.20,-0.20,-0.16,-3.03,-3.02,-2.99
149.26,-2.83,0.21,-2.82,0.25,-0.25,-0.23,-0.18,-3.08,-3.07,-3.04
150.75,-2.83,0.27,-2.83,0.30,-0.30,-0.26,-0.21,-3.13,-3.13,-3.10
152.26,-2.83,0.34,-2.84,0.36,-0.36,-0.28,-0.23,-3.19,-3.19,-3.17
153.78,-2.83,0.41,-2.85,0.41,-0.41,-0.31,-0.26,-3.24,-3.26,-3.24
155.32,-2.78,0.53,-2.86,0.47,-0.47,-0.34,-0.28,-3.25,-3.33,-3.31
156.88,-2.74,0.65,-2.86,0.53,-0.53,-0.36,-0.31,-3.27,-3.40,-3.39
158.44,-2.88,0.59,-2.87,0.60,-0.60,-0.39,-0.34,-3.48,-3.47,-3.47
160.03,-2.93,0.62,-2.87,0.67,-0.67,-0.41,-0.36,-3.60,-3.54,-3.55
161.63,-2.93,0.69,-2.87,0.73,-0.73,-0.44,-0.39,-3.66,-3.60,-3.62
163.24,-2.93,0.75,-2.87,0.79,-0.79,-0.46,-0.42,-3.72,-3.66,-3.68
164.88,-2.93,0.80,-2.87,0.85,-0.85,-0.49,-0.45,-3.78,-3.72,-3.73
166.53,-2.88,0.90,-2.86,0.91,-0.91,-0.52,-0.48,-3.79,-3.77,-3.78
168.19,-2.85,0.97,-2.86,0.95,-0.95,-0.54,-0.50,-3.80,-3.81,-3.82
169.87,-2.88,0.98,-2.85,0.99,-0.99,-0.57,-0.53,-3.87,-3.84,-3.86
171.57,-2.79,1.09,-2.84,1.03,-1.03,-0.59,-0.56,-3.82,-3.87,-3.88
173.29,-2.76,1.13,-2.83,1.06,-1.06,-0.62,-0.60,-3.82,-3.88,-3.89
175.02,-2.77,1.13,-2.81,1.09,-1.09,-0.64,-0.63,-3.86,-3.90,-3.90
176.77,-2.77,1.14,-2.79,1.12,-1.12,-0.67,-0.66,-3.89,-3.91,-3.91
178.54,-2.77,1.15,-2.77,1.14,-1.14,-0.69,-0.69,-3.91,-3.92,-3.92
180.32,-2.77,1.14,-2.76,1.16,-1.16,-0.72,-0.72,-3.93,-3.92,-3.91
182.13,-2.76,1.14,-2.75,1.18,-1.18,-0.74,-0.76,-3.94,-3.93,-3.90
183.95,-2.75,1.16,-2.73,1.20,-1.20,-0.77,-0.79,-3.95,-3.93,-3.91
185.79,-2.74,1.17,-2.73,1.21,-1.21,-0.79,-0.83,-3.95,-3.94,-3.91
187.65,-2.73,1.20,-2.71,1.23,-1.23,-0.82,-0.86,-3.96,-3.95,-3.93
189.52,-2.71,1.23,-2.70,1.25,-1.25,-0.84,-0.90,-3.96,-3.96,-3.94
191.42,-2.70,1.26,-2.70,1.27,-1.27,-0.87,-0.94,-3.97,-3.97,-3.96
193.33,-2.68,1.30,-2.69,1.30,-1.30,-0.89,-0.97,-3.98,-3.98,-3.98
195.27,-2.67,1.33,-2.67,1.33,-1.33,-0.92,-1.01,-4.00,-4.00,-4.00
197.22,-2.65,1.37,-2.66,1.36,-1.36,-0.94,-1.05,-4.01,-4.02,-4.02
199.19,-2.64,1.40,-2.65,1.39,-1.39,-0.96,-1.08,-4.03,-4.04,-4.04
201.18,-2.64,1.42,-2.65,1.41,-1.41,-0.99,-1.12,-4.06,-4.06,-4.06
203.19,-2.63,1.45,-2.64,1.44,-1.44,-1.01,-1.16,-4.07,-4.08,-4.08
205.23,-2.63,1.47,-2.64,1.47,-1.47,-1.03,-1.20,-4.10,-4.10,-4.10
207.28,-2.63,1.48,-2.63,1.49,-1.49,-1.06,-1.24,-4.12,-4.12,-4.11
209.35,-2.63,1.50,-2.63,1.51,-1.51,-1.08,-1.27,-4.14,-4.14,-4.13
211.44,-2.63,1.53,-2.64,1.52,-1.52,-1.10,-1.31,-4.15,-4.16,-4.16
213.56,-2.64,1.53,-2.64,1.53,-1.53,-1.12,-1.35,-4.18,-4.17,-4.17
215.69,-2.64,1.54,-2.64,1.54,-1.54,-1.15,-1.38,-4.19,-4.19,-4.18
217.85,-2.64,1.55,-2.64,1.55,-1.55,-1.17,-1.42,-4.19,-4.20,-4.19
220.03,-2.65,1.55,-2.65,1.56,-1.56,-1.19,-1.45,-4.21,-4.21,-4.20
222.23,-2.65,1.58,-2.65,1.57,-1.57,-1.21,-1.49,-4.22,-4.21,-4.23
224.45,-2.65,1.57,-2.64,1.57,-1.57,-1.23,-1.52,-4.22,-4.22,-4.22
226.70,-2.65,1.57,-2.64,1.57,-1.57,-1.25,-1.55,-4.23,-4.22,-4.22
228.96,-2.65,1.56,-2.64,1.57,-1.57,-1.27,-1.58,-4.22,-4.21,-4.21
231.25,-2.64,1.56,-2.64,1.56,-1.56,-1.29,-1.61,-4.20,-4.20,-4.20
233.57,-2.63,1.56,-2.63,1.56,-1.56,-1.31,-1.63,-4.19,-4.19,-4.19
235.90,-2.62,1.56,-2.62,1.56,-1.56,-1.33,-1.65,-4.18,-4.18,-4.18
238.26,-2.60,1.57,-2.60,1.56,-1.56,-1.35,-1.67,-4.16,-4.16,-4.17
240.64,-2.58,1.56,-2.59,1.56,-1.56,-1.37,-1.69,-4.14,-4.14,-4.14
243.05,-2.57,1.54,-2.56,1.56,-1.56,-1.39,-1.71,-4.13,-4.12,-4.11
245.48,-2.55,1.54,-2.54,1.56,-1.56,-1.40,-1.72,-4.11,-4.10,-4.09
247.93,-2.52,1.54,-2.52,1.56,-1.56,-1.42,-1.73,-4.08,-4.07,-4.06
250.41,-2.55,1.49,-2.49,1.56,-1.56,-1.44,-1.74,-4.11,-4.05,-4.04
252.92,-2.55,1.46,-2.47,1.56,-1.56,-1.45,-1.75,-4.11,-4.03,-4.01
255.45,-2.40,1.59,-2.45,1.55,-1.55,-1.47,-1.75,-3.95,-4.00,-3.99
258.00,-2.37,1.60,-2.43,1.55,-1.55,-1.48,-1.75,-3.92,-3.98,-3.97
260.58,-2.36,1.59,-2.41,1.54,-1.54,-1.50,-1.75,-3.90,-3.95,-3.95
263.19,-2.36,1.56,-2.40,1.53,-1.53,-1.51,-1.75,-3.89,-3.93,-3.92
265.82,-2.36,1.54,-2.39,1.52,-1.52,-1.52,-1.74,-3.88,-3.90,-3.90
268.48,-2.36,1.52,-2.37,1.50,-1.50,-1.53,-1.74,-3.86,-3.88,-3.88
271.16,-2.37,1.48,-2.37,1.49,-1.49,-1.55,-1.73,-3.86,-3.85,-3.85
273.87,-2.37,1.46,-2.36,1.47,-1.47,-1.56,-1.71,-3.84,-3.83,-3.83
276.61,-2.37,1.43,-2.35,1.45,-1.45,-1.57,-1.70,-3.82,-3.80,-3.80
279.38,-2.37,1.40,-2.35,1.42,-1.42,-1.58,-1.69,-3.79,-3.77,-3.77
282.17,-2.37,1.38,-2.36,1.39,-1.39,-1.58,-1.67,-3.76,-3.75,-3.75
284.99,-2.36,1.35,-2.36,1.36,-1.36,-1.59,-1.65,-3.72,-3.72,-3.71
287.84,-2.36,1.33,-2.36,1.33,-1.33,-1.60,-1.64,-3.69,-3.69,-3.69
290.72,-2.34,1.32,-2.35,1.31,-1.31,-1.61,-1.62,-3.65,-3.66,-3.66
293.63,-2.33,1.30,-2.34,1.30,-1.30,-1.61,-1.60,-3.63,-3.63,-3.63
296.57,-2.32,1.28,-2.32,1.28,-1.28,-1.62,-1.58,-3.60,-3.60,-3.60
299.53,-2.31,1.26,-2.30,1.27,-1.27,-1.62,-1.56,-3.58,-3.57,-3.57
302.53,-2.30,1.25,-2.29,1.26,-1.26,-1.63,-1.54,-3.56,-3.55,-3.55
305.55,-2.33,1.18,-2.27,1.25,-1.25,-1.63,-1.52,-3.58,-3.52,-3.51
308.61,-2.32,1.17,-2.25,1.25,-1.25,-1.63,-1.50,-3.57,-3.50,-3.49
311.69,-2.19,1.27,-2.24,1.24,-1.24,-1.63,-1.48,-3.43,-3.47,-3.46
314.81,-2.17,1.27,-2.23,1.22,-1.22,-1.63,-1.46,-3.39,-3.45,-3.44
317.96,-2.16,1.26,-2.22,1.21,-1.21,-1.63,-1.44,-3.37,-3.43,-3.42
321.14,-2.16,1.25,-2.21,1.20,-1.20,-1.63,-1.43,-3.36,-3.41,-3.41
324.35,-2.16,1.23,-2.19,1.20,-1.20,-1.63,-1.41,-3.36,-3.39,-3.39
327.59,-2.16,1.22,-2.17,1.21,-1.21,-1.63,-1.39,-3.37,-3.38,-3.38
330.87,-2.17,1.20,-2.15,1.22,-1.22,-1.63,-1.38,-3.39,-3.37,-3.37
334.18,-2.17,1.18,-2.13,1.22,-1.22,-1.63,-1.36,-3.39,-3.35,-3.35
337.52,-2.17,1.17,-2.11,1.23,-1.23,-1.62,-1.35,-3.40,-3.34,-3.34
340.90,-2.17,1.16,-2.10,1.24,-1.24,-1.62,-1.33,-3.41,-3.34,-3.33
344.30,-2.19,1.13,-2.09,1.24,-1.24,-1.61,-1.32,-3.44,-3.33,-3.32
347.75,-2.10,1.22,-2.08,1.25,-1.25,-1.61,-1.31,-3.35,-3.32,-3.32
351.23,-1.98,1.33,-2.06,1.25,-1.25,-1.60,-1.30,-3.24,-3.32,-3.31
354.74,-1.96,1.36,-2.05,1.26,-1.26,-1.59,-1.29,-3.23,-3.32,-3.32
358.28,-1.95,1.36,-2.04,1.28,-1.28,-1.59,-1.28,-3.23,-3.31,-3.31
361.87,-1.95,1.36,-2.03,1.28,-1.28,-1.58,-1.28,-3.23,-3.31,-3.31
365.49,-2.02,1.28,-2.02,1.29,-1.29,-1.57,-1.27,-3.31,-3.31,-3.30
369.14,-2.04,1.27,-2.01,1.30,-1.30,-1.56,-1.27,-3.34,-3.31,-3.31
372.83,-2.04,1.27,-2.00,1.31,-1.31,-1.55,-1.26,-3.35,-3.31,-3.31
376.56,-2.03,1.29,-2.00,1.32,-1.32,-1.54,-1.26,-3.35,-3.31,-3.32
380.33,-2.02,1.29,-1.99,1.32,-1.32,-1.53,-1.26,-3.34,-3.32,-3.31
384.13,-2.01,1.30,-1.99,1.33,-1.33,-1.52,-1.26,-3.34,-3.32,-3.31
387.97,-2.01,1.31,-2.00,1.33,-1.33,-1.51,-1.26,-3.34,-3.33,-3.32
391.85,-2.01,1.32,-2.00,1.33,-1.33,-1.50,-1.26,-3.34,-3.33,-3.33
395.77,-2.00,1.32,-1.99,1.34,-1.34,-1.49,-1.26,-3.34,-3.34,-3.32
399.73,-2.01,1.32,-1.98,1.36,-1.36,-1.48,-1.26,-3.37,-3.34,-3.33
403.72,-1.94,1.39,-1.97,1.37,-1.37,-1.47,-1.26,-3.31,-3.35,-3.33
407.76,-1.91,1.44,-1.96,1.39,-1.39,-1.45,-1.27,-3.30,-3.35,-3.35
411.84,-1.91,1.44,-1.95,1.40,-1.40,-1.44,-1.27,-3.32,-3.35,-3.35
415.96,-1.92,1.43,-1.94,1.42,-1.42,-1.43,-1.28,-3.34,-3.35,-3.35
420.12,-1.91,1.44,-1.93,1.43,-1.43,-1.42,-1.28,-3.34,-3.35,-3.35
424.32,-1.91,1.44,-1.91,1.43,-1.43,-1.41,-1.29,-3.34,-3.35,-3.35
428.56,-1.90,1.44,-1.89,1.44,-1.44,-1.40,-1.30,-3.34,-3.34,-3.34
432.85,-1.89,1.44,-1.86,1.46,-1.46,-1.38,-1.30,-3.35,-3.32,-3.33
437.18,-1.86,1.46,-1.83,1.47,-1.47,-1.37,-1.31,-3.33,-3.30,-3.32
441.55,-1.82,1.46,-1.78,1.49,-1.49,-1.36,-1.32,-3.31,-3.27,-3.28
445.96,-1.78,1.47,-1.74,1.51,-1.51,-1.35,-1.33,-3.29,-3.24,-3.25
450.42,-1.73,1.49,-1.69,1.52,-1.52,-1.34,-1.33,-3.25,-3.21,-3.22
454.93,-1.67,1.50,-1.64,1.53,-1.53,-1.33,-1.34,-3.20,-3.17,-3.17
459.48,-1.61,1.52,-1.58,1.54,-1.54,-1.32,-1.35,-3.15,-3.12,-3.13
464.07,-1.54,1.54,-1.52,1.56,-1.56,-1.31,-1.36,-3.10,-3.08,-3.08
