frequency,raw,error,smoothed,error_smoothed,equalization,parametric_eq,fixed_band_eq,equalized_raw,equalized_smoothed,target
20.00,-12.39,-15.41,-12.43,-15.47,15.47,15.25,5.69,3.09,3.05,3.02
20.20,-12.33,-15.38,-12.32,-15.39,15.39,15.15,5.83,3.06,3.07,3.05
20.40,-12.24,-15.32,-12.22,-15.31,15.31,15.05,5.97,3.07,3.09,3.08
20.61,-12.14,-15.24,-12.11,-15.22,15.22,14.94,6.11,3.08,3.11,3.10
20.81,-12.03,-15.16,-12.01,-15.13,15.13,14.84,6.26,3.11,3.12,3.13
21.02,-11.92,-15.08,-11.90,-15.04,15.04,14.73,6.41,3.13,3.14,3.16
21.23,-11.81,-14.98,-11.80,-14.95,14.95,14.63,6.57,3.15,3.15,3.17
21.44,-11.69,-14.88,-11.69,-14.86,14.86,14.52,6.73,3.16,3.16,3.18
21.66,-11.59,-14.78,-11.59,-14.76,14.76,14.42,6.90,3.18,3.17,3.19
21.87,-11.47,-14.66,-11.48,-14.67,14.67,14.31,7.07,3.19,3.18,3.19
22.09,-11.36,-14.56,-11.38,-14.57,14.57,14.21,7.25,3.21,3.19,3.20
22.31,-11.25,-14.45,-11.27,-14.47,14.47,14.10,7.43,3.22,3.20,3.20
22.54,-11.17,-14.37,-11.17,-14.36,14.36,14.00,7.61,3.20,3.20,3.20
22.76,-11.07,-14.26,-11.06,-14.26,14.26,13.89,7.80,3.19,3.20,3.20
22.99,-10.96,-14.14,-10.95,-14.15,14.15,13.78,8.00,3.19,3.20,3.19
23.22,-10.85,-14.03,-10.85,-14.04,14.04,13.68,8.20,3.20,3.19,3.19
23.45,-10.74,-13.92,-10.74,-13.94,13.94,13.57,8.40,3.20,3.19,3.18
23.69,-10.66,-13.84,-10.64,-13.83,13.83,13.46,8.61,3.17,3.19,3.18
23.92,-10.54,-13.73,-10.53,-13.72,13.72,13.36,8.83,3.18,3.19,3.18
24.16,-10.44,-13.63,-10.43,-13.61,13.61,13.25,9.05,3.18,3.19,3.19
24.40,-10.32,-13.52,-10.32,-13.51,13.51,13.15,9.28,3.18,3.18,3.19
24.65,-10.22,-13.40,-10.22,-13.40,13.40,13.04,9.51,3.18,3.18,3.18
24.89,-10.10,-13.28,-10.11,-13.29,13.29,12.93,9.74,3.19,3.18,3.18
25.14,-9.99,-13.17,-10.01,-13.18,13.18,12.83,9.99,3.19,3.18,3.18
25.39,-9.88,-13.06,-9.90,-13.08,13.08,12.72,10.23,3.19,3.18,3.18
25.65,-9.79,-12.96,-9.80,-12.97,12.97,12.61,10.49,3.18,3.17,3.18
25.91,-9.70,-12.86,-9.69,-12.86,12.86,12.51,10.74,3.16,3.17,3.17
26.16,-9.58,-12.75,-9.59,-12.75,12.75,12.40,11.00,3.17,3.17,3.16
26.43,-9.48,-12.64,-9.48,-12.64,12.64,12.30,11.26,3.17,3.16,3.16
26.69,-9.37,-12.53,-9.37,-12.54,12.54,12.19,11.53,3.17,3.16,3.16
26.96,-9.29,-12.45,-9.27,-12.43,12.43,12.08,11.80,3.14,3.16,3.16
27.23,-9.18,-12.34,-9.16,-12.32,12.32,11.98,12.06,3.14,3.15,3.16
27.50,-9.07,-12.22,-9.06,-12.21,12.21,11.87,12.33,3.14,3.15,3.16
27.77,-8.95,-12.10,-8.95,-12.10,12.10,11.77,12.59,3.14,3.15,3.15
28.05,-8.85,-11.99,-8.84,-11.99,11.99,11.66,12.85,3.14,3.14,3.14
28.33,-8.74,-11.87,-8.74,-11.88,11.88,11.56,13.10,3.14,3.14,3.13
28.62,-8.63,-11.76,-8.63,-11.76,11.76,11.45,13.34,3.14,3.13,3.13
28.90,-8.52,-11.64,-8.52,-11.65,11.65,11.35,13.56,3.14,3.13,3.13
29.19,-8.42,-11.53,-8.42,-11.54,11.54,11.24,13.78,3.13,3.12,3.12
29.48,-8.31,-11.43,-8.31,-11.43,11.43,11.14,13.97,3.13,3.12,3.13
29.78,-8.20,-11.31,-8.21,-11.32,11.32,11.03,14.14,3.12,3.11,3.11
30.08,-8.10,-11.21,-8.10,-11.21,11.21,10.93,14.28,3.11,3.11,3.11
30.38,-8.00,-11.10,-7.99,-11.09,11.09,10.82,14.39,3.10,3.10,3.10
30.68,-7.89,-10.98,-7.89,-10.98,10.98,10.72,14.48,3.10,3.09,3.10
30.99,-7.79,-10.87,-7.78,-10.87,10.87,10.61,14.53,3.09,3.09,3.08
31.30,-7.70,-10.78,-7.68,-10.76,10.76,10.51,14.54,3.07,3.08,3.08
31.61,-7.59,-10.67,-7.58,-10.65,10.65,10.40,14.52,3.07,3.08,3.08
31.93,-7.48,-10.55,-7.47,-10.54,10.54,10.30,14.47,3.06,3.07,3.07
32.24,-7.36,-10.42,-7.37,-10.43,10.43,10.20,14.38,3.07,3.06,3.05
32.57,-7.26,-10.31,-7.27,-10.32,10.32,10.09,14.27,3.07,3.05,3.05
32.89,-7.17,-10.21,-7.17,-10.21,10.21,9.99,14.12,3.05,3.05,3.05
33.22,-7.07,-10.10,-7.06,-10.10,10.10,9.89,13.96,3.04,3.04,3.04
33.55,-6.96,-9.99,-6.96,-9.99,9.99,9.79,13.77,3.04,3.03,3.03
33.89,-6.86,-9.88,-6.86,-9.88,9.88,9.68,13.56,3.03,3.02,3.02
34.23,-6.77,-9.78,-6.76,-9.78,9.78,9.58,13.34,3.01,3.01,3.02
34.57,-6.68,-9.68,-6.66,-9.67,9.67,9.48,13.10,2.99,3.00,3.00
34.92,-6.57,-9.56,-6.57,-9.56,9.56,9.38,12.86,2.99,2.99,2.99
35.27,-6.46,-9.44,-6.47,-9.46,9.46,9.28,12.61,3.00,2.98,2.99
35.62,-6.40,-9.37,-6.38,-9.35,9.35,9.18,12.36,2.95,2.97,2.97
35.97,-6.28,-9.24,-6.29,-9.25,9.25,9.08,12.10,2.96,2.96,2.96
36.33,-6.18,-9.13,-6.19,-9.15,9.15,8.98,11.85,2.97,2.95,2.95
36.70,-6.12,-9.06,-6.10,-9.04,9.04,8.88,11.59,2.92,2.94,2.94
37.06,-6.01,-8.93,-6.01,-8.94,8.94,8.78,11.34,2.93,2.93,2.92
37.43,-5.93,-8.85,-5.92,-8.84,8.84,8.68,11.09,2.91,2.92,2.92
37.81,-5.84,-8.74,-5.84,-8.74,8.74,8.58,10.84,2.90,2.90,2.90
38.19,-5.75,-8.64,-5.75,-8.64,8.64,8.48,10.60,2.90,2.89,2.89
38.57,-5.67,-8.55,-5.67,-8.55,8.55,8.38,10.36,2.88,2.88,2.88
38.95,-5.59,-8.45,-5.58,-8.45,8.45,8.29,10.13,2.87,2.87,2.87
39.34,-5.50,-8.35,-5.50,-8.36,8.36,8.19,9.91,2.86,2.86,2.85
39.74,-5.43,-8.26,-5.42,-8.27,8.27,8.09,9.68,2.84,2.84,2.84
40.14,-5.33,-8.16,-5.34,-8.18,8.18,8.00,9.47,2.85,2.83,2.83
40.54,-5.26,-8.07,-5.26,-8.08,8.08,7.90,9.26,2.83,2.82,2.81
40.94,-5.20,-8.00,-5.18,-7.99,7.99,7.81,9.05,2.80,2.81,2.81
41.35,-5.12,-7.91,-5.11,-7.90,7.90,7.71,8.85,2.79,2.80,2.79
41.76,-5.03,-7.81,-5.03,-7.81,7.81,7.62,8.66,2.78,2.78,2.78
42.18,-4.96,-7.73,-4.95,-7.72,7.72,7.53,8.47,2.76,2.77,2.78
42.60,-4.88,-7.63,-4.87,-7.62,7.62,7.43,8.29,2.75,2.75,2.76
43.03,-4.80,-7.55,-4.79,-7.53,7.53,7.34,8.11,2.73,2.74,2.75
43.46,-4.73,-7.46,-4.71,-7.43,7.43,7.25,7.94,2.71,2.72,2.73
43.90,-4.63,-7.33,-4.64,-7.34,7.34,7.16,7.78,2.71,2.71,2.70
44.33,-4.56,-7.24,-4.56,-7.25,7.25,7.07,7.61,2.69,2.69,2.68
44.78,-4.48,-7.14,-4.48,-7.15,7.15,6.98,7.46,2.67,2.67,2.66
45.23,-4.40,-7.04,-4.40,-7.05,7.05,6.89,7.31,2.66,2.65,2.64
45.68,-4.33,-6.95,-4.32,-6.96,6.96,6.80,7.16,2.63,2.63,2.62
46.13,-4.24,-6.84,-4.25,-6.86,6.86,6.71,7.02,2.62,2.61,2.60
46.60,-4.18,-6.77,-4.17,-6.76,6.76,6.62,6.88,2.58,2.59,2.59
47.06,-4.10,-6.67,-4.10,-6.66,6.66,6.54,6.75,2.57,2.57,2.57
47.53,-4.03,-6.58,-4.02,-6.56,6.56,6.45,6.62,2.54,2.54,2.55
48.01,-3.95,-6.48,-3.95,-6.47,6.47,6.37,6.50,2.52,2.52,2.54
48.49,-3.88,-6.38,-3.87,-6.37,6.37,6.28,6.38,2.49,2.49,2.51
48.97,-3.80,-6.27,-3.80,-6.27,6.27,6.20,6.26,2.48,2.47,2.47
49.46,-3.74,-6.17,-3.73,-6.18,6.18,6.11,6.15,2.44,2.45,2.44
49.96,-3.67,-6.07,-3.66,-6.08,6.08,6.03,6.04,2.41,2.42,2.41
50.46,-3.59,-5.98,-3.59,-5.98,5.98,5.95,5.94,2.40,2.39,2.39
50.96,-3.53,-5.89,-3.52,-5.89,5.89,5.87,5.83,2.36,2.37,2.37
51.47,-3.46,-5.79,-3.45,-5.79,5.79,5.79,5.74,2.34,2.34,2.33
51.99,-3.40,-5.70,-3.39,-5.70,5.70,5.71,5.64,2.30,2.31,2.30
52.51,-3.32,-5.60,-3.32,-5.61,5.61,5.63,5.55,2.29,2.28,2.29
53.03,-3.26,-5.52,-3.26,-5.52,5.52,5.55,5.46,2.26,2.25,2.26
53.56,-3.21,-5.44,-3.20,-5.43,5.43,5.47,5.37,2.22,2.23,2.23
54.10,-3.15,-5.35,-3.14,-5.35,5.35,5.39,5.28,2.20,2.20,2.20
54.64,-3.09,-5.26,-3.09,-5.26,5.26,5.32,5.20,2.18,2.18,2.18
55.18,-3.03,-5.17,-3.04,-5.18,5.18,5.24,5.12,2.16,2.15,2.15
55.74,-2.98,-5.09,-2.99,-5.11,5.11,5.16,5.03,2.13,2.12,2.12
56.29,-2.94,-5.03,-2.94,-5.03,5.03,5.09,4.96,2.10,2.10,2.10
56.86,-2.89,-4.95,-2.89,-4.96,4.96,5.02,4.88,2.07,2.07,2.06
57.42,-2.86,-4.89,-2.85,-4.89,4.89,4.94,4.80,2.03,2.04,2.03
58.00,-2.82,-4.83,-2.81,-4.82,4.82,4.87,4.73,2.00,2.01,2.01
58.58,-2.77,-4.75,-2.77,-4.75,4.75,4.80,4.65,1.99,1.98,1.99
59.16,-2.74,-4.70,-2.73,-4.69,4.69,4.73,4.58,1.95,1.95,1.96
59.76,-2.71,-4.64,-2.70,-4.62,4.62,4.66,4.51,1.92,1.92,1.94
60.35,-2.68,-4.58,-2.67,-4.56,4.56,4.59,4.43,1.89,1.89,1.90
60.96,-2.63,-4.50,-2.64,-4.50,4.50,4.52,4.36,1.87,1.86,1.87
61.57,-2.63,-4.45,-2.61,-4.44,4.44,4.45,4.29,1.82,1.83,1.83
62.18,-2.58,-4.36,-2.59,-4.38,4.38,4.39,4.22,1.81,1.80,1.79
62.80,-2.58,-4.33,-2.57,-4.33,4.33,4.32,4.14,1.75,1.76,1.76
63.43,-2.54,-4.25,-2.55,-4.28,4.28,4.25,4.07,1.74,1.73,1.72
64.07,-2.54,-4.22,-2.53,-4.23,4.23,4.19,4.00,1.69,1.69,1.69
64.71,-2.54,-4.19,-2.52,-4.18,4.18,4.12,3.93,1.64,1.66,1.66
65.35,-2.49,-4.11,-2.51,-4.13,4.13,4.06,3.86,1.65,1.62,1.62
66.01,-2.49,-4.07,-2.50,-4.09,4.09,4.00,3.78,1.60,1.59,1.59
66.67,-2.49,-4.04,-2.49,-4.05,4.05,3.94,3.71,1.56,1.55,1.55
67.33,-2.49,-4.00,-2.49,-4.00,4.00,3.87,3.64,1.52,1.52,1.52
68.01,-2.49,-3.97,-2.48,-3.96,3.96,3.81,3.57,1.48,1.48,1.48
68.69,-2.49,-3.93,-2.48,-3.92,3.92,3.75,3.50,1.43,1.44,1.44
69.37,-2.49,-3.89,-2.47,-3.88,3.88,3.70,3.42,1.39,1.41,1.41
70.07,-2.49,-3.85,-2.47,-3.84,3.84,3.64,3.35,1.35,1.37,1.37
70.77,-2.48,-3.81,-2.47,-3.80,3.80,3.58,3.28,1.32,1.33,1.34
71.48,-2.47,-3.76,-2.46,-3.75,3.75,3.52,3.21,1.29,1.29,1.30
72.19,-2.44,-3.69,-2.46,-3.71,3.71,3.47,3.14,1.27,1.25,1.25
72.91,-2.44,-3.65,-2.46,-3.67,3.67,3.41,3.07,1.23,1.21,1.21
73.64,-2.44,-3.60,-2.45,-3.62,3.62,3.36,3.00,1.18,1.17,1.17
74.38,-2.44,-3.57,-2.44,-3.57,3.57,3.30,2.94,1.14,1.13,1.13
75.12,-2.44,-3.52,-2.43,-3.52,3.52,3.25,2.87,1.09,1.09,1.09
75.87,-2.44,-3.48,-2.42,-3.47,3.47,3.20,2.80,1.03,1.05,1.05
76.63,-2.40,-3.41,-2.41,-3.42,3.42,3.14,2.74,1.02,1.01,1.01
77.40,-2.40,-3.37,-2.39,-3.36,3.36,3.09,2.67,0.96,0.97,0.97
78.17,-2.40,-3.32,-2.37,-3.30,3.30,3.04,2.61,0.90,0.93,0.92
78.95,-2.35,-3.24,-2.35,-3.24,3.24,2.99,2.55,0.89,0.89,0.89
79.74,-2.35,-3.19,-2.33,-3.17,3.17,2.94,2.48,0.83,0.84,0.85
80.54,-2.31,-3.11,-2.30,-3.11,3.11,2.90,2.42,0.80,0.80,0.80
81.35,-2.28,-3.04,-2.27,-3.03,3.03,2.85,2.36,0.76,0.76,0.76
82.16,-2.25,-2.96,-2.24,-2.96,2.96,2.80,2.31,0.71,0.72,0.72
82.98,-2.21,-2.89,-2.20,-2.88,2.88,2.75,2.25,0.67,0.67,0.68
83.81,-2.16,-2.78,-2.16,-2.79,2.79,2.71,2.19,0.64,0.63,0.62
84.65,-2.13,-2.70,-2.13,-2.71,2.71,2.66,2.14,0.58,0.58,0.58
85.50,-2.09,-2.63,-2.09,-2.62,2.62,2.62,2.08,0.54,0.54,0.54
86.35,-2.05,-2.54,-2.04,-2.53,2.53,2.57,2.03,0.49,0.49,0.49
87.22,-2.00,-2.44,-2.00,-2.44,2.44,2.53,1.98,0.45,0.44,0.44
88.09,-1.96,-2.35,-1.96,-2.35,2.35,2.49,1.93,0.40,0.39,0.39
88.97,-1.93,-2.28,-1.92,-2.26,2.26,2.45,1.88,0.33,0.34,0.35
89.86,-1.88,-2.17,-1.88,-2.17,2.17,2.41,1.83,0.30,0.29,0.30
90.76,-1.84,-2.07,-1.84,-2.08,2.08,2.37,1.78,0.25,0.24,0.23
91.66,-1.81,-2.00,-1.80,-1.99,1.99,2.33,1.73,0.19,0.19,0.19
92.58,-1.78,-1.90,-1.77,-1.90,1.90,2.29,1.69,0.13,0.13,0.13
93.51,-1.74,-1.82,-1.74,-1.82,1.82,2.25,1.64,0.08,0.08,0.08
94.44,-1.70,-1.72,-1.71,-1.73,1.73,2.21,1.60,0.04,0.02,0.03
95.39,-1.70,-1.67,-1.68,-1.65,1.65,2.17,1.56,-0.04,-0.03,-0.03
96.34,-1.65,-1.55,-1.66,-1.57,1.57,2.13,1.52,-0.07,-0.09,-0.09
97.30,-1.65,-1.50,-1.65,-1.50,1.50,2.10,1.47,-0.15,-0.15,-0.15
98.28,-1.65,-1.44,-1.63,-1.43,1.43,2.06,1.43,-0.22,-0.20,-0.21
99.26,-1.61,-1.34,-1.62,-1.36,1.36,2.03,1.40,-0.25,-0.26,-0.26
100.25,-1.60,-1.28,-1.62,-1.30,1.30,1.99,1.36,-0.30,-0.32,-0.32
101.25,-1.60,-1.22,-1.61,-1.24,1.24,1.96,1.32,-0.36,-0.38,-0.38
102.27,-1.62,-1.18,-1.62,-1.18,1.18,1.92,1.29,-0.43,-0.43,-0.43
103.29,-1.65,-1.14,-1.62,-1.13,1.13,1.89,1.25,-0.51,-0.49,-0.50
104.32,-1.65,-1.10,-1.64,-1.08,1.08,1.86,1.22,-0.56,-0.55,-0.55
105.37,-1.65,-1.04,-1.65,-1.04,1.04,1.83,1.18,-0.60,-0.61,-0.61
106.42,-1.67,-1.00,-1.67,-1.00,1.00,1.80,1.15,-0.67,-0.67,-0.66
107.48,-1.70,-0.97,-1.69,-0.96,0.96,1.77,1.12,-0.73,-0.73,-0.72
108.56,-1.71,-0.92,-1.72,-0.93,0.93,1.73,1.09,-0.78,-0.79,-0.79
109.64,-1.74,-0.89,-1.75,-0.90,0.90,1.71,1.06,-0.84,-0.85,-0.85
110.74,-1.79,-0.88,-1.78,-0.87,0.87,1.68,1.04,-0.92,-0.91,-0.91
111.85,-1.81,-0.84,-1.81,-0.84,0.84,1.65,1.01,-0.97,-0.97,-0.96
112.97,-1.86,-0.82,-1.85,-0.81,0.81,1.62,0.99,-1.04,-1.04,-1.04
114.10,-1.89,-0.79,-1.89,-0.79,0.79,1.59,0.96,-1.10,-1.10,-1.10
115.24,-1.95,-0.78,-1.93,-0.77,0.77,1.57,0.94,-1.18,-1.16,-1.16
116.39,-1.98,-0.75,-1.98,-0.75,0.75,1.54,0.92,-1.22,-1.22,-1.23
117.55,-2.03,-0.73,-2.02,-0.74,0.74,1.51,0.90,-1.29,-1.29,-1.29
118.73,-2.08,-0.72,-2.07,-0.72,0.72,1.49,0.88,-1.35,-1.35,-1.36
119.92,-2.12,-0.70,-2.12,-0.71,0.71,1.46,0.86,-1.41,-1.41,-1.41
121.12,-2.17,-0.69,-2.18,-0.70,0.70,1.44,0.85,-1.47,-1.48,-1.48
122.33,-2.23,-0.69,-2.23,-0.69,0.69,1.41,0.83,-1.54,-1.54,-1.54
123.55,-2.28,-0.68,-2.28,-0.68,0.68,1.39,0.82,-1.59,-1.60,-1.59
124.79,-2.35,-0.69,-2.34,-0.68,0.68,1.37,0.81,-1.67,-1.66,-1.65
126.03,-2.41,-0.69,-2.40,-0.68,0.68,1.35,0.80,-1.73,-1.72,-1.72
127.29,-2.47,-0.69,-2.46,-0.68,0.68,1.32,0.79,-1.79,-1.78,-1.78
128.57,-2.53,-0.68,-2.53,-0.68,0.68,1.30,0.78,-1.84,-1.84,-1.85
129.85,-2.59,-0.68,-2.59,-0.69,0.69,1.28,0.78,-1.90,-1.90,-1.91
131.15,-2.66,-0.69,-2.66,-0.70,0.70,1.26,0.77,-1.96,-1.96,-1.96
132.46,-2.72,-0.69,-2.72,-0.70,0.70,1.24,0.77,-2.01,-2.02,-2.02
133.79,-2.79,-0.72,-2.79,-0.72,0.72,1.22,0.77,-2.07,-2.07,-2.07
135.12,-2.86,-0.72,-2.86,-0.73,0.73,1.20,0.77,-2.13,-2.13,-2.13
136.48,-2.92,-0.74,-2.92,-0.74,0.74,1.18,0.77,-2.17,-2.18,-2.18
137.84,-3.00,-0.76,-2.99,-0.76,0.76,1.17,0.77,-2.24,-2.23,-2.23
139.22,-3.07,-0.77,-3.06,-0.77,0.77,1.15,0.78,-2.29,-2.29,-2.30
140.61,-3.13,-0.78,-3.12,-0.79,0.79,1.13,0.78,-2.34,-2.34,-2.35
142.02,-3.20,-0.82,-3.19,-0.81,0.81,1.12,0.79,-2.39,-2.38,-2.38
143.44,-3.26,-0.83,-3.26,-0.82,0.82,1.10,0.79,-2.43,-2.43,-2.43
144.87,-3.33,-0.85,-3.32,-0.84,0.84,1.09,0.80,-2.48,-2.48,-2.48
146.32,-3.39,-0.86,-3.39,-0.86,0.86,1.07,0.81,-2.53,-2.53,-2.53
147.78,-3.45,-0.88,-3.45,-0.88,0.88,1.06,0.82,-2.57,-2.57,-2.56
149.26,-3.51,-0.90,-3.51,-0.89,0.89,1.04,0.83,-2.61,-2.62,-2.61
150.75,-3.58,-0.91,-3.58,-0.91,0.91,1.03,0.84,-2.67,-2.67,-2.67
152.26,-3.64,-0.93,-3.64,-0.92,0.92,1.02,0.86,-2.71,-2.71,-2.71
153.78,-3.70,-0.94,-3.70,-0.94,0.94,1.01,0.87,-2.76,-2.76,-2.75
155.32,-3.76,-0.95,-3.76,-0.95,0.95,1.00,0.89,-2.80,-2.81,-2.81
156.88,-3.82,-0.97,-3.82,-0.96,0.96,0.99,0.90,-2.85,-2.85,-2.85
158.44,-3.89,-0.99,-3.88,-0.98,0.98,0.98,0.92,-2.91,-2.90,-2.90
160.03,-3.95,-1.00,-3.93,-0.99,0.99,0.97,0.93,-2.96,-2.94,-2.95
161.63,-4.01,-1.01,-3.99,-1.00,1.00,0.96,0.95,-3.01,-2.99,-3.00
163.24,-4.05,-1.00,-4.05,-1.01,1.01,0.95,0.97,-3.03,-3.04,-3.04
164.88,-4.10,-1.01,-4.11,-1.03,1.03,0.95,0.99,-3.07,-3.08,-3.08
166.53,-4.15,-1.02,-4.17,-1.04,1.04,0.94,1.01,-3.11,-3.13,-3.13
168.19,-4.24,-1.06,-4.22,-1.05,1.05,0.94,1.03,-3.18,-3.17,-3.17
169.87,-4.29,-1.07,-4.28,-1.07,1.07,0.93,1.06,-3.22,-3.22,-3.22
171.57,-4.34,-1.08,-4.34,-1.08,1.08,0.93,1.08,-3.25,-3.26,-3.26
173.29,-4.40,-1.10,-4.41,-1.10,1.10,0.93,1.10,-3.30,-3.31,-3.30
175.02,-4.47,-1.12,-4.47,-1.12,1.12,0.93,1.13,-3.35,-3.35,-3.34
176.77,-4.53,-1.13,-4.53,-1.14,1.14,0.93,1.16,-3.39,-3.39,-3.39
178.54,-4.60,-1.15,-4.60,-1.16,1.16,0.93,1.18,-3.44,-3.44,-3.44
180.32,-4.66,-1.18,-4.66,-1.18,1.18,0.93,1.21,-3.47,-3.48,-3.48
182.13,-4.73,-1.21,-4.73,-1.21,1.21,0.94,1.24,-3.52,-3.52,-3.52
183.95,-4.80,-1.23,-4.80,-1.23,1.23,0.94,1.27,-3.56,-3.56,-3.56
185.79,-4.86,-1.26,-4.86,-1.26,1.26,0.95,1.30,-3.60,-3.60,-3.60
187.65,-4.94,-1.29,-4.92,-1.28,1.28,0.96,1.33,-3.65,-3.64,-3.65
189.52,-5.00,-1.32,-4.99,-1.31,1.31,0.97,1.36,-3.69,-3.68,-3.68
191.42,-5.07,-1.35,-5.05,-1.34,1.34,0.98,1.39,-3.73,-3.72,-3.71
193.33,-5.12,-1.37,-5.12,-1.37,1.37,1.00,1.42,-3.75,-3.75,-3.75
195.27,-5.17,-1.39,-5.18,-1.40,1.40,1.02,1.45,-3.77,-3.78,-3.78
197.22,-5.24,-1.42,-5.24,-1.43,1.43,1.04,1.49,-3.81,-3.81,-3.81
199.19,-5.31,-1.45,-5.30,-1.46,1.46,1.06,1.52,-3.85,-3.84,-3.85
201.18,-5.36,-1.48,-5.36,-1.49,1.49,1.08,1.55,-3.87,-3.87,-3.87
203.19,-5.40,-1.50,-5.41,-1.52,1.52,1.11,1.58,-3.88,-3.90,-3.89
205.23,-5.46,-1.53,-5.46,-1.55,1.55,1.14,1.62,-3.91,-3.92,-3.92
207.28,-5.52,-1.59,-5.51,-1.57,1.57,1.17,1.65,-3.94,-3.94,-3.93
209.35,-5.58,-1.62,-5.56,-1.60,1.60,1.21,1.68,-3.97,-3.96,-3.96
211.44,-5.62,-1.63,-5.61,-1.63,1.63,1.25,1.71,-3.98,-3.98,-3.99
213.56,-5.66,-1.66,-5.65,-1.66,1.66,1.29,1.74,-4.00,-3.99,-3.99
215.69,-5.70,-1.70,-5.69,-1.69,1.69,1.34,1.77,-4.01,-4.00,-4.00
217.85,-5.74,-1.72,-5.73,-1.71,1.71,1.39,1.80,-4.02,-4.02,-4.01
220.03,-5.75,-1.72,-5.76,-1.73,1.73,1.45,1.83,-4.01,-4.02,-4.03
222.23,-5.80,-1.75,-5.79,-1.76,1.76,1.51,1.86,-4.04,-4.03,-4.04
224.45,-5.81,-1.77,-5.82,-1.78,1.78,1.57,1.88,-4.03,-4.04,-4.04
226.70,-5.85,-1.81,-5.84,-1.80,1.80,1.63,1.90,-4.05,-4.04,-4.04
228.96,-5.85,-1.80,-5.86,-1.81,1.81,1.70,1.92,-4.03,-4.04,-4.04
231.25,-5.89,-1.85,-5.87,-1.83,1.83,1.77,1.94,-4.06,-4.05,-4.04
233.57,-5.89,-1.85,-5.89,-1.84,1.84,1.84,1.95,-4.04,-4.04,-4.04
235.90,-5.89,-1.85,-5.90,-1.86,1.86,1.91,1.96,-4.03,-4.04,-4.04
238.26,-5.90,-1.85,-5.90,-1.87,1.87,1.98,1.97,-4.03,-4.04,-4.04
240.64,-5.92,-1.88,-5.91,-1.88,1.88,2.04,1.98,-4.04,-4.03,-4.03
243.05,-5.92,-1.89,-5.91,-1.89,1.89,2.10,1.98,-4.03,-4.02,-4.02
245.48,-5.92,-1.90,-5.91,-1.90,1.90,2.15,1.98,-4.02,-4.01,-4.01
247.93,-5.92,-1.91,-5.91,-1.90,1.90,2.20,1.97,-4.01,-4.00,-4.00
250.41,-5.89,-1.88,-5.91,-1.91,1.91,2.23,1.96,-3.97,-3.99,-4.00
252.92,-5.89,-1.90,-5.90,-1.92,1.92,2.24,1.95,-3.97,-3.98,-3.98
255.45,-5.89,-1.93,-5.89,-1.92,1.92,2.25,1.93,-3.96,-3.97,-3.96
258.00,-5.89,-1.94,-5.88,-1.93,1.93,2.24,1.91,-3.96,-3.95,-3.95
260.58,-5.85,-1.91,-5.86,-1.93,1.93,2.21,1.88,-3.92,-3.93,-3.94
263.19,-5.85,-1.93,-5.85,-1.93,1.93,2.17,1.86,-3.92,-3.92,-3.92
265.82,-5.85,-1.94,-5.83,-1.93,1.93,2.12,1.83,-3.92,-3.90,-3.90
268.48,-5.80,-1.92,-5.80,-1.92,1.92,2.05,1.79,-3.87,-3.88,-3.88
271.16,-5.79,-1.93,-5.78,-1.92,1.92,1.98,1.75,-3.87,-3.86,-3.86
273.87,-5.75,-1.90,-5.75,-1.91,1.91,1.90,1.71,-3.84,-3.85,-3.84
276.61,-5.73,-1.91,-5.72,-1.89,1.89,1.81,1.67,-3.84,-3.83,-3.82
279.38,-5.68,-1.87,-5.68,-1.87,1.87,1.72,1.63,-3.80,-3.81,-3.81
282.17,-5.64,-1.84,-5.64,-1.85,1.85,1.63,1.58,-3.79,-3.79,-3.79
284.99,-5.59,-1.82,-5.59,-1.82,1.82,1.54,1.53,-3.77,-3.77,-3.77
287.84,-5.54,-1.78,-5.54,-1.79,1.79,1.44,1.48,-3.75,-3.75,-3.75
290.72,-5.50,-1.77,-5.49,-1.76,1.76,1.35,1.43,-3.74,-3.73,-3.73
293.63,-5.44,-1.72,-5.42,-1.71,1.71,1.27,1.37,-3.72,-3.71,-3.71
296.57,-5.37,-1.68,-5.36,-1.67,1.67,1.18,1.32,-3.70,-3.69,-3.69
299.53,-5.29,-1.61,-5.29,-1.62,1.62,1.10,1.26,-3.67,-3.67,-3.67
302.53,-5.21,-1.55,-5.21,-1.56,1.56,1.02,1.20,-3.64,-3.65,-3.66
305.55,-5.12,-1.49,-5.13,-1.50,1.50,0.95,1.14,-3.61,-3.63,-3.62
308.61,-5.06,-1.45,-5.04,-1.44,1.44,0.88,1.09,-3.62,-3.60,-3.61
311.69,-4.95,-1.36,-4.94,-1.36,1.36,0.81,1.03,-3.58,-3.58,-3.58
314.81,-4.85,-1.30,-4.84,-1.28,1.28,0.75,0.97,-3.56,-3.56,-3.55
317.96,-4.75,-1.22,-4.74,-1.20,1.20,0.69,0.91,-3.55,-3.54,-3.53
321.14,-4.65,-1.13,-4.62,-1.11,1.11,0.63,0.85,-3.54,-3.52,-3.51
324.35,-4.52,-1.02,-4.51,-1.01,1.01,0.57,0.79,-3.50,-3.49,-3.50
327.59,-4.40,-0.93,-4.39,-0.91,0.91,0.52,0.73,-3.48,-3.47,-3.47
330.87,-4.27,-0.81,-4.26,-0.81,0.81,0.47,0.67,-3.46,-3.45,-3.45
334.18,-4.14,-0.70,-4.14,-0.71,0.71,0.43,0.61,-3.43,-3.43,-3.44
337.52,-4.01,-0.59,-4.01,-0.60,0.60,0.38,0.55,-3.41,-3.41,-3.42
340.90,-3.88,-0.48,-3.88,-0.49,0.49,0.34,0.49,-3.39,-3.40,-3.39
344.30,-3.75,-0.37,-3.75,-0.38,0.38,0.30,0.43,-3.37,-3.38,-3.38
347.75,-3.61,-0.25,-3.63,-0.27,0.27,0.26,0.37,-3.34,-3.36,-3.36
351.23,-3.50,-0.16,-3.50,-0.16,0.16,0.23,0.31,-3.34,-3.34,-3.34
354.74,-3.37,-0.04,-3.37,-0.05,0.05,0.19,0.25,-3.32,-3.32,-3.32
358.28,-3.26,0.05,-3.25,0.05,-0.05,0.16,0.20,-3.31,-3.31,-3.31
361.87,-3.15,0.14,-3.14,0.15,-0.15,0.13,0.14,-3.30,-3.29,-3.29
365.49,-3.04,0.23,-3.02,0.25,-0.25,0.10,0.08,-3.29,-3.27,-3.27
369.14,-2.91,0.36,-2.91,0.34,-0.34,0.07,0.02,-3.25,-3.26,-3.26
372.83,-2.80,0.45,-2.81,0.43,-0.43,0.04,-0.04,-3.23,-3.24,-3.24
376.56,-2.72,0.52,-2.71,0.52,-0.52,0.01,-0.09,-3.23,-3.23,-3.24
380.33,-2.63,0.58,-2.62,0.60,-0.60,-0.02,-0.15,-3.22,-3.22,-3.21
384.13,-2.52,0.68,-2.53,0.67,-0.67,-0.04,-0.21,-3.19,-3.20,-3.20
387.97,-2.45,0.75,-2.45,0.74,-0.74,-0.07,-0.26,-3.19,-3.19,-3.19
391.85,-2.37,0.82,-2.37,0.80,-0.80,-0.09,-0.32,-3.17,-3.18,-3.18
395.77,-2.30,0.87,-2.31,0.86,-0.86,-0.12,-0.38,-3.16,-3.17,-3.17
399.73,-2.23,0.93,-2.24,0.91,-0.91,-0.14,-0.43,-3.14,-3.16,-3.16
403.72,-2.19,0.96,-2.18,0.96,-0.96,-0.17,-0.49,-3.15,-3.15,-3.15
407.76,-2.13,1.01,-2.13,1.00,-1.00,-0.19,-0.54,-3.13,-3.14,-3.14
411.84,-2.09,1.04,-2.09,1.04,-1.04,-0.21,-0.60,-3.12,-3.13,-3.12
415.96,-2.05,1.07,-2.05,1.07,-1.07,-0.23,-0.65,-3.11,-3.12,-3.11
420.12,-2.02,1.09,-2.01,1.10,-1.10,-0.25,-0.70,-3.11,-3.11,-3.10
424.32,-1.98,1.12,-1.98,1.12,-1.12,-0.27,-0.75,-3.10,-3.10,-3.10
428.56,-1.95,1.14,-1.95,1.14,-1.14,-0.30,-0.80,-3.09,-3.09,-3.09
432.85,-1.93,1.15,-1.92,1.16,-1.16,-0.32,-0.85,-3.09,-3.07,-3.08
437.18,-1.89,1.18,-1.89,1.17,-1.17,-0.34,-0.90,-3.06,-3.06,-3.07
441.55,-1.88,1.17,-1.86,1.19,-1.19,-0.36,-0.95,-3.06,-3.05,-3.05
445.96,-1.84,1.20,-1.84,1.20,-1.20,-0.38,-1.00,-3.03,-3.04,-3.04
450.42,-1.84,1.20,-1.82,1.21,-1.21,-0.40,-1.04,-3.04,-3.03,-3.03
454.93,-1.79,1.23,-1.80,1.21,-1.21,-0.41,-1.08,-3.00,-3.01,-3.01
