frequency,raw,error,smoothed,error_smoothed,equalization,parametric_eq,fixed_band_eq,equalized_raw,equalized_smoothed,target
20.00,-9.60,-15.45,-9.60,-15.45,15.46,15.42,5.52,5.85,5.85,5.85
20.20,-9.52,-15.37,-9.52,-15.37,15.38,15.31,5.66,5.85,5.85,5.85
20.40,-9.44,-15.29,-9.44,-15.30,15.29,15.20,5.80,5.85,5.85,5.85
20.61,-9.36,-15.21,-9.36,-15.21,15.21,15.08,5.94,5.84,5.85,5.85
20.81,-9.27,-15.12,-9.28,-15.12,15.12,14.97,6.09,5.85,5.84,5.85
21.02,-9.19,-15.04,-9.19,-15.03,15.03,14.85,6.24,5.83,5.84,5.85
21.23,-9.09,-14.92,-9.10,-14.93,14.93,14.73,6.39,5.84,5.83,5.83
21.44,-9.01,-14.83,-9.01,-14.83,14.83,14.62,6.55,5.82,5.82,5.82
21.66,-8.93,-14.73,-8.93,-14.73,14.73,14.50,6.72,5.80,5.80,5.80
21.87,-8.84,-14.62,-8.84,-14.62,14.63,14.39,6.88,5.78,5.78,5.78
22.09,-8.75,-14.52,-8.75,-14.52,14.52,14.27,7.06,5.76,5.76,5.77
22.31,-8.66,-14.40,-8.67,-14.41,14.40,14.15,7.23,5.74,5.74,5.74
22.54,-8.58,-14.30,-8.58,-14.30,14.29,14.03,7.41,5.71,5.72,5.72
22.76,-8.48,-14.18,-8.49,-14.18,14.18,13.92,7.60,5.70,5.69,5.70
22.99,-8.39,-14.06,-8.40,-14.06,14.06,13.80,7.79,5.67,5.67,5.67
23.22,-8.30,-13.94,-8.30,-13.94,13.95,13.68,7.99,5.64,5.65,5.64
23.45,-8.21,-13.82,-8.21,-13.83,13.83,13.56,8.19,5.62,5.62,5.61
23.69,-8.11,-13.71,-8.12,-13.71,13.72,13.45,8.40,5.60,5.60,5.60
23.92,-8.02,-13.60,-8.02,-13.60,13.60,13.33,8.61,5.58,5.58,5.58
24.16,-7.92,-13.49,-7.93,-13.49,13.49,13.21,8.82,5.56,5.56,5.57
24.40,-7.83,-13.38,-7.83,-13.38,13.37,13.10,9.05,5.54,5.54,5.55
24.65,-7.73,-13.26,-7.73,-13.26,13.26,12.98,9.27,5.52,5.53,5.53
24.89,-7.63,-13.14,-7.63,-13.14,13.14,12.86,9.50,5.51,5.51,5.51
25.14,-7.52,-13.02,-7.53,-13.02,13.02,12.75,9.74,5.50,5.50,5.50
25.39,-7.42,-12.90,-7.42,-12.90,12.91,12.63,9.98,5.48,5.48,5.48
25.65,-7.32,-12.79,-7.32,-12.78,12.79,12.51,10.22,5.46,5.46,5.47
25.91,-7.22,-12.66,-7.22,-12.67,12.67,12.40,10.47,5.44,5.44,5.44
26.16,-7.12,-12.55,-7.12,-12.55,12.55,12.28,10.72,5.43,5.43,5.43
26.43,-7.02,-12.44,-7.02,-12.43,12.43,12.17,10.98,5.41,5.41,5.42
26.69,-6.91,-12.30,-6.92,-12.31,12.31,12.05,11.23,5.40,5.40,5.39
26.96,-6.81,-12.19,-6.81,-12.19,12.20,11.94,11.49,5.38,5.38,5.38
27.23,-6.70,-12.07,-6.71,-12.08,12.08,11.82,11.75,5.37,5.37,5.37
27.50,-6.61,-11.97,-6.61,-11.96,11.96,11.71,12.00,5.34,5.35,5.36
27.77,-6.50,-11.84,-6.50,-11.84,11.84,11.59,12.25,5.34,5.34,5.34
28.05,-6.39,-11.72,-6.40,-11.72,11.72,11.48,12.49,5.33,5.33,5.33
28.33,-6.29,-11.60,-6.29,-11.60,11.60,11.37,12.73,5.31,5.31,5.31
28.62,-6.18,-11.48,-6.19,-11.48,11.49,11.25,12.96,5.30,5.30,5.30
28.90,-6.09,-11.37,-6.09,-11.37,11.37,11.14,13.17,5.28,5.28,5.28
29.19,-5.99,-11.25,-5.99,-11.25,11.26,11.03,13.36,5.26,5.27,5.26
29.48,-5.88,-11.14,-5.89,-11.14,11.14,10.92,13.54,5.26,5.25,5.26
29.78,-5.78,-11.03,-5.79,-11.03,11.03,10.80,13.70,5.24,5.24,5.25
30.08,-5.68,-10.92,-5.68,-10.92,10.91,10.69,13.83,5.23,5.23,5.24
30.38,-5.58,-10.80,-5.58,-10.80,10.80,10.58,13.93,5.21,5.22,5.22
30.68,-5.47,-10.68,-5.48,-10.68,10.68,10.47,14.00,5.21,5.21,5.21
30.99,-5.37,-10.55,-5.38,-10.56,10.57,10.36,14.04,5.19,5.19,5.18
31.30,-5.28,-10.45,-5.28,-10.45,10.45,10.25,14.05,5.17,5.18,5.17
31.61,-5.18,-10.34,-5.19,-10.34,10.34,10.14,14.03,5.16,5.15,5.16
31.93,-5.09,-10.23,-5.09,-10.23,10.23,10.03,13.97,5.13,5.13,5.14
32.24,-5.00,-10.11,-5.00,-10.12,10.11,9.93,13.89,5.11,5.11,5.11
32.57,-4.91,-10.00,-4.91,-10.00,10.00,9.82,13.78,5.09,5.09,5.09
32.89,-4.82,-9.90,-4.82,-9.89,9.89,9.71,13.64,5.07,5.07,5.08
33.22,-4.72,-9.77,-4.73,-9.78,9.78,9.60,13.47,5.06,5.05,5.05
33.55,-4.63,-9.67,-4.63,-9.67,9.67,9.50,13.29,5.04,5.03,5.04
33.89,-4.54,-9.55,-4.54,-9.55,9.55,9.39,13.09,5.01,5.01,5.01
34.23,-4.45,-9.44,-4.45,-9.44,9.44,9.29,12.88,4.99,4.99,4.99
34.57,-4.36,-9.33,-4.36,-9.33,9.33,9.18,12.66,4.97,4.97,4.97
34.92,-4.27,-9.22,-4.27,-9.22,9.22,9.08,12.42,4.94,4.95,4.95
35.27,-4.17,-9.10,-4.18,-9.11,9.11,8.97,12.18,4.93,4.93,4.93
35.62,-4.08,-8.99,-4.08,-8.99,9.00,8.87,11.94,4.91,4.91,4.91
35.97,-4.00,-8.89,-4.00,-8.89,8.89,8.77,11.69,4.89,4.89,4.89
36.33,-3.90,-8.77,-3.91,-8.78,8.78,8.66,11.45,4.88,4.87,4.87
36.70,-3.83,-8.68,-3.82,-8.67,8.67,8.56,11.20,4.84,4.85,4.85
37.06,-3.73,-8.56,-3.74,-8.57,8.57,8.46,10.96,4.83,4.83,4.83
37.43,-3.65,-8.46,-3.65,-8.46,8.46,8.36,10.71,4.81,4.80,4.81
37.81,-3.57,-8.36,-3.57,-8.35,8.35,8.26,10.47,4.78,4.79,4.79
38.19,-3.48,-8.24,-3.49,-8.25,8.25,8.16,10.24,4.77,4.76,4.76
38.57,-3.40,-8.15,-3.40,-8.15,8.15,8.06,10.01,4.74,4.74,4.75
38.95,-3.32,-8.04,-3.32,-8.04,8.05,7.96,9.78,4.72,4.72,4.72
39.34,-3.24,-7.94,-3.24,-7.94,7.94,7.86,9.56,4.70,4.70,4.70
39.74,-3.16,-7.84,-3.16,-7.84,7.84,7.77,9.34,4.68,4.68,4.68
40.14,-3.08,-7.75,-3.08,-7.75,7.74,7.67,9.13,4.66,4.66,4.67
40.54,-3.00,-7.65,-3.00,-7.65,7.65,7.57,8.93,4.64,4.64,4.65
40.94,-2.92,-7.55,-2.92,-7.55,7.55,7.48,8.72,4.63,4.63,4.63
41.35,-2.84,-7.44,-2.84,-7.45,7.46,7.39,8.53,4.61,4.62,4.60
41.76,-2.76,-7.36,-2.77,-7.36,7.36,7.29,8.34,4.60,4.60,4.60
42.18,-2.69,-7.27,-2.69,-7.27,7.27,7.20,8.15,4.58,4.58,4.58
42.60,-2.62,-7.18,-2.62,-7.18,7.18,7.11,7.97,4.55,4.56,4.56
43.03,-2.54,-7.09,-2.55,-7.09,7.08,7.01,7.80,4.54,4.54,4.55
43.46,-2.47,-6.99,-2.47,-6.99,6.99,6.92,7.63,4.52,4.52,4.52
43.90,-2.39,-6.89,-2.40,-6.90,6.90,6.83,7.47,4.50,4.50,4.50
44.33,-2.32,-6.80,-2.32,-6.80,6.80,6.74,7.31,4.48,4.48,4.48
44.78,-2.25,-6.71,-2.25,-6.71,6.71,6.65,7.15,4.46,4.46,4.46
45.23,-2.18,-6.61,-2.18,-6.61,6.62,6.57,7.00,4.43,4.44,4.43
45.68,-2.11,-6.52,-2.11,-6.52,6.53,6.48,6.86,4.42,4.42,4.41
46.13,-2.03,-6.43,-2.04,-6.44,6.44,6.39,6.72,4.41,4.40,4.40
46.60,-1.97,-6.36,-1.97,-6.35,6.36,6.30,6.58,4.38,4.39,4.39
47.06,-1.90,-6.27,-1.90,-6.27,6.27,6.22,6.45,4.37,4.37,4.37
47.53,-1.84,-6.19,-1.84,-6.19,6.19,6.13,6.32,4.34,4.35,4.35
48.01,-1.77,-6.11,-1.77,-6.11,6.10,6.05,6.20,4.33,4.33,4.34
48.49,-1.71,-6.02,-1.71,-6.02,6.02,5.97,6.08,4.31,4.30,4.31
48.97,-1.65,-5.93,-1.66,-5.94,5.94,5.88,5.96,4.28,4.28,4.28
49.46,-1.60,-5.85,-1.60,-5.85,5.85,5.80,5.85,4.25,4.25,4.25
49.96,-1.54,-5.76,-1.54,-5.77,5.77,5.72,5.74,4.23,4.23,4.22
50.46,-1.47,-5.68,-1.48,-5.68,5.69,5.64,5.64,4.21,4.21,4.21
50.96,-1.42,-5.61,-1.42,-5.60,5.61,5.56,5.53,4.18,4.19,4.19
51.47,-1.36,-5.52,-1.37,-5.53,5.53,5.48,5.43,4.17,4.16,4.16
51.99,-1.31,-5.45,-1.31,-5.45,5.45,5.41,5.34,4.14,4.14,4.14
52.51,-1.26,-5.38,-1.26,-5.38,5.37,5.33,5.25,4.11,4.11,4.12
53.03,-1.20,-5.30,-1.21,-5.30,5.30,5.25,5.15,4.10,4.09,4.10
53.56,-1.15,-5.22,-1.15,-5.22,5.22,5.18,5.07,4.07,4.07,4.07
54.10,-1.09,-5.14,-1.10,-5.15,5.15,5.10,4.98,4.05,4.05,4.05
54.64,-1.05,-5.07,-1.05,-5.07,5.07,5.03,4.90,4.02,4.02,4.02
55.18,-1.00,-5.00,-1.00,-5.00,5.00,4.95,4.82,4.00,4.00,4.00
55.74,-0.95,-4.92,-0.96,-4.93,4.93,4.88,4.74,3.97,3.97,3.97
56.29,-0.91,-4.86,-0.91,-4.85,4.85,4.81,4.66,3.94,3.94,3.95
56.86,-0.86,-4.78,-0.86,-4.78,4.78,4.74,4.58,3.92,3.92,3.92
57.42,-0.81,-4.71,-0.82,-4.72,4.72,4.67,4.51,3.91,3.90,3.90
58.00,-0.77,-4.65,-0.77,-4.65,4.65,4.60,4.43,3.88,3.88,3.88
58.58,-0.73,-4.58,-0.73,-4.59,4.59,4.53,4.36,3.86,3.86,3.85
59.16,-0.69,-4.52,-0.70,-4.52,4.53,4.46,4.29,3.83,3.83,3.83
59.76,-0.66,-4.47,-0.66,-4.47,4.46,4.39,4.22,3.80,3.80,3.81
60.35,-0.62,-4.40,-0.63,-4.41,4.40,4.33,4.15,3.77,3.77,3.78
60.96,-0.59,-4.35,-0.59,-4.34,4.33,4.26,4.08,3.74,3.74,3.76
61.57,-0.55,-4.27,-0.55,-4.27,4.27,4.20,4.01,3.72,3.72,3.72
62.18,-0.51,-4.20,-0.52,-4.21,4.21,4.13,3.94,3.70,3.69,3.69
62.80,-0.48,-4.14,-0.49,-4.14,4.15,4.07,3.88,3.67,3.67,3.66
63.43,-0.46,-4.09,-0.46,-4.09,4.09,4.01,3.81,3.63,3.64,3.63
64.07,-0.43,-4.03,-0.43,-4.03,4.04,3.95,3.74,3.61,3.61,3.60
64.71,-0.40,-3.98,-0.41,-3.99,3.99,3.88,3.68,3.58,3.58,3.58
65.35,-0.38,-3.94,-0.38,-3.94,3.94,3.82,3.61,3.55,3.55,3.56
66.01,-0.36,-3.90,-0.36,-3.89,3.89,3.76,3.55,3.53,3.53,3.54
66.67,-0.33,-3.84,-0.33,-3.85,3.84,3.71,3.48,3.51,3.51,3.51
67.33,-0.30,-3.79,-0.31,-3.80,3.80,3.65,3.42,3.49,3.49,3.49
68.01,-0.29,-3.75,-0.29,-3.75,3.75,3.59,3.35,3.46,3.46,3.46
68.69,-0.26,-3.70,-0.27,-3.70,3.71,3.53,3.29,3.44,3.44,3.44
69.37,-0.25,-3.66,-0.25,-3.66,3.66,3.48,3.23,3.41,3.41,3.41
70.07,-0.23,-3.61,-0.23,-3.61,3.62,3.42,3.17,3.38,3.38,3.38
70.77,-0.21,-3.57,-0.22,-3.57,3.57,3.37,3.10,3.36,3.35,3.36
71.48,-0.20,-3.53,-0.20,-3.53,3.53,3.31,3.04,3.32,3.32,3.33
72.19,-0.19,-3.49,-0.19,-3.49,3.48,3.26,2.98,3.29,3.29,3.30
72.91,-0.17,-3.43,-0.18,-3.44,3.44,3.21,2.92,3.26,3.26,3.26
73.64,-0.16,-3.39,-0.16,-3.39,3.39,3.16,2.87,3.23,3.23,3.23
74.38,-0.15,-3.35,-0.15,-3.34,3.35,3.11,2.81,3.19,3.20,3.20
75.12,-0.14,-3.29,-0.14,-3.30,3.30,3.06,2.75,3.16,3.16,3.15
75.87,-0.13,-3.25,-0.14,-3.26,3.26,3.01,2.70,3.12,3.12,3.12
76.63,-0.13,-3.22,-0.13,-3.21,3.21,2.96,2.64,3.08,3.08,3.09
77.40,-0.12,-3.17,-0.12,-3.17,3.17,2.91,2.59,3.05,3.04,3.05
78.17,-0.12,-3.11,-0.12,-3.12,3.12,2.86,2.54,3.00,3.00,2.99
78.95,-0.11,-3.08,-0.12,-3.08,3.08,2.82,2.49,2.97,2.96,2.97
79.74,-0.11,-3.04,-0.11,-3.04,3.03,2.77,2.44,2.92,2.92,2.93
80.54,-0.11,-2.99,-0.11,-2.99,2.99,2.73,2.39,2.87,2.88,2.88
81.35,-0.10,-2.94,-0.11,-2.94,2.94,2.68,2.34,2.84,2.84,2.84
82.16,-0.10,-2.89,-0.10,-2.89,2.90,2.64,2.29,2.79,2.79,2.79
82.98,-0.10,-2.85,-0.10,-2.85,2.85,2.59,2.25,2.75,2.75,2.75
83.81,-0.10,-2.79,-0.11,-2.80,2.80,2.55,2.21,2.70,2.70,2.69
84.65,-0.11,-2.76,-0.11,-2.76,2.76,2.51,2.16,2.65,2.65,2.65
85.50,-0.11,-2.72,-0.11,-2.72,2.71,2.47,2.12,2.60,2.60,2.61
86.35,-0.11,-2.67,-0.12,-2.67,2.67,2.43,2.08,2.56,2.55,2.56
87.22,-0.12,-2.63,-0.12,-2.63,2.63,2.39,2.04,2.50,2.51,2.51
88.09,-0.12,-2.57,-0.13,-2.58,2.58,2.35,2.00,2.46,2.46,2.45
88.97,-0.13,-2.54,-0.13,-2.54,2.54,2.31,1.97,2.41,2.41,2.41
89.86,-0.14,-2.50,-0.14,-2.50,2.50,2.27,1.93,2.35,2.36,2.36
90.76,-0.15,-2.45,-0.15,-2.45,2.45,2.23,1.90,2.30,2.30,2.30
91.66,-0.16,-2.41,-0.16,-2.41,2.41,2.19,1.86,2.25,2.25,2.25
92.58,-0.17,-2.36,-0.17,-2.37,2.37,2.16,1.83,2.19,2.20,2.19
93.51,-0.18,-2.33,-0.18,-2.33,2.32,2.12,1.80,2.14,2.14,2.15
94.44,-0.18,-2.28,-0.19,-2.28,2.28,2.09,1.77,2.10,2.09,2.10
95.39,-0.19,-2.23,-0.20,-2.23,2.23,2.05,1.74,2.04,2.04,2.04
96.34,-0.21,-2.18,-0.21,-2.19,2.19,2.02,1.71,1.97,1.98,1.97
97.30,-0.22,-2.14,-0.22,-2.14,2.14,1.98,1.69,1.91,1.91,1.92
98.28,-0.23,-2.09,-0.23,-2.09,2.09,1.95,1.66,1.86,1.86,1.86
99.26,-0.24,-2.03,-0.24,-2.04,2.04,1.92,1.63,1.80,1.80,1.79
100.25,-0.25,-1.99,-0.26,-1.99,1.99,1.89,1.61,1.74,1.74,1.74
101.25,-0.27,-1.95,-0.27,-1.94,1.94,1.85,1.58,1.67,1.67,1.68
102.27,-0.28,-1.89,-0.29,-1.90,1.90,1.82,1.56,1.61,1.61,1.61
103.29,-0.30,-1.84,-0.30,-1.85,1.85,1.79,1.54,1.55,1.55,1.54
104.32,-0.31,-1.80,-0.32,-1.80,1.80,1.76,1.52,1.49,1.49,1.49
105.37,-0.33,-1.76,-0.33,-1.76,1.75,1.73,1.50,1.42,1.42,1.43
106.42,-0.35,-1.71,-0.35,-1.71,1.71,1.71,1.48,1.35,1.36,1.36
107.48,-0.37,-1.66,-0.37,-1.66,1.66,1.68,1.46,1.29,1.29,1.29
108.56,-0.38,-1.60,-0.39,-1.61,1.61,1.65,1.44,1.23,1.22,1.22
109.64,-0.40,-1.56,-0.40,-1.56,1.56,1.62,1.42,1.16,1.16,1.16
110.74,-0.41,-1.51,-0.42,-1.51,1.51,1.60,1.40,1.10,1.09,1.10
111.85,-0.43,-1.46,-0.43,-1.46,1.46,1.57,1.38,1.02,1.02,1.03
112.97,-0.45,-1.40,-0.45,-1.41,1.40,1.54,1.36,0.95,0.95,0.95
114.10,-0.47,-1.36,-0.47,-1.36,1.35,1.52,1.34,0.88,0.88,0.89
115.24,-0.48,-1.30,-0.48,-1.30,1.30,1.49,1.33,0.82,0.82,0.82
116.39,-0.49,-1.24,-0.50,-1.25,1.25,1.47,1.31,0.76,0.75,0.75
117.55,-0.51,-1.19,-0.51,-1.19,1.20,1.44,1.29,0.69,0.69,0.68
118.73,-0.53,-1.15,-0.53,-1.15,1.15,1.42,1.27,0.62,0.62,0.62
119.92,-0.55,-1.11,-0.55,-1.11,1.11,1.40,1.26,0.56,0.56,0.56
121.12,-0.57,-1.07,-0.57,-1.07,1.07,1.38,1.24,0.50,0.50,0.50
122.33,-0.59,-1.02,-0.59,-1.03,1.03,1.35,1.22,0.44,0.44,0.43
123.55,-0.61,-0.99,-0.61,-0.99,0.99,1.33,1.20,0.38,0.38,0.38
124.79,-0.63,-0.95,-0.63,-0.95,0.95,1.31,1.18,0.32,0.32,0.32
126.03,-0.65,-0.92,-0.65,-0.92,0.91,1.29,1.17,0.26,0.26,0.27
127.29,-0.67,-0.88,-0.67,-0.88,0.87,1.27,1.15,0.20,0.20,0.21
128.57,-0.69,-0.83,-0.69,-0.84,0.84,1.25,1.13,0.14,0.15,0.14
129.85,-0.70,-0.79,-0.71,-0.80,0.80,1.23,1.11,0.10,0.09,0.09
131.15,-0.73,-0.77,-0.73,-0.76,0.76,1.21,1.09,0.03,0.04,0.04
132.46,-0.74,-0.72,-0.75,-0.73,0.73,1.19,1.07,-0.01,-0.01,-0.02
133.79,-0.76,-0.70,-0.76,-0.70,0.70,1.17,1.05,-0.06,-0.07,-0.06
135.12,-0.78,-0.66,-0.78,-0.67,0.67,1.15,1.03,-0.11,-0.11,-0.12
136.48,-0.80,-0.65,-0.80,-0.65,0.65,1.14,1.02,-0.16,-0.16,-0.15
137.84,-0.82,-0.63,-0.82,-0.62,0.62,1.12,1.00,-0.20,-0.20,-0.19
139.22,-0.83,-0.59,-0.84,-0.60,0.60,1.10,0.98,-0.23,-0.23,-0.24
140.61,-0.85,-0.57,-0.85,-0.58,0.58,1.09,0.96,-0.27,-0.27,-0.28
142.02,-0.87,-0.57,-0.87,-0.57,0.57,1.07,0.94,-0.31,-0.31,-0.30
143.44,-0.89,-0.56,-0.89,-0.55,0.55,1.05,0.92,-0.34,-0.34,-0.33
144.87,-0.90,-0.53,-0.90,-0.54,0.54,1.04,0.90,-0.37,-0.37,-0.37
146.32,-0.91,-0.51,-0.92,-0.52,0.52,1.02,0.88,-0.39,-0.40,-0.40
147.78,-0.94,-0.52,-0.94,-0.51,0.51,1.01,0.86,-0.43,-0.42,-0.42
149.26,-0.95,-0.50,-0.96,-0.50,0.50,1.00,0.84,-0.45,-0.45,-0.45
150.75,-0.97,-0.48,-0.98,-0.49,0.49,0.98,0.82,-0.48,-0.49,-0.49
152.26,-0.99,-0.48,-0.99,-0.48,0.48,0.97,0.80,-0.51,-0.51,-0.51
153.78,-1.01,-0.47,-1.01,-0.47,0.47,0.95,0.79,-0.54,-0.54,-0.54
155.32,-1.02,-0.46,-1.03,-0.46,0.46,0.94,0.77,-0.56,-0.57,-0.56
156.88,-1.04,-0.45,-1.04,-0.45,0.45,0.93,0.75,-0.59,-0.59,-0.59
158.44,-1.06,-0.44,-1.06,-0.44,0.44,0.92,0.73,-0.62,-0.62,-0.62
160.03,-1.08,-0.43,-1.08,-0.43,0.43,0.90,0.71,-0.65,-0.65,-0.65
161.63,-1.10,-0.42,-1.10,-0.42,0.42,0.89,0.70,-0.68,-0.68,-0.68
163.24,-1.11,-0.40,-1.12,-0.41,0.41,0.88,0.68,-0.70,-0.70,-0.71
164.88,-1.13,-0.40,-1.13,-0.40,0.40,0.87,0.66,-0.73,-0.73,-0.73
166.53,-1.14,-0.39,-1.15,-0.39,0.39,0.86,0.65,-0.75,-0.76,-0.75
168.19,-1.16,-0.37,-1.16,-0.37,0.37,0.85,0.63,-0.79,-0.79,-0.79
169.87,-1.18,-0.36,-1.18,-0.36,0.36,0.84,0.61,-0.82,-0.82,-0.82
171.57,-1.19,-0.34,-1.20,-0.35,0.34,0.83,0.60,-0.85,-0.85,-0.85
173.29,-1.21,-0.34,-1.21,-0.33,0.33,0.82,0.58,-0.89,-0.88,-0.87
175.02,-1.21,-0.30,-1.22,-0.31,0.30,0.81,0.57,-0.91,-0.91,-0.91
176.77,-1.23,-0.28,-1.23,-0.28,0.28,0.80,0.55,-0.95,-0.95,-0.95
178.54,-1.24,-0.25,-1.24,-0.26,0.26,0.79,0.54,-0.98,-0.98,-0.99
180.32,-1.26,-0.24,-1.26,-0.24,0.24,0.79,0.52,-1.03,-1.03,-1.02
182.13,-1.27,-0.22,-1.28,-0.22,0.21,0.78,0.51,-1.06,-1.06,-1.05
183.95,-1.29,-0.20,-1.29,-0.20,0.20,0.77,0.50,-1.10,-1.09,-1.09
185.79,-1.30,-0.17,-1.31,-0.17,0.18,0.76,0.48,-1.12,-1.12,-1.13
187.65,-1.32,-0.15,-1.33,-0.16,0.17,0.76,0.47,-1.15,-1.16,-1.17
189.52,-1.36,-0.16,-1.35,-0.16,0.17,0.75,0.46,-1.20,-1.19,-1.20
191.42,-1.38,-0.16,-1.38,-0.16,0.16,0.74,0.44,-1.22,-1.22,-1.22
193.33,-1.41,-0.17,-1.42,-0.17,0.17,0.74,0.43,-1.25,-1.25,-1.24
195.27,-1.45,-0.18,-1.45,-0.18,0.17,0.73,0.42,-1.28,-1.28,-1.27
197.22,-1.49,-0.19,-1.49,-0.18,0.18,0.72,0.41,-1.31,-1.31,-1.30
199.19,-1.53,-0.18,-1.53,-0.19,0.20,0.72,0.40,-1.33,-1.33,-1.35
201.18,-1.56,-0.20,-1.57,-0.21,0.21,0.71,0.39,-1.35,-1.36,-1.36
203.19,-1.61,-0.23,-1.61,-0.23,0.23,0.71,0.38,-1.38,-1.38,-1.38
205.23,-1.65,-0.25,-1.65,-0.25,0.24,0.70,0.37,-1.41,-1.41,-1.40
207.28,-1.68,-0.27,-1.69,-0.27,0.26,0.70,0.36,-1.42,-1.43,-1.41
209.35,-1.72,-0.28,-1.72,-0.28,0.27,0.70,0.35,-1.45,-1.44,-1.44
211.44,-1.74,-0.28,-1.75,-0.29,0.29,0.69,0.34,-1.45,-1.46,-1.46
213.56,-1.77,-0.29,-1.78,-0.30,0.30,0.69,0.33,-1.47,-1.47,-1.48
215.69,-1.80,-0.32,-1.80,-0.32,0.31,0.69,0.32,-1.49,-1.49,-1.48
217.85,-1.83,-0.34,-1.83,-0.33,0.33,0.68,0.31,-1.51,-1.50,-1.49
220.03,-1.85,-0.33,-1.85,-0.34,0.34,0.68,0.31,-1.51,-1.51,-1.52
222.23,-1.87,-0.34,-1.87,-0.35,0.35,0.68,0.30,-1.52,-1.52,-1.53
224.45,-1.89,-0.37,-1.89,-0.36,0.37,0.68,0.29,-1.52,-1.52,-1.52
226.70,-1.91,-0.38,-1.91,-0.38,0.39,0.67,0.29,-1.53,-1.53,-1.53
228.96,-1.93,-0.40,-1.93,-0.41,0.41,0.67,0.28,-1.53,-1.53,-1.53
231.25,-1.95,-0.43,-1.95,-0.43,0.42,0.67,0.28,-1.53,-1.53,-1.52
233.57,-1.96,-0.45,-1.96,-0.45,0.44,0.67,0.28,-1.52,-1.52,-1.51
235.90,-1.97,-0.46,-1.97,-0.46,0.47,0.67,0.28,-1.51,-1.51,-1.51
238.26,-1.98,-0.47,-1.98,-0.48,0.49,0.67,0.28,-1.50,-1.50,-1.51
240.64,-1.99,-0.50,-1.99,-0.50,0.50,0.67,0.28,-1.49,-1.49,-1.49
243.05,-1.99,-0.52,-2.00,-0.52,0.52,0.67,0.28,-1.47,-1.47,-1.47
245.48,-1.99,-0.54,-1.99,-0.53,0.54,0.67,0.28,-1.46,-1.46,-1.45
247.93,-1.98,-0.54,-1.98,-0.54,0.54,0.67,0.28,-1.44,-1.44,-1.44
250.41,-1.96,-0.53,-1.97,-0.55,0.55,0.67,0.28,-1.42,-1.42,-1.43
252.92,-1.94,-0.55,-1.94,-0.55,0.54,0.67,0.29,-1.40,-1.40,-1.39
255.45,-1.91,-0.54,-1.91,-0.54,0.52,0.68,0.29,-1.39,-1.39,-1.37
258.00,-1.86,-0.51,-1.86,-0.51,0.49,0.68,0.30,-1.37,-1.37,-1.35
260.58,-1.79,-0.46,-1.80,-0.47,0.45,0.68,0.31,-1.34,-1.34,-1.33
263.19,-1.72,-0.41,-1.72,-0.41,0.40,0.68,0.31,-1.32,-1.32,-1.31
265.82,-1.64,-0.35,-1.64,-0.35,0.35,0.69,0.32,-1.30,-1.29,-1.29
268.48,-1.55,-0.29,-1.55,-0.29,0.28,0.69,0.33,-1.27,-1.27,-1.26
271.16,-1.45,-0.22,-1.46,-0.22,0.22,0.69,0.34,-1.23,-1.24,-1.23
273.87,-1.37,-0.16,-1.37,-0.16,0.16,0.70,0.36,-1.21,-1.21,-1.21
276.61,-1.29,-0.11,-1.29,-0.11,0.12,0.70,0.37,-1.17,-1.18,-1.18
279.38,-1.23,-0.07,-1.23,-0.07,0.09,0.71,0.38,-1.15,-1.15,-1.16
282.17,-1.19,-0.05,-1.19,-0.06,0.07,0.71,0.40,-1.12,-1.12,-1.14
284.99,-1.17,-0.06,-1.18,-0.06,0.08,0.72,0.41,-1.09,-1.10,-1.11
287.84,-1.18,-0.09,-1.18,-0.09,0.11,0.72,0.43,-1.08,-1.07,-1.09
290.72,-1.19,-0.14,-1.20,-0.14,0.15,0.73,0.44,-1.04,-1.05,-1.05
293.63,-1.23,-0.20,-1.24,-0.21,0.21,0.73,0.46,-1.02,-1.03,-1.03
296.57,-1.29,-0.29,-1.29,-0.28,0.29,0.74,0.48,-1.01,-1.00,-1.00
299.53,-1.34,-0.37,-1.35,-0.37,0.37,0.75,0.50,-0.97,-0.98,-0.97
302.53,-1.40,-0.45,-1.40,-0.46,0.45,0.75,0.52,-0.95,-0.95,-0.95
305.55,-1.46,-0.56,-1.46,-0.55,0.54,0.76,0.54,-0.92,-0.92,-0.90
308.61,-1.50,-0.63,-1.51,-0.64,0.62,0.77,0.56,-0.88,-0.88,-0.87
311.69,-1.54,-0.71,-1.55,-0.71,0.70,0.78,0.58,-0.84,-0.84,-0.83
314.81,-1.58,-0.78,-1.58,-0.78,0.78,0.79,0.60,-0.81,-0.80,-0.80
317.96,-1.61,-0.84,-1.61,-0.84,0.84,0.79,0.62,-0.77,-0.77,-0.77
321.14,-1.64,-0.90,-1.64,-0.90,0.90,0.80,0.65,-0.74,-0.74,-0.74
324.35,-1.67,-0.95,-1.67,-0.96,0.96,0.81,0.67,-0.72,-0.71,-0.72
327.59,-1.69,-1.01,-1.69,-1.01,1.01,0.82,0.69,-0.68,-0.69,-0.68
330.87,-1.71,-1.06,-1.71,-1.06,1.06,0.83,0.72,-0.66,-0.66,-0.65
334.18,-1.73,-1.10,-1.73,-1.10,1.10,0.85,0.75,-0.63,-0.63,-0.63
337.52,-1.74,-1.13,-1.74,-1.14,1.14,0.86,0.77,-0.60,-0.60,-0.61
340.90,-1.75,-1.17,-1.76,-1.17,1.18,0.87,0.80,-0.58,-0.58,-0.58
344.30,-1.77,-1.21,-1.77,-1.21,1.21,0.88,0.83,-0.56,-0.56,-0.56
347.75,-1.78,-1.25,-1.78,-1.25,1.25,0.89,0.86,-0.54,-0.54,-0.53
351.23,-1.79,-1.28,-1.79,-1.28,1.28,0.91,0.88,-0.51,-0.52,-0.51
354.74,-1.80,-1.30,-1.80,-1.31,1.31,0.92,0.91,-0.50,-0.50,-0.50
358.28,-1.81,-1.33,-1.81,-1.33,1.33,0.93,0.94,-0.48,-0.48,-0.48
361.87,-1.82,-1.36,-1.82,-1.36,1.36,0.95,0.98,-0.46,-0.46,-0.46
365.49,-1.82,-1.39,-1.82,-1.39,1.38,0.96,1.01,-0.44,-0.44,-0.43
369.14,-1.82,-1.40,-1.82,-1.40,1.40,0.98,1.04,-0.42,-0.42,-0.42
372.83,-1.82,-1.41,-1.82,-1.41,1.42,0.99,1.07,-0.41,-0.40,-0.41
376.56,-1.81,-1.42,-1.82,-1.43,1.43,1.01,1.11,-0.38,-0.38,-0.39
380.33,-1.81,-1.45,-1.81,-1.45,1.45,1.02,1.14,-0.36,-0.36,-0.36
384.13,-1.80,-1.46,-1.81,-1.46,1.46,1.04,1.18,-0.34,-0.34,-0.34
387.97,-1.80,-1.48,-1.80,-1.48,1.48,1.06,1.21,-0.32,-0.32,-0.32
391.85,-1.79,-1.49,-1.79,-1.49,1.49,1.08,1.25,-0.30,-0.30,-0.30
395.77,-1.78,-1.51,-1.78,-1.51,1.50,1.09,1.28,-0.28,-0.28,-0.27
399.73,-1.76,-1.51,-1.77,-1.51,1.51,1.11,1.32,-0.25,-0.26,-0.25
403.72,-1.76,-1.52,-1.76,-1.52,1.52,1.13,1.35,-0.24,-0.24,-0.24
407.76,-1.75,-1.53,-1.75,-1.53,1.53,1.15,1.39,-0.22,-0.22,-0.22
411.84,-1.73,-1.54,-1.74,-1.54,1.54,1.17,1.43,-0.19,-0.20,-0.19
415.96,-1.71,-1.54,-1.72,-1.55,1.55,1.19,1.46,-0.17,-0.17,-0.17
420.12,-1.70,-1.55,-1.70,-1.55,1.55,1.21,1.50,-0.15,-0.15,-0.15
424.32,-1.68,-1.56,-1.68,-1.56,1.56,1.23,1.54,-0.13,-0.13,-0.12
428.56,-1.66,-1.56,-1.66,-1.56,1.56,1.25,1.57,-0.10,-0.10,-0.10
432.85,-1.64,-1.56,-1.64,-1.57,1.56,1.28,1.61,-0.08,-0.08,-0.08
437.18,-1.62,-1.57,-1.62,-1.57,1.57,1.30,1.64,-0.05,-0.05,-0.05
441.55,-1.60,-1.58,-1.60,-1.57,1.58,1.32,1.68,-0.03,-0.03,-0.02
445.96,-1.58,-1.58,-1.58,-1.58,1.58,1.34,1.71,0.00,-0.00,-0.00
450.42,-1.56,-1.57,-1.57,-1.59,1.59,1.37,1.74,0.03,0.02,0.01
454.93,-1.56,-1.61,-1.56,-1.60,1.61,1.39,1.77,0.04,0.05,0.05
459.48,-1.54,-1.61,-1.55,-1.62,1.62,1.42,1.80,0.08,0.07,0.07
464.07,-1.53,-1.63,-1.53,-1.64,1.63,1.44,1.83,0.10,0.10,0.10
468.71,-1.52,-1.66,-1.52,-1.65,1.65,1.47,1.86,0.13,0.13,0.14
