frequency,raw,error,smoothed,error_smoothed,equalization,parametric_eq,fixed_band_eq,equalized_raw,equalized_smoothed,target
20.00,-17.46,-14.35,-17.17,-14.10,14.10,13.03,4.14,-3.36,-3.07,-3.10
20.20,-17.20,-14.14,-17.05,-14.01,14.01,12.91,4.25,-3.19,-3.04,-3.05
20.40,-16.92,-13.92,-16.92,-13.91,13.91,12.80,4.36,-3.01,-3.00,-3.00
20.61,-16.67,-13.70,-16.78,-13.81,13.81,12.68,4.48,-2.86,-2.97,-2.98
20.81,-16.40,-13.48,-16.64,-13.70,13.70,12.57,4.60,-2.70,-2.94,-2.93
21.02,-16.16,-13.27,-16.49,-13.58,13.58,12.45,4.72,-2.57,-2.91,-2.89
21.23,-16.11,-13.24,-16.35,-13.46,13.46,12.34,4.85,-2.65,-2.89,-2.87
21.44,-16.05,-13.20,-16.19,-13.33,13.33,12.22,4.98,-2.72,-2.87,-2.85
21.66,-16.00,-13.17,-16.03,-13.19,13.19,12.11,5.11,-2.81,-2.85,-2.83
21.87,-15.93,-13.12,-15.87,-13.04,13.04,12.00,5.25,-2.89,-2.83,-2.82
22.09,-15.84,-13.05,-15.70,-12.89,12.89,11.88,5.39,-2.96,-2.81,-2.80
22.31,-15.70,-12.91,-15.53,-12.73,12.73,11.77,5.54,-2.97,-2.80,-2.79
22.54,-15.57,-12.78,-15.36,-12.56,12.56,11.66,5.68,-3.01,-2.79,-2.79
22.76,-15.43,-12.63,-15.18,-12.39,12.39,11.54,5.84,-3.04,-2.79,-2.79
22.99,-15.29,-12.48,-15.00,-12.21,12.21,11.43,5.99,-3.08,-2.79,-2.80
23.22,-14.94,-12.13,-14.81,-12.03,12.03,11.32,6.15,-2.91,-2.79,-2.80
23.45,-14.57,-11.77,-14.62,-11.83,11.83,11.20,6.32,-2.74,-2.79,-2.80
23.69,-14.23,-11.44,-14.41,-11.62,11.62,11.09,6.49,-2.61,-2.79,-2.79
23.92,-13.85,-11.06,-14.20,-11.41,11.41,10.98,6.66,-2.44,-2.79,-2.79
24.16,-13.71,-10.92,-14.00,-11.22,11.22,10.86,6.83,-2.49,-2.79,-2.79
24.40,-13.66,-10.88,-13.82,-11.03,11.03,10.75,7.01,-2.62,-2.79,-2.78
24.65,-13.61,-10.82,-13.66,-10.87,10.87,10.63,7.19,-2.74,-2.79,-2.79
24.89,-13.55,-10.77,-13.52,-10.73,10.73,10.52,7.38,-2.82,-2.79,-2.79
25.14,-13.46,-10.68,-13.39,-10.60,10.60,10.41,7.56,-2.86,-2.79,-2.79
25.39,-13.33,-10.55,-13.27,-10.48,10.48,10.29,7.75,-2.86,-2.79,-2.78
25.65,-13.21,-10.43,-13.15,-10.37,10.37,10.17,7.94,-2.84,-2.79,-2.78
25.91,-13.08,-10.29,-13.05,-10.26,10.26,10.06,8.14,-2.82,-2.79,-2.79
26.16,-12.98,-10.18,-12.95,-10.16,10.16,9.94,8.33,-2.81,-2.79,-2.79
26.43,-12.91,-10.11,-12.85,-10.06,10.06,9.82,8.53,-2.85,-2.79,-2.80
26.69,-12.83,-10.03,-12.74,-9.94,9.94,9.70,8.72,-2.88,-2.79,-2.80
26.96,-12.75,-9.96,-12.61,-9.81,9.81,9.59,8.91,-2.93,-2.80,-2.79
27.23,-12.55,-9.76,-12.48,-9.68,9.68,9.47,9.10,-2.87,-2.80,-2.79
27.50,-12.33,-9.54,-12.35,-9.55,9.55,9.34,9.29,-2.78,-2.80,-2.79
27.77,-12.09,-9.29,-12.21,-9.41,9.41,9.22,9.47,-2.68,-2.80,-2.80
28.05,-11.91,-9.10,-12.09,-9.28,9.28,9.10,9.65,-2.62,-2.80,-2.80
28.33,-11.85,-9.03,-11.96,-9.16,9.16,8.97,9.82,-2.69,-2.81,-2.82
28.62,-11.80,-8.98,-11.84,-9.03,9.03,8.85,9.98,-2.77,-2.81,-2.82
28.90,-11.74,-8.93,-11.71,-8.90,8.90,8.72,10.13,-2.84,-2.81,-2.81
29.19,-11.63,-8.81,-11.57,-8.76,8.76,8.59,10.27,-2.87,-2.81,-2.82
29.48,-11.50,-8.69,-11.43,-8.62,8.62,8.46,10.39,-2.88,-2.81,-2.80
29.78,-11.37,-8.55,-11.30,-8.48,8.48,8.33,10.50,-2.89,-2.81,-2.81
30.08,-11.24,-8.43,-11.17,-8.35,8.35,8.20,10.59,-2.89,-2.82,-2.81
30.38,-11.10,-8.28,-11.05,-8.23,8.23,8.07,10.67,-2.87,-2.82,-2.82
30.68,-10.96,-8.14,-10.93,-8.11,8.11,7.94,10.73,-2.85,-2.82,-2.82
30.99,-10.83,-8.00,-10.81,-7.99,7.99,7.81,10.76,-2.84,-2.82,-2.82
31.30,-10.66,-7.83,-10.69,-7.87,7.87,7.69,10.78,-2.79,-2.82,-2.83
31.61,-10.50,-7.67,-10.57,-7.74,7.74,7.56,10.78,-2.76,-2.83,-2.83
31.93,-10.34,-7.51,-10.44,-7.61,7.61,7.44,10.76,-2.73,-2.83,-2.83
32.24,-10.25,-7.40,-10.33,-7.49,7.49,7.32,10.72,-2.76,-2.84,-2.84
32.57,-10.18,-7.34,-10.22,-7.38,7.38,7.20,10.66,-2.80,-2.84,-2.84
32.89,-10.11,-7.27,-10.11,-7.26,7.26,7.09,10.59,-2.84,-2.85,-2.84
33.22,-10.05,-7.19,-10.01,-7.16,7.16,6.99,10.49,-2.89,-2.85,-2.85
33.55,-9.98,-7.12,-9.92,-7.06,7.06,6.89,10.39,-2.91,-2.86,-2.85
33.89,-9.92,-7.05,-9.84,-6.98,6.98,6.80,10.27,-2.94,-2.86,-2.87
34.23,-9.82,-6.96,-9.76,-6.89,6.89,6.72,10.14,-2.92,-2.87,-2.86
34.57,-9.70,-6.82,-9.69,-6.81,6.81,6.65,10.00,-2.88,-2.87,-2.88
34.92,-9.59,-6.71,-9.61,-6.74,6.74,6.58,9.86,-2.85,-2.88,-2.88
35.27,-9.51,-6.62,-9.54,-6.66,6.66,6.52,9.70,-2.84,-2.88,-2.88
35.62,-9.44,-6.55,-9.48,-6.59,6.59,6.47,9.55,-2.85,-2.88,-2.89
35.97,-9.37,-6.48,-9.40,-6.52,6.52,6.43,9.38,-2.85,-2.89,-2.89
36.33,-9.33,-6.44,-9.34,-6.45,6.45,6.39,9.22,-2.88,-2.89,-2.88
36.70,-9.30,-6.40,-9.27,-6.38,6.38,6.36,9.05,-2.92,-2.89,-2.90
37.06,-9.27,-6.36,-9.21,-6.32,6.32,6.33,8.89,-2.95,-2.89,-2.90
37.43,-9.18,-6.29,-9.15,-6.26,6.26,6.31,8.72,-2.92,-2.89,-2.89
37.81,-9.09,-6.19,-9.10,-6.21,6.21,6.28,8.56,-2.88,-2.89,-2.89
38.19,-9.04,-6.14,-9.06,-6.17,6.17,6.26,8.39,-2.87,-2.89,-2.90
38.57,-9.02,-6.12,-9.03,-6.13,6.13,6.24,8.23,-2.88,-2.90,-2.89
38.95,-8.99,-6.10,-9.00,-6.10,6.10,6.22,8.07,-2.89,-2.90,-2.89
39.34,-8.96,-6.06,-8.97,-6.07,6.07,6.20,7.92,-2.89,-2.90,-2.90
39.74,-8.92,-6.02,-8.93,-6.04,6.04,6.17,7.77,-2.88,-2.90,-2.90
40.14,-8.89,-5.99,-8.91,-6.00,6.00,6.15,7.62,-2.88,-2.90,-2.90
40.54,-8.87,-5.96,-8.87,-5.97,5.97,6.13,7.47,-2.90,-2.90,-2.90
40.94,-8.85,-5.94,-8.85,-5.94,5.94,6.11,7.33,-2.91,-2.91,-2.91
41.35,-8.85,-5.93,-8.82,-5.90,5.90,6.08,7.20,-2.94,-2.92,-2.92
41.76,-8.85,-5.92,-8.80,-5.87,5.87,6.05,7.07,-2.97,-2.92,-2.92
42.18,-8.83,-5.90,-8.78,-5.84,5.84,6.03,6.94,-2.98,-2.93,-2.92
42.60,-8.78,-5.84,-8.76,-5.82,5.82,6.00,6.82,-2.96,-2.94,-2.94
43.03,-8.74,-5.79,-8.75,-5.79,5.79,5.97,6.70,-2.95,-2.96,-2.95
43.46,-8.70,-5.74,-8.73,-5.76,5.76,5.94,6.59,-2.94,-2.97,-2.96
43.90,-8.66,-5.67,-8.70,-5.72,5.72,5.91,6.48,-2.94,-2.98,-2.99
44.33,-8.64,-5.63,-8.67,-5.67,5.67,5.88,6.38,-2.96,-3.00,-3.00
44.78,-8.63,-5.60,-8.65,-5.63,5.63,5.85,6.28,-2.99,-3.01,-3.02
45.23,-8.63,-5.59,-8.62,-5.59,5.59,5.82,6.18,-3.03,-3.03,-3.03
45.68,-8.64,-5.58,-8.60,-5.55,5.55,5.79,6.09,-3.08,-3.04,-3.05
46.13,-8.65,-5.57,-8.58,-5.52,5.52,5.76,6.01,-3.13,-3.06,-3.07
46.60,-8.65,-5.57,-8.56,-5.48,5.48,5.73,5.93,-3.16,-3.08,-3.08
47.06,-8.63,-5.53,-8.55,-5.45,5.45,5.69,5.85,-3.17,-3.09,-3.10
47.53,-8.49,-5.38,-8.54,-5.43,5.43,5.66,5.78,-3.06,-3.11,-3.11
48.01,-8.35,-5.24,-8.54,-5.41,5.41,5.63,5.71,-2.94,-3.13,-3.11
48.49,-8.45,-5.31,-8.53,-5.39,5.39,5.60,5.64,-3.06,-3.14,-3.13
48.97,-8.54,-5.38,-8.53,-5.37,5.37,5.57,5.58,-3.17,-3.16,-3.16
49.46,-8.55,-5.37,-8.52,-5.35,5.35,5.54,5.52,-3.20,-3.17,-3.18
49.96,-8.55,-5.34,-8.52,-5.33,5.33,5.51,5.46,-3.22,-3.19,-3.20
50.46,-8.55,-5.34,-8.52,-5.31,5.31,5.48,5.41,-3.23,-3.21,-3.21
50.96,-8.55,-5.32,-8.52,-5.30,5.30,5.44,5.36,-3.25,-3.22,-3.22
51.47,-8.55,-5.30,-8.52,-5.29,5.29,5.41,5.31,-3.26,-3.24,-3.25
51.99,-8.55,-5.28,-8.53,-5.28,5.28,5.38,5.27,-3.27,-3.25,-3.26
52.51,-8.55,-5.28,-8.54,-5.27,5.27,5.36,5.23,-3.27,-3.27,-3.27
53.03,-8.55,-5.27,-8.55,-5.27,5.27,5.33,5.19,-3.28,-3.28,-3.28
53.56,-8.55,-5.25,-8.56,-5.26,5.26,5.30,5.15,-3.29,-3.30,-3.29
54.10,-8.55,-5.23,-8.55,-5.24,5.24,5.27,5.11,-3.31,-3.31,-3.31
54.64,-8.55,-5.21,-8.55,-5.22,5.22,5.24,5.07,-3.33,-3.33,-3.33
55.18,-8.55,-5.21,-8.55,-5.21,5.21,5.21,5.04,-3.34,-3.34,-3.34
55.74,-8.55,-5.18,-8.54,-5.19,5.19,5.17,5.00,-3.36,-3.36,-3.36
56.29,-8.55,-5.17,-8.54,-5.16,5.16,5.14,4.96,-3.38,-3.37,-3.37
56.86,-8.55,-5.15,-8.53,-5.14,5.14,5.11,4.93,-3.40,-3.39,-3.39
57.42,-8.55,-5.12,-8.54,-5.13,5.13,5.08,4.89,-3.42,-3.41,-3.43
58.00,-8.55,-5.11,-8.54,-5.11,5.11,5.04,4.85,-3.44,-3.44,-3.44
58.58,-8.55,-5.09,-8.55,-5.08,5.08,5.01,4.82,-3.46,-3.46,-3.45
59.16,-8.55,-5.07,-8.55,-5.06,5.06,4.97,4.77,-3.49,-3.49,-3.48
59.76,-8.55,-5.04,-8.57,-5.05,5.05,4.93,4.73,-3.50,-3.52,-3.50
60.35,-8.55,-5.00,-8.59,-5.03,5.03,4.89,4.69,-3.52,-3.56,-3.55
60.96,-8.55,-4.96,-8.60,-5.01,5.01,4.85,4.64,-3.54,-3.60,-3.58
61.57,-8.55,-4.91,-8.62,-4.98,4.98,4.81,4.60,-3.57,-3.64,-3.63
62.18,-8.59,-4.91,-8.62,-4.94,4.94,4.76,4.55,-3.64,-3.68,-3.68
62.80,-8.71,-4.98,-8.62,-4.90,4.90,4.71,4.49,-3.81,-3.72,-3.73
63.43,-8.70,-4.92,-8.62,-4.85,4.85,4.66,4.44,-3.84,-3.77,-3.78
64.07,-8.64,-4.81,-8.62,-4.80,4.80,4.61,4.38,-3.84,-3.82,-3.83
64.71,-8.66,-4.77,-8.61,-4.74,4.74,4.56,4.32,-3.92,-3.87,-3.88
65.35,-8.69,-4.76,-8.60,-4.67,4.67,4.50,4.26,-4.01,-3.92,-3.93
66.01,-8.74,-4.76,-8.59,-4.61,4.61,4.44,4.20,-4.12,-3.98,-3.98
66.67,-8.55,-4.51,-8.58,-4.55,4.55,4.38,4.13,-4.00,-4.03,-4.03
67.33,-8.45,-4.36,-8.57,-4.48,4.48,4.32,4.06,-3.96,-4.08,-4.09
68.01,-8.45,-4.31,-8.54,-4.40,4.40,4.25,3.99,-4.05,-4.14,-4.14
68.69,-8.45,-4.25,-8.51,-4.31,4.31,4.19,3.92,-4.13,-4.20,-4.19
69.37,-8.45,-4.20,-8.47,-4.22,4.22,4.12,3.84,-4.22,-4.25,-4.25
70.07,-8.45,-4.14,-8.44,-4.13,4.13,4.05,3.77,-4.32,-4.31,-4.31
70.77,-8.45,-4.09,-8.42,-4.05,4.05,3.99,3.70,-4.40,-4.37,-4.36
71.48,-8.45,-4.02,-8.40,-3.96,3.96,3.92,3.62,-4.48,-4.43,-4.42
72.19,-8.45,-3.95,-8.38,-3.88,3.88,3.85,3.54,-4.57,-4.50,-4.49
72.91,-8.45,-3.89,-8.36,-3.80,3.80,3.77,3.47,-4.64,-4.56,-4.56
73.64,-8.35,-3.72,-8.35,-3.73,3.73,3.70,3.39,-4.62,-4.62,-4.62
74.38,-8.26,-3.57,-8.35,-3.66,3.66,3.63,3.31,-4.59,-4.68,-4.69
75.12,-8.22,-3.46,-8.34,-3.59,3.59,3.56,3.24,-4.63,-4.75,-4.75
75.87,-8.33,-3.51,-8.34,-3.53,3.53,3.49,3.16,-4.80,-4.81,-4.82
76.63,-8.35,-3.47,-8.35,-3.47,3.47,3.42,3.09,-4.87,-4.87,-4.88
77.40,-8.35,-3.41,-8.35,-3.42,3.42,3.35,3.01,-4.93,-4.93,-4.94
78.17,-8.35,-3.34,-8.35,-3.36,3.36,3.28,2.94,-4.99,-4.99,-5.01
78.95,-8.35,-3.30,-8.34,-3.29,3.29,3.21,2.87,-5.06,-5.05,-5.05
79.74,-8.35,-3.24,-8.34,-3.23,3.23,3.14,2.79,-5.12,-5.11,-5.11
80.54,-8.35,-3.18,-8.33,-3.17,3.17,3.07,2.72,-5.18,-5.17,-5.16
81.35,-8.35,-3.12,-8.33,-3.11,3.11,3.00,2.65,-5.23,-5.22,-5.23
82.16,-8.37,-3.09,-8.34,-3.06,3.06,2.93,2.59,-5.31,-5.28,-5.28
82.98,-8.46,-3.13,-8.34,-3.01,3.01,2.87,2.52,-5.45,-5.33,-5.33
83.81,-8.51,-3.11,-8.34,-2.94,2.94,2.80,2.46,-5.56,-5.39,-5.39
84.65,-8.34,-2.89,-8.33,-2.88,2.88,2.74,2.39,-5.46,-5.45,-5.45
85.50,-8.17,-2.67,-8.32,-2.81,2.81,2.67,2.33,-5.35,-5.51,-5.50
86.35,-8.13,-2.57,-8.32,-2.75,2.75,2.61,2.27,-5.37,-5.56,-5.56
87.22,-8.22,-2.60,-8.31,-2.69,2.69,2.55,2.21,-5.52,-5.62,-5.62
88.09,-8.35,-2.67,-8.31,-2.63,2.63,2.49,2.16,-5.72,-5.68,-5.68
88.97,-8.35,-2.61,-8.31,-2.57,2.57,2.43,2.10,-5.78,-5.74,-5.74
89.86,-8.35,-2.55,-8.31,-2.51,2.51,2.37,2.05,-5.84,-5.80,-5.80
90.76,-8.35,-2.48,-8.30,-2.44,2.44,2.31,1.99,-5.90,-5.86,-5.86
91.66,-8.35,-2.43,-8.30,-2.38,2.38,2.25,1.94,-5.97,-5.92,-5.92
92.58,-8.34,-2.35,-8.31,-2.33,2.33,2.20,1.89,-6.01,-5.98,-5.99
93.51,-8.34,-2.29,-8.33,-2.29,2.29,2.14,1.85,-6.05,-6.04,-6.04
94.44,-8.34,-2.24,-8.36,-2.26,2.26,2.09,1.80,-6.08,-6.10,-6.10
95.39,-8.35,-2.19,-8.38,-2.22,2.22,2.03,1.75,-6.13,-6.16,-6.15
96.34,-8.35,-2.13,-8.38,-2.16,2.16,1.98,1.71,-6.18,-6.22,-6.22
97.30,-8.35,-2.07,-8.37,-2.10,2.10,1.92,1.67,-6.25,-6.27,-6.28
98.28,-8.36,-2.02,-8.37,-2.04,2.04,1.87,1.62,-6.32,-6.33,-6.33
99.26,-8.38,-1.99,-8.39,-2.00,2.00,1.82,1.58,-6.37,-6.39,-6.39
100.25,-8.40,-1.95,-8.41,-1.96,1.96,1.77,1.54,-6.43,-6.45,-6.45
101.25,-8.46,-1.95,-8.42,-1.92,1.92,1.72,1.51,-6.54,-6.51,-6.50
102.27,-8.56,-1.99,-8.43,-1.86,1.86,1.67,1.47,-6.69,-6.56,-6.56
103.29,-8.43,-1.80,-8.43,-1.81,1.81,1.62,1.43,-6.62,-6.62,-6.63
104.32,-8.36,-1.68,-8.43,-1.75,1.75,1.57,1.39,-6.61,-6.68,-6.68
105.37,-8.38,-1.64,-8.43,-1.68,1.68,1.52,1.36,-6.69,-6.74,-6.73
106.42,-8.41,-1.61,-8.42,-1.62,1.62,1.47,1.33,-6.79,-6.80,-6.79
107.48,-8.45,-1.59,-8.42,-1.55,1.55,1.43,1.29,-6.89,-6.87,-6.86
108.56,-8.56,-1.63,-8.41,-1.49,1.49,1.38,1.26,-7.07,-6.93,-6.93
109.64,-8.55,-1.56,-8.39,-1.41,1.41,1.33,1.23,-7.14,-6.99,-6.99
110.74,-8.25,-1.19,-8.37,-1.32,1.32,1.29,1.19,-6.93,-7.05,-7.05
111.85,-8.24,-1.14,-8.35,-1.24,1.24,1.24,1.16,-7.00,-7.11,-7.10
112.97,-8.32,-1.14,-8.33,-1.16,1.16,1.20,1.13,-7.16,-7.17,-7.18
114.10,-8.33,-1.09,-8.32,-1.09,1.09,1.15,1.10,-7.24,-7.23,-7.23
115.24,-8.33,-1.04,-8.32,-1.03,1.03,1.11,1.07,-7.30,-7.29,-7.29
116.39,-8.33,-0.97,-8.31,-0.97,0.97,1.06,1.03,-7.36,-7.34,-7.36
117.55,-8.32,-0.92,-8.30,-0.91,0.91,1.02,1.00,-7.41,-7.39,-7.40
118.73,-8.32,-0.86,-8.30,-0.86,0.86,0.97,0.97,-7.46,-7.44,-7.46
119.92,-8.21,-0.72,-8.30,-0.81,0.81,0.93,0.94,-7.40,-7.49,-7.49
121.12,-8.18,-0.63,-8.30,-0.76,0.76,0.89,0.91,-7.42,-7.54,-7.54
122.33,-8.32,-0.73,-8.31,-0.72,0.72,0.84,0.87,-7.59,-7.58,-7.59
123.55,-8.39,-0.77,-8.32,-0.69,0.69,0.80,0.84,-7.70,-7.63,-7.62
124.79,-8.38,-0.71,-8.31,-0.65,0.65,0.76,0.81,-7.73,-7.67,-7.66
126.03,-8.37,-0.66,-8.31,-0.61,0.61,0.71,0.78,-7.76,-7.71,-7.70
127.29,-8.37,-0.63,-8.32,-0.58,0.58,0.67,0.74,-7.79,-7.75,-7.73
128.57,-8.36,-0.57,-8.34,-0.55,0.55,0.63,0.71,-7.80,-7.78,-7.78
129.85,-8.36,-0.53,-8.35,-0.53,0.53,0.58,0.67,-7.83,-7.82,-7.82
131.15,-8.34,-0.47,-8.36,-0.50,0.50,0.54,0.64,-7.84,-7.86,-7.86
132.46,-8.29,-0.39,-8.36,-0.46,0.46,0.50,0.60,-7.82,-7.90,-7.90
133.79,-8.23,-0.29,-8.36,-0.43,0.43,0.45,0.57,-7.80,-7.94,-7.94
135.12,-8.33,-0.34,-8.36,-0.39,0.39,0.41,0.53,-7.94,-7.97,-7.98
136.48,-8.41,-0.40,-8.36,-0.35,0.35,0.36,0.49,-8.05,-8.01,-8.01
137.84,-8.45,-0.40,-8.36,-0.31,0.31,0.32,0.46,-8.13,-8.04,-8.05
139.22,-8.50,-0.40,-8.37,-0.29,0.29,0.28,0.42,-8.21,-8.08,-8.09
140.61,-8.45,-0.31,-8.38,-0.26,0.26,0.23,0.38,-8.19,-8.12,-8.14
142.02,-8.33,-0.17,-8.38,-0.22,0.22,0.19,0.34,-8.10,-8.16,-8.16
143.44,-8.27,-0.07,-8.39,-0.19,0.19,0.14,0.30,-8.08,-8.20,-8.20
144.87,-8.30,-0.05,-8.39,-0.14,0.14,0.09,0.26,-8.15,-8.25,-8.25
146.32,-8.39,-0.09,-8.39,-0.09,0.09,0.05,0.22,-8.29,-8.30,-8.30
147.78,-8.43,-0.09,-8.39,-0.03,0.03,-0.00,0.18,-8.39,-8.36,-8.33
149.26,-8.46,-0.07,-8.38,0.04,-0.04,-0.05,0.14,-8.49,-8.42,-8.39
150.75,-8.43,0.04,-8.37,0.12,-0.12,-0.10,0.10,-8.54,-8.49,-8.46
152.26,-8.37,0.17,-8.36,0.20,-0.20,-0.15,0.06,-8.57,-8.56,-8.54
153.78,-8.41,0.21,-8.35,0.28,-0.28,-0.20,0.02,-8.69,-8.63,-8.61
155.32,-8.36,0.34,-8.35,0.36,-0.36,-0.25,-0.03,-8.72,-8.71,-8.69
156.88,-8.29,0.49,-8.35,0.43,-0.43,-0.30,-0.07,-8.72,-8.79,-8.78
158.44,-8.30,0.57,-8.35,0.51,-0.51,-0.35,-0.11,-8.81,-8.86,-8.87
160.03,-8.33,0.63,-8.34,0.59,-0.59,-0.41,-0.15,-8.92,-8.94,-8.96
161.63,-8.33,0.71,-8.33,0.68,-0.68,-0.46,-0.20,-9.01,-9.01,-9.03
163.24,-8.33,0.78,-8.32,0.76,-0.76,-0.52,-0.24,-9.09,-9.08,-9.10
164.88,-8.33,0.83,-8.32,0.82,-0.82,-0.57,-0.29,-9.15,-9.14,-9.16
166.53,-8.34,0.88,-8.33,0.87,-0.87,-0.63,-0.33,-9.20,-9.20,-9.21
168.19,-8.34,0.92,-8.34,0.90,-0.90,-0.69,-0.38,-9.23,-9.24,-9.26
169.87,-8.35,0.96,-8.36,0.92,-0.92,-0.75,-0.42,-9.27,-9.28,-9.30
171.57,-8.36,0.97,-8.37,0.94,-0.94,-0.81,-0.47,-9.29,-9.31,-9.33
173.29,-8.35,1.00,-8.39,0.95,-0.95,-0.87,-0.52,-9.29,-9.34,-9.35
175.02,-8.33,1.03,-8.40,0.96,-0.96,-0.93,-0.56,-9.28,-9.36,-9.36
176.77,-8.38,1.00,-8.40,0.97,-0.97,-0.99,-0.61,-9.35,-9.37,-9.38
178.54,-8.45,0.94,-8.40,0.98,-0.98,-1.06,-0.66,-9.43,-9.39,-9.39
180.32,-8.47,0.92,-8.39,1.00,-1.00,-1.12,-0.71,-9.47,-9.40,-9.39
182.13,-8.48,0.91,-8.38,1.03,-1.03,-1.18,-0.76,-9.50,-9.41,-9.39
183.95,-8.46,0.95,-8.36,1.06,-1.06,-1.24,-0.81,-9.52,-9.42,-9.40
185.79,-8.35,1.06,-8.33,1.10,-1.10,-1.30,-0.86,-9.45,-9.43,-9.41
187.65,-8.33,1.11,-8.31,1.14,-1.14,-1.36,-0.91,-9.46,-9.44,-9.43
189.52,-8.28,1.17,-8.28,1.18,-1.18,-1.42,-0.96,-9.46,-9.46,-9.45
191.42,-8.20,1.28,-8.25,1.23,-1.23,-1.48,-1.01,-9.43,-9.48,-9.47
193.33,-8.17,1.33,-8.21,1.29,-1.29,-1.53,-1.06,-9.45,-9.50,-9.50
195.27,-8.16,1.36,-8.17,1.35,-1.35,-1.58,-1.12,-9.51,-9.52,-9.52
197.22,-8.10,1.44,-8.12,1.42,-1.42,-1.63,-1.17,-9.51,-9.54,-9.54
199.19,-8.03,1.54,-8.09,1.48,-1.48,-1.67,-1.22,-9.50,-9.56,-9.57
201.18,-8.03,1.56,-8.06,1.53,-1.53,-1.71,-1.27,-9.56,-9.59,-9.59
203.19,-8.03,1.58,-8.03,1.58,-1.58,-1.75,-1.33,-9.60,-9.61,-9.61
205.23,-8.05,1.59,-8.02,1.62,-1.62,-1.78,-1.38,-9.66,-9.64,-9.64
207.28,-8.07,1.58,-8.01,1.65,-1.65,-1.81,-1.43,-9.72,-9.66,-9.65
209.35,-7.98,1.70,-8.00,1.68,-1.68,-1.83,-1.49,-9.66,-9.68,-9.68
211.44,-7.93,1.79,-7.99,1.72,-1.72,-1.85,-1.54,-9.64,-9.70,-9.71
213.56,-7.92,1.80,-7.98,1.75,-1.75,-1.87,-1.59,-9.66,-9.72,-9.72
215.69,-7.98,1.76,-7.96,1.78,-1.78,-1.88,-1.64,-9.75,-9.74,-9.74
217.85,-8.01,1.75,-7.94,1.81,-1.81,-1.89,-1.70,-9.81,-9.75,-9.75
220.03,-7.97,1.80,-7.93,1.84,-1.84,-1.90,-1.75,-9.81,-9.76,-9.77
222.23,-7.95,1.84,-7.90,1.87,-1.87,-1.91,-1.80,-9.82,-9.77,-9.79
224.45,-7.92,1.87,-7.87,1.91,-1.91,-1.92,-1.84,-9.82,-9.78,-9.78
226.70,-7.86,1.93,-7.84,1.94,-1.94,-1.93,-1.89,-9.80,-9.78,-9.79
228.96,-7.79,2.00,-7.81,1.97,-1.97,-1.93,-1.94,-9.76,-9.78,-9.78
231.25,-7.75,2.03,-7.78,2.00,-2.00,-1.94,-1.98,-9.74,-9.77,-9.77
233.57,-7.73,2.04,-7.75,2.02,-2.02,-1.94,-2.02,-9.74,-9.77,-9.77
235.90,-7.72,2.04,-7.71,2.04,-2.04,-1.95,-2.06,-9.76,-9.75,-9.76
238.26,-7.63,2.12,-7.66,2.08,-2.08,-1.95,-2.10,-9.70,-9.74,-9.75
240.64,-7.58,2.15,-7.61,2.11,-2.11,-1.96,-2.14,-9.68,-9.72,-9.73
243.05,-7.57,2.13,-7.57,2.14,-2.14,-1.97,-2.17,-9.70,-9.70,-9.70
245.48,-7.55,2.13,-7.53,2.16,-2.16,-1.97,-2.21,-9.70,-9.68,-9.68
247.93,-7.52,2.13,-7.49,2.17,-2.17,-1.98,-2.24,-9.69,-9.66,-9.65
250.41,-7.50,2.14,-7.45,2.19,-2.19,-2.00,-2.26,-9.68,-9.64,-9.64
252.92,-7.49,2.12,-7.42,2.20,-2.20,-2.01,-2.29,-9.69,-9.62,-9.61
255.45,-7.39,2.20,-7.39,2.21,-2.21,-2.02,-2.31,-9.60,-9.60,-9.59
258.00,-7.30,2.27,-7.35,2.22,-2.22,-2.04,-2.33,-9.52,-9.57,-9.57
260.58,-7.26,2.30,-7.32,2.23,-2.23,-2.05,-2.35,-9.48,-9.55,-9.55
263.19,-7.26,2.27,-7.30,2.23,-2.23,-2.07,-2.37,-9.48,-9.53,-9.52
265.82,-7.26,2.25,-7.28,2.23,-2.23,-2.09,-2.39,-9.48,-9.50,-9.51
268.48,-7.26,2.23,-7.25,2.23,-2.23,-2.11,-2.40,-9.48,-9.48,-9.49
271.16,-7.27,2.19,-7.23,2.23,-2.23,-2.13,-2.41,-9.49,-9.46,-9.45
273.87,-7.22,2.23,-7.21,2.22,-2.22,-2.15,-2.42,-9.44,-9.43,-9.44
276.61,-7.18,2.23,-7.19,2.22,-2.22,-2.17,-2.43,-9.40,-9.41,-9.41
279.38,-7.17,2.22,-7.18,2.21,-2.21,-2.20,-2.44,-9.37,-9.38,-9.38
282.17,-7.17,2.19,-7.16,2.20,-2.20,-2.22,-2.45,-9.37,-9.36,-9.36
284.99,-7.16,2.17,-7.14,2.19,-2.19,-2.25,-2.46,-9.35,-9.33,-9.33
287.84,-7.15,2.17,-7.11,2.19,-2.19,-2.28,-2.47,-9.33,-9.30,-9.31
290.72,-7.10,2.18,-7.08,2.19,-2.19,-2.31,-2.48,-9.29,-9.27,-9.28
293.63,-7.04,2.22,-7.05,2.20,-2.20,-2.34,-2.49,-9.24,-9.25,-9.25
296.57,-7.02,2.20,-7.00,2.21,-2.21,-2.37,-2.49,-9.23,-9.22,-9.22
299.53,-7.00,2.20,-6.96,2.23,-2.23,-2.40,-2.50,-9.23,-9.19,-9.19
302.53,-6.91,2.27,-6.91,2.26,-2.26,-2.43,-2.51,-9.16,-9.17,-9.18
305.55,-6.88,2.26,-6.86,2.28,-2.28,-2.46,-2.52,-9.16,-9.14,-9.13
308.61,-6.85,2.27,-6.81,2.31,-2.31,-2.50,-2.53,-9.16,-9.12,-9.12
311.69,-6.69,2.40,-6.75,2.35,-2.35,-2.53,-2.55,-9.04,-9.10,-9.09
314.81,-6.66,2.41,-6.69,2.39,-2.39,-2.57,-2.56,-9.05,-9.07,-9.06
317.96,-6.66,2.39,-6.62,2.43,-2.43,-2.61,-2.57,-9.09,-9.06,-9.05
321.14,-6.59,2.45,-6.56,2.47,-2.47,-2.64,-2.59,-9.06,-9.04,-9.04
324.35,-6.48,2.55,-6.51,2.52,-2.52,-2.68,-2.61,-8.99,-9.02,-9.02
327.59,-6.46,2.55,-6.45,2.56,-2.56,-2.72,-2.63,-9.01,-9.01,-9.01
330.87,-6.39,2.62,-6.40,2.60,-2.60,-2.76,-2.65,-8.99,-8.99,-9.00
334.18,-6.36,2.63,-6.35,2.63,-2.63,-2.80,-2.67,-8.99,-8.98,-8.98
337.52,-6.29,2.69,-6.31,2.66,-2.66,-2.84,-2.70,-8.95,-8.97,-8.98
340.90,-6.27,2.69,-6.28,2.68,-2.68,-2.88,-2.73,-8.95,-8.97,-8.96
344.30,-6.22,2.74,-6.26,2.71,-2.71,-2.92,-2.76,-8.92,-8.96,-8.95
347.75,-6.18,2.78,-6.23,2.72,-2.72,-2.96,-2.79,-8.90,-8.96,-8.96
351.23,-6.16,2.79,-6.20,2.75,-2.75,-3.01,-2.82,-8.91,-8.95,-8.95
354.74,-6.16,2.79,-6.17,2.77,-2.77,-3.05,-2.86,-8.93,-8.95,-8.95
358.28,-6.16,2.79,-6.15,2.80,-2.80,-3.10,-2.90,-8.96,-8.95,-8.94
361.87,-6.15,2.80,-6.11,2.83,-2.83,-3.14,-2.94,-8.98,-8.94,-8.95
365.49,-6.14,2.80,-6.07,2.87,-2.87,-3.19,-2.98,-9.01,-8.94,-8.94
369.14,-6.14,2.81,-6.04,2.91,-2.91,-3.23,-3.02,-9.04,-8.94,-8.95
372.83,-6.10,2.86,-6.00,2.95,-2.95,-3.28,-3.07,-9.04,-8.95,-8.95
376.56,-6.00,2.96,-5.96,2.99,-2.99,-3.33,-3.12,-8.99,-8.95,-8.95
380.33,-5.87,3.08,-5.91,3.04,-3.04,-3.37,-3.17,-8.91,-8.95,-8.95
384.13,-5.82,3.13,-5.86,3.09,-3.09,-3.42,-3.22,-8.91,-8.96,-8.95
387.97,-5.78,3.18,-5.82,3.15,-3.15,-3.47,-3.27,-8.92,-8.96,-8.96
391.85,-5.72,3.26,-5.77,3.20,-3.20,-3.52,-3.33,-8.92,-8.97,-8.97
395.77,-5.64,3.33,-5.71,3.26,-3.26,-3.57,-3.39,-8.90,-8.97,-8.96
399.73,-5.61,3.37,-5.65,3.33,-3.33,-3.62,-3.45,-8.94,-8.98,-8.97
403.72,-5.60,3.38,-5.59,3.40,-3.40,-3.67,-3.51,-8.99,-8.98,-8.98
407.76,-5.60,3.39,-5.54,3.45,-3.45,-3.72,-3.57,-9.05,-8.99,-8.99
411.84,-5.53,3.46,-5.49,3.50,-3.50,-3.77,-3.63,-9.03,-8.99,-8.99
415.96,-5.43,3.56,-5.45,3.54,-3.54,-3.82,-3.70,-8.97,-8.99,-8.99
420.12,-5.39,3.61,-5.42,3.58,-3.58,-3.88,-3.76,-8.96,-8.99,-8.99
