frequency,raw,error,smoothed,error_smoothed,equalization,parametric_eq,fixed_band_eq,equalized_raw,equalized_smoothed,target
20.00,-13.02,-16.47,-13.06,-16.54,16.54,16.19,6.25,3.51,3.47,3.44
20.20,-12.92,-16.42,-12.95,-16.46,16.46,16.15,6.39,3.53,3.51,3.49
20.40,-12.82,-16.37,-12.83,-16.38,16.38,16.11,6.54,3.55,3.55,3.54
20.61,-12.73,-16.30,-12.71,-16.29,16.29,16.07,6.69,3.57,3.58,3.57
20.81,-12.62,-16.25,-12.60,-16.21,16.21,16.02,6.85,3.58,3.61,3.63
21.02,-12.52,-16.19,-12.48,-16.12,16.12,15.96,7.01,3.59,3.64,3.66
21.23,-12.39,-16.08,-12.36,-16.03,16.03,15.90,7.17,3.63,3.66,3.68
21.44,-12.27,-15.98,-12.24,-15.93,15.93,15.83,7.34,3.66,3.69,3.70
21.66,-12.14,-15.87,-12.13,-15.84,15.84,15.76,7.51,3.69,3.71,3.72
21.87,-12.01,-15.75,-12.01,-15.74,15.74,15.69,7.69,3.72,3.73,3.73
22.09,-11.89,-15.65,-11.89,-15.63,15.63,15.61,7.87,3.74,3.74,3.75
22.31,-11.76,-15.53,-11.77,-15.53,15.53,15.52,8.06,3.77,3.76,3.76
22.54,-11.64,-15.40,-11.65,-15.42,15.42,15.44,8.25,3.78,3.76,3.76
22.76,-11.50,-15.27,-11.53,-15.30,15.30,15.35,8.45,3.80,3.76,3.76
22.99,-11.37,-15.13,-11.41,-15.18,15.18,15.25,8.65,3.81,3.77,3.75
23.22,-11.27,-15.03,-11.29,-15.06,15.06,15.15,8.86,3.79,3.77,3.75
23.45,-11.17,-14.93,-11.17,-14.94,14.94,15.05,9.07,3.77,3.77,3.75
23.69,-11.07,-14.84,-11.06,-14.83,14.83,14.94,9.29,3.75,3.77,3.76
23.92,-10.97,-14.74,-10.94,-14.71,14.71,14.84,9.52,3.74,3.77,3.76
24.16,-10.85,-14.62,-10.82,-14.59,14.59,14.73,9.75,3.74,3.77,3.76
24.40,-10.72,-14.50,-10.71,-14.47,14.47,14.61,9.98,3.75,3.77,3.77
24.65,-10.59,-14.36,-10.59,-14.36,14.36,14.50,10.23,3.76,3.77,3.76
24.89,-10.47,-14.24,-10.47,-14.24,14.24,14.38,10.48,3.77,3.77,3.76
25.14,-10.34,-14.11,-10.35,-14.12,14.12,14.26,10.73,3.78,3.77,3.76
25.39,-10.22,-14.00,-10.23,-14.00,14.00,14.13,10.99,3.78,3.77,3.77
25.65,-10.10,-13.88,-10.10,-13.87,13.87,14.01,11.26,3.77,3.77,3.77
25.91,-9.98,-13.74,-9.98,-13.74,13.74,13.88,11.53,3.77,3.77,3.76
26.16,-9.85,-13.62,-9.85,-13.62,13.62,13.75,11.80,3.77,3.77,3.76
26.43,-9.73,-13.49,-9.73,-13.49,13.49,13.62,12.08,3.77,3.77,3.76
26.69,-9.60,-13.37,-9.61,-13.37,13.37,13.49,12.37,3.77,3.76,3.76
26.96,-9.47,-13.24,-9.49,-13.25,13.25,13.36,12.65,3.77,3.76,3.76
27.23,-9.35,-13.12,-9.37,-13.13,13.13,13.23,12.94,3.77,3.76,3.76
27.50,-9.23,-13.00,-9.25,-13.01,13.01,13.09,13.23,3.77,3.76,3.76
27.77,-9.11,-12.87,-9.12,-12.88,12.88,12.96,13.52,3.77,3.76,3.75
28.05,-8.99,-12.75,-9.00,-12.76,12.76,12.82,13.80,3.76,3.76,3.75
28.33,-8.88,-12.63,-8.88,-12.63,12.63,12.68,14.07,3.75,3.75,3.74
28.62,-8.77,-12.52,-8.75,-12.50,12.50,12.54,14.33,3.73,3.75,3.74
28.90,-8.66,-12.42,-8.63,-12.38,12.38,12.40,14.58,3.72,3.75,3.75
29.19,-8.52,-12.27,-8.50,-12.25,12.25,12.26,14.82,3.73,3.75,3.74
29.48,-8.38,-12.14,-8.37,-12.12,12.12,12.12,15.02,3.74,3.75,3.75
29.78,-8.23,-11.98,-8.24,-11.99,11.99,11.98,15.21,3.75,3.75,3.74
30.08,-8.10,-11.85,-8.11,-11.86,11.86,11.84,15.36,3.76,3.75,3.75
30.38,-7.97,-11.71,-7.98,-11.72,11.72,11.70,15.47,3.76,3.74,3.74
30.68,-7.83,-11.58,-7.84,-11.59,11.59,11.55,15.55,3.75,3.74,3.74
30.99,-7.70,-11.45,-7.71,-11.45,11.45,11.41,15.58,3.75,3.74,3.74
31.30,-7.57,-11.31,-7.58,-11.32,11.32,11.27,15.57,3.74,3.74,3.73
31.61,-7.44,-11.18,-7.45,-11.18,11.18,11.12,15.51,3.74,3.74,3.73
31.93,-7.32,-11.05,-7.31,-11.05,11.05,10.98,15.42,3.73,3.73,3.73
32.24,-7.18,-10.91,-7.19,-10.91,10.91,10.84,15.28,3.73,3.73,3.72
32.57,-7.06,-10.79,-7.06,-10.79,10.79,10.69,15.11,3.72,3.72,3.72
32.89,-6.93,-10.66,-6.94,-10.66,10.66,10.55,14.90,3.73,3.72,3.72
33.22,-6.80,-10.52,-6.82,-10.53,10.53,10.40,14.67,3.73,3.72,3.71
33.55,-6.68,-10.40,-6.69,-10.40,10.40,10.26,14.41,3.72,3.71,3.71
33.89,-6.55,-10.26,-6.56,-10.27,10.27,10.11,14.13,3.72,3.71,3.70
34.23,-6.43,-10.14,-6.43,-10.14,10.14,9.97,13.83,3.70,3.70,3.70
34.57,-6.31,-10.01,-6.30,-10.00,10.00,9.82,13.53,3.69,3.70,3.69
34.92,-6.19,-9.89,-6.17,-9.86,9.86,9.67,13.21,3.67,3.69,3.69
35.27,-6.06,-9.75,-6.04,-9.73,9.73,9.53,12.89,3.66,3.69,3.68
35.62,-5.93,-9.62,-5.91,-9.60,9.60,9.38,12.57,3.66,3.69,3.68
35.97,-5.80,-9.49,-5.78,-9.46,9.46,9.24,12.24,3.66,3.68,3.68
36.33,-5.64,-9.33,-5.64,-9.32,9.32,9.09,11.92,3.68,3.68,3.68
36.70,-5.47,-9.15,-5.50,-9.19,9.19,8.94,11.60,3.71,3.68,3.67
37.06,-5.32,-9.00,-5.37,-9.05,9.05,8.80,11.28,3.73,3.68,3.67
37.43,-5.20,-8.89,-5.23,-8.91,8.91,8.65,10.96,3.71,3.68,3.68
37.81,-5.07,-8.76,-5.09,-8.77,8.77,8.51,10.65,3.70,3.68,3.68
38.19,-4.95,-8.63,-4.95,-8.63,8.63,8.36,10.34,3.68,3.68,3.67
38.57,-4.82,-8.51,-4.81,-8.49,8.49,8.21,10.04,3.67,3.68,3.68
38.95,-4.69,-8.39,-4.67,-8.35,8.35,8.07,9.74,3.66,3.68,3.69
39.34,-4.54,-8.23,-4.53,-8.21,8.21,7.92,9.45,3.67,3.69,3.68
39.74,-4.38,-8.07,-4.39,-8.07,8.07,7.77,9.17,3.69,3.68,3.68
40.14,-4.24,-7.92,-4.25,-7.93,7.93,7.63,8.88,3.70,3.68,3.68
40.54,-4.10,-7.79,-4.10,-7.79,7.79,7.48,8.61,3.68,3.68,3.68
40.94,-3.98,-7.66,-3.96,-7.64,7.64,7.33,8.33,3.66,3.68,3.67
41.35,-3.83,-7.51,-3.81,-7.49,7.49,7.18,8.07,3.65,3.67,3.67
41.76,-3.68,-7.35,-3.67,-7.33,7.33,7.04,7.81,3.65,3.67,3.66
42.18,-3.53,-7.20,-3.52,-7.18,7.18,6.89,7.55,3.65,3.66,3.66
42.60,-3.36,-7.02,-3.38,-7.02,7.02,6.74,7.29,3.66,3.65,3.65
43.03,-3.19,-6.84,-3.23,-6.87,6.87,6.59,7.05,3.67,3.64,3.64
43.46,-3.06,-6.70,-3.08,-6.71,6.71,6.45,6.80,3.64,3.62,3.63
43.90,-2.92,-6.54,-2.94,-6.55,6.55,6.30,6.56,3.63,3.61,3.61
44.33,-2.78,-6.38,-2.79,-6.39,6.39,6.15,6.32,3.61,3.60,3.59
44.78,-2.64,-6.22,-2.64,-6.23,6.23,6.00,6.09,3.59,3.59,3.57
45.23,-2.51,-6.08,-2.50,-6.07,6.07,5.85,5.86,3.56,3.57,3.56
45.68,-2.39,-5.95,-2.36,-5.92,5.92,5.71,5.64,3.52,3.56,3.55
46.13,-2.25,-5.79,-2.22,-5.76,5.76,5.56,5.41,3.51,3.55,3.53
46.60,-2.08,-5.62,-2.08,-5.61,5.61,5.41,5.19,3.53,3.53,3.53
47.06,-1.92,-5.44,-1.95,-5.46,5.46,5.26,4.98,3.54,3.52,3.51
47.53,-1.77,-5.28,-1.82,-5.32,5.32,5.11,4.76,3.54,3.50,3.50
48.01,-1.63,-5.14,-1.68,-5.17,5.17,4.96,4.55,3.53,3.49,3.50
48.49,-1.51,-5.00,-1.54,-5.01,5.01,4.82,4.35,3.50,3.47,3.48
48.97,-1.39,-4.86,-1.40,-4.86,4.86,4.67,4.14,3.47,3.46,3.46
49.46,-1.27,-4.72,-1.26,-4.70,4.70,4.52,3.94,3.43,3.45,3.44
49.96,-1.15,-4.58,-1.11,-4.54,4.54,4.37,3.74,3.39,3.43,3.42
50.46,-1.01,-4.43,-0.97,-4.39,4.39,4.22,3.55,3.37,3.42,3.41
50.96,-0.87,-4.28,-0.82,-4.23,4.23,4.07,3.35,3.35,3.41,3.40
51.47,-0.71,-4.10,-0.68,-4.07,4.07,3.92,3.16,3.36,3.39,3.38
51.99,-0.54,-3.92,-0.54,-3.92,3.92,3.77,2.97,3.37,3.38,3.37
52.51,-0.37,-3.74,-0.39,-3.76,3.76,3.62,2.79,3.39,3.37,3.36
53.03,-0.19,-3.56,-0.24,-3.60,3.60,3.47,2.61,3.41,3.36,3.36
53.56,-0.07,-3.42,-0.10,-3.44,3.44,3.32,2.43,3.37,3.34,3.34
54.10,0.06,-3.28,0.04,-3.29,3.29,3.17,2.26,3.35,3.33,3.33
54.64,0.20,-3.12,0.18,-3.14,3.14,3.02,2.09,3.34,3.32,3.31
55.18,0.33,-2.99,0.31,-3.00,3.00,2.88,1.92,3.33,3.31,3.31
55.74,0.44,-2.86,0.44,-2.86,2.86,2.73,1.76,3.30,3.30,3.29
56.29,0.56,-2.73,0.56,-2.73,2.73,2.58,1.60,3.29,3.29,3.28
56.86,0.70,-2.58,0.68,-2.60,2.60,2.43,1.44,3.29,3.27,3.27
57.42,0.83,-2.42,0.79,-2.46,2.46,2.28,1.29,3.29,3.26,3.24
58.00,0.96,-2.28,0.91,-2.33,2.33,2.13,1.15,3.28,3.24,3.23
58.58,1.01,-2.22,1.03,-2.19,2.19,1.98,1.01,3.20,3.21,3.22
59.16,1.08,-2.13,1.15,-2.04,2.04,1.83,0.87,3.12,3.19,3.20
59.76,1.24,-1.95,1.27,-1.89,1.89,1.68,0.74,3.13,3.16,3.18
60.35,1.36,-1.79,1.40,-1.73,1.73,1.53,0.61,3.09,3.13,3.14
60.96,1.47,-1.64,1.53,-1.57,1.57,1.39,0.49,3.04,3.10,3.10
61.57,1.63,-1.44,1.66,-1.40,1.40,1.24,0.37,3.03,3.06,3.06
62.18,1.79,-1.24,1.79,-1.24,1.24,1.09,0.26,3.02,3.02,3.02
62.80,1.95,-1.03,1.91,-1.07,1.07,0.94,0.16,3.02,2.98,2.97
63.43,2.07,-0.87,2.04,-0.90,0.90,0.80,0.06,2.97,2.94,2.93
64.07,2.19,-0.70,2.16,-0.73,0.73,0.65,-0.04,2.92,2.90,2.88
64.71,2.33,-0.52,2.29,-0.56,0.56,0.51,-0.13,2.89,2.85,2.84
65.35,2.46,-0.35,2.41,-0.39,0.39,0.36,-0.22,2.85,2.80,2.80
66.01,2.57,-0.19,2.52,-0.23,0.23,0.22,-0.30,2.80,2.76,2.75
66.67,2.66,-0.05,2.63,-0.08,0.08,0.07,-0.38,2.73,2.71,2.70
67.33,2.74,0.08,2.74,0.08,-0.08,-0.07,-0.45,2.66,2.66,2.65
68.01,2.81,0.19,2.85,0.23,-0.23,-0.21,-0.52,2.57,2.61,2.61
68.69,2.91,0.34,2.95,0.39,-0.39,-0.36,-0.59,2.52,2.56,2.56
69.37,3.02,0.50,3.05,0.54,-0.54,-0.50,-0.65,2.48,2.51,2.51
70.07,3.14,0.67,3.15,0.69,-0.69,-0.64,-0.71,2.45,2.46,2.46
70.77,3.24,0.82,3.25,0.84,-0.84,-0.77,-0.77,2.39,2.40,2.41
71.48,3.32,0.95,3.35,1.00,-1.00,-0.91,-0.83,2.32,2.35,2.36
72.19,3.41,1.11,3.45,1.15,-1.15,-1.05,-0.89,2.26,2.29,2.29
72.91,3.56,1.32,3.54,1.31,-1.31,-1.18,-0.94,2.25,2.24,2.23
73.64,3.69,1.50,3.64,1.46,-1.46,-1.32,-1.00,2.23,2.18,2.18
74.38,3.79,1.66,3.74,1.61,-1.61,-1.45,-1.05,2.17,2.13,2.12
75.12,3.86,1.79,3.84,1.77,-1.77,-1.58,-1.10,2.09,2.07,2.06
75.87,3.92,1.91,3.93,1.92,-1.92,-1.71,-1.16,2.00,2.01,2.00
76.63,4.01,2.05,4.01,2.05,-2.05,-1.83,-1.21,1.95,1.96,1.95
77.40,4.10,2.19,4.10,2.19,-2.19,-1.96,-1.26,1.91,1.91,1.90
78.17,4.17,2.32,4.17,2.32,-2.32,-2.08,-1.32,1.85,1.85,1.84
78.95,4.25,2.44,4.25,2.45,-2.45,-2.20,-1.37,1.80,1.80,1.80
79.74,4.32,2.56,4.32,2.56,-2.56,-2.32,-1.43,1.75,1.75,1.75
80.54,4.37,2.66,4.38,2.68,-2.68,-2.44,-1.49,1.69,1.71,1.70
81.35,4.45,2.79,4.44,2.78,-2.78,-2.55,-1.54,1.66,1.66,1.65
82.16,4.55,2.94,4.50,2.89,-2.89,-2.67,-1.60,1.66,1.61,1.60
82.98,4.55,2.98,4.55,2.99,-2.99,-2.78,-1.67,1.56,1.56,1.56
83.81,4.55,3.03,4.61,3.09,-3.09,-2.88,-1.73,1.46,1.51,1.51
84.65,4.65,3.18,4.65,3.19,-3.19,-2.99,-1.80,1.46,1.47,1.46
85.50,4.72,3.29,4.69,3.28,-3.28,-3.09,-1.86,1.44,1.42,1.42
86.35,4.75,3.37,4.73,3.36,-3.36,-3.19,-1.93,1.38,1.37,1.37
87.22,4.75,3.42,4.76,3.44,-3.44,-3.28,-2.01,1.30,1.32,1.32
88.09,4.76,3.48,4.79,3.52,-3.52,-3.37,-2.08,1.23,1.27,1.27
88.97,4.86,3.64,4.81,3.60,-3.60,-3.46,-2.16,1.26,1.22,1.21
89.86,4.86,3.69,4.83,3.67,-3.67,-3.55,-2.23,1.19,1.17,1.16
90.76,4.86,3.74,4.85,3.73,-3.73,-3.63,-2.32,1.13,1.12,1.11
91.66,4.86,3.79,4.86,3.79,-3.79,-3.71,-2.40,1.06,1.07,1.06
92.58,4.86,3.85,4.87,3.86,-3.86,-3.79,-2.48,1.00,1.01,1.00
93.51,4.86,3.90,4.88,3.92,-3.92,-3.86,-2.57,0.94,0.96,0.95
94.44,4.86,3.94,4.88,3.97,-3.97,-3.93,-2.66,0.89,0.91,0.91
95.39,4.86,3.99,4.87,4.01,-4.01,-3.99,-2.75,0.85,0.86,0.86
96.34,4.86,4.04,4.86,4.05,-4.05,-4.05,-2.84,0.81,0.81,0.81
97.30,4.85,4.08,4.85,4.08,-4.08,-4.11,-2.94,0.77,0.77,0.76
98.28,4.84,4.12,4.83,4.11,-4.11,-4.16,-3.04,0.73,0.72,0.71
99.26,4.83,4.15,4.80,4.13,-4.13,-4.21,-3.13,0.70,0.67,0.67
100.25,4.81,4.18,4.77,4.15,-4.15,-4.26,-3.23,0.66,0.62,0.62
101.25,4.79,4.21,4.74,4.16,-4.16,-4.30,-3.33,0.63,0.57,0.57
102.27,4.75,4.22,4.69,4.17,-4.17,-4.34,-3.43,0.58,0.53,0.52
103.29,4.63,4.15,4.65,4.17,-4.17,-4.38,-3.54,0.45,0.48,0.47
104.32,4.54,4.10,4.60,4.18,-4.18,-4.41,-3.64,0.36,0.43,0.43
105.37,4.52,4.13,4.55,4.17,-4.17,-4.44,-3.74,0.34,0.38,0.38
106.42,4.50,4.16,4.50,4.17,-4.17,-4.46,-3.84,0.32,0.33,0.33
107.48,4.47,4.19,4.44,4.17,-4.17,-4.48,-3.94,0.30,0.27,0.27
108.56,4.40,4.17,4.39,4.16,-4.16,-4.50,-4.03,0.23,0.22,0.22
109.64,4.32,4.14,4.33,4.16,-4.16,-4.52,-4.13,0.16,0.17,0.17
110.74,4.23,4.11,4.27,4.15,-4.15,-4.53,-4.22,0.08,0.12,0.11
111.85,4.19,4.11,4.21,4.14,-4.14,-4.54,-4.31,0.04,0.07,0.07
112.97,4.18,4.16,4.16,4.14,-4.14,-4.54,-4.40,0.04,0.02,0.01
114.10,4.15,4.18,4.11,4.14,-4.14,-4.54,-4.48,0.01,-0.03,-0.04
115.24,4.06,4.14,4.06,4.14,-4.14,-4.54,-4.55,-0.08,-0.08,-0.09
116.39,4.00,4.13,4.01,4.13,-4.13,-4.54,-4.62,-0.13,-0.12,-0.14
117.55,3.95,4.12,3.95,4.12,-4.12,-4.54,-4.69,-0.17,-0.17,-0.18
118.73,3.89,4.10,3.90,4.11,-4.11,-4.53,-4.75,-0.22,-0.21,-0.22
119.92,3.83,4.07,3.85,4.09,-4.09,-4.52,-4.80,-0.27,-0.24,-0.25
121.12,3.79,4.07,3.80,4.08,-4.08,-4.50,-4.84,-0.30,-0.28,-0.29
122.33,3.77,4.08,3.76,4.07,-4.07,-4.49,-4.88,-0.30,-0.31,-0.32
123.55,3.73,4.07,3.71,4.06,-4.06,-4.47,-4.90,-0.33,-0.35,-0.35
124.79,3.68,4.05,3.66,4.04,-4.04,-4.45,-4.92,-0.36,-0.38,-0.38
126.03,3.62,4.02,3.61,4.02,-4.02,-4.43,-4.94,-0.40,-0.41,-0.41
127.29,3.56,3.98,3.56,4.00,-4.00,-4.41,-4.94,-0.45,-0.44,-0.43
128.57,3.51,3.97,3.52,3.99,-3.99,-4.38,-4.94,-0.48,-0.47,-0.47
129.85,3.45,3.94,3.47,3.97,-3.97,-4.35,-4.92,-0.52,-0.50,-0.50
131.15,3.44,3.96,3.42,3.95,-3.95,-4.32,-4.91,-0.51,-0.52,-0.53
132.46,3.38,3.93,3.37,3.93,-3.93,-4.29,-4.88,-0.55,-0.55,-0.56
133.79,3.34,3.92,3.32,3.90,-3.90,-4.26,-4.85,-0.57,-0.58,-0.59
135.12,3.26,3.87,3.27,3.88,-3.88,-4.23,-4.81,-0.62,-0.61,-0.62
136.48,3.25,3.88,3.22,3.86,-3.86,-4.20,-4.76,-0.61,-0.64,-0.64
137.84,3.18,3.85,3.17,3.83,-3.83,-4.16,-4.71,-0.66,-0.66,-0.68
139.22,3.12,3.82,3.11,3.81,-3.81,-4.13,-4.66,-0.69,-0.69,-0.71
140.61,3.07,3.80,3.06,3.78,-3.78,-4.09,-4.60,-0.72,-0.72,-0.74
142.02,3.00,3.75,3.01,3.76,-3.76,-4.05,-4.54,-0.77,-0.76,-0.76
143.44,2.94,3.72,2.95,3.74,-3.74,-4.01,-4.48,-0.81,-0.79,-0.79
144.87,2.88,3.70,2.90,3.73,-3.73,-3.97,-4.41,-0.85,-0.83,-0.83
146.32,2.86,3.72,2.85,3.72,-3.72,-3.94,-4.34,-0.86,-0.87,-0.87
147.78,2.81,3.70,2.79,3.71,-3.71,-3.89,-4.27,-0.91,-0.92,-0.90
149.26,2.75,3.69,2.73,3.71,-3.71,-3.85,-4.20,-0.96,-0.97,-0.95
150.75,2.67,3.67,2.68,3.71,-3.71,-3.81,-4.13,-1.04,-1.03,-1.01
152.26,2.61,3.68,2.62,3.72,-3.72,-3.77,-4.06,-1.11,-1.10,-1.08
153.78,2.56,3.70,2.57,3.73,-3.73,-3.73,-3.99,-1.17,-1.16,-1.15
155.32,2.55,3.76,2.51,3.74,-3.74,-3.69,-3.92,-1.19,-1.23,-1.22
156.88,2.49,3.78,2.45,3.75,-3.75,-3.64,-3.85,-1.27,-1.30,-1.30
158.44,2.39,3.76,2.40,3.77,-3.77,-3.60,-3.79,-1.38,-1.37,-1.38
160.03,2.36,3.81,2.34,3.78,-3.78,-3.56,-3.72,-1.42,-1.44,-1.46
161.63,2.27,3.79,2.28,3.79,-3.79,-3.51,-3.66,-1.52,-1.50,-1.53
163.24,2.19,3.77,2.22,3.79,-3.79,-3.47,-3.60,-1.60,-1.57,-1.59
164.88,2.16,3.79,2.16,3.79,-3.79,-3.43,-3.54,-1.63,-1.62,-1.64
166.53,2.14,3.82,2.11,3.78,-3.78,-3.38,-3.48,-1.64,-1.67,-1.69
168.19,2.08,3.80,2.06,3.77,-3.77,-3.34,-3.43,-1.69,-1.71,-1.73
169.87,2.01,3.77,2.00,3.74,-3.74,-3.30,-3.37,-1.74,-1.74,-1.77
171.57,1.94,3.72,1.95,3.72,-3.72,-3.25,-3.32,-1.78,-1.77,-1.79
173.29,1.92,3.71,1.90,3.68,-3.68,-3.21,-3.28,-1.77,-1.79,-1.80
175.02,1.85,3.65,1.85,3.65,-3.65,-3.17,-3.23,-1.81,-1.80,-1.81
176.77,1.80,3.61,1.81,3.63,-3.63,-3.12,-3.19,-1.83,-1.81,-1.82
178.54,1.73,3.55,1.77,3.59,-3.59,-3.08,-3.15,-1.86,-1.82,-1.83
180.32,1.72,3.53,1.74,3.56,-3.56,-3.04,-3.11,-1.84,-1.82,-1.82
182.13,1.72,3.52,1.70,3.53,-3.53,-3.00,-3.08,-1.81,-1.83,-1.81
183.95,1.68,3.49,1.66,3.50,-3.50,-2.95,-3.05,-1.82,-1.83,-1.82
185.79,1.64,3.45,1.63,3.47,-3.47,-2.91,-3.02,-1.83,-1.84,-1.82
187.65,1.57,3.40,1.60,3.45,-3.45,-2.87,-2.99,-1.88,-1.85,-1.84
189.52,1.57,3.41,1.57,3.43,-3.43,-2.83,-2.97,-1.87,-1.86,-1.85
191.42,1.58,3.44,1.54,3.42,-3.42,-2.79,-2.95,-1.84,-1.87,-1.87
193.33,1.56,3.44,1.51,3.40,-3.40,-2.75,-2.93,-1.84,-1.89,-1.89
195.27,1.46,3.36,1.48,3.38,-3.38,-2.71,-2.91,-1.92,-1.90,-1.91
197.22,1.43,3.35,1.45,3.37,-3.37,-2.67,-2.89,-1.94,-1.92,-1.93
199.19,1.44,3.38,1.42,3.36,-3.36,-2.63,-2.88,-1.92,-1.94,-1.95
201.18,1.39,3.35,1.38,3.34,-3.34,-2.59,-2.87,-1.96,-1.96,-1.97
203.19,1.35,3.33,1.35,3.33,-3.33,-2.55,-2.86,-1.98,-1.98,-1.99
205.23,1.33,3.33,1.31,3.32,-3.32,-2.51,-2.85,-1.99,-2.00,-2.01
207.28,1.28,3.29,1.27,3.29,-3.29,-2.47,-2.84,-2.02,-2.02,-2.02
209.35,1.20,3.23,1.23,3.27,-3.27,-2.43,-2.83,-2.07,-2.04,-2.04
211.44,1.16,3.22,1.18,3.24,-3.24,-2.39,-2.83,-2.08,-2.06,-2.07
213.56,1.14,3.21,1.14,3.21,-3.21,-2.36,-2.82,-2.08,-2.07,-2.08
215.69,1.14,3.22,1.10,3.19,-3.19,-2.32,-2.82,-2.05,-2.09,-2.09
217.85,1.14,3.23,1.06,3.16,-3.16,-2.28,-2.81,-2.02,-2.10,-2.10
220.03,1.03,3.13,1.02,3.13,-3.13,-2.24,-2.81,-2.10,-2.11,-2.11
222.23,0.95,3.08,0.98,3.09,-3.09,-2.21,-2.80,-2.14,-2.12,-2.14
224.45,0.91,3.03,0.94,3.05,-3.05,-2.17,-2.79,-2.15,-2.12,-2.13
226.70,0.84,2.96,0.90,3.02,-3.02,-2.14,-2.79,-2.18,-2.12,-2.13
228.96,0.83,2.94,0.87,2.98,-2.98,-2.10,-2.78,-2.15,-2.11,-2.12
231.25,0.84,2.94,0.84,2.94,-2.94,-2.07,-2.77,-2.11,-2.10,-2.11
233.57,0.85,2.94,0.81,2.90,-2.90,-2.03,-2.76,-2.05,-2.09,-2.10
235.90,0.83,2.91,0.77,2.85,-2.85,-2.00,-2.74,-2.02,-2.08,-2.09
238.26,0.72,2.79,0.74,2.80,-2.80,-1.97,-2.73,-2.08,-2.06,-2.08
240.64,0.69,2.73,0.71,2.75,-2.75,-1.93,-2.71,-2.06,-2.04,-2.05
243.05,0.70,2.71,0.69,2.71,-2.71,-1.90,-2.69,-2.01,-2.02,-2.02
245.48,0.66,2.65,0.67,2.67,-2.67,-1.87,-2.67,-2.01,-2.00,-2.00
247.93,0.65,2.61,0.65,2.63,-2.63,-1.84,-2.65,-1.98,-1.97,-1.97
250.41,0.67,2.61,0.63,2.58,-2.58,-1.81,-2.62,-1.91,-1.95,-1.95
252.92,0.59,2.50,0.60,2.52,-2.52,-1.78,-2.59,-1.94,-1.93,-1.92
255.45,0.53,2.42,0.57,2.47,-2.47,-1.74,-2.56,-1.94,-1.90,-1.90
258.00,0.50,2.37,0.54,2.41,-2.41,-1.71,-2.52,-1.92,-1.88,-1.88
260.58,0.51,2.36,0.50,2.35,-2.35,-1.68,-2.48,-1.84,-1.85,-1.86
263.19,0.52,2.34,0.46,2.29,-2.29,-1.65,-2.44,-1.77,-1.83,-1.83
265.82,0.50,2.30,0.43,2.23,-2.23,-1.63,-2.40,-1.73,-1.80,-1.81
268.48,0.43,2.21,0.38,2.16,-2.16,-1.60,-2.35,-1.74,-1.78,-1.79
271.16,0.34,2.09,0.34,2.10,-2.10,-1.57,-2.31,-1.76,-1.75,-1.76
273.87,0.28,2.01,0.30,2.03,-2.03,-1.54,-2.26,-1.75,-1.73,-1.74
276.61,0.18,1.88,0.25,1.96,-1.96,-1.51,-2.21,-1.78,-1.70,-1.71
279.38,0.19,1.86,0.20,1.87,-1.87,-1.49,-2.15,-1.69,-1.68,-1.68
282.17,0.21,1.86,0.15,1.80,-1.80,-1.46,-2.10,-1.59,-1.65,-1.66
284.99,0.07,1.68,0.10,1.72,-1.72,-1.43,-2.04,-1.65,-1.62,-1.62
287.84,-0.01,1.58,0.04,1.64,-1.64,-1.41,-1.99,-1.65,-1.59,-1.60
290.72,0.03,1.59,-0.01,1.56,-1.56,-1.38,-1.93,-1.53,-1.56,-1.57
293.63,-0.04,1.49,-0.05,1.48,-1.48,-1.35,-1.87,-1.52,-1.53,-1.54
296.57,-0.08,1.42,-0.10,1.40,-1.40,-1.33,-1.81,-1.48,-1.50,-1.51
299.53,-0.13,1.34,-0.16,1.32,-1.32,-1.30,-1.75,-1.45,-1.48,-1.48
302.53,-0.23,1.22,-0.21,1.24,-1.24,-1.28,-1.69,-1.47,-1.45,-1.46
305.55,-0.33,1.08,-0.28,1.15,-1.15,-1.25,-1.63,-1.48,-1.42,-1.42
308.61,-0.33,1.06,-0.33,1.06,-1.06,-1.23,-1.57,-1.40,-1.40,-1.40
311.69,-0.29,1.07,-0.40,0.98,-0.98,-1.21,-1.51,-1.27,-1.37,-1.37
314.81,-0.36,0.98,-0.45,0.90,-0.90,-1.18,-1.44,-1.26,-1.35,-1.35
317.96,-0.45,0.87,-0.50,0.83,-0.83,-1.16,-1.38,-1.28,-1.33,-1.33
321.14,-0.49,0.82,-0.55,0.76,-0.76,-1.14,-1.32,-1.25,-1.31,-1.32
324.35,-0.65,0.64,-0.60,0.70,-0.70,-1.11,-1.26,-1.35,-1.30,-1.30
327.59,-0.77,0.51,-0.62,0.66,-0.66,-1.09,-1.20,-1.43,-1.28,-1.29
330.87,-0.72,0.55,-0.63,0.64,-0.64,-1.07,-1.14,-1.36,-1.27,-1.28
334.18,-0.70,0.55,-0.63,0.62,-0.62,-1.05,-1.09,-1.33,-1.26,-1.26
337.52,-0.68,0.56,-0.62,0.62,-0.62,-1.02,-1.03,-1.31,-1.25,-1.25
340.90,-0.61,0.62,-0.61,0.63,-0.63,-1.00,-0.97,-1.24,-1.24,-1.24
344.30,-0.63,0.59,-0.59,0.64,-0.64,-0.98,-0.91,-1.28,-1.23,-1.23
347.75,-0.63,0.59,-0.57,0.66,-0.66,-0.96,-0.86,-1.29,-1.23,-1.23
351.23,-0.53,0.68,-0.54,0.68,-0.68,-0.94,-0.80,-1.22,-1.22,-1.22
354.74,-0.45,0.77,-0.51,0.71,-0.71,-0.92,-0.74,-1.16,-1.22,-1.23
358.28,-0.38,0.83,-0.48,0.73,-0.73,-0.90,-0.69,-1.11,-1.21,-1.22
361.87,-0.32,0.89,-0.46,0.75,-0.75,-0.88,-0.63,-1.07,-1.21,-1.22
365.49,-0.40,0.80,-0.46,0.76,-0.76,-0.86,-0.58,-1.16,-1.21,-1.21
369.14,-0.42,0.79,-0.47,0.74,-0.74,-0.84,-0.53,-1.16,-1.21,-1.22
372.83,-0.45,0.76,-0.49,0.72,-0.72,-0.82,-0.47,-1.17,-1.21,-1.22
376.56,-0.48,0.74,-0.52,0.70,-0.70,-0.80,-0.42,-1.18,-1.22,-1.23
380.33,-0.56,0.65,-0.56,0.66,-0.66,-0.78,-0.37,-1.22,-1.22,-1.22
384.13,-0.68,0.53,-0.60,0.62,-0.62,-0.76,-0.32,-1.31,-1.22,-1.22
387.97,-0.66,0.56,-0.64,0.59,-0.59,-0.74,-0.27,-1.25,-1.23,-1.23
391.85,-0.70,0.53,-0.69,0.54,-0.54,-0.72,-0.22,-1.25,-1.23,-1.24
395.77,-0.80,0.42,-0.75,0.49,-0.49,-0.71,-0.17,-1.29,-1.24,-1.23
399.73,-0.82,0.41,-0.81,0.44,-0.44,-0.69,-0.12,-1.26,-1.24,-1.24
403.72,-0.86,0.37,-0.85,0.40,-0.40,-0.67,-0.07,-1.26,-1.25,-1.24
407.76,-0.94,0.31,-0.89,0.36,-0.36,-0.65,-0.02,-1.31,-1.25,-1.26
411.84,-0.88,0.37,-0.94,0.32,-0.32,-0.63,0.02,-1.20,-1.26,-1.26
415.96,-0.92,0.33,-0.98,0.28,-0.28,-0.61,0.07,-1.20,-1.26,-1.26
420.12,-1.02,0.23,-1.00,0.25,-0.25,-0.59,0.11,-1.27,-1.25,-1.26
424.32,-0.88,0.37,-1.02,0.23,-0.23,-0.58,0.16,-1.11,-1.25,-1.26
428.56,-1.01,0.23,-1.04,0.20,-0.20,-0.56,0.20,-1.21,-1.24,-1.25
432.85,-1.20,0.03,-1.05,0.17,-0.17,-0.54,0.24,-1.37,-1.22,-1.24
437.18,-1.17,0.05,-1.05,0.15,-0.15,-0.52,0.28,-1.33,-1.20,-1.23
441.55,-1.08,0.10,-1.05,0.13,-0.13,-0.50,0.32,-1.21,-1.18,-1.19
445.96,-1.02,0.13,-1.06,0.09,-0.09,-0.48,0.35,-1.11,-1.14,-1.16
450.42,-1.16,-0.04,-1.07,0.04,-0.04,-0.47,0.39,-1.20,-1.11,-1.13
454.93,-1.12,-0.05,-1.08,-0.01,0.01,-0.45,0.42,-1.11,-1.07,-1.08
459.48,-0.95,0.08,-1.09,-0.06,0.06,-0.43,0.45,-0.89,-1.02,-1.04
464.07,-0.98,0.00,-1.09,-0.11,0.11,-0.41,0.48,-0.87,-0.98,-0.99
468.71,-1.04,-0.12,-1.09,-0.16,0.16,-0.39,0.50,-0.88,-0.93,-0.93
