frequency,raw,error,smoothed,error_smoothed,equalization,parametric_eq,fixed_band_eq,equalized_raw,equalized_smoothed,target
20.00,5.10,-5.69,5.05,-5.75,5.75,5.35,1.65,10.85,10.79,10.79
20.20,5.13,-5.67,5.13,-5.68,5.68,5.31,1.70,10.81,10.80,10.80
20.40,5.19,-5.62,5.21,-5.61,5.61,5.28,1.75,10.80,10.81,10.81
20.61,5.26,-5.56,5.28,-5.54,5.54,5.25,1.80,10.80,10.82,10.82
20.81,5.34,-5.48,5.36,-5.47,5.47,5.21,1.86,10.81,10.83,10.82
21.02,5.42,-5.41,5.43,-5.40,5.40,5.17,1.92,10.82,10.84,10.83
21.23,5.49,-5.35,5.51,-5.34,5.34,5.14,1.98,10.83,10.84,10.84
21.44,5.57,-5.29,5.58,-5.27,5.27,5.10,2.04,10.84,10.85,10.86
21.66,5.65,-5.21,5.65,-5.21,5.21,5.06,2.10,10.85,10.85,10.86
21.87,5.72,-5.15,5.72,-5.14,5.14,5.02,2.17,10.86,10.86,10.87
22.09,5.79,-5.07,5.79,-5.08,5.08,4.98,2.23,10.87,10.87,10.87
22.31,5.86,-5.01,5.86,-5.02,5.02,4.94,2.30,10.88,10.87,10.87
22.54,5.93,-4.94,5.93,-4.95,4.95,4.89,2.37,10.88,10.88,10.87
22.76,6.00,-4.88,5.99,-4.89,4.89,4.85,2.44,10.89,10.88,10.88
22.99,6.06,-4.82,6.06,-4.83,4.83,4.81,2.52,10.89,10.88,10.88
23.22,6.12,-4.76,6.12,-4.77,4.77,4.76,2.59,10.89,10.89,10.88
23.45,6.18,-4.71,6.18,-4.71,4.71,4.72,2.67,10.89,10.89,10.89
23.69,6.24,-4.65,6.24,-4.65,4.65,4.67,2.75,10.89,10.89,10.89
23.92,6.31,-4.58,6.30,-4.59,4.59,4.63,2.83,10.90,10.89,10.89
24.16,6.37,-4.52,6.36,-4.53,4.53,4.58,2.91,10.90,10.89,10.89
24.40,6.41,-4.49,6.42,-4.48,4.48,4.53,2.99,10.89,10.89,10.90
24.65,6.46,-4.44,6.47,-4.42,4.42,4.49,3.08,10.88,10.90,10.90
24.89,6.51,-4.39,6.53,-4.37,4.37,4.44,3.16,10.88,10.90,10.90
25.14,6.59,-4.31,6.59,-4.31,4.31,4.39,3.25,10.90,10.90,10.90
25.39,6.65,-4.25,6.64,-4.25,4.25,4.34,3.34,10.91,10.90,10.90
25.65,6.70,-4.19,6.70,-4.20,4.20,4.29,3.42,10.90,10.90,10.89
25.91,6.76,-4.13,6.75,-4.14,4.14,4.24,3.51,10.90,10.90,10.89
26.16,6.80,-4.10,6.81,-4.09,4.09,4.19,3.60,10.89,10.90,10.90
26.43,6.86,-4.04,6.86,-4.04,4.04,4.14,3.68,10.90,10.90,10.90
26.69,6.91,-3.99,6.91,-3.98,3.98,4.09,3.77,10.89,10.90,10.90
26.96,6.97,-3.92,6.96,-3.93,3.93,4.04,3.85,10.90,10.89,10.89
27.23,7.02,-3.87,7.01,-3.88,3.88,3.99,3.93,10.90,10.89,10.89
27.50,7.07,-3.82,7.06,-3.83,3.83,3.93,4.01,10.90,10.89,10.89
27.77,7.11,-3.79,7.11,-3.78,3.78,3.88,4.08,10.89,10.89,10.90
28.05,7.16,-3.73,7.16,-3.73,3.73,3.83,4.15,10.89,10.89,10.89
28.33,7.21,-3.68,7.21,-3.69,3.69,3.78,4.22,10.90,10.89,10.89
28.62,7.25,-3.64,7.26,-3.64,3.64,3.72,4.28,10.89,10.89,10.89
28.90,7.30,-3.59,7.30,-3.59,3.59,3.67,4.33,10.89,10.89,10.90
29.19,7.35,-3.54,7.35,-3.54,3.54,3.61,4.38,10.89,10.89,10.89
29.48,7.39,-3.50,7.40,-3.49,3.49,3.56,4.43,10.88,10.89,10.89
29.78,7.44,-3.45,7.44,-3.44,3.44,3.51,4.46,10.88,10.89,10.89
30.08,7.50,-3.39,7.49,-3.39,3.39,3.45,4.49,10.89,10.88,10.89
30.38,7.53,-3.35,7.54,-3.34,3.34,3.40,4.51,10.87,10.88,10.88
30.68,7.58,-3.29,7.59,-3.29,3.29,3.34,4.52,10.87,10.88,10.87
30.99,7.64,-3.23,7.63,-3.24,3.24,3.29,4.53,10.88,10.87,10.87
31.30,7.69,-3.18,7.68,-3.19,3.19,3.23,4.53,10.88,10.87,10.87
31.61,7.72,-3.14,7.73,-3.13,3.13,3.17,4.51,10.85,10.86,10.86
31.93,7.78,-3.07,7.77,-3.08,3.08,3.12,4.49,10.86,10.86,10.85
32.24,7.81,-3.04,7.82,-3.03,3.03,3.06,4.46,10.84,10.85,10.85
32.57,7.86,-2.98,7.86,-2.98,2.98,3.01,4.42,10.84,10.84,10.84
32.89,7.92,-2.91,7.91,-2.93,2.93,2.95,4.38,10.85,10.84,10.83
33.22,7.95,-2.88,7.95,-2.88,2.88,2.89,4.33,10.83,10.83,10.83
33.55,8.00,-2.82,7.99,-2.83,2.83,2.84,4.27,10.83,10.82,10.82
33.89,8.03,-2.79,8.03,-2.78,2.78,2.78,4.20,10.81,10.81,10.82
34.23,8.07,-2.73,8.07,-2.74,2.74,2.72,4.13,10.80,10.80,10.80
34.57,8.12,-2.68,8.11,-2.69,2.69,2.67,4.05,10.81,10.79,10.80
34.92,8.15,-2.63,8.15,-2.64,2.64,2.61,3.96,10.79,10.78,10.78
35.27,8.18,-2.60,8.18,-2.59,2.59,2.55,3.88,10.77,10.77,10.78
35.62,8.21,-2.55,8.22,-2.54,2.54,2.50,3.78,10.75,10.76,10.76
35.97,8.26,-2.49,8.26,-2.49,2.49,2.44,3.69,10.75,10.75,10.75
36.33,8.28,-2.45,8.29,-2.44,2.44,2.38,3.59,10.72,10.73,10.73
36.70,8.33,-2.39,8.33,-2.39,2.39,2.32,3.49,10.72,10.72,10.72
37.06,8.36,-2.34,8.37,-2.33,2.33,2.27,3.39,10.69,10.70,10.70
37.43,8.40,-2.28,8.40,-2.28,2.28,2.21,3.28,10.68,10.68,10.68
37.81,8.44,-2.22,8.44,-2.22,2.22,2.15,3.18,10.66,10.66,10.66
38.19,8.48,-2.16,8.48,-2.16,2.16,2.09,3.07,10.64,10.64,10.64
38.57,8.51,-2.11,8.52,-2.11,2.11,2.04,2.96,10.62,10.62,10.62
38.95,8.56,-2.04,8.55,-2.05,2.05,1.98,2.86,10.61,10.60,10.60
39.34,8.59,-1.98,8.59,-1.99,1.99,1.92,2.75,10.58,10.58,10.57
39.74,8.62,-1.93,8.63,-1.93,1.93,1.87,2.64,10.55,10.56,10.55
40.14,8.66,-1.87,8.66,-1.87,1.87,1.81,2.54,10.53,10.53,10.53
40.54,8.69,-1.82,8.69,-1.82,1.82,1.75,2.43,10.51,10.51,10.51
40.94,8.72,-1.76,8.72,-1.76,1.76,1.69,2.33,10.48,10.48,10.48
41.35,8.77,-1.69,8.75,-1.71,1.71,1.63,2.22,10.48,10.46,10.46
41.76,8.78,-1.65,8.78,-1.65,1.65,1.58,2.12,10.43,10.43,10.43
42.18,8.82,-1.59,8.80,-1.60,1.60,1.52,2.02,10.42,10.40,10.41
42.60,8.82,-1.55,8.82,-1.55,1.55,1.46,1.92,10.37,10.37,10.37
43.03,8.86,-1.48,8.84,-1.50,1.50,1.40,1.82,10.36,10.34,10.34
43.46,8.86,-1.44,8.86,-1.44,1.44,1.35,1.72,10.30,10.31,10.30
43.90,8.86,-1.41,8.88,-1.40,1.40,1.29,1.63,10.26,10.27,10.27
44.33,8.91,-1.32,8.89,-1.34,1.34,1.23,1.53,10.25,10.24,10.23
44.78,8.91,-1.29,8.91,-1.29,1.29,1.17,1.44,10.20,10.20,10.20
45.23,8.91,-1.26,8.92,-1.24,1.24,1.12,1.35,10.15,10.16,10.17
45.68,8.91,-1.22,8.93,-1.19,1.19,1.06,1.26,10.10,10.12,10.13
46.13,8.96,-1.12,8.95,-1.14,1.14,1.00,1.17,10.10,10.08,10.08
46.60,8.96,-1.08,8.96,-1.08,1.08,0.94,1.08,10.04,10.04,10.04
47.06,8.96,-1.04,8.97,-1.02,1.02,0.89,0.99,9.98,10.00,10.00
47.53,9.00,-0.96,8.99,-0.96,0.96,0.83,0.90,9.96,9.95,9.96
48.01,9.00,-0.90,9.00,-0.91,0.91,0.77,0.82,9.91,9.91,9.90
48.49,9.00,-0.86,9.02,-0.85,0.85,0.71,0.73,9.85,9.86,9.86
48.97,9.04,-0.77,9.03,-0.79,0.79,0.66,0.65,9.83,9.81,9.81
49.46,9.05,-0.72,9.04,-0.73,0.73,0.60,0.57,9.78,9.77,9.77
49.96,9.05,-0.66,9.05,-0.67,0.67,0.54,0.49,9.72,9.72,9.71
50.46,9.05,-0.61,9.07,-0.60,0.60,0.48,0.41,9.65,9.67,9.66
50.96,9.10,-0.52,9.08,-0.54,0.54,0.43,0.33,9.64,9.62,9.62
51.47,9.10,-0.47,9.09,-0.48,0.48,0.37,0.26,9.58,9.57,9.57
51.99,9.10,-0.42,9.10,-0.42,0.42,0.31,0.18,9.52,9.52,9.52
52.51,9.10,-0.37,9.12,-0.35,0.35,0.25,0.10,9.45,9.47,9.47
53.03,9.13,-0.30,9.13,-0.29,0.29,0.20,0.03,9.42,9.42,9.43
53.56,9.14,-0.23,9.15,-0.22,0.22,0.14,-0.04,9.36,9.37,9.37
54.10,9.14,-0.17,9.16,-0.15,0.15,0.08,-0.11,9.29,9.32,9.31
54.64,9.18,-0.08,9.18,-0.09,0.09,0.02,-0.18,9.27,9.27,9.26
55.18,9.19,-0.01,9.19,-0.02,0.02,-0.03,-0.25,9.21,9.22,9.20
55.74,9.19,0.04,9.21,0.04,-0.04,-0.09,-0.32,9.15,9.17,9.15
56.29,9.24,0.13,9.22,0.11,-0.11,-0.15,-0.38,9.13,9.12,9.11
56.86,9.24,0.18,9.23,0.17,-0.17,-0.20,-0.45,9.07,9.06,9.06
57.42,9.24,0.24,9.25,0.24,-0.24,-0.26,-0.51,9.00,9.01,9.00
58.00,9.26,0.31,9.26,0.30,-0.30,-0.32,-0.57,8.96,8.96,8.95
58.58,9.28,0.37,9.26,0.36,-0.36,-0.38,-0.63,8.92,8.90,8.91
59.16,9.28,0.42,9.27,0.42,-0.42,-0.43,-0.69,8.86,8.84,8.86
59.76,9.28,0.47,9.27,0.48,-0.48,-0.49,-0.75,8.80,8.79,8.81
60.35,9.28,0.54,9.27,0.54,-0.54,-0.55,-0.80,8.74,8.73,8.74
60.96,9.28,0.60,9.27,0.60,-0.60,-0.61,-0.85,8.68,8.67,8.68
61.57,9.28,0.67,9.27,0.66,-0.66,-0.66,-0.91,8.62,8.61,8.61
62.18,9.28,0.75,9.27,0.73,-0.73,-0.72,-0.96,8.55,8.55,8.53
62.80,9.24,0.77,9.27,0.79,-0.79,-0.78,-1.00,8.45,8.48,8.47
63.43,9.24,0.84,9.27,0.85,-0.85,-0.84,-1.05,8.39,8.42,8.40
64.07,9.24,0.90,9.27,0.92,-0.92,-0.89,-1.10,8.32,8.35,8.34
64.71,9.26,0.98,9.27,0.98,-0.98,-0.95,-1.14,8.28,8.29,8.28
65.35,9.27,1.05,9.27,1.05,-1.05,-1.01,-1.18,8.22,8.22,8.22
66.01,9.28,1.12,9.27,1.11,-1.11,-1.07,-1.23,8.17,8.16,8.16
66.67,9.28,1.17,9.27,1.18,-1.18,-1.12,-1.27,8.10,8.09,8.11
67.33,9.28,1.25,9.27,1.24,-1.24,-1.18,-1.31,8.04,8.03,8.03
68.01,9.28,1.31,9.27,1.31,-1.31,-1.24,-1.34,7.97,7.96,7.97
68.69,9.28,1.38,9.27,1.37,-1.37,-1.30,-1.38,7.91,7.90,7.90
69.37,9.28,1.44,9.27,1.44,-1.44,-1.35,-1.42,7.84,7.83,7.84
70.07,9.28,1.51,9.26,1.50,-1.50,-1.41,-1.46,7.78,7.76,7.77
70.77,9.24,1.54,9.26,1.57,-1.57,-1.47,-1.50,7.67,7.69,7.70
71.48,9.24,1.61,9.25,1.63,-1.63,-1.53,-1.53,7.61,7.62,7.63
72.19,9.24,1.69,9.24,1.69,-1.69,-1.58,-1.57,7.55,7.55,7.55
72.91,9.24,1.76,9.23,1.75,-1.75,-1.64,-1.61,7.49,7.48,7.48
73.64,9.24,1.84,9.22,1.81,-1.81,-1.70,-1.64,7.43,7.41,7.40
74.38,9.19,1.86,9.21,1.87,-1.87,-1.76,-1.68,7.32,7.34,7.33
75.12,9.19,1.93,9.20,1.93,-1.93,-1.81,-1.72,7.26,7.27,7.26
75.87,9.19,1.99,9.19,1.99,-1.99,-1.87,-1.76,7.20,7.21,7.20
76.63,9.19,2.06,9.18,2.04,-2.04,-1.93,-1.80,7.15,7.14,7.13
77.40,9.19,2.12,9.17,2.10,-2.10,-1.98,-1.84,7.09,7.07,7.07
78.17,9.16,2.16,9.16,2.15,-2.15,-2.04,-1.89,7.01,7.00,7.00
78.95,9.14,2.20,9.15,2.21,-2.21,-2.10,-1.93,6.93,6.94,6.94
79.74,9.14,2.26,9.13,2.26,-2.26,-2.16,-1.98,6.88,6.87,6.88
80.54,9.11,2.30,9.12,2.31,-2.31,-2.21,-2.02,6.80,6.80,6.81
81.35,9.10,2.36,9.10,2.36,-2.36,-2.27,-2.07,6.74,6.74,6.74
82.16,9.10,2.42,9.09,2.41,-2.41,-2.33,-2.12,6.69,6.67,6.68
82.98,9.06,2.45,9.07,2.47,-2.47,-2.38,-2.17,6.59,6.60,6.61
83.81,9.05,2.51,9.05,2.52,-2.52,-2.44,-2.23,6.53,6.54,6.54
84.65,9.05,2.59,9.04,2.57,-2.57,-2.50,-2.28,6.48,6.47,6.46
85.50,9.00,2.61,9.02,2.62,-2.62,-2.55,-2.34,6.38,6.40,6.39
86.35,9.00,2.68,9.00,2.68,-2.68,-2.61,-2.40,6.32,6.33,6.32
87.22,8.99,2.73,8.98,2.73,-2.73,-2.67,-2.46,6.26,6.26,6.26
88.09,8.96,2.78,8.97,2.78,-2.78,-2.72,-2.52,6.18,6.18,6.18
88.97,8.96,2.85,8.95,2.84,-2.84,-2.78,-2.58,6.12,6.11,6.11
89.86,8.92,2.88,8.93,2.89,-2.89,-2.83,-2.65,6.03,6.04,6.04
90.76,8.91,2.94,8.91,2.94,-2.94,-2.89,-2.72,5.97,5.96,5.97
91.66,8.91,3.02,8.89,3.00,-3.00,-2.95,-2.79,5.91,5.89,5.89
92.58,8.86,3.04,8.87,3.05,-3.05,-3.00,-2.86,5.81,5.81,5.82
93.51,8.85,3.11,8.85,3.11,-3.11,-3.06,-2.94,5.74,5.74,5.74
94.44,8.82,3.15,8.83,3.17,-3.17,-3.11,-3.01,5.65,5.66,5.67
95.39,8.81,3.22,8.81,3.22,-3.22,-3.17,-3.09,5.59,5.58,5.59
96.34,8.77,3.26,8.79,3.28,-3.28,-3.22,-3.17,5.49,5.51,5.51
97.30,8.77,3.34,8.77,3.34,-3.34,-3.28,-3.25,5.43,5.43,5.43
98.28,8.74,3.39,8.75,3.39,-3.39,-3.33,-3.33,5.35,5.35,5.35
99.26,8.72,3.45,8.72,3.45,-3.45,-3.38,-3.42,5.27,5.28,5.27
100.25,8.70,3.51,8.70,3.50,-3.50,-3.44,-3.50,5.20,5.20,5.19
101.25,8.68,3.55,8.68,3.55,-3.55,-3.49,-3.59,5.13,5.13,5.13
102.27,8.68,3.63,8.66,3.60,-3.60,-3.54,-3.68,5.08,5.05,5.05
103.29,8.63,3.65,8.64,3.66,-3.66,-3.60,-3.76,4.97,4.98,4.98
104.32,8.62,3.71,8.61,3.70,-3.70,-3.65,-3.85,4.92,4.91,4.91
105.37,8.58,3.75,8.58,3.75,-3.75,-3.70,-3.94,4.83,4.83,4.83
106.42,8.56,3.79,8.56,3.80,-3.80,-3.75,-4.02,4.76,4.76,4.77
107.48,8.54,3.86,8.53,3.84,-3.84,-3.80,-4.11,4.70,4.69,4.68
108.56,8.50,3.88,8.50,3.89,-3.89,-3.86,-4.20,4.61,4.61,4.62
109.64,8.47,3.93,8.47,3.93,-3.93,-3.91,-4.28,4.54,4.54,4.54
110.74,8.44,3.97,8.44,3.98,-3.98,-3.96,-4.36,4.46,4.46,4.47
111.85,8.40,4.01,8.41,4.02,-4.02,-4.01,-4.44,4.38,4.39,4.39
112.97,8.37,4.05,8.38,4.06,-4.06,-4.06,-4.52,4.31,4.31,4.32
114.10,8.35,4.11,8.35,4.11,-4.11,-4.10,-4.59,4.24,4.24,4.24
115.24,8.31,4.15,8.32,4.15,-4.15,-4.15,-4.66,4.16,4.16,4.16
116.39,8.28,4.20,8.28,4.20,-4.20,-4.20,-4.72,4.09,4.09,4.08
117.55,8.26,4.25,8.25,4.24,-4.24,-4.25,-4.79,4.02,4.01,4.01
118.73,8.22,4.30,8.22,4.28,-4.28,-4.30,-4.84,3.94,3.94,3.92
119.92,8.18,4.33,8.18,4.32,-4.32,-4.34,-4.89,3.86,3.86,3.85
121.12,8.15,4.36,8.15,4.37,-4.37,-4.39,-4.94,3.79,3.79,3.79
122.33,8.12,4.41,8.12,4.41,-4.41,-4.43,-4.98,3.71,3.71,3.71
123.55,8.09,4.45,8.08,4.45,-4.45,-4.48,-5.01,3.64,3.64,3.64
124.79,8.05,4.48,8.05,4.49,-4.49,-4.52,-5.04,3.56,3.56,3.57
126.03,8.02,4.53,8.02,4.53,-4.53,-4.56,-5.06,3.49,3.49,3.49
127.29,7.98,4.56,7.99,4.57,-4.57,-4.61,-5.08,3.41,3.41,3.42
128.57,7.94,4.60,7.95,4.61,-4.61,-4.65,-5.09,3.33,3.34,3.34
129.85,7.93,4.66,7.92,4.66,-4.66,-4.69,-5.09,3.27,3.27,3.27
131.15,7.88,4.69,7.89,4.70,-4.70,-4.73,-5.09,3.18,3.19,3.19
132.46,7.85,4.73,7.86,4.74,-4.74,-4.77,-5.09,3.11,3.12,3.12
133.79,7.84,4.79,7.83,4.78,-4.78,-4.81,-5.08,3.06,3.05,3.05
135.12,7.79,4.81,7.80,4.82,-4.82,-4.84,-5.06,2.97,2.98,2.98
136.48,7.78,4.86,7.77,4.86,-4.86,-4.88,-5.05,2.92,2.91,2.92
137.84,7.74,4.89,7.74,4.89,-4.89,-4.92,-5.02,2.85,2.84,2.85
139.22,7.70,4.93,7.70,4.93,-4.93,-4.95,-5.00,2.77,2.78,2.77
140.61,7.69,4.98,7.67,4.96,-4.96,-4.99,-4.97,2.73,2.71,2.71
142.02,7.65,5.00,7.64,4.99,-4.99,-5.02,-4.94,2.66,2.65,2.65
143.44,7.60,5.02,7.61,5.02,-5.02,-5.05,-4.91,2.58,2.59,2.58
144.87,7.57,5.04,7.57,5.04,-5.04,-5.08,-4.88,2.53,2.53,2.53
146.32,7.53,5.06,7.53,5.07,-5.07,-5.12,-4.85,2.46,2.47,2.47
147.78,7.49,5.08,7.49,5.09,-5.09,-5.14,-4.82,2.40,2.41,2.41
149.26,7.45,5.10,7.46,5.11,-5.11,-5.17,-4.79,2.34,2.35,2.35
150.75,7.42,5.14,7.42,5.13,-5.13,-5.20,-4.75,2.29,2.29,2.28
152.26,7.37,5.14,7.38,5.15,-5.15,-5.23,-4.72,2.22,2.23,2.23
153.78,7.34,5.17,7.34,5.17,-5.17,-5.25,-4.70,2.17,2.17,2.17
155.32,7.30,5.19,7.29,5.19,-5.19,-5.28,-4.67,2.11,2.11,2.11
156.88,7.25,5.20,7.25,5.20,-5.20,-5.30,-4.64,2.05,2.05,2.05
158.44,7.22,5.23,7.21,5.22,-5.22,-5.32,-4.62,2.00,1.99,1.99
160.03,7.16,5.23,7.17,5.24,-5.24,-5.34,-4.60,1.92,1.93,1.93
161.63,7.13,5.26,7.13,5.26,-5.26,-5.36,-4.58,1.87,1.87,1.87
163.24,7.08,5.28,7.08,5.28,-5.28,-5.38,-4.57,1.80,1.81,1.80
164.88,7.05,5.30,7.04,5.30,-5.30,-5.40,-4.55,1.75,1.75,1.75
166.53,6.99,5.31,7.00,5.31,-5.31,-5.41,-4.55,1.68,1.69,1.68
168.19,6.96,5.33,6.95,5.33,-5.33,-5.43,-4.54,1.63,1.63,1.63
169.87,6.91,5.34,6.91,5.35,-5.35,-5.44,-4.54,1.56,1.57,1.57
171.57,6.87,5.37,6.87,5.36,-5.36,-5.46,-4.54,1.51,1.51,1.50
173.29,6.82,5.37,6.82,5.38,-5.38,-5.47,-4.54,1.44,1.45,1.45
175.02,6.77,5.38,6.78,5.39,-5.39,-5.48,-4.55,1.38,1.39,1.39
176.77,6.74,5.41,6.73,5.41,-5.41,-5.49,-4.56,1.33,1.33,1.33
178.54,6.69,5.42,6.69,5.42,-5.42,-5.49,-4.58,1.27,1.27,1.27
180.32,6.65,5.44,6.65,5.43,-5.43,-5.50,-4.59,1.22,1.21,1.21
182.13,6.60,5.45,6.60,5.45,-5.45,-5.50,-4.62,1.15,1.16,1.15
183.95,6.55,5.45,6.56,5.46,-5.46,-5.51,-4.64,1.09,1.10,1.10
185.79,6.51,5.47,6.51,5.47,-5.47,-5.51,-4.67,1.04,1.04,1.04
187.65,6.46,5.47,6.47,5.48,-5.48,-5.51,-4.70,0.98,0.99,0.99
189.52,6.43,5.50,6.42,5.49,-5.49,-5.51,-4.74,0.94,0.93,0.93
191.42,6.37,5.49,6.38,5.50,-5.50,-5.51,-4.78,0.87,0.88,0.88
193.33,6.34,5.51,6.33,5.51,-5.51,-5.51,-4.82,0.83,0.82,0.83
195.27,6.28,5.51,6.28,5.51,-5.51,-5.50,-4.86,0.77,0.77,0.77
197.22,6.23,5.51,6.24,5.51,-5.51,-5.50,-4.91,0.72,0.72,0.72
199.19,6.20,5.53,6.19,5.51,-5.51,-5.49,-4.96,0.69,0.67,0.67
201.18,6.14,5.52,6.14,5.51,-5.51,-5.48,-5.01,0.63,0.63,0.62
203.19,6.09,5.51,6.09,5.51,-5.51,-5.48,-5.06,0.58,0.58,0.58
205.23,6.04,5.50,6.04,5.50,-5.50,-5.47,-5.12,0.54,0.54,0.54
207.28,5.99,5.49,5.99,5.50,-5.50,-5.45,-5.17,0.49,0.49,0.50
209.35,5.95,5.50,5.94,5.49,-5.49,-5.44,-5.23,0.46,0.45,0.45
211.44,5.89,5.48,5.89,5.48,-5.48,-5.43,-5.29,0.41,0.41,0.41
213.56,5.83,5.46,5.83,5.46,-5.46,-5.41,-5.35,0.37,0.37,0.37
215.69,5.77,5.43,5.78,5.45,-5.45,-5.40,-5.40,0.32,0.33,0.34
217.85,5.73,5.43,5.73,5.44,-5.44,-5.38,-5.46,0.29,0.30,0.30
220.03,5.68,5.42,5.68,5.42,-5.42,-5.36,-5.51,0.26,0.26,0.26
222.23,5.62,5.40,5.63,5.40,-5.40,-5.34,-5.56,0.22,0.23,0.22
224.45,5.57,5.38,5.58,5.38,-5.38,-5.32,-5.61,0.19,0.19,0.19
226.70,5.53,5.37,5.52,5.36,-5.36,-5.30,-5.66,0.17,0.16,0.16
228.96,5.48,5.34,5.47,5.34,-5.34,-5.28,-5.70,0.14,0.13,0.14
231.25,5.42,5.31,5.42,5.32,-5.32,-5.26,-5.74,0.10,0.10,0.11
233.57,5.37,5.29,5.37,5.29,-5.29,-5.23,-5.77,0.08,0.08,0.08
235.90,5.32,5.27,5.32,5.27,-5.27,-5.21,-5.80,0.05,0.05,0.05
238.26,5.27,5.25,5.26,5.24,-5.24,-5.18,-5.82,0.03,0.02,0.02
240.64,5.21,5.20,5.21,5.21,-5.21,-5.15,-5.83,-0.00,0.00,0.01
243.05,5.16,5.18,5.16,5.18,-5.18,-5.12,-5.84,-0.02,-0.02,-0.02
245.48,5.10,5.15,5.11,5.15,-5.15,-5.09,-5.84,-0.05,-0.04,-0.05
247.93,5.05,5.12,5.06,5.12,-5.12,-5.06,-5.83,-0.07,-0.06,-0.07
250.41,5.01,5.09,5.01,5.09,-5.09,-5.03,-5.82,-0.08,-0.08,-0.08
252.92,4.96,5.05,4.96,5.06,-5.06,-5.00,-5.80,-0.10,-0.10,-0.09
255.45,4.91,5.03,4.91,5.03,-5.03,-4.97,-5.77,-0.12,-0.12,-0.12
258.00,4.85,4.98,4.87,5.00,-5.00,-4.94,-5.73,-0.15,-0.13,-0.13
260.58,4.82,4.96,4.82,4.97,-4.97,-4.90,-5.69,-0.15,-0.15,-0.14
263.19,4.77,4.93,4.78,4.93,-4.93,-4.87,-5.63,-0.16,-0.16,-0.16
265.82,4.74,4.91,4.73,4.90,-4.90,-4.83,-5.58,-0.16,-0.17,-0.17
268.48,4.69,4.87,4.69,4.87,-4.87,-4.79,-5.51,-0.18,-0.19,-0.18
271.16,4.65,4.84,4.64,4.84,-4.84,-4.76,-5.44,-0.19,-0.20,-0.19
273.87,4.60,4.81,4.60,4.80,-4.80,-4.72,-5.37,-0.20,-0.21,-0.21
276.61,4.55,4.77,4.55,4.76,-4.76,-4.68,-5.29,-0.22,-0.22,-0.22
279.38,4.50,4.74,4.50,4.72,-4.72,-4.64,-5.21,-0.22,-0.23,-0.24
282.17,4.46,4.70,4.45,4.68,-4.68,-4.60,-5.12,-0.22,-0.23,-0.24
284.99,4.40,4.64,4.40,4.64,-4.64,-4.56,-5.03,-0.24,-0.24,-0.24
287.84,4.36,4.60,4.35,4.60,-4.60,-4.52,-4.94,-0.24,-0.24,-0.24
290.72,4.31,4.57,4.30,4.55,-4.55,-4.48,-4.84,-0.24,-0.25,-0.26
293.63,4.26,4.51,4.25,4.51,-4.51,-4.43,-4.75,-0.25,-0.25,-0.25
296.57,4.19,4.44,4.20,4.46,-4.46,-4.39,-4.65,-0.27,-0.26,-0.25
299.53,4.13,4.39,4.15,4.41,-4.41,-4.35,-4.56,-0.28,-0.26,-0.26
302.53,4.10,4.36,4.10,4.36,-4.36,-4.30,-4.46,-0.26,-0.26,-0.26
305.55,4.04,4.31,4.05,4.31,-4.31,-4.26,-4.36,-0.27,-0.27,-0.27
308.61,3.99,4.25,4.00,4.26,-4.26,-4.22,-4.27,-0.27,-0.27,-0.26
311.69,3.96,4.23,3.95,4.22,-4.22,-4.17,-4.17,-0.26,-0.27,-0.27
314.81,3.90,4.17,3.90,4.17,-4.17,-4.12,-4.08,-0.27,-0.27,-0.27
317.96,3.85,4.12,3.85,4.12,-4.12,-4.08,-3.98,-0.27,-0.27,-0.27
321.14,3.80,4.07,3.80,4.07,-4.07,-4.03,-3.89,-0.27,-0.27,-0.27
324.35,3.75,4.03,3.75,4.02,-4.02,-3.99,-3.80,-0.27,-0.27,-0.28
327.59,3.71,3.97,3.71,3.98,-3.98,-3.94,-3.71,-0.27,-0.27,-0.26
330.87,3.65,3.92,3.66,3.93,-3.93,-3.89,-3.63,-0.28,-0.27,-0.27
334.18,3.61,3.88,3.61,3.88,-3.88,-3.84,-3.55,-0.27,-0.27,-0.27
337.52,3.57,3.84,3.56,3.83,-3.83,-3.79,-3.46,-0.26,-0.27,-0.27
340.90,3.51,3.77,3.52,3.78,-3.78,-3.75,-3.39,-0.27,-0.26,-0.26
344.30,3.47,3.73,3.47,3.73,-3.73,-3.70,-3.31,-0.26,-0.26,-0.26
347.75,3.43,3.68,3.42,3.68,-3.68,-3.65,-3.23,-0.25,-0.26,-0.25
351.23,3.37,3.63,3.37,3.63,-3.63,-3.60,-3.16,-0.26,-0.25,-0.26
354.74,3.33,3.57,3.33,3.57,-3.57,-3.55,-3.09,-0.24,-0.25,-0.24
358.28,3.29,3.54,3.28,3.52,-3.52,-3.50,-3.03,-0.23,-0.24,-0.25
361.87,3.23,3.47,3.23,3.47,-3.47,-3.45,-2.96,-0.24,-0.24,-0.24
365.49,3.17,3.40,3.18,3.41,-3.41,-3.40,-2.90,-0.24,-0.24,-0.23
369.14,3.13,3.36,3.13,3.36,-3.36,-3.35,-2.84,-0.23,-0.23,-0.23
372.83,3.07,3.29,3.08,3.30,-3.30,-3.30,-2.78,-0.23,-0.22,-0.22
376.56,3.03,3.25,3.02,3.24,-3.24,-3.25,-2.73,-0.21,-0.22,-0.22
380.33,2.96,3.18,2.97,3.18,-3.18,-3.20,-2.67,-0.22,-0.21,-0.22
384.13,2.92,3.13,2.92,3.13,-3.13,-3.14,-2.62,-0.21,-0.21,-0.21
387.97,2.87,3.07,2.86,3.07,-3.07,-3.09,-2.57,-0.20,-0.21,-0.20
391.85,2.82,3.02,2.81,3.01,-3.01,-3.04,-2.52,-0.19,-0.20,-0.20
395.77,2.76,2.96,2.75,2.95,-2.95,-2.99,-2.48,-0.19,-0.19,-0.20
399.73,2.70,2.89,2.70,2.89,-2.89,-2.94,-2.44,-0.19,-0.19,-0.19
403.72,2.64,2.81,2.65,2.83,-2.83,-2.88,-2.39,-0.19,-0.18,-0.17
407.76,2.59,2.77,2.60,2.78,-2.78,-2.83,-2.35,-0.19,-0.18,-0.18
411.84,2.54,2.71,2.55,2.72,-2.72,-2.78,-2.31,-0.18,-0.17,-0.17
415.96,2.50,2.66,2.50,2.66,-2.66,-2.73,-2.28,-0.16,-0.16,-0.16
420.12,2.44,2.60,2.45,2.61,-2.61,-2.67,-2.24,-0.17,-0.16,-0.16
424.32,2.40,2.56,2.40,2.55,-2.55,-2.62,-2.20,-0.15,-0.15,-0.16
428.56,2.36,2.50,2.35,2.50,-2.50,-2.57,-2.17,-0.14,-0.14,-0.14
432.85,2.30,2.43,2.31,2.44,-2.44,-2.51,-2.14,-0.14,-0.14,-0.13
437.18,2.26,2.39,2.26,2.39,-2.39,-2.46,-2.10,-0.13,-0.13,-0.13
441.55,2.22,2.34,2.21,2.33,-2.33,-2.40,-2.07,-0.11,-0.12,-0.12
445.96,2.16,2.27,2.17,2.28,-2.28,-2.35,-2.04,-0.12,-0.11,-0.12
450.42,2.12,2.23,2.12,2.22,-2.22,-2.30,-2.01,-0.10,-0.10,-0.11
454.93,2.08,2.18,2.07,2.17,-2.17,-2.24,-1.98,-0.09,-0.09,-0.10
459.48,2.03,2.12,2.02,2.11,-2.11,-2.19,-1.95,-0.08,-0.09,-0.09
464.07,1.98,2.05,1.98,2.05,-2.05,-2.13,-1.92,-0.07,-0.08,-0.07
468.71,1.94,2.00,1.93,2.00,-2.00,-2.08,-1.88,-0.06,-0.07,-0.06
473.40,1.88,1.93,1.88,1.94,-1.94,-2.02,-1.85,-0.06,-0.06,-0.05
478.13,1.83,1.88,1.83,1.88,-1.88,-1.96,-1.82,-0.05,-0.05,-0.05
482.91,1.77,1.81,1.78,1.82,-1.82,-1.91,-1.79,-0.05,-0.04,-0.04
487.74,1.73,1.76,1.74,1.76,-1.76,-1.85,-1.75,-0.03,-0.03,-0.03
492.62,1.69,1.71,1.69,1.70,-1.70,-1.79,-1.72,-0.01,-0.02,-0.02
497.55,1.63,1.64,1.64,1.65,-1.65,-1.74,-1.68,-0.02,-0.01,-0.01
502.52,1.60,1.60,1.60,1.59,-1.59,-1.68,-1.65,0.01,0.01,-0.00
507.55,1.55,1.53,1.55,1.53,-1.53,-1.62,-1.61,0.02,0.02,0.02
512.62,1.51,1.48,1.51,1.48,-1.48,-1.57,-1.57,0.03,0.03,0.03
