frequency,raw,error,smoothed,error_smoothed,equalization,parametric_eq,fixed_band_eq,equalized_raw,equalized_smoothed,target
20.00,-11.62,-11.49,-11.62,-11.52,11.52,11.63,4.01,-0.10,-0.10,-0.13
20.20,-11.49,-11.45,-11.49,-11.46,11.46,11.58,4.12,-0.03,-0.03,-0.04
20.40,-11.35,-11.40,-11.36,-11.40,11.40,11.52,4.23,0.05,0.05,0.04
20.61,-11.23,-11.34,-11.22,-11.34,11.34,11.46,4.34,0.11,0.12,0.11
20.81,-11.09,-11.30,-11.09,-11.28,11.28,11.40,4.46,0.18,0.19,0.20
21.02,-10.97,-11.25,-10.96,-11.21,11.21,11.34,4.58,0.25,0.25,0.28
21.23,-10.83,-11.17,-10.83,-11.15,11.15,11.27,4.70,0.32,0.32,0.34
21.44,-10.69,-11.10,-10.70,-11.07,11.07,11.20,4.83,0.38,0.38,0.40
21.66,-10.57,-11.02,-10.56,-11.00,11.00,11.12,4.96,0.43,0.44,0.45
21.87,-10.43,-10.94,-10.43,-10.93,10.93,11.05,5.09,0.49,0.49,0.50
22.09,-10.29,-10.85,-10.30,-10.85,10.85,10.97,5.23,0.55,0.55,0.55
22.31,-10.16,-10.77,-10.17,-10.77,10.77,10.89,5.37,0.60,0.60,0.60
22.54,-10.04,-10.68,-10.04,-10.68,10.68,10.81,5.51,0.64,0.64,0.64
22.76,-9.91,-10.59,-9.91,-10.59,10.59,10.72,5.66,0.68,0.68,0.68
22.99,-9.78,-10.49,-9.77,-10.50,10.50,10.64,5.81,0.72,0.72,0.71
23.22,-9.65,-10.40,-9.64,-10.40,10.40,10.55,5.97,0.76,0.76,0.75
23.45,-9.51,-10.30,-9.51,-10.31,10.31,10.46,6.12,0.80,0.80,0.79
23.69,-9.38,-10.21,-9.38,-10.21,10.21,10.38,6.29,0.83,0.84,0.83
23.92,-9.24,-10.12,-9.25,-10.12,10.12,10.29,6.45,0.87,0.87,0.87
24.16,-9.12,-10.04,-9.11,-10.02,10.02,10.19,6.62,0.91,0.91,0.92
24.40,-8.98,-9.93,-8.98,-9.92,9.92,10.10,6.80,0.94,0.94,0.95
24.65,-8.86,-9.83,-8.85,-9.83,9.83,10.01,6.97,0.97,0.97,0.97
24.89,-8.72,-9.72,-8.72,-9.73,9.73,9.91,7.15,1.00,1.01,1.00
25.14,-8.58,-9.63,-8.59,-9.63,9.63,9.82,7.34,1.05,1.04,1.04
25.39,-8.45,-9.53,-8.46,-9.53,9.53,9.72,7.52,1.08,1.07,1.07
25.65,-8.33,-9.44,-8.33,-9.43,9.43,9.63,7.71,1.11,1.11,1.11
25.91,-8.20,-9.33,-8.20,-9.33,9.33,9.53,7.90,1.13,1.14,1.13
26.16,-8.06,-9.23,-8.07,-9.23,9.23,9.43,8.09,1.17,1.17,1.16
26.43,-7.94,-9.14,-7.94,-9.13,9.13,9.34,8.28,1.19,1.20,1.20
26.69,-7.81,-9.04,-7.81,-9.03,9.03,9.24,8.46,1.23,1.23,1.23
26.96,-7.68,-8.94,-7.68,-8.93,8.93,9.14,8.65,1.25,1.26,1.26
27.23,-7.55,-8.84,-7.55,-8.83,8.83,9.04,8.84,1.29,1.29,1.29
27.50,-7.42,-8.74,-7.42,-8.73,8.73,8.94,9.02,1.32,1.32,1.32
27.77,-7.28,-8.63,-7.29,-8.64,8.64,8.84,9.19,1.35,1.35,1.34
28.05,-7.17,-8.55,-7.16,-8.54,8.54,8.74,9.36,1.37,1.38,1.38
28.33,-7.04,-8.44,-7.03,-8.44,8.44,8.64,9.52,1.40,1.41,1.40
28.62,-6.91,-8.34,-6.91,-8.34,8.34,8.54,9.68,1.44,1.44,1.43
28.90,-6.78,-8.25,-6.78,-8.25,8.25,8.44,9.82,1.47,1.47,1.47
29.19,-6.66,-8.15,-6.66,-8.15,8.15,8.34,9.95,1.50,1.50,1.49
29.48,-6.54,-8.08,-6.54,-8.06,8.06,8.24,10.06,1.53,1.52,1.54
29.78,-6.41,-7.96,-6.42,-7.97,7.97,8.14,10.16,1.56,1.55,1.55
30.08,-6.29,-7.87,-6.30,-7.88,7.88,8.04,10.24,1.59,1.58,1.58
30.38,-6.18,-7.79,-6.18,-7.79,7.79,7.94,10.30,1.61,1.61,1.61
30.68,-6.07,-7.71,-6.07,-7.70,7.70,7.84,10.34,1.64,1.63,1.64
30.99,-5.96,-7.62,-5.95,-7.62,7.62,7.73,10.37,1.66,1.66,1.66
31.30,-5.85,-7.53,-5.84,-7.53,7.53,7.63,10.37,1.68,1.69,1.68
31.61,-5.74,-7.45,-5.73,-7.44,7.44,7.53,10.35,1.71,1.71,1.71
31.93,-5.63,-7.36,-5.62,-7.36,7.36,7.43,10.31,1.73,1.73,1.73
32.24,-5.51,-7.27,-5.51,-7.27,7.27,7.33,10.25,1.76,1.76,1.75
32.57,-5.41,-7.19,-5.40,-7.18,7.18,7.23,10.17,1.78,1.78,1.78
32.89,-5.30,-7.10,-5.30,-7.09,7.09,7.13,10.07,1.80,1.80,1.80
33.22,-5.20,-7.02,-5.19,-7.01,7.01,7.03,9.96,1.81,1.82,1.82
33.55,-5.08,-6.93,-5.08,-6.92,6.92,6.93,9.83,1.83,1.84,1.84
33.89,-4.98,-6.83,-4.97,-6.83,6.83,6.83,9.68,1.85,1.85,1.85
34.23,-4.87,-6.74,-4.87,-6.73,6.73,6.74,9.53,1.87,1.87,1.87
34.57,-4.77,-6.65,-4.76,-6.64,6.64,6.64,9.37,1.88,1.88,1.88
34.92,-4.66,-6.55,-4.66,-6.55,6.55,6.54,9.20,1.89,1.89,1.89
35.27,-4.56,-6.47,-4.56,-6.46,6.46,6.44,9.02,1.90,1.90,1.91
35.62,-4.46,-6.36,-4.46,-6.37,6.37,6.35,8.83,1.91,1.91,1.90
35.97,-4.36,-6.27,-4.36,-6.28,6.28,6.25,8.64,1.92,1.91,1.91
36.33,-4.27,-6.20,-4.27,-6.19,6.19,6.16,8.45,1.92,1.92,1.93
36.70,-4.17,-6.09,-4.17,-6.10,6.10,6.06,8.26,1.93,1.92,1.92
37.06,-4.08,-6.00,-4.08,-6.00,6.00,5.97,8.07,1.93,1.92,1.92
37.43,-3.99,-5.91,-3.99,-5.91,5.91,5.87,7.87,1.92,1.92,1.92
37.81,-3.91,-5.83,-3.90,-5.82,5.82,5.78,7.68,1.91,1.92,1.92
38.19,-3.82,-5.74,-3.81,-5.73,5.73,5.69,7.49,1.91,1.92,1.92
38.57,-3.73,-5.65,-3.72,-5.63,5.63,5.60,7.30,1.91,1.92,1.92
38.95,-3.64,-5.56,-3.63,-5.54,5.54,5.51,7.11,1.90,1.91,1.92
39.34,-3.55,-5.45,-3.54,-5.45,5.45,5.42,6.92,1.90,1.91,1.90
39.74,-3.45,-5.35,-3.45,-5.36,5.36,5.33,6.74,1.91,1.90,1.90
40.14,-3.36,-5.25,-3.37,-5.26,5.26,5.24,6.56,1.91,1.90,1.89
40.54,-3.28,-5.17,-3.28,-5.17,5.17,5.15,6.39,1.89,1.89,1.89
40.94,-3.19,-5.07,-3.19,-5.08,5.08,5.07,6.21,1.89,1.89,1.88
41.35,-3.11,-4.99,-3.11,-4.99,4.99,4.98,6.04,1.88,1.88,1.88
41.76,-3.03,-4.90,-3.03,-4.90,4.90,4.90,5.88,1.87,1.87,1.87
42.18,-2.95,-4.81,-2.95,-4.80,4.80,4.81,5.72,1.86,1.86,1.86
42.60,-2.87,-4.72,-2.87,-4.72,4.72,4.73,5.56,1.85,1.85,1.85
43.03,-2.79,-4.64,-2.79,-4.63,4.63,4.65,5.40,1.84,1.84,1.85
43.46,-2.72,-4.56,-2.71,-4.54,4.54,4.56,5.25,1.82,1.83,1.84
43.90,-2.64,-4.46,-2.64,-4.45,4.45,4.48,5.11,1.82,1.82,1.82
44.33,-2.56,-4.36,-2.56,-4.37,4.37,4.40,4.96,1.81,1.81,1.80
44.78,-2.49,-4.28,-2.48,-4.28,4.28,4.32,4.82,1.80,1.80,1.79
45.23,-2.41,-4.19,-2.41,-4.19,4.19,4.25,4.69,1.79,1.79,1.78
45.68,-2.34,-4.11,-2.33,-4.11,4.11,4.17,4.55,1.77,1.78,1.77
46.13,-2.27,-4.03,-2.26,-4.02,4.02,4.09,4.43,1.76,1.77,1.76
46.60,-2.19,-3.95,-2.18,-3.94,3.94,4.02,4.30,1.75,1.76,1.76
47.06,-2.11,-3.86,-2.11,-3.85,3.85,3.94,4.18,1.75,1.75,1.75
47.53,-2.03,-3.77,-2.03,-3.77,3.77,3.87,4.06,1.74,1.74,1.74
48.01,-1.95,-3.69,-1.95,-3.68,3.68,3.79,3.94,1.74,1.73,1.74
48.49,-1.88,-3.61,-1.88,-3.60,3.60,3.72,3.83,1.72,1.72,1.73
48.97,-1.80,-3.52,-1.80,-3.52,3.52,3.65,3.72,1.72,1.72,1.72
49.46,-1.73,-3.43,-1.73,-3.44,3.44,3.58,3.61,1.71,1.71,1.70
49.96,-1.66,-3.35,-1.65,-3.36,3.36,3.51,3.50,1.70,1.71,1.69
50.46,-1.59,-3.29,-1.58,-3.28,3.28,3.44,3.40,1.70,1.70,1.70
50.96,-1.52,-3.22,-1.50,-3.20,3.20,3.37,3.30,1.69,1.70,1.70
51.47,-1.43,-3.12,-1.43,-3.13,3.13,3.30,3.21,1.70,1.70,1.69
51.99,-1.35,-3.04,-1.36,-3.05,3.05,3.23,3.11,1.71,1.69,1.69
52.51,-1.29,-2.98,-1.29,-2.98,2.98,3.17,3.02,1.69,1.69,1.69
53.03,-1.23,-2.92,-1.22,-2.91,2.91,3.10,2.93,1.68,1.68,1.69
53.56,-1.16,-2.85,-1.15,-2.83,2.83,3.04,2.84,1.68,1.68,1.69
54.10,-1.09,-2.77,-1.09,-2.76,2.76,2.97,2.76,1.67,1.67,1.68
54.64,-1.02,-2.69,-1.02,-2.69,2.69,2.91,2.67,1.67,1.67,1.67
55.18,-0.96,-2.62,-0.96,-2.61,2.61,2.85,2.59,1.66,1.66,1.66
55.74,-0.90,-2.54,-0.89,-2.54,2.54,2.78,2.51,1.65,1.65,1.64
56.29,-0.84,-2.48,-0.83,-2.47,2.47,2.72,2.44,1.63,1.64,1.64
56.86,-0.78,-2.40,-0.77,-2.40,2.40,2.66,2.36,1.62,1.62,1.62
57.42,-0.72,-2.32,-0.72,-2.33,2.33,2.60,2.29,1.61,1.61,1.60
58.00,-0.66,-2.25,-0.67,-2.26,2.26,2.54,2.21,1.60,1.59,1.59
58.58,-0.61,-2.18,-0.61,-2.18,2.18,2.48,2.14,1.58,1.57,1.57
59.16,-0.56,-2.12,-0.56,-2.11,2.11,2.43,2.08,1.56,1.55,1.56
59.76,-0.51,-2.05,-0.52,-2.04,2.04,2.37,2.01,1.53,1.53,1.54
60.35,-0.47,-1.98,-0.47,-1.97,1.97,2.31,1.94,1.50,1.50,1.51
60.96,-0.43,-1.93,-0.42,-1.90,1.90,2.26,1.88,1.47,1.48,1.50
61.57,-0.38,-1.83,-0.37,-1.83,1.83,2.20,1.82,1.45,1.46,1.45
62.18,-0.34,-1.76,-0.33,-1.76,1.76,2.14,1.75,1.42,1.43,1.42
62.80,-0.30,-1.71,-0.28,-1.69,1.69,2.09,1.69,1.39,1.41,1.41
63.43,-0.26,-1.63,-0.24,-1.62,1.62,2.04,1.64,1.37,1.39,1.37
64.07,-0.21,-1.56,-0.19,-1.56,1.56,1.98,1.58,1.35,1.37,1.35
64.71,-0.16,-1.50,-0.15,-1.50,1.50,1.93,1.52,1.34,1.35,1.34
65.35,-0.12,-1.44,-0.11,-1.44,1.44,1.88,1.47,1.32,1.33,1.32
66.01,-0.07,-1.38,-0.07,-1.38,1.38,1.83,1.41,1.32,1.31,1.31
66.67,-0.02,-1.32,-0.03,-1.34,1.34,1.77,1.36,1.32,1.30,1.30
67.33,0.01,-1.28,-0.00,-1.29,1.29,1.72,1.31,1.31,1.29,1.29
68.01,0.04,-1.24,0.03,-1.26,1.26,1.67,1.26,1.30,1.28,1.28
68.69,0.06,-1.21,0.05,-1.22,1.22,1.62,1.21,1.29,1.27,1.27
69.37,0.07,-1.20,0.07,-1.20,1.20,1.57,1.16,1.27,1.27,1.27
70.07,0.08,-1.18,0.08,-1.18,1.18,1.53,1.11,1.26,1.26,1.26
70.77,0.09,-1.17,0.09,-1.16,1.16,1.48,1.06,1.25,1.25,1.26
71.48,0.09,-1.16,0.09,-1.15,1.15,1.43,1.01,1.24,1.24,1.25
72.19,0.09,-1.14,0.09,-1.14,1.14,1.38,0.97,1.23,1.23,1.23
72.91,0.07,-1.16,0.08,-1.14,1.14,1.33,0.92,1.21,1.22,1.23
73.64,0.06,-1.15,0.07,-1.14,1.14,1.29,0.88,1.20,1.21,1.21
74.38,0.05,-1.15,0.05,-1.15,1.15,1.24,0.83,1.20,1.20,1.20
75.12,0.04,-1.14,0.03,-1.15,1.15,1.20,0.79,1.20,1.18,1.18
75.87,0.02,-1.15,0.00,-1.17,1.17,1.15,0.74,1.19,1.17,1.17
76.63,-0.01,-1.17,-0.02,-1.18,1.18,1.10,0.70,1.17,1.16,1.16
77.40,-0.03,-1.17,-0.05,-1.19,1.19,1.06,0.66,1.16,1.14,1.14
78.17,-0.06,-1.18,-0.07,-1.20,1.20,1.02,0.61,1.15,1.13,1.12
78.95,-0.10,-1.22,-0.09,-1.21,1.21,0.97,0.57,1.12,1.12,1.12
79.74,-0.13,-1.24,-0.11,-1.22,1.22,0.93,0.53,1.10,1.11,1.11
80.54,-0.16,-1.26,-0.12,-1.23,1.23,0.88,0.49,1.07,1.10,1.10
81.35,-0.17,-1.26,-0.13,-1.23,1.23,0.84,0.44,1.06,1.10,1.09
82.16,-0.17,-1.25,-0.13,-1.23,1.23,0.80,0.40,1.06,1.09,1.08
82.98,-0.17,-1.26,-0.13,-1.22,1.22,0.75,0.36,1.06,1.09,1.09
83.81,-0.15,-1.23,-0.13,-1.21,1.21,0.71,0.32,1.07,1.09,1.08
84.65,-0.12,-1.19,-0.12,-1.20,1.20,0.67,0.28,1.08,1.08,1.07
85.50,-0.09,-1.17,-0.10,-1.18,1.18,0.63,0.24,1.09,1.08,1.08
86.35,-0.06,-1.14,-0.08,-1.15,1.15,0.59,0.19,1.10,1.08,1.08
87.22,-0.03,-1.10,-0.05,-1.12,1.12,0.54,0.15,1.10,1.07,1.07
88.09,-0.01,-1.08,-0.02,-1.09,1.09,0.50,0.11,1.08,1.06,1.07
88.97,0.02,-1.04,0.01,-1.05,1.05,0.46,0.07,1.07,1.06,1.06
89.86,0.04,-1.01,0.04,-1.00,1.00,0.42,0.03,1.04,1.04,1.05
90.76,0.06,-0.97,0.08,-0.95,0.95,0.38,-0.02,1.01,1.03,1.03
91.66,0.09,-0.92,0.11,-0.89,0.89,0.34,-0.06,0.99,1.01,1.01
92.58,0.12,-0.86,0.15,-0.83,0.83,0.30,-0.10,0.96,0.98,0.98
93.51,0.17,-0.79,0.18,-0.77,0.77,0.26,-0.14,0.95,0.95,0.96
94.44,0.21,-0.72,0.21,-0.71,0.71,0.22,-0.19,0.92,0.92,0.93
95.39,0.25,-0.64,0.24,-0.64,0.64,0.17,-0.23,0.89,0.88,0.89
96.34,0.28,-0.57,0.27,-0.56,0.56,0.13,-0.27,0.85,0.84,0.85
97.30,0.32,-0.47,0.30,-0.49,0.49,0.09,-0.31,0.81,0.79,0.79
98.28,0.35,-0.39,0.33,-0.41,0.41,0.05,-0.36,0.76,0.74,0.74
99.26,0.37,-0.32,0.36,-0.33,0.33,0.01,-0.40,0.70,0.69,0.69
100.25,0.39,-0.24,0.39,-0.24,0.24,-0.03,-0.44,0.64,0.63,0.63
101.25,0.42,-0.15,0.42,-0.16,0.16,-0.07,-0.49,0.58,0.57,0.57
102.27,0.43,-0.08,0.44,-0.08,0.08,-0.11,-0.53,0.51,0.52,0.51
103.29,0.45,0.00,0.46,0.01,-0.01,-0.15,-0.57,0.45,0.46,0.45
104.32,0.47,0.07,0.49,0.09,-0.09,-0.19,-0.61,0.38,0.40,0.40
105.37,0.49,0.16,0.51,0.18,-0.18,-0.23,-0.66,0.32,0.34,0.33
106.42,0.53,0.26,0.54,0.26,-0.26,-0.27,-0.70,0.27,0.28,0.27
107.48,0.56,0.34,0.57,0.35,-0.35,-0.31,-0.74,0.22,0.22,0.22
108.56,0.59,0.43,0.59,0.43,-0.43,-0.35,-0.78,0.16,0.16,0.16
109.64,0.61,0.51,0.62,0.52,-0.52,-0.40,-0.82,0.10,0.10,0.10
110.74,0.63,0.58,0.65,0.60,-0.60,-0.44,-0.86,0.04,0.05,0.05
111.85,0.67,0.66,0.68,0.68,-0.68,-0.48,-0.90,-0.00,-0.00,0.01
112.97,0.71,0.77,0.70,0.76,-0.76,-0.52,-0.94,-0.04,-0.05,-0.06
114.10,0.74,0.84,0.73,0.83,-0.83,-0.56,-0.98,-0.09,-0.10,-0.10
115.24,0.77,0.92,0.75,0.90,-0.90,-0.60,-1.02,-0.12,-0.15,-0.15
116.39,0.78,0.98,0.77,0.96,-0.96,-0.65,-1.05,-0.18,-0.19,-0.20
117.55,0.80,1.04,0.79,1.02,-1.02,-0.69,-1.09,-0.22,-0.23,-0.24
118.73,0.82,1.10,0.81,1.08,-1.08,-0.73,-1.12,-0.26,-0.27,-0.28
119.92,0.84,1.15,0.84,1.14,-1.14,-0.78,-1.15,-0.30,-0.30,-0.31
121.12,0.85,1.19,0.86,1.19,-1.19,-0.82,-1.18,-0.34,-0.34,-0.34
122.33,0.86,1.23,0.88,1.25,-1.25,-0.86,-1.21,-0.38,-0.37,-0.37
123.55,0.88,1.28,0.90,1.30,-1.30,-0.91,-1.24,-0.42,-0.40,-0.40
124.79,0.90,1.33,0.92,1.35,-1.35,-0.95,-1.26,-0.45,-0.43,-0.43
126.03,0.92,1.37,0.95,1.40,-1.40,-1.00,-1.29,-0.48,-0.46,-0.45
127.29,0.95,1.43,0.97,1.46,-1.46,-1.04,-1.31,-0.51,-0.49,-0.48
128.57,0.98,1.50,1.00,1.52,-1.52,-1.09,-1.33,-0.53,-0.52,-0.52
129.85,1.02,1.56,1.03,1.57,-1.57,-1.13,-1.36,-0.55,-0.54,-0.54
131.15,1.06,1.63,1.05,1.63,-1.63,-1.18,-1.38,-0.56,-0.57,-0.57
132.46,1.08,1.69,1.08,1.68,-1.68,-1.23,-1.39,-0.60,-0.60,-0.61
133.79,1.11,1.74,1.10,1.74,-1.74,-1.27,-1.41,-0.62,-0.63,-0.63
135.12,1.14,1.80,1.12,1.79,-1.79,-1.32,-1.43,-0.64,-0.66,-0.66
136.48,1.15,1.84,1.14,1.84,-1.84,-1.37,-1.45,-0.68,-0.69,-0.69
137.84,1.18,1.90,1.16,1.88,-1.88,-1.41,-1.46,-0.70,-0.73,-0.72
139.22,1.19,1.96,1.17,1.93,-1.93,-1.46,-1.48,-0.73,-0.76,-0.77
140.61,1.18,1.98,1.18,1.97,-1.97,-1.51,-1.49,-0.79,-0.79,-0.80
142.02,1.18,2.00,1.18,2.01,-2.01,-1.56,-1.51,-0.82,-0.83,-0.82
143.44,1.17,2.03,1.18,2.04,-2.04,-1.61,-1.52,-0.87,-0.86,-0.86
144.87,1.17,2.07,1.18,2.08,-2.08,-1.66,-1.53,-0.90,-0.90,-0.90
146.32,1.16,2.10,1.18,2.11,-2.11,-1.71,-1.55,-0.95,-0.93,-0.94
147.78,1.16,2.13,1.17,2.14,-2.14,-1.76,-1.56,-0.98,-0.97,-0.97
149.26,1.16,2.16,1.17,2.18,-2.18,-1.81,-1.58,-1.02,-1.01,-1.00
150.75,1.16,2.21,1.17,2.22,-2.22,-1.86,-1.60,-1.05,-1.05,-1.05
152.26,1.16,2.25,1.17,2.26,-2.26,-1.91,-1.61,-1.09,-1.09,-1.09
153.78,1.16,2.28,1.17,2.30,-2.30,-1.96,-1.63,-1.13,-1.13,-1.12
155.32,1.16,2.33,1.17,2.34,-2.34,-2.01,-1.65,-1.18,-1.17,-1.17
156.88,1.16,2.36,1.17,2.39,-2.39,-2.06,-1.67,-1.22,-1.21,-1.20
158.44,1.16,2.42,1.18,2.43,-2.43,-2.11,-1.69,-1.27,-1.26,-1.26
160.03,1.16,2.46,1.18,2.48,-2.48,-2.16,-1.71,-1.32,-1.30,-1.30
161.63,1.17,2.52,1.18,2.52,-2.52,-2.21,-1.73,-1.35,-1.34,-1.35
163.24,1.18,2.57,1.18,2.57,-2.57,-2.25,-1.76,-1.38,-1.38,-1.39
164.88,1.19,2.62,1.18,2.61,-2.61,-2.30,-1.78,-1.41,-1.43,-1.43
166.53,1.19,2.66,1.17,2.64,-2.64,-2.35,-1.81,-1.45,-1.47,-1.47
168.19,1.18,2.69,1.16,2.67,-2.67,-2.40,-1.84,-1.49,-1.51,-1.51
169.87,1.16,2.71,1.15,2.70,-2.70,-2.44,-1.87,-1.54,-1.55,-1.55
171.57,1.14,2.72,1.13,2.72,-2.72,-2.49,-1.90,-1.58,-1.59,-1.58
173.29,1.13,2.75,1.11,2.73,-2.73,-2.53,-1.93,-1.60,-1.62,-1.62
175.02,1.09,2.75,1.09,2.74,-2.74,-2.57,-1.97,-1.65,-1.66,-1.66
176.77,1.05,2.74,1.06,2.74,-2.74,-2.62,-2.00,-1.69,-1.69,-1.69
178.54,1.03,2.75,1.03,2.74,-2.74,-2.66,-2.04,-1.71,-1.71,-1.72
180.32,1.00,2.75,1.00,2.74,-2.74,-2.70,-2.08,-1.73,-1.74,-1.75
182.13,0.97,2.74,0.97,2.73,-2.73,-2.73,-2.12,-1.76,-1.76,-1.77
183.95,0.92,2.71,0.94,2.72,-2.72,-2.77,-2.17,-1.80,-1.79,-1.79
185.79,0.89,2.70,0.91,2.72,-2.72,-2.80,-2.21,-1.83,-1.81,-1.81
187.65,0.87,2.70,0.89,2.72,-2.72,-2.83,-2.26,-1.84,-1.83,-1.83
189.52,0.84,2.68,0.87,2.71,-2.71,-2.86,-2.30,-1.87,-1.84,-1.84
191.42,0.83,2.69,0.86,2.71,-2.71,-2.89,-2.35,-1.88,-1.86,-1.86
193.33,0.82,2.69,0.84,2.72,-2.72,-2.92,-2.40,-1.89,-1.87,-1.87
195.27,0.82,2.70,0.84,2.72,-2.72,-2.94,-2.45,-1.90,-1.89,-1.88
197.22,0.83,2.73,0.83,2.73,-2.73,-2.96,-2.51,-1.90,-1.90,-1.90
199.19,0.83,2.75,0.83,2.74,-2.74,-2.98,-2.56,-1.91,-1.91,-1.92
201.18,0.84,2.77,0.83,2.75,-2.75,-2.99,-2.61,-1.91,-1.92,-1.93
203.19,0.84,2.77,0.83,2.77,-2.77,-3.01,-2.67,-1.92,-1.94,-1.93
205.23,0.84,2.79,0.83,2.78,-2.78,-3.02,-2.72,-1.94,-1.95,-1.95
207.28,0.84,2.79,0.84,2.80,-2.80,-3.03,-2.78,-1.95,-1.96,-1.95
209.35,0.84,2.81,0.84,2.81,-2.81,-3.03,-2.83,-1.97,-1.97,-1.97
211.44,0.84,2.83,0.84,2.83,-2.83,-3.03,-2.89,-1.98,-1.98,-1.99
213.56,0.84,2.84,0.84,2.84,-2.84,-3.03,-2.94,-2.00,-1.99,-2.00
215.69,0.84,2.84,0.85,2.85,-2.85,-3.03,-2.99,-2.01,-2.01,-2.00
217.85,0.84,2.86,0.85,2.86,-2.86,-3.03,-3.05,-2.02,-2.02,-2.02
220.03,0.84,2.87,0.84,2.87,-2.87,-3.02,-3.10,-2.03,-2.03,-2.03
222.23,0.84,2.89,0.84,2.89,-2.89,-3.01,-3.14,-2.04,-2.04,-2.05
224.45,0.84,2.89,0.84,2.90,-2.90,-3.00,-3.19,-2.06,-2.06,-2.05
226.70,0.84,2.91,0.84,2.92,-2.92,-2.98,-3.23,-2.07,-2.07,-2.07
228.96,0.84,2.92,0.84,2.93,-2.93,-2.97,-3.27,-2.09,-2.09,-2.08
231.25,0.84,2.93,0.84,2.94,-2.94,-2.95,-3.31,-2.10,-2.10,-2.09
233.57,0.84,2.95,0.84,2.96,-2.96,-2.93,-3.34,-2.11,-2.11,-2.11
235.90,0.84,2.96,0.84,2.97,-2.97,-2.91,-3.37,-2.13,-2.13,-2.12
238.26,0.84,2.98,0.84,2.98,-2.98,-2.88,-3.39,-2.14,-2.14,-2.14
240.64,0.84,3.00,0.84,3.00,-3.00,-2.86,-3.41,-2.15,-2.15,-2.16
243.05,0.84,3.01,0.85,3.01,-3.01,-2.83,-3.43,-2.17,-2.17,-2.17
245.48,0.84,3.02,0.85,3.02,-3.02,-2.80,-3.44,-2.18,-2.17,-2.18
247.93,0.84,3.03,0.85,3.03,-3.03,-2.78,-3.45,-2.19,-2.18,-2.19
250.41,0.84,3.04,0.86,3.04,-3.04,-2.75,-3.45,-2.20,-2.19,-2.20
252.92,0.84,3.03,0.86,3.04,-3.04,-2.72,-3.44,-2.20,-2.19,-2.19
255.45,0.84,3.03,0.86,3.04,-3.04,-2.68,-3.43,-2.20,-2.18,-2.19
258.00,0.85,3.03,0.86,3.04,-3.04,-2.65,-3.41,-2.19,-2.18,-2.18
260.58,0.86,3.04,0.86,3.03,-3.03,-2.62,-3.39,-2.17,-2.17,-2.18
263.19,0.86,3.03,0.85,3.02,-3.02,-2.59,-3.37,-2.15,-2.17,-2.17
265.82,0.86,3.02,0.84,2.99,-2.99,-2.55,-3.34,-2.13,-2.15,-2.16
268.48,0.84,2.98,0.83,2.97,-2.97,-2.52,-3.31,-2.13,-2.14,-2.14
271.16,0.83,2.95,0.81,2.94,-2.94,-2.49,-3.27,-2.10,-2.13,-2.12
273.87,0.80,2.91,0.79,2.90,-2.90,-2.45,-3.23,-2.10,-2.11,-2.11
276.61,0.77,2.85,0.77,2.86,-2.86,-2.42,-3.18,-2.09,-2.10,-2.08
279.38,0.75,2.83,0.74,2.82,-2.82,-2.39,-3.14,-2.07,-2.08,-2.08
282.17,0.71,2.77,0.71,2.77,-2.77,-2.35,-3.09,-2.06,-2.07,-2.06
284.99,0.68,2.73,0.68,2.73,-2.73,-2.32,-3.03,-2.04,-2.05,-2.05
287.84,0.64,2.67,0.65,2.68,-2.68,-2.29,-2.98,-2.03,-2.03,-2.03
290.72,0.60,2.61,0.62,2.63,-2.63,-2.25,-2.92,-2.03,-2.01,-2.01
293.63,0.57,2.57,0.59,2.58,-2.58,-2.22,-2.86,-2.01,-1.99,-2.00
296.57,0.55,2.52,0.57,2.54,-2.54,-2.19,-2.81,-1.99,-1.97,-1.97
299.53,0.52,2.48,0.55,2.50,-2.50,-2.16,-2.75,-1.98,-1.96,-1.96
302.53,0.51,2.46,0.53,2.47,-2.47,-2.12,-2.69,-1.95,-1.94,-1.95
305.55,0.50,2.42,0.52,2.43,-2.43,-2.09,-2.63,-1.93,-1.91,-1.92
308.61,0.49,2.39,0.51,2.41,-2.41,-2.06,-2.57,-1.91,-1.89,-1.90
311.69,0.50,2.37,0.51,2.38,-2.38,-2.03,-2.51,-1.87,-1.87,-1.87
314.81,0.51,2.34,0.51,2.35,-2.35,-2.00,-2.45,-1.84,-1.85,-1.83
317.96,0.51,2.33,0.51,2.33,-2.33,-1.97,-2.39,-1.82,-1.83,-1.82
321.14,0.52,2.32,0.51,2.31,-2.31,-1.95,-2.33,-1.79,-1.80,-1.80
324.35,0.52,2.30,0.51,2.29,-2.29,-1.92,-2.28,-1.77,-1.78,-1.78
327.59,0.52,2.28,0.51,2.27,-2.27,-1.89,-2.22,-1.75,-1.76,-1.76
330.87,0.52,2.26,0.52,2.25,-2.25,-1.86,-2.17,-1.73,-1.73,-1.74
334.18,0.52,2.23,0.52,2.23,-2.23,-1.84,-2.11,-1.71,-1.71,-1.71
337.52,0.52,2.21,0.53,2.22,-2.22,-1.81,-2.06,-1.69,-1.69,-1.69
340.90,0.52,2.19,0.53,2.20,-2.20,-1.79,-2.01,-1.67,-1.66,-1.67
344.30,0.52,2.16,0.54,2.18,-2.18,-1.76,-1.96,-1.65,-1.64,-1.64
347.75,0.52,2.14,0.54,2.15,-2.15,-1.74,-1.91,-1.63,-1.62,-1.62
351.23,0.52,2.11,0.54,2.13,-2.13,-1.72,-1.86,-1.60,-1.59,-1.59
354.74,0.53,2.09,0.53,2.10,-2.10,-1.69,-1.82,-1.57,-1.57,-1.56
358.28,0.54,2.09,0.53,2.07,-2.07,-1.67,-1.78,-1.53,-1.54,-1.55
361.87,0.54,2.06,0.53,2.05,-2.05,-1.65,-1.73,-1.50,-1.52,-1.52
365.49,0.53,2.02,0.52,2.01,-2.01,-1.63,-1.69,-1.48,-1.49,-1.49
369.14,0.51,1.99,0.51,1.98,-1.98,-1.61,-1.65,-1.47,-1.47,-1.48
372.83,0.50,1.95,0.50,1.94,-1.94,-1.59,-1.61,-1.44,-1.45,-1.45
376.56,0.47,1.90,0.48,1.90,-1.90,-1.57,-1.58,-1.43,-1.43,-1.43
380.33,0.45,1.85,0.46,1.86,-1.86,-1.55,-1.54,-1.41,-1.41,-1.40
384.13,0.42,1.81,0.43,1.82,-1.82,-1.53,-1.51,-1.39,-1.39,-1.39
387.97,0.41,1.78,0.40,1.77,-1.77,-1.51,-1.47,-1.35,-1.37,-1.37
391.85,0.37,1.73,0.36,1.72,-1.72,-1.50,-1.44,-1.35,-1.35,-1.36
395.77,0.33,1.66,0.33,1.67,-1.67,-1.48,-1.41,-1.33,-1.34,-1.33
399.73,0.29,1.61,0.29,1.62,-1.62,-1.46,-1.38,-1.32,-1.33,-1.32
403.72,0.24,1.56,0.24,1.57,-1.57,-1.45,-1.35,-1.32,-1.32,-1.32
407.76,0.19,1.50,0.20,1.52,-1.52,-1.43,-1.33,-1.32,-1.32,-1.31
411.84,0.14,1.44,0.16,1.47,-1.47,-1.42,-1.30,-1.32,-1.31,-1.30
415.96,0.10,1.41,0.11,1.42,-1.42,-1.40,-1.28,-1.31,-1.31,-1.31
420.12,0.05,1.36,0.06,1.37,-1.37,-1.39,-1.25,-1.32,-1.31,-1.31
424.32,0.01,1.32,0.01,1.32,-1.32,-1.37,-1.23,-1.31,-1.31,-1.31
428.56,-0.04,1.27,-0.03,1.28,-1.28,-1.36,-1.21,-1.31,-1.31,-1.31
432.85,-0.09,1.23,-0.08,1.23,-1.23,-1.35,-1.19,-1.32,-1.31,-1.32
437.18,-0.14,1.18,-0.13,1.18,-1.18,-1.34,-1.17,-1.32,-1.32,-1.32
441.55,-0.18,1.14,-0.18,1.14,-1.14,-1.32,-1.15,-1.31,-1.32,-1.32
445.96,-0.23,1.10,-0.23,1.09,-1.09,-1.31,-1.13,-1.32,-1.32,-1.33
450.42,-0.27,1.06,-0.28,1.04,-1.04,-1.30,-1.11,-1.31,-1.33,-1.33
454.93,-0.32,1.01,-0.33,1.00,-1.00,-1.29,-1.09,-1.31,-1.33,-1.33
459.48,-0.37,0.97,-0.38,0.95,-0.95,-1.28,-1.07,-1.32,-1.33,-1.34
464.07,-0.42,0.91,-0.43,0.91,-0.91,-1.27,-1.06,-1.32,-1.33,-1.33
468.71,-0.47,0.86,-0.47,0.86,-0.86,-1.26,-1.04,-1.33,-1.33,-1.33
473.40,-0.52,0.82,-0.51,0.83,-0.83,-1.25,-1.03,-1.34,-1.33,-1.34
478.13,-0.57,0.76,-0.54,0.79,-0.79,-1.24,-1.01,-1.36,-1.33,-1.33
482.91,-0.60,0.74,-0.57,0.76,-0.76,-1.23,-1.00,-1.36,-1.33,-1.34
