frequency,raw,error,smoothed,error_smoothed,equalization,parametric_eq,fixed_band_eq,equalized_raw,equalized_smoothed,target
20.00,5.73,-3.19,5.73,-3.19,3.19,3.06,1.08,8.93,8.92,8.92
20.20,5.74,-3.17,5.74,-3.17,3.17,3.05,1.11,8.91,8.91,8.91
20.40,5.76,-3.13,5.76,-3.14,3.14,3.04,1.15,8.90,8.90,8.90
20.61,5.77,-3.11,5.77,-3.11,3.11,3.03,1.18,8.89,8.88,8.89
20.81,5.78,-3.08,5.79,-3.09,3.09,3.02,1.22,8.87,8.87,8.87
21.02,5.80,-3.05,5.80,-3.06,3.06,3.01,1.25,8.86,8.86,8.86
21.23,5.81,-3.03,5.82,-3.03,3.03,2.99,1.29,8.85,8.85,8.84
21.44,5.83,-3.02,5.84,-3.00,3.00,2.98,1.33,8.84,8.84,8.85
21.66,5.84,-2.99,5.85,-2.98,2.98,2.97,1.37,8.82,8.83,8.83
21.87,5.86,-2.97,5.87,-2.95,2.95,2.96,1.41,8.81,8.82,8.83
22.09,5.88,-2.93,5.89,-2.92,2.92,2.94,1.45,8.81,8.81,8.81
22.31,5.90,-2.91,5.91,-2.89,2.89,2.93,1.50,8.80,8.81,8.81
22.54,5.93,-2.87,5.93,-2.87,2.87,2.91,1.54,8.80,8.80,8.80
22.76,5.96,-2.83,5.96,-2.84,2.84,2.90,1.59,8.80,8.79,8.80
22.99,5.99,-2.79,5.98,-2.81,2.81,2.88,1.63,8.80,8.79,8.79
23.22,6.01,-2.76,6.00,-2.78,2.78,2.87,1.68,8.79,8.78,8.77
23.45,6.03,-2.75,6.03,-2.75,2.75,2.85,1.73,8.78,8.78,8.78
23.69,6.05,-2.72,6.05,-2.72,2.72,2.83,1.78,8.77,8.77,8.77
23.92,6.07,-2.69,6.08,-2.69,2.69,2.82,1.83,8.77,8.77,8.76
24.16,6.10,-2.67,6.10,-2.67,2.67,2.80,1.88,8.77,8.77,8.77
24.40,6.12,-2.64,6.12,-2.64,2.64,2.78,1.93,8.76,8.76,8.77
24.65,6.15,-2.61,6.15,-2.61,2.61,2.76,1.98,8.76,8.76,8.77
24.89,6.17,-2.59,6.18,-2.58,2.58,2.74,2.03,8.76,8.76,8.76
25.14,6.19,-2.56,6.20,-2.56,2.56,2.72,2.09,8.75,8.76,8.75
25.39,6.21,-2.54,6.23,-2.53,2.53,2.70,2.14,8.74,8.75,8.75
25.65,6.24,-2.51,6.26,-2.50,2.50,2.68,2.19,8.74,8.75,8.75
25.91,6.27,-2.47,6.28,-2.47,2.47,2.66,2.24,8.74,8.75,8.75
26.16,6.30,-2.45,6.31,-2.44,2.44,2.64,2.30,8.74,8.75,8.75
26.43,6.33,-2.42,6.34,-2.41,2.41,2.62,2.35,8.74,8.75,8.75
26.69,6.36,-2.39,6.36,-2.39,2.39,2.60,2.40,8.75,8.75,8.75
26.96,6.38,-2.37,6.38,-2.37,2.37,2.58,2.45,8.75,8.75,8.75
27.23,6.41,-2.33,6.39,-2.36,2.36,2.56,2.50,8.77,8.75,8.75
27.50,6.43,-2.31,6.41,-2.35,2.35,2.53,2.54,8.78,8.75,8.74
27.77,6.44,-2.31,6.42,-2.34,2.34,2.51,2.59,8.78,8.75,8.75
28.05,6.45,-2.30,6.42,-2.33,2.33,2.49,2.63,8.78,8.75,8.75
28.33,6.45,-2.30,6.43,-2.33,2.33,2.47,2.67,8.78,8.75,8.76
28.62,6.44,-2.31,6.43,-2.32,2.32,2.44,2.70,8.77,8.75,8.75
28.90,6.42,-2.34,6.43,-2.32,2.32,2.42,2.73,8.74,8.75,8.76
29.19,6.41,-2.34,6.43,-2.32,2.32,2.40,2.76,8.73,8.75,8.76
29.48,6.40,-2.35,6.44,-2.31,2.31,2.37,2.79,8.72,8.75,8.75
29.78,6.41,-2.34,6.44,-2.31,2.31,2.35,2.81,8.72,8.75,8.75
30.08,6.42,-2.32,6.45,-2.29,2.29,2.32,2.83,8.72,8.74,8.75
30.38,6.44,-2.29,6.46,-2.28,2.28,2.30,2.84,8.72,8.74,8.73
30.68,6.46,-2.27,6.47,-2.26,2.26,2.27,2.85,8.72,8.73,8.73
30.99,6.48,-2.24,6.49,-2.23,2.23,2.25,2.85,8.72,8.73,8.73
31.30,6.51,-2.21,6.52,-2.21,2.21,2.22,2.85,8.72,8.72,8.72
31.61,6.54,-2.17,6.54,-2.17,2.17,2.20,2.85,8.71,8.71,8.72
31.93,6.57,-2.12,6.57,-2.13,2.13,2.17,2.84,8.70,8.70,8.69
32.24,6.60,-2.09,6.60,-2.09,2.09,2.15,2.83,8.69,8.70,8.70
32.57,6.63,-2.05,6.63,-2.05,2.05,2.12,2.81,8.69,8.69,8.68
32.89,6.66,-2.02,6.66,-2.02,2.02,2.10,2.78,8.68,8.68,8.68
33.22,6.69,-1.98,6.69,-1.98,1.98,2.07,2.76,8.68,8.67,8.67
33.55,6.72,-1.94,6.71,-1.95,1.95,2.04,2.73,8.68,8.66,8.67
33.89,6.74,-1.91,6.73,-1.93,1.93,2.02,2.69,8.67,8.66,8.65
34.23,6.76,-1.87,6.74,-1.90,1.90,1.99,2.66,8.67,8.65,8.64
34.57,6.77,-1.86,6.76,-1.88,1.88,1.97,2.61,8.65,8.64,8.63
34.92,6.78,-1.83,6.76,-1.86,1.86,1.94,2.57,8.64,8.62,8.61
35.27,6.78,-1.85,6.77,-1.84,1.84,1.91,2.53,8.63,8.61,8.63
35.62,6.77,-1.83,6.77,-1.83,1.83,1.89,2.48,8.60,8.60,8.60
35.97,6.76,-1.83,6.77,-1.81,1.81,1.86,2.43,8.58,8.59,8.59
36.33,6.75,-1.82,6.77,-1.80,1.80,1.83,2.38,8.55,8.57,8.58
36.70,6.75,-1.80,6.77,-1.78,1.78,1.81,2.32,8.54,8.55,8.55
37.06,6.75,-1.78,6.76,-1.77,1.77,1.78,2.27,8.52,8.53,8.53
37.43,6.75,-1.76,6.76,-1.75,1.75,1.75,2.22,8.51,8.51,8.51
37.81,6.75,-1.74,6.76,-1.74,1.74,1.72,2.16,8.49,8.49,8.50
38.19,6.75,-1.71,6.75,-1.72,1.72,1.70,2.11,8.47,8.47,8.47
38.57,6.75,-1.70,6.75,-1.70,1.70,1.67,2.05,8.45,8.45,8.45
38.95,6.75,-1.68,6.75,-1.67,1.67,1.64,2.00,8.43,8.42,8.43
39.34,6.75,-1.65,6.75,-1.65,1.65,1.62,1.94,8.40,8.40,8.40
39.74,6.75,-1.62,6.76,-1.62,1.62,1.59,1.88,8.37,8.38,8.37
40.14,6.75,-1.60,6.76,-1.59,1.59,1.56,1.83,8.34,8.35,8.35
40.54,6.75,-1.57,6.76,-1.56,1.56,1.54,1.78,8.32,8.33,8.33
40.94,6.75,-1.54,6.77,-1.54,1.54,1.51,1.72,8.29,8.30,8.30
41.35,6.75,-1.52,6.77,-1.51,1.51,1.48,1.67,8.26,8.28,8.27
41.76,6.76,-1.48,6.77,-1.48,1.48,1.45,1.62,8.24,8.25,8.24
42.18,6.77,-1.46,6.77,-1.46,1.46,1.43,1.57,8.23,8.22,8.23
42.60,6.78,-1.41,6.77,-1.43,1.43,1.40,1.52,8.21,8.20,8.20
43.03,6.77,-1.40,6.76,-1.41,1.41,1.37,1.47,8.18,8.17,8.17
43.46,6.77,-1.37,6.75,-1.39,1.39,1.35,1.42,8.16,8.14,8.14
43.90,6.75,-1.36,6.74,-1.37,1.37,1.32,1.38,8.13,8.11,8.12
44.33,6.73,-1.35,6.72,-1.36,1.36,1.29,1.33,8.09,8.08,8.08
44.78,6.71,-1.34,6.71,-1.35,1.35,1.26,1.29,8.06,8.05,8.05
45.23,6.69,-1.33,6.68,-1.33,1.33,1.24,1.24,8.03,8.02,8.03
45.68,6.66,-1.32,6.66,-1.32,1.32,1.21,1.20,7.99,7.98,7.98
46.13,6.63,-1.31,6.63,-1.31,1.31,1.18,1.16,7.95,7.94,7.94
46.60,6.60,-1.30,6.60,-1.30,1.30,1.16,1.12,7.91,7.90,7.91
47.06,6.56,-1.30,6.57,-1.29,1.29,1.13,1.08,7.86,7.86,7.87
47.53,6.53,-1.30,6.54,-1.28,1.28,1.10,1.04,7.81,7.82,7.83
48.01,6.50,-1.27,6.51,-1.26,1.26,1.08,1.00,7.76,7.77,7.77
48.49,6.48,-1.24,6.49,-1.24,1.24,1.05,0.97,7.72,7.73,7.73
48.97,6.45,-1.22,6.47,-1.21,1.21,1.02,0.93,7.67,7.68,7.68
49.46,6.43,-1.20,6.45,-1.19,1.19,1.00,0.90,7.62,7.64,7.63
49.96,6.42,-1.15,6.44,-1.15,1.15,0.97,0.86,7.58,7.59,7.57
50.46,6.41,-1.12,6.43,-1.11,1.11,0.94,0.83,7.53,7.54,7.54
50.96,6.40,-1.09,6.42,-1.07,1.07,0.91,0.80,7.47,7.49,7.49
51.47,6.41,-1.04,6.42,-1.03,1.03,0.89,0.77,7.44,7.45,7.45
51.99,6.42,-0.97,6.42,-0.98,0.98,0.86,0.74,7.40,7.40,7.39
52.51,6.42,-0.93,6.43,-0.93,0.93,0.83,0.71,7.35,7.35,7.36
53.03,6.43,-0.88,6.43,-0.87,0.87,0.81,0.68,7.31,7.31,7.32
53.56,6.43,-0.84,6.44,-0.82,0.82,0.78,0.65,7.26,7.26,7.27
54.10,6.44,-0.77,6.44,-0.77,0.77,0.75,0.62,7.22,7.21,7.21
54.64,6.45,-0.72,6.44,-0.73,0.73,0.73,0.59,7.18,7.17,7.17
55.18,6.45,-0.66,6.44,-0.68,0.68,0.70,0.56,7.14,7.13,7.12
55.74,6.45,-0.61,6.44,-0.65,0.65,0.68,0.54,7.10,7.08,7.07
56.29,6.44,-0.59,6.43,-0.61,0.61,0.65,0.51,7.05,7.04,7.03
56.86,6.43,-0.55,6.42,-0.57,0.57,0.62,0.49,7.01,6.99,6.99
57.42,6.41,-0.52,6.40,-0.54,0.54,0.60,0.46,6.95,6.94,6.93
58.00,6.39,-0.49,6.38,-0.51,0.51,0.57,0.44,6.90,6.89,6.88
58.58,6.36,-0.48,6.36,-0.48,0.48,0.54,0.41,6.84,6.84,6.85
59.16,6.33,-0.48,6.34,-0.45,0.45,0.52,0.39,6.78,6.79,6.81
59.76,6.30,-0.46,6.31,-0.42,0.42,0.49,0.36,6.72,6.73,6.76
60.35,6.27,-0.42,6.29,-0.39,0.39,0.46,0.34,6.67,6.68,6.70
60.96,6.24,-0.39,6.26,-0.37,0.37,0.44,0.31,6.61,6.62,6.64
61.57,6.22,-0.34,6.23,-0.34,0.34,0.41,0.29,6.56,6.56,6.56
62.18,6.20,-0.29,6.20,-0.30,0.30,0.38,0.27,6.51,6.50,6.50
62.80,6.18,-0.25,6.18,-0.27,0.27,0.36,0.24,6.45,6.44,6.43
63.43,6.15,-0.21,6.15,-0.23,0.23,0.33,0.22,6.38,6.38,6.36
64.07,6.12,-0.18,6.13,-0.19,0.19,0.30,0.20,6.31,6.32,6.31
64.71,6.09,-0.15,6.11,-0.15,0.15,0.28,0.17,6.24,6.25,6.25
65.35,6.06,-0.12,6.08,-0.11,0.11,0.25,0.15,6.17,6.19,6.19
66.01,6.04,-0.08,6.06,-0.07,0.07,0.22,0.13,6.11,6.13,6.12
66.67,6.02,-0.05,6.03,-0.03,0.03,0.20,0.10,6.05,6.06,6.07
67.33,6.01,0.02,6.00,0.01,-0.01,0.17,0.08,6.01,6.00,6.00
68.01,5.99,0.05,5.97,0.04,-0.04,0.14,0.05,5.95,5.93,5.94
68.69,5.97,0.10,5.94,0.07,-0.07,0.12,0.03,5.90,5.87,5.87
69.37,5.93,0.12,5.91,0.10,-0.10,0.09,0.01,5.83,5.80,5.81
70.07,5.89,0.15,5.87,0.14,-0.14,0.06,-0.02,5.76,5.74,5.74
70.77,5.85,0.18,5.84,0.17,-0.17,0.03,-0.04,5.68,5.67,5.67
71.48,5.80,0.19,5.81,0.20,-0.20,0.01,-0.06,5.60,5.60,5.61
72.19,5.75,0.22,5.77,0.23,-0.23,-0.02,-0.09,5.52,5.54,5.54
72.91,5.71,0.25,5.73,0.26,-0.26,-0.05,-0.11,5.45,5.47,5.46
73.64,5.67,0.28,5.70,0.29,-0.29,-0.08,-0.14,5.38,5.40,5.40
74.38,5.63,0.30,5.66,0.32,-0.32,-0.10,-0.16,5.31,5.34,5.33
75.12,5.61,0.34,5.62,0.34,-0.34,-0.13,-0.19,5.27,5.27,5.27
75.87,5.58,0.37,5.58,0.37,-0.37,-0.16,-0.21,5.21,5.21,5.21
76.63,5.56,0.42,5.55,0.40,-0.40,-0.19,-0.24,5.16,5.15,5.14
77.40,5.53,0.45,5.51,0.43,-0.43,-0.21,-0.26,5.10,5.08,5.09
78.17,5.49,0.48,5.48,0.46,-0.46,-0.24,-0.29,5.03,5.02,5.01
78.95,5.45,0.49,5.45,0.49,-0.49,-0.27,-0.32,4.96,4.96,4.97
79.74,5.41,0.51,5.42,0.52,-0.52,-0.30,-0.34,4.89,4.90,4.90
80.54,5.37,0.53,5.39,0.56,-0.56,-0.33,-0.37,4.82,4.84,4.84
81.35,5.34,0.57,5.36,0.59,-0.59,-0.36,-0.40,4.76,4.78,4.77
82.16,5.32,0.60,5.33,0.62,-0.62,-0.39,-0.43,4.71,4.71,4.72
82.98,5.30,0.65,5.30,0.65,-0.65,-0.42,-0.45,4.66,4.65,4.65
83.81,5.27,0.68,5.26,0.67,-0.67,-0.44,-0.48,4.60,4.59,4.59
84.65,5.23,0.71,5.22,0.70,-0.70,-0.47,-0.51,4.53,4.52,4.52
85.50,5.20,0.75,5.19,0.73,-0.73,-0.50,-0.54,4.47,4.46,4.45
86.35,5.16,0.77,5.15,0.76,-0.76,-0.53,-0.57,4.40,4.39,4.39
87.22,5.12,0.80,5.11,0.79,-0.79,-0.56,-0.60,4.34,4.33,4.32
88.09,5.07,0.82,5.07,0.81,-0.81,-0.59,-0.63,4.26,4.26,4.26
88.97,5.02,0.83,5.03,0.84,-0.84,-0.62,-0.66,4.18,4.19,4.19
89.86,4.97,0.85,4.98,0.86,-0.86,-0.66,-0.69,4.11,4.12,4.12
90.76,4.92,0.87,4.93,0.88,-0.88,-0.69,-0.73,4.04,4.05,4.05
91.66,4.87,0.90,4.88,0.91,-0.91,-0.72,-0.76,3.97,3.98,3.97
92.58,4.84,0.93,4.83,0.93,-0.93,-0.75,-0.79,3.91,3.90,3.91
93.51,4.80,0.96,4.78,0.95,-0.95,-0.78,-0.82,3.85,3.83,3.84
94.44,4.74,0.98,4.73,0.98,-0.98,-0.81,-0.86,3.77,3.76,3.77
95.39,4.68,1.00,4.68,1.00,-1.00,-0.84,-0.89,3.68,3.68,3.68
96.34,4.62,1.01,4.63,1.02,-1.02,-0.88,-0.93,3.60,3.61,3.61
97.30,4.56,1.02,4.58,1.05,-1.05,-0.91,-0.96,3.52,3.54,3.54
98.28,4.52,1.07,4.53,1.07,-1.07,-0.94,-1.00,3.45,3.46,3.45
99.26,4.48,1.10,4.48,1.09,-1.09,-0.98,-1.04,3.39,3.39,3.38
100.25,4.44,1.14,4.44,1.12,-1.12,-1.01,-1.07,3.33,3.32,3.31
101.25,4.39,1.15,4.39,1.14,-1.14,-1.04,-1.11,3.25,3.25,3.24
102.27,4.34,1.17,4.34,1.16,-1.16,-1.08,-1.15,3.18,3.18,3.18
103.29,4.29,1.19,4.29,1.18,-1.18,-1.11,-1.18,3.11,3.10,3.10
104.32,4.23,1.20,4.24,1.20,-1.20,-1.15,-1.22,3.03,3.04,3.03
105.37,4.18,1.21,4.19,1.23,-1.23,-1.18,-1.26,2.96,2.97,2.97
106.42,4.14,1.24,4.15,1.25,-1.25,-1.22,-1.30,2.89,2.90,2.90
107.48,4.11,1.28,4.10,1.27,-1.27,-1.25,-1.33,2.84,2.83,2.83
108.56,4.06,1.30,4.06,1.30,-1.30,-1.29,-1.37,2.76,2.76,2.76
109.64,4.01,1.32,4.01,1.32,-1.32,-1.32,-1.41,2.69,2.69,2.70
110.74,3.96,1.34,3.97,1.35,-1.35,-1.36,-1.45,2.61,2.62,2.62
111.85,3.91,1.37,3.92,1.38,-1.38,-1.40,-1.48,2.54,2.55,2.55
112.97,3.86,1.38,3.88,1.40,-1.40,-1.43,-1.52,2.46,2.47,2.48
114.10,3.83,1.42,3.84,1.43,-1.43,-1.47,-1.55,2.40,2.40,2.41
115.24,3.79,1.47,3.79,1.46,-1.46,-1.51,-1.59,2.33,2.33,2.33
116.39,3.76,1.51,3.75,1.49,-1.49,-1.55,-1.62,2.28,2.26,2.25
117.55,3.71,1.53,3.70,1.51,-1.51,-1.59,-1.66,2.20,2.19,2.18
118.73,3.66,1.56,3.66,1.53,-1.53,-1.62,-1.69,2.13,2.12,2.11
119.92,3.61,1.57,3.61,1.56,-1.56,-1.66,-1.72,2.06,2.05,2.05
121.12,3.57,1.59,3.57,1.58,-1.58,-1.70,-1.75,1.99,1.98,1.99
122.33,3.53,1.62,3.53,1.61,-1.61,-1.74,-1.78,1.92,1.91,1.92
123.55,3.49,1.64,3.49,1.64,-1.64,-1.78,-1.81,1.85,1.85,1.86
124.79,3.44,1.66,3.45,1.67,-1.67,-1.82,-1.84,1.77,1.78,1.79
126.03,3.39,1.67,3.41,1.70,-1.70,-1.86,-1.87,1.69,1.71,1.72
127.29,3.34,1.69,3.37,1.73,-1.73,-1.91,-1.89,1.62,1.64,1.65
128.57,3.31,1.74,3.33,1.76,-1.76,-1.95,-1.92,1.56,1.58,1.58
129.85,3.29,1.78,3.30,1.79,-1.79,-1.99,-1.95,1.50,1.51,1.51
131.15,3.27,1.84,3.27,1.82,-1.82,-2.03,-1.97,1.45,1.44,1.44
132.46,3.24,1.87,3.23,1.86,-1.86,-2.07,-1.99,1.38,1.37,1.37
133.79,3.22,1.92,3.20,1.90,-1.90,-2.12,-2.02,1.33,1.31,1.30
135.12,3.18,1.94,3.17,1.93,-1.93,-2.16,-2.04,1.25,1.24,1.24
136.48,3.15,1.97,3.14,1.97,-1.97,-2.20,-2.06,1.18,1.18,1.18
137.84,3.11,2.00,3.12,2.00,-2.00,-2.25,-2.08,1.11,1.11,1.11
139.22,3.08,2.04,3.09,2.04,-2.04,-2.29,-2.11,1.04,1.05,1.04
140.61,3.06,2.08,3.06,2.07,-2.07,-2.34,-2.13,0.99,0.99,0.99
142.02,3.03,2.11,3.03,2.10,-2.10,-2.38,-2.15,0.93,0.93,0.92
143.44,3.01,2.15,3.00,2.13,-2.13,-2.43,-2.17,0.88,0.87,0.87
144.87,2.98,2.17,2.98,2.16,-2.16,-2.47,-2.20,0.82,0.81,0.81
146.32,2.95,2.20,2.95,2.19,-2.19,-2.52,-2.22,0.76,0.76,0.75
147.78,2.92,2.22,2.93,2.23,-2.23,-2.56,-2.25,0.69,0.70,0.70
149.26,2.90,2.26,2.91,2.26,-2.26,-2.61,-2.27,0.64,0.64,0.64
150.75,2.88,2.30,2.89,2.30,-2.30,-2.66,-2.30,0.58,0.59,0.58
152.26,2.86,2.33,2.88,2.34,-2.34,-2.70,-2.33,0.52,0.53,0.54
153.78,2.85,2.37,2.86,2.38,-2.38,-2.75,-2.36,0.47,0.48,0.48
155.32,2.84,2.41,2.85,2.43,-2.43,-2.80,-2.39,0.42,0.43,0.43
156.88,2.84,2.47,2.84,2.47,-2.47,-2.84,-2.42,0.37,0.37,0.38
158.44,2.84,2.53,2.84,2.52,-2.52,-2.89,-2.46,0.32,0.32,0.31
160.03,2.85,2.59,2.83,2.57,-2.57,-2.94,-2.49,0.28,0.26,0.26
161.63,2.85,2.65,2.83,2.63,-2.63,-2.99,-2.53,0.22,0.20,0.21
163.24,2.84,2.70,2.84,2.69,-2.69,-3.03,-2.57,0.15,0.15,0.15
164.88,2.84,2.75,2.85,2.75,-2.75,-3.08,-2.61,0.09,0.09,0.09
166.53,2.84,2.82,2.86,2.82,-2.82,-3.13,-2.66,0.02,0.03,0.03
168.19,2.85,2.87,2.87,2.89,-2.89,-3.18,-2.70,-0.04,-0.02,-0.02
169.87,2.87,2.95,2.89,2.97,-2.97,-3.22,-2.75,-0.09,-0.08,-0.08
171.57,2.89,3.03,2.90,3.04,-3.04,-3.27,-2.80,-0.15,-0.14,-0.14
173.29,2.91,3.10,2.93,3.12,-3.12,-3.32,-2.86,-0.21,-0.19,-0.19
175.02,2.94,3.19,2.95,3.20,-3.20,-3.37,-2.91,-0.26,-0.25,-0.25
176.77,2.97,3.28,2.98,3.28,-3.28,-3.41,-2.97,-0.31,-0.31,-0.31
178.54,3.00,3.37,3.00,3.37,-3.37,-3.46,-3.03,-0.36,-0.36,-0.36
180.32,3.03,3.46,3.03,3.45,-3.45,-3.51,-3.09,-0.42,-0.42,-0.43
182.13,3.06,3.53,3.06,3.54,-3.54,-3.55,-3.16,-0.47,-0.47,-0.47
183.95,3.09,3.62,3.09,3.62,-3.62,-3.60,-3.22,-0.52,-0.53,-0.52
185.79,3.12,3.71,3.11,3.69,-3.69,-3.64,-3.29,-0.57,-0.58,-0.58
187.65,3.14,3.78,3.13,3.76,-3.76,-3.69,-3.36,-0.62,-0.63,-0.63
189.52,3.17,3.86,3.14,3.83,-3.83,-3.73,-3.44,-0.66,-0.69,-0.68
191.42,3.19,3.92,3.16,3.89,-3.89,-3.78,-3.51,-0.70,-0.74,-0.73
193.33,3.19,3.97,3.17,3.95,-3.95,-3.82,-3.59,-0.76,-0.78,-0.78
195.27,3.19,4.03,3.18,4.01,-4.01,-3.87,-3.67,-0.81,-0.83,-0.83
197.22,3.19,4.08,3.18,4.06,-4.06,-3.91,-3.75,-0.87,-0.88,-0.89
199.19,3.18,4.11,3.19,4.11,-4.11,-3.95,-3.83,-0.93,-0.92,-0.92
201.18,3.17,4.15,3.20,4.17,-4.17,-3.99,-3.91,-0.99,-0.96,-0.98
203.19,3.18,4.19,3.22,4.22,-4.22,-4.03,-3.99,-1.04,-1.00,-1.01
205.23,3.19,4.23,3.23,4.28,-4.28,-4.07,-4.08,-1.08,-1.04,-1.04
207.28,3.22,4.30,3.25,4.33,-4.33,-4.11,-4.16,-1.11,-1.08,-1.08
209.35,3.24,4.36,3.27,4.39,-4.39,-4.14,-4.25,-1.15,-1.12,-1.12
211.44,3.27,4.43,3.29,4.45,-4.45,-4.18,-4.33,-1.18,-1.16,-1.15
213.56,3.31,4.50,3.32,4.51,-4.51,-4.22,-4.41,-1.20,-1.19,-1.18
215.69,3.35,4.57,3.35,4.57,-4.57,-4.25,-4.50,-1.22,-1.22,-1.22
217.85,3.38,4.64,3.37,4.63,-4.63,-4.28,-4.58,-1.24,-1.26,-1.25
220.03,3.41,4.70,3.39,4.68,-4.68,-4.31,-4.66,-1.27,-1.29,-1.29
222.23,3.43,4.76,3.41,4.73,-4.73,-4.34,-4.73,-1.29,-1.31,-1.32
224.45,3.45,4.80,3.43,4.77,-4.77,-4.37,-4.80,-1.32,-1.34,-1.34
226.70,3.45,4.83,3.43,4.80,-4.80,-4.40,-4.87,-1.35,-1.37,-1.38
228.96,3.45,4.84,3.43,4.82,-4.82,-4.43,-4.94,-1.37,-1.40,-1.39
231.25,3.44,4.86,3.42,4.84,-4.84,-4.45,-5.00,-1.39,-1.42,-1.42
233.57,3.42,4.86,3.41,4.84,-4.84,-4.48,-5.05,-1.42,-1.44,-1.44
235.90,3.40,4.86,3.39,4.85,-4.85,-4.50,-5.10,-1.44,-1.46,-1.46
238.26,3.37,4.86,3.36,4.84,-4.84,-4.52,-5.14,-1.47,-1.48,-1.49
240.64,3.33,4.82,3.34,4.83,-4.83,-4.54,-5.18,-1.50,-1.49,-1.49
243.05,3.29,4.80,3.32,4.82,-4.82,-4.55,-5.21,-1.53,-1.50,-1.50
245.48,3.26,4.78,3.29,4.81,-4.81,-4.57,-5.23,-1.54,-1.52,-1.52
247.93,3.23,4.77,3.27,4.79,-4.79,-4.58,-5.24,-1.56,-1.53,-1.54
250.41,3.21,4.75,3.25,4.78,-4.78,-4.59,-5.25,-1.57,-1.53,-1.53
252.92,3.20,4.74,3.23,4.77,-4.77,-4.60,-5.25,-1.57,-1.54,-1.54
255.45,3.20,4.76,3.21,4.76,-4.76,-4.61,-5.24,-1.56,-1.55,-1.55
258.00,3.19,4.75,3.19,4.75,-4.75,-4.62,-5.23,-1.56,-1.56,-1.56
260.58,3.18,4.74,3.18,4.75,-4.75,-4.62,-5.20,-1.56,-1.56,-1.56
263.19,3.18,4.75,3.17,4.74,-4.74,-4.62,-5.18,-1.56,-1.57,-1.56
265.82,3.16,4.74,3.16,4.73,-4.73,-4.62,-5.14,-1.57,-1.58,-1.58
268.48,3.15,4.73,3.14,4.72,-4.72,-4.62,-5.10,-1.57,-1.58,-1.58
271.16,3.13,4.71,3.13,4.71,-4.71,-4.62,-5.05,-1.58,-1.59,-1.58
273.87,3.11,4.70,3.10,4.69,-4.69,-4.61,-5.00,-1.58,-1.59,-1.59
276.61,3.09,4.69,3.08,4.67,-4.67,-4.61,-4.94,-1.58,-1.60,-1.59
279.38,3.06,4.68,3.05,4.65,-4.65,-4.60,-4.88,-1.58,-1.60,-1.61
282.17,3.03,4.65,3.02,4.62,-4.62,-4.59,-4.82,-1.58,-1.60,-1.61
284.99,2.99,4.60,2.98,4.58,-4.58,-4.58,-4.75,-1.59,-1.60,-1.60
287.84,2.95,4.56,2.95,4.55,-4.55,-4.56,-4.68,-1.60,-1.60,-1.60
290.72,2.90,4.51,2.91,4.51,-4.51,-4.55,-4.61,-1.61,-1.60,-1.61
293.63,2.86,4.46,2.87,4.47,-4.47,-4.53,-4.54,-1.61,-1.60,-1.60
296.57,2.81,4.41,2.83,4.43,-4.43,-4.51,-4.46,-1.62,-1.60,-1.60
299.53,2.76,4.36,2.80,4.39,-4.39,-4.49,-4.39,-1.63,-1.60,-1.60
302.53,2.73,4.32,2.76,4.35,-4.35,-4.47,-4.32,-1.62,-1.59,-1.58
305.55,2.71,4.31,2.72,4.30,-4.30,-4.45,-4.24,-1.59,-1.59,-1.59
308.61,2.68,4.26,2.68,4.26,-4.26,-4.42,-4.17,-1.58,-1.58,-1.58
311.69,2.65,4.23,2.64,4.21,-4.21,-4.40,-4.10,-1.56,-1.58,-1.58
314.81,2.62,4.20,2.60,4.17,-4.17,-4.37,-4.03,-1.55,-1.57,-1.57
317.96,2.58,4.15,2.56,4.13,-4.13,-4.34,-3.96,-1.54,-1.57,-1.57
321.14,2.53,4.09,2.53,4.09,-4.09,-4.31,-3.89,-1.55,-1.56,-1.56
324.35,2.49,4.05,2.49,4.05,-4.05,-4.28,-3.82,-1.55,-1.55,-1.56
327.59,2.45,3.99,2.46,4.01,-4.01,-4.25,-3.76,-1.55,-1.55,-1.54
330.87,2.41,3.96,2.43,3.97,-3.97,-4.22,-3.70,-1.56,-1.54,-1.54
334.18,2.37,3.91,2.40,3.93,-3.93,-4.18,-3.64,-1.56,-1.54,-1.54
337.52,2.34,3.88,2.37,3.90,-3.90,-4.15,-3.58,-1.55,-1.53,-1.53
340.90,2.32,3.84,2.34,3.86,-3.86,-4.11,-3.53,-1.54,-1.52,-1.52
344.30,2.30,3.82,2.31,3.83,-3.83,-4.07,-3.47,-1.52,-1.52,-1.51
347.75,2.29,3.80,2.28,3.79,-3.79,-4.03,-3.42,-1.50,-1.51,-1.51
351.23,2.27,3.79,2.26,3.76,-3.76,-4.00,-3.38,-1.49,-1.50,-1.51
354.74,2.25,3.74,2.24,3.74,-3.74,-3.96,-3.33,-1.48,-1.50,-1.49
358.28,2.22,3.71,2.22,3.71,-3.71,-3.92,-3.29,-1.49,-1.49,-1.49
361.87,2.20,3.69,2.20,3.68,-3.68,-3.88,-3.25,-1.48,-1.48,-1.48
365.49,2.17,3.65,2.18,3.66,-3.66,-3.83,-3.22,-1.48,-1.48,-1.48
369.14,2.15,3.62,2.16,3.63,-3.63,-3.79,-3.18,-1.48,-1.47,-1.46
372.83,2.13,3.59,2.14,3.60,-3.60,-3.75,-3.15,-1.47,-1.46,-1.46
376.56,2.12,3.58,2.12,3.57,-3.57,-3.71,-3.12,-1.45,-1.45,-1.46
380.33,2.09,3.55,2.09,3.54,-3.54,-3.66,-3.09,-1.44,-1.45,-1.45
384.13,2.06,3.50,2.06,3.50,-3.50,-3.62,-3.07,-1.44,-1.44,-1.44
387.97,2.04,3.47,2.04,3.46,-3.46,-3.58,-3.05,-1.42,-1.43,-1.43
391.85,2.02,3.44,2.01,3.43,-3.43,-3.53,-3.03,-1.40,-1.42,-1.42
395.77,1.99,3.41,1.98,3.39,-3.39,-3.49,-3.01,-1.40,-1.41,-1.41
399.73,1.96,3.37,1.96,3.36,-3.36,-3.44,-2.99,-1.39,-1.40,-1.41
403.72,1.93,3.31,1.93,3.32,-3.32,-3.40,-2.98,-1.39,-1.39,-1.38
407.76,1.89,3.27,1.90,3.28,-3.28,-3.35,-2.96,-1.39,-1.38,-1.38
411.84,1.85,3.23,1.87,3.25,-3.25,-3.31,-2.95,-1.39,-1.37,-1.37
415.96,1.82,3.18,1.85,3.21,-3.21,-3.27,-2.94,-1.39,-1.36,-1.36
420.12,1.79,3.15,1.82,3.17,-3.17,-3.22,-2.93,-1.38,-1.36,-1.36
424.32,1.77,3.12,1.79,3.13,-3.13,-3.18,-2.92,-1.36,-1.35,-1.35
428.56,1.76,3.10,1.75,3.09,-3.09,-3.13,-2.91,-1.33,-1.34,-1.33
432.85,1.74,3.07,1.72,3.05,-3.05,-3.09,-2.91,-1.31,-1.33,-1.32
437.18,1.71,3.04,1.69,3.01,-3.01,-3.04,-2.90,-1.30,-1.32,-1.33
441.55,1.67,2.99,1.65,2.97,-2.97,-3.00,-2.89,-1.29,-1.31,-1.32
445.96,1.63,2.94,1.62,2.92,-2.92,-2.95,-2.88,-1.29,-1.31,-1.31
450.42,1.59,2.89,1.58,2.88,-2.88,-2.91,-2.88,-1.29,-1.30,-1.30
454.93,1.54,2.84,1.55,2.83,-2.83,-2.87,-2.87,-1.29,-1.29,-1.29
459.48,1.50,2.79,1.51,2.79,-2.79,-2.82,-2.86,-1.29,-1.28,-1.29
464.07,1.46,2.73,1.48,2.75,-2.75,-2.78,-2.85,-1.29,-1.27,-1.27
468.71,1.42,2.68,1.44,2.71,-2.71,-2.74,-2.83,-1.28,-1.26,-1.26
473.40,1.39,2.64,1.41,2.66,-2.66,-2.69,-2.82,-1.27,-1.25,-1.25
478.13,1.36,2.60,1.38,2.62,-2.62,-2.65,-2.81,-1.26,-1.24,-1.24
482.91,1.34,2.57,1.35,2.58,-2.58,-2.61,-2.79,-1.24,-1.23,-1.23
487.74,1.32,2.55,1.33,2.55,-2.55,-2.57,-2.77,-1.23,-1.22,-1.22
492.62,1.30,2.52,1.31,2.52,-2.52,-2.53,-2.75,-1.22,-1.21,-1.21
497.55,1.28,2.49,1.29,2.49,-2.49,-2.49,-2.73,-1.21,-1.20,-1.21
502.52,1.27,2.47,1.27,2.46,-2.46,-2.44,-2.70,-1.19,-1.19,-1.20
507.55,1.26,2.44,1.26,2.43,-2.43,-2.40,-2.67,-1.17,-1.18,-1.18
512.62,1.24,2.41,1.24,2.40,-2.40,-2.36,-2.64,-1.16,-1.17,-1.17
517.75,1.22,2.37,1.22,2.38,-2.38,-2.32,-2.61,-1.15,-1.16,-1.15
522.93,1.21,2.35,1.20,2.35,-2.35,-2.29,-2.58,-1.13,-1.14,-1.14
528.16,1.19,2.32,1.18,2.31,-2.31,-2.25,-2.54,-1.12,-1.13,-1.13
