frequency,raw,error,smoothed,error_smoothed,equalization,parametric_eq,fixed_band_eq,equalized_raw,equalized_smoothed,target
20.00,5.73,-1.50,5.73,-1.50,1.50,1.47,0.41,7.24,7.23,7.23
20.20,5.74,-1.48,5.74,-1.48,1.48,1.47,0.42,7.22,7.22,7.22
20.40,5.76,-1.45,5.76,-1.45,1.45,1.47,0.43,7.21,7.21,7.21
20.61,5.77,-1.43,5.77,-1.42,1.42,1.46,0.45,7.20,7.20,7.20
20.81,5.78,-1.40,5.79,-1.40,1.40,1.45,0.46,7.18,7.18,7.18
21.02,5.80,-1.37,5.80,-1.37,1.37,1.44,0.47,7.17,7.17,7.17
21.23,5.81,-1.35,5.82,-1.35,1.35,1.43,0.49,7.16,7.16,7.16
21.44,5.83,-1.34,5.84,-1.32,1.32,1.41,0.50,7.15,7.15,7.17
21.66,5.84,-1.31,5.85,-1.29,1.29,1.39,0.51,7.13,7.15,7.15
21.87,5.86,-1.28,5.87,-1.26,1.26,1.37,0.53,7.13,7.14,7.15
22.09,5.88,-1.25,5.89,-1.24,1.24,1.35,0.54,7.12,7.13,7.13
22.31,5.90,-1.22,5.91,-1.21,1.21,1.33,0.56,7.11,7.12,7.12
22.54,5.93,-1.18,5.93,-1.18,1.18,1.30,0.57,7.11,7.12,7.11
22.76,5.96,-1.15,5.96,-1.15,1.15,1.28,0.59,7.11,7.11,7.11
22.99,5.99,-1.11,5.98,-1.12,1.12,1.25,0.61,7.12,7.10,7.10
23.22,6.01,-1.08,6.00,-1.09,1.09,1.22,0.62,7.11,7.10,7.09
23.45,6.03,-1.07,6.03,-1.07,1.07,1.19,0.64,7.10,7.09,7.10
23.69,6.05,-1.04,6.05,-1.04,1.04,1.16,0.66,7.09,7.09,7.09
23.92,6.07,-1.01,6.08,-1.01,1.01,1.13,0.68,7.08,7.08,7.08
24.16,6.10,-0.99,6.10,-0.98,0.98,1.10,0.69,7.08,7.08,7.09
24.40,6.12,-0.97,6.12,-0.95,0.95,1.06,0.71,7.08,7.08,7.09
24.65,6.15,-0.93,6.15,-0.93,0.93,1.03,0.73,7.08,7.08,7.08
24.89,6.17,-0.91,6.18,-0.90,0.90,1.00,0.75,7.07,7.08,7.08
25.14,6.19,-0.88,6.20,-0.87,0.87,0.97,0.76,7.07,7.07,7.07
25.39,6.21,-0.86,6.23,-0.85,0.85,0.94,0.78,7.06,7.07,7.07
25.65,6.24,-0.83,6.26,-0.82,0.82,0.90,0.80,7.06,7.07,7.07
25.91,6.27,-0.80,6.28,-0.79,0.79,0.87,0.82,7.06,7.07,7.07
26.16,6.30,-0.78,6.31,-0.76,0.76,0.84,0.83,7.06,7.07,7.08
26.43,6.33,-0.74,6.34,-0.73,0.73,0.81,0.85,7.06,7.07,7.07
26.69,6.36,-0.71,6.36,-0.71,0.71,0.78,0.87,7.07,7.07,7.07
26.96,6.38,-0.69,6.38,-0.69,0.69,0.75,0.88,7.07,7.07,7.07
27.23,6.41,-0.66,6.39,-0.68,0.68,0.72,0.90,7.09,7.07,7.07
27.50,6.43,-0.64,6.41,-0.67,0.67,0.69,0.91,7.10,7.07,7.07
27.77,6.44,-0.64,6.42,-0.66,0.66,0.66,0.92,7.10,7.08,7.08
28.05,6.45,-0.62,6.42,-0.65,0.65,0.63,0.93,7.11,7.08,7.07
28.33,6.45,-0.63,6.43,-0.65,0.65,0.60,0.94,7.10,7.08,7.08
28.62,6.44,-0.64,6.43,-0.65,0.65,0.57,0.95,7.09,7.08,7.08
28.90,6.42,-0.67,6.43,-0.65,0.65,0.55,0.96,7.07,7.08,7.09
29.19,6.41,-0.68,6.43,-0.65,0.65,0.52,0.96,7.06,7.08,7.09
29.48,6.40,-0.68,6.44,-0.64,0.64,0.49,0.97,7.05,7.08,7.08
29.78,6.41,-0.67,6.44,-0.64,0.64,0.47,0.97,7.05,7.08,7.08
30.08,6.42,-0.66,6.45,-0.62,0.62,0.44,0.97,7.05,7.07,7.08
30.38,6.44,-0.62,6.46,-0.61,0.61,0.42,0.97,7.05,7.07,7.06
30.68,6.46,-0.60,6.47,-0.59,0.59,0.40,0.96,7.05,7.06,7.06
30.99,6.48,-0.58,6.49,-0.57,0.57,0.37,0.96,7.05,7.06,7.06
31.30,6.51,-0.55,6.52,-0.54,0.54,0.35,0.95,7.05,7.05,7.06
31.61,6.54,-0.51,6.54,-0.50,0.50,0.33,0.94,7.05,7.05,7.05
31.93,6.57,-0.46,6.57,-0.47,0.47,0.31,0.92,7.04,7.04,7.03
32.24,6.60,-0.43,6.60,-0.43,0.43,0.29,0.91,7.03,7.03,7.04
32.57,6.63,-0.39,6.63,-0.39,0.39,0.27,0.89,7.02,7.02,7.02
32.89,6.66,-0.36,6.66,-0.36,0.36,0.24,0.87,7.02,7.02,7.02
33.22,6.69,-0.32,6.69,-0.32,0.32,0.23,0.85,7.02,7.01,7.01
33.55,6.72,-0.29,6.71,-0.30,0.30,0.21,0.83,7.02,7.01,7.01
33.89,6.74,-0.26,6.73,-0.27,0.27,0.19,0.80,7.01,7.00,7.00
34.23,6.76,-0.22,6.74,-0.25,0.25,0.17,0.78,7.01,6.99,6.98
34.57,6.77,-0.21,6.76,-0.23,0.23,0.15,0.75,7.00,6.98,6.98
34.92,6.78,-0.18,6.76,-0.21,0.21,0.13,0.72,6.99,6.97,6.96
35.27,6.78,-0.20,6.77,-0.19,0.19,0.11,0.69,6.97,6.96,6.98
35.62,6.77,-0.18,6.77,-0.18,0.18,0.10,0.66,6.95,6.95,6.95
35.97,6.76,-0.19,6.77,-0.16,0.16,0.08,0.63,6.93,6.94,6.95
36.33,6.75,-0.18,6.77,-0.15,0.15,0.06,0.60,6.91,6.92,6.93
36.70,6.75,-0.16,6.77,-0.14,0.14,0.04,0.56,6.89,6.91,6.91
37.06,6.75,-0.14,6.76,-0.13,0.13,0.03,0.53,6.88,6.89,6.89
37.43,6.75,-0.12,6.76,-0.11,0.11,0.01,0.49,6.87,6.87,6.87
37.81,6.75,-0.11,6.76,-0.10,0.10,-0.00,0.46,6.85,6.85,6.86
38.19,6.75,-0.08,6.75,-0.08,0.08,-0.02,0.42,6.83,6.83,6.83
38.57,6.75,-0.06,6.75,-0.06,0.06,-0.04,0.38,6.81,6.81,6.81
38.95,6.75,-0.05,6.75,-0.04,0.04,-0.05,0.35,6.79,6.79,6.80
39.34,6.75,-0.02,6.75,-0.02,0.02,-0.07,0.31,6.77,6.77,6.77
39.74,6.75,0.01,6.76,0.01,-0.01,-0.08,0.27,6.74,6.75,6.74
40.14,6.75,0.03,6.76,0.04,-0.04,-0.10,0.23,6.72,6.72,6.72
40.54,6.75,0.05,6.76,0.06,-0.06,-0.11,0.19,6.69,6.70,6.70
40.94,6.75,0.08,6.77,0.09,-0.09,-0.13,0.16,6.67,6.68,6.67
41.35,6.75,0.09,6.77,0.11,-0.11,-0.14,0.12,6.64,6.66,6.66
41.76,6.76,0.13,6.77,0.14,-0.14,-0.16,0.08,6.63,6.63,6.63
42.18,6.77,0.15,6.77,0.16,-0.16,-0.17,0.04,6.61,6.61,6.62
42.60,6.78,0.19,6.77,0.18,-0.18,-0.19,0.00,6.60,6.59,6.59
43.03,6.77,0.20,6.76,0.20,-0.20,-0.20,-0.03,6.57,6.56,6.57
43.46,6.77,0.24,6.75,0.21,-0.21,-0.22,-0.07,6.56,6.54,6.53
43.90,6.75,0.24,6.74,0.23,-0.23,-0.23,-0.11,6.53,6.51,6.51
44.33,6.73,0.25,6.72,0.24,-0.24,-0.24,-0.15,6.49,6.48,6.48
44.78,6.71,0.25,6.71,0.25,-0.25,-0.26,-0.19,6.46,6.45,6.46
45.23,6.69,0.25,6.68,0.26,-0.26,-0.27,-0.23,6.43,6.42,6.44
45.68,6.66,0.27,6.66,0.27,-0.27,-0.29,-0.26,6.40,6.39,6.39
46.13,6.63,0.27,6.63,0.27,-0.27,-0.30,-0.30,6.36,6.35,6.36
46.60,6.60,0.28,6.60,0.28,-0.28,-0.32,-0.34,6.32,6.32,6.32
47.06,6.56,0.27,6.57,0.29,-0.29,-0.33,-0.38,6.27,6.28,6.29
47.53,6.53,0.28,6.54,0.30,-0.30,-0.35,-0.42,6.23,6.24,6.25
48.01,6.50,0.30,6.51,0.31,-0.31,-0.36,-0.46,6.19,6.20,6.20
48.49,6.48,0.32,6.49,0.33,-0.33,-0.37,-0.50,6.16,6.16,6.16
48.97,6.45,0.34,6.47,0.35,-0.35,-0.39,-0.53,6.10,6.12,6.11
49.46,6.43,0.35,6.45,0.37,-0.37,-0.40,-0.57,6.06,6.08,6.08
49.96,6.42,0.40,6.44,0.40,-0.40,-0.42,-0.61,6.02,6.03,6.02
50.46,6.41,0.42,6.43,0.44,-0.44,-0.43,-0.65,5.98,5.99,5.99
50.96,6.40,0.45,6.42,0.47,-0.47,-0.45,-0.69,5.93,5.95,5.95
51.47,6.41,0.50,6.42,0.51,-0.51,-0.46,-0.72,5.90,5.91,5.91
51.99,6.42,0.56,6.42,0.56,-0.56,-0.48,-0.76,5.87,5.87,5.86
52.51,6.42,0.59,6.43,0.60,-0.60,-0.49,-0.80,5.82,5.82,5.83
53.03,6.43,0.63,6.43,0.65,-0.65,-0.51,-0.83,5.78,5.78,5.80
53.56,6.43,0.68,6.44,0.69,-0.69,-0.52,-0.87,5.74,5.74,5.75
54.10,6.44,0.74,6.44,0.74,-0.74,-0.54,-0.90,5.71,5.70,5.70
54.64,6.45,0.79,6.44,0.78,-0.78,-0.56,-0.94,5.68,5.66,5.66
55.18,6.45,0.83,6.44,0.81,-0.81,-0.57,-0.97,5.64,5.63,5.62
55.74,6.45,0.88,6.44,0.85,-0.85,-0.59,-1.00,5.61,5.59,5.57
56.29,6.44,0.89,6.43,0.88,-0.88,-0.60,-1.04,5.56,5.55,5.55
56.86,6.43,0.92,6.42,0.91,-0.91,-0.62,-1.07,5.53,5.51,5.51
57.42,6.41,0.95,6.40,0.93,-0.93,-0.64,-1.10,5.48,5.47,5.46
58.00,6.39,0.97,6.38,0.96,-0.96,-0.65,-1.13,5.44,5.42,5.42
58.58,6.36,0.97,6.36,0.98,-0.98,-0.67,-1.15,5.38,5.38,5.39
59.16,6.33,0.97,6.34,1.00,-1.00,-0.69,-1.18,5.33,5.33,5.36
59.76,6.30,0.99,6.31,1.03,-1.03,-0.70,-1.20,5.28,5.29,5.31
60.35,6.27,1.01,6.29,1.04,-1.04,-0.72,-1.23,5.23,5.24,5.26
60.96,6.24,1.04,6.26,1.07,-1.07,-0.74,-1.25,5.18,5.19,5.20
61.57,6.22,1.08,6.23,1.09,-1.09,-0.75,-1.27,5.14,5.14,5.14
62.18,6.20,1.12,6.20,1.11,-1.11,-0.77,-1.29,5.09,5.09,5.08
62.80,6.18,1.16,6.18,1.14,-1.14,-0.79,-1.30,5.04,5.03,5.02
63.43,6.15,1.18,6.15,1.17,-1.17,-0.81,-1.32,4.98,4.98,4.97
64.07,6.12,1.20,6.13,1.20,-1.20,-0.83,-1.33,4.92,4.93,4.92
64.71,6.09,1.22,6.11,1.23,-1.23,-0.84,-1.34,4.86,4.87,4.87
65.35,6.06,1.25,6.08,1.27,-1.27,-0.86,-1.35,4.80,4.82,4.81
66.01,6.04,1.28,6.06,1.30,-1.30,-0.88,-1.36,4.75,4.76,4.76
66.67,6.02,1.30,6.03,1.33,-1.33,-0.90,-1.37,4.70,4.71,4.72
67.33,6.01,1.36,6.00,1.35,-1.35,-0.92,-1.38,4.66,4.65,4.65
68.01,5.99,1.39,5.97,1.38,-1.38,-0.94,-1.38,4.62,4.60,4.60
68.69,5.97,1.42,5.94,1.40,-1.40,-0.96,-1.39,4.57,4.54,4.55
69.37,5.93,1.43,5.91,1.42,-1.42,-0.98,-1.39,4.51,4.49,4.50
70.07,5.89,1.45,5.87,1.45,-1.45,-1.00,-1.40,4.45,4.43,4.44
70.77,5.85,1.48,5.84,1.47,-1.47,-1.02,-1.40,4.38,4.37,4.37
71.48,5.80,1.48,5.81,1.49,-1.49,-1.04,-1.40,4.31,4.31,4.32
72.19,5.75,1.49,5.77,1.51,-1.51,-1.06,-1.41,4.24,4.26,4.26
72.91,5.71,1.52,5.73,1.53,-1.53,-1.08,-1.41,4.18,4.20,4.19
73.64,5.67,1.53,5.70,1.55,-1.55,-1.11,-1.41,4.12,4.14,4.14
74.38,5.63,1.55,5.66,1.57,-1.57,-1.13,-1.41,4.06,4.09,4.08
75.12,5.61,1.58,5.62,1.58,-1.58,-1.15,-1.42,4.03,4.03,4.03
75.87,5.58,1.60,5.58,1.60,-1.60,-1.17,-1.42,3.98,3.98,3.98
76.63,5.56,1.64,5.55,1.62,-1.62,-1.19,-1.42,3.94,3.93,3.92
77.40,5.53,1.65,5.51,1.64,-1.64,-1.22,-1.43,3.90,3.88,3.88
78.17,5.49,1.67,5.48,1.66,-1.66,-1.24,-1.43,3.84,3.83,3.82
78.95,5.45,1.67,5.45,1.68,-1.68,-1.26,-1.44,3.78,3.78,3.78
79.74,5.41,1.68,5.42,1.70,-1.70,-1.29,-1.44,3.71,3.73,3.73
80.54,5.37,1.69,5.39,1.72,-1.72,-1.31,-1.45,3.65,3.68,3.68
81.35,5.34,1.72,5.36,1.74,-1.74,-1.34,-1.46,3.61,3.63,3.62
82.16,5.32,1.73,5.33,1.76,-1.76,-1.36,-1.47,3.57,3.58,3.59
82.98,5.30,1.77,5.30,1.77,-1.77,-1.39,-1.48,3.53,3.52,3.53
83.81,5.27,1.79,5.26,1.79,-1.79,-1.41,-1.49,3.48,3.47,3.48
84.65,5.23,1.81,5.22,1.81,-1.81,-1.44,-1.50,3.43,3.42,3.42
85.50,5.20,1.84,5.19,1.82,-1.82,-1.46,-1.51,3.38,3.37,3.36
86.35,5.16,1.85,5.15,1.84,-1.84,-1.49,-1.52,3.32,3.31,3.31
87.22,5.12,1.86,5.11,1.86,-1.86,-1.51,-1.54,3.27,3.26,3.26
88.09,5.07,1.87,5.07,1.87,-1.87,-1.54,-1.56,3.20,3.20,3.20
88.97,5.02,1.88,5.03,1.88,-1.88,-1.57,-1.57,3.14,3.14,3.14
89.86,4.97,1.88,4.98,1.90,-1.90,-1.60,-1.59,3.08,3.09,3.09
90.76,4.92,1.89,4.93,1.91,-1.91,-1.62,-1.61,3.02,3.03,3.03
91.66,4.87,1.91,4.88,1.92,-1.92,-1.65,-1.63,2.96,2.97,2.96
92.58,4.84,1.93,4.83,1.93,-1.93,-1.68,-1.65,2.92,2.91,2.91
93.51,4.80,1.94,4.78,1.94,-1.94,-1.71,-1.68,2.86,2.85,2.86
94.44,4.74,1.94,4.73,1.95,-1.95,-1.74,-1.70,2.79,2.78,2.80
95.39,4.68,1.95,4.68,1.96,-1.96,-1.77,-1.73,2.72,2.72,2.73
96.34,4.62,1.96,4.63,1.97,-1.97,-1.79,-1.75,2.65,2.66,2.66
97.30,4.56,1.96,4.58,1.98,-1.98,-1.82,-1.78,2.58,2.60,2.60
98.28,4.52,1.99,4.53,1.99,-1.99,-1.85,-1.81,2.53,2.54,2.53
99.26,4.48,2.01,4.48,2.01,-2.01,-1.89,-1.84,2.48,2.48,2.47
100.25,4.44,2.03,4.44,2.02,-2.02,-1.92,-1.87,2.43,2.42,2.41
101.25,4.39,2.03,4.39,2.03,-2.03,-1.95,-1.90,2.37,2.36,2.36
102.27,4.34,2.04,4.34,2.04,-2.04,-1.98,-1.93,2.31,2.30,2.30
103.29,4.29,2.05,4.29,2.04,-2.04,-2.01,-1.96,2.25,2.24,2.24
104.32,4.23,2.04,4.24,2.05,-2.05,-2.04,-2.00,2.18,2.19,2.19
105.37,4.18,2.05,4.19,2.06,-2.06,-2.07,-2.03,2.12,2.13,2.13
106.42,4.14,2.06,4.15,2.07,-2.07,-2.11,-2.06,2.07,2.08,2.08
107.48,4.11,2.09,4.10,2.09,-2.09,-2.14,-2.10,2.03,2.02,2.02
108.56,4.06,2.09,4.06,2.10,-2.10,-2.17,-2.13,1.97,1.96,1.97
109.64,4.01,2.10,4.01,2.11,-2.11,-2.20,-2.17,1.90,1.90,1.91
110.74,3.96,2.11,3.97,2.12,-2.12,-2.24,-2.20,1.84,1.84,1.85
111.85,3.91,2.12,3.92,2.14,-2.14,-2.27,-2.23,1.78,1.78,1.79
112.97,3.86,2.12,3.88,2.15,-2.15,-2.31,-2.26,1.71,1.73,1.74
114.10,3.83,2.15,3.84,2.17,-2.17,-2.34,-2.30,1.67,1.67,1.68
115.24,3.79,2.19,3.79,2.18,-2.18,-2.37,-2.33,1.61,1.61,1.60
116.39,3.76,2.22,3.75,2.20,-2.20,-2.41,-2.36,1.57,1.55,1.54
117.55,3.71,2.23,3.70,2.21,-2.21,-2.44,-2.39,1.51,1.49,1.48
118.73,3.66,2.24,3.66,2.22,-2.22,-2.48,-2.41,1.44,1.44,1.42
119.92,3.61,2.23,3.61,2.23,-2.23,-2.51,-2.44,1.38,1.38,1.38
121.12,3.57,2.24,3.57,2.24,-2.24,-2.55,-2.47,1.33,1.32,1.33
122.33,3.53,2.26,3.53,2.26,-2.26,-2.59,-2.49,1.27,1.27,1.27
123.55,3.49,2.27,3.49,2.28,-2.28,-2.62,-2.51,1.22,1.21,1.22
124.79,3.44,2.27,3.45,2.29,-2.29,-2.66,-2.53,1.15,1.16,1.17
126.03,3.39,2.28,3.41,2.31,-2.31,-2.69,-2.55,1.09,1.10,1.11
127.29,3.34,2.28,3.37,2.32,-2.32,-2.73,-2.57,1.02,1.05,1.06
128.57,3.31,2.32,3.33,2.34,-2.34,-2.77,-2.59,0.97,0.99,0.99
129.85,3.29,2.35,3.30,2.36,-2.36,-2.80,-2.60,0.93,0.94,0.94
131.15,3.27,2.39,3.27,2.38,-2.38,-2.84,-2.62,0.89,0.88,0.88
132.46,3.24,2.41,3.23,2.41,-2.41,-2.88,-2.63,0.84,0.83,0.83
133.79,3.22,2.45,3.20,2.43,-2.43,-2.91,-2.64,0.79,0.77,0.77
135.12,3.18,2.46,3.17,2.45,-2.45,-2.95,-2.65,0.73,0.72,0.72
136.48,3.15,2.48,3.14,2.48,-2.48,-2.99,-2.66,0.68,0.67,0.67
137.84,3.11,2.49,3.12,2.50,-2.50,-3.03,-2.67,0.61,0.62,0.62
139.22,3.08,2.52,3.09,2.52,-2.52,-3.06,-2.68,0.56,0.56,0.56
140.61,3.06,2.54,3.06,2.54,-2.54,-3.10,-2.69,0.52,0.52,0.52
142.02,3.03,2.57,3.03,2.56,-2.56,-3.14,-2.70,0.47,0.47,0.46
143.44,3.01,2.59,3.00,2.58,-2.58,-3.17,-2.71,0.43,0.42,0.42
144.87,2.98,2.60,2.98,2.60,-2.60,-3.21,-2.72,0.38,0.38,0.38
146.32,2.95,2.62,2.95,2.62,-2.62,-3.25,-2.73,0.33,0.33,0.33
147.78,2.92,2.63,2.93,2.64,-2.64,-3.29,-2.74,0.28,0.29,0.29
149.26,2.90,2.66,2.91,2.66,-2.66,-3.32,-2.76,0.24,0.24,0.24
150.75,2.88,2.68,2.89,2.69,-2.69,-3.36,-2.77,0.19,0.20,0.20
152.26,2.86,2.70,2.88,2.72,-2.72,-3.40,-2.78,0.14,0.16,0.16
153.78,2.85,2.73,2.86,2.75,-2.75,-3.43,-2.80,0.10,0.11,0.12
155.32,2.84,2.76,2.85,2.78,-2.78,-3.47,-2.82,0.06,0.07,0.08
156.88,2.84,2.81,2.84,2.82,-2.82,-3.50,-2.84,0.03,0.03,0.03
158.44,2.84,2.86,2.84,2.85,-2.85,-3.54,-2.86,-0.01,-0.02,-0.02
160.03,2.85,2.91,2.83,2.90,-2.90,-3.57,-2.88,-0.04,-0.06,-0.06
161.63,2.85,2.95,2.83,2.94,-2.94,-3.61,-2.91,-0.09,-0.11,-0.10
163.24,2.84,2.99,2.84,2.99,-2.99,-3.65,-2.93,-0.15,-0.15,-0.15
164.88,2.84,3.04,2.85,3.04,-3.04,-3.68,-2.96,-0.20,-0.20,-0.20
166.53,2.84,3.09,2.86,3.10,-3.10,-3.71,-2.99,-0.26,-0.25,-0.25
168.19,2.85,3.13,2.87,3.16,-3.16,-3.75,-3.03,-0.31,-0.29,-0.28
169.87,2.87,3.21,2.89,3.23,-3.23,-3.78,-3.06,-0.35,-0.34,-0.34
171.57,2.89,3.28,2.90,3.29,-3.29,-3.81,-3.10,-0.40,-0.39,-0.39
173.29,2.91,3.34,2.93,3.36,-3.36,-3.85,-3.14,-0.45,-0.44,-0.43
175.02,2.94,3.42,2.95,3.43,-3.43,-3.88,-3.19,-0.49,-0.48,-0.48
176.77,2.97,3.50,2.98,3.50,-3.50,-3.91,-3.23,-0.53,-0.53,-0.53
178.54,3.00,3.57,3.00,3.58,-3.58,-3.94,-3.28,-0.58,-0.57,-0.57
180.32,3.03,3.66,3.03,3.65,-3.65,-3.97,-3.33,-0.62,-0.62,-0.63
182.13,3.06,3.72,3.06,3.73,-3.73,-4.00,-3.39,-0.67,-0.67,-0.66
183.95,3.09,3.80,3.09,3.80,-3.80,-4.03,-3.44,-0.71,-0.71,-0.71
185.79,3.12,3.88,3.11,3.87,-3.87,-4.06,-3.50,-0.75,-0.76,-0.76
187.65,3.14,3.94,3.13,3.93,-3.93,-4.09,-3.56,-0.79,-0.80,-0.80
189.52,3.17,4.01,3.14,3.99,-3.99,-4.11,-3.62,-0.82,-0.85,-0.84
191.42,3.19,4.07,3.16,4.05,-4.05,-4.14,-3.69,-0.85,-0.89,-0.88
193.33,3.19,4.11,3.17,4.10,-4.10,-4.16,-3.76,-0.90,-0.93,-0.92
195.27,3.19,4.16,3.18,4.14,-4.14,-4.19,-3.82,-0.95,-0.97,-0.97
197.22,3.19,4.21,3.18,4.19,-4.19,-4.21,-3.90,-1.00,-1.01,-1.02
199.19,3.18,4.23,3.19,4.24,-4.24,-4.24,-3.97,-1.05,-1.04,-1.05
201.18,3.17,4.26,3.20,4.28,-4.28,-4.26,-4.04,-1.11,-1.08,-1.09
203.19,3.18,4.30,3.22,4.33,-4.33,-4.28,-4.12,-1.15,-1.12,-1.12
205.23,3.19,4.33,3.23,4.38,-4.38,-4.30,-4.19,-1.19,-1.15,-1.14
207.28,3.22,4.39,3.25,4.43,-4.43,-4.32,-4.27,-1.21,-1.18,-1.17
209.35,3.24,4.45,3.27,4.48,-4.48,-4.34,-4.34,-1.24,-1.21,-1.21
211.44,3.27,4.51,3.29,4.54,-4.54,-4.35,-4.42,-1.26,-1.24,-1.24
213.56,3.31,4.57,3.32,4.59,-4.59,-4.37,-4.49,-1.28,-1.27,-1.26
215.69,3.35,4.64,3.35,4.64,-4.64,-4.39,-4.57,-1.29,-1.30,-1.29
217.85,3.38,4.70,3.37,4.69,-4.69,-4.40,-4.64,-1.31,-1.32,-1.32
220.03,3.41,4.76,3.39,4.74,-4.74,-4.41,-4.71,-1.33,-1.35,-1.35
222.23,3.43,4.81,3.41,4.78,-4.78,-4.42,-4.78,-1.35,-1.37,-1.38
224.45,3.45,4.84,3.43,4.82,-4.82,-4.44,-4.84,-1.37,-1.39,-1.39
226.70,3.45,4.87,3.43,4.85,-4.85,-4.45,-4.91,-1.39,-1.42,-1.42
228.96,3.45,4.88,3.43,4.86,-4.86,-4.45,-4.96,-1.41,-1.44,-1.43
231.25,3.44,4.89,3.42,4.87,-4.87,-4.46,-5.02,-1.43,-1.45,-1.45
233.57,3.42,4.89,3.41,4.88,-4.88,-4.47,-5.07,-1.45,-1.47,-1.47
235.90,3.40,4.88,3.39,4.87,-4.87,-4.47,-5.11,-1.47,-1.48,-1.48
238.26,3.37,4.88,3.36,4.86,-4.86,-4.48,-5.15,-1.49,-1.50,-1.51
240.64,3.33,4.83,3.34,4.85,-4.85,-4.48,-5.18,-1.52,-1.51,-1.50
243.05,3.29,4.81,3.32,4.83,-4.83,-4.48,-5.20,-1.54,-1.52,-1.52
245.48,3.26,4.79,3.29,4.82,-4.82,-4.48,-5.22,-1.55,-1.53,-1.53
247.93,3.23,4.77,3.27,4.80,-4.80,-4.48,-5.23,-1.57,-1.53,-1.54
250.41,3.21,4.74,3.25,4.79,-4.79,-4.48,-5.23,-1.57,-1.54,-1.53
252.92,3.20,4.74,3.23,4.77,-4.77,-4.48,-5.23,-1.57,-1.54,-1.54
255.45,3.20,4.75,3.21,4.76,-4.76,-4.47,-5.21,-1.56,-1.55,-1.55
258.00,3.19,4.74,3.19,4.75,-4.75,-4.47,-5.20,-1.55,-1.55,-1.55
260.58,3.18,4.73,3.18,4.74,-4.74,-4.46,-5.17,-1.55,-1.56,-1.55
263.19,3.18,4.73,3.17,4.73,-4.73,-4.45,-5.14,-1.54,-1.56,-1.55
265.82,3.16,4.72,3.16,4.72,-4.72,-4.44,-5.10,-1.55,-1.56,-1.56
268.48,3.15,4.71,3.14,4.71,-4.71,-4.43,-5.06,-1.55,-1.56,-1.56
271.16,3.13,4.69,3.13,4.69,-4.69,-4.42,-5.01,-1.56,-1.57,-1.56
273.87,3.11,4.67,3.10,4.67,-4.67,-4.41,-4.96,-1.56,-1.57,-1.56
276.61,3.09,4.65,3.08,4.65,-4.65,-4.40,-4.90,-1.55,-1.57,-1.56
279.38,3.06,4.64,3.05,4.62,-4.62,-4.38,-4.84,-1.55,-1.57,-1.58
282.17,3.03,4.61,3.02,4.58,-4.58,-4.37,-4.77,-1.55,-1.57,-1.58
284.99,2.99,4.56,2.98,4.55,-4.55,-4.35,-4.71,-1.56,-1.57,-1.57
287.84,2.95,4.51,2.95,4.51,-4.51,-4.33,-4.64,-1.56,-1.57,-1.56
290.72,2.90,4.47,2.91,4.47,-4.47,-4.31,-4.56,-1.57,-1.56,-1.57
293.63,2.86,4.42,2.87,4.43,-4.43,-4.29,-4.49,-1.57,-1.56,-1.56
296.57,2.81,4.36,2.83,4.39,-4.39,-4.27,-4.42,-1.58,-1.56,-1.55
299.53,2.76,4.31,2.80,4.35,-4.35,-4.25,-4.34,-1.58,-1.55,-1.55
302.53,2.73,4.26,2.76,4.30,-4.30,-4.23,-4.27,-1.57,-1.54,-1.53
305.55,2.71,4.25,2.72,4.25,-4.25,-4.21,-4.19,-1.54,-1.54,-1.54
308.61,2.68,4.21,2.68,4.21,-4.21,-4.18,-4.12,-1.52,-1.53,-1.53
311.69,2.65,4.17,2.64,4.16,-4.16,-4.16,-4.05,-1.51,-1.52,-1.52
314.81,2.62,4.14,2.60,4.11,-4.11,-4.13,-3.98,-1.49,-1.52,-1.52
317.96,2.58,4.09,2.56,4.07,-4.07,-4.11,-3.91,-1.49,-1.51,-1.51
321.14,2.53,4.03,2.53,4.03,-4.03,-4.08,-3.84,-1.49,-1.50,-1.50
324.35,2.49,3.99,2.49,3.99,-3.99,-4.05,-3.77,-1.49,-1.49,-1.50
327.59,2.45,3.92,2.46,3.95,-3.95,-4.02,-3.71,-1.49,-1.49,-1.47
330.87,2.41,3.89,2.43,3.91,-3.91,-3.99,-3.65,-1.50,-1.48,-1.48
334.18,2.37,3.84,2.40,3.87,-3.87,-3.96,-3.59,-1.50,-1.47,-1.47
337.52,2.34,3.81,2.37,3.83,-3.83,-3.93,-3.53,-1.49,-1.46,-1.47
340.90,2.32,3.77,2.34,3.79,-3.79,-3.90,-3.47,-1.47,-1.45,-1.45
344.30,2.30,3.74,2.31,3.76,-3.76,-3.87,-3.42,-1.45,-1.45,-1.44
347.75,2.29,3.73,2.28,3.72,-3.72,-3.84,-3.37,-1.43,-1.44,-1.44
351.23,2.27,3.71,2.26,3.69,-3.69,-3.80,-3.32,-1.42,-1.43,-1.44
354.74,2.25,3.66,2.24,3.66,-3.66,-3.77,-3.28,-1.41,-1.42,-1.41
358.28,2.22,3.64,2.22,3.63,-3.63,-3.74,-3.23,-1.41,-1.42,-1.42
361.87,2.20,3.61,2.20,3.61,-3.61,-3.70,-3.19,-1.40,-1.41,-1.41
365.49,2.17,3.57,2.18,3.58,-3.58,-3.67,-3.16,-1.41,-1.40,-1.40
369.14,2.15,3.53,2.16,3.55,-3.55,-3.63,-3.12,-1.40,-1.39,-1.38
372.83,2.13,3.51,2.14,3.52,-3.52,-3.60,-3.09,-1.39,-1.38,-1.38
376.56,2.12,3.50,2.12,3.49,-3.49,-3.56,-3.06,-1.37,-1.37,-1.38
380.33,2.09,3.46,2.09,3.46,-3.46,-3.53,-3.03,-1.36,-1.37,-1.37
384.13,2.06,3.41,2.06,3.42,-3.42,-3.49,-3.00,-1.36,-1.36,-1.35
387.97,2.04,3.39,2.04,3.38,-3.38,-3.45,-2.98,-1.34,-1.35,-1.35
391.85,2.02,3.36,2.01,3.35,-3.35,-3.42,-2.96,-1.32,-1.34,-1.34
395.77,1.99,3.32,1.98,3.31,-3.31,-3.38,-2.94,-1.32,-1.33,-1.33
399.73,1.96,3.28,1.96,3.27,-3.27,-3.34,-2.92,-1.31,-1.32,-1.32
403.72,1.93,3.22,1.93,3.24,-3.24,-3.31,-2.90,-1.30,-1.31,-1.29
407.76,1.89,3.19,1.90,3.20,-3.20,-3.27,-2.89,-1.31,-1.30,-1.30
411.84,1.85,3.14,1.87,3.16,-3.16,-3.23,-2.88,-1.31,-1.29,-1.29
415.96,1.82,3.09,1.85,3.12,-3.12,-3.19,-2.86,-1.30,-1.28,-1.27
420.12,1.79,3.06,1.82,3.08,-3.08,-3.16,-2.85,-1.29,-1.27,-1.27
424.32,1.77,3.03,1.79,3.05,-3.05,-3.12,-2.84,-1.27,-1.26,-1.26
428.56,1.76,3.00,1.75,3.00,-3.00,-3.08,-2.83,-1.24,-1.25,-1.24
432.85,1.74,2.97,1.72,2.96,-2.96,-3.04,-2.82,-1.22,-1.24,-1.23
437.18,1.71,2.95,1.69,2.92,-2.92,-3.01,-2.82,-1.21,-1.23,-1.24
441.55,1.67,2.90,1.65,2.87,-2.87,-2.97,-2.81,-1.20,-1.22,-1.23
445.96,1.63,2.85,1.62,2.83,-2.83,-2.93,-2.80,-1.20,-1.22,-1.22
450.42,1.59,2.80,1.58,2.79,-2.79,-2.89,-2.79,-1.19,-1.21,-1.21
454.93,1.54,2.74,1.55,2.74,-2.74,-2.86,-2.78,-1.20,-1.20,-1.20
459.48,1.50,2.69,1.51,2.70,-2.70,-2.82,-2.77,-1.20,-1.19,-1.19
464.07,1.46,2.63,1.48,2.66,-2.66,-2.78,-2.76,-1.19,-1.18,-1.17
468.71,1.42,2.58,1.44,2.61,-2.61,-2.75,-2.74,-1.19,-1.17,-1.16
473.40,1.39,2.55,1.41,2.57,-2.57,-2.71,-2.73,-1.18,-1.16,-1.16
478.13,1.36,2.51,1.38,2.53,-2.53,-2.67,-2.71,-1.17,-1.15,-1.15
482.91,1.34,2.48,1.35,2.49,-2.49,-2.64,-2.69,-1.15,-1.14,-1.14
487.74,1.32,2.45,1.33,2.46,-2.46,-2.60,-2.67,-1.13,-1.13,-1.13
492.62,1.30,2.42,1.31,2.42,-2.42,-2.56,-2.65,-1.12,-1.12,-1.12
497.55,1.28,2.39,1.29,2.39,-2.39,-2.53,-2.63,-1.11,-1.11,-1.11
502.52,1.27,2.37,1.27,2.37,-2.37,-2.49,-2.60,-1.09,-1.09,-1.10
507.55,1.26,2.34,1.26,2.34,-2.34,-2.45,-2.57,-1.07,-1.08,-1.08
512.62,1.24,2.31,1.24,2.31,-2.31,-2.42,-2.54,-1.07,-1.07,-1.07
517.75,1.22,2.27,1.22,2.28,-2.28,-2.38,-2.51,-1.06,-1.06,-1.05
522.93,1.21,2.25,1.20,2.25,-2.25,-2.35,-2.48,-1.04,-1.05,-1.04
