frequency,raw,error,smoothed,error_smoothed,equalization,parametric_eq,fixed_band_eq,equalized_raw,equalized_smoothed,target
20.00,-18.35,-19.69,-18.36,-19.72,19.72,18.95,6.99,1.37,1.36,1.34
20.20,-18.20,-19.58,-18.20,-19.60,19.60,18.97,7.15,1.39,1.39,1.38
20.40,-18.04,-19.46,-18.05,-19.47,19.47,18.97,7.31,1.43,1.42,1.42
20.61,-17.90,-19.35,-17.89,-19.34,19.34,18.96,7.47,1.45,1.45,1.45
20.81,-17.73,-19.22,-17.73,-19.21,19.21,18.94,7.63,1.48,1.48,1.49
21.02,-17.57,-19.10,-17.58,-19.08,19.08,18.90,7.80,1.51,1.50,1.53
21.23,-17.42,-18.97,-17.42,-18.95,18.95,18.85,7.98,1.52,1.53,1.55
21.44,-17.26,-18.83,-17.26,-18.81,18.81,18.79,8.16,1.55,1.55,1.57
21.66,-17.11,-18.69,-17.10,-18.67,18.67,18.72,8.34,1.57,1.57,1.59
21.87,-16.94,-18.54,-16.94,-18.53,18.53,18.63,8.53,1.59,1.59,1.60
22.09,-16.78,-18.40,-16.78,-18.39,18.39,18.53,8.72,1.61,1.61,1.61
22.31,-16.62,-18.25,-16.62,-18.25,18.25,18.43,8.92,1.62,1.62,1.62
22.54,-16.47,-18.10,-16.46,-18.10,18.10,18.31,9.12,1.63,1.63,1.63
22.76,-16.30,-17.95,-16.30,-17.95,17.95,18.19,9.33,1.64,1.64,1.64
22.99,-16.14,-17.79,-16.14,-17.79,17.79,18.05,9.55,1.65,1.65,1.64
23.22,-15.97,-17.63,-15.98,-17.64,17.64,17.91,9.77,1.66,1.66,1.65
23.45,-15.81,-17.47,-15.82,-17.48,17.48,17.76,10.00,1.67,1.67,1.66
23.69,-15.66,-17.33,-15.65,-17.33,17.33,17.61,10.23,1.67,1.68,1.67
23.92,-15.48,-17.16,-15.49,-17.18,17.18,17.45,10.47,1.69,1.69,1.68
24.16,-15.32,-17.02,-15.33,-17.02,17.02,17.29,10.71,1.70,1.70,1.70
24.40,-15.16,-16.88,-15.16,-16.87,16.87,17.12,10.96,1.70,1.70,1.72
24.65,-15.00,-16.71,-15.00,-16.71,16.71,16.95,11.22,1.72,1.71,1.72
24.89,-14.83,-16.56,-14.83,-16.56,16.56,16.78,11.48,1.73,1.72,1.73
25.14,-14.67,-16.41,-14.67,-16.40,16.40,16.61,11.75,1.73,1.73,1.73
25.39,-14.50,-16.25,-14.50,-16.25,16.25,16.43,12.03,1.75,1.75,1.74
25.65,-14.35,-16.11,-14.34,-16.09,16.09,16.25,12.31,1.75,1.76,1.76
25.91,-14.18,-15.94,-14.17,-15.94,15.94,16.07,12.60,1.76,1.77,1.76
26.16,-14.00,-15.77,-14.01,-15.78,15.78,15.89,12.90,1.78,1.78,1.77
26.43,-13.85,-15.63,-13.84,-15.63,15.63,15.71,13.20,1.78,1.78,1.78
26.69,-13.67,-15.46,-13.68,-15.47,15.47,15.53,13.50,1.80,1.79,1.79
26.96,-13.52,-15.32,-13.51,-15.31,15.31,15.35,13.81,1.80,1.80,1.81
27.23,-13.35,-15.16,-13.35,-15.16,15.16,15.17,14.12,1.81,1.81,1.81
27.50,-13.19,-15.01,-13.18,-15.00,15.00,14.99,14.44,1.82,1.82,1.82
27.77,-13.01,-14.83,-13.02,-14.85,14.85,14.81,14.75,1.83,1.83,1.82
28.05,-12.85,-14.69,-12.86,-14.69,14.69,14.63,15.06,1.84,1.83,1.84
28.33,-12.69,-14.53,-12.69,-14.53,14.53,14.46,15.36,1.84,1.84,1.84
28.62,-12.54,-14.38,-12.53,-14.38,14.38,14.28,15.65,1.84,1.85,1.85
28.90,-12.37,-14.23,-12.37,-14.22,14.22,14.11,15.93,1.85,1.86,1.86
29.19,-12.20,-14.06,-12.21,-14.07,14.07,13.93,16.20,1.87,1.86,1.85
29.48,-12.04,-13.92,-12.04,-13.92,13.92,13.76,16.44,1.87,1.87,1.88
29.78,-11.88,-13.76,-11.88,-13.76,13.76,13.59,16.65,1.89,1.88,1.88
30.08,-11.72,-13.60,-11.73,-13.61,13.61,13.42,16.83,1.89,1.88,1.89
30.38,-11.57,-13.45,-11.57,-13.46,13.46,13.25,16.98,1.89,1.89,1.89
30.68,-11.40,-13.31,-11.41,-13.30,13.30,13.08,17.08,1.90,1.90,1.90
30.99,-11.26,-13.16,-11.25,-13.16,13.16,12.91,17.14,1.90,1.90,1.90
31.30,-11.10,-13.00,-11.10,-13.01,13.01,12.75,17.15,1.91,1.91,1.91
31.61,-10.94,-12.86,-10.94,-12.86,12.86,12.59,17.11,1.92,1.92,1.92
31.93,-10.80,-12.72,-10.79,-12.71,12.71,12.42,17.03,1.92,1.92,1.92
32.24,-10.63,-12.55,-10.64,-12.57,12.57,12.26,16.90,1.93,1.93,1.92
32.57,-10.49,-12.42,-10.48,-12.42,12.42,12.10,16.73,1.94,1.94,1.94
32.89,-10.32,-12.27,-10.33,-12.28,12.28,11.95,16.53,1.95,1.94,1.95
33.22,-10.17,-12.13,-10.18,-12.14,12.14,11.79,16.30,1.96,1.95,1.95
33.55,-10.03,-11.99,-10.04,-11.99,11.99,11.63,16.04,1.96,1.96,1.96
33.89,-9.89,-11.86,-9.89,-11.85,11.85,11.48,15.76,1.95,1.96,1.97
34.23,-9.75,-11.72,-9.74,-11.71,11.71,11.33,15.47,1.96,1.97,1.97
34.57,-9.58,-11.56,-9.59,-11.56,11.56,11.18,15.17,1.98,1.97,1.98
34.92,-9.44,-11.41,-9.44,-11.42,11.42,11.03,14.85,1.98,1.98,1.98
35.27,-9.29,-11.27,-9.29,-11.27,11.27,10.88,14.54,1.99,1.98,1.98
35.62,-9.15,-11.13,-9.14,-11.13,11.13,10.73,14.22,1.98,1.99,1.99
35.97,-9.00,-10.99,-8.99,-10.98,10.98,10.59,13.90,1.98,1.99,1.98
36.33,-8.85,-10.84,-8.85,-10.83,10.83,10.44,13.58,1.98,1.99,1.99
36.70,-8.71,-10.69,-8.70,-10.69,10.69,10.30,13.27,1.98,1.99,1.98
37.06,-8.54,-10.53,-8.55,-10.54,10.54,10.16,12.96,1.99,1.99,1.99
37.43,-8.39,-10.39,-8.40,-10.38,10.38,10.01,12.65,1.99,1.99,2.00
37.81,-8.24,-10.24,-8.25,-10.23,10.23,9.87,12.35,1.99,1.98,1.99
38.19,-8.10,-10.08,-8.10,-10.08,10.08,9.74,12.06,1.98,1.98,1.99
38.57,-7.94,-9.92,-7.94,-9.92,9.92,9.60,11.77,1.98,1.98,1.98
38.95,-7.79,-9.77,-7.79,-9.77,9.77,9.46,11.49,1.98,1.98,1.97
39.34,-7.64,-9.61,-7.64,-9.61,9.61,9.33,11.21,1.97,1.97,1.97
39.74,-7.50,-9.46,-7.49,-9.46,9.46,9.19,10.94,1.96,1.97,1.96
40.14,-7.35,-9.31,-7.34,-9.30,9.30,9.06,10.68,1.96,1.97,1.97
40.54,-7.19,-9.15,-7.19,-9.15,9.15,8.92,10.42,1.96,1.96,1.96
40.94,-7.03,-8.99,-7.04,-9.00,9.00,8.79,10.17,1.96,1.96,1.95
41.35,-6.88,-8.83,-6.89,-8.84,8.84,8.66,9.93,1.96,1.95,1.95
41.76,-6.73,-8.68,-6.74,-8.69,8.69,8.53,9.69,1.96,1.95,1.95
42.18,-6.59,-8.54,-6.59,-8.54,8.54,8.40,9.46,1.94,1.94,1.95
42.60,-6.44,-8.39,-6.45,-8.39,8.39,8.27,9.23,1.94,1.94,1.94
43.03,-6.30,-8.25,-6.30,-8.24,8.24,8.15,9.01,1.93,1.93,1.95
43.46,-6.16,-8.10,-6.16,-8.09,8.09,8.02,8.80,1.92,1.93,1.94
43.90,-6.02,-7.93,-6.02,-7.94,7.94,7.89,8.59,1.93,1.93,1.92
44.33,-5.87,-7.79,-5.87,-7.80,7.80,7.77,8.38,1.92,1.92,1.92
44.78,-5.74,-7.65,-5.74,-7.65,7.65,7.64,8.18,1.92,1.92,1.91
45.23,-5.60,-7.50,-5.60,-7.51,7.51,7.52,7.99,1.92,1.91,1.90
45.68,-5.47,-7.37,-5.46,-7.37,7.37,7.40,7.80,1.90,1.91,1.90
46.13,-5.32,-7.21,-5.33,-7.23,7.23,7.28,7.61,1.91,1.90,1.89
46.60,-5.20,-7.09,-5.20,-7.09,7.09,7.15,7.43,1.89,1.89,1.90
47.06,-5.06,-6.95,-5.07,-6.95,6.95,7.03,7.25,1.89,1.88,1.89
47.53,-4.94,-6.82,-4.94,-6.81,6.81,6.91,7.07,1.87,1.87,1.88
48.01,-4.82,-6.70,-4.81,-6.68,6.68,6.79,6.90,1.86,1.86,1.88
48.49,-4.69,-6.55,-4.69,-6.54,6.54,6.68,6.74,1.86,1.85,1.86
48.97,-4.56,-6.40,-4.57,-6.41,6.41,6.56,6.57,1.84,1.84,1.84
49.46,-4.44,-6.27,-4.45,-6.27,6.27,6.44,6.41,1.83,1.83,1.82
49.96,-4.33,-6.13,-4.33,-6.14,6.14,6.32,6.26,1.81,1.81,1.80
50.46,-4.21,-6.00,-4.21,-6.01,6.01,6.21,6.10,1.80,1.80,1.80
50.96,-4.09,-5.88,-4.09,-5.87,5.87,6.09,5.95,1.78,1.78,1.78
51.47,-3.98,-5.73,-3.98,-5.74,5.74,5.97,5.81,1.75,1.76,1.75
51.99,-3.87,-5.60,-3.87,-5.60,5.60,5.86,5.66,1.74,1.74,1.73
52.51,-3.76,-5.48,-3.75,-5.47,5.47,5.74,5.52,1.71,1.72,1.72
53.03,-3.63,-5.33,-3.64,-5.33,5.33,5.63,5.38,1.70,1.70,1.70
53.56,-3.53,-5.21,-3.53,-5.20,5.20,5.52,5.24,1.67,1.67,1.68
54.10,-3.43,-5.08,-3.42,-5.07,5.07,5.40,5.11,1.64,1.65,1.65
54.64,-3.32,-4.95,-3.30,-4.93,4.93,5.29,4.98,1.62,1.63,1.63
55.18,-3.19,-4.80,-3.19,-4.80,4.80,5.18,4.85,1.61,1.61,1.60
55.74,-3.09,-4.66,-3.08,-4.67,4.67,5.07,4.72,1.58,1.58,1.57
56.29,-2.97,-4.54,-2.97,-4.53,4.53,4.95,4.59,1.56,1.56,1.56
56.86,-2.87,-4.40,-2.86,-4.40,4.40,4.84,4.47,1.53,1.53,1.53
57.42,-2.75,-4.25,-2.76,-4.26,4.26,4.73,4.35,1.51,1.51,1.50
58.00,-2.64,-4.12,-2.65,-4.13,4.13,4.62,4.23,1.48,1.48,1.47
58.58,-2.54,-4.00,-2.54,-3.99,3.99,4.51,4.11,1.45,1.45,1.45
59.16,-2.44,-3.87,-2.44,-3.86,3.86,4.40,3.99,1.42,1.42,1.43
59.76,-2.35,-3.75,-2.34,-3.72,3.72,4.29,3.88,1.38,1.39,1.40
60.35,-2.24,-3.61,-2.24,-3.59,3.59,4.18,3.76,1.35,1.35,1.37
60.96,-2.14,-3.47,-2.15,-3.46,3.46,4.08,3.65,1.32,1.32,1.33
61.57,-2.06,-3.34,-2.06,-3.34,3.34,3.97,3.54,1.28,1.28,1.28
62.18,-1.96,-3.20,-1.97,-3.21,3.21,3.86,3.43,1.25,1.24,1.23
62.80,-1.88,-3.09,-1.88,-3.09,3.09,3.75,3.32,1.20,1.20,1.20
63.43,-1.80,-2.96,-1.81,-2.97,2.97,3.64,3.21,1.16,1.16,1.15
64.07,-1.72,-2.84,-1.73,-2.85,2.85,3.54,3.10,1.13,1.12,1.11
64.71,-1.66,-2.74,-1.67,-2.74,2.74,3.43,2.99,1.08,1.08,1.07
65.35,-1.60,-2.63,-1.60,-2.64,2.64,3.32,2.89,1.03,1.03,1.03
66.01,-1.54,-2.53,-1.55,-2.54,2.54,3.21,2.78,0.99,0.99,0.98
66.67,-1.49,-2.44,-1.50,-2.44,2.44,3.11,2.68,0.95,0.94,0.95
67.33,-1.44,-2.35,-1.46,-2.36,2.36,3.00,2.57,0.91,0.90,0.90
68.01,-1.41,-2.27,-1.42,-2.28,2.28,2.89,2.47,0.86,0.85,0.86
68.69,-1.38,-2.20,-1.39,-2.20,2.20,2.79,2.37,0.82,0.81,0.81
69.37,-1.35,-2.12,-1.37,-2.13,2.13,2.68,2.27,0.78,0.76,0.76
70.07,-1.34,-2.06,-1.35,-2.07,2.07,2.58,2.16,0.72,0.72,0.71
70.77,-1.33,-2.01,-1.33,-2.01,2.01,2.47,2.06,0.67,0.67,0.67
71.48,-1.32,-1.96,-1.32,-1.95,1.95,2.37,1.96,0.63,0.63,0.63
72.19,-1.31,-1.89,-1.31,-1.90,1.90,2.26,1.86,0.58,0.58,0.58
72.91,-1.30,-1.84,-1.31,-1.85,1.85,2.15,1.76,0.54,0.54,0.54
73.64,-1.30,-1.80,-1.30,-1.80,1.80,2.05,1.66,0.49,0.50,0.49
74.38,-1.29,-1.75,-1.29,-1.75,1.75,1.94,1.56,0.45,0.45,0.46
75.12,-1.28,-1.70,-1.29,-1.70,1.70,1.84,1.46,0.42,0.41,0.41
75.87,-1.27,-1.65,-1.28,-1.65,1.65,1.74,1.35,0.38,0.37,0.37
76.63,-1.26,-1.60,-1.26,-1.60,1.60,1.63,1.25,0.33,0.34,0.34
77.40,-1.25,-1.55,-1.25,-1.54,1.54,1.53,1.15,0.29,0.30,0.30
78.17,-1.23,-1.49,-1.22,-1.49,1.49,1.42,1.05,0.25,0.26,0.26
78.95,-1.20,-1.43,-1.20,-1.42,1.42,1.32,0.95,0.22,0.23,0.23
79.74,-1.17,-1.37,-1.16,-1.36,1.36,1.21,0.85,0.18,0.19,0.19
80.54,-1.14,-1.31,-1.13,-1.28,1.28,1.11,0.75,0.14,0.16,0.16
81.35,-1.10,-1.23,-1.08,-1.21,1.21,1.00,0.64,0.11,0.13,0.13
82.16,-1.05,-1.15,-1.04,-1.13,1.13,0.90,0.54,0.08,0.09,0.09
82.98,-0.99,-1.06,-0.98,-1.05,1.05,0.80,0.44,0.05,0.06,0.07
83.81,-0.92,-0.95,-0.93,-0.96,0.96,0.69,0.33,0.04,0.03,0.03
84.65,-0.86,-0.86,-0.87,-0.87,0.87,0.59,0.23,0.01,0.00,-0.01
85.50,-0.80,-0.78,-0.81,-0.78,0.78,0.48,0.12,-0.02,-0.03,-0.02
86.35,-0.74,-0.69,-0.75,-0.69,0.69,0.38,0.01,-0.05,-0.05,-0.05
87.22,-0.67,-0.59,-0.69,-0.60,0.60,0.28,-0.09,-0.07,-0.08,-0.08
88.09,-0.61,-0.50,-0.62,-0.52,0.52,0.17,-0.20,-0.10,-0.11,-0.11
88.97,-0.55,-0.42,-0.56,-0.43,0.43,0.07,-0.31,-0.13,-0.14,-0.14
89.86,-0.49,-0.34,-0.50,-0.34,0.34,-0.04,-0.42,-0.16,-0.16,-0.16
90.76,-0.43,-0.24,-0.45,-0.25,0.25,-0.14,-0.53,-0.18,-0.19,-0.20
91.66,-0.38,-0.16,-0.39,-0.17,0.17,-0.24,-0.64,-0.21,-0.22,-0.22
92.58,-0.33,-0.08,-0.34,-0.09,0.09,-0.35,-0.76,-0.25,-0.25,-0.26
93.51,-0.28,-0.01,-0.28,-0.00,0.00,-0.45,-0.87,-0.28,-0.28,-0.27
94.44,-0.23,0.07,-0.23,0.08,-0.08,-0.55,-0.98,-0.31,-0.31,-0.31
95.39,-0.18,0.15,-0.18,0.16,-0.16,-0.66,-1.10,-0.34,-0.34,-0.33
96.34,-0.13,0.24,-0.13,0.24,-0.24,-0.76,-1.21,-0.38,-0.38,-0.38
97.30,-0.08,0.33,-0.09,0.32,-0.32,-0.86,-1.33,-0.41,-0.41,-0.41
98.28,-0.03,0.41,-0.04,0.40,-0.40,-0.97,-1.45,-0.44,-0.44,-0.45
99.26,0.02,0.50,0.01,0.49,-0.49,-1.07,-1.56,-0.48,-0.48,-0.49
100.25,0.07,0.59,0.06,0.58,-0.58,-1.17,-1.68,-0.51,-0.52,-0.52
101.25,0.13,0.69,0.11,0.67,-0.67,-1.28,-1.80,-0.55,-0.56,-0.56
102.27,0.18,0.78,0.17,0.77,-0.77,-1.38,-1.91,-0.60,-0.61,-0.61
103.29,0.22,0.87,0.23,0.88,-0.88,-1.48,-2.03,-0.66,-0.65,-0.66
104.32,0.27,0.96,0.29,0.99,-0.99,-1.58,-2.15,-0.73,-0.70,-0.69
105.37,0.34,1.08,0.36,1.11,-1.11,-1.69,-2.26,-0.78,-0.75,-0.74
106.42,0.41,1.20,0.43,1.23,-1.23,-1.79,-2.38,-0.83,-0.80,-0.80
107.48,0.49,1.33,0.51,1.36,-1.36,-1.89,-2.49,-0.88,-0.86,-0.85
108.56,0.57,1.48,0.58,1.50,-1.50,-1.99,-2.61,-0.93,-0.91,-0.91
109.64,0.67,1.64,0.66,1.64,-1.64,-2.10,-2.72,-0.97,-0.97,-0.97
110.74,0.76,1.78,0.75,1.79,-1.79,-2.20,-2.82,-1.03,-1.04,-1.03
111.85,0.86,1.95,0.83,1.93,-1.93,-2.30,-2.93,-1.08,-1.10,-1.10
112.97,0.94,2.11,0.91,2.08,-2.08,-2.40,-3.03,-1.15,-1.17,-1.17
114.10,1.03,2.26,1.00,2.24,-2.24,-2.50,-3.13,-1.21,-1.24,-1.23
115.24,1.11,2.41,1.09,2.39,-2.39,-2.60,-3.23,-1.29,-1.30,-1.31
116.39,1.16,2.54,1.17,2.55,-2.55,-2.70,-3.32,-1.39,-1.37,-1.38
117.55,1.23,2.67,1.25,2.70,-2.70,-2.80,-3.40,-1.47,-1.44,-1.45
118.73,1.34,2.86,1.34,2.84,-2.84,-2.90,-3.49,-1.51,-1.51,-1.52
119.92,1.43,3.00,1.42,2.99,-2.99,-3.00,-3.56,-1.57,-1.58,-1.58
121.12,1.51,3.16,1.49,3.14,-3.14,-3.10,-3.64,-1.63,-1.64,-1.65
122.33,1.56,3.27,1.57,3.28,-3.28,-3.20,-3.70,-1.72,-1.71,-1.71
123.55,1.62,3.38,1.64,3.42,-3.42,-3.30,-3.77,-1.80,-1.77,-1.77
124.79,1.71,3.53,1.72,3.55,-3.55,-3.39,-3.82,-1.85,-1.83,-1.83
126.03,1.81,3.70,1.79,3.68,-3.68,-3.49,-3.87,-1.88,-1.89,-1.89
127.29,1.86,3.81,1.85,3.81,-3.81,-3.59,-3.92,-1.95,-1.95,-1.95
128.57,1.91,3.93,1.92,3.93,-3.93,-3.68,-3.96,-2.02,-2.01,-2.02
129.85,1.99,4.06,1.98,4.04,-4.04,-3.78,-3.99,-2.06,-2.07,-2.07
131.15,2.06,4.18,2.03,4.15,-4.15,-3.87,-4.02,-2.09,-2.12,-2.13
132.46,2.10,4.27,2.07,4.25,-4.25,-3.96,-4.05,-2.15,-2.17,-2.18
133.79,2.14,4.36,2.11,4.34,-4.34,-4.05,-4.07,-2.21,-2.23,-2.22
135.12,2.18,4.45,2.15,4.43,-4.43,-4.15,-4.09,-2.25,-2.28,-2.28
136.48,2.20,4.52,2.18,4.51,-4.51,-4.24,-4.10,-2.31,-2.33,-2.32
137.84,2.22,4.59,2.21,4.59,-4.59,-4.32,-4.12,-2.37,-2.38,-2.38
139.22,2.23,4.66,2.24,4.66,-4.66,-4.41,-4.13,-2.43,-2.42,-2.43
140.61,2.24,4.72,2.26,4.72,-4.72,-4.50,-4.13,-2.49,-2.47,-2.48
142.02,2.28,4.79,2.28,4.79,-4.79,-4.59,-4.14,-2.52,-2.51,-2.51
143.44,2.29,4.84,2.30,4.86,-4.86,-4.67,-4.14,-2.57,-2.56,-2.55
144.87,2.32,4.92,2.32,4.93,-4.93,-4.75,-4.14,-2.61,-2.61,-2.60
146.32,2.33,4.98,2.34,5.00,-5.00,-4.84,-4.15,-2.67,-2.65,-2.65
147.78,2.36,5.04,2.37,5.07,-5.07,-4.92,-4.15,-2.71,-2.70,-2.69
149.26,2.38,5.11,2.40,5.14,-5.14,-4.99,-4.15,-2.77,-2.75,-2.74
150.75,2.42,5.22,2.43,5.22,-5.22,-5.07,-4.15,-2.81,-2.80,-2.80
152.26,2.45,5.29,2.46,5.30,-5.30,-5.15,-4.16,-2.86,-2.84,-2.84
153.78,2.48,5.36,2.49,5.38,-5.38,-5.22,-4.16,-2.91,-2.89,-2.89
155.32,2.52,5.47,2.52,5.46,-5.46,-5.29,-4.17,-2.95,-2.94,-2.95
156.88,2.55,5.54,2.55,5.54,-5.54,-5.36,-4.18,-2.99,-2.99,-2.99
158.44,2.57,5.61,2.57,5.61,-5.61,-5.43,-4.19,-3.05,-3.05,-3.04
160.03,2.61,5.71,2.58,5.68,-5.68,-5.50,-4.20,-3.08,-3.10,-3.10
161.63,2.63,5.79,2.60,5.75,-5.75,-5.56,-4.22,-3.12,-3.15,-3.16
163.24,2.64,5.84,2.60,5.81,-5.81,-5.63,-4.24,-3.17,-3.20,-3.21
164.88,2.64,5.89,2.60,5.86,-5.86,-5.69,-4.26,-3.22,-3.26,-3.26
166.53,2.62,5.93,2.60,5.91,-5.91,-5.74,-4.29,-3.29,-3.31,-3.31
168.19,2.60,5.96,2.59,5.95,-5.95,-5.80,-4.32,-3.36,-3.37,-3.37
169.87,2.57,5.98,2.57,5.99,-5.99,-5.85,-4.35,-3.43,-3.42,-3.42
171.57,2.55,6.02,2.55,6.03,-6.03,-5.91,-4.38,-3.48,-3.48,-3.47
173.29,2.52,6.05,2.52,6.06,-6.06,-5.95,-4.42,-3.54,-3.54,-3.53
175.02,2.47,6.05,2.49,6.09,-6.09,-6.00,-4.46,-3.62,-3.60,-3.59
176.77,2.44,6.09,2.46,6.11,-6.11,-6.04,-4.51,-3.68,-3.66,-3.66
178.54,2.42,6.13,2.42,6.14,-6.14,-6.09,-4.56,-3.72,-3.71,-3.72
180.32,2.41,6.18,2.39,6.16,-6.16,-6.12,-4.61,-3.76,-3.77,-3.77
182.13,2.38,6.21,2.36,6.19,-6.19,-6.16,-4.67,-3.82,-3.84,-3.83
183.95,2.33,6.22,2.33,6.22,-6.22,-6.19,-4.73,-3.90,-3.90,-3.90
185.79,2.29,6.24,2.30,6.26,-6.26,-6.23,-4.79,-3.97,-3.96,-3.95
187.65,2.26,6.29,2.27,6.29,-6.29,-6.25,-4.86,-4.03,-4.02,-4.03
189.52,2.22,6.30,2.24,6.32,-6.32,-6.28,-4.93,-4.10,-4.08,-4.08
191.42,2.19,6.32,2.21,6.34,-6.34,-6.30,-5.00,-4.16,-4.14,-4.14
193.33,2.17,6.36,2.18,6.37,-6.37,-6.32,-5.08,-4.21,-4.19,-4.19
195.27,2.15,6.39,2.14,6.40,-6.40,-6.34,-5.16,-4.25,-4.25,-4.24
197.22,2.13,6.43,2.11,6.41,-6.41,-6.36,-5.24,-4.29,-4.31,-4.31
199.19,2.10,6.46,2.07,6.43,-6.43,-6.37,-5.33,-4.33,-4.36,-4.37
201.18,2.06,6.47,2.03,6.45,-6.45,-6.38,-5.41,-4.39,-4.41,-4.42
203.19,2.01,6.46,2.00,6.46,-6.46,-6.39,-5.50,-4.46,-4.46,-4.46
205.23,1.97,6.48,1.96,6.47,-6.47,-6.39,-5.59,-4.51,-4.51,-4.52
207.28,1.92,6.46,1.92,6.48,-6.48,-6.39,-5.68,-4.57,-4.56,-4.54
209.35,1.88,6.48,1.88,6.48,-6.48,-6.39,-5.78,-4.61,-4.61,-4.60
211.44,1.82,6.47,1.83,6.48,-6.48,-6.39,-5.87,-4.67,-4.65,-4.66
213.56,1.77,6.46,1.78,6.47,-6.47,-6.39,-5.96,-4.71,-4.69,-4.70
215.69,1.72,6.44,1.73,6.46,-6.46,-6.38,-6.05,-4.74,-4.73,-4.72
217.85,1.68,6.44,1.67,6.44,-6.44,-6.37,-6.14,-4.77,-4.77,-4.77
220.03,1.65,6.46,1.61,6.42,-6.42,-6.36,-6.23,-4.77,-4.81,-4.81
222.23,1.60,6.44,1.56,6.40,-6.40,-6.35,-6.32,-4.80,-4.84,-4.85
224.45,1.53,6.40,1.50,6.37,-6.37,-6.33,-6.40,-4.84,-4.87,-4.87
226.70,1.45,6.34,1.45,6.34,-6.34,-6.32,-6.48,-4.90,-4.90,-4.89
228.96,1.37,6.29,1.39,6.31,-6.31,-6.30,-6.55,-4.95,-4.92,-4.93
231.25,1.32,6.26,1.34,6.28,-6.28,-6.28,-6.62,-4.97,-4.95,-4.94
233.57,1.27,6.23,1.28,6.25,-6.25,-6.25,-6.68,-4.98,-4.96,-4.96
235.90,1.21,6.19,1.23,6.21,-6.21,-6.23,-6.74,-5.00,-4.98,-4.98
238.26,1.18,6.17,1.18,6.17,-6.17,-6.20,-6.79,-4.99,-4.99,-5.00
240.64,1.13,6.13,1.13,6.13,-6.13,-6.18,-6.83,-5.01,-5.00,-5.01
243.05,1.09,6.09,1.08,6.09,-6.09,-6.15,-6.86,-5.01,-5.01,-5.01
245.48,1.05,6.06,1.04,6.05,-6.05,-6.12,-6.88,-5.01,-5.01,-5.02
247.93,1.00,6.01,1.00,6.02,-6.02,-6.09,-6.90,-5.02,-5.02,-5.02
250.41,0.98,6.00,0.97,5.98,-5.98,-6.06,-6.90,-5.01,-5.02,-5.03
252.92,0.93,5.94,0.93,5.95,-5.95,-6.02,-6.90,-5.02,-5.02,-5.02
255.45,0.90,5.90,0.90,5.91,-5.91,-5.99,-6.89,-5.02,-5.01,-5.00
258.00,0.86,5.86,0.87,5.87,-5.87,-5.95,-6.86,-5.02,-5.01,-5.00
260.58,0.83,5.83,0.83,5.83,-5.83,-5.92,-6.83,-5.01,-5.00,-5.00
263.19,0.81,5.79,0.80,5.79,-5.79,-5.88,-6.80,-4.98,-4.99,-4.99
265.82,0.79,5.77,0.77,5.75,-5.75,-5.84,-6.75,-4.96,-4.98,-4.99
268.48,0.77,5.73,0.73,5.70,-5.70,-5.80,-6.70,-4.94,-4.97,-4.96
271.16,0.73,5.68,0.70,5.66,-5.66,-5.77,-6.63,-4.93,-4.96,-4.95
273.87,0.67,5.61,0.67,5.62,-5.62,-5.73,-6.57,-4.95,-4.94,-4.95
276.61,0.64,5.56,0.64,5.57,-5.57,-5.69,-6.50,-4.94,-4.93,-4.92
279.38,0.60,5.52,0.61,5.53,-5.53,-5.65,-6.42,-4.93,-4.92,-4.92
282.17,0.56,5.46,0.57,5.48,-5.48,-5.61,-6.34,-4.93,-4.91,-4.91
284.99,0.52,5.41,0.54,5.43,-5.43,-5.57,-6.26,-4.92,-4.90,-4.89
287.84,0.50,5.38,0.50,5.38,-5.38,-5.52,-6.17,-4.89,-4.88,-4.89
290.72,0.48,5.35,0.46,5.33,-5.33,-5.48,-6.08,-4.86,-4.87,-4.87
293.63,0.45,5.30,0.43,5.28,-5.28,-5.44,-6.00,-4.84,-4.86,-4.86
296.57,0.42,5.26,0.39,5.24,-5.24,-5.40,-5.91,-4.82,-4.85,-4.84
299.53,0.38,5.21,0.36,5.19,-5.19,-5.36,-5.82,-4.82,-4.83,-4.84
302.53,0.33,5.16,0.32,5.15,-5.15,-5.32,-5.73,-4.82,-4.82,-4.83
305.55,0.28,5.08,0.29,5.10,-5.10,-5.28,-5.64,-4.83,-4.81,-4.81
308.61,0.24,5.04,0.26,5.06,-5.06,-5.24,-5.55,-4.83,-4.80,-4.80
311.69,0.19,4.98,0.22,5.02,-5.02,-5.20,-5.47,-4.83,-4.79,-4.80
314.81,0.18,4.95,0.19,4.97,-4.97,-5.16,-5.38,-4.79,-4.78,-4.77
317.96,0.16,4.93,0.15,4.93,-4.93,-5.12,-5.30,-4.77,-4.78,-4.77
321.14,0.14,4.90,0.11,4.88,-4.88,-5.08,-5.22,-4.74,-4.77,-4.77
324.35,0.10,4.87,0.07,4.84,-4.84,-5.04,-5.15,-4.74,-4.76,-4.77
327.59,0.06,4.81,0.04,4.80,-4.80,-5.00,-5.07,-4.74,-4.76,-4.75
330.87,0.02,4.77,0.00,4.76,-4.76,-4.96,-5.00,-4.74,-4.76,-4.76
334.18,-0.03,4.73,-0.03,4.72,-4.72,-4.92,-4.93,-4.75,-4.75,-4.76
337.52,-0.07,4.68,-0.07,4.68,-4.68,-4.88,-4.87,-4.76,-4.75,-4.75
340.90,-0.11,4.63,-0.10,4.65,-4.65,-4.85,-4.81,-4.77,-4.75,-4.75
344.30,-0.15,4.60,-0.13,4.62,-4.62,-4.81,-4.75,-4.78,-4.75,-4.75
347.75,-0.17,4.58,-0.16,4.59,-4.59,-4.78,-4.70,-4.77,-4.75,-4.75
351.23,-0.19,4.56,-0.20,4.56,-4.56,-4.74,-4.64,-4.76,-4.76,-4.75
354.74,-0.22,4.53,-0.22,4.54,-4.54,-4.71,-4.60,-4.76,-4.76,-4.76
358.28,-0.25,4.52,-0.25,4.52,-4.52,-4.67,-4.55,-4.77,-4.77,-4.77
361.87,-0.27,4.50,-0.27,4.50,-4.50,-4.64,-4.51,-4.77,-4.77,-4.77
365.49,-0.30,4.47,-0.29,4.49,-4.49,-4.61,-4.48,-4.79,-4.78,-4.77
369.14,-0.31,4.47,-0.31,4.47,-4.47,-4.58,-4.44,-4.79,-4.78,-4.79
372.83,-0.32,4.46,-0.33,4.46,-4.46,-4.55,-4.41,-4.78,-4.79,-4.79
376.56,-0.35,4.45,-0.35,4.45,-4.45,-4.52,-4.39,-4.80,-4.80,-4.80
380.33,-0.37,4.43,-0.37,4.43,-4.43,-4.49,-4.36,-4.81,-4.81,-4.80
384.13,-0.38,4.43,-0.40,4.42,-4.42,-4.46,-4.34,-4.80,-4.81,-4.81
387.97,-0.39,4.43,-0.42,4.40,-4.40,-4.44,-4.32,-4.79,-4.82,-4.83
391.85,-0.42,4.41,-0.45,4.38,-4.38,-4.41,-4.31,-4.80,-4.83,-4.84
395.77,-0.46,4.36,-0.48,4.36,-4.36,-4.39,-4.30,-4.82,-4.84,-4.83
399.73,-0.49,4.35,-0.50,4.34,-4.34,-4.36,-4.29,-4.83,-4.84,-4.84
403.72,-0.52,4.33,-0.53,4.32,-4.32,-4.34,-4.28,-4.84,-4.85,-4.85
407.76,-0.56,4.30,-0.56,4.30,-4.30,-4.32,-4.28,-4.86,-4.86,-4.86
411.84,-0.59,4.26,-0.58,4.28,-4.28,-4.30,-4.28,-4.87,-4.86,-4.86
415.96,-0.61,4.25,-0.60,4.26,-4.26,-4.28,-4.28,-4.88,-4.87,-4.87
420.12,-0.64,4.22,-0.62,4.25,-4.25,-4.26,-4.28,-4.89,-4.87,-4.87
424.32,-0.66,4.20,-0.64,4.24,-4.24,-4.24,-4.29,-4.90,-4.87,-4.87
428.56,-0.67,4.21,-0.65,4.22,-4.22,-4.22,-4.29,-4.90,-4.88,-4.88
432.85,-0.67,4.21,-0.66,4.21,-4.21,-4.21,-4.30,-4.89,-4.88,-4.88
437.18,-0.66,4.22,-0.67,4.21,-4.21,-4.20,-4.31,-4.87,-4.88,-4.88
441.55,-0.66,4.21,-0.68,4.20,-4.20,-4.18,-4.32,-4.87,-4.88,-4.87
445.96,-0.65,4.22,-0.68,4.20,-4.20,-4.17,-4.33,-4.85,-4.88,-4.87
450.42,-0.65,4.23,-0.68,4.19,-4.19,-4.16,-4.34,-4.85,-4.88,-4.89
