frequency,raw,error,smoothed,error_smoothed,equalization,parametric_eq,fixed_band_eq,equalized_raw,equalized_smoothed,target
20.00,9.50,-2.03,9.44,-2.09,1.70,1.35,0.17,11.20,11.15,11.53
20.20,9.75,-1.77,9.79,-1.73,1.57,1.35,0.18,11.32,11.36,11.52
20.40,10.01,-1.50,10.07,-1.44,1.45,1.34,0.18,11.46,11.52,11.51
20.61,10.26,-1.26,10.30,-1.21,1.35,1.34,0.19,11.61,11.65,11.51
20.81,10.51,-0.98,10.52,-0.98,1.28,1.33,0.19,11.79,11.79,11.49
21.02,10.72,-0.77,10.61,-0.88,1.22,1.31,0.20,11.94,11.82,11.49
21.23,10.53,-0.95,10.56,-0.93,1.17,1.29,0.21,11.70,11.73,11.48
21.44,10.35,-1.14,10.37,-1.11,1.15,1.27,0.21,11.50,11.53,11.49
21.66,10.16,-1.32,10.14,-1.34,1.22,1.25,0.22,11.38,11.36,11.48
21.87,9.97,-1.50,10.00,-1.48,1.29,1.22,0.23,11.26,11.29,11.47
22.09,9.90,-1.56,9.94,-1.53,1.35,1.20,0.24,11.25,11.29,11.46
22.31,9.98,-1.48,9.96,-1.49,1.39,1.16,0.24,11.37,11.35,11.46
22.54,10.07,-1.38,10.06,-1.39,1.39,1.13,0.25,11.46,11.45,11.45
22.76,10.15,-1.29,10.15,-1.29,1.35,1.10,0.26,11.50,11.51,11.44
22.99,10.24,-1.19,10.22,-1.21,1.29,1.06,0.27,11.53,11.51,11.43
23.22,10.26,-1.16,10.27,-1.16,1.21,1.02,0.28,11.47,11.48,11.42
23.45,10.29,-1.14,10.30,-1.13,1.15,0.98,0.28,11.44,11.45,11.43
23.69,10.32,-1.10,10.32,-1.11,1.10,0.94,0.29,11.42,11.42,11.42
23.92,10.34,-1.08,10.34,-1.08,1.06,0.90,0.30,11.41,11.41,11.42
24.16,10.37,-1.06,10.37,-1.06,1.05,0.86,0.31,11.42,11.42,11.43
24.40,10.39,-1.05,10.40,-1.04,1.06,0.81,0.32,11.45,11.46,11.44
24.65,10.42,-1.02,10.42,-1.02,1.08,0.77,0.33,11.50,11.51,11.44
24.89,10.45,-0.99,10.44,-1.00,1.10,0.73,0.34,11.55,11.54,11.44
25.14,10.45,-0.98,10.45,-0.99,1.08,0.69,0.34,11.53,11.52,11.43
25.39,10.44,-0.99,10.41,-1.02,0.98,0.64,0.35,11.42,11.39,11.43
25.65,10.43,-1.00,10.40,-1.03,0.82,0.60,0.36,11.25,11.22,11.43
25.91,10.42,-1.02,10.51,-0.93,0.60,0.56,0.37,11.02,11.11,11.44
26.16,10.76,-0.69,10.78,-0.67,0.37,0.52,0.37,11.12,11.14,11.45
26.43,11.22,-0.23,11.26,-0.19,0.13,0.47,0.38,11.36,11.39,11.45
26.69,11.75,0.30,11.76,0.31,-0.07,0.43,0.39,11.68,11.69,11.45
26.96,12.23,0.79,12.07,0.63,-0.23,0.39,0.39,12.00,11.84,11.44
27.23,12.13,0.69,12.12,0.68,-0.33,0.35,0.40,11.80,11.79,11.44
27.50,11.89,0.45,11.94,0.50,-0.36,0.32,0.40,11.53,11.59,11.44
27.77,11.65,0.20,11.66,0.21,-0.29,0.28,0.41,11.35,11.37,11.45
28.05,11.42,-0.03,11.44,-0.00,-0.14,0.24,0.41,11.28,11.30,11.45
28.33,11.27,-0.16,11.26,-0.18,0.08,0.20,0.41,11.35,11.34,11.43
28.62,11.11,-0.32,11.10,-0.34,0.31,0.17,0.41,11.42,11.40,11.43
28.90,10.95,-0.49,10.97,-0.47,0.48,0.13,0.41,11.43,11.45,11.44
29.19,10.86,-0.58,10.86,-0.58,0.55,0.10,0.40,11.41,11.41,11.44
29.48,10.80,-0.63,10.76,-0.67,0.54,0.06,0.40,11.34,11.31,11.43
29.78,10.74,-0.69,10.75,-0.69,0.49,0.03,0.39,11.23,11.24,11.43
30.08,10.77,-0.67,10.84,-0.59,0.43,-0.01,0.39,11.20,11.27,11.44
30.38,11.06,-0.38,11.09,-0.34,0.38,-0.04,0.38,11.44,11.47,11.43
30.68,11.35,-0.06,11.35,-0.07,0.33,-0.07,0.37,11.68,11.68,11.41
30.99,11.64,0.23,11.49,0.08,0.26,-0.10,0.35,11.89,11.74,11.41
31.30,11.40,0.00,11.38,-0.02,0.17,-0.13,0.34,11.57,11.55,11.40
31.61,11.15,-0.24,11.17,-0.23,0.09,-0.16,0.32,11.24,11.25,11.39
31.93,10.89,-0.49,11.01,-0.37,0.05,-0.19,0.30,10.94,11.06,11.38
32.24,11.06,-0.32,11.11,-0.26,0.06,-0.22,0.28,11.12,11.17,11.38
32.57,11.36,-0.00,11.35,-0.02,0.10,-0.25,0.26,11.46,11.45,11.36
32.89,11.65,0.29,11.54,0.18,0.13,-0.28,0.24,11.78,11.67,11.36
33.22,11.57,0.21,11.50,0.14,0.12,-0.31,0.21,11.69,11.61,11.36
33.55,11.30,-0.05,11.31,-0.05,0.05,-0.34,0.19,11.34,11.36,11.35
33.89,11.04,-0.32,11.16,-0.20,-0.06,-0.37,0.16,10.98,11.10,11.36
34.23,11.16,-0.18,11.21,-0.14,-0.17,-0.39,0.13,10.99,11.03,11.34
34.57,11.47,0.13,11.43,0.09,-0.28,-0.42,0.10,11.20,11.16,11.34
34.92,11.78,0.45,11.72,0.39,-0.37,-0.45,0.06,11.41,11.36,11.33
35.27,11.96,0.62,11.98,0.64,-0.47,-0.47,0.03,11.49,11.51,11.34
35.62,12.10,0.78,12.13,0.80,-0.58,-0.50,-0.01,11.52,11.54,11.32
35.97,12.24,0.92,12.17,0.85,-0.69,-0.53,-0.04,11.55,11.48,11.32
36.33,12.12,0.82,12.11,0.81,-0.75,-0.55,-0.08,11.37,11.36,11.30
36.70,11.97,0.68,12.00,0.71,-0.75,-0.58,-0.12,11.22,11.25,11.29
37.06,11.85,0.58,11.89,0.62,-0.71,-0.61,-0.16,11.14,11.18,11.27
37.43,11.85,0.60,11.85,0.60,-0.66,-0.63,-0.20,11.19,11.19,11.25
37.81,11.85,0.62,11.83,0.60,-0.61,-0.66,-0.24,11.24,11.22,11.23
38.19,11.82,0.62,11.80,0.59,-0.59,-0.68,-0.28,11.23,11.20,11.20
38.57,11.75,0.57,11.75,0.57,-0.60,-0.71,-0.33,11.15,11.15,11.18
38.95,11.69,0.54,11.74,0.59,-0.64,-0.74,-0.37,11.05,11.09,11.15
39.34,11.77,0.66,11.78,0.66,-0.71,-0.76,-0.42,11.06,11.07,11.11
39.74,11.88,0.79,11.86,0.77,-0.80,-0.79,-0.46,11.08,11.06,11.09
40.14,11.95,0.89,11.93,0.86,-0.86,-0.81,-0.51,11.09,11.07,11.06
40.54,11.95,0.91,11.96,0.91,-0.88,-0.84,-0.55,11.07,11.07,11.04
40.94,11.95,0.94,11.98,0.97,-0.88,-0.86,-0.60,11.07,11.11,11.01
41.35,11.98,0.99,12.01,1.02,-0.85,-0.89,-0.65,11.13,11.16,10.99
41.76,12.01,1.06,11.96,1.01,-0.82,-0.92,-0.70,11.19,11.15,10.95
42.18,11.87,0.94,11.74,0.81,-0.79,-0.94,-0.75,11.08,10.96,10.93
42.60,11.50,0.59,11.50,0.60,-0.77,-0.97,-0.80,10.73,10.74,10.91
43.03,11.17,0.29,11.41,0.53,-0.79,-1.00,-0.85,10.38,10.62,10.88
43.46,11.52,0.67,11.50,0.65,-0.85,-1.02,-0.90,10.67,10.65,10.85
43.90,11.87,1.03,11.72,0.89,-0.96,-1.05,-0.95,10.91,10.76,10.83
44.33,11.95,1.16,11.92,1.12,-1.09,-1.07,-1.00,10.86,10.83,10.79
44.78,11.95,1.19,12.04,1.27,-1.23,-1.10,-1.06,10.72,10.80,10.76
45.23,12.11,1.36,12.21,1.47,-1.38,-1.13,-1.11,10.73,10.83,10.75
45.68,12.42,1.72,12.36,1.65,-1.48,-1.16,-1.17,10.94,10.88,10.70
46.13,12.53,1.87,12.36,1.69,-1.51,-1.18,-1.22,11.02,10.85,10.66
46.60,12.17,1.54,12.21,1.58,-1.46,-1.21,-1.28,10.71,10.74,10.63
47.06,11.85,1.26,12.01,1.42,-1.38,-1.24,-1.33,10.47,10.64,10.59
47.53,11.85,1.29,11.84,1.29,-1.30,-1.26,-1.39,10.55,10.54,10.56
48.01,11.84,1.34,11.66,1.16,-1.27,-1.29,-1.45,10.57,10.40,10.50
48.49,11.53,1.08,11.51,1.05,-1.27,-1.32,-1.51,10.27,10.24,10.45
48.97,11.21,0.80,11.43,1.03,-1.30,-1.35,-1.57,9.91,10.13,10.41
49.46,11.53,1.16,11.52,1.16,-1.37,-1.38,-1.63,10.16,10.15,10.37
49.96,11.89,1.59,11.83,1.52,-1.46,-1.41,-1.69,10.43,10.36,10.30
50.46,12.11,1.85,12.13,1.87,-1.57,-1.44,-1.75,10.54,10.57,10.26
50.96,12.32,2.10,12.19,1.97,-1.68,-1.46,-1.81,10.64,10.51,10.22
51.47,12.11,1.93,12.11,1.93,-1.80,-1.49,-1.87,10.31,10.31,10.18
51.99,11.86,1.73,11.96,1.82,-1.90,-1.52,-1.93,9.96,10.06,10.13
52.51,11.85,1.76,11.85,1.75,-1.97,-1.55,-1.99,9.88,9.87,10.09
53.03,11.86,1.80,11.88,1.83,-2.00,-1.58,-2.04,9.86,9.88,10.06
53.56,11.99,1.99,11.98,1.98,-2.00,-1.61,-2.10,9.99,9.99,10.00
54.10,12.09,2.14,12.06,2.10,-1.98,-1.64,-2.16,10.11,10.08,9.95
54.64,12.08,2.17,12.07,2.16,-2.00,-1.67,-2.22,10.08,10.07,9.91
55.18,12.01,2.16,11.98,2.13,-2.04,-1.71,-2.28,9.97,9.94,9.85
55.74,11.83,2.03,11.86,2.05,-2.10,-1.74,-2.33,9.74,9.77,9.80
56.29,11.75,1.98,11.77,2.01,-2.14,-1.77,-2.39,9.60,9.63,9.77
56.86,11.75,2.02,11.74,2.02,-2.17,-1.80,-2.44,9.58,9.57,9.73
57.42,11.80,2.13,11.80,2.12,-2.17,-1.83,-2.49,9.63,9.63,9.67
58.00,11.87,2.23,11.93,2.29,-2.18,-1.87,-2.54,9.69,9.74,9.64
58.58,12.03,2.42,11.99,2.38,-2.22,-1.90,-2.58,9.81,9.77,9.61
59.16,12.07,2.50,11.95,2.38,-2.28,-1.93,-2.63,9.79,9.67,9.57
59.76,11.77,2.24,11.82,2.30,-2.35,-1.96,-2.67,9.42,9.47,9.53
60.35,11.65,2.19,11.71,2.24,-2.40,-2.00,-2.71,9.25,9.30,9.46
60.96,11.65,2.24,11.71,2.30,-2.43,-2.03,-2.75,9.22,9.28,9.41
61.57,11.85,2.51,11.82,2.48,-2.45,-2.07,-2.78,9.40,9.38,9.34
62.18,11.98,2.71,11.90,2.63,-2.47,-2.10,-2.81,9.51,9.44,9.27
62.80,11.88,2.67,11.86,2.65,-2.51,-2.13,-2.84,9.36,9.35,9.21
63.43,11.72,2.57,11.72,2.57,-2.59,-2.17,-2.87,9.13,9.14,9.15
64.07,11.55,2.45,11.59,2.49,-2.66,-2.20,-2.89,8.89,8.93,9.10
64.71,11.55,2.51,11.60,2.56,-2.70,-2.24,-2.91,8.85,8.89,9.04
65.35,11.67,2.69,11.70,2.71,-2.72,-2.28,-2.93,8.95,8.98,8.98
66.01,11.89,2.97,11.81,2.89,-2.73,-2.31,-2.95,9.16,9.08,8.92
66.67,11.84,2.96,11.80,2.93,-2.76,-2.35,-2.96,9.08,9.03,8.88
67.33,11.70,2.90,11.68,2.87,-2.82,-2.38,-2.97,8.88,8.86,8.80
68.01,11.45,2.70,11.53,2.78,-2.89,-2.42,-2.99,8.57,8.64,8.75
68.69,11.45,2.77,11.44,2.75,-2.94,-2.46,-2.99,8.51,8.50,8.68
69.37,11.49,2.86,11.52,2.89,-2.98,-2.50,-3.00,8.51,8.53,8.63
70.07,11.58,3.02,11.66,3.10,-3.03,-2.53,-3.01,8.55,8.63,8.56
70.77,11.87,3.37,11.68,3.19,-3.09,-2.57,-3.02,8.78,8.60,8.50
71.48,11.67,3.24,11.61,3.18,-3.15,-2.61,-3.02,8.52,8.46,8.43
72.19,11.37,3.01,11.56,3.19,-3.19,-2.65,-3.03,8.18,8.36,8.36
72.91,11.45,3.15,11.54,3.24,-3.23,-2.68,-3.03,8.22,8.31,8.30
73.64,11.72,3.49,11.55,3.32,-3.26,-2.72,-3.04,8.45,8.29,8.23
74.38,11.63,3.46,11.53,3.36,-3.29,-2.76,-3.05,8.34,8.24,8.17
75.12,11.25,3.15,11.40,3.29,-3.33,-2.80,-3.06,7.92,8.07,8.10
75.87,11.25,3.19,11.25,3.20,-3.37,-2.84,-3.06,7.88,7.88,8.06
76.63,11.25,3.26,11.26,3.26,-3.42,-2.88,-3.07,7.83,7.84,7.99
77.40,11.37,3.43,11.43,3.49,-3.45,-2.92,-3.08,7.92,7.98,7.94
78.17,11.55,3.67,11.50,3.62,-3.47,-2.96,-3.10,8.08,8.03,7.88
78.95,11.62,3.78,11.48,3.64,-3.48,-3.00,-3.11,8.13,7.99,7.84
79.74,11.27,3.49,11.36,3.58,-3.49,-3.04,-3.13,7.78,7.87,7.78
80.54,11.15,3.43,11.21,3.49,-3.51,-3.08,-3.14,7.64,7.71,7.72
81.35,11.14,3.47,11.11,3.44,-3.53,-3.12,-3.16,7.61,7.58,7.67
82.16,11.11,3.49,11.09,3.47,-3.54,-3.16,-3.19,7.57,7.55,7.62
82.98,11.05,3.49,11.02,3.46,-3.54,-3.20,-3.21,7.51,7.48,7.56
83.81,10.97,3.47,10.99,3.48,-3.56,-3.24,-3.24,7.41,7.42,7.50
84.65,10.95,3.51,11.05,3.61,-3.61,-3.29,-3.26,7.34,7.44,7.44
85.50,11.16,3.79,11.14,3.77,-3.68,-3.33,-3.30,7.48,7.47,7.37
86.35,11.30,3.99,11.16,3.85,-3.76,-3.37,-3.33,7.54,7.40,7.31
87.22,11.11,3.85,11.08,3.82,-3.82,-3.41,-3.37,7.29,7.25,7.26
88.09,10.86,3.67,11.03,3.83,-3.87,-3.45,-3.41,6.99,7.16,7.19
88.97,10.93,3.79,11.02,3.88,-3.91,-3.49,-3.45,7.02,7.11,7.14
89.86,11.26,4.20,11.03,3.96,-3.92,-3.53,-3.49,7.34,7.11,7.06
90.76,10.99,3.99,11.01,4.01,-3.91,-3.58,-3.54,7.08,7.09,7.00
91.66,10.80,3.87,10.89,3.96,-3.92,-3.62,-3.59,6.88,6.98,6.93
92.58,10.75,3.88,10.75,3.88,-3.94,-3.66,-3.64,6.81,6.81,6.87
93.51,10.73,3.93,10.70,3.90,-3.98,-3.70,-3.69,6.75,6.72,6.80
94.44,10.68,3.95,10.66,3.93,-4.02,-3.74,-3.75,6.66,6.64,6.73
95.39,10.62,3.97,10.64,3.99,-4.06,-3.78,-3.81,6.56,6.58,6.65
96.34,10.62,4.05,10.71,4.14,-4.11,-3.83,-3.87,6.51,6.60,6.57
97.30,10.80,4.31,10.74,4.25,-4.17,-3.87,-3.94,6.63,6.57,6.49
98.28,10.85,4.45,10.69,4.29,-4.22,-3.91,-4.00,6.63,6.47,6.40
99.26,10.49,4.18,10.61,4.29,-4.26,-3.95,-4.07,6.23,6.35,6.31
100.25,10.44,4.21,10.55,4.32,-4.29,-3.99,-4.14,6.15,6.27,6.23
101.25,10.55,4.39,10.49,4.34,-4.31,-4.03,-4.21,6.24,6.18,6.16
102.27,10.58,4.51,10.40,4.32,-4.33,-4.07,-4.28,6.25,6.07,6.07
103.29,10.19,4.20,10.26,4.26,-4.36,-4.11,-4.35,5.83,5.90,5.99
104.32,9.99,4.07,10.20,4.28,-4.40,-4.15,-4.43,5.59,5.80,5.92
105.37,10.25,4.41,10.19,4.36,-4.45,-4.19,-4.50,5.80,5.75,5.84
106.42,10.43,4.68,10.23,4.47,-4.47,-4.23,-4.57,5.96,5.76,5.75
107.48,10.17,4.51,10.27,4.60,-4.46,-4.27,-4.65,5.71,5.81,5.66
108.56,10.07,4.47,10.21,4.62,-4.44,-4.31,-4.72,5.63,5.77,5.60
109.64,10.26,4.75,10.12,4.61,-4.44,-4.35,-4.79,5.82,5.68,5.51
110.74,10.01,4.58,9.95,4.51,-4.47,-4.39,-4.86,5.54,5.47,5.43
111.85,9.73,4.37,9.66,4.30,-4.51,-4.43,-4.93,5.22,5.16,5.36
112.97,9.28,3.99,9.50,4.21,-4.53,-4.46,-4.99,4.75,4.97,5.29
114.10,9.43,4.21,9.53,4.32,-4.53,-4.50,-5.05,4.90,5.01,5.22
115.24,9.93,4.79,9.69,4.55,-4.51,-4.54,-5.11,5.42,5.19,5.14
116.39,9.85,4.79,9.93,4.87,-4.51,-4.57,-5.16,5.34,5.42,5.06
117.55,9.88,4.88,9.88,4.89,-4.55,-4.61,-5.21,5.33,5.33,5.00
118.73,9.81,4.89,9.58,4.65,-4.61,-4.64,-5.25,5.20,4.97,4.92
119.92,9.16,4.30,9.32,4.46,-4.68,-4.68,-5.29,4.48,4.64,4.86
121.12,9.03,4.22,9.19,4.39,-4.71,-4.71,-5.32,4.32,4.48,4.81
122.33,9.30,4.56,9.30,4.55,-4.71,-4.75,-5.35,4.59,4.59,4.74
123.55,9.61,4.92,9.51,4.82,-4.70,-4.78,-5.37,4.91,4.81,4.69
124.79,9.73,5.10,9.58,4.95,-4.71,-4.81,-5.39,5.02,4.87,4.63
126.03,9.36,4.80,9.48,4.92,-4.76,-4.84,-5.40,4.60,4.72,4.56
127.29,9.28,4.78,9.31,4.81,-4.85,-4.87,-5.40,4.43,4.46,4.50
128.57,9.22,4.78,9.17,4.73,-4.92,-4.90,-5.40,4.30,4.25,4.44
129.85,9.15,4.78,9.21,4.84,-4.95,-4.93,-5.39,4.20,4.27,4.37
131.15,9.21,4.90,9.26,4.95,-4.94,-4.96,-5.37,4.27,4.32,4.31
132.46,9.40,5.15,9.25,5.00,-4.92,-4.99,-5.35,4.48,4.33,4.25
133.79,9.22,5.03,9.26,5.07,-4.92,-5.02,-5.33,4.30,4.34,4.19
135.12,9.06,4.93,9.15,5.01,-4.94,-5.04,-5.30,4.12,4.21,4.13
136.48,9.16,5.07,8.98,4.90,-4.97,-5.07,-5.27,4.19,4.02,4.09
137.84,8.78,4.75,8.87,4.85,-4.97,-5.09,-5.23,3.81,3.90,4.03
139.22,8.79,4.84,8.87,4.90,-4.97,-5.12,-5.19,3.82,3.90,3.95
140.61,8.86,4.95,8.89,4.99,-4.99,-5.14,-5.15,3.87,3.90,3.91
142.02,9.09,5.24,8.89,5.05,-5.02,-5.16,-5.11,4.07,3.87,3.85
143.44,8.85,5.07,8.84,5.05,-5.05,-5.18,-5.06,3.80,3.80,3.78
144.87,8.58,4.85,8.82,5.08,-5.08,-5.20,-5.01,3.50,3.74,3.73
146.32,8.85,5.17,8.75,5.07,-5.10,-5.22,-4.97,3.75,3.66,3.68
147.78,8.90,5.28,8.80,5.18,-5.10,-5.23,-4.92,3.80,3.71,3.62
149.26,8.69,5.12,8.82,5.26,-5.10,-5.25,-4.87,3.59,3.72,3.57
150.75,8.75,5.25,8.60,5.09,-5.11,-5.26,-4.82,3.64,3.49,3.50
152.26,8.46,5.00,8.41,4.95,-5.11,-5.28,-4.78,3.35,3.31,3.46
153.78,8.11,4.71,8.39,4.99,-5.10,-5.29,-4.73,3.01,3.29,3.40
155.32,8.44,5.09,8.40,5.05,-5.09,-5.30,-4.69,3.35,3.30,3.35
156.88,8.67,5.38,8.45,5.16,-5.08,-5.31,-4.65,3.59,3.36,3.29
158.44,8.38,5.15,8.45,5.22,-5.07,-5.32,-4.61,3.31,3.38,3.23
160.03,8.23,5.06,8.29,5.12,-5.07,-5.33,-4.57,3.16,3.22,3.17
161.63,8.16,5.05,8.14,5.03,-5.10,-5.33,-4.54,3.06,3.04,3.11
163.24,8.09,5.05,8.09,5.05,-5.12,-5.34,-4.50,2.97,2.98,3.04
164.88,8.05,5.06,8.06,5.07,-5.12,-5.34,-4.48,2.93,2.94,2.99
166.53,8.04,5.12,8.02,5.09,-5.10,-5.34,-4.45,2.94,2.91,2.92
168.19,7.98,5.11,7.97,5.10,-5.09,-5.34,-4.43,2.89,2.89,2.87
169.87,7.93,5.12,7.97,5.16,-5.09,-5.34,-4.41,2.84,2.88,2.81
171.57,7.90,5.16,7.93,5.18,-5.11,-5.34,-4.39,2.79,2.81,2.74
173.29,7.95,5.27,7.78,5.10,-5.13,-5.34,-4.38,2.82,2.65,2.68
175.02,7.64,5.01,7.69,5.06,-5.14,-5.33,-4.37,2.50,2.56,2.63
176.77,7.44,4.86,7.66,5.09,-5.14,-5.33,-4.36,2.30,2.52,2.58
178.54,7.80,5.28,7.65,5.13,-5.14,-5.32,-4.36,2.66,2.51,2.52
180.32,7.77,5.31,7.68,5.21,-5.14,-5.31,-4.36,2.63,2.54,2.46
182.13,7.59,5.17,7.65,5.23,-5.14,-5.30,-4.36,2.45,2.50,2.42
183.95,7.46,5.09,7.48,5.11,-5.15,-5.29,-4.37,2.31,2.33,2.37
185.79,7.42,5.10,7.42,5.10,-5.15,-5.28,-4.38,2.27,2.27,2.32
187.65,7.36,5.08,7.45,5.17,-5.16,-5.27,-4.40,2.20,2.29,2.28
189.52,7.53,5.30,7.39,5.16,-5.16,-5.25,-4.41,2.37,2.24,2.23
191.42,7.39,5.19,7.32,5.12,-5.15,-5.24,-4.43,2.24,2.17,2.20
193.33,7.08,4.93,7.29,5.15,-5.14,-5.22,-4.45,1.94,2.16,2.15
195.27,7.25,5.15,7.23,5.13,-5.13,-5.20,-4.48,2.12,2.10,2.10
197.22,7.37,5.32,7.20,5.14,-5.12,-5.18,-4.51,2.25,2.08,2.05
199.19,7.10,5.08,7.17,5.16,-5.11,-5.16,-4.54,1.99,2.07,2.02
201.18,7.01,5.04,7.06,5.08,-5.08,-5.13,-4.57,1.93,1.98,1.97
203.19,6.98,5.04,6.95,5.01,-5.05,-5.11,-4.60,1.93,1.91,1.94
205.23,6.92,5.02,6.92,5.01,-5.01,-5.08,-4.64,1.91,1.91,1.90
207.28,6.86,4.99,6.86,4.99,-4.98,-5.06,-4.67,1.88,1.88,1.87
209.35,6.79,4.96,6.79,4.96,-4.96,-5.03,-4.71,1.83,1.83,1.83
211.44,6.73,4.95,6.72,4.94,-4.96,-5.00,-4.75,1.77,1.76,1.78
213.56,6.65,4.90,6.63,4.88,-4.96,-4.97,-4.79,1.69,1.67,1.75
215.69,6.59,4.88,6.59,4.88,-4.96,-4.94,-4.82,1.63,1.63,1.71
217.85,6.53,4.85,6.64,4.96,-4.94,-4.91,-4.86,1.59,1.70,1.68
220.03,6.72,5.09,6.67,5.03,-4.91,-4.87,-4.89,1.81,1.76,1.63
222.23,6.75,5.14,6.62,5.01,-4.89,-4.84,-4.93,1.86,1.73,1.61
224.45,6.46,4.88,6.50,4.92,-4.86,-4.80,-4.96,1.60,1.64,1.58
226.70,6.23,4.68,6.32,4.76,-4.82,-4.77,-4.98,1.41,1.50,1.55
228.96,6.22,4.69,6.18,4.65,-4.79,-4.73,-5.01,1.43,1.40,1.53
231.25,6.17,4.65,6.15,4.63,-4.73,-4.69,-5.03,1.44,1.42,1.52
233.57,6.13,4.64,6.20,4.70,-4.67,-4.65,-5.05,1.46,1.53,1.49
235.90,6.18,4.70,6.17,4.69,-4.62,-4.61,-5.06,1.56,1.55,1.48
238.26,6.24,4.78,6.08,4.61,-4.58,-4.57,-5.06,1.66,1.50,1.46
240.64,5.91,4.44,6.03,4.56,-4.55,-4.53,-5.06,1.36,1.48,1.47
243.05,5.85,4.39,5.98,4.53,-4.52,-4.48,-5.06,1.33,1.46,1.46
245.48,6.07,4.63,5.88,4.43,-4.48,-4.44,-5.05,1.59,1.39,1.44
247.93,5.90,4.47,5.89,4.45,-4.43,-4.39,-5.03,1.47,1.45,1.43
250.41,5.66,4.22,5.86,4.42,-4.38,-4.35,-5.00,1.28,1.48,1.44
252.92,5.90,4.46,5.74,4.30,-4.33,-4.30,-4.97,1.56,1.40,1.44
255.45,5.74,4.32,5.70,4.27,-4.30,-4.25,-4.93,1.44,1.40,1.42
258.00,5.53,4.12,5.69,4.28,-4.27,-4.20,-4.89,1.26,1.42,1.41
260.58,5.67,4.27,5.61,4.21,-4.23,-4.16,-4.84,1.44,1.38,1.40
263.19,5.65,4.26,5.58,4.19,-4.20,-4.11,-4.78,1.45,1.38,1.39
265.82,5.51,4.14,5.54,4.16,-4.15,-4.06,-4.72,1.36,1.39,1.37
268.48,5.42,4.05,5.50,4.13,-4.10,-4.00,-4.65,1.32,1.40,1.37
271.16,5.44,4.09,5.45,4.10,-4.06,-3.95,-4.58,1.38,1.39,1.35
273.87,5.51,4.17,5.33,3.99,-4.00,-3.90,-4.50,1.51,1.33,1.34
276.61,5.16,3.84,5.23,3.91,-3.92,-3.85,-4.42,1.24,1.31,1.32
279.38,4.96,3.67,5.14,3.84,-3.85,-3.79,-4.33,1.11,1.30,1.29
282.17,5.18,3.89,5.03,3.74,-3.77,-3.74,-4.24,1.41,1.26,1.29
284.99,5.09,3.80,5.02,3.74,-3.69,-3.68,-4.15,1.40,1.33,1.29
287.84,4.82,3.53,4.96,3.67,-3.63,-3.63,-4.06,1.19,1.33,1.29
290.72,4.90,3.63,4.78,3.50,-3.58,-3.57,-3.96,1.32,1.20,1.27
293.63,4.70,3.42,4.74,3.47,-3.54,-3.52,-3.86,1.16,1.20,1.28
296.57,4.64,3.36,4.77,3.49,-3.50,-3.46,-3.76,1.14,1.26,1.28
299.53,4.90,3.63,4.75,3.47,-3.47,-3.40,-3.66,1.43,1.28,1.27
302.53,4.75,3.47,4.74,3.47,-3.43,-3.34,-3.56,1.32,1.31,1.28
305.55,4.65,3.38,4.72,3.44,-3.38,-3.28,-3.46,1.27,1.34,1.27
308.61,4.61,3.33,4.65,3.37,-3.33,-3.23,-3.36,1.28,1.32,1.28
311.69,4.65,3.39,4.58,3.31,-3.28,-3.17,-3.26,1.37,1.29,1.26
314.81,4.52,3.25,4.45,3.19,-3.22,-3.11,-3.16,1.30,1.24,1.27
317.96,4.26,3.01,4.38,3.13,-3.14,-3.05,-3.06,1.12,1.24,1.25
321.14,4.23,2.97,4.30,3.04,-3.08,-2.99,-2.97,1.15,1.22,1.26
324.35,4.42,3.17,4.22,2.96,-3.01,-2.93,-2.87,1.41,1.20,1.25
327.59,4.13,2.87,4.21,2.95,-2.95,-2.86,-2.77,1.18,1.26,1.26
330.87,4.04,2.79,4.16,2.91,-2.89,-2.80,-2.68,1.15,1.27,1.25
334.18,4.21,2.97,4.06,2.81,-2.83,-2.74,-2.59,1.38,1.23,1.24
337.52,4.04,2.79,4.05,2.81,-2.76,-2.68,-2.50,1.28,1.29,1.25
340.90,3.91,2.67,4.00,2.76,-2.69,-2.62,-2.41,1.22,1.32,1.24
344.30,3.96,2.71,3.87,2.62,-2.61,-2.55,-2.32,1.35,1.26,1.25
347.75,3.80,2.54,3.78,2.53,-2.53,-2.49,-2.23,1.27,1.25,1.26
351.23,3.61,2.37,3.68,2.42,-2.45,-2.43,-2.15,1.16,1.22,1.24
354.74,3.58,2.32,3.57,2.31,-2.38,-2.36,-2.07,1.20,1.18,1.26
358.28,3.54,2.28,3.53,2.27,-2.31,-2.30,-1.99,1.23,1.21,1.26
361.87,3.49,2.23,3.52,2.25,-2.24,-2.23,-1.91,1.25,1.28,1.26
365.49,3.50,2.23,3.46,2.19,-2.17,-2.17,-1.83,1.33,1.29,1.27
369.14,3.45,2.17,3.44,2.16,-2.10,-2.11,-1.75,1.34,1.34,1.28
372.83,3.31,2.02,3.40,2.11,-2.04,-2.04,-1.68,1.27,1.35,1.29
376.56,3.39,2.11,3.26,1.98,-1.98,-1.98,-1.60,1.41,1.29,1.28
380.33,3.16,1.88,3.16,1.87,-1.91,-1.91,-1.53,1.25,1.25,1.28
384.13,2.95,1.66,3.10,1.81,-1.85,-1.84,-1.46,1.10,1.25,1.29
387.97,3.10,1.81,3.03,1.74,-1.79,-1.78,-1.39,1.31,1.24,1.29
391.85,3.06,1.78,3.01,1.73,-1.73,-1.71,-1.32,1.33,1.27,1.28
395.77,2.95,1.68,2.98,1.70,-1.69,-1.65,-1.26,1.26,1.29,1.27
399.73,2.88,1.61,2.91,1.64,-1.64,-1.58,-1.19,1.24,1.27,1.27
403.72,2.87,1.59,2.88,1.61,-1.60,-1.51,-1.13,1.27,1.29,1.28
407.76,2.88,1.62,2.84,1.57,-1.55,-1.44,-1.07,1.33,1.29,1.26
411.84,2.80,1.55,2.76,1.50,-1.48,-1.38,-1.00,1.32,1.28,1.25
415.96,2.60,1.35,2.68,1.43,-1.39,-1.31,-0.94,1.21,1.28,1.25
420.12,2.56,1.32,2.59,1.34,-1.31,-1.24,-0.88,1.25,1.28,1.24
424.32,2.57,1.32,2.46,1.20,-1.22,-1.17,-0.83,1.35,1.23,1.25
428.56,2.36,1.09,2.38,1.11,-1.14,-1.11,-0.77,1.22,1.23,1.27
432.85,2.18,0.89,2.32,1.03,-1.07,-1.04,-0.71,1.11,1.25,1.29
437.18,2.34,1.04,2.24,0.93,-1.00,-0.97,-0.66,1.34,1.24,1.30
441.55,2.29,0.96,2.25,0.91,-0.93,-0.90,-0.60,1.36,1.32,1.33
445.96,2.15,0.78,2.27,0.91,-0.86,-0.83,-0.55,1.29,1.42,1.37
450.42,2.31,0.90,2.25,0.84,-0.79,-0.76,-0.49,1.52,1.45,1.41
454.93,2.27,0.81,2.23,0.77,-0.73,-0.69,-0.44,1.54,1.50,1.46
459.48,2.19,0.67,2.21,0.69,-0.66,-0.62,-0.39,1.53,1.55,1.52
464.07,2.13,0.54,2.15,0.57,-0.60,-0.55,-0.34,1.53,1.55,1.59
468.71,2.13,0.49,2.12,0.47,-0.53,-0.48,-0.28,1.60,1.59,1.64
473.40,2.12,0.42,2.12,0.41,-0.45,-0.41,-0.23,1.67,1.67,1.70
478.13,2.11,0.35,2.12,0.36,-0.37,-0.34,-0.18,1.74,1.75,1.76
482.91,2.13,0.32,2.11,0.31,-0.29,-0.27,-0.13,1.84,1.83,1.81
487.74,2.09,0.25,2.11,0.26,-0.21,-0.20,-0.08,1.88,1.90,1.84
492.62,2.06,0.18,2.05,0.16,-0.14,-0.13,-0.04,1.92,1.91,1.88
497.55,2.02,0.10,1.96,0.04,-0.06,-0.06,0.01,1.96,1.90,1.92
