frequency,raw,error,smoothed,error_smoothed,equalization,parametric_eq,fixed_band_eq,equalized_raw,equalized_smoothed,target
20.00,9.50,-3.72,9.98,-3.24,3.24,2.87,0.92,12.74,13.23,13.22
20.20,9.75,-3.46,10.01,-3.20,3.20,2.90,0.95,12.95,13.22,13.21
20.40,10.01,-3.19,10.04,-3.16,3.16,2.93,0.98,13.18,13.21,13.20
20.61,10.26,-2.95,10.07,-3.13,3.13,2.95,1.01,13.38,13.20,13.20
20.81,10.51,-2.67,10.09,-3.09,3.09,2.97,1.05,13.61,13.19,13.18
21.02,10.72,-2.46,10.12,-3.06,3.06,2.98,1.08,13.78,13.18,13.18
21.23,10.53,-2.64,10.14,-3.03,3.03,3.00,1.11,13.56,13.17,13.17
21.44,10.35,-2.83,10.16,-3.00,3.00,3.01,1.15,13.35,13.16,13.18
21.66,10.16,-3.00,10.18,-2.97,2.97,3.01,1.19,13.13,13.16,13.17
21.87,9.97,-3.19,10.20,-2.95,2.95,3.02,1.23,12.91,13.15,13.16
22.09,9.90,-3.24,10.22,-2.92,2.92,3.02,1.26,12.82,13.14,13.14
22.31,9.98,-3.16,10.24,-2.90,2.90,3.01,1.30,12.88,13.14,13.14
22.54,10.07,-3.06,10.21,-2.92,2.92,3.00,1.35,12.99,13.13,13.13
22.76,10.15,-2.98,10.19,-2.94,2.94,2.99,1.39,13.09,13.13,13.13
22.99,10.24,-2.88,10.18,-2.95,2.95,2.98,1.43,13.19,13.12,13.12
23.22,10.26,-2.85,10.18,-2.94,2.94,2.96,1.48,13.20,13.12,13.11
23.45,10.29,-2.83,10.19,-2.93,2.93,2.94,1.52,13.22,13.12,13.12
23.69,10.32,-2.79,10.21,-2.91,2.91,2.92,1.57,13.23,13.11,13.11
23.92,10.34,-2.76,10.22,-2.89,2.89,2.89,1.61,13.24,13.11,13.11
24.16,10.37,-2.74,10.23,-2.88,2.88,2.86,1.66,13.25,13.11,13.11
24.40,10.39,-2.73,10.28,-2.83,2.83,2.83,1.71,13.22,13.11,13.12
24.65,10.42,-2.70,10.36,-2.75,2.75,2.80,1.76,13.17,13.11,13.12
24.89,10.45,-2.67,10.47,-2.65,2.65,2.76,1.81,13.10,13.12,13.12
25.14,10.45,-2.67,10.59,-2.52,2.52,2.72,1.86,12.97,13.12,13.12
25.39,10.44,-2.68,10.73,-2.39,2.39,2.68,1.91,12.83,13.12,13.12
25.65,10.43,-2.68,10.87,-2.25,2.25,2.64,1.96,12.68,13.12,13.11
25.91,10.42,-2.70,11.01,-2.11,2.11,2.59,2.01,12.53,13.12,13.12
26.16,10.76,-2.37,11.14,-1.98,1.98,2.54,2.06,12.74,13.12,13.13
26.43,11.22,-1.90,11.25,-1.87,1.87,2.50,2.11,13.09,13.12,13.13
26.69,11.75,-1.38,11.35,-1.77,1.77,2.45,2.15,13.52,13.12,13.13
26.96,12.23,-0.89,11.42,-1.70,1.70,2.40,2.20,13.94,13.12,13.12
27.23,12.13,-0.99,11.45,-1.67,1.67,2.35,2.24,13.80,13.12,13.12
27.50,11.89,-1.23,11.45,-1.67,1.67,2.30,2.29,13.56,13.12,13.12
27.77,11.65,-1.48,11.43,-1.69,1.69,2.24,2.33,13.34,13.12,13.13
28.05,11.42,-1.70,11.42,-1.70,1.70,2.19,2.36,13.12,13.12,13.12
28.33,11.27,-1.84,11.40,-1.72,1.72,2.14,2.40,12.99,13.12,13.11
28.62,11.11,-1.99,11.38,-1.74,1.74,2.09,2.43,12.85,13.12,13.11
28.90,10.95,-2.16,11.31,-1.80,1.80,2.03,2.46,12.75,13.11,13.11
29.19,10.86,-2.25,11.21,-1.91,1.91,1.98,2.49,12.77,13.11,13.11
29.48,10.80,-2.31,11.09,-2.02,2.02,1.93,2.51,12.82,13.11,13.11
29.78,10.74,-2.36,11.00,-2.10,2.10,1.87,2.52,12.84,13.10,13.10
30.08,10.77,-2.34,10.98,-2.12,2.12,1.82,2.54,12.89,13.10,13.11
30.38,11.06,-2.04,11.02,-2.07,2.07,1.77,2.54,13.13,13.09,13.10
30.68,11.35,-1.73,11.06,-2.02,2.02,1.72,2.55,13.37,13.08,13.08
30.99,11.64,-1.44,11.10,-1.98,1.98,1.67,2.55,13.61,13.08,13.08
31.30,11.40,-1.66,11.13,-1.94,1.94,1.62,2.54,13.34,13.07,13.07
31.61,11.15,-1.91,11.16,-1.90,1.90,1.57,2.53,13.06,13.06,13.06
31.93,10.89,-2.15,11.19,-1.86,1.86,1.52,2.51,12.76,13.05,13.05
32.24,11.06,-1.98,11.23,-1.81,1.81,1.47,2.49,12.88,13.04,13.04
32.57,11.36,-1.67,11.28,-1.76,1.76,1.42,2.46,13.11,13.04,13.03
32.89,11.65,-1.37,11.34,-1.69,1.69,1.37,2.43,13.34,13.03,13.02
33.22,11.57,-1.45,11.41,-1.62,1.62,1.32,2.40,13.18,13.02,13.02
33.55,11.30,-1.72,11.46,-1.56,1.56,1.28,2.36,12.85,13.02,13.01
33.89,11.04,-1.98,11.50,-1.51,1.51,1.23,2.32,12.55,13.01,13.02
34.23,11.16,-1.84,11.55,-1.45,1.45,1.19,2.27,12.61,13.01,13.00
34.57,11.47,-1.53,11.62,-1.38,1.38,1.14,2.22,12.85,13.00,13.00
34.92,11.78,-1.21,11.72,-1.28,1.28,1.10,2.17,13.05,12.99,12.99
35.27,11.96,-1.04,11.79,-1.19,1.19,1.05,2.11,13.15,12.98,12.99
35.62,12.10,-0.88,11.84,-1.14,1.14,1.01,2.05,13.24,12.97,12.98
35.97,12.24,-0.73,11.85,-1.11,1.11,0.97,1.99,13.35,12.96,12.97
36.33,12.12,-0.83,11.86,-1.09,1.09,0.93,1.93,13.21,12.95,12.95
36.70,11.97,-0.96,11.88,-1.05,1.05,0.89,1.87,13.02,12.93,12.93
37.06,11.85,-1.07,11.92,-0.99,0.99,0.85,1.80,12.84,12.91,12.92
37.43,11.85,-1.04,11.95,-0.94,0.94,0.81,1.73,12.79,12.89,12.89
37.81,11.85,-1.02,11.96,-0.90,0.90,0.77,1.67,12.75,12.86,12.87
38.19,11.82,-1.02,11.96,-0.88,0.88,0.73,1.60,12.70,12.84,12.84
38.57,11.75,-1.06,11.95,-0.86,0.86,0.69,1.53,12.61,12.81,12.81
38.95,11.69,-1.09,11.91,-0.87,0.87,0.66,1.46,12.56,12.78,12.78
39.34,11.77,-0.97,11.86,-0.89,0.89,0.62,1.39,12.67,12.75,12.74
39.74,11.88,-0.84,11.82,-0.91,0.91,0.58,1.32,12.79,12.73,12.72
40.14,11.95,-0.74,11.79,-0.91,0.91,0.55,1.25,12.86,12.70,12.69
40.54,11.95,-0.71,11.78,-0.89,0.89,0.51,1.18,12.84,12.67,12.66
40.94,11.95,-0.68,11.76,-0.88,0.88,0.48,1.12,12.83,12.64,12.63
41.35,11.98,-0.63,11.74,-0.87,0.87,0.45,1.05,12.85,12.61,12.61
41.76,12.01,-0.56,11.76,-0.82,0.82,0.41,0.98,12.83,12.58,12.57
42.18,11.87,-0.68,11.80,-0.75,0.75,0.38,0.91,12.62,12.55,12.54
42.60,11.50,-1.02,11.83,-0.68,0.68,0.35,0.84,12.18,12.52,12.52
43.03,11.17,-1.32,11.87,-0.62,0.62,0.31,0.78,11.79,12.49,12.49
43.46,11.52,-0.93,11.91,-0.55,0.55,0.28,0.71,12.07,12.46,12.45
43.90,11.87,-0.56,11.94,-0.49,0.49,0.25,0.65,12.35,12.43,12.43
44.33,11.95,-0.44,11.95,-0.45,0.45,0.22,0.58,12.40,12.40,12.39
44.78,11.95,-0.41,11.93,-0.43,0.43,0.19,0.52,12.38,12.36,12.36
45.23,12.11,-0.23,11.91,-0.42,0.42,0.16,0.45,12.53,12.33,12.34
45.68,12.42,0.12,11.89,-0.40,0.40,0.13,0.39,12.82,12.29,12.30
46.13,12.53,0.28,11.89,-0.36,0.36,0.10,0.33,12.89,12.25,12.25
46.60,12.17,-0.04,11.92,-0.29,0.29,0.07,0.27,12.46,12.21,12.21
47.06,11.85,-0.32,11.95,-0.21,0.21,0.04,0.20,12.06,12.16,12.17
47.53,11.85,-0.28,11.97,-0.14,0.14,0.01,0.14,11.99,12.12,12.13
48.01,11.84,-0.23,11.96,-0.11,0.11,-0.02,0.08,11.95,12.07,12.07
48.49,11.53,-0.49,11.91,-0.12,0.12,-0.05,0.02,11.65,12.02,12.02
48.97,11.21,-0.76,11.87,-0.11,0.11,-0.08,-0.04,11.32,11.97,11.97
49.46,11.53,-0.40,11.85,-0.08,0.08,-0.11,-0.10,11.61,11.93,11.93
49.96,11.89,0.03,11.84,-0.03,0.03,-0.14,-0.16,11.92,11.88,11.86
50.46,12.11,0.30,11.84,0.02,-0.02,-0.17,-0.21,12.09,11.82,11.81
50.96,12.32,0.55,11.85,0.07,-0.07,-0.20,-0.27,12.25,11.77,11.77
51.47,12.11,0.39,11.87,0.15,-0.15,-0.23,-0.33,11.96,11.72,11.72
51.99,11.86,0.20,11.91,0.25,-0.25,-0.25,-0.38,11.62,11.67,11.67
52.51,11.85,0.23,11.94,0.32,-0.32,-0.28,-0.44,11.53,11.62,11.62
53.03,11.86,0.28,11.95,0.38,-0.38,-0.31,-0.49,11.48,11.56,11.58
53.56,11.99,0.47,11.98,0.47,-0.47,-0.34,-0.55,11.52,11.51,11.52
54.10,12.09,0.63,12.01,0.55,-0.55,-0.37,-0.60,11.54,11.46,11.46
54.64,12.08,0.67,12.01,0.60,-0.60,-0.40,-0.66,11.48,11.41,11.41
55.18,12.01,0.66,11.96,0.59,-0.59,-0.42,-0.71,11.42,11.37,11.35
55.74,11.83,0.53,11.90,0.58,-0.58,-0.45,-0.76,11.25,11.32,11.30
56.29,11.75,0.49,11.87,0.60,-0.60,-0.48,-0.81,11.15,11.27,11.26
56.86,11.75,0.54,11.87,0.65,-0.65,-0.51,-0.86,11.10,11.22,11.21
57.42,11.80,0.65,11.89,0.72,-0.72,-0.54,-0.91,11.08,11.17,11.15
58.00,11.87,0.76,11.89,0.78,-0.78,-0.57,-0.95,11.09,11.11,11.11
58.58,12.03,0.96,11.87,0.81,-0.81,-0.60,-1.00,11.21,11.06,11.07
59.16,12.07,1.04,11.84,0.83,-0.83,-0.62,-1.04,11.23,11.00,11.02
59.76,11.77,0.80,11.80,0.86,-0.86,-0.65,-1.08,10.91,10.94,10.97
60.35,11.65,0.75,11.79,0.91,-0.91,-0.68,-1.13,10.74,10.89,10.90
60.96,11.65,0.81,11.80,0.97,-0.97,-0.71,-1.17,10.67,10.83,10.84
61.57,11.85,1.08,11.81,1.04,-1.04,-0.74,-1.21,10.81,10.76,10.77
62.18,11.98,1.29,11.81,1.11,-1.11,-0.77,-1.24,10.87,10.70,10.69
62.80,11.88,1.26,11.79,1.15,-1.15,-0.80,-1.28,10.73,10.63,10.62
63.43,11.72,1.17,11.74,1.18,-1.18,-0.83,-1.32,10.54,10.57,10.55
64.07,11.55,1.06,11.71,1.21,-1.21,-0.86,-1.35,10.34,10.50,10.49
64.71,11.55,1.13,11.70,1.27,-1.27,-0.89,-1.38,10.28,10.43,10.42
65.35,11.67,1.31,11.69,1.33,-1.33,-0.92,-1.42,10.35,10.36,10.36
66.01,11.89,1.60,11.66,1.37,-1.37,-0.95,-1.45,10.51,10.29,10.29
66.67,11.84,1.60,11.66,1.44,-1.44,-0.98,-1.48,10.40,10.22,10.24
67.33,11.70,1.55,11.67,1.52,-1.52,-1.01,-1.51,10.18,10.15,10.15
68.01,11.45,1.37,11.65,1.57,-1.57,-1.05,-1.54,9.88,10.08,10.08
68.69,11.45,1.44,11.63,1.62,-1.62,-1.08,-1.56,9.83,10.01,10.01
69.37,11.49,1.54,11.61,1.67,-1.67,-1.11,-1.59,9.82,9.94,9.95
70.07,11.58,1.71,11.58,1.72,-1.72,-1.14,-1.62,9.86,9.87,9.87
70.77,11.87,2.07,11.56,1.77,-1.77,-1.17,-1.65,10.10,9.79,9.80
71.48,11.67,1.95,11.56,1.84,-1.84,-1.21,-1.67,9.83,9.72,9.73
72.19,11.37,1.73,11.54,1.90,-1.90,-1.24,-1.70,9.47,9.64,9.64
72.91,11.45,1.88,11.52,1.94,-1.94,-1.27,-1.73,9.51,9.57,9.57
73.64,11.72,2.23,11.49,1.99,-1.99,-1.31,-1.76,9.72,9.50,9.49
74.38,11.63,2.21,11.49,2.06,-2.06,-1.34,-1.79,9.57,9.43,9.42
75.12,11.25,1.91,11.48,2.12,-2.12,-1.38,-1.82,9.13,9.36,9.34
75.87,11.25,1.97,11.46,2.18,-2.18,-1.41,-1.85,9.07,9.29,9.28
76.63,11.25,2.04,11.41,2.19,-2.19,-1.45,-1.88,9.06,9.22,9.21
77.40,11.37,2.22,11.35,2.20,-2.20,-1.48,-1.91,9.17,9.15,9.15
78.17,11.55,2.47,11.31,2.22,-2.22,-1.52,-1.95,9.33,9.08,9.08
78.95,11.62,2.60,11.28,2.26,-2.26,-1.55,-1.98,9.36,9.02,9.02
79.74,11.27,2.31,11.27,2.32,-2.32,-1.59,-2.02,8.95,8.95,8.95
80.54,11.15,2.26,11.23,2.34,-2.34,-1.63,-2.06,8.81,8.88,8.89
81.35,11.14,2.32,11.19,2.37,-2.37,-1.66,-2.10,8.77,8.82,8.82
82.16,11.11,2.35,11.17,2.42,-2.42,-1.70,-2.14,8.69,8.75,8.76
82.98,11.05,2.36,11.16,2.48,-2.48,-1.74,-2.18,8.57,8.68,8.69
83.81,10.97,2.35,11.16,2.54,-2.54,-1.78,-2.23,8.43,8.61,8.62
84.65,10.95,2.41,11.13,2.58,-2.58,-1.82,-2.27,8.37,8.54,8.54
85.50,11.16,2.70,11.09,2.62,-2.62,-1.86,-2.32,8.54,8.47,8.46
86.35,11.30,2.91,11.05,2.65,-2.65,-1.90,-2.37,8.65,8.40,8.39
87.22,11.11,2.78,11.00,2.67,-2.67,-1.94,-2.42,8.44,8.33,8.33
88.09,10.86,2.61,10.97,2.71,-2.71,-1.98,-2.47,8.15,8.25,8.25
88.97,10.93,2.75,10.97,2.79,-2.79,-2.02,-2.53,8.14,8.18,8.18
89.86,11.26,3.16,10.96,2.85,-2.85,-2.06,-2.59,8.41,8.10,8.10
90.76,10.99,2.97,10.92,2.90,-2.90,-2.10,-2.65,8.09,8.02,8.03
91.66,10.80,2.86,10.88,2.94,-2.94,-2.15,-2.71,7.86,7.94,7.94
92.58,10.75,2.88,10.87,3.01,-3.01,-2.19,-2.77,7.74,7.86,7.87
93.51,10.73,2.95,10.84,3.07,-3.07,-2.23,-2.84,7.66,7.77,7.78
94.44,10.68,2.98,10.79,3.10,-3.10,-2.28,-2.90,7.58,7.69,7.70
95.39,10.62,3.01,10.71,3.11,-3.11,-2.32,-2.97,7.51,7.60,7.61
96.34,10.62,3.10,10.67,3.15,-3.15,-2.37,-3.04,7.47,7.51,7.52
97.30,10.80,3.38,10.64,3.22,-3.22,-2.41,-3.11,7.58,7.42,7.42
98.28,10.85,3.52,10.59,3.26,-3.26,-2.46,-3.19,7.59,7.33,7.33
99.26,10.49,3.27,10.53,3.30,-3.30,-2.50,-3.26,7.19,7.24,7.22
100.25,10.44,3.31,10.50,3.36,-3.36,-2.55,-3.34,7.08,7.14,7.13
101.25,10.55,3.51,10.50,3.45,-3.45,-2.60,-3.41,7.10,7.05,7.04
102.27,10.58,3.63,10.47,3.52,-3.52,-2.64,-3.49,7.06,6.95,6.95
103.29,10.19,3.34,10.38,3.53,-3.53,-2.69,-3.57,6.66,6.86,6.85
104.32,9.99,3.22,10.31,3.54,-3.54,-2.74,-3.64,6.45,6.76,6.77
105.37,10.25,3.58,10.23,3.56,-3.56,-2.79,-3.72,6.69,6.67,6.67
106.42,10.43,3.85,10.15,3.58,-3.58,-2.84,-3.80,6.85,6.58,6.58
107.48,10.17,3.70,10.11,3.63,-3.63,-2.89,-3.88,6.54,6.48,6.47
108.56,10.07,3.67,10.06,3.67,-3.67,-2.94,-3.95,6.40,6.39,6.40
109.64,10.26,3.96,10.00,3.70,-3.70,-2.99,-4.02,6.56,6.30,6.30
110.74,10.01,3.80,9.93,3.72,-3.72,-3.04,-4.10,6.29,6.21,6.21
111.85,9.73,3.61,9.84,3.72,-3.72,-3.09,-4.17,6.01,6.12,6.12
112.97,9.28,3.24,9.78,3.75,-3.75,-3.14,-4.23,5.53,6.03,6.04
114.10,9.43,3.48,9.74,3.79,-3.79,-3.19,-4.30,5.64,5.95,5.95
115.24,9.93,4.07,9.70,3.84,-3.84,-3.24,-4.36,6.09,5.86,5.86
116.39,9.85,4.08,9.65,3.87,-3.87,-3.30,-4.42,5.98,5.78,5.77
117.55,9.88,4.19,9.58,3.88,-3.88,-3.35,-4.47,6.00,5.70,5.69
118.73,9.81,4.21,9.52,3.90,-3.90,-3.40,-4.52,5.91,5.62,5.60
119.92,9.16,3.63,9.49,3.95,-3.95,-3.45,-4.56,5.21,5.54,5.53
121.12,9.03,3.56,9.46,4.00,-4.00,-3.51,-4.60,5.03,5.46,5.47
122.33,9.30,3.91,9.43,4.04,-4.04,-3.56,-4.63,5.26,5.39,5.39
123.55,9.61,4.29,9.44,4.12,-4.12,-3.61,-4.66,5.49,5.31,5.32
124.79,9.73,4.48,9.43,4.19,-4.19,-3.66,-4.68,5.54,5.24,5.25
126.03,9.36,4.19,9.40,4.24,-4.24,-3.72,-4.70,5.12,5.16,5.17
127.29,9.28,4.18,9.32,4.23,-4.23,-3.77,-4.71,5.05,5.09,5.10
128.57,9.22,4.20,9.26,4.24,-4.24,-3.82,-4.72,4.98,5.02,5.02
129.85,9.15,4.20,9.24,4.29,-4.29,-3.88,-4.72,4.86,4.95,4.95
131.15,9.21,4.34,9.20,4.33,-4.33,-3.93,-4.71,4.88,4.88,4.87
132.46,9.40,4.60,9.17,4.37,-4.37,-3.98,-4.71,5.03,4.80,4.80
133.79,9.22,4.49,9.16,4.43,-4.43,-4.03,-4.69,4.79,4.73,4.73
135.12,9.06,4.41,9.11,4.45,-4.45,-4.09,-4.68,4.61,4.66,4.65
136.48,9.16,4.57,9.05,4.46,-4.46,-4.14,-4.66,4.70,4.59,4.59
137.84,8.78,4.25,9.01,4.50,-4.50,-4.19,-4.63,4.28,4.52,4.53
139.22,8.79,4.35,8.97,4.52,-4.52,-4.24,-4.61,4.27,4.45,4.44
140.61,8.86,4.48,8.92,4.55,-4.55,-4.29,-4.58,4.31,4.38,4.38
142.02,9.09,4.78,8.88,4.57,-4.57,-4.34,-4.55,4.52,4.31,4.31
143.44,8.85,4.62,8.84,4.60,-4.60,-4.39,-4.51,4.25,4.24,4.23
144.87,8.58,4.41,8.79,4.62,-4.62,-4.44,-4.48,3.96,4.17,4.17
146.32,8.85,4.74,8.74,4.64,-4.64,-4.49,-4.45,4.21,4.10,4.11
147.78,8.90,4.86,8.69,4.66,-4.66,-4.53,-4.41,4.24,4.04,4.04
149.26,8.69,4.72,8.65,4.68,-4.68,-4.58,-4.38,4.01,3.97,3.97
150.75,8.75,4.86,8.61,4.71,-4.71,-4.62,-4.35,4.04,3.90,3.89
152.26,8.46,4.63,8.56,4.73,-4.73,-4.67,-4.31,3.73,3.83,3.83
153.78,8.11,4.34,8.51,4.75,-4.75,-4.71,-4.28,3.36,3.76,3.77
155.32,8.44,4.74,8.44,4.75,-4.75,-4.75,-4.25,3.69,3.69,3.70
156.88,8.67,5.04,8.38,4.76,-4.76,-4.79,-4.22,3.91,3.62,3.63
158.44,8.38,4.82,8.33,4.77,-4.77,-4.83,-4.20,3.61,3.56,3.56
160.03,8.23,4.74,8.27,4.78,-4.78,-4.87,-4.18,3.45,3.49,3.49
161.63,8.16,4.74,8.20,4.78,-4.78,-4.91,-4.15,3.38,3.42,3.42
163.24,8.09,4.75,8.12,4.78,-4.78,-4.94,-4.13,3.31,3.35,3.34
164.88,8.05,4.77,8.07,4.80,-4.80,-4.98,-4.12,3.25,3.27,3.28
166.53,8.04,4.84,8.03,4.83,-4.83,-5.01,-4.11,3.21,3.20,3.20
168.19,7.98,4.84,7.98,4.85,-4.85,-5.04,-4.09,3.13,3.13,3.14
169.87,7.93,4.86,7.93,4.87,-4.87,-5.07,-4.09,3.06,3.06,3.07
171.57,7.90,4.91,7.87,4.88,-4.88,-5.09,-4.08,3.02,3.00,2.99
173.29,7.95,5.03,7.81,4.88,-4.88,-5.12,-4.08,3.07,2.93,2.92
175.02,7.64,4.77,7.75,4.89,-4.89,-5.14,-4.08,2.75,2.86,2.87
176.77,7.44,4.64,7.70,4.90,-4.90,-5.16,-4.09,2.54,2.80,2.80
178.54,7.80,5.07,7.67,4.93,-4.93,-5.18,-4.10,2.87,2.74,2.73
180.32,7.77,5.10,7.62,4.95,-4.95,-5.20,-4.11,2.82,2.68,2.67
182.13,7.59,4.98,7.58,4.96,-4.96,-5.21,-4.12,2.63,2.62,2.61
183.95,7.46,4.90,7.53,4.97,-4.97,-5.22,-4.14,2.49,2.56,2.56
185.79,7.42,4.92,7.48,4.98,-4.98,-5.23,-4.16,2.44,2.50,2.50
187.65,7.36,4.91,7.43,4.98,-4.98,-5.24,-4.19,2.38,2.45,2.45
189.52,7.53,5.14,7.38,4.99,-4.99,-5.24,-4.21,2.54,2.39,2.39
191.42,7.39,5.04,7.33,4.99,-4.99,-5.25,-4.24,2.40,2.34,2.35
193.33,7.08,4.78,7.28,4.99,-4.99,-5.25,-4.28,2.09,2.29,2.30
195.27,7.25,5.01,7.24,5.00,-5.00,-5.25,-4.31,2.25,2.24,2.24
197.22,7.37,5.18,7.17,4.97,-4.97,-5.24,-4.35,2.40,2.19,2.19
199.19,7.10,4.96,7.08,4.93,-4.93,-5.23,-4.39,2.17,2.14,2.14
201.18,7.01,4.92,7.03,4.93,-4.93,-5.22,-4.43,2.08,2.10,2.09
203.19,6.98,4.93,7.00,4.95,-4.95,-5.21,-4.47,2.03,2.05,2.05
205.23,6.92,4.91,6.95,4.95,-4.95,-5.20,-4.51,1.97,2.00,2.01
207.28,6.86,4.89,6.89,4.94,-4.94,-5.18,-4.56,1.92,1.96,1.97
209.35,6.79,4.87,6.83,4.92,-4.92,-5.16,-4.61,1.87,1.91,1.92
211.44,6.73,4.86,6.76,4.89,-4.89,-5.14,-4.65,1.84,1.87,1.87
213.56,6.65,4.82,6.70,4.88,-4.88,-5.12,-4.70,1.77,1.82,1.83
215.69,6.59,4.80,6.66,4.88,-4.88,-5.09,-4.74,1.71,1.78,1.79
217.85,6.53,4.78,6.59,4.85,-4.85,-5.07,-4.79,1.68,1.74,1.75
220.03,6.72,5.02,6.52,4.82,-4.82,-5.04,-4.83,1.90,1.71,1.70
222.23,6.75,5.09,6.48,4.81,-4.81,-5.00,-4.87,1.94,1.67,1.66
224.45,6.46,4.83,6.43,4.79,-4.79,-4.97,-4.91,1.67,1.64,1.63
226.70,6.23,4.63,6.36,4.76,-4.76,-4.93,-4.94,1.47,1.61,1.60
228.96,6.22,4.64,6.31,4.73,-4.73,-4.90,-4.97,1.49,1.58,1.58
231.25,6.17,4.61,6.26,4.71,-4.71,-4.86,-5.00,1.46,1.55,1.55
233.57,6.13,4.61,6.20,4.67,-4.67,-4.82,-5.02,1.46,1.53,1.52
235.90,6.18,4.67,6.14,4.62,-4.62,-4.77,-5.04,1.56,1.51,1.51
238.26,6.24,4.75,6.08,4.58,-4.58,-4.73,-5.05,1.66,1.50,1.49
240.64,5.91,4.42,6.02,4.54,-4.54,-4.68,-5.06,1.37,1.48,1.49
243.05,5.85,4.38,5.96,4.49,-4.49,-4.63,-5.06,1.36,1.47,1.47
245.48,6.07,4.62,5.89,4.43,-4.43,-4.58,-5.05,1.64,1.46,1.45
247.93,5.90,4.46,5.86,4.41,-4.41,-4.53,-5.03,1.49,1.45,1.44
250.41,5.66,4.22,5.84,4.41,-4.41,-4.48,-5.01,1.25,1.44,1.44
252.92,5.90,4.46,5.79,4.37,-4.37,-4.43,-4.99,1.53,1.42,1.44
255.45,5.74,4.33,5.73,4.32,-4.32,-4.37,-4.95,1.42,1.41,1.41
258.00,5.53,4.12,5.69,4.29,-4.29,-4.32,-4.91,1.24,1.40,1.41
260.58,5.67,4.28,5.62,4.24,-4.24,-4.26,-4.86,1.43,1.39,1.39
263.19,5.65,4.27,5.57,4.20,-4.20,-4.20,-4.81,1.45,1.37,1.38
265.82,5.51,4.15,5.51,4.15,-4.15,-4.14,-4.75,1.36,1.36,1.36
268.48,5.42,4.07,5.44,4.10,-4.10,-4.08,-4.68,1.32,1.34,1.35
271.16,5.44,4.12,5.37,4.04,-4.04,-4.02,-4.61,1.40,1.32,1.32
273.87,5.51,4.20,5.29,3.98,-3.98,-3.96,-4.53,1.53,1.31,1.31
276.61,5.16,3.87,5.23,3.93,-3.93,-3.90,-4.45,1.23,1.30,1.29
279.38,4.96,3.70,5.16,3.88,-3.88,-3.84,-4.37,1.08,1.28,1.26
282.17,5.18,3.92,5.08,3.81,-3.81,-3.78,-4.28,1.37,1.27,1.26
284.99,5.09,3.84,5.04,3.77,-3.77,-3.71,-4.19,1.31,1.26,1.25
287.84,4.82,3.57,4.98,3.73,-3.73,-3.65,-4.10,1.09,1.25,1.25
290.72,4.90,3.67,4.90,3.65,-3.65,-3.58,-4.00,1.24,1.24,1.23
293.63,4.70,3.47,4.84,3.61,-3.61,-3.52,-3.90,1.09,1.24,1.23
296.57,4.64,3.40,4.79,3.56,-3.56,-3.45,-3.80,1.08,1.23,1.24
299.53,4.90,3.67,4.73,3.50,-3.50,-3.39,-3.71,1.40,1.23,1.23
302.53,4.75,3.52,4.67,3.44,-3.44,-3.32,-3.61,1.31,1.22,1.23
305.55,4.65,3.43,4.62,3.40,-3.40,-3.26,-3.51,1.25,1.22,1.22
308.61,4.61,3.38,4.58,3.36,-3.36,-3.19,-3.41,1.25,1.21,1.23
311.69,4.65,3.44,4.52,3.31,-3.31,-3.12,-3.31,1.34,1.21,1.21
314.81,4.52,3.31,4.46,3.26,-3.26,-3.06,-3.21,1.26,1.21,1.21
317.96,4.26,3.07,4.42,3.21,-3.21,-2.99,-3.11,1.05,1.20,1.19
321.14,4.23,3.03,4.36,3.16,-3.16,-2.92,-3.01,1.07,1.20,1.20
324.35,4.42,3.23,4.29,3.10,-3.10,-2.86,-2.92,1.32,1.19,1.19
327.59,4.13,2.93,4.22,3.03,-3.03,-2.79,-2.82,1.10,1.19,1.20
330.87,4.04,2.85,4.14,2.95,-2.95,-2.72,-2.73,1.09,1.19,1.19
334.18,4.21,3.03,4.06,2.87,-2.87,-2.66,-2.64,1.34,1.18,1.18
337.52,4.04,2.86,3.99,2.80,-2.80,-2.59,-2.55,1.24,1.18,1.18
340.90,3.91,2.73,3.92,2.74,-2.74,-2.52,-2.46,1.17,1.18,1.18
344.30,3.96,2.78,3.86,2.68,-2.68,-2.46,-2.37,1.28,1.18,1.18
347.75,3.80,2.61,3.79,2.61,-2.61,-2.39,-2.29,1.19,1.18,1.19
351.23,3.61,2.44,3.72,2.54,-2.54,-2.32,-2.20,1.07,1.18,1.17
354.74,3.58,2.39,3.66,2.47,-2.47,-2.26,-2.12,1.11,1.19,1.19
358.28,3.54,2.36,3.59,2.40,-2.40,-2.19,-2.04,1.14,1.19,1.18
361.87,3.49,2.30,3.51,2.32,-2.32,-2.12,-1.96,1.17,1.19,1.19
365.49,3.50,2.30,3.45,2.25,-2.25,-2.06,-1.88,1.25,1.20,1.20
369.14,3.45,2.25,3.37,2.18,-2.18,-1.99,-1.81,1.27,1.20,1.20
372.83,3.31,2.10,3.31,2.11,-2.11,-1.93,-1.74,1.20,1.20,1.21
376.56,3.39,2.18,3.26,2.06,-2.06,-1.86,-1.66,1.33,1.20,1.21
380.33,3.16,1.96,3.20,2.00,-2.00,-1.79,-1.59,1.16,1.20,1.20
384.13,2.95,1.74,3.14,1.94,-1.94,-1.73,-1.52,1.01,1.20,1.21
387.97,3.10,1.89,3.10,1.91,-1.91,-1.66,-1.46,1.19,1.20,1.21
391.85,3.06,1.86,3.04,1.85,-1.85,-1.60,-1.39,1.21,1.19,1.20
395.77,2.95,1.76,2.97,1.78,-1.78,-1.53,-1.33,1.17,1.19,1.19
399.73,2.88,1.69,2.90,1.72,-1.72,-1.47,-1.26,1.16,1.18,1.19
403.72,2.87,1.67,2.82,1.65,-1.65,-1.40,-1.20,1.22,1.18,1.19
407.76,2.88,1.71,2.75,1.58,-1.58,-1.34,-1.14,1.30,1.17,1.17
411.84,2.80,1.63,2.68,1.52,-1.52,-1.27,-1.08,1.28,1.17,1.17
415.96,2.60,1.43,2.62,1.46,-1.46,-1.21,-1.02,1.14,1.17,1.17
420.12,2.56,1.40,2.56,1.39,-1.39,-1.15,-0.96,1.17,1.17,1.16
424.32,2.57,1.41,2.51,1.33,-1.33,-1.08,-0.90,1.24,1.18,1.16
428.56,2.36,1.18,2.45,1.27,-1.27,-1.02,-0.85,1.09,1.19,1.18
432.85,2.18,0.98,2.39,1.18,-1.18,-0.95,-0.79,1.00,1.21,1.20
437.18,2.34,1.13,2.34,1.10,-1.10,-0.89,-0.74,1.24,1.23,1.21
441.55,2.29,1.04,2.29,1.03,-1.03,-0.82,-0.68,1.26,1.26,1.25
445.96,2.15,0.87,2.25,0.95,-0.95,-0.76,-0.63,1.20,1.30,1.28
450.42,2.31,0.99,2.23,0.89,-0.89,-0.70,-0.58,1.42,1.34,1.32
454.93,2.27,0.90,2.20,0.81,-0.81,-0.63,-0.53,1.46,1.39,1.37
459.48,2.19,0.76,2.18,0.74,-0.74,-0.57,-0.48,1.45,1.44,1.43
464.07,2.13,0.63,2.17,0.68,-0.68,-0.50,-0.43,1.45,1.49,1.50
468.71,2.13,0.58,2.15,0.61,-0.61,-0.44,-0.38,1.52,1.54,1.55
473.40,2.12,0.51,2.12,0.53,-0.53,-0.38,-0.33,1.59,1.60,1.61
478.13,2.11,0.45,2.12,0.47,-0.47,-0.31,-0.28,1.64,1.65,1.66
482.91,2.13,0.42,2.09,0.39,-0.39,-0.25,-0.23,1.74,1.70,1.71
487.74,2.09,0.34,2.05,0.30,-0.30,-0.19,-0.18,1.79,1.75,1.75
492.62,2.06,0.27,2.01,0.23,-0.23,-0.12,-0.13,1.83,1.78,1.79
