frequency,raw,error,smoothed,error_smoothed,equalization,parametric_eq,fixed_band_eq,equalized_raw,equalized_smoothed,target
20.00,9.83,0.71,9.83,0.71,-0.71,-1.23,-2.35,9.11,9.11,9.12
20.20,9.92,0.76,9.92,0.76,-0.76,-1.26,-2.42,9.15,9.16,9.16
20.40,10.02,0.82,10.01,0.82,-0.82,-1.30,-2.49,9.20,9.20,9.20
20.61,10.11,0.88,10.11,0.88,-0.88,-1.34,-2.56,9.23,9.23,9.23
20.81,10.21,0.94,10.20,0.94,-0.94,-1.38,-2.63,9.27,9.27,9.27
21.02,10.30,0.99,10.30,1.00,-1.00,-1.42,-2.70,9.29,9.30,9.31
21.23,10.40,1.07,10.40,1.07,-1.07,-1.46,-2.78,9.32,9.32,9.33
21.44,10.50,1.15,10.49,1.15,-1.15,-1.50,-2.86,9.35,9.35,9.35
21.66,10.59,1.22,10.59,1.23,-1.23,-1.54,-2.94,9.36,9.36,9.37
21.87,10.69,1.31,10.69,1.31,-1.31,-1.59,-3.02,9.38,9.38,9.38
22.09,10.79,1.39,10.79,1.40,-1.40,-1.64,-3.11,9.39,9.39,9.40
22.31,10.90,1.49,10.89,1.49,-1.49,-1.69,-3.19,9.41,9.41,9.41
22.54,11.00,1.58,11.00,1.58,-1.58,-1.74,-3.28,9.41,9.42,9.42
22.76,11.10,1.67,11.10,1.68,-1.68,-1.79,-3.38,9.42,9.42,9.43
22.99,11.21,1.78,11.20,1.78,-1.77,-1.85,-3.47,9.43,9.43,9.43
23.22,11.31,1.87,11.31,1.87,-1.87,-1.90,-3.57,9.44,9.44,9.44
23.45,11.42,1.97,11.41,1.97,-1.96,-1.96,-3.67,9.45,9.45,9.45
23.69,11.52,2.06,11.52,2.06,-2.06,-2.03,-3.77,9.45,9.46,9.46
23.92,11.63,2.16,11.63,2.16,-2.16,-2.09,-3.87,9.47,9.47,9.47
24.16,11.74,2.25,11.74,2.25,-2.26,-2.16,-3.97,9.48,9.48,9.49
24.40,11.85,2.34,11.85,2.35,-2.36,-2.23,-4.08,9.49,9.49,9.51
24.65,11.96,2.46,11.96,2.46,-2.46,-2.30,-4.19,9.50,9.50,9.50
24.89,12.07,2.56,12.07,2.56,-2.56,-2.38,-4.30,9.51,9.51,9.51
25.14,12.19,2.67,12.19,2.67,-2.67,-2.45,-4.41,9.52,9.52,9.52
25.39,12.30,2.77,12.30,2.77,-2.77,-2.54,-4.52,9.53,9.53,9.53
25.65,12.42,2.87,12.42,2.88,-2.88,-2.62,-4.63,9.54,9.54,9.55
25.91,12.54,2.99,12.54,2.99,-2.99,-2.71,-4.74,9.55,9.55,9.55
26.16,12.66,3.10,12.66,3.10,-3.10,-2.80,-4.85,9.56,9.56,9.56
26.43,12.78,3.21,12.78,3.21,-3.21,-2.90,-4.96,9.57,9.57,9.57
26.69,12.90,3.32,12.90,3.32,-3.32,-3.00,-5.07,9.58,9.58,9.58
26.96,13.02,3.42,13.02,3.43,-3.43,-3.11,-5.18,9.59,9.59,9.60
27.23,13.15,3.54,13.14,3.54,-3.55,-3.22,-5.28,9.60,9.60,9.61
27.50,13.27,3.66,13.27,3.66,-3.66,-3.33,-5.39,9.60,9.60,9.61
27.77,13.40,3.79,13.40,3.78,-3.78,-3.45,-5.49,9.62,9.61,9.61
28.05,13.52,3.89,13.52,3.90,-3.90,-3.58,-5.58,9.62,9.62,9.63
28.33,13.66,4.03,13.65,4.02,-4.02,-3.71,-5.67,9.64,9.63,9.63
28.62,13.79,4.15,13.79,4.15,-4.14,-3.84,-5.76,9.64,9.64,9.64
28.90,13.92,4.27,13.92,4.28,-4.27,-3.98,-5.84,9.65,9.65,9.65
29.19,14.06,4.41,14.05,4.40,-4.40,-4.13,-5.91,9.66,9.66,9.65
29.48,14.19,4.51,14.19,4.52,-4.53,-4.28,-5.98,9.66,9.66,9.68
29.78,14.33,4.66,14.33,4.66,-4.66,-4.44,-6.04,9.66,9.66,9.67
30.08,14.47,4.79,14.47,4.80,-4.81,-4.61,-6.09,9.66,9.67,9.68
30.38,14.63,4.96,14.63,4.95,-4.95,-4.78,-6.13,9.68,9.68,9.68
30.68,14.80,5.10,14.79,5.10,-5.11,-4.95,-6.17,9.69,9.69,9.70
30.99,14.96,5.26,14.96,5.27,-5.26,-5.14,-6.19,9.69,9.70,9.70
31.30,15.13,5.43,15.13,5.43,-5.43,-5.33,-6.21,9.70,9.70,9.70
31.61,15.31,5.60,15.30,5.60,-5.59,-5.52,-6.22,9.71,9.71,9.71
31.93,15.47,5.76,15.48,5.77,-5.76,-5.73,-6.22,9.71,9.72,9.72
32.24,15.66,5.94,15.65,5.93,-5.93,-5.93,-6.21,9.73,9.72,9.72
32.57,15.83,6.09,15.83,6.10,-6.10,-6.14,-6.19,9.72,9.73,9.74
32.89,16.01,6.27,16.01,6.27,-6.27,-6.35,-6.16,9.74,9.74,9.74
33.22,16.19,6.44,16.19,6.44,-6.44,-6.57,-6.13,9.75,9.75,9.75
33.55,16.37,6.61,16.37,6.61,-6.61,-6.78,-6.09,9.76,9.75,9.76
33.89,16.54,6.77,16.54,6.78,-6.78,-7.00,-6.05,9.76,9.76,9.77
34.23,16.71,6.94,16.71,6.94,-6.94,-7.21,-5.99,9.76,9.77,9.77
34.57,16.88,7.10,16.87,7.10,-7.10,-7.42,-5.94,9.77,9.77,9.78
34.92,17.04,7.26,17.03,7.25,-7.26,-7.62,-5.88,9.78,9.77,9.78
35.27,17.19,7.40,17.19,7.41,-7.41,-7.80,-5.81,9.78,9.78,9.79
35.62,17.33,7.54,17.33,7.55,-7.55,-7.98,-5.75,9.78,9.79,9.79
35.97,17.48,7.69,17.47,7.68,-7.68,-8.14,-5.68,9.80,9.79,9.79
36.33,17.59,7.79,17.59,7.80,-7.79,-8.28,-5.61,9.80,9.80,9.80
36.70,17.69,7.90,17.69,7.90,-7.90,-8.39,-5.53,9.79,9.80,9.79
37.06,17.79,7.99,17.78,7.99,-7.99,-8.48,-5.46,9.80,9.79,9.80
37.43,17.85,8.05,17.86,8.06,-8.06,-8.55,-5.39,9.79,9.79,9.80
37.81,17.92,8.12,17.91,8.12,-8.12,-8.59,-5.32,9.80,9.79,9.80
38.19,17.96,8.16,17.95,8.16,-8.16,-8.60,-5.25,9.80,9.79,9.80
38.57,17.97,8.18,17.97,8.19,-8.18,-8.58,-5.18,9.79,9.79,9.79
38.95,17.98,8.19,17.97,8.19,-8.18,-8.54,-5.11,9.80,9.79,9.79
39.34,17.95,8.17,17.95,8.17,-8.16,-8.47,-5.04,9.78,9.79,9.78
39.74,17.91,8.13,17.91,8.13,-8.13,-8.37,-4.98,9.78,9.78,9.78
40.14,17.85,8.07,17.85,8.07,-8.07,-8.26,-4.92,9.78,9.78,9.78
40.54,17.77,7.99,17.77,8.00,-7.99,-8.13,-4.86,9.77,9.77,9.78
40.94,17.68,7.91,17.67,7.90,-7.90,-7.99,-4.80,9.78,9.77,9.77
41.35,17.56,7.79,17.56,7.79,-7.79,-7.83,-4.75,9.76,9.77,9.77
41.76,17.44,7.67,17.44,7.67,-7.67,-7.67,-4.70,9.77,9.77,9.77
42.18,17.31,7.54,17.30,7.54,-7.54,-7.50,-4.65,9.77,9.77,9.77
42.60,17.16,7.39,17.16,7.39,-7.39,-7.33,-4.61,9.76,9.77,9.77
43.03,17.01,7.24,17.00,7.24,-7.24,-7.15,-4.57,9.77,9.76,9.77
43.46,16.84,7.07,16.84,7.08,-7.08,-6.98,-4.53,9.75,9.76,9.77
43.90,16.67,6.92,16.67,6.92,-6.92,-6.80,-4.50,9.75,9.75,9.75
44.33,16.50,6.75,16.50,6.75,-6.75,-6.63,-4.47,9.75,9.75,9.75
44.78,16.33,6.59,16.32,6.59,-6.58,-6.47,-4.44,9.75,9.74,9.74
45.23,16.15,6.41,16.15,6.41,-6.41,-6.31,-4.42,9.74,9.74,9.74
45.68,15.97,6.23,15.97,6.24,-6.24,-6.15,-4.40,9.73,9.73,9.74
46.13,15.80,6.07,15.80,6.07,-6.07,-6.00,-4.38,9.72,9.73,9.73
46.60,15.64,5.90,15.64,5.91,-5.91,-5.85,-4.37,9.73,9.72,9.74
47.06,15.48,5.75,15.48,5.75,-5.76,-5.71,-4.36,9.72,9.72,9.73
47.53,15.33,5.61,15.33,5.60,-5.61,-5.58,-4.35,9.72,9.72,9.72
48.01,15.18,5.45,15.18,5.46,-5.47,-5.45,-4.35,9.71,9.71,9.73
48.49,15.04,5.33,15.04,5.33,-5.34,-5.33,-4.35,9.70,9.70,9.71
48.97,14.91,5.22,14.91,5.22,-5.22,-5.21,-4.35,9.69,9.69,9.69
49.46,14.78,5.10,14.78,5.11,-5.10,-5.10,-4.36,9.68,9.68,9.68
49.96,14.66,5.00,14.66,4.99,-4.99,-5.00,-4.36,9.67,9.66,9.66
50.46,14.54,4.88,14.54,4.89,-4.89,-4.90,-4.37,9.65,9.65,9.66
50.96,14.42,4.78,14.42,4.79,-4.79,-4.81,-4.39,9.63,9.63,9.64
51.47,14.31,4.70,14.30,4.69,-4.69,-4.72,-4.40,9.61,9.61,9.61
51.99,14.19,4.59,14.19,4.60,-4.60,-4.64,-4.42,9.59,9.59,9.60
52.51,14.09,4.50,14.09,4.50,-4.50,-4.56,-4.43,9.58,9.58,9.59
53.03,13.98,4.41,13.98,4.41,-4.41,-4.49,-4.45,9.57,9.57,9.57
53.56,13.87,4.31,13.87,4.32,-4.31,-4.42,-4.47,9.56,9.56,9.56
54.10,13.75,4.22,13.75,4.21,-4.21,-4.36,-4.49,9.54,9.54,9.53
54.64,13.62,4.10,13.62,4.11,-4.10,-4.30,-4.51,9.52,9.52,9.52
55.18,13.48,3.99,13.48,3.99,-3.99,-4.24,-4.53,9.49,9.49,9.49
55.74,13.34,3.88,13.34,3.87,-3.86,-4.19,-4.55,9.47,9.47,9.46
56.29,13.19,3.73,13.18,3.74,-3.74,-4.14,-4.56,9.45,9.45,9.46
56.86,13.03,3.60,13.03,3.60,-3.60,-4.09,-4.58,9.42,9.43,9.43
57.42,12.87,3.47,12.87,3.47,-3.47,-4.05,-4.60,9.40,9.40,9.40
58.00,12.71,3.33,12.71,3.33,-3.33,-4.01,-4.61,9.38,9.38,9.38
58.58,12.55,3.19,12.55,3.19,-3.18,-3.97,-4.62,9.36,9.36,9.36
59.16,12.39,3.05,12.39,3.05,-3.05,-3.94,-4.63,9.34,9.34,9.34
59.76,12.23,2.91,12.23,2.91,-2.91,-3.91,-4.63,9.31,9.31,9.32
60.35,12.07,2.78,12.07,2.78,-2.79,-3.88,-4.63,9.28,9.28,9.29
60.96,11.92,2.66,11.92,2.67,-2.67,-3.85,-4.63,9.25,9.24,9.26
61.57,11.78,2.57,11.78,2.56,-2.57,-3.83,-4.63,9.21,9.21,9.21
62.18,11.65,2.48,11.65,2.48,-2.48,-3.80,-4.62,9.17,9.17,9.17
62.80,11.54,2.39,11.54,2.40,-2.40,-3.78,-4.61,9.14,9.14,9.15
63.43,11.45,2.35,11.44,2.35,-2.34,-3.77,-4.60,9.10,9.10,9.10
64.07,11.37,2.31,11.37,2.31,-2.31,-3.75,-4.58,9.06,9.06,9.06
64.71,11.31,2.28,11.31,2.29,-2.29,-3.74,-4.55,9.02,9.02,9.03
65.35,11.27,2.28,11.27,2.28,-2.29,-3.72,-4.53,8.97,8.98,8.99
66.01,11.26,2.31,11.26,2.31,-2.32,-3.71,-4.50,8.94,8.94,8.95
66.67,11.28,2.36,11.28,2.36,-2.37,-3.70,-4.47,8.90,8.90,8.92
67.33,11.32,2.44,11.32,2.44,-2.45,-3.69,-4.44,8.87,8.87,8.88
68.01,11.38,2.54,11.38,2.55,-2.55,-3.68,-4.40,8.83,8.84,8.84
68.69,11.47,2.67,11.46,2.67,-2.67,-3.68,-4.36,8.80,8.80,8.80
69.37,11.57,2.81,11.56,2.81,-2.81,-3.67,-4.32,8.76,8.75,8.76
70.07,11.67,2.95,11.68,2.96,-2.97,-3.67,-4.28,8.70,8.71,8.72
70.77,11.81,3.13,11.81,3.13,-3.14,-3.67,-4.23,8.67,8.67,8.68
71.48,11.96,3.31,11.95,3.31,-3.32,-3.67,-4.19,8.64,8.64,8.65
72.19,12.11,3.51,12.11,3.51,-3.50,-3.66,-4.14,8.61,8.61,8.60
72.91,12.27,3.70,12.26,3.70,-3.69,-3.66,-4.10,8.58,8.57,8.57
73.64,12.42,3.89,12.41,3.89,-3.88,-3.67,-4.05,8.54,8.54,8.53
74.38,12.56,4.06,12.56,4.07,-4.06,-3.67,-4.01,8.49,8.50,8.50
75.12,12.70,4.24,12.70,4.24,-4.24,-3.67,-3.97,8.45,8.46,8.46
75.87,12.84,4.41,12.84,4.41,-4.41,-3.67,-3.92,8.42,8.42,8.43
76.63,12.97,4.57,12.97,4.57,-4.57,-3.68,-3.88,8.39,8.39,8.40
77.40,13.09,4.72,13.09,4.72,-4.72,-3.68,-3.84,8.37,8.37,8.37
78.17,13.20,4.86,13.20,4.86,-4.85,-3.69,-3.80,8.35,8.34,8.34
78.95,13.29,4.98,13.29,4.98,-4.97,-3.69,-3.76,8.32,8.32,8.31
79.74,13.36,5.07,13.36,5.07,-5.07,-3.70,-3.73,8.29,8.29,8.29
80.54,13.42,5.15,13.41,5.15,-5.15,-3.70,-3.69,8.27,8.26,8.27
81.35,13.45,5.21,13.45,5.22,-5.21,-3.71,-3.66,8.23,8.24,8.24
82.16,13.48,5.27,13.48,5.26,-5.26,-3.72,-3.63,8.22,8.21,8.21
82.98,13.49,5.29,13.48,5.29,-5.29,-3.72,-3.60,8.20,8.19,8.20
83.81,13.47,5.30,13.47,5.31,-5.31,-3.73,-3.58,8.16,8.17,8.17
84.65,13.45,5.31,13.45,5.31,-5.31,-3.74,-3.56,8.14,8.14,8.14
85.50,13.42,5.29,13.42,5.29,-5.29,-3.75,-3.54,8.12,8.12,8.13
86.35,13.38,5.27,13.37,5.27,-5.27,-3.75,-3.52,8.11,8.10,8.11
87.22,13.31,5.22,13.31,5.23,-5.23,-3.76,-3.50,8.08,8.08,8.09
88.09,13.25,5.18,13.24,5.18,-5.18,-3.77,-3.49,8.07,8.06,8.07
88.97,13.17,5.12,13.17,5.12,-5.12,-3.78,-3.48,8.05,8.05,8.05
89.86,13.08,5.04,13.08,5.05,-5.05,-3.79,-3.48,8.03,8.03,8.04
90.76,12.99,4.98,12.98,4.97,-4.97,-3.80,-3.47,8.02,8.01,8.01
91.66,12.87,4.88,12.87,4.88,-4.88,-3.81,-3.47,7.99,7.99,7.99
92.58,12.75,4.78,12.75,4.78,-4.78,-3.82,-3.47,7.97,7.97,7.97
93.51,12.63,4.67,12.63,4.67,-4.67,-3.82,-3.48,7.95,7.95,7.96
94.44,12.50,4.56,12.50,4.56,-4.56,-3.83,-3.48,7.94,7.93,7.94
95.39,12.36,4.44,12.36,4.44,-4.44,-3.84,-3.49,7.92,7.92,7.92
96.34,12.21,4.32,12.21,4.32,-4.31,-3.85,-3.50,7.89,7.90,7.89
97.30,12.06,4.20,12.06,4.20,-4.19,-3.86,-3.51,7.87,7.87,7.86
98.28,11.91,4.08,11.90,4.07,-4.06,-3.87,-3.53,7.84,7.84,7.83
99.26,11.75,3.94,11.75,3.94,-3.95,-3.88,-3.55,7.80,7.80,7.81
100.25,11.60,3.82,11.59,3.82,-3.84,-3.88,-3.57,7.76,7.75,7.78
101.25,11.45,3.70,11.45,3.71,-3.74,-3.89,-3.59,7.70,7.71,7.75
102.27,11.33,3.62,11.35,3.64,-3.65,-3.90,-3.61,7.68,7.70,7.71
103.29,11.27,3.59,11.25,3.58,-3.57,-3.91,-3.63,7.70,7.68,7.68
104.32,11.18,3.53,11.17,3.52,-3.50,-3.91,-3.66,7.68,7.66,7.65
105.37,11.07,3.46,11.07,3.46,-3.44,-3.92,-3.68,7.62,7.63,7.61
106.42,10.96,3.40,10.96,3.40,-3.40,-3.93,-3.71,7.56,7.57,7.56
107.48,10.87,3.34,10.87,3.35,-3.36,-3.93,-3.73,7.51,7.51,7.53
108.56,10.79,3.32,10.79,3.32,-3.33,-3.94,-3.76,7.46,7.46,7.47
109.64,10.73,3.31,10.73,3.31,-3.31,-3.95,-3.78,7.41,7.41,7.42
110.74,10.67,3.30,10.67,3.30,-3.30,-3.95,-3.81,7.36,7.36,7.37
111.85,10.63,3.31,10.62,3.31,-3.31,-3.96,-3.83,7.32,7.31,7.32
112.97,10.58,3.33,10.58,3.33,-3.33,-3.96,-3.86,7.25,7.25,7.25
114.10,10.56,3.36,10.56,3.36,-3.36,-3.97,-3.88,7.19,7.19,7.20
115.24,10.54,3.40,10.54,3.41,-3.41,-3.97,-3.90,7.13,7.13,7.14
116.39,10.54,3.47,10.53,3.46,-3.47,-3.97,-3.92,7.07,7.06,7.07
117.55,10.54,3.53,10.54,3.53,-3.54,-3.98,-3.94,7.00,6.99,7.01
118.73,10.55,3.60,10.56,3.61,-3.62,-3.98,-3.95,6.93,6.94,6.95
119.92,10.59,3.69,10.59,3.70,-3.70,-3.98,-3.96,6.88,6.89,6.90
121.12,10.64,3.80,10.63,3.79,-3.79,-3.98,-3.97,6.85,6.84,6.84
122.33,10.67,3.88,10.67,3.88,-3.87,-3.98,-3.98,6.79,6.79,6.79
123.55,10.70,3.96,10.70,3.96,-3.95,-3.98,-3.98,6.74,6.74,6.74
124.79,10.72,4.03,10.72,4.03,-4.03,-3.98,-3.98,6.69,6.69,6.69
126.03,10.73,4.09,10.73,4.09,-4.08,-3.98,-3.98,6.64,6.64,6.64
127.29,10.72,4.13,10.72,4.14,-4.13,-3.98,-3.97,6.59,6.59,6.59
128.57,10.70,4.17,10.69,4.16,-4.15,-3.98,-3.96,6.54,6.54,6.53
129.85,10.66,4.17,10.65,4.17,-4.16,-3.98,-3.95,6.50,6.49,6.49
131.15,10.59,4.15,10.61,4.17,-4.15,-3.98,-3.93,6.43,6.45,6.44
132.46,10.55,4.15,10.53,4.14,-4.13,-3.97,-3.92,6.42,6.40,6.40
133.79,10.47,4.11,10.45,4.10,-4.10,-3.97,-3.90,6.37,6.36,6.36
135.12,10.34,4.02,10.36,4.04,-4.05,-3.96,-3.87,6.29,6.31,6.32
136.48,10.27,3.99,10.25,3.98,-3.99,-3.96,-3.85,6.28,6.26,6.28
137.84,10.15,3.91,10.16,3.93,-3.93,-3.95,-3.82,6.22,6.23,6.24
139.22,10.07,3.88,10.06,3.87,-3.87,-3.95,-3.80,6.20,6.19,6.19
140.61,9.97,3.82,9.95,3.80,-3.80,-3.94,-3.77,6.16,6.15,6.15
142.02,9.83,3.70,9.85,3.73,-3.74,-3.93,-3.74,6.09,6.11,6.13
143.44,9.77,3.68,9.75,3.67,-3.68,-3.93,-3.71,6.08,6.07,6.09
144.87,9.66,3.61,9.66,3.62,-3.63,-3.92,-3.68,6.03,6.04,6.05
146.32,9.59,3.58,9.59,3.58,-3.57,-3.91,-3.65,6.02,6.02,6.01
147.78,9.50,3.52,9.50,3.52,-3.52,-3.90,-3.62,5.98,5.98,5.98
149.26,9.42,3.47,9.41,3.48,-3.46,-3.89,-3.59,5.95,5.95,5.95
150.75,9.31,3.42,9.31,3.42,-3.41,-3.88,-3.56,5.90,5.90,5.89
152.26,9.23,3.38,9.22,3.37,-3.36,-3.86,-3.54,5.86,5.86,5.85
153.78,9.12,3.30,9.12,3.32,-3.32,-3.85,-3.51,5.80,5.81,5.82
155.32,9.04,3.28,9.03,3.27,-3.27,-3.84,-3.49,5.76,5.76,5.76
156.88,8.94,3.21,8.94,3.22,-3.23,-3.82,-3.46,5.70,5.71,5.73
158.44,8.88,3.20,8.87,3.20,-3.20,-3.81,-3.44,5.67,5.66,5.68
160.03,8.80,3.17,8.80,3.18,-3.18,-3.79,-3.42,5.61,5.62,5.63
161.63,8.75,3.17,8.75,3.17,-3.17,-3.78,-3.41,5.57,5.58,5.58
163.24,8.71,3.17,8.70,3.16,-3.17,-3.76,-3.39,5.54,5.53,5.54
164.88,8.65,3.15,8.66,3.17,-3.17,-3.74,-3.38,5.48,5.49,5.50
166.53,8.63,3.18,8.62,3.18,-3.18,-3.73,-3.37,5.45,5.45,5.45
168.19,8.60,3.20,8.59,3.19,-3.19,-3.71,-3.36,5.41,5.40,5.40
169.87,8.55,3.20,8.55,3.21,-3.20,-3.69,-3.36,5.35,5.36,5.35
171.57,8.51,3.20,8.51,3.21,-3.21,-3.67,-3.36,5.30,5.30,5.31
173.29,8.47,3.22,8.46,3.21,-3.21,-3.65,-3.36,5.25,5.24,5.25
175.02,8.40,3.20,8.41,3.21,-3.22,-3.62,-3.36,5.18,5.19,5.20
176.77,8.36,3.22,8.35,3.22,-3.22,-3.60,-3.37,5.14,5.14,5.14
178.54,8.30,3.21,8.30,3.22,-3.21,-3.58,-3.37,5.09,5.09,5.09
180.32,8.25,3.22,8.24,3.21,-3.20,-3.55,-3.39,5.05,5.04,5.03
182.13,8.18,3.20,8.16,3.19,-3.18,-3.53,-3.40,4.99,4.98,4.98
183.95,8.07,3.15,8.08,3.16,-3.16,-3.50,-3.42,4.90,4.92,4.92
185.79,7.99,3.12,7.99,3.13,-3.14,-3.48,-3.44,4.85,4.85,4.87
187.65,7.91,3.11,7.91,3.10,-3.11,-3.45,-3.46,4.80,4.80,4.80
189.52,7.83,3.08,7.83,3.08,-3.08,-3.42,-3.48,4.75,4.75,4.75
191.42,7.75,3.05,7.74,3.05,-3.04,-3.40,-3.51,4.71,4.70,4.70
193.33,7.65,3.00,7.65,3.01,-3.01,-3.37,-3.53,4.64,4.65,4.65
195.27,7.56,2.96,7.56,2.97,-2.97,-3.34,-3.56,4.59,4.59,4.60
197.22,7.48,2.94,7.47,2.94,-2.93,-3.31,-3.60,4.55,4.54,4.54
199.19,7.39,2.90,7.39,2.90,-2.89,-3.28,-3.63,4.49,4.49,4.49
201.18,7.31,2.87,7.31,2.87,-2.86,-3.24,-3.66,4.45,4.44,4.44
203.19,7.23,2.82,7.23,2.83,-2.83,-3.21,-3.70,4.39,4.39,4.41
205.23,7.16,2.81,7.16,2.80,-2.81,-3.18,-3.73,4.35,4.35,4.35
207.28,7.10,2.77,7.10,2.78,-2.80,-3.14,-3.77,4.30,4.30,4.33
209.35,7.05,2.78,7.05,2.79,-2.79,-3.11,-3.81,4.26,4.26,4.27
211.44,7.02,2.80,7.01,2.79,-2.79,-3.07,-3.84,4.22,4.22,4.22
213.56,6.99,2.81,6.99,2.81,-2.80,-3.04,-3.87,4.18,4.18,4.18
215.69,6.97,2.81,6.97,2.82,-2.82,-3.00,-3.91,4.14,4.15,4.16
217.85,6.96,2.84,6.96,2.84,-2.85,-2.96,-3.94,4.11,4.11,4.12
220.03,6.96,2.88,6.96,2.87,-2.88,-2.92,-3.97,4.08,4.08,4.08
222.23,6.96,2.91,6.96,2.91,-2.91,-2.89,-3.99,4.04,4.05,4.05
224.45,6.97,2.94,6.97,2.95,-2.94,-2.85,-4.01,4.02,4.02,4.03
226.70,6.98,2.98,6.98,2.98,-2.97,-2.81,-4.03,4.00,4.00,4.00
228.96,6.99,3.02,6.98,3.01,-3.00,-2.76,-4.04,3.98,3.98,3.97
231.25,6.99,3.03,6.99,3.04,-3.03,-2.72,-4.05,3.96,3.96,3.96
233.57,6.99,3.05,6.99,3.05,-3.05,-2.68,-4.05,3.94,3.94,3.94
235.90,6.99,3.06,6.99,3.06,-3.06,-2.64,-4.05,3.92,3.92,3.93
238.26,6.99,3.07,6.99,3.07,-3.08,-2.59,-4.04,3.91,3.91,3.92
240.64,6.99,3.08,6.99,3.08,-3.08,-2.55,-4.02,3.90,3.90,3.91
243.05,6.99,3.08,6.99,3.09,-3.09,-2.50,-3.99,3.90,3.90,3.91
245.48,6.99,3.09,6.99,3.09,-3.09,-2.45,-3.96,3.90,3.90,3.90
247.93,6.99,3.09,6.99,3.09,-3.09,-2.41,-3.92,3.90,3.90,3.90
250.41,6.99,3.09,6.99,3.09,-3.09,-2.36,-3.87,3.90,3.90,3.90
252.92,6.99,3.08,6.99,3.08,-3.08,-2.31,-3.81,3.91,3.91,3.91
255.45,6.99,3.07,6.99,3.07,-3.08,-2.26,-3.74,3.91,3.91,3.92
258.00,6.99,3.06,6.99,3.06,-3.07,-2.21,-3.67,3.92,3.92,3.93
260.58,6.99,3.06,6.99,3.06,-3.06,-2.16,-3.58,3.93,3.93,3.93
263.19,6.99,3.05,6.99,3.05,-3.05,-2.10,-3.49,3.94,3.94,3.94
265.82,6.99,3.04,6.99,3.04,-3.04,-2.05,-3.39,3.95,3.95,3.95
268.48,6.99,3.02,6.99,3.03,-3.03,-2.00,-3.29,3.96,3.96,3.97
271.16,7.00,3.01,7.00,3.02,-3.02,-1.94,-3.17,3.97,3.97,3.99
273.87,7.01,3.02,7.00,3.01,-3.01,-1.88,-3.05,3.99,3.99,3.99
276.61,7.01,2.99,7.01,3.00,-3.00,-1.83,-2.93,4.01,4.01,4.02
279.38,7.01,2.99,7.01,2.99,-2.99,-1.77,-2.80,4.02,4.02,4.02
282.17,7.00,2.96,7.00,2.96,-2.97,-1.71,-2.66,4.03,4.03,4.04
284.99,6.99,2.94,6.99,2.94,-2.94,-1.65,-2.52,4.05,4.05,4.05
287.84,6.97,2.91,6.97,2.91,-2.91,-1.59,-2.37,4.06,4.06,4.06
290.72,6.94,2.87,6.94,2.87,-2.86,-1.53,-2.23,4.08,4.08,4.07
293.63,6.90,2.81,6.90,2.81,-2.80,-1.47,-2.07,4.09,4.09,4.09
296.57,6.84,2.73,6.84,2.74,-2.73,-1.40,-1.92,4.11,4.11,4.11
299.53,6.77,2.66,6.77,2.66,-2.65,-1.34,-1.76,4.12,4.12,4.11
302.53,6.68,2.56,6.68,2.56,-2.55,-1.27,-1.60,4.13,4.13,4.12
305.55,6.58,2.44,6.57,2.45,-2.44,-1.21,-1.44,4.14,4.14,4.14
308.61,6.47,2.32,6.46,2.32,-2.32,-1.14,-1.27,4.15,4.14,4.15
311.69,6.34,2.18,6.35,2.19,-2.19,-1.07,-1.11,4.14,4.16,4.16
314.81,6.24,2.05,6.23,2.06,-2.06,-1.00,-0.94,4.18,4.17,4.19
317.96,6.11,1.93,6.11,1.93,-1.93,-0.93,-0.77,4.18,4.18,4.18
321.14,5.98,1.79,5.98,1.79,-1.79,-0.86,-0.60,4.19,4.19,4.19
324.35,5.84,1.65,5.84,1.65,-1.65,-0.78,-0.43,4.19,4.19,4.19
327.59,5.70,1.50,5.71,1.51,-1.52,-0.71,-0.26,4.18,4.19,4.20
330.87,5.58,1.38,5.57,1.38,-1.38,-0.63,-0.09,4.20,4.19,4.20
334.18,5.45,1.25,5.45,1.25,-1.25,-0.56,0.09,4.20,4.20,4.20
337.52,5.31,1.10,5.32,1.11,-1.11,-0.48,0.26,4.19,4.20,4.21
340.90,5.20,0.99,5.18,0.98,-0.98,-0.40,0.44,4.21,4.20,4.21
344.30,5.05,0.84,5.05,0.85,-0.86,-0.32,0.61,4.19,4.20,4.21
347.75,4.93,0.72,4.93,0.72,-0.73,-0.23,0.79,4.20,4.20,4.21
351.23,4.80,0.59,4.80,0.59,-0.60,-0.15,0.97,4.20,4.20,4.21
354.74,4.68,0.47,4.67,0.47,-0.46,-0.06,1.14,4.22,4.21,4.21
358.28,4.53,0.34,4.53,0.34,-0.32,0.03,1.32,4.20,4.21,4.19
361.87,4.39,0.20,4.38,0.19,-0.18,0.11,1.50,4.21,4.20,4.19
365.49,4.22,0.03,4.22,0.04,-0.04,0.21,1.68,4.18,4.19,4.19
369.14,4.06,-0.12,4.07,-0.11,0.11,0.30,1.86,4.17,4.18,4.18
372.83,3.92,-0.26,3.90,-0.27,0.26,0.39,2.05,4.18,4.17,4.18
376.56,3.74,-0.43,3.74,-0.42,0.42,0.49,2.23,4.15,4.16,4.17
380.33,3.58,-0.58,3.58,-0.58,0.57,0.59,2.41,4.15,4.15,4.16
384.13,3.42,-0.73,3.42,-0.73,0.72,0.69,2.60,4.14,4.14,4.15
387.97,3.26,-0.88,3.26,-0.88,0.88,0.79,2.78,4.13,4.14,4.14
391.85,3.11,-1.02,3.10,-1.03,1.03,0.90,2.97,4.14,4.14,4.13
395.77,2.95,-1.19,2.94,-1.18,1.19,1.00,3.15,4.14,4.13,4.14
399.73,2.78,-1.35,2.78,-1.34,1.35,1.11,3.34,4.12,4.13,4.13
403.72,2.62,-1.50,2.62,-1.50,1.51,1.22,3.52,4.12,4.12,4.12
407.76,2.45,-1.66,2.45,-1.66,1.67,1.34,3.71,4.11,4.11,4.11
411.84,2.28,-1.84,2.27,-1.83,1.83,1.46,3.89,4.11,4.10,4.12
415.96,2.10,-2.00,2.10,-2.00,1.99,1.57,4.07,4.09,4.09,4.10
420.12,1.93,-2.17,1.93,-2.17,2.16,1.70,4.25,4.09,4.09,4.10
424.32,1.76,-2.34,1.77,-2.32,2.32,1.82,4.43,4.08,4.09,4.10
428.56,1.62,-2.47,1.60,-2.49,2.49,1.95,4.61,4.11,4.10,4.09
432.85,1.44,-2.65,1.43,-2.65,2.66,2.08,4.79,4.10,4.10,4.09
437.18,1.25,-2.84,1.26,-2.83,2.84,2.21,4.96,4.08,4.10,4.09
441.55,1.09,-3.01,1.08,-3.01,3.01,2.35,5.12,4.10,4.09,4.10
445.96,0.91,-3.19,0.91,-3.19,3.19,2.49,5.28,4.10,4.09,4.10
450.42,0.72,-3.37,0.73,-3.36,3.37,2.63,5.44,4.08,4.10,4.09
454.93,0.57,-3.53,0.55,-3.54,3.54,2.78,5.59,4.11,4.09,4.10
459.48,0.37,-3.73,0.38,-3.72,3.72,2.93,5.73,4.08,4.09,4.10
464.07,0.21,-3.90,0.21,-3.89,3.88,3.09,5.87,4.09,4.10,4.11
468.71,0.06,-4.06,0.05,-4.06,4.05,3.24,5.99,4.11,4.09,4.12
473.40,-0.11,-4.22,-0.10,-4.22,4.21,3.41,6.11,4.10,4.11,4.11
478.13,-0.25,-4.37,-0.25,-4.36,4.37,3.57,6.22,4.12,4.12,4.12
482.91,-0.39,-4.51,-0.39,-4.51,4.52,3.74,6.31,4.13,4.13,4.12
487.74,-0.53,-4.66,-0.54,-4.67,4.68,3.92,6.40,4.14,4.14,4.13
492.62,-0.69,-4.83,-0.69,-4.83,4.83,4.10,6.47,4.13,4.13,4.14
497.55,-0.85,-4.99,-0.84,-4.98,4.98,4.28,6.53,4.13,4.14,4.14
502.52,-0.99,-5.14,-0.99,-5.14,5.13,4.47,6.59,4.14,4.14,4.15
507.55,-1.13,-5.28,-1.14,-5.28,5.28,4.67,6.63,4.15,4.15,4.15
512.62,-1.28,-5.43,-1.28,-5.43,5.44,4.86,6.65,4.15,4.15,4.15
