frequency,raw,error,smoothed,error_smoothed,equalization,parametric_eq,fixed_band_eq,equalized_raw,equalized_smoothed,target
20.00,-5.17,-12.86,-5.10,-12.81,12.81,12.73,4.74,7.64,7.72,7.69
20.20,-5.10,-12.79,-5.06,-12.76,12.76,12.67,4.86,7.67,7.71,7.69
20.40,-5.03,-12.72,-5.01,-12.71,12.71,12.61,4.99,7.68,7.70,7.69
20.61,-4.95,-12.64,-4.97,-12.66,12.66,12.54,5.12,7.71,7.69,7.69
20.81,-4.88,-12.57,-4.92,-12.60,12.60,12.47,5.25,7.72,7.68,7.69
21.02,-4.81,-12.50,-4.86,-12.53,12.53,12.38,5.38,7.72,7.67,7.69
21.23,-4.74,-12.41,-4.81,-12.46,12.46,12.30,5.52,7.73,7.66,7.67
21.44,-4.69,-12.35,-4.75,-12.39,12.39,12.21,5.66,7.70,7.64,7.66
21.66,-4.64,-12.28,-4.69,-12.32,12.32,12.12,5.81,7.68,7.63,7.64
21.87,-4.60,-12.22,-4.62,-12.24,12.24,12.02,5.96,7.64,7.61,7.62
22.09,-4.55,-12.16,-4.55,-12.15,12.15,11.92,6.12,7.60,7.60,7.61
22.31,-4.50,-12.08,-4.48,-12.06,12.06,11.82,6.28,7.56,7.58,7.58
22.54,-4.45,-12.01,-4.41,-11.97,11.97,11.71,6.44,7.52,7.56,7.56
22.76,-4.38,-11.92,-4.34,-11.87,11.87,11.61,6.61,7.50,7.54,7.54
22.99,-4.30,-11.81,-4.26,-11.77,11.77,11.50,6.78,7.47,7.51,7.51
23.22,-4.22,-11.70,-4.17,-11.66,11.66,11.39,6.95,7.44,7.49,7.48
23.45,-4.11,-11.56,-4.08,-11.55,11.55,11.28,7.13,7.44,7.47,7.45
23.69,-4.01,-11.46,-3.99,-11.44,11.44,11.17,7.32,7.42,7.45,7.44
23.92,-3.89,-11.31,-3.89,-11.31,11.31,11.06,7.51,7.43,7.43,7.42
24.16,-3.77,-11.18,-3.79,-11.19,11.19,10.95,7.70,7.42,7.41,7.41
24.40,-3.66,-11.05,-3.68,-11.07,11.07,10.84,7.90,7.41,7.39,7.39
24.65,-3.55,-10.92,-3.58,-10.95,10.95,10.73,8.10,7.40,7.37,7.37
24.89,-3.45,-10.80,-3.48,-10.83,10.83,10.62,8.30,7.39,7.35,7.35
25.14,-3.36,-10.70,-3.39,-10.72,10.72,10.51,8.51,7.36,7.33,7.34
25.39,-3.28,-10.60,-3.30,-10.61,10.61,10.40,8.72,7.34,7.32,7.32
25.65,-3.20,-10.51,-3.21,-10.51,10.51,10.29,8.93,7.31,7.30,7.31
25.91,-3.12,-10.40,-3.13,-10.41,10.41,10.19,9.15,7.29,7.29,7.28
26.16,-3.05,-10.31,-3.05,-10.31,10.31,10.08,9.36,7.27,7.27,7.26
26.43,-2.98,-10.23,-2.97,-10.22,10.22,9.98,9.58,7.24,7.25,7.25
26.69,-2.92,-10.15,-2.89,-10.13,10.13,9.88,9.80,7.21,7.24,7.23
26.96,-2.84,-10.06,-2.82,-10.04,10.04,9.78,10.01,7.20,7.22,7.22
27.23,-2.77,-9.98,-2.75,-9.95,9.95,9.68,10.23,7.18,7.21,7.21
27.50,-2.70,-9.90,-2.68,-9.87,9.87,9.59,10.44,7.17,7.19,7.20
27.77,-2.62,-9.79,-2.61,-9.79,9.79,9.49,10.64,7.17,7.18,7.18
28.05,-2.54,-9.70,-2.55,-9.71,9.71,9.40,10.84,7.17,7.16,7.16
28.33,-2.47,-9.61,-2.49,-9.63,9.63,9.31,11.03,7.17,7.15,7.14
28.62,-2.40,-9.53,-2.42,-9.56,9.56,9.22,11.21,7.16,7.13,7.13
28.90,-2.34,-9.46,-2.37,-9.49,9.49,9.13,11.38,7.15,7.12,7.12
29.19,-2.30,-9.40,-2.31,-9.42,9.42,9.05,11.54,7.12,7.11,7.10
29.48,-2.25,-9.34,-2.26,-9.35,9.35,8.97,11.67,7.10,7.09,7.10
29.78,-2.21,-9.29,-2.21,-9.29,9.29,8.88,11.79,7.08,7.08,7.08
30.08,-2.17,-9.24,-2.16,-9.23,9.23,8.81,11.89,7.06,7.06,7.07
30.38,-2.14,-9.19,-2.12,-9.17,9.17,8.73,11.97,7.03,7.05,7.05
30.68,-2.09,-9.13,-2.07,-9.11,9.11,8.65,12.03,7.02,7.03,7.04
30.99,-2.04,-9.06,-2.03,-9.05,9.05,8.58,12.06,7.01,7.02,7.02
31.30,-2.00,-9.00,-1.99,-9.00,9.00,8.51,12.07,7.00,7.00,7.00
31.61,-1.96,-8.95,-1.96,-8.94,8.94,8.43,12.05,6.98,6.98,6.99
31.93,-1.92,-8.89,-1.92,-8.88,8.88,8.37,12.02,6.96,6.96,6.97
32.24,-1.89,-8.82,-1.88,-8.83,8.83,8.30,11.95,6.94,6.94,6.93
32.57,-1.85,-8.77,-1.85,-8.77,8.77,8.23,11.87,6.92,6.92,6.92
32.89,-1.82,-8.73,-1.82,-8.72,8.72,8.17,11.77,6.90,6.90,6.91
33.22,-1.78,-8.66,-1.79,-8.67,8.67,8.11,11.65,6.89,6.88,6.88
33.55,-1.75,-8.61,-1.77,-8.63,8.63,8.05,11.51,6.88,6.86,6.86
33.89,-1.73,-8.57,-1.75,-8.59,8.59,7.99,11.36,6.86,6.84,6.84
34.23,-1.71,-8.53,-1.74,-8.56,8.56,7.93,11.20,6.85,6.82,6.82
34.57,-1.69,-8.48,-1.73,-8.52,8.52,7.87,11.03,6.83,6.80,6.79
34.92,-1.69,-8.46,-1.72,-8.49,8.49,7.81,10.85,6.80,6.77,6.77
35.27,-1.69,-8.45,-1.71,-8.46,8.46,7.76,10.66,6.77,6.75,6.76
35.62,-1.68,-8.41,-1.69,-8.43,8.43,7.70,10.47,6.75,6.73,6.73
35.97,-1.68,-8.39,-1.67,-8.39,8.39,7.65,10.28,6.71,6.71,6.71
36.33,-1.67,-8.36,-1.65,-8.34,8.34,7.60,10.08,6.67,6.69,6.69
36.70,-1.66,-8.33,-1.61,-8.28,8.28,7.55,9.88,6.62,6.67,6.67
37.06,-1.63,-8.27,-1.57,-8.22,8.22,7.50,9.69,6.59,6.65,6.64
37.43,-1.58,-8.21,-1.51,-8.14,8.14,7.45,9.49,6.56,6.62,6.63
37.81,-1.51,-8.11,-1.45,-8.05,8.05,7.40,9.30,6.54,6.60,6.60
38.19,-1.41,-7.99,-1.37,-7.95,7.95,7.35,9.11,6.54,6.58,6.58
38.57,-1.31,-7.87,-1.28,-7.84,7.84,7.30,8.92,6.53,6.56,6.56
38.95,-1.19,-7.73,-1.19,-7.73,7.73,7.25,8.73,6.54,6.54,6.54
39.34,-1.07,-7.58,-1.09,-7.61,7.61,7.20,8.55,6.54,6.52,6.51
39.74,-0.96,-7.45,-0.98,-7.48,7.48,7.15,8.38,6.52,6.50,6.49
40.14,-0.85,-7.33,-0.88,-7.36,7.36,7.10,8.21,6.51,6.48,6.48
40.54,-0.75,-7.20,-0.77,-7.23,7.23,7.05,8.04,6.48,6.46,6.45
40.94,-0.64,-7.08,-0.67,-7.11,7.11,7.01,7.88,6.47,6.44,6.44
41.35,-0.55,-6.96,-0.57,-6.99,6.99,6.96,7.72,6.44,6.42,6.41
41.76,-0.46,-6.86,-0.49,-6.88,6.88,6.91,7.56,6.42,6.40,6.40
42.18,-0.40,-6.78,-0.40,-6.78,6.78,6.85,7.42,6.38,6.38,6.39
42.60,-0.34,-6.70,-0.33,-6.69,6.69,6.80,7.27,6.35,6.36,6.36
43.03,-0.28,-6.63,-0.27,-6.60,6.60,6.75,7.13,6.32,6.34,6.35
43.46,-0.22,-6.54,-0.21,-6.53,6.53,6.70,7.00,6.31,6.32,6.32
43.90,-0.16,-6.45,-0.16,-6.46,6.46,6.64,6.87,6.30,6.30,6.29
44.33,-0.11,-6.38,-0.12,-6.40,6.40,6.59,6.75,6.29,6.28,6.27
44.78,-0.08,-6.33,-0.09,-6.35,6.35,6.53,6.63,6.27,6.26,6.25
45.23,-0.05,-6.27,-0.07,-6.30,6.30,6.48,6.51,6.25,6.24,6.22
45.68,-0.03,-6.23,-0.05,-6.26,6.26,6.42,6.40,6.24,6.21,6.20
46.13,-0.02,-6.20,-0.04,-6.23,6.23,6.36,6.30,6.21,6.19,6.18
46.60,-0.01,-6.18,-0.03,-6.19,6.19,6.30,6.20,6.18,6.17,6.17
47.06,0.00,-6.15,-0.01,-6.16,6.16,6.24,6.10,6.16,6.15,6.15
47.53,0.00,-6.13,-0.00,-6.13,6.13,6.17,6.01,6.13,6.12,6.13
48.01,-0.01,-6.13,0.00,-6.10,6.10,6.11,5.92,6.09,6.10,6.12
48.49,-0.03,-6.11,0.01,-6.07,6.07,6.04,5.83,6.04,6.08,6.09
48.97,-0.04,-6.09,0.01,-6.04,6.04,5.98,5.75,6.00,6.05,6.05
49.46,-0.02,-6.04,0.02,-6.01,6.01,5.91,5.67,5.99,6.03,6.02
49.96,0.02,-5.96,0.04,-5.97,5.97,5.84,5.60,5.99,6.00,5.99
50.46,0.06,-5.92,0.05,-5.93,5.93,5.77,5.53,5.99,5.98,5.98
50.96,0.10,-5.86,0.07,-5.89,5.89,5.70,5.46,5.99,5.95,5.96
51.47,0.13,-5.79,0.09,-5.84,5.84,5.63,5.39,5.97,5.93,5.92
51.99,0.13,-5.76,0.11,-5.79,5.79,5.56,5.33,5.92,5.90,5.89
52.51,0.13,-5.75,0.14,-5.73,5.73,5.48,5.27,5.86,5.87,5.88
53.03,0.14,-5.71,0.17,-5.67,5.67,5.41,5.21,5.81,5.85,5.85
53.56,0.20,-5.62,0.21,-5.61,5.61,5.34,5.15,5.81,5.82,5.82
54.10,0.29,-5.51,0.26,-5.53,5.53,5.26,5.09,5.82,5.79,5.80
54.64,0.32,-5.45,0.32,-5.45,5.45,5.18,5.04,5.77,5.77,5.77
55.18,0.32,-5.42,0.38,-5.36,5.36,5.11,4.98,5.68,5.74,5.74
55.74,0.36,-5.35,0.44,-5.28,5.28,5.03,4.93,5.64,5.71,5.71
56.29,0.45,-5.23,0.49,-5.19,5.19,4.95,4.88,5.64,5.68,5.69
56.86,0.54,-5.11,0.55,-5.10,5.10,4.87,4.82,5.64,5.66,5.65
57.42,0.60,-5.02,0.61,-5.02,5.02,4.79,4.77,5.62,5.63,5.62
58.00,0.65,-4.95,0.67,-4.93,4.93,4.71,4.72,5.58,5.60,5.60
58.58,0.77,-4.80,0.73,-4.84,4.84,4.63,4.66,5.61,5.57,5.57
59.16,0.91,-4.63,0.77,-4.76,4.76,4.55,4.61,5.68,5.54,5.54
59.76,0.95,-4.57,0.81,-4.69,4.69,4.47,4.55,5.64,5.51,5.52
60.35,0.91,-4.57,0.85,-4.63,4.63,4.39,4.49,5.54,5.48,5.48
60.96,0.86,-4.60,0.89,-4.56,4.56,4.31,4.43,5.42,5.45,5.46
61.57,0.88,-4.54,0.92,-4.50,4.50,4.23,4.37,5.38,5.41,5.42
62.18,0.92,-4.46,0.94,-4.44,4.44,4.15,4.31,5.36,5.38,5.38
62.80,0.94,-4.41,0.97,-4.38,4.38,4.07,4.24,5.33,5.35,5.35
63.43,0.96,-4.35,0.99,-4.33,4.33,3.99,4.18,5.29,5.32,5.31
64.07,0.98,-4.30,1.02,-4.27,4.27,3.92,4.11,5.25,5.29,5.28
64.71,1.01,-4.24,1.05,-4.21,4.21,3.84,4.03,5.22,5.26,5.26
65.35,1.04,-4.18,1.08,-4.15,4.15,3.76,3.96,5.19,5.23,5.22
66.01,1.09,-4.11,1.11,-4.08,4.08,3.68,3.89,5.17,5.20,5.20
66.67,1.16,-4.00,1.16,-4.00,4.00,3.60,3.81,5.16,5.16,5.16
67.33,1.22,-3.92,1.21,-3.92,3.92,3.53,3.73,5.14,5.13,5.14
68.01,1.27,-3.83,1.27,-3.84,3.84,3.45,3.65,5.11,5.10,5.10
68.69,1.33,-3.74,1.32,-3.76,3.76,3.38,3.57,5.09,5.07,5.08
69.37,1.39,-3.65,1.37,-3.67,3.67,3.30,3.49,5.06,5.04,5.04
70.07,1.44,-3.57,1.42,-3.59,3.59,3.23,3.41,5.03,5.01,5.01
70.77,1.48,-3.50,1.47,-3.50,3.50,3.15,3.32,4.99,4.97,4.98
71.48,1.52,-3.42,1.51,-3.42,3.42,3.08,3.24,4.94,4.94,4.94
72.19,1.55,-3.35,1.56,-3.34,3.34,3.01,3.15,4.89,4.90,4.90
72.91,1.60,-3.26,1.60,-3.26,3.26,2.93,3.07,4.86,4.86,4.86
73.64,1.63,-3.19,1.63,-3.19,3.19,2.86,2.98,4.82,4.82,4.82
74.38,1.66,-3.12,1.66,-3.12,3.12,2.79,2.90,4.78,4.78,4.78
75.12,1.70,-3.02,1.69,-3.04,3.04,2.72,2.81,4.75,4.73,4.73
75.87,1.73,-2.96,1.72,-2.97,2.97,2.65,2.73,4.70,4.69,4.69
76.63,1.75,-2.90,1.74,-2.90,2.90,2.58,2.64,4.65,4.65,4.65
77.40,1.77,-2.83,1.77,-2.83,2.83,2.52,2.56,4.60,4.60,4.60
78.17,1.79,-2.75,1.80,-2.75,2.75,2.45,2.47,4.55,4.55,4.54
78.95,1.82,-2.69,1.83,-2.68,2.68,2.38,2.39,4.50,4.50,4.51
79.74,1.83,-2.63,1.86,-2.60,2.60,2.32,2.31,4.43,4.45,4.46
80.54,1.86,-2.54,1.89,-2.51,2.51,2.25,2.23,4.37,4.40,4.41
81.35,1.90,-2.45,1.92,-2.43,2.43,2.19,2.15,4.33,4.35,4.35
82.16,1.93,-2.37,1.95,-2.35,2.35,2.12,2.07,4.28,4.30,4.30
82.98,1.97,-2.28,1.98,-2.27,2.27,2.06,1.99,4.24,4.25,4.25
83.81,2.00,-2.18,2.00,-2.19,2.19,2.00,1.91,4.19,4.19,4.18
84.65,2.03,-2.10,2.02,-2.11,2.11,1.93,1.83,4.14,4.13,4.13
85.50,2.07,-2.01,2.05,-2.03,2.03,1.87,1.76,4.10,4.08,4.08
86.35,2.10,-1.92,2.07,-1.95,1.95,1.81,1.69,4.05,4.02,4.02
87.22,2.12,-1.84,2.08,-1.88,1.88,1.75,1.61,4.00,3.96,3.96
88.09,2.12,-1.78,2.10,-1.81,1.81,1.69,1.54,3.93,3.90,3.90
88.97,2.11,-1.74,2.11,-1.74,1.74,1.63,1.47,3.85,3.84,3.85
89.86,2.10,-1.69,2.11,-1.67,1.67,1.57,1.40,3.77,3.78,3.79
90.76,2.11,-1.60,2.11,-1.61,1.61,1.52,1.33,3.72,3.72,3.71
91.66,2.10,-1.56,2.11,-1.55,1.55,1.46,1.26,3.65,3.66,3.66
92.58,2.10,-1.49,2.11,-1.49,1.49,1.40,1.19,3.59,3.60,3.59
93.51,2.10,-1.44,2.11,-1.42,1.42,1.34,1.13,3.53,3.54,3.54
94.44,2.12,-1.36,2.11,-1.36,1.36,1.29,1.06,3.48,3.47,3.48
95.39,2.12,-1.29,2.11,-1.29,1.29,1.23,0.99,3.41,3.41,3.41
96.34,2.11,-1.23,2.12,-1.22,1.22,1.18,0.93,3.33,3.34,3.34
97.30,2.11,-1.16,2.13,-1.14,1.14,1.12,0.87,3.26,3.27,3.27
98.28,2.12,-1.08,2.14,-1.06,1.06,1.07,0.80,3.19,3.20,3.21
99.26,2.13,-1.00,2.15,-0.98,0.98,1.01,0.74,3.11,3.13,3.13
100.25,2.16,-0.90,2.17,-0.89,0.89,0.96,0.68,3.05,3.06,3.06
101.25,2.18,-0.81,2.19,-0.80,0.80,0.90,0.62,2.99,2.99,2.99
102.27,2.21,-0.71,2.21,-0.71,0.71,0.85,0.56,2.92,2.92,2.92
103.29,2.23,-0.61,2.23,-0.62,0.62,0.79,0.50,2.85,2.85,2.84
104.32,2.26,-0.51,2.25,-0.52,0.52,0.74,0.44,2.78,2.77,2.77
105.37,2.28,-0.42,2.27,-0.43,0.43,0.69,0.39,2.71,2.70,2.70
106.42,2.29,-0.33,2.29,-0.33,0.33,0.63,0.33,2.62,2.62,2.63
107.48,2.32,-0.23,2.32,-0.23,0.23,0.58,0.27,2.55,2.55,2.55
108.56,2.34,-0.13,2.34,-0.13,0.13,0.53,0.22,2.47,2.47,2.47
109.64,2.36,-0.03,2.36,-0.03,0.03,0.48,0.16,2.39,2.39,2.39
110.74,2.38,0.06,2.38,0.06,-0.06,0.42,0.11,2.32,2.32,2.33
111.85,2.39,0.14,2.39,0.16,-0.16,0.37,0.05,2.23,2.24,2.25
112.97,2.39,0.24,2.41,0.25,-0.25,0.32,0.00,2.14,2.16,2.15
114.10,2.40,0.32,2.41,0.33,-0.33,0.26,-0.05,2.07,2.08,2.08
115.24,2.42,0.41,2.42,0.41,-0.41,0.21,-0.10,2.01,2.01,2.01
116.39,2.43,0.51,2.41,0.48,-0.48,0.16,-0.15,1.95,1.93,1.92
117.55,2.42,0.57,2.41,0.55,-0.55,0.10,-0.20,1.87,1.85,1.85
118.73,2.42,0.65,2.40,0.62,-0.62,0.05,-0.25,1.80,1.78,1.77
119.92,2.40,0.69,2.38,0.67,-0.67,-0.00,-0.29,1.73,1.71,1.71
121.12,2.36,0.73,2.36,0.72,-0.72,-0.06,-0.34,1.64,1.63,1.63
122.33,2.33,0.77,2.33,0.76,-0.76,-0.11,-0.39,1.57,1.56,1.56
123.55,2.30,0.80,2.29,0.80,-0.80,-0.16,-0.43,1.50,1.49,1.50
124.79,2.26,0.84,2.26,0.84,-0.84,-0.22,-0.48,1.43,1.42,1.43
126.03,2.21,0.85,2.22,0.87,-0.87,-0.27,-0.52,1.34,1.35,1.36
127.29,2.17,0.88,2.18,0.90,-0.90,-0.33,-0.56,1.28,1.29,1.29
128.57,2.12,0.91,2.14,0.92,-0.92,-0.38,-0.60,1.20,1.22,1.21
129.85,2.08,0.93,2.09,0.93,-0.93,-0.44,-0.65,1.15,1.16,1.15
131.15,2.02,0.92,2.04,0.94,-0.94,-0.49,-0.69,1.08,1.10,1.10
132.46,1.97,0.94,1.99,0.95,-0.95,-0.55,-0.73,1.02,1.04,1.03
133.79,1.93,0.95,1.93,0.95,-0.95,-0.61,-0.77,0.98,0.98,0.98
135.12,1.89,0.97,1.88,0.95,-0.95,-0.66,-0.81,0.94,0.92,0.92
136.48,1.87,1.00,1.82,0.95,-0.95,-0.72,-0.85,0.92,0.87,0.87
137.84,1.83,1.00,1.76,0.94,-0.94,-0.78,-0.89,0.89,0.82,0.83
139.22,1.76,1.00,1.71,0.94,-0.94,-0.84,-0.93,0.83,0.77,0.76
140.61,1.65,0.94,1.66,0.93,-0.93,-0.90,-0.97,0.72,0.73,0.71
142.02,1.57,0.88,1.61,0.92,-0.92,-0.96,-1.01,0.65,0.69,0.69
143.44,1.52,0.87,1.56,0.92,-0.92,-1.02,-1.05,0.61,0.64,0.65
144.87,1.49,0.89,1.52,0.91,-0.91,-1.08,-1.09,0.58,0.60,0.60
146.32,1.47,0.91,1.48,0.92,-0.92,-1.14,-1.13,0.55,0.57,0.56
147.78,1.44,0.91,1.46,0.93,-0.93,-1.20,-1.17,0.51,0.53,0.54
149.26,1.44,0.94,1.44,0.95,-0.95,-1.27,-1.22,0.49,0.49,0.50
150.75,1.42,0.97,1.44,0.98,-0.98,-1.33,-1.26,0.44,0.46,0.45
152.26,1.43,1.01,1.46,1.04,-1.04,-1.39,-1.30,0.39,0.42,0.42
153.78,1.45,1.06,1.49,1.10,-1.10,-1.46,-1.35,0.35,0.39,0.39
155.32,1.47,1.12,1.53,1.17,-1.17,-1.53,-1.40,0.30,0.35,0.35
156.88,1.51,1.19,1.56,1.25,-1.25,-1.59,-1.45,0.26,0.32,0.32
158.44,1.56,1.28,1.60,1.31,-1.31,-1.66,-1.49,0.25,0.28,0.28
160.03,1.63,1.39,1.62,1.38,-1.38,-1.73,-1.54,0.25,0.25,0.24
161.63,1.70,1.50,1.65,1.44,-1.44,-1.79,-1.60,0.26,0.21,0.20
163.24,1.78,1.61,1.69,1.51,-1.51,-1.86,-1.65,0.27,0.18,0.18
164.88,1.87,1.72,1.73,1.59,-1.59,-1.93,-1.71,0.28,0.14,0.15
166.53,1.93,1.82,1.78,1.67,-1.67,-2.00,-1.76,0.26,0.11,0.11
168.19,1.92,1.85,1.82,1.75,-1.75,-2.07,-1.82,0.17,0.07,0.07
169.87,1.82,1.79,1.87,1.83,-1.83,-2.14,-1.88,-0.01,0.03,0.03
171.57,1.75,1.75,1.91,1.92,-1.92,-2.21,-1.94,-0.17,-0.00,0.00
173.29,1.77,1.80,1.96,2.00,-2.00,-2.29,-2.00,-0.23,-0.04,-0.03
175.02,1.88,1.95,2.01,2.09,-2.09,-2.36,-2.07,-0.21,-0.08,-0.07
176.77,2.00,2.12,2.05,2.18,-2.18,-2.43,-2.14,-0.17,-0.12,-0.12
178.54,2.13,2.29,2.10,2.26,-2.26,-2.50,-2.20,-0.13,-0.16,-0.16
180.32,2.26,2.46,2.16,2.36,-2.36,-2.58,-2.27,-0.10,-0.20,-0.20
182.13,2.34,2.58,2.22,2.46,-2.46,-2.65,-2.35,-0.11,-0.24,-0.24
183.95,2.31,2.60,2.28,2.56,-2.56,-2.72,-2.42,-0.25,-0.28,-0.28
185.79,2.33,2.65,2.35,2.67,-2.67,-2.79,-2.50,-0.34,-0.32,-0.32
187.65,2.41,2.78,2.42,2.78,-2.78,-2.87,-2.57,-0.37,-0.36,-0.37
189.52,2.48,2.88,2.50,2.89,-2.89,-2.94,-2.65,-0.41,-0.39,-0.40
191.42,2.55,2.98,2.56,2.99,-2.99,-3.01,-2.73,-0.44,-0.43,-0.43
193.33,2.61,3.07,2.62,3.08,-3.08,-3.08,-2.81,-0.47,-0.46,-0.46
195.27,2.66,3.15,2.66,3.16,-3.16,-3.15,-2.90,-0.50,-0.50,-0.49
197.22,2.70,3.22,2.70,3.23,-3.23,-3.22,-2.98,-0.53,-0.53,-0.52
199.19,2.75,3.32,2.74,3.30,-3.30,-3.29,-3.07,-0.55,-0.56,-0.57
201.18,2.79,3.38,2.77,3.36,-3.36,-3.35,-3.15,-0.57,-0.59,-0.59
203.19,2.82,3.43,2.81,3.43,-3.43,-3.42,-3.24,-0.61,-0.61,-0.61
205.23,2.86,3.50,2.85,3.49,-3.49,-3.48,-3.32,-0.63,-0.64,-0.64
207.28,2.90,3.55,2.89,3.55,-3.55,-3.54,-3.41,-0.65,-0.66,-0.65
209.35,2.93,3.62,2.91,3.60,-3.60,-3.60,-3.50,-0.67,-0.69,-0.69
211.44,2.95,3.67,2.94,3.65,-3.65,-3.66,-3.58,-0.70,-0.71,-0.71
213.56,2.95,3.68,2.96,3.69,-3.69,-3.71,-3.66,-0.74,-0.73,-0.73
215.69,2.96,3.70,2.99,3.74,-3.74,-3.76,-3.75,-0.77,-0.75,-0.74
217.85,2.99,3.74,3.02,3.78,-3.78,-3.81,-3.83,-0.79,-0.76,-0.75
220.03,3.02,3.80,3.04,3.82,-3.82,-3.85,-3.90,-0.79,-0.77,-0.78
222.23,3.06,3.85,3.07,3.85,-3.85,-3.90,-3.98,-0.79,-0.78,-0.79
224.45,3.09,3.88,3.10,3.89,-3.89,-3.93,-4.05,-0.80,-0.79,-0.79
226.70,3.12,3.92,3.12,3.92,-3.92,-3.97,-4.12,-0.80,-0.80,-0.80
228.96,3.15,3.95,3.15,3.95,-3.95,-4.00,-4.18,-0.80,-0.80,-0.80
231.25,3.18,3.98,3.18,3.98,-3.98,-4.03,-4.24,-0.80,-0.80,-0.80
233.57,3.21,4.00,3.21,4.00,-4.00,-4.05,-4.29,-0.79,-0.79,-0.79
235.90,3.23,4.02,3.23,4.02,-4.02,-4.07,-4.33,-0.79,-0.79,-0.79
238.26,3.25,4.04,3.25,4.03,-4.03,-4.08,-4.37,-0.78,-0.78,-0.79
240.64,3.27,4.04,3.27,4.04,-4.04,-4.09,-4.41,-0.77,-0.77,-0.77
243.05,3.29,4.05,3.28,4.04,-4.04,-4.10,-4.43,-0.75,-0.76,-0.76
245.48,3.29,4.03,3.28,4.03,-4.03,-4.10,-4.45,-0.73,-0.75,-0.74
247.93,3.29,4.02,3.28,4.01,-4.01,-4.10,-4.46,-0.72,-0.73,-0.73
250.41,3.29,4.01,3.27,3.98,-3.98,-4.09,-4.47,-0.69,-0.71,-0.72
252.92,3.28,3.97,3.25,3.95,-3.95,-4.08,-4.46,-0.66,-0.70,-0.69
255.45,3.24,3.91,3.23,3.91,-3.91,-4.07,-4.45,-0.66,-0.68,-0.67
258.00,3.22,3.87,3.21,3.86,-3.86,-4.05,-4.43,-0.64,-0.66,-0.65
260.58,3.19,3.83,3.18,3.81,-3.81,-4.02,-4.40,-0.62,-0.64,-0.64
263.19,3.14,3.76,3.15,3.76,-3.76,-4.00,-4.37,-0.62,-0.61,-0.61
265.82,3.10,3.69,3.12,3.71,-3.71,-3.97,-4.33,-0.61,-0.59,-0.59
268.48,3.07,3.64,3.09,3.66,-3.66,-3.93,-4.28,-0.59,-0.57,-0.57
271.16,3.04,3.58,3.06,3.61,-3.61,-3.90,-4.23,-0.56,-0.55,-0.54
273.87,3.01,3.53,3.03,3.56,-3.56,-3.86,-4.17,-0.54,-0.52,-0.52
276.61,2.99,3.48,3.01,3.51,-3.51,-3.81,-4.11,-0.51,-0.50,-0.49
279.38,2.98,3.46,2.98,3.46,-3.46,-3.77,-4.04,-0.48,-0.48,-0.48
282.17,2.97,3.42,2.96,3.42,-3.42,-3.72,-3.97,-0.45,-0.45,-0.45
284.99,2.96,3.39,2.95,3.38,-3.38,-3.67,-3.89,-0.42,-0.43,-0.43
287.84,2.95,3.35,2.94,3.34,-3.34,-3.62,-3.82,-0.39,-0.40,-0.40
290.72,2.95,3.32,2.94,3.31,-3.31,-3.56,-3.74,-0.36,-0.37,-0.37
293.63,2.93,3.29,2.94,3.28,-3.28,-3.51,-3.65,-0.35,-0.35,-0.35
296.57,2.93,3.25,2.94,3.26,-3.26,-3.45,-3.57,-0.33,-0.32,-0.32
299.53,2.93,3.22,2.95,3.24,-3.24,-3.39,-3.49,-0.31,-0.29,-0.29
302.53,2.94,3.21,2.96,3.22,-3.22,-3.33,-3.40,-0.28,-0.26,-0.27
305.55,2.95,3.17,2.97,3.20,-3.20,-3.27,-3.32,-0.25,-0.23,-0.22
308.61,2.99,3.19,2.99,3.18,-3.18,-3.21,-3.23,-0.19,-0.20,-0.20
311.69,3.01,3.17,3.00,3.17,-3.17,-3.15,-3.15,-0.16,-0.16,-0.16
314.81,3.04,3.17,3.02,3.15,-3.15,-3.09,-3.06,-0.11,-0.13,-0.13
317.96,3.05,3.15,3.04,3.14,-3.14,-3.02,-2.98,-0.09,-0.10,-0.10
321.14,3.07,3.14,3.06,3.13,-3.13,-2.96,-2.90,-0.06,-0.07,-0.07
324.35,3.09,3.14,3.08,3.12,-3.12,-2.90,-2.81,-0.03,-0.04,-0.05
327.59,3.10,3.11,3.10,3.11,-3.11,-2.84,-2.73,-0.01,-0.02,-0.01
330.87,3.12,3.10,3.12,3.11,-3.11,-2.77,-2.65,0.01,0.01,0.02
334.18,3.13,3.10,3.14,3.10,-3.10,-2.71,-2.58,0.03,0.04,0.03
337.52,3.16,3.10,3.16,3.09,-3.09,-2.65,-2.50,0.07,0.06,0.06
340.90,3.17,3.08,3.18,3.09,-3.09,-2.59,-2.43,0.08,0.08,0.09
344.30,3.18,3.08,3.19,3.09,-3.09,-2.53,-2.35,0.09,0.11,0.10
347.75,3.20,3.07,3.21,3.09,-3.09,-2.47,-2.28,0.11,0.13,0.13
351.23,3.22,3.07,3.23,3.09,-3.09,-2.41,-2.21,0.13,0.15,0.15
354.74,3.24,3.07,3.25,3.09,-3.09,-2.35,-2.15,0.15,0.17,0.17
358.28,3.26,3.08,3.27,3.09,-3.09,-2.29,-2.08,0.18,0.19,0.18
361.87,3.29,3.09,3.29,3.08,-3.08,-2.23,-2.02,0.21,0.20,0.20
365.49,3.31,3.08,3.31,3.08,-3.08,-2.17,-1.95,0.23,0.22,0.23
369.14,3.33,3.09,3.32,3.08,-3.08,-2.12,-1.89,0.25,0.24,0.24
372.83,3.34,3.09,3.34,3.08,-3.08,-2.06,-1.83,0.26,0.26,0.26
376.56,3.35,3.08,3.36,3.08,-3.08,-2.01,-1.78,0.27,0.28,0.27
380.33,3.34,3.04,3.38,3.08,-3.08,-1.95,-1.72,0.26,0.30,0.30
384.13,3.34,3.02,3.39,3.07,-3.07,-1.90,-1.67,0.27,0.32,0.32
387.97,3.33,2.99,3.38,3.04,-3.04,-1.85,-1.61,0.29,0.34,0.34
391.85,3.32,2.96,3.35,2.99,-2.99,-1.79,-1.56,0.33,0.36,0.36
395.77,3.30,2.92,3.30,2.92,-2.92,-1.74,-1.51,0.38,0.38,0.38
399.73,3.29,2.89,3.24,2.84,-2.84,-1.69,-1.47,0.45,0.40,0.40
403.72,3.26,2.84,3.16,2.74,-2.74,-1.64,-1.42,0.52,0.42,0.42
407.76,3.20,2.76,3.06,2.62,-2.62,-1.60,-1.37,0.59,0.44,0.44
411.84,3.10,2.63,2.94,2.47,-2.47,-1.55,-1.33,0.63,0.47,0.47
415.96,2.94,2.45,2.80,2.31,-2.31,-1.50,-1.29,0.63,0.49,0.49
420.12,2.71,2.20,2.65,2.14,-2.14,-1.46,-1.24,0.57,0.51,0.51
424.32,2.46,1.93,2.49,1.96,-1.96,-1.41,-1.20,0.50,0.53,0.54
428.56,2.25,1.70,2.33,1.77,-1.77,-1.37,-1.16,0.48,0.55,0.55
432.85,2.09,1.52,2.17,1.59,-1.59,-1.32,-1.12,0.50,0.58,0.57
437.18,1.95,1.35,2.02,1.41,-1.41,-1.28,-1.08,0.54,0.60,0.60
441.55,1.80,1.17,1.87,1.25,-1.25,-1.24,-1.05,0.55,0.63,0.63
445.96,1.62,0.97,1.74,1.09,-1.09,-1.20,-1.01,0.53,0.65,0.65
450.42,1.50,0.83,1.63,0.95,-0.95,-1.16,-0.97,0.55,0.68,0.67
454.93,1.43,0.72,1.53,0.83,-0.83,-1.12,-0.94,0.60,0.70,0.71
459.48,1.41,0.68,1.45,0.72,-0.72,-1.08,-0.90,0.69,0.73,0.73
464.07,1.40,0.64,1.39,0.63,-0.63,-1.04,-0.86,0.77,0.76,0.76
468.71,1.38,0.59,1.34,0.56,-0.56,-1.00,-0.83,0.82,0.79,0.80
473.40,1.37,0.56,1.30,0.49,-0.49,-0.96,-0.79,0.88,0.81,0.81
478.13,1.34,0.50,1.26,0.42,-0.42,-0.93,-0.76,0.92,0.84,0.84
482.91,1.30,0.43,1.23,0.36,-0.36,-0.89,-0.73,0.94,0.87,0.87
487.74,1.26,0.36,1.20,0.30,-0.30,-0.86,-0.69,0.96,0.90,0.90
492.62,1.21,0.28,1.17,0.24,-0.24,-0.82,-0.66,0.97,0.93,0.93
497.55,1.16,0.21,1.14,0.19,-0.19,-0.79,-0.62,0.97,0.96,0.95
502.52,1.10,0.11,1.12,0.13,-0.13,-0.75,-0.59,0.97,0.98,0.99
507.55,1.05,0.04,1.09,0.08,-0.08,-0.72,-0.55,0.97,1.01,1.01
512.62,1.01,-0.03,1.06,0.02,-0.02,-0.68,-0.52,0.99,1.04,1.04
517.75,1.00,-0.07,1.04,-0.02,0.02,-0.65,-0.48,1.02,1.07,1.07
