frequency,raw,error,smoothed,error_smoothed,equalization,parametric_eq,fixed_band_eq,equalized_raw,equalized_smoothed,target
20.00,17.60,3.87,17.63,3.90,-3.90,-3.28,-1.50,13.71,13.74,13.74
20.20,17.60,3.88,17.62,3.89,-3.89,-3.28,-1.54,13.71,13.73,13.72
20.40,17.60,3.89,17.60,3.88,-3.88,-3.28,-1.59,13.72,13.72,13.71
20.61,17.60,3.89,17.59,3.88,-3.88,-3.28,-1.63,13.72,13.71,13.71
20.81,17.60,3.91,17.57,3.87,-3.87,-3.28,-1.68,13.73,13.70,13.69
21.02,17.60,3.91,17.55,3.86,-3.86,-3.28,-1.73,13.74,13.69,13.69
21.23,17.56,3.88,17.54,3.86,-3.86,-3.28,-1.78,13.71,13.68,13.68
21.44,17.53,3.84,17.52,3.85,-3.85,-3.28,-1.83,13.68,13.68,13.69
21.66,17.50,3.82,17.51,3.84,-3.84,-3.28,-1.88,13.66,13.67,13.68
21.87,17.47,3.80,17.50,3.83,-3.83,-3.28,-1.94,13.64,13.66,13.67
22.09,17.45,3.80,17.48,3.83,-3.83,-3.28,-1.99,13.63,13.66,13.66
22.31,17.44,3.79,17.47,3.82,-3.82,-3.28,-2.05,13.62,13.65,13.66
22.54,17.43,3.79,17.45,3.81,-3.81,-3.29,-2.11,13.62,13.65,13.64
22.76,17.42,3.78,17.44,3.80,-3.80,-3.29,-2.17,13.62,13.64,13.64
22.99,17.41,3.78,17.43,3.79,-3.79,-3.29,-2.23,13.62,13.64,13.63
23.22,17.41,3.79,17.41,3.78,-3.78,-3.29,-2.29,13.63,13.63,13.62
23.45,17.41,3.78,17.40,3.77,-3.77,-3.29,-2.36,13.64,13.63,13.63
23.69,17.41,3.79,17.39,3.76,-3.76,-3.29,-2.42,13.65,13.63,13.62
23.92,17.41,3.80,17.38,3.75,-3.75,-3.29,-2.49,13.66,13.62,13.62
24.16,17.39,3.77,17.37,3.74,-3.74,-3.29,-2.56,13.65,13.62,13.63
24.40,17.36,3.73,17.35,3.73,-3.73,-3.29,-2.63,13.63,13.63,13.63
24.65,17.33,3.70,17.34,3.71,-3.71,-3.29,-2.70,13.62,13.63,13.63
24.89,17.30,3.67,17.32,3.69,-3.69,-3.29,-2.77,13.61,13.63,13.63
25.14,17.28,3.65,17.30,3.67,-3.67,-3.29,-2.84,13.61,13.63,13.63
25.39,17.26,3.63,17.27,3.64,-3.64,-3.29,-2.91,13.62,13.63,13.63
25.65,17.24,3.62,17.25,3.62,-3.62,-3.29,-2.98,13.62,13.63,13.63
25.91,17.23,3.60,17.23,3.59,-3.59,-3.29,-3.06,13.64,13.63,13.63
26.16,17.20,3.56,17.20,3.57,-3.57,-3.29,-3.13,13.64,13.63,13.64
26.43,17.18,3.54,17.17,3.54,-3.54,-3.29,-3.20,13.64,13.63,13.64
26.69,17.15,3.52,17.15,3.51,-3.51,-3.29,-3.27,13.64,13.63,13.64
26.96,17.12,3.49,17.13,3.49,-3.49,-3.29,-3.34,13.63,13.63,13.63
27.23,17.10,3.47,17.10,3.47,-3.47,-3.29,-3.40,13.63,13.63,13.63
27.50,17.07,3.44,17.08,3.44,-3.44,-3.29,-3.47,13.63,13.63,13.63
27.77,17.05,3.41,17.05,3.42,-3.42,-3.29,-3.53,13.63,13.63,13.64
28.05,17.02,3.39,17.03,3.39,-3.39,-3.29,-3.59,13.63,13.63,13.63
28.33,17.00,3.38,17.00,3.37,-3.37,-3.29,-3.65,13.63,13.63,13.62
28.62,16.97,3.35,16.97,3.34,-3.34,-3.29,-3.70,13.63,13.63,13.62
28.90,16.94,3.32,16.94,3.32,-3.32,-3.29,-3.75,13.63,13.63,13.63
29.19,16.91,3.29,16.92,3.29,-3.29,-3.29,-3.80,13.62,13.62,13.62
29.48,16.89,3.27,16.89,3.27,-3.27,-3.29,-3.84,13.62,13.62,13.62
29.78,16.86,3.25,16.86,3.25,-3.25,-3.29,-3.88,13.61,13.61,13.62
30.08,16.83,3.21,16.83,3.23,-3.23,-3.29,-3.91,13.61,13.61,13.62
30.38,16.80,3.19,16.81,3.20,-3.20,-3.29,-3.93,13.60,13.60,13.61
30.68,16.77,3.18,16.78,3.18,-3.18,-3.29,-3.95,13.59,13.60,13.60
30.99,16.74,3.15,16.75,3.16,-3.16,-3.29,-3.97,13.58,13.59,13.59
31.30,16.72,3.14,16.72,3.14,-3.14,-3.29,-3.98,13.58,13.58,13.58
31.61,16.69,3.12,16.69,3.12,-3.12,-3.29,-3.98,13.58,13.57,13.57
31.93,16.67,3.11,16.66,3.09,-3.09,-3.29,-3.98,13.58,13.56,13.56
32.24,16.63,3.08,16.63,3.07,-3.07,-3.29,-3.97,13.56,13.56,13.55
32.57,16.60,3.06,16.60,3.05,-3.05,-3.29,-3.96,13.55,13.55,13.54
32.89,16.56,3.03,16.57,3.02,-3.02,-3.29,-3.94,13.54,13.54,13.53
33.22,16.53,3.00,16.53,3.00,-3.00,-3.29,-3.92,13.53,13.54,13.53
33.55,16.49,2.97,16.50,2.97,-2.97,-3.29,-3.89,13.52,13.53,13.52
33.89,16.46,2.93,16.47,2.95,-2.95,-3.29,-3.86,13.51,13.52,13.53
34.23,16.43,2.92,16.44,2.92,-2.92,-3.29,-3.83,13.51,13.52,13.51
34.57,16.40,2.90,16.40,2.89,-2.89,-3.29,-3.79,13.51,13.51,13.51
34.92,16.37,2.87,16.36,2.86,-2.86,-3.29,-3.75,13.51,13.50,13.50
35.27,16.33,2.83,16.33,2.83,-2.83,-3.29,-3.70,13.50,13.50,13.50
35.62,16.30,2.81,16.29,2.81,-2.81,-3.29,-3.66,13.50,13.48,13.49
35.97,16.26,2.78,16.26,2.78,-2.78,-3.29,-3.61,13.48,13.47,13.48
36.33,16.23,2.77,16.22,2.76,-2.76,-3.29,-3.56,13.47,13.46,13.46
36.70,16.19,2.75,16.17,2.73,-2.73,-3.29,-3.51,13.46,13.44,13.45
37.06,16.15,2.72,16.13,2.71,-2.71,-3.29,-3.46,13.44,13.42,13.43
37.43,16.08,2.68,16.09,2.69,-2.69,-3.29,-3.40,13.39,13.40,13.40
37.81,16.01,2.63,16.05,2.68,-2.68,-3.29,-3.35,13.33,13.38,13.38
38.19,15.97,2.62,16.01,2.66,-2.66,-3.29,-3.30,13.31,13.35,13.35
38.57,15.97,2.65,15.97,2.65,-2.65,-3.29,-3.25,13.33,13.32,13.32
38.95,15.97,2.68,15.93,2.63,-2.63,-3.29,-3.20,13.34,13.30,13.29
39.34,15.90,2.65,15.89,2.62,-2.62,-3.29,-3.15,13.28,13.27,13.26
39.74,15.83,2.60,15.85,2.62,-2.62,-3.29,-3.10,13.22,13.24,13.24
40.14,15.78,2.58,15.82,2.61,-2.61,-3.29,-3.05,13.17,13.21,13.20
40.54,15.78,2.61,15.78,2.61,-2.61,-3.29,-3.01,13.18,13.18,13.17
40.94,15.78,2.64,15.75,2.60,-2.60,-3.29,-2.96,13.18,13.15,13.14
41.35,15.72,2.60,15.72,2.60,-2.60,-3.29,-2.92,13.12,13.12,13.12
41.76,15.66,2.58,15.68,2.59,-2.59,-3.29,-2.88,13.07,13.09,13.08
42.18,15.61,2.56,15.64,2.58,-2.58,-3.28,-2.84,13.03,13.06,13.06
42.60,15.60,2.57,15.60,2.57,-2.57,-3.28,-2.81,13.03,13.03,13.03
43.03,15.59,2.59,15.56,2.56,-2.56,-3.28,-2.77,13.03,13.00,13.00
43.46,15.54,2.58,15.52,2.55,-2.55,-3.28,-2.74,13.00,12.97,12.97
43.90,15.50,2.56,15.47,2.53,-2.53,-3.28,-2.71,12.97,12.94,12.94
44.33,15.44,2.54,15.43,2.52,-2.52,-3.28,-2.68,12.92,12.91,12.91
44.78,15.38,2.51,15.38,2.51,-2.51,-3.28,-2.65,12.87,12.87,12.87
45.23,15.32,2.47,15.33,2.49,-2.49,-3.28,-2.63,12.83,12.84,12.85
45.68,15.25,2.45,15.28,2.48,-2.48,-3.28,-2.61,12.77,12.80,12.81
46.13,15.20,2.44,15.23,2.47,-2.47,-3.28,-2.59,12.73,12.76,12.76
46.60,15.18,2.46,15.18,2.46,-2.46,-3.28,-2.57,12.72,12.72,12.72
47.06,15.15,2.47,15.13,2.45,-2.45,-3.28,-2.55,12.70,12.68,12.68
47.53,15.08,2.44,15.08,2.45,-2.45,-3.28,-2.54,12.64,12.63,12.64
48.01,15.01,2.43,15.02,2.44,-2.44,-3.27,-2.53,12.57,12.58,12.58
48.49,14.97,2.44,14.97,2.44,-2.44,-3.27,-2.51,12.53,12.54,12.53
48.97,14.92,2.44,14.92,2.44,-2.44,-3.27,-2.51,12.48,12.49,12.48
49.46,14.87,2.43,14.88,2.44,-2.44,-3.27,-2.50,12.43,12.44,12.44
49.96,14.82,2.45,14.83,2.44,-2.44,-3.27,-2.49,12.38,12.39,12.37
50.46,14.78,2.46,14.78,2.45,-2.45,-3.27,-2.49,12.34,12.34,12.32
50.96,14.73,2.45,14.73,2.45,-2.45,-3.27,-2.49,12.28,12.28,12.28
51.47,14.68,2.45,14.68,2.45,-2.45,-3.27,-2.49,12.23,12.23,12.23
51.99,14.63,2.45,14.63,2.45,-2.45,-3.27,-2.49,12.18,12.18,12.18
52.51,14.58,2.45,14.58,2.45,-2.45,-3.27,-2.49,12.13,12.13,12.13
53.03,14.53,2.44,14.53,2.46,-2.46,-3.26,-2.49,12.08,12.08,12.09
53.56,14.48,2.45,14.48,2.46,-2.46,-3.26,-2.49,12.03,12.02,12.04
54.10,14.43,2.46,14.43,2.45,-2.45,-3.26,-2.50,11.98,11.98,11.98
54.64,14.38,2.46,14.38,2.45,-2.45,-3.26,-2.50,11.93,11.93,11.93
55.18,14.32,2.46,14.33,2.45,-2.45,-3.26,-2.50,11.87,11.88,11.86
55.74,14.27,2.46,14.27,2.44,-2.44,-3.26,-2.51,11.83,11.83,11.81
56.29,14.22,2.45,14.22,2.44,-2.44,-3.26,-2.51,11.78,11.78,11.77
56.86,14.16,2.44,14.17,2.44,-2.44,-3.26,-2.52,11.72,11.73,11.72
57.42,14.11,2.45,14.12,2.44,-2.44,-3.26,-2.52,11.67,11.68,11.66
58.00,14.05,2.43,14.06,2.44,-2.44,-3.25,-2.53,11.61,11.62,11.62
58.58,14.00,2.42,14.01,2.44,-2.44,-3.25,-2.53,11.57,11.57,11.58
59.16,13.95,2.42,13.95,2.43,-2.43,-3.25,-2.53,11.52,11.51,11.53
59.76,13.91,2.43,13.89,2.44,-2.44,-3.25,-2.54,11.48,11.46,11.48
60.35,13.85,2.44,13.84,2.44,-2.44,-3.25,-2.54,11.41,11.40,11.41
60.96,13.78,2.43,13.78,2.45,-2.45,-3.25,-2.54,11.34,11.34,11.35
61.57,13.72,2.44,13.73,2.45,-2.45,-3.25,-2.54,11.27,11.28,11.28
62.18,13.67,2.47,13.67,2.46,-2.46,-3.24,-2.54,11.21,11.21,11.20
62.80,13.60,2.47,13.61,2.47,-2.47,-3.24,-2.54,11.14,11.15,11.13
63.43,13.54,2.48,13.55,2.47,-2.47,-3.24,-2.53,11.07,11.08,11.06
64.07,13.48,2.48,13.49,2.48,-2.48,-3.24,-2.53,11.00,11.01,11.00
64.71,13.41,2.48,13.43,2.49,-2.49,-3.24,-2.52,10.92,10.94,10.93
65.35,13.38,2.51,13.37,2.50,-2.50,-3.24,-2.52,10.88,10.87,10.87
66.01,13.38,2.58,13.31,2.51,-2.51,-3.23,-2.51,10.87,10.80,10.80
66.67,13.26,2.52,13.25,2.52,-2.52,-3.23,-2.51,10.74,10.73,10.75
67.33,13.17,2.51,13.20,2.53,-2.53,-3.23,-2.50,10.64,10.66,10.66
68.01,13.12,2.53,13.14,2.55,-2.55,-3.23,-2.49,10.57,10.59,10.60
68.69,13.06,2.54,13.08,2.56,-2.56,-3.23,-2.48,10.50,10.52,10.52
69.37,13.01,2.55,13.03,2.58,-2.58,-3.22,-2.47,10.43,10.45,10.46
70.07,12.96,2.58,12.97,2.59,-2.59,-3.22,-2.46,10.37,10.38,10.38
70.77,12.91,2.60,12.92,2.61,-2.61,-3.22,-2.45,10.30,10.30,10.31
71.48,12.86,2.63,12.86,2.63,-2.63,-3.22,-2.44,10.23,10.23,10.24
72.19,12.80,2.65,12.80,2.65,-2.65,-3.22,-2.43,10.16,10.16,10.15
72.91,12.78,2.70,12.74,2.66,-2.66,-3.21,-2.43,10.12,10.08,10.08
73.64,12.68,2.68,12.69,2.67,-2.67,-3.21,-2.42,10.01,10.01,10.00
74.38,12.62,2.69,12.63,2.69,-2.69,-3.21,-2.41,9.93,9.94,9.93
75.12,12.60,2.75,12.58,2.71,-2.71,-3.21,-2.41,9.89,9.87,9.86
75.87,12.51,2.72,12.52,2.72,-2.72,-3.21,-2.40,9.79,9.80,9.80
76.63,12.45,2.73,12.46,2.73,-2.73,-3.20,-2.40,9.72,9.73,9.72
77.40,12.39,2.73,12.40,2.74,-2.74,-3.20,-2.39,9.66,9.66,9.66
78.17,12.33,2.74,12.33,2.74,-2.74,-3.20,-2.39,9.59,9.60,9.59
78.95,12.24,2.71,12.27,2.74,-2.74,-3.20,-2.39,9.50,9.53,9.53
79.74,12.23,2.77,12.20,2.74,-2.74,-3.19,-2.39,9.49,9.46,9.47
80.54,12.13,2.73,12.13,2.74,-2.74,-3.19,-2.40,9.40,9.40,9.40
81.35,12.05,2.72,12.06,2.73,-2.73,-3.19,-2.40,9.32,9.33,9.33
82.16,12.03,2.76,11.99,2.73,-2.73,-3.19,-2.41,9.30,9.26,9.27
82.98,11.99,2.79,11.93,2.73,-2.73,-3.18,-2.42,9.26,9.19,9.20
83.81,11.83,2.70,11.86,2.73,-2.73,-3.18,-2.43,9.10,9.12,9.13
84.65,11.76,2.71,11.79,2.74,-2.74,-3.18,-2.44,9.02,9.05,9.05
85.50,11.70,2.73,11.73,2.75,-2.75,-3.18,-2.45,8.95,8.98,8.97
86.35,11.63,2.73,11.67,2.76,-2.76,-3.17,-2.47,8.88,8.91,8.91
87.22,11.57,2.73,11.60,2.76,-2.76,-3.17,-2.48,8.81,8.84,8.84
88.09,11.52,2.76,11.54,2.77,-2.77,-3.17,-2.50,8.75,8.76,8.76
88.97,11.47,2.78,11.47,2.78,-2.78,-3.17,-2.52,8.69,8.69,8.70
89.86,11.41,2.81,11.41,2.80,-2.80,-3.16,-2.55,8.61,8.61,8.61
90.76,11.38,2.84,11.35,2.82,-2.82,-3.16,-2.57,8.57,8.53,8.54
91.66,11.33,2.88,11.29,2.83,-2.83,-3.16,-2.60,8.50,8.45,8.45
92.58,11.24,2.87,11.22,2.85,-2.85,-3.16,-2.63,8.39,8.37,8.38
93.51,11.17,2.88,11.16,2.87,-2.87,-3.15,-2.66,8.30,8.29,8.30
94.44,11.09,2.88,11.09,2.89,-2.89,-3.15,-2.69,8.20,8.20,8.21
95.39,10.99,2.87,11.03,2.91,-2.91,-3.15,-2.72,8.08,8.11,8.12
96.34,10.94,2.91,10.96,2.93,-2.93,-3.14,-2.76,8.01,8.02,8.03
97.30,10.87,2.94,10.88,2.95,-2.95,-3.14,-2.80,7.92,7.93,7.93
98.28,10.80,2.96,10.80,2.96,-2.96,-3.14,-2.83,7.84,7.84,7.84
99.26,10.73,3.00,10.72,2.97,-2.97,-3.14,-2.87,7.76,7.75,7.74
100.25,10.64,3.00,10.63,2.98,-2.98,-3.13,-2.91,7.66,7.65,7.64
101.25,10.56,3.01,10.55,2.99,-2.99,-3.13,-2.96,7.57,7.56,7.56
102.27,10.44,2.98,10.46,3.00,-3.00,-3.13,-3.00,7.44,7.46,7.46
103.29,10.39,3.03,10.38,3.01,-3.01,-3.12,-3.04,7.38,7.37,7.37
104.32,10.33,3.05,10.29,3.01,-3.01,-3.12,-3.08,7.32,7.27,7.28
105.37,10.23,3.05,10.20,3.02,-3.02,-3.12,-3.13,7.21,7.18,7.19
106.42,10.09,3.00,10.11,3.03,-3.03,-3.12,-3.17,7.07,7.09,7.09
107.48,9.98,3.00,10.03,3.03,-3.03,-3.11,-3.22,6.95,7.00,6.98
108.56,9.92,3.01,9.94,3.04,-3.04,-3.11,-3.26,6.88,6.90,6.91
109.64,9.83,3.02,9.86,3.04,-3.04,-3.11,-3.30,6.79,6.81,6.81
110.74,9.78,3.06,9.78,3.05,-3.05,-3.10,-3.34,6.73,6.72,6.72
111.85,9.70,3.07,9.70,3.07,-3.07,-3.10,-3.38,6.64,6.63,6.63
112.97,9.59,3.04,9.63,3.08,-3.08,-3.10,-3.42,6.51,6.54,6.55
114.10,9.55,3.09,9.55,3.09,-3.09,-3.10,-3.45,6.46,6.46,6.47
115.24,9.47,3.10,9.48,3.10,-3.10,-3.09,-3.48,6.37,6.37,6.37
116.39,9.41,3.13,9.41,3.12,-3.12,-3.09,-3.51,6.29,6.29,6.28
117.55,9.37,3.17,9.34,3.13,-3.13,-3.09,-3.54,6.24,6.21,6.21
118.73,9.28,3.17,9.28,3.15,-3.15,-3.09,-3.57,6.14,6.13,6.11
119.92,9.20,3.16,9.21,3.16,-3.16,-3.08,-3.59,6.05,6.05,6.04
121.12,9.15,3.17,9.14,3.16,-3.16,-3.08,-3.60,5.99,5.98,5.98
122.33,9.10,3.20,9.07,3.17,-3.17,-3.08,-3.62,5.93,5.90,5.90
123.55,9.03,3.20,9.01,3.18,-3.18,-3.08,-3.62,5.85,5.82,5.83
124.79,8.95,3.19,8.95,3.20,-3.20,-3.08,-3.63,5.76,5.75,5.76
126.03,8.84,3.16,8.88,3.21,-3.21,-3.07,-3.63,5.63,5.68,5.69
127.29,8.81,3.20,8.82,3.22,-3.22,-3.07,-3.63,5.60,5.60,5.61
128.57,8.73,3.20,8.76,3.23,-3.23,-3.07,-3.62,5.51,5.53,5.53
129.85,8.67,3.22,8.70,3.24,-3.24,-3.07,-3.61,5.43,5.46,5.46
131.15,8.61,3.23,8.63,3.25,-3.25,-3.07,-3.60,5.37,5.39,5.38
132.46,8.58,3.27,8.57,3.26,-3.26,-3.07,-3.58,5.32,5.31,5.31
133.79,8.51,3.28,8.51,3.27,-3.27,-3.07,-3.56,5.25,5.24,5.24
135.12,8.49,3.33,8.44,3.27,-3.27,-3.06,-3.53,5.22,5.17,5.17
136.48,8.41,3.31,8.38,3.28,-3.28,-3.06,-3.51,5.13,5.10,5.11
137.84,8.33,3.30,8.32,3.29,-3.29,-3.06,-3.48,5.04,5.03,5.04
139.22,8.25,3.30,8.25,3.30,-3.30,-3.06,-3.45,4.95,4.96,4.95
140.61,8.19,3.30,8.19,3.31,-3.31,-3.06,-3.41,4.89,4.89,4.89
142.02,8.12,3.31,8.13,3.31,-3.31,-3.06,-3.38,4.81,4.82,4.82
143.44,8.04,3.30,8.07,3.31,-3.31,-3.07,-3.34,4.73,4.75,4.74
144.87,7.94,3.26,7.99,3.31,-3.31,-3.07,-3.31,4.63,4.68,4.68
146.32,7.92,3.30,7.92,3.30,-3.30,-3.07,-3.27,4.62,4.62,4.62
147.78,7.83,3.28,7.84,3.30,-3.30,-3.07,-3.23,4.54,4.55,4.55
149.26,7.77,3.29,7.77,3.29,-3.29,-3.07,-3.19,4.48,4.48,4.48
150.75,7.74,3.34,7.69,3.28,-3.28,-3.07,-3.16,4.46,4.41,4.40
152.26,7.66,3.32,7.62,3.28,-3.28,-3.08,-3.12,4.38,4.34,4.34
153.78,7.57,3.29,7.55,3.28,-3.28,-3.08,-3.08,4.30,4.27,4.28
155.32,7.50,3.29,7.48,3.27,-3.27,-3.08,-3.05,4.23,4.21,4.21
156.88,7.39,3.25,7.41,3.27,-3.27,-3.09,-3.01,4.12,4.14,4.14
158.44,7.30,3.23,7.34,3.27,-3.27,-3.09,-2.98,4.03,4.07,4.07
160.03,7.17,3.17,7.27,3.27,-3.27,-3.10,-2.95,3.90,4.00,4.00
161.63,7.17,3.24,7.20,3.27,-3.27,-3.10,-2.92,3.90,3.93,3.93
163.24,7.15,3.30,7.12,3.27,-3.27,-3.11,-2.89,3.89,3.86,3.85
164.88,7.06,3.27,7.05,3.26,-3.26,-3.11,-2.87,3.80,3.79,3.79
166.53,6.98,3.27,6.98,3.26,-3.26,-3.12,-2.84,3.72,3.72,3.71
168.19,6.93,3.28,6.90,3.26,-3.26,-3.13,-2.82,3.68,3.65,3.65
169.87,6.86,3.29,6.83,3.26,-3.26,-3.14,-2.80,3.61,3.58,3.58
171.57,6.77,3.27,6.76,3.26,-3.26,-3.14,-2.78,3.52,3.51,3.51
173.29,6.73,3.30,6.69,3.25,-3.25,-3.15,-2.77,3.48,3.44,3.44
175.02,6.63,3.25,6.62,3.25,-3.25,-3.16,-2.75,3.38,3.38,3.38
176.77,6.53,3.22,6.56,3.25,-3.25,-3.17,-2.74,3.29,3.31,3.31
178.54,6.47,3.23,6.49,3.24,-3.24,-3.17,-2.73,3.23,3.25,3.24
180.32,6.40,3.22,6.42,3.23,-3.23,-3.18,-2.72,3.17,3.19,3.18
182.13,6.33,3.21,6.35,3.23,-3.23,-3.19,-2.72,3.11,3.13,3.13
183.95,6.28,3.21,6.29,3.22,-3.22,-3.20,-2.71,3.06,3.07,3.07
185.79,6.20,3.19,6.24,3.22,-3.22,-3.20,-2.71,2.98,3.01,3.01
187.65,6.18,3.22,6.18,3.22,-3.22,-3.21,-2.71,2.96,2.96,2.96
189.52,6.09,3.19,6.12,3.22,-3.22,-3.21,-2.72,2.87,2.91,2.90
191.42,6.05,3.19,6.07,3.22,-3.22,-3.22,-2.72,2.83,2.85,2.86
193.33,6.06,3.25,6.02,3.22,-3.22,-3.22,-2.73,2.85,2.80,2.81
195.27,5.98,3.23,5.97,3.21,-3.21,-3.22,-2.74,2.77,2.75,2.75
197.22,5.91,3.22,5.91,3.20,-3.20,-3.22,-2.75,2.71,2.70,2.70
199.19,5.88,3.23,5.85,3.19,-3.19,-3.22,-2.76,2.69,2.66,2.65
201.18,5.79,3.19,5.78,3.17,-3.17,-3.21,-2.77,2.62,2.61,2.60
203.19,5.73,3.17,5.72,3.15,-3.15,-3.21,-2.78,2.58,2.56,2.56
205.23,5.69,3.17,5.64,3.13,-3.13,-3.20,-2.80,2.56,2.51,2.52
207.28,5.58,3.10,5.58,3.11,-3.11,-3.19,-2.81,2.47,2.47,2.48
209.35,5.48,3.05,5.50,3.08,-3.08,-3.17,-2.82,2.40,2.42,2.43
211.44,5.43,3.05,5.43,3.05,-3.05,-3.15,-2.84,2.38,2.38,2.38
213.56,5.35,3.01,5.35,3.02,-3.02,-3.13,-2.85,2.33,2.34,2.34
215.69,5.25,2.95,5.28,2.99,-2.99,-3.11,-2.87,2.26,2.29,2.30
217.85,5.15,2.89,5.21,2.96,-2.96,-3.08,-2.88,2.19,2.26,2.26
220.03,5.13,2.92,5.14,2.93,-2.93,-3.05,-2.90,2.21,2.22,2.21
222.23,5.08,2.91,5.07,2.89,-2.89,-3.02,-2.91,2.19,2.18,2.17
224.45,5.01,2.87,5.01,2.86,-2.86,-2.99,-2.92,2.15,2.15,2.14
226.70,4.96,2.85,4.95,2.83,-2.83,-2.95,-2.92,2.13,2.12,2.11
228.96,4.92,2.83,4.89,2.80,-2.80,-2.91,-2.93,2.13,2.09,2.09
231.25,4.80,2.74,4.83,2.77,-2.77,-2.87,-2.93,2.03,2.07,2.07
233.57,4.77,2.74,4.78,2.74,-2.74,-2.82,-2.93,2.03,2.04,2.04
235.90,4.78,2.77,4.73,2.71,-2.71,-2.77,-2.93,2.07,2.02,2.02
238.26,4.67,2.67,4.68,2.67,-2.67,-2.73,-2.93,2.00,2.01,2.00
240.64,4.59,2.59,4.63,2.64,-2.64,-2.68,-2.92,1.95,1.99,2.00
243.05,4.55,2.57,4.58,2.60,-2.60,-2.62,-2.90,1.95,1.98,1.98
245.48,4.50,2.54,4.53,2.56,-2.56,-2.57,-2.89,1.94,1.97,1.97
247.93,4.49,2.54,4.47,2.51,-2.51,-2.52,-2.86,1.98,1.96,1.95
250.41,4.43,2.48,4.42,2.47,-2.47,-2.46,-2.84,1.96,1.95,1.95
252.92,4.40,2.45,4.36,2.43,-2.43,-2.41,-2.81,1.97,1.94,1.95
255.45,4.36,2.44,4.31,2.39,-2.39,-2.35,-2.78,1.97,1.92,1.92
258.00,4.26,2.34,4.26,2.35,-2.35,-2.30,-2.74,1.91,1.91,1.92
260.58,4.18,2.28,4.20,2.30,-2.30,-2.24,-2.70,1.88,1.90,1.91
263.19,4.12,2.23,4.14,2.25,-2.25,-2.18,-2.65,1.87,1.88,1.89
265.82,4.07,2.20,4.08,2.21,-2.21,-2.13,-2.60,1.86,1.87,1.87
268.48,4.00,2.14,4.01,2.16,-2.16,-2.07,-2.55,1.84,1.85,1.86
271.16,3.94,2.11,3.95,2.11,-2.11,-2.01,-2.49,1.83,1.84,1.84
273.87,3.87,2.05,3.88,2.06,-2.06,-1.96,-2.43,1.81,1.82,1.82
276.61,3.84,2.04,3.81,2.00,-2.00,-1.90,-2.37,1.84,1.81,1.80
279.38,3.78,2.01,3.74,1.95,-1.95,-1.85,-2.30,1.84,1.79,1.77
282.17,3.69,1.92,3.68,1.90,-1.90,-1.79,-2.24,1.80,1.78,1.77
284.99,3.58,1.82,3.62,1.85,-1.85,-1.73,-2.17,1.74,1.77,1.76
287.84,3.50,1.74,3.56,1.80,-1.80,-1.68,-2.09,1.70,1.76,1.76
290.72,3.50,1.76,3.51,1.76,-1.76,-1.62,-2.02,1.75,1.75,1.74
293.63,3.44,1.70,3.45,1.71,-1.71,-1.57,-1.94,1.74,1.75,1.75
296.57,3.36,1.61,3.40,1.65,-1.65,-1.52,-1.87,1.71,1.74,1.75
299.53,3.36,1.62,3.34,1.60,-1.60,-1.46,-1.79,1.76,1.74,1.74
302.53,3.27,1.53,3.28,1.55,-1.55,-1.41,-1.71,1.72,1.73,1.74
305.55,3.20,1.47,3.23,1.50,-1.50,-1.35,-1.63,1.71,1.73,1.73
308.61,3.20,1.47,3.17,1.44,-1.44,-1.30,-1.56,1.76,1.73,1.74
311.69,3.19,1.47,3.11,1.39,-1.39,-1.25,-1.48,1.80,1.72,1.72
314.81,3.07,1.35,3.05,1.34,-1.34,-1.19,-1.40,1.74,1.72,1.72
317.96,3.01,1.31,2.99,1.28,-1.28,-1.14,-1.32,1.73,1.71,1.71
321.14,2.92,1.21,2.93,1.22,-1.22,-1.09,-1.24,1.70,1.71,1.71
324.35,2.82,1.12,2.86,1.15,-1.15,-1.03,-1.16,1.67,1.71,1.70
327.59,2.77,1.06,2.78,1.08,-1.08,-0.98,-1.08,1.69,1.70,1.71
330.87,2.73,1.03,2.72,1.02,-1.02,-0.93,-1.00,1.71,1.70,1.70
334.18,2.65,0.96,2.65,0.95,-0.95,-0.87,-0.92,1.70,1.70,1.69
337.52,2.60,0.91,2.58,0.89,-0.89,-0.82,-0.84,1.71,1.69,1.69
340.90,2.48,0.80,2.52,0.82,-0.82,-0.77,-0.76,1.66,1.69,1.69
344.30,2.42,0.73,2.45,0.75,-0.75,-0.71,-0.69,1.67,1.69,1.69
347.75,2.36,0.66,2.38,0.69,-0.69,-0.66,-0.61,1.68,1.69,1.70
351.23,2.30,0.62,2.32,0.63,-0.63,-0.61,-0.53,1.68,1.70,1.68
354.74,2.26,0.56,2.26,0.56,-0.56,-0.56,-0.46,1.70,1.70,1.70
358.28,2.19,0.50,2.20,0.50,-0.50,-0.50,-0.38,1.69,1.70,1.70
361.87,2.16,0.46,2.15,0.44,-0.44,-0.45,-0.30,1.72,1.70,1.70
365.49,2.15,0.44,2.09,0.39,-0.39,-0.40,-0.23,1.77,1.71,1.71
369.14,2.05,0.34,2.04,0.33,-0.33,-0.34,-0.15,1.72,1.71,1.71
372.83,1.96,0.24,1.99,0.27,-0.27,-0.29,-0.08,1.69,1.71,1.72
376.56,1.90,0.19,1.93,0.21,-0.21,-0.23,-0.00,1.69,1.71,1.72
380.33,1.84,0.13,1.87,0.16,-0.16,-0.18,0.07,1.68,1.71,1.71
384.13,1.81,0.09,1.81,0.10,-0.10,-0.13,0.14,1.72,1.71,1.72
387.97,1.75,0.03,1.74,0.04,-0.04,-0.07,0.22,1.72,1.71,1.72
391.85,1.72,0.01,1.68,-0.02,0.02,-0.02,0.29,1.75,1.71,1.71
395.77,1.66,-0.04,1.62,-0.08,0.08,0.04,0.36,1.74,1.70,1.70
399.73,1.61,-0.09,1.55,-0.14,0.14,0.09,0.43,1.75,1.69,1.70
403.72,1.49,-0.21,1.49,-0.20,0.20,0.15,0.50,1.69,1.69,1.71
407.76,1.42,-0.26,1.43,-0.25,0.25,0.20,0.57,1.68,1.68,1.68
411.84,1.32,-0.36,1.37,-0.31,0.31,0.26,0.64,1.63,1.68,1.68
415.96,1.26,-0.42,1.31,-0.36,0.36,0.31,0.71,1.63,1.68,1.68
420.12,1.25,-0.42,1.26,-0.42,0.42,0.37,0.78,1.67,1.68,1.67
424.32,1.20,-0.47,1.21,-0.48,0.48,0.42,0.85,1.68,1.69,1.68
428.56,1.18,-0.51,1.17,-0.53,0.53,0.48,0.91,1.71,1.70,1.69
432.85,1.15,-0.56,1.13,-0.59,0.59,0.53,0.98,1.74,1.72,1.71
437.18,1.08,-0.64,1.10,-0.64,0.64,0.59,1.04,1.72,1.74,1.72
441.55,1.06,-0.70,1.08,-0.69,0.69,0.65,1.11,1.75,1.78,1.76
445.96,1.03,-0.76,1.07,-0.74,0.74,0.70,1.17,1.77,1.81,1.80
450.42,1.04,-0.79,1.07,-0.79,0.79,0.76,1.23,1.83,1.85,1.83
454.93,1.02,-0.86,1.06,-0.84,0.84,0.82,1.28,1.86,1.90,1.88
459.48,1.07,-0.87,1.05,-0.90,0.90,0.87,1.34,1.97,1.95,1.94
464.07,1.06,-0.95,1.04,-0.96,0.96,0.93,1.40,2.02,2.00,2.01
468.71,1.03,-1.03,1.03,-1.02,1.02,0.99,1.45,2.06,2.06,2.06
473.40,1.06,-1.05,1.02,-1.09,1.09,1.05,1.50,2.15,2.11,2.12
478.13,1.05,-1.12,1.02,-1.14,1.14,1.10,1.55,2.20,2.16,2.18
482.91,1.02,-1.20,1.01,-1.20,1.20,1.16,1.59,2.23,2.21,2.22
487.74,1.00,-1.26,0.99,-1.27,1.27,1.22,1.63,2.27,2.26,2.26
