frequency,raw,error,smoothed,error_smoothed,equalization,parametric_eq,fixed_band_eq,equalized_raw,equalized_smoothed,target
20.00,5.01,0.40,5.01,0.40,-0.40,-1.16,-1.02,4.61,4.61,4.61
20.20,5.11,0.41,5.11,0.42,-0.42,-1.19,-1.05,4.69,4.70,4.70
20.40,5.22,0.44,5.22,0.44,-0.44,-1.21,-1.08,4.78,4.78,4.78
20.61,5.32,0.47,5.32,0.47,-0.46,-1.23,-1.11,4.86,4.86,4.85
20.81,5.43,0.49,5.43,0.49,-0.49,-1.25,-1.14,4.94,4.94,4.94
21.02,5.53,0.51,5.53,0.52,-0.52,-1.27,-1.17,5.01,5.01,5.02
21.23,5.63,0.55,5.64,0.55,-0.56,-1.29,-1.21,5.07,5.07,5.08
21.44,5.74,0.60,5.74,0.60,-0.60,-1.32,-1.24,5.14,5.14,5.14
21.66,5.84,0.65,5.84,0.65,-0.65,-1.34,-1.28,5.19,5.19,5.19
21.87,5.94,0.70,5.94,0.70,-0.70,-1.36,-1.31,5.25,5.25,5.24
22.09,6.04,0.75,6.04,0.75,-0.75,-1.39,-1.35,5.29,5.29,5.29
22.31,6.14,0.80,6.14,0.80,-0.81,-1.41,-1.39,5.33,5.33,5.34
22.54,6.24,0.86,6.24,0.86,-0.87,-1.44,-1.43,5.37,5.37,5.38
22.76,6.34,0.92,6.34,0.93,-0.93,-1.46,-1.47,5.41,5.41,5.42
22.99,6.45,1.00,6.45,1.00,-0.99,-1.49,-1.51,5.46,5.46,5.45
23.22,6.55,1.06,6.55,1.06,-1.05,-1.51,-1.55,5.50,5.50,5.49
23.45,6.65,1.12,6.65,1.12,-1.12,-1.54,-1.60,5.54,5.54,5.53
23.69,6.75,1.18,6.75,1.18,-1.18,-1.56,-1.64,5.57,5.57,5.57
23.92,6.85,1.24,6.85,1.24,-1.24,-1.59,-1.69,5.61,5.61,5.61
24.16,6.95,1.29,6.95,1.30,-1.31,-1.62,-1.73,5.64,5.64,5.66
24.40,7.05,1.36,7.05,1.37,-1.37,-1.64,-1.78,5.68,5.68,5.69
24.65,7.15,1.44,7.15,1.44,-1.44,-1.67,-1.83,5.71,5.72,5.71
24.89,7.25,1.51,7.25,1.51,-1.50,-1.70,-1.88,5.75,5.75,5.74
25.14,7.34,1.56,7.34,1.57,-1.56,-1.73,-1.93,5.78,5.78,5.78
25.39,7.44,1.63,7.44,1.63,-1.63,-1.76,-1.98,5.81,5.81,5.81
25.65,7.53,1.68,7.53,1.69,-1.69,-1.79,-2.03,5.84,5.84,5.85
25.91,7.63,1.76,7.63,1.76,-1.75,-1.82,-2.08,5.87,5.87,5.87
26.16,7.72,1.82,7.72,1.82,-1.82,-1.85,-2.13,5.91,5.90,5.90
26.43,7.81,1.87,7.81,1.88,-1.88,-1.88,-2.18,5.93,5.93,5.94
26.69,7.90,1.93,7.90,1.94,-1.94,-1.91,-2.23,5.96,5.96,5.97
26.96,8.00,2.00,8.00,2.00,-2.00,-1.94,-2.28,6.00,5.99,6.00
27.23,8.09,2.06,8.09,2.06,-2.06,-1.97,-2.33,6.03,6.03,6.03
27.50,8.18,2.12,8.18,2.13,-2.12,-2.00,-2.38,6.06,6.06,6.06
27.77,8.27,2.19,8.27,2.19,-2.18,-2.04,-2.43,6.09,6.09,6.08
28.05,8.36,2.24,8.36,2.25,-2.24,-2.07,-2.48,6.12,6.12,6.12
28.33,8.44,2.30,8.44,2.30,-2.30,-2.10,-2.53,6.14,6.14,6.14
28.62,8.53,2.36,8.53,2.36,-2.36,-2.13,-2.57,6.17,6.17,6.17
28.90,8.61,2.40,8.61,2.41,-2.41,-2.17,-2.62,6.20,6.20,6.21
29.19,8.69,2.46,8.69,2.45,-2.46,-2.20,-2.66,6.23,6.23,6.23
29.48,8.77,2.49,8.77,2.51,-2.51,-2.24,-2.70,6.26,6.27,6.28
29.78,8.85,2.56,8.85,2.56,-2.55,-2.27,-2.74,6.30,6.30,6.29
30.08,8.93,2.61,8.92,2.60,-2.60,-2.31,-2.77,6.33,6.33,6.32
30.38,8.99,2.64,8.99,2.64,-2.64,-2.34,-2.81,6.35,6.35,6.35
30.68,9.05,2.67,9.05,2.68,-2.68,-2.38,-2.84,6.37,6.37,6.38
30.99,9.11,2.71,9.11,2.71,-2.72,-2.42,-2.87,6.39,6.39,6.40
31.30,9.17,2.75,9.17,2.75,-2.75,-2.46,-2.90,6.42,6.42,6.42
31.61,9.23,2.78,9.23,2.79,-2.79,-2.49,-2.92,6.44,6.44,6.45
31.93,9.30,2.83,9.30,2.83,-2.83,-2.53,-2.94,6.47,6.47,6.47
32.24,9.36,2.87,9.36,2.87,-2.87,-2.57,-2.96,6.50,6.50,6.49
32.57,9.42,2.90,9.42,2.91,-2.90,-2.61,-2.98,6.52,6.52,6.52
32.89,9.48,2.94,9.48,2.94,-2.94,-2.65,-3.00,6.54,6.54,6.54
33.22,9.54,2.98,9.54,2.98,-2.98,-2.69,-3.01,6.56,6.56,6.56
33.55,9.59,3.01,9.59,3.02,-3.02,-2.73,-3.03,6.57,6.57,6.58
33.89,9.65,3.06,9.65,3.06,-3.06,-2.77,-3.04,6.59,6.59,6.59
34.23,9.70,3.09,9.70,3.10,-3.10,-2.81,-3.05,6.60,6.61,6.61
34.57,9.76,3.14,9.76,3.14,-3.14,-2.85,-3.06,6.63,6.62,6.62
34.92,9.81,3.18,9.81,3.17,-3.17,-2.89,-3.07,6.64,6.63,6.63
35.27,9.85,3.20,9.86,3.22,-3.21,-2.93,-3.07,6.64,6.64,6.65
35.62,9.90,3.26,9.90,3.25,-3.26,-2.97,-3.08,6.64,6.65,6.64
35.97,9.95,3.30,9.95,3.29,-3.30,-3.02,-3.09,6.65,6.65,6.65
36.33,9.99,3.32,10.00,3.34,-3.34,-3.06,-3.10,6.65,6.66,6.67
36.70,10.04,3.38,10.04,3.38,-3.38,-3.10,-3.10,6.66,6.66,6.66
37.06,10.09,3.43,10.09,3.43,-3.43,-3.15,-3.11,6.66,6.66,6.66
37.43,10.13,3.47,10.13,3.48,-3.47,-3.19,-3.12,6.66,6.66,6.66
37.81,10.18,3.52,10.18,3.52,-3.52,-3.23,-3.13,6.66,6.66,6.66
38.19,10.22,3.56,10.22,3.56,-3.56,-3.28,-3.14,6.66,6.66,6.66
38.57,10.26,3.60,10.26,3.60,-3.60,-3.32,-3.15,6.66,6.66,6.66
38.95,10.30,3.64,10.30,3.65,-3.65,-3.37,-3.17,6.66,6.65,6.66
39.34,10.33,3.69,10.33,3.69,-3.69,-3.41,-3.18,6.64,6.65,6.64
39.74,10.37,3.73,10.37,3.73,-3.73,-3.46,-3.20,6.64,6.64,6.64
40.14,10.40,3.77,10.40,3.77,-3.77,-3.50,-3.22,6.63,6.63,6.63
40.54,10.44,3.81,10.44,3.81,-3.82,-3.55,-3.24,6.62,6.62,6.63
40.94,10.48,3.86,10.48,3.86,-3.86,-3.60,-3.26,6.62,6.62,6.62
41.35,10.52,3.90,10.52,3.91,-3.90,-3.64,-3.29,6.62,6.62,6.62
41.76,10.56,3.95,10.56,3.95,-3.95,-3.69,-3.32,6.61,6.61,6.61
42.18,10.60,4.00,10.60,4.00,-4.00,-3.74,-3.35,6.61,6.60,6.60
42.60,10.63,4.04,10.63,4.04,-4.04,-3.78,-3.38,6.59,6.59,6.59
43.03,10.67,4.08,10.67,4.09,-4.09,-3.83,-3.42,6.58,6.58,6.59
43.46,10.71,4.13,10.71,4.14,-4.14,-3.88,-3.45,6.57,6.57,6.58
43.90,10.75,4.19,10.75,4.19,-4.19,-3.93,-3.49,6.56,6.56,6.56
44.33,10.79,4.25,10.79,4.25,-4.24,-3.97,-3.54,6.55,6.55,6.54
44.78,10.82,4.29,10.82,4.30,-4.29,-4.02,-3.58,6.53,6.53,6.53
45.23,10.86,4.34,10.86,4.34,-4.33,-4.07,-3.63,6.53,6.52,6.52
45.68,10.89,4.38,10.89,4.38,-4.38,-4.12,-3.68,6.51,6.51,6.51
46.13,10.92,4.42,10.92,4.42,-4.41,-4.17,-3.73,6.51,6.51,6.50
46.60,10.95,4.45,10.95,4.45,-4.45,-4.21,-3.79,6.50,6.50,6.50
47.06,10.97,4.48,10.97,4.48,-4.48,-4.26,-3.85,6.49,6.49,6.49
47.53,10.99,4.51,10.99,4.51,-4.52,-4.31,-3.91,6.47,6.47,6.48
48.01,11.01,4.53,11.01,4.54,-4.55,-4.36,-3.97,6.46,6.47,6.48
48.49,11.04,4.57,11.04,4.57,-4.58,-4.41,-4.04,6.46,6.46,6.47
48.97,11.07,4.61,11.07,4.61,-4.61,-4.46,-4.10,6.46,6.46,6.46
49.46,11.09,4.65,11.09,4.65,-4.64,-4.50,-4.17,6.45,6.45,6.44
49.96,11.12,4.69,11.12,4.68,-4.67,-4.55,-4.24,6.45,6.44,6.43
50.46,11.14,4.70,11.14,4.71,-4.70,-4.60,-4.32,6.44,6.44,6.44
50.96,11.16,4.72,11.17,4.73,-4.73,-4.65,-4.39,6.43,6.43,6.44
51.47,11.19,4.76,11.19,4.76,-4.76,-4.70,-4.47,6.43,6.43,6.43
51.99,11.22,4.79,11.22,4.79,-4.78,-4.74,-4.54,6.44,6.43,6.43
52.51,11.24,4.81,11.24,4.81,-4.81,-4.79,-4.62,6.43,6.43,6.43
53.03,11.26,4.83,11.26,4.83,-4.83,-4.84,-4.70,6.43,6.43,6.43
53.56,11.28,4.85,11.28,4.85,-4.86,-4.89,-4.78,6.42,6.42,6.43
54.10,11.30,4.88,11.30,4.88,-4.89,-4.93,-4.86,6.41,6.41,6.42
54.64,11.33,4.92,11.33,4.92,-4.92,-4.98,-4.93,6.41,6.41,6.41
55.18,11.36,4.96,11.36,4.96,-4.96,-5.03,-5.01,6.40,6.40,6.40
55.74,11.38,5.00,11.38,5.00,-4.99,-5.07,-5.09,6.39,6.39,6.38
56.29,11.40,5.02,11.40,5.03,-5.03,-5.12,-5.16,6.37,6.37,6.38
56.86,11.42,5.06,11.42,5.06,-5.06,-5.16,-5.23,6.36,6.36,6.36
57.42,11.44,5.10,11.44,5.10,-5.10,-5.21,-5.30,6.34,6.34,6.34
58.00,11.46,5.13,11.46,5.14,-5.13,-5.26,-5.37,6.33,6.33,6.33
58.58,11.48,5.17,11.48,5.17,-5.16,-5.30,-5.43,6.32,6.32,6.31
59.16,11.49,5.19,11.49,5.20,-5.20,-5.34,-5.49,6.30,6.30,6.30
59.76,11.50,5.22,11.50,5.22,-5.23,-5.39,-5.55,6.27,6.27,6.28
60.35,11.51,5.26,11.51,5.25,-5.26,-5.43,-5.60,6.25,6.25,6.25
60.96,11.52,5.28,11.52,5.30,-5.30,-5.47,-5.65,6.22,6.22,6.24
61.57,11.53,5.34,11.53,5.33,-5.34,-5.52,-5.70,6.19,6.19,6.19
62.18,11.54,5.38,11.54,5.37,-5.37,-5.56,-5.74,6.17,6.17,6.16
62.80,11.55,5.40,11.55,5.42,-5.41,-5.60,-5.77,6.14,6.14,6.15
63.43,11.56,5.45,11.56,5.45,-5.44,-5.64,-5.80,6.12,6.12,6.11
64.07,11.57,5.48,11.57,5.48,-5.48,-5.68,-5.83,6.09,6.09,6.09
64.71,11.58,5.50,11.58,5.51,-5.51,-5.72,-5.85,6.07,6.08,6.08
65.35,11.60,5.54,11.60,5.54,-5.53,-5.76,-5.87,6.07,6.06,6.06
66.01,11.61,5.56,11.61,5.56,-5.56,-5.80,-5.89,6.05,6.05,6.05
66.67,11.62,5.58,11.62,5.58,-5.58,-5.83,-5.90,6.04,6.04,6.04
67.33,11.63,5.60,11.63,5.60,-5.61,-5.87,-5.91,6.02,6.02,6.03
68.01,11.64,5.62,11.64,5.63,-5.63,-5.91,-5.92,6.01,6.01,6.02
68.69,11.66,5.65,11.66,5.65,-5.65,-5.94,-5.92,6.01,6.01,6.01
69.37,11.69,5.68,11.69,5.68,-5.68,-5.98,-5.92,6.01,6.01,6.01
70.07,11.71,5.71,11.71,5.71,-5.70,-6.01,-5.92,6.01,6.01,6.00
70.77,11.73,5.73,11.73,5.74,-5.73,-6.05,-5.92,6.00,6.00,6.00
71.48,11.75,5.76,11.75,5.76,-5.76,-6.08,-5.92,5.99,5.99,5.99
72.19,11.76,5.79,11.76,5.79,-5.79,-6.12,-5.92,5.97,5.97,5.97
72.91,11.78,5.81,11.78,5.82,-5.82,-6.15,-5.92,5.96,5.96,5.97
73.64,11.80,5.85,11.80,5.85,-5.86,-6.18,-5.92,5.94,5.94,5.95
74.38,11.83,5.89,11.83,5.89,-5.90,-6.21,-5.93,5.94,5.93,5.94
75.12,11.85,5.93,11.85,5.93,-5.93,-6.24,-5.93,5.92,5.92,5.92
75.87,11.88,5.97,11.88,5.97,-5.98,-6.27,-5.94,5.91,5.91,5.91
76.63,11.91,6.01,11.91,6.02,-6.02,-6.30,-5.94,5.89,5.89,5.90
77.40,11.94,6.06,11.94,6.06,-6.06,-6.33,-5.95,5.88,5.89,5.88
78.17,11.97,6.11,11.97,6.10,-6.09,-6.36,-5.97,5.88,5.87,5.86
78.95,11.99,6.13,11.99,6.14,-6.13,-6.39,-5.98,5.86,5.86,5.86
79.74,12.01,6.16,12.01,6.16,-6.16,-6.41,-6.00,5.85,5.85,5.85
80.54,12.03,6.19,12.03,6.19,-6.20,-6.44,-6.03,5.83,5.83,5.84
81.35,12.05,6.22,12.05,6.22,-6.22,-6.47,-6.05,5.83,5.83,5.83
82.16,12.07,6.25,12.07,6.25,-6.25,-6.49,-6.08,5.82,5.82,5.82
82.98,12.10,6.27,12.10,6.28,-6.27,-6.52,-6.12,5.83,5.82,5.83
83.81,12.12,6.30,12.12,6.30,-6.30,-6.54,-6.16,5.82,5.82,5.82
84.65,12.14,6.33,12.14,6.32,-6.32,-6.57,-6.20,5.82,5.82,5.81
85.50,12.16,6.34,12.16,6.35,-6.34,-6.59,-6.25,5.82,5.82,5.82
86.35,12.18,6.36,12.18,6.37,-6.37,-6.62,-6.30,5.81,5.81,5.82
87.22,12.20,6.39,12.20,6.39,-6.39,-6.64,-6.36,5.81,5.81,5.81
88.09,12.22,6.41,12.22,6.41,-6.42,-6.67,-6.42,5.80,5.80,5.81
88.97,12.24,6.44,12.25,6.45,-6.45,-6.69,-6.49,5.80,5.80,5.80
89.86,12.27,6.48,12.27,6.48,-6.48,-6.72,-6.56,5.79,5.79,5.79
90.76,12.29,6.52,12.29,6.52,-6.51,-6.74,-6.64,5.78,5.77,5.77
91.66,12.30,6.55,12.30,6.56,-6.56,-6.77,-6.72,5.74,5.75,5.75
92.58,12.32,6.60,12.32,6.60,-6.61,-6.79,-6.81,5.71,5.72,5.72
93.51,12.35,6.65,12.35,6.65,-6.66,-6.82,-6.90,5.69,5.69,5.70
94.44,12.38,6.71,12.38,6.72,-6.72,-6.84,-6.99,5.66,5.66,5.67
95.39,12.42,6.79,12.42,6.79,-6.79,-6.87,-7.10,5.63,5.63,5.63
96.34,12.45,6.86,12.45,6.86,-6.86,-6.89,-7.20,5.59,5.59,5.59
97.30,12.47,6.94,12.47,6.94,-6.93,-6.92,-7.31,5.54,5.54,5.53
98.28,12.49,7.01,12.49,7.01,-7.01,-6.95,-7.42,5.48,5.48,5.48
99.26,12.51,7.08,12.51,7.09,-7.08,-6.97,-7.54,5.43,5.43,5.43
100.25,12.53,7.16,12.53,7.16,-7.16,-7.00,-7.66,5.37,5.37,5.37
101.25,12.55,7.24,12.55,7.24,-7.23,-7.03,-7.78,5.32,5.32,5.31
102.27,12.56,7.31,12.56,7.31,-7.30,-7.06,-7.91,5.26,5.26,5.25
103.29,12.57,7.38,12.57,7.38,-7.38,-7.09,-8.04,5.19,5.19,5.19
104.32,12.58,7.44,12.58,7.45,-7.46,-7.12,-8.17,5.12,5.13,5.14
105.37,12.60,7.53,12.60,7.53,-7.54,-7.15,-8.30,5.06,5.06,5.07
106.42,12.62,7.61,12.62,7.61,-7.62,-7.19,-8.43,5.00,5.00,5.01
107.48,12.65,7.69,12.65,7.70,-7.71,-7.22,-8.56,4.95,4.95,4.96
108.56,12.69,7.79,12.69,7.79,-7.80,-7.26,-8.69,4.90,4.89,4.90
109.64,12.73,7.89,12.73,7.89,-7.89,-7.30,-8.82,4.84,4.84,4.84
110.74,12.77,7.98,12.77,7.98,-7.98,-7.34,-8.95,4.79,4.79,4.79
111.85,12.81,8.06,12.81,8.07,-8.07,-7.38,-9.07,4.74,4.73,4.75
112.97,12.84,8.16,12.84,8.15,-8.16,-7.42,-9.19,4.68,4.68,4.68
114.10,12.87,8.23,12.87,8.24,-8.23,-7.46,-9.30,4.64,4.64,4.64
115.24,12.90,8.31,12.90,8.31,-8.30,-7.51,-9.40,4.60,4.60,4.59
116.39,12.91,8.37,12.91,8.37,-8.35,-7.55,-9.50,4.56,4.56,4.54
117.55,12.90,8.40,12.91,8.41,-8.39,-7.60,-9.59,4.51,4.52,4.50
118.73,12.89,8.43,12.89,8.43,-8.42,-7.65,-9.66,4.47,4.47,4.46
119.92,12.86,8.43,12.86,8.43,-8.43,-7.70,-9.73,4.43,4.43,4.43
121.12,12.82,8.42,12.83,8.43,-8.44,-7.76,-9.78,4.38,4.39,4.40
122.33,12.80,8.43,12.80,8.43,-8.43,-7.81,-9.82,4.37,4.37,4.37
123.55,12.77,8.43,12.77,8.43,-8.42,-7.87,-9.85,4.35,4.34,4.34
124.79,12.73,8.42,12.73,8.42,-8.41,-7.93,-9.86,4.32,4.32,4.31
126.03,12.68,8.39,12.69,8.40,-8.40,-7.99,-9.86,4.28,4.29,4.29
127.29,12.65,8.39,12.65,8.39,-8.39,-8.06,-9.85,4.26,4.25,4.26
128.57,12.61,8.39,12.61,8.38,-8.39,-8.12,-9.82,4.22,4.22,4.22
129.85,12.58,8.38,12.59,8.39,-8.40,-8.19,-9.78,4.18,4.19,4.20
131.15,12.57,8.40,12.57,8.41,-8.41,-8.26,-9.73,4.16,4.16,4.17
132.46,12.57,8.44,12.57,8.43,-8.44,-8.33,-9.67,4.13,4.13,4.13
133.79,12.58,8.47,12.58,8.47,-8.48,-8.41,-9.59,4.10,4.10,4.11
135.12,12.60,8.52,12.60,8.52,-8.53,-8.48,-9.51,4.07,4.07,4.08
136.48,12.62,8.57,12.62,8.58,-8.59,-8.56,-9.42,4.04,4.04,4.05
137.84,12.66,8.64,12.66,8.65,-8.65,-8.64,-9.32,4.01,4.01,4.02
139.22,12.69,8.72,12.70,8.72,-8.72,-8.71,-9.21,3.97,3.98,3.97
140.61,12.74,8.80,12.74,8.80,-8.79,-8.80,-9.10,3.95,3.95,3.94
142.02,12.79,8.87,12.78,8.87,-8.86,-8.88,-8.98,3.93,3.92,3.92
143.44,12.81,8.93,12.82,8.94,-8.93,-8.96,-8.87,3.88,3.88,3.88
144.87,12.84,9.00,12.84,9.00,-9.00,-9.04,-8.75,3.84,3.85,3.84
146.32,12.86,9.06,12.86,9.06,-9.05,-9.12,-8.63,3.81,3.81,3.80
147.78,12.88,9.11,12.88,9.11,-9.10,-9.20,-8.50,3.78,3.78,3.77
149.26,12.89,9.15,12.89,9.16,-9.15,-9.28,-8.38,3.74,3.74,3.74
150.75,12.89,9.20,12.89,9.19,-9.19,-9.36,-8.26,3.70,3.70,3.69
152.26,12.88,9.23,12.88,9.23,-9.23,-9.43,-8.15,3.65,3.65,3.65
153.78,12.87,9.25,12.87,9.26,-9.27,-9.50,-8.03,3.60,3.61,3.62
155.32,12.87,9.30,12.87,9.30,-9.31,-9.57,-7.92,3.56,3.56,3.57
156.88,12.87,9.33,12.87,9.34,-9.35,-9.64,-7.81,3.52,3.52,3.54
158.44,12.87,9.39,12.87,9.39,-9.40,-9.70,-7.70,3.47,3.47,3.48
160.03,12.87,9.43,12.88,9.44,-9.45,-9.75,-7.60,3.42,3.43,3.44
161.63,12.89,9.50,12.88,9.49,-9.50,-9.80,-7.50,3.40,3.39,3.39
163.24,12.89,9.54,12.89,9.55,-9.54,-9.84,-7.41,3.35,3.35,3.35
164.88,12.90,9.59,12.90,9.59,-9.59,-9.88,-7.32,3.32,3.32,3.31
166.53,12.90,9.63,12.90,9.63,-9.62,-9.90,-7.23,3.28,3.28,3.27
168.19,12.89,9.66,12.89,9.66,-9.65,-9.92,-7.16,3.24,3.24,3.23
169.87,12.86,9.67,12.87,9.67,-9.67,-9.93,-7.08,3.19,3.20,3.19
171.57,12.83,9.67,12.83,9.67,-9.68,-9.93,-7.01,3.15,3.15,3.16
173.29,12.79,9.67,12.79,9.67,-9.68,-9.91,-6.95,3.12,3.11,3.12
175.02,12.73,9.65,12.74,9.66,-9.66,-9.89,-6.89,3.07,3.08,3.08
176.77,12.69,9.64,12.69,9.64,-9.64,-9.86,-6.84,3.05,3.05,3.05
178.54,12.63,9.61,12.63,9.62,-9.61,-9.81,-6.79,3.02,3.03,3.02
180.32,12.57,9.58,12.57,9.58,-9.57,-9.76,-6.74,3.00,3.00,2.99
182.13,12.50,9.53,12.49,9.52,-9.52,-9.70,-6.70,2.98,2.97,2.97
183.95,12.39,9.44,12.40,9.46,-9.46,-9.62,-6.67,2.93,2.94,2.95
185.79,12.31,9.38,12.31,9.39,-9.39,-9.54,-6.64,2.92,2.92,2.93
187.65,12.23,9.32,12.23,9.31,-9.32,-9.44,-6.62,2.91,2.90,2.91
189.52,12.14,9.24,12.14,9.24,-9.24,-9.34,-6.60,2.90,2.89,2.90
191.42,12.04,9.16,12.04,9.16,-9.16,-9.23,-6.58,2.88,2.88,2.88
193.33,11.94,9.07,11.94,9.07,-9.08,-9.11,-6.57,2.86,2.86,2.87
195.27,11.84,8.98,11.84,8.98,-8.99,-8.98,-6.57,2.85,2.85,2.86
197.22,11.73,8.89,11.73,8.89,-8.90,-8.85,-6.56,2.84,2.84,2.84
199.19,11.62,8.80,11.62,8.80,-8.79,-8.71,-6.56,2.83,2.83,2.82
201.18,11.51,8.70,11.51,8.70,-8.69,-8.57,-6.57,2.82,2.82,2.81
203.19,11.39,8.58,11.39,8.58,-8.57,-8.43,-6.57,2.82,2.81,2.81
205.23,11.25,8.46,11.25,8.46,-8.45,-8.28,-6.58,2.80,2.80,2.79
207.28,11.10,8.31,11.11,8.32,-8.32,-8.12,-6.60,2.78,2.78,2.79
209.35,10.96,8.19,10.96,8.19,-8.19,-7.97,-6.61,2.77,2.77,2.77
211.44,10.81,8.06,10.81,8.06,-8.06,-7.81,-6.62,2.75,2.75,2.75
213.56,10.67,7.93,10.66,7.92,-7.93,-7.66,-6.64,2.74,2.73,2.74
215.69,10.51,7.77,10.52,7.78,-7.80,-7.50,-6.66,2.71,2.71,2.74
217.85,10.37,7.65,10.39,7.67,-7.68,-7.34,-6.67,2.69,2.71,2.72
220.03,10.27,7.56,10.26,7.55,-7.55,-7.18,-6.69,2.72,2.71,2.71
222.23,10.15,7.46,10.14,7.45,-7.44,-7.03,-6.70,2.71,2.71,2.69
224.45,10.01,7.32,10.02,7.33,-7.32,-6.87,-6.71,2.69,2.70,2.69
226.70,9.89,7.22,9.88,7.21,-7.21,-6.71,-6.72,2.68,2.67,2.67
228.96,9.74,7.08,9.76,7.10,-7.10,-6.56,-6.72,2.64,2.66,2.66
231.25,9.64,6.99,9.63,6.99,-7.00,-6.41,-6.73,2.64,2.64,2.65
233.57,9.52,6.89,9.51,6.88,-6.90,-6.26,-6.72,2.62,2.62,2.63
235.90,9.39,6.77,9.40,6.78,-6.80,-6.11,-6.72,2.59,2.60,2.62
238.26,9.29,6.69,9.29,6.69,-6.70,-5.96,-6.70,2.59,2.59,2.60
240.64,9.18,6.60,9.19,6.61,-6.60,-5.82,-6.68,2.58,2.59,2.58
243.05,9.10,6.53,9.09,6.52,-6.51,-5.67,-6.66,2.60,2.58,2.57
245.48,8.99,6.43,8.98,6.42,-6.41,-5.53,-6.62,2.58,2.57,2.56
247.93,8.83,6.28,8.86,6.31,-6.30,-5.40,-6.58,2.53,2.55,2.55
250.41,8.74,6.20,8.73,6.19,-6.19,-5.26,-6.54,2.55,2.54,2.54
252.92,8.61,6.06,8.61,6.07,-6.08,-5.13,-6.48,2.53,2.54,2.55
255.45,8.50,5.95,8.50,5.95,-5.95,-5.00,-6.42,2.55,2.55,2.55
258.00,8.39,5.83,8.38,5.83,-5.82,-4.87,-6.35,2.57,2.56,2.56
260.58,8.25,5.69,8.25,5.69,-5.68,-4.74,-6.28,2.57,2.57,2.56
263.19,8.12,5.55,8.11,5.55,-5.54,-4.61,-6.19,2.59,2.58,2.57
265.82,7.96,5.38,7.97,5.39,-5.39,-4.49,-6.11,2.57,2.59,2.58
268.48,7.83,5.23,7.83,5.23,-5.23,-4.37,-6.01,2.60,2.59,2.60
271.16,7.69,5.07,7.68,5.06,-5.08,-4.25,-5.91,2.61,2.60,2.62
273.87,7.52,4.89,7.54,4.90,-4.91,-4.14,-5.81,2.61,2.62,2.63
276.61,7.39,4.73,7.39,4.74,-4.75,-4.02,-5.70,2.64,2.64,2.66
279.38,7.25,4.59,7.25,4.59,-4.58,-3.91,-5.58,2.67,2.67,2.66
282.17,7.11,4.43,7.11,4.43,-4.41,-3.80,-5.47,2.70,2.69,2.68
284.99,6.96,4.27,6.94,4.25,-4.24,-3.69,-5.35,2.72,2.70,2.69
287.84,6.76,4.05,6.78,4.07,-4.07,-3.58,-5.22,2.69,2.71,2.71
290.72,6.61,3.88,6.61,3.89,-3.90,-3.47,-5.10,2.71,2.72,2.73
293.63,6.46,3.72,6.45,3.71,-3.72,-3.36,-4.97,2.74,2.73,2.74
296.57,6.30,3.53,6.30,3.54,-3.54,-3.25,-4.85,2.77,2.76,2.77
299.53,6.13,3.35,6.13,3.36,-3.35,-3.15,-4.72,2.78,2.78,2.78
302.53,5.97,3.18,5.97,3.17,-3.17,-3.04,-4.59,2.80,2.80,2.79
305.55,5.80,2.98,5.80,2.99,-2.98,-2.93,-4.46,2.82,2.82,2.82
308.61,5.64,2.80,5.64,2.80,-2.80,-2.83,-4.34,2.84,2.84,2.84
311.69,5.47,2.60,5.48,2.61,-2.61,-2.72,-4.21,2.86,2.87,2.87
314.81,5.33,2.42,5.33,2.43,-2.43,-2.61,-4.09,2.90,2.90,2.91
317.96,5.18,2.26,5.17,2.25,-2.25,-2.49,-3.96,2.93,2.92,2.92
321.14,5.01,2.07,5.01,2.07,-2.07,-2.38,-3.84,2.94,2.94,2.94
324.35,4.85,1.89,4.86,1.90,-1.90,-2.26,-3.72,2.95,2.95,2.96
327.59,4.70,1.72,4.71,1.73,-1.74,-2.13,-3.60,2.96,2.97,2.98
330.87,4.59,1.59,4.58,1.58,-1.58,-2.00,-3.48,3.01,3.00,3.00
334.18,4.46,1.43,4.46,1.44,-1.43,-1.87,-3.36,3.03,3.03,3.03
337.52,4.34,1.29,4.35,1.30,-1.29,-1.72,-3.25,3.05,3.06,3.05
340.90,4.23,1.16,4.23,1.16,-1.15,-1.57,-3.14,3.08,3.08,3.07
344.30,4.12,1.02,4.12,1.02,-1.02,-1.40,-3.03,3.10,3.10,3.10
347.75,4.01,0.89,4.01,0.89,-0.89,-1.23,-2.92,3.12,3.12,3.12
351.23,3.91,0.76,3.91,0.77,-0.77,-1.05,-2.81,3.14,3.14,3.15
354.74,3.83,0.65,3.82,0.65,-0.66,-0.86,-2.71,3.17,3.17,3.18
358.28,3.74,0.55,3.74,0.55,-0.55,-0.66,-2.61,3.19,3.19,3.19
361.87,3.67,0.45,3.67,0.45,-0.46,-0.47,-2.51,3.21,3.22,3.22
365.49,3.61,0.36,3.61,0.37,-0.37,-0.29,-2.41,3.24,3.24,3.25
369.14,3.56,0.30,3.56,0.30,-0.29,-0.14,-2.31,3.27,3.27,3.26
372.83,3.52,0.23,3.52,0.23,-0.23,-0.02,-2.22,3.29,3.29,3.29
376.56,3.48,0.17,3.48,0.17,-0.17,0.05,-2.13,3.31,3.31,3.31
380.33,3.46,0.12,3.46,0.12,-0.12,0.08,-2.04,3.34,3.33,3.34
384.13,3.43,0.08,3.43,0.08,-0.08,0.06,-1.95,3.35,3.35,3.35
387.97,3.42,0.05,3.42,0.05,-0.06,0.01,-1.86,3.36,3.37,3.37
391.85,3.42,0.04,3.42,0.03,-0.04,-0.06,-1.77,3.38,3.38,3.38
395.77,3.42,0.01,3.43,0.02,-0.03,-0.14,-1.69,3.39,3.39,3.41
399.73,3.44,0.02,3.44,0.03,-0.03,-0.22,-1.61,3.41,3.41,3.42
403.72,3.47,0.05,3.47,0.04,-0.04,-0.30,-1.53,3.43,3.43,3.42
407.76,3.50,0.07,3.50,0.07,-0.06,-0.37,-1.45,3.44,3.44,3.43
411.84,3.52,0.08,3.52,0.09,-0.08,-0.43,-1.37,3.44,3.44,3.44
415.96,3.55,0.12,3.55,0.12,-0.11,-0.48,-1.30,3.44,3.44,3.43
420.12,3.58,0.15,3.58,0.15,-0.15,-0.52,-1.22,3.43,3.43,3.43
424.32,3.61,0.18,3.61,0.19,-0.19,-0.55,-1.15,3.42,3.42,3.43
428.56,3.65,0.22,3.65,0.23,-0.24,-0.57,-1.08,3.41,3.42,3.43
432.85,3.70,0.28,3.70,0.28,-0.28,-0.58,-1.01,3.42,3.41,3.42
437.18,3.75,0.33,3.75,0.33,-0.34,-0.59,-0.94,3.42,3.41,3.42
441.55,3.80,0.38,3.80,0.39,-0.39,-0.59,-0.87,3.42,3.42,3.42
445.96,3.85,0.44,3.85,0.44,-0.43,-0.58,-0.81,3.42,3.42,3.41
450.42,3.90,0.49,3.90,0.49,-0.48,-0.58,-0.74,3.42,3.42,3.41
454.93,3.94,0.53,3.94,0.54,-0.52,-0.57,-0.68,3.42,3.43,3.41
459.48,3.98,0.58,3.97,0.56,-0.55,-0.55,-0.62,3.43,3.42,3.40
464.07,3.99,0.58,3.99,0.59,-0.59,-0.53,-0.56,3.40,3.40,3.41
468.71,4.00,0.59,4.01,0.61,-0.62,-0.52,-0.50,3.38,3.39,3.41
473.40,4.04,0.64,4.04,0.63,-0.65,-0.49,-0.44,3.39,3.39,3.40
478.13,4.08,0.67,4.08,0.68,-0.68,-0.47,-0.39,3.40,3.39,3.41
482.91,4.12,0.72,4.12,0.72,-0.72,-0.45,-0.33,3.41,3.41,3.40
487.74,4.16,0.75,4.16,0.75,-0.75,-0.42,-0.28,3.41,3.41,3.41
492.62,4.20,0.78,4.20,0.79,-0.79,-0.40,-0.23,3.41,3.41,3.42
497.55,4.24,0.83,4.24,0.82,-0.82,-0.37,-0.18,3.42,3.41,3.41
502.52,4.27,0.85,4.27,0.86,-0.86,-0.34,-0.13,3.41,3.41,3.42
507.55,4.30,0.88,4.31,0.89,-0.89,-0.31,-0.08,3.41,3.41,3.42
512.62,4.34,0.91,4.34,0.91,-0.92,-0.29,-0.03,3.43,3.42,3.43
