frequency,raw,error,smoothed,error_smoothed,equalization,parametric_eq,fixed_band_eq,equalized_raw,equalized_smoothed,target
20.00,14.61,3.40,14.62,3.39,-3.39,-3.23,-1.26,11.22,11.22,11.22
20.20,14.60,3.39,14.60,3.39,-3.39,-3.23,-1.30,11.22,11.22,11.22
20.40,14.59,3.38,14.59,3.38,-3.38,-3.22,-1.33,11.22,11.22,11.22
20.61,14.58,3.37,14.58,3.37,-3.37,-3.22,-1.37,11.22,11.21,11.22
20.81,14.57,3.37,14.57,3.36,-3.36,-3.22,-1.42,11.21,11.21,11.21
21.02,14.56,3.36,14.56,3.35,-3.35,-3.21,-1.46,11.21,11.21,11.20
21.23,14.54,3.34,14.55,3.34,-3.34,-3.21,-1.50,11.20,11.21,11.20
21.44,14.53,3.32,14.54,3.33,-3.33,-3.20,-1.55,11.20,11.20,11.21
21.66,14.52,3.32,14.52,3.33,-3.33,-3.20,-1.59,11.20,11.20,11.20
21.87,14.50,3.30,14.51,3.32,-3.32,-3.19,-1.64,11.19,11.19,11.20
22.09,14.49,3.30,14.50,3.31,-3.31,-3.19,-1.69,11.19,11.19,11.19
22.31,14.48,3.30,14.49,3.30,-3.30,-3.18,-1.74,11.19,11.19,11.19
22.54,14.47,3.30,14.47,3.29,-3.29,-3.17,-1.79,11.18,11.18,11.18
22.76,14.45,3.28,14.46,3.28,-3.28,-3.17,-1.85,11.17,11.18,11.18
22.99,14.44,3.27,14.44,3.27,-3.27,-3.16,-1.90,11.17,11.17,11.18
23.22,14.43,3.27,14.43,3.26,-3.26,-3.16,-1.96,11.17,11.17,11.16
23.45,14.41,3.25,14.42,3.26,-3.26,-3.15,-2.02,11.16,11.16,11.16
23.69,14.40,3.25,14.40,3.25,-3.25,-3.15,-2.07,11.16,11.15,11.15
23.92,14.39,3.25,14.39,3.24,-3.24,-3.14,-2.13,11.15,11.15,11.14
24.16,14.37,3.24,14.37,3.23,-3.23,-3.13,-2.19,11.14,11.14,11.14
24.40,14.35,3.22,14.36,3.22,-3.22,-3.13,-2.26,11.14,11.14,11.14
24.65,14.33,3.20,14.34,3.21,-3.21,-3.12,-2.32,11.13,11.13,11.14
24.89,14.32,3.19,14.33,3.19,-3.19,-3.11,-2.38,11.13,11.13,11.13
25.14,14.30,3.17,14.31,3.18,-3.18,-3.11,-2.45,11.12,11.13,11.13
25.39,14.29,3.17,14.29,3.17,-3.17,-3.10,-2.51,11.13,11.13,11.12
25.65,14.27,3.16,14.27,3.15,-3.15,-3.09,-2.57,11.12,11.12,11.12
25.91,14.25,3.14,14.26,3.13,-3.13,-3.09,-2.64,11.12,11.12,11.12
26.16,14.24,3.12,14.24,3.12,-3.12,-3.08,-2.70,11.13,11.12,11.12
26.43,14.22,3.10,14.22,3.10,-3.10,-3.07,-2.77,11.12,11.12,11.12
26.69,14.20,3.08,14.20,3.08,-3.08,-3.07,-2.83,11.12,11.12,11.12
26.96,14.18,3.07,14.19,3.07,-3.07,-3.06,-2.89,11.12,11.12,11.12
27.23,14.16,3.05,14.17,3.05,-3.05,-3.05,-2.95,11.11,11.12,11.12
27.50,14.14,3.03,14.15,3.04,-3.04,-3.04,-3.01,11.11,11.11,11.11
27.77,14.12,3.00,14.13,3.02,-3.02,-3.04,-3.07,11.11,11.11,11.12
28.05,14.11,3.01,14.11,3.00,-3.00,-3.03,-3.13,11.11,11.11,11.11
28.33,14.08,2.98,14.09,2.99,-2.99,-3.02,-3.18,11.10,11.10,11.11
28.62,14.07,2.98,14.07,2.97,-2.97,-3.01,-3.23,11.10,11.10,11.09
28.90,14.04,2.95,14.05,2.96,-2.96,-3.01,-3.28,11.09,11.09,11.10
29.19,14.02,2.94,14.02,2.94,-2.94,-3.00,-3.32,11.08,11.08,11.09
29.48,14.00,2.93,14.00,2.92,-2.92,-2.99,-3.36,11.08,11.08,11.07
29.78,13.98,2.91,13.98,2.91,-2.91,-2.98,-3.40,11.08,11.07,11.07
30.08,13.95,2.89,13.96,2.89,-2.89,-2.98,-3.43,11.06,11.07,11.07
30.38,13.93,2.88,13.93,2.87,-2.87,-2.97,-3.46,11.06,11.06,11.05
30.68,13.90,2.86,13.91,2.85,-2.85,-2.96,-3.48,11.05,11.05,11.05
30.99,13.88,2.84,13.88,2.83,-2.83,-2.95,-3.50,11.05,11.05,11.05
31.30,13.85,2.81,13.86,2.81,-2.81,-2.94,-3.51,11.04,11.05,11.04
31.61,13.83,2.80,13.83,2.79,-2.79,-2.93,-3.52,11.04,11.04,11.04
31.93,13.80,2.77,13.81,2.77,-2.77,-2.93,-3.52,11.04,11.04,11.03
32.24,13.78,2.75,13.78,2.75,-2.75,-2.92,-3.52,11.03,11.03,11.04
32.57,13.75,2.73,13.76,2.73,-2.73,-2.91,-3.52,11.03,11.03,11.02
32.89,13.73,2.71,13.73,2.71,-2.71,-2.90,-3.51,11.03,11.02,11.03
33.22,13.70,2.68,13.71,2.69,-2.69,-2.89,-3.50,11.02,11.02,11.02
33.55,13.67,2.66,13.68,2.67,-2.67,-2.89,-3.48,11.00,11.01,11.02
33.89,13.65,2.65,13.65,2.65,-2.65,-2.88,-3.46,11.00,11.00,11.00
34.23,13.62,2.64,13.63,2.64,-2.64,-2.87,-3.44,10.99,10.99,10.99
34.57,13.60,2.62,13.60,2.62,-2.62,-2.86,-3.41,10.98,10.97,10.98
34.92,13.57,2.62,13.57,2.61,-2.61,-2.85,-3.38,10.96,10.96,10.95
35.27,13.54,2.60,13.54,2.60,-2.60,-2.84,-3.35,10.94,10.94,10.95
35.62,13.51,2.60,13.51,2.60,-2.60,-2.84,-3.32,10.92,10.91,10.91
35.97,13.47,2.58,13.48,2.59,-2.59,-2.83,-3.28,10.88,10.89,10.89
36.33,13.44,2.58,13.45,2.59,-2.59,-2.82,-3.25,10.85,10.86,10.87
36.70,13.41,2.58,13.42,2.59,-2.59,-2.81,-3.21,10.82,10.83,10.83
37.06,13.39,2.59,13.39,2.59,-2.59,-2.80,-3.17,10.80,10.80,10.80
37.43,13.35,2.59,13.36,2.59,-2.59,-2.79,-3.13,10.76,10.77,10.76
37.81,13.33,2.60,13.33,2.59,-2.59,-2.79,-3.10,10.74,10.74,10.74
38.19,13.29,2.60,13.30,2.60,-2.60,-2.78,-3.06,10.70,10.70,10.70
38.57,13.27,2.61,13.27,2.60,-2.60,-2.77,-3.02,10.68,10.67,10.67
38.95,13.24,2.61,13.24,2.60,-2.60,-2.76,-2.99,10.64,10.64,10.64
39.34,13.21,2.62,13.21,2.60,-2.60,-2.75,-2.95,10.61,10.61,10.60
39.74,13.17,2.61,13.18,2.60,-2.60,-2.75,-2.92,10.57,10.57,10.57
40.14,13.14,2.61,13.14,2.60,-2.60,-2.74,-2.89,10.54,10.54,10.54
40.54,13.10,2.59,13.11,2.60,-2.60,-2.73,-2.86,10.51,10.51,10.52
40.94,13.07,2.59,13.08,2.59,-2.59,-2.72,-2.83,10.48,10.49,10.49
41.35,13.04,2.59,13.04,2.59,-2.59,-2.72,-2.80,10.46,10.46,10.45
41.76,13.01,2.59,13.01,2.58,-2.58,-2.71,-2.77,10.44,10.43,10.42
42.18,12.97,2.56,12.97,2.57,-2.57,-2.70,-2.75,10.40,10.40,10.41
42.60,12.93,2.56,12.94,2.56,-2.56,-2.70,-2.73,10.37,10.38,10.38
43.03,12.90,2.56,12.90,2.55,-2.55,-2.69,-2.71,10.35,10.35,10.34
43.46,12.87,2.56,12.87,2.55,-2.55,-2.68,-2.69,10.33,10.32,10.32
43.90,12.83,2.54,12.83,2.54,-2.54,-2.68,-2.67,10.30,10.29,10.29
44.33,12.79,2.53,12.80,2.53,-2.53,-2.67,-2.66,10.26,10.26,10.26
44.78,12.75,2.52,12.76,2.53,-2.53,-2.66,-2.65,10.23,10.23,10.23
45.23,12.72,2.51,12.72,2.52,-2.52,-2.66,-2.64,10.20,10.20,10.22
45.68,12.68,2.51,12.69,2.52,-2.52,-2.65,-2.63,10.16,10.17,10.17
46.13,12.65,2.53,12.65,2.52,-2.52,-2.65,-2.62,10.13,10.13,10.12
46.60,12.61,2.52,12.61,2.52,-2.52,-2.64,-2.62,10.09,10.09,10.10
47.06,12.57,2.52,12.57,2.52,-2.52,-2.64,-2.62,10.05,10.05,10.06
47.53,12.53,2.52,12.53,2.53,-2.53,-2.63,-2.62,10.01,10.01,10.02
48.01,12.49,2.54,12.50,2.54,-2.54,-2.63,-2.62,9.96,9.96,9.96
48.49,12.45,2.54,12.46,2.54,-2.54,-2.62,-2.62,9.91,9.91,9.92
48.97,12.41,2.55,12.42,2.55,-2.55,-2.62,-2.63,9.86,9.87,9.87
49.46,12.37,2.55,12.38,2.56,-2.56,-2.62,-2.63,9.81,9.82,9.82
49.96,12.33,2.58,12.34,2.57,-2.57,-2.61,-2.64,9.76,9.77,9.75
50.46,12.29,2.59,12.30,2.58,-2.58,-2.61,-2.65,9.71,9.71,9.71
50.96,12.25,2.60,12.25,2.59,-2.59,-2.61,-2.66,9.66,9.66,9.65
51.47,12.21,2.61,12.21,2.60,-2.60,-2.60,-2.68,9.61,9.61,9.61
51.99,12.17,2.62,12.17,2.61,-2.61,-2.60,-2.69,9.56,9.56,9.55
52.51,12.13,2.63,12.13,2.62,-2.62,-2.60,-2.70,9.51,9.50,9.51
53.03,12.08,2.62,12.09,2.64,-2.64,-2.60,-2.72,9.45,9.45,9.47
53.56,12.04,2.64,12.04,2.65,-2.65,-2.60,-2.73,9.40,9.40,9.41
54.10,12.00,2.66,12.00,2.65,-2.65,-2.60,-2.75,9.35,9.35,9.35
54.64,11.95,2.66,11.96,2.66,-2.66,-2.60,-2.77,9.29,9.30,9.30
55.18,11.91,2.68,11.92,2.67,-2.67,-2.60,-2.78,9.25,9.25,9.24
55.74,11.86,2.68,11.87,2.67,-2.67,-2.60,-2.80,9.19,9.20,9.18
56.29,11.82,2.68,11.83,2.68,-2.68,-2.60,-2.82,9.15,9.15,9.14
56.86,11.78,2.69,11.78,2.68,-2.68,-2.60,-2.83,9.10,9.10,9.10
57.42,11.74,2.71,11.74,2.69,-2.69,-2.60,-2.85,9.05,9.05,9.03
58.00,11.69,2.71,11.69,2.70,-2.70,-2.60,-2.86,8.99,8.99,8.98
58.58,11.65,2.71,11.65,2.71,-2.71,-2.61,-2.87,8.94,8.93,8.95
59.16,11.60,2.71,11.60,2.73,-2.73,-2.61,-2.88,8.88,8.88,8.90
59.76,11.55,2.71,11.55,2.74,-2.74,-2.61,-2.89,8.82,8.82,8.85
60.35,11.50,2.73,11.51,2.75,-2.75,-2.62,-2.90,8.75,8.76,8.78
60.96,11.46,2.75,11.46,2.76,-2.76,-2.62,-2.91,8.70,8.70,8.71
61.57,11.41,2.78,11.41,2.78,-2.78,-2.63,-2.92,8.64,8.63,8.63
62.18,11.35,2.80,11.36,2.79,-2.79,-2.63,-2.92,8.56,8.57,8.56
62.80,11.31,2.82,11.31,2.81,-2.81,-2.64,-2.92,8.51,8.50,8.49
63.43,11.25,2.84,11.26,2.82,-2.82,-2.65,-2.92,8.43,8.44,8.41
64.07,11.20,2.85,11.21,2.84,-2.84,-2.66,-2.92,8.37,8.37,8.36
64.71,11.15,2.86,11.16,2.85,-2.85,-2.66,-2.92,8.30,8.30,8.30
65.35,11.10,2.87,11.10,2.87,-2.87,-2.67,-2.92,8.24,8.24,8.24
66.01,11.05,2.88,11.05,2.88,-2.88,-2.68,-2.91,8.17,8.17,8.17
66.67,11.00,2.88,11.00,2.89,-2.89,-2.69,-2.91,8.11,8.11,8.12
67.33,10.94,2.90,10.95,2.91,-2.91,-2.70,-2.90,8.04,8.04,8.05
68.01,10.89,2.91,10.90,2.92,-2.92,-2.71,-2.89,7.98,7.98,7.98
68.69,10.84,2.93,10.84,2.93,-2.93,-2.72,-2.88,7.92,7.91,7.91
69.37,10.79,2.94,10.79,2.94,-2.94,-2.74,-2.87,7.85,7.85,7.85
70.07,10.73,2.94,10.74,2.95,-2.95,-2.75,-2.86,7.78,7.78,7.79
70.77,10.68,2.96,10.68,2.97,-2.97,-2.76,-2.85,7.72,7.72,7.72
71.48,10.63,2.98,10.63,2.98,-2.98,-2.78,-2.84,7.65,7.65,7.65
72.19,10.57,3.00,10.58,3.00,-3.00,-2.79,-2.83,7.58,7.58,7.58
72.91,10.52,3.01,10.52,3.01,-3.01,-2.81,-2.82,7.52,7.51,7.51
73.64,10.46,3.03,10.47,3.02,-3.02,-2.82,-2.81,7.44,7.44,7.44
74.38,10.40,3.04,10.41,3.03,-3.03,-2.84,-2.80,7.37,7.38,7.37
75.12,10.35,3.06,10.36,3.05,-3.05,-2.86,-2.79,7.31,7.31,7.30
75.87,10.30,3.06,10.30,3.05,-3.05,-2.88,-2.78,7.25,7.25,7.25
76.63,10.24,3.07,10.25,3.06,-3.06,-2.89,-2.77,7.18,7.18,7.18
77.40,10.18,3.07,10.19,3.07,-3.07,-2.91,-2.77,7.11,7.12,7.11
78.17,10.13,3.09,10.13,3.08,-3.08,-2.93,-2.76,7.05,7.05,7.04
78.95,10.07,3.08,10.08,3.09,-3.09,-2.95,-2.76,6.98,6.99,7.00
79.74,10.02,3.09,10.02,3.10,-3.10,-2.97,-2.76,6.93,6.92,6.93
80.54,9.96,3.10,9.96,3.10,-3.10,-2.99,-2.76,6.86,6.86,6.86
81.35,9.91,3.11,9.91,3.11,-3.11,-3.02,-2.76,6.81,6.80,6.80
82.16,9.85,3.11,9.85,3.11,-3.11,-3.04,-2.77,6.74,6.74,6.74
82.98,9.78,3.11,9.79,3.12,-3.12,-3.06,-2.78,6.67,6.67,6.67
83.81,9.73,3.12,9.73,3.12,-3.12,-3.08,-2.78,6.61,6.61,6.61
84.65,9.67,3.14,9.67,3.13,-3.13,-3.11,-2.79,6.55,6.55,6.54
85.50,9.61,3.14,9.62,3.13,-3.13,-3.13,-2.81,6.48,6.48,6.47
86.35,9.56,3.15,9.56,3.14,-3.14,-3.15,-2.82,6.43,6.42,6.42
87.22,9.49,3.14,9.50,3.15,-3.15,-3.18,-2.84,6.35,6.35,6.35
88.09,9.43,3.15,9.44,3.15,-3.15,-3.20,-2.86,6.28,6.29,6.29
88.97,9.37,3.16,9.38,3.16,-3.16,-3.22,-2.88,6.22,6.22,6.22
89.86,9.31,3.16,9.32,3.17,-3.17,-3.25,-2.90,6.15,6.15,6.15
90.76,9.25,3.17,9.26,3.18,-3.18,-3.27,-2.93,6.08,6.08,6.08
91.66,9.19,3.18,9.20,3.19,-3.19,-3.30,-2.96,6.01,6.01,6.01
92.58,9.13,3.19,9.13,3.20,-3.20,-3.32,-2.99,5.93,5.94,5.94
93.51,9.07,3.21,9.07,3.21,-3.21,-3.34,-3.02,5.86,5.86,5.87
94.44,9.01,3.22,9.01,3.23,-3.23,-3.37,-3.05,5.79,5.78,5.80
95.39,8.95,3.24,8.95,3.24,-3.24,-3.39,-3.09,5.71,5.71,5.71
96.34,8.88,3.25,8.89,3.26,-3.26,-3.41,-3.12,5.63,5.63,5.63
97.30,8.82,3.27,8.83,3.28,-3.28,-3.43,-3.16,5.55,5.55,5.56
98.28,8.76,3.30,8.76,3.29,-3.29,-3.46,-3.21,5.47,5.47,5.46
99.26,8.69,3.32,8.70,3.31,-3.31,-3.48,-3.25,5.39,5.39,5.38
100.25,8.64,3.34,8.64,3.32,-3.32,-3.50,-3.29,5.32,5.32,5.30
101.25,8.57,3.34,8.57,3.33,-3.33,-3.52,-3.34,5.24,5.24,5.23
102.27,8.50,3.35,8.51,3.35,-3.35,-3.54,-3.38,5.16,5.16,5.15
103.29,8.44,3.37,8.44,3.36,-3.36,-3.55,-3.43,5.09,5.09,5.08
104.32,8.38,3.37,8.38,3.37,-3.37,-3.57,-3.48,5.02,5.01,5.01
105.37,8.31,3.38,8.31,3.37,-3.37,-3.59,-3.53,4.94,4.94,4.94
106.42,8.25,3.38,8.25,3.38,-3.38,-3.60,-3.57,4.87,4.87,4.87
107.48,8.18,3.40,8.18,3.39,-3.39,-3.61,-3.62,4.80,4.80,4.79
108.56,8.11,3.39,8.12,3.39,-3.39,-3.63,-3.67,4.72,4.72,4.72
109.64,8.04,3.39,8.05,3.40,-3.40,-3.64,-3.71,4.64,4.65,4.66
110.74,7.97,3.39,7.99,3.41,-3.41,-3.65,-3.76,4.57,4.58,4.58
111.85,7.92,3.42,7.92,3.42,-3.42,-3.66,-3.80,4.51,4.50,4.51
112.97,7.85,3.42,7.85,3.43,-3.43,-3.67,-3.85,4.43,4.42,4.43
114.10,7.78,3.43,7.79,3.44,-3.44,-3.67,-3.89,4.35,4.35,4.36
115.24,7.71,3.44,7.72,3.45,-3.45,-3.68,-3.92,4.27,4.27,4.28
116.39,7.65,3.47,7.65,3.46,-3.46,-3.68,-3.96,4.19,4.19,4.18
117.55,7.58,3.47,7.58,3.47,-3.47,-3.68,-3.99,4.11,4.11,4.11
118.73,7.52,3.51,7.52,3.49,-3.49,-3.69,-4.02,4.04,4.03,4.02
119.92,7.44,3.51,7.45,3.50,-3.50,-3.69,-4.05,3.94,3.94,3.94
121.12,7.38,3.52,7.38,3.52,-3.52,-3.69,-4.07,3.86,3.86,3.86
122.33,7.31,3.54,7.31,3.54,-3.54,-3.69,-4.08,3.78,3.77,3.77
123.55,7.24,3.55,7.24,3.55,-3.55,-3.68,-4.10,3.69,3.69,3.70
124.79,7.17,3.56,7.17,3.57,-3.57,-3.68,-4.11,3.61,3.60,3.62
126.03,7.09,3.57,7.10,3.59,-3.59,-3.68,-4.11,3.51,3.52,3.53
127.29,7.03,3.60,7.03,3.60,-3.60,-3.67,-4.12,3.43,3.43,3.43
128.57,6.96,3.62,6.96,3.62,-3.62,-3.67,-4.11,3.35,3.35,3.35
129.85,6.89,3.63,6.90,3.63,-3.63,-3.66,-4.11,3.26,3.27,3.26
131.15,6.83,3.66,6.83,3.64,-3.64,-3.66,-4.10,3.19,3.18,3.18
132.46,6.76,3.67,6.76,3.66,-3.66,-3.65,-4.08,3.11,3.11,3.09
133.79,6.69,3.67,6.70,3.67,-3.67,-3.64,-4.07,3.02,3.03,3.02
135.12,6.63,3.69,6.64,3.68,-3.68,-3.64,-4.05,2.95,2.95,2.94
136.48,6.57,3.70,6.57,3.69,-3.69,-3.63,-4.03,2.88,2.88,2.88
137.84,6.51,3.70,6.52,3.71,-3.71,-3.62,-4.00,2.81,2.81,2.81
139.22,6.45,3.72,6.46,3.72,-3.72,-3.62,-3.98,2.74,2.74,2.73
140.61,6.39,3.72,6.41,3.73,-3.73,-3.61,-3.95,2.66,2.67,2.68
142.02,6.35,3.74,6.35,3.74,-3.74,-3.61,-3.92,2.61,2.61,2.61
143.44,6.30,3.76,6.31,3.76,-3.76,-3.60,-3.89,2.55,2.55,2.55
144.87,6.25,3.76,6.26,3.77,-3.77,-3.60,-3.86,2.48,2.49,2.49
146.32,6.21,3.78,6.22,3.79,-3.79,-3.60,-3.82,2.43,2.43,2.43
147.78,6.17,3.80,6.18,3.81,-3.81,-3.60,-3.79,2.37,2.37,2.37
149.26,6.13,3.82,6.14,3.83,-3.83,-3.60,-3.76,2.31,2.31,2.31
150.75,6.09,3.85,6.10,3.85,-3.85,-3.60,-3.73,2.24,2.25,2.24
152.26,6.07,3.88,6.07,3.88,-3.88,-3.60,-3.70,2.20,2.19,2.20
153.78,6.03,3.90,6.04,3.90,-3.90,-3.60,-3.67,2.13,2.13,2.13
155.32,6.00,3.93,6.00,3.93,-3.93,-3.61,-3.65,2.07,2.07,2.08
156.88,5.96,3.95,5.97,3.96,-3.96,-3.62,-3.62,2.01,2.01,2.02
158.44,5.93,3.98,5.94,3.99,-3.99,-3.63,-3.60,1.95,1.95,1.95
160.03,5.91,4.02,5.90,4.02,-4.02,-3.64,-3.57,1.90,1.89,1.89
161.63,5.87,4.04,5.87,4.04,-4.04,-3.65,-3.55,1.83,1.83,1.83
163.24,5.83,4.08,5.83,4.07,-4.07,-3.66,-3.54,1.77,1.77,1.76
164.88,5.80,4.10,5.80,4.09,-4.09,-3.68,-3.52,1.71,1.70,1.70
166.53,5.76,4.13,5.76,4.11,-4.11,-3.70,-3.51,1.65,1.64,1.64
168.19,5.71,4.13,5.71,4.13,-4.13,-3.72,-3.50,1.58,1.58,1.58
169.87,5.67,4.15,5.67,4.15,-4.15,-3.75,-3.49,1.52,1.52,1.52
171.57,5.62,4.18,5.62,4.17,-4.17,-3.77,-3.48,1.46,1.45,1.45
173.29,5.58,4.20,5.58,4.18,-4.18,-3.80,-3.48,1.40,1.39,1.39
175.02,5.52,4.19,5.53,4.19,-4.19,-3.83,-3.48,1.33,1.33,1.33
176.77,5.47,4.20,5.48,4.20,-4.20,-3.86,-3.48,1.27,1.27,1.27
178.54,5.42,4.21,5.42,4.21,-4.21,-3.90,-3.49,1.22,1.22,1.22
180.32,5.37,4.22,5.37,4.22,-4.22,-3.93,-3.49,1.16,1.16,1.15
182.13,5.31,4.22,5.32,4.22,-4.22,-3.97,-3.51,1.09,1.10,1.10
183.95,5.26,4.22,5.27,4.23,-4.23,-4.01,-3.52,1.04,1.04,1.05
185.79,5.21,4.23,5.22,4.23,-4.23,-4.05,-3.53,0.98,0.98,0.98
187.65,5.16,4.23,5.17,4.24,-4.24,-4.09,-3.55,0.92,0.93,0.93
189.52,5.10,4.23,5.12,4.25,-4.25,-4.13,-3.57,0.86,0.87,0.88
191.42,5.06,4.25,5.07,4.25,-4.25,-4.17,-3.60,0.82,0.82,0.82
193.33,5.01,4.25,5.02,4.25,-4.25,-4.21,-3.62,0.76,0.76,0.76
195.27,4.96,4.26,4.97,4.26,-4.26,-4.25,-3.65,0.71,0.71,0.71
197.22,4.92,4.27,4.92,4.26,-4.26,-4.29,-3.68,0.66,0.66,0.65
199.19,4.87,4.27,4.87,4.26,-4.26,-4.33,-3.71,0.61,0.61,0.61
201.18,4.82,4.27,4.83,4.27,-4.27,-4.36,-3.74,0.56,0.56,0.55
203.19,4.78,4.27,4.78,4.27,-4.27,-4.39,-3.77,0.52,0.51,0.51
205.23,4.73,4.26,4.73,4.27,-4.27,-4.42,-3.81,0.47,0.47,0.47
207.28,4.68,4.25,4.68,4.26,-4.26,-4.44,-3.84,0.42,0.42,0.43
209.35,4.63,4.25,4.64,4.26,-4.26,-4.46,-3.88,0.38,0.38,0.38
211.44,4.58,4.24,4.59,4.25,-4.25,-4.47,-3.92,0.34,0.34,0.34
213.56,4.53,4.24,4.53,4.23,-4.23,-4.47,-3.95,0.30,0.30,0.30
215.69,4.48,4.22,4.48,4.22,-4.22,-4.47,-3.99,0.27,0.26,0.26
217.85,4.42,4.20,4.42,4.20,-4.20,-4.46,-4.02,0.22,0.22,0.23
220.03,4.37,4.19,4.37,4.18,-4.18,-4.44,-4.06,0.19,0.19,0.18
222.23,4.31,4.17,4.31,4.16,-4.16,-4.42,-4.09,0.16,0.15,0.15
224.45,4.25,4.14,4.25,4.13,-4.13,-4.39,-4.12,0.12,0.12,0.11
226.70,4.18,4.10,4.19,4.10,-4.10,-4.35,-4.14,0.08,0.08,0.08
228.96,4.12,4.06,4.12,4.07,-4.07,-4.31,-4.16,0.05,0.05,0.06
231.25,4.06,4.03,4.06,4.04,-4.04,-4.25,-4.18,0.03,0.02,0.03
233.57,3.99,3.99,3.99,4.00,-4.00,-4.19,-4.20,-0.00,-0.01,-0.00
235.90,3.92,3.96,3.92,3.96,-3.96,-4.13,-4.21,-0.03,-0.03,-0.04
238.26,3.85,3.92,3.86,3.91,-3.91,-4.06,-4.22,-0.06,-0.06,-0.07
240.64,3.78,3.86,3.79,3.87,-3.87,-3.98,-4.22,-0.08,-0.08,-0.08
243.05,3.72,3.83,3.72,3.82,-3.82,-3.90,-4.22,-0.10,-0.10,-0.10
245.48,3.64,3.78,3.65,3.77,-3.77,-3.82,-4.21,-0.13,-0.13,-0.13
247.93,3.57,3.73,3.58,3.72,-3.72,-3.73,-4.19,-0.15,-0.15,-0.16
250.41,3.50,3.67,3.51,3.67,-3.67,-3.64,-4.17,-0.17,-0.17,-0.16
252.92,3.43,3.61,3.44,3.62,-3.62,-3.55,-4.15,-0.19,-0.18,-0.18
255.45,3.36,3.57,3.37,3.57,-3.57,-3.46,-4.12,-0.21,-0.20,-0.20
258.00,3.29,3.51,3.30,3.52,-3.52,-3.36,-4.08,-0.23,-0.22,-0.22
260.58,3.23,3.46,3.23,3.47,-3.47,-3.27,-4.04,-0.23,-0.24,-0.23
263.19,3.16,3.42,3.16,3.42,-3.42,-3.18,-3.99,-0.25,-0.25,-0.25
265.82,3.10,3.37,3.10,3.37,-3.37,-3.08,-3.94,-0.26,-0.27,-0.27
268.48,3.03,3.31,3.03,3.32,-3.32,-2.99,-3.88,-0.28,-0.29,-0.28
271.16,2.96,3.26,2.96,3.26,-3.26,-2.90,-3.82,-0.30,-0.30,-0.30
273.87,2.89,3.21,2.90,3.21,-3.21,-2.81,-3.75,-0.32,-0.31,-0.31
276.61,2.83,3.17,2.83,3.16,-3.16,-2.72,-3.68,-0.33,-0.33,-0.33
279.38,2.76,3.12,2.77,3.11,-3.11,-2.63,-3.61,-0.35,-0.34,-0.35
282.17,2.70,3.07,2.70,3.06,-3.06,-2.54,-3.53,-0.35,-0.36,-0.36
284.99,2.63,3.00,2.64,3.01,-3.01,-2.46,-3.45,-0.37,-0.37,-0.36
287.84,2.56,2.94,2.57,2.95,-2.95,-2.38,-3.37,-0.39,-0.38,-0.37
290.72,2.51,2.92,2.51,2.90,-2.90,-2.30,-3.29,-0.39,-0.39,-0.40
293.63,2.44,2.85,2.45,2.85,-2.85,-2.22,-3.20,-0.40,-0.40,-0.40
296.57,2.38,2.79,2.38,2.79,-2.79,-2.14,-3.11,-0.41,-0.41,-0.41
299.53,2.32,2.74,2.32,2.74,-2.74,-2.07,-3.03,-0.41,-0.42,-0.42
302.53,2.25,2.68,2.26,2.68,-2.68,-2.00,-2.94,-0.43,-0.43,-0.43
305.55,2.19,2.63,2.20,2.63,-2.63,-1.93,-2.85,-0.43,-0.43,-0.43
308.61,2.12,2.56,2.13,2.57,-2.57,-1.86,-2.76,-0.45,-0.44,-0.44
311.69,2.07,2.52,2.07,2.52,-2.52,-1.80,-2.68,-0.44,-0.45,-0.45
314.81,2.01,2.47,2.01,2.46,-2.46,-1.73,-2.59,-0.45,-0.45,-0.45
317.96,1.94,2.40,1.95,2.41,-2.41,-1.67,-2.50,-0.46,-0.46,-0.46
321.14,1.89,2.35,1.89,2.35,-2.35,-1.61,-2.42,-0.45,-0.46,-0.46
324.35,1.82,2.30,1.83,2.29,-2.29,-1.55,-2.33,-0.46,-0.46,-0.47
327.59,1.76,2.22,1.77,2.23,-2.23,-1.50,-2.24,-0.47,-0.47,-0.46
330.87,1.70,2.17,1.70,2.17,-2.17,-1.44,-2.16,-0.47,-0.47,-0.46
334.18,1.64,2.12,1.64,2.12,-2.12,-1.39,-2.08,-0.47,-0.47,-0.48
337.52,1.58,2.06,1.58,2.06,-2.06,-1.34,-2.00,-0.47,-0.47,-0.47
340.90,1.52,2.00,1.53,2.00,-2.00,-1.29,-1.92,-0.47,-0.47,-0.48
344.30,1.46,1.94,1.47,1.94,-1.94,-1.24,-1.84,-0.48,-0.47,-0.47
347.75,1.40,1.87,1.41,1.88,-1.88,-1.19,-1.76,-0.48,-0.48,-0.47
351.23,1.35,1.84,1.35,1.82,-1.82,-1.15,-1.68,-0.47,-0.48,-0.48
354.74,1.28,1.75,1.29,1.76,-1.76,-1.10,-1.61,-0.48,-0.48,-0.47
358.28,1.22,1.71,1.23,1.71,-1.71,-1.06,-1.53,-0.48,-0.48,-0.48
361.87,1.17,1.65,1.17,1.65,-1.65,-1.02,-1.46,-0.48,-0.48,-0.48
365.49,1.11,1.59,1.12,1.59,-1.59,-0.97,-1.39,-0.48,-0.48,-0.48
369.14,1.05,1.53,1.06,1.54,-1.54,-0.93,-1.32,-0.48,-0.48,-0.47
372.83,1.00,1.48,1.00,1.48,-1.48,-0.89,-1.25,-0.47,-0.48,-0.48
376.56,0.94,1.42,0.94,1.42,-1.42,-0.86,-1.18,-0.48,-0.48,-0.48
380.33,0.88,1.37,0.89,1.37,-1.37,-0.82,-1.11,-0.48,-0.48,-0.48
384.13,0.83,1.32,0.83,1.31,-1.31,-0.78,-1.05,-0.48,-0.48,-0.49
387.97,0.77,1.25,0.77,1.25,-1.25,-0.75,-0.98,-0.48,-0.48,-0.48
391.85,0.71,1.20,0.72,1.20,-1.20,-0.71,-0.92,-0.48,-0.48,-0.48
395.77,0.66,1.15,0.66,1.14,-1.14,-0.68,-0.86,-0.48,-0.48,-0.48
399.73,0.60,1.09,0.61,1.09,-1.09,-0.64,-0.79,-0.48,-0.48,-0.49
403.72,0.54,1.02,0.55,1.03,-1.03,-0.61,-0.73,-0.49,-0.48,-0.48
407.76,0.49,0.98,0.50,0.98,-0.98,-0.58,-0.68,-0.48,-0.48,-0.48
411.84,0.44,0.93,0.44,0.93,-0.93,-0.55,-0.62,-0.48,-0.48,-0.48
415.96,0.38,0.86,0.39,0.87,-0.87,-0.52,-0.56,-0.49,-0.49,-0.48
420.12,0.32,0.81,0.33,0.82,-0.82,-0.48,-0.50,-0.49,-0.49,-0.49
424.32,0.27,0.77,0.28,0.76,-0.76,-0.45,-0.45,-0.49,-0.49,-0.49
428.56,0.22,0.71,0.22,0.71,-0.71,-0.42,-0.40,-0.49,-0.49,-0.48
432.85,0.17,0.66,0.17,0.66,-0.66,-0.39,-0.34,-0.49,-0.49,-0.49
437.18,0.11,0.61,0.11,0.61,-0.61,-0.36,-0.29,-0.49,-0.49,-0.50
441.55,0.06,0.56,0.06,0.56,-0.56,-0.33,-0.24,-0.49,-0.50,-0.50
445.96,0.00,0.51,0.01,0.50,-0.50,-0.31,-0.19,-0.50,-0.50,-0.50
450.42,-0.05,0.46,-0.05,0.45,-0.45,-0.28,-0.15,-0.50,-0.50,-0.50
454.93,-0.11,0.40,-0.10,0.40,-0.40,-0.25,-0.10,-0.51,-0.50,-0.50
459.48,-0.16,0.35,-0.15,0.35,-0.35,-0.22,-0.06,-0.50,-0.50,-0.51
464.07,-0.21,0.29,-0.20,0.30,-0.30,-0.19,-0.01,-0.50,-0.50,-0.50
468.71,-0.26,0.24,-0.26,0.25,-0.25,-0.16,0.03,-0.50,-0.50,-0.50
473.40,-0.31,0.19,-0.31,0.19,-0.19,-0.13,0.07,-0.50,-0.50,-0.50
478.13,-0.37,0.14,-0.36,0.14,-0.14,-0.10,0.11,-0.51,-0.50,-0.50
