frequency,raw,error,smoothed,error_smoothed,equalization,parametric_eq,fixed_band_eq,equalized_raw,equalized_smoothed,target
20.00,3.83,-6.53,3.79,-6.60,6.60,6.49,1.73,10.43,10.39,10.36
20.20,3.86,-6.53,3.86,-6.54,6.54,6.46,1.78,10.40,10.41,10.39
20.40,3.92,-6.50,3.94,-6.49,6.49,6.41,1.84,10.41,10.43,10.42
20.61,3.99,-6.45,4.02,-6.43,6.43,6.37,1.89,10.42,10.45,10.44
20.81,4.09,-6.38,4.09,-6.37,6.37,6.32,1.95,10.46,10.46,10.47
21.02,4.16,-6.34,4.17,-6.31,6.31,6.27,2.01,10.47,10.48,10.50
21.23,4.23,-6.28,4.24,-6.25,6.25,6.22,2.07,10.48,10.49,10.51
21.44,4.33,-6.19,4.32,-6.18,6.18,6.16,2.14,10.51,10.50,10.52
21.66,4.39,-6.14,4.40,-6.12,6.12,6.10,2.20,10.51,10.51,10.53
21.87,4.48,-6.05,4.47,-6.05,6.05,6.04,2.27,10.53,10.52,10.53
22.09,4.56,-5.98,4.55,-5.98,5.98,5.98,2.34,10.54,10.53,10.54
22.31,4.62,-5.92,4.63,-5.91,5.91,5.91,2.41,10.53,10.54,10.54
22.54,4.71,-5.83,4.71,-5.83,5.83,5.84,2.48,10.54,10.54,10.54
22.76,4.79,-5.75,4.78,-5.76,5.76,5.77,2.56,10.55,10.54,10.54
22.99,4.86,-5.67,4.86,-5.68,5.68,5.70,2.63,10.54,10.54,10.53
23.22,4.93,-5.60,4.93,-5.60,5.60,5.63,2.71,10.53,10.53,10.53
23.45,5.00,-5.52,5.01,-5.52,5.52,5.56,2.79,10.52,10.53,10.52
23.69,5.08,-5.45,5.08,-5.45,5.45,5.49,2.87,10.52,10.53,10.52
23.92,5.16,-5.36,5.16,-5.37,5.37,5.41,2.96,10.53,10.53,10.52
24.16,5.24,-5.29,5.23,-5.29,5.29,5.33,3.04,10.53,10.53,10.53
24.40,5.31,-5.22,5.31,-5.22,5.22,5.26,3.13,10.53,10.52,10.53
24.65,5.38,-5.14,5.38,-5.14,5.14,5.18,3.21,10.52,10.52,10.52
24.89,5.45,-5.07,5.45,-5.07,5.07,5.10,3.30,10.52,10.52,10.52
25.14,5.52,-5.00,5.52,-4.99,4.99,5.02,3.39,10.51,10.52,10.52
25.39,5.60,-4.92,5.60,-4.92,4.92,4.95,3.48,10.52,10.52,10.52
25.65,5.68,-4.84,5.67,-4.85,4.85,4.87,3.57,10.52,10.51,10.52
25.91,5.73,-4.78,5.74,-4.77,4.77,4.79,3.65,10.50,10.51,10.51
26.16,5.81,-4.69,5.81,-4.70,4.70,4.71,3.74,10.51,10.51,10.50
26.43,5.89,-4.61,5.88,-4.62,4.62,4.63,3.83,10.51,10.51,10.50
26.69,5.95,-4.55,5.95,-4.55,4.55,4.55,3.92,10.50,10.50,10.50
26.96,6.02,-4.48,6.02,-4.48,4.48,4.47,4.00,10.50,10.50,10.50
27.23,6.08,-4.42,6.09,-4.40,4.40,4.40,4.08,10.48,10.49,10.50
27.50,6.15,-4.35,6.16,-4.33,4.33,4.32,4.16,10.48,10.49,10.50
27.77,6.23,-4.26,6.23,-4.26,4.26,4.24,4.24,10.49,10.49,10.49
28.05,6.31,-4.17,6.29,-4.19,4.19,4.17,4.31,10.50,10.48,10.48
28.33,6.36,-4.11,6.36,-4.12,4.12,4.09,4.38,10.48,10.48,10.47
28.62,6.43,-4.04,6.42,-4.05,4.05,4.01,4.44,10.48,10.47,10.47
28.90,6.49,-3.98,6.49,-3.98,3.98,3.94,4.50,10.47,10.47,10.47
29.19,6.56,-3.90,6.55,-3.91,3.91,3.86,4.55,10.47,10.46,10.46
29.48,6.62,-3.85,6.62,-3.84,3.84,3.79,4.59,10.46,10.46,10.47
29.78,6.68,-3.77,6.68,-3.77,3.77,3.72,4.63,10.45,10.45,10.45
30.08,6.74,-3.71,6.75,-3.70,3.70,3.64,4.66,10.44,10.45,10.45
30.38,6.81,-3.63,6.81,-3.63,3.63,3.57,4.69,10.44,10.44,10.44
30.68,6.87,-3.57,6.87,-3.56,3.56,3.50,4.70,10.43,10.43,10.44
30.99,6.93,-3.50,6.93,-3.50,3.50,3.43,4.71,10.43,10.43,10.42
31.30,6.99,-3.43,6.99,-3.43,3.43,3.36,4.71,10.42,10.42,10.42
31.61,7.06,-3.36,7.05,-3.36,3.36,3.29,4.70,10.42,10.42,10.42
31.93,7.12,-3.29,7.11,-3.30,3.30,3.23,4.68,10.42,10.41,10.41
32.24,7.18,-3.21,7.17,-3.23,3.23,3.16,4.65,10.41,10.40,10.39
32.57,7.24,-3.15,7.23,-3.17,3.17,3.09,4.62,10.41,10.39,10.39
32.89,7.28,-3.11,7.28,-3.10,3.10,3.03,4.58,10.38,10.39,10.39
33.22,7.33,-3.05,7.34,-3.04,3.04,2.96,4.53,10.37,10.38,10.38
33.55,7.38,-2.99,7.40,-2.97,2.97,2.90,4.48,10.35,10.37,10.37
33.89,7.44,-2.92,7.45,-2.91,2.91,2.83,4.41,10.35,10.36,10.36
34.23,7.51,-2.85,7.50,-2.85,2.85,2.77,4.35,10.36,10.35,10.36
34.57,7.56,-2.78,7.55,-2.79,2.79,2.71,4.28,10.35,10.34,10.34
34.92,7.61,-2.72,7.61,-2.73,2.73,2.65,4.20,10.33,10.33,10.33
35.27,7.66,-2.67,7.66,-2.67,2.67,2.59,4.12,10.33,10.32,10.33
35.62,7.71,-2.60,7.71,-2.61,2.61,2.53,4.03,10.32,10.31,10.31
35.97,7.76,-2.54,7.76,-2.55,2.55,2.47,3.94,10.31,10.30,10.30
36.33,7.81,-2.48,7.81,-2.48,2.48,2.41,3.85,10.29,10.29,10.29
36.70,7.85,-2.43,7.86,-2.42,2.42,2.36,3.76,10.27,10.28,10.28
37.06,7.90,-2.36,7.90,-2.36,2.36,2.30,3.66,10.26,10.27,10.26
37.43,7.95,-2.31,7.95,-2.31,2.31,2.25,3.56,10.26,10.26,10.26
37.81,7.99,-2.26,8.00,-2.25,2.25,2.19,3.47,10.24,10.24,10.24
38.19,8.04,-2.19,8.04,-2.19,2.19,2.14,3.37,10.23,10.23,10.23
38.57,8.09,-2.13,8.08,-2.13,2.13,2.08,3.27,10.22,10.22,10.22
38.95,8.12,-2.09,8.13,-2.08,2.08,2.03,3.17,10.20,10.21,10.21
39.34,8.18,-2.01,8.17,-2.02,2.02,1.98,3.07,10.20,10.20,10.19
39.74,8.21,-1.97,8.21,-1.97,1.97,1.93,2.97,10.18,10.18,10.18
40.14,8.26,-1.91,8.25,-1.92,1.92,1.88,2.88,10.18,10.17,10.17
40.54,8.30,-1.85,8.29,-1.87,1.87,1.83,2.78,10.16,10.16,10.15
40.94,8.33,-1.82,8.33,-1.81,1.81,1.78,2.68,10.14,10.15,10.15
41.35,8.38,-1.75,8.37,-1.76,1.76,1.73,2.59,10.14,10.14,10.13
41.76,8.41,-1.71,8.41,-1.71,1.71,1.68,2.50,10.12,10.12,10.12
42.18,8.44,-1.68,8.44,-1.66,1.66,1.63,2.40,10.10,10.11,10.12
42.60,8.47,-1.63,8.48,-1.61,1.61,1.59,2.31,10.08,10.09,10.10
43.03,8.52,-1.57,8.51,-1.56,1.56,1.54,2.22,10.08,10.08,10.09
43.46,8.56,-1.51,8.55,-1.51,1.51,1.50,2.14,10.07,10.06,10.07
43.90,8.57,-1.47,8.58,-1.47,1.47,1.45,2.05,10.03,10.05,10.04
44.33,8.61,-1.41,8.61,-1.42,1.42,1.41,1.97,10.03,10.03,10.02
44.78,8.65,-1.35,8.64,-1.37,1.37,1.36,1.88,10.02,10.01,10.00
45.23,8.66,-1.33,8.67,-1.32,1.32,1.32,1.80,9.98,9.99,9.98
45.68,8.70,-1.27,8.70,-1.27,1.27,1.28,1.72,9.97,9.97,9.96
46.13,8.75,-1.19,8.73,-1.22,1.22,1.23,1.64,9.97,9.95,9.94
46.60,8.75,-1.18,8.76,-1.17,1.17,1.19,1.57,9.92,9.93,9.93
47.06,8.80,-1.11,8.79,-1.12,1.12,1.15,1.49,9.92,9.91,9.91
47.53,8.82,-1.07,8.81,-1.07,1.07,1.11,1.42,9.89,9.88,9.89
48.01,8.84,-1.04,8.84,-1.02,1.02,1.07,1.34,9.86,9.86,9.88
48.49,8.86,-0.99,8.86,-0.97,0.97,1.03,1.27,9.83,9.84,9.85
48.97,8.89,-0.92,8.89,-0.92,0.92,0.99,1.20,9.81,9.81,9.81
49.46,8.90,-0.88,8.91,-0.88,0.88,0.95,1.13,9.78,9.79,9.78
49.96,8.94,-0.81,8.93,-0.83,0.83,0.91,1.07,9.77,9.76,9.75
50.46,8.94,-0.79,8.96,-0.78,0.78,0.87,1.00,9.72,9.73,9.73
50.96,8.98,-0.73,8.97,-0.73,0.73,0.83,0.94,9.71,9.71,9.71
51.47,8.98,-0.69,8.99,-0.69,0.69,0.79,0.87,9.67,9.68,9.67
51.99,9.03,-0.62,9.01,-0.64,0.64,0.75,0.81,9.67,9.65,9.64
52.51,9.03,-0.60,9.03,-0.59,0.59,0.72,0.75,9.62,9.62,9.63
53.03,9.05,-0.55,9.05,-0.54,0.54,0.68,0.69,9.59,9.59,9.60
53.56,9.08,-0.49,9.07,-0.50,0.50,0.64,0.63,9.58,9.57,9.57
54.10,9.08,-0.47,9.09,-0.46,0.46,0.60,0.57,9.53,9.54,9.54
54.64,9.10,-0.42,9.10,-0.41,0.41,0.57,0.52,9.51,9.52,9.52
55.18,9.12,-0.37,9.12,-0.37,0.37,0.53,0.46,9.49,9.49,9.49
55.74,9.12,-0.34,9.13,-0.34,0.34,0.49,0.41,9.46,9.46,9.46
56.29,9.12,-0.32,9.14,-0.30,0.30,0.46,0.36,9.42,9.44,9.44
56.86,9.17,-0.24,9.15,-0.26,0.26,0.42,0.31,9.43,9.41,9.40
57.42,9.17,-0.20,9.16,-0.22,0.22,0.39,0.26,9.39,9.38,9.37
58.00,9.17,-0.18,9.16,-0.19,0.19,0.35,0.21,9.36,9.35,9.35
58.58,9.17,-0.16,9.17,-0.15,0.15,0.32,0.16,9.32,9.32,9.33
59.16,9.17,-0.13,9.17,-0.12,0.12,0.28,0.11,9.29,9.29,9.30
59.76,9.17,-0.11,9.18,-0.09,0.09,0.25,0.07,9.26,9.26,9.28
60.35,9.17,-0.07,9.18,-0.06,0.06,0.21,0.02,9.22,9.23,9.24
60.96,9.17,-0.04,9.17,-0.03,0.03,0.18,-0.02,9.20,9.20,9.21
61.57,9.17,0.00,9.17,0.00,-0.00,0.14,-0.06,9.17,9.17,9.17
62.18,9.17,0.04,9.17,0.03,-0.03,0.11,-0.10,9.14,9.14,9.13
62.80,9.17,0.07,9.16,0.05,-0.05,0.07,-0.14,9.11,9.10,9.10
63.43,9.17,0.11,9.15,0.08,-0.08,0.04,-0.18,9.09,9.07,9.06
64.07,9.12,0.09,9.13,0.10,-0.10,0.00,-0.22,9.02,9.03,9.03
64.71,9.12,0.12,9.12,0.13,-0.13,-0.03,-0.25,8.99,9.00,9.00
65.35,9.12,0.16,9.11,0.15,-0.15,-0.07,-0.29,8.97,8.96,8.96
66.01,9.08,0.15,9.09,0.17,-0.17,-0.10,-0.32,8.91,8.93,8.93
66.67,9.08,0.19,9.07,0.18,-0.18,-0.13,-0.36,8.90,8.89,8.89
67.33,9.06,0.20,9.06,0.20,-0.20,-0.17,-0.39,8.86,8.86,8.86
68.01,9.03,0.21,9.03,0.21,-0.21,-0.20,-0.42,8.81,8.82,8.82
68.69,9.02,0.23,9.01,0.23,-0.23,-0.24,-0.46,8.79,8.78,8.78
69.37,8.98,0.23,8.99,0.24,-0.24,-0.27,-0.49,8.74,8.75,8.75
70.07,8.98,0.27,8.97,0.26,-0.26,-0.31,-0.52,8.72,8.71,8.71
70.77,8.94,0.26,8.95,0.27,-0.27,-0.34,-0.55,8.66,8.67,8.68
71.48,8.94,0.30,8.93,0.29,-0.29,-0.38,-0.58,8.65,8.63,8.64
72.19,8.89,0.30,8.90,0.31,-0.31,-0.41,-0.61,8.58,8.59,8.59
72.91,8.89,0.34,8.88,0.33,-0.33,-0.45,-0.65,8.56,8.55,8.55
73.64,8.84,0.33,8.86,0.35,-0.35,-0.48,-0.68,8.49,8.51,8.51
74.38,8.84,0.37,8.84,0.37,-0.37,-0.52,-0.71,8.47,8.47,8.47
75.12,8.80,0.37,8.82,0.39,-0.39,-0.55,-0.74,8.41,8.43,8.43
75.87,8.80,0.41,8.80,0.41,-0.41,-0.59,-0.77,8.39,8.39,8.39
76.63,8.80,0.45,8.78,0.43,-0.43,-0.62,-0.80,8.37,8.35,8.35
77.40,8.75,0.44,8.76,0.45,-0.45,-0.66,-0.84,8.30,8.31,8.31
78.17,8.75,0.49,8.74,0.47,-0.47,-0.69,-0.87,8.28,8.27,8.26
78.95,8.73,0.50,8.72,0.49,-0.49,-0.73,-0.91,8.23,8.23,8.23
79.74,8.70,0.51,8.70,0.52,-0.52,-0.77,-0.94,8.18,8.18,8.19
80.54,8.70,0.55,8.68,0.54,-0.54,-0.80,-0.98,8.16,8.14,8.14
81.35,8.66,0.56,8.66,0.56,-0.56,-0.84,-1.01,8.10,8.10,8.10
82.16,8.66,0.60,8.64,0.58,-0.58,-0.88,-1.05,8.08,8.06,8.06
82.98,8.61,0.59,8.62,0.61,-0.61,-0.91,-1.09,8.00,8.01,8.02
83.81,8.61,0.64,8.60,0.63,-0.63,-0.95,-1.13,7.98,7.97,7.96
84.65,8.56,0.64,8.58,0.66,-0.66,-0.99,-1.17,7.90,7.92,7.92
85.50,8.56,0.68,8.57,0.69,-0.69,-1.03,-1.21,7.87,7.88,7.88
86.35,8.56,0.73,8.55,0.72,-0.72,-1.06,-1.25,7.84,7.83,7.83
87.22,8.52,0.74,8.54,0.76,-0.76,-1.10,-1.29,7.76,7.78,7.78
88.09,8.52,0.79,8.53,0.80,-0.80,-1.14,-1.34,7.72,7.73,7.73
88.97,8.52,0.83,8.52,0.84,-0.84,-1.18,-1.38,7.68,7.68,7.69
89.86,8.52,0.88,8.52,0.88,-0.88,-1.22,-1.43,7.64,7.63,7.64
90.76,8.52,0.94,8.51,0.93,-0.93,-1.26,-1.48,7.59,7.58,7.57
91.66,8.52,0.99,8.51,0.99,-0.99,-1.30,-1.53,7.53,7.53,7.53
92.58,8.52,1.05,8.52,1.04,-1.04,-1.34,-1.58,7.47,7.47,7.47
93.51,8.52,1.10,8.52,1.10,-1.10,-1.38,-1.63,7.42,7.42,7.42
94.44,8.52,1.15,8.53,1.16,-1.16,-1.42,-1.68,7.36,7.36,7.37
95.39,8.52,1.21,8.53,1.23,-1.23,-1.46,-1.73,7.29,7.31,7.31
96.34,8.56,1.31,8.54,1.29,-1.29,-1.51,-1.79,7.27,7.25,7.25
97.30,8.56,1.37,8.56,1.36,-1.36,-1.55,-1.84,7.20,7.19,7.19
98.28,8.56,1.42,8.57,1.43,-1.43,-1.59,-1.90,7.13,7.14,7.13
99.26,8.56,1.48,8.58,1.50,-1.50,-1.63,-1.96,7.06,7.08,7.08
100.25,8.61,1.59,8.59,1.57,-1.57,-1.67,-2.01,7.04,7.02,7.02
101.25,8.61,1.65,8.60,1.64,-1.64,-1.72,-2.07,6.97,6.96,6.96
102.27,8.61,1.70,8.61,1.71,-1.71,-1.76,-2.13,6.90,6.91,6.91
103.29,8.61,1.77,8.63,1.78,-1.78,-1.81,-2.19,6.83,6.85,6.84
104.32,8.66,1.87,8.64,1.85,-1.85,-1.85,-2.24,6.81,6.79,6.79
105.37,8.66,1.93,8.64,1.91,-1.91,-1.90,-2.30,6.75,6.73,6.73
106.42,8.66,1.98,8.65,1.98,-1.98,-1.94,-2.36,6.68,6.67,6.68
107.48,8.66,2.04,8.65,2.04,-2.04,-1.99,-2.42,6.62,6.61,6.62
108.56,8.66,2.11,8.66,2.11,-2.11,-2.03,-2.47,6.55,6.55,6.55
109.64,8.66,2.17,8.66,2.17,-2.17,-2.08,-2.53,6.49,6.49,6.49
110.74,8.66,2.22,8.66,2.23,-2.23,-2.12,-2.58,6.42,6.43,6.43
111.85,8.66,2.28,8.66,2.30,-2.30,-2.17,-2.63,6.36,6.37,6.38
112.97,8.66,2.36,8.66,2.36,-2.36,-2.22,-2.69,6.30,6.30,6.30
114.10,8.66,2.42,8.67,2.42,-2.42,-2.26,-2.73,6.23,6.24,6.24
115.24,8.66,2.48,8.67,2.49,-2.49,-2.31,-2.78,6.17,6.18,6.18
116.39,8.66,2.55,8.66,2.55,-2.55,-2.36,-2.83,6.11,6.12,6.11
117.55,8.66,2.61,8.66,2.61,-2.61,-2.41,-2.87,6.05,6.05,6.05
118.73,8.66,2.68,8.66,2.67,-2.67,-2.46,-2.91,5.99,5.99,5.98
119.92,8.66,2.73,8.66,2.73,-2.73,-2.51,-2.94,5.93,5.93,5.93
121.12,8.66,2.80,8.66,2.79,-2.79,-2.55,-2.98,5.87,5.86,5.86
122.33,8.66,2.86,8.65,2.85,-2.85,-2.60,-3.01,5.81,5.80,5.80
123.55,8.66,2.91,8.65,2.91,-2.91,-2.65,-3.03,5.75,5.74,5.75
124.79,8.66,2.97,8.64,2.96,-2.96,-2.70,-3.06,5.69,5.68,5.69
126.03,8.64,3.02,8.64,3.02,-3.02,-2.75,-3.08,5.62,5.62,5.62
127.29,8.61,3.05,8.63,3.07,-3.07,-2.80,-3.09,5.54,5.56,5.56
128.57,8.61,3.12,8.62,3.12,-3.12,-2.85,-3.10,5.49,5.50,5.49
129.85,8.61,3.17,8.60,3.17,-3.17,-2.90,-3.11,5.44,5.44,5.43
131.15,8.61,3.23,8.59,3.21,-3.21,-2.95,-3.12,5.40,5.38,5.38
132.46,8.56,3.24,8.58,3.25,-3.25,-3.00,-3.13,5.30,5.32,5.32
133.79,8.56,3.29,8.56,3.30,-3.30,-3.05,-3.13,5.26,5.27,5.27
135.12,8.56,3.35,8.55,3.33,-3.33,-3.10,-3.13,5.23,5.21,5.21
136.48,8.52,3.36,8.53,3.37,-3.37,-3.15,-3.12,5.15,5.16,5.16
137.84,8.52,3.41,8.51,3.41,-3.41,-3.19,-3.12,5.11,5.11,5.11
139.22,8.49,3.45,8.49,3.44,-3.44,-3.24,-3.11,5.05,5.05,5.04
140.61,8.47,3.48,8.47,3.47,-3.47,-3.29,-3.10,5.00,5.00,4.99
142.02,8.47,3.51,8.45,3.50,-3.50,-3.34,-3.10,4.97,4.96,4.96
143.44,8.42,3.51,8.43,3.52,-3.52,-3.39,-3.09,4.90,4.91,4.91
144.87,8.42,3.56,8.41,3.55,-3.55,-3.43,-3.08,4.87,4.86,4.86
146.32,8.38,3.57,8.39,3.58,-3.58,-3.48,-3.07,4.80,4.81,4.81
147.78,8.38,3.60,8.37,3.60,-3.60,-3.53,-3.06,4.78,4.77,4.78
149.26,8.34,3.61,8.35,3.63,-3.63,-3.57,-3.05,4.71,4.72,4.73
150.75,8.33,3.66,8.33,3.65,-3.65,-3.62,-3.04,4.68,4.67,4.67
152.26,8.30,3.67,8.31,3.68,-3.68,-3.66,-3.03,4.62,4.63,4.63
153.78,8.28,3.69,8.28,3.70,-3.70,-3.70,-3.02,4.58,4.58,4.59
155.32,8.27,3.74,8.26,3.73,-3.73,-3.75,-3.01,4.54,4.53,4.53
156.88,8.24,3.75,8.24,3.75,-3.75,-3.79,-3.01,4.49,4.49,4.49
158.44,8.23,3.79,8.22,3.78,-3.78,-3.83,-3.01,4.45,4.44,4.44
160.03,8.19,3.80,8.20,3.80,-3.80,-3.87,-3.01,4.39,4.40,4.39
161.63,8.19,3.85,8.18,3.83,-3.83,-3.91,-3.01,4.36,4.35,4.34
163.24,8.14,3.84,8.15,3.85,-3.85,-3.94,-3.01,4.29,4.30,4.30
164.88,8.14,3.88,8.13,3.87,-3.87,-3.98,-3.01,4.27,4.26,4.26
166.53,8.10,3.89,8.11,3.90,-3.90,-4.01,-3.02,4.20,4.21,4.21
168.19,8.09,3.92,8.08,3.91,-3.91,-4.05,-3.03,4.18,4.17,4.17
169.87,8.05,3.92,8.06,3.93,-3.93,-4.08,-3.04,4.11,4.12,4.12
171.57,8.05,3.97,8.03,3.95,-3.95,-4.11,-3.05,4.10,4.08,4.08
173.29,8.00,3.96,8.01,3.97,-3.97,-4.13,-3.07,4.03,4.03,4.04
175.02,7.99,3.99,7.98,3.99,-3.99,-4.16,-3.09,4.00,3.99,4.00
176.77,7.96,4.01,7.95,4.01,-4.01,-4.18,-3.11,3.95,3.95,3.95
178.54,7.92,4.02,7.93,4.02,-4.02,-4.21,-3.13,3.90,3.90,3.90
180.32,7.91,4.05,7.90,4.04,-4.04,-4.23,-3.16,3.87,3.86,3.86
182.13,7.86,4.04,7.88,4.06,-4.06,-4.25,-3.19,3.80,3.82,3.82
183.95,7.85,4.07,7.85,4.07,-4.07,-4.26,-3.22,3.78,3.78,3.78
185.79,7.82,4.08,7.82,4.09,-4.09,-4.28,-3.25,3.73,3.74,3.74
187.65,7.81,4.12,7.80,4.10,-4.10,-4.29,-3.28,3.71,3.70,3.69
189.52,7.77,4.11,7.78,4.12,-4.12,-4.30,-3.32,3.65,3.66,3.66
191.42,7.75,4.12,7.75,4.13,-4.13,-4.31,-3.36,3.62,3.62,3.63
193.33,7.73,4.14,7.73,4.14,-4.14,-4.31,-3.40,3.59,3.59,3.59
195.27,7.71,4.15,7.71,4.15,-4.15,-4.32,-3.45,3.56,3.56,3.56
197.22,7.68,4.15,7.68,4.16,-4.16,-4.32,-3.49,3.52,3.53,3.53
199.19,7.67,4.18,7.66,4.16,-4.16,-4.32,-3.54,3.51,3.50,3.49
201.18,7.63,4.16,7.64,4.17,-4.17,-4.31,-3.59,3.46,3.47,3.47
203.19,7.63,4.18,7.62,4.17,-4.17,-4.31,-3.64,3.46,3.44,3.45
205.23,7.59,4.17,7.60,4.17,-4.17,-4.30,-3.69,3.42,3.42,3.42
207.28,7.59,4.18,7.57,4.17,-4.17,-4.29,-3.74,3.42,3.40,3.41
209.35,7.54,4.16,7.55,4.17,-4.17,-4.27,-3.79,3.37,3.38,3.38
211.44,7.53,4.17,7.53,4.16,-4.16,-4.26,-3.84,3.37,3.36,3.35
213.56,7.49,4.14,7.50,4.16,-4.16,-4.24,-3.89,3.33,3.35,3.35
215.69,7.49,4.15,7.48,4.14,-4.14,-4.22,-3.94,3.34,3.34,3.34
217.85,7.45,4.12,7.46,4.13,-4.13,-4.20,-3.99,3.32,3.32,3.33
220.03,7.45,4.14,7.43,4.12,-4.12,-4.18,-4.03,3.33,3.32,3.31
222.23,7.40,4.10,7.41,4.10,-4.10,-4.15,-4.07,3.30,3.31,3.30
224.45,7.39,4.09,7.38,4.08,-4.08,-4.12,-4.12,3.31,3.30,3.30
226.70,7.35,4.05,7.36,4.06,-4.06,-4.09,-4.15,3.29,3.30,3.30
228.96,7.33,4.03,7.33,4.04,-4.04,-4.06,-4.19,3.29,3.30,3.30
231.25,7.31,4.01,7.30,4.01,-4.01,-4.02,-4.22,3.30,3.29,3.30
233.57,7.27,3.97,7.28,3.98,-3.98,-3.99,-4.24,3.29,3.30,3.30
235.90,7.26,3.96,7.25,3.95,-3.95,-3.95,-4.26,3.31,3.30,3.30
238.26,7.21,3.91,7.22,3.92,-3.92,-3.91,-4.28,3.29,3.30,3.30
240.64,7.20,3.89,7.19,3.88,-3.88,-3.87,-4.28,3.32,3.31,3.31
243.05,7.17,3.85,7.16,3.84,-3.84,-3.82,-4.29,3.33,3.32,3.32
245.48,7.12,3.79,7.12,3.79,-3.79,-3.78,-4.28,3.33,3.33,3.33
247.93,7.08,3.74,7.08,3.75,-3.75,-3.73,-4.27,3.33,3.34,3.34
250.41,7.05,3.71,7.05,3.70,-3.70,-3.68,-4.26,3.35,3.35,3.34
252.92,7.02,3.66,7.01,3.65,-3.65,-3.64,-4.23,3.37,3.36,3.36
255.45,6.97,3.59,6.97,3.59,-3.59,-3.58,-4.20,3.38,3.37,3.38
258.00,6.94,3.55,6.93,3.54,-3.54,-3.53,-4.17,3.40,3.39,3.39
260.58,6.88,3.48,6.89,3.48,-3.48,-3.48,-4.12,3.40,3.41,3.40
263.19,6.84,3.41,6.84,3.42,-3.42,-3.43,-4.07,3.42,3.42,3.42
265.82,6.80,3.36,6.80,3.36,-3.36,-3.37,-4.02,3.44,3.44,3.44
268.48,6.75,3.29,6.76,3.30,-3.30,-3.31,-3.96,3.44,3.46,3.46
271.16,6.71,3.23,6.72,3.25,-3.25,-3.26,-3.89,3.46,3.48,3.48
273.87,6.68,3.18,6.69,3.19,-3.19,-3.20,-3.82,3.49,3.49,3.50
276.61,6.65,3.13,6.65,3.14,-3.14,-3.14,-3.75,3.51,3.51,3.52
279.38,6.61,3.08,6.61,3.08,-3.08,-3.08,-3.67,3.53,3.53,3.53
282.17,6.58,3.03,6.58,3.03,-3.03,-3.02,-3.59,3.55,3.55,3.55
284.99,6.56,2.99,6.54,2.97,-2.97,-2.96,-3.50,3.58,3.57,3.57
287.84,6.51,2.92,6.51,2.92,-2.92,-2.90,-3.41,3.59,3.59,3.59
290.72,6.47,2.86,6.47,2.87,-2.87,-2.84,-3.32,3.60,3.61,3.61
293.63,6.44,2.81,6.44,2.81,-2.81,-2.78,-3.23,3.63,3.63,3.63
296.57,6.41,2.76,6.41,2.76,-2.76,-2.71,-3.14,3.65,3.65,3.65
299.53,6.38,2.71,6.37,2.70,-2.70,-2.65,-3.04,3.68,3.67,3.67
302.53,6.33,2.65,6.33,2.64,-2.64,-2.59,-2.95,3.69,3.69,3.68
305.55,6.29,2.57,6.29,2.58,-2.58,-2.52,-2.85,3.71,3.71,3.72
308.61,6.26,2.53,6.26,2.52,-2.52,-2.46,-2.76,3.74,3.74,3.73
311.69,6.23,2.47,6.22,2.46,-2.46,-2.40,-2.66,3.77,3.76,3.76
314.81,6.17,2.38,6.18,2.40,-2.40,-2.33,-2.56,3.77,3.78,3.79
317.96,6.14,2.33,6.14,2.33,-2.33,-2.27,-2.47,3.80,3.80,3.81
321.14,6.09,2.26,6.10,2.27,-2.27,-2.20,-2.37,3.82,3.82,3.83
324.35,6.06,2.22,6.06,2.21,-2.21,-2.14,-2.28,3.85,3.85,3.84
327.59,6.00,2.13,6.01,2.15,-2.15,-2.07,-2.19,3.85,3.87,3.87
330.87,5.97,2.08,5.97,2.08,-2.08,-2.01,-2.09,3.89,3.89,3.89
334.18,5.92,2.02,5.92,2.01,-2.01,-1.94,-2.00,3.91,3.91,3.90
337.52,5.89,1.97,5.88,1.95,-1.95,-1.88,-1.91,3.94,3.93,3.92
340.90,5.83,1.88,5.83,1.88,-1.88,-1.81,-1.82,3.94,3.94,3.95
344.30,5.78,1.81,5.78,1.82,-1.82,-1.75,-1.74,3.96,3.96,3.96
347.75,5.75,1.77,5.73,1.75,-1.75,-1.68,-1.65,4.00,3.98,3.98
351.23,5.69,1.69,5.68,1.68,-1.68,-1.62,-1.56,4.01,4.00,4.00
354.74,5.62,1.60,5.63,1.61,-1.61,-1.55,-1.48,4.01,4.02,4.02
358.28,5.56,1.53,5.57,1.54,-1.54,-1.49,-1.40,4.02,4.03,4.03
361.87,5.51,1.46,5.52,1.47,-1.47,-1.42,-1.32,4.04,4.05,4.05
365.49,5.47,1.40,5.46,1.40,-1.40,-1.36,-1.24,4.07,4.07,4.07
369.14,5.42,1.34,5.40,1.32,-1.32,-1.29,-1.16,4.10,4.08,4.08
372.83,5.36,1.26,5.35,1.25,-1.25,-1.23,-1.08,4.11,4.10,4.10
376.56,5.29,1.19,5.29,1.18,-1.18,-1.16,-1.00,4.11,4.11,4.10
380.33,5.23,1.10,5.23,1.11,-1.11,-1.10,-0.93,4.12,4.12,4.13
384.13,5.17,1.03,5.18,1.04,-1.04,-1.03,-0.85,4.13,4.14,4.14
387.97,5.11,0.96,5.12,0.97,-0.97,-0.97,-0.78,4.14,4.15,4.15
391.85,5.05,0.89,5.07,0.91,-0.91,-0.91,-0.71,4.14,4.16,4.16
395.77,5.00,0.82,5.02,0.84,-0.84,-0.84,-0.63,4.16,4.17,4.17
399.73,4.96,0.78,4.96,0.78,-0.78,-0.78,-0.56,4.18,4.18,4.18
403.72,4.91,0.72,4.91,0.71,-0.71,-0.71,-0.49,4.20,4.19,4.19
407.76,4.86,0.66,4.85,0.65,-0.65,-0.65,-0.42,4.21,4.20,4.20
411.84,4.82,0.60,4.80,0.59,-0.59,-0.58,-0.36,4.23,4.21,4.22
415.96,4.77,0.54,4.75,0.53,-0.53,-0.52,-0.29,4.24,4.22,4.23
420.12,4.71,0.47,4.70,0.47,-0.47,-0.46,-0.22,4.24,4.23,4.24
424.32,4.64,0.39,4.65,0.41,-0.41,-0.39,-0.16,4.23,4.24,4.24
428.56,4.58,0.33,4.60,0.34,-0.34,-0.33,-0.09,4.24,4.25,4.25
432.85,4.54,0.28,4.54,0.28,-0.28,-0.27,-0.03,4.26,4.27,4.26
437.18,4.49,0.22,4.49,0.21,-0.21,-0.20,0.03,4.28,4.28,4.27
441.55,4.44,0.15,4.43,0.14,-0.14,-0.14,0.10,4.30,4.29,4.29
445.96,4.38,0.08,4.37,0.07,-0.07,-0.07,0.16,4.31,4.30,4.30
450.42,4.32,0.01,4.31,-0.00,0.00,-0.01,0.22,4.32,4.31,4.31
454.93,4.26,-0.07,4.25,-0.07,0.07,0.05,0.28,4.33,4.33,4.33
459.48,4.19,-0.15,4.19,-0.15,0.15,0.12,0.34,4.34,4.34,4.34
464.07,4.13,-0.23,4.13,-0.22,0.22,0.18,0.40,4.35,4.35,4.36
468.71,4.07,-0.31,4.07,-0.30,0.30,0.24,0.46,4.37,4.37,4.37
473.40,4.02,-0.36,4.01,-0.37,0.37,0.31,0.52,4.39,4.38,4.38
478.13,3.95,-0.45,3.95,-0.45,0.45,0.37,0.57,4.40,4.40,4.40
482.91,3.88,-0.53,3.89,-0.53,0.53,0.44,0.63,4.41,4.42,4.41
487.74,3.83,-0.60,3.82,-0.61,0.61,0.50,0.69,4.44,4.43,4.43
492.62,3.76,-0.69,3.76,-0.68,0.68,0.57,0.74,4.44,4.45,4.45
497.55,3.70,-0.76,3.70,-0.76,0.76,0.63,0.80,4.46,4.46,4.46
502.52,3.64,-0.84,3.64,-0.84,0.84,0.69,0.85,4.48,4.48,4.48
507.55,3.57,-0.92,3.58,-0.92,0.92,0.76,0.91,4.49,4.49,4.49
512.62,3.51,-1.00,3.51,-1.00,1.00,0.82,0.96,4.51,4.51,4.51
517.75,3.46,-1.07,3.45,-1.08,1.08,0.89,1.02,4.54,4.53,4.53
522.93,3.39,-1.16,3.39,-1.16,1.16,0.95,1.07,4.55,4.54,4.55
528.16,3.33,-1.23,3.33,-1.24,1.24,1.02,1.13,4.57,4.56,4.56
533.44,3.27,-1.31,3.26,-1.31,1.31,1.09,1.18,4.58,4.58,4.58
538.77,3.20,-1.40,3.20,-1.39,1.39,1.15,1.23,4.59,4.60,4.60
