frequency,raw,error,smoothed,error_smoothed,equalization,parametric_eq,fixed_band_eq,equalized_raw,equalized_smoothed,target
20.00,2.00,-5.22,2.00,-5.22,5.22,4.90,1.87,7.22,7.22,7.22
20.20,2.02,-5.19,2.02,-5.19,5.19,4.89,1.93,7.22,7.22,7.21
20.40,2.04,-5.16,2.05,-5.16,5.16,4.89,1.99,7.21,7.21,7.20
20.61,2.07,-5.13,2.07,-5.13,5.13,4.88,2.05,7.20,7.20,7.20
20.81,2.09,-5.09,2.09,-5.10,5.09,4.87,2.11,7.19,7.18,7.18
21.02,2.11,-5.07,2.12,-5.06,5.06,4.86,2.17,7.17,7.18,7.18
21.23,2.15,-5.02,2.16,-5.02,5.02,4.85,2.24,7.17,7.17,7.17
21.44,2.20,-4.98,2.20,-4.98,4.97,4.84,2.31,7.18,7.17,7.18
21.66,2.24,-4.93,2.24,-4.93,4.93,4.83,2.37,7.17,7.17,7.17
21.87,2.28,-4.88,2.28,-4.88,4.88,4.82,2.45,7.16,7.16,7.16
22.09,2.32,-4.83,2.32,-4.83,4.83,4.81,2.52,7.15,7.15,7.15
22.31,2.36,-4.79,2.37,-4.78,4.78,4.79,2.59,7.14,7.14,7.15
22.54,2.41,-4.73,2.41,-4.73,4.73,4.78,2.67,7.14,7.14,7.14
22.76,2.45,-4.68,2.46,-4.67,4.68,4.77,2.75,7.14,7.14,7.13
22.99,2.50,-4.62,2.50,-4.63,4.64,4.76,2.83,7.15,7.14,7.12
23.22,2.52,-4.59,2.53,-4.59,4.61,4.74,2.91,7.13,7.13,7.11
23.45,2.54,-4.58,2.55,-4.57,4.58,4.73,3.00,7.12,7.12,7.12
23.69,2.56,-4.55,2.56,-4.55,4.55,4.71,3.09,7.11,7.11,7.11
23.92,2.57,-4.54,2.58,-4.54,4.52,4.70,3.17,7.10,7.11,7.11
24.16,2.60,-4.52,2.60,-4.52,4.50,4.68,3.26,7.11,7.11,7.12
24.40,2.63,-4.50,2.63,-4.50,4.48,4.66,3.35,7.12,7.12,7.13
24.65,2.66,-4.47,2.67,-4.47,4.47,4.65,3.45,7.13,7.14,7.13
24.89,2.69,-4.44,2.69,-4.44,4.46,4.63,3.54,7.15,7.14,7.13
25.14,2.70,-4.42,2.70,-4.42,4.44,4.61,3.64,7.15,7.15,7.12
25.39,2.70,-4.42,2.70,-4.42,4.43,4.59,3.73,7.14,7.14,7.12
25.65,2.70,-4.42,2.70,-4.42,4.42,4.57,3.83,7.13,7.13,7.12
25.91,2.70,-4.43,2.71,-4.42,4.41,4.55,3.92,7.11,7.12,7.13
26.16,2.72,-4.42,2.72,-4.42,4.40,4.54,4.02,7.12,7.12,7.14
26.43,2.74,-4.40,2.74,-4.40,4.38,4.51,4.11,7.13,7.13,7.14
26.69,2.77,-4.37,2.77,-4.37,4.36,4.49,4.21,7.14,7.14,7.14
26.96,2.80,-4.33,2.80,-4.33,4.34,4.47,4.30,7.14,7.14,7.13
27.23,2.83,-4.30,2.83,-4.30,4.31,4.45,4.39,7.14,7.14,7.13
27.50,2.86,-4.27,2.86,-4.27,4.27,4.43,4.47,7.14,7.14,7.13
27.77,2.89,-4.25,2.89,-4.25,4.24,4.41,4.56,7.13,7.13,7.14
28.05,2.92,-4.22,2.92,-4.21,4.21,4.39,4.64,7.13,7.13,7.14
28.33,2.94,-4.18,2.95,-4.18,4.18,4.36,4.72,7.13,7.13,7.12
28.62,2.97,-4.15,2.98,-4.15,4.16,4.34,4.79,7.13,7.14,7.12
28.90,3.00,-4.13,3.00,-4.13,4.14,4.32,4.86,7.15,7.14,7.13
29.19,3.01,-4.12,3.01,-4.12,4.13,4.29,4.92,7.14,7.14,7.13
29.48,3.01,-4.11,3.02,-4.11,4.12,4.27,4.97,7.13,7.14,7.12
29.78,3.01,-4.11,3.01,-4.11,4.11,4.24,5.02,7.13,7.13,7.12
30.08,3.01,-4.12,3.01,-4.11,4.11,4.22,5.06,7.12,7.12,7.13
30.38,3.01,-4.11,3.01,-4.11,4.10,4.19,5.09,7.11,7.11,7.12
30.68,3.01,-4.09,3.01,-4.10,4.08,4.16,5.12,7.10,7.09,7.10
30.99,3.01,-4.09,3.02,-4.08,4.06,4.14,5.13,7.08,7.09,7.10
31.30,3.04,-4.05,3.04,-4.05,4.04,4.11,5.14,7.08,7.08,7.09
31.61,3.07,-4.01,3.07,-4.01,4.02,4.08,5.14,7.09,7.09,7.08
31.93,3.10,-3.97,3.10,-3.97,3.99,4.06,5.14,7.09,7.09,7.07
32.24,3.12,-3.95,3.12,-3.95,3.96,4.03,5.12,7.08,7.08,7.07
32.57,3.13,-3.92,3.13,-3.92,3.93,4.00,5.10,7.06,7.06,7.05
32.89,3.14,-3.91,3.15,-3.90,3.90,3.97,5.07,7.05,7.05,7.05
33.22,3.16,-3.89,3.16,-3.89,3.88,3.94,5.03,7.04,7.04,7.05
33.55,3.18,-3.86,3.18,-3.86,3.86,3.91,4.98,7.05,7.05,7.04
33.89,3.20,-3.85,3.20,-3.84,3.85,3.88,4.93,7.05,7.05,7.05
34.23,3.21,-3.82,3.21,-3.83,3.84,3.85,4.87,7.05,7.05,7.03
34.57,3.21,-3.82,3.22,-3.82,3.83,3.82,4.81,7.04,7.04,7.03
34.92,3.21,-3.81,3.21,-3.81,3.82,3.79,4.75,7.03,7.03,7.02
35.27,3.21,-3.82,3.21,-3.81,3.81,3.76,4.67,7.02,7.02,7.03
35.62,3.21,-3.80,3.21,-3.80,3.80,3.73,4.60,7.01,7.01,7.01
35.97,3.21,-3.80,3.21,-3.80,3.79,3.70,4.52,7.00,7.00,7.01
36.33,3.21,-3.78,3.21,-3.78,3.78,3.67,4.44,6.99,6.99,6.99
36.70,3.21,-3.77,3.21,-3.77,3.77,3.64,4.36,6.98,6.98,6.98
37.06,3.21,-3.75,3.21,-3.75,3.76,3.61,4.28,6.97,6.97,6.96
37.43,3.21,-3.73,3.21,-3.73,3.74,3.57,4.20,6.95,6.95,6.94
37.81,3.21,-3.71,3.21,-3.71,3.71,3.54,4.11,6.92,6.92,6.92
38.19,3.21,-3.68,3.21,-3.69,3.68,3.51,4.03,6.89,6.89,6.89
38.57,3.20,-3.67,3.21,-3.66,3.64,3.47,3.95,6.85,6.85,6.87
38.95,3.20,-3.64,3.22,-3.62,3.60,3.44,3.86,6.81,6.82,6.84
39.34,3.24,-3.56,3.24,-3.56,3.56,3.41,3.78,6.80,6.80,6.80
39.74,3.28,-3.50,3.28,-3.50,3.52,3.37,3.70,6.80,6.79,6.78
40.14,3.31,-3.44,3.31,-3.45,3.47,3.34,3.62,6.79,6.78,6.75
40.54,3.31,-3.42,3.32,-3.42,3.44,3.31,3.54,6.75,6.75,6.73
40.94,3.31,-3.39,3.32,-3.39,3.40,3.27,3.46,6.71,6.72,6.70
41.35,3.31,-3.37,3.31,-3.36,3.37,3.24,3.39,6.68,6.68,6.68
41.76,3.31,-3.33,3.31,-3.34,3.33,3.20,3.32,6.65,6.65,6.64
42.18,3.31,-3.31,3.31,-3.32,3.30,3.17,3.25,6.61,6.61,6.62
42.60,3.31,-3.29,3.31,-3.28,3.26,3.13,3.18,6.58,6.57,6.60
43.03,3.31,-3.26,3.33,-3.24,3.22,3.10,3.11,6.54,6.56,6.57
43.46,3.36,-3.18,3.36,-3.19,3.18,3.06,3.05,6.55,6.54,6.54
43.90,3.40,-3.12,3.39,-3.12,3.14,3.02,2.99,6.54,6.53,6.52
44.33,3.41,-3.07,3.41,-3.08,3.10,2.99,2.93,6.51,6.51,6.48
44.78,3.41,-3.04,3.42,-3.04,3.06,2.95,2.87,6.47,6.47,6.45
45.23,3.41,-3.03,3.41,-3.01,3.01,2.92,2.82,6.43,6.43,6.44
45.68,3.41,-2.98,3.41,-2.98,2.98,2.88,2.76,6.39,6.39,6.39
46.13,3.41,-2.94,3.41,-2.94,2.94,2.84,2.71,6.35,6.35,6.35
46.60,3.41,-2.91,3.41,-2.91,2.90,2.81,2.67,6.32,6.32,6.32
47.06,3.41,-2.87,3.41,-2.87,2.87,2.77,2.62,6.28,6.28,6.28
47.53,3.41,-2.84,3.41,-2.83,2.83,2.73,2.58,6.24,6.24,6.25
48.01,3.41,-2.78,3.41,-2.78,2.78,2.69,2.54,6.19,6.19,6.19
48.49,3.41,-2.73,3.41,-2.74,2.73,2.66,2.50,6.15,6.15,6.14
48.97,3.41,-2.69,3.41,-2.69,2.69,2.62,2.46,6.10,6.10,6.10
49.46,3.41,-2.65,3.41,-2.64,2.64,2.58,2.42,6.05,6.05,6.06
49.96,3.41,-2.58,3.41,-2.59,2.59,2.54,2.39,6.00,6.00,5.99
50.46,3.41,-2.54,3.41,-2.54,2.54,2.51,2.35,5.95,5.95,5.95
50.96,3.41,-2.50,3.41,-2.50,2.49,2.47,2.32,5.91,5.91,5.91
51.47,3.41,-2.46,3.41,-2.45,2.45,2.43,2.29,5.87,5.87,5.87
51.99,3.41,-2.41,3.42,-2.41,2.42,2.39,2.26,5.83,5.84,5.82
52.51,3.41,-2.37,3.42,-2.37,2.39,2.35,2.24,5.81,5.81,5.78
53.03,3.41,-2.34,3.39,-2.35,2.37,2.32,2.21,5.78,5.76,5.75
53.56,3.35,-2.34,3.36,-2.34,2.35,2.28,2.18,5.70,5.71,5.69
54.10,3.29,-2.35,3.31,-2.34,2.33,2.24,2.16,5.63,5.64,5.64
54.64,3.26,-2.34,3.26,-2.33,2.31,2.20,2.13,5.58,5.57,5.60
55.18,3.23,-2.31,3.24,-2.31,2.29,2.16,2.11,5.53,5.53,5.54
55.74,3.22,-2.27,3.22,-2.28,2.27,2.12,2.09,5.49,5.49,5.49
56.29,3.21,-2.25,3.21,-2.24,2.24,2.08,2.06,5.46,5.46,5.46
56.86,3.21,-2.21,3.21,-2.20,2.21,2.04,2.04,5.42,5.42,5.42
57.42,3.21,-2.15,3.21,-2.16,2.17,2.01,2.01,5.39,5.39,5.36
58.00,3.21,-2.12,3.21,-2.12,2.13,1.97,1.99,5.35,5.35,5.33
58.58,3.21,-2.09,3.21,-2.09,2.09,1.93,1.96,5.30,5.30,5.30
59.16,3.21,-2.05,3.21,-2.05,2.04,1.89,1.93,5.25,5.25,5.26
59.76,3.21,-2.01,3.21,-2.00,1.99,1.85,1.90,5.20,5.20,5.22
60.35,3.21,-1.94,3.21,-1.95,1.94,1.81,1.88,5.15,5.15,5.15
60.96,3.21,-1.89,3.21,-1.88,1.88,1.77,1.84,5.09,5.09,5.10
61.57,3.21,-1.82,3.21,-1.82,1.82,1.73,1.81,5.04,5.04,5.03
62.18,3.21,-1.75,3.21,-1.75,1.76,1.69,1.78,4.97,4.97,4.96
62.80,3.21,-1.69,3.21,-1.69,1.70,1.65,1.75,4.91,4.91,4.90
63.43,3.21,-1.63,3.21,-1.63,1.63,1.61,1.71,4.84,4.84,4.84
64.07,3.21,-1.58,3.21,-1.58,1.57,1.57,1.67,4.78,4.78,4.79
64.71,3.21,-1.52,3.21,-1.52,1.51,1.53,1.63,4.73,4.73,4.73
65.35,3.21,-1.46,3.22,-1.46,1.47,1.49,1.59,4.68,4.68,4.67
66.01,3.21,-1.40,3.22,-1.40,1.42,1.45,1.55,4.63,4.64,4.61
66.67,3.21,-1.36,3.20,-1.36,1.38,1.41,1.51,4.59,4.58,4.57
67.33,3.18,-1.31,3.18,-1.32,1.33,1.37,1.47,4.51,4.51,4.49
68.01,3.13,-1.31,3.14,-1.30,1.28,1.33,1.42,4.42,4.42,4.44
68.69,3.10,-1.27,3.11,-1.26,1.23,1.29,1.37,4.34,4.35,4.37
69.37,3.10,-1.22,3.10,-1.22,1.19,1.25,1.33,4.29,4.29,4.32
70.07,3.11,-1.14,3.11,-1.15,1.14,1.21,1.28,4.25,4.25,4.25
70.77,3.11,-1.08,3.12,-1.07,1.09,1.16,1.23,4.21,4.22,4.19
71.48,3.12,-1.00,3.11,-1.01,1.04,1.12,1.18,4.16,4.16,4.12
72.19,3.11,-0.94,3.09,-0.97,0.99,1.08,1.13,4.10,4.07,4.05
72.91,3.02,-0.97,3.05,-0.94,0.93,1.04,1.07,3.96,3.99,3.99
73.64,3.01,-0.91,3.02,-0.90,0.88,1.00,1.02,3.89,3.90,3.92
74.38,3.01,-0.85,3.01,-0.86,0.83,0.96,0.97,3.84,3.83,3.86
75.12,3.01,-0.78,3.01,-0.79,0.78,0.92,0.92,3.79,3.79,3.79
75.87,3.01,-0.74,3.01,-0.73,0.73,0.88,0.86,3.74,3.74,3.75
76.63,3.01,-0.67,3.01,-0.67,0.68,0.83,0.81,3.70,3.70,3.68
77.40,3.01,-0.62,3.02,-0.61,0.64,0.79,0.75,3.65,3.66,3.63
78.17,3.01,-0.56,3.01,-0.57,0.59,0.75,0.70,3.61,3.60,3.57
78.95,3.01,-0.52,2.98,-0.54,0.55,0.71,0.65,3.56,3.53,3.53
79.74,2.92,-0.55,2.95,-0.53,0.51,0.67,0.59,3.43,3.45,3.47
80.54,2.90,-0.51,2.91,-0.50,0.47,0.62,0.54,3.38,3.39,3.41
81.35,2.90,-0.46,2.90,-0.46,0.44,0.58,0.48,3.34,3.34,3.36
82.16,2.91,-0.40,2.92,-0.39,0.40,0.54,0.43,3.32,3.32,3.31
82.98,2.92,-0.33,2.91,-0.34,0.37,0.50,0.37,3.29,3.27,3.25
83.81,2.89,-0.30,2.88,-0.31,0.32,0.45,0.32,3.22,3.21,3.19
84.65,2.83,-0.30,2.85,-0.28,0.28,0.41,0.26,3.11,3.12,3.13
85.50,2.80,-0.26,2.81,-0.25,0.24,0.37,0.21,3.04,3.05,3.06
86.35,2.80,-0.20,2.81,-0.20,0.19,0.32,0.15,3.00,3.00,3.00
87.22,2.81,-0.14,2.81,-0.14,0.15,0.28,0.10,2.96,2.96,2.95
88.09,2.81,-0.07,2.79,-0.10,0.11,0.24,0.04,2.92,2.90,2.88
88.97,2.76,-0.07,2.76,-0.06,0.06,0.19,-0.01,2.83,2.82,2.83
89.86,2.70,-0.05,2.73,-0.03,0.01,0.15,-0.07,2.72,2.74,2.75
90.76,2.71,0.02,2.72,0.03,-0.03,0.11,-0.12,2.68,2.68,2.69
91.66,2.72,0.10,2.72,0.09,-0.08,0.06,-0.18,2.64,2.63,2.62
92.58,2.72,0.16,2.70,0.14,-0.13,0.02,-0.23,2.60,2.57,2.56
93.51,2.66,0.17,2.67,0.18,-0.18,-0.03,-0.29,2.49,2.49,2.49
94.44,2.61,0.19,2.64,0.22,-0.22,-0.07,-0.34,2.39,2.41,2.42
95.39,2.61,0.27,2.62,0.27,-0.27,-0.12,-0.40,2.34,2.34,2.34
96.34,2.61,0.35,2.60,0.33,-0.32,-0.16,-0.45,2.29,2.27,2.26
97.30,2.57,0.39,2.56,0.38,-0.38,-0.21,-0.51,2.20,2.19,2.18
98.28,2.50,0.41,2.52,0.43,-0.43,-0.25,-0.56,2.07,2.09,2.09
99.26,2.46,0.46,2.48,0.47,-0.49,-0.30,-0.62,1.97,1.98,2.00
100.25,2.46,0.54,2.45,0.53,-0.55,-0.34,-0.67,1.91,1.90,1.92
101.25,2.44,0.59,2.45,0.60,-0.61,-0.39,-0.73,1.84,1.84,1.85
102.27,2.43,0.67,2.45,0.68,-0.66,-0.43,-0.78,1.78,1.79,1.76
103.29,2.43,0.75,2.42,0.73,-0.70,-0.48,-0.83,1.74,1.72,1.68
104.32,2.39,0.78,2.38,0.77,-0.74,-0.53,-0.89,1.66,1.64,1.61
105.37,2.29,0.76,2.32,0.79,-0.77,-0.57,-0.94,1.52,1.55,1.53
106.42,2.25,0.81,2.24,0.79,-0.81,-0.62,-0.99,1.45,1.43,1.44
107.48,2.17,0.82,2.16,0.80,-0.84,-0.66,-1.04,1.34,1.32,1.35
108.56,2.08,0.79,2.11,0.83,-0.86,-0.71,-1.09,1.22,1.25,1.29
109.64,2.06,0.86,2.08,0.88,-0.89,-0.76,-1.14,1.18,1.19,1.20
110.74,2.07,0.95,2.06,0.93,-0.92,-0.80,-1.19,1.16,1.14,1.12
111.85,2.06,1.01,2.03,0.98,-0.95,-0.85,-1.23,1.12,1.08,1.05
112.97,1.96,0.98,1.99,1.01,-0.99,-0.90,-1.28,0.97,1.01,0.98
114.10,1.93,1.02,1.94,1.03,-1.04,-0.94,-1.32,0.90,0.90,0.91
115.24,1.91,1.08,1.89,1.05,-1.09,-0.99,-1.37,0.83,0.80,0.83
116.39,1.84,1.09,1.86,1.10,-1.13,-1.04,-1.40,0.71,0.73,0.75
117.55,1.82,1.13,1.84,1.16,-1.17,-1.08,-1.44,0.66,0.68,0.69
118.73,1.84,1.23,1.84,1.22,-1.20,-1.13,-1.48,0.64,0.64,0.61
119.92,1.86,1.31,1.84,1.29,-1.23,-1.18,-1.51,0.63,0.61,0.55
121.12,1.82,1.32,1.81,1.32,-1.27,-1.22,-1.54,0.55,0.54,0.50
122.33,1.74,1.31,1.75,1.31,-1.31,-1.27,-1.57,0.43,0.43,0.43
123.55,1.67,1.29,1.69,1.31,-1.36,-1.32,-1.60,0.31,0.33,0.38
124.79,1.65,1.33,1.67,1.35,-1.41,-1.36,-1.62,0.25,0.26,0.32
126.03,1.68,1.43,1.67,1.41,-1.45,-1.41,-1.65,0.23,0.22,0.25
127.29,1.68,1.49,1.69,1.49,-1.49,-1.45,-1.67,0.20,0.20,0.19
128.57,1.69,1.56,1.71,1.59,-1.53,-1.50,-1.68,0.17,0.19,0.13
129.85,1.71,1.65,1.70,1.64,-1.57,-1.54,-1.70,0.14,0.13,0.06
131.15,1.70,1.70,1.65,1.65,-1.62,-1.59,-1.71,0.08,0.03,0.00
132.46,1.55,1.61,1.59,1.65,-1.67,-1.63,-1.72,-0.11,-0.08,-0.06
133.79,1.49,1.61,1.53,1.64,-1.70,-1.68,-1.73,-0.20,-0.17,-0.12
135.12,1.51,1.69,1.51,1.68,-1.72,-1.72,-1.74,-0.20,-0.21,-0.18
136.48,1.52,1.74,1.53,1.75,-1.73,-1.76,-1.75,-0.21,-0.21,-0.22
137.84,1.54,1.82,1.52,1.80,-1.75,-1.81,-1.75,-0.21,-0.23,-0.28
139.22,1.47,1.83,1.46,1.80,-1.78,-1.85,-1.75,-0.31,-0.32,-0.36
140.61,1.38,1.78,1.39,1.80,-1.81,-1.89,-1.76,-0.43,-0.42,-0.40
142.02,1.30,1.76,1.33,1.80,-1.84,-1.93,-1.76,-0.54,-0.51,-0.46
143.44,1.31,1.84,1.32,1.84,-1.87,-1.97,-1.76,-0.55,-0.55,-0.53
144.87,1.33,1.91,1.33,1.90,-1.88,-2.01,-1.76,-0.55,-0.56,-0.58
146.32,1.34,1.97,1.32,1.95,-1.90,-2.05,-1.76,-0.56,-0.58,-0.63
147.78,1.28,1.97,1.28,1.96,-1.93,-2.08,-1.76,-0.64,-0.65,-0.69
149.26,1.20,1.94,1.21,1.95,-1.96,-2.12,-1.76,-0.76,-0.75,-0.74
150.75,1.12,1.93,1.14,1.94,-1.99,-2.16,-1.76,-0.87,-0.85,-0.81
152.26,1.11,1.96,1.12,1.97,-2.02,-2.19,-1.77,-0.90,-0.90,-0.85
153.78,1.12,2.03,1.13,2.03,-2.03,-2.22,-1.77,-0.91,-0.91,-0.91
155.32,1.13,2.09,1.14,2.10,-2.05,-2.26,-1.77,-0.92,-0.91,-0.96
156.88,1.14,2.16,1.11,2.13,-2.08,-2.29,-1.77,-0.94,-0.97,-1.02
158.44,1.05,2.13,1.05,2.12,-2.11,-2.32,-1.78,-1.06,-1.06,-1.08
160.03,0.95,2.09,0.98,2.12,-2.15,-2.34,-1.78,-1.19,-1.17,-1.14
161.63,0.91,2.11,0.93,2.13,-2.18,-2.37,-1.79,-1.26,-1.25,-1.20
163.24,0.91,2.18,0.92,2.18,-2.20,-2.40,-1.80,-1.29,-1.28,-1.27
164.88,0.93,2.25,0.92,2.24,-2.22,-2.42,-1.80,-1.28,-1.30,-1.32
166.53,0.91,2.30,0.90,2.28,-2.23,-2.45,-1.81,-1.32,-1.34,-1.39
168.19,0.84,2.28,0.84,2.28,-2.25,-2.47,-1.83,-1.41,-1.41,-1.44
169.87,0.75,2.25,0.77,2.27,-2.27,-2.49,-1.84,-1.52,-1.50,-1.50
171.57,0.69,2.26,0.71,2.27,-2.29,-2.51,-1.85,-1.60,-1.58,-1.57
173.29,0.68,2.31,0.66,2.28,-2.31,-2.52,-1.87,-1.62,-1.65,-1.63
175.02,0.61,2.29,0.62,2.30,-2.31,-2.54,-1.89,-1.70,-1.69,-1.68
176.77,0.57,2.30,0.59,2.32,-2.32,-2.55,-1.91,-1.75,-1.73,-1.73
178.54,0.57,2.36,0.56,2.35,-2.34,-2.56,-1.93,-1.77,-1.78,-1.79
180.32,0.54,2.39,0.54,2.38,-2.36,-2.58,-1.95,-1.82,-1.82,-1.85
182.13,0.50,2.39,0.49,2.39,-2.38,-2.58,-1.97,-1.88,-1.89,-1.89
183.95,0.44,2.38,0.45,2.39,-2.40,-2.59,-2.00,-1.96,-1.95,-1.94
185.79,0.40,2.39,0.43,2.41,-2.42,-2.60,-2.02,-2.02,-1.99,-1.99
187.65,0.42,2.45,0.42,2.45,-2.44,-2.60,-2.05,-2.02,-2.03,-2.03
189.52,0.42,2.50,0.40,2.47,-2.46,-2.60,-2.08,-2.04,-2.06,-2.08
191.42,0.37,2.48,0.37,2.49,-2.49,-2.61,-2.11,-2.11,-2.11,-2.11
193.33,0.32,2.48,0.33,2.49,-2.51,-2.61,-2.14,-2.18,-2.17,-2.16
195.27,0.29,2.50,0.31,2.51,-2.52,-2.60,-2.18,-2.23,-2.22,-2.21
197.22,0.29,2.55,0.30,2.55,-2.54,-2.60,-2.21,-2.25,-2.24,-2.26
199.19,0.30,2.59,0.28,2.58,-2.55,-2.60,-2.25,-2.25,-2.27,-2.29
201.18,0.25,2.59,0.25,2.58,-2.57,-2.59,-2.28,-2.31,-2.32,-2.34
203.19,0.19,2.56,0.20,2.56,-2.57,-2.58,-2.32,-2.38,-2.38,-2.37
205.23,0.13,2.54,0.15,2.55,-2.57,-2.57,-2.36,-2.44,-2.43,-2.41
207.28,0.11,2.55,0.13,2.57,-2.57,-2.56,-2.39,-2.46,-2.44,-2.44
209.35,0.11,2.59,0.11,2.59,-2.57,-2.55,-2.43,-2.45,-2.46,-2.48
211.44,0.10,2.63,0.07,2.59,-2.57,-2.54,-2.47,-2.46,-2.50,-2.53
213.56,-0.01,2.55,0.00,2.56,-2.57,-2.52,-2.50,-2.57,-2.56,-2.56
215.69,-0.09,2.51,-0.06,2.54,-2.57,-2.51,-2.54,-2.65,-2.63,-2.60
217.85,-0.11,2.52,-0.10,2.53,-2.57,-2.49,-2.57,-2.67,-2.67,-2.63
220.03,-0.11,2.57,-0.11,2.56,-2.56,-2.47,-2.61,-2.67,-2.67,-2.68
222.23,-0.11,2.59,-0.11,2.59,-2.56,-2.46,-2.64,-2.66,-2.66,-2.70
224.45,-0.13,2.60,-0.15,2.58,-2.55,-2.44,-2.67,-2.68,-2.70,-2.73
226.70,-0.20,2.56,-0.21,2.54,-2.54,-2.42,-2.70,-2.74,-2.75,-2.76
228.96,-0.31,2.47,-0.26,2.51,-2.53,-2.39,-2.72,-2.83,-2.79,-2.78
231.25,-0.30,2.49,-0.29,2.51,-2.51,-2.37,-2.74,-2.81,-2.80,-2.79
233.57,-0.29,2.53,-0.31,2.50,-2.50,-2.35,-2.76,-2.78,-2.80,-2.82
235.90,-0.31,2.52,-0.34,2.49,-2.48,-2.33,-2.78,-2.78,-2.82,-2.83
238.26,-0.42,2.43,-0.39,2.45,-2.46,-2.30,-2.79,-2.88,-2.85,-2.85
240.64,-0.45,2.39,-0.43,2.41,-2.45,-2.28,-2.80,-2.90,-2.88,-2.84
243.05,-0.44,2.41,-0.43,2.42,-2.44,-2.25,-2.81,-2.88,-2.88,-2.85
245.48,-0.41,2.46,-0.42,2.45,-2.43,-2.23,-2.81,-2.84,-2.85,-2.87
247.93,-0.40,2.48,-0.42,2.45,-2.42,-2.20,-2.81,-2.81,-2.84,-2.88
250.41,-0.46,2.41,-0.45,2.43,-2.40,-2.18,-2.80,-2.86,-2.85,-2.87
252.92,-0.50,2.37,-0.48,2.39,-2.39,-2.15,-2.79,-2.88,-2.87,-2.87
255.45,-0.53,2.36,-0.53,2.35,-2.37,-2.12,-2.78,-2.90,-2.90,-2.89
258.00,-0.55,2.35,-0.56,2.33,-2.34,-2.10,-2.76,-2.89,-2.91,-2.90
260.58,-0.62,2.29,-0.59,2.32,-2.31,-2.07,-2.73,-2.93,-2.90,-2.91
263.19,-0.63,2.29,-0.63,2.29,-2.28,-2.04,-2.71,-2.90,-2.90,-2.92
265.82,-0.66,2.28,-0.67,2.26,-2.25,-2.01,-2.68,-2.91,-2.92,-2.94
268.48,-0.72,2.22,-0.72,2.22,-2.23,-1.99,-2.64,-2.94,-2.95,-2.94
271.16,-0.80,2.16,-0.78,2.17,-2.20,-1.96,-2.60,-3.00,-2.99,-2.96
273.87,-0.84,2.13,-0.82,2.15,-2.18,-1.93,-2.56,-3.01,-3.00,-2.97
276.61,-0.84,2.15,-0.83,2.16,-2.15,-1.90,-2.52,-2.99,-2.98,-2.99
279.38,-0.84,2.18,-0.84,2.16,-2.13,-1.88,-2.47,-2.96,-2.97,-3.02
282.17,-0.85,2.17,-0.88,2.13,-2.10,-1.85,-2.43,-2.95,-2.99,-3.02
284.99,-0.96,2.06,-0.94,2.08,-2.08,-1.82,-2.38,-3.04,-3.02,-3.02
287.84,-1.02,2.00,-0.99,2.04,-2.06,-1.79,-2.32,-3.08,-3.05,-3.02
290.72,-1.01,2.03,-1.01,2.01,-2.04,-1.77,-2.27,-3.05,-3.05,-3.04
293.63,-1.00,2.03,-1.02,2.01,-2.02,-1.74,-2.22,-3.02,-3.04,-3.03
296.57,-1.03,2.00,-1.03,2.00,-2.00,-1.71,-2.16,-3.03,-3.03,-3.03
299.53,-1.07,1.97,-1.05,1.98,-1.98,-1.69,-2.10,-3.04,-3.02,-3.04
302.53,-1.07,1.96,-1.06,1.97,-1.96,-1.66,-2.05,-3.03,-3.02,-3.03
305.55,-1.06,1.98,-1.07,1.96,-1.94,-1.63,-1.99,-3.00,-3.02,-3.04
308.61,-1.10,1.93,-1.10,1.93,-1.93,-1.61,-1.93,-3.02,-3.03,-3.03
311.69,-1.15,1.90,-1.15,1.89,-1.90,-1.58,-1.88,-3.05,-3.05,-3.05
314.81,-1.21,1.83,-1.19,1.85,-1.87,-1.56,-1.82,-3.08,-3.06,-3.04
317.96,-1.23,1.83,-1.22,1.83,-1.84,-1.53,-1.76,-3.06,-3.05,-3.06
321.14,-1.23,1.82,-1.24,1.81,-1.80,-1.51,-1.71,-3.02,-3.04,-3.05
324.35,-1.27,1.79,-1.28,1.78,-1.76,-1.48,-1.65,-3.02,-3.03,-3.06
327.59,-1.33,1.72,-1.33,1.72,-1.72,-1.46,-1.60,-3.04,-3.05,-3.05
330.87,-1.41,1.65,-1.38,1.67,-1.68,-1.44,-1.54,-3.09,-3.06,-3.06
334.18,-1.44,1.63,-1.43,1.63,-1.65,-1.41,-1.49,-3.08,-3.07,-3.07
337.52,-1.44,1.62,-1.47,1.60,-1.61,-1.39,-1.43,-3.05,-3.08,-3.06
340.90,-1.51,1.56,-1.50,1.56,-1.57,-1.37,-1.38,-3.08,-3.07,-3.07
344.30,-1.55,1.51,-1.53,1.53,-1.54,-1.34,-1.33,-3.08,-3.06,-3.06
347.75,-1.55,1.50,-1.55,1.51,-1.50,-1.32,-1.28,-3.04,-3.05,-3.05
351.23,-1.56,1.51,-1.57,1.48,-1.46,-1.30,-1.23,-3.02,-3.03,-3.07
354.74,-1.61,1.44,-1.61,1.44,-1.42,-1.28,-1.18,-3.02,-3.03,-3.05
358.28,-1.68,1.37,-1.66,1.39,-1.38,-1.26,-1.14,-3.05,-3.04,-3.05
361.87,-1.72,1.33,-1.71,1.33,-1.34,-1.24,-1.09,-3.06,-3.05,-3.05
365.49,-1.73,1.31,-1.75,1.29,-1.31,-1.22,-1.05,-3.04,-3.06,-3.04
369.14,-1.79,1.24,-1.78,1.25,-1.28,-1.20,-1.00,-3.07,-3.06,-3.03
372.83,-1.81,1.21,-1.80,1.23,-1.26,-1.18,-0.96,-3.06,-3.05,-3.02
376.56,-1.80,1.23,-1.80,1.22,-1.23,-1.16,-0.92,-3.03,-3.03,-3.03
380.33,-1.80,1.23,-1.79,1.23,-1.21,-1.14,-0.87,-3.00,-3.00,-3.03
384.13,-1.79,1.23,-1.80,1.22,-1.18,-1.12,-0.83,-2.97,-2.98,-3.02
387.97,-1.84,1.18,-1.84,1.18,-1.16,-1.10,-0.79,-2.99,-3.00,-3.02
391.85,-1.89,1.14,-1.89,1.14,-1.13,-1.08,-0.75,-3.02,-3.02,-3.03
395.77,-1.96,1.08,-1.94,1.09,-1.10,-1.07,-0.72,-3.06,-3.04,-3.04
399.73,-1.98,1.06,-1.98,1.05,-1.07,-1.05,-0.68,-3.05,-3.06,-3.04
403.72,-2.02,1.01,-2.03,1.01,-1.04,-1.03,-0.64,-3.06,-3.07,-3.03
407.76,-2.07,0.98,-2.05,0.99,-1.01,-1.02,-0.61,-3.07,-3.06,-3.05
411.84,-2.09,0.97,-2.08,0.98,-0.97,-1.00,-0.58,-3.06,-3.04,-3.06
415.96,-2.09,0.97,-2.09,0.97,-0.94,-0.98,-0.54,-3.02,-3.03,-3.06
420.12,-2.11,0.96,-2.13,0.94,-0.90,-0.97,-0.51,-3.01,-3.03,-3.07
424.32,-2.18,0.88,-2.17,0.88,-0.87,-0.95,-0.48,-3.05,-3.04,-3.06
428.56,-2.24,0.80,-2.22,0.82,-0.84,-0.94,-0.45,-3.07,-3.06,-3.04
432.85,-2.26,0.76,-2.24,0.78,-0.81,-0.92,-0.42,-3.06,-3.05,-3.02
437.18,-2.24,0.77,-2.24,0.76,-0.78,-0.91,-0.40,-3.01,-3.02,-3.01
441.55,-2.22,0.76,-2.24,0.74,-0.75,-0.90,-0.37,-2.96,-2.98,-2.98
445.96,-2.24,0.70,-2.22,0.72,-0.72,-0.88,-0.34,-2.95,-2.94,-2.94
450.42,-2.21,0.69,-2.19,0.71,-0.69,-0.87,-0.32,-2.90,-2.88,-2.90
454.93,-2.15,0.70,-2.15,0.69,-0.67,-0.86,-0.30,-2.82,-2.82,-2.85
459.48,-2.09,0.70,-2.11,0.67,-0.66,-0.84,-0.28,-2.75,-2.77,-2.79
464.07,-2.09,0.63,-2.08,0.64,-0.65,-0.83,-0.26,-2.73,-2.73,-2.72
468.71,-2.08,0.59,-2.05,0.61,-0.64,-0.82,-0.24,-2.71,-2.69,-2.67
473.40,-2.02,0.59,-2.02,0.59,-0.62,-0.81,-0.22,-2.64,-2.64,-2.61
478.13,-1.95,0.60,-1.96,0.59,-0.60,-0.79,-0.21,-2.55,-2.56,-2.55
482.91,-1.91,0.59,-1.90,0.60,-0.58,-0.78,-0.19,-2.48,-2.48,-2.50
487.74,-1.87,0.60,-1.87,0.59,-0.55,-0.77,-0.18,-2.42,-2.42,-2.47
492.62,-1.87,0.56,-1.87,0.55,-0.52,-0.76,-0.17,-2.39,-2.40,-2.43
497.55,-1.89,0.50,-1.90,0.49,-0.49,-0.75,-0.16,-2.38,-2.39,-2.39
502.52,-1.95,0.42,-1.93,0.43,-0.46,-0.74,-0.15,-2.41,-2.39,-2.37
507.55,-1.96,0.38,-1.94,0.40,-0.42,-0.73,-0.14,-2.38,-2.37,-2.34
