frequency,raw,error,smoothed,error_smoothed,equalization,parametric_eq,fixed_band_eq,equalized_raw,equalized_smoothed,target
20.00,2.29,0.90,2.29,0.90,-0.90,-0.64,-0.53,1.39,1.39,1.39
20.20,2.32,0.89,2.31,0.89,-0.88,-0.65,-0.55,1.43,1.43,1.43
20.40,2.34,0.87,2.34,0.87,-0.87,-0.66,-0.57,1.46,1.47,1.47
20.61,2.37,0.87,2.37,0.86,-0.86,-0.67,-0.58,1.50,1.50,1.50
20.81,2.40,0.86,2.39,0.85,-0.86,-0.68,-0.60,1.54,1.54,1.54
21.02,2.42,0.84,2.42,0.85,-0.85,-0.70,-0.62,1.56,1.57,1.58
21.23,2.45,0.85,2.44,0.84,-0.85,-0.71,-0.64,1.59,1.59,1.60
21.44,2.47,0.85,2.47,0.85,-0.85,-0.72,-0.66,1.61,1.62,1.62
21.66,2.50,0.86,2.50,0.86,-0.86,-0.73,-0.68,1.64,1.64,1.64
21.87,2.53,0.88,2.52,0.87,-0.87,-0.74,-0.70,1.66,1.65,1.65
22.09,2.55,0.88,2.55,0.88,-0.88,-0.75,-0.72,1.67,1.67,1.67
22.31,2.57,0.89,2.57,0.89,-0.89,-0.76,-0.74,1.67,1.68,1.68
22.54,2.60,0.91,2.59,0.91,-0.91,-0.77,-0.77,1.69,1.68,1.69
22.76,2.62,0.92,2.62,0.92,-0.93,-0.79,-0.79,1.69,1.69,1.70
22.99,2.65,0.95,2.64,0.94,-0.94,-0.80,-0.81,1.70,1.70,1.70
23.22,2.67,0.96,2.67,0.96,-0.96,-0.81,-0.84,1.71,1.71,1.71
23.45,2.70,0.98,2.70,0.98,-0.97,-0.82,-0.86,1.72,1.72,1.72
23.69,2.73,1.00,2.72,1.00,-0.99,-0.83,-0.89,1.74,1.73,1.73
23.92,2.75,1.01,2.75,1.01,-1.01,-0.85,-0.91,1.74,1.74,1.74
24.16,2.78,1.02,2.78,1.02,-1.02,-0.86,-0.94,1.75,1.75,1.76
24.40,2.80,1.02,2.80,1.03,-1.04,-0.87,-0.97,1.76,1.76,1.78
24.65,2.83,1.06,2.82,1.05,-1.05,-0.88,-0.99,1.78,1.77,1.77
24.89,2.85,1.07,2.85,1.07,-1.07,-0.90,-1.02,1.78,1.78,1.78
25.14,2.87,1.08,2.87,1.08,-1.08,-0.91,-1.05,1.79,1.79,1.79
25.39,2.90,1.10,2.89,1.09,-1.09,-0.92,-1.08,1.80,1.80,1.80
25.65,2.92,1.10,2.92,1.11,-1.11,-0.93,-1.10,1.81,1.81,1.82
25.91,2.94,1.12,2.94,1.12,-1.12,-0.95,-1.13,1.82,1.82,1.82
26.16,2.97,1.14,2.96,1.13,-1.13,-0.96,-1.16,1.83,1.83,1.83
26.43,2.99,1.15,2.99,1.15,-1.15,-0.97,-1.19,1.84,1.84,1.84
26.69,3.01,1.16,3.01,1.16,-1.16,-0.99,-1.21,1.85,1.85,1.85
26.96,3.04,1.17,3.03,1.17,-1.17,-1.00,-1.24,1.86,1.86,1.87
27.23,3.06,1.18,3.06,1.18,-1.19,-1.01,-1.27,1.87,1.87,1.88
27.50,3.08,1.20,3.08,1.20,-1.20,-1.03,-1.29,1.88,1.88,1.88
27.77,3.10,1.22,3.10,1.21,-1.21,-1.04,-1.32,1.89,1.89,1.88
28.05,3.12,1.22,3.12,1.23,-1.22,-1.06,-1.34,1.89,1.89,1.90
28.33,3.14,1.24,3.14,1.24,-1.24,-1.07,-1.37,1.90,1.90,1.90
28.62,3.16,1.25,3.16,1.25,-1.25,-1.08,-1.39,1.91,1.91,1.91
28.90,3.18,1.26,3.18,1.26,-1.26,-1.10,-1.41,1.92,1.92,1.92
29.19,3.20,1.28,3.20,1.27,-1.27,-1.11,-1.43,1.92,1.92,1.92
29.48,3.22,1.27,3.22,1.28,-1.28,-1.13,-1.45,1.93,1.93,1.95
29.78,3.24,1.30,3.24,1.30,-1.30,-1.14,-1.47,1.94,1.94,1.94
30.08,3.26,1.31,3.26,1.31,-1.31,-1.16,-1.49,1.95,1.95,1.95
30.38,3.28,1.33,3.27,1.32,-1.32,-1.17,-1.50,1.96,1.96,1.95
30.68,3.29,1.32,3.29,1.33,-1.33,-1.19,-1.51,1.96,1.96,1.97
30.99,3.31,1.34,3.30,1.34,-1.34,-1.20,-1.52,1.97,1.97,1.97
31.30,3.32,1.35,3.32,1.34,-1.35,-1.21,-1.53,1.97,1.97,1.97
31.61,3.33,1.35,3.33,1.35,-1.35,-1.23,-1.54,1.97,1.98,1.98
31.93,3.35,1.36,3.34,1.36,-1.36,-1.24,-1.55,1.99,1.98,1.99
32.24,3.36,1.37,3.36,1.36,-1.37,-1.26,-1.55,1.99,1.99,1.99
32.57,3.38,1.37,3.38,1.37,-1.37,-1.27,-1.55,2.00,2.00,2.01
32.89,3.39,1.38,3.39,1.38,-1.38,-1.29,-1.56,2.01,2.01,2.01
33.22,3.41,1.39,3.40,1.38,-1.38,-1.31,-1.56,2.02,2.02,2.02
33.55,3.42,1.39,3.42,1.39,-1.39,-1.32,-1.55,2.03,2.03,2.03
33.89,3.43,1.39,3.43,1.39,-1.39,-1.34,-1.55,2.03,2.03,2.04
34.23,3.44,1.40,3.44,1.40,-1.40,-1.35,-1.55,2.04,2.04,2.04
34.57,3.45,1.40,3.45,1.40,-1.41,-1.37,-1.54,2.04,2.04,2.05
34.92,3.47,1.42,3.46,1.41,-1.41,-1.38,-1.54,2.05,2.05,2.05
35.27,3.48,1.42,3.48,1.42,-1.42,-1.40,-1.53,2.06,2.06,2.06
35.62,3.49,1.43,3.49,1.43,-1.43,-1.41,-1.53,2.06,2.06,2.06
35.97,3.50,1.44,3.50,1.44,-1.43,-1.43,-1.52,2.06,2.06,2.06
36.33,3.51,1.44,3.50,1.44,-1.44,-1.44,-1.51,2.07,2.07,2.07
36.70,3.51,1.45,3.51,1.45,-1.44,-1.46,-1.50,2.06,2.07,2.06
37.06,3.52,1.45,3.51,1.45,-1.45,-1.47,-1.49,2.07,2.06,2.07
37.43,3.52,1.45,3.52,1.45,-1.46,-1.49,-1.49,2.06,2.06,2.07
37.81,3.53,1.46,3.53,1.46,-1.47,-1.51,-1.48,2.06,2.06,2.07
38.19,3.54,1.47,3.54,1.47,-1.48,-1.52,-1.47,2.06,2.06,2.07
38.57,3.55,1.49,3.55,1.49,-1.49,-1.54,-1.46,2.06,2.06,2.06
38.95,3.56,1.50,3.56,1.50,-1.50,-1.55,-1.46,2.06,2.06,2.06
39.34,3.57,1.52,3.56,1.51,-1.51,-1.57,-1.45,2.06,2.05,2.05
39.74,3.57,1.52,3.57,1.52,-1.52,-1.58,-1.45,2.05,2.05,2.05
40.14,3.58,1.53,3.58,1.53,-1.53,-1.60,-1.44,2.05,2.05,2.05
40.54,3.59,1.54,3.58,1.54,-1.54,-1.62,-1.44,2.05,2.04,2.05
40.94,3.59,1.55,3.59,1.55,-1.55,-1.63,-1.43,2.04,2.04,2.04
41.35,3.59,1.55,3.59,1.55,-1.55,-1.65,-1.43,2.04,2.04,2.04
41.76,3.60,1.56,3.59,1.56,-1.56,-1.66,-1.43,2.04,2.04,2.04
42.18,3.60,1.56,3.60,1.56,-1.56,-1.68,-1.43,2.04,2.04,2.04
42.60,3.60,1.56,3.60,1.56,-1.56,-1.69,-1.43,2.04,2.04,2.04
43.03,3.60,1.56,3.60,1.56,-1.56,-1.71,-1.43,2.04,2.04,2.04
43.46,3.60,1.56,3.59,1.56,-1.56,-1.73,-1.43,2.04,2.03,2.04
43.90,3.59,1.57,3.59,1.56,-1.56,-1.74,-1.43,2.03,2.03,2.02
44.33,3.58,1.56,3.58,1.56,-1.56,-1.76,-1.44,2.02,2.02,2.02
44.78,3.57,1.56,3.57,1.56,-1.56,-1.77,-1.44,2.01,2.01,2.01
45.23,3.57,1.56,3.57,1.56,-1.56,-1.79,-1.45,2.01,2.01,2.01
45.68,3.57,1.56,3.57,1.56,-1.56,-1.80,-1.46,2.01,2.01,2.01
46.13,3.57,1.57,3.57,1.56,-1.56,-1.82,-1.47,2.01,2.01,2.00
46.60,3.57,1.56,3.57,1.57,-1.56,-1.83,-1.48,2.00,2.00,2.01
47.06,3.57,1.57,3.57,1.57,-1.57,-1.85,-1.49,2.00,2.00,2.00
47.53,3.57,1.58,3.57,1.57,-1.57,-1.87,-1.50,1.99,1.99,1.99
48.01,3.57,1.57,3.57,1.58,-1.58,-1.88,-1.51,1.98,1.98,2.00
48.49,3.57,1.59,3.57,1.59,-1.59,-1.90,-1.52,1.97,1.97,1.98
48.97,3.57,1.61,3.57,1.60,-1.60,-1.91,-1.54,1.96,1.96,1.96
49.46,3.57,1.62,3.57,1.62,-1.62,-1.93,-1.55,1.95,1.95,1.95
49.96,3.57,1.64,3.57,1.63,-1.63,-1.94,-1.57,1.93,1.93,1.93
50.46,3.57,1.64,3.57,1.65,-1.65,-1.96,-1.59,1.92,1.92,1.93
50.96,3.57,1.66,3.57,1.66,-1.66,-1.97,-1.61,1.90,1.90,1.91
51.47,3.57,1.69,3.57,1.68,-1.68,-1.99,-1.63,1.89,1.89,1.88
51.99,3.57,1.70,3.57,1.70,-1.70,-2.00,-1.65,1.87,1.87,1.87
52.51,3.57,1.71,3.57,1.71,-1.71,-2.02,-1.67,1.86,1.86,1.86
53.03,3.57,1.73,3.57,1.73,-1.73,-2.04,-1.69,1.84,1.84,1.84
53.56,3.57,1.74,3.57,1.74,-1.75,-2.05,-1.71,1.82,1.82,1.83
54.10,3.57,1.77,3.57,1.76,-1.77,-2.07,-1.73,1.80,1.80,1.80
54.64,3.57,1.78,3.57,1.79,-1.79,-2.08,-1.76,1.78,1.78,1.79
55.18,3.57,1.81,3.57,1.81,-1.81,-2.10,-1.78,1.76,1.76,1.76
55.74,3.57,1.84,3.57,1.83,-1.83,-2.11,-1.80,1.74,1.74,1.73
56.29,3.57,1.84,3.57,1.85,-1.85,-2.13,-1.83,1.72,1.72,1.73
56.86,3.57,1.87,3.57,1.87,-1.87,-2.14,-1.85,1.70,1.70,1.70
57.42,3.57,1.90,3.57,1.89,-1.89,-2.16,-1.88,1.68,1.68,1.67
58.00,3.57,1.92,3.57,1.92,-1.91,-2.17,-1.90,1.65,1.65,1.65
58.58,3.57,1.94,3.57,1.94,-1.94,-2.19,-1.93,1.63,1.63,1.63
59.16,3.57,1.96,3.57,1.96,-1.96,-2.20,-1.95,1.61,1.61,1.61
59.76,3.57,1.98,3.57,1.98,-1.99,-2.22,-1.98,1.58,1.58,1.59
60.35,3.57,2.01,3.57,2.01,-2.02,-2.24,-2.00,1.55,1.55,1.56
60.96,3.57,2.04,3.57,2.05,-2.05,-2.25,-2.03,1.52,1.52,1.53
61.57,3.57,2.09,3.57,2.08,-2.08,-2.27,-2.05,1.48,1.48,1.48
62.18,3.57,2.13,3.57,2.12,-2.12,-2.28,-2.08,1.45,1.45,1.44
62.80,3.57,2.15,3.57,2.16,-2.16,-2.30,-2.10,1.41,1.41,1.42
63.43,3.57,2.20,3.57,2.20,-2.20,-2.32,-2.12,1.37,1.37,1.37
64.07,3.57,2.24,3.57,2.23,-2.23,-2.33,-2.15,1.33,1.33,1.33
64.71,3.57,2.27,3.57,2.27,-2.27,-2.35,-2.17,1.30,1.30,1.30
65.35,3.57,2.31,3.57,2.31,-2.31,-2.36,-2.20,1.26,1.26,1.26
66.01,3.57,2.35,3.57,2.34,-2.35,-2.38,-2.22,1.22,1.22,1.22
66.67,3.57,2.38,3.57,2.38,-2.38,-2.40,-2.25,1.18,1.18,1.19
67.33,3.57,2.42,3.57,2.42,-2.42,-2.42,-2.27,1.15,1.15,1.15
68.01,3.57,2.46,3.57,2.46,-2.46,-2.43,-2.30,1.11,1.11,1.11
68.69,3.57,2.50,3.57,2.50,-2.50,-2.45,-2.33,1.07,1.07,1.07
69.37,3.57,2.54,3.57,2.54,-2.54,-2.47,-2.35,1.03,1.03,1.03
70.07,3.57,2.58,3.57,2.58,-2.58,-2.49,-2.38,0.99,0.99,0.99
70.77,3.57,2.62,3.57,2.62,-2.62,-2.50,-2.41,0.95,0.95,0.95
71.48,3.57,2.65,3.57,2.66,-2.66,-2.52,-2.44,0.91,0.91,0.92
72.19,3.57,2.70,3.57,2.69,-2.69,-2.54,-2.47,0.87,0.87,0.87
72.91,3.57,2.73,3.57,2.73,-2.73,-2.56,-2.50,0.84,0.84,0.84
73.64,3.57,2.77,3.57,2.77,-2.77,-2.58,-2.53,0.80,0.80,0.80
74.38,3.57,2.80,3.57,2.80,-2.80,-2.60,-2.57,0.76,0.76,0.77
75.12,3.57,2.84,3.57,2.84,-2.84,-2.62,-2.60,0.73,0.73,0.73
75.87,3.57,2.87,3.57,2.87,-2.87,-2.64,-2.64,0.70,0.70,0.70
76.63,3.57,2.90,3.57,2.90,-2.90,-2.67,-2.68,0.67,0.67,0.67
77.40,3.57,2.93,3.57,2.93,-2.93,-2.69,-2.72,0.64,0.64,0.64
78.17,3.57,2.96,3.57,2.96,-2.96,-2.71,-2.77,0.61,0.61,0.61
78.95,3.57,2.99,3.57,2.99,-2.98,-2.73,-2.81,0.58,0.58,0.58
79.74,3.57,3.01,3.57,3.01,-3.01,-2.76,-2.86,0.56,0.56,0.56
80.54,3.57,3.03,3.57,3.03,-3.04,-2.78,-2.91,0.53,0.53,0.54
81.35,3.57,3.06,3.57,3.06,-3.06,-2.81,-2.96,0.51,0.51,0.51
82.16,3.57,3.09,3.57,3.08,-3.08,-2.83,-3.01,0.48,0.48,0.48
82.98,3.57,3.10,3.57,3.11,-3.11,-2.86,-3.07,0.46,0.46,0.47
83.81,3.57,3.13,3.57,3.13,-3.13,-2.89,-3.13,0.44,0.44,0.44
84.65,3.57,3.16,3.57,3.15,-3.15,-2.92,-3.19,0.42,0.42,0.41
85.50,3.57,3.17,3.57,3.17,-3.17,-2.95,-3.26,0.40,0.40,0.40
86.35,3.57,3.19,3.57,3.19,-3.19,-2.98,-3.32,0.38,0.38,0.38
87.22,3.57,3.21,3.57,3.21,-3.21,-3.01,-3.39,0.36,0.36,0.36
88.09,3.57,3.23,3.57,3.23,-3.23,-3.04,-3.47,0.34,0.34,0.34
88.97,3.57,3.25,3.57,3.25,-3.25,-3.08,-3.54,0.32,0.32,0.32
89.86,3.57,3.26,3.57,3.27,-3.26,-3.11,-3.62,0.31,0.31,0.31
90.76,3.57,3.29,3.56,3.28,-3.27,-3.15,-3.70,0.29,0.29,0.28
91.66,3.56,3.30,3.56,3.30,-3.29,-3.19,-3.78,0.27,0.27,0.26
92.58,3.55,3.31,3.55,3.31,-3.31,-3.22,-3.87,0.24,0.24,0.24
93.51,3.55,3.32,3.55,3.32,-3.33,-3.27,-3.95,0.22,0.21,0.23
94.44,3.55,3.34,3.55,3.34,-3.36,-3.31,-4.04,0.19,0.19,0.21
95.39,3.57,3.38,3.57,3.38,-3.39,-3.35,-4.14,0.17,0.17,0.19
96.34,3.59,3.43,3.58,3.43,-3.43,-3.40,-4.23,0.15,0.15,0.16
97.30,3.61,3.48,3.61,3.48,-3.48,-3.44,-4.33,0.13,0.13,0.13
98.28,3.64,3.54,3.64,3.54,-3.53,-3.49,-4.43,0.11,0.11,0.10
99.26,3.67,3.59,3.67,3.59,-3.58,-3.54,-4.53,0.08,0.08,0.08
100.25,3.70,3.65,3.70,3.65,-3.64,-3.60,-4.63,0.06,0.06,0.05
101.25,3.73,3.71,3.72,3.71,-3.70,-3.65,-4.73,0.03,0.03,0.02
102.27,3.75,3.77,3.74,3.76,-3.75,-3.71,-4.84,-0.01,-0.01,-0.02
103.29,3.76,3.81,3.76,3.81,-3.81,-3.77,-4.94,-0.06,-0.05,-0.05
104.32,3.78,3.86,3.78,3.87,-3.88,-3.83,-5.04,-0.10,-0.10,-0.08
105.37,3.81,3.93,3.81,3.93,-3.95,-3.89,-5.14,-0.14,-0.14,-0.12
106.42,3.85,4.02,3.84,4.01,-4.02,-3.96,-5.25,-0.18,-0.18,-0.17
107.48,3.89,4.09,3.89,4.10,-4.10,-4.02,-5.34,-0.21,-0.21,-0.20
108.56,3.93,4.19,3.93,4.19,-4.18,-4.09,-5.44,-0.26,-0.25,-0.26
109.64,3.98,4.29,3.97,4.28,-4.27,-4.17,-5.53,-0.30,-0.30,-0.31
110.74,4.01,4.37,4.01,4.37,-4.36,-4.24,-5.62,-0.36,-0.36,-0.36
111.85,4.04,4.45,4.04,4.46,-4.45,-4.32,-5.71,-0.42,-0.42,-0.41
112.97,4.07,4.55,4.07,4.54,-4.55,-4.40,-5.79,-0.48,-0.48,-0.48
114.10,4.10,4.63,4.10,4.63,-4.64,-4.48,-5.86,-0.54,-0.54,-0.53
115.24,4.13,4.72,4.12,4.72,-4.73,-4.56,-5.93,-0.60,-0.60,-0.59
116.39,4.15,4.81,4.15,4.81,-4.81,-4.64,-5.98,-0.67,-0.66,-0.66
117.55,4.18,4.90,4.18,4.90,-4.90,-4.73,-6.03,-0.72,-0.72,-0.72
118.73,4.20,4.98,4.20,4.98,-4.98,-4.82,-6.07,-0.78,-0.78,-0.78
119.92,4.23,5.06,4.22,5.06,-5.05,-4.91,-6.10,-0.82,-0.82,-0.83
121.12,4.24,5.13,4.24,5.13,-5.11,-5.00,-6.11,-0.88,-0.88,-0.89
122.33,4.25,5.19,4.24,5.18,-5.17,-5.09,-6.12,-0.93,-0.93,-0.94
123.55,4.24,5.23,4.24,5.23,-5.23,-5.18,-6.11,-0.99,-0.99,-0.99
124.79,4.23,5.27,4.23,5.27,-5.28,-5.27,-6.09,-1.05,-1.05,-1.04
126.03,4.22,5.31,4.22,5.31,-5.33,-5.36,-6.06,-1.11,-1.11,-1.09
127.29,4.22,5.36,4.22,5.36,-5.37,-5.44,-6.01,-1.16,-1.16,-1.14
128.57,4.22,5.42,4.22,5.41,-5.42,-5.53,-5.96,-1.20,-1.20,-1.20
129.85,4.23,5.47,4.22,5.47,-5.47,-5.61,-5.89,-1.24,-1.25,-1.24
131.15,4.23,5.52,4.23,5.52,-5.52,-5.68,-5.81,-1.29,-1.29,-1.29
132.46,4.24,5.57,4.24,5.57,-5.57,-5.75,-5.72,-1.33,-1.33,-1.33
133.79,4.25,5.62,4.24,5.62,-5.62,-5.82,-5.61,-1.37,-1.37,-1.37
135.12,4.25,5.66,4.24,5.66,-5.66,-5.87,-5.50,-1.41,-1.41,-1.41
136.48,4.24,5.69,4.24,5.69,-5.70,-5.92,-5.38,-1.46,-1.46,-1.45
137.84,4.23,5.72,4.23,5.73,-5.73,-5.96,-5.25,-1.50,-1.50,-1.49
139.22,4.22,5.76,4.21,5.75,-5.75,-5.98,-5.12,-1.53,-1.54,-1.54
140.61,4.20,5.78,4.20,5.77,-5.76,-5.99,-4.97,-1.57,-1.57,-1.58
142.02,4.16,5.76,4.16,5.77,-5.77,-5.99,-4.83,-1.61,-1.61,-1.60
143.44,4.13,5.77,4.12,5.76,-5.76,-5.97,-4.67,-1.64,-1.64,-1.64
144.87,4.06,5.74,4.06,5.74,-5.75,-5.94,-4.51,-1.69,-1.68,-1.68
146.32,4.00,5.72,4.00,5.71,-5.72,-5.89,-4.35,-1.72,-1.72,-1.72
147.78,3.92,5.67,3.92,5.67,-5.67,-5.82,-4.19,-1.76,-1.76,-1.75
149.26,3.84,5.62,3.83,5.63,-5.62,-5.74,-4.02,-1.78,-1.79,-1.78
150.75,3.72,5.56,3.72,5.55,-5.55,-5.63,-3.85,-1.83,-1.83,-1.84
152.26,3.61,5.49,3.60,5.48,-5.47,-5.51,-3.68,-1.86,-1.87,-1.88
153.78,3.45,5.36,3.45,5.38,-5.38,-5.37,-3.51,-1.93,-1.92,-1.91
155.32,3.32,5.29,3.31,5.27,-5.27,-5.22,-3.33,-1.95,-1.96,-1.97
156.88,3.13,5.13,3.14,5.14,-5.16,-5.04,-3.16,-2.03,-2.02,-2.00
158.44,2.99,5.04,2.96,5.01,-5.03,-4.86,-2.99,-2.04,-2.07,-2.05
160.03,2.75,4.85,2.78,4.88,-4.89,-4.66,-2.81,-2.14,-2.11,-2.10
161.63,2.60,4.75,2.60,4.74,-4.74,-4.45,-2.64,-2.15,-2.15,-2.15
163.24,2.43,4.62,2.39,4.58,-4.58,-4.23,-2.47,-2.15,-2.19,-2.19
164.88,2.15,4.38,2.18,4.42,-4.40,-4.00,-2.29,-2.25,-2.22,-2.23
166.53,1.93,4.21,1.93,4.22,-4.20,-3.76,-2.12,-2.28,-2.27,-2.28
168.19,1.71,4.04,1.66,3.99,-3.99,-3.51,-1.95,-2.28,-2.33,-2.33
169.87,1.36,3.74,1.40,3.78,-3.77,-3.26,-1.78,-2.41,-2.36,-2.38
171.57,1.09,3.51,1.10,3.53,-3.53,-3.01,-1.61,-2.44,-2.43,-2.42
173.29,0.84,3.32,0.77,3.25,-3.27,-2.75,-1.44,-2.44,-2.50,-2.48
175.02,0.41,2.94,0.45,2.98,-3.00,-2.49,-1.27,-2.60,-2.55,-2.53
176.77,0.10,2.69,0.11,2.70,-2.71,-2.23,-1.10,-2.62,-2.60,-2.59
178.54,-0.21,2.43,-0.21,2.43,-2.41,-1.97,-0.93,-2.62,-2.62,-2.64
180.32,-0.54,2.16,-0.55,2.15,-2.10,-1.71,-0.77,-2.64,-2.65,-2.70
182.13,-0.88,1.87,-0.95,1.81,-1.78,-1.45,-0.60,-2.66,-2.72,-2.75
183.95,-1.42,1.39,-1.37,1.44,-1.45,-1.20,-0.44,-2.87,-2.82,-2.81
185.79,-1.80,1.06,-1.79,1.08,-1.12,-0.94,-0.27,-2.92,-2.90,-2.86
187.65,-2.17,0.76,-2.19,0.74,-0.78,-0.69,-0.11,-2.95,-2.96,-2.93
189.52,-2.54,0.44,-2.54,0.44,-0.44,-0.45,0.05,-2.98,-2.98,-2.98
191.42,-2.91,0.12,-2.92,0.11,-0.10,-0.20,0.21,-3.01,-3.02,-3.03
193.33,-3.30,-0.22,-3.30,-0.22,0.23,0.03,0.38,-3.07,-3.07,-3.08
195.27,-3.68,-0.55,-3.68,-0.55,0.56,0.27,0.54,-3.13,-3.12,-3.13
197.22,-4.05,-0.86,-4.05,-0.86,0.87,0.49,0.69,-3.18,-3.18,-3.19
199.19,-4.41,-1.17,-4.41,-1.17,1.18,0.71,0.85,-3.24,-3.24,-3.24
201.18,-4.75,-1.46,-4.76,-1.47,1.47,0.93,1.01,-3.28,-3.29,-3.29
203.19,-5.09,-1.77,-5.09,-1.76,1.75,1.13,1.16,-3.34,-3.34,-3.32
205.23,-5.40,-2.02,-5.40,-2.03,2.01,1.34,1.31,-3.39,-3.39,-3.38
207.28,-5.68,-2.28,-5.68,-2.26,2.25,1.53,1.47,-3.44,-3.43,-3.40
209.35,-5.92,-2.46,-5.92,-2.46,2.46,1.72,1.61,-3.47,-3.47,-3.46
211.44,-6.13,-2.62,-6.14,-2.64,2.64,1.90,1.76,-3.50,-3.51,-3.51
213.56,-6.34,-2.79,-6.34,-2.80,2.79,2.07,1.90,-3.55,-3.55,-3.55
215.69,-6.52,-2.95,-6.52,-2.93,2.92,2.23,2.04,-3.60,-3.59,-3.57
217.85,-6.66,-3.05,-6.65,-3.04,3.03,2.38,2.18,-3.64,-3.63,-3.61
220.03,-6.75,-3.10,-6.76,-3.11,3.11,2.53,2.31,-3.64,-3.65,-3.65
222.23,-6.84,-3.16,-6.85,-3.17,3.17,2.67,2.44,-3.67,-3.67,-3.68
224.45,-6.92,-3.22,-6.92,-3.22,3.22,2.80,2.56,-3.70,-3.70,-3.70
226.70,-6.99,-3.26,-6.99,-3.26,3.26,2.92,2.68,-3.73,-3.73,-3.73
228.96,-7.04,-3.28,-7.04,-3.28,3.28,3.03,2.79,-3.76,-3.75,-3.76
231.25,-7.06,-3.29,-7.07,-3.29,3.30,3.14,2.89,-3.76,-3.77,-3.77
233.57,-7.09,-3.30,-7.10,-3.31,3.31,3.23,2.99,-3.78,-3.78,-3.79
235.90,-7.12,-3.32,-7.12,-3.32,3.32,3.32,3.08,-3.80,-3.80,-3.80
238.26,-7.14,-3.33,-7.14,-3.33,3.32,3.40,3.16,-3.82,-3.82,-3.81
240.64,-7.15,-3.33,-7.15,-3.33,3.32,3.46,3.24,-3.83,-3.83,-3.82
243.05,-7.15,-3.33,-7.15,-3.33,3.32,3.53,3.30,-3.83,-3.83,-3.82
245.48,-7.15,-3.32,-7.15,-3.32,3.32,3.58,3.36,-3.83,-3.83,-3.83
247.93,-7.14,-3.31,-7.15,-3.31,3.32,3.63,3.41,-3.82,-3.83,-3.83
250.41,-7.14,-3.31,-7.14,-3.31,3.32,3.66,3.45,-3.82,-3.82,-3.83
252.92,-7.13,-3.31,-7.13,-3.31,3.32,3.69,3.48,-3.81,-3.81,-3.82
255.45,-7.13,-3.32,-7.13,-3.32,3.33,3.72,3.50,-3.81,-3.81,-3.81
258.00,-7.13,-3.33,-7.14,-3.33,3.34,3.73,3.52,-3.80,-3.80,-3.80
260.58,-7.14,-3.34,-7.14,-3.34,3.35,3.74,3.52,-3.80,-3.80,-3.80
263.19,-7.15,-3.36,-7.15,-3.36,3.36,3.75,3.52,-3.80,-3.79,-3.79
265.82,-7.15,-3.37,-7.15,-3.37,3.37,3.75,3.51,-3.79,-3.79,-3.78
268.48,-7.14,-3.38,-7.15,-3.38,3.37,3.74,3.50,-3.77,-3.77,-3.76
271.16,-7.13,-3.39,-7.13,-3.38,3.38,3.73,3.47,-3.76,-3.75,-3.74
273.87,-7.11,-3.37,-7.11,-3.38,3.38,3.71,3.44,-3.74,-3.73,-3.74
276.61,-7.08,-3.37,-7.09,-3.37,3.37,3.69,3.41,-3.71,-3.72,-3.71
279.38,-7.06,-3.35,-7.07,-3.36,3.36,3.66,3.37,-3.70,-3.71,-3.71
282.17,-7.04,-3.35,-7.04,-3.35,3.35,3.63,3.33,-3.70,-3.70,-3.69
284.99,-7.02,-3.34,-7.01,-3.33,3.33,3.60,3.28,-3.70,-3.69,-3.68
287.84,-6.97,-3.30,-6.98,-3.31,3.30,3.56,3.23,-3.67,-3.68,-3.67
290.72,-6.93,-3.27,-6.93,-3.28,3.28,3.52,3.17,-3.66,-3.66,-3.66
293.63,-6.89,-3.25,-6.89,-3.25,3.25,3.48,3.11,-3.65,-3.64,-3.64
296.57,-6.84,-3.22,-6.85,-3.22,3.22,3.44,3.06,-3.63,-3.63,-3.62
299.53,-6.80,-3.18,-6.80,-3.18,3.19,3.39,3.00,-3.62,-3.61,-3.62
302.53,-6.75,-3.14,-6.76,-3.15,3.16,3.34,2.93,-3.60,-3.60,-3.61
305.55,-6.71,-3.12,-6.71,-3.11,3.13,3.29,2.87,-3.59,-3.59,-3.59
308.61,-6.67,-3.09,-6.67,-3.09,3.09,3.24,2.81,-3.58,-3.58,-3.58
311.69,-6.62,-3.05,-6.63,-3.07,3.06,3.18,2.75,-3.56,-3.57,-3.57
314.81,-6.59,-3.05,-6.59,-3.04,3.02,3.13,2.69,-3.57,-3.57,-3.54
317.96,-6.55,-3.00,-6.55,-3.00,2.98,3.07,2.63,-3.57,-3.56,-3.55
321.14,-6.49,-2.95,-6.50,-2.95,2.94,3.02,2.57,-3.55,-3.55,-3.54
324.35,-6.44,-2.90,-6.44,-2.90,2.90,2.96,2.51,-3.54,-3.54,-3.54
327.59,-6.38,-2.85,-6.39,-2.85,2.86,2.90,2.45,-3.53,-3.53,-3.53
330.87,-6.34,-2.81,-6.34,-2.81,2.81,2.84,2.39,-3.53,-3.52,-3.53
334.18,-6.29,-2.76,-6.29,-2.77,2.78,2.78,2.34,-3.52,-3.52,-3.53
337.52,-6.25,-2.73,-6.26,-2.73,2.74,2.72,2.28,-3.51,-3.52,-3.52
340.90,-6.23,-2.71,-6.23,-2.70,2.71,2.67,2.23,-3.52,-3.52,-3.52
344.30,-6.20,-2.68,-6.21,-2.69,2.69,2.61,2.18,-3.52,-3.52,-3.52
347.75,-6.19,-2.67,-6.19,-2.67,2.67,2.55,2.13,-3.53,-3.53,-3.52
351.23,-6.18,-2.66,-6.18,-2.66,2.65,2.49,2.08,-3.53,-3.53,-3.52
354.74,-6.17,-2.65,-6.17,-2.64,2.64,2.43,2.04,-3.53,-3.53,-3.52
358.28,-6.15,-2.61,-6.16,-2.62,2.63,2.37,1.99,-3.53,-3.53,-3.54
361.87,-6.14,-2.60,-6.14,-2.60,2.61,2.31,1.95,-3.53,-3.53,-3.54
365.49,-6.13,-2.59,-6.14,-2.59,2.60,2.25,1.91,-3.54,-3.54,-3.54
369.14,-6.13,-2.58,-6.13,-2.58,2.58,2.19,1.87,-3.56,-3.56,-3.55
372.83,-6.12,-2.57,-6.12,-2.56,2.55,2.14,1.83,-3.57,-3.57,-3.55
376.56,-6.09,-2.53,-6.10,-2.53,2.52,2.08,1.80,-3.57,-3.58,-3.56
380.33,-6.06,-2.49,-6.06,-2.49,2.48,2.02,1.76,-3.58,-3.58,-3.57
384.13,-6.01,-2.43,-6.02,-2.43,2.44,1.97,1.73,-3.58,-3.58,-3.58
387.97,-5.97,-2.38,-5.97,-2.38,2.39,1.91,1.70,-3.59,-3.58,-3.59
391.85,-5.92,-2.32,-5.92,-2.33,2.33,1.85,1.67,-3.59,-3.59,-3.60
395.77,-5.87,-2.28,-5.87,-2.27,2.27,1.80,1.64,-3.60,-3.60,-3.59
399.73,-5.81,-2.21,-5.81,-2.21,2.20,1.74,1.62,-3.61,-3.61,-3.60
403.72,-5.74,-2.13,-5.75,-2.14,2.14,1.69,1.59,-3.61,-3.61,-3.61
407.76,-5.68,-2.06,-5.68,-2.07,2.07,1.63,1.56,-3.61,-3.62,-3.62
411.84,-5.62,-2.01,-5.62,-2.00,2.00,1.58,1.54,-3.62,-3.62,-3.61
415.96,-5.55,-1.92,-5.55,-1.93,1.93,1.53,1.52,-3.62,-3.62,-3.63
420.12,-5.48,-1.85,-5.49,-1.86,1.86,1.47,1.49,-3.63,-3.63,-3.63
424.32,-5.41,-1.78,-5.42,-1.78,1.78,1.42,1.47,-3.63,-3.64,-3.63
428.56,-5.36,-1.72,-5.35,-1.71,1.71,1.37,1.45,-3.65,-3.64,-3.64
432.85,-5.28,-1.64,-5.28,-1.64,1.64,1.32,1.42,-3.64,-3.64,-3.64
437.18,-5.20,-1.56,-5.21,-1.57,1.57,1.27,1.40,-3.64,-3.64,-3.64
441.55,-5.13,-1.50,-5.13,-1.50,1.49,1.22,1.38,-3.64,-3.64,-3.63
445.96,-5.06,-1.43,-5.06,-1.43,1.42,1.16,1.35,-3.64,-3.64,-3.63
450.42,-4.98,-1.34,-4.99,-1.35,1.35,1.11,1.33,-3.63,-3.64,-3.64
454.93,-4.91,-1.28,-4.91,-1.27,1.27,1.06,1.30,-3.64,-3.63,-3.63
459.48,-4.82,-1.19,-4.83,-1.20,1.20,1.01,1.28,-3.62,-3.63,-3.63
464.07,-4.74,-1.12,-4.75,-1.13,1.13,0.96,1.25,-3.62,-3.62,-3.62
468.71,-4.68,-1.07,-4.68,-1.06,1.06,0.92,1.22,-3.63,-3.62,-3.61
473.40,-4.60,-0.98,-4.60,-0.99,0.99,0.87,1.19,-3.62,-3.62,-3.62
478.13,-4.53,-0.92,-4.53,-0.92,0.92,0.82,1.16,-3.61,-3.61,-3.61
482.91,-4.45,-0.84,-4.45,-0.85,0.85,0.77,1.13,-3.60,-3.60,-3.61
487.74,-4.38,-0.78,-4.39,-0.79,0.79,0.72,1.09,-3.59,-3.60,-3.60
492.62,-4.32,-0.73,-4.32,-0.73,0.73,0.67,1.05,-3.60,-3.59,-3.59
497.55,-4.26,-0.67,-4.26,-0.67,0.67,0.62,1.01,-3.60,-3.59,-3.59
