frequency,raw,error,smoothed,error_smoothed,equalization,parametric_eq,fixed_band_eq,equalized_raw,equalized_smoothed,target
20.00,4.69,-1.05,4.69,-1.04,1.05,-0.37,-0.36,5.74,5.74,5.74
20.20,4.73,-1.01,4.73,-1.01,1.01,-0.37,-0.37,5.74,5.74,5.74
20.40,4.76,-0.98,4.76,-0.98,0.98,-0.38,-0.38,5.74,5.74,5.74
20.61,4.80,-0.94,4.80,-0.94,0.94,-0.39,-0.39,5.74,5.74,5.74
20.81,4.84,-0.90,4.84,-0.90,0.89,-0.40,-0.40,5.74,5.73,5.74
21.02,4.88,-0.86,4.88,-0.85,0.85,-0.41,-0.41,5.73,5.73,5.74
21.23,4.92,-0.80,4.92,-0.80,0.80,-0.42,-0.42,5.72,5.72,5.72
21.44,4.96,-0.75,4.96,-0.75,0.75,-0.42,-0.43,5.71,5.71,5.71
21.66,5.00,-0.69,5.00,-0.69,0.69,-0.43,-0.43,5.69,5.69,5.69
21.87,5.03,-0.64,5.04,-0.63,0.63,-0.44,-0.44,5.66,5.67,5.67
22.09,5.08,-0.58,5.08,-0.57,0.57,-0.45,-0.45,5.65,5.65,5.66
22.31,5.12,-0.51,5.12,-0.51,0.51,-0.46,-0.47,5.63,5.63,5.63
22.54,5.16,-0.45,5.16,-0.45,0.44,-0.47,-0.48,5.60,5.61,5.61
22.76,5.21,-0.38,5.20,-0.38,0.38,-0.48,-0.49,5.59,5.58,5.59
22.99,5.24,-0.32,5.24,-0.31,0.31,-0.50,-0.50,5.56,5.56,5.56
23.22,5.28,-0.25,5.28,-0.25,0.25,-0.51,-0.51,5.53,5.54,5.53
23.45,5.32,-0.18,5.32,-0.19,0.20,-0.52,-0.52,5.52,5.51,5.50
23.69,5.35,-0.14,5.36,-0.13,0.14,-0.53,-0.53,5.49,5.50,5.49
23.92,5.39,-0.08,5.39,-0.08,0.09,-0.54,-0.55,5.48,5.47,5.47
24.16,5.42,-0.04,5.42,-0.04,0.04,-0.55,-0.56,5.46,5.45,5.46
24.40,5.44,0.00,5.44,0.01,-0.01,-0.57,-0.57,5.43,5.43,5.44
24.65,5.47,0.05,5.48,0.06,-0.06,-0.58,-0.58,5.41,5.41,5.42
24.89,5.51,0.11,5.51,0.11,-0.11,-0.59,-0.60,5.40,5.40,5.40
25.14,5.55,0.16,5.55,0.16,-0.16,-0.61,-0.61,5.39,5.39,5.39
25.39,5.58,0.21,5.58,0.21,-0.21,-0.62,-0.62,5.37,5.37,5.37
25.65,5.62,0.26,5.62,0.27,-0.27,-0.63,-0.64,5.35,5.35,5.36
25.91,5.65,0.32,5.65,0.32,-0.32,-0.65,-0.65,5.33,5.33,5.33
26.16,5.69,0.37,5.69,0.37,-0.37,-0.66,-0.67,5.32,5.32,5.32
26.43,5.72,0.41,5.72,0.42,-0.42,-0.68,-0.68,5.30,5.30,5.31
26.69,5.76,0.48,5.76,0.47,-0.47,-0.69,-0.70,5.29,5.29,5.28
26.96,5.79,0.52,5.79,0.52,-0.52,-0.71,-0.71,5.27,5.27,5.27
27.23,5.82,0.56,5.82,0.56,-0.56,-0.73,-0.73,5.26,5.26,5.26
27.50,5.85,0.60,5.85,0.61,-0.61,-0.74,-0.74,5.24,5.24,5.25
27.77,5.88,0.65,5.88,0.65,-0.66,-0.76,-0.76,5.22,5.23,5.23
28.05,5.92,0.70,5.91,0.70,-0.70,-0.78,-0.77,5.22,5.21,5.22
28.33,5.94,0.74,5.95,0.75,-0.75,-0.80,-0.79,5.20,5.20,5.20
28.62,5.98,0.79,5.98,0.79,-0.79,-0.82,-0.80,5.19,5.19,5.19
28.90,6.01,0.84,6.01,0.84,-0.83,-0.84,-0.82,5.18,5.17,5.17
29.19,6.03,0.88,6.04,0.88,-0.88,-0.86,-0.83,5.15,5.16,5.15
29.48,6.07,0.92,6.07,0.92,-0.92,-0.88,-0.85,5.15,5.15,5.15
29.78,6.10,0.96,6.10,0.96,-0.97,-0.90,-0.87,5.13,5.13,5.14
30.08,6.14,1.01,6.14,1.01,-1.01,-0.92,-0.88,5.13,5.12,5.13
30.38,6.16,1.05,6.17,1.06,-1.06,-0.94,-0.90,5.10,5.11,5.11
30.68,6.20,1.10,6.20,1.11,-1.10,-0.97,-0.91,5.10,5.09,5.10
30.99,6.23,1.16,6.23,1.15,-1.15,-0.99,-0.93,5.08,5.08,5.07
31.30,6.26,1.20,6.26,1.20,-1.20,-1.02,-0.95,5.06,5.06,5.06
31.61,6.29,1.24,6.29,1.24,-1.25,-1.04,-0.96,5.04,5.04,5.05
31.93,6.31,1.28,6.32,1.29,-1.29,-1.07,-0.98,5.02,5.02,5.03
32.24,6.34,1.34,6.34,1.34,-1.34,-1.10,-1.00,5.00,5.00,5.00
32.57,6.37,1.39,6.37,1.39,-1.38,-1.12,-1.01,4.99,4.98,4.98
32.89,6.39,1.42,6.39,1.43,-1.43,-1.15,-1.03,4.97,4.97,4.97
33.22,6.41,1.47,6.41,1.47,-1.47,-1.18,-1.05,4.94,4.94,4.94
33.55,6.43,1.50,6.43,1.51,-1.51,-1.21,-1.07,4.92,4.92,4.93
33.89,6.45,1.55,6.45,1.55,-1.55,-1.24,-1.08,4.90,4.90,4.90
34.23,6.47,1.59,6.47,1.59,-1.59,-1.27,-1.10,4.88,4.88,4.88
34.57,6.49,1.63,6.49,1.63,-1.63,-1.31,-1.12,4.86,4.86,4.86
34.92,6.51,1.67,6.51,1.67,-1.67,-1.34,-1.14,4.84,4.84,4.84
35.27,6.53,1.71,6.53,1.71,-1.71,-1.38,-1.16,4.82,4.82,4.82
35.62,6.55,1.75,6.55,1.75,-1.75,-1.41,-1.18,4.80,4.80,4.80
35.97,6.57,1.79,6.57,1.79,-1.79,-1.45,-1.20,4.78,4.78,4.78
36.33,6.59,1.83,6.59,1.83,-1.83,-1.49,-1.23,4.76,4.76,4.76
36.70,6.60,1.86,6.61,1.87,-1.87,-1.53,-1.25,4.73,4.74,4.74
37.06,6.63,1.91,6.63,1.91,-1.91,-1.57,-1.27,4.72,4.72,4.72
37.43,6.65,1.95,6.65,1.95,-1.95,-1.61,-1.30,4.70,4.70,4.70
37.81,6.66,1.98,6.66,1.99,-1.98,-1.65,-1.32,4.68,4.68,4.68
38.19,6.68,2.03,6.68,2.02,-2.02,-1.70,-1.35,4.66,4.66,4.65
38.57,6.68,2.04,6.69,2.05,-2.05,-1.74,-1.38,4.63,4.63,4.64
38.95,6.70,2.09,6.70,2.09,-2.09,-1.79,-1.41,4.61,4.61,4.61
39.34,6.71,2.12,6.71,2.12,-2.12,-1.84,-1.44,4.59,4.59,4.59
39.74,6.72,2.15,6.72,2.15,-2.15,-1.88,-1.47,4.57,4.57,4.57
40.14,6.74,2.18,6.74,2.18,-2.19,-1.93,-1.50,4.55,4.55,4.56
40.54,6.75,2.21,6.75,2.22,-2.22,-1.99,-1.53,4.53,4.53,4.54
40.94,6.77,2.25,6.77,2.25,-2.25,-2.04,-1.57,4.52,4.52,4.52
41.35,6.79,2.30,6.79,2.29,-2.29,-2.09,-1.60,4.50,4.50,4.49
41.76,6.81,2.32,6.81,2.33,-2.32,-2.15,-1.64,4.49,4.49,4.49
42.18,6.83,2.36,6.83,2.36,-2.36,-2.20,-1.68,4.47,4.47,4.47
42.60,6.84,2.39,6.84,2.39,-2.40,-2.26,-1.72,4.45,4.45,4.45
43.03,6.86,2.42,6.86,2.43,-2.43,-2.31,-1.76,4.43,4.43,4.44
43.46,6.88,2.47,6.88,2.47,-2.47,-2.37,-1.80,4.41,4.41,4.41
43.90,6.90,2.51,6.90,2.51,-2.51,-2.43,-1.85,4.39,4.39,4.39
44.33,6.92,2.55,6.92,2.55,-2.55,-2.49,-1.89,4.37,4.37,4.37
44.78,6.93,2.58,6.94,2.59,-2.59,-2.55,-1.94,4.34,4.35,4.35
45.23,6.96,2.64,6.95,2.63,-2.63,-2.61,-1.99,4.33,4.32,4.32
45.68,6.97,2.67,6.98,2.67,-2.67,-2.67,-2.04,4.30,4.31,4.30
46.13,7.00,2.71,7.00,2.71,-2.71,-2.73,-2.09,4.29,4.29,4.29
46.60,7.03,2.75,7.03,2.75,-2.75,-2.78,-2.14,4.28,4.27,4.28
47.06,7.05,2.79,7.05,2.79,-2.79,-2.84,-2.19,4.26,4.26,4.26
47.53,7.07,2.83,7.08,2.83,-2.84,-2.90,-2.25,4.23,4.24,4.24
48.01,7.10,2.87,7.10,2.88,-2.88,-2.95,-2.31,4.22,4.22,4.23
48.49,7.12,2.92,7.12,2.92,-2.93,-3.01,-2.36,4.19,4.19,4.20
48.97,7.14,2.97,7.14,2.97,-2.97,-3.06,-2.42,4.17,4.17,4.17
49.46,7.16,3.02,7.16,3.02,-3.01,-3.11,-2.48,4.15,4.14,4.14
49.96,7.17,3.06,7.18,3.06,-3.06,-3.15,-2.54,4.11,4.12,4.11
50.46,7.20,3.10,7.20,3.10,-3.10,-3.20,-2.60,4.10,4.10,4.10
50.96,7.21,3.13,7.21,3.14,-3.13,-3.24,-2.66,4.08,4.08,4.08
51.47,7.22,3.17,7.22,3.17,-3.17,-3.28,-2.72,4.05,4.05,4.05
51.99,7.23,3.20,7.23,3.20,-3.20,-3.31,-2.79,4.03,4.03,4.03
52.51,7.24,3.23,7.24,3.23,-3.23,-3.34,-2.85,4.01,4.00,4.01
53.03,7.24,3.25,7.25,3.26,-3.26,-3.37,-2.91,3.98,3.98,3.99
53.56,7.25,3.29,7.25,3.29,-3.29,-3.40,-2.97,3.96,3.96,3.96
54.10,7.26,3.32,7.25,3.32,-3.32,-3.42,-3.03,3.94,3.94,3.94
54.64,7.25,3.34,7.26,3.35,-3.34,-3.43,-3.09,3.91,3.91,3.91
55.18,7.25,3.36,7.25,3.37,-3.37,-3.45,-3.15,3.88,3.89,3.89
55.74,7.25,3.39,7.25,3.39,-3.39,-3.46,-3.20,3.86,3.86,3.86
56.29,7.24,3.40,7.24,3.41,-3.41,-3.46,-3.26,3.84,3.84,3.84
56.86,7.23,3.42,7.23,3.42,-3.42,-3.47,-3.31,3.81,3.81,3.81
57.42,7.22,3.43,7.22,3.43,-3.43,-3.47,-3.36,3.79,3.79,3.79
58.00,7.21,3.44,7.21,3.44,-3.44,-3.47,-3.41,3.77,3.77,3.77
58.58,7.19,3.45,7.19,3.45,-3.44,-3.46,-3.45,3.75,3.75,3.74
59.16,7.17,3.45,7.17,3.45,-3.45,-3.46,-3.49,3.72,3.72,3.72
59.76,7.14,3.44,7.14,3.45,-3.45,-3.45,-3.53,3.69,3.69,3.70
60.35,7.12,3.45,7.12,3.45,-3.46,-3.44,-3.57,3.66,3.66,3.67
60.96,7.09,3.44,7.09,3.45,-3.46,-3.43,-3.60,3.63,3.63,3.65
61.57,7.07,3.46,7.07,3.46,-3.46,-3.42,-3.62,3.61,3.61,3.61
62.18,7.04,3.46,7.04,3.46,-3.46,-3.40,-3.65,3.58,3.58,3.58
62.80,7.01,3.46,7.01,3.47,-3.46,-3.39,-3.67,3.56,3.56,3.55
63.43,6.98,3.46,6.98,3.46,-3.45,-3.38,-3.68,3.53,3.53,3.52
64.07,6.94,3.45,6.94,3.45,-3.44,-3.37,-3.69,3.50,3.50,3.49
64.71,6.90,3.43,6.90,3.43,-3.43,-3.35,-3.70,3.47,3.47,3.47
65.35,6.86,3.41,6.86,3.41,-3.42,-3.34,-3.71,3.44,3.44,3.45
66.01,6.82,3.39,6.83,3.40,-3.41,-3.33,-3.71,3.41,3.42,3.43
66.67,6.79,3.39,6.79,3.39,-3.39,-3.32,-3.70,3.40,3.40,3.40
67.33,6.76,3.38,6.75,3.38,-3.38,-3.31,-3.70,3.39,3.38,3.38
68.01,6.71,3.36,6.71,3.36,-3.36,-3.30,-3.69,3.35,3.35,3.35
68.69,6.67,3.34,6.67,3.35,-3.35,-3.29,-3.68,3.33,3.33,3.33
69.37,6.63,3.33,6.63,3.33,-3.33,-3.29,-3.67,3.30,3.30,3.30
70.07,6.59,3.32,6.59,3.32,-3.32,-3.28,-3.66,3.27,3.27,3.27
70.77,6.55,3.30,6.55,3.30,-3.30,-3.28,-3.64,3.25,3.24,3.25
71.48,6.51,3.29,6.51,3.29,-3.29,-3.27,-3.63,3.22,3.22,3.22
72.19,6.46,3.27,6.47,3.28,-3.28,-3.27,-3.61,3.18,3.18,3.19
72.91,6.43,3.28,6.42,3.27,-3.27,-3.27,-3.59,3.16,3.15,3.15
73.64,6.38,3.26,6.38,3.27,-3.27,-3.27,-3.58,3.11,3.12,3.12
74.38,6.34,3.25,6.35,3.26,-3.26,-3.27,-3.56,3.08,3.08,3.09
75.12,6.31,3.27,6.31,3.26,-3.26,-3.27,-3.54,3.05,3.05,3.04
75.87,6.27,3.26,6.27,3.26,-3.26,-3.28,-3.53,3.01,3.01,3.01
76.63,6.23,3.25,6.23,3.26,-3.26,-3.28,-3.51,2.97,2.97,2.98
77.40,6.19,3.25,6.19,3.26,-3.26,-3.29,-3.50,2.93,2.93,2.94
78.17,6.15,3.27,6.15,3.26,-3.26,-3.30,-3.49,2.89,2.89,2.88
78.95,6.12,3.26,6.12,3.26,-3.26,-3.31,-3.48,2.86,2.85,2.86
79.74,6.08,3.26,6.08,3.27,-3.27,-3.32,-3.47,2.81,2.81,2.82
80.54,6.04,3.27,6.05,3.27,-3.28,-3.33,-3.46,2.76,2.77,2.77
81.35,6.01,3.28,6.01,3.28,-3.29,-3.34,-3.46,2.73,2.72,2.73
82.16,5.98,3.30,5.98,3.30,-3.30,-3.35,-3.46,2.69,2.68,2.68
82.98,5.94,3.30,5.94,3.31,-3.31,-3.37,-3.46,2.63,2.64,2.64
83.81,5.91,3.33,5.91,3.32,-3.32,-3.38,-3.46,2.59,2.59,2.58
84.65,5.87,3.33,5.87,3.33,-3.33,-3.40,-3.47,2.54,2.54,2.54
85.50,5.84,3.34,5.84,3.35,-3.35,-3.42,-3.47,2.49,2.49,2.50
86.35,5.81,3.36,5.81,3.36,-3.36,-3.43,-3.49,2.45,2.44,2.45
87.22,5.77,3.37,5.77,3.38,-3.38,-3.45,-3.50,2.39,2.39,2.40
88.09,5.74,3.40,5.74,3.40,-3.40,-3.47,-3.51,2.34,2.35,2.34
88.97,5.71,3.41,5.71,3.42,-3.41,-3.49,-3.53,2.30,2.30,2.30
89.86,5.68,3.43,5.68,3.44,-3.43,-3.51,-3.55,2.25,2.25,2.25
90.76,5.65,3.46,5.65,3.46,-3.45,-3.54,-3.58,2.20,2.19,2.19
91.66,5.61,3.47,5.61,3.48,-3.47,-3.56,-3.60,2.14,2.14,2.14
92.58,5.58,3.50,5.58,3.50,-3.50,-3.58,-3.63,2.08,2.08,2.08
93.51,5.55,3.51,5.55,3.52,-3.52,-3.60,-3.67,2.03,2.03,2.04
94.44,5.53,3.54,5.53,3.54,-3.55,-3.63,-3.70,1.99,1.98,1.99
95.39,5.50,3.57,5.50,3.57,-3.57,-3.65,-3.74,1.93,1.92,1.93
96.34,5.46,3.60,5.47,3.60,-3.60,-3.68,-3.78,1.86,1.87,1.86
97.30,5.43,3.62,5.43,3.63,-3.63,-3.70,-3.82,1.80,1.81,1.81
98.28,5.41,3.66,5.41,3.66,-3.66,-3.73,-3.86,1.75,1.75,1.75
99.26,5.38,3.70,5.38,3.69,-3.69,-3.76,-3.91,1.69,1.69,1.68
100.25,5.35,3.72,5.35,3.73,-3.73,-3.78,-3.95,1.63,1.63,1.63
101.25,5.32,3.75,5.32,3.76,-3.76,-3.81,-4.00,1.56,1.56,1.57
102.27,5.29,3.79,5.29,3.79,-3.79,-3.83,-4.05,1.50,1.50,1.50
103.29,5.26,3.83,5.27,3.83,-3.83,-3.86,-4.10,1.43,1.44,1.43
104.32,5.24,3.86,5.24,3.86,-3.86,-3.89,-4.16,1.38,1.38,1.38
105.37,5.21,3.89,5.21,3.89,-3.90,-3.92,-4.21,1.32,1.31,1.32
106.42,5.17,3.92,5.18,3.93,-3.93,-3.94,-4.26,1.24,1.25,1.25
107.48,5.15,3.97,5.15,3.97,-3.97,-3.97,-4.31,1.18,1.18,1.18
108.56,5.12,4.01,5.12,4.01,-4.00,-4.00,-4.36,1.12,1.12,1.11
109.64,5.09,4.04,5.09,4.04,-4.04,-4.03,-4.42,1.05,1.05,1.05
110.74,5.06,4.07,5.06,4.08,-4.08,-4.05,-4.46,0.98,0.98,0.99
111.85,5.03,4.11,5.03,4.11,-4.12,-4.08,-4.51,0.91,0.91,0.92
112.97,5.00,4.16,5.00,4.16,-4.16,-4.11,-4.56,0.84,0.84,0.84
114.10,4.97,4.19,4.97,4.20,-4.20,-4.13,-4.60,0.77,0.78,0.78
115.24,4.95,4.24,4.94,4.24,-4.23,-4.16,-4.64,0.72,0.71,0.71
116.39,4.91,4.27,4.91,4.28,-4.27,-4.19,-4.68,0.64,0.64,0.64
117.55,4.88,4.31,4.88,4.31,-4.31,-4.21,-4.71,0.57,0.58,0.57
118.73,4.85,4.34,4.85,4.34,-4.34,-4.24,-4.74,0.51,0.51,0.51
119.92,4.81,4.36,4.81,4.37,-4.37,-4.26,-4.76,0.44,0.45,0.45
121.12,4.78,4.39,4.78,4.40,-4.40,-4.29,-4.78,0.38,0.38,0.39
122.33,4.75,4.43,4.75,4.43,-4.42,-4.31,-4.80,0.33,0.33,0.32
123.55,4.72,4.45,4.72,4.45,-4.45,-4.33,-4.81,0.27,0.27,0.27
124.79,4.68,4.47,4.69,4.47,-4.48,-4.36,-4.82,0.21,0.21,0.21
126.03,4.65,4.49,4.65,4.50,-4.50,-4.38,-4.82,0.15,0.15,0.16
127.29,4.62,4.52,4.62,4.52,-4.53,-4.40,-4.81,0.10,0.09,0.10
128.57,4.58,4.55,4.58,4.55,-4.55,-4.42,-4.80,0.03,0.04,0.03
129.85,4.55,4.57,4.55,4.57,-4.57,-4.44,-4.79,-0.02,-0.02,-0.02
131.15,4.51,4.58,4.51,4.59,-4.59,-4.46,-4.77,-0.08,-0.07,-0.07
132.46,4.48,4.61,4.48,4.61,-4.61,-4.48,-4.74,-0.12,-0.12,-0.13
133.79,4.45,4.62,4.45,4.62,-4.62,-4.50,-4.71,-0.17,-0.17,-0.17
135.12,4.41,4.64,4.41,4.63,-4.63,-4.52,-4.68,-0.22,-0.22,-0.23
136.48,4.37,4.63,4.37,4.64,-4.64,-4.53,-4.65,-0.27,-0.27,-0.26
137.84,4.33,4.63,4.33,4.64,-4.64,-4.55,-4.61,-0.31,-0.31,-0.30
139.22,4.30,4.65,4.30,4.65,-4.65,-4.57,-4.57,-0.35,-0.35,-0.35
140.61,4.26,4.65,4.26,4.65,-4.65,-4.58,-4.52,-0.39,-0.38,-0.39
142.02,4.23,4.64,4.23,4.64,-4.65,-4.59,-4.48,-0.41,-0.42,-0.41
143.44,4.19,4.63,4.19,4.64,-4.64,-4.60,-4.43,-0.45,-0.45,-0.44
144.87,4.16,4.64,4.16,4.64,-4.64,-4.61,-4.38,-0.48,-0.48,-0.48
146.32,4.13,4.64,4.13,4.64,-4.63,-4.62,-4.34,-0.50,-0.51,-0.51
147.78,4.09,4.62,4.09,4.63,-4.63,-4.63,-4.29,-0.54,-0.53,-0.53
149.26,4.06,4.62,4.06,4.62,-4.62,-4.64,-4.24,-0.56,-0.56,-0.56
150.75,4.01,4.61,4.02,4.61,-4.61,-4.65,-4.19,-0.60,-0.59,-0.60
152.26,3.98,4.60,3.98,4.60,-4.60,-4.65,-4.14,-0.62,-0.62,-0.62
153.78,3.94,4.59,3.94,4.59,-4.59,-4.66,-4.10,-0.65,-0.65,-0.65
155.32,3.90,4.57,3.90,4.57,-4.58,-4.66,-4.05,-0.68,-0.68,-0.67
156.88,3.86,4.56,3.86,4.56,-4.57,-4.66,-4.01,-0.71,-0.71,-0.70
158.44,3.82,4.55,3.82,4.55,-4.56,-4.66,-3.97,-0.74,-0.73,-0.73
160.03,3.79,4.55,3.78,4.55,-4.55,-4.66,-3.93,-0.76,-0.76,-0.76
161.63,3.74,4.53,3.75,4.54,-4.53,-4.66,-3.89,-0.79,-0.79,-0.79
163.24,3.71,4.53,3.71,4.53,-4.52,-4.66,-3.86,-0.81,-0.81,-0.82
164.88,3.67,4.51,3.67,4.51,-4.51,-4.65,-3.82,-0.84,-0.84,-0.84
166.53,3.63,4.49,3.63,4.50,-4.50,-4.65,-3.79,-0.87,-0.87,-0.86
168.19,3.59,4.49,3.59,4.49,-4.49,-4.64,-3.76,-0.90,-0.90,-0.90
169.87,3.54,4.47,3.54,4.47,-4.47,-4.63,-3.74,-0.93,-0.93,-0.93
171.57,3.50,4.46,3.50,4.46,-4.46,-4.62,-3.72,-0.96,-0.96,-0.96
173.29,3.46,4.44,3.46,4.45,-4.45,-4.61,-3.70,-0.99,-0.99,-0.98
175.02,3.42,4.44,3.42,4.44,-4.45,-4.60,-3.68,-1.02,-1.02,-1.02
176.77,3.38,4.44,3.38,4.44,-4.44,-4.59,-3.67,-1.06,-1.06,-1.06
178.54,3.34,4.44,3.34,4.44,-4.43,-4.58,-3.66,-1.09,-1.09,-1.10
180.32,3.30,4.43,3.30,4.43,-4.43,-4.56,-3.65,-1.13,-1.13,-1.13
182.13,3.25,4.41,3.25,4.42,-4.42,-4.54,-3.64,-1.17,-1.17,-1.16
183.95,3.21,4.41,3.21,4.41,-4.42,-4.53,-3.64,-1.21,-1.21,-1.20
185.79,3.17,4.41,3.17,4.41,-4.41,-4.51,-3.64,-1.24,-1.24,-1.24
187.65,3.13,4.41,3.13,4.41,-4.40,-4.49,-3.64,-1.27,-1.27,-1.28
189.52,3.09,4.40,3.10,4.40,-4.40,-4.47,-3.65,-1.31,-1.30,-1.31
191.42,3.06,4.39,3.06,4.39,-4.39,-4.44,-3.66,-1.33,-1.33,-1.33
193.33,3.02,4.37,3.02,4.37,-4.38,-4.42,-3.67,-1.36,-1.36,-1.35
195.27,2.97,4.35,2.98,4.36,-4.37,-4.40,-3.68,-1.39,-1.39,-1.38
197.22,2.93,4.34,2.93,4.35,-4.35,-4.37,-3.69,-1.42,-1.42,-1.41
199.19,2.89,4.35,2.89,4.34,-4.33,-4.35,-3.71,-1.44,-1.44,-1.46
201.18,2.85,4.32,2.85,4.32,-4.32,-4.32,-3.73,-1.46,-1.47,-1.47
203.19,2.80,4.29,2.81,4.30,-4.30,-4.29,-3.75,-1.50,-1.49,-1.49
205.23,2.76,4.27,2.76,4.27,-4.27,-4.26,-3.77,-1.51,-1.51,-1.51
207.28,2.72,4.24,2.72,4.25,-4.25,-4.23,-3.79,-1.53,-1.53,-1.52
209.35,2.67,4.22,2.67,4.23,-4.22,-4.20,-3.81,-1.55,-1.55,-1.55
211.44,2.63,4.20,2.63,4.20,-4.19,-4.17,-3.84,-1.56,-1.56,-1.57
213.56,2.58,4.17,2.58,4.16,-4.16,-4.14,-3.86,-1.58,-1.58,-1.59
215.69,2.53,4.12,2.53,4.13,-4.13,-4.10,-3.88,-1.60,-1.60,-1.59
217.85,2.48,4.08,2.48,4.10,-4.10,-4.07,-3.90,-1.62,-1.62,-1.60
220.03,2.44,4.07,2.44,4.06,-4.07,-4.03,-3.93,-1.63,-1.63,-1.63
222.23,2.40,4.04,2.40,4.03,-4.03,-4.00,-3.95,-1.63,-1.63,-1.64
224.45,2.36,3.99,2.36,4.00,-4.00,-3.96,-3.97,-1.63,-1.63,-1.63
226.70,2.32,3.96,2.32,3.96,-3.96,-3.92,-3.98,-1.64,-1.64,-1.64
228.96,2.29,3.93,2.29,3.92,-3.93,-3.89,-4.00,-1.64,-1.64,-1.64
231.25,2.25,3.88,2.25,3.88,-3.89,-3.85,-4.01,-1.64,-1.64,-1.63
233.57,2.22,3.84,2.22,3.85,-3.85,-3.81,-4.02,-1.63,-1.63,-1.62
235.90,2.19,3.81,2.19,3.81,-3.82,-3.77,-4.03,-1.63,-1.62,-1.62
238.26,2.17,3.79,2.17,3.78,-3.78,-3.73,-4.03,-1.61,-1.61,-1.62
240.64,2.14,3.74,2.14,3.74,-3.74,-3.69,-4.03,-1.60,-1.60,-1.60
243.05,2.12,3.70,2.11,3.70,-3.70,-3.65,-4.02,-1.58,-1.58,-1.58
245.48,2.08,3.64,2.09,3.65,-3.65,-3.61,-4.01,-1.57,-1.57,-1.56
247.93,2.06,3.61,2.06,3.61,-3.61,-3.57,-4.00,-1.55,-1.55,-1.55
250.41,2.04,3.58,2.03,3.57,-3.56,-3.52,-3.98,-1.52,-1.53,-1.54
252.92,2.01,3.51,2.01,3.52,-3.52,-3.48,-3.96,-1.51,-1.51,-1.50
255.45,1.97,3.45,1.98,3.46,-3.47,-3.44,-3.93,-1.50,-1.49,-1.48
258.00,1.95,3.41,1.95,3.41,-3.42,-3.39,-3.90,-1.47,-1.47,-1.46
260.58,1.93,3.37,1.92,3.37,-3.37,-3.35,-3.86,-1.43,-1.44,-1.44
263.19,1.89,3.31,1.90,3.32,-3.31,-3.31,-3.82,-1.42,-1.41,-1.42
265.82,1.87,3.27,1.87,3.27,-3.26,-3.26,-3.78,-1.39,-1.39,-1.40
268.48,1.84,3.21,1.84,3.21,-3.21,-3.22,-3.73,-1.37,-1.37,-1.37
271.16,1.81,3.15,1.81,3.16,-3.16,-3.17,-3.68,-1.35,-1.35,-1.34
273.87,1.78,3.10,1.79,3.10,-3.11,-3.13,-3.62,-1.33,-1.32,-1.32
276.61,1.76,3.05,1.76,3.06,-3.06,-3.09,-3.57,-1.30,-1.30,-1.29
279.38,1.75,3.02,1.74,3.01,-3.02,-3.04,-3.51,-1.27,-1.27,-1.27
282.17,1.72,2.97,1.73,2.98,-2.98,-3.00,-3.44,-1.25,-1.25,-1.25
284.99,1.71,2.93,1.71,2.93,-2.94,-2.95,-3.38,-1.23,-1.23,-1.22
287.84,1.70,2.90,1.70,2.90,-2.90,-2.91,-3.31,-1.20,-1.20,-1.20
290.72,1.69,2.85,1.69,2.86,-2.86,-2.86,-3.25,-1.17,-1.17,-1.16
293.63,1.69,2.83,1.69,2.83,-2.83,-2.82,-3.18,-1.13,-1.14,-1.14
296.57,1.68,2.79,1.68,2.79,-2.79,-2.77,-3.11,-1.11,-1.11,-1.11
299.53,1.67,2.75,1.67,2.75,-2.75,-2.72,-3.04,-1.07,-1.08,-1.08
302.53,1.65,2.71,1.65,2.71,-2.70,-2.68,-2.97,-1.05,-1.05,-1.06
305.55,1.64,2.65,1.64,2.66,-2.66,-2.63,-2.90,-1.02,-1.02,-1.01
308.61,1.63,2.61,1.63,2.61,-2.61,-2.59,-2.83,-0.98,-0.98,-0.98
311.69,1.62,2.56,1.62,2.56,-2.57,-2.54,-2.76,-0.94,-0.95,-0.94
314.81,1.60,2.51,1.60,2.51,-2.52,-2.50,-2.70,-0.91,-0.91,-0.91
317.96,1.58,2.46,1.58,2.47,-2.47,-2.45,-2.63,-0.88,-0.88,-0.88
321.14,1.57,2.42,1.56,2.42,-2.42,-2.41,-2.56,-0.84,-0.85,-0.85
324.35,1.54,2.37,1.54,2.37,-2.37,-2.36,-2.50,-0.83,-0.82,-0.83
327.59,1.52,2.31,1.52,2.32,-2.32,-2.32,-2.43,-0.80,-0.79,-0.79
330.87,1.50,2.26,1.50,2.26,-2.27,-2.27,-2.37,-0.77,-0.77,-0.76
334.18,1.47,2.21,1.47,2.21,-2.22,-2.23,-2.31,-0.75,-0.74,-0.74
337.52,1.45,2.17,1.45,2.17,-2.17,-2.19,-2.25,-0.72,-0.72,-0.72
340.90,1.42,2.11,1.42,2.12,-2.12,-2.14,-2.19,-0.70,-0.69,-0.69
344.30,1.40,2.07,1.40,2.07,-2.07,-2.10,-2.14,-0.67,-0.67,-0.67
347.75,1.37,2.01,1.37,2.02,-2.02,-2.05,-2.08,-0.65,-0.64,-0.64
351.23,1.35,1.97,1.35,1.97,-1.97,-2.01,-2.03,-0.62,-0.62,-0.62
354.74,1.31,1.92,1.31,1.92,-1.92,-1.97,-1.98,-0.61,-0.61,-0.61
358.28,1.28,1.87,1.28,1.87,-1.87,-1.92,-1.92,-0.59,-0.59,-0.59
361.87,1.25,1.82,1.25,1.82,-1.83,-1.88,-1.88,-0.58,-0.57,-0.57
365.49,1.23,1.77,1.23,1.78,-1.78,-1.84,-1.83,-0.55,-0.55,-0.54
369.14,1.20,1.73,1.20,1.74,-1.74,-1.79,-1.78,-0.54,-0.53,-0.53
372.83,1.18,1.70,1.18,1.70,-1.69,-1.75,-1.74,-0.51,-0.51,-0.52
376.56,1.16,1.66,1.16,1.66,-1.65,-1.71,-1.69,-0.49,-0.49,-0.50
380.33,1.13,1.60,1.14,1.61,-1.61,-1.67,-1.65,-0.48,-0.47,-0.47
384.13,1.12,1.57,1.12,1.57,-1.57,-1.62,-1.61,-0.45,-0.45,-0.45
387.97,1.09,1.52,1.09,1.52,-1.53,-1.58,-1.57,-0.44,-0.44,-0.43
391.85,1.08,1.49,1.08,1.49,-1.49,-1.54,-1.53,-0.41,-0.41,-0.41
395.77,1.06,1.44,1.07,1.45,-1.45,-1.50,-1.50,-0.39,-0.39,-0.38
399.73,1.06,1.42,1.05,1.42,-1.42,-1.46,-1.46,-0.36,-0.36,-0.36
403.72,1.04,1.39,1.04,1.39,-1.38,-1.42,-1.43,-0.34,-0.35,-0.35
407.76,1.02,1.35,1.03,1.35,-1.35,-1.38,-1.39,-0.33,-0.33,-0.33
411.84,1.01,1.31,1.01,1.32,-1.32,-1.34,-1.36,-0.31,-0.31,-0.30
415.96,1.01,1.29,1.01,1.29,-1.29,-1.30,-1.33,-0.28,-0.28,-0.28
420.12,1.00,1.26,1.00,1.26,-1.26,-1.26,-1.30,-0.26,-0.26,-0.26
424.32,1.00,1.23,1.00,1.23,-1.23,-1.22,-1.27,-0.23,-0.24,-0.23
428.56,0.99,1.20,0.99,1.21,-1.21,-1.18,-1.24,-0.22,-0.21,-0.21
432.85,0.99,1.18,0.99,1.18,-1.18,-1.14,-1.21,-0.19,-0.19,-0.19
437.18,0.99,1.15,0.99,1.15,-1.15,-1.10,-1.18,-0.16,-0.16,-0.16
441.55,0.99,1.12,0.99,1.13,-1.13,-1.06,-1.15,-0.14,-0.13,-0.13
445.96,0.99,1.10,0.99,1.10,-1.10,-1.02,-1.12,-0.11,-0.11,-0.11
450.42,0.98,1.08,0.98,1.07,-1.06,-0.98,-1.09,-0.08,-0.09,-0.10
454.93,0.96,1.02,0.97,1.04,-1.03,-0.95,-1.07,-0.07,-0.06,-0.06
459.48,0.96,1.00,0.96,1.00,-1.00,-0.91,-1.04,-0.03,-0.04,-0.04
464.07,0.95,0.96,0.95,0.96,-0.96,-0.87,-1.01,-0.01,-0.01,-0.01
468.71,0.94,0.91,0.94,0.92,-0.92,-0.83,-0.98,0.02,0.02,0.03
473.40,0.93,0.88,0.93,0.88,-0.89,-0.80,-0.96,0.04,0.05,0.05
478.13,0.93,0.85,0.93,0.85,-0.85,-0.76,-0.93,0.08,0.08,0.08
482.91,0.92,0.81,0.92,0.81,-0.82,-0.72,-0.90,0.10,0.11,0.11
487.74,0.92,0.78,0.92,0.79,-0.78,-0.69,-0.87,0.14,0.14,0.14
492.62,0.92,0.75,0.92,0.75,-0.75,-0.65,-0.84,0.17,0.17,0.17
497.55,0.92,0.73,0.92,0.72,-0.72,-0.61,-0.81,0.20,0.20,0.19
502.52,0.91,0.68,0.91,0.69,-0.69,-0.58,-0.78,0.22,0.22,0.23
507.55,0.91,0.66,0.91,0.66,-0.66,-0.54,-0.75,0.25,0.25,0.25
512.62,0.91,0.63,0.91,0.63,-0.64,-0.51,-0.72,0.27,0.28,0.28
