frequency,raw,error,smoothed,error_smoothed,equalization,parametric_eq,fixed_band_eq,equalized_raw,equalized_smoothed,target
20.00,7.51,-4.89,7.51,-4.89,4.90,4.80,1.44,12.40,12.40,12.40
20.20,7.57,-4.82,7.57,-4.82,4.82,4.75,1.49,12.39,12.39,12.39
20.40,7.63,-4.75,7.63,-4.75,4.75,4.70,1.53,12.38,12.38,12.38
20.61,7.69,-4.69,7.69,-4.68,4.68,4.66,1.58,12.37,12.37,12.38
20.81,7.75,-4.61,7.75,-4.61,4.62,4.61,1.63,12.36,12.37,12.36
21.02,7.81,-4.55,7.81,-4.55,4.56,4.56,1.68,12.37,12.36,12.36
21.23,7.86,-4.49,7.86,-4.50,4.50,4.51,1.73,12.36,12.36,12.35
21.44,7.90,-4.46,7.90,-4.45,4.45,4.46,1.78,12.35,12.35,12.36
21.66,7.94,-4.41,7.95,-4.40,4.41,4.41,1.83,12.35,12.35,12.35
21.87,7.99,-4.35,7.98,-4.36,4.37,4.37,1.89,12.36,12.36,12.34
22.09,8.02,-4.31,8.01,-4.32,4.34,4.32,1.95,12.36,12.35,12.33
22.31,8.03,-4.30,8.03,-4.29,4.30,4.27,2.01,12.33,12.34,12.33
22.54,8.05,-4.27,8.04,-4.28,4.27,4.22,2.07,12.31,12.31,12.32
22.76,8.06,-4.25,8.06,-4.25,4.22,4.17,2.13,12.28,12.28,12.31
22.99,8.08,-4.22,8.10,-4.20,4.17,4.12,2.19,12.25,12.27,12.30
23.22,8.16,-4.13,8.15,-4.14,4.12,4.07,2.26,12.27,12.27,12.29
23.45,8.24,-4.06,8.23,-4.06,4.06,4.02,2.33,12.30,12.29,12.30
23.69,8.31,-3.98,8.31,-3.98,4.00,3.97,2.39,12.31,12.31,12.29
23.92,8.39,-3.90,8.38,-3.91,3.94,3.92,2.46,12.33,12.32,12.29
24.16,8.44,-3.86,8.44,-3.86,3.88,3.87,2.53,12.32,12.32,12.30
24.40,8.48,-3.83,8.48,-3.82,3.83,3.82,2.60,12.31,12.31,12.31
24.65,8.52,-3.79,8.52,-3.79,3.79,3.77,2.68,12.31,12.31,12.31
24.89,8.55,-3.76,8.55,-3.76,3.76,3.72,2.75,12.31,12.31,12.31
25.14,8.58,-3.72,8.58,-3.72,3.74,3.67,2.82,12.32,12.31,12.30
25.39,8.60,-3.70,8.60,-3.70,3.72,3.62,2.89,12.32,12.31,12.30
25.65,8.62,-3.68,8.61,-3.69,3.70,3.57,2.97,12.31,12.31,12.30
25.91,8.63,-3.68,8.64,-3.67,3.67,3.52,3.04,12.30,12.31,12.31
26.16,8.67,-3.65,8.67,-3.64,3.63,3.47,3.11,12.30,12.31,12.32
26.43,8.73,-3.59,8.72,-3.60,3.58,3.42,3.18,12.31,12.30,12.32
26.69,8.78,-3.54,8.77,-3.54,3.52,3.37,3.25,12.30,12.29,12.32
26.96,8.83,-3.48,8.85,-3.46,3.44,3.32,3.32,12.26,12.28,12.31
27.23,8.95,-3.36,8.95,-3.37,3.34,3.27,3.39,12.29,12.28,12.31
27.50,9.07,-3.24,9.07,-3.25,3.23,3.21,3.45,12.30,12.30,12.31
27.77,9.20,-3.12,9.20,-3.12,3.12,3.16,3.51,12.32,12.32,12.32
28.05,9.32,-3.00,9.31,-3.00,3.02,3.11,3.57,12.34,12.32,12.32
28.33,9.40,-2.90,9.41,-2.90,2.93,3.06,3.63,12.33,12.34,12.30
28.62,9.49,-2.81,9.49,-2.81,2.86,3.01,3.68,12.34,12.35,12.30
28.90,9.57,-2.74,9.55,-2.76,2.80,2.96,3.72,12.37,12.35,12.31
29.19,9.58,-2.73,9.57,-2.73,2.76,2.91,3.76,12.34,12.34,12.31
29.48,9.56,-2.74,9.56,-2.74,2.74,2.86,3.79,12.30,12.30,12.30
29.78,9.54,-2.76,9.54,-2.76,2.73,2.81,3.82,12.27,12.27,12.30
30.08,9.53,-2.78,9.54,-2.76,2.72,2.75,3.84,12.25,12.26,12.31
30.38,9.56,-2.74,9.56,-2.74,2.72,2.70,3.86,12.28,12.28,12.30
30.68,9.59,-2.69,9.59,-2.70,2.71,2.65,3.86,12.30,12.30,12.28
30.99,9.62,-2.66,9.61,-2.66,2.69,2.60,3.86,12.31,12.30,12.28
31.30,9.63,-2.64,9.62,-2.65,2.66,2.55,3.86,12.29,12.28,12.27
31.61,9.63,-2.63,9.63,-2.63,2.61,2.50,3.84,12.24,12.24,12.26
31.93,9.64,-2.61,9.66,-2.60,2.55,2.45,3.82,12.19,12.21,12.25
32.24,9.71,-2.54,9.72,-2.52,2.49,2.40,3.79,12.20,12.21,12.25
32.57,9.81,-2.42,9.80,-2.43,2.43,2.35,3.76,12.24,12.23,12.23
32.89,9.90,-2.33,9.89,-2.34,2.37,2.29,3.72,12.27,12.26,12.23
33.22,9.95,-2.28,9.95,-2.28,2.32,2.24,3.67,12.27,12.28,12.23
33.55,9.99,-2.23,9.99,-2.23,2.28,2.19,3.62,12.27,12.27,12.22
33.89,10.02,-2.21,10.02,-2.21,2.23,2.14,3.55,12.25,12.25,12.23
34.23,10.03,-2.18,10.02,-2.20,2.19,2.09,3.49,12.22,12.21,12.21
34.57,10.02,-2.19,10.02,-2.20,2.15,2.04,3.42,12.17,12.17,12.21
34.92,10.01,-2.19,10.03,-2.17,2.13,1.99,3.35,12.13,12.16,12.20
35.27,10.07,-2.14,10.08,-2.12,2.10,1.94,3.27,12.17,12.19,12.21
35.62,10.16,-2.03,10.15,-2.04,2.07,1.89,3.19,12.23,12.22,12.19
35.97,10.24,-1.95,10.20,-1.98,2.03,1.84,3.10,12.27,12.24,12.19
36.33,10.22,-1.95,10.21,-1.96,1.98,1.79,3.01,12.20,12.19,12.17
36.70,10.19,-1.97,10.20,-1.96,1.93,1.74,2.92,12.12,12.13,12.16
37.06,10.19,-1.95,10.22,-1.92,1.87,1.69,2.83,12.06,12.09,12.14
37.43,10.28,-1.84,10.28,-1.84,1.81,1.64,2.74,12.09,12.09,12.12
37.81,10.38,-1.72,10.36,-1.74,1.75,1.59,2.65,12.13,12.11,12.10
38.19,10.43,-1.64,10.41,-1.66,1.68,1.54,2.55,12.11,12.10,12.07
38.57,10.44,-1.61,10.44,-1.60,1.60,1.49,2.46,12.04,12.05,12.05
38.95,10.45,-1.57,10.47,-1.55,1.53,1.44,2.36,11.98,12.00,12.02
39.34,10.51,-1.47,10.51,-1.47,1.46,1.39,2.26,11.97,11.98,11.98
39.74,10.58,-1.38,10.57,-1.39,1.42,1.34,2.17,11.99,11.99,11.96
40.14,10.63,-1.30,10.62,-1.31,1.38,1.29,2.07,12.01,12.00,11.93
40.54,10.63,-1.28,10.64,-1.27,1.33,1.24,1.98,11.96,11.97,11.91
40.94,10.63,-1.25,10.61,-1.27,1.28,1.19,1.88,11.90,11.88,11.88
41.35,10.58,-1.28,10.56,-1.29,1.21,1.14,1.79,11.79,11.77,11.86
41.76,10.52,-1.30,10.55,-1.27,1.14,1.09,1.70,11.66,11.70,11.82
42.18,10.58,-1.22,10.64,-1.16,1.09,1.04,1.61,11.67,11.73,11.80
42.60,10.78,-1.00,10.77,-1.00,1.04,0.99,1.51,11.82,11.81,11.78
43.03,10.97,-0.78,10.88,-0.87,0.99,0.94,1.42,11.96,11.87,11.75
43.46,10.91,-0.81,10.92,-0.80,0.94,0.89,1.34,11.85,11.86,11.72
43.90,10.84,-0.86,10.86,-0.83,0.89,0.85,1.25,11.73,11.75,11.70
44.33,10.79,-0.87,10.77,-0.89,0.84,0.80,1.16,11.63,11.61,11.66
44.78,10.73,-0.90,10.75,-0.89,0.79,0.75,1.07,11.52,11.54,11.63
45.23,10.75,-0.87,10.78,-0.83,0.75,0.70,0.99,11.50,11.53,11.62
45.68,10.86,-0.71,10.84,-0.74,0.70,0.65,0.90,11.56,11.54,11.57
46.13,10.93,-0.60,10.89,-0.64,0.64,0.60,0.82,11.57,11.53,11.53
46.60,10.93,-0.57,10.93,-0.56,0.58,0.55,0.74,11.51,11.51,11.50
47.06,10.94,-0.52,11.00,-0.46,0.50,0.50,0.66,11.44,11.51,11.46
47.53,11.06,-0.37,11.06,-0.36,0.43,0.45,0.58,11.48,11.49,11.43
48.01,11.17,-0.20,11.06,-0.31,0.35,0.41,0.50,11.52,11.42,11.37
48.49,11.03,-0.29,11.03,-0.30,0.28,0.36,0.42,11.31,11.32,11.32
48.97,10.90,-0.38,11.00,-0.28,0.22,0.31,0.34,11.12,11.22,11.28
49.46,11.00,-0.24,11.00,-0.23,0.16,0.26,0.27,11.16,11.16,11.24
49.96,11.12,-0.05,11.06,-0.12,0.10,0.21,0.19,11.22,11.16,11.17
50.46,11.13,-0.00,11.13,-0.00,0.05,0.16,0.11,11.17,11.17,11.13
50.96,11.13,0.04,11.14,0.05,-0.00,0.11,0.04,11.13,11.14,11.09
51.47,11.13,0.08,11.13,0.08,-0.05,0.06,-0.03,11.08,11.08,11.05
51.99,11.13,0.13,11.14,0.13,-0.10,0.01,-0.10,11.02,11.03,11.00
52.51,11.13,0.17,11.13,0.16,-0.16,-0.04,-0.18,10.97,10.97,10.96
53.03,11.13,0.20,11.09,0.17,-0.20,-0.09,-0.25,10.92,10.89,10.93
53.56,11.06,0.19,11.07,0.20,-0.25,-0.14,-0.32,10.81,10.82,10.87
54.10,11.03,0.21,11.09,0.26,-0.30,-0.19,-0.38,10.73,10.78,10.82
54.64,11.15,0.37,11.13,0.36,-0.37,-0.24,-0.45,10.78,10.76,10.78
55.18,11.23,0.51,11.19,0.47,-0.45,-0.29,-0.52,10.78,10.75,10.72
55.74,11.23,0.56,11.23,0.55,-0.53,-0.34,-0.58,10.70,10.70,10.67
56.29,11.23,0.59,11.23,0.60,-0.61,-0.39,-0.65,10.62,10.62,10.64
56.86,11.23,0.63,11.27,0.68,-0.69,-0.44,-0.71,10.54,10.58,10.60
57.42,11.32,0.78,11.33,0.78,-0.76,-0.49,-0.77,10.56,10.57,10.54
58.00,11.45,0.94,11.38,0.86,-0.82,-0.54,-0.83,10.63,10.56,10.51
58.58,11.38,0.90,11.39,0.91,-0.87,-0.59,-0.89,10.51,10.52,10.48
59.16,11.33,0.89,11.36,0.92,-0.92,-0.64,-0.94,10.41,10.44,10.44
59.76,11.33,0.93,11.32,0.93,-0.97,-0.69,-1.00,10.36,10.35,10.40
60.35,11.33,1.00,11.32,0.99,-1.02,-0.75,-1.05,10.30,10.30,10.33
60.96,11.33,1.05,11.33,1.05,-1.07,-0.80,-1.11,10.25,10.25,10.28
61.57,11.33,1.12,11.33,1.12,-1.12,-0.85,-1.16,10.21,10.21,10.21
62.18,11.33,1.19,11.33,1.18,-1.17,-0.90,-1.21,10.16,10.16,10.14
62.80,11.33,1.25,11.33,1.25,-1.22,-0.96,-1.25,10.11,10.11,10.08
63.43,11.33,1.31,11.33,1.31,-1.28,-1.01,-1.30,10.05,10.05,10.02
64.07,11.33,1.36,11.33,1.37,-1.34,-1.06,-1.35,9.99,9.99,9.97
64.71,11.33,1.42,11.30,1.39,-1.40,-1.12,-1.39,9.92,9.89,9.91
65.35,11.29,1.44,11.28,1.42,-1.47,-1.17,-1.43,9.82,9.81,9.85
66.01,11.21,1.42,11.29,1.50,-1.54,-1.23,-1.48,9.67,9.75,9.79
66.67,11.36,1.61,11.33,1.59,-1.62,-1.28,-1.52,9.74,9.71,9.75
67.33,11.43,1.76,11.39,1.71,-1.70,-1.34,-1.56,9.72,9.69,9.67
68.01,11.43,1.81,11.44,1.82,-1.79,-1.39,-1.60,9.64,9.65,9.62
68.69,11.43,1.88,11.43,1.88,-1.87,-1.45,-1.64,9.56,9.57,9.55
69.37,11.44,1.94,11.45,1.96,-1.94,-1.51,-1.68,9.49,9.51,9.50
70.07,11.46,2.03,11.47,2.04,-2.01,-1.56,-1.71,9.45,9.46,9.43
70.77,11.51,2.14,11.46,2.09,-2.07,-1.62,-1.75,9.44,9.39,9.37
71.48,11.43,2.13,11.42,2.12,-2.11,-1.68,-1.79,9.32,9.31,9.30
72.19,11.33,2.10,11.37,2.14,-2.16,-1.74,-1.83,9.17,9.21,9.23
72.91,11.33,2.16,11.33,2.16,-2.20,-1.80,-1.87,9.13,9.13,9.17
73.64,11.33,2.23,11.32,2.22,-2.25,-1.86,-1.91,9.08,9.07,9.10
74.38,11.33,2.29,11.33,2.29,-2.30,-1.91,-1.95,9.03,9.03,9.04
75.12,11.33,2.36,11.33,2.35,-2.35,-1.97,-1.99,8.98,8.98,8.97
75.87,11.33,2.40,11.33,2.41,-2.41,-2.03,-2.03,8.92,8.92,8.93
76.63,11.33,2.47,11.33,2.47,-2.46,-2.09,-2.08,8.87,8.87,8.86
77.40,11.33,2.52,11.33,2.52,-2.51,-2.15,-2.12,8.82,8.82,8.81
78.17,11.33,2.58,11.34,2.58,-2.55,-2.22,-2.17,8.78,8.79,8.75
78.95,11.33,2.62,11.33,2.63,-2.59,-2.28,-2.22,8.74,8.74,8.71
79.74,11.33,2.68,11.28,2.64,-2.62,-2.34,-2.26,8.71,8.66,8.65
80.54,11.22,2.63,11.24,2.64,-2.66,-2.40,-2.32,8.56,8.58,8.59
81.35,11.16,2.62,11.20,2.66,-2.70,-2.46,-2.37,8.45,8.50,8.54
82.16,11.21,2.72,11.19,2.71,-2.76,-2.52,-2.42,8.45,8.44,8.49
82.98,11.23,2.80,11.21,2.78,-2.81,-2.59,-2.48,8.42,8.40,8.43
83.81,11.23,2.86,11.23,2.86,-2.86,-2.65,-2.54,8.37,8.37,8.37
84.65,11.23,2.92,11.25,2.95,-2.91,-2.71,-2.60,8.31,8.34,8.31
85.50,11.27,3.03,11.27,3.02,-2.97,-2.77,-2.66,8.30,8.30,8.24
86.35,11.29,3.11,11.25,3.07,-3.03,-2.83,-2.72,8.26,8.23,8.18
87.22,11.22,3.09,11.21,3.09,-3.08,-2.90,-2.79,8.14,8.14,8.13
88.09,11.13,3.07,11.16,3.10,-3.12,-2.96,-2.86,8.01,8.04,8.06
88.97,11.13,3.12,11.13,3.13,-3.17,-3.02,-2.93,7.96,7.96,8.01
89.86,11.14,3.21,11.13,3.19,-3.22,-3.08,-3.00,7.92,7.90,7.93
90.76,11.14,3.27,11.14,3.27,-3.28,-3.15,-3.08,7.85,7.85,7.87
91.66,11.14,3.34,11.14,3.34,-3.35,-3.21,-3.16,7.79,7.79,7.80
92.58,11.14,3.40,11.14,3.40,-3.41,-3.27,-3.24,7.73,7.72,7.74
93.51,11.14,3.47,11.15,3.48,-3.47,-3.33,-3.32,7.67,7.68,7.67
94.44,11.16,3.56,11.18,3.58,-3.52,-3.39,-3.40,7.63,7.66,7.60
95.39,11.20,3.68,11.16,3.64,-3.57,-3.45,-3.49,7.63,7.59,7.52
96.34,11.14,3.70,11.08,3.64,-3.61,-3.51,-3.58,7.53,7.47,7.44
97.30,10.94,3.58,10.98,3.63,-3.65,-3.57,-3.67,7.29,7.33,7.36
98.28,10.85,3.58,10.90,3.63,-3.69,-3.63,-3.76,7.16,7.20,7.27
99.26,10.89,3.71,10.86,3.68,-3.74,-3.69,-3.85,7.14,7.12,7.18
100.25,10.89,3.79,10.87,3.77,-3.80,-3.75,-3.95,7.09,7.07,7.10
101.25,10.87,3.84,10.87,3.85,-3.86,-3.81,-4.04,7.01,7.02,7.03
102.27,10.86,3.92,10.86,3.92,-3.91,-3.86,-4.14,6.95,6.95,6.94
103.29,10.85,3.99,10.87,4.00,-3.96,-3.92,-4.24,6.89,6.90,6.86
104.32,10.86,4.07,10.86,4.08,-4.01,-3.97,-4.33,6.85,6.85,6.79
105.37,10.86,4.15,10.82,4.12,-4.05,-4.03,-4.43,6.81,6.77,6.71
106.42,10.74,4.12,10.73,4.10,-4.08,-4.08,-4.52,6.65,6.64,6.62
107.48,10.59,4.06,10.60,4.06,-4.11,-4.13,-4.62,6.47,6.49,6.53
108.56,10.48,4.01,10.51,4.05,-4.14,-4.18,-4.71,6.34,6.36,6.47
109.64,10.47,4.09,10.48,4.10,-4.16,-4.23,-4.81,6.31,6.32,6.38
110.74,10.50,4.20,10.50,4.19,-4.18,-4.28,-4.90,6.32,6.32,6.30
111.85,10.54,4.31,10.49,4.26,-4.20,-4.33,-4.98,6.34,6.30,6.23
112.97,10.46,4.30,10.46,4.30,-4.22,-4.37,-5.07,6.23,6.23,6.16
114.10,10.35,4.26,10.38,4.30,-4.27,-4.42,-5.15,6.08,6.12,6.09
115.24,10.33,4.32,10.29,4.28,-4.32,-4.46,-5.22,6.01,5.97,6.01
116.39,10.22,4.29,10.23,4.29,-4.38,-4.50,-5.29,5.84,5.85,5.93
117.55,10.18,4.31,10.21,4.35,-4.42,-4.54,-5.36,5.76,5.79,5.87
118.73,10.23,4.44,10.24,4.45,-4.46,-4.58,-5.42,5.77,5.78,5.79
119.92,10.32,4.59,10.29,4.56,-4.51,-4.62,-5.47,5.81,5.78,5.73
121.12,10.34,4.66,10.30,4.63,-4.55,-4.65,-5.52,5.79,5.75,5.68
122.33,10.24,4.63,10.26,4.65,-4.59,-4.69,-5.55,5.65,5.67,5.61
123.55,10.19,4.63,10.20,4.64,-4.63,-4.72,-5.59,5.56,5.57,5.56
124.79,10.14,4.64,10.13,4.64,-4.67,-4.75,-5.61,5.47,5.47,5.50
126.03,10.10,4.67,10.09,4.65,-4.70,-4.78,-5.64,5.40,5.39,5.43
127.29,10.04,4.67,10.05,4.68,-4.72,-4.81,-5.64,5.32,5.33,5.37
128.57,10.02,4.71,10.03,4.72,-4.74,-4.83,-5.65,5.28,5.29,5.31
129.85,10.02,4.78,10.02,4.78,-4.76,-4.86,-5.65,5.25,5.26,5.24
131.15,10.03,4.85,10.01,4.83,-4.80,-4.88,-5.64,5.23,5.22,5.18
132.46,9.99,4.87,9.99,4.87,-4.84,-4.90,-5.63,5.15,5.15,5.12
133.79,9.95,4.89,9.94,4.88,-4.88,-4.92,-5.61,5.07,5.06,5.06
135.12,9.89,4.89,9.89,4.88,-4.92,-4.94,-5.58,4.97,4.97,5.00
136.48,9.85,4.89,9.86,4.91,-4.95,-4.95,-5.55,4.90,4.91,4.96
137.84,9.84,4.94,9.86,4.97,-4.97,-4.97,-5.52,4.86,4.89,4.90
139.22,9.87,5.05,9.87,5.03,-4.99,-4.99,-5.48,4.87,4.87,4.82
140.61,9.90,5.12,9.83,5.06,-5.01,-5.00,-5.44,4.89,4.82,4.78
142.02,9.74,5.02,9.75,5.04,-5.02,-5.02,-5.40,4.72,4.73,4.72
143.44,9.63,4.98,9.68,5.03,-5.03,-5.03,-5.35,4.59,4.65,4.65
144.87,9.62,5.02,9.63,5.03,-5.05,-5.04,-5.31,4.57,4.58,4.60
146.32,9.66,5.11,9.60,5.05,-5.06,-5.06,-5.26,4.59,4.53,4.55
147.78,9.56,5.07,9.55,5.06,-5.07,-5.07,-5.21,4.48,4.47,4.49
149.26,9.45,5.01,9.49,5.06,-5.08,-5.08,-5.16,4.37,4.41,4.44
150.75,9.44,5.07,9.46,5.08,-5.09,-5.09,-5.12,4.35,4.37,4.37
152.26,9.49,5.16,9.47,5.14,-5.11,-5.11,-5.07,4.38,4.36,4.33
153.78,9.49,5.22,9.46,5.18,-5.14,-5.12,-5.03,4.35,4.32,4.27
155.32,9.40,5.18,9.39,5.17,-5.16,-5.14,-4.98,4.24,4.23,4.22
156.88,9.28,5.12,9.30,5.14,-5.18,-5.15,-4.94,4.10,4.12,4.16
158.44,9.21,5.11,9.25,5.15,-5.20,-5.16,-4.90,4.01,4.06,4.10
160.03,9.25,5.21,9.25,5.21,-5.21,-5.18,-4.87,4.04,4.04,4.04
161.63,9.30,5.32,9.24,5.27,-5.23,-5.19,-4.83,4.07,4.01,3.98
163.24,9.20,5.29,9.19,5.28,-5.25,-5.21,-4.80,3.95,3.94,3.91
164.88,9.10,5.24,9.11,5.25,-5.27,-5.22,-4.77,3.83,3.84,3.86
166.53,9.00,5.21,9.06,5.26,-5.29,-5.23,-4.75,3.71,3.77,3.79
168.19,9.04,5.30,9.04,5.30,-5.30,-5.25,-4.73,3.74,3.74,3.74
169.87,9.08,5.40,9.01,5.33,-5.30,-5.26,-4.71,3.77,3.70,3.68
171.57,8.94,5.33,8.96,5.34,-5.31,-5.27,-4.70,3.63,3.65,3.61
173.29,8.84,5.29,8.86,5.30,-5.30,-5.28,-4.68,3.54,3.55,3.55
175.02,8.77,5.27,8.77,5.27,-5.30,-5.29,-4.68,3.47,3.47,3.50
176.77,8.71,5.26,8.72,5.28,-5.29,-5.30,-4.67,3.42,3.43,3.45
178.54,8.70,5.31,8.68,5.29,-5.28,-5.31,-4.67,3.42,3.40,3.39
180.32,8.63,5.30,8.63,5.30,-5.27,-5.31,-4.68,3.36,3.36,3.33
182.13,8.57,5.28,8.57,5.29,-5.27,-5.32,-4.68,3.29,3.30,3.29
183.95,8.52,5.28,8.49,5.25,-5.29,-5.32,-4.69,3.23,3.20,3.24
185.79,8.43,5.24,8.45,5.25,-5.31,-5.32,-4.71,3.12,3.14,3.19
187.65,8.40,5.25,8.44,5.29,-5.33,-5.32,-4.73,3.07,3.11,3.15
189.52,8.48,5.38,8.46,5.35,-5.34,-5.32,-4.75,3.14,3.12,3.10
191.42,8.50,5.43,8.46,5.40,-5.35,-5.32,-4.77,3.15,3.12,3.07
193.33,8.43,5.41,8.44,5.42,-5.35,-5.32,-4.80,3.08,3.09,3.02
195.27,8.35,5.38,8.37,5.40,-5.36,-5.31,-4.83,2.99,3.01,2.97
197.22,8.31,5.39,8.27,5.35,-5.37,-5.30,-4.86,2.94,2.90,2.92
199.19,8.19,5.30,8.19,5.30,-5.37,-5.30,-4.90,2.82,2.82,2.89
201.18,8.09,5.25,8.15,5.30,-5.36,-5.29,-4.94,2.73,2.79,2.84
203.19,8.13,5.32,8.13,5.32,-5.35,-5.28,-4.97,2.78,2.79,2.81
205.23,8.19,5.42,8.13,5.36,-5.33,-5.26,-5.02,2.85,2.80,2.77
207.28,8.11,5.37,8.11,5.38,-5.32,-5.25,-5.06,2.79,2.79,2.74
209.35,8.03,5.33,8.04,5.34,-5.31,-5.23,-5.10,2.72,2.73,2.70
211.44,7.95,5.30,7.95,5.30,-5.30,-5.22,-5.14,2.65,2.65,2.65
213.56,7.88,5.26,7.88,5.26,-5.28,-5.20,-5.19,2.60,2.61,2.62
215.69,7.83,5.25,7.81,5.23,-5.24,-5.18,-5.23,2.58,2.57,2.58
217.85,7.74,5.19,7.75,5.21,-5.21,-5.16,-5.27,2.53,2.54,2.55
220.03,7.68,5.18,7.68,5.17,-5.17,-5.14,-5.31,2.51,2.51,2.50
222.23,7.63,5.15,7.61,5.14,-5.14,-5.11,-5.35,2.49,2.47,2.48
224.45,7.54,5.09,7.54,5.10,-5.11,-5.09,-5.39,2.43,2.43,2.45
226.70,7.49,5.07,7.48,5.06,-5.08,-5.06,-5.42,2.41,2.41,2.42
228.96,7.42,5.02,7.46,5.06,-5.05,-5.03,-5.45,2.37,2.42,2.40
231.25,7.45,5.06,7.42,5.04,-5.01,-5.00,-5.47,2.43,2.41,2.39
233.57,7.43,5.07,7.36,4.99,-4.98,-4.97,-5.49,2.45,2.37,2.36
235.90,7.22,4.87,7.30,4.95,-4.95,-4.94,-5.51,2.26,2.34,2.35
238.26,7.23,4.90,7.24,4.90,-4.92,-4.90,-5.52,2.30,2.31,2.33
240.64,7.23,4.89,7.20,4.86,-4.89,-4.86,-5.52,2.33,2.30,2.34
243.05,7.20,4.87,7.19,4.87,-4.86,-4.83,-5.51,2.34,2.33,2.33
245.48,7.14,4.83,7.16,4.84,-4.82,-4.78,-5.50,2.31,2.33,2.31
247.93,7.12,4.82,7.11,4.80,-4.79,-4.74,-5.48,2.33,2.32,2.30
250.41,7.07,4.76,7.06,4.76,-4.76,-4.70,-5.46,2.31,2.31,2.31
252.92,7.01,4.70,7.02,4.72,-4.72,-4.65,-5.42,2.29,2.30,2.31
255.45,6.97,4.68,6.96,4.67,-4.68,-4.61,-5.38,2.29,2.29,2.29
258.00,6.91,4.63,6.91,4.63,-4.63,-4.56,-5.33,2.28,2.28,2.28
260.58,6.85,4.58,6.85,4.58,-4.58,-4.51,-5.28,2.27,2.28,2.27
263.19,6.80,4.54,6.78,4.53,-4.53,-4.46,-5.22,2.27,2.26,2.26
265.82,6.71,4.47,6.72,4.48,-4.48,-4.41,-5.15,2.23,2.25,2.24
268.48,6.65,4.41,6.65,4.42,-4.43,-4.35,-5.08,2.22,2.23,2.24
271.16,6.60,4.38,6.58,4.36,-4.37,-4.30,-4.99,2.22,2.21,2.22
273.87,6.51,4.30,6.52,4.32,-4.32,-4.24,-4.91,2.19,2.20,2.21
276.61,6.46,4.27,6.45,4.27,-4.26,-4.19,-4.82,2.19,2.19,2.19
279.38,6.39,4.23,6.39,4.22,-4.21,-4.13,-4.73,2.18,2.19,2.16
282.17,6.32,4.16,6.32,4.16,-4.15,-4.07,-4.63,2.17,2.18,2.16
284.99,6.27,4.11,6.25,4.10,-4.09,-4.01,-4.53,2.18,2.16,2.16
287.84,6.16,4.00,6.17,4.02,-4.03,-3.96,-4.42,2.13,2.15,2.16
290.72,6.11,3.97,6.10,3.95,-3.97,-3.90,-4.32,2.14,2.13,2.14
293.63,6.03,3.88,6.04,3.89,-3.91,-3.84,-4.21,2.12,2.13,2.15
296.57,5.99,3.84,5.99,3.84,-3.85,-3.78,-4.10,2.14,2.14,2.15
299.53,5.95,3.81,5.94,3.79,-3.79,-3.72,-3.99,2.16,2.15,2.14
302.53,5.88,3.73,5.89,3.74,-3.74,-3.66,-3.88,2.14,2.15,2.15
305.55,5.84,3.70,5.83,3.69,-3.69,-3.59,-3.77,2.15,2.15,2.14
308.61,5.78,3.63,5.78,3.63,-3.64,-3.53,-3.66,2.14,2.14,2.15
311.69,5.72,3.59,5.72,3.58,-3.59,-3.47,-3.55,2.13,2.13,2.13
314.81,5.66,3.52,5.66,3.52,-3.53,-3.41,-3.45,2.13,2.13,2.14
317.96,5.60,3.48,5.60,3.48,-3.47,-3.35,-3.34,2.13,2.14,2.12
321.14,5.54,3.41,5.55,3.42,-3.39,-3.29,-3.23,2.14,2.15,2.13
324.35,5.49,3.37,5.48,3.35,-3.32,-3.22,-3.13,2.16,2.15,2.12
327.59,5.40,3.27,5.38,3.25,-3.25,-3.16,-3.02,2.14,2.12,2.13
330.87,5.28,3.16,5.28,3.16,-3.18,-3.10,-2.92,2.10,2.10,2.12
334.18,5.15,3.04,5.20,3.08,-3.11,-3.04,-2.82,2.04,2.09,2.11
337.52,5.16,3.04,5.12,3.01,-3.05,-2.97,-2.72,2.11,2.08,2.12
340.90,5.10,2.99,5.08,2.97,-2.98,-2.91,-2.62,2.12,2.11,2.11
344.30,5.01,2.89,5.06,2.94,-2.91,-2.85,-2.52,2.10,2.14,2.12
347.75,5.02,2.89,4.97,2.86,-2.84,-2.79,-2.43,2.18,2.13,2.13
351.23,4.93,2.82,4.91,2.78,-2.77,-2.72,-2.34,2.16,2.14,2.11
354.74,4.78,2.65,4.86,2.74,-2.70,-2.66,-2.25,2.08,2.16,2.13
358.28,4.80,2.67,4.77,2.64,-2.62,-2.60,-2.16,2.17,2.14,2.13
361.87,4.75,2.62,4.67,2.53,-2.55,-2.53,-2.07,2.20,2.12,2.13
365.49,4.52,2.38,4.59,2.45,-2.48,-2.47,-1.98,2.04,2.11,2.14
369.14,4.47,2.32,4.51,2.36,-2.41,-2.40,-1.90,2.06,2.10,2.15
372.83,4.52,2.36,4.46,2.31,-2.34,-2.34,-1.82,2.18,2.12,2.16
376.56,4.45,2.30,4.45,2.30,-2.28,-2.28,-1.74,2.17,2.17,2.15
380.33,4.40,2.25,4.41,2.25,-2.22,-2.21,-1.66,2.18,2.19,2.15
384.13,4.34,2.18,4.33,2.17,-2.16,-2.15,-1.58,2.18,2.17,2.16
387.97,4.25,2.09,4.26,2.10,-2.09,-2.08,-1.50,2.15,2.17,2.16
391.85,4.18,2.03,4.18,2.03,-2.02,-2.02,-1.43,2.16,2.16,2.15
395.77,4.11,1.97,4.09,1.95,-1.95,-1.95,-1.36,2.16,2.15,2.14
399.73,4.01,1.87,4.01,1.86,-1.87,-1.89,-1.29,2.14,2.14,2.14
403.72,3.90,1.75,3.92,1.78,-1.79,-1.82,-1.21,2.11,2.13,2.15
407.76,3.83,1.70,3.82,1.69,-1.70,-1.76,-1.15,2.13,2.12,2.13
411.84,3.75,1.63,3.72,1.60,-1.62,-1.69,-1.08,2.13,2.10,2.12
415.96,3.63,1.51,3.65,1.54,-1.52,-1.62,-1.01,2.10,2.13,2.12
420.12,3.54,1.43,3.59,1.48,-1.44,-1.56,-0.95,2.10,2.15,2.11
424.32,3.58,1.46,3.51,1.38,-1.36,-1.49,-0.88,2.22,2.15,2.12
428.56,3.45,1.31,3.41,1.27,-1.28,-1.42,-0.82,2.17,2.13,2.14
432.85,3.26,1.10,3.33,1.18,-1.21,-1.35,-0.76,2.05,2.12,2.16
437.18,3.24,1.07,3.26,1.09,-1.14,-1.29,-0.69,2.09,2.12,2.17
441.55,3.31,1.11,3.26,1.06,-1.08,-1.22,-0.63,2.23,2.18,2.20
445.96,3.28,1.04,3.28,1.05,-1.02,-1.15,-0.57,2.26,2.26,2.24
450.42,3.28,1.00,3.28,1.00,-0.96,-1.08,-0.52,2.31,2.32,2.28
454.93,3.27,0.94,3.26,0.93,-0.92,-1.01,-0.46,2.35,2.34,2.33
459.48,3.25,0.86,3.26,0.87,-0.87,-0.94,-0.40,2.38,2.39,2.39
464.07,3.26,0.80,3.25,0.80,-0.82,-0.87,-0.35,2.44,2.43,2.46
468.71,3.26,0.75,3.26,0.75,-0.76,-0.80,-0.29,2.50,2.50,2.51
473.40,3.26,0.69,3.26,0.69,-0.69,-0.73,-0.23,2.57,2.58,2.57
478.13,3.28,0.65,3.27,0.64,-0.61,-0.66,-0.18,2.67,2.66,2.63
482.91,3.22,0.54,3.23,0.56,-0.53,-0.59,-0.13,2.69,2.70,2.68
487.74,3.21,0.50,3.15,0.43,-0.44,-0.51,-0.07,2.77,2.71,2.71
492.62,3.05,0.30,3.09,0.34,-0.35,-0.44,-0.02,2.70,2.74,2.75
497.55,2.98,0.19,3.05,0.26,-0.25,-0.37,0.03,2.72,2.80,2.79
502.52,3.07,0.26,2.98,0.16,-0.17,-0.30,0.08,2.90,2.81,2.81
