frequency,raw,error,smoothed,error_smoothed,equalization,parametric_eq,fixed_band_eq,equalized_raw,equalized_smoothed,target
20.00,10.71,1.78,10.72,1.79,-1.79,-1.80,-0.33,8.93,8.94,8.93
20.20,10.70,1.77,10.70,1.76,-1.76,-1.82,-0.34,8.94,8.93,8.93
20.40,10.68,1.75,10.68,1.74,-1.74,-1.82,-0.35,8.94,8.93,8.93
20.61,10.65,1.72,10.65,1.72,-1.72,-1.83,-0.36,8.93,8.93,8.93
20.81,10.63,1.71,10.63,1.70,-1.70,-1.82,-0.37,8.93,8.93,8.92
21.02,10.61,1.69,10.61,1.68,-1.68,-1.82,-0.38,8.93,8.92,8.92
21.23,10.57,1.65,10.58,1.66,-1.66,-1.81,-0.39,8.91,8.92,8.92
21.44,10.55,1.63,10.56,1.64,-1.64,-1.79,-0.40,8.91,8.92,8.93
21.66,10.52,1.61,10.53,1.62,-1.62,-1.77,-0.41,8.90,8.91,8.92
21.87,10.50,1.59,10.51,1.60,-1.60,-1.75,-0.42,8.90,8.91,8.92
22.09,10.48,1.58,10.48,1.58,-1.58,-1.73,-0.43,8.91,8.91,8.91
22.31,10.45,1.55,10.46,1.56,-1.56,-1.70,-0.44,8.90,8.90,8.90
22.54,10.43,1.54,10.43,1.54,-1.54,-1.67,-0.45,8.90,8.90,8.89
22.76,10.41,1.52,10.41,1.52,-1.52,-1.63,-0.47,8.90,8.89,8.89
22.99,10.38,1.49,10.38,1.50,-1.50,-1.60,-0.48,8.89,8.89,8.89
23.22,10.36,1.48,10.36,1.48,-1.48,-1.56,-0.49,8.89,8.88,8.88
23.45,10.33,1.46,10.33,1.46,-1.46,-1.53,-0.51,8.88,8.87,8.88
23.69,10.31,1.45,10.31,1.44,-1.44,-1.49,-0.52,8.87,8.87,8.87
23.92,10.28,1.43,10.28,1.42,-1.42,-1.45,-0.53,8.86,8.86,8.86
24.16,10.25,1.40,10.25,1.40,-1.40,-1.42,-0.55,8.86,8.86,8.85
24.40,10.22,1.37,10.23,1.37,-1.37,-1.38,-0.56,8.85,8.85,8.85
24.65,10.19,1.34,10.20,1.35,-1.35,-1.35,-0.58,8.84,8.85,8.85
24.89,10.17,1.32,10.17,1.33,-1.33,-1.31,-0.59,8.85,8.85,8.85
25.14,10.14,1.30,10.15,1.30,-1.30,-1.28,-0.61,8.84,8.84,8.85
25.39,10.11,1.28,10.12,1.28,-1.28,-1.24,-0.62,8.84,8.84,8.84
25.65,10.09,1.26,10.09,1.25,-1.25,-1.21,-0.64,8.84,8.84,8.83
25.91,10.06,1.23,10.06,1.22,-1.22,-1.18,-0.65,8.84,8.84,8.83
26.16,10.03,1.19,10.03,1.19,-1.19,-1.15,-0.67,8.84,8.84,8.84
26.43,10.00,1.17,10.00,1.17,-1.17,-1.12,-0.68,8.84,8.84,8.84
26.69,9.97,1.14,9.97,1.14,-1.14,-1.09,-0.70,8.84,8.84,8.84
26.96,9.94,1.11,9.94,1.11,-1.11,-1.06,-0.72,8.83,8.83,8.83
27.23,9.91,1.08,9.92,1.08,-1.08,-1.04,-0.73,8.83,8.83,8.83
27.50,9.88,1.06,9.89,1.06,-1.06,-1.01,-0.75,8.83,8.83,8.83
27.77,9.85,1.02,9.86,1.03,-1.03,-0.99,-0.76,8.82,8.83,8.84
28.05,9.82,1.00,9.82,1.00,-1.00,-0.97,-0.78,8.82,8.82,8.82
28.33,9.79,0.97,9.79,0.98,-0.98,-0.95,-0.79,8.82,8.82,8.82
28.62,9.76,0.96,9.76,0.95,-0.95,-0.93,-0.81,8.81,8.81,8.81
28.90,9.73,0.92,9.73,0.93,-0.93,-0.91,-0.82,8.81,8.81,8.81
29.19,9.70,0.90,9.70,0.90,-0.90,-0.90,-0.84,8.80,8.80,8.80
29.48,9.66,0.87,9.67,0.88,-0.88,-0.88,-0.85,8.79,8.79,8.79
29.78,9.64,0.86,9.64,0.85,-0.85,-0.87,-0.86,8.79,8.79,8.79
30.08,9.60,0.82,9.60,0.82,-0.82,-0.85,-0.87,8.78,8.78,8.78
30.38,9.57,0.81,9.57,0.80,-0.80,-0.84,-0.89,8.78,8.78,8.77
30.68,9.53,0.77,9.54,0.77,-0.77,-0.83,-0.90,8.77,8.77,8.76
30.99,9.50,0.74,9.51,0.74,-0.74,-0.82,-0.91,8.76,8.77,8.76
31.30,9.47,0.72,9.47,0.71,-0.71,-0.81,-0.92,8.76,8.76,8.76
31.61,9.43,0.68,9.44,0.68,-0.68,-0.80,-0.93,8.75,8.76,8.75
31.93,9.40,0.66,9.41,0.65,-0.65,-0.79,-0.94,8.75,8.75,8.75
32.24,9.37,0.62,9.37,0.62,-0.62,-0.79,-0.95,8.75,8.75,8.75
32.57,9.34,0.61,9.34,0.60,-0.60,-0.78,-0.95,8.75,8.74,8.74
32.89,9.30,0.56,9.31,0.57,-0.57,-0.77,-0.96,8.74,8.74,8.74
33.22,9.27,0.54,9.27,0.54,-0.54,-0.77,-0.97,8.73,8.73,8.74
33.55,9.23,0.50,9.24,0.52,-0.52,-0.77,-0.98,8.72,8.73,8.73
33.89,9.21,0.50,9.21,0.49,-0.49,-0.76,-0.98,8.72,8.72,8.72
34.23,9.17,0.47,9.17,0.47,-0.47,-0.76,-0.99,8.70,8.70,8.70
34.57,9.14,0.45,9.14,0.45,-0.45,-0.76,-1.00,8.69,8.69,8.70
34.92,9.11,0.44,9.11,0.44,-0.44,-0.76,-1.00,8.68,8.67,8.67
35.27,9.08,0.42,9.08,0.43,-0.43,-0.76,-1.01,8.66,8.65,8.66
35.62,9.04,0.42,9.04,0.41,-0.41,-0.76,-1.01,8.63,8.63,8.63
35.97,9.00,0.39,9.01,0.41,-0.41,-0.76,-1.02,8.60,8.60,8.61
36.33,8.97,0.39,8.98,0.40,-0.40,-0.76,-1.03,8.57,8.58,8.58
36.70,8.94,0.40,8.95,0.40,-0.40,-0.76,-1.03,8.54,8.55,8.55
37.06,8.91,0.40,8.92,0.40,-0.40,-0.77,-1.04,8.51,8.52,8.52
37.43,8.88,0.40,8.89,0.40,-0.40,-0.77,-1.05,8.48,8.48,8.48
37.81,8.86,0.41,8.86,0.40,-0.40,-0.77,-1.06,8.46,8.45,8.45
38.19,8.82,0.41,8.83,0.41,-0.41,-0.78,-1.07,8.41,8.42,8.41
38.57,8.80,0.42,8.80,0.41,-0.41,-0.78,-1.08,8.39,8.39,8.38
38.95,8.77,0.42,8.77,0.42,-0.42,-0.79,-1.09,8.35,8.35,8.35
39.34,8.74,0.43,8.75,0.42,-0.42,-0.79,-1.10,8.32,8.32,8.31
39.74,8.72,0.44,8.72,0.43,-0.43,-0.80,-1.11,8.29,8.29,8.28
40.14,8.69,0.44,8.70,0.44,-0.44,-0.81,-1.12,8.26,8.26,8.25
40.54,8.66,0.43,8.67,0.44,-0.44,-0.82,-1.13,8.22,8.23,8.23
40.94,8.64,0.44,8.65,0.45,-0.45,-0.82,-1.14,8.20,8.20,8.20
41.35,8.62,0.45,8.62,0.45,-0.45,-0.83,-1.16,8.18,8.17,8.17
41.76,8.60,0.47,8.60,0.45,-0.45,-0.84,-1.17,8.15,8.15,8.14
42.18,8.58,0.46,8.58,0.46,-0.46,-0.85,-1.19,8.13,8.12,8.12
42.60,8.55,0.46,8.56,0.46,-0.46,-0.86,-1.21,8.09,8.09,8.09
43.03,8.53,0.48,8.54,0.47,-0.47,-0.87,-1.23,8.06,8.06,8.06
43.46,8.51,0.48,8.52,0.48,-0.48,-0.89,-1.24,8.03,8.04,8.03
43.90,8.50,0.49,8.50,0.49,-0.49,-0.90,-1.26,8.02,8.01,8.01
44.33,8.47,0.50,8.48,0.50,-0.50,-0.91,-1.29,7.97,7.98,7.97
44.78,8.46,0.51,8.46,0.51,-0.51,-0.93,-1.31,7.95,7.95,7.95
45.23,8.44,0.51,8.45,0.53,-0.53,-0.94,-1.33,7.91,7.92,7.93
45.68,8.43,0.55,8.43,0.55,-0.55,-0.95,-1.35,7.88,7.88,7.89
46.13,8.42,0.58,8.42,0.57,-0.57,-0.97,-1.38,7.85,7.84,7.84
46.60,8.40,0.59,8.41,0.60,-0.60,-0.98,-1.40,7.80,7.81,7.81
47.06,8.39,0.62,8.39,0.63,-0.63,-1.00,-1.43,7.76,7.76,7.77
47.53,8.38,0.65,8.38,0.66,-0.66,-1.02,-1.46,7.72,7.72,7.73
48.01,8.37,0.70,8.37,0.70,-0.70,-1.04,-1.49,7.67,7.68,7.67
48.49,8.36,0.73,8.37,0.74,-0.74,-1.05,-1.52,7.63,7.63,7.63
48.97,8.36,0.78,8.36,0.78,-0.78,-1.07,-1.55,7.58,7.58,7.58
49.46,8.35,0.81,8.36,0.82,-0.82,-1.09,-1.58,7.53,7.53,7.54
49.96,8.35,0.89,8.35,0.87,-0.87,-1.11,-1.61,7.48,7.48,7.47
50.46,8.34,0.92,8.35,0.92,-0.92,-1.13,-1.64,7.42,7.43,7.42
50.96,8.34,0.98,8.35,0.97,-0.97,-1.15,-1.67,7.37,7.38,7.37
51.47,8.34,1.02,8.35,1.02,-1.02,-1.18,-1.70,7.32,7.33,7.32
51.99,8.35,1.09,8.35,1.08,-1.08,-1.20,-1.74,7.28,7.27,7.27
52.51,8.35,1.13,8.35,1.13,-1.13,-1.22,-1.77,7.22,7.22,7.22
53.03,8.35,1.17,8.35,1.19,-1.19,-1.25,-1.80,7.17,7.17,7.18
53.56,8.35,1.23,8.36,1.24,-1.24,-1.27,-1.84,7.11,7.12,7.12
54.10,8.36,1.30,8.36,1.30,-1.30,-1.30,-1.87,7.07,7.06,7.06
54.64,8.36,1.35,8.36,1.35,-1.35,-1.32,-1.90,7.01,7.01,7.01
55.18,8.37,1.42,8.37,1.40,-1.40,-1.35,-1.93,6.97,6.96,6.95
55.74,8.37,1.47,8.37,1.46,-1.46,-1.38,-1.96,6.92,6.92,6.90
56.29,8.37,1.52,8.38,1.51,-1.51,-1.40,-1.99,6.86,6.87,6.86
56.86,8.38,1.57,8.38,1.57,-1.57,-1.43,-2.02,6.81,6.81,6.81
57.42,8.39,1.65,8.39,1.63,-1.63,-1.46,-2.05,6.77,6.76,6.75
58.00,8.39,1.69,8.39,1.69,-1.69,-1.49,-2.07,6.71,6.71,6.70
58.58,8.40,1.74,8.40,1.75,-1.75,-1.52,-2.10,6.66,6.65,6.66
59.16,8.39,1.78,8.40,1.81,-1.81,-1.56,-2.12,6.58,6.59,6.61
59.76,8.40,1.84,8.40,1.87,-1.87,-1.59,-2.14,6.53,6.53,6.56
60.35,8.40,1.91,8.41,1.93,-1.93,-1.62,-2.16,6.47,6.47,6.49
60.96,8.41,1.98,8.41,2.00,-2.00,-1.66,-2.18,6.42,6.41,6.43
61.57,8.41,2.07,8.41,2.06,-2.06,-1.69,-2.19,6.36,6.35,6.35
62.18,8.40,2.13,8.41,2.12,-2.12,-1.73,-2.20,6.28,6.28,6.27
62.80,8.40,2.20,8.41,2.19,-2.19,-1.76,-2.21,6.22,6.22,6.21
63.43,8.40,2.27,8.40,2.25,-2.25,-1.80,-2.22,6.16,6.15,6.13
64.07,8.39,2.32,8.40,2.31,-2.31,-1.84,-2.23,6.08,6.09,6.07
64.71,8.39,2.38,8.39,2.37,-2.37,-1.88,-2.23,6.02,6.02,6.01
65.35,8.37,2.42,8.38,2.43,-2.43,-1.91,-2.24,5.95,5.95,5.95
66.01,8.37,2.48,8.37,2.48,-2.48,-1.95,-2.24,5.89,5.89,5.89
66.67,8.36,2.53,8.36,2.53,-2.53,-1.99,-2.24,5.83,5.82,5.84
67.33,8.33,2.57,8.34,2.58,-2.58,-2.03,-2.24,5.75,5.76,5.76
68.01,8.32,2.63,8.32,2.63,-2.63,-2.08,-2.23,5.69,5.69,5.70
68.69,8.31,2.69,8.31,2.68,-2.68,-2.12,-2.23,5.64,5.63,5.63
69.37,8.28,2.71,8.28,2.72,-2.72,-2.16,-2.22,5.56,5.56,5.57
70.07,8.26,2.75,8.26,2.76,-2.76,-2.20,-2.21,5.50,5.50,5.51
70.77,8.23,2.80,8.23,2.80,-2.80,-2.24,-2.21,5.43,5.43,5.44
71.48,8.20,2.84,8.20,2.84,-2.84,-2.29,-2.20,5.36,5.36,5.37
72.19,8.16,2.87,8.17,2.87,-2.87,-2.33,-2.19,5.29,5.29,5.29
72.91,8.13,2.91,8.13,2.91,-2.91,-2.37,-2.18,5.23,5.23,5.23
73.64,8.09,2.94,8.10,2.94,-2.94,-2.42,-2.18,5.16,5.16,5.15
74.38,8.05,2.97,8.05,2.96,-2.96,-2.46,-2.17,5.09,5.09,5.08
75.12,8.01,3.00,8.01,2.98,-2.98,-2.51,-2.16,5.03,5.03,5.01
75.87,7.96,3.00,7.96,3.00,-3.00,-2.55,-2.16,4.96,4.96,4.96
76.63,7.91,3.02,7.91,3.02,-3.02,-2.59,-2.15,4.90,4.90,4.89
77.40,7.86,3.03,7.86,3.03,-3.03,-2.63,-2.14,4.83,4.83,4.83
78.17,7.80,3.05,7.80,3.04,-3.04,-2.68,-2.14,4.77,4.77,4.76
78.95,7.74,3.03,7.74,3.04,-3.04,-2.72,-2.14,4.70,4.70,4.71
79.74,7.68,3.04,7.68,3.04,-3.04,-2.76,-2.14,4.64,4.64,4.65
80.54,7.61,3.04,7.62,3.04,-3.04,-2.80,-2.13,4.57,4.58,4.58
81.35,7.55,3.04,7.55,3.03,-3.03,-2.84,-2.14,4.52,4.52,4.52
82.16,7.47,3.01,7.47,3.02,-3.02,-2.88,-2.14,4.45,4.45,4.46
82.98,7.39,3.01,7.40,3.01,-3.01,-2.92,-2.14,4.39,4.39,4.39
83.81,7.32,3.00,7.32,2.99,-2.99,-2.95,-2.15,4.33,4.33,4.33
84.65,7.24,2.99,7.24,2.97,-2.97,-2.99,-2.15,4.27,4.26,4.25
85.50,7.14,2.95,7.15,2.95,-2.95,-3.02,-2.16,4.19,4.20,4.19
86.35,7.06,2.93,7.06,2.93,-2.93,-3.05,-2.17,4.14,4.13,4.13
87.22,6.96,2.90,6.97,2.90,-2.90,-3.08,-2.19,4.07,4.07,4.07
88.09,6.87,2.87,6.87,2.87,-2.87,-3.11,-2.20,4.01,4.00,4.00
88.97,6.77,2.84,6.77,2.83,-2.83,-3.13,-2.21,3.94,3.93,3.93
89.86,6.67,2.81,6.66,2.80,-2.80,-3.16,-2.23,3.88,3.87,3.87
90.76,6.57,2.78,6.56,2.76,-2.76,-3.18,-2.25,3.81,3.80,3.80
91.66,6.46,2.74,6.45,2.73,-2.73,-3.19,-2.27,3.73,3.72,3.73
92.58,6.35,2.70,6.35,2.69,-2.69,-3.21,-2.29,3.66,3.65,3.66
93.51,6.24,2.66,6.24,2.66,-2.66,-3.22,-2.32,3.58,3.58,3.58
94.44,6.13,2.62,6.13,2.63,-2.63,-3.24,-2.34,3.50,3.50,3.51
95.39,6.03,2.60,6.03,2.61,-2.61,-3.24,-2.37,3.42,3.42,3.43
96.34,5.92,2.58,5.94,2.59,-2.59,-3.25,-2.40,3.33,3.34,3.35
97.30,5.82,2.55,5.84,2.58,-2.58,-3.25,-2.43,3.24,3.27,3.27
98.28,5.74,2.56,5.76,2.57,-2.57,-3.25,-2.46,3.17,3.19,3.18
99.26,5.65,2.56,5.68,2.57,-2.57,-3.25,-2.49,3.08,3.11,3.09
100.25,5.58,2.56,5.61,2.57,-2.57,-3.24,-2.53,3.01,3.03,3.02
101.25,5.51,2.57,5.54,2.58,-2.58,-3.23,-2.56,2.93,2.95,2.95
102.27,5.46,2.59,5.48,2.60,-2.60,-3.22,-2.59,2.86,2.88,2.87
103.29,5.41,2.62,5.42,2.62,-2.62,-3.21,-2.63,2.79,2.80,2.79
104.32,5.37,2.64,5.37,2.64,-2.64,-3.19,-2.66,2.73,2.73,2.73
105.37,5.33,2.68,5.32,2.67,-2.67,-3.17,-2.70,2.66,2.66,2.65
106.42,5.29,2.71,5.28,2.70,-2.70,-3.15,-2.73,2.60,2.58,2.59
107.48,5.25,2.75,5.24,2.73,-2.73,-3.13,-2.77,2.53,2.51,2.50
108.56,5.20,2.77,5.20,2.76,-2.76,-3.10,-2.80,2.45,2.44,2.44
109.64,5.16,2.79,5.15,2.79,-2.79,-3.08,-2.83,2.38,2.37,2.37
110.74,5.11,2.82,5.11,2.82,-2.82,-3.05,-2.86,2.29,2.29,2.30
111.85,5.07,2.85,5.07,2.85,-2.85,-3.01,-2.89,2.22,2.22,2.22
112.97,5.02,2.88,5.02,2.88,-2.88,-2.98,-2.92,2.14,2.14,2.15
114.10,4.97,2.90,4.98,2.91,-2.91,-2.95,-2.94,2.06,2.06,2.07
115.24,4.91,2.92,4.93,2.94,-2.94,-2.91,-2.96,1.97,1.99,1.99
116.39,4.86,2.97,4.87,2.97,-2.97,-2.87,-2.98,1.90,1.91,1.90
117.55,4.81,2.99,4.82,2.99,-2.99,-2.83,-3.00,1.82,1.83,1.82
118.73,4.76,3.03,4.76,3.02,-3.02,-2.79,-3.01,1.75,1.74,1.73
119.92,4.69,3.04,4.70,3.04,-3.04,-2.75,-3.02,1.66,1.66,1.65
121.12,4.63,3.05,4.63,3.06,-3.06,-2.71,-3.03,1.58,1.57,1.58
122.33,4.56,3.07,4.56,3.07,-3.07,-2.67,-3.03,1.49,1.49,1.49
123.55,4.49,3.08,4.48,3.08,-3.08,-2.62,-3.02,1.41,1.40,1.41
124.79,4.41,3.08,4.40,3.08,-3.08,-2.58,-3.02,1.33,1.32,1.33
126.03,4.32,3.08,4.32,3.08,-3.08,-2.53,-3.01,1.24,1.23,1.24
127.29,4.22,3.08,4.22,3.08,-3.08,-2.49,-2.99,1.15,1.15,1.15
128.57,4.13,3.07,4.12,3.06,-3.06,-2.44,-2.97,1.07,1.06,1.06
129.85,4.01,3.04,4.02,3.03,-3.03,-2.40,-2.95,0.98,0.98,0.98
131.15,3.91,3.02,3.90,3.00,-3.00,-2.35,-2.92,0.91,0.90,0.89
132.46,3.78,2.98,3.78,2.96,-2.96,-2.31,-2.89,0.82,0.82,0.81
133.79,3.66,2.93,3.66,2.92,-2.92,-2.26,-2.85,0.75,0.74,0.74
135.12,3.53,2.88,3.53,2.86,-2.86,-2.22,-2.81,0.67,0.67,0.66
136.48,3.40,2.81,3.40,2.80,-2.80,-2.18,-2.77,0.60,0.59,0.59
137.84,3.26,2.74,3.26,2.74,-2.74,-2.13,-2.72,0.53,0.52,0.53
139.22,3.12,2.68,3.12,2.66,-2.66,-2.09,-2.68,0.46,0.46,0.45
140.61,2.96,2.57,2.97,2.58,-2.58,-2.04,-2.63,0.38,0.39,0.39
142.02,2.82,2.50,2.83,2.50,-2.50,-2.00,-2.57,0.33,0.33,0.33
143.44,2.67,2.41,2.68,2.41,-2.41,-1.96,-2.52,0.26,0.26,0.26
144.87,2.52,2.31,2.53,2.32,-2.32,-1.92,-2.46,0.20,0.20,0.21
146.32,2.37,2.23,2.37,2.23,-2.23,-1.88,-2.41,0.14,0.14,0.15
147.78,2.22,2.14,2.22,2.14,-2.14,-1.84,-2.35,0.09,0.09,0.09
149.26,2.06,2.04,2.07,2.04,-2.04,-1.80,-2.29,0.02,0.03,0.03
150.75,1.91,1.95,1.92,1.95,-1.95,-1.76,-2.23,-0.04,-0.03,-0.04
152.26,1.77,1.86,1.77,1.86,-1.86,-1.72,-2.17,-0.09,-0.09,-0.09
153.78,1.61,1.77,1.62,1.77,-1.77,-1.68,-2.11,-0.16,-0.15,-0.15
155.32,1.47,1.68,1.47,1.68,-1.68,-1.64,-2.05,-0.21,-0.21,-0.21
156.88,1.32,1.59,1.33,1.60,-1.60,-1.61,-1.99,-0.28,-0.27,-0.27
158.44,1.18,1.51,1.18,1.52,-1.52,-1.57,-1.93,-0.33,-0.33,-0.33
160.03,1.04,1.43,1.04,1.43,-1.43,-1.53,-1.88,-0.39,-0.40,-0.39
161.63,0.89,1.34,0.90,1.35,-1.35,-1.50,-1.82,-0.46,-0.46,-0.45
163.24,0.75,1.28,0.76,1.28,-1.28,-1.47,-1.76,-0.52,-0.52,-0.53
164.88,0.62,1.21,0.62,1.20,-1.20,-1.43,-1.70,-0.58,-0.58,-0.58
166.53,0.49,1.14,0.49,1.13,-1.13,-1.40,-1.65,-0.64,-0.64,-0.65
168.19,0.35,1.06,0.36,1.06,-1.06,-1.37,-1.59,-0.71,-0.71,-0.70
169.87,0.22,0.99,0.23,1.00,-1.00,-1.34,-1.54,-0.77,-0.77,-0.76
171.57,0.09,0.93,0.10,0.93,-0.93,-1.31,-1.49,-0.84,-0.83,-0.84
173.29,-0.02,0.88,-0.02,0.87,-0.87,-1.28,-1.43,-0.88,-0.89,-0.90
175.02,-0.15,0.81,-0.14,0.81,-0.81,-1.25,-1.38,-0.95,-0.95,-0.95
176.77,-0.26,0.75,-0.26,0.75,-0.75,-1.22,-1.33,-1.00,-1.01,-1.01
178.54,-0.38,0.69,-0.38,0.69,-0.69,-1.19,-1.28,-1.07,-1.07,-1.07
180.32,-0.49,0.65,-0.48,0.64,-0.64,-1.16,-1.24,-1.13,-1.13,-1.13
182.13,-0.60,0.59,-0.59,0.59,-0.59,-1.13,-1.19,-1.19,-1.19,-1.19
183.95,-0.70,0.54,-0.70,0.55,-0.55,-1.11,-1.14,-1.25,-1.24,-1.24
185.79,-0.80,0.50,-0.79,0.51,-0.51,-1.08,-1.10,-1.30,-1.30,-1.30
187.65,-0.89,0.46,-0.89,0.47,-0.47,-1.06,-1.05,-1.36,-1.36,-1.35
189.52,-0.99,0.42,-0.98,0.44,-0.44,-1.03,-1.01,-1.42,-1.41,-1.41
191.42,-1.07,0.40,-1.07,0.40,-0.40,-1.01,-0.97,-1.47,-1.47,-1.47
193.33,-1.15,0.38,-1.15,0.37,-0.37,-0.99,-0.93,-1.52,-1.52,-1.52
195.27,-1.24,0.34,-1.23,0.35,-0.35,-0.96,-0.89,-1.58,-1.57,-1.58
197.22,-1.30,0.34,-1.30,0.32,-0.32,-0.94,-0.85,-1.62,-1.62,-1.63
199.19,-1.38,0.30,-1.37,0.30,-0.30,-0.92,-0.81,-1.68,-1.67,-1.68
201.18,-1.45,0.28,-1.44,0.28,-0.28,-0.90,-0.77,-1.73,-1.72,-1.73
203.19,-1.50,0.28,-1.50,0.27,-0.27,-0.88,-0.74,-1.76,-1.77,-1.77
205.23,-1.57,0.25,-1.56,0.25,-0.25,-0.86,-0.70,-1.82,-1.82,-1.81
207.28,-1.62,0.24,-1.62,0.24,-0.24,-0.84,-0.67,-1.86,-1.86,-1.85
209.35,-1.68,0.23,-1.68,0.23,-0.23,-0.82,-0.64,-1.91,-1.90,-1.90
211.44,-1.73,0.21,-1.73,0.22,-0.22,-0.80,-0.60,-1.95,-1.95,-1.94
213.56,-1.78,0.21,-1.78,0.21,-0.21,-0.78,-0.57,-1.99,-1.98,-1.99
215.69,-1.82,0.21,-1.82,0.20,-0.20,-0.76,-0.54,-2.02,-2.02,-2.02
217.85,-1.87,0.19,-1.86,0.20,-0.20,-0.74,-0.51,-2.06,-2.06,-2.06
220.03,-1.91,0.20,-1.90,0.19,-0.19,-0.73,-0.48,-2.10,-2.10,-2.10
222.23,-1.94,0.20,-1.94,0.19,-0.19,-0.71,-0.45,-2.13,-2.13,-2.14
224.45,-1.98,0.19,-1.98,0.19,-0.19,-0.69,-0.43,-2.17,-2.17,-2.17
226.70,-2.02,0.19,-2.01,0.19,-0.19,-0.68,-0.40,-2.21,-2.20,-2.20
228.96,-2.04,0.19,-2.04,0.19,-0.19,-0.66,-0.38,-2.23,-2.23,-2.22
231.25,-2.07,0.19,-2.07,0.19,-0.19,-0.65,-0.35,-2.26,-2.26,-2.25
233.57,-2.10,0.19,-2.09,0.20,-0.20,-0.63,-0.33,-2.29,-2.29,-2.28
235.90,-2.12,0.21,-2.12,0.20,-0.20,-0.62,-0.31,-2.32,-2.32,-2.32
238.26,-2.14,0.22,-2.14,0.21,-0.21,-0.60,-0.28,-2.34,-2.34,-2.35
240.64,-2.16,0.20,-2.16,0.21,-0.21,-0.59,-0.26,-2.37,-2.37,-2.36
243.05,-2.17,0.22,-2.17,0.22,-0.22,-0.57,-0.25,-2.38,-2.39,-2.39
245.48,-2.19,0.23,-2.19,0.22,-0.22,-0.56,-0.23,-2.41,-2.41,-2.42
247.93,-2.21,0.24,-2.20,0.23,-0.23,-0.55,-0.21,-2.44,-2.43,-2.44
250.41,-2.21,0.24,-2.21,0.24,-0.24,-0.54,-0.19,-2.44,-2.45,-2.45
252.92,-2.23,0.24,-2.22,0.25,-0.25,-0.52,-0.18,-2.47,-2.47,-2.46
255.45,-2.24,0.25,-2.23,0.26,-0.26,-0.51,-0.17,-2.49,-2.49,-2.49
258.00,-2.24,0.27,-2.24,0.26,-0.26,-0.50,-0.15,-2.50,-2.51,-2.50
260.58,-2.25,0.27,-2.25,0.27,-0.27,-0.49,-0.14,-2.52,-2.52,-2.52
263.19,-2.25,0.29,-2.25,0.28,-0.28,-0.48,-0.13,-2.53,-2.54,-2.54
265.82,-2.26,0.29,-2.26,0.29,-0.29,-0.46,-0.12,-2.55,-2.55,-2.55
268.48,-2.27,0.30,-2.26,0.31,-0.31,-0.45,-0.11,-2.57,-2.57,-2.56
271.16,-2.27,0.32,-2.27,0.32,-0.32,-0.44,-0.10,-2.58,-2.58,-2.58
273.87,-2.28,0.32,-2.27,0.33,-0.33,-0.43,-0.09,-2.61,-2.60,-2.60
276.61,-2.28,0.34,-2.27,0.34,-0.34,-0.42,-0.08,-2.62,-2.61,-2.62
279.38,-2.28,0.36,-2.27,0.35,-0.35,-0.41,-0.08,-2.63,-2.63,-2.64
282.17,-2.28,0.37,-2.28,0.37,-0.37,-0.40,-0.07,-2.64,-2.64,-2.65
284.99,-2.28,0.37,-2.28,0.38,-0.38,-0.39,-0.06,-2.65,-2.65,-2.65
287.84,-2.28,0.38,-2.28,0.39,-0.39,-0.38,-0.06,-2.66,-2.67,-2.66
290.72,-2.28,0.41,-2.28,0.40,-0.40,-0.37,-0.05,-2.67,-2.68,-2.69
293.63,-2.28,0.41,-2.28,0.41,-0.41,-0.37,-0.05,-2.68,-2.69,-2.69
296.57,-2.28,0.42,-2.28,0.42,-0.42,-0.36,-0.04,-2.69,-2.70,-2.69
299.53,-2.28,0.43,-2.28,0.42,-0.42,-0.35,-0.04,-2.70,-2.70,-2.70
302.53,-2.29,0.42,-2.28,0.43,-0.43,-0.34,-0.04,-2.72,-2.71,-2.71
305.55,-2.28,0.44,-2.28,0.44,-0.44,-0.33,-0.03,-2.71,-2.72,-2.72
308.61,-2.29,0.44,-2.28,0.44,-0.44,-0.32,-0.03,-2.73,-2.72,-2.72
311.69,-2.29,0.45,-2.28,0.45,-0.45,-0.31,-0.03,-2.73,-2.73,-2.73
314.81,-2.29,0.45,-2.29,0.45,-0.45,-0.31,-0.02,-2.74,-2.74,-2.74
317.96,-2.29,0.46,-2.29,0.45,-0.45,-0.30,-0.02,-2.74,-2.74,-2.74
321.14,-2.29,0.45,-2.29,0.46,-0.46,-0.29,-0.02,-2.74,-2.75,-2.74
324.35,-2.30,0.46,-2.29,0.46,-0.46,-0.28,-0.02,-2.75,-2.75,-2.76
327.59,-2.30,0.45,-2.29,0.46,-0.46,-0.28,-0.01,-2.76,-2.75,-2.74
330.87,-2.30,0.45,-2.29,0.46,-0.46,-0.27,-0.01,-2.76,-2.75,-2.75
334.18,-2.30,0.47,-2.30,0.46,-0.46,-0.26,-0.01,-2.76,-2.76,-2.76
337.52,-2.30,0.46,-2.30,0.46,-0.46,-0.26,-0.01,-2.75,-2.76,-2.76
340.90,-2.30,0.47,-2.30,0.46,-0.46,-0.25,-0.00,-2.75,-2.76,-2.76
344.30,-2.31,0.45,-2.31,0.45,-0.45,-0.24,-0.00,-2.76,-2.76,-2.76
347.75,-2.32,0.44,-2.31,0.45,-0.45,-0.23,0.00,-2.77,-2.76,-2.75
351.23,-2.31,0.46,-2.31,0.45,-0.45,-0.23,0.00,-2.75,-2.76,-2.77
354.74,-2.32,0.44,-2.32,0.44,-0.44,-0.22,0.01,-2.76,-2.76,-2.75
358.28,-2.33,0.44,-2.32,0.44,-0.44,-0.22,0.01,-2.76,-2.76,-2.77
361.87,-2.33,0.43,-2.33,0.43,-0.43,-0.21,0.01,-2.76,-2.76,-2.76
365.49,-2.34,0.43,-2.34,0.43,-0.43,-0.20,0.01,-2.76,-2.76,-2.76
369.14,-2.35,0.41,-2.34,0.42,-0.42,-0.20,0.02,-2.77,-2.76,-2.76
372.83,-2.35,0.41,-2.35,0.41,-0.41,-0.19,0.02,-2.76,-2.76,-2.76
376.56,-2.36,0.41,-2.36,0.41,-0.41,-0.18,0.02,-2.76,-2.76,-2.76
380.33,-2.37,0.40,-2.37,0.40,-0.40,-0.18,0.03,-2.76,-2.76,-2.77
384.13,-2.38,0.39,-2.37,0.39,-0.39,-0.17,0.03,-2.77,-2.77,-2.77
387.97,-2.39,0.38,-2.38,0.38,-0.38,-0.17,0.03,-2.77,-2.77,-2.76
391.85,-2.40,0.37,-2.39,0.37,-0.37,-0.16,0.04,-2.77,-2.77,-2.77
395.77,-2.41,0.36,-2.40,0.36,-0.36,-0.15,0.04,-2.77,-2.77,-2.77
399.73,-2.42,0.36,-2.42,0.35,-0.35,-0.15,0.04,-2.77,-2.77,-2.77
403.72,-2.43,0.34,-2.43,0.34,-0.34,-0.14,0.05,-2.77,-2.77,-2.76
407.76,-2.44,0.33,-2.44,0.33,-0.33,-0.14,0.05,-2.77,-2.77,-2.77
411.84,-2.45,0.32,-2.45,0.32,-0.32,-0.13,0.05,-2.77,-2.77,-2.77
415.96,-2.46,0.31,-2.46,0.31,-0.31,-0.13,0.06,-2.76,-2.77,-2.76
420.12,-2.48,0.30,-2.47,0.30,-0.30,-0.12,0.06,-2.77,-2.77,-2.77
424.32,-2.49,0.29,-2.49,0.28,-0.28,-0.11,0.06,-2.77,-2.77,-2.78
428.56,-2.51,0.26,-2.50,0.27,-0.27,-0.11,0.07,-2.78,-2.77,-2.77
432.85,-2.52,0.25,-2.52,0.26,-0.26,-0.10,0.07,-2.78,-2.78,-2.77
437.18,-2.54,0.25,-2.53,0.25,-0.25,-0.10,0.08,-2.78,-2.78,-2.78
441.55,-2.55,0.24,-2.55,0.23,-0.23,-0.09,0.08,-2.78,-2.78,-2.78
445.96,-2.56,0.23,-2.56,0.22,-0.22,-0.08,0.08,-2.78,-2.78,-2.79
450.42,-2.58,0.21,-2.58,0.21,-0.21,-0.08,0.09,-2.78,-2.78,-2.79
454.93,-2.60,0.19,-2.59,0.19,-0.19,-0.07,0.09,-2.79,-2.78,-2.79
459.48,-2.62,0.17,-2.61,0.18,-0.18,-0.07,0.09,-2.79,-2.79,-2.79
464.07,-2.63,0.16,-2.63,0.16,-0.16,-0.06,0.10,-2.79,-2.79,-2.78
468.71,-2.65,0.14,-2.64,0.15,-0.15,-0.05,0.10,-2.79,-2.79,-2.78
473.40,-2.66,0.13,-2.66,0.13,-0.13,-0.05,0.11,-2.78,-2.79,-2.78
478.13,-2.68,0.11,-2.67,0.11,-0.11,-0.04,0.11,-2.79,-2.79,-2.79
482.91,-2.69,0.10,-2.69,0.09,-0.09,-0.03,0.11,-2.78,-2.78,-2.79
487.74,-2.71,0.07,-2.71,0.07,-0.07,-0.02,0.12,-2.78,-2.78,-2.78
492.62,-2.73,0.05,-2.73,0.05,-0.05,-0.02,0.12,-2.78,-2.78,-2.78
