frequency,raw,error,smoothed,error_smoothed,equalization,parametric_eq,fixed_band_eq,equalized_raw,equalized_smoothed,target
20.00,10.68,3.08,10.71,3.11,-3.11,-3.19,-1.35,7.57,7.60,7.59
20.20,10.70,3.11,10.72,3.13,-3.13,-3.19,-1.39,7.57,7.59,7.58
20.40,10.72,3.14,10.72,3.14,-3.14,-3.20,-1.43,7.57,7.58,7.57
20.61,10.74,3.16,10.73,3.16,-3.16,-3.20,-1.47,7.58,7.57,7.57
20.81,10.76,3.20,10.74,3.17,-3.17,-3.20,-1.52,7.58,7.56,7.55
21.02,10.78,3.22,10.74,3.19,-3.19,-3.21,-1.57,7.59,7.55,7.55
21.23,10.78,3.23,10.75,3.20,-3.20,-3.21,-1.61,7.57,7.54,7.54
21.44,10.78,3.22,10.76,3.22,-3.22,-3.21,-1.66,7.56,7.54,7.55
21.66,10.78,3.23,10.76,3.23,-3.23,-3.21,-1.72,7.55,7.53,7.54
21.87,10.78,3.24,10.77,3.24,-3.24,-3.22,-1.77,7.53,7.53,7.53
22.09,10.78,3.25,10.78,3.26,-3.26,-3.22,-1.82,7.52,7.52,7.52
22.31,10.78,3.25,10.78,3.27,-3.27,-3.22,-1.88,7.51,7.52,7.52
22.54,10.77,3.25,10.79,3.28,-3.28,-3.23,-1.93,7.49,7.51,7.51
22.76,10.77,3.26,10.80,3.29,-3.29,-3.23,-1.99,7.48,7.51,7.50
22.99,10.77,3.27,10.80,3.30,-3.30,-3.23,-2.05,7.47,7.50,7.49
23.22,10.79,3.30,10.81,3.31,-3.31,-3.24,-2.11,7.48,7.50,7.48
23.45,10.82,3.32,10.82,3.32,-3.32,-3.24,-2.18,7.50,7.50,7.49
23.69,10.84,3.35,10.82,3.33,-3.33,-3.24,-2.24,7.50,7.49,7.48
23.92,10.86,3.37,10.83,3.34,-3.34,-3.25,-2.31,7.51,7.49,7.48
24.16,10.87,3.37,10.84,3.35,-3.35,-3.25,-2.37,7.52,7.49,7.49
24.40,10.87,3.36,10.85,3.36,-3.36,-3.25,-2.44,7.51,7.49,7.50
24.65,10.87,3.36,10.86,3.36,-3.36,-3.26,-2.51,7.50,7.49,7.50
24.89,10.87,3.36,10.86,3.37,-3.37,-3.26,-2.58,7.50,7.50,7.50
25.14,10.87,3.37,10.87,3.37,-3.37,-3.26,-2.65,7.49,7.50,7.49
25.39,10.87,3.37,10.87,3.37,-3.37,-3.27,-2.72,7.50,7.50,7.49
25.65,10.87,3.37,10.87,3.37,-3.37,-3.27,-2.79,7.50,7.50,7.49
25.91,10.87,3.36,10.87,3.37,-3.37,-3.27,-2.86,7.50,7.50,7.50
26.16,10.87,3.35,10.87,3.36,-3.36,-3.28,-2.94,7.50,7.51,7.51
26.43,10.87,3.35,10.87,3.36,-3.36,-3.28,-3.01,7.50,7.51,7.51
26.69,10.87,3.35,10.87,3.36,-3.36,-3.28,-3.08,7.51,7.51,7.51
26.96,10.87,3.36,10.87,3.36,-3.36,-3.29,-3.15,7.51,7.51,7.50
27.23,10.87,3.36,10.87,3.36,-3.36,-3.29,-3.22,7.50,7.51,7.50
27.50,10.87,3.36,10.87,3.36,-3.36,-3.29,-3.29,7.50,7.51,7.50
27.77,10.87,3.35,10.87,3.37,-3.37,-3.30,-3.35,7.50,7.51,7.51
28.05,10.87,3.35,10.87,3.37,-3.37,-3.30,-3.42,7.50,7.51,7.51
28.33,10.87,3.37,10.88,3.37,-3.37,-3.31,-3.48,7.50,7.51,7.49
28.62,10.87,3.37,10.87,3.37,-3.37,-3.31,-3.54,7.50,7.51,7.49
28.90,10.87,3.36,10.87,3.37,-3.37,-3.31,-3.59,7.50,7.50,7.50
29.19,10.87,3.36,10.86,3.36,-3.36,-3.32,-3.65,7.50,7.50,7.50
29.48,10.87,3.37,10.85,3.36,-3.36,-3.32,-3.70,7.51,7.50,7.49
29.78,10.87,3.37,10.84,3.35,-3.35,-3.33,-3.74,7.52,7.49,7.49
30.08,10.86,3.35,10.83,3.34,-3.34,-3.33,-3.78,7.52,7.49,7.50
30.38,10.84,3.34,10.81,3.33,-3.33,-3.33,-3.82,7.51,7.48,7.49
30.68,10.81,3.33,10.79,3.32,-3.32,-3.34,-3.85,7.49,7.48,7.47
30.99,10.78,3.30,10.77,3.30,-3.30,-3.34,-3.88,7.47,7.47,7.47
31.30,10.75,3.28,10.76,3.29,-3.29,-3.35,-3.90,7.45,7.46,7.46
31.61,10.72,3.26,10.74,3.28,-3.28,-3.35,-3.92,7.43,7.46,7.45
31.93,10.69,3.24,10.72,3.27,-3.27,-3.36,-3.93,7.41,7.45,7.44
32.24,10.68,3.23,10.71,3.27,-3.27,-3.36,-3.94,7.41,7.44,7.44
32.57,10.68,3.25,10.70,3.26,-3.26,-3.37,-3.94,7.42,7.44,7.42
32.89,10.68,3.25,10.69,3.26,-3.26,-3.37,-3.94,7.42,7.43,7.42
33.22,10.68,3.25,10.68,3.26,-3.26,-3.38,-3.94,7.42,7.42,7.42
33.55,10.68,3.26,10.68,3.26,-3.26,-3.38,-3.93,7.42,7.42,7.41
33.89,10.68,3.25,10.68,3.26,-3.26,-3.39,-3.92,7.41,7.42,7.42
34.23,10.68,3.27,10.68,3.27,-3.27,-3.39,-3.90,7.41,7.41,7.40
34.57,10.68,3.27,10.67,3.27,-3.27,-3.40,-3.89,7.41,7.41,7.40
34.92,10.68,3.28,10.67,3.27,-3.27,-3.40,-3.87,7.41,7.40,7.39
35.27,10.68,3.27,10.66,3.26,-3.26,-3.41,-3.84,7.41,7.39,7.40
35.62,10.68,3.29,10.65,3.26,-3.26,-3.41,-3.82,7.42,7.38,7.38
35.97,10.68,3.29,10.63,3.26,-3.26,-3.42,-3.79,7.42,7.37,7.38
36.33,10.65,3.28,10.62,3.26,-3.26,-3.42,-3.77,7.39,7.36,7.36
36.70,10.61,3.25,10.60,3.26,-3.26,-3.43,-3.74,7.35,7.35,7.35
37.06,10.57,3.23,10.58,3.26,-3.26,-3.43,-3.71,7.31,7.33,7.33
37.43,10.54,3.22,10.57,3.26,-3.26,-3.44,-3.68,7.28,7.31,7.31
37.81,10.51,3.21,10.55,3.26,-3.26,-3.44,-3.65,7.25,7.29,7.29
38.19,10.49,3.22,10.53,3.26,-3.26,-3.45,-3.62,7.22,7.26,7.26
38.57,10.49,3.24,10.51,3.27,-3.27,-3.46,-3.60,7.22,7.24,7.24
38.95,10.49,3.27,10.49,3.28,-3.28,-3.46,-3.57,7.21,7.21,7.21
39.34,10.49,3.31,10.47,3.29,-3.29,-3.47,-3.55,7.20,7.19,7.17
39.74,10.49,3.33,10.45,3.29,-3.29,-3.48,-3.52,7.19,7.16,7.15
40.14,10.48,3.35,10.44,3.31,-3.31,-3.48,-3.50,7.17,7.13,7.12
40.54,10.44,3.33,10.43,3.32,-3.32,-3.49,-3.48,7.11,7.10,7.10
40.94,10.40,3.32,10.41,3.34,-3.34,-3.49,-3.46,7.06,7.08,7.07
41.35,10.39,3.33,10.40,3.35,-3.35,-3.50,-3.45,7.04,7.05,7.05
41.76,10.39,3.37,10.38,3.36,-3.36,-3.51,-3.43,7.03,7.02,7.01
42.18,10.37,3.37,10.36,3.37,-3.37,-3.52,-3.42,7.00,7.00,6.99
42.60,10.34,3.36,10.35,3.38,-3.38,-3.52,-3.41,6.96,6.97,6.97
43.03,10.30,3.35,10.32,3.38,-3.38,-3.53,-3.41,6.92,6.94,6.94
43.46,10.30,3.38,10.30,3.38,-3.38,-3.54,-3.40,6.91,6.92,6.91
43.90,10.30,3.40,10.28,3.39,-3.39,-3.54,-3.40,6.91,6.89,6.89
44.33,10.27,3.41,10.25,3.39,-3.39,-3.55,-3.40,6.88,6.86,6.85
44.78,10.22,3.39,10.22,3.40,-3.40,-3.56,-3.40,6.82,6.83,6.82
45.23,10.20,3.38,10.20,3.41,-3.41,-3.57,-3.41,6.79,6.80,6.81
45.68,10.20,3.43,10.18,3.42,-3.42,-3.57,-3.42,6.78,6.76,6.76
46.13,10.19,3.46,10.16,3.43,-3.43,-3.58,-3.43,6.75,6.73,6.72
46.60,10.14,3.44,10.13,3.45,-3.45,-3.59,-3.44,6.69,6.69,6.69
47.06,10.10,3.44,10.11,3.46,-3.46,-3.60,-3.46,6.63,6.65,6.65
47.53,10.06,3.43,10.09,3.48,-3.48,-3.61,-3.47,6.58,6.60,6.62
48.01,10.02,3.45,10.06,3.50,-3.50,-3.62,-3.49,6.52,6.56,6.56
48.49,10.02,3.50,10.03,3.51,-3.51,-3.62,-3.52,6.51,6.52,6.51
48.97,10.01,3.53,10.01,3.53,-3.53,-3.63,-3.54,6.47,6.47,6.47
49.46,10.01,3.57,9.99,3.56,-3.56,-3.64,-3.57,6.45,6.43,6.43
49.96,10.01,3.64,9.97,3.58,-3.58,-3.65,-3.59,6.42,6.38,6.36
50.46,9.97,3.64,9.94,3.60,-3.60,-3.66,-3.62,6.36,6.34,6.32
50.96,9.92,3.63,9.91,3.62,-3.62,-3.67,-3.65,6.30,6.29,6.28
51.47,9.87,3.62,9.88,3.64,-3.64,-3.68,-3.69,6.23,6.24,6.24
51.99,9.82,3.62,9.86,3.66,-3.66,-3.69,-3.72,6.16,6.20,6.19
52.51,9.82,3.66,9.83,3.68,-3.68,-3.70,-3.76,6.13,6.15,6.15
53.03,9.82,3.69,9.81,3.71,-3.71,-3.71,-3.79,6.11,6.10,6.12
53.56,9.82,3.75,9.78,3.72,-3.72,-3.72,-3.83,6.10,6.06,6.06
54.10,9.80,3.78,9.74,3.73,-3.73,-3.73,-3.86,6.07,6.01,6.01
54.64,9.69,3.71,9.71,3.74,-3.74,-3.74,-3.90,5.95,5.97,5.97
55.18,9.62,3.70,9.68,3.75,-3.75,-3.75,-3.93,5.87,5.93,5.91
55.74,9.62,3.75,9.65,3.76,-3.76,-3.76,-3.97,5.86,5.89,5.86
56.29,9.62,3.78,9.61,3.77,-3.77,-3.77,-4.00,5.85,5.84,5.83
56.86,9.62,3.82,9.58,3.78,-3.78,-3.78,-4.03,5.83,5.80,5.79
57.42,9.58,3.84,9.55,3.79,-3.79,-3.79,-4.07,5.78,5.75,5.73
58.00,9.53,3.82,9.51,3.80,-3.80,-3.80,-4.09,5.72,5.71,5.70
58.58,9.47,3.79,9.48,3.82,-3.82,-3.81,-4.12,5.65,5.66,5.67
59.16,9.43,3.79,9.44,3.83,-3.83,-3.83,-4.15,5.60,5.61,5.63
59.76,9.41,3.81,9.41,3.85,-3.85,-3.84,-4.17,5.56,5.56,5.59
60.35,9.38,3.85,9.38,3.87,-3.87,-3.85,-4.19,5.51,5.51,5.52
60.96,9.34,3.86,9.35,3.89,-3.89,-3.86,-4.21,5.45,5.46,5.47
61.57,9.29,3.88,9.31,3.91,-3.91,-3.87,-4.22,5.38,5.40,5.40
62.18,9.26,3.92,9.28,3.93,-3.93,-3.89,-4.23,5.33,5.35,5.33
62.80,9.24,3.96,9.24,3.95,-3.95,-3.90,-4.24,5.28,5.29,5.27
63.43,9.23,4.01,9.21,3.98,-3.98,-3.91,-4.24,5.25,5.23,5.21
64.07,9.21,4.04,9.17,4.00,-4.00,-3.93,-4.25,5.20,5.17,5.16
64.71,9.16,4.05,9.14,4.03,-4.03,-3.94,-4.25,5.13,5.11,5.10
65.35,9.10,4.05,9.11,4.06,-4.06,-3.95,-4.24,5.04,5.05,5.04
66.01,9.05,4.06,9.07,4.08,-4.08,-3.97,-4.24,4.96,4.99,4.98
66.67,9.05,4.10,9.03,4.11,-4.11,-3.98,-4.23,4.94,4.93,4.94
67.33,9.02,4.15,8.99,4.12,-4.12,-3.99,-4.22,4.89,4.87,4.86
68.01,8.95,4.13,8.95,4.14,-4.14,-4.01,-4.20,4.80,4.81,4.81
68.69,8.92,4.17,8.91,4.16,-4.16,-4.02,-4.19,4.75,4.74,4.74
69.37,8.87,4.17,8.87,4.18,-4.18,-4.04,-4.17,4.68,4.68,4.69
70.07,8.82,4.19,8.82,4.20,-4.20,-4.05,-4.16,4.61,4.62,4.62
70.77,8.77,4.20,8.78,4.23,-4.23,-4.06,-4.14,4.54,4.55,4.56
71.48,8.74,4.24,8.74,4.25,-4.25,-4.08,-4.12,4.49,4.49,4.49
72.19,8.70,4.27,8.70,4.28,-4.28,-4.09,-4.11,4.42,4.43,4.42
72.91,8.65,4.28,8.66,4.30,-4.30,-4.11,-4.09,4.35,4.36,4.36
73.64,8.59,4.29,8.62,4.32,-4.32,-4.12,-4.07,4.27,4.30,4.29
74.38,8.57,4.33,8.57,4.33,-4.33,-4.14,-4.05,4.23,4.24,4.23
75.12,8.57,4.40,8.54,4.36,-4.36,-4.16,-4.04,4.21,4.18,4.16
75.87,8.54,4.41,8.50,4.38,-4.38,-4.17,-4.02,4.16,4.12,4.12
76.63,8.49,4.43,8.46,4.40,-4.40,-4.19,-4.01,4.09,4.06,4.05
77.40,8.43,4.42,8.42,4.41,-4.41,-4.20,-4.00,4.01,4.01,4.00
78.17,8.37,4.42,8.38,4.43,-4.43,-4.22,-3.99,3.94,3.95,3.94
78.95,8.33,4.42,8.34,4.45,-4.45,-4.24,-3.98,3.88,3.89,3.90
79.74,8.29,4.44,8.30,4.46,-4.46,-4.25,-3.98,3.83,3.84,3.84
80.54,8.23,4.44,8.25,4.47,-4.47,-4.27,-3.98,3.76,3.78,3.78
81.35,8.19,4.45,8.21,4.48,-4.48,-4.29,-3.97,3.71,3.73,3.73
82.16,8.19,4.50,8.17,4.49,-4.49,-4.31,-3.98,3.69,3.67,3.68
82.98,8.19,4.56,8.12,4.50,-4.50,-4.32,-3.98,3.69,3.62,3.62
83.81,8.06,4.49,8.06,4.50,-4.50,-4.34,-3.99,3.55,3.56,3.56
84.65,8.00,4.49,8.02,4.52,-4.52,-4.36,-4.00,3.48,3.50,3.50
85.50,7.99,4.55,7.98,4.53,-4.53,-4.38,-4.01,3.45,3.44,3.43
86.35,7.95,4.57,7.93,4.55,-4.55,-4.39,-4.03,3.40,3.38,3.37
87.22,7.87,4.54,7.89,4.57,-4.57,-4.41,-4.05,3.30,3.32,3.32
88.09,7.80,4.54,7.84,4.58,-4.58,-4.43,-4.07,3.22,3.26,3.25
88.97,7.80,4.59,7.79,4.59,-4.59,-4.45,-4.10,3.21,3.20,3.20
89.86,7.77,4.64,7.74,4.61,-4.61,-4.47,-4.13,3.16,3.13,3.12
90.76,7.66,4.59,7.69,4.62,-4.62,-4.49,-4.16,3.03,3.06,3.06
91.66,7.62,4.62,7.64,4.65,-4.65,-4.51,-4.20,2.97,3.00,2.99
92.58,7.62,4.68,7.60,4.67,-4.67,-4.52,-4.23,2.95,2.93,2.93
93.51,7.60,4.73,7.56,4.70,-4.70,-4.54,-4.27,2.89,2.85,2.86
94.44,7.52,4.72,7.51,4.73,-4.73,-4.56,-4.32,2.79,2.78,2.79
95.39,7.42,4.70,7.46,4.75,-4.75,-4.58,-4.36,2.66,2.70,2.71
96.34,7.37,4.73,7.40,4.78,-4.78,-4.60,-4.41,2.59,2.63,2.63
97.30,7.32,4.76,7.34,4.80,-4.80,-4.62,-4.47,2.52,2.55,2.55
98.28,7.31,4.84,7.28,4.82,-4.82,-4.64,-4.52,2.49,2.47,2.46
99.26,7.28,4.90,7.22,4.83,-4.83,-4.66,-4.58,2.44,2.39,2.37
100.25,7.22,4.92,7.16,4.85,-4.85,-4.68,-4.63,2.36,2.31,2.29
101.25,7.14,4.91,7.10,4.87,-4.87,-4.70,-4.69,2.26,2.22,2.22
102.27,7.02,4.88,7.03,4.89,-4.89,-4.72,-4.76,2.13,2.14,2.13
103.29,6.94,4.88,6.95,4.90,-4.90,-4.74,-4.82,2.04,2.06,2.05
104.32,6.86,4.87,6.88,4.90,-4.90,-4.76,-4.88,1.95,1.98,1.98
105.37,6.78,4.87,6.80,4.91,-4.91,-4.78,-4.95,1.87,1.89,1.90
106.42,6.69,4.87,6.73,4.92,-4.92,-4.80,-5.01,1.77,1.81,1.81
107.48,6.66,4.93,6.66,4.92,-4.92,-4.82,-5.08,1.73,1.73,1.72
108.56,6.64,4.97,6.58,4.93,-4.93,-4.84,-5.14,1.71,1.66,1.66
109.64,6.56,4.98,6.51,4.94,-4.94,-4.86,-5.20,1.62,1.58,1.57
110.74,6.43,4.93,6.45,4.95,-4.95,-4.88,-5.26,1.48,1.50,1.49
111.85,6.36,4.93,6.38,4.96,-4.96,-4.90,-5.32,1.40,1.42,1.42
112.97,6.29,4.93,6.32,4.97,-4.97,-4.92,-5.38,1.32,1.35,1.35
114.10,6.23,4.94,6.26,4.99,-4.99,-4.94,-5.43,1.24,1.28,1.28
115.24,6.18,4.97,6.21,5.00,-5.00,-4.96,-5.48,1.17,1.20,1.20
116.39,6.18,5.05,6.15,5.02,-5.02,-4.98,-5.53,1.16,1.13,1.12
117.55,6.16,5.09,6.10,5.03,-5.03,-5.00,-5.57,1.12,1.07,1.06
118.73,6.05,5.06,6.05,5.05,-5.05,-5.02,-5.61,1.00,1.00,0.98
119.92,6.01,5.08,6.00,5.07,-5.07,-5.03,-5.64,0.94,0.93,0.92
121.12,5.96,5.08,5.96,5.09,-5.09,-5.05,-5.67,0.87,0.87,0.87
122.33,5.88,5.07,5.91,5.11,-5.11,-5.07,-5.69,0.77,0.81,0.80
123.55,5.84,5.08,5.87,5.13,-5.13,-5.09,-5.71,0.71,0.74,0.75
124.79,5.85,5.15,5.83,5.15,-5.15,-5.11,-5.72,0.70,0.68,0.69
126.03,5.79,5.16,5.78,5.16,-5.16,-5.13,-5.73,0.63,0.62,0.62
127.29,5.74,5.17,5.73,5.17,-5.17,-5.15,-5.72,0.56,0.56,0.56
128.57,5.69,5.18,5.68,5.18,-5.18,-5.16,-5.72,0.51,0.50,0.50
129.85,5.68,5.24,5.63,5.19,-5.19,-5.18,-5.71,0.49,0.44,0.43
131.15,5.59,5.21,5.58,5.20,-5.20,-5.20,-5.69,0.39,0.38,0.37
132.46,5.53,5.21,5.53,5.21,-5.21,-5.22,-5.66,0.32,0.32,0.31
133.79,5.48,5.22,5.48,5.22,-5.22,-5.23,-5.64,0.26,0.26,0.25
135.12,5.40,5.20,5.42,5.22,-5.22,-5.25,-5.61,0.17,0.20,0.19
136.48,5.34,5.18,5.37,5.23,-5.23,-5.26,-5.57,0.11,0.14,0.15
137.84,5.32,5.22,5.31,5.23,-5.23,-5.28,-5.53,0.08,0.08,0.09
139.22,5.27,5.25,5.26,5.23,-5.23,-5.29,-5.49,0.04,0.02,0.01
140.61,5.21,5.23,5.20,5.23,-5.23,-5.31,-5.44,-0.02,-0.03,-0.03
142.02,5.13,5.21,5.14,5.23,-5.23,-5.32,-5.40,-0.10,-0.09,-0.09
143.44,5.08,5.23,5.08,5.23,-5.23,-5.34,-5.35,-0.15,-0.15,-0.16
144.87,5.04,5.24,5.03,5.23,-5.23,-5.35,-5.30,-0.19,-0.20,-0.21
146.32,5.01,5.26,4.98,5.24,-5.24,-5.36,-5.25,-0.23,-0.26,-0.26
147.78,4.92,5.23,4.93,5.24,-5.24,-5.38,-5.20,-0.32,-0.31,-0.32
149.26,4.86,5.22,4.87,5.24,-5.24,-5.39,-5.15,-0.39,-0.37,-0.37
150.75,4.84,5.27,4.82,5.25,-5.25,-5.40,-5.11,-0.41,-0.43,-0.44
152.26,4.76,5.23,4.77,5.25,-5.25,-5.41,-5.06,-0.50,-0.48,-0.48
153.78,4.67,5.20,4.72,5.26,-5.26,-5.42,-5.01,-0.59,-0.54,-0.54
155.32,4.65,5.23,4.66,5.26,-5.26,-5.43,-4.97,-0.61,-0.59,-0.59
156.88,4.65,5.29,4.61,5.26,-5.26,-5.44,-4.93,-0.62,-0.65,-0.65
158.44,4.59,5.29,4.56,5.27,-5.27,-5.44,-4.89,-0.69,-0.71,-0.71
160.03,4.51,5.27,4.50,5.27,-5.27,-5.45,-4.85,-0.77,-0.77,-0.77
161.63,4.46,5.28,4.45,5.27,-5.27,-5.46,-4.81,-0.82,-0.83,-0.83
163.24,4.39,5.28,4.39,5.28,-5.28,-5.46,-4.78,-0.89,-0.89,-0.90
164.88,4.33,5.27,4.33,5.28,-5.28,-5.47,-4.75,-0.95,-0.95,-0.95
166.53,4.28,5.29,4.27,5.28,-5.28,-5.47,-4.73,-1.00,-1.01,-1.02
168.19,4.23,5.29,4.20,5.27,-5.27,-5.48,-4.71,-1.05,-1.07,-1.07
169.87,4.16,5.28,4.14,5.27,-5.27,-5.48,-4.69,-1.12,-1.13,-1.13
171.57,4.07,5.26,4.08,5.27,-5.27,-5.48,-4.67,-1.20,-1.19,-1.20
173.29,4.04,5.29,4.01,5.26,-5.26,-5.48,-4.66,-1.22,-1.25,-1.26
175.02,3.95,5.25,3.95,5.26,-5.26,-5.48,-4.65,-1.31,-1.31,-1.31
176.77,3.85,5.20,3.90,5.26,-5.26,-5.48,-4.65,-1.41,-1.36,-1.36
178.54,3.84,5.25,3.84,5.25,-5.25,-5.48,-4.64,-1.42,-1.41,-1.42
180.32,3.79,5.26,3.79,5.25,-5.25,-5.48,-4.65,-1.47,-1.46,-1.48
182.13,3.71,5.22,3.74,5.26,-5.26,-5.47,-4.65,-1.55,-1.52,-1.52
183.95,3.67,5.23,3.70,5.26,-5.26,-5.47,-4.66,-1.59,-1.57,-1.57
185.79,3.66,5.27,3.65,5.27,-5.27,-5.46,-4.67,-1.61,-1.61,-1.62
187.65,3.61,5.26,3.61,5.27,-5.27,-5.46,-4.69,-1.67,-1.66,-1.66
189.52,3.56,5.26,3.57,5.28,-5.28,-5.45,-4.71,-1.72,-1.71,-1.71
191.42,3.54,5.27,3.54,5.29,-5.29,-5.44,-4.73,-1.75,-1.75,-1.74
193.33,3.54,5.32,3.49,5.29,-5.29,-5.43,-4.75,-1.75,-1.79,-1.79
195.27,3.47,5.30,3.45,5.29,-5.29,-5.42,-4.78,-1.82,-1.84,-1.84
197.22,3.40,5.28,3.41,5.29,-5.29,-5.41,-4.81,-1.89,-1.88,-1.89
199.19,3.39,5.30,3.36,5.28,-5.28,-5.40,-4.85,-1.89,-1.92,-1.92
201.18,3.35,5.31,3.31,5.27,-5.27,-5.39,-4.88,-1.92,-1.96,-1.97
203.19,3.30,5.29,3.25,5.25,-5.25,-5.37,-4.92,-1.96,-2.00,-2.00
205.23,3.21,5.24,3.20,5.23,-5.23,-5.36,-4.96,-2.03,-2.04,-2.04
207.28,3.13,5.19,3.13,5.21,-5.21,-5.34,-5.00,-2.08,-2.08,-2.07
209.35,3.07,5.17,3.07,5.19,-5.19,-5.32,-5.04,-2.12,-2.12,-2.11
211.44,3.01,5.16,3.02,5.17,-5.17,-5.31,-5.08,-2.16,-2.16,-2.16
213.56,2.94,5.12,2.95,5.15,-5.15,-5.29,-5.12,-2.21,-2.19,-2.19
215.69,2.89,5.11,2.89,5.12,-5.12,-5.27,-5.16,-2.23,-2.23,-2.23
217.85,2.82,5.07,2.84,5.10,-5.10,-5.25,-5.20,-2.28,-2.26,-2.26
220.03,2.75,5.05,2.78,5.08,-5.08,-5.22,-5.24,-2.33,-2.29,-2.31
222.23,2.72,5.04,2.73,5.05,-5.05,-5.20,-5.28,-2.34,-2.32,-2.33
224.45,2.71,5.06,2.69,5.04,-5.04,-5.18,-5.32,-2.33,-2.35,-2.36
226.70,2.63,5.01,2.65,5.02,-5.02,-5.15,-5.35,-2.40,-2.38,-2.39
228.96,2.62,5.02,2.61,5.01,-5.01,-5.13,-5.38,-2.40,-2.40,-2.41
231.25,2.63,5.04,2.58,5.00,-5.00,-5.10,-5.41,-2.38,-2.42,-2.42
233.57,2.56,5.00,2.55,4.99,-4.99,-5.08,-5.43,-2.43,-2.44,-2.45
235.90,2.46,4.91,2.53,4.98,-4.98,-5.05,-5.45,-2.52,-2.45,-2.46
238.26,2.48,4.95,2.50,4.97,-4.97,-5.02,-5.47,-2.49,-2.46,-2.48
240.64,2.50,4.96,2.48,4.95,-4.95,-4.99,-5.48,-2.46,-2.47,-2.47
243.05,2.45,4.92,2.45,4.93,-4.93,-4.96,-5.48,-2.49,-2.48,-2.48
245.48,2.43,4.92,2.42,4.92,-4.92,-4.93,-5.48,-2.49,-2.49,-2.50
247.93,2.45,4.95,2.40,4.89,-4.89,-4.90,-5.47,-2.45,-2.50,-2.51
250.41,2.39,4.88,2.37,4.87,-4.87,-4.86,-5.45,-2.48,-2.50,-2.50
252.92,2.36,4.85,2.34,4.85,-4.85,-4.83,-5.43,-2.49,-2.51,-2.50
255.45,2.33,4.84,2.30,4.83,-4.83,-4.80,-5.41,-2.50,-2.52,-2.52
258.00,2.29,4.81,2.27,4.80,-4.80,-4.76,-5.37,-2.51,-2.53,-2.53
260.58,2.24,4.77,2.24,4.78,-4.78,-4.73,-5.33,-2.54,-2.54,-2.54
263.19,2.16,4.70,2.21,4.76,-4.76,-4.69,-5.29,-2.61,-2.55,-2.55
265.82,2.14,4.70,2.17,4.74,-4.74,-4.65,-5.24,-2.60,-2.57,-2.57
268.48,2.13,4.69,2.14,4.72,-4.72,-4.62,-5.18,-2.59,-2.58,-2.57
271.16,2.13,4.71,2.10,4.69,-4.69,-4.58,-5.13,-2.57,-2.59,-2.59
273.87,2.06,4.65,2.07,4.67,-4.67,-4.54,-5.06,-2.61,-2.60,-2.60
276.61,2.03,4.64,2.02,4.64,-4.64,-4.50,-5.00,-2.61,-2.61,-2.62
279.38,1.98,4.62,1.99,4.61,-4.61,-4.46,-4.93,-2.63,-2.62,-2.65
282.17,1.94,4.58,1.95,4.59,-4.59,-4.42,-4.85,-2.65,-2.63,-2.65
284.99,1.94,4.58,1.92,4.56,-4.56,-4.38,-4.78,-2.62,-2.64,-2.65
287.84,1.95,4.59,1.89,4.53,-4.53,-4.34,-4.70,-2.59,-2.65,-2.65
290.72,1.89,4.55,1.85,4.51,-4.51,-4.30,-4.62,-2.62,-2.65,-2.67
293.63,1.79,4.44,1.81,4.47,-4.47,-4.26,-4.54,-2.69,-2.66,-2.66
296.57,1.75,4.40,1.77,4.44,-4.44,-4.22,-4.46,-2.69,-2.66,-2.66
299.53,1.71,4.37,1.74,4.40,-4.40,-4.18,-4.38,-2.69,-2.67,-2.67
302.53,1.65,4.30,1.69,4.36,-4.36,-4.13,-4.30,-2.72,-2.67,-2.66
305.55,1.63,4.29,1.65,4.32,-4.32,-4.09,-4.22,-2.69,-2.67,-2.67
308.61,1.65,4.30,1.61,4.28,-4.28,-4.05,-4.14,-2.63,-2.67,-2.66
311.69,1.65,4.32,1.56,4.24,-4.24,-4.01,-4.06,-2.59,-2.67,-2.68
314.81,1.54,4.20,1.52,4.19,-4.19,-3.96,-3.99,-2.66,-2.67,-2.67
317.96,1.47,4.15,1.47,4.15,-4.15,-3.92,-3.91,-2.68,-2.68,-2.69
321.14,1.40,4.07,1.42,4.10,-4.10,-3.88,-3.84,-2.71,-2.68,-2.68
324.35,1.37,4.05,1.38,4.06,-4.06,-3.83,-3.77,-2.69,-2.68,-2.69
327.59,1.37,4.04,1.34,4.02,-4.02,-3.79,-3.70,-2.65,-2.68,-2.68
330.87,1.31,3.99,1.29,3.98,-3.98,-3.75,-3.63,-2.67,-2.69,-2.69
334.18,1.20,3.89,1.25,3.94,-3.94,-3.70,-3.57,-2.74,-2.69,-2.70
337.52,1.17,3.85,1.21,3.89,-3.89,-3.66,-3.50,-2.73,-2.69,-2.69
340.90,1.17,3.86,1.16,3.85,-3.85,-3.62,-3.44,-2.68,-2.69,-2.70
344.30,1.15,3.83,1.11,3.80,-3.80,-3.57,-3.38,-2.65,-2.69,-2.69
347.75,1.05,3.72,1.07,3.75,-3.75,-3.53,-3.33,-2.70,-2.68,-2.68
351.23,0.99,3.68,1.03,3.71,-3.71,-3.49,-3.28,-2.72,-2.68,-2.70
354.74,0.98,3.65,0.99,3.66,-3.66,-3.44,-3.22,-2.69,-2.68,-2.68
358.28,0.99,3.66,0.95,3.62,-3.62,-3.40,-3.18,-2.64,-2.67,-2.68
361.87,0.99,3.66,0.91,3.58,-3.58,-3.36,-3.13,-2.59,-2.67,-2.68
365.49,0.87,3.53,0.86,3.53,-3.53,-3.31,-3.09,-2.66,-2.67,-2.67
369.14,0.82,3.47,0.83,3.49,-3.49,-3.27,-3.05,-2.67,-2.66,-2.66
372.83,0.77,3.41,0.79,3.45,-3.45,-3.23,-3.01,-2.68,-2.66,-2.65
376.56,0.73,3.38,0.75,3.40,-3.40,-3.18,-2.97,-2.68,-2.66,-2.66
380.33,0.67,3.32,0.71,3.36,-3.36,-3.14,-2.94,-2.69,-2.66,-2.66
384.13,0.65,3.29,0.67,3.33,-3.33,-3.10,-2.90,-2.68,-2.66,-2.65
387.97,0.66,3.30,0.63,3.29,-3.29,-3.06,-2.87,-2.64,-2.66,-2.65
391.85,0.65,3.30,0.59,3.25,-3.25,-3.02,-2.85,-2.61,-2.66,-2.66
395.77,0.55,3.21,0.55,3.21,-3.21,-2.97,-2.82,-2.67,-2.67,-2.67
399.73,0.48,3.14,0.50,3.18,-3.18,-2.93,-2.80,-2.70,-2.67,-2.67
403.72,0.47,3.12,0.47,3.14,-3.14,-2.89,-2.77,-2.68,-2.68,-2.66
407.76,0.46,3.13,0.43,3.11,-3.11,-2.85,-2.75,-2.65,-2.68,-2.68
411.84,0.41,3.09,0.39,3.08,-3.08,-2.81,-2.73,-2.67,-2.68,-2.69
415.96,0.37,3.05,0.36,3.04,-3.04,-2.77,-2.71,-2.68,-2.69,-2.69
420.12,0.36,3.05,0.33,3.01,-3.01,-2.73,-2.70,-2.65,-2.68,-2.70
424.32,0.29,2.97,0.29,2.97,-2.97,-2.69,-2.68,-2.68,-2.67,-2.69
428.56,0.22,2.88,0.26,2.92,-2.92,-2.65,-2.67,-2.70,-2.66,-2.67
432.85,0.20,2.84,0.23,2.88,-2.88,-2.61,-2.65,-2.68,-2.64,-2.65
437.18,0.23,2.86,0.22,2.83,-2.83,-2.57,-2.64,-2.61,-2.62,-2.64
441.55,0.22,2.82,0.21,2.79,-2.79,-2.53,-2.62,-2.58,-2.58,-2.61
445.96,0.15,2.71,0.20,2.75,-2.75,-2.49,-2.61,-2.61,-2.55,-2.57
450.42,0.17,2.69,0.20,2.71,-2.71,-2.45,-2.59,-2.54,-2.51,-2.53
454.93,0.23,2.70,0.21,2.67,-2.67,-2.41,-2.58,-2.44,-2.46,-2.48
459.48,0.24,2.65,0.22,2.63,-2.63,-2.38,-2.56,-2.39,-2.41,-2.42
464.07,0.18,2.52,0.23,2.59,-2.59,-2.34,-2.54,-2.41,-2.35,-2.35
468.71,0.21,2.50,0.24,2.54,-2.54,-2.30,-2.53,-2.34,-2.30,-2.30
473.40,0.28,2.51,0.26,2.50,-2.50,-2.27,-2.51,-2.23,-2.25,-2.24
478.13,0.31,2.48,0.27,2.47,-2.47,-2.23,-2.49,-2.16,-2.19,-2.18
482.91,0.30,2.42,0.28,2.42,-2.42,-2.19,-2.47,-2.13,-2.14,-2.13
487.74,0.32,2.41,0.28,2.38,-2.38,-2.16,-2.45,-2.06,-2.10,-2.10
492.62,0.32,2.37,0.28,2.34,-2.34,-2.12,-2.42,-2.02,-2.06,-2.06
497.55,0.30,2.31,0.27,2.30,-2.30,-2.09,-2.40,-2.00,-2.02,-2.02
