frequency,raw,error,smoothed,error_smoothed,equalization,parametric_eq,fixed_band_eq,equalized_raw,equalized_smoothed,target
20.00,10.68,3.08,10.67,3.08,-3.09,-3.15,-1.42,7.58,7.58,7.59
20.20,10.70,3.11,10.70,3.11,-3.12,-3.15,-1.46,7.58,7.58,7.58
20.40,10.72,3.14,10.72,3.14,-3.14,-3.15,-1.50,7.57,7.58,7.57
20.61,10.74,3.16,10.74,3.17,-3.17,-3.16,-1.54,7.57,7.57,7.57
20.81,10.76,3.20,10.76,3.20,-3.19,-3.16,-1.59,7.57,7.57,7.55
21.02,10.78,3.22,10.77,3.22,-3.20,-3.16,-1.63,7.57,7.57,7.55
21.23,10.78,3.23,10.78,3.23,-3.22,-3.17,-1.68,7.56,7.56,7.54
21.44,10.78,3.22,10.78,3.23,-3.23,-3.17,-1.73,7.54,7.55,7.55
21.66,10.78,3.23,10.78,3.24,-3.24,-3.17,-1.78,7.54,7.54,7.54
21.87,10.78,3.24,10.78,3.24,-3.24,-3.18,-1.83,7.53,7.53,7.53
22.09,10.78,3.25,10.78,3.25,-3.25,-3.18,-1.89,7.53,7.53,7.52
22.31,10.78,3.25,10.77,3.25,-3.25,-3.18,-1.94,7.52,7.52,7.52
22.54,10.77,3.25,10.77,3.26,-3.26,-3.18,-2.00,7.50,7.51,7.51
22.76,10.77,3.26,10.77,3.26,-3.28,-3.19,-2.06,7.49,7.49,7.50
22.99,10.77,3.27,10.77,3.28,-3.29,-3.19,-2.11,7.48,7.48,7.49
23.22,10.79,3.30,10.79,3.30,-3.31,-3.19,-2.18,7.48,7.48,7.48
23.45,10.82,3.32,10.81,3.33,-3.32,-3.20,-2.24,7.49,7.49,7.49
23.69,10.84,3.35,10.84,3.35,-3.34,-3.20,-2.30,7.50,7.50,7.48
23.92,10.86,3.37,10.86,3.37,-3.35,-3.20,-2.36,7.51,7.50,7.48
24.16,10.87,3.37,10.86,3.37,-3.36,-3.21,-2.43,7.50,7.50,7.49
24.40,10.87,3.36,10.87,3.37,-3.37,-3.21,-2.50,7.50,7.50,7.50
24.65,10.87,3.36,10.87,3.36,-3.37,-3.21,-2.56,7.49,7.49,7.50
24.89,10.87,3.36,10.87,3.37,-3.37,-3.22,-2.63,7.49,7.49,7.50
25.14,10.87,3.37,10.87,3.37,-3.37,-3.22,-2.70,7.50,7.50,7.49
25.39,10.87,3.37,10.87,3.37,-3.37,-3.22,-2.77,7.50,7.50,7.49
25.65,10.87,3.37,10.87,3.37,-3.36,-3.23,-2.84,7.50,7.50,7.49
25.91,10.87,3.36,10.87,3.36,-3.36,-3.23,-2.91,7.50,7.50,7.50
26.16,10.87,3.35,10.87,3.36,-3.36,-3.23,-2.98,7.50,7.50,7.51
26.43,10.87,3.35,10.87,3.35,-3.36,-3.24,-3.05,7.51,7.51,7.51
26.69,10.87,3.35,10.87,3.36,-3.36,-3.24,-3.12,7.51,7.51,7.51
26.96,10.87,3.36,10.87,3.36,-3.36,-3.24,-3.19,7.51,7.51,7.50
27.23,10.87,3.36,10.87,3.36,-3.36,-3.25,-3.26,7.51,7.51,7.50
27.50,10.87,3.36,10.87,3.36,-3.36,-3.25,-3.33,7.51,7.51,7.50
27.77,10.87,3.35,10.87,3.36,-3.36,-3.26,-3.39,7.51,7.51,7.51
28.05,10.87,3.35,10.87,3.36,-3.36,-3.26,-3.45,7.50,7.50,7.51
28.33,10.87,3.37,10.87,3.37,-3.37,-3.26,-3.51,7.50,7.50,7.49
28.62,10.87,3.37,10.87,3.37,-3.37,-3.27,-3.57,7.50,7.50,7.49
28.90,10.87,3.36,10.87,3.37,-3.37,-3.27,-3.62,7.50,7.50,7.50
29.19,10.87,3.36,10.87,3.37,-3.37,-3.28,-3.67,7.50,7.50,7.50
29.48,10.87,3.37,10.87,3.37,-3.37,-3.28,-3.72,7.50,7.50,7.49
29.78,10.87,3.37,10.87,3.37,-3.36,-3.29,-3.76,7.50,7.50,7.49
30.08,10.86,3.35,10.86,3.36,-3.35,-3.29,-3.80,7.51,7.50,7.50
30.38,10.84,3.34,10.84,3.34,-3.34,-3.29,-3.84,7.50,7.50,7.49
30.68,10.81,3.33,10.81,3.33,-3.32,-3.30,-3.87,7.49,7.49,7.47
30.99,10.78,3.30,10.78,3.31,-3.30,-3.30,-3.89,7.47,7.47,7.47
31.30,10.75,3.28,10.75,3.28,-3.29,-3.31,-3.91,7.46,7.46,7.46
31.61,10.72,3.26,10.72,3.26,-3.27,-3.31,-3.92,7.45,7.44,7.45
31.93,10.69,3.24,10.69,3.25,-3.26,-3.32,-3.94,7.43,7.43,7.44
32.24,10.68,3.23,10.68,3.24,-3.25,-3.32,-3.94,7.43,7.43,7.44
32.57,10.68,3.25,10.67,3.24,-3.25,-3.33,-3.94,7.43,7.43,7.42
32.89,10.68,3.25,10.68,3.25,-3.25,-3.33,-3.94,7.43,7.43,7.42
33.22,10.68,3.25,10.68,3.26,-3.25,-3.34,-3.93,7.43,7.43,7.42
33.55,10.68,3.26,10.68,3.26,-3.26,-3.34,-3.92,7.42,7.42,7.41
33.89,10.68,3.25,10.68,3.26,-3.26,-3.35,-3.91,7.41,7.41,7.42
34.23,10.68,3.27,10.68,3.27,-3.27,-3.35,-3.89,7.41,7.41,7.40
34.57,10.68,3.27,10.68,3.27,-3.28,-3.36,-3.87,7.40,7.40,7.40
34.92,10.68,3.28,10.68,3.28,-3.28,-3.37,-3.85,7.39,7.39,7.39
35.27,10.68,3.27,10.68,3.28,-3.28,-3.37,-3.82,7.39,7.40,7.40
35.62,10.68,3.29,10.68,3.29,-3.28,-3.38,-3.79,7.40,7.40,7.38
35.97,10.68,3.29,10.67,3.29,-3.27,-3.38,-3.77,7.40,7.40,7.38
36.33,10.65,3.28,10.64,3.28,-3.26,-3.39,-3.74,7.38,7.38,7.36
36.70,10.61,3.25,10.61,3.26,-3.25,-3.40,-3.71,7.36,7.36,7.35
37.06,10.57,3.23,10.57,3.24,-3.24,-3.40,-3.68,7.32,7.33,7.33
37.43,10.54,3.22,10.53,3.22,-3.24,-3.41,-3.65,7.30,7.30,7.31
37.81,10.51,3.21,10.51,3.22,-3.24,-3.41,-3.62,7.27,7.27,7.29
38.19,10.49,3.22,10.49,3.22,-3.25,-3.42,-3.59,7.24,7.25,7.26
38.57,10.49,3.24,10.49,3.25,-3.26,-3.43,-3.56,7.23,7.23,7.24
38.95,10.49,3.27,10.49,3.28,-3.27,-3.43,-3.54,7.21,7.21,7.21
39.34,10.49,3.31,10.49,3.31,-3.29,-3.44,-3.51,7.20,7.20,7.17
39.74,10.49,3.33,10.49,3.33,-3.31,-3.45,-3.49,7.18,7.18,7.15
40.14,10.48,3.35,10.47,3.34,-3.33,-3.46,-3.46,7.15,7.14,7.12
40.54,10.44,3.33,10.44,3.33,-3.34,-3.46,-3.44,7.10,7.10,7.10
40.94,10.40,3.32,10.41,3.33,-3.35,-3.47,-3.43,7.05,7.06,7.07
41.35,10.39,3.33,10.39,3.34,-3.35,-3.48,-3.41,7.03,7.04,7.05
41.76,10.39,3.37,10.38,3.36,-3.36,-3.49,-3.40,7.03,7.02,7.01
42.18,10.37,3.37,10.36,3.37,-3.36,-3.49,-3.38,7.00,7.00,6.99
42.60,10.34,3.36,10.33,3.37,-3.37,-3.50,-3.38,6.97,6.97,6.97
43.03,10.30,3.35,10.31,3.37,-3.37,-3.51,-3.37,6.92,6.94,6.94
43.46,10.30,3.38,10.30,3.38,-3.38,-3.52,-3.37,6.92,6.92,6.91
43.90,10.30,3.40,10.28,3.40,-3.39,-3.53,-3.36,6.91,6.89,6.89
44.33,10.27,3.41,10.26,3.40,-3.40,-3.53,-3.36,6.87,6.86,6.85
44.78,10.22,3.39,10.23,3.40,-3.41,-3.54,-3.37,6.81,6.82,6.82
45.23,10.20,3.38,10.21,3.41,-3.41,-3.55,-3.37,6.78,6.79,6.81
45.68,10.20,3.43,10.19,3.42,-3.42,-3.56,-3.38,6.78,6.77,6.76
46.13,10.19,3.46,10.17,3.44,-3.42,-3.57,-3.39,6.76,6.75,6.72
46.60,10.14,3.44,10.14,3.45,-3.43,-3.58,-3.41,6.71,6.71,6.69
47.06,10.10,3.44,10.10,3.44,-3.45,-3.59,-3.43,6.65,6.65,6.65
47.53,10.06,3.43,10.06,3.44,-3.47,-3.60,-3.44,6.59,6.59,6.62
48.01,10.02,3.45,10.03,3.46,-3.49,-3.61,-3.46,6.53,6.54,6.56
48.49,10.02,3.50,10.01,3.49,-3.52,-3.62,-3.49,6.50,6.50,6.51
48.97,10.01,3.53,10.01,3.54,-3.54,-3.63,-3.51,6.47,6.47,6.47
49.46,10.01,3.57,10.01,3.59,-3.56,-3.64,-3.54,6.45,6.45,6.43
49.96,10.01,3.64,10.00,3.62,-3.58,-3.65,-3.57,6.42,6.41,6.36
50.46,9.97,3.64,9.97,3.64,-3.61,-3.66,-3.60,6.36,6.36,6.32
50.96,9.92,3.63,9.92,3.64,-3.63,-3.67,-3.63,6.28,6.28,6.28
51.47,9.87,3.62,9.87,3.63,-3.66,-3.68,-3.67,6.21,6.21,6.24
51.99,9.82,3.62,9.83,3.63,-3.67,-3.69,-3.70,6.15,6.16,6.19
52.51,9.82,3.66,9.82,3.66,-3.68,-3.70,-3.74,6.14,6.14,6.15
53.03,9.82,3.69,9.82,3.71,-3.69,-3.71,-3.77,6.13,6.13,6.12
53.56,9.82,3.75,9.81,3.74,-3.70,-3.72,-3.81,6.11,6.11,6.06
54.10,9.80,3.78,9.76,3.74,-3.72,-3.73,-3.85,6.08,6.04,6.01
54.64,9.69,3.71,9.70,3.74,-3.74,-3.75,-3.89,5.94,5.96,5.97
55.18,9.62,3.70,9.64,3.73,-3.76,-3.76,-3.92,5.85,5.88,5.91
55.74,9.62,3.75,9.61,3.74,-3.78,-3.77,-3.96,5.84,5.84,5.86
56.29,9.62,3.78,9.61,3.79,-3.78,-3.78,-3.99,5.83,5.83,5.83
56.86,9.62,3.82,9.61,3.82,-3.79,-3.79,-4.03,5.83,5.82,5.79
57.42,9.58,3.84,9.57,3.83,-3.79,-3.81,-4.06,5.78,5.78,5.73
58.00,9.53,3.82,9.53,3.82,-3.80,-3.82,-4.09,5.72,5.72,5.70
58.58,9.47,3.79,9.47,3.80,-3.81,-3.83,-4.12,5.65,5.66,5.67
59.16,9.43,3.79,9.43,3.80,-3.82,-3.85,-4.14,5.60,5.61,5.63
59.76,9.41,3.81,9.40,3.82,-3.83,-3.86,-4.17,5.57,5.57,5.59
60.35,9.38,3.85,9.37,3.84,-3.85,-3.87,-4.19,5.53,5.52,5.52
60.96,9.34,3.86,9.33,3.86,-3.87,-3.89,-4.21,5.47,5.46,5.47
61.57,9.29,3.88,9.29,3.89,-3.90,-3.90,-4.22,5.39,5.40,5.40
62.18,9.26,3.92,9.26,3.92,-3.93,-3.91,-4.23,5.33,5.33,5.33
62.80,9.24,3.96,9.24,3.97,-3.96,-3.93,-4.24,5.28,5.28,5.27
63.43,9.23,4.01,9.23,4.01,-3.99,-3.94,-4.25,5.24,5.24,5.21
64.07,9.21,4.04,9.20,4.04,-4.02,-3.96,-4.25,5.19,5.18,5.16
64.71,9.16,4.05,9.15,4.05,-4.05,-3.97,-4.25,5.11,5.11,5.10
65.35,9.10,4.05,9.10,4.06,-4.07,-3.99,-4.25,5.03,5.03,5.04
66.01,9.05,4.06,9.07,4.08,-4.09,-4.00,-4.24,4.96,4.98,4.98
66.67,9.05,4.10,9.03,4.10,-4.11,-4.02,-4.23,4.94,4.92,4.94
67.33,9.02,4.15,9.00,4.13,-4.12,-4.03,-4.22,4.89,4.88,4.86
68.01,8.95,4.13,8.96,4.15,-4.14,-4.05,-4.21,4.81,4.82,4.81
68.69,8.92,4.17,8.91,4.17,-4.16,-4.06,-4.20,4.76,4.75,4.74
69.37,8.87,4.17,8.86,4.17,-4.18,-4.08,-4.18,4.69,4.68,4.69
70.07,8.82,4.19,8.82,4.19,-4.20,-4.10,-4.16,4.62,4.62,4.62
70.77,8.77,4.20,8.77,4.21,-4.22,-4.11,-4.15,4.55,4.56,4.56
71.48,8.74,4.24,8.73,4.24,-4.24,-4.13,-4.13,4.50,4.50,4.49
72.19,8.70,4.27,8.69,4.26,-4.26,-4.14,-4.11,4.43,4.42,4.42
72.91,8.65,4.28,8.64,4.28,-4.29,-4.16,-4.09,4.35,4.35,4.36
73.64,8.59,4.29,8.60,4.31,-4.32,-4.18,-4.08,4.27,4.28,4.29
74.38,8.57,4.33,8.57,4.34,-4.35,-4.19,-4.06,4.22,4.23,4.23
75.12,8.57,4.40,8.56,4.38,-4.37,-4.21,-4.04,4.19,4.18,4.16
75.87,8.54,4.41,8.53,4.42,-4.39,-4.23,-4.03,4.15,4.14,4.12
76.63,8.49,4.43,8.49,4.43,-4.41,-4.25,-4.02,4.08,4.08,4.05
77.40,8.43,4.42,8.43,4.42,-4.42,-4.26,-4.01,4.01,4.01,4.00
78.17,8.37,4.42,8.38,4.43,-4.43,-4.28,-4.00,3.93,3.94,3.94
78.95,8.33,4.42,8.32,4.43,-4.44,-4.30,-3.99,3.88,3.88,3.90
79.74,8.29,4.44,8.27,4.43,-4.45,-4.32,-3.98,3.83,3.82,3.84
80.54,8.23,4.44,8.23,4.44,-4.46,-4.34,-3.98,3.77,3.77,3.78
81.35,8.19,4.45,8.21,4.48,-4.47,-4.35,-3.98,3.71,3.74,3.73
82.16,8.19,4.50,8.18,4.50,-4.49,-4.37,-3.98,3.70,3.70,3.68
82.98,8.19,4.56,8.14,4.51,-4.50,-4.39,-3.99,3.69,3.64,3.62
83.81,8.06,4.49,8.08,4.52,-4.51,-4.41,-3.99,3.54,3.57,3.56
84.65,8.00,4.49,8.03,4.53,-4.53,-4.43,-4.00,3.47,3.50,3.50
85.50,7.99,4.55,7.97,4.53,-4.54,-4.45,-4.02,3.45,3.43,3.43
86.35,7.95,4.57,7.93,4.55,-4.55,-4.46,-4.03,3.40,3.38,3.37
87.22,7.87,4.54,7.87,4.56,-4.56,-4.48,-4.05,3.31,3.32,3.32
88.09,7.80,4.54,7.83,4.57,-4.57,-4.50,-4.08,3.23,3.26,3.25
88.97,7.80,4.59,7.78,4.59,-4.59,-4.52,-4.10,3.21,3.19,3.20
89.86,7.77,4.64,7.73,4.60,-4.61,-4.54,-4.13,3.16,3.12,3.12
90.76,7.66,4.59,7.68,4.62,-4.63,-4.56,-4.16,3.03,3.06,3.06
91.66,7.62,4.62,7.64,4.64,-4.64,-4.58,-4.20,2.97,3.00,2.99
92.58,7.62,4.68,7.61,4.68,-4.66,-4.60,-4.24,2.95,2.95,2.93
93.51,7.60,4.73,7.57,4.71,-4.68,-4.62,-4.28,2.91,2.89,2.86
94.44,7.52,4.72,7.51,4.72,-4.71,-4.64,-4.32,2.80,2.80,2.79
95.39,7.42,4.70,7.43,4.72,-4.74,-4.65,-4.37,2.67,2.69,2.71
96.34,7.37,4.73,7.37,4.73,-4.78,-4.67,-4.42,2.59,2.59,2.63
97.30,7.32,4.76,7.33,4.78,-4.81,-4.69,-4.47,2.51,2.52,2.55
98.28,7.31,4.84,7.30,4.84,-4.83,-4.71,-4.52,2.47,2.47,2.46
99.26,7.28,4.90,7.27,4.89,-4.85,-4.73,-4.58,2.42,2.42,2.37
100.25,7.22,4.92,7.21,4.92,-4.87,-4.75,-4.64,2.35,2.34,2.29
101.25,7.14,4.91,7.13,4.91,-4.88,-4.77,-4.70,2.25,2.25,2.22
102.27,7.02,4.88,7.03,4.90,-4.89,-4.79,-4.76,2.12,2.14,2.13
103.29,6.94,4.88,6.94,4.88,-4.90,-4.81,-4.82,2.04,2.04,2.05
104.32,6.86,4.87,6.85,4.87,-4.91,-4.82,-4.89,1.95,1.94,1.98
105.37,6.78,4.87,6.77,4.87,-4.91,-4.84,-4.95,1.87,1.86,1.90
106.42,6.69,4.87,6.71,4.89,-4.91,-4.86,-5.01,1.78,1.80,1.81
107.48,6.66,4.93,6.67,4.93,-4.91,-4.88,-5.08,1.74,1.75,1.72
108.56,6.64,4.97,6.61,4.96,-4.92,-4.90,-5.14,1.72,1.69,1.66
109.64,6.56,4.98,6.54,4.97,-4.93,-4.92,-5.21,1.63,1.61,1.57
110.74,6.43,4.93,6.45,4.95,-4.94,-4.93,-5.27,1.49,1.51,1.49
111.85,6.36,4.93,6.36,4.93,-4.96,-4.95,-5.33,1.40,1.40,1.42
112.97,6.29,4.93,6.28,4.93,-4.97,-4.97,-5.38,1.31,1.31,1.35
114.10,6.23,4.94,6.23,4.95,-4.99,-4.99,-5.44,1.24,1.24,1.28
115.24,6.18,4.97,6.20,4.99,-5.00,-5.00,-5.49,1.18,1.20,1.20
116.39,6.18,5.05,6.17,5.04,-5.02,-5.02,-5.54,1.16,1.15,1.12
117.55,6.16,5.09,6.12,5.07,-5.03,-5.04,-5.58,1.12,1.09,1.06
118.73,6.05,5.06,6.08,5.09,-5.05,-5.05,-5.62,0.99,1.02,0.98
119.92,6.01,5.08,6.01,5.08,-5.07,-5.07,-5.65,0.93,0.93,0.92
121.12,5.96,5.08,5.94,5.07,-5.09,-5.09,-5.68,0.86,0.84,0.87
122.33,5.88,5.07,5.90,5.08,-5.11,-5.10,-5.70,0.77,0.79,0.80
123.55,5.84,5.08,5.85,5.10,-5.12,-5.12,-5.72,0.72,0.73,0.75
124.79,5.85,5.15,5.82,5.13,-5.14,-5.13,-5.73,0.71,0.68,0.69
126.03,5.79,5.16,5.78,5.16,-5.16,-5.15,-5.73,0.63,0.63,0.62
127.29,5.74,5.17,5.75,5.19,-5.17,-5.16,-5.73,0.56,0.58,0.56
128.57,5.69,5.18,5.70,5.20,-5.19,-5.18,-5.72,0.50,0.51,0.50
129.85,5.68,5.24,5.65,5.21,-5.20,-5.19,-5.71,0.47,0.45,0.43
131.15,5.59,5.21,5.60,5.22,-5.21,-5.20,-5.69,0.38,0.39,0.37
132.46,5.53,5.21,5.54,5.22,-5.22,-5.22,-5.67,0.31,0.32,0.31
133.79,5.48,5.22,5.46,5.21,-5.22,-5.23,-5.64,0.26,0.24,0.25
135.12,5.40,5.20,5.40,5.20,-5.22,-5.24,-5.61,0.18,0.18,0.19
136.48,5.34,5.18,5.35,5.21,-5.22,-5.25,-5.57,0.12,0.13,0.15
137.84,5.32,5.22,5.31,5.22,-5.22,-5.26,-5.54,0.10,0.09,0.09
139.22,5.27,5.25,5.26,5.23,-5.22,-5.28,-5.49,0.04,0.04,0.01
140.61,5.21,5.23,5.20,5.24,-5.23,-5.29,-5.45,-0.02,-0.03,-0.03
142.02,5.13,5.21,5.14,5.23,-5.23,-5.30,-5.40,-0.11,-0.10,-0.09
143.44,5.08,5.23,5.09,5.23,-5.24,-5.31,-5.35,-0.16,-0.15,-0.16
144.87,5.04,5.24,5.04,5.24,-5.24,-5.31,-5.31,-0.20,-0.20,-0.21
146.32,5.01,5.26,4.98,5.24,-5.24,-5.32,-5.26,-0.23,-0.26,-0.26
147.78,4.92,5.23,4.93,5.25,-5.24,-5.33,-5.21,-0.32,-0.31,-0.32
149.26,4.86,5.22,4.88,5.25,-5.24,-5.34,-5.16,-0.38,-0.36,-0.37
150.75,4.84,5.27,4.81,5.24,-5.24,-5.34,-5.11,-0.40,-0.43,-0.44
152.26,4.76,5.23,4.75,5.23,-5.25,-5.35,-5.06,-0.49,-0.50,-0.48
153.78,4.67,5.20,4.70,5.23,-5.25,-5.36,-5.02,-0.58,-0.55,-0.54
155.32,4.65,5.23,4.65,5.24,-5.25,-5.36,-4.97,-0.61,-0.60,-0.59
156.88,4.65,5.29,4.62,5.27,-5.26,-5.37,-4.93,-0.61,-0.64,-0.65
158.44,4.59,5.29,4.58,5.29,-5.27,-5.37,-4.89,-0.68,-0.68,-0.71
160.03,4.51,5.27,4.52,5.29,-5.27,-5.37,-4.85,-0.77,-0.75,-0.77
161.63,4.46,5.28,4.45,5.28,-5.28,-5.38,-4.82,-0.83,-0.83,-0.83
163.24,4.39,5.28,4.39,5.28,-5.29,-5.38,-4.79,-0.90,-0.90,-0.90
164.88,4.33,5.27,4.33,5.29,-5.29,-5.38,-4.76,-0.96,-0.96,-0.95
166.53,4.28,5.29,4.28,5.29,-5.29,-5.38,-4.73,-1.01,-1.01,-1.02
168.19,4.23,5.29,4.22,5.28,-5.28,-5.38,-4.71,-1.06,-1.07,-1.07
169.87,4.16,5.28,4.15,5.29,-5.28,-5.38,-4.69,-1.12,-1.12,-1.13
171.57,4.07,5.26,4.09,5.28,-5.27,-5.38,-4.67,-1.20,-1.18,-1.20
173.29,4.04,5.29,4.01,5.26,-5.26,-5.38,-4.66,-1.23,-1.25,-1.26
175.02,3.95,5.25,3.94,5.25,-5.26,-5.37,-4.65,-1.31,-1.32,-1.31
176.77,3.85,5.20,3.88,5.25,-5.25,-5.37,-4.65,-1.40,-1.37,-1.36
178.54,3.84,5.25,3.82,5.24,-5.24,-5.37,-4.65,-1.41,-1.42,-1.42
180.32,3.79,5.26,3.77,5.24,-5.24,-5.36,-4.65,-1.46,-1.47,-1.48
182.13,3.71,5.22,3.73,5.25,-5.24,-5.36,-4.66,-1.54,-1.52,-1.52
183.95,3.67,5.23,3.68,5.25,-5.25,-5.35,-4.66,-1.58,-1.57,-1.57
185.79,3.66,5.27,3.64,5.25,-5.26,-5.34,-4.68,-1.60,-1.62,-1.62
187.65,3.61,5.26,3.60,5.26,-5.27,-5.34,-4.69,-1.66,-1.66,-1.66
189.52,3.56,5.26,3.58,5.28,-5.28,-5.33,-4.71,-1.72,-1.70,-1.71
191.42,3.54,5.27,3.54,5.29,-5.29,-5.32,-4.73,-1.75,-1.74,-1.74
193.33,3.54,5.32,3.51,5.30,-5.30,-5.31,-4.76,-1.76,-1.79,-1.79
195.27,3.47,5.30,3.47,5.30,-5.30,-5.30,-4.79,-1.84,-1.83,-1.84
197.22,3.40,5.28,3.42,5.30,-5.30,-5.29,-4.82,-1.91,-1.88,-1.89
199.19,3.39,5.30,3.38,5.30,-5.30,-5.28,-4.85,-1.91,-1.92,-1.92
201.18,3.35,5.31,3.34,5.30,-5.28,-5.26,-4.89,-1.94,-1.94,-1.97
203.19,3.30,5.29,3.29,5.28,-5.27,-5.25,-4.92,-1.97,-1.98,-2.00
205.23,3.21,5.24,3.21,5.25,-5.24,-5.24,-4.96,-2.04,-2.03,-2.04
207.28,3.13,5.19,3.14,5.21,-5.22,-5.22,-5.00,-2.09,-2.08,-2.07
209.35,3.07,5.17,3.06,5.17,-5.19,-5.21,-5.04,-2.12,-2.12,-2.11
211.44,3.01,5.16,3.00,5.15,-5.16,-5.19,-5.08,-2.15,-2.15,-2.16
213.56,2.94,5.12,2.94,5.13,-5.13,-5.17,-5.13,-2.19,-2.18,-2.19
215.69,2.89,5.11,2.88,5.10,-5.10,-5.16,-5.17,-2.22,-2.23,-2.23
217.85,2.82,5.07,2.81,5.07,-5.08,-5.14,-5.21,-2.27,-2.27,-2.26
220.03,2.75,5.05,2.77,5.06,-5.07,-5.12,-5.25,-2.32,-2.30,-2.31
222.23,2.72,5.04,2.72,5.05,-5.06,-5.10,-5.29,-2.34,-2.34,-2.33
224.45,2.71,5.06,2.68,5.04,-5.04,-5.08,-5.32,-2.34,-2.37,-2.36
226.70,2.63,5.01,2.65,5.04,-5.03,-5.06,-5.36,-2.40,-2.37,-2.39
228.96,2.62,5.02,2.63,5.04,-5.01,-5.04,-5.39,-2.40,-2.38,-2.41
231.25,2.63,5.04,2.59,5.01,-5.00,-5.02,-5.42,-2.37,-2.41,-2.42
233.57,2.56,5.00,2.54,4.99,-4.99,-4.99,-5.44,-2.43,-2.44,-2.45
235.90,2.46,4.91,2.51,4.96,-4.98,-4.97,-5.46,-2.52,-2.47,-2.46
238.26,2.48,4.95,2.47,4.94,-4.96,-4.95,-5.47,-2.49,-2.49,-2.48
240.64,2.50,4.96,2.46,4.93,-4.95,-4.92,-5.48,-2.45,-2.49,-2.47
243.05,2.45,4.92,2.46,4.95,-4.94,-4.90,-5.48,-2.49,-2.47,-2.48
245.48,2.43,4.92,2.44,4.94,-4.92,-4.87,-5.48,-2.50,-2.48,-2.50
247.93,2.45,4.95,2.42,4.92,-4.91,-4.85,-5.47,-2.46,-2.49,-2.51
250.41,2.39,4.88,2.40,4.90,-4.89,-4.82,-5.46,-2.50,-2.49,-2.50
252.92,2.36,4.85,2.36,4.87,-4.86,-4.79,-5.44,-2.50,-2.50,-2.50
255.45,2.33,4.84,2.32,4.84,-4.83,-4.77,-5.41,-2.51,-2.51,-2.52
258.00,2.29,4.81,2.28,4.80,-4.80,-4.74,-5.38,-2.52,-2.52,-2.53
260.58,2.24,4.77,2.23,4.76,-4.77,-4.71,-5.34,-2.54,-2.55,-2.54
263.19,2.16,4.70,2.18,4.72,-4.75,-4.68,-5.29,-2.59,-2.57,-2.55
265.82,2.14,4.70,2.15,4.71,-4.72,-4.65,-5.24,-2.58,-2.57,-2.57
268.48,2.13,4.69,2.12,4.69,-4.70,-4.62,-5.19,-2.57,-2.57,-2.57
271.16,2.13,4.71,2.11,4.69,-4.68,-4.59,-5.13,-2.55,-2.57,-2.59
273.87,2.06,4.65,2.07,4.67,-4.66,-4.56,-5.07,-2.60,-2.59,-2.60
276.61,2.03,4.64,2.02,4.64,-4.65,-4.53,-5.00,-2.62,-2.63,-2.62
279.38,1.98,4.62,1.97,4.61,-4.63,-4.49,-4.93,-2.65,-2.66,-2.65
282.17,1.94,4.58,1.96,4.60,-4.61,-4.46,-4.86,-2.67,-2.65,-2.65
284.99,1.94,4.58,1.94,4.60,-4.58,-4.43,-4.78,-2.64,-2.63,-2.65
287.84,1.95,4.59,1.92,4.57,-4.54,-4.39,-4.70,-2.59,-2.62,-2.65
290.72,1.89,4.55,1.87,4.53,-4.50,-4.36,-4.62,-2.61,-2.63,-2.67
293.63,1.79,4.44,1.81,4.47,-4.47,-4.33,-4.54,-2.68,-2.65,-2.66
296.57,1.75,4.40,1.74,4.41,-4.43,-4.29,-4.46,-2.68,-2.69,-2.66
299.53,1.71,4.37,1.69,4.35,-4.40,-4.26,-4.38,-2.69,-2.71,-2.67
302.53,1.65,4.30,1.66,4.32,-4.35,-4.22,-4.30,-2.71,-2.70,-2.66
305.55,1.63,4.29,1.65,4.31,-4.31,-4.19,-4.22,-2.69,-2.66,-2.67
308.61,1.65,4.30,1.64,4.30,-4.27,-4.15,-4.14,-2.63,-2.64,-2.66
311.69,1.65,4.32,1.61,4.28,-4.24,-4.12,-4.07,-2.59,-2.63,-2.68
314.81,1.54,4.20,1.55,4.22,-4.20,-4.08,-3.99,-2.66,-2.65,-2.67
317.96,1.47,4.15,1.47,4.15,-4.16,-4.04,-3.91,-2.69,-2.69,-2.69
321.14,1.40,4.07,1.41,4.09,-4.12,-4.01,-3.84,-2.72,-2.71,-2.68
324.35,1.37,4.05,1.38,4.06,-4.07,-3.97,-3.77,-2.70,-2.69,-2.69
327.59,1.37,4.04,1.34,4.02,-4.02,-3.93,-3.70,-2.65,-2.68,-2.68
330.87,1.31,3.99,1.29,3.97,-3.97,-3.90,-3.63,-2.66,-2.68,-2.69
334.18,1.20,3.89,1.23,3.92,-3.92,-3.86,-3.57,-2.72,-2.69,-2.70
337.52,1.17,3.85,1.18,3.88,-3.88,-3.82,-3.50,-2.71,-2.69,-2.69
340.90,1.17,3.86,1.15,3.84,-3.84,-3.78,-3.44,-2.67,-2.68,-2.70
344.30,1.15,3.83,1.12,3.80,-3.80,-3.74,-3.38,-2.65,-2.68,-2.69
347.75,1.05,3.72,1.06,3.75,-3.76,-3.71,-3.33,-2.71,-2.70,-2.68
351.23,0.99,3.68,1.01,3.69,-3.72,-3.67,-3.28,-2.73,-2.71,-2.70
354.74,0.98,3.65,0.99,3.67,-3.68,-3.63,-3.22,-2.70,-2.69,-2.68
358.28,0.99,3.66,0.98,3.66,-3.63,-3.59,-3.18,-2.64,-2.65,-2.68
361.87,0.99,3.66,0.95,3.62,-3.58,-3.55,-3.13,-2.59,-2.63,-2.68
365.49,0.87,3.53,0.89,3.56,-3.53,-3.51,-3.09,-2.67,-2.64,-2.67
369.14,0.82,3.47,0.83,3.48,-3.49,-3.47,-3.05,-2.67,-2.66,-2.66
372.83,0.77,3.41,0.76,3.41,-3.44,-3.43,-3.01,-2.68,-2.68,-2.65
376.56,0.73,3.38,0.72,3.37,-3.40,-3.39,-2.97,-2.67,-2.69,-2.66
380.33,0.67,3.32,0.68,3.33,-3.35,-3.35,-2.94,-2.69,-2.68,-2.66
384.13,0.65,3.29,0.67,3.32,-3.31,-3.31,-2.90,-2.66,-2.64,-2.65
387.97,0.66,3.30,0.65,3.30,-3.27,-3.27,-2.87,-2.61,-2.62,-2.65
391.85,0.65,3.30,0.61,3.27,-3.24,-3.24,-2.85,-2.59,-2.63,-2.66
395.77,0.55,3.21,0.56,3.22,-3.21,-3.20,-2.82,-2.67,-2.66,-2.67
399.73,0.48,3.14,0.51,3.17,-3.19,-3.16,-2.79,-2.71,-2.68,-2.67
403.72,0.47,3.12,0.46,3.13,-3.16,-3.12,-2.77,-2.69,-2.69,-2.66
407.76,0.46,3.13,0.44,3.11,-3.12,-3.08,-2.75,-2.66,-2.69,-2.68
411.84,0.41,3.09,0.42,3.10,-3.08,-3.04,-2.73,-2.68,-2.67,-2.69
415.96,0.37,3.05,0.38,3.07,-3.04,-3.00,-2.71,-2.68,-2.66,-2.69
420.12,0.36,3.05,0.33,3.02,-3.00,-2.96,-2.70,-2.65,-2.67,-2.70
424.32,0.29,2.97,0.28,2.96,-2.97,-2.92,-2.68,-2.68,-2.69,-2.69
428.56,0.22,2.88,0.24,2.91,-2.93,-2.88,-2.66,-2.71,-2.69,-2.67
432.85,0.20,2.84,0.22,2.87,-2.88,-2.84,-2.65,-2.69,-2.67,-2.65
437.18,0.23,2.86,0.20,2.83,-2.84,-2.80,-2.63,-2.61,-2.64,-2.64
441.55,0.22,2.82,0.19,2.79,-2.79,-2.76,-2.62,-2.57,-2.60,-2.61
445.96,0.15,2.71,0.18,2.75,-2.74,-2.72,-2.60,-2.60,-2.56,-2.57
450.42,0.17,2.69,0.19,2.71,-2.70,-2.68,-2.59,-2.53,-2.51,-2.53
454.93,0.23,2.70,0.20,2.67,-2.66,-2.64,-2.57,-2.43,-2.46,-2.48
459.48,0.24,2.65,0.21,2.62,-2.62,-2.60,-2.56,-2.38,-2.41,-2.42
464.07,0.18,2.52,0.21,2.57,-2.58,-2.55,-2.54,-2.40,-2.37,-2.35
468.71,0.21,2.50,0.23,2.52,-2.54,-2.51,-2.52,-2.34,-2.32,-2.30
473.40,0.28,2.51,0.25,2.49,-2.51,-2.47,-2.51,-2.23,-2.25,-2.24
478.13,0.31,2.48,0.29,2.47,-2.47,-2.43,-2.49,-2.16,-2.18,-2.18
482.91,0.30,2.42,0.31,2.45,-2.43,-2.39,-2.47,-2.13,-2.12,-2.13
487.74,0.32,2.41,0.32,2.41,-2.39,-2.35,-2.44,-2.07,-2.07,-2.10
492.62,0.32,2.37,0.31,2.36,-2.35,-2.31,-2.42,-2.03,-2.04,-2.06
497.55,0.30,2.31,0.30,2.32,-2.30,-2.27,-2.39,-2.01,-2.01,-2.02
