frequency,raw,error,smoothed,error_smoothed,equalization,parametric_eq,fixed_band_eq,equalized_raw,equalized_smoothed,target
20.00,-16.65,-23.22,-16.65,-23.21,23.24,23.42,10.70,6.58,6.59,6.57
20.20,-16.62,-23.19,-16.63,-23.19,23.20,23.31,10.89,6.58,6.57,6.57
20.40,-16.59,-23.16,-16.59,-23.16,23.15,23.21,11.08,6.57,6.56,6.57
20.61,-16.56,-23.13,-16.55,-23.11,23.10,23.10,11.29,6.54,6.55,6.57
20.81,-16.50,-23.05,-16.50,-23.06,23.04,23.00,11.49,6.54,6.54,6.56
21.02,-16.43,-22.99,-16.44,-22.99,22.97,22.90,11.70,6.54,6.54,6.56
21.23,-16.36,-22.92,-16.35,-22.91,22.89,22.80,11.92,6.53,6.54,6.56
21.44,-16.26,-22.82,-16.26,-22.82,22.81,22.70,12.14,6.55,6.55,6.57
21.66,-16.15,-22.71,-16.15,-22.71,22.70,22.60,12.37,6.55,6.55,6.56
21.87,-16.04,-22.59,-16.04,-22.59,22.59,22.50,12.60,6.55,6.55,6.56
22.09,-15.92,-22.46,-15.92,-22.47,22.47,22.41,12.84,6.56,6.56,6.55
22.31,-15.80,-22.34,-15.80,-22.35,22.36,22.31,13.08,6.56,6.55,6.55
22.54,-15.69,-22.23,-15.69,-22.23,22.24,22.22,13.34,6.55,6.55,6.54
22.76,-15.58,-22.11,-15.58,-22.11,22.12,22.13,13.60,6.54,6.54,6.54
22.99,-15.48,-22.01,-15.48,-22.00,22.01,22.04,13.86,6.53,6.53,6.53
23.22,-15.38,-21.90,-15.38,-21.90,21.90,21.95,14.14,6.52,6.52,6.52
23.45,-15.28,-21.79,-15.28,-21.79,21.79,21.86,14.42,6.51,6.51,6.52
23.69,-15.18,-21.69,-15.18,-21.69,21.69,21.77,14.71,6.51,6.51,6.51
23.92,-15.09,-21.58,-15.09,-21.59,21.59,21.69,15.01,6.50,6.50,6.50
24.16,-14.99,-21.48,-14.99,-21.49,21.49,21.60,15.32,6.50,6.50,6.50
24.40,-14.91,-21.40,-14.90,-21.40,21.39,21.51,15.64,6.48,6.49,6.50
24.65,-14.81,-21.31,-14.81,-21.31,21.30,21.43,15.97,6.49,6.49,6.50
24.89,-14.72,-21.21,-14.72,-21.21,21.21,21.34,16.31,6.49,6.49,6.50
25.14,-14.63,-21.11,-14.63,-21.11,21.12,21.25,16.67,6.49,6.49,6.49
25.39,-14.54,-21.01,-14.54,-21.02,21.03,21.17,17.03,6.49,6.49,6.48
25.65,-14.46,-20.94,-14.46,-20.94,20.95,21.08,17.41,6.49,6.49,6.48
25.91,-14.39,-20.87,-14.39,-20.86,20.87,21.00,17.80,6.48,6.48,6.48
26.16,-14.31,-20.79,-14.31,-20.80,20.79,20.91,18.20,6.48,6.48,6.49
26.43,-14.24,-20.73,-14.24,-20.72,20.72,20.83,18.62,6.47,6.48,6.49
26.69,-14.16,-20.65,-14.16,-20.65,20.64,20.74,19.06,6.48,6.48,6.49
26.96,-14.09,-20.57,-14.09,-20.57,20.57,20.66,19.51,6.48,6.48,6.48
27.23,-14.01,-20.49,-14.01,-20.49,20.49,20.57,19.97,6.48,6.48,6.48
27.50,-13.94,-20.42,-13.94,-20.42,20.41,20.49,20.45,6.47,6.47,6.48
27.77,-13.86,-20.34,-13.86,-20.34,20.33,20.40,20.94,6.47,6.47,6.49
28.05,-13.77,-20.24,-13.77,-20.25,20.24,20.31,21.45,6.47,6.47,6.48
28.33,-13.69,-20.15,-13.69,-20.16,20.15,20.23,21.96,6.46,6.47,6.47
28.62,-13.60,-20.06,-13.60,-20.06,20.06,20.14,22.49,6.46,6.46,6.46
28.90,-13.51,-19.97,-13.51,-19.97,19.97,20.05,23.01,6.46,6.46,6.47
29.19,-13.42,-19.88,-13.42,-19.88,19.88,19.97,23.52,6.46,6.45,6.46
29.48,-13.34,-19.78,-13.34,-19.78,19.78,19.88,24.02,6.45,6.45,6.45
29.78,-13.25,-19.69,-13.25,-19.69,19.69,19.79,24.48,6.44,6.44,6.44
30.08,-13.17,-19.61,-13.17,-19.60,19.61,19.70,24.90,6.43,6.44,6.44
30.38,-13.09,-19.52,-13.09,-19.51,19.52,19.61,25.25,6.43,6.43,6.43
30.68,-13.01,-19.43,-13.01,-19.43,19.44,19.52,25.51,6.43,6.42,6.42
30.99,-12.94,-19.36,-12.94,-19.35,19.35,19.43,25.66,6.41,6.42,6.42
31.30,-12.86,-19.28,-12.86,-19.27,19.27,19.34,25.70,6.41,6.41,6.42
31.61,-12.78,-19.20,-12.78,-19.20,19.19,19.25,25.63,6.41,6.41,6.42
31.93,-12.70,-19.11,-12.70,-19.11,19.11,19.16,25.45,6.41,6.41,6.41
32.24,-12.62,-19.03,-12.62,-19.03,19.02,19.07,25.19,6.40,6.41,6.42
32.57,-12.53,-18.94,-12.53,-18.94,18.94,18.98,24.84,6.41,6.41,6.41
32.89,-12.44,-18.84,-12.44,-18.85,18.85,18.88,24.45,6.41,6.41,6.41
33.22,-12.36,-18.76,-12.36,-18.76,18.76,18.79,24.01,6.40,6.40,6.41
33.55,-12.28,-18.67,-12.28,-18.67,18.67,18.70,23.56,6.39,6.40,6.40
33.89,-12.19,-18.58,-12.20,-18.58,18.58,18.60,23.09,6.39,6.39,6.39
34.23,-12.12,-18.49,-12.11,-18.49,18.49,18.51,22.63,6.37,6.38,6.37
34.57,-12.03,-18.40,-12.04,-18.40,18.40,18.41,22.17,6.37,6.36,6.37
34.92,-11.96,-18.31,-11.96,-18.30,18.30,18.32,21.72,6.34,6.35,6.35
35.27,-11.88,-18.22,-11.88,-18.21,18.20,18.22,21.28,6.32,6.33,6.34
35.62,-11.79,-18.10,-11.80,-18.11,18.11,18.12,20.86,6.31,6.30,6.31
35.97,-11.73,-18.01,-11.72,-18.01,18.00,18.03,20.45,6.27,6.28,6.28
36.33,-11.65,-17.90,-11.65,-17.90,17.90,17.93,20.06,6.25,6.25,6.25
36.70,-11.57,-17.80,-11.57,-17.80,17.80,17.83,19.69,6.23,6.23,6.23
37.06,-11.49,-17.68,-11.49,-17.69,17.69,17.73,19.33,6.20,6.20,6.19
37.43,-11.42,-17.58,-11.42,-17.58,17.59,17.64,18.98,6.17,6.17,6.16
37.81,-11.35,-17.49,-11.35,-17.48,17.48,17.54,18.66,6.13,6.13,6.14
38.19,-11.28,-17.38,-11.28,-17.38,17.38,17.44,18.34,6.10,6.10,6.10
38.57,-11.21,-17.29,-11.21,-17.28,17.28,17.34,18.04,6.07,6.07,6.08
38.95,-11.14,-17.18,-11.14,-17.18,17.18,17.24,17.76,6.04,6.04,6.04
39.34,-11.07,-17.07,-11.07,-17.08,17.08,17.14,17.48,6.01,6.01,6.00
39.74,-11.00,-16.98,-11.00,-16.98,16.98,17.04,17.22,5.98,5.98,5.98
40.14,-10.93,-16.89,-10.93,-16.89,16.89,16.94,16.97,5.96,5.95,5.96
40.54,-10.87,-16.81,-10.86,-16.80,16.79,16.84,16.74,5.92,5.93,5.94
40.94,-10.79,-16.69,-10.79,-16.70,16.69,16.74,16.51,5.90,5.90,5.91
41.35,-10.72,-16.59,-10.72,-16.60,16.60,16.64,16.29,5.88,5.88,5.88
41.76,-10.65,-16.49,-10.65,-16.50,16.50,16.55,16.09,5.85,5.85,5.85
42.18,-10.58,-16.41,-10.58,-16.41,16.41,16.45,15.89,5.83,5.83,5.84
42.60,-10.51,-16.31,-10.51,-16.31,16.31,16.35,15.71,5.80,5.80,5.80
43.03,-10.44,-16.22,-10.44,-16.22,16.22,16.25,15.53,5.78,5.78,5.78
43.46,-10.37,-16.13,-10.37,-16.12,16.12,16.15,15.37,5.75,5.76,5.76
43.90,-10.29,-16.03,-10.30,-16.02,16.03,16.05,15.21,5.74,5.73,5.74
44.33,-10.23,-15.92,-10.23,-15.93,15.93,15.95,15.06,5.70,5.70,5.69
44.78,-10.16,-15.84,-10.16,-15.84,15.83,15.85,14.91,5.67,5.67,5.68
45.23,-10.09,-15.76,-10.09,-15.74,15.74,15.75,14.78,5.64,5.65,5.67
45.68,-10.02,-15.65,-10.02,-15.64,15.64,15.66,14.65,5.61,5.62,5.63
46.13,-9.94,-15.51,-9.95,-15.53,15.54,15.56,14.53,5.60,5.59,5.57
46.60,-9.88,-15.44,-9.88,-15.43,15.43,15.46,14.42,5.55,5.56,5.56
47.06,-9.81,-15.32,-9.81,-15.33,15.33,15.36,14.32,5.52,5.52,5.52
47.53,-9.75,-15.23,-9.75,-15.23,15.23,15.26,14.22,5.48,5.48,5.48
48.01,-9.69,-15.12,-9.69,-15.13,15.13,15.16,14.12,5.44,5.44,5.43
48.49,-9.64,-15.04,-9.64,-15.03,15.02,15.06,14.04,5.38,5.39,5.40
48.97,-9.58,-14.92,-9.58,-14.92,14.92,14.96,13.96,5.34,5.34,5.34
49.46,-9.52,-14.82,-9.52,-14.82,14.81,14.85,13.88,5.29,5.29,5.30
49.96,-9.46,-14.70,-9.46,-14.71,14.71,14.75,13.81,5.25,5.24,5.24
50.46,-9.41,-14.61,-9.40,-14.60,14.60,14.64,13.74,5.19,5.19,5.20
50.96,-9.34,-14.49,-9.34,-14.49,14.49,14.53,13.68,5.15,5.15,5.15
51.47,-9.27,-14.38,-9.27,-14.37,14.38,14.43,13.62,5.11,5.11,5.11
51.99,-9.20,-14.26,-9.20,-14.26,14.27,14.31,13.57,5.07,5.07,5.06
52.51,-9.13,-14.15,-9.13,-14.16,14.15,14.20,13.51,5.02,5.02,5.02
53.03,-9.07,-14.06,-9.07,-14.04,14.04,14.09,13.46,4.97,4.97,4.99
53.56,-9.00,-13.94,-9.00,-13.93,13.92,13.97,13.41,4.92,4.93,4.94
54.10,-8.92,-13.80,-8.93,-13.81,13.81,13.85,13.37,4.89,4.88,4.88
54.64,-8.86,-13.70,-8.86,-13.68,13.69,13.73,13.32,4.83,4.83,4.84
55.18,-8.78,-13.55,-8.78,-13.56,13.57,13.61,13.27,4.79,4.78,4.77
55.74,-8.71,-13.45,-8.71,-13.45,13.44,13.49,13.22,4.73,4.73,4.74
56.29,-8.63,-13.32,-8.63,-13.32,13.32,13.36,13.18,4.69,4.69,4.69
56.86,-8.55,-13.21,-8.55,-13.20,13.19,13.24,13.12,4.64,4.65,4.66
57.42,-8.46,-13.05,-8.46,-13.06,13.07,13.11,13.07,4.61,4.61,4.59
58.00,-8.38,-12.94,-8.38,-12.94,12.95,12.98,13.01,4.57,4.57,4.56
58.58,-8.29,-12.82,-8.29,-12.82,12.82,12.85,12.95,4.53,4.53,4.53
59.16,-8.22,-12.70,-8.22,-12.70,12.70,12.73,12.89,4.48,4.48,4.48
59.76,-8.14,-12.59,-8.14,-12.58,12.57,12.60,12.82,4.43,4.43,4.45
60.35,-8.07,-12.44,-8.07,-12.45,12.45,12.47,12.74,4.38,4.38,4.37
60.96,-8.00,-12.33,-8.00,-12.32,12.32,12.34,12.66,4.32,4.32,4.33
61.57,-7.94,-12.19,-7.94,-12.19,12.20,12.21,12.57,4.26,4.26,4.25
62.18,-7.89,-12.07,-7.88,-12.07,12.08,12.08,12.47,4.19,4.19,4.18
62.80,-7.82,-11.94,-7.83,-11.95,11.95,11.96,12.37,4.13,4.13,4.12
63.43,-7.77,-11.82,-7.77,-11.83,11.83,11.83,12.26,4.06,4.07,4.06
64.07,-7.71,-11.72,-7.71,-11.71,11.71,11.70,12.15,4.00,4.00,4.01
64.71,-7.64,-11.60,-7.64,-11.60,11.59,11.57,12.02,3.95,3.95,3.96
65.35,-7.58,-11.48,-7.57,-11.48,11.47,11.45,11.90,3.89,3.90,3.90
66.01,-7.50,-11.35,-7.50,-11.35,11.35,11.32,11.76,3.85,3.85,3.85
66.67,-7.43,-11.24,-7.43,-11.23,11.23,11.20,11.62,3.80,3.79,3.81
67.33,-7.36,-11.09,-7.36,-11.10,11.10,11.07,11.48,3.74,3.74,3.73
68.01,-7.29,-10.98,-7.29,-10.97,10.97,10.95,11.33,3.68,3.69,3.69
68.69,-7.21,-10.84,-7.21,-10.84,10.85,10.82,11.18,3.64,3.63,3.63
69.37,-7.14,-10.71,-7.14,-10.72,10.72,10.70,11.02,3.58,3.58,3.57
70.07,-7.07,-10.60,-7.07,-10.59,10.58,10.57,10.86,3.51,3.52,3.53
70.77,-6.99,-10.46,-6.99,-10.46,10.45,10.45,10.70,3.46,3.46,3.47
71.48,-6.92,-10.33,-6.92,-10.32,10.32,10.33,10.53,3.40,3.40,3.41
72.19,-6.85,-10.19,-6.85,-10.19,10.19,10.20,10.37,3.34,3.34,3.34
72.91,-6.77,-10.05,-6.77,-10.05,10.06,10.08,10.21,3.29,3.28,3.28
73.64,-6.70,-9.91,-6.70,-9.92,9.92,9.96,10.04,3.22,3.22,3.21
74.38,-6.63,-9.79,-6.63,-9.79,9.79,9.84,9.88,3.16,3.16,3.16
75.12,-6.56,-9.66,-6.56,-9.66,9.66,9.71,9.71,3.10,3.11,3.11
75.87,-6.48,-9.54,-6.48,-9.54,9.53,9.59,9.55,3.05,3.05,3.06
76.63,-6.40,-9.40,-6.40,-9.41,9.40,9.47,9.39,3.00,3.00,3.00
77.40,-6.33,-9.28,-6.33,-9.28,9.28,9.34,9.23,2.95,2.95,2.95
78.17,-6.25,-9.13,-6.25,-9.15,9.15,9.22,9.08,2.90,2.90,2.89
78.95,-6.18,-9.03,-6.18,-9.02,9.02,9.10,8.92,2.84,2.85,2.85
79.74,-6.10,-8.89,-6.10,-8.90,8.90,8.98,8.77,2.80,2.79,2.79
80.54,-6.03,-8.77,-6.03,-8.77,8.77,8.85,8.62,2.74,2.74,2.74
81.35,-5.95,-8.65,-5.95,-8.64,8.64,8.73,8.48,2.69,2.69,2.70
82.16,-5.88,-8.53,-5.88,-8.52,8.52,8.60,8.34,2.64,2.64,2.65
82.98,-5.81,-8.39,-5.80,-8.39,8.39,8.48,8.20,2.58,2.59,2.59
83.81,-5.73,-8.26,-5.73,-8.27,8.27,8.36,8.07,2.54,2.54,2.54
84.65,-5.66,-8.14,-5.66,-8.14,8.15,8.23,7.93,2.49,2.49,2.48
85.50,-5.60,-8.03,-5.60,-8.02,8.03,8.11,7.81,2.43,2.43,2.43
86.35,-5.53,-7.91,-5.53,-7.91,7.91,7.99,7.68,2.38,2.37,2.38
87.22,-5.48,-7.81,-5.48,-7.80,7.79,7.86,7.57,2.31,2.32,2.33
88.09,-5.41,-7.68,-5.41,-7.68,7.68,7.74,7.45,2.27,2.26,2.27
88.97,-5.36,-7.58,-5.35,-7.57,7.56,7.62,7.34,2.20,2.21,2.22
89.86,-5.29,-7.45,-5.30,-7.45,7.45,7.50,7.23,2.16,2.16,2.16
90.76,-5.24,-7.34,-5.24,-7.34,7.34,7.38,7.13,2.10,2.10,2.10
91.66,-5.19,-7.23,-5.19,-7.23,7.24,7.26,7.03,2.05,2.05,2.04
92.58,-5.14,-7.13,-5.14,-7.13,7.13,7.15,6.93,1.99,1.99,1.99
93.51,-5.10,-7.03,-5.10,-7.03,7.02,7.03,6.84,1.92,1.92,1.93
94.44,-5.06,-6.93,-5.06,-6.92,6.92,6.92,6.75,1.86,1.86,1.87
95.39,-5.02,-6.82,-5.02,-6.82,6.81,6.81,6.66,1.79,1.79,1.80
96.34,-4.99,-6.72,-4.99,-6.72,6.71,6.71,6.58,1.72,1.72,1.73
97.30,-4.96,-6.62,-4.96,-6.61,6.61,6.61,6.50,1.65,1.66,1.66
98.28,-4.92,-6.50,-4.93,-6.51,6.52,6.51,6.42,1.60,1.59,1.58
99.26,-4.91,-6.42,-4.90,-6.41,6.42,6.42,6.35,1.51,1.52,1.51
100.25,-4.88,-6.33,-4.88,-6.32,6.33,6.33,6.28,1.45,1.45,1.45
101.25,-4.86,-6.24,-4.86,-6.24,6.24,6.25,6.21,1.38,1.38,1.38
102.27,-4.84,-6.17,-4.84,-6.16,6.16,6.17,6.15,1.32,1.32,1.33
103.29,-4.82,-6.08,-4.82,-6.08,6.08,6.09,6.09,1.26,1.26,1.26
104.32,-4.80,-6.01,-4.80,-6.01,6.00,6.02,6.03,1.20,1.20,1.21
105.37,-4.79,-5.94,-4.79,-5.93,5.93,5.95,5.97,1.14,1.14,1.15
106.42,-4.78,-5.87,-4.78,-5.86,5.86,5.89,5.91,1.08,1.08,1.09
107.48,-4.77,-5.79,-4.77,-5.79,5.80,5.83,5.86,1.03,1.02,1.02
108.56,-4.77,-5.74,-4.77,-5.73,5.73,5.77,5.81,0.96,0.96,0.97
109.64,-4.76,-5.68,-4.76,-5.67,5.67,5.72,5.76,0.91,0.91,0.91
110.74,-4.77,-5.62,-4.76,-5.61,5.61,5.67,5.71,0.84,0.85,0.85
111.85,-4.76,-5.55,-4.76,-5.55,5.56,5.62,5.66,0.80,0.79,0.79
112.97,-4.77,-5.50,-4.77,-5.50,5.50,5.58,5.61,0.73,0.73,0.73
114.10,-4.79,-5.46,-4.79,-5.45,5.45,5.53,5.56,0.66,0.66,0.67
115.24,-4.81,-5.41,-4.81,-5.40,5.40,5.49,5.51,0.59,0.59,0.60
116.39,-4.83,-5.35,-4.83,-5.35,5.35,5.45,5.47,0.52,0.52,0.52
117.55,-4.85,-5.31,-4.85,-5.30,5.30,5.40,5.42,0.45,0.45,0.45
118.73,-4.87,-5.25,-4.87,-5.25,5.25,5.36,5.37,0.38,0.38,0.38
119.92,-4.89,-5.20,-4.89,-5.20,5.20,5.32,5.33,0.31,0.31,0.31
121.12,-4.91,-5.16,-4.91,-5.14,5.14,5.28,5.28,0.23,0.24,0.25
122.33,-4.92,-5.09,-4.92,-5.09,5.09,5.24,5.23,0.17,0.17,0.17
123.55,-4.93,-5.04,-4.93,-5.04,5.03,5.20,5.18,0.10,0.10,0.11
124.79,-4.95,-4.99,-4.95,-4.98,4.98,5.16,5.13,0.03,0.03,0.04
126.03,-4.97,-4.94,-4.97,-4.93,4.92,5.12,5.08,-0.05,-0.04,-0.04
127.29,-4.99,-4.87,-4.99,-4.87,4.87,5.09,5.03,-0.12,-0.12,-0.12
128.57,-5.01,-4.82,-5.01,-4.81,4.82,5.04,4.98,-0.19,-0.19,-0.19
129.85,-5.04,-4.77,-5.04,-4.77,4.77,5.00,4.93,-0.27,-0.27,-0.27
131.15,-5.07,-4.73,-5.07,-4.73,4.73,4.96,4.87,-0.34,-0.34,-0.34
132.46,-5.11,-4.70,-5.11,-4.69,4.70,4.92,4.82,-0.41,-0.41,-0.41
133.79,-5.14,-4.67,-5.14,-4.67,4.67,4.88,4.77,-0.47,-0.48,-0.47
135.12,-5.18,-4.64,-5.18,-4.64,4.64,4.84,4.71,-0.54,-0.54,-0.54
136.48,-5.22,-4.64,-5.22,-4.62,4.62,4.80,4.66,-0.60,-0.60,-0.58
137.84,-5.25,-4.61,-5.26,-4.61,4.60,4.76,4.60,-0.65,-0.65,-0.64
139.22,-5.30,-4.59,-5.30,-4.59,4.59,4.72,4.55,-0.71,-0.71,-0.71
140.61,-5.34,-4.59,-5.33,-4.57,4.58,4.68,4.49,-0.76,-0.76,-0.75
142.02,-5.37,-4.57,-5.37,-4.56,4.57,4.64,4.44,-0.80,-0.81,-0.80
143.44,-5.41,-4.55,-5.41,-4.56,4.56,4.60,4.38,-0.85,-0.85,-0.86
144.87,-5.46,-4.56,-5.46,-4.55,4.55,4.56,4.33,-0.91,-0.90,-0.90
146.32,-5.50,-4.55,-5.50,-4.54,4.54,4.52,4.28,-0.96,-0.96,-0.95
147.78,-5.54,-4.54,-5.54,-4.54,4.53,4.48,4.23,-1.01,-1.01,-1.00
149.26,-5.58,-4.54,-5.58,-4.53,4.52,4.44,4.18,-1.06,-1.06,-1.04
150.75,-5.62,-4.52,-5.61,-4.52,4.51,4.40,4.13,-1.11,-1.10,-1.10
152.26,-5.64,-4.51,-5.64,-4.50,4.50,4.36,4.08,-1.14,-1.14,-1.13
153.78,-5.67,-4.48,-5.67,-4.48,4.48,4.32,4.04,-1.19,-1.19,-1.19
155.32,-5.69,-4.46,-5.70,-4.46,4.46,4.29,4.00,-1.23,-1.23,-1.23
156.88,-5.73,-4.45,-5.72,-4.44,4.44,4.25,3.95,-1.29,-1.28,-1.28
158.44,-5.75,-4.42,-5.75,-4.42,4.42,4.21,3.91,-1.33,-1.34,-1.33
160.03,-5.78,-4.40,-5.78,-4.39,4.39,4.18,3.88,-1.39,-1.39,-1.38
161.63,-5.81,-4.38,-5.81,-4.37,4.37,4.14,3.84,-1.44,-1.44,-1.43
163.24,-5.83,-4.33,-5.83,-4.34,4.34,4.11,3.81,-1.49,-1.49,-1.50
164.88,-5.86,-4.32,-5.86,-4.31,4.32,4.07,3.77,-1.54,-1.54,-1.54
166.53,-5.88,-4.28,-5.88,-4.28,4.29,4.04,3.75,-1.59,-1.60,-1.60
168.19,-5.91,-4.27,-5.91,-4.26,4.26,4.01,3.72,-1.65,-1.65,-1.64
169.87,-5.94,-4.25,-5.94,-4.23,4.23,3.97,3.69,-1.71,-1.71,-1.69
171.57,-5.96,-4.20,-5.96,-4.20,4.19,3.94,3.67,-1.77,-1.76,-1.76
173.29,-5.97,-4.16,-5.97,-4.16,4.16,3.91,3.65,-1.81,-1.81,-1.81
175.02,-5.98,-4.13,-5.98,-4.12,4.12,3.88,3.63,-1.86,-1.86,-1.85
176.77,-5.99,-4.09,-5.99,-4.08,4.08,3.86,3.62,-1.91,-1.91,-1.90
178.54,-6.00,-4.05,-6.00,-4.04,4.04,3.83,3.60,-1.96,-1.96,-1.95
180.32,-6.00,-3.99,-6.00,-4.00,4.00,3.80,3.59,-2.00,-2.01,-2.01
182.13,-6.01,-3.96,-6.01,-3.95,3.96,3.78,3.58,-2.05,-2.05,-2.05
183.95,-6.02,-3.93,-6.01,-3.91,3.92,3.75,3.58,-2.10,-2.10,-2.09
185.79,-6.02,-3.87,-6.02,-3.88,3.87,3.73,3.57,-2.15,-2.15,-2.15
187.65,-6.03,-3.84,-6.03,-3.84,3.83,3.71,3.57,-2.20,-2.20,-2.19
189.52,-6.05,-3.81,-6.04,-3.80,3.79,3.69,3.57,-2.26,-2.25,-2.24
191.42,-6.05,-3.76,-6.05,-3.76,3.76,3.67,3.57,-2.29,-2.30,-2.29
193.33,-6.06,-3.72,-6.06,-3.72,3.72,3.65,3.58,-2.34,-2.34,-2.34
195.27,-6.08,-3.69,-6.07,-3.68,3.68,3.63,3.58,-2.40,-2.39,-2.39
197.22,-6.08,-3.64,-6.09,-3.65,3.65,3.61,3.59,-2.43,-2.44,-2.44
199.19,-6.10,-3.63,-6.10,-3.62,3.62,3.60,3.60,-2.48,-2.48,-2.47
201.18,-6.11,-3.59,-6.10,-3.58,3.58,3.58,3.61,-2.53,-2.52,-2.52
203.19,-6.11,-3.56,-6.11,-3.55,3.55,3.57,3.62,-2.56,-2.56,-2.55
205.23,-6.11,-3.52,-6.11,-3.52,3.52,3.55,3.63,-2.59,-2.59,-2.59
207.28,-6.12,-3.50,-6.12,-3.49,3.49,3.54,3.64,-2.63,-2.63,-2.62
209.35,-6.13,-3.47,-6.13,-3.46,3.46,3.53,3.65,-2.67,-2.67,-2.66
211.44,-6.13,-3.43,-6.13,-3.43,3.42,3.51,3.67,-2.71,-2.71,-2.70
213.56,-6.13,-3.39,-6.13,-3.39,3.39,3.50,3.68,-2.74,-2.74,-2.74
215.69,-6.13,-3.36,-6.13,-3.36,3.36,3.49,3.69,-2.77,-2.77,-2.77
217.85,-6.14,-3.34,-6.14,-3.33,3.33,3.48,3.70,-2.81,-2.80,-2.80
220.03,-6.14,-3.30,-6.14,-3.30,3.31,3.47,3.71,-2.83,-2.83,-2.84
222.23,-6.15,-3.29,-6.15,-3.28,3.28,3.45,3.72,-2.87,-2.87,-2.86
224.45,-6.16,-3.27,-6.16,-3.26,3.26,3.44,3.73,-2.90,-2.90,-2.89
226.70,-6.17,-3.25,-6.17,-3.25,3.24,3.43,3.73,-2.93,-2.92,-2.92
228.96,-6.17,-3.23,-6.17,-3.23,3.22,3.41,3.74,-2.95,-2.95,-2.94
231.25,-6.17,-3.21,-6.17,-3.21,3.20,3.40,3.74,-2.97,-2.97,-2.96
233.57,-6.18,-3.19,-6.18,-3.18,3.18,3.38,3.73,-3.00,-3.00,-2.99
235.90,-6.18,-3.16,-6.18,-3.16,3.16,3.36,3.73,-3.02,-3.02,-3.02
238.26,-6.18,-3.13,-6.18,-3.14,3.14,3.34,3.72,-3.04,-3.04,-3.05
240.64,-6.18,-3.13,-6.18,-3.12,3.12,3.32,3.71,-3.06,-3.06,-3.05
243.05,-6.17,-3.10,-6.18,-3.10,3.10,3.29,3.69,-3.07,-3.08,-3.07
245.48,-6.18,-3.08,-6.17,-3.07,3.08,3.26,3.67,-3.10,-3.10,-3.10
247.93,-6.17,-3.05,-6.17,-3.05,3.05,3.23,3.64,-3.12,-3.12,-3.12
250.41,-6.16,-3.04,-6.16,-3.03,3.03,3.20,3.61,-3.13,-3.13,-3.12
252.92,-6.15,-3.02,-6.15,-3.01,3.01,3.17,3.57,-3.14,-3.14,-3.13
255.45,-6.14,-2.99,-6.14,-2.99,2.98,3.13,3.54,-3.16,-3.16,-3.15
258.00,-6.12,-2.96,-6.12,-2.95,2.95,3.09,3.49,-3.17,-3.17,-3.16
260.58,-6.10,-2.93,-6.10,-2.92,2.92,3.05,3.44,-3.18,-3.18,-3.17
263.19,-6.08,-2.89,-6.08,-2.89,2.89,3.00,3.39,-3.19,-3.19,-3.19
265.82,-6.07,-2.87,-6.06,-2.86,2.86,2.96,3.34,-3.21,-3.20,-3.20
268.48,-6.05,-2.84,-6.05,-2.83,2.83,2.91,3.28,-3.22,-3.22,-3.21
271.16,-6.03,-2.80,-6.04,-2.81,2.80,2.86,3.21,-3.23,-3.23,-3.23
273.87,-6.03,-2.79,-6.02,-2.78,2.78,2.81,3.15,-3.25,-3.25,-3.24
276.61,-6.01,-2.75,-6.01,-2.74,2.75,2.75,3.08,-3.26,-3.26,-3.26
279.38,-6.00,-2.72,-6.00,-2.72,2.72,2.70,3.00,-3.28,-3.28,-3.28
282.17,-5.98,-2.69,-5.98,-2.70,2.70,2.64,2.93,-3.28,-3.29,-3.29
284.99,-5.97,-2.69,-5.97,-2.67,2.67,2.59,2.85,-3.30,-3.30,-3.28
287.84,-5.95,-2.66,-5.95,-2.65,2.65,2.53,2.77,-3.30,-3.30,-3.29
290.72,-5.93,-2.61,-5.93,-2.62,2.62,2.47,2.69,-3.31,-3.31,-3.32
293.63,-5.91,-2.60,-5.91,-2.59,2.60,2.41,2.61,-3.31,-3.31,-3.31
296.57,-5.89,-2.57,-5.89,-2.56,2.57,2.36,2.52,-3.32,-3.32,-3.32
299.53,-5.87,-2.54,-5.87,-2.54,2.54,2.30,2.44,-3.33,-3.33,-3.33
302.53,-5.85,-2.52,-5.85,-2.51,2.51,2.24,2.36,-3.34,-3.34,-3.33
305.55,-5.82,-2.48,-5.82,-2.48,2.47,2.19,2.27,-3.35,-3.35,-3.34
308.61,-5.79,-2.45,-5.79,-2.44,2.43,2.13,2.18,-3.36,-3.35,-3.34
311.69,-5.75,-2.40,-5.75,-2.39,2.39,2.07,2.10,-3.36,-3.35,-3.35
314.81,-5.70,-2.35,-5.70,-2.35,2.35,2.02,2.01,-3.35,-3.36,-3.35
317.96,-5.66,-2.30,-5.66,-2.30,2.30,1.96,1.93,-3.36,-3.36,-3.36
321.14,-5.61,-2.26,-5.61,-2.25,2.25,1.91,1.84,-3.36,-3.36,-3.35
324.35,-5.56,-2.19,-5.56,-2.20,2.20,1.85,1.76,-3.36,-3.36,-3.37
327.59,-5.51,-2.16,-5.51,-2.15,2.14,1.80,1.67,-3.37,-3.37,-3.35
330.87,-5.46,-2.10,-5.46,-2.09,2.09,1.75,1.59,-3.37,-3.37,-3.36
334.18,-5.40,-2.03,-5.40,-2.03,2.03,1.70,1.50,-3.37,-3.37,-3.37
337.52,-5.34,-1.98,-5.34,-1.97,1.98,1.65,1.42,-3.36,-3.37,-3.36
340.90,-5.28,-1.91,-5.28,-1.91,1.91,1.60,1.34,-3.37,-3.37,-3.37
344.30,-5.22,-1.86,-5.22,-1.85,1.85,1.55,1.25,-3.37,-3.37,-3.36
347.75,-5.16,-1.81,-5.15,-1.79,1.78,1.50,1.17,-3.38,-3.37,-3.35
351.23,-5.08,-1.71,-5.08,-1.72,1.72,1.45,1.09,-3.36,-3.37,-3.37
354.74,-5.01,-1.66,-5.01,-1.65,1.65,1.41,1.01,-3.36,-3.36,-3.35
358.28,-4.94,-1.58,-4.94,-1.57,1.58,1.36,0.93,-3.36,-3.36,-3.36
361.87,-4.86,-1.50,-4.86,-1.50,1.51,1.31,0.86,-3.35,-3.36,-3.36
365.49,-4.79,-1.43,-4.79,-1.43,1.43,1.27,0.78,-3.36,-3.36,-3.36
369.14,-4.72,-1.37,-4.72,-1.36,1.36,1.22,0.70,-3.36,-3.36,-3.35
372.83,-4.64,-1.29,-4.64,-1.29,1.28,1.18,0.62,-3.36,-3.36,-3.35
376.56,-4.57,-1.21,-4.57,-1.21,1.20,1.14,0.55,-3.37,-3.36,-3.36
380.33,-4.49,-1.13,-4.49,-1.13,1.13,1.09,0.47,-3.36,-3.36,-3.36
384.13,-4.41,-1.05,-4.41,-1.05,1.05,1.05,0.40,-3.36,-3.36,-3.36
387.97,-4.33,-0.98,-4.33,-0.97,0.97,1.01,0.32,-3.36,-3.36,-3.35
391.85,-4.26,-0.90,-4.25,-0.89,0.89,0.96,0.25,-3.37,-3.36,-3.36
395.77,-4.17,-0.81,-4.17,-0.81,0.81,0.92,0.18,-3.36,-3.36,-3.36
399.73,-4.09,-0.73,-4.09,-0.73,0.73,0.88,0.11,-3.36,-3.36,-3.36
403.72,-4.01,-0.66,-4.01,-0.65,0.65,0.84,0.04,-3.36,-3.36,-3.35
407.76,-3.93,-0.58,-3.93,-0.58,0.57,0.79,-0.03,-3.36,-3.36,-3.35
411.84,-3.85,-0.50,-3.85,-0.50,0.49,0.75,-0.10,-3.36,-3.36,-3.35
415.96,-3.77,-0.42,-3.77,-0.41,0.41,0.71,-0.17,-3.36,-3.36,-3.35
420.12,-3.69,-0.33,-3.69,-0.33,0.33,0.66,-0.23,-3.36,-3.36,-3.36
424.32,-3.61,-0.25,-3.61,-0.25,0.25,0.62,-0.30,-3.36,-3.36,-3.36
