frequency,raw,error,smoothed,error_smoothed,equalization,parametric_eq,fixed_band_eq,equalized_raw,equalized_smoothed,target
20.00,3.52,-4.96,3.52,-4.99,4.99,4.81,1.65,8.51,8.51,8.49
20.20,3.58,-4.94,3.59,-4.95,4.95,4.79,1.70,8.54,8.54,8.53
20.40,3.66,-4.91,3.65,-4.92,4.92,4.77,1.75,8.57,8.57,8.57
20.61,3.71,-4.88,3.72,-4.88,4.88,4.74,1.81,8.60,8.60,8.60
20.81,3.78,-4.86,3.78,-4.85,4.85,4.72,1.86,8.62,8.63,8.64
21.02,3.84,-4.83,3.84,-4.81,4.81,4.70,1.92,8.65,8.65,8.68
21.23,3.90,-4.79,3.90,-4.77,4.77,4.68,1.97,8.68,8.67,8.69
21.44,3.97,-4.75,3.96,-4.73,4.73,4.65,2.03,8.70,8.70,8.71
21.66,4.02,-4.71,4.03,-4.69,4.69,4.63,2.09,8.72,8.72,8.73
21.87,4.09,-4.66,4.09,-4.65,4.65,4.60,2.15,8.74,8.74,8.74
22.09,4.15,-4.62,4.15,-4.61,4.61,4.57,2.22,8.75,8.75,8.76
22.31,4.21,-4.57,4.21,-4.56,4.56,4.55,2.28,8.77,8.77,8.77
22.54,4.26,-4.52,4.27,-4.52,4.52,4.52,2.35,8.78,8.78,8.78
22.76,4.33,-4.47,4.33,-4.47,4.47,4.49,2.42,8.79,8.79,8.79
22.99,4.38,-4.41,4.38,-4.42,4.42,4.46,2.49,8.80,8.80,8.79
23.22,4.44,-4.35,4.44,-4.36,4.36,4.44,2.56,8.81,8.81,8.80
23.45,4.50,-4.31,4.50,-4.32,4.32,4.41,2.63,8.81,8.82,8.81
23.69,4.55,-4.26,4.56,-4.27,4.27,4.38,2.71,8.82,8.83,8.82
23.92,4.62,-4.21,4.61,-4.22,4.22,4.35,2.79,8.84,8.83,8.83
24.16,4.68,-4.17,4.67,-4.17,4.17,4.32,2.86,8.85,8.84,8.85
24.40,4.73,-4.14,4.72,-4.13,4.13,4.29,2.94,8.85,8.85,8.86
24.65,4.77,-4.09,4.78,-4.08,4.08,4.26,3.02,8.86,8.86,8.86
24.89,4.84,-4.04,4.83,-4.04,4.04,4.23,3.10,8.88,8.87,8.87
25.14,4.89,-4.00,4.88,-4.00,4.00,4.20,3.19,8.89,8.88,8.88
25.39,4.94,-3.96,4.93,-3.96,3.96,4.17,3.27,8.90,8.89,8.89
25.65,4.97,-3.94,4.98,-3.92,3.92,4.14,3.35,8.90,8.90,8.91
25.91,5.02,-3.88,5.03,-3.88,3.88,4.11,3.43,8.91,8.91,8.91
26.16,5.08,-3.84,5.08,-3.85,3.85,4.08,3.52,8.92,8.92,8.92
26.43,5.12,-3.80,5.12,-3.81,3.81,4.05,3.60,8.93,8.93,8.93
26.69,5.16,-3.77,5.17,-3.77,3.77,4.02,3.68,8.93,8.94,8.93
26.96,5.21,-3.74,5.21,-3.73,3.73,3.99,3.76,8.95,8.95,8.95
27.23,5.25,-3.71,5.26,-3.70,3.70,3.96,3.84,8.95,8.96,8.96
27.50,5.30,-3.67,5.30,-3.66,3.66,3.93,3.91,8.97,8.97,8.97
27.77,5.35,-3.62,5.34,-3.63,3.63,3.90,3.99,8.98,8.97,8.97
28.05,5.38,-3.60,5.38,-3.60,3.60,3.87,4.06,8.98,8.98,8.99
28.33,5.41,-3.57,5.42,-3.57,3.57,3.84,4.13,8.98,8.99,8.99
28.62,5.45,-3.54,5.46,-3.54,3.54,3.82,4.19,8.99,9.00,8.99
28.90,5.49,-3.51,5.49,-3.51,3.51,3.79,4.25,9.01,9.01,9.00
29.19,5.52,-3.48,5.52,-3.49,3.49,3.76,4.31,9.01,9.01,9.00
29.48,5.55,-3.47,5.55,-3.47,3.47,3.73,4.36,9.02,9.02,9.03
29.78,5.58,-3.44,5.58,-3.45,3.45,3.71,4.40,9.03,9.02,9.03
30.08,5.60,-3.43,5.60,-3.43,3.43,3.68,4.44,9.04,9.03,9.03
30.38,5.62,-3.41,5.62,-3.42,3.42,3.66,4.48,9.04,9.04,9.03
30.68,5.63,-3.42,5.64,-3.41,3.41,3.63,4.51,9.04,9.04,9.05
30.99,5.65,-3.39,5.65,-3.40,3.40,3.61,4.53,9.05,9.05,9.05
31.30,5.66,-3.39,5.67,-3.39,3.39,3.58,4.55,9.06,9.06,9.06
31.61,5.67,-3.39,5.68,-3.39,3.39,3.56,4.56,9.06,9.07,9.06
31.93,5.68,-3.39,5.69,-3.39,3.39,3.54,4.56,9.07,9.07,9.07
32.24,5.68,-3.38,5.69,-3.39,3.39,3.52,4.56,9.07,9.08,9.07
32.57,5.69,-3.39,5.70,-3.39,3.39,3.50,4.55,9.08,9.09,9.09
32.89,5.70,-3.39,5.70,-3.39,3.39,3.48,4.54,9.10,9.09,9.09
33.22,5.70,-3.39,5.70,-3.40,3.40,3.46,4.53,9.10,9.10,9.10
33.55,5.70,-3.40,5.70,-3.40,3.40,3.44,4.50,9.11,9.10,9.11
33.89,5.70,-3.41,5.70,-3.41,3.41,3.42,4.48,9.11,9.11,9.11
34.23,5.70,-3.42,5.70,-3.41,3.41,3.40,4.45,9.12,9.12,9.12
34.57,5.69,-3.43,5.70,-3.42,3.42,3.39,4.41,9.12,9.12,9.13
34.92,5.69,-3.43,5.70,-3.43,3.43,3.37,4.38,9.13,9.13,9.12
35.27,5.68,-3.44,5.69,-3.44,3.44,3.36,4.34,9.12,9.13,9.13
35.62,5.68,-3.45,5.69,-3.45,3.45,3.34,4.30,9.13,9.13,9.13
35.97,5.67,-3.46,5.68,-3.46,3.46,3.33,4.25,9.13,9.14,9.13
36.33,5.66,-3.47,5.67,-3.47,3.47,3.32,4.21,9.13,9.14,9.14
36.70,5.66,-3.47,5.66,-3.48,3.48,3.31,4.16,9.14,9.14,9.13
37.06,5.65,-3.48,5.65,-3.49,3.49,3.30,4.12,9.14,9.14,9.14
37.43,5.64,-3.50,5.64,-3.50,3.50,3.29,4.07,9.14,9.13,9.14
37.81,5.63,-3.50,5.63,-3.50,3.50,3.28,4.03,9.14,9.13,9.14
38.19,5.61,-3.52,5.61,-3.51,3.51,3.28,3.98,9.13,9.13,9.13
38.57,5.60,-3.52,5.60,-3.52,3.52,3.27,3.94,9.13,9.13,9.13
38.95,5.58,-3.54,5.59,-3.54,3.54,3.27,3.90,9.12,9.12,9.12
39.34,5.57,-3.54,5.57,-3.55,3.55,3.26,3.85,9.12,9.12,9.12
39.74,5.55,-3.56,5.56,-3.56,3.56,3.26,3.81,9.11,9.12,9.11
40.14,5.54,-3.57,5.55,-3.57,3.57,3.26,3.78,9.11,9.11,9.11
40.54,5.52,-3.58,5.53,-3.58,3.58,3.26,3.74,9.10,9.11,9.11
40.94,5.51,-3.59,5.52,-3.59,3.59,3.26,3.71,9.10,9.11,9.10
41.35,5.50,-3.59,5.50,-3.60,3.60,3.26,3.67,9.10,9.10,9.09
41.76,5.49,-3.60,5.49,-3.60,3.60,3.27,3.65,9.10,9.10,9.10
42.18,5.47,-3.62,5.48,-3.61,3.61,3.27,3.62,9.09,9.09,9.10
42.60,5.46,-3.63,5.47,-3.62,3.62,3.28,3.59,9.08,9.09,9.09
43.03,5.45,-3.64,5.46,-3.62,3.62,3.29,3.57,9.08,9.08,9.09
43.46,5.44,-3.64,5.45,-3.63,3.63,3.29,3.55,9.08,9.08,9.08
43.90,5.43,-3.63,5.43,-3.64,3.64,3.30,3.54,9.08,9.07,9.07
44.33,5.42,-3.64,5.42,-3.65,3.65,3.31,3.52,9.07,9.07,9.07
44.78,5.41,-3.64,5.41,-3.66,3.66,3.33,3.51,9.07,9.06,9.06
45.23,5.39,-3.65,5.39,-3.67,3.67,3.34,3.51,9.06,9.06,9.05
45.68,5.38,-3.66,5.38,-3.67,3.67,3.35,3.50,9.06,9.05,9.05
46.13,5.36,-3.67,5.36,-3.68,3.68,3.37,3.50,9.05,9.05,9.04
46.60,5.35,-3.69,5.35,-3.69,3.69,3.38,3.50,9.05,9.04,9.05
47.06,5.33,-3.70,5.33,-3.70,3.70,3.40,3.50,9.03,9.03,9.04
47.53,5.31,-3.71,5.32,-3.71,3.71,3.42,3.51,9.02,9.02,9.02
48.01,5.29,-3.74,5.30,-3.71,3.71,3.43,3.51,9.01,9.01,9.03
48.49,5.28,-3.72,5.28,-3.72,3.72,3.45,3.52,9.00,9.00,9.01
48.97,5.26,-3.72,5.27,-3.72,3.72,3.47,3.53,8.99,8.99,8.99
49.46,5.24,-3.73,5.25,-3.72,3.72,3.49,3.55,8.97,8.97,8.97
49.96,5.22,-3.72,5.23,-3.73,3.73,3.51,3.56,8.95,8.96,8.95
50.46,5.21,-3.73,5.22,-3.72,3.72,3.53,3.58,8.94,8.94,8.94
50.96,5.19,-3.73,5.20,-3.72,3.72,3.56,3.60,8.92,8.92,8.93
51.47,5.18,-3.71,5.19,-3.72,3.72,3.58,3.62,8.90,8.91,8.89
51.99,5.17,-3.70,5.17,-3.71,3.71,3.60,3.64,8.89,8.89,8.88
52.51,5.16,-3.71,5.16,-3.71,3.71,3.62,3.66,8.87,8.86,8.87
53.03,5.15,-3.69,5.14,-3.70,3.70,3.64,3.68,8.85,8.84,8.84
53.56,5.13,-3.69,5.13,-3.69,3.69,3.66,3.71,8.83,8.82,8.83
54.10,5.11,-3.68,5.12,-3.68,3.68,3.68,3.73,8.80,8.80,8.80
54.64,5.09,-3.68,5.10,-3.67,3.67,3.70,3.75,8.77,8.78,8.78
55.18,5.08,-3.67,5.09,-3.66,3.66,3.72,3.77,8.75,8.75,8.75
55.74,5.07,-3.65,5.08,-3.66,3.66,3.73,3.79,8.73,8.73,8.72
56.29,5.05,-3.65,5.06,-3.64,3.64,3.75,3.81,8.70,8.71,8.71
56.86,5.04,-3.63,5.05,-3.63,3.63,3.76,3.83,8.68,8.68,8.68
57.42,5.03,-3.61,5.03,-3.62,3.62,3.78,3.84,8.66,8.66,8.65
58.00,5.02,-3.60,5.02,-3.61,3.61,3.79,3.85,8.63,8.63,8.62
58.58,5.01,-3.58,5.01,-3.59,3.59,3.80,3.86,8.61,8.60,8.60
59.16,5.00,-3.57,4.99,-3.57,3.57,3.80,3.87,8.58,8.57,8.57
59.76,4.98,-3.56,4.98,-3.55,3.55,3.81,3.87,8.53,8.53,8.55
60.35,4.96,-3.55,4.97,-3.53,3.53,3.81,3.87,8.49,8.50,8.51
60.96,4.95,-3.52,4.96,-3.50,3.50,3.81,3.87,8.46,8.46,8.48
61.57,4.93,-3.49,4.95,-3.48,3.48,3.80,3.86,8.41,8.43,8.43
62.18,4.92,-3.46,4.94,-3.45,3.45,3.80,3.85,8.38,8.39,8.38
62.80,4.91,-3.44,4.93,-3.42,3.42,3.79,3.83,8.34,8.35,8.35
63.43,4.91,-3.39,4.91,-3.40,3.40,3.77,3.81,8.31,8.31,8.30
64.07,4.90,-3.36,4.90,-3.37,3.37,3.76,3.79,8.28,8.27,8.26
64.71,4.89,-3.32,4.88,-3.35,3.35,3.74,3.76,8.24,8.22,8.22
65.35,4.87,-3.30,4.86,-3.32,3.32,3.72,3.73,8.20,8.18,8.18
66.01,4.84,-3.29,4.84,-3.30,3.30,3.69,3.69,8.14,8.13,8.13
66.67,4.81,-3.28,4.81,-3.28,3.28,3.67,3.65,8.09,8.09,8.10
67.33,4.79,-3.26,4.78,-3.26,3.26,3.63,3.61,8.05,8.05,8.05
68.01,4.76,-3.24,4.76,-3.25,3.25,3.60,3.56,8.01,8.00,8.01
68.69,4.73,-3.22,4.72,-3.23,3.23,3.57,3.51,7.97,7.96,7.96
69.37,4.69,-3.22,4.69,-3.22,3.22,3.53,3.46,7.91,7.91,7.91
70.07,4.65,-3.21,4.66,-3.21,3.21,3.49,3.41,7.86,7.87,7.86
70.77,4.61,-3.21,4.62,-3.20,3.20,3.44,3.35,7.81,7.82,7.82
71.48,4.58,-3.19,4.59,-3.19,3.19,3.40,3.30,7.77,7.78,7.78
72.19,4.54,-3.18,4.56,-3.17,3.17,3.35,3.24,7.72,7.73,7.73
72.91,4.51,-3.17,4.53,-3.16,3.16,3.30,3.18,7.68,7.69,7.68
73.64,4.48,-3.16,4.50,-3.15,3.15,3.25,3.12,7.63,7.64,7.64
74.38,4.46,-3.14,4.47,-3.13,3.13,3.20,3.06,7.60,7.60,7.60
75.12,4.44,-3.11,4.44,-3.12,3.12,3.14,3.00,7.57,7.56,7.56
75.87,4.42,-3.10,4.42,-3.10,3.10,3.09,2.94,7.53,7.52,7.52
76.63,4.41,-3.07,4.40,-3.09,3.09,3.03,2.88,7.50,7.48,7.48
77.40,4.39,-3.05,4.38,-3.06,3.06,2.98,2.82,7.46,7.45,7.44
78.17,4.36,-3.04,4.37,-3.04,3.04,2.92,2.77,7.40,7.41,7.40
78.95,4.34,-3.03,4.36,-3.01,3.01,2.86,2.71,7.36,7.37,7.37
79.74,4.33,-3.01,4.36,-2.98,2.98,2.80,2.65,7.32,7.34,7.34
80.54,4.32,-2.98,4.35,-2.95,2.95,2.74,2.60,7.28,7.31,7.31
81.35,4.32,-2.95,4.35,-2.93,2.93,2.69,2.54,7.25,7.27,7.27
82.16,4.32,-2.92,4.34,-2.90,2.90,2.63,2.49,7.22,7.24,7.24
82.98,4.34,-2.87,4.34,-2.87,2.87,2.57,2.44,7.21,7.21,7.21
83.81,4.35,-2.82,4.34,-2.84,2.84,2.51,2.39,7.20,7.18,7.18
84.65,4.35,-2.79,4.33,-2.82,2.82,2.45,2.34,7.17,7.15,7.14
85.50,4.35,-2.77,4.32,-2.80,2.80,2.40,2.29,7.15,7.12,7.12
86.35,4.33,-2.76,4.31,-2.78,2.78,2.34,2.25,7.12,7.09,7.09
87.22,4.31,-2.75,4.30,-2.77,2.77,2.28,2.21,7.08,7.07,7.06
88.09,4.29,-2.74,4.28,-2.76,2.76,2.23,2.16,7.05,7.04,7.03
88.97,4.26,-2.75,4.26,-2.75,2.75,2.17,2.12,7.02,7.01,7.01
89.86,4.23,-2.76,4.24,-2.75,2.75,2.12,2.09,6.98,6.98,6.99
90.76,4.21,-2.73,4.21,-2.75,2.75,2.07,2.05,6.96,6.95,6.95
91.66,4.17,-2.75,4.18,-2.75,2.75,2.01,2.01,6.92,6.93,6.92
92.58,4.14,-2.75,4.15,-2.75,2.75,1.96,1.98,6.90,6.90,6.89
93.51,4.11,-2.76,4.12,-2.75,2.75,1.91,1.95,6.87,6.87,6.88
94.44,4.08,-2.76,4.09,-2.75,2.75,1.86,1.92,6.83,6.84,6.84
95.39,4.05,-2.76,4.07,-2.74,2.74,1.81,1.89,6.79,6.81,6.82
96.34,4.03,-2.74,4.05,-2.72,2.72,1.76,1.86,6.76,6.77,6.77
97.30,4.01,-2.72,4.03,-2.70,2.70,1.71,1.83,6.72,6.74,6.73
98.28,4.00,-2.69,4.02,-2.68,2.68,1.67,1.81,6.69,6.70,6.70
99.26,3.99,-2.67,4.01,-2.65,2.65,1.62,1.78,6.65,6.66,6.66
100.25,3.99,-2.63,4.01,-2.62,2.62,1.58,1.76,6.61,6.63,6.62
101.25,4.00,-2.58,4.00,-2.58,2.58,1.53,1.74,6.59,6.59,6.59
102.27,4.01,-2.52,4.00,-2.54,2.54,1.49,1.72,6.56,6.54,6.54
103.29,4.01,-2.48,4.00,-2.49,2.49,1.44,1.70,6.51,6.50,6.49
104.32,4.01,-2.44,4.00,-2.44,2.44,1.40,1.68,6.46,6.45,6.45
105.37,4.01,-2.39,4.01,-2.39,2.39,1.36,1.66,6.41,6.40,6.41
106.42,4.01,-2.33,4.01,-2.34,2.34,1.32,1.64,6.35,6.35,6.35
107.48,4.01,-2.29,4.01,-2.28,2.28,1.28,1.62,6.29,6.29,6.30
108.56,4.01,-2.22,4.01,-2.22,2.22,1.24,1.60,6.23,6.23,6.23
109.64,4.01,-2.16,4.02,-2.16,2.16,1.20,1.59,6.17,6.17,6.18
110.74,4.01,-2.10,4.02,-2.09,2.09,1.16,1.57,6.11,6.11,6.12
111.85,4.01,-2.04,4.02,-2.03,2.03,1.12,1.55,6.04,6.04,6.05
112.97,4.01,-1.96,4.02,-1.96,1.96,1.09,1.53,5.98,5.98,5.97
114.10,4.01,-1.90,4.01,-1.90,1.90,1.05,1.51,5.91,5.91,5.92
115.24,4.01,-1.83,4.01,-1.83,1.83,1.01,1.49,5.84,5.84,5.84
116.39,4.01,-1.75,4.01,-1.76,1.76,0.98,1.47,5.78,5.77,5.77
117.55,4.01,-1.69,4.01,-1.70,1.70,0.94,1.45,5.71,5.71,5.70
118.73,4.01,-1.61,4.00,-1.63,1.63,0.91,1.43,5.65,5.64,5.63
119.92,4.01,-1.56,4.00,-1.57,1.57,0.87,1.41,5.58,5.57,5.57
121.12,4.01,-1.48,4.00,-1.51,1.51,0.84,1.38,5.52,5.50,5.50
122.33,4.00,-1.43,4.00,-1.44,1.44,0.80,1.36,5.44,5.44,5.43
123.55,3.99,-1.39,4.00,-1.37,1.37,0.77,1.33,5.37,5.38,5.38
124.79,3.99,-1.32,4.01,-1.31,1.31,0.74,1.30,5.30,5.31,5.32
126.03,3.99,-1.26,4.02,-1.24,1.24,0.70,1.27,5.23,5.25,5.26
127.29,4.00,-1.19,4.03,-1.16,1.16,0.67,1.24,5.17,5.19,5.20
128.57,4.02,-1.10,4.05,-1.09,1.09,0.64,1.21,5.11,5.14,5.13
129.85,4.05,-1.02,4.07,-1.01,1.01,0.60,1.17,5.07,5.08,5.08
131.15,4.08,-0.93,4.09,-0.94,0.94,0.57,1.14,5.02,5.03,5.02
132.46,4.10,-0.87,4.12,-0.85,0.85,0.54,1.10,4.96,4.97,4.97
133.79,4.14,-0.78,4.15,-0.77,0.77,0.51,1.06,4.92,4.92,4.93
135.12,4.18,-0.68,4.18,-0.69,0.69,0.47,1.02,4.88,4.87,4.87
136.48,4.21,-0.61,4.21,-0.61,0.61,0.44,0.98,4.82,4.82,4.82
137.84,4.25,-0.52,4.24,-0.53,0.53,0.40,0.94,4.78,4.77,4.77
139.22,4.27,-0.44,4.27,-0.46,0.46,0.37,0.90,4.73,4.73,4.72
140.61,4.30,-0.36,4.29,-0.39,0.39,0.34,0.85,4.69,4.68,4.67
142.02,4.33,-0.30,4.31,-0.32,0.32,0.30,0.80,4.65,4.63,4.63
143.44,4.34,-0.25,4.33,-0.26,0.26,0.27,0.76,4.60,4.59,4.59
144.87,4.36,-0.18,4.34,-0.20,0.20,0.23,0.71,4.57,4.54,4.54
146.32,4.36,-0.13,4.34,-0.15,0.15,0.19,0.66,4.52,4.50,4.50
147.78,4.35,-0.10,4.34,-0.10,0.10,0.16,0.61,4.46,4.45,4.46
149.26,4.35,-0.06,4.34,-0.06,0.06,0.12,0.56,4.41,4.40,4.41
150.75,4.34,-0.00,4.34,-0.01,0.01,0.08,0.51,4.35,4.35,4.35
152.26,4.33,0.03,4.34,0.04,-0.04,0.04,0.46,4.30,4.30,4.30
153.78,4.32,0.07,4.34,0.08,-0.08,-0.00,0.41,4.24,4.25,4.26
155.32,4.32,0.13,4.34,0.13,-0.13,-0.05,0.36,4.19,4.20,4.20
156.88,4.31,0.16,4.34,0.19,-0.19,-0.09,0.31,4.13,4.15,4.16
158.44,4.32,0.22,4.34,0.24,-0.24,-0.14,0.26,4.08,4.10,4.10
160.03,4.33,0.29,4.36,0.31,-0.31,-0.18,0.20,4.03,4.05,4.05
161.63,4.35,0.37,4.37,0.37,-0.37,-0.23,0.15,3.98,4.00,3.99
163.24,4.37,0.44,4.39,0.45,-0.45,-0.28,0.09,3.93,3.94,3.94
164.88,4.41,0.52,4.41,0.53,-0.53,-0.34,0.04,3.89,3.89,3.89
166.53,4.43,0.60,4.44,0.61,-0.61,-0.39,-0.01,3.83,3.84,3.84
168.19,4.46,0.68,4.47,0.69,-0.69,-0.45,-0.07,3.77,3.78,3.78
169.87,4.50,0.78,4.50,0.78,-0.78,-0.51,-0.12,3.73,3.73,3.73
171.57,4.53,0.86,4.53,0.87,-0.87,-0.57,-0.18,3.67,3.67,3.68
173.29,4.56,0.95,4.56,0.95,-0.95,-0.64,-0.24,3.61,3.61,3.61
175.02,4.60,1.04,4.59,1.04,-1.04,-0.71,-0.29,3.57,3.55,3.56
176.77,4.63,1.14,4.61,1.12,-1.12,-0.78,-0.35,3.51,3.49,3.49
178.54,4.65,1.22,4.63,1.20,-1.20,-0.85,-0.41,3.45,3.43,3.43
180.32,4.66,1.29,4.65,1.28,-1.28,-0.93,-0.46,3.39,3.37,3.37
182.13,4.68,1.37,4.66,1.35,-1.35,-1.01,-0.52,3.33,3.31,3.32
183.95,4.68,1.44,4.67,1.42,-1.42,-1.09,-0.58,3.26,3.25,3.25
185.79,4.68,1.49,4.68,1.49,-1.49,-1.18,-0.64,3.20,3.19,3.19
187.65,4.67,1.56,4.68,1.55,-1.55,-1.27,-0.70,3.12,3.13,3.12
189.52,4.66,1.60,4.68,1.61,-1.61,-1.36,-0.76,3.06,3.07,3.06
191.42,4.66,1.66,4.68,1.67,-1.67,-1.46,-0.82,3.00,3.01,3.01
193.33,4.66,1.71,4.67,1.72,-1.72,-1.55,-0.87,2.94,2.95,2.96
195.27,4.66,1.76,4.67,1.78,-1.78,-1.65,-0.93,2.89,2.90,2.90
197.22,4.66,1.82,4.67,1.83,-1.83,-1.75,-0.99,2.84,2.84,2.84
199.19,4.66,1.88,4.67,1.88,-1.88,-1.85,-1.05,2.78,2.79,2.78
201.18,4.66,1.93,4.67,1.93,-1.93,-1.94,-1.11,2.73,2.74,2.73
203.19,4.66,1.97,4.67,1.99,-1.99,-2.04,-1.17,2.68,2.68,2.69
205.23,4.66,2.03,4.67,2.04,-2.04,-2.12,-1.23,2.63,2.64,2.63
207.28,4.66,2.06,4.68,2.09,-2.09,-2.21,-1.29,2.58,2.59,2.60
209.35,4.67,2.13,4.68,2.14,-2.14,-2.28,-1.34,2.54,2.54,2.55
211.44,4.67,2.19,4.68,2.18,-2.18,-2.35,-1.40,2.49,2.50,2.49
213.56,4.68,2.23,4.68,2.23,-2.23,-2.40,-1.45,2.46,2.46,2.45
215.69,4.68,2.26,4.68,2.26,-2.26,-2.44,-1.50,2.42,2.42,2.43
217.85,4.67,2.29,4.67,2.30,-2.30,-2.47,-1.56,2.38,2.38,2.38
220.03,4.66,2.33,4.66,2.32,-2.32,-2.48,-1.60,2.34,2.34,2.33
222.23,4.65,2.35,4.65,2.34,-2.34,-2.49,-1.65,2.31,2.31,2.30
224.45,4.64,2.37,4.63,2.35,-2.35,-2.47,-1.70,2.29,2.28,2.28
226.70,4.61,2.36,4.60,2.35,-2.35,-2.44,-1.74,2.26,2.25,2.25
228.96,4.57,2.35,4.57,2.35,-2.35,-2.40,-1.78,2.23,2.22,2.22
231.25,4.54,2.34,4.53,2.33,-2.33,-2.35,-1.81,2.22,2.20,2.21
233.57,4.50,2.32,4.48,2.30,-2.30,-2.29,-1.85,2.20,2.18,2.19
235.90,4.43,2.27,4.43,2.26,-2.26,-2.22,-1.88,2.17,2.17,2.16
238.26,4.38,2.23,4.38,2.22,-2.22,-2.14,-1.90,2.16,2.16,2.15
240.64,4.31,2.17,4.31,2.17,-2.17,-2.06,-1.92,2.14,2.14,2.14
243.05,4.25,2.11,4.25,2.11,-2.11,-1.97,-1.94,2.14,2.14,2.14
245.48,4.17,2.04,4.18,2.04,-2.04,-1.89,-1.95,2.13,2.13,2.13
247.93,4.07,1.94,4.10,1.97,-1.97,-1.80,-1.96,2.10,2.13,2.13
250.41,4.01,1.89,4.02,1.89,-1.89,-1.71,-1.96,2.12,2.13,2.12
252.92,3.92,1.79,3.94,1.81,-1.81,-1.62,-1.96,2.12,2.13,2.13
255.45,3.85,1.71,3.85,1.72,-1.72,-1.53,-1.96,2.14,2.14,2.14
258.00,3.79,1.65,3.77,1.63,-1.63,-1.45,-1.95,2.17,2.14,2.14
260.58,3.69,1.55,3.68,1.53,-1.53,-1.37,-1.94,2.16,2.15,2.15
263.19,3.60,1.45,3.60,1.44,-1.44,-1.29,-1.92,2.17,2.16,2.16
265.82,3.49,1.33,3.51,1.34,-1.34,-1.21,-1.90,2.16,2.17,2.16
268.48,3.41,1.23,3.42,1.24,-1.24,-1.14,-1.87,2.18,2.18,2.18
271.16,3.33,1.14,3.33,1.14,-1.14,-1.07,-1.85,2.20,2.19,2.20
273.87,3.23,1.03,3.24,1.04,-1.04,-1.00,-1.81,2.20,2.20,2.20
276.61,3.14,0.92,3.15,0.93,-0.93,-0.94,-1.78,2.21,2.21,2.22
279.38,3.06,0.84,3.06,0.83,-0.83,-0.88,-1.74,2.23,2.23,2.23
282.17,2.98,0.74,2.97,0.74,-0.74,-0.83,-1.70,2.25,2.24,2.24
284.99,2.91,0.66,2.89,0.64,-0.64,-0.77,-1.66,2.27,2.25,2.26
287.84,2.80,0.54,2.81,0.55,-0.55,-0.72,-1.62,2.25,2.26,2.26
290.72,2.73,0.46,2.74,0.47,-0.47,-0.67,-1.57,2.27,2.28,2.27
293.63,2.66,0.38,2.68,0.39,-0.39,-0.63,-1.52,2.28,2.29,2.29
296.57,2.60,0.30,2.62,0.32,-0.32,-0.59,-1.47,2.29,2.30,2.30
299.53,2.54,0.24,2.56,0.25,-0.25,-0.55,-1.42,2.29,2.31,2.31
302.53,2.50,0.19,2.52,0.19,-0.19,-0.51,-1.37,2.31,2.32,2.31
305.55,2.46,0.12,2.48,0.14,-0.14,-0.47,-1.32,2.32,2.33,2.34
308.61,2.43,0.09,2.45,0.10,-0.10,-0.44,-1.27,2.33,2.34,2.35
311.69,2.41,0.06,2.42,0.07,-0.07,-0.40,-1.22,2.35,2.35,2.35
314.81,2.40,0.03,2.40,0.04,-0.04,-0.37,-1.17,2.37,2.36,2.38
317.96,2.38,0.01,2.39,0.02,-0.02,-0.34,-1.11,2.37,2.37,2.37
321.14,2.37,-0.01,2.38,0.00,-0.00,-0.31,-1.06,2.37,2.38,2.38
324.35,2.36,-0.01,2.38,-0.01,0.01,-0.28,-1.01,2.37,2.38,2.38
327.59,2.37,-0.02,2.37,-0.01,0.01,-0.26,-0.96,2.39,2.39,2.39
330.87,2.38,-0.01,2.37,-0.02,0.02,-0.23,-0.91,2.41,2.39,2.39
334.18,2.39,0.01,2.37,-0.02,0.02,-0.21,-0.85,2.42,2.39,2.39
337.52,2.39,0.00,2.37,-0.02,0.02,-0.19,-0.80,2.42,2.40,2.39
340.90,2.39,-0.01,2.37,-0.02,0.02,-0.16,-0.75,2.42,2.40,2.40
344.30,2.39,-0.00,2.37,-0.02,0.02,-0.14,-0.70,2.42,2.39,2.40
347.75,2.38,-0.01,2.38,-0.02,0.02,-0.12,-0.65,2.40,2.39,2.40
351.23,2.37,-0.02,2.38,-0.01,0.01,-0.10,-0.60,2.39,2.39,2.39
354.74,2.37,-0.02,2.38,-0.00,0.00,-0.08,-0.56,2.38,2.39,2.39
358.28,2.37,-0.00,2.39,0.01,-0.01,-0.06,-0.51,2.37,2.38,2.38
361.87,2.38,0.01,2.40,0.02,-0.02,-0.04,-0.46,2.36,2.38,2.38
365.49,2.40,0.03,2.41,0.04,-0.04,-0.02,-0.41,2.37,2.37,2.37
369.14,2.42,0.06,2.42,0.06,-0.06,-0.01,-0.37,2.37,2.36,2.36
372.83,2.43,0.08,2.44,0.09,-0.09,0.01,-0.32,2.35,2.36,2.36
376.56,2.46,0.12,2.47,0.12,-0.12,0.03,-0.28,2.34,2.35,2.35
380.33,2.48,0.14,2.50,0.16,-0.16,0.05,-0.23,2.32,2.34,2.34
384.13,2.52,0.19,2.54,0.21,-0.21,0.06,-0.19,2.32,2.33,2.33
387.97,2.56,0.24,2.58,0.26,-0.26,0.08,-0.14,2.31,2.33,2.32
391.85,2.61,0.30,2.63,0.31,-0.31,0.10,-0.10,2.31,2.32,2.31
395.77,2.66,0.35,2.67,0.36,-0.36,0.11,-0.06,2.30,2.31,2.32
399.73,2.71,0.41,2.72,0.42,-0.42,0.13,-0.01,2.30,2.30,2.31
403.72,2.77,0.48,2.77,0.47,-0.47,0.15,0.03,2.31,2.30,2.30
407.76,2.82,0.54,2.81,0.52,-0.52,0.16,0.07,2.30,2.29,2.28
411.84,2.88,0.59,2.86,0.57,-0.57,0.18,0.11,2.31,2.29,2.29
415.96,2.92,0.64,2.91,0.62,-0.62,0.20,0.15,2.30,2.28,2.28
420.12,2.95,0.68,2.95,0.67,-0.67,0.21,0.19,2.29,2.28,2.28
424.32,2.98,0.71,2.98,0.71,-0.71,0.23,0.23,2.28,2.27,2.28
428.56,2.99,0.73,3.01,0.74,-0.74,0.25,0.27,2.25,2.27,2.27
432.85,3.02,0.76,3.04,0.77,-0.77,0.26,0.30,2.26,2.27,2.27
437.18,3.05,0.79,3.05,0.79,-0.79,0.28,0.34,2.27,2.27,2.26
441.55,3.07,0.80,3.07,0.80,-0.80,0.30,0.38,2.28,2.27,2.27
445.96,3.08,0.81,3.07,0.80,-0.80,0.32,0.41,2.28,2.27,2.27
450.42,3.07,0.81,3.07,0.80,-0.80,0.34,0.45,2.28,2.27,2.26
454.93,3.05,0.78,3.06,0.78,-0.78,0.36,0.48,2.27,2.27,2.27
459.48,3.03,0.76,3.04,0.76,-0.76,0.38,0.52,2.27,2.28,2.27
464.07,3.01,0.74,3.01,0.73,-0.73,0.40,0.55,2.28,2.28,2.28
468.71,2.97,0.69,2.97,0.69,-0.69,0.42,0.58,2.28,2.28,2.29
473.40,2.93,0.65,2.93,0.64,-0.64,0.45,0.61,2.29,2.29,2.29
478.13,2.88,0.59,2.87,0.58,-0.58,0.47,0.64,2.31,2.29,2.30
482.91,2.82,0.53,2.81,0.51,-0.51,0.50,0.67,2.32,2.30,2.30
487.74,2.74,0.44,2.73,0.43,-0.43,0.52,0.70,2.31,2.30,2.31
492.62,2.66,0.35,2.65,0.34,-0.34,0.55,0.72,2.32,2.31,2.31
497.55,2.56,0.25,2.56,0.25,-0.25,0.58,0.75,2.32,2.31,2.31
502.52,2.46,0.14,2.46,0.14,-0.14,0.61,0.77,2.32,2.32,2.32
507.55,2.35,0.03,2.36,0.04,-0.04,0.64,0.80,2.32,2.32,2.32
512.62,2.24,-0.08,2.24,-0.08,0.08,0.67,0.82,2.33,2.33,2.32
517.75,2.12,-0.21,2.12,-0.20,0.20,0.71,0.84,2.33,2.33,2.33
522.93,2.00,-0.33,2.00,-0.33,0.33,0.75,0.86,2.33,2.33,2.33
528.16,1.87,-0.46,1.87,-0.46,0.46,0.79,0.88,2.33,2.33,2.33
533.44,1.75,-0.58,1.74,-0.59,0.59,0.83,0.90,2.34,2.33,2.33
538.77,1.60,-0.72,1.61,-0.72,0.72,0.87,0.92,2.33,2.33,2.33
544.16,1.46,-0.86,1.47,-0.85,0.85,0.92,0.94,2.32,2.33,2.33
549.60,1.33,-0.99,1.33,-0.99,0.99,0.97,0.96,2.32,2.32,2.33
555.10,1.19,-1.12,1.20,-1.12,1.12,1.02,0.98,2.32,2.32,2.32
560.65,1.05,-1.26,1.06,-1.26,1.26,1.08,1.00,2.31,2.32,2.32
566.25,0.93,-1.39,0.93,-1.39,1.39,1.14,1.01,2.32,2.32,2.33
571.92,0.80,-1.51,0.81,-1.51,1.51,1.21,1.03,2.32,2.32,2.32
