frequency,raw,error,smoothed,error_smoothed,equalization,parametric_eq,fixed_band_eq,equalized_raw,equalized_smoothed,target
20.00,5.35,-3.19,5.34,-3.21,3.21,2.93,1.15,8.56,8.54,8.54
20.20,5.33,-3.20,5.33,-3.20,3.20,2.94,1.19,8.54,8.53,8.53
20.40,5.32,-3.20,5.32,-3.20,3.20,2.95,1.23,8.52,8.52,8.52
20.61,5.31,-3.20,5.31,-3.19,3.19,2.95,1.26,8.51,8.51,8.51
20.81,5.30,-3.19,5.31,-3.18,3.18,2.96,1.30,8.49,8.50,8.49
21.02,5.30,-3.18,5.31,-3.17,3.17,2.97,1.34,8.48,8.49,8.48
21.23,5.30,-3.17,5.31,-3.16,3.16,2.97,1.38,8.47,8.48,8.47
21.44,5.30,-3.18,5.32,-3.15,3.15,2.97,1.43,8.45,8.47,8.48
21.66,5.31,-3.15,5.33,-3.13,3.13,2.98,1.47,8.45,8.46,8.46
21.87,5.32,-3.14,5.34,-3.11,3.11,2.98,1.52,8.44,8.45,8.46
22.09,5.33,-3.11,5.35,-3.09,3.09,2.98,1.56,8.43,8.44,8.44
22.31,5.35,-3.08,5.36,-3.07,3.07,2.98,1.61,8.43,8.43,8.43
22.54,5.37,-3.05,5.39,-3.04,3.04,2.98,1.66,8.42,8.43,8.42
22.76,5.40,-3.02,5.41,-3.01,3.01,2.98,1.71,8.42,8.42,8.42
22.99,5.43,-2.98,5.44,-2.98,2.98,2.98,1.76,8.41,8.42,8.41
23.22,5.46,-2.94,5.47,-2.94,2.94,2.98,1.81,8.41,8.41,8.40
23.45,5.49,-2.92,5.50,-2.91,2.91,2.98,1.87,8.40,8.40,8.41
23.69,5.52,-2.88,5.53,-2.87,2.87,2.97,1.92,8.40,8.40,8.40
23.92,5.56,-2.84,5.55,-2.84,2.84,2.97,1.98,8.40,8.40,8.39
24.16,5.58,-2.82,5.58,-2.81,2.81,2.96,2.04,8.40,8.39,8.40
24.40,5.61,-2.79,5.60,-2.79,2.79,2.96,2.09,8.40,8.39,8.40
24.65,5.63,-2.76,5.62,-2.77,2.77,2.95,2.15,8.40,8.39,8.39
24.89,5.65,-2.74,5.64,-2.75,2.75,2.94,2.21,8.40,8.39,8.39
25.14,5.66,-2.72,5.65,-2.73,2.73,2.94,2.27,8.40,8.39,8.38
25.39,5.67,-2.71,5.66,-2.72,2.72,2.93,2.33,8.40,8.38,8.38
25.65,5.67,-2.71,5.67,-2.72,2.72,2.92,2.39,8.39,8.38,8.38
25.91,5.67,-2.71,5.67,-2.71,2.71,2.91,2.45,8.39,8.38,8.38
26.16,5.66,-2.73,5.67,-2.71,2.71,2.90,2.51,8.38,8.38,8.39
26.43,5.65,-2.73,5.66,-2.72,2.72,2.89,2.56,8.37,8.38,8.38
26.69,5.65,-2.73,5.66,-2.72,2.72,2.87,2.62,8.38,8.38,8.38
26.96,5.65,-2.73,5.65,-2.73,2.73,2.86,2.68,8.39,8.38,8.38
27.23,5.65,-2.73,5.65,-2.74,2.74,2.85,2.73,8.39,8.38,8.38
27.50,5.64,-2.74,5.64,-2.74,2.74,2.83,2.79,8.39,8.39,8.38
27.77,5.63,-2.76,5.64,-2.75,2.75,2.82,2.84,8.38,8.39,8.39
28.05,5.63,-2.75,5.64,-2.75,2.75,2.80,2.88,8.38,8.39,8.38
28.33,5.63,-2.76,5.65,-2.74,2.74,2.79,2.93,8.38,8.39,8.39
28.62,5.63,-2.76,5.65,-2.74,2.74,2.77,2.97,8.37,8.39,8.39
28.90,5.65,-2.75,5.67,-2.72,2.72,2.75,3.01,8.38,8.39,8.40
29.19,5.66,-2.74,5.68,-2.71,2.71,2.73,3.04,8.37,8.39,8.40
29.48,5.69,-2.70,5.70,-2.69,2.69,2.71,3.08,8.38,8.39,8.39
29.78,5.71,-2.68,5.72,-2.66,2.66,2.70,3.10,8.38,8.39,8.39
30.08,5.74,-2.65,5.75,-2.64,2.64,2.68,3.12,8.38,8.38,8.39
30.38,5.77,-2.60,5.78,-2.60,2.60,2.66,3.14,8.38,8.38,8.37
30.68,5.80,-2.57,5.80,-2.57,2.57,2.63,3.15,8.38,8.38,8.37
30.99,5.83,-2.54,5.84,-2.54,2.54,2.61,3.16,8.37,8.37,8.37
31.30,5.86,-2.51,5.86,-2.50,2.50,2.59,3.16,8.37,8.37,8.37
31.61,5.89,-2.47,5.89,-2.47,2.47,2.57,3.16,8.36,8.36,8.36
31.93,5.92,-2.42,5.92,-2.43,2.43,2.54,3.15,8.36,8.35,8.34
32.24,5.95,-2.41,5.94,-2.41,2.41,2.52,3.13,8.35,8.34,8.35
32.57,5.97,-2.36,5.95,-2.38,2.38,2.50,3.12,8.36,8.34,8.33
32.89,5.98,-2.35,5.97,-2.36,2.36,2.47,3.09,8.35,8.33,8.33
33.22,5.99,-2.33,5.98,-2.35,2.35,2.45,3.06,8.34,8.32,8.32
33.55,6.00,-2.32,5.99,-2.33,2.33,2.42,3.03,8.34,8.32,8.32
33.89,5.99,-2.32,5.99,-2.32,2.32,2.40,2.99,8.31,8.31,8.31
34.23,5.99,-2.30,5.99,-2.31,2.31,2.37,2.95,8.30,8.30,8.29
34.57,5.98,-2.31,5.99,-2.30,2.30,2.34,2.91,8.28,8.29,8.29
34.92,5.97,-2.30,5.99,-2.29,2.29,2.32,2.86,8.27,8.28,8.27
35.27,5.97,-2.32,5.99,-2.28,2.28,2.29,2.81,8.26,8.27,8.29
35.62,5.97,-2.29,5.98,-2.28,2.28,2.26,2.76,8.25,8.26,8.26
35.97,5.97,-2.29,5.98,-2.27,2.27,2.23,2.71,8.24,8.25,8.26
36.33,5.97,-2.27,5.98,-2.26,2.26,2.20,2.65,8.23,8.23,8.24
36.70,5.97,-2.25,5.98,-2.24,2.24,2.17,2.60,8.22,8.22,8.22
37.06,5.97,-2.23,5.97,-2.23,2.23,2.14,2.54,8.20,8.20,8.20
37.43,5.97,-2.21,5.97,-2.21,2.21,2.12,2.48,8.19,8.18,8.18
37.81,5.97,-2.20,5.97,-2.19,2.19,2.09,2.42,8.17,8.16,8.17
38.19,5.97,-2.17,5.97,-2.17,2.17,2.06,2.36,8.15,8.14,8.14
38.57,5.97,-2.15,5.97,-2.15,2.15,2.02,2.30,8.12,8.12,8.12
38.95,5.97,-2.14,5.97,-2.13,2.13,1.99,2.24,8.10,8.10,8.11
39.34,5.97,-2.11,5.97,-2.10,2.10,1.96,2.18,8.08,8.08,8.08
39.74,5.97,-2.08,5.97,-2.08,2.08,1.93,2.12,8.06,8.06,8.05
40.14,5.97,-2.06,5.97,-2.06,2.06,1.90,2.06,8.04,8.04,8.03
40.54,5.97,-2.04,5.97,-2.04,2.04,1.87,2.00,8.01,8.01,8.01
40.94,5.97,-2.01,5.97,-2.02,2.02,1.84,1.95,7.99,7.99,7.98
41.35,5.97,-2.00,5.97,-1.99,1.99,1.80,1.89,7.97,7.97,7.97
41.76,5.97,-1.97,5.97,-1.97,1.97,1.77,1.83,7.95,7.95,7.94
42.18,5.97,-1.96,5.97,-1.95,1.95,1.74,1.78,7.92,7.92,7.93
42.60,5.97,-1.93,5.97,-1.92,1.92,1.71,1.73,7.90,7.90,7.90
43.03,5.97,-1.91,5.97,-1.90,1.90,1.67,1.67,7.87,7.87,7.88
43.46,5.97,-1.87,5.97,-1.87,1.87,1.64,1.62,7.85,7.85,7.84
43.90,5.97,-1.85,5.97,-1.85,1.85,1.61,1.57,7.82,7.82,7.82
44.33,5.97,-1.82,5.97,-1.82,1.82,1.58,1.53,7.80,7.80,7.79
44.78,5.97,-1.80,5.97,-1.79,1.79,1.54,1.48,7.77,7.77,7.77
45.23,5.97,-1.78,5.97,-1.76,1.76,1.51,1.43,7.73,7.73,7.75
45.68,5.97,-1.73,5.97,-1.73,1.73,1.47,1.39,7.70,7.70,7.70
46.13,5.97,-1.70,5.97,-1.69,1.69,1.44,1.34,7.67,7.67,7.67
46.60,5.97,-1.66,5.97,-1.66,1.66,1.41,1.30,7.63,7.63,7.63
47.06,5.97,-1.63,5.97,-1.62,1.62,1.37,1.26,7.59,7.59,7.60
47.53,5.97,-1.59,5.97,-1.58,1.58,1.34,1.22,7.55,7.55,7.56
48.01,5.97,-1.54,5.97,-1.54,1.54,1.30,1.18,7.51,7.51,7.51
48.49,5.97,-1.50,5.97,-1.50,1.50,1.27,1.14,7.47,7.47,7.47
48.97,5.97,-1.45,5.97,-1.46,1.46,1.24,1.11,7.43,7.43,7.42
49.46,5.97,-1.42,5.97,-1.41,1.41,1.20,1.07,7.39,7.39,7.39
49.96,5.97,-1.36,5.97,-1.37,1.37,1.17,1.04,7.35,7.35,7.33
50.46,5.97,-1.33,5.97,-1.33,1.33,1.13,1.00,7.30,7.30,7.30
50.96,5.97,-1.29,5.97,-1.29,1.29,1.10,0.97,7.26,7.26,7.26
51.47,5.97,-1.25,5.97,-1.24,1.24,1.06,0.94,7.22,7.22,7.22
51.99,5.97,-1.20,5.97,-1.20,1.20,1.03,0.90,7.18,7.18,7.17
52.51,5.97,-1.17,5.97,-1.16,1.16,0.99,0.87,7.14,7.14,7.14
53.03,5.97,-1.14,5.97,-1.12,1.12,0.96,0.84,7.09,7.09,7.11
53.56,5.97,-1.09,5.97,-1.08,1.08,0.92,0.81,7.05,7.05,7.06
54.10,5.97,-1.04,5.97,-1.04,1.04,0.89,0.78,7.01,7.01,7.01
54.64,5.97,-1.00,5.97,-1.00,1.00,0.85,0.75,6.98,6.98,6.97
55.18,5.97,-0.96,5.97,-0.96,0.96,0.82,0.72,6.94,6.94,6.93
55.74,5.97,-0.91,5.97,-0.93,0.93,0.78,0.69,6.90,6.90,6.88
56.29,5.97,-0.89,5.97,-0.89,0.89,0.74,0.66,6.86,6.86,6.86
56.86,5.97,-0.85,5.97,-0.85,0.85,0.71,0.63,6.82,6.82,6.82
57.42,5.97,-0.80,5.97,-0.80,0.80,0.67,0.61,6.78,6.78,6.77
58.00,5.97,-0.76,5.97,-0.76,0.76,0.64,0.58,6.74,6.74,6.73
58.58,5.97,-0.73,5.97,-0.72,0.72,0.60,0.55,6.69,6.69,6.70
59.16,5.97,-0.70,5.97,-0.67,0.67,0.56,0.52,6.65,6.65,6.67
59.76,5.97,-0.65,5.97,-0.63,0.63,0.53,0.49,6.60,6.60,6.62
60.35,5.97,-0.60,5.97,-0.58,0.58,0.49,0.46,6.55,6.55,6.57
60.96,5.97,-0.54,5.97,-0.53,0.53,0.46,0.43,6.50,6.50,6.51
61.57,5.97,-0.48,5.97,-0.48,0.48,0.42,0.40,6.45,6.45,6.45
62.18,5.97,-0.42,5.97,-0.42,0.42,0.38,0.37,6.40,6.40,6.39
62.80,5.97,-0.36,5.97,-0.37,0.37,0.35,0.33,6.35,6.35,6.33
63.43,5.97,-0.31,5.97,-0.32,0.32,0.31,0.30,6.29,6.29,6.28
64.07,5.97,-0.26,5.97,-0.26,0.26,0.27,0.27,6.24,6.24,6.23
64.71,5.97,-0.21,5.97,-0.21,0.21,0.24,0.23,6.18,6.18,6.18
65.35,5.97,-0.15,5.97,-0.15,0.15,0.20,0.20,6.13,6.13,6.12
66.01,5.97,-0.10,5.97,-0.10,0.10,0.16,0.17,6.07,6.07,6.07
66.67,5.97,-0.06,5.97,-0.04,0.04,0.13,0.13,6.02,6.02,6.03
67.33,5.97,0.01,5.97,0.01,-0.01,0.09,0.09,5.96,5.96,5.96
68.01,5.97,0.06,5.98,0.07,-0.07,0.05,0.06,5.91,5.91,5.91
68.69,5.97,0.11,5.98,0.13,-0.13,0.01,0.02,5.85,5.85,5.86
69.37,5.97,0.16,5.98,0.19,-0.19,-0.03,-0.02,5.79,5.80,5.81
70.07,5.97,0.22,5.99,0.25,-0.25,-0.06,-0.05,5.73,5.74,5.75
70.77,5.97,0.29,5.99,0.31,-0.31,-0.10,-0.09,5.67,5.68,5.68
71.48,5.98,0.35,5.99,0.37,-0.37,-0.14,-0.13,5.62,5.63,5.63
72.19,5.98,0.41,5.99,0.42,-0.42,-0.18,-0.17,5.56,5.57,5.57
72.91,5.99,0.49,5.99,0.48,-0.48,-0.22,-0.21,5.52,5.51,5.50
73.64,6.00,0.55,5.99,0.53,-0.53,-0.25,-0.26,5.47,5.46,5.45
74.38,5.99,0.60,5.98,0.58,-0.58,-0.29,-0.30,5.41,5.40,5.39
75.12,5.99,0.65,5.97,0.63,-0.63,-0.33,-0.34,5.37,5.35,5.34
75.87,5.97,0.68,5.96,0.67,-0.67,-0.37,-0.38,5.31,5.29,5.29
76.63,5.95,0.72,5.94,0.70,-0.70,-0.41,-0.43,5.25,5.24,5.23
77.40,5.93,0.74,5.92,0.74,-0.74,-0.45,-0.47,5.20,5.19,5.19
78.17,5.90,0.77,5.90,0.76,-0.76,-0.49,-0.52,5.14,5.14,5.13
78.95,5.87,0.78,5.87,0.79,-0.79,-0.53,-0.57,5.09,5.09,5.09
79.74,5.84,0.80,5.85,0.81,-0.81,-0.57,-0.61,5.04,5.04,5.04
80.54,5.81,0.82,5.81,0.83,-0.83,-0.61,-0.66,4.99,4.99,4.99
81.35,5.78,0.85,5.78,0.85,-0.85,-0.65,-0.71,4.94,4.94,4.93
82.16,5.75,0.85,5.76,0.87,-0.87,-0.69,-0.76,4.89,4.89,4.90
82.98,5.72,0.88,5.73,0.89,-0.89,-0.73,-0.81,4.83,4.84,4.84
83.81,5.69,0.90,5.71,0.92,-0.92,-0.78,-0.86,4.77,4.78,4.79
84.65,5.67,0.94,5.69,0.96,-0.96,-0.82,-0.91,4.72,4.73,4.73
85.50,5.65,0.98,5.67,0.99,-0.99,-0.86,-0.96,4.66,4.68,4.67
86.35,5.64,1.02,5.66,1.04,-1.04,-0.90,-1.01,4.61,4.62,4.62
87.22,5.63,1.06,5.65,1.09,-1.09,-0.94,-1.07,4.55,4.57,4.57
88.09,5.62,1.11,5.65,1.14,-1.14,-0.99,-1.12,4.49,4.51,4.51
88.97,5.63,1.18,5.65,1.19,-1.19,-1.03,-1.18,4.44,4.46,4.45
89.86,5.64,1.24,5.65,1.25,-1.25,-1.07,-1.23,4.39,4.40,4.40
90.76,5.65,1.31,5.65,1.31,-1.31,-1.12,-1.29,4.34,4.34,4.34
91.66,5.66,1.39,5.66,1.38,-1.38,-1.16,-1.35,4.29,4.28,4.27
92.58,5.67,1.45,5.66,1.44,-1.44,-1.20,-1.41,4.24,4.22,4.22
93.51,5.67,1.50,5.66,1.50,-1.50,-1.25,-1.47,4.18,4.16,4.17
94.44,5.67,1.56,5.65,1.55,-1.55,-1.29,-1.53,4.12,4.10,4.11
95.39,5.66,1.62,5.64,1.61,-1.61,-1.34,-1.59,4.06,4.03,4.04
96.34,5.64,1.67,5.63,1.66,-1.66,-1.38,-1.65,3.99,3.97,3.97
97.30,5.62,1.71,5.61,1.70,-1.70,-1.43,-1.72,3.92,3.91,3.91
98.28,5.60,1.76,5.59,1.74,-1.74,-1.47,-1.78,3.86,3.85,3.84
99.26,5.57,1.79,5.57,1.78,-1.78,-1.52,-1.84,3.79,3.79,3.78
100.25,5.54,1.82,5.55,1.82,-1.82,-1.56,-1.91,3.73,3.73,3.72
101.25,5.51,1.84,5.52,1.85,-1.85,-1.61,-1.97,3.67,3.67,3.67
102.27,5.48,1.87,5.49,1.88,-1.88,-1.66,-2.04,3.61,3.61,3.61
103.29,5.45,1.90,5.47,1.91,-1.91,-1.70,-2.10,3.54,3.56,3.55
104.32,5.42,1.92,5.44,1.94,-1.94,-1.75,-2.17,3.48,3.50,3.50
105.37,5.39,1.95,5.42,1.98,-1.98,-1.80,-2.23,3.42,3.44,3.44
106.42,5.38,1.99,5.40,2.01,-2.01,-1.85,-2.30,3.38,3.39,3.39
107.48,5.36,2.03,5.38,2.05,-2.05,-1.90,-2.36,3.32,3.33,3.33
108.56,5.35,2.07,5.36,2.08,-2.08,-1.94,-2.42,3.27,3.27,3.28
109.64,5.33,2.11,5.34,2.12,-2.12,-1.99,-2.48,3.21,3.21,3.22
110.74,5.32,2.16,5.32,2.16,-2.16,-2.04,-2.54,3.16,3.16,3.16
111.85,5.30,2.20,5.30,2.20,-2.20,-2.09,-2.60,3.10,3.10,3.10
112.97,5.29,2.24,5.28,2.24,-2.24,-2.14,-2.66,3.05,3.04,3.05
114.10,5.27,2.28,5.26,2.28,-2.28,-2.19,-2.71,3.00,2.98,2.99
115.24,5.25,2.34,5.24,2.31,-2.31,-2.24,-2.76,2.94,2.92,2.91
116.39,5.22,2.37,5.21,2.35,-2.35,-2.29,-2.81,2.88,2.86,2.85
117.55,5.19,2.40,5.19,2.38,-2.38,-2.34,-2.86,2.82,2.81,2.79
118.73,5.16,2.43,5.16,2.41,-2.41,-2.39,-2.91,2.76,2.75,2.73
119.92,5.13,2.44,5.13,2.44,-2.44,-2.44,-2.95,2.70,2.69,2.69
121.12,5.10,2.46,5.11,2.47,-2.47,-2.49,-2.98,2.64,2.64,2.64
122.33,5.07,2.49,5.08,2.50,-2.50,-2.54,-3.02,2.57,2.58,2.58
123.55,5.04,2.51,5.06,2.54,-2.54,-2.59,-3.05,2.51,2.52,2.53
124.79,5.02,2.54,5.04,2.57,-2.57,-2.64,-3.08,2.45,2.47,2.48
126.03,5.00,2.58,5.02,2.61,-2.61,-2.69,-3.10,2.39,2.41,2.42
127.29,4.99,2.62,5.01,2.65,-2.65,-2.74,-3.12,2.34,2.36,2.37
128.57,4.98,2.68,5.00,2.69,-2.69,-2.79,-3.14,2.29,2.31,2.30
129.85,4.98,2.73,4.99,2.74,-2.74,-2.84,-3.16,2.24,2.25,2.25
131.15,4.98,2.79,4.99,2.79,-2.79,-2.89,-3.17,2.19,2.20,2.19
132.46,4.99,2.85,4.99,2.85,-2.85,-2.95,-3.18,2.15,2.14,2.14
133.79,5.00,2.92,4.99,2.90,-2.90,-3.00,-3.18,2.10,2.09,2.08
135.12,5.00,2.97,4.99,2.96,-2.96,-3.05,-3.18,2.04,2.03,2.03
136.48,5.00,3.02,4.99,3.01,-3.01,-3.10,-3.19,1.99,1.98,1.98
137.84,5.00,3.07,5.00,3.07,-3.07,-3.15,-3.19,1.94,1.93,1.93
139.22,5.00,3.13,5.00,3.12,-3.12,-3.20,-3.18,1.88,1.88,1.87
140.61,5.00,3.17,5.00,3.17,-3.17,-3.25,-3.18,1.83,1.83,1.83
142.02,5.00,3.23,5.00,3.22,-3.22,-3.29,-3.18,1.78,1.78,1.77
143.44,5.00,3.27,5.01,3.27,-3.27,-3.34,-3.17,1.73,1.73,1.73
144.87,5.00,3.31,5.01,3.32,-3.32,-3.39,-3.16,1.68,1.69,1.69
146.32,5.00,3.36,5.01,3.37,-3.37,-3.44,-3.16,1.64,1.64,1.64
147.78,5.00,3.40,5.02,3.42,-3.42,-3.49,-3.15,1.59,1.60,1.60
149.26,5.00,3.45,5.02,3.46,-3.46,-3.53,-3.15,1.54,1.56,1.55
150.75,5.00,3.49,5.02,3.51,-3.51,-3.58,-3.14,1.50,1.51,1.51
152.26,5.01,3.54,5.02,3.55,-3.55,-3.62,-3.14,1.46,1.47,1.47
153.78,5.02,3.59,5.02,3.59,-3.59,-3.67,-3.14,1.43,1.43,1.43
155.32,5.02,3.63,5.02,3.63,-3.63,-3.71,-3.13,1.39,1.38,1.39
156.88,5.02,3.68,5.01,3.67,-3.67,-3.76,-3.13,1.35,1.34,1.34
158.44,5.01,3.72,5.00,3.70,-3.70,-3.80,-3.14,1.31,1.29,1.29
160.03,5.00,3.75,4.99,3.74,-3.74,-3.84,-3.14,1.27,1.25,1.25
161.63,4.98,3.77,4.97,3.77,-3.77,-3.88,-3.14,1.22,1.20,1.21
163.24,4.96,3.80,4.95,3.79,-3.79,-3.92,-3.15,1.17,1.16,1.16
164.88,4.93,3.82,4.93,3.82,-3.82,-3.96,-3.16,1.12,1.11,1.11
166.53,4.90,3.84,4.90,3.84,-3.84,-3.99,-3.17,1.07,1.07,1.06
168.19,4.87,3.84,4.87,3.85,-3.85,-4.03,-3.19,1.02,1.02,1.03
169.87,4.84,3.87,4.84,3.87,-3.87,-4.06,-3.20,0.97,0.97,0.97
171.57,4.81,3.89,4.82,3.89,-3.89,-4.10,-3.22,0.92,0.92,0.92
173.29,4.78,3.90,4.79,3.91,-3.91,-4.13,-3.24,0.87,0.88,0.88
175.02,4.75,3.92,4.77,3.94,-3.94,-4.16,-3.27,0.82,0.83,0.83
176.77,4.72,3.94,4.75,3.96,-3.96,-4.19,-3.29,0.76,0.78,0.78
178.54,4.70,3.96,4.73,3.99,-3.99,-4.22,-3.32,0.71,0.74,0.74
180.32,4.68,4.00,4.71,4.02,-4.02,-4.24,-3.35,0.66,0.69,0.68
182.13,4.67,4.02,4.70,4.06,-4.06,-4.27,-3.39,0.62,0.65,0.65
183.95,4.67,4.07,4.69,4.09,-4.09,-4.29,-3.43,0.58,0.60,0.60
185.79,4.67,4.12,4.68,4.13,-4.13,-4.31,-3.47,0.55,0.55,0.55
187.65,4.68,4.17,4.67,4.16,-4.16,-4.33,-3.51,0.53,0.51,0.51
189.52,4.68,4.21,4.66,4.19,-4.19,-4.35,-3.55,0.49,0.47,0.47
191.42,4.67,4.24,4.65,4.22,-4.22,-4.36,-3.60,0.45,0.42,0.43
193.33,4.65,4.26,4.63,4.25,-4.25,-4.38,-3.65,0.40,0.38,0.39
195.27,4.63,4.29,4.62,4.28,-4.28,-4.39,-3.70,0.36,0.34,0.34
197.22,4.61,4.32,4.60,4.30,-4.30,-4.40,-3.75,0.32,0.30,0.29
199.19,4.58,4.32,4.58,4.32,-4.32,-4.41,-3.80,0.27,0.27,0.26
201.18,4.55,4.33,4.56,4.33,-4.33,-4.41,-3.86,0.22,0.23,0.22
203.19,4.52,4.33,4.54,4.34,-4.34,-4.42,-3.91,0.18,0.20,0.19
205.23,4.49,4.32,4.51,4.35,-4.35,-4.42,-3.97,0.15,0.16,0.17
207.28,4.47,4.33,4.48,4.35,-4.35,-4.42,-4.03,0.13,0.13,0.14
209.35,4.45,4.35,4.45,4.35,-4.35,-4.42,-4.09,0.11,0.10,0.10
211.44,4.42,4.35,4.42,4.35,-4.35,-4.42,-4.15,0.07,0.07,0.07
213.56,4.39,4.34,4.39,4.35,-4.35,-4.41,-4.21,0.04,0.04,0.05
215.69,4.36,4.34,4.37,4.35,-4.35,-4.41,-4.26,0.01,0.01,0.02
217.85,4.33,4.34,4.34,4.35,-4.35,-4.40,-4.32,-0.02,-0.01,-0.01
220.03,4.30,4.34,4.31,4.35,-4.35,-4.39,-4.37,-0.04,-0.03,-0.04
222.23,4.27,4.34,4.29,4.35,-4.35,-4.37,-4.43,-0.07,-0.06,-0.07
224.45,4.25,4.33,4.26,4.34,-4.34,-4.36,-4.48,-0.09,-0.08,-0.08
226.70,4.22,4.33,4.24,4.34,-4.34,-4.34,-4.52,-0.11,-0.10,-0.11
228.96,4.21,4.33,4.21,4.33,-4.33,-4.33,-4.57,-0.12,-0.12,-0.12
231.25,4.18,4.32,4.18,4.32,-4.32,-4.31,-4.60,-0.13,-0.14,-0.14
233.57,4.16,4.32,4.14,4.30,-4.30,-4.29,-4.64,-0.14,-0.16,-0.16
235.90,4.13,4.30,4.11,4.29,-4.29,-4.27,-4.67,-0.15,-0.17,-0.17
238.26,4.09,4.29,4.09,4.27,-4.27,-4.24,-4.69,-0.18,-0.19,-0.20
240.64,4.06,4.25,4.06,4.25,-4.25,-4.22,-4.71,-0.19,-0.20,-0.19
243.05,4.02,4.23,4.03,4.23,-4.23,-4.19,-4.73,-0.21,-0.21,-0.21
245.48,3.98,4.20,4.00,4.21,-4.21,-4.16,-4.73,-0.23,-0.21,-0.22
247.93,3.94,4.17,3.97,4.19,-4.19,-4.13,-4.73,-0.25,-0.22,-0.23
250.41,3.91,4.13,3.94,4.17,-4.17,-4.10,-4.73,-0.25,-0.23,-0.22
252.92,3.88,4.11,3.91,4.14,-4.14,-4.07,-4.72,-0.25,-0.23,-0.23
255.45,3.87,4.11,3.87,4.11,-4.11,-4.04,-4.70,-0.24,-0.24,-0.24
258.00,3.85,4.09,3.84,4.08,-4.08,-4.01,-4.67,-0.23,-0.24,-0.24
260.58,3.83,4.07,3.81,4.05,-4.05,-3.97,-4.64,-0.22,-0.24,-0.24
263.19,3.80,4.04,3.78,4.03,-4.03,-3.94,-4.61,-0.22,-0.25,-0.24
265.82,3.77,4.02,3.75,4.00,-4.00,-3.90,-4.57,-0.23,-0.25,-0.25
268.48,3.73,3.98,3.73,3.98,-3.98,-3.86,-4.52,-0.24,-0.25,-0.25
271.16,3.69,3.94,3.70,3.95,-3.95,-3.82,-4.47,-0.26,-0.25,-0.25
273.87,3.65,3.90,3.67,3.93,-3.93,-3.78,-4.41,-0.27,-0.26,-0.25
276.61,3.61,3.86,3.64,3.90,-3.90,-3.74,-4.35,-0.28,-0.26,-0.25
279.38,3.58,3.85,3.61,3.87,-3.87,-3.70,-4.29,-0.28,-0.26,-0.27
282.17,3.56,3.83,3.58,3.83,-3.83,-3.66,-4.22,-0.27,-0.26,-0.27
284.99,3.55,3.81,3.54,3.80,-3.80,-3.62,-4.15,-0.24,-0.26,-0.26
287.84,3.53,3.78,3.51,3.76,-3.76,-3.58,-4.08,-0.23,-0.25,-0.25
290.72,3.50,3.76,3.48,3.73,-3.73,-3.54,-4.01,-0.22,-0.25,-0.26
293.63,3.46,3.71,3.45,3.69,-3.69,-3.49,-3.93,-0.23,-0.25,-0.25
296.57,3.42,3.66,3.42,3.66,-3.66,-3.45,-3.85,-0.24,-0.24,-0.24
299.53,3.38,3.62,3.39,3.63,-3.63,-3.41,-3.78,-0.24,-0.24,-0.24
302.53,3.34,3.56,3.36,3.59,-3.59,-3.36,-3.70,-0.24,-0.23,-0.22
305.55,3.30,3.53,3.33,3.55,-3.55,-3.32,-3.63,-0.25,-0.23,-0.23
308.61,3.26,3.48,3.29,3.51,-3.51,-3.28,-3.55,-0.25,-0.22,-0.22
311.69,3.24,3.45,3.26,3.47,-3.47,-3.23,-3.47,-0.23,-0.21,-0.21
314.81,3.22,3.43,3.22,3.43,-3.43,-3.19,-3.40,-0.20,-0.20,-0.21
317.96,3.20,3.40,3.19,3.39,-3.39,-3.14,-3.33,-0.18,-0.20,-0.20
321.14,3.18,3.37,3.15,3.35,-3.35,-3.10,-3.26,-0.16,-0.19,-0.19
324.35,3.14,3.33,3.12,3.31,-3.31,-3.05,-3.18,-0.16,-0.18,-0.19
327.59,3.10,3.26,3.09,3.27,-3.27,-3.01,-3.12,-0.16,-0.17,-0.16
330.87,3.06,3.23,3.06,3.23,-3.23,-2.96,-3.05,-0.17,-0.17,-0.17
334.18,3.02,3.18,3.03,3.19,-3.19,-2.92,-2.98,-0.17,-0.16,-0.16
337.52,2.98,3.14,3.00,3.16,-3.16,-2.87,-2.92,-0.17,-0.15,-0.16
340.90,2.94,3.08,2.97,3.12,-3.12,-2.83,-2.86,-0.17,-0.14,-0.14
344.30,2.91,3.04,2.94,3.08,-3.08,-2.79,-2.80,-0.16,-0.14,-0.13
347.75,2.89,3.02,2.90,3.03,-3.03,-2.74,-2.74,-0.14,-0.13,-0.13
351.23,2.88,3.01,2.87,2.99,-2.99,-2.70,-2.68,-0.10,-0.12,-0.13
354.74,2.86,2.96,2.83,2.95,-2.95,-2.66,-2.63,-0.08,-0.11,-0.10
358.28,2.82,2.93,2.80,2.90,-2.90,-2.61,-2.58,-0.08,-0.10,-0.11
361.87,2.78,2.88,2.77,2.87,-2.87,-2.57,-2.53,-0.08,-0.10,-0.10
365.49,2.74,2.83,2.74,2.83,-2.83,-2.53,-2.48,-0.08,-0.09,-0.09
369.14,2.70,2.77,2.71,2.79,-2.79,-2.48,-2.44,-0.08,-0.08,-0.07
372.83,2.66,2.73,2.68,2.75,-2.75,-2.44,-2.39,-0.09,-0.07,-0.07
376.56,2.62,2.69,2.65,2.71,-2.71,-2.40,-2.35,-0.09,-0.06,-0.07
380.33,2.59,2.65,2.62,2.67,-2.67,-2.36,-2.31,-0.08,-0.05,-0.06
384.13,2.56,2.60,2.59,2.63,-2.63,-2.32,-2.28,-0.07,-0.05,-0.04
387.97,2.55,2.59,2.55,2.59,-2.59,-2.27,-2.24,-0.03,-0.04,-0.04
391.85,2.53,2.56,2.52,2.55,-2.55,-2.23,-2.21,-0.01,-0.03,-0.03
395.77,2.51,2.53,2.49,2.51,-2.51,-2.19,-2.17,0.01,-0.02,-0.02
399.73,2.48,2.49,2.46,2.47,-2.47,-2.15,-2.14,0.02,-0.00,-0.01
403.72,2.44,2.42,2.44,2.43,-2.43,-2.11,-2.11,0.01,0.00,0.02
407.76,2.41,2.40,2.41,2.40,-2.40,-2.07,-2.08,0.02,0.01,0.01
411.84,2.37,2.35,2.39,2.36,-2.36,-2.04,-2.06,0.01,0.02,0.02
415.96,2.34,2.30,2.36,2.33,-2.33,-2.00,-2.03,0.02,0.03,0.04
420.12,2.31,2.27,2.34,2.29,-2.29,-1.96,-2.01,0.02,0.04,0.04
424.32,2.28,2.23,2.31,2.25,-2.25,-1.92,-1.98,0.03,0.05,0.05
428.56,2.27,2.20,2.28,2.21,-2.21,-1.88,-1.96,0.06,0.06,0.07
432.85,2.25,2.17,2.24,2.17,-2.17,-1.85,-1.94,0.08,0.07,0.08
437.18,2.23,2.16,2.21,2.13,-2.13,-1.81,-1.91,0.10,0.08,0.07
441.55,2.20,2.12,2.18,2.09,-2.09,-1.77,-1.89,0.12,0.09,0.08
445.96,2.16,2.07,2.14,2.05,-2.05,-1.74,-1.87,0.12,0.10,0.09
450.42,2.12,2.02,2.11,2.01,-2.01,-1.70,-1.85,0.11,0.10,0.10
454.93,2.08,1.97,2.08,1.97,-1.97,-1.66,-1.83,0.11,0.11,0.11
459.48,2.04,1.92,2.05,1.93,-1.93,-1.63,-1.81,0.11,0.12,0.12
464.07,1.99,1.85,2.02,1.89,-1.89,-1.59,-1.79,0.10,0.13,0.14
468.71,1.96,1.81,1.99,1.85,-1.85,-1.56,-1.76,0.11,0.14,0.15
473.40,1.93,1.78,1.96,1.81,-1.81,-1.53,-1.74,0.13,0.15,0.15
478.13,1.91,1.75,1.92,1.76,-1.76,-1.49,-1.72,0.15,0.16,0.16
482.91,1.89,1.72,1.89,1.72,-1.72,-1.46,-1.69,0.17,0.17,0.17
487.74,1.88,1.70,1.86,1.68,-1.68,-1.42,-1.67,0.21,0.18,0.18
492.62,1.85,1.66,1.83,1.64,-1.64,-1.39,-1.64,0.22,0.20,0.19
497.55,1.82,1.62,1.81,1.60,-1.60,-1.36,-1.62,0.23,0.21,0.20
502.52,1.78,1.57,1.78,1.56,-1.56,-1.33,-1.59,0.22,0.22,0.21
507.55,1.75,1.52,1.76,1.53,-1.53,-1.29,-1.56,0.23,0.23,0.23
512.62,1.71,1.47,1.73,1.49,-1.49,-1.26,-1.53,0.23,0.24,0.24
517.75,1.68,1.42,1.71,1.45,-1.45,-1.23,-1.50,0.23,0.25,0.26
522.93,1.65,1.38,1.68,1.41,-1.41,-1.20,-1.47,0.24,0.27,0.27
528.16,1.63,1.35,1.65,1.37,-1.37,-1.17,-1.44,0.27,0.28,0.28
533.44,1.61,1.32,1.62,1.33,-1.33,-1.14,-1.40,0.29,0.29,0.29
538.77,1.60,1.30,1.58,1.28,-1.28,-1.10,-1.37,0.32,0.30,0.30
544.16,1.57,1.26,1.55,1.24,-1.24,-1.07,-1.34,0.34,0.31,0.31
