frequency,raw,error,smoothed,error_smoothed,equalization,parametric_eq,fixed_band_eq,equalized_raw,equalized_smoothed,target
20.00,3.66,-4.58,3.66,-4.58,4.58,3.75,1.17,8.24,8.25,8.25
20.20,3.72,-4.51,3.72,-4.52,4.52,3.72,1.20,8.24,8.24,8.24
20.40,3.77,-4.45,3.78,-4.45,4.45,3.70,1.24,8.22,8.23,8.23
20.61,3.83,-4.39,3.83,-4.38,4.38,3.67,1.28,8.22,8.22,8.22
20.81,3.88,-4.31,3.88,-4.31,4.32,3.64,1.32,8.20,8.20,8.20
21.02,3.94,-4.24,3.94,-4.25,4.25,3.61,1.36,8.20,8.20,8.19
21.23,3.99,-4.18,4.00,-4.19,4.19,3.58,1.40,8.18,8.18,8.18
21.44,4.05,-4.13,4.05,-4.13,4.12,3.55,1.44,8.18,8.18,8.19
21.66,4.10,-4.07,4.11,-4.07,4.06,3.52,1.49,8.16,8.16,8.17
21.87,4.16,-4.00,4.16,-4.00,3.99,3.49,1.53,8.16,8.16,8.17
22.09,4.21,-3.93,4.22,-3.93,3.93,3.46,1.58,8.14,8.15,8.15
22.31,4.27,-3.86,4.27,-3.87,3.87,3.42,1.63,8.14,8.14,8.14
22.54,4.33,-3.80,4.33,-3.80,3.80,3.39,1.68,8.14,8.13,8.13
22.76,4.38,-3.74,4.39,-3.74,3.74,3.36,1.73,8.13,8.13,8.13
22.99,4.44,-3.67,4.44,-3.68,3.68,3.33,1.78,8.12,8.12,8.12
23.22,4.49,-3.61,4.49,-3.62,3.62,3.30,1.83,8.12,8.12,8.11
23.45,4.54,-3.57,4.54,-3.57,3.57,3.26,1.89,8.11,8.11,8.12
23.69,4.59,-3.52,4.59,-3.51,3.51,3.23,1.94,8.10,8.10,8.11
23.92,4.64,-3.45,4.65,-3.46,3.46,3.20,2.00,8.10,8.10,8.10
24.16,4.70,-3.40,4.70,-3.40,3.40,3.17,2.06,8.10,8.10,8.11
24.40,4.75,-3.35,4.75,-3.35,3.35,3.13,2.12,8.10,8.10,8.11
24.65,4.80,-3.29,4.81,-3.29,3.29,3.10,2.17,8.09,8.10,8.10
24.89,4.86,-3.23,4.86,-3.23,3.24,3.07,2.23,8.10,8.10,8.10
25.14,4.91,-3.17,4.91,-3.18,3.19,3.03,2.29,8.10,8.10,8.09
25.39,4.96,-3.12,4.96,-3.13,3.13,3.00,2.35,8.10,8.09,8.09
25.65,5.00,-3.08,5.01,-3.08,3.08,2.96,2.41,8.08,8.09,8.09
25.91,5.05,-3.04,5.05,-3.04,3.03,2.93,2.47,8.08,8.08,8.09
26.16,5.10,-2.99,5.10,-2.99,2.98,2.89,2.53,8.09,8.08,8.10
26.43,5.15,-2.94,5.15,-2.94,2.93,2.86,2.59,8.09,8.09,8.09
26.69,5.20,-2.88,5.20,-2.89,2.89,2.82,2.65,8.09,8.09,8.09
26.96,5.25,-2.83,5.25,-2.83,2.84,2.79,2.70,8.09,8.09,8.09
27.23,5.30,-2.78,5.30,-2.79,2.79,2.75,2.75,8.10,8.09,8.09
27.50,5.34,-2.74,5.34,-2.75,2.75,2.72,2.81,8.09,8.09,8.09
27.77,5.38,-2.71,5.39,-2.70,2.70,2.68,2.86,8.09,8.09,8.10
28.05,5.43,-2.65,5.43,-2.66,2.66,2.64,2.90,8.09,8.09,8.09
28.33,5.47,-2.62,5.48,-2.62,2.62,2.61,2.94,8.09,8.09,8.10
28.62,5.52,-2.58,5.52,-2.58,2.58,2.57,2.99,8.10,8.10,8.10
28.90,5.56,-2.54,5.57,-2.54,2.53,2.53,3.02,8.10,8.10,8.11
29.19,5.61,-2.49,5.61,-2.50,2.49,2.50,3.05,8.11,8.10,8.11
29.48,5.64,-2.45,5.65,-2.46,2.45,2.46,3.08,8.10,8.10,8.10
29.78,5.68,-2.41,5.69,-2.41,2.42,2.42,3.10,8.10,8.10,8.10
30.08,5.72,-2.37,5.72,-2.37,2.38,2.38,3.12,8.10,8.10,8.10
30.38,5.74,-2.33,5.74,-2.34,2.35,2.35,3.13,8.09,8.09,8.08
30.68,5.76,-2.31,5.77,-2.31,2.31,2.31,3.14,8.08,8.08,8.08
30.99,5.79,-2.28,5.79,-2.29,2.28,2.27,3.14,8.08,8.07,8.08
31.30,5.81,-2.26,5.81,-2.26,2.25,2.23,3.13,8.06,8.07,8.08
31.61,5.84,-2.22,5.84,-2.23,2.22,2.19,3.12,8.06,8.06,8.07
31.93,5.86,-2.18,5.87,-2.19,2.19,2.16,3.10,8.05,8.05,8.05
32.24,5.89,-2.16,5.89,-2.15,2.16,2.12,3.08,8.05,8.05,8.06
32.57,5.92,-2.11,5.92,-2.12,2.12,2.08,3.05,8.04,8.04,8.04
32.89,5.95,-2.08,5.95,-2.08,2.09,2.04,3.02,8.04,8.04,8.04
33.22,5.98,-2.04,5.98,-2.05,2.05,2.00,2.98,8.03,8.03,8.03
33.55,6.00,-2.02,6.01,-2.02,2.01,1.96,2.94,8.02,8.02,8.03
33.89,6.03,-1.98,6.03,-1.98,1.98,1.92,2.89,8.01,8.02,8.02
34.23,6.06,-1.93,6.06,-1.94,1.95,1.88,2.84,8.01,8.01,8.00
34.57,6.08,-1.91,6.08,-1.91,1.92,1.84,2.78,8.00,8.00,8.00
34.92,6.10,-1.87,6.11,-1.88,1.88,1.80,2.72,7.99,7.99,7.98
35.27,6.13,-1.86,6.13,-1.85,1.85,1.76,2.66,7.98,7.98,8.00
35.62,6.15,-1.81,6.16,-1.82,1.81,1.72,2.59,7.97,7.97,7.97
35.97,6.18,-1.78,6.18,-1.78,1.78,1.68,2.52,7.96,7.96,7.97
36.33,6.20,-1.74,6.20,-1.74,1.74,1.64,2.45,7.95,7.95,7.95
36.70,6.22,-1.70,6.22,-1.70,1.71,1.60,2.38,7.93,7.93,7.93
37.06,6.24,-1.66,6.24,-1.67,1.67,1.56,2.31,7.91,7.91,7.91
37.43,6.26,-1.62,6.26,-1.63,1.63,1.52,2.23,7.89,7.89,7.89
37.81,6.28,-1.59,6.28,-1.59,1.59,1.48,2.15,7.87,7.87,7.88
38.19,6.30,-1.54,6.30,-1.55,1.55,1.44,2.08,7.85,7.85,7.85
38.57,6.31,-1.51,6.32,-1.52,1.51,1.40,2.00,7.82,7.83,7.83
38.95,6.33,-1.48,6.33,-1.48,1.47,1.35,1.92,7.80,7.80,7.82
39.34,6.35,-1.43,6.35,-1.43,1.43,1.31,1.84,7.78,7.78,7.79
39.74,6.37,-1.38,6.38,-1.39,1.39,1.27,1.77,7.76,7.76,7.76
40.14,6.40,-1.33,6.40,-1.34,1.35,1.23,1.69,7.75,7.74,7.74
40.54,6.41,-1.30,6.41,-1.30,1.30,1.19,1.61,7.72,7.72,7.72
40.94,6.43,-1.25,6.44,-1.26,1.26,1.15,1.54,7.69,7.69,7.69
41.35,6.45,-1.22,6.45,-1.22,1.21,1.10,1.46,7.67,7.67,7.68
41.76,6.48,-1.16,6.48,-1.17,1.17,1.06,1.39,7.65,7.65,7.65
42.18,6.50,-1.13,6.51,-1.13,1.12,1.02,1.31,7.62,7.63,7.64
42.60,6.53,-1.07,6.53,-1.08,1.08,0.98,1.24,7.61,7.61,7.61
43.03,6.55,-1.03,6.56,-1.03,1.03,0.93,1.16,7.58,7.58,7.59
43.46,6.58,-0.96,6.58,-0.97,0.98,0.89,1.09,7.56,7.56,7.55
43.90,6.60,-0.92,6.60,-0.92,0.93,0.85,1.02,7.53,7.53,7.53
44.33,6.62,-0.87,6.62,-0.88,0.88,0.80,0.95,7.50,7.50,7.50
44.78,6.64,-0.83,6.64,-0.84,0.83,0.76,0.88,7.47,7.47,7.48
45.23,6.66,-0.79,6.66,-0.78,0.78,0.71,0.81,7.44,7.44,7.46
45.68,6.68,-0.72,6.69,-0.73,0.72,0.67,0.74,7.40,7.41,7.41
46.13,6.71,-0.66,6.71,-0.67,0.67,0.63,0.68,7.38,7.38,7.38
46.60,6.73,-0.60,6.73,-0.61,0.61,0.58,0.61,7.34,7.34,7.34
47.06,6.75,-0.55,6.76,-0.55,0.55,0.54,0.54,7.30,7.31,7.31
47.53,6.77,-0.49,6.77,-0.49,0.49,0.49,0.48,7.27,7.27,7.27
48.01,6.79,-0.42,6.79,-0.43,0.43,0.45,0.41,7.23,7.22,7.22
48.49,6.80,-0.37,6.80,-0.37,0.38,0.40,0.35,7.18,7.18,7.18
48.97,6.81,-0.31,6.81,-0.32,0.32,0.35,0.29,7.13,7.13,7.13
49.46,6.82,-0.27,6.82,-0.27,0.26,0.31,0.23,7.09,7.09,7.10
49.96,6.83,-0.20,6.84,-0.21,0.21,0.26,0.17,7.04,7.04,7.04
50.46,6.85,-0.15,6.85,-0.15,0.15,0.22,0.10,7.00,7.00,7.01
50.96,6.87,-0.09,6.87,-0.09,0.09,0.17,0.05,6.97,6.96,6.97
51.47,6.89,-0.03,6.89,-0.03,0.03,0.12,-0.01,6.93,6.93,6.93
51.99,6.91,0.04,6.91,0.03,-0.03,0.07,-0.07,6.89,6.89,6.88
52.51,6.93,0.09,6.93,0.08,-0.09,0.03,-0.13,6.84,6.84,6.85
53.03,6.95,0.14,6.95,0.15,-0.15,-0.02,-0.19,6.80,6.80,6.82
53.56,6.97,0.21,6.97,0.21,-0.21,-0.07,-0.24,6.76,6.76,6.77
54.10,6.99,0.28,6.99,0.27,-0.27,-0.12,-0.30,6.73,6.72,6.72
54.64,7.00,0.33,7.00,0.33,-0.32,-0.17,-0.35,6.68,6.68,6.68
55.18,7.01,0.38,7.01,0.38,-0.37,-0.22,-0.41,6.64,6.64,6.64
55.74,7.02,0.44,7.02,0.42,-0.42,-0.27,-0.46,6.60,6.60,6.59
56.29,7.02,0.46,7.02,0.46,-0.46,-0.32,-0.51,6.56,6.56,6.57
56.86,7.02,0.50,7.02,0.50,-0.50,-0.37,-0.56,6.52,6.52,6.53
57.42,7.02,0.55,7.02,0.54,-0.54,-0.42,-0.61,6.49,6.48,6.48
58.00,7.01,0.58,7.02,0.57,-0.57,-0.47,-0.66,6.44,6.44,6.44
58.58,7.01,0.61,7.01,0.61,-0.61,-0.52,-0.71,6.40,6.40,6.41
59.16,7.01,0.64,7.01,0.64,-0.65,-0.57,-0.76,6.36,6.36,6.38
59.76,7.01,0.69,7.01,0.69,-0.70,-0.62,-0.80,6.32,6.32,6.33
60.35,7.01,0.74,7.01,0.74,-0.74,-0.67,-0.85,6.27,6.27,6.28
60.96,7.01,0.80,7.01,0.79,-0.79,-0.73,-0.89,6.22,6.22,6.22
61.57,7.00,0.85,7.01,0.85,-0.85,-0.78,-0.93,6.16,6.16,6.16
62.18,7.00,0.91,7.00,0.90,-0.90,-0.83,-0.98,6.11,6.10,6.10
62.80,6.99,0.96,7.00,0.96,-0.95,-0.88,-1.02,6.04,6.05,6.04
63.43,6.99,1.01,6.99,1.00,-1.00,-0.94,-1.06,6.00,5.99,5.99
64.07,6.98,1.05,6.98,1.05,-1.04,-0.99,-1.10,5.94,5.94,5.94
64.71,6.97,1.09,6.97,1.09,-1.08,-1.05,-1.13,5.89,5.89,5.89
65.35,6.95,1.13,6.96,1.12,-1.12,-1.10,-1.17,5.83,5.83,5.83
66.01,6.94,1.17,6.94,1.16,-1.16,-1.15,-1.21,5.78,5.78,5.78
66.67,6.93,1.20,6.93,1.20,-1.20,-1.21,-1.25,5.73,5.73,5.74
67.33,6.91,1.25,6.92,1.24,-1.24,-1.26,-1.28,5.67,5.67,5.67
68.01,6.90,1.29,6.90,1.28,-1.29,-1.32,-1.32,5.61,5.61,5.62
68.69,6.89,1.33,6.89,1.33,-1.34,-1.37,-1.35,5.56,5.56,5.57
69.37,6.89,1.38,6.89,1.38,-1.39,-1.42,-1.39,5.50,5.50,5.52
70.07,6.89,1.44,6.90,1.44,-1.45,-1.48,-1.43,5.44,5.45,5.46
70.77,6.91,1.53,6.91,1.51,-1.51,-1.53,-1.46,5.40,5.40,5.39
71.48,6.91,1.58,6.91,1.58,-1.57,-1.59,-1.50,5.34,5.34,5.34
72.19,6.91,1.64,6.92,1.64,-1.63,-1.64,-1.53,5.28,5.28,5.28
72.91,6.91,1.71,6.91,1.70,-1.70,-1.70,-1.57,5.22,5.22,5.21
73.64,6.91,1.76,6.91,1.76,-1.76,-1.75,-1.61,5.16,5.16,5.16
74.38,6.91,1.82,6.91,1.81,-1.81,-1.81,-1.64,5.10,5.10,5.10
75.12,6.91,1.87,6.91,1.87,-1.87,-1.86,-1.68,5.05,5.05,5.05
75.87,6.91,1.92,6.91,1.92,-1.92,-1.92,-1.72,4.99,4.99,5.00
76.63,6.91,1.98,6.91,1.97,-1.97,-1.97,-1.76,4.94,4.94,4.94
77.40,6.91,2.02,6.91,2.02,-2.02,-2.02,-1.81,4.89,4.89,4.90
78.17,6.91,2.08,6.91,2.07,-2.07,-2.08,-1.85,4.84,4.84,4.84
78.95,6.91,2.12,6.91,2.12,-2.12,-2.13,-1.89,4.79,4.79,4.80
79.74,6.91,2.17,6.91,2.17,-2.17,-2.19,-1.94,4.75,4.75,4.75
80.54,6.91,2.22,6.91,2.22,-2.22,-2.24,-1.98,4.70,4.70,4.70
81.35,6.91,2.28,6.91,2.27,-2.27,-2.30,-2.03,4.65,4.65,4.64
82.16,6.91,2.31,6.91,2.31,-2.32,-2.35,-2.08,4.60,4.60,4.61
82.98,6.91,2.37,6.91,2.36,-2.37,-2.40,-2.13,4.54,4.54,4.55
83.81,6.91,2.42,6.91,2.42,-2.42,-2.46,-2.19,4.49,4.49,4.50
84.65,6.91,2.48,6.91,2.48,-2.47,-2.51,-2.24,4.44,4.44,4.44
85.50,6.91,2.54,6.91,2.53,-2.53,-2.57,-2.30,4.39,4.39,4.38
86.35,6.91,2.59,6.91,2.59,-2.58,-2.62,-2.36,4.33,4.33,4.33
87.22,6.91,2.64,6.91,2.64,-2.64,-2.68,-2.42,4.27,4.27,4.28
88.09,6.91,2.70,6.91,2.69,-2.70,-2.73,-2.48,4.22,4.22,4.22
88.97,6.91,2.76,6.91,2.75,-2.75,-2.79,-2.55,4.16,4.16,4.16
89.86,6.91,2.81,6.91,2.81,-2.81,-2.84,-2.61,4.10,4.10,4.11
90.76,6.91,2.87,6.91,2.87,-2.87,-2.90,-2.68,4.05,4.05,4.05
91.66,6.91,2.94,6.91,2.93,-2.92,-2.95,-2.75,3.99,3.99,3.98
92.58,6.91,2.99,6.91,2.98,-2.98,-3.01,-2.82,3.93,3.93,3.93
93.51,6.91,3.04,6.91,3.04,-3.04,-3.06,-2.90,3.87,3.87,3.88
94.44,6.91,3.10,6.91,3.10,-3.11,-3.12,-2.97,3.81,3.81,3.82
95.39,6.91,3.17,6.91,3.16,-3.17,-3.17,-3.05,3.74,3.74,3.75
96.34,6.91,3.24,6.91,3.23,-3.23,-3.22,-3.13,3.68,3.68,3.68
97.30,6.91,3.30,6.91,3.30,-3.29,-3.28,-3.21,3.62,3.62,3.62
98.28,6.91,3.37,6.91,3.36,-3.36,-3.33,-3.29,3.56,3.56,3.55
99.26,6.91,3.43,6.91,3.42,-3.42,-3.39,-3.38,3.49,3.49,3.49
100.25,6.91,3.49,6.91,3.48,-3.49,-3.44,-3.46,3.43,3.43,3.43
101.25,6.91,3.54,6.92,3.54,-3.55,-3.49,-3.55,3.36,3.37,3.38
102.27,6.92,3.61,6.92,3.60,-3.61,-3.55,-3.63,3.31,3.31,3.32
103.29,6.93,3.68,6.93,3.67,-3.67,-3.60,-3.72,3.26,3.26,3.26
104.32,6.93,3.73,6.94,3.73,-3.73,-3.65,-3.81,3.20,3.21,3.21
105.37,6.94,3.80,6.94,3.79,-3.78,-3.70,-3.89,3.16,3.16,3.15
106.42,6.93,3.84,6.93,3.84,-3.83,-3.75,-3.98,3.11,3.10,3.10
107.48,6.91,3.88,6.92,3.88,-3.87,-3.80,-4.06,3.04,3.05,3.04
108.56,6.89,3.91,6.89,3.91,-3.90,-3.85,-4.15,2.99,2.99,2.99
109.64,6.86,3.94,6.86,3.94,-3.93,-3.90,-4.23,2.93,2.93,2.93
110.74,6.83,3.97,6.83,3.96,-3.96,-3.95,-4.31,2.87,2.87,2.87
111.85,6.79,3.99,6.79,3.98,-3.99,-4.00,-4.39,2.81,2.81,2.81
112.97,6.75,4.00,6.75,4.00,-4.01,-4.05,-4.47,2.74,2.74,2.76
114.10,6.71,4.02,6.72,4.03,-4.04,-4.09,-4.54,2.68,2.68,2.70
115.24,6.68,4.07,6.69,4.06,-4.06,-4.14,-4.61,2.62,2.62,2.62
116.39,6.66,4.11,6.66,4.10,-4.09,-4.18,-4.67,2.57,2.57,2.56
117.55,6.63,4.14,6.63,4.14,-4.12,-4.23,-4.73,2.51,2.51,2.50
118.73,6.61,4.18,6.61,4.17,-4.16,-4.27,-4.79,2.45,2.45,2.44
119.92,6.58,4.19,6.59,4.19,-4.20,-4.31,-4.84,2.39,2.39,2.40
121.12,6.57,4.23,6.57,4.23,-4.24,-4.35,-4.89,2.33,2.33,2.35
122.33,6.56,4.28,6.57,4.27,-4.29,-4.39,-4.93,2.27,2.28,2.29
123.55,6.57,4.34,6.57,4.33,-4.34,-4.43,-4.97,2.23,2.23,2.24
124.79,6.58,4.40,6.58,4.40,-4.40,-4.46,-5.00,2.18,2.18,2.19
126.03,6.59,4.47,6.59,4.46,-4.46,-4.50,-5.02,2.13,2.13,2.13
127.29,6.60,4.53,6.60,4.53,-4.53,-4.54,-5.04,2.08,2.08,2.08
128.57,6.60,4.60,6.61,4.59,-4.59,-4.57,-5.05,2.02,2.02,2.01
129.85,6.61,4.66,6.61,4.65,-4.64,-4.60,-5.06,1.97,1.96,1.96
131.15,6.60,4.71,6.60,4.71,-4.70,-4.64,-5.07,1.91,1.91,1.90
132.46,6.59,4.75,6.59,4.75,-4.74,-4.67,-5.06,1.85,1.85,1.85
133.79,6.57,4.79,6.58,4.79,-4.78,-4.70,-5.06,1.79,1.79,1.79
135.12,6.55,4.82,6.55,4.81,-4.82,-4.73,-5.05,1.74,1.74,1.74
136.48,6.53,4.85,6.53,4.84,-4.84,-4.76,-5.03,1.69,1.68,1.69
137.84,6.49,4.86,6.50,4.87,-4.87,-4.79,-5.02,1.63,1.64,1.64
139.22,6.47,4.90,6.47,4.89,-4.88,-4.82,-5.00,1.59,1.59,1.58
140.61,6.44,4.91,6.44,4.91,-4.90,-4.85,-4.97,1.54,1.54,1.54
142.02,6.39,4.92,6.40,4.92,-4.92,-4.88,-4.95,1.48,1.48,1.48
143.44,6.37,4.94,6.37,4.93,-4.94,-4.91,-4.93,1.44,1.43,1.44
144.87,6.33,4.94,6.34,4.95,-4.95,-4.94,-4.90,1.38,1.38,1.40
146.32,6.32,4.98,6.32,4.97,-4.98,-4.97,-4.87,1.35,1.34,1.35
147.78,6.29,4.99,6.30,4.99,-5.00,-5.00,-4.85,1.29,1.30,1.31
149.26,6.28,5.03,6.28,5.03,-5.02,-5.03,-4.82,1.26,1.26,1.26
150.75,6.27,5.06,6.27,5.05,-5.05,-5.06,-4.80,1.22,1.22,1.22
152.26,6.26,5.09,6.26,5.08,-5.08,-5.09,-4.77,1.18,1.18,1.18
153.78,6.24,5.11,6.25,5.11,-5.11,-5.12,-4.75,1.13,1.14,1.14
155.32,6.23,5.14,6.23,5.14,-5.14,-5.15,-4.73,1.10,1.10,1.10
156.88,6.21,5.17,6.21,5.16,-5.16,-5.18,-4.71,1.05,1.05,1.05
158.44,6.19,5.20,6.19,5.19,-5.18,-5.21,-4.69,1.01,1.01,1.00
160.03,6.15,5.20,6.16,5.20,-5.20,-5.24,-4.68,0.96,0.96,0.96
161.63,6.13,5.22,6.13,5.22,-5.22,-5.27,-4.67,0.92,0.91,0.92
163.24,6.10,5.24,6.09,5.23,-5.23,-5.30,-4.66,0.87,0.86,0.87
164.88,6.05,5.24,6.06,5.24,-5.25,-5.33,-4.65,0.80,0.82,0.82
166.53,6.03,5.27,6.03,5.26,-5.27,-5.35,-4.65,0.77,0.77,0.77
168.19,6.01,5.28,6.01,5.28,-5.29,-5.38,-4.65,0.73,0.72,0.74
169.87,5.98,5.31,5.99,5.31,-5.31,-5.40,-4.65,0.68,0.68,0.68
171.57,5.96,5.34,5.97,5.33,-5.33,-5.43,-4.66,0.63,0.63,0.63
173.29,5.95,5.37,5.94,5.36,-5.36,-5.45,-4.67,0.59,0.58,0.59
175.02,5.91,5.38,5.92,5.38,-5.39,-5.47,-4.69,0.53,0.53,0.54
176.77,5.89,5.41,5.90,5.41,-5.41,-5.49,-4.71,0.48,0.49,0.49
178.54,5.88,5.44,5.88,5.44,-5.44,-5.51,-4.73,0.45,0.45,0.45
180.32,5.87,5.49,5.87,5.47,-5.46,-5.53,-4.75,0.42,0.41,0.39
182.13,5.84,5.49,5.84,5.49,-5.48,-5.55,-4.78,0.37,0.36,0.36
183.95,5.79,5.49,5.80,5.50,-5.50,-5.57,-4.82,0.30,0.30,0.31
185.79,5.76,5.51,5.77,5.50,-5.52,-5.58,-4.85,0.25,0.25,0.26
187.65,5.74,5.53,5.74,5.52,-5.53,-5.59,-4.89,0.21,0.21,0.22
189.52,5.72,5.55,5.72,5.55,-5.55,-5.60,-4.94,0.18,0.18,0.18
191.42,5.70,5.57,5.70,5.56,-5.56,-5.62,-4.98,0.14,0.14,0.14
193.33,5.67,5.58,5.67,5.58,-5.57,-5.62,-5.03,0.10,0.10,0.10
195.27,5.63,5.59,5.64,5.59,-5.59,-5.63,-5.08,0.05,0.05,0.05
197.22,5.60,5.61,5.60,5.60,-5.60,-5.64,-5.14,0.01,0.01,-0.00
199.19,5.57,5.61,5.57,5.61,-5.61,-5.64,-5.20,-0.03,-0.04,-0.03
201.18,5.54,5.62,5.54,5.61,-5.62,-5.65,-5.26,-0.07,-0.07,-0.07
203.19,5.51,5.62,5.52,5.61,-5.62,-5.65,-5.32,-0.11,-0.11,-0.10
205.23,5.49,5.62,5.49,5.62,-5.63,-5.65,-5.38,-0.13,-0.13,-0.12
207.28,5.47,5.63,5.47,5.63,-5.63,-5.65,-5.45,-0.16,-0.16,-0.15
209.35,5.44,5.64,5.45,5.64,-5.63,-5.65,-5.51,-0.19,-0.18,-0.19
211.44,5.42,5.65,5.42,5.64,-5.63,-5.65,-5.58,-0.20,-0.21,-0.22
213.56,5.38,5.63,5.38,5.63,-5.62,-5.65,-5.64,-0.24,-0.24,-0.24
215.69,5.34,5.62,5.34,5.61,-5.62,-5.64,-5.71,-0.27,-0.28,-0.27
217.85,5.29,5.60,5.30,5.60,-5.61,-5.64,-5.77,-0.31,-0.31,-0.30
220.03,5.26,5.60,5.26,5.60,-5.60,-5.63,-5.84,-0.33,-0.33,-0.33
222.23,5.23,5.60,5.23,5.58,-5.59,-5.63,-5.90,-0.35,-0.36,-0.36
224.45,5.19,5.57,5.19,5.57,-5.57,-5.62,-5.96,-0.38,-0.38,-0.37
226.70,5.15,5.56,5.16,5.56,-5.56,-5.61,-6.01,-0.41,-0.40,-0.40
228.96,5.13,5.55,5.13,5.55,-5.55,-5.60,-6.06,-0.42,-0.42,-0.41
231.25,5.11,5.55,5.11,5.54,-5.54,-5.59,-6.11,-0.42,-0.43,-0.43
233.57,5.08,5.54,5.08,5.53,-5.52,-5.58,-6.15,-0.44,-0.44,-0.45
235.90,5.04,5.51,5.05,5.52,-5.51,-5.56,-6.18,-0.47,-0.46,-0.46
238.26,5.02,5.52,5.02,5.50,-5.50,-5.55,-6.21,-0.47,-0.48,-0.49
240.64,4.99,5.48,4.99,5.49,-5.49,-5.53,-6.24,-0.49,-0.49,-0.48
243.05,4.97,5.48,4.97,5.48,-5.48,-5.52,-6.25,-0.51,-0.51,-0.50
245.48,4.95,5.47,4.95,5.46,-5.47,-5.50,-6.26,-0.52,-0.52,-0.51
247.93,4.94,5.47,4.95,5.46,-5.47,-5.49,-6.26,-0.53,-0.53,-0.52
250.41,4.94,5.46,4.94,5.46,-5.47,-5.47,-6.25,-0.53,-0.53,-0.51
252.92,4.95,5.48,4.95,5.48,-5.48,-5.45,-6.24,-0.52,-0.52,-0.52
255.45,4.96,5.50,4.96,5.49,-5.48,-5.43,-6.22,-0.52,-0.52,-0.53
258.00,4.97,5.51,4.97,5.50,-5.49,-5.41,-6.19,-0.52,-0.52,-0.53
260.58,4.97,5.51,4.97,5.51,-5.50,-5.39,-6.15,-0.53,-0.53,-0.53
263.19,4.97,5.51,4.97,5.51,-5.51,-5.37,-6.11,-0.54,-0.54,-0.53
265.82,4.97,5.52,4.97,5.51,-5.52,-5.34,-6.06,-0.55,-0.55,-0.54
268.48,4.97,5.52,4.98,5.52,-5.53,-5.32,-6.01,-0.56,-0.55,-0.54
271.16,4.98,5.53,4.98,5.53,-5.53,-5.30,-5.94,-0.55,-0.55,-0.54
273.87,4.99,5.54,4.99,5.53,-5.54,-5.27,-5.88,-0.54,-0.55,-0.54
276.61,4.99,5.54,4.99,5.54,-5.53,-5.25,-5.81,-0.54,-0.54,-0.54
279.38,4.98,5.55,4.99,5.54,-5.53,-5.22,-5.73,-0.54,-0.54,-0.56
282.17,4.97,5.54,4.97,5.53,-5.51,-5.19,-5.65,-0.54,-0.54,-0.56
284.99,4.95,5.51,4.95,5.50,-5.49,-5.17,-5.57,-0.54,-0.54,-0.55
287.84,4.91,5.46,4.92,5.47,-5.47,-5.14,-5.49,-0.55,-0.55,-0.54
290.72,4.88,5.44,4.88,5.43,-5.43,-5.11,-5.40,-0.55,-0.55,-0.55
293.63,4.84,5.39,4.85,5.39,-5.39,-5.08,-5.32,-0.55,-0.55,-0.54
296.57,4.81,5.35,4.81,5.35,-5.35,-5.05,-5.23,-0.54,-0.54,-0.53
299.53,4.78,5.32,4.78,5.31,-5.31,-5.02,-5.14,-0.53,-0.53,-0.53
302.53,4.75,5.27,4.75,5.27,-5.28,-4.99,-5.06,-0.52,-0.53,-0.51
305.55,4.71,5.24,4.72,5.23,-5.24,-4.96,-4.97,-0.53,-0.52,-0.52
308.61,4.69,5.21,4.69,5.20,-5.21,-4.92,-4.89,-0.52,-0.52,-0.51
311.69,4.67,5.18,4.67,5.18,-5.19,-4.89,-4.80,-0.51,-0.51,-0.50
314.81,4.66,5.17,4.66,5.16,-5.16,-4.86,-4.72,-0.50,-0.50,-0.50
317.96,4.65,5.15,4.65,5.15,-5.14,-4.82,-4.64,-0.49,-0.49,-0.49
321.14,4.64,5.13,4.64,5.12,-5.12,-4.79,-4.56,-0.48,-0.48,-0.48
324.35,4.62,5.11,4.63,5.10,-5.10,-4.76,-4.49,-0.48,-0.48,-0.48
327.59,4.61,5.07,4.62,5.08,-5.08,-4.72,-4.42,-0.47,-0.47,-0.45
330.87,4.60,5.07,4.60,5.06,-5.06,-4.68,-4.35,-0.46,-0.46,-0.46
334.18,4.58,5.04,4.58,5.03,-5.03,-4.65,-4.28,-0.45,-0.45,-0.45
337.52,4.55,5.01,4.56,5.01,-5.00,-4.61,-4.21,-0.45,-0.44,-0.45
340.90,4.53,4.97,4.53,4.97,-4.96,-4.57,-4.15,-0.43,-0.43,-0.43
344.30,4.50,4.93,4.50,4.93,-4.92,-4.53,-4.09,-0.42,-0.42,-0.42
347.75,4.46,4.89,4.46,4.88,-4.88,-4.50,-4.04,-0.41,-0.42,-0.42
351.23,4.40,4.83,4.41,4.82,-4.83,-4.46,-3.98,-0.42,-0.41,-0.42
354.74,4.36,4.76,4.36,4.77,-4.77,-4.42,-3.93,-0.41,-0.41,-0.39
358.28,4.31,4.72,4.32,4.71,-4.72,-4.38,-3.89,-0.40,-0.40,-0.40
361.87,4.27,4.67,4.27,4.66,-4.66,-4.34,-3.84,-0.39,-0.39,-0.39
365.49,4.22,4.61,4.22,4.60,-4.61,-4.30,-3.80,-0.38,-0.38,-0.38
369.14,4.17,4.54,4.18,4.55,-4.55,-4.26,-3.77,-0.38,-0.37,-0.36
372.83,4.13,4.50,4.13,4.49,-4.49,-4.21,-3.73,-0.36,-0.37,-0.36
376.56,4.08,4.45,4.08,4.44,-4.44,-4.17,-3.70,-0.36,-0.36,-0.36
380.33,4.03,4.39,4.04,4.39,-4.39,-4.13,-3.67,-0.35,-0.35,-0.35
384.13,3.99,4.33,3.99,4.33,-4.33,-4.09,-3.64,-0.34,-0.34,-0.33
387.97,3.94,4.28,3.94,4.27,-4.27,-4.04,-3.62,-0.33,-0.33,-0.33
391.85,3.89,4.22,3.90,4.22,-4.22,-4.00,-3.60,-0.32,-0.32,-0.32
395.77,3.85,4.17,3.85,4.16,-4.16,-3.95,-3.58,-0.31,-0.31,-0.31
399.73,3.80,4.11,3.80,4.10,-4.10,-3.91,-3.56,-0.30,-0.30,-0.30
403.72,3.75,4.03,3.75,4.04,-4.04,-3.87,-3.55,-0.29,-0.29,-0.27
407.76,3.70,3.99,3.71,3.98,-3.99,-3.82,-3.53,-0.28,-0.28,-0.28
411.84,3.66,3.94,3.66,3.93,-3.93,-3.77,-3.52,-0.27,-0.27,-0.27
415.96,3.61,3.87,3.62,3.88,-3.87,-3.73,-3.51,-0.26,-0.26,-0.25
420.12,3.57,3.83,3.57,3.82,-3.82,-3.68,-3.50,-0.25,-0.24,-0.25
424.32,3.53,3.78,3.53,3.76,-3.77,-3.64,-3.49,-0.23,-0.24,-0.24
428.56,3.48,3.71,3.48,3.71,-3.72,-3.59,-3.48,-0.23,-0.23,-0.22
432.85,3.43,3.65,3.44,3.66,-3.66,-3.54,-3.47,-0.23,-0.23,-0.21
437.18,3.39,3.62,3.39,3.61,-3.61,-3.49,-3.46,-0.22,-0.22,-0.22
441.55,3.35,3.57,3.35,3.56,-3.56,-3.45,-3.46,-0.21,-0.21,-0.21
445.96,3.31,3.52,3.31,3.51,-3.50,-3.40,-3.45,-0.19,-0.19,-0.20
450.42,3.26,3.46,3.26,3.46,-3.45,-3.35,-3.44,-0.18,-0.18,-0.19
454.93,3.21,3.40,3.21,3.40,-3.39,-3.30,-3.43,-0.18,-0.18,-0.18
459.48,3.16,3.34,3.16,3.33,-3.34,-3.25,-3.41,-0.17,-0.17,-0.17
464.07,3.11,3.27,3.11,3.27,-3.28,-3.20,-3.40,-0.17,-0.17,-0.15
468.71,3.06,3.21,3.07,3.21,-3.22,-3.15,-3.38,-0.16,-0.16,-0.14
473.40,3.02,3.17,3.02,3.16,-3.16,-3.10,-3.37,-0.14,-0.14,-0.14
478.13,2.98,3.12,2.98,3.11,-3.11,-3.05,-3.35,-0.12,-0.12,-0.13
482.91,2.93,3.06,2.93,3.06,-3.05,-3.00,-3.32,-0.11,-0.11,-0.12
487.74,2.88,3.00,2.88,2.99,-2.99,-2.95,-3.30,-0.10,-0.11,-0.11
492.62,2.82,2.93,2.83,2.93,-2.93,-2.90,-3.27,-0.10,-0.10,-0.10
497.55,2.77,2.87,2.77,2.86,-2.87,-2.85,-3.24,-0.09,-0.09,-0.09
502.52,2.72,2.81,2.72,2.80,-2.81,-2.80,-3.20,-0.08,-0.08,-0.08
507.55,2.67,2.74,2.68,2.74,-2.75,-2.74,-3.16,-0.07,-0.07,-0.06
512.62,2.63,2.69,2.63,2.68,-2.69,-2.69,-3.12,-0.05,-0.05,-0.05
517.75,2.59,2.63,2.59,2.63,-2.63,-2.64,-3.08,-0.04,-0.04,-0.03
522.93,2.55,2.58,2.55,2.57,-2.58,-2.58,-3.03,-0.02,-0.02,-0.02
528.16,2.51,2.53,2.51,2.52,-2.52,-2.53,-2.98,-0.01,-0.01,-0.01
