frequency,raw,error,smoothed,error_smoothed,equalization,parametric_eq,fixed_band_eq,equalized_raw,equalized_smoothed,target
20.00,1.28,-1.17,1.31,-1.17,1.17,-0.03,0.22,2.45,2.48,2.45
20.20,1.32,-1.18,1.33,-1.18,1.18,-0.03,0.23,2.50,2.52,2.50
20.40,1.36,-1.19,1.36,-1.19,1.19,-0.03,0.24,2.55,2.55,2.55
20.61,1.40,-1.18,1.38,-1.20,1.20,-0.03,0.25,2.60,2.58,2.58
20.81,1.43,-1.20,1.40,-1.21,1.21,-0.03,0.27,2.64,2.61,2.63
21.02,1.47,-1.20,1.43,-1.21,1.21,-0.03,0.28,2.68,2.64,2.67
21.23,1.47,-1.22,1.45,-1.22,1.22,-0.03,0.29,2.69,2.66,2.69
21.44,1.47,-1.24,1.47,-1.22,1.22,-0.03,0.30,2.69,2.69,2.71
21.66,1.48,-1.25,1.49,-1.22,1.22,-0.03,0.32,2.69,2.71,2.72
21.87,1.48,-1.26,1.51,-1.21,1.21,-0.03,0.33,2.69,2.73,2.73
22.09,1.50,-1.26,1.53,-1.21,1.21,-0.03,0.34,2.70,2.74,2.75
22.31,1.53,-1.23,1.56,-1.20,1.20,-0.03,0.36,2.73,2.75,2.76
22.54,1.57,-1.19,1.57,-1.19,1.19,-0.03,0.37,2.75,2.76,2.76
22.76,1.61,-1.15,1.59,-1.17,1.17,-0.04,0.39,2.78,2.76,2.76
22.99,1.65,-1.10,1.61,-1.16,1.16,-0.04,0.40,2.81,2.76,2.75
23.22,1.66,-1.09,1.63,-1.14,1.14,-0.04,0.42,2.80,2.77,2.75
23.45,1.66,-1.09,1.65,-1.12,1.12,-0.04,0.44,2.78,2.77,2.75
23.69,1.67,-1.09,1.67,-1.09,1.09,-0.04,0.45,2.76,2.77,2.76
23.92,1.68,-1.08,1.70,-1.07,1.07,-0.04,0.47,2.75,2.77,2.76
24.16,1.70,-1.07,1.72,-1.05,1.05,-0.04,0.49,2.74,2.77,2.77
24.40,1.72,-1.06,1.74,-1.02,1.02,-0.04,0.50,2.74,2.76,2.78
24.65,1.75,-1.02,1.76,-1.00,1.00,-0.04,0.52,2.75,2.76,2.77
24.89,1.77,-1.00,1.77,-0.99,0.99,-0.04,0.54,2.76,2.76,2.76
25.14,1.79,-0.97,1.79,-0.98,0.98,-0.04,0.56,2.76,2.77,2.76
25.39,1.82,-0.95,1.81,-0.96,0.96,-0.04,0.58,2.78,2.77,2.77
25.65,1.85,-0.92,1.82,-0.94,0.94,-0.05,0.60,2.79,2.77,2.77
25.91,1.87,-0.89,1.84,-0.92,0.92,-0.05,0.62,2.79,2.77,2.76
26.16,1.88,-0.88,1.86,-0.90,0.90,-0.05,0.64,2.78,2.77,2.76
26.43,1.88,-0.88,1.88,-0.88,0.88,-0.05,0.65,2.76,2.76,2.76
26.69,1.88,-0.88,1.89,-0.87,0.87,-0.05,0.67,2.75,2.76,2.76
26.96,1.88,-0.89,1.90,-0.85,0.85,-0.05,0.69,2.73,2.76,2.77
27.23,1.90,-0.87,1.92,-0.84,0.84,-0.05,0.71,2.74,2.76,2.76
27.50,1.93,-0.83,1.93,-0.83,0.83,-0.05,0.73,2.76,2.75,2.76
27.77,1.96,-0.79,1.94,-0.81,0.81,-0.05,0.75,2.77,2.75,2.75
28.05,1.98,-0.77,1.95,-0.80,0.80,-0.05,0.76,2.78,2.75,2.75
28.33,1.98,-0.76,1.97,-0.78,0.78,-0.06,0.78,2.76,2.75,2.74
28.62,1.98,-0.76,1.99,-0.76,0.76,-0.06,0.79,2.74,2.75,2.74
28.90,1.98,-0.77,2.01,-0.74,0.74,-0.06,0.81,2.72,2.75,2.74
29.19,2.00,-0.73,2.03,-0.71,0.71,-0.06,0.82,2.71,2.74,2.73
29.48,2.03,-0.72,2.05,-0.69,0.69,-0.06,0.83,2.72,2.74,2.75
29.78,2.06,-0.68,2.07,-0.67,0.67,-0.06,0.84,2.73,2.74,2.74
30.08,2.09,-0.66,2.09,-0.65,0.65,-0.06,0.85,2.74,2.74,2.75
30.38,2.12,-0.62,2.10,-0.63,0.63,-0.06,0.86,2.75,2.73,2.73
30.68,2.15,-0.58,2.12,-0.62,0.62,-0.07,0.87,2.76,2.73,2.73
30.99,2.18,-0.55,2.13,-0.60,0.60,-0.07,0.87,2.78,2.73,2.73
31.30,2.18,-0.55,2.15,-0.58,0.58,-0.07,0.88,2.76,2.73,2.73
31.61,2.18,-0.55,2.17,-0.56,0.56,-0.07,0.88,2.74,2.73,2.73
31.93,2.18,-0.54,2.18,-0.54,0.54,-0.07,0.88,2.72,2.72,2.72
32.24,2.18,-0.53,2.20,-0.52,0.52,-0.07,0.88,2.70,2.72,2.71
32.57,2.18,-0.54,2.21,-0.50,0.50,-0.07,0.88,2.68,2.71,2.72
32.89,2.18,-0.54,2.22,-0.49,0.49,-0.08,0.88,2.66,2.71,2.71
33.22,2.20,-0.50,2.23,-0.47,0.47,-0.08,0.88,2.67,2.70,2.70
33.55,2.24,-0.46,2.24,-0.46,0.46,-0.08,0.87,2.70,2.70,2.70
33.89,2.27,-0.42,2.24,-0.45,0.45,-0.08,0.86,2.72,2.69,2.68
34.23,2.28,-0.41,2.25,-0.44,0.44,-0.08,0.86,2.71,2.69,2.69
34.57,2.28,-0.40,2.26,-0.42,0.42,-0.08,0.85,2.70,2.68,2.68
34.92,2.28,-0.40,2.27,-0.41,0.41,-0.09,0.84,2.69,2.68,2.67
35.27,2.28,-0.39,2.27,-0.40,0.40,-0.09,0.83,2.68,2.67,2.67
35.62,2.28,-0.39,2.28,-0.39,0.39,-0.09,0.82,2.67,2.67,2.67
35.97,2.28,-0.38,2.28,-0.38,0.38,-0.09,0.80,2.66,2.67,2.66
36.33,2.28,-0.39,2.28,-0.38,0.38,-0.09,0.79,2.66,2.66,2.67
36.70,2.28,-0.38,2.28,-0.38,0.38,-0.10,0.78,2.66,2.66,2.65
37.06,2.28,-0.37,2.28,-0.38,0.38,-0.10,0.77,2.66,2.66,2.65
37.43,2.28,-0.39,2.28,-0.38,0.38,-0.10,0.75,2.66,2.66,2.66
37.81,2.28,-0.38,2.28,-0.38,0.38,-0.10,0.74,2.65,2.66,2.66
38.19,2.28,-0.38,2.29,-0.37,0.37,-0.10,0.73,2.65,2.66,2.65
38.57,2.28,-0.38,2.29,-0.37,0.37,-0.11,0.71,2.65,2.66,2.66
38.95,2.28,-0.38,2.29,-0.36,0.36,-0.11,0.70,2.64,2.66,2.66
39.34,2.28,-0.38,2.30,-0.36,0.36,-0.11,0.68,2.64,2.66,2.66
39.74,2.28,-0.37,2.30,-0.36,0.36,-0.11,0.67,2.64,2.65,2.65
40.14,2.29,-0.37,2.30,-0.35,0.35,-0.12,0.66,2.64,2.65,2.66
40.54,2.33,-0.32,2.30,-0.35,0.35,-0.12,0.64,2.68,2.65,2.65
40.94,2.37,-0.27,2.30,-0.34,0.34,-0.12,0.63,2.71,2.64,2.64
41.35,2.34,-0.30,2.30,-0.34,0.34,-0.12,0.62,2.68,2.64,2.64
41.76,2.30,-0.33,2.30,-0.33,0.33,-0.13,0.61,2.62,2.63,2.63
42.18,2.28,-0.35,2.31,-0.31,0.31,-0.13,0.60,2.59,2.62,2.63
42.60,2.28,-0.33,2.31,-0.30,0.30,-0.13,0.58,2.58,2.61,2.61
43.03,2.28,-0.33,2.30,-0.29,0.29,-0.13,0.57,2.57,2.59,2.60
43.46,2.28,-0.32,2.30,-0.28,0.28,-0.14,0.56,2.56,2.58,2.60
43.90,2.28,-0.29,2.29,-0.28,0.28,-0.14,0.55,2.55,2.57,2.57
44.33,2.28,-0.27,2.28,-0.27,0.27,-0.14,0.54,2.55,2.55,2.55
44.78,2.28,-0.25,2.27,-0.27,0.27,-0.15,0.54,2.55,2.54,2.53
45.23,2.28,-0.24,2.25,-0.28,0.28,-0.15,0.53,2.55,2.52,2.52
45.68,2.28,-0.22,2.23,-0.28,0.28,-0.15,0.52,2.56,2.51,2.50
46.13,2.27,-0.21,2.22,-0.28,0.28,-0.16,0.51,2.54,2.49,2.48
46.60,2.22,-0.26,2.20,-0.27,0.27,-0.16,0.50,2.49,2.48,2.48
47.06,2.18,-0.28,2.18,-0.27,0.27,-0.16,0.50,2.45,2.46,2.46
47.53,2.15,-0.30,2.17,-0.28,0.28,-0.17,0.49,2.42,2.44,2.45
48.01,2.12,-0.32,2.15,-0.28,0.28,-0.17,0.48,2.40,2.42,2.44
48.49,2.10,-0.32,2.13,-0.28,0.28,-0.17,0.48,2.38,2.41,2.42
48.97,2.08,-0.32,2.11,-0.28,0.28,-0.18,0.47,2.36,2.39,2.40
49.46,2.08,-0.30,2.10,-0.28,0.28,-0.18,0.47,2.36,2.38,2.37
49.96,2.08,-0.27,2.09,-0.28,0.28,-0.19,0.46,2.36,2.36,2.35
50.46,2.08,-0.27,2.08,-0.27,0.27,-0.19,0.46,2.35,2.35,2.35
50.96,2.08,-0.25,2.07,-0.26,0.26,-0.19,0.45,2.34,2.33,2.33
51.47,2.08,-0.23,2.07,-0.25,0.25,-0.20,0.45,2.33,2.32,2.31
51.99,2.08,-0.21,2.07,-0.23,0.23,-0.20,0.44,2.31,2.30,2.29
52.51,2.08,-0.20,2.07,-0.21,0.21,-0.21,0.44,2.29,2.28,2.28
53.03,2.08,-0.20,2.07,-0.19,0.19,-0.21,0.44,2.27,2.27,2.28
53.56,2.08,-0.18,2.08,-0.17,0.17,-0.22,0.43,2.25,2.25,2.26
54.10,2.08,-0.16,2.09,-0.15,0.15,-0.22,0.43,2.23,2.24,2.24
54.64,2.08,-0.14,2.09,-0.14,0.14,-0.23,0.42,2.22,2.23,2.22
55.18,2.08,-0.13,2.09,-0.12,0.12,-0.23,0.41,2.20,2.21,2.21
55.74,2.08,-0.11,2.09,-0.11,0.11,-0.24,0.41,2.19,2.20,2.19
56.29,2.08,-0.10,2.08,-0.10,0.10,-0.24,0.40,2.18,2.18,2.18
56.86,2.08,-0.08,2.07,-0.09,0.09,-0.25,0.39,2.17,2.16,2.16
57.42,2.08,-0.05,2.06,-0.08,0.08,-0.25,0.39,2.16,2.14,2.13
58.00,2.08,-0.04,2.05,-0.07,0.07,-0.26,0.38,2.15,2.12,2.11
58.58,2.08,-0.02,2.03,-0.06,0.06,-0.26,0.37,2.14,2.09,2.10
59.16,2.06,-0.02,2.01,-0.05,0.05,-0.27,0.36,2.11,2.06,2.08
59.76,2.00,-0.05,2.00,-0.03,0.03,-0.28,0.35,2.03,2.03,2.05
60.35,1.96,-0.05,1.98,-0.01,0.01,-0.28,0.33,1.97,2.00,2.00
60.96,1.93,-0.04,1.96,0.01,-0.01,-0.29,0.32,1.92,1.96,1.97
61.57,1.90,-0.02,1.95,0.03,-0.03,-0.30,0.31,1.87,1.92,1.92
62.18,1.88,0.01,1.93,0.06,-0.06,-0.30,0.29,1.82,1.87,1.87
62.80,1.88,0.06,1.91,0.08,-0.08,-0.31,0.27,1.80,1.83,1.82
63.43,1.88,0.11,1.89,0.11,-0.11,-0.32,0.25,1.77,1.78,1.77
64.07,1.88,0.16,1.88,0.14,-0.14,-0.32,0.23,1.73,1.73,1.72
64.71,1.88,0.21,1.86,0.18,-0.18,-0.33,0.21,1.70,1.68,1.67
65.35,1.88,0.25,1.84,0.21,-0.21,-0.34,0.19,1.66,1.63,1.63
66.01,1.88,0.30,1.83,0.25,-0.25,-0.35,0.17,1.63,1.58,1.57
66.67,1.81,0.29,1.81,0.29,-0.29,-0.36,0.14,1.52,1.52,1.52
67.33,1.78,0.31,1.79,0.32,-0.32,-0.36,0.12,1.46,1.47,1.46
68.01,1.78,0.36,1.76,0.35,-0.35,-0.37,0.09,1.43,1.41,1.42
68.69,1.71,0.35,1.73,0.37,-0.37,-0.38,0.06,1.33,1.36,1.36
69.37,1.68,0.38,1.70,0.40,-0.40,-0.39,0.03,1.28,1.30,1.30
70.07,1.68,0.44,1.66,0.42,-0.42,-0.40,-0.00,1.26,1.24,1.24
70.77,1.63,0.44,1.62,0.43,-0.43,-0.41,-0.03,1.19,1.18,1.19
71.48,1.55,0.42,1.56,0.44,-0.44,-0.42,-0.06,1.10,1.12,1.13
72.19,1.48,0.42,1.51,0.45,-0.45,-0.43,-0.10,1.03,1.06,1.06
72.91,1.48,0.48,1.45,0.46,-0.46,-0.44,-0.13,1.02,0.99,1.00
73.64,1.42,0.49,1.40,0.46,-0.46,-0.45,-0.17,0.95,0.93,0.93
74.38,1.35,0.48,1.34,0.47,-0.47,-0.46,-0.20,0.88,0.87,0.87
75.12,1.29,0.49,1.28,0.47,-0.47,-0.47,-0.24,0.81,0.81,0.80
75.87,1.23,0.49,1.22,0.48,-0.48,-0.48,-0.28,0.75,0.74,0.73
76.63,1.14,0.46,1.16,0.47,-0.47,-0.50,-0.32,0.66,0.68,0.68
77.40,1.07,0.45,1.09,0.47,-0.47,-0.51,-0.36,0.60,0.62,0.62
78.17,0.99,0.44,1.02,0.46,-0.46,-0.52,-0.40,0.53,0.56,0.55
78.95,0.88,0.37,0.95,0.45,-0.45,-0.53,-0.44,0.43,0.50,0.50
79.74,0.87,0.43,0.88,0.44,-0.44,-0.55,-0.48,0.43,0.44,0.44
80.54,0.82,0.43,0.80,0.42,-0.42,-0.56,-0.52,0.40,0.39,0.39
81.35,0.74,0.41,0.72,0.39,-0.39,-0.57,-0.56,0.35,0.33,0.33
82.16,0.67,0.40,0.64,0.36,-0.36,-0.59,-0.61,0.31,0.27,0.27
82.98,0.58,0.35,0.54,0.33,-0.33,-0.60,-0.65,0.25,0.22,0.23
83.81,0.44,0.28,0.44,0.28,-0.28,-0.62,-0.70,0.16,0.16,0.16
84.65,0.34,0.24,0.34,0.23,-0.23,-0.64,-0.74,0.11,0.11,0.10
85.50,0.24,0.18,0.22,0.17,-0.17,-0.65,-0.79,0.07,0.05,0.05
86.35,0.12,0.12,0.09,0.10,-0.10,-0.67,-0.84,0.02,-0.01,-0.00
87.22,-0.01,0.05,-0.05,0.02,-0.02,-0.69,-0.88,-0.03,-0.07,-0.06
88.09,-0.16,-0.04,-0.20,-0.07,0.07,-0.70,-0.93,-0.09,-0.13,-0.12
88.97,-0.31,-0.13,-0.35,-0.17,0.17,-0.72,-0.98,-0.14,-0.19,-0.19
89.86,-0.49,-0.24,-0.51,-0.27,0.27,-0.74,-1.03,-0.23,-0.25,-0.25
90.76,-0.66,-0.35,-0.68,-0.37,0.37,-0.76,-1.08,-0.29,-0.31,-0.31
91.66,-0.83,-0.47,-0.85,-0.48,0.48,-0.78,-1.13,-0.35,-0.37,-0.36
92.58,-0.98,-0.54,-1.01,-0.59,0.59,-0.80,-1.18,-0.40,-0.43,-0.44
93.51,-1.16,-0.67,-1.17,-0.68,0.68,-0.82,-1.24,-0.48,-0.49,-0.49
94.44,-1.33,-0.79,-1.31,-0.77,0.77,-0.84,-1.29,-0.56,-0.55,-0.55
95.39,-1.46,-0.86,-1.44,-0.84,0.84,-0.87,-1.34,-0.63,-0.61,-0.60
96.34,-1.56,-0.89,-1.55,-0.89,0.89,-0.89,-1.40,-0.67,-0.66,-0.67
97.30,-1.65,-0.93,-1.64,-0.91,0.91,-0.91,-1.45,-0.74,-0.72,-0.72
98.28,-1.71,-0.93,-1.69,-0.91,0.91,-0.94,-1.51,-0.80,-0.78,-0.78
99.26,-1.81,-0.97,-1.71,-0.88,0.88,-0.96,-1.57,-0.93,-0.84,-0.84
100.25,-1.87,-0.98,-1.72,-0.82,0.82,-0.99,-1.62,-1.05,-0.89,-0.89
101.25,-1.81,-0.86,-1.69,-0.74,0.74,-1.02,-1.68,-1.07,-0.95,-0.95
102.27,-1.68,-0.67,-1.64,-0.63,0.63,-1.05,-1.73,-1.05,-1.01,-1.01
103.29,-1.54,-0.47,-1.56,-0.49,0.49,-1.08,-1.79,-1.05,-1.07,-1.08
104.32,-1.43,-0.31,-1.46,-0.33,0.33,-1.11,-1.85,-1.10,-1.13,-1.12
105.37,-1.33,-0.15,-1.34,-0.15,0.15,-1.14,-1.90,-1.18,-1.19,-1.18
106.42,-1.18,0.06,-1.21,0.04,-0.04,-1.17,-1.96,-1.22,-1.25,-1.24
107.48,-0.99,0.32,-1.07,0.25,-0.25,-1.20,-2.01,-1.24,-1.31,-1.31
108.56,-0.82,0.55,-0.90,0.48,-0.48,-1.24,-2.07,-1.30,-1.37,-1.38
109.64,-0.72,0.71,-0.72,0.72,-0.72,-1.27,-2.12,-1.44,-1.44,-1.43
110.74,-0.60,0.90,-0.53,0.97,-0.97,-1.31,-2.17,-1.57,-1.50,-1.50
111.85,-0.38,1.17,-0.34,1.22,-1.22,-1.35,-2.22,-1.60,-1.56,-1.55
112.97,-0.16,1.46,-0.16,1.46,-1.46,-1.39,-2.27,-1.62,-1.62,-1.62
114.10,-0.03,1.65,0.01,1.69,-1.69,-1.43,-2.32,-1.72,-1.68,-1.68
115.24,0.12,1.86,0.17,1.91,-1.91,-1.47,-2.36,-1.79,-1.73,-1.74
116.39,0.30,2.10,0.33,2.12,-2.12,-1.51,-2.41,-1.82,-1.79,-1.80
117.55,0.48,2.33,0.48,2.32,-2.32,-1.56,-2.45,-1.84,-1.84,-1.85
118.73,0.74,2.64,0.61,2.50,-2.50,-1.61,-2.49,-1.76,-1.89,-1.90
119.92,0.94,2.88,0.73,2.67,-2.67,-1.65,-2.52,-1.73,-1.94,-1.94
121.12,0.91,2.90,0.84,2.83,-2.83,-1.70,-2.56,-1.92,-1.99,-1.99
122.33,0.99,3.02,0.94,2.97,-2.97,-1.75,-2.59,-1.98,-2.03,-2.03
123.55,1.02,3.09,1.01,3.09,-3.09,-1.81,-2.61,-2.07,-2.07,-2.07
124.79,1.01,3.12,1.07,3.19,-3.19,-1.86,-2.64,-2.18,-2.11,-2.11
126.03,1.01,3.16,1.11,3.27,-3.27,-1.92,-2.66,-2.26,-2.15,-2.15
127.29,1.11,3.29,1.14,3.34,-3.34,-1.98,-2.68,-2.23,-2.19,-2.18
128.57,1.17,3.40,1.16,3.39,-3.39,-2.04,-2.69,-2.22,-2.23,-2.23
129.85,1.17,3.44,1.16,3.43,-3.43,-2.10,-2.71,-2.26,-2.27,-2.27
131.15,1.18,3.49,1.15,3.46,-3.46,-2.17,-2.72,-2.28,-2.31,-2.31
132.46,1.19,3.53,1.13,3.48,-3.48,-2.23,-2.72,-2.29,-2.34,-2.35
133.79,1.13,3.51,1.12,3.50,-3.50,-2.30,-2.73,-2.37,-2.38,-2.38
135.12,1.09,3.52,1.11,3.53,-3.53,-2.37,-2.73,-2.44,-2.42,-2.43
136.48,1.09,3.54,1.09,3.55,-3.55,-2.45,-2.73,-2.46,-2.45,-2.45
137.84,1.04,3.54,1.08,3.57,-3.57,-2.52,-2.74,-2.53,-2.49,-2.50
139.22,1.01,3.55,1.06,3.59,-3.59,-2.60,-2.73,-2.58,-2.53,-2.54
140.61,1.00,3.58,1.03,3.60,-3.60,-2.68,-2.73,-2.60,-2.57,-2.58
142.02,1.00,3.60,1.00,3.61,-3.61,-2.76,-2.73,-2.61,-2.61,-2.60
143.44,0.93,3.57,0.98,3.63,-3.63,-2.84,-2.72,-2.70,-2.65,-2.64
144.87,0.89,3.58,0.94,3.64,-3.64,-2.93,-2.72,-2.75,-2.70,-2.69
146.32,0.90,3.64,0.90,3.65,-3.65,-3.02,-2.72,-2.75,-2.75,-2.74
147.78,0.90,3.68,0.84,3.65,-3.65,-3.11,-2.71,-2.75,-2.81,-2.78
149.26,0.86,3.69,0.77,3.64,-3.64,-3.20,-2.71,-2.78,-2.87,-2.84
150.75,0.75,3.66,0.68,3.62,-3.62,-3.29,-2.70,-2.87,-2.93,-2.91
152.26,0.70,3.68,0.58,3.59,-3.59,-3.39,-2.70,-2.89,-3.00,-2.99
153.78,0.64,3.70,0.48,3.56,-3.56,-3.48,-2.70,-2.92,-3.08,-3.06
155.32,0.55,3.69,0.40,3.55,-3.55,-3.58,-2.70,-3.00,-3.15,-3.14
156.88,0.41,3.63,0.33,3.56,-3.56,-3.68,-2.70,-3.15,-3.23,-3.22
158.44,0.26,3.57,0.27,3.58,-3.58,-3.78,-2.70,-3.32,-3.31,-3.31
160.03,0.08,3.48,0.24,3.62,-3.62,-3.87,-2.70,-3.54,-3.39,-3.40
161.63,-0.04,3.44,0.22,3.68,-3.68,-3.97,-2.71,-3.72,-3.46,-3.48
163.24,-0.07,3.48,0.22,3.74,-3.74,-4.07,-2.71,-3.82,-3.53,-3.55
164.88,-0.06,3.54,0.24,3.83,-3.83,-4.16,-2.72,-3.89,-3.59,-3.61
166.53,0.07,3.73,0.28,3.92,-3.92,-4.26,-2.73,-3.86,-3.64,-3.66
168.19,0.27,3.98,0.34,4.03,-4.03,-4.35,-2.75,-3.76,-3.69,-3.71
169.87,0.52,4.27,0.40,4.13,-4.13,-4.44,-2.76,-3.61,-3.73,-3.75
171.57,0.70,4.47,0.48,4.24,-4.24,-4.52,-2.78,-3.54,-3.76,-3.77
173.29,0.77,4.56,0.56,4.35,-4.35,-4.60,-2.80,-3.58,-3.78,-3.80
175.02,0.81,4.61,0.65,4.45,-4.45,-4.68,-2.82,-3.64,-3.80,-3.81
176.77,0.85,4.68,0.72,4.54,-4.54,-4.75,-2.84,-3.69,-3.82,-3.83
178.54,0.85,4.68,0.78,4.61,-4.61,-4.82,-2.86,-3.77,-3.83,-3.84
180.32,0.86,4.69,0.82,4.66,-4.66,-4.87,-2.89,-3.81,-3.84,-3.83
182.13,0.85,4.68,0.83,4.69,-4.69,-4.92,-2.92,-3.84,-3.86,-3.83
183.95,0.81,4.66,0.82,4.69,-4.69,-4.97,-2.95,-3.88,-3.87,-3.85
185.79,0.77,4.62,0.79,4.67,-4.67,-5.00,-2.99,-3.90,-3.88,-3.86
187.65,0.71,4.59,0.74,4.64,-4.64,-5.03,-3.02,-3.93,-3.89,-3.88
189.52,0.71,4.60,0.70,4.60,-4.60,-5.04,-3.06,-3.89,-3.91,-3.90
191.42,0.66,4.58,0.66,4.58,-4.58,-5.05,-3.10,-3.92,-3.92,-3.92
193.33,0.57,4.51,0.63,4.57,-4.57,-5.05,-3.14,-4.00,-3.94,-3.94
195.27,0.55,4.51,0.60,4.57,-4.57,-5.04,-3.19,-4.02,-3.96,-3.96
197.22,0.55,4.53,0.58,4.57,-4.57,-5.02,-3.23,-4.02,-3.99,-3.99
199.19,0.50,4.52,0.57,4.58,-4.58,-5.00,-3.28,-4.08,-4.01,-4.02
201.18,0.49,4.53,0.56,4.60,-4.60,-4.96,-3.33,-4.11,-4.03,-4.04
203.19,0.49,4.55,0.56,4.62,-4.62,-4.92,-3.37,-4.13,-4.06,-4.06
205.23,0.55,4.63,0.55,4.63,-4.63,-4.87,-3.42,-4.09,-4.08,-4.09
207.28,0.59,4.68,0.55,4.66,-4.66,-4.81,-3.47,-4.07,-4.11,-4.09
209.35,0.59,4.71,0.55,4.68,-4.68,-4.75,-3.52,-4.09,-4.13,-4.12
211.44,0.59,4.75,0.54,4.69,-4.69,-4.69,-3.57,-4.10,-4.15,-4.16
213.56,0.59,4.76,0.52,4.69,-4.69,-4.62,-3.62,-4.10,-4.17,-4.17
215.69,0.58,4.76,0.51,4.69,-4.69,-4.54,-3.67,-4.11,-4.18,-4.18
217.85,0.48,4.68,0.48,4.68,-4.68,-4.47,-3.72,-4.20,-4.20,-4.20
220.03,0.48,4.69,0.44,4.66,-4.66,-4.39,-3.77,-4.18,-4.21,-4.21
222.23,0.45,4.69,0.40,4.62,-4.62,-4.30,-3.81,-4.18,-4.22,-4.24
224.45,0.31,4.54,0.36,4.58,-4.58,-4.22,-3.86,-4.27,-4.23,-4.23
226.70,0.27,4.50,0.30,4.53,-4.53,-4.14,-3.90,-4.26,-4.23,-4.24
228.96,0.29,4.52,0.24,4.47,-4.47,-4.05,-3.94,-4.18,-4.23,-4.23
231.25,0.13,4.35,0.18,4.40,-4.40,-3.97,-3.97,-4.27,-4.22,-4.22
233.57,0.07,4.28,0.12,4.33,-4.33,-3.88,-4.00,-4.26,-4.21,-4.21
235.90,0.06,4.26,0.07,4.27,-4.27,-3.80,-4.03,-4.21,-4.20,-4.21
238.26,0.01,4.20,0.01,4.20,-4.20,-3.72,-4.05,-4.19,-4.19,-4.20
240.64,-0.05,4.13,-0.04,4.13,-4.13,-3.64,-4.07,-4.18,-4.17,-4.18
243.05,-0.09,4.06,-0.08,4.07,-4.07,-3.56,-4.09,-4.16,-4.15,-4.15
245.48,-0.12,4.01,-0.13,4.00,-4.00,-3.48,-4.10,-4.12,-4.13,-4.13
247.93,-0.17,3.93,-0.17,3.94,-3.94,-3.40,-4.10,-4.11,-4.11,-4.10
250.41,-0.23,3.86,-0.20,3.88,-3.88,-3.33,-4.10,-4.12,-4.09,-4.09
252.92,-0.31,3.74,-0.25,3.82,-3.82,-3.26,-4.10,-4.13,-4.07,-4.06
255.45,-0.27,3.76,-0.30,3.75,-3.75,-3.19,-4.09,-4.02,-4.04,-4.04
258.00,-0.26,3.75,-0.34,3.68,-3.68,-3.12,-4.07,-3.95,-4.02,-4.01
260.58,-0.39,3.61,-0.38,3.61,-3.61,-3.06,-4.05,-4.01,-4.00,-4.00
263.19,-0.44,3.53,-0.44,3.53,-3.53,-2.99,-4.02,-3.97,-3.97,-3.97
265.82,-0.41,3.55,-0.50,3.45,-3.45,-2.93,-4.00,-3.86,-3.95,-3.96
268.48,-0.58,3.35,-0.56,3.37,-3.37,-2.87,-3.96,-3.95,-3.93,-3.93
271.16,-0.66,3.24,-0.63,3.28,-3.28,-2.82,-3.92,-3.94,-3.90,-3.90
273.87,-0.62,3.27,-0.70,3.18,-3.18,-2.76,-3.88,-3.81,-3.88,-3.89
276.61,-0.75,3.10,-0.77,3.09,-3.09,-2.71,-3.84,-3.84,-3.86,-3.85
279.38,-0.90,2.93,-0.84,2.99,-2.99,-2.66,-3.79,-3.89,-3.83,-3.83
282.17,-0.95,2.86,-0.91,2.89,-2.89,-2.62,-3.74,-3.84,-3.81,-3.81
284.99,-0.97,2.80,-0.99,2.79,-2.79,-2.57,-3.69,-3.76,-3.78,-3.77
287.84,-1.07,2.69,-1.07,2.68,-2.68,-2.53,-3.64,-3.75,-3.75,-3.76
290.72,-1.23,2.49,-1.14,2.58,-2.58,-2.49,-3.59,-3.81,-3.72,-3.72
293.63,-1.20,2.50,-1.22,2.48,-2.48,-2.45,-3.53,-3.68,-3.69,-3.70
296.57,-1.27,2.39,-1.29,2.38,-2.38,-2.41,-3.47,-3.65,-3.67,-3.66
299.53,-1.36,2.28,-1.36,2.28,-2.28,-2.38,-3.42,-3.64,-3.64,-3.64
302.53,-1.45,2.17,-1.44,2.18,-2.18,-2.34,-3.36,-3.63,-3.61,-3.62
305.55,-1.49,2.09,-1.52,2.07,-2.07,-2.31,-3.31,-3.56,-3.59,-3.58
308.61,-1.53,2.03,-1.60,1.96,-1.96,-2.28,-3.25,-3.50,-3.57,-3.56
311.69,-1.64,1.90,-1.68,1.86,-1.86,-2.26,-3.20,-3.50,-3.54,-3.54
314.81,-1.76,1.75,-1.77,1.76,-1.76,-2.23,-3.14,-3.52,-3.52,-3.51
317.96,-1.83,1.66,-1.85,1.65,-1.65,-2.21,-3.09,-3.48,-3.50,-3.49
321.14,-1.90,1.59,-1.93,1.56,-1.56,-2.18,-3.04,-3.46,-3.48,-3.49
324.35,-1.96,1.51,-2.00,1.47,-1.47,-2.16,-2.99,-3.43,-3.47,-3.47
327.59,-2.08,1.37,-2.08,1.38,-1.38,-2.14,-2.94,-3.46,-3.45,-3.46
330.87,-2.19,1.26,-2.14,1.31,-1.31,-2.13,-2.89,-3.50,-3.44,-3.45
334.18,-2.26,1.17,-2.19,1.24,-1.24,-2.11,-2.85,-3.51,-3.43,-3.43
337.52,-2.27,1.15,-2.22,1.20,-1.20,-2.09,-2.81,-3.47,-3.42,-3.42
340.90,-2.27,1.14,-2.25,1.17,-1.17,-2.08,-2.77,-3.44,-3.41,-3.41
344.30,-2.27,1.13,-2.26,1.15,-1.15,-2.07,-2.73,-3.42,-3.41,-3.40
347.75,-2.27,1.13,-2.24,1.16,-1.16,-2.06,-2.69,-3.43,-3.40,-3.40
351.23,-2.27,1.12,-2.22,1.18,-1.18,-2.05,-2.65,-3.45,-3.40,-3.40
354.74,-2.22,1.18,-2.18,1.21,-1.21,-2.04,-2.62,-3.43,-3.39,-3.40
358.28,-2.16,1.23,-2.14,1.25,-1.25,-2.03,-2.59,-3.41,-3.39,-3.39
361.87,-2.08,1.31,-2.09,1.30,-1.30,-2.03,-2.56,-3.38,-3.39,-3.39
365.49,-2.02,1.36,-2.04,1.35,-1.35,-2.02,-2.53,-3.38,-3.39,-3.39
369.14,-1.95,1.45,-1.98,1.41,-1.41,-2.02,-2.51,-3.37,-3.39,-3.40
372.83,-1.86,1.54,-1.92,1.47,-1.47,-2.01,-2.48,-3.34,-3.39,-3.40
376.56,-1.80,1.60,-1.86,1.54,-1.54,-2.01,-2.46,-3.34,-3.40,-3.40
380.33,-1.73,1.66,-1.80,1.60,-1.60,-2.01,-2.44,-3.33,-3.40,-3.39
384.13,-1.71,1.68,-1.75,1.66,-1.66,-2.01,-2.42,-3.37,-3.40,-3.40
387.97,-1.71,1.70,-1.70,1.71,-1.71,-2.01,-2.41,-3.42,-3.41,-3.41
391.85,-1.70,1.72,-1.65,1.76,-1.76,-2.01,-2.39,-3.47,-3.41,-3.42
395.77,-1.65,1.76,-1.61,1.81,-1.81,-2.02,-2.38,-3.46,-3.42,-3.41
399.73,-1.60,1.82,-1.57,1.86,-1.86,-2.02,-2.37,-3.46,-3.43,-3.42
403.72,-1.53,1.89,-1.54,1.90,-1.90,-2.03,-2.36,-3.43,-3.43,-3.42
407.76,-1.47,1.96,-1.50,1.93,-1.93,-2.03,-2.35,-3.41,-3.44,-3.43
411.84,-1.42,2.01,-1.47,1.97,-1.97,-2.04,-2.35,-3.39,-3.44,-3.44
415.96,-1.41,2.03,-1.44,2.00,-2.00,-2.04,-2.34,-3.41,-3.44,-3.44
420.12,-1.41,2.03,-1.40,2.04,-2.04,-2.05,-2.34,-3.45,-3.44,-3.44
424.32,-1.39,2.05,-1.37,2.07,-2.07,-2.06,-2.33,-3.46,-3.43,-3.44
428.56,-1.32,2.11,-1.32,2.10,-2.10,-2.07,-2.33,-3.42,-3.42,-3.43
432.85,-1.28,2.14,-1.28,2.13,-2.13,-2.08,-2.33,-3.41,-3.41,-3.42
437.18,-1.25,2.16,-1.24,2.15,-2.15,-2.09,-2.33,-3.40,-3.39,-3.41
441.55,-1.22,2.15,-1.20,2.17,-2.17,-2.10,-2.33,-3.39,-3.36,-3.37
445.96,-1.17,2.17,-1.16,2.17,-2.17,-2.12,-2.33,-3.34,-3.33,-3.35
450.42,-1.12,2.19,-1.12,2.18,-2.18,-2.13,-2.33,-3.30,-3.30,-3.32
454.93,-1.06,2.21,-1.07,2.19,-2.19,-2.14,-2.33,-3.25,-3.26,-3.27
459.48,-1.00,2.22,-1.01,2.20,-2.20,-2.16,-2.33,-3.20,-3.21,-3.22
464.07,-0.94,2.23,-0.95,2.22,-2.22,-2.17,-2.33,-3.16,-3.17,-3.17
468.71,-0.89,2.22,-0.89,2.23,-2.23,-2.19,-2.33,-3.12,-3.12,-3.11
473.40,-0.82,2.25,-0.83,2.24,-2.24,-2.20,-2.33,-3.06,-3.07,-3.07
478.13,-0.77,2.24,-0.76,2.26,-2.26,-2.22,-2.33,-3.03,-3.02,-3.01
482.91,-0.72,2.25,-0.69,2.28,-2.28,-2.24,-2.33,-3.01,-2.98,-2.97
