frequency,raw,error,smoothed,error_smoothed,equalization,parametric_eq,fixed_band_eq,equalized_raw,equalized_smoothed,target
20.00,7.18,-6.83,7.18,-6.84,6.84,6.55,1.82,14.02,14.02,14.01
20.20,7.26,-6.74,7.26,-6.74,6.74,6.51,1.88,14.01,14.00,14.00
20.40,7.33,-6.66,7.34,-6.65,6.65,6.46,1.93,13.99,13.99,13.99
20.61,7.41,-6.57,7.41,-6.56,6.56,6.41,1.99,13.98,13.98,13.98
20.81,7.49,-6.47,7.49,-6.47,6.47,6.36,2.05,13.97,13.97,13.96
21.02,7.57,-6.38,7.57,-6.39,6.39,6.31,2.11,13.96,13.96,13.95
21.23,7.64,-6.30,7.65,-6.30,6.30,6.25,2.18,13.94,13.95,13.94
21.44,7.72,-6.22,7.73,-6.21,6.21,6.20,2.24,13.93,13.94,13.95
21.66,7.80,-6.13,7.80,-6.12,6.12,6.14,2.31,13.93,13.93,13.93
21.87,7.88,-6.04,7.88,-6.04,6.04,6.08,2.38,13.92,13.92,13.93
22.09,7.95,-5.95,7.96,-5.95,5.95,6.02,2.45,13.91,13.91,13.91
22.31,8.03,-5.87,8.04,-5.87,5.87,5.96,2.53,13.90,13.90,13.90
22.54,8.11,-5.78,8.11,-5.78,5.78,5.89,2.60,13.89,13.90,13.89
22.76,8.19,-5.70,8.19,-5.70,5.70,5.83,2.68,13.89,13.89,13.89
22.99,8.27,-5.61,8.27,-5.61,5.61,5.77,2.76,13.89,13.88,13.88
23.22,8.34,-5.53,8.35,-5.53,5.53,5.70,2.84,13.87,13.88,13.87
23.45,8.42,-5.46,8.42,-5.45,5.45,5.63,2.92,13.87,13.87,13.88
23.69,8.50,-5.37,8.50,-5.37,5.37,5.57,3.01,13.87,13.87,13.87
23.92,8.58,-5.27,8.58,-5.29,5.29,5.50,3.09,13.87,13.86,13.86
24.16,8.65,-5.21,8.65,-5.21,5.21,5.43,3.18,13.86,13.86,13.86
24.40,8.73,-5.13,8.73,-5.13,5.13,5.36,3.27,13.86,13.86,13.86
24.65,8.80,-5.06,8.81,-5.05,5.05,5.29,3.36,13.85,13.86,13.86
24.89,8.88,-4.98,8.88,-4.97,4.97,5.22,3.45,13.86,13.85,13.86
25.14,8.95,-4.89,8.96,-4.90,4.90,5.15,3.54,13.85,13.85,13.85
25.39,9.03,-4.81,9.03,-4.82,4.82,5.07,3.63,13.85,13.85,13.85
25.65,9.10,-4.74,9.10,-4.74,4.74,5.00,3.72,13.85,13.85,13.84
25.91,9.17,-4.67,9.18,-4.67,4.67,4.93,3.82,13.84,13.85,13.84
26.16,9.25,-4.60,9.25,-4.59,4.59,4.86,3.91,13.85,13.84,13.85
26.43,9.32,-4.53,9.32,-4.52,4.52,4.78,4.00,13.84,13.84,13.85
26.69,9.39,-4.45,9.40,-4.45,4.45,4.71,4.09,13.84,13.84,13.85
26.96,9.47,-4.37,9.47,-4.37,4.37,4.64,4.17,13.85,13.84,13.84
27.23,9.54,-4.30,9.54,-4.30,4.30,4.56,4.26,13.85,13.85,13.84
27.50,9.61,-4.23,9.61,-4.23,4.23,4.49,4.34,13.85,13.85,13.84
27.77,9.68,-4.16,9.68,-4.16,4.16,4.41,4.41,13.85,13.85,13.85
28.05,9.75,-4.09,9.75,-4.09,4.09,4.34,4.49,13.85,13.85,13.84
28.33,9.82,-4.03,9.82,-4.03,4.03,4.27,4.56,13.85,13.85,13.85
28.62,9.89,-3.96,9.89,-3.96,3.96,4.19,4.62,13.85,13.85,13.85
28.90,9.96,-3.89,9.96,-3.89,3.89,4.12,4.68,13.85,13.85,13.86
29.19,10.02,-3.83,10.02,-3.82,3.82,4.05,4.73,13.85,13.85,13.85
29.48,10.09,-3.76,10.09,-3.76,3.76,3.97,4.77,13.85,13.84,13.85
29.78,10.15,-3.69,10.15,-3.69,3.69,3.90,4.80,13.84,13.84,13.85
30.08,10.21,-3.63,10.21,-3.63,3.63,3.83,4.83,13.84,13.84,13.84
30.38,10.27,-3.56,10.27,-3.56,3.56,3.75,4.85,13.83,13.83,13.83
30.68,10.33,-3.49,10.33,-3.50,3.50,3.68,4.86,13.83,13.83,13.82
30.99,10.39,-3.43,10.39,-3.43,3.43,3.61,4.86,13.83,13.82,13.82
31.30,10.44,-3.37,10.44,-3.37,3.37,3.54,4.85,13.81,13.82,13.82
31.61,10.49,-3.32,10.50,-3.31,3.31,3.46,4.83,13.80,13.81,13.81
31.93,10.55,-3.24,10.55,-3.25,3.25,3.39,4.80,13.80,13.80,13.79
32.24,10.60,-3.19,10.60,-3.19,3.19,3.32,4.77,13.79,13.79,13.79
32.57,10.65,-3.13,10.65,-3.13,3.13,3.25,4.72,13.78,13.78,13.78
32.89,10.70,-3.07,10.70,-3.07,3.07,3.18,4.67,13.77,13.78,13.77
33.22,10.75,-3.02,10.75,-3.01,3.01,3.11,4.61,13.77,13.77,13.77
33.55,10.80,-2.96,10.80,-2.96,2.96,3.04,4.54,13.76,13.76,13.76
33.89,10.85,-2.90,10.85,-2.90,2.90,2.96,4.46,13.75,13.75,13.75
34.23,10.90,-2.83,10.90,-2.84,2.84,2.89,4.38,13.75,13.74,13.73
34.57,10.94,-2.78,10.94,-2.79,2.79,2.83,4.29,13.73,13.73,13.73
34.92,10.99,-2.72,10.99,-2.73,2.73,2.76,4.20,13.72,13.72,13.71
35.27,11.03,-2.69,11.04,-2.67,2.67,2.69,4.10,13.70,13.71,13.72
35.62,11.07,-2.62,11.08,-2.61,2.61,2.62,3.99,13.69,13.70,13.70
35.97,11.12,-2.57,11.13,-2.55,2.55,2.55,3.89,13.68,13.68,13.69
36.33,11.16,-2.51,11.17,-2.50,2.50,2.48,3.78,13.66,13.66,13.67
36.70,11.21,-2.43,11.21,-2.44,2.44,2.41,3.67,13.65,13.65,13.65
37.06,11.26,-2.36,11.25,-2.38,2.38,2.35,3.55,13.64,13.63,13.63
37.43,11.29,-2.32,11.29,-2.32,2.32,2.28,3.44,13.61,13.61,13.61
37.81,11.33,-2.26,11.33,-2.26,2.26,2.21,3.32,13.59,13.59,13.59
38.19,11.37,-2.19,11.37,-2.20,2.20,2.15,3.21,13.57,13.57,13.56
38.57,11.41,-2.13,11.41,-2.14,2.14,2.08,3.09,13.55,13.54,13.54
38.95,11.45,-2.07,11.44,-2.08,2.08,2.01,2.97,13.53,13.52,13.52
39.34,11.48,-2.01,11.48,-2.02,2.02,1.95,2.85,13.50,13.49,13.49
39.74,11.51,-1.95,11.51,-1.96,1.96,1.88,2.74,13.47,13.47,13.46
40.14,11.54,-1.90,11.55,-1.90,1.90,1.82,2.62,13.44,13.45,13.44
40.54,11.57,-1.85,11.58,-1.84,1.84,1.75,2.50,13.41,13.42,13.42
40.94,11.61,-1.78,11.61,-1.79,1.79,1.69,2.39,13.40,13.40,13.39
41.35,11.64,-1.73,11.64,-1.73,1.73,1.62,2.28,13.37,13.37,13.37
41.76,11.67,-1.66,11.68,-1.67,1.67,1.56,2.16,13.34,13.35,13.34
42.18,11.70,-1.62,11.71,-1.61,1.61,1.50,2.05,13.31,13.32,13.32
42.60,11.74,-1.55,11.74,-1.55,1.55,1.43,1.94,13.29,13.29,13.29
43.03,11.77,-1.50,11.77,-1.49,1.49,1.37,1.83,13.27,13.27,13.27
43.46,11.80,-1.43,11.81,-1.43,1.43,1.31,1.72,13.23,13.24,13.23
43.90,11.83,-1.38,11.84,-1.37,1.37,1.24,1.62,13.20,13.21,13.21
44.33,11.87,-1.30,11.87,-1.31,1.31,1.18,1.51,13.18,13.18,13.17
44.78,11.90,-1.25,11.90,-1.24,1.24,1.12,1.41,13.15,13.15,13.15
45.23,11.94,-1.18,11.94,-1.18,1.18,1.06,1.31,13.12,13.11,13.12
45.68,11.97,-1.10,11.97,-1.11,1.11,0.99,1.20,13.08,13.08,13.08
46.13,12.00,-1.04,12.00,-1.04,1.04,0.93,1.10,13.04,13.04,13.04
46.60,12.02,-0.98,12.03,-0.97,0.97,0.87,1.00,12.99,13.00,13.00
47.06,12.04,-0.92,12.06,-0.90,0.90,0.81,0.91,12.94,12.96,12.96
47.53,12.08,-0.84,12.08,-0.83,0.83,0.75,0.81,12.91,12.91,12.92
48.01,12.11,-0.75,12.11,-0.76,0.76,0.69,0.72,12.87,12.87,12.86
48.49,12.13,-0.69,12.13,-0.69,0.69,0.63,0.62,12.82,12.82,12.82
48.97,12.16,-0.61,12.16,-0.62,0.62,0.57,0.53,12.78,12.78,12.77
49.46,12.18,-0.55,12.18,-0.56,0.56,0.51,0.44,12.74,12.73,12.73
49.96,12.20,-0.46,12.19,-0.49,0.49,0.45,0.34,12.69,12.68,12.67
50.46,12.21,-0.42,12.21,-0.42,0.42,0.39,0.26,12.64,12.64,12.63
50.96,12.23,-0.36,12.23,-0.36,0.36,0.33,0.17,12.59,12.59,12.59
51.47,12.24,-0.30,12.24,-0.30,0.30,0.27,0.08,12.54,12.54,12.54
51.99,12.26,-0.23,12.26,-0.24,0.24,0.21,-0.01,12.50,12.50,12.49
52.51,12.27,-0.18,12.27,-0.18,0.18,0.15,-0.09,12.45,12.45,12.45
53.03,12.28,-0.13,12.28,-0.12,0.12,0.09,-0.18,12.40,12.40,12.41
53.56,12.29,-0.07,12.30,-0.06,0.06,0.03,-0.26,12.35,12.35,12.36
54.10,12.30,-0.00,12.31,0.00,-0.00,-0.03,-0.34,12.30,12.31,12.30
54.64,12.31,0.05,12.32,0.06,-0.06,-0.09,-0.42,12.26,12.26,12.26
55.18,12.33,0.12,12.33,0.11,-0.11,-0.15,-0.50,12.22,12.22,12.21
55.74,12.34,0.18,12.35,0.17,-0.17,-0.21,-0.57,12.17,12.18,12.16
56.29,12.36,0.24,12.36,0.23,-0.23,-0.27,-0.65,12.13,12.13,12.13
56.86,12.38,0.30,12.37,0.29,-0.29,-0.33,-0.72,12.09,12.08,12.08
57.42,12.39,0.37,12.39,0.35,-0.35,-0.39,-0.79,12.04,12.04,12.03
58.00,12.41,0.43,12.40,0.42,-0.42,-0.45,-0.86,12.00,11.99,11.98
58.58,12.42,0.48,12.42,0.48,-0.48,-0.51,-0.93,11.94,11.94,11.94
59.16,12.43,0.53,12.44,0.55,-0.55,-0.57,-0.99,11.88,11.88,11.90
59.76,12.45,0.60,12.45,0.62,-0.62,-0.63,-1.06,11.83,11.83,11.85
60.35,12.46,0.67,12.47,0.70,-0.70,-0.69,-1.12,11.77,11.77,11.79
60.96,12.48,0.75,12.49,0.77,-0.77,-0.74,-1.18,11.71,11.72,11.73
61.57,12.50,0.85,12.51,0.85,-0.85,-0.80,-1.24,11.65,11.66,11.66
62.18,12.52,0.93,12.53,0.93,-0.93,-0.86,-1.29,11.60,11.60,11.59
62.80,12.54,1.02,12.54,1.01,-1.01,-0.92,-1.35,11.54,11.54,11.53
63.43,12.56,1.10,12.56,1.09,-1.09,-0.98,-1.40,11.47,11.48,11.46
64.07,12.58,1.18,12.58,1.17,-1.17,-1.04,-1.45,11.41,11.41,11.40
64.71,12.60,1.26,12.60,1.25,-1.25,-1.10,-1.50,11.35,11.35,11.34
65.35,12.62,1.34,12.62,1.33,-1.33,-1.16,-1.54,11.29,11.28,11.28
66.01,12.63,1.41,12.63,1.41,-1.41,-1.22,-1.59,11.22,11.22,11.22
66.67,12.64,1.48,12.64,1.49,-1.49,-1.28,-1.63,11.16,11.16,11.17
67.33,12.66,1.57,12.65,1.56,-1.56,-1.34,-1.68,11.10,11.09,11.09
68.01,12.67,1.64,12.66,1.63,-1.63,-1.40,-1.72,11.04,11.03,11.04
68.69,12.68,1.71,12.67,1.70,-1.70,-1.46,-1.76,10.98,10.96,10.97
69.37,12.68,1.77,12.67,1.77,-1.77,-1.52,-1.80,10.91,10.90,10.91
70.07,12.68,1.84,12.67,1.84,-1.84,-1.58,-1.84,10.85,10.83,10.84
70.77,12.66,1.89,12.67,1.90,-1.90,-1.64,-1.88,10.76,10.77,10.77
71.48,12.66,1.96,12.67,1.97,-1.97,-1.70,-1.91,10.69,10.70,10.71
72.19,12.65,2.02,12.67,2.03,-2.03,-1.76,-1.95,10.62,10.63,10.63
72.91,12.65,2.09,12.66,2.10,-2.10,-1.82,-1.99,10.56,10.57,10.56
73.64,12.65,2.16,12.66,2.16,-2.16,-1.88,-2.03,10.49,10.50,10.49
74.38,12.65,2.23,12.66,2.22,-2.22,-1.94,-2.07,10.43,10.43,10.42
75.12,12.65,2.29,12.65,2.28,-2.28,-2.01,-2.11,10.37,10.37,10.36
75.87,12.65,2.35,12.65,2.35,-2.35,-2.07,-2.15,10.31,10.30,10.30
76.63,12.65,2.42,12.65,2.41,-2.41,-2.13,-2.20,10.24,10.24,10.23
77.40,12.65,2.47,12.65,2.48,-2.48,-2.19,-2.24,10.18,10.18,10.18
78.17,12.65,2.55,12.66,2.54,-2.54,-2.25,-2.29,10.11,10.12,10.11
78.95,12.65,2.59,12.66,2.61,-2.61,-2.31,-2.33,10.05,10.06,10.06
79.74,12.65,2.66,12.67,2.67,-2.67,-2.38,-2.38,9.98,9.99,10.00
80.54,12.66,2.72,12.67,2.74,-2.74,-2.44,-2.43,9.93,9.93,9.94
81.35,12.66,2.79,12.67,2.80,-2.80,-2.50,-2.48,9.86,9.87,9.87
82.16,12.67,2.85,12.67,2.86,-2.86,-2.56,-2.53,9.81,9.81,9.82
82.98,12.67,2.92,12.67,2.92,-2.92,-2.62,-2.59,9.75,9.75,9.75
83.81,12.68,3.00,12.67,2.98,-2.98,-2.69,-2.65,9.70,9.68,9.69
84.65,12.67,3.06,12.66,3.04,-3.04,-2.75,-2.71,9.63,9.62,9.61
85.50,12.66,3.11,12.65,3.10,-3.10,-2.81,-2.77,9.57,9.55,9.55
86.35,12.64,3.16,12.64,3.15,-3.15,-2.88,-2.83,9.49,9.49,9.48
87.22,12.63,3.21,12.62,3.20,-3.20,-2.94,-2.90,9.43,9.42,9.42
88.09,12.61,3.26,12.60,3.25,-3.25,-3.00,-2.97,9.36,9.35,9.35
88.97,12.58,3.30,12.58,3.29,-3.29,-3.07,-3.04,9.29,9.28,9.28
89.86,12.55,3.34,12.55,3.33,-3.33,-3.13,-3.11,9.22,9.21,9.22
90.76,12.52,3.38,12.52,3.38,-3.38,-3.19,-3.18,9.15,9.14,9.15
91.66,12.49,3.43,12.49,3.42,-3.42,-3.26,-3.26,9.07,9.07,9.07
92.58,12.46,3.46,12.46,3.46,-3.46,-3.32,-3.34,9.00,9.00,9.01
93.51,12.42,3.49,12.43,3.50,-3.50,-3.38,-3.42,8.92,8.93,8.93
94.44,12.40,3.54,12.40,3.55,-3.55,-3.45,-3.51,8.85,8.85,8.86
95.39,12.37,3.59,12.38,3.60,-3.60,-3.51,-3.59,8.77,8.78,8.78
96.34,12.34,3.64,12.36,3.66,-3.66,-3.57,-3.68,8.69,8.71,8.71
97.30,12.32,3.69,12.34,3.71,-3.71,-3.64,-3.77,8.61,8.63,8.63
98.28,12.31,3.76,12.33,3.77,-3.77,-3.70,-3.86,8.54,8.56,8.55
99.26,12.31,3.84,12.32,3.84,-3.84,-3.77,-3.96,8.47,8.48,8.47
100.25,12.30,3.90,12.32,3.91,-3.91,-3.83,-4.05,8.39,8.41,8.40
101.25,12.31,3.98,12.32,3.98,-3.98,-3.89,-4.15,8.33,8.34,8.34
102.27,12.32,4.05,12.32,4.05,-4.05,-3.96,-4.25,8.27,8.27,8.27
103.29,12.33,4.14,12.33,4.13,-4.13,-4.02,-4.34,8.20,8.20,8.20
104.32,12.33,4.20,12.33,4.20,-4.20,-4.08,-4.44,8.13,8.13,8.13
105.37,12.33,4.27,12.33,4.27,-4.27,-4.15,-4.54,8.06,8.06,8.06
106.42,12.34,4.34,12.34,4.34,-4.34,-4.21,-4.64,8.00,7.99,8.00
107.48,12.35,4.43,12.34,4.41,-4.41,-4.27,-4.73,7.94,7.92,7.92
108.56,12.35,4.49,12.33,4.48,-4.48,-4.34,-4.83,7.87,7.85,7.86
109.64,12.34,4.55,12.32,4.54,-4.54,-4.40,-4.92,7.81,7.78,7.79
110.74,12.33,4.61,12.31,4.59,-4.59,-4.46,-5.02,7.74,7.71,7.72
111.85,12.30,4.66,12.29,4.65,-4.65,-4.52,-5.10,7.66,7.64,7.64
112.97,12.27,4.69,12.26,4.69,-4.69,-4.59,-5.19,7.58,7.57,7.58
114.10,12.24,4.74,12.24,4.74,-4.74,-4.65,-5.27,7.50,7.50,7.50
115.24,12.21,4.79,12.21,4.78,-4.78,-4.71,-5.35,7.43,7.43,7.42
116.39,12.18,4.83,12.18,4.83,-4.83,-4.77,-5.43,7.36,7.36,7.35
117.55,12.15,4.88,12.16,4.87,-4.87,-4.83,-5.49,7.28,7.29,7.28
118.73,12.11,4.91,12.13,4.91,-4.91,-4.89,-5.56,7.20,7.22,7.20
119.92,12.07,4.93,12.10,4.96,-4.96,-4.95,-5.61,7.12,7.15,7.14
121.12,12.05,4.97,12.08,5.00,-5.00,-5.01,-5.67,7.05,7.08,7.08
122.33,12.04,5.03,12.06,5.05,-5.05,-5.07,-5.71,7.00,7.01,7.01
123.55,12.02,5.07,12.04,5.09,-5.09,-5.13,-5.75,6.93,6.94,6.95
124.79,12.01,5.13,12.02,5.14,-5.14,-5.18,-5.78,6.87,6.87,6.88
126.03,12.00,5.19,12.00,5.19,-5.19,-5.24,-5.80,6.81,6.81,6.81
127.29,11.99,5.25,11.98,5.24,-5.24,-5.30,-5.82,6.75,6.74,6.75
128.57,11.98,5.31,11.97,5.29,-5.29,-5.35,-5.83,6.69,6.67,6.67
129.85,11.96,5.36,11.95,5.34,-5.34,-5.41,-5.84,6.62,6.60,6.61
131.15,11.93,5.40,11.93,5.39,-5.39,-5.46,-5.84,6.54,6.54,6.53
132.46,11.91,5.44,11.91,5.44,-5.44,-5.51,-5.83,6.48,6.47,6.47
133.79,11.88,5.49,11.88,5.48,-5.48,-5.57,-5.82,6.40,6.40,6.40
135.12,11.85,5.52,11.85,5.52,-5.52,-5.62,-5.80,6.34,6.34,6.34
136.48,11.83,5.56,11.82,5.55,-5.55,-5.67,-5.78,6.28,6.27,6.28
137.84,11.79,5.59,11.79,5.58,-5.58,-5.72,-5.75,6.21,6.21,6.21
139.22,11.77,5.63,11.75,5.61,-5.61,-5.76,-5.72,6.16,6.14,6.14
140.61,11.73,5.65,11.72,5.64,-5.64,-5.81,-5.69,6.09,6.08,6.08
142.02,11.67,5.66,11.69,5.66,-5.66,-5.86,-5.66,6.01,6.02,6.02
143.44,11.64,5.68,11.65,5.69,-5.69,-5.90,-5.62,5.95,5.96,5.96
144.87,11.60,5.69,11.62,5.71,-5.71,-5.94,-5.58,5.89,5.91,5.91
146.32,11.56,5.71,11.59,5.74,-5.74,-5.99,-5.55,5.83,5.85,5.85
147.78,11.53,5.74,11.55,5.76,-5.76,-6.03,-5.51,5.77,5.79,5.80
149.26,11.52,5.78,11.52,5.78,-5.78,-6.07,-5.47,5.74,5.74,5.74
150.75,11.49,5.81,11.48,5.80,-5.80,-6.10,-5.44,5.69,5.68,5.68
152.26,11.47,5.84,11.45,5.82,-5.82,-6.14,-5.40,5.65,5.63,5.63
153.78,11.44,5.86,11.42,5.84,-5.84,-6.18,-5.37,5.60,5.58,5.58
155.32,11.40,5.88,11.39,5.87,-5.87,-6.21,-5.34,5.54,5.52,5.52
156.88,11.35,5.88,11.36,5.89,-5.89,-6.24,-5.31,5.46,5.47,5.47
158.44,11.32,5.91,11.33,5.92,-5.92,-6.27,-5.28,5.40,5.41,5.41
160.03,11.27,5.91,11.30,5.94,-5.94,-6.30,-5.26,5.33,5.35,5.36
161.63,11.24,5.94,11.26,5.96,-5.96,-6.33,-5.24,5.28,5.30,5.30
163.24,11.22,5.98,11.23,5.99,-5.99,-6.35,-5.22,5.23,5.24,5.24
164.88,11.19,6.01,11.20,6.01,-6.01,-6.37,-5.20,5.18,5.19,5.19
166.53,11.17,6.05,11.16,6.03,-6.03,-6.39,-5.19,5.14,5.13,5.12
168.19,11.15,6.07,11.13,6.06,-6.06,-6.41,-5.19,5.09,5.07,5.08
169.87,11.11,6.10,11.10,6.08,-6.08,-6.43,-5.18,5.03,5.02,5.02
171.57,11.08,6.13,11.07,6.11,-6.11,-6.45,-5.18,4.97,4.96,4.95
173.29,11.04,6.14,11.04,6.14,-6.14,-6.46,-5.19,4.90,4.90,4.90
175.02,10.99,6.15,11.01,6.17,-6.17,-6.47,-5.20,4.83,4.84,4.85
176.77,10.95,6.16,10.98,6.19,-6.19,-6.48,-5.21,4.76,4.79,4.79
178.54,10.93,6.20,10.95,6.21,-6.21,-6.49,-5.23,4.72,4.73,4.73
180.32,10.91,6.24,10.91,6.23,-6.23,-6.50,-5.25,4.68,4.68,4.67
182.13,10.89,6.27,10.87,6.25,-6.25,-6.50,-5.27,4.64,4.62,4.62
183.95,10.85,6.28,10.84,6.27,-6.27,-6.50,-5.30,4.58,4.57,4.57
185.79,10.81,6.30,10.80,6.29,-6.29,-6.50,-5.33,4.52,4.51,4.51
187.65,10.78,6.32,10.77,6.31,-6.31,-6.50,-5.37,4.47,4.46,4.46
189.52,10.73,6.32,10.73,6.32,-6.32,-6.49,-5.41,4.41,4.41,4.41
191.42,10.68,6.32,10.70,6.34,-6.34,-6.49,-5.45,4.34,4.36,4.36
193.33,10.64,6.33,10.66,6.35,-6.35,-6.48,-5.50,4.29,4.31,4.32
195.27,10.61,6.35,10.62,6.36,-6.36,-6.47,-5.55,4.25,4.26,4.26
197.22,10.58,6.38,10.58,6.36,-6.36,-6.46,-5.61,4.22,4.22,4.21
199.19,10.54,6.37,10.54,6.36,-6.36,-6.44,-5.66,4.18,4.17,4.17
201.18,10.51,6.39,10.49,6.36,-6.36,-6.43,-5.72,4.15,4.13,4.12
203.19,10.46,6.37,10.45,6.36,-6.36,-6.41,-5.78,4.10,4.09,4.09
205.23,10.41,6.36,10.41,6.36,-6.36,-6.39,-5.84,4.05,4.05,4.06
207.28,10.36,6.35,10.37,6.36,-6.36,-6.37,-5.91,4.01,4.01,4.02
209.35,10.32,6.34,10.33,6.35,-6.35,-6.34,-5.97,3.97,3.97,3.98
211.44,10.27,6.33,10.28,6.34,-6.34,-6.32,-6.04,3.93,3.94,3.94
213.56,10.23,6.32,10.24,6.33,-6.33,-6.29,-6.10,3.90,3.91,3.91
215.69,10.18,6.31,10.19,6.32,-6.32,-6.26,-6.17,3.86,3.87,3.88
217.85,10.13,6.29,10.15,6.31,-6.31,-6.23,-6.23,3.83,3.84,3.84
220.03,10.10,6.30,10.10,6.29,-6.29,-6.20,-6.30,3.81,3.81,3.81
222.23,10.07,6.30,10.05,6.27,-6.27,-6.17,-6.36,3.80,3.78,3.77
224.45,10.01,6.26,10.00,6.25,-6.25,-6.13,-6.41,3.76,3.75,3.75
226.70,9.96,6.24,9.96,6.23,-6.23,-6.09,-6.46,3.73,3.72,3.72
228.96,9.89,6.19,9.90,6.20,-6.20,-6.05,-6.51,3.69,3.70,3.71
231.25,9.85,6.18,9.85,6.17,-6.17,-6.01,-6.56,3.68,3.68,3.68
233.57,9.80,6.15,9.80,6.14,-6.14,-5.97,-6.59,3.66,3.66,3.66
235.90,9.75,6.12,9.75,6.11,-6.11,-5.93,-6.62,3.64,3.64,3.64
238.26,9.70,6.10,9.69,6.07,-6.07,-5.89,-6.65,3.63,3.62,3.61
240.64,9.64,6.03,9.64,6.03,-6.03,-5.84,-6.66,3.61,3.60,3.61
243.05,9.58,5.99,9.58,5.99,-5.99,-5.79,-6.67,3.60,3.59,3.59
245.48,9.52,5.95,9.52,5.94,-5.94,-5.75,-6.67,3.58,3.58,3.57
247.93,9.43,5.87,9.47,5.90,-5.90,-5.70,-6.66,3.54,3.57,3.56
250.41,9.40,5.84,9.41,5.85,-5.85,-5.65,-6.64,3.55,3.56,3.56
252.92,9.35,5.79,9.36,5.80,-5.80,-5.60,-6.61,3.55,3.55,3.56
255.45,9.31,5.77,9.30,5.76,-5.76,-5.55,-6.57,3.56,3.54,3.54
258.00,9.26,5.72,9.25,5.71,-5.71,-5.49,-6.53,3.55,3.54,3.54
260.58,9.18,5.65,9.20,5.66,-5.66,-5.44,-6.47,3.52,3.53,3.54
263.19,9.13,5.60,9.15,5.62,-5.62,-5.38,-6.41,3.51,3.52,3.53
265.82,9.08,5.56,9.10,5.58,-5.58,-5.33,-6.34,3.51,3.52,3.52
268.48,9.05,5.54,9.05,5.53,-5.53,-5.27,-6.26,3.52,3.51,3.52
271.16,9.00,5.49,9.00,5.49,-5.49,-5.22,-6.18,3.51,3.51,3.52
273.87,8.94,5.44,8.95,5.44,-5.44,-5.16,-6.09,3.50,3.50,3.50
276.61,8.89,5.39,8.90,5.40,-5.40,-5.10,-5.99,3.49,3.50,3.50
279.38,8.84,5.36,8.85,5.35,-5.35,-5.04,-5.89,3.49,3.50,3.48
282.17,8.81,5.33,8.80,5.30,-5.30,-4.98,-5.79,3.51,3.49,3.48
284.99,8.77,5.28,8.74,5.25,-5.25,-4.92,-5.68,3.52,3.49,3.49
287.84,8.69,5.20,8.69,5.20,-5.20,-4.86,-5.57,3.49,3.49,3.49
290.72,8.64,5.16,8.64,5.15,-5.15,-4.80,-5.46,3.49,3.49,3.48
293.63,8.57,5.08,8.59,5.09,-5.09,-4.74,-5.34,3.48,3.49,3.49
296.57,8.52,5.03,8.53,5.04,-5.04,-4.68,-5.22,3.49,3.50,3.50
299.53,8.47,4.97,8.48,4.98,-4.98,-4.61,-5.11,3.50,3.50,3.50
302.53,8.41,4.90,8.42,4.92,-4.92,-4.55,-4.99,3.50,3.50,3.51
305.55,8.36,4.86,8.36,4.85,-4.85,-4.49,-4.88,3.51,3.51,3.50
308.61,8.30,4.79,8.30,4.79,-4.79,-4.42,-4.76,3.52,3.51,3.52
311.69,8.24,4.72,8.24,4.72,-4.72,-4.36,-4.65,3.52,3.52,3.52
314.81,8.18,4.66,8.18,4.65,-4.65,-4.30,-4.53,3.53,3.52,3.52
317.96,8.11,4.59,8.11,4.59,-4.59,-4.23,-4.42,3.53,3.53,3.53
321.14,8.05,4.51,8.05,4.52,-4.52,-4.17,-4.31,3.53,3.53,3.54
324.35,7.99,4.46,7.99,4.45,-4.45,-4.10,-4.20,3.55,3.54,3.53
327.59,7.92,4.36,7.92,4.37,-4.37,-4.04,-4.10,3.55,3.55,3.56
330.87,7.85,4.30,7.85,4.30,-4.30,-3.97,-3.99,3.55,3.55,3.55
334.18,7.77,4.22,7.78,4.22,-4.22,-3.91,-3.89,3.55,3.56,3.56
337.52,7.70,4.14,7.71,4.14,-4.14,-3.84,-3.79,3.56,3.57,3.56
340.90,7.65,4.08,7.64,4.06,-4.06,-3.78,-3.70,3.59,3.57,3.58
344.30,7.57,3.99,7.56,3.98,-3.98,-3.71,-3.61,3.59,3.58,3.58
347.75,7.49,3.91,7.49,3.90,-3.90,-3.65,-3.52,3.59,3.59,3.59
351.23,7.40,3.82,7.41,3.82,-3.82,-3.58,-3.43,3.58,3.59,3.58
354.74,7.33,3.72,7.33,3.73,-3.73,-3.52,-3.34,3.60,3.60,3.61
358.28,7.25,3.65,7.26,3.65,-3.65,-3.45,-3.26,3.60,3.61,3.60
361.87,7.18,3.57,7.18,3.57,-3.57,-3.38,-3.18,3.61,3.61,3.61
365.49,7.09,3.48,7.10,3.49,-3.49,-3.32,-3.10,3.61,3.62,3.62
369.14,7.02,3.39,7.03,3.40,-3.40,-3.25,-3.03,3.62,3.63,3.63
372.83,6.95,3.31,6.95,3.32,-3.32,-3.19,-2.95,3.63,3.63,3.64
376.56,6.87,3.24,6.88,3.23,-3.23,-3.12,-2.88,3.64,3.64,3.64
380.33,6.79,3.15,6.80,3.15,-3.15,-3.06,-2.82,3.64,3.65,3.64
384.13,6.73,3.07,6.73,3.07,-3.07,-2.99,-2.75,3.66,3.66,3.66
387.97,6.65,2.99,6.65,2.98,-2.98,-2.93,-2.69,3.67,3.67,3.67
391.85,6.58,2.91,6.58,2.90,-2.90,-2.86,-2.63,3.68,3.68,3.67
395.77,6.50,2.82,6.50,2.82,-2.82,-2.79,-2.57,3.69,3.68,3.68
399.73,6.43,2.74,6.42,2.73,-2.73,-2.73,-2.51,3.70,3.69,3.69
403.72,6.35,2.64,6.35,2.64,-2.64,-2.66,-2.45,3.71,3.70,3.72
407.76,6.28,2.57,6.27,2.56,-2.56,-2.60,-2.40,3.72,3.71,3.71
411.84,6.21,2.49,6.20,2.48,-2.48,-2.53,-2.35,3.74,3.72,3.72
415.96,6.13,2.39,6.13,2.39,-2.39,-2.47,-2.29,3.74,3.73,3.74
420.12,6.05,2.32,6.05,2.31,-2.31,-2.40,-2.24,3.74,3.74,3.74
424.32,5.96,2.22,5.99,2.24,-2.24,-2.34,-2.20,3.72,3.75,3.74
428.56,5.91,2.15,5.92,2.16,-2.16,-2.27,-2.15,3.75,3.76,3.76
432.85,5.84,2.07,5.86,2.09,-2.09,-2.21,-2.10,3.75,3.76,3.77
437.18,5.77,2.00,5.79,2.02,-2.02,-2.14,-2.05,3.75,3.77,3.77
441.55,5.72,1.95,5.74,1.96,-1.96,-2.08,-2.01,3.77,3.78,3.78
445.96,5.69,1.91,5.68,1.89,-1.89,-2.01,-1.96,3.80,3.79,3.78
450.42,5.64,1.85,5.63,1.84,-1.84,-1.95,-1.91,3.80,3.80,3.79
454.93,5.59,1.79,5.59,1.78,-1.78,-1.88,-1.87,3.81,3.81,3.80
459.48,5.54,1.73,5.55,1.73,-1.73,-1.82,-1.82,3.81,3.81,3.81
464.07,5.50,1.67,5.51,1.69,-1.69,-1.75,-1.77,3.82,3.82,3.83
468.71,5.47,1.64,5.47,1.64,-1.64,-1.69,-1.72,3.83,3.83,3.84
473.40,5.43,1.59,5.44,1.60,-1.60,-1.62,-1.68,3.84,3.84,3.85
478.13,5.39,1.54,5.40,1.55,-1.55,-1.56,-1.63,3.84,3.85,3.85
482.91,5.36,1.50,5.37,1.51,-1.51,-1.49,-1.58,3.86,3.86,3.86
