frequency,raw,error,smoothed,error_smoothed,equalization,parametric_eq,fixed_band_eq,equalized_raw,equalized_smoothed,target
20.00,7.18,-5.14,7.18,-5.14,5.14,5.12,1.07,12.32,12.32,12.32
20.20,7.26,-5.05,7.26,-5.05,5.05,5.07,1.10,12.32,12.31,12.31
20.40,7.33,-4.97,7.34,-4.97,4.96,5.01,1.13,12.30,12.30,12.30
20.61,7.41,-4.88,7.41,-4.88,4.88,4.95,1.17,12.29,12.29,12.29
20.81,7.49,-4.78,7.49,-4.78,4.79,4.89,1.20,12.28,12.28,12.27
21.02,7.57,-4.69,7.57,-4.70,4.70,4.82,1.24,12.27,12.27,12.26
21.23,7.64,-4.61,7.65,-4.61,4.62,4.76,1.28,12.26,12.26,12.25
21.44,7.72,-4.54,7.72,-4.53,4.53,4.69,1.32,12.25,12.25,12.26
21.66,7.80,-4.44,7.80,-4.45,4.44,4.62,1.36,12.24,12.24,12.24
21.87,7.88,-4.36,7.88,-4.36,4.35,4.54,1.40,12.24,12.23,12.24
22.09,7.95,-4.27,7.96,-4.27,4.27,4.47,1.45,12.22,12.22,12.22
22.31,8.03,-4.18,8.03,-4.18,4.18,4.39,1.49,12.22,12.22,12.21
22.54,8.11,-4.09,8.11,-4.09,4.10,4.32,1.54,12.21,12.21,12.20
22.76,8.19,-4.01,8.19,-4.01,4.01,4.24,1.58,12.20,12.20,12.20
22.99,8.27,-3.92,8.27,-3.93,3.93,4.16,1.63,12.20,12.20,12.19
23.22,8.34,-3.84,8.35,-3.85,3.84,4.08,1.68,12.19,12.19,12.18
23.45,8.42,-3.77,8.42,-3.76,3.76,4.00,1.73,12.19,12.19,12.19
23.69,8.50,-3.68,8.50,-3.68,3.68,3.92,1.78,12.18,12.18,12.18
23.92,8.58,-3.59,8.58,-3.60,3.60,3.83,1.83,12.19,12.18,12.17
24.16,8.65,-3.53,8.66,-3.52,3.52,3.75,1.88,12.18,12.18,12.18
24.40,8.73,-3.45,8.73,-3.45,3.45,3.67,1.94,12.18,12.18,12.18
24.65,8.80,-3.37,8.80,-3.37,3.37,3.59,1.99,12.17,12.17,12.17
24.89,8.88,-3.29,8.88,-3.29,3.29,3.50,2.04,12.17,12.17,12.17
25.14,8.95,-3.21,8.96,-3.21,3.21,3.42,2.10,12.17,12.17,12.16
25.39,9.03,-3.13,9.03,-3.13,3.14,3.34,2.15,12.17,12.17,12.16
25.65,9.10,-3.06,9.10,-3.06,3.06,3.26,2.21,12.17,12.17,12.16
25.91,9.17,-2.99,9.18,-2.99,2.99,3.18,2.26,12.16,12.16,12.16
26.16,9.25,-2.92,9.25,-2.92,2.91,3.10,2.31,12.17,12.16,12.17
26.43,9.32,-2.84,9.32,-2.84,2.84,3.02,2.36,12.16,12.16,12.16
26.69,9.39,-2.77,9.40,-2.77,2.77,2.94,2.42,12.16,12.16,12.16
26.96,9.47,-2.69,9.47,-2.69,2.70,2.86,2.46,12.17,12.16,12.16
27.23,9.54,-2.62,9.54,-2.62,2.63,2.78,2.51,12.17,12.17,12.16
27.50,9.61,-2.55,9.61,-2.55,2.55,2.70,2.56,12.17,12.17,12.16
27.77,9.68,-2.49,9.68,-2.48,2.49,2.62,2.60,12.17,12.17,12.17
28.05,9.75,-2.41,9.75,-2.42,2.42,2.54,2.64,12.17,12.17,12.16
28.33,9.82,-2.35,9.82,-2.35,2.35,2.47,2.67,12.17,12.17,12.17
28.62,9.89,-2.28,9.89,-2.29,2.28,2.39,2.71,12.18,12.18,12.17
28.90,9.96,-2.22,9.96,-2.22,2.22,2.32,2.73,12.18,12.18,12.18
29.19,10.02,-2.16,10.03,-2.15,2.15,2.24,2.76,12.17,12.18,12.18
29.48,10.09,-2.08,10.09,-2.09,2.09,2.17,2.78,12.18,12.18,12.17
29.78,10.15,-2.02,10.15,-2.02,2.02,2.10,2.79,12.17,12.17,12.17
30.08,10.21,-1.96,10.21,-1.95,1.96,2.02,2.80,12.17,12.17,12.17
30.38,10.27,-1.88,10.27,-1.89,1.89,1.95,2.80,12.16,12.16,12.15
30.68,10.33,-1.82,10.33,-1.82,1.83,1.88,2.80,12.16,12.16,12.15
30.99,10.39,-1.76,10.39,-1.77,1.77,1.81,2.79,12.16,12.15,12.15
31.30,10.44,-1.71,10.44,-1.71,1.70,1.74,2.77,12.15,12.15,12.15
31.61,10.49,-1.65,10.50,-1.65,1.64,1.67,2.75,12.14,12.14,12.14
31.93,10.55,-1.57,10.55,-1.58,1.58,1.61,2.72,12.14,12.13,12.12
32.24,10.60,-1.53,10.60,-1.52,1.53,1.54,2.69,12.13,12.13,12.13
32.57,10.65,-1.46,10.65,-1.46,1.47,1.47,2.65,12.12,12.12,12.11
32.89,10.70,-1.41,10.70,-1.41,1.41,1.41,2.61,12.11,12.11,12.11
33.22,10.75,-1.35,10.75,-1.35,1.35,1.34,2.56,12.10,12.10,12.10
33.55,10.80,-1.30,10.80,-1.30,1.29,1.28,2.50,12.10,12.10,12.10
33.89,10.85,-1.24,10.85,-1.24,1.24,1.21,2.44,12.09,12.09,12.09
34.23,10.90,-1.17,10.90,-1.18,1.19,1.15,2.38,12.09,12.09,12.07
34.57,10.94,-1.13,10.95,-1.13,1.13,1.09,2.31,12.08,12.08,12.07
34.92,10.99,-1.06,10.99,-1.08,1.08,1.02,2.23,12.07,12.07,12.05
35.27,11.03,-1.04,11.03,-1.03,1.02,0.96,2.16,12.06,12.06,12.07
35.62,11.07,-0.97,11.08,-0.98,0.97,0.90,2.08,12.04,12.04,12.04
35.97,11.12,-0.92,11.12,-0.92,0.91,0.84,1.99,12.03,12.03,12.04
36.33,11.16,-0.86,11.17,-0.85,0.85,0.78,1.91,12.02,12.02,12.02
36.70,11.21,-0.79,11.21,-0.79,0.80,0.72,1.82,12.01,12.01,12.00
37.06,11.26,-0.72,11.26,-0.73,0.73,0.66,1.73,12.00,11.99,11.98
37.43,11.29,-0.67,11.30,-0.67,0.67,0.60,1.64,11.97,11.97,11.96
37.81,11.33,-0.62,11.33,-0.61,0.61,0.54,1.55,11.95,11.95,11.95
38.19,11.37,-0.55,11.37,-0.56,0.55,0.48,1.45,11.93,11.93,11.92
38.57,11.41,-0.49,11.41,-0.50,0.49,0.42,1.36,11.91,11.91,11.90
38.95,11.45,-0.44,11.45,-0.44,0.44,0.37,1.26,11.89,11.89,11.89
39.34,11.48,-0.38,11.48,-0.38,0.38,0.31,1.17,11.86,11.86,11.86
39.74,11.51,-0.32,11.51,-0.33,0.33,0.25,1.07,11.84,11.84,11.83
40.14,11.54,-0.27,11.54,-0.27,0.27,0.20,0.97,11.81,11.81,11.81
40.54,11.57,-0.22,11.58,-0.22,0.22,0.14,0.87,11.79,11.79,11.79
40.94,11.61,-0.15,11.61,-0.16,0.16,0.08,0.78,11.78,11.77,11.76
41.35,11.64,-0.11,11.64,-0.11,0.11,0.03,0.68,11.75,11.75,11.75
41.76,11.67,-0.05,11.67,-0.05,0.05,-0.03,0.58,11.73,11.73,11.72
42.18,11.70,-0.01,11.71,-0.00,-0.00,-0.09,0.48,11.70,11.71,11.71
42.60,11.74,0.06,11.74,0.05,-0.06,-0.14,0.39,11.69,11.68,11.68
43.03,11.77,0.11,11.77,0.11,-0.11,-0.20,0.29,11.66,11.66,11.66
43.46,11.80,0.18,11.80,0.17,-0.17,-0.25,0.19,11.63,11.63,11.62
43.90,11.83,0.23,11.83,0.23,-0.23,-0.31,0.10,11.60,11.60,11.60
44.33,11.87,0.30,11.87,0.29,-0.29,-0.36,-0.00,11.58,11.58,11.57
44.78,11.90,0.35,11.91,0.35,-0.35,-0.42,-0.10,11.55,11.55,11.55
45.23,11.94,0.41,11.94,0.42,-0.42,-0.48,-0.19,11.53,11.53,11.53
45.68,11.97,0.49,11.97,0.48,-0.48,-0.53,-0.29,11.49,11.49,11.48
46.13,12.00,0.55,12.00,0.55,-0.54,-0.59,-0.39,11.46,11.46,11.45
46.60,12.02,0.61,12.02,0.61,-0.61,-0.64,-0.48,11.41,11.41,11.41
47.06,12.04,0.66,12.05,0.67,-0.68,-0.70,-0.58,11.37,11.37,11.38
47.53,12.08,0.74,12.08,0.74,-0.74,-0.75,-0.68,11.34,11.33,11.34
48.01,12.11,0.82,12.11,0.81,-0.81,-0.81,-0.77,11.30,11.30,11.29
48.49,12.13,0.88,12.14,0.88,-0.88,-0.86,-0.87,11.25,11.26,11.25
48.97,12.16,0.96,12.16,0.95,-0.95,-0.92,-0.96,11.22,11.21,11.20
49.46,12.18,1.01,12.18,1.02,-1.01,-0.98,-1.06,11.17,11.17,11.17
49.96,12.20,1.09,12.20,1.08,-1.07,-1.03,-1.15,11.13,11.13,11.11
50.46,12.21,1.13,12.22,1.13,-1.13,-1.09,-1.24,11.08,11.08,11.08
50.96,12.23,1.19,12.23,1.19,-1.19,-1.14,-1.34,11.04,11.04,11.04
51.47,12.24,1.24,12.25,1.24,-1.24,-1.20,-1.43,11.00,11.00,11.00
51.99,12.26,1.31,12.26,1.30,-1.30,-1.26,-1.52,10.97,10.96,10.95
52.51,12.27,1.35,12.27,1.35,-1.35,-1.31,-1.61,10.92,10.92,10.92
53.03,12.28,1.39,12.28,1.40,-1.40,-1.37,-1.70,10.88,10.88,10.89
53.56,12.29,1.45,12.29,1.45,-1.45,-1.43,-1.79,10.84,10.84,10.84
54.10,12.30,1.51,12.30,1.50,-1.51,-1.49,-1.88,10.80,10.80,10.79
54.64,12.31,1.56,12.31,1.56,-1.56,-1.54,-1.96,10.75,10.75,10.75
55.18,12.33,1.62,12.33,1.62,-1.62,-1.60,-2.05,10.72,10.71,10.71
55.74,12.34,1.68,12.35,1.67,-1.67,-1.66,-2.13,10.67,10.67,10.66
56.29,12.36,1.72,12.36,1.73,-1.72,-1.72,-2.21,10.64,10.64,10.64
56.86,12.38,1.78,12.38,1.78,-1.78,-1.78,-2.29,10.60,10.60,10.60
57.42,12.39,1.84,12.40,1.84,-1.83,-1.84,-2.36,10.56,10.57,10.55
58.00,12.41,1.90,12.41,1.89,-1.88,-1.90,-2.44,10.53,10.53,10.51
58.58,12.42,1.94,12.42,1.94,-1.94,-1.95,-2.51,10.49,10.49,10.48
59.16,12.43,1.98,12.44,1.99,-2.00,-2.01,-2.57,10.44,10.44,10.45
59.76,12.45,2.05,12.45,2.04,-2.06,-2.07,-2.64,10.39,10.39,10.40
60.35,12.46,2.11,12.46,2.11,-2.12,-2.13,-2.70,10.34,10.34,10.35
60.96,12.48,2.19,12.48,2.19,-2.19,-2.19,-2.75,10.29,10.29,10.29
61.57,12.50,2.27,12.50,2.27,-2.27,-2.26,-2.81,10.24,10.24,10.23
62.18,12.52,2.35,12.52,2.35,-2.34,-2.32,-2.86,10.18,10.18,10.17
62.80,12.54,2.43,12.54,2.43,-2.42,-2.38,-2.90,10.12,10.12,10.11
63.43,12.56,2.50,12.56,2.50,-2.49,-2.44,-2.94,10.07,10.07,10.06
64.07,12.58,2.57,12.58,2.57,-2.57,-2.50,-2.98,10.01,10.01,10.01
64.71,12.60,2.64,12.60,2.64,-2.64,-2.56,-3.02,9.96,9.96,9.96
65.35,12.62,2.72,12.62,2.71,-2.71,-2.62,-3.05,9.91,9.91,9.90
66.01,12.63,2.78,12.63,2.78,-2.78,-2.68,-3.08,9.85,9.85,9.85
66.67,12.64,2.83,12.65,2.84,-2.85,-2.75,-3.11,9.80,9.80,9.81
67.33,12.66,2.92,12.66,2.91,-2.91,-2.81,-3.14,9.75,9.75,9.74
68.01,12.67,2.98,12.67,2.98,-2.97,-2.87,-3.16,9.70,9.70,9.69
68.69,12.68,3.04,12.68,3.04,-3.03,-2.93,-3.18,9.65,9.65,9.64
69.37,12.68,3.09,12.68,3.09,-3.09,-2.99,-3.20,9.59,9.59,9.59
70.07,12.68,3.15,12.68,3.15,-3.15,-3.06,-3.22,9.54,9.53,9.53
70.77,12.66,3.20,12.67,3.20,-3.20,-3.12,-3.24,9.46,9.47,9.46
71.48,12.66,3.25,12.66,3.25,-3.26,-3.18,-3.26,9.41,9.40,9.41
72.19,12.65,3.30,12.65,3.30,-3.31,-3.24,-3.27,9.34,9.34,9.35
72.91,12.65,3.37,12.65,3.36,-3.36,-3.30,-3.29,9.29,9.29,9.28
73.64,12.65,3.42,12.65,3.42,-3.42,-3.36,-3.31,9.23,9.23,9.23
74.38,12.65,3.48,12.65,3.48,-3.47,-3.43,-3.32,9.18,9.18,9.17
75.12,12.65,3.53,12.65,3.53,-3.53,-3.49,-3.34,9.13,9.13,9.12
75.87,12.65,3.58,12.65,3.58,-3.58,-3.55,-3.36,9.07,9.07,9.07
76.63,12.65,3.64,12.65,3.63,-3.63,-3.61,-3.38,9.02,9.02,9.01
77.40,12.65,3.68,12.65,3.68,-3.68,-3.67,-3.40,8.97,8.97,8.97
78.17,12.65,3.74,12.65,3.73,-3.73,-3.73,-3.43,8.92,8.92,8.91
78.95,12.65,3.78,12.65,3.78,-3.78,-3.79,-3.45,8.87,8.87,8.87
79.74,12.65,3.83,12.65,3.83,-3.84,-3.85,-3.48,8.82,8.82,8.82
80.54,12.66,3.89,12.66,3.89,-3.89,-3.91,-3.51,8.77,8.77,8.77
81.35,12.66,3.95,12.66,3.94,-3.94,-3.96,-3.54,8.72,8.72,8.71
82.16,12.67,3.99,12.67,4.00,-4.00,-4.02,-3.57,8.67,8.67,8.68
82.98,12.67,4.05,12.68,4.05,-4.05,-4.08,-3.61,8.62,8.62,8.62
83.81,12.68,4.11,12.68,4.11,-4.10,-4.13,-3.65,8.58,8.57,8.57
84.65,12.67,4.16,12.67,4.16,-4.15,-4.19,-3.69,8.52,8.52,8.51
85.50,12.66,4.21,12.66,4.20,-4.20,-4.24,-3.73,8.46,8.46,8.45
86.35,12.64,4.24,12.65,4.24,-4.24,-4.30,-3.78,8.40,8.41,8.40
87.22,12.63,4.28,12.63,4.28,-4.28,-4.35,-3.83,8.35,8.35,8.35
88.09,12.61,4.32,12.61,4.31,-4.31,-4.40,-3.89,8.30,8.29,8.29
88.97,12.58,4.35,12.58,4.34,-4.35,-4.45,-3.94,8.24,8.24,8.23
89.86,12.55,4.37,12.55,4.37,-4.37,-4.51,-4.00,8.18,8.18,8.18
90.76,12.52,4.40,12.52,4.40,-4.40,-4.55,-4.06,8.12,8.12,8.12
91.66,12.49,4.44,12.49,4.43,-4.43,-4.60,-4.13,8.07,8.07,8.05
92.58,12.46,4.46,12.46,4.45,-4.45,-4.65,-4.20,8.01,8.01,8.00
93.51,12.42,4.47,12.43,4.48,-4.48,-4.70,-4.27,7.94,7.95,7.95
94.44,12.40,4.51,12.40,4.51,-4.51,-4.74,-4.34,7.89,7.88,7.89
95.39,12.37,4.55,12.37,4.54,-4.55,-4.79,-4.42,7.82,7.82,7.82
96.34,12.34,4.59,12.34,4.59,-4.59,-4.83,-4.50,7.75,7.75,7.75
97.30,12.32,4.63,12.33,4.64,-4.64,-4.87,-4.58,7.68,7.69,7.69
98.28,12.31,4.69,12.31,4.69,-4.69,-4.91,-4.66,7.62,7.62,7.62
99.26,12.31,4.75,12.31,4.74,-4.74,-4.96,-4.75,7.57,7.56,7.56
100.25,12.30,4.80,12.31,4.80,-4.80,-4.99,-4.84,7.50,7.51,7.50
101.25,12.31,4.86,12.31,4.86,-4.86,-5.03,-4.93,7.45,7.45,7.45
102.27,12.32,4.93,12.32,4.93,-4.93,-5.07,-5.02,7.40,7.40,7.39
103.29,12.33,5.00,12.33,4.99,-4.99,-5.11,-5.11,7.34,7.34,7.33
104.32,12.33,5.05,12.33,5.05,-5.05,-5.14,-5.21,7.28,7.28,7.28
105.37,12.33,5.11,12.34,5.11,-5.12,-5.18,-5.30,7.22,7.22,7.22
106.42,12.34,5.17,12.34,5.17,-5.18,-5.21,-5.39,7.17,7.17,7.17
107.48,12.35,5.24,12.35,5.23,-5.23,-5.24,-5.49,7.12,7.12,7.11
108.56,12.35,5.29,12.35,5.29,-5.28,-5.27,-5.58,7.07,7.07,7.06
109.64,12.34,5.34,12.34,5.34,-5.33,-5.30,-5.67,7.01,7.01,7.00
110.74,12.33,5.39,12.33,5.38,-5.38,-5.33,-5.76,6.96,6.95,6.94
111.85,12.30,5.42,12.30,5.41,-5.42,-5.36,-5.84,6.89,6.89,6.88
112.97,12.27,5.44,12.27,5.44,-5.45,-5.39,-5.93,6.82,6.82,6.83
114.10,12.24,5.47,12.24,5.48,-5.48,-5.42,-6.01,6.76,6.76,6.77
115.24,12.21,5.52,12.21,5.51,-5.51,-5.45,-6.08,6.70,6.70,6.69
116.39,12.18,5.55,12.18,5.55,-5.54,-5.47,-6.15,6.65,6.65,6.63
117.55,12.15,5.58,12.15,5.58,-5.56,-5.50,-6.21,6.59,6.59,6.57
118.73,12.11,5.60,12.11,5.59,-5.59,-5.53,-6.27,6.52,6.52,6.51
119.92,12.07,5.60,12.08,5.61,-5.62,-5.55,-6.33,6.46,6.46,6.47
121.12,12.05,5.63,12.05,5.63,-5.65,-5.58,-6.37,6.41,6.41,6.42
122.33,12.04,5.68,12.04,5.67,-5.68,-5.60,-6.41,6.36,6.36,6.36
123.55,12.02,5.71,12.02,5.71,-5.72,-5.62,-6.44,6.31,6.31,6.31
124.79,12.01,5.75,12.01,5.75,-5.76,-5.65,-6.46,6.26,6.26,6.26
126.03,12.00,5.80,12.00,5.80,-5.80,-5.67,-6.48,6.21,6.21,6.20
127.29,11.99,5.84,11.99,5.85,-5.84,-5.69,-6.49,6.15,6.15,6.15
128.57,11.98,5.90,11.98,5.89,-5.88,-5.72,-6.49,6.10,6.10,6.08
129.85,11.96,5.93,11.96,5.93,-5.92,-5.74,-6.49,6.04,6.04,6.03
131.15,11.93,5.96,11.94,5.96,-5.96,-5.76,-6.47,5.98,5.98,5.97
132.46,11.91,5.99,11.91,5.99,-5.99,-5.79,-6.46,5.92,5.92,5.92
133.79,11.88,6.02,11.88,6.02,-6.02,-5.81,-6.43,5.86,5.86,5.86
135.12,11.85,6.04,11.86,6.04,-6.05,-5.83,-6.40,5.81,5.81,5.81
136.48,11.83,6.07,11.83,6.07,-6.07,-5.86,-6.37,5.77,5.76,5.76
137.84,11.79,6.08,11.80,6.09,-6.08,-5.88,-6.33,5.71,5.72,5.71
139.22,11.77,6.12,11.77,6.11,-6.10,-5.90,-6.29,5.68,5.67,5.65
140.61,11.73,6.12,11.73,6.12,-6.11,-5.93,-6.24,5.62,5.62,5.61
142.02,11.67,6.12,11.68,6.12,-6.12,-5.95,-6.20,5.55,5.56,5.55
143.44,11.64,6.13,11.64,6.12,-6.13,-5.97,-6.15,5.51,5.51,5.51
144.87,11.60,6.13,11.60,6.13,-6.14,-6.00,-6.10,5.46,5.46,5.47
146.32,11.56,6.14,11.57,6.14,-6.15,-6.02,-6.05,5.41,5.41,5.42
147.78,11.53,6.15,11.54,6.16,-6.17,-6.05,-5.99,5.37,5.37,5.38
149.26,11.52,6.19,11.52,6.18,-6.18,-6.07,-5.94,5.34,5.34,5.33
150.75,11.49,6.20,11.50,6.20,-6.19,-6.09,-5.89,5.30,5.30,5.29
152.26,11.47,6.22,11.47,6.22,-6.20,-6.12,-5.85,5.27,5.27,5.25
153.78,11.44,6.23,11.44,6.22,-6.22,-6.14,-5.80,5.23,5.22,5.21
155.32,11.40,6.23,11.40,6.23,-6.23,-6.17,-5.75,5.18,5.18,5.17
156.88,11.35,6.23,11.36,6.23,-6.23,-6.19,-5.71,5.12,5.12,5.12
158.44,11.32,6.25,11.31,6.24,-6.24,-6.22,-5.67,5.08,5.07,5.07
160.03,11.27,6.24,11.28,6.24,-6.25,-6.24,-5.64,5.02,5.02,5.03
161.63,11.24,6.25,11.25,6.26,-6.27,-6.27,-5.60,4.98,4.98,4.99
163.24,11.22,6.28,11.22,6.27,-6.28,-6.29,-5.57,4.94,4.93,4.94
164.88,11.19,6.30,11.20,6.30,-6.30,-6.31,-5.55,4.89,4.90,4.89
166.53,11.17,6.33,11.17,6.32,-6.32,-6.34,-5.52,4.86,4.86,4.84
168.19,11.15,6.34,11.15,6.34,-6.33,-6.36,-5.50,4.82,4.81,4.81
169.87,11.11,6.36,11.12,6.36,-6.35,-6.38,-5.49,4.76,4.77,4.75
171.57,11.08,6.38,11.08,6.37,-6.36,-6.40,-5.48,4.72,4.72,4.70
173.29,11.04,6.38,11.04,6.38,-6.38,-6.43,-5.47,4.66,4.66,4.66
175.02,10.99,6.38,11.00,6.38,-6.39,-6.45,-5.47,4.60,4.60,4.61
176.77,10.95,6.39,10.96,6.39,-6.41,-6.47,-5.47,4.54,4.55,4.56
178.54,10.93,6.41,10.93,6.41,-6.42,-6.49,-5.48,4.51,4.51,4.52
180.32,10.91,6.45,10.91,6.44,-6.44,-6.51,-5.49,4.48,4.47,4.46
182.13,10.89,6.46,10.89,6.46,-6.45,-6.52,-5.50,4.44,4.44,4.43
183.95,10.85,6.47,10.85,6.47,-6.46,-6.54,-5.52,4.39,4.40,4.38
185.79,10.81,6.48,10.82,6.48,-6.47,-6.55,-5.54,4.34,4.35,4.33
187.65,10.78,6.49,10.78,6.48,-6.48,-6.57,-5.57,4.31,4.30,4.29
189.52,10.73,6.48,10.73,6.48,-6.48,-6.58,-5.60,4.25,4.25,4.25
191.42,10.68,6.47,10.69,6.47,-6.49,-6.59,-5.63,4.19,4.20,4.21
193.33,10.64,6.47,10.65,6.48,-6.49,-6.60,-5.67,4.15,4.15,4.17
195.27,10.61,6.49,10.61,6.49,-6.49,-6.61,-5.71,4.12,4.12,4.12
197.22,10.58,6.51,10.58,6.50,-6.49,-6.61,-5.75,4.09,4.09,4.07
199.19,10.54,6.50,10.55,6.51,-6.49,-6.62,-5.80,4.05,4.06,4.04
201.18,10.51,6.51,10.51,6.50,-6.49,-6.62,-5.85,4.03,4.02,4.00
203.19,10.46,6.49,10.46,6.48,-6.48,-6.62,-5.90,3.98,3.98,3.97
205.23,10.41,6.46,10.41,6.47,-6.47,-6.61,-5.96,3.94,3.95,3.95
207.28,10.36,6.44,10.36,6.45,-6.45,-6.61,-6.01,3.91,3.91,3.92
209.35,10.32,6.44,10.32,6.43,-6.44,-6.60,-6.07,3.89,3.88,3.88
211.44,10.27,6.42,10.28,6.42,-6.42,-6.59,-6.13,3.85,3.86,3.85
213.56,10.23,6.40,10.23,6.40,-6.40,-6.58,-6.18,3.83,3.82,3.83
215.69,10.18,6.38,10.18,6.38,-6.39,-6.56,-6.24,3.79,3.79,3.80
217.85,10.13,6.36,10.14,6.37,-6.37,-6.55,-6.30,3.76,3.77,3.77
220.03,10.10,6.36,10.10,6.36,-6.35,-6.53,-6.35,3.75,3.75,3.74
222.23,10.07,6.36,10.06,6.34,-6.33,-6.50,-6.40,3.74,3.73,3.71
224.45,10.01,6.31,10.01,6.32,-6.31,-6.48,-6.45,3.71,3.71,3.70
226.70,9.96,6.29,9.96,6.28,-6.28,-6.45,-6.50,3.68,3.68,3.67
228.96,9.89,6.23,9.90,6.24,-6.25,-6.42,-6.54,3.64,3.65,3.66
231.25,9.85,6.21,9.85,6.21,-6.22,-6.39,-6.58,3.63,3.63,3.64
233.57,9.80,6.18,9.80,6.18,-6.18,-6.35,-6.61,3.62,3.62,3.62
235.90,9.75,6.14,9.75,6.15,-6.14,-6.31,-6.63,3.61,3.62,3.61
238.26,9.70,6.12,9.70,6.10,-6.09,-6.27,-6.65,3.61,3.61,3.58
240.64,9.64,6.05,9.65,6.06,-6.05,-6.23,-6.66,3.59,3.60,3.59
243.05,9.58,6.01,9.58,6.01,-6.00,-6.18,-6.66,3.58,3.58,3.57
245.48,9.52,5.96,9.51,5.95,-5.95,-6.13,-6.66,3.57,3.56,3.56
247.93,9.43,5.88,9.45,5.89,-5.90,-6.08,-6.64,3.53,3.55,3.55
250.41,9.40,5.84,9.40,5.84,-5.85,-6.03,-6.62,3.55,3.55,3.56
252.92,9.35,5.80,9.35,5.80,-5.80,-5.97,-6.59,3.55,3.55,3.55
255.45,9.31,5.77,9.31,5.76,-5.75,-5.92,-6.55,3.56,3.56,3.54
258.00,9.26,5.72,9.25,5.71,-5.70,-5.86,-6.50,3.56,3.55,3.54
260.58,9.18,5.64,9.19,5.65,-5.65,-5.79,-6.44,3.53,3.54,3.54
263.19,9.13,5.59,9.13,5.59,-5.60,-5.73,-6.38,3.53,3.53,3.54
265.82,9.08,5.55,9.09,5.55,-5.56,-5.67,-6.30,3.53,3.53,3.53
268.48,9.05,5.52,9.05,5.51,-5.51,-5.60,-6.22,3.54,3.54,3.53
271.16,9.00,5.47,9.00,5.46,-5.46,-5.53,-6.14,3.54,3.53,3.53
273.87,8.94,5.41,8.95,5.41,-5.42,-5.46,-6.05,3.52,3.53,3.53
276.61,8.89,5.36,8.89,5.37,-5.37,-5.39,-5.95,3.52,3.52,3.53
279.38,8.84,5.33,8.85,5.33,-5.33,-5.32,-5.85,3.51,3.52,3.51
282.17,8.81,5.30,8.81,5.29,-5.28,-5.25,-5.74,3.53,3.53,3.51
284.99,8.77,5.25,8.76,5.24,-5.22,-5.17,-5.63,3.55,3.54,3.52
287.84,8.69,5.16,8.70,5.18,-5.17,-5.10,-5.52,3.52,3.53,3.53
290.72,8.64,5.12,8.64,5.11,-5.11,-5.02,-5.41,3.53,3.53,3.52
293.63,8.57,5.04,8.58,5.04,-5.05,-4.94,-5.29,3.52,3.53,3.53
296.57,8.52,4.98,8.52,4.98,-4.99,-4.87,-5.18,3.53,3.53,3.54
299.53,8.47,4.93,8.47,4.92,-4.93,-4.79,-5.06,3.55,3.54,3.54
302.53,8.41,4.85,8.42,4.86,-4.86,-4.71,-4.94,3.55,3.55,3.56
305.55,8.36,4.81,8.36,4.80,-4.80,-4.63,-4.83,3.56,3.56,3.55
308.61,8.30,4.74,8.30,4.74,-4.73,-4.55,-4.71,3.57,3.57,3.56
311.69,8.24,4.67,8.24,4.67,-4.67,-4.47,-4.60,3.57,3.57,3.57
314.81,8.18,4.61,8.18,4.60,-4.60,-4.39,-4.48,3.58,3.58,3.57
317.96,8.11,4.53,8.12,4.53,-4.53,-4.31,-4.37,3.58,3.58,3.58
321.14,8.05,4.46,8.05,4.46,-4.46,-4.23,-4.26,3.59,3.59,3.59
324.35,7.99,4.40,7.99,4.39,-4.39,-4.15,-4.15,3.61,3.60,3.59
327.59,7.92,4.30,7.92,4.31,-4.31,-4.07,-4.04,3.61,3.61,3.62
330.87,7.85,4.24,7.85,4.23,-4.24,-3.99,-3.94,3.62,3.61,3.61
334.18,7.77,4.15,7.78,4.15,-4.16,-3.91,-3.84,3.61,3.62,3.62
337.52,7.70,4.08,7.71,4.08,-4.08,-3.83,-3.74,3.62,3.63,3.62
340.90,7.65,4.01,7.64,4.00,-4.00,-3.75,-3.64,3.65,3.64,3.64
344.30,7.57,3.92,7.57,3.92,-3.92,-3.67,-3.55,3.66,3.65,3.65
347.75,7.49,3.84,7.49,3.83,-3.83,-3.59,-3.46,3.66,3.66,3.65
351.23,7.40,3.75,7.41,3.74,-3.75,-3.51,-3.37,3.65,3.66,3.65
354.74,7.33,3.65,7.33,3.66,-3.66,-3.43,-3.28,3.67,3.67,3.68
358.28,7.25,3.58,7.25,3.58,-3.58,-3.35,-3.20,3.68,3.68,3.67
361.87,7.18,3.50,7.18,3.49,-3.49,-3.28,-3.12,3.69,3.69,3.68
365.49,7.09,3.40,7.10,3.40,-3.40,-3.20,-3.04,3.69,3.70,3.69
369.14,7.02,3.31,7.02,3.32,-3.32,-3.12,-2.96,3.70,3.70,3.71
372.83,6.95,3.24,6.95,3.23,-3.24,-3.05,-2.89,3.72,3.71,3.71
376.56,6.87,3.16,6.87,3.15,-3.15,-2.97,-2.82,3.72,3.72,3.71
380.33,6.79,3.07,6.80,3.07,-3.07,-2.89,-2.75,3.72,3.73,3.72
384.13,6.73,2.99,6.73,2.99,-2.99,-2.82,-2.68,3.74,3.74,3.74
387.97,6.65,2.91,6.65,2.91,-2.91,-2.75,-2.62,3.75,3.75,3.74
391.85,6.58,2.83,6.58,2.83,-2.82,-2.67,-2.55,3.76,3.76,3.75
395.77,6.50,2.74,6.50,2.74,-2.74,-2.60,-2.49,3.76,3.77,3.76
399.73,6.43,2.66,6.43,2.65,-2.65,-2.52,-2.43,3.78,3.78,3.77
403.72,6.35,2.55,6.36,2.57,-2.57,-2.45,-2.38,3.78,3.79,3.80
407.76,6.28,2.49,6.28,2.48,-2.48,-2.38,-2.32,3.80,3.80,3.79
411.84,6.21,2.41,6.21,2.40,-2.39,-2.31,-2.27,3.82,3.82,3.80
415.96,6.13,2.31,6.13,2.32,-2.31,-2.24,-2.21,3.83,3.82,3.82
420.12,6.05,2.23,6.05,2.22,-2.22,-2.17,-2.16,3.83,3.83,3.82
424.32,5.96,2.13,5.98,2.13,-2.14,-2.10,-2.11,3.82,3.83,3.83
428.56,5.91,2.06,5.90,2.06,-2.07,-2.03,-2.06,3.85,3.84,3.85
432.85,5.84,1.98,5.84,1.98,-1.99,-1.96,-2.01,3.85,3.84,3.86
437.18,5.77,1.92,5.78,1.92,-1.93,-1.89,-1.96,3.85,3.85,3.85
441.55,5.72,1.86,5.73,1.86,-1.86,-1.82,-1.91,3.86,3.87,3.86
445.96,5.69,1.82,5.68,1.81,-1.80,-1.76,-1.87,3.89,3.88,3.87
450.42,5.64,1.76,5.64,1.76,-1.75,-1.69,-1.82,3.90,3.89,3.88
454.93,5.59,1.70,5.59,1.70,-1.69,-1.62,-1.77,3.90,3.90,3.89
459.48,5.54,1.64,5.55,1.64,-1.64,-1.56,-1.72,3.90,3.91,3.90
464.07,5.50,1.58,5.51,1.59,-1.59,-1.49,-1.67,3.91,3.91,3.92
468.71,5.47,1.54,5.47,1.54,-1.55,-1.43,-1.62,3.93,3.92,3.93
473.40,5.43,1.50,5.43,1.49,-1.50,-1.36,-1.57,3.93,3.93,3.93
478.13,5.39,1.45,5.40,1.45,-1.46,-1.30,-1.52,3.93,3.94,3.94
482.91,5.36,1.41,5.37,1.42,-1.42,-1.23,-1.47,3.95,3.95,3.95
487.74,5.35,1.39,5.34,1.38,-1.37,-1.17,-1.42,3.98,3.97,3.96
