frequency,raw,error,smoothed,error_smoothed,equalization,parametric_eq,fixed_band_eq,equalized_raw,equalized_smoothed,target
20.00,-9.56,-8.36,-9.55,-8.38,8.38,6.50,2.53,-1.17,-1.17,-1.20
20.20,-9.46,-8.31,-9.45,-8.32,8.32,6.66,2.61,-1.13,-1.13,-1.15
20.40,-9.36,-8.26,-9.36,-8.27,8.27,6.82,2.68,-1.09,-1.09,-1.09
20.61,-9.27,-8.20,-9.27,-8.21,8.21,6.98,2.76,-1.06,-1.06,-1.07
20.81,-9.17,-8.15,-9.17,-8.14,8.14,7.13,2.84,-1.02,-1.03,-1.01
21.02,-9.07,-8.09,-9.08,-8.08,8.08,7.27,2.92,-0.99,-1.00,-0.98
21.23,-8.99,-8.03,-8.99,-8.01,8.01,7.41,3.01,-0.97,-0.98,-0.96
21.44,-8.91,-7.97,-8.90,-7.95,7.95,7.53,3.10,-0.96,-0.95,-0.93
21.66,-8.82,-7.90,-8.81,-7.88,7.88,7.65,3.19,-0.94,-0.93,-0.92
21.87,-8.73,-7.83,-8.72,-7.81,7.81,7.75,3.28,-0.93,-0.91,-0.90
22.09,-8.65,-7.76,-8.63,-7.74,7.74,7.83,3.38,-0.91,-0.90,-0.88
22.31,-8.54,-7.67,-8.55,-7.66,7.66,7.90,3.48,-0.88,-0.88,-0.88
22.54,-8.46,-7.58,-8.46,-7.58,7.58,7.96,3.58,-0.87,-0.88,-0.88
22.76,-8.36,-7.48,-8.38,-7.50,7.50,7.99,3.68,-0.85,-0.88,-0.88
22.99,-8.26,-7.37,-8.29,-7.42,7.42,8.01,3.79,-0.84,-0.87,-0.89
23.22,-8.20,-7.31,-8.21,-7.34,7.34,8.01,3.90,-0.86,-0.87,-0.89
23.45,-8.13,-7.24,-8.13,-7.25,7.25,7.99,4.01,-0.87,-0.87,-0.88
23.69,-8.06,-7.18,-8.04,-7.17,7.17,7.95,4.12,-0.89,-0.87,-0.88
23.92,-7.99,-7.11,-7.96,-7.09,7.09,7.89,4.24,-0.90,-0.87,-0.88
24.16,-7.91,-7.03,-7.88,-7.01,7.01,7.81,4.35,-0.90,-0.87,-0.87
24.40,-7.80,-6.94,-7.80,-6.92,6.92,7.72,4.47,-0.88,-0.87,-0.87
24.65,-7.72,-6.84,-7.72,-6.84,6.84,7.61,4.59,-0.88,-0.87,-0.87
24.89,-7.61,-6.74,-7.63,-6.76,6.76,7.50,4.72,-0.86,-0.87,-0.88
25.14,-7.54,-6.66,-7.55,-6.68,6.68,7.36,4.84,-0.86,-0.87,-0.87
25.39,-7.45,-6.59,-7.46,-6.59,6.59,7.22,4.96,-0.86,-0.87,-0.87
25.65,-7.38,-6.51,-7.38,-6.51,6.51,7.07,5.09,-0.87,-0.87,-0.87
25.91,-7.31,-6.43,-7.29,-6.42,6.42,6.91,5.21,-0.89,-0.87,-0.87
26.16,-7.21,-6.34,-7.20,-6.33,6.33,6.75,5.34,-0.89,-0.87,-0.88
26.43,-7.12,-6.24,-7.11,-6.24,6.24,6.58,5.46,-0.88,-0.87,-0.88
26.69,-7.02,-6.14,-7.02,-6.15,6.15,6.41,5.58,-0.87,-0.88,-0.88
26.96,-6.93,-6.05,-6.94,-6.06,6.06,6.24,5.70,-0.87,-0.88,-0.88
27.23,-6.84,-5.96,-6.85,-5.97,5.97,6.07,5.82,-0.86,-0.88,-0.88
27.50,-6.76,-5.88,-6.77,-5.88,5.88,5.89,5.93,-0.87,-0.88,-0.88
27.77,-6.67,-5.79,-6.68,-5.80,5.80,5.72,6.04,-0.88,-0.88,-0.89
28.05,-6.59,-5.70,-6.59,-5.71,5.71,5.55,6.14,-0.88,-0.88,-0.89
28.33,-6.51,-5.61,-6.50,-5.62,5.62,5.38,6.23,-0.89,-0.89,-0.90
28.62,-6.43,-5.53,-6.42,-5.53,5.53,5.21,6.32,-0.90,-0.89,-0.90
28.90,-6.35,-5.46,-6.33,-5.44,5.44,5.05,6.40,-0.90,-0.89,-0.89
29.19,-6.26,-5.36,-6.24,-5.35,5.35,4.89,6.48,-0.90,-0.89,-0.90
29.48,-6.16,-5.27,-6.15,-5.26,5.26,4.73,6.54,-0.89,-0.89,-0.89
29.78,-6.07,-5.17,-6.07,-5.17,5.17,4.57,6.59,-0.89,-0.89,-0.89
30.08,-5.98,-5.09,-5.98,-5.09,5.09,4.42,6.63,-0.89,-0.89,-0.89
30.38,-5.90,-5.00,-5.90,-5.01,5.01,4.27,6.66,-0.89,-0.90,-0.89
30.68,-5.82,-4.92,-5.82,-4.93,4.93,4.13,6.67,-0.89,-0.90,-0.90
30.99,-5.73,-4.83,-5.74,-4.84,4.84,3.99,6.68,-0.89,-0.90,-0.90
31.30,-5.65,-4.74,-5.66,-4.76,4.76,3.85,6.67,-0.89,-0.90,-0.90
31.61,-5.56,-4.65,-5.58,-4.67,4.67,3.72,6.65,-0.88,-0.90,-0.91
31.93,-5.47,-4.56,-5.50,-4.59,4.59,3.59,6.61,-0.88,-0.91,-0.91
32.24,-5.41,-4.49,-5.42,-4.51,4.51,3.47,6.57,-0.90,-0.91,-0.92
32.57,-5.36,-4.44,-5.34,-4.42,4.42,3.34,6.51,-0.93,-0.92,-0.92
32.89,-5.32,-4.40,-5.25,-4.33,4.33,3.23,6.43,-0.98,-0.92,-0.92
33.22,-5.22,-4.29,-5.17,-4.24,4.24,3.11,6.35,-0.97,-0.92,-0.93
33.55,-5.09,-4.17,-5.08,-4.16,4.16,3.00,6.26,-0.94,-0.93,-0.93
33.89,-4.98,-4.04,-5.00,-4.07,4.07,2.89,6.16,-0.91,-0.93,-0.94
34.23,-4.90,-3.96,-4.92,-3.98,3.98,2.79,6.05,-0.91,-0.94,-0.94
34.57,-4.84,-3.89,-4.84,-3.89,3.89,2.69,5.93,-0.94,-0.94,-0.95
34.92,-4.78,-3.83,-4.75,-3.80,3.80,2.59,5.81,-0.97,-0.95,-0.95
35.27,-4.67,-3.71,-4.66,-3.71,3.71,2.49,5.68,-0.96,-0.95,-0.95
35.62,-4.55,-3.59,-4.57,-3.62,3.62,2.40,5.54,-0.93,-0.95,-0.96
35.97,-4.42,-3.46,-4.48,-3.53,3.53,2.31,5.40,-0.89,-0.95,-0.96
36.33,-4.38,-3.42,-4.39,-3.43,3.43,2.22,5.26,-0.94,-0.96,-0.96
36.70,-4.34,-3.37,-4.30,-3.34,3.34,2.14,5.11,-1.00,-0.96,-0.96
37.06,-4.28,-3.32,-4.21,-3.26,3.26,2.06,4.96,-1.03,-0.96,-0.96
37.43,-4.16,-3.21,-4.14,-3.18,3.18,1.98,4.81,-0.98,-0.96,-0.96
37.81,-4.04,-3.08,-4.06,-3.11,3.11,1.90,4.66,-0.93,-0.96,-0.96
38.19,-3.95,-2.98,-3.99,-3.03,3.03,1.82,4.51,-0.92,-0.96,-0.96
38.57,-3.88,-2.92,-3.91,-2.95,2.95,1.75,4.36,-0.92,-0.96,-0.96
38.95,-3.82,-2.87,-3.83,-2.87,2.87,1.68,4.20,-0.94,-0.96,-0.95
39.34,-3.74,-2.78,-3.75,-2.79,2.79,1.61,4.05,-0.94,-0.95,-0.96
39.74,-3.65,-2.69,-3.67,-2.71,2.71,1.54,3.90,-0.93,-0.95,-0.96
40.14,-3.59,-2.63,-3.59,-2.64,2.64,1.47,3.75,-0.95,-0.96,-0.96
40.54,-3.57,-2.61,-3.52,-2.56,2.56,1.41,3.60,-1.01,-0.96,-0.96
40.94,-3.55,-2.58,-3.44,-2.48,2.48,1.35,3.45,-1.06,-0.96,-0.97
41.35,-3.43,-2.46,-3.37,-2.41,2.41,1.29,3.31,-1.02,-0.97,-0.97
41.76,-3.28,-2.31,-3.31,-2.33,2.33,1.23,3.16,-0.95,-0.97,-0.98
42.18,-3.17,-2.19,-3.24,-2.26,2.26,1.17,3.02,-0.91,-0.98,-0.98
42.60,-3.09,-2.10,-3.17,-2.18,2.18,1.11,2.88,-0.91,-0.99,-0.99
43.03,-3.01,-2.01,-3.10,-2.09,2.09,1.06,2.74,-0.91,-1.00,-1.00
43.46,-3.03,-2.02,-3.02,-2.01,2.01,1.00,2.60,-1.02,-1.02,-1.01
43.90,-3.05,-2.02,-2.95,-1.92,1.92,0.95,2.47,-1.12,-1.03,-1.02
44.33,-2.96,-1.91,-2.88,-1.84,1.84,0.90,2.33,-1.11,-1.04,-1.05
44.78,-2.85,-1.78,-2.81,-1.76,1.76,0.84,2.20,-1.08,-1.05,-1.06
45.23,-2.75,-1.67,-2.75,-1.68,1.68,0.79,2.07,-1.06,-1.07,-1.07
45.68,-2.67,-1.58,-2.69,-1.61,1.61,0.75,1.94,-1.06,-1.08,-1.08
46.13,-2.60,-1.49,-2.63,-1.54,1.54,0.70,1.81,-1.06,-1.09,-1.11
46.60,-2.55,-1.44,-2.58,-1.47,1.47,0.65,1.68,-1.08,-1.11,-1.11
47.06,-2.50,-1.37,-2.52,-1.40,1.40,0.60,1.56,-1.10,-1.12,-1.13
47.53,-2.44,-1.30,-2.46,-1.32,1.32,0.56,1.44,-1.12,-1.14,-1.14
48.01,-2.38,-1.24,-2.39,-1.24,1.24,0.51,1.32,-1.14,-1.15,-1.14
48.49,-2.35,-1.19,-2.32,-1.16,1.16,0.47,1.20,-1.19,-1.17,-1.15
48.97,-2.31,-1.13,-2.26,-1.08,1.08,0.42,1.08,-1.22,-1.18,-1.18
49.46,-2.23,-1.03,-2.20,-1.01,1.01,0.38,0.96,-1.22,-1.19,-1.20
49.96,-2.15,-0.93,-2.14,-0.93,0.93,0.34,0.85,-1.21,-1.21,-1.21
50.46,-2.09,-0.86,-2.07,-0.85,0.85,0.30,0.74,-1.23,-1.22,-1.22
50.96,-2.04,-0.80,-2.01,-0.78,0.78,0.25,0.63,-1.26,-1.23,-1.24
51.47,-1.97,-0.71,-1.95,-0.70,0.70,0.21,0.52,-1.26,-1.25,-1.26
51.99,-1.90,-0.63,-1.89,-0.63,0.63,0.17,0.41,-1.27,-1.26,-1.26
52.51,-1.81,-0.53,-1.83,-0.55,0.55,0.13,0.31,-1.25,-1.27,-1.27
53.03,-1.72,-0.44,-1.77,-0.49,0.49,0.09,0.20,-1.23,-1.28,-1.28
53.56,-1.69,-0.39,-1.71,-0.42,0.42,0.05,0.10,-1.27,-1.30,-1.30
54.10,-1.64,-0.33,-1.66,-0.35,0.35,0.01,0.00,-1.29,-1.31,-1.30
54.64,-1.54,-0.21,-1.60,-0.28,0.28,-0.02,-0.09,-1.26,-1.32,-1.32
55.18,-1.49,-0.16,-1.54,-0.22,0.22,-0.06,-0.19,-1.27,-1.33,-1.33
55.74,-1.56,-0.21,-1.50,-0.16,0.16,-0.10,-0.28,-1.40,-1.34,-1.34
56.29,-1.54,-0.18,-1.45,-0.10,0.10,-0.14,-0.37,-1.43,-1.35,-1.36
56.86,-1.45,-0.08,-1.41,-0.04,0.04,-0.18,-0.45,-1.41,-1.37,-1.36
57.42,-1.39,0.01,-1.36,0.02,-0.02,-0.22,-0.54,-1.41,-1.38,-1.40
58.00,-1.33,0.08,-1.31,0.09,-0.09,-0.25,-0.62,-1.42,-1.40,-1.41
58.58,-1.27,0.15,-1.26,0.16,-0.16,-0.29,-0.69,-1.43,-1.42,-1.42
59.16,-1.20,0.24,-1.22,0.23,-0.23,-0.33,-0.76,-1.43,-1.45,-1.44
59.76,-1.11,0.35,-1.17,0.31,-0.31,-0.37,-0.83,-1.41,-1.48,-1.45
60.35,-1.11,0.39,-1.14,0.37,-0.37,-0.40,-0.90,-1.48,-1.51,-1.50
60.96,-1.18,0.36,-1.10,0.44,-0.44,-0.44,-0.96,-1.62,-1.54,-1.53
61.57,-1.10,0.48,-1.07,0.51,-0.51,-0.48,-1.02,-1.61,-1.58,-1.57
62.18,-1.00,0.62,-1.03,0.59,-0.59,-0.52,-1.08,-1.59,-1.62,-1.62
62.80,-0.90,0.77,-0.99,0.66,-0.66,-0.55,-1.13,-1.56,-1.66,-1.67
63.43,-0.90,0.81,-0.96,0.74,-0.74,-0.59,-1.18,-1.63,-1.70,-1.71
64.07,-0.93,0.83,-0.93,0.81,-0.81,-0.63,-1.22,-1.74,-1.74,-1.75
64.71,-0.93,0.87,-0.91,0.88,-0.88,-0.67,-1.26,-1.81,-1.79,-1.79
65.35,-0.95,0.89,-0.88,0.96,-0.96,-0.70,-1.30,-1.90,-1.84,-1.84
66.01,-0.99,0.90,-0.86,1.03,-1.03,-0.74,-1.34,-2.01,-1.88,-1.88
66.67,-0.89,1.05,-0.83,1.10,-1.10,-0.78,-1.37,-1.98,-1.93,-1.93
67.33,-0.81,1.18,-0.81,1.17,-1.17,-0.82,-1.40,-1.98,-1.98,-1.99
68.01,-0.76,1.27,-0.79,1.24,-1.24,-0.86,-1.43,-2.00,-2.03,-2.02
68.69,-0.70,1.38,-0.77,1.30,-1.30,-0.89,-1.45,-2.00,-2.08,-2.07
69.37,-0.70,1.43,-0.76,1.36,-1.36,-0.93,-1.48,-2.06,-2.13,-2.13
70.07,-0.73,1.45,-0.75,1.43,-1.43,-0.97,-1.50,-2.15,-2.18,-2.17
70.77,-0.73,1.50,-0.74,1.50,-1.50,-1.01,-1.52,-2.22,-2.23,-2.22
71.48,-0.73,1.55,-0.72,1.57,-1.57,-1.05,-1.54,-2.29,-2.29,-2.27
72.19,-0.73,1.62,-0.71,1.63,-1.63,-1.09,-1.56,-2.36,-2.35,-2.35
72.91,-0.73,1.68,-0.71,1.69,-1.69,-1.13,-1.57,-2.42,-2.40,-2.41
73.64,-0.73,1.73,-0.71,1.75,-1.75,-1.17,-1.59,-2.48,-2.46,-2.46
74.38,-0.73,1.79,-0.71,1.80,-1.80,-1.21,-1.61,-2.53,-2.51,-2.51
75.12,-0.73,1.85,-0.72,1.85,-1.85,-1.25,-1.62,-2.58,-2.57,-2.58
75.87,-0.73,1.91,-0.72,1.91,-1.91,-1.29,-1.64,-2.63,-2.62,-2.64
76.63,-0.73,1.96,-0.72,1.96,-1.96,-1.33,-1.66,-2.69,-2.68,-2.69
77.40,-0.73,2.01,-0.71,2.02,-2.02,-1.37,-1.67,-2.75,-2.73,-2.73
78.17,-0.73,2.07,-0.71,2.08,-2.08,-1.41,-1.69,-2.81,-2.79,-2.80
78.95,-0.73,2.11,-0.71,2.13,-2.13,-1.46,-1.71,-2.85,-2.84,-2.84
79.74,-0.73,2.16,-0.73,2.16,-2.16,-1.50,-1.73,-2.88,-2.89,-2.89
80.54,-0.73,2.21,-0.74,2.19,-2.19,-1.54,-1.75,-2.92,-2.93,-2.94
81.35,-0.73,2.26,-0.76,2.22,-2.22,-1.58,-1.77,-2.95,-2.98,-2.98
82.16,-0.73,2.31,-0.78,2.25,-2.25,-1.63,-1.79,-2.98,-3.03,-3.04
82.98,-0.73,2.35,-0.80,2.27,-2.27,-1.67,-1.82,-3.00,-3.08,-3.08
83.81,-0.83,2.30,-0.83,2.29,-2.29,-1.71,-1.84,-3.12,-3.13,-3.13
84.65,-0.84,2.34,-0.87,2.31,-2.31,-1.75,-1.87,-3.14,-3.17,-3.18
85.50,-0.88,2.34,-0.90,2.32,-2.32,-1.80,-1.90,-3.20,-3.22,-3.21
86.35,-0.99,2.28,-0.93,2.34,-2.34,-1.84,-1.93,-3.33,-3.27,-3.27
87.22,-1.10,2.22,-0.97,2.36,-2.36,-1.88,-1.96,-3.45,-3.32,-3.31
88.09,-1.06,2.31,-1.00,2.37,-2.37,-1.93,-1.99,-3.43,-3.37,-3.36
88.97,-0.95,2.48,-1.03,2.39,-2.39,-1.97,-2.03,-3.34,-3.42,-3.42
89.86,-1.05,2.43,-1.05,2.42,-2.42,-2.02,-2.07,-3.46,-3.47,-3.47
90.76,-1.12,2.41,-1.08,2.45,-2.45,-2.06,-2.10,-3.56,-3.52,-3.52
91.66,-1.12,2.46,-1.09,2.48,-2.48,-2.10,-2.14,-3.60,-3.57,-3.58
92.58,-1.12,2.52,-1.10,2.52,-2.52,-2.15,-2.19,-3.64,-3.63,-3.64
93.51,-1.12,2.57,-1.11,2.57,-2.57,-2.19,-2.23,-3.68,-3.68,-3.68
94.44,-1.12,2.61,-1.12,2.61,-2.61,-2.23,-2.27,-3.72,-3.73,-3.73
95.39,-1.13,2.65,-1.13,2.65,-2.65,-2.28,-2.32,-3.77,-3.78,-3.77
96.34,-1.13,2.70,-1.13,2.69,-2.69,-2.32,-2.37,-3.82,-3.82,-3.83
97.30,-1.13,2.75,-1.14,2.73,-2.73,-2.36,-2.42,-3.86,-3.87,-3.88
98.28,-1.14,2.79,-1.16,2.76,-2.76,-2.41,-2.47,-3.90,-3.92,-3.92
99.26,-1.16,2.81,-1.18,2.79,-2.79,-2.45,-2.52,-3.95,-3.97,-3.97
100.25,-1.18,2.84,-1.19,2.83,-2.83,-2.49,-2.57,-4.00,-4.02,-4.02
101.25,-1.20,2.87,-1.22,2.85,-2.85,-2.53,-2.63,-4.05,-4.06,-4.07
102.27,-1.26,2.86,-1.25,2.86,-2.86,-2.57,-2.68,-4.12,-4.11,-4.11
103.29,-1.32,2.85,-1.28,2.88,-2.88,-2.61,-2.73,-4.19,-4.16,-4.17
104.32,-1.36,2.85,-1.32,2.89,-2.89,-2.65,-2.79,-4.25,-4.21,-4.21
105.37,-1.33,2.93,-1.36,2.90,-2.90,-2.69,-2.84,-4.23,-4.26,-4.25
106.42,-1.33,2.98,-1.41,2.91,-2.91,-2.73,-2.89,-4.23,-4.31,-4.31
107.48,-1.45,2.92,-1.45,2.91,-2.91,-2.77,-2.95,-4.36,-4.37,-4.37
108.56,-1.54,2.88,-1.50,2.92,-2.92,-2.81,-3.00,-4.45,-4.42,-4.41
109.64,-1.56,2.91,-1.55,2.92,-2.92,-2.84,-3.05,-4.47,-4.47,-4.47
110.74,-1.62,2.91,-1.60,2.92,-2.92,-2.88,-3.10,-4.53,-4.52,-4.53
111.85,-1.74,2.83,-1.65,2.92,-2.92,-2.91,-3.14,-4.66,-4.57,-4.56
112.97,-1.67,2.96,-1.70,2.93,-2.93,-2.94,-3.19,-4.59,-4.62,-4.62
114.10,-1.70,2.98,-1.74,2.94,-2.94,-2.97,-3.23,-4.63,-4.67,-4.67
115.24,-1.81,2.92,-1.78,2.94,-2.94,-3.00,-3.27,-4.75,-4.72,-4.72
116.39,-1.83,2.95,-1.83,2.93,-2.93,-3.03,-3.30,-4.76,-4.76,-4.78
117.55,-1.88,2.94,-1.88,2.93,-2.93,-3.06,-3.33,-4.80,-4.81,-4.82
118.73,-1.94,2.92,-1.92,2.93,-2.93,-3.09,-3.36,-4.87,-4.85,-4.86
119.92,-2.00,2.89,-1.94,2.94,-2.94,-3.11,-3.38,-4.93,-4.88,-4.88
121.12,-1.99,2.94,-1.98,2.94,-2.94,-3.13,-3.40,-4.92,-4.92,-4.92
122.33,-1.99,2.97,-2.03,2.92,-2.92,-3.15,-3.41,-4.91,-4.95,-4.95
123.55,-2.03,2.96,-2.07,2.91,-2.91,-3.17,-3.42,-4.94,-4.99,-4.99
124.79,-2.08,2.94,-2.11,2.90,-2.90,-3.19,-3.43,-4.98,-5.02,-5.01
126.03,-2.15,2.90,-2.16,2.89,-2.89,-3.20,-3.43,-5.03,-5.05,-5.05
127.29,-2.26,2.81,-2.20,2.88,-2.88,-3.22,-3.42,-5.14,-5.08,-5.07
128.57,-2.29,2.82,-2.23,2.88,-2.88,-3.23,-3.41,-5.16,-5.11,-5.10
129.85,-2.18,2.96,-2.26,2.87,-2.87,-3.24,-3.39,-5.05,-5.14,-5.14
131.15,-2.28,2.89,-2.30,2.87,-2.87,-3.25,-3.37,-5.14,-5.16,-5.17
132.46,-2.39,2.81,-2.33,2.86,-2.86,-3.25,-3.35,-5.25,-5.19,-5.20
133.79,-2.50,2.73,-2.37,2.85,-2.85,-3.26,-3.32,-5.35,-5.22,-5.22
135.12,-2.46,2.80,-2.40,2.84,-2.84,-3.26,-3.28,-5.30,-5.25,-5.26
136.48,-2.37,2.91,-2.44,2.83,-2.83,-3.26,-3.25,-5.20,-5.28,-5.27
137.84,-2.43,2.89,-2.48,2.82,-2.82,-3.25,-3.21,-5.25,-5.30,-5.32
139.22,-2.49,2.86,-2.52,2.82,-2.82,-3.25,-3.17,-5.30,-5.33,-5.35
140.61,-2.52,2.86,-2.55,2.81,-2.81,-3.24,-3.12,-5.33,-5.36,-5.38
142.02,-2.59,2.81,-2.59,2.81,-2.81,-3.23,-3.07,-5.39,-5.39,-5.40
143.44,-2.61,2.82,-2.63,2.80,-2.80,-3.22,-3.02,-5.40,-5.43,-5.42
144.87,-2.68,2.79,-2.68,2.79,-2.79,-3.21,-2.97,-5.47,-5.47,-5.47
146.32,-2.72,2.79,-2.71,2.80,-2.80,-3.20,-2.92,-5.52,-5.51,-5.51
147.78,-2.78,2.76,-2.75,2.81,-2.81,-3.18,-2.87,-5.59,-5.56,-5.54
149.26,-2.85,2.74,-2.79,2.82,-2.82,-3.16,-2.81,-5.67,-5.61,-5.59
150.75,-2.91,2.74,-2.85,2.83,-2.83,-3.14,-2.76,-5.73,-5.67,-5.65
152.26,-2.92,2.80,-2.90,2.83,-2.83,-3.12,-2.70,-5.75,-5.73,-5.72
153.78,-2.92,2.87,-2.95,2.85,-2.85,-3.10,-2.65,-5.76,-5.80,-5.79
155.32,-2.97,2.89,-3.01,2.86,-2.86,-3.07,-2.60,-5.83,-5.87,-5.86
156.88,-3.02,2.92,-3.06,2.88,-2.88,-3.05,-2.54,-5.90,-5.94,-5.93
158.44,-3.09,2.93,-3.10,2.91,-2.91,-3.02,-2.49,-5.99,-6.01,-6.02
160.03,-3.14,2.96,-3.16,2.92,-2.92,-2.99,-2.44,-6.05,-6.08,-6.09
161.63,-3.21,2.96,-3.22,2.92,-2.92,-2.96,-2.39,-6.13,-6.14,-6.16
163.24,-3.28,2.95,-3.27,2.93,-2.93,-2.93,-2.34,-6.21,-6.20,-6.23
164.88,-3.35,2.93,-3.33,2.93,-2.93,-2.90,-2.29,-6.28,-6.26,-6.27
166.53,-3.41,2.92,-3.38,2.92,-2.92,-2.86,-2.24,-6.33,-6.31,-6.32
168.19,-3.50,2.87,-3.44,2.91,-2.91,-2.83,-2.20,-6.40,-6.35,-6.37
169.87,-3.54,2.87,-3.50,2.88,-2.88,-2.79,-2.15,-6.41,-6.38,-6.41
171.57,-3.54,2.89,-3.56,2.85,-2.85,-2.76,-2.11,-6.38,-6.41,-6.43
173.29,-3.55,2.89,-3.61,2.81,-2.81,-2.72,-2.07,-6.36,-6.43,-6.44
175.02,-3.69,2.76,-3.67,2.77,-2.77,-2.68,-2.03,-6.46,-6.44,-6.45
176.77,-3.80,2.66,-3.71,2.74,-2.74,-2.64,-1.99,-6.53,-6.45,-6.46
178.54,-3.73,2.74,-3.76,2.70,-2.70,-2.60,-1.96,-6.42,-6.46,-6.47
180.32,-3.76,2.70,-3.80,2.66,-2.66,-2.56,-1.92,-6.41,-6.46,-6.46
182.13,-3.84,2.61,-3.85,2.62,-2.62,-2.52,-1.89,-6.46,-6.47,-6.45
183.95,-3.91,2.55,-3.89,2.58,-2.58,-2.48,-1.86,-6.49,-6.47,-6.46
185.79,-3.95,2.51,-3.93,2.56,-2.56,-2.44,-1.83,-6.50,-6.48,-6.46
187.65,-4.01,2.47,-3.96,2.53,-2.53,-2.40,-1.80,-6.53,-6.49,-6.48
189.52,-4.01,2.48,-4.01,2.49,-2.49,-2.36,-1.77,-6.50,-6.50,-6.49
191.42,-4.05,2.46,-4.06,2.45,-2.45,-2.31,-1.75,-6.50,-6.51,-6.51
193.33,-4.09,2.44,-4.10,2.43,-2.43,-2.27,-1.72,-6.51,-6.53,-6.53
195.27,-4.14,2.41,-4.13,2.41,-2.41,-2.23,-1.70,-6.55,-6.54,-6.54
197.22,-4.17,2.40,-4.17,2.39,-2.39,-2.19,-1.68,-6.55,-6.56,-6.57
199.19,-4.22,2.37,-4.23,2.35,-2.35,-2.14,-1.66,-6.57,-6.58,-6.59
201.18,-4.25,2.36,-4.27,2.33,-2.33,-2.10,-1.64,-6.58,-6.60,-6.61
203.19,-4.28,2.35,-4.31,2.31,-2.31,-2.06,-1.62,-6.59,-6.62,-6.63
205.23,-4.33,2.32,-4.36,2.29,-2.29,-2.01,-1.60,-6.61,-6.64,-6.65
207.28,-4.48,2.18,-4.41,2.25,-2.25,-1.97,-1.59,-6.73,-6.66,-6.66
209.35,-4.54,2.14,-4.47,2.21,-2.21,-1.93,-1.57,-6.75,-6.68,-6.68
211.44,-4.53,2.18,-4.52,2.18,-2.18,-1.88,-1.55,-6.70,-6.70,-6.71
213.56,-4.50,2.22,-4.57,2.14,-2.14,-1.84,-1.54,-6.64,-6.71,-6.72
215.69,-4.56,2.17,-4.62,2.10,-2.10,-1.80,-1.52,-6.66,-6.73,-6.73
217.85,-4.76,1.98,-4.67,2.07,-2.07,-1.75,-1.51,-6.82,-6.74,-6.74
220.03,-4.74,2.01,-4.72,2.03,-2.03,-1.71,-1.49,-6.76,-6.75,-6.75
222.23,-4.76,2.02,-4.78,1.98,-1.98,-1.66,-1.48,-6.73,-6.75,-6.78
224.45,-4.83,1.94,-4.83,1.92,-1.92,-1.62,-1.46,-6.75,-6.76,-6.77
226.70,-4.94,1.83,-4.89,1.87,-1.87,-1.58,-1.44,-6.81,-6.76,-6.77
228.96,-4.99,1.77,-4.93,1.82,-1.82,-1.53,-1.43,-6.81,-6.75,-6.76
231.25,-4.93,1.82,-4.97,1.78,-1.78,-1.49,-1.41,-6.70,-6.74,-6.75
233.57,-4.91,1.83,-5.01,1.72,-1.72,-1.45,-1.39,-6.63,-6.73,-6.74
235.90,-5.05,1.68,-5.06,1.66,-1.66,-1.40,-1.37,-6.71,-6.72,-6.73
238.26,-5.11,1.61,-5.10,1.61,-1.61,-1.36,-1.35,-6.71,-6.70,-6.72
240.64,-5.17,1.52,-5.12,1.56,-1.56,-1.32,-1.33,-6.73,-6.68,-6.69
243.05,-5.23,1.43,-5.15,1.51,-1.51,-1.27,-1.31,-6.74,-6.66,-6.66
245.48,-5.28,1.36,-5.19,1.45,-1.45,-1.23,-1.28,-6.72,-6.64,-6.64
247.93,-5.23,1.38,-5.23,1.39,-1.39,-1.19,-1.26,-6.61,-6.61,-6.61
250.41,-5.18,1.41,-5.26,1.33,-1.33,-1.14,-1.23,-6.51,-6.59,-6.58
252.92,-5.24,1.32,-5.29,1.28,-1.28,-1.10,-1.20,-6.51,-6.57,-6.56
255.45,-5.30,1.24,-5.33,1.22,-1.22,-1.05,-1.17,-6.51,-6.54,-6.54
258.00,-5.37,1.15,-5.36,1.16,-1.16,-1.01,-1.14,-6.52,-6.52,-6.52
260.58,-5.36,1.14,-5.39,1.11,-1.11,-0.96,-1.11,-6.46,-6.49,-6.50
263.19,-5.40,1.07,-5.41,1.06,-1.06,-0.92,-1.07,-6.45,-6.47,-6.47
265.82,-5.47,0.98,-5.44,1.00,-1.00,-0.87,-1.04,-6.47,-6.44,-6.45
268.48,-5.59,0.84,-5.48,0.94,-0.94,-0.82,-1.00,-6.53,-6.42,-6.43
271.16,-5.60,0.80,-5.52,0.87,-0.87,-0.78,-0.96,-6.47,-6.39,-6.40
273.87,-5.55,0.83,-5.58,0.79,-0.79,-0.73,-0.92,-6.34,-6.37,-6.37
276.61,-5.58,0.77,-5.64,0.71,-0.71,-0.68,-0.88,-6.28,-6.34,-6.35
279.38,-5.65,0.67,-5.69,0.63,-0.63,-0.63,-0.83,-6.27,-6.32,-6.32
282.17,-5.66,0.64,-5.74,0.55,-0.55,-0.58,-0.79,-6.21,-6.29,-6.30
284.99,-5.75,0.51,-5.79,0.47,-0.47,-0.53,-0.74,-6.21,-6.26,-6.26
287.84,-5.86,0.38,-5.85,0.38,-0.38,-0.48,-0.70,-6.24,-6.23,-6.23
290.72,-5.95,0.26,-5.91,0.29,-0.29,-0.42,-0.65,-6.24,-6.20,-6.21
293.63,-6.03,0.15,-5.97,0.20,-0.20,-0.37,-0.60,-6.23,-6.17,-6.18
296.57,-6.07,0.08,-6.03,0.11,-0.11,-0.31,-0.55,-6.18,-6.14,-6.15
299.53,-6.14,-0.02,-6.09,0.02,-0.02,-0.25,-0.50,-6.16,-6.12,-6.12
302.53,-6.18,-0.08,-6.16,-0.07,0.07,-0.20,-0.45,-6.10,-6.09,-6.10
305.55,-6.20,-0.14,-6.22,-0.16,0.16,-0.13,-0.40,-6.03,-6.06,-6.06
308.61,-6.25,-0.21,-6.29,-0.25,0.25,-0.07,-0.35,-6.00,-6.04,-6.04
311.69,-6.36,-0.35,-6.35,-0.33,0.33,-0.01,-0.30,-6.02,-6.01,-6.01
314.81,-6.45,-0.46,-6.41,-0.42,0.42,0.06,-0.25,-6.03,-5.99,-5.99
317.96,-6.48,-0.51,-6.47,-0.50,0.50,0.13,-0.19,-5.97,-5.97,-5.97
321.14,-6.53,-0.57,-6.54,-0.59,0.59,0.20,-0.14,-5.94,-5.95,-5.96
324.35,-6.58,-0.64,-6.61,-0.68,0.68,0.27,-0.08,-5.90,-5.94,-5.94
327.59,-6.67,-0.74,-6.68,-0.76,0.76,0.35,-0.03,-5.91,-5.92,-5.93
330.87,-6.72,-0.80,-6.76,-0.85,0.85,0.43,0.03,-5.87,-5.91,-5.92
334.18,-6.78,-0.88,-6.83,-0.94,0.94,0.51,0.08,-5.84,-5.90,-5.90
337.52,-6.88,-0.99,-6.91,-1.02,1.02,0.59,0.14,-5.85,-5.89,-5.89
340.90,-7.03,-1.15,-6.98,-1.10,1.10,0.68,0.20,-5.92,-5.88,-5.88
344.30,-7.11,-1.24,-7.05,-1.18,1.18,0.77,0.25,-5.93,-5.87,-5.87
347.75,-7.17,-1.30,-7.12,-1.25,1.25,0.86,0.31,-5.92,-5.87,-5.87
351.23,-7.24,-1.38,-7.18,-1.32,1.32,0.96,0.37,-5.92,-5.86,-5.86
354.74,-7.28,-1.41,-7.25,-1.39,1.39,1.06,0.43,-5.89,-5.86,-5.87
358.28,-7.28,-1.42,-7.31,-1.46,1.46,1.16,0.49,-5.82,-5.85,-5.86
361.87,-7.34,-1.48,-7.37,-1.52,1.52,1.26,0.55,-5.82,-5.85,-5.86
365.49,-7.45,-1.60,-7.43,-1.58,1.58,1.36,0.61,-5.87,-5.85,-5.85
369.14,-7.47,-1.61,-7.48,-1.63,1.63,1.47,0.67,-5.84,-5.85,-5.86
372.83,-7.50,-1.64,-7.53,-1.68,1.68,1.58,0.73,-5.82,-5.85,-5.86
376.56,-7.54,-1.67,-7.57,-1.71,1.71,1.68,0.79,-5.82,-5.86,-5.87
380.33,-7.61,-1.75,-7.61,-1.75,1.75,1.79,0.85,-5.86,-5.86,-5.86
384.13,-7.65,-1.79,-7.65,-1.79,1.79,1.89,0.91,-5.86,-5.86,-5.86
387.97,-7.71,-1.84,-7.69,-1.82,1.82,1.99,0.98,-5.88,-5.87,-5.87
391.85,-7.78,-1.90,-7.73,-1.86,1.86,2.08,1.04,-5.92,-5.87,-5.88
395.77,-7.82,-1.95,-7.77,-1.89,1.89,2.17,1.10,-5.92,-5.88,-5.87
399.73,-7.83,-1.95,-7.81,-1.93,1.93,2.25,1.16,-5.89,-5.88,-5.88
403.72,-7.83,-1.95,-7.85,-1.96,1.96,2.32,1.22,-5.86,-5.89,-5.88
407.76,-7.83,-1.93,-7.89,-2.00,2.00,2.38,1.28,-5.83,-5.89,-5.90
411.84,-7.87,-1.97,-7.93,-2.03,2.03,2.43,1.34,-5.84,-5.90,-5.90
415.96,-7.93,-2.03,-7.96,-2.06,2.06,2.46,1.39,-5.87,-5.90,-5.90
420.12,-7.96,-2.06,-7.98,-2.08,2.08,2.49,1.45,-5.87,-5.89,-5.90
424.32,-8.02,-2.12,-7.99,-2.11,2.11,2.49,1.50,-5.91,-5.89,-5.90
428.56,-8.02,-2.13,-8.01,-2.13,2.13,2.49,1.56,-5.89,-5.88,-5.89
432.85,-8.03,-2.15,-8.01,-2.15,2.15,2.46,1.61,-5.88,-5.86,-5.88
