frequency,raw,error,smoothed,error_smoothed,equalization,parametric_eq,fixed_band_eq,equalized_raw,equalized_smoothed,target
20.00,-1.73,-11.90,-1.70,-11.88,11.88,11.41,4.50,10.15,10.18,10.17
20.20,-1.65,-11.81,-1.63,-11.80,11.80,11.42,4.62,10.15,10.16,10.16
20.40,-1.57,-11.72,-1.56,-11.72,11.72,11.42,4.74,10.15,10.16,10.15
20.61,-1.49,-11.64,-1.49,-11.64,11.64,11.42,4.87,10.15,10.15,10.15
20.81,-1.40,-11.53,-1.43,-11.56,11.56,11.41,4.99,10.16,10.14,10.13
21.02,-1.32,-11.45,-1.36,-11.49,11.49,11.39,5.13,10.17,10.13,10.13
21.23,-1.27,-11.39,-1.29,-11.42,11.42,11.37,5.26,10.14,10.12,10.12
21.44,-1.22,-11.35,-1.23,-11.34,11.34,11.34,5.40,10.12,10.12,10.13
21.66,-1.16,-11.28,-1.16,-11.27,11.27,11.31,5.54,10.11,10.11,10.12
21.87,-1.11,-11.22,-1.10,-11.20,11.20,11.28,5.69,10.09,10.10,10.11
22.09,-1.05,-11.15,-1.03,-11.13,11.13,11.24,5.84,10.08,10.10,10.10
22.31,-0.98,-11.08,-0.97,-11.06,11.06,11.20,6.00,10.08,10.09,10.10
22.54,-0.90,-10.99,-0.91,-11.00,11.00,11.15,6.16,10.10,10.09,10.09
22.76,-0.83,-10.91,-0.86,-10.94,10.94,11.10,6.32,10.11,10.08,10.08
22.99,-0.75,-10.82,-0.80,-10.88,10.88,11.04,6.49,10.13,10.08,10.07
23.22,-0.71,-10.77,-0.74,-10.81,10.81,10.98,6.66,10.10,10.08,10.06
23.45,-0.68,-10.75,-0.67,-10.75,10.75,10.92,6.83,10.06,10.07,10.07
23.69,-0.64,-10.70,-0.61,-10.68,10.68,10.86,7.02,10.04,10.07,10.06
23.92,-0.60,-10.66,-0.54,-10.61,10.61,10.80,7.20,10.01,10.07,10.06
24.16,-0.53,-10.60,-0.48,-10.55,10.55,10.73,7.39,10.02,10.07,10.07
24.40,-0.44,-10.52,-0.42,-10.49,10.49,10.66,7.58,10.05,10.07,10.08
24.65,-0.35,-10.43,-0.35,-10.43,10.43,10.59,7.78,10.07,10.07,10.08
24.89,-0.26,-10.34,-0.29,-10.37,10.37,10.52,7.98,10.11,10.07,10.08
25.14,-0.19,-10.26,-0.23,-10.31,10.31,10.45,8.19,10.12,10.07,10.07
25.39,-0.14,-10.21,-0.17,-10.25,10.25,10.38,8.39,10.11,10.08,10.07
25.65,-0.09,-10.16,-0.11,-10.19,10.19,10.31,8.60,10.10,10.08,10.07
25.91,-0.04,-10.12,-0.05,-10.13,10.13,10.24,8.82,10.09,10.08,10.08
26.16,0.01,-10.08,0.02,-10.07,10.07,10.16,9.03,10.08,10.08,10.09
26.43,0.07,-10.02,0.07,-10.01,10.01,10.09,9.25,10.08,10.08,10.09
26.69,0.12,-9.97,0.13,-9.95,9.95,10.02,9.46,10.07,10.08,10.09
26.96,0.17,-9.91,0.18,-9.90,9.90,9.95,9.68,10.07,10.08,10.08
27.23,0.23,-9.85,0.24,-9.85,9.85,9.87,9.89,10.08,10.08,10.08
27.50,0.29,-9.79,0.29,-9.80,9.80,9.80,10.11,10.08,10.08,10.08
27.77,0.34,-9.75,0.34,-9.74,9.74,9.73,10.31,10.08,10.08,10.09
28.05,0.40,-9.69,0.40,-9.69,9.69,9.66,10.51,10.09,10.08,10.09
28.33,0.46,-9.61,0.46,-9.63,9.63,9.59,10.71,10.09,10.08,10.07
28.62,0.51,-9.56,0.52,-9.56,9.56,9.53,10.89,10.07,10.08,10.07
28.90,0.57,-9.51,0.58,-9.50,9.50,9.46,11.06,10.07,10.08,10.08
29.19,0.63,-9.45,0.63,-9.44,9.44,9.39,11.22,10.07,10.08,10.08
29.48,0.69,-9.38,0.69,-9.38,9.38,9.33,11.37,10.07,10.07,10.07
29.78,0.75,-9.32,0.75,-9.32,9.32,9.27,11.49,10.07,10.07,10.07
30.08,0.81,-9.27,0.81,-9.26,9.26,9.20,11.60,10.07,10.07,10.08
30.38,0.87,-9.20,0.86,-9.20,9.20,9.14,11.68,10.06,10.06,10.07
30.68,0.93,-9.12,0.92,-9.13,9.13,9.08,11.75,10.06,10.05,10.05
30.99,0.99,-9.06,0.97,-9.07,9.07,9.02,11.79,10.06,10.05,10.05
31.30,1.03,-9.01,1.02,-9.02,9.02,8.97,11.80,10.05,10.04,10.04
31.61,1.07,-8.96,1.07,-8.96,8.96,8.91,11.80,10.03,10.03,10.03
31.93,1.11,-8.91,1.12,-8.91,8.91,8.85,11.77,10.02,10.03,10.02
32.24,1.17,-8.85,1.17,-8.85,8.85,8.80,11.71,10.02,10.02,10.02
32.57,1.23,-8.77,1.22,-8.80,8.80,8.75,11.63,10.03,10.01,10.00
32.89,1.29,-8.71,1.27,-8.74,8.74,8.69,11.54,10.03,10.01,10.00
33.22,1.33,-8.67,1.32,-8.68,8.68,8.64,11.42,10.01,10.00,10.00
33.55,1.35,-8.64,1.37,-8.62,8.62,8.59,11.29,9.97,10.00,9.99
33.89,1.38,-8.62,1.42,-8.57,8.57,8.54,11.15,9.95,9.99,10.00
34.23,1.44,-8.54,1.47,-8.52,8.52,8.49,10.99,9.96,9.99,9.98
34.57,1.50,-8.48,1.52,-8.46,8.46,8.44,10.82,9.96,9.98,9.98
34.92,1.57,-8.40,1.57,-8.40,8.40,8.40,10.64,9.97,9.98,9.97
35.27,1.64,-8.34,1.62,-8.35,8.35,8.35,10.46,9.99,9.97,9.98
35.62,1.71,-8.25,1.67,-8.29,8.29,8.30,10.27,10.00,9.96,9.96
35.97,1.78,-8.18,1.71,-8.24,8.24,8.25,10.08,10.02,9.95,9.96
36.33,1.79,-8.15,1.75,-8.18,8.18,8.21,9.88,9.97,9.94,9.94
36.70,1.79,-8.14,1.80,-8.13,8.13,8.16,9.69,9.91,9.92,9.93
37.06,1.80,-8.11,1.84,-8.06,8.06,8.11,9.49,9.86,9.90,9.91
37.43,1.88,-8.01,1.90,-7.99,7.99,8.06,9.30,9.87,9.89,9.89
37.81,1.95,-7.92,1.95,-7.92,7.92,8.01,9.11,9.87,9.86,9.87
38.19,2.00,-7.84,1.99,-7.85,7.85,7.96,8.92,9.85,9.84,9.84
38.57,2.01,-7.81,2.04,-7.78,7.78,7.91,8.73,9.79,9.82,9.82
38.95,2.02,-7.77,2.08,-7.71,7.71,7.86,8.55,9.73,9.79,9.79
39.34,2.09,-7.66,2.13,-7.64,7.64,7.81,8.37,9.73,9.76,9.75
39.74,2.17,-7.56,2.17,-7.56,7.56,7.76,8.19,9.73,9.74,9.73
40.14,2.24,-7.46,2.22,-7.49,7.49,7.70,8.02,9.73,9.71,9.70
40.54,2.32,-7.36,2.27,-7.41,7.41,7.65,7.86,9.73,9.68,9.68
40.94,2.39,-7.26,2.32,-7.34,7.34,7.59,7.70,9.73,9.65,9.65
41.35,2.40,-7.23,2.36,-7.27,7.27,7.53,7.54,9.67,9.63,9.63
41.76,2.40,-7.19,2.40,-7.20,7.20,7.47,7.39,9.60,9.60,9.59
42.18,2.42,-7.15,2.44,-7.13,7.13,7.41,7.24,9.55,9.57,9.57
42.60,2.46,-7.09,2.48,-7.06,7.06,7.35,7.10,9.52,9.55,9.55
43.03,2.50,-7.02,2.53,-6.99,6.99,7.28,6.97,9.49,9.52,9.52
43.46,2.55,-6.94,2.57,-6.93,6.93,7.21,6.84,9.48,9.49,9.49
43.90,2.59,-6.88,2.60,-6.87,6.87,7.14,6.71,9.46,9.47,9.47
44.33,2.63,-6.80,2.63,-6.80,6.80,7.07,6.59,9.43,9.44,9.43
44.78,2.67,-6.73,2.67,-6.73,6.73,7.00,6.47,9.40,9.41,9.40
45.23,2.72,-6.67,2.71,-6.66,6.66,6.93,6.36,9.38,9.37,9.39
45.68,2.76,-6.58,2.76,-6.58,6.58,6.85,6.25,9.34,9.34,9.34
46.13,2.81,-6.49,2.80,-6.50,6.50,6.77,6.15,9.31,9.30,9.30
46.60,2.86,-6.41,2.85,-6.42,6.42,6.69,6.05,9.28,9.26,9.27
47.06,2.90,-6.33,2.88,-6.34,6.34,6.61,5.96,9.24,9.22,9.23
47.53,2.90,-6.30,2.92,-6.26,6.26,6.53,5.87,9.16,9.18,9.20
48.01,2.90,-6.24,2.95,-6.19,6.19,6.44,5.78,9.09,9.14,9.14
48.49,3.00,-6.09,2.99,-6.11,6.11,6.35,5.70,9.11,9.10,9.09
48.97,3.09,-5.96,3.02,-6.03,6.03,6.27,5.62,9.12,9.05,9.05
49.46,3.10,-5.91,3.06,-5.95,5.95,6.18,5.55,9.05,9.01,9.01
49.96,3.10,-5.84,3.08,-5.88,5.88,6.09,5.47,8.98,8.96,8.94
50.46,3.10,-5.80,3.11,-5.80,5.80,5.99,5.41,8.90,8.91,8.90
50.96,3.10,-5.76,3.14,-5.73,5.73,5.90,5.34,8.83,8.87,8.86
51.47,3.13,-5.69,3.17,-5.65,5.65,5.81,5.28,8.78,8.82,8.82
51.99,3.17,-5.60,3.20,-5.57,5.57,5.71,5.22,8.74,8.77,8.77
52.51,3.24,-5.49,3.23,-5.50,5.50,5.62,5.16,8.73,8.73,8.73
53.03,3.30,-5.40,3.26,-5.42,5.42,5.52,5.10,8.72,8.68,8.70
53.56,3.30,-5.34,3.29,-5.35,5.35,5.42,5.04,8.65,8.63,8.64
54.10,3.30,-5.29,3.31,-5.28,5.28,5.33,4.99,8.58,8.59,8.59
54.64,3.30,-5.25,3.34,-5.21,5.21,5.23,4.94,8.51,8.55,8.55
55.18,3.34,-5.15,3.38,-5.13,5.13,5.13,4.88,8.47,8.50,8.49
55.74,3.45,-4.99,3.42,-5.05,5.05,5.03,4.83,8.50,8.46,8.44
56.29,3.50,-4.91,3.45,-4.97,4.97,4.94,4.78,8.47,8.42,8.41
56.86,3.50,-4.87,3.48,-4.89,4.89,4.84,4.73,8.39,8.38,8.37
57.42,3.50,-4.81,3.51,-4.82,4.82,4.74,4.68,8.32,8.33,8.31
58.00,3.50,-4.78,3.54,-4.74,4.74,4.64,4.62,8.24,8.28,8.28
58.58,3.55,-4.70,3.57,-4.67,4.67,4.55,4.57,8.22,8.24,8.25
59.16,3.61,-4.60,3.60,-4.59,4.59,4.45,4.51,8.20,8.19,8.21
59.76,3.67,-4.50,3.64,-4.50,4.50,4.35,4.45,8.17,8.14,8.17
60.35,3.70,-4.40,3.67,-4.42,4.42,4.26,4.39,8.12,8.09,8.10
60.96,3.70,-4.35,3.70,-4.33,4.33,4.16,4.33,8.03,8.03,8.05
61.57,3.70,-4.28,3.73,-4.25,4.25,4.07,4.27,7.95,7.98,7.98
62.18,3.72,-4.19,3.75,-4.18,4.18,3.97,4.20,7.89,7.92,7.91
62.80,3.79,-4.06,3.78,-4.09,4.09,3.88,4.13,7.88,7.87,7.85
63.43,3.81,-3.98,3.80,-4.00,4.00,3.79,4.06,7.81,7.81,7.79
64.07,3.82,-3.92,3.83,-3.92,3.92,3.70,3.99,7.74,7.75,7.74
64.71,3.88,-3.80,3.85,-3.83,3.83,3.61,3.91,7.71,7.69,7.68
65.35,3.91,-3.71,3.88,-3.75,3.75,3.51,3.83,7.66,7.63,7.62
66.01,3.91,-3.65,3.90,-3.67,3.67,3.43,3.75,7.57,7.56,7.56
66.67,3.91,-3.61,3.92,-3.58,3.58,3.34,3.67,7.49,7.50,7.52
67.33,3.92,-3.52,3.94,-3.50,3.50,3.25,3.58,7.42,7.44,7.44
68.01,3.95,-3.44,3.97,-3.41,3.41,3.16,3.49,7.36,7.38,7.39
68.69,3.99,-3.33,4.00,-3.33,3.33,3.08,3.40,7.31,7.32,7.32
69.37,4.01,-3.26,4.02,-3.24,3.24,2.99,3.31,7.25,7.26,7.27
70.07,4.02,-3.18,4.04,-3.16,3.16,2.91,3.22,7.17,7.20,7.20
70.77,4.09,-3.05,4.06,-3.07,3.07,2.83,3.13,7.16,7.13,7.14
71.48,4.11,-2.96,4.08,-2.99,2.99,2.74,3.03,7.10,7.07,7.07
72.19,4.11,-2.89,4.10,-2.90,2.90,2.66,2.94,7.01,7.00,7.00
72.91,4.11,-2.83,4.12,-2.82,2.82,2.58,2.84,6.93,6.94,6.94
73.64,4.14,-2.73,4.14,-2.74,2.74,2.50,2.74,6.88,6.88,6.87
74.38,4.18,-2.63,4.16,-2.66,2.66,2.42,2.65,6.84,6.82,6.81
75.12,4.21,-2.53,4.18,-2.58,2.58,2.35,2.55,6.79,6.76,6.74
75.87,4.21,-2.49,4.20,-2.50,2.50,2.27,2.45,6.71,6.70,6.70
76.63,4.21,-2.42,4.22,-2.42,2.42,2.19,2.35,6.63,6.64,6.63
77.40,4.21,-2.37,4.24,-2.34,2.34,2.12,2.26,6.55,6.58,6.58
78.17,4.22,-2.30,4.26,-2.26,2.26,2.04,2.16,6.48,6.53,6.52
78.95,4.26,-2.22,4.28,-2.19,2.19,1.97,2.06,6.45,6.47,6.48
79.74,4.30,-2.12,4.30,-2.12,2.12,1.90,1.97,6.42,6.42,6.42
80.54,4.32,-2.04,4.32,-2.04,2.04,1.83,1.87,6.36,6.36,6.36
81.35,4.35,-1.96,4.34,-1.97,1.97,1.76,1.78,6.32,6.31,6.31
82.16,4.41,-1.85,4.35,-1.90,1.90,1.69,1.68,6.31,6.25,6.26
82.98,4.41,-1.79,4.37,-1.82,1.82,1.62,1.59,6.23,6.19,6.20
83.81,4.41,-1.73,4.39,-1.75,1.75,1.55,1.50,6.16,6.14,6.14
84.65,4.41,-1.67,4.41,-1.67,1.67,1.48,1.40,6.08,6.08,6.08
85.50,4.41,-1.60,4.43,-1.59,1.59,1.41,1.31,6.00,6.02,6.01
86.35,4.41,-1.54,4.46,-1.50,1.50,1.34,1.22,5.91,5.96,5.95
87.22,4.43,-1.47,4.48,-1.42,1.42,1.28,1.13,5.85,5.90,5.90
88.09,4.51,-1.32,4.49,-1.34,1.34,1.21,1.04,5.85,5.84,5.83
88.97,4.51,-1.27,4.51,-1.26,1.26,1.15,0.95,5.77,5.77,5.78
89.86,4.51,-1.19,4.53,-1.18,1.18,1.08,0.86,5.69,5.71,5.70
90.76,4.51,-1.13,4.55,-1.10,1.10,1.02,0.78,5.61,5.64,5.64
91.66,4.58,-0.99,4.56,-1.02,1.02,0.95,0.69,5.60,5.57,5.57
92.58,4.62,-0.89,4.57,-0.93,0.93,0.89,0.60,5.55,5.50,5.51
93.51,4.62,-0.82,4.58,-0.85,0.85,0.83,0.52,5.47,5.43,5.44
94.44,4.62,-0.75,4.59,-0.77,0.77,0.76,0.43,5.39,5.36,5.37
95.39,4.62,-0.67,4.60,-0.69,0.69,0.70,0.34,5.30,5.28,5.29
96.34,4.61,-0.60,4.60,-0.60,0.60,0.64,0.26,5.21,5.20,5.21
97.30,4.61,-0.52,4.61,-0.52,0.52,0.58,0.18,5.13,5.12,5.13
98.28,4.60,-0.44,4.61,-0.43,0.43,0.52,0.09,5.03,5.05,5.04
99.26,4.58,-0.37,4.62,-0.35,0.35,0.46,0.01,4.93,4.96,4.95
100.25,4.57,-0.30,4.62,-0.26,0.26,0.40,-0.07,4.83,4.88,4.87
101.25,4.57,-0.23,4.62,-0.18,0.18,0.34,-0.15,4.75,4.80,4.80
102.27,4.60,-0.11,4.62,-0.10,0.10,0.28,-0.23,4.70,4.72,4.71
103.29,4.61,-0.02,4.61,-0.02,0.02,0.22,-0.31,4.63,4.63,4.63
104.32,4.63,0.07,4.61,0.06,-0.06,0.16,-0.39,4.57,4.55,4.56
105.37,4.68,0.20,4.61,0.14,-0.14,0.10,-0.47,4.54,4.47,4.48
106.42,4.66,0.27,4.60,0.21,-0.21,0.04,-0.55,4.45,4.39,4.39
107.48,4.63,0.33,4.59,0.28,-0.28,-0.02,-0.63,4.35,4.31,4.30
108.56,4.61,0.37,4.59,0.35,-0.35,-0.08,-0.70,4.25,4.23,4.24
109.64,4.59,0.44,4.58,0.43,-0.43,-0.14,-0.78,4.16,4.15,4.15
110.74,4.57,0.50,4.58,0.50,-0.50,-0.19,-0.85,4.07,4.08,4.07
111.85,4.55,0.55,4.58,0.57,-0.57,-0.25,-0.92,3.97,4.00,4.00
112.97,4.54,0.61,4.57,0.65,-0.65,-0.31,-0.99,3.89,3.93,3.93
114.10,4.53,0.67,4.57,0.72,-0.72,-0.37,-1.06,3.81,3.85,3.86
115.24,4.53,0.75,4.57,0.79,-0.79,-0.43,-1.13,3.74,3.78,3.78
116.39,4.53,0.83,4.57,0.86,-0.86,-0.49,-1.19,3.67,3.71,3.70
117.55,4.54,0.90,4.58,0.94,-0.94,-0.55,-1.25,3.60,3.64,3.64
118.73,4.61,1.05,4.59,1.01,-1.01,-0.60,-1.31,3.60,3.58,3.56
119.92,4.65,1.15,4.60,1.09,-1.09,-0.66,-1.37,3.56,3.51,3.50
121.12,4.66,1.21,4.62,1.17,-1.17,-0.72,-1.43,3.49,3.45,3.45
122.33,4.67,1.29,4.63,1.25,-1.25,-0.78,-1.49,3.42,3.38,3.38
123.55,4.67,1.34,4.65,1.33,-1.33,-0.84,-1.54,3.34,3.32,3.33
124.79,4.68,1.41,4.67,1.42,-1.42,-0.90,-1.59,3.26,3.26,3.27
126.03,4.69,1.49,4.69,1.50,-1.50,-0.96,-1.64,3.19,3.20,3.20
127.29,4.69,1.55,4.71,1.58,-1.58,-1.02,-1.69,3.11,3.14,3.14
128.57,4.70,1.62,4.73,1.65,-1.65,-1.08,-1.73,3.04,3.08,3.08
129.85,4.71,1.70,4.75,1.73,-1.73,-1.14,-1.78,2.98,3.02,3.01
131.15,4.72,1.77,4.76,1.80,-1.80,-1.20,-1.82,2.92,2.96,2.95
132.46,4.79,1.90,4.77,1.87,-1.87,-1.26,-1.86,2.92,2.90,2.89
133.79,4.82,1.99,4.78,1.94,-1.94,-1.32,-1.90,2.87,2.84,2.83
135.12,4.82,2.05,4.79,2.02,-2.02,-1.38,-1.93,2.80,2.78,2.77
136.48,4.83,2.10,4.80,2.08,-2.08,-1.44,-1.97,2.75,2.72,2.73
137.84,4.83,2.16,4.81,2.15,-2.15,-1.51,-2.01,2.68,2.66,2.67
139.22,4.83,2.24,4.82,2.21,-2.21,-1.57,-2.04,2.61,2.60,2.59
140.61,4.83,2.28,4.82,2.28,-2.28,-1.63,-2.08,2.55,2.54,2.55
142.02,4.83,2.34,4.83,2.35,-2.35,-1.69,-2.11,2.48,2.49,2.49
143.44,4.83,2.41,4.84,2.41,-2.41,-1.76,-2.14,2.42,2.43,2.42
144.87,4.83,2.46,4.85,2.47,-2.47,-1.82,-2.18,2.36,2.38,2.37
146.32,4.83,2.51,4.85,2.53,-2.53,-1.89,-2.21,2.30,2.32,2.32
147.78,4.83,2.57,4.86,2.60,-2.60,-1.95,-2.25,2.23,2.26,2.26
149.26,4.83,2.62,4.87,2.66,-2.66,-2.02,-2.28,2.17,2.21,2.21
150.75,4.85,2.71,4.88,2.73,-2.73,-2.08,-2.32,2.12,2.15,2.14
152.26,4.90,2.80,4.89,2.79,-2.79,-2.15,-2.36,2.10,2.09,2.10
153.78,4.94,2.90,4.90,2.86,-2.86,-2.21,-2.40,2.08,2.04,2.04
155.32,4.94,2.95,4.91,2.93,-2.93,-2.28,-2.44,2.01,1.98,1.99
156.88,4.94,3.01,4.92,2.99,-2.99,-2.35,-2.48,1.94,1.92,1.93
158.44,4.94,3.07,4.93,3.06,-3.06,-2.42,-2.52,1.88,1.87,1.87
160.03,4.94,3.13,4.93,3.12,-3.12,-2.48,-2.57,1.82,1.81,1.81
161.63,4.94,3.19,4.93,3.19,-3.19,-2.55,-2.61,1.75,1.75,1.75
163.24,4.93,3.25,4.93,3.25,-3.25,-2.62,-2.66,1.68,1.69,1.68
164.88,4.93,3.30,4.93,3.31,-3.31,-2.69,-2.71,1.62,1.63,1.63
166.53,4.93,3.37,4.93,3.36,-3.36,-2.76,-2.76,1.57,1.57,1.56
168.19,4.92,3.41,4.92,3.41,-3.41,-2.83,-2.82,1.51,1.51,1.51
169.87,4.91,3.46,4.91,3.46,-3.46,-2.90,-2.88,1.44,1.45,1.45
171.57,4.91,3.53,4.90,3.52,-3.52,-2.98,-2.94,1.39,1.39,1.38
173.29,4.90,3.58,4.90,3.57,-3.57,-3.05,-3.00,1.33,1.33,1.32
175.02,4.89,3.62,4.90,3.63,-3.63,-3.12,-3.06,1.26,1.27,1.27
176.77,4.89,3.67,4.90,3.68,-3.68,-3.19,-3.13,1.21,1.22,1.22
178.54,4.89,3.73,4.90,3.73,-3.73,-3.27,-3.20,1.15,1.16,1.16
180.32,4.89,3.79,4.90,3.79,-3.79,-3.34,-3.27,1.10,1.11,1.10
182.13,4.90,3.84,4.90,3.84,-3.84,-3.42,-3.34,1.06,1.06,1.06
183.95,4.91,3.90,4.91,3.90,-3.90,-3.49,-3.42,1.01,1.01,1.01
185.79,4.92,3.96,4.92,3.96,-3.96,-3.57,-3.50,0.96,0.96,0.96
187.65,4.94,4.02,4.93,4.02,-4.02,-3.64,-3.58,0.92,0.92,0.92
189.52,4.95,4.08,4.95,4.08,-4.08,-3.72,-3.67,0.87,0.87,0.87
191.42,4.96,4.12,4.97,4.14,-4.14,-3.80,-3.75,0.82,0.83,0.84
193.33,4.98,4.19,4.99,4.20,-4.20,-3.87,-3.84,0.77,0.78,0.79
195.27,4.99,4.25,5.01,4.27,-4.27,-3.95,-3.93,0.72,0.74,0.74
197.22,5.01,4.32,5.02,4.32,-4.32,-4.03,-4.02,0.69,0.70,0.69
199.19,5.02,4.36,5.04,4.38,-4.38,-4.11,-4.12,0.64,0.66,0.66
201.18,5.09,4.48,5.06,4.44,-4.44,-4.18,-4.21,0.65,0.62,0.61
203.19,5.13,4.55,5.08,4.50,-4.50,-4.26,-4.31,0.63,0.58,0.58
205.23,5.13,4.59,5.10,4.56,-4.56,-4.34,-4.40,0.57,0.54,0.54
207.28,5.13,4.62,5.11,4.61,-4.61,-4.42,-4.50,0.51,0.50,0.51
209.35,5.13,4.66,5.13,4.67,-4.67,-4.50,-4.60,0.46,0.46,0.47
211.44,5.13,4.71,5.14,4.72,-4.72,-4.57,-4.70,0.41,0.42,0.42
213.56,5.13,4.74,5.16,4.77,-4.77,-4.65,-4.80,0.36,0.39,0.39
215.69,5.12,4.77,5.17,4.82,-4.82,-4.73,-4.89,0.30,0.35,0.35
217.85,5.18,4.86,5.18,4.86,-4.86,-4.81,-4.99,0.32,0.32,0.32
220.03,5.21,4.94,5.18,4.90,-4.90,-4.88,-5.08,0.31,0.28,0.27
222.23,5.21,4.96,5.19,4.94,-4.94,-4.96,-5.17,0.27,0.25,0.25
224.45,5.21,4.99,5.19,4.97,-4.97,-5.04,-5.26,0.24,0.23,0.22
226.70,5.21,5.02,5.20,5.00,-5.00,-5.11,-5.35,0.21,0.20,0.19
228.96,5.22,5.05,5.21,5.03,-5.03,-5.19,-5.43,0.19,0.18,0.17
231.25,5.22,5.06,5.22,5.07,-5.07,-5.26,-5.50,0.15,0.16,0.16
233.57,5.23,5.10,5.24,5.10,-5.10,-5.33,-5.58,0.13,0.14,0.13
235.90,5.25,5.13,5.26,5.13,-5.13,-5.41,-5.64,0.11,0.13,0.12
238.26,5.26,5.16,5.28,5.17,-5.17,-5.48,-5.70,0.09,0.11,0.10
240.64,5.28,5.17,5.30,5.20,-5.20,-5.55,-5.76,0.08,0.10,0.11
243.05,5.29,5.19,5.33,5.23,-5.23,-5.61,-5.81,0.06,0.09,0.10
245.48,5.31,5.23,5.36,5.27,-5.27,-5.68,-5.85,0.04,0.09,0.08
247.93,5.34,5.27,5.38,5.30,-5.30,-5.75,-5.88,0.04,0.08,0.07
250.41,5.42,5.34,5.41,5.33,-5.33,-5.81,-5.91,0.09,0.07,0.08
252.92,5.48,5.40,5.43,5.36,-5.36,-5.87,-5.93,0.12,0.06,0.08
255.45,5.49,5.43,5.44,5.39,-5.39,-5.93,-5.95,0.10,0.06,0.06
258.00,5.50,5.45,5.46,5.41,-5.41,-5.99,-5.95,0.09,0.05,0.05
260.58,5.50,5.46,5.46,5.42,-5.42,-6.05,-5.95,0.07,0.04,0.04
263.19,5.50,5.47,5.46,5.44,-5.44,-6.10,-5.95,0.06,0.02,0.03
265.82,5.50,5.49,5.46,5.45,-5.45,-6.16,-5.94,0.05,0.01,0.01
268.48,5.50,5.49,5.46,5.46,-5.46,-6.20,-5.92,0.04,-0.00,0.01
271.16,5.46,5.47,5.45,5.46,-5.46,-6.25,-5.90,-0.01,-0.01,-0.01
273.87,5.39,5.41,5.45,5.47,-5.47,-6.30,-5.87,-0.08,-0.02,-0.02
276.61,5.39,5.43,5.44,5.48,-5.48,-6.34,-5.84,-0.09,-0.04,-0.04
279.38,5.39,5.46,5.44,5.48,-5.48,-6.38,-5.81,-0.10,-0.05,-0.07
282.17,5.39,5.46,5.44,5.50,-5.50,-6.41,-5.78,-0.11,-0.06,-0.07
284.99,5.40,5.47,5.45,5.51,-5.51,-6.44,-5.74,-0.11,-0.06,-0.07
287.84,5.41,5.48,5.45,5.53,-5.53,-6.47,-5.70,-0.12,-0.07,-0.07
290.72,5.46,5.55,5.47,5.54,-5.54,-6.50,-5.66,-0.09,-0.08,-0.09
293.63,5.52,5.60,5.48,5.57,-5.57,-6.52,-5.62,-0.05,-0.08,-0.08
296.57,5.54,5.62,5.50,5.59,-5.59,-6.54,-5.58,-0.05,-0.09,-0.08
299.53,5.56,5.65,5.52,5.61,-5.61,-6.56,-5.54,-0.05,-0.09,-0.09
302.53,5.57,5.65,5.54,5.63,-5.63,-6.57,-5.50,-0.06,-0.09,-0.08
305.55,5.58,5.67,5.56,5.65,-5.65,-6.58,-5.47,-0.07,-0.09,-0.09
308.61,5.59,5.67,5.57,5.66,-5.66,-6.59,-5.43,-0.07,-0.09,-0.08
311.69,5.59,5.69,5.58,5.68,-5.68,-6.59,-5.40,-0.09,-0.09,-0.10
314.81,5.60,5.69,5.59,5.69,-5.69,-6.59,-5.37,-0.09,-0.10,-0.09
317.96,5.60,5.71,5.60,5.70,-5.70,-6.59,-5.34,-0.10,-0.10,-0.11
321.14,5.60,5.70,5.61,5.71,-5.71,-6.59,-5.31,-0.11,-0.10,-0.10
324.35,5.60,5.71,5.61,5.72,-5.72,-6.58,-5.29,-0.12,-0.10,-0.11
327.59,5.60,5.70,5.61,5.72,-5.72,-6.56,-5.27,-0.12,-0.11,-0.10
330.87,5.60,5.71,5.62,5.73,-5.73,-6.55,-5.26,-0.13,-0.11,-0.11
334.18,5.59,5.71,5.63,5.74,-5.74,-6.53,-5.24,-0.15,-0.11,-0.12
337.52,5.65,5.76,5.64,5.75,-5.75,-6.51,-5.24,-0.10,-0.11,-0.11
340.90,5.68,5.80,5.65,5.76,-5.76,-6.49,-5.23,-0.08,-0.11,-0.12
344.30,5.69,5.80,5.67,5.78,-5.78,-6.46,-5.23,-0.09,-0.11,-0.11
347.75,5.69,5.79,5.69,5.79,-5.79,-6.44,-5.24,-0.10,-0.11,-0.10
351.23,5.69,5.81,5.70,5.80,-5.80,-6.41,-5.24,-0.12,-0.10,-0.12
354.74,5.69,5.79,5.72,5.82,-5.82,-6.38,-5.26,-0.13,-0.10,-0.10
358.28,5.71,5.81,5.74,5.83,-5.83,-6.34,-5.27,-0.12,-0.10,-0.10
361.87,5.77,5.87,5.76,5.85,-5.85,-6.31,-5.29,-0.08,-0.09,-0.10
365.49,5.81,5.90,5.78,5.87,-5.87,-6.27,-5.32,-0.06,-0.09,-0.09
369.14,5.82,5.90,5.80,5.89,-5.89,-6.23,-5.35,-0.07,-0.08,-0.08
372.83,5.83,5.90,5.82,5.90,-5.90,-6.19,-5.38,-0.07,-0.08,-0.07
376.56,5.83,5.91,5.84,5.92,-5.92,-6.15,-5.41,-0.09,-0.08,-0.08
380.33,5.84,5.92,5.87,5.94,-5.94,-6.11,-5.45,-0.10,-0.08,-0.08
384.13,5.85,5.92,5.89,5.97,-5.97,-6.07,-5.50,-0.12,-0.08,-0.07
387.97,5.87,5.94,5.91,5.99,-5.99,-6.03,-5.54,-0.13,-0.08,-0.07
391.85,5.94,6.02,5.93,6.01,-6.01,-5.99,-5.59,-0.08,-0.09,-0.08
395.77,5.96,6.05,5.94,6.03,-6.03,-5.94,-5.65,-0.07,-0.09,-0.09
399.73,5.96,6.05,5.93,6.03,-6.03,-5.90,-5.70,-0.07,-0.10,-0.09
403.72,5.96,6.04,5.92,6.02,-6.02,-5.86,-5.76,-0.06,-0.10,-0.08
407.76,5.95,6.05,5.90,6.01,-6.01,-5.82,-5.82,-0.06,-0.10,-0.10
411.84,5.95,6.06,5.89,6.00,-6.00,-5.78,-5.88,-0.05,-0.11,-0.11
415.96,5.95,6.06,5.87,5.98,-5.98,-5.74,-5.94,-0.03,-0.11,-0.11
420.12,5.91,6.03,5.85,5.96,-5.96,-5.70,-6.00,-0.05,-0.10,-0.12
424.32,5.86,5.97,5.84,5.93,-5.93,-5.67,-6.07,-0.07,-0.10,-0.11
428.56,5.79,5.88,5.82,5.91,-5.91,-5.63,-6.13,-0.12,-0.08,-0.09
432.85,5.73,5.80,5.81,5.88,-5.88,-5.60,-6.19,-0.15,-0.07,-0.07
437.18,5.68,5.74,5.81,5.85,-5.85,-5.57,-6.25,-0.17,-0.04,-0.06
441.55,5.71,5.74,5.81,5.82,-5.82,-5.54,-6.30,-0.11,-0.01,-0.03
445.96,5.77,5.76,5.83,5.80,-5.80,-5.51,-6.36,-0.03,0.03,0.01
450.42,5.84,5.79,5.87,5.80,-5.80,-5.49,-6.41,0.04,0.07,0.05
454.93,5.89,5.79,5.91,5.79,-5.79,-5.47,-6.45,0.10,0.12,0.10
459.48,5.95,5.79,5.95,5.78,-5.78,-5.45,-6.49,0.17,0.17,0.16
464.07,6.02,5.79,6.00,5.77,-5.77,-5.43,-6.52,0.24,0.22,0.23
468.71,6.07,5.79,6.05,5.77,-5.77,-5.42,-6.54,0.30,0.28,0.28
473.40,6.13,5.79,6.11,5.78,-5.78,-5.41,-6.56,0.35,0.33,0.34
478.13,6.19,5.79,6.16,5.78,-5.78,-5.41,-6.57,0.41,0.38,0.40
482.91,6.23,5.78,6.20,5.77,-5.77,-5.41,-6.57,0.46,0.43,0.45
487.74,6.28,5.80,6.24,5.76,-5.76,-5.41,-6.55,0.52,0.48,0.48
492.62,6.34,5.82,6.25,5.73,-5.73,-5.41,-6.53,0.61,0.52,0.52
497.55,6.32,5.76,6.24,5.69,-5.69,-5.42,-6.50,0.63,0.55,0.56
502.52,6.18,5.60,6.24,5.66,-5.66,-5.43,-6.46,0.52,0.58,0.58
507.55,6.15,5.54,6.22,5.62,-5.62,-5.44,-6.40,0.52,0.60,0.61
512.62,6.19,5.57,6.19,5.58,-5.58,-5.44,-6.34,0.61,0.61,0.62
517.75,6.23,5.60,6.15,5.54,-5.54,-5.45,-6.26,0.69,0.61,0.63
