frequency,raw,error,smoothed,error_smoothed,equalization,parametric_eq,fixed_band_eq,equalized_raw,equalized_smoothed,target
20.00,-8.55,-11.43,-8.77,-11.67,11.67,11.11,4.49,3.12,2.90,2.87
20.20,-8.57,-11.50,-8.71,-11.65,11.65,11.16,4.61,3.08,2.94,2.92
20.40,-8.59,-11.57,-8.65,-11.63,11.63,11.21,4.73,3.03,2.97,2.97
20.61,-8.61,-11.61,-8.59,-11.60,11.60,11.24,4.85,2.98,3.01,3.00
20.81,-8.63,-11.68,-8.52,-11.56,11.56,11.27,4.97,2.93,3.04,3.05
21.02,-8.64,-11.73,-8.46,-11.52,11.52,11.30,5.10,2.87,3.06,3.09
21.23,-8.55,-11.66,-8.38,-11.47,11.47,11.31,5.24,2.92,3.09,3.11
21.44,-8.46,-11.59,-8.31,-11.42,11.42,11.32,5.37,2.96,3.11,3.13
21.66,-8.37,-11.52,-8.23,-11.36,11.36,11.32,5.51,2.99,3.13,3.15
21.87,-8.28,-11.44,-8.16,-11.30,11.30,11.32,5.66,3.02,3.15,3.16
22.09,-8.16,-11.34,-8.07,-11.24,11.24,11.31,5.81,3.08,3.16,3.18
22.31,-8.00,-11.19,-7.99,-11.17,11.17,11.29,5.96,3.17,3.18,3.19
22.54,-7.86,-11.04,-7.87,-11.05,11.05,11.26,6.11,3.20,3.18,3.19
22.76,-7.69,-10.88,-7.76,-10.94,10.94,11.23,6.27,3.25,3.19,3.19
22.99,-7.53,-10.71,-7.65,-10.83,10.83,11.19,6.44,3.30,3.19,3.17
23.22,-7.45,-10.63,-7.54,-10.73,10.73,11.14,6.60,3.28,3.19,3.17
23.45,-7.37,-10.55,-7.45,-10.64,10.64,11.09,6.78,3.27,3.19,3.17
23.69,-7.30,-10.48,-7.37,-10.55,10.55,11.03,6.95,3.26,3.19,3.18
23.92,-7.21,-10.39,-7.29,-10.48,10.48,10.97,7.13,3.26,3.19,3.18
24.16,-7.18,-10.37,-7.21,-10.40,10.40,10.90,7.31,3.22,3.19,3.19
24.40,-7.17,-10.37,-7.15,-10.33,10.33,10.83,7.50,3.16,3.19,3.20
24.65,-7.15,-10.34,-7.09,-10.27,10.27,10.76,7.69,3.12,3.19,3.19
24.89,-7.14,-10.33,-7.03,-10.22,10.22,10.68,7.88,3.08,3.19,3.19
25.14,-7.07,-10.26,-6.98,-10.17,10.17,10.60,8.08,3.10,3.19,3.19
25.39,-6.97,-10.17,-6.93,-10.12,10.12,10.51,8.27,3.15,3.19,3.20
25.65,-6.88,-10.08,-6.88,-10.08,10.08,10.43,8.47,3.19,3.19,3.19
25.91,-6.79,-9.97,-6.83,-10.02,10.02,10.34,8.68,3.24,3.19,3.18
26.16,-6.70,-9.89,-6.77,-9.96,9.96,10.25,8.88,3.26,3.19,3.18
26.43,-6.65,-9.84,-6.71,-9.89,9.89,10.16,9.08,3.24,3.19,3.18
26.69,-6.59,-9.77,-6.63,-9.81,9.81,10.06,9.29,3.22,3.18,3.18
26.96,-6.54,-9.73,-6.55,-9.73,9.73,9.97,9.49,3.18,3.18,3.19
27.23,-6.49,-9.68,-6.46,-9.64,9.64,9.87,9.69,3.14,3.18,3.19
27.50,-6.44,-9.63,-6.37,-9.55,9.55,9.78,9.88,3.11,3.18,3.19
27.77,-6.39,-9.57,-6.29,-9.47,9.47,9.68,10.07,3.07,3.18,3.17
28.05,-6.32,-9.50,-6.22,-9.39,9.39,9.59,10.26,3.07,3.17,3.17
28.33,-6.18,-9.34,-6.15,-9.32,9.32,9.49,10.43,3.14,3.17,3.16
28.62,-6.04,-9.20,-6.09,-9.25,9.25,9.40,10.60,3.22,3.17,3.16
28.90,-5.88,-9.05,-6.02,-9.18,9.18,9.30,10.76,3.30,3.17,3.17
29.19,-5.82,-8.98,-5.94,-9.11,9.11,9.21,10.90,3.28,3.17,3.16
29.48,-5.80,-8.98,-5.86,-9.03,9.03,9.12,11.03,3.22,3.16,3.17
29.78,-5.78,-8.95,-5.80,-8.96,8.96,9.03,11.14,3.18,3.16,3.16
30.08,-5.76,-8.93,-5.74,-8.90,8.90,8.94,11.24,3.14,3.16,3.17
30.38,-5.74,-8.90,-5.70,-8.86,8.86,8.85,11.32,3.12,3.16,3.16
30.68,-5.72,-8.88,-5.66,-8.82,8.82,8.76,11.38,3.10,3.16,3.16
30.99,-5.69,-8.85,-5.63,-8.78,8.78,8.68,11.42,3.09,3.15,3.15
31.30,-5.60,-8.76,-5.60,-8.75,8.75,8.60,11.44,3.14,3.15,3.15
31.61,-5.51,-8.66,-5.57,-8.72,8.72,8.51,11.43,3.21,3.15,3.15
31.93,-5.42,-8.56,-5.55,-8.69,8.69,8.44,11.41,3.28,3.14,3.15
32.24,-5.45,-8.59,-5.53,-8.67,8.67,8.36,11.37,3.21,3.14,3.13
32.57,-5.53,-8.67,-5.51,-8.64,8.64,8.28,11.31,3.11,3.13,3.14
32.89,-5.60,-8.74,-5.48,-8.61,8.61,8.21,11.23,3.01,3.13,3.14
33.22,-5.54,-8.67,-5.46,-8.58,8.58,8.14,11.14,3.04,3.13,3.12
33.55,-5.41,-8.53,-5.42,-8.54,8.54,8.07,11.03,3.12,3.12,3.12
33.89,-5.27,-8.38,-5.36,-8.48,8.48,8.01,10.91,3.20,3.11,3.11
34.23,-5.25,-8.37,-5.31,-8.42,8.42,7.94,10.77,3.16,3.11,3.11
34.57,-5.27,-8.38,-5.25,-8.36,8.36,7.88,10.63,3.08,3.10,3.10
34.92,-5.29,-8.39,-5.20,-8.30,8.30,7.83,10.48,3.00,3.10,3.10
35.27,-5.24,-8.34,-5.14,-8.23,8.23,7.77,10.33,2.99,3.10,3.09
35.62,-5.15,-8.24,-5.06,-8.15,8.15,7.72,10.16,3.00,3.09,3.09
35.97,-5.07,-8.16,-4.98,-8.07,8.07,7.67,10.00,3.00,3.09,3.09
36.33,-4.88,-7.97,-4.90,-7.99,7.99,7.62,9.83,3.11,3.09,3.09
36.70,-4.71,-7.78,-4.83,-7.92,7.92,7.57,9.67,3.21,3.08,3.08
37.06,-4.55,-7.63,-4.77,-7.85,7.85,7.53,9.50,3.30,3.08,3.07
37.43,-4.60,-7.69,-4.70,-7.79,7.79,7.49,9.33,3.18,3.08,3.09
37.81,-4.65,-7.74,-4.63,-7.71,7.71,7.45,9.17,3.06,3.08,3.08
38.19,-4.63,-7.71,-4.56,-7.64,7.64,7.42,9.00,3.00,3.08,3.08
38.57,-4.53,-7.62,-4.48,-7.57,7.57,7.38,8.84,3.03,3.08,3.08
38.95,-4.43,-7.52,-4.43,-7.51,7.51,7.35,8.68,3.08,3.08,3.09
39.34,-4.42,-7.50,-4.40,-7.48,7.48,7.32,8.53,3.06,3.08,3.08
39.74,-4.42,-7.50,-4.38,-7.45,7.45,7.30,8.38,3.03,3.08,3.07
40.14,-4.38,-7.46,-4.35,-7.43,7.43,7.27,8.23,3.04,3.08,3.08
40.54,-4.27,-7.35,-4.33,-7.40,7.40,7.25,8.09,3.13,3.07,3.07
40.94,-4.17,-7.24,-4.31,-7.37,7.37,7.23,7.96,3.20,3.07,3.07
41.35,-4.17,-7.23,-4.27,-7.33,7.33,7.21,7.82,3.16,3.06,3.06
41.76,-4.20,-7.26,-4.22,-7.28,7.28,7.20,7.70,3.07,3.05,3.05
42.18,-4.24,-7.30,-4.18,-7.23,7.23,7.18,7.57,2.98,3.04,3.05
42.60,-4.29,-7.33,-4.16,-7.19,7.19,7.17,7.45,2.89,3.03,3.04
43.03,-4.32,-7.35,-4.14,-7.16,7.16,7.15,7.34,2.83,3.02,3.03
43.46,-4.15,-7.17,-4.11,-7.11,7.11,7.14,7.23,2.96,3.00,3.02
43.90,-4.00,-6.99,-4.07,-7.06,7.06,7.13,7.13,3.06,2.99,2.99
44.33,-3.94,-6.92,-4.03,-7.01,7.01,7.12,7.03,3.06,2.98,2.97
44.78,-3.93,-6.89,-3.99,-6.96,6.96,7.11,6.94,3.02,2.96,2.95
45.23,-3.92,-6.87,-3.97,-6.92,6.92,7.09,6.85,2.99,2.95,2.94
45.68,-3.92,-6.85,-3.95,-6.88,6.88,7.08,6.77,2.96,2.93,2.92
46.13,-3.92,-6.83,-3.91,-6.83,6.83,7.07,6.69,2.91,2.92,2.90
46.60,-3.92,-6.82,-3.87,-6.77,6.77,7.05,6.61,2.85,2.90,2.90
47.06,-3.90,-6.78,-3.84,-6.72,6.72,7.04,6.54,2.82,2.88,2.88
47.53,-3.78,-6.65,-3.81,-6.68,6.68,7.02,6.48,2.89,2.86,2.87
48.01,-3.66,-6.53,-3.80,-6.64,6.64,7.00,6.42,2.98,2.85,2.87
48.49,-3.74,-6.59,-3.79,-6.62,6.62,6.98,6.36,2.88,2.83,2.84
48.97,-3.82,-6.64,-3.78,-6.59,6.59,6.95,6.30,2.77,2.82,2.82
49.46,-3.82,-6.62,-3.75,-6.56,6.56,6.92,6.25,2.73,2.80,2.80
49.96,-3.82,-6.60,-3.72,-6.51,6.51,6.89,6.21,2.69,2.79,2.77
50.46,-3.69,-6.46,-3.69,-6.46,6.46,6.85,6.16,2.77,2.77,2.77
50.96,-3.55,-6.31,-3.66,-6.42,6.42,6.81,6.12,2.86,2.75,2.75
51.47,-3.59,-6.32,-3.62,-6.36,6.36,6.77,6.08,2.77,2.74,2.73
51.99,-3.64,-6.36,-3.58,-6.30,6.30,6.72,6.05,2.66,2.72,2.71
52.51,-3.59,-6.30,-3.53,-6.24,6.24,6.67,6.01,2.64,2.71,2.71
53.03,-3.53,-6.23,-3.48,-6.17,6.17,6.61,5.98,2.64,2.69,2.70
53.56,-3.44,-6.13,-3.42,-6.09,6.09,6.55,5.95,2.65,2.68,2.68
54.10,-3.36,-6.03,-3.35,-6.02,6.02,6.49,5.92,2.65,2.66,2.66
54.64,-3.31,-5.96,-3.30,-5.95,5.95,6.42,5.89,2.64,2.65,2.64
55.18,-3.26,-5.90,-3.27,-5.90,5.90,6.34,5.86,2.64,2.64,2.63
55.74,-3.22,-5.84,-3.24,-5.86,5.86,6.27,5.83,2.64,2.62,2.61
56.29,-3.13,-5.74,-3.21,-5.82,5.82,6.19,5.80,2.68,2.60,2.60
56.86,-3.00,-5.59,-3.19,-5.78,5.78,6.10,5.77,2.77,2.58,2.58
57.42,-3.03,-5.58,-3.17,-5.73,5.73,6.02,5.74,2.70,2.56,2.55
58.00,-3.11,-5.65,-3.15,-5.69,5.69,5.93,5.71,2.57,2.54,2.54
58.58,-3.12,-5.65,-3.12,-5.64,5.64,5.83,5.67,2.51,2.51,2.52
59.16,-3.15,-5.65,-3.10,-5.58,5.58,5.74,5.63,2.43,2.48,2.50
59.76,-3.26,-5.74,-3.07,-5.52,5.52,5.64,5.59,2.26,2.45,2.47
60.35,-3.24,-5.67,-3.05,-5.47,5.47,5.54,5.55,2.22,2.42,2.43
60.96,-3.13,-5.53,-3.03,-5.41,5.41,5.44,5.50,2.27,2.38,2.39
61.57,-3.00,-5.35,-3.01,-5.35,5.35,5.34,5.45,2.34,2.34,2.34
62.18,-2.94,-5.24,-2.98,-5.28,5.28,5.24,5.40,2.34,2.30,2.30
62.80,-3.02,-5.27,-2.96,-5.21,5.21,5.13,5.34,2.19,2.25,2.25
63.43,-2.90,-5.10,-2.95,-5.15,5.15,5.03,5.28,2.25,2.20,2.20
64.07,-2.72,-4.87,-2.92,-5.08,5.08,4.93,5.21,2.35,2.15,2.15
64.71,-2.77,-4.87,-2.91,-5.01,5.01,4.82,5.14,2.24,2.10,2.09
65.35,-2.83,-4.88,-2.90,-4.95,4.95,4.72,5.07,2.12,2.05,2.05
66.01,-2.91,-4.91,-2.91,-4.91,4.91,4.62,4.99,2.00,2.00,2.00
66.67,-2.96,-4.91,-2.93,-4.88,4.88,4.52,4.91,1.91,1.95,1.94
67.33,-2.98,-4.87,-2.96,-4.85,4.85,4.42,4.83,1.87,1.89,1.89
68.01,-2.96,-4.80,-3.01,-4.85,4.85,4.32,4.75,1.88,1.84,1.84
68.69,-3.02,-4.81,-3.07,-4.85,4.85,4.22,4.66,1.83,1.78,1.78
69.37,-3.11,-4.84,-3.12,-4.84,4.84,4.12,4.57,1.73,1.72,1.72
70.07,-3.20,-4.87,-3.16,-4.82,4.82,4.02,4.48,1.62,1.66,1.67
70.77,-3.22,-4.84,-3.20,-4.80,4.80,3.93,4.39,1.58,1.60,1.62
71.48,-3.23,-4.79,-3.22,-4.76,4.76,3.83,4.29,1.53,1.54,1.55
72.19,-3.26,-4.75,-3.21,-4.69,4.69,3.74,4.20,1.43,1.48,1.48
72.91,-3.32,-4.74,-3.20,-4.62,4.62,3.65,4.10,1.29,1.42,1.42
73.64,-3.19,-4.55,-3.17,-4.53,4.53,3.56,4.00,1.33,1.36,1.35
74.38,-3.20,-4.49,-3.13,-4.42,4.42,3.48,3.91,1.21,1.29,1.29
75.12,-3.30,-4.53,-3.09,-4.31,4.31,3.39,3.81,1.01,1.23,1.22
75.87,-3.09,-4.25,-3.04,-4.20,4.20,3.31,3.72,1.11,1.17,1.16
76.63,-2.88,-3.98,-2.98,-4.08,4.08,3.23,3.62,1.20,1.10,1.10
77.40,-2.79,-3.83,-2.93,-3.97,3.97,3.15,3.53,1.18,1.04,1.04
78.17,-2.80,-3.77,-2.88,-3.87,3.87,3.07,3.43,1.06,0.98,0.97
78.95,-2.66,-3.59,-2.84,-3.76,3.76,2.99,3.34,1.10,0.92,0.93
79.74,-2.73,-3.60,-2.80,-3.67,3.67,2.92,3.25,0.94,0.87,0.87
80.54,-2.72,-3.54,-2.78,-3.59,3.59,2.84,3.16,0.87,0.81,0.81
81.35,-2.65,-3.40,-2.75,-3.50,3.50,2.77,3.07,0.85,0.75,0.75
82.16,-2.62,-3.32,-2.72,-3.41,3.41,2.70,2.98,0.79,0.70,0.69
82.98,-2.88,-3.53,-2.68,-3.32,3.32,2.63,2.89,0.44,0.64,0.65
83.81,-2.72,-3.31,-2.65,-3.23,3.23,2.56,2.81,0.51,0.59,0.58
84.65,-2.74,-3.27,-2.63,-3.16,3.16,2.50,2.73,0.42,0.53,0.53
85.50,-2.77,-3.25,-2.62,-3.09,3.09,2.43,2.65,0.32,0.47,0.48
86.35,-2.68,-3.10,-2.59,-3.00,3.00,2.37,2.57,0.32,0.41,0.42
87.22,-2.52,-2.88,-2.56,-2.91,2.91,2.31,2.49,0.39,0.35,0.36
88.09,-2.56,-2.86,-2.52,-2.82,2.82,2.25,2.41,0.26,0.29,0.30
88.97,-2.42,-2.66,-2.48,-2.71,2.71,2.19,2.34,0.29,0.24,0.24
89.86,-2.20,-2.38,-2.43,-2.61,2.61,2.13,2.27,0.40,0.18,0.18
90.76,-2.28,-2.40,-2.39,-2.50,2.50,2.08,2.19,0.22,0.12,0.11
91.66,-2.30,-2.36,-2.34,-2.40,2.40,2.02,2.12,0.09,0.06,0.06
92.58,-2.36,-2.35,-2.30,-2.30,2.30,1.97,2.06,-0.07,-0.00,-0.01
93.51,-2.41,-2.35,-2.29,-2.23,2.23,1.92,1.99,-0.19,-0.06,-0.07
94.44,-2.32,-2.20,-2.27,-2.15,2.15,1.86,1.93,-0.17,-0.12,-0.12
95.39,-2.20,-2.03,-2.26,-2.08,2.08,1.81,1.86,-0.12,-0.18,-0.18
96.34,-2.21,-1.97,-2.27,-2.03,2.03,1.76,1.80,-0.19,-0.24,-0.24
97.30,-2.21,-1.91,-2.28,-1.98,1.98,1.71,1.74,-0.24,-0.30,-0.30
98.28,-2.22,-1.87,-2.27,-1.92,1.92,1.67,1.68,-0.31,-0.36,-0.36
99.26,-2.24,-1.83,-2.28,-1.86,1.86,1.62,1.62,-0.38,-0.41,-0.41
100.25,-2.30,-1.83,-2.28,-1.81,1.81,1.57,1.57,-0.50,-0.47,-0.47
101.25,-2.39,-1.87,-2.26,-1.73,1.73,1.53,1.51,-0.66,-0.53,-0.53
102.27,-2.37,-1.79,-2.25,-1.67,1.67,1.48,1.46,-0.71,-0.59,-0.59
103.29,-2.28,-1.63,-2.25,-1.60,1.60,1.44,1.40,-0.68,-0.65,-0.65
104.32,-2.22,-1.52,-2.24,-1.54,1.54,1.40,1.35,-0.69,-0.71,-0.70
105.37,-2.24,-1.48,-2.25,-1.48,1.48,1.36,1.30,-0.76,-0.77,-0.76
106.42,-2.25,-1.44,-2.26,-1.43,1.43,1.31,1.25,-0.83,-0.83,-0.82
107.48,-2.18,-1.30,-2.25,-1.37,1.37,1.27,1.20,-0.82,-0.89,-0.88
108.56,-2.12,-1.17,-2.25,-1.30,1.30,1.23,1.16,-0.82,-0.95,-0.95
109.64,-2.20,-1.19,-2.25,-1.24,1.24,1.19,1.11,-0.97,-1.01,-1.01
110.74,-2.25,-1.18,-2.25,-1.17,1.17,1.16,1.07,-1.08,-1.07,-1.08
111.85,-2.27,-1.15,-2.24,-1.11,1.11,1.12,1.02,-1.17,-1.14,-1.12
112.97,-2.28,-1.08,-2.25,-1.05,1.05,1.08,0.98,-1.23,-1.20,-1.20
114.10,-2.28,-1.03,-2.25,-1.00,1.00,1.04,0.94,-1.28,-1.25,-1.26
115.24,-2.29,-0.98,-2.26,-0.95,0.95,1.00,0.89,-1.34,-1.31,-1.31
116.39,-2.29,-0.91,-2.28,-0.91,0.91,0.97,0.85,-1.38,-1.37,-1.38
117.55,-2.28,-0.86,-2.28,-0.86,0.86,0.93,0.81,-1.42,-1.42,-1.42
118.73,-2.28,-0.80,-2.28,-0.81,0.81,0.90,0.77,-1.47,-1.47,-1.48
119.92,-2.27,-0.76,-2.27,-0.76,0.76,0.86,0.74,-1.52,-1.52,-1.51
121.12,-2.26,-0.70,-2.26,-0.70,0.70,0.82,0.70,-1.56,-1.56,-1.57
122.33,-2.25,-0.64,-2.25,-0.64,0.64,0.79,0.66,-1.61,-1.61,-1.61
123.55,-2.25,-0.61,-2.24,-0.59,0.59,0.75,0.63,-1.66,-1.65,-1.64
124.79,-2.24,-0.56,-2.24,-0.55,0.55,0.72,0.59,-1.69,-1.69,-1.69
126.03,-2.23,-0.51,-2.24,-0.51,0.51,0.68,0.56,-1.72,-1.73,-1.73
127.29,-2.23,-0.48,-2.24,-0.47,0.47,0.65,0.52,-1.77,-1.77,-1.76
128.57,-2.22,-0.42,-2.23,-0.42,0.42,0.62,0.49,-1.80,-1.81,-1.81
129.85,-2.13,-0.29,-2.23,-0.38,0.38,0.58,0.45,-1.75,-1.85,-1.85
131.15,-2.11,-0.23,-2.22,-0.34,0.34,0.55,0.42,-1.78,-1.88,-1.89
132.46,-2.24,-0.32,-2.22,-0.30,0.30,0.51,0.39,-1.95,-1.92,-1.92
133.79,-2.30,-0.34,-2.22,-0.26,0.26,0.48,0.36,-2.05,-1.96,-1.96
135.12,-2.30,-0.30,-2.21,-0.22,0.22,0.44,0.33,-2.08,-1.99,-2.01
136.48,-2.29,-0.26,-2.21,-0.18,0.18,0.41,0.30,-2.11,-2.03,-2.03
137.84,-2.21,-0.14,-2.21,-0.14,0.14,0.37,0.27,-2.07,-2.07,-2.07
139.22,-2.14,-0.03,-2.20,-0.10,0.10,0.34,0.24,-2.05,-2.10,-2.12
140.61,-2.16,-0.00,-2.20,-0.05,0.05,0.30,0.21,-2.11,-2.14,-2.16
142.02,-2.19,-0.01,-2.20,-0.01,0.01,0.26,0.18,-2.18,-2.18,-2.18
143.44,-2.19,0.03,-2.20,0.03,-0.03,0.23,0.15,-2.22,-2.23,-2.22
144.87,-2.19,0.08,-2.19,0.08,-0.08,0.19,0.12,-2.28,-2.27,-2.27
146.32,-2.19,0.13,-2.18,0.14,-0.14,0.15,0.09,-2.34,-2.33,-2.32
147.78,-2.19,0.16,-2.19,0.20,-0.20,0.11,0.06,-2.39,-2.38,-2.36
149.26,-2.19,0.22,-2.20,0.24,-0.24,0.08,0.03,-2.44,-2.44,-2.41
150.75,-2.19,0.29,-2.23,0.29,-0.29,0.04,-0.00,-2.48,-2.51,-2.49
152.26,-2.19,0.37,-2.25,0.33,-0.33,-0.00,-0.03,-2.52,-2.58,-2.56
153.78,-2.19,0.44,-2.28,0.38,-0.38,-0.04,-0.06,-2.57,-2.65,-2.64
155.32,-2.33,0.38,-2.30,0.43,-0.43,-0.09,-0.10,-2.76,-2.73,-2.72
156.88,-2.32,0.48,-2.32,0.49,-0.49,-0.13,-0.13,-2.81,-2.81,-2.80
158.44,-2.27,0.62,-2.34,0.55,-0.55,-0.17,-0.16,-2.82,-2.89,-2.89
160.03,-2.39,0.59,-2.37,0.60,-0.60,-0.21,-0.19,-2.99,-2.96,-2.98
161.63,-2.54,0.51,-2.39,0.64,-0.64,-0.26,-0.22,-3.19,-3.03,-3.06
163.24,-2.58,0.54,-2.42,0.69,-0.69,-0.31,-0.25,-3.27,-3.10,-3.13
164.88,-2.42,0.76,-2.44,0.73,-0.73,-0.35,-0.29,-3.15,-3.16,-3.18
166.53,-2.40,0.83,-2.46,0.76,-0.76,-0.40,-0.32,-3.16,-3.22,-3.24
168.19,-2.40,0.88,-2.48,0.78,-0.78,-0.45,-0.35,-3.18,-3.27,-3.28
169.87,-2.37,0.95,-2.50,0.81,-0.81,-0.50,-0.39,-3.18,-3.30,-3.33
171.57,-2.49,0.86,-2.49,0.85,-0.85,-0.55,-0.42,-3.34,-3.34,-3.35
173.29,-2.52,0.85,-2.48,0.88,-0.88,-0.60,-0.45,-3.40,-3.36,-3.37
175.02,-2.53,0.85,-2.49,0.89,-0.89,-0.66,-0.49,-3.43,-3.38,-3.38
176.77,-2.53,0.87,-2.50,0.90,-0.90,-0.71,-0.53,-3.43,-3.40,-3.40
178.54,-2.53,0.88,-2.50,0.91,-0.91,-0.76,-0.56,-3.44,-3.41,-3.41
180.32,-2.53,0.88,-2.50,0.92,-0.92,-0.82,-0.60,-3.45,-3.42,-3.41
182.13,-2.52,0.89,-2.51,0.92,-0.92,-0.88,-0.64,-3.44,-3.43,-3.41
183.95,-2.51,0.91,-2.53,0.91,-0.91,-0.93,-0.67,-3.42,-3.44,-3.43
185.79,-2.50,0.93,-2.54,0.91,-0.91,-0.99,-0.71,-3.41,-3.46,-3.43
187.65,-2.38,1.07,-2.55,0.92,-0.92,-1.05,-0.75,-3.30,-3.47,-3.46
189.52,-2.45,1.02,-2.56,0.93,-0.93,-1.11,-0.79,-3.38,-3.48,-3.47
191.42,-2.71,0.78,-2.56,0.94,-0.94,-1.17,-0.83,-3.65,-3.50,-3.50
193.33,-2.74,0.78,-2.59,0.93,-0.93,-1.22,-0.87,-3.67,-3.52,-3.52
195.27,-2.65,0.89,-2.62,0.92,-0.92,-1.28,-0.91,-3.57,-3.54,-3.54
197.22,-2.53,1.03,-2.66,0.90,-0.90,-1.34,-0.95,-3.43,-3.56,-3.56
199.19,-2.53,1.06,-2.71,0.88,-0.88,-1.39,-0.99,-3.41,-3.59,-3.59
201.18,-2.65,0.96,-2.75,0.86,-0.86,-1.44,-1.03,-3.51,-3.61,-3.61
203.19,-2.69,0.94,-2.78,0.85,-0.85,-1.49,-1.08,-3.55,-3.64,-3.63
205.23,-2.69,0.97,-2.76,0.90,-0.90,-1.54,-1.12,-3.59,-3.66,-3.66
207.28,-2.69,0.98,-2.71,0.98,-0.98,-1.58,-1.16,-3.67,-3.68,-3.67
209.35,-2.75,0.95,-2.62,1.09,-1.09,-1.62,-1.20,-3.84,-3.71,-3.70
211.44,-2.82,0.91,-2.49,1.24,-1.24,-1.66,-1.24,-4.06,-3.73,-3.74
213.56,-2.75,0.99,-2.35,1.40,-1.40,-1.69,-1.28,-4.15,-3.75,-3.74
215.69,-2.59,1.17,-2.22,1.54,-1.54,-1.71,-1.31,-4.13,-3.76,-3.76
217.85,-2.35,1.42,-2.10,1.68,-1.68,-1.73,-1.35,-4.03,-3.78,-3.78
220.03,-2.10,1.69,-1.96,1.83,-1.83,-1.75,-1.39,-3.93,-3.79,-3.79
222.23,-1.77,2.04,-1.83,1.97,-1.97,-1.76,-1.42,-3.74,-3.80,-3.81
224.45,-1.23,2.58,-1.71,2.09,-2.09,-1.77,-1.45,-3.33,-3.80,-3.81
226.70,-0.97,2.84,-1.61,2.19,-2.19,-1.77,-1.48,-3.17,-3.80,-3.81
228.96,-1.10,2.70,-1.54,2.27,-2.27,-1.76,-1.51,-3.37,-3.80,-3.81
231.25,-1.21,2.58,-1.48,2.32,-2.32,-1.75,-1.54,-3.53,-3.80,-3.80
233.57,-1.38,2.41,-1.45,2.34,-2.34,-1.73,-1.56,-3.72,-3.79,-3.79
235.90,-1.60,2.18,-1.44,2.33,-2.33,-1.72,-1.58,-3.94,-3.78,-3.78
238.26,-1.65,2.12,-1.48,2.28,-2.28,-1.69,-1.60,-3.93,-3.76,-3.77
240.64,-1.68,2.07,-1.56,2.19,-2.19,-1.66,-1.62,-3.87,-3.75,-3.75
243.05,-1.78,1.94,-1.67,2.06,-2.06,-1.63,-1.63,-3.84,-3.73,-3.72
245.48,-2.00,1.70,-1.80,1.91,-1.91,-1.60,-1.64,-3.91,-3.71,-3.70
247.93,-2.05,1.62,-1.94,1.75,-1.75,-1.56,-1.65,-3.80,-3.69,-3.67
250.41,-2.02,1.64,-2.08,1.59,-1.59,-1.52,-1.65,-3.61,-3.67,-3.66
252.92,-2.11,1.52,-2.18,1.46,-1.46,-1.48,-1.65,-3.57,-3.64,-3.63
255.45,-2.14,1.47,-2.26,1.36,-1.36,-1.44,-1.65,-3.50,-3.62,-3.61
258.00,-2.20,1.39,-2.33,1.26,-1.26,-1.40,-1.65,-3.47,-3.60,-3.59
260.58,-2.38,1.19,-2.40,1.18,-1.18,-1.36,-1.64,-3.56,-3.57,-3.58
263.19,-2.56,0.98,-2.45,1.10,-1.10,-1.32,-1.63,-3.67,-3.55,-3.55
265.82,-2.61,0.92,-2.50,1.02,-1.02,-1.27,-1.61,-3.64,-3.53,-3.53
268.48,-2.63,0.88,-2.55,0.95,-0.95,-1.23,-1.60,-3.59,-3.51,-3.51
271.16,-2.63,0.84,-2.59,0.89,-0.89,-1.19,-1.58,-3.53,-3.48,-3.48
273.87,-2.64,0.82,-2.62,0.84,-0.84,-1.15,-1.56,-3.49,-3.46,-3.47
276.61,-2.64,0.79,-2.65,0.79,-0.79,-1.11,-1.53,-3.43,-3.43,-3.43
279.38,-2.64,0.76,-2.67,0.73,-0.73,-1.07,-1.51,-3.38,-3.41,-3.41
282.17,-2.63,0.75,-2.68,0.70,-0.70,-1.04,-1.48,-3.33,-3.38,-3.38
284.99,-2.63,0.72,-2.68,0.68,-0.68,-1.00,-1.45,-3.31,-3.36,-3.35
287.84,-2.62,0.71,-2.66,0.67,-0.67,-0.96,-1.42,-3.29,-3.33,-3.34
290.72,-2.60,0.70,-2.64,0.66,-0.66,-0.93,-1.39,-3.26,-3.30,-3.30
293.63,-2.66,0.61,-2.62,0.65,-0.65,-0.90,-1.36,-3.32,-3.27,-3.28
296.57,-2.64,0.60,-2.59,0.65,-0.65,-0.87,-1.32,-3.29,-3.24,-3.24
299.53,-2.58,0.63,-2.56,0.65,-0.65,-0.84,-1.29,-3.24,-3.22,-3.22
302.53,-2.56,0.64,-2.54,0.66,-0.66,-0.81,-1.25,-3.22,-3.19,-3.20
305.55,-2.55,0.60,-2.51,0.66,-0.66,-0.78,-1.22,-3.21,-3.17,-3.16
308.61,-2.49,0.65,-2.48,0.67,-0.67,-0.75,-1.18,-3.16,-3.14,-3.14
311.69,-2.36,0.75,-2.45,0.67,-0.67,-0.73,-1.15,-3.04,-3.12,-3.11
314.81,-2.39,0.69,-2.42,0.68,-0.68,-0.70,-1.11,-3.07,-3.10,-3.09
317.96,-2.42,0.65,-2.39,0.69,-0.69,-0.68,-1.08,-3.11,-3.08,-3.07
321.14,-2.39,0.67,-2.37,0.69,-0.69,-0.66,-1.04,-3.08,-3.06,-3.07
324.35,-2.26,0.78,-2.35,0.69,-0.69,-0.64,-1.01,-2.96,-3.05,-3.05
327.59,-2.23,0.80,-2.34,0.69,-0.69,-0.62,-0.97,-2.93,-3.03,-3.03
330.87,-2.30,0.72,-2.34,0.68,-0.68,-0.60,-0.94,-2.98,-3.02,-3.03
334.18,-2.33,0.67,-2.33,0.68,-0.68,-0.58,-0.91,-3.01,-3.01,-3.01
337.52,-2.33,0.67,-2.31,0.68,-0.68,-0.57,-0.87,-3.02,-3.00,-3.00
340.90,-2.34,0.64,-2.30,0.69,-0.69,-0.55,-0.84,-3.03,-2.99,-2.98
344.30,-2.34,0.63,-2.30,0.69,-0.69,-0.54,-0.81,-3.03,-2.98,-2.98
347.75,-2.34,0.64,-2.29,0.69,-0.69,-0.52,-0.78,-3.03,-2.98,-2.98
351.23,-2.33,0.64,-2.28,0.70,-0.70,-0.51,-0.75,-3.03,-2.97,-2.97
354.74,-2.33,0.64,-2.27,0.70,-0.70,-0.50,-0.71,-3.03,-2.97,-2.98
358.28,-2.33,0.63,-2.27,0.70,-0.70,-0.49,-0.68,-3.03,-2.97,-2.97
361.87,-2.32,0.65,-2.29,0.68,-0.68,-0.48,-0.66,-3.01,-2.97,-2.97
365.49,-2.18,0.78,-2.30,0.66,-0.66,-0.47,-0.63,-2.85,-2.97,-2.96
369.14,-2.10,0.87,-2.31,0.66,-0.66,-0.46,-0.60,-2.77,-2.97,-2.97
372.83,-2.16,0.81,-2.31,0.66,-0.66,-0.45,-0.57,-2.82,-2.97,-2.98
376.56,-2.34,0.63,-2.32,0.65,-0.65,-0.44,-0.54,-3.00,-2.97,-2.98
380.33,-2.39,0.58,-2.34,0.64,-0.64,-0.43,-0.52,-3.03,-2.98,-2.97
384.13,-2.31,0.66,-2.36,0.62,-0.62,-0.43,-0.49,-2.94,-2.98,-2.97
387.97,-2.42,0.56,-2.38,0.60,-0.60,-0.42,-0.47,-3.03,-2.99,-2.98
391.85,-2.50,0.49,-2.41,0.58,-0.58,-0.42,-0.44,-3.08,-2.99,-3.00
395.77,-2.54,0.44,-2.44,0.56,-0.56,-0.41,-0.42,-3.10,-3.00,-2.99
399.73,-2.61,0.38,-2.47,0.53,-0.53,-0.41,-0.40,-3.14,-3.00,-3.00
403.72,-2.45,0.55,-2.50,0.51,-0.51,-0.40,-0.37,-2.97,-3.01,-3.00
407.76,-2.32,0.69,-2.52,0.49,-0.49,-0.40,-0.35,-2.82,-3.01,-3.01
411.84,-2.49,0.52,-2.55,0.47,-0.47,-0.40,-0.33,-2.96,-3.02,-3.01
415.96,-2.58,0.43,-2.56,0.46,-0.46,-0.39,-0.31,-3.04,-3.02,-3.01
420.12,-2.58,0.43,-2.56,0.46,-0.46,-0.39,-0.29,-3.04,-3.02,-3.02
424.32,-2.57,0.44,-2.55,0.46,-0.46,-0.39,-0.28,-3.03,-3.01,-3.02
428.56,-2.56,0.44,-2.55,0.45,-0.45,-0.39,-0.26,-3.02,-3.00,-3.01
432.85,-2.55,0.45,-2.53,0.45,-0.45,-0.39,-0.24,-3.01,-2.99,-3.00
437.18,-2.52,0.47,-2.52,0.45,-0.45,-0.39,-0.23,-2.97,-2.96,-2.99
441.55,-2.49,0.46,-2.50,0.44,-0.44,-0.39,-0.21,-2.94,-2.94,-2.95
445.96,-2.45,0.47,-2.48,0.43,-0.43,-0.39,-0.20,-2.88,-2.91,-2.92
450.42,-2.60,0.29,-2.47,0.40,-0.40,-0.39,-0.19,-3.00,-2.87,-2.89
454.93,-2.56,0.28,-2.44,0.40,-0.40,-0.39,-0.18,-2.96,-2.83,-2.84
459.48,-2.26,0.53,-2.38,0.41,-0.41,-0.39,-0.17,-2.67,-2.79,-2.80
