frequency,raw,error,smoothed,error_smoothed,equalization,parametric_eq,fixed_band_eq,equalized_raw,equalized_smoothed,target
20.00,14.22,4.51,14.33,4.59,-4.59,-4.48,-2.36,9.63,9.74,9.71
20.20,14.29,4.53,14.35,4.57,-4.57,-4.50,-2.42,9.71,9.78,9.76
20.40,14.35,4.54,14.37,4.56,-4.56,-4.52,-2.49,9.79,9.81,9.81
20.61,14.42,4.57,14.39,4.54,-4.54,-4.54,-2.56,9.87,9.85,9.84
20.81,14.49,4.60,14.41,4.53,-4.53,-4.56,-2.64,9.96,9.88,9.89
21.02,14.55,4.62,14.43,4.52,-4.52,-4.58,-2.71,10.02,9.91,9.93
21.23,14.54,4.59,14.45,4.52,-4.52,-4.60,-2.79,10.02,9.93,9.95
21.44,14.54,4.57,14.47,4.52,-4.52,-4.61,-2.87,10.02,9.95,9.97
21.66,14.53,4.54,14.49,4.52,-4.52,-4.63,-2.95,10.01,9.98,9.99
21.87,14.52,4.52,14.51,4.52,-4.52,-4.65,-3.04,10.00,9.99,10.00
22.09,14.52,4.50,14.54,4.53,-4.53,-4.67,-3.13,9.99,10.01,10.02
22.31,14.54,4.51,14.56,4.54,-4.54,-4.69,-3.22,10.00,10.02,10.03
22.54,14.55,4.52,14.57,4.54,-4.54,-4.70,-3.31,10.01,10.03,10.03
22.76,14.56,4.53,14.58,4.55,-4.55,-4.72,-3.40,10.01,10.03,10.03
22.99,14.57,4.55,14.60,4.56,-4.56,-4.74,-3.50,10.00,10.03,10.02
23.22,14.60,4.58,14.62,4.58,-4.58,-4.76,-3.60,10.01,10.03,10.02
23.45,14.64,4.62,14.65,4.61,-4.61,-4.78,-3.70,10.03,10.03,10.02
23.69,14.67,4.64,14.68,4.64,-4.64,-4.79,-3.80,10.02,10.04,10.03
23.92,14.71,4.68,14.72,4.68,-4.68,-4.81,-3.91,10.03,10.03,10.03
24.16,14.75,4.72,14.75,4.72,-4.72,-4.83,-4.02,10.03,10.03,10.03
24.40,14.80,4.76,14.79,4.76,-4.76,-4.85,-4.12,10.04,10.03,10.04
24.65,14.85,4.82,14.84,4.80,-4.80,-4.86,-4.24,10.04,10.03,10.03
24.89,14.90,4.87,14.88,4.84,-4.84,-4.88,-4.35,10.05,10.03,10.03
25.14,14.93,4.90,14.92,4.88,-4.88,-4.90,-4.46,10.05,10.03,10.03
25.39,14.96,4.92,14.95,4.91,-4.91,-4.91,-4.58,10.05,10.04,10.04
25.65,14.99,4.95,14.97,4.94,-4.94,-4.93,-4.69,10.05,10.04,10.04
25.91,15.01,4.98,14.99,4.95,-4.95,-4.95,-4.81,10.05,10.04,10.03
26.16,15.04,5.01,15.01,4.98,-4.98,-4.96,-4.93,10.06,10.03,10.03
26.43,15.06,5.03,15.03,5.00,-5.00,-4.98,-5.04,10.05,10.03,10.03
26.69,15.09,5.06,15.06,5.03,-5.03,-5.00,-5.16,10.06,10.03,10.03
26.96,15.12,5.09,15.09,5.06,-5.06,-5.02,-5.27,10.06,10.03,10.03
27.23,15.10,5.07,15.12,5.09,-5.09,-5.03,-5.39,10.01,10.03,10.03
27.50,15.08,5.05,15.15,5.12,-5.12,-5.05,-5.50,9.96,10.03,10.03
27.77,15.07,5.05,15.17,5.15,-5.15,-5.07,-5.60,9.92,10.02,10.02
28.05,15.07,5.05,15.19,5.17,-5.17,-5.08,-5.71,9.90,10.02,10.02
28.33,15.17,5.16,15.20,5.18,-5.18,-5.10,-5.81,9.98,10.02,10.01
28.62,15.27,5.25,15.21,5.19,-5.19,-5.12,-5.91,10.07,10.02,10.01
28.90,15.38,5.36,15.23,5.21,-5.21,-5.13,-6.00,10.17,10.02,10.02
29.19,15.39,5.38,15.25,5.23,-5.23,-5.15,-6.08,10.16,10.02,10.01
29.48,15.37,5.35,15.27,5.26,-5.26,-5.17,-6.16,10.11,10.02,10.02
29.78,15.34,5.33,15.30,5.28,-5.28,-5.18,-6.23,10.05,10.01,10.01
30.08,15.31,5.29,15.33,5.32,-5.32,-5.20,-6.30,9.99,10.01,10.02
30.38,15.27,5.26,15.36,5.35,-5.35,-5.22,-6.35,9.92,10.01,10.01
30.68,15.24,5.23,15.39,5.38,-5.38,-5.23,-6.40,9.86,10.01,10.01
30.99,15.20,5.19,15.41,5.40,-5.40,-5.25,-6.45,9.80,10.01,10.01
31.30,15.33,5.32,15.43,5.42,-5.42,-5.27,-6.48,9.90,10.01,10.00
31.61,15.47,5.47,15.43,5.43,-5.43,-5.29,-6.50,10.04,10.00,10.00
31.93,15.61,5.60,15.44,5.44,-5.44,-5.30,-6.52,10.17,10.00,10.00
32.24,15.61,5.62,15.44,5.44,-5.44,-5.32,-6.53,10.16,10.00,9.99
32.57,15.57,5.58,15.46,5.47,-5.47,-5.34,-6.53,10.10,9.99,9.99
32.89,15.53,5.54,15.48,5.50,-5.50,-5.35,-6.52,10.03,9.99,9.99
33.22,15.52,5.54,15.52,5.53,-5.53,-5.37,-6.50,9.98,9.98,9.98
33.55,15.52,5.54,15.55,5.57,-5.57,-5.39,-6.48,9.95,9.98,9.98
33.89,15.52,5.55,15.57,5.60,-5.60,-5.41,-6.46,9.92,9.97,9.97
34.23,15.51,5.54,15.60,5.63,-5.63,-5.42,-6.42,9.88,9.97,9.97
34.57,15.50,5.54,15.61,5.65,-5.65,-5.44,-6.39,9.85,9.96,9.96
34.92,15.48,5.52,15.62,5.66,-5.66,-5.46,-6.34,9.82,9.96,9.96
35.27,15.58,5.62,15.63,5.67,-5.67,-5.48,-6.30,9.90,9.96,9.95
35.62,15.70,5.75,15.64,5.69,-5.69,-5.49,-6.25,10.01,9.95,9.95
35.97,15.83,5.88,15.67,5.71,-5.71,-5.51,-6.20,10.11,9.95,9.95
36.33,15.80,5.85,15.68,5.73,-5.73,-5.53,-6.15,10.06,9.95,9.95
36.70,15.76,5.82,15.70,5.75,-5.75,-5.55,-6.10,10.01,9.95,9.94
37.06,15.72,5.78,15.71,5.76,-5.76,-5.57,-6.05,9.96,9.95,9.94
37.43,15.72,5.77,15.72,5.77,-5.77,-5.59,-5.99,9.95,9.95,9.95
37.81,15.72,5.77,15.72,5.78,-5.78,-5.60,-5.94,9.94,9.95,9.95
38.19,15.72,5.78,15.73,5.78,-5.78,-5.62,-5.89,9.94,9.95,9.94
38.57,15.72,5.77,15.74,5.79,-5.79,-5.64,-5.84,9.93,9.95,9.95
38.95,15.72,5.76,15.74,5.79,-5.79,-5.66,-5.79,9.93,9.95,9.96
39.34,15.69,5.74,15.73,5.78,-5.78,-5.68,-5.75,9.91,9.95,9.95
39.74,15.66,5.71,15.73,5.78,-5.78,-5.70,-5.71,9.88,9.95,9.95
40.14,15.66,5.71,15.73,5.78,-5.78,-5.72,-5.67,9.88,9.95,9.95
40.54,15.74,5.79,15.74,5.80,-5.80,-5.74,-5.63,9.94,9.95,9.95
40.94,15.81,5.87,15.76,5.81,-5.81,-5.76,-5.59,9.99,9.95,9.94
41.35,15.82,5.88,15.77,5.83,-5.83,-5.78,-5.56,9.99,9.94,9.94
41.76,15.82,5.89,15.77,5.84,-5.84,-5.80,-5.54,9.98,9.93,9.93
42.18,15.82,5.89,15.78,5.85,-5.85,-5.82,-5.51,9.96,9.92,9.93
42.60,15.82,5.90,15.79,5.87,-5.87,-5.84,-5.49,9.94,9.91,9.92
43.03,15.82,5.91,15.80,5.90,-5.90,-5.86,-5.48,9.92,9.90,9.91
43.46,15.82,5.92,15.82,5.93,-5.93,-5.88,-5.47,9.89,9.89,9.90
43.90,15.82,5.94,15.84,5.96,-5.96,-5.90,-5.46,9.86,9.88,9.88
44.33,15.82,5.96,15.85,5.99,-5.99,-5.92,-5.45,9.83,9.87,9.86
44.78,15.82,5.98,15.86,6.01,-6.01,-5.94,-5.45,9.81,9.85,9.84
45.23,15.82,5.99,15.87,6.03,-6.03,-5.97,-5.46,9.79,9.84,9.83
45.68,15.82,6.00,15.88,6.05,-6.05,-5.99,-5.46,9.77,9.83,9.82
46.13,15.85,6.05,15.89,6.08,-6.08,-6.01,-5.48,9.77,9.81,9.80
46.60,15.96,6.15,15.90,6.10,-6.10,-6.03,-5.49,9.85,9.80,9.80
47.06,16.04,6.26,15.91,6.13,-6.13,-6.06,-5.51,9.91,9.78,9.78
47.53,15.99,6.22,15.92,6.15,-6.15,-6.08,-5.53,9.83,9.77,9.77
48.01,15.93,6.16,15.93,6.17,-6.17,-6.10,-5.56,9.75,9.75,9.77
48.49,15.93,6.18,15.94,6.20,-6.20,-6.13,-5.59,9.73,9.74,9.75
48.97,15.93,6.20,15.94,6.21,-6.21,-6.15,-5.62,9.71,9.73,9.73
49.46,15.93,6.22,15.94,6.23,-6.23,-6.17,-5.66,9.70,9.71,9.71
49.96,15.93,6.24,15.94,6.24,-6.24,-6.20,-5.70,9.69,9.70,9.69
50.46,15.93,6.25,15.94,6.25,-6.25,-6.22,-5.74,9.67,9.69,9.68
50.96,15.93,6.26,15.94,6.27,-6.27,-6.25,-5.79,9.66,9.67,9.67
51.47,15.93,6.28,15.94,6.28,-6.28,-6.27,-5.84,9.65,9.66,9.65
51.99,15.93,6.29,15.94,6.29,-6.29,-6.30,-5.89,9.64,9.65,9.64
52.51,15.93,6.30,15.94,6.31,-6.31,-6.33,-5.94,9.62,9.64,9.63
53.03,15.93,6.30,15.95,6.33,-6.33,-6.35,-5.99,9.60,9.62,9.63
53.56,15.93,6.32,15.95,6.34,-6.34,-6.38,-6.05,9.59,9.61,9.61
54.10,15.93,6.33,15.93,6.33,-6.33,-6.41,-6.10,9.59,9.60,9.60
54.64,15.93,6.35,15.92,6.33,-6.33,-6.43,-6.16,9.60,9.59,9.58
55.18,15.95,6.37,15.90,6.32,-6.32,-6.46,-6.22,9.63,9.58,9.58
55.74,16.00,6.44,15.88,6.31,-6.31,-6.49,-6.27,9.68,9.57,9.56
56.29,15.97,6.42,15.86,6.31,-6.31,-6.52,-6.33,9.66,9.56,9.55
56.86,15.85,6.31,15.84,6.30,-6.30,-6.55,-6.39,9.55,9.54,9.54
57.42,15.80,6.29,15.81,6.29,-6.29,-6.58,-6.44,9.51,9.52,9.51
58.00,15.78,6.28,15.80,6.29,-6.29,-6.61,-6.49,9.49,9.50,9.50
58.58,15.69,6.20,15.78,6.30,-6.30,-6.64,-6.54,9.39,9.48,9.49
59.16,15.64,6.17,15.77,6.31,-6.31,-6.67,-6.59,9.33,9.46,9.47
59.76,15.70,6.25,15.75,6.32,-6.32,-6.70,-6.64,9.38,9.43,9.45
60.35,15.72,6.31,15.73,6.33,-6.33,-6.73,-6.68,9.38,9.40,9.41
60.96,15.72,6.35,15.71,6.35,-6.35,-6.76,-6.72,9.37,9.37,9.37
61.57,15.72,6.39,15.70,6.37,-6.37,-6.79,-6.76,9.34,9.33,9.33
62.18,15.72,6.43,15.70,6.41,-6.41,-6.83,-6.80,9.31,9.29,9.29
62.80,15.74,6.50,15.70,6.45,-6.45,-6.86,-6.83,9.29,9.25,9.24
63.43,15.77,6.57,15.70,6.49,-6.49,-6.89,-6.86,9.27,9.21,9.20
64.07,15.81,6.66,15.70,6.54,-6.54,-6.93,-6.88,9.27,9.16,9.15
64.71,15.68,6.57,15.71,6.59,-6.59,-6.96,-6.91,9.09,9.12,9.11
65.35,15.62,6.55,15.70,6.63,-6.63,-7.00,-6.93,8.99,9.07,9.07
66.01,15.62,6.60,15.68,6.65,-6.65,-7.03,-6.94,8.96,9.02,9.02
66.67,15.62,6.65,15.65,6.67,-6.67,-7.07,-6.96,8.94,8.98,8.97
67.33,15.65,6.73,15.63,6.70,-6.70,-7.10,-6.97,8.95,8.93,8.92
68.01,15.72,6.84,15.60,6.72,-6.72,-7.14,-6.98,9.00,8.88,8.88
68.69,15.58,6.75,15.57,6.74,-6.74,-7.18,-6.99,8.84,8.83,8.83
69.37,15.53,6.75,15.53,6.75,-6.75,-7.22,-7.00,8.77,8.78,8.78
70.07,15.54,6.81,15.49,6.77,-6.77,-7.26,-7.01,8.77,8.73,8.73
70.77,15.51,6.83,15.46,6.78,-6.78,-7.29,-7.02,8.72,8.67,8.68
71.48,15.39,6.76,15.42,6.80,-6.80,-7.33,-7.03,8.58,8.62,8.63
72.19,15.28,6.72,15.39,6.83,-6.83,-7.38,-7.04,8.45,8.56,8.56
72.91,15.33,6.83,15.36,6.86,-6.86,-7.42,-7.06,8.47,8.51,8.50
73.64,15.38,6.93,15.33,6.88,-6.88,-7.46,-7.07,8.50,8.45,8.45
74.38,15.33,6.94,15.29,6.90,-6.90,-7.50,-7.09,8.43,8.39,8.39
75.12,15.22,6.89,15.25,6.91,-6.91,-7.54,-7.11,8.30,8.34,8.33
75.87,15.22,6.95,15.22,6.94,-6.94,-7.59,-7.13,8.27,8.28,8.27
76.63,15.22,7.00,15.21,6.99,-6.99,-7.63,-7.15,8.23,8.23,8.22
77.40,15.22,7.05,15.20,7.03,-7.03,-7.67,-7.18,8.19,8.17,8.17
78.17,15.22,7.11,15.20,7.08,-7.08,-7.72,-7.21,8.14,8.12,8.11
78.95,15.22,7.15,15.20,7.13,-7.13,-7.77,-7.24,8.08,8.07,8.07
79.74,15.22,7.20,15.22,7.20,-7.20,-7.81,-7.28,8.02,8.02,8.02
80.54,15.21,7.24,15.23,7.26,-7.26,-7.86,-7.32,7.95,7.97,7.97
81.35,15.19,7.27,15.25,7.33,-7.33,-7.91,-7.37,7.86,7.92,7.92
82.16,15.19,7.32,15.28,7.40,-7.40,-7.96,-7.42,7.79,7.88,7.87
82.98,15.32,7.49,15.31,7.49,-7.49,-8.01,-7.48,7.83,7.83,7.83
83.81,15.40,7.62,15.36,7.58,-7.58,-8.06,-7.54,7.82,7.78,7.78
84.65,15.45,7.72,15.40,7.67,-7.67,-8.11,-7.61,7.78,7.73,7.73
85.50,15.49,7.80,15.45,7.77,-7.77,-8.16,-7.68,7.72,7.68,7.69
86.35,15.51,7.87,15.50,7.87,-7.87,-8.21,-7.76,7.64,7.63,7.64
87.22,15.52,7.93,15.56,7.98,-7.98,-8.26,-7.85,7.54,7.58,7.59
88.09,15.68,8.14,15.63,8.09,-8.09,-8.32,-7.93,7.58,7.53,7.54
88.97,15.73,8.25,15.70,8.22,-8.22,-8.37,-8.03,7.51,7.48,7.48
89.86,15.77,8.34,15.78,8.35,-8.35,-8.43,-8.13,7.42,7.43,7.43
90.76,15.80,8.42,15.86,8.48,-8.48,-8.48,-8.23,7.32,7.38,7.38
91.66,15.91,8.58,15.94,8.61,-8.61,-8.54,-8.35,7.30,7.33,7.33
92.58,15.99,8.72,16.01,8.73,-8.73,-8.60,-8.46,7.26,7.28,7.27
93.51,16.07,8.85,16.09,8.85,-8.85,-8.66,-8.58,7.21,7.23,7.22
94.44,16.16,8.98,16.17,8.99,-8.99,-8.71,-8.71,7.17,7.18,7.18
95.39,16.27,9.14,16.25,9.12,-9.12,-8.77,-8.85,7.14,7.13,7.13
96.34,16.38,9.30,16.34,9.26,-9.26,-8.84,-8.98,7.12,7.08,7.08
97.30,16.44,9.41,16.42,9.38,-9.38,-8.90,-9.13,7.05,7.03,7.03
98.28,16.54,9.56,16.49,9.50,-9.50,-8.96,-9.28,7.04,6.99,6.98
99.26,16.60,9.66,16.56,9.62,-9.62,-9.02,-9.43,6.98,6.94,6.94
100.25,16.61,9.72,16.63,9.74,-9.74,-9.09,-9.59,6.87,6.89,6.89
101.25,16.68,9.84,16.70,9.86,-9.86,-9.15,-9.75,6.82,6.84,6.84
102.27,16.70,9.91,16.76,9.97,-9.97,-9.22,-9.92,6.73,6.79,6.79
103.29,16.82,10.08,16.81,10.07,-10.07,-9.29,-10.09,6.75,6.74,6.74
104.32,16.91,10.21,16.85,10.16,-10.16,-9.35,-10.26,6.75,6.69,6.70
105.37,16.92,10.27,16.89,10.24,-10.24,-9.42,-10.43,6.68,6.64,6.65
106.42,16.92,10.32,16.92,10.33,-10.33,-9.49,-10.61,6.59,6.59,6.60
107.48,16.95,10.41,16.95,10.41,-10.41,-9.56,-10.79,6.54,6.54,6.54
108.56,16.99,10.50,16.98,10.49,-10.49,-9.63,-10.96,6.50,6.49,6.49
109.64,17.05,10.61,17.01,10.57,-10.57,-9.71,-11.14,6.47,6.44,6.44
110.74,17.10,10.72,17.05,10.66,-10.66,-9.78,-11.31,6.43,6.38,6.38
111.85,17.09,10.75,17.09,10.75,-10.75,-9.85,-11.48,6.33,6.33,6.34
112.97,17.06,10.78,17.12,10.84,-10.84,-9.93,-11.64,6.22,6.28,6.28
114.10,17.02,10.79,17.15,10.91,-10.91,-10.01,-11.80,6.11,6.23,6.23
115.24,17.07,10.89,17.17,10.98,-10.98,-10.08,-11.95,6.09,6.19,6.18
116.39,17.22,11.09,17.19,11.05,-11.05,-10.16,-12.09,6.17,6.14,6.13
117.55,17.29,11.20,17.22,11.12,-11.12,-10.24,-12.23,6.17,6.10,6.09
118.73,17.27,11.22,17.25,11.19,-11.19,-10.32,-12.35,6.08,6.06,6.05
119.92,17.34,11.32,17.29,11.26,-11.26,-10.40,-12.45,6.07,6.02,6.02
121.12,17.44,11.46,17.32,11.33,-11.33,-10.48,-12.55,6.10,5.99,5.98
122.33,17.41,11.46,17.36,11.41,-11.41,-10.56,-12.63,6.00,5.95,5.95
123.55,17.37,11.45,17.40,11.48,-11.48,-10.65,-12.69,5.89,5.92,5.92
124.79,17.34,11.45,17.44,11.55,-11.55,-10.73,-12.74,5.79,5.89,5.89
126.03,17.35,11.49,17.48,11.62,-11.62,-10.82,-12.77,5.73,5.86,5.86
127.29,17.46,11.62,17.51,11.68,-11.68,-10.90,-12.79,5.77,5.83,5.84
128.57,17.52,11.72,17.53,11.74,-11.74,-10.99,-12.79,5.78,5.80,5.80
129.85,17.59,11.82,17.55,11.78,-11.78,-11.07,-12.77,5.80,5.77,5.77
131.15,17.70,11.96,17.58,11.83,-11.83,-11.16,-12.75,5.86,5.74,5.74
132.46,17.66,11.95,17.60,11.89,-11.89,-11.25,-12.71,5.77,5.71,5.71
133.79,17.65,11.97,17.62,11.93,-11.93,-11.34,-12.65,5.72,5.69,5.68
135.12,17.65,12.00,17.63,11.97,-11.97,-11.43,-12.59,5.67,5.66,5.65
136.48,17.65,12.02,17.65,12.02,-12.02,-11.52,-12.52,5.63,5.63,5.63
137.84,17.65,12.06,17.67,12.06,-12.06,-11.61,-12.44,5.58,5.60,5.59
139.22,17.66,12.10,17.69,12.11,-12.11,-11.70,-12.36,5.55,5.57,5.56
140.61,17.66,12.13,17.70,12.15,-12.15,-11.79,-12.27,5.50,5.54,5.53
142.02,17.66,12.15,17.70,12.19,-12.19,-11.88,-12.17,5.47,5.51,5.51
143.44,17.66,12.18,17.70,12.22,-12.22,-11.97,-12.08,5.44,5.48,5.48
144.87,17.66,12.22,17.70,12.26,-12.26,-12.06,-11.98,5.39,5.44,5.44
146.32,17.66,12.26,17.70,12.31,-12.31,-12.15,-11.89,5.35,5.39,5.40
147.78,17.66,12.29,17.71,12.36,-12.36,-12.24,-11.79,5.29,5.35,5.37
149.26,17.66,12.34,17.69,12.40,-12.40,-12.33,-11.70,5.26,5.29,5.32
150.75,17.66,12.40,17.63,12.40,-12.40,-12.42,-11.61,5.26,5.23,5.26
152.26,17.70,12.51,17.54,12.37,-12.37,-12.50,-11.52,5.32,5.17,5.19
153.78,17.64,12.52,17.43,12.33,-12.33,-12.59,-11.44,5.31,5.11,5.12
155.32,17.47,12.42,17.31,12.27,-12.27,-12.67,-11.36,5.20,5.04,5.05
156.88,17.38,12.41,17.18,12.22,-12.22,-12.76,-11.29,5.16,4.97,4.97
158.44,17.31,12.42,17.07,12.17,-12.17,-12.84,-11.23,5.13,4.90,4.89
160.03,17.15,12.34,16.97,12.14,-12.14,-12.92,-11.16,5.01,4.83,4.81
161.63,16.88,12.14,16.89,12.13,-12.13,-13.00,-11.11,4.75,4.76,4.74
163.24,16.64,11.95,16.82,12.12,-12.12,-13.07,-11.06,4.52,4.70,4.68
164.88,16.30,11.67,16.76,12.12,-12.12,-13.15,-11.02,4.18,4.65,4.63
166.53,16.21,11.63,16.74,12.14,-12.14,-13.22,-10.99,4.07,4.60,4.58
168.19,16.37,11.83,16.74,12.18,-12.18,-13.28,-10.96,4.19,4.56,4.54
169.87,16.58,12.08,16.77,12.24,-12.24,-13.34,-10.94,4.34,4.53,4.50
171.57,16.87,12.39,16.82,12.32,-12.32,-13.40,-10.92,4.54,4.50,4.48
173.29,17.11,12.64,16.90,12.42,-12.42,-13.46,-10.92,4.68,4.48,4.47
175.02,17.26,12.80,17.00,12.54,-12.54,-13.51,-10.92,4.72,4.47,4.46
176.77,17.35,12.90,17.12,12.67,-12.67,-13.55,-10.93,4.68,4.46,4.45
178.54,17.35,12.91,17.25,12.81,-12.81,-13.59,-10.95,4.54,4.45,4.44
180.32,17.36,12.91,17.39,12.94,-12.94,-13.63,-10.97,4.41,4.44,4.45
182.13,17.55,13.09,17.50,13.06,-13.06,-13.66,-11.01,4.48,4.44,4.46
183.95,17.69,13.24,17.59,13.16,-13.16,-13.68,-11.05,4.53,4.43,4.45
185.79,17.65,13.20,17.64,13.22,-13.22,-13.69,-11.09,4.43,4.43,4.45
187.65,17.66,13.23,17.67,13.25,-13.25,-13.70,-11.15,4.41,4.42,4.43
189.52,17.68,13.26,17.68,13.27,-13.27,-13.70,-11.21,4.41,4.41,4.42
191.42,17.72,13.32,17.68,13.28,-13.28,-13.70,-11.28,4.44,4.40,4.40
193.33,17.74,13.36,17.67,13.29,-13.29,-13.69,-11.36,4.45,4.38,4.38
195.27,17.66,13.30,17.65,13.29,-13.29,-13.67,-11.44,4.37,4.36,4.36
197.22,17.60,13.26,17.64,13.30,-13.30,-13.64,-11.54,4.30,4.35,4.34
199.19,17.52,13.20,17.63,13.30,-13.30,-13.61,-11.63,4.22,4.33,4.32
201.18,17.49,13.19,17.61,13.30,-13.30,-13.56,-11.74,4.19,4.31,4.30
203.19,17.55,13.27,17.57,13.29,-13.29,-13.51,-11.85,4.26,4.28,4.28
205.23,17.61,13.35,17.54,13.27,-13.27,-13.46,-11.97,4.33,4.26,4.26
207.28,17.53,13.28,17.51,13.26,-13.26,-13.39,-12.09,4.26,4.24,4.25
209.35,17.46,13.23,17.46,13.24,-13.24,-13.32,-12.22,4.22,4.22,4.23
211.44,17.43,13.23,17.42,13.21,-13.21,-13.24,-12.35,4.22,4.21,4.20
213.56,17.32,13.13,17.37,13.18,-13.18,-13.15,-12.48,4.14,4.19,4.19
215.69,17.33,13.15,17.33,13.15,-13.15,-13.06,-12.61,4.18,4.18,4.18
217.85,17.40,13.23,17.27,13.11,-13.11,-12.96,-12.75,4.29,4.17,4.17
220.03,17.25,13.09,17.20,13.05,-13.05,-12.85,-12.88,4.20,4.16,4.16
222.23,17.12,12.99,17.13,12.98,-12.98,-12.74,-13.01,4.14,4.15,4.13
224.45,17.04,12.90,17.05,12.90,-12.90,-12.62,-13.14,4.14,4.15,4.14
226.70,16.97,12.83,16.96,12.81,-12.81,-12.49,-13.26,4.16,4.15,4.14
228.96,16.88,12.73,16.87,12.72,-12.72,-12.36,-13.37,4.16,4.15,4.15
231.25,16.77,12.61,16.79,12.63,-12.63,-12.23,-13.47,4.14,4.16,4.16
233.57,16.72,12.55,16.71,12.53,-12.53,-12.09,-13.56,4.18,4.17,4.17
235.90,16.65,12.47,16.62,12.43,-12.43,-11.95,-13.63,4.21,4.19,4.18
238.26,16.46,12.27,16.53,12.33,-12.33,-11.80,-13.68,4.13,4.21,4.19
240.64,16.29,12.07,16.44,12.22,-12.22,-11.65,-13.71,4.07,4.22,4.22
243.05,16.30,12.05,16.35,12.11,-12.11,-11.50,-13.71,4.19,4.25,4.25
245.48,16.32,12.05,16.27,12.00,-12.00,-11.34,-13.69,4.32,4.27,4.27
247.93,16.22,11.92,16.18,11.89,-11.89,-11.18,-13.64,4.33,4.29,4.30
250.41,16.12,11.80,16.08,11.76,-11.76,-11.02,-13.57,4.35,4.32,4.32
252.92,16.02,11.67,15.97,11.63,-11.63,-10.86,-13.46,4.38,4.34,4.35
255.45,15.88,11.51,15.86,11.50,-11.50,-10.69,-13.33,4.38,4.36,4.37
258.00,15.78,11.39,15.75,11.36,-11.36,-10.52,-13.17,4.42,4.39,4.39
260.58,15.66,11.25,15.63,11.21,-11.21,-10.36,-12.98,4.45,4.41,4.41
263.19,15.52,11.08,15.50,11.06,-11.06,-10.18,-12.77,4.46,4.44,4.44
265.82,15.38,10.92,15.36,10.90,-10.90,-10.01,-12.54,4.48,4.46,4.46
268.48,15.20,10.72,15.21,10.72,-10.72,-9.84,-12.28,4.47,4.49,4.48
271.16,15.00,10.49,15.04,10.53,-10.53,-9.67,-12.01,4.47,4.51,4.51
273.87,14.83,10.30,14.86,10.33,-10.33,-9.49,-11.73,4.50,4.54,4.53
276.61,14.69,10.13,14.69,10.13,-10.13,-9.32,-11.44,4.56,4.56,4.56
279.38,14.54,9.95,14.51,9.92,-9.92,-9.14,-11.13,4.62,4.59,4.59
282.17,14.36,9.75,14.33,9.71,-9.71,-8.96,-10.82,4.65,4.62,4.61
284.99,14.19,9.54,14.14,9.49,-9.49,-8.79,-10.50,4.69,4.65,4.65
287.84,13.97,9.30,13.95,9.28,-9.28,-8.61,-10.18,4.69,4.68,4.67
290.72,13.74,9.04,13.76,9.06,-9.06,-8.43,-9.85,4.68,4.70,4.70
293.63,13.55,8.82,13.57,8.84,-8.84,-8.26,-9.53,4.71,4.73,4.73
296.57,13.33,8.57,13.38,8.62,-8.62,-8.08,-9.20,4.71,4.76,4.76
299.53,13.15,8.36,13.19,8.40,-8.40,-7.90,-8.87,4.74,4.79,4.79
302.53,13.01,8.20,13.00,8.18,-8.18,-7.73,-8.55,4.82,4.82,4.81
305.55,12.81,7.96,12.81,7.97,-7.97,-7.55,-8.22,4.84,4.84,4.85
308.61,12.61,7.74,12.62,7.75,-7.75,-7.37,-7.90,4.86,4.87,4.87
311.69,12.46,7.56,12.43,7.54,-7.54,-7.19,-7.58,4.92,4.89,4.90
314.81,12.25,7.33,12.24,7.33,-7.33,-7.02,-7.26,4.92,4.91,4.92
317.96,12.05,7.11,12.05,7.12,-7.12,-6.84,-6.95,4.93,4.94,4.94
321.14,11.84,6.89,11.85,6.90,-6.90,-6.66,-6.64,4.94,4.95,4.95
324.35,11.62,6.65,11.65,6.68,-6.68,-6.49,-6.33,4.94,4.97,4.97
327.59,11.46,6.48,11.44,6.45,-6.45,-6.31,-6.02,5.00,4.99,4.98
330.87,11.27,6.28,11.22,6.22,-6.22,-6.13,-5.72,5.04,5.00,4.99
334.18,11.04,6.03,11.00,5.99,-5.99,-5.96,-5.42,5.05,5.01,5.01
337.52,10.84,5.82,10.77,5.75,-5.75,-5.78,-5.12,5.09,5.02,5.02
340.90,10.61,5.58,10.53,5.51,-5.51,-5.60,-4.83,5.10,5.03,5.03
344.30,10.34,5.30,10.30,5.26,-5.26,-5.42,-4.53,5.07,5.04,5.04
347.75,10.03,4.99,10.06,5.02,-5.02,-5.25,-4.24,5.01,5.04,5.04
351.23,9.74,4.69,9.82,4.78,-4.78,-5.07,-3.96,4.96,5.05,5.05
354.74,9.55,4.51,9.59,4.54,-4.54,-4.89,-3.67,5.01,5.05,5.04
358.28,9.35,4.30,9.35,4.29,-4.29,-4.72,-3.39,5.05,5.05,5.05
361.87,9.08,4.03,9.11,4.05,-4.05,-4.54,-3.11,5.02,5.05,5.05
365.49,8.87,3.81,8.87,3.82,-3.82,-4.36,-2.83,5.05,5.05,5.06
369.14,8.64,3.59,8.65,3.59,-3.59,-4.18,-2.55,5.04,5.05,5.05
372.83,8.38,3.33,8.43,3.37,-3.37,-4.00,-2.28,5.00,5.05,5.05
376.56,8.21,3.17,8.21,3.16,-3.16,-3.83,-2.00,5.05,5.05,5.04
380.33,8.05,3.00,8.00,2.95,-2.95,-3.65,-1.73,5.09,5.05,5.05
384.13,7.79,2.74,7.80,2.76,-2.76,-3.47,-1.46,5.03,5.04,5.05
387.97,7.57,2.53,7.60,2.56,-2.56,-3.29,-1.19,5.01,5.04,5.04
391.85,7.37,2.34,7.39,2.35,-2.35,-3.10,-0.93,5.01,5.03,5.03
395.77,7.18,2.14,7.17,2.14,-2.14,-2.92,-0.66,5.04,5.03,5.04
399.73,6.99,1.96,6.95,1.93,-1.93,-2.74,-0.40,5.06,5.02,5.03
403.72,6.83,1.80,6.74,1.72,-1.72,-2.56,-0.14,5.11,5.02,5.03
407.76,6.58,1.57,6.52,1.51,-1.51,-2.37,0.12,5.07,5.01,5.01
411.84,6.32,1.31,6.31,1.30,-1.30,-2.18,0.37,5.02,5.01,5.01
415.96,6.12,1.11,6.09,1.08,-1.08,-2.00,0.63,5.04,5.01,5.01
420.12,5.92,0.91,5.88,0.86,-0.86,-1.81,0.88,5.05,5.01,5.01
424.32,5.66,0.65,5.67,0.65,-0.65,-1.62,1.12,5.01,5.02,5.01
428.56,5.38,0.36,5.46,0.43,-0.43,-1.43,1.36,4.94,5.03,5.02
432.85,5.18,0.15,5.26,0.22,-0.22,-1.24,1.60,4.96,5.05,5.03
437.18,5.02,-0.02,5.07,-0.00,0.00,-1.04,1.83,5.02,5.07,5.04
441.55,4.85,-0.23,4.88,-0.21,0.21,-0.85,2.06,5.06,5.09,5.08
445.96,4.71,-0.40,4.71,-0.42,0.42,-0.65,2.28,5.12,5.12,5.11
450.42,4.58,-0.56,4.54,-0.62,0.62,-0.45,2.50,5.20,5.16,5.14
