frequency,raw,error,smoothed,error_smoothed,equalization,parametric_eq,fixed_band_eq,equalized_raw,equalized_smoothed,target
20.00,-3.05,-10.12,-3.06,-10.13,10.05,9.60,4.37,7.00,6.99,7.07
20.20,-3.00,-10.06,-2.99,-10.05,10.02,9.58,4.49,7.02,7.03,7.06
20.40,-2.94,-9.99,-2.93,-9.98,10.00,9.56,4.60,7.06,7.06,7.05
20.61,-2.89,-9.94,-2.88,-9.93,9.97,9.54,4.73,7.08,7.09,7.05
20.81,-2.84,-9.87,-2.84,-9.87,9.94,9.52,4.85,7.10,7.11,7.03
21.02,-2.79,-9.82,-2.81,-9.84,9.92,9.50,4.98,7.13,7.10,7.03
21.23,-2.82,-9.84,-2.81,-9.84,9.89,9.48,5.11,7.07,7.08,7.02
21.44,-2.84,-9.87,-2.84,-9.86,9.87,9.46,5.25,7.03,7.03,7.03
21.66,-2.87,-9.89,-2.88,-9.89,9.86,9.44,5.39,6.99,6.98,7.02
21.87,-2.90,-9.91,-2.89,-9.90,9.84,9.42,5.53,6.94,6.95,7.01
22.09,-2.89,-9.89,-2.88,-9.88,9.82,9.39,5.68,6.93,6.94,7.00
22.31,-2.83,-9.83,-2.84,-9.83,9.79,9.37,5.83,6.96,6.96,7.00
22.54,-2.77,-9.76,-2.77,-9.76,9.76,9.35,5.99,6.99,6.99,6.99
22.76,-2.71,-9.69,-2.71,-9.68,9.73,9.33,6.15,7.02,7.02,6.98
22.99,-2.65,-9.62,-2.67,-9.64,9.69,9.31,6.31,7.04,7.02,6.97
23.22,-2.65,-9.61,-2.65,-9.61,9.66,9.28,6.48,7.01,7.01,6.96
23.45,-2.66,-9.63,-2.66,-9.62,9.63,9.26,6.65,6.97,6.97,6.97
23.69,-2.66,-9.62,-2.67,-9.63,9.61,9.24,6.83,6.94,6.94,6.96
23.92,-2.67,-9.63,-2.66,-9.62,9.58,9.22,7.01,6.91,6.92,6.96
24.16,-2.63,-9.60,-2.63,-9.60,9.56,9.19,7.19,6.93,6.93,6.97
24.40,-2.58,-9.56,-2.58,-9.56,9.53,9.17,7.38,6.95,6.95,6.98
24.65,-2.52,-9.50,-2.52,-9.50,9.50,9.15,7.57,6.98,6.98,6.98
24.89,-2.46,-9.44,-2.47,-9.45,9.46,9.12,7.77,7.00,6.99,6.98
25.14,-2.43,-9.40,-2.43,-9.40,9.42,9.10,7.97,6.99,7.00,6.97
25.39,-2.40,-9.37,-2.40,-9.37,9.39,9.07,8.17,6.99,6.99,6.97
25.65,-2.37,-9.34,-2.37,-9.34,9.35,9.05,8.37,6.98,6.98,6.97
25.91,-2.35,-9.33,-2.35,-9.33,9.32,9.03,8.58,6.97,6.97,6.98
26.16,-2.32,-9.31,-2.32,-9.31,9.30,9.00,8.78,6.98,6.97,6.99
26.43,-2.30,-9.29,-2.30,-9.29,9.27,8.98,8.99,6.97,6.97,6.99
26.69,-2.27,-9.26,-2.27,-9.26,9.25,8.95,9.20,6.98,6.97,6.99
26.96,-2.24,-9.22,-2.24,-9.22,9.22,8.93,9.41,6.98,6.98,6.98
27.23,-2.21,-9.19,-2.21,-9.19,9.19,8.90,9.61,6.98,6.98,6.98
27.50,-2.17,-9.15,-2.17,-9.16,9.16,8.87,9.81,6.99,6.99,6.98
27.77,-2.14,-9.13,-2.14,-9.12,9.13,8.85,10.01,6.99,6.99,6.99
28.05,-2.11,-9.10,-2.11,-9.09,9.10,8.82,10.20,6.99,6.99,6.99
28.33,-2.09,-9.06,-2.09,-9.07,9.06,8.80,10.38,6.97,6.97,6.97
28.62,-2.07,-9.04,-2.07,-9.05,9.02,8.77,10.56,6.95,6.95,6.97
28.90,-2.05,-9.03,-2.05,-9.02,8.99,8.74,10.72,6.94,6.94,6.98
29.19,-2.01,-8.99,-2.00,-8.98,8.96,8.72,10.88,6.95,6.96,6.98
29.48,-1.95,-8.92,-1.95,-8.92,8.95,8.69,11.01,6.99,7.00,6.97
29.78,-1.90,-8.87,-1.90,-8.88,8.93,8.66,11.14,7.03,7.03,6.97
30.08,-1.87,-8.85,-1.89,-8.86,8.92,8.63,11.24,7.05,7.03,6.98
30.38,-1.92,-8.89,-1.93,-8.89,8.90,8.61,11.33,6.98,6.98,6.97
30.68,-1.97,-8.92,-1.97,-8.93,8.88,8.58,11.39,6.91,6.91,6.95
30.99,-2.02,-8.97,-1.99,-8.93,8.86,8.55,11.44,6.84,6.87,6.95
31.30,-1.95,-8.89,-1.95,-8.89,8.83,8.52,11.45,6.88,6.88,6.94
31.61,-1.88,-8.81,-1.89,-8.82,8.80,8.49,11.46,6.92,6.91,6.93
31.93,-1.81,-8.73,-1.82,-8.74,8.78,8.46,11.43,6.96,6.95,6.92
32.24,-1.78,-8.70,-1.78,-8.69,8.75,8.43,11.40,6.97,6.97,6.92
32.57,-1.76,-8.66,-1.76,-8.66,8.72,8.40,11.33,6.96,6.96,6.90
32.89,-1.75,-8.65,-1.75,-8.65,8.69,8.38,11.26,6.94,6.94,6.90
33.22,-1.76,-8.66,-1.77,-8.67,8.66,8.35,11.16,6.90,6.89,6.90
33.55,-1.78,-8.67,-1.79,-8.68,8.63,8.32,11.05,6.84,6.84,6.89
33.89,-1.81,-8.71,-1.79,-8.67,8.59,8.28,10.92,6.78,6.81,6.90
34.23,-1.75,-8.63,-1.73,-8.61,8.56,8.25,10.79,6.81,6.83,6.88
34.57,-1.64,-8.52,-1.65,-8.53,8.53,8.22,10.64,6.89,6.88,6.88
34.92,-1.54,-8.41,-1.57,-8.44,8.50,8.19,10.48,6.96,6.94,6.87
35.27,-1.52,-8.40,-1.52,-8.39,8.48,8.16,10.32,6.95,6.95,6.88
35.62,-1.53,-8.39,-1.52,-8.38,8.45,8.13,10.16,6.91,6.92,6.86
35.97,-1.54,-8.40,-1.55,-8.40,8.41,8.10,9.99,6.87,6.86,6.86
36.33,-1.57,-8.41,-1.58,-8.42,8.37,8.06,9.81,6.80,6.79,6.84
36.70,-1.60,-8.43,-1.60,-8.42,8.33,8.03,9.64,6.73,6.74,6.83
37.06,-1.60,-8.41,-1.56,-8.37,8.30,8.00,9.47,6.70,6.73,6.81
37.43,-1.48,-8.27,-1.48,-8.27,8.25,7.97,9.29,6.77,6.77,6.79
37.81,-1.37,-8.14,-1.40,-8.16,8.20,7.93,9.12,6.83,6.81,6.77
38.19,-1.32,-8.06,-1.34,-8.08,8.15,7.90,8.96,6.83,6.82,6.74
38.57,-1.33,-8.05,-1.32,-8.04,8.10,7.86,8.79,6.76,6.77,6.72
38.95,-1.34,-8.03,-1.34,-8.02,8.04,7.83,8.63,6.70,6.70,6.69
39.34,-1.35,-8.00,-1.35,-8.01,7.99,7.79,8.47,6.64,6.64,6.65
39.74,-1.35,-7.98,-1.35,-7.98,7.94,7.76,8.31,6.59,6.59,6.63
40.14,-1.34,-7.94,-1.34,-7.94,7.88,7.72,8.16,6.54,6.55,6.60
40.54,-1.30,-7.88,-1.30,-7.88,7.83,7.69,8.02,6.53,6.53,6.58
40.94,-1.25,-7.80,-1.24,-7.79,7.78,7.65,7.88,6.52,6.53,6.55
41.35,-1.18,-7.71,-1.17,-7.69,7.72,7.61,7.74,6.54,6.55,6.53
41.76,-1.10,-7.59,-1.12,-7.61,7.67,7.57,7.61,6.57,6.55,6.49
42.18,-1.07,-7.54,-1.09,-7.56,7.62,7.54,7.48,6.55,6.53,6.47
42.60,-1.11,-7.56,-1.10,-7.54,7.58,7.50,7.36,6.47,6.48,6.45
43.03,-1.14,-7.56,-1.14,-7.56,7.54,7.46,7.25,6.40,6.41,6.42
43.46,-1.16,-7.55,-1.17,-7.56,7.51,7.42,7.14,6.35,6.35,6.39
43.90,-1.18,-7.55,-1.16,-7.52,7.48,7.38,7.03,6.30,6.32,6.37
44.33,-1.14,-7.47,-1.14,-7.47,7.45,7.34,6.93,6.31,6.31,6.33
44.78,-1.09,-7.39,-1.10,-7.41,7.40,7.29,6.84,6.31,6.30,6.30
45.23,-1.06,-7.35,-1.07,-7.34,7.34,7.25,6.75,6.28,6.27,6.29
45.68,-1.05,-7.29,-1.04,-7.28,7.27,7.21,6.66,6.22,6.23,6.24
46.13,-1.02,-7.22,-1.00,-7.20,7.21,7.16,6.58,6.19,6.21,6.20
46.60,-0.95,-7.12,-0.95,-7.12,7.15,7.12,6.50,6.20,6.20,6.17
47.06,-0.89,-7.02,-0.92,-7.05,7.10,7.07,6.43,6.20,6.18,6.13
47.53,-0.92,-7.02,-0.91,-7.00,7.04,7.03,6.36,6.12,6.13,6.10
48.01,-0.94,-6.98,-0.95,-6.99,6.99,6.98,6.30,6.05,6.04,6.04
48.49,-0.98,-6.97,-0.99,-6.98,6.93,6.93,6.24,5.95,5.95,5.99
48.97,-1.02,-6.97,-0.98,-6.92,6.87,6.88,6.19,5.85,5.89,5.95
49.46,-0.94,-6.85,-0.94,-6.84,6.80,6.83,6.14,5.86,5.86,5.91
49.96,-0.85,-6.69,-0.89,-6.74,6.73,6.78,6.09,5.88,5.83,5.84
50.46,-0.84,-6.64,-0.85,-6.65,6.65,6.73,6.04,5.81,5.81,5.80
50.96,-0.84,-6.60,-0.80,-6.55,6.58,6.68,6.00,5.74,5.78,5.76
51.47,-0.76,-6.48,-0.76,-6.47,6.51,6.63,5.96,5.75,5.75,5.72
51.99,-0.67,-6.34,-0.72,-6.39,6.44,6.57,5.92,5.77,5.72,5.67
52.51,-0.71,-6.34,-0.71,-6.34,6.38,6.51,5.89,5.66,5.67,5.63
53.03,-0.74,-6.34,-0.75,-6.33,6.32,6.46,5.86,5.58,5.57,5.60
53.56,-0.79,-6.33,-0.78,-6.32,6.26,6.40,5.83,5.47,5.48,5.54
54.10,-0.80,-6.29,-0.76,-6.25,6.21,6.34,5.79,5.40,5.44,5.49
54.64,-0.70,-6.15,-0.72,-6.15,6.14,6.28,5.76,5.44,5.43,5.45
55.18,-0.63,-6.02,-0.66,-6.05,6.07,6.22,5.73,5.44,5.41,5.39
55.74,-0.63,-5.97,-0.63,-5.98,6.00,6.15,5.71,5.36,5.36,5.34
56.29,-0.63,-5.94,-0.63,-5.93,5.92,6.09,5.67,5.29,5.29,5.31
56.86,-0.63,-5.90,-0.60,-5.85,5.85,6.02,5.64,5.22,5.26,5.27
57.42,-0.55,-5.76,-0.54,-5.76,5.79,5.95,5.61,5.24,5.25,5.21
58.00,-0.45,-5.63,-0.50,-5.68,5.73,5.88,5.58,5.28,5.23,5.18
58.58,-0.50,-5.65,-0.50,-5.65,5.68,5.81,5.54,5.18,5.17,5.15
59.16,-0.54,-5.65,-0.54,-5.65,5.62,5.74,5.50,5.07,5.07,5.11
59.76,-0.59,-5.66,-0.56,-5.62,5.55,5.67,5.46,4.96,4.99,5.07
60.35,-0.55,-5.55,-0.53,-5.53,5.48,5.59,5.41,4.93,4.95,5.00
60.96,-0.44,-5.39,-0.48,-5.42,5.42,5.51,5.37,4.97,4.93,4.95
61.57,-0.43,-5.31,-0.44,-5.31,5.35,5.44,5.31,4.92,4.91,4.88
62.18,-0.43,-5.24,-0.42,-5.23,5.28,5.36,5.26,4.85,4.86,4.81
62.80,-0.43,-5.18,-0.43,-5.18,5.21,5.28,5.20,4.78,4.78,4.75
63.43,-0.43,-5.12,-0.43,-5.12,5.13,5.20,5.14,4.70,4.70,4.69
64.07,-0.43,-5.07,-0.43,-5.07,5.06,5.11,5.07,4.63,4.63,4.64
64.71,-0.43,-5.01,-0.44,-5.01,4.99,5.03,5.00,4.56,4.55,4.58
65.35,-0.43,-4.95,-0.43,-4.96,4.92,4.95,4.93,4.48,4.48,4.52
66.01,-0.43,-4.89,-0.41,-4.87,4.84,4.86,4.85,4.41,4.43,4.46
66.67,-0.36,-4.78,-0.36,-4.77,4.75,4.78,4.77,4.39,4.39,4.42
67.33,-0.30,-4.64,-0.30,-4.65,4.66,4.70,4.69,4.36,4.36,4.34
68.01,-0.24,-4.53,-0.25,-4.54,4.57,4.61,4.60,4.33,4.32,4.29
68.69,-0.23,-4.45,-0.23,-4.45,4.49,4.53,4.51,4.26,4.25,4.22
69.37,-0.23,-4.40,-0.23,-4.39,4.40,4.45,4.42,4.17,4.17,4.17
70.07,-0.23,-4.33,-0.23,-4.33,4.32,4.37,4.33,4.09,4.09,4.10
70.77,-0.23,-4.27,-0.23,-4.27,4.25,4.29,4.23,4.02,4.02,4.04
71.48,-0.23,-4.20,-0.23,-4.20,4.19,4.21,4.14,3.96,3.96,3.97
72.19,-0.23,-4.13,-0.23,-4.13,4.14,4.14,4.04,3.91,3.91,3.90
72.91,-0.23,-4.07,-0.23,-4.06,4.09,4.06,3.94,3.85,3.86,3.84
73.64,-0.23,-4.00,-0.24,-4.00,4.03,3.99,3.84,3.79,3.79,3.77
74.38,-0.25,-3.96,-0.26,-3.97,3.96,3.91,3.74,3.71,3.70,3.71
75.12,-0.27,-3.91,-0.27,-3.92,3.88,3.84,3.64,3.61,3.61,3.64
75.87,-0.29,-3.89,-0.25,-3.84,3.80,3.77,3.54,3.51,3.55,3.60
76.63,-0.19,-3.72,-0.21,-3.74,3.71,3.70,3.45,3.52,3.50,3.53
77.40,-0.13,-3.61,-0.15,-3.63,3.62,3.63,3.35,3.49,3.47,3.48
78.17,-0.11,-3.53,-0.08,-3.50,3.53,3.57,3.25,3.42,3.45,3.42
78.95,-0.02,-3.40,-0.04,-3.41,3.45,3.50,3.16,3.43,3.41,3.38
79.74,-0.00,-3.32,-0.01,-3.33,3.36,3.43,3.06,3.36,3.35,3.32
80.54,-0.01,-3.27,-0.01,-3.27,3.29,3.36,2.97,3.28,3.28,3.26
81.35,-0.03,-3.24,-0.02,-3.23,3.22,3.30,2.87,3.19,3.20,3.21
82.16,-0.03,-3.19,-0.03,-3.19,3.17,3.23,2.78,3.14,3.14,3.16
82.98,-0.03,-3.13,-0.03,-3.13,3.13,3.16,2.69,3.09,3.09,3.10
83.81,-0.03,-3.07,-0.03,-3.07,3.08,3.09,2.60,3.04,3.05,3.04
84.65,-0.03,-3.01,-0.04,-3.01,3.02,3.02,2.52,2.98,2.97,2.98
85.50,-0.05,-2.96,-0.07,-2.98,2.95,2.95,2.43,2.90,2.88,2.91
86.35,-0.08,-2.93,-0.06,-2.91,2.88,2.88,2.35,2.79,2.82,2.85
87.22,-0.06,-2.86,-0.03,-2.82,2.80,2.81,2.26,2.74,2.77,2.80
88.09,0.07,-2.66,0.02,-2.71,2.72,2.74,2.18,2.78,2.74,2.73
88.97,0.07,-2.61,0.06,-2.61,2.64,2.67,2.10,2.70,2.70,2.68
89.86,0.07,-2.53,0.08,-2.52,2.55,2.59,2.02,2.62,2.64,2.60
90.76,0.07,-2.47,0.07,-2.47,2.47,2.52,1.95,2.54,2.54,2.54
91.66,0.08,-2.39,0.08,-2.39,2.39,2.44,1.87,2.47,2.47,2.47
92.58,0.08,-2.33,0.08,-2.33,2.32,2.36,1.80,2.40,2.40,2.41
93.51,0.08,-2.26,0.08,-2.26,2.25,2.29,1.73,2.33,2.33,2.34
94.44,0.08,-2.19,0.08,-2.19,2.18,2.21,1.65,2.25,2.25,2.27
95.39,0.08,-2.11,0.08,-2.11,2.11,2.13,1.58,2.19,2.18,2.19
96.34,0.07,-2.04,0.07,-2.04,2.04,2.05,1.52,2.11,2.11,2.11
97.30,0.07,-1.96,0.07,-1.96,1.97,1.97,1.45,2.04,2.04,2.03
98.28,0.06,-1.88,0.06,-1.88,1.90,1.89,1.38,1.96,1.96,1.94
99.26,0.04,-1.81,0.04,-1.81,1.83,1.81,1.32,1.87,1.87,1.85
100.25,0.03,-1.74,0.01,-1.76,1.74,1.73,1.25,1.77,1.76,1.77
101.25,-0.00,-1.70,-0.01,-1.70,1.65,1.65,1.19,1.65,1.64,1.70
102.27,-0.03,-1.64,-0.00,-1.61,1.56,1.56,1.13,1.53,1.55,1.61
103.29,0.03,-1.50,0.04,-1.49,1.46,1.48,1.07,1.49,1.50,1.53
104.32,0.11,-1.35,0.10,-1.35,1.37,1.40,1.01,1.48,1.47,1.46
105.37,0.18,-1.20,0.15,-1.22,1.28,1.32,0.95,1.46,1.43,1.38
106.42,0.15,-1.14,0.15,-1.14,1.20,1.24,0.90,1.34,1.34,1.29
107.48,0.10,-1.10,0.11,-1.09,1.12,1.16,0.84,1.21,1.23,1.20
108.56,0.07,-1.07,0.07,-1.05,1.04,1.08,0.78,1.11,1.12,1.14
109.64,0.05,-1.00,0.05,-1.00,0.98,1.00,0.73,1.03,1.03,1.05
110.74,0.03,-0.94,0.03,-0.95,0.93,0.92,0.67,0.96,0.96,0.97
111.85,0.01,-0.89,0.01,-0.89,0.88,0.84,0.62,0.89,0.89,0.90
112.97,-0.00,-0.83,-0.00,-0.83,0.82,0.77,0.57,0.82,0.82,0.83
114.10,-0.01,-0.77,-0.01,-0.76,0.76,0.69,0.52,0.74,0.75,0.76
115.24,-0.01,-0.69,-0.01,-0.69,0.69,0.62,0.47,0.67,0.67,0.68
116.39,-0.01,-0.61,-0.01,-0.61,0.61,0.54,0.42,0.60,0.60,0.60
117.55,-0.00,-0.54,-0.01,-0.53,0.54,0.47,0.37,0.54,0.54,0.54
118.73,-0.00,-0.46,0.00,-0.46,0.47,0.40,0.32,0.47,0.47,0.46
119.92,0.01,-0.39,0.01,-0.39,0.40,0.33,0.27,0.41,0.41,0.40
121.12,0.02,-0.33,0.01,-0.33,0.34,0.26,0.23,0.36,0.35,0.35
122.33,0.02,-0.26,0.02,-0.26,0.27,0.19,0.18,0.29,0.29,0.28
123.55,0.03,-0.20,0.03,-0.20,0.19,0.12,0.13,0.22,0.22,0.23
124.79,0.04,-0.13,0.02,-0.14,0.12,0.06,0.09,0.15,0.14,0.17
126.03,0.02,-0.08,0.03,-0.07,0.03,-0.01,0.04,0.05,0.07,0.10
127.29,0.05,0.01,0.07,0.03,-0.05,-0.07,-0.00,0.00,0.02,0.04
128.57,0.12,0.14,0.11,0.13,-0.13,-0.13,-0.05,-0.01,-0.02,-0.02
129.85,0.17,0.26,0.15,0.24,-0.22,-0.19,-0.09,-0.05,-0.06,-0.09
131.15,0.17,0.32,0.18,0.33,-0.30,-0.25,-0.13,-0.13,-0.12,-0.15
132.46,0.18,0.39,0.18,0.39,-0.38,-0.31,-0.18,-0.20,-0.20,-0.21
133.79,0.18,0.45,0.18,0.45,-0.45,-0.37,-0.22,-0.27,-0.27,-0.27
135.12,0.18,0.51,0.18,0.51,-0.52,-0.43,-0.26,-0.34,-0.33,-0.33
136.48,0.19,0.56,0.19,0.57,-0.58,-0.49,-0.30,-0.39,-0.39,-0.37
137.84,0.19,0.62,0.19,0.63,-0.63,-0.54,-0.35,-0.45,-0.45,-0.43
139.22,0.19,0.70,0.19,0.69,-0.69,-0.60,-0.39,-0.50,-0.50,-0.51
140.61,0.19,0.74,0.19,0.75,-0.75,-0.66,-0.43,-0.56,-0.56,-0.55
142.02,0.19,0.80,0.19,0.81,-0.80,-0.72,-0.47,-0.62,-0.62,-0.61
143.44,0.19,0.87,0.19,0.86,-0.86,-0.78,-0.52,-0.67,-0.67,-0.68
144.87,0.19,0.92,0.19,0.92,-0.92,-0.84,-0.56,-0.73,-0.73,-0.73
146.32,0.19,0.97,0.19,0.97,-0.97,-0.90,-0.61,-0.79,-0.79,-0.78
147.78,0.19,1.03,0.19,1.03,-1.03,-0.96,-0.65,-0.84,-0.84,-0.84
149.26,0.19,1.08,0.19,1.09,-1.09,-1.02,-0.70,-0.90,-0.90,-0.89
150.75,0.19,1.15,0.19,1.14,-1.14,-1.09,-0.74,-0.95,-0.95,-0.96
152.26,0.19,1.19,0.19,1.20,-1.20,-1.15,-0.79,-1.01,-1.01,-1.00
153.78,0.19,1.25,0.19,1.25,-1.25,-1.22,-0.84,-1.07,-1.06,-1.06
155.32,0.19,1.30,0.19,1.31,-1.31,-1.28,-0.88,-1.12,-1.12,-1.11
156.88,0.20,1.37,0.20,1.37,-1.37,-1.35,-0.93,-1.17,-1.17,-1.17
158.44,0.20,1.43,0.20,1.43,-1.43,-1.42,-0.98,-1.23,-1.23,-1.23
160.03,0.20,1.49,0.20,1.49,-1.49,-1.49,-1.03,-1.29,-1.29,-1.29
161.63,0.19,1.54,0.19,1.55,-1.55,-1.55,-1.09,-1.36,-1.35,-1.35
163.24,0.19,1.61,0.19,1.61,-1.60,-1.62,-1.14,-1.42,-1.42,-1.42
164.88,0.19,1.66,0.19,1.66,-1.66,-1.69,-1.19,-1.47,-1.48,-1.47
166.53,0.18,1.72,0.18,1.72,-1.72,-1.76,-1.25,-1.54,-1.54,-1.54
168.19,0.18,1.77,0.18,1.77,-1.77,-1.82,-1.30,-1.59,-1.60,-1.59
169.87,0.17,1.82,0.17,1.83,-1.83,-1.89,-1.36,-1.66,-1.66,-1.65
171.57,0.16,1.88,0.16,1.88,-1.88,-1.95,-1.42,-1.72,-1.72,-1.72
173.29,0.16,1.94,0.15,1.93,-1.93,-2.01,-1.48,-1.77,-1.78,-1.78
175.02,0.15,1.98,0.15,1.98,-1.99,-2.07,-1.54,-1.84,-1.84,-1.83
176.77,0.15,2.03,0.15,2.04,-2.04,-2.13,-1.60,-1.90,-1.90,-1.88
178.54,0.15,2.09,0.15,2.09,-2.10,-2.19,-1.67,-1.95,-1.95,-1.94
180.32,0.15,2.15,0.15,2.14,-2.16,-2.25,-1.73,-2.01,-2.01,-2.00
182.13,0.16,2.20,0.16,2.21,-2.20,-2.30,-1.80,-2.05,-2.04,-2.04
183.95,0.17,2.26,0.18,2.27,-2.25,-2.35,-1.87,-2.08,-2.07,-2.09
185.79,0.20,2.34,0.18,2.32,-2.30,-2.40,-1.94,-2.10,-2.11,-2.14
187.65,0.19,2.37,0.17,2.35,-2.34,-2.45,-2.01,-2.15,-2.17,-2.18
189.52,0.13,2.36,0.15,2.37,-2.38,-2.50,-2.08,-2.26,-2.24,-2.23
191.42,0.12,2.38,0.13,2.40,-2.43,-2.54,-2.15,-2.31,-2.30,-2.26
193.33,0.14,2.45,0.13,2.45,-2.47,-2.58,-2.23,-2.33,-2.34,-2.31
195.27,0.15,2.51,0.15,2.51,-2.52,-2.62,-2.30,-2.37,-2.37,-2.36
197.22,0.17,2.58,0.17,2.57,-2.56,-2.66,-2.38,-2.39,-2.40,-2.41
199.19,0.18,2.62,0.18,2.62,-2.61,-2.70,-2.46,-2.43,-2.43,-2.44
201.18,0.18,2.67,0.18,2.67,-2.66,-2.73,-2.53,-2.48,-2.48,-2.49
203.19,0.19,2.71,0.19,2.71,-2.71,-2.77,-2.61,-2.52,-2.52,-2.52
205.23,0.19,2.75,0.19,2.75,-2.75,-2.80,-2.69,-2.56,-2.56,-2.56
207.28,0.19,2.78,0.19,2.79,-2.79,-2.83,-2.77,-2.60,-2.60,-2.59
209.35,0.19,2.82,0.19,2.82,-2.83,-2.86,-2.84,-2.64,-2.64,-2.63
211.44,0.19,2.87,0.19,2.86,-2.86,-2.88,-2.92,-2.67,-2.68,-2.68
213.56,0.18,2.89,0.18,2.90,-2.90,-2.91,-2.99,-2.72,-2.71,-2.71
215.69,0.18,2.93,0.18,2.93,-2.93,-2.93,-3.07,-2.75,-2.75,-2.75
217.85,0.18,2.96,0.17,2.96,-2.96,-2.95,-3.14,-2.78,-2.79,-2.78
220.03,0.17,3.00,0.17,3.00,-2.99,-2.97,-3.21,-2.82,-2.82,-2.83
222.23,0.17,3.02,0.17,3.02,-3.03,-2.99,-3.28,-2.86,-2.86,-2.85
224.45,0.17,3.05,0.17,3.05,-3.06,-3.01,-3.35,-2.89,-2.89,-2.88
226.70,0.17,3.08,0.17,3.08,-3.09,-3.03,-3.41,-2.92,-2.92,-2.91
228.96,0.17,3.10,0.17,3.10,-3.11,-3.04,-3.47,-2.94,-2.94,-2.93
231.25,0.18,3.12,0.18,3.13,-3.13,-3.06,-3.52,-2.95,-2.95,-2.94
233.57,0.19,3.16,0.20,3.16,-3.14,-3.07,-3.58,-2.95,-2.95,-2.97
235.90,0.21,3.19,0.20,3.18,-3.16,-3.08,-3.62,-2.95,-2.96,-2.98
238.26,0.20,3.20,0.18,3.18,-3.17,-3.09,-3.67,-2.97,-2.99,-3.00
240.64,0.15,3.14,0.17,3.16,-3.18,-3.10,-3.70,-3.03,-3.01,-2.99
243.05,0.15,3.15,0.16,3.17,-3.19,-3.11,-3.73,-3.04,-3.04,-3.00
245.48,0.17,3.19,0.17,3.18,-3.20,-3.11,-3.76,-3.04,-3.04,-3.02
247.93,0.20,3.23,0.19,3.22,-3.22,-3.12,-3.78,-3.02,-3.02,-3.03
250.41,0.22,3.24,0.22,3.24,-3.23,-3.12,-3.80,-3.02,-3.02,-3.02
252.92,0.23,3.25,0.23,3.26,-3.25,-3.13,-3.81,-3.03,-3.02,-3.02
255.45,0.24,3.28,0.24,3.28,-3.28,-3.13,-3.81,-3.04,-3.04,-3.04
258.00,0.25,3.30,0.25,3.30,-3.30,-3.13,-3.81,-3.05,-3.05,-3.05
260.58,0.26,3.32,0.26,3.32,-3.31,-3.13,-3.80,-3.05,-3.06,-3.06
263.19,0.26,3.33,0.26,3.33,-3.33,-3.13,-3.79,-3.07,-3.07,-3.07
265.82,0.26,3.35,0.26,3.34,-3.35,-3.13,-3.78,-3.09,-3.09,-3.09
268.48,0.25,3.34,0.25,3.35,-3.37,-3.13,-3.76,-3.12,-3.11,-3.09
271.16,0.25,3.36,0.25,3.36,-3.38,-3.13,-3.73,-3.13,-3.13,-3.11
273.87,0.25,3.37,0.25,3.37,-3.39,-3.13,-3.70,-3.14,-3.14,-3.12
276.61,0.25,3.39,0.25,3.40,-3.39,-3.12,-3.67,-3.14,-3.14,-3.14
279.38,0.25,3.42,0.26,3.42,-3.38,-3.12,-3.63,-3.13,-3.12,-3.17
282.17,0.25,3.42,0.24,3.41,-3.37,-3.11,-3.60,-3.12,-3.12,-3.17
284.99,0.23,3.40,0.20,3.37,-3.35,-3.11,-3.56,-3.12,-3.15,-3.17
287.84,0.12,3.29,0.14,3.32,-3.33,-3.10,-3.51,-3.21,-3.20,-3.17
290.72,0.07,3.26,0.09,3.27,-3.32,-3.10,-3.47,-3.25,-3.23,-3.19
293.63,0.08,3.26,0.07,3.26,-3.30,-3.09,-3.43,-3.23,-3.23,-3.18
296.57,0.10,3.28,0.09,3.28,-3.30,-3.08,-3.38,-3.20,-3.21,-3.18
299.53,0.11,3.30,0.11,3.29,-3.29,-3.07,-3.34,-3.19,-3.19,-3.19
302.53,0.12,3.30,0.12,3.31,-3.30,-3.06,-3.29,-3.18,-3.18,-3.18
305.55,0.13,3.32,0.13,3.32,-3.31,-3.05,-3.24,-3.18,-3.18,-3.19
308.61,0.14,3.32,0.14,3.33,-3.31,-3.04,-3.20,-3.18,-3.17,-3.18
311.69,0.15,3.35,0.15,3.34,-3.32,-3.03,-3.16,-3.17,-3.17,-3.20
314.81,0.15,3.34,0.13,3.33,-3.31,-3.02,-3.11,-3.16,-3.18,-3.19
317.96,0.10,3.31,0.10,3.31,-3.30,-3.01,-3.07,-3.20,-3.20,-3.21
321.14,0.06,3.26,0.07,3.28,-3.29,-2.99,-3.03,-3.23,-3.22,-3.20
324.35,0.05,3.26,0.05,3.26,-3.28,-2.98,-2.99,-3.23,-3.23,-3.21
327.59,0.05,3.25,0.05,3.25,-3.27,-2.97,-2.95,-3.23,-3.23,-3.20
330.87,0.05,3.26,0.05,3.26,-3.27,-2.96,-2.92,-3.22,-3.22,-3.21
334.18,0.05,3.27,0.05,3.26,-3.26,-2.94,-2.88,-3.21,-3.21,-3.22
337.52,0.05,3.26,0.05,3.27,-3.26,-2.93,-2.85,-3.21,-3.21,-3.21
340.90,0.04,3.26,0.04,3.26,-3.25,-2.91,-2.82,-3.21,-3.21,-3.22
344.30,0.04,3.25,0.04,3.26,-3.25,-2.90,-2.79,-3.21,-3.20,-3.21
347.75,0.04,3.24,0.03,3.25,-3.24,-2.88,-2.77,-3.20,-3.20,-3.20
351.23,0.03,3.25,0.01,3.22,-3.22,-2.86,-2.74,-3.19,-3.21,-3.22
354.74,-0.02,3.18,-0.01,3.19,-3.20,-2.85,-2.72,-3.22,-3.22,-3.20
358.28,-0.05,3.15,-0.03,3.17,-3.18,-2.83,-2.70,-3.23,-3.22,-3.20
361.87,-0.04,3.16,-0.05,3.15,-3.16,-2.81,-2.69,-3.20,-3.20,-3.20
365.49,-0.04,3.15,-0.06,3.13,-3.13,-2.80,-2.67,-3.17,-3.18,-3.19
369.14,-0.07,3.11,-0.07,3.12,-3.10,-2.78,-2.66,-3.17,-3.16,-3.18
372.83,-0.11,3.06,-0.10,3.08,-3.07,-2.76,-2.65,-3.18,-3.17,-3.17
376.56,-0.11,3.07,-0.13,3.04,-3.05,-2.74,-2.64,-3.16,-3.18,-3.18
380.33,-0.17,3.01,-0.17,3.01,-3.03,-2.73,-2.63,-3.20,-3.20,-3.18
384.13,-0.20,2.97,-0.19,2.99,-3.01,-2.71,-2.63,-3.22,-3.20,-3.17
387.97,-0.20,2.97,-0.20,2.97,-3.00,-2.69,-2.63,-3.20,-3.20,-3.17
391.85,-0.19,2.99,-0.20,2.99,-2.99,-2.67,-2.63,-3.18,-3.18,-3.18
395.77,-0.19,3.00,-0.19,3.00,-2.98,-2.65,-2.63,-3.17,-3.16,-3.19
399.73,-0.19,3.00,-0.19,3.00,-2.97,-2.63,-2.63,-3.16,-3.16,-3.19
403.72,-0.20,2.98,-0.22,2.97,-2.96,-2.61,-2.63,-3.16,-3.19,-3.18
407.76,-0.27,2.93,-0.26,2.94,-2.95,-2.59,-2.64,-3.22,-3.21,-3.20
411.84,-0.30,2.91,-0.29,2.92,-2.94,-2.57,-2.64,-3.24,-3.23,-3.21
415.96,-0.30,2.91,-0.30,2.92,-2.92,-2.55,-2.65,-3.22,-3.22,-3.21
420.12,-0.30,2.92,-0.30,2.91,-2.90,-2.53,-2.65,-3.20,-3.20,-3.22
424.32,-0.30,2.91,-0.32,2.89,-2.88,-2.51,-2.66,-3.18,-3.20,-3.21
428.56,-0.35,2.84,-0.34,2.85,-2.86,-2.49,-2.67,-3.22,-3.21,-3.19
432.85,-0.37,2.80,-0.36,2.82,-2.85,-2.47,-2.68,-3.22,-3.20,-3.17
437.18,-0.35,2.81,-0.34,2.81,-2.82,-2.45,-2.69,-3.18,-3.17,-3.16
441.55,-0.31,2.82,-0.32,2.82,-2.80,-2.43,-2.69,-3.11,-3.11,-3.13
445.96,-0.27,2.82,-0.29,2.80,-2.77,-2.40,-2.70,-3.04,-3.06,-3.09
450.42,-0.29,2.76,-0.29,2.76,-2.74,-2.38,-2.71,-3.03,-3.03,-3.05
454.93,-0.29,2.71,-0.29,2.71,-2.72,-2.36,-2.71,-3.01,-3.01,-3.00
459.48,-0.29,2.65,-0.28,2.66,-2.70,-2.34,-2.71,-2.99,-2.98,-2.94
464.07,-0.23,2.64,-0.24,2.64,-2.68,-2.32,-2.72,-2.91,-2.91,-2.87
468.71,-0.18,2.64,-0.18,2.64,-2.65,-2.30,-2.72,-2.83,-2.83,-2.82
473.40,-0.12,2.64,-0.11,2.65,-2.63,-2.27,-2.72,-2.75,-2.74,-2.76
478.13,-0.06,2.64,-0.07,2.64,-2.61,-2.25,-2.71,-2.67,-2.68,-2.70
482.91,-0.02,2.63,-0.04,2.61,-2.60,-2.23,-2.71,-2.62,-2.65,-2.65
487.74,-0.05,2.57,-0.03,2.58,-2.59,-2.21,-2.70,-2.64,-2.63,-2.62
492.62,-0.04,2.54,-0.03,2.55,-2.57,-2.19,-2.69,-2.61,-2.60,-2.58
