frequency,raw,error,smoothed,error_smoothed,equalization,parametric_eq,fixed_band_eq,equalized_raw,equalized_smoothed,target
20.00,4.39,-1.54,4.40,-1.54,1.54,1.37,1.18,5.93,5.94,5.94
20.20,4.38,-1.55,4.38,-1.56,1.56,1.39,1.21,5.95,5.94,5.94
20.40,4.35,-1.58,4.36,-1.58,1.58,1.41,1.24,5.94,5.94,5.94
20.61,4.33,-1.60,4.33,-1.60,1.60,1.44,1.28,5.94,5.94,5.94
20.81,4.31,-1.62,4.31,-1.62,1.62,1.46,1.31,5.93,5.93,5.94
21.02,4.28,-1.65,4.29,-1.64,1.64,1.49,1.35,5.92,5.93,5.94
21.23,4.27,-1.64,4.27,-1.65,1.65,1.51,1.39,5.92,5.92,5.92
21.44,4.24,-1.66,4.24,-1.66,1.66,1.54,1.43,5.90,5.90,5.91
21.66,4.21,-1.67,4.22,-1.67,1.67,1.56,1.47,5.88,5.89,5.89
21.87,4.19,-1.67,4.19,-1.68,1.67,1.59,1.51,5.87,5.87,5.87
22.09,4.17,-1.68,4.17,-1.68,1.68,1.61,1.55,5.85,5.85,5.86
22.31,4.14,-1.68,4.15,-1.68,1.68,1.64,1.59,5.83,5.83,5.83
22.54,4.11,-1.69,4.12,-1.69,1.69,1.67,1.64,5.80,5.80,5.81
22.76,4.09,-1.69,4.09,-1.69,1.69,1.69,1.68,5.78,5.78,5.79
22.99,4.05,-1.70,4.06,-1.70,1.70,1.72,1.73,5.75,5.76,5.76
23.22,4.02,-1.70,4.03,-1.70,1.71,1.75,1.77,5.73,5.73,5.73
23.45,3.99,-1.70,3.99,-1.71,1.72,1.78,1.82,5.72,5.71,5.70
23.69,3.94,-1.74,3.95,-1.73,1.74,1.81,1.87,5.69,5.69,5.69
23.92,3.90,-1.76,3.91,-1.76,1.76,1.83,1.92,5.67,5.67,5.67
24.16,3.86,-1.79,3.86,-1.79,1.79,1.86,1.97,5.65,5.65,5.66
24.40,3.81,-1.82,3.81,-1.82,1.82,1.89,2.02,5.63,5.63,5.64
24.65,3.76,-1.85,3.76,-1.85,1.85,1.92,2.07,5.62,5.62,5.62
24.89,3.71,-1.88,3.71,-1.88,1.88,1.95,2.13,5.60,5.60,5.60
25.14,3.66,-1.92,3.66,-1.92,1.92,1.98,2.18,5.58,5.58,5.59
25.39,3.61,-1.95,3.61,-1.95,1.95,2.01,2.23,5.57,5.57,5.57
25.65,3.56,-1.99,3.56,-1.99,1.98,2.04,2.29,5.55,5.55,5.56
25.91,3.51,-2.01,3.51,-2.02,2.02,2.07,2.34,5.53,5.53,5.53
26.16,3.46,-2.05,3.46,-2.05,2.05,2.10,2.39,5.51,5.51,5.52
26.43,3.41,-2.09,3.41,-2.08,2.08,2.13,2.44,5.50,5.50,5.51
26.69,3.36,-2.11,3.37,-2.11,2.12,2.16,2.49,5.48,5.48,5.48
26.96,3.32,-2.14,3.32,-2.15,2.15,2.19,2.54,5.47,5.47,5.47
27.23,3.27,-2.18,3.27,-2.18,2.18,2.22,2.59,5.45,5.45,5.46
27.50,3.22,-2.22,3.23,-2.22,2.21,2.25,2.64,5.44,5.44,5.45
27.77,3.18,-2.24,3.18,-2.25,2.25,2.28,2.69,5.43,5.43,5.43
28.05,3.13,-2.28,3.13,-2.28,2.28,2.31,2.73,5.41,5.41,5.42
28.33,3.08,-2.31,3.09,-2.31,2.32,2.34,2.77,5.40,5.40,5.40
28.62,3.03,-2.35,3.03,-2.35,2.36,2.37,2.81,5.39,5.39,5.39
28.90,2.97,-2.39,2.97,-2.39,2.40,2.39,2.85,5.37,5.37,5.37
29.19,2.91,-2.43,2.92,-2.44,2.44,2.42,2.88,5.35,5.36,5.35
29.48,2.86,-2.48,2.86,-2.48,2.48,2.45,2.91,5.35,5.34,5.35
29.78,2.80,-2.53,2.81,-2.53,2.53,2.48,2.94,5.33,5.33,5.34
30.08,2.75,-2.57,2.75,-2.58,2.57,2.51,2.96,5.32,5.32,5.33
30.38,2.68,-2.62,2.69,-2.62,2.61,2.54,2.98,5.30,5.30,5.31
30.68,2.63,-2.66,2.64,-2.65,2.66,2.57,2.99,5.29,5.29,5.30
30.99,2.58,-2.68,2.58,-2.69,2.70,2.60,3.01,5.28,5.28,5.27
31.30,2.52,-2.73,2.53,-2.73,2.73,2.62,3.01,5.26,5.26,5.26
31.61,2.47,-2.77,2.47,-2.77,2.77,2.65,3.02,5.24,5.24,5.25
31.93,2.41,-2.81,2.42,-2.81,2.80,2.68,3.02,5.22,5.22,5.23
32.24,2.36,-2.83,2.36,-2.84,2.84,2.70,3.01,5.20,5.20,5.20
32.57,2.31,-2.86,2.31,-2.87,2.86,2.73,3.01,5.18,5.18,5.18
32.89,2.26,-2.90,2.27,-2.89,2.89,2.75,3.00,5.16,5.16,5.17
33.22,2.22,-2.91,2.22,-2.92,2.92,2.78,2.98,5.14,5.14,5.14
33.55,2.18,-2.94,2.18,-2.94,2.94,2.80,2.97,5.12,5.12,5.13
33.89,2.14,-2.95,2.14,-2.95,2.96,2.83,2.95,5.10,5.10,5.10
34.23,2.10,-2.97,2.11,-2.97,2.97,2.85,2.93,5.08,5.08,5.08
34.57,2.07,-2.98,2.07,-2.98,2.99,2.87,2.90,5.06,5.06,5.06
34.92,2.03,-3.00,2.04,-3.00,3.00,2.89,2.88,5.03,5.04,5.04
35.27,2.00,-3.01,2.00,-3.01,3.01,2.91,2.85,5.02,5.02,5.02
35.62,1.97,-3.02,1.97,-3.02,3.02,2.93,2.82,5.00,5.00,5.00
35.97,1.94,-3.03,1.94,-3.03,3.03,2.95,2.79,4.97,4.98,4.98
36.33,1.92,-3.03,1.92,-3.04,3.04,2.96,2.76,4.96,4.95,4.96
36.70,1.88,-3.05,1.89,-3.04,3.04,2.98,2.73,4.93,4.94,4.94
37.06,1.87,-3.04,1.87,-3.05,3.05,2.99,2.70,4.92,4.92,4.92
37.43,1.85,-3.04,1.85,-3.05,3.05,3.01,2.67,4.90,4.89,4.90
37.81,1.82,-3.05,1.83,-3.04,3.04,3.02,2.64,4.87,4.87,4.88
38.19,1.81,-3.03,1.81,-3.04,3.04,3.03,2.61,4.85,4.85,4.85
38.57,1.79,-3.04,1.80,-3.03,3.03,3.04,2.58,4.83,4.83,4.84
38.95,1.78,-3.02,1.78,-3.02,3.03,3.05,2.55,4.81,4.81,4.81
39.34,1.77,-3.01,1.77,-3.01,3.02,3.05,2.53,4.79,4.79,4.79
39.74,1.76,-3.00,1.77,-3.00,3.00,3.06,2.50,4.77,4.77,4.77
40.14,1.76,-2.99,1.76,-2.99,2.99,3.06,2.48,4.75,4.75,4.76
40.54,1.75,-2.98,1.76,-2.97,2.97,3.06,2.45,4.73,4.73,4.74
40.94,1.76,-2.95,1.76,-2.95,2.95,3.07,2.43,4.72,4.71,4.72
41.35,1.76,-2.92,1.77,-2.93,2.93,3.06,2.41,4.70,4.70,4.69
41.76,1.77,-2.91,1.77,-2.90,2.91,3.06,2.40,4.68,4.68,4.69
42.18,1.78,-2.88,1.78,-2.88,2.88,3.06,2.38,4.67,4.66,4.67
42.60,1.79,-2.85,1.79,-2.86,2.85,3.05,2.37,4.65,4.64,4.65
43.03,1.80,-2.83,1.81,-2.82,2.82,3.04,2.36,4.62,4.62,4.64
43.46,1.82,-2.78,1.82,-2.79,2.78,3.04,2.35,4.61,4.60,4.61
43.90,1.84,-2.74,1.84,-2.75,2.74,3.03,2.34,4.59,4.59,4.59
44.33,1.86,-2.70,1.86,-2.70,2.70,3.01,2.33,4.57,4.57,4.57
44.78,1.88,-2.66,1.88,-2.66,2.66,3.00,2.33,4.54,4.54,4.55
45.23,1.90,-2.61,1.90,-2.61,2.62,2.98,2.33,4.52,4.52,4.52
45.68,1.92,-2.57,1.93,-2.57,2.58,2.97,2.33,4.50,4.51,4.50
46.13,1.95,-2.53,1.95,-2.54,2.54,2.95,2.33,4.49,4.49,4.49
46.60,1.97,-2.50,1.97,-2.50,2.50,2.92,2.33,4.47,4.47,4.48
47.06,1.99,-2.46,2.00,-2.46,2.46,2.90,2.34,4.45,4.45,4.46
47.53,2.02,-2.41,2.02,-2.42,2.42,2.88,2.34,4.44,4.43,4.44
48.01,2.03,-2.39,2.04,-2.38,2.38,2.85,2.35,4.41,4.41,4.43
48.49,2.05,-2.34,2.06,-2.34,2.34,2.82,2.36,4.39,4.39,4.40
48.97,2.07,-2.29,2.07,-2.30,2.30,2.79,2.37,4.37,4.37,4.37
49.46,2.08,-2.25,2.08,-2.25,2.26,2.76,2.39,4.34,4.34,4.34
49.96,2.09,-2.21,2.10,-2.22,2.22,2.73,2.40,4.32,4.32,4.31
50.46,2.10,-2.19,2.11,-2.19,2.19,2.70,2.42,4.29,4.30,4.30
50.96,2.11,-2.16,2.11,-2.16,2.16,2.66,2.43,4.28,4.27,4.28
51.47,2.11,-2.13,2.11,-2.14,2.14,2.62,2.45,4.25,4.25,4.25
51.99,2.10,-2.12,2.11,-2.12,2.12,2.58,2.46,4.22,4.22,4.23
52.51,2.10,-2.10,2.10,-2.10,2.10,2.54,2.48,4.20,4.20,4.21
53.03,2.09,-2.09,2.10,-2.09,2.09,2.50,2.49,4.18,4.18,4.19
53.56,2.08,-2.07,2.08,-2.07,2.07,2.46,2.51,4.16,4.16,4.16
54.10,2.07,-2.06,2.07,-2.07,2.07,2.41,2.52,4.14,4.14,4.14
54.64,2.04,-2.06,2.05,-2.06,2.06,2.36,2.53,4.11,4.11,4.11
55.18,2.02,-2.06,2.02,-2.06,2.06,2.32,2.54,4.09,4.09,4.09
55.74,1.99,-2.06,1.99,-2.07,2.07,2.27,2.55,4.06,4.06,4.06
56.29,1.95,-2.08,1.96,-2.07,2.07,2.22,2.56,4.03,4.03,4.04
56.86,1.92,-2.08,1.93,-2.08,2.08,2.16,2.56,4.01,4.01,4.01
57.42,1.89,-2.09,1.89,-2.10,2.10,2.11,2.56,3.99,3.99,3.99
58.00,1.85,-2.11,1.85,-2.11,2.11,2.06,2.55,3.97,3.97,3.97
58.58,1.80,-2.13,1.81,-2.13,2.13,2.00,2.55,3.93,3.94,3.94
59.16,1.77,-2.14,1.77,-2.15,2.15,1.94,2.53,3.92,3.92,3.92
59.76,1.72,-2.17,1.73,-2.17,2.16,1.89,2.52,3.89,3.89,3.90
60.35,1.69,-2.17,1.69,-2.18,2.17,1.83,2.49,3.87,3.86,3.87
60.96,1.64,-2.20,1.65,-2.19,2.19,1.77,2.47,3.83,3.83,3.85
61.57,1.61,-2.19,1.61,-2.20,2.20,1.71,2.44,3.81,3.81,3.81
62.18,1.57,-2.20,1.58,-2.20,2.20,1.64,2.40,3.78,3.78,3.78
62.80,1.54,-2.20,1.54,-2.20,2.21,1.58,2.36,3.75,3.75,3.75
63.43,1.51,-2.20,1.51,-2.21,2.21,1.52,2.31,3.73,3.72,3.72
64.07,1.47,-2.21,1.48,-2.21,2.21,1.45,2.26,3.69,3.69,3.69
64.71,1.46,-2.20,1.46,-2.21,2.21,1.39,2.20,3.67,3.66,3.67
65.35,1.44,-2.20,1.44,-2.20,2.19,1.32,2.13,3.64,3.64,3.65
66.01,1.43,-2.19,1.44,-2.18,2.18,1.25,2.06,3.61,3.62,3.63
66.67,1.44,-2.15,1.44,-2.16,2.15,1.18,1.99,3.59,3.59,3.60
67.33,1.46,-2.11,1.46,-2.11,2.11,1.11,1.91,3.58,3.57,3.58
68.01,1.48,-2.06,1.49,-2.06,2.06,1.04,1.83,3.55,3.55,3.55
68.69,1.52,-2.00,1.52,-2.00,2.01,0.97,1.74,3.53,3.52,3.53
69.37,1.55,-1.94,1.56,-1.94,1.94,0.90,1.65,3.49,3.50,3.50
70.07,1.61,-1.85,1.61,-1.86,1.86,0.83,1.55,3.47,3.47,3.47
70.77,1.67,-1.77,1.67,-1.77,1.77,0.76,1.45,3.44,3.44,3.45
71.48,1.74,-1.67,1.74,-1.67,1.67,0.68,1.35,3.41,3.41,3.42
72.19,1.81,-1.57,1.82,-1.56,1.56,0.61,1.24,3.38,3.38,3.39
72.91,1.90,-1.44,1.90,-1.45,1.45,0.54,1.13,3.35,3.35,3.35
73.64,1.99,-1.32,1.99,-1.32,1.32,0.46,1.02,3.32,3.31,3.32
74.38,2.08,-1.20,2.09,-1.19,1.19,0.38,0.91,3.28,3.28,3.29
75.12,2.19,-1.04,2.19,-1.05,1.06,0.31,0.79,3.25,3.25,3.24
75.87,2.29,-0.91,2.29,-0.92,0.92,0.23,0.67,3.21,3.21,3.21
76.63,2.39,-0.78,2.40,-0.77,0.77,0.15,0.55,3.17,3.17,3.18
77.40,2.50,-0.63,2.50,-0.63,0.63,0.07,0.43,3.13,3.13,3.14
78.17,2.61,-0.46,2.61,-0.48,0.48,-0.01,0.31,3.09,3.09,3.08
78.95,2.72,-0.33,2.72,-0.33,0.33,-0.09,0.19,3.05,3.05,3.06
79.74,2.83,-0.18,2.83,-0.18,0.17,-0.17,0.06,3.01,3.01,3.02
80.54,2.94,-0.02,2.95,-0.02,0.02,-0.25,-0.07,2.96,2.96,2.97
81.35,3.06,0.14,3.06,0.14,-0.14,-0.33,-0.19,2.93,2.92,2.93
82.16,3.17,0.30,3.17,0.30,-0.29,-0.41,-0.32,2.88,2.88,2.88
82.98,3.28,0.45,3.28,0.46,-0.45,-0.50,-0.45,2.83,2.83,2.84
83.81,3.39,0.62,3.39,0.61,-0.61,-0.58,-0.58,2.79,2.79,2.78
84.65,3.49,0.76,3.50,0.76,-0.76,-0.67,-0.71,2.73,2.74,2.74
85.50,3.60,0.91,3.60,0.91,-0.91,-0.75,-0.84,2.69,2.69,2.70
86.35,3.70,1.06,3.70,1.06,-1.06,-0.84,-0.98,2.64,2.64,2.65
87.22,3.80,1.21,3.81,1.21,-1.21,-0.92,-1.11,2.59,2.59,2.60
88.09,3.90,1.37,3.90,1.36,-1.36,-1.01,-1.24,2.55,2.54,2.54
88.97,3.99,1.50,4.00,1.50,-1.50,-1.10,-1.38,2.49,2.49,2.50
89.86,4.08,1.64,4.09,1.64,-1.64,-1.19,-1.52,2.44,2.44,2.45
90.76,4.17,1.79,4.17,1.78,-1.78,-1.28,-1.65,2.39,2.39,2.39
91.66,4.25,1.92,4.25,1.92,-1.92,-1.37,-1.79,2.34,2.34,2.34
92.58,4.33,2.06,4.33,2.05,-2.05,-1.46,-1.93,2.29,2.28,2.28
93.51,4.40,2.17,4.41,2.17,-2.18,-1.55,-2.07,2.23,2.23,2.24
94.44,4.48,2.30,4.48,2.30,-2.30,-1.64,-2.21,2.18,2.18,2.19
95.39,4.55,2.43,4.55,2.43,-2.43,-1.74,-2.36,2.12,2.12,2.13
96.34,4.61,2.56,4.62,2.55,-2.55,-1.83,-2.50,2.06,2.06,2.06
97.30,4.67,2.67,4.68,2.68,-2.68,-1.92,-2.64,2.00,2.00,2.01
98.28,4.74,2.80,4.74,2.80,-2.80,-2.02,-2.79,1.95,1.94,1.95
99.26,4.79,2.92,4.80,2.91,-2.91,-2.12,-2.93,1.88,1.88,1.88
100.25,4.85,3.03,4.85,3.03,-3.03,-2.21,-3.07,1.82,1.82,1.83
101.25,4.90,3.14,4.90,3.14,-3.14,-2.31,-3.22,1.76,1.76,1.77
102.27,4.95,3.26,4.95,3.26,-3.25,-2.41,-3.36,1.70,1.70,1.70
103.29,4.99,3.37,5.00,3.36,-3.36,-2.51,-3.51,1.64,1.64,1.63
104.32,5.03,3.46,5.03,3.46,-3.46,-2.61,-3.65,1.57,1.57,1.58
105.37,5.07,3.56,5.07,3.56,-3.57,-2.71,-3.79,1.51,1.50,1.52
106.42,5.10,3.66,5.11,3.66,-3.67,-2.81,-3.93,1.44,1.44,1.45
107.48,5.14,3.77,5.14,3.77,-3.77,-2.91,-4.07,1.38,1.38,1.38
108.56,5.18,3.88,5.18,3.87,-3.87,-3.02,-4.21,1.32,1.31,1.31
109.64,5.21,3.97,5.21,3.97,-3.96,-3.12,-4.34,1.25,1.25,1.25
110.74,5.24,4.06,5.24,4.06,-4.06,-3.22,-4.47,1.18,1.18,1.19
111.85,5.26,4.15,5.27,4.15,-4.16,-3.33,-4.60,1.10,1.11,1.12
112.97,5.29,4.26,5.29,4.25,-4.25,-3.44,-4.72,1.04,1.04,1.04
114.10,5.31,4.34,5.32,4.34,-4.34,-3.54,-4.84,0.97,0.97,0.98
115.24,5.34,4.44,5.34,4.44,-4.43,-3.65,-4.95,0.91,0.91,0.91
116.39,5.36,4.53,5.36,4.52,-4.52,-3.76,-5.06,0.84,0.84,0.84
117.55,5.37,4.61,5.38,4.61,-4.60,-3.87,-5.16,0.77,0.77,0.77
118.73,5.38,4.68,5.39,4.68,-4.68,-3.97,-5.25,0.70,0.71,0.71
119.92,5.40,4.76,5.40,4.76,-4.76,-4.08,-5.34,0.65,0.64,0.65
121.12,5.41,4.83,5.41,4.83,-4.83,-4.19,-5.41,0.58,0.58,0.59
122.33,5.42,4.91,5.42,4.90,-4.90,-4.30,-5.49,0.52,0.53,0.52
123.55,5.43,4.97,5.43,4.97,-4.97,-4.41,-5.55,0.47,0.46,0.47
124.79,5.43,5.03,5.44,5.03,-5.03,-4.53,-5.60,0.40,0.41,0.41
126.03,5.44,5.09,5.44,5.09,-5.10,-4.64,-5.65,0.35,0.35,0.36
127.29,5.45,5.16,5.45,5.16,-5.16,-4.75,-5.69,0.29,0.29,0.30
128.57,5.45,5.23,5.46,5.22,-5.23,-4.86,-5.72,0.23,0.23,0.23
129.85,5.46,5.29,5.46,5.29,-5.29,-4.97,-5.75,0.18,0.18,0.18
131.15,5.47,5.35,5.47,5.35,-5.35,-5.08,-5.76,0.13,0.13,0.13
132.46,5.47,5.41,5.48,5.41,-5.40,-5.19,-5.77,0.07,0.07,0.07
133.79,5.48,5.46,5.48,5.46,-5.46,-5.30,-5.78,0.02,0.02,0.03
135.12,5.48,5.52,5.49,5.51,-5.51,-5.41,-5.78,-0.03,-0.03,-0.03
136.48,5.49,5.56,5.49,5.56,-5.57,-5.51,-5.77,-0.07,-0.07,-0.06
137.84,5.50,5.61,5.50,5.61,-5.61,-5.62,-5.76,-0.11,-0.11,-0.10
139.22,5.51,5.67,5.51,5.66,-5.66,-5.73,-5.74,-0.15,-0.15,-0.15
140.61,5.52,5.72,5.52,5.71,-5.71,-5.83,-5.72,-0.18,-0.18,-0.19
142.02,5.53,5.75,5.53,5.75,-5.75,-5.93,-5.70,-0.22,-0.22,-0.21
143.44,5.54,5.79,5.54,5.79,-5.80,-6.03,-5.68,-0.25,-0.25,-0.24
144.87,5.55,5.84,5.56,5.84,-5.84,-6.13,-5.65,-0.29,-0.28,-0.28
146.32,5.57,5.89,5.57,5.88,-5.88,-6.23,-5.63,-0.31,-0.31,-0.31
147.78,5.58,5.92,5.59,5.93,-5.92,-6.32,-5.60,-0.34,-0.34,-0.33
149.26,5.60,5.97,5.60,5.96,-5.97,-6.42,-5.57,-0.36,-0.37,-0.36
150.75,5.60,6.01,5.61,6.00,-6.00,-6.51,-5.55,-0.40,-0.40,-0.40
152.26,5.61,6.04,5.62,6.05,-6.04,-6.59,-5.52,-0.43,-0.42,-0.42
153.78,5.63,6.09,5.63,6.08,-6.08,-6.67,-5.50,-0.45,-0.45,-0.45
155.32,5.64,6.12,5.64,6.12,-6.12,-6.75,-5.48,-0.47,-0.48,-0.47
156.88,5.64,6.15,5.65,6.15,-6.15,-6.83,-5.46,-0.51,-0.51,-0.50
158.44,5.64,6.18,5.65,6.18,-6.18,-6.90,-5.44,-0.54,-0.54,-0.53
160.03,5.65,6.22,5.65,6.21,-6.22,-6.97,-5.43,-0.56,-0.57,-0.56
161.63,5.65,6.25,5.65,6.25,-6.25,-7.03,-5.42,-0.59,-0.59,-0.59
163.24,5.65,6.28,5.66,6.28,-6.28,-7.09,-5.41,-0.62,-0.62,-0.62
164.88,5.66,6.31,5.66,6.31,-6.30,-7.14,-5.41,-0.64,-0.64,-0.64
166.53,5.66,6.33,5.66,6.33,-6.33,-7.19,-5.41,-0.67,-0.67,-0.66
168.19,5.65,6.36,5.66,6.36,-6.36,-7.23,-5.41,-0.70,-0.70,-0.70
169.87,5.64,6.38,5.65,6.38,-6.38,-7.27,-5.42,-0.74,-0.73,-0.73
171.57,5.64,6.41,5.64,6.40,-6.41,-7.30,-5.43,-0.76,-0.76,-0.76
173.29,5.63,6.42,5.64,6.43,-6.43,-7.33,-5.45,-0.80,-0.79,-0.78
175.02,5.63,6.46,5.63,6.45,-6.45,-7.35,-5.47,-0.82,-0.83,-0.82
176.77,5.61,6.48,5.62,6.48,-6.48,-7.36,-5.49,-0.87,-0.86,-0.86
178.54,5.60,6.51,5.61,6.51,-6.50,-7.37,-5.52,-0.90,-0.90,-0.90
180.32,5.59,6.53,5.59,6.53,-6.53,-7.38,-5.56,-0.94,-0.94,-0.93
182.13,5.58,6.55,5.58,6.55,-6.55,-7.38,-5.59,-0.97,-0.97,-0.96
183.95,5.56,6.57,5.57,6.57,-6.57,-7.37,-5.64,-1.01,-1.01,-1.00
185.79,5.55,6.60,5.55,6.60,-6.59,-7.36,-5.68,-1.04,-1.04,-1.04
187.65,5.53,6.62,5.53,6.62,-6.61,-7.34,-5.73,-1.07,-1.07,-1.08
189.52,5.51,6.63,5.52,6.63,-6.62,-7.32,-5.78,-1.11,-1.11,-1.11
191.42,5.50,6.64,5.50,6.64,-6.64,-7.30,-5.84,-1.13,-1.14,-1.13
193.33,5.48,6.64,5.48,6.64,-6.65,-7.26,-5.90,-1.17,-1.17,-1.15
195.27,5.46,6.65,5.46,6.65,-6.66,-7.23,-5.97,-1.19,-1.19,-1.18
197.22,5.44,6.66,5.44,6.66,-6.66,-7.19,-6.04,-1.22,-1.22,-1.21
199.19,5.42,6.69,5.42,6.67,-6.67,-7.15,-6.11,-1.24,-1.24,-1.26
201.18,5.40,6.68,5.40,6.68,-6.67,-7.10,-6.18,-1.27,-1.27,-1.27
203.19,5.37,6.67,5.38,6.67,-6.67,-7.05,-6.26,-1.30,-1.29,-1.29
205.23,5.35,6.67,5.35,6.66,-6.67,-7.00,-6.33,-1.32,-1.32,-1.31
207.28,5.33,6.66,5.33,6.66,-6.67,-6.95,-6.41,-1.33,-1.34,-1.32
209.35,5.30,6.66,5.31,6.66,-6.66,-6.89,-6.49,-1.36,-1.35,-1.35
211.44,5.28,6.66,5.28,6.65,-6.65,-6.83,-6.57,-1.37,-1.37,-1.37
213.56,5.25,6.65,5.26,6.64,-6.64,-6.77,-6.65,-1.39,-1.39,-1.39
215.69,5.23,6.63,5.23,6.63,-6.63,-6.71,-6.73,-1.40,-1.40,-1.39
217.85,5.20,6.61,5.21,6.62,-6.62,-6.65,-6.81,-1.42,-1.42,-1.40
220.03,5.18,6.62,5.18,6.61,-6.61,-6.58,-6.88,-1.43,-1.43,-1.43
222.23,5.16,6.61,5.16,6.60,-6.60,-6.52,-6.95,-1.43,-1.43,-1.44
224.45,5.14,6.58,5.14,6.59,-6.58,-6.46,-7.02,-1.44,-1.44,-1.43
226.70,5.12,6.57,5.12,6.57,-6.56,-6.39,-7.08,-1.44,-1.44,-1.44
228.96,5.10,6.55,5.10,6.54,-6.54,-6.33,-7.14,-1.44,-1.44,-1.44
231.25,5.07,6.51,5.08,6.51,-6.52,-6.27,-7.18,-1.44,-1.44,-1.43
233.57,5.05,6.48,5.06,6.49,-6.49,-6.21,-7.23,-1.44,-1.43,-1.42
235.90,5.03,6.46,5.03,6.46,-6.46,-6.15,-7.26,-1.42,-1.43,-1.42
238.26,5.01,6.44,5.01,6.43,-6.43,-6.09,-7.28,-1.41,-1.41,-1.42
240.64,4.98,6.39,4.99,6.39,-6.39,-6.04,-7.29,-1.41,-1.40,-1.40
243.05,4.97,6.36,4.96,6.35,-6.35,-5.99,-7.29,-1.38,-1.39,-1.38
245.48,4.93,6.30,4.94,6.31,-6.31,-5.94,-7.28,-1.38,-1.37,-1.36
247.93,4.91,6.27,4.92,6.27,-6.27,-5.89,-7.26,-1.35,-1.35,-1.35
250.41,4.89,6.24,4.89,6.22,-6.22,-5.85,-7.23,-1.33,-1.33,-1.34
252.92,4.86,6.17,4.86,6.17,-6.18,-5.81,-7.18,-1.31,-1.31,-1.30
255.45,4.83,6.12,4.84,6.12,-6.13,-5.77,-7.13,-1.29,-1.29,-1.28
258.00,4.80,6.07,4.81,6.07,-6.08,-5.74,-7.06,-1.27,-1.27,-1.26
260.58,4.78,6.03,4.78,6.02,-6.02,-5.71,-6.97,-1.24,-1.25,-1.24
263.19,4.74,5.97,4.75,5.97,-5.97,-5.69,-6.88,-1.22,-1.22,-1.22
265.82,4.71,5.92,4.72,5.92,-5.91,-5.67,-6.78,-1.20,-1.20,-1.20
268.48,4.68,5.86,4.68,5.86,-5.85,-5.65,-6.67,-1.17,-1.17,-1.17
271.16,4.64,5.79,4.64,5.79,-5.79,-5.63,-6.54,-1.15,-1.15,-1.14
273.87,4.60,5.73,4.61,5.73,-5.73,-5.61,-6.41,-1.13,-1.13,-1.12
276.61,4.56,5.66,4.57,5.67,-5.67,-5.60,-6.28,-1.10,-1.10,-1.09
279.38,4.53,5.61,4.53,5.60,-5.60,-5.58,-6.13,-1.07,-1.07,-1.07
282.17,4.48,5.54,4.48,5.53,-5.53,-5.56,-5.98,-1.05,-1.05,-1.05
284.99,4.43,5.46,4.44,5.46,-5.46,-5.54,-5.83,-1.03,-1.03,-1.02
287.84,4.38,5.39,4.39,5.39,-5.39,-5.51,-5.67,-1.01,-1.00,-1.00
290.72,4.34,5.31,4.34,5.31,-5.32,-5.47,-5.51,-0.97,-0.97,-0.96
293.63,4.29,5.24,4.29,5.24,-5.24,-5.43,-5.34,-0.94,-0.94,-0.94
296.57,4.24,5.16,4.24,5.16,-5.15,-5.37,-5.18,-0.91,-0.91,-0.91
299.53,4.18,5.07,4.18,5.07,-5.07,-5.29,-5.01,-0.88,-0.88,-0.88
302.53,4.12,4.99,4.13,4.98,-4.98,-5.21,-4.84,-0.85,-0.85,-0.86
305.55,4.06,4.88,4.06,4.88,-4.88,-5.11,-4.67,-0.82,-0.82,-0.81
308.61,4.00,4.79,4.00,4.79,-4.79,-5.00,-4.50,-0.78,-0.78,-0.78
311.69,3.93,4.68,3.93,4.68,-4.68,-4.87,-4.32,-0.75,-0.75,-0.74
314.81,3.86,4.58,3.86,4.57,-4.58,-4.74,-4.15,-0.71,-0.72,-0.71
317.96,3.77,4.46,3.78,4.47,-4.46,-4.59,-3.99,-0.69,-0.68,-0.68
321.14,3.70,4.36,3.70,4.36,-4.35,-4.44,-3.82,-0.65,-0.65,-0.65
324.35,3.61,4.25,3.61,4.24,-4.24,-4.28,-3.65,-0.62,-0.62,-0.63
327.59,3.52,4.12,3.52,4.12,-4.12,-4.11,-3.48,-0.60,-0.60,-0.59
330.87,3.43,4.00,3.43,4.00,-4.01,-3.95,-3.32,-0.57,-0.58,-0.56
334.18,3.33,3.88,3.34,3.88,-3.89,-3.78,-3.16,-0.56,-0.55,-0.54
337.52,3.25,3.78,3.25,3.77,-3.78,-3.61,-2.99,-0.53,-0.53,-0.52
340.90,3.15,3.65,3.15,3.65,-3.67,-3.44,-2.83,-0.51,-0.51,-0.49
344.30,3.06,3.54,3.07,3.54,-3.55,-3.28,-2.68,-0.48,-0.48,-0.47
347.75,2.96,3.41,2.98,3.42,-3.42,-3.12,-2.52,-0.45,-0.44,-0.44
351.23,2.88,3.31,2.87,3.30,-3.28,-2.96,-2.36,-0.39,-0.40,-0.42
354.74,2.76,3.18,2.75,3.16,-3.13,-2.80,-2.21,-0.37,-0.38,-0.41
358.28,2.59,2.99,2.60,2.99,-2.97,-2.64,-2.06,-0.38,-0.37,-0.39
361.87,2.42,2.80,2.43,2.80,-2.80,-2.49,-1.91,-0.38,-0.37,-0.37
365.49,2.25,2.60,2.25,2.60,-2.62,-2.34,-1.76,-0.36,-0.37,-0.34
369.14,2.08,2.42,2.08,2.42,-2.43,-2.20,-1.61,-0.35,-0.35,-0.33
372.83,1.90,2.23,1.91,2.23,-2.23,-2.05,-1.47,-0.33,-0.32,-0.32
376.56,1.74,2.05,1.74,2.04,-2.04,-1.91,-1.32,-0.29,-0.30,-0.30
380.33,1.56,1.84,1.56,1.84,-1.84,-1.77,-1.18,-0.28,-0.28,-0.27
384.13,1.39,1.65,1.39,1.65,-1.65,-1.63,-1.04,-0.26,-0.25,-0.25
387.97,1.22,1.46,1.22,1.46,-1.46,-1.50,-0.90,-0.24,-0.24,-0.23
391.85,1.06,1.28,1.06,1.27,-1.28,-1.36,-0.77,-0.21,-0.21,-0.21
395.77,0.90,1.09,0.90,1.09,-1.10,-1.22,-0.63,-0.19,-0.19,-0.18
399.73,0.75,0.92,0.75,0.92,-0.92,-1.09,-0.50,-0.17,-0.17,-0.16
403.72,0.60,0.76,0.60,0.75,-0.76,-0.95,-0.36,-0.15,-0.15,-0.15
407.76,0.46,0.60,0.46,0.59,-0.60,-0.82,-0.23,-0.13,-0.13,-0.13
411.84,0.32,0.43,0.33,0.44,-0.44,-0.68,-0.11,-0.12,-0.11,-0.10
415.96,0.21,0.30,0.21,0.29,-0.29,-0.54,0.02,-0.08,-0.09,-0.08
420.12,0.08,0.15,0.09,0.15,-0.15,-0.41,0.14,-0.06,-0.06,-0.06
424.32,-0.03,0.01,-0.03,0.01,-0.01,-0.27,0.26,-0.03,-0.03,-0.03
428.56,-0.14,-0.12,-0.14,-0.12,0.12,-0.13,0.38,-0.01,-0.01,-0.01
432.85,-0.25,-0.25,-0.24,-0.25,0.25,0.01,0.50,0.00,0.01,0.01
437.18,-0.35,-0.38,-0.35,-0.38,0.37,0.16,0.61,0.03,0.03,0.04
441.55,-0.44,-0.50,-0.44,-0.50,0.49,0.30,0.72,0.05,0.05,0.07
445.96,-0.54,-0.62,-0.53,-0.61,0.60,0.45,0.82,0.07,0.08,0.09
450.42,-0.61,-0.70,-0.61,-0.72,0.72,0.60,0.92,0.11,0.11,0.10
454.93,-0.70,-0.83,-0.69,-0.82,0.83,0.75,1.02,0.14,0.14,0.14
459.48,-0.78,-0.93,-0.78,-0.94,0.95,0.90,1.11,0.17,0.17,0.16
464.07,-0.88,-1.06,-0.88,-1.07,1.07,1.06,1.20,0.20,0.20,0.19
468.71,-0.98,-1.20,-0.97,-1.19,1.20,1.21,1.28,0.22,0.22,0.23
473.40,-1.08,-1.32,-1.08,-1.33,1.33,1.37,1.36,0.25,0.25,0.25
478.13,-1.19,-1.46,-1.19,-1.47,1.46,1.53,1.44,0.28,0.28,0.28
482.91,-1.31,-1.61,-1.30,-1.61,1.61,1.69,1.50,0.30,0.30,0.31
487.74,-1.42,-1.75,-1.41,-1.75,1.75,1.84,1.57,0.33,0.34,0.34
492.62,-1.53,-1.89,-1.53,-1.89,1.89,2.00,1.62,0.37,0.37,0.37
497.55,-1.64,-2.02,-1.64,-2.03,2.04,2.15,1.67,0.40,0.40,0.39
502.52,-1.77,-2.19,-1.76,-2.18,2.18,2.30,1.72,0.42,0.42,0.43
507.55,-1.88,-2.32,-1.88,-2.32,2.32,2.45,1.76,0.45,0.45,0.45
512.62,-1.99,-2.46,-1.99,-2.46,2.46,2.59,1.79,0.47,0.47,0.48
517.75,-2.09,-2.59,-2.09,-2.59,2.59,2.72,1.82,0.51,0.50,0.51
522.93,-2.19,-2.72,-2.18,-2.72,2.72,2.84,1.85,0.53,0.53,0.54
528.16,-2.28,-2.83,-2.27,-2.83,2.83,2.95,1.86,0.56,0.56,0.56
