frequency,raw,error,smoothed,error_smoothed,equalization,parametric_eq,fixed_band_eq,equalized_raw,equalized_smoothed,target
20.00,12.96,1.79,12.96,1.79,-1.79,-1.19,-0.41,11.17,11.17,11.17
20.20,12.94,1.78,12.94,1.77,-1.77,-1.15,-0.42,11.17,11.17,11.17
20.40,12.92,1.76,12.92,1.75,-1.75,-1.12,-0.43,11.17,11.16,11.17
20.61,12.89,1.73,12.89,1.73,-1.73,-1.10,-0.44,11.16,11.16,11.16
20.81,12.87,1.72,12.87,1.71,-1.71,-1.07,-0.45,11.16,11.16,11.15
21.02,12.85,1.70,12.85,1.69,-1.69,-1.04,-0.47,11.16,11.16,11.15
21.23,12.82,1.67,12.82,1.67,-1.67,-1.01,-0.48,11.15,11.15,11.15
21.44,12.80,1.64,12.80,1.65,-1.65,-0.99,-0.49,11.15,11.15,11.16
21.66,12.77,1.62,12.78,1.63,-1.63,-0.96,-0.50,11.14,11.15,11.15
21.87,12.75,1.60,12.75,1.61,-1.61,-0.94,-0.52,11.14,11.14,11.15
22.09,12.73,1.59,12.73,1.59,-1.59,-0.92,-0.53,11.14,11.14,11.14
22.31,12.70,1.56,12.71,1.57,-1.57,-0.90,-0.55,11.13,11.13,11.14
22.54,12.68,1.56,12.68,1.55,-1.55,-0.88,-0.56,11.13,11.13,11.13
22.76,12.66,1.54,12.66,1.53,-1.53,-0.86,-0.57,11.13,11.12,11.12
22.99,12.63,1.51,12.63,1.51,-1.51,-0.84,-0.59,11.12,11.12,11.12
23.22,12.61,1.50,12.61,1.49,-1.49,-0.82,-0.60,11.12,11.11,11.11
23.45,12.58,1.47,12.58,1.48,-1.48,-0.81,-0.62,11.11,11.11,11.11
23.69,12.56,1.46,12.56,1.46,-1.46,-0.79,-0.64,11.11,11.10,11.10
23.92,12.53,1.44,12.53,1.44,-1.44,-0.78,-0.65,11.09,11.10,11.09
24.16,12.51,1.42,12.51,1.42,-1.42,-0.77,-0.67,11.09,11.09,11.09
24.40,12.48,1.40,12.48,1.40,-1.40,-0.76,-0.69,11.09,11.09,11.09
24.65,12.45,1.37,12.46,1.37,-1.37,-0.74,-0.70,11.08,11.08,11.08
24.89,12.43,1.35,12.43,1.35,-1.35,-0.73,-0.72,11.08,11.08,11.08
25.14,12.40,1.32,12.41,1.33,-1.33,-0.73,-0.74,11.07,11.08,11.08
25.39,12.38,1.31,12.38,1.31,-1.31,-0.72,-0.75,11.07,11.07,11.07
25.65,12.36,1.29,12.36,1.29,-1.29,-0.71,-0.77,11.08,11.07,11.07
25.91,12.33,1.27,12.33,1.26,-1.26,-0.70,-0.79,11.07,11.07,11.06
26.16,12.31,1.24,12.31,1.24,-1.24,-0.70,-0.80,11.07,11.07,11.07
26.43,12.28,1.21,12.28,1.21,-1.21,-0.69,-0.82,11.07,11.07,11.07
26.69,12.26,1.19,12.26,1.19,-1.19,-0.69,-0.84,11.07,11.07,11.07
26.96,12.23,1.17,12.23,1.17,-1.17,-0.68,-0.85,11.07,11.07,11.07
27.23,12.21,1.15,12.21,1.14,-1.14,-0.68,-0.87,11.07,11.06,11.06
27.50,12.18,1.12,12.18,1.12,-1.12,-0.67,-0.89,11.06,11.06,11.06
27.77,12.15,1.08,12.15,1.10,-1.10,-0.67,-0.90,11.05,11.06,11.07
28.05,12.13,1.08,12.13,1.07,-1.07,-0.67,-0.92,11.06,11.05,11.06
28.33,12.10,1.05,12.10,1.05,-1.05,-0.67,-0.93,11.05,11.05,11.05
28.62,12.08,1.04,12.08,1.03,-1.03,-0.67,-0.94,11.05,11.04,11.04
28.90,12.04,0.99,12.05,1.01,-1.01,-0.67,-0.96,11.03,11.04,11.05
29.19,12.02,0.99,12.02,0.99,-0.99,-0.67,-0.97,11.03,11.03,11.03
29.48,11.99,0.97,12.00,0.97,-0.97,-0.67,-0.98,11.02,11.03,11.02
29.78,11.97,0.95,11.97,0.95,-0.95,-0.67,-0.99,11.02,11.02,11.02
30.08,11.95,0.94,11.95,0.93,-0.93,-0.67,-1.00,11.02,11.01,11.01
30.38,11.92,0.92,11.92,0.91,-0.91,-0.67,-1.01,11.01,11.01,11.00
30.68,11.89,0.89,11.90,0.89,-0.89,-0.67,-1.02,11.00,11.00,11.00
30.99,11.87,0.88,11.87,0.87,-0.87,-0.68,-1.02,11.00,11.00,10.99
31.30,11.84,0.85,11.84,0.85,-0.85,-0.68,-1.03,10.99,10.99,10.99
31.61,11.82,0.84,11.82,0.83,-0.83,-0.68,-1.03,10.99,10.99,10.98
31.93,11.79,0.81,11.79,0.81,-0.81,-0.69,-1.03,10.99,10.99,10.98
32.24,11.77,0.79,11.77,0.79,-0.79,-0.69,-1.04,10.99,10.98,10.99
32.57,11.74,0.77,11.74,0.76,-0.76,-0.69,-1.04,10.98,10.98,10.97
32.89,11.71,0.73,11.71,0.74,-0.74,-0.70,-1.04,10.97,10.97,10.98
33.22,11.69,0.72,11.69,0.72,-0.72,-0.70,-1.04,10.97,10.97,10.97
33.55,11.65,0.69,11.66,0.70,-0.70,-0.71,-1.03,10.95,10.96,10.97
33.89,11.63,0.68,11.63,0.68,-0.68,-0.72,-1.03,10.95,10.95,10.95
34.23,11.61,0.68,11.61,0.67,-0.67,-0.72,-1.03,10.94,10.94,10.93
34.57,11.58,0.65,11.58,0.66,-0.66,-0.73,-1.03,10.92,10.92,10.93
34.92,11.55,0.65,11.55,0.65,-0.65,-0.73,-1.02,10.90,10.90,10.90
35.27,11.52,0.63,11.52,0.64,-0.64,-0.74,-1.02,10.88,10.88,10.90
35.62,11.50,0.64,11.50,0.64,-0.64,-0.75,-1.01,10.87,10.86,10.86
35.97,11.46,0.62,11.47,0.63,-0.63,-0.76,-1.01,10.83,10.84,10.84
36.33,11.44,0.63,11.44,0.63,-0.63,-0.76,-1.00,10.81,10.81,10.81
36.70,11.41,0.63,11.42,0.64,-0.64,-0.77,-1.00,10.77,10.78,10.78
37.06,11.39,0.64,11.39,0.64,-0.64,-0.78,-0.99,10.75,10.75,10.75
37.43,11.36,0.65,11.36,0.65,-0.65,-0.79,-0.99,10.72,10.72,10.71
37.81,11.34,0.66,11.34,0.65,-0.65,-0.80,-0.98,10.69,10.68,10.68
38.19,11.30,0.66,11.31,0.66,-0.66,-0.81,-0.98,10.64,10.65,10.65
38.57,11.28,0.67,11.28,0.67,-0.67,-0.82,-0.97,10.62,10.62,10.62
38.95,11.26,0.68,11.26,0.67,-0.67,-0.83,-0.97,10.59,10.59,10.59
39.34,11.23,0.68,11.23,0.68,-0.68,-0.84,-0.97,10.55,10.55,10.55
39.74,11.21,0.69,11.21,0.68,-0.68,-0.85,-0.96,10.53,10.52,10.52
40.14,11.18,0.70,11.18,0.69,-0.69,-0.86,-0.96,10.49,10.49,10.49
40.54,11.15,0.69,11.16,0.69,-0.69,-0.87,-0.96,10.46,10.46,10.47
40.94,11.13,0.70,11.13,0.70,-0.70,-0.88,-0.96,10.43,10.43,10.43
41.35,11.10,0.70,11.10,0.70,-0.70,-0.89,-0.96,10.40,10.41,10.40
41.76,11.08,0.71,11.08,0.70,-0.70,-0.90,-0.96,10.38,10.38,10.37
42.18,11.05,0.69,11.05,0.70,-0.70,-0.91,-0.96,10.35,10.35,10.36
42.60,11.02,0.70,11.02,0.70,-0.70,-0.93,-0.96,10.32,10.32,10.32
43.03,11.00,0.71,11.00,0.70,-0.70,-0.94,-0.96,10.30,10.30,10.29
43.46,10.97,0.70,10.97,0.70,-0.70,-0.95,-0.96,10.27,10.27,10.27
43.90,10.95,0.71,10.94,0.70,-0.70,-0.96,-0.96,10.25,10.24,10.24
44.33,10.91,0.70,10.92,0.70,-0.70,-0.98,-0.97,10.21,10.21,10.21
44.78,10.88,0.70,10.89,0.71,-0.71,-0.99,-0.97,10.17,10.18,10.18
45.23,10.86,0.70,10.86,0.71,-0.71,-1.00,-0.98,10.15,10.15,10.17
45.68,10.83,0.71,10.83,0.72,-0.72,-1.02,-0.98,10.11,10.11,10.12
46.13,10.81,0.74,10.80,0.73,-0.73,-1.03,-0.99,10.08,10.08,10.07
46.60,10.77,0.73,10.78,0.74,-0.74,-1.04,-1.00,10.03,10.04,10.04
47.06,10.75,0.75,10.75,0.75,-0.75,-1.06,-1.01,10.00,10.00,10.00
47.53,10.72,0.76,10.72,0.77,-0.77,-1.07,-1.01,9.96,9.95,9.97
48.01,10.69,0.79,10.69,0.78,-0.78,-1.09,-1.02,9.91,9.91,9.91
48.49,10.66,0.80,10.66,0.80,-0.80,-1.10,-1.03,9.86,9.86,9.87
48.97,10.63,0.82,10.63,0.82,-0.82,-1.12,-1.04,9.81,9.81,9.81
49.46,10.60,0.83,10.61,0.84,-0.84,-1.13,-1.06,9.76,9.76,9.77
49.96,10.58,0.88,10.58,0.86,-0.86,-1.15,-1.07,9.72,9.71,9.70
50.46,10.54,0.89,10.55,0.89,-0.89,-1.17,-1.08,9.65,9.66,9.66
50.96,10.52,0.92,10.52,0.91,-0.91,-1.18,-1.09,9.61,9.61,9.60
51.47,10.49,0.94,10.49,0.93,-0.93,-1.20,-1.11,9.56,9.56,9.56
51.99,10.46,0.96,10.46,0.96,-0.96,-1.22,-1.12,9.51,9.51,9.50
52.51,10.44,0.99,10.43,0.98,-0.98,-1.23,-1.14,9.46,9.45,9.45
53.03,10.40,0.99,10.40,1.00,-1.00,-1.25,-1.15,9.40,9.40,9.42
53.56,10.37,1.01,10.37,1.02,-1.02,-1.27,-1.17,9.35,9.35,9.36
54.10,10.34,1.04,10.34,1.04,-1.04,-1.29,-1.18,9.30,9.30,9.30
54.64,10.30,1.05,10.31,1.06,-1.06,-1.30,-1.20,9.24,9.25,9.25
55.18,10.28,1.10,10.27,1.08,-1.08,-1.32,-1.21,9.21,9.20,9.18
55.74,10.24,1.11,10.24,1.09,-1.09,-1.34,-1.23,9.15,9.15,9.13
56.29,10.21,1.12,10.20,1.11,-1.11,-1.36,-1.24,9.10,9.10,9.09
56.86,10.17,1.13,10.17,1.12,-1.12,-1.38,-1.26,9.05,9.05,9.04
57.42,10.13,1.15,10.14,1.14,-1.14,-1.40,-1.28,8.99,8.99,8.98
58.00,10.10,1.17,10.10,1.16,-1.16,-1.42,-1.29,8.94,8.94,8.93
58.58,10.07,1.18,10.07,1.19,-1.19,-1.44,-1.31,8.88,8.88,8.89
59.16,10.03,1.19,10.04,1.22,-1.22,-1.46,-1.32,8.82,8.82,8.85
59.76,10.00,1.21,10.01,1.24,-1.24,-1.48,-1.34,8.76,8.77,8.80
60.35,9.97,1.25,9.98,1.27,-1.27,-1.50,-1.35,8.70,8.71,8.72
60.96,9.94,1.28,9.95,1.31,-1.31,-1.52,-1.37,8.64,8.64,8.66
61.57,9.92,1.34,9.92,1.34,-1.34,-1.54,-1.38,8.58,8.58,8.58
62.18,9.89,1.39,9.89,1.37,-1.37,-1.56,-1.40,8.52,8.52,8.50
62.80,9.87,1.43,9.86,1.41,-1.41,-1.58,-1.41,8.46,8.45,8.44
63.43,9.84,1.48,9.84,1.45,-1.45,-1.60,-1.43,8.39,8.39,8.36
64.07,9.81,1.51,9.81,1.49,-1.49,-1.62,-1.44,8.32,8.32,8.30
64.71,9.78,1.54,9.78,1.53,-1.53,-1.64,-1.45,8.26,8.25,8.24
65.35,9.75,1.57,9.75,1.56,-1.56,-1.67,-1.47,8.19,8.19,8.18
66.01,9.72,1.60,9.72,1.60,-1.60,-1.69,-1.48,8.12,8.12,8.12
66.67,9.69,1.62,9.69,1.63,-1.63,-1.71,-1.49,8.06,8.06,8.07
67.33,9.65,1.66,9.66,1.67,-1.67,-1.73,-1.51,7.99,7.99,7.99
68.01,9.62,1.69,9.63,1.70,-1.70,-1.76,-1.52,7.92,7.93,7.93
68.69,9.59,1.73,9.59,1.73,-1.73,-1.78,-1.54,7.86,7.86,7.86
69.37,9.56,1.76,9.56,1.76,-1.76,-1.80,-1.55,7.80,7.80,7.80
70.07,9.53,1.79,9.53,1.80,-1.80,-1.83,-1.56,7.74,7.73,7.74
70.77,9.49,1.82,9.49,1.83,-1.83,-1.85,-1.58,7.66,7.66,7.67
71.48,9.46,1.86,9.46,1.87,-1.87,-1.87,-1.59,7.60,7.60,7.60
72.19,9.42,1.90,9.43,1.90,-1.90,-1.90,-1.61,7.52,7.53,7.53
72.91,9.40,1.94,9.39,1.93,-1.93,-1.92,-1.63,7.47,7.46,7.46
73.64,9.36,1.98,9.36,1.97,-1.97,-1.95,-1.64,7.39,7.39,7.38
74.38,9.32,2.01,9.33,2.00,-2.00,-1.97,-1.66,7.32,7.33,7.32
75.12,9.29,2.04,9.29,2.03,-2.03,-1.99,-1.68,7.26,7.26,7.25
75.87,9.26,2.06,9.26,2.06,-2.06,-2.02,-1.70,7.20,7.19,7.20
76.63,9.22,2.10,9.22,2.09,-2.09,-2.04,-1.72,7.13,7.13,7.13
77.40,9.19,2.13,9.19,2.12,-2.12,-2.07,-1.74,7.07,7.06,7.06
78.17,9.15,2.16,9.15,2.15,-2.15,-2.10,-1.76,7.00,7.00,6.99
78.95,9.11,2.17,9.12,2.18,-2.18,-2.12,-1.79,6.93,6.94,6.94
79.74,9.08,2.20,9.08,2.21,-2.21,-2.15,-1.81,6.87,6.87,6.88
80.54,9.04,2.23,9.04,2.23,-2.23,-2.17,-1.84,6.81,6.81,6.81
81.35,9.01,2.26,9.01,2.26,-2.26,-2.20,-1.87,6.75,6.75,6.75
82.16,8.97,2.28,8.97,2.29,-2.29,-2.22,-1.90,6.69,6.69,6.69
82.98,8.93,2.31,8.93,2.31,-2.31,-2.25,-1.93,6.62,6.62,6.62
83.81,8.90,2.34,8.90,2.34,-2.34,-2.28,-1.96,6.56,6.56,6.56
84.65,8.86,2.38,8.86,2.37,-2.37,-2.30,-1.99,6.50,6.49,6.49
85.50,8.82,2.40,8.82,2.39,-2.39,-2.33,-2.03,6.43,6.43,6.42
86.35,8.79,2.42,8.78,2.42,-2.42,-2.36,-2.06,6.37,6.37,6.37
87.22,8.74,2.44,8.75,2.45,-2.45,-2.38,-2.10,6.30,6.30,6.30
88.09,8.71,2.48,8.71,2.47,-2.47,-2.41,-2.14,6.24,6.23,6.23
88.97,8.66,2.49,8.67,2.50,-2.50,-2.44,-2.18,6.16,6.17,6.17
89.86,8.63,2.53,8.63,2.53,-2.53,-2.47,-2.23,6.10,6.10,6.10
90.76,8.59,2.56,8.59,2.56,-2.56,-2.49,-2.27,6.03,6.03,6.03
91.66,8.55,2.59,8.55,2.60,-2.60,-2.52,-2.32,5.96,5.96,5.96
92.58,8.51,2.62,8.51,2.63,-2.63,-2.55,-2.37,5.88,5.88,5.89
93.51,8.47,2.65,8.47,2.66,-2.66,-2.58,-2.41,5.81,5.81,5.82
94.44,8.43,2.69,8.43,2.70,-2.70,-2.60,-2.47,5.73,5.73,5.74
95.39,8.39,2.73,8.39,2.74,-2.74,-2.63,-2.52,5.66,5.65,5.66
96.34,8.35,2.77,8.35,2.77,-2.77,-2.66,-2.57,5.58,5.58,5.58
97.30,8.31,2.81,8.31,2.81,-2.81,-2.69,-2.63,5.50,5.50,5.51
98.28,8.27,2.86,8.27,2.85,-2.85,-2.72,-2.68,5.42,5.42,5.41
99.26,8.22,2.89,8.23,2.89,-2.89,-2.75,-2.74,5.33,5.34,5.33
100.25,8.19,2.94,8.19,2.92,-2.92,-2.77,-2.80,5.27,5.26,5.25
101.25,8.14,2.96,8.15,2.96,-2.96,-2.80,-2.86,5.18,5.19,5.18
102.27,8.10,3.00,8.10,2.99,-2.99,-2.83,-2.92,5.11,5.11,5.10
103.29,8.06,3.03,8.06,3.03,-3.03,-2.86,-2.98,5.03,5.03,5.03
104.32,8.02,3.06,8.02,3.06,-3.06,-2.89,-3.04,4.96,4.96,4.96
105.37,7.98,3.10,7.98,3.09,-3.09,-2.92,-3.10,4.89,4.89,4.89
106.42,7.94,3.12,7.94,3.12,-3.12,-2.95,-3.16,4.82,4.82,4.82
107.48,7.90,3.17,7.90,3.15,-3.15,-2.98,-3.22,4.75,4.74,4.74
108.56,7.86,3.19,7.86,3.19,-3.19,-3.01,-3.28,4.68,4.67,4.67
109.64,7.81,3.21,7.82,3.22,-3.22,-3.04,-3.34,4.59,4.60,4.61
110.74,7.77,3.24,7.77,3.25,-3.25,-3.07,-3.40,4.52,4.52,4.53
111.85,7.73,3.28,7.73,3.28,-3.28,-3.10,-3.46,4.45,4.45,4.46
112.97,7.69,3.31,7.69,3.32,-3.32,-3.13,-3.52,4.37,4.37,4.38
114.10,7.65,3.34,7.65,3.35,-3.35,-3.16,-3.57,4.30,4.30,4.31
115.24,7.60,3.38,7.60,3.38,-3.38,-3.18,-3.62,4.22,4.22,4.22
116.39,7.56,3.43,7.56,3.42,-3.42,-3.21,-3.67,4.14,4.14,4.13
117.55,7.52,3.46,7.52,3.46,-3.46,-3.24,-3.72,4.06,4.06,4.06
118.73,7.47,3.51,7.47,3.50,-3.50,-3.27,-3.76,3.97,3.98,3.97
119.92,7.43,3.55,7.43,3.54,-3.54,-3.30,-3.81,3.89,3.89,3.88
121.12,7.38,3.57,7.39,3.58,-3.58,-3.34,-3.85,3.80,3.81,3.81
122.33,7.34,3.62,7.35,3.62,-3.62,-3.37,-3.88,3.72,3.72,3.72
123.55,7.30,3.66,7.30,3.67,-3.67,-3.40,-3.92,3.63,3.64,3.64
124.79,7.26,3.70,7.26,3.71,-3.71,-3.43,-3.95,3.55,3.55,3.56
126.03,7.21,3.73,7.22,3.76,-3.76,-3.46,-3.97,3.46,3.46,3.48
127.29,7.18,3.80,7.18,3.80,-3.80,-3.49,-4.00,3.38,3.38,3.38
128.57,7.14,3.85,7.14,3.84,-3.84,-3.52,-4.02,3.30,3.30,3.29
129.85,7.10,3.89,7.10,3.89,-3.89,-3.55,-4.03,3.22,3.21,3.21
131.15,7.06,3.94,7.06,3.93,-3.93,-3.58,-4.05,3.13,3.13,3.12
132.46,7.02,3.98,7.02,3.97,-3.97,-3.61,-4.06,3.05,3.05,3.04
133.79,6.98,4.01,6.98,4.01,-4.01,-3.64,-4.07,2.97,2.98,2.97
135.12,6.94,4.05,6.94,4.04,-4.04,-3.67,-4.08,2.90,2.90,2.89
136.48,6.90,4.07,6.91,4.08,-4.08,-3.70,-4.08,2.82,2.83,2.83
137.84,6.87,4.11,6.87,4.11,-4.11,-3.73,-4.09,2.76,2.76,2.76
139.22,6.83,4.15,6.83,4.14,-4.14,-3.76,-4.09,2.69,2.69,2.68
140.61,6.78,4.16,6.79,4.17,-4.17,-3.80,-4.09,2.62,2.62,2.62
142.02,6.75,4.19,6.75,4.19,-4.19,-3.83,-4.09,2.56,2.56,2.56
143.44,6.71,4.22,6.71,4.21,-4.21,-3.86,-4.09,2.50,2.50,2.49
144.87,6.66,4.22,6.67,4.23,-4.23,-3.89,-4.09,2.43,2.44,2.44
146.32,6.63,4.25,6.63,4.25,-4.25,-3.92,-4.09,2.38,2.38,2.38
147.78,6.59,4.27,6.59,4.27,-4.27,-3.95,-4.09,2.32,2.32,2.32
149.26,6.55,4.29,6.55,4.29,-4.29,-3.98,-4.10,2.26,2.26,2.26
150.75,6.50,4.31,6.50,4.31,-4.31,-4.01,-4.10,2.20,2.20,2.19
152.26,6.46,4.32,6.46,4.32,-4.32,-4.05,-4.11,2.14,2.14,2.15
153.78,6.42,4.34,6.42,4.34,-4.34,-4.08,-4.11,2.08,2.08,2.08
155.32,6.38,4.36,6.38,4.36,-4.36,-4.11,-4.12,2.02,2.02,2.03
156.88,6.34,4.38,6.34,4.38,-4.38,-4.14,-4.13,1.96,1.96,1.96
158.44,6.30,4.40,6.30,4.41,-4.41,-4.17,-4.15,1.90,1.90,1.90
160.03,6.27,4.43,6.27,4.43,-4.43,-4.21,-4.16,1.84,1.84,1.84
161.63,6.22,4.44,6.23,4.45,-4.45,-4.24,-4.18,1.77,1.78,1.78
163.24,6.18,4.48,6.19,4.47,-4.47,-4.27,-4.20,1.71,1.71,1.71
164.88,6.15,4.50,6.15,4.50,-4.50,-4.30,-4.22,1.65,1.65,1.65
166.53,6.12,4.54,6.11,4.52,-4.52,-4.34,-4.25,1.60,1.59,1.58
168.19,6.07,4.54,6.07,4.55,-4.55,-4.37,-4.28,1.52,1.53,1.53
169.87,6.04,4.57,6.04,4.57,-4.57,-4.40,-4.32,1.47,1.46,1.47
171.57,6.00,4.60,6.00,4.60,-4.60,-4.43,-4.35,1.41,1.40,1.40
173.29,5.96,4.62,5.96,4.62,-4.62,-4.47,-4.39,1.34,1.34,1.34
175.02,5.92,4.64,5.93,4.64,-4.64,-4.50,-4.44,1.28,1.28,1.28
176.77,5.89,4.67,5.89,4.67,-4.67,-4.53,-4.48,1.23,1.22,1.22
178.54,5.85,4.69,5.85,4.69,-4.69,-4.57,-4.53,1.16,1.16,1.17
180.32,5.82,4.72,5.82,4.71,-4.71,-4.60,-4.59,1.11,1.10,1.10
182.13,5.77,4.72,5.78,4.74,-4.74,-4.63,-4.64,1.04,1.05,1.05
183.95,5.74,4.75,5.75,4.76,-4.76,-4.67,-4.70,0.98,0.99,0.99
185.79,5.71,4.78,5.71,4.78,-4.78,-4.70,-4.77,0.93,0.93,0.93
187.65,5.68,4.80,5.68,4.80,-4.80,-4.73,-4.84,0.88,0.87,0.88
189.52,5.64,4.82,5.64,4.82,-4.82,-4.77,-4.91,0.82,0.82,0.82
191.42,5.61,4.85,5.61,4.84,-4.84,-4.80,-4.98,0.77,0.77,0.77
193.33,5.58,4.87,5.57,4.86,-4.86,-4.83,-5.06,0.72,0.71,0.71
195.27,5.54,4.89,5.54,4.88,-4.88,-4.87,-5.13,0.66,0.66,0.65
197.22,5.51,4.91,5.51,4.90,-4.90,-4.90,-5.22,0.61,0.61,0.60
199.19,5.47,4.92,5.47,4.91,-4.91,-4.94,-5.30,0.56,0.56,0.55
201.18,5.44,4.94,5.44,4.93,-4.93,-4.97,-5.39,0.51,0.51,0.50
203.19,5.41,4.95,5.41,4.95,-4.95,-5.01,-5.47,0.46,0.46,0.46
205.23,5.37,4.95,5.38,4.96,-4.96,-5.04,-5.56,0.41,0.42,0.42
207.28,5.35,4.97,5.35,4.98,-4.98,-5.08,-5.65,0.37,0.37,0.38
209.35,5.31,4.98,5.32,4.99,-4.99,-5.11,-5.74,0.32,0.33,0.33
211.44,5.29,5.00,5.30,5.01,-5.01,-5.15,-5.83,0.28,0.29,0.29
213.56,5.27,5.03,5.27,5.02,-5.02,-5.18,-5.92,0.25,0.25,0.25
215.69,5.24,5.03,5.25,5.04,-5.04,-5.22,-6.01,0.20,0.21,0.21
217.85,5.22,5.05,5.22,5.05,-5.05,-5.25,-6.10,0.17,0.17,0.17
220.03,5.20,5.07,5.20,5.07,-5.07,-5.29,-6.18,0.13,0.14,0.13
222.23,5.19,5.10,5.18,5.08,-5.08,-5.32,-6.27,0.11,0.10,0.10
224.45,5.17,5.11,5.16,5.10,-5.10,-5.36,-6.34,0.07,0.07,0.06
226.70,5.14,5.11,5.15,5.11,-5.11,-5.39,-6.42,0.03,0.03,0.03
228.96,5.13,5.12,5.13,5.13,-5.13,-5.43,-6.49,0.00,0.00,0.01
231.25,5.12,5.14,5.11,5.14,-5.14,-5.46,-6.55,-0.02,-0.03,-0.02
233.57,5.10,5.15,5.10,5.16,-5.16,-5.50,-6.60,-0.06,-0.06,-0.05
235.90,5.08,5.17,5.09,5.17,-5.17,-5.53,-6.65,-0.09,-0.08,-0.09
238.26,5.07,5.19,5.07,5.18,-5.18,-5.57,-6.69,-0.11,-0.11,-0.12
240.64,5.06,5.19,5.06,5.19,-5.19,-5.61,-6.73,-0.13,-0.13,-0.13
243.05,5.05,5.21,5.05,5.21,-5.21,-5.64,-6.75,-0.15,-0.16,-0.16
245.48,5.04,5.22,5.04,5.22,-5.22,-5.68,-6.76,-0.18,-0.18,-0.18
247.93,5.03,5.24,5.03,5.23,-5.23,-5.71,-6.77,-0.20,-0.20,-0.21
250.41,5.03,5.25,5.03,5.25,-5.25,-5.75,-6.76,-0.21,-0.22,-0.21
252.92,5.02,5.25,5.02,5.26,-5.26,-5.78,-6.74,-0.24,-0.24,-0.23
255.45,5.02,5.28,5.02,5.28,-5.28,-5.81,-6.72,-0.26,-0.26,-0.25
258.00,5.02,5.29,5.02,5.30,-5.30,-5.85,-6.68,-0.27,-0.27,-0.27
260.58,5.02,5.30,5.03,5.32,-5.32,-5.88,-6.64,-0.29,-0.29,-0.28
263.19,5.03,5.34,5.03,5.34,-5.34,-5.91,-6.58,-0.31,-0.30,-0.31
265.82,5.04,5.36,5.04,5.36,-5.36,-5.95,-6.52,-0.32,-0.32,-0.32
268.48,5.05,5.38,5.05,5.39,-5.39,-5.98,-6.45,-0.34,-0.34,-0.33
271.16,5.07,5.42,5.06,5.42,-5.42,-6.01,-6.37,-0.34,-0.35,-0.35
273.87,5.08,5.45,5.08,5.45,-5.45,-6.04,-6.29,-0.36,-0.37,-0.36
276.61,5.10,5.49,5.10,5.48,-5.48,-6.07,-6.20,-0.38,-0.38,-0.38
279.38,5.11,5.52,5.12,5.51,-5.51,-6.10,-6.10,-0.40,-0.40,-0.41
282.17,5.14,5.56,5.14,5.55,-5.55,-6.13,-6.00,-0.41,-0.41,-0.42
284.99,5.17,5.59,5.17,5.59,-5.59,-6.15,-5.90,-0.42,-0.42,-0.42
287.84,5.20,5.63,5.20,5.63,-5.63,-6.18,-5.79,-0.43,-0.43,-0.42
290.72,5.24,5.70,5.23,5.68,-5.68,-6.20,-5.68,-0.44,-0.44,-0.45
293.63,5.27,5.72,5.27,5.73,-5.73,-6.22,-5.57,-0.45,-0.45,-0.45
296.57,5.31,5.77,5.31,5.78,-5.78,-6.25,-5.46,-0.47,-0.46,-0.46
299.53,5.35,5.82,5.36,5.83,-5.83,-6.26,-5.35,-0.48,-0.47,-0.47
302.53,5.40,5.88,5.41,5.89,-5.89,-6.28,-5.23,-0.49,-0.48,-0.48
305.55,5.46,5.95,5.47,5.95,-5.95,-6.30,-5.12,-0.49,-0.49,-0.48
308.61,5.51,6.00,5.53,6.02,-6.02,-6.31,-5.01,-0.51,-0.49,-0.49
311.69,5.58,6.08,5.59,6.09,-6.09,-6.32,-4.90,-0.51,-0.50,-0.50
314.81,5.65,6.16,5.66,6.16,-6.16,-6.33,-4.79,-0.51,-0.50,-0.51
317.96,5.72,6.23,5.73,6.24,-6.24,-6.33,-4.68,-0.52,-0.51,-0.51
321.14,5.80,6.31,5.80,6.32,-6.32,-6.33,-4.57,-0.52,-0.51,-0.51
324.35,5.87,6.40,5.88,6.40,-6.40,-6.33,-4.47,-0.53,-0.52,-0.52
327.59,5.95,6.46,5.96,6.48,-6.48,-6.33,-4.37,-0.53,-0.52,-0.51
330.87,6.02,6.54,6.04,6.56,-6.56,-6.32,-4.27,-0.54,-0.52,-0.52
334.18,6.11,6.64,6.12,6.64,-6.64,-6.31,-4.17,-0.53,-0.52,-0.53
337.52,6.18,6.71,6.19,6.72,-6.72,-6.29,-4.08,-0.54,-0.52,-0.53
340.90,6.25,6.78,6.26,6.79,-6.79,-6.27,-3.99,-0.54,-0.53,-0.53
344.30,6.31,6.84,6.33,6.85,-6.85,-6.25,-3.90,-0.54,-0.53,-0.53
347.75,6.37,6.89,6.38,6.91,-6.91,-6.22,-3.82,-0.54,-0.53,-0.52
351.23,6.43,6.97,6.42,6.95,-6.95,-6.18,-3.73,-0.52,-0.53,-0.53
354.74,6.46,6.98,6.45,6.98,-6.98,-6.14,-3.65,-0.52,-0.53,-0.52
358.28,6.48,7.01,6.46,6.99,-6.99,-6.09,-3.58,-0.51,-0.53,-0.53
361.87,6.48,7.01,6.46,6.99,-6.99,-6.04,-3.50,-0.51,-0.53,-0.53
365.49,6.46,6.99,6.43,6.96,-6.96,-5.99,-3.43,-0.50,-0.53,-0.53
369.14,6.42,6.95,6.39,6.92,-6.92,-5.92,-3.36,-0.50,-0.53,-0.52
372.83,6.35,6.88,6.32,6.85,-6.85,-5.85,-3.30,-0.50,-0.53,-0.53
376.56,6.26,6.79,6.23,6.76,-6.76,-5.78,-3.24,-0.50,-0.53,-0.53
380.33,6.15,6.69,6.11,6.65,-6.65,-5.70,-3.17,-0.49,-0.53,-0.53
384.13,6.00,6.54,5.98,6.51,-6.51,-5.61,-3.12,-0.51,-0.53,-0.54
387.97,5.84,6.37,5.82,6.36,-6.36,-5.52,-3.06,-0.52,-0.53,-0.53
391.85,5.66,6.20,5.65,6.18,-6.18,-5.42,-3.01,-0.52,-0.53,-0.53
395.77,5.47,6.01,5.46,5.99,-5.99,-5.31,-2.95,-0.52,-0.53,-0.54
399.73,5.26,5.80,5.26,5.79,-5.79,-5.20,-2.90,-0.53,-0.53,-0.54
403.72,5.03,5.56,5.04,5.58,-5.58,-5.08,-2.86,-0.54,-0.53,-0.53
407.76,4.80,5.34,4.82,5.35,-5.35,-4.96,-2.81,-0.55,-0.54,-0.53
411.84,4.57,5.11,4.58,5.12,-5.12,-4.83,-2.77,-0.55,-0.54,-0.54
415.96,4.34,4.87,4.35,4.89,-4.89,-4.69,-2.72,-0.54,-0.54,-0.53
420.12,4.09,4.63,4.11,4.65,-4.65,-4.55,-2.68,-0.56,-0.54,-0.54
424.32,3.85,4.39,3.87,4.41,-4.41,-4.40,-2.64,-0.56,-0.54,-0.54
428.56,3.62,4.16,3.63,4.18,-4.18,-4.25,-2.60,-0.55,-0.54,-0.54
432.85,3.39,3.93,3.40,3.94,-3.94,-4.10,-2.56,-0.55,-0.54,-0.54
437.18,3.15,3.70,3.16,3.71,-3.71,-3.94,-2.52,-0.56,-0.55,-0.55
441.55,2.93,3.48,2.94,3.48,-3.48,-3.77,-2.48,-0.55,-0.55,-0.55
445.96,2.71,3.26,2.71,3.26,-3.26,-3.61,-2.44,-0.55,-0.55,-0.55
450.42,2.49,3.05,2.50,3.05,-3.05,-3.44,-2.40,-0.56,-0.55,-0.55
454.93,2.27,2.83,2.28,2.84,-2.84,-3.26,-2.36,-0.56,-0.55,-0.56
459.48,2.07,2.63,2.08,2.63,-2.63,-3.09,-2.32,-0.56,-0.55,-0.56
464.07,1.87,2.42,1.88,2.43,-2.43,-2.91,-2.28,-0.56,-0.55,-0.55
468.71,1.68,2.23,1.68,2.24,-2.24,-2.73,-2.24,-0.55,-0.55,-0.55
473.40,1.49,2.04,1.49,2.05,-2.05,-2.54,-2.20,-0.56,-0.55,-0.55
478.13,1.30,1.85,1.31,1.86,-1.86,-2.36,-2.15,-0.56,-0.55,-0.55
482.91,1.14,1.70,1.13,1.69,-1.69,-2.18,-2.11,-0.54,-0.55,-0.55
487.74,0.96,1.51,0.96,1.51,-1.51,-1.99,-2.06,-0.55,-0.55,-0.55
