frequency,raw,error,smoothed,error_smoothed,equalization,parametric_eq,fixed_band_eq,equalized_raw,equalized_smoothed,target
20.00,-8.65,-14.92,-8.65,-14.92,14.92,15.28,6.22,6.27,6.27,6.27
20.20,-8.59,-14.90,-8.59,-14.90,14.90,15.25,6.37,6.31,6.31,6.31
20.40,-8.52,-14.87,-8.52,-14.87,14.87,15.22,6.52,6.36,6.35,6.35
20.61,-8.46,-14.84,-8.46,-14.84,14.85,15.17,6.68,6.39,6.39,6.38
20.81,-8.40,-14.82,-8.40,-14.82,14.81,15.13,6.84,6.42,6.42,6.42
21.02,-8.33,-14.79,-8.33,-14.79,14.78,15.08,7.01,6.45,6.45,6.46
21.23,-8.27,-14.75,-8.27,-14.75,14.74,15.02,7.17,6.47,6.48,6.48
21.44,-8.20,-14.70,-8.20,-14.70,14.70,14.97,7.35,6.50,6.50,6.50
21.66,-8.13,-14.65,-8.13,-14.65,14.65,14.91,7.53,6.52,6.52,6.52
21.87,-8.07,-14.60,-8.06,-14.60,14.60,14.84,7.71,6.53,6.54,6.53
22.09,-8.00,-14.55,-8.00,-14.55,14.55,14.78,7.89,6.55,6.55,6.55
22.31,-7.93,-14.49,-7.93,-14.49,14.49,14.71,8.09,6.56,6.56,6.56
22.54,-7.87,-14.44,-7.87,-14.44,14.43,14.64,8.28,6.56,6.57,6.57
22.76,-7.80,-14.38,-7.80,-14.38,14.37,14.57,8.49,6.57,6.57,6.58
22.99,-7.73,-14.31,-7.73,-14.31,14.31,14.50,8.69,6.58,6.58,6.58
23.22,-7.66,-14.25,-7.66,-14.25,14.25,14.42,8.91,6.59,6.59,6.59
23.45,-7.59,-14.19,-7.59,-14.19,14.19,14.35,9.13,6.61,6.61,6.60
23.69,-7.52,-14.13,-7.52,-14.13,14.14,14.28,9.35,6.61,6.62,6.61
23.92,-7.45,-14.07,-7.45,-14.08,14.08,14.20,9.58,6.63,6.63,6.62
24.16,-7.38,-14.02,-7.38,-14.02,14.02,14.13,9.82,6.64,6.63,6.64
24.40,-7.32,-13.98,-7.32,-13.96,13.96,14.05,10.06,6.64,6.64,6.66
24.65,-7.25,-13.90,-7.25,-13.91,13.90,13.97,10.30,6.65,6.65,6.65
24.89,-7.18,-13.84,-7.18,-13.84,13.84,13.90,10.56,6.66,6.66,6.66
25.14,-7.11,-13.78,-7.11,-13.78,13.78,13.83,10.81,6.68,6.68,6.67
25.39,-7.04,-13.72,-7.04,-13.72,13.73,13.75,11.08,6.69,6.69,6.68
25.65,-6.97,-13.67,-6.97,-13.67,13.67,13.68,11.34,6.70,6.69,6.70
25.91,-6.91,-13.61,-6.91,-13.61,13.61,13.60,11.61,6.70,6.70,6.70
26.16,-6.84,-13.55,-6.84,-13.55,13.55,13.53,11.89,6.71,6.71,6.71
26.43,-6.77,-13.49,-6.77,-13.49,13.49,13.46,12.17,6.72,6.72,6.72
26.69,-6.70,-13.43,-6.70,-13.43,13.43,13.39,12.45,6.73,6.73,6.73
26.96,-6.63,-13.38,-6.63,-13.38,13.37,13.32,12.74,6.74,6.74,6.75
27.23,-6.56,-13.32,-6.56,-13.31,13.31,13.25,13.02,6.75,6.75,6.76
27.50,-6.49,-13.25,-6.49,-13.25,13.25,13.19,13.30,6.76,6.76,6.76
27.77,-6.42,-13.18,-6.42,-13.19,13.19,13.12,13.58,6.77,6.77,6.76
28.05,-6.35,-13.13,-6.35,-13.12,13.13,13.06,13.86,6.78,6.78,6.78
28.33,-6.28,-13.06,-6.28,-13.06,13.06,12.99,14.13,6.78,6.78,6.78
28.62,-6.21,-13.00,-6.21,-13.00,13.00,12.93,14.39,6.79,6.79,6.79
28.90,-6.14,-12.94,-6.14,-12.94,12.94,12.87,14.63,6.80,6.80,6.80
29.19,-6.07,-12.87,-6.07,-12.88,12.88,12.81,14.87,6.81,6.81,6.80
29.48,-6.00,-12.83,-6.00,-12.82,12.82,12.75,15.08,6.82,6.82,6.83
29.78,-5.93,-12.75,-5.93,-12.75,12.76,12.69,15.27,6.83,6.83,6.82
30.08,-5.86,-12.69,-5.86,-12.69,12.70,12.63,15.43,6.84,6.83,6.83
30.38,-5.80,-12.63,-5.80,-12.64,12.64,12.58,15.57,6.84,6.84,6.83
30.68,-5.74,-12.59,-5.74,-12.58,12.58,12.52,15.68,6.84,6.84,6.85
30.99,-5.67,-12.52,-5.67,-12.52,12.52,12.47,15.75,6.85,6.85,6.85
31.30,-5.60,-12.45,-5.60,-12.46,12.46,12.42,15.79,6.86,6.85,6.85
31.61,-5.54,-12.40,-5.54,-12.39,12.40,12.37,15.79,6.86,6.86,6.86
31.93,-5.47,-12.34,-5.47,-12.34,12.34,12.32,15.76,6.87,6.87,6.87
32.24,-5.40,-12.27,-5.40,-12.28,12.28,12.27,15.71,6.88,6.88,6.87
32.57,-5.34,-12.23,-5.34,-12.22,12.22,12.22,15.62,6.88,6.89,6.89
32.89,-5.27,-12.16,-5.27,-12.16,12.16,12.17,15.50,6.90,6.89,6.89
33.22,-5.21,-12.11,-5.21,-12.11,12.10,12.13,15.36,6.90,6.90,6.90
33.55,-5.14,-12.05,-5.14,-12.05,12.04,12.08,15.20,6.91,6.91,6.91
33.89,-5.07,-11.99,-5.07,-11.99,11.98,12.03,15.02,6.91,6.91,6.92
34.23,-5.00,-11.92,-5.00,-11.92,11.92,11.99,14.83,6.92,6.92,6.92
34.57,-4.93,-11.86,-4.93,-11.86,11.86,11.95,14.63,6.93,6.93,6.93
34.92,-4.86,-11.79,-4.86,-11.79,11.79,11.90,14.42,6.93,6.93,6.93
35.27,-4.79,-11.73,-4.79,-11.73,11.73,11.86,14.20,6.94,6.94,6.94
35.62,-4.72,-11.66,-4.72,-11.66,11.66,11.82,13.98,6.94,6.94,6.94
35.97,-4.65,-11.59,-4.65,-11.59,11.60,11.77,13.76,6.95,6.95,6.94
36.33,-4.59,-11.54,-4.59,-11.53,11.53,11.73,13.55,6.95,6.95,6.95
36.70,-4.52,-11.46,-4.52,-11.47,11.47,11.69,13.33,6.95,6.95,6.94
37.06,-4.46,-11.41,-4.46,-11.41,11.41,11.65,13.11,6.95,6.95,6.95
37.43,-4.40,-11.35,-4.40,-11.35,11.34,11.61,12.90,6.95,6.95,6.95
37.81,-4.34,-11.29,-4.34,-11.29,11.28,11.56,12.70,6.94,6.94,6.95
38.19,-4.28,-11.23,-4.28,-11.22,11.22,11.52,12.50,6.94,6.94,6.95
38.57,-4.21,-11.15,-4.21,-11.16,11.15,11.48,12.30,6.94,6.94,6.94
38.95,-4.15,-11.09,-4.15,-11.09,11.09,11.44,12.12,6.94,6.94,6.94
39.34,-4.09,-11.02,-4.09,-11.02,11.03,11.39,11.94,6.94,6.94,6.93
39.74,-4.03,-10.96,-4.03,-10.96,10.96,11.35,11.76,6.94,6.94,6.93
40.14,-3.97,-10.90,-3.97,-10.90,10.90,11.30,11.59,6.93,6.93,6.93
40.54,-3.92,-10.85,-3.92,-10.85,10.84,11.26,11.43,6.92,6.93,6.93
40.94,-3.87,-10.79,-3.87,-10.79,10.79,11.21,11.28,6.92,6.92,6.92
41.35,-3.81,-10.73,-3.81,-10.73,10.73,11.17,11.14,6.92,6.92,6.92
41.76,-3.76,-10.68,-3.76,-10.67,10.67,11.12,11.00,6.92,6.92,6.92
42.18,-3.70,-10.62,-3.70,-10.62,10.62,11.07,10.87,6.92,6.92,6.92
42.60,-3.64,-10.56,-3.64,-10.56,10.56,11.02,10.74,6.92,6.92,6.92
43.03,-3.59,-10.51,-3.59,-10.51,10.51,10.97,10.63,6.92,6.92,6.92
43.46,-3.54,-10.46,-3.54,-10.45,10.45,10.92,10.52,6.91,6.91,6.92
43.90,-3.49,-10.39,-3.49,-10.40,10.40,10.87,10.42,6.91,6.91,6.90
44.33,-3.45,-10.35,-3.45,-10.34,10.35,10.81,10.32,6.90,6.90,6.90
44.78,-3.40,-10.29,-3.40,-10.29,10.29,10.76,10.23,6.89,6.89,6.89
45.23,-3.35,-10.24,-3.35,-10.24,10.24,10.70,10.15,6.89,6.89,6.89
45.68,-3.31,-10.20,-3.31,-10.19,10.20,10.65,10.08,6.89,6.89,6.89
46.13,-3.26,-10.14,-3.26,-10.15,10.15,10.59,10.01,6.89,6.89,6.88
46.60,-3.22,-10.11,-3.22,-10.10,10.10,10.53,9.95,6.88,6.88,6.89
47.06,-3.17,-10.05,-3.17,-10.05,10.05,10.46,9.89,6.88,6.88,6.88
47.53,-3.13,-10.00,-3.13,-10.01,10.00,10.40,9.84,6.88,6.87,6.87
48.01,-3.09,-9.97,-3.09,-9.96,9.96,10.34,9.79,6.87,6.87,6.88
48.49,-3.05,-9.91,-3.05,-9.91,9.90,10.27,9.75,6.86,6.86,6.86
48.97,-3.01,-9.85,-3.01,-9.85,9.85,10.20,9.72,6.84,6.84,6.84
49.46,-2.97,-9.80,-2.97,-9.80,9.80,10.13,9.69,6.83,6.83,6.83
49.96,-2.93,-9.74,-2.93,-9.75,9.75,10.06,9.67,6.82,6.82,6.81
50.46,-2.89,-9.70,-2.89,-9.69,9.69,9.99,9.65,6.80,6.80,6.81
50.96,-2.85,-9.64,-2.85,-9.64,9.64,9.92,9.63,6.79,6.79,6.79
51.47,-2.82,-9.58,-2.82,-9.59,9.59,9.84,9.62,6.77,6.77,6.76
51.99,-2.78,-9.53,-2.78,-9.53,9.53,9.77,9.61,6.75,6.75,6.75
52.51,-2.74,-9.48,-2.74,-9.48,9.47,9.69,9.60,6.73,6.73,6.74
53.03,-2.70,-9.42,-2.70,-9.42,9.42,9.61,9.60,6.72,6.72,6.72
53.56,-2.65,-9.36,-2.65,-9.36,9.36,9.53,9.59,6.71,6.71,6.71
54.10,-2.61,-9.29,-2.61,-9.30,9.30,9.45,9.59,6.69,6.69,6.68
54.64,-2.57,-9.24,-2.57,-9.23,9.23,9.36,9.59,6.67,6.67,6.67
55.18,-2.53,-9.17,-2.53,-9.17,9.17,9.28,9.58,6.64,6.64,6.64
55.74,-2.49,-9.10,-2.49,-9.11,9.10,9.20,9.58,6.61,6.62,6.61
56.29,-2.44,-9.05,-2.44,-9.04,9.04,9.11,9.57,6.60,6.60,6.61
56.86,-2.39,-8.97,-2.39,-8.97,8.97,9.02,9.56,6.58,6.58,6.58
57.42,-2.34,-8.89,-2.34,-8.89,8.90,8.94,9.55,6.56,6.56,6.55
58.00,-2.29,-8.82,-2.29,-8.82,8.83,8.85,9.53,6.54,6.54,6.53
58.58,-2.24,-8.75,-2.24,-8.75,8.76,8.76,9.51,6.52,6.51,6.51
59.16,-2.20,-8.69,-2.19,-8.68,8.68,8.67,9.48,6.48,6.48,6.49
59.76,-2.14,-8.61,-2.14,-8.61,8.59,8.58,9.45,6.45,6.45,6.47
60.35,-2.08,-8.52,-2.08,-8.52,8.50,8.48,9.41,6.42,6.42,6.44
60.96,-2.01,-8.42,-2.01,-8.42,8.41,8.39,9.37,6.40,6.40,6.41
61.57,-1.95,-8.31,-1.95,-8.31,8.32,8.30,9.31,6.37,6.37,6.36
62.18,-1.88,-8.20,-1.88,-8.21,8.22,8.21,9.25,6.34,6.34,6.32
62.80,-1.82,-8.12,-1.82,-8.11,8.12,8.11,9.18,6.30,6.30,6.30
63.43,-1.77,-8.02,-1.77,-8.02,8.02,8.02,9.10,6.25,6.25,6.25
64.07,-1.71,-7.92,-1.71,-7.93,7.92,7.92,9.02,6.21,6.21,6.21
64.71,-1.66,-7.84,-1.65,-7.83,7.82,7.83,8.93,6.16,6.17,6.18
65.35,-1.59,-7.73,-1.59,-7.73,7.73,7.73,8.83,6.14,6.14,6.14
66.01,-1.53,-7.63,-1.53,-7.63,7.63,7.64,8.72,6.10,6.10,6.10
66.67,-1.47,-7.54,-1.47,-7.53,7.54,7.55,8.61,6.07,6.07,6.07
67.33,-1.41,-7.44,-1.41,-7.44,7.45,7.45,8.49,6.04,6.03,6.03
68.01,-1.36,-7.35,-1.36,-7.35,7.35,7.36,8.36,5.99,5.99,5.99
68.69,-1.31,-7.26,-1.31,-7.26,7.26,7.26,8.23,5.95,5.95,5.95
69.37,-1.26,-7.17,-1.26,-7.17,7.17,7.17,8.10,5.91,5.91,5.91
70.07,-1.22,-7.09,-1.22,-7.09,7.08,7.07,7.96,5.86,5.87,5.87
70.77,-1.17,-7.00,-1.17,-7.00,7.00,6.98,7.82,5.83,5.83,5.83
71.48,-1.12,-6.92,-1.12,-6.91,6.91,6.89,7.68,5.79,5.79,5.80
72.19,-1.07,-6.82,-1.07,-6.82,6.82,6.79,7.53,5.76,5.76,5.75
72.91,-1.02,-6.74,-1.02,-6.74,6.74,6.70,7.39,5.72,5.72,5.72
73.64,-0.97,-6.65,-0.97,-6.65,6.66,6.61,7.24,5.69,5.69,5.68
74.38,-0.93,-6.58,-0.93,-6.58,6.58,6.52,7.09,5.65,5.65,5.65
75.12,-0.89,-6.50,-0.89,-6.50,6.50,6.43,6.95,5.61,5.61,5.61
75.87,-0.85,-6.43,-0.85,-6.43,6.42,6.34,6.80,5.57,5.58,5.58
76.63,-0.80,-6.35,-0.80,-6.35,6.35,6.25,6.66,5.55,5.54,5.55
77.40,-0.76,-6.28,-0.76,-6.28,6.27,6.16,6.51,5.51,5.51,5.52
78.17,-0.71,-6.20,-0.71,-6.20,6.19,6.07,6.37,5.48,5.48,5.49
78.95,-0.66,-6.12,-0.66,-6.12,6.12,5.98,6.23,5.46,5.46,5.46
79.74,-0.60,-6.04,-0.60,-6.04,6.04,5.89,6.10,5.44,5.44,5.44
80.54,-0.55,-5.97,-0.55,-5.96,5.97,5.81,5.96,5.42,5.42,5.42
81.35,-0.50,-5.89,-0.50,-5.89,5.90,5.72,5.83,5.40,5.40,5.39
82.16,-0.46,-5.82,-0.46,-5.83,5.83,5.64,5.70,5.38,5.37,5.36
82.98,-0.43,-5.78,-0.43,-5.77,5.77,5.55,5.58,5.34,5.34,5.35
83.81,-0.40,-5.72,-0.40,-5.71,5.70,5.47,5.46,5.31,5.31,5.32
84.65,-0.36,-5.65,-0.36,-5.65,5.64,5.38,5.34,5.29,5.29,5.29
85.50,-0.31,-5.59,-0.31,-5.59,5.59,5.30,5.22,5.28,5.28,5.28
86.35,-0.26,-5.52,-0.26,-5.52,5.53,5.22,5.11,5.27,5.27,5.26
87.22,-0.22,-5.46,-0.22,-5.46,5.47,5.14,5.00,5.25,5.25,5.24
88.09,-0.19,-5.41,-0.19,-5.41,5.41,5.06,4.89,5.22,5.22,5.22
88.97,-0.16,-5.36,-0.16,-5.36,5.36,4.98,4.79,5.20,5.20,5.20
89.86,-0.13,-5.32,-0.12,-5.31,5.30,4.90,4.69,5.17,5.17,5.19
90.76,-0.08,-5.24,-0.08,-5.24,5.24,4.83,4.59,5.16,5.16,5.16
91.66,-0.04,-5.18,-0.04,-5.18,5.18,4.75,4.50,5.14,5.14,5.14
92.58,0.01,-5.11,0.01,-5.11,5.12,4.68,4.41,5.13,5.13,5.12
93.51,0.05,-5.06,0.05,-5.06,5.06,4.60,4.32,5.11,5.11,5.11
94.44,0.09,-5.00,0.09,-5.00,4.99,4.53,4.24,5.08,5.09,5.09
95.39,0.14,-4.93,0.14,-4.93,4.93,4.46,4.16,5.07,5.06,5.07
96.34,0.18,-4.86,0.18,-4.86,4.86,4.39,4.08,5.04,5.04,5.04
97.30,0.22,-4.79,0.22,-4.79,4.79,4.31,4.01,5.01,5.01,5.01
98.28,0.26,-4.72,0.26,-4.72,4.72,4.24,3.93,4.98,4.98,4.98
99.26,0.31,-4.65,0.31,-4.65,4.65,4.18,3.86,4.96,4.96,4.96
100.25,0.35,-4.58,0.36,-4.57,4.58,4.11,3.79,4.93,4.94,4.93
101.25,0.40,-4.50,0.40,-4.50,4.51,4.04,3.73,4.91,4.91,4.90
102.27,0.44,-4.42,0.43,-4.43,4.44,3.97,3.67,4.88,4.87,4.86
103.29,0.46,-4.37,0.46,-4.37,4.36,3.91,3.61,4.82,4.82,4.83
104.32,0.49,-4.31,0.50,-4.30,4.28,3.84,3.55,4.77,4.78,4.80
105.37,0.54,-4.22,0.54,-4.22,4.21,3.78,3.49,4.75,4.74,4.76
106.42,0.59,-4.12,0.59,-4.13,4.13,3.72,3.43,4.72,4.72,4.71
107.48,0.63,-4.05,0.63,-4.04,4.05,3.66,3.38,4.68,4.68,4.68
108.56,0.67,-3.95,0.67,-3.96,3.97,3.60,3.33,4.64,4.64,4.62
109.64,0.69,-3.88,0.69,-3.88,3.89,3.54,3.28,4.58,4.58,4.57
110.74,0.71,-3.81,0.71,-3.81,3.81,3.48,3.23,4.52,4.52,4.52
111.85,0.72,-3.75,0.72,-3.74,3.73,3.42,3.18,4.45,4.46,4.47
112.97,0.74,-3.66,0.75,-3.66,3.66,3.36,3.13,4.40,4.40,4.40
114.10,0.77,-3.58,0.77,-3.58,3.58,3.30,3.08,4.35,4.34,4.35
115.24,0.79,-3.50,0.79,-3.50,3.50,3.25,3.04,4.29,4.29,4.29
116.39,0.80,-3.42,0.80,-3.42,3.42,3.19,2.99,4.22,4.23,4.22
117.55,0.82,-3.34,0.82,-3.34,3.34,3.14,2.94,4.16,4.16,4.16
118.73,0.84,-3.26,0.84,-3.26,3.26,3.08,2.90,4.10,4.10,4.10
119.92,0.87,-3.18,0.87,-3.17,3.17,3.03,2.85,4.04,4.05,4.05
121.12,0.91,-3.08,0.90,-3.09,3.09,2.98,2.81,4.00,3.99,3.99
122.33,0.93,-3.01,0.93,-3.01,3.00,2.93,2.76,3.93,3.94,3.94
123.55,0.96,-2.93,0.97,-2.92,2.92,2.88,2.72,3.88,3.89,3.89
124.79,1.00,-2.84,1.00,-2.84,2.84,2.83,2.67,3.84,3.84,3.84
126.03,1.04,-2.75,1.03,-2.75,2.75,2.78,2.63,3.79,3.79,3.79
127.29,1.06,-2.68,1.06,-2.67,2.68,2.73,2.58,3.74,3.74,3.74
128.57,1.08,-2.60,1.08,-2.60,2.61,2.68,2.53,3.69,3.69,3.68
129.85,1.10,-2.54,1.10,-2.54,2.55,2.64,2.49,3.65,3.65,3.64
131.15,1.11,-2.48,1.11,-2.48,2.49,2.59,2.44,3.60,3.60,3.59
132.46,1.12,-2.43,1.12,-2.43,2.44,2.54,2.39,3.56,3.56,3.55
133.79,1.11,-2.40,1.11,-2.40,2.40,2.50,2.34,3.51,3.51,3.51
135.12,1.10,-2.37,1.10,-2.37,2.36,2.45,2.30,3.46,3.46,3.47
136.48,1.09,-2.34,1.09,-2.34,2.32,2.41,2.25,3.41,3.42,3.43
137.84,1.09,-2.30,1.09,-2.29,2.29,2.37,2.20,3.38,3.38,3.39
139.22,1.09,-2.25,1.09,-2.25,2.25,2.32,2.15,3.35,3.34,3.34
140.61,1.09,-2.21,1.09,-2.22,2.22,2.28,2.10,3.31,3.31,3.30
142.02,1.09,-2.19,1.09,-2.18,2.18,2.24,2.05,3.28,3.28,3.28
143.44,1.09,-2.15,1.09,-2.15,2.15,2.20,2.01,3.24,3.24,3.24
144.87,1.09,-2.11,1.09,-2.11,2.11,2.15,1.96,3.20,3.20,3.20
146.32,1.09,-2.07,1.09,-2.07,2.07,2.11,1.91,3.16,3.16,3.16
147.78,1.09,-2.04,1.09,-2.04,2.04,2.07,1.86,3.13,3.13,3.13
149.26,1.09,-2.01,1.09,-2.00,2.00,2.03,1.82,3.09,3.09,3.10
150.75,1.09,-1.95,1.09,-1.96,1.96,1.99,1.77,3.05,3.05,3.04
152.26,1.09,-1.91,1.09,-1.91,1.91,1.95,1.72,3.01,3.01,3.00
153.78,1.09,-1.88,1.09,-1.87,1.87,1.91,1.67,2.96,2.96,2.97
155.32,1.09,-1.82,1.09,-1.83,1.83,1.87,1.63,2.92,2.92,2.91
156.88,1.09,-1.79,1.09,-1.78,1.78,1.83,1.58,2.87,2.87,2.88
158.44,1.09,-1.74,1.09,-1.74,1.74,1.79,1.54,2.83,2.83,2.83
160.03,1.09,-1.69,1.09,-1.69,1.69,1.75,1.49,2.78,2.78,2.78
161.63,1.09,-1.64,1.09,-1.64,1.65,1.71,1.45,2.74,2.74,2.73
163.24,1.09,-1.60,1.09,-1.60,1.60,1.67,1.41,2.69,2.69,2.69
164.88,1.09,-1.56,1.09,-1.56,1.56,1.63,1.36,2.65,2.65,2.65
166.53,1.09,-1.51,1.09,-1.51,1.51,1.59,1.32,2.60,2.60,2.60
168.19,1.09,-1.46,1.09,-1.46,1.46,1.55,1.28,2.55,2.55,2.55
169.87,1.09,-1.41,1.09,-1.41,1.41,1.50,1.24,2.50,2.50,2.50
171.57,1.09,-1.37,1.09,-1.36,1.36,1.46,1.20,2.45,2.45,2.46
173.29,1.09,-1.31,1.09,-1.31,1.31,1.41,1.16,2.40,2.40,2.40
175.02,1.09,-1.26,1.09,-1.26,1.26,1.37,1.12,2.35,2.35,2.35
176.77,1.09,-1.20,1.09,-1.20,1.20,1.32,1.08,2.29,2.29,2.29
178.54,1.09,-1.15,1.09,-1.15,1.15,1.27,1.04,2.24,2.24,2.24
180.32,1.09,-1.09,1.09,-1.09,1.09,1.21,1.01,2.18,2.18,2.18
182.13,1.09,-1.04,1.09,-1.04,1.03,1.16,0.97,2.12,2.12,2.13
183.95,1.10,-0.97,1.10,-0.97,0.97,1.10,0.93,2.07,2.07,2.07
185.79,1.10,-0.92,1.10,-0.91,0.91,1.04,0.90,2.01,2.01,2.02
187.65,1.11,-0.84,1.11,-0.85,0.85,0.98,0.86,1.96,1.96,1.95
189.52,1.11,-0.79,1.11,-0.79,0.80,0.92,0.83,1.91,1.91,1.90
191.42,1.11,-0.74,1.11,-0.74,0.74,0.85,0.80,1.85,1.85,1.85
193.33,1.10,-0.70,1.10,-0.70,0.70,0.79,0.76,1.80,1.80,1.80
195.27,1.09,-0.66,1.09,-0.66,0.66,0.72,0.73,1.75,1.75,1.75
197.22,1.07,-0.62,1.07,-0.62,0.63,0.65,0.70,1.70,1.70,1.69
199.19,1.04,-0.60,1.04,-0.60,0.61,0.59,0.67,1.65,1.65,1.64
201.18,1.01,-0.58,1.01,-0.58,0.59,0.53,0.64,1.60,1.60,1.59
203.19,0.98,-0.58,0.98,-0.57,0.57,0.48,0.61,1.55,1.55,1.56
205.23,0.95,-0.55,0.95,-0.57,0.56,0.43,0.58,1.51,1.50,1.50
207.28,0.91,-0.57,0.91,-0.55,0.54,0.40,0.55,1.45,1.46,1.48
209.35,0.88,-0.54,0.88,-0.54,0.53,0.37,0.52,1.41,1.41,1.42
211.44,0.86,-0.51,0.86,-0.52,0.52,0.36,0.50,1.38,1.38,1.37
213.56,0.83,-0.50,0.83,-0.50,0.51,0.36,0.47,1.34,1.34,1.33
215.69,0.81,-0.50,0.81,-0.49,0.49,0.37,0.45,1.30,1.30,1.31
217.85,0.78,-0.49,0.78,-0.48,0.48,0.40,0.43,1.26,1.27,1.27
220.03,0.76,-0.47,0.76,-0.47,0.47,0.43,0.41,1.23,1.24,1.23
222.23,0.74,-0.46,0.74,-0.47,0.47,0.46,0.39,1.21,1.21,1.20
224.45,0.71,-0.47,0.71,-0.46,0.47,0.50,0.37,1.18,1.18,1.18
226.70,0.68,-0.47,0.68,-0.47,0.47,0.54,0.35,1.15,1.15,1.15
228.96,0.65,-0.47,0.65,-0.47,0.47,0.58,0.34,1.12,1.13,1.12
231.25,0.63,-0.48,0.63,-0.48,0.48,0.62,0.33,1.11,1.11,1.11
233.57,0.60,-0.49,0.60,-0.49,0.49,0.66,0.32,1.09,1.09,1.09
235.90,0.57,-0.51,0.57,-0.51,0.50,0.70,0.31,1.07,1.08,1.08
238.26,0.55,-0.52,0.55,-0.52,0.52,0.74,0.30,1.07,1.07,1.07
240.64,0.52,-0.54,0.52,-0.54,0.54,0.77,0.30,1.06,1.07,1.06
243.05,0.50,-0.56,0.49,-0.56,0.57,0.80,0.29,1.07,1.06,1.06
245.48,0.46,-0.59,0.46,-0.59,0.59,0.83,0.29,1.06,1.06,1.05
247.93,0.42,-0.63,0.43,-0.62,0.62,0.86,0.30,1.04,1.05,1.05
250.41,0.40,-0.65,0.39,-0.66,0.65,0.88,0.30,1.06,1.05,1.05
252.92,0.36,-0.70,0.37,-0.69,0.69,0.90,0.31,1.05,1.05,1.06
255.45,0.34,-0.73,0.34,-0.73,0.72,0.92,0.32,1.06,1.06,1.07
258.00,0.32,-0.76,0.32,-0.76,0.75,0.94,0.33,1.07,1.07,1.08
260.58,0.29,-0.79,0.29,-0.79,0.79,0.96,0.34,1.08,1.09,1.08
263.19,0.27,-0.82,0.27,-0.82,0.83,0.98,0.36,1.10,1.10,1.09
265.82,0.24,-0.86,0.24,-0.86,0.87,1.00,0.38,1.11,1.11,1.10
268.48,0.21,-0.91,0.21,-0.91,0.92,1.01,0.40,1.13,1.13,1.12
271.16,0.18,-0.96,0.17,-0.96,0.96,1.03,0.42,1.14,1.14,1.14
273.87,0.13,-1.01,0.13,-1.01,1.01,1.04,0.44,1.14,1.15,1.14
276.61,0.09,-1.08,0.09,-1.07,1.06,1.06,0.47,1.15,1.16,1.17
279.38,0.06,-1.11,0.06,-1.12,1.11,1.07,0.50,1.17,1.17,1.17
282.17,0.02,-1.17,0.02,-1.17,1.16,1.09,0.53,1.18,1.18,1.19
284.99,-0.01,-1.21,-0.01,-1.21,1.20,1.10,0.56,1.20,1.20,1.20
287.84,-0.04,-1.25,-0.04,-1.25,1.25,1.11,0.60,1.21,1.21,1.21
290.72,-0.06,-1.28,-0.06,-1.29,1.29,1.13,0.63,1.23,1.23,1.22
293.63,-0.09,-1.33,-0.09,-1.33,1.33,1.14,0.67,1.24,1.24,1.24
296.57,-0.12,-1.38,-0.12,-1.37,1.37,1.15,0.71,1.25,1.25,1.26
299.53,-0.15,-1.41,-0.15,-1.41,1.42,1.17,0.75,1.27,1.27,1.26
302.53,-0.18,-1.45,-0.18,-1.45,1.46,1.18,0.79,1.28,1.28,1.27
305.55,-0.21,-1.50,-0.21,-1.50,1.51,1.20,0.83,1.30,1.29,1.29
308.61,-0.25,-1.55,-0.25,-1.55,1.55,1.21,0.87,1.30,1.30,1.30
311.69,-0.29,-1.60,-0.28,-1.60,1.59,1.23,0.92,1.30,1.31,1.31
314.81,-0.31,-1.65,-0.31,-1.64,1.63,1.25,0.97,1.32,1.32,1.34
317.96,-0.34,-1.67,-0.34,-1.67,1.66,1.26,1.01,1.32,1.33,1.33
321.14,-0.36,-1.70,-0.36,-1.70,1.70,1.28,1.06,1.34,1.34,1.34
324.35,-0.39,-1.73,-0.39,-1.73,1.73,1.30,1.11,1.34,1.35,1.34
327.59,-0.41,-1.76,-0.41,-1.75,1.76,1.32,1.17,1.36,1.36,1.35
330.87,-0.43,-1.78,-0.44,-1.79,1.80,1.33,1.22,1.37,1.36,1.35
334.18,-0.47,-1.82,-0.47,-1.82,1.83,1.35,1.27,1.36,1.36,1.35
337.52,-0.51,-1.87,-0.51,-1.86,1.87,1.37,1.33,1.36,1.36,1.36
340.90,-0.54,-1.90,-0.54,-1.90,1.90,1.39,1.38,1.36,1.36,1.36
344.30,-0.58,-1.94,-0.58,-1.94,1.93,1.42,1.44,1.35,1.35,1.36
347.75,-0.61,-1.97,-0.61,-1.97,1.96,1.44,1.50,1.35,1.35,1.36
351.23,-0.64,-2.00,-0.64,-2.00,1.99,1.46,1.56,1.35,1.35,1.36
354.74,-0.66,-2.02,-0.66,-2.02,2.01,1.48,1.62,1.35,1.35,1.36
358.28,-0.69,-2.03,-0.68,-2.03,2.03,1.51,1.68,1.35,1.35,1.34
361.87,-0.70,-2.04,-0.70,-2.05,2.06,1.53,1.75,1.36,1.35,1.34
365.49,-0.73,-2.07,-0.73,-2.07,2.08,1.56,1.81,1.35,1.35,1.34
369.14,-0.77,-2.10,-0.77,-2.10,2.11,1.59,1.88,1.34,1.34,1.33
372.83,-0.81,-2.14,-0.81,-2.14,2.14,1.62,1.94,1.33,1.33,1.33
376.56,-0.85,-2.17,-0.85,-2.17,2.17,1.64,2.01,1.32,1.32,1.32
380.33,-0.89,-2.20,-0.89,-2.20,2.20,1.67,2.08,1.31,1.30,1.31
384.13,-0.93,-2.23,-0.93,-2.23,2.22,1.70,2.15,1.30,1.30,1.30
387.97,-0.97,-2.26,-0.96,-2.26,2.25,1.73,2.22,1.28,1.29,1.29
391.85,-0.99,-2.27,-0.99,-2.28,2.27,1.77,2.29,1.29,1.28,1.28
395.77,-1.02,-2.31,-1.02,-2.30,2.30,1.80,2.36,1.28,1.28,1.29
399.73,-1.04,-2.32,-1.04,-2.32,2.32,1.83,2.43,1.28,1.28,1.28
403.72,-1.06,-2.33,-1.06,-2.34,2.34,1.87,2.50,1.28,1.28,1.27
407.76,-1.09,-2.35,-1.09,-2.35,2.36,1.90,2.58,1.27,1.27,1.26
411.84,-1.11,-2.38,-1.12,-2.37,2.38,1.94,2.65,1.27,1.27,1.27
415.96,-1.15,-2.40,-1.15,-2.40,2.40,1.97,2.72,1.25,1.26,1.25
420.12,-1.18,-2.43,-1.18,-2.43,2.43,2.01,2.79,1.25,1.25,1.25
424.32,-1.21,-2.46,-1.21,-2.46,2.45,2.05,2.86,1.24,1.24,1.25
428.56,-1.24,-2.48,-1.24,-2.48,2.48,2.09,2.93,1.24,1.24,1.24
432.85,-1.27,-2.51,-1.27,-2.51,2.51,2.13,3.00,1.24,1.24,1.24
437.18,-1.30,-2.54,-1.29,-2.54,2.54,2.17,3.06,1.24,1.24,1.24
441.55,-1.32,-2.57,-1.32,-2.57,2.57,2.21,3.12,1.25,1.25,1.25
445.96,-1.35,-2.60,-1.35,-2.60,2.60,2.25,3.19,1.25,1.25,1.25
450.42,-1.39,-2.63,-1.38,-2.63,2.63,2.29,3.24,1.24,1.25,1.24
454.93,-1.41,-2.66,-1.42,-2.66,2.67,2.33,3.30,1.26,1.25,1.25
459.48,-1.45,-2.70,-1.44,-2.70,2.70,2.38,3.35,1.25,1.26,1.25
464.07,-1.47,-2.73,-1.47,-2.73,2.73,2.42,3.39,1.26,1.26,1.26
468.71,-1.49,-2.76,-1.50,-2.76,2.76,2.46,3.44,1.27,1.26,1.27
473.40,-1.52,-2.78,-1.52,-2.78,2.78,2.50,3.47,1.26,1.26,1.26
478.13,-1.54,-2.81,-1.54,-2.80,2.80,2.54,3.51,1.26,1.26,1.27
482.91,-1.55,-2.82,-1.55,-2.82,2.81,2.59,3.53,1.26,1.27,1.27
487.74,-1.54,-2.82,-1.54,-2.82,2.82,2.63,3.56,1.28,1.28,1.28
492.62,-1.53,-2.82,-1.53,-2.82,2.82,2.67,3.57,1.29,1.28,1.29
497.55,-1.52,-2.81,-1.52,-2.81,2.81,2.71,3.58,1.29,1.29,1.29
502.52,-1.50,-2.80,-1.50,-2.80,2.79,2.75,3.59,1.30,1.30,1.30
