frequency,raw,error,smoothed,error_smoothed,equalization,parametric_eq,fixed_band_eq,equalized_raw,equalized_smoothed,target
20.00,6.80,-4.26,6.86,-4.21,4.21,3.75,1.57,11.01,11.06,11.06
20.20,6.84,-4.21,6.88,-4.17,4.17,3.76,1.62,11.01,11.05,11.05
20.40,6.88,-4.16,6.90,-4.14,4.14,3.77,1.67,11.02,11.04,11.04
20.61,6.92,-4.12,6.92,-4.11,4.11,3.78,1.72,11.03,11.03,11.04
20.81,6.95,-4.07,6.95,-4.08,4.08,3.79,1.77,11.03,11.02,11.02
21.02,6.99,-4.03,6.97,-4.04,4.04,3.80,1.82,11.03,11.02,11.02
21.23,7.04,-3.97,7.00,-4.01,4.01,3.81,1.87,11.05,11.01,11.00
21.44,7.08,-3.93,7.02,-3.98,3.98,3.81,1.93,11.06,11.00,11.01
21.66,7.12,-3.88,7.05,-3.95,3.95,3.82,1.99,11.06,10.99,11.00
21.87,7.17,-3.82,7.07,-3.91,3.91,3.82,2.04,11.08,10.99,10.99
22.09,7.18,-3.80,7.10,-3.88,3.88,3.82,2.10,11.06,10.98,10.98
22.31,7.16,-3.82,7.13,-3.85,3.85,3.83,2.17,11.01,10.98,10.98
22.54,7.15,-3.82,7.15,-3.82,3.82,3.82,2.23,10.97,10.97,10.97
22.76,7.13,-3.84,7.17,-3.79,3.79,3.82,2.29,10.92,10.97,10.97
22.99,7.11,-3.85,7.20,-3.76,3.76,3.82,2.36,10.87,10.96,10.96
23.22,7.15,-3.80,7.24,-3.72,3.72,3.82,2.43,10.87,10.96,10.95
23.45,7.20,-3.75,7.27,-3.69,3.69,3.81,2.50,10.89,10.95,10.95
23.69,7.24,-3.70,7.29,-3.66,3.66,3.80,2.57,10.90,10.95,10.94
23.92,7.29,-3.65,7.32,-3.63,3.63,3.80,2.64,10.92,10.95,10.94
24.16,7.35,-3.60,7.34,-3.61,3.61,3.79,2.71,10.96,10.95,10.95
24.40,7.42,-3.54,7.37,-3.58,3.58,3.78,2.78,11.00,10.95,10.96
24.65,7.49,-3.47,7.40,-3.55,3.55,3.77,2.86,11.04,10.95,10.96
24.89,7.56,-3.40,7.43,-3.52,3.52,3.75,2.93,11.08,10.95,10.95
25.14,7.56,-3.39,7.46,-3.49,3.49,3.74,3.01,11.05,10.95,10.95
25.39,7.51,-3.44,7.49,-3.47,3.47,3.73,3.08,10.98,10.95,10.95
25.65,7.47,-3.48,7.50,-3.45,3.45,3.71,3.16,10.92,10.96,10.95
25.91,7.42,-3.54,7.51,-3.45,3.45,3.69,3.23,10.87,10.96,10.96
26.16,7.43,-3.54,7.52,-3.44,3.44,3.67,3.31,10.87,10.96,10.97
26.43,7.49,-3.48,7.52,-3.44,3.44,3.65,3.38,10.92,10.96,10.96
26.69,7.54,-3.42,7.53,-3.43,3.43,3.63,3.45,10.97,10.96,10.96
26.96,7.59,-3.37,7.53,-3.42,3.42,3.61,3.52,11.01,10.96,10.96
27.23,7.58,-3.38,7.54,-3.42,3.42,3.59,3.59,11.00,10.96,10.96
27.50,7.56,-3.40,7.55,-3.41,3.41,3.57,3.66,10.97,10.96,10.95
27.77,7.54,-3.42,7.56,-3.40,3.40,3.54,3.72,10.94,10.96,10.96
28.05,7.53,-3.43,7.58,-3.38,3.38,3.51,3.78,10.91,10.96,10.96
28.33,7.58,-3.37,7.61,-3.35,3.35,3.49,3.83,10.93,10.96,10.95
28.62,7.63,-3.32,7.64,-3.32,3.32,3.46,3.89,10.95,10.95,10.94
28.90,7.68,-3.27,7.67,-3.29,3.29,3.43,3.93,10.96,10.95,10.95
29.19,7.70,-3.25,7.69,-3.26,3.26,3.40,3.97,10.95,10.95,10.95
29.48,7.71,-3.24,7.72,-3.23,3.23,3.37,4.01,10.94,10.94,10.94
29.78,7.72,-3.22,7.74,-3.20,3.20,3.34,4.04,10.92,10.94,10.94
30.08,7.73,-3.22,7.76,-3.17,3.17,3.31,4.06,10.90,10.93,10.95
30.38,7.79,-3.15,7.79,-3.14,3.14,3.28,4.08,10.93,10.93,10.93
30.68,7.84,-3.08,7.81,-3.11,3.11,3.24,4.09,10.95,10.92,10.92
30.99,7.90,-3.02,7.83,-3.08,3.08,3.21,4.09,10.98,10.91,10.92
31.30,7.90,-3.00,7.85,-3.05,3.05,3.17,4.09,10.95,10.91,10.90
31.61,7.90,-3.00,7.87,-3.03,3.03,3.14,4.08,10.93,10.90,10.90
31.93,7.90,-2.98,7.88,-3.01,3.01,3.10,4.06,10.91,10.89,10.88
32.24,7.89,-2.99,7.90,-2.98,2.98,3.06,4.04,10.87,10.88,10.88
32.57,7.87,-2.99,7.91,-2.96,2.96,3.03,4.01,10.83,10.87,10.86
32.89,7.85,-3.01,7.92,-2.94,2.94,2.99,3.97,10.79,10.87,10.86
33.22,7.88,-2.97,7.93,-2.93,2.93,2.95,3.93,10.81,10.86,10.85
33.55,7.93,-2.92,7.94,-2.91,2.91,2.91,3.89,10.84,10.85,10.85
33.89,7.98,-2.87,7.95,-2.90,2.90,2.87,3.83,10.88,10.85,10.85
34.23,8.00,-2.84,7.96,-2.89,2.89,2.83,3.78,10.88,10.84,10.84
34.57,8.00,-2.83,7.97,-2.87,2.87,2.79,3.71,10.87,10.84,10.83
34.92,8.00,-2.83,7.98,-2.84,2.84,2.75,3.65,10.84,10.83,10.83
35.27,8.00,-2.83,8.00,-2.82,2.82,2.71,3.58,10.82,10.82,10.83
35.62,8.00,-2.81,8.02,-2.79,2.79,2.66,3.51,10.79,10.81,10.81
35.97,8.00,-2.81,8.03,-2.76,2.76,2.62,3.43,10.76,10.80,10.81
36.33,8.03,-2.76,8.05,-2.73,2.73,2.58,3.36,10.76,10.78,10.79
36.70,8.07,-2.70,8.06,-2.70,2.70,2.54,3.28,10.77,10.77,10.77
37.06,8.10,-2.65,8.08,-2.67,2.67,2.49,3.20,10.77,10.75,10.75
37.43,8.10,-2.63,8.09,-2.64,2.64,2.45,3.12,10.73,10.72,10.72
37.81,8.10,-2.61,8.10,-2.60,2.60,2.40,3.04,10.70,10.70,10.71
38.19,8.11,-2.57,8.11,-2.56,2.56,2.36,2.95,10.67,10.68,10.68
38.57,8.12,-2.53,8.12,-2.53,2.53,2.32,2.87,10.64,10.65,10.65
38.95,8.13,-2.49,8.14,-2.48,2.48,2.27,2.79,10.61,10.62,10.62
39.34,8.15,-2.43,8.15,-2.44,2.44,2.23,2.71,10.59,10.59,10.58
39.74,8.18,-2.38,8.16,-2.40,2.40,2.18,2.63,10.58,10.56,10.56
40.14,8.20,-2.33,8.17,-2.36,2.36,2.14,2.55,10.56,10.53,10.53
40.54,8.20,-2.30,8.19,-2.32,2.32,2.09,2.47,10.51,10.50,10.50
40.94,8.20,-2.27,8.20,-2.27,2.27,2.05,2.39,10.47,10.47,10.47
41.35,8.19,-2.26,8.21,-2.23,2.23,2.00,2.32,10.42,10.44,10.45
41.76,8.17,-2.23,8.23,-2.19,2.19,1.96,2.24,10.36,10.41,10.40
42.18,8.19,-2.19,8.24,-2.15,2.15,1.91,2.17,10.34,10.38,10.38
42.60,8.25,-2.11,8.25,-2.10,2.10,1.86,2.10,10.35,10.35,10.36
43.03,8.30,-2.02,8.26,-2.06,2.06,1.82,2.02,10.36,10.33,10.32
43.46,8.30,-1.99,8.27,-2.03,2.03,1.77,1.95,10.33,10.30,10.29
43.90,8.30,-1.97,8.28,-1.99,1.99,1.73,1.89,10.29,10.26,10.27
44.33,8.30,-1.93,8.28,-1.95,1.95,1.68,1.82,10.25,10.23,10.23
44.78,8.30,-1.90,8.29,-1.91,1.91,1.63,1.75,10.21,10.20,10.20
45.23,8.30,-1.88,8.30,-1.87,1.87,1.59,1.69,10.16,10.16,10.18
45.68,8.30,-1.83,8.30,-1.82,1.82,1.54,1.63,10.12,10.13,10.13
46.13,8.30,-1.79,8.31,-1.78,1.78,1.50,1.57,10.08,10.09,10.08
46.60,8.30,-1.75,8.31,-1.74,1.74,1.45,1.51,10.03,10.04,10.05
47.06,8.30,-1.71,8.31,-1.69,1.69,1.40,1.45,9.99,10.00,10.01
47.53,8.30,-1.67,8.30,-1.65,1.65,1.36,1.39,9.95,9.95,9.97
48.01,8.30,-1.61,8.30,-1.61,1.61,1.31,1.34,9.91,9.91,9.91
48.49,8.30,-1.56,8.29,-1.57,1.57,1.26,1.29,9.87,9.86,9.86
48.97,8.30,-1.51,8.29,-1.52,1.52,1.22,1.23,9.82,9.81,9.81
49.46,8.30,-1.47,8.29,-1.47,1.47,1.17,1.18,9.77,9.76,9.76
49.96,8.30,-1.39,8.30,-1.42,1.42,1.12,1.13,9.72,9.71,9.69
50.46,8.30,-1.35,8.30,-1.36,1.36,1.08,1.08,9.66,9.66,9.65
50.96,8.30,-1.30,8.31,-1.30,1.30,1.03,1.03,9.60,9.61,9.60
51.47,8.30,-1.26,8.31,-1.24,1.24,0.98,0.99,9.54,9.56,9.56
51.99,8.30,-1.20,8.32,-1.18,1.18,0.94,0.94,9.48,9.51,9.50
52.51,8.30,-1.16,8.33,-1.12,1.12,0.89,0.89,9.42,9.45,9.46
53.03,8.30,-1.12,8.34,-1.06,1.06,0.84,0.85,9.36,9.40,9.42
53.56,8.36,-1.00,8.36,-0.99,0.99,0.80,0.80,9.35,9.35,9.36
54.10,8.40,-0.90,8.37,-0.93,0.93,0.75,0.76,9.33,9.30,9.30
54.64,8.40,-0.85,8.38,-0.87,0.87,0.70,0.71,9.27,9.25,9.25
55.18,8.40,-0.79,8.38,-0.82,0.82,0.66,0.67,9.22,9.20,9.19
55.74,8.40,-0.74,8.39,-0.77,0.77,0.61,0.63,9.17,9.15,9.14
56.29,8.40,-0.69,8.39,-0.72,0.72,0.56,0.59,9.11,9.10,9.09
56.86,8.40,-0.65,8.39,-0.67,0.67,0.51,0.54,9.06,9.05,9.05
57.42,8.40,-0.58,8.38,-0.62,0.62,0.47,0.50,9.02,9.00,8.98
58.00,8.41,-0.54,8.38,-0.57,0.57,0.42,0.46,8.98,8.95,8.95
58.58,8.39,-0.52,8.37,-0.52,0.52,0.37,0.41,8.91,8.89,8.91
59.16,8.36,-0.50,8.36,-0.48,0.48,0.32,0.37,8.84,8.84,8.86
59.76,8.32,-0.49,8.34,-0.44,0.44,0.28,0.33,8.76,8.78,8.81
60.35,8.30,-0.44,8.33,-0.39,0.39,0.23,0.29,8.69,8.72,8.74
60.96,8.30,-0.38,8.32,-0.34,0.34,0.18,0.24,8.64,8.66,8.68
61.57,8.30,-0.30,8.32,-0.29,0.29,0.13,0.20,8.58,8.60,8.60
62.18,8.30,-0.23,8.31,-0.23,0.23,0.09,0.15,8.53,8.54,8.53
62.80,8.30,-0.15,8.30,-0.17,0.17,0.04,0.11,8.47,8.47,8.45
63.43,8.30,-0.09,8.30,-0.11,0.11,-0.01,0.06,8.41,8.40,8.39
64.07,8.30,-0.03,8.29,-0.04,0.04,-0.06,0.02,8.34,8.34,8.33
64.71,8.30,0.04,8.29,0.03,-0.03,-0.11,-0.03,8.27,8.27,8.26
65.35,8.30,0.10,8.29,0.10,-0.10,-0.16,-0.08,8.20,8.20,8.20
66.01,8.30,0.17,8.30,0.17,-0.17,-0.21,-0.12,8.13,8.13,8.12
66.67,8.30,0.23,8.30,0.24,-0.24,-0.26,-0.17,8.06,8.06,8.07
67.33,8.30,0.31,8.30,0.31,-0.31,-0.31,-0.22,7.99,7.99,7.99
68.01,8.30,0.38,8.30,0.38,-0.38,-0.36,-0.27,7.92,7.92,7.92
68.69,8.30,0.46,8.30,0.45,-0.45,-0.41,-0.32,7.85,7.85,7.84
69.37,8.30,0.51,8.30,0.52,-0.52,-0.46,-0.38,7.77,7.77,7.79
70.07,8.30,0.59,8.30,0.60,-0.60,-0.51,-0.43,7.70,7.70,7.71
70.77,8.30,0.66,8.30,0.67,-0.67,-0.56,-0.48,7.63,7.63,7.63
71.48,8.30,0.74,8.30,0.75,-0.75,-0.61,-0.54,7.55,7.55,7.56
72.19,8.30,0.82,8.31,0.83,-0.83,-0.66,-0.59,7.47,7.48,7.48
72.91,8.30,0.90,8.31,0.91,-0.91,-0.71,-0.65,7.39,7.41,7.40
73.64,8.30,0.97,8.31,0.98,-0.98,-0.76,-0.70,7.32,7.34,7.33
74.38,8.30,1.04,8.31,1.05,-1.05,-0.81,-0.76,7.25,7.26,7.26
75.12,8.30,1.12,8.30,1.11,-1.11,-0.87,-0.82,7.19,7.19,7.18
75.87,8.30,1.18,8.29,1.17,-1.17,-0.92,-0.88,7.13,7.12,7.12
76.63,8.30,1.25,8.28,1.22,-1.22,-0.97,-0.94,7.08,7.06,7.05
77.40,8.30,1.31,8.26,1.27,-1.27,-1.03,-1.01,7.03,6.99,6.99
78.17,8.30,1.39,8.24,1.32,-1.32,-1.08,-1.07,6.98,6.92,6.91
78.95,8.28,1.42,8.22,1.37,-1.37,-1.13,-1.13,6.91,6.85,6.86
79.74,8.22,1.43,8.20,1.42,-1.42,-1.19,-1.20,6.80,6.79,6.79
80.54,8.15,1.43,8.18,1.46,-1.46,-1.24,-1.27,6.69,6.72,6.72
81.35,8.10,1.44,8.16,1.51,-1.51,-1.30,-1.33,6.59,6.65,6.65
82.16,8.10,1.50,8.15,1.56,-1.56,-1.35,-1.40,6.54,6.59,6.59
82.98,8.10,1.58,8.13,1.61,-1.61,-1.41,-1.47,6.49,6.52,6.52
83.81,8.10,1.65,8.12,1.67,-1.67,-1.47,-1.54,6.43,6.45,6.45
84.65,8.10,1.72,8.11,1.73,-1.73,-1.52,-1.62,6.37,6.38,6.38
85.50,8.10,1.80,8.10,1.80,-1.80,-1.58,-1.69,6.30,6.31,6.30
86.35,8.10,1.87,8.10,1.86,-1.86,-1.64,-1.77,6.24,6.24,6.23
87.22,8.10,1.93,8.09,1.93,-1.93,-1.70,-1.85,6.17,6.16,6.16
88.09,8.10,2.01,8.09,2.00,-2.00,-1.76,-1.93,6.10,6.09,6.09
88.97,8.11,2.09,8.09,2.08,-2.08,-1.82,-2.01,6.03,6.01,6.02
89.86,8.11,2.18,8.09,2.16,-2.16,-1.88,-2.09,5.95,5.94,5.93
90.76,8.11,2.25,8.09,2.23,-2.23,-1.94,-2.17,5.88,5.86,5.86
91.66,8.11,2.34,8.09,2.31,-2.31,-2.00,-2.26,5.80,5.78,5.77
92.58,8.11,2.41,8.08,2.38,-2.38,-2.06,-2.34,5.72,5.70,5.70
93.51,8.06,2.44,8.07,2.46,-2.46,-2.12,-2.43,5.60,5.61,5.62
94.44,8.02,2.48,8.05,2.53,-2.53,-2.18,-2.52,5.49,5.53,5.54
95.39,8.01,2.56,8.04,2.60,-2.60,-2.25,-2.61,5.41,5.44,5.45
96.34,8.01,2.66,8.02,2.67,-2.67,-2.31,-2.70,5.34,5.35,5.35
97.30,8.00,2.74,8.00,2.75,-2.75,-2.37,-2.80,5.25,5.26,5.26
98.28,7.99,2.82,7.98,2.81,-2.81,-2.44,-2.89,5.18,5.16,5.16
99.26,7.98,2.92,7.95,2.88,-2.88,-2.50,-2.99,5.10,5.07,5.06
100.25,7.96,2.99,7.92,2.94,-2.94,-2.57,-3.08,5.02,4.98,4.97
101.25,7.90,3.02,7.89,3.00,-3.00,-2.64,-3.18,4.89,4.88,4.88
102.27,7.83,3.04,7.85,3.06,-3.06,-2.70,-3.27,4.76,4.79,4.79
103.29,7.82,3.13,7.82,3.12,-3.12,-2.77,-3.37,4.69,4.69,4.69
104.32,7.80,3.19,7.78,3.18,-3.18,-2.84,-3.47,4.61,4.60,4.61
105.37,7.77,3.26,7.75,3.24,-3.24,-2.91,-3.57,4.52,4.51,4.51
106.42,7.74,3.32,7.72,3.30,-3.30,-2.98,-3.66,4.44,4.41,4.41
107.48,7.66,3.35,7.68,3.36,-3.36,-3.05,-3.76,4.30,4.32,4.31
108.56,7.60,3.37,7.65,3.42,-3.42,-3.12,-3.85,4.18,4.23,4.23
109.64,7.58,3.44,7.62,3.48,-3.48,-3.19,-3.94,4.10,4.14,4.14
110.74,7.56,3.52,7.58,3.54,-3.54,-3.26,-4.03,4.02,4.05,4.04
111.85,7.54,3.58,7.55,3.59,-3.59,-3.33,-4.12,3.94,3.96,3.96
112.97,7.53,3.65,7.52,3.65,-3.65,-3.41,-4.21,3.87,3.87,3.87
114.10,7.53,3.74,7.50,3.71,-3.71,-3.48,-4.29,3.82,3.78,3.79
115.24,7.52,3.82,7.47,3.77,-3.77,-3.55,-4.37,3.75,3.70,3.70
116.39,7.50,3.90,7.45,3.83,-3.83,-3.63,-4.44,3.67,3.62,3.60
117.55,7.46,3.93,7.43,3.90,-3.90,-3.70,-4.51,3.56,3.54,3.53
118.73,7.40,3.96,7.42,3.97,-3.97,-3.78,-4.58,3.43,3.46,3.44
119.92,7.34,3.97,7.42,4.04,-4.04,-3.85,-4.64,3.30,3.38,3.37
121.12,7.35,4.04,7.41,4.11,-4.11,-3.93,-4.69,3.24,3.30,3.31
122.33,7.35,4.12,7.39,4.17,-4.17,-4.01,-4.74,3.18,3.22,3.23
123.55,7.36,4.20,7.38,4.23,-4.23,-4.08,-4.79,3.13,3.15,3.16
124.79,7.37,4.28,7.36,4.29,-4.29,-4.16,-4.83,3.08,3.07,3.09
126.03,7.38,4.37,7.34,4.34,-4.34,-4.24,-4.86,3.04,3.00,3.01
127.29,7.38,4.45,7.33,4.41,-4.41,-4.32,-4.89,2.97,2.93,2.93
128.57,7.39,4.53,7.33,4.47,-4.47,-4.39,-4.91,2.92,2.86,2.86
129.85,7.39,4.61,7.32,4.53,-4.53,-4.47,-4.93,2.86,2.78,2.78
131.15,7.31,4.60,7.31,4.60,-4.60,-4.55,-4.94,2.71,2.71,2.71
132.46,7.23,4.60,7.29,4.65,-4.65,-4.63,-4.95,2.58,2.64,2.63
133.79,7.21,4.65,7.27,4.71,-4.71,-4.71,-4.95,2.50,2.57,2.56
135.12,7.21,4.72,7.25,4.75,-4.75,-4.79,-4.95,2.46,2.49,2.49
136.48,7.22,4.79,7.22,4.80,-4.80,-4.86,-4.95,2.42,2.42,2.43
137.84,7.22,4.86,7.20,4.84,-4.84,-4.94,-4.94,2.38,2.35,2.36
139.22,7.22,4.95,7.17,4.89,-4.89,-5.02,-4.93,2.33,2.28,2.27
140.61,7.22,5.00,7.15,4.94,-4.94,-5.10,-4.92,2.28,2.21,2.22
142.02,7.12,4.98,7.12,4.98,-4.98,-5.17,-4.91,2.14,2.14,2.14
143.44,7.05,4.98,7.10,5.02,-5.02,-5.25,-4.89,2.03,2.08,2.07
144.87,7.02,5.01,7.07,5.06,-5.06,-5.33,-4.88,1.95,2.01,2.00
146.32,7.02,5.08,7.05,5.11,-5.11,-5.40,-4.86,1.91,1.94,1.94
147.78,7.02,5.15,7.03,5.16,-5.16,-5.48,-4.84,1.86,1.87,1.87
149.26,7.02,5.22,7.01,5.20,-5.20,-5.55,-4.83,1.82,1.80,1.80
150.75,7.02,5.29,6.98,5.24,-5.24,-5.62,-4.81,1.78,1.74,1.73
152.26,6.99,5.32,6.95,5.28,-5.28,-5.70,-4.80,1.71,1.67,1.67
153.78,6.93,5.33,6.92,5.32,-5.32,-5.77,-4.79,1.61,1.60,1.60
155.32,6.87,5.33,6.89,5.36,-5.36,-5.84,-4.78,1.51,1.53,1.54
156.88,6.82,5.35,6.86,5.40,-5.40,-5.91,-4.77,1.42,1.46,1.47
158.44,6.82,5.42,6.83,5.44,-5.44,-5.97,-4.77,1.38,1.39,1.40
160.03,6.82,5.49,6.81,5.48,-5.48,-6.04,-4.76,1.34,1.32,1.32
161.63,6.82,5.56,6.77,5.52,-5.52,-6.10,-4.76,1.30,1.25,1.26
163.24,6.76,5.58,6.73,5.55,-5.55,-6.16,-4.77,1.21,1.18,1.18
164.88,6.69,5.58,6.69,5.58,-5.58,-6.22,-4.77,1.11,1.11,1.11
166.53,6.63,5.59,6.66,5.62,-5.62,-6.28,-4.78,1.01,1.04,1.04
168.19,6.60,5.63,6.62,5.65,-5.65,-6.34,-4.80,0.95,0.97,0.97
169.87,6.60,5.70,6.58,5.68,-5.68,-6.39,-4.81,0.92,0.90,0.90
171.57,6.54,5.71,6.55,5.71,-5.71,-6.44,-4.83,0.82,0.83,0.83
173.29,6.49,5.73,6.51,5.74,-5.74,-6.49,-4.86,0.75,0.76,0.76
175.02,6.48,5.78,6.47,5.77,-5.77,-6.54,-4.88,0.71,0.70,0.70
176.77,6.47,5.83,6.43,5.80,-5.80,-6.58,-4.92,0.67,0.64,0.63
178.54,6.39,5.82,6.40,5.82,-5.82,-6.62,-4.95,0.56,0.57,0.57
180.32,6.38,5.88,6.37,5.86,-5.86,-6.66,-4.99,0.52,0.51,0.50
182.13,6.35,5.90,6.34,5.89,-5.89,-6.70,-5.03,0.46,0.45,0.45
183.95,6.29,5.89,6.32,5.93,-5.93,-6.73,-5.08,0.36,0.40,0.40
185.79,6.25,5.91,6.30,5.96,-5.96,-6.76,-5.13,0.29,0.34,0.34
187.65,6.22,5.93,6.27,5.99,-5.99,-6.79,-5.18,0.23,0.28,0.29
189.52,6.23,6.00,6.24,6.01,-6.01,-6.81,-5.24,0.22,0.23,0.23
191.42,6.24,6.05,6.22,6.04,-6.04,-6.83,-5.30,0.20,0.18,0.19
193.33,6.24,6.11,6.19,6.07,-6.07,-6.84,-5.36,0.17,0.13,0.13
195.27,6.20,6.12,6.16,6.09,-6.09,-6.86,-5.43,0.11,0.08,0.08
197.22,6.17,6.15,6.14,6.11,-6.11,-6.87,-5.50,0.06,0.03,0.02
199.19,6.12,6.14,6.11,6.13,-6.13,-6.87,-5.57,-0.01,-0.02,-0.02
201.18,6.10,6.17,6.08,6.15,-6.15,-6.88,-5.65,-0.05,-0.07,-0.08
203.19,6.05,6.17,6.05,6.16,-6.16,-6.88,-5.73,-0.11,-0.11,-0.12
205.23,5.99,6.15,6.01,6.17,-6.17,-6.87,-5.80,-0.19,-0.16,-0.16
207.28,5.93,6.13,5.97,6.18,-6.18,-6.87,-5.88,-0.25,-0.21,-0.20
209.35,5.91,6.16,5.93,6.18,-6.18,-6.86,-5.96,-0.28,-0.25,-0.25
211.44,5.91,6.20,5.89,6.19,-6.19,-6.84,-6.04,-0.28,-0.30,-0.29
213.56,5.86,6.19,5.85,6.19,-6.19,-6.83,-6.13,-0.33,-0.34,-0.33
215.69,5.81,6.19,5.81,6.19,-6.19,-6.81,-6.20,-0.38,-0.38,-0.38
217.85,5.80,6.21,5.76,6.18,-6.18,-6.78,-6.28,-0.38,-0.42,-0.41
220.03,5.73,6.20,5.72,6.18,-6.18,-6.76,-6.36,-0.45,-0.46,-0.47
222.23,5.66,6.16,5.68,6.17,-6.17,-6.73,-6.43,-0.51,-0.49,-0.50
224.45,5.60,6.13,5.63,6.16,-6.16,-6.70,-6.50,-0.56,-0.53,-0.53
226.70,5.59,6.16,5.60,6.15,-6.15,-6.67,-6.57,-0.57,-0.56,-0.57
228.96,5.59,6.18,5.56,6.14,-6.14,-6.63,-6.63,-0.55,-0.59,-0.59
231.25,5.54,6.15,5.52,6.13,-6.13,-6.59,-6.69,-0.59,-0.61,-0.61
233.57,5.50,6.14,5.48,6.11,-6.11,-6.55,-6.73,-0.61,-0.63,-0.64
235.90,5.39,6.05,5.44,6.09,-6.09,-6.51,-6.78,-0.70,-0.65,-0.66
238.26,5.35,6.03,5.41,6.08,-6.08,-6.47,-6.81,-0.73,-0.67,-0.68
240.64,5.35,6.02,5.37,6.06,-6.06,-6.42,-6.84,-0.71,-0.68,-0.68
243.05,5.36,6.05,5.34,6.03,-6.03,-6.37,-6.85,-0.68,-0.69,-0.69
245.48,5.32,6.03,5.30,6.01,-6.01,-6.32,-6.86,-0.69,-0.71,-0.71
247.93,5.30,6.02,5.27,5.98,-5.98,-6.27,-6.86,-0.69,-0.72,-0.73
250.41,5.24,5.96,5.23,5.96,-5.96,-6.22,-6.85,-0.72,-0.73,-0.72
252.92,5.19,5.92,5.19,5.93,-5.93,-6.16,-6.83,-0.74,-0.74,-0.73
255.45,5.17,5.92,5.15,5.90,-5.90,-6.11,-6.80,-0.73,-0.75,-0.75
258.00,5.14,5.89,5.12,5.88,-5.88,-6.05,-6.76,-0.74,-0.77,-0.76
260.58,5.08,5.85,5.08,5.86,-5.86,-5.99,-6.71,-0.78,-0.78,-0.77
263.19,5.03,5.81,5.04,5.83,-5.83,-5.93,-6.66,-0.80,-0.79,-0.78
265.82,4.97,5.77,4.99,5.80,-5.80,-5.87,-6.59,-0.83,-0.81,-0.81
268.48,4.89,5.71,4.94,5.76,-5.76,-5.81,-6.52,-0.87,-0.82,-0.82
271.16,4.87,5.71,4.89,5.73,-5.73,-5.75,-6.44,-0.86,-0.84,-0.84
273.87,4.86,5.71,4.84,5.69,-5.69,-5.69,-6.35,-0.83,-0.85,-0.85
276.61,4.83,5.70,4.79,5.66,-5.66,-5.63,-6.26,-0.83,-0.87,-0.87
279.38,4.77,5.67,4.74,5.62,-5.62,-5.57,-6.16,-0.85,-0.88,-0.90
282.17,4.70,5.60,4.69,5.58,-5.58,-5.51,-6.06,-0.88,-0.89,-0.90
284.99,4.65,5.56,4.64,5.54,-5.54,-5.44,-5.95,-0.89,-0.90,-0.91
287.84,4.54,5.45,4.59,5.50,-5.50,-5.38,-5.85,-0.96,-0.91,-0.91
290.72,4.49,5.42,4.54,5.46,-5.46,-5.32,-5.74,-0.97,-0.92,-0.93
293.63,4.50,5.43,4.48,5.41,-5.41,-5.25,-5.63,-0.91,-0.93,-0.93
296.57,4.47,5.40,4.43,5.36,-5.36,-5.19,-5.51,-0.89,-0.93,-0.93
299.53,4.35,5.29,4.38,5.32,-5.32,-5.13,-5.40,-0.97,-0.94,-0.94
302.53,4.33,5.26,4.33,5.27,-5.27,-5.06,-5.29,-0.94,-0.94,-0.93
305.55,4.31,5.25,4.27,5.22,-5.22,-5.00,-5.17,-0.91,-0.95,-0.94
308.61,4.20,5.14,4.22,5.17,-5.17,-4.94,-5.06,-0.97,-0.95,-0.94
311.69,4.16,5.11,4.17,5.12,-5.12,-4.87,-4.95,-0.96,-0.95,-0.96
314.81,4.13,5.08,4.12,5.08,-5.08,-4.81,-4.84,-0.95,-0.96,-0.95
317.96,4.03,5.00,4.07,5.03,-5.03,-4.75,-4.73,-1.00,-0.96,-0.97
321.14,3.97,4.93,4.01,4.98,-4.98,-4.69,-4.62,-1.01,-0.97,-0.97
324.35,3.96,4.93,3.95,4.92,-4.92,-4.63,-4.52,-0.96,-0.97,-0.97
327.59,3.96,4.93,3.89,4.87,-4.87,-4.56,-4.42,-0.91,-0.97,-0.97
330.87,3.87,4.84,3.83,4.81,-4.81,-4.50,-4.32,-0.94,-0.98,-0.97
334.18,3.78,4.77,3.77,4.75,-4.75,-4.44,-4.22,-0.97,-0.98,-0.99
337.52,3.68,4.66,3.71,4.69,-4.69,-4.38,-4.13,-1.01,-0.98,-0.98
340.90,3.66,4.65,3.64,4.63,-4.63,-4.32,-4.04,-0.97,-0.98,-0.99
344.30,3.61,4.59,3.58,4.57,-4.57,-4.26,-3.95,-0.96,-0.98,-0.98
347.75,3.50,4.48,3.52,4.50,-4.50,-4.20,-3.87,-1.00,-0.98,-0.98
351.23,3.44,4.43,3.46,4.43,-4.43,-4.14,-3.78,-1.00,-0.98,-0.99
354.74,3.38,4.36,3.39,4.37,-4.37,-4.08,-3.70,-0.99,-0.98,-0.98
358.28,3.31,4.29,3.33,4.30,-4.30,-4.02,-3.63,-0.99,-0.97,-0.98
361.87,3.26,4.23,3.26,4.24,-4.24,-3.97,-3.55,-0.98,-0.97,-0.97
365.49,3.19,4.16,3.20,4.17,-4.17,-3.91,-3.48,-0.98,-0.97,-0.97
369.14,3.14,4.10,3.15,4.11,-4.11,-3.85,-3.41,-0.97,-0.97,-0.96
372.83,3.09,4.04,3.09,4.06,-4.06,-3.79,-3.35,-0.97,-0.96,-0.96
376.56,3.03,3.99,3.03,3.99,-3.99,-3.74,-3.28,-0.96,-0.96,-0.96
380.33,2.98,3.94,2.97,3.93,-3.93,-3.68,-3.22,-0.95,-0.96,-0.96
384.13,2.92,3.87,2.91,3.87,-3.87,-3.62,-3.16,-0.95,-0.96,-0.95
387.97,2.85,3.81,2.85,3.82,-3.82,-3.57,-3.11,-0.97,-0.97,-0.96
391.85,2.80,3.76,2.79,3.76,-3.76,-3.51,-3.05,-0.96,-0.97,-0.96
395.77,2.73,3.70,2.72,3.70,-3.70,-3.45,-3.00,-0.97,-0.98,-0.97
399.73,2.66,3.64,2.65,3.63,-3.63,-3.40,-2.95,-0.97,-0.98,-0.98
403.72,2.58,3.55,2.56,3.55,-3.55,-3.34,-2.91,-0.97,-0.99,-0.97
407.76,2.52,3.51,2.47,3.46,-3.46,-3.29,-2.86,-0.94,-0.99,-0.99
411.84,2.39,3.38,2.37,3.36,-3.36,-3.23,-2.82,-0.97,-1.00,-0.99
415.96,2.31,3.31,2.27,3.27,-3.27,-3.18,-2.77,-0.96,-1.00,-1.00
420.12,2.28,3.29,2.19,3.18,-3.18,-3.12,-2.73,-0.91,-0.99,-1.01
424.32,2.15,3.15,2.12,3.11,-3.11,-3.06,-2.69,-0.96,-0.99,-1.00
428.56,2.09,3.07,2.07,3.04,-3.04,-3.01,-2.65,-0.95,-0.97,-0.98
432.85,1.99,2.95,2.02,2.98,-2.98,-2.95,-2.62,-0.99,-0.96,-0.96
437.18,1.86,2.82,1.99,2.92,-2.92,-2.90,-2.58,-1.07,-0.93,-0.96
441.55,1.78,2.70,1.98,2.88,-2.88,-2.84,-2.54,-1.10,-0.90,-0.92
445.96,1.74,2.62,1.97,2.84,-2.84,-2.79,-2.50,-1.10,-0.86,-0.88
450.42,1.78,2.62,1.97,2.79,-2.79,-2.73,-2.47,-1.01,-0.82,-0.84
454.93,2.00,2.79,1.98,2.76,-2.76,-2.67,-2.43,-0.76,-0.78,-0.79
459.48,2.11,2.84,2.00,2.73,-2.73,-2.62,-2.39,-0.62,-0.73,-0.73
464.07,2.17,2.84,2.02,2.69,-2.69,-2.56,-2.36,-0.53,-0.67,-0.67
468.71,2.19,2.81,2.04,2.66,-2.66,-2.50,-2.32,-0.47,-0.62,-0.62
473.40,2.18,2.74,2.06,2.62,-2.62,-2.44,-2.28,-0.44,-0.57,-0.56
478.13,2.12,2.62,2.07,2.58,-2.58,-2.38,-2.24,-0.47,-0.51,-0.50
482.91,2.09,2.54,2.07,2.54,-2.54,-2.32,-2.20,-0.45,-0.46,-0.45
487.74,2.06,2.47,2.06,2.48,-2.48,-2.26,-2.16,-0.42,-0.42,-0.41
492.62,1.99,2.36,2.03,2.41,-2.41,-2.20,-2.11,-0.42,-0.38,-0.37
497.55,1.96,2.29,1.98,2.32,-2.32,-2.14,-2.07,-0.37,-0.35,-0.33
502.52,1.95,2.26,1.91,2.23,-2.23,-2.08,-2.02,-0.28,-0.32,-0.32
507.55,1.84,2.13,1.83,2.13,-2.13,-2.02,-1.98,-0.29,-0.30,-0.29
