frequency,raw,error,smoothed,error_smoothed,equalization,parametric_eq,fixed_band_eq,equalized_raw,equalized_smoothed,target
20.00,0.87,-1.62,1.04,-1.48,1.48,1.88,-0.15,2.36,2.52,2.49
20.20,0.99,-1.55,1.10,-1.46,1.46,1.89,-0.16,2.45,2.56,2.54
20.40,1.13,-1.47,1.17,-1.43,1.43,1.90,-0.16,2.56,2.60,2.59
20.61,1.24,-1.38,1.23,-1.40,1.40,1.90,-0.17,2.65,2.63,2.62
20.81,1.38,-1.30,1.28,-1.38,1.38,1.90,-0.17,2.75,2.66,2.67
21.02,1.48,-1.23,1.34,-1.35,1.35,1.89,-0.17,2.83,2.69,2.71
21.23,1.53,-1.20,1.40,-1.32,1.32,1.88,-0.18,2.85,2.71,2.73
21.44,1.58,-1.18,1.45,-1.29,1.29,1.86,-0.18,2.86,2.74,2.75
21.66,1.61,-1.16,1.50,-1.26,1.26,1.84,-0.19,2.87,2.76,2.77
21.87,1.66,-1.12,1.55,-1.22,1.22,1.81,-0.19,2.89,2.78,2.78
22.09,1.67,-1.13,1.60,-1.19,1.19,1.77,-0.20,2.86,2.79,2.80
22.31,1.64,-1.17,1.65,-1.16,1.16,1.74,-0.20,2.80,2.80,2.81
22.54,1.62,-1.20,1.67,-1.14,1.14,1.70,-0.21,2.75,2.81,2.81
22.76,1.59,-1.22,1.70,-1.12,1.12,1.65,-0.21,2.71,2.81,2.81
22.99,1.56,-1.24,1.72,-1.10,1.10,1.60,-0.22,2.66,2.82,2.80
23.22,1.65,-1.15,1.75,-1.07,1.07,1.56,-0.22,2.73,2.82,2.80
23.45,1.76,-1.05,1.79,-1.03,1.03,1.50,-0.23,2.78,2.82,2.80
23.69,1.85,-0.96,1.86,-0.96,0.96,1.45,-0.23,2.82,2.82,2.81
23.92,1.96,-0.86,1.93,-0.88,0.88,1.40,-0.24,2.84,2.82,2.81
24.16,2.02,-0.80,2.02,-0.80,0.80,1.35,-0.24,2.82,2.82,2.81
24.40,2.07,-0.76,2.09,-0.73,0.73,1.29,-0.25,2.80,2.82,2.82
24.65,2.11,-0.70,2.14,-0.67,0.67,1.24,-0.25,2.79,2.82,2.81
24.89,2.17,-0.65,2.19,-0.63,0.63,1.19,-0.26,2.79,2.82,2.81
25.14,2.26,-0.56,2.23,-0.59,0.59,1.14,-0.26,2.85,2.82,2.81
25.39,2.38,-0.45,2.28,-0.54,0.54,1.08,-0.27,2.92,2.82,2.82
25.65,2.49,-0.33,2.33,-0.49,0.49,1.04,-0.27,2.98,2.82,2.82
25.91,2.61,-0.20,2.38,-0.44,0.44,0.99,-0.27,3.05,2.82,2.81
26.16,2.55,-0.26,2.42,-0.40,0.40,0.94,-0.28,2.95,2.82,2.81
26.43,2.41,-0.41,2.44,-0.38,0.38,0.89,-0.28,2.78,2.81,2.81
26.69,2.25,-0.56,2.45,-0.36,0.36,0.85,-0.28,2.62,2.81,2.81
26.96,2.11,-0.71,2.46,-0.35,0.35,0.81,-0.29,2.46,2.81,2.81
27.23,2.26,-0.55,2.48,-0.33,0.33,0.77,-0.29,2.59,2.81,2.81
27.50,2.48,-0.33,2.51,-0.30,0.30,0.73,-0.29,2.78,2.81,2.81
27.77,2.71,-0.10,2.54,-0.27,0.27,0.69,-0.29,2.97,2.81,2.80
28.05,2.86,0.06,2.57,-0.23,0.23,0.65,-0.29,3.10,2.81,2.80
28.33,2.73,-0.06,2.61,-0.20,0.20,0.62,-0.29,2.93,2.80,2.79
28.62,2.61,-0.19,2.65,-0.15,0.15,0.58,-0.28,2.76,2.80,2.79
28.90,2.47,-0.34,2.69,-0.11,0.11,0.55,-0.28,2.57,2.80,2.80
29.19,2.55,-0.25,2.74,-0.06,0.06,0.52,-0.28,2.60,2.80,2.79
29.48,2.74,-0.07,2.79,-0.01,0.01,0.49,-0.27,2.75,2.80,2.80
29.78,2.91,0.12,2.82,0.02,-0.02,0.46,-0.26,2.89,2.80,2.79
30.08,3.04,0.24,2.85,0.05,-0.05,0.44,-0.26,2.99,2.80,2.80
30.38,3.00,0.20,2.85,0.06,-0.06,0.41,-0.25,2.94,2.79,2.79
30.68,2.94,0.15,2.86,0.07,-0.07,0.39,-0.24,2.88,2.79,2.79
30.99,2.90,0.10,2.88,0.09,-0.09,0.36,-0.23,2.81,2.79,2.79
31.30,2.87,0.08,2.91,0.12,-0.12,0.34,-0.21,2.74,2.79,2.78
31.61,2.83,0.05,2.95,0.16,-0.16,0.32,-0.20,2.67,2.79,2.78
31.93,2.81,0.02,2.97,0.19,-0.19,0.30,-0.18,2.62,2.78,2.78
32.24,2.87,0.09,2.98,0.20,-0.20,0.28,-0.17,2.66,2.78,2.77
32.57,2.96,0.19,2.98,0.20,-0.20,0.26,-0.15,2.76,2.77,2.77
32.89,3.05,0.28,2.97,0.20,-0.20,0.25,-0.13,2.85,2.77,2.77
33.22,3.08,0.32,2.98,0.21,-0.21,0.23,-0.11,2.87,2.77,2.76
33.55,3.09,0.33,2.99,0.23,-0.23,0.21,-0.09,2.86,2.76,2.76
33.89,3.09,0.34,3.03,0.27,-0.27,0.20,-0.07,2.82,2.76,2.75
34.23,3.05,0.30,3.05,0.30,-0.30,0.19,-0.04,2.75,2.75,2.75
34.57,3.00,0.26,3.06,0.32,-0.32,0.17,-0.02,2.69,2.75,2.74
34.92,2.95,0.20,3.07,0.32,-0.32,0.16,0.01,2.62,2.74,2.74
35.27,3.00,0.27,3.08,0.34,-0.34,0.15,0.03,2.67,2.74,2.73
35.62,3.09,0.36,3.10,0.36,-0.36,0.14,0.06,2.73,2.74,2.73
35.97,3.18,0.45,3.12,0.38,-0.38,0.13,0.09,2.80,2.73,2.73
36.33,3.19,0.46,3.13,0.40,-0.40,0.12,0.12,2.80,2.73,2.73
36.70,3.19,0.47,3.15,0.42,-0.42,0.11,0.15,2.78,2.73,2.72
37.06,3.18,0.46,3.17,0.44,-0.44,0.10,0.18,2.75,2.73,2.72
37.43,3.10,0.37,3.19,0.46,-0.46,0.09,0.21,2.64,2.73,2.73
37.81,3.03,0.30,3.21,0.48,-0.48,0.09,0.24,2.56,2.73,2.73
38.19,3.09,0.37,3.22,0.49,-0.49,0.08,0.27,2.60,2.73,2.72
38.57,3.30,0.57,3.23,0.50,-0.50,0.07,0.31,2.81,2.73,2.73
38.95,3.51,0.77,3.25,0.51,-0.51,0.07,0.34,3.00,2.73,2.74
39.34,3.41,0.68,3.26,0.52,-0.52,0.07,0.38,2.89,2.73,2.73
39.74,3.29,0.55,3.26,0.53,-0.53,0.06,0.41,2.76,2.73,2.73
40.14,3.20,0.46,3.26,0.53,-0.53,0.06,0.45,2.67,2.73,2.73
40.54,3.19,0.46,3.27,0.53,-0.53,0.06,0.48,2.66,2.73,2.73
40.94,3.19,0.47,3.27,0.54,-0.54,0.06,0.52,2.66,2.73,2.72
41.35,3.19,0.47,3.27,0.55,-0.55,0.05,0.56,2.65,2.72,2.72
41.76,3.20,0.48,3.27,0.56,-0.56,0.05,0.59,2.64,2.71,2.71
42.18,3.24,0.52,3.27,0.56,-0.56,0.05,0.63,2.67,2.71,2.71
42.60,3.32,0.61,3.25,0.56,-0.56,0.06,0.67,2.76,2.70,2.70
43.03,3.38,0.69,3.23,0.54,-0.54,0.06,0.71,2.84,2.69,2.69
43.46,3.25,0.57,3.21,0.54,-0.54,0.06,0.75,2.72,2.67,2.68
43.90,3.13,0.46,3.20,0.54,-0.54,0.06,0.79,2.58,2.66,2.66
44.33,3.13,0.48,3.19,0.54,-0.54,0.07,0.83,2.59,2.65,2.64
44.78,3.16,0.54,3.17,0.53,-0.53,0.07,0.88,2.64,2.64,2.62
45.23,3.18,0.57,3.14,0.51,-0.51,0.08,0.92,2.67,2.62,2.61
45.68,3.17,0.57,3.10,0.49,-0.49,0.09,0.96,2.68,2.61,2.60
46.13,3.13,0.55,3.06,0.47,-0.47,0.09,1.01,2.67,2.60,2.58
46.60,3.01,0.42,3.01,0.43,-0.43,0.10,1.05,2.57,2.58,2.58
47.06,2.88,0.32,2.96,0.40,-0.40,0.11,1.10,2.49,2.57,2.56
47.53,2.84,0.29,2.91,0.36,-0.36,0.12,1.14,2.49,2.55,2.55
48.01,2.81,0.26,2.86,0.32,-0.32,0.13,1.19,2.50,2.54,2.55
48.49,2.77,0.24,2.80,0.28,-0.28,0.15,1.23,2.50,2.52,2.53
48.97,2.72,0.21,2.74,0.23,-0.23,0.16,1.28,2.49,2.51,2.51
49.46,2.70,0.21,2.67,0.17,-0.17,0.18,1.33,2.53,2.50,2.49
49.96,2.67,0.20,2.59,0.11,-0.11,0.19,1.37,2.56,2.48,2.47
50.46,2.55,0.08,2.52,0.05,-0.05,0.21,1.42,2.50,2.47,2.46
50.96,2.40,-0.05,2.44,-0.02,0.02,0.23,1.47,2.42,2.46,2.45
51.47,2.34,-0.09,2.35,-0.09,0.09,0.25,1.52,2.44,2.44,2.43
51.99,2.29,-0.14,2.26,-0.17,0.17,0.27,1.56,2.46,2.43,2.42
52.51,2.15,-0.27,2.15,-0.27,0.27,0.29,1.61,2.41,2.42,2.41
53.03,2.00,-0.41,2.03,-0.37,0.37,0.32,1.66,2.38,2.41,2.41
53.56,1.92,-0.47,1.90,-0.49,0.49,0.34,1.70,2.41,2.39,2.39
54.10,1.84,-0.55,1.77,-0.62,0.62,0.37,1.75,2.45,2.38,2.38
54.64,1.69,-0.68,1.63,-0.75,0.75,0.40,1.79,2.43,2.37,2.36
55.18,1.52,-0.84,1.48,-0.88,0.88,0.43,1.84,2.40,2.36,2.36
55.74,1.36,-0.99,1.35,-1.00,1.00,0.46,1.88,2.36,2.35,2.34
56.29,1.18,-1.15,1.21,-1.13,1.13,0.50,1.92,2.31,2.34,2.33
56.86,1.02,-1.31,1.08,-1.25,1.25,0.54,1.95,2.26,2.32,2.32
57.42,0.88,-1.41,0.94,-1.36,1.36,0.57,1.99,2.25,2.31,2.29
58.00,0.75,-1.53,0.81,-1.48,1.48,0.62,2.03,2.23,2.29,2.28
58.58,0.64,-1.63,0.69,-1.58,1.58,0.66,2.06,2.22,2.26,2.27
59.16,0.53,-1.72,0.56,-1.68,1.68,0.70,2.09,2.21,2.24,2.25
59.76,0.44,-1.80,0.43,-1.78,1.78,0.75,2.11,2.22,2.21,2.23
60.35,0.35,-1.84,0.30,-1.88,1.88,0.80,2.14,2.24,2.18,2.19
60.96,0.28,-1.87,0.19,-1.96,1.96,0.86,2.16,2.24,2.15,2.15
61.57,0.16,-1.96,0.09,-2.03,2.03,0.91,2.18,2.18,2.11,2.11
62.18,0.04,-2.03,-0.00,-2.08,2.08,0.97,2.19,2.12,2.07,2.07
62.80,-0.03,-2.05,-0.08,-2.11,2.11,1.03,2.20,2.09,2.03,2.02
63.43,-0.15,-2.13,-0.14,-2.13,2.13,1.10,2.21,1.99,1.99,1.98
64.07,-0.28,-2.22,-0.19,-2.13,2.13,1.17,2.22,1.85,1.95,1.93
64.71,-0.34,-2.23,-0.21,-2.11,2.11,1.24,2.23,1.78,1.90,1.89
65.35,-0.41,-2.26,-0.23,-2.08,2.08,1.32,2.23,1.68,1.85,1.85
66.01,-0.49,-2.29,-0.23,-2.04,2.04,1.40,2.23,1.55,1.81,1.80
66.67,-0.30,-2.05,-0.23,-1.99,1.99,1.48,2.22,1.69,1.76,1.75
67.33,-0.22,-1.92,-0.23,-1.94,1.94,1.57,2.22,1.72,1.71,1.70
68.01,-0.24,-1.90,-0.23,-1.89,1.89,1.66,2.21,1.65,1.66,1.66
68.69,-0.14,-1.75,-0.22,-1.84,1.84,1.75,2.20,1.70,1.61,1.61
69.37,-0.10,-1.66,-0.23,-1.79,1.79,1.85,2.19,1.69,1.56,1.56
70.07,-0.10,-1.61,-0.24,-1.75,1.75,1.95,2.17,1.66,1.51,1.51
70.77,-0.12,-1.58,-0.27,-1.73,1.73,2.06,2.16,1.61,1.45,1.46
71.48,-0.21,-1.63,-0.31,-1.71,1.71,2.18,2.15,1.50,1.40,1.41
72.19,-0.36,-1.70,-0.38,-1.73,1.73,2.29,2.13,1.37,1.34,1.34
72.91,-0.52,-1.80,-0.48,-1.77,1.77,2.41,2.11,1.25,1.29,1.28
73.64,-0.68,-1.91,-0.61,-1.84,1.84,2.54,2.10,1.17,1.23,1.23
74.38,-0.84,-2.01,-0.78,-1.95,1.95,2.67,2.08,1.12,1.18,1.17
75.12,-1.00,-2.11,-0.95,-2.07,2.07,2.81,2.07,1.08,1.12,1.11
75.87,-1.11,-2.16,-1.15,-2.21,2.21,2.95,2.05,1.11,1.06,1.05
76.63,-1.34,-2.34,-1.37,-2.38,2.38,3.09,2.03,1.04,1.01,1.00
77.40,-1.57,-2.52,-1.59,-2.55,2.55,3.24,2.02,0.98,0.96,0.95
78.17,-1.78,-2.67,-1.83,-2.74,2.74,3.40,2.01,0.96,0.90,0.89
78.95,-1.99,-2.84,-2.09,-2.94,2.94,3.55,1.99,0.95,0.85,0.85
79.74,-2.37,-3.17,-2.34,-3.14,3.14,3.71,1.98,0.77,0.80,0.80
80.54,-2.67,-3.42,-2.60,-3.36,3.36,3.88,1.97,0.69,0.75,0.75
81.35,-2.92,-3.63,-2.88,-3.59,3.59,4.04,1.96,0.67,0.71,0.70
82.16,-3.18,-3.83,-3.17,-3.82,3.82,4.21,1.95,0.65,0.66,0.65
82.98,-3.39,-4.00,-3.45,-4.06,4.06,4.38,1.95,0.67,0.61,0.61
83.81,-3.72,-4.28,-3.73,-4.29,4.29,4.54,1.94,0.58,0.56,0.56
84.65,-3.99,-4.50,-4.01,-4.53,4.53,4.71,1.94,0.54,0.52,0.51
85.50,-4.28,-4.76,-4.29,-4.75,4.75,4.87,1.94,0.47,0.47,0.47
86.35,-4.58,-5.00,-4.56,-4.97,4.97,5.02,1.93,0.40,0.42,0.42
87.22,-4.79,-5.17,-4.82,-5.19,5.19,5.17,1.94,0.39,0.37,0.37
88.09,-5.00,-5.33,-5.06,-5.37,5.37,5.31,1.94,0.37,0.32,0.32
88.97,-5.39,-5.66,-5.26,-5.53,5.53,5.44,1.94,0.14,0.27,0.26
89.86,-5.44,-5.65,-5.46,-5.67,5.67,5.55,1.95,0.24,0.22,0.21
90.76,-5.55,-5.72,-5.62,-5.79,5.79,5.65,1.96,0.23,0.17,0.16
91.66,-5.77,-5.88,-5.75,-5.87,5.87,5.74,1.97,0.10,0.11,0.11
92.58,-5.96,-6.01,-5.86,-5.92,5.92,5.80,1.98,-0.03,0.06,0.05
93.51,-6.06,-6.07,-5.93,-5.94,5.94,5.84,1.99,-0.12,0.01,0.00
94.44,-6.13,-6.09,-5.97,-5.93,5.93,5.86,2.00,-0.20,-0.04,-0.04
95.39,-6.11,-6.02,-5.98,-5.89,5.89,5.85,2.02,-0.22,-0.09,-0.09
96.34,-5.98,-5.84,-5.96,-5.83,5.83,5.82,2.03,-0.15,-0.14,-0.14
97.30,-5.87,-5.68,-5.93,-5.74,5.74,5.77,2.05,-0.12,-0.18,-0.19
98.28,-5.82,-5.58,-5.87,-5.64,5.64,5.69,2.07,-0.18,-0.23,-0.24
99.26,-5.73,-5.45,-5.79,-5.51,5.51,5.59,2.09,-0.21,-0.28,-0.28
100.25,-5.64,-5.31,-5.70,-5.38,5.38,5.47,2.11,-0.26,-0.33,-0.33
101.25,-5.54,-5.17,-5.60,-5.22,5.22,5.33,2.13,-0.33,-0.38,-0.38
102.27,-5.47,-5.04,-5.47,-5.05,5.05,5.17,2.15,-0.42,-0.42,-0.43
103.29,-5.34,-4.86,-5.34,-4.87,4.87,5.00,2.17,-0.46,-0.47,-0.48
104.32,-5.23,-4.71,-5.23,-4.70,4.70,4.81,2.19,-0.52,-0.52,-0.52
105.37,-5.14,-4.57,-5.11,-4.54,4.54,4.61,2.21,-0.60,-0.57,-0.57
106.42,-5.02,-4.40,-5.01,-4.38,4.38,4.40,2.23,-0.63,-0.62,-0.62
107.48,-4.88,-4.21,-4.90,-4.22,4.22,4.19,2.25,-0.66,-0.68,-0.68
108.56,-4.74,-4.01,-4.78,-4.06,4.06,3.97,2.26,-0.68,-0.73,-0.73
109.64,-4.59,-3.82,-4.66,-3.88,3.88,3.75,2.28,-0.71,-0.78,-0.78
110.74,-4.48,-3.64,-4.54,-3.70,3.70,3.53,2.29,-0.77,-0.83,-0.84
111.85,-4.40,-3.52,-4.41,-3.52,3.52,3.30,2.30,-0.87,-0.88,-0.88
112.97,-4.28,-3.34,-4.27,-3.34,3.34,3.08,2.31,-0.94,-0.93,-0.94
114.10,-4.20,-3.21,-4.13,-3.15,3.15,2.86,2.31,-1.05,-0.98,-0.99
115.24,-4.11,-3.07,-3.99,-2.96,2.96,2.64,2.31,-1.15,-1.03,-1.04
116.39,-3.91,-2.82,-3.84,-2.76,2.76,2.42,2.31,-1.14,-1.07,-1.09
117.55,-3.70,-2.58,-3.68,-2.56,2.56,2.21,2.30,-1.14,-1.12,-1.13
118.73,-3.48,-2.31,-3.52,-2.36,2.36,2.00,2.29,-1.11,-1.16,-1.17
119.92,-3.32,-2.12,-3.35,-2.16,2.16,1.80,2.27,-1.16,-1.19,-1.20
121.12,-3.18,-1.94,-3.18,-1.95,1.95,1.60,2.25,-1.23,-1.23,-1.24
122.33,-3.01,-1.74,-3.00,-1.74,1.74,1.40,2.23,-1.27,-1.27,-1.27
123.55,-2.83,-1.53,-2.82,-1.52,1.52,1.21,2.19,-1.30,-1.30,-1.30
124.79,-2.59,-1.26,-2.63,-1.31,1.31,1.03,2.16,-1.28,-1.33,-1.33
126.03,-2.42,-1.07,-2.45,-1.09,1.09,0.85,2.11,-1.34,-1.36,-1.36
127.29,-2.27,-0.90,-2.26,-0.87,0.87,0.67,2.07,-1.41,-1.39,-1.38
128.57,-2.09,-0.67,-2.07,-0.66,0.66,0.50,2.01,-1.43,-1.42,-1.42
129.85,-1.92,-0.47,-1.89,-0.45,0.45,0.33,1.95,-1.47,-1.45,-1.45
131.15,-1.77,-0.29,-1.72,-0.25,0.25,0.17,1.89,-1.52,-1.47,-1.48
132.46,-1.56,-0.05,-1.55,-0.05,0.05,0.02,1.82,-1.51,-1.50,-1.51
133.79,-1.41,0.13,-1.39,0.14,-0.14,-0.13,1.74,-1.55,-1.53,-1.54
135.12,-1.25,0.31,-1.23,0.33,-0.33,-0.28,1.66,-1.58,-1.56,-1.57
136.48,-1.07,0.52,-1.08,0.51,-0.51,-0.42,1.58,-1.57,-1.59,-1.59
137.84,-0.91,0.72,-0.94,0.68,-0.68,-0.56,1.49,-1.58,-1.61,-1.63
139.22,-0.77,0.89,-0.81,0.84,-0.84,-0.69,1.40,-1.60,-1.64,-1.66
140.61,-0.68,1.01,-0.68,0.99,-0.99,-0.82,1.30,-1.66,-1.67,-1.69
142.02,-0.58,1.13,-0.58,1.13,-1.13,-0.94,1.20,-1.71,-1.71,-1.71
143.44,-0.49,1.25,-0.48,1.26,-1.26,-1.07,1.09,-1.74,-1.74,-1.74
144.87,-0.49,1.29,-0.41,1.37,-1.37,-1.18,0.99,-1.85,-1.78,-1.78
146.32,-0.42,1.40,-0.37,1.45,-1.45,-1.30,0.88,-1.87,-1.82,-1.82
147.78,-0.33,1.52,-0.37,1.50,-1.50,-1.41,0.77,-1.83,-1.87,-1.85
149.26,-0.31,1.59,-0.40,1.53,-1.53,-1.51,0.65,-1.83,-1.93,-1.90
150.75,-0.31,1.65,-0.46,1.53,-1.53,-1.61,0.53,-1.83,-1.98,-1.96
152.26,-0.37,1.66,-0.54,1.50,-1.50,-1.71,0.42,-1.87,-2.05,-2.03
153.78,-0.46,1.64,-0.65,1.46,-1.46,-1.81,0.30,-1.92,-2.11,-2.10
155.32,-0.56,1.61,-0.77,1.41,-1.41,-1.90,0.17,-1.97,-2.18,-2.17
156.88,-0.68,1.56,-0.88,1.37,-1.37,-1.99,0.05,-2.06,-2.25,-2.25
158.44,-0.87,1.46,-0.97,1.35,-1.35,-2.08,-0.08,-2.22,-2.32,-2.33
160.03,-1.12,1.29,-1.03,1.36,-1.36,-2.17,-0.20,-2.47,-2.39,-2.41
161.63,-1.32,1.16,-1.05,1.41,-1.41,-2.25,-0.33,-2.72,-2.45,-2.48
163.24,-1.38,1.16,-1.02,1.50,-1.50,-2.33,-0.46,-2.87,-2.52,-2.54
164.88,-1.29,1.30,-0.94,1.63,-1.63,-2.41,-0.59,-2.92,-2.57,-2.59
166.53,-1.17,1.47,-0.81,1.81,-1.81,-2.48,-0.72,-2.98,-2.62,-2.64
168.19,-1.00,1.68,-0.63,2.03,-2.03,-2.55,-0.85,-3.03,-2.66,-2.68
169.87,-0.75,1.96,-0.41,2.28,-2.28,-2.62,-0.99,-3.04,-2.69,-2.72
171.57,-0.24,2.49,-0.15,2.57,-2.57,-2.69,-1.12,-2.81,-2.72,-2.74
173.29,0.22,2.97,0.13,2.87,-2.87,-2.75,-1.26,-2.64,-2.74,-2.75
175.02,0.64,3.40,0.43,3.18,-3.18,-2.82,-1.40,-2.53,-2.75,-2.76
176.77,0.99,3.76,0.73,3.49,-3.49,-2.88,-1.53,-2.49,-2.76,-2.77
178.54,1.40,4.18,1.01,3.78,-3.78,-2.94,-1.67,-2.37,-2.77,-2.78
180.32,1.58,4.35,1.26,4.04,-4.04,-3.00,-1.81,-2.45,-2.77,-2.77
182.13,1.68,4.44,1.48,4.26,-4.26,-3.05,-1.96,-2.58,-2.78,-2.76
183.95,1.78,4.55,1.66,4.44,-4.44,-3.11,-2.10,-2.66,-2.78,-2.77
185.79,1.83,4.60,1.80,4.59,-4.59,-3.16,-2.24,-2.75,-2.79,-2.77
187.65,1.89,4.68,1.90,4.70,-4.70,-3.21,-2.39,-2.80,-2.80,-2.79
189.52,1.92,4.72,1.96,4.77,-4.77,-3.26,-2.53,-2.85,-2.81,-2.80
191.42,1.92,4.74,1.99,4.82,-4.82,-3.30,-2.68,-2.89,-2.82,-2.82
193.33,1.87,4.71,2.01,4.84,-4.84,-3.35,-2.83,-2.97,-2.84,-2.84
195.27,1.86,4.72,2.01,4.86,-4.86,-3.39,-2.98,-3.00,-2.85,-2.86
197.22,1.89,4.77,2.01,4.88,-4.88,-3.44,-3.12,-2.98,-2.87,-2.88
199.19,1.96,4.86,2.00,4.89,-4.89,-3.48,-3.27,-2.93,-2.89,-2.90
201.18,1.99,4.91,2.01,4.92,-4.92,-3.52,-3.42,-2.93,-2.91,-2.92
203.19,2.00,4.94,2.02,4.95,-4.95,-3.55,-3.57,-2.95,-2.93,-2.94
205.23,2.06,5.02,2.02,4.98,-4.98,-3.59,-3.72,-2.91,-2.95,-2.96
207.28,2.10,5.07,2.03,5.00,-5.00,-3.63,-3.87,-2.90,-2.97,-2.97
209.35,2.08,5.07,2.02,5.02,-5.02,-3.66,-4.01,-2.93,-2.99,-2.99
211.44,2.02,5.04,2.02,5.03,-5.03,-3.69,-4.16,-3.01,-3.01,-3.02
213.56,1.99,5.02,2.02,5.04,-5.04,-3.72,-4.30,-3.05,-3.02,-3.03
215.69,1.99,5.03,2.01,5.05,-5.05,-3.75,-4.44,-3.05,-3.04,-3.04
217.85,1.99,5.04,1.99,5.04,-5.04,-3.78,-4.58,-3.04,-3.05,-3.05
220.03,1.98,5.04,1.96,5.02,-5.02,-3.81,-4.71,-3.03,-3.06,-3.06
222.23,1.95,5.04,1.92,4.98,-4.98,-3.84,-4.84,-3.03,-3.07,-3.09
224.45,1.89,4.97,1.88,4.95,-4.95,-3.86,-4.97,-3.05,-3.07,-3.08
226.70,1.82,4.90,1.84,4.91,-4.91,-3.89,-5.08,-3.08,-3.07,-3.08
228.96,1.78,4.85,1.81,4.87,-4.87,-3.91,-5.20,-3.09,-3.06,-3.07
231.25,1.79,4.85,1.78,4.84,-4.84,-3.93,-5.30,-3.04,-3.06,-3.06
233.57,1.79,4.84,1.76,4.81,-4.81,-3.96,-5.40,-3.01,-3.04,-3.05
235.90,1.72,4.76,1.75,4.78,-4.78,-3.98,-5.49,-3.05,-3.03,-3.04
238.26,1.67,4.70,1.74,4.75,-4.75,-4.00,-5.57,-3.08,-3.01,-3.03
240.64,1.65,4.65,1.74,4.73,-4.73,-4.01,-5.64,-3.08,-2.99,-3.00
243.05,1.66,4.63,1.74,4.71,-4.71,-4.03,-5.70,-3.05,-2.97,-2.97
245.48,1.68,4.63,1.75,4.70,-4.70,-4.05,-5.75,-3.01,-2.95,-2.95
247.93,1.78,4.70,1.77,4.69,-4.69,-4.06,-5.78,-2.91,-2.92,-2.92
250.41,1.82,4.72,1.79,4.69,-4.69,-4.08,-5.81,-2.86,-2.90,-2.90
252.92,1.84,4.71,1.81,4.68,-4.68,-4.09,-5.83,-2.84,-2.88,-2.87
255.45,1.85,4.70,1.82,4.68,-4.68,-4.10,-5.84,-2.82,-2.85,-2.85
258.00,1.86,4.69,1.83,4.66,-4.66,-4.12,-5.83,-2.80,-2.83,-2.83
260.58,1.87,4.68,1.84,4.64,-4.64,-4.13,-5.82,-2.77,-2.80,-2.81
263.19,1.87,4.65,1.85,4.62,-4.62,-4.14,-5.80,-2.75,-2.78,-2.78
265.82,1.87,4.63,1.85,4.60,-4.60,-4.15,-5.76,-2.73,-2.75,-2.76
268.48,1.86,4.60,1.84,4.57,-4.57,-4.16,-5.72,-2.70,-2.73,-2.74
271.16,1.86,4.57,1.83,4.53,-4.53,-4.16,-5.68,-2.67,-2.70,-2.71
273.87,1.79,4.48,1.81,4.49,-4.49,-4.17,-5.62,-2.69,-2.68,-2.69
276.61,1.75,4.41,1.78,4.43,-4.43,-4.18,-5.56,-2.68,-2.65,-2.66
279.38,1.73,4.36,1.76,4.38,-4.38,-4.18,-5.49,-2.65,-2.63,-2.63
282.17,1.68,4.29,1.73,4.33,-4.33,-4.19,-5.42,-2.65,-2.60,-2.61
284.99,1.66,4.23,1.71,4.28,-4.28,-4.19,-5.34,-2.61,-2.57,-2.57
287.84,1.67,4.22,1.68,4.23,-4.23,-4.19,-5.26,-2.55,-2.54,-2.55
290.72,1.68,4.20,1.66,4.17,-4.17,-4.20,-5.18,-2.49,-2.51,-2.52
293.63,1.65,4.14,1.64,4.12,-4.12,-4.20,-5.09,-2.47,-2.48,-2.49
296.57,1.62,4.08,1.62,4.07,-4.07,-4.20,-5.00,-2.45,-2.45,-2.46
299.53,1.62,4.05,1.60,4.03,-4.03,-4.20,-4.92,-2.40,-2.43,-2.43
302.53,1.55,3.96,1.59,3.99,-3.99,-4.20,-4.83,-2.43,-2.40,-2.41
305.55,1.54,3.91,1.57,3.95,-3.95,-4.20,-4.74,-2.40,-2.37,-2.37
308.61,1.55,3.90,1.56,3.91,-3.91,-4.20,-4.65,-2.35,-2.35,-2.35
311.69,1.55,3.87,1.54,3.86,-3.86,-4.19,-4.56,-2.31,-2.32,-2.32
314.81,1.53,3.83,1.52,3.82,-3.82,-4.19,-4.48,-2.29,-2.30,-2.30
317.96,1.48,3.76,1.50,3.78,-3.78,-4.19,-4.39,-2.30,-2.28,-2.28
321.14,1.46,3.73,1.47,3.73,-3.73,-4.18,-4.31,-2.27,-2.26,-2.27
324.35,1.46,3.71,1.44,3.68,-3.68,-4.18,-4.23,-2.22,-2.25,-2.25
327.59,1.43,3.67,1.40,3.63,-3.63,-4.17,-4.15,-2.20,-2.23,-2.24
330.87,1.38,3.61,1.37,3.59,-3.59,-4.17,-4.08,-2.20,-2.22,-2.23
334.18,1.36,3.57,1.34,3.55,-3.55,-4.16,-4.00,-2.18,-2.21,-2.21
337.52,1.30,3.50,1.31,3.50,-3.50,-4.15,-3.93,-2.20,-2.20,-2.20
340.90,1.26,3.45,1.27,3.46,-3.46,-4.15,-3.86,-2.19,-2.19,-2.19
344.30,1.23,3.41,1.23,3.41,-3.41,-4.14,-3.80,-2.17,-2.18,-2.18
347.75,1.17,3.35,1.19,3.36,-3.36,-4.13,-3.73,-2.19,-2.18,-2.18
351.23,1.10,3.27,1.15,3.32,-3.32,-4.12,-3.67,-2.21,-2.17,-2.17
354.74,1.06,3.24,1.11,3.28,-3.28,-4.11,-3.62,-2.21,-2.17,-2.18
358.28,1.06,3.23,1.08,3.24,-3.24,-4.10,-3.56,-2.18,-2.16,-2.17
361.87,1.06,3.23,1.05,3.22,-3.22,-4.09,-3.51,-2.15,-2.16,-2.17
365.49,1.07,3.23,1.03,3.19,-3.19,-4.08,-3.46,-2.11,-2.16,-2.16
369.14,1.00,3.17,1.00,3.16,-3.16,-4.06,-3.41,-2.16,-2.16,-2.17
372.83,0.94,3.11,0.97,3.14,-3.14,-4.05,-3.37,-2.19,-2.16,-2.17
376.56,0.90,3.08,0.95,3.12,-3.12,-4.04,-3.33,-2.21,-2.17,-2.18
380.33,0.90,3.07,0.93,3.09,-3.09,-4.02,-3.29,-2.19,-2.17,-2.17
384.13,0.91,3.08,0.90,3.08,-3.08,-4.01,-3.25,-2.16,-2.17,-2.17
387.97,0.91,3.09,0.88,3.06,-3.06,-4.00,-3.22,-2.14,-2.18,-2.18
391.85,0.91,3.10,0.85,3.04,-3.04,-3.98,-3.19,-2.12,-2.18,-2.19
395.77,0.90,3.08,0.82,3.01,-3.01,-3.97,-3.16,-2.11,-2.19,-2.18
399.73,0.79,2.98,0.79,2.99,-2.99,-3.95,-3.13,-2.19,-2.19,-2.19
403.72,0.72,2.91,0.77,2.96,-2.96,-3.93,-3.11,-2.24,-2.20,-2.19
407.76,0.71,2.92,0.74,2.95,-2.95,-3.92,-3.09,-2.23,-2.20,-2.21
411.84,0.70,2.91,0.72,2.93,-2.93,-3.90,-3.07,-2.22,-2.21,-2.21
415.96,0.70,2.91,0.70,2.91,-2.91,-3.88,-3.05,-2.21,-2.21,-2.21
420.12,0.70,2.91,0.69,2.89,-2.89,-3.86,-3.03,-2.19,-2.20,-2.21
424.32,0.65,2.86,0.68,2.88,-2.88,-3.85,-3.01,-2.22,-2.20,-2.21
428.56,0.63,2.83,0.67,2.86,-2.86,-3.83,-2.99,-2.22,-2.19,-2.20
432.85,0.63,2.82,0.67,2.84,-2.84,-3.81,-2.98,-2.20,-2.17,-2.19
437.18,0.66,2.84,0.67,2.82,-2.82,-3.79,-2.97,-2.16,-2.15,-2.18
441.55,0.70,2.84,0.69,2.82,-2.82,-3.77,-2.95,-2.11,-2.13,-2.14
445.96,0.73,2.84,0.71,2.81,-2.81,-3.75,-2.94,-2.07,-2.10,-2.11
450.42,0.71,2.79,0.74,2.80,-2.80,-3.73,-2.92,-2.08,-2.06,-2.08
454.93,0.75,2.78,0.77,2.79,-2.79,-3.71,-2.91,-2.03,-2.02,-2.03
459.48,0.81,2.80,0.80,2.78,-2.78,-3.69,-2.90,-1.96,-1.97,-1.99
464.07,0.84,2.78,0.84,2.77,-2.77,-3.66,-2.88,-1.92,-1.93,-1.94
468.71,0.84,2.72,0.88,2.76,-2.76,-3.64,-2.87,-1.91,-1.88,-1.88
473.40,0.89,2.73,0.92,2.75,-2.75,-3.62,-2.85,-1.86,-1.83,-1.84
478.13,0.94,2.72,0.96,2.74,-2.74,-3.60,-2.83,-1.80,-1.78,-1.78
482.91,0.99,2.73,0.99,2.73,-2.73,-3.57,-2.82,-1.73,-1.74,-1.74
487.74,1.03,2.73,1.02,2.71,-2.71,-3.55,-2.80,-1.68,-1.70,-1.70
492.62,1.06,2.71,1.04,2.70,-2.70,-3.53,-2.78,-1.63,-1.66,-1.65
497.55,1.09,2.72,1.06,2.69,-2.69,-3.50,-2.75,-1.59,-1.63,-1.63
502.52,1.11,2.71,1.07,2.68,-2.68,-3.48,-2.73,-1.56,-1.61,-1.60
