frequency,raw,error,smoothed,error_smoothed,equalization,parametric_eq,fixed_band_eq,equalized_raw,equalized_smoothed,target
20.00,-10.24,-17.35,-10.19,-17.32,17.32,16.61,7.00,7.08,7.13,7.11
20.20,-10.15,-17.30,-10.12,-17.27,17.27,16.84,7.16,7.12,7.16,7.15
20.40,-10.06,-17.24,-10.04,-17.23,17.23,17.04,7.31,7.16,7.19,7.18
20.61,-9.96,-17.17,-9.96,-17.17,17.17,17.21,7.48,7.21,7.21,7.21
20.81,-9.87,-17.12,-9.88,-17.12,17.12,17.33,7.64,7.25,7.24,7.25
21.02,-9.78,-17.07,-9.80,-17.06,17.06,17.42,7.81,7.28,7.26,7.29
21.23,-9.68,-16.98,-9.72,-17.00,17.00,17.47,7.99,7.32,7.28,7.30
21.44,-9.58,-16.90,-9.63,-16.94,16.94,17.48,8.16,7.36,7.30,7.32
21.66,-9.49,-16.83,-9.55,-16.87,16.87,17.45,8.35,7.38,7.32,7.34
21.87,-9.39,-16.74,-9.46,-16.80,16.80,17.38,8.54,7.41,7.34,7.35
22.09,-9.30,-16.67,-9.37,-16.73,16.73,17.27,8.73,7.42,7.36,7.37
22.31,-9.24,-16.61,-9.28,-16.65,16.65,17.14,8.93,7.41,7.37,7.36
22.54,-9.18,-16.56,-9.20,-16.58,16.58,16.98,9.13,7.40,7.38,7.37
22.76,-9.12,-16.50,-9.11,-16.50,16.50,16.80,9.34,7.38,7.39,7.38
22.99,-9.06,-16.44,-9.02,-16.41,16.41,16.60,9.55,7.35,7.40,7.38
23.22,-8.97,-16.36,-8.92,-16.32,16.32,16.40,9.77,7.35,7.40,7.39
23.45,-8.87,-16.27,-8.82,-16.23,16.23,16.18,10.00,7.36,7.41,7.40
23.69,-8.78,-16.19,-8.72,-16.13,16.13,15.96,10.23,7.35,7.41,7.41
23.92,-8.68,-16.10,-8.61,-16.02,16.02,15.74,10.47,7.35,7.42,7.42
24.16,-8.54,-15.97,-8.50,-15.92,15.92,15.51,10.71,7.38,7.42,7.43
24.40,-8.38,-15.82,-8.38,-15.81,15.81,15.29,10.97,7.43,7.42,7.44
24.65,-8.23,-15.66,-8.27,-15.69,15.69,15.07,11.22,7.46,7.42,7.43
24.89,-8.07,-15.50,-8.15,-15.58,15.58,14.86,11.49,7.51,7.43,7.43
25.14,-7.95,-15.38,-8.03,-15.46,15.46,14.66,11.76,7.51,7.43,7.42
25.39,-7.86,-15.28,-7.91,-15.34,15.34,14.46,12.03,7.48,7.43,7.42
25.65,-7.77,-15.19,-7.79,-15.22,15.22,14.27,12.32,7.45,7.43,7.42
25.91,-7.68,-15.09,-7.68,-15.10,15.10,14.08,12.61,7.42,7.42,7.41
26.16,-7.59,-15.01,-7.57,-14.99,14.99,13.91,12.90,7.40,7.42,7.42
26.43,-7.49,-14.91,-7.47,-14.89,14.89,13.75,13.20,7.39,7.42,7.42
26.69,-7.39,-14.81,-7.37,-14.79,14.79,13.59,13.51,7.40,7.42,7.42
26.96,-7.30,-14.72,-7.28,-14.69,14.69,13.44,13.81,7.39,7.41,7.42
27.23,-7.18,-14.60,-7.19,-14.60,14.60,13.30,14.13,7.41,7.41,7.42
27.50,-7.06,-14.48,-7.08,-14.49,14.49,13.18,14.44,7.43,7.41,7.41
27.77,-6.94,-14.34,-6.98,-14.38,14.38,13.06,14.75,7.44,7.41,7.40
28.05,-6.83,-14.23,-6.86,-14.27,14.27,12.94,15.06,7.44,7.40,7.40
28.33,-6.76,-14.15,-6.75,-14.15,14.15,12.84,15.36,7.39,7.40,7.39
28.62,-6.69,-14.09,-6.64,-14.03,14.03,12.75,15.65,7.34,7.40,7.40
28.90,-6.62,-14.02,-6.52,-13.91,13.91,12.66,15.93,7.29,7.40,7.40
29.19,-6.47,-13.85,-6.39,-13.79,13.79,12.58,16.20,7.31,7.39,7.38
29.48,-6.28,-13.67,-6.27,-13.66,13.66,12.51,16.44,7.38,7.39,7.39
29.78,-6.09,-13.48,-6.14,-13.53,13.53,12.44,16.65,7.43,7.38,7.39
30.08,-5.92,-13.31,-6.02,-13.39,13.39,12.38,16.83,7.47,7.38,7.39
30.38,-5.85,-13.23,-5.89,-13.27,13.27,12.33,16.98,7.41,7.37,7.38
30.68,-5.77,-13.15,-5.77,-13.14,13.14,12.28,17.08,7.37,7.37,7.37
30.99,-5.69,-13.05,-5.66,-13.02,13.02,12.24,17.14,7.33,7.36,7.36
31.30,-5.55,-12.91,-5.54,-12.90,12.90,12.20,17.15,7.35,7.36,7.36
31.61,-5.41,-12.77,-5.43,-12.79,12.79,12.16,17.11,7.37,7.35,7.36
31.93,-5.26,-12.61,-5.33,-12.68,12.68,12.12,17.03,7.41,7.35,7.34
32.24,-5.17,-12.50,-5.23,-12.57,12.57,12.09,16.90,7.40,7.34,7.33
32.57,-5.10,-12.43,-5.14,-12.47,12.47,12.05,16.73,7.37,7.34,7.33
32.89,-5.02,-12.35,-5.04,-12.37,12.37,12.01,16.53,7.35,7.33,7.33
33.22,-4.95,-12.27,-4.94,-12.26,12.26,11.97,16.30,7.31,7.32,7.32
33.55,-4.87,-12.19,-4.83,-12.14,12.14,11.93,16.04,7.27,7.32,7.32
33.89,-4.80,-12.12,-4.71,-12.02,12.02,11.89,15.76,7.22,7.31,7.32
34.23,-4.68,-11.99,-4.59,-11.90,11.90,11.83,15.47,7.21,7.31,7.31
34.57,-4.55,-11.85,-4.48,-11.78,11.78,11.77,15.16,7.23,7.30,7.30
34.92,-4.41,-11.71,-4.36,-11.66,11.66,11.71,14.85,7.24,7.29,7.30
35.27,-4.24,-11.54,-4.25,-11.54,11.54,11.63,14.53,7.29,7.29,7.29
35.62,-4.06,-11.34,-4.12,-11.41,11.41,11.55,14.21,7.34,7.28,7.28
35.97,-3.88,-11.15,-3.99,-11.27,11.27,11.45,13.89,7.39,7.28,7.27
36.33,-3.78,-11.05,-3.87,-11.14,11.14,11.35,13.57,7.35,7.27,7.27
36.70,-3.69,-10.96,-3.74,-11.00,11.00,11.23,13.26,7.31,7.26,7.26
37.06,-3.59,-10.84,-3.61,-10.86,10.86,11.11,12.94,7.27,7.25,7.25
37.43,-3.50,-10.75,-3.48,-10.72,10.72,10.97,12.64,7.22,7.24,7.25
37.81,-3.41,-10.65,-3.34,-10.58,10.58,10.83,12.34,7.17,7.24,7.24
38.19,-3.28,-10.51,-3.22,-10.45,10.45,10.67,12.04,7.17,7.23,7.23
38.57,-3.13,-10.35,-3.10,-10.32,10.32,10.51,11.75,7.19,7.22,7.22
38.95,-2.97,-10.18,-2.98,-10.20,10.20,10.34,11.47,7.23,7.22,7.21
39.34,-2.86,-10.06,-2.87,-10.08,10.08,10.16,11.19,7.22,7.21,7.20
39.74,-2.76,-9.94,-2.75,-9.95,9.95,9.97,10.92,7.19,7.20,7.18
40.14,-2.63,-9.82,-2.62,-9.81,9.81,9.78,10.66,7.18,7.19,7.19
40.54,-2.46,-9.64,-2.49,-9.67,9.67,9.58,10.40,7.20,7.18,7.18
40.94,-2.29,-9.46,-2.36,-9.52,9.52,9.38,10.15,7.23,7.16,7.17
41.35,-2.21,-9.37,-2.23,-9.38,9.38,9.18,9.90,7.17,7.15,7.16
41.76,-2.13,-9.27,-2.11,-9.24,9.24,8.98,9.66,7.11,7.13,7.14
42.18,-2.04,-9.16,-2.00,-9.10,9.10,8.77,9.43,7.06,7.11,7.12
42.60,-1.92,-9.01,-1.88,-8.96,8.96,8.57,9.20,7.04,7.08,7.09
43.03,-1.80,-8.88,-1.76,-8.82,8.82,8.36,8.98,7.02,7.06,7.08
43.46,-1.60,-8.65,-1.65,-8.67,8.67,8.16,8.76,7.07,7.03,7.05
43.90,-1.41,-8.41,-1.53,-8.53,8.53,7.95,8.55,7.12,7.00,7.00
44.33,-1.36,-8.33,-1.43,-8.40,8.40,7.75,8.34,7.04,6.97,6.97
44.78,-1.36,-8.29,-1.32,-8.27,8.27,7.56,8.14,6.90,6.94,6.93
45.23,-1.29,-8.19,-1.22,-8.13,8.13,7.36,7.94,6.84,6.92,6.90
45.68,-1.16,-8.03,-1.11,-8.00,8.00,7.17,7.74,6.84,6.89,6.87
46.13,-1.01,-7.86,-0.99,-7.86,7.86,6.98,7.55,6.85,6.87,6.85
46.60,-0.83,-7.67,-0.87,-7.71,7.71,6.79,7.37,6.88,6.84,6.84
47.06,-0.67,-7.49,-0.76,-7.58,7.58,6.61,7.19,6.91,6.83,6.82
47.53,-0.65,-7.46,-0.65,-7.46,7.46,6.43,7.01,6.81,6.81,6.81
48.01,-0.63,-7.44,-0.54,-7.34,7.34,6.26,6.84,6.71,6.80,6.80
48.49,-0.47,-7.26,-0.43,-7.22,7.22,6.09,6.67,6.75,6.79,6.79
48.97,-0.32,-7.10,-0.31,-7.10,7.10,5.92,6.50,6.78,6.79,6.78
49.46,-0.16,-6.93,-0.18,-6.96,6.96,5.76,6.34,6.80,6.78,6.77
49.96,-0.00,-6.76,-0.05,-6.82,6.82,5.60,6.18,6.82,6.78,6.76
50.46,0.12,-6.65,0.08,-6.69,6.69,5.45,6.02,6.81,6.77,6.77
50.96,0.23,-6.54,0.19,-6.57,6.57,5.30,5.87,6.80,6.76,6.77
51.47,0.29,-6.47,0.31,-6.44,6.44,5.15,5.72,6.73,6.74,6.76
51.99,0.34,-6.40,0.43,-6.30,6.30,5.01,5.57,6.64,6.73,6.74
52.51,0.52,-6.21,0.55,-6.15,6.15,4.87,5.43,6.67,6.70,6.72
53.03,0.71,-5.99,0.68,-6.00,6.00,4.74,5.29,6.71,6.67,6.70
53.56,0.82,-5.84,0.79,-5.85,5.85,4.60,5.15,6.67,6.64,6.66
54.10,0.94,-5.67,0.91,-5.70,5.70,4.48,5.02,6.64,6.60,6.61
54.64,1.07,-5.49,1.02,-5.54,5.54,4.35,4.89,6.61,6.56,6.56
55.18,1.15,-5.36,1.13,-5.38,5.38,4.23,4.76,6.53,6.51,6.51
55.74,1.15,-5.30,1.24,-5.22,5.22,4.11,4.63,6.37,6.46,6.45
56.29,1.29,-5.11,1.34,-5.06,5.06,4.00,4.51,6.35,6.40,6.40
56.86,1.54,-4.80,1.45,-4.89,4.89,3.89,4.39,6.43,6.34,6.34
57.42,1.61,-4.66,1.56,-4.72,4.72,3.78,4.27,6.33,6.28,6.27
58.00,1.61,-4.60,1.66,-4.55,4.55,3.67,4.15,6.16,6.21,6.21
58.58,1.74,-4.40,1.75,-4.39,4.39,3.57,4.04,6.13,6.15,6.14
59.16,1.88,-4.21,1.85,-4.23,4.23,3.47,3.93,6.11,6.08,6.09
59.76,2.01,-4.01,1.95,-4.06,4.06,3.37,3.82,6.07,6.01,6.02
60.35,2.06,-3.89,2.05,-3.90,3.90,3.27,3.71,5.95,5.95,5.95
60.96,2.06,-3.83,2.15,-3.73,3.73,3.18,3.61,5.79,5.88,5.89
61.57,2.19,-3.62,2.25,-3.56,3.56,3.09,3.51,5.75,5.82,5.81
62.18,2.33,-3.41,2.36,-3.40,3.40,3.00,3.41,5.73,5.76,5.74
62.80,2.48,-3.21,2.44,-3.25,3.25,2.91,3.32,5.73,5.70,5.69
63.43,2.56,-3.08,2.54,-3.10,3.10,2.83,3.22,5.66,5.64,5.63
64.07,2.63,-2.96,2.64,-2.95,2.95,2.75,3.13,5.58,5.59,5.58
64.71,2.75,-2.78,2.73,-2.81,2.81,2.66,3.04,5.55,5.54,5.53
65.35,2.86,-2.62,2.82,-2.67,2.67,2.59,2.95,5.53,5.49,5.48
66.01,2.97,-2.47,2.91,-2.53,2.53,2.51,2.87,5.50,5.44,5.44
66.67,2.97,-2.42,2.99,-2.40,2.40,2.43,2.79,5.37,5.40,5.39
67.33,3.05,-2.31,3.08,-2.27,2.27,2.36,2.70,5.32,5.36,5.36
68.01,3.20,-2.12,3.18,-2.14,2.14,2.28,2.62,5.34,5.32,5.32
68.69,3.22,-2.06,3.25,-2.03,2.03,2.21,2.55,5.25,5.28,5.28
69.37,3.31,-1.93,3.33,-1.92,1.92,2.14,2.47,5.23,5.24,5.24
70.07,3.43,-1.78,3.40,-1.80,1.80,2.07,2.39,5.23,5.21,5.20
70.77,3.43,-1.75,3.48,-1.69,1.69,2.00,2.32,5.12,5.17,5.18
71.48,3.54,-1.60,3.56,-1.58,1.58,1.93,2.25,5.11,5.13,5.14
72.19,3.66,-1.45,3.63,-1.47,1.47,1.87,2.18,5.13,5.10,5.11
72.91,3.66,-1.41,3.69,-1.37,1.37,1.80,2.10,5.03,5.06,5.07
73.64,3.81,-1.22,3.76,-1.27,1.27,1.73,2.04,5.08,5.03,5.03
74.38,3.89,-1.11,3.82,-1.16,1.16,1.67,1.97,5.05,4.99,5.00
75.12,3.89,-1.06,3.88,-1.07,1.07,1.61,1.90,4.96,4.95,4.95
75.87,3.89,-1.03,3.94,-0.97,0.97,1.54,1.83,4.86,4.92,4.91
76.63,4.00,-0.88,4.00,-0.88,0.88,1.48,1.77,4.88,4.88,4.88
77.40,4.09,-0.76,4.05,-0.80,0.80,1.42,1.70,4.88,4.85,4.85
78.17,4.11,-0.70,4.10,-0.72,0.72,1.35,1.63,4.83,4.82,4.81
78.95,4.11,-0.68,4.14,-0.64,0.64,1.29,1.57,4.75,4.79,4.79
79.74,4.11,-0.66,4.17,-0.59,0.59,1.23,1.50,4.70,4.76,4.76
80.54,4.19,-0.54,4.20,-0.54,0.54,1.17,1.44,4.73,4.74,4.73
81.35,4.29,-0.42,4.23,-0.49,0.49,1.11,1.37,4.77,4.72,4.71
82.16,4.34,-0.35,4.26,-0.44,0.44,1.05,1.31,4.78,4.70,4.69
82.98,4.34,-0.35,4.29,-0.39,0.39,0.99,1.25,4.73,4.69,4.69
83.81,4.34,-0.33,4.33,-0.35,0.35,0.92,1.18,4.68,4.67,4.67
84.65,4.34,-0.32,4.36,-0.30,0.30,0.86,1.12,4.64,4.66,4.65
85.50,4.34,-0.32,4.39,-0.26,0.26,0.80,1.05,4.60,4.65,4.66
86.35,4.34,-0.31,4.43,-0.22,0.22,0.74,0.99,4.56,4.65,4.65
87.22,4.35,-0.29,4.46,-0.18,0.18,0.68,0.93,4.53,4.64,4.64
88.09,4.41,-0.22,4.48,-0.15,0.15,0.62,0.86,4.56,4.63,4.63
88.97,4.56,-0.08,4.50,-0.12,0.12,0.55,0.80,4.68,4.62,4.64
89.86,4.57,-0.05,4.50,-0.11,0.11,0.49,0.73,4.68,4.61,4.62
90.76,4.57,-0.03,4.50,-0.10,0.10,0.43,0.67,4.67,4.60,4.60
91.66,4.57,-0.03,4.50,-0.08,0.08,0.37,0.60,4.65,4.59,4.60
92.58,4.57,0.00,4.50,-0.07,0.07,0.30,0.54,4.64,4.57,4.56
93.51,4.57,0.01,4.50,-0.05,0.05,0.24,0.47,4.62,4.55,4.56
94.44,4.57,0.03,4.49,-0.04,0.04,0.18,0.41,4.61,4.53,4.53
95.39,4.47,-0.04,4.48,-0.02,0.02,0.12,0.34,4.49,4.50,4.51
96.34,4.34,-0.13,4.47,-0.01,0.01,0.06,0.28,4.34,4.47,4.46
97.30,4.34,-0.10,4.44,0.00,-0.00,-0.00,0.21,4.34,4.44,4.44
98.28,4.34,-0.06,4.41,0.00,-0.00,-0.06,0.15,4.34,4.41,4.40
99.26,4.34,-0.03,4.38,0.01,-0.01,-0.12,0.08,4.33,4.37,4.36
100.25,4.34,0.01,4.35,0.02,-0.02,-0.18,0.02,4.32,4.33,4.33
101.25,4.34,0.06,4.32,0.04,-0.04,-0.23,-0.05,4.30,4.28,4.28
102.27,4.34,0.11,4.30,0.07,-0.07,-0.29,-0.11,4.27,4.23,4.23
103.29,4.34,0.16,4.28,0.10,-0.10,-0.34,-0.18,4.23,4.17,4.17
104.32,4.34,0.21,4.26,0.15,-0.15,-0.38,-0.24,4.19,4.11,4.13
105.37,4.28,0.21,4.25,0.19,-0.19,-0.43,-0.30,4.08,4.05,4.07
106.42,4.15,0.15,4.23,0.24,-0.24,-0.47,-0.36,3.91,3.98,4.00
107.48,4.11,0.18,4.20,0.28,-0.28,-0.51,-0.42,3.83,3.91,3.92
108.56,4.11,0.27,4.15,0.32,-0.32,-0.54,-0.47,3.79,3.84,3.84
109.64,4.11,0.35,4.11,0.35,-0.35,-0.57,-0.53,3.76,3.76,3.76
110.74,4.11,0.43,4.07,0.39,-0.39,-0.60,-0.58,3.72,3.68,3.68
111.85,4.11,0.50,4.02,0.42,-0.42,-0.62,-0.63,3.69,3.59,3.60
112.97,4.09,0.58,3.97,0.46,-0.46,-0.64,-0.68,3.63,3.51,3.51
114.10,3.89,0.46,3.92,0.49,-0.49,-0.65,-0.73,3.40,3.43,3.43
115.24,3.86,0.51,3.86,0.51,-0.51,-0.65,-0.77,3.34,3.35,3.34
116.39,3.73,0.47,3.82,0.54,-0.54,-0.66,-0.81,3.19,3.27,3.26
117.55,3.66,0.48,3.76,0.56,-0.56,-0.65,-0.84,3.10,3.20,3.18
118.73,3.66,0.55,3.70,0.57,-0.57,-0.65,-0.88,3.09,3.13,3.11
119.92,3.66,0.60,3.64,0.57,-0.57,-0.64,-0.90,3.09,3.07,3.05
121.12,3.65,0.66,3.57,0.56,-0.56,-0.62,-0.93,3.09,3.01,2.99
122.33,3.51,0.57,3.50,0.54,-0.54,-0.60,-0.95,2.96,2.95,2.94
123.55,3.43,0.52,3.43,0.53,-0.53,-0.58,-0.97,2.90,2.90,2.90
124.79,3.43,0.58,3.36,0.51,-0.51,-0.56,-0.98,2.92,2.85,2.85
126.03,3.28,0.47,3.28,0.48,-0.48,-0.53,-0.99,2.80,2.80,2.81
127.29,3.23,0.46,3.22,0.46,-0.46,-0.50,-0.99,2.77,2.76,2.77
128.57,3.15,0.43,3.15,0.43,-0.43,-0.47,-0.99,2.72,2.72,2.72
129.85,2.99,0.31,3.07,0.40,-0.40,-0.44,-0.99,2.59,2.68,2.68
131.15,2.97,0.33,2.99,0.35,-0.35,-0.41,-0.98,2.62,2.63,2.64
132.46,2.97,0.37,2.90,0.31,-0.31,-0.37,-0.97,2.66,2.59,2.59
133.79,2.84,0.28,2.82,0.27,-0.27,-0.34,-0.95,2.57,2.55,2.56
135.12,2.74,0.24,2.75,0.24,-0.24,-0.31,-0.93,2.50,2.51,2.50
136.48,2.69,0.22,2.68,0.21,-0.21,-0.27,-0.91,2.47,2.47,2.47
137.84,2.54,0.12,2.61,0.19,-0.19,-0.24,-0.88,2.35,2.42,2.42
139.22,2.52,0.16,2.55,0.17,-0.17,-0.20,-0.86,2.35,2.38,2.36
140.61,2.52,0.21,2.49,0.16,-0.16,-0.17,-0.82,2.36,2.33,2.31
142.02,2.41,0.13,2.43,0.15,-0.15,-0.13,-0.79,2.26,2.28,2.28
143.44,2.32,0.09,2.37,0.14,-0.14,-0.10,-0.76,2.18,2.22,2.23
144.87,2.29,0.11,2.31,0.14,-0.14,-0.06,-0.72,2.15,2.17,2.18
146.32,2.29,0.17,2.24,0.14,-0.14,-0.03,-0.68,2.15,2.10,2.12
147.78,2.24,0.17,2.18,0.15,-0.15,0.00,-0.64,2.09,2.03,2.07
149.26,2.12,0.12,2.12,0.16,-0.16,0.03,-0.60,1.96,1.96,2.00
150.75,2.06,0.15,2.05,0.16,-0.16,0.06,-0.55,1.90,1.89,1.91
152.26,2.05,0.21,1.98,0.17,-0.17,0.09,-0.51,1.88,1.81,1.84
153.78,1.91,0.16,1.92,0.19,-0.19,0.12,-0.46,1.72,1.73,1.75
155.32,1.85,0.20,1.85,0.20,-0.20,0.15,-0.42,1.65,1.66,1.65
156.88,1.82,0.25,1.78,0.20,-0.20,0.18,-0.37,1.62,1.58,1.57
158.44,1.67,0.18,1.72,0.22,-0.22,0.21,-0.32,1.45,1.50,1.49
160.03,1.61,0.20,1.65,0.23,-0.23,0.23,-0.27,1.38,1.43,1.41
161.63,1.61,0.27,1.59,0.22,-0.22,0.26,-0.23,1.39,1.36,1.34
163.24,1.47,0.19,1.52,0.21,-0.21,0.28,-0.18,1.25,1.30,1.28
164.88,1.38,0.14,1.45,0.20,-0.20,0.31,-0.13,1.18,1.25,1.24
166.53,1.38,0.19,1.39,0.18,-0.18,0.33,-0.08,1.20,1.21,1.19
168.19,1.38,0.22,1.32,0.14,-0.14,0.36,-0.03,1.24,1.18,1.15
169.87,1.33,0.20,1.25,0.10,-0.10,0.38,0.01,1.23,1.15,1.13
171.57,1.19,0.07,1.19,0.06,-0.06,0.40,0.06,1.13,1.14,1.12
173.29,1.15,0.03,1.13,0.00,-0.00,0.42,0.11,1.15,1.12,1.12
175.02,1.15,0.02,1.06,-0.06,0.06,0.45,0.16,1.20,1.11,1.12
176.77,0.96,-0.16,0.99,-0.11,0.11,0.47,0.21,1.07,1.11,1.11
178.54,0.92,-0.20,0.93,-0.17,0.17,0.49,0.26,1.09,1.10,1.11
180.32,0.85,-0.27,0.87,-0.23,0.23,0.51,0.30,1.08,1.10,1.12
182.13,0.75,-0.37,0.81,-0.28,0.28,0.53,0.35,1.03,1.09,1.12
183.95,0.70,-0.41,0.75,-0.34,0.34,0.55,0.40,1.04,1.08,1.11
185.79,0.70,-0.40,0.68,-0.40,0.40,0.57,0.45,1.09,1.07,1.10
187.65,0.70,-0.37,0.61,-0.45,0.45,0.59,0.49,1.15,1.06,1.07
189.52,0.52,-0.53,0.56,-0.48,0.48,0.61,0.54,1.00,1.05,1.05
191.42,0.47,-0.55,0.52,-0.51,0.51,0.63,0.59,0.97,1.03,1.02
193.33,0.47,-0.53,0.48,-0.53,0.53,0.65,0.64,1.00,1.01,1.00
195.27,0.47,-0.52,0.44,-0.54,0.54,0.67,0.68,1.01,0.98,0.99
197.22,0.47,-0.50,0.41,-0.55,0.55,0.69,0.73,1.02,0.96,0.96
199.19,0.33,-0.60,0.36,-0.58,0.58,0.71,0.78,0.90,0.94,0.92
201.18,0.24,-0.67,0.32,-0.60,0.60,0.73,0.82,0.84,0.92,0.91
203.19,0.24,-0.66,0.27,-0.63,0.63,0.75,0.87,0.86,0.89,0.89
205.23,0.24,-0.63,0.21,-0.66,0.66,0.77,0.92,0.90,0.87,0.86
207.28,0.24,-0.62,0.17,-0.68,0.68,0.78,0.96,0.92,0.85,0.86
209.35,0.24,-0.59,0.12,-0.71,0.71,0.80,1.01,0.95,0.83,0.83
211.44,0.11,-0.69,0.08,-0.73,0.73,0.82,1.05,0.84,0.81,0.80
213.56,0.02,-0.78,0.02,-0.77,0.77,0.84,1.09,0.79,0.79,0.79
215.69,0.01,-0.78,-0.03,-0.81,0.81,0.86,1.14,0.82,0.78,0.79
217.85,-0.20,-0.96,-0.09,-0.85,0.85,0.88,1.18,0.65,0.76,0.76
220.03,-0.22,-0.97,-0.14,-0.89,0.89,0.90,1.22,0.66,0.75,0.75
222.23,-0.22,-0.94,-0.18,-0.92,0.92,0.92,1.26,0.70,0.73,0.72
224.45,-0.22,-0.94,-0.23,-0.95,0.95,0.94,1.30,0.73,0.72,0.72
226.70,-0.22,-0.94,-0.28,-0.99,0.99,0.96,1.34,0.77,0.71,0.72
228.96,-0.22,-0.92,-0.31,-1.01,1.01,0.97,1.38,0.79,0.70,0.70
231.25,-0.39,-1.09,-0.34,-1.04,1.04,0.99,1.42,0.64,0.69,0.70
233.57,-0.44,-1.13,-0.37,-1.06,1.06,1.01,1.45,0.62,0.69,0.69
235.90,-0.44,-1.12,-0.39,-1.07,1.07,1.03,1.48,0.63,0.68,0.68
238.26,-0.44,-1.12,-0.41,-1.09,1.09,1.05,1.52,0.65,0.68,0.67
240.64,-0.44,-1.12,-0.44,-1.12,1.12,1.07,1.55,0.68,0.68,0.67
243.05,-0.44,-1.12,-0.46,-1.14,1.14,1.09,1.58,0.70,0.68,0.68
245.48,-0.44,-1.12,-0.48,-1.16,1.16,1.11,1.60,0.72,0.68,0.68
247.93,-0.44,-1.13,-0.50,-1.19,1.19,1.13,1.63,0.75,0.69,0.69
250.41,-0.44,-1.13,-0.52,-1.21,1.21,1.15,1.65,0.77,0.69,0.68
252.92,-0.49,-1.19,-0.55,-1.24,1.24,1.18,1.68,0.75,0.69,0.69
255.45,-0.64,-1.36,-0.57,-1.27,1.27,1.20,1.70,0.63,0.70,0.72
258.00,-0.67,-1.39,-0.59,-1.30,1.30,1.22,1.72,0.63,0.71,0.72
260.58,-0.67,-1.39,-0.62,-1.34,1.34,1.24,1.73,0.67,0.72,0.72
263.19,-0.67,-1.40,-0.65,-1.38,1.38,1.26,1.75,0.71,0.73,0.73
265.82,-0.67,-1.41,-0.68,-1.42,1.42,1.28,1.77,0.75,0.74,0.73
268.48,-0.67,-1.43,-0.72,-1.47,1.47,1.30,1.78,0.80,0.76,0.76
271.16,-0.67,-1.44,-0.75,-1.53,1.53,1.33,1.79,0.86,0.78,0.77
273.87,-0.76,-1.54,-0.79,-1.59,1.59,1.35,1.81,0.82,0.79,0.78
276.61,-0.88,-1.70,-0.83,-1.64,1.64,1.37,1.82,0.76,0.81,0.82
279.38,-0.90,-1.73,-0.86,-1.69,1.69,1.39,1.83,0.79,0.83,0.83
282.17,-0.90,-1.76,-0.88,-1.74,1.74,1.42,1.84,0.84,0.86,0.85
284.99,-0.90,-1.78,-0.92,-1.80,1.80,1.44,1.85,0.90,0.88,0.88
287.84,-0.90,-1.80,-0.96,-1.87,1.87,1.46,1.86,0.96,0.91,0.90
290.72,-0.97,-1.91,-1.00,-1.94,1.94,1.49,1.87,0.97,0.94,0.94
293.63,-1.11,-2.07,-1.05,-2.01,2.01,1.51,1.88,0.90,0.96,0.96
296.57,-1.13,-2.12,-1.08,-2.07,2.07,1.53,1.90,0.94,0.99,0.99
299.53,-1.13,-2.14,-1.12,-2.13,2.13,1.56,1.91,1.00,1.01,1.01
302.53,-1.13,-2.16,-1.16,-2.19,2.19,1.58,1.92,1.06,1.03,1.03
305.55,-1.13,-2.19,-1.19,-2.24,2.24,1.60,1.93,1.11,1.05,1.06
308.61,-1.18,-2.26,-1.22,-2.29,2.29,1.63,1.95,1.10,1.07,1.08
311.69,-1.34,-2.44,-1.26,-2.34,2.34,1.65,1.96,1.00,1.08,1.09
314.81,-1.36,-2.48,-1.30,-2.39,2.39,1.68,1.98,1.03,1.09,1.12
317.96,-1.36,-2.48,-1.34,-2.45,2.45,1.70,1.99,1.09,1.11,1.12
321.14,-1.36,-2.47,-1.38,-2.50,2.50,1.73,2.01,1.14,1.11,1.11
324.35,-1.36,-2.48,-1.42,-2.54,2.54,1.76,2.03,1.18,1.12,1.12
327.59,-1.39,-2.52,-1.46,-2.59,2.59,1.78,2.05,1.20,1.13,1.13
330.87,-1.53,-2.66,-1.51,-2.65,2.65,1.81,2.08,1.12,1.14,1.13
334.18,-1.58,-2.72,-1.56,-2.71,2.71,1.83,2.10,1.13,1.15,1.14
337.52,-1.58,-2.73,-1.62,-2.78,2.78,1.86,2.13,1.20,1.16,1.15
340.90,-1.59,-2.76,-1.69,-2.86,2.86,1.89,2.15,1.27,1.17,1.17
344.30,-1.76,-2.94,-1.75,-2.94,2.94,1.91,2.18,1.18,1.19,1.18
347.75,-1.81,-3.01,-1.80,-3.01,3.01,1.94,2.21,1.20,1.21,1.20
351.23,-1.81,-3.04,-1.85,-3.07,3.07,1.96,2.25,1.26,1.22,1.23
354.74,-1.81,-3.05,-1.89,-3.14,3.14,1.99,2.28,1.33,1.25,1.24
358.28,-1.92,-3.19,-1.92,-3.19,3.19,2.02,2.32,1.27,1.27,1.27
361.87,-2.01,-3.30,-1.94,-3.23,3.23,2.05,2.35,1.22,1.29,1.29
365.49,-2.04,-3.36,-1.93,-3.24,3.24,2.07,2.39,1.20,1.31,1.32
369.14,-2.04,-3.38,-1.90,-3.24,3.24,2.10,2.43,1.20,1.34,1.33
372.83,-2.04,-3.40,-1.87,-3.23,3.23,2.13,2.48,1.19,1.36,1.36
376.56,-1.99,-3.37,-1.83,-3.21,3.21,2.15,2.52,1.22,1.38,1.38
380.33,-1.75,-3.16,-1.78,-3.17,3.17,2.18,2.57,1.42,1.40,1.41
384.13,-1.61,-3.04,-1.72,-3.13,3.13,2.21,2.62,1.52,1.41,1.43
387.97,-1.58,-3.02,-1.66,-3.09,3.09,2.24,2.66,1.51,1.43,1.43
391.85,-1.57,-3.01,-1.60,-3.04,3.04,2.26,2.71,1.47,1.44,1.44
395.77,-1.42,-2.87,-1.54,-2.99,2.99,2.29,2.77,1.57,1.45,1.45
399.73,-1.36,-2.82,-1.48,-2.94,2.94,2.32,2.82,1.58,1.46,1.46
403.72,-1.36,-2.83,-1.42,-2.89,2.89,2.35,2.87,1.53,1.47,1.47
407.76,-1.36,-2.84,-1.38,-2.86,2.86,2.37,2.92,1.50,1.48,1.48
411.84,-1.36,-2.85,-1.35,-2.83,2.83,2.40,2.98,1.47,1.48,1.48
415.96,-1.36,-2.86,-1.34,-2.82,2.82,2.43,3.03,1.46,1.48,1.49
420.12,-1.36,-2.85,-1.33,-2.82,2.82,2.46,3.09,1.46,1.49,1.49
424.32,-1.36,-2.85,-1.34,-2.83,2.83,2.48,3.14,1.47,1.49,1.49
428.56,-1.36,-2.85,-1.34,-2.84,2.84,2.51,3.19,1.47,1.49,1.49
432.85,-1.36,-2.85,-1.34,-2.84,2.84,2.54,3.25,1.48,1.50,1.49
437.18,-1.36,-2.86,-1.35,-2.85,2.85,2.57,3.30,1.49,1.50,1.50
441.55,-1.36,-2.87,-1.36,-2.86,2.86,2.59,3.35,1.50,1.50,1.51
445.96,-1.36,-2.87,-1.36,-2.87,2.87,2.62,3.40,1.51,1.51,1.51
450.42,-1.36,-2.88,-1.36,-2.88,2.88,2.65,3.44,1.52,1.52,1.51
454.93,-1.36,-2.89,-1.36,-2.89,2.89,2.67,3.49,1.53,1.53,1.52
459.48,-1.36,-2.89,-1.36,-2.90,2.90,2.70,3.53,1.54,1.54,1.53
464.07,-1.36,-2.91,-1.36,-2.92,2.92,2.72,3.56,1.56,1.56,1.55
468.71,-1.36,-2.93,-1.36,-2.93,2.93,2.75,3.60,1.57,1.57,1.57
473.40,-1.36,-2.94,-1.36,-2.95,2.95,2.77,3.63,1.59,1.59,1.58
478.13,-1.36,-2.97,-1.36,-2.97,2.97,2.80,3.66,1.61,1.61,1.61
482.91,-1.36,-2.99,-1.36,-3.00,3.00,2.82,3.68,1.63,1.63,1.63
487.74,-1.36,-3.02,-1.36,-3.02,3.02,2.85,3.69,1.66,1.66,1.66
492.62,-1.36,-3.05,-1.36,-3.04,3.04,2.87,3.71,1.68,1.68,1.69
497.55,-1.36,-3.07,-1.36,-3.07,3.07,2.89,3.72,1.71,1.71,1.71
502.52,-1.36,-3.10,-1.36,-3.09,3.09,2.92,3.72,1.73,1.73,1.74
507.55,-1.36,-3.12,-1.36,-3.12,3.12,2.94,3.72,1.76,1.76,1.76
512.62,-1.36,-3.15,-1.36,-3.14,3.14,2.96,3.71,1.78,1.78,1.78
