frequency,raw,error,smoothed,error_smoothed,equalization,parametric_eq,fixed_band_eq,equalized_raw,equalized_smoothed,target
20.00,-8.02,-12.73,-8.03,-12.74,12.74,12.18,5.32,4.72,4.71,4.70
20.20,-7.96,-12.66,-7.97,-12.66,12.66,12.17,5.45,4.70,4.70,4.69
20.40,-7.91,-12.60,-7.90,-12.59,12.59,12.16,5.59,4.67,4.69,4.68
20.61,-7.86,-12.54,-7.84,-12.51,12.51,12.15,5.73,4.66,4.68,4.68
20.81,-7.80,-12.46,-7.77,-12.44,12.44,12.13,5.87,4.64,4.67,4.66
21.02,-7.74,-12.40,-7.71,-12.37,12.37,12.12,6.02,4.63,4.66,4.66
21.23,-7.66,-12.31,-7.65,-12.30,12.30,12.10,6.17,4.64,4.65,4.65
21.44,-7.57,-12.23,-7.59,-12.24,12.24,12.08,6.33,4.66,4.64,4.66
21.66,-7.50,-12.14,-7.54,-12.17,12.17,12.06,6.49,4.68,4.64,4.65
21.87,-7.40,-12.04,-7.48,-12.11,12.11,12.04,6.65,4.71,4.63,4.64
22.09,-7.34,-11.97,-7.43,-12.05,12.05,12.02,6.82,4.71,4.62,4.63
22.31,-7.33,-11.96,-7.38,-12.00,12.00,12.00,7.00,4.66,4.62,4.62
22.54,-7.32,-11.94,-7.33,-11.94,11.94,11.98,7.18,4.62,4.61,4.61
22.76,-7.30,-11.92,-7.28,-11.89,11.89,11.96,7.36,4.59,4.61,4.61
22.99,-7.29,-11.90,-7.24,-11.84,11.84,11.93,7.55,4.55,4.61,4.60
23.22,-7.24,-11.83,-7.20,-11.80,11.80,11.91,7.74,4.55,4.60,4.59
23.45,-7.18,-11.78,-7.15,-11.75,11.75,11.88,7.94,4.57,4.60,4.60
23.69,-7.13,-11.71,-7.11,-11.71,11.71,11.85,8.14,4.58,4.60,4.59
23.92,-7.07,-11.66,-7.07,-11.67,11.67,11.82,8.35,4.59,4.59,4.59
24.16,-7.02,-11.62,-7.03,-11.63,11.63,11.79,8.56,4.60,4.59,4.59
24.40,-6.97,-11.58,-6.99,-11.58,11.58,11.76,8.78,4.61,4.59,4.60
24.65,-6.93,-11.53,-6.93,-11.53,11.53,11.73,9.00,4.60,4.59,4.60
24.89,-6.87,-11.47,-6.88,-11.47,11.47,11.70,9.23,4.60,4.60,4.60
25.14,-6.82,-11.42,-6.82,-11.42,11.42,11.66,9.46,4.59,4.60,4.60
25.39,-6.77,-11.37,-6.77,-11.37,11.37,11.63,9.70,4.59,4.60,4.60
25.65,-6.72,-11.32,-6.72,-11.32,11.32,11.59,9.94,4.60,4.60,4.59
25.91,-6.68,-11.28,-6.67,-11.28,11.28,11.56,10.18,4.60,4.60,4.60
26.16,-6.62,-11.23,-6.63,-11.23,11.23,11.52,10.42,4.61,4.60,4.61
26.43,-6.57,-11.17,-6.58,-11.19,11.19,11.48,10.67,4.62,4.60,4.61
26.69,-6.51,-11.12,-6.54,-11.14,11.14,11.44,10.92,4.62,4.60,4.61
26.96,-6.47,-11.07,-6.49,-11.09,11.09,11.40,11.17,4.63,4.60,4.60
27.23,-6.44,-11.04,-6.45,-11.05,11.05,11.36,11.41,4.61,4.60,4.60
27.50,-6.41,-11.01,-6.40,-11.01,11.01,11.32,11.66,4.59,4.60,4.60
27.77,-6.40,-11.01,-6.37,-10.97,10.97,11.28,11.90,4.56,4.60,4.61
28.05,-6.37,-10.98,-6.33,-10.93,10.93,11.23,12.13,4.55,4.60,4.60
28.33,-6.30,-10.89,-6.29,-10.89,10.89,11.19,12.36,4.59,4.60,4.59
28.62,-6.24,-10.82,-6.25,-10.85,10.85,11.14,12.58,4.62,4.60,4.59
28.90,-6.16,-10.76,-6.22,-10.81,10.81,11.10,12.78,4.65,4.59,4.59
29.19,-6.14,-10.74,-6.18,-10.77,10.77,11.05,12.97,4.62,4.59,4.59
29.48,-6.13,-10.72,-6.14,-10.73,10.73,11.00,13.14,4.59,4.59,4.59
29.78,-6.12,-10.71,-6.10,-10.69,10.69,10.96,13.29,4.56,4.58,4.59
30.08,-6.11,-10.71,-6.07,-10.65,10.65,10.91,13.42,4.53,4.58,4.59
30.38,-6.06,-10.63,-6.03,-10.60,10.60,10.86,13.53,4.55,4.57,4.58
30.68,-6.00,-10.57,-6.00,-10.56,10.56,10.81,13.61,4.56,4.56,4.56
30.99,-5.95,-10.51,-5.97,-10.53,10.53,10.76,13.66,4.58,4.56,4.56
31.30,-5.92,-10.46,-5.94,-10.49,10.49,10.70,13.69,4.57,4.55,4.55
31.61,-5.88,-10.43,-5.91,-10.45,10.45,10.65,13.68,4.57,4.54,4.54
31.93,-5.86,-10.38,-5.88,-10.41,10.41,10.60,13.65,4.56,4.53,4.53
32.24,-5.83,-10.36,-5.85,-10.37,10.37,10.54,13.59,4.54,4.53,4.52
32.57,-5.82,-10.33,-5.81,-10.33,10.33,10.49,13.51,4.50,4.52,4.51
32.89,-5.81,-10.32,-5.77,-10.28,10.28,10.43,13.41,4.47,4.51,4.50
33.22,-5.77,-10.27,-5.73,-10.24,10.24,10.38,13.28,4.46,4.50,4.50
33.55,-5.72,-10.22,-5.70,-10.20,10.20,10.32,13.14,4.47,4.50,4.49
33.89,-5.66,-10.16,-5.66,-10.15,10.15,10.27,12.98,4.49,4.49,4.50
34.23,-5.61,-10.10,-5.62,-10.11,10.11,10.21,12.81,4.49,4.49,4.48
34.57,-5.57,-10.05,-5.59,-10.07,10.07,10.15,12.62,4.49,4.48,4.48
34.92,-5.54,-10.00,-5.55,-10.02,10.02,10.09,12.44,4.49,4.47,4.47
35.27,-5.51,-9.98,-5.51,-9.98,9.98,10.03,12.24,4.47,4.46,4.47
35.62,-5.47,-9.93,-5.48,-9.93,9.93,9.97,12.04,4.46,4.45,4.46
35.97,-5.44,-9.89,-5.44,-9.88,9.88,9.91,11.84,4.44,4.44,4.45
36.33,-5.40,-9.84,-5.41,-9.84,9.84,9.85,11.64,4.44,4.43,4.43
36.70,-5.36,-9.78,-5.39,-9.80,9.80,9.79,11.43,4.43,4.41,4.42
37.06,-5.32,-9.72,-5.37,-9.76,9.76,9.73,11.23,4.43,4.39,4.40
37.43,-5.33,-9.70,-5.34,-9.71,9.71,9.66,11.04,4.38,4.37,4.37
37.81,-5.34,-9.70,-5.33,-9.67,9.67,9.60,10.84,4.33,4.34,4.35
38.19,-5.33,-9.66,-5.32,-9.64,9.64,9.54,10.65,4.31,4.32,4.32
38.57,-5.31,-9.61,-5.32,-9.61,9.61,9.47,10.46,4.30,4.29,4.29
38.95,-5.28,-9.55,-5.31,-9.57,9.57,9.41,10.28,4.29,4.26,4.26
39.34,-5.28,-9.51,-5.29,-9.53,9.53,9.34,10.11,4.24,4.24,4.22
39.74,-5.28,-9.49,-5.27,-9.48,9.48,9.28,9.94,4.19,4.21,4.20
40.14,-5.26,-9.44,-5.24,-9.42,9.42,9.21,9.77,4.16,4.18,4.17
40.54,-5.22,-9.37,-5.22,-9.36,9.36,9.14,9.61,4.14,4.15,4.14
40.94,-5.17,-9.29,-5.18,-9.30,9.30,9.08,9.46,4.12,4.12,4.11
41.35,-5.20,-9.29,-5.15,-9.23,9.23,9.01,9.32,4.03,4.09,4.09
41.76,-5.25,-9.30,-5.12,-9.17,9.17,8.94,9.17,3.92,4.06,4.05
42.18,-5.20,-9.23,-5.09,-9.12,9.12,8.88,9.04,3.91,4.03,4.02
42.60,-5.03,-9.03,-5.07,-9.06,9.06,8.81,8.91,4.03,4.00,4.00
43.03,-4.87,-8.84,-5.04,-9.01,9.01,8.74,8.79,4.14,3.97,3.97
43.46,-4.87,-8.81,-5.02,-8.96,8.96,8.67,8.68,4.08,3.94,3.93
43.90,-4.88,-8.79,-4.98,-8.89,8.89,8.60,8.57,4.01,3.91,3.91
44.33,-4.90,-8.78,-4.95,-8.83,8.83,8.53,8.46,3.92,3.88,3.87
44.78,-4.93,-8.77,-4.92,-8.77,8.77,8.46,8.37,3.83,3.84,3.84
45.23,-4.95,-8.78,-4.90,-8.70,8.70,8.39,8.27,3.75,3.81,3.82
45.68,-4.98,-8.76,-4.87,-8.64,8.64,8.32,8.19,3.65,3.77,3.78
46.13,-4.98,-8.71,-4.85,-8.58,8.58,8.25,8.11,3.59,3.73,3.73
46.60,-4.91,-8.60,-4.84,-8.53,8.53,8.18,8.03,3.63,3.69,3.69
47.06,-4.83,-8.49,-4.84,-8.48,8.48,8.10,7.96,3.65,3.64,3.65
47.53,-4.75,-8.37,-4.83,-8.43,8.43,8.03,7.90,3.68,3.60,3.61
48.01,-4.68,-8.24,-4.82,-8.37,8.37,7.96,7.84,3.68,3.55,3.55
48.49,-4.71,-8.22,-4.79,-8.29,8.29,7.89,7.78,3.58,3.50,3.50
48.97,-4.74,-8.20,-4.76,-8.22,8.22,7.81,7.73,3.47,3.46,3.45
49.46,-4.74,-8.15,-4.73,-8.13,8.13,7.74,7.69,3.39,3.41,3.41
49.96,-4.74,-8.08,-4.70,-8.05,8.05,7.67,7.65,3.31,3.36,3.34
50.46,-4.77,-8.07,-4.67,-7.98,7.98,7.59,7.61,3.20,3.30,3.29
50.96,-4.80,-8.05,-4.65,-7.91,7.91,7.52,7.57,3.10,3.25,3.25
51.47,-4.65,-7.86,-4.64,-7.84,7.84,7.44,7.54,3.18,3.20,3.20
51.99,-4.49,-7.63,-4.62,-7.77,7.77,7.37,7.51,3.28,3.15,3.15
52.51,-4.51,-7.61,-4.60,-7.70,7.70,7.29,7.48,3.19,3.10,3.10
53.03,-4.54,-7.61,-4.59,-7.63,7.63,7.22,7.46,3.09,3.04,3.06
53.56,-4.54,-7.55,-4.56,-7.56,7.56,7.14,7.43,3.01,2.99,3.00
54.10,-4.54,-7.49,-4.54,-7.48,7.48,7.07,7.41,2.94,2.94,2.94
54.64,-4.54,-7.44,-4.51,-7.41,7.41,6.99,7.39,2.86,2.89,2.89
55.18,-4.54,-7.38,-4.50,-7.34,7.34,6.92,7.37,2.80,2.85,2.83
55.74,-4.53,-7.31,-4.48,-7.28,7.28,6.84,7.34,2.75,2.80,2.78
56.29,-4.48,-7.22,-4.47,-7.22,7.22,6.76,7.32,2.73,2.75,2.74
56.86,-4.40,-7.09,-4.46,-7.16,7.16,6.69,7.29,2.76,2.70,2.69
57.42,-4.40,-7.03,-4.46,-7.11,7.11,6.61,7.26,2.70,2.65,2.63
58.00,-4.43,-7.02,-4.46,-7.05,7.05,6.53,7.23,2.62,2.59,2.59
58.58,-4.43,-6.99,-4.44,-6.98,6.98,6.46,7.20,2.54,2.54,2.55
59.16,-4.43,-6.94,-4.42,-6.90,6.90,6.38,7.16,2.47,2.48,2.50
59.76,-4.43,-6.89,-4.40,-6.83,6.83,6.30,7.12,2.39,2.42,2.45
60.35,-4.43,-6.82,-4.39,-6.75,6.75,6.22,7.07,2.32,2.37,2.38
60.96,-4.43,-6.75,-4.37,-6.67,6.67,6.15,7.02,2.24,2.31,2.32
61.57,-4.33,-6.57,-4.35,-6.60,6.60,6.07,6.96,2.27,2.24,2.25
62.18,-4.28,-6.45,-4.34,-6.52,6.52,5.99,6.90,2.24,2.18,2.17
62.80,-4.39,-6.49,-4.32,-6.44,6.44,5.91,6.83,2.04,2.11,2.10
63.43,-4.34,-6.37,-4.32,-6.36,6.36,5.83,6.76,2.02,2.05,2.03
64.07,-4.24,-6.21,-4.30,-6.28,6.28,5.76,6.68,2.05,1.98,1.97
64.71,-4.23,-6.14,-4.28,-6.19,6.19,5.68,6.60,1.96,1.91,1.90
65.35,-4.23,-6.08,-4.27,-6.11,6.11,5.60,6.51,1.87,1.84,1.84
66.01,-4.23,-6.00,-4.25,-6.02,6.02,5.52,6.42,1.78,1.77,1.77
66.67,-4.23,-5.95,-4.23,-5.93,5.93,5.44,6.32,1.70,1.70,1.72
67.33,-4.23,-5.87,-4.22,-5.85,5.85,5.36,6.22,1.61,1.63,1.63
68.01,-4.23,-5.80,-4.20,-5.76,5.76,5.28,6.11,1.53,1.56,1.57
68.69,-4.23,-5.72,-4.20,-5.69,5.69,5.20,6.00,1.45,1.49,1.49
69.37,-4.23,-5.66,-4.18,-5.60,5.60,5.12,5.89,1.37,1.42,1.43
70.07,-4.22,-5.57,-4.17,-5.51,5.51,5.04,5.77,1.29,1.35,1.35
70.77,-4.11,-5.39,-4.16,-5.44,5.44,4.96,5.65,1.32,1.27,1.28
71.48,-4.08,-5.29,-4.16,-5.36,5.36,4.88,5.54,1.27,1.20,1.21
72.19,-4.10,-5.23,-4.15,-5.28,5.28,4.80,5.41,1.17,1.13,1.12
72.91,-4.13,-5.18,-4.14,-5.19,5.19,4.72,5.29,1.06,1.05,1.05
73.64,-4.13,-5.11,-4.14,-5.12,5.12,4.64,5.17,0.98,0.98,0.97
74.38,-4.13,-5.04,-4.14,-5.05,5.05,4.56,5.05,0.91,0.91,0.90
75.12,-4.13,-4.96,-4.14,-4.98,4.98,4.48,4.92,0.84,0.84,0.82
75.87,-4.13,-4.90,-4.13,-4.90,4.90,4.40,4.80,0.76,0.77,0.76
76.63,-4.13,-4.83,-4.12,-4.82,4.82,4.32,4.68,0.69,0.70,0.69
77.40,-4.13,-4.76,-4.11,-4.75,4.75,4.24,4.56,0.61,0.63,0.63
78.17,-4.13,-4.69,-4.11,-4.67,4.67,4.16,4.44,0.54,0.56,0.56
78.95,-4.13,-4.64,-4.11,-4.61,4.61,4.08,4.32,0.47,0.50,0.50
79.74,-4.13,-4.57,-4.11,-4.54,4.54,4.00,4.20,0.40,0.43,0.43
80.54,-4.13,-4.50,-4.10,-4.46,4.46,3.92,4.08,0.33,0.36,0.37
81.35,-4.12,-4.42,-4.09,-4.39,4.39,3.84,3.97,0.26,0.30,0.30
82.16,-4.07,-4.31,-4.08,-4.31,4.31,3.76,3.86,0.23,0.23,0.24
82.98,-3.91,-4.08,-4.07,-4.23,4.23,3.68,3.75,0.31,0.16,0.17
83.81,-3.98,-4.08,-4.05,-4.15,4.15,3.60,3.64,0.16,0.09,0.10
84.65,-4.02,-4.05,-4.04,-4.06,4.06,3.51,3.54,0.04,0.02,0.02
85.50,-4.04,-3.98,-4.02,-3.97,3.97,3.43,3.43,-0.07,-0.05,-0.06
86.35,-4.09,-3.97,-4.01,-3.89,3.89,3.35,3.33,-0.21,-0.12,-0.13
87.22,-4.11,-3.92,-3.99,-3.80,3.80,3.27,3.23,-0.31,-0.19,-0.19
88.09,-3.98,-3.71,-3.98,-3.71,3.71,3.19,3.14,-0.26,-0.27,-0.27
88.97,-3.93,-3.60,-3.97,-3.63,3.63,3.11,3.04,-0.31,-0.34,-0.34
89.86,-3.93,-3.51,-3.96,-3.54,3.54,3.03,2.95,-0.39,-0.42,-0.42
90.76,-3.93,-3.44,-3.95,-3.45,3.45,2.95,2.86,-0.48,-0.50,-0.49
91.66,-3.93,-3.35,-3.95,-3.37,3.37,2.87,2.77,-0.56,-0.58,-0.58
92.58,-3.92,-3.27,-3.95,-3.29,3.29,2.79,2.68,-0.64,-0.66,-0.65
93.51,-3.92,-3.19,-3.94,-3.19,3.19,2.70,2.60,-0.73,-0.74,-0.74
94.44,-3.92,-3.11,-3.94,-3.10,3.10,2.62,2.52,-0.82,-0.83,-0.82
95.39,-3.93,-3.02,-3.94,-3.02,3.02,2.54,2.44,-0.91,-0.92,-0.91
96.34,-3.93,-2.93,-3.94,-2.93,2.93,2.46,2.36,-1.00,-1.01,-1.00
97.30,-3.93,-2.84,-3.94,-2.84,2.84,2.38,2.28,-1.09,-1.10,-1.10
98.28,-3.94,-2.75,-3.95,-2.76,2.76,2.30,2.21,-1.18,-1.19,-1.19
99.26,-3.96,-2.67,-3.96,-2.67,2.67,2.22,2.13,-1.29,-1.28,-1.30
100.25,-3.98,-2.59,-3.96,-2.58,2.58,2.14,2.06,-1.40,-1.38,-1.39
101.25,-4.00,-2.53,-3.97,-2.49,2.49,2.06,1.99,-1.51,-1.47,-1.47
102.27,-4.01,-2.44,-3.97,-2.41,2.41,1.98,1.92,-1.61,-1.57,-1.57
103.29,-4.02,-2.36,-3.98,-2.32,2.32,1.90,1.85,-1.70,-1.66,-1.67
104.32,-4.02,-2.27,-3.99,-2.24,2.24,1.81,1.79,-1.79,-1.76,-1.75
105.37,-3.94,-2.10,-4.01,-2.15,2.15,1.73,1.72,-1.79,-1.85,-1.85
106.42,-3.89,-1.95,-4.02,-2.07,2.07,1.65,1.66,-1.82,-1.94,-1.94
107.48,-3.98,-1.94,-4.03,-1.99,1.99,1.57,1.60,-1.99,-2.04,-2.05
108.56,-4.04,-1.92,-4.04,-1.91,1.91,1.49,1.53,-2.13,-2.13,-2.12
109.64,-4.06,-1.85,-4.05,-1.83,1.83,1.41,1.47,-2.24,-2.22,-2.22
110.74,-4.07,-1.76,-4.05,-1.74,1.74,1.33,1.41,-2.33,-2.31,-2.31
111.85,-4.09,-1.70,-4.07,-1.67,1.67,1.25,1.35,-2.43,-2.40,-2.40
112.97,-4.10,-1.62,-4.08,-1.59,1.59,1.17,1.29,-2.51,-2.49,-2.48
114.10,-4.11,-1.55,-4.09,-1.52,1.52,1.09,1.24,-2.60,-2.57,-2.57
115.24,-4.11,-1.46,-4.10,-1.45,1.45,1.01,1.18,-2.67,-2.66,-2.66
116.39,-4.11,-1.36,-4.12,-1.38,1.38,0.93,1.12,-2.74,-2.74,-2.75
117.55,-4.10,-1.28,-4.13,-1.31,1.31,0.85,1.07,-2.80,-2.82,-2.83
118.73,-4.10,-1.19,-4.14,-1.24,1.24,0.77,1.01,-2.86,-2.90,-2.92
119.92,-4.09,-1.11,-4.14,-1.16,1.16,0.69,0.95,-2.93,-2.98,-2.99
121.12,-4.10,-1.05,-4.12,-1.07,1.07,0.61,0.90,-3.04,-3.06,-3.05
122.33,-4.16,-1.03,-4.13,-0.99,0.99,0.53,0.84,-3.17,-3.13,-3.13
123.55,-4.19,-1.00,-4.13,-0.92,0.92,0.45,0.79,-3.27,-3.21,-3.20
124.79,-4.03,-0.76,-4.11,-0.83,0.83,0.38,0.73,-3.19,-3.28,-3.27
126.03,-4.12,-0.78,-4.09,-0.74,0.74,0.30,0.68,-3.39,-3.36,-3.35
127.29,-4.10,-0.68,-4.06,-0.63,0.63,0.22,0.62,-3.47,-3.43,-3.42
128.57,-4.06,-0.57,-4.03,-0.53,0.53,0.14,0.56,-3.53,-3.50,-3.50
129.85,-4.04,-0.47,-3.99,-0.42,0.42,0.06,0.51,-3.62,-3.57,-3.57
131.15,-4.01,-0.37,-3.96,-0.31,0.31,-0.02,0.45,-3.70,-3.64,-3.65
132.46,-3.85,-0.13,-3.92,-0.20,0.20,-0.10,0.40,-3.65,-3.72,-3.72
133.79,-3.88,-0.09,-3.88,-0.09,0.09,-0.17,0.34,-3.79,-3.79,-3.79
135.12,-4.03,-0.17,-3.84,0.02,-0.02,-0.25,0.28,-4.05,-3.86,-3.87
136.48,-3.71,0.22,-3.80,0.13,-0.13,-0.33,0.22,-3.83,-3.93,-3.93
137.84,-3.57,0.42,-3.77,0.23,-0.23,-0.41,0.17,-3.80,-4.00,-3.99
139.22,-3.66,0.42,-3.75,0.33,-0.33,-0.48,0.11,-3.99,-4.07,-4.08
140.61,-3.71,0.42,-3.72,0.43,-0.43,-0.56,0.05,-4.14,-4.14,-4.14
142.02,-3.71,0.50,-3.70,0.51,-0.51,-0.64,-0.01,-4.23,-4.21,-4.21
143.44,-3.71,0.57,-3.69,0.59,-0.59,-0.72,-0.07,-4.31,-4.28,-4.29
144.87,-3.71,0.64,-3.68,0.66,-0.66,-0.79,-0.13,-4.38,-4.35,-4.35
146.32,-3.71,0.70,-3.70,0.72,-0.72,-0.87,-0.19,-4.44,-4.42,-4.41
147.78,-3.71,0.77,-3.71,0.77,-0.77,-0.94,-0.25,-4.49,-4.48,-4.48
149.26,-3.71,0.84,-3.71,0.84,-0.84,-1.02,-0.31,-4.55,-4.55,-4.55
150.75,-3.71,0.92,-3.72,0.90,-0.90,-1.10,-0.38,-4.61,-4.62,-4.63
152.26,-3.71,0.97,-3.76,0.93,-0.93,-1.17,-0.44,-4.64,-4.69,-4.69
153.78,-3.71,1.04,-3.78,0.98,-0.98,-1.25,-0.51,-4.69,-4.76,-4.75
155.32,-3.80,1.01,-3.78,1.04,-1.04,-1.32,-0.57,-4.85,-4.82,-4.82
156.88,-3.79,1.09,-3.78,1.11,-1.11,-1.40,-0.64,-4.91,-4.89,-4.89
158.44,-3.83,1.13,-3.79,1.18,-1.18,-1.47,-0.70,-5.01,-4.96,-4.96
160.03,-3.85,1.18,-3.79,1.25,-1.25,-1.55,-0.77,-5.10,-5.03,-5.03
161.63,-3.85,1.25,-3.78,1.32,-1.32,-1.62,-0.84,-5.18,-5.10,-5.10
163.24,-3.71,1.46,-3.78,1.40,-1.40,-1.70,-0.91,-5.11,-5.17,-5.18
164.88,-3.73,1.51,-3.77,1.48,-1.48,-1.77,-0.98,-5.21,-5.25,-5.24
166.53,-3.83,1.48,-3.77,1.55,-1.55,-1.84,-1.05,-5.38,-5.32,-5.32
168.19,-3.81,1.57,-3.76,1.62,-1.62,-1.92,-1.12,-5.44,-5.38,-5.38
169.87,-3.67,1.78,-3.74,1.71,-1.71,-1.99,-1.20,-5.39,-5.45,-5.45
171.57,-3.64,1.88,-3.72,1.81,-1.81,-2.06,-1.27,-5.45,-5.52,-5.53
173.29,-3.64,1.95,-3.69,1.90,-1.90,-2.13,-1.35,-5.55,-5.59,-5.60
175.02,-3.65,2.00,-3.67,1.99,-1.99,-2.21,-1.43,-5.64,-5.66,-5.65
176.77,-3.65,2.07,-3.64,2.08,-2.08,-2.28,-1.51,-5.73,-5.72,-5.72
178.54,-3.65,2.13,-3.62,2.16,-2.16,-2.35,-1.59,-5.82,-5.78,-5.79
180.32,-3.65,2.20,-3.60,2.25,-2.25,-2.42,-1.67,-5.90,-5.84,-5.85
182.13,-3.64,2.26,-3.58,2.32,-2.32,-2.49,-1.75,-5.97,-5.90,-5.91
183.95,-3.63,2.32,-3.55,2.41,-2.41,-2.56,-1.83,-6.04,-5.96,-5.96
185.79,-3.41,2.60,-3.53,2.49,-2.49,-2.63,-1.92,-5.91,-6.02,-6.02
187.65,-3.42,2.65,-3.51,2.56,-2.56,-2.70,-2.00,-5.99,-6.07,-6.07
189.52,-3.48,2.64,-3.50,2.63,-2.63,-2.77,-2.09,-6.11,-6.13,-6.13
191.42,-3.48,2.68,-3.48,2.70,-2.70,-2.84,-2.18,-6.18,-6.18,-6.17
193.33,-3.46,2.76,-3.45,2.77,-2.77,-2.91,-2.27,-6.24,-6.23,-6.22
195.27,-3.45,2.82,-3.43,2.85,-2.85,-2.98,-2.36,-6.30,-6.28,-6.28
197.22,-3.43,2.90,-3.43,2.90,-2.90,-3.05,-2.45,-6.33,-6.33,-6.33
199.19,-3.42,2.95,-3.43,2.95,-2.95,-3.11,-2.54,-6.37,-6.38,-6.38
201.18,-3.41,3.02,-3.43,2.99,-2.99,-3.18,-2.64,-6.41,-6.42,-6.43
203.19,-3.41,3.06,-3.43,3.04,-3.04,-3.25,-2.73,-6.45,-6.47,-6.47
205.23,-3.41,3.10,-3.44,3.08,-3.08,-3.31,-2.82,-6.49,-6.52,-6.51
207.28,-3.41,3.14,-3.44,3.12,-3.12,-3.38,-2.91,-6.54,-6.56,-6.55
209.35,-3.41,3.19,-3.43,3.18,-3.18,-3.45,-3.01,-6.60,-6.61,-6.60
211.44,-3.41,3.24,-3.41,3.24,-3.24,-3.51,-3.10,-6.65,-6.65,-6.65
213.56,-3.42,3.26,-3.42,3.27,-3.27,-3.58,-3.19,-6.70,-6.70,-6.69
215.69,-3.54,3.19,-3.44,3.30,-3.30,-3.64,-3.28,-6.85,-6.74,-6.73
217.85,-3.56,3.20,-3.43,3.34,-3.34,-3.71,-3.37,-6.91,-6.78,-6.77
220.03,-3.40,3.42,-3.43,3.39,-3.39,-3.77,-3.46,-6.79,-6.81,-6.82
222.23,-3.33,3.52,-3.42,3.43,-3.43,-3.83,-3.54,-6.76,-6.85,-6.86
224.45,-3.33,3.56,-3.40,3.48,-3.48,-3.90,-3.63,-6.82,-6.88,-6.89
226.70,-3.33,3.59,-3.38,3.53,-3.53,-3.96,-3.71,-6.87,-6.91,-6.92
228.96,-3.32,3.62,-3.37,3.57,-3.57,-4.02,-3.79,-6.89,-6.94,-6.94
231.25,-3.36,3.60,-3.36,3.60,-3.60,-4.08,-3.86,-6.97,-6.97,-6.96
233.57,-3.51,3.48,-3.35,3.64,-3.64,-4.14,-3.93,-7.16,-6.99,-6.99
235.90,-3.50,3.51,-3.33,3.68,-3.68,-4.20,-4.00,-7.19,-7.01,-7.01
238.26,-3.21,3.82,-3.30,3.72,-3.72,-4.26,-4.06,-6.94,-7.02,-7.03
240.64,-3.10,3.93,-3.28,3.76,-3.76,-4.32,-4.12,-6.87,-7.04,-7.03
243.05,-3.20,3.84,-3.26,3.80,-3.80,-4.38,-4.17,-7.00,-7.05,-7.05
245.48,-3.23,3.83,-3.24,3.82,-3.82,-4.44,-4.22,-7.06,-7.06,-7.07
247.93,-3.20,3.88,-3.22,3.85,-3.85,-4.50,-4.26,-7.06,-7.07,-7.08
250.41,-3.29,3.78,-3.20,3.88,-3.88,-4.56,-4.30,-7.18,-7.08,-7.08
252.92,-3.33,3.75,-3.18,3.92,-3.92,-4.61,-4.34,-7.25,-7.10,-7.08
255.45,-3.10,4.00,-3.15,3.96,-3.96,-4.67,-4.37,-7.07,-7.11,-7.11
258.00,-3.04,4.07,-3.11,4.01,-4.01,-4.73,-4.39,-7.05,-7.12,-7.11
260.58,-3.04,4.08,-3.08,4.05,-4.05,-4.78,-4.41,-7.09,-7.13,-7.13
263.19,-3.04,4.09,-3.07,4.08,-4.08,-4.84,-4.43,-7.12,-7.15,-7.14
265.82,-3.04,4.12,-3.06,4.10,-4.10,-4.89,-4.44,-7.15,-7.16,-7.16
268.48,-3.04,4.13,-3.04,4.14,-4.14,-4.95,-4.45,-7.18,-7.18,-7.17
271.16,-3.05,4.14,-3.01,4.18,-4.18,-5.00,-4.45,-7.24,-7.19,-7.20
273.87,-3.05,4.15,-2.99,4.22,-4.22,-5.05,-4.45,-7.28,-7.21,-7.21
276.61,-3.01,4.21,-2.97,4.26,-4.26,-5.11,-4.45,-7.27,-7.22,-7.23
279.38,-2.83,4.42,-2.95,4.29,-4.29,-5.16,-4.45,-7.13,-7.24,-7.26
282.17,-2.87,4.38,-2.95,4.30,-4.30,-5.21,-4.44,-7.18,-7.25,-7.26
284.99,-2.93,4.33,-2.95,4.31,-4.31,-5.26,-4.43,-7.24,-7.26,-7.27
287.84,-2.93,4.33,-2.94,4.33,-4.33,-5.31,-4.43,-7.27,-7.27,-7.27
290.72,-2.92,4.36,-2.91,4.37,-4.37,-5.36,-4.42,-7.29,-7.28,-7.29
293.63,-2.91,4.37,-2.88,4.40,-4.40,-5.41,-4.41,-7.32,-7.28,-7.29
296.57,-2.90,4.38,-2.87,4.42,-4.42,-5.46,-4.40,-7.32,-7.29,-7.28
299.53,-2.89,4.40,-2.86,4.43,-4.43,-5.50,-4.40,-7.33,-7.29,-7.29
302.53,-2.87,4.42,-2.85,4.44,-4.44,-5.55,-4.39,-7.32,-7.30,-7.29
305.55,-2.86,4.43,-2.85,4.46,-4.46,-5.60,-4.38,-7.32,-7.30,-7.30
308.61,-2.86,4.43,-2.85,4.46,-4.46,-5.64,-4.38,-7.32,-7.31,-7.29
311.69,-2.85,4.46,-2.85,4.46,-4.46,-5.69,-4.38,-7.31,-7.31,-7.31
314.81,-2.68,4.62,-2.82,4.49,-4.49,-5.73,-4.38,-7.18,-7.31,-7.31
317.96,-2.60,4.72,-2.79,4.53,-4.53,-5.77,-4.38,-7.13,-7.32,-7.32
321.14,-2.73,4.59,-2.76,4.56,-4.56,-5.82,-4.39,-7.29,-7.32,-7.32
324.35,-2.89,4.43,-2.73,4.59,-4.59,-5.86,-4.40,-7.49,-7.32,-7.33
327.59,-2.92,4.40,-2.70,4.62,-4.62,-5.90,-4.41,-7.55,-7.33,-7.32
330.87,-2.72,4.60,-2.68,4.66,-4.66,-5.94,-4.42,-7.38,-7.33,-7.33
334.18,-2.65,4.69,-2.65,4.68,-4.68,-5.98,-4.44,-7.34,-7.34,-7.34
337.52,-2.65,4.68,-2.63,4.70,-4.70,-6.02,-4.46,-7.36,-7.34,-7.34
340.90,-2.65,4.69,-2.62,4.71,-4.71,-6.06,-4.48,-7.37,-7.34,-7.34
344.30,-2.43,4.90,-2.61,4.73,-4.73,-6.10,-4.51,-7.17,-7.34,-7.34
347.75,-2.37,4.96,-2.58,4.75,-4.75,-6.14,-4.54,-7.13,-7.34,-7.33
351.23,-2.50,4.84,-2.56,4.78,-4.78,-6.17,-4.57,-7.28,-7.34,-7.35
354.74,-2.55,4.78,-2.52,4.81,-4.81,-6.21,-4.61,-7.37,-7.33,-7.33
358.28,-2.54,4.79,-2.48,4.85,-4.85,-6.24,-4.65,-7.40,-7.33,-7.34
361.87,-2.54,4.79,-2.46,4.87,-4.87,-6.28,-4.70,-7.42,-7.33,-7.33
365.49,-2.53,4.79,-2.46,4.86,-4.86,-6.31,-4.75,-7.40,-7.32,-7.32
369.14,-2.52,4.79,-2.48,4.85,-4.85,-6.34,-4.80,-7.37,-7.32,-7.32
372.83,-2.51,4.80,-2.46,4.85,-4.85,-6.38,-4.85,-7.37,-7.32,-7.31
376.56,-2.40,4.91,-2.45,4.87,-4.87,-6.41,-4.91,-7.28,-7.32,-7.31
380.33,-2.23,5.08,-2.43,4.89,-4.89,-6.44,-4.98,-7.12,-7.32,-7.32
384.13,-2.26,5.05,-2.41,4.91,-4.91,-6.47,-5.04,-7.17,-7.32,-7.31
387.97,-2.36,4.95,-2.40,4.93,-4.93,-6.50,-5.11,-7.29,-7.32,-7.31
391.85,-2.44,4.87,-2.37,4.95,-4.95,-6.52,-5.18,-7.40,-7.33,-7.32
395.77,-2.54,4.78,-2.34,4.99,-4.99,-6.55,-5.26,-7.54,-7.33,-7.33
399.73,-2.53,4.80,-2.30,5.04,-5.04,-6.58,-5.33,-7.58,-7.34,-7.33
403.72,-2.33,4.99,-2.26,5.09,-5.09,-6.60,-5.41,-7.42,-7.34,-7.32
407.76,-2.07,5.27,-2.23,5.11,-5.11,-6.63,-5.49,-7.19,-7.35,-7.35
411.84,-1.99,5.35,-2.22,5.13,-5.13,-6.65,-5.57,-7.13,-7.35,-7.35
415.96,-2.14,5.21,-2.21,5.14,-5.14,-6.67,-5.66,-7.29,-7.35,-7.35
420.12,-2.19,5.17,-2.20,5.15,-5.15,-6.70,-5.74,-7.35,-7.35,-7.36
424.32,-2.19,5.16,-2.16,5.18,-5.18,-6.72,-5.82,-7.37,-7.34,-7.36
428.56,-2.18,5.15,-2.11,5.22,-5.22,-6.74,-5.91,-7.41,-7.33,-7.34
432.85,-1.93,5.39,-2.04,5.27,-5.27,-6.76,-5.99,-7.21,-7.31,-7.32
437.18,-1.81,5.50,-1.98,5.31,-5.31,-6.77,-6.07,-7.12,-7.29,-7.31
441.55,-1.94,5.33,-1.92,5.33,-5.33,-6.79,-6.15,-7.28,-7.26,-7.27
445.96,-2.12,5.11,-1.87,5.35,-5.35,-6.81,-6.23,-7.47,-7.22,-7.24
