frequency,raw,error,smoothed,error_smoothed,equalization,parametric_eq,fixed_band_eq,equalized_raw,equalized_smoothed,target
20.00,6.21,-5.68,6.23,-5.67,5.67,5.33,2.02,11.88,11.91,11.88
20.20,6.29,-5.64,6.31,-5.63,5.63,5.31,2.08,11.92,11.94,11.92
20.40,6.38,-5.58,6.38,-5.58,5.58,5.30,2.14,11.96,11.97,11.96
20.61,6.46,-5.54,6.46,-5.54,5.54,5.29,2.21,11.99,12.00,11.99
20.81,6.54,-5.49,6.53,-5.50,5.50,5.28,2.27,12.03,12.02,12.03
21.02,6.61,-5.46,6.59,-5.45,5.45,5.26,2.34,12.06,12.05,12.07
21.23,6.68,-5.41,6.66,-5.41,5.41,5.25,2.41,12.09,12.07,12.09
21.44,6.75,-5.36,6.72,-5.37,5.37,5.23,2.48,12.12,12.09,12.11
21.66,6.81,-5.32,6.78,-5.33,5.33,5.22,2.55,12.14,12.11,12.13
21.87,6.87,-5.27,6.84,-5.29,5.29,5.21,2.63,12.16,12.13,12.14
22.09,6.92,-5.24,6.90,-5.26,5.26,5.19,2.70,12.17,12.15,12.16
22.31,6.97,-5.20,6.95,-5.22,5.22,5.18,2.78,12.19,12.17,12.17
22.54,7.00,-5.18,6.99,-5.18,5.18,5.16,2.86,12.18,12.18,12.18
22.76,7.02,-5.17,7.04,-5.15,5.15,5.14,2.95,12.17,12.19,12.19
22.99,7.06,-5.13,7.08,-5.12,5.12,5.13,3.03,12.17,12.20,12.19
23.22,7.10,-5.10,7.12,-5.08,5.08,5.11,3.12,12.18,12.20,12.20
23.45,7.15,-5.06,7.16,-5.05,5.05,5.09,3.21,12.20,12.21,12.20
23.69,7.20,-5.02,7.20,-5.02,5.02,5.08,3.30,12.22,12.22,12.21
23.92,7.24,-4.99,7.24,-4.99,4.99,5.06,3.40,12.23,12.23,12.22
24.16,7.28,-4.96,7.28,-4.96,4.96,5.04,3.49,12.24,12.24,12.24
24.40,7.33,-4.93,7.32,-4.93,4.93,5.02,3.59,12.26,12.25,12.26
24.65,7.38,-4.88,7.36,-4.90,4.90,5.00,3.68,12.27,12.26,12.26
24.89,7.41,-4.86,7.40,-4.86,4.86,4.98,3.78,12.27,12.27,12.27
25.14,7.45,-4.83,7.45,-4.83,4.83,4.96,3.88,12.28,12.28,12.28
25.39,7.49,-4.80,7.49,-4.80,4.80,4.94,3.98,12.29,12.29,12.29
25.65,7.53,-4.78,7.53,-4.77,4.77,4.92,4.08,12.30,12.30,12.31
25.91,7.56,-4.75,7.57,-4.74,4.74,4.90,4.18,12.30,12.31,12.31
26.16,7.60,-4.72,7.60,-4.72,4.72,4.88,4.28,12.31,12.32,12.31
26.43,7.64,-4.69,7.64,-4.69,4.69,4.86,4.38,12.33,12.33,12.32
26.69,7.68,-4.65,7.67,-4.66,4.66,4.84,4.48,12.34,12.34,12.33
26.96,7.72,-4.63,7.71,-4.64,4.64,4.82,4.58,12.36,12.34,12.35
27.23,7.76,-4.60,7.74,-4.61,4.61,4.79,4.67,12.37,12.35,12.36
27.50,7.79,-4.58,7.77,-4.59,4.59,4.77,4.77,12.38,12.36,12.37
27.77,7.81,-4.56,7.80,-4.57,4.57,4.75,4.85,12.37,12.37,12.37
28.05,7.82,-4.57,7.84,-4.54,4.54,4.73,4.94,12.36,12.38,12.38
28.33,7.85,-4.53,7.87,-4.52,4.52,4.70,5.02,12.37,12.39,12.38
28.62,7.88,-4.51,7.90,-4.50,4.50,4.68,5.09,12.38,12.39,12.39
28.90,7.92,-4.48,7.92,-4.48,4.48,4.65,5.16,12.40,12.40,12.40
29.19,7.96,-4.44,7.95,-4.46,4.46,4.63,5.23,12.42,12.41,12.40
29.48,7.99,-4.44,7.98,-4.44,4.44,4.61,5.29,12.42,12.42,12.43
29.78,8.03,-4.40,8.01,-4.41,4.41,4.58,5.34,12.44,12.42,12.42
30.08,8.06,-4.37,8.04,-4.39,4.39,4.55,5.38,12.45,12.43,12.43
30.38,8.08,-4.35,8.07,-4.37,4.37,4.53,5.41,12.44,12.43,12.43
30.68,8.10,-4.35,8.10,-4.34,4.34,4.50,5.44,12.44,12.44,12.45
30.99,8.11,-4.34,8.14,-4.31,4.31,4.48,5.46,12.42,12.45,12.45
31.30,8.15,-4.31,8.17,-4.28,4.28,4.45,5.47,12.43,12.45,12.45
31.61,8.19,-4.27,8.21,-4.25,4.25,4.42,5.47,12.44,12.46,12.46
31.93,8.23,-4.24,8.25,-4.22,4.22,4.39,5.46,12.45,12.47,12.47
32.24,8.28,-4.19,8.28,-4.20,4.20,4.37,5.45,12.47,12.48,12.47
32.57,8.32,-4.16,8.31,-4.17,4.17,4.34,5.42,12.49,12.48,12.48
32.89,8.36,-4.13,8.35,-4.14,4.14,4.31,5.39,12.50,12.49,12.49
33.22,8.40,-4.10,8.38,-4.12,4.12,4.28,5.35,12.51,12.50,12.50
33.55,8.44,-4.07,8.41,-4.09,4.09,4.25,5.31,12.53,12.50,12.50
33.89,8.47,-4.04,8.44,-4.06,4.06,4.22,5.25,12.53,12.51,12.51
34.23,8.49,-4.03,8.47,-4.04,4.04,4.20,5.20,12.53,12.51,12.52
34.57,8.51,-4.02,8.50,-4.02,4.02,4.17,5.13,12.52,12.52,12.52
34.92,8.52,-4.00,8.52,-4.00,4.00,4.14,5.07,12.52,12.52,12.52
35.27,8.54,-3.99,8.55,-3.98,3.98,4.11,4.99,12.52,12.53,12.53
35.62,8.56,-3.97,8.57,-3.96,3.96,4.07,4.92,12.52,12.53,12.53
35.97,8.58,-3.95,8.59,-3.94,3.94,4.04,4.84,12.52,12.53,12.53
36.33,8.61,-3.93,8.61,-3.92,3.92,4.01,4.76,12.53,12.53,12.53
36.70,8.63,-3.90,8.63,-3.90,3.90,3.98,4.68,12.53,12.53,12.53
37.06,8.65,-3.89,8.65,-3.88,3.88,3.95,4.60,12.53,12.53,12.53
37.43,8.67,-3.87,8.67,-3.86,3.86,3.92,4.51,12.52,12.53,12.54
37.81,8.70,-3.84,8.70,-3.83,3.83,3.89,4.43,12.53,12.53,12.53
38.19,8.72,-3.81,8.72,-3.80,3.80,3.85,4.35,12.52,12.53,12.53
38.57,8.75,-3.78,8.75,-3.77,3.77,3.82,4.26,12.52,12.52,12.52
38.95,8.78,-3.74,8.77,-3.75,3.75,3.79,4.18,12.53,12.52,12.52
39.34,8.81,-3.70,8.80,-3.72,3.72,3.75,4.10,12.53,12.52,12.51
39.74,8.83,-3.68,8.82,-3.69,3.69,3.72,4.02,12.52,12.51,12.51
40.14,8.85,-3.66,8.85,-3.67,3.67,3.69,3.94,12.51,12.51,12.51
40.54,8.87,-3.64,8.87,-3.64,3.64,3.65,3.86,12.51,12.51,12.50
40.94,8.89,-3.61,8.89,-3.61,3.61,3.62,3.79,12.50,12.50,12.50
41.35,8.92,-3.57,8.91,-3.58,3.58,3.58,3.71,12.50,12.50,12.49
41.76,8.94,-3.55,8.94,-3.55,3.55,3.55,3.64,12.49,12.49,12.49
42.18,8.97,-3.53,8.96,-3.53,3.53,3.51,3.57,12.49,12.49,12.50
42.60,8.99,-3.50,8.99,-3.50,3.50,3.48,3.51,12.49,12.48,12.49
43.03,9.00,-3.49,9.01,-3.47,3.47,3.44,3.44,12.47,12.48,12.49
43.46,9.03,-3.45,9.04,-3.44,3.44,3.41,3.38,12.46,12.47,12.48
43.90,9.05,-3.42,9.06,-3.41,3.41,3.37,3.33,12.45,12.47,12.46
44.33,9.08,-3.39,9.09,-3.37,3.37,3.34,3.27,12.45,12.47,12.46
44.78,9.11,-3.35,9.12,-3.34,3.34,3.30,3.22,12.45,12.46,12.45
45.23,9.15,-3.30,9.15,-3.31,3.31,3.26,3.16,12.46,12.46,12.44
45.68,9.17,-3.28,9.17,-3.28,3.28,3.23,3.12,12.45,12.45,12.44
46.13,9.20,-3.24,9.19,-3.25,3.25,3.19,3.07,12.45,12.44,12.43
46.60,9.23,-3.22,9.21,-3.23,3.23,3.15,3.03,12.45,12.44,12.44
47.06,9.25,-3.18,9.23,-3.20,3.20,3.12,2.99,12.45,12.43,12.43
47.53,9.26,-3.16,9.24,-3.18,3.18,3.08,2.95,12.43,12.42,12.42
48.01,9.27,-3.16,9.25,-3.15,3.15,3.04,2.91,12.42,12.41,12.43
48.49,9.27,-3.14,9.26,-3.14,3.14,3.00,2.88,12.40,12.40,12.41
48.97,9.27,-3.11,9.26,-3.12,3.12,2.97,2.84,12.39,12.38,12.38
49.46,9.26,-3.11,9.26,-3.11,3.11,2.93,2.81,12.37,12.37,12.37
49.96,9.25,-3.10,9.26,-3.10,3.10,2.89,2.78,12.34,12.36,12.35
50.46,9.25,-3.09,9.25,-3.09,3.09,2.85,2.76,12.33,12.34,12.34
50.96,9.25,-3.08,9.25,-3.07,3.07,2.81,2.73,12.32,12.32,12.33
51.47,9.25,-3.04,9.24,-3.06,3.06,2.77,2.71,12.31,12.30,12.29
51.99,9.25,-3.03,9.23,-3.05,3.05,2.73,2.68,12.30,12.28,12.27
52.51,9.24,-3.03,9.23,-3.03,3.03,2.70,2.66,12.27,12.26,12.27
53.03,9.23,-3.01,9.23,-3.01,3.01,2.66,2.64,12.24,12.24,12.24
53.56,9.22,-3.01,9.23,-2.98,2.98,2.62,2.62,12.20,12.22,12.22
54.10,9.22,-2.98,9.24,-2.96,2.96,2.58,2.60,12.17,12.20,12.20
54.64,9.23,-2.95,9.25,-2.93,2.93,2.54,2.58,12.15,12.17,12.18
55.18,9.24,-2.91,9.26,-2.89,2.89,2.50,2.56,12.13,12.15,12.15
55.74,9.26,-2.86,9.27,-2.86,2.86,2.46,2.54,12.11,12.13,12.12
56.29,9.29,-2.82,9.29,-2.82,2.82,2.42,2.51,12.10,12.10,12.11
56.86,9.31,-2.77,9.31,-2.77,2.77,2.38,2.49,12.08,12.08,12.07
57.42,9.34,-2.70,9.33,-2.72,2.72,2.33,2.47,12.06,12.05,12.04
58.00,9.37,-2.65,9.36,-2.67,2.67,2.29,2.45,12.04,12.02,12.02
58.58,9.40,-2.60,9.38,-2.61,2.61,2.25,2.42,12.01,11.99,12.00
59.16,9.42,-2.55,9.42,-2.55,2.55,2.21,2.40,11.97,11.96,11.97
59.76,9.44,-2.51,9.45,-2.48,2.48,2.17,2.37,11.92,11.93,11.95
60.35,9.47,-2.44,9.48,-2.42,2.42,2.13,2.34,11.89,11.90,11.91
60.96,9.50,-2.38,9.50,-2.36,2.36,2.09,2.31,11.85,11.86,11.87
61.57,9.53,-2.30,9.53,-2.29,2.29,2.05,2.27,11.82,11.82,11.83
62.18,9.57,-2.21,9.56,-2.23,2.23,2.00,2.24,11.80,11.79,11.78
62.80,9.61,-2.14,9.59,-2.16,2.16,1.96,2.20,11.77,11.75,11.75
63.43,9.64,-2.06,9.61,-2.09,2.09,1.92,2.16,11.73,11.71,11.70
64.07,9.67,-1.99,9.64,-2.02,2.02,1.88,2.11,11.69,11.66,11.66
64.71,9.68,-1.94,9.68,-1.94,1.94,1.83,2.07,11.62,11.62,11.62
65.35,9.70,-1.87,9.71,-1.87,1.87,1.79,2.02,11.56,11.58,11.57
66.01,9.72,-1.81,9.75,-1.79,1.79,1.75,1.97,11.50,11.53,11.53
66.67,9.75,-1.75,9.78,-1.70,1.70,1.71,1.92,11.45,11.49,11.49
67.33,9.80,-1.65,9.82,-1.62,1.62,1.66,1.87,11.42,11.44,11.45
68.01,9.84,-1.56,9.86,-1.54,1.54,1.62,1.81,11.38,11.40,11.40
68.69,9.89,-1.47,9.89,-1.46,1.46,1.57,1.75,11.35,11.35,11.36
69.37,9.94,-1.37,9.93,-1.38,1.38,1.53,1.70,11.31,11.31,11.31
70.07,9.98,-1.28,9.97,-1.29,1.29,1.49,1.63,11.27,11.26,11.26
70.77,10.03,-1.19,10.01,-1.21,1.21,1.44,1.57,11.24,11.22,11.22
71.48,10.07,-1.11,10.05,-1.13,1.13,1.40,1.51,11.19,11.17,11.18
72.19,10.10,-1.03,10.08,-1.05,1.05,1.35,1.45,11.14,11.13,11.12
72.91,10.12,-0.96,10.12,-0.97,0.97,1.31,1.38,11.09,11.08,11.08
73.64,10.14,-0.90,10.14,-0.90,0.90,1.26,1.32,11.03,11.04,11.04
74.38,10.16,-0.84,10.17,-0.83,0.83,1.22,1.25,10.99,11.00,11.00
75.12,10.19,-0.77,10.19,-0.77,0.77,1.17,1.18,10.96,10.96,10.96
75.87,10.21,-0.71,10.20,-0.72,0.72,1.13,1.11,10.92,10.92,10.92
76.63,10.23,-0.65,10.21,-0.67,0.67,1.08,1.05,10.89,10.88,10.88
77.40,10.24,-0.60,10.22,-0.62,0.62,1.04,0.98,10.86,10.84,10.84
78.17,10.24,-0.56,10.23,-0.58,0.58,0.99,0.91,10.82,10.81,10.80
78.95,10.24,-0.53,10.23,-0.54,0.54,0.94,0.84,10.78,10.77,10.77
79.74,10.23,-0.51,10.23,-0.50,0.50,0.90,0.77,10.73,10.74,10.74
80.54,10.23,-0.48,10.23,-0.47,0.47,0.85,0.70,10.70,10.70,10.71
81.35,10.22,-0.45,10.23,-0.44,0.44,0.80,0.63,10.66,10.67,10.67
82.16,10.22,-0.42,10.23,-0.41,0.41,0.76,0.57,10.63,10.64,10.64
82.98,10.22,-0.39,10.23,-0.38,0.38,0.71,0.50,10.60,10.61,10.61
83.81,10.22,-0.36,10.22,-0.35,0.35,0.66,0.43,10.57,10.58,10.57
84.65,10.22,-0.32,10.22,-0.33,0.33,0.61,0.36,10.54,10.55,10.54
85.50,10.22,-0.30,10.22,-0.30,0.30,0.56,0.29,10.52,10.52,10.52
86.35,10.22,-0.27,10.22,-0.27,0.27,0.51,0.22,10.49,10.49,10.49
87.22,10.22,-0.24,10.22,-0.25,0.25,0.47,0.15,10.46,10.46,10.46
88.09,10.22,-0.21,10.22,-0.22,0.22,0.42,0.08,10.44,10.43,10.43
88.97,10.22,-0.19,10.22,-0.19,0.19,0.37,0.01,10.41,10.41,10.41
89.86,10.22,-0.17,10.22,-0.16,0.16,0.32,-0.05,10.38,10.38,10.39
90.76,10.22,-0.13,10.22,-0.13,0.13,0.27,-0.12,10.35,10.35,10.34
91.66,10.22,-0.10,10.22,-0.10,0.10,0.21,-0.19,10.32,10.32,10.32
92.58,10.22,-0.07,10.22,-0.08,0.08,0.16,-0.26,10.29,10.29,10.29
93.51,10.22,-0.06,10.22,-0.05,0.05,0.11,-0.33,10.26,10.26,10.27
94.44,10.22,-0.02,10.22,-0.02,0.02,0.06,-0.40,10.23,10.23,10.24
95.39,10.22,0.00,10.22,0.01,-0.01,0.01,-0.47,10.20,10.20,10.21
96.34,10.22,0.05,10.21,0.04,-0.04,-0.05,-0.54,10.17,10.17,10.17
97.30,10.22,0.09,10.21,0.07,-0.07,-0.10,-0.60,10.14,10.13,10.13
98.28,10.22,0.12,10.21,0.11,-0.11,-0.15,-0.67,10.11,10.10,10.09
99.26,10.22,0.16,10.20,0.14,-0.14,-0.21,-0.74,10.07,10.06,10.06
100.25,10.21,0.19,10.20,0.18,-0.18,-0.26,-0.81,10.03,10.02,10.02
101.25,10.21,0.22,10.20,0.22,-0.22,-0.32,-0.88,9.99,9.98,9.98
102.27,10.20,0.26,10.20,0.26,-0.26,-0.37,-0.94,9.93,9.94,9.94
103.29,10.20,0.31,10.21,0.31,-0.31,-0.43,-1.01,9.88,9.89,9.89
104.32,10.20,0.35,10.21,0.37,-0.37,-0.48,-1.08,9.83,9.85,9.85
105.37,10.21,0.40,10.22,0.43,-0.43,-0.54,-1.14,9.78,9.80,9.80
106.42,10.23,0.48,10.24,0.49,-0.49,-0.60,-1.21,9.73,9.74,9.75
107.48,10.24,0.54,10.25,0.57,-0.57,-0.65,-1.27,9.67,9.69,9.70
108.56,10.27,0.64,10.27,0.64,-0.64,-0.71,-1.33,9.62,9.63,9.63
109.64,10.29,0.72,10.30,0.73,-0.73,-0.77,-1.40,9.56,9.57,9.57
110.74,10.32,0.80,10.32,0.82,-0.82,-0.83,-1.46,9.50,9.51,9.51
111.85,10.35,0.90,10.35,0.91,-0.91,-0.89,-1.52,9.44,9.44,9.45
112.97,10.38,1.01,10.38,1.01,-1.01,-0.95,-1.57,9.37,9.37,9.37
114.10,10.42,1.10,10.41,1.10,-1.10,-1.01,-1.63,9.31,9.31,9.31
115.24,10.45,1.21,10.44,1.20,-1.20,-1.07,-1.68,9.25,9.24,9.24
116.39,10.47,1.31,10.46,1.29,-1.29,-1.13,-1.73,9.17,9.17,9.16
117.55,10.50,1.40,10.49,1.38,-1.38,-1.19,-1.78,9.11,9.10,9.10
118.73,10.52,1.50,10.51,1.47,-1.47,-1.26,-1.83,9.05,9.03,9.02
119.92,10.54,1.57,10.52,1.56,-1.56,-1.32,-1.87,8.98,8.97,8.97
121.12,10.56,1.66,10.54,1.63,-1.63,-1.38,-1.92,8.92,8.90,8.89
122.33,10.56,1.73,10.54,1.71,-1.71,-1.45,-1.95,8.85,8.84,8.83
123.55,10.56,1.78,10.55,1.78,-1.78,-1.51,-1.99,8.78,8.77,8.78
124.79,10.56,1.84,10.55,1.84,-1.84,-1.57,-2.02,8.71,8.71,8.72
126.03,10.55,1.89,10.55,1.90,-1.90,-1.64,-2.06,8.64,8.65,8.65
127.29,10.55,1.95,10.55,1.96,-1.96,-1.70,-2.08,8.59,8.59,8.59
128.57,10.54,2.01,10.55,2.02,-2.02,-1.77,-2.11,8.52,8.53,8.52
129.85,10.54,2.06,10.55,2.07,-2.07,-1.84,-2.13,8.47,8.48,8.47
131.15,10.54,2.12,10.55,2.12,-2.12,-1.90,-2.16,8.41,8.42,8.42
132.46,10.54,2.17,10.54,2.17,-2.17,-1.97,-2.18,8.36,8.37,8.37
133.79,10.54,2.22,10.54,2.22,-2.22,-2.04,-2.19,8.31,8.32,8.32
135.12,10.54,2.27,10.54,2.27,-2.27,-2.10,-2.21,8.27,8.27,8.27
136.48,10.54,2.32,10.54,2.32,-2.32,-2.17,-2.22,8.22,8.22,8.22
137.84,10.54,2.37,10.54,2.37,-2.37,-2.24,-2.23,8.17,8.17,8.17
139.22,10.54,2.42,10.54,2.41,-2.41,-2.31,-2.25,8.12,8.12,8.11
140.61,10.54,2.48,10.54,2.46,-2.46,-2.38,-2.26,8.08,8.08,8.06
142.02,10.54,2.51,10.54,2.51,-2.51,-2.44,-2.27,8.03,8.03,8.03
143.44,10.54,2.55,10.54,2.55,-2.55,-2.51,-2.28,7.98,7.98,7.99
144.87,10.54,2.60,10.54,2.60,-2.60,-2.58,-2.28,7.94,7.94,7.94
146.32,10.54,2.64,10.54,2.64,-2.64,-2.65,-2.29,7.89,7.89,7.89
147.78,10.54,2.68,10.54,2.69,-2.69,-2.71,-2.30,7.85,7.84,7.86
149.26,10.54,2.73,10.54,2.74,-2.74,-2.78,-2.31,7.80,7.80,7.81
150.75,10.54,2.79,10.54,2.79,-2.79,-2.85,-2.32,7.75,7.75,7.74
152.26,10.54,2.84,10.54,2.84,-2.84,-2.91,-2.33,7.70,7.70,7.70
153.78,10.54,2.88,10.54,2.89,-2.89,-2.98,-2.34,7.65,7.65,7.66
155.32,10.54,2.94,10.55,2.95,-2.95,-3.04,-2.35,7.59,7.60,7.59
156.88,10.54,2.99,10.55,3.00,-3.00,-3.11,-2.37,7.54,7.55,7.55
158.44,10.54,3.04,10.55,3.06,-3.06,-3.17,-2.38,7.48,7.50,7.50
160.03,10.55,3.11,10.56,3.11,-3.11,-3.23,-2.40,7.44,7.45,7.44
161.63,10.56,3.17,10.56,3.16,-3.16,-3.29,-2.42,7.40,7.39,7.38
163.24,10.56,3.22,10.55,3.21,-3.21,-3.35,-2.44,7.34,7.34,7.34
164.88,10.57,3.28,10.55,3.26,-3.26,-3.41,-2.46,7.30,7.29,7.29
166.53,10.56,3.32,10.54,3.31,-3.31,-3.46,-2.48,7.25,7.23,7.23
168.19,10.55,3.37,10.53,3.35,-3.35,-3.52,-2.51,7.19,7.18,7.18
169.87,10.54,3.41,10.52,3.40,-3.40,-3.57,-2.54,7.14,7.12,7.12
171.57,10.52,3.45,10.50,3.44,-3.44,-3.62,-2.57,7.08,7.07,7.07
173.29,10.49,3.48,10.49,3.48,-3.48,-3.67,-2.60,7.01,7.01,7.01
175.02,10.47,3.51,10.47,3.52,-3.52,-3.72,-2.63,6.95,6.95,6.96
176.77,10.44,3.55,10.44,3.55,-3.55,-3.76,-2.67,6.88,6.89,6.89
178.54,10.41,3.58,10.42,3.59,-3.59,-3.80,-2.71,6.82,6.83,6.83
180.32,10.38,3.61,10.39,3.62,-3.62,-3.84,-2.75,6.76,6.77,6.77
182.13,10.35,3.64,10.36,3.65,-3.65,-3.88,-2.79,6.70,6.71,6.71
183.95,10.33,3.68,10.33,3.68,-3.68,-3.91,-2.83,6.64,6.65,6.65
185.79,10.31,3.72,10.30,3.72,-3.72,-3.94,-2.88,6.59,6.59,6.59
187.65,10.28,3.76,10.28,3.75,-3.75,-3.97,-2.93,6.52,6.53,6.51
189.52,10.26,3.80,10.26,3.79,-3.79,-4.00,-2.98,6.47,6.47,6.46
191.42,10.23,3.82,10.23,3.82,-3.82,-4.02,-3.03,6.40,6.41,6.41
193.33,10.20,3.85,10.21,3.86,-3.86,-4.04,-3.09,6.34,6.35,6.35
195.27,10.17,3.87,10.19,3.89,-3.89,-4.06,-3.14,6.28,6.29,6.30
197.22,10.15,3.91,10.16,3.92,-3.92,-4.07,-3.20,6.23,6.24,6.24
199.19,10.13,3.95,10.14,3.95,-3.95,-4.08,-3.26,6.18,6.19,6.18
201.18,10.12,3.99,10.11,3.98,-3.98,-4.08,-3.32,6.14,6.13,6.13
203.19,10.10,4.01,10.08,4.00,-4.00,-4.08,-3.38,6.10,6.08,6.09
205.23,10.08,4.05,10.05,4.02,-4.02,-4.08,-3.44,6.06,6.03,6.03
207.28,10.04,4.04,10.02,4.03,-4.03,-4.08,-3.50,6.00,5.98,6.00
209.35,10.00,4.06,9.99,4.05,-4.05,-4.07,-3.56,5.95,5.94,5.94
211.44,9.95,4.06,9.95,4.06,-4.06,-4.06,-3.62,5.89,5.89,5.88
213.56,9.91,4.06,9.91,4.06,-4.06,-4.05,-3.68,5.85,5.85,5.85
215.69,9.88,4.06,9.88,4.06,-4.06,-4.03,-3.74,5.81,5.81,5.82
217.85,9.83,4.05,9.83,4.06,-4.06,-4.01,-3.79,5.77,5.77,5.78
220.03,9.79,4.06,9.79,4.05,-4.05,-3.98,-3.85,5.74,5.74,5.73
222.23,9.74,4.04,9.74,4.04,-4.04,-3.96,-3.90,5.70,5.71,5.70
224.45,9.69,4.01,9.70,4.02,-4.02,-3.93,-3.95,5.67,5.68,5.67
226.70,9.65,4.00,9.65,4.00,-4.00,-3.90,-3.99,5.65,5.65,5.65
228.96,9.61,3.99,9.60,3.98,-3.98,-3.86,-4.03,5.63,5.62,5.62
231.25,9.57,3.96,9.56,3.96,-3.96,-3.83,-4.07,5.61,5.60,5.60
233.57,9.52,3.94,9.51,3.93,-3.93,-3.79,-4.10,5.59,5.58,5.58
235.90,9.47,3.91,9.47,3.90,-3.90,-3.74,-4.13,5.57,5.57,5.56
238.26,9.42,3.87,9.42,3.87,-3.87,-3.70,-4.15,5.55,5.55,5.55
240.64,9.37,3.83,9.38,3.84,-3.84,-3.65,-4.16,5.53,5.54,5.54
243.05,9.32,3.78,9.33,3.80,-3.80,-3.61,-4.17,5.52,5.53,5.54
245.48,9.27,3.74,9.29,3.76,-3.76,-3.56,-4.17,5.51,5.53,5.53
247.93,9.25,3.72,9.25,3.72,-3.72,-3.50,-4.16,5.53,5.53,5.53
250.41,9.21,3.69,9.20,3.68,-3.68,-3.45,-4.15,5.53,5.53,5.52
252.92,9.17,3.64,9.16,3.63,-3.63,-3.40,-4.13,5.53,5.53,5.53
255.45,9.12,3.58,9.12,3.58,-3.58,-3.34,-4.10,5.53,5.53,5.54
258.00,9.07,3.53,9.07,3.53,-3.53,-3.29,-4.07,5.54,5.54,5.54
260.58,9.03,3.48,9.03,3.48,-3.48,-3.23,-4.03,5.55,5.55,5.54
263.19,8.99,3.43,8.98,3.42,-3.42,-3.17,-3.98,5.56,5.56,5.56
265.82,8.95,3.39,8.93,3.37,-3.37,-3.11,-3.93,5.58,5.57,5.56
268.48,8.89,3.31,8.88,3.31,-3.31,-3.05,-3.87,5.58,5.58,5.58
271.16,8.83,3.23,8.83,3.24,-3.24,-2.99,-3.80,5.59,5.59,5.59
273.87,8.78,3.18,8.77,3.18,-3.18,-2.93,-3.73,5.60,5.60,5.60
276.61,8.72,3.10,8.72,3.10,-3.10,-2.86,-3.66,5.61,5.61,5.62
279.38,8.65,3.02,8.66,3.03,-3.03,-2.80,-3.58,5.61,5.62,5.62
282.17,8.59,2.95,8.60,2.96,-2.96,-2.74,-3.49,5.63,5.64,5.64
284.99,8.54,2.89,8.54,2.89,-2.89,-2.68,-3.41,5.65,5.65,5.65
287.84,8.48,2.82,8.47,2.81,-2.81,-2.61,-3.32,5.67,5.66,5.66
290.72,8.42,2.75,8.40,2.73,-2.73,-2.55,-3.23,5.69,5.67,5.67
293.63,8.34,2.65,8.34,2.65,-2.65,-2.49,-3.13,5.69,5.69,5.69
296.57,8.27,2.57,8.27,2.57,-2.57,-2.42,-3.04,5.70,5.70,5.70
299.53,8.20,2.49,8.20,2.49,-2.49,-2.36,-2.94,5.71,5.71,5.71
302.53,8.13,2.42,8.13,2.41,-2.41,-2.30,-2.84,5.72,5.72,5.71
305.55,8.07,2.33,8.06,2.33,-2.33,-2.23,-2.74,5.74,5.73,5.74
308.61,8.00,2.26,7.99,2.25,-2.25,-2.17,-2.64,5.75,5.74,5.74
311.69,7.92,2.17,7.92,2.17,-2.17,-2.11,-2.55,5.75,5.75,5.75
314.81,7.85,2.07,7.85,2.09,-2.09,-2.05,-2.45,5.75,5.76,5.77
317.96,7.78,2.01,7.78,2.02,-2.02,-1.98,-2.35,5.76,5.77,5.77
321.14,7.72,1.94,7.72,1.94,-1.94,-1.92,-2.25,5.78,5.77,5.78
324.35,7.66,1.88,7.65,1.87,-1.87,-1.86,-2.15,5.79,5.78,5.77
327.59,7.59,1.80,7.59,1.80,-1.80,-1.80,-2.06,5.79,5.78,5.79
330.87,7.51,1.72,7.52,1.73,-1.73,-1.74,-1.96,5.77,5.79,5.79
334.18,7.45,1.66,7.46,1.67,-1.67,-1.67,-1.86,5.78,5.79,5.78
337.52,7.40,1.61,7.40,1.61,-1.61,-1.61,-1.77,5.79,5.79,5.79
340.90,7.35,1.55,7.34,1.55,-1.55,-1.55,-1.68,5.80,5.79,5.80
344.30,7.29,1.49,7.29,1.49,-1.49,-1.49,-1.58,5.79,5.79,5.79
347.75,7.22,1.43,7.23,1.44,-1.44,-1.43,-1.49,5.78,5.79,5.79
351.23,7.17,1.38,7.17,1.39,-1.39,-1.37,-1.40,5.78,5.79,5.79
354.74,7.13,1.34,7.12,1.34,-1.34,-1.32,-1.32,5.79,5.78,5.79
358.28,7.07,1.29,7.06,1.29,-1.29,-1.26,-1.23,5.78,5.78,5.77
361.87,7.01,1.24,7.01,1.24,-1.24,-1.20,-1.14,5.77,5.77,5.77
365.49,6.95,1.18,6.95,1.19,-1.19,-1.14,-1.06,5.76,5.77,5.77
369.14,6.90,1.14,6.90,1.14,-1.14,-1.08,-0.97,5.76,5.76,5.76
372.83,6.85,1.09,6.84,1.08,-1.08,-1.02,-0.89,5.76,5.75,5.76
376.56,6.79,1.04,6.78,1.03,-1.03,-0.97,-0.81,5.76,5.75,5.74
380.33,6.72,0.98,6.71,0.98,-0.98,-0.91,-0.72,5.74,5.74,5.74
384.13,6.65,0.92,6.65,0.92,-0.92,-0.85,-0.64,5.73,5.73,5.73
387.97,6.59,0.87,6.58,0.86,-0.86,-0.79,-0.56,5.73,5.72,5.72
391.85,6.52,0.81,6.51,0.80,-0.80,-0.74,-0.49,5.72,5.72,5.71
395.77,6.45,0.73,6.44,0.73,-0.73,-0.68,-0.41,5.71,5.71,5.71
399.73,6.37,0.66,6.37,0.67,-0.67,-0.62,-0.33,5.70,5.70,5.70
403.72,6.29,0.60,6.30,0.60,-0.60,-0.57,-0.26,5.69,5.69,5.69
407.76,6.22,0.54,6.22,0.53,-0.53,-0.51,-0.18,5.69,5.69,5.68
411.84,6.14,0.45,6.14,0.46,-0.46,-0.45,-0.11,5.68,5.68,5.69
415.96,6.07,0.39,6.06,0.38,-0.38,-0.40,-0.03,5.68,5.68,5.68
420.12,5.99,0.31,5.98,0.31,-0.31,-0.34,0.04,5.68,5.67,5.68
424.32,5.92,0.24,5.91,0.24,-0.24,-0.29,0.11,5.68,5.67,5.67
428.56,5.83,0.16,5.83,0.16,-0.16,-0.23,0.18,5.67,5.67,5.66
432.85,5.74,0.08,5.75,0.08,-0.08,-0.17,0.25,5.65,5.67,5.66
437.18,5.67,0.01,5.67,0.01,-0.01,-0.12,0.31,5.66,5.67,5.66
441.55,5.60,-0.07,5.60,-0.07,0.07,-0.06,0.38,5.66,5.66,5.67
445.96,5.52,-0.15,5.52,-0.14,0.14,-0.00,0.45,5.66,5.67,5.67
450.42,5.44,-0.22,5.45,-0.22,0.22,0.05,0.51,5.66,5.67,5.66
454.93,5.36,-0.31,5.37,-0.30,0.30,0.11,0.57,5.66,5.67,5.67
459.48,5.30,-0.37,5.30,-0.38,0.38,0.17,0.64,5.68,5.67,5.67
464.07,5.23,-0.45,5.22,-0.46,0.46,0.22,0.70,5.68,5.68,5.68
468.71,5.16,-0.53,5.15,-0.53,0.53,0.28,0.76,5.69,5.68,5.68
473.40,5.08,-0.61,5.08,-0.61,0.61,0.34,0.81,5.69,5.69,5.68
478.13,5.01,-0.69,5.00,-0.69,0.69,0.40,0.87,5.69,5.69,5.69
482.91,4.94,-0.75,4.93,-0.76,0.76,0.46,0.93,5.70,5.70,5.69
487.74,4.86,-0.84,4.86,-0.84,0.84,0.51,0.98,5.70,5.70,5.70
492.62,4.78,-0.93,4.79,-0.92,0.92,0.57,1.03,5.70,5.71,5.71
497.55,4.71,-1.00,4.72,-1.00,1.00,0.63,1.09,5.70,5.71,5.71
