frequency,raw,error,smoothed,error_smoothed,equalization,parametric_eq,fixed_band_eq,equalized_raw,equalized_smoothed,target
20.00,-17.59,-13.78,-17.59,-13.78,13.78,12.38,5.15,-3.82,-3.81,-3.81
20.20,-17.55,-13.78,-17.55,-13.78,13.78,12.55,5.28,-3.77,-3.77,-3.77
20.40,-17.50,-13.77,-17.51,-13.77,13.77,12.71,5.41,-3.73,-3.73,-3.73
20.61,-17.46,-13.76,-17.46,-13.76,13.76,12.85,5.55,-3.70,-3.70,-3.70
20.81,-17.40,-13.74,-17.40,-13.74,13.74,12.99,5.69,-3.66,-3.66,-3.66
21.02,-17.35,-13.73,-17.35,-13.72,13.71,13.11,5.83,-3.64,-3.63,-3.62
21.23,-17.28,-13.68,-17.28,-13.68,13.68,13.21,5.98,-3.60,-3.61,-3.60
21.44,-17.22,-13.64,-17.22,-13.64,13.64,13.30,6.13,-3.58,-3.58,-3.58
21.66,-17.15,-13.59,-17.15,-13.58,13.58,13.36,6.28,-3.57,-3.56,-3.56
21.87,-17.07,-13.52,-17.08,-13.53,13.53,13.41,6.44,-3.54,-3.55,-3.55
22.09,-17.00,-13.47,-17.00,-13.46,13.46,13.44,6.60,-3.54,-3.54,-3.53
22.31,-16.91,-13.39,-16.91,-13.39,13.39,13.45,6.77,-3.52,-3.52,-3.52
22.54,-16.82,-13.31,-16.82,-13.31,13.31,13.44,6.94,-3.52,-3.52,-3.51
22.76,-16.73,-13.23,-16.73,-13.22,13.22,13.41,7.12,-3.51,-3.51,-3.50
22.99,-16.63,-13.13,-16.63,-13.13,13.13,13.35,7.30,-3.50,-3.50,-3.50
23.22,-16.52,-13.03,-16.53,-13.04,13.04,13.28,7.48,-3.48,-3.49,-3.49
23.45,-16.43,-12.95,-16.43,-12.94,12.94,13.20,7.67,-3.49,-3.48,-3.48
23.69,-16.32,-12.85,-16.31,-12.84,12.84,13.09,7.87,-3.48,-3.47,-3.47
23.92,-16.19,-12.73,-16.20,-12.74,12.74,12.97,8.07,-3.45,-3.46,-3.46
24.16,-16.07,-12.63,-16.08,-12.63,12.63,12.84,8.27,-3.44,-3.44,-3.44
24.40,-15.96,-12.54,-15.96,-12.53,12.52,12.70,8.48,-3.44,-3.44,-3.42
24.65,-15.85,-12.42,-15.84,-12.42,12.41,12.55,8.69,-3.44,-3.43,-3.43
24.89,-15.72,-12.30,-15.72,-12.30,12.29,12.40,8.91,-3.43,-3.43,-3.42
25.14,-15.58,-12.17,-15.58,-12.17,12.17,12.24,9.13,-3.41,-3.42,-3.41
25.39,-15.45,-12.05,-15.45,-12.05,12.05,12.08,9.36,-3.40,-3.40,-3.40
25.65,-15.31,-11.93,-15.31,-11.92,11.92,11.92,9.59,-3.39,-3.39,-3.38
25.91,-15.17,-11.79,-15.17,-11.79,11.80,11.77,9.82,-3.38,-3.38,-3.38
26.16,-15.04,-11.67,-15.04,-11.67,11.67,11.62,10.06,-3.37,-3.37,-3.37
26.43,-14.90,-11.54,-14.90,-11.54,11.55,11.48,10.30,-3.35,-3.35,-3.36
26.69,-14.77,-11.42,-14.77,-11.42,11.43,11.34,10.53,-3.34,-3.34,-3.35
26.96,-14.64,-11.31,-14.65,-11.31,11.31,11.21,10.77,-3.33,-3.34,-3.33
27.23,-14.53,-11.21,-14.52,-11.20,11.19,11.09,11.01,-3.34,-3.33,-3.32
27.50,-14.40,-11.08,-14.40,-11.08,11.07,10.98,11.25,-3.33,-3.33,-3.32
27.77,-14.27,-10.95,-14.27,-10.96,10.95,10.87,11.48,-3.32,-3.32,-3.32
28.05,-14.14,-10.84,-14.14,-10.83,10.83,10.77,11.71,-3.31,-3.31,-3.30
28.33,-14.01,-10.71,-14.01,-10.71,10.71,10.68,11.92,-3.30,-3.30,-3.30
28.62,-13.87,-10.58,-13.87,-10.58,10.58,10.60,12.13,-3.29,-3.29,-3.29
28.90,-13.74,-10.46,-13.74,-10.45,10.46,10.51,12.32,-3.28,-3.28,-3.28
29.19,-13.60,-10.32,-13.60,-10.33,10.33,10.43,12.50,-3.27,-3.27,-3.28
29.48,-13.47,-10.22,-13.47,-10.21,10.21,10.36,12.66,-3.26,-3.26,-3.25
29.78,-13.35,-10.09,-13.35,-10.09,10.09,10.28,12.80,-3.26,-3.26,-3.26
30.08,-13.22,-9.97,-13.23,-9.97,9.97,10.21,12.92,-3.25,-3.25,-3.25
30.38,-13.10,-9.85,-13.10,-9.85,9.85,10.13,13.01,-3.25,-3.25,-3.25
30.68,-12.98,-9.75,-12.98,-9.74,9.73,10.05,13.07,-3.25,-3.25,-3.23
30.99,-12.85,-9.62,-12.86,-9.62,9.61,9.97,13.10,-3.24,-3.24,-3.23
31.30,-12.73,-9.50,-12.73,-9.50,9.50,9.88,13.10,-3.24,-3.23,-3.23
31.61,-12.60,-9.38,-12.60,-9.38,9.38,9.79,13.07,-3.22,-3.22,-3.22
31.93,-12.47,-9.26,-12.48,-9.26,9.27,9.69,13.01,-3.21,-3.21,-3.21
32.24,-12.36,-9.15,-12.36,-9.15,9.16,9.58,12.92,-3.20,-3.20,-3.21
32.57,-12.24,-9.05,-12.24,-9.04,9.05,9.47,12.80,-3.20,-3.19,-3.19
32.89,-12.12,-8.93,-12.13,-8.94,8.94,9.36,12.66,-3.18,-3.19,-3.19
33.22,-12.02,-8.84,-12.02,-8.84,8.83,9.23,12.50,-3.19,-3.18,-3.18
33.55,-11.91,-8.74,-11.91,-8.73,8.73,9.10,12.31,-3.18,-3.18,-3.17
33.89,-11.79,-8.63,-11.79,-8.63,8.62,8.96,12.11,-3.17,-3.17,-3.16
34.23,-11.68,-8.52,-11.68,-8.52,8.52,8.82,11.89,-3.16,-3.16,-3.16
34.57,-11.56,-8.41,-11.56,-8.41,8.41,8.67,11.66,-3.15,-3.15,-3.15
34.92,-11.45,-8.30,-11.45,-8.30,8.30,8.52,11.42,-3.15,-3.15,-3.15
35.27,-11.34,-8.20,-11.34,-8.19,8.19,8.36,11.18,-3.15,-3.15,-3.14
35.62,-11.23,-8.09,-11.23,-8.08,8.08,8.20,10.92,-3.15,-3.14,-3.14
35.97,-11.11,-7.97,-11.11,-7.97,7.98,8.04,10.67,-3.13,-3.14,-3.14
36.33,-11.00,-7.87,-11.00,-7.86,7.87,7.87,10.41,-3.13,-3.13,-3.13
36.70,-10.90,-7.76,-10.89,-7.76,7.76,7.70,10.15,-3.14,-3.13,-3.14
37.06,-10.79,-7.66,-10.79,-7.66,7.66,7.53,9.89,-3.13,-3.13,-3.13
37.43,-10.68,-7.55,-10.69,-7.55,7.55,7.36,9.64,-3.13,-3.14,-3.13
37.81,-10.58,-7.45,-10.58,-7.45,7.44,7.19,9.38,-3.14,-3.14,-3.13
38.19,-10.47,-7.34,-10.47,-7.33,7.32,7.02,9.13,-3.15,-3.14,-3.13
38.57,-10.35,-7.21,-10.35,-7.21,7.21,6.86,8.88,-3.14,-3.14,-3.14
38.95,-10.23,-7.09,-10.23,-7.08,7.09,6.69,8.63,-3.14,-3.14,-3.14
39.34,-10.11,-6.96,-10.11,-6.96,6.97,6.53,8.39,-3.14,-3.14,-3.15
39.74,-9.99,-6.84,-10.00,-6.84,6.84,6.37,8.15,-3.15,-3.15,-3.15
40.14,-9.88,-6.73,-9.87,-6.72,6.71,6.21,7.92,-3.17,-3.16,-3.15
40.54,-9.74,-6.59,-9.74,-6.59,6.58,6.05,7.69,-3.16,-3.17,-3.15
40.94,-9.60,-6.44,-9.60,-6.44,6.44,5.90,7.46,-3.16,-3.17,-3.16
41.35,-9.46,-6.30,-9.46,-6.29,6.30,5.75,7.24,-3.16,-3.16,-3.16
41.76,-9.31,-6.15,-9.31,-6.15,6.15,5.60,7.02,-3.16,-3.16,-3.16
42.18,-9.16,-6.00,-9.16,-6.00,6.00,5.46,6.81,-3.16,-3.16,-3.16
42.60,-9.01,-5.85,-9.01,-5.84,5.84,5.32,6.60,-3.17,-3.17,-3.16
43.03,-8.85,-5.69,-8.85,-5.69,5.68,5.18,6.39,-3.17,-3.17,-3.16
43.46,-8.70,-5.54,-8.70,-5.53,5.53,5.05,6.19,-3.17,-3.17,-3.16
43.90,-8.55,-5.37,-8.55,-5.37,5.37,4.92,6.00,-3.18,-3.17,-3.18
44.33,-8.39,-5.21,-8.40,-5.22,5.22,4.79,5.80,-3.17,-3.18,-3.18
44.78,-8.26,-5.07,-8.26,-5.07,5.07,4.67,5.61,-3.19,-3.19,-3.19
45.23,-8.12,-4.93,-8.12,-4.92,4.93,4.54,5.43,-3.20,-3.19,-3.19
45.68,-7.98,-4.79,-7.98,-4.79,4.79,4.43,5.25,-3.20,-3.20,-3.19
46.13,-7.84,-4.64,-7.85,-4.65,4.65,4.31,5.07,-3.19,-3.20,-3.20
46.60,-7.72,-4.53,-7.72,-4.52,4.52,4.20,4.89,-3.20,-3.20,-3.19
47.06,-7.60,-4.40,-7.59,-4.39,4.39,4.09,4.72,-3.21,-3.20,-3.20
47.53,-7.47,-4.26,-7.48,-4.27,4.27,3.98,4.55,-3.20,-3.20,-3.21
48.01,-7.36,-4.16,-7.36,-4.15,4.15,3.88,4.38,-3.21,-3.21,-3.20
48.49,-7.26,-4.04,-7.26,-4.04,4.04,3.78,4.22,-3.23,-3.23,-3.22
48.97,-7.17,-3.93,-7.17,-3.93,3.92,3.68,4.06,-3.25,-3.25,-3.24
49.46,-7.07,-3.82,-7.07,-3.81,3.81,3.58,3.91,-3.26,-3.26,-3.25
49.96,-6.96,-3.69,-6.96,-3.70,3.69,3.49,3.75,-3.27,-3.27,-3.27
50.46,-6.86,-3.59,-6.86,-3.58,3.59,3.40,3.60,-3.28,-3.28,-3.27
50.96,-6.77,-3.48,-6.77,-3.47,3.48,3.31,3.46,-3.29,-3.29,-3.29
51.47,-6.69,-3.37,-6.69,-3.37,3.38,3.22,3.31,-3.32,-3.31,-3.32
51.99,-6.60,-3.27,-6.60,-3.27,3.27,3.13,3.17,-3.33,-3.33,-3.33
52.51,-6.52,-3.18,-6.52,-3.17,3.18,3.05,3.04,-3.34,-3.34,-3.34
53.03,-6.44,-3.08,-6.44,-3.08,3.08,2.96,2.90,-3.36,-3.36,-3.36
53.56,-6.37,-3.00,-6.37,-3.00,2.99,2.88,2.77,-3.38,-3.38,-3.37
54.10,-6.31,-2.91,-6.31,-2.91,2.90,2.80,2.64,-3.41,-3.40,-3.40
54.64,-6.24,-2.83,-6.24,-2.82,2.82,2.72,2.52,-3.43,-3.42,-3.41
55.18,-6.17,-2.73,-6.17,-2.73,2.73,2.64,2.40,-3.44,-3.44,-3.44
55.74,-6.10,-2.63,-6.10,-2.64,2.64,2.56,2.28,-3.46,-3.46,-3.47
56.29,-6.04,-2.57,-6.04,-2.55,2.56,2.49,2.17,-3.48,-3.48,-3.47
56.86,-5.97,-2.47,-5.98,-2.47,2.47,2.41,2.06,-3.50,-3.50,-3.50
57.42,-5.92,-2.39,-5.92,-2.39,2.39,2.34,1.95,-3.53,-3.53,-3.53
58.00,-5.86,-2.31,-5.86,-2.30,2.30,2.26,1.85,-3.56,-3.55,-3.55
58.58,-5.79,-2.22,-5.79,-2.22,2.22,2.19,1.75,-3.57,-3.57,-3.57
59.16,-5.72,-2.13,-5.72,-2.13,2.13,2.11,1.66,-3.59,-3.60,-3.59
59.76,-5.66,-2.05,-5.66,-2.05,2.04,2.04,1.57,-3.62,-3.62,-3.61
60.35,-5.60,-1.96,-5.60,-1.96,1.95,1.96,1.48,-3.65,-3.65,-3.64
60.96,-5.54,-1.87,-5.54,-1.86,1.85,1.89,1.40,-3.69,-3.68,-3.67
61.57,-5.47,-1.75,-5.48,-1.76,1.76,1.81,1.33,-3.71,-3.72,-3.72
62.18,-5.42,-1.66,-5.42,-1.66,1.67,1.74,1.26,-3.75,-3.75,-3.76
62.80,-5.37,-1.59,-5.37,-1.58,1.58,1.66,1.19,-3.79,-3.79,-3.78
63.43,-5.33,-1.50,-5.33,-1.50,1.50,1.59,1.13,-3.83,-3.83,-3.83
64.07,-5.29,-1.42,-5.29,-1.42,1.43,1.51,1.07,-3.87,-3.87,-3.87
64.71,-5.26,-1.36,-5.26,-1.35,1.36,1.44,1.01,-3.90,-3.90,-3.90
65.35,-5.23,-1.29,-5.23,-1.29,1.29,1.36,0.96,-3.94,-3.94,-3.94
66.01,-5.21,-1.23,-5.21,-1.23,1.23,1.29,0.91,-3.98,-3.98,-3.98
66.67,-5.20,-1.19,-5.20,-1.18,1.18,1.22,0.87,-4.02,-4.02,-4.01
67.33,-5.19,-1.14,-5.19,-1.14,1.13,1.15,0.83,-4.06,-4.06,-4.05
68.01,-5.18,-1.09,-5.18,-1.09,1.08,1.08,0.80,-4.10,-4.10,-4.09
68.69,-5.17,-1.04,-5.17,-1.04,1.04,1.01,0.76,-4.13,-4.13,-4.13
69.37,-5.17,-1.00,-5.17,-1.00,1.00,0.95,0.73,-4.18,-4.17,-4.17
70.07,-5.17,-0.96,-5.17,-0.96,0.95,0.90,0.71,-4.22,-4.22,-4.21
70.77,-5.17,-0.92,-5.17,-0.92,0.92,0.85,0.68,-4.26,-4.25,-4.25
71.48,-5.17,-0.89,-5.17,-0.88,0.88,0.80,0.66,-4.29,-4.29,-4.28
72.19,-5.17,-0.84,-5.17,-0.85,0.85,0.77,0.64,-4.32,-4.33,-4.33
72.91,-5.18,-0.82,-5.18,-0.82,0.82,0.74,0.62,-4.36,-4.36,-4.36
73.64,-5.20,-0.80,-5.20,-0.79,0.80,0.71,0.61,-4.40,-4.40,-4.40
74.38,-5.21,-0.78,-5.22,-0.78,0.78,0.70,0.59,-4.43,-4.44,-4.43
75.12,-5.24,-0.77,-5.24,-0.77,0.77,0.68,0.58,-4.47,-4.47,-4.47
75.87,-5.26,-0.76,-5.26,-0.76,0.76,0.68,0.57,-4.50,-4.50,-4.50
76.63,-5.29,-0.76,-5.29,-0.76,0.76,0.67,0.56,-4.53,-4.53,-4.53
77.40,-5.32,-0.76,-5.32,-0.76,0.76,0.67,0.55,-4.56,-4.56,-4.56
78.17,-5.35,-0.76,-5.35,-0.76,0.76,0.67,0.54,-4.59,-4.59,-4.59
78.95,-5.39,-0.77,-5.39,-0.77,0.77,0.67,0.53,-4.62,-4.62,-4.62
79.74,-5.42,-0.78,-5.42,-0.78,0.77,0.68,0.52,-4.65,-4.65,-4.64
80.54,-5.45,-0.79,-5.45,-0.78,0.78,0.68,0.52,-4.67,-4.67,-4.66
81.35,-5.47,-0.78,-5.48,-0.78,0.78,0.68,0.51,-4.69,-4.70,-4.69
82.16,-5.50,-0.78,-5.50,-0.78,0.78,0.68,0.51,-4.72,-4.72,-4.72
82.98,-5.52,-0.79,-5.52,-0.78,0.77,0.69,0.50,-4.75,-4.74,-4.73
83.81,-5.53,-0.77,-5.53,-0.77,0.77,0.69,0.50,-4.77,-4.77,-4.76
84.65,-5.54,-0.75,-5.54,-0.75,0.75,0.69,0.49,-4.79,-4.79,-4.79
85.50,-5.54,-0.74,-5.54,-0.73,0.73,0.69,0.49,-4.81,-4.81,-4.80
86.35,-5.54,-0.72,-5.54,-0.71,0.71,0.68,0.48,-4.83,-4.83,-4.82
87.22,-5.53,-0.69,-5.53,-0.69,0.69,0.68,0.48,-4.84,-4.84,-4.84
88.09,-5.52,-0.66,-5.53,-0.66,0.66,0.68,0.47,-4.86,-4.86,-4.86
88.97,-5.52,-0.64,-5.52,-0.64,0.63,0.67,0.47,-4.89,-4.88,-4.88
89.86,-5.51,-0.62,-5.51,-0.61,0.61,0.67,0.46,-4.90,-4.90,-4.89
90.76,-5.50,-0.58,-5.50,-0.58,0.59,0.66,0.46,-4.91,-4.92,-4.92
91.66,-5.50,-0.56,-5.50,-0.56,0.57,0.65,0.45,-4.93,-4.93,-4.94
92.58,-5.50,-0.54,-5.50,-0.54,0.55,0.65,0.45,-4.95,-4.95,-4.96
93.51,-5.51,-0.54,-5.51,-0.54,0.54,0.64,0.44,-4.97,-4.97,-4.97
94.44,-5.53,-0.54,-5.53,-0.54,0.53,0.63,0.44,-5.00,-4.99,-4.99
95.39,-5.55,-0.54,-5.55,-0.53,0.53,0.62,0.43,-5.02,-5.02,-5.01
96.34,-5.57,-0.53,-5.57,-0.53,0.53,0.61,0.43,-5.04,-5.04,-5.04
97.30,-5.60,-0.53,-5.60,-0.53,0.53,0.60,0.42,-5.07,-5.07,-5.07
98.28,-5.63,-0.53,-5.63,-0.53,0.53,0.59,0.42,-5.10,-5.10,-5.10
99.26,-5.66,-0.54,-5.66,-0.54,0.53,0.58,0.41,-5.13,-5.13,-5.12
100.25,-5.69,-0.54,-5.69,-0.54,0.53,0.57,0.41,-5.16,-5.16,-5.15
101.25,-5.72,-0.54,-5.71,-0.53,0.53,0.56,0.40,-5.19,-5.19,-5.18
102.27,-5.73,-0.51,-5.74,-0.52,0.52,0.55,0.40,-5.21,-5.22,-5.22
103.29,-5.76,-0.51,-5.76,-0.51,0.52,0.54,0.39,-5.24,-5.25,-5.25
104.32,-5.79,-0.51,-5.79,-0.50,0.51,0.53,0.39,-5.28,-5.28,-5.28
105.37,-5.82,-0.50,-5.82,-0.50,0.49,0.52,0.38,-5.33,-5.33,-5.32
106.42,-5.85,-0.48,-5.85,-0.49,0.48,0.51,0.38,-5.38,-5.38,-5.37
107.48,-5.88,-0.48,-5.88,-0.47,0.46,0.50,0.37,-5.43,-5.42,-5.40
108.56,-5.90,-0.44,-5.90,-0.44,0.43,0.49,0.37,-5.47,-5.47,-5.46
109.64,-5.92,-0.41,-5.92,-0.41,0.41,0.48,0.36,-5.51,-5.51,-5.51
110.74,-5.94,-0.38,-5.94,-0.38,0.38,0.47,0.36,-5.56,-5.56,-5.56
111.85,-5.97,-0.36,-5.97,-0.35,0.36,0.46,0.35,-5.61,-5.61,-5.61
112.97,-6.00,-0.32,-6.00,-0.33,0.33,0.45,0.35,-5.67,-5.67,-5.68
114.10,-6.04,-0.31,-6.04,-0.31,0.31,0.44,0.34,-5.73,-5.73,-5.73
115.24,-6.09,-0.30,-6.09,-0.29,0.29,0.43,0.34,-5.80,-5.79,-5.79
116.39,-6.14,-0.28,-6.14,-0.28,0.28,0.42,0.33,-5.86,-5.86,-5.86
117.55,-6.19,-0.27,-6.19,-0.27,0.28,0.41,0.33,-5.92,-5.92,-5.92
118.73,-6.25,-0.27,-6.25,-0.27,0.27,0.40,0.32,-5.98,-5.98,-5.98
119.92,-6.31,-0.28,-6.31,-0.27,0.27,0.39,0.32,-6.04,-6.04,-6.03
121.12,-6.37,-0.28,-6.37,-0.28,0.27,0.38,0.31,-6.10,-6.10,-6.09
122.33,-6.42,-0.28,-6.42,-0.28,0.27,0.37,0.31,-6.15,-6.15,-6.14
123.55,-6.48,-0.29,-6.48,-0.28,0.28,0.36,0.30,-6.20,-6.20,-6.19
124.79,-6.53,-0.29,-6.53,-0.29,0.29,0.35,0.30,-6.24,-6.24,-6.24
126.03,-6.58,-0.29,-6.58,-0.29,0.30,0.34,0.29,-6.28,-6.29,-6.29
127.29,-6.64,-0.30,-6.64,-0.30,0.31,0.33,0.29,-6.33,-6.34,-6.34
128.57,-6.71,-0.31,-6.71,-0.31,0.32,0.32,0.29,-6.39,-6.39,-6.40
129.85,-6.78,-0.34,-6.78,-0.33,0.33,0.31,0.28,-6.45,-6.45,-6.44
131.15,-6.84,-0.35,-6.84,-0.35,0.34,0.31,0.28,-6.50,-6.50,-6.49
132.46,-6.89,-0.36,-6.89,-0.36,0.35,0.30,0.28,-6.54,-6.54,-6.53
133.79,-6.94,-0.37,-6.94,-0.36,0.36,0.29,0.27,-6.58,-6.58,-6.57
135.12,-6.98,-0.37,-6.98,-0.37,0.37,0.28,0.27,-6.61,-6.61,-6.61
136.48,-7.02,-0.37,-7.02,-0.37,0.37,0.27,0.27,-6.65,-6.65,-6.65
137.84,-7.06,-0.37,-7.06,-0.36,0.36,0.26,0.26,-6.70,-6.70,-6.69
139.22,-7.10,-0.36,-7.10,-0.36,0.36,0.26,0.26,-6.74,-6.74,-6.74
140.61,-7.12,-0.34,-7.12,-0.34,0.34,0.25,0.26,-6.78,-6.78,-6.78
142.02,-7.13,-0.33,-7.13,-0.32,0.32,0.24,0.26,-6.81,-6.81,-6.80
143.44,-7.14,-0.30,-7.14,-0.30,0.30,0.23,0.25,-6.84,-6.85,-6.84
144.87,-7.15,-0.27,-7.15,-0.27,0.26,0.23,0.25,-6.89,-6.89,-6.88
146.32,-7.16,-0.24,-7.16,-0.24,0.23,0.22,0.25,-6.93,-6.93,-6.92
147.78,-7.15,-0.20,-7.15,-0.20,0.19,0.21,0.25,-6.96,-6.96,-6.95
149.26,-7.14,-0.16,-7.14,-0.15,0.15,0.21,0.25,-6.99,-6.99,-6.98
150.75,-7.13,-0.09,-7.13,-0.10,0.11,0.20,0.25,-7.02,-7.03,-7.04
152.26,-7.13,-0.05,-7.13,-0.05,0.07,0.19,0.24,-7.06,-7.07,-7.08
153.78,-7.14,-0.03,-7.14,-0.02,0.03,0.19,0.24,-7.11,-7.11,-7.11
155.32,-7.16,0.01,-7.16,0.00,-0.00,0.18,0.24,-7.16,-7.16,-7.17
156.88,-7.18,0.02,-7.18,0.03,-0.03,0.18,0.24,-7.21,-7.21,-7.20
158.44,-7.20,0.05,-7.20,0.05,-0.05,0.17,0.24,-7.26,-7.26,-7.25
160.03,-7.23,0.07,-7.23,0.07,-0.08,0.16,0.24,-7.31,-7.31,-7.30
161.63,-7.26,0.09,-7.26,0.09,-0.10,0.16,0.24,-7.36,-7.35,-7.35
163.24,-7.28,0.11,-7.28,0.11,-0.11,0.15,0.24,-7.39,-7.39,-7.39
164.88,-7.30,0.13,-7.30,0.13,-0.13,0.15,0.24,-7.43,-7.43,-7.43
166.53,-7.33,0.15,-7.33,0.15,-0.15,0.15,0.24,-7.48,-7.48,-7.48
168.19,-7.36,0.17,-7.36,0.17,-0.17,0.14,0.24,-7.53,-7.53,-7.53
169.87,-7.40,0.18,-7.40,0.18,-0.19,0.14,0.24,-7.59,-7.58,-7.58
171.57,-7.43,0.19,-7.43,0.20,-0.20,0.13,0.25,-7.63,-7.63,-7.62
173.29,-7.46,0.22,-7.47,0.22,-0.22,0.13,0.25,-7.68,-7.69,-7.68
175.02,-7.50,0.23,-7.50,0.23,-0.24,0.13,0.25,-7.74,-7.74,-7.73
176.77,-7.54,0.25,-7.54,0.26,-0.26,0.13,0.25,-7.80,-7.79,-7.79
178.54,-7.57,0.27,-7.57,0.27,-0.27,0.12,0.25,-7.84,-7.85,-7.84
180.32,-7.61,0.29,-7.61,0.29,-0.29,0.12,0.25,-7.90,-7.90,-7.90
182.13,-7.66,0.29,-7.66,0.30,-0.30,0.12,0.26,-7.96,-7.95,-7.95
183.95,-7.71,0.30,-7.71,0.30,-0.30,0.12,0.26,-8.01,-8.01,-8.01
185.79,-7.77,0.29,-7.77,0.30,-0.29,0.12,0.26,-8.07,-8.06,-8.06
187.65,-7.83,0.30,-7.83,0.29,-0.28,0.12,0.26,-8.11,-8.12,-8.13
189.52,-7.91,0.27,-7.91,0.27,-0.27,0.12,0.27,-8.18,-8.18,-8.18
191.42,-7.99,0.24,-7.99,0.24,-0.24,0.12,0.27,-8.23,-8.23,-8.23
193.33,-8.08,0.20,-8.08,0.20,-0.21,0.12,0.27,-8.29,-8.29,-8.28
195.27,-8.17,0.16,-8.17,0.17,-0.17,0.12,0.28,-8.34,-8.34,-8.33
197.22,-8.26,0.13,-8.26,0.13,-0.13,0.12,0.28,-8.39,-8.39,-8.39
199.19,-8.35,0.09,-8.35,0.09,-0.08,0.13,0.28,-8.43,-8.43,-8.44
201.18,-8.45,0.04,-8.45,0.04,-0.03,0.13,0.28,-8.48,-8.48,-8.49
203.19,-8.55,-0.03,-8.55,-0.02,0.02,0.13,0.29,-8.53,-8.53,-8.52
205.23,-8.65,-0.07,-8.66,-0.08,0.08,0.14,0.29,-8.58,-8.58,-8.58
207.28,-8.76,-0.16,-8.76,-0.14,0.13,0.14,0.29,-8.63,-8.63,-8.60
209.35,-8.86,-0.20,-8.85,-0.19,0.18,0.15,0.29,-8.68,-8.67,-8.66
211.44,-8.94,-0.23,-8.94,-0.24,0.23,0.15,0.30,-8.71,-8.71,-8.71
213.56,-9.02,-0.27,-9.03,-0.28,0.29,0.16,0.30,-8.74,-8.74,-8.75
215.69,-9.11,-0.34,-9.11,-0.33,0.34,0.16,0.30,-8.77,-8.77,-8.77
217.85,-9.19,-0.38,-9.19,-0.37,0.38,0.17,0.30,-8.81,-8.81,-8.81
220.03,-9.27,-0.42,-9.27,-0.42,0.43,0.18,0.30,-8.84,-8.84,-8.85
222.23,-9.35,-0.47,-9.35,-0.47,0.47,0.19,0.30,-8.88,-8.88,-8.88
224.45,-9.43,-0.53,-9.43,-0.52,0.51,0.20,0.30,-8.92,-8.92,-8.90
226.70,-9.50,-0.57,-9.49,-0.56,0.55,0.21,0.30,-8.95,-8.95,-8.93
228.96,-9.54,-0.58,-9.55,-0.59,0.58,0.21,0.29,-8.96,-8.97,-8.96
231.25,-9.58,-0.61,-9.58,-0.60,0.60,0.22,0.29,-8.98,-8.98,-8.97
233.57,-9.60,-0.61,-9.60,-0.61,0.61,0.23,0.29,-8.99,-8.99,-8.99
235.90,-9.61,-0.61,-9.62,-0.61,0.62,0.24,0.28,-8.99,-9.00,-9.00
238.26,-9.63,-0.62,-9.63,-0.61,0.61,0.25,0.27,-9.02,-9.01,-9.01
240.64,-9.63,-0.61,-9.63,-0.61,0.60,0.26,0.27,-9.03,-9.03,-9.02
243.05,-9.62,-0.60,-9.62,-0.59,0.59,0.27,0.26,-9.03,-9.03,-9.02
245.48,-9.60,-0.57,-9.60,-0.57,0.57,0.28,0.25,-9.03,-9.03,-9.03
247.93,-9.57,-0.54,-9.57,-0.54,0.55,0.28,0.24,-9.02,-9.03,-9.03
250.41,-9.54,-0.51,-9.54,-0.51,0.52,0.29,0.22,-9.02,-9.03,-9.03
252.92,-9.51,-0.49,-9.51,-0.49,0.48,0.29,0.21,-9.03,-9.03,-9.02
255.45,-9.47,-0.46,-9.47,-0.45,0.44,0.30,0.19,-9.04,-9.03,-9.01
258.00,-9.41,-0.41,-9.41,-0.40,0.39,0.30,0.18,-9.02,-9.02,-9.00
260.58,-9.34,-0.34,-9.35,-0.35,0.34,0.30,0.16,-9.00,-9.00,-9.00
263.19,-9.28,-0.29,-9.28,-0.29,0.30,0.29,0.14,-8.98,-8.98,-8.99
265.82,-9.22,-0.24,-9.22,-0.24,0.26,0.29,0.12,-8.96,-8.96,-8.98
268.48,-9.16,-0.20,-9.16,-0.20,0.21,0.28,0.10,-8.95,-8.95,-8.96
271.16,-9.11,-0.17,-9.11,-0.17,0.17,0.27,0.08,-8.94,-8.94,-8.94
273.87,-9.07,-0.13,-9.07,-0.14,0.13,0.26,0.05,-8.94,-8.94,-8.94
276.61,-9.03,-0.12,-9.03,-0.11,0.09,0.24,0.03,-8.94,-8.93,-8.91
279.38,-8.98,-0.07,-8.98,-0.07,0.06,0.22,0.00,-8.92,-8.92,-8.91
282.17,-8.93,-0.04,-8.93,-0.03,0.03,0.20,-0.02,-8.91,-8.90,-8.89
284.99,-8.87,0.01,-8.87,0.01,-0.01,0.17,-0.05,-8.88,-8.88,-8.88
287.84,-8.82,0.05,-8.82,0.05,-0.04,0.14,-0.08,-8.86,-8.86,-8.87
290.72,-8.77,0.09,-8.77,0.09,-0.08,0.11,-0.11,-8.85,-8.85,-8.86
293.63,-8.73,0.11,-8.73,0.11,-0.11,0.08,-0.14,-8.84,-8.84,-8.84
296.57,-8.70,0.12,-8.70,0.13,-0.14,0.04,-0.17,-8.84,-8.83,-8.82
299.53,-8.66,0.16,-8.66,0.16,-0.16,0.01,-0.20,-8.82,-8.82,-8.82
302.53,-8.62,0.19,-8.62,0.19,-0.19,-0.04,-0.23,-8.81,-8.81,-8.81
305.55,-8.58,0.21,-8.58,0.22,-0.21,-0.08,-0.26,-8.80,-8.80,-8.79
308.61,-8.54,0.24,-8.54,0.24,-0.24,-0.12,-0.29,-8.78,-8.79,-8.78
311.69,-8.50,0.27,-8.50,0.27,-0.27,-0.17,-0.33,-8.78,-8.78,-8.77
314.81,-8.46,0.28,-8.46,0.30,-0.31,-0.21,-0.36,-8.77,-8.77,-8.74
317.96,-8.41,0.34,-8.41,0.34,-0.34,-0.26,-0.40,-8.75,-8.75,-8.75
321.14,-8.36,0.38,-8.36,0.38,-0.37,-0.31,-0.43,-8.73,-8.74,-8.74
324.35,-8.32,0.42,-8.32,0.42,-0.41,-0.36,-0.46,-8.73,-8.73,-8.74
327.59,-8.29,0.44,-8.29,0.45,-0.44,-0.41,-0.50,-8.73,-8.73,-8.73
330.87,-8.26,0.47,-8.26,0.47,-0.47,-0.46,-0.54,-8.73,-8.73,-8.73
334.18,-8.23,0.50,-8.23,0.50,-0.50,-0.51,-0.57,-8.73,-8.73,-8.73
337.52,-8.20,0.52,-8.21,0.52,-0.53,-0.56,-0.61,-8.73,-8.74,-8.72
340.90,-8.18,0.54,-8.17,0.55,-0.56,-0.61,-0.64,-8.74,-8.74,-8.72
344.30,-8.14,0.58,-8.14,0.59,-0.59,-0.66,-0.68,-8.74,-8.73,-8.72
347.75,-8.09,0.63,-8.10,0.63,-0.63,-0.71,-0.72,-8.72,-8.72,-8.72
351.23,-8.05,0.67,-8.05,0.67,-0.66,-0.76,-0.76,-8.71,-8.71,-8.72
354.74,-8.02,0.70,-8.02,0.71,-0.70,-0.81,-0.80,-8.72,-8.72,-8.72
358.28,-7.99,0.75,-7.99,0.74,-0.73,-0.86,-0.83,-8.72,-8.73,-8.74
361.87,-7.97,0.77,-7.97,0.77,-0.77,-0.91,-0.87,-8.74,-8.74,-8.74
365.49,-7.95,0.79,-7.95,0.80,-0.81,-0.96,-0.91,-8.76,-8.75,-8.74
369.14,-7.92,0.83,-7.92,0.83,-0.84,-1.01,-0.95,-8.77,-8.76,-8.75
372.83,-7.88,0.87,-7.88,0.88,-0.88,-1.06,-0.99,-8.77,-8.76,-8.75
376.56,-7.83,0.93,-7.84,0.93,-0.93,-1.10,-1.04,-8.76,-8.77,-8.76
380.33,-7.80,0.97,-7.80,0.97,-0.97,-1.15,-1.08,-8.77,-8.77,-8.77
384.13,-7.76,1.02,-7.76,1.03,-1.02,-1.20,-1.12,-8.78,-8.78,-8.78
387.97,-7.72,1.07,-7.72,1.07,-1.07,-1.25,-1.16,-8.79,-8.79,-8.79
391.85,-7.67,1.13,-7.67,1.13,-1.12,-1.30,-1.21,-8.79,-8.79,-8.80
395.77,-7.62,1.17,-7.63,1.17,-1.17,-1.35,-1.25,-8.79,-8.79,-8.79
399.73,-7.58,1.22,-7.58,1.22,-1.22,-1.40,-1.29,-8.80,-8.80,-8.80
403.72,-7.55,1.26,-7.55,1.26,-1.27,-1.45,-1.34,-8.82,-8.81,-8.81
407.76,-7.51,1.31,-7.51,1.31,-1.32,-1.49,-1.38,-8.83,-8.82,-8.82
411.84,-7.46,1.35,-7.46,1.36,-1.37,-1.54,-1.43,-8.83,-8.83,-8.81
415.96,-7.40,1.43,-7.41,1.42,-1.42,-1.59,-1.48,-8.83,-8.83,-8.83
420.12,-7.35,1.48,-7.35,1.48,-1.48,-1.64,-1.52,-8.83,-8.83,-8.83
