frequency,raw,error,smoothed,error_smoothed,equalization,parametric_eq,fixed_band_eq,equalized_raw,equalized_smoothed,target
20.00,-14.15,-17.41,-14.16,-17.45,17.45,16.56,7.37,3.30,3.29,3.26
20.20,-14.06,-17.37,-14.07,-17.40,17.40,16.68,7.53,3.34,3.33,3.31
20.40,-13.98,-17.34,-13.98,-17.35,17.35,16.79,7.70,3.37,3.36,3.36
20.61,-13.89,-17.28,-13.89,-17.29,17.29,16.88,7.87,3.40,3.40,3.39
20.81,-13.81,-17.25,-13.81,-17.23,17.23,16.96,8.05,3.42,3.43,3.44
21.02,-13.72,-17.20,-13.72,-17.17,17.17,17.03,8.23,3.45,3.45,3.48
21.23,-13.64,-17.14,-13.63,-17.11,17.11,17.09,8.41,3.47,3.48,3.50
21.44,-13.55,-17.07,-13.54,-17.04,17.04,17.13,8.60,3.49,3.50,3.52
21.66,-13.47,-17.01,-13.45,-16.97,16.97,17.15,8.79,3.50,3.52,3.54
21.87,-13.38,-16.93,-13.37,-16.91,16.91,17.17,8.99,3.53,3.54,3.55
22.09,-13.29,-16.86,-13.28,-16.83,16.83,17.16,9.20,3.55,3.55,3.57
22.31,-13.20,-16.77,-13.19,-16.76,16.76,17.15,9.41,3.56,3.57,3.58
22.54,-13.11,-16.69,-13.10,-16.68,16.68,17.12,9.62,3.57,3.57,3.58
22.76,-13.02,-16.59,-13.02,-16.59,16.59,17.08,9.84,3.57,3.58,3.58
22.99,-12.93,-16.49,-12.93,-16.51,16.51,17.03,10.07,3.58,3.58,3.56
23.22,-12.84,-16.40,-12.84,-16.42,16.42,16.96,10.31,3.58,3.58,3.56
23.45,-12.75,-16.31,-12.76,-16.34,16.34,16.89,10.55,3.59,3.58,3.56
23.69,-12.65,-16.22,-12.67,-16.25,16.25,16.80,10.79,3.60,3.58,3.57
23.92,-12.56,-16.13,-12.58,-16.16,16.16,16.71,11.05,3.60,3.58,3.57
24.16,-12.48,-16.06,-12.50,-16.08,16.08,16.61,11.31,3.60,3.58,3.58
24.40,-12.42,-16.01,-12.41,-15.99,15.99,16.50,11.57,3.57,3.58,3.59
24.65,-12.35,-15.93,-12.33,-15.91,15.91,16.39,11.85,3.56,3.58,3.58
24.89,-12.28,-15.86,-12.25,-15.83,15.83,16.27,12.13,3.55,3.58,3.58
25.14,-12.19,-15.77,-12.17,-15.75,15.75,16.15,12.42,3.56,3.58,3.58
25.39,-12.10,-15.68,-12.09,-15.67,15.67,16.02,12.72,3.57,3.58,3.59
25.65,-12.00,-15.58,-12.01,-15.59,15.59,15.90,13.02,3.59,3.58,3.58
25.91,-11.91,-15.48,-11.93,-15.51,15.51,15.77,13.34,3.60,3.58,3.57
26.16,-11.83,-15.40,-11.84,-15.42,15.42,15.63,13.65,3.60,3.58,3.57
26.43,-11.76,-15.33,-11.77,-15.34,15.34,15.50,13.98,3.58,3.58,3.57
26.69,-11.70,-15.27,-11.69,-15.26,15.26,15.37,14.31,3.56,3.57,3.57
26.96,-11.63,-15.21,-11.61,-15.18,15.18,15.24,14.65,3.55,3.57,3.58
27.23,-11.54,-15.12,-11.53,-15.10,15.10,15.10,14.99,3.56,3.57,3.58
27.50,-11.44,-15.02,-11.45,-15.02,15.02,14.97,15.34,3.58,3.57,3.58
27.77,-11.35,-14.91,-11.38,-14.94,14.94,14.84,15.68,3.60,3.57,3.56
28.05,-11.26,-14.82,-11.30,-14.87,14.87,14.71,16.03,3.61,3.56,3.56
28.33,-11.20,-14.75,-11.22,-14.79,14.79,14.59,16.37,3.59,3.56,3.55
28.62,-11.15,-14.70,-11.14,-14.70,14.70,14.46,16.70,3.55,3.56,3.55
28.90,-11.09,-14.65,-11.06,-14.62,14.62,14.34,17.02,3.53,3.56,3.56
29.19,-11.02,-14.57,-10.98,-14.54,14.54,14.22,17.33,3.52,3.56,3.55
29.48,-10.93,-14.49,-10.90,-14.45,14.45,14.10,17.61,3.52,3.55,3.56
29.78,-10.85,-14.40,-10.81,-14.36,14.36,13.99,17.87,3.51,3.55,3.55
30.08,-10.76,-14.32,-10.73,-14.28,14.28,13.87,18.10,3.52,3.55,3.56
30.38,-10.65,-14.20,-10.64,-14.19,14.19,13.76,18.29,3.54,3.55,3.55
30.68,-10.54,-14.09,-10.56,-14.11,14.11,13.66,18.43,3.57,3.55,3.55
30.99,-10.43,-13.97,-10.48,-14.02,14.02,13.55,18.52,3.59,3.54,3.54
31.30,-10.36,-13.90,-10.39,-13.94,13.94,13.45,18.57,3.58,3.54,3.54
31.61,-10.30,-13.84,-10.31,-13.85,13.85,13.36,18.56,3.55,3.54,3.54
31.93,-10.23,-13.77,-10.23,-13.77,13.77,13.26,18.51,3.54,3.53,3.54
32.24,-10.15,-13.67,-10.16,-13.69,13.69,13.17,18.40,3.54,3.53,3.52
32.57,-10.07,-13.60,-10.09,-13.61,13.61,13.08,18.26,3.54,3.53,3.53
32.89,-10.00,-13.53,-10.02,-13.53,13.53,13.00,18.07,3.54,3.52,3.53
33.22,-9.93,-13.44,-9.95,-13.46,13.46,12.91,17.86,3.53,3.52,3.51
33.55,-9.88,-13.39,-9.88,-13.39,13.39,12.83,17.61,3.51,3.51,3.51
33.89,-9.83,-13.33,-9.81,-13.31,13.31,12.76,17.35,3.48,3.50,3.50
34.23,-9.76,-13.26,-9.74,-13.24,13.24,12.68,17.07,3.48,3.50,3.50
34.57,-9.70,-13.19,-9.67,-13.16,13.16,12.61,16.79,3.46,3.49,3.49
34.92,-9.63,-13.12,-9.59,-13.08,13.08,12.55,16.49,3.45,3.49,3.49
35.27,-9.54,-13.02,-9.51,-13.00,13.00,12.48,16.20,3.46,3.49,3.48
35.62,-9.44,-12.92,-9.44,-12.92,12.92,12.42,15.90,3.48,3.48,3.48
35.97,-9.35,-12.82,-9.36,-12.84,12.84,12.36,15.60,3.50,3.48,3.48
36.33,-9.26,-12.74,-9.29,-12.76,12.76,12.30,15.31,3.51,3.48,3.48
36.70,-9.18,-12.65,-9.21,-12.68,12.68,12.25,15.03,3.50,3.47,3.47
37.06,-9.10,-12.56,-9.13,-12.60,12.60,12.19,14.75,3.50,3.47,3.46
37.43,-9.03,-12.51,-9.04,-12.51,12.51,12.14,14.47,3.48,3.47,3.48
37.81,-8.96,-12.43,-8.95,-12.43,12.43,12.09,14.21,3.47,3.47,3.47
38.19,-8.89,-12.36,-8.87,-12.35,12.35,12.05,13.95,3.46,3.47,3.47
38.57,-8.83,-12.30,-8.80,-12.27,12.27,12.00,13.70,3.44,3.47,3.47
38.95,-8.78,-12.25,-8.73,-12.20,12.20,11.96,13.46,3.42,3.47,3.48
39.34,-8.68,-12.15,-8.66,-12.13,12.13,11.92,13.23,3.46,3.47,3.47
39.74,-8.58,-12.04,-8.60,-12.07,12.07,11.88,13.01,3.49,3.47,3.47
40.14,-8.48,-11.95,-8.54,-12.00,12.00,11.84,12.79,3.52,3.47,3.47
40.54,-8.41,-11.87,-8.47,-11.93,11.93,11.80,12.59,3.52,3.46,3.46
40.94,-8.33,-11.78,-8.40,-11.86,11.86,11.76,12.39,3.53,3.46,3.46
41.35,-8.32,-11.77,-8.33,-11.78,11.78,11.72,12.20,3.46,3.45,3.45
41.76,-8.32,-11.76,-8.26,-11.70,11.70,11.68,12.02,3.38,3.44,3.44
42.18,-8.28,-11.72,-8.19,-11.62,11.62,11.64,11.85,3.35,3.43,3.44
42.60,-8.19,-11.61,-8.13,-11.55,11.55,11.60,11.68,3.36,3.42,3.43
43.03,-8.09,-11.51,-8.07,-11.48,11.48,11.57,11.52,3.39,3.41,3.42
43.46,-8.01,-11.42,-8.00,-11.40,11.40,11.53,11.37,3.39,3.40,3.41
43.90,-7.92,-11.30,-7.94,-11.32,11.32,11.49,11.23,3.40,3.38,3.38
44.33,-7.83,-11.19,-7.87,-11.24,11.24,11.44,11.09,3.41,3.37,3.36
44.78,-7.73,-11.07,-7.81,-11.16,11.16,11.40,10.96,3.43,3.35,3.34
45.23,-7.68,-11.01,-7.74,-11.08,11.08,11.35,10.84,3.40,3.34,3.33
45.68,-7.69,-11.00,-7.68,-11.00,11.00,11.31,10.73,3.31,3.32,3.31
46.13,-7.67,-10.96,-7.61,-10.92,10.92,11.26,10.62,3.25,3.31,3.29
46.60,-7.58,-10.87,-7.54,-10.83,10.83,11.20,10.51,3.25,3.29,3.29
47.06,-7.50,-10.77,-7.47,-10.75,10.75,11.15,10.42,3.25,3.27,3.27
47.53,-7.39,-10.65,-7.41,-10.67,10.67,11.09,10.33,3.28,3.26,3.26
48.01,-7.28,-10.54,-7.35,-10.58,10.58,11.03,10.24,3.30,3.24,3.26
48.49,-7.28,-10.51,-7.28,-10.50,10.50,10.96,10.16,3.22,3.22,3.23
48.97,-7.29,-10.50,-7.22,-10.43,10.43,10.89,10.09,3.14,3.21,3.21
49.46,-7.21,-10.40,-7.16,-10.35,10.35,10.82,10.02,3.14,3.19,3.19
49.96,-7.12,-10.28,-7.09,-10.27,10.27,10.75,9.95,3.15,3.18,3.16
50.46,-7.00,-10.16,-7.02,-10.18,10.18,10.67,9.89,3.18,3.16,3.16
50.96,-6.88,-10.02,-6.94,-10.09,10.09,10.59,9.83,3.21,3.14,3.14
51.47,-6.84,-9.96,-6.88,-10.01,10.01,10.50,9.78,3.17,3.13,3.12
51.99,-6.81,-9.91,-6.81,-9.93,9.93,10.41,9.73,3.12,3.11,3.10
52.51,-6.74,-9.84,-6.75,-9.85,9.85,10.32,9.68,3.11,3.10,3.10
53.03,-6.68,-9.77,-6.69,-9.77,9.77,10.22,9.63,3.09,3.08,3.09
53.56,-6.66,-9.73,-6.62,-9.69,9.69,10.12,9.58,3.03,3.07,3.07
54.10,-6.62,-9.67,-6.55,-9.61,9.61,10.01,9.54,2.99,3.05,3.05
54.64,-6.47,-9.50,-6.49,-9.53,9.53,9.91,9.50,3.06,3.04,3.03
55.18,-6.38,-9.40,-6.43,-9.46,9.46,9.79,9.45,3.08,3.03,3.03
55.74,-6.40,-9.40,-6.38,-9.39,9.39,9.68,9.41,2.99,3.01,3.01
56.29,-6.35,-9.34,-6.32,-9.32,9.32,9.56,9.37,2.97,2.99,2.99
56.86,-6.25,-9.22,-6.26,-9.24,9.24,9.45,9.32,2.99,2.98,2.97
57.42,-6.20,-9.14,-6.20,-9.16,9.16,9.32,9.27,2.96,2.95,2.94
58.00,-6.17,-9.10,-6.15,-9.08,9.08,9.20,9.22,2.91,2.93,2.93
58.58,-6.08,-8.99,-6.09,-9.00,9.00,9.08,9.17,2.92,2.90,2.91
59.16,-6.02,-8.91,-6.04,-8.91,8.91,8.95,9.11,2.89,2.87,2.89
59.76,-6.00,-8.86,-5.99,-8.83,8.83,8.82,9.05,2.83,2.84,2.86
60.35,-5.95,-8.77,-5.94,-8.75,8.75,8.69,8.98,2.80,2.81,2.82
60.96,-5.89,-8.67,-5.89,-8.66,8.66,8.56,8.91,2.77,2.77,2.78
61.57,-5.81,-8.54,-5.84,-8.57,8.57,8.43,8.83,2.76,2.73,2.73
62.18,-5.76,-8.45,-5.79,-8.48,8.48,8.30,8.75,2.72,2.69,2.69
62.80,-5.78,-8.42,-5.74,-8.38,8.38,8.16,8.66,2.60,2.64,2.64
63.43,-5.75,-8.34,-5.70,-8.29,8.29,8.03,8.57,2.54,2.59,2.59
64.07,-5.68,-8.22,-5.66,-8.21,8.21,7.90,8.47,2.53,2.55,2.54
64.71,-5.62,-8.10,-5.64,-8.13,8.13,7.76,8.37,2.51,2.49,2.48
65.35,-5.59,-8.03,-5.61,-8.05,8.05,7.63,8.26,2.47,2.44,2.44
66.01,-5.59,-7.98,-5.58,-7.97,7.97,7.50,8.15,2.38,2.39,2.39
66.67,-5.48,-7.81,-5.55,-7.89,7.89,7.37,8.03,2.41,2.34,2.33
67.33,-5.45,-7.73,-5.52,-7.80,7.80,7.24,7.91,2.35,2.28,2.28
68.01,-5.49,-7.72,-5.50,-7.72,7.72,7.11,7.78,2.24,2.23,2.23
68.69,-5.49,-7.66,-5.48,-7.65,7.65,6.98,7.65,2.16,2.17,2.17
69.37,-5.49,-7.60,-5.46,-7.57,7.57,6.85,7.52,2.08,2.11,2.12
70.07,-5.49,-7.55,-5.44,-7.49,7.49,6.72,7.39,2.00,2.06,2.06
70.77,-5.53,-7.54,-5.41,-7.41,7.41,6.59,7.25,1.88,1.99,2.01
71.48,-5.42,-7.36,-5.39,-7.33,7.33,6.47,7.11,1.91,1.93,1.94
72.19,-5.28,-7.15,-5.37,-7.24,7.24,6.35,6.97,1.96,1.87,1.87
72.91,-5.23,-7.04,-5.34,-7.15,7.15,6.22,6.83,1.92,1.81,1.81
73.64,-5.26,-7.00,-5.30,-7.05,7.05,6.10,6.69,1.79,1.75,1.74
74.38,-5.31,-6.99,-5.26,-6.94,6.94,5.98,6.55,1.64,1.68,1.68
75.12,-5.33,-6.94,-5.22,-6.84,6.84,5.87,6.41,1.51,1.62,1.61
75.87,-5.21,-6.76,-5.16,-6.72,6.72,5.75,6.27,1.51,1.56,1.55
76.63,-5.12,-6.61,-5.11,-6.60,6.60,5.64,6.13,1.48,1.49,1.49
77.40,-5.04,-6.47,-5.05,-6.48,6.48,5.52,6.00,1.45,1.43,1.43
78.17,-4.99,-6.35,-5.00,-6.37,6.37,5.41,5.86,1.39,1.37,1.36
78.95,-5.02,-6.34,-4.95,-6.27,6.27,5.30,5.73,1.25,1.31,1.32
79.74,-4.84,-6.10,-4.91,-6.17,6.17,5.19,5.60,1.33,1.26,1.26
80.54,-4.76,-5.96,-4.87,-6.07,6.07,5.09,5.47,1.31,1.20,1.20
81.35,-4.75,-5.89,-4.80,-5.95,5.95,4.98,5.34,1.20,1.14,1.14
82.16,-4.76,-5.84,-4.74,-5.83,5.83,4.88,5.21,1.07,1.09,1.09
82.98,-4.68,-5.72,-4.68,-5.71,5.71,4.78,5.09,1.03,1.03,1.04
83.81,-4.62,-5.59,-4.62,-5.60,5.60,4.68,4.97,0.98,0.98,0.97
84.65,-4.59,-5.51,-4.56,-5.48,5.48,4.58,4.86,0.89,0.92,0.92
85.50,-4.59,-5.46,-4.50,-5.37,5.37,4.48,4.74,0.78,0.86,0.87
86.35,-4.53,-5.34,-4.44,-5.25,5.25,4.39,4.63,0.72,0.80,0.81
87.22,-4.40,-5.15,-4.38,-5.12,5.12,4.29,4.52,0.72,0.74,0.75
88.09,-4.34,-5.03,-4.31,-5.00,5.00,4.20,4.41,0.66,0.68,0.69
88.97,-4.16,-4.79,-4.25,-4.88,4.88,4.11,4.31,0.72,0.63,0.63
89.86,-4.16,-4.72,-4.19,-4.75,4.75,4.02,4.21,0.59,0.57,0.57
90.76,-4.18,-4.68,-4.13,-4.64,4.64,3.94,4.11,0.46,0.51,0.50
91.66,-4.02,-4.47,-4.07,-4.52,4.52,3.85,4.01,0.50,0.45,0.45
92.58,-3.94,-4.32,-4.01,-4.40,4.40,3.77,3.92,0.46,0.39,0.38
93.51,-3.94,-4.26,-3.96,-4.28,4.28,3.68,3.83,0.34,0.33,0.32
94.44,-3.91,-4.18,-3.90,-4.17,4.17,3.60,3.74,0.26,0.27,0.27
95.39,-3.86,-4.07,-3.85,-4.06,4.06,3.52,3.66,0.20,0.21,0.21
96.34,-3.82,-3.97,-3.82,-3.97,3.97,3.44,3.57,0.15,0.15,0.15
97.30,-3.78,-3.87,-3.80,-3.89,3.89,3.36,3.49,0.11,0.09,0.09
98.28,-3.80,-3.83,-3.77,-3.81,3.81,3.29,3.41,0.01,0.03,0.03
99.26,-3.83,-3.81,-3.75,-3.72,3.72,3.21,3.34,-0.10,-0.02,-0.02
100.25,-3.76,-3.68,-3.73,-3.64,3.64,3.14,3.26,-0.12,-0.08,-0.08
101.25,-3.60,-3.46,-3.71,-3.57,3.57,3.07,3.19,-0.03,-0.14,-0.14
102.27,-3.62,-3.42,-3.71,-3.51,3.51,2.99,3.12,-0.11,-0.20,-0.20
103.29,-3.65,-3.39,-3.69,-3.44,3.44,2.92,3.05,-0.21,-0.26,-0.26
104.32,-3.68,-3.37,-3.67,-3.36,3.36,2.86,2.98,-0.32,-0.32,-0.31
105.37,-3.73,-3.36,-3.65,-3.28,3.28,2.79,2.91,-0.45,-0.38,-0.37
106.42,-3.73,-3.30,-3.63,-3.20,3.20,2.72,2.85,-0.53,-0.44,-0.43
107.48,-3.62,-3.13,-3.61,-3.11,3.11,2.65,2.79,-0.50,-0.50,-0.49
108.56,-3.55,-2.99,-3.60,-3.04,3.04,2.59,2.73,-0.51,-0.56,-0.56
109.64,-3.61,-2.99,-3.59,-2.96,2.96,2.52,2.66,-0.65,-0.62,-0.62
110.74,-3.65,-2.96,-3.57,-2.89,2.89,2.46,2.61,-0.76,-0.68,-0.69
111.85,-3.56,-2.83,-3.56,-2.82,2.82,2.40,2.55,-0.74,-0.75,-0.73
112.97,-3.50,-2.69,-3.54,-2.74,2.74,2.34,2.49,-0.76,-0.81,-0.81
114.10,-3.41,-2.54,-3.51,-2.64,2.64,2.28,2.43,-0.77,-0.86,-0.87
115.24,-3.42,-2.50,-3.48,-2.56,2.56,2.22,2.38,-0.86,-0.92,-0.92
116.39,-3.44,-2.45,-3.44,-2.47,2.47,2.16,2.32,-0.97,-0.98,-0.99
117.55,-3.45,-2.41,-3.41,-2.39,2.39,2.10,2.27,-1.06,-1.03,-1.03
118.73,-3.47,-2.38,-3.39,-2.31,2.31,2.04,2.22,-1.16,-1.08,-1.09
119.92,-3.47,-2.35,-3.37,-2.24,2.24,1.98,2.16,-1.23,-1.13,-1.12
121.12,-3.36,-2.18,-3.33,-2.16,2.16,1.93,2.11,-1.20,-1.17,-1.18
122.33,-3.24,-2.02,-3.29,-2.08,2.08,1.87,2.06,-1.16,-1.22,-1.22
123.55,-3.17,-1.92,-3.26,-2.00,2.00,1.82,2.00,-1.17,-1.26,-1.25
124.79,-3.19,-1.89,-3.22,-1.92,1.92,1.76,1.95,-1.27,-1.30,-1.30
126.03,-3.21,-1.87,-3.19,-1.85,1.85,1.71,1.90,-1.36,-1.34,-1.34
127.29,-3.22,-1.85,-3.16,-1.78,1.78,1.65,1.85,-1.44,-1.38,-1.37
128.57,-3.15,-1.73,-3.12,-1.70,1.70,1.60,1.80,-1.45,-1.42,-1.42
129.85,-3.08,-1.62,-3.08,-1.63,1.63,1.55,1.74,-1.45,-1.46,-1.46
131.15,-3.06,-1.56,-3.05,-1.56,1.56,1.49,1.69,-1.50,-1.49,-1.50
132.46,-2.97,-1.44,-3.02,-1.49,1.49,1.44,1.64,-1.48,-1.53,-1.53
133.79,-2.93,-1.36,-3.00,-1.43,1.43,1.39,1.59,-1.50,-1.57,-1.57
135.12,-2.96,-1.34,-2.98,-1.38,1.38,1.34,1.54,-1.58,-1.60,-1.62
136.48,-2.95,-1.31,-2.96,-1.32,1.32,1.29,1.48,-1.63,-1.64,-1.64
137.84,-2.98,-1.30,-2.93,-1.25,1.25,1.23,1.43,-1.73,-1.68,-1.68
139.22,-2.96,-1.23,-2.90,-1.18,1.18,1.18,1.38,-1.78,-1.71,-1.73
140.61,-2.89,-1.12,-2.87,-1.12,1.12,1.13,1.33,-1.77,-1.75,-1.77
142.02,-2.85,-1.06,-2.85,-1.06,1.06,1.08,1.28,-1.79,-1.79,-1.79
143.44,-2.85,-1.02,-2.84,-1.01,1.01,1.03,1.22,-1.84,-1.84,-1.83
144.87,-2.85,-0.97,-2.83,-0.95,0.95,0.98,1.17,-1.90,-1.88,-1.88
146.32,-2.80,-0.87,-2.81,-0.88,0.88,0.93,1.12,-1.92,-1.94,-1.93
147.78,-2.73,-0.76,-2.80,-0.80,0.80,0.87,1.07,-1.92,-1.99,-1.97
149.26,-2.73,-0.71,-2.78,-0.72,0.72,0.82,1.02,-2.01,-2.05,-2.02
150.75,-2.75,-0.65,-2.76,-0.63,0.63,0.77,0.96,-2.11,-2.12,-2.10
152.26,-2.75,-0.58,-2.74,-0.55,0.55,0.72,0.91,-2.20,-2.19,-2.17
153.78,-2.75,-0.50,-2.72,-0.45,0.45,0.67,0.86,-2.30,-2.26,-2.25
155.32,-2.78,-0.45,-2.71,-0.37,0.37,0.61,0.81,-2.41,-2.34,-2.33
156.88,-2.75,-0.34,-2.70,-0.29,0.29,0.56,0.76,-2.46,-2.42,-2.41
158.44,-2.67,-0.17,-2.70,-0.20,0.20,0.50,0.70,-2.47,-2.50,-2.50
160.03,-2.64,-0.05,-2.69,-0.12,0.12,0.45,0.65,-2.52,-2.57,-2.59
161.63,-2.65,0.02,-2.69,-0.04,0.04,0.40,0.60,-2.61,-2.64,-2.67
163.24,-2.65,0.09,-2.68,0.03,-0.03,0.34,0.55,-2.68,-2.71,-2.74
164.88,-2.65,0.14,-2.67,0.10,-0.10,0.28,0.50,-2.75,-2.77,-2.79
166.53,-2.66,0.19,-2.66,0.17,-0.17,0.23,0.45,-2.83,-2.83,-2.85
168.19,-2.66,0.23,-2.64,0.24,-0.24,0.17,0.39,-2.90,-2.87,-2.89
169.87,-2.67,0.27,-2.62,0.29,-0.29,0.11,0.34,-2.96,-2.91,-2.94
171.57,-2.68,0.28,-2.60,0.34,-0.34,0.05,0.29,-3.02,-2.95,-2.96
173.29,-2.64,0.34,-2.59,0.38,-0.38,-0.01,0.24,-3.02,-2.97,-2.98
175.02,-2.59,0.40,-2.58,0.41,-0.41,-0.06,0.18,-3.00,-2.99,-2.99
176.77,-2.52,0.49,-2.57,0.44,-0.44,-0.13,0.13,-2.96,-3.01,-3.01
178.54,-2.49,0.53,-2.55,0.47,-0.47,-0.19,0.08,-2.96,-3.02,-3.02
180.32,-2.49,0.53,-2.53,0.50,-0.50,-0.25,0.03,-2.99,-3.03,-3.02
182.13,-2.48,0.54,-2.50,0.54,-0.54,-0.31,-0.03,-3.02,-3.04,-3.02
183.95,-2.47,0.57,-2.47,0.58,-0.58,-0.37,-0.08,-3.05,-3.05,-3.04
185.79,-2.46,0.58,-2.44,0.62,-0.62,-0.43,-0.13,-3.08,-3.07,-3.04
187.65,-2.44,0.63,-2.41,0.66,-0.66,-0.50,-0.19,-3.10,-3.08,-3.07
189.52,-2.45,0.63,-2.39,0.70,-0.70,-0.56,-0.24,-3.15,-3.09,-3.08
191.42,-2.44,0.67,-2.36,0.75,-0.75,-0.62,-0.29,-3.19,-3.11,-3.11
193.33,-2.34,0.79,-2.34,0.78,-0.78,-0.68,-0.35,-3.12,-3.13,-3.13
195.27,-2.29,0.86,-2.33,0.82,-0.82,-0.74,-0.40,-3.11,-3.15,-3.15
197.22,-2.27,0.90,-2.31,0.86,-0.86,-0.80,-0.45,-3.13,-3.17,-3.17
199.19,-2.26,0.94,-2.29,0.90,-0.90,-0.86,-0.51,-3.16,-3.20,-3.20
201.18,-2.25,0.98,-2.28,0.94,-0.94,-0.92,-0.56,-3.19,-3.22,-3.22
203.19,-2.25,0.99,-2.26,0.98,-0.98,-0.97,-0.61,-3.23,-3.25,-3.24
205.23,-2.25,1.02,-2.26,1.01,-1.01,-1.03,-0.66,-3.26,-3.27,-3.27
207.28,-2.25,1.03,-2.25,1.04,-1.04,-1.08,-0.72,-3.29,-3.29,-3.28
209.35,-2.25,1.06,-2.25,1.06,-1.06,-1.12,-0.77,-3.31,-3.32,-3.31
211.44,-2.25,1.10,-2.25,1.09,-1.09,-1.17,-0.82,-3.34,-3.34,-3.35
213.56,-2.25,1.10,-2.25,1.10,-1.10,-1.21,-0.87,-3.35,-3.35,-3.35
215.69,-2.26,1.11,-2.25,1.12,-1.12,-1.25,-0.92,-3.38,-3.37,-3.37
217.85,-2.26,1.13,-2.25,1.13,-1.13,-1.28,-0.96,-3.39,-3.39,-3.38
220.03,-2.27,1.13,-2.25,1.15,-1.15,-1.31,-1.01,-3.42,-3.40,-3.40
222.23,-2.27,1.16,-2.24,1.17,-1.17,-1.33,-1.05,-3.44,-3.41,-3.42
224.45,-2.27,1.15,-2.23,1.18,-1.18,-1.35,-1.10,-3.45,-3.41,-3.42
226.70,-2.27,1.15,-2.22,1.20,-1.20,-1.37,-1.14,-3.47,-3.41,-3.42
228.96,-2.17,1.25,-2.20,1.21,-1.21,-1.38,-1.18,-3.38,-3.41,-3.41
231.25,-2.16,1.25,-2.19,1.22,-1.22,-1.39,-1.21,-3.38,-3.41,-3.41
233.57,-2.15,1.25,-2.17,1.23,-1.23,-1.39,-1.25,-3.38,-3.40,-3.40
235.90,-2.13,1.26,-2.14,1.24,-1.24,-1.39,-1.28,-3.37,-3.39,-3.39
238.26,-2.12,1.26,-2.12,1.25,-1.25,-1.38,-1.31,-3.37,-3.37,-3.38
240.64,-2.10,1.26,-2.10,1.26,-1.26,-1.37,-1.33,-3.36,-3.36,-3.36
243.05,-2.09,1.25,-2.08,1.26,-1.26,-1.36,-1.36,-3.35,-3.34,-3.33
245.48,-2.07,1.25,-2.06,1.26,-1.26,-1.34,-1.38,-3.33,-3.32,-3.31
247.93,-2.04,1.25,-2.04,1.26,-1.26,-1.32,-1.39,-3.30,-3.30,-3.28
250.41,-2.02,1.25,-2.02,1.25,-1.25,-1.30,-1.41,-3.27,-3.27,-3.27
252.92,-2.00,1.24,-2.01,1.24,-1.24,-1.28,-1.42,-3.24,-3.25,-3.24
255.45,-1.99,1.23,-2.01,1.22,-1.22,-1.25,-1.43,-3.21,-3.23,-3.22
258.00,-1.98,1.22,-2.00,1.21,-1.21,-1.23,-1.43,-3.19,-3.21,-3.20
260.58,-1.98,1.21,-1.99,1.19,-1.19,-1.20,-1.43,-3.17,-3.18,-3.19
263.19,-1.98,1.18,-1.99,1.17,-1.17,-1.17,-1.43,-3.15,-3.16,-3.16
265.82,-1.98,1.16,-1.98,1.15,-1.15,-1.14,-1.43,-3.13,-3.14,-3.14
268.48,-1.98,1.14,-1.98,1.13,-1.13,-1.12,-1.42,-3.11,-3.11,-3.12
271.16,-1.99,1.10,-1.98,1.11,-1.11,-1.09,-1.42,-3.10,-3.09,-3.09
273.87,-1.99,1.09,-1.98,1.09,-1.09,-1.06,-1.41,-3.08,-3.07,-3.07
276.61,-1.99,1.05,-1.98,1.06,-1.06,-1.03,-1.39,-3.05,-3.04,-3.04
279.38,-1.99,1.03,-1.98,1.04,-1.04,-1.00,-1.38,-3.03,-3.02,-3.02
282.17,-1.99,1.00,-1.98,1.02,-1.02,-0.97,-1.36,-3.01,-2.99,-2.99
284.99,-1.98,0.98,-1.97,0.99,-0.99,-0.95,-1.35,-2.97,-2.96,-2.96
287.84,-1.97,0.98,-1.97,0.97,-0.97,-0.92,-1.33,-2.94,-2.94,-2.95
290.72,-1.96,0.95,-1.96,0.94,-0.94,-0.90,-1.31,-2.90,-2.91,-2.91
293.63,-1.95,0.94,-1.96,0.93,-0.93,-0.87,-1.29,-2.87,-2.88,-2.89
296.57,-1.94,0.91,-1.94,0.91,-0.91,-0.85,-1.27,-2.85,-2.85,-2.85
299.53,-1.93,0.90,-1.92,0.90,-0.90,-0.83,-1.25,-2.83,-2.83,-2.83
302.53,-1.91,0.90,-1.91,0.89,-0.89,-0.81,-1.22,-2.80,-2.80,-2.81
305.55,-1.90,0.87,-1.89,0.88,-0.88,-0.79,-1.20,-2.78,-2.78,-2.76
308.61,-1.90,0.85,-1.88,0.87,-0.87,-0.77,-1.18,-2.77,-2.75,-2.75
311.69,-1.89,0.83,-1.87,0.86,-0.86,-0.75,-1.16,-2.75,-2.73,-2.72
314.81,-1.88,0.82,-1.86,0.85,-0.85,-0.74,-1.13,-2.73,-2.71,-2.70
317.96,-1.87,0.81,-1.86,0.83,-0.83,-0.72,-1.11,-2.70,-2.69,-2.68
321.14,-1.80,0.88,-1.85,0.82,-0.82,-0.71,-1.09,-2.62,-2.67,-2.67
324.35,-1.78,0.88,-1.85,0.80,-0.80,-0.69,-1.07,-2.58,-2.65,-2.66
327.59,-1.78,0.86,-1.85,0.79,-0.79,-0.68,-1.05,-2.57,-2.64,-2.64
330.87,-1.86,0.78,-1.85,0.78,-0.78,-0.67,-1.03,-2.64,-2.63,-2.64
334.18,-1.89,0.73,-1.85,0.77,-0.77,-0.66,-1.01,-2.66,-2.62,-2.62
337.52,-1.89,0.72,-1.85,0.75,-0.75,-0.65,-0.99,-2.64,-2.61,-2.61
340.90,-1.89,0.70,-1.86,0.74,-0.74,-0.64,-0.97,-2.63,-2.60,-2.59
344.30,-1.89,0.70,-1.87,0.73,-0.73,-0.63,-0.95,-2.62,-2.59,-2.59
347.75,-1.89,0.70,-1.88,0.71,-0.71,-0.62,-0.93,-2.60,-2.59,-2.59
351.23,-1.89,0.69,-1.89,0.70,-0.70,-0.62,-0.92,-2.59,-2.58,-2.58
354.74,-1.89,0.70,-1.90,0.68,-0.68,-0.61,-0.90,-2.57,-2.58,-2.58
358.28,-1.88,0.70,-1.91,0.67,-0.67,-0.61,-0.89,-2.55,-2.58,-2.58
361.87,-1.88,0.70,-1.91,0.66,-0.66,-0.60,-0.87,-2.54,-2.58,-2.58
365.49,-1.87,0.70,-1.92,0.66,-0.66,-0.60,-0.86,-2.53,-2.58,-2.57
369.14,-1.94,0.64,-1.92,0.66,-0.66,-0.60,-0.85,-2.60,-2.58,-2.58
372.83,-1.96,0.63,-1.93,0.66,-0.66,-0.59,-0.83,-2.61,-2.58,-2.59
376.56,-1.95,0.64,-1.93,0.66,-0.66,-0.59,-0.82,-2.61,-2.58,-2.59
380.33,-1.94,0.64,-1.93,0.66,-0.66,-0.59,-0.81,-2.60,-2.59,-2.58
384.13,-1.93,0.65,-1.93,0.66,-0.66,-0.59,-0.80,-2.59,-2.59,-2.58
387.97,-1.93,0.66,-1.92,0.67,-0.67,-0.59,-0.79,-2.60,-2.60,-2.59
391.85,-1.93,0.68,-1.92,0.68,-0.68,-0.59,-0.79,-2.61,-2.60,-2.61
395.77,-1.92,0.68,-1.91,0.70,-0.70,-0.59,-0.78,-2.62,-2.61,-2.60
399.73,-1.93,0.68,-1.90,0.71,-0.71,-0.59,-0.77,-2.64,-2.61,-2.61
403.72,-1.92,0.69,-1.90,0.72,-0.72,-0.60,-0.77,-2.64,-2.62,-2.61
407.76,-1.85,0.77,-1.89,0.73,-0.73,-0.60,-0.76,-2.58,-2.62,-2.62
411.84,-1.83,0.79,-1.88,0.75,-0.75,-0.60,-0.76,-2.58,-2.63,-2.62
415.96,-1.84,0.78,-1.87,0.75,-0.75,-0.61,-0.75,-2.59,-2.63,-2.62
420.12,-1.83,0.80,-1.87,0.76,-0.76,-0.61,-0.75,-2.59,-2.63,-2.63
424.32,-1.83,0.80,-1.86,0.76,-0.76,-0.61,-0.75,-2.59,-2.62,-2.63
428.56,-1.82,0.80,-1.84,0.77,-0.77,-0.62,-0.74,-2.59,-2.61,-2.62
432.85,-1.82,0.79,-1.82,0.77,-0.77,-0.63,-0.74,-2.59,-2.59,-2.61
