frequency,raw,error,smoothed,error_smoothed,equalization,parametric_eq,fixed_band_eq,equalized_raw,equalized_smoothed,target
20.00,8.25,1.44,8.27,1.45,-1.45,-1.10,-0.75,6.80,6.81,6.81
20.20,8.25,1.45,8.26,1.46,-1.46,-1.11,-0.77,6.79,6.80,6.80
20.40,8.25,1.46,8.25,1.46,-1.46,-1.13,-0.79,6.78,6.79,6.79
20.61,8.25,1.47,8.25,1.47,-1.47,-1.15,-0.81,6.78,6.78,6.78
20.81,8.25,1.49,8.24,1.48,-1.48,-1.16,-0.83,6.77,6.77,6.76
21.02,8.25,1.50,8.24,1.49,-1.49,-1.18,-0.85,6.76,6.76,6.75
21.23,8.25,1.51,8.24,1.49,-1.49,-1.19,-0.87,6.76,6.75,6.74
21.44,8.25,1.50,8.24,1.50,-1.50,-1.21,-0.90,6.75,6.74,6.75
21.66,8.25,1.52,8.24,1.51,-1.51,-1.22,-0.92,6.74,6.73,6.73
21.87,8.25,1.52,8.24,1.52,-1.52,-1.24,-0.94,6.73,6.72,6.73
22.09,8.25,1.54,8.24,1.53,-1.53,-1.26,-0.97,6.72,6.71,6.71
22.31,8.25,1.55,8.24,1.53,-1.53,-1.27,-1.00,6.72,6.70,6.70
22.54,8.25,1.56,8.24,1.54,-1.54,-1.29,-1.02,6.71,6.70,6.69
22.76,8.25,1.56,8.23,1.54,-1.54,-1.31,-1.05,6.71,6.69,6.69
22.99,8.24,1.56,8.23,1.55,-1.55,-1.32,-1.08,6.69,6.69,6.68
23.22,8.23,1.56,8.24,1.56,-1.56,-1.34,-1.10,6.67,6.68,6.67
23.45,8.23,1.55,8.24,1.57,-1.57,-1.36,-1.13,6.66,6.68,6.68
23.69,8.23,1.56,8.25,1.58,-1.58,-1.38,-1.16,6.65,6.67,6.67
23.92,8.25,1.59,8.27,1.60,-1.60,-1.39,-1.19,6.65,6.67,6.66
24.16,8.26,1.59,8.29,1.62,-1.62,-1.41,-1.22,6.64,6.66,6.67
24.40,8.28,1.61,8.31,1.65,-1.65,-1.43,-1.25,6.63,6.66,6.67
24.65,8.31,1.65,8.33,1.67,-1.67,-1.45,-1.28,6.64,6.66,6.66
24.89,8.35,1.69,8.36,1.70,-1.70,-1.47,-1.32,6.65,6.66,6.66
25.14,8.38,1.73,8.38,1.73,-1.73,-1.48,-1.35,6.65,6.66,6.65
25.39,8.42,1.77,8.41,1.75,-1.75,-1.50,-1.38,6.67,6.66,6.65
25.65,8.45,1.80,8.43,1.78,-1.78,-1.52,-1.41,6.67,6.65,6.65
25.91,8.48,1.83,8.46,1.80,-1.80,-1.54,-1.45,6.68,6.65,6.65
26.16,8.49,1.83,8.47,1.82,-1.82,-1.56,-1.48,6.67,6.65,6.66
26.43,8.50,1.85,8.48,1.83,-1.83,-1.58,-1.51,6.67,6.65,6.65
26.69,8.51,1.86,8.48,1.83,-1.83,-1.60,-1.54,6.68,6.65,6.65
26.96,8.50,1.85,8.48,1.83,-1.83,-1.62,-1.58,6.67,6.65,6.65
27.23,8.49,1.84,8.47,1.81,-1.81,-1.64,-1.61,6.68,6.66,6.65
27.50,8.47,1.82,8.45,1.79,-1.79,-1.66,-1.64,6.68,6.66,6.65
27.77,8.45,1.79,8.43,1.77,-1.77,-1.68,-1.67,6.68,6.66,6.66
28.05,8.41,1.76,8.40,1.74,-1.74,-1.70,-1.70,6.66,6.66,6.65
28.33,8.37,1.71,8.38,1.72,-1.72,-1.72,-1.73,6.65,6.66,6.66
28.62,8.34,1.68,8.35,1.69,-1.69,-1.74,-1.76,6.65,6.66,6.66
28.90,8.30,1.63,8.33,1.67,-1.67,-1.76,-1.79,6.63,6.66,6.67
29.19,8.28,1.61,8.30,1.64,-1.64,-1.78,-1.82,6.64,6.66,6.67
29.48,8.26,1.60,8.28,1.62,-1.62,-1.80,-1.84,6.64,6.66,6.66
29.78,8.24,1.58,8.26,1.60,-1.60,-1.82,-1.87,6.64,6.66,6.66
30.08,8.23,1.57,8.25,1.59,-1.59,-1.84,-1.89,6.64,6.65,6.66
30.38,8.23,1.59,8.23,1.58,-1.58,-1.86,-1.91,6.65,6.65,6.64
30.68,8.23,1.59,8.22,1.58,-1.58,-1.88,-1.94,6.65,6.65,6.64
30.99,8.24,1.60,8.22,1.58,-1.58,-1.90,-1.96,6.66,6.64,6.64
31.30,8.24,1.60,8.22,1.58,-1.58,-1.92,-1.97,6.66,6.64,6.64
31.61,8.24,1.61,8.22,1.59,-1.59,-1.95,-1.99,6.65,6.63,6.63
31.93,8.23,1.62,8.23,1.61,-1.61,-1.97,-2.01,6.62,6.62,6.61
32.24,8.23,1.61,8.24,1.62,-1.62,-1.99,-2.02,6.61,6.61,6.62
32.57,8.24,1.64,8.25,1.64,-1.64,-2.01,-2.04,6.60,6.61,6.60
32.89,8.25,1.65,8.27,1.66,-1.66,-2.04,-2.05,6.59,6.60,6.60
33.22,8.27,1.68,8.28,1.69,-1.69,-2.06,-2.06,6.58,6.59,6.59
33.55,8.29,1.70,8.30,1.72,-1.72,-2.08,-2.07,6.57,6.59,6.59
33.89,8.32,1.74,8.33,1.75,-1.75,-2.10,-2.08,6.57,6.58,6.58
34.23,8.34,1.78,8.35,1.78,-1.78,-2.13,-2.09,6.56,6.57,6.56
34.57,8.37,1.81,8.38,1.81,-1.81,-2.15,-2.10,6.56,6.56,6.56
34.92,8.41,1.87,8.40,1.85,-1.85,-2.17,-2.11,6.56,6.55,6.54
35.27,8.44,1.88,8.43,1.89,-1.89,-2.20,-2.11,6.55,6.54,6.56
35.62,8.47,1.94,8.46,1.92,-1.92,-2.22,-2.12,6.55,6.53,6.53
35.97,8.50,1.97,8.48,1.96,-1.96,-2.24,-2.13,6.54,6.52,6.53
36.33,8.52,2.01,8.50,2.00,-2.00,-2.27,-2.14,6.52,6.51,6.51
36.70,8.54,2.05,8.52,2.03,-2.03,-2.29,-2.15,6.51,6.49,6.49
37.06,8.55,2.08,8.54,2.07,-2.07,-2.32,-2.16,6.48,6.47,6.47
37.43,8.56,2.11,8.55,2.10,-2.10,-2.34,-2.17,6.46,6.45,6.45
37.81,8.57,2.13,8.57,2.13,-2.13,-2.37,-2.18,6.43,6.44,6.44
38.19,8.59,2.18,8.59,2.17,-2.17,-2.39,-2.19,6.42,6.42,6.41
38.57,8.60,2.21,8.61,2.21,-2.21,-2.42,-2.20,6.39,6.39,6.39
38.95,8.61,2.23,8.62,2.25,-2.25,-2.44,-2.22,6.36,6.37,6.38
39.34,8.62,2.27,8.65,2.30,-2.30,-2.47,-2.23,6.32,6.35,6.35
39.74,8.64,2.32,8.67,2.34,-2.34,-2.49,-2.25,6.30,6.33,6.32
40.14,8.67,2.37,8.70,2.39,-2.39,-2.52,-2.27,6.28,6.31,6.30
40.54,8.70,2.42,8.73,2.44,-2.44,-2.55,-2.29,6.26,6.28,6.28
40.94,8.74,2.49,8.75,2.49,-2.49,-2.57,-2.31,6.25,6.26,6.25
41.35,8.78,2.54,8.78,2.54,-2.54,-2.60,-2.33,6.24,6.24,6.24
41.76,8.82,2.61,8.81,2.59,-2.59,-2.63,-2.36,6.23,6.22,6.21
42.18,8.85,2.65,8.83,2.64,-2.64,-2.65,-2.38,6.21,6.19,6.20
42.60,8.87,2.70,8.84,2.67,-2.67,-2.68,-2.41,6.20,6.17,6.17
43.03,8.89,2.74,8.85,2.71,-2.71,-2.71,-2.44,6.18,6.14,6.15
43.46,8.89,2.78,8.86,2.74,-2.74,-2.74,-2.47,6.15,6.12,6.11
43.90,8.88,2.79,8.85,2.76,-2.76,-2.76,-2.51,6.12,6.09,6.09
44.33,8.87,2.81,8.84,2.78,-2.78,-2.79,-2.54,6.09,6.07,6.06
44.78,8.85,2.81,8.83,2.79,-2.79,-2.82,-2.58,6.06,6.04,6.04
45.23,8.81,2.79,8.80,2.80,-2.80,-2.85,-2.62,6.01,6.01,6.02
45.68,8.77,2.80,8.77,2.80,-2.80,-2.88,-2.66,5.97,5.97,5.97
46.13,8.73,2.79,8.74,2.81,-2.81,-2.91,-2.70,5.92,5.94,5.94
46.60,8.70,2.80,8.71,2.81,-2.81,-2.94,-2.75,5.89,5.90,5.90
47.06,8.67,2.80,8.68,2.82,-2.82,-2.97,-2.79,5.85,5.86,5.87
47.53,8.64,2.81,8.65,2.83,-2.83,-3.00,-2.84,5.81,5.82,5.83
48.01,8.61,2.83,8.63,2.85,-2.85,-3.03,-2.89,5.76,5.78,5.78
48.49,8.59,2.85,8.61,2.87,-2.87,-3.06,-2.94,5.72,5.74,5.74
48.97,8.57,2.88,8.60,2.89,-2.89,-3.09,-2.99,5.67,5.70,5.69
49.46,8.56,2.90,8.59,2.93,-2.93,-3.12,-3.05,5.63,5.66,5.66
49.96,8.55,2.95,8.58,2.96,-2.96,-3.15,-3.10,5.59,5.62,5.60
50.46,8.55,2.98,8.58,3.00,-3.00,-3.18,-3.16,5.55,5.57,5.57
50.96,8.57,3.04,8.58,3.04,-3.04,-3.21,-3.22,5.53,5.53,5.53
51.47,8.59,3.10,8.57,3.08,-3.08,-3.24,-3.28,5.51,5.49,5.49
51.99,8.60,3.16,8.57,3.12,-3.12,-3.27,-3.34,5.48,5.45,5.44
52.51,8.60,3.19,8.56,3.16,-3.16,-3.31,-3.40,5.44,5.41,5.41
53.03,8.59,3.21,8.55,3.19,-3.19,-3.34,-3.46,5.40,5.37,5.38
53.56,8.58,3.25,8.54,3.22,-3.22,-3.37,-3.52,5.36,5.33,5.33
54.10,8.56,3.28,8.53,3.25,-3.25,-3.40,-3.58,5.31,5.29,5.28
54.64,8.53,3.29,8.52,3.27,-3.27,-3.44,-3.64,5.26,5.25,5.24
55.18,8.50,3.30,8.50,3.29,-3.29,-3.47,-3.70,5.21,5.21,5.20
55.74,8.47,3.32,8.48,3.31,-3.31,-3.50,-3.75,5.16,5.17,5.15
56.29,8.44,3.31,8.46,3.32,-3.32,-3.54,-3.81,5.11,5.13,5.13
56.86,8.42,3.33,8.44,3.34,-3.34,-3.57,-3.87,5.08,5.09,5.09
57.42,8.40,3.36,8.42,3.37,-3.37,-3.60,-3.92,5.03,5.05,5.04
58.00,8.39,3.39,8.40,3.40,-3.40,-3.64,-3.97,4.99,5.01,5.00
58.58,8.39,3.42,8.40,3.44,-3.44,-3.67,-4.02,4.95,4.96,4.97
59.16,8.38,3.44,8.40,3.48,-3.48,-3.71,-4.07,4.90,4.92,4.94
59.76,8.39,3.50,8.40,3.53,-3.53,-3.74,-4.11,4.86,4.87,4.89
60.35,8.40,3.56,8.41,3.59,-3.59,-3.78,-4.15,4.81,4.82,4.84
60.96,8.41,3.63,8.43,3.66,-3.66,-3.82,-4.19,4.75,4.77,4.78
61.57,8.43,3.71,8.45,3.73,-3.73,-3.85,-4.22,4.70,4.72,4.72
62.18,8.46,3.80,8.47,3.80,-3.80,-3.89,-4.25,4.66,4.67,4.66
62.80,8.49,3.89,8.49,3.87,-3.87,-3.92,-4.28,4.62,4.62,4.60
63.43,8.52,3.97,8.51,3.95,-3.95,-3.96,-4.31,4.57,4.56,4.55
64.07,8.55,4.05,8.53,4.02,-4.02,-4.00,-4.33,4.53,4.51,4.50
64.71,8.58,4.13,8.55,4.09,-4.09,-4.03,-4.35,4.49,4.45,4.45
65.35,8.59,4.20,8.56,4.16,-4.16,-4.07,-4.37,4.43,4.40,4.39
66.01,8.60,4.26,8.57,4.23,-4.23,-4.11,-4.38,4.37,4.34,4.34
66.67,8.60,4.30,8.58,4.29,-4.29,-4.15,-4.39,4.31,4.29,4.30
67.33,8.59,4.36,8.59,4.36,-4.36,-4.19,-4.40,4.23,4.23,4.23
68.01,8.59,4.41,8.59,4.41,-4.41,-4.22,-4.41,4.18,4.18,4.18
68.69,8.58,4.45,8.59,4.47,-4.47,-4.26,-4.42,4.11,4.12,4.13
69.37,8.58,4.50,8.59,4.52,-4.52,-4.30,-4.42,4.06,4.07,4.08
70.07,8.58,4.56,8.59,4.58,-4.58,-4.34,-4.43,4.00,4.01,4.02
70.77,8.58,4.63,8.59,4.63,-4.63,-4.38,-4.43,3.95,3.95,3.95
71.48,8.58,4.68,8.59,4.69,-4.69,-4.42,-4.43,3.89,3.90,3.90
72.19,8.58,4.74,8.59,4.75,-4.75,-4.46,-4.43,3.83,3.84,3.84
72.91,8.58,4.81,8.59,4.80,-4.80,-4.50,-4.44,3.78,3.78,3.77
73.64,8.58,4.86,8.59,4.86,-4.86,-4.54,-4.44,3.72,3.73,3.72
74.38,8.58,4.92,8.59,4.92,-4.92,-4.58,-4.45,3.66,3.67,3.66
75.12,8.58,4.97,8.59,4.98,-4.98,-4.62,-4.45,3.60,3.62,3.61
75.87,8.59,5.03,8.59,5.03,-5.03,-4.66,-4.46,3.56,3.56,3.56
76.63,8.60,5.10,8.59,5.08,-5.08,-4.71,-4.47,3.52,3.51,3.50
77.40,8.60,5.14,8.58,5.13,-5.13,-4.75,-4.48,3.47,3.46,3.46
78.17,8.59,5.19,8.57,5.17,-5.17,-4.79,-4.49,3.42,3.41,3.40
78.95,8.58,5.22,8.56,5.20,-5.20,-4.83,-4.51,3.37,3.36,3.36
79.74,8.56,5.25,8.55,5.24,-5.24,-4.87,-4.53,3.32,3.31,3.31
80.54,8.54,5.28,8.53,5.27,-5.27,-4.91,-4.55,3.27,3.26,3.26
81.35,8.52,5.32,8.51,5.30,-5.30,-4.96,-4.57,3.22,3.21,3.20
82.16,8.49,5.32,8.48,5.32,-5.32,-5.00,-4.60,3.17,3.16,3.17
82.98,8.46,5.35,8.46,5.35,-5.35,-5.04,-4.63,3.11,3.11,3.11
83.81,8.43,5.37,8.43,5.38,-5.38,-5.09,-4.66,3.05,3.05,3.06
84.65,8.39,5.39,8.40,5.40,-5.40,-5.13,-4.70,2.99,3.00,3.00
85.50,8.36,5.42,8.38,5.43,-5.43,-5.17,-4.74,2.93,2.95,2.94
86.35,8.33,5.44,8.35,5.46,-5.46,-5.22,-4.78,2.87,2.89,2.89
87.22,8.31,5.47,8.33,5.49,-5.49,-5.26,-4.83,2.82,2.84,2.84
88.09,8.29,5.51,8.31,5.53,-5.53,-5.30,-4.88,2.76,2.78,2.78
88.97,8.28,5.56,8.29,5.56,-5.56,-5.35,-4.94,2.72,2.73,2.72
89.86,8.27,5.60,8.27,5.60,-5.60,-5.39,-5.00,2.67,2.67,2.67
90.76,8.26,5.65,8.26,5.65,-5.65,-5.44,-5.06,2.61,2.61,2.61
91.66,8.24,5.70,8.24,5.69,-5.69,-5.48,-5.12,2.55,2.55,2.54
92.58,8.23,5.74,8.22,5.74,-5.74,-5.53,-5.19,2.49,2.49,2.49
93.51,8.22,5.78,8.21,5.78,-5.78,-5.57,-5.26,2.44,2.43,2.44
94.44,8.21,5.83,8.19,5.82,-5.82,-5.61,-5.34,2.39,2.37,2.38
95.39,8.19,5.88,8.17,5.86,-5.86,-5.66,-5.42,2.33,2.31,2.31
96.34,8.16,5.92,8.14,5.90,-5.90,-5.70,-5.50,2.26,2.24,2.24
97.30,8.13,5.95,8.12,5.94,-5.94,-5.75,-5.59,2.19,2.18,2.18
98.28,8.10,5.99,8.09,5.97,-5.97,-5.79,-5.68,2.13,2.12,2.11
99.26,8.07,6.02,8.07,6.00,-6.00,-5.84,-5.77,2.06,2.06,2.05
100.25,8.04,6.05,8.04,6.04,-6.04,-5.88,-5.86,2.00,2.00,1.99
101.25,8.01,6.07,8.02,6.08,-6.08,-5.93,-5.96,1.93,1.94,1.94
102.27,7.98,6.10,8.00,6.12,-6.12,-5.98,-6.06,1.86,1.88,1.88
103.29,7.95,6.13,7.98,6.16,-6.16,-6.02,-6.16,1.79,1.83,1.82
104.32,7.94,6.17,7.97,6.20,-6.20,-6.07,-6.26,1.74,1.77,1.77
105.37,7.93,6.22,7.95,6.24,-6.24,-6.11,-6.36,1.69,1.71,1.71
106.42,7.92,6.26,7.94,6.28,-6.28,-6.16,-6.46,1.64,1.66,1.66
107.48,7.93,6.33,7.93,6.33,-6.33,-6.20,-6.56,1.60,1.60,1.60
108.56,7.93,6.38,7.92,6.38,-6.38,-6.25,-6.66,1.55,1.54,1.55
109.64,7.93,6.44,7.91,6.42,-6.42,-6.29,-6.76,1.50,1.48,1.49
110.74,7.93,6.50,7.90,6.47,-6.47,-6.34,-6.86,1.46,1.43,1.43
111.85,7.91,6.54,7.88,6.52,-6.52,-6.38,-6.96,1.39,1.37,1.37
112.97,7.89,6.57,7.87,6.56,-6.56,-6.43,-7.05,1.33,1.31,1.32
114.10,7.86,6.60,7.85,6.60,-6.60,-6.47,-7.14,1.26,1.25,1.26
115.24,7.84,6.66,7.83,6.63,-6.63,-6.52,-7.22,1.21,1.19,1.18
116.39,7.81,6.69,7.80,6.67,-6.67,-6.56,-7.30,1.14,1.13,1.12
117.55,7.78,6.72,7.78,6.70,-6.70,-6.61,-7.37,1.08,1.08,1.06
118.73,7.74,6.74,7.75,6.73,-6.73,-6.65,-7.44,1.01,1.02,1.00
119.92,7.71,6.75,7.73,6.76,-6.76,-6.70,-7.50,0.95,0.96,0.96
121.12,7.68,6.77,7.70,6.80,-6.80,-6.74,-7.56,0.88,0.91,0.91
122.33,7.66,6.81,7.68,6.83,-6.83,-6.79,-7.60,0.83,0.85,0.85
123.55,7.64,6.84,7.66,6.87,-6.87,-6.83,-7.64,0.77,0.79,0.80
124.79,7.62,6.87,7.64,6.90,-6.90,-6.87,-7.67,0.72,0.74,0.75
126.03,7.62,6.93,7.63,6.94,-6.94,-6.92,-7.69,0.68,0.68,0.69
127.29,7.61,6.97,7.61,6.98,-6.98,-6.96,-7.71,0.63,0.63,0.64
128.57,7.60,7.03,7.60,7.02,-7.02,-7.00,-7.72,0.58,0.58,0.57
129.85,7.60,7.08,7.58,7.06,-7.06,-7.04,-7.72,0.54,0.52,0.52
131.15,7.59,7.13,7.57,7.10,-7.10,-7.09,-7.71,0.49,0.47,0.46
132.46,7.57,7.16,7.55,7.14,-7.14,-7.13,-7.69,0.43,0.41,0.41
133.79,7.55,7.20,7.54,7.18,-7.18,-7.17,-7.67,0.37,0.36,0.35
135.12,7.53,7.23,7.52,7.22,-7.22,-7.21,-7.65,0.31,0.30,0.30
136.48,7.50,7.25,7.50,7.25,-7.25,-7.25,-7.62,0.25,0.25,0.25
137.84,7.47,7.27,7.48,7.28,-7.28,-7.29,-7.58,0.19,0.20,0.20
139.22,7.44,7.30,7.45,7.30,-7.30,-7.33,-7.55,0.14,0.15,0.14
140.61,7.42,7.32,7.42,7.32,-7.32,-7.37,-7.51,0.10,0.10,0.10
142.02,7.40,7.36,7.39,7.34,-7.34,-7.41,-7.46,0.06,0.05,0.04
143.44,7.37,7.37,7.36,7.36,-7.36,-7.45,-7.42,0.01,0.00,0.00
144.87,7.34,7.38,7.33,7.37,-7.37,-7.49,-7.37,-0.03,-0.04,-0.04
146.32,7.30,7.39,7.30,7.38,-7.38,-7.53,-7.33,-0.08,-0.09,-0.09
147.78,7.27,7.40,7.27,7.40,-7.40,-7.56,-7.28,-0.13,-0.13,-0.13
149.26,7.23,7.41,7.24,7.41,-7.41,-7.60,-7.24,-0.18,-0.17,-0.18
150.75,7.20,7.42,7.21,7.43,-7.43,-7.64,-7.19,-0.23,-0.22,-0.22
152.26,7.17,7.43,7.18,7.44,-7.44,-7.67,-7.15,-0.27,-0.26,-0.26
153.78,7.14,7.44,7.15,7.46,-7.46,-7.71,-7.11,-0.32,-0.30,-0.30
155.32,7.12,7.46,7.12,7.47,-7.47,-7.74,-7.08,-0.35,-0.35,-0.34
156.88,7.10,7.49,7.10,7.49,-7.49,-7.78,-7.04,-0.39,-0.39,-0.39
158.44,7.07,7.51,7.07,7.51,-7.51,-7.81,-7.01,-0.44,-0.43,-0.44
160.03,7.05,7.53,7.05,7.53,-7.53,-7.84,-6.99,-0.48,-0.48,-0.48
161.63,7.03,7.55,7.02,7.55,-7.55,-7.87,-6.97,-0.52,-0.52,-0.52
163.24,7.01,7.58,7.00,7.57,-7.57,-7.90,-6.95,-0.56,-0.57,-0.57
164.88,6.98,7.60,6.98,7.60,-7.60,-7.93,-6.94,-0.62,-0.62,-0.62
166.53,6.96,7.63,6.96,7.62,-7.62,-7.96,-6.93,-0.66,-0.66,-0.67
168.19,6.94,7.64,6.94,7.65,-7.65,-7.99,-6.92,-0.71,-0.71,-0.70
169.87,6.91,7.67,6.91,7.67,-7.67,-8.02,-6.93,-0.76,-0.76,-0.76
171.57,6.89,7.70,6.89,7.70,-7.70,-8.04,-6.93,-0.81,-0.81,-0.81
173.29,6.87,7.72,6.87,7.72,-7.72,-8.07,-6.94,-0.85,-0.85,-0.85
175.02,6.85,7.75,6.84,7.74,-7.74,-8.09,-6.96,-0.89,-0.90,-0.90
176.77,6.83,7.78,6.81,7.76,-7.76,-8.12,-6.98,-0.93,-0.95,-0.95
178.54,6.80,7.79,6.79,7.78,-7.78,-8.14,-7.01,-0.98,-0.99,-0.99
180.32,6.77,7.82,6.76,7.80,-7.80,-8.16,-7.04,-1.03,-1.04,-1.05
182.13,6.74,7.82,6.73,7.82,-7.82,-8.18,-7.08,-1.08,-1.08,-1.08
183.95,6.71,7.84,6.71,7.84,-7.84,-8.20,-7.12,-1.13,-1.13,-1.13
185.79,6.68,7.86,6.69,7.87,-7.87,-8.22,-7.17,-1.19,-1.18,-1.18
187.65,6.66,7.88,6.67,7.89,-7.89,-8.24,-7.22,-1.23,-1.22,-1.22
189.52,6.64,7.90,6.65,7.92,-7.92,-8.25,-7.28,-1.28,-1.26,-1.26
191.42,6.62,7.92,6.64,7.95,-7.95,-8.27,-7.34,-1.33,-1.31,-1.30
193.33,6.61,7.95,6.63,7.98,-7.98,-8.28,-7.41,-1.37,-1.35,-1.34
195.27,6.61,8.00,6.62,8.01,-8.01,-8.30,-7.48,-1.40,-1.39,-1.39
197.22,6.61,8.05,6.62,8.04,-8.04,-8.31,-7.55,-1.43,-1.42,-1.44
199.19,6.62,8.09,6.61,8.07,-8.07,-8.32,-7.63,-1.45,-1.46,-1.47
201.18,6.63,8.14,6.61,8.11,-8.11,-8.33,-7.72,-1.48,-1.50,-1.51
203.19,6.63,8.17,6.62,8.15,-8.15,-8.34,-7.80,-1.52,-1.53,-1.54
205.23,6.63,8.19,6.62,8.19,-8.19,-8.34,-7.89,-1.56,-1.57,-1.56
207.28,6.63,8.22,6.63,8.22,-8.22,-8.35,-7.98,-1.60,-1.60,-1.59
209.35,6.63,8.26,6.63,8.26,-8.26,-8.35,-8.07,-1.63,-1.63,-1.63
211.44,6.63,8.29,6.64,8.30,-8.30,-8.36,-8.17,-1.67,-1.66,-1.66
213.56,6.63,8.31,6.64,8.33,-8.33,-8.36,-8.26,-1.70,-1.69,-1.68
215.69,6.63,8.34,6.65,8.36,-8.36,-8.36,-8.36,-1.73,-1.71,-1.71
217.85,6.64,8.38,6.65,8.39,-8.39,-8.36,-8.45,-1.75,-1.74,-1.74
220.03,6.65,8.42,6.65,8.41,-8.41,-8.36,-8.55,-1.76,-1.76,-1.77
222.23,6.66,8.46,6.64,8.43,-8.43,-8.36,-8.64,-1.77,-1.79,-1.80
224.45,6.65,8.46,6.63,8.45,-8.45,-8.35,-8.72,-1.80,-1.81,-1.81
226.70,6.65,8.49,6.63,8.46,-8.46,-8.35,-8.80,-1.81,-1.83,-1.84
228.96,6.63,8.48,6.62,8.47,-8.47,-8.34,-8.88,-1.84,-1.85,-1.85
231.25,6.61,8.48,6.60,8.47,-8.47,-8.33,-8.95,-1.86,-1.87,-1.87
233.57,6.59,8.48,6.59,8.47,-8.47,-8.32,-9.02,-1.88,-1.89,-1.89
235.90,6.56,8.46,6.56,8.47,-8.47,-8.31,-9.07,-1.91,-1.90,-1.90
238.26,6.54,8.47,6.54,8.46,-8.46,-8.30,-9.12,-1.92,-1.92,-1.93
240.64,6.51,8.43,6.52,8.44,-8.44,-8.29,-9.16,-1.93,-1.93,-1.92
243.05,6.48,8.42,6.49,8.43,-8.43,-8.27,-9.18,-1.95,-1.94,-1.94
245.48,6.46,8.41,6.46,8.41,-8.41,-8.25,-9.20,-1.95,-1.94,-1.95
247.93,6.43,8.39,6.43,8.38,-8.38,-8.24,-9.20,-1.96,-1.95,-1.96
250.41,6.41,8.36,6.41,8.36,-8.36,-8.22,-9.20,-1.95,-1.96,-1.95
252.92,6.37,8.33,6.38,8.34,-8.34,-8.20,-9.18,-1.97,-1.96,-1.96
255.45,6.34,8.31,6.35,8.32,-8.32,-8.18,-9.15,-1.98,-1.97,-1.97
258.00,6.31,8.28,6.32,8.29,-8.29,-8.16,-9.11,-1.98,-1.97,-1.97
260.58,6.28,8.25,6.29,8.26,-8.26,-8.13,-9.06,-1.98,-1.97,-1.97
263.19,6.26,8.23,6.26,8.23,-8.23,-8.11,-9.00,-1.97,-1.98,-1.97
265.82,6.23,8.21,6.22,8.20,-8.20,-8.08,-8.93,-1.97,-1.98,-1.98
268.48,6.20,8.18,6.18,8.17,-8.17,-8.06,-8.85,-1.97,-1.98,-1.98
271.16,6.16,8.14,6.15,8.13,-8.13,-8.03,-8.76,-1.97,-1.98,-1.98
273.87,6.12,8.10,6.10,8.09,-8.09,-8.00,-8.67,-1.97,-1.98,-1.98
276.61,6.07,8.05,6.06,8.05,-8.05,-7.97,-8.57,-1.98,-1.99,-1.98
279.38,6.02,8.02,6.01,8.00,-8.00,-7.94,-8.46,-1.98,-1.99,-2.00
282.17,5.97,7.97,5.97,7.95,-7.95,-7.90,-8.35,-1.98,-1.99,-2.00
284.99,5.92,7.91,5.92,7.90,-7.90,-7.87,-8.24,-1.98,-1.98,-1.99
287.84,5.87,7.85,5.87,7.85,-7.85,-7.83,-8.12,-1.98,-1.98,-1.98
290.72,5.82,7.81,5.82,7.80,-7.80,-7.80,-8.01,-1.98,-1.98,-1.99
293.63,5.77,7.75,5.77,7.75,-7.75,-7.76,-7.89,-1.98,-1.98,-1.98
296.57,5.72,7.69,5.73,7.70,-7.70,-7.72,-7.77,-1.98,-1.97,-1.97
299.53,5.67,7.64,5.69,7.65,-7.65,-7.69,-7.66,-1.99,-1.97,-1.97
302.53,5.63,7.58,5.65,7.61,-7.61,-7.65,-7.54,-1.98,-1.96,-1.95
305.55,5.59,7.55,5.61,7.56,-7.56,-7.61,-7.43,-1.97,-1.96,-1.96
308.61,5.56,7.51,5.57,7.52,-7.52,-7.56,-7.31,-1.96,-1.95,-1.95
311.69,5.53,7.47,5.53,7.47,-7.47,-7.52,-7.20,-1.94,-1.94,-1.94
314.81,5.50,7.44,5.49,7.43,-7.43,-7.48,-7.10,-1.93,-1.93,-1.94
317.96,5.47,7.40,5.46,7.38,-7.38,-7.43,-6.99,-1.91,-1.93,-1.93
321.14,5.44,7.36,5.42,7.34,-7.34,-7.39,-6.89,-1.90,-1.92,-1.92
324.35,5.41,7.33,5.39,7.30,-7.30,-7.34,-6.80,-1.89,-1.91,-1.92
327.59,5.37,7.26,5.35,7.26,-7.26,-7.30,-6.71,-1.89,-1.90,-1.89
330.87,5.33,7.23,5.32,7.22,-7.22,-7.25,-6.62,-1.89,-1.90,-1.90
334.18,5.28,7.17,5.29,7.18,-7.18,-7.20,-6.54,-1.90,-1.89,-1.89
337.52,5.24,7.13,5.26,7.14,-7.14,-7.16,-6.46,-1.90,-1.88,-1.89
340.90,5.20,7.07,5.22,7.10,-7.10,-7.11,-6.38,-1.90,-1.87,-1.87
344.30,5.17,7.03,5.19,7.06,-7.06,-7.06,-6.31,-1.89,-1.87,-1.86
347.75,5.15,7.01,5.16,7.01,-7.01,-7.01,-6.25,-1.87,-1.86,-1.86
351.23,5.14,7.00,5.13,6.97,-6.97,-6.96,-6.19,-1.84,-1.85,-1.86
354.74,5.11,6.94,5.10,6.94,-6.94,-6.90,-6.13,-1.83,-1.84,-1.83
358.28,5.08,6.92,5.07,6.90,-6.90,-6.85,-6.08,-1.82,-1.83,-1.84
361.87,5.04,6.87,5.04,6.86,-6.86,-6.80,-6.03,-1.83,-1.83,-1.83
365.49,5.01,6.83,5.01,6.83,-6.83,-6.75,-5.99,-1.82,-1.82,-1.82
369.14,4.97,6.77,4.98,6.79,-6.79,-6.69,-5.95,-1.82,-1.81,-1.80
372.83,4.94,6.74,4.95,6.75,-6.75,-6.64,-5.92,-1.81,-1.80,-1.80
376.56,4.92,6.72,4.92,6.71,-6.71,-6.59,-5.89,-1.79,-1.79,-1.80
380.33,4.89,6.68,4.89,6.67,-6.67,-6.53,-5.86,-1.78,-1.78,-1.79
384.13,4.86,6.63,4.85,6.62,-6.62,-6.48,-5.84,-1.77,-1.77,-1.77
387.97,4.83,6.60,4.81,6.58,-6.58,-6.42,-5.82,-1.75,-1.76,-1.77
391.85,4.79,6.55,4.77,6.52,-6.52,-6.37,-5.81,-1.74,-1.75,-1.76
395.77,4.74,6.49,4.73,6.48,-6.48,-6.31,-5.80,-1.74,-1.74,-1.75
399.73,4.69,6.43,4.69,6.42,-6.42,-6.25,-5.79,-1.73,-1.73,-1.74
403.72,4.65,6.36,4.65,6.37,-6.37,-6.20,-5.79,-1.72,-1.72,-1.71
407.76,4.60,6.32,4.61,6.32,-6.32,-6.14,-5.79,-1.72,-1.72,-1.72
411.84,4.55,6.26,4.56,6.27,-6.27,-6.08,-5.79,-1.72,-1.71,-1.71
415.96,4.50,6.19,4.51,6.21,-6.21,-6.03,-5.79,-1.71,-1.70,-1.69
420.12,4.45,6.14,4.46,6.15,-6.15,-5.97,-5.79,-1.70,-1.69,-1.69
424.32,4.40,6.08,4.42,6.09,-6.09,-5.91,-5.80,-1.69,-1.68,-1.68
428.56,4.38,6.04,4.37,6.04,-6.04,-5.86,-5.80,-1.66,-1.67,-1.66
432.85,4.34,5.99,4.32,5.98,-5.98,-5.80,-5.81,-1.64,-1.66,-1.65
437.18,4.29,5.95,4.27,5.93,-5.93,-5.74,-5.82,-1.64,-1.65,-1.66
441.55,4.23,5.88,4.23,5.87,-5.87,-5.68,-5.82,-1.64,-1.64,-1.65
445.96,4.18,5.82,4.18,5.81,-5.81,-5.62,-5.83,-1.63,-1.63,-1.64
450.42,4.12,5.75,4.13,5.76,-5.76,-5.57,-5.83,-1.64,-1.62,-1.63
454.93,4.07,5.69,4.09,5.70,-5.70,-5.51,-5.83,-1.63,-1.62,-1.62
459.48,4.04,5.65,4.04,5.65,-5.65,-5.45,-5.83,-1.61,-1.61,-1.61
464.07,4.00,5.59,3.99,5.59,-5.59,-5.39,-5.83,-1.59,-1.60,-1.59
468.71,3.95,5.53,3.94,5.53,-5.53,-5.33,-5.82,-1.58,-1.59,-1.58
473.40,3.90,5.48,3.89,5.47,-5.47,-5.27,-5.81,-1.57,-1.58,-1.58
478.13,3.84,5.41,3.84,5.41,-5.41,-5.22,-5.79,-1.57,-1.57,-1.57
482.91,3.79,5.35,3.80,5.35,-5.35,-5.16,-5.77,-1.57,-1.56,-1.56
487.74,3.74,5.29,3.75,5.30,-5.30,-5.10,-5.75,-1.56,-1.55,-1.55
492.62,3.71,5.25,3.71,5.24,-5.24,-5.04,-5.72,-1.53,-1.53,-1.54
497.55,3.67,5.20,3.66,5.18,-5.18,-4.98,-5.68,-1.51,-1.52,-1.53
502.52,3.62,5.14,3.61,5.13,-5.13,-4.93,-5.64,-1.51,-1.51,-1.52
507.55,3.56,5.06,3.56,5.06,-5.06,-4.87,-5.60,-1.51,-1.50,-1.50
512.62,3.51,5.00,3.51,5.00,-5.00,-4.81,-5.55,-1.49,-1.49,-1.49
