frequency,raw,error,smoothed,error_smoothed,equalization,parametric_eq,fixed_band_eq,equalized_raw,equalized_smoothed,target
20.00,-18.65,-20.74,-18.65,-20.77,20.77,19.05,8.70,2.11,2.12,2.09
20.20,-18.51,-20.65,-18.51,-20.66,20.66,19.18,8.87,2.15,2.16,2.14
20.40,-18.37,-20.56,-18.37,-20.56,20.56,19.30,9.04,2.19,2.19,2.19
20.61,-18.24,-20.46,-18.23,-20.45,20.45,19.41,9.22,2.22,2.23,2.22
20.81,-18.09,-20.36,-18.09,-20.35,20.35,19.51,9.40,2.25,2.26,2.27
21.02,-17.95,-20.26,-17.95,-20.23,20.23,19.59,9.59,2.28,2.29,2.31
21.23,-17.80,-20.13,-17.81,-20.12,20.12,19.67,9.78,2.32,2.31,2.33
21.44,-17.65,-20.00,-17.67,-20.00,20.00,19.73,9.97,2.35,2.33,2.35
21.66,-17.51,-19.88,-17.53,-19.88,19.88,19.78,10.17,2.38,2.35,2.37
21.87,-17.36,-19.74,-17.39,-19.76,19.76,19.81,10.38,2.40,2.37,2.38
22.09,-17.22,-19.62,-17.24,-19.63,19.63,19.82,10.59,2.41,2.39,2.40
22.31,-17.09,-19.50,-17.10,-19.51,19.51,19.82,10.81,2.41,2.40,2.41
22.54,-16.97,-19.38,-16.96,-19.37,19.37,19.80,11.03,2.41,2.41,2.41
22.76,-16.83,-19.24,-16.82,-19.23,19.23,19.77,11.26,2.40,2.41,2.41
22.99,-16.70,-19.10,-16.68,-19.09,19.09,19.71,11.49,2.39,2.41,2.40
23.22,-16.55,-18.95,-16.54,-18.95,18.95,19.65,11.74,2.40,2.41,2.40
23.45,-16.41,-18.81,-16.40,-18.81,18.81,19.56,11.99,2.40,2.41,2.40
23.69,-16.27,-18.68,-16.25,-18.67,18.67,19.47,12.24,2.40,2.41,2.41
23.92,-16.12,-18.53,-16.11,-18.53,18.53,19.35,12.51,2.41,2.41,2.41
24.16,-15.97,-18.38,-15.97,-18.38,18.38,19.23,12.78,2.41,2.41,2.41
24.40,-15.82,-18.24,-15.82,-18.24,18.24,19.09,13.06,2.42,2.41,2.42
24.65,-15.67,-18.09,-15.68,-18.09,18.09,18.94,13.35,2.42,2.41,2.41
24.89,-15.51,-17.92,-15.53,-17.95,17.95,18.78,13.65,2.44,2.41,2.41
25.14,-15.37,-17.78,-15.39,-17.80,17.80,18.61,13.96,2.43,2.41,2.41
25.39,-15.23,-17.65,-15.25,-17.66,17.66,18.43,14.27,2.43,2.42,2.42
25.65,-15.10,-17.53,-15.11,-17.52,17.52,18.24,14.60,2.42,2.42,2.42
25.91,-14.97,-17.38,-14.97,-17.38,17.38,18.05,14.94,2.42,2.42,2.41
26.16,-14.82,-17.23,-14.83,-17.25,17.25,17.85,15.28,2.42,2.41,2.41
26.43,-14.70,-17.11,-14.69,-17.11,17.11,17.65,15.64,2.41,2.41,2.41
26.69,-14.55,-16.96,-14.56,-16.97,16.97,17.44,16.01,2.41,2.41,2.41
26.96,-14.41,-16.83,-14.42,-16.82,16.82,17.23,16.39,2.41,2.41,2.41
27.23,-14.28,-16.70,-14.27,-16.68,16.68,17.01,16.78,2.39,2.41,2.41
27.50,-14.14,-16.56,-14.13,-16.53,16.53,16.80,17.17,2.39,2.41,2.41
27.77,-14.00,-16.40,-13.98,-16.38,16.38,16.58,17.57,2.38,2.40,2.40
28.05,-13.86,-16.26,-13.83,-16.23,16.23,16.36,17.98,2.37,2.40,2.40
28.33,-13.70,-16.09,-13.68,-16.08,16.08,16.14,18.39,2.38,2.40,2.39
28.62,-13.54,-15.93,-13.54,-15.93,15.93,15.92,18.79,2.40,2.40,2.39
28.90,-13.37,-15.77,-13.38,-15.78,15.78,15.70,19.19,2.41,2.40,2.40
29.19,-13.20,-15.59,-13.23,-15.63,15.63,15.48,19.57,2.42,2.40,2.39
29.48,-13.04,-15.44,-13.07,-15.47,15.47,15.27,19.93,2.42,2.40,2.40
29.78,-12.88,-15.28,-12.91,-15.30,15.30,15.05,20.25,2.42,2.39,2.39
30.08,-12.74,-15.14,-12.75,-15.14,15.14,14.83,20.53,2.41,2.39,2.40
30.38,-12.60,-15.00,-12.59,-14.98,14.98,14.62,20.74,2.38,2.39,2.39
30.68,-12.47,-14.86,-12.43,-14.82,14.82,14.40,20.90,2.35,2.39,2.39
30.99,-12.34,-14.74,-12.28,-14.67,14.67,14.19,20.97,2.33,2.39,2.39
31.30,-12.16,-14.54,-12.14,-14.52,14.52,13.98,20.96,2.37,2.39,2.38
31.61,-11.96,-14.34,-11.99,-14.37,14.37,13.77,20.88,2.41,2.38,2.38
31.93,-11.77,-14.15,-11.84,-14.22,14.22,13.56,20.71,2.45,2.38,2.38
32.24,-11.62,-13.99,-11.69,-14.06,14.06,13.35,20.47,2.44,2.37,2.37
32.57,-11.50,-13.88,-11.54,-13.91,13.91,13.15,20.17,2.40,2.37,2.37
32.89,-11.37,-13.74,-11.38,-13.74,13.74,12.94,19.82,2.37,2.37,2.37
33.22,-11.25,-13.61,-11.22,-13.58,13.58,12.74,19.44,2.33,2.36,2.36
33.55,-11.12,-13.48,-11.06,-13.42,13.42,12.54,19.03,2.29,2.36,2.36
33.89,-11.00,-13.35,-10.90,-13.25,13.25,12.34,18.60,2.25,2.35,2.35
34.23,-10.81,-13.17,-10.74,-13.09,13.09,12.14,18.16,2.28,2.35,2.35
34.57,-10.60,-12.94,-10.59,-12.94,12.94,11.95,17.71,2.33,2.34,2.34
34.92,-10.39,-12.73,-10.45,-12.79,12.79,11.76,17.27,2.40,2.34,2.34
35.27,-10.23,-12.56,-10.30,-12.64,12.64,11.57,16.83,2.41,2.34,2.33
35.62,-10.08,-12.42,-10.15,-12.48,12.48,11.38,16.39,2.40,2.33,2.33
35.97,-9.93,-12.26,-9.99,-12.32,12.32,11.19,15.96,2.39,2.33,2.33
36.33,-9.81,-12.14,-9.84,-12.17,12.17,11.00,15.54,2.35,2.33,2.33
36.70,-9.68,-12.01,-9.68,-12.01,12.01,10.82,15.13,2.33,2.33,2.32
37.06,-9.56,-11.88,-9.53,-11.86,11.86,10.63,14.73,2.30,2.33,2.32
37.43,-9.43,-11.76,-9.39,-11.71,11.71,10.45,14.34,2.28,2.33,2.33
37.81,-9.30,-11.63,-9.24,-11.57,11.57,10.27,13.96,2.27,2.33,2.33
38.19,-9.14,-11.47,-9.10,-11.43,11.43,10.10,13.58,2.28,2.33,2.32
38.57,-8.94,-11.27,-8.95,-11.28,11.28,9.92,13.22,2.34,2.33,2.33
38.95,-8.74,-11.08,-8.80,-11.13,11.13,9.75,12.87,2.39,2.33,2.34
39.34,-8.61,-10.94,-8.65,-10.98,10.98,9.57,12.52,2.37,2.33,2.33
39.74,-8.48,-10.82,-8.49,-10.82,10.82,9.40,12.18,2.34,2.33,2.33
40.14,-8.34,-10.68,-8.33,-10.66,10.66,9.23,11.85,2.31,2.33,2.33
40.54,-8.18,-10.52,-8.16,-10.49,10.49,9.06,11.53,2.30,2.33,2.33
40.94,-8.03,-10.35,-7.99,-10.31,10.31,8.89,11.21,2.28,2.33,2.32
41.35,-7.83,-10.15,-7.81,-10.13,10.13,8.73,10.91,2.30,2.32,2.32
41.76,-7.61,-9.92,-7.63,-9.94,9.94,8.56,10.60,2.33,2.31,2.31
42.18,-7.43,-9.74,-7.45,-9.76,9.76,8.40,10.31,2.33,2.30,2.31
42.60,-7.28,-9.58,-7.28,-9.58,9.58,8.24,10.02,2.29,2.29,2.30
43.03,-7.13,-9.42,-7.11,-9.39,9.39,8.08,9.73,2.26,2.28,2.29
43.46,-6.94,-9.22,-6.93,-9.20,9.20,7.92,9.45,2.26,2.27,2.28
43.90,-6.76,-9.02,-6.75,-9.01,9.01,7.76,9.18,2.26,2.26,2.26
44.33,-6.55,-8.79,-6.58,-8.83,8.83,7.60,8.91,2.27,2.25,2.24
44.78,-6.36,-8.59,-6.41,-8.64,8.64,7.45,8.64,2.28,2.23,2.22
45.23,-6.19,-8.41,-6.24,-8.46,8.46,7.29,8.38,2.27,2.22,2.21
45.68,-6.04,-8.25,-6.07,-8.28,8.28,7.14,8.12,2.23,2.21,2.20
46.13,-5.90,-8.08,-5.90,-8.09,8.09,6.99,7.87,2.19,2.19,2.18
46.60,-5.75,-7.94,-5.73,-7.91,7.91,6.84,7.61,2.15,2.18,2.18
47.06,-5.60,-7.76,-5.56,-7.72,7.72,6.69,7.37,2.12,2.16,2.16
47.53,-5.41,-7.56,-5.39,-7.53,7.53,6.54,7.12,2.12,2.15,2.15
48.01,-5.22,-7.38,-5.22,-7.35,7.35,6.39,6.88,2.13,2.13,2.15
48.49,-5.08,-7.22,-5.05,-7.17,7.17,6.24,6.64,2.08,2.12,2.13
48.97,-4.94,-7.05,-4.88,-6.98,6.98,6.10,6.41,2.04,2.11,2.11
49.46,-4.70,-6.79,-4.70,-6.80,6.80,5.95,6.18,2.10,2.09,2.09
49.96,-4.46,-6.54,-4.53,-6.61,6.61,5.81,5.95,2.15,2.08,2.07
50.46,-4.31,-6.38,-4.36,-6.42,6.42,5.67,5.72,2.11,2.07,2.06
50.96,-4.16,-6.21,-4.18,-6.24,6.24,5.53,5.50,2.07,2.05,2.05
51.47,-4.01,-6.04,-4.01,-6.06,6.06,5.39,5.28,2.04,2.04,2.03
51.99,-3.86,-5.89,-3.85,-5.87,5.87,5.25,5.07,2.01,2.03,2.02
52.51,-3.69,-5.71,-3.69,-5.70,5.70,5.11,4.85,2.01,2.01,2.01
53.03,-3.51,-5.52,-3.53,-5.54,5.54,4.97,4.64,2.02,2.00,2.01
53.56,-3.35,-5.34,-3.38,-5.37,5.37,4.84,4.44,2.01,1.99,1.99
54.10,-3.19,-5.18,-3.22,-5.20,5.20,4.70,4.24,2.01,1.98,1.98
54.64,-3.05,-5.02,-3.07,-5.04,5.04,4.57,4.04,1.98,1.97,1.96
55.18,-2.92,-4.88,-2.92,-4.88,4.88,4.43,3.84,1.95,1.96,1.96
55.74,-2.80,-4.75,-2.76,-4.71,4.71,4.30,3.65,1.90,1.95,1.94
56.29,-2.65,-4.58,-2.60,-4.53,4.53,4.17,3.47,1.88,1.93,1.93
56.86,-2.47,-4.40,-2.44,-4.36,4.36,4.03,3.29,1.88,1.92,1.92
57.42,-2.32,-4.21,-2.28,-4.19,4.19,3.90,3.11,1.86,1.90,1.89
58.00,-2.19,-4.07,-2.13,-4.01,4.01,3.77,2.94,1.82,1.88,1.88
58.58,-1.97,-3.85,-1.98,-3.84,3.84,3.64,2.78,1.87,1.86,1.87
59.16,-1.77,-3.62,-1.84,-3.67,3.67,3.51,2.62,1.90,1.84,1.85
59.76,-1.64,-3.48,-1.70,-3.51,3.51,3.38,2.46,1.86,1.81,1.83
60.35,-1.51,-3.30,-1.56,-3.34,3.34,3.26,2.31,1.82,1.78,1.79
60.96,-1.38,-3.14,-1.42,-3.17,3.17,3.13,2.17,1.79,1.75,1.75
61.57,-1.24,-2.96,-1.30,-3.01,3.01,3.00,2.04,1.76,1.71,1.71
62.18,-1.14,-2.81,-1.18,-2.85,2.85,2.87,1.90,1.71,1.67,1.67
62.80,-1.09,-2.71,-1.07,-2.70,2.70,2.75,1.78,1.60,1.63,1.62
63.43,-0.99,-2.57,-0.96,-2.54,2.54,2.62,1.66,1.55,1.59,1.58
64.07,-0.88,-2.42,-0.85,-2.39,2.39,2.49,1.55,1.51,1.54,1.53
64.71,-0.76,-2.26,-0.75,-2.24,2.24,2.37,1.44,1.48,1.50,1.49
65.35,-0.65,-2.10,-0.65,-2.10,2.10,2.24,1.34,1.45,1.45,1.45
66.01,-0.56,-1.96,-0.55,-1.95,1.95,2.11,1.24,1.39,1.40,1.40
66.67,-0.46,-1.81,-0.45,-1.80,1.80,1.99,1.15,1.34,1.36,1.35
67.33,-0.37,-1.67,-0.35,-1.65,1.65,1.86,1.06,1.28,1.31,1.30
68.01,-0.28,-1.54,-0.25,-1.50,1.50,1.73,0.98,1.22,1.26,1.26
68.69,-0.12,-1.34,-0.14,-1.35,1.35,1.60,0.90,1.23,1.21,1.21
69.37,0.01,-1.15,-0.04,-1.19,1.19,1.47,0.83,1.20,1.16,1.16
70.07,0.12,-0.99,0.07,-1.04,1.04,1.34,0.75,1.15,1.11,1.11
70.77,0.17,-0.89,0.17,-0.88,0.88,1.21,0.69,1.05,1.05,1.06
71.48,0.26,-0.76,0.27,-0.73,0.73,1.08,0.62,0.99,1.00,1.01
72.19,0.36,-0.58,0.37,-0.58,0.58,0.94,0.55,0.93,0.94,0.94
72.91,0.45,-0.43,0.46,-0.42,0.42,0.80,0.49,0.87,0.89,0.88
73.64,0.54,-0.29,0.55,-0.28,0.28,0.66,0.43,0.81,0.83,0.83
74.38,0.65,-0.12,0.64,-0.13,0.13,0.52,0.37,0.78,0.77,0.77
75.12,0.76,0.05,0.73,0.01,-0.01,0.37,0.31,0.74,0.72,0.71
75.87,0.84,0.19,0.82,0.16,-0.16,0.22,0.25,0.68,0.66,0.65
76.63,0.90,0.30,0.90,0.30,-0.30,0.06,0.19,0.60,0.61,0.60
77.40,0.98,0.43,0.99,0.44,-0.44,-0.09,0.13,0.54,0.55,0.55
78.17,1.08,0.59,1.09,0.59,-0.59,-0.26,0.07,0.49,0.50,0.49
78.95,1.19,0.74,1.18,0.73,-0.73,-0.43,0.01,0.46,0.45,0.45
79.74,1.24,0.84,1.26,0.86,-0.86,-0.60,-0.05,0.37,0.40,0.40
80.54,1.29,0.94,1.35,1.00,-1.00,-0.78,-0.11,0.29,0.35,0.35
81.35,1.40,1.10,1.43,1.13,-1.13,-0.97,-0.17,0.27,0.30,0.30
82.16,1.54,1.29,1.51,1.26,-1.26,-1.16,-0.24,0.28,0.26,0.25
82.98,1.60,1.39,1.59,1.38,-1.38,-1.35,-0.30,0.21,0.21,0.21
83.81,1.72,1.56,1.67,1.50,-1.50,-1.54,-0.37,0.21,0.16,0.16
84.65,1.78,1.67,1.74,1.62,-1.62,-1.73,-0.44,0.15,0.11,0.11
85.50,1.82,1.75,1.80,1.74,-1.74,-1.91,-0.51,0.08,0.06,0.07
86.35,1.85,1.83,1.86,1.85,-1.85,-2.08,-0.58,0.00,0.01,0.02
87.22,1.87,1.90,1.91,1.94,-1.94,-2.24,-0.65,-0.08,-0.04,-0.03
88.09,1.96,2.04,1.95,2.04,-2.04,-2.38,-0.73,-0.08,-0.09,-0.08
88.97,2.02,2.16,1.99,2.13,-2.13,-2.49,-0.80,-0.11,-0.14,-0.14
89.86,2.05,2.24,2.02,2.21,-2.21,-2.58,-0.88,-0.16,-0.19,-0.19
90.76,2.06,2.30,2.04,2.28,-2.28,-2.65,-0.96,-0.22,-0.24,-0.24
91.66,2.06,2.35,2.05,2.34,-2.34,-2.69,-1.04,-0.28,-0.29,-0.29
92.58,2.06,2.41,2.06,2.40,-2.40,-2.70,-1.13,-0.34,-0.34,-0.35
93.51,2.06,2.46,2.06,2.45,-2.45,-2.70,-1.22,-0.40,-0.39,-0.40
94.44,2.06,2.50,2.07,2.51,-2.51,-2.69,-1.30,-0.45,-0.44,-0.44
95.39,2.06,2.55,2.07,2.56,-2.56,-2.66,-1.39,-0.50,-0.49,-0.49
96.34,2.06,2.60,2.06,2.60,-2.60,-2.63,-1.49,-0.55,-0.54,-0.54
97.30,2.05,2.64,2.06,2.65,-2.65,-2.60,-1.58,-0.60,-0.59,-0.59
98.28,2.04,2.68,2.05,2.68,-2.68,-2.57,-1.67,-0.65,-0.63,-0.64
99.26,2.03,2.71,2.04,2.72,-2.72,-2.55,-1.77,-0.69,-0.68,-0.68
100.25,2.01,2.74,2.02,2.75,-2.75,-2.52,-1.86,-0.75,-0.73,-0.73
101.25,1.99,2.77,2.01,2.78,-2.78,-2.51,-1.96,-0.80,-0.78,-0.78
102.27,1.98,2.81,1.98,2.81,-2.81,-2.49,-2.06,-0.83,-0.83,-0.83
103.29,1.97,2.85,1.96,2.83,-2.83,-2.49,-2.16,-0.87,-0.88,-0.88
104.32,1.95,2.87,1.93,2.85,-2.85,-2.48,-2.26,-0.90,-0.93,-0.92
105.37,1.92,2.89,1.89,2.86,-2.86,-2.48,-2.35,-0.95,-0.98,-0.97
106.42,1.90,2.92,1.84,2.87,-2.87,-2.49,-2.45,-0.97,-1.03,-1.02
107.48,1.84,2.92,1.80,2.88,-2.88,-2.50,-2.55,-1.04,-1.08,-1.08
108.56,1.76,2.89,1.75,2.88,-2.88,-2.52,-2.64,-1.12,-1.13,-1.13
109.64,1.67,2.85,1.69,2.87,-2.87,-2.53,-2.74,-1.21,-1.18,-1.18
110.74,1.61,2.85,1.63,2.87,-2.87,-2.55,-2.83,-1.26,-1.24,-1.24
111.85,1.58,2.86,1.57,2.85,-2.85,-2.57,-2.92,-1.27,-1.29,-1.28
112.97,1.48,2.82,1.50,2.83,-2.83,-2.60,-3.00,-1.36,-1.34,-1.34
114.10,1.43,2.82,1.43,2.82,-2.82,-2.63,-3.08,-1.39,-1.39,-1.39
115.24,1.36,2.80,1.37,2.80,-2.80,-2.65,-3.16,-1.44,-1.43,-1.44
116.39,1.30,2.79,1.31,2.79,-2.79,-2.68,-3.23,-1.49,-1.48,-1.49
117.55,1.28,2.81,1.25,2.77,-2.77,-2.71,-3.30,-1.50,-1.52,-1.53
118.73,1.21,2.78,1.20,2.76,-2.76,-2.75,-3.37,-1.55,-1.56,-1.57
119.92,1.12,2.72,1.15,2.75,-2.75,-2.78,-3.43,-1.63,-1.60,-1.60
121.12,1.08,2.72,1.11,2.74,-2.74,-2.81,-3.48,-1.66,-1.63,-1.64
122.33,1.03,2.70,1.06,2.73,-2.73,-2.84,-3.52,-1.71,-1.67,-1.67
123.55,1.01,2.71,1.02,2.72,-2.72,-2.88,-3.57,-1.72,-1.70,-1.70
124.79,1.02,2.75,0.99,2.72,-2.72,-2.91,-3.60,-1.71,-1.73,-1.73
126.03,1.02,2.78,0.97,2.73,-2.73,-2.95,-3.63,-1.71,-1.76,-1.76
127.29,0.97,2.75,0.94,2.73,-2.73,-2.98,-3.65,-1.77,-1.79,-1.78
128.57,0.93,2.75,0.92,2.75,-2.75,-3.01,-3.67,-1.82,-1.82,-1.82
129.85,0.86,2.71,0.91,2.76,-2.76,-3.05,-3.67,-1.90,-1.85,-1.85
131.15,0.85,2.73,0.89,2.77,-2.77,-3.08,-3.68,-1.92,-1.88,-1.88
132.46,0.85,2.76,0.87,2.78,-2.78,-3.12,-3.68,-1.93,-1.91,-1.91
133.79,0.86,2.80,0.86,2.79,-2.79,-3.15,-3.67,-1.94,-1.93,-1.94
135.12,0.86,2.83,0.84,2.80,-2.80,-3.18,-3.66,-1.94,-1.96,-1.97
136.48,0.86,2.85,0.82,2.81,-2.81,-3.21,-3.64,-1.95,-1.99,-1.99
137.84,0.87,2.90,0.80,2.81,-2.81,-3.25,-3.62,-1.95,-2.02,-2.03
139.22,0.81,2.87,0.78,2.83,-2.83,-3.28,-3.60,-2.02,-2.05,-2.06
140.61,0.77,2.86,0.77,2.84,-2.84,-3.31,-3.58,-2.08,-2.08,-2.09
142.02,0.77,2.88,0.75,2.86,-2.86,-3.34,-3.55,-2.09,-2.11,-2.11
143.44,0.70,2.84,0.74,2.88,-2.88,-3.37,-3.52,-2.19,-2.14,-2.14
144.87,0.67,2.85,0.73,2.91,-2.91,-3.40,-3.48,-2.24,-2.18,-2.18
146.32,0.67,2.89,0.71,2.94,-2.94,-3.43,-3.45,-2.27,-2.23,-2.22
147.78,0.67,2.92,0.70,2.97,-2.97,-3.46,-3.42,-2.30,-2.27,-2.25
149.26,0.67,2.97,0.68,3.01,-3.01,-3.49,-3.38,-2.34,-2.33,-2.30
150.75,0.67,3.03,0.66,3.05,-3.05,-3.51,-3.35,-2.38,-2.39,-2.36
152.26,0.67,3.10,0.64,3.09,-3.09,-3.54,-3.31,-2.42,-2.45,-2.43
153.78,0.66,3.16,0.62,3.13,-3.13,-3.57,-3.28,-2.47,-2.51,-2.50
155.32,0.60,3.17,0.59,3.17,-3.17,-3.59,-3.24,-2.58,-2.58,-2.57
156.88,0.57,3.22,0.56,3.21,-3.21,-3.62,-3.21,-2.64,-2.65,-2.65
158.44,0.57,3.30,0.52,3.24,-3.24,-3.64,-3.18,-2.67,-2.72,-2.73
160.03,0.54,3.35,0.48,3.27,-3.27,-3.67,-3.15,-2.73,-2.79,-2.81
161.63,0.48,3.36,0.43,3.29,-3.29,-3.69,-3.13,-2.81,-2.86,-2.88
163.24,0.43,3.37,0.39,3.30,-3.30,-3.71,-3.10,-2.88,-2.92,-2.94
164.88,0.33,3.32,0.34,3.31,-3.31,-3.73,-3.08,-2.99,-2.97,-2.99
166.53,0.27,3.31,0.29,3.31,-3.31,-3.75,-3.06,-3.05,-3.02,-3.04
168.19,0.19,3.27,0.25,3.31,-3.31,-3.77,-3.04,-3.12,-3.06,-3.08
169.87,0.14,3.26,0.21,3.30,-3.30,-3.79,-3.02,-3.17,-3.09,-3.12
171.57,0.14,3.28,0.18,3.30,-3.30,-3.81,-3.01,-3.16,-3.12,-3.14
173.29,0.13,3.28,0.15,3.29,-3.29,-3.83,-3.00,-3.16,-3.14,-3.15
175.02,0.12,3.28,0.13,3.28,-3.28,-3.85,-2.99,-3.17,-3.15,-3.16
176.77,0.12,3.29,0.11,3.28,-3.28,-3.86,-2.98,-3.16,-3.16,-3.17
178.54,0.12,3.30,0.11,3.28,-3.28,-3.88,-2.98,-3.16,-3.17,-3.18
180.32,0.12,3.29,0.12,3.29,-3.29,-3.89,-2.98,-3.17,-3.18,-3.17
182.13,0.13,3.29,0.13,3.31,-3.31,-3.91,-2.98,-3.18,-3.18,-3.16
183.95,0.14,3.31,0.14,3.33,-3.33,-3.92,-2.98,-3.19,-3.19,-3.17
185.79,0.15,3.32,0.15,3.35,-3.35,-3.94,-2.99,-3.20,-3.19,-3.17
187.65,0.17,3.36,0.16,3.37,-3.37,-3.95,-3.00,-3.20,-3.20,-3.19
189.52,0.18,3.38,0.17,3.38,-3.38,-3.96,-3.01,-3.21,-3.21,-3.20
191.42,0.19,3.41,0.18,3.40,-3.40,-3.97,-3.03,-3.22,-3.22,-3.22
193.33,0.21,3.45,0.18,3.42,-3.42,-3.98,-3.04,-3.22,-3.24,-3.24
195.27,0.22,3.48,0.19,3.44,-3.44,-3.99,-3.06,-3.23,-3.26,-3.26
197.22,0.24,3.52,0.19,3.46,-3.46,-4.00,-3.08,-3.23,-3.27,-3.28
199.19,0.21,3.51,0.19,3.48,-3.48,-4.01,-3.10,-3.27,-3.29,-3.30
201.18,0.17,3.49,0.19,3.50,-3.50,-4.02,-3.13,-3.33,-3.31,-3.32
203.19,0.16,3.50,0.18,3.52,-3.52,-4.02,-3.15,-3.36,-3.34,-3.34
205.23,0.16,3.52,0.18,3.53,-3.53,-4.03,-3.18,-3.38,-3.36,-3.36
207.28,0.16,3.53,0.17,3.55,-3.55,-4.04,-3.21,-3.39,-3.38,-3.37
209.35,0.16,3.55,0.16,3.56,-3.56,-4.04,-3.23,-3.40,-3.40,-3.39
211.44,0.16,3.58,0.16,3.57,-3.57,-4.04,-3.26,-3.42,-3.41,-3.42
213.56,0.15,3.58,0.15,3.58,-3.58,-4.05,-3.29,-3.44,-3.43,-3.43
215.69,0.15,3.59,0.15,3.59,-3.59,-4.05,-3.32,-3.44,-3.44,-3.44
217.85,0.15,3.60,0.14,3.59,-3.59,-4.05,-3.35,-3.45,-3.45,-3.45
220.03,0.14,3.60,0.14,3.60,-3.60,-4.06,-3.38,-3.46,-3.46,-3.46
222.23,0.14,3.63,0.13,3.60,-3.60,-4.06,-3.40,-3.46,-3.47,-3.49
224.45,0.14,3.62,0.13,3.60,-3.60,-4.06,-3.43,-3.46,-3.47,-3.48
226.70,0.14,3.62,0.13,3.60,-3.60,-4.06,-3.45,-3.46,-3.47,-3.48
228.96,0.15,3.62,0.13,3.59,-3.59,-4.06,-3.48,-3.45,-3.47,-3.47
231.25,0.15,3.61,0.13,3.58,-3.58,-4.06,-3.50,-3.44,-3.46,-3.46
233.57,0.13,3.58,0.12,3.57,-3.57,-4.05,-3.51,-3.44,-3.45,-3.45
235.90,0.07,3.51,0.12,3.55,-3.55,-4.05,-3.53,-3.49,-3.43,-3.44
238.26,0.09,3.52,0.12,3.54,-3.54,-4.05,-3.54,-3.45,-3.42,-3.43
240.64,0.11,3.51,0.12,3.52,-3.52,-4.05,-3.55,-3.41,-3.40,-3.40
243.05,0.12,3.49,0.12,3.49,-3.49,-4.04,-3.55,-3.38,-3.37,-3.37
245.48,0.14,3.49,0.12,3.48,-3.48,-4.04,-3.55,-3.34,-3.35,-3.35
247.93,0.17,3.49,0.13,3.46,-3.46,-4.03,-3.55,-3.29,-3.33,-3.32
250.41,0.15,3.45,0.13,3.43,-3.43,-4.03,-3.54,-3.29,-3.30,-3.30
252.92,0.10,3.37,0.13,3.41,-3.41,-4.02,-3.53,-3.31,-3.28,-3.27
255.45,0.11,3.36,0.13,3.39,-3.39,-4.01,-3.52,-3.28,-3.26,-3.25
258.00,0.12,3.35,0.13,3.36,-3.36,-4.00,-3.50,-3.24,-3.23,-3.23
260.58,0.13,3.34,0.13,3.33,-3.33,-4.00,-3.48,-3.21,-3.21,-3.21
263.19,0.13,3.31,0.12,3.30,-3.30,-3.99,-3.46,-3.18,-3.18,-3.18
265.82,0.13,3.29,0.11,3.26,-3.26,-3.98,-3.43,-3.14,-3.16,-3.16
268.48,0.13,3.27,0.09,3.22,-3.22,-3.97,-3.40,-3.09,-3.13,-3.14
271.16,0.12,3.23,0.06,3.17,-3.17,-3.96,-3.36,-3.05,-3.11,-3.11
273.87,0.04,3.13,0.03,3.11,-3.11,-3.95,-3.32,-3.08,-3.08,-3.09
276.61,-0.00,3.06,0.00,3.06,-3.06,-3.94,-3.29,-3.06,-3.06,-3.06
279.38,0.02,3.05,-0.02,3.01,-3.01,-3.93,-3.24,-2.99,-3.03,-3.03
282.17,-0.07,2.94,-0.05,2.96,-2.96,-3.92,-3.20,-3.03,-3.00,-3.01
284.99,-0.09,2.88,-0.08,2.90,-2.90,-3.90,-3.16,-2.99,-2.97,-2.97
287.84,-0.10,2.85,-0.11,2.84,-2.84,-3.89,-3.11,-2.94,-2.94,-2.95
290.72,-0.15,2.77,-0.14,2.78,-2.78,-3.88,-3.06,-2.93,-2.92,-2.92
293.63,-0.24,2.65,-0.17,2.72,-2.72,-3.86,-3.01,-2.96,-2.89,-2.89
296.57,-0.23,2.63,-0.19,2.67,-2.67,-3.85,-2.97,-2.90,-2.86,-2.86
299.53,-0.22,2.61,-0.21,2.62,-2.62,-3.83,-2.92,-2.84,-2.83,-2.83
302.53,-0.19,2.62,-0.23,2.57,-2.57,-3.82,-2.87,-2.77,-2.80,-2.81
305.55,-0.16,2.61,-0.24,2.53,-2.53,-3.80,-2.82,-2.70,-2.78,-2.77
308.61,-0.24,2.51,-0.25,2.50,-2.50,-3.79,-2.78,-2.74,-2.75,-2.75
311.69,-0.28,2.44,-0.26,2.47,-2.47,-3.77,-2.73,-2.75,-2.73,-2.72
314.81,-0.28,2.42,-0.26,2.45,-2.45,-3.76,-2.68,-2.73,-2.71,-2.70
317.96,-0.28,2.40,-0.26,2.43,-2.43,-3.74,-2.64,-2.71,-2.69,-2.68
321.14,-0.28,2.39,-0.26,2.40,-2.40,-3.72,-2.60,-2.69,-2.67,-2.67
324.35,-0.28,2.37,-0.27,2.38,-2.38,-3.70,-2.55,-2.66,-2.65,-2.65
327.59,-0.28,2.36,-0.28,2.36,-2.36,-3.69,-2.51,-2.64,-2.63,-2.64
330.87,-0.28,2.35,-0.29,2.33,-2.33,-3.67,-2.47,-2.61,-2.62,-2.63
334.18,-0.28,2.33,-0.31,2.30,-2.30,-3.65,-2.44,-2.58,-2.61,-2.61
337.52,-0.28,2.32,-0.33,2.27,-2.27,-3.63,-2.40,-2.55,-2.60,-2.60
340.90,-0.27,2.32,-0.35,2.24,-2.24,-3.61,-2.36,-2.51,-2.59,-2.59
344.30,-0.29,2.29,-0.37,2.21,-2.21,-3.59,-2.33,-2.51,-2.58,-2.58
347.75,-0.36,2.22,-0.39,2.19,-2.19,-3.57,-2.30,-2.55,-2.58,-2.58
351.23,-0.45,2.12,-0.41,2.17,-2.17,-3.55,-2.27,-2.62,-2.57,-2.57
354.74,-0.49,2.09,-0.42,2.15,-2.15,-3.53,-2.24,-2.65,-2.57,-2.58
358.28,-0.48,2.09,-0.43,2.14,-2.14,-3.51,-2.22,-2.62,-2.57,-2.57
361.87,-0.47,2.10,-0.43,2.13,-2.13,-3.49,-2.19,-2.61,-2.57,-2.57
365.49,-0.47,2.09,-0.43,2.13,-2.13,-3.47,-2.17,-2.61,-2.57,-2.56
369.14,-0.46,2.11,-0.43,2.14,-2.14,-3.45,-2.15,-2.60,-2.57,-2.57
372.83,-0.47,2.10,-0.42,2.14,-2.14,-3.42,-2.13,-2.62,-2.57,-2.57
376.56,-0.46,2.12,-0.42,2.15,-2.15,-3.40,-2.11,-2.62,-2.57,-2.58
380.33,-0.36,2.21,-0.40,2.17,-2.17,-3.38,-2.10,-2.53,-2.57,-2.57
384.13,-0.33,2.24,-0.39,2.19,-2.19,-3.36,-2.08,-2.52,-2.58,-2.57
387.97,-0.32,2.26,-0.38,2.21,-2.21,-3.34,-2.07,-2.53,-2.58,-2.58
391.85,-0.32,2.27,-0.37,2.22,-2.22,-3.31,-2.06,-2.54,-2.59,-2.59
395.77,-0.32,2.26,-0.37,2.22,-2.22,-3.29,-2.05,-2.54,-2.59,-2.58
399.73,-0.32,2.27,-0.39,2.21,-2.21,-3.27,-2.04,-2.53,-2.60,-2.59
403.72,-0.37,2.22,-0.40,2.20,-2.20,-3.24,-2.04,-2.57,-2.60,-2.59
407.76,-0.42,2.19,-0.42,2.18,-2.18,-3.22,-2.03,-2.61,-2.61,-2.61
411.84,-0.43,2.18,-0.44,2.17,-2.17,-3.20,-2.03,-2.60,-2.61,-2.61
415.96,-0.43,2.18,-0.46,2.15,-2.15,-3.17,-2.02,-2.59,-2.61,-2.61
420.12,-0.48,2.13,-0.47,2.14,-2.14,-3.15,-2.02,-2.62,-2.61,-2.61
424.32,-0.52,2.09,-0.47,2.13,-2.13,-3.13,-2.02,-2.65,-2.60,-2.61
428.56,-0.54,2.06,-0.47,2.12,-2.12,-3.10,-2.02,-2.66,-2.59,-2.60
432.85,-0.58,2.01,-0.46,2.12,-2.12,-3.08,-2.02,-2.70,-2.58,-2.59
437.18,-0.55,2.03,-0.44,2.12,-2.12,-3.05,-2.02,-2.67,-2.55,-2.58
441.55,-0.46,2.08,-0.42,2.11,-2.11,-3.03,-2.02,-2.58,-2.53,-2.54
445.96,-0.39,2.12,-0.40,2.10,-2.10,-3.01,-2.02,-2.49,-2.50,-2.51
450.42,-0.34,2.14,-0.38,2.09,-2.09,-2.98,-2.03,-2.43,-2.46,-2.48
