frequency,raw,error,smoothed,error_smoothed,equalization,parametric_eq,fixed_band_eq,equalized_raw,equalized_smoothed,target
20.00,11.21,7.16,11.21,7.13,-7.13,-5.77,-3.46,4.08,4.08,4.05
20.20,11.23,7.13,11.24,7.12,-7.12,-5.86,-3.55,4.11,4.12,4.10
20.40,11.25,7.10,11.26,7.10,-7.10,-5.94,-3.65,4.15,4.15,4.15
20.61,11.27,7.09,11.28,7.09,-7.09,-6.02,-3.75,4.18,4.19,4.18
20.81,11.29,7.06,11.29,7.08,-7.08,-6.10,-3.86,4.21,4.22,4.23
21.02,11.31,7.04,11.31,7.07,-7.07,-6.19,-3.96,4.24,4.25,4.27
21.23,11.33,7.04,11.33,7.06,-7.06,-6.27,-4.07,4.27,4.27,4.29
21.44,11.35,7.04,11.35,7.05,-7.05,-6.35,-4.18,4.30,4.29,4.31
21.66,11.38,7.05,11.36,7.05,-7.05,-6.43,-4.30,4.33,4.32,4.33
21.87,11.40,7.06,11.38,7.04,-7.04,-6.52,-4.42,4.36,4.33,4.34
22.09,11.41,7.05,11.39,7.04,-7.04,-6.60,-4.54,4.37,4.35,4.36
22.31,11.41,7.04,11.41,7.04,-7.04,-6.68,-4.67,4.37,4.36,4.37
22.54,11.41,7.04,11.42,7.05,-7.05,-6.76,-4.79,4.36,4.37,4.37
22.76,11.41,7.04,11.43,7.06,-7.06,-6.84,-4.93,4.35,4.37,4.37
22.99,11.41,7.05,11.44,7.07,-7.07,-6.91,-5.06,4.34,4.37,4.36
23.22,11.43,7.07,11.45,7.08,-7.08,-6.99,-5.20,4.35,4.37,4.36
23.45,11.45,7.09,11.46,7.09,-7.09,-7.07,-5.34,4.37,4.38,4.36
23.69,11.47,7.10,11.47,7.09,-7.09,-7.14,-5.49,4.38,4.38,4.37
23.92,11.49,7.12,11.48,7.10,-7.10,-7.21,-5.64,4.39,4.38,4.37
24.16,11.50,7.13,11.48,7.11,-7.11,-7.28,-5.79,4.40,4.37,4.37
24.40,11.50,7.12,11.49,7.11,-7.11,-7.35,-5.94,4.39,4.37,4.38
24.65,11.50,7.13,11.49,7.12,-7.12,-7.42,-6.10,4.38,4.37,4.37
24.89,11.50,7.13,11.50,7.12,-7.12,-7.48,-6.26,4.38,4.37,4.37
25.14,11.50,7.13,11.50,7.13,-7.13,-7.55,-6.42,4.37,4.38,4.37
25.39,11.50,7.12,11.51,7.13,-7.13,-7.61,-6.58,4.37,4.38,4.38
25.65,11.50,7.12,11.51,7.13,-7.13,-7.67,-6.74,4.37,4.38,4.38
25.91,11.50,7.13,11.51,7.13,-7.13,-7.72,-6.91,4.37,4.38,4.37
26.16,11.50,7.13,11.50,7.13,-7.13,-7.77,-7.07,4.37,4.37,4.37
26.43,11.50,7.13,11.50,7.13,-7.13,-7.82,-7.24,4.37,4.37,4.37
26.69,11.50,7.13,11.50,7.13,-7.13,-7.87,-7.40,4.37,4.37,4.37
26.96,11.50,7.13,11.50,7.13,-7.13,-7.91,-7.56,4.37,4.37,4.37
27.23,11.50,7.13,11.50,7.13,-7.13,-7.95,-7.72,4.37,4.37,4.37
27.50,11.50,7.13,11.50,7.14,-7.14,-7.99,-7.88,4.37,4.37,4.37
27.77,11.50,7.14,11.50,7.14,-7.14,-8.02,-8.03,4.36,4.36,4.36
28.05,11.50,7.14,11.50,7.14,-7.14,-8.05,-8.18,4.36,4.36,4.36
28.33,11.50,7.15,11.50,7.14,-7.14,-8.07,-8.32,4.36,4.36,4.35
28.62,11.50,7.15,11.50,7.14,-7.14,-8.09,-8.45,4.36,4.36,4.35
28.90,11.50,7.14,11.50,7.14,-7.14,-8.11,-8.57,4.36,4.36,4.36
29.19,11.50,7.15,11.50,7.14,-7.14,-8.12,-8.68,4.36,4.36,4.35
29.48,11.50,7.14,11.50,7.15,-7.15,-8.13,-8.78,4.36,4.36,4.36
29.78,11.50,7.15,11.50,7.15,-7.15,-8.14,-8.87,4.35,4.35,4.35
30.08,11.50,7.14,11.51,7.15,-7.15,-8.14,-8.94,4.35,4.35,4.36
30.38,11.50,7.15,11.51,7.16,-7.16,-8.14,-9.00,4.34,4.35,4.35
30.68,11.50,7.15,11.51,7.16,-7.16,-8.13,-9.05,4.34,4.35,4.35
30.99,11.50,7.15,11.51,7.16,-7.16,-8.12,-9.08,4.34,4.35,4.35
31.30,11.50,7.16,11.51,7.16,-7.16,-8.10,-9.09,4.34,4.35,4.34
31.61,11.50,7.16,11.50,7.16,-7.16,-8.09,-9.09,4.34,4.34,4.34
31.93,11.50,7.16,11.49,7.15,-7.15,-8.06,-9.07,4.35,4.34,4.34
32.24,11.50,7.17,11.48,7.14,-7.14,-8.04,-9.03,4.36,4.34,4.33
32.57,11.50,7.17,11.46,7.13,-7.13,-8.01,-8.98,4.37,4.33,4.33
32.89,11.50,7.17,11.45,7.12,-7.12,-7.98,-8.92,4.38,4.33,4.33
33.22,11.46,7.14,11.44,7.11,-7.11,-7.94,-8.85,4.35,4.32,4.32
33.55,11.41,7.09,11.42,7.10,-7.10,-7.90,-8.76,4.31,4.32,4.32
33.89,11.36,7.05,11.40,7.09,-7.09,-7.86,-8.66,4.27,4.31,4.31
34.23,11.33,7.02,11.38,7.07,-7.07,-7.81,-8.55,4.26,4.31,4.31
34.57,11.32,7.02,11.36,7.06,-7.06,-7.77,-8.43,4.26,4.30,4.30
34.92,11.31,7.01,11.34,7.04,-7.04,-7.72,-8.31,4.27,4.30,4.30
35.27,11.31,7.02,11.31,7.02,-7.02,-7.66,-8.18,4.29,4.30,4.29
35.62,11.31,7.02,11.29,7.00,-7.00,-7.61,-8.05,4.31,4.29,4.29
35.97,11.31,7.02,11.27,6.98,-6.98,-7.55,-7.91,4.33,4.29,4.29
36.33,11.28,6.99,11.25,6.96,-6.96,-7.49,-7.77,4.32,4.29,4.29
36.70,11.25,6.97,11.23,6.94,-6.94,-7.43,-7.63,4.31,4.29,4.28
37.06,11.21,6.93,11.22,6.93,-6.93,-7.36,-7.48,4.29,4.29,4.28
37.43,11.18,6.89,11.20,6.91,-6.91,-7.30,-7.34,4.27,4.29,4.29
37.81,11.14,6.85,11.18,6.89,-6.89,-7.23,-7.20,4.26,4.29,4.29
38.19,11.12,6.84,11.15,6.86,-6.86,-7.17,-7.05,4.26,4.29,4.28
38.57,11.12,6.83,11.13,6.84,-6.84,-7.10,-6.91,4.29,4.29,4.29
38.95,11.12,6.82,11.10,6.81,-6.81,-7.03,-6.77,4.31,4.29,4.30
39.34,11.09,6.80,11.07,6.78,-6.78,-6.96,-6.64,4.32,4.29,4.29
39.74,11.05,6.76,11.04,6.74,-6.74,-6.88,-6.50,4.31,4.29,4.29
40.14,11.01,6.72,11.01,6.71,-6.71,-6.81,-6.37,4.30,4.29,4.29
40.54,10.97,6.68,10.97,6.68,-6.68,-6.74,-6.25,4.29,4.29,4.29
40.94,10.93,6.65,10.94,6.66,-6.66,-6.67,-6.12,4.28,4.29,4.28
41.35,10.90,6.62,10.91,6.63,-6.63,-6.59,-6.00,4.28,4.28,4.28
41.76,10.88,6.61,10.87,6.60,-6.60,-6.52,-5.89,4.28,4.27,4.27
42.18,10.84,6.57,10.83,6.57,-6.57,-6.44,-5.78,4.27,4.26,4.27
42.60,10.78,6.52,10.79,6.54,-6.54,-6.37,-5.67,4.24,4.26,4.26
43.03,10.73,6.48,10.75,6.51,-6.51,-6.29,-5.56,4.23,4.24,4.25
43.46,10.69,6.45,10.70,6.47,-6.47,-6.22,-5.46,4.22,4.23,4.24
43.90,10.66,6.44,10.65,6.43,-6.43,-6.14,-5.37,4.23,4.22,4.22
44.33,10.61,6.41,10.61,6.40,-6.40,-6.07,-5.27,4.21,4.21,4.20
44.78,10.56,6.38,10.56,6.37,-6.37,-5.99,-5.18,4.19,4.19,4.18
45.23,10.52,6.35,10.52,6.34,-6.34,-5.92,-5.10,4.19,4.18,4.17
45.68,10.47,6.31,10.47,6.30,-6.30,-5.85,-5.02,4.17,4.17,4.16
46.13,10.42,6.28,10.41,6.25,-6.25,-5.77,-4.94,4.17,4.15,4.14
46.60,10.34,6.20,10.34,6.20,-6.20,-5.70,-4.87,4.14,4.14,4.14
47.06,10.26,6.14,10.28,6.15,-6.15,-5.63,-4.80,4.11,4.12,4.12
47.53,10.20,6.09,10.21,6.10,-6.10,-5.55,-4.73,4.10,4.11,4.11
48.01,10.14,6.03,10.14,6.05,-6.05,-5.48,-4.67,4.10,4.09,4.11
48.49,10.10,6.01,10.07,5.99,-5.99,-5.41,-4.61,4.11,4.08,4.09
48.97,10.06,5.99,9.99,5.92,-5.92,-5.34,-4.55,4.14,4.07,4.07
49.46,9.94,5.89,9.91,5.86,-5.86,-5.27,-4.50,4.08,4.05,4.05
49.96,9.82,5.79,9.83,5.79,-5.79,-5.20,-4.45,4.03,4.04,4.03
50.46,9.70,5.68,9.75,5.73,-5.73,-5.13,-4.40,3.98,4.03,4.02
50.96,9.59,5.58,9.68,5.66,-5.66,-5.06,-4.36,3.93,4.01,4.01
51.47,9.57,5.58,9.60,5.60,-5.60,-4.99,-4.31,3.97,4.00,3.99
51.99,9.56,5.58,9.52,5.54,-5.54,-4.93,-4.27,4.03,3.99,3.98
52.51,9.47,5.50,9.45,5.47,-5.47,-4.86,-4.23,4.00,3.98,3.97
53.03,9.37,5.40,9.37,5.40,-5.40,-4.79,-4.20,3.97,3.96,3.97
53.56,9.27,5.32,9.29,5.34,-5.34,-4.73,-4.16,3.93,3.95,3.95
54.10,9.18,5.24,9.21,5.27,-5.27,-4.66,-4.13,3.91,3.94,3.94
54.64,9.12,5.20,9.14,5.21,-5.21,-4.60,-4.10,3.91,3.93,3.92
55.18,9.07,5.15,9.07,5.15,-5.15,-4.53,-4.06,3.92,3.92,3.92
55.74,9.02,5.12,9.00,5.09,-5.09,-4.47,-4.03,3.93,3.91,3.90
56.29,8.94,5.05,8.92,5.02,-5.02,-4.41,-4.00,3.92,3.90,3.89
56.86,8.83,4.95,8.83,4.95,-4.95,-4.34,-3.97,3.88,3.88,3.88
57.42,8.72,4.87,8.74,4.87,-4.87,-4.28,-3.94,3.85,3.86,3.85
58.00,8.62,4.78,8.64,4.80,-4.80,-4.22,-3.91,3.82,3.84,3.84
58.58,8.55,4.72,8.55,4.73,-4.73,-4.16,-3.87,3.82,3.82,3.83
59.16,8.48,4.67,8.45,4.66,-4.66,-4.09,-3.84,3.82,3.80,3.81
59.76,8.40,4.61,8.35,4.58,-4.58,-4.03,-3.81,3.82,3.77,3.79
60.35,8.25,4.50,8.23,4.49,-4.49,-3.97,-3.77,3.76,3.74,3.75
60.96,8.05,4.34,8.10,4.40,-4.40,-3.91,-3.73,3.66,3.71,3.71
61.57,7.94,4.27,7.96,4.29,-4.29,-3.85,-3.70,3.65,3.67,3.67
62.18,7.84,4.21,7.82,4.19,-4.19,-3.79,-3.66,3.65,3.63,3.63
62.80,7.75,4.17,7.68,4.09,-4.09,-3.72,-3.62,3.66,3.59,3.58
63.43,7.60,4.06,7.54,3.99,-3.99,-3.66,-3.57,3.61,3.55,3.54
64.07,7.43,3.94,7.40,3.90,-3.90,-3.60,-3.53,3.53,3.50,3.49
64.71,7.29,3.84,7.26,3.81,-3.81,-3.54,-3.48,3.49,3.46,3.45
65.35,7.10,3.69,7.13,3.72,-3.72,-3.47,-3.44,3.38,3.41,3.41
66.01,6.89,3.53,7.00,3.63,-3.63,-3.41,-3.39,3.26,3.36,3.36
66.67,6.74,3.43,6.87,3.55,-3.55,-3.34,-3.34,3.19,3.32,3.31
67.33,6.63,3.37,6.75,3.48,-3.48,-3.28,-3.29,3.15,3.27,3.26
68.01,6.56,3.34,6.63,3.41,-3.41,-3.21,-3.23,3.16,3.22,3.22
68.69,6.50,3.33,6.50,3.33,-3.33,-3.14,-3.18,3.17,3.17,3.17
69.37,6.43,3.31,6.38,3.26,-3.26,-3.07,-3.12,3.17,3.12,3.12
70.07,6.34,3.27,6.26,3.20,-3.20,-2.99,-3.07,3.15,3.07,3.07
70.77,6.18,3.16,6.14,3.13,-3.13,-2.92,-3.01,3.05,3.01,3.02
71.48,6.04,3.07,6.02,3.06,-3.06,-2.84,-2.96,2.98,2.96,2.97
72.19,5.89,2.99,5.87,2.97,-2.97,-2.75,-2.90,2.92,2.90,2.90
72.91,5.70,2.86,5.72,2.88,-2.88,-2.67,-2.84,2.82,2.85,2.84
73.64,5.55,2.76,5.56,2.77,-2.77,-2.58,-2.79,2.78,2.79,2.79
74.38,5.39,2.66,5.37,2.64,-2.64,-2.48,-2.73,2.75,2.73,2.73
75.12,5.21,2.54,5.17,2.49,-2.49,-2.38,-2.68,2.72,2.68,2.67
75.87,5.00,2.39,4.95,2.33,-2.33,-2.27,-2.62,2.67,2.62,2.61
76.63,4.78,2.22,4.71,2.14,-2.14,-2.15,-2.57,2.64,2.57,2.56
77.40,4.50,1.99,4.45,1.94,-1.94,-2.03,-2.52,2.57,2.51,2.51
78.17,4.17,1.72,4.18,1.72,-1.72,-1.89,-2.46,2.45,2.46,2.45
78.95,3.85,1.44,3.92,1.51,-1.51,-1.75,-2.41,2.34,2.41,2.41
79.74,3.61,1.25,3.64,1.28,-1.28,-1.59,-2.36,2.33,2.36,2.36
80.54,3.36,1.05,3.34,1.03,-1.03,-1.42,-2.31,2.33,2.31,2.31
81.35,3.08,0.82,3.04,0.78,-0.78,-1.23,-2.26,2.30,2.26,2.26
82.16,2.75,0.54,2.74,0.52,-0.52,-1.02,-2.22,2.23,2.22,2.21
82.98,2.44,0.27,2.43,0.26,-0.26,-0.80,-2.17,2.18,2.17,2.17
83.81,2.02,-0.10,2.11,-0.01,0.01,-0.55,-2.13,2.03,2.12,2.12
84.65,1.71,-0.36,1.80,-0.27,0.27,-0.27,-2.09,1.99,2.07,2.07
85.50,1.50,-0.53,1.48,-0.55,0.55,0.03,-2.05,2.05,2.02,2.03
86.35,1.28,-0.70,1.15,-0.83,0.83,0.35,-2.01,2.11,1.97,1.98
87.22,0.95,-0.98,0.82,-1.10,1.10,0.71,-1.97,2.05,1.93,1.93
88.09,0.57,-1.31,0.51,-1.37,1.37,1.08,-1.93,1.94,1.87,1.88
88.97,0.25,-1.57,0.20,-1.62,1.62,1.47,-1.89,1.87,1.82,1.82
89.86,0.03,-1.74,-0.08,-1.85,1.85,1.86,-1.86,1.88,1.77,1.77
90.76,-0.31,-2.03,-0.33,-2.06,2.06,2.24,-1.83,1.75,1.72,1.72
91.66,-0.59,-2.26,-0.56,-2.24,2.24,2.58,-1.80,1.65,1.67,1.67
92.58,-0.82,-2.43,-0.76,-2.39,2.39,2.86,-1.77,1.57,1.62,1.61
93.51,-1.08,-2.64,-0.93,-2.50,2.50,3.04,-1.74,1.42,1.57,1.56
94.44,-1.26,-2.78,-1.05,-2.57,2.57,3.10,-1.71,1.31,1.52,1.52
95.39,-1.24,-2.71,-1.12,-2.59,2.59,3.05,-1.68,1.35,1.47,1.47
96.34,-1.14,-2.56,-1.12,-2.54,2.54,2.88,-1.66,1.40,1.42,1.42
97.30,-1.05,-2.42,-1.05,-2.43,2.43,2.63,-1.63,1.38,1.37,1.37
98.28,-0.97,-2.29,-0.92,-2.25,2.25,2.32,-1.61,1.28,1.33,1.32
99.26,-0.84,-2.12,-0.73,-2.01,2.01,1.98,-1.59,1.17,1.28,1.28
100.25,-0.67,-1.90,-0.49,-1.72,1.72,1.62,-1.57,1.06,1.23,1.23
101.25,-0.46,-1.64,-0.20,-1.38,1.38,1.28,-1.55,0.93,1.18,1.18
102.27,-0.07,-1.20,0.13,-1.00,1.00,0.95,-1.53,0.93,1.13,1.13
103.29,0.37,-0.71,0.48,-0.60,0.60,0.64,-1.51,0.98,1.09,1.08
104.32,0.82,-0.22,0.84,-0.20,0.20,0.36,-1.49,1.02,1.04,1.04
105.37,1.28,0.29,1.17,0.19,-0.19,0.11,-1.47,1.09,0.98,0.99
106.42,1.68,0.74,1.49,0.56,-0.56,-0.12,-1.45,1.13,0.93,0.94
107.48,1.94,1.06,1.77,0.89,-0.89,-0.33,-1.43,1.05,0.88,0.88
108.56,2.22,1.39,2.02,1.19,-1.19,-0.51,-1.42,1.03,0.83,0.83
109.64,2.44,1.66,2.21,1.44,-1.44,-0.67,-1.40,1.00,0.78,0.78
110.74,2.58,1.86,2.35,1.63,-1.63,-0.82,-1.38,0.95,0.72,0.72
111.85,2.69,2.01,2.43,1.75,-1.75,-0.95,-1.36,0.94,0.67,0.68
112.97,2.65,2.03,2.44,1.82,-1.82,-1.07,-1.35,0.84,0.62,0.62
114.10,2.50,1.93,2.39,1.81,-1.81,-1.18,-1.33,0.69,0.58,0.57
115.24,2.33,1.81,2.29,1.77,-1.77,-1.27,-1.31,0.57,0.53,0.52
116.39,2.19,1.72,2.18,1.69,-1.69,-1.36,-1.29,0.50,0.48,0.47
117.55,2.04,1.61,2.04,1.60,-1.60,-1.45,-1.27,0.44,0.44,0.43
118.73,1.82,1.43,1.91,1.51,-1.51,-1.52,-1.25,0.31,0.40,0.39
119.92,1.63,1.27,1.79,1.43,-1.43,-1.60,-1.23,0.21,0.36,0.36
121.12,1.49,1.17,1.68,1.35,-1.35,-1.67,-1.21,0.14,0.33,0.32
122.33,1.41,1.12,1.60,1.31,-1.31,-1.74,-1.18,0.10,0.29,0.29
123.55,1.35,1.09,1.56,1.30,-1.30,-1.81,-1.16,0.05,0.26,0.26
124.79,1.38,1.15,1.56,1.33,-1.33,-1.88,-1.13,0.05,0.23,0.23
126.03,1.47,1.27,1.61,1.41,-1.41,-1.96,-1.11,0.06,0.20,0.20
127.29,1.65,1.47,1.70,1.53,-1.53,-2.05,-1.08,0.12,0.17,0.18
128.57,1.83,1.69,1.82,1.68,-1.68,-2.14,-1.05,0.15,0.14,0.14
129.85,1.96,1.85,1.97,1.86,-1.86,-2.25,-1.02,0.10,0.11,0.11
131.15,2.08,2.00,2.14,2.06,-2.06,-2.38,-0.99,0.02,0.08,0.08
132.46,2.27,2.22,2.33,2.27,-2.27,-2.52,-0.96,-0.00,0.05,0.05
133.79,2.52,2.50,2.51,2.49,-2.49,-2.69,-0.92,0.04,0.03,0.02
135.12,2.72,2.73,2.68,2.69,-2.69,-2.88,-0.89,0.04,-0.00,-0.01
136.48,2.89,2.92,2.84,2.87,-2.87,-3.10,-0.85,0.02,-0.03,-0.03
137.84,3.07,3.14,2.96,3.02,-3.02,-3.32,-0.82,0.05,-0.06,-0.07
139.22,3.17,3.27,3.06,3.14,-3.14,-3.55,-0.78,0.03,-0.09,-0.10
140.61,3.22,3.35,3.12,3.24,-3.24,-3.74,-0.74,-0.01,-0.12,-0.13
142.02,3.19,3.34,3.15,3.29,-3.29,-3.86,-0.70,-0.10,-0.15,-0.15
143.44,3.14,3.32,3.12,3.30,-3.30,-3.88,-0.66,-0.16,-0.18,-0.18
144.87,3.11,3.33,3.06,3.28,-3.28,-3.79,-0.62,-0.17,-0.22,-0.22
146.32,2.91,3.17,2.93,3.19,-3.19,-3.60,-0.58,-0.28,-0.27,-0.26
147.78,2.76,3.05,2.72,3.03,-3.03,-3.35,-0.54,-0.27,-0.31,-0.29
149.26,2.55,2.89,2.43,2.80,-2.80,-3.08,-0.50,-0.25,-0.37,-0.34
150.75,2.30,2.70,2.10,2.52,-2.52,-2.82,-0.45,-0.22,-0.43,-0.40
152.26,2.00,2.47,1.73,2.22,-2.22,-2.57,-0.41,-0.22,-0.49,-0.47
153.78,1.72,2.26,1.35,1.90,-1.90,-2.34,-0.37,-0.18,-0.55,-0.54
155.32,1.30,1.91,0.98,1.60,-1.60,-2.15,-0.32,-0.30,-0.62,-0.61
156.88,0.79,1.48,0.63,1.33,-1.33,-1.97,-0.28,-0.53,-0.69,-0.69
158.44,0.21,0.98,0.33,1.09,-1.09,-1.82,-0.23,-0.88,-0.76,-0.77
160.03,-0.20,0.65,0.06,0.90,-0.90,-1.67,-0.19,-1.09,-0.83,-0.85
161.63,-0.83,0.09,-0.15,0.75,-0.75,-1.55,-0.14,-1.58,-0.90,-0.92
163.24,-1.09,-0.11,-0.30,0.66,-0.66,-1.43,-0.10,-1.74,-0.96,-0.98
164.88,-1.08,-0.05,-0.42,0.60,-0.60,-1.32,-0.05,-1.68,-1.01,-1.03
166.53,-0.83,0.25,-0.48,0.58,-0.58,-1.22,-0.00,-1.41,-1.06,-1.08
168.19,-0.58,0.54,-0.49,0.61,-0.61,-1.12,0.05,-1.19,-1.10,-1.12
169.87,-0.32,0.84,-0.46,0.67,-0.67,-1.03,0.09,-0.99,-1.13,-1.16
171.57,-0.12,1.06,-0.41,0.75,-0.75,-0.93,0.14,-0.87,-1.16,-1.18
173.29,0.05,1.24,-0.33,0.85,-0.85,-0.84,0.19,-0.80,-1.18,-1.19
175.02,0.19,1.39,-0.24,0.96,-0.96,-0.75,0.24,-0.76,-1.19,-1.20
176.77,0.19,1.40,-0.16,1.05,-1.05,-0.67,0.29,-0.86,-1.20,-1.21
178.54,0.08,1.30,-0.10,1.11,-1.11,-0.58,0.34,-1.03,-1.21,-1.22
180.32,-0.04,1.17,-0.08,1.13,-1.13,-0.49,0.38,-1.17,-1.22,-1.21
182.13,-0.14,1.06,-0.13,1.09,-1.09,-0.40,0.43,-1.23,-1.22,-1.20
183.95,-0.22,0.99,-0.23,1.00,-1.00,-0.30,0.48,-1.22,-1.23,-1.21
185.79,-0.38,0.83,-0.37,0.86,-0.86,-0.21,0.54,-1.24,-1.23,-1.21
187.65,-0.62,0.61,-0.54,0.71,-0.71,-0.11,0.59,-1.32,-1.24,-1.23
189.52,-0.80,0.44,-0.72,0.53,-0.53,-0.02,0.64,-1.33,-1.25,-1.24
191.42,-0.97,0.29,-0.92,0.35,-0.35,0.08,0.69,-1.31,-1.26,-1.26
193.33,-1.11,0.17,-1.12,0.16,-0.16,0.18,0.74,-1.27,-1.28,-1.28
195.27,-1.30,-0.00,-1.31,-0.01,0.01,0.28,0.79,-1.29,-1.30,-1.30
197.22,-1.52,-0.20,-1.49,-0.18,0.18,0.38,0.84,-1.34,-1.31,-1.32
199.19,-1.71,-0.37,-1.68,-0.34,0.34,0.49,0.89,-1.37,-1.33,-1.34
201.18,-1.87,-0.51,-1.86,-0.50,0.50,0.59,0.94,-1.36,-1.35,-1.36
203.19,-2.04,-0.66,-2.04,-0.66,0.66,0.70,0.99,-1.37,-1.38,-1.38
205.23,-2.24,-0.84,-2.21,-0.82,0.82,0.81,1.04,-1.42,-1.40,-1.40
207.28,-2.41,-1.00,-2.37,-0.96,0.96,0.92,1.09,-1.45,-1.42,-1.41
209.35,-2.54,-1.11,-2.53,-1.09,1.09,1.03,1.14,-1.45,-1.44,-1.43
211.44,-2.64,-1.18,-2.67,-1.22,1.22,1.14,1.19,-1.42,-1.45,-1.46
213.56,-2.75,-1.28,-2.81,-1.34,1.34,1.25,1.23,-1.41,-1.47,-1.47
215.69,-2.92,-1.44,-2.93,-1.45,1.45,1.35,1.28,-1.47,-1.48,-1.48
217.85,-3.10,-1.61,-3.05,-1.55,1.55,1.46,1.32,-1.54,-1.49,-1.49
220.03,-3.20,-1.70,-3.15,-1.65,1.65,1.56,1.36,-1.55,-1.50,-1.50
222.23,-3.28,-1.75,-3.24,-1.73,1.73,1.66,1.40,-1.55,-1.51,-1.53
224.45,-3.34,-1.82,-3.32,-1.81,1.81,1.76,1.44,-1.53,-1.51,-1.52
226.70,-3.37,-1.85,-3.39,-1.88,1.88,1.85,1.47,-1.49,-1.51,-1.52
228.96,-3.44,-1.93,-3.44,-1.94,1.94,1.94,1.50,-1.50,-1.51,-1.51
231.25,-3.49,-1.99,-3.49,-1.99,1.99,2.02,1.53,-1.50,-1.50,-1.50
233.57,-3.52,-2.03,-3.52,-2.04,2.04,2.09,1.55,-1.48,-1.49,-1.49
235.90,-3.54,-2.06,-3.54,-2.07,2.07,2.15,1.58,-1.47,-1.47,-1.48
238.26,-3.58,-2.11,-3.55,-2.09,2.09,2.21,1.59,-1.48,-1.45,-1.47
240.64,-3.57,-2.13,-3.55,-2.11,2.11,2.26,1.61,-1.46,-1.44,-1.44
243.05,-3.56,-2.15,-3.54,-2.13,2.13,2.29,1.62,-1.43,-1.41,-1.41
245.48,-3.54,-2.15,-3.54,-2.15,2.15,2.32,1.62,-1.39,-1.39,-1.39
247.93,-3.51,-2.15,-3.52,-2.16,2.16,2.34,1.62,-1.35,-1.37,-1.36
250.41,-3.49,-2.15,-3.50,-2.16,2.16,2.34,1.62,-1.33,-1.34,-1.34
252.92,-3.41,-2.10,-3.48,-2.16,2.16,2.34,1.61,-1.25,-1.32,-1.31
255.45,-3.43,-2.14,-3.45,-2.15,2.15,2.32,1.60,-1.28,-1.30,-1.29
258.00,-3.39,-2.12,-3.42,-2.15,2.15,2.29,1.59,-1.24,-1.27,-1.27
260.58,-3.36,-2.11,-3.38,-2.14,2.14,2.26,1.57,-1.22,-1.25,-1.25
263.19,-3.35,-2.13,-3.34,-2.12,2.12,2.21,1.55,-1.23,-1.22,-1.22
265.82,-3.36,-2.16,-3.29,-2.10,2.10,2.16,1.52,-1.26,-1.20,-1.20
268.48,-3.29,-2.11,-3.24,-2.07,2.07,2.10,1.49,-1.22,-1.17,-1.18
271.16,-3.19,-2.04,-3.19,-2.04,2.04,2.03,1.45,-1.15,-1.15,-1.15
273.87,-3.08,-1.95,-3.13,-2.01,2.01,1.96,1.42,-1.07,-1.12,-1.13
276.61,-3.08,-1.98,-3.07,-1.98,1.98,1.88,1.38,-1.10,-1.10,-1.10
279.38,-3.04,-1.97,-3.01,-1.94,1.94,1.79,1.33,-1.10,-1.07,-1.07
282.17,-2.96,-1.91,-2.94,-1.90,1.90,1.70,1.29,-1.06,-1.04,-1.05
284.99,-2.87,-1.86,-2.87,-1.85,1.85,1.61,1.24,-1.02,-1.01,-1.01
287.84,-2.72,-1.73,-2.78,-1.80,1.80,1.52,1.19,-0.92,-0.98,-0.99
290.72,-2.65,-1.69,-2.68,-1.73,1.73,1.43,1.13,-0.92,-0.95,-0.96
293.63,-2.53,-1.60,-2.57,-1.65,1.65,1.33,1.08,-0.88,-0.93,-0.93
296.57,-2.49,-1.59,-2.46,-1.56,1.56,1.23,1.02,-0.93,-0.90,-0.90
299.53,-2.44,-1.57,-2.34,-1.47,1.47,1.14,0.97,-0.97,-0.87,-0.87
302.53,-2.32,-1.47,-2.21,-1.37,1.37,1.04,0.91,-0.95,-0.84,-0.85
305.55,-2.17,-1.36,-2.09,-1.27,1.27,0.95,0.85,-0.89,-0.82,-0.81
308.61,-1.99,-1.20,-1.96,-1.17,1.17,0.86,0.79,-0.82,-0.79,-0.79
311.69,-1.85,-1.09,-1.84,-1.08,1.08,0.76,0.72,-0.77,-0.77,-0.76
314.81,-1.66,-0.92,-1.72,-0.98,0.98,0.68,0.66,-0.68,-0.75,-0.74
317.96,-1.50,-0.78,-1.60,-0.87,0.87,0.59,0.60,-0.63,-0.72,-0.72
321.14,-1.34,-0.63,-1.48,-0.77,0.77,0.50,0.54,-0.57,-0.71,-0.71
324.35,-1.26,-0.57,-1.35,-0.67,0.67,0.42,0.47,-0.59,-0.69,-0.69
327.59,-1.22,-0.54,-1.23,-0.56,0.56,0.34,0.41,-0.66,-0.67,-0.68
330.87,-1.12,-0.45,-1.11,-0.45,0.45,0.26,0.35,-0.67,-0.66,-0.67
334.18,-1.05,-0.40,-1.00,-0.36,0.36,0.19,0.28,-0.69,-0.65,-0.65
337.52,-1.03,-0.39,-0.91,-0.27,0.27,0.12,0.22,-0.76,-0.64,-0.64
340.90,-0.90,-0.27,-0.81,-0.18,0.18,0.05,0.15,-0.72,-0.63,-0.63
344.30,-0.72,-0.10,-0.71,-0.09,0.09,-0.02,0.09,-0.63,-0.62,-0.62
347.75,-0.55,0.07,-0.62,0.00,-0.00,-0.09,0.02,-0.55,-0.62,-0.62
351.23,-0.48,0.13,-0.52,0.10,-0.10,-0.15,-0.04,-0.57,-0.61,-0.61
354.74,-0.44,0.18,-0.43,0.18,-0.18,-0.21,-0.11,-0.62,-0.61,-0.62
358.28,-0.32,0.29,-0.33,0.27,-0.27,-0.26,-0.17,-0.59,-0.61,-0.61
361.87,-0.22,0.39,-0.23,0.38,-0.38,-0.32,-0.24,-0.60,-0.61,-0.61
365.49,-0.22,0.38,-0.12,0.48,-0.48,-0.37,-0.30,-0.70,-0.60,-0.60
369.14,-0.09,0.52,-0.03,0.58,-0.58,-0.42,-0.36,-0.66,-0.61,-0.61
372.83,0.11,0.72,0.06,0.67,-0.67,-0.47,-0.43,-0.56,-0.61,-0.61
376.56,0.24,0.86,0.14,0.75,-0.75,-0.51,-0.49,-0.51,-0.61,-0.62
380.33,0.23,0.84,0.21,0.83,-0.83,-0.56,-0.56,-0.59,-0.61,-0.61
384.13,0.27,0.88,0.28,0.89,-0.89,-0.60,-0.62,-0.62,-0.62,-0.61
387.97,0.35,0.97,0.34,0.96,-0.96,-0.64,-0.69,-0.61,-0.62,-0.62
391.85,0.33,0.96,0.40,1.03,-1.03,-0.67,-0.75,-0.70,-0.62,-0.63
395.77,0.55,1.17,0.46,1.09,-1.09,-0.71,-0.82,-0.54,-0.63,-0.62
399.73,0.62,1.25,0.51,1.15,-1.15,-0.74,-0.88,-0.53,-0.64,-0.63
403.72,0.51,1.14,0.56,1.21,-1.21,-0.77,-0.94,-0.69,-0.64,-0.63
407.76,0.55,1.20,0.61,1.26,-1.26,-0.80,-1.00,-0.71,-0.65,-0.65
411.84,0.63,1.28,0.65,1.30,-1.30,-0.83,-1.06,-0.66,-0.65,-0.65
415.96,0.64,1.29,0.68,1.32,-1.32,-0.86,-1.12,-0.68,-0.65,-0.65
420.12,0.71,1.36,0.71,1.36,-1.36,-0.88,-1.18,-0.65,-0.65,-0.65
424.32,0.76,1.41,0.76,1.40,-1.40,-0.91,-1.24,-0.63,-0.64,-0.65
428.56,0.83,1.47,0.80,1.43,-1.43,-0.93,-1.30,-0.60,-0.63,-0.64
432.85,0.87,1.50,0.84,1.46,-1.46,-0.95,-1.35,-0.59,-0.61,-0.63
437.18,0.90,1.52,0.89,1.49,-1.49,-0.97,-1.40,-0.59,-0.59,-0.62
441.55,0.93,1.51,0.94,1.51,-1.51,-0.99,-1.46,-0.58,-0.57,-0.58
445.96,0.98,1.53,1.01,1.54,-1.54,-1.00,-1.50,-0.56,-0.54,-0.55
450.42,1.02,1.54,1.08,1.58,-1.58,-1.02,-1.55,-0.56,-0.50,-0.52
454.93,1.02,1.49,1.15,1.61,-1.61,-1.03,-1.59,-0.58,-0.46,-0.47
459.48,1.14,1.57,1.20,1.62,-1.62,-1.05,-1.63,-0.48,-0.42,-0.43
464.07,1.29,1.67,1.26,1.63,-1.63,-1.06,-1.67,-0.34,-0.37,-0.38
468.71,1.36,1.68,1.32,1.64,-1.64,-1.07,-1.70,-0.28,-0.32,-0.32
473.40,1.42,1.70,1.37,1.64,-1.64,-1.08,-1.73,-0.22,-0.27,-0.28
478.13,1.48,1.70,1.42,1.64,-1.64,-1.09,-1.76,-0.16,-0.23,-0.22
482.91,1.52,1.70,1.46,1.65,-1.65,-1.10,-1.78,-0.12,-0.18,-0.18
487.74,1.56,1.70,1.52,1.66,-1.66,-1.11,-1.80,-0.10,-0.14,-0.14
