frequency,raw,error,smoothed,error_smoothed,equalization,parametric_eq,fixed_band_eq,equalized_raw,equalized_smoothed,target
20.00,-9.86,-11.37,-9.87,-11.40,11.40,10.93,3.58,1.54,1.53,1.51
20.20,-9.72,-11.32,-9.72,-11.34,11.34,10.93,3.68,1.61,1.61,1.60
20.40,-9.58,-11.26,-9.58,-11.27,11.27,10.91,3.78,1.69,1.69,1.68
20.61,-9.44,-11.19,-9.44,-11.20,11.20,10.89,3.89,1.75,1.76,1.75
20.81,-9.30,-11.14,-9.30,-11.12,11.12,10.85,3.99,1.82,1.83,1.84
21.02,-9.16,-11.08,-9.16,-11.05,11.05,10.81,4.10,1.89,1.89,1.92
21.23,-9.01,-10.99,-9.01,-10.97,10.97,10.76,4.21,1.96,1.96,1.98
21.44,-8.87,-10.91,-8.87,-10.89,10.89,10.71,4.33,2.02,2.02,2.04
21.66,-8.73,-10.82,-8.73,-10.80,10.80,10.64,4.45,2.07,2.08,2.09
21.87,-8.58,-10.72,-8.59,-10.72,10.72,10.57,4.57,2.14,2.13,2.14
22.09,-8.44,-10.63,-8.44,-10.63,10.63,10.49,4.70,2.19,2.19,2.19
22.31,-8.30,-10.54,-8.30,-10.54,10.54,10.40,4.83,2.24,2.24,2.24
22.54,-8.15,-10.43,-8.16,-10.44,10.44,10.31,4.96,2.28,2.28,2.28
22.76,-8.01,-10.33,-8.01,-10.34,10.34,10.22,5.10,2.32,2.32,2.32
22.99,-7.87,-10.22,-7.87,-10.23,10.23,10.12,5.23,2.36,2.36,2.35
23.22,-7.72,-10.11,-7.73,-10.13,10.13,10.01,5.38,2.40,2.40,2.39
23.45,-7.58,-10.01,-7.58,-10.02,10.02,9.90,5.52,2.44,2.44,2.43
23.69,-7.44,-9.91,-7.44,-9.91,9.91,9.79,5.67,2.47,2.47,2.47
23.92,-7.30,-9.81,-7.30,-9.81,9.81,9.67,5.83,2.51,2.51,2.51
24.16,-7.15,-9.71,-7.15,-9.70,9.70,9.56,5.98,2.55,2.54,2.56
24.40,-7.01,-9.60,-7.01,-9.59,9.59,9.43,6.14,2.58,2.58,2.59
24.65,-6.87,-9.48,-6.87,-9.48,9.48,9.31,6.30,2.61,2.61,2.61
24.89,-6.72,-9.36,-6.72,-9.37,9.37,9.19,6.47,2.65,2.65,2.64
25.14,-6.58,-9.26,-6.58,-9.26,9.26,9.06,6.63,2.68,2.68,2.68
25.39,-6.44,-9.15,-6.44,-9.15,9.15,8.94,6.80,2.71,2.71,2.71
25.65,-6.29,-9.04,-6.30,-9.04,9.04,8.81,6.97,2.75,2.75,2.75
25.91,-6.15,-8.92,-6.15,-8.93,8.93,8.69,7.14,2.77,2.78,2.77
26.16,-6.01,-8.81,-6.01,-8.82,8.82,8.56,7.31,2.81,2.81,2.80
26.43,-5.87,-8.71,-5.87,-8.70,8.70,8.43,7.48,2.83,2.84,2.84
26.69,-5.73,-8.60,-5.73,-8.59,8.59,8.31,7.65,2.86,2.87,2.87
26.96,-5.58,-8.48,-5.58,-8.48,8.48,8.18,7.82,2.90,2.90,2.90
27.23,-5.44,-8.37,-5.44,-8.37,8.37,8.06,7.99,2.93,2.93,2.93
27.50,-5.30,-8.26,-5.31,-8.26,8.26,7.94,8.15,2.96,2.96,2.96
27.77,-5.16,-8.14,-5.17,-8.16,8.16,7.81,8.30,3.00,2.99,2.98
28.05,-5.01,-8.03,-5.03,-8.05,8.05,7.69,8.45,3.04,3.02,3.02
28.33,-4.88,-7.92,-4.89,-7.94,7.94,7.57,8.60,3.06,3.05,3.04
28.62,-4.74,-7.81,-4.75,-7.83,7.83,7.45,8.73,3.08,3.08,3.07
28.90,-4.61,-7.72,-4.61,-7.72,7.72,7.33,8.86,3.11,3.11,3.11
29.19,-4.47,-7.60,-4.47,-7.60,7.60,7.22,8.97,3.13,3.14,3.13
29.48,-4.34,-7.52,-4.33,-7.49,7.49,7.10,9.08,3.15,3.16,3.18
29.78,-4.20,-7.39,-4.18,-7.37,7.37,6.99,9.17,3.17,3.19,3.19
30.08,-4.06,-7.28,-4.04,-7.25,7.25,6.88,9.24,3.19,3.22,3.22
30.38,-3.90,-7.15,-3.89,-7.14,7.14,6.77,9.30,3.23,3.25,3.25
30.68,-3.74,-7.02,-3.74,-7.01,7.01,6.66,9.34,3.27,3.27,3.28
30.99,-3.59,-6.89,-3.59,-6.89,6.89,6.56,9.37,3.30,3.30,3.30
31.30,-3.44,-6.76,-3.44,-6.77,6.77,6.45,9.37,3.33,3.33,3.32
31.61,-3.29,-6.64,-3.29,-6.64,6.64,6.35,9.37,3.35,3.35,3.35
31.93,-3.14,-6.51,-3.15,-6.52,6.52,6.25,9.34,3.38,3.37,3.37
32.24,-2.99,-6.38,-3.00,-6.40,6.40,6.15,9.30,3.41,3.40,3.39
32.57,-2.85,-6.27,-2.86,-6.28,6.28,6.05,9.24,3.42,3.42,3.42
32.89,-2.72,-6.16,-2.72,-6.16,6.16,5.96,9.17,3.44,3.44,3.44
33.22,-2.58,-6.04,-2.59,-6.05,6.05,5.86,9.08,3.46,3.46,3.46
33.55,-2.46,-5.94,-2.46,-5.94,5.94,5.77,8.98,3.48,3.47,3.48
33.89,-2.33,-5.82,-2.34,-5.83,5.83,5.68,8.87,3.50,3.49,3.49
34.23,-2.22,-5.73,-2.23,-5.73,5.73,5.59,8.75,3.51,3.51,3.51
34.57,-2.11,-5.63,-2.12,-5.64,5.64,5.51,8.62,3.52,3.52,3.52
34.92,-2.01,-5.54,-2.01,-5.54,5.54,5.42,8.48,3.53,3.53,3.53
35.27,-1.91,-5.46,-1.92,-5.46,5.46,5.34,8.34,3.54,3.54,3.55
35.62,-1.82,-5.36,-1.83,-5.37,5.37,5.26,8.19,3.55,3.55,3.54
35.97,-1.74,-5.29,-1.74,-5.30,5.30,5.18,8.04,3.56,3.55,3.55
36.33,-1.66,-5.23,-1.66,-5.22,5.22,5.11,7.88,3.56,3.56,3.57
36.70,-1.59,-5.15,-1.59,-5.15,5.15,5.03,7.73,3.56,3.56,3.56
37.06,-1.52,-5.08,-1.52,-5.08,5.08,4.96,7.57,3.56,3.56,3.56
37.43,-1.46,-5.02,-1.46,-5.02,5.02,4.89,7.41,3.56,3.56,3.56
37.81,-1.40,-4.96,-1.40,-4.97,4.97,4.82,7.25,3.56,3.56,3.56
38.19,-1.35,-4.91,-1.35,-4.91,4.91,4.75,7.10,3.56,3.56,3.56
38.57,-1.30,-4.86,-1.31,-4.86,4.86,4.68,6.94,3.56,3.56,3.56
38.95,-1.26,-4.82,-1.26,-4.81,4.81,4.62,6.79,3.55,3.55,3.56
39.34,-1.22,-4.76,-1.22,-4.77,4.77,4.56,6.64,3.55,3.55,3.54
39.74,-1.18,-4.72,-1.19,-4.73,4.73,4.50,6.49,3.55,3.54,3.54
40.14,-1.15,-4.68,-1.16,-4.70,4.70,4.44,6.35,3.54,3.54,3.53
40.54,-1.13,-4.66,-1.13,-4.66,4.66,4.38,6.21,3.53,3.53,3.53
40.94,-1.10,-4.62,-1.10,-4.63,4.63,4.33,6.07,3.52,3.52,3.52
41.35,-1.08,-4.60,-1.08,-4.59,4.59,4.28,5.94,3.51,3.52,3.52
41.76,-1.05,-4.56,-1.05,-4.56,4.56,4.22,5.81,3.51,3.51,3.51
42.18,-1.03,-4.53,-1.03,-4.52,4.52,4.18,5.68,3.49,3.50,3.50
42.60,-1.01,-4.50,-1.01,-4.49,4.49,4.13,5.56,3.48,3.49,3.49
43.03,-0.99,-4.48,-0.98,-4.46,4.46,4.08,5.44,3.47,3.48,3.49
43.46,-0.96,-4.44,-0.96,-4.43,4.43,4.04,5.32,3.47,3.47,3.48
43.90,-0.94,-4.40,-0.94,-4.40,4.40,4.00,5.21,3.46,3.46,3.46
44.33,-0.91,-4.35,-0.92,-4.37,4.37,3.96,5.11,3.45,3.45,3.44
44.78,-0.88,-4.31,-0.89,-4.33,4.33,3.92,5.00,3.45,3.44,3.43
45.23,-0.86,-4.28,-0.87,-4.29,4.29,3.88,4.90,3.43,3.43,3.42
45.68,-0.84,-4.25,-0.84,-4.26,4.26,3.85,4.81,3.41,3.42,3.41
46.13,-0.82,-4.22,-0.81,-4.22,4.22,3.81,4.71,3.40,3.41,3.40
46.60,-0.79,-4.19,-0.78,-4.18,4.18,3.78,4.62,3.39,3.40,3.40
47.06,-0.77,-4.16,-0.75,-4.14,4.14,3.75,4.54,3.37,3.39,3.39
47.53,-0.73,-4.11,-0.72,-4.10,4.10,3.72,4.46,3.37,3.38,3.38
48.01,-0.69,-4.07,-0.69,-4.06,4.06,3.70,4.38,3.36,3.37,3.38
48.49,-0.65,-4.02,-0.65,-4.02,4.02,3.68,4.30,3.36,3.36,3.37
48.97,-0.61,-3.97,-0.62,-3.98,3.98,3.65,4.23,3.36,3.36,3.36
49.46,-0.58,-3.92,-0.59,-3.94,3.94,3.63,4.16,3.36,3.35,3.34
49.96,-0.54,-3.87,-0.55,-3.90,3.90,3.62,4.09,3.36,3.35,3.33
50.46,-0.51,-3.85,-0.51,-3.86,3.86,3.60,4.03,3.35,3.34,3.34
50.96,-0.48,-3.82,-0.48,-3.82,3.82,3.58,3.97,3.34,3.34,3.34
51.47,-0.44,-3.77,-0.45,-3.78,3.78,3.57,3.91,3.34,3.34,3.33
51.99,-0.40,-3.73,-0.41,-3.75,3.75,3.56,3.85,3.34,3.33,3.33
52.51,-0.37,-3.70,-0.38,-3.71,3.71,3.55,3.80,3.34,3.33,3.33
53.03,-0.35,-3.68,-0.35,-3.67,3.67,3.54,3.74,3.32,3.32,3.33
53.56,-0.32,-3.65,-0.32,-3.64,3.64,3.54,3.69,3.32,3.32,3.33
54.10,-0.29,-3.61,-0.29,-3.60,3.60,3.53,3.64,3.31,3.31,3.32
54.64,-0.26,-3.57,-0.26,-3.57,3.57,3.53,3.60,3.30,3.30,3.31
55.18,-0.24,-3.54,-0.23,-3.53,3.53,3.53,3.55,3.29,3.30,3.30
55.74,-0.21,-3.49,-0.20,-3.49,3.49,3.53,3.50,3.28,3.29,3.28
56.29,-0.18,-3.46,-0.17,-3.45,3.45,3.53,3.46,3.27,3.28,3.28
56.86,-0.15,-3.41,-0.14,-3.41,3.41,3.53,3.41,3.25,3.26,3.26
57.42,-0.11,-3.35,-0.12,-3.36,3.36,3.53,3.37,3.25,3.25,3.24
58.00,-0.08,-3.31,-0.09,-3.32,3.32,3.53,3.33,3.23,3.23,3.23
58.58,-0.05,-3.26,-0.06,-3.27,3.27,3.53,3.29,3.22,3.21,3.21
59.16,-0.02,-3.22,-0.03,-3.22,3.22,3.54,3.24,3.20,3.19,3.20
59.76,-0.00,-3.18,-0.00,-3.17,3.17,3.54,3.20,3.17,3.16,3.18
60.35,0.02,-3.13,0.02,-3.12,3.12,3.54,3.16,3.14,3.14,3.15
60.96,0.05,-3.09,0.05,-3.07,3.07,3.54,3.12,3.12,3.12,3.14
61.57,0.07,-3.02,0.07,-3.02,3.02,3.54,3.07,3.09,3.09,3.09
62.18,0.10,-2.96,0.09,-2.98,2.98,3.54,3.03,3.07,3.07,3.06
62.80,0.12,-2.93,0.12,-2.93,2.93,3.54,2.98,3.05,3.05,3.05
63.43,0.14,-2.87,0.14,-2.89,2.89,3.54,2.94,3.03,3.03,3.01
64.07,0.16,-2.83,0.15,-2.85,2.85,3.53,2.89,3.01,3.00,2.99
64.71,0.17,-2.81,0.17,-2.81,2.81,3.52,2.85,2.98,2.99,2.98
65.35,0.19,-2.77,0.19,-2.78,2.78,3.51,2.80,2.96,2.97,2.96
66.01,0.20,-2.75,0.21,-2.75,2.75,3.50,2.75,2.94,2.95,2.95
66.67,0.22,-2.72,0.22,-2.72,2.72,3.48,2.71,2.94,2.94,2.94
67.33,0.24,-2.69,0.24,-2.69,2.69,3.46,2.66,2.93,2.93,2.93
68.01,0.25,-2.67,0.24,-2.68,2.68,3.44,2.61,2.92,2.92,2.92
68.69,0.26,-2.65,0.25,-2.66,2.66,3.41,2.56,2.92,2.91,2.91
69.37,0.27,-2.64,0.26,-2.65,2.65,3.38,2.52,2.91,2.91,2.91
70.07,0.28,-2.62,0.26,-2.63,2.63,3.35,2.47,2.91,2.90,2.90
70.77,0.28,-2.62,0.26,-2.62,2.62,3.31,2.42,2.90,2.89,2.90
71.48,0.28,-2.61,0.27,-2.61,2.61,3.28,2.37,2.89,2.88,2.89
72.19,0.27,-2.60,0.27,-2.60,2.60,3.24,2.32,2.87,2.87,2.87
72.91,0.26,-2.61,0.26,-2.59,2.59,3.19,2.28,2.85,2.86,2.87
73.64,0.25,-2.60,0.26,-2.58,2.58,3.15,2.23,2.83,2.85,2.85
74.38,0.25,-2.59,0.26,-2.58,2.58,3.10,2.18,2.82,2.83,2.84
75.12,0.25,-2.57,0.26,-2.57,2.57,3.05,2.14,2.81,2.82,2.82
75.87,0.25,-2.56,0.25,-2.56,2.56,3.00,2.09,2.80,2.81,2.81
76.63,0.25,-2.55,0.25,-2.55,2.55,2.95,2.05,2.79,2.80,2.80
77.40,0.25,-2.53,0.25,-2.54,2.54,2.90,2.00,2.78,2.78,2.78
78.17,0.25,-2.51,0.25,-2.52,2.52,2.85,1.96,2.77,2.77,2.76
78.95,0.25,-2.51,0.25,-2.51,2.51,2.79,1.92,2.76,2.76,2.76
79.74,0.25,-2.50,0.25,-2.51,2.51,2.74,1.88,2.75,2.75,2.75
80.54,0.25,-2.49,0.25,-2.50,2.50,2.69,1.84,2.74,2.74,2.74
81.35,0.25,-2.48,0.25,-2.49,2.49,2.63,1.80,2.74,2.74,2.73
82.16,0.25,-2.47,0.25,-2.48,2.48,2.58,1.76,2.73,2.73,2.72
82.98,0.25,-2.48,0.25,-2.48,2.48,2.53,1.72,2.73,2.73,2.73
83.81,0.25,-2.47,0.25,-2.48,2.48,2.47,1.69,2.73,2.73,2.72
84.65,0.25,-2.46,0.25,-2.47,2.47,2.42,1.65,2.72,2.72,2.71
85.50,0.25,-2.47,0.25,-2.47,2.47,2.37,1.62,2.72,2.72,2.72
86.35,0.25,-2.47,0.25,-2.47,2.47,2.32,1.59,2.72,2.72,2.72
87.22,0.25,-2.46,0.25,-2.46,2.46,2.26,1.56,2.71,2.71,2.71
88.09,0.25,-2.46,0.25,-2.46,2.46,2.21,1.53,2.70,2.70,2.71
88.97,0.25,-2.45,0.25,-2.45,2.45,2.16,1.50,2.69,2.69,2.70
89.86,0.25,-2.44,0.25,-2.43,2.43,2.11,1.47,2.68,2.68,2.69
90.76,0.25,-2.42,0.25,-2.42,2.42,2.06,1.44,2.67,2.67,2.67
91.66,0.25,-2.40,0.25,-2.40,2.40,2.02,1.42,2.65,2.65,2.65
92.58,0.25,-2.37,0.25,-2.37,2.37,1.97,1.39,2.62,2.62,2.62
93.51,0.25,-2.35,0.25,-2.34,2.34,1.92,1.37,2.59,2.59,2.60
94.44,0.25,-2.32,0.25,-2.31,2.31,1.87,1.35,2.56,2.56,2.57
95.39,0.25,-2.28,0.25,-2.27,2.27,1.83,1.32,2.52,2.52,2.53
96.34,0.25,-2.24,0.25,-2.23,2.23,1.78,1.30,2.48,2.48,2.49
97.30,0.25,-2.18,0.25,-2.18,2.18,1.74,1.28,2.43,2.43,2.43
98.28,0.25,-2.13,0.25,-2.13,2.13,1.69,1.26,2.38,2.38,2.38
99.26,0.25,-2.08,0.25,-2.08,2.08,1.64,1.24,2.33,2.33,2.33
100.25,0.25,-2.02,0.25,-2.02,2.02,1.60,1.23,2.27,2.27,2.27
101.25,0.25,-1.96,0.24,-1.97,1.97,1.55,1.21,2.22,2.21,2.21
102.27,0.25,-1.90,0.24,-1.92,1.92,1.51,1.19,2.16,2.15,2.15
103.29,0.25,-1.84,0.24,-1.86,1.86,1.46,1.17,2.11,2.10,2.09
104.32,0.25,-1.79,0.24,-1.80,1.80,1.42,1.16,2.05,2.04,2.04
105.37,0.25,-1.72,0.24,-1.74,1.74,1.38,1.14,1.99,1.98,1.97
106.42,0.25,-1.66,0.24,-1.68,1.68,1.33,1.12,1.92,1.92,1.91
107.48,0.24,-1.62,0.24,-1.61,1.61,1.29,1.11,1.85,1.86,1.86
108.56,0.23,-1.57,0.25,-1.55,1.55,1.24,1.09,1.78,1.80,1.80
109.64,0.24,-1.50,0.26,-1.49,1.49,1.20,1.08,1.72,1.74,1.74
110.74,0.25,-1.44,0.27,-1.42,1.42,1.15,1.06,1.67,1.69,1.69
111.85,0.28,-1.37,0.28,-1.35,1.35,1.11,1.04,1.63,1.64,1.65
112.97,0.31,-1.27,0.30,-1.28,1.28,1.06,1.03,1.59,1.59,1.58
114.10,0.34,-1.20,0.33,-1.21,1.21,1.01,1.01,1.55,1.54,1.54
115.24,0.36,-1.13,0.36,-1.14,1.14,0.97,0.99,1.50,1.49,1.49
116.39,0.38,-1.06,0.39,-1.06,1.06,0.92,0.97,1.44,1.45,1.44
117.55,0.41,-0.99,0.42,-0.99,0.99,0.87,0.95,1.39,1.41,1.40
118.73,0.45,-0.91,0.46,-0.91,0.91,0.83,0.93,1.36,1.37,1.36
119.92,0.50,-0.83,0.50,-0.83,0.83,0.78,0.91,1.33,1.33,1.33
121.12,0.55,-0.75,0.55,-0.75,0.75,0.73,0.89,1.30,1.30,1.30
122.33,0.58,-0.69,0.59,-0.68,0.68,0.68,0.86,1.26,1.27,1.27
123.55,0.63,-0.61,0.63,-0.61,0.61,0.64,0.84,1.24,1.24,1.24
124.79,0.68,-0.53,0.67,-0.54,0.54,0.59,0.81,1.22,1.21,1.21
126.03,0.73,-0.46,0.70,-0.48,0.48,0.54,0.79,1.20,1.18,1.19
127.29,0.76,-0.40,0.74,-0.41,0.41,0.49,0.76,1.17,1.15,1.16
128.57,0.78,-0.34,0.77,-0.35,0.35,0.44,0.73,1.13,1.12,1.12
129.85,0.82,-0.28,0.80,-0.30,0.30,0.39,0.70,1.11,1.10,1.10
131.15,0.84,-0.23,0.83,-0.24,0.24,0.33,0.67,1.08,1.07,1.07
132.46,0.85,-0.18,0.85,-0.19,0.19,0.28,0.63,1.04,1.04,1.03
133.79,0.88,-0.13,0.87,-0.14,0.14,0.23,0.60,1.02,1.01,1.01
135.12,0.89,-0.09,0.88,-0.09,0.09,0.18,0.56,0.98,0.98,0.98
136.48,0.90,-0.05,0.90,-0.04,0.04,0.13,0.53,0.94,0.94,0.95
137.84,0.92,-0.00,0.92,0.01,-0.01,0.07,0.49,0.91,0.91,0.92
139.22,0.93,0.06,0.94,0.06,-0.06,0.02,0.45,0.87,0.88,0.87
140.61,0.94,0.10,0.96,0.11,-0.11,-0.03,0.41,0.83,0.85,0.84
142.02,0.96,0.14,0.98,0.17,-0.17,-0.09,0.37,0.79,0.81,0.82
143.44,0.98,0.20,1.00,0.22,-0.22,-0.14,0.33,0.75,0.78,0.78
144.87,1.02,0.28,1.03,0.28,-0.28,-0.19,0.28,0.73,0.74,0.74
146.32,1.04,0.34,1.05,0.35,-0.35,-0.25,0.24,0.69,0.71,0.70
147.78,1.08,0.41,1.08,0.41,-0.41,-0.30,0.20,0.66,0.67,0.67
149.26,1.11,0.47,1.11,0.48,-0.48,-0.36,0.15,0.63,0.63,0.64
150.75,1.14,0.55,1.13,0.54,-0.54,-0.41,0.11,0.59,0.59,0.59
152.26,1.17,0.62,1.16,0.61,-0.61,-0.46,0.06,0.56,0.55,0.55
153.78,1.20,0.68,1.18,0.67,-0.67,-0.52,0.01,0.53,0.51,0.52
155.32,1.22,0.75,1.20,0.73,-0.73,-0.57,-0.04,0.49,0.47,0.47
156.88,1.24,0.80,1.21,0.79,-0.79,-0.63,-0.08,0.45,0.43,0.44
158.44,1.25,0.87,1.23,0.84,-0.84,-0.68,-0.13,0.40,0.38,0.38
160.03,1.25,0.91,1.23,0.89,-0.89,-0.73,-0.18,0.35,0.34,0.34
161.63,1.24,0.95,1.24,0.94,-0.94,-0.79,-0.23,0.29,0.30,0.29
163.24,1.23,0.98,1.24,0.99,-0.99,-0.84,-0.28,0.24,0.25,0.25
164.88,1.23,1.02,1.24,1.03,-1.03,-0.89,-0.33,0.20,0.21,0.21
166.53,1.23,1.06,1.24,1.07,-1.07,-0.94,-0.39,0.16,0.17,0.17
168.19,1.23,1.10,1.23,1.10,-1.10,-0.99,-0.44,0.12,0.13,0.13
169.87,1.23,1.14,1.23,1.14,-1.14,-1.04,-0.49,0.09,0.09,0.09
171.57,1.23,1.17,1.22,1.17,-1.17,-1.09,-0.55,0.06,0.05,0.06
173.29,1.23,1.21,1.21,1.20,-1.20,-1.14,-0.60,0.03,0.02,0.02
175.02,1.23,1.25,1.21,1.23,-1.23,-1.19,-0.66,0.00,-0.02,-0.02
176.77,1.22,1.27,1.21,1.26,-1.26,-1.24,-0.71,-0.04,-0.05,-0.05
178.54,1.21,1.29,1.21,1.29,-1.29,-1.29,-0.77,-0.08,-0.07,-0.08
180.32,1.20,1.31,1.22,1.32,-1.32,-1.33,-0.83,-0.12,-0.10,-0.11
182.13,1.21,1.34,1.23,1.35,-1.35,-1.38,-0.88,-0.14,-0.13,-0.13
183.95,1.22,1.37,1.24,1.39,-1.39,-1.42,-0.94,-0.17,-0.15,-0.15
185.79,1.24,1.41,1.25,1.42,-1.42,-1.47,-1.00,-0.18,-0.17,-0.17
187.65,1.26,1.45,1.27,1.46,-1.46,-1.51,-1.06,-0.20,-0.19,-0.19
189.52,1.28,1.48,1.29,1.50,-1.50,-1.55,-1.12,-0.22,-0.21,-0.20
191.42,1.31,1.53,1.32,1.54,-1.54,-1.59,-1.18,-0.23,-0.22,-0.22
193.33,1.34,1.57,1.34,1.58,-1.58,-1.63,-1.24,-0.24,-0.24,-0.23
195.27,1.38,1.62,1.38,1.62,-1.62,-1.67,-1.30,-0.25,-0.25,-0.24
197.22,1.41,1.67,1.41,1.67,-1.67,-1.70,-1.36,-0.26,-0.26,-0.26
199.19,1.44,1.72,1.44,1.71,-1.71,-1.74,-1.42,-0.27,-0.27,-0.28
201.18,1.47,1.76,1.46,1.75,-1.75,-1.77,-1.49,-0.28,-0.29,-0.29
203.19,1.50,1.79,1.49,1.78,-1.78,-1.80,-1.55,-0.29,-0.30,-0.29
205.23,1.53,1.84,1.51,1.82,-1.82,-1.84,-1.61,-0.29,-0.31,-0.31
207.28,1.55,1.86,1.53,1.85,-1.85,-1.86,-1.67,-0.30,-0.32,-0.31
209.35,1.57,1.90,1.54,1.87,-1.87,-1.89,-1.73,-0.30,-0.33,-0.33
211.44,1.57,1.92,1.55,1.89,-1.89,-1.92,-1.79,-0.33,-0.34,-0.35
213.56,1.57,1.93,1.56,1.91,-1.91,-1.94,-1.85,-0.35,-0.36,-0.36
215.69,1.56,1.92,1.56,1.93,-1.93,-1.97,-1.90,-0.37,-0.37,-0.36
217.85,1.55,1.93,1.56,1.94,-1.94,-1.99,-1.96,-0.39,-0.38,-0.38
220.03,1.55,1.94,1.56,1.95,-1.95,-2.01,-2.01,-0.41,-0.39,-0.39
222.23,1.55,1.96,1.56,1.96,-1.96,-2.03,-2.07,-0.42,-0.40,-0.41
224.45,1.55,1.96,1.56,1.98,-1.98,-2.05,-2.12,-0.43,-0.42,-0.41
226.70,1.55,1.98,1.56,1.99,-1.99,-2.06,-2.16,-0.44,-0.43,-0.43
228.96,1.55,1.99,1.55,2.00,-2.00,-2.08,-2.21,-0.45,-0.45,-0.44
231.25,1.55,2.00,1.55,2.01,-2.01,-2.09,-2.25,-0.46,-0.46,-0.45
233.57,1.55,2.02,1.54,2.02,-2.02,-2.10,-2.29,-0.47,-0.48,-0.47
235.90,1.55,2.03,1.54,2.03,-2.03,-2.11,-2.32,-0.48,-0.49,-0.48
238.26,1.55,2.05,1.54,2.04,-2.04,-2.12,-2.36,-0.49,-0.50,-0.50
240.64,1.55,2.07,1.53,2.05,-2.05,-2.13,-2.38,-0.50,-0.52,-0.52
243.05,1.55,2.08,1.53,2.06,-2.06,-2.13,-2.41,-0.51,-0.53,-0.53
245.48,1.54,2.08,1.53,2.07,-2.07,-2.14,-2.43,-0.53,-0.53,-0.54
247.93,1.54,2.09,1.53,2.07,-2.07,-2.14,-2.44,-0.54,-0.54,-0.55
250.41,1.53,2.09,1.54,2.08,-2.08,-2.14,-2.46,-0.56,-0.55,-0.56
252.92,1.53,2.08,1.54,2.09,-2.09,-2.15,-2.46,-0.56,-0.55,-0.55
255.45,1.54,2.09,1.56,2.10,-2.10,-2.14,-2.47,-0.56,-0.55,-0.55
258.00,1.55,2.09,1.57,2.11,-2.11,-2.14,-2.47,-0.57,-0.54,-0.54
260.58,1.57,2.11,1.59,2.13,-2.13,-2.14,-2.46,-0.56,-0.54,-0.54
263.19,1.59,2.12,1.61,2.14,-2.14,-2.14,-2.46,-0.55,-0.53,-0.53
265.82,1.63,2.15,1.64,2.15,-2.15,-2.13,-2.44,-0.52,-0.52,-0.52
268.48,1.65,2.15,1.66,2.16,-2.16,-2.12,-2.43,-0.52,-0.50,-0.50
271.16,1.69,2.17,1.69,2.18,-2.18,-2.12,-2.41,-0.49,-0.49,-0.48
273.87,1.74,2.21,1.72,2.19,-2.19,-2.11,-2.39,-0.45,-0.47,-0.47
276.61,1.77,2.21,1.75,2.20,-2.20,-2.10,-2.37,-0.44,-0.46,-0.44
279.38,1.80,2.24,1.77,2.22,-2.22,-2.09,-2.34,-0.42,-0.44,-0.44
282.17,1.81,2.23,1.80,2.22,-2.22,-2.08,-2.31,-0.42,-0.43,-0.42
284.99,1.83,2.24,1.82,2.23,-2.23,-2.06,-2.28,-0.40,-0.41,-0.41
287.84,1.85,2.24,1.84,2.23,-2.23,-2.05,-2.25,-0.38,-0.39,-0.39
290.72,1.85,2.22,1.85,2.22,-2.22,-2.04,-2.22,-0.37,-0.37,-0.37
293.63,1.86,2.22,1.86,2.21,-2.21,-2.02,-2.18,-0.35,-0.35,-0.36
296.57,1.86,2.19,1.86,2.19,-2.19,-2.01,-2.15,-0.34,-0.34,-0.33
299.53,1.86,2.18,1.86,2.18,-2.18,-1.99,-2.11,-0.32,-0.32,-0.32
302.53,1.86,2.17,1.85,2.15,-2.15,-1.98,-2.08,-0.29,-0.30,-0.31
305.55,1.85,2.13,1.85,2.12,-2.12,-1.96,-2.04,-0.27,-0.28,-0.28
308.61,1.84,2.10,1.84,2.09,-2.09,-1.94,-2.01,-0.25,-0.25,-0.26
311.69,1.82,2.05,1.82,2.05,-2.05,-1.92,-1.97,-0.24,-0.23,-0.23
314.81,1.81,2.00,1.81,2.02,-2.02,-1.91,-1.94,-0.21,-0.21,-0.19
317.96,1.80,1.98,1.79,1.97,-1.97,-1.89,-1.90,-0.18,-0.19,-0.18
321.14,1.77,1.93,1.76,1.93,-1.93,-1.87,-1.87,-0.16,-0.16,-0.16
324.35,1.74,1.88,1.74,1.88,-1.88,-1.85,-1.84,-0.14,-0.14,-0.14
327.59,1.72,1.84,1.71,1.83,-1.83,-1.83,-1.80,-0.11,-0.12,-0.12
330.87,1.70,1.80,1.69,1.78,-1.78,-1.81,-1.77,-0.08,-0.09,-0.10
334.18,1.68,1.75,1.66,1.73,-1.73,-1.79,-1.74,-0.05,-0.07,-0.07
337.52,1.64,1.69,1.64,1.68,-1.68,-1.77,-1.72,-0.05,-0.05,-0.05
340.90,1.61,1.64,1.62,1.64,-1.64,-1.75,-1.69,-0.03,-0.02,-0.03
344.30,1.58,1.58,1.60,1.60,-1.60,-1.73,-1.66,-0.02,-0.00,-0.00
347.75,1.56,1.54,1.58,1.56,-1.56,-1.70,-1.64,0.00,0.02,0.02
351.23,1.54,1.49,1.56,1.52,-1.52,-1.68,-1.61,0.02,0.05,0.05
354.74,1.53,1.45,1.55,1.48,-1.48,-1.66,-1.59,0.05,0.07,0.08
358.28,1.53,1.44,1.54,1.45,-1.45,-1.64,-1.57,0.08,0.10,0.09
361.87,1.54,1.42,1.54,1.42,-1.42,-1.62,-1.55,0.12,0.12,0.12
365.49,1.55,1.40,1.54,1.39,-1.39,-1.60,-1.53,0.16,0.14,0.15
369.14,1.55,1.39,1.53,1.37,-1.37,-1.57,-1.52,0.18,0.17,0.16
372.83,1.55,1.36,1.54,1.34,-1.34,-1.55,-1.50,0.20,0.19,0.19
376.56,1.55,1.34,1.54,1.33,-1.33,-1.53,-1.49,0.22,0.21,0.21
380.33,1.55,1.31,1.54,1.31,-1.31,-1.51,-1.47,0.24,0.23,0.24
384.13,1.55,1.30,1.54,1.29,-1.29,-1.49,-1.46,0.26,0.25,0.25
387.97,1.55,1.28,1.55,1.28,-1.28,-1.47,-1.45,0.27,0.27,0.27
391.85,1.55,1.27,1.55,1.26,-1.26,-1.44,-1.44,0.28,0.28,0.28
395.77,1.55,1.24,1.55,1.25,-1.25,-1.42,-1.43,0.30,0.30,0.31
399.73,1.55,1.23,1.55,1.24,-1.24,-1.40,-1.42,0.31,0.31,0.32
403.72,1.55,1.23,1.55,1.23,-1.23,-1.38,-1.41,0.32,0.32,0.32
407.76,1.55,1.22,1.55,1.22,-1.22,-1.36,-1.41,0.32,0.32,0.33
411.84,1.55,1.21,1.55,1.22,-1.22,-1.34,-1.40,0.33,0.33,0.34
415.96,1.55,1.22,1.55,1.22,-1.22,-1.32,-1.40,0.33,0.33,0.33
420.12,1.55,1.22,1.55,1.22,-1.22,-1.30,-1.39,0.33,0.33,0.33
424.32,1.55,1.22,1.55,1.22,-1.22,-1.27,-1.39,0.33,0.33,0.33
428.56,1.55,1.22,1.55,1.22,-1.22,-1.25,-1.38,0.32,0.33,0.33
432.85,1.55,1.23,1.56,1.23,-1.23,-1.23,-1.38,0.32,0.33,0.32
437.18,1.55,1.23,1.56,1.24,-1.24,-1.21,-1.37,0.31,0.32,0.32
441.55,1.55,1.23,1.56,1.24,-1.24,-1.19,-1.37,0.30,0.32,0.32
445.96,1.55,1.24,1.56,1.25,-1.25,-1.17,-1.36,0.30,0.31,0.31
450.42,1.56,1.25,1.56,1.25,-1.25,-1.15,-1.36,0.31,0.31,0.31
454.93,1.57,1.26,1.56,1.25,-1.25,-1.13,-1.35,0.32,0.31,0.31
459.48,1.57,1.27,1.56,1.25,-1.25,-1.11,-1.34,0.32,0.31,0.30
464.07,1.57,1.26,1.55,1.24,-1.24,-1.10,-1.34,0.32,0.31,0.31
468.71,1.56,1.25,1.54,1.23,-1.23,-1.08,-1.33,0.32,0.30,0.31
473.40,1.54,1.24,1.52,1.22,-1.22,-1.06,-1.32,0.32,0.30,0.30
478.13,1.52,1.21,1.50,1.20,-1.20,-1.04,-1.31,0.32,0.31,0.31
482.91,1.50,1.20,1.48,1.18,-1.18,-1.02,-1.30,0.32,0.31,0.30
487.74,1.47,1.16,1.46,1.15,-1.15,-1.00,-1.28,0.32,0.31,0.31
492.62,1.43,1.11,1.43,1.12,-1.12,-0.99,-1.27,0.31,0.31,0.32
497.55,1.40,1.09,1.40,1.08,-1.08,-0.97,-1.25,0.32,0.31,0.31
502.52,1.37,1.05,1.36,1.05,-1.05,-0.95,-1.24,0.32,0.32,0.32
507.55,1.33,1.01,1.33,1.01,-1.01,-0.93,-1.22,0.32,0.32,0.32
512.62,1.30,0.97,1.31,0.97,-0.97,-0.92,-1.20,0.32,0.33,0.33
517.75,1.27,0.93,1.28,0.94,-0.94,-0.90,-1.17,0.33,0.34,0.34
522.93,1.24,0.89,1.26,0.91,-0.91,-0.88,-1.15,0.33,0.35,0.35
