frequency,raw,error,smoothed,error_smoothed,equalization,parametric_eq,fixed_band_eq,equalized_raw,equalized_smoothed,target
20.00,-9.56,-12.23,-9.63,-12.32,12.32,11.28,4.44,2.76,2.69,2.67
20.20,-9.50,-12.20,-9.52,-12.23,12.23,11.41,4.56,2.73,2.71,2.70
20.40,-9.44,-12.17,-9.41,-12.15,12.15,11.53,4.68,2.71,2.73,2.73
20.61,-9.33,-12.08,-9.31,-12.06,12.06,11.65,4.80,2.73,2.75,2.75
20.81,-9.24,-12.02,-9.21,-11.98,11.98,11.74,4.92,2.74,2.77,2.78
21.02,-9.14,-11.95,-9.11,-11.89,11.89,11.83,5.05,2.75,2.79,2.81
21.23,-9.03,-11.85,-9.01,-11.81,11.81,11.90,5.18,2.78,2.80,2.82
21.44,-8.94,-11.77,-8.92,-11.73,11.73,11.96,5.32,2.79,2.81,2.83
21.66,-8.83,-11.67,-8.82,-11.64,11.64,12.00,5.46,2.81,2.82,2.84
21.87,-8.74,-11.57,-8.73,-11.56,11.56,12.03,5.60,2.83,2.83,2.84
22.09,-8.64,-11.48,-8.64,-11.48,11.48,12.05,5.75,2.84,2.84,2.85
22.31,-8.54,-11.38,-8.56,-11.40,11.40,12.04,5.90,2.86,2.84,2.85
22.54,-8.47,-11.32,-8.47,-11.31,11.31,12.03,6.06,2.84,2.85,2.84
22.76,-8.36,-11.20,-8.38,-11.23,11.23,11.99,6.21,2.87,2.85,2.84
22.99,-8.30,-11.13,-8.30,-11.15,11.15,11.95,6.38,2.85,2.84,2.83
23.22,-8.21,-11.04,-8.23,-11.07,11.07,11.89,6.54,2.86,2.84,2.83
23.45,-8.15,-10.98,-8.16,-11.00,11.00,11.82,6.71,2.85,2.84,2.83
23.69,-8.07,-10.90,-8.09,-10.93,10.93,11.73,6.89,2.86,2.84,2.83
23.92,-8.01,-10.84,-8.03,-10.86,10.86,11.64,7.07,2.85,2.84,2.83
24.16,-7.96,-10.80,-7.96,-10.80,10.80,11.53,7.25,2.84,2.83,2.84
24.40,-7.89,-10.73,-7.90,-10.73,10.73,11.42,7.43,2.84,2.83,2.84
24.65,-7.83,-10.66,-7.84,-10.66,10.66,11.30,7.62,2.83,2.83,2.83
24.89,-7.78,-10.61,-7.77,-10.59,10.59,11.17,7.82,2.82,2.83,2.83
25.14,-7.71,-10.53,-7.70,-10.52,10.52,11.03,8.01,2.81,2.82,2.83
25.39,-7.65,-10.47,-7.62,-10.44,10.44,10.90,8.21,2.80,2.82,2.82
25.65,-7.57,-10.39,-7.54,-10.36,10.36,10.75,8.41,2.79,2.82,2.82
25.91,-7.47,-10.28,-7.45,-10.27,10.27,10.61,8.61,2.80,2.82,2.81
26.16,-7.37,-10.18,-7.35,-10.17,10.17,10.46,8.81,2.80,2.82,2.81
26.43,-7.26,-10.07,-7.25,-10.06,10.06,10.31,9.02,2.80,2.81,2.81
26.69,-7.16,-9.97,-7.13,-9.94,9.94,10.16,9.22,2.78,2.81,2.81
26.96,-7.03,-9.84,-7.02,-9.82,9.82,10.01,9.42,2.79,2.80,2.81
27.23,-6.91,-9.72,-6.89,-9.70,9.70,9.86,9.62,2.79,2.80,2.81
27.50,-6.77,-9.58,-6.77,-9.57,9.57,9.71,9.81,2.80,2.80,2.80
27.77,-6.65,-9.44,-6.65,-9.44,9.44,9.57,10.00,2.79,2.79,2.79
28.05,-6.52,-9.31,-6.53,-9.32,9.32,9.42,10.18,2.80,2.79,2.79
28.33,-6.39,-9.17,-6.41,-9.19,9.19,9.28,10.36,2.80,2.79,2.78
28.62,-6.25,-9.03,-6.29,-9.07,9.07,9.14,10.52,2.82,2.78,2.78
28.90,-6.15,-8.93,-6.19,-8.96,8.96,9.00,10.68,2.81,2.78,2.78
29.19,-6.06,-8.82,-6.08,-8.85,8.85,8.86,10.82,2.79,2.77,2.76
29.48,-5.95,-8.72,-5.98,-8.75,8.75,8.73,10.94,2.80,2.77,2.77
29.78,-5.89,-8.65,-5.89,-8.65,8.65,8.60,11.05,2.76,2.76,2.76
30.08,-5.80,-8.56,-5.81,-8.56,8.56,8.48,11.14,2.76,2.75,2.76
30.38,-5.74,-8.49,-5.73,-8.48,8.48,8.36,11.21,2.74,2.75,2.75
30.68,-5.66,-8.40,-5.65,-8.40,8.40,8.24,11.26,2.74,2.74,2.74
30.99,-5.59,-8.32,-5.58,-8.32,8.32,8.12,11.29,2.73,2.74,2.73
31.30,-5.53,-8.26,-5.52,-8.25,8.25,8.01,11.30,2.72,2.73,2.73
31.61,-5.45,-8.18,-5.45,-8.18,8.18,7.91,11.28,2.73,2.72,2.73
31.93,-5.39,-8.11,-5.39,-8.10,8.10,7.80,11.24,2.71,2.72,2.72
32.24,-5.32,-8.02,-5.32,-8.03,8.03,7.71,11.19,2.71,2.71,2.70
32.57,-5.26,-7.96,-5.26,-7.96,7.96,7.61,11.11,2.70,2.70,2.70
32.89,-5.20,-7.90,-5.20,-7.89,7.89,7.52,11.02,2.69,2.69,2.70
33.22,-5.14,-7.82,-5.13,-7.82,7.82,7.43,10.91,2.68,2.69,2.68
33.55,-5.07,-7.75,-5.06,-7.74,7.74,7.35,10.78,2.67,2.68,2.68
33.89,-5.00,-7.67,-5.00,-7.67,7.67,7.27,10.64,2.67,2.67,2.67
34.23,-4.94,-7.60,-4.93,-7.59,7.59,7.20,10.49,2.65,2.66,2.66
34.57,-4.87,-7.52,-4.86,-7.51,7.51,7.13,10.33,2.64,2.65,2.65
34.92,-4.79,-7.43,-4.79,-7.43,7.43,7.06,10.16,2.64,2.64,2.64
35.27,-4.73,-7.36,-4.72,-7.35,7.35,7.00,9.99,2.62,2.63,2.63
35.62,-4.66,-7.28,-4.65,-7.27,7.27,6.94,9.81,2.61,2.62,2.62
35.97,-4.58,-7.18,-4.58,-7.19,7.19,6.89,9.63,2.61,2.61,2.60
36.33,-4.51,-7.11,-4.51,-7.11,7.11,6.84,9.44,2.60,2.60,2.60
36.70,-4.45,-7.04,-4.44,-7.03,7.03,6.79,9.25,2.58,2.59,2.59
37.06,-4.37,-6.94,-4.37,-6.95,6.95,6.74,9.07,2.58,2.57,2.57
37.43,-4.30,-6.87,-4.30,-6.87,6.87,6.70,8.88,2.57,2.56,2.57
37.81,-4.23,-6.78,-4.24,-6.79,6.79,6.66,8.70,2.56,2.55,2.55
38.19,-4.17,-6.71,-4.18,-6.71,6.71,6.63,8.52,2.54,2.54,2.54
38.57,-4.11,-6.64,-4.12,-6.64,6.64,6.60,8.34,2.53,2.53,2.53
38.95,-4.05,-6.56,-4.06,-6.57,6.57,6.57,8.16,2.52,2.51,2.52
39.34,-4.00,-6.50,-4.00,-6.51,6.51,6.54,7.98,2.51,2.50,2.50
39.74,-3.94,-6.42,-3.95,-6.44,6.44,6.51,7.81,2.50,2.49,2.48
40.14,-3.91,-6.39,-3.90,-6.38,6.38,6.49,7.65,2.47,2.48,2.48
40.54,-3.86,-6.32,-3.85,-6.32,6.32,6.46,7.49,2.46,2.47,2.46
40.94,-3.80,-6.25,-3.81,-6.26,6.26,6.44,7.33,2.46,2.46,2.45
41.35,-3.77,-6.21,-3.76,-6.21,6.21,6.41,7.17,2.44,2.44,2.44
41.76,-3.73,-6.16,-3.72,-6.15,6.15,6.39,7.02,2.42,2.43,2.43
42.18,-3.69,-6.11,-3.68,-6.09,6.09,6.36,6.88,2.40,2.41,2.42
42.60,-3.64,-6.04,-3.64,-6.04,6.04,6.34,6.74,2.40,2.40,2.40
43.03,-3.60,-6.00,-3.60,-5.98,5.98,6.31,6.60,2.38,2.38,2.40
43.46,-3.57,-5.95,-3.56,-5.93,5.93,6.28,6.47,2.36,2.37,2.38
43.90,-3.52,-5.87,-3.52,-5.87,5.87,6.24,6.34,2.35,2.35,2.35
44.33,-3.48,-5.81,-3.49,-5.82,5.82,6.21,6.22,2.34,2.34,2.33
44.78,-3.45,-5.76,-3.45,-5.77,5.77,6.17,6.10,2.32,2.32,2.31
45.23,-3.42,-5.71,-3.42,-5.72,5.72,6.12,5.99,2.30,2.30,2.29
45.68,-3.38,-5.65,-3.40,-5.68,5.68,6.08,5.88,2.30,2.28,2.27
46.13,-3.36,-5.61,-3.37,-5.63,5.63,6.02,5.77,2.27,2.26,2.25
46.60,-3.33,-5.57,-3.35,-5.58,5.58,5.97,5.67,2.25,2.24,2.24
47.06,-3.33,-5.55,-3.33,-5.54,5.54,5.90,5.57,2.21,2.21,2.22
47.53,-3.29,-5.49,-3.31,-5.50,5.50,5.84,5.48,2.21,2.19,2.20
48.01,-3.29,-5.47,-3.28,-5.45,5.45,5.76,5.39,2.16,2.17,2.19
48.49,-3.29,-5.44,-3.27,-5.41,5.41,5.69,5.30,2.12,2.14,2.15
48.97,-3.24,-5.36,-3.25,-5.37,5.37,5.60,5.22,2.13,2.12,2.12
49.46,-3.24,-5.33,-3.23,-5.32,5.32,5.52,5.14,2.08,2.09,2.09
49.96,-3.20,-5.25,-3.21,-5.27,5.27,5.43,5.06,2.07,2.07,2.05
50.46,-3.19,-5.23,-3.18,-5.22,5.22,5.33,4.99,2.03,2.04,2.04
50.96,-3.15,-5.16,-3.16,-5.17,5.17,5.24,4.92,2.02,2.01,2.01
51.47,-3.13,-5.11,-3.12,-5.11,5.11,5.14,4.85,1.98,1.99,1.98
51.99,-3.10,-5.05,-3.09,-5.05,5.05,5.03,4.78,1.95,1.96,1.95
52.51,-3.05,-4.99,-3.05,-4.98,4.98,4.93,4.72,1.93,1.93,1.94
53.03,-3.02,-4.93,-3.01,-4.91,4.91,4.82,4.66,1.89,1.90,1.91
53.56,-2.98,-4.86,-2.96,-4.83,4.83,4.71,4.60,1.85,1.87,1.88
54.10,-2.93,-4.78,-2.91,-4.76,4.76,4.60,4.54,1.83,1.85,1.85
54.64,-2.87,-4.69,-2.85,-4.68,4.68,4.49,4.48,1.81,1.82,1.82
55.18,-2.80,-4.59,-2.80,-4.59,4.59,4.38,4.42,1.80,1.80,1.79
55.74,-2.75,-4.51,-2.74,-4.51,4.51,4.27,4.37,1.76,1.77,1.76
56.29,-2.69,-4.43,-2.68,-4.43,4.43,4.16,4.31,1.74,1.74,1.74
56.86,-2.62,-4.33,-2.63,-4.35,4.35,4.05,4.26,1.73,1.72,1.71
57.42,-2.57,-4.25,-2.57,-4.26,4.26,3.95,4.20,1.69,1.69,1.68
58.00,-2.52,-4.18,-2.52,-4.18,4.18,3.84,4.15,1.66,1.66,1.66
58.58,-2.47,-4.10,-2.48,-4.11,4.11,3.73,4.10,1.64,1.63,1.63
59.16,-2.43,-4.04,-2.44,-4.04,4.04,3.63,4.04,1.61,1.60,1.61
59.76,-2.40,-3.98,-2.41,-3.98,3.98,3.53,3.98,1.58,1.57,1.58
60.35,-2.36,-3.91,-2.39,-3.93,3.93,3.43,3.93,1.57,1.54,1.55
60.96,-2.36,-3.88,-2.37,-3.88,3.88,3.33,3.87,1.52,1.51,1.52
61.57,-2.36,-3.83,-2.37,-3.85,3.85,3.23,3.81,1.49,1.48,1.47
62.18,-2.36,-3.79,-2.37,-3.82,3.82,3.14,3.75,1.46,1.44,1.43
62.80,-2.36,-3.77,-2.39,-3.80,3.80,3.04,3.69,1.44,1.41,1.41
63.43,-2.39,-3.76,-2.41,-3.79,3.79,2.95,3.62,1.40,1.38,1.37
64.07,-2.42,-3.75,-2.44,-3.78,3.78,2.86,3.56,1.36,1.34,1.33
64.71,-2.46,-3.76,-2.47,-3.78,3.78,2.78,3.49,1.32,1.31,1.30
65.35,-2.49,-3.76,-2.51,-3.78,3.78,2.69,3.43,1.29,1.27,1.27
66.01,-2.54,-3.78,-2.55,-3.78,3.78,2.61,3.36,1.24,1.23,1.24
66.67,-2.57,-3.77,-2.59,-3.79,3.79,2.53,3.29,1.22,1.20,1.20
67.33,-2.63,-3.80,-2.62,-3.78,3.78,2.45,3.22,1.15,1.16,1.17
68.01,-2.66,-3.79,-2.64,-3.76,3.76,2.37,3.15,1.11,1.13,1.13
68.69,-2.68,-3.77,-2.65,-3.74,3.74,2.30,3.07,1.06,1.09,1.09
69.37,-2.68,-3.73,-2.65,-3.70,3.70,2.22,3.00,1.02,1.05,1.05
70.07,-2.68,-3.69,-2.63,-3.65,3.65,2.15,2.93,0.97,1.02,1.01
70.77,-2.66,-3.64,-2.60,-3.58,3.58,2.08,2.85,0.92,0.98,0.98
71.48,-2.61,-3.55,-2.56,-3.50,3.50,2.02,2.78,0.89,0.94,0.94
72.19,-2.54,-3.44,-2.50,-3.40,3.40,1.95,2.70,0.86,0.90,0.90
72.91,-2.48,-3.34,-2.43,-3.29,3.29,1.88,2.63,0.81,0.86,0.86
73.64,-2.36,-3.17,-2.35,-3.17,3.17,1.82,2.55,0.81,0.82,0.81
74.38,-2.24,-3.02,-2.26,-3.04,3.04,1.76,2.47,0.80,0.78,0.78
75.12,-2.13,-2.86,-2.16,-2.90,2.90,1.70,2.40,0.77,0.74,0.73
75.87,-2.05,-2.74,-2.06,-2.76,2.76,1.64,2.32,0.71,0.70,0.70
76.63,-1.94,-2.60,-1.96,-2.62,2.62,1.58,2.25,0.68,0.66,0.66
77.40,-1.83,-2.45,-1.87,-2.48,2.48,1.53,2.17,0.65,0.62,0.62
78.17,-1.76,-2.33,-1.78,-2.35,2.35,1.47,2.10,0.59,0.58,0.57
78.95,-1.66,-2.20,-1.69,-2.22,2.22,1.42,2.03,0.57,0.53,0.54
79.74,-1.60,-2.09,-1.62,-2.11,2.11,1.37,1.96,0.51,0.49,0.50
80.54,-1.54,-1.99,-1.55,-2.00,2.00,1.32,1.88,0.46,0.45,0.45
81.35,-1.47,-1.88,-1.50,-1.91,1.91,1.27,1.81,0.44,0.41,0.41
82.16,-1.44,-1.80,-1.45,-1.82,1.82,1.22,1.74,0.38,0.36,0.36
82.98,-1.40,-1.73,-1.42,-1.74,1.74,1.17,1.67,0.34,0.32,0.33
83.81,-1.38,-1.65,-1.39,-1.66,1.66,1.12,1.60,0.29,0.28,0.27
84.65,-1.37,-1.59,-1.36,-1.59,1.59,1.08,1.54,0.22,0.23,0.22
85.50,-1.33,-1.52,-1.35,-1.53,1.53,1.03,1.47,0.20,0.18,0.19
86.35,-1.33,-1.47,-1.33,-1.47,1.47,0.99,1.40,0.14,0.14,0.14
87.22,-1.33,-1.42,-1.31,-1.40,1.40,0.94,1.34,0.07,0.09,0.09
88.09,-1.33,-1.37,-1.30,-1.34,1.34,0.90,1.27,0.01,0.04,0.04
88.97,-1.33,-1.33,-1.29,-1.28,1.28,0.86,1.21,-0.05,-0.01,-0.00
89.86,-1.30,-1.24,-1.28,-1.22,1.22,0.81,1.15,-0.08,-0.06,-0.06
90.76,-1.29,-1.17,-1.27,-1.15,1.15,0.77,1.08,-0.14,-0.11,-0.12
91.66,-1.28,-1.12,-1.26,-1.09,1.09,0.73,1.02,-0.19,-0.17,-0.16
92.58,-1.24,-1.01,-1.25,-1.03,1.03,0.69,0.96,-0.21,-0.22,-0.22
93.51,-1.24,-0.97,-1.24,-0.97,0.97,0.65,0.90,-0.27,-0.27,-0.27
94.44,-1.22,-0.90,-1.24,-0.91,0.91,0.61,0.84,-0.31,-0.33,-0.32
95.39,-1.19,-0.81,-1.23,-0.85,0.85,0.58,0.78,-0.34,-0.39,-0.38
96.34,-1.19,-0.74,-1.23,-0.79,0.79,0.54,0.73,-0.40,-0.44,-0.45
97.30,-1.24,-0.74,-1.24,-0.74,0.74,0.50,0.67,-0.50,-0.50,-0.50
98.28,-1.24,-0.68,-1.25,-0.69,0.69,0.46,0.61,-0.55,-0.56,-0.56
99.26,-1.24,-0.63,-1.26,-0.64,0.64,0.43,0.56,-0.60,-0.61,-0.61
100.25,-1.29,-0.62,-1.27,-0.60,0.60,0.39,0.50,-0.69,-0.67,-0.67
101.25,-1.29,-0.56,-1.29,-0.56,0.56,0.36,0.45,-0.73,-0.73,-0.73
102.27,-1.32,-0.53,-1.31,-0.52,0.52,0.32,0.39,-0.80,-0.79,-0.79
103.29,-1.33,-0.48,-1.33,-0.48,0.48,0.29,0.34,-0.85,-0.84,-0.85
104.32,-1.36,-0.46,-1.35,-0.44,0.44,0.25,0.29,-0.92,-0.90,-0.90
105.37,-1.38,-0.42,-1.37,-0.40,0.40,0.22,0.24,-0.98,-0.96,-0.96
106.42,-1.38,-0.36,-1.38,-0.36,0.36,0.18,0.18,-1.02,-1.02,-1.02
107.48,-1.42,-0.34,-1.39,-0.31,0.31,0.15,0.13,-1.10,-1.08,-1.08
108.56,-1.42,-0.28,-1.41,-0.27,0.27,0.11,0.08,-1.15,-1.14,-1.14
109.64,-1.42,-0.22,-1.42,-0.22,0.22,0.08,0.04,-1.20,-1.20,-1.20
110.74,-1.42,-0.16,-1.43,-0.17,0.17,0.05,-0.01,-1.25,-1.26,-1.26
111.85,-1.42,-0.10,-1.44,-0.12,0.12,0.01,-0.06,-1.30,-1.33,-1.32
112.97,-1.45,-0.06,-1.45,-0.06,0.06,-0.02,-0.10,-1.39,-1.39,-1.39
114.10,-1.47,-0.02,-1.46,-0.01,0.01,-0.05,-0.15,-1.46,-1.45,-1.45
115.24,-1.47,0.05,-1.47,0.04,-0.04,-0.09,-0.19,-1.51,-1.51,-1.51
116.39,-1.47,0.11,-1.48,0.10,-0.10,-0.12,-0.23,-1.57,-1.58,-1.58
117.55,-1.47,0.18,-1.48,0.16,-0.16,-0.15,-0.28,-1.63,-1.64,-1.65
118.73,-1.51,0.20,-1.49,0.21,-0.21,-0.18,-0.32,-1.72,-1.70,-1.71
119.92,-1.52,0.25,-1.50,0.27,-0.27,-0.22,-0.36,-1.79,-1.77,-1.77
121.12,-1.52,0.31,-1.51,0.32,-0.32,-0.25,-0.39,-1.84,-1.83,-1.83
122.33,-1.52,0.37,-1.52,0.37,-0.37,-0.28,-0.43,-1.89,-1.89,-1.89
123.55,-1.52,0.43,-1.53,0.42,-0.42,-0.32,-0.47,-1.94,-1.95,-1.95
124.79,-1.52,0.49,-1.54,0.47,-0.47,-0.35,-0.50,-1.99,-2.01,-2.01
126.03,-1.56,0.51,-1.56,0.52,-0.52,-0.38,-0.53,-2.08,-2.07,-2.07
127.29,-1.56,0.57,-1.57,0.56,-0.56,-0.41,-0.56,-2.12,-2.13,-2.13
128.57,-1.56,0.64,-1.59,0.61,-0.61,-0.45,-0.59,-2.17,-2.19,-2.20
129.85,-1.61,0.65,-1.60,0.65,-0.65,-0.48,-0.62,-2.26,-2.25,-2.26
131.15,-1.61,0.71,-1.62,0.69,-0.69,-0.51,-0.65,-2.30,-2.31,-2.32
132.46,-1.64,0.73,-1.63,0.74,-0.74,-0.55,-0.68,-2.38,-2.37,-2.37
133.79,-1.66,0.76,-1.65,0.78,-0.78,-0.58,-0.71,-2.44,-2.43,-2.42
135.12,-1.66,0.83,-1.66,0.82,-0.82,-0.61,-0.74,-2.48,-2.48,-2.49
136.48,-1.70,0.83,-1.67,0.87,-0.87,-0.65,-0.76,-2.57,-2.53,-2.53
137.84,-1.70,0.89,-1.68,0.91,-0.91,-0.68,-0.79,-2.61,-2.59,-2.59
139.22,-1.70,0.95,-1.69,0.95,-0.95,-0.71,-0.81,-2.65,-2.64,-2.65
140.61,-1.70,1.00,-1.69,1.00,-1.00,-0.75,-0.84,-2.70,-2.69,-2.70
142.02,-1.70,1.03,-1.70,1.04,-1.04,-0.78,-0.86,-2.74,-2.74,-2.73
143.44,-1.70,1.08,-1.71,1.08,-1.08,-0.82,-0.88,-2.78,-2.78,-2.78
144.87,-1.70,1.13,-1.71,1.12,-1.12,-0.85,-0.91,-2.82,-2.83,-2.83
146.32,-1.70,1.18,-1.72,1.16,-1.16,-0.88,-0.93,-2.86,-2.88,-2.88
147.78,-1.70,1.22,-1.72,1.20,-1.20,-0.92,-0.96,-2.90,-2.93,-2.92
149.26,-1.70,1.26,-1.73,1.24,-1.24,-0.95,-0.98,-2.94,-2.97,-2.96
150.75,-1.75,1.27,-1.74,1.28,-1.28,-0.99,-1.01,-3.03,-3.02,-3.02
152.26,-1.75,1.31,-1.75,1.32,-1.32,-1.03,-1.03,-3.07,-3.07,-3.06
153.78,-1.75,1.36,-1.76,1.36,-1.36,-1.06,-1.06,-3.10,-3.11,-3.11
155.32,-1.77,1.39,-1.77,1.39,-1.39,-1.10,-1.09,-3.16,-3.16,-3.16
156.88,-1.80,1.40,-1.77,1.43,-1.43,-1.13,-1.11,-3.23,-3.20,-3.20
158.44,-1.80,1.45,-1.78,1.47,-1.47,-1.17,-1.14,-3.27,-3.25,-3.25
160.03,-1.80,1.50,-1.79,1.51,-1.51,-1.20,-1.17,-3.31,-3.30,-3.30
161.63,-1.80,1.55,-1.80,1.55,-1.55,-1.24,-1.20,-3.35,-3.34,-3.35
163.24,-1.80,1.60,-1.80,1.59,-1.59,-1.28,-1.23,-3.39,-3.39,-3.40
164.88,-1.80,1.63,-1.80,1.63,-1.63,-1.31,-1.27,-3.43,-3.44,-3.43
166.53,-1.80,1.68,-1.80,1.68,-1.68,-1.35,-1.30,-3.48,-3.48,-3.48
168.19,-1.80,1.72,-1.80,1.73,-1.73,-1.39,-1.33,-3.53,-3.52,-3.52
169.87,-1.80,1.77,-1.80,1.77,-1.77,-1.42,-1.37,-3.57,-3.57,-3.57
171.57,-1.80,1.81,-1.80,1.82,-1.82,-1.46,-1.41,-3.62,-3.61,-3.61
173.29,-1.80,1.85,-1.80,1.86,-1.86,-1.50,-1.45,-3.66,-3.66,-3.65
175.02,-1.80,1.89,-1.80,1.90,-1.90,-1.54,-1.49,-3.70,-3.70,-3.69
176.77,-1.80,1.94,-1.81,1.93,-1.93,-1.57,-1.53,-3.73,-3.75,-3.74
178.54,-1.80,1.99,-1.82,1.96,-1.96,-1.61,-1.57,-3.76,-3.79,-3.79
180.32,-1.80,2.03,-1.84,2.00,-2.00,-1.65,-1.61,-3.79,-3.83,-3.83
182.13,-1.84,2.03,-1.85,2.03,-2.03,-1.69,-1.66,-3.87,-3.87,-3.87
183.95,-1.84,2.08,-1.86,2.06,-2.06,-1.72,-1.70,-3.90,-3.91,-3.92
185.79,-1.88,2.07,-1.87,2.09,-2.09,-1.76,-1.75,-3.97,-3.96,-3.95
187.65,-1.89,2.11,-1.88,2.12,-2.12,-1.80,-1.80,-4.01,-3.99,-4.00
189.52,-1.89,2.14,-1.89,2.15,-2.15,-1.84,-1.85,-4.04,-4.03,-4.03
191.42,-1.94,2.13,-1.89,2.18,-2.18,-1.87,-1.90,-4.12,-4.07,-4.07
193.33,-1.94,2.16,-1.90,2.20,-2.20,-1.91,-1.95,-4.14,-4.10,-4.10
195.27,-1.94,2.19,-1.90,2.24,-2.24,-1.95,-2.00,-4.18,-4.14,-4.13
197.22,-1.89,2.27,-1.90,2.27,-2.27,-1.98,-2.06,-4.15,-4.17,-4.16
199.19,-1.89,2.32,-1.90,2.29,-2.29,-2.02,-2.11,-4.18,-4.19,-4.21
201.18,-1.89,2.34,-1.90,2.32,-2.32,-2.06,-2.16,-4.21,-4.22,-4.23
203.19,-1.89,2.36,-1.90,2.35,-2.35,-2.09,-2.22,-4.24,-4.25,-4.25
205.23,-1.87,2.40,-1.90,2.37,-2.37,-2.13,-2.27,-4.24,-4.27,-4.27
207.28,-1.87,2.41,-1.90,2.39,-2.39,-2.16,-2.33,-4.26,-4.29,-4.28
209.35,-1.89,2.42,-1.90,2.41,-2.41,-2.20,-2.38,-4.30,-4.31,-4.31
211.44,-1.89,2.45,-1.90,2.43,-2.43,-2.23,-2.44,-4.32,-4.33,-4.34
213.56,-1.89,2.45,-1.90,2.44,-2.44,-2.26,-2.49,-4.33,-4.34,-4.34
215.69,-1.89,2.46,-1.90,2.45,-2.45,-2.29,-2.54,-4.34,-4.36,-4.35
217.85,-1.94,2.43,-1.91,2.46,-2.46,-2.33,-2.60,-4.40,-4.37,-4.37
220.03,-1.94,2.44,-1.91,2.47,-2.47,-2.36,-2.65,-4.41,-4.38,-4.38
222.23,-1.94,2.46,-1.90,2.48,-2.48,-2.39,-2.69,-4.42,-4.38,-4.40
224.45,-1.93,2.46,-1.89,2.50,-2.50,-2.42,-2.74,-4.42,-4.39,-4.39
226.70,-1.89,2.50,-1.89,2.51,-2.51,-2.45,-2.78,-4.40,-4.39,-4.39
228.96,-1.89,2.51,-1.88,2.52,-2.52,-2.47,-2.82,-4.41,-4.40,-4.40
231.25,-1.86,2.53,-1.87,2.53,-2.53,-2.50,-2.86,-4.39,-4.40,-4.39
233.57,-1.84,2.55,-1.86,2.54,-2.54,-2.52,-2.90,-4.38,-4.40,-4.39
235.90,-1.84,2.55,-1.84,2.55,-2.55,-2.55,-2.93,-4.39,-4.39,-4.39
238.26,-1.80,2.59,-1.83,2.56,-2.56,-2.57,-2.95,-4.36,-4.39,-4.39
240.64,-1.80,2.59,-1.82,2.56,-2.56,-2.59,-2.98,-4.36,-4.38,-4.39
243.05,-1.80,2.58,-1.81,2.56,-2.56,-2.61,-2.99,-4.36,-4.38,-4.38
245.48,-1.80,2.57,-1.81,2.56,-2.56,-2.63,-3.01,-4.36,-4.37,-4.37
247.93,-1.80,2.56,-1.80,2.55,-2.55,-2.65,-3.02,-4.35,-4.36,-4.36
250.41,-1.80,2.56,-1.80,2.55,-2.55,-2.67,-3.02,-4.35,-4.35,-4.36
252.92,-1.80,2.53,-1.80,2.53,-2.53,-2.68,-3.02,-4.33,-4.33,-4.33
255.45,-1.80,2.51,-1.80,2.52,-2.52,-2.70,-3.02,-4.32,-4.32,-4.31
258.00,-1.80,2.50,-1.80,2.51,-2.51,-2.71,-3.01,-4.31,-4.30,-4.30
260.58,-1.80,2.49,-1.79,2.49,-2.49,-2.72,-3.00,-4.29,-4.29,-4.29
263.19,-1.80,2.47,-1.79,2.48,-2.48,-2.73,-2.98,-4.28,-4.27,-4.27
265.82,-1.80,2.46,-1.79,2.46,-2.46,-2.74,-2.96,-4.26,-4.25,-4.26
268.48,-1.79,2.44,-1.78,2.45,-2.45,-2.74,-2.94,-4.24,-4.23,-4.23
271.16,-1.76,2.45,-1.77,2.45,-2.45,-2.75,-2.91,-4.21,-4.22,-4.21
273.87,-1.75,2.45,-1.76,2.44,-2.44,-2.75,-2.88,-4.19,-4.20,-4.20
276.61,-1.75,2.42,-1.74,2.44,-2.44,-2.75,-2.84,-4.19,-4.18,-4.17
279.38,-1.75,2.41,-1.73,2.43,-2.43,-2.75,-2.80,-4.18,-4.16,-4.16
282.17,-1.70,2.45,-1.71,2.43,-2.43,-2.75,-2.76,-4.13,-4.14,-4.15
284.99,-1.70,2.42,-1.69,2.43,-2.43,-2.74,-2.72,-4.13,-4.12,-4.12
287.84,-1.67,2.44,-1.67,2.43,-2.43,-2.74,-2.68,-4.10,-4.10,-4.11
290.72,-1.66,2.42,-1.65,2.44,-2.44,-2.73,-2.63,-4.10,-4.08,-4.08
293.63,-1.61,2.46,-1.62,2.44,-2.44,-2.72,-2.59,-4.05,-4.06,-4.07
296.57,-1.61,2.43,-1.60,2.44,-2.44,-2.71,-2.54,-4.05,-4.04,-4.04
299.53,-1.57,2.46,-1.58,2.44,-2.44,-2.70,-2.50,-4.01,-4.02,-4.03
302.53,-1.56,2.45,-1.56,2.44,-2.44,-2.69,-2.45,-4.00,-4.00,-4.01
305.55,-1.54,2.44,-1.54,2.44,-2.44,-2.67,-2.40,-3.98,-3.98,-3.98
308.61,-1.52,2.44,-1.52,2.44,-2.44,-2.65,-2.35,-3.96,-3.96,-3.96
311.69,-1.52,2.41,-1.50,2.43,-2.43,-2.64,-2.31,-3.95,-3.93,-3.93
314.81,-1.47,2.43,-1.49,2.42,-2.42,-2.62,-2.26,-3.89,-3.91,-3.90
317.96,-1.47,2.41,-1.48,2.41,-2.41,-2.60,-2.21,-3.88,-3.89,-3.88
321.14,-1.47,2.40,-1.48,2.39,-2.39,-2.58,-2.17,-3.86,-3.87,-3.87
324.35,-1.47,2.38,-1.47,2.37,-2.37,-2.56,-2.12,-3.84,-3.85,-3.85
327.59,-1.47,2.35,-1.47,2.35,-2.35,-2.53,-2.08,-3.82,-3.83,-3.82
330.87,-1.47,2.34,-1.48,2.33,-2.33,-2.51,-2.04,-3.80,-3.81,-3.81
334.18,-1.47,2.32,-1.48,2.30,-2.30,-2.48,-2.00,-3.77,-3.79,-3.79
337.52,-1.47,2.30,-1.49,2.28,-2.28,-2.46,-1.96,-3.75,-3.77,-3.77
340.90,-1.48,2.27,-1.49,2.26,-2.26,-2.43,-1.92,-3.74,-3.75,-3.75
344.30,-1.52,2.21,-1.49,2.24,-2.24,-2.40,-1.88,-3.76,-3.73,-3.73
347.75,-1.52,2.19,-1.49,2.22,-2.22,-2.37,-1.84,-3.74,-3.71,-3.71
351.23,-1.52,2.17,-1.50,2.20,-2.20,-2.34,-1.81,-3.72,-3.69,-3.69
354.74,-1.52,2.16,-1.50,2.18,-2.18,-2.31,-1.78,-3.70,-3.68,-3.68
358.28,-1.52,2.14,-1.50,2.16,-2.16,-2.28,-1.74,-3.68,-3.66,-3.66
361.87,-1.52,2.12,-1.50,2.14,-2.14,-2.25,-1.71,-3.66,-3.64,-3.64
365.49,-1.52,2.10,-1.51,2.12,-2.12,-2.22,-1.68,-3.64,-3.63,-3.62
369.14,-1.49,2.13,-1.51,2.10,-2.10,-2.19,-1.66,-3.59,-3.61,-3.62
372.83,-1.47,2.13,-1.52,2.08,-2.08,-2.15,-1.63,-3.55,-3.60,-3.60
376.56,-1.47,2.12,-1.53,2.05,-2.05,-2.12,-1.61,-3.52,-3.58,-3.59
380.33,-1.52,2.04,-1.54,2.03,-2.03,-2.09,-1.58,-3.55,-3.57,-3.56
384.13,-1.52,2.03,-1.55,2.01,-2.01,-2.06,-1.56,-3.53,-3.56,-3.55
387.97,-1.56,1.98,-1.56,1.98,-1.98,-2.02,-1.54,-3.54,-3.54,-3.54
391.85,-1.56,1.98,-1.57,1.96,-1.96,-1.99,-1.52,-3.52,-3.53,-3.54
395.77,-1.60,1.92,-1.58,1.94,-1.94,-1.95,-1.50,-3.54,-3.52,-3.52
399.73,-1.61,1.90,-1.58,1.93,-1.93,-1.92,-1.48,-3.54,-3.51,-3.51
403.72,-1.61,1.89,-1.58,1.92,-1.92,-1.89,-1.47,-3.53,-3.50,-3.50
407.76,-1.61,1.88,-1.58,1.91,-1.91,-1.85,-1.45,-3.52,-3.49,-3.49
411.84,-1.61,1.86,-1.57,1.91,-1.91,-1.82,-1.44,-3.52,-3.48,-3.47
415.96,-1.56,1.91,-1.55,1.92,-1.92,-1.79,-1.43,-3.48,-3.47,-3.47
420.12,-1.53,1.93,-1.52,1.93,-1.93,-1.75,-1.42,-3.46,-3.46,-3.46
424.32,-1.50,1.95,-1.49,1.96,-1.96,-1.72,-1.40,-3.46,-3.45,-3.45
428.56,-1.45,1.99,-1.45,1.98,-1.98,-1.69,-1.39,-3.43,-3.44,-3.44
432.85,-1.40,2.03,-1.41,2.02,-2.02,-1.65,-1.39,-3.42,-3.43,-3.43
437.18,-1.36,2.06,-1.36,2.06,-2.06,-1.62,-1.38,-3.42,-3.42,-3.42
441.55,-1.31,2.09,-1.30,2.11,-2.11,-1.59,-1.37,-3.42,-3.40,-3.40
445.96,-1.26,2.13,-1.24,2.15,-2.15,-1.55,-1.36,-3.41,-3.39,-3.39
450.42,-1.22,2.16,-1.18,2.20,-2.20,-1.52,-1.36,-3.42,-3.38,-3.38
454.93,-1.17,2.20,-1.12,2.24,-2.24,-1.49,-1.35,-3.41,-3.37,-3.37
