frequency,raw,error,smoothed,error_smoothed,equalization,parametric_eq,fixed_band_eq,equalized_raw,equalized_smoothed,target
20.00,-28.26,-38.82,-28.28,-38.86,38.86,0.00,17.45,10.60,10.58,10.56
20.20,-28.15,-38.76,-28.14,-38.76,38.76,0.00,17.67,10.61,10.62,10.61
20.40,-28.03,-38.69,-27.99,-38.65,38.65,0.00,17.88,10.62,10.66,10.66
20.61,-27.92,-38.61,-27.84,-38.53,38.53,0.00,18.10,10.61,10.69,10.69
20.81,-27.80,-38.54,-27.69,-38.42,38.42,0.00,18.33,10.62,10.72,10.74
21.02,-27.68,-38.46,-27.54,-38.29,38.29,0.00,18.56,10.61,10.75,10.78
21.23,-27.43,-38.23,-27.39,-38.17,38.17,0.00,18.79,10.74,10.78,10.80
21.44,-27.18,-37.99,-27.24,-38.04,38.04,0.00,19.04,10.86,10.80,10.82
21.66,-26.93,-37.77,-27.08,-37.90,37.90,0.00,19.28,10.97,10.82,10.84
21.87,-26.68,-37.52,-26.93,-37.76,37.76,0.00,19.54,11.09,10.84,10.85
22.09,-26.51,-37.38,-26.77,-37.62,37.62,0.00,19.80,11.11,10.85,10.87
22.31,-26.44,-37.31,-26.61,-37.48,37.48,0.00,20.07,11.04,10.87,10.88
22.54,-26.36,-37.24,-26.46,-37.34,37.34,0.00,20.34,10.97,10.87,10.88
22.76,-26.29,-37.17,-26.30,-37.18,37.18,0.00,20.63,10.89,10.88,10.88
22.99,-26.21,-37.08,-26.13,-37.01,37.01,0.00,20.92,10.80,10.88,10.87
23.22,-26.09,-36.96,-25.96,-36.83,36.83,0.00,21.22,10.74,10.88,10.87
23.45,-25.97,-36.84,-25.79,-36.66,36.66,0.00,21.53,10.70,10.88,10.87
23.69,-25.84,-36.72,-25.62,-36.50,36.50,0.00,21.85,10.66,10.88,10.88
23.92,-25.72,-36.59,-25.46,-36.34,36.34,0.00,22.18,10.62,10.88,10.88
24.16,-25.45,-36.32,-25.30,-36.18,36.18,0.00,22.53,10.73,10.88,10.88
24.40,-25.11,-35.99,-25.13,-36.01,36.01,0.00,22.88,10.90,10.88,10.89
24.65,-24.78,-35.66,-24.96,-35.83,35.83,0.00,23.25,11.05,10.88,10.88
24.89,-24.44,-35.31,-24.78,-35.65,35.65,0.00,23.63,11.22,10.88,10.88
25.14,-24.27,-35.15,-24.59,-35.47,35.47,0.00,24.03,11.20,10.88,10.88
25.39,-24.22,-35.11,-24.41,-35.29,35.29,0.00,24.45,11.07,10.88,10.89
25.65,-24.18,-35.07,-24.21,-35.09,35.09,0.00,24.89,10.91,10.88,10.89
25.91,-24.13,-35.01,-24.02,-34.90,34.90,0.00,25.34,10.77,10.88,10.88
26.16,-23.99,-34.86,-23.83,-34.71,34.71,0.00,25.82,10.72,10.88,10.88
26.43,-23.81,-34.69,-23.65,-34.52,34.52,0.00,26.32,10.71,10.88,10.88
26.69,-23.62,-34.50,-23.47,-34.34,34.34,0.00,26.85,10.72,10.88,10.88
26.96,-23.44,-34.32,-23.29,-34.16,34.16,0.00,27.41,10.72,10.87,10.88
27.23,-23.17,-34.05,-23.12,-33.99,33.99,0.00,28.01,10.81,10.87,10.88
27.50,-22.89,-33.77,-22.93,-33.80,33.80,0.00,28.64,10.91,10.87,10.88
27.77,-22.61,-33.47,-22.73,-33.60,33.60,0.00,29.31,10.99,10.87,10.87
28.05,-22.34,-33.20,-22.49,-33.36,33.36,0.00,30.03,11.02,10.87,10.87
28.33,-22.15,-33.00,-22.24,-33.11,33.11,0.00,30.81,10.96,10.87,10.86
28.62,-21.96,-32.82,-21.98,-32.84,32.84,0.00,31.64,10.88,10.86,10.86
28.90,-21.77,-32.63,-21.71,-32.57,32.57,0.00,32.54,10.80,10.86,10.87
29.19,-21.54,-32.40,-21.43,-32.29,32.29,0.00,33.52,10.75,10.86,10.86
29.48,-21.29,-32.15,-21.16,-32.02,32.02,0.00,34.56,10.73,10.86,10.87
29.78,-21.04,-31.90,-20.90,-31.76,31.76,0.00,35.68,10.72,10.86,10.86
30.08,-20.77,-31.64,-20.67,-31.52,31.52,0.00,36.84,10.75,10.86,10.87
30.38,-20.45,-31.31,-20.46,-31.31,31.31,0.00,37.99,10.86,10.86,10.86
30.68,-20.13,-30.99,-20.25,-31.11,31.11,0.00,38.98,10.98,10.85,10.86
30.99,-19.81,-30.67,-20.05,-30.90,30.90,0.00,39.62,11.09,10.85,10.86
31.30,-19.62,-30.47,-19.85,-30.70,30.70,0.00,39.71,11.08,10.85,10.85
31.61,-19.43,-30.28,-19.65,-30.49,30.49,0.00,39.24,11.06,10.85,10.85
31.93,-19.23,-30.08,-19.44,-30.29,30.29,0.00,38.37,11.06,10.84,10.85
32.24,-19.20,-30.04,-19.25,-30.09,30.09,0.00,37.30,10.89,10.84,10.84
32.57,-19.22,-30.06,-19.05,-29.89,29.89,0.00,36.19,10.67,10.84,10.84
32.89,-19.23,-30.06,-18.86,-29.69,29.69,0.00,35.12,10.46,10.83,10.84
33.22,-19.00,-29.82,-18.67,-29.49,29.49,0.00,34.10,10.49,10.83,10.83
33.55,-18.65,-29.47,-18.48,-29.30,29.30,0.00,33.17,10.65,10.82,10.83
33.89,-18.30,-29.12,-18.29,-29.11,29.11,0.00,32.31,10.81,10.82,10.82
34.23,-18.02,-28.84,-18.10,-28.91,28.91,0.00,31.51,10.89,10.81,10.82
34.57,-17.78,-28.59,-17.88,-28.69,28.69,0.00,30.78,10.91,10.81,10.81
34.92,-17.54,-28.35,-17.66,-28.46,28.46,0.00,30.10,10.92,10.80,10.81
35.27,-17.32,-28.12,-17.44,-28.24,28.24,0.00,29.48,10.91,10.80,10.80
35.62,-17.12,-27.92,-17.22,-28.02,28.02,0.00,28.89,10.90,10.80,10.80
35.97,-16.91,-27.70,-17.00,-27.79,27.79,0.00,28.35,10.88,10.80,10.80
36.33,-16.73,-27.52,-16.76,-27.55,27.55,0.00,27.84,10.82,10.79,10.80
36.70,-16.56,-27.35,-16.52,-27.31,27.31,0.00,27.37,10.75,10.79,10.79
37.06,-16.36,-27.14,-16.29,-27.08,27.08,0.00,26.92,10.72,10.79,10.79
37.43,-16.10,-26.89,-16.06,-26.85,26.85,0.00,26.50,10.75,10.79,10.80
37.81,-15.83,-26.63,-15.82,-26.62,26.62,0.00,26.10,10.79,10.79,10.80
38.19,-15.65,-26.44,-15.59,-26.38,26.38,0.00,25.73,10.73,10.79,10.79
38.57,-15.54,-26.34,-15.35,-26.15,26.15,0.00,25.37,10.61,10.80,10.80
38.95,-15.41,-26.22,-15.13,-25.93,25.93,0.00,25.04,10.51,10.80,10.81
39.34,-14.94,-25.74,-14.92,-25.72,25.72,0.00,24.72,10.77,10.80,10.80
39.74,-14.44,-25.24,-14.69,-25.49,25.49,0.00,24.42,11.04,10.80,10.80
40.14,-14.05,-24.85,-14.44,-25.23,25.23,0.00,24.13,11.18,10.80,10.80
40.54,-13.95,-24.75,-14.17,-24.96,24.96,0.00,23.86,11.01,10.79,10.80
40.94,-13.84,-24.63,-13.90,-24.69,24.69,0.00,23.60,10.85,10.79,10.79
41.35,-13.71,-24.50,-13.64,-24.42,24.42,0.00,23.35,10.71,10.78,10.79
41.76,-13.58,-24.35,-13.39,-24.17,24.17,0.00,23.12,10.59,10.78,10.78
42.18,-13.40,-24.17,-13.16,-23.93,23.93,0.00,22.89,10.53,10.77,10.78
42.60,-13.17,-23.93,-12.92,-23.68,23.68,0.00,22.68,10.51,10.76,10.77
43.03,-12.92,-23.68,-12.68,-23.43,23.43,0.00,22.48,10.51,10.75,10.76
43.46,-12.37,-23.11,-12.46,-23.20,23.20,0.00,22.29,10.83,10.74,10.75
43.90,-11.83,-22.55,-12.26,-22.98,22.98,0.00,22.11,11.16,10.72,10.73
44.33,-11.67,-22.38,-12.04,-22.76,22.76,0.00,21.93,11.09,10.71,10.71
44.78,-11.65,-22.34,-11.81,-22.51,22.51,0.00,21.77,10.86,10.70,10.69
45.23,-11.59,-22.27,-11.54,-22.23,22.23,0.00,21.61,10.64,10.69,10.68
45.68,-11.50,-22.17,-11.27,-21.94,21.94,0.00,21.47,10.44,10.67,10.67
46.13,-11.32,-21.96,-11.01,-21.67,21.67,0.00,21.33,10.35,10.66,10.65
46.60,-10.90,-21.55,-10.76,-21.41,21.41,0.00,21.19,10.50,10.64,10.65
47.06,-10.51,-21.14,-10.53,-21.15,21.15,0.00,21.07,10.65,10.63,10.63
47.53,-10.30,-20.91,-10.30,-20.91,20.91,0.00,20.95,10.61,10.61,10.62
48.01,-10.08,-20.70,-10.08,-20.67,20.67,0.00,20.83,10.59,10.60,10.62
48.49,-9.77,-20.37,-9.86,-20.44,20.44,0.00,20.72,10.67,10.58,10.60
48.97,-9.46,-20.03,-9.62,-20.19,20.19,0.00,20.62,10.73,10.57,10.58
49.46,-9.19,-19.74,-9.34,-19.90,19.90,0.00,20.52,10.71,10.56,10.56
49.96,-8.93,-19.47,-9.04,-19.59,19.59,0.00,20.43,10.65,10.55,10.54
50.46,-8.83,-19.36,-8.76,-19.29,19.29,0.00,20.34,10.46,10.53,10.53
50.96,-8.74,-19.26,-8.51,-19.03,19.03,0.00,20.26,10.29,10.52,10.52
51.47,-8.40,-18.90,-8.26,-18.77,18.77,0.00,20.18,10.37,10.51,10.50
51.99,-8.05,-18.54,-8.01,-18.50,18.50,0.00,20.10,10.45,10.49,10.49
52.51,-7.76,-18.24,-7.75,-18.23,18.23,0.00,20.02,10.46,10.48,10.48
53.03,-7.46,-17.94,-7.48,-17.95,17.95,0.00,19.94,10.49,10.47,10.48
53.56,-7.18,-17.64,-7.24,-17.70,17.70,0.00,19.87,10.52,10.45,10.46
54.10,-6.89,-17.34,-7.00,-17.45,17.45,0.00,19.79,10.56,10.44,10.45
54.64,-6.62,-17.05,-6.76,-17.19,17.19,0.00,19.72,10.57,10.43,10.43
55.18,-6.45,-16.88,-6.51,-16.93,16.93,0.00,19.64,10.48,10.42,10.43
55.74,-6.48,-16.89,-6.26,-16.68,16.68,0.00,19.56,10.20,10.41,10.41
56.29,-6.16,-16.55,-6.02,-16.42,16.42,0.00,19.47,10.26,10.40,10.40
56.86,-5.51,-15.90,-5.78,-16.16,16.16,0.00,19.39,10.65,10.38,10.39
57.42,-5.37,-15.73,-5.55,-15.92,15.92,0.00,19.29,10.55,10.37,10.36
58.00,-5.40,-15.75,-5.32,-15.67,15.67,0.00,19.19,10.27,10.35,10.35
58.58,-5.30,-15.64,-5.10,-15.43,15.43,0.00,19.08,10.13,10.33,10.34
59.16,-5.08,-15.39,-4.90,-15.20,15.20,0.00,18.97,10.12,10.30,10.32
59.76,-4.60,-14.90,-4.68,-14.95,14.95,0.00,18.84,10.35,10.27,10.30
60.35,-4.35,-14.61,-4.45,-14.70,14.70,0.00,18.71,10.35,10.24,10.26
60.96,-4.27,-14.49,-4.21,-14.42,14.42,0.00,18.56,10.15,10.21,10.22
61.57,-3.99,-14.17,-3.97,-14.14,14.14,0.00,18.41,10.15,10.17,10.18
62.18,-3.70,-13.83,-3.73,-13.87,13.87,0.00,18.24,10.17,10.14,10.14
62.80,-3.43,-13.51,-3.53,-13.62,13.62,0.00,18.06,10.19,10.09,10.09
63.43,-3.29,-13.34,-3.32,-13.37,13.37,0.00,17.87,10.08,10.05,10.05
64.07,-3.20,-13.20,-3.08,-13.09,13.09,0.00,17.67,9.89,10.01,10.00
64.71,-2.99,-12.95,-2.85,-12.81,12.81,0.00,17.46,9.82,9.96,9.96
65.35,-2.67,-12.58,-2.63,-12.54,12.54,0.00,17.24,9.88,9.92,9.92
66.01,-2.26,-12.13,-2.43,-12.30,12.30,0.00,17.00,10.04,9.87,9.87
66.67,-2.07,-11.89,-2.24,-12.06,12.06,0.00,16.76,9.99,9.82,9.82
67.33,-1.95,-11.72,-2.03,-11.80,11.80,0.00,16.51,9.85,9.77,9.77
68.01,-1.92,-11.65,-1.82,-11.55,11.55,0.00,16.25,9.63,9.72,9.73
68.69,-1.74,-11.42,-1.62,-11.30,11.30,0.00,15.98,9.56,9.67,9.68
69.37,-1.50,-11.12,-1.43,-11.05,11.05,0.00,15.70,9.55,9.62,9.63
70.07,-1.21,-10.79,-1.23,-10.80,10.80,0.00,15.42,9.59,9.57,9.58
70.77,-1.05,-10.58,-1.03,-10.54,10.54,0.00,15.13,9.49,9.52,9.53
71.48,-0.87,-10.35,-0.84,-10.30,10.30,0.00,14.84,9.43,9.46,9.48
72.19,-0.70,-10.11,-0.66,-10.07,10.07,0.00,14.54,9.37,9.41,9.41
72.91,-0.57,-9.91,-0.50,-9.85,9.85,0.00,14.24,9.28,9.35,9.35
73.64,-0.30,-9.59,-0.35,-9.64,9.64,0.00,13.93,9.34,9.29,9.30
74.38,-0.10,-9.34,-0.22,-9.45,9.45,0.00,13.63,9.35,9.24,9.24
75.12,0.02,-9.16,-0.08,-9.26,9.26,0.00,13.32,9.28,9.18,9.18
75.87,0.13,-8.98,0.06,-9.07,9.07,0.00,13.01,9.20,9.13,9.12
76.63,0.23,-8.84,0.18,-8.89,8.89,0.00,12.70,9.12,9.07,9.07
77.40,0.33,-8.69,0.28,-8.74,8.74,0.00,12.39,9.07,9.02,9.02
78.17,0.41,-8.55,0.37,-8.59,8.59,0.00,12.07,9.00,8.96,8.96
78.95,0.45,-8.47,0.46,-8.45,8.45,0.00,11.76,8.90,8.91,8.92
79.74,0.49,-8.38,0.54,-8.33,8.33,0.00,11.45,8.82,8.86,8.87
80.54,0.51,-8.31,0.61,-8.21,8.21,0.00,11.14,8.72,8.82,8.82
81.35,0.51,-8.26,0.68,-8.09,8.09,0.00,10.82,8.60,8.77,8.77
82.16,0.62,-8.10,0.74,-7.98,7.98,0.00,10.51,8.60,8.72,8.72
82.98,1.11,-7.57,0.83,-7.84,7.84,0.00,10.20,8.95,8.67,8.68
83.81,1.14,-7.49,0.94,-7.69,7.69,0.00,9.89,8.83,8.63,8.63
84.65,1.04,-7.54,1.05,-7.53,7.53,0.00,9.57,8.57,8.58,8.58
85.50,1.06,-7.48,1.18,-7.35,7.35,0.00,9.26,8.41,8.53,8.54
86.35,1.21,-7.28,1.32,-7.15,7.15,0.00,8.95,8.36,8.48,8.49
87.22,1.39,-7.05,1.50,-6.93,6.93,0.00,8.64,8.32,8.43,8.44
88.09,1.55,-6.84,1.69,-6.69,6.69,0.00,8.33,8.24,8.38,8.39
88.97,1.79,-6.54,1.89,-6.44,6.44,0.00,8.02,8.23,8.33,8.33
89.86,1.98,-6.30,2.08,-6.20,6.20,0.00,7.71,8.18,8.28,8.28
90.76,2.28,-5.95,2.24,-5.98,5.98,0.00,7.40,8.26,8.23,8.23
91.66,2.58,-5.59,2.42,-5.75,5.75,0.00,7.09,8.33,8.18,8.18
92.58,2.72,-5.40,2.60,-5.52,5.52,0.00,6.78,8.24,8.13,8.12
93.51,2.87,-5.20,2.81,-5.26,5.26,0.00,6.47,8.13,8.07,8.07
94.44,3.15,-4.88,3.02,-5.00,5.00,0.00,6.16,8.15,8.02,8.03
95.39,3.42,-4.56,3.23,-4.75,4.75,0.00,5.85,8.17,7.97,7.98
96.34,3.57,-4.36,3.43,-4.50,4.50,0.00,5.55,8.07,7.93,7.93
97.30,3.59,-4.29,3.62,-4.25,4.25,0.00,5.24,7.84,7.88,7.88
98.28,3.59,-4.24,3.81,-4.01,4.01,0.00,4.93,7.60,7.83,7.83
99.26,3.68,-4.11,4.01,-3.77,3.77,0.00,4.62,7.45,7.78,7.79
100.25,4.04,-3.69,4.23,-3.51,3.51,0.00,4.32,7.55,7.73,7.74
101.25,4.59,-3.10,4.43,-3.25,3.25,0.00,4.01,7.84,7.69,7.69
102.27,4.64,-3.00,4.64,-3.00,3.00,0.00,3.71,7.64,7.64,7.64
103.29,4.82,-2.77,4.85,-2.74,2.74,0.00,3.40,7.56,7.59,7.59
104.32,5.07,-2.47,5.05,-2.49,2.49,0.00,3.10,7.56,7.54,7.55
105.37,5.41,-2.09,5.26,-2.23,2.23,0.00,2.80,7.63,7.49,7.50
106.42,5.55,-1.90,5.48,-1.96,1.96,0.00,2.51,7.51,7.44,7.45
107.48,5.68,-1.70,5.71,-1.68,1.68,0.00,2.22,7.36,7.38,7.39
108.56,6.00,-1.34,5.92,-1.41,1.41,0.00,1.93,7.41,7.33,7.34
109.64,6.32,-0.97,6.14,-1.14,1.14,0.00,1.65,7.46,7.28,7.29
110.74,6.39,-0.84,6.36,-0.87,0.87,0.00,1.37,7.26,7.23,7.23
111.85,6.35,-0.84,6.56,-0.62,0.62,0.00,1.10,6.97,7.18,7.19
112.97,6.60,-0.53,6.75,-0.38,0.38,0.00,0.84,6.97,7.13,7.13
114.10,6.87,-0.21,6.97,-0.11,0.11,0.00,0.58,6.98,7.08,7.08
115.24,7.13,0.10,7.17,0.13,-0.13,0.00,0.34,7.00,7.03,7.03
116.39,7.35,0.37,7.35,0.37,-0.37,0.00,0.10,6.98,6.99,6.98
117.55,7.54,0.60,7.52,0.58,-0.58,0.00,-0.12,6.96,6.95,6.94
118.73,7.70,0.80,7.72,0.81,-0.81,0.00,-0.33,6.89,6.91,6.90
119.92,7.94,1.07,7.90,1.04,-1.04,0.00,-0.53,6.90,6.87,6.87
121.12,8.33,1.50,8.07,1.24,-1.24,0.00,-0.72,7.09,6.83,6.83
122.33,8.40,1.60,8.24,1.44,-1.44,0.00,-0.89,6.96,6.80,6.80
123.55,8.38,1.61,8.42,1.65,-1.65,0.00,-1.05,6.73,6.76,6.77
124.79,8.41,1.67,8.58,1.85,-1.85,0.00,-1.19,6.56,6.73,6.74
126.03,8.67,1.96,8.71,2.01,-2.01,0.00,-1.32,6.66,6.70,6.71
127.29,8.75,2.06,8.86,2.18,-2.18,0.00,-1.44,6.57,6.67,6.69
128.57,8.83,2.18,8.98,2.34,-2.34,0.00,-1.54,6.49,6.64,6.65
129.85,9.00,2.38,9.08,2.47,-2.47,0.00,-1.63,6.53,6.62,6.62
131.15,9.39,2.80,9.16,2.57,-2.57,0.00,-1.71,6.82,6.59,6.59
132.46,9.21,2.65,9.21,2.65,-2.65,0.00,-1.77,6.56,6.56,6.56
133.79,9.20,2.67,9.22,2.69,-2.69,0.00,-1.82,6.51,6.53,6.53
135.12,9.48,2.98,9.21,2.71,-2.71,0.00,-1.86,6.77,6.50,6.50
136.48,9.40,2.92,9.23,2.76,-2.76,0.00,-1.90,6.64,6.47,6.48
137.84,9.37,2.93,9.23,2.79,-2.79,0.00,-1.92,6.58,6.45,6.44
139.22,9.43,3.02,9.23,2.81,-2.81,0.00,-1.94,6.62,6.42,6.41
140.61,9.41,3.03,9.22,2.83,-2.83,0.00,-1.95,6.58,6.39,6.38
142.02,9.03,2.67,9.24,2.89,-2.89,0.00,-1.95,6.14,6.36,6.36
143.44,8.94,2.61,9.29,2.97,-2.97,0.00,-1.95,5.97,6.32,6.33
144.87,8.94,2.65,9.34,3.06,-3.06,0.00,-1.95,5.88,6.28,6.29
146.32,9.04,2.79,9.39,3.15,-3.15,0.00,-1.95,5.89,6.24,6.25
147.78,9.06,2.85,9.46,3.27,-3.27,0.00,-1.94,5.80,6.19,6.22
149.26,9.49,3.32,9.51,3.38,-3.38,0.00,-1.93,6.11,6.14,6.17
150.75,9.71,3.60,9.57,3.50,-3.50,0.00,-1.93,6.21,6.08,6.11
152.26,9.64,3.60,9.64,3.63,-3.63,0.00,-1.92,6.01,6.02,6.04
153.78,9.98,4.01,9.69,3.74,-3.74,0.00,-1.91,6.24,5.95,5.97
155.32,10.19,4.29,9.71,3.83,-3.83,0.00,-1.91,6.36,5.88,5.90
156.88,10.20,4.38,9.72,3.90,-3.90,0.00,-1.91,6.30,5.81,5.82
158.44,10.02,4.28,9.73,3.99,-3.99,0.00,-1.90,6.03,5.74,5.74
160.03,9.70,4.04,9.71,4.04,-4.04,0.00,-1.91,5.66,5.67,5.66
161.63,9.53,3.94,9.67,4.06,-4.06,0.00,-1.91,5.47,5.61,5.59
163.24,9.49,3.96,9.61,4.07,-4.07,0.00,-1.92,5.42,5.55,5.53
164.88,9.52,4.04,9.54,4.05,-4.05,0.00,-1.93,5.47,5.49,5.48
166.53,9.37,3.94,9.46,4.02,-4.02,0.00,-1.95,5.35,5.44,5.43
168.19,9.12,3.73,9.42,4.01,-4.01,0.00,-1.97,5.11,5.40,5.39
169.87,9.04,3.69,9.39,4.02,-4.02,0.00,-1.99,5.02,5.37,5.35
171.57,9.03,3.70,9.36,4.02,-4.02,0.00,-2.01,5.01,5.34,5.33
173.29,9.30,3.98,9.36,4.03,-4.03,0.00,-2.05,5.27,5.32,5.32
175.02,9.66,4.35,9.38,4.07,-4.07,0.00,-2.08,5.59,5.31,5.31
176.77,9.54,4.24,9.42,4.12,-4.12,0.00,-2.12,5.42,5.30,5.30
178.54,9.47,4.18,9.48,4.19,-4.19,0.00,-2.16,5.28,5.29,5.29
180.32,9.57,4.27,9.54,4.25,-4.25,0.00,-2.21,5.32,5.29,5.30
182.13,9.65,4.34,9.58,4.29,-4.29,0.00,-2.26,5.36,5.28,5.31
183.95,9.78,4.48,9.60,4.32,-4.32,0.00,-2.32,5.46,5.28,5.30
185.79,9.82,4.52,9.64,4.37,-4.37,0.00,-2.37,5.45,5.27,5.30
187.65,9.62,4.34,9.65,4.39,-4.39,0.00,-2.44,5.23,5.26,5.28
189.52,9.53,4.26,9.63,4.37,-4.37,0.00,-2.50,5.16,5.25,5.27
191.42,9.50,4.25,9.58,4.34,-4.34,0.00,-2.57,5.16,5.24,5.25
193.33,9.52,4.29,9.52,4.30,-4.30,0.00,-2.65,5.22,5.22,5.23
195.27,9.59,4.38,9.47,4.27,-4.27,0.00,-2.72,5.32,5.21,5.21
197.22,9.55,4.36,9.42,4.23,-4.23,0.00,-2.80,5.32,5.19,5.19
199.19,9.34,4.17,9.36,4.19,-4.19,0.00,-2.89,5.15,5.17,5.17
201.18,9.11,3.96,9.30,4.15,-4.15,0.00,-2.97,4.96,5.15,5.15
203.19,9.16,4.03,9.23,4.10,-4.10,0.00,-3.06,5.06,5.13,5.13
205.23,9.23,4.12,9.15,4.04,-4.04,0.00,-3.15,5.19,5.11,5.11
207.28,8.98,3.88,9.08,4.00,-4.00,0.00,-3.23,4.98,5.09,5.10
209.35,8.94,3.86,9.03,3.97,-3.97,0.00,-3.33,4.97,5.07,5.08
211.44,9.09,4.04,8.98,3.92,-3.92,0.00,-3.42,5.17,5.05,5.05
213.56,9.01,3.97,8.91,3.88,-3.88,0.00,-3.51,5.13,5.04,5.04
215.69,8.88,3.85,8.85,3.82,-3.82,0.00,-3.59,5.05,5.02,5.03
217.85,8.65,3.63,8.79,3.78,-3.78,0.00,-3.68,4.87,5.01,5.02
220.03,8.78,3.77,8.74,3.74,-3.74,0.00,-3.77,5.04,5.00,5.01
222.23,8.80,3.82,8.70,3.70,-3.70,0.00,-3.85,5.09,5.00,4.98
224.45,8.51,3.52,8.65,3.66,-3.66,0.00,-3.93,4.85,4.99,4.99
226.70,8.52,3.53,8.59,3.60,-3.60,0.00,-4.00,4.92,4.99,4.99
228.96,8.69,3.69,8.54,3.54,-3.54,0.00,-4.07,5.15,5.00,5.00
231.25,8.52,3.51,8.50,3.49,-3.49,0.00,-4.13,5.03,5.01,5.01
233.57,8.44,3.42,8.45,3.43,-3.43,0.00,-4.19,5.01,5.02,5.02
235.90,8.38,3.35,8.40,3.37,-3.37,0.00,-4.24,5.01,5.03,5.03
238.26,8.36,3.32,8.37,3.32,-3.32,0.00,-4.28,5.04,5.05,5.04
240.64,8.32,3.25,8.34,3.27,-3.27,0.00,-4.31,5.05,5.07,5.07
243.05,8.28,3.18,8.31,3.22,-3.22,0.00,-4.33,5.06,5.09,5.10
245.48,8.26,3.14,8.27,3.16,-3.16,0.00,-4.35,5.10,5.11,5.12
247.93,8.20,3.05,8.25,3.11,-3.11,0.00,-4.35,5.09,5.14,5.15
250.41,8.19,3.02,8.23,3.07,-3.07,0.00,-4.34,5.12,5.16,5.17
252.92,8.21,3.01,8.19,3.01,-3.01,0.00,-4.33,5.20,5.18,5.20
255.45,8.20,2.98,8.15,2.94,-2.94,0.00,-4.30,5.26,5.21,5.22
258.00,8.15,2.91,8.12,2.89,-2.89,0.00,-4.26,5.26,5.23,5.24
260.58,8.08,2.82,8.08,2.82,-2.82,0.00,-4.22,5.26,5.26,5.26
263.19,8.04,2.75,8.02,2.74,-2.74,0.00,-4.16,5.30,5.28,5.29
265.82,8.03,2.72,7.96,2.65,-2.65,0.00,-4.10,5.38,5.31,5.31
268.48,7.95,2.62,7.91,2.58,-2.58,0.00,-4.02,5.37,5.33,5.33
271.16,7.89,2.53,7.85,2.49,-2.49,0.00,-3.94,5.40,5.36,5.36
273.87,7.82,2.44,7.79,2.40,-2.40,0.00,-3.85,5.41,5.38,5.38
276.61,7.64,2.23,7.71,2.31,-2.31,0.00,-3.76,5.33,5.41,5.41
279.38,7.51,2.07,7.64,2.20,-2.20,0.00,-3.66,5.31,5.43,5.44
282.17,7.56,2.10,7.56,2.10,-2.10,0.00,-3.55,5.46,5.46,5.46
284.99,7.47,1.97,7.47,1.98,-1.98,0.00,-3.44,5.49,5.49,5.50
287.84,7.26,1.74,7.39,1.87,-1.87,0.00,-3.32,5.39,5.52,5.52
290.72,7.28,1.73,7.30,1.75,-1.75,0.00,-3.21,5.53,5.55,5.55
293.63,7.27,1.69,7.21,1.63,-1.63,0.00,-3.09,5.64,5.58,5.58
296.57,7.31,1.70,7.11,1.51,-1.51,0.00,-2.96,5.80,5.61,5.61
299.53,6.96,1.32,6.99,1.36,-1.36,0.00,-2.84,5.60,5.64,5.64
302.53,6.89,1.23,6.88,1.22,-1.22,0.00,-2.71,5.67,5.66,5.66
305.55,6.75,1.05,6.77,1.08,-1.08,0.00,-2.59,5.67,5.69,5.70
308.61,6.68,0.96,6.64,0.93,-0.93,0.00,-2.46,5.75,5.71,5.72
311.69,6.51,0.76,6.48,0.75,-0.75,0.00,-2.33,5.76,5.74,5.75
314.81,6.34,0.57,6.32,0.56,-0.56,0.00,-2.21,5.77,5.76,5.77
317.96,6.25,0.46,6.18,0.40,-0.40,0.00,-2.08,5.85,5.78,5.79
321.14,6.09,0.29,6.01,0.21,-0.21,0.00,-1.95,5.88,5.80,5.80
324.35,5.88,0.06,5.83,0.01,-0.01,0.00,-1.83,5.87,5.82,5.82
327.59,5.57,-0.26,5.65,-0.18,0.18,0.00,-1.70,5.75,5.83,5.83
330.87,5.44,-0.40,5.53,-0.32,0.32,0.00,-1.58,5.75,5.84,5.84
334.18,5.55,-0.31,5.43,-0.43,0.43,0.00,-1.46,5.97,5.85,5.86
337.52,5.21,-0.66,5.29,-0.57,0.57,0.00,-1.34,5.78,5.87,5.87
340.90,4.92,-0.96,5.17,-0.70,0.70,0.00,-1.22,5.62,5.87,5.88
344.30,4.97,-0.92,5.07,-0.80,0.80,0.00,-1.10,5.77,5.88,5.89
347.75,5.11,-0.78,5.01,-0.88,0.88,0.00,-0.98,5.99,5.89,5.89
351.23,4.91,-0.99,4.95,-0.94,0.94,0.00,-0.86,5.85,5.89,5.90
354.74,4.72,-1.17,4.92,-0.97,0.97,0.00,-0.75,5.69,5.89,5.89
358.28,4.86,-1.04,4.89,-1.01,1.01,0.00,-0.63,5.87,5.90,5.90
361.87,5.05,-0.85,4.86,-1.03,1.03,0.00,-0.52,6.08,5.90,5.90
365.49,5.23,-0.68,4.84,-1.06,1.06,0.00,-0.41,6.29,5.90,5.91
369.14,4.64,-1.26,4.82,-1.07,1.07,0.00,-0.30,5.71,5.90,5.90
372.83,4.45,-1.45,4.81,-1.08,1.08,0.00,-0.19,5.53,5.90,5.90
376.56,4.96,-0.93,4.82,-1.08,1.08,0.00,-0.08,6.04,5.89,5.89
380.33,5.01,-0.89,4.81,-1.09,1.09,0.00,0.02,6.10,5.89,5.90
384.13,4.88,-1.02,4.77,-1.11,1.11,0.00,0.13,5.99,5.89,5.90
387.97,4.75,-1.14,4.74,-1.14,1.14,0.00,0.23,5.89,5.88,5.89
391.85,4.67,-1.21,4.72,-1.16,1.16,0.00,0.34,5.83,5.88,5.88
395.77,4.44,-1.45,4.68,-1.20,1.20,0.00,0.44,5.64,5.87,5.89
399.73,4.58,-1.30,4.62,-1.25,1.25,0.00,0.54,5.83,5.87,5.88
403.72,4.62,-1.26,4.56,-1.30,1.30,0.00,0.64,5.92,5.86,5.88
407.76,4.65,-1.21,4.48,-1.37,1.37,0.00,0.74,6.02,5.86,5.86
411.84,4.50,-1.36,4.41,-1.44,1.44,0.00,0.84,5.94,5.86,5.86
415.96,4.34,-1.52,4.31,-1.55,1.55,0.00,0.94,5.89,5.86,5.86
420.12,4.24,-1.62,4.17,-1.69,1.69,0.00,1.03,5.93,5.86,5.86
424.32,4.20,-1.66,4.07,-1.79,1.79,0.00,1.13,5.99,5.86,5.86
428.56,4.11,-1.76,4.01,-1.87,1.87,0.00,1.22,5.98,5.87,5.87
432.85,3.98,-1.90,3.95,-1.94,1.94,0.00,1.31,5.92,5.89,5.88
437.18,3.86,-2.03,3.91,-2.00,2.00,0.00,1.40,5.86,5.91,5.89
441.55,3.75,-2.18,3.88,-2.06,2.06,0.00,1.49,5.81,5.93,5.93
445.96,3.53,-2.43,3.84,-2.12,2.12,0.00,1.58,5.65,5.97,5.96
450.42,3.45,-2.54,3.84,-2.17,2.17,0.00,1.66,5.62,6.00,5.99
454.93,3.72,-2.32,3.85,-2.19,2.19,0.00,1.75,5.91,6.04,6.04
459.48,3.86,-2.22,3.88,-2.20,2.20,0.00,1.83,6.06,6.09,6.08
