frequency,raw,error,smoothed,error_smoothed,equalization,parametric_eq,fixed_band_eq,equalized_raw,equalized_smoothed,target
20.00,-12.26,-16.09,-12.28,-16.11,16.14,14.95,5.39,3.88,3.86,3.83
20.20,-12.21,-16.07,-12.19,-16.05,16.05,14.88,5.52,3.85,3.87,3.86
20.40,-12.11,-16.00,-12.09,-15.98,15.97,14.82,5.66,3.86,3.88,3.90
20.61,-11.98,-15.89,-11.98,-15.90,15.88,14.75,5.80,3.90,3.90,3.91
20.81,-11.84,-15.78,-11.85,-15.79,15.78,14.69,5.94,3.95,3.94,3.95
21.02,-11.72,-15.69,-11.72,-15.69,15.68,14.62,6.09,3.97,3.97,3.97
21.23,-11.60,-15.58,-11.59,-15.58,15.58,14.56,6.24,3.98,3.99,3.99
21.44,-11.47,-15.46,-11.47,-15.47,15.47,14.49,6.40,4.01,4.00,4.00
21.66,-11.35,-15.35,-11.35,-15.35,15.35,14.42,6.56,4.00,4.01,4.00
21.87,-11.23,-15.23,-11.22,-15.23,15.23,14.35,6.73,4.01,4.01,4.01
22.09,-11.10,-15.11,-11.10,-15.12,15.11,14.28,6.89,4.01,4.00,4.01
22.31,-10.99,-15.00,-10.98,-14.99,14.98,14.21,7.07,4.00,4.01,4.01
22.54,-10.85,-14.86,-10.85,-14.86,14.86,14.14,7.24,4.01,4.01,4.01
22.76,-10.72,-14.73,-10.72,-14.73,14.73,14.06,7.43,4.02,4.01,4.01
22.99,-10.60,-14.60,-10.60,-14.60,14.61,13.99,7.62,4.02,4.02,4.01
23.22,-10.48,-14.48,-10.48,-14.48,14.50,13.91,7.81,4.02,4.02,4.00
23.45,-10.37,-14.37,-10.37,-14.38,14.39,13.84,8.01,4.02,4.02,4.00
23.69,-10.27,-14.27,-10.27,-14.27,14.28,13.76,8.21,4.01,4.02,4.00
23.92,-10.18,-14.18,-10.17,-14.18,14.18,13.68,8.42,4.00,4.01,4.00
24.16,-10.07,-14.07,-10.08,-14.09,14.08,13.61,8.63,4.02,4.00,4.00
24.40,-10.01,-14.01,-9.99,-13.99,13.99,13.53,8.85,3.98,3.99,4.00
24.65,-9.90,-13.89,-9.90,-13.90,13.89,13.44,9.07,3.99,3.99,4.00
24.89,-9.81,-13.80,-9.80,-13.80,13.79,13.36,9.30,3.99,3.99,3.99
25.14,-9.70,-13.69,-9.70,-13.69,13.69,13.28,9.53,4.00,4.00,3.99
25.39,-9.59,-13.58,-9.59,-13.59,13.59,13.20,9.77,4.00,3.99,3.99
25.65,-9.49,-13.48,-9.49,-13.48,13.48,13.11,10.01,3.99,3.99,3.99
25.91,-9.38,-13.36,-9.38,-13.37,13.36,13.03,10.25,3.98,3.99,3.99
26.16,-9.27,-13.25,-9.26,-13.25,13.25,12.94,10.50,3.98,3.98,3.98
26.43,-9.14,-13.12,-9.14,-13.13,13.13,12.85,10.75,3.99,3.99,3.98
26.69,-9.02,-13.00,-9.02,-13.00,13.01,12.76,11.00,3.99,3.99,3.98
26.96,-8.90,-12.88,-8.90,-12.89,12.89,12.67,11.25,3.99,3.98,3.98
27.23,-8.79,-12.76,-8.79,-12.77,12.76,12.58,11.50,3.97,3.97,3.98
27.50,-8.68,-12.65,-8.67,-12.64,12.64,12.48,11.75,3.96,3.97,3.97
27.77,-8.55,-12.51,-8.55,-12.51,12.51,12.39,12.00,3.96,3.96,3.96
28.05,-8.41,-12.37,-8.42,-12.38,12.38,12.29,12.24,3.98,3.96,3.96
28.33,-8.30,-12.25,-8.29,-12.25,12.25,12.20,12.47,3.96,3.97,3.95
28.62,-8.17,-12.12,-8.17,-12.12,12.13,12.10,12.70,3.96,3.96,3.95
28.90,-8.04,-11.99,-8.05,-12.00,12.00,12.00,12.90,3.96,3.95,3.95
29.19,-7.93,-11.87,-7.92,-11.87,11.87,11.90,13.10,3.94,3.95,3.94
29.48,-7.80,-11.74,-7.80,-11.74,11.74,11.79,13.27,3.94,3.94,3.94
29.78,-7.67,-11.60,-7.68,-11.62,11.61,11.69,13.43,3.94,3.93,3.94
30.08,-7.56,-11.49,-7.55,-11.48,11.48,11.58,13.56,3.92,3.94,3.93
30.38,-7.43,-11.35,-7.42,-11.35,11.36,11.48,13.67,3.93,3.93,3.93
30.68,-7.29,-11.21,-7.31,-11.23,11.23,11.37,13.73,3.94,3.92,3.92
30.99,-7.19,-11.10,-7.19,-11.10,11.10,11.26,13.79,3.91,3.91,3.92
31.30,-7.08,-10.98,-7.06,-10.97,10.97,11.15,13.79,3.89,3.91,3.91
31.61,-6.94,-10.84,-6.94,-10.84,10.84,11.03,13.78,3.90,3.90,3.90
31.93,-6.81,-10.70,-6.82,-10.71,10.72,10.92,13.72,3.91,3.90,3.90
32.24,-6.70,-10.58,-6.70,-10.59,10.59,10.80,13.65,3.89,3.89,3.88
32.57,-6.59,-10.47,-6.58,-10.46,10.46,10.68,13.54,3.87,3.88,3.88
32.89,-6.46,-10.33,-6.46,-10.33,10.33,10.56,13.41,3.88,3.87,3.87
33.22,-6.34,-10.20,-6.34,-10.21,10.21,10.44,13.24,3.87,3.87,3.86
33.55,-6.22,-10.08,-6.22,-10.08,10.08,10.32,13.07,3.86,3.86,3.86
33.89,-6.11,-9.96,-6.10,-9.95,9.95,10.20,12.87,3.84,3.85,3.86
34.23,-5.98,-9.82,-5.98,-9.82,9.82,10.07,12.66,3.84,3.84,3.85
34.57,-5.85,-9.68,-5.86,-9.69,9.70,9.95,12.44,3.85,3.84,3.83
34.92,-5.74,-9.56,-5.74,-9.56,9.57,9.82,12.21,3.83,3.83,3.83
35.27,-5.63,-9.44,-5.63,-9.44,9.45,9.69,11.97,3.82,3.82,3.82
35.62,-5.52,-9.32,-5.52,-9.32,9.32,9.57,11.73,3.80,3.81,3.81
35.97,-5.41,-9.20,-5.41,-9.20,9.20,9.44,11.48,3.80,3.79,3.79
36.33,-5.30,-9.08,-5.30,-9.09,9.08,9.32,11.23,3.79,3.78,3.78
36.70,-5.20,-8.97,-5.19,-8.97,8.97,9.19,10.99,3.77,3.77,3.78
37.06,-5.09,-8.85,-5.08,-8.85,8.85,9.07,10.74,3.77,3.77,3.76
37.43,-4.98,-8.73,-4.98,-8.73,8.74,8.95,10.50,3.76,3.76,3.75
37.81,-4.87,-8.61,-4.87,-8.62,8.62,8.82,10.25,3.75,3.75,3.75
38.19,-4.78,-8.51,-4.77,-8.51,8.50,8.70,10.02,3.73,3.73,3.74
38.57,-4.67,-8.39,-4.67,-8.39,8.39,8.58,9.78,3.72,3.72,3.73
38.95,-4.57,-8.28,-4.57,-8.28,8.27,8.46,9.55,3.71,3.71,3.71
39.34,-4.46,-8.15,-4.45,-8.15,8.16,8.34,9.32,3.70,3.70,3.69
39.74,-4.35,-8.03,-4.35,-8.04,8.04,8.23,9.10,3.69,3.69,3.69
40.14,-4.24,-7.91,-4.24,-7.92,7.93,8.11,8.89,3.69,3.68,3.68
40.54,-4.15,-7.81,-4.14,-7.81,7.81,7.99,8.68,3.66,3.67,3.67
40.94,-4.04,-7.69,-4.04,-7.70,7.69,7.87,8.47,3.66,3.65,3.65
41.35,-3.94,-7.58,-3.94,-7.58,7.58,7.75,8.27,3.64,3.64,3.64
41.76,-3.83,-7.46,-3.83,-7.46,7.46,7.63,8.07,3.63,3.63,3.63
42.18,-3.72,-7.34,-3.72,-7.34,7.34,7.51,7.88,3.62,3.62,3.62
42.60,-3.61,-7.22,-3.61,-7.22,7.22,7.38,7.70,3.61,3.61,3.61
43.03,-3.50,-7.10,-3.50,-7.10,7.10,7.26,7.52,3.60,3.60,3.60
43.46,-3.39,-6.97,-3.39,-6.98,6.98,7.14,7.34,3.59,3.59,3.58
43.90,-3.29,-6.85,-3.29,-6.85,6.86,7.01,7.17,3.57,3.57,3.57
44.33,-3.20,-6.74,-3.19,-6.73,6.74,6.89,7.00,3.54,3.55,3.54
44.78,-3.09,-6.61,-3.10,-6.62,6.63,6.76,6.84,3.54,3.53,3.53
45.23,-3.01,-6.51,-3.00,-6.51,6.52,6.63,6.69,3.51,3.51,3.51
45.68,-2.92,-6.41,-2.91,-6.40,6.41,6.51,6.53,3.49,3.49,3.50
46.13,-2.81,-6.28,-2.82,-6.30,6.30,6.38,6.39,3.49,3.48,3.47
46.60,-2.75,-6.21,-2.73,-6.20,6.20,6.25,6.24,3.45,3.46,3.47
47.06,-2.64,-6.08,-2.65,-6.09,6.09,6.12,6.10,3.45,3.44,3.44
47.53,-2.57,-5.99,-2.56,-5.99,5.98,5.99,5.97,3.42,3.42,3.42
48.01,-2.47,-5.88,-2.47,-5.88,5.87,5.86,5.84,3.41,3.40,3.42
48.49,-2.39,-5.77,-2.39,-5.77,5.76,5.73,5.71,3.38,3.38,3.39
48.97,-2.30,-5.65,-2.30,-5.66,5.65,5.60,5.58,3.36,3.36,3.35
49.46,-2.23,-5.55,-2.22,-5.54,5.54,5.48,5.46,3.32,3.33,3.32
49.96,-2.12,-5.41,-2.13,-5.43,5.44,5.35,5.35,3.32,3.30,3.30
50.46,-2.06,-5.33,-2.05,-5.32,5.33,5.22,5.23,3.27,3.28,3.28
50.96,-1.96,-5.21,-1.97,-5.22,5.22,5.10,5.12,3.27,3.26,3.25
51.47,-1.89,-5.11,-1.89,-5.12,5.12,4.97,5.01,3.23,3.23,3.22
51.99,-1.83,-5.03,-1.82,-5.02,5.02,4.85,4.91,3.19,3.20,3.21
52.51,-1.74,-4.92,-1.74,-4.93,4.92,4.73,4.81,3.18,3.18,3.19
53.03,-1.67,-4.83,-1.66,-4.83,4.82,4.61,4.71,3.16,3.16,3.16
53.56,-1.59,-4.72,-1.59,-4.73,4.73,4.49,4.61,3.14,3.14,3.13
54.10,-1.52,-4.63,-1.52,-4.64,4.64,4.37,4.51,3.12,3.11,3.12
54.64,-1.47,-4.55,-1.45,-4.54,4.55,4.26,4.42,3.08,3.09,3.09
55.18,-1.39,-4.45,-1.39,-4.46,4.46,4.15,4.33,3.07,3.07,3.06
55.74,-1.33,-4.36,-1.34,-4.38,4.38,4.04,4.24,3.05,3.04,3.04
56.29,-1.30,-4.31,-1.28,-4.30,4.30,3.93,4.16,3.00,3.02,3.01
56.86,-1.24,-4.23,-1.24,-4.23,4.23,3.82,4.07,2.99,2.99,3.00
57.42,-1.19,-4.15,-1.19,-4.16,4.16,3.72,3.99,2.97,2.97,2.96
58.00,-1.15,-4.09,-1.14,-4.09,4.10,3.62,3.91,2.95,2.95,2.95
58.58,-1.10,-4.02,-1.10,-4.03,4.03,3.53,3.83,2.94,2.93,2.93
59.16,-1.07,-3.97,-1.06,-3.97,3.97,3.43,3.75,2.90,2.90,2.90
59.76,-1.03,-3.91,-1.03,-3.91,3.90,3.34,3.67,2.87,2.87,2.89
60.35,-0.99,-3.84,-0.99,-3.85,3.83,3.25,3.60,2.85,2.84,2.85
60.96,-0.96,-3.78,-0.95,-3.77,3.76,3.17,3.52,2.80,2.81,2.83
61.57,-0.90,-3.68,-0.90,-3.69,3.69,3.09,3.45,2.79,2.79,2.79
62.18,-0.85,-3.60,-0.85,-3.61,3.61,3.01,3.38,2.76,2.76,2.75
62.80,-0.81,-3.53,-0.80,-3.52,3.53,2.93,3.31,2.72,2.73,2.72
63.43,-0.75,-3.44,-0.75,-3.45,3.45,2.86,3.24,2.70,2.70,2.69
64.07,-0.71,-3.37,-0.70,-3.37,3.37,2.79,3.17,2.66,2.67,2.67
64.71,-0.65,-3.29,-0.65,-3.29,3.29,2.73,3.10,2.64,2.64,2.65
65.35,-0.60,-3.21,-0.60,-3.21,3.21,2.66,3.03,2.62,2.61,2.61
66.01,-0.55,-3.13,-0.55,-3.13,3.14,2.60,2.96,2.59,2.59,2.59
66.67,-0.51,-3.06,-0.51,-3.06,3.06,2.54,2.89,2.55,2.55,2.56
67.33,-0.46,-2.98,-0.46,-2.99,2.99,2.49,2.83,2.53,2.53,2.52
68.01,-0.43,-2.92,-0.42,-2.91,2.91,2.43,2.76,2.49,2.49,2.50
68.69,-0.37,-2.83,-0.37,-2.84,2.84,2.38,2.70,2.47,2.47,2.47
69.37,-0.34,-2.77,-0.33,-2.77,2.77,2.33,2.63,2.43,2.44,2.43
70.07,-0.29,-2.69,-0.29,-2.70,2.70,2.28,2.57,2.41,2.41,2.41
70.77,-0.26,-2.63,-0.26,-2.63,2.63,2.24,2.51,2.37,2.37,2.38
71.48,-0.23,-2.57,-0.22,-2.57,2.56,2.20,2.44,2.33,2.34,2.35
72.19,-0.19,-2.49,-0.19,-2.49,2.49,2.15,2.38,2.30,2.30,2.30
72.91,-0.15,-2.42,-0.15,-2.42,2.42,2.11,2.32,2.27,2.27,2.27
73.64,-0.11,-2.34,-0.11,-2.35,2.36,2.07,2.26,2.25,2.24,2.23
74.38,-0.10,-2.30,-0.09,-2.29,2.29,2.04,2.20,2.20,2.21,2.21
75.12,-0.05,-2.21,-0.06,-2.23,2.23,2.00,2.15,2.19,2.17,2.16
75.87,-0.05,-2.18,-0.04,-2.18,2.17,1.96,2.09,2.13,2.14,2.13
76.63,-0.01,-2.11,-0.02,-2.12,2.12,1.93,2.03,2.11,2.10,2.10
77.40,-0.01,-2.08,0.00,-2.07,2.06,1.90,1.98,2.06,2.07,2.08
78.17,0.03,-2.00,0.02,-2.02,2.01,1.86,1.92,2.04,2.03,2.03
78.95,0.04,-1.96,0.04,-1.96,1.96,1.83,1.87,2.00,2.00,2.00
79.74,0.05,-1.92,0.06,-1.91,1.91,1.79,1.81,1.96,1.98,1.97
80.54,0.09,-1.84,0.08,-1.86,1.86,1.76,1.76,1.95,1.94,1.93
81.35,0.09,-1.81,0.10,-1.81,1.81,1.73,1.71,1.90,1.90,1.91
82.16,0.10,-1.76,0.11,-1.76,1.76,1.70,1.66,1.86,1.87,1.86
82.98,0.13,-1.70,0.12,-1.71,1.71,1.66,1.61,1.84,1.83,1.83
83.81,0.13,-1.66,0.14,-1.66,1.66,1.63,1.56,1.79,1.79,1.79
84.65,0.14,-1.61,0.16,-1.60,1.61,1.60,1.51,1.75,1.76,1.75
85.50,0.18,-1.54,0.17,-1.55,1.56,1.56,1.46,1.74,1.72,1.73
86.35,0.18,-1.50,0.18,-1.51,1.50,1.53,1.42,1.69,1.68,1.68
87.22,0.18,-1.46,0.19,-1.46,1.45,1.49,1.37,1.63,1.64,1.65
88.09,0.18,-1.42,0.20,-1.41,1.40,1.46,1.32,1.58,1.60,1.61
88.97,0.23,-1.33,0.22,-1.35,1.35,1.42,1.28,1.58,1.56,1.57
89.86,0.23,-1.29,0.23,-1.29,1.30,1.39,1.24,1.53,1.53,1.53
90.76,0.23,-1.24,0.24,-1.24,1.25,1.35,1.19,1.48,1.49,1.48
91.66,0.23,-1.20,0.23,-1.20,1.20,1.31,1.15,1.44,1.44,1.43
92.58,0.23,-1.15,0.23,-1.16,1.16,1.28,1.11,1.39,1.39,1.38
93.51,0.23,-1.11,0.23,-1.11,1.11,1.24,1.06,1.34,1.34,1.35
94.44,0.23,-1.07,0.23,-1.07,1.06,1.20,1.02,1.30,1.30,1.30
95.39,0.23,-1.02,0.23,-1.02,1.02,1.16,0.98,1.25,1.25,1.26
96.34,0.23,-0.97,0.23,-0.97,0.97,1.11,0.94,1.20,1.20,1.20
97.30,0.23,-0.92,0.23,-0.92,0.92,1.07,0.90,1.15,1.15,1.15
98.28,0.23,-0.87,0.23,-0.88,0.88,1.03,0.86,1.11,1.11,1.11
99.26,0.23,-0.83,0.23,-0.83,0.83,0.99,0.82,1.06,1.06,1.07
100.25,0.23,-0.78,0.24,-0.78,0.79,0.94,0.78,1.02,1.02,1.01
101.25,0.23,-0.73,0.23,-0.74,0.74,0.90,0.75,0.98,0.97,0.96
102.27,0.23,-0.68,0.22,-0.70,0.70,0.85,0.71,0.94,0.92,0.92
103.29,0.18,-0.68,0.20,-0.67,0.67,0.80,0.67,0.85,0.87,0.87
104.32,0.18,-0.64,0.19,-0.64,0.63,0.76,0.64,0.81,0.82,0.82
105.37,0.18,-0.59,0.18,-0.60,0.59,0.71,0.60,0.78,0.77,0.78
106.42,0.18,-0.54,0.17,-0.55,0.56,0.66,0.56,0.74,0.73,0.73
107.48,0.16,-0.51,0.16,-0.52,0.52,0.61,0.53,0.68,0.68,0.67
108.56,0.13,-0.49,0.14,-0.48,0.48,0.56,0.49,0.61,0.62,0.63
109.64,0.13,-0.44,0.14,-0.44,0.43,0.51,0.46,0.56,0.57,0.57
110.74,0.13,-0.39,0.14,-0.39,0.38,0.46,0.43,0.52,0.52,0.52
111.85,0.16,-0.31,0.14,-0.33,0.33,0.41,0.39,0.50,0.48,0.48
112.97,0.13,-0.28,0.14,-0.28,0.28,0.36,0.36,0.41,0.42,0.42
114.10,0.13,-0.23,0.13,-0.23,0.22,0.31,0.33,0.36,0.36,0.37
115.24,0.13,-0.17,0.13,-0.18,0.17,0.26,0.30,0.30,0.30,0.31
116.39,0.13,-0.12,0.15,-0.11,0.11,0.21,0.27,0.24,0.26,0.26
117.55,0.16,-0.03,0.15,-0.05,0.06,0.16,0.24,0.22,0.21,0.19
118.73,0.16,0.02,0.15,0.01,0.01,0.12,0.21,0.17,0.16,0.15
119.92,0.13,0.04,0.15,0.05,-0.05,0.07,0.18,0.09,0.10,0.10
121.12,0.13,0.09,0.13,0.09,-0.10,0.02,0.15,0.04,0.04,0.05
122.33,0.13,0.14,0.13,0.13,-0.14,-0.03,0.12,-0.01,-0.02,-0.00
123.55,0.13,0.19,0.13,0.19,-0.19,-0.07,0.09,-0.06,-0.06,-0.05
124.79,0.13,0.24,0.14,0.24,-0.24,-0.12,0.07,-0.10,-0.10,-0.10
126.03,0.13,0.29,0.13,0.29,-0.28,-0.16,0.04,-0.15,-0.15,-0.16
127.29,0.13,0.34,0.12,0.33,-0.33,-0.20,0.01,-0.19,-0.21,-0.21
128.57,0.09,0.36,0.11,0.37,-0.37,-0.24,-0.01,-0.28,-0.27,-0.26
129.85,0.09,0.41,0.09,0.41,-0.41,-0.28,-0.04,-0.32,-0.32,-0.32
131.15,0.09,0.46,0.09,0.46,-0.46,-0.32,-0.06,-0.36,-0.36,-0.37
132.46,0.09,0.51,0.09,0.50,-0.49,-0.36,-0.09,-0.40,-0.40,-0.42
133.79,0.09,0.55,0.08,0.53,-0.53,-0.40,-0.11,-0.44,-0.46,-0.45
135.12,0.04,0.55,0.06,0.56,-0.57,-0.44,-0.13,-0.53,-0.51,-0.51
136.48,0.04,0.59,0.05,0.60,-0.60,-0.47,-0.16,-0.56,-0.55,-0.54
137.84,0.04,0.64,0.04,0.63,-0.63,-0.51,-0.18,-0.59,-0.60,-0.60
139.22,0.04,0.69,0.03,0.67,-0.66,-0.54,-0.20,-0.62,-0.63,-0.64
140.61,-0.01,0.68,0.01,0.69,-0.69,-0.58,-0.23,-0.69,-0.68,-0.69
142.02,-0.01,0.71,-0.01,0.71,-0.71,-0.61,-0.25,-0.72,-0.72,-0.71
143.44,-0.03,0.73,-0.03,0.73,-0.73,-0.64,-0.27,-0.76,-0.76,-0.75
144.87,-0.05,0.75,-0.04,0.75,-0.75,-0.67,-0.29,-0.80,-0.79,-0.80
146.32,-0.05,0.79,-0.06,0.77,-0.77,-0.70,-0.32,-0.81,-0.83,-0.84
147.78,-0.10,0.77,-0.08,0.78,-0.78,-0.73,-0.34,-0.88,-0.87,-0.87
149.26,-0.10,0.81,-0.11,0.80,-0.80,-0.76,-0.37,-0.90,-0.91,-0.91
150.75,-0.14,0.81,-0.13,0.81,-0.82,-0.79,-0.39,-0.96,-0.95,-0.95
152.26,-0.15,0.84,-0.14,0.84,-0.84,-0.82,-0.41,-0.99,-0.99,-0.99
153.78,-0.15,0.88,-0.16,0.87,-0.87,-0.85,-0.44,-1.02,-1.03,-1.03
155.32,-0.16,0.91,-0.17,0.90,-0.90,-0.88,-0.46,-1.06,-1.06,-1.07
156.88,-0.19,0.92,-0.18,0.93,-0.93,-0.91,-0.49,-1.12,-1.11,-1.10
158.44,-0.19,0.96,-0.19,0.96,-0.96,-0.93,-0.52,-1.15,-1.15,-1.15
160.03,-0.19,1.00,-0.19,1.00,-1.00,-0.96,-0.54,-1.19,-1.19,-1.18
161.63,-0.19,1.04,-0.19,1.04,-1.04,-0.98,-0.57,-1.23,-1.23,-1.22
163.24,-0.19,1.08,-0.19,1.07,-1.08,-1.01,-0.60,-1.26,-1.26,-1.27
164.88,-0.19,1.11,-0.18,1.12,-1.11,-1.03,-0.63,-1.30,-1.29,-1.29
166.53,-0.19,1.15,-0.19,1.15,-1.14,-1.06,-0.66,-1.33,-1.33,-1.33
168.19,-0.19,1.19,-0.20,1.18,-1.17,-1.08,-0.69,-1.35,-1.37,-1.38
169.87,-0.24,1.18,-0.22,1.19,-1.19,-1.10,-0.72,-1.42,-1.41,-1.42
171.57,-0.24,1.22,-0.25,1.20,-1.20,-1.12,-0.75,-1.44,-1.45,-1.46
173.29,-0.29,1.20,-0.29,1.20,-1.21,-1.15,-0.78,-1.49,-1.49,-1.48
175.02,-0.33,1.20,-0.32,1.21,-1.21,-1.17,-0.82,-1.53,-1.52,-1.53
176.77,-0.36,1.21,-0.37,1.20,-1.20,-1.19,-0.85,-1.56,-1.57,-1.57
178.54,-0.41,1.20,-0.41,1.19,-1.19,-1.20,-0.88,-1.60,-1.60,-1.60
180.32,-0.47,1.18,-0.46,1.18,-1.18,-1.22,-0.92,-1.64,-1.64,-1.65
182.13,-0.52,1.16,-0.52,1.16,-1.16,-1.24,-0.96,-1.68,-1.68,-1.67
183.95,-0.57,1.15,-0.57,1.14,-1.15,-1.26,-0.99,-1.71,-1.72,-1.71
185.79,-0.63,1.12,-0.62,1.12,-1.13,-1.27,-1.03,-1.76,-1.75,-1.74
187.65,-0.68,1.11,-0.68,1.11,-1.11,-1.29,-1.07,-1.79,-1.79,-1.78
189.52,-0.72,1.10,-0.72,1.09,-1.10,-1.30,-1.11,-1.82,-1.82,-1.82
191.42,-0.77,1.08,-0.76,1.08,-1.09,-1.31,-1.15,-1.85,-1.85,-1.84
193.33,-0.80,1.08,-0.81,1.07,-1.07,-1.33,-1.19,-1.87,-1.88,-1.88
195.27,-0.86,1.05,-0.85,1.06,-1.06,-1.34,-1.23,-1.91,-1.91,-1.90
197.22,-0.89,1.05,-0.89,1.04,-1.04,-1.35,-1.27,-1.93,-1.93,-1.93
199.19,-0.94,1.03,-0.94,1.02,-1.02,-1.36,-1.31,-1.96,-1.96,-1.97
201.18,-0.99,1.00,-0.99,1.00,-0.99,-1.37,-1.36,-1.98,-1.98,-1.99
203.19,-1.05,0.96,-1.04,0.96,-0.96,-1.37,-1.40,-2.01,-2.00,-2.01
205.23,-1.10,0.93,-1.10,0.92,-0.92,-1.38,-1.44,-2.02,-2.02,-2.02
207.28,-1.16,0.88,-1.16,0.88,-0.87,-1.39,-1.48,-2.03,-2.03,-2.04
209.35,-1.23,0.83,-1.23,0.83,-0.81,-1.39,-1.52,-2.04,-2.04,-2.06
211.44,-1.30,0.78,-1.30,0.77,-0.75,-1.40,-1.57,-2.05,-2.05,-2.08
213.56,-1.38,0.71,-1.38,0.71,-0.69,-1.40,-1.61,-2.07,-2.07,-2.09
215.69,-1.45,0.64,-1.45,0.64,-0.63,-1.40,-1.64,-2.08,-2.08,-2.09
217.85,-1.52,0.58,-1.52,0.58,-0.59,-1.41,-1.68,-2.10,-2.10,-2.10
220.03,-1.57,0.54,-1.57,0.54,-0.56,-1.41,-1.72,-2.12,-2.12,-2.11
222.23,-1.59,0.53,-1.59,0.52,-0.55,-1.41,-1.75,-2.13,-2.13,-2.12
224.45,-1.59,0.53,-1.58,0.54,-0.56,-1.41,-1.79,-2.15,-2.14,-2.12
226.70,-1.53,0.59,-1.53,0.58,-0.61,-1.41,-1.82,-2.14,-2.14,-2.12
228.96,-1.46,0.66,-1.45,0.66,-0.68,-1.40,-1.85,-2.14,-2.14,-2.11
231.25,-1.34,0.77,-1.34,0.77,-0.79,-1.40,-1.88,-2.12,-2.12,-2.11
233.57,-1.20,0.91,-1.20,0.90,-0.91,-1.40,-1.90,-2.11,-2.11,-2.11
235.90,-1.06,1.05,-1.05,1.05,-1.05,-1.39,-1.92,-2.10,-2.10,-2.11
238.26,-0.90,1.20,-0.89,1.20,-1.19,-1.39,-1.94,-2.09,-2.09,-2.10
240.64,-0.74,1.35,-0.74,1.35,-1.34,-1.38,-1.96,-2.07,-2.07,-2.08
243.05,-0.58,1.50,-0.59,1.49,-1.47,-1.37,-1.97,-2.05,-2.06,-2.08
245.48,-0.46,1.61,-0.45,1.61,-1.60,-1.37,-1.98,-2.05,-2.05,-2.07
247.93,-0.34,1.72,-0.34,1.72,-1.70,-1.36,-1.98,-2.04,-2.04,-2.05
250.41,-0.24,1.81,-0.24,1.80,-1.79,-1.35,-1.98,-2.03,-2.03,-2.04
252.92,-0.16,1.87,-0.16,1.87,-1.86,-1.34,-1.98,-2.02,-2.02,-2.03
255.45,-0.10,1.91,-0.10,1.91,-1.91,-1.33,-1.98,-2.01,-2.01,-2.01
258.00,-0.06,1.94,-0.05,1.94,-1.94,-1.32,-1.97,-2.00,-1.99,-1.99
260.58,-0.01,1.97,-0.02,1.95,-1.95,-1.31,-1.95,-1.96,-1.97,-1.97
263.19,-0.01,1.95,-0.01,1.95,-1.95,-1.30,-1.94,-1.96,-1.96,-1.96
265.82,-0.01,1.93,-0.00,1.93,-1.93,-1.28,-1.92,-1.94,-1.93,-1.94
268.48,-0.01,1.91,-0.01,1.91,-1.90,-1.27,-1.90,-1.91,-1.91,-1.92
271.16,-0.02,1.88,-0.02,1.87,-1.87,-1.26,-1.87,-1.88,-1.89,-1.89
273.87,-0.05,1.83,-0.05,1.82,-1.82,-1.24,-1.85,-1.87,-1.87,-1.87
276.61,-0.10,1.76,-0.09,1.77,-1.77,-1.23,-1.82,-1.87,-1.86,-1.85
279.38,-0.12,1.72,-0.13,1.71,-1.72,-1.22,-1.79,-1.84,-1.84,-1.84
282.17,-0.17,1.65,-0.16,1.65,-1.66,-1.20,-1.75,-1.83,-1.82,-1.81
284.99,-0.19,1.61,-0.19,1.60,-1.61,-1.18,-1.72,-1.79,-1.80,-1.79
287.84,-0.23,1.55,-0.23,1.55,-1.55,-1.17,-1.68,-1.78,-1.78,-1.77
290.72,-0.26,1.50,-0.26,1.50,-1.50,-1.15,-1.64,-1.76,-1.76,-1.75
293.63,-0.29,1.45,-0.29,1.44,-1.45,-1.13,-1.60,-1.73,-1.74,-1.74
296.57,-0.33,1.39,-0.32,1.40,-1.39,-1.12,-1.56,-1.72,-1.71,-1.72
299.53,-0.35,1.35,-0.35,1.34,-1.34,-1.10,-1.52,-1.69,-1.69,-1.69
302.53,-0.38,1.30,-0.38,1.29,-1.29,-1.08,-1.48,-1.67,-1.67,-1.68
305.55,-0.42,1.23,-0.41,1.24,-1.24,-1.06,-1.44,-1.65,-1.64,-1.64
308.61,-0.43,1.20,-0.44,1.18,-1.18,-1.04,-1.40,-1.61,-1.62,-1.63
311.69,-0.47,1.13,-0.46,1.13,-1.13,-1.03,-1.36,-1.60,-1.59,-1.59
314.81,-0.49,1.08,-0.49,1.08,-1.08,-1.01,-1.31,-1.57,-1.57,-1.57
317.96,-0.52,1.03,-0.52,1.02,-1.03,-0.99,-1.27,-1.55,-1.55,-1.55
321.14,-0.55,0.98,-0.54,0.98,-0.98,-0.97,-1.23,-1.53,-1.53,-1.53
324.35,-0.57,0.94,-0.57,0.93,-0.94,-0.95,-1.19,-1.51,-1.51,-1.51
327.59,-0.59,0.90,-0.58,0.90,-0.90,-0.93,-1.15,-1.48,-1.48,-1.48
330.87,-0.61,0.86,-0.60,0.86,-0.86,-0.91,-1.11,-1.47,-1.46,-1.47
334.18,-0.61,0.84,-0.63,0.82,-0.82,-0.88,-1.07,-1.43,-1.45,-1.45
337.52,-0.66,0.77,-0.64,0.78,-0.79,-0.86,-1.03,-1.44,-1.43,-1.43
340.90,-0.66,0.75,-0.65,0.75,-0.75,-0.84,-0.99,-1.41,-1.40,-1.41
344.30,-0.66,0.73,-0.66,0.72,-0.72,-0.82,-0.95,-1.38,-1.38,-1.38
347.75,-0.66,0.71,-0.67,0.69,-0.69,-0.80,-0.91,-1.35,-1.36,-1.37
351.23,-0.71,0.64,-0.69,0.65,-0.66,-0.78,-0.88,-1.36,-1.35,-1.35
354.74,-0.71,0.62,-0.70,0.63,-0.63,-0.76,-0.84,-1.34,-1.33,-1.33
358.28,-0.71,0.61,-0.71,0.60,-0.60,-0.73,-0.81,-1.31,-1.31,-1.31
361.87,-0.71,0.59,-0.72,0.57,-0.57,-0.71,-0.77,-1.28,-1.29,-1.30
365.49,-0.75,0.53,-0.73,0.54,-0.54,-0.69,-0.74,-1.29,-1.28,-1.28
369.14,-0.75,0.52,-0.74,0.52,-0.52,-0.67,-0.70,-1.26,-1.26,-1.27
372.83,-0.75,0.50,-0.75,0.49,-0.49,-0.65,-0.67,-1.24,-1.24,-1.25
376.56,-0.75,0.49,-0.76,0.47,-0.46,-0.62,-0.64,-1.21,-1.23,-1.24
380.33,-0.80,0.42,-0.78,0.44,-0.44,-0.60,-0.61,-1.24,-1.22,-1.22
384.13,-0.80,0.41,-0.80,0.41,-0.42,-0.58,-0.58,-1.22,-1.21,-1.21
387.97,-0.80,0.40,-0.80,0.39,-0.40,-0.56,-0.55,-1.20,-1.20,-1.20
391.85,-0.80,0.39,-0.80,0.38,-0.38,-0.53,-0.52,-1.18,-1.18,-1.19
395.77,-0.80,0.37,-0.80,0.37,-0.37,-0.51,-0.49,-1.17,-1.17,-1.17
399.73,-0.80,0.36,-0.80,0.36,-0.36,-0.49,-0.46,-1.15,-1.15,-1.16
403.72,-0.80,0.35,-0.80,0.35,-0.35,-0.47,-0.43,-1.14,-1.14,-1.15
407.76,-0.80,0.34,-0.80,0.34,-0.34,-0.44,-0.41,-1.13,-1.13,-1.14
411.84,-0.80,0.33,-0.80,0.33,-0.33,-0.42,-0.38,-1.12,-1.12,-1.13
415.96,-0.80,0.32,-0.80,0.32,-0.32,-0.40,-0.36,-1.12,-1.12,-1.12
420.12,-0.80,0.31,-0.80,0.31,-0.31,-0.38,-0.33,-1.11,-1.11,-1.11
424.32,-0.80,0.30,-0.80,0.30,-0.30,-0.36,-0.31,-1.10,-1.10,-1.10
428.56,-0.80,0.29,-0.80,0.29,-0.29,-0.33,-0.28,-1.09,-1.09,-1.09
432.85,-0.80,0.28,-0.80,0.28,-0.28,-0.31,-0.26,-1.08,-1.08,-1.08
437.18,-0.80,0.27,-0.80,0.26,-0.27,-0.29,-0.24,-1.06,-1.06,-1.07
441.55,-0.80,0.25,-0.80,0.25,-0.25,-0.27,-0.22,-1.05,-1.05,-1.05
445.96,-0.80,0.24,-0.80,0.24,-0.24,-0.25,-0.20,-1.03,-1.03,-1.04
450.42,-0.80,0.23,-0.80,0.22,-0.22,-0.23,-0.18,-1.01,-1.01,-1.03
454.93,-0.80,0.21,-0.80,0.20,-0.20,-0.21,-0.16,-0.99,-1.00,-1.01
459.48,-0.82,0.18,-0.82,0.18,-0.17,-0.19,-0.14,-0.99,-0.99,-1.00
