frequency,raw,error,smoothed,error_smoothed,equalization,parametric_eq,fixed_band_eq,equalized_raw,equalized_smoothed,target
20.00,5.65,-0.17,5.66,-0.19,0.19,-0.09,-0.17,5.84,5.86,5.83
20.20,5.69,-0.18,5.70,-0.19,0.19,-0.09,-0.17,5.89,5.89,5.88
20.40,5.73,-0.19,5.73,-0.19,0.19,-0.09,-0.18,5.93,5.93,5.93
20.61,5.77,-0.18,5.77,-0.19,0.19,-0.09,-0.18,5.96,5.96,5.95
20.81,5.81,-0.19,5.80,-0.19,0.19,-0.10,-0.18,6.00,5.99,6.01
21.02,5.85,-0.19,5.83,-0.18,0.18,-0.10,-0.19,6.03,6.02,6.04
21.23,5.88,-0.18,5.87,-0.18,0.18,-0.10,-0.19,6.06,6.04,6.06
21.44,5.91,-0.17,5.90,-0.17,0.17,-0.10,-0.20,6.08,6.06,6.08
21.66,5.94,-0.16,5.93,-0.16,0.16,-0.10,-0.20,6.10,6.08,6.10
21.87,5.96,-0.15,5.96,-0.14,0.14,-0.11,-0.21,6.11,6.10,6.11
22.09,5.99,-0.14,5.99,-0.13,0.13,-0.11,-0.21,6.12,6.12,6.13
22.31,6.00,-0.14,6.02,-0.11,0.11,-0.11,-0.21,6.12,6.13,6.14
22.54,6.02,-0.12,6.05,-0.09,0.09,-0.11,-0.22,6.11,6.14,6.14
22.76,6.03,-0.11,6.07,-0.07,0.07,-0.12,-0.22,6.10,6.14,6.14
22.99,6.05,-0.08,6.10,-0.04,0.04,-0.12,-0.23,6.09,6.14,6.13
23.22,6.10,-0.03,6.13,-0.02,0.02,-0.12,-0.23,6.12,6.14,6.13
23.45,6.15,0.02,6.15,0.01,-0.01,-0.12,-0.24,6.15,6.14,6.13
23.69,6.20,0.06,6.17,0.03,-0.03,-0.13,-0.24,6.17,6.14,6.14
23.92,6.24,0.11,6.19,0.04,-0.04,-0.13,-0.25,6.20,6.14,6.14
24.16,6.26,0.12,6.20,0.06,-0.06,-0.13,-0.25,6.20,6.14,6.14
24.40,6.25,0.10,6.22,0.08,-0.08,-0.13,-0.26,6.18,6.14,6.15
24.65,6.25,0.11,6.23,0.09,-0.09,-0.14,-0.27,6.16,6.14,6.14
24.89,6.24,0.10,6.24,0.10,-0.10,-0.14,-0.27,6.14,6.14,6.14
25.14,6.24,0.10,6.25,0.11,-0.11,-0.14,-0.28,6.13,6.14,6.14
25.39,6.24,0.09,6.26,0.12,-0.12,-0.15,-0.28,6.12,6.14,6.15
25.65,6.24,0.09,6.27,0.13,-0.13,-0.15,-0.29,6.11,6.14,6.15
25.91,6.24,0.10,6.28,0.14,-0.14,-0.15,-0.29,6.10,6.14,6.14
26.16,6.26,0.13,6.29,0.15,-0.15,-0.16,-0.30,6.11,6.14,6.14
26.43,6.28,0.15,6.31,0.17,-0.17,-0.16,-0.30,6.12,6.14,6.14
26.69,6.31,0.18,6.32,0.18,-0.18,-0.16,-0.31,6.13,6.14,6.13
26.96,6.34,0.20,6.34,0.20,-0.20,-0.17,-0.31,6.14,6.13,6.14
27.23,6.36,0.22,6.35,0.22,-0.22,-0.17,-0.32,6.14,6.13,6.14
27.50,6.39,0.25,6.37,0.24,-0.24,-0.17,-0.32,6.15,6.13,6.14
27.77,6.41,0.28,6.39,0.26,-0.26,-0.18,-0.33,6.15,6.13,6.13
28.05,6.43,0.30,6.40,0.27,-0.27,-0.18,-0.33,6.16,6.13,6.13
28.33,6.43,0.32,6.41,0.29,-0.29,-0.18,-0.33,6.14,6.13,6.12
28.62,6.43,0.32,6.42,0.30,-0.30,-0.19,-0.34,6.13,6.12,6.11
28.90,6.43,0.31,6.43,0.30,-0.30,-0.19,-0.34,6.13,6.12,6.12
29.19,6.43,0.32,6.43,0.31,-0.31,-0.20,-0.34,6.12,6.12,6.11
29.48,6.43,0.30,6.43,0.31,-0.31,-0.20,-0.35,6.12,6.12,6.13
29.78,6.43,0.32,6.43,0.31,-0.31,-0.20,-0.35,6.12,6.12,6.12
30.08,6.43,0.31,6.44,0.32,-0.32,-0.21,-0.35,6.11,6.11,6.12
30.38,6.43,0.32,6.44,0.33,-0.33,-0.21,-0.35,6.10,6.11,6.11
30.68,6.43,0.32,6.45,0.34,-0.34,-0.22,-0.35,6.09,6.11,6.11
30.99,6.43,0.32,6.47,0.36,-0.36,-0.22,-0.35,6.07,6.11,6.11
31.30,6.45,0.35,6.48,0.37,-0.37,-0.23,-0.35,6.08,6.11,6.11
31.61,6.47,0.37,6.50,0.39,-0.39,-0.23,-0.35,6.08,6.10,6.10
31.93,6.49,0.39,6.52,0.42,-0.42,-0.24,-0.35,6.07,6.10,6.10
32.24,6.52,0.43,6.54,0.44,-0.44,-0.24,-0.35,6.08,6.09,6.09
32.57,6.57,0.48,6.55,0.46,-0.46,-0.24,-0.35,6.11,6.09,6.09
32.89,6.62,0.53,6.57,0.49,-0.49,-0.25,-0.35,6.13,6.08,6.09
33.22,6.63,0.55,6.59,0.51,-0.51,-0.25,-0.35,6.12,6.08,6.08
33.55,6.63,0.56,6.61,0.53,-0.53,-0.26,-0.35,6.10,6.07,6.08
33.89,6.63,0.57,6.62,0.55,-0.55,-0.26,-0.34,6.08,6.07,6.06
34.23,6.63,0.56,6.63,0.57,-0.57,-0.27,-0.34,6.06,6.06,6.07
34.57,6.63,0.58,6.64,0.59,-0.59,-0.28,-0.34,6.05,6.06,6.06
34.92,6.63,0.58,6.65,0.60,-0.60,-0.28,-0.34,6.03,6.05,6.05
35.27,6.63,0.58,6.66,0.61,-0.61,-0.29,-0.33,6.03,6.05,6.05
35.62,6.63,0.59,6.65,0.61,-0.61,-0.29,-0.33,6.03,6.05,6.04
35.97,6.63,0.59,6.64,0.60,-0.60,-0.30,-0.33,6.03,6.04,6.04
36.33,6.63,0.59,6.63,0.59,-0.59,-0.30,-0.32,6.04,6.04,6.05
36.70,6.63,0.60,6.61,0.57,-0.57,-0.31,-0.32,6.06,6.04,6.03
37.06,6.63,0.60,6.59,0.56,-0.56,-0.31,-0.31,6.07,6.04,6.03
37.43,6.62,0.58,6.58,0.54,-0.54,-0.32,-0.31,6.08,6.04,6.04
37.81,6.61,0.57,6.56,0.52,-0.52,-0.32,-0.31,6.09,6.04,6.04
38.19,6.57,0.54,6.54,0.50,-0.50,-0.33,-0.30,6.07,6.04,6.03
38.57,6.50,0.47,6.52,0.49,-0.49,-0.34,-0.30,6.02,6.04,6.04
38.95,6.44,0.40,6.50,0.47,-0.47,-0.34,-0.30,5.97,6.03,6.04
39.34,6.43,0.40,6.48,0.45,-0.45,-0.35,-0.29,5.98,6.03,6.04
39.74,6.43,0.40,6.47,0.43,-0.43,-0.35,-0.29,6.00,6.03,6.03
40.14,6.43,0.40,6.45,0.42,-0.42,-0.36,-0.29,6.01,6.03,6.03
40.54,6.43,0.41,6.44,0.41,-0.41,-0.37,-0.28,6.02,6.03,6.03
40.94,6.43,0.41,6.43,0.41,-0.41,-0.37,-0.28,6.02,6.02,6.02
41.35,6.43,0.42,6.43,0.41,-0.41,-0.38,-0.27,6.02,6.02,6.01
41.76,6.43,0.43,6.43,0.42,-0.42,-0.38,-0.27,6.01,6.01,6.01
42.18,6.43,0.42,6.43,0.43,-0.43,-0.39,-0.27,6.00,6.00,6.01
42.60,6.43,0.44,6.43,0.45,-0.45,-0.40,-0.27,5.98,5.99,5.99
43.03,6.43,0.45,6.44,0.47,-0.47,-0.40,-0.26,5.96,5.97,5.98
43.46,6.43,0.46,6.44,0.48,-0.48,-0.41,-0.26,5.95,5.96,5.97
43.90,6.43,0.49,6.42,0.48,-0.48,-0.41,-0.26,5.95,5.95,5.95
44.33,6.43,0.51,6.41,0.48,-0.48,-0.42,-0.25,5.96,5.93,5.93
44.78,6.43,0.52,6.39,0.47,-0.47,-0.42,-0.25,5.96,5.92,5.91
45.23,6.41,0.51,6.37,0.46,-0.46,-0.43,-0.25,5.95,5.90,5.90
45.68,6.37,0.49,6.34,0.45,-0.45,-0.43,-0.25,5.92,5.89,5.88
46.13,6.33,0.47,6.31,0.44,-0.44,-0.43,-0.25,5.89,5.87,5.86
46.60,6.30,0.45,6.28,0.43,-0.43,-0.44,-0.24,5.87,5.85,5.86
47.06,6.26,0.43,6.26,0.43,-0.43,-0.44,-0.24,5.83,5.84,5.83
47.53,6.20,0.38,6.25,0.43,-0.43,-0.44,-0.24,5.77,5.82,5.82
48.01,6.13,0.31,6.22,0.42,-0.42,-0.44,-0.24,5.71,5.80,5.82
48.49,6.13,0.33,6.20,0.41,-0.41,-0.44,-0.24,5.72,5.79,5.80
48.97,6.14,0.37,6.18,0.41,-0.41,-0.44,-0.24,5.74,5.77,5.77
49.46,6.14,0.39,6.16,0.40,-0.40,-0.44,-0.24,5.74,5.76,5.75
49.96,6.14,0.41,6.14,0.40,-0.40,-0.44,-0.24,5.74,5.74,5.73
50.46,6.14,0.42,6.13,0.40,-0.40,-0.44,-0.24,5.74,5.72,5.72
50.96,6.14,0.43,6.11,0.40,-0.40,-0.43,-0.24,5.74,5.71,5.71
51.47,6.16,0.48,6.08,0.39,-0.39,-0.42,-0.24,5.77,5.69,5.68
51.99,6.18,0.51,6.06,0.38,-0.38,-0.41,-0.24,5.80,5.68,5.67
52.51,6.05,0.39,6.03,0.37,-0.37,-0.40,-0.25,5.68,5.66,5.66
53.03,5.93,0.28,6.01,0.37,-0.37,-0.38,-0.25,5.56,5.65,5.65
53.56,5.96,0.33,5.99,0.36,-0.36,-0.36,-0.25,5.61,5.63,5.64
54.10,5.97,0.35,5.96,0.34,-0.34,-0.34,-0.26,5.63,5.62,5.62
54.64,5.92,0.32,5.93,0.33,-0.33,-0.31,-0.26,5.60,5.60,5.60
55.18,5.85,0.26,5.90,0.31,-0.31,-0.28,-0.27,5.54,5.59,5.59
55.74,5.77,0.20,5.86,0.28,-0.28,-0.24,-0.28,5.49,5.57,5.57
56.29,5.74,0.18,5.82,0.26,-0.26,-0.19,-0.28,5.48,5.56,5.56
56.86,5.76,0.22,5.77,0.23,-0.23,-0.14,-0.29,5.53,5.54,5.54
57.42,5.77,0.27,5.72,0.20,-0.20,-0.07,-0.30,5.57,5.52,5.50
58.00,5.78,0.29,5.67,0.17,-0.17,0.00,-0.32,5.61,5.50,5.49
58.58,5.68,0.20,5.62,0.15,-0.15,0.09,-0.33,5.53,5.47,5.48
59.16,5.60,0.15,5.57,0.13,-0.13,0.18,-0.34,5.47,5.44,5.45
59.76,5.58,0.15,5.50,0.09,-0.09,0.29,-0.36,5.49,5.41,5.43
60.35,5.47,0.09,5.43,0.05,-0.05,0.40,-0.38,5.42,5.37,5.38
60.96,5.29,-0.05,5.36,0.02,-0.02,0.51,-0.39,5.27,5.33,5.35
61.57,5.23,-0.07,5.28,-0.01,0.01,0.62,-0.41,5.24,5.29,5.30
62.18,5.18,-0.07,5.21,-0.04,0.04,0.72,-0.44,5.22,5.25,5.25
62.80,5.13,-0.07,5.14,-0.07,0.07,0.79,-0.46,5.20,5.21,5.20
63.43,5.07,-0.08,5.07,-0.09,0.09,0.83,-0.49,5.16,5.16,5.15
64.07,5.02,-0.08,5.01,-0.10,0.10,0.83,-0.51,5.12,5.11,5.10
64.71,4.98,-0.07,4.96,-0.10,0.10,0.78,-0.54,5.08,5.06,5.05
65.35,4.91,-0.09,4.93,-0.07,0.07,0.69,-0.57,4.99,5.01,5.00
66.01,4.83,-0.12,4.92,-0.04,0.04,0.57,-0.60,4.87,4.95,4.95
66.67,4.87,-0.03,4.92,0.02,-0.02,0.41,-0.64,4.86,4.90,4.90
67.33,4.89,0.05,4.93,0.08,-0.08,0.25,-0.67,4.81,4.85,4.84
68.01,4.89,0.10,4.95,0.16,-0.16,0.08,-0.71,4.73,4.79,4.79
68.69,4.96,0.22,4.98,0.25,-0.25,-0.09,-0.75,4.71,4.73,4.74
69.37,5.02,0.34,5.02,0.35,-0.35,-0.25,-0.79,4.68,4.68,4.68
70.07,5.08,0.46,5.07,0.45,-0.45,-0.41,-0.83,4.63,4.62,4.62
70.77,5.15,0.58,5.12,0.56,-0.56,-0.55,-0.87,4.59,4.56,4.57
71.48,5.22,0.71,5.17,0.68,-0.68,-0.68,-0.92,4.55,4.50,4.51
72.19,5.29,0.86,5.24,0.81,-0.81,-0.80,-0.97,4.49,4.43,4.44
72.91,5.36,0.99,5.31,0.94,-0.94,-0.91,-1.01,4.43,4.37,4.37
73.64,5.37,1.06,5.37,1.06,-1.06,-1.01,-1.06,4.31,4.31,4.31
74.38,5.41,1.17,5.43,1.18,-1.18,-1.11,-1.12,4.23,4.25,4.24
75.12,5.48,1.30,5.50,1.31,-1.31,-1.20,-1.17,4.17,4.18,4.18
75.87,5.55,1.44,5.56,1.44,-1.44,-1.28,-1.22,4.11,4.12,4.11
76.63,5.60,1.55,5.62,1.56,-1.56,-1.36,-1.28,4.04,4.06,4.05
77.40,5.61,1.62,5.68,1.68,-1.68,-1.43,-1.34,3.93,4.00,3.99
78.17,5.65,1.73,5.73,1.79,-1.79,-1.50,-1.39,3.86,3.94,3.92
78.95,5.90,2.02,5.78,1.90,-1.90,-1.57,-1.46,4.00,3.88,3.88
79.74,5.87,2.05,5.83,2.01,-2.01,-1.64,-1.52,3.86,3.82,3.82
80.54,5.84,2.07,5.88,2.12,-2.12,-1.70,-1.58,3.72,3.76,3.77
81.35,5.92,2.22,5.94,2.23,-2.23,-1.77,-1.65,3.69,3.71,3.70
82.16,6.07,2.42,5.98,2.33,-2.33,-1.83,-1.71,3.74,3.65,3.65
82.98,6.10,2.50,6.02,2.43,-2.43,-1.89,-1.78,3.67,3.60,3.60
83.81,6.01,2.47,6.06,2.52,-2.52,-1.95,-1.85,3.49,3.54,3.54
84.65,6.06,2.58,6.10,2.61,-2.61,-2.01,-1.92,3.45,3.48,3.48
85.50,6.11,2.68,6.13,2.71,-2.71,-2.06,-2.00,3.40,3.42,3.43
86.35,6.14,2.77,6.16,2.80,-2.80,-2.12,-2.07,3.35,3.37,3.37
87.22,6.16,2.85,6.19,2.88,-2.88,-2.18,-2.15,3.28,3.31,3.31
88.09,6.22,2.97,6.21,2.96,-2.96,-2.24,-2.23,3.26,3.25,3.25
88.97,6.30,3.11,6.24,3.05,-3.05,-2.30,-2.31,3.26,3.19,3.19
89.86,6.23,3.10,6.26,3.13,-3.13,-2.35,-2.39,3.10,3.13,3.13
90.76,6.20,3.13,6.28,3.21,-3.21,-2.41,-2.48,3.00,3.07,3.07
91.66,6.29,3.28,6.29,3.28,-3.28,-2.47,-2.56,3.01,3.01,3.01
92.58,6.34,3.40,6.31,3.36,-3.36,-2.53,-2.65,2.99,2.95,2.94
93.51,6.34,3.46,6.32,3.43,-3.43,-2.58,-2.74,2.91,2.89,2.89
94.44,6.34,3.51,6.33,3.50,-3.50,-2.64,-2.83,2.84,2.83,2.83
95.39,6.34,3.57,6.34,3.57,-3.57,-2.70,-2.92,2.78,2.77,2.78
96.34,6.34,3.63,6.34,3.63,-3.63,-2.76,-3.01,2.72,2.71,2.71
97.30,6.33,3.68,6.34,3.68,-3.68,-2.82,-3.11,2.65,2.66,2.65
98.28,6.32,3.72,6.33,3.73,-3.73,-2.88,-3.20,2.59,2.60,2.60
99.26,6.31,3.77,6.32,3.78,-3.78,-2.94,-3.30,2.53,2.54,2.54
100.25,6.29,3.81,6.31,3.83,-3.83,-3.00,-3.40,2.47,2.48,2.48
101.25,6.27,3.85,6.29,3.87,-3.87,-3.06,-3.50,2.41,2.43,2.43
102.27,6.26,3.89,6.26,3.89,-3.89,-3.11,-3.59,2.37,2.37,2.37
103.29,6.25,3.95,6.22,3.91,-3.91,-3.17,-3.69,2.34,2.31,2.30
104.32,6.23,3.98,6.18,3.93,-3.93,-3.23,-3.79,2.30,2.25,2.25
105.37,6.18,3.99,6.14,3.95,-3.95,-3.29,-3.89,2.23,2.19,2.20
106.42,6.08,3.94,6.10,3.97,-3.97,-3.35,-3.98,2.11,2.13,2.14
107.48,6.05,3.98,6.05,3.98,-3.98,-3.41,-4.08,2.07,2.07,2.07
108.56,6.04,4.04,6.00,4.00,-4.00,-3.47,-4.17,2.04,2.00,2.00
109.64,5.95,4.01,5.95,4.01,-4.01,-3.53,-4.26,1.94,1.94,1.94
110.74,5.90,4.02,5.90,4.02,-4.02,-3.59,-4.35,1.88,1.88,1.88
111.85,5.81,3.98,5.86,4.04,-4.04,-3.65,-4.43,1.77,1.82,1.83
112.97,5.72,3.97,5.82,4.06,-4.06,-3.70,-4.51,1.66,1.76,1.75
114.10,5.76,4.06,5.78,4.08,-4.08,-3.76,-4.59,1.68,1.70,1.70
115.24,5.80,4.16,5.76,4.11,-4.11,-3.82,-4.66,1.69,1.64,1.64
116.39,5.72,4.15,5.74,4.15,-4.15,-3.87,-4.72,1.57,1.59,1.57
117.55,5.68,4.15,5.73,4.19,-4.19,-3.92,-4.78,1.49,1.54,1.53
118.73,5.68,4.21,5.72,4.23,-4.23,-3.98,-4.84,1.45,1.49,1.47
119.92,5.69,4.25,5.70,4.27,-4.27,-4.03,-4.88,1.43,1.44,1.44
121.12,5.70,4.32,5.69,4.30,-4.30,-4.08,-4.92,1.40,1.39,1.39
122.33,5.71,4.37,5.70,4.35,-4.35,-4.13,-4.95,1.36,1.35,1.34
123.55,5.71,4.40,5.70,4.39,-4.39,-4.17,-4.98,1.32,1.30,1.31
124.79,5.72,4.45,5.69,4.43,-4.43,-4.22,-4.99,1.29,1.26,1.27
126.03,5.74,4.51,5.68,4.46,-4.46,-4.26,-5.00,1.28,1.22,1.23
127.29,5.74,4.55,5.66,4.47,-4.47,-4.30,-5.00,1.27,1.18,1.20
128.57,5.65,4.51,5.64,4.49,-4.49,-4.34,-5.00,1.16,1.15,1.15
129.85,5.52,4.41,5.62,4.52,-4.52,-4.37,-4.98,1.01,1.11,1.11
131.15,5.53,4.46,5.60,4.53,-4.53,-4.41,-4.96,1.00,1.07,1.07
132.46,5.57,4.54,5.57,4.54,-4.54,-4.44,-4.93,1.03,1.03,1.03
133.79,5.60,4.61,5.53,4.54,-4.54,-4.47,-4.90,1.06,1.00,0.99
135.12,5.56,4.61,5.49,4.54,-4.54,-4.49,-4.86,1.03,0.96,0.95
136.48,5.40,4.48,5.45,4.53,-4.53,-4.51,-4.81,0.88,0.92,0.92
137.84,5.35,4.47,5.40,4.52,-4.52,-4.53,-4.76,0.84,0.89,0.88
139.22,5.28,4.44,5.35,4.50,-4.50,-4.55,-4.71,0.78,0.85,0.84
140.61,5.26,4.47,5.31,4.49,-4.49,-4.56,-4.65,0.77,0.81,0.79
142.02,5.33,4.56,5.26,4.49,-4.49,-4.57,-4.59,0.84,0.77,0.77
143.44,5.21,4.48,5.20,4.47,-4.47,-4.58,-4.52,0.74,0.73,0.73
144.87,5.09,4.41,5.13,4.45,-4.45,-4.58,-4.45,0.64,0.68,0.68
146.32,5.01,4.38,5.04,4.41,-4.41,-4.58,-4.39,0.60,0.63,0.64
147.78,4.92,4.32,4.92,4.34,-4.34,-4.58,-4.32,0.58,0.57,0.60
149.26,4.81,4.27,4.76,4.25,-4.25,-4.57,-4.25,0.56,0.51,0.54
150.75,4.72,4.26,4.60,4.15,-4.15,-4.56,-4.17,0.57,0.44,0.47
152.26,4.61,4.22,4.42,4.04,-4.04,-4.55,-4.10,0.57,0.37,0.39
153.78,4.46,4.14,4.23,3.93,-3.93,-4.53,-4.03,0.53,0.30,0.32
155.32,4.26,4.03,4.05,3.83,-3.83,-4.51,-3.96,0.43,0.22,0.24
156.88,4.01,3.86,3.88,3.74,-3.74,-4.49,-3.89,0.27,0.15,0.15
158.44,3.70,3.64,3.74,3.67,-3.67,-4.46,-3.83,0.03,0.07,0.06
160.03,3.46,3.49,3.62,3.63,-3.63,-4.43,-3.76,-0.17,-0.01,-0.03
161.63,3.15,3.26,3.53,3.61,-3.61,-4.40,-3.70,-0.46,-0.08,-0.10
163.24,2.99,3.16,3.45,3.60,-3.60,-4.37,-3.63,-0.61,-0.15,-0.17
164.88,2.97,3.20,3.40,3.61,-3.61,-4.33,-3.57,-0.64,-0.21,-0.23
166.53,3.17,3.46,3.37,3.64,-3.64,-4.29,-3.51,-0.47,-0.26,-0.28
168.19,3.35,3.68,3.37,3.68,-3.68,-4.25,-3.46,-0.33,-0.31,-0.33
169.87,3.52,3.89,3.38,3.73,-3.73,-4.21,-3.40,-0.21,-0.35,-0.37
171.57,3.62,4.02,3.41,3.79,-3.79,-4.16,-3.35,-0.17,-0.38,-0.40
173.29,3.69,4.11,3.44,3.85,-3.85,-4.11,-3.30,-0.16,-0.41,-0.42
175.02,3.71,4.14,3.48,3.91,-3.91,-4.06,-3.26,-0.20,-0.43,-0.43
176.77,3.67,4.12,3.51,3.96,-3.96,-4.01,-3.21,-0.28,-0.44,-0.45
178.54,3.62,4.08,3.53,3.99,-3.99,-3.96,-3.17,-0.37,-0.46,-0.46
180.32,3.55,4.01,3.53,3.99,-3.99,-3.91,-3.13,-0.44,-0.47,-0.46
182.13,3.49,3.95,3.49,3.97,-3.97,-3.85,-3.09,-0.48,-0.48,-0.46
183.95,3.43,3.90,3.43,3.92,-3.92,-3.79,-3.06,-0.49,-0.49,-0.47
185.79,3.31,3.79,3.35,3.85,-3.85,-3.74,-3.03,-0.54,-0.50,-0.48
187.65,3.19,3.70,3.25,3.77,-3.77,-3.68,-3.00,-0.58,-0.51,-0.50
189.52,3.11,3.63,3.16,3.69,-3.69,-3.62,-2.97,-0.57,-0.53,-0.52
191.42,3.00,3.54,3.06,3.61,-3.61,-3.56,-2.95,-0.61,-0.55,-0.54
193.33,2.92,3.49,2.98,3.54,-3.54,-3.50,-2.92,-0.62,-0.57,-0.57
195.27,2.88,3.47,2.90,3.48,-3.48,-3.44,-2.90,-0.60,-0.59,-0.59
197.22,2.81,3.42,2.81,3.42,-3.42,-3.38,-2.89,-0.61,-0.61,-0.61
199.19,2.71,3.35,2.73,3.36,-3.36,-3.32,-2.87,-0.65,-0.63,-0.64
201.18,2.68,3.34,2.65,3.31,-3.31,-3.26,-2.85,-0.63,-0.66,-0.66
203.19,2.60,3.28,2.57,3.25,-3.25,-3.20,-2.84,-0.65,-0.68,-0.68
205.23,2.49,3.20,2.50,3.20,-3.20,-3.14,-2.83,-0.71,-0.71,-0.71
207.28,2.44,3.16,2.43,3.16,-3.16,-3.08,-2.82,-0.72,-0.73,-0.72
209.35,2.40,3.15,2.36,3.11,-3.11,-3.01,-2.81,-0.71,-0.75,-0.75
211.44,2.32,3.10,2.29,3.06,-3.06,-2.95,-2.80,-0.74,-0.77,-0.78
213.56,2.26,3.05,2.23,3.02,-3.02,-2.89,-2.79,-0.76,-0.79,-0.79
215.69,2.13,2.94,2.16,2.97,-2.97,-2.83,-2.78,-0.84,-0.81,-0.81
217.85,2.01,2.83,2.10,2.92,-2.92,-2.77,-2.77,-0.91,-0.82,-0.82
220.03,2.00,2.84,2.04,2.88,-2.88,-2.72,-2.76,-0.87,-0.83,-0.84
222.23,1.99,2.85,1.99,2.83,-2.83,-2.66,-2.76,-0.84,-0.84,-0.86
224.45,1.92,2.78,1.94,2.79,-2.79,-2.60,-2.75,-0.87,-0.85,-0.85
226.70,1.90,2.76,1.90,2.76,-2.76,-2.54,-2.74,-0.85,-0.85,-0.86
228.96,1.90,2.75,1.87,2.72,-2.72,-2.49,-2.73,-0.82,-0.85,-0.85
231.25,1.83,2.68,1.84,2.68,-2.68,-2.43,-2.72,-0.85,-0.84,-0.84
233.57,1.82,2.66,1.81,2.65,-2.65,-2.37,-2.70,-0.83,-0.83,-0.84
235.90,1.77,2.60,1.80,2.62,-2.62,-2.32,-2.69,-0.85,-0.82,-0.83
238.26,1.75,2.57,1.78,2.59,-2.59,-2.27,-2.67,-0.84,-0.81,-0.82
240.64,1.77,2.57,1.77,2.56,-2.56,-2.21,-2.66,-0.79,-0.79,-0.80
243.05,1.76,2.53,1.75,2.52,-2.52,-2.16,-2.64,-0.76,-0.77,-0.77
245.48,1.73,2.48,1.72,2.48,-2.48,-2.11,-2.62,-0.75,-0.75,-0.75
247.93,1.74,2.46,1.71,2.44,-2.44,-2.06,-2.59,-0.70,-0.73,-0.72
250.41,1.68,2.39,1.69,2.40,-2.40,-2.01,-2.56,-0.72,-0.71,-0.71
252.92,1.67,2.35,1.67,2.36,-2.36,-1.96,-2.54,-0.69,-0.69,-0.68
255.45,1.69,2.35,1.65,2.31,-2.31,-1.91,-2.50,-0.62,-0.67,-0.66
258.00,1.67,2.31,1.63,2.27,-2.27,-1.86,-2.47,-0.60,-0.64,-0.64
260.58,1.57,2.20,1.60,2.22,-2.22,-1.81,-2.44,-0.65,-0.62,-0.62
263.19,1.52,2.11,1.57,2.17,-2.17,-1.76,-2.40,-0.65,-0.60,-0.59
265.82,1.51,2.09,1.54,2.11,-2.11,-1.72,-2.36,-0.60,-0.57,-0.58
268.48,1.50,2.06,1.50,2.05,-2.05,-1.67,-2.31,-0.55,-0.55,-0.56
271.16,1.50,2.03,1.46,1.99,-1.99,-1.63,-2.27,-0.49,-0.53,-0.52
273.87,1.50,2.01,1.43,1.93,-1.93,-1.58,-2.22,-0.43,-0.50,-0.51
276.61,1.37,1.85,1.39,1.87,-1.87,-1.54,-2.18,-0.50,-0.48,-0.48
279.38,1.31,1.77,1.35,1.81,-1.81,-1.50,-2.13,-0.50,-0.45,-0.45
282.17,1.31,1.74,1.32,1.75,-1.75,-1.46,-2.08,-0.44,-0.43,-0.43
284.99,1.31,1.71,1.29,1.69,-1.69,-1.42,-2.03,-0.38,-0.40,-0.40
287.84,1.23,1.61,1.27,1.64,-1.64,-1.37,-1.97,-0.41,-0.37,-0.38
290.72,1.23,1.58,1.24,1.59,-1.59,-1.34,-1.92,-0.36,-0.34,-0.35
293.63,1.16,1.48,1.21,1.53,-1.53,-1.30,-1.87,-0.37,-0.32,-0.32
296.57,1.16,1.45,1.18,1.47,-1.47,-1.26,-1.81,-0.31,-0.29,-0.29
299.53,1.17,1.43,1.15,1.41,-1.41,-1.22,-1.76,-0.24,-0.26,-0.26
302.53,1.16,1.41,1.12,1.36,-1.36,-1.18,-1.71,-0.20,-0.24,-0.25
305.55,1.11,1.31,1.10,1.31,-1.31,-1.15,-1.65,-0.20,-0.21,-0.20
308.61,1.11,1.30,1.09,1.28,-1.28,-1.11,-1.60,-0.17,-0.19,-0.19
311.69,1.12,1.28,1.07,1.24,-1.24,-1.08,-1.54,-0.11,-0.17,-0.16
314.81,1.08,1.21,1.04,1.19,-1.19,-1.04,-1.49,-0.11,-0.14,-0.13
317.96,0.97,1.09,1.02,1.14,-1.14,-1.01,-1.43,-0.17,-0.12,-0.12
321.14,0.93,1.04,0.99,1.10,-1.10,-0.97,-1.38,-0.17,-0.11,-0.11
324.35,0.93,1.03,0.97,1.06,-1.06,-0.94,-1.33,-0.13,-0.09,-0.09
327.59,0.93,1.01,0.94,1.02,-1.02,-0.91,-1.27,-0.09,-0.08,-0.08
330.87,0.93,1.00,0.91,0.98,-0.98,-0.88,-1.22,-0.05,-0.06,-0.07
334.18,0.92,0.98,0.88,0.94,-0.94,-0.85,-1.17,-0.02,-0.05,-0.05
337.52,0.92,0.97,0.86,0.90,-0.90,-0.81,-1.12,0.02,-0.04,-0.05
340.90,0.84,0.87,0.83,0.86,-0.86,-0.78,-1.07,-0.02,-0.04,-0.03
344.30,0.75,0.77,0.80,0.83,-0.83,-0.75,-1.02,-0.08,-0.03,-0.02
347.75,0.73,0.76,0.77,0.80,-0.80,-0.73,-0.97,-0.07,-0.03,-0.03
351.23,0.73,0.75,0.75,0.77,-0.77,-0.70,-0.92,-0.04,-0.02,-0.02
354.74,0.73,0.75,0.73,0.75,-0.75,-0.67,-0.88,-0.02,-0.02,-0.02
358.28,0.74,0.75,0.70,0.72,-0.72,-0.64,-0.83,0.02,-0.01,-0.01
361.87,0.68,0.70,0.67,0.69,-0.69,-0.61,-0.78,-0.01,-0.01,-0.02
365.49,0.65,0.66,0.65,0.66,-0.66,-0.59,-0.74,-0.01,-0.01,-0.01
369.14,0.58,0.60,0.62,0.63,-0.63,-0.56,-0.69,-0.05,-0.01,-0.02
372.83,0.57,0.59,0.60,0.61,-0.61,-0.54,-0.65,-0.04,-0.02,-0.02
376.56,0.58,0.61,0.57,0.59,-0.59,-0.51,-0.61,-0.01,-0.02,-0.02
380.33,0.56,0.58,0.54,0.57,-0.57,-0.49,-0.56,-0.00,-0.02,-0.02
384.13,0.51,0.53,0.51,0.54,-0.54,-0.46,-0.52,-0.03,-0.03,-0.02
387.97,0.50,0.53,0.48,0.51,-0.51,-0.44,-0.48,-0.01,-0.03,-0.03
391.85,0.46,0.50,0.44,0.47,-0.47,-0.41,-0.44,-0.01,-0.04,-0.04
395.77,0.42,0.45,0.40,0.44,-0.44,-0.39,-0.40,-0.02,-0.04,-0.03
399.73,0.41,0.46,0.36,0.41,-0.41,-0.37,-0.36,-0.00,-0.05,-0.04
403.72,0.36,0.41,0.33,0.39,-0.39,-0.34,-0.32,-0.03,-0.05,-0.05
407.76,0.32,0.38,0.31,0.37,-0.37,-0.32,-0.28,-0.05,-0.06,-0.06
411.84,0.24,0.30,0.29,0.35,-0.35,-0.30,-0.24,-0.11,-0.06,-0.06
415.96,0.20,0.26,0.27,0.34,-0.34,-0.28,-0.20,-0.14,-0.06,-0.06
420.12,0.21,0.27,0.26,0.32,-0.32,-0.26,-0.17,-0.11,-0.06,-0.06
424.32,0.21,0.27,0.25,0.30,-0.30,-0.24,-0.13,-0.09,-0.06,-0.06
428.56,0.22,0.28,0.24,0.29,-0.29,-0.22,-0.10,-0.07,-0.05,-0.05
432.85,0.23,0.28,0.25,0.28,-0.28,-0.20,-0.06,-0.05,-0.03,-0.04
437.18,0.26,0.30,0.26,0.27,-0.27,-0.18,-0.03,-0.01,-0.01,-0.04
441.55,0.30,0.30,0.28,0.26,-0.26,-0.16,0.00,0.04,0.01,0.00
445.96,0.34,0.31,0.30,0.26,-0.26,-0.14,0.03,0.09,0.05,0.03
450.42,0.39,0.33,0.33,0.25,-0.25,-0.12,0.06,0.14,0.08,0.06
454.93,0.36,0.25,0.36,0.24,-0.24,-0.10,0.09,0.12,0.12,0.11
459.48,0.33,0.17,0.40,0.24,-0.24,-0.08,0.12,0.10,0.17,0.16
464.07,0.38,0.17,0.43,0.22,-0.22,-0.06,0.15,0.16,0.21,0.21
468.71,0.43,0.16,0.46,0.20,-0.20,-0.05,0.18,0.23,0.26,0.27
473.40,0.50,0.19,0.48,0.17,-0.17,-0.03,0.20,0.33,0.31,0.31
478.13,0.52,0.16,0.50,0.15,-0.15,-0.01,0.23,0.37,0.36,0.37
482.91,0.51,0.11,0.52,0.12,-0.12,0.01,0.25,0.39,0.40,0.41
487.74,0.54,0.10,0.53,0.08,-0.08,0.02,0.27,0.46,0.44,0.44
492.62,0.54,0.05,0.52,0.04,-0.04,0.04,0.29,0.50,0.48,0.49
497.55,0.53,0.02,0.51,0.00,-0.00,0.05,0.31,0.53,0.51,0.51
502.52,0.53,-0.01,0.49,-0.04,0.04,0.07,0.33,0.58,0.53,0.54
507.55,0.48,-0.07,0.45,-0.09,0.09,0.09,0.34,0.58,0.55,0.55
512.62,0.40,-0.16,0.40,-0.15,0.15,0.10,0.36,0.55,0.55,0.56
517.75,0.38,-0.19,0.34,-0.21,0.21,0.12,0.37,0.59,0.55,0.57
522.93,0.31,-0.25,0.26,-0.28,0.28,0.13,0.39,0.59,0.54,0.56
