frequency,raw,error,smoothed,error_smoothed,equalization,parametric_eq,fixed_band_eq,equalized_raw,equalized_smoothed,target
20.00,18.98,14.83,18.99,14.82,-14.82,-14.73,-4.94,4.16,4.17,4.15
20.20,18.88,14.69,18.90,14.69,-14.69,-14.72,-5.07,4.19,4.20,4.19
20.40,18.79,14.56,18.80,14.56,-14.56,-14.70,-5.20,4.23,4.23,4.23
20.61,18.70,14.44,18.70,14.44,-14.44,-14.65,-5.33,4.26,4.26,4.26
20.81,18.60,14.30,18.60,14.31,-14.31,-14.59,-5.47,4.30,4.29,4.30
21.02,18.50,14.17,18.49,14.18,-14.18,-14.50,-5.61,4.32,4.31,4.34
21.23,18.40,14.05,18.39,14.05,-14.05,-14.40,-5.75,4.35,4.34,4.36
21.44,18.29,13.92,18.29,13.93,-13.93,-14.29,-5.90,4.36,4.36,4.38
21.66,18.20,13.80,18.18,13.80,-13.80,-14.16,-6.05,4.39,4.38,4.40
21.87,18.08,13.68,18.08,13.68,-13.68,-14.02,-6.21,4.41,4.40,4.41
22.09,17.98,13.56,17.97,13.55,-13.55,-13.87,-6.37,4.43,4.42,4.42
22.31,17.87,13.44,17.86,13.43,-13.43,-13.71,-6.53,4.44,4.43,4.43
22.54,17.75,13.30,17.75,13.31,-13.31,-13.55,-6.70,4.44,4.44,4.44
22.76,17.62,13.17,17.64,13.18,-13.18,-13.38,-6.87,4.44,4.45,4.45
22.99,17.51,13.06,17.52,13.06,-13.06,-13.21,-7.05,4.45,4.46,4.45
23.22,17.40,12.94,17.41,12.94,-12.94,-13.04,-7.23,4.46,4.47,4.46
23.45,17.29,12.82,17.30,12.82,-12.82,-12.86,-7.42,4.47,4.48,4.47
23.69,17.19,12.71,17.19,12.70,-12.70,-12.69,-7.61,4.49,4.49,4.48
23.92,17.07,12.58,17.07,12.58,-12.58,-12.51,-7.81,4.50,4.50,4.49
24.16,16.96,12.45,16.96,12.45,-12.45,-12.34,-8.01,4.51,4.51,4.51
24.40,16.85,12.32,16.85,12.33,-12.33,-12.17,-8.21,4.52,4.51,4.53
24.65,16.73,12.21,16.74,12.21,-12.21,-12.00,-8.42,4.52,4.52,4.53
24.89,16.62,12.09,16.63,12.09,-12.09,-11.84,-8.63,4.53,4.53,4.54
25.14,16.51,11.97,16.51,11.97,-11.97,-11.67,-8.85,4.54,4.54,4.54
25.39,16.40,11.85,16.40,11.85,-11.85,-11.52,-9.07,4.55,4.56,4.55
25.65,16.29,11.72,16.29,11.73,-11.73,-11.36,-9.30,4.57,4.57,4.57
25.91,16.19,11.61,16.18,11.60,-11.60,-11.21,-9.53,4.58,4.58,4.57
26.16,16.06,11.48,16.07,11.48,-11.48,-11.07,-9.76,4.58,4.59,4.58
26.43,15.96,11.37,15.95,11.36,-11.36,-10.93,-9.99,4.60,4.59,4.59
26.69,15.84,11.25,15.84,11.24,-11.24,-10.79,-10.22,4.61,4.60,4.60
26.96,15.73,11.11,15.73,11.12,-11.12,-10.66,-10.45,4.61,4.61,4.62
27.23,15.62,10.99,15.61,10.99,-10.99,-10.53,-10.68,4.62,4.62,4.62
27.50,15.50,10.87,15.50,10.87,-10.87,-10.41,-10.91,4.63,4.63,4.63
27.77,15.38,10.75,15.39,10.75,-10.75,-10.29,-11.14,4.63,4.64,4.63
28.05,15.27,10.62,15.27,10.63,-10.63,-10.18,-11.36,4.64,4.64,4.65
28.33,15.15,10.50,15.16,10.51,-10.51,-10.07,-11.57,4.65,4.65,4.65
28.62,15.05,10.39,15.05,10.39,-10.39,-9.97,-11.77,4.66,4.66,4.66
28.90,14.93,10.27,14.93,10.27,-10.27,-9.87,-11.96,4.67,4.67,4.67
29.19,14.82,10.16,14.82,10.15,-10.15,-9.77,-12.13,4.68,4.67,4.66
29.48,14.70,10.01,14.71,10.03,-10.03,-9.68,-12.29,4.67,4.68,4.69
29.78,14.59,9.91,14.60,9.91,-9.91,-9.59,-12.43,4.68,4.69,4.69
30.08,14.49,9.79,14.49,9.79,-9.79,-9.50,-12.55,4.69,4.69,4.70
30.38,14.38,9.68,14.37,9.67,-9.67,-9.42,-12.64,4.70,4.70,4.70
30.68,14.26,9.55,14.26,9.56,-9.56,-9.34,-12.70,4.71,4.71,4.71
30.99,14.16,9.44,14.15,9.44,-9.44,-9.26,-12.74,4.72,4.71,4.71
31.30,14.05,9.33,14.04,9.32,-9.32,-9.19,-12.75,4.72,4.72,4.72
31.61,13.93,9.21,13.93,9.20,-9.20,-9.11,-12.73,4.73,4.73,4.73
31.93,13.82,9.08,13.82,9.08,-9.08,-9.04,-12.68,4.73,4.73,4.73
32.24,13.70,8.97,13.71,8.97,-8.97,-8.97,-12.61,4.74,4.74,4.73
32.57,13.59,8.85,13.59,8.85,-8.85,-8.90,-12.51,4.75,4.75,4.75
32.89,13.48,8.73,13.48,8.73,-8.73,-8.82,-12.38,4.76,4.75,4.76
33.22,13.37,8.61,13.37,8.61,-8.61,-8.75,-12.24,4.77,4.76,4.76
33.55,13.25,8.48,13.25,8.49,-8.49,-8.68,-12.07,4.77,4.77,4.77
33.89,13.14,8.37,13.14,8.36,-8.36,-8.61,-11.89,4.78,4.77,4.78
34.23,13.03,8.25,13.02,8.24,-8.24,-8.53,-11.69,4.79,4.78,4.78
34.57,12.92,8.13,12.91,8.13,-8.13,-8.46,-11.48,4.80,4.78,4.79
34.92,12.80,8.01,12.80,8.01,-8.01,-8.38,-11.26,4.79,4.79,4.79
35.27,12.68,7.88,12.68,7.89,-7.89,-8.29,-11.04,4.78,4.79,4.79
35.62,12.56,7.77,12.57,7.78,-7.78,-8.21,-10.80,4.79,4.80,4.80
35.97,12.45,7.66,12.46,7.67,-7.67,-8.12,-10.57,4.79,4.80,4.79
36.33,12.34,7.54,12.36,7.56,-7.56,-8.03,-10.33,4.78,4.80,4.80
36.70,12.24,7.45,12.25,7.45,-7.45,-7.94,-10.09,4.79,4.80,4.79
37.06,12.14,7.34,12.15,7.35,-7.35,-7.84,-9.85,4.79,4.80,4.80
37.43,12.03,7.23,12.04,7.25,-7.25,-7.74,-9.61,4.78,4.80,4.81
37.81,11.95,7.15,11.94,7.15,-7.15,-7.64,-9.38,4.80,4.79,4.80
38.19,11.84,7.05,11.84,7.05,-7.05,-7.53,-9.14,4.79,4.79,4.80
38.57,11.74,6.95,11.75,6.96,-6.96,-7.42,-8.91,4.79,4.79,4.79
38.95,11.66,6.88,11.65,6.86,-6.86,-7.31,-8.68,4.80,4.79,4.78
39.34,11.55,6.77,11.55,6.77,-6.77,-7.20,-8.46,4.78,4.78,4.78
39.74,11.45,6.68,11.45,6.67,-6.67,-7.08,-8.24,4.78,4.78,4.77
40.14,11.35,6.58,11.35,6.58,-6.58,-6.96,-8.02,4.78,4.78,4.78
40.54,11.25,6.48,11.25,6.48,-6.48,-6.84,-7.81,4.78,4.77,4.77
40.94,11.15,6.39,11.15,6.38,-6.38,-6.72,-7.60,4.77,4.77,4.76
41.35,11.05,6.30,11.05,6.28,-6.28,-6.59,-7.40,4.77,4.76,4.76
41.76,10.95,6.19,10.94,6.18,-6.18,-6.47,-7.20,4.77,4.76,4.76
42.18,10.84,6.08,10.84,6.08,-6.08,-6.34,-7.00,4.76,4.75,4.76
42.60,10.73,5.98,10.74,5.99,-5.99,-6.22,-6.81,4.75,4.75,4.75
43.03,10.62,5.87,10.63,5.89,-5.89,-6.09,-6.62,4.74,4.74,4.76
43.46,10.51,5.77,10.53,5.79,-5.79,-5.97,-6.44,4.73,4.74,4.75
43.90,10.41,5.69,10.43,5.69,-5.69,-5.84,-6.26,4.72,4.74,4.73
44.33,10.32,5.59,10.32,5.59,-5.59,-5.72,-6.09,4.73,4.73,4.73
44.78,10.21,5.49,10.22,5.49,-5.49,-5.59,-5.92,4.72,4.73,4.72
45.23,10.11,5.40,10.12,5.40,-5.40,-5.47,-5.75,4.72,4.72,4.71
45.68,10.02,5.31,10.02,5.30,-5.30,-5.35,-5.59,4.72,4.72,4.71
46.13,9.91,5.21,9.92,5.21,-5.21,-5.23,-5.43,4.71,4.71,4.70
46.60,9.82,5.12,9.82,5.11,-5.11,-5.11,-5.28,4.71,4.70,4.71
47.06,9.72,5.03,9.72,5.02,-5.02,-4.99,-5.13,4.70,4.69,4.70
47.53,9.61,4.93,9.61,4.93,-4.93,-4.88,-4.98,4.68,4.68,4.69
48.01,9.51,4.82,9.51,4.84,-4.84,-4.77,-4.84,4.68,4.67,4.69
48.49,9.41,4.74,9.40,4.74,-4.74,-4.65,-4.69,4.67,4.66,4.67
48.97,9.29,4.64,9.30,4.65,-4.65,-4.54,-4.56,4.64,4.65,4.65
49.46,9.19,4.56,9.19,4.55,-4.55,-4.44,-4.42,4.64,4.64,4.63
49.96,9.08,4.47,9.08,4.46,-4.46,-4.33,-4.29,4.62,4.62,4.61
50.46,8.97,4.37,8.97,4.37,-4.37,-4.23,-4.16,4.61,4.61,4.61
50.96,8.86,4.27,8.86,4.28,-4.28,-4.12,-4.04,4.59,4.59,4.59
51.47,8.75,4.20,8.75,4.18,-4.18,-4.02,-3.92,4.57,4.57,4.56
51.99,8.63,4.09,8.64,4.09,-4.09,-3.92,-3.80,4.54,4.55,4.54
52.51,8.52,3.99,8.53,4.00,-4.00,-3.83,-3.68,4.52,4.53,4.53
53.03,8.41,3.91,8.42,3.91,-3.91,-3.73,-3.56,4.50,4.51,4.51
53.56,8.30,3.81,8.30,3.82,-3.82,-3.64,-3.45,4.48,4.48,4.49
54.10,8.19,3.73,8.19,3.73,-3.73,-3.55,-3.35,4.46,4.46,4.46
54.64,8.07,3.63,8.08,3.64,-3.64,-3.46,-3.24,4.43,4.44,4.44
55.18,7.96,3.55,7.97,3.55,-3.55,-3.37,-3.14,4.41,4.42,4.41
55.74,7.85,3.47,7.85,3.46,-3.46,-3.28,-3.04,4.40,4.39,4.38
56.29,7.74,3.37,7.74,3.37,-3.37,-3.20,-2.94,4.37,4.37,4.37
56.86,7.62,3.28,7.63,3.28,-3.28,-3.12,-2.84,4.34,4.34,4.34
57.42,7.51,3.21,7.51,3.19,-3.19,-3.03,-2.75,4.32,4.32,4.31
58.00,7.40,3.12,7.40,3.11,-3.11,-2.95,-2.66,4.29,4.29,4.28
58.58,7.28,3.02,7.29,3.03,-3.03,-2.88,-2.57,4.26,4.26,4.26
59.16,7.17,2.94,7.17,2.94,-2.94,-2.80,-2.49,4.23,4.23,4.24
59.76,7.05,2.84,7.06,2.86,-2.86,-2.72,-2.40,4.19,4.20,4.21
60.35,6.94,2.77,6.94,2.78,-2.78,-2.65,-2.32,4.16,4.16,4.18
60.96,6.83,2.70,6.83,2.70,-2.70,-2.57,-2.25,4.13,4.13,4.14
61.57,6.71,2.62,6.72,2.63,-2.63,-2.50,-2.17,4.09,4.09,4.09
62.18,6.60,2.56,6.61,2.55,-2.55,-2.43,-2.10,4.05,4.05,4.04
62.80,6.49,2.48,6.49,2.48,-2.48,-2.36,-2.03,4.01,4.01,4.01
63.43,6.38,2.42,6.38,2.41,-2.41,-2.29,-1.96,3.97,3.97,3.96
64.07,6.27,2.35,6.27,2.34,-2.34,-2.22,-1.89,3.93,3.93,3.92
64.71,6.15,2.27,6.16,2.27,-2.27,-2.15,-1.83,3.88,3.89,3.88
65.35,6.04,2.20,6.05,2.21,-2.21,-2.08,-1.76,3.84,3.84,3.84
66.01,5.93,2.14,5.94,2.14,-2.14,-2.02,-1.70,3.80,3.80,3.79
66.67,5.82,2.06,5.83,2.07,-2.07,-1.95,-1.64,3.75,3.75,3.76
67.33,5.71,2.00,5.71,2.01,-2.01,-1.89,-1.59,3.71,3.71,3.71
68.01,5.60,1.94,5.60,1.94,-1.94,-1.82,-1.53,3.67,3.66,3.67
68.69,5.49,1.87,5.49,1.87,-1.87,-1.76,-1.48,3.62,3.62,3.62
69.37,5.38,1.81,5.38,1.80,-1.80,-1.69,-1.42,3.58,3.57,3.57
70.07,5.26,1.74,5.26,1.73,-1.73,-1.63,-1.37,3.53,3.53,3.52
70.77,5.15,1.67,5.15,1.67,-1.67,-1.57,-1.32,3.49,3.48,3.48
71.48,5.04,1.60,5.04,1.60,-1.60,-1.51,-1.28,3.45,3.44,3.44
72.19,4.92,1.53,4.92,1.53,-1.53,-1.45,-1.23,3.39,3.39,3.39
72.91,4.81,1.47,4.81,1.46,-1.46,-1.39,-1.18,3.35,3.35,3.35
73.64,4.69,1.39,4.70,1.39,-1.39,-1.33,-1.14,3.30,3.31,3.30
74.38,4.57,1.31,4.59,1.32,-1.32,-1.27,-1.09,3.25,3.26,3.27
75.12,4.47,1.25,4.48,1.25,-1.25,-1.21,-1.05,3.22,3.22,3.22
75.87,4.37,1.19,4.37,1.18,-1.18,-1.15,-1.01,3.19,3.18,3.18
76.63,4.25,1.11,4.26,1.12,-1.12,-1.09,-0.96,3.14,3.15,3.15
77.40,4.16,1.06,4.16,1.05,-1.05,-1.03,-0.92,3.11,3.11,3.11
78.17,4.06,1.00,4.06,0.99,-0.99,-0.98,-0.88,3.08,3.07,3.07
78.95,3.95,0.92,3.96,0.92,-0.92,-0.92,-0.84,3.03,3.04,3.04
79.74,3.85,0.85,3.86,0.86,-0.86,-0.86,-0.80,2.99,3.00,3.00
80.54,3.75,0.78,3.76,0.80,-0.80,-0.81,-0.76,2.96,2.97,2.97
81.35,3.66,0.73,3.67,0.73,-0.73,-0.75,-0.72,2.93,2.94,2.94
82.16,3.57,0.67,3.58,0.67,-0.67,-0.69,-0.68,2.90,2.90,2.90
82.98,3.48,0.61,3.48,0.61,-0.61,-0.64,-0.64,2.87,2.87,2.88
83.81,3.39,0.55,3.39,0.55,-0.55,-0.58,-0.60,2.85,2.84,2.84
84.65,3.30,0.50,3.30,0.48,-0.48,-0.53,-0.56,2.82,2.81,2.80
85.50,3.21,0.43,3.20,0.42,-0.42,-0.47,-0.52,2.79,2.78,2.78
86.35,3.12,0.37,3.11,0.36,-0.36,-0.42,-0.48,2.77,2.76,2.76
87.22,3.03,0.31,3.02,0.29,-0.29,-0.37,-0.44,2.74,2.73,2.73
88.09,2.93,0.24,2.93,0.23,-0.23,-0.31,-0.40,2.71,2.70,2.70
88.97,2.83,0.16,2.83,0.16,-0.16,-0.26,-0.36,2.67,2.67,2.67
89.86,2.73,0.08,2.74,0.10,-0.10,-0.21,-0.31,2.64,2.65,2.65
90.76,2.64,0.03,2.65,0.03,-0.03,-0.16,-0.27,2.61,2.62,2.61
91.66,2.55,-0.03,2.56,-0.03,0.03,-0.11,-0.23,2.59,2.59,2.59
92.58,2.45,-0.10,2.46,-0.10,0.10,-0.06,-0.19,2.55,2.56,2.55
93.51,2.37,-0.17,2.37,-0.16,0.16,-0.01,-0.15,2.53,2.53,2.54
94.44,2.28,-0.22,2.28,-0.22,0.22,0.04,-0.11,2.50,2.50,2.50
95.39,2.20,-0.27,2.20,-0.27,0.27,0.09,-0.07,2.48,2.47,2.48
96.34,2.11,-0.32,2.11,-0.33,0.33,0.13,-0.03,2.44,2.43,2.43
97.30,2.02,-0.37,2.03,-0.37,0.37,0.18,0.01,2.40,2.40,2.40
98.28,1.93,-0.43,1.95,-0.42,0.42,0.22,0.05,2.35,2.37,2.36
99.26,1.86,-0.46,1.87,-0.46,0.46,0.26,0.09,2.32,2.33,2.32
100.25,1.79,-0.49,1.79,-0.50,0.50,0.30,0.13,2.29,2.29,2.29
101.25,1.71,-0.54,1.72,-0.53,0.53,0.34,0.17,2.25,2.25,2.25
102.27,1.63,-0.57,1.64,-0.56,0.56,0.38,0.21,2.20,2.20,2.20
103.29,1.56,-0.59,1.57,-0.59,0.59,0.42,0.25,2.15,2.16,2.15
104.32,1.50,-0.61,1.50,-0.61,0.61,0.45,0.29,2.11,2.11,2.12
105.37,1.44,-0.62,1.43,-0.63,0.63,0.49,0.32,2.07,2.06,2.07
106.42,1.37,-0.64,1.37,-0.64,0.64,0.52,0.36,2.01,2.01,2.01
107.48,1.31,-0.65,1.31,-0.65,0.65,0.55,0.40,1.96,1.95,1.96
108.56,1.24,-0.65,1.24,-0.65,0.65,0.57,0.43,1.90,1.90,1.90
109.64,1.17,-0.66,1.18,-0.65,0.65,0.60,0.46,1.83,1.83,1.84
110.74,1.11,-0.67,1.12,-0.65,0.65,0.62,0.50,1.76,1.77,1.78
111.85,1.06,-0.65,1.06,-0.64,0.64,0.64,0.52,1.71,1.71,1.71
112.97,1.01,-0.62,1.01,-0.63,0.63,0.66,0.55,1.65,1.64,1.64
114.10,0.95,-0.63,0.95,-0.62,0.62,0.67,0.58,1.57,1.57,1.58
115.24,0.89,-0.61,0.90,-0.61,0.61,0.68,0.60,1.50,1.51,1.50
116.39,0.84,-0.58,0.84,-0.59,0.59,0.69,0.62,1.44,1.44,1.43
117.55,0.78,-0.58,0.79,-0.58,0.58,0.70,0.64,1.36,1.37,1.36
118.73,0.73,-0.55,0.74,-0.56,0.56,0.70,0.66,1.29,1.30,1.29
119.92,0.68,-0.55,0.69,-0.54,0.54,0.70,0.67,1.23,1.23,1.23
121.12,0.64,-0.52,0.64,-0.53,0.53,0.70,0.68,1.17,1.17,1.16
122.33,0.60,-0.49,0.59,-0.52,0.52,0.70,0.69,1.12,1.10,1.10
123.55,0.55,-0.49,0.54,-0.50,0.50,0.69,0.69,1.06,1.04,1.04
124.79,0.49,-0.49,0.49,-0.49,0.49,0.68,0.69,0.98,0.98,0.98
126.03,0.44,-0.48,0.44,-0.48,0.48,0.67,0.69,0.92,0.92,0.92
127.29,0.38,-0.48,0.39,-0.46,0.46,0.66,0.69,0.85,0.86,0.86
128.57,0.34,-0.45,0.35,-0.45,0.45,0.64,0.68,0.79,0.80,0.79
129.85,0.30,-0.44,0.31,-0.43,0.43,0.62,0.67,0.74,0.74,0.74
131.15,0.25,-0.43,0.27,-0.42,0.42,0.60,0.65,0.67,0.69,0.68
132.46,0.21,-0.42,0.23,-0.40,0.40,0.57,0.64,0.62,0.64,0.63
133.79,0.17,-0.41,0.19,-0.39,0.39,0.55,0.62,0.56,0.58,0.59
135.12,0.15,-0.38,0.16,-0.37,0.37,0.52,0.59,0.53,0.53,0.53
136.48,0.13,-0.35,0.12,-0.36,0.36,0.49,0.57,0.49,0.48,0.49
137.84,0.10,-0.33,0.09,-0.34,0.34,0.46,0.54,0.44,0.43,0.43
139.22,0.08,-0.30,0.07,-0.32,0.32,0.42,0.51,0.41,0.39,0.38
140.61,0.05,-0.27,0.04,-0.30,0.30,0.39,0.48,0.36,0.34,0.33
142.02,0.01,-0.28,0.01,-0.29,0.29,0.35,0.44,0.30,0.30,0.30
143.44,-0.02,-0.27,-0.02,-0.27,0.27,0.31,0.41,0.25,0.25,0.26
144.87,-0.06,-0.26,-0.05,-0.25,0.25,0.27,0.37,0.19,0.20,0.21
146.32,-0.08,-0.23,-0.07,-0.23,0.23,0.23,0.33,0.16,0.16,0.16
147.78,-0.11,-0.23,-0.10,-0.21,0.21,0.18,0.29,0.11,0.11,0.12
149.26,-0.13,-0.20,-0.13,-0.19,0.19,0.14,0.25,0.07,0.06,0.07
150.75,-0.15,-0.16,-0.16,-0.18,0.18,0.09,0.21,0.03,0.01,0.01
152.26,-0.18,-0.14,-0.19,-0.15,0.15,0.05,0.16,-0.02,-0.03,-0.03
153.78,-0.21,-0.13,-0.21,-0.13,0.13,-0.00,0.12,-0.08,-0.08,-0.08
155.32,-0.24,-0.10,-0.23,-0.10,0.10,-0.05,0.07,-0.14,-0.13,-0.14
156.88,-0.26,-0.07,-0.25,-0.06,0.06,-0.10,0.03,-0.19,-0.18,-0.18
158.44,-0.28,-0.04,-0.26,-0.03,0.03,-0.14,-0.02,-0.25,-0.24,-0.23
160.03,-0.30,-0.00,-0.28,0.01,-0.01,-0.19,-0.07,-0.31,-0.29,-0.29
161.63,-0.31,0.04,-0.28,0.06,-0.06,-0.24,-0.12,-0.36,-0.34,-0.35
163.24,-0.31,0.09,-0.29,0.10,-0.10,-0.29,-0.16,-0.41,-0.39,-0.40
164.88,-0.31,0.14,-0.30,0.15,-0.15,-0.34,-0.21,-0.46,-0.45,-0.45
166.53,-0.30,0.20,-0.30,0.20,-0.20,-0.39,-0.26,-0.50,-0.50,-0.50
168.19,-0.29,0.27,-0.30,0.25,-0.25,-0.44,-0.31,-0.54,-0.56,-0.56
169.87,-0.29,0.32,-0.30,0.31,-0.31,-0.49,-0.36,-0.60,-0.61,-0.61
171.57,-0.29,0.38,-0.30,0.37,-0.37,-0.54,-0.41,-0.66,-0.67,-0.66
173.29,-0.29,0.44,-0.29,0.43,-0.43,-0.59,-0.46,-0.72,-0.73,-0.72
175.02,-0.29,0.49,-0.29,0.50,-0.50,-0.64,-0.52,-0.78,-0.79,-0.78
176.77,-0.29,0.56,-0.29,0.56,-0.56,-0.69,-0.57,-0.84,-0.85,-0.85
178.54,-0.29,0.62,-0.29,0.62,-0.62,-0.73,-0.62,-0.90,-0.90,-0.91
180.32,-0.29,0.68,-0.28,0.68,-0.68,-0.78,-0.67,-0.97,-0.96,-0.96
182.13,-0.29,0.74,-0.28,0.74,-0.74,-0.83,-0.72,-1.03,-1.03,-1.02
183.95,-0.29,0.80,-0.28,0.80,-0.80,-0.88,-0.78,-1.09,-1.09,-1.09
185.79,-0.29,0.86,-0.29,0.86,-0.86,-0.92,-0.83,-1.15,-1.15,-1.14
187.65,-0.29,0.93,-0.29,0.92,-0.92,-0.97,-0.88,-1.21,-1.21,-1.22
189.52,-0.29,0.99,-0.29,0.98,-0.98,-1.01,-0.94,-1.27,-1.27,-1.27
191.42,-0.29,1.04,-0.29,1.04,-1.04,-1.06,-0.99,-1.33,-1.33,-1.33
193.33,-0.29,1.10,-0.29,1.10,-1.10,-1.10,-1.05,-1.38,-1.38,-1.38
195.27,-0.29,1.15,-0.29,1.15,-1.15,-1.14,-1.10,-1.44,-1.44,-1.43
197.22,-0.29,1.21,-0.29,1.21,-1.21,-1.18,-1.15,-1.50,-1.50,-1.50
199.19,-0.29,1.27,-0.29,1.26,-1.26,-1.22,-1.21,-1.55,-1.55,-1.56
201.18,-0.29,1.32,-0.29,1.32,-1.32,-1.26,-1.26,-1.60,-1.60,-1.61
203.19,-0.29,1.36,-0.29,1.37,-1.37,-1.30,-1.31,-1.65,-1.65,-1.65
205.23,-0.29,1.42,-0.29,1.42,-1.42,-1.34,-1.37,-1.70,-1.70,-1.71
207.28,-0.29,1.45,-0.29,1.46,-1.46,-1.37,-1.42,-1.75,-1.75,-1.73
209.35,-0.29,1.51,-0.29,1.51,-1.51,-1.41,-1.47,-1.80,-1.80,-1.79
211.44,-0.29,1.56,-0.29,1.55,-1.55,-1.44,-1.52,-1.84,-1.84,-1.85
213.56,-0.29,1.60,-0.29,1.60,-1.60,-1.48,-1.57,-1.88,-1.88,-1.89
215.69,-0.29,1.63,-0.29,1.64,-1.64,-1.51,-1.62,-1.92,-1.92,-1.91
217.85,-0.29,1.67,-0.29,1.67,-1.67,-1.54,-1.67,-1.96,-1.96,-1.96
220.03,-0.29,1.72,-0.29,1.71,-1.71,-1.57,-1.72,-2.00,-2.00,-2.00
222.23,-0.29,1.75,-0.29,1.74,-1.74,-1.60,-1.76,-2.03,-2.03,-2.04
224.45,-0.29,1.77,-0.29,1.77,-1.77,-1.62,-1.80,-2.06,-2.06,-2.06
226.70,-0.29,1.80,-0.29,1.80,-1.80,-1.65,-1.85,-2.09,-2.09,-2.08
228.96,-0.29,1.83,-0.29,1.83,-1.83,-1.67,-1.88,-2.11,-2.11,-2.12
231.25,-0.29,1.84,-0.29,1.85,-1.85,-1.70,-1.92,-2.14,-2.14,-2.13
233.57,-0.29,1.87,-0.29,1.87,-1.87,-1.72,-1.95,-2.15,-2.15,-2.15
235.90,-0.29,1.89,-0.29,1.88,-1.88,-1.74,-1.98,-2.17,-2.17,-2.17
238.26,-0.29,1.90,-0.29,1.90,-1.90,-1.76,-2.01,-2.18,-2.18,-2.19
240.64,-0.29,1.91,-0.29,1.91,-1.91,-1.78,-2.03,-2.19,-2.19,-2.20
243.05,-0.29,1.91,-0.29,1.91,-1.91,-1.79,-2.05,-2.20,-2.20,-2.20
245.48,-0.29,1.92,-0.29,1.92,-1.92,-1.81,-2.07,-2.20,-2.20,-2.21
247.93,-0.29,1.92,-0.29,1.92,-1.92,-1.82,-2.09,-2.21,-2.21,-2.21
250.41,-0.29,1.93,-0.29,1.92,-1.92,-1.84,-2.10,-2.21,-2.21,-2.22
252.92,-0.29,1.92,-0.29,1.92,-1.92,-1.85,-2.10,-2.21,-2.21,-2.21
255.45,-0.29,1.91,-0.29,1.92,-1.92,-1.86,-2.11,-2.20,-2.20,-2.19
258.00,-0.29,1.91,-0.29,1.91,-1.91,-1.87,-2.11,-2.20,-2.20,-2.19
260.58,-0.29,1.90,-0.29,1.90,-1.90,-1.88,-2.11,-2.19,-2.19,-2.19
263.19,-0.29,1.89,-0.29,1.89,-1.89,-1.88,-2.10,-2.18,-2.18,-2.18
265.82,-0.29,1.89,-0.29,1.88,-1.88,-1.89,-2.09,-2.17,-2.17,-2.18
268.48,-0.29,1.87,-0.29,1.87,-1.87,-1.89,-2.08,-2.16,-2.16,-2.15
271.16,-0.29,1.85,-0.29,1.86,-1.86,-1.90,-2.06,-2.15,-2.15,-2.14
273.87,-0.29,1.85,-0.29,1.85,-1.85,-1.90,-2.05,-2.13,-2.13,-2.14
276.61,-0.29,1.83,-0.29,1.84,-1.84,-1.90,-2.03,-2.12,-2.12,-2.11
279.38,-0.29,1.82,-0.29,1.82,-1.82,-1.90,-2.01,-2.11,-2.11,-2.11
282.17,-0.29,1.81,-0.29,1.81,-1.81,-1.90,-1.99,-2.10,-2.10,-2.10
284.99,-0.29,1.80,-0.29,1.80,-1.80,-1.90,-1.96,-2.09,-2.09,-2.08
287.84,-0.29,1.79,-0.29,1.79,-1.79,-1.89,-1.94,-2.07,-2.07,-2.08
290.72,-0.29,1.78,-0.29,1.77,-1.77,-1.89,-1.91,-2.06,-2.06,-2.06
293.63,-0.29,1.76,-0.29,1.76,-1.76,-1.89,-1.88,-2.05,-2.05,-2.05
296.57,-0.29,1.75,-0.29,1.75,-1.75,-1.88,-1.85,-2.04,-2.04,-2.03
299.53,-0.29,1.74,-0.29,1.74,-1.74,-1.88,-1.82,-2.02,-2.02,-2.03
302.53,-0.29,1.74,-0.29,1.73,-1.73,-1.87,-1.79,-2.01,-2.01,-2.02
305.55,-0.29,1.71,-0.29,1.72,-1.72,-1.86,-1.77,-2.00,-2.00,-2.00
308.61,-0.29,1.71,-0.29,1.71,-1.71,-1.86,-1.74,-1.99,-1.99,-1.99
311.69,-0.29,1.70,-0.29,1.70,-1.70,-1.85,-1.71,-1.98,-1.98,-1.99
314.81,-0.29,1.67,-0.29,1.69,-1.69,-1.84,-1.68,-1.97,-1.97,-1.96
317.96,-0.29,1.68,-0.29,1.68,-1.68,-1.83,-1.65,-1.97,-1.97,-1.96
321.14,-0.29,1.67,-0.29,1.67,-1.67,-1.82,-1.62,-1.96,-1.96,-1.96
324.35,-0.29,1.67,-0.29,1.67,-1.67,-1.81,-1.60,-1.95,-1.95,-1.96
327.59,-0.29,1.66,-0.29,1.66,-1.66,-1.80,-1.57,-1.95,-1.95,-1.94
330.87,-0.29,1.66,-0.29,1.66,-1.66,-1.79,-1.54,-1.95,-1.95,-1.95
334.18,-0.29,1.66,-0.29,1.66,-1.66,-1.78,-1.52,-1.94,-1.94,-1.95
337.52,-0.29,1.66,-0.29,1.65,-1.65,-1.77,-1.49,-1.94,-1.94,-1.94
340.90,-0.29,1.65,-0.29,1.65,-1.65,-1.75,-1.47,-1.94,-1.94,-1.94
344.30,-0.29,1.65,-0.29,1.65,-1.65,-1.74,-1.45,-1.94,-1.94,-1.94
347.75,-0.29,1.66,-0.29,1.66,-1.66,-1.73,-1.43,-1.94,-1.94,-1.94
351.23,-0.29,1.66,-0.29,1.66,-1.66,-1.72,-1.41,-1.95,-1.95,-1.94
354.74,-0.29,1.66,-0.28,1.67,-1.67,-1.70,-1.39,-1.95,-1.95,-1.95
358.28,-0.29,1.67,-0.28,1.67,-1.67,-1.69,-1.37,-1.96,-1.96,-1.96
361.87,-0.29,1.68,-0.28,1.68,-1.68,-1.68,-1.36,-1.97,-1.96,-1.96
365.49,-0.29,1.68,-0.27,1.69,-1.69,-1.67,-1.34,-1.98,-1.97,-1.96
369.14,-0.29,1.69,-0.27,1.70,-1.70,-1.65,-1.33,-1.99,-1.97,-1.98
372.83,-0.28,1.70,-0.27,1.71,-1.71,-1.64,-1.31,-1.99,-1.98,-1.98
376.56,-0.28,1.71,-0.27,1.72,-1.72,-1.63,-1.30,-2.00,-1.99,-1.99
380.33,-0.27,1.73,-0.27,1.73,-1.73,-1.62,-1.29,-1.99,-2.00,-1.99
384.13,-0.26,1.75,-0.27,1.73,-1.73,-1.60,-1.28,-1.99,-2.00,-2.00
387.97,-0.27,1.75,-0.28,1.73,-1.73,-1.59,-1.27,-2.00,-2.01,-2.02
391.85,-0.27,1.76,-0.29,1.73,-1.73,-1.58,-1.26,-2.00,-2.02,-2.03
395.77,-0.29,1.73,-0.30,1.73,-1.73,-1.57,-1.25,-2.01,-2.03,-2.02
399.73,-0.31,1.72,-0.32,1.72,-1.72,-1.55,-1.25,-2.02,-2.03,-2.03
403.72,-0.33,1.72,-0.34,1.70,-1.70,-1.54,-1.24,-2.03,-2.04,-2.04
407.76,-0.36,1.70,-0.36,1.68,-1.68,-1.53,-1.23,-2.04,-2.05,-2.05
411.84,-0.39,1.66,-0.39,1.66,-1.66,-1.52,-1.23,-2.05,-2.05,-2.05
415.96,-0.42,1.64,-0.42,1.64,-1.64,-1.50,-1.23,-2.06,-2.06,-2.06
420.12,-0.45,1.61,-0.45,1.61,-1.61,-1.49,-1.22,-2.06,-2.06,-2.06
424.32,-0.48,1.58,-0.48,1.59,-1.59,-1.48,-1.22,-2.06,-2.06,-2.06
428.56,-0.51,1.56,-0.51,1.56,-1.56,-1.47,-1.22,-2.07,-2.07,-2.07
432.85,-0.54,1.54,-0.53,1.54,-1.54,-1.46,-1.22,-2.07,-2.07,-2.07
437.18,-0.57,1.51,-0.55,1.52,-1.52,-1.45,-1.22,-2.08,-2.07,-2.07
441.55,-0.59,1.48,-0.57,1.50,-1.50,-1.44,-1.22,-2.09,-2.07,-2.06
445.96,-0.61,1.46,-0.58,1.49,-1.49,-1.43,-1.22,-2.09,-2.07,-2.06
450.42,-0.62,1.46,-0.59,1.48,-1.48,-1.42,-1.22,-2.09,-2.07,-2.08
454.93,-0.63,1.44,-0.60,1.47,-1.47,-1.40,-1.22,-2.09,-2.06,-2.07
459.48,-0.63,1.44,-0.60,1.46,-1.46,-1.39,-1.22,-2.09,-2.06,-2.07
464.07,-0.62,1.44,-0.61,1.45,-1.45,-1.38,-1.22,-2.07,-2.06,-2.06
468.71,-0.60,1.45,-0.61,1.44,-1.44,-1.37,-1.22,-2.04,-2.05,-2.05
