frequency,raw,error,smoothed,error_smoothed,equalization,parametric_eq,fixed_band_eq,equalized_raw,equalized_smoothed,target
20.00,-0.03,-1.81,-0.03,-1.84,1.84,1.83,0.53,1.81,1.81,1.79
20.20,0.04,-1.83,0.04,-1.85,1.85,1.82,0.55,1.89,1.89,1.88
20.40,0.11,-1.85,0.11,-1.85,1.85,1.81,0.56,1.96,1.96,1.96
20.61,0.17,-1.85,0.18,-1.85,1.85,1.80,0.58,2.03,2.03,2.02
20.81,0.25,-1.87,0.25,-1.86,1.86,1.79,0.59,2.10,2.10,2.11
21.02,0.31,-1.88,0.31,-1.85,1.85,1.77,0.61,2.17,2.17,2.19
21.23,0.37,-1.88,0.38,-1.85,1.85,1.76,0.63,2.22,2.23,2.25
21.44,0.45,-1.87,0.45,-1.84,1.84,1.75,0.64,2.29,2.29,2.31
21.66,0.51,-1.85,0.51,-1.84,1.84,1.73,0.66,2.35,2.35,2.36
21.87,0.58,-1.84,0.58,-1.83,1.83,1.72,0.68,2.40,2.40,2.41
22.09,0.65,-1.82,0.64,-1.81,1.81,1.70,0.70,2.46,2.46,2.46
22.31,0.71,-1.81,0.71,-1.80,1.80,1.68,0.72,2.50,2.51,2.51
22.54,0.77,-1.78,0.77,-1.78,1.78,1.67,0.74,2.55,2.55,2.55
22.76,0.84,-1.75,0.84,-1.75,1.75,1.65,0.76,2.59,2.59,2.59
22.99,0.90,-1.71,0.90,-1.73,1.73,1.63,0.78,2.63,2.63,2.62
23.22,0.96,-1.69,0.96,-1.70,1.70,1.62,0.80,2.67,2.67,2.66
23.45,1.03,-1.67,1.03,-1.68,1.68,1.60,0.83,2.70,2.71,2.70
23.69,1.09,-1.64,1.09,-1.65,1.65,1.58,0.85,2.74,2.74,2.74
23.92,1.16,-1.62,1.15,-1.63,1.63,1.56,0.87,2.78,2.78,2.78
24.16,1.22,-1.61,1.21,-1.60,1.60,1.54,0.89,2.81,2.81,2.82
24.40,1.28,-1.58,1.28,-1.57,1.57,1.52,0.92,2.85,2.85,2.85
24.65,1.33,-1.55,1.34,-1.54,1.54,1.50,0.94,2.88,2.88,2.88
24.89,1.40,-1.52,1.40,-1.52,1.52,1.48,0.96,2.91,2.91,2.91
25.14,1.46,-1.50,1.46,-1.49,1.49,1.46,0.99,2.95,2.95,2.95
25.39,1.52,-1.46,1.52,-1.46,1.46,1.44,1.01,2.98,2.98,2.98
25.65,1.57,-1.44,1.57,-1.44,1.44,1.42,1.04,3.01,3.01,3.02
25.91,1.63,-1.40,1.63,-1.41,1.41,1.40,1.06,3.04,3.04,3.04
26.16,1.70,-1.37,1.69,-1.39,1.39,1.38,1.08,3.08,3.08,3.07
26.43,1.74,-1.36,1.75,-1.36,1.36,1.36,1.11,3.10,3.10,3.10
26.69,1.80,-1.33,1.80,-1.33,1.33,1.34,1.13,3.14,3.13,3.13
26.96,1.85,-1.31,1.86,-1.31,1.31,1.32,1.15,3.16,3.16,3.16
27.23,1.90,-1.30,1.91,-1.28,1.28,1.30,1.17,3.19,3.19,3.20
27.50,1.96,-1.26,1.96,-1.26,1.26,1.28,1.19,3.23,3.22,3.23
27.77,2.02,-1.23,2.01,-1.24,1.24,1.26,1.21,3.25,3.25,3.25
28.05,2.06,-1.22,2.06,-1.22,1.22,1.24,1.23,3.28,3.28,3.29
28.33,2.12,-1.19,2.11,-1.20,1.20,1.22,1.25,3.31,3.31,3.30
28.62,2.16,-1.17,2.16,-1.18,1.18,1.20,1.27,3.34,3.34,3.33
28.90,2.20,-1.17,2.21,-1.16,1.16,1.18,1.28,3.37,3.37,3.37
29.19,2.25,-1.13,2.26,-1.14,1.14,1.16,1.30,3.40,3.40,3.39
29.48,2.30,-1.14,2.30,-1.13,1.13,1.14,1.31,3.42,3.43,3.44
29.78,2.34,-1.11,2.34,-1.11,1.11,1.12,1.32,3.46,3.45,3.46
30.08,2.38,-1.10,2.38,-1.10,1.10,1.10,1.33,3.48,3.48,3.48
30.38,2.42,-1.09,2.42,-1.08,1.08,1.08,1.33,3.51,3.51,3.51
30.68,2.46,-1.07,2.46,-1.07,1.07,1.06,1.34,3.54,3.53,3.54
30.99,2.50,-1.05,2.50,-1.07,1.07,1.05,1.34,3.57,3.56,3.56
31.30,2.53,-1.05,2.53,-1.06,1.06,1.03,1.34,3.59,3.59,3.58
31.61,2.56,-1.05,2.56,-1.05,1.05,1.01,1.34,3.62,3.61,3.61
31.93,2.58,-1.04,2.59,-1.05,1.05,0.99,1.34,3.63,3.63,3.63
32.24,2.62,-1.03,2.62,-1.04,1.04,0.97,1.33,3.65,3.66,3.65
32.57,2.64,-1.03,2.64,-1.03,1.03,0.95,1.33,3.68,3.68,3.67
32.89,2.66,-1.04,2.67,-1.03,1.03,0.94,1.32,3.69,3.70,3.70
33.22,2.68,-1.03,2.69,-1.03,1.03,0.92,1.31,3.71,3.71,3.72
33.55,2.70,-1.03,2.71,-1.02,1.02,0.90,1.30,3.73,3.73,3.74
33.89,2.72,-1.02,2.73,-1.02,1.02,0.89,1.28,3.74,3.75,3.74
34.23,2.74,-1.02,2.75,-1.01,1.01,0.87,1.27,3.76,3.76,3.77
34.57,2.76,-1.01,2.77,-1.00,1.00,0.85,1.25,3.77,3.77,3.77
34.92,2.79,-0.99,2.78,-1.00,1.00,0.84,1.24,3.79,3.78,3.78
35.27,2.80,-0.99,2.80,-0.99,0.99,0.82,1.22,3.79,3.79,3.80
35.62,2.81,-0.98,2.82,-0.98,0.98,0.80,1.20,3.80,3.80,3.79
35.97,2.83,-0.96,2.83,-0.97,0.97,0.79,1.18,3.81,3.80,3.80
36.33,2.84,-0.97,2.84,-0.96,0.96,0.77,1.16,3.81,3.81,3.82
36.70,2.85,-0.96,2.86,-0.95,0.95,0.76,1.14,3.81,3.81,3.81
37.06,2.86,-0.94,2.87,-0.94,0.94,0.74,1.12,3.81,3.81,3.81
37.43,2.87,-0.94,2.88,-0.93,0.93,0.73,1.10,3.81,3.81,3.81
37.81,2.88,-0.92,2.88,-0.92,0.92,0.71,1.08,3.81,3.81,3.81
38.19,2.88,-0.92,2.89,-0.91,0.91,0.70,1.06,3.80,3.80,3.80
38.57,2.89,-0.91,2.90,-0.90,0.90,0.69,1.04,3.80,3.80,3.81
38.95,2.90,-0.90,2.90,-0.89,0.89,0.67,1.02,3.80,3.79,3.80
39.34,2.90,-0.88,2.91,-0.88,0.88,0.66,1.00,3.79,3.79,3.78
39.74,2.91,-0.86,2.91,-0.87,0.87,0.64,0.98,3.79,3.78,3.78
40.14,2.91,-0.86,2.91,-0.86,0.86,0.63,0.96,3.78,3.78,3.77
40.54,2.91,-0.85,2.92,-0.85,0.85,0.62,0.94,3.77,3.77,3.77
40.94,2.91,-0.84,2.92,-0.84,0.84,0.61,0.92,3.76,3.76,3.76
41.35,2.91,-0.84,2.92,-0.83,0.83,0.59,0.90,3.75,3.75,3.75
41.76,2.92,-0.82,2.92,-0.82,0.82,0.58,0.88,3.74,3.74,3.74
42.18,2.92,-0.81,2.92,-0.81,0.81,0.57,0.86,3.73,3.73,3.74
42.60,2.92,-0.80,2.92,-0.80,0.80,0.56,0.85,3.72,3.72,3.72
43.03,2.92,-0.80,2.92,-0.79,0.79,0.54,0.83,3.71,3.71,3.72
43.46,2.92,-0.78,2.92,-0.78,0.78,0.53,0.81,3.70,3.70,3.70
43.90,2.92,-0.76,2.92,-0.77,0.77,0.52,0.80,3.69,3.68,3.68
44.33,2.91,-0.75,2.91,-0.76,0.76,0.51,0.79,3.67,3.67,3.67
44.78,2.90,-0.75,2.91,-0.75,0.75,0.50,0.77,3.65,3.66,3.66
45.23,2.90,-0.73,2.91,-0.74,0.74,0.49,0.76,3.64,3.65,3.64
45.68,2.90,-0.72,2.91,-0.73,0.73,0.48,0.75,3.63,3.63,3.63
46.13,2.90,-0.71,2.91,-0.71,0.71,0.47,0.73,3.62,3.62,3.62
46.60,2.90,-0.71,2.91,-0.70,0.70,0.46,0.72,3.61,3.61,3.61
47.06,2.90,-0.70,2.90,-0.69,0.69,0.45,0.71,3.60,3.60,3.60
47.53,2.90,-0.69,2.90,-0.68,0.68,0.44,0.70,3.59,3.59,3.59
48.01,2.90,-0.69,2.90,-0.68,0.68,0.43,0.69,3.58,3.58,3.59
48.49,2.90,-0.67,2.90,-0.67,0.67,0.42,0.68,3.57,3.57,3.58
48.97,2.90,-0.66,2.90,-0.66,0.66,0.41,0.68,3.56,3.56,3.56
49.46,2.90,-0.64,2.90,-0.65,0.65,0.40,0.67,3.56,3.55,3.54
49.96,2.90,-0.62,2.91,-0.64,0.64,0.39,0.66,3.55,3.55,3.53
50.46,2.90,-0.63,2.91,-0.63,0.63,0.38,0.65,3.54,3.54,3.53
50.96,2.90,-0.63,2.91,-0.63,0.63,0.37,0.65,3.53,3.53,3.54
51.47,2.90,-0.62,2.91,-0.62,0.62,0.36,0.64,3.52,3.53,3.52
51.99,2.90,-0.61,2.91,-0.61,0.61,0.36,0.63,3.51,3.52,3.52
52.51,2.91,-0.61,2.92,-0.60,0.60,0.35,0.63,3.51,3.51,3.52
53.03,2.91,-0.60,2.92,-0.59,0.59,0.34,0.62,3.50,3.50,3.51
53.56,2.92,-0.58,2.92,-0.57,0.57,0.33,0.62,3.50,3.50,3.51
54.10,2.92,-0.57,2.92,-0.57,0.57,0.32,0.61,3.49,3.49,3.50
54.64,2.92,-0.55,2.92,-0.55,0.55,0.32,0.61,3.48,3.48,3.48
55.18,2.92,-0.54,2.92,-0.55,0.55,0.31,0.60,3.47,3.47,3.47
55.74,2.92,-0.52,2.92,-0.53,0.53,0.30,0.60,3.46,3.45,3.45
56.29,2.92,-0.51,2.92,-0.52,0.52,0.29,0.59,3.45,3.44,3.44
56.86,2.91,-0.50,2.91,-0.51,0.51,0.28,0.58,3.43,3.42,3.42
57.42,2.90,-0.49,2.90,-0.50,0.50,0.28,0.58,3.40,3.40,3.39
58.00,2.89,-0.49,2.89,-0.49,0.49,0.27,0.57,3.38,3.38,3.38
58.58,2.87,-0.48,2.88,-0.48,0.48,0.26,0.57,3.35,3.35,3.36
59.16,2.86,-0.48,2.86,-0.47,0.47,0.26,0.56,3.33,3.33,3.34
59.76,2.84,-0.47,2.85,-0.46,0.46,0.25,0.55,3.30,3.30,3.32
60.35,2.83,-0.45,2.83,-0.45,0.45,0.24,0.54,3.28,3.27,3.28
60.96,2.81,-0.45,2.81,-0.44,0.44,0.24,0.54,3.25,3.25,3.27
61.57,2.79,-0.42,2.79,-0.43,0.43,0.23,0.53,3.22,3.22,3.22
62.18,2.76,-0.41,2.77,-0.42,0.42,0.22,0.52,3.19,3.19,3.18
62.80,2.75,-0.41,2.75,-0.41,0.41,0.22,0.51,3.17,3.16,3.16
63.43,2.72,-0.40,2.73,-0.41,0.41,0.21,0.50,3.13,3.14,3.12
64.07,2.70,-0.39,2.71,-0.40,0.40,0.20,0.49,3.11,3.11,3.10
64.71,2.68,-0.39,2.69,-0.40,0.40,0.20,0.48,3.08,3.09,3.08
65.35,2.66,-0.39,2.67,-0.39,0.39,0.19,0.46,3.06,3.06,3.05
66.01,2.64,-0.40,2.66,-0.39,0.39,0.18,0.45,3.03,3.04,3.04
66.67,2.63,-0.39,2.64,-0.39,0.39,0.18,0.44,3.02,3.03,3.03
67.33,2.62,-0.39,2.62,-0.38,0.38,0.17,0.43,3.01,3.01,3.01
68.01,2.61,-0.38,2.61,-0.38,0.38,0.17,0.41,3.00,2.99,2.99
68.69,2.60,-0.37,2.60,-0.38,0.38,0.16,0.40,2.99,2.98,2.98
69.37,2.58,-0.38,2.59,-0.38,0.38,0.15,0.38,2.96,2.97,2.97
70.07,2.57,-0.37,2.57,-0.38,0.38,0.15,0.37,2.95,2.95,2.95
70.77,2.55,-0.39,2.56,-0.37,0.37,0.14,0.35,2.93,2.94,2.95
71.48,2.54,-0.38,2.55,-0.37,0.37,0.14,0.34,2.92,2.92,2.93
72.19,2.53,-0.37,2.54,-0.37,0.37,0.13,0.32,2.90,2.90,2.91
72.91,2.52,-0.37,2.52,-0.36,0.36,0.13,0.31,2.89,2.89,2.89
73.64,2.51,-0.35,2.51,-0.36,0.36,0.12,0.29,2.87,2.87,2.87
74.38,2.49,-0.36,2.49,-0.36,0.36,0.11,0.27,2.85,2.85,2.85
75.12,2.47,-0.35,2.47,-0.36,0.36,0.11,0.26,2.83,2.83,2.83
75.87,2.44,-0.37,2.45,-0.36,0.36,0.10,0.24,2.80,2.81,2.81
76.63,2.43,-0.36,2.43,-0.36,0.36,0.10,0.22,2.79,2.79,2.79
77.40,2.41,-0.35,2.40,-0.36,0.36,0.09,0.21,2.78,2.77,2.76
78.17,2.38,-0.35,2.37,-0.37,0.37,0.09,0.19,2.76,2.75,2.73
78.95,2.35,-0.38,2.35,-0.38,0.38,0.08,0.17,2.74,2.73,2.73
79.74,2.32,-0.39,2.32,-0.40,0.40,0.08,0.16,2.72,2.71,2.71
80.54,2.28,-0.40,2.28,-0.41,0.41,0.07,0.14,2.70,2.70,2.69
81.35,2.25,-0.42,2.25,-0.43,0.43,0.06,0.12,2.68,2.68,2.67
82.16,2.21,-0.44,2.22,-0.45,0.45,0.06,0.11,2.66,2.67,2.66
82.98,2.17,-0.48,2.19,-0.47,0.47,0.05,0.09,2.64,2.66,2.65
83.81,2.14,-0.49,2.16,-0.49,0.49,0.05,0.07,2.63,2.64,2.64
84.65,2.11,-0.50,2.12,-0.51,0.51,0.04,0.05,2.62,2.63,2.62
85.50,2.09,-0.53,2.09,-0.53,0.53,0.04,0.04,2.62,2.62,2.62
86.35,2.06,-0.55,2.06,-0.55,0.55,0.03,0.02,2.61,2.61,2.61
87.22,2.04,-0.55,2.03,-0.56,0.56,0.02,0.00,2.61,2.60,2.59
88.09,2.02,-0.56,2.01,-0.57,0.57,0.02,-0.01,2.60,2.58,2.58
88.97,1.99,-0.58,1.99,-0.58,0.58,0.01,-0.03,2.57,2.56,2.57
89.86,1.96,-0.58,1.97,-0.57,0.57,0.01,-0.05,2.54,2.54,2.55
90.76,1.94,-0.57,1.96,-0.56,0.56,0.00,-0.07,2.50,2.52,2.52
91.66,1.92,-0.57,1.95,-0.54,0.54,-0.00,-0.08,2.46,2.49,2.49
92.58,1.91,-0.54,1.94,-0.51,0.51,-0.01,-0.10,2.43,2.45,2.45
93.51,1.90,-0.52,1.93,-0.48,0.48,-0.02,-0.12,2.38,2.41,2.43
94.44,1.90,-0.48,1.93,-0.44,0.44,-0.02,-0.13,2.34,2.37,2.38
95.39,1.91,-0.42,1.93,-0.39,0.39,-0.03,-0.15,2.31,2.32,2.34
96.34,1.93,-0.34,1.93,-0.34,0.34,-0.04,-0.17,2.28,2.27,2.28
97.30,1.94,-0.27,1.93,-0.29,0.29,-0.04,-0.19,2.23,2.21,2.21
98.28,1.95,-0.20,1.93,-0.23,0.23,-0.05,-0.20,2.18,2.15,2.16
99.26,1.95,-0.14,1.92,-0.17,0.17,-0.06,-0.22,2.12,2.09,2.09
100.25,1.93,-0.09,1.92,-0.11,0.11,-0.06,-0.24,2.04,2.02,2.02
101.25,1.91,-0.04,1.91,-0.05,0.05,-0.07,-0.25,1.97,1.96,1.96
102.27,1.90,0.02,1.89,0.00,-0.00,-0.08,-0.27,1.90,1.89,1.89
103.29,1.88,0.07,1.87,0.05,-0.05,-0.08,-0.29,1.83,1.82,1.81
104.32,1.86,0.11,1.85,0.10,-0.10,-0.09,-0.31,1.77,1.75,1.75
105.37,1.83,0.16,1.82,0.14,-0.14,-0.10,-0.32,1.69,1.68,1.68
106.42,1.79,0.19,1.79,0.18,-0.18,-0.11,-0.34,1.62,1.61,1.61
107.48,1.76,0.23,1.76,0.22,-0.22,-0.12,-0.35,1.55,1.54,1.54
108.56,1.72,0.25,1.73,0.26,-0.26,-0.12,-0.37,1.47,1.47,1.47
109.64,1.68,0.28,1.71,0.30,-0.30,-0.13,-0.39,1.38,1.41,1.40
110.74,1.65,0.31,1.68,0.34,-0.34,-0.14,-0.40,1.31,1.34,1.35
111.85,1.62,0.34,1.66,0.38,-0.38,-0.15,-0.42,1.24,1.28,1.29
112.97,1.61,0.40,1.65,0.42,-0.42,-0.16,-0.43,1.19,1.22,1.21
114.10,1.60,0.44,1.63,0.47,-0.47,-0.17,-0.44,1.14,1.16,1.17
115.24,1.60,0.50,1.61,0.50,-0.50,-0.18,-0.46,1.10,1.11,1.10
116.39,1.60,0.56,1.60,0.55,-0.55,-0.19,-0.47,1.06,1.05,1.04
117.55,1.60,0.61,1.59,0.58,-0.58,-0.20,-0.48,1.02,1.00,1.00
118.73,1.60,0.66,1.58,0.62,-0.62,-0.21,-0.50,0.98,0.96,0.94
119.92,1.58,0.68,1.56,0.65,-0.65,-0.22,-0.51,0.93,0.91,0.91
121.12,1.55,0.69,1.55,0.68,-0.68,-0.23,-0.52,0.87,0.87,0.87
122.33,1.53,0.71,1.53,0.70,-0.70,-0.25,-0.53,0.83,0.82,0.82
123.55,1.51,0.73,1.50,0.72,-0.72,-0.26,-0.54,0.79,0.78,0.79
124.79,1.48,0.74,1.48,0.73,-0.73,-0.27,-0.54,0.75,0.75,0.75
126.03,1.45,0.74,1.44,0.74,-0.74,-0.28,-0.55,0.72,0.71,0.72
127.29,1.42,0.75,1.41,0.74,-0.74,-0.30,-0.56,0.68,0.67,0.68
128.57,1.39,0.77,1.37,0.74,-0.74,-0.31,-0.57,0.65,0.63,0.63
129.85,1.33,0.74,1.34,0.74,-0.74,-0.33,-0.57,0.59,0.59,0.60
131.15,1.27,0.72,1.30,0.74,-0.74,-0.34,-0.58,0.53,0.56,0.56
132.46,1.23,0.72,1.26,0.74,-0.74,-0.36,-0.58,0.49,0.52,0.51
133.79,1.19,0.71,1.22,0.74,-0.74,-0.38,-0.59,0.45,0.48,0.48
135.12,1.15,0.72,1.18,0.74,-0.74,-0.39,-0.59,0.41,0.44,0.44
136.48,1.13,0.73,1.14,0.74,-0.74,-0.41,-0.59,0.39,0.40,0.40
137.84,1.10,0.75,1.10,0.74,-0.74,-0.43,-0.60,0.36,0.36,0.36
139.22,1.08,0.78,1.06,0.75,-0.75,-0.45,-0.60,0.34,0.31,0.31
140.61,1.04,0.78,1.02,0.75,-0.75,-0.47,-0.60,0.29,0.27,0.26
142.02,0.98,0.75,0.99,0.76,-0.76,-0.49,-0.61,0.23,0.23,0.23
143.44,0.94,0.75,0.95,0.76,-0.76,-0.51,-0.61,0.18,0.19,0.19
144.87,0.89,0.75,0.92,0.77,-0.77,-0.54,-0.61,0.12,0.14,0.14
146.32,0.86,0.77,0.88,0.78,-0.78,-0.56,-0.61,0.08,0.10,0.09
147.78,0.83,0.78,0.84,0.79,-0.79,-0.58,-0.62,0.05,0.05,0.06
149.26,0.80,0.79,0.80,0.79,-0.79,-0.61,-0.62,0.01,0.01,0.01
150.75,0.77,0.82,0.75,0.79,-0.79,-0.64,-0.62,-0.02,-0.04,-0.04
152.26,0.73,0.82,0.71,0.80,-0.80,-0.66,-0.63,-0.06,-0.09,-0.09
153.78,0.68,0.82,0.67,0.80,-0.80,-0.69,-0.63,-0.12,-0.14,-0.13
155.32,0.64,0.83,0.62,0.81,-0.81,-0.72,-0.63,-0.17,-0.19,-0.18
156.88,0.58,0.81,0.58,0.82,-0.82,-0.75,-0.64,-0.24,-0.24,-0.23
158.44,0.53,0.82,0.55,0.83,-0.83,-0.78,-0.64,-0.30,-0.29,-0.29
160.03,0.47,0.81,0.51,0.85,-0.85,-0.81,-0.65,-0.37,-0.34,-0.34
161.63,0.45,0.85,0.47,0.86,-0.86,-0.84,-0.65,-0.41,-0.39,-0.39
163.24,0.42,0.87,0.44,0.88,-0.88,-0.87,-0.66,-0.45,-0.44,-0.44
164.88,0.39,0.88,0.41,0.90,-0.90,-0.91,-0.66,-0.50,-0.49,-0.49
166.53,0.37,0.91,0.38,0.92,-0.92,-0.94,-0.67,-0.54,-0.53,-0.53
168.19,0.35,0.93,0.36,0.94,-0.94,-0.97,-0.68,-0.58,-0.58,-0.58
169.87,0.33,0.96,0.34,0.96,-0.96,-1.00,-0.68,-0.63,-0.63,-0.62
171.57,0.31,0.98,0.32,0.99,-0.99,-1.04,-0.69,-0.67,-0.67,-0.67
173.29,0.30,1.01,0.30,1.01,-1.01,-1.07,-0.70,-0.70,-0.71,-0.71
175.02,0.28,1.03,0.28,1.03,-1.03,-1.10,-0.71,-0.74,-0.75,-0.75
176.77,0.26,1.05,0.26,1.04,-1.04,-1.13,-0.72,-0.78,-0.79,-0.79
178.54,0.25,1.08,0.24,1.06,-1.06,-1.16,-0.73,-0.80,-0.82,-0.83
180.32,0.24,1.10,0.21,1.06,-1.06,-1.18,-0.74,-0.82,-0.85,-0.86
182.13,0.21,1.10,0.19,1.07,-1.07,-1.21,-0.76,-0.85,-0.88,-0.89
183.95,0.16,1.08,0.16,1.07,-1.07,-1.23,-0.77,-0.90,-0.91,-0.91
185.79,0.12,1.06,0.13,1.07,-1.07,-1.25,-0.78,-0.94,-0.94,-0.94
187.65,0.10,1.07,0.10,1.06,-1.06,-1.26,-0.79,-0.96,-0.96,-0.96
189.52,0.07,1.05,0.08,1.06,-1.06,-1.28,-0.81,-0.98,-0.98,-0.98
191.42,0.04,1.05,0.05,1.05,-1.05,-1.29,-0.82,-1.01,-1.00,-1.00
193.33,0.01,1.03,0.03,1.05,-1.05,-1.29,-0.84,-1.04,-1.02,-1.02
195.27,-0.01,1.02,0.01,1.05,-1.05,-1.29,-0.85,-1.06,-1.04,-1.03
197.22,-0.03,1.02,0.00,1.06,-1.06,-1.29,-0.87,-1.08,-1.06,-1.05
199.19,-0.04,1.05,-0.01,1.06,-1.06,-1.29,-0.88,-1.10,-1.07,-1.08
201.18,-0.04,1.06,-0.01,1.07,-1.07,-1.28,-0.90,-1.11,-1.09,-1.09
203.19,-0.04,1.07,-0.02,1.09,-1.09,-1.27,-0.92,-1.12,-1.10,-1.10
205.23,-0.03,1.09,-0.01,1.10,-1.10,-1.26,-0.93,-1.13,-1.12,-1.12
207.28,-0.02,1.11,-0.01,1.12,-1.12,-1.24,-0.95,-1.14,-1.13,-1.13
209.35,0.00,1.15,-0.02,1.13,-1.13,-1.22,-0.97,-1.13,-1.15,-1.15
211.44,0.00,1.18,-0.02,1.15,-1.15,-1.20,-0.98,-1.14,-1.17,-1.17
213.56,0.00,1.18,-0.02,1.16,-1.16,-1.17,-1.00,-1.15,-1.18,-1.18
215.69,-0.01,1.18,-0.03,1.16,-1.16,-1.15,-1.01,-1.17,-1.19,-1.19
217.85,-0.03,1.19,-0.04,1.17,-1.17,-1.12,-1.03,-1.19,-1.21,-1.21
220.03,-0.04,1.19,-0.06,1.17,-1.17,-1.09,-1.04,-1.20,-1.22,-1.23
222.23,-0.07,1.19,-0.08,1.16,-1.16,-1.06,-1.05,-1.23,-1.24,-1.25
224.45,-0.10,1.16,-0.11,1.15,-1.15,-1.03,-1.07,-1.25,-1.26,-1.26
226.70,-0.14,1.13,-0.14,1.14,-1.14,-1.00,-1.08,-1.27,-1.27,-1.27
228.96,-0.18,1.11,-0.17,1.12,-1.12,-0.97,-1.09,-1.30,-1.29,-1.28
231.25,-0.20,1.10,-0.20,1.11,-1.11,-0.94,-1.09,-1.31,-1.31,-1.29
233.57,-0.23,1.09,-0.23,1.10,-1.10,-0.91,-1.10,-1.32,-1.33,-1.32
235.90,-0.28,1.06,-0.25,1.09,-1.09,-0.87,-1.11,-1.36,-1.34,-1.34
238.26,-0.30,1.06,-0.28,1.08,-1.08,-0.84,-1.11,-1.38,-1.36,-1.36
240.64,-0.32,1.07,-0.29,1.08,-1.08,-0.82,-1.11,-1.39,-1.37,-1.38
243.05,-0.34,1.06,-0.31,1.08,-1.08,-0.79,-1.11,-1.41,-1.39,-1.39
245.48,-0.36,1.05,-0.32,1.08,-1.08,-0.76,-1.11,-1.43,-1.40,-1.40
247.93,-0.37,1.05,-0.33,1.08,-1.08,-0.73,-1.10,-1.44,-1.41,-1.41
250.41,-0.36,1.08,-0.34,1.08,-1.08,-0.70,-1.10,-1.43,-1.41,-1.43
252.92,-0.34,1.08,-0.34,1.08,-1.08,-0.68,-1.09,-1.41,-1.42,-1.42
255.45,-0.32,1.10,-0.35,1.07,-1.07,-0.65,-1.08,-1.38,-1.42,-1.42
258.00,-0.33,1.09,-0.36,1.06,-1.06,-0.63,-1.07,-1.38,-1.41,-1.42
260.58,-0.34,1.08,-0.37,1.04,-1.04,-0.61,-1.05,-1.38,-1.41,-1.42
263.19,-0.35,1.06,-0.38,1.02,-1.02,-0.59,-1.03,-1.37,-1.40,-1.40
265.82,-0.38,1.03,-0.39,1.00,-1.00,-0.56,-1.02,-1.37,-1.39,-1.40
268.48,-0.40,0.98,-0.42,0.97,-0.97,-0.54,-1.00,-1.36,-1.38,-1.38
271.16,-0.43,0.94,-0.44,0.93,-0.93,-0.52,-0.97,-1.36,-1.37,-1.36
273.87,-0.47,0.89,-0.46,0.89,-0.89,-0.51,-0.95,-1.36,-1.36,-1.35
276.61,-0.50,0.83,-0.49,0.85,-0.85,-0.49,-0.93,-1.35,-1.34,-1.33
279.38,-0.53,0.80,-0.52,0.81,-0.81,-0.47,-0.90,-1.33,-1.33,-1.32
282.17,-0.57,0.75,-0.55,0.76,-0.76,-0.46,-0.87,-1.33,-1.31,-1.31
284.99,-0.60,0.70,-0.57,0.72,-0.72,-0.44,-0.84,-1.32,-1.30,-1.30
287.84,-0.63,0.66,-0.60,0.69,-0.69,-0.42,-0.81,-1.31,-1.28,-1.28
290.72,-0.65,0.61,-0.62,0.65,-0.65,-0.41,-0.78,-1.29,-1.26,-1.26
293.63,-0.66,0.60,-0.63,0.61,-0.61,-0.40,-0.75,-1.27,-1.25,-1.25
296.57,-0.67,0.56,-0.65,0.58,-0.58,-0.38,-0.72,-1.24,-1.23,-1.23
299.53,-0.67,0.55,-0.66,0.55,-0.55,-0.37,-0.69,-1.21,-1.21,-1.21
302.53,-0.67,0.54,-0.68,0.51,-0.51,-0.36,-0.65,-1.18,-1.19,-1.21
305.55,-0.68,0.50,-0.69,0.48,-0.48,-0.35,-0.62,-1.15,-1.17,-1.17
308.61,-0.69,0.47,-0.71,0.44,-0.44,-0.34,-0.58,-1.12,-1.15,-1.16
311.69,-0.71,0.42,-0.73,0.40,-0.40,-0.33,-0.55,-1.10,-1.13,-1.13
314.81,-0.73,0.37,-0.75,0.36,-0.36,-0.32,-0.51,-1.08,-1.11,-1.09
317.96,-0.76,0.32,-0.78,0.31,-0.31,-0.31,-0.48,-1.07,-1.09,-1.08
321.14,-0.79,0.28,-0.80,0.26,-0.26,-0.30,-0.44,-1.05,-1.06,-1.06
324.35,-0.83,0.22,-0.83,0.21,-0.21,-0.29,-0.41,-1.04,-1.04,-1.04
327.59,-0.87,0.15,-0.86,0.16,-0.16,-0.28,-0.37,-1.03,-1.02,-1.02
330.87,-0.90,0.11,-0.89,0.11,-0.11,-0.28,-0.34,-1.01,-1.00,-1.00
334.18,-0.93,0.05,-0.91,0.06,-0.06,-0.27,-0.30,-0.99,-0.97,-0.97
337.52,-0.96,0.00,-0.94,0.01,-0.01,-0.26,-0.27,-0.97,-0.95,-0.96
340.90,-0.98,-0.04,-0.96,-0.03,0.03,-0.25,-0.23,-0.95,-0.93,-0.93
344.30,-1.00,-0.09,-0.97,-0.07,0.07,-0.25,-0.19,-0.93,-0.91,-0.90
347.75,-1.01,-0.12,-0.99,-0.10,0.10,-0.24,-0.16,-0.90,-0.88,-0.89
351.23,-1.02,-0.16,-1.00,-0.14,0.14,-0.24,-0.12,-0.88,-0.86,-0.86
354.74,-1.01,-0.17,-1.00,-0.17,0.17,-0.23,-0.09,-0.84,-0.84,-0.83
358.28,-1.00,-0.18,-1.00,-0.19,0.19,-0.23,-0.05,-0.80,-0.81,-0.81
361.87,-1.00,-0.21,-1.00,-0.22,0.22,-0.22,-0.02,-0.78,-0.79,-0.79
365.49,-0.99,-0.23,-1.00,-0.24,0.24,-0.22,0.02,-0.75,-0.76,-0.76
369.14,-0.99,-0.23,-1.00,-0.26,0.26,-0.21,0.05,-0.73,-0.74,-0.75
372.83,-0.99,-0.26,-1.00,-0.28,0.28,-0.21,0.09,-0.71,-0.72,-0.72
376.56,-0.99,-0.28,-0.99,-0.29,0.29,-0.20,0.12,-0.69,-0.70,-0.70
380.33,-0.99,-0.32,-0.98,-0.31,0.31,-0.20,0.16,-0.68,-0.68,-0.67
384.13,-0.99,-0.33,-0.98,-0.32,0.32,-0.20,0.19,-0.66,-0.66,-0.66
387.97,-0.99,-0.35,-0.98,-0.33,0.33,-0.19,0.23,-0.65,-0.64,-0.64
391.85,-0.99,-0.35,-0.97,-0.34,0.34,-0.19,0.26,-0.64,-0.63,-0.63
395.77,-0.99,-0.38,-0.97,-0.36,0.36,-0.19,0.29,-0.63,-0.61,-0.60
399.73,-0.99,-0.39,-0.97,-0.37,0.37,-0.19,0.33,-0.62,-0.60,-0.59
403.72,-0.98,-0.38,-0.97,-0.38,0.38,-0.18,0.36,-0.60,-0.60,-0.60
407.76,-0.97,-0.38,-0.98,-0.39,0.39,-0.18,0.39,-0.58,-0.59,-0.59
411.84,-0.97,-0.39,-0.98,-0.40,0.40,-0.18,0.43,-0.57,-0.58,-0.58
415.96,-0.98,-0.39,-0.99,-0.41,0.41,-0.18,0.46,-0.56,-0.58,-0.58
420.12,-1.00,-0.41,-1.01,-0.42,0.42,-0.18,0.49,-0.57,-0.58,-0.58
424.32,-1.02,-0.43,-1.03,-0.44,0.44,-0.17,0.52,-0.58,-0.59,-0.58
428.56,-1.03,-0.44,-1.05,-0.46,0.46,-0.17,0.55,-0.57,-0.59,-0.58
432.85,-1.06,-0.46,-1.07,-0.48,0.48,-0.17,0.57,-0.57,-0.59,-0.60
437.18,-1.10,-0.50,-1.10,-0.50,0.50,-0.17,0.60,-0.59,-0.59,-0.60
441.55,-1.13,-0.53,-1.13,-0.53,0.53,-0.17,0.63,-0.60,-0.60,-0.60
445.96,-1.16,-0.55,-1.16,-0.56,0.56,-0.17,0.65,-0.60,-0.60,-0.61
450.42,-1.20,-0.59,-1.19,-0.59,0.59,-0.17,0.67,-0.61,-0.61,-0.61
454.93,-1.23,-0.61,-1.22,-0.61,0.61,-0.17,0.69,-0.61,-0.61,-0.61
459.48,-1.27,-0.64,-1.24,-0.63,0.63,-0.17,0.71,-0.63,-0.61,-0.62
464.07,-1.29,-0.67,-1.27,-0.65,0.65,-0.17,0.73,-0.63,-0.61,-0.61
468.71,-1.31,-0.69,-1.28,-0.67,0.67,-0.17,0.74,-0.63,-0.61,-0.61
473.40,-1.33,-0.71,-1.30,-0.69,0.69,-0.17,0.76,-0.64,-0.61,-0.61
478.13,-1.34,-0.73,-1.31,-0.70,0.70,-0.17,0.77,-0.63,-0.61,-0.60
482.91,-1.34,-0.72,-1.32,-0.71,0.71,-0.17,0.78,-0.62,-0.61,-0.62
487.74,-1.33,-0.72,-1.33,-0.72,0.72,-0.17,0.78,-0.60,-0.61,-0.61
492.62,-1.32,-0.72,-1.34,-0.73,0.73,-0.18,0.78,-0.58,-0.61,-0.60
497.55,-1.32,-0.71,-1.34,-0.74,0.74,-0.18,0.79,-0.58,-0.60,-0.61
502.52,-1.32,-0.72,-1.34,-0.74,0.74,-0.18,0.78,-0.57,-0.60,-0.60
507.55,-1.32,-0.72,-1.34,-0.75,0.75,-0.18,0.78,-0.57,-0.59,-0.60
