frequency,raw,error,smoothed,error_smoothed,equalization,parametric_eq,fixed_band_eq,equalized_raw,equalized_smoothed,target
20.00,8.78,7.10,8.78,7.08,-7.08,-7.04,-3.71,1.71,1.70,1.68
20.20,8.79,7.11,8.79,7.10,-7.10,-7.08,-3.81,1.70,1.69,1.68
20.40,8.80,7.12,8.81,7.12,-7.12,-7.12,-3.91,1.68,1.69,1.68
20.61,8.82,7.14,8.83,7.15,-7.15,-7.16,-4.01,1.68,1.68,1.68
20.81,8.84,7.16,8.84,7.17,-7.17,-7.20,-4.12,1.67,1.67,1.68
21.02,8.85,7.17,8.86,7.20,-7.20,-7.24,-4.23,1.65,1.66,1.68
21.23,8.87,7.21,8.87,7.23,-7.23,-7.27,-4.35,1.64,1.64,1.66
21.44,8.88,7.24,8.89,7.26,-7.26,-7.31,-4.46,1.63,1.63,1.65
21.66,8.90,7.27,8.91,7.29,-7.29,-7.34,-4.59,1.62,1.62,1.63
21.87,8.91,7.31,8.92,7.32,-7.32,-7.38,-4.71,1.60,1.60,1.61
22.09,8.94,7.35,8.94,7.35,-7.35,-7.41,-4.84,1.59,1.59,1.60
22.31,8.95,7.39,8.95,7.38,-7.38,-7.45,-4.97,1.57,1.57,1.57
22.54,8.96,7.41,8.97,7.42,-7.42,-7.48,-5.10,1.54,1.55,1.55
22.76,8.98,7.46,8.98,7.46,-7.46,-7.52,-5.24,1.53,1.52,1.53
22.99,8.99,7.49,9.00,7.50,-7.50,-7.55,-5.38,1.50,1.50,1.50
23.22,9.01,7.54,9.01,7.53,-7.53,-7.58,-5.52,1.48,1.48,1.47
23.45,9.03,7.59,9.03,7.57,-7.57,-7.61,-5.67,1.46,1.46,1.44
23.69,9.04,7.61,9.04,7.61,-7.61,-7.64,-5.82,1.44,1.44,1.43
23.92,9.06,7.65,9.06,7.64,-7.64,-7.67,-5.97,1.42,1.42,1.41
24.16,9.07,7.68,9.07,7.68,-7.68,-7.70,-6.13,1.40,1.40,1.40
24.40,9.08,7.71,9.09,7.71,-7.71,-7.73,-6.29,1.37,1.38,1.38
24.65,9.09,7.73,9.10,7.74,-7.74,-7.76,-6.45,1.35,1.36,1.36
24.89,9.11,7.78,9.11,7.77,-7.77,-7.79,-6.62,1.34,1.34,1.34
25.14,9.12,7.80,9.13,7.80,-7.80,-7.81,-6.78,1.32,1.32,1.33
25.39,9.13,7.83,9.14,7.83,-7.83,-7.84,-6.95,1.30,1.31,1.31
25.65,9.15,7.85,9.15,7.86,-7.86,-7.87,-7.12,1.29,1.29,1.30
25.91,9.16,7.89,9.16,7.89,-7.89,-7.89,-7.29,1.28,1.28,1.27
26.16,9.17,7.92,9.17,7.91,-7.91,-7.92,-7.46,1.26,1.26,1.26
26.43,9.18,7.93,9.19,7.94,-7.94,-7.94,-7.64,1.24,1.24,1.25
26.69,9.19,7.97,9.20,7.97,-7.97,-7.96,-7.81,1.23,1.23,1.22
26.96,9.20,7.99,9.21,7.99,-7.99,-7.99,-7.98,1.21,1.21,1.21
27.23,9.22,8.02,9.22,8.02,-8.02,-8.01,-8.14,1.20,1.20,1.20
27.50,9.22,8.03,9.23,8.04,-8.04,-8.03,-8.31,1.18,1.18,1.19
27.77,9.23,8.07,9.24,8.07,-8.07,-8.05,-8.47,1.17,1.17,1.17
28.05,9.24,8.08,9.24,8.09,-8.09,-8.07,-8.62,1.15,1.16,1.16
28.33,9.25,8.11,9.25,8.11,-8.11,-8.09,-8.77,1.14,1.14,1.14
28.62,9.26,8.13,9.26,8.13,-8.13,-8.11,-8.91,1.13,1.13,1.13
28.90,9.26,8.15,9.27,8.15,-8.15,-8.12,-9.05,1.11,1.12,1.11
29.19,9.26,8.17,9.27,8.17,-8.17,-8.14,-9.17,1.09,1.10,1.09
29.48,9.27,8.18,9.28,8.19,-8.19,-8.16,-9.29,1.09,1.09,1.09
29.78,9.28,8.20,9.28,8.20,-8.20,-8.17,-9.39,1.08,1.08,1.08
30.08,9.28,8.21,9.28,8.22,-8.22,-8.19,-9.48,1.06,1.06,1.07
30.38,9.28,8.23,9.28,8.24,-8.24,-8.20,-9.56,1.05,1.05,1.05
30.68,9.28,8.24,9.28,8.25,-8.25,-8.22,-9.63,1.03,1.03,1.04
30.99,9.29,8.28,9.28,8.26,-8.26,-8.23,-9.68,1.03,1.02,1.01
31.30,9.27,8.27,9.27,8.28,-8.28,-8.24,-9.71,1.00,1.00,1.00
31.61,9.27,8.28,9.27,8.29,-8.29,-8.26,-9.74,0.99,0.98,0.99
31.93,9.26,8.29,9.26,8.30,-8.30,-8.27,-9.75,0.97,0.96,0.97
32.24,9.24,8.31,9.25,8.31,-8.31,-8.28,-9.74,0.94,0.94,0.94
32.57,9.24,8.32,9.24,8.32,-8.32,-8.29,-9.73,0.93,0.92,0.92
32.89,9.22,8.31,9.23,8.33,-8.33,-8.30,-9.70,0.90,0.90,0.91
33.22,9.22,8.34,9.22,8.34,-8.34,-8.31,-9.66,0.89,0.88,0.88
33.55,9.20,8.33,9.21,8.35,-8.35,-8.31,-9.60,0.86,0.86,0.87
33.89,9.19,8.35,9.20,8.35,-8.35,-8.32,-9.55,0.84,0.84,0.84
34.23,9.18,8.36,9.18,8.36,-8.36,-8.33,-9.48,0.82,0.82,0.82
34.57,9.17,8.37,9.17,8.37,-8.37,-8.34,-9.40,0.80,0.80,0.80
34.92,9.15,8.37,9.16,8.38,-8.38,-8.34,-9.32,0.78,0.78,0.78
35.27,9.14,8.38,9.14,8.38,-8.38,-8.35,-9.24,0.76,0.76,0.76
35.62,9.13,8.39,9.13,8.39,-8.39,-8.35,-9.15,0.74,0.74,0.74
35.97,9.11,8.39,9.12,8.40,-8.40,-8.36,-9.05,0.72,0.72,0.72
36.33,9.10,8.40,9.10,8.40,-8.40,-8.36,-8.96,0.70,0.70,0.70
36.70,9.08,8.40,9.08,8.41,-8.41,-8.37,-8.87,0.68,0.68,0.68
37.06,9.07,8.41,9.07,8.41,-8.41,-8.37,-8.77,0.66,0.66,0.66
37.43,9.05,8.41,9.05,8.42,-8.42,-8.37,-8.68,0.64,0.64,0.64
37.81,9.03,8.41,9.03,8.42,-8.42,-8.37,-8.59,0.62,0.61,0.62
38.19,9.01,8.42,9.01,8.42,-8.42,-8.37,-8.50,0.59,0.59,0.59
38.57,8.99,8.41,9.00,8.42,-8.42,-8.38,-8.41,0.57,0.57,0.58
38.95,8.97,8.42,8.98,8.42,-8.42,-8.38,-8.33,0.55,0.55,0.55
39.34,8.95,8.42,8.96,8.42,-8.42,-8.38,-8.25,0.53,0.53,0.53
39.74,8.93,8.42,8.94,8.42,-8.42,-8.38,-8.17,0.51,0.52,0.51
40.14,8.91,8.41,8.92,8.42,-8.42,-8.38,-8.10,0.49,0.50,0.50
40.54,8.89,8.41,8.89,8.42,-8.42,-8.38,-8.03,0.48,0.48,0.48
40.94,8.87,8.41,8.87,8.41,-8.41,-8.38,-7.97,0.46,0.46,0.46
41.35,8.85,8.42,8.85,8.41,-8.41,-8.38,-7.91,0.44,0.44,0.43
41.76,8.83,8.40,8.83,8.41,-8.41,-8.37,-7.85,0.43,0.42,0.43
42.18,8.81,8.40,8.81,8.40,-8.40,-8.37,-7.81,0.41,0.40,0.41
42.60,8.78,8.39,8.79,8.40,-8.40,-8.37,-7.76,0.38,0.38,0.39
43.03,8.76,8.38,8.76,8.40,-8.40,-8.37,-7.73,0.37,0.37,0.38
43.46,8.73,8.38,8.74,8.39,-8.39,-8.37,-7.69,0.34,0.35,0.35
43.90,8.72,8.39,8.72,8.39,-8.39,-8.36,-7.67,0.33,0.33,0.33
44.33,8.69,8.38,8.70,8.38,-8.38,-8.36,-7.65,0.31,0.31,0.31
44.78,8.66,8.37,8.67,8.38,-8.38,-8.36,-7.63,0.28,0.29,0.29
45.23,8.64,8.38,8.65,8.37,-8.37,-8.36,-7.62,0.27,0.27,0.26
45.68,8.62,8.38,8.62,8.37,-8.37,-8.35,-7.62,0.26,0.25,0.24
46.13,8.60,8.37,8.60,8.36,-8.36,-8.35,-7.62,0.24,0.23,0.23
46.60,8.57,8.35,8.57,8.36,-8.36,-8.35,-7.63,0.22,0.21,0.22
47.06,8.55,8.35,8.54,8.35,-8.35,-8.35,-7.64,0.20,0.19,0.20
47.53,8.52,8.34,8.52,8.35,-8.35,-8.34,-7.65,0.18,0.17,0.18
48.01,8.49,8.32,8.49,8.34,-8.34,-8.34,-7.68,0.15,0.15,0.17
48.49,8.46,8.32,8.46,8.33,-8.33,-8.34,-7.70,0.13,0.13,0.14
48.97,8.43,8.32,8.44,8.33,-8.33,-8.33,-7.73,0.11,0.11,0.11
49.46,8.40,8.32,8.41,8.32,-8.32,-8.33,-7.77,0.08,0.09,0.08
49.96,8.37,8.32,8.38,8.32,-8.32,-8.33,-7.81,0.06,0.06,0.05
50.46,8.35,8.31,8.35,8.31,-8.31,-8.33,-7.85,0.04,0.04,0.04
50.96,8.32,8.30,8.33,8.31,-8.31,-8.32,-7.90,0.02,0.02,0.02
51.47,8.29,8.30,8.30,8.30,-8.30,-8.32,-7.95,-0.01,-0.01,-0.01
51.99,8.27,8.30,8.27,8.30,-8.30,-8.32,-8.00,-0.03,-0.03,-0.03
52.51,8.24,8.29,8.24,8.30,-8.30,-8.32,-8.06,-0.05,-0.05,-0.05
53.03,8.21,8.28,8.21,8.29,-8.29,-8.32,-8.12,-0.08,-0.08,-0.07
53.56,8.19,8.29,8.19,8.29,-8.29,-8.32,-8.17,-0.10,-0.10,-0.10
54.10,8.16,8.28,8.16,8.29,-8.29,-8.32,-8.23,-0.12,-0.13,-0.12
54.64,8.13,8.28,8.13,8.28,-8.28,-8.32,-8.30,-0.15,-0.15,-0.15
55.18,8.10,8.27,8.11,8.28,-8.28,-8.32,-8.36,-0.17,-0.17,-0.17
55.74,8.08,8.28,8.08,8.27,-8.27,-8.32,-8.42,-0.19,-0.19,-0.20
56.29,8.04,8.26,8.05,8.27,-8.27,-8.32,-8.47,-0.23,-0.22,-0.22
56.86,8.02,8.27,8.03,8.27,-8.27,-8.32,-8.53,-0.24,-0.24,-0.25
57.42,8.00,8.27,8.00,8.27,-8.27,-8.32,-8.59,-0.26,-0.27,-0.27
58.00,7.97,8.26,7.97,8.27,-8.27,-8.32,-8.64,-0.29,-0.29,-0.29
58.58,7.94,8.26,7.95,8.27,-8.27,-8.33,-8.68,-0.32,-0.32,-0.32
59.16,7.92,8.26,7.92,8.27,-8.27,-8.33,-8.73,-0.34,-0.35,-0.34
59.76,7.89,8.25,7.90,8.27,-8.27,-8.33,-8.77,-0.37,-0.37,-0.36
60.35,7.87,8.26,7.87,8.27,-8.27,-8.34,-8.80,-0.40,-0.40,-0.39
60.96,7.84,8.25,7.85,8.27,-8.27,-8.34,-8.83,-0.43,-0.42,-0.41
61.57,7.82,8.27,7.82,8.27,-8.27,-8.35,-8.85,-0.45,-0.45,-0.45
62.18,7.80,8.28,7.80,8.28,-8.28,-8.36,-8.87,-0.47,-0.48,-0.48
62.80,7.78,8.29,7.78,8.28,-8.28,-8.36,-8.88,-0.50,-0.50,-0.51
63.43,7.75,8.29,7.75,8.28,-8.28,-8.37,-8.89,-0.53,-0.53,-0.54
64.07,7.72,8.29,7.73,8.29,-8.29,-8.38,-8.89,-0.57,-0.56,-0.57
64.71,7.71,8.30,7.71,8.30,-8.30,-8.39,-8.88,-0.58,-0.58,-0.59
65.35,7.69,8.30,7.69,8.30,-8.30,-8.40,-8.87,-0.61,-0.61,-0.61
66.01,7.67,8.30,7.67,8.31,-8.31,-8.41,-8.85,-0.64,-0.64,-0.63
66.67,7.65,8.31,7.66,8.32,-8.32,-8.42,-8.83,-0.66,-0.66,-0.66
67.33,7.64,8.32,7.64,8.33,-8.33,-8.44,-8.81,-0.68,-0.68,-0.68
68.01,7.62,8.33,7.63,8.34,-8.34,-8.45,-8.78,-0.71,-0.71,-0.71
68.69,7.61,8.34,7.61,8.35,-8.35,-8.47,-8.75,-0.73,-0.74,-0.73
69.37,7.59,8.35,7.60,8.36,-8.36,-8.48,-8.71,-0.77,-0.76,-0.76
70.07,7.59,8.38,7.59,8.38,-8.38,-8.50,-8.68,-0.78,-0.79,-0.79
70.77,7.58,8.39,7.58,8.40,-8.40,-8.52,-8.64,-0.81,-0.82,-0.81
71.48,7.57,8.41,7.57,8.42,-8.42,-8.53,-8.61,-0.85,-0.85,-0.84
72.19,7.56,8.43,7.57,8.44,-8.44,-8.55,-8.57,-0.88,-0.88,-0.87
72.91,7.56,8.47,7.56,8.47,-8.47,-8.58,-8.53,-0.91,-0.91,-0.91
73.64,7.55,8.49,7.56,8.50,-8.50,-8.60,-8.50,-0.95,-0.94,-0.94
74.38,7.55,8.52,7.55,8.53,-8.53,-8.62,-8.46,-0.98,-0.98,-0.97
75.12,7.56,8.58,7.55,8.56,-8.56,-8.64,-8.43,-1.00,-1.01,-1.02
75.87,7.55,8.60,7.55,8.60,-8.60,-8.67,-8.40,-1.05,-1.05,-1.05
76.63,7.55,8.63,7.55,8.64,-8.64,-8.69,-8.38,-1.09,-1.09,-1.08
77.40,7.55,8.67,7.56,8.68,-8.68,-8.72,-8.36,-1.13,-1.13,-1.12
78.17,7.55,8.73,7.56,8.73,-8.73,-8.75,-8.34,-1.17,-1.17,-1.18
78.95,7.56,8.76,7.56,8.77,-8.77,-8.78,-8.32,-1.21,-1.21,-1.20
79.74,7.56,8.81,7.57,8.82,-8.82,-8.81,-8.32,-1.25,-1.25,-1.24
80.54,7.57,8.86,7.58,8.87,-8.87,-8.84,-8.31,-1.29,-1.29,-1.29
81.35,7.58,8.91,7.58,8.92,-8.92,-8.87,-8.31,-1.33,-1.33,-1.33
82.16,7.59,8.97,7.59,8.97,-8.97,-8.91,-8.32,-1.38,-1.38,-1.38
82.98,7.60,9.02,7.60,9.02,-9.02,-8.94,-8.33,-1.42,-1.42,-1.42
83.81,7.61,9.09,7.61,9.08,-9.08,-8.98,-8.34,-1.46,-1.47,-1.48
84.65,7.61,9.13,7.62,9.13,-9.13,-9.02,-8.36,-1.52,-1.52,-1.52
85.50,7.62,9.18,7.62,9.19,-9.19,-9.05,-8.39,-1.57,-1.57,-1.56
86.35,7.63,9.24,7.63,9.25,-9.25,-9.09,-8.42,-1.61,-1.61,-1.61
87.22,7.63,9.29,7.64,9.31,-9.31,-9.13,-8.46,-1.67,-1.66,-1.66
88.09,7.65,9.37,7.65,9.37,-9.37,-9.17,-8.51,-1.71,-1.71,-1.72
88.97,7.66,9.42,7.66,9.42,-9.42,-9.22,-8.56,-1.76,-1.76,-1.76
89.86,7.66,9.47,7.67,9.48,-9.48,-9.26,-8.62,-1.82,-1.81,-1.81
90.76,7.67,9.54,7.68,9.54,-9.54,-9.30,-8.68,-1.87,-1.87,-1.87
91.66,7.68,9.61,7.68,9.60,-9.60,-9.35,-8.75,-1.92,-1.92,-1.92
92.58,7.68,9.66,7.69,9.66,-9.66,-9.40,-8.83,-1.98,-1.97,-1.98
93.51,7.69,9.71,7.69,9.72,-9.72,-9.44,-8.91,-2.03,-2.03,-2.02
94.44,7.70,9.77,7.70,9.78,-9.78,-9.49,-9.00,-2.07,-2.08,-2.07
95.39,7.70,9.83,7.70,9.84,-9.84,-9.54,-9.09,-2.13,-2.14,-2.13
96.34,7.69,9.89,7.69,9.89,-9.89,-9.59,-9.19,-2.20,-2.20,-2.20
97.30,7.68,9.93,7.69,9.94,-9.94,-9.63,-9.30,-2.26,-2.25,-2.25
98.28,7.68,9.99,7.68,9.99,-9.99,-9.68,-9.41,-2.31,-2.31,-2.31
99.26,7.67,10.05,7.67,10.04,-10.04,-9.73,-9.52,-2.37,-2.37,-2.38
100.25,7.65,10.08,7.65,10.09,-10.09,-9.78,-9.64,-2.43,-2.43,-2.43
101.25,7.63,10.12,7.63,10.13,-10.13,-9.83,-9.77,-2.49,-2.49,-2.49
102.27,7.61,10.17,7.61,10.17,-10.17,-9.88,-9.90,-2.55,-2.56,-2.56
103.29,7.58,10.21,7.58,10.20,-10.20,-9.93,-10.03,-2.62,-2.62,-2.63
104.32,7.55,10.23,7.55,10.23,-10.23,-9.98,-10.17,-2.68,-2.68,-2.68
105.37,7.52,10.26,7.51,10.26,-10.26,-10.03,-10.30,-2.74,-2.75,-2.74
106.42,7.47,10.28,7.48,10.29,-10.29,-10.08,-10.44,-2.82,-2.81,-2.81
107.48,7.43,10.31,7.44,10.32,-10.32,-10.12,-10.58,-2.88,-2.88,-2.88
108.56,7.39,10.34,7.39,10.34,-10.34,-10.17,-10.72,-2.94,-2.95,-2.95
109.64,7.34,10.35,7.34,10.36,-10.36,-10.22,-10.86,-3.01,-3.01,-3.01
110.74,7.29,10.36,7.30,10.38,-10.38,-10.26,-11.00,-3.08,-3.08,-3.07
111.85,7.24,10.38,7.24,10.39,-10.39,-10.30,-11.13,-3.15,-3.15,-3.14
112.97,7.18,10.40,7.19,10.41,-10.41,-10.34,-11.26,-3.22,-3.22,-3.22
114.10,7.12,10.40,7.13,10.42,-10.42,-10.38,-11.38,-3.29,-3.28,-3.28
115.24,7.07,10.42,7.08,10.42,-10.42,-10.42,-11.49,-3.35,-3.35,-3.35
116.39,7.01,10.43,7.01,10.43,-10.43,-10.45,-11.59,-3.42,-3.42,-3.42
117.55,6.95,10.44,6.95,10.43,-10.43,-10.48,-11.68,-3.48,-3.48,-3.49
118.73,6.89,10.44,6.89,10.44,-10.44,-10.51,-11.76,-3.54,-3.55,-3.55
119.92,6.82,10.43,6.82,10.43,-10.43,-10.53,-11.82,-3.61,-3.61,-3.61
121.12,6.75,10.42,6.76,10.43,-10.43,-10.56,-11.86,-3.67,-3.67,-3.67
122.33,6.69,10.43,6.69,10.42,-10.42,-10.57,-11.89,-3.73,-3.73,-3.74
123.55,6.61,10.40,6.61,10.41,-10.41,-10.59,-11.90,-3.80,-3.80,-3.79
124.79,6.54,10.39,6.54,10.40,-10.40,-10.60,-11.90,-3.85,-3.85,-3.85
126.03,6.46,10.36,6.46,10.38,-10.38,-10.61,-11.87,-3.91,-3.91,-3.90
127.29,6.39,10.35,6.39,10.36,-10.36,-10.61,-11.83,-3.96,-3.97,-3.96
128.57,6.30,10.33,6.31,10.33,-10.33,-10.61,-11.76,-4.03,-4.03,-4.03
129.85,6.23,10.31,6.22,10.30,-10.30,-10.60,-11.68,-4.07,-4.08,-4.08
131.15,6.14,10.27,6.14,10.27,-10.27,-10.59,-11.59,-4.13,-4.13,-4.13
132.46,6.06,10.25,6.06,10.24,-10.24,-10.57,-11.47,-4.18,-4.18,-4.19
133.79,5.97,10.20,5.98,10.21,-10.21,-10.55,-11.35,-4.24,-4.23,-4.23
135.12,5.88,10.17,5.90,10.17,-10.17,-10.52,-11.21,-4.29,-4.28,-4.29
136.48,5.80,10.12,5.81,10.13,-10.13,-10.49,-11.06,-4.33,-4.32,-4.32
137.84,5.72,10.08,5.73,10.09,-10.09,-10.45,-10.90,-4.37,-4.36,-4.36
139.22,5.64,10.05,5.65,10.05,-10.05,-10.41,-10.74,-4.41,-4.40,-4.41
140.61,5.56,10.01,5.57,10.01,-10.01,-10.37,-10.56,-4.44,-4.44,-4.45
142.02,5.48,9.95,5.49,9.96,-9.96,-10.31,-10.39,-4.48,-4.47,-4.47
143.44,5.40,9.90,5.40,9.91,-9.91,-10.26,-10.21,-4.51,-4.51,-4.50
144.87,5.32,9.86,5.32,9.86,-9.86,-10.20,-10.02,-4.54,-4.54,-4.54
146.32,5.24,9.81,5.24,9.81,-9.81,-10.13,-9.84,-4.57,-4.57,-4.57
147.78,5.16,9.75,5.16,9.76,-9.76,-10.06,-9.65,-4.60,-4.60,-4.59
149.26,5.08,9.70,5.08,9.71,-9.71,-9.98,-9.47,-4.62,-4.63,-4.62
150.75,4.99,9.65,5.00,9.65,-9.65,-9.91,-9.29,-4.66,-4.65,-4.66
152.26,4.91,9.59,4.91,9.60,-9.60,-9.82,-9.11,-4.68,-4.68,-4.68
153.78,4.83,9.54,4.83,9.54,-9.54,-9.74,-8.93,-4.70,-4.71,-4.71
155.32,4.74,9.47,4.74,9.48,-9.48,-9.65,-8.76,-4.74,-4.74,-4.73
156.88,4.65,9.41,4.65,9.42,-9.42,-9.55,-8.58,-4.76,-4.76,-4.76
158.44,4.56,9.35,4.57,9.36,-9.36,-9.46,-8.42,-4.79,-4.79,-4.79
160.03,4.48,9.30,4.48,9.29,-9.29,-9.36,-8.25,-4.81,-4.82,-4.82
161.63,4.38,9.23,4.38,9.23,-9.23,-9.25,-8.10,-4.85,-4.85,-4.85
163.24,4.29,9.17,4.29,9.17,-9.17,-9.15,-7.94,-4.87,-4.87,-4.88
164.88,4.20,9.10,4.20,9.10,-9.10,-9.04,-7.79,-4.90,-4.90,-4.90
166.53,4.10,9.02,4.11,9.04,-9.04,-8.93,-7.65,-4.93,-4.93,-4.92
168.19,4.01,8.97,4.01,8.97,-8.97,-8.82,-7.51,-4.96,-4.96,-4.96
169.87,3.91,8.90,3.92,8.91,-8.91,-8.71,-7.37,-4.99,-4.99,-4.99
171.57,3.81,8.83,3.82,8.84,-8.84,-8.60,-7.24,-5.03,-5.02,-5.02
173.29,3.71,8.75,3.73,8.78,-8.78,-8.48,-7.12,-5.07,-5.06,-5.04
175.02,3.62,8.70,3.63,8.72,-8.72,-8.37,-7.00,-5.10,-5.09,-5.08
176.77,3.53,8.65,3.54,8.66,-8.66,-8.25,-6.88,-5.13,-5.12,-5.12
178.54,3.43,8.59,3.44,8.60,-8.60,-8.13,-6.77,-5.16,-5.16,-5.16
180.32,3.34,8.53,3.34,8.53,-8.53,-8.01,-6.67,-5.19,-5.19,-5.19
182.13,3.24,8.46,3.24,8.47,-8.47,-7.90,-6.57,-5.22,-5.23,-5.22
183.95,3.13,8.39,3.14,8.40,-8.40,-7.78,-6.47,-5.27,-5.26,-5.26
185.79,3.04,8.34,3.04,8.33,-8.33,-7.66,-6.38,-5.29,-5.30,-5.30
187.65,2.94,8.28,2.93,8.26,-8.26,-7.54,-6.30,-5.31,-5.33,-5.34
189.52,2.82,8.19,2.82,8.18,-8.18,-7.42,-6.22,-5.35,-5.36,-5.37
191.42,2.71,8.10,2.70,8.09,-8.09,-7.30,-6.14,-5.38,-5.39,-5.39
193.33,2.59,8.00,2.59,8.01,-8.01,-7.18,-6.06,-5.41,-5.42,-5.41
195.27,2.47,7.91,2.46,7.92,-7.92,-7.07,-5.99,-5.44,-5.45,-5.44
197.22,2.34,7.81,2.34,7.82,-7.82,-6.95,-5.93,-5.47,-5.48,-5.47
199.19,2.21,7.73,2.21,7.72,-7.72,-6.83,-5.86,-5.50,-5.50,-5.52
201.18,2.08,7.61,2.08,7.61,-7.61,-6.72,-5.81,-5.53,-5.53,-5.53
203.19,1.94,7.49,1.95,7.50,-7.50,-6.60,-5.75,-5.56,-5.55,-5.55
205.23,1.81,7.38,1.82,7.39,-7.39,-6.48,-5.70,-5.58,-5.57,-5.57
207.28,1.68,7.26,1.69,7.28,-7.28,-6.37,-5.64,-5.60,-5.59,-5.58
209.35,1.54,7.15,1.55,7.16,-7.16,-6.26,-5.60,-5.62,-5.61,-5.61
211.44,1.41,7.04,1.42,7.05,-7.05,-6.14,-5.55,-5.63,-5.63,-5.63
213.56,1.28,6.93,1.28,6.93,-6.93,-6.03,-5.51,-5.64,-5.65,-5.65
215.69,1.14,6.79,1.14,6.80,-6.80,-5.92,-5.46,-5.66,-5.66,-5.65
217.85,1.00,6.66,1.01,6.68,-6.68,-5.81,-5.42,-5.67,-5.67,-5.66
220.03,0.87,6.56,0.87,6.55,-6.55,-5.70,-5.38,-5.68,-5.68,-5.69
222.23,0.73,6.43,0.73,6.42,-6.42,-5.59,-5.34,-5.69,-5.69,-5.70
224.45,0.59,6.28,0.59,6.29,-6.29,-5.48,-5.30,-5.69,-5.69,-5.69
226.70,0.45,6.15,0.46,6.15,-6.15,-5.38,-5.26,-5.70,-5.70,-5.70
228.96,0.32,6.02,0.32,6.01,-6.01,-5.27,-5.22,-5.69,-5.70,-5.70
231.25,0.17,5.86,0.18,5.87,-5.87,-5.16,-5.17,-5.70,-5.69,-5.69
233.57,0.03,5.72,0.04,5.72,-5.72,-5.06,-5.13,-5.69,-5.69,-5.68
235.90,-0.11,5.57,-0.11,5.57,-5.57,-4.95,-5.09,-5.68,-5.68,-5.68
238.26,-0.25,5.43,-0.25,5.42,-5.42,-4.85,-5.04,-5.67,-5.67,-5.68
240.64,-0.39,5.27,-0.39,5.27,-5.27,-4.75,-4.99,-5.66,-5.66,-5.66
243.05,-0.53,5.11,-0.53,5.11,-5.11,-4.64,-4.94,-5.64,-5.64,-5.64
245.48,-0.68,4.94,-0.67,4.95,-4.95,-4.54,-4.89,-5.63,-5.63,-5.62
247.93,-0.82,4.79,-0.81,4.79,-4.79,-4.44,-4.84,-5.61,-5.61,-5.61
250.41,-0.96,4.64,-0.96,4.63,-4.63,-4.33,-4.78,-5.59,-5.59,-5.60
252.92,-1.10,4.46,-1.10,4.47,-4.47,-4.23,-4.72,-5.57,-5.57,-5.56
255.45,-1.25,4.29,-1.24,4.31,-4.31,-4.13,-4.66,-5.55,-5.55,-5.54
258.00,-1.38,4.14,-1.38,4.14,-4.14,-4.03,-4.59,-5.52,-5.53,-5.52
260.58,-1.52,3.98,-1.52,3.98,-3.98,-3.92,-4.53,-5.50,-5.50,-5.50
263.19,-1.67,3.81,-1.66,3.82,-3.82,-3.82,-4.46,-5.48,-5.48,-5.48
265.82,-1.80,3.66,-1.80,3.65,-3.65,-3.71,-4.38,-5.45,-5.45,-5.46
268.48,-1.94,3.49,-1.94,3.49,-3.49,-3.61,-4.31,-5.43,-5.43,-5.43
271.16,-2.07,3.33,-2.08,3.33,-3.33,-3.50,-4.23,-5.40,-5.41,-5.40
273.87,-2.22,3.16,-2.21,3.17,-3.17,-3.39,-4.16,-5.39,-5.38,-5.38
276.61,-2.35,3.00,-2.34,3.02,-3.02,-3.28,-4.08,-5.36,-5.36,-5.35
279.38,-2.47,2.86,-2.47,2.86,-2.86,-3.17,-3.99,-5.33,-5.33,-5.33
282.17,-2.60,2.71,-2.60,2.71,-2.71,-3.05,-3.91,-5.31,-5.31,-5.31
284.99,-2.73,2.55,-2.72,2.56,-2.56,-2.94,-3.83,-5.29,-5.28,-5.28
287.84,-2.84,2.42,-2.84,2.42,-2.42,-2.82,-3.74,-5.25,-5.25,-5.26
290.72,-2.95,2.27,-2.95,2.27,-2.27,-2.70,-3.66,-5.22,-5.22,-5.22
293.63,-3.06,2.14,-3.06,2.13,-2.13,-2.57,-3.58,-5.19,-5.20,-5.20
296.57,-3.17,2.00,-3.17,2.00,-2.00,-2.44,-3.49,-5.17,-5.17,-5.17
299.53,-3.27,1.87,-3.27,1.87,-1.87,-2.31,-3.41,-5.14,-5.14,-5.14
302.53,-3.37,1.75,-3.36,1.74,-1.74,-2.18,-3.32,-5.11,-5.10,-5.12
305.55,-3.46,1.61,-3.45,1.62,-1.62,-2.04,-3.24,-5.08,-5.07,-5.07
308.61,-3.54,1.50,-3.53,1.51,-1.51,-1.90,-3.15,-5.04,-5.04,-5.04
311.69,-3.61,1.39,-3.61,1.40,-1.40,-1.75,-3.07,-5.01,-5.01,-5.00
314.81,-3.68,1.29,-3.68,1.30,-1.30,-1.60,-2.99,-4.98,-4.98,-4.97
317.96,-3.75,1.19,-3.74,1.21,-1.21,-1.46,-2.91,-4.95,-4.95,-4.94
321.14,-3.80,1.11,-3.79,1.12,-1.12,-1.31,-2.83,-4.92,-4.91,-4.91
324.35,-3.85,1.04,-3.84,1.05,-1.05,-1.17,-2.75,-4.90,-4.88,-4.89
327.59,-3.89,0.96,-3.87,0.98,-0.98,-1.03,-2.67,-4.87,-4.86,-4.85
330.87,-3.92,0.90,-3.90,0.92,-0.92,-0.90,-2.60,-4.84,-4.83,-4.82
334.18,-3.95,0.85,-3.93,0.87,-0.87,-0.78,-2.52,-4.82,-4.80,-4.80
337.52,-3.95,0.83,-3.95,0.83,-0.83,-0.68,-2.45,-4.77,-4.78,-4.78
340.90,-3.97,0.78,-3.97,0.79,-0.79,-0.58,-2.38,-4.75,-4.75,-4.75
344.30,-3.98,0.75,-3.98,0.75,-0.75,-0.51,-2.31,-4.73,-4.73,-4.73
347.75,-3.98,0.72,-3.99,0.72,-0.72,-0.46,-2.24,-4.70,-4.71,-4.70
351.23,-3.96,0.72,-3.99,0.70,-0.70,-0.42,-2.17,-4.65,-4.69,-4.68
354.74,-3.96,0.71,-3.99,0.68,-0.68,-0.41,-2.10,-4.64,-4.67,-4.67
358.28,-3.98,0.67,-3.99,0.66,-0.66,-0.41,-2.04,-4.64,-4.65,-4.65
361.87,-3.98,0.65,-3.98,0.65,-0.65,-0.43,-1.97,-4.63,-4.63,-4.63
365.49,-3.98,0.62,-3.97,0.64,-0.64,-0.46,-1.91,-4.62,-4.61,-4.60
369.14,-3.97,0.62,-3.95,0.64,-0.64,-0.51,-1.85,-4.60,-4.59,-4.59
372.83,-3.96,0.62,-3.94,0.63,-0.63,-0.56,-1.79,-4.59,-4.57,-4.58
376.56,-3.93,0.63,-3.91,0.64,-0.64,-0.62,-1.73,-4.56,-4.55,-4.56
380.33,-3.91,0.62,-3.89,0.64,-0.64,-0.67,-1.67,-4.55,-4.53,-4.53
384.13,-3.86,0.65,-3.86,0.66,-0.66,-0.74,-1.62,-4.51,-4.51,-4.51
387.97,-3.83,0.66,-3.82,0.67,-0.67,-0.80,-1.56,-4.50,-4.49,-4.49
391.85,-3.79,0.68,-3.78,0.69,-0.69,-0.85,-1.51,-4.47,-4.47,-4.47
395.77,-3.74,0.70,-3.74,0.71,-0.71,-0.91,-1.46,-4.45,-4.45,-4.44
399.73,-3.68,0.74,-3.69,0.74,-0.74,-0.96,-1.41,-4.42,-4.43,-4.42
403.72,-3.64,0.77,-3.64,0.77,-0.77,-1.01,-1.36,-4.40,-4.41,-4.41
407.76,-3.59,0.80,-3.58,0.80,-0.80,-1.05,-1.31,-4.39,-4.38,-4.39
411.84,-3.53,0.83,-3.53,0.83,-0.83,-1.09,-1.27,-4.36,-4.36,-4.36
415.96,-3.47,0.87,-3.47,0.87,-0.87,-1.13,-1.22,-4.33,-4.34,-4.34
420.12,-3.41,0.91,-3.41,0.91,-0.91,-1.16,-1.18,-4.31,-4.32,-4.32
424.32,-3.36,0.93,-3.35,0.94,-0.94,-1.19,-1.14,-4.30,-4.30,-4.29
428.56,-3.30,0.97,-3.29,0.98,-0.98,-1.22,-1.10,-4.27,-4.27,-4.27
432.85,-3.24,1.01,-3.23,1.01,-1.01,-1.25,-1.06,-4.25,-4.25,-4.25
437.18,-3.18,1.04,-3.17,1.05,-1.05,-1.27,-1.02,-4.23,-4.22,-4.22
441.55,-3.11,1.08,-3.11,1.09,-1.09,-1.29,-0.99,-4.19,-4.20,-4.19
445.96,-3.06,1.11,-3.06,1.12,-1.12,-1.30,-0.96,-4.17,-4.17,-4.17
450.42,-2.99,1.17,-3.00,1.15,-1.15,-1.32,-0.93,-4.14,-4.15,-4.16
454.93,-2.94,1.18,-2.94,1.18,-1.18,-1.33,-0.90,-4.12,-4.12,-4.12
459.48,-2.88,1.22,-2.88,1.21,-1.21,-1.35,-0.87,-4.09,-4.09,-4.10
464.07,-2.82,1.25,-2.82,1.24,-1.24,-1.36,-0.85,-4.06,-4.07,-4.07
