frequency,raw,error,smoothed,error_smoothed,equalization,parametric_eq,fixed_band_eq,equalized_raw,equalized_smoothed,target
20.00,-4.09,-6.39,-4.09,-6.41,6.41,6.07,2.56,2.32,2.32,2.30
20.20,-4.07,-6.40,-4.06,-6.41,6.41,6.08,2.64,2.34,2.34,2.33
20.40,-4.05,-6.41,-4.03,-6.40,6.40,6.10,2.71,2.35,2.36,2.36
20.61,-4.01,-6.39,-4.01,-6.39,6.39,6.11,2.79,2.38,2.38,2.38
20.81,-3.96,-6.37,-3.98,-6.38,6.38,6.11,2.87,2.42,2.40,2.41
21.02,-3.93,-6.37,-3.95,-6.37,6.37,6.12,2.95,2.44,2.42,2.44
21.23,-3.90,-6.35,-3.92,-6.35,6.35,6.13,3.03,2.45,2.43,2.45
21.44,-3.88,-6.34,-3.89,-6.34,6.34,6.13,3.12,2.46,2.45,2.46
21.66,-3.86,-6.33,-3.87,-6.32,6.32,6.13,3.20,2.46,2.46,2.47
21.87,-3.86,-6.33,-3.84,-6.31,6.31,6.13,3.29,2.45,2.47,2.47
22.09,-3.86,-6.34,-3.81,-6.29,6.29,6.13,3.39,2.43,2.47,2.48
22.31,-3.81,-6.29,-3.79,-6.27,6.27,6.12,3.48,2.46,2.48,2.48
22.54,-3.78,-6.26,-3.76,-6.24,6.24,6.12,3.58,2.46,2.48,2.48
22.76,-3.75,-6.23,-3.74,-6.22,6.22,6.11,3.68,2.47,2.48,2.48
22.99,-3.70,-6.17,-3.72,-6.20,6.20,6.10,3.78,2.50,2.48,2.47
23.22,-3.66,-6.13,-3.70,-6.18,6.18,6.09,3.89,2.52,2.48,2.47
23.45,-3.64,-6.11,-3.68,-6.15,6.15,6.07,3.99,2.51,2.48,2.47
23.69,-3.60,-6.07,-3.65,-6.12,6.12,6.06,4.10,2.52,2.47,2.47
23.92,-3.60,-6.07,-3.62,-6.09,6.09,6.04,4.21,2.49,2.47,2.47
24.16,-3.60,-6.07,-3.58,-6.05,6.05,6.02,4.33,2.45,2.47,2.47
24.40,-3.57,-6.04,-3.54,-6.01,6.01,6.00,4.44,2.44,2.47,2.47
24.65,-3.55,-6.01,-3.50,-5.96,5.96,5.98,4.56,2.41,2.46,2.46
24.89,-3.52,-5.98,-3.46,-5.92,5.92,5.96,4.68,2.40,2.46,2.46
25.14,-3.47,-5.93,-3.41,-5.87,5.87,5.93,4.79,2.40,2.46,2.46
25.39,-3.38,-5.84,-3.36,-5.82,5.82,5.91,4.91,2.44,2.46,2.46
25.65,-3.32,-5.78,-3.31,-5.76,5.76,5.88,5.03,2.44,2.46,2.46
25.91,-3.22,-5.67,-3.25,-5.71,5.71,5.85,5.15,2.48,2.46,2.45
26.16,-3.16,-5.61,-3.19,-5.64,5.64,5.82,5.27,2.49,2.45,2.45
26.43,-3.09,-5.54,-3.13,-5.58,5.58,5.79,5.39,2.49,2.45,2.45
26.69,-3.04,-5.49,-3.07,-5.52,5.52,5.75,5.50,2.48,2.45,2.45
26.96,-2.99,-5.44,-3.01,-5.45,5.45,5.72,5.62,2.46,2.44,2.45
27.23,-2.95,-5.39,-2.95,-5.40,5.40,5.68,5.73,2.44,2.44,2.44
27.50,-2.90,-5.34,-2.90,-5.34,5.34,5.64,5.84,2.44,2.44,2.44
27.77,-2.87,-5.30,-2.86,-5.29,5.29,5.61,5.94,2.42,2.43,2.43
28.05,-2.84,-5.27,-2.82,-5.25,5.25,5.57,6.04,2.41,2.43,2.43
28.33,-2.79,-5.21,-2.78,-5.21,5.21,5.53,6.13,2.42,2.43,2.42
28.62,-2.74,-5.16,-2.75,-5.17,5.17,5.48,6.22,2.43,2.42,2.42
28.90,-2.71,-5.13,-2.73,-5.14,5.14,5.44,6.30,2.43,2.42,2.42
29.19,-2.69,-5.10,-2.70,-5.11,5.11,5.40,6.37,2.42,2.41,2.41
29.48,-2.66,-5.07,-2.68,-5.08,5.08,5.35,6.43,2.42,2.41,2.41
29.78,-2.64,-5.04,-2.65,-5.06,5.06,5.31,6.49,2.42,2.40,2.40
30.08,-2.64,-5.04,-2.63,-5.03,5.03,5.26,6.53,2.39,2.40,2.40
30.38,-2.63,-5.02,-2.62,-5.01,5.01,5.22,6.56,2.38,2.39,2.39
30.68,-2.60,-4.99,-2.60,-4.98,4.98,5.17,6.59,2.38,2.39,2.39
30.99,-2.60,-4.98,-2.58,-4.96,4.96,5.12,6.60,2.36,2.38,2.38
31.30,-2.56,-4.93,-2.57,-4.94,4.94,5.07,6.60,2.38,2.37,2.37
31.61,-2.56,-4.93,-2.55,-4.92,4.92,5.02,6.59,2.36,2.37,2.37
31.93,-2.56,-4.92,-2.54,-4.90,4.90,4.97,6.57,2.34,2.36,2.36
32.24,-2.51,-4.86,-2.52,-4.88,4.88,4.92,6.54,2.37,2.36,2.35
32.57,-2.51,-4.86,-2.51,-4.85,4.85,4.87,6.49,2.34,2.35,2.35
32.89,-2.47,-4.81,-2.49,-4.83,4.83,4.82,6.44,2.36,2.34,2.34
33.22,-2.47,-4.80,-2.47,-4.80,4.80,4.77,6.38,2.33,2.33,2.33
33.55,-2.47,-4.80,-2.45,-4.77,4.77,4.72,6.31,2.30,2.33,2.33
33.89,-2.43,-4.75,-2.43,-4.75,4.75,4.66,6.23,2.32,2.32,2.32
34.23,-2.43,-4.74,-2.41,-4.72,4.72,4.61,6.15,2.29,2.31,2.31
34.57,-2.39,-4.69,-2.39,-4.69,4.69,4.56,6.06,2.30,2.30,2.30
34.92,-2.36,-4.65,-2.38,-4.67,4.67,4.51,5.96,2.31,2.29,2.29
35.27,-2.34,-4.62,-2.36,-4.64,4.64,4.45,5.86,2.30,2.28,2.28
35.62,-2.34,-4.61,-2.34,-4.61,4.61,4.40,5.76,2.27,2.27,2.27
35.97,-2.31,-4.57,-2.32,-4.59,4.59,4.35,5.65,2.28,2.26,2.26
36.33,-2.30,-4.55,-2.31,-4.56,4.56,4.29,5.53,2.26,2.25,2.25
36.70,-2.30,-4.54,-2.29,-4.53,4.53,4.24,5.42,2.23,2.24,2.24
37.06,-2.30,-4.53,-2.27,-4.50,4.50,4.19,5.31,2.20,2.23,2.23
37.43,-2.26,-4.48,-2.26,-4.48,4.48,4.13,5.19,2.22,2.22,2.22
37.81,-2.25,-4.46,-2.24,-4.45,4.45,4.08,5.07,2.20,2.21,2.21
38.19,-2.24,-4.44,-2.23,-4.43,4.43,4.02,4.96,2.19,2.20,2.20
38.57,-2.21,-4.40,-2.22,-4.41,4.41,3.97,4.84,2.20,2.19,2.19
38.95,-2.20,-4.38,-2.21,-4.39,4.39,3.92,4.73,2.19,2.18,2.18
39.34,-2.17,-4.33,-2.20,-4.37,4.37,3.86,4.61,2.20,2.17,2.16
39.74,-2.17,-4.32,-2.19,-4.35,4.35,3.81,4.50,2.18,2.16,2.15
40.14,-2.17,-4.31,-2.19,-4.33,4.33,3.76,4.39,2.16,2.15,2.14
40.54,-2.17,-4.30,-2.17,-4.31,4.31,3.70,4.28,2.14,2.14,2.13
40.94,-2.17,-4.29,-2.16,-4.28,4.28,3.65,4.17,2.11,2.12,2.12
41.35,-2.13,-4.24,-2.14,-4.25,4.25,3.60,4.07,2.12,2.11,2.11
41.76,-2.12,-4.22,-2.12,-4.21,4.21,3.55,3.97,2.09,2.10,2.10
42.18,-2.12,-4.21,-2.09,-4.17,4.17,3.49,3.87,2.05,2.09,2.09
42.60,-2.08,-4.16,-2.05,-4.13,4.13,3.44,3.77,2.05,2.07,2.08
43.03,-2.04,-4.11,-2.01,-4.07,4.07,3.39,3.68,2.03,2.06,2.07
43.46,-2.00,-4.05,-1.96,-4.01,4.01,3.34,3.58,2.01,2.04,2.05
43.90,-1.91,-3.94,-1.91,-3.94,3.94,3.29,3.49,2.03,2.03,2.03
44.33,-1.86,-3.87,-1.85,-3.86,3.86,3.24,3.41,2.00,2.02,2.01
44.78,-1.77,-3.76,-1.78,-3.78,3.78,3.19,3.32,2.01,2.00,1.99
45.23,-1.69,-3.66,-1.70,-3.69,3.69,3.13,3.24,2.00,1.98,1.97
45.68,-1.63,-3.59,-1.63,-3.59,3.59,3.08,3.16,1.96,1.96,1.96
46.13,-1.53,-3.47,-1.55,-3.49,3.49,3.03,3.09,1.96,1.95,1.94
46.60,-1.45,-3.38,-1.46,-3.39,3.39,2.98,3.01,1.94,1.93,1.93
47.06,-1.37,-3.28,-1.37,-3.28,3.28,2.94,2.94,1.91,1.91,1.91
47.53,-1.28,-3.17,-1.29,-3.17,3.17,2.89,2.87,1.89,1.88,1.89
48.01,-1.20,-3.08,-1.20,-3.06,3.06,2.84,2.80,1.86,1.86,1.88
48.49,-1.14,-2.99,-1.11,-2.96,2.96,2.79,2.74,1.81,1.84,1.85
48.97,-1.04,-2.86,-1.03,-2.85,2.85,2.74,2.68,1.81,1.82,1.82
49.46,-0.94,-2.73,-0.95,-2.74,2.74,2.69,2.62,1.81,1.80,1.79
49.96,-0.87,-2.63,-0.87,-2.64,2.64,2.65,2.56,1.77,1.77,1.76
50.46,-0.78,-2.52,-0.79,-2.54,2.54,2.60,2.50,1.76,1.75,1.74
50.96,-0.70,-2.42,-0.71,-2.44,2.44,2.55,2.45,1.74,1.72,1.72
51.47,-0.63,-2.32,-0.64,-2.34,2.34,2.51,2.39,1.71,1.70,1.69
51.99,-0.57,-2.24,-0.57,-2.24,2.24,2.46,2.34,1.67,1.67,1.67
52.51,-0.51,-2.16,-0.51,-2.15,2.15,2.41,2.29,1.64,1.65,1.65
53.03,-0.45,-2.08,-0.45,-2.07,2.07,2.37,2.25,1.62,1.62,1.63
53.56,-0.39,-1.99,-0.39,-1.99,1.99,2.32,2.20,1.60,1.60,1.60
54.10,-0.33,-1.91,-0.34,-1.91,1.91,2.28,2.15,1.58,1.58,1.58
54.64,-0.28,-1.83,-0.29,-1.85,1.85,2.23,2.11,1.57,1.55,1.55
55.18,-0.24,-1.77,-0.25,-1.79,1.79,2.19,2.06,1.55,1.53,1.53
55.74,-0.22,-1.72,-0.22,-1.73,1.73,2.15,2.02,1.51,1.51,1.50
56.29,-0.17,-1.65,-0.18,-1.67,1.67,2.10,1.98,1.50,1.49,1.48
56.86,-0.16,-1.62,-0.16,-1.62,1.62,2.06,1.94,1.46,1.46,1.46
57.42,-0.13,-1.56,-0.13,-1.57,1.57,2.02,1.90,1.44,1.44,1.43
58.00,-0.13,-1.54,-0.11,-1.52,1.52,1.97,1.86,1.39,1.41,1.41
58.58,-0.09,-1.48,-0.09,-1.48,1.48,1.93,1.82,1.39,1.39,1.39
59.16,-0.09,-1.46,-0.08,-1.45,1.45,1.89,1.78,1.36,1.36,1.37
59.76,-0.09,-1.44,-0.08,-1.41,1.41,1.85,1.74,1.32,1.34,1.35
60.35,-0.07,-1.39,-0.07,-1.38,1.38,1.81,1.70,1.31,1.31,1.32
60.96,-0.04,-1.33,-0.07,-1.35,1.35,1.77,1.66,1.31,1.28,1.29
61.57,-0.04,-1.29,-0.06,-1.32,1.32,1.72,1.62,1.28,1.25,1.25
62.18,-0.05,-1.27,-0.07,-1.29,1.29,1.68,1.57,1.24,1.23,1.22
62.80,-0.08,-1.27,-0.07,-1.27,1.27,1.64,1.53,1.19,1.20,1.19
63.43,-0.09,-1.25,-0.07,-1.24,1.24,1.60,1.49,1.15,1.17,1.16
64.07,-0.09,-1.22,-0.08,-1.21,1.21,1.56,1.45,1.12,1.14,1.13
64.71,-0.09,-1.20,-0.08,-1.19,1.19,1.52,1.41,1.10,1.11,1.11
65.35,-0.09,-1.17,-0.09,-1.17,1.17,1.49,1.37,1.08,1.08,1.08
66.01,-0.09,-1.14,-0.10,-1.15,1.15,1.45,1.33,1.06,1.05,1.05
66.67,-0.11,-1.13,-0.11,-1.13,1.13,1.41,1.28,1.02,1.02,1.02
67.33,-0.13,-1.12,-0.12,-1.11,1.11,1.37,1.24,0.98,0.99,0.99
68.01,-0.13,-1.09,-0.13,-1.09,1.09,1.33,1.20,0.96,0.96,0.96
68.69,-0.13,-1.06,-0.14,-1.07,1.07,1.29,1.15,0.94,0.93,0.93
69.37,-0.13,-1.03,-0.15,-1.05,1.05,1.26,1.11,0.91,0.90,0.90
70.07,-0.16,-1.03,-0.16,-1.02,1.02,1.22,1.06,0.86,0.87,0.87
70.77,-0.17,-1.01,-0.16,-1.00,1.00,1.18,1.02,0.83,0.84,0.84
71.48,-0.17,-0.98,-0.18,-0.98,0.98,1.14,0.97,0.81,0.80,0.81
72.19,-0.17,-0.94,-0.19,-0.96,0.96,1.11,0.93,0.79,0.77,0.77
72.91,-0.22,-0.96,-0.20,-0.94,0.94,1.07,0.88,0.72,0.74,0.74
73.64,-0.22,-0.92,-0.21,-0.91,0.91,1.03,0.84,0.69,0.70,0.70
74.38,-0.22,-0.89,-0.22,-0.89,0.89,1.00,0.79,0.67,0.67,0.67
75.12,-0.22,-0.85,-0.23,-0.87,0.87,0.96,0.75,0.65,0.64,0.63
75.87,-0.26,-0.86,-0.24,-0.85,0.85,0.92,0.70,0.59,0.60,0.60
76.63,-0.26,-0.83,-0.26,-0.83,0.83,0.89,0.66,0.57,0.57,0.57
77.40,-0.26,-0.80,-0.27,-0.81,0.81,0.85,0.61,0.55,0.54,0.54
78.17,-0.26,-0.76,-0.28,-0.78,0.78,0.81,0.57,0.52,0.50,0.50
78.95,-0.30,-0.77,-0.29,-0.76,0.76,0.78,0.52,0.46,0.47,0.47
79.74,-0.30,-0.74,-0.30,-0.74,0.74,0.74,0.48,0.44,0.44,0.44
80.54,-0.30,-0.70,-0.31,-0.71,0.71,0.71,0.43,0.41,0.40,0.40
81.35,-0.32,-0.69,-0.32,-0.69,0.69,0.67,0.39,0.37,0.37,0.37
82.16,-0.35,-0.68,-0.33,-0.66,0.66,0.64,0.34,0.31,0.33,0.33
82.98,-0.35,-0.65,-0.34,-0.63,0.63,0.60,0.30,0.28,0.30,0.30
83.81,-0.35,-0.61,-0.34,-0.61,0.61,0.56,0.25,0.26,0.26,0.26
84.65,-0.35,-0.57,-0.35,-0.57,0.57,0.53,0.21,0.22,0.22,0.22
85.50,-0.35,-0.54,-0.36,-0.54,0.54,0.49,0.16,0.19,0.19,0.19
86.35,-0.35,-0.50,-0.36,-0.51,0.51,0.46,0.11,0.16,0.15,0.15
87.22,-0.35,-0.46,-0.37,-0.48,0.48,0.42,0.07,0.13,0.11,0.11
88.09,-0.37,-0.44,-0.37,-0.44,0.44,0.38,0.02,0.07,0.07,0.07
88.97,-0.37,-0.40,-0.38,-0.40,0.40,0.35,-0.02,0.03,0.03,0.03
89.86,-0.39,-0.38,-0.38,-0.37,0.37,0.31,-0.07,-0.02,-0.01,-0.01
90.76,-0.39,-0.33,-0.38,-0.32,0.32,0.28,-0.11,-0.07,-0.06,-0.06
91.66,-0.39,-0.29,-0.38,-0.28,0.28,0.24,-0.16,-0.11,-0.10,-0.10
92.58,-0.39,-0.24,-0.39,-0.24,0.24,0.20,-0.20,-0.15,-0.14,-0.15
93.51,-0.39,-0.20,-0.39,-0.20,0.20,0.17,-0.25,-0.19,-0.19,-0.19
94.44,-0.39,-0.16,-0.39,-0.15,0.15,0.13,-0.29,-0.24,-0.24,-0.23
95.39,-0.39,-0.11,-0.39,-0.11,0.11,0.09,-0.34,-0.28,-0.28,-0.28
96.34,-0.39,-0.06,-0.39,-0.06,0.06,0.05,-0.39,-0.33,-0.33,-0.33
97.30,-0.39,-0.01,-0.39,-0.02,0.02,0.02,-0.43,-0.37,-0.38,-0.38
98.28,-0.39,0.04,-0.39,0.03,-0.03,-0.02,-0.48,-0.42,-0.42,-0.43
99.26,-0.39,0.08,-0.39,0.08,-0.08,-0.06,-0.52,-0.47,-0.47,-0.47
100.25,-0.39,0.13,-0.39,0.13,-0.13,-0.10,-0.57,-0.52,-0.52,-0.52
101.25,-0.39,0.18,-0.39,0.18,-0.18,-0.14,-0.61,-0.57,-0.57,-0.57
102.27,-0.39,0.23,-0.39,0.23,-0.23,-0.17,-0.66,-0.62,-0.62,-0.62
103.29,-0.39,0.28,-0.39,0.27,-0.27,-0.21,-0.71,-0.66,-0.66,-0.67
104.32,-0.39,0.32,-0.39,0.32,-0.32,-0.25,-0.75,-0.71,-0.71,-0.71
105.37,-0.39,0.37,-0.39,0.37,-0.37,-0.29,-0.80,-0.76,-0.76,-0.76
106.42,-0.39,0.42,-0.39,0.42,-0.42,-0.33,-0.84,-0.81,-0.81,-0.81
107.48,-0.39,0.47,-0.39,0.47,-0.47,-0.37,-0.88,-0.86,-0.86,-0.86
108.56,-0.39,0.52,-0.39,0.52,-0.52,-0.42,-0.93,-0.91,-0.91,-0.91
109.64,-0.39,0.57,-0.39,0.58,-0.58,-0.46,-0.97,-0.97,-0.96,-0.96
110.74,-0.39,0.62,-0.39,0.63,-0.63,-0.50,-1.01,-1.02,-1.01,-1.01
111.85,-0.39,0.67,-0.38,0.68,-0.68,-0.54,-1.05,-1.07,-1.07,-1.06
112.97,-0.39,0.73,-0.38,0.74,-0.74,-0.59,-1.10,-1.13,-1.12,-1.12
114.10,-0.39,0.78,-0.38,0.79,-0.79,-0.63,-1.14,-1.19,-1.17,-1.17
115.24,-0.37,0.86,-0.37,0.85,-0.85,-0.67,-1.17,-1.22,-1.22,-1.23
116.39,-0.35,0.93,-0.37,0.91,-0.91,-0.72,-1.21,-1.26,-1.28,-1.28
117.55,-0.35,0.99,-0.36,0.97,-0.97,-0.76,-1.25,-1.32,-1.33,-1.34
118.73,-0.35,1.04,-0.35,1.03,-1.03,-0.81,-1.28,-1.38,-1.38,-1.39
119.92,-0.35,1.09,-0.35,1.09,-1.09,-0.86,-1.32,-1.44,-1.44,-1.44
121.12,-0.35,1.14,-0.34,1.15,-1.15,-0.90,-1.35,-1.50,-1.49,-1.49
122.33,-0.35,1.19,-0.33,1.21,-1.21,-0.95,-1.38,-1.56,-1.54,-1.54
123.55,-0.32,1.27,-0.32,1.27,-1.27,-1.00,-1.41,-1.59,-1.59,-1.59
124.79,-0.31,1.33,-0.32,1.33,-1.33,-1.05,-1.44,-1.64,-1.64,-1.64
126.03,-0.30,1.39,-0.31,1.39,-1.39,-1.10,-1.47,-1.69,-1.70,-1.69
127.29,-0.30,1.44,-0.30,1.44,-1.44,-1.15,-1.49,-1.74,-1.75,-1.74
128.57,-0.30,1.50,-0.30,1.50,-1.50,-1.20,-1.52,-1.80,-1.80,-1.80
129.85,-0.30,1.55,-0.29,1.56,-1.56,-1.25,-1.54,-1.86,-1.85,-1.85
131.15,-0.30,1.60,-0.28,1.61,-1.61,-1.31,-1.56,-1.91,-1.90,-1.90
132.46,-0.26,1.69,-0.28,1.66,-1.66,-1.36,-1.59,-1.92,-1.94,-1.95
133.79,-0.26,1.73,-0.27,1.72,-1.72,-1.42,-1.61,-1.98,-1.99,-1.99
135.12,-0.26,1.78,-0.27,1.77,-1.77,-1.47,-1.63,-2.03,-2.04,-2.04
136.48,-0.26,1.82,-0.26,1.82,-1.82,-1.53,-1.65,-2.08,-2.08,-2.08
137.84,-0.26,1.87,-0.26,1.87,-1.87,-1.59,-1.66,-2.13,-2.13,-2.13
139.22,-0.26,1.92,-0.26,1.91,-1.91,-1.64,-1.68,-2.17,-2.17,-2.18
140.61,-0.26,1.96,-0.26,1.96,-1.96,-1.70,-1.70,-2.22,-2.21,-2.22
142.02,-0.26,1.99,-0.25,2.00,-2.00,-1.76,-1.72,-2.26,-2.25,-2.25
143.44,-0.26,2.03,-0.25,2.04,-2.04,-1.82,-1.73,-2.30,-2.29,-2.29
144.87,-0.26,2.07,-0.24,2.09,-2.09,-1.88,-1.75,-2.35,-2.33,-2.33
146.32,-0.22,2.15,-0.24,2.13,-2.13,-1.94,-1.77,-2.35,-2.37,-2.37
147.78,-0.22,2.18,-0.23,2.17,-2.17,-2.01,-1.79,-2.39,-2.41,-2.40
149.26,-0.22,2.22,-0.23,2.22,-2.22,-2.07,-1.81,-2.44,-2.45,-2.44
150.75,-0.22,2.26,-0.22,2.27,-2.27,-2.13,-1.83,-2.49,-2.48,-2.48
152.26,-0.22,2.30,-0.21,2.31,-2.31,-2.20,-1.85,-2.53,-2.52,-2.52
153.78,-0.22,2.34,-0.20,2.36,-2.36,-2.26,-1.87,-2.58,-2.56,-2.56
155.32,-0.19,2.41,-0.20,2.40,-2.40,-2.33,-1.89,-2.59,-2.60,-2.60
156.88,-0.17,2.47,-0.19,2.45,-2.45,-2.39,-1.92,-2.62,-2.64,-2.64
158.44,-0.17,2.51,-0.18,2.50,-2.50,-2.46,-1.94,-2.67,-2.68,-2.68
160.03,-0.17,2.55,-0.17,2.55,-2.55,-2.52,-1.97,-2.72,-2.72,-2.72
161.63,-0.17,2.59,-0.16,2.60,-2.60,-2.59,-2.00,-2.77,-2.76,-2.76
163.24,-0.17,2.63,-0.15,2.64,-2.64,-2.66,-2.03,-2.81,-2.79,-2.80
164.88,-0.13,2.70,-0.14,2.69,-2.69,-2.72,-2.06,-2.82,-2.83,-2.83
166.53,-0.13,2.74,-0.13,2.74,-2.74,-2.79,-2.09,-2.87,-2.87,-2.87
168.19,-0.13,2.78,-0.12,2.79,-2.79,-2.86,-2.12,-2.92,-2.91,-2.91
169.87,-0.13,2.82,-0.11,2.83,-2.83,-2.92,-2.16,-2.96,-2.95,-2.95
171.57,-0.09,2.90,-0.11,2.88,-2.88,-2.99,-2.20,-2.97,-2.99,-2.99
173.29,-0.09,2.93,-0.11,2.92,-2.92,-3.05,-2.24,-3.01,-3.03,-3.02
175.02,-0.09,2.97,-0.10,2.96,-2.96,-3.11,-2.28,-3.05,-3.06,-3.06
176.77,-0.09,3.01,-0.10,3.00,-3.00,-3.17,-2.32,-3.09,-3.10,-3.10
178.54,-0.09,3.05,-0.09,3.05,-3.05,-3.24,-2.37,-3.14,-3.14,-3.14
180.32,-0.09,3.09,-0.09,3.09,-3.09,-3.29,-2.41,-3.18,-3.17,-3.18
182.13,-0.09,3.12,-0.08,3.13,-3.13,-3.35,-2.46,-3.22,-3.21,-3.21
183.95,-0.09,3.16,-0.08,3.17,-3.17,-3.41,-2.51,-3.26,-3.25,-3.25
185.79,-0.09,3.19,-0.08,3.21,-3.21,-3.46,-2.57,-3.30,-3.28,-3.28
187.65,-0.09,3.23,-0.07,3.25,-3.25,-3.51,-2.62,-3.34,-3.32,-3.32
189.52,-0.09,3.26,-0.07,3.28,-3.28,-3.56,-2.68,-3.37,-3.35,-3.35
191.42,-0.04,3.34,-0.06,3.32,-3.32,-3.61,-2.73,-3.36,-3.38,-3.38
193.33,-0.04,3.37,-0.05,3.36,-3.36,-3.65,-2.79,-3.40,-3.41,-3.41
195.27,-0.04,3.40,-0.05,3.39,-3.39,-3.69,-2.85,-3.43,-3.44,-3.44
197.22,-0.04,3.43,-0.04,3.43,-3.43,-3.73,-2.91,-3.47,-3.47,-3.47
199.19,-0.04,3.46,-0.03,3.46,-3.46,-3.76,-2.98,-3.50,-3.49,-3.50
201.18,-0.04,3.48,-0.03,3.49,-3.49,-3.80,-3.04,-3.53,-3.52,-3.52
203.19,-0.01,3.53,-0.02,3.52,-3.52,-3.82,-3.10,-3.53,-3.54,-3.54
205.23,-0.00,3.56,-0.01,3.54,-3.54,-3.85,-3.17,-3.54,-3.56,-3.56
207.28,-0.00,3.57,-0.01,3.57,-3.57,-3.86,-3.23,-3.57,-3.58,-3.57
209.35,-0.00,3.59,-0.00,3.59,-3.59,-3.88,-3.30,-3.59,-3.59,-3.59
211.44,-0.00,3.61,0.00,3.61,-3.61,-3.89,-3.36,-3.61,-3.60,-3.61
213.56,-0.00,3.62,0.01,3.62,-3.62,-3.90,-3.42,-3.62,-3.62,-3.62
215.69,0.00,3.62,0.01,3.64,-3.64,-3.90,-3.49,-3.64,-3.63,-3.62
217.85,0.02,3.65,0.01,3.65,-3.65,-3.90,-3.55,-3.63,-3.63,-3.63
220.03,0.02,3.66,0.02,3.66,-3.66,-3.90,-3.60,-3.64,-3.64,-3.64
222.23,0.02,3.67,0.02,3.67,-3.67,-3.89,-3.66,-3.65,-3.64,-3.65
224.45,0.04,3.69,0.03,3.68,-3.68,-3.87,-3.71,-3.64,-3.65,-3.65
226.70,0.04,3.69,0.03,3.68,-3.68,-3.86,-3.76,-3.64,-3.65,-3.65
228.96,0.04,3.69,0.04,3.69,-3.69,-3.84,-3.81,-3.65,-3.65,-3.65
231.25,0.04,3.68,0.05,3.69,-3.69,-3.81,-3.85,-3.65,-3.65,-3.64
233.57,0.04,3.68,0.05,3.69,-3.69,-3.79,-3.89,-3.65,-3.64,-3.64
235.90,0.04,3.68,0.06,3.69,-3.69,-3.76,-3.93,-3.65,-3.64,-3.64
238.26,0.05,3.68,0.06,3.69,-3.69,-3.72,-3.95,-3.64,-3.63,-3.63
240.64,0.09,3.71,0.07,3.69,-3.69,-3.69,-3.98,-3.60,-3.62,-3.62
243.05,0.09,3.70,0.07,3.69,-3.69,-3.65,-4.00,-3.60,-3.61,-3.61
245.48,0.09,3.69,0.08,3.68,-3.68,-3.61,-4.01,-3.59,-3.60,-3.60
247.93,0.09,3.68,0.09,3.67,-3.67,-3.56,-4.01,-3.58,-3.59,-3.59
250.41,0.09,3.67,0.09,3.67,-3.67,-3.52,-4.01,-3.58,-3.57,-3.58
252.92,0.09,3.65,0.10,3.66,-3.66,-3.47,-4.01,-3.57,-3.56,-3.56
255.45,0.09,3.63,0.11,3.65,-3.65,-3.42,-3.99,-3.56,-3.54,-3.54
258.00,0.11,3.64,0.11,3.64,-3.64,-3.37,-3.97,-3.53,-3.53,-3.53
260.58,0.11,3.62,0.12,3.63,-3.63,-3.32,-3.95,-3.52,-3.51,-3.51
263.19,0.13,3.62,0.12,3.61,-3.61,-3.27,-3.92,-3.48,-3.49,-3.49
265.82,0.13,3.60,0.13,3.60,-3.60,-3.22,-3.88,-3.47,-3.47,-3.47
268.48,0.13,3.58,0.13,3.58,-3.58,-3.16,-3.84,-3.45,-3.45,-3.45
271.16,0.13,3.56,0.13,3.56,-3.56,-3.11,-3.80,-3.43,-3.43,-3.43
273.87,0.13,3.54,0.13,3.54,-3.54,-3.05,-3.75,-3.41,-3.41,-3.41
276.61,0.13,3.52,0.13,3.52,-3.52,-3.00,-3.70,-3.39,-3.39,-3.39
279.38,0.13,3.50,0.12,3.49,-3.49,-2.94,-3.64,-3.36,-3.37,-3.37
282.17,0.13,3.48,0.11,3.47,-3.47,-2.89,-3.58,-3.34,-3.35,-3.35
284.99,0.09,3.42,0.10,3.44,-3.44,-2.83,-3.52,-3.35,-3.33,-3.33
287.84,0.09,3.40,0.09,3.40,-3.40,-2.78,-3.45,-3.31,-3.31,-3.31
290.72,0.09,3.38,0.08,3.36,-3.36,-2.73,-3.38,-3.27,-3.29,-3.29
293.63,0.04,3.31,0.06,3.32,-3.32,-2.67,-3.32,-3.28,-3.27,-3.27
296.57,0.04,3.29,0.04,3.28,-3.28,-2.62,-3.25,-3.24,-3.25,-3.25
299.53,-0.00,3.23,0.01,3.24,-3.24,-2.57,-3.18,-3.24,-3.22,-3.23
302.53,-0.01,3.20,-0.01,3.19,-3.19,-2.52,-3.10,-3.20,-3.20,-3.21
305.55,-0.04,3.14,-0.04,3.13,-3.13,-2.46,-3.03,-3.17,-3.18,-3.18
308.61,-0.09,3.07,-0.08,3.08,-3.08,-2.41,-2.96,-3.17,-3.16,-3.16
311.69,-0.12,3.01,-0.12,3.02,-3.02,-2.37,-2.89,-3.14,-3.13,-3.13
314.81,-0.15,2.95,-0.16,2.95,-2.95,-2.32,-2.82,-3.10,-3.11,-3.10
317.96,-0.20,2.88,-0.20,2.88,-2.88,-2.27,-2.75,-3.08,-3.09,-3.08
321.14,-0.26,2.80,-0.25,2.81,-2.81,-2.22,-2.68,-3.07,-3.06,-3.06
324.35,-0.29,2.75,-0.31,2.73,-2.73,-2.18,-2.61,-3.02,-3.04,-3.04
327.59,-0.35,2.67,-0.37,2.65,-2.65,-2.13,-2.55,-3.00,-3.02,-3.02
330.87,-0.43,2.57,-0.43,2.56,-2.56,-2.09,-2.48,-2.99,-3.00,-3.00
334.18,-0.49,2.49,-0.50,2.48,-2.48,-2.05,-2.42,-2.97,-2.98,-2.98
337.52,-0.59,2.37,-0.58,2.38,-2.38,-2.01,-2.35,-2.97,-2.96,-2.96
340.90,-0.65,2.29,-0.66,2.28,-2.28,-1.97,-2.29,-2.93,-2.94,-2.94
344.30,-0.76,2.16,-0.74,2.18,-2.18,-1.93,-2.23,-2.94,-2.92,-2.92
347.75,-0.82,2.08,-0.84,2.06,-2.06,-1.89,-2.17,-2.88,-2.90,-2.90
351.23,-0.92,1.96,-0.93,1.95,-1.95,-1.85,-2.12,-2.87,-2.88,-2.88
354.74,-1.00,1.86,-1.03,1.83,-1.83,-1.81,-2.06,-2.83,-2.86,-2.86
358.28,-1.10,1.75,-1.13,1.72,-1.72,-1.78,-2.01,-2.82,-2.85,-2.85
361.87,-1.21,1.62,-1.23,1.60,-1.60,-1.75,-1.96,-2.81,-2.83,-2.83
365.49,-1.31,1.50,-1.32,1.49,-1.49,-1.71,-1.91,-2.80,-2.81,-2.81
369.14,-1.41,1.39,-1.41,1.39,-1.39,-1.68,-1.86,-2.80,-2.80,-2.80
372.83,-1.54,1.24,-1.50,1.29,-1.29,-1.65,-1.81,-2.83,-2.78,-2.78
376.56,-1.64,1.13,-1.58,1.19,-1.19,-1.62,-1.77,-2.83,-2.77,-2.77
380.33,-1.70,1.05,-1.66,1.09,-1.09,-1.59,-1.72,-2.79,-2.75,-2.75
384.13,-1.77,0.97,-1.73,1.01,-1.01,-1.57,-1.68,-2.78,-2.74,-2.74
387.97,-1.80,0.93,-1.80,0.92,-0.92,-1.54,-1.64,-2.72,-2.73,-2.73
391.85,-1.83,0.89,-1.87,0.85,-0.85,-1.51,-1.60,-2.68,-2.72,-2.72
395.77,-1.88,0.82,-1.92,0.78,-0.78,-1.49,-1.56,-2.66,-2.70,-2.70
399.73,-1.93,0.76,-1.96,0.73,-0.73,-1.47,-1.52,-2.66,-2.69,-2.69
403.72,-1.98,0.70,-1.99,0.69,-0.69,-1.45,-1.49,-2.67,-2.68,-2.68
407.76,-2.03,0.64,-2.01,0.66,-0.66,-1.42,-1.46,-2.69,-2.67,-2.67
411.84,-2.06,0.60,-2.03,0.63,-0.63,-1.41,-1.42,-2.69,-2.66,-2.66
415.96,-2.08,0.57,-2.03,0.62,-0.62,-1.39,-1.39,-2.70,-2.65,-2.65
420.12,-2.08,0.56,-2.04,0.60,-0.60,-1.37,-1.36,-2.68,-2.64,-2.64
424.32,-2.08,0.55,-2.04,0.59,-0.59,-1.35,-1.33,-2.67,-2.63,-2.63
428.56,-2.06,0.56,-2.03,0.59,-0.59,-1.34,-1.31,-2.65,-2.62,-2.62
432.85,-2.01,0.60,-2.02,0.59,-0.59,-1.32,-1.28,-2.60,-2.61,-2.61
437.18,-1.99,0.61,-2.00,0.59,-0.59,-1.31,-1.26,-2.58,-2.59,-2.60
441.55,-1.95,0.63,-1.99,0.60,-0.60,-1.30,-1.24,-2.55,-2.58,-2.58
445.96,-1.95,0.62,-1.97,0.60,-0.60,-1.29,-1.22,-2.55,-2.57,-2.57
450.42,-1.95,0.61,-1.96,0.60,-0.60,-1.28,-1.20,-2.55,-2.56,-2.56
454.93,-1.93,0.61,-1.95,0.60,-0.60,-1.27,-1.18,-2.53,-2.54,-2.54
459.48,-1.93,0.60,-1.95,0.58,-0.58,-1.26,-1.16,-2.51,-2.53,-2.53
464.07,-1.95,0.57,-1.96,0.56,-0.56,-1.26,-1.14,-2.51,-2.52,-2.52
468.71,-1.95,0.55,-1.99,0.52,-0.52,-1.25,-1.13,-2.47,-2.50,-2.50
