frequency,raw,error,smoothed,error_smoothed,equalization,parametric_eq,fixed_band_eq,equalized_raw,equalized_smoothed,target
20.00,6.48,-5.18,6.48,-5.19,5.19,4.90,1.56,11.67,11.67,11.67
20.20,6.53,-5.13,6.53,-5.13,5.13,4.87,1.60,11.67,11.67,11.67
20.40,6.58,-5.08,6.58,-5.08,5.08,4.84,1.65,11.67,11.67,11.67
20.61,6.63,-5.03,6.63,-5.03,5.03,4.81,1.70,11.66,11.66,11.67
20.81,6.68,-4.97,6.68,-4.98,4.98,4.77,1.75,11.66,11.66,11.66
21.02,6.73,-4.92,6.73,-4.93,4.93,4.74,1.80,11.66,11.66,11.66
21.23,6.77,-4.88,6.78,-4.88,4.88,4.71,1.85,11.65,11.66,11.66
21.44,6.82,-4.84,6.83,-4.82,4.82,4.67,1.91,11.65,11.65,11.66
21.66,6.87,-4.78,6.88,-4.77,4.77,4.64,1.96,11.64,11.65,11.66
21.87,6.92,-4.73,6.93,-4.72,4.72,4.61,2.02,11.64,11.65,11.65
22.09,6.97,-4.67,6.98,-4.67,4.67,4.57,2.08,11.64,11.64,11.65
22.31,7.02,-4.62,7.03,-4.61,4.61,4.54,2.14,11.64,11.64,11.64
22.54,7.07,-4.56,7.07,-4.56,4.56,4.50,2.20,11.63,11.64,11.64
22.76,7.12,-4.51,7.12,-4.51,4.51,4.47,2.26,11.63,11.63,11.64
22.99,7.17,-4.45,7.17,-4.45,4.45,4.43,2.33,11.63,11.63,11.63
23.22,7.22,-4.39,7.22,-4.40,4.40,4.39,2.39,11.62,11.62,11.62
23.45,7.27,-4.34,7.27,-4.35,4.35,4.36,2.46,11.62,11.61,11.62
23.69,7.32,-4.28,7.32,-4.29,4.29,4.32,2.53,11.61,11.61,11.61
23.92,7.36,-4.23,7.36,-4.24,4.24,4.28,2.60,11.60,11.60,11.60
24.16,7.41,-4.18,7.41,-4.19,4.19,4.25,2.67,11.60,11.60,11.60
24.40,7.45,-4.14,7.46,-4.14,4.14,4.21,2.74,11.59,11.59,11.60
24.65,7.50,-4.09,7.51,-4.09,4.09,4.17,2.82,11.59,11.59,11.60
24.89,7.54,-4.05,7.55,-4.04,4.04,4.13,2.89,11.58,11.59,11.59
25.14,7.59,-3.99,7.60,-3.99,3.99,4.10,2.97,11.58,11.59,11.58
25.39,7.64,-3.93,7.64,-3.94,3.94,4.06,3.04,11.58,11.58,11.58
25.65,7.68,-3.89,7.69,-3.89,3.89,4.02,3.11,11.58,11.58,11.58
25.91,7.73,-3.84,7.73,-3.85,3.85,3.98,3.19,11.58,11.58,11.58
26.16,7.78,-3.80,7.78,-3.80,3.80,3.94,3.26,11.59,11.58,11.59
26.43,7.82,-3.76,7.82,-3.76,3.76,3.91,3.34,11.58,11.58,11.59
26.69,7.87,-3.71,7.87,-3.71,3.71,3.87,3.41,11.59,11.58,11.59
26.96,7.91,-3.66,7.91,-3.67,3.67,3.83,3.48,11.58,11.58,11.58
27.23,7.96,-3.61,7.96,-3.62,3.62,3.79,3.55,11.58,11.58,11.58
27.50,7.99,-3.58,8.00,-3.58,3.58,3.75,3.62,11.57,11.58,11.58
27.77,8.03,-3.55,8.04,-3.53,3.53,3.72,3.68,11.57,11.57,11.58
28.05,8.08,-3.49,8.08,-3.49,3.49,3.68,3.74,11.57,11.57,11.58
28.33,8.11,-3.45,8.12,-3.45,3.45,3.64,3.80,11.56,11.57,11.57
28.62,8.15,-3.40,8.16,-3.40,3.40,3.60,3.85,11.56,11.56,11.56
28.90,8.19,-3.37,8.19,-3.36,3.36,3.56,3.90,11.56,11.56,11.57
29.19,8.23,-3.32,8.23,-3.32,3.32,3.52,3.95,11.55,11.55,11.56
29.48,8.26,-3.28,8.26,-3.28,3.28,3.49,3.99,11.54,11.54,11.55
29.78,8.30,-3.23,8.30,-3.24,3.24,3.45,4.02,11.55,11.54,11.54
30.08,8.33,-3.20,8.33,-3.20,3.20,3.41,4.05,11.54,11.53,11.54
30.38,8.36,-3.16,8.36,-3.17,3.17,3.37,4.07,11.53,11.53,11.53
30.68,8.39,-3.12,8.39,-3.13,3.13,3.33,4.09,11.53,11.53,11.52
30.99,8.42,-3.09,8.42,-3.10,3.10,3.30,4.10,11.52,11.52,11.52
31.30,8.44,-3.07,8.45,-3.07,3.07,3.26,4.10,11.51,11.52,11.52
31.61,8.47,-3.04,8.48,-3.04,3.04,3.22,4.10,11.51,11.52,11.52
31.93,8.50,-3.00,8.51,-3.01,3.01,3.18,4.09,11.51,11.51,11.51
32.24,8.52,-2.99,8.53,-2.98,2.98,3.15,4.07,11.50,11.51,11.51
32.57,8.55,-2.95,8.56,-2.95,2.95,3.11,4.05,11.50,11.51,11.51
32.89,8.58,-2.92,8.58,-2.92,2.92,3.07,4.03,11.51,11.50,11.51
33.22,8.60,-2.90,8.60,-2.90,2.90,3.04,3.99,11.50,11.50,11.51
33.55,8.62,-2.87,8.62,-2.87,2.87,3.00,3.96,11.50,11.49,11.50
33.89,8.64,-2.84,8.63,-2.85,2.85,2.96,3.91,11.49,11.48,11.49
34.23,8.65,-2.81,8.64,-2.83,2.83,2.93,3.87,11.48,11.47,11.47
34.57,8.67,-2.79,8.65,-2.81,2.81,2.89,3.82,11.48,11.46,11.47
34.92,8.67,-2.77,8.66,-2.78,2.78,2.86,3.76,11.45,11.44,11.45
35.27,8.67,-2.76,8.67,-2.76,2.76,2.82,3.70,11.43,11.42,11.44
35.62,8.67,-2.73,8.67,-2.73,2.73,2.79,3.64,11.41,11.40,11.41
35.97,8.66,-2.72,8.67,-2.70,2.70,2.75,3.58,11.37,11.38,11.38
36.33,8.66,-2.69,8.68,-2.68,2.68,2.72,3.52,11.34,11.35,11.35
36.70,8.66,-2.66,8.68,-2.64,2.64,2.68,3.45,11.31,11.32,11.33
37.06,8.66,-2.63,8.68,-2.61,2.61,2.65,3.39,11.28,11.30,11.29
37.43,8.67,-2.59,8.69,-2.58,2.58,2.61,3.32,11.25,11.27,11.26
37.81,8.69,-2.54,8.69,-2.54,2.54,2.58,3.25,11.24,11.24,11.24
38.19,8.69,-2.50,8.70,-2.50,2.50,2.55,3.18,11.20,11.21,11.20
38.57,8.71,-2.46,8.71,-2.46,2.46,2.51,3.11,11.18,11.17,11.18
38.95,8.72,-2.42,8.72,-2.42,2.42,2.48,3.05,11.14,11.14,11.14
39.34,8.74,-2.36,8.74,-2.38,2.38,2.45,2.98,11.12,11.11,11.10
39.74,8.75,-2.32,8.75,-2.34,2.34,2.42,2.92,11.09,11.09,11.08
40.14,8.76,-2.29,8.76,-2.29,2.29,2.38,2.85,11.06,11.06,11.06
40.54,8.76,-2.27,8.78,-2.25,2.25,2.35,2.79,11.02,11.03,11.04
40.94,8.78,-2.22,8.79,-2.22,2.22,2.32,2.73,11.00,11.00,11.00
41.35,8.79,-2.18,8.80,-2.18,2.18,2.29,2.66,10.98,10.98,10.98
41.76,8.80,-2.14,8.80,-2.15,2.15,2.26,2.61,10.95,10.95,10.95
42.18,8.81,-2.12,8.81,-2.12,2.12,2.23,2.55,10.93,10.93,10.93
42.60,8.81,-2.09,8.81,-2.09,2.09,2.20,2.49,10.91,10.91,10.90
43.03,8.82,-2.05,8.81,-2.07,2.07,2.17,2.44,10.89,10.88,10.88
43.46,8.81,-2.04,8.81,-2.05,2.05,2.14,2.39,10.86,10.86,10.86
43.90,8.81,-2.02,8.80,-2.03,2.03,2.11,2.34,10.84,10.83,10.84
44.33,8.79,-2.00,8.79,-2.01,2.01,2.08,2.29,10.81,10.80,10.79
44.78,8.78,-1.99,8.78,-2.00,2.00,2.05,2.24,10.78,10.78,10.78
45.23,8.76,-2.00,8.76,-1.98,1.98,2.02,2.19,10.75,10.75,10.77
45.68,8.74,-1.98,8.75,-1.97,1.97,2.00,2.15,10.72,10.72,10.73
46.13,8.72,-1.95,8.72,-1.96,1.96,1.97,2.11,10.68,10.68,10.67
46.60,8.69,-1.96,8.70,-1.95,1.95,1.94,2.07,10.65,10.65,10.66
47.06,8.67,-1.94,8.67,-1.94,1.94,1.92,2.03,10.61,10.61,10.62
47.53,8.64,-1.94,8.64,-1.93,1.93,1.89,2.00,10.57,10.57,10.58
48.01,8.61,-1.91,8.61,-1.92,1.92,1.86,1.96,10.53,10.53,10.53
48.49,8.57,-1.92,8.58,-1.91,1.91,1.84,1.93,10.48,10.49,10.50
48.97,8.54,-1.90,8.55,-1.90,1.90,1.81,1.90,10.44,10.44,10.44
49.46,8.51,-1.89,8.51,-1.88,1.88,1.79,1.87,10.40,10.40,10.40
49.96,8.48,-1.85,8.48,-1.87,1.87,1.76,1.84,10.35,10.35,10.34
50.46,8.43,-1.86,8.45,-1.86,1.86,1.74,1.81,10.29,10.30,10.30
50.96,8.40,-1.84,8.41,-1.84,1.84,1.72,1.78,10.25,10.26,10.25
51.47,8.37,-1.83,8.38,-1.83,1.83,1.69,1.76,10.21,10.21,10.21
51.99,8.34,-1.81,8.34,-1.82,1.82,1.67,1.74,10.17,10.16,10.16
52.51,8.31,-1.80,8.31,-1.81,1.81,1.65,1.71,10.12,10.12,10.12
53.03,8.28,-1.80,8.27,-1.80,1.80,1.63,1.69,10.08,10.07,10.09
53.56,8.24,-1.79,8.24,-1.78,1.78,1.61,1.67,10.03,10.02,10.04
54.10,8.21,-1.76,8.21,-1.77,1.77,1.59,1.65,9.98,9.98,9.98
54.64,8.17,-1.76,8.18,-1.76,1.76,1.56,1.63,9.93,9.93,9.94
55.18,8.14,-1.73,8.15,-1.74,1.74,1.54,1.61,9.89,9.89,9.87
55.74,8.09,-1.74,8.12,-1.73,1.73,1.52,1.60,9.82,9.85,9.84
56.29,8.07,-1.72,8.09,-1.71,1.71,1.51,1.58,9.79,9.80,9.79
56.86,8.04,-1.71,8.06,-1.70,1.70,1.49,1.56,9.74,9.76,9.76
57.42,8.02,-1.67,8.03,-1.68,1.68,1.47,1.55,9.70,9.71,9.69
58.00,8.00,-1.65,8.00,-1.66,1.66,1.45,1.53,9.67,9.66,9.66
58.58,7.98,-1.64,7.97,-1.64,1.64,1.43,1.51,9.62,9.61,9.63
59.16,7.95,-1.63,7.94,-1.62,1.62,1.42,1.50,9.57,9.56,9.58
59.76,7.93,-1.61,7.91,-1.60,1.60,1.40,1.48,9.53,9.51,9.55
60.35,7.90,-1.57,7.88,-1.58,1.58,1.39,1.46,9.48,9.46,9.47
60.96,7.87,-1.55,7.85,-1.55,1.55,1.37,1.44,9.43,9.41,9.43
61.57,7.82,-1.52,7.82,-1.53,1.53,1.35,1.43,9.36,9.35,9.35
62.18,7.77,-1.51,7.79,-1.51,1.51,1.34,1.41,9.28,9.29,9.28
62.80,7.73,-1.49,7.75,-1.48,1.48,1.33,1.39,9.22,9.24,9.22
63.43,7.70,-1.45,7.72,-1.46,1.46,1.31,1.37,9.16,9.18,9.15
64.07,7.67,-1.43,7.68,-1.44,1.44,1.30,1.36,9.11,9.12,9.11
64.71,7.64,-1.41,7.65,-1.41,1.41,1.29,1.34,9.06,9.06,9.06
65.35,7.60,-1.40,7.62,-1.39,1.39,1.28,1.32,8.99,9.00,9.00
66.01,7.58,-1.36,7.58,-1.37,1.37,1.27,1.30,8.95,8.95,8.95
66.67,7.55,-1.35,7.55,-1.34,1.34,1.25,1.28,8.90,8.89,8.91
67.33,7.51,-1.32,7.52,-1.32,1.32,1.24,1.26,8.83,8.84,8.83
68.01,7.49,-1.29,7.49,-1.30,1.30,1.23,1.24,8.79,8.78,8.79
68.69,7.46,-1.26,7.45,-1.27,1.27,1.23,1.22,8.74,8.73,8.73
69.37,7.42,-1.25,7.42,-1.25,1.25,1.22,1.20,8.67,8.67,8.67
70.07,7.39,-1.23,7.39,-1.23,1.23,1.21,1.18,8.62,8.61,8.63
70.77,7.35,-1.21,7.35,-1.21,1.21,1.20,1.16,8.56,8.56,8.57
71.48,7.32,-1.18,7.31,-1.18,1.18,1.19,1.14,8.51,8.50,8.51
72.19,7.27,-1.16,7.28,-1.16,1.16,1.19,1.12,8.44,8.44,8.44
72.91,7.24,-1.14,7.24,-1.14,1.14,1.18,1.10,8.38,8.38,8.38
73.64,7.20,-1.11,7.20,-1.12,1.12,1.18,1.08,8.32,8.33,8.31
74.38,7.15,-1.10,7.17,-1.10,1.10,1.17,1.06,8.26,8.27,8.26
75.12,7.12,-1.08,7.13,-1.08,1.08,1.17,1.05,8.21,8.21,8.20
75.87,7.08,-1.08,7.09,-1.07,1.07,1.16,1.03,8.15,8.16,8.16
76.63,7.05,-1.05,7.06,-1.05,1.05,1.16,1.01,8.10,8.10,8.10
77.40,7.02,-1.02,7.02,-1.03,1.03,1.15,0.99,8.05,8.05,8.05
78.17,6.98,-1.00,6.98,-1.01,1.01,1.15,0.98,8.00,8.00,7.98
78.95,6.94,-1.01,6.95,-1.00,1.00,1.15,0.96,7.94,7.94,7.95
79.74,6.91,-0.98,6.91,-0.98,0.98,1.14,0.94,7.89,7.89,7.89
80.54,6.86,-0.97,6.88,-0.97,0.97,1.14,0.93,7.83,7.84,7.84
81.35,6.83,-0.96,6.84,-0.95,0.95,1.14,0.91,7.79,7.79,7.80
82.16,6.79,-0.95,6.80,-0.94,0.94,1.13,0.90,7.73,7.74,7.75
82.98,6.75,-0.93,6.76,-0.93,0.93,1.13,0.89,7.68,7.69,7.68
83.81,6.72,-0.91,6.71,-0.92,0.92,1.13,0.88,7.64,7.63,7.63
84.65,6.67,-0.90,6.67,-0.91,0.91,1.12,0.86,7.59,7.58,7.58
85.50,6.62,-0.90,6.62,-0.91,0.91,1.12,0.85,7.53,7.53,7.53
86.35,6.58,-0.89,6.57,-0.91,0.91,1.12,0.84,7.49,7.48,7.48
87.22,6.52,-0.90,6.51,-0.91,0.91,1.11,0.83,7.44,7.42,7.43
88.09,6.46,-0.90,6.45,-0.92,0.92,1.11,0.82,7.38,7.37,7.37
88.97,6.39,-0.92,6.39,-0.92,0.92,1.10,0.82,7.32,7.31,7.32
89.86,6.33,-0.92,6.33,-0.93,0.93,1.10,0.81,7.26,7.26,7.26
90.76,6.26,-0.93,6.26,-0.94,0.94,1.09,0.80,7.20,7.20,7.20
91.66,6.19,-0.95,6.19,-0.95,0.95,1.08,0.79,7.14,7.14,7.14
92.58,6.12,-0.96,6.12,-0.96,0.96,1.07,0.79,7.08,7.08,7.09
93.51,6.05,-0.97,6.05,-0.96,0.96,1.06,0.78,7.02,7.02,7.03
94.44,5.98,-0.98,5.98,-0.97,0.97,1.05,0.78,6.95,6.95,6.96
95.39,5.91,-0.98,5.92,-0.97,0.97,1.04,0.77,6.88,6.89,6.90
96.34,5.85,-0.97,5.85,-0.97,0.97,1.02,0.77,6.82,6.82,6.83
97.30,5.78,-0.98,5.79,-0.96,0.96,1.01,0.77,6.74,6.75,6.76
98.28,5.72,-0.95,5.74,-0.95,0.95,0.99,0.76,6.68,6.69,6.68
99.26,5.65,-0.95,5.68,-0.94,0.94,0.97,0.76,6.59,6.62,6.61
100.25,5.62,-0.92,5.63,-0.92,0.92,0.95,0.76,6.55,6.56,6.55
101.25,5.57,-0.91,5.59,-0.91,0.91,0.93,0.76,6.48,6.49,6.48
102.27,5.54,-0.88,5.54,-0.89,0.89,0.91,0.75,6.43,6.43,6.43
103.29,5.50,-0.85,5.50,-0.86,0.86,0.88,0.75,6.37,6.36,6.36
104.32,5.47,-0.83,5.46,-0.84,0.84,0.86,0.75,6.31,6.30,6.30
105.37,5.43,-0.81,5.43,-0.81,0.81,0.83,0.75,6.25,6.24,6.25
106.42,5.40,-0.78,5.40,-0.79,0.79,0.80,0.74,6.19,6.18,6.19
107.48,5.36,-0.75,5.37,-0.76,0.76,0.77,0.74,6.12,6.12,6.11
108.56,5.33,-0.73,5.33,-0.73,0.73,0.74,0.74,6.06,6.06,6.07
109.64,5.30,-0.71,5.30,-0.70,0.70,0.71,0.73,6.00,6.01,6.01
110.74,5.26,-0.68,5.27,-0.67,0.67,0.68,0.73,5.93,5.94,5.95
111.85,5.24,-0.64,5.24,-0.64,0.64,0.64,0.72,5.88,5.88,5.89
112.97,5.21,-0.61,5.21,-0.61,0.61,0.61,0.71,5.82,5.82,5.83
114.10,5.18,-0.58,5.18,-0.58,0.58,0.57,0.71,5.76,5.75,5.77
115.24,5.14,-0.55,5.14,-0.55,0.55,0.54,0.70,5.69,5.69,5.70
116.39,5.11,-0.50,5.11,-0.52,0.52,0.50,0.69,5.63,5.62,5.62
117.55,5.07,-0.48,5.07,-0.48,0.48,0.46,0.67,5.56,5.55,5.55
118.73,5.03,-0.44,5.03,-0.45,0.45,0.43,0.66,5.49,5.48,5.48
119.92,4.99,-0.41,4.99,-0.42,0.42,0.39,0.64,5.41,5.41,5.41
121.12,4.95,-0.39,4.95,-0.39,0.39,0.35,0.63,5.34,5.34,5.35
122.33,4.91,-0.35,4.91,-0.35,0.35,0.31,0.61,5.27,5.27,5.27
123.55,4.87,-0.33,4.87,-0.32,0.32,0.27,0.59,5.20,5.19,5.21
124.79,4.83,-0.30,4.83,-0.29,0.29,0.23,0.56,5.13,5.12,5.14
126.03,4.78,-0.28,4.79,-0.26,0.26,0.19,0.54,5.05,5.05,5.06
127.29,4.74,-0.23,4.74,-0.23,0.23,0.15,0.51,4.98,4.98,4.97
128.57,4.70,-0.20,4.70,-0.21,0.21,0.11,0.48,4.91,4.90,4.91
129.85,4.66,-0.16,4.66,-0.18,0.18,0.07,0.45,4.84,4.83,4.83
131.15,4.62,-0.13,4.62,-0.15,0.15,0.03,0.42,4.77,4.77,4.76
132.46,4.57,-0.11,4.58,-0.12,0.12,-0.01,0.39,4.69,4.70,4.69
133.79,4.53,-0.09,4.55,-0.09,0.09,-0.05,0.35,4.62,4.63,4.63
135.12,4.50,-0.05,4.51,-0.06,0.06,-0.09,0.31,4.56,4.57,4.55
136.48,4.46,-0.05,4.48,-0.03,0.03,-0.13,0.27,4.49,4.51,4.52
137.84,4.43,-0.02,4.45,-0.00,0.00,-0.17,0.23,4.44,4.45,4.46
139.22,4.41,0.03,4.42,0.03,-0.03,-0.21,0.19,4.39,4.39,4.39
140.61,4.38,0.04,4.39,0.05,-0.05,-0.25,0.14,4.33,4.34,4.35
142.02,4.38,0.09,4.37,0.08,-0.08,-0.29,0.10,4.31,4.29,4.30
143.44,4.36,0.13,4.34,0.10,-0.10,-0.33,0.05,4.26,4.24,4.24
144.87,4.34,0.15,4.32,0.13,-0.13,-0.36,-0.00,4.21,4.19,4.20
146.32,4.31,0.17,4.31,0.16,-0.16,-0.40,-0.05,4.15,4.15,4.15
147.78,4.29,0.20,4.29,0.19,-0.19,-0.44,-0.10,4.10,4.10,4.10
149.26,4.26,0.21,4.27,0.22,-0.22,-0.48,-0.16,4.04,4.05,4.06
150.75,4.24,0.25,4.26,0.26,-0.26,-0.52,-0.21,3.99,4.00,4.00
152.26,4.24,0.28,4.25,0.29,-0.29,-0.56,-0.26,3.95,3.95,3.97
153.78,4.22,0.32,4.24,0.33,-0.33,-0.60,-0.32,3.90,3.91,3.91
155.32,4.22,0.36,4.23,0.37,-0.37,-0.64,-0.38,3.86,3.86,3.87
156.88,4.21,0.40,4.22,0.41,-0.41,-0.68,-0.43,3.81,3.81,3.82
158.44,4.21,0.45,4.21,0.45,-0.45,-0.72,-0.49,3.76,3.76,3.76
160.03,4.21,0.50,4.20,0.50,-0.50,-0.75,-0.55,3.72,3.71,3.72
161.63,4.20,0.54,4.20,0.54,-0.54,-0.79,-0.61,3.66,3.66,3.67
163.24,4.20,0.61,4.20,0.59,-0.59,-0.83,-0.67,3.61,3.61,3.59
164.88,4.21,0.66,4.20,0.65,-0.65,-0.87,-0.74,3.57,3.55,3.56
166.53,4.21,0.72,4.20,0.70,-0.70,-0.91,-0.80,3.51,3.50,3.50
168.19,4.20,0.75,4.21,0.76,-0.76,-0.95,-0.86,3.44,3.45,3.46
169.87,4.21,0.81,4.22,0.82,-0.82,-0.99,-0.93,3.39,3.40,3.40
171.57,4.22,0.89,4.23,0.88,-0.88,-1.03,-0.99,3.34,3.35,3.34
173.29,4.23,0.95,4.24,0.95,-0.95,-1.07,-1.06,3.29,3.29,3.29
175.02,4.24,1.00,4.26,1.01,-1.01,-1.11,-1.13,3.23,3.24,3.25
176.77,4.26,1.07,4.28,1.08,-1.08,-1.15,-1.19,3.18,3.19,3.20
178.54,4.28,1.14,4.30,1.15,-1.15,-1.19,-1.26,3.13,3.14,3.15
180.32,4.32,1.24,4.32,1.23,-1.23,-1.23,-1.33,3.10,3.09,3.09
182.13,4.34,1.30,4.34,1.30,-1.30,-1.27,-1.40,3.04,3.04,3.05
183.95,4.37,1.37,4.37,1.38,-1.38,-1.31,-1.47,3.00,2.99,3.01
185.79,4.41,1.47,4.40,1.45,-1.45,-1.35,-1.55,2.96,2.94,2.95
187.65,4.44,1.54,4.42,1.53,-1.53,-1.39,-1.62,2.92,2.90,2.91
189.52,4.45,1.60,4.45,1.60,-1.60,-1.44,-1.69,2.85,2.85,2.86
191.42,4.48,1.68,4.48,1.68,-1.68,-1.48,-1.77,2.81,2.80,2.81
193.33,4.51,1.76,4.51,1.75,-1.75,-1.52,-1.85,2.76,2.76,2.76
195.27,4.53,1.83,4.54,1.82,-1.82,-1.56,-1.92,2.71,2.71,2.71
197.22,4.56,1.91,4.56,1.90,-1.90,-1.61,-2.00,2.67,2.67,2.66
199.19,4.58,1.96,4.59,1.97,-1.97,-1.65,-2.08,2.62,2.63,2.63
201.18,4.61,2.04,4.62,2.04,-2.04,-1.69,-2.15,2.58,2.58,2.58
203.19,4.65,2.11,4.65,2.11,-2.11,-1.74,-2.23,2.54,2.54,2.55
205.23,4.67,2.17,4.68,2.18,-2.18,-1.78,-2.31,2.49,2.50,2.51
207.28,4.71,2.24,4.71,2.25,-2.25,-1.83,-2.39,2.46,2.46,2.48
209.35,4.74,2.31,4.75,2.32,-2.32,-1.87,-2.47,2.42,2.43,2.44
211.44,4.78,2.39,4.78,2.39,-2.39,-1.92,-2.54,2.40,2.39,2.40
213.56,4.81,2.46,4.82,2.46,-2.46,-1.96,-2.62,2.36,2.36,2.36
215.69,4.85,2.53,4.85,2.52,-2.52,-2.01,-2.70,2.33,2.33,2.33
217.85,4.89,2.60,4.89,2.59,-2.59,-2.06,-2.77,2.30,2.29,2.30
220.03,4.92,2.67,4.92,2.66,-2.66,-2.11,-2.84,2.27,2.26,2.26
222.23,4.96,2.73,4.96,2.72,-2.72,-2.15,-2.92,2.24,2.23,2.24
224.45,4.99,2.79,4.99,2.79,-2.79,-2.20,-2.99,2.20,2.21,2.21
226.70,5.02,2.85,5.03,2.85,-2.85,-2.25,-3.06,2.17,2.18,2.18
228.96,5.06,2.91,5.07,2.92,-2.92,-2.30,-3.12,2.14,2.15,2.16
231.25,5.10,2.97,5.11,2.98,-2.98,-2.35,-3.19,2.12,2.12,2.14
233.57,5.13,3.03,5.14,3.04,-3.04,-2.40,-3.25,2.09,2.10,2.11
235.90,5.17,3.10,5.18,3.10,-3.10,-2.45,-3.30,2.08,2.08,2.08
238.26,5.21,3.17,5.21,3.15,-3.15,-2.50,-3.36,2.06,2.06,2.05
240.64,5.24,3.20,5.25,3.21,-3.21,-2.56,-3.41,2.04,2.04,2.05
243.05,5.29,3.27,5.28,3.26,-3.26,-2.61,-3.46,2.04,2.02,2.03
245.48,5.31,3.32,5.31,3.30,-3.30,-2.66,-3.50,2.01,2.00,2.00
247.93,5.34,3.37,5.34,3.35,-3.35,-2.72,-3.54,1.99,1.99,1.98
250.41,5.38,3.41,5.37,3.39,-3.39,-2.77,-3.58,1.99,1.97,1.98
252.92,5.40,3.44,5.39,3.43,-3.43,-2.82,-3.62,1.97,1.96,1.97
255.45,5.42,3.48,5.42,3.48,-3.48,-2.88,-3.65,1.95,1.94,1.95
258.00,5.44,3.51,5.45,3.52,-3.52,-2.94,-3.67,1.93,1.93,1.94
260.58,5.46,3.54,5.47,3.55,-3.55,-2.99,-3.70,1.91,1.92,1.93
263.19,5.48,3.58,5.49,3.59,-3.59,-3.05,-3.72,1.89,1.90,1.91
265.82,5.51,3.62,5.52,3.63,-3.63,-3.11,-3.74,1.88,1.89,1.90
268.48,5.53,3.65,5.55,3.67,-3.67,-3.16,-3.75,1.87,1.88,1.89
271.16,5.56,3.70,5.57,3.71,-3.71,-3.22,-3.76,1.86,1.86,1.87
273.87,5.59,3.74,5.60,3.74,-3.74,-3.28,-3.77,1.85,1.85,1.86
276.61,5.62,3.79,5.62,3.78,-3.78,-3.34,-3.78,1.84,1.84,1.84
279.38,5.65,3.84,5.65,3.82,-3.82,-3.40,-3.79,1.83,1.83,1.82
282.17,5.68,3.88,5.68,3.86,-3.86,-3.46,-3.80,1.82,1.82,1.81
284.99,5.71,3.90,5.71,3.90,-3.90,-3.52,-3.80,1.81,1.81,1.82
287.84,5.74,3.94,5.74,3.94,-3.94,-3.58,-3.81,1.80,1.80,1.81
290.72,5.77,4.00,5.77,3.98,-3.98,-3.65,-3.81,1.79,1.79,1.78
293.63,5.80,4.02,5.80,4.02,-4.02,-3.71,-3.82,1.79,1.78,1.79
296.57,5.82,4.05,5.83,4.06,-4.06,-3.77,-3.83,1.77,1.77,1.78
299.53,5.85,4.09,5.86,4.09,-4.09,-3.83,-3.83,1.76,1.77,1.77
302.53,5.88,4.12,5.89,4.13,-4.13,-3.90,-3.84,1.76,1.76,1.77
305.55,5.91,4.16,5.92,4.16,-4.16,-3.96,-3.85,1.75,1.76,1.76
308.61,5.94,4.19,5.95,4.20,-4.20,-4.02,-3.86,1.75,1.75,1.76
311.69,5.98,4.24,5.98,4.23,-4.23,-4.09,-3.87,1.75,1.75,1.75
314.81,6.01,4.27,6.01,4.27,-4.27,-4.15,-3.89,1.75,1.74,1.75
317.96,6.04,4.31,6.04,4.30,-4.30,-4.22,-3.91,1.74,1.74,1.74
321.14,6.08,4.34,6.08,4.34,-4.34,-4.28,-3.93,1.74,1.74,1.75
324.35,6.11,4.39,6.11,4.38,-4.38,-4.35,-3.95,1.74,1.74,1.73
327.59,6.14,4.40,6.15,4.41,-4.41,-4.41,-3.97,1.73,1.73,1.75
330.87,6.18,4.45,6.19,4.45,-4.45,-4.47,-4.00,1.73,1.73,1.74
334.18,6.22,4.50,6.22,4.49,-4.49,-4.54,-4.03,1.73,1.73,1.73
337.52,6.26,4.53,6.26,4.53,-4.53,-4.60,-4.07,1.73,1.73,1.74
340.90,6.30,4.58,6.30,4.57,-4.57,-4.67,-4.10,1.73,1.73,1.73
344.30,6.34,4.61,6.35,4.61,-4.61,-4.73,-4.14,1.73,1.73,1.74
347.75,6.38,4.64,6.39,4.66,-4.66,-4.79,-4.19,1.73,1.73,1.75
351.23,6.44,4.72,6.44,4.70,-4.70,-4.86,-4.23,1.74,1.74,1.73
354.74,6.48,4.74,6.48,4.75,-4.75,-4.92,-4.28,1.74,1.74,1.75
358.28,6.52,4.79,6.53,4.80,-4.80,-4.98,-4.34,1.73,1.74,1.74
361.87,6.58,4.85,6.58,4.85,-4.85,-5.04,-4.39,1.74,1.74,1.74
365.49,6.63,4.90,6.63,4.90,-4.90,-5.10,-4.45,1.74,1.74,1.74
369.14,6.68,4.94,6.69,4.95,-4.95,-5.16,-4.52,1.74,1.74,1.75
372.83,6.74,5.00,6.74,5.00,-5.00,-5.22,-4.58,1.74,1.74,1.75
376.56,6.79,5.06,6.80,5.06,-5.06,-5.28,-4.65,1.74,1.74,1.74
380.33,6.85,5.12,6.85,5.11,-5.11,-5.33,-4.73,1.74,1.74,1.74
384.13,6.90,5.17,6.91,5.17,-5.17,-5.39,-4.80,1.73,1.74,1.74
387.97,6.96,5.22,6.97,5.23,-5.23,-5.44,-4.88,1.74,1.74,1.75
391.85,7.01,5.28,7.03,5.29,-5.29,-5.49,-4.96,1.73,1.74,1.74
395.77,7.08,5.35,7.08,5.34,-5.34,-5.54,-5.04,1.74,1.74,1.74
399.73,7.14,5.41,7.14,5.40,-5.40,-5.59,-5.13,1.74,1.74,1.74
403.72,7.19,5.45,7.20,5.46,-5.46,-5.63,-5.21,1.74,1.74,1.75
407.76,7.25,5.51,7.25,5.51,-5.51,-5.68,-5.30,1.74,1.74,1.75
411.84,7.31,5.57,7.31,5.57,-5.57,-5.72,-5.39,1.75,1.74,1.75
415.96,7.36,5.62,7.36,5.62,-5.62,-5.76,-5.48,1.75,1.74,1.75
420.12,7.40,5.67,7.41,5.67,-5.67,-5.79,-5.57,1.74,1.74,1.74
424.32,7.45,5.72,7.45,5.71,-5.71,-5.82,-5.66,1.74,1.74,1.74
428.56,7.49,5.75,7.50,5.76,-5.76,-5.85,-5.75,1.74,1.74,1.75
432.85,7.54,5.80,7.53,5.80,-5.80,-5.88,-5.83,1.75,1.74,1.75
437.18,7.56,5.83,7.57,5.83,-5.83,-5.90,-5.91,1.73,1.74,1.74
441.55,7.60,5.87,7.60,5.86,-5.86,-5.92,-5.99,1.74,1.73,1.74
445.96,7.62,5.90,7.62,5.89,-5.89,-5.93,-6.07,1.73,1.73,1.73
450.42,7.64,5.92,7.65,5.91,-5.91,-5.94,-6.14,1.73,1.73,1.73
454.93,7.66,5.94,7.66,5.93,-5.93,-5.95,-6.20,1.73,1.73,1.73
459.48,7.67,5.95,7.67,5.94,-5.94,-5.95,-6.26,1.73,1.73,1.73
464.07,7.67,5.94,7.68,5.95,-5.95,-5.95,-6.31,1.73,1.73,1.74
468.71,7.68,5.95,7.68,5.95,-5.95,-5.94,-6.35,1.74,1.73,1.74
473.40,7.67,5.94,7.67,5.94,-5.94,-5.93,-6.38,1.73,1.73,1.74
478.13,7.66,5.93,7.66,5.93,-5.93,-5.91,-6.40,1.74,1.73,1.74
482.91,7.64,5.91,7.64,5.91,-5.91,-5.89,-6.41,1.74,1.73,1.74
487.74,7.62,5.89,7.62,5.88,-5.88,-5.87,-6.41,1.74,1.74,1.74
492.62,7.58,5.85,7.59,5.85,-5.85,-5.84,-6.40,1.73,1.74,1.74
497.55,7.55,5.82,7.55,5.81,-5.81,-5.80,-6.37,1.74,1.74,1.74
502.52,7.51,5.78,7.51,5.77,-5.77,-5.76,-6.33,1.74,1.74,1.74
507.55,7.46,5.72,7.46,5.72,-5.72,-5.71,-6.28,1.75,1.75,1.75
512.62,7.41,5.67,7.41,5.66,-5.66,-5.66,-6.22,1.75,1.75,1.75
517.75,7.35,5.59,7.35,5.60,-5.60,-5.60,-6.15,1.75,1.75,1.77
522.93,7.28,5.52,7.29,5.53,-5.53,-5.54,-6.06,1.75,1.76,1.77
528.16,7.23,5.47,7.22,5.45,-5.45,-5.47,-5.96,1.78,1.77,1.77
533.44,7.15,5.39,7.15,5.38,-5.38,-5.39,-5.85,1.78,1.77,1.77
538.77,7.08,5.31,7.07,5.29,-5.29,-5.32,-5.73,1.79,1.78,1.78
