frequency,raw,error,smoothed,error_smoothed,equalization,parametric_eq,fixed_band_eq,equalized_raw,equalized_smoothed,target
20.00,-18.83,-18.86,-18.82,-18.88,18.88,18.61,5.90,0.05,0.05,0.03
20.20,-18.62,-18.74,-18.61,-18.75,18.75,18.69,6.04,0.13,0.13,0.12
20.40,-18.40,-18.60,-18.40,-18.61,18.61,18.75,6.18,0.21,0.21,0.20
20.61,-18.19,-18.46,-18.19,-18.47,18.47,18.79,6.32,0.28,0.28,0.27
20.81,-17.97,-18.33,-17.98,-18.33,18.33,18.81,6.47,0.35,0.35,0.36
21.02,-17.77,-18.21,-17.77,-18.18,18.18,18.80,6.62,0.41,0.41,0.44
21.23,-17.55,-18.05,-17.55,-18.03,18.03,18.77,6.77,0.48,0.48,0.50
21.44,-17.33,-17.89,-17.33,-17.87,17.87,18.71,6.93,0.54,0.54,0.56
21.66,-17.12,-17.73,-17.12,-17.71,17.71,18.63,7.09,0.59,0.60,0.61
21.87,-16.89,-17.55,-16.90,-17.55,17.55,18.53,7.26,0.66,0.65,0.66
22.09,-16.68,-17.39,-16.68,-17.38,17.38,18.40,7.43,0.70,0.71,0.71
22.31,-16.45,-17.21,-16.45,-17.21,17.21,18.26,7.61,0.76,0.76,0.76
22.54,-16.24,-17.04,-16.23,-17.03,17.03,18.10,7.79,0.79,0.80,0.80
22.76,-16.00,-16.84,-16.01,-16.85,16.85,17.92,7.98,0.85,0.84,0.84
22.99,-15.79,-16.66,-15.78,-16.67,16.67,17.72,8.17,0.88,0.88,0.87
23.22,-15.56,-16.47,-15.56,-16.48,16.48,17.51,8.37,0.92,0.92,0.91
23.45,-15.32,-16.27,-15.33,-16.29,16.29,17.29,8.57,0.96,0.96,0.95
23.69,-15.10,-16.09,-15.10,-16.09,16.09,17.06,8.78,0.99,0.99,0.99
23.92,-14.86,-15.89,-14.87,-15.90,15.90,16.82,8.99,1.04,1.03,1.03
24.16,-14.63,-15.71,-14.64,-15.70,15.70,16.58,9.21,1.07,1.07,1.08
24.40,-14.40,-15.51,-14.41,-15.51,15.51,16.33,9.43,1.10,1.10,1.11
24.65,-14.18,-15.31,-14.17,-15.31,15.31,16.07,9.66,1.13,1.13,1.13
24.89,-13.94,-15.10,-13.94,-15.11,15.11,15.81,9.90,1.17,1.17,1.16
25.14,-13.70,-14.90,-13.70,-14.90,14.90,15.55,10.14,1.20,1.20,1.20
25.39,-13.46,-14.69,-13.47,-14.70,14.70,15.28,10.38,1.24,1.23,1.23
25.65,-13.24,-14.51,-13.23,-14.50,14.50,15.02,10.63,1.26,1.27,1.27
25.91,-13.00,-14.29,-12.99,-14.29,14.29,14.75,10.89,1.29,1.30,1.29
26.16,-12.75,-14.07,-12.75,-14.08,14.08,14.48,11.15,1.33,1.33,1.32
26.43,-12.51,-13.87,-12.51,-13.87,13.87,14.22,11.41,1.36,1.36,1.36
26.69,-12.27,-13.66,-12.27,-13.66,13.66,13.95,11.68,1.39,1.39,1.39
26.96,-12.03,-13.45,-12.02,-13.44,13.44,13.69,11.95,1.41,1.42,1.42
27.23,-11.78,-13.23,-11.78,-13.23,13.23,13.42,12.22,1.45,1.45,1.45
27.50,-11.54,-13.02,-11.53,-13.01,13.01,13.16,12.49,1.47,1.48,1.48
27.77,-11.28,-12.78,-11.29,-12.80,12.80,12.90,12.76,1.51,1.51,1.50
28.05,-11.03,-12.57,-11.04,-12.58,12.58,12.64,13.02,1.54,1.54,1.54
28.33,-10.78,-12.34,-10.79,-12.36,12.36,12.38,13.27,1.57,1.57,1.56
28.62,-10.54,-12.13,-10.54,-12.14,12.14,12.13,13.52,1.60,1.60,1.59
28.90,-10.29,-11.92,-10.29,-11.92,11.92,11.87,13.75,1.62,1.63,1.63
29.19,-10.04,-11.69,-10.04,-11.69,11.69,11.62,13.96,1.66,1.66,1.65
29.48,-9.78,-11.48,-9.78,-11.47,11.47,11.37,14.14,1.68,1.68,1.70
29.78,-9.53,-11.24,-9.53,-11.24,11.24,11.12,14.30,1.71,1.71,1.71
30.08,-9.28,-11.02,-9.27,-11.01,11.01,10.87,14.43,1.73,1.74,1.74
30.38,-9.02,-10.79,-9.01,-10.78,10.78,10.63,14.52,1.76,1.77,1.77
30.68,-8.76,-10.56,-8.76,-10.55,10.55,10.38,14.57,1.79,1.79,1.80
30.99,-8.50,-10.32,-8.50,-10.32,10.32,10.14,14.58,1.82,1.82,1.82
31.30,-8.24,-10.08,-8.24,-10.08,10.08,9.90,14.54,1.84,1.85,1.84
31.61,-7.98,-9.85,-7.97,-9.84,9.84,9.66,14.46,1.87,1.87,1.87
31.93,-7.71,-9.60,-7.71,-9.60,9.60,9.42,14.34,1.89,1.89,1.89
32.24,-7.44,-9.35,-7.45,-9.36,9.36,9.18,14.17,1.92,1.92,1.91
32.57,-7.18,-9.12,-7.18,-9.12,9.12,8.94,13.97,1.94,1.94,1.94
32.89,-6.91,-8.87,-6.92,-8.88,8.88,8.71,13.73,1.96,1.96,1.96
33.22,-6.65,-8.64,-6.66,-8.63,8.63,8.47,13.46,1.98,1.98,1.98
33.55,-6.39,-8.39,-6.39,-8.39,8.39,8.24,13.17,2.00,2.00,2.00
33.89,-6.14,-8.15,-6.13,-8.14,8.14,8.00,12.86,2.01,2.01,2.01
34.23,-5.87,-7.90,-5.87,-7.89,7.89,7.77,12.53,2.03,2.03,2.03
34.57,-5.61,-7.65,-5.61,-7.64,7.64,7.54,12.19,2.04,2.04,2.04
34.92,-5.34,-7.39,-5.34,-7.39,7.39,7.31,11.84,2.05,2.05,2.05
35.27,-5.08,-7.15,-5.08,-7.14,7.14,7.08,11.48,2.06,2.06,2.07
35.62,-4.83,-6.89,-4.82,-6.89,6.89,6.85,11.12,2.06,2.07,2.06
35.97,-4.56,-6.63,-4.56,-6.64,6.64,6.62,10.76,2.07,2.07,2.07
36.33,-4.30,-6.39,-4.30,-6.38,6.38,6.39,10.39,2.08,2.08,2.09
36.70,-4.05,-6.13,-4.04,-6.12,6.12,6.16,10.03,2.07,2.08,2.08
37.06,-3.78,-5.86,-3.78,-5.87,5.87,5.93,9.67,2.08,2.08,2.08
37.43,-3.52,-5.60,-3.53,-5.61,5.61,5.70,9.31,2.09,2.08,2.08
37.81,-3.27,-5.35,-3.27,-5.35,5.35,5.47,8.95,2.09,2.08,2.08
38.19,-3.02,-5.10,-3.02,-5.10,5.10,5.24,8.60,2.08,2.08,2.08
38.57,-2.77,-4.85,-2.76,-4.84,4.84,5.01,8.25,2.07,2.08,2.08
38.95,-2.51,-4.59,-2.51,-4.59,4.59,4.78,7.90,2.07,2.07,2.08
39.34,-2.26,-4.32,-2.27,-4.33,4.33,4.55,7.55,2.07,2.07,2.06
39.74,-2.02,-4.08,-2.02,-4.08,4.08,4.32,7.21,2.06,2.06,2.06
40.14,-1.78,-3.83,-1.78,-3.83,3.83,4.09,6.88,2.05,2.06,2.05
40.54,-1.54,-3.59,-1.54,-3.59,3.59,3.86,6.55,2.05,2.05,2.05
40.94,-1.30,-3.34,-1.30,-3.34,3.34,3.63,6.22,2.05,2.04,2.04
41.35,-1.07,-3.11,-1.07,-3.10,3.10,3.40,5.89,2.04,2.04,2.04
41.76,-0.83,-2.86,-0.84,-2.86,2.86,3.17,5.57,2.03,2.03,2.03
42.18,-0.60,-2.62,-0.61,-2.63,2.63,2.94,5.25,2.02,2.02,2.02
42.60,-0.38,-2.39,-0.39,-2.39,2.39,2.71,4.93,2.01,2.01,2.01
43.03,-0.16,-2.17,-0.16,-2.16,2.16,2.48,4.61,2.01,2.00,2.01
43.46,0.05,-1.95,0.05,-1.94,1.94,2.24,4.30,1.99,1.99,2.00
43.90,0.26,-1.72,0.27,-1.71,1.71,2.01,3.99,1.97,1.98,1.98
44.33,0.47,-1.49,0.47,-1.49,1.49,1.78,3.68,1.96,1.97,1.96
44.78,0.67,-1.28,0.68,-1.28,1.28,1.56,3.37,1.95,1.96,1.95
45.23,0.87,-1.07,0.88,-1.07,1.07,1.33,3.07,1.94,1.95,1.94
45.68,1.08,-0.85,1.08,-0.86,0.86,1.10,2.76,1.94,1.94,1.93
46.13,1.29,-0.63,1.27,-0.65,0.65,0.87,2.46,1.94,1.93,1.92
46.60,1.47,-0.45,1.46,-0.45,0.45,0.65,2.16,1.92,1.92,1.92
47.06,1.65,-0.26,1.65,-0.26,0.26,0.42,1.86,1.91,1.91,1.91
47.53,1.83,-0.07,1.83,-0.07,0.07,0.20,1.56,1.90,1.90,1.90
48.01,2.01,0.11,2.01,0.12,-0.12,-0.02,1.26,1.89,1.89,1.90
48.49,2.18,0.29,2.19,0.30,-0.30,-0.24,0.96,1.88,1.88,1.89
48.97,2.35,0.47,2.36,0.48,-0.48,-0.45,0.67,1.87,1.88,1.88
49.46,2.52,0.66,2.53,0.65,-0.65,-0.67,0.37,1.87,1.87,1.86
49.96,2.69,0.84,2.69,0.82,-0.82,-0.87,0.08,1.87,1.87,1.85
50.46,2.84,0.98,2.85,0.99,-0.99,-1.08,-0.21,1.86,1.86,1.86
50.96,3.00,1.14,3.01,1.15,-1.15,-1.28,-0.50,1.86,1.86,1.86
51.47,3.15,1.30,3.16,1.30,-1.30,-1.47,-0.79,1.85,1.86,1.85
51.99,3.31,1.46,3.31,1.46,-1.46,-1.66,-1.08,1.85,1.85,1.85
52.51,3.45,1.60,3.46,1.61,-1.61,-1.84,-1.36,1.84,1.85,1.85
53.03,3.60,1.75,3.61,1.76,-1.76,-2.02,-1.64,1.84,1.84,1.85
53.56,3.74,1.89,3.75,1.91,-1.91,-2.19,-1.91,1.84,1.84,1.85
54.10,3.87,2.03,3.88,2.05,-2.05,-2.35,-2.18,1.82,1.83,1.84
54.64,4.01,2.18,4.01,2.19,-2.19,-2.50,-2.44,1.82,1.83,1.83
55.18,4.14,2.32,4.14,2.32,-2.32,-2.65,-2.70,1.82,1.82,1.82
55.74,4.26,2.46,4.26,2.46,-2.46,-2.78,-2.95,1.81,1.81,1.80
56.29,4.38,2.58,4.38,2.58,-2.58,-2.91,-3.19,1.80,1.80,1.80
56.86,4.50,2.72,4.49,2.71,-2.71,-3.03,-3.42,1.79,1.78,1.78
57.42,4.60,2.84,4.60,2.83,-2.83,-3.13,-3.64,1.78,1.77,1.76
58.00,4.70,2.95,4.70,2.95,-2.95,-3.23,-3.85,1.76,1.75,1.75
58.58,4.78,3.05,4.79,3.06,-3.06,-3.31,-4.04,1.73,1.73,1.73
59.16,4.86,3.14,4.87,3.16,-3.16,-3.39,-4.22,1.70,1.71,1.72
59.76,4.94,3.24,4.95,3.26,-3.26,-3.45,-4.38,1.68,1.69,1.70
60.35,5.01,3.34,5.02,3.36,-3.36,-3.51,-4.53,1.66,1.66,1.67
60.96,5.08,3.42,5.08,3.44,-3.44,-3.55,-4.66,1.64,1.64,1.66
61.57,5.13,3.52,5.14,3.52,-3.52,-3.58,-4.78,1.61,1.62,1.61
62.18,5.18,3.60,5.18,3.59,-3.59,-3.61,-4.87,1.59,1.59,1.58
62.80,5.22,3.65,5.22,3.65,-3.65,-3.62,-4.95,1.57,1.57,1.57
63.43,5.25,3.72,5.25,3.70,-3.70,-3.63,-5.00,1.55,1.55,1.53
64.07,5.27,3.76,5.27,3.75,-3.75,-3.63,-5.04,1.53,1.53,1.51
64.71,5.28,3.78,5.28,3.78,-3.78,-3.62,-5.06,1.51,1.51,1.50
65.35,5.29,3.81,5.29,3.80,-3.80,-3.60,-5.07,1.50,1.49,1.48
66.01,5.29,3.82,5.28,3.81,-3.81,-3.57,-5.06,1.49,1.47,1.47
66.67,5.27,3.81,5.27,3.81,-3.81,-3.54,-5.03,1.47,1.46,1.46
67.33,5.25,3.80,5.25,3.80,-3.80,-3.51,-4.99,1.46,1.45,1.45
68.01,5.22,3.78,5.22,3.78,-3.78,-3.47,-4.94,1.45,1.44,1.44
68.69,5.17,3.74,5.18,3.75,-3.75,-3.42,-4.88,1.43,1.43,1.43
69.37,5.12,3.69,5.13,3.71,-3.71,-3.37,-4.81,1.42,1.43,1.43
70.07,5.07,3.65,5.08,3.66,-3.66,-3.32,-4.72,1.41,1.42,1.42
70.77,5.01,3.59,5.02,3.61,-3.61,-3.26,-4.63,1.40,1.41,1.42
71.48,4.95,3.54,4.95,3.55,-3.55,-3.20,-4.54,1.40,1.40,1.41
72.19,4.88,3.49,4.88,3.49,-3.49,-3.14,-4.44,1.39,1.39,1.39
72.91,4.81,3.42,4.80,3.42,-3.42,-3.08,-4.33,1.39,1.38,1.39
73.64,4.72,3.35,4.71,3.34,-3.34,-3.01,-4.22,1.38,1.37,1.37
74.38,4.63,3.27,4.62,3.27,-3.27,-2.95,-4.11,1.37,1.35,1.36
75.12,4.53,3.19,4.53,3.19,-3.19,-2.88,-3.99,1.35,1.34,1.34
75.87,4.43,3.10,4.43,3.10,-3.10,-2.81,-3.88,1.33,1.33,1.33
76.63,4.32,3.00,4.33,3.01,-3.01,-2.75,-3.76,1.31,1.32,1.32
77.40,4.21,2.91,4.22,2.92,-2.92,-2.68,-3.65,1.29,1.30,1.30
78.17,4.10,2.82,4.12,2.83,-2.83,-2.61,-3.53,1.28,1.29,1.28
78.95,4.00,2.72,4.01,2.73,-2.73,-2.54,-3.42,1.28,1.28,1.28
79.74,3.89,2.62,3.90,2.63,-2.63,-2.48,-3.30,1.27,1.27,1.27
80.54,3.78,2.52,3.79,2.52,-2.52,-2.41,-3.19,1.26,1.26,1.26
81.35,3.67,2.42,3.67,2.42,-2.42,-2.34,-3.08,1.26,1.26,1.25
82.16,3.57,2.33,3.56,2.31,-2.31,-2.28,-2.97,1.26,1.25,1.24
82.98,3.45,2.20,3.45,2.20,-2.20,-2.22,-2.86,1.25,1.25,1.25
83.81,3.34,2.10,3.34,2.10,-2.10,-2.15,-2.75,1.25,1.25,1.24
84.65,3.23,2.00,3.24,1.99,-1.99,-2.09,-2.65,1.24,1.24,1.23
85.50,3.12,1.88,3.13,1.89,-1.89,-2.03,-2.55,1.23,1.24,1.24
86.35,3.02,1.78,3.03,1.79,-1.79,-1.97,-2.44,1.23,1.24,1.24
87.22,2.91,1.68,2.92,1.69,-1.69,-1.91,-2.35,1.22,1.23,1.23
88.09,2.81,1.58,2.82,1.60,-1.60,-1.85,-2.25,1.22,1.22,1.23
88.97,2.71,1.49,2.73,1.51,-1.51,-1.80,-2.16,1.20,1.21,1.22
89.86,2.62,1.41,2.63,1.43,-1.43,-1.74,-2.06,1.20,1.20,1.21
90.76,2.53,1.34,2.54,1.35,-1.35,-1.69,-1.98,1.18,1.19,1.19
91.66,2.44,1.27,2.45,1.28,-1.28,-1.64,-1.89,1.16,1.17,1.17
92.58,2.36,1.22,2.36,1.22,-1.22,-1.59,-1.80,1.15,1.14,1.14
93.51,2.27,1.15,2.27,1.16,-1.16,-1.54,-1.72,1.12,1.11,1.12
94.44,2.18,1.09,2.18,1.10,-1.10,-1.49,-1.64,1.08,1.08,1.09
95.39,2.10,1.05,2.10,1.06,-1.06,-1.44,-1.56,1.05,1.04,1.05
96.34,2.02,1.01,2.01,1.02,-1.02,-1.40,-1.48,1.01,1.00,1.01
97.30,1.93,0.98,1.93,0.98,-0.98,-1.35,-1.40,0.95,0.95,0.95
98.28,1.85,0.95,1.85,0.95,-0.95,-1.31,-1.33,0.90,0.90,0.90
99.26,1.76,0.91,1.77,0.93,-0.93,-1.27,-1.26,0.84,0.85,0.85
100.25,1.67,0.88,1.69,0.90,-0.90,-1.22,-1.19,0.77,0.79,0.79
101.25,1.59,0.86,1.61,0.87,-0.87,-1.18,-1.12,0.72,0.73,0.73
102.27,1.51,0.84,1.53,0.85,-0.85,-1.15,-1.06,0.66,0.68,0.67
103.29,1.46,0.85,1.44,0.83,-0.83,-1.11,-0.99,0.64,0.62,0.61
104.32,1.39,0.83,1.36,0.80,-0.80,-1.07,-0.93,0.59,0.56,0.56
105.37,1.29,0.80,1.27,0.78,-0.78,-1.04,-0.87,0.52,0.50,0.49
106.42,1.21,0.78,1.19,0.75,-0.75,-1.00,-0.81,0.46,0.44,0.43
107.48,1.12,0.74,1.11,0.73,-0.73,-0.97,-0.76,0.39,0.38,0.38
108.56,1.02,0.70,1.03,0.71,-0.71,-0.94,-0.70,0.32,0.32,0.32
109.64,0.93,0.67,0.95,0.68,-0.68,-0.91,-0.65,0.25,0.26,0.26
110.74,0.85,0.64,0.87,0.66,-0.66,-0.88,-0.60,0.19,0.21,0.21
111.85,0.77,0.60,0.79,0.63,-0.63,-0.85,-0.55,0.14,0.16,0.17
112.97,0.70,0.60,0.72,0.61,-0.61,-0.82,-0.50,0.09,0.11,0.10
114.10,0.62,0.56,0.64,0.58,-0.58,-0.79,-0.46,0.04,0.06,0.06
115.24,0.56,0.55,0.57,0.56,-0.56,-0.77,-0.42,0.00,0.01,0.01
116.39,0.52,0.56,0.51,0.54,-0.54,-0.74,-0.38,-0.01,-0.03,-0.04
117.55,0.47,0.55,0.45,0.52,-0.52,-0.72,-0.34,-0.05,-0.07,-0.08
118.73,0.39,0.51,0.39,0.50,-0.50,-0.69,-0.31,-0.11,-0.11,-0.12
119.92,0.32,0.47,0.34,0.49,-0.49,-0.67,-0.27,-0.16,-0.14,-0.15
121.12,0.26,0.44,0.29,0.47,-0.47,-0.65,-0.24,-0.21,-0.18,-0.18
122.33,0.24,0.45,0.25,0.46,-0.46,-0.62,-0.22,-0.21,-0.21,-0.21
123.55,0.21,0.45,0.20,0.45,-0.45,-0.60,-0.19,-0.23,-0.24,-0.24
124.79,0.16,0.43,0.16,0.43,-0.43,-0.58,-0.17,-0.27,-0.27,-0.27
126.03,0.11,0.40,0.12,0.42,-0.42,-0.56,-0.15,-0.30,-0.30,-0.29
127.29,0.08,0.40,0.08,0.41,-0.41,-0.54,-0.13,-0.32,-0.33,-0.32
128.57,0.04,0.40,0.04,0.39,-0.39,-0.53,-0.11,-0.35,-0.36,-0.36
129.85,0.00,0.38,-0.00,0.38,-0.38,-0.51,-0.10,-0.38,-0.38,-0.38
131.15,-0.05,0.36,-0.04,0.37,-0.37,-0.49,-0.09,-0.41,-0.41,-0.41
132.46,-0.08,0.37,-0.09,0.36,-0.36,-0.47,-0.08,-0.43,-0.44,-0.45
133.79,-0.12,0.35,-0.13,0.34,-0.34,-0.46,-0.07,-0.46,-0.47,-0.47
135.12,-0.17,0.33,-0.18,0.33,-0.33,-0.44,-0.06,-0.49,-0.50,-0.50
136.48,-0.21,0.32,-0.22,0.31,-0.31,-0.43,-0.06,-0.52,-0.53,-0.53
137.84,-0.26,0.30,-0.26,0.30,-0.30,-0.41,-0.05,-0.56,-0.57,-0.56
139.22,-0.30,0.31,-0.31,0.29,-0.29,-0.40,-0.05,-0.59,-0.60,-0.61
140.61,-0.35,0.29,-0.35,0.29,-0.29,-0.39,-0.05,-0.63,-0.63,-0.64
142.02,-0.43,0.23,-0.39,0.28,-0.28,-0.37,-0.06,-0.70,-0.67,-0.66
143.44,-0.46,0.24,-0.43,0.27,-0.27,-0.36,-0.06,-0.73,-0.70,-0.70
144.87,-0.50,0.24,-0.47,0.27,-0.27,-0.35,-0.06,-0.77,-0.74,-0.74
146.32,-0.52,0.26,-0.50,0.27,-0.27,-0.34,-0.07,-0.79,-0.77,-0.78
147.78,-0.54,0.27,-0.54,0.27,-0.27,-0.32,-0.08,-0.81,-0.81,-0.81
149.26,-0.55,0.29,-0.57,0.28,-0.28,-0.31,-0.08,-0.82,-0.85,-0.84
150.75,-0.59,0.30,-0.60,0.29,-0.29,-0.30,-0.09,-0.87,-0.89,-0.89
152.26,-0.63,0.30,-0.63,0.29,-0.29,-0.29,-0.10,-0.92,-0.93,-0.93
153.78,-0.66,0.30,-0.66,0.31,-0.31,-0.28,-0.11,-0.96,-0.97,-0.96
155.32,-0.70,0.31,-0.69,0.32,-0.32,-0.27,-0.12,-1.01,-1.01,-1.01
156.88,-0.73,0.31,-0.72,0.33,-0.33,-0.26,-0.14,-1.06,-1.05,-1.04
158.44,-0.74,0.36,-0.75,0.35,-0.35,-0.25,-0.15,-1.09,-1.10,-1.10
160.03,-0.78,0.36,-0.78,0.36,-0.36,-0.25,-0.16,-1.14,-1.14,-1.14
161.63,-0.80,0.39,-0.80,0.38,-0.38,-0.24,-0.17,-1.18,-1.18,-1.19
163.24,-0.83,0.40,-0.83,0.40,-0.40,-0.23,-0.19,-1.22,-1.23,-1.23
164.88,-0.88,0.39,-0.85,0.42,-0.42,-0.22,-0.20,-1.29,-1.27,-1.27
166.53,-0.90,0.41,-0.87,0.44,-0.44,-0.21,-0.22,-1.33,-1.31,-1.31
168.19,-0.91,0.44,-0.89,0.46,-0.46,-0.21,-0.23,-1.36,-1.35,-1.35
169.87,-0.93,0.46,-0.91,0.48,-0.48,-0.20,-0.25,-1.40,-1.39,-1.39
171.57,-0.94,0.48,-0.93,0.50,-0.50,-0.19,-0.26,-1.43,-1.43,-1.42
173.29,-0.95,0.51,-0.95,0.51,-0.51,-0.19,-0.28,-1.46,-1.46,-1.46
175.02,-0.96,0.54,-0.97,0.53,-0.53,-0.18,-0.29,-1.48,-1.50,-1.50
176.77,-0.98,0.55,-0.99,0.53,-0.53,-0.17,-0.31,-1.51,-1.53,-1.53
178.54,-1.00,0.56,-1.01,0.54,-0.54,-0.17,-0.33,-1.54,-1.55,-1.56
180.32,-1.01,0.58,-1.04,0.54,-0.54,-0.16,-0.34,-1.55,-1.58,-1.59
182.13,-1.04,0.57,-1.06,0.54,-0.54,-0.16,-0.36,-1.58,-1.61,-1.61
183.95,-1.09,0.54,-1.09,0.54,-0.54,-0.15,-0.38,-1.62,-1.63,-1.63
185.79,-1.12,0.53,-1.12,0.53,-0.53,-0.15,-0.40,-1.65,-1.65,-1.65
187.65,-1.15,0.52,-1.15,0.52,-0.52,-0.14,-0.41,-1.67,-1.67,-1.67
189.52,-1.18,0.50,-1.17,0.51,-0.51,-0.14,-0.43,-1.69,-1.68,-1.68
191.42,-1.21,0.49,-1.20,0.50,-0.50,-0.13,-0.45,-1.71,-1.70,-1.70
193.33,-1.23,0.48,-1.22,0.50,-0.50,-0.13,-0.47,-1.72,-1.71,-1.71
195.27,-1.26,0.46,-1.23,0.49,-0.49,-0.12,-0.49,-1.75,-1.73,-1.72
197.22,-1.28,0.46,-1.25,0.49,-0.49,-0.12,-0.50,-1.77,-1.74,-1.74
199.19,-1.29,0.47,-1.26,0.50,-0.50,-0.11,-0.52,-1.78,-1.75,-1.76
201.18,-1.29,0.48,-1.26,0.50,-0.50,-0.11,-0.54,-1.79,-1.76,-1.77
203.19,-1.28,0.49,-1.26,0.51,-0.51,-0.11,-0.56,-1.79,-1.78,-1.77
205.23,-1.27,0.52,-1.26,0.53,-0.53,-0.10,-0.58,-1.79,-1.79,-1.79
207.28,-1.26,0.53,-1.26,0.54,-0.54,-0.10,-0.59,-1.79,-1.80,-1.79
209.35,-1.25,0.56,-1.26,0.55,-0.55,-0.09,-0.61,-1.79,-1.81,-1.81
211.44,-1.24,0.59,-1.27,0.56,-0.56,-0.09,-0.63,-1.79,-1.82,-1.83
213.56,-1.25,0.59,-1.27,0.56,-0.56,-0.09,-0.64,-1.81,-1.84,-1.84
215.69,-1.26,0.58,-1.28,0.57,-0.57,-0.08,-0.66,-1.82,-1.85,-1.84
217.85,-1.28,0.58,-1.29,0.57,-0.57,-0.08,-0.67,-1.84,-1.86,-1.86
220.03,-1.29,0.58,-1.31,0.56,-0.56,-0.08,-0.69,-1.85,-1.87,-1.87
222.23,-1.32,0.57,-1.33,0.56,-0.56,-0.07,-0.70,-1.87,-1.88,-1.89
224.45,-1.35,0.54,-1.35,0.54,-0.54,-0.07,-0.71,-1.89,-1.90,-1.89
226.70,-1.39,0.52,-1.38,0.53,-0.53,-0.07,-0.72,-1.92,-1.91,-1.91
228.96,-1.42,0.50,-1.41,0.51,-0.51,-0.07,-0.73,-1.93,-1.93,-1.92
231.25,-1.45,0.48,-1.45,0.50,-0.50,-0.06,-0.74,-1.94,-1.94,-1.93
233.57,-1.48,0.47,-1.48,0.48,-0.48,-0.06,-0.75,-1.95,-1.96,-1.95
235.90,-1.52,0.44,-1.51,0.46,-0.46,-0.06,-0.75,-1.97,-1.97,-1.96
238.26,-1.54,0.44,-1.54,0.44,-0.44,-0.06,-0.76,-1.98,-1.98,-1.98
240.64,-1.57,0.43,-1.56,0.43,-0.43,-0.05,-0.76,-2.00,-1.99,-2.00
243.05,-1.59,0.42,-1.58,0.42,-0.42,-0.05,-0.76,-2.01,-2.01,-2.01
245.48,-1.61,0.41,-1.60,0.42,-0.42,-0.05,-0.76,-2.02,-2.01,-2.02
247.93,-1.63,0.40,-1.61,0.41,-0.41,-0.05,-0.76,-2.04,-2.02,-2.03
250.41,-1.64,0.40,-1.61,0.42,-0.42,-0.04,-0.75,-2.05,-2.03,-2.04
252.92,-1.63,0.40,-1.61,0.42,-0.42,-0.04,-0.75,-2.05,-2.03,-2.03
255.45,-1.61,0.42,-1.60,0.43,-0.43,-0.04,-0.74,-2.03,-2.03,-2.03
258.00,-1.60,0.42,-1.59,0.44,-0.44,-0.04,-0.73,-2.03,-2.02,-2.02
260.58,-1.57,0.45,-1.57,0.45,-0.45,-0.03,-0.71,-2.01,-2.01,-2.02
263.19,-1.55,0.46,-1.54,0.46,-0.46,-0.03,-0.70,-2.01,-2.01,-2.01
265.82,-1.51,0.49,-1.51,0.48,-0.48,-0.03,-0.69,-1.99,-1.99,-2.00
268.48,-1.49,0.49,-1.48,0.50,-0.50,-0.03,-0.67,-1.99,-1.98,-1.98
271.16,-1.46,0.50,-1.44,0.52,-0.52,-0.02,-0.65,-1.98,-1.97,-1.96
273.87,-1.41,0.54,-1.41,0.55,-0.55,-0.02,-0.63,-1.95,-1.95,-1.95
276.61,-1.38,0.54,-1.37,0.57,-0.57,-0.02,-0.61,-1.94,-1.94,-1.92
279.38,-1.36,0.56,-1.34,0.58,-0.58,-0.02,-0.58,-1.94,-1.92,-1.92
282.17,-1.32,0.58,-1.31,0.59,-0.59,-0.02,-0.56,-1.91,-1.91,-1.90
284.99,-1.29,0.60,-1.29,0.60,-0.60,-0.01,-0.54,-1.88,-1.89,-1.89
287.84,-1.25,0.62,-1.28,0.59,-0.59,-0.01,-0.51,-1.84,-1.87,-1.87
290.72,-1.23,0.62,-1.27,0.58,-0.58,-0.01,-0.48,-1.81,-1.85,-1.85
293.63,-1.23,0.61,-1.27,0.57,-0.57,-0.01,-0.45,-1.79,-1.83,-1.84
296.57,-1.24,0.57,-1.27,0.54,-0.54,-0.00,-0.43,-1.78,-1.81,-1.81
299.53,-1.27,0.53,-1.28,0.51,-0.51,-0.00,-0.40,-1.78,-1.80,-1.80
302.53,-1.30,0.49,-1.30,0.48,-0.48,0.00,-0.37,-1.77,-1.78,-1.79
305.55,-1.33,0.43,-1.32,0.43,-0.43,0.00,-0.33,-1.76,-1.75,-1.76
308.61,-1.37,0.37,-1.35,0.38,-0.38,0.01,-0.30,-1.75,-1.73,-1.74
311.69,-1.40,0.31,-1.38,0.33,-0.33,0.01,-0.27,-1.72,-1.71,-1.71
314.81,-1.43,0.24,-1.42,0.27,-0.27,0.01,-0.24,-1.70,-1.69,-1.67
317.96,-1.46,0.20,-1.45,0.22,-0.22,0.01,-0.21,-1.67,-1.67,-1.66
321.14,-1.49,0.15,-1.48,0.16,-0.16,0.02,-0.17,-1.65,-1.64,-1.64
324.35,-1.52,0.10,-1.51,0.11,-0.11,0.02,-0.14,-1.62,-1.62,-1.62
327.59,-1.56,0.04,-1.54,0.06,-0.06,0.02,-0.11,-1.62,-1.60,-1.60
330.87,-1.57,0.01,-1.56,0.02,-0.02,0.03,-0.07,-1.58,-1.57,-1.58
334.18,-1.59,-0.04,-1.57,-0.02,0.02,0.03,-0.04,-1.56,-1.55,-1.55
337.52,-1.61,-0.08,-1.58,-0.06,0.06,0.03,-0.01,-1.55,-1.53,-1.53
340.90,-1.62,-0.11,-1.59,-0.09,0.09,0.04,0.03,-1.53,-1.50,-1.51
344.30,-1.61,-0.13,-1.60,-0.12,0.12,0.04,0.06,-1.49,-1.48,-1.48
347.75,-1.60,-0.14,-1.60,-0.14,0.14,0.04,0.10,-1.45,-1.46,-1.46
351.23,-1.59,-0.16,-1.60,-0.17,0.17,0.05,0.13,-1.42,-1.43,-1.43
354.74,-1.59,-0.19,-1.60,-0.19,0.19,0.05,0.17,-1.39,-1.41,-1.40
358.28,-1.59,-0.20,-1.60,-0.21,0.21,0.05,0.20,-1.37,-1.38,-1.39
361.87,-1.59,-0.23,-1.60,-0.24,0.24,0.06,0.24,-1.35,-1.36,-1.36
365.49,-1.59,-0.26,-1.59,-0.26,0.26,0.06,0.27,-1.33,-1.33,-1.33
369.14,-1.59,-0.27,-1.59,-0.28,0.28,0.07,0.31,-1.31,-1.31,-1.32
372.83,-1.59,-0.30,-1.59,-0.30,0.30,0.07,0.34,-1.29,-1.29,-1.29
376.56,-1.59,-0.32,-1.58,-0.32,0.32,0.08,0.38,-1.27,-1.27,-1.27
380.33,-1.59,-0.35,-1.58,-0.34,0.34,0.08,0.42,-1.25,-1.25,-1.24
384.13,-1.59,-0.36,-1.58,-0.36,0.36,0.09,0.45,-1.23,-1.23,-1.23
387.97,-1.59,-0.38,-1.59,-0.38,0.38,0.10,0.49,-1.21,-1.21,-1.21
391.85,-1.59,-0.39,-1.59,-0.39,0.39,0.10,0.52,-1.20,-1.20,-1.20
395.77,-1.59,-0.42,-1.59,-0.40,0.40,0.11,0.56,-1.18,-1.18,-1.17
399.73,-1.59,-0.43,-1.59,-0.42,0.42,0.12,0.59,-1.17,-1.17,-1.16
403.72,-1.59,-0.43,-1.59,-0.42,0.42,0.12,0.63,-1.16,-1.16,-1.16
407.76,-1.59,-0.44,-1.59,-0.43,0.43,0.13,0.66,-1.16,-1.16,-1.15
411.84,-1.59,-0.45,-1.59,-0.44,0.44,0.14,0.70,-1.15,-1.15,-1.14
415.96,-1.59,-0.44,-1.59,-0.44,0.44,0.15,0.73,-1.15,-1.15,-1.15
420.12,-1.59,-0.44,-1.59,-0.44,0.44,0.16,0.76,-1.15,-1.15,-1.15
424.32,-1.59,-0.44,-1.59,-0.44,0.44,0.17,0.79,-1.15,-1.15,-1.15
428.56,-1.59,-0.44,-1.59,-0.43,0.43,0.18,0.83,-1.15,-1.15,-1.15
432.85,-1.59,-0.43,-1.58,-0.43,0.43,0.19,0.86,-1.16,-1.15,-1.16
437.18,-1.59,-0.43,-1.58,-0.42,0.42,0.20,0.88,-1.16,-1.16,-1.16
441.55,-1.59,-0.43,-1.58,-0.42,0.42,0.22,0.91,-1.17,-1.16,-1.16
445.96,-1.59,-0.42,-1.58,-0.41,0.41,0.23,0.94,-1.18,-1.16,-1.17
450.42,-1.59,-0.42,-1.57,-0.41,0.41,0.24,0.96,-1.18,-1.17,-1.17
454.93,-1.59,-0.42,-1.57,-0.40,0.40,0.26,0.98,-1.18,-1.17,-1.17
459.48,-1.58,-0.40,-1.57,-0.40,0.40,0.28,1.00,-1.18,-1.17,-1.18
464.07,-1.57,-0.40,-1.58,-0.40,0.40,0.29,1.02,-1.16,-1.17,-1.17
