frequency,raw,error,smoothed,error_smoothed,equalization,parametric_eq,fixed_band_eq,equalized_raw,equalized_smoothed,target
20.00,-16.11,-17.66,-16.11,-17.66,17.65,16.87,5.79,1.54,1.54,1.54
20.20,-15.98,-17.62,-15.98,-17.61,17.61,16.82,5.93,1.63,1.63,1.63
20.40,-15.84,-17.56,-15.85,-17.56,17.56,16.77,6.08,1.72,1.72,1.71
20.61,-15.72,-17.50,-15.71,-17.51,17.51,16.72,6.23,1.80,1.80,1.78
20.81,-15.58,-17.46,-15.58,-17.45,17.45,16.67,6.38,1.87,1.87,1.87
21.02,-15.45,-17.41,-15.45,-17.40,17.39,16.62,6.54,1.94,1.94,1.95
21.23,-15.31,-17.33,-15.32,-17.33,17.33,16.57,6.70,2.01,2.01,2.01
21.44,-15.18,-17.26,-15.18,-17.26,17.25,16.51,6.87,2.07,2.07,2.07
21.66,-15.05,-17.18,-15.05,-17.18,17.18,16.46,7.04,2.12,2.13,2.12
21.87,-14.92,-17.10,-14.92,-17.10,17.10,16.40,7.21,2.18,2.18,2.17
22.09,-14.78,-17.01,-14.79,-17.01,17.01,16.35,7.39,2.23,2.22,2.22
22.31,-14.65,-16.93,-14.65,-16.92,16.92,16.29,7.58,2.27,2.27,2.27
22.54,-14.52,-16.83,-14.51,-16.83,16.82,16.23,7.76,2.31,2.31,2.31
22.76,-14.37,-16.73,-14.38,-16.73,16.73,16.17,7.96,2.36,2.35,2.35
22.99,-14.24,-16.63,-14.24,-16.63,16.63,16.11,8.16,2.39,2.39,2.38
23.22,-14.10,-16.53,-14.11,-16.53,16.54,16.05,8.37,2.43,2.43,2.42
23.45,-13.97,-16.44,-13.97,-16.43,16.44,15.99,8.58,2.47,2.47,2.46
23.69,-13.84,-16.34,-13.83,-16.34,16.34,15.93,8.79,2.50,2.51,2.50
23.92,-13.69,-16.24,-13.70,-16.25,16.24,15.87,9.01,2.55,2.54,2.54
24.16,-13.56,-16.16,-13.56,-16.15,16.14,15.80,9.24,2.58,2.58,2.59
24.40,-13.42,-16.04,-13.42,-16.04,16.04,15.74,9.47,2.62,2.62,2.62
24.65,-13.28,-15.93,-13.29,-15.94,15.94,15.67,9.71,2.65,2.65,2.64
24.89,-13.15,-15.83,-13.15,-15.83,15.83,15.61,9.95,2.68,2.68,2.67
25.14,-13.01,-15.73,-13.01,-15.72,15.73,15.54,10.20,2.72,2.72,2.71
25.39,-12.88,-15.62,-12.88,-15.63,15.63,15.47,10.45,2.74,2.75,2.74
25.65,-12.74,-15.53,-12.74,-15.52,15.52,15.40,10.71,2.78,2.78,2.78
25.91,-12.62,-15.42,-12.61,-15.42,15.42,15.33,10.97,2.80,2.81,2.80
26.16,-12.47,-15.31,-12.48,-15.32,15.31,15.26,11.24,2.84,2.84,2.83
26.43,-12.35,-15.22,-12.34,-15.21,15.21,15.19,11.50,2.86,2.87,2.87
26.69,-12.20,-15.11,-12.20,-15.11,15.11,15.12,11.77,2.90,2.90,2.90
26.96,-12.06,-15.00,-12.07,-15.00,15.00,15.04,12.04,2.94,2.93,2.93
27.23,-11.93,-14.90,-11.93,-14.89,14.89,14.97,12.32,2.96,2.96,2.96
27.50,-11.79,-14.79,-11.80,-14.79,14.79,14.89,12.59,2.99,2.99,2.99
27.77,-11.66,-14.68,-11.66,-14.68,14.68,14.82,12.85,3.02,3.02,3.01
28.05,-11.53,-14.59,-11.53,-14.57,14.58,14.74,13.12,3.05,3.05,3.05
28.33,-11.39,-14.47,-11.40,-14.47,14.47,14.66,13.37,3.08,3.08,3.07
28.62,-11.27,-14.37,-11.26,-14.37,14.37,14.58,13.62,3.11,3.11,3.10
28.90,-11.13,-14.28,-11.13,-14.27,14.27,14.50,13.85,3.13,3.14,3.14
29.19,-10.99,-14.16,-11.00,-14.17,14.16,14.42,14.07,3.17,3.17,3.16
29.48,-10.86,-14.08,-10.86,-14.07,14.06,14.33,14.26,3.20,3.20,3.21
29.78,-10.73,-13.96,-10.73,-13.96,13.96,14.25,14.45,3.23,3.23,3.22
30.08,-10.61,-13.86,-10.60,-13.86,13.86,14.17,14.60,3.26,3.26,3.25
30.38,-10.47,-13.76,-10.48,-13.76,13.76,14.08,14.73,3.29,3.29,3.28
30.68,-10.35,-13.67,-10.35,-13.66,13.66,13.99,14.82,3.31,3.31,3.31
30.99,-10.23,-13.57,-10.23,-13.57,13.57,13.91,14.90,3.33,3.33,3.33
31.30,-10.11,-13.47,-10.11,-13.47,13.47,13.82,14.93,3.36,3.36,3.35
31.61,-9.99,-13.38,-9.99,-13.37,13.37,13.73,14.94,3.38,3.38,3.38
31.93,-9.87,-13.28,-9.87,-13.28,13.28,13.63,14.91,3.40,3.40,3.40
32.24,-9.75,-13.18,-9.75,-13.18,13.18,13.54,14.86,3.43,3.43,3.42
32.57,-9.63,-13.09,-9.63,-13.08,13.08,13.45,14.77,3.45,3.45,3.45
32.89,-9.51,-12.99,-9.51,-12.99,12.98,13.36,14.67,3.47,3.47,3.47
33.22,-9.39,-12.89,-9.39,-12.89,12.88,13.26,14.53,3.49,3.49,3.49
33.55,-9.27,-12.79,-9.27,-12.78,12.78,13.16,14.38,3.51,3.51,3.51
33.89,-9.15,-12.68,-9.15,-12.68,12.68,13.07,14.21,3.53,3.53,3.52
34.23,-9.03,-12.58,-9.04,-12.58,12.58,12.97,14.03,3.55,3.54,3.54
34.57,-8.92,-12.48,-8.92,-12.48,12.48,12.87,13.83,3.56,3.56,3.55
34.92,-8.81,-12.38,-8.81,-12.38,12.37,12.77,13.63,3.56,3.56,3.56
35.27,-8.69,-12.28,-8.70,-12.27,12.27,12.67,13.42,3.57,3.57,3.58
35.62,-8.58,-12.16,-8.58,-12.17,12.16,12.57,13.21,3.58,3.58,3.57
35.97,-8.47,-12.06,-8.47,-12.06,12.06,12.46,13.00,3.59,3.59,3.58
36.33,-8.36,-11.97,-8.36,-11.95,11.95,12.36,12.79,3.59,3.59,3.60
36.70,-8.24,-11.84,-8.25,-11.84,11.84,12.25,12.58,3.60,3.60,3.59
37.06,-8.13,-11.73,-8.14,-11.73,11.74,12.15,12.37,3.60,3.60,3.59
37.43,-8.03,-11.63,-8.03,-11.62,11.63,12.04,12.16,3.60,3.60,3.59
37.81,-7.92,-11.52,-7.93,-11.52,11.52,11.94,11.96,3.60,3.59,3.59
38.19,-7.82,-11.42,-7.82,-11.42,11.41,11.83,11.76,3.59,3.59,3.59
38.57,-7.71,-11.31,-7.71,-11.30,11.30,11.72,11.57,3.59,3.59,3.59
38.95,-7.60,-11.20,-7.61,-11.20,11.19,11.61,11.39,3.59,3.58,3.59
39.34,-7.50,-11.08,-7.50,-11.08,11.08,11.50,11.21,3.58,3.58,3.57
39.74,-7.40,-10.98,-7.40,-10.97,10.97,11.39,11.03,3.57,3.57,3.57
40.14,-7.29,-10.86,-7.30,-10.86,10.86,11.28,10.87,3.57,3.57,3.56
40.54,-7.19,-10.76,-7.19,-10.75,10.76,11.16,10.71,3.56,3.56,3.56
40.94,-7.08,-10.64,-7.09,-10.65,10.65,11.05,10.55,3.56,3.56,3.55
41.35,-6.99,-10.55,-6.99,-10.54,10.54,10.94,10.41,3.55,3.55,3.55
41.76,-6.89,-10.44,-6.89,-10.43,10.43,10.83,10.27,3.54,3.54,3.54
42.18,-6.79,-10.33,-6.79,-10.33,10.33,10.71,10.14,3.53,3.53,3.53
42.60,-6.69,-10.22,-6.69,-10.22,10.22,10.60,10.01,3.53,3.53,3.52
43.03,-6.59,-10.12,-6.60,-10.12,10.11,10.48,9.90,3.52,3.52,3.52
43.46,-6.50,-10.02,-6.50,-10.01,10.00,10.37,9.78,3.50,3.50,3.51
43.90,-6.40,-9.90,-6.41,-9.90,9.90,10.26,9.68,3.49,3.49,3.49
44.33,-6.31,-9.79,-6.31,-9.79,9.79,10.14,9.58,3.48,3.48,3.47
44.78,-6.22,-9.69,-6.22,-9.68,9.69,10.03,9.49,3.46,3.47,3.46
45.23,-6.12,-9.58,-6.13,-9.58,9.59,9.91,9.41,3.46,3.46,3.45
45.68,-6.03,-9.48,-6.04,-9.48,9.49,9.80,9.33,3.45,3.45,3.44
46.13,-5.95,-9.39,-5.95,-9.39,9.39,9.69,9.26,3.44,3.44,3.43
46.60,-5.87,-9.31,-5.87,-9.30,9.30,9.57,9.19,3.43,3.43,3.43
47.06,-5.79,-9.22,-5.79,-9.22,9.21,9.46,9.13,3.42,3.42,3.42
47.53,-5.71,-9.13,-5.71,-9.13,9.12,9.35,9.07,3.41,3.41,3.41
48.01,-5.63,-9.05,-5.64,-9.05,9.04,9.24,9.02,3.41,3.40,3.41
48.49,-5.56,-8.97,-5.56,-8.96,8.96,9.13,8.98,3.39,3.40,3.40
48.97,-5.48,-8.88,-5.49,-8.87,8.87,9.02,8.94,3.39,3.39,3.39
49.46,-5.41,-8.79,-5.41,-8.79,8.80,8.91,8.91,3.38,3.38,3.37
49.96,-5.34,-8.71,-5.34,-8.71,8.72,8.81,8.88,3.38,3.38,3.36
50.46,-5.27,-8.65,-5.28,-8.64,8.65,8.70,8.85,3.38,3.38,3.37
50.96,-5.21,-8.59,-5.21,-8.58,8.59,8.60,8.83,3.37,3.37,3.37
51.47,-5.15,-8.52,-5.16,-8.52,8.52,8.50,8.81,3.37,3.37,3.36
51.99,-5.10,-8.47,-5.10,-8.47,8.46,8.39,8.79,3.36,3.36,3.36
52.51,-5.05,-8.42,-5.05,-8.42,8.41,8.29,8.78,3.36,3.36,3.36
53.03,-5.00,-8.37,-5.00,-8.36,8.36,8.20,8.77,3.36,3.36,3.36
53.56,-4.94,-8.31,-4.95,-8.31,8.31,8.10,8.76,3.37,3.36,3.36
54.10,-4.89,-8.25,-4.90,-8.25,8.26,8.01,8.75,3.36,3.36,3.35
54.64,-4.86,-8.21,-4.86,-8.20,8.21,7.91,8.74,3.34,3.35,3.34
55.18,-4.82,-8.16,-4.83,-8.16,8.16,7.82,8.73,3.33,3.33,3.33
55.74,-4.79,-8.11,-4.79,-8.11,8.10,7.73,8.72,3.31,3.31,3.31
56.29,-4.75,-8.07,-4.75,-8.06,8.05,7.65,8.71,3.30,3.30,3.31
56.86,-4.70,-8.00,-4.71,-8.00,8.00,7.56,8.70,3.30,3.29,3.29
57.42,-4.66,-7.94,-4.67,-7.94,7.95,7.48,8.68,3.28,3.28,3.27
58.00,-4.63,-7.90,-4.62,-7.89,7.89,7.40,8.66,3.26,3.27,3.26
58.58,-4.58,-7.83,-4.59,-7.83,7.84,7.32,8.64,3.25,3.25,3.24
59.16,-4.54,-7.78,-4.55,-7.78,7.78,7.24,8.61,3.23,3.23,3.23
59.76,-4.51,-7.73,-4.51,-7.72,7.72,7.17,8.57,3.20,3.21,3.21
60.35,-4.47,-7.66,-4.47,-7.66,7.65,7.09,8.53,3.18,3.18,3.18
60.96,-4.42,-7.60,-4.43,-7.59,7.58,7.02,8.49,3.16,3.16,3.17
61.57,-4.38,-7.51,-4.38,-7.52,7.52,6.95,8.44,3.13,3.13,3.12
62.18,-4.34,-7.44,-4.34,-7.45,7.44,6.89,8.38,3.10,3.10,3.09
62.80,-4.30,-7.39,-4.30,-7.37,7.37,6.82,8.31,3.07,3.07,3.08
63.43,-4.25,-7.30,-4.25,-7.30,7.30,6.76,8.24,3.05,3.05,3.04
64.07,-4.19,-7.22,-4.20,-7.23,7.23,6.70,8.16,3.04,3.03,3.02
64.71,-4.14,-7.16,-4.14,-7.15,7.16,6.63,8.08,3.02,3.02,3.01
65.35,-4.09,-7.09,-4.09,-7.09,7.09,6.57,7.99,3.00,3.00,2.99
66.01,-4.04,-7.03,-4.04,-7.03,7.02,6.52,7.89,2.98,2.98,2.98
66.67,-3.99,-6.97,-3.99,-6.96,6.95,6.46,7.79,2.96,2.96,2.97
67.33,-3.92,-6.89,-3.92,-6.89,6.88,6.40,7.68,2.96,2.96,2.96
68.01,-3.85,-6.81,-3.85,-6.81,6.81,6.35,7.57,2.96,2.95,2.95
68.69,-3.78,-6.73,-3.78,-6.73,6.74,6.30,7.45,2.95,2.95,2.94
69.37,-3.71,-6.66,-3.71,-6.65,6.66,6.24,7.33,2.95,2.95,2.94
70.07,-3.64,-6.58,-3.64,-6.58,6.58,6.19,7.21,2.94,2.94,2.93
70.77,-3.57,-6.51,-3.58,-6.51,6.50,6.14,7.08,2.93,2.93,2.93
71.48,-3.51,-6.44,-3.51,-6.43,6.42,6.09,6.95,2.91,2.91,2.92
72.19,-3.44,-6.35,-3.44,-6.35,6.34,6.04,6.82,2.90,2.90,2.90
72.91,-3.36,-6.27,-3.36,-6.26,6.26,5.99,6.69,2.90,2.90,2.90
73.64,-3.28,-6.17,-3.29,-6.17,6.18,5.94,6.56,2.90,2.89,2.88
74.38,-3.21,-6.09,-3.22,-6.09,6.09,5.89,6.43,2.88,2.88,2.87
75.12,-3.15,-6.01,-3.15,-6.01,6.01,5.84,6.30,2.86,2.86,2.85
75.87,-3.09,-5.94,-3.09,-5.93,5.92,5.79,6.17,2.83,2.84,2.84
76.63,-3.02,-5.86,-3.02,-5.85,5.84,5.74,6.04,2.82,2.82,2.83
77.40,-2.94,-5.76,-2.95,-5.76,5.76,5.69,5.91,2.82,2.81,2.81
78.17,-2.88,-5.68,-2.88,-5.68,5.69,5.64,5.79,2.80,2.81,2.79
78.95,-2.81,-5.61,-2.82,-5.61,5.61,5.59,5.66,2.80,2.80,2.79
79.74,-2.76,-5.55,-2.76,-5.54,5.55,5.54,5.54,2.78,2.79,2.78
80.54,-2.70,-5.48,-2.70,-5.48,5.48,5.49,5.42,2.78,2.78,2.77
81.35,-2.65,-5.42,-2.65,-5.42,5.42,5.44,5.31,2.77,2.76,2.76
82.16,-2.60,-5.36,-2.60,-5.37,5.36,5.39,5.19,2.76,2.76,2.75
82.98,-2.56,-5.33,-2.56,-5.31,5.31,5.34,5.08,2.75,2.76,2.76
83.81,-2.50,-5.26,-2.51,-5.26,5.26,5.28,4.97,2.76,2.75,2.75
84.65,-2.45,-5.20,-2.46,-5.21,5.21,5.23,4.87,2.76,2.75,2.74
85.50,-2.41,-5.17,-2.41,-5.16,5.16,5.17,4.76,2.75,2.75,2.75
86.35,-2.36,-5.12,-2.36,-5.11,5.11,5.12,4.66,2.75,2.75,2.75
87.22,-2.31,-5.06,-2.31,-5.06,5.06,5.06,4.57,2.75,2.75,2.74
88.09,-2.26,-5.01,-2.26,-5.00,5.01,5.01,4.47,2.75,2.75,2.74
88.97,-2.21,-4.95,-2.22,-4.95,4.96,4.95,4.39,2.74,2.74,2.73
89.86,-2.18,-4.91,-2.18,-4.91,4.91,4.89,4.30,2.72,2.72,2.72
90.76,-2.15,-4.86,-2.15,-4.85,4.85,4.83,4.21,2.70,2.70,2.70
91.66,-2.11,-4.80,-2.11,-4.79,4.79,4.77,4.13,2.68,2.68,2.68
92.58,-2.07,-4.73,-2.07,-4.73,4.73,4.70,4.05,2.66,2.66,2.65
93.51,-2.03,-4.67,-2.04,-4.67,4.67,4.64,3.98,2.63,2.63,2.63
94.44,-2.00,-4.61,-2.00,-4.60,4.59,4.58,3.91,2.59,2.59,2.60
95.39,-1.96,-4.53,-1.96,-4.53,4.52,4.51,3.83,2.55,2.55,2.56
96.34,-1.92,-4.45,-1.92,-4.44,4.44,4.45,3.77,2.51,2.51,2.52
97.30,-1.88,-4.35,-1.88,-4.35,4.35,4.38,3.70,2.47,2.47,2.46
98.28,-1.84,-4.26,-1.85,-4.26,4.27,4.31,3.64,2.43,2.43,2.41
99.26,-1.81,-4.18,-1.82,-4.18,4.19,4.24,3.58,2.37,2.37,2.36
100.25,-1.79,-4.10,-1.79,-4.10,4.10,4.17,3.52,2.31,2.31,2.30
101.25,-1.77,-4.02,-1.77,-4.01,4.02,4.10,3.47,2.24,2.25,2.24
102.27,-1.74,-3.93,-1.75,-3.93,3.93,4.03,3.41,2.19,2.18,2.18
103.29,-1.72,-3.85,-1.73,-3.85,3.84,3.95,3.36,2.12,2.11,2.12
104.32,-1.70,-3.78,-1.70,-3.76,3.75,3.88,3.31,2.04,2.05,2.07
105.37,-1.66,-3.67,-1.66,-3.67,3.65,3.80,3.26,1.99,1.99,2.00
106.42,-1.61,-3.56,-1.61,-3.56,3.56,3.73,3.22,1.95,1.95,1.94
107.48,-1.56,-3.46,-1.57,-3.45,3.47,3.65,3.17,1.91,1.90,1.89
108.56,-1.52,-3.36,-1.52,-3.36,3.38,3.57,3.13,1.85,1.85,1.83
109.64,-1.49,-3.27,-1.50,-3.28,3.29,3.49,3.08,1.79,1.79,1.77
110.74,-1.47,-3.20,-1.47,-3.20,3.20,3.41,3.04,1.73,1.73,1.72
111.85,-1.45,-3.14,-1.45,-3.12,3.12,3.33,3.00,1.66,1.66,1.68
112.97,-1.42,-3.04,-1.42,-3.05,3.03,3.25,2.96,1.61,1.61,1.61
114.10,-1.39,-2.97,-1.39,-2.96,2.95,3.17,2.92,1.56,1.56,1.57
115.24,-1.35,-2.88,-1.36,-2.88,2.87,3.09,2.88,1.52,1.52,1.52
116.39,-1.32,-2.80,-1.32,-2.80,2.80,3.00,2.84,1.48,1.47,1.47
117.55,-1.29,-2.73,-1.28,-2.72,2.73,2.92,2.80,1.43,1.44,1.43
118.73,-1.24,-2.64,-1.25,-2.64,2.66,2.84,2.76,1.41,1.41,1.39
119.92,-1.20,-2.57,-1.21,-2.57,2.59,2.75,2.72,1.39,1.38,1.36
121.12,-1.18,-2.52,-1.19,-2.52,2.53,2.67,2.68,1.35,1.34,1.33
122.33,-1.17,-2.48,-1.17,-2.47,2.47,2.59,2.63,1.30,1.30,1.30
123.55,-1.15,-2.43,-1.15,-2.42,2.41,2.51,2.59,1.26,1.26,1.27
124.79,-1.12,-2.37,-1.12,-2.37,2.35,2.42,2.55,1.23,1.23,1.24
126.03,-1.07,-2.30,-1.08,-2.30,2.29,2.34,2.51,1.22,1.21,1.22
127.29,-1.04,-2.24,-1.04,-2.23,2.23,2.26,2.46,1.18,1.18,1.19
128.57,-1.01,-2.17,-1.00,-2.16,2.16,2.18,2.42,1.15,1.16,1.15
129.85,-0.95,-2.09,-0.96,-2.09,2.09,2.11,2.38,1.14,1.14,1.13
131.15,-0.90,-2.01,-0.92,-2.01,2.03,2.03,2.33,1.12,1.11,1.10
132.46,-0.88,-1.95,-0.88,-1.95,1.96,1.95,2.28,1.08,1.08,1.06
133.79,-0.85,-1.90,-0.85,-1.89,1.89,1.88,2.24,1.04,1.04,1.04
135.12,-0.81,-1.83,-0.82,-1.84,1.83,1.81,2.19,1.02,1.01,1.01
136.48,-0.80,-1.79,-0.79,-1.78,1.77,1.74,2.14,0.96,0.97,0.98
137.84,-0.76,-1.72,-0.77,-1.71,1.71,1.67,2.10,0.94,0.94,0.95
139.22,-0.74,-1.65,-0.74,-1.65,1.65,1.60,2.05,0.91,0.91,0.90
140.61,-0.71,-1.59,-0.71,-1.59,1.60,1.54,2.00,0.88,0.89,0.87
142.02,-0.68,-1.54,-0.69,-1.53,1.55,1.48,1.95,0.86,0.86,0.85
143.44,-0.67,-1.49,-0.68,-1.49,1.50,1.42,1.90,0.83,0.83,0.81
144.87,-0.67,-1.45,-0.67,-1.45,1.46,1.36,1.85,0.78,0.78,0.77
146.32,-0.67,-1.41,-0.67,-1.41,1.41,1.31,1.80,0.74,0.74,0.73
147.78,-0.67,-1.38,-0.67,-1.37,1.37,1.26,1.75,0.70,0.70,0.70
149.26,-0.66,-1.34,-0.66,-1.33,1.32,1.21,1.70,0.66,0.66,0.67
150.75,-0.65,-1.28,-0.65,-1.28,1.27,1.16,1.66,0.62,0.62,0.62
152.26,-0.63,-1.22,-0.63,-1.22,1.21,1.12,1.61,0.58,0.58,0.58
153.78,-0.60,-1.16,-0.60,-1.15,1.14,1.07,1.56,0.54,0.54,0.55
155.32,-0.57,-1.08,-0.57,-1.08,1.07,1.03,1.51,0.49,0.50,0.50
156.88,-0.52,-1.00,-0.53,-0.99,0.99,0.99,1.46,0.46,0.46,0.47
158.44,-0.49,-0.91,-0.49,-0.91,0.91,0.95,1.42,0.41,0.42,0.41
160.03,-0.44,-0.82,-0.45,-0.82,0.83,0.92,1.37,0.38,0.38,0.37
161.63,-0.42,-0.75,-0.42,-0.74,0.75,0.88,1.33,0.33,0.33,0.32
163.24,-0.39,-0.68,-0.39,-0.68,0.69,0.85,1.28,0.29,0.29,0.28
164.88,-0.37,-0.62,-0.38,-0.62,0.63,0.82,1.24,0.25,0.25,0.24
166.53,-0.37,-0.58,-0.37,-0.58,0.58,0.78,1.19,0.21,0.21,0.20
168.19,-0.38,-0.55,-0.38,-0.54,0.55,0.76,1.15,0.17,0.17,0.16
169.87,-0.39,-0.52,-0.39,-0.52,0.53,0.73,1.10,0.14,0.14,0.12
171.57,-0.41,-0.51,-0.42,-0.51,0.52,0.70,1.06,0.10,0.10,0.09
173.29,-0.45,-0.51,-0.46,-0.51,0.51,0.67,1.02,0.06,0.05,0.05
175.02,-0.51,-0.53,-0.50,-0.52,0.51,0.65,0.98,0.00,0.01,0.01
176.77,-0.55,-0.54,-0.55,-0.53,0.52,0.62,0.94,-0.03,-0.03,-0.02
178.54,-0.57,-0.53,-0.58,-0.53,0.53,0.60,0.90,-0.05,-0.05,-0.05
180.32,-0.60,-0.53,-0.61,-0.53,0.53,0.58,0.85,-0.07,-0.07,-0.08
182.13,-0.63,-0.54,-0.63,-0.54,0.54,0.55,0.82,-0.09,-0.09,-0.10
183.95,-0.66,-0.55,-0.66,-0.54,0.54,0.53,0.78,-0.12,-0.12,-0.12
185.79,-0.68,-0.55,-0.68,-0.55,0.54,0.51,0.74,-0.15,-0.15,-0.14
187.65,-0.69,-0.54,-0.69,-0.54,0.53,0.49,0.70,-0.17,-0.16,-0.16
189.52,-0.69,-0.53,-0.69,-0.52,0.52,0.47,0.66,-0.18,-0.18,-0.17
191.42,-0.68,-0.50,-0.69,-0.50,0.50,0.46,0.62,-0.18,-0.18,-0.19
193.33,-0.68,-0.49,-0.68,-0.48,0.49,0.44,0.59,-0.20,-0.19,-0.20
195.27,-0.67,-0.47,-0.68,-0.46,0.47,0.42,0.55,-0.20,-0.21,-0.21
197.22,-0.67,-0.45,-0.67,-0.45,0.45,0.41,0.52,-0.22,-0.22,-0.23
199.19,-0.67,-0.43,-0.67,-0.43,0.44,0.39,0.48,-0.24,-0.24,-0.25
201.18,-0.67,-0.42,-0.67,-0.42,0.42,0.38,0.45,-0.25,-0.25,-0.26
203.19,-0.67,-0.42,-0.67,-0.41,0.41,0.36,0.42,-0.26,-0.26,-0.26
205.23,-0.67,-0.40,-0.67,-0.40,0.40,0.35,0.38,-0.28,-0.28,-0.28
207.28,-0.67,-0.40,-0.67,-0.39,0.39,0.34,0.35,-0.29,-0.29,-0.28
209.35,-0.67,-0.38,-0.67,-0.37,0.38,0.33,0.32,-0.30,-0.30,-0.30
211.44,-0.67,-0.36,-0.67,-0.36,0.36,0.32,0.29,-0.31,-0.31,-0.32
213.56,-0.67,-0.35,-0.67,-0.35,0.35,0.31,0.26,-0.32,-0.32,-0.33
215.69,-0.67,-0.35,-0.67,-0.34,0.34,0.30,0.23,-0.33,-0.33,-0.33
217.85,-0.67,-0.33,-0.67,-0.33,0.33,0.29,0.21,-0.35,-0.35,-0.35
220.03,-0.67,-0.32,-0.67,-0.32,0.32,0.28,0.18,-0.36,-0.36,-0.36
222.23,-0.67,-0.30,-0.67,-0.30,0.30,0.28,0.15,-0.37,-0.37,-0.38
224.45,-0.67,-0.30,-0.67,-0.29,0.29,0.27,0.13,-0.38,-0.38,-0.38
226.70,-0.67,-0.28,-0.67,-0.28,0.28,0.27,0.11,-0.39,-0.39,-0.40
228.96,-0.67,-0.27,-0.67,-0.27,0.27,0.26,0.09,-0.41,-0.41,-0.41
231.25,-0.67,-0.26,-0.67,-0.25,0.25,0.26,0.07,-0.42,-0.42,-0.42
233.57,-0.67,-0.24,-0.67,-0.24,0.24,0.25,0.05,-0.44,-0.44,-0.44
235.90,-0.67,-0.23,-0.67,-0.22,0.22,0.25,0.04,-0.45,-0.45,-0.45
238.26,-0.67,-0.21,-0.67,-0.21,0.21,0.25,0.02,-0.47,-0.47,-0.47
240.64,-0.67,-0.19,-0.67,-0.19,0.19,0.25,0.01,-0.48,-0.48,-0.49
243.05,-0.67,-0.18,-0.67,-0.18,0.18,0.25,-0.00,-0.49,-0.49,-0.50
245.48,-0.67,-0.17,-0.67,-0.16,0.17,0.25,-0.01,-0.51,-0.51,-0.51
247.93,-0.67,-0.16,-0.67,-0.16,0.16,0.25,-0.02,-0.51,-0.51,-0.52
250.41,-0.67,-0.15,-0.67,-0.15,0.16,0.26,-0.02,-0.52,-0.52,-0.53
252.92,-0.67,-0.16,-0.67,-0.15,0.15,0.26,-0.02,-0.52,-0.52,-0.52
255.45,-0.67,-0.16,-0.67,-0.16,0.16,0.26,-0.03,-0.52,-0.52,-0.52
258.00,-0.67,-0.17,-0.67,-0.16,0.16,0.27,-0.02,-0.51,-0.51,-0.51
260.58,-0.67,-0.17,-0.67,-0.17,0.17,0.27,-0.02,-0.50,-0.50,-0.51
263.19,-0.67,-0.18,-0.67,-0.18,0.18,0.28,-0.02,-0.49,-0.49,-0.50
265.82,-0.67,-0.19,-0.67,-0.19,0.19,0.29,-0.01,-0.48,-0.48,-0.49
268.48,-0.67,-0.21,-0.67,-0.20,0.21,0.29,-0.00,-0.47,-0.47,-0.47
271.16,-0.67,-0.23,-0.67,-0.22,0.22,0.30,0.01,-0.45,-0.45,-0.45
273.87,-0.67,-0.24,-0.67,-0.24,0.24,0.31,0.02,-0.44,-0.44,-0.44
276.61,-0.67,-0.27,-0.67,-0.26,0.25,0.32,0.03,-0.42,-0.42,-0.41
279.38,-0.67,-0.27,-0.67,-0.27,0.27,0.32,0.05,-0.40,-0.40,-0.41
282.17,-0.67,-0.29,-0.67,-0.29,0.29,0.33,0.06,-0.39,-0.39,-0.39
284.99,-0.67,-0.30,-0.67,-0.30,0.30,0.34,0.08,-0.37,-0.37,-0.38
287.84,-0.67,-0.32,-0.67,-0.32,0.32,0.36,0.10,-0.36,-0.36,-0.36
290.72,-0.67,-0.34,-0.67,-0.33,0.33,0.37,0.11,-0.34,-0.34,-0.34
293.63,-0.67,-0.35,-0.67,-0.35,0.35,0.38,0.14,-0.32,-0.32,-0.33
296.57,-0.67,-0.38,-0.67,-0.37,0.37,0.39,0.16,-0.31,-0.31,-0.30
299.53,-0.67,-0.39,-0.67,-0.39,0.39,0.40,0.18,-0.29,-0.29,-0.29
302.53,-0.67,-0.40,-0.67,-0.40,0.41,0.41,0.20,-0.26,-0.26,-0.28
305.55,-0.67,-0.43,-0.67,-0.42,0.43,0.43,0.23,-0.24,-0.24,-0.25
308.61,-0.67,-0.45,-0.67,-0.45,0.45,0.44,0.25,-0.22,-0.22,-0.23
311.69,-0.67,-0.48,-0.67,-0.48,0.48,0.45,0.28,-0.20,-0.20,-0.20
314.81,-0.67,-0.52,-0.67,-0.51,0.50,0.47,0.30,-0.17,-0.17,-0.16
317.96,-0.67,-0.53,-0.67,-0.53,0.52,0.48,0.33,-0.15,-0.15,-0.15
321.14,-0.67,-0.55,-0.67,-0.55,0.55,0.49,0.35,-0.13,-0.13,-0.13
324.35,-0.67,-0.57,-0.67,-0.56,0.57,0.51,0.38,-0.10,-0.10,-0.11
327.59,-0.67,-0.59,-0.67,-0.59,0.59,0.52,0.41,-0.08,-0.08,-0.09
330.87,-0.67,-0.61,-0.67,-0.61,0.61,0.54,0.44,-0.06,-0.06,-0.07
334.18,-0.67,-0.64,-0.67,-0.63,0.63,0.55,0.47,-0.04,-0.04,-0.04
337.52,-0.67,-0.66,-0.67,-0.66,0.66,0.57,0.50,-0.02,-0.02,-0.02
340.90,-0.67,-0.68,-0.67,-0.68,0.68,0.58,0.53,0.01,0.01,0.00
344.30,-0.67,-0.71,-0.67,-0.70,0.71,0.60,0.56,0.03,0.03,0.03
347.75,-0.67,-0.73,-0.67,-0.73,0.73,0.61,0.59,0.06,0.06,0.05
351.23,-0.67,-0.76,-0.67,-0.76,0.75,0.63,0.62,0.08,0.08,0.08
354.74,-0.67,-0.79,-0.67,-0.78,0.78,0.64,0.65,0.11,0.11,0.11
358.28,-0.67,-0.80,-0.67,-0.81,0.80,0.66,0.69,0.13,0.13,0.12
361.87,-0.67,-0.83,-0.67,-0.83,0.83,0.68,0.72,0.15,0.15,0.15
365.49,-0.67,-0.86,-0.67,-0.85,0.85,0.69,0.75,0.18,0.18,0.18
369.14,-0.67,-0.87,-0.67,-0.87,0.87,0.71,0.79,0.20,0.20,0.19
372.83,-0.67,-0.90,-0.67,-0.90,0.90,0.72,0.82,0.22,0.22,0.22
376.56,-0.67,-0.92,-0.67,-0.92,0.92,0.74,0.86,0.25,0.25,0.24
380.33,-0.67,-0.95,-0.67,-0.94,0.94,0.75,0.89,0.27,0.27,0.27
384.13,-0.67,-0.96,-0.67,-0.96,0.96,0.77,0.93,0.29,0.29,0.28
387.97,-0.67,-0.98,-0.67,-0.98,0.98,0.78,0.96,0.31,0.31,0.30
391.85,-0.67,-0.99,-0.67,-0.99,0.99,0.80,1.00,0.32,0.32,0.31
395.77,-0.67,-1.02,-0.67,-1.01,1.01,0.81,1.03,0.34,0.34,0.34
399.73,-0.67,-1.03,-0.67,-1.02,1.02,0.82,1.07,0.35,0.35,0.35
403.72,-0.67,-1.03,-0.67,-1.03,1.03,0.84,1.10,0.36,0.36,0.35
407.76,-0.67,-1.04,-0.67,-1.04,1.03,0.85,1.14,0.36,0.36,0.36
411.84,-0.67,-1.05,-0.67,-1.04,1.04,0.86,1.17,0.36,0.36,0.37
415.96,-0.67,-1.04,-0.67,-1.04,1.04,0.88,1.21,0.37,0.37,0.36
420.12,-0.67,-1.04,-0.67,-1.04,1.04,0.89,1.24,0.37,0.37,0.36
424.32,-0.67,-1.04,-0.67,-1.03,1.04,0.90,1.28,0.37,0.37,0.36
428.56,-0.67,-1.04,-0.67,-1.03,1.04,0.92,1.31,0.37,0.37,0.36
432.85,-0.67,-1.03,-0.68,-1.03,1.04,0.93,1.34,0.37,0.36,0.35
437.18,-0.68,-1.04,-0.68,-1.04,1.04,0.94,1.37,0.36,0.36,0.35
441.55,-0.69,-1.05,-0.69,-1.04,1.04,0.95,1.40,0.35,0.35,0.35
445.96,-0.69,-1.04,-0.69,-1.04,1.04,0.96,1.43,0.34,0.34,0.34
450.42,-0.69,-1.04,-0.69,-1.03,1.03,0.97,1.45,0.34,0.34,0.34
454.93,-0.68,-1.03,-0.68,-1.02,1.02,0.98,1.48,0.33,0.34,0.34
459.48,-0.66,-1.00,-0.67,-1.01,1.00,0.99,1.50,0.34,0.34,0.33
464.07,-0.64,-0.99,-0.64,-0.98,0.98,1.00,1.52,0.34,0.34,0.34
