frequency,raw,error,smoothed,error_smoothed,equalization,parametric_eq,fixed_band_eq,equalized_raw,equalized_smoothed,target
20.00,-10.19,-15.89,-10.19,-15.91,15.91,14.69,6.76,5.73,5.73,5.71
20.20,-10.11,-15.85,-10.11,-15.87,15.87,14.83,6.91,5.76,5.76,5.74
20.40,-10.03,-15.82,-10.03,-15.82,15.82,14.97,7.07,5.79,5.79,5.78
20.61,-9.96,-15.77,-9.96,-15.77,15.77,15.09,7.24,5.82,5.82,5.81
20.81,-9.88,-15.74,-9.88,-15.73,15.73,15.20,7.41,5.84,5.84,5.85
21.02,-9.81,-15.70,-9.81,-15.67,15.67,15.30,7.58,5.87,5.87,5.89
21.23,-9.74,-15.65,-9.73,-15.62,15.62,15.38,7.76,5.89,5.89,5.91
21.44,-9.65,-15.59,-9.65,-15.57,15.57,15.45,7.94,5.91,5.91,5.93
21.66,-9.58,-15.53,-9.58,-15.51,15.51,15.51,8.12,5.94,5.94,5.95
21.87,-9.49,-15.46,-9.50,-15.45,15.45,15.55,8.32,5.96,5.95,5.96
22.09,-9.42,-15.40,-9.42,-15.40,15.40,15.57,8.51,5.97,5.97,5.98
22.31,-9.34,-15.33,-9.35,-15.34,15.34,15.58,8.72,5.99,5.99,5.99
22.54,-9.28,-15.28,-9.27,-15.27,15.27,15.58,8.92,5.99,6.00,6.00
22.76,-9.19,-15.20,-9.19,-15.20,15.20,15.56,9.14,6.01,6.01,6.01
22.99,-9.12,-15.12,-9.12,-15.13,15.13,15.53,9.35,6.02,6.02,6.01
23.22,-9.05,-15.06,-9.04,-15.07,15.07,15.48,9.58,6.02,6.03,6.02
23.45,-8.96,-14.99,-8.96,-15.00,15.00,15.42,9.81,6.03,6.03,6.03
23.69,-8.89,-14.92,-8.89,-14.93,14.93,15.36,10.05,6.04,6.04,6.04
23.92,-8.80,-14.85,-8.81,-14.86,14.86,15.28,10.29,6.06,6.05,6.04
24.16,-8.73,-14.80,-8.73,-14.80,14.80,15.19,10.54,6.06,6.06,6.06
24.40,-8.65,-14.74,-8.66,-14.73,14.73,15.10,10.80,6.08,6.07,6.08
24.65,-8.59,-14.67,-8.58,-14.66,14.66,14.99,11.06,6.08,6.08,6.08
24.89,-8.50,-14.60,-8.51,-14.60,14.60,14.89,11.33,6.09,6.09,6.09
25.14,-8.43,-14.53,-8.43,-14.53,14.53,14.77,11.60,6.10,6.10,6.10
25.39,-8.35,-14.46,-8.36,-14.47,14.47,14.66,11.89,6.12,6.11,6.11
25.65,-8.29,-14.41,-8.28,-14.41,14.41,14.54,12.17,6.12,6.12,6.13
25.91,-8.22,-14.34,-8.21,-14.34,14.34,14.42,12.47,6.12,6.13,6.13
26.16,-8.13,-14.27,-8.14,-14.28,14.28,14.29,12.77,6.14,6.14,6.14
26.43,-8.07,-14.21,-8.06,-14.21,14.21,14.17,13.07,6.15,6.15,6.14
26.69,-8.00,-14.15,-7.99,-14.15,14.15,14.05,13.38,6.15,6.16,6.15
26.96,-7.92,-14.09,-7.92,-14.08,14.08,13.92,13.69,6.17,6.17,6.17
27.23,-7.85,-14.03,-7.84,-14.02,14.02,13.80,14.01,6.17,6.17,6.18
27.50,-7.77,-13.95,-7.77,-13.95,13.95,13.68,14.32,6.19,6.18,6.19
27.77,-7.69,-13.88,-7.70,-13.89,13.89,13.56,14.63,6.20,6.19,6.19
28.05,-7.62,-13.83,-7.63,-13.83,13.83,13.44,14.94,6.20,6.20,6.21
28.33,-7.55,-13.76,-7.55,-13.76,13.76,13.33,15.25,6.21,6.21,6.20
28.62,-7.49,-13.70,-7.48,-13.70,13.70,13.22,15.54,6.21,6.21,6.21
28.90,-7.41,-13.63,-7.41,-13.64,13.64,13.11,15.82,6.23,6.22,6.22
29.19,-7.35,-13.56,-7.34,-13.57,13.57,13.01,16.08,6.23,6.23,6.22
29.48,-7.27,-13.52,-7.27,-13.51,13.51,12.91,16.32,6.23,6.24,6.25
29.78,-7.21,-13.45,-7.20,-13.44,13.44,12.82,16.54,6.24,6.24,6.25
30.08,-7.14,-13.39,-7.13,-13.38,13.38,12.72,16.72,6.25,6.25,6.25
30.38,-7.07,-13.32,-7.06,-13.32,13.32,12.64,16.87,6.25,6.26,6.25
30.68,-7.00,-13.26,-7.00,-13.26,13.26,12.55,16.99,6.26,6.26,6.27
30.99,-6.93,-13.19,-6.93,-13.20,13.20,12.47,17.06,6.27,6.27,6.27
31.30,-6.87,-13.14,-6.87,-13.14,13.14,12.40,17.09,6.28,6.28,6.27
31.61,-6.81,-13.09,-6.80,-13.08,13.08,12.33,17.07,6.28,6.28,6.28
31.93,-6.74,-13.03,-6.74,-13.03,13.03,12.27,17.02,6.29,6.29,6.29
32.24,-6.67,-12.96,-6.68,-12.97,12.97,12.20,16.92,6.30,6.30,6.29
32.57,-6.62,-12.92,-6.62,-12.92,12.92,12.15,16.79,6.30,6.30,6.30
32.89,-6.55,-12.87,-6.56,-12.87,12.87,12.10,16.63,6.31,6.31,6.31
33.22,-6.50,-12.81,-6.50,-12.82,12.82,12.05,16.44,6.33,6.32,6.32
33.55,-6.44,-12.77,-6.45,-12.77,12.77,12.01,16.23,6.33,6.32,6.32
33.89,-6.40,-12.73,-6.40,-12.73,12.73,11.97,16.00,6.33,6.33,6.33
34.23,-6.35,-12.68,-6.35,-12.68,12.68,11.94,15.76,6.33,6.33,6.34
34.57,-6.30,-12.64,-6.30,-12.63,12.63,11.91,15.51,6.34,6.34,6.34
34.92,-6.25,-12.59,-6.25,-12.59,12.59,11.89,15.25,6.34,6.34,6.34
35.27,-6.21,-12.55,-6.20,-12.55,12.55,11.87,14.99,6.34,6.35,6.35
35.62,-6.16,-12.51,-6.15,-12.50,12.50,11.86,14.72,6.35,6.35,6.35
35.97,-6.10,-12.45,-6.10,-12.46,12.46,11.84,14.46,6.35,6.35,6.35
36.33,-6.06,-12.42,-6.06,-12.41,12.41,11.84,14.19,6.35,6.35,6.35
36.70,-6.02,-12.37,-6.01,-12.37,12.37,11.83,13.94,6.35,6.35,6.35
37.06,-5.96,-12.32,-5.97,-12.32,12.32,11.83,13.68,6.36,6.35,6.36
37.43,-5.92,-12.29,-5.93,-12.28,12.28,11.84,13.44,6.35,6.35,6.36
37.81,-5.88,-12.23,-5.88,-12.23,12.23,11.84,13.19,6.36,6.35,6.36
38.19,-5.84,-12.19,-5.84,-12.19,12.19,11.85,12.96,6.35,6.35,6.35
38.57,-5.80,-12.14,-5.80,-12.14,12.14,11.86,12.73,6.34,6.34,6.35
38.95,-5.74,-12.08,-5.75,-12.09,12.09,11.87,12.51,6.35,6.34,6.34
39.34,-5.71,-12.05,-5.71,-12.05,12.05,11.89,12.30,6.33,6.34,6.33
39.74,-5.68,-12.00,-5.67,-12.00,12.00,11.90,12.10,6.33,6.34,6.33
40.14,-5.63,-11.96,-5.63,-11.96,11.96,11.91,11.90,6.33,6.33,6.33
40.54,-5.59,-11.91,-5.59,-11.91,11.91,11.93,11.71,6.33,6.33,6.33
40.94,-5.55,-11.86,-5.54,-11.87,11.87,11.94,11.53,6.32,6.32,6.32
41.35,-5.50,-11.81,-5.50,-11.82,11.82,11.95,11.35,6.33,6.32,6.31
41.76,-5.45,-11.77,-5.46,-11.77,11.77,11.96,11.19,6.32,6.31,6.31
42.18,-5.42,-11.73,-5.42,-11.72,11.72,11.97,11.03,6.31,6.31,6.32
42.60,-5.36,-11.67,-5.37,-11.67,11.67,11.97,10.88,6.31,6.30,6.31
43.03,-5.33,-11.64,-5.32,-11.62,11.62,11.96,10.73,6.30,6.30,6.31
43.46,-5.28,-11.58,-5.27,-11.57,11.57,11.95,10.60,6.30,6.30,6.30
43.90,-5.23,-11.51,-5.22,-11.52,11.52,11.94,10.47,6.29,6.29,6.28
44.33,-5.17,-11.46,-5.17,-11.46,11.46,11.92,10.34,6.28,6.29,6.28
44.78,-5.13,-11.40,-5.12,-11.40,11.40,11.89,10.23,6.27,6.28,6.28
45.23,-5.07,-11.33,-5.06,-11.34,11.34,11.85,10.12,6.27,6.28,6.27
45.68,-5.01,-11.27,-5.00,-11.27,11.27,11.80,10.01,6.27,6.27,6.27
46.13,-4.94,-11.20,-4.94,-11.20,11.20,11.75,9.92,6.26,6.27,6.26
46.60,-4.88,-11.14,-4.88,-11.13,11.13,11.68,9.83,6.26,6.26,6.26
47.06,-4.81,-11.06,-4.81,-11.06,11.06,11.61,9.74,6.25,6.25,6.25
47.53,-4.74,-10.98,-4.74,-10.98,10.98,11.52,9.66,6.25,6.24,6.24
48.01,-4.67,-10.92,-4.67,-10.90,10.90,11.43,9.59,6.23,6.23,6.25
48.49,-4.60,-10.82,-4.60,-10.82,10.82,11.33,9.52,6.22,6.22,6.23
48.97,-4.51,-10.72,-4.52,-10.73,10.73,11.21,9.45,6.21,6.21,6.20
49.46,-4.45,-10.64,-4.45,-10.64,10.64,11.09,9.39,6.19,6.19,6.19
49.96,-4.38,-10.54,-4.37,-10.54,10.54,10.96,9.34,6.17,6.18,6.17
50.46,-4.30,-10.46,-4.29,-10.45,10.45,10.82,9.29,6.15,6.16,6.16
50.96,-4.22,-10.36,-4.21,-10.35,10.35,10.68,9.24,6.13,6.14,6.15
51.47,-4.13,-10.24,-4.12,-10.25,10.25,10.52,9.20,6.12,6.12,6.11
51.99,-4.04,-10.13,-4.04,-10.14,10.14,10.37,9.15,6.11,6.10,6.10
52.51,-3.95,-10.04,-3.95,-10.04,10.04,10.20,9.12,6.09,6.08,6.09
53.03,-3.87,-9.93,-3.87,-9.93,9.93,10.03,9.08,6.06,6.06,6.06
53.56,-3.78,-9.82,-3.78,-9.82,9.82,9.86,9.04,6.04,6.04,6.04
54.10,-3.69,-9.70,-3.69,-9.71,9.71,9.69,9.01,6.02,6.02,6.02
54.64,-3.60,-9.59,-3.60,-9.59,9.59,9.51,8.97,6.00,5.99,6.00
55.18,-3.50,-9.47,-3.51,-9.48,9.48,9.33,8.94,5.98,5.97,5.97
55.74,-3.42,-9.35,-3.41,-9.36,9.36,9.15,8.90,5.95,5.95,5.94
56.29,-3.32,-9.25,-3.32,-9.24,9.24,8.97,8.87,5.92,5.92,5.93
56.86,-3.23,-9.12,-3.22,-9.12,9.12,8.78,8.83,5.90,5.90,5.90
57.42,-3.13,-9.00,-3.13,-9.00,9.00,8.60,8.79,5.87,5.87,5.86
58.00,-3.05,-8.89,-3.03,-8.88,8.88,8.42,8.74,5.83,5.85,5.84
58.58,-2.94,-8.75,-2.93,-8.75,8.75,8.24,8.69,5.81,5.82,5.82
59.16,-2.82,-8.62,-2.83,-8.61,8.61,8.06,8.64,5.79,5.78,5.79
59.76,-2.73,-8.49,-2.73,-8.48,8.48,7.88,8.58,5.76,5.75,5.77
60.35,-2.62,-8.36,-2.63,-8.35,8.35,7.71,8.52,5.72,5.72,5.73
60.96,-2.53,-8.22,-2.52,-8.21,8.21,7.54,8.45,5.68,5.68,5.69
61.57,-2.42,-8.06,-2.42,-8.07,8.07,7.36,8.38,5.65,5.65,5.65
62.18,-2.31,-7.91,-2.32,-7.93,7.93,7.20,8.30,5.61,5.61,5.60
62.80,-2.21,-7.78,-2.22,-7.79,7.79,7.03,8.21,5.57,5.57,5.57
63.43,-2.12,-7.63,-2.12,-7.64,7.64,6.87,8.12,5.53,5.53,5.52
64.07,-2.02,-7.49,-2.01,-7.50,7.50,6.71,8.02,5.48,5.49,5.48
64.71,-1.92,-7.35,-1.91,-7.35,7.35,6.55,7.92,5.44,5.44,5.44
65.35,-1.81,-7.21,-1.81,-7.21,7.21,6.39,7.81,5.40,5.40,5.39
66.01,-1.72,-7.07,-1.71,-7.07,7.07,6.24,7.69,5.35,5.35,5.35
66.67,-1.62,-6.93,-1.62,-6.92,6.92,6.09,7.57,5.31,5.31,5.32
67.33,-1.52,-6.80,-1.52,-6.78,6.78,5.95,7.44,5.26,5.26,5.27
68.01,-1.44,-6.66,-1.43,-6.64,6.64,5.81,7.31,5.21,5.22,5.22
68.69,-1.34,-6.51,-1.33,-6.51,6.51,5.67,7.17,5.17,5.17,5.18
69.37,-1.23,-6.36,-1.24,-6.37,6.37,5.53,7.03,5.13,5.13,5.13
70.07,-1.15,-6.22,-1.15,-6.23,6.23,5.40,6.89,5.09,5.08,5.08
70.77,-1.06,-6.09,-1.06,-6.10,6.10,5.27,6.75,5.05,5.04,5.04
71.48,-0.98,-5.97,-0.98,-5.97,5.97,5.14,6.60,5.00,4.99,5.00
72.19,-0.90,-5.84,-0.90,-5.85,5.85,5.01,6.45,4.95,4.95,4.95
72.91,-0.82,-5.72,-0.82,-5.72,5.72,4.89,6.30,4.91,4.91,4.90
73.64,-0.75,-5.60,-0.74,-5.61,5.61,4.77,6.15,4.86,4.86,4.86
74.38,-0.67,-5.49,-0.67,-5.49,5.49,4.65,6.00,4.82,4.82,4.82
75.12,-0.60,-5.37,-0.60,-5.38,5.38,4.54,5.85,4.79,4.78,4.78
75.87,-0.54,-5.27,-0.54,-5.28,5.28,4.43,5.69,4.74,4.74,4.74
76.63,-0.48,-5.18,-0.47,-5.17,5.17,4.32,5.54,4.70,4.70,4.70
77.40,-0.42,-5.08,-0.41,-5.08,5.08,4.21,5.39,4.66,4.66,4.66
78.17,-0.35,-4.97,-0.35,-4.98,4.98,4.11,5.24,4.63,4.63,4.62
78.95,-0.28,-4.87,-0.29,-4.89,4.89,4.01,5.10,4.61,4.59,4.59
79.74,-0.24,-4.79,-0.24,-4.79,4.79,3.91,4.95,4.56,4.56,4.56
80.54,-0.19,-4.71,-0.18,-4.70,4.70,3.81,4.81,4.52,4.52,4.53
81.35,-0.14,-4.63,-0.12,-4.62,4.62,3.71,4.66,4.48,4.49,4.49
82.16,-0.09,-4.54,-0.07,-4.53,4.53,3.62,4.52,4.44,4.46,4.46
82.98,-0.03,-4.46,-0.01,-4.44,4.44,3.53,4.38,4.42,4.43,4.43
83.81,0.04,-4.35,0.04,-4.36,4.36,3.44,4.25,4.40,4.40,4.40
84.65,0.10,-4.25,0.10,-4.27,4.27,3.35,4.11,4.38,4.37,4.36
85.50,0.15,-4.19,0.15,-4.19,4.19,3.26,3.98,4.34,4.34,4.34
86.35,0.20,-4.11,0.21,-4.10,4.10,3.18,3.85,4.31,4.31,4.31
87.22,0.26,-4.02,0.27,-4.02,4.02,3.10,3.72,4.28,4.28,4.28
88.09,0.33,-3.92,0.33,-3.93,3.93,3.02,3.59,4.27,4.26,4.25
88.97,0.39,-3.84,0.39,-3.84,3.84,2.94,3.47,4.24,4.23,4.23
89.86,0.44,-3.76,0.45,-3.75,3.75,2.86,3.35,4.20,4.20,4.21
90.76,0.50,-3.66,0.51,-3.66,3.66,2.78,3.23,4.17,4.17,4.17
91.66,0.56,-3.58,0.57,-3.57,3.57,2.71,3.11,4.14,4.14,4.14
92.58,0.63,-3.47,0.64,-3.48,3.48,2.63,3.00,4.11,4.12,4.11
93.51,0.70,-3.39,0.71,-3.38,3.38,2.56,2.88,4.08,4.09,4.09
94.44,0.76,-3.30,0.77,-3.28,3.28,2.49,2.77,4.05,4.06,4.06
95.39,0.82,-3.21,0.84,-3.18,3.18,2.41,2.66,4.01,4.02,4.03
96.34,0.90,-3.08,0.91,-3.08,3.08,2.34,2.55,3.99,3.99,3.99
97.30,0.97,-2.98,0.98,-2.98,2.98,2.28,2.45,3.95,3.96,3.95
98.28,1.05,-2.86,1.04,-2.88,2.88,2.21,2.34,3.93,3.92,3.92
99.26,1.12,-2.75,1.11,-2.77,2.77,2.14,2.24,3.90,3.88,3.88
100.25,1.18,-2.66,1.18,-2.67,2.67,2.07,2.14,3.85,3.84,3.84
101.25,1.25,-2.55,1.24,-2.56,2.56,2.00,2.04,3.82,3.80,3.81
102.27,1.32,-2.43,1.30,-2.46,2.46,1.94,1.95,3.78,3.76,3.76
103.29,1.36,-2.35,1.37,-2.35,2.35,1.87,1.85,3.71,3.71,3.71
104.32,1.41,-2.26,1.43,-2.24,2.24,1.80,1.76,3.65,3.67,3.67
105.37,1.48,-2.14,1.49,-2.13,2.13,1.74,1.67,3.61,3.62,3.62
106.42,1.54,-2.02,1.55,-2.01,2.01,1.67,1.58,3.56,3.56,3.57
107.48,1.59,-1.92,1.61,-1.90,1.90,1.61,1.49,3.50,3.51,3.52
108.56,1.65,-1.80,1.66,-1.79,1.79,1.54,1.40,3.44,3.45,3.45
109.64,1.72,-1.67,1.72,-1.67,1.67,1.47,1.32,3.40,3.39,3.39
110.74,1.78,-1.55,1.78,-1.55,1.55,1.40,1.23,3.33,3.33,3.34
111.85,1.83,-1.43,1.83,-1.43,1.43,1.33,1.15,3.26,3.26,3.27
112.97,1.90,-1.29,1.89,-1.31,1.31,1.26,1.07,3.21,3.20,3.19
114.10,1.95,-1.18,1.94,-1.18,1.18,1.19,1.00,3.14,3.13,3.14
115.24,2.01,-1.04,2.00,-1.06,1.06,1.12,0.92,3.07,3.06,3.06
116.39,2.04,-0.94,2.06,-0.93,0.93,1.04,0.85,2.98,2.99,2.98
117.55,2.09,-0.82,2.12,-0.81,0.81,0.97,0.77,2.90,2.92,2.92
118.73,2.16,-0.68,2.18,-0.68,0.68,0.89,0.70,2.84,2.86,2.84
119.92,2.23,-0.55,2.23,-0.55,0.55,0.81,0.63,2.79,2.79,2.79
121.12,2.29,-0.42,2.29,-0.43,0.43,0.72,0.57,2.73,2.72,2.71
122.33,2.33,-0.32,2.35,-0.31,0.31,0.63,0.50,2.64,2.66,2.65
123.55,2.38,-0.21,2.40,-0.19,0.19,0.54,0.44,2.57,2.59,2.60
124.79,2.47,-0.06,2.46,-0.07,0.07,0.44,0.37,2.54,2.53,2.54
126.03,2.54,0.07,2.52,0.05,-0.05,0.34,0.31,2.50,2.47,2.48
127.29,2.58,0.17,2.58,0.16,-0.16,0.24,0.26,2.42,2.41,2.41
128.57,2.62,0.28,2.63,0.28,-0.28,0.13,0.20,2.35,2.35,2.35
129.85,2.68,0.39,2.69,0.39,-0.39,0.01,0.14,2.29,2.30,2.30
131.15,2.74,0.51,2.75,0.50,-0.50,-0.11,0.09,2.24,2.24,2.24
132.46,2.78,0.59,2.80,0.61,-0.61,-0.24,0.03,2.18,2.19,2.19
133.79,2.83,0.69,2.85,0.71,-0.71,-0.38,-0.02,2.13,2.14,2.14
135.12,2.88,0.80,2.89,0.80,-0.80,-0.51,-0.07,2.08,2.09,2.09
136.48,2.92,0.88,2.94,0.90,-0.90,-0.65,-0.12,2.03,2.04,2.04
137.84,2.97,0.99,2.98,0.99,-0.99,-0.80,-0.17,1.99,1.99,1.99
139.22,3.01,1.08,3.01,1.07,-1.07,-0.94,-0.22,1.95,1.94,1.94
140.61,3.05,1.17,3.04,1.15,-1.15,-1.08,-0.27,1.91,1.90,1.88
142.02,3.09,1.24,3.07,1.22,-1.22,-1.22,-0.32,1.87,1.85,1.85
143.44,3.10,1.29,3.10,1.29,-1.29,-1.34,-0.37,1.81,1.81,1.81
144.87,3.09,1.33,3.11,1.35,-1.35,-1.45,-0.41,1.75,1.76,1.76
146.32,3.10,1.39,3.11,1.40,-1.40,-1.55,-0.46,1.70,1.71,1.71
147.78,3.11,1.44,3.11,1.45,-1.45,-1.62,-0.51,1.67,1.67,1.68
149.26,3.10,1.47,3.10,1.48,-1.48,-1.66,-0.56,1.62,1.62,1.63
150.75,3.09,1.53,3.08,1.51,-1.51,-1.69,-0.61,1.58,1.57,1.57
152.26,3.07,1.55,3.05,1.53,-1.53,-1.68,-0.66,1.54,1.52,1.52
153.78,3.02,1.55,3.02,1.55,-1.55,-1.66,-0.70,1.48,1.47,1.48
155.32,2.98,1.57,2.97,1.55,-1.55,-1.61,-0.76,1.43,1.42,1.41
156.88,2.91,1.54,2.92,1.55,-1.55,-1.55,-0.81,1.36,1.37,1.37
158.44,2.85,1.53,2.86,1.54,-1.54,-1.48,-0.86,1.31,1.32,1.32
160.03,2.75,1.49,2.79,1.52,-1.52,-1.41,-0.91,1.24,1.27,1.26
161.63,2.68,1.48,2.70,1.49,-1.49,-1.33,-0.97,1.20,1.21,1.20
163.24,2.62,1.47,2.61,1.44,-1.44,-1.24,-1.02,1.18,1.16,1.16
164.88,2.51,1.40,2.50,1.40,-1.40,-1.16,-1.08,1.12,1.11,1.11
166.53,2.42,1.37,2.39,1.34,-1.34,-1.09,-1.13,1.09,1.05,1.05
168.19,2.32,1.32,2.27,1.27,-1.27,-1.02,-1.19,1.05,1.00,1.00
169.87,2.16,1.22,2.14,1.20,-1.20,-0.95,-1.25,0.97,0.94,0.95
171.57,2.01,1.12,2.00,1.12,-1.12,-0.90,-1.31,0.90,0.89,0.89
173.29,1.88,1.05,1.86,1.03,-1.03,-0.84,-1.38,0.85,0.83,0.83
175.02,1.68,0.90,1.71,0.94,-0.94,-0.80,-1.44,0.74,0.77,0.78
176.77,1.55,0.84,1.56,0.85,-0.85,-0.76,-1.51,0.71,0.71,0.71
178.54,1.41,0.76,1.40,0.75,-0.75,-0.73,-1.57,0.67,0.65,0.65
180.32,1.27,0.68,1.24,0.65,-0.65,-0.70,-1.64,0.62,0.59,0.59
182.13,1.13,0.60,1.09,0.57,-0.57,-0.68,-1.71,0.57,0.53,0.53
183.95,0.93,0.47,0.95,0.48,-0.48,-0.67,-1.79,0.45,0.47,0.47
185.79,0.79,0.38,0.82,0.41,-0.41,-0.66,-1.86,0.38,0.41,0.41
187.65,0.66,0.33,0.70,0.36,-0.36,-0.65,-1.93,0.31,0.35,0.34
189.52,0.56,0.28,0.60,0.31,-0.31,-0.65,-2.01,0.25,0.29,0.28
191.42,0.48,0.26,0.51,0.28,-0.28,-0.66,-2.08,0.20,0.23,0.23
193.33,0.40,0.23,0.44,0.27,-0.27,-0.67,-2.16,0.14,0.17,0.17
195.27,0.35,0.23,0.39,0.27,-0.27,-0.68,-2.24,0.08,0.11,0.12
197.22,0.33,0.27,0.36,0.30,-0.30,-0.70,-2.32,0.04,0.06,0.06
199.19,0.33,0.34,0.34,0.34,-0.34,-0.73,-2.40,-0.00,0.01,-0.00
201.18,0.34,0.40,0.35,0.40,-0.40,-0.75,-2.48,-0.05,-0.05,-0.05
203.19,0.36,0.46,0.38,0.48,-0.48,-0.78,-2.56,-0.11,-0.10,-0.09
205.23,0.40,0.55,0.43,0.57,-0.57,-0.82,-2.64,-0.17,-0.15,-0.15
207.28,0.46,0.64,0.49,0.68,-0.68,-0.86,-2.72,-0.22,-0.19,-0.18
209.35,0.54,0.78,0.56,0.80,-0.80,-0.90,-2.80,-0.26,-0.24,-0.24
211.44,0.64,0.94,0.65,0.93,-0.93,-0.95,-2.87,-0.29,-0.28,-0.29
213.56,0.75,1.08,0.74,1.07,-1.07,-1.01,-2.95,-0.31,-0.33,-0.33
215.69,0.86,1.22,0.85,1.21,-1.21,-1.06,-3.02,-0.35,-0.37,-0.36
217.85,0.98,1.39,0.96,1.36,-1.36,-1.13,-3.09,-0.38,-0.41,-0.40
220.03,1.06,1.51,1.07,1.51,-1.51,-1.20,-3.16,-0.45,-0.44,-0.45
222.23,1.17,1.66,1.19,1.66,-1.66,-1.27,-3.22,-0.48,-0.47,-0.48
224.45,1.30,1.81,1.30,1.81,-1.81,-1.35,-3.28,-0.50,-0.50,-0.51
226.70,1.42,1.95,1.42,1.95,-1.95,-1.43,-3.33,-0.53,-0.53,-0.53
228.96,1.56,2.13,1.53,2.09,-2.09,-1.52,-3.38,-0.52,-0.56,-0.56
231.25,1.64,2.22,1.64,2.22,-2.22,-1.62,-3.43,-0.57,-0.58,-0.57
233.57,1.75,2.35,1.74,2.34,-2.34,-1.72,-3.46,-0.58,-0.60,-0.60
235.90,1.86,2.48,1.84,2.45,-2.45,-1.83,-3.49,-0.59,-0.61,-0.62
238.26,1.93,2.56,1.93,2.56,-2.56,-1.95,-3.51,-0.62,-0.63,-0.63
240.64,2.02,2.67,2.02,2.65,-2.65,-2.07,-3.53,-0.63,-0.64,-0.64
243.05,2.08,2.73,2.10,2.74,-2.74,-2.19,-3.54,-0.66,-0.64,-0.64
245.48,2.16,2.82,2.17,2.82,-2.82,-2.32,-3.53,-0.65,-0.65,-0.65
247.93,2.24,2.90,2.23,2.89,-2.89,-2.46,-3.52,-0.64,-0.65,-0.65
250.41,2.29,2.96,2.29,2.94,-2.94,-2.60,-3.50,-0.65,-0.65,-0.66
252.92,2.35,3.00,2.34,2.99,-2.99,-2.74,-3.48,-0.64,-0.65,-0.65
255.45,2.39,3.03,2.39,3.04,-3.04,-2.88,-3.44,-0.64,-0.65,-0.64
258.00,2.43,3.07,2.43,3.07,-3.07,-3.01,-3.39,-0.64,-0.64,-0.64
260.58,2.46,3.10,2.47,3.10,-3.10,-3.15,-3.34,-0.63,-0.63,-0.64
263.19,2.49,3.12,2.50,3.12,-3.12,-3.27,-3.27,-0.62,-0.62,-0.62
265.82,2.52,3.15,2.52,3.13,-3.13,-3.39,-3.20,-0.61,-0.61,-0.62
268.48,2.54,3.14,2.54,3.14,-3.14,-3.49,-3.13,-0.60,-0.60,-0.60
271.16,2.55,3.14,2.56,3.15,-3.15,-3.57,-3.04,-0.60,-0.59,-0.59
273.87,2.57,3.16,2.57,3.15,-3.15,-3.64,-2.95,-0.58,-0.58,-0.58
276.61,2.58,3.14,2.58,3.15,-3.15,-3.68,-2.85,-0.56,-0.57,-0.56
279.38,2.58,3.14,2.59,3.15,-3.15,-3.70,-2.75,-0.56,-0.55,-0.55
282.17,2.58,3.13,2.60,3.14,-3.14,-3.69,-2.64,-0.55,-0.54,-0.54
284.99,2.57,3.10,2.60,3.13,-3.13,-3.66,-2.52,-0.55,-0.53,-0.53
287.84,2.58,3.11,2.60,3.12,-3.12,-3.60,-2.40,-0.53,-0.52,-0.52
290.72,2.59,3.10,2.60,3.10,-3.10,-3.53,-2.28,-0.51,-0.50,-0.51
293.63,2.59,3.09,2.59,3.08,-3.08,-3.43,-2.16,-0.49,-0.49,-0.49
296.57,2.58,3.06,2.58,3.06,-3.06,-3.32,-2.03,-0.48,-0.48,-0.48
299.53,2.57,3.05,2.57,3.04,-3.04,-3.19,-1.90,-0.47,-0.47,-0.47
302.53,2.55,3.02,2.56,3.02,-3.02,-3.05,-1.76,-0.46,-0.46,-0.47
305.55,2.53,2.98,2.54,2.98,-2.98,-2.91,-1.63,-0.45,-0.45,-0.44
308.61,2.51,2.95,2.51,2.95,-2.95,-2.76,-1.49,-0.43,-0.44,-0.44
311.69,2.47,2.90,2.48,2.91,-2.91,-2.61,-1.35,-0.43,-0.43,-0.43
314.81,2.45,2.86,2.44,2.86,-2.86,-2.46,-1.21,-0.41,-0.42,-0.40
317.96,2.41,2.82,2.40,2.81,-2.81,-2.31,-1.07,-0.39,-0.41,-0.41
321.14,2.35,2.76,2.35,2.75,-2.75,-2.16,-0.93,-0.40,-0.40,-0.40
324.35,2.28,2.69,2.29,2.68,-2.68,-2.02,-0.79,-0.40,-0.40,-0.41
327.59,2.22,2.61,2.22,2.61,-2.61,-1.88,-0.64,-0.39,-0.39,-0.39
330.87,2.15,2.55,2.15,2.54,-2.54,-1.75,-0.50,-0.38,-0.39,-0.39
334.18,2.06,2.46,2.07,2.45,-2.45,-1.62,-0.36,-0.39,-0.39,-0.40
337.52,1.96,2.35,1.98,2.36,-2.36,-1.49,-0.21,-0.40,-0.39,-0.39
340.90,1.88,2.27,1.88,2.27,-2.27,-1.37,-0.07,-0.38,-0.39,-0.38
344.30,1.77,2.16,1.78,2.17,-2.17,-1.26,0.08,-0.39,-0.39,-0.38
347.75,1.67,2.06,1.67,2.06,-2.06,-1.15,0.22,-0.38,-0.39,-0.39
351.23,1.55,1.94,1.55,1.94,-1.94,-1.05,0.37,-0.39,-0.39,-0.39
354.74,1.43,1.83,1.43,1.82,-1.82,-0.94,0.51,-0.39,-0.40,-0.39
358.28,1.29,1.70,1.30,1.70,-1.70,-0.85,0.66,-0.40,-0.40,-0.40
361.87,1.16,1.57,1.16,1.57,-1.57,-0.75,0.81,-0.40,-0.41,-0.41
365.49,1.00,1.41,1.02,1.43,-1.43,-0.66,0.95,-0.43,-0.41,-0.41
369.14,0.86,1.29,0.87,1.29,-1.29,-0.58,1.10,-0.43,-0.42,-0.42
372.83,0.72,1.15,0.72,1.14,-1.14,-0.49,1.25,-0.42,-0.43,-0.42
376.56,0.53,0.97,0.56,0.99,-0.99,-0.41,1.40,-0.46,-0.43,-0.44
380.33,0.38,0.82,0.39,0.83,-0.83,-0.33,1.54,-0.45,-0.44,-0.44
384.13,0.21,0.66,0.22,0.67,-0.67,-0.25,1.69,-0.45,-0.45,-0.45
387.97,0.04,0.51,0.03,0.49,-0.49,-0.17,1.84,-0.45,-0.46,-0.46
391.85,-0.15,0.33,-0.15,0.31,-0.31,-0.09,1.99,-0.45,-0.46,-0.47
395.77,-0.33,0.14,-0.35,0.12,-0.12,-0.01,2.13,-0.45,-0.47,-0.46
399.73,-0.53,-0.05,-0.55,-0.07,0.07,0.06,2.28,-0.45,-0.48,-0.48
403.72,-0.74,-0.25,-0.76,-0.27,0.27,0.14,2.43,-0.46,-0.48,-0.49
407.76,-0.96,-0.46,-0.97,-0.48,0.48,0.22,2.57,-0.48,-0.49,-0.50
411.84,-1.19,-0.70,-1.19,-0.69,0.69,0.30,2.71,-0.49,-0.50,-0.49
415.96,-1.42,-0.91,-1.41,-0.91,0.91,0.38,2.86,-0.50,-0.50,-0.50
420.12,-1.66,-1.15,-1.64,-1.13,1.13,0.47,3.00,-0.52,-0.50,-0.50
424.32,-1.90,-1.39,-1.87,-1.36,1.36,0.55,3.14,-0.54,-0.51,-0.50
428.56,-2.10,-1.58,-2.10,-1.59,1.59,0.64,3.27,-0.51,-0.51,-0.51
432.85,-2.33,-1.81,-2.33,-1.82,1.82,0.73,3.40,-0.51,-0.51,-0.52
437.18,-2.57,-2.05,-2.56,-2.05,2.05,0.83,3.53,-0.52,-0.51,-0.52
441.55,-2.78,-2.27,-2.79,-2.28,2.28,0.93,3.65,-0.50,-0.51,-0.51
445.96,-3.02,-2.51,-3.02,-2.50,2.50,1.04,3.77,-0.51,-0.51,-0.51
450.42,-3.27,-2.75,-3.24,-2.73,2.73,1.15,3.89,-0.54,-0.51,-0.52
454.93,-3.47,-2.95,-3.46,-2.95,2.95,1.27,3.99,-0.52,-0.51,-0.51
459.48,-3.69,-3.17,-3.67,-3.16,3.16,1.40,4.10,-0.52,-0.51,-0.51
464.07,-3.88,-3.37,-3.88,-3.38,3.38,1.53,4.19,-0.50,-0.50,-0.50
468.71,-4.08,-3.58,-4.09,-3.59,3.59,1.68,4.28,-0.49,-0.50,-0.49
473.40,-4.31,-3.81,-4.29,-3.79,3.79,1.83,4.35,-0.51,-0.49,-0.49
478.13,-4.51,-4.02,-4.49,-4.00,4.00,2.00,4.42,-0.51,-0.49,-0.49
