frequency,raw,error,smoothed,error_smoothed,equalization,parametric_eq,fixed_band_eq,equalized_raw,equalized_smoothed,target
20.00,-11.61,-14.54,-11.62,-14.54,14.61,12.30,4.01,3.00,2.99,2.92
20.20,-11.52,-14.48,-11.52,-14.47,14.48,12.22,4.12,2.96,2.96,2.95
20.40,-11.41,-14.39,-11.40,-14.38,14.35,12.13,4.23,2.94,2.96,2.98
20.61,-11.25,-14.26,-11.25,-14.26,14.22,12.05,4.35,2.96,2.96,3.00
20.81,-11.08,-14.11,-11.08,-14.11,14.07,11.97,4.47,2.99,2.99,3.03
21.02,-10.89,-13.96,-10.89,-13.95,13.92,11.88,4.59,3.03,3.03,3.06
21.23,-10.69,-13.77,-10.70,-13.78,13.76,11.79,4.71,3.07,3.06,3.07
21.44,-10.52,-13.60,-10.50,-13.59,13.59,11.71,4.84,3.08,3.09,3.08
21.66,-10.30,-13.40,-10.30,-13.39,13.41,11.62,4.97,3.10,3.11,3.09
21.87,-10.08,-13.17,-10.10,-13.20,13.21,11.53,5.11,3.14,3.12,3.09
22.09,-9.91,-13.01,-9.90,-13.00,13.02,11.44,5.24,3.12,3.12,3.10
22.31,-9.72,-12.82,-9.72,-12.83,12.83,11.35,5.39,3.12,3.11,3.10
22.54,-9.54,-12.65,-9.55,-12.65,12.64,11.27,5.53,3.10,3.10,3.10
22.76,-9.37,-12.47,-9.35,-12.46,12.45,11.17,5.68,3.08,3.10,3.10
22.99,-9.16,-12.26,-9.17,-12.27,12.26,11.08,5.83,3.10,3.09,3.09
23.22,-8.96,-12.06,-8.98,-12.07,12.06,10.99,5.99,3.10,3.09,3.09
23.45,-8.79,-11.88,-8.77,-11.87,11.86,10.90,6.15,3.07,3.09,3.09
23.69,-8.57,-11.67,-8.57,-11.66,11.66,10.81,6.32,3.09,3.09,3.09
23.92,-8.35,-11.44,-8.36,-11.45,11.46,10.71,6.49,3.11,3.10,3.09
24.16,-8.14,-11.23,-8.15,-11.24,11.26,10.62,6.66,3.12,3.11,3.09
24.40,-7.97,-11.06,-7.95,-11.05,11.06,10.52,6.84,3.09,3.10,3.09
24.65,-7.76,-10.85,-7.77,-10.85,10.86,10.42,7.02,3.10,3.10,3.08
24.89,-7.58,-10.66,-7.58,-10.66,10.67,10.32,7.20,3.09,3.09,3.08
25.14,-7.39,-10.47,-7.39,-10.47,10.47,10.23,7.38,3.09,3.09,3.08
25.39,-7.21,-10.29,-7.21,-10.29,10.28,10.13,7.57,3.08,3.07,3.08
25.65,-7.02,-10.11,-7.02,-10.10,10.09,10.02,7.76,3.07,3.07,3.08
25.91,-6.83,-9.91,-6.83,-9.91,9.89,9.92,7.95,3.06,3.06,3.07
26.16,-6.63,-9.70,-6.63,-9.71,9.70,9.82,8.14,3.07,3.07,3.07
26.43,-6.43,-9.51,-6.43,-9.50,9.50,9.71,8.33,3.07,3.07,3.07
26.69,-6.22,-9.30,-6.23,-9.30,9.30,9.60,8.52,3.08,3.07,3.07
26.96,-6.04,-9.12,-6.04,-9.11,9.11,9.50,8.71,3.07,3.07,3.07
27.23,-5.85,-8.92,-5.85,-8.92,8.93,9.38,8.90,3.07,3.07,3.06
27.50,-5.68,-8.75,-5.68,-8.75,8.75,9.27,9.09,3.07,3.07,3.06
27.77,-5.52,-8.57,-5.52,-8.58,8.59,9.16,9.27,3.07,3.07,3.05
28.05,-5.38,-8.43,-5.38,-8.43,8.44,9.04,9.44,3.06,3.06,3.05
28.33,-5.25,-8.29,-5.25,-8.30,8.31,8.93,9.61,3.06,3.06,3.04
28.62,-5.13,-8.18,-5.14,-8.18,8.18,8.81,9.77,3.05,3.05,3.04
28.90,-5.04,-8.08,-5.03,-8.07,8.07,8.69,9.92,3.03,3.04,3.04
29.19,-4.93,-7.97,-4.94,-7.98,7.97,8.57,10.06,3.04,3.03,3.03
29.48,-4.86,-7.89,-4.86,-7.89,7.88,8.45,10.18,3.02,3.03,3.03
29.78,-4.78,-7.81,-4.78,-7.80,7.80,8.33,10.29,3.02,3.02,3.02
30.08,-4.69,-7.72,-4.70,-7.72,7.72,8.22,10.39,3.03,3.02,3.02
30.38,-4.63,-7.65,-4.62,-7.64,7.65,8.10,10.47,3.01,3.02,3.01
30.68,-4.55,-7.57,-4.56,-7.57,7.58,7.99,10.53,3.03,3.02,3.01
30.99,-4.50,-7.51,-4.51,-7.51,7.51,7.88,10.57,3.01,3.01,3.00
31.30,-4.46,-7.46,-4.45,-7.45,7.45,7.78,10.59,2.99,3.00,2.99
31.61,-4.41,-7.41,-4.41,-7.40,7.39,7.68,10.60,2.98,2.99,2.99
31.93,-4.35,-7.34,-4.36,-7.34,7.34,7.59,10.58,2.98,2.98,2.98
32.24,-4.30,-7.27,-4.30,-7.28,7.28,7.51,10.56,2.98,2.98,2.97
32.57,-4.26,-7.24,-4.25,-7.22,7.23,7.44,10.51,2.97,2.98,2.97
32.89,-4.21,-7.17,-4.21,-7.18,7.18,7.36,10.45,2.97,2.96,2.96
33.22,-4.16,-7.12,-4.17,-7.13,7.12,7.30,10.36,2.96,2.95,2.95
33.55,-4.13,-7.08,-4.12,-7.07,7.07,7.24,10.27,2.94,2.95,2.95
33.89,-4.07,-7.02,-4.07,-7.02,7.01,7.19,10.16,2.94,2.94,2.94
34.23,-4.02,-6.96,-4.03,-6.96,6.96,7.14,10.05,2.94,2.93,2.93
34.57,-3.99,-6.92,-3.98,-6.91,6.91,7.09,9.92,2.92,2.93,2.92
34.92,-3.93,-6.85,-3.94,-6.85,6.85,7.04,9.79,2.92,2.92,2.91
35.27,-3.90,-6.81,-3.90,-6.80,6.80,7.00,9.65,2.90,2.90,2.90
35.62,-3.85,-6.75,-3.85,-6.75,6.75,6.95,9.51,2.90,2.90,2.89
35.97,-3.82,-6.70,-3.82,-6.70,6.70,6.91,9.36,2.88,2.89,2.88
36.33,-3.78,-6.65,-3.78,-6.66,6.66,6.86,9.21,2.88,2.88,2.87
36.70,-3.75,-6.62,-3.75,-6.61,6.62,6.82,9.06,2.87,2.87,2.86
37.06,-3.72,-6.57,-3.72,-6.58,6.58,6.77,8.91,2.86,2.86,2.85
37.43,-3.69,-6.54,-3.70,-6.54,6.54,6.72,8.76,2.85,2.84,2.84
37.81,-3.68,-6.52,-3.67,-6.51,6.50,6.68,8.61,2.82,2.83,2.83
38.19,-3.64,-6.47,-3.65,-6.47,6.46,6.63,8.47,2.82,2.82,2.82
38.57,-3.62,-6.44,-3.62,-6.43,6.42,6.58,8.32,2.80,2.81,2.81
38.95,-3.59,-6.39,-3.59,-6.39,6.39,6.54,8.18,2.80,2.80,2.80
39.34,-3.55,-6.34,-3.56,-6.34,6.35,6.49,8.04,2.80,2.79,2.78
39.74,-3.53,-6.31,-3.53,-6.31,6.31,6.44,7.91,2.78,2.78,2.77
40.14,-3.50,-6.27,-3.51,-6.27,6.27,6.39,7.78,2.77,2.77,2.76
40.54,-3.50,-6.26,-3.49,-6.24,6.24,6.35,7.65,2.74,2.75,2.75
40.94,-3.46,-6.21,-3.47,-6.21,6.21,6.30,7.53,2.75,2.74,2.74
41.35,-3.45,-6.19,-3.45,-6.18,6.17,6.26,7.41,2.72,2.73,2.73
41.76,-3.42,-6.15,-3.42,-6.15,6.14,6.21,7.30,2.72,2.72,2.72
42.18,-3.41,-6.13,-3.41,-6.13,6.11,6.17,7.19,2.70,2.70,2.71
42.60,-3.41,-6.12,-3.41,-6.12,6.10,6.12,7.09,2.69,2.69,2.70
43.03,-3.41,-6.11,-3.40,-6.09,6.09,6.08,6.99,2.68,2.69,2.69
43.46,-3.41,-6.09,-3.40,-6.07,6.11,6.04,6.90,2.70,2.71,2.67
43.90,-3.39,-6.05,-3.42,-6.08,6.14,6.00,6.81,2.75,2.71,2.65
44.33,-3.49,-6.13,-3.49,-6.12,6.18,5.96,6.73,2.69,2.69,2.63
44.78,-3.59,-6.20,-3.59,-6.21,6.23,5.92,6.65,2.64,2.64,2.61
45.23,-3.72,-6.31,-3.72,-6.31,6.29,5.88,6.58,2.57,2.57,2.59
45.68,-3.82,-6.40,-3.80,-6.38,6.34,5.84,6.51,2.52,2.54,2.58
46.13,-3.87,-6.44,-3.86,-6.43,6.39,5.81,6.45,2.52,2.52,2.56
46.60,-3.87,-6.43,-3.89,-6.44,6.42,5.77,6.39,2.55,2.52,2.55
47.06,-3.91,-6.45,-3.90,-6.43,6.42,5.74,6.34,2.51,2.52,2.53
47.53,-3.90,-6.42,-3.90,-6.41,6.41,5.70,6.29,2.51,2.51,2.51
48.01,-3.87,-6.38,-3.88,-6.38,6.37,5.67,6.24,2.50,2.49,2.50
48.49,-3.85,-6.33,-3.85,-6.32,6.31,5.64,6.20,2.46,2.46,2.47
48.97,-3.81,-6.26,-3.81,-6.26,6.25,5.61,6.16,2.44,2.44,2.44
49.46,-3.78,-6.20,-3.77,-6.19,6.20,5.58,6.13,2.42,2.42,2.41
49.96,-3.73,-6.12,-3.73,-6.12,6.15,5.55,6.10,2.41,2.41,2.38
50.46,-3.71,-6.08,-3.71,-6.07,6.11,5.53,6.07,2.39,2.40,2.36
50.96,-3.69,-6.04,-3.70,-6.04,6.08,5.50,6.05,2.39,2.37,2.34
51.47,-3.72,-6.04,-3.72,-6.04,6.06,5.47,6.03,2.34,2.34,2.31
51.99,-3.76,-6.06,-3.75,-6.05,6.06,5.45,6.01,2.30,2.31,2.29
52.51,-3.78,-6.06,-3.79,-6.06,6.06,5.42,5.99,2.28,2.27,2.27
53.03,-3.82,-6.08,-3.82,-6.08,6.06,5.40,5.97,2.24,2.24,2.25
53.56,-3.85,-6.08,-3.85,-6.08,6.05,5.38,5.96,2.20,2.20,2.22
54.10,-3.87,-6.08,-3.86,-6.06,6.03,5.35,5.94,2.16,2.16,2.20
54.64,-3.85,-6.03,-3.85,-6.02,5.99,5.33,5.93,2.14,2.14,2.17
55.18,-3.80,-5.95,-3.81,-5.96,5.93,5.31,5.92,2.13,2.13,2.15
55.74,-3.75,-5.88,-3.75,-5.87,5.87,5.28,5.90,2.12,2.12,2.12
56.29,-3.68,-5.78,-3.68,-5.79,5.80,5.26,5.89,2.12,2.12,2.10
56.86,-3.62,-5.71,-3.62,-5.70,5.73,5.24,5.87,2.11,2.11,2.08
57.42,-3.57,-5.63,-3.58,-5.63,5.67,5.22,5.86,2.10,2.09,2.05
58.00,-3.55,-5.59,-3.55,-5.59,5.61,5.20,5.84,2.06,2.06,2.03
58.58,-3.55,-5.57,-3.55,-5.56,5.57,5.17,5.81,2.02,2.02,2.01
59.16,-3.55,-5.55,-3.55,-5.54,5.54,5.15,5.79,1.98,1.99,1.99
59.76,-3.55,-5.53,-3.55,-5.53,5.52,5.13,5.76,1.97,1.96,1.97
60.35,-3.55,-5.50,-3.56,-5.50,5.51,5.11,5.73,1.96,1.95,1.94
60.96,-3.59,-5.51,-3.58,-5.49,5.50,5.08,5.69,1.91,1.92,1.91
61.57,-3.59,-5.47,-3.61,-5.48,5.50,5.06,5.65,1.90,1.89,1.87
62.18,-3.64,-5.49,-3.64,-5.48,5.49,5.04,5.61,1.84,1.85,1.84
62.80,-3.67,-5.49,-3.67,-5.48,5.47,5.01,5.56,1.80,1.80,1.81
63.43,-3.69,-5.48,-3.69,-5.47,5.45,4.99,5.51,1.76,1.76,1.78
64.07,-3.69,-5.45,-3.68,-5.44,5.42,4.96,5.45,1.73,1.74,1.75
64.71,-3.64,-5.38,-3.66,-5.39,5.38,4.93,5.39,1.74,1.72,1.73
65.35,-3.64,-5.34,-3.63,-5.34,5.33,4.91,5.33,1.69,1.70,1.70
66.01,-3.60,-5.28,-3.60,-5.27,5.27,4.88,5.26,1.67,1.68,1.67
66.67,-3.56,-5.21,-3.57,-5.21,5.21,4.85,5.19,1.65,1.64,1.64
67.33,-3.53,-5.14,-3.53,-5.14,5.15,4.82,5.11,1.62,1.62,1.61
68.01,-3.50,-5.09,-3.49,-5.08,5.08,4.79,5.03,1.58,1.59,1.58
68.69,-3.45,-5.01,-3.46,-5.02,5.02,4.76,4.95,1.57,1.56,1.55
69.37,-3.44,-4.96,-3.43,-4.96,4.97,4.73,4.87,1.53,1.54,1.52
70.07,-3.41,-4.91,-3.42,-4.91,4.92,4.70,4.78,1.51,1.51,1.49
70.77,-3.41,-4.88,-3.41,-4.88,4.88,4.66,4.69,1.47,1.47,1.46
71.48,-3.41,-4.85,-3.41,-4.84,4.84,4.63,4.60,1.43,1.43,1.43
72.19,-3.41,-4.81,-3.41,-4.81,4.80,4.60,4.51,1.39,1.39,1.39
72.91,-3.41,-4.78,-3.41,-4.77,4.77,4.56,4.42,1.36,1.36,1.36
73.64,-3.41,-4.74,-3.41,-4.74,4.74,4.52,4.33,1.32,1.32,1.32
74.38,-3.41,-4.71,-3.41,-4.70,4.70,4.48,4.24,1.29,1.29,1.29
75.12,-3.41,-4.67,-3.41,-4.67,4.67,4.45,4.15,1.26,1.26,1.25
75.87,-3.41,-4.64,-3.41,-4.64,4.64,4.41,4.06,1.23,1.23,1.22
76.63,-3.41,-4.61,-3.41,-4.60,4.60,4.36,3.97,1.19,1.19,1.19
77.40,-3.41,-4.58,-3.41,-4.57,4.57,4.32,3.88,1.16,1.16,1.16
78.17,-3.41,-4.54,-3.41,-4.54,4.54,4.28,3.79,1.13,1.13,1.12
78.95,-3.41,-4.51,-3.41,-4.51,4.51,4.24,3.70,1.09,1.09,1.09
79.74,-3.41,-4.48,-3.41,-4.47,4.47,4.19,3.61,1.06,1.06,1.06
80.54,-3.41,-4.44,-3.41,-4.44,4.44,4.15,3.53,1.03,1.03,1.02
81.35,-3.41,-4.41,-3.41,-4.40,4.41,4.10,3.45,1.00,1.00,0.99
82.16,-3.41,-4.37,-3.41,-4.37,4.37,4.05,3.37,0.96,0.96,0.95
82.98,-3.41,-4.34,-3.41,-4.33,4.33,4.00,3.29,0.92,0.92,0.92
83.81,-3.41,-4.30,-3.42,-4.30,4.29,3.95,3.21,0.88,0.88,0.88
84.65,-3.41,-4.26,-3.41,-4.26,4.25,3.90,3.13,0.84,0.84,0.84
85.50,-3.41,-4.23,-3.39,-4.21,4.20,3.85,3.06,0.79,0.81,0.81
86.35,-3.36,-4.14,-3.38,-4.15,4.15,3.80,2.99,0.79,0.77,0.77
87.22,-3.36,-4.10,-3.36,-4.10,4.09,3.75,2.92,0.73,0.73,0.73
88.09,-3.35,-4.05,-3.33,-4.03,4.03,3.69,2.85,0.68,0.70,0.69
88.97,-3.31,-3.97,-3.31,-3.97,3.97,3.64,2.79,0.66,0.66,0.65
89.86,-3.27,-3.89,-3.29,-3.90,3.91,3.58,2.73,0.64,0.63,0.61
90.76,-3.27,-3.84,-3.27,-3.84,3.85,3.53,2.67,0.58,0.58,0.56
91.66,-3.27,-3.80,-3.27,-3.79,3.79,3.47,2.61,0.52,0.52,0.52
92.58,-3.27,-3.75,-3.27,-3.75,3.73,3.41,2.55,0.46,0.46,0.47
93.51,-3.25,-3.69,-3.25,-3.68,3.67,3.36,2.49,0.41,0.42,0.43
94.44,-3.22,-3.62,-3.22,-3.61,3.60,3.30,2.44,0.38,0.39,0.39
95.39,-3.17,-3.52,-3.18,-3.53,3.54,3.24,2.39,0.37,0.36,0.34
96.34,-3.16,-3.46,-3.16,-3.45,3.47,3.18,2.34,0.31,0.31,0.29
97.30,-3.13,-3.38,-3.14,-3.38,3.39,3.12,2.29,0.26,0.25,0.24
98.28,-3.13,-3.33,-3.12,-3.32,3.31,3.05,2.24,0.18,0.19,0.19
99.26,-3.09,-3.25,-3.09,-3.24,3.23,2.99,2.20,0.14,0.13,0.15
100.25,-3.06,-3.17,-3.05,-3.16,3.14,2.93,2.16,0.08,0.09,0.10
101.25,-2.99,-3.05,-3.00,-3.05,3.05,2.87,2.11,0.06,0.06,0.05
102.27,-2.95,-2.96,-2.95,-2.95,2.96,2.80,2.07,0.01,0.02,0.00
103.29,-2.89,-2.85,-2.90,-2.86,2.87,2.74,2.03,-0.02,-0.02,-0.05
104.32,-2.86,-2.78,-2.86,-2.77,2.78,2.68,2.00,-0.08,-0.08,-0.09
105.37,-2.82,-2.69,-2.82,-2.68,2.68,2.61,1.96,-0.14,-0.13,-0.14
106.42,-2.78,-2.60,-2.78,-2.59,2.59,2.55,1.92,-0.19,-0.19,-0.19
107.48,-2.73,-2.50,-2.73,-2.50,2.49,2.48,1.89,-0.24,-0.24,-0.24
108.56,-2.68,-2.40,-2.68,-2.40,2.39,2.42,1.85,-0.29,-0.29,-0.29
109.64,-2.64,-2.30,-2.63,-2.30,2.29,2.35,1.82,-0.35,-0.34,-0.34
110.74,-2.57,-2.19,-2.57,-2.19,2.18,2.28,1.78,-0.39,-0.39,-0.39
111.85,-2.51,-2.08,-2.51,-2.08,2.07,2.22,1.75,-0.44,-0.44,-0.44
112.97,-2.45,-1.96,-2.45,-1.96,1.96,2.15,1.72,-0.49,-0.49,-0.50
114.10,-2.39,-1.85,-2.39,-1.84,1.84,2.08,1.68,-0.55,-0.55,-0.55
115.24,-2.32,-1.72,-2.32,-1.72,1.72,2.02,1.65,-0.60,-0.60,-0.61
116.39,-2.26,-1.61,-2.26,-1.60,1.61,1.95,1.62,-0.65,-0.66,-0.66
117.55,-2.20,-1.49,-2.20,-1.49,1.49,1.88,1.58,-0.71,-0.71,-0.72
118.73,-2.14,-1.38,-2.14,-1.37,1.38,1.82,1.55,-0.76,-0.76,-0.77
119.92,-2.08,-1.27,-2.08,-1.27,1.27,1.75,1.52,-0.81,-0.81,-0.82
121.12,-2.03,-1.17,-2.03,-1.17,1.17,1.68,1.48,-0.86,-0.86,-0.87
122.33,-1.99,-1.08,-1.98,-1.07,1.07,1.62,1.45,-0.92,-0.92,-0.92
123.55,-1.94,-0.98,-1.94,-0.97,0.97,1.55,1.41,-0.97,-0.97,-0.97
124.79,-1.88,-0.87,-1.89,-0.88,0.87,1.48,1.37,-1.01,-1.02,-1.02
126.03,-1.85,-0.79,-1.84,-0.78,0.77,1.42,1.34,-1.08,-1.07,-1.07
127.29,-1.80,-0.69,-1.80,-0.68,0.68,1.35,1.30,-1.12,-1.12,-1.12
128.57,-1.75,-0.58,-1.76,-0.58,0.58,1.29,1.26,-1.17,-1.17,-1.18
129.85,-1.71,-0.49,-1.71,-0.49,0.49,1.22,1.22,-1.22,-1.22,-1.23
131.15,-1.68,-0.41,-1.67,-0.40,0.40,1.16,1.18,-1.28,-1.27,-1.28
132.46,-1.64,-0.32,-1.64,-0.32,0.32,1.09,1.14,-1.33,-1.32,-1.33
133.79,-1.59,-0.23,-1.60,-0.24,0.24,1.03,1.10,-1.35,-1.37,-1.37
135.12,-1.59,-0.18,-1.57,-0.16,0.16,0.96,1.06,-1.43,-1.41,-1.42
136.48,-1.54,-0.09,-1.55,-0.09,0.10,0.90,1.02,-1.44,-1.46,-1.46
137.84,-1.54,-0.04,-1.54,-0.04,0.04,0.84,0.97,-1.50,-1.51,-1.51
139.22,-1.54,0.01,-1.54,0.02,-0.01,0.77,0.93,-1.55,-1.55,-1.56
140.61,-1.54,0.05,-1.54,0.05,-0.06,0.71,0.88,-1.60,-1.59,-1.60
142.02,-1.54,0.08,-1.54,0.09,-0.09,0.65,0.84,-1.63,-1.63,-1.63
143.44,-1.54,0.12,-1.54,0.12,-0.11,0.59,0.79,-1.65,-1.66,-1.67
144.87,-1.56,0.14,-1.56,0.14,-0.13,0.53,0.75,-1.69,-1.69,-1.71
146.32,-1.59,0.15,-1.59,0.15,-0.14,0.47,0.70,-1.73,-1.73,-1.75
147.78,-1.64,0.13,-1.63,0.15,-0.14,0.41,0.65,-1.78,-1.77,-1.78
149.26,-1.67,0.14,-1.67,0.14,-0.14,0.35,0.61,-1.81,-1.82,-1.82
150.75,-1.71,0.14,-1.71,0.14,-0.15,0.30,0.56,-1.86,-1.86,-1.86
152.26,-1.75,0.14,-1.75,0.14,-0.15,0.24,0.51,-1.90,-1.90,-1.90
153.78,-1.79,0.14,-1.79,0.15,-0.16,0.18,0.46,-1.95,-1.95,-1.94
155.32,-1.82,0.15,-1.81,0.16,-0.18,0.13,0.42,-2.00,-1.99,-1.98
156.88,-1.82,0.19,-1.82,0.19,-0.20,0.07,0.37,-2.02,-2.02,-2.02
158.44,-1.82,0.23,-1.82,0.23,-0.23,0.02,0.32,-2.05,-2.05,-2.06
160.03,-1.82,0.27,-1.82,0.28,-0.27,-0.03,0.27,-2.09,-2.09,-2.10
161.63,-1.82,0.31,-1.82,0.31,-0.31,-0.08,0.22,-2.13,-2.13,-2.14
163.24,-1.82,0.35,-1.82,0.35,-0.35,-0.13,0.17,-2.17,-2.17,-2.18
164.88,-1.82,0.38,-1.81,0.40,-0.40,-0.18,0.12,-2.22,-2.21,-2.21
166.53,-1.78,0.46,-1.79,0.45,-0.45,-0.23,0.07,-2.23,-2.24,-2.25
168.19,-1.78,0.50,-1.78,0.50,-0.50,-0.28,0.02,-2.28,-2.28,-2.29
169.87,-1.78,0.54,-1.78,0.55,-0.54,-0.32,-0.03,-2.33,-2.32,-2.33
171.57,-1.78,0.58,-1.77,0.59,-0.59,-0.37,-0.08,-2.37,-2.37,-2.37
173.29,-1.76,0.63,-1.76,0.64,-0.64,-0.41,-0.13,-2.40,-2.40,-2.40
175.02,-1.73,0.70,-1.74,0.69,-0.69,-0.46,-0.18,-2.42,-2.43,-2.44
176.77,-1.73,0.74,-1.73,0.74,-0.74,-0.50,-0.23,-2.47,-2.47,-2.48
178.54,-1.73,0.78,-1.73,0.79,-0.79,-0.54,-0.29,-2.52,-2.51,-2.52
180.32,-1.73,0.82,-1.71,0.84,-0.84,-0.58,-0.34,-2.57,-2.55,-2.56
182.13,-1.68,0.90,-1.70,0.89,-0.89,-0.62,-0.39,-2.57,-2.59,-2.59
183.95,-1.68,0.94,-1.68,0.94,-0.94,-0.66,-0.44,-2.62,-2.63,-2.63
185.79,-1.68,0.97,-1.67,0.99,-1.00,-0.69,-0.50,-2.68,-2.67,-2.66
187.65,-1.65,1.04,-1.65,1.04,-1.05,-0.73,-0.55,-2.70,-2.71,-2.70
189.52,-1.62,1.10,-1.62,1.11,-1.11,-0.76,-0.60,-2.73,-2.73,-2.73
191.42,-1.57,1.18,-1.58,1.18,-1.17,-0.79,-0.66,-2.74,-2.75,-2.76
193.33,-1.54,1.24,-1.54,1.24,-1.23,-0.83,-0.71,-2.77,-2.78,-2.79
195.27,-1.51,1.30,-1.52,1.30,-1.29,-0.86,-0.76,-2.81,-2.81,-2.82
197.22,-1.50,1.34,-1.50,1.35,-1.35,-0.89,-0.82,-2.86,-2.85,-2.85
199.19,-1.47,1.40,-1.46,1.41,-1.41,-0.91,-0.87,-2.88,-2.88,-2.88
201.18,-1.43,1.46,-1.43,1.47,-1.47,-0.94,-0.93,-2.90,-2.90,-2.90
203.19,-1.38,1.53,-1.39,1.53,-1.52,-0.97,-0.98,-2.90,-2.91,-2.92
205.23,-1.36,1.57,-1.36,1.58,-1.57,-0.99,-1.03,-2.93,-2.93,-2.94
207.28,-1.32,1.62,-1.33,1.62,-1.62,-1.02,-1.09,-2.94,-2.95,-2.95
209.35,-1.31,1.65,-1.30,1.67,-1.67,-1.04,-1.14,-2.98,-2.97,-2.97
211.44,-1.26,1.72,-1.27,1.71,-1.71,-1.06,-1.19,-2.97,-2.98,-2.99
213.56,-1.25,1.74,-1.25,1.75,-1.75,-1.08,-1.24,-3.00,-3.00,-3.00
215.69,-1.22,1.77,-1.22,1.78,-1.79,-1.10,-1.29,-3.01,-3.00,-3.00
217.85,-1.19,1.81,-1.20,1.81,-1.82,-1.12,-1.34,-3.01,-3.02,-3.01
220.03,-1.17,1.84,-1.17,1.84,-1.85,-1.14,-1.38,-3.02,-3.02,-3.02
222.23,-1.17,1.85,-1.15,1.87,-1.87,-1.15,-1.43,-3.04,-3.02,-3.03
224.45,-1.12,1.90,-1.13,1.90,-1.88,-1.17,-1.47,-3.00,-3.01,-3.03
226.70,-1.12,1.90,-1.13,1.90,-1.88,-1.18,-1.51,-3.00,-3.01,-3.03
228.96,-1.12,1.90,-1.13,1.89,-1.88,-1.19,-1.55,-3.00,-3.01,-3.03
231.25,-1.17,1.84,-1.15,1.87,-1.87,-1.21,-1.59,-3.04,-3.02,-3.02
233.57,-1.17,1.84,-1.17,1.85,-1.86,-1.22,-1.63,-3.03,-3.03,-3.02
235.90,-1.17,1.84,-1.19,1.82,-1.83,-1.23,-1.66,-3.00,-3.03,-3.02
238.26,-1.22,1.78,-1.20,1.81,-1.81,-1.24,-1.69,-3.03,-3.01,-3.01
240.64,-1.22,1.77,-1.22,1.78,-1.78,-1.25,-1.71,-3.00,-3.00,-3.00
243.05,-1.22,1.76,-1.23,1.75,-1.75,-1.25,-1.74,-2.97,-2.98,-2.99
245.48,-1.26,1.71,-1.25,1.73,-1.72,-1.26,-1.75,-2.98,-2.97,-2.98
247.93,-1.26,1.70,-1.27,1.70,-1.69,-1.27,-1.77,-2.95,-2.96,-2.97
250.41,-1.31,1.64,-1.30,1.65,-1.65,-1.27,-1.79,-2.96,-2.95,-2.96
252.92,-1.31,1.62,-1.32,1.62,-1.61,-1.27,-1.80,-2.92,-2.94,-2.94
255.45,-1.36,1.55,-1.35,1.57,-1.58,-1.28,-1.80,-2.94,-2.93,-2.92
258.00,-1.36,1.54,-1.37,1.53,-1.54,-1.28,-1.81,-2.90,-2.91,-2.91
260.58,-1.40,1.48,-1.39,1.50,-1.50,-1.28,-1.81,-2.90,-2.88,-2.89
263.19,-1.40,1.46,-1.40,1.47,-1.46,-1.28,-1.81,-2.86,-2.86,-2.87
265.82,-1.40,1.44,-1.42,1.42,-1.42,-1.28,-1.80,-2.82,-2.84,-2.85
268.48,-1.45,1.37,-1.43,1.39,-1.39,-1.28,-1.80,-2.84,-2.82,-2.83
271.16,-1.45,1.35,-1.45,1.36,-1.36,-1.28,-1.79,-2.81,-2.81,-2.81
273.87,-1.45,1.33,-1.46,1.33,-1.34,-1.28,-1.77,-2.79,-2.79,-2.79
276.61,-1.45,1.31,-1.45,1.31,-1.31,-1.27,-1.76,-2.76,-2.76,-2.77
279.38,-1.45,1.29,-1.46,1.29,-1.30,-1.27,-1.74,-2.75,-2.75,-2.75
282.17,-1.45,1.27,-1.45,1.28,-1.28,-1.26,-1.73,-2.73,-2.73,-2.73
284.99,-1.45,1.25,-1.43,1.27,-1.28,-1.26,-1.71,-2.73,-2.71,-2.71
287.84,-1.40,1.28,-1.42,1.26,-1.27,-1.25,-1.69,-2.67,-2.69,-2.69
290.72,-1.40,1.26,-1.40,1.26,-1.26,-1.24,-1.67,-2.66,-2.66,-2.67
293.63,-1.40,1.24,-1.38,1.26,-1.26,-1.24,-1.64,-2.66,-2.64,-2.65
296.57,-1.36,1.26,-1.37,1.25,-1.24,-1.23,-1.62,-2.60,-2.62,-2.63
299.53,-1.36,1.24,-1.36,1.24,-1.23,-1.22,-1.60,-2.59,-2.59,-2.61
302.53,-1.36,1.22,-1.36,1.23,-1.21,-1.21,-1.58,-2.57,-2.57,-2.59
305.55,-1.36,1.19,-1.36,1.20,-1.19,-1.20,-1.55,-2.55,-2.55,-2.56
308.61,-1.36,1.17,-1.36,1.17,-1.17,-1.18,-1.53,-2.54,-2.54,-2.54
311.69,-1.36,1.14,-1.37,1.14,-1.15,-1.17,-1.51,-2.51,-2.52,-2.51
314.81,-1.36,1.11,-1.36,1.12,-1.13,-1.16,-1.48,-2.50,-2.49,-2.48
317.96,-1.36,1.09,-1.34,1.11,-1.12,-1.14,-1.46,-2.48,-2.46,-2.46
321.14,-1.31,1.12,-1.33,1.11,-1.11,-1.12,-1.44,-2.42,-2.43,-2.44
324.35,-1.31,1.10,-1.31,1.10,-1.10,-1.11,-1.42,-2.41,-2.41,-2.42
327.59,-1.31,1.08,-1.31,1.09,-1.09,-1.09,-1.40,-2.40,-2.40,-2.40
330.87,-1.31,1.06,-1.30,1.07,-1.08,-1.07,-1.38,-2.39,-2.38,-2.38
334.18,-1.29,1.06,-1.28,1.07,-1.07,-1.04,-1.36,-2.36,-2.35,-2.36
337.52,-1.26,1.07,-1.27,1.06,-1.05,-1.02,-1.34,-2.31,-2.32,-2.34
340.90,-1.26,1.05,-1.27,1.05,-1.03,-0.99,-1.32,-2.29,-2.30,-2.32
344.30,-1.29,1.00,-1.28,1.01,-1.01,-0.97,-1.31,-2.30,-2.29,-2.30
347.75,-1.31,0.96,-1.31,0.97,-0.97,-0.94,-1.29,-2.28,-2.28,-2.28
351.23,-1.32,0.93,-1.33,0.93,-0.94,-0.90,-1.28,-2.26,-2.27,-2.26
354.74,-1.36,0.87,-1.35,0.89,-0.89,-0.87,-1.27,-2.25,-2.24,-2.24
358.28,-1.38,0.84,-1.38,0.84,-0.83,-0.83,-1.25,-2.21,-2.21,-2.23
361.87,-1.41,0.79,-1.42,0.79,-0.77,-0.79,-1.24,-2.19,-2.19,-2.21
365.49,-1.46,0.72,-1.46,0.73,-0.71,-0.75,-1.23,-2.17,-2.18,-2.19
369.14,-1.52,0.65,-1.52,0.65,-0.65,-0.70,-1.22,-2.17,-2.17,-2.18
372.83,-1.58,0.57,-1.58,0.58,-0.59,-0.65,-1.22,-2.17,-2.17,-2.16
376.56,-1.63,0.51,-1.63,0.51,-0.53,-0.60,-1.21,-2.16,-2.16,-2.15
380.33,-1.68,0.44,-1.67,0.45,-0.46,-0.54,-1.20,-2.14,-2.14,-2.13
384.13,-1.71,0.40,-1.71,0.40,-0.40,-0.49,-1.20,-2.11,-2.11,-2.12
387.97,-1.74,0.36,-1.75,0.35,-0.34,-0.43,-1.19,-2.08,-2.09,-2.11
391.85,-1.80,0.29,-1.79,0.30,-0.29,-0.37,-1.19,-2.09,-2.08,-2.10
395.77,-1.83,0.24,-1.83,0.25,-0.25,-0.32,-1.19,-2.08,-2.08,-2.08
399.73,-1.87,0.19,-1.87,0.20,-0.21,-0.27,-1.19,-2.08,-2.08,-2.07
403.72,-1.89,0.16,-1.89,0.16,-0.17,-0.22,-1.18,-2.06,-2.07,-2.06
407.76,-1.92,0.12,-1.91,0.13,-0.14,-0.18,-1.18,-2.06,-2.05,-2.05
411.84,-1.92,0.11,-1.92,0.11,-0.11,-0.15,-1.18,-2.03,-2.03,-2.04
415.96,-1.92,0.10,-1.92,0.10,-0.09,-0.13,-1.18,-2.01,-2.02,-2.03
420.12,-1.92,0.09,-1.92,0.09,-0.08,-0.13,-1.19,-2.00,-2.00,-2.02
424.32,-1.92,0.08,-1.92,0.08,-0.07,-0.13,-1.19,-1.99,-2.00,-2.01
428.56,-1.92,0.07,-1.92,0.07,-0.08,-0.15,-1.19,-2.00,-2.00,-2.00
432.85,-1.92,0.06,-1.91,0.07,-0.09,-0.18,-1.19,-2.01,-2.00,-1.99
437.18,-1.88,0.09,-1.88,0.09,-0.11,-0.21,-1.19,-1.99,-1.99,-1.98
441.55,-1.84,0.11,-1.84,0.12,-0.13,-0.25,-1.20,-1.97,-1.97,-1.96
445.96,-1.78,0.16,-1.78,0.17,-0.17,-0.30,-1.20,-1.95,-1.95,-1.95
450.42,-1.71,0.22,-1.71,0.22,-0.21,-0.35,-1.20,-1.92,-1.92,-1.94
454.93,-1.64,0.27,-1.65,0.27,-0.26,-0.41,-1.20,-1.90,-1.90,-1.92
459.48,-1.58,0.32,-1.58,0.32,-0.31,-0.46,-1.21,-1.90,-1.90,-1.91
464.07,-1.52,0.37,-1.52,0.37,-0.37,-0.51,-1.21,-1.89,-1.89,-1.90
