frequency,raw,error,smoothed,error_smoothed,equalization,parametric_eq,fixed_band_eq,equalized_raw,equalized_smoothed,target
20.00,-12.30,-12.34,-13.27,-13.34,13.34,14.30,5.51,1.04,0.06,0.04
20.20,-12.91,-12.99,-13.67,-13.76,13.76,14.23,5.65,0.85,0.09,0.08
20.40,-13.54,-13.65,-14.01,-14.12,14.12,14.17,5.79,0.59,0.12,0.11
20.61,-14.13,-14.27,-14.28,-14.42,14.42,14.10,5.93,0.29,0.14,0.14
20.81,-14.77,-14.95,-14.48,-14.65,14.65,14.04,6.08,-0.11,0.17,0.18
21.02,-15.31,-15.53,-14.63,-14.82,14.82,13.97,6.23,-0.49,0.19,0.22
21.23,-15.30,-15.53,-14.71,-14.93,14.93,13.89,6.38,-0.37,0.21,0.23
21.44,-15.28,-15.53,-14.73,-14.97,14.97,13.82,6.54,-0.31,0.23,0.25
21.66,-15.27,-15.54,-14.69,-14.94,14.94,13.75,6.70,-0.33,0.25,0.27
21.87,-15.26,-15.54,-14.58,-14.85,14.85,13.67,6.87,-0.41,0.27,0.28
22.09,-15.18,-15.47,-14.42,-14.70,14.70,13.59,7.04,-0.48,0.28,0.29
22.31,-15.02,-15.31,-14.18,-14.48,14.48,13.51,7.22,-0.54,0.30,0.29
22.54,-14.87,-15.17,-13.47,-13.78,13.78,13.43,7.40,-1.09,0.31,0.30
22.76,-14.71,-15.02,-12.80,-13.12,13.12,13.35,7.59,-1.59,0.32,0.31
22.99,-14.55,-14.86,-12.19,-12.51,12.51,13.27,7.78,-2.04,0.32,0.31
23.22,-12.57,-12.89,-11.65,-11.98,11.98,13.18,7.98,-0.59,0.33,0.32
23.45,-10.48,-10.81,-11.20,-11.54,11.54,13.10,8.18,1.06,0.34,0.33
23.69,-8.44,-8.78,-10.87,-11.22,11.22,13.01,8.38,2.77,0.34,0.34
23.92,-6.35,-6.70,-10.63,-10.98,10.98,12.92,8.60,4.63,0.35,0.35
24.16,-6.89,-7.25,-10.48,-10.83,10.83,12.84,8.81,3.95,0.35,0.36
24.40,-8.68,-9.05,-10.43,-10.79,10.79,12.75,9.03,2.11,0.35,0.37
24.65,-10.41,-10.77,-10.49,-10.84,10.84,12.66,9.26,0.43,0.36,0.36
24.89,-12.21,-12.57,-10.64,-10.99,10.99,12.57,9.49,-1.22,0.36,0.36
25.14,-12.95,-13.31,-10.88,-11.24,11.24,12.48,9.73,-1.71,0.36,0.36
25.39,-12.94,-13.30,-11.20,-11.56,11.56,12.39,9.97,-1.38,0.36,0.36
25.65,-12.93,-13.29,-11.61,-11.97,11.97,12.30,10.22,-0.96,0.36,0.36
25.91,-12.91,-13.25,-12.11,-12.46,12.46,12.20,10.47,-0.45,0.36,0.34
26.16,-12.85,-13.20,-12.55,-12.91,12.91,12.11,10.72,0.06,0.36,0.35
26.43,-12.75,-13.10,-12.89,-13.24,13.24,12.02,10.98,0.49,0.35,0.35
26.69,-12.65,-13.00,-13.04,-13.39,13.39,11.93,11.23,0.74,0.35,0.35
26.96,-12.56,-12.91,-12.94,-13.29,13.29,11.83,11.49,0.73,0.35,0.35
27.23,-12.39,-12.74,-12.71,-13.06,13.06,11.74,11.75,0.67,0.34,0.35
27.50,-12.20,-12.55,-12.46,-12.80,12.80,11.65,12.00,0.60,0.34,0.35
27.77,-12.02,-12.36,-12.23,-12.57,12.57,11.55,12.26,0.55,0.34,0.34
28.05,-11.87,-12.21,-12.05,-12.39,12.39,11.46,12.50,0.52,0.34,0.34
28.33,-11.86,-12.18,-11.91,-12.25,12.25,11.37,12.74,0.39,0.34,0.32
28.62,-11.86,-12.19,-11.76,-12.10,12.10,11.27,12.97,0.24,0.33,0.33
28.90,-11.85,-12.18,-11.61,-11.95,11.95,11.18,13.18,0.10,0.33,0.33
29.19,-11.68,-12.00,-11.46,-11.79,11.79,11.08,13.38,0.11,0.33,0.32
29.48,-11.42,-11.75,-11.32,-11.64,11.64,10.99,13.56,0.23,0.32,0.33
29.78,-11.16,-11.49,-11.18,-11.50,11.50,10.90,13.72,0.34,0.32,0.33
30.08,-10.93,-11.26,-11.05,-11.37,11.37,10.80,13.85,0.44,0.32,0.33
30.38,-10.80,-11.11,-10.93,-11.25,11.25,10.71,13.96,0.44,0.31,0.31
30.68,-10.68,-10.99,-10.81,-11.12,11.12,10.62,14.03,0.44,0.31,0.31
30.99,-10.56,-10.86,-10.68,-10.98,10.98,10.52,14.08,0.42,0.30,0.30
31.30,-10.46,-10.76,-10.54,-10.83,10.83,10.43,14.09,0.37,0.30,0.30
31.61,-10.37,-10.67,-10.39,-10.68,10.68,10.34,14.07,0.31,0.29,0.30
31.93,-10.28,-10.56,-10.25,-10.54,10.54,10.24,14.02,0.26,0.29,0.28
32.24,-10.20,-10.47,-10.12,-10.41,10.41,10.15,13.94,0.21,0.28,0.27
32.57,-10.13,-10.40,-10.01,-10.29,10.29,10.06,13.83,0.16,0.28,0.27
32.89,-10.05,-10.32,-9.89,-10.17,10.17,9.97,13.69,0.12,0.27,0.27
33.22,-9.88,-10.15,-9.78,-10.04,10.04,9.88,13.53,0.16,0.27,0.27
33.55,-9.65,-9.91,-9.65,-9.91,9.91,9.78,13.36,0.27,0.26,0.26
33.89,-9.42,-9.68,-9.52,-9.78,9.78,9.69,13.16,0.36,0.26,0.26
34.23,-9.29,-9.55,-9.38,-9.64,9.64,9.60,12.95,0.35,0.25,0.26
34.57,-9.21,-9.46,-9.25,-9.50,9.50,9.51,12.73,0.29,0.25,0.25
34.92,-9.14,-9.38,-9.11,-9.35,9.35,9.42,12.51,0.21,0.24,0.24
35.27,-9.00,-9.24,-8.97,-9.21,9.21,9.33,12.27,0.21,0.24,0.24
35.62,-8.84,-9.07,-8.84,-9.07,9.07,9.24,12.03,0.23,0.23,0.23
35.97,-8.68,-8.90,-8.71,-8.94,8.94,9.15,11.79,0.26,0.23,0.22
36.33,-8.59,-8.81,-8.59,-8.81,8.81,9.06,11.55,0.22,0.22,0.22
36.70,-8.50,-8.72,-8.49,-8.70,8.70,8.97,11.31,0.20,0.21,0.22
37.06,-8.41,-8.61,-8.41,-8.61,8.61,8.89,11.08,0.20,0.20,0.20
37.43,-8.31,-8.51,-8.33,-8.53,8.53,8.80,10.84,0.22,0.20,0.20
37.81,-8.21,-8.40,-8.25,-8.45,8.45,8.71,10.61,0.23,0.19,0.19
38.19,-8.13,-8.31,-8.18,-8.36,8.36,8.62,10.38,0.23,0.19,0.18
38.57,-8.06,-8.24,-8.10,-8.28,8.28,8.54,10.16,0.22,0.18,0.18
38.95,-7.99,-8.16,-8.03,-8.20,8.20,8.45,9.94,0.21,0.17,0.17
39.34,-7.97,-8.13,-7.96,-8.13,8.13,8.36,9.72,0.16,0.17,0.16
39.74,-7.96,-8.10,-7.90,-8.06,8.06,8.28,9.51,0.10,0.16,0.14
40.14,-7.92,-8.07,-7.84,-7.99,7.99,8.19,9.31,0.07,0.15,0.15
40.54,-7.84,-7.98,-7.77,-7.91,7.91,8.11,9.11,0.07,0.14,0.14
40.94,-7.76,-7.90,-7.71,-7.84,7.84,8.02,8.92,0.08,0.13,0.14
41.35,-7.67,-7.79,-7.65,-7.77,7.77,7.94,8.74,0.10,0.11,0.12
41.76,-7.57,-7.67,-7.59,-7.69,7.69,7.86,8.55,0.12,0.09,0.10
42.18,-7.48,-7.57,-7.53,-7.60,7.60,7.77,8.38,0.12,0.07,0.09
42.60,-7.38,-7.44,-7.46,-7.51,7.51,7.69,8.21,0.13,0.05,0.06
43.03,-7.29,-7.34,-7.39,-7.42,7.42,7.61,8.05,0.13,0.03,0.05
43.46,-7.29,-7.31,-7.31,-7.31,7.31,7.53,7.89,0.02,0.00,0.02
43.90,-7.29,-7.26,-7.22,-7.19,7.19,7.45,7.73,-0.10,-0.03,-0.03
44.33,-7.22,-7.16,-7.13,-7.08,7.08,7.37,7.59,-0.14,-0.05,-0.06
44.78,-7.12,-7.03,-7.05,-6.97,6.97,7.29,7.44,-0.15,-0.08,-0.09
45.23,-7.02,-6.90,-6.97,-6.87,6.87,7.21,7.30,-0.16,-0.11,-0.12
45.68,-6.91,-6.76,-6.89,-6.76,6.76,7.13,7.17,-0.15,-0.13,-0.15
46.13,-6.81,-6.64,-6.81,-6.65,6.65,7.05,7.04,-0.15,-0.15,-0.17
46.60,-6.70,-6.52,-6.72,-6.55,6.55,6.97,6.92,-0.15,-0.17,-0.18
47.06,-6.60,-6.40,-6.63,-6.44,6.44,6.89,6.80,-0.16,-0.19,-0.20
47.53,-6.49,-6.29,-6.55,-6.35,6.35,6.82,6.69,-0.14,-0.20,-0.20
48.01,-6.38,-6.18,-6.46,-6.25,6.25,6.74,6.58,-0.13,-0.21,-0.20
48.49,-6.38,-6.16,-6.37,-6.16,6.16,6.67,6.47,-0.22,-0.21,-0.22
48.97,-6.38,-6.15,-6.30,-6.09,6.09,6.59,6.37,-0.29,-0.22,-0.23
49.46,-6.27,-6.03,-6.24,-6.02,6.02,6.52,6.27,-0.25,-0.22,-0.24
49.96,-6.16,-5.92,-6.18,-5.96,5.96,6.44,6.18,-0.20,-0.22,-0.24
50.46,-6.07,-5.84,-6.13,-5.90,5.90,6.37,6.09,-0.17,-0.23,-0.23
50.96,-5.98,-5.76,-6.08,-5.84,5.84,6.29,6.00,-0.14,-0.24,-0.22
51.47,-6.01,-5.78,-6.04,-5.79,5.79,6.22,5.91,-0.22,-0.25,-0.23
51.99,-6.05,-5.80,-6.00,-5.74,5.74,6.15,5.83,-0.31,-0.26,-0.25
52.51,-5.99,-5.73,-5.96,-5.68,5.68,6.08,5.76,-0.31,-0.28,-0.26
53.03,-5.93,-5.64,-5.92,-5.61,5.61,6.01,5.68,-0.32,-0.31,-0.29
53.56,-5.93,-5.61,-5.87,-5.53,5.53,5.94,5.61,-0.40,-0.34,-0.32
54.10,-5.91,-5.55,-5.81,-5.44,5.44,5.87,5.54,-0.47,-0.37,-0.36
54.64,-5.78,-5.37,-5.77,-5.36,5.36,5.80,5.47,-0.43,-0.41,-0.41
55.18,-5.70,-5.24,-5.73,-5.28,5.28,5.73,5.41,-0.42,-0.46,-0.46
55.74,-5.70,-5.19,-5.70,-5.19,5.19,5.67,5.34,-0.51,-0.51,-0.51
56.29,-5.70,-5.14,-5.67,-5.10,5.10,5.60,5.28,-0.60,-0.56,-0.56
56.86,-5.70,-5.08,-5.63,-5.01,5.01,5.54,5.22,-0.69,-0.62,-0.62
57.42,-5.60,-4.91,-5.60,-4.92,4.92,5.47,5.16,-0.67,-0.68,-0.69
58.00,-5.47,-4.72,-5.58,-4.84,4.84,5.41,5.11,-0.63,-0.74,-0.75
58.58,-5.47,-4.66,-5.58,-4.78,4.78,5.34,5.05,-0.69,-0.80,-0.81
59.16,-5.51,-4.65,-5.58,-4.72,4.72,5.28,5.00,-0.79,-0.87,-0.86
59.76,-5.64,-4.72,-5.60,-4.67,4.67,5.22,4.94,-0.97,-0.93,-0.92
60.35,-5.69,-4.70,-5.63,-4.64,4.64,5.16,4.89,-1.05,-0.99,-0.99
60.96,-5.70,-4.66,-5.68,-4.63,4.63,5.10,4.84,-1.07,-1.05,-1.04
61.57,-5.70,-4.59,-5.73,-4.63,4.63,5.04,4.78,-1.07,-1.11,-1.11
62.18,-5.74,-4.56,-5.80,-4.64,4.64,4.98,4.73,-1.10,-1.16,-1.18
62.80,-5.89,-4.67,-5.89,-4.67,4.67,4.92,4.68,-1.22,-1.22,-1.22
63.43,-5.97,-4.69,-5.98,-4.72,4.72,4.86,4.63,-1.25,-1.27,-1.28
64.07,-6.03,-4.71,-6.09,-4.77,4.77,4.81,4.58,-1.25,-1.32,-1.32
64.71,-6.15,-4.78,-6.20,-4.84,4.84,4.75,4.53,-1.31,-1.36,-1.37
65.35,-6.26,-4.84,-6.30,-4.89,4.89,4.70,4.48,-1.37,-1.41,-1.42
66.01,-6.38,-4.93,-6.39,-4.94,4.94,4.64,4.43,-1.44,-1.45,-1.45
66.67,-6.53,-5.04,-6.48,-4.99,4.99,4.59,4.38,-1.53,-1.49,-1.49
67.33,-6.64,-5.12,-6.57,-5.05,5.05,4.54,4.33,-1.59,-1.52,-1.52
68.01,-6.71,-5.16,-6.66,-5.10,5.10,4.49,4.29,-1.60,-1.55,-1.55
68.69,-6.80,-5.22,-6.73,-5.14,5.14,4.44,4.24,-1.66,-1.58,-1.58
69.37,-6.84,-5.22,-6.78,-5.16,5.16,4.39,4.19,-1.68,-1.61,-1.62
70.07,-6.84,-5.19,-6.81,-5.17,5.17,4.34,4.15,-1.67,-1.64,-1.65
70.77,-6.84,-5.18,-6.84,-5.17,5.17,4.29,4.11,-1.67,-1.67,-1.66
71.48,-6.84,-5.14,-6.85,-5.15,5.15,4.25,4.06,-1.69,-1.71,-1.70
72.19,-6.84,-5.12,-6.85,-5.11,5.11,4.20,4.02,-1.73,-1.73,-1.72
72.91,-6.84,-5.08,-6.83,-5.07,5.07,4.16,3.98,-1.77,-1.76,-1.76
73.64,-6.84,-5.05,-6.80,-5.01,5.01,4.11,3.94,-1.83,-1.79,-1.79
74.38,-6.78,-4.96,-6.76,-4.94,4.94,4.07,3.91,-1.84,-1.82,-1.82
75.12,-6.66,-4.81,-6.71,-4.86,4.86,4.03,3.87,-1.80,-1.85,-1.85
75.87,-6.62,-4.74,-6.66,-4.78,4.78,3.99,3.84,-1.84,-1.88,-1.88
76.63,-6.61,-4.70,-6.61,-4.70,4.70,3.96,3.81,-1.91,-1.91,-1.91
77.40,-6.59,-4.65,-6.55,-4.62,4.62,3.92,3.78,-1.97,-1.93,-1.94
78.17,-6.52,-4.55,-6.49,-4.53,4.53,3.88,3.75,-1.99,-1.96,-1.97
78.95,-6.39,-4.41,-6.43,-4.45,4.45,3.85,3.73,-1.94,-1.98,-1.98
79.74,-6.38,-4.38,-6.36,-4.36,4.36,3.81,3.71,-2.02,-2.00,-2.00
80.54,-6.30,-4.28,-6.30,-4.28,4.28,3.78,3.69,-2.02,-2.01,-2.02
81.35,-6.21,-4.17,-6.24,-4.21,4.21,3.75,3.67,-2.00,-2.03,-2.04
82.16,-6.15,-4.11,-6.18,-4.14,4.14,3.72,3.65,-2.01,-2.04,-2.04
82.98,-6.15,-4.11,-6.13,-4.08,4.08,3.69,3.64,-2.07,-2.04,-2.04
83.81,-6.15,-4.10,-6.07,-4.03,4.03,3.67,3.63,-2.12,-2.05,-2.05
84.65,-6.01,-3.95,-6.03,-3.98,3.98,3.64,3.62,-2.03,-2.05,-2.06
85.50,-5.93,-3.88,-5.99,-3.94,3.94,3.62,3.61,-1.99,-2.05,-2.05
86.35,-5.93,-3.88,-5.96,-3.92,3.92,3.59,3.61,-2.01,-2.05,-2.05
87.22,-5.93,-3.88,-5.95,-3.91,3.91,3.57,3.61,-2.02,-2.05,-2.05
88.09,-5.93,-3.88,-5.95,-3.90,3.90,3.55,3.61,-2.03,-2.04,-2.05
88.97,-5.93,-3.90,-5.95,-3.91,3.91,3.53,3.62,-2.02,-2.04,-2.03
89.86,-5.93,-3.90,-5.96,-3.92,3.92,3.52,3.62,-2.01,-2.05,-2.03
90.76,-5.93,-3.88,-5.98,-3.93,3.93,3.50,3.63,-2.00,-2.05,-2.05
91.66,-5.93,-3.89,-5.99,-3.94,3.94,3.49,3.64,-1.99,-2.05,-2.04
92.58,-6.01,-3.94,-6.01,-3.95,3.95,3.47,3.66,-2.06,-2.06,-2.07
93.51,-6.11,-4.05,-6.03,-3.95,3.95,3.46,3.67,-2.16,-2.07,-2.06
94.44,-6.15,-4.07,-6.05,-3.97,3.97,3.45,3.69,-2.18,-2.08,-2.08
95.39,-6.15,-4.06,-6.08,-3.98,3.98,3.44,3.71,-2.17,-2.10,-2.09
96.34,-6.15,-4.02,-6.10,-3.98,3.98,3.43,3.73,-2.17,-2.12,-2.13
97.30,-6.15,-4.00,-6.12,-3.98,3.98,3.43,3.76,-2.17,-2.14,-2.15
98.28,-6.15,-3.98,-6.15,-3.98,3.98,3.42,3.78,-2.17,-2.17,-2.17
99.26,-6.15,-3.95,-6.18,-3.98,3.98,3.42,3.81,-2.17,-2.20,-2.20
100.25,-6.15,-3.92,-6.21,-3.98,3.98,3.42,3.84,-2.17,-2.23,-2.23
101.25,-6.15,-3.89,-6.24,-3.98,3.98,3.42,3.87,-2.17,-2.26,-2.26
102.27,-6.18,-3.88,-6.26,-3.96,3.96,3.42,3.90,-2.22,-2.31,-2.30
103.29,-6.30,-3.95,-6.29,-3.94,3.94,3.42,3.93,-2.36,-2.35,-2.35
104.32,-6.38,-3.99,-6.33,-3.93,3.93,3.42,3.96,-2.45,-2.40,-2.39
105.37,-6.38,-3.94,-6.37,-3.92,3.92,3.43,3.99,-2.46,-2.45,-2.44
106.42,-6.38,-3.89,-6.42,-3.91,3.91,3.43,4.03,-2.47,-2.51,-2.49
107.48,-6.48,-3.92,-6.47,-3.90,3.90,3.44,4.06,-2.58,-2.57,-2.56
108.56,-6.60,-3.96,-6.53,-3.89,3.89,3.45,4.09,-2.71,-2.64,-2.64
109.64,-6.61,-3.90,-6.58,-3.87,3.87,3.46,4.11,-2.74,-2.71,-2.71
110.74,-6.61,-3.84,-6.63,-3.85,3.85,3.47,4.14,-2.76,-2.78,-2.77
111.85,-6.61,-3.77,-6.68,-3.83,3.83,3.48,4.17,-2.78,-2.85,-2.84
112.97,-6.63,-3.70,-6.72,-3.79,3.79,3.49,4.19,-2.84,-2.92,-2.93
114.10,-6.84,-3.85,-6.75,-3.75,3.75,3.50,4.21,-3.09,-3.00,-2.99
115.24,-6.84,-3.77,-6.76,-3.70,3.70,3.51,4.22,-3.14,-3.06,-3.07
116.39,-6.84,-3.69,-6.78,-3.65,3.65,3.52,4.24,-3.19,-3.13,-3.15
117.55,-6.84,-3.63,-6.81,-3.61,3.61,3.53,4.25,-3.23,-3.19,-3.21
118.73,-6.84,-3.56,-6.83,-3.58,3.58,3.55,4.25,-3.26,-3.25,-3.28
119.92,-6.84,-3.52,-6.85,-3.55,3.55,3.56,4.25,-3.29,-3.31,-3.32
121.12,-6.84,-3.46,-6.87,-3.52,3.52,3.57,4.24,-3.32,-3.36,-3.38
122.33,-6.84,-3.42,-6.89,-3.49,3.49,3.58,4.23,-3.35,-3.40,-3.42
123.55,-6.84,-3.40,-6.91,-3.46,3.46,3.59,4.22,-3.38,-3.45,-3.44
124.79,-6.84,-3.36,-6.91,-3.43,3.43,3.60,4.20,-3.41,-3.49,-3.48
126.03,-6.84,-3.32,-6.91,-3.39,3.39,3.61,4.17,-3.45,-3.52,-3.52
127.29,-6.91,-3.36,-6.90,-3.34,3.34,3.61,4.14,-3.57,-3.56,-3.55
128.57,-7.02,-3.43,-6.89,-3.30,3.30,3.62,4.10,-3.72,-3.59,-3.59
129.85,-7.07,-3.45,-6.89,-3.27,3.27,3.62,4.05,-3.80,-3.62,-3.62
131.15,-7.02,-3.37,-6.89,-3.24,3.24,3.62,4.00,-3.78,-3.65,-3.65
132.46,-6.89,-3.21,-6.89,-3.21,3.21,3.62,3.95,-3.68,-3.69,-3.68
133.79,-6.84,-3.13,-6.90,-3.18,3.18,3.62,3.89,-3.66,-3.72,-3.71
135.12,-6.84,-3.08,-6.91,-3.15,3.15,3.61,3.83,-3.69,-3.75,-3.76
136.48,-6.84,-3.05,-6.91,-3.13,3.13,3.60,3.76,-3.71,-3.79,-3.79
137.84,-6.84,-3.02,-6.92,-3.10,3.10,3.59,3.69,-3.74,-3.82,-3.82
139.22,-6.84,-2.97,-6.93,-3.08,3.08,3.58,3.62,-3.76,-3.86,-3.87
140.61,-6.84,-2.92,-6.94,-3.05,3.05,3.56,3.54,-3.79,-3.90,-3.92
142.02,-6.95,-3.01,-6.95,-3.01,3.01,3.54,3.46,-3.94,-3.94,-3.94
143.44,-7.04,-3.06,-6.96,-2.97,2.97,3.51,3.38,-4.07,-3.98,-3.98
144.87,-7.07,-3.05,-6.97,-2.93,2.93,3.48,3.30,-4.14,-4.03,-4.02
146.32,-7.07,-3.00,-6.98,-2.89,2.89,3.45,3.21,-4.18,-4.09,-4.07
147.78,-7.07,-2.96,-7.00,-2.85,2.85,3.41,3.12,-4.22,-4.15,-4.11
149.26,-7.07,-2.89,-7.02,-2.81,2.81,3.37,3.04,-4.26,-4.21,-4.18
150.75,-7.07,-2.81,-7.05,-2.77,2.77,3.33,2.95,-4.30,-4.28,-4.26
152.26,-7.07,-2.74,-7.08,-2.73,2.73,3.28,2.86,-4.34,-4.35,-4.33
153.78,-7.07,-2.67,-7.11,-2.69,2.69,3.23,2.77,-4.38,-4.42,-4.40
155.32,-7.07,-2.57,-7.14,-2.65,2.65,3.17,2.68,-4.42,-4.49,-4.50
156.88,-7.07,-2.50,-7.18,-2.62,2.62,3.12,2.59,-4.45,-4.56,-4.57
158.44,-7.07,-2.43,-7.21,-2.58,2.58,3.05,2.50,-4.49,-4.63,-4.64
160.03,-7.13,-2.41,-7.25,-2.55,2.55,2.99,2.41,-4.58,-4.70,-4.72
161.63,-7.26,-2.48,-7.29,-2.53,2.53,2.92,2.33,-4.73,-4.76,-4.78
163.24,-7.43,-2.60,-7.33,-2.52,2.52,2.85,2.24,-4.91,-4.81,-4.83
164.88,-7.52,-2.65,-7.37,-2.52,2.52,2.77,2.16,-5.00,-4.85,-4.87
166.53,-7.52,-2.61,-7.42,-2.53,2.53,2.69,2.07,-4.99,-4.89,-4.91
168.19,-7.52,-2.58,-7.45,-2.54,2.54,2.61,1.99,-4.98,-4.91,-4.94
169.87,-7.52,-2.57,-7.50,-2.56,2.56,2.53,1.91,-4.96,-4.93,-4.95
171.57,-7.52,-2.56,-7.53,-2.59,2.59,2.44,1.82,-4.93,-4.94,-4.96
173.29,-7.52,-2.56,-7.55,-2.60,2.60,2.36,1.74,-4.92,-4.95,-4.96
175.02,-7.52,-2.58,-7.57,-2.62,2.62,2.27,1.67,-4.90,-4.95,-4.94
176.77,-7.52,-2.57,-7.57,-2.62,2.62,2.18,1.59,-4.90,-4.95,-4.95
178.54,-7.52,-2.58,-7.56,-2.61,2.61,2.09,1.51,-4.91,-4.95,-4.94
180.32,-7.52,-2.59,-7.54,-2.59,2.59,1.99,1.44,-4.93,-4.95,-4.93
182.13,-7.52,-2.59,-7.51,-2.56,2.56,1.90,1.36,-4.96,-4.95,-4.93
183.95,-7.52,-2.59,-7.48,-2.53,2.53,1.80,1.29,-4.99,-4.96,-4.93
185.79,-7.52,-2.58,-7.45,-2.49,2.49,1.71,1.22,-5.03,-4.96,-4.94
187.65,-7.52,-2.56,-7.40,-2.43,2.43,1.61,1.15,-5.09,-4.97,-4.96
189.52,-7.34,-2.36,-7.34,-2.37,2.37,1.52,1.08,-4.97,-4.98,-4.98
191.42,-7.29,-2.29,-7.28,-2.29,2.29,1.42,1.01,-5.00,-4.99,-5.00
193.33,-7.29,-2.27,-7.22,-2.21,2.21,1.32,0.94,-5.08,-5.01,-5.02
195.27,-7.19,-2.17,-7.16,-2.13,2.13,1.23,0.87,-5.06,-5.03,-5.02
197.22,-7.09,-2.05,-7.10,-2.06,2.06,1.13,0.81,-5.03,-5.04,-5.04
199.19,-7.06,-1.98,-7.05,-1.99,1.99,1.04,0.74,-5.07,-5.06,-5.08
201.18,-6.93,-1.85,-7.02,-1.94,1.94,0.94,0.68,-4.99,-5.08,-5.08
203.19,-6.84,-1.74,-7.00,-1.90,1.90,0.85,0.62,-4.94,-5.10,-5.10
205.23,-6.84,-1.71,-6.99,-1.87,1.87,0.75,0.56,-4.97,-5.12,-5.13
207.28,-6.84,-1.71,-7.00,-1.86,1.86,0.66,0.50,-4.98,-5.14,-5.13
209.35,-6.84,-1.69,-7.00,-1.85,1.85,0.57,0.43,-4.99,-5.15,-5.15
211.44,-6.96,-1.78,-7.01,-1.84,1.84,0.48,0.38,-5.12,-5.17,-5.18
213.56,-7.06,-1.88,-7.00,-1.82,1.82,0.39,0.32,-5.24,-5.18,-5.18
215.69,-7.07,-1.89,-6.97,-1.78,1.78,0.30,0.26,-5.29,-5.19,-5.18
217.85,-7.07,-1.86,-6.94,-1.73,1.73,0.21,0.20,-5.34,-5.21,-5.21
220.03,-7.07,-1.85,-6.89,-1.67,1.67,0.12,0.15,-5.40,-5.22,-5.22
222.23,-7.07,-1.83,-6.82,-1.59,1.59,0.03,0.09,-5.48,-5.23,-5.24
224.45,-6.96,-1.72,-6.73,-1.50,1.50,-0.05,0.04,-5.46,-5.24,-5.24
226.70,-6.78,-1.54,-6.63,-1.39,1.39,-0.14,-0.02,-5.39,-5.25,-5.24
228.96,-6.49,-1.24,-6.51,-1.26,1.26,-0.22,-0.07,-5.23,-5.25,-5.25
231.25,-6.23,-0.98,-6.37,-1.12,1.12,-0.30,-0.12,-5.11,-5.26,-5.25
233.57,-6.12,-0.86,-6.23,-0.97,0.97,-0.39,-0.17,-5.15,-5.26,-5.26
235.90,-5.90,-0.63,-6.07,-0.81,0.81,-0.47,-0.22,-5.09,-5.26,-5.27
238.26,-5.75,-0.48,-5.92,-0.65,0.65,-0.55,-0.27,-5.10,-5.26,-5.27
240.64,-5.70,-0.43,-5.77,-0.51,0.51,-0.63,-0.32,-5.19,-5.26,-5.27
243.05,-5.54,-0.28,-5.63,-0.37,0.37,-0.71,-0.37,-5.17,-5.26,-5.26
245.48,-5.47,-0.22,-5.50,-0.25,0.25,-0.78,-0.41,-5.22,-5.25,-5.25
247.93,-5.47,-0.23,-5.39,-0.14,0.14,-0.86,-0.46,-5.33,-5.25,-5.24
250.41,-5.28,-0.03,-5.28,-0.03,0.03,-0.94,-0.51,-5.25,-5.24,-5.25
252.92,-5.20,0.04,-5.17,0.06,-0.06,-1.01,-0.55,-5.26,-5.24,-5.24
255.45,-5.04,0.17,-5.07,0.16,-0.16,-1.09,-0.59,-5.20,-5.23,-5.21
258.00,-5.01,0.20,-4.95,0.27,-0.27,-1.16,-0.64,-5.28,-5.22,-5.21
260.58,-4.87,0.34,-4.83,0.38,-0.38,-1.24,-0.68,-5.25,-5.21,-5.21
263.19,-4.78,0.41,-4.70,0.49,-0.49,-1.31,-0.73,-5.27,-5.19,-5.19
265.82,-4.58,0.61,-4.56,0.62,-0.62,-1.39,-0.77,-5.20,-5.18,-5.19
268.48,-4.50,0.66,-4.40,0.76,-0.76,-1.46,-0.81,-5.26,-5.16,-5.16
271.16,-4.28,0.87,-4.23,0.92,-0.92,-1.54,-0.85,-5.20,-5.14,-5.15
273.87,-4.02,1.12,-4.05,1.08,-1.08,-1.61,-0.90,-5.09,-5.13,-5.14
276.61,-3.76,1.34,-3.87,1.23,-1.23,-1.69,-0.94,-4.99,-5.10,-5.10
279.38,-3.66,1.43,-3.69,1.39,-1.39,-1.77,-0.98,-5.05,-5.08,-5.09
282.17,-3.48,1.58,-3.51,1.55,-1.55,-1.85,-1.02,-5.03,-5.06,-5.06
284.99,-3.37,1.66,-3.32,1.71,-1.71,-1.93,-1.07,-5.08,-5.03,-5.03
287.84,-3.16,1.85,-3.12,1.88,-1.88,-2.01,-1.11,-5.04,-5.00,-5.01
290.72,-2.90,2.07,-2.92,2.05,-2.05,-2.09,-1.15,-4.95,-4.97,-4.97
293.63,-2.64,2.31,-2.73,2.22,-2.22,-2.17,-1.20,-4.86,-4.95,-4.95
296.57,-2.52,2.40,-2.54,2.38,-2.38,-2.26,-1.24,-4.91,-4.92,-4.92
299.53,-2.34,2.55,-2.35,2.55,-2.55,-2.35,-1.29,-4.89,-4.90,-4.89
302.53,-2.28,2.60,-2.17,2.70,-2.70,-2.45,-1.34,-4.98,-4.87,-4.88
305.55,-2.05,2.79,-2.00,2.85,-2.85,-2.54,-1.38,-4.90,-4.85,-4.84
308.61,-1.79,3.03,-1.83,3.01,-3.01,-2.65,-1.43,-4.80,-4.84,-4.82
311.69,-1.62,3.19,-1.65,3.17,-3.17,-2.76,-1.48,-4.79,-4.82,-4.81
314.81,-1.45,3.33,-1.46,3.34,-3.34,-2.87,-1.53,-4.79,-4.81,-4.78
317.96,-1.23,3.55,-1.29,3.50,-3.50,-2.99,-1.59,-4.73,-4.79,-4.78
321.14,-1.14,3.65,-1.13,3.65,-3.65,-3.12,-1.64,-4.79,-4.78,-4.79
324.35,-0.96,3.82,-0.97,3.80,-3.80,-3.25,-1.69,-4.76,-4.77,-4.78
327.59,-0.88,3.89,-0.81,3.95,-3.95,-3.40,-1.75,-4.83,-4.76,-4.77
330.87,-0.73,4.03,-0.66,4.10,-4.10,-3.55,-1.81,-4.83,-4.75,-4.76
334.18,-0.58,4.18,-0.51,4.23,-4.23,-3.71,-1.87,-4.81,-4.74,-4.76
337.52,-0.35,4.40,-0.38,4.36,-4.36,-3.88,-1.93,-4.71,-4.73,-4.75
340.90,-0.24,4.48,-0.26,4.46,-4.46,-4.05,-1.99,-4.70,-4.72,-4.72
344.30,-0.05,4.66,-0.16,4.55,-4.55,-4.23,-2.06,-4.60,-4.71,-4.71
347.75,-0.00,4.70,-0.06,4.63,-4.63,-4.41,-2.12,-4.63,-4.69,-4.70
351.23,0.00,4.67,0.02,4.69,-4.69,-4.58,-2.19,-4.69,-4.67,-4.67
354.74,0.10,4.75,0.09,4.73,-4.73,-4.74,-2.26,-4.63,-4.65,-4.65
358.28,0.21,4.83,0.15,4.77,-4.77,-4.89,-2.33,-4.56,-4.62,-4.62
361.87,0.23,4.83,0.20,4.80,-4.80,-5.01,-2.41,-4.57,-4.60,-4.60
365.49,0.23,4.81,0.24,4.82,-4.82,-5.09,-2.48,-4.59,-4.58,-4.58
369.14,0.23,4.79,0.26,4.82,-4.82,-5.14,-2.56,-4.59,-4.56,-4.56
372.83,0.23,4.76,0.26,4.80,-4.80,-5.15,-2.64,-4.57,-4.53,-4.53
376.56,0.23,4.74,0.27,4.78,-4.78,-5.13,-2.72,-4.55,-4.51,-4.51
380.33,0.23,4.71,0.26,4.76,-4.76,-5.07,-2.80,-4.53,-4.49,-4.48
384.13,0.23,4.69,0.24,4.72,-4.72,-4.98,-2.89,-4.49,-4.48,-4.46
387.97,0.23,4.68,0.22,4.68,-4.68,-4.88,-2.97,-4.45,-4.46,-4.45
391.85,0.23,4.68,0.19,4.64,-4.64,-4.77,-3.06,-4.41,-4.45,-4.45
395.77,0.23,4.67,0.15,4.58,-4.58,-4.64,-3.14,-4.35,-4.43,-4.44
399.73,0.17,4.60,0.11,4.53,-4.53,-4.52,-3.23,-4.36,-4.42,-4.43
403.72,0.04,4.46,0.07,4.48,-4.48,-4.40,-3.32,-4.44,-4.42,-4.42
407.76,0.00,4.41,0.02,4.43,-4.43,-4.29,-3.41,-4.43,-4.41,-4.41
411.84,0.00,4.40,-0.02,4.39,-4.39,-4.19,-3.50,-4.39,-4.40,-4.40
415.96,0.00,4.39,-0.06,4.34,-4.34,-4.09,-3.59,-4.34,-4.40,-4.39
420.12,-0.18,4.21,-0.10,4.30,-4.30,-4.00,-3.68,-4.48,-4.40,-4.39
424.32,-0.23,4.16,-0.13,4.27,-4.27,-3.93,-3.77,-4.50,-4.40,-4.39
428.56,-0.23,4.16,-0.16,4.24,-4.24,-3.86,-3.85,-4.47,-4.39,-4.39
432.85,-0.23,4.17,-0.18,4.21,-4.21,-3.79,-3.94,-4.44,-4.39,-4.40
