frequency,raw,error,smoothed,error_smoothed,equalization,parametric_eq,fixed_band_eq,equalized_raw,equalized_smoothed,target
20.00,-4.45,-6.86,-4.45,-6.86,6.86,6.94,1.72,2.41,2.41,2.41
20.20,-4.36,-6.82,-4.36,-6.82,6.82,6.86,1.77,2.46,2.46,2.46
20.40,-4.27,-6.78,-4.28,-6.78,6.78,6.78,1.82,2.51,2.50,2.51
20.61,-4.19,-6.73,-4.19,-6.73,6.73,6.70,1.88,2.54,2.54,2.54
20.81,-4.10,-6.69,-4.10,-6.69,6.68,6.63,1.94,2.58,2.58,2.59
21.02,-4.01,-6.64,-4.01,-6.63,6.62,6.54,2.00,2.61,2.61,2.63
21.23,-3.92,-6.57,-3.92,-6.57,6.56,6.46,2.05,2.64,2.64,2.65
21.44,-3.82,-6.49,-3.82,-6.49,6.49,6.38,2.12,2.67,2.67,2.67
21.66,-3.73,-6.42,-3.73,-6.41,6.42,6.30,2.18,2.69,2.69,2.69
21.87,-3.63,-6.33,-3.63,-6.34,6.34,6.22,2.25,2.71,2.71,2.70
22.09,-3.54,-6.26,-3.54,-6.26,6.26,6.14,2.31,2.72,2.72,2.72
22.31,-3.45,-6.18,-3.45,-6.17,6.17,6.06,2.38,2.72,2.72,2.73
22.54,-3.36,-6.09,-3.36,-6.09,6.08,5.98,2.45,2.72,2.72,2.73
22.76,-3.27,-6.00,-3.27,-6.00,6.00,5.90,2.53,2.73,2.72,2.73
22.99,-3.18,-5.90,-3.18,-5.90,5.91,5.81,2.60,2.73,2.73,2.72
23.22,-3.09,-5.81,-3.09,-5.81,5.82,5.73,2.68,2.73,2.73,2.72
23.45,-3.00,-5.72,-3.00,-5.72,5.73,5.65,2.76,2.73,2.73,2.72
23.69,-2.91,-5.64,-2.91,-5.64,5.64,5.57,2.84,2.72,2.72,2.73
23.92,-2.82,-5.55,-2.82,-5.55,5.54,5.49,2.92,2.72,2.73,2.73
24.16,-2.72,-5.45,-2.72,-5.45,5.45,5.40,3.00,2.73,2.73,2.73
24.40,-2.62,-5.36,-2.62,-5.35,5.35,5.32,3.08,2.73,2.72,2.74
24.65,-2.52,-5.25,-2.52,-5.25,5.24,5.24,3.17,2.72,2.72,2.73
24.89,-2.42,-5.15,-2.42,-5.15,5.13,5.16,3.25,2.71,2.71,2.73
25.14,-2.31,-5.04,-2.31,-5.04,5.02,5.07,3.34,2.71,2.71,2.73
25.39,-2.19,-4.93,-2.19,-4.92,4.92,4.99,3.42,2.73,2.74,2.74
25.65,-2.07,-4.81,-2.07,-4.80,4.83,4.91,3.51,2.76,2.77,2.74
25.91,-1.95,-4.68,-1.97,-4.70,4.75,4.82,3.60,2.80,2.79,2.73
26.16,-1.89,-4.62,-1.90,-4.63,4.68,4.74,3.68,2.79,2.78,2.73
26.43,-1.86,-4.59,-1.86,-4.59,4.60,4.66,3.77,2.74,2.74,2.73
26.69,-1.83,-4.56,-1.84,-4.56,4.52,4.57,3.85,2.69,2.68,2.73
26.96,-1.80,-4.53,-1.78,-4.51,4.43,4.49,3.93,2.63,2.65,2.73
27.23,-1.69,-4.42,-1.69,-4.41,4.35,4.41,4.01,2.66,2.66,2.73
27.50,-1.55,-4.28,-1.55,-4.28,4.26,4.32,4.09,2.71,2.71,2.73
27.77,-1.41,-4.13,-1.42,-4.14,4.17,4.24,4.16,2.76,2.75,2.72
28.05,-1.29,-4.01,-1.31,-4.02,4.08,4.16,4.23,2.79,2.77,2.72
28.33,-1.23,-3.94,-1.23,-3.94,3.98,4.07,4.29,2.75,2.76,2.71
28.62,-1.17,-3.88,-1.17,-3.88,3.90,3.99,4.35,2.72,2.73,2.71
28.90,-1.11,-3.83,-1.11,-3.82,3.82,3.91,4.40,2.71,2.71,2.72
29.19,-1.05,-3.76,-1.05,-3.76,3.75,3.82,4.45,2.70,2.70,2.71
29.48,-0.98,-3.70,-0.99,-3.70,3.68,3.74,4.49,2.70,2.70,2.72
29.78,-0.92,-3.63,-0.92,-3.63,3.62,3.66,4.53,2.69,2.70,2.71
30.08,-0.85,-3.57,-0.85,-3.56,3.54,3.58,4.55,2.69,2.70,2.72
30.38,-0.76,-3.47,-0.76,-3.47,3.46,3.49,4.57,2.70,2.70,2.71
30.68,-0.67,-3.38,-0.67,-3.38,3.38,3.41,4.58,2.71,2.71,2.71
30.99,-0.57,-3.28,-0.58,-3.28,3.29,3.33,4.59,2.72,2.71,2.71
31.30,-0.49,-3.19,-0.49,-3.19,3.20,3.25,4.58,2.70,2.71,2.70
31.61,-0.40,-3.10,-0.40,-3.10,3.10,3.17,4.56,2.70,2.70,2.70
31.93,-0.32,-3.02,-0.32,-3.01,3.01,3.08,4.54,2.69,2.69,2.70
32.24,-0.23,-2.92,-0.23,-2.92,2.92,3.00,4.51,2.69,2.69,2.69
32.57,-0.15,-2.84,-0.15,-2.84,2.84,2.92,4.46,2.68,2.69,2.69
32.89,-0.06,-2.75,-0.07,-2.75,2.76,2.84,4.42,2.69,2.69,2.69
33.22,0.01,-2.67,0.01,-2.67,2.68,2.76,4.36,2.69,2.69,2.68
33.55,0.08,-2.60,0.08,-2.60,2.60,2.68,4.30,2.68,2.68,2.68
33.89,0.15,-2.52,0.15,-2.52,2.53,2.60,4.23,2.67,2.67,2.67
34.23,0.21,-2.46,0.21,-2.46,2.45,2.52,4.15,2.66,2.66,2.67
34.57,0.28,-2.38,0.27,-2.38,2.38,2.44,4.07,2.66,2.65,2.66
34.92,0.34,-2.32,0.34,-2.31,2.31,2.36,3.99,2.64,2.65,2.66
35.27,0.42,-2.23,0.42,-2.23,2.23,2.29,3.89,2.65,2.65,2.65
35.62,0.50,-2.15,0.50,-2.15,2.15,2.21,3.80,2.65,2.64,2.65
35.97,0.58,-2.07,0.57,-2.07,2.06,2.13,3.70,2.64,2.64,2.65
36.33,0.65,-2.00,0.65,-2.00,1.98,2.06,3.60,2.62,2.62,2.65
36.70,0.72,-1.92,0.72,-1.92,1.90,1.98,3.49,2.62,2.62,2.64
37.06,0.80,-1.84,0.81,-1.83,1.84,1.90,3.39,2.64,2.65,2.64
37.43,0.90,-1.75,0.91,-1.73,1.79,1.83,3.28,2.69,2.70,2.65
37.81,1.00,-1.65,0.98,-1.67,1.75,1.76,3.17,2.75,2.73,2.65
38.19,1.02,-1.62,0.99,-1.66,1.70,1.68,3.06,2.72,2.69,2.64
38.57,0.97,-1.68,0.97,-1.68,1.65,1.61,2.95,2.61,2.62,2.65
38.95,0.92,-1.74,0.97,-1.68,1.59,1.54,2.84,2.51,2.55,2.66
39.34,1.02,-1.63,1.02,-1.63,1.53,1.47,2.73,2.55,2.55,2.65
39.74,1.15,-1.50,1.13,-1.52,1.47,1.40,2.62,2.61,2.60,2.65
40.14,1.28,-1.37,1.28,-1.37,1.41,1.33,2.51,2.69,2.69,2.65
40.54,1.39,-1.26,1.39,-1.25,1.34,1.26,2.40,2.73,2.74,2.65
40.94,1.49,-1.15,1.46,-1.19,1.27,1.19,2.29,2.76,2.73,2.64
41.35,1.48,-1.16,1.47,-1.17,1.20,1.12,2.19,2.67,2.67,2.64
41.76,1.45,-1.18,1.47,-1.16,1.12,1.05,2.08,2.57,2.60,2.63
42.18,1.47,-1.16,1.49,-1.13,1.06,0.99,1.97,2.53,2.55,2.63
42.60,1.57,-1.05,1.56,-1.06,1.00,0.92,1.87,2.57,2.56,2.62
43.03,1.67,-0.94,1.65,-0.95,0.94,0.86,1.76,2.61,2.60,2.61
43.46,1.74,-0.86,1.74,-0.85,0.87,0.80,1.66,2.61,2.62,2.60
43.90,1.81,-0.77,1.81,-0.77,0.80,0.74,1.56,2.61,2.60,2.58
44.33,1.86,-0.70,1.86,-0.70,0.72,0.68,1.46,2.57,2.57,2.56
44.78,1.91,-0.63,1.91,-0.63,0.64,0.62,1.36,2.55,2.55,2.54
45.23,1.95,-0.58,1.95,-0.57,0.57,0.56,1.26,2.52,2.52,2.53
45.68,2.00,-0.52,2.00,-0.52,0.52,0.50,1.17,2.51,2.51,2.52
46.13,2.04,-0.46,2.05,-0.46,0.47,0.44,1.07,2.51,2.52,2.50
46.60,2.09,-0.41,2.09,-0.40,0.43,0.39,0.98,2.52,2.52,2.50
47.06,2.13,-0.35,2.11,-0.37,0.39,0.33,0.88,2.51,2.49,2.48
47.53,2.12,-0.35,2.12,-0.35,0.34,0.28,0.79,2.46,2.46,2.47
48.01,2.11,-0.36,2.14,-0.32,0.29,0.23,0.70,2.40,2.43,2.47
48.49,2.18,-0.27,2.18,-0.27,0.24,0.18,0.61,2.41,2.41,2.45
48.97,2.25,-0.18,2.23,-0.20,0.18,0.13,0.52,2.43,2.41,2.43
49.46,2.29,-0.12,2.29,-0.11,0.12,0.08,0.43,2.41,2.42,2.41
49.96,2.34,-0.05,2.34,-0.05,0.07,0.03,0.35,2.40,2.41,2.39
50.46,2.39,0.01,2.39,0.01,0.01,-0.02,0.26,2.39,2.40,2.38
50.96,2.44,0.07,2.42,0.06,-0.05,-0.06,0.18,2.39,2.37,2.37
51.47,2.45,0.10,2.45,0.10,-0.10,-0.11,0.10,2.35,2.35,2.35
51.99,2.46,0.12,2.48,0.14,-0.14,-0.15,0.01,2.32,2.34,2.34
52.51,2.51,0.18,2.51,0.18,-0.18,-0.20,-0.07,2.33,2.33,2.33
53.03,2.56,0.23,2.52,0.20,-0.21,-0.24,-0.14,2.35,2.32,2.33
53.56,2.53,0.22,2.54,0.23,-0.23,-0.28,-0.22,2.30,2.30,2.31
54.10,2.52,0.22,2.55,0.26,-0.26,-0.32,-0.30,2.26,2.29,2.30
54.64,2.59,0.31,2.58,0.29,-0.29,-0.36,-0.37,2.30,2.29,2.28
55.18,2.63,0.35,2.61,0.34,-0.33,-0.40,-0.44,2.30,2.29,2.28
55.74,2.63,0.37,2.62,0.36,-0.37,-0.44,-0.52,2.26,2.26,2.26
56.29,2.63,0.38,2.62,0.37,-0.41,-0.48,-0.58,2.21,2.21,2.25
56.86,2.62,0.38,2.66,0.43,-0.46,-0.51,-0.65,2.16,2.20,2.24
57.42,2.71,0.50,2.72,0.51,-0.51,-0.55,-0.72,2.20,2.21,2.21
58.00,2.84,0.64,2.79,0.59,-0.56,-0.58,-0.78,2.28,2.23,2.20
58.58,2.83,0.64,2.83,0.65,-0.60,-0.62,-0.84,2.23,2.23,2.19
59.16,2.82,0.65,2.83,0.67,-0.64,-0.65,-0.90,2.17,2.19,2.17
59.76,2.82,0.67,2.82,0.68,-0.69,-0.69,-0.95,2.13,2.13,2.15
60.35,2.82,0.71,2.82,0.71,-0.73,-0.72,-1.01,2.09,2.09,2.11
60.96,2.82,0.75,2.82,0.75,-0.76,-0.75,-1.06,2.05,2.05,2.07
61.57,2.82,0.79,2.82,0.79,-0.80,-0.79,-1.11,2.02,2.02,2.03
62.18,2.82,0.83,2.82,0.83,-0.83,-0.82,-1.15,1.99,1.99,1.99
62.80,2.82,0.88,2.82,0.88,-0.87,-0.85,-1.20,1.95,1.95,1.94
63.43,2.82,0.92,2.82,0.92,-0.92,-0.88,-1.24,1.90,1.90,1.90
64.07,2.82,0.97,2.82,0.97,-0.97,-0.91,-1.28,1.85,1.85,1.85
64.71,2.82,1.01,2.82,1.01,-1.02,-0.94,-1.32,1.80,1.80,1.81
65.35,2.82,1.05,2.82,1.05,-1.06,-0.97,-1.35,1.75,1.75,1.77
66.01,2.82,1.10,2.82,1.10,-1.11,-1.01,-1.39,1.71,1.71,1.72
66.67,2.82,1.15,2.83,1.16,-1.15,-1.04,-1.42,1.67,1.68,1.67
67.33,2.83,1.21,2.83,1.21,-1.19,-1.07,-1.45,1.64,1.64,1.62
68.01,2.84,1.26,2.82,1.25,-1.22,-1.10,-1.48,1.62,1.60,1.58
68.69,2.80,1.27,2.80,1.27,-1.26,-1.13,-1.50,1.54,1.54,1.53
69.37,2.76,1.28,2.76,1.29,-1.30,-1.16,-1.53,1.46,1.47,1.48
70.07,2.73,1.30,2.74,1.31,-1.34,-1.19,-1.55,1.39,1.40,1.43
70.77,2.73,1.35,2.73,1.35,-1.38,-1.22,-1.58,1.35,1.34,1.38
71.48,2.73,1.40,2.73,1.41,-1.42,-1.25,-1.60,1.30,1.30,1.33
72.19,2.73,1.47,2.73,1.47,-1.47,-1.29,-1.63,1.26,1.27,1.26
72.91,2.73,1.53,2.73,1.53,-1.51,-1.32,-1.65,1.22,1.23,1.20
73.64,2.73,1.58,2.72,1.58,-1.54,-1.35,-1.67,1.19,1.18,1.15
74.38,2.70,1.61,2.69,1.61,-1.58,-1.38,-1.70,1.12,1.11,1.09
75.12,2.65,1.62,2.65,1.62,-1.62,-1.41,-1.72,1.03,1.03,1.03
75.87,2.60,1.63,2.60,1.63,-1.65,-1.45,-1.74,0.95,0.95,0.97
76.63,2.55,1.63,2.55,1.64,-1.68,-1.48,-1.77,0.87,0.88,0.92
77.40,2.53,1.66,2.53,1.67,-1.70,-1.51,-1.80,0.83,0.83,0.87
78.17,2.53,1.72,2.53,1.72,-1.72,-1.55,-1.82,0.81,0.81,0.81
78.95,2.54,1.77,2.53,1.77,-1.74,-1.58,-1.85,0.80,0.79,0.77
79.74,2.53,1.81,2.52,1.80,-1.76,-1.62,-1.88,0.77,0.75,0.72
80.54,2.48,1.81,2.47,1.81,-1.79,-1.65,-1.91,0.69,0.69,0.67
81.35,2.41,1.79,2.42,1.80,-1.81,-1.69,-1.94,0.60,0.60,0.62
82.16,2.36,1.79,2.37,1.80,-1.83,-1.72,-1.97,0.53,0.54,0.57
82.98,2.34,1.81,2.34,1.82,-1.85,-1.76,-2.01,0.49,0.50,0.53
83.81,2.34,1.86,2.34,1.86,-1.86,-1.79,-2.04,0.48,0.48,0.48
84.65,2.34,1.91,2.33,1.90,-1.87,-1.83,-2.08,0.47,0.46,0.43
85.50,2.31,1.92,2.30,1.92,-1.89,-1.87,-2.12,0.42,0.41,0.39
86.35,2.25,1.91,2.25,1.91,-1.91,-1.90,-2.16,0.34,0.34,0.34
87.22,2.20,1.91,2.20,1.91,-1.93,-1.94,-2.21,0.27,0.27,0.29
88.09,2.15,1.91,2.17,1.93,-1.95,-1.98,-2.25,0.20,0.22,0.24
88.97,2.15,1.97,2.14,1.96,-1.97,-2.02,-2.30,0.18,0.17,0.18
89.86,2.15,2.02,2.12,1.99,-1.99,-2.05,-2.34,0.15,0.13,0.13
90.76,2.08,2.00,2.10,2.02,-2.02,-2.09,-2.40,0.06,0.08,0.08
91.66,2.06,2.03,2.07,2.05,-2.04,-2.13,-2.45,0.02,0.03,0.03
92.58,2.06,2.09,2.04,2.07,-2.07,-2.17,-2.50,-0.01,-0.03,-0.03
93.51,2.01,2.09,2.01,2.09,-2.08,-2.21,-2.56,-0.08,-0.07,-0.08
94.44,1.97,2.09,1.98,2.11,-2.09,-2.25,-2.61,-0.13,-0.11,-0.12
95.39,1.95,2.12,1.94,2.12,-2.10,-2.29,-2.67,-0.15,-0.16,-0.17
96.34,1.91,2.13,1.90,2.12,-2.11,-2.33,-2.73,-0.20,-0.22,-0.22
97.30,1.84,2.11,1.84,2.11,-2.12,-2.36,-2.80,-0.28,-0.28,-0.27
98.28,1.77,2.09,1.78,2.10,-2.12,-2.40,-2.86,-0.35,-0.34,-0.32
99.26,1.74,2.10,1.74,2.11,-2.12,-2.44,-2.92,-0.39,-0.38,-0.36
100.25,1.72,2.13,1.72,2.13,-2.13,-2.48,-2.99,-0.41,-0.41,-0.41
101.25,1.70,2.16,1.70,2.16,-2.13,-2.52,-3.05,-0.44,-0.44,-0.46
102.27,1.67,2.18,1.66,2.17,-2.15,-2.56,-3.12,-0.48,-0.49,-0.51
103.29,1.61,2.17,1.61,2.17,-2.17,-2.60,-3.18,-0.56,-0.56,-0.56
104.32,1.56,2.16,1.57,2.17,-2.20,-2.64,-3.25,-0.64,-0.63,-0.60
105.37,1.54,2.19,1.55,2.20,-2.23,-2.67,-3.32,-0.69,-0.68,-0.65
106.42,1.55,2.25,1.55,2.26,-2.26,-2.71,-3.38,-0.71,-0.71,-0.70
107.48,1.58,2.34,1.56,2.32,-2.30,-2.75,-3.44,-0.72,-0.74,-0.76
108.56,1.56,2.37,1.56,2.37,-2.34,-2.79,-3.51,-0.78,-0.78,-0.81
109.64,1.54,2.40,1.54,2.41,-2.39,-2.82,-3.57,-0.85,-0.85,-0.86
110.74,1.52,2.44,1.51,2.43,-2.45,-2.86,-3.62,-0.93,-0.93,-0.92
111.85,1.50,2.46,1.51,2.48,-2.50,-2.90,-3.68,-1.00,-0.99,-0.96
112.97,1.52,2.54,1.53,2.55,-2.56,-2.93,-3.73,-1.04,-1.03,-1.02
114.10,1.58,2.65,1.55,2.63,-2.62,-2.97,-3.78,-1.04,-1.06,-1.07
115.24,1.58,2.70,1.57,2.70,-2.68,-3.00,-3.82,-1.11,-1.11,-1.12
116.39,1.58,2.75,1.59,2.76,-2.76,-3.03,-3.86,-1.18,-1.17,-1.17
117.55,1.60,2.81,1.61,2.82,-2.84,-3.07,-3.89,-1.25,-1.23,-1.21
118.73,1.67,2.92,1.66,2.91,-2.93,-3.10,-3.92,-1.26,-1.27,-1.25
119.92,1.72,3.00,1.73,3.02,-3.01,-3.13,-3.95,-1.30,-1.28,-1.28
121.12,1.81,3.13,1.80,3.12,-3.10,-3.16,-3.96,-1.29,-1.30,-1.32
122.33,1.87,3.22,1.85,3.21,-3.19,-3.19,-3.97,-1.32,-1.34,-1.35
123.55,1.91,3.29,1.90,3.29,-3.28,-3.22,-3.98,-1.37,-1.37,-1.38
124.79,1.92,3.33,1.95,3.36,-3.37,-3.25,-3.98,-1.45,-1.42,-1.41
126.03,2.02,3.46,2.01,3.44,-3.46,-3.27,-3.97,-1.44,-1.45,-1.44
127.29,2.08,3.54,2.07,3.54,-3.55,-3.30,-3.95,-1.47,-1.48,-1.46
128.57,2.13,3.63,2.14,3.64,-3.64,-3.32,-3.93,-1.51,-1.50,-1.50
129.85,2.19,3.72,2.19,3.72,-3.73,-3.35,-3.90,-1.54,-1.54,-1.53
131.15,2.25,3.81,2.25,3.81,-3.81,-3.37,-3.87,-1.57,-1.57,-1.56
132.46,2.31,3.90,2.31,3.91,-3.90,-3.39,-3.83,-1.59,-1.58,-1.59
133.79,2.37,3.99,2.38,4.00,-3.98,-3.41,-3.78,-1.61,-1.60,-1.62
135.12,2.44,4.09,2.42,4.07,-4.05,-3.43,-3.73,-1.61,-1.63,-1.65
136.48,2.45,4.12,2.44,4.12,-4.12,-3.45,-3.68,-1.67,-1.68,-1.67
137.84,2.45,4.16,2.46,4.17,-4.18,-3.46,-3.62,-1.73,-1.72,-1.71
139.22,2.47,4.21,2.48,4.22,-4.24,-3.48,-3.55,-1.78,-1.76,-1.74
140.61,2.53,4.30,2.51,4.28,-4.30,-3.49,-3.48,-1.77,-1.79,-1.77
142.02,2.55,4.34,2.54,4.34,-4.35,-3.50,-3.41,-1.80,-1.81,-1.79
143.44,2.55,4.37,2.55,4.38,-4.39,-3.51,-3.34,-1.84,-1.84,-1.82
144.87,2.55,4.41,2.56,4.42,-4.43,-3.52,-3.26,-1.88,-1.86,-1.86
146.32,2.55,4.45,2.55,4.45,-4.45,-3.52,-3.18,-1.90,-1.89,-1.90
147.78,2.55,4.48,2.52,4.46,-4.45,-3.52,-3.11,-1.90,-1.93,-1.93
149.26,2.44,4.42,2.45,4.43,-4.43,-3.53,-3.02,-2.00,-1.99,-1.98
150.75,2.33,4.37,2.33,4.38,-4.38,-3.53,-2.94,-2.05,-2.05,-2.04
152.26,2.18,4.29,2.18,4.29,-4.29,-3.52,-2.86,-2.11,-2.10,-2.11
153.78,2.01,4.19,2.01,4.19,-4.15,-3.52,-2.78,-2.14,-2.13,-2.18
155.32,1.79,4.04,1.76,4.02,-3.96,-3.52,-2.69,-2.17,-2.19,-2.25
156.88,1.49,3.82,1.48,3.81,-3.72,-3.51,-2.61,-2.23,-2.24,-2.33
158.44,1.08,3.49,1.12,3.53,-3.45,-3.50,-2.53,-2.37,-2.33,-2.41
160.03,0.78,3.27,0.72,3.21,-3.17,-3.49,-2.45,-2.39,-2.45,-2.49
161.63,0.30,2.86,0.32,2.88,-2.89,-3.47,-2.36,-2.59,-2.57,-2.56
163.24,-0.05,2.57,-0.04,2.59,-2.65,-3.46,-2.28,-2.70,-2.69,-2.62
164.88,-0.33,2.34,-0.35,2.33,-2.46,-3.44,-2.20,-2.79,-2.81,-2.67
166.53,-0.54,2.18,-0.53,2.19,-2.35,-3.42,-2.12,-2.89,-2.88,-2.72
168.19,-0.62,2.14,-0.60,2.17,-2.30,-3.39,-2.05,-2.92,-2.90,-2.76
169.87,-0.57,2.23,-0.56,2.24,-2.32,-3.37,-1.97,-2.89,-2.87,-2.80
171.57,-0.40,2.42,-0.42,2.40,-2.39,-3.34,-1.90,-2.79,-2.81,-2.82
173.29,-0.26,2.57,-0.26,2.57,-2.49,-3.31,-1.82,-2.75,-2.75,-2.83
175.02,-0.11,2.73,-0.13,2.71,-2.60,-3.28,-1.75,-2.71,-2.74,-2.84
176.77,-0.06,2.79,-0.06,2.80,-2.71,-3.24,-1.68,-2.77,-2.76,-2.85
178.54,-0.01,2.85,-0.01,2.84,-2.79,-3.20,-1.61,-2.80,-2.80,-2.86
180.32,-0.00,2.85,0.01,2.86,-2.84,-3.16,-1.54,-2.85,-2.83,-2.85
182.13,0.01,2.85,0.01,2.86,-2.87,-3.12,-1.47,-2.86,-2.86,-2.84
183.95,0.02,2.87,-0.02,2.83,-2.87,-3.07,-1.40,-2.85,-2.89,-2.85
185.79,-0.07,2.78,-0.03,2.82,-2.86,-3.02,-1.34,-2.93,-2.90,-2.85
187.65,-0.07,2.80,-0.05,2.81,-2.84,-2.97,-1.28,-2.91,-2.89,-2.87
189.52,-0.05,2.83,-0.08,2.80,-2.80,-2.92,-1.21,-2.85,-2.88,-2.88
191.42,-0.11,2.79,-0.11,2.79,-2.75,-2.86,-1.15,-2.87,-2.87,-2.90
193.33,-0.19,2.73,-0.17,2.75,-2.70,-2.80,-1.09,-2.90,-2.87,-2.92
195.27,-0.25,2.69,-0.26,2.68,-2.65,-2.74,-1.03,-2.90,-2.91,-2.94
197.22,-0.35,2.61,-0.38,2.58,-2.59,-2.67,-0.98,-2.95,-2.98,-2.96
199.19,-0.50,2.48,-0.50,2.48,-2.54,-2.60,-0.92,-3.04,-3.04,-2.98
201.18,-0.65,2.35,-0.58,2.42,-2.47,-2.53,-0.87,-3.13,-3.06,-3.00
203.19,-0.64,2.38,-0.64,2.38,-2.41,-2.45,-0.81,-3.05,-3.05,-3.02
205.23,-0.61,2.43,-0.70,2.34,-2.34,-2.37,-0.76,-2.95,-3.03,-3.04
207.28,-0.78,2.27,-0.76,2.30,-2.26,-2.29,-0.71,-3.04,-3.02,-3.05
209.35,-0.90,2.17,-0.84,2.23,-2.18,-2.20,-0.66,-3.08,-3.03,-3.07
211.44,-0.92,2.18,-0.95,2.14,-2.11,-2.11,-0.61,-3.03,-3.06,-3.10
213.56,-1.03,2.08,-1.08,2.03,-2.03,-2.02,-0.57,-3.06,-3.11,-3.11
215.69,-1.23,1.89,-1.22,1.90,-1.94,-1.93,-0.52,-3.17,-3.16,-3.12
217.85,-1.43,1.70,-1.36,1.78,-1.84,-1.83,-0.48,-3.27,-3.20,-3.13
220.03,-1.43,1.71,-1.46,1.69,-1.74,-1.72,-0.44,-3.17,-3.20,-3.14
222.23,-1.49,1.68,-1.53,1.63,-1.63,-1.62,-0.40,-3.12,-3.15,-3.17
224.45,-1.62,1.54,-1.59,1.57,-1.51,-1.51,-0.36,-3.13,-3.10,-3.16
226.70,-1.72,1.44,-1.72,1.45,-1.38,-1.40,-0.32,-3.11,-3.10,-3.16
228.96,-1.83,1.32,-1.86,1.29,-1.26,-1.28,-0.28,-3.09,-3.12,-3.15
231.25,-2.03,1.11,-2.02,1.12,-1.13,-1.17,-0.25,-3.16,-3.15,-3.14
233.57,-2.20,0.93,-2.18,0.95,-0.99,-1.05,-0.22,-3.19,-3.17,-3.13
235.90,-2.33,0.79,-2.32,0.80,-0.84,-0.92,-0.19,-3.17,-3.16,-3.12
238.26,-2.41,0.70,-2.42,0.68,-0.70,-0.80,-0.16,-3.11,-3.12,-3.11
240.64,-2.51,0.57,-2.53,0.56,-0.55,-0.67,-0.14,-3.06,-3.08,-3.08
243.05,-2.63,0.42,-2.62,0.43,-0.42,-0.54,-0.11,-3.05,-3.04,-3.05
245.48,-2.74,0.29,-2.73,0.30,-0.29,-0.41,-0.09,-3.03,-3.02,-3.03
247.93,-2.81,0.19,-2.84,0.17,-0.17,-0.28,-0.07,-2.98,-3.00,-3.00
250.41,-2.93,0.05,-2.93,0.05,-0.05,-0.15,-0.06,-2.98,-2.98,-2.98
252.92,-3.05,-0.10,-3.02,-0.06,0.06,-0.02,-0.04,-2.99,-2.95,-2.95
255.45,-3.09,-0.16,-3.12,-0.18,0.16,0.11,-0.03,-2.93,-2.96,-2.93
258.00,-3.17,-0.26,-3.21,-0.30,0.25,0.25,-0.02,-2.92,-2.96,-2.91
260.58,-3.32,-0.43,-3.27,-0.38,0.35,0.38,-0.01,-2.97,-2.91,-2.89
263.19,-3.34,-0.48,-3.31,-0.44,0.46,0.50,0.00,-2.89,-2.86,-2.86
265.82,-3.29,-0.45,-3.35,-0.51,0.56,0.63,0.01,-2.73,-2.79,-2.84
268.48,-3.40,-0.58,-3.40,-0.58,0.67,0.75,0.01,-2.73,-2.73,-2.82
271.16,-3.53,-0.74,-3.52,-0.72,0.77,0.87,0.01,-2.76,-2.74,-2.79
273.87,-3.64,-0.87,-3.68,-0.91,0.87,0.98,0.01,-2.77,-2.81,-2.77
276.61,-3.81,-1.07,-3.79,-1.05,0.97,1.08,0.01,-2.85,-2.82,-2.74
279.38,-3.89,-1.18,-3.83,-1.11,1.06,1.18,0.01,-2.83,-2.77,-2.71
282.17,-3.82,-1.13,-3.85,-1.16,1.14,1.28,0.01,-2.68,-2.71,-2.69
284.99,-3.78,-1.13,-3.86,-1.20,1.21,1.36,0.00,-2.57,-2.64,-2.65
287.84,-3.92,-1.29,-3.87,-1.24,1.27,1.43,-0.00,-2.65,-2.60,-2.63
290.72,-3.92,-1.32,-3.89,-1.29,1.31,1.50,-0.01,-2.61,-2.58,-2.60
293.63,-3.88,-1.31,-3.92,-1.35,1.34,1.55,-0.02,-2.54,-2.58,-2.57
296.57,-3.90,-1.36,-3.92,-1.38,1.38,1.60,-0.03,-2.52,-2.54,-2.54
299.53,-3.97,-1.46,-3.94,-1.43,1.43,1.63,-0.04,-2.54,-2.52,-2.51
302.53,-3.97,-1.48,-3.95,-1.46,1.47,1.66,-0.05,-2.50,-2.48,-2.49
305.55,-3.94,-1.49,-3.96,-1.50,1.52,1.67,-0.06,-2.42,-2.44,-2.45
308.61,-3.93,-1.50,-3.97,-1.54,1.56,1.68,-0.07,-2.38,-2.41,-2.43
311.69,-4.02,-1.62,-4.00,-1.60,1.59,1.67,-0.08,-2.43,-2.41,-2.40
314.81,-4.03,-1.65,-4.02,-1.64,1.61,1.66,-0.09,-2.42,-2.41,-2.38
317.96,-4.03,-1.67,-4.01,-1.65,1.62,1.64,-0.11,-2.41,-2.39,-2.36
321.14,-3.96,-1.61,-3.98,-1.63,1.63,1.61,-0.12,-2.34,-2.35,-2.35
324.35,-3.93,-1.60,-3.96,-1.62,1.62,1.57,-0.13,-2.31,-2.34,-2.33
327.59,-3.93,-1.61,-3.93,-1.60,1.60,1.52,-0.15,-2.33,-2.33,-2.32
330.87,-3.93,-1.62,-3.89,-1.58,1.58,1.47,-0.16,-2.36,-2.31,-2.31
334.18,-3.81,-1.52,-3.83,-1.54,1.55,1.42,-0.17,-2.27,-2.29,-2.29
337.52,-3.75,-1.47,-3.78,-1.50,1.52,1.35,-0.19,-2.23,-2.27,-2.28
340.90,-3.75,-1.48,-3.74,-1.46,1.49,1.29,-0.20,-2.26,-2.25,-2.27
344.30,-3.73,-1.47,-3.71,-1.45,1.46,1.22,-0.22,-2.27,-2.25,-2.26
347.75,-3.67,-1.41,-3.69,-1.43,1.42,1.15,-0.23,-2.25,-2.27,-2.26
351.23,-3.65,-1.40,-3.66,-1.41,1.39,1.08,-0.25,-2.26,-2.27,-2.25
354.74,-3.65,-1.39,-3.62,-1.36,1.35,1.01,-0.26,-2.30,-2.27,-2.26
358.28,-3.57,-1.32,-3.58,-1.32,1.31,0.93,-0.28,-2.26,-2.27,-2.25
361.87,-3.49,-1.24,-3.51,-1.26,1.26,0.86,-0.29,-2.23,-2.25,-2.25
365.49,-3.45,-1.21,-3.43,-1.19,1.20,0.79,-0.31,-2.25,-2.23,-2.24
369.14,-3.36,-1.11,-3.39,-1.13,1.14,0.71,-0.33,-2.22,-2.25,-2.25
372.83,-3.33,-1.08,-3.34,-1.08,1.07,0.64,-0.34,-2.26,-2.27,-2.25
376.56,-3.30,-1.04,-3.26,-1.01,1.00,0.57,-0.36,-2.30,-2.26,-2.26
380.33,-3.18,-0.93,-3.18,-0.93,0.93,0.49,-0.37,-2.25,-2.25,-2.25
384.13,-3.07,-0.82,-3.10,-0.84,0.86,0.42,-0.39,-2.22,-2.25,-2.25
387.97,-3.02,-0.76,-3.03,-0.77,0.78,0.36,-0.41,-2.24,-2.25,-2.26
391.85,-3.00,-0.73,-2.97,-0.70,0.70,0.29,-0.42,-2.30,-2.26,-2.27
395.77,-2.90,-0.64,-2.91,-0.64,0.62,0.22,-0.44,-2.28,-2.28,-2.26
399.73,-2.81,-0.54,-2.83,-0.56,0.54,0.16,-0.45,-2.27,-2.28,-2.27
403.72,-2.75,-0.48,-2.73,-0.46,0.47,0.10,-0.47,-2.28,-2.27,-2.27
407.76,-2.66,-0.37,-2.66,-0.38,0.39,0.04,-0.49,-2.27,-2.27,-2.29
411.84,-2.57,-0.28,-2.59,-0.30,0.31,-0.02,-0.50,-2.26,-2.29,-2.29
415.96,-2.54,-0.25,-2.52,-0.22,0.22,-0.08,-0.52,-2.32,-2.29,-2.29
420.12,-2.44,-0.15,-2.44,-0.15,0.13,-0.14,-0.54,-2.31,-2.31,-2.29
424.32,-2.34,-0.05,-2.36,-0.07,0.05,-0.20,-0.55,-2.29,-2.32,-2.29
428.56,-2.27,0.01,-2.25,0.04,-0.03,-0.25,-0.57,-2.31,-2.28,-2.28
432.85,-2.15,0.12,-2.13,0.14,-0.12,-0.30,-0.58,-2.27,-2.25,-2.27
437.18,-1.98,0.28,-2.02,0.23,-0.21,-0.36,-0.60,-2.19,-2.23,-2.26
441.55,-1.90,0.32,-1.92,0.31,-0.31,-0.41,-0.61,-2.21,-2.23,-2.22
445.96,-1.84,0.35,-1.81,0.38,-0.41,-0.46,-0.63,-2.25,-2.22,-2.19
450.42,-1.72,0.44,-1.69,0.47,-0.51,-0.51,-0.64,-2.23,-2.20,-2.16
454.93,-1.50,0.61,-1.54,0.58,-0.60,-0.56,-0.66,-2.10,-2.13,-2.11
459.48,-1.36,0.71,-1.36,0.71,-0.68,-0.61,-0.67,-2.04,-2.04,-2.07
464.07,-1.21,0.81,-1.20,0.82,-0.77,-0.67,-0.68,-1.98,-1.97,-2.02
468.71,-1.06,0.90,-1.08,0.88,-0.86,-0.72,-0.69,-1.92,-1.94,-1.96
473.40,-0.99,0.93,-0.98,0.93,-0.95,-0.77,-0.71,-1.94,-1.93,-1.92
478.13,-0.88,0.98,-0.89,0.98,-1.03,-0.82,-0.72,-1.91,-1.92,-1.86
482.91,-0.80,1.02,-0.77,1.05,-1.09,-0.87,-0.73,-1.90,-1.86,-1.82
