frequency,raw,error,smoothed,error_smoothed,equalization,parametric_eq,fixed_band_eq,equalized_raw,equalized_smoothed,target
20.00,-4.45,-6.86,-4.45,-6.89,6.89,6.06,1.71,2.44,2.44,2.41
20.20,-4.36,-6.82,-4.36,-6.84,6.84,6.12,1.76,2.48,2.47,2.46
20.40,-4.27,-6.78,-4.27,-6.78,6.78,6.17,1.81,2.51,2.51,2.51
20.61,-4.19,-6.73,-4.19,-6.73,6.73,6.21,1.87,2.53,2.54,2.54
20.81,-4.10,-6.69,-4.10,-6.67,6.67,6.25,1.92,2.57,2.57,2.59
21.02,-4.01,-6.64,-4.00,-6.61,6.61,6.27,1.98,2.59,2.60,2.63
21.23,-3.92,-6.57,-3.91,-6.54,6.54,6.29,2.04,2.62,2.63,2.65
21.44,-3.82,-6.49,-3.82,-6.47,6.47,6.29,2.10,2.65,2.65,2.67
21.66,-3.73,-6.42,-3.73,-6.40,6.40,6.29,2.16,2.67,2.67,2.69
21.87,-3.63,-6.33,-3.64,-6.33,6.33,6.27,2.23,2.70,2.69,2.70
22.09,-3.54,-6.26,-3.55,-6.25,6.25,6.25,2.30,2.71,2.70,2.72
22.31,-3.45,-6.18,-3.46,-6.18,6.18,6.21,2.36,2.73,2.72,2.73
22.54,-3.36,-6.09,-3.37,-6.09,6.09,6.17,2.43,2.73,2.72,2.73
22.76,-3.27,-6.00,-3.28,-6.00,6.00,6.11,2.50,2.73,2.73,2.73
22.99,-3.18,-5.90,-3.19,-5.92,5.92,6.05,2.58,2.73,2.73,2.72
23.22,-3.09,-5.81,-3.09,-5.82,5.82,5.99,2.65,2.73,2.73,2.72
23.45,-3.00,-5.72,-3.00,-5.73,5.73,5.91,2.73,2.73,2.73,2.72
23.69,-2.91,-5.64,-2.90,-5.63,5.63,5.83,2.81,2.72,2.73,2.73
23.92,-2.82,-5.55,-2.80,-5.53,5.53,5.74,2.88,2.71,2.73,2.73
24.16,-2.72,-5.45,-2.69,-5.42,5.42,5.64,2.96,2.70,2.73,2.73
24.40,-2.62,-5.36,-2.59,-5.32,5.32,5.55,3.05,2.70,2.73,2.74
24.65,-2.52,-5.25,-2.50,-5.23,5.23,5.44,3.13,2.71,2.73,2.73
24.89,-2.42,-5.15,-2.41,-5.14,5.14,5.34,3.21,2.72,2.73,2.73
25.14,-2.31,-5.04,-2.32,-5.05,5.05,5.23,3.29,2.74,2.73,2.73
25.39,-2.19,-4.93,-2.23,-4.96,4.96,5.12,3.38,2.77,2.73,2.74
25.65,-2.07,-4.81,-2.13,-4.87,4.87,5.01,3.46,2.79,2.73,2.74
25.91,-1.95,-4.68,-2.04,-4.77,4.77,4.89,3.54,2.82,2.73,2.73
26.16,-1.89,-4.62,-1.95,-4.68,4.68,4.78,3.62,2.79,2.73,2.73
26.43,-1.86,-4.59,-1.86,-4.59,4.59,4.66,3.71,2.72,2.73,2.73
26.69,-1.83,-4.56,-1.77,-4.50,4.50,4.55,3.78,2.66,2.73,2.73
26.96,-1.80,-4.53,-1.68,-4.41,4.41,4.43,3.86,2.61,2.72,2.73
27.23,-1.69,-4.42,-1.60,-4.32,4.32,4.32,3.94,2.63,2.72,2.73
27.50,-1.55,-4.28,-1.52,-4.24,4.24,4.21,4.01,2.69,2.72,2.73
27.77,-1.41,-4.13,-1.44,-4.16,4.16,4.09,4.08,2.75,2.72,2.72
28.05,-1.29,-4.01,-1.37,-4.09,4.09,3.98,4.14,2.80,2.72,2.72
28.33,-1.23,-3.94,-1.29,-4.01,4.01,3.87,4.20,2.78,2.72,2.71
28.62,-1.17,-3.88,-1.22,-3.93,3.93,3.77,4.26,2.76,2.72,2.71
28.90,-1.11,-3.83,-1.14,-3.85,3.85,3.66,4.31,2.74,2.71,2.72
29.19,-1.05,-3.76,-1.05,-3.77,3.77,3.56,4.35,2.71,2.71,2.71
29.48,-0.98,-3.70,-0.97,-3.68,3.68,3.45,4.39,2.70,2.71,2.72
29.78,-0.92,-3.63,-0.88,-3.59,3.59,3.35,4.42,2.67,2.71,2.71
30.08,-0.85,-3.57,-0.80,-3.51,3.51,3.25,4.44,2.66,2.71,2.72
30.38,-0.76,-3.47,-0.73,-3.44,3.44,3.16,4.46,2.67,2.71,2.71
30.68,-0.67,-3.38,-0.65,-3.36,3.36,3.06,4.47,2.69,2.71,2.71
30.99,-0.57,-3.28,-0.58,-3.28,3.28,2.97,4.47,2.71,2.70,2.71
31.30,-0.49,-3.19,-0.50,-3.20,3.20,2.88,4.46,2.70,2.70,2.70
31.61,-0.40,-3.10,-0.41,-3.11,3.11,2.79,4.44,2.71,2.70,2.70
31.93,-0.32,-3.02,-0.33,-3.02,3.02,2.71,4.42,2.70,2.70,2.70
32.24,-0.23,-2.92,-0.25,-2.94,2.94,2.62,4.39,2.71,2.69,2.69
32.57,-0.15,-2.84,-0.16,-2.85,2.85,2.54,4.35,2.70,2.69,2.69
32.89,-0.06,-2.75,-0.08,-2.77,2.77,2.46,4.30,2.71,2.68,2.69
33.22,0.01,-2.67,-0.01,-2.68,2.68,2.38,4.24,2.69,2.68,2.68
33.55,0.08,-2.60,0.07,-2.60,2.60,2.31,4.18,2.68,2.67,2.68
33.89,0.15,-2.52,0.14,-2.53,2.53,2.23,4.12,2.68,2.67,2.67
34.23,0.21,-2.46,0.21,-2.45,2.45,2.16,4.04,2.66,2.66,2.67
34.57,0.28,-2.38,0.29,-2.37,2.37,2.09,3.96,2.64,2.66,2.66
34.92,0.34,-2.32,0.38,-2.28,2.28,2.02,3.88,2.62,2.66,2.66
35.27,0.42,-2.23,0.45,-2.20,2.20,1.95,3.79,2.62,2.65,2.65
35.62,0.50,-2.15,0.52,-2.13,2.13,1.89,3.70,2.63,2.65,2.65
35.97,0.58,-2.07,0.58,-2.07,2.07,1.82,3.60,2.65,2.65,2.65
36.33,0.65,-2.00,0.64,-2.01,2.01,1.76,3.51,2.65,2.65,2.65
36.70,0.72,-1.92,0.70,-1.95,1.95,1.70,3.41,2.66,2.65,2.64
37.06,0.80,-1.84,0.76,-1.88,1.88,1.64,3.30,2.68,2.64,2.64
37.43,0.90,-1.75,0.83,-1.81,1.81,1.58,3.20,2.71,2.65,2.65
37.81,1.00,-1.65,0.90,-1.74,1.74,1.52,3.09,2.74,2.65,2.65
38.19,1.02,-1.62,0.97,-1.68,1.68,1.46,2.99,2.70,2.65,2.64
38.57,0.97,-1.68,1.02,-1.62,1.62,1.41,2.88,2.59,2.65,2.65
38.95,0.92,-1.74,1.08,-1.57,1.57,1.36,2.77,2.49,2.65,2.66
39.34,1.02,-1.63,1.14,-1.51,1.51,1.30,2.67,2.53,2.65,2.65
39.74,1.15,-1.50,1.19,-1.46,1.46,1.25,2.56,2.60,2.65,2.65
40.14,1.28,-1.37,1.25,-1.40,1.40,1.20,2.45,2.68,2.65,2.65
40.54,1.39,-1.26,1.31,-1.34,1.34,1.15,2.35,2.73,2.64,2.65
40.94,1.49,-1.15,1.36,-1.28,1.28,1.10,2.24,2.77,2.64,2.64
41.35,1.48,-1.16,1.42,-1.21,1.21,1.05,2.14,2.69,2.64,2.64
41.76,1.45,-1.18,1.48,-1.14,1.14,1.00,2.03,2.59,2.63,2.63
42.18,1.47,-1.16,1.55,-1.07,1.07,0.96,1.93,2.54,2.62,2.63
42.60,1.57,-1.05,1.62,-0.99,0.99,0.91,1.83,2.56,2.61,2.62
43.03,1.67,-0.94,1.69,-0.91,0.91,0.86,1.73,2.58,2.60,2.61
43.46,1.74,-0.86,1.75,-0.84,0.84,0.82,1.63,2.58,2.59,2.60
43.90,1.81,-0.77,1.80,-0.78,0.78,0.77,1.53,2.59,2.58,2.58
44.33,1.86,-0.70,1.84,-0.73,0.73,0.73,1.43,2.58,2.56,2.56
44.78,1.91,-0.63,1.88,-0.67,0.67,0.68,1.34,2.58,2.55,2.54
45.23,1.95,-0.58,1.92,-0.61,0.61,0.64,1.24,2.56,2.54,2.53
45.68,2.00,-0.52,1.97,-0.55,0.55,0.60,1.15,2.55,2.52,2.52
46.13,2.04,-0.46,2.02,-0.49,0.49,0.55,1.05,2.53,2.51,2.50
46.60,2.09,-0.41,2.07,-0.42,0.42,0.51,0.96,2.51,2.49,2.50
47.06,2.13,-0.35,2.11,-0.37,0.37,0.47,0.87,2.50,2.48,2.48
47.53,2.12,-0.35,2.15,-0.32,0.32,0.42,0.78,2.44,2.46,2.47
48.01,2.11,-0.36,2.18,-0.27,0.27,0.38,0.69,2.37,2.45,2.47
48.49,2.18,-0.27,2.22,-0.21,0.21,0.33,0.60,2.39,2.44,2.45
48.97,2.25,-0.18,2.26,-0.16,0.16,0.29,0.52,2.41,2.42,2.43
49.46,2.29,-0.12,2.29,-0.12,0.12,0.25,0.43,2.41,2.41,2.41
49.96,2.34,-0.05,2.33,-0.07,0.07,0.20,0.35,2.41,2.40,2.39
50.46,2.39,0.01,2.37,-0.02,0.02,0.15,0.26,2.41,2.38,2.38
50.96,2.44,0.07,2.40,0.03,-0.03,0.11,0.18,2.41,2.37,2.37
51.47,2.45,0.10,2.43,0.07,-0.07,0.06,0.10,2.37,2.36,2.35
51.99,2.46,0.12,2.45,0.11,-0.11,0.01,0.02,2.35,2.34,2.34
52.51,2.51,0.18,2.48,0.15,-0.15,-0.04,-0.06,2.36,2.33,2.33
53.03,2.56,0.23,2.52,0.20,-0.20,-0.09,-0.13,2.36,2.32,2.33
53.56,2.53,0.22,2.55,0.24,-0.24,-0.14,-0.21,2.29,2.31,2.31
54.10,2.52,0.22,2.57,0.28,-0.28,-0.20,-0.28,2.24,2.30,2.30
54.64,2.59,0.31,2.60,0.31,-0.31,-0.25,-0.36,2.28,2.29,2.28
55.18,2.63,0.35,2.62,0.35,-0.35,-0.31,-0.43,2.28,2.28,2.28
55.74,2.63,0.37,2.65,0.39,-0.39,-0.37,-0.50,2.24,2.26,2.26
56.29,2.63,0.38,2.67,0.42,-0.42,-0.43,-0.57,2.20,2.25,2.25
56.86,2.62,0.38,2.70,0.46,-0.46,-0.49,-0.63,2.16,2.24,2.24
57.42,2.71,0.50,2.72,0.50,-0.50,-0.55,-0.69,2.20,2.22,2.21
58.00,2.84,0.64,2.75,0.55,-0.55,-0.62,-0.76,2.29,2.20,2.20
58.58,2.83,0.64,2.77,0.59,-0.59,-0.69,-0.82,2.24,2.18,2.19
59.16,2.82,0.65,2.78,0.63,-0.63,-0.76,-0.87,2.19,2.15,2.17
59.76,2.82,0.67,2.80,0.68,-0.68,-0.83,-0.93,2.14,2.13,2.15
60.35,2.82,0.71,2.81,0.72,-0.72,-0.89,-0.98,2.10,2.10,2.11
60.96,2.82,0.75,2.82,0.76,-0.76,-0.96,-1.03,2.06,2.06,2.07
61.57,2.82,0.79,2.83,0.80,-0.80,-1.03,-1.08,2.02,2.03,2.03
62.18,2.82,0.83,2.84,0.85,-0.85,-1.09,-1.12,1.97,1.99,1.99
62.80,2.82,0.88,2.84,0.90,-0.90,-1.15,-1.17,1.92,1.95,1.94
63.43,2.82,0.92,2.84,0.94,-0.94,-1.20,-1.21,1.88,1.90,1.90
64.07,2.82,0.97,2.83,0.97,-0.97,-1.24,-1.25,1.85,1.86,1.85
64.71,2.82,1.01,2.82,1.01,-1.01,-1.28,-1.29,1.81,1.81,1.81
65.35,2.82,1.05,2.82,1.05,-1.05,-1.31,-1.32,1.77,1.77,1.77
66.01,2.82,1.10,2.81,1.09,-1.09,-1.34,-1.35,1.72,1.72,1.72
66.67,2.82,1.15,2.81,1.14,-1.14,-1.36,-1.38,1.68,1.67,1.67
67.33,2.83,1.21,2.80,1.18,-1.18,-1.37,-1.41,1.65,1.62,1.62
68.01,2.84,1.26,2.80,1.22,-1.22,-1.37,-1.44,1.61,1.58,1.58
68.69,2.80,1.27,2.79,1.27,-1.27,-1.38,-1.47,1.53,1.53,1.53
69.37,2.76,1.28,2.79,1.31,-1.31,-1.38,-1.49,1.45,1.47,1.48
70.07,2.73,1.30,2.77,1.35,-1.35,-1.38,-1.52,1.38,1.42,1.43
70.77,2.73,1.35,2.76,1.39,-1.39,-1.38,-1.54,1.34,1.37,1.38
71.48,2.73,1.40,2.74,1.43,-1.43,-1.38,-1.57,1.30,1.31,1.33
72.19,2.73,1.47,2.72,1.46,-1.46,-1.38,-1.59,1.27,1.26,1.26
72.91,2.73,1.53,2.70,1.50,-1.50,-1.38,-1.61,1.23,1.20,1.20
73.64,2.73,1.58,2.68,1.54,-1.54,-1.39,-1.64,1.19,1.15,1.15
74.38,2.70,1.61,2.66,1.57,-1.57,-1.39,-1.66,1.12,1.09,1.09
75.12,2.65,1.62,2.64,1.61,-1.61,-1.40,-1.69,1.04,1.03,1.03
75.87,2.60,1.63,2.61,1.64,-1.64,-1.42,-1.71,0.96,0.98,0.97
76.63,2.55,1.63,2.59,1.67,-1.67,-1.43,-1.73,0.88,0.92,0.92
77.40,2.53,1.66,2.57,1.70,-1.70,-1.45,-1.76,0.83,0.87,0.87
78.17,2.53,1.72,2.54,1.73,-1.73,-1.47,-1.79,0.80,0.82,0.81
78.95,2.54,1.77,2.52,1.75,-1.75,-1.50,-1.81,0.79,0.77,0.77
79.74,2.53,1.81,2.48,1.77,-1.77,-1.52,-1.84,0.76,0.72,0.72
80.54,2.48,1.81,2.45,1.78,-1.78,-1.55,-1.87,0.69,0.67,0.67
81.35,2.41,1.79,2.42,1.80,-1.80,-1.59,-1.91,0.61,0.62,0.62
82.16,2.36,1.79,2.39,1.82,-1.82,-1.62,-1.94,0.54,0.57,0.57
82.98,2.34,1.81,2.36,1.84,-1.84,-1.66,-1.97,0.50,0.52,0.53
83.81,2.34,1.86,2.34,1.86,-1.86,-1.69,-2.01,0.48,0.48,0.48
84.65,2.34,1.91,2.31,1.88,-1.88,-1.74,-2.05,0.46,0.43,0.43
85.50,2.31,1.92,2.28,1.90,-1.90,-1.78,-2.09,0.41,0.38,0.39
86.35,2.25,1.91,2.25,1.92,-1.92,-1.82,-2.13,0.33,0.33,0.34
87.22,2.20,1.91,2.22,1.94,-1.94,-1.87,-2.17,0.26,0.28,0.29
88.09,2.15,1.91,2.19,1.96,-1.96,-1.92,-2.22,0.19,0.23,0.24
88.97,2.15,1.97,2.16,1.98,-1.98,-1.97,-2.26,0.17,0.18,0.18
89.86,2.15,2.02,2.13,2.00,-2.00,-2.02,-2.31,0.15,0.13,0.13
90.76,2.08,2.00,2.10,2.02,-2.02,-2.07,-2.36,0.06,0.08,0.08
91.66,2.06,2.03,2.07,2.04,-2.04,-2.13,-2.41,0.02,0.03,0.03
92.58,2.06,2.09,2.03,2.05,-2.05,-2.19,-2.47,0.01,-0.02,-0.03
93.51,2.01,2.09,1.99,2.07,-2.07,-2.24,-2.52,-0.06,-0.07,-0.08
94.44,1.97,2.09,1.96,2.08,-2.08,-2.30,-2.58,-0.11,-0.12,-0.12
95.39,1.95,2.12,1.92,2.09,-2.09,-2.37,-2.64,-0.14,-0.17,-0.17
96.34,1.91,2.13,1.88,2.10,-2.10,-2.43,-2.70,-0.19,-0.22,-0.22
97.30,1.84,2.11,1.84,2.11,-2.11,-2.49,-2.76,-0.27,-0.27,-0.27
98.28,1.77,2.09,1.80,2.12,-2.12,-2.56,-2.82,-0.35,-0.32,-0.32
99.26,1.74,2.10,1.76,2.13,-2.13,-2.62,-2.89,-0.39,-0.37,-0.36
100.25,1.72,2.13,1.72,2.14,-2.14,-2.69,-2.95,-0.42,-0.41,-0.41
101.25,1.70,2.16,1.69,2.15,-2.15,-2.76,-3.02,-0.45,-0.46,-0.46
102.27,1.67,2.18,1.65,2.16,-2.16,-2.83,-3.08,-0.49,-0.51,-0.51
103.29,1.61,2.17,1.62,2.18,-2.18,-2.90,-3.15,-0.57,-0.56,-0.56
104.32,1.56,2.16,1.59,2.20,-2.20,-2.96,-3.21,-0.65,-0.61,-0.60
105.37,1.54,2.19,1.57,2.23,-2.23,-3.03,-3.28,-0.69,-0.66,-0.65
106.42,1.55,2.25,1.55,2.26,-2.26,-3.10,-3.34,-0.72,-0.71,-0.70
107.48,1.58,2.34,1.54,2.30,-2.30,-3.17,-3.41,-0.72,-0.76,-0.76
108.56,1.56,2.37,1.53,2.34,-2.34,-3.24,-3.47,-0.78,-0.82,-0.81
109.64,1.54,2.40,1.52,2.39,-2.39,-3.31,-3.53,-0.85,-0.87,-0.86
110.74,1.52,2.44,1.52,2.44,-2.44,-3.38,-3.59,-0.92,-0.92,-0.92
111.85,1.50,2.46,1.53,2.50,-2.50,-3.44,-3.64,-1.00,-0.97,-0.96
112.97,1.52,2.54,1.54,2.56,-2.56,-3.51,-3.69,-1.04,-1.02,-1.02
114.10,1.58,2.65,1.56,2.63,-2.63,-3.57,-3.74,-1.05,-1.07,-1.07
115.24,1.58,2.70,1.58,2.70,-2.70,-3.63,-3.78,-1.12,-1.12,-1.12
116.39,1.58,2.75,1.61,2.77,-2.77,-3.69,-3.82,-1.20,-1.16,-1.17
117.55,1.60,2.81,1.65,2.85,-2.85,-3.74,-3.86,-1.25,-1.20,-1.21
118.73,1.67,2.92,1.68,2.93,-2.93,-3.79,-3.89,-1.26,-1.24,-1.25
119.92,1.72,3.00,1.73,3.01,-3.01,-3.84,-3.91,-1.29,-1.28,-1.28
121.12,1.81,3.13,1.78,3.09,-3.09,-3.88,-3.93,-1.29,-1.32,-1.32
122.33,1.87,3.22,1.83,3.19,-3.19,-3.92,-3.94,-1.32,-1.35,-1.35
123.55,1.91,3.29,1.90,3.28,-3.28,-3.96,-3.94,-1.37,-1.38,-1.38
124.79,1.92,3.33,1.96,3.37,-3.37,-3.99,-3.94,-1.46,-1.42,-1.41
126.03,2.02,3.46,2.02,3.46,-3.46,-4.02,-3.93,-1.44,-1.45,-1.44
127.29,2.08,3.54,2.08,3.55,-3.55,-4.04,-3.92,-1.47,-1.48,-1.46
128.57,2.13,3.63,2.14,3.64,-3.64,-4.05,-3.90,-1.51,-1.50,-1.50
129.85,2.19,3.72,2.20,3.73,-3.73,-4.07,-3.87,-1.54,-1.53,-1.53
131.15,2.25,3.81,2.25,3.81,-3.81,-4.07,-3.83,-1.57,-1.56,-1.56
132.46,2.31,3.90,2.30,3.89,-3.89,-4.07,-3.79,-1.58,-1.59,-1.59
133.79,2.37,3.99,2.35,3.97,-3.97,-4.07,-3.75,-1.60,-1.62,-1.62
135.12,2.44,4.09,2.40,4.05,-4.05,-4.05,-3.70,-1.61,-1.65,-1.65
136.48,2.45,4.12,2.45,4.13,-4.13,-4.04,-3.64,-1.68,-1.67,-1.67
137.84,2.45,4.16,2.50,4.20,-4.20,-4.02,-3.58,-1.75,-1.70,-1.71
139.22,2.47,4.21,2.54,4.27,-4.27,-3.99,-3.52,-1.80,-1.73,-1.74
140.61,2.53,4.30,2.57,4.33,-4.33,-3.96,-3.45,-1.80,-1.76,-1.77
142.02,2.55,4.34,2.59,4.38,-4.38,-3.93,-3.38,-1.83,-1.79,-1.79
143.44,2.55,4.37,2.60,4.42,-4.42,-3.89,-3.31,-1.87,-1.83,-1.82
144.87,2.55,4.41,2.59,4.45,-4.45,-3.84,-3.23,-1.90,-1.87,-1.86
146.32,2.55,4.45,2.55,4.46,-4.46,-3.80,-3.15,-1.91,-1.91,-1.90
147.78,2.55,4.48,2.48,4.44,-4.44,-3.75,-3.07,-1.89,-1.96,-1.93
149.26,2.44,4.42,2.37,4.38,-4.38,-3.69,-2.99,-1.94,-2.01,-1.98
150.75,2.33,4.37,2.21,4.29,-4.29,-3.64,-2.91,-1.96,-2.07,-2.04
152.26,2.18,4.29,2.02,4.15,-4.15,-3.58,-2.83,-1.98,-2.13,-2.11
153.78,2.01,4.19,1.79,3.98,-3.98,-3.52,-2.75,-1.98,-2.20,-2.18
155.32,1.79,4.04,1.52,3.79,-3.79,-3.45,-2.67,-2.00,-2.27,-2.25
156.88,1.49,3.82,1.24,3.58,-3.58,-3.39,-2.58,-2.09,-2.34,-2.33
158.44,1.08,3.49,0.97,3.37,-3.37,-3.32,-2.50,-2.30,-2.41,-2.41
160.03,0.78,3.27,0.70,3.17,-3.17,-3.26,-2.42,-2.40,-2.48,-2.49
161.63,0.30,2.86,0.45,2.99,-2.99,-3.19,-2.34,-2.69,-2.54,-2.56
163.24,-0.05,2.57,0.23,2.83,-2.83,-3.12,-2.26,-2.88,-2.60,-2.62
164.88,-0.33,2.34,0.03,2.69,-2.69,-3.05,-2.18,-3.02,-2.66,-2.67
166.53,-0.54,2.18,-0.12,2.59,-2.59,-2.99,-2.10,-3.13,-2.71,-2.72
168.19,-0.62,2.14,-0.23,2.51,-2.51,-2.92,-2.02,-3.13,-2.75,-2.76
169.87,-0.57,2.23,-0.31,2.46,-2.46,-2.85,-1.95,-3.04,-2.78,-2.80
171.57,-0.40,2.42,-0.35,2.45,-2.45,-2.78,-1.87,-2.85,-2.80,-2.82
173.29,-0.26,2.57,-0.36,2.47,-2.47,-2.71,-1.80,-2.73,-2.82,-2.83
175.02,-0.11,2.73,-0.32,2.51,-2.51,-2.64,-1.73,-2.62,-2.84,-2.84
176.77,-0.06,2.79,-0.27,2.58,-2.58,-2.58,-1.66,-2.64,-2.85,-2.85
178.54,-0.01,2.85,-0.20,2.65,-2.65,-2.51,-1.59,-2.67,-2.85,-2.86
180.32,-0.00,2.85,-0.12,2.74,-2.74,-2.44,-1.52,-2.74,-2.86,-2.85
182.13,0.01,2.85,-0.07,2.80,-2.80,-2.38,-1.45,-2.79,-2.87,-2.84
183.95,0.02,2.87,-0.04,2.83,-2.83,-2.31,-1.39,-2.81,-2.87,-2.85
185.79,-0.07,2.78,-0.03,2.85,-2.85,-2.25,-1.32,-2.92,-2.88,-2.85
187.65,-0.07,2.80,-0.05,2.84,-2.84,-2.18,-1.26,-2.91,-2.89,-2.87
189.52,-0.05,2.83,-0.09,2.81,-2.81,-2.12,-1.20,-2.86,-2.90,-2.88
191.42,-0.11,2.79,-0.15,2.76,-2.76,-2.06,-1.14,-2.87,-2.91,-2.90
193.33,-0.19,2.73,-0.21,2.72,-2.72,-1.99,-1.08,-2.91,-2.92,-2.92
195.27,-0.25,2.69,-0.27,2.67,-2.67,-1.93,-1.02,-2.92,-2.94,-2.94
197.22,-0.35,2.61,-0.35,2.61,-2.61,-1.87,-0.96,-2.96,-2.96,-2.96
199.19,-0.50,2.48,-0.43,2.55,-2.55,-1.81,-0.91,-3.05,-2.98,-2.98
201.18,-0.65,2.35,-0.52,2.48,-2.48,-1.75,-0.85,-3.13,-3.00,-3.00
203.19,-0.64,2.38,-0.61,2.41,-2.41,-1.69,-0.80,-3.05,-3.02,-3.02
205.23,-0.61,2.43,-0.70,2.34,-2.34,-1.63,-0.75,-2.95,-3.04,-3.04
207.28,-0.78,2.27,-0.79,2.27,-2.27,-1.57,-0.70,-3.05,-3.06,-3.05
209.35,-0.90,2.17,-0.89,2.19,-2.19,-1.51,-0.65,-3.09,-3.08,-3.07
211.44,-0.92,2.18,-0.99,2.11,-2.11,-1.45,-0.60,-3.03,-3.10,-3.10
213.56,-1.03,2.08,-1.09,2.02,-2.02,-1.39,-0.55,-3.05,-3.11,-3.11
215.69,-1.23,1.89,-1.20,1.93,-1.93,-1.33,-0.51,-3.16,-3.13,-3.12
217.85,-1.43,1.70,-1.31,1.83,-1.83,-1.27,-0.46,-3.26,-3.14,-3.13
220.03,-1.43,1.71,-1.42,1.73,-1.73,-1.21,-0.42,-3.16,-3.15,-3.14
222.23,-1.49,1.68,-1.53,1.62,-1.62,-1.14,-0.38,-3.11,-3.15,-3.17
224.45,-1.62,1.54,-1.65,1.50,-1.50,-1.08,-0.34,-3.12,-3.15,-3.16
226.70,-1.72,1.44,-1.78,1.37,-1.37,-1.02,-0.31,-3.09,-3.15,-3.16
228.96,-1.83,1.32,-1.91,1.24,-1.24,-0.95,-0.27,-3.07,-3.15,-3.15
231.25,-2.03,1.11,-2.03,1.11,-1.11,-0.89,-0.24,-3.14,-3.14,-3.14
233.57,-2.20,0.93,-2.15,0.98,-0.98,-0.82,-0.21,-3.18,-3.13,-3.13
235.90,-2.33,0.79,-2.27,0.84,-0.84,-0.76,-0.18,-3.17,-3.12,-3.12
238.26,-2.41,0.70,-2.40,0.70,-0.70,-0.69,-0.15,-3.11,-3.10,-3.11
240.64,-2.51,0.57,-2.51,0.57,-0.57,-0.62,-0.12,-3.08,-3.08,-3.08
243.05,-2.63,0.42,-2.62,0.44,-0.44,-0.55,-0.10,-3.07,-3.06,-3.05
245.48,-2.74,0.29,-2.73,0.31,-0.31,-0.47,-0.08,-3.05,-3.04,-3.03
247.93,-2.81,0.19,-2.82,0.19,-0.19,-0.40,-0.06,-3.00,-3.01,-3.00
250.41,-2.93,0.05,-2.91,0.07,-0.07,-0.32,-0.04,-3.01,-2.99,-2.98
252.92,-3.05,-0.10,-3.01,-0.05,0.05,-0.24,-0.02,-3.01,-2.96,-2.95
255.45,-3.09,-0.16,-3.10,-0.16,0.16,-0.16,-0.01,-2.93,-2.94,-2.93
258.00,-3.17,-0.26,-3.18,-0.27,0.27,-0.08,0.00,-2.90,-2.92,-2.91
260.58,-3.32,-0.43,-3.26,-0.37,0.37,0.01,0.01,-2.95,-2.89,-2.89
263.19,-3.34,-0.48,-3.35,-0.48,0.48,0.09,0.02,-2.86,-2.87,-2.86
265.82,-3.29,-0.45,-3.43,-0.59,0.59,0.18,0.03,-2.70,-2.84,-2.84
268.48,-3.40,-0.58,-3.50,-0.69,0.69,0.28,0.03,-2.72,-2.82,-2.82
271.16,-3.53,-0.74,-3.57,-0.78,0.78,0.37,0.04,-2.75,-2.79,-2.79
273.87,-3.64,-0.87,-3.64,-0.87,0.87,0.47,0.04,-2.77,-2.77,-2.77
276.61,-3.81,-1.07,-3.70,-0.96,0.96,0.56,0.04,-2.86,-2.74,-2.74
279.38,-3.89,-1.18,-3.74,-1.03,1.03,0.66,0.04,-2.86,-2.71,-2.71
282.17,-3.82,-1.13,-3.79,-1.10,1.10,0.76,0.04,-2.72,-2.69,-2.69
284.99,-3.78,-1.13,-3.83,-1.18,1.18,0.86,0.03,-2.61,-2.66,-2.65
287.84,-3.92,-1.29,-3.87,-1.24,1.24,0.96,0.03,-2.68,-2.63,-2.63
290.72,-3.92,-1.32,-3.91,-1.31,1.31,1.06,0.02,-2.61,-2.60,-2.60
293.63,-3.88,-1.31,-3.94,-1.37,1.37,1.15,0.02,-2.51,-2.57,-2.57
296.57,-3.90,-1.36,-3.96,-1.42,1.42,1.25,0.01,-2.48,-2.54,-2.54
299.53,-3.97,-1.46,-3.98,-1.46,1.46,1.34,0.00,-2.51,-2.51,-2.51
302.53,-3.97,-1.48,-3.98,-1.50,1.50,1.42,-0.01,-2.47,-2.49,-2.49
305.55,-3.94,-1.49,-3.98,-1.52,1.52,1.50,-0.01,-2.42,-2.46,-2.45
308.61,-3.93,-1.50,-3.98,-1.54,1.54,1.58,-0.02,-2.39,-2.44,-2.43
311.69,-4.02,-1.62,-3.98,-1.57,1.57,1.64,-0.03,-2.45,-2.41,-2.40
314.81,-4.03,-1.65,-3.98,-1.59,1.59,1.70,-0.04,-2.44,-2.39,-2.38
317.96,-4.03,-1.67,-3.97,-1.60,1.60,1.75,-0.05,-2.43,-2.37,-2.36
321.14,-3.96,-1.61,-3.95,-1.60,1.60,1.79,-0.07,-2.36,-2.35,-2.35
324.35,-3.93,-1.60,-3.94,-1.60,1.60,1.81,-0.08,-2.33,-2.33,-2.33
327.59,-3.93,-1.61,-3.91,-1.60,1.60,1.82,-0.09,-2.34,-2.32,-2.32
330.87,-3.93,-1.62,-3.89,-1.58,1.58,1.82,-0.10,-2.35,-2.31,-2.31
334.18,-3.81,-1.52,-3.85,-1.56,1.56,1.81,-0.11,-2.25,-2.29,-2.29
337.52,-3.75,-1.47,-3.82,-1.54,1.54,1.79,-0.12,-2.22,-2.28,-2.28
340.90,-3.75,-1.48,-3.78,-1.51,1.51,1.75,-0.14,-2.24,-2.28,-2.27
344.30,-3.73,-1.47,-3.74,-1.47,1.47,1.71,-0.15,-2.26,-2.27,-2.26
347.75,-3.67,-1.41,-3.69,-1.43,1.43,1.65,-0.16,-2.24,-2.26,-2.26
351.23,-3.65,-1.40,-3.64,-1.39,1.39,1.59,-0.17,-2.26,-2.26,-2.25
354.74,-3.65,-1.39,-3.60,-1.34,1.34,1.51,-0.18,-2.31,-2.25,-2.26
358.28,-3.57,-1.32,-3.55,-1.30,1.30,1.43,-0.20,-2.27,-2.25,-2.25
361.87,-3.49,-1.24,-3.50,-1.24,1.24,1.35,-0.21,-2.25,-2.25,-2.25
365.49,-3.45,-1.21,-3.44,-1.19,1.19,1.26,-0.22,-2.26,-2.25,-2.24
369.14,-3.36,-1.11,-3.38,-1.13,1.13,1.16,-0.23,-2.23,-2.25,-2.25
372.83,-3.33,-1.08,-3.32,-1.07,1.07,1.07,-0.25,-2.26,-2.25,-2.25
376.56,-3.30,-1.04,-3.26,-1.00,1.00,0.97,-0.26,-2.30,-2.25,-2.26
380.33,-3.18,-0.93,-3.19,-0.93,0.93,0.87,-0.27,-2.25,-2.26,-2.25
384.13,-3.07,-0.82,-3.12,-0.86,0.86,0.77,-0.29,-2.21,-2.26,-2.25
387.97,-3.02,-0.76,-3.05,-0.78,0.78,0.67,-0.30,-2.24,-2.26,-2.26
391.85,-3.00,-0.73,-2.98,-0.71,0.71,0.57,-0.31,-2.29,-2.27,-2.27
395.77,-2.90,-0.64,-2.91,-0.63,0.63,0.48,-0.32,-2.27,-2.28,-2.26
399.73,-2.81,-0.54,-2.83,-0.55,0.55,0.38,-0.34,-2.26,-2.28,-2.27
403.72,-2.75,-0.48,-2.75,-0.47,0.47,0.29,-0.35,-2.28,-2.29,-2.27
407.76,-2.66,-0.37,-2.68,-0.39,0.39,0.20,-0.36,-2.27,-2.29,-2.29
411.84,-2.57,-0.28,-2.60,-0.31,0.31,0.11,-0.38,-2.26,-2.29,-2.29
415.96,-2.54,-0.25,-2.52,-0.22,0.22,0.03,-0.39,-2.32,-2.29,-2.29
420.12,-2.44,-0.15,-2.43,-0.14,0.14,-0.05,-0.40,-2.30,-2.29,-2.29
424.32,-2.34,-0.05,-2.34,-0.05,0.05,-0.13,-0.41,-2.29,-2.29,-2.29
428.56,-2.27,0.01,-2.23,0.04,-0.04,-0.21,-0.43,-2.31,-2.27,-2.28
432.85,-2.15,0.12,-2.12,0.14,-0.14,-0.28,-0.44,-2.29,-2.26,-2.27
437.18,-1.98,0.28,-2.01,0.23,-0.23,-0.35,-0.45,-2.21,-2.24,-2.26
441.55,-1.90,0.32,-1.90,0.31,-0.31,-0.41,-0.46,-2.22,-2.21,-2.22
445.96,-1.84,0.35,-1.78,0.40,-0.40,-0.48,-0.48,-2.25,-2.18,-2.19
450.42,-1.72,0.44,-1.65,0.50,-0.50,-0.54,-0.49,-2.22,-2.15,-2.16
454.93,-1.50,0.61,-1.51,0.60,-0.60,-0.60,-0.50,-2.10,-2.10,-2.11
459.48,-1.36,0.71,-1.37,0.69,-0.69,-0.66,-0.51,-2.05,-2.06,-2.07
464.07,-1.21,0.81,-1.24,0.78,-0.78,-0.71,-0.52,-1.99,-2.02,-2.02
468.71,-1.06,0.90,-1.11,0.86,-0.86,-0.76,-0.53,-1.92,-1.97,-1.96
473.40,-0.99,0.93,-0.98,0.94,-0.94,-0.81,-0.54,-1.93,-1.92,-1.92
478.13,-0.88,0.98,-0.86,1.01,-1.01,-0.86,-0.55,-1.89,-1.87,-1.86
482.91,-0.80,1.02,-0.75,1.08,-1.08,-0.90,-0.56,-1.88,-1.83,-1.82
487.74,-0.64,1.14,-0.64,1.15,-1.15,-0.94,-0.57,-1.79,-1.78,-1.78
