frequency,raw,error,smoothed,error_smoothed,equalization,parametric_eq,fixed_band_eq,equalized_raw,equalized_smoothed,target
20.00,5.47,-2.57,5.42,-2.62,2.62,1.60,0.64,8.09,8.04,8.04
20.20,5.52,-2.53,5.53,-2.52,2.52,1.61,0.66,8.04,8.05,8.05
20.40,5.58,-2.48,5.63,-2.43,2.43,1.61,0.68,8.01,8.06,8.06
20.61,5.73,-2.34,5.74,-2.33,2.33,1.61,0.70,8.06,8.07,8.07
20.81,5.83,-2.24,5.84,-2.23,2.23,1.62,0.72,8.06,8.07,8.07
21.02,5.93,-2.15,5.95,-2.13,2.13,1.62,0.74,8.06,8.08,8.08
21.23,6.04,-2.05,6.05,-2.04,2.04,1.62,0.76,8.08,8.09,8.09
21.44,6.16,-1.94,6.16,-1.94,1.94,1.62,0.78,8.10,8.10,8.10
21.66,6.28,-1.82,6.26,-1.84,1.84,1.61,0.80,8.12,8.10,8.10
21.87,6.39,-1.72,6.36,-1.74,1.74,1.61,0.83,8.13,8.11,8.11
22.09,6.49,-1.62,6.47,-1.64,1.64,1.60,0.85,8.14,8.11,8.11
22.31,6.60,-1.52,6.57,-1.55,1.55,1.60,0.88,8.15,8.12,8.12
22.54,6.68,-1.44,6.68,-1.44,1.44,1.59,0.90,8.12,8.12,8.12
22.76,6.78,-1.35,6.78,-1.34,1.34,1.58,0.93,8.12,8.13,8.13
22.99,6.86,-1.27,6.89,-1.24,1.24,1.57,0.95,8.10,8.13,8.13
23.22,6.97,-1.16,7.02,-1.12,1.12,1.56,0.98,8.09,8.13,8.13
23.45,7.07,-1.07,7.17,-0.97,0.97,1.54,1.01,8.04,8.14,8.14
23.69,7.17,-0.97,7.30,-0.84,0.84,1.53,1.04,8.01,8.14,8.14
23.92,7.27,-0.87,7.43,-0.71,0.71,1.51,1.06,7.98,8.14,8.14
24.16,7.38,-0.76,7.52,-0.62,0.62,1.50,1.09,8.00,8.14,8.14
24.40,7.48,-0.67,7.56,-0.58,0.58,1.48,1.12,8.07,8.15,8.15
24.65,7.61,-0.54,7.56,-0.59,0.59,1.46,1.15,8.20,8.15,8.15
24.89,7.70,-0.45,7.52,-0.63,0.63,1.44,1.18,8.33,8.15,8.15
25.14,7.77,-0.38,7.44,-0.71,0.71,1.42,1.21,8.48,8.15,8.15
25.39,7.85,-0.30,7.34,-0.81,0.81,1.40,1.24,8.66,8.15,8.15
25.65,7.81,-0.34,7.22,-0.93,0.93,1.38,1.26,8.74,8.15,8.15
25.91,7.52,-0.63,7.08,-1.07,1.07,1.35,1.29,8.59,8.15,8.15
26.16,6.87,-1.28,6.93,-1.22,1.22,1.33,1.32,8.08,8.15,8.15
26.43,6.59,-1.56,6.78,-1.37,1.37,1.31,1.35,7.95,8.15,8.15
26.69,6.04,-2.11,6.64,-1.51,1.51,1.28,1.37,7.55,8.15,8.15
26.96,5.91,-2.24,6.50,-1.65,1.65,1.26,1.40,7.56,8.15,8.15
27.23,6.00,-2.15,6.38,-1.77,1.77,1.23,1.42,7.77,8.15,8.15
27.50,6.10,-2.05,6.28,-1.87,1.87,1.21,1.45,7.97,8.15,8.15
27.77,6.16,-1.99,6.22,-1.93,1.93,1.18,1.47,8.10,8.15,8.15
28.05,6.26,-1.89,6.19,-1.96,1.96,1.15,1.49,8.23,8.15,8.15
28.33,6.34,-1.81,6.20,-1.95,1.95,1.13,1.51,8.29,8.15,8.15
28.62,6.41,-1.74,6.26,-1.90,1.90,1.10,1.52,8.31,8.15,8.15
28.90,6.48,-1.67,6.36,-1.79,1.79,1.07,1.54,8.28,8.15,8.15
29.19,6.56,-1.59,6.48,-1.66,1.66,1.05,1.55,8.23,8.15,8.15
29.48,6.65,-1.50,6.60,-1.54,1.54,1.02,1.56,8.20,8.15,8.15
29.78,6.71,-1.44,6.73,-1.42,1.42,0.99,1.56,8.13,8.15,8.15
30.08,6.81,-1.34,6.82,-1.32,1.32,0.97,1.56,8.13,8.14,8.15
30.38,6.89,-1.25,6.91,-1.23,1.23,0.94,1.57,8.12,8.14,8.14
30.68,6.99,-1.15,7.01,-1.13,1.13,0.91,1.56,8.12,8.14,8.14
30.99,7.07,-1.07,7.13,-1.01,1.01,0.89,1.56,8.08,8.14,8.14
31.30,7.18,-0.95,7.24,-0.90,0.90,0.86,1.55,8.08,8.13,8.13
31.61,7.25,-0.88,7.34,-0.78,0.78,0.83,1.54,8.04,8.13,8.13
31.93,7.34,-0.78,7.43,-0.69,0.69,0.81,1.52,8.03,8.12,8.12
32.24,7.44,-0.68,7.48,-0.64,0.64,0.78,1.50,8.08,8.12,8.12
32.57,7.50,-0.61,7.51,-0.61,0.61,0.76,1.48,8.11,8.11,8.11
32.89,7.59,-0.52,7.50,-0.61,0.61,0.73,1.46,8.20,8.11,8.11
33.22,7.67,-0.43,7.47,-0.63,0.63,0.70,1.43,8.30,8.10,8.10
33.55,7.74,-0.36,7.42,-0.68,0.68,0.68,1.40,8.42,8.10,8.10
33.89,7.77,-0.32,7.35,-0.74,0.74,0.65,1.37,8.51,8.09,8.09
34.23,7.50,-0.58,7.27,-0.81,0.81,0.63,1.33,8.31,8.08,8.08
34.57,7.23,-0.84,7.18,-0.89,0.89,0.60,1.30,8.12,8.07,8.07
34.92,6.98,-1.08,7.09,-0.97,0.97,0.58,1.26,7.96,8.06,8.06
35.27,6.67,-1.39,6.99,-1.06,1.06,0.56,1.22,7.73,8.05,8.06
35.62,6.54,-1.50,6.90,-1.14,1.14,0.53,1.18,7.68,8.04,8.04
35.97,6.56,-1.47,6.82,-1.21,1.21,0.51,1.14,7.77,8.03,8.03
36.33,6.60,-1.42,6.75,-1.26,1.26,0.48,1.09,7.86,8.02,8.02
36.70,6.64,-1.36,6.70,-1.30,1.30,0.46,1.05,7.94,8.00,8.00
37.06,6.70,-1.29,6.67,-1.31,1.31,0.44,1.00,8.02,7.99,7.99
37.43,6.74,-1.23,6.67,-1.30,1.30,0.41,0.95,8.04,7.97,7.97
37.81,6.79,-1.16,6.70,-1.25,1.25,0.39,0.91,8.04,7.96,7.95
38.19,6.85,-1.09,6.77,-1.17,1.17,0.37,0.86,8.02,7.94,7.94
38.57,6.89,-1.03,6.85,-1.07,1.07,0.35,0.81,7.96,7.92,7.92
38.95,6.94,-0.96,6.95,-0.95,0.95,0.32,0.76,7.89,7.90,7.90
39.34,7.00,-0.88,7.05,-0.84,0.84,0.30,0.71,7.84,7.88,7.88
39.74,7.07,-0.79,7.13,-0.73,0.73,0.28,0.66,7.80,7.86,7.86
40.14,7.13,-0.71,7.20,-0.64,0.64,0.26,0.61,7.77,7.84,7.84
40.54,7.20,-0.62,7.25,-0.57,0.57,0.24,0.56,7.77,7.82,7.82
40.94,7.27,-0.52,7.28,-0.52,0.52,0.22,0.51,7.79,7.79,7.79
41.35,7.34,-0.43,7.29,-0.48,0.48,0.19,0.46,7.82,7.77,7.77
41.76,7.38,-0.36,7.28,-0.46,0.46,0.17,0.41,7.84,7.74,7.74
42.18,7.44,-0.28,7.26,-0.45,0.45,0.15,0.37,7.89,7.72,7.72
42.60,7.46,-0.23,7.23,-0.45,0.45,0.13,0.32,7.91,7.69,7.69
43.03,7.40,-0.26,7.20,-0.47,0.47,0.11,0.27,7.87,7.66,7.66
43.46,7.25,-0.38,7.15,-0.48,0.48,0.09,0.22,7.73,7.63,7.63
43.90,7.07,-0.53,7.10,-0.51,0.51,0.07,0.17,7.58,7.60,7.60
44.33,6.88,-0.69,7.04,-0.53,0.53,0.05,0.12,7.41,7.57,7.57
44.78,6.77,-0.77,6.99,-0.55,0.55,0.03,0.07,7.32,7.54,7.54
45.23,6.75,-0.76,6.94,-0.56,0.56,0.01,0.03,7.31,7.50,7.51
45.68,6.76,-0.71,6.90,-0.57,0.57,-0.01,-0.02,7.33,7.47,7.47
46.13,6.79,-0.64,6.86,-0.57,0.57,-0.03,-0.07,7.36,7.43,7.43
46.60,6.84,-0.55,6.84,-0.55,0.55,-0.05,-0.12,7.39,7.39,7.39
47.06,6.87,-0.49,6.84,-0.52,0.52,-0.07,-0.16,7.39,7.35,7.36
47.53,6.90,-0.42,6.85,-0.46,0.46,-0.09,-0.21,7.36,7.31,7.32
48.01,6.93,-0.34,6.88,-0.39,0.39,-0.11,-0.26,7.32,7.27,7.27
48.49,6.97,-0.26,6.93,-0.30,0.30,-0.13,-0.30,7.27,7.23,7.23
48.97,7.01,-0.17,6.98,-0.21,0.21,-0.15,-0.35,7.22,7.19,7.18
49.46,7.02,-0.12,7.04,-0.11,0.11,-0.17,-0.39,7.13,7.14,7.14
49.96,7.05,-0.04,7.09,-0.01,0.01,-0.19,-0.44,7.07,7.10,7.09
50.46,7.10,0.05,7.12,0.07,-0.07,-0.21,-0.48,7.03,7.06,7.05
50.96,7.13,0.12,7.15,0.14,-0.14,-0.23,-0.53,6.99,7.01,7.01
51.47,7.16,0.19,7.17,0.20,-0.20,-0.25,-0.57,6.96,6.97,6.97
51.99,7.19,0.27,7.17,0.25,-0.25,-0.27,-0.62,6.94,6.92,6.92
52.51,7.23,0.35,7.17,0.30,-0.30,-0.29,-0.66,6.93,6.87,6.88
53.03,7.23,0.39,7.17,0.34,-0.34,-0.31,-0.71,6.89,6.83,6.84
53.56,7.26,0.47,7.15,0.37,-0.37,-0.33,-0.75,6.89,6.78,6.79
54.10,7.25,0.51,7.14,0.40,-0.40,-0.35,-0.79,6.85,6.74,6.74
54.64,7.18,0.49,7.12,0.43,-0.43,-0.37,-0.83,6.75,6.69,6.69
55.18,7.09,0.45,7.10,0.45,-0.45,-0.39,-0.87,6.64,6.65,6.64
55.74,7.01,0.42,7.08,0.48,-0.48,-0.41,-0.91,6.53,6.61,6.59
56.29,6.94,0.39,7.07,0.51,-0.51,-0.43,-0.95,6.44,6.56,6.55
56.86,6.94,0.43,7.06,0.54,-0.54,-0.45,-0.99,6.40,6.52,6.51
57.42,6.99,0.53,7.05,0.58,-0.58,-0.47,-1.02,6.41,6.47,6.46
58.00,7.01,0.59,7.06,0.63,-0.63,-0.49,-1.06,6.38,6.42,6.42
58.58,7.05,0.67,7.07,0.69,-0.69,-0.51,-1.09,6.36,6.37,6.38
59.16,7.08,0.74,7.08,0.76,-0.76,-0.54,-1.12,6.32,6.32,6.34
59.76,7.11,0.81,7.10,0.83,-0.83,-0.56,-1.16,6.28,6.27,6.30
60.35,7.14,0.90,7.13,0.91,-0.91,-0.58,-1.19,6.23,6.22,6.24
60.96,7.19,1.01,7.17,1.00,-1.00,-0.60,-1.21,6.19,6.17,6.18
61.57,7.22,1.10,7.20,1.08,-1.08,-0.62,-1.24,6.14,6.12,6.12
62.18,7.27,1.22,7.23,1.17,-1.17,-0.65,-1.27,6.10,6.06,6.05
62.80,7.30,1.31,7.26,1.25,-1.25,-0.67,-1.29,6.05,6.01,5.99
63.43,7.31,1.38,7.27,1.32,-1.32,-0.69,-1.31,5.99,5.95,5.93
64.07,7.29,1.41,7.28,1.38,-1.38,-0.71,-1.34,5.91,5.89,5.88
64.71,7.26,1.43,7.27,1.44,-1.44,-0.74,-1.36,5.82,5.84,5.83
65.35,7.23,1.45,7.26,1.48,-1.48,-0.76,-1.38,5.75,5.78,5.78
66.01,7.23,1.50,7.24,1.51,-1.51,-0.78,-1.39,5.72,5.72,5.73
66.67,7.23,1.55,7.21,1.54,-1.54,-0.81,-1.41,5.69,5.67,5.68
67.33,7.20,1.58,7.18,1.56,-1.56,-0.83,-1.43,5.64,5.61,5.62
68.01,7.18,1.62,7.14,1.58,-1.58,-0.85,-1.44,5.60,5.56,5.56
68.69,7.18,1.68,7.10,1.60,-1.60,-0.88,-1.45,5.58,5.50,5.50
69.37,7.09,1.64,7.06,1.62,-1.62,-0.90,-1.47,5.47,5.44,5.45
70.07,7.00,1.61,7.02,1.64,-1.64,-0.93,-1.48,5.36,5.39,5.39
70.77,6.92,1.59,6.99,1.67,-1.67,-0.95,-1.50,5.26,5.33,5.33
71.48,6.88,1.61,6.96,1.70,-1.70,-0.98,-1.51,5.18,5.27,5.27
72.19,6.88,1.67,6.94,1.73,-1.73,-1.00,-1.52,5.15,5.21,5.21
72.91,6.88,1.74,6.91,1.77,-1.77,-1.03,-1.53,5.11,5.15,5.14
73.64,6.88,1.80,6.89,1.81,-1.81,-1.06,-1.55,5.08,5.09,5.08
74.38,6.88,1.86,6.88,1.85,-1.85,-1.08,-1.56,5.03,5.03,5.02
75.12,6.88,1.92,6.87,1.90,-1.90,-1.11,-1.57,4.98,4.97,4.96
75.87,6.88,1.97,6.86,1.95,-1.95,-1.14,-1.59,4.93,4.91,4.91
76.63,6.88,2.03,6.87,2.01,-2.01,-1.17,-1.60,4.87,4.86,4.85
77.40,6.88,2.08,6.88,2.09,-2.09,-1.19,-1.62,4.80,4.80,4.80
78.17,6.88,2.14,6.91,2.17,-2.17,-1.22,-1.64,4.72,4.74,4.74
78.95,6.88,2.19,6.93,2.24,-2.24,-1.25,-1.66,4.64,4.69,4.69
79.74,6.88,2.24,6.94,2.31,-2.31,-1.28,-1.67,4.58,4.63,4.64
80.54,6.88,2.30,6.93,2.35,-2.35,-1.31,-1.69,4.53,4.58,4.58
81.35,6.88,2.36,6.90,2.38,-2.38,-1.34,-1.72,4.50,4.52,4.52
82.16,6.88,2.41,6.86,2.39,-2.39,-1.37,-1.74,4.49,4.47,4.47
82.98,6.88,2.47,6.80,2.39,-2.39,-1.40,-1.76,4.49,4.41,4.41
83.81,6.88,2.53,6.74,2.38,-2.38,-1.43,-1.79,4.50,4.35,4.35
84.65,6.86,2.57,6.66,2.37,-2.37,-1.46,-1.81,4.49,4.29,4.29
85.50,6.78,2.55,6.58,2.34,-2.34,-1.49,-1.84,4.44,4.24,4.23
86.35,6.61,2.43,6.49,2.32,-2.32,-1.52,-1.87,4.30,4.18,4.18
87.22,6.36,2.24,6.40,2.29,-2.29,-1.55,-1.90,4.08,4.12,4.12
88.09,6.20,2.14,6.31,2.26,-2.26,-1.59,-1.94,3.95,4.06,4.06
88.97,5.99,1.99,6.23,2.23,-2.23,-1.62,-1.97,3.76,4.00,4.00
89.86,5.93,1.99,6.14,2.20,-2.20,-1.65,-2.01,3.73,3.94,3.94
90.76,5.93,2.05,6.06,2.18,-2.18,-1.68,-2.04,3.75,3.88,3.88
91.66,5.93,2.12,5.98,2.17,-2.17,-1.72,-2.08,3.76,3.81,3.81
92.58,5.93,2.18,5.92,2.17,-2.17,-1.75,-2.12,3.76,3.75,3.75
93.51,5.93,2.24,5.86,2.18,-2.18,-1.79,-2.16,3.75,3.69,3.69
94.44,5.90,2.27,5.82,2.20,-2.20,-1.82,-2.21,3.70,3.62,3.63
95.39,5.87,2.31,5.81,2.25,-2.25,-1.85,-2.25,3.62,3.56,3.56
96.34,5.84,2.35,5.80,2.31,-2.31,-1.89,-2.30,3.53,3.49,3.49
97.30,5.81,2.38,5.81,2.38,-2.38,-1.92,-2.34,3.43,3.43,3.43
98.28,5.80,2.44,5.81,2.45,-2.45,-1.96,-2.39,3.35,3.36,3.36
99.26,5.75,2.46,5.82,2.52,-2.52,-2.00,-2.44,3.23,3.30,3.29
100.25,5.75,2.53,5.81,2.58,-2.58,-2.03,-2.49,3.17,3.24,3.22
101.25,5.75,2.58,5.80,2.62,-2.62,-2.07,-2.54,3.13,3.17,3.17
102.27,5.75,2.64,5.77,2.66,-2.66,-2.10,-2.59,3.09,3.11,3.11
103.29,5.75,2.70,5.74,2.69,-2.69,-2.14,-2.64,3.06,3.05,3.05
104.32,5.75,2.76,5.70,2.71,-2.71,-2.18,-2.69,3.04,2.99,2.99
105.37,5.75,2.82,5.66,2.73,-2.73,-2.21,-2.75,3.02,2.93,2.93
106.42,5.72,2.84,5.61,2.74,-2.74,-2.25,-2.80,2.98,2.87,2.88
107.48,5.67,2.86,5.55,2.74,-2.74,-2.29,-2.85,2.93,2.81,2.81
108.56,5.58,2.83,5.49,2.74,-2.74,-2.32,-2.90,2.84,2.75,2.75
109.64,5.44,2.75,5.42,2.74,-2.74,-2.36,-2.95,2.70,2.69,2.69
110.74,5.31,2.68,5.35,2.73,-2.73,-2.40,-2.99,2.58,2.62,2.63
111.85,5.19,2.62,5.28,2.72,-2.72,-2.43,-3.04,2.47,2.56,2.57
112.97,5.10,2.60,5.21,2.71,-2.71,-2.47,-3.08,2.39,2.50,2.50
114.10,5.06,2.62,5.14,2.71,-2.71,-2.51,-3.13,2.35,2.43,2.44
115.24,5.05,2.68,5.08,2.71,-2.71,-2.54,-3.16,2.34,2.37,2.37
116.39,5.02,2.72,5.03,2.72,-2.72,-2.58,-3.20,2.30,2.31,2.30
117.55,4.96,2.72,4.98,2.73,-2.73,-2.62,-3.23,2.23,2.25,2.24
118.73,4.93,2.76,4.94,2.76,-2.76,-2.65,-3.26,2.17,2.18,2.17
119.92,4.92,2.81,4.91,2.79,-2.79,-2.69,-3.29,2.13,2.12,2.11
121.12,4.89,2.83,4.90,2.84,-2.84,-2.72,-3.31,2.05,2.06,2.06
122.33,4.89,2.89,4.89,2.89,-2.89,-2.76,-3.33,2.00,2.00,2.00
123.55,4.89,2.95,4.88,2.94,-2.94,-2.79,-3.35,1.95,1.93,1.94
124.79,4.89,3.01,4.87,3.00,-3.00,-2.82,-3.36,1.89,1.87,1.88
126.03,4.84,3.02,4.86,3.05,-3.05,-2.86,-3.37,1.80,1.81,1.82
127.29,4.83,3.07,4.84,3.09,-3.09,-2.89,-3.37,1.74,1.75,1.76
128.57,4.80,3.11,4.81,3.12,-3.12,-2.92,-3.37,1.68,1.69,1.69
129.85,4.77,3.14,4.77,3.14,-3.14,-2.95,-3.36,1.63,1.63,1.63
131.15,4.76,3.19,4.73,3.16,-3.16,-2.99,-3.36,1.60,1.57,1.57
132.46,4.71,3.20,4.68,3.16,-3.16,-3.02,-3.34,1.55,1.51,1.51
133.79,4.68,3.23,4.61,3.16,-3.16,-3.04,-3.33,1.52,1.45,1.45
135.12,4.61,3.22,4.54,3.15,-3.15,-3.07,-3.31,1.46,1.39,1.39
136.48,4.53,3.19,4.46,3.13,-3.13,-3.10,-3.29,1.40,1.34,1.34
137.84,4.42,3.14,4.38,3.10,-3.10,-3.13,-3.27,1.32,1.28,1.28
139.22,4.29,3.07,4.30,3.07,-3.07,-3.15,-3.24,1.22,1.23,1.22
140.61,4.18,3.01,4.22,3.05,-3.05,-3.18,-3.22,1.13,1.18,1.17
142.02,4.07,2.95,4.14,3.02,-3.02,-3.20,-3.19,1.06,1.12,1.12
143.44,4.00,2.93,4.06,2.99,-2.99,-3.22,-3.16,1.02,1.07,1.07
144.87,3.92,2.89,3.98,2.96,-2.96,-3.24,-3.13,0.96,1.02,1.03
146.32,3.87,2.89,3.91,2.93,-2.93,-3.26,-3.09,0.94,0.98,0.98
147.78,3.82,2.89,3.84,2.91,-2.91,-3.28,-3.06,0.91,0.93,0.93
149.26,3.79,2.91,3.78,2.90,-2.90,-3.30,-3.03,0.89,0.88,0.88
150.75,3.76,2.93,3.73,2.90,-2.90,-3.31,-3.00,0.86,0.83,0.83
152.26,3.71,2.92,3.69,2.91,-2.91,-3.33,-2.97,0.80,0.78,0.79
153.78,3.67,2.93,3.66,2.93,-2.93,-3.34,-2.94,0.74,0.74,0.74
155.32,3.63,2.94,3.63,2.95,-2.95,-3.35,-2.91,0.68,0.69,0.69
156.88,3.59,2.95,3.61,2.97,-2.97,-3.36,-2.88,0.62,0.64,0.64
158.44,3.55,2.96,3.58,2.99,-2.99,-3.37,-2.85,0.56,0.59,0.59
160.03,3.54,3.00,3.54,3.00,-3.00,-3.38,-2.82,0.54,0.54,0.54
161.63,3.50,3.01,3.51,3.02,-3.02,-3.38,-2.80,0.48,0.49,0.49
163.24,3.50,3.06,3.47,3.03,-3.03,-3.39,-2.78,0.47,0.44,0.44
164.88,3.48,3.09,3.43,3.04,-3.04,-3.39,-2.76,0.44,0.39,0.39
166.53,3.43,3.09,3.39,3.05,-3.05,-3.39,-2.74,0.38,0.34,0.34
168.19,3.39,3.10,3.35,3.06,-3.06,-3.39,-2.72,0.33,0.29,0.29
169.87,3.32,3.08,3.31,3.07,-3.07,-3.39,-2.70,0.25,0.24,0.24
171.57,3.26,3.07,3.27,3.08,-3.08,-3.38,-2.69,0.18,0.19,0.19
173.29,3.21,3.07,3.23,3.09,-3.09,-3.38,-2.68,0.12,0.14,0.14
175.02,3.15,3.06,3.19,3.10,-3.10,-3.37,-2.67,0.05,0.09,0.09
176.77,3.11,3.07,3.14,3.10,-3.10,-3.36,-2.66,0.01,0.04,0.04
178.54,3.08,3.09,3.10,3.11,-3.11,-3.35,-2.65,-0.02,-0.01,-0.01
180.32,3.04,3.10,3.05,3.11,-3.11,-3.34,-2.65,-0.07,-0.06,-0.06
182.13,3.00,3.11,3.01,3.11,-3.11,-3.33,-2.65,-0.11,-0.11,-0.11
183.95,2.97,3.12,2.96,3.12,-3.12,-3.31,-2.65,-0.15,-0.16,-0.15
185.79,2.94,3.14,2.92,3.12,-3.12,-3.30,-2.65,-0.18,-0.20,-0.20
187.65,2.90,3.15,2.87,3.12,-3.12,-3.28,-2.66,-0.22,-0.25,-0.25
189.52,2.84,3.14,2.83,3.13,-3.13,-3.26,-2.67,-0.29,-0.30,-0.30
191.42,2.78,3.12,2.79,3.13,-3.13,-3.24,-2.67,-0.35,-0.34,-0.34
193.33,2.74,3.13,2.74,3.13,-3.13,-3.22,-2.68,-0.39,-0.39,-0.39
195.27,2.70,3.13,2.70,3.13,-3.13,-3.20,-2.70,-0.43,-0.43,-0.43
197.22,2.65,3.13,2.65,3.12,-3.12,-3.18,-2.71,-0.47,-0.47,-0.48
199.19,2.59,3.11,2.60,3.11,-3.11,-3.15,-2.72,-0.52,-0.52,-0.52
201.18,2.53,3.09,2.54,3.10,-3.10,-3.13,-2.74,-0.57,-0.56,-0.56
203.19,2.47,3.07,2.49,3.09,-3.09,-3.10,-2.76,-0.62,-0.60,-0.60
205.23,2.42,3.05,2.44,3.07,-3.07,-3.07,-2.77,-0.65,-0.63,-0.63
207.28,2.39,3.06,2.38,3.06,-3.06,-3.05,-2.79,-0.66,-0.67,-0.67
209.35,2.36,3.07,2.33,3.04,-3.04,-3.02,-2.81,-0.68,-0.71,-0.71
211.44,2.31,3.05,2.28,3.02,-3.02,-2.99,-2.83,-0.71,-0.74,-0.74
213.56,2.24,3.01,2.23,3.00,-3.00,-2.96,-2.85,-0.76,-0.77,-0.77
215.69,2.17,2.97,2.18,2.98,-2.98,-2.93,-2.87,-0.81,-0.81,-0.80
217.85,2.11,2.94,2.13,2.97,-2.97,-2.90,-2.89,-0.86,-0.84,-0.83
220.03,2.06,2.93,2.08,2.95,-2.95,-2.86,-2.91,-0.89,-0.87,-0.87
222.23,2.02,2.92,2.03,2.93,-2.93,-2.83,-2.92,-0.91,-0.90,-0.90
224.45,1.98,2.91,1.99,2.91,-2.91,-2.80,-2.94,-0.93,-0.92,-0.93
226.70,1.93,2.88,1.94,2.89,-2.89,-2.77,-2.95,-0.96,-0.95,-0.95
228.96,1.88,2.85,1.89,2.87,-2.87,-2.73,-2.97,-0.99,-0.98,-0.97
231.25,1.85,2.85,1.84,2.84,-2.84,-2.70,-2.98,-0.99,-1.00,-1.00
233.57,1.82,2.84,1.80,2.82,-2.82,-2.66,-2.99,-1.00,-1.02,-1.02
235.90,1.77,2.82,1.75,2.80,-2.80,-2.63,-2.99,-1.03,-1.04,-1.05
238.26,1.73,2.80,1.71,2.78,-2.78,-2.59,-2.99,-1.05,-1.07,-1.07
240.64,1.67,2.75,1.67,2.75,-2.75,-2.56,-2.99,-1.08,-1.08,-1.08
243.05,1.61,2.71,1.62,2.72,-2.72,-2.52,-2.99,-1.11,-1.10,-1.10
245.48,1.57,2.69,1.58,2.69,-2.69,-2.49,-2.98,-1.12,-1.12,-1.12
247.93,1.53,2.67,1.53,2.66,-2.66,-2.45,-2.97,-1.13,-1.13,-1.14
250.41,1.48,2.63,1.48,2.63,-2.63,-2.42,-2.96,-1.15,-1.15,-1.15
252.92,1.43,2.59,1.44,2.60,-2.60,-2.38,-2.94,-1.17,-1.16,-1.16
255.45,1.40,2.58,1.39,2.57,-2.57,-2.35,-2.92,-1.17,-1.18,-1.18
258.00,1.35,2.54,1.35,2.54,-2.54,-2.31,-2.90,-1.19,-1.19,-1.19
260.58,1.31,2.51,1.31,2.51,-2.51,-2.28,-2.87,-1.20,-1.20,-1.20
263.19,1.26,2.47,1.27,2.48,-2.48,-2.24,-2.84,-1.22,-1.21,-1.21
265.82,1.21,2.43,1.23,2.46,-2.46,-2.21,-2.80,-1.24,-1.22,-1.22
268.48,1.16,2.39,1.20,2.43,-2.43,-2.17,-2.77,-1.27,-1.23,-1.23
271.16,1.16,2.40,1.16,2.40,-2.40,-2.14,-2.73,-1.24,-1.24,-1.24
273.87,1.12,2.37,1.13,2.38,-2.38,-2.11,-2.69,-1.26,-1.25,-1.25
276.61,1.11,2.37,1.09,2.35,-2.35,-2.07,-2.64,-1.24,-1.26,-1.26
279.38,1.07,2.34,1.06,2.32,-2.32,-2.04,-2.59,-1.25,-1.26,-1.27
282.17,1.03,2.30,1.02,2.29,-2.29,-2.00,-2.55,-1.26,-1.27,-1.27
284.99,1.00,2.27,0.98,2.25,-2.25,-1.97,-2.50,-1.25,-1.27,-1.27
287.84,0.97,2.24,0.95,2.22,-2.22,-1.94,-2.44,-1.25,-1.27,-1.27
290.72,0.92,2.20,0.91,2.19,-2.19,-1.91,-2.39,-1.26,-1.28,-1.28
293.63,0.88,2.16,0.87,2.15,-2.15,-1.87,-2.34,-1.27,-1.28,-1.28
296.57,0.83,2.11,0.83,2.11,-2.11,-1.84,-2.29,-1.28,-1.28,-1.28
299.53,0.79,2.07,0.80,2.08,-2.08,-1.81,-2.23,-1.29,-1.28,-1.28
302.53,0.74,2.02,0.76,2.04,-2.04,-1.78,-2.18,-1.30,-1.28,-1.28
305.55,0.70,1.98,0.72,2.00,-2.00,-1.75,-2.12,-1.30,-1.28,-1.28
308.61,0.66,1.94,0.69,1.97,-1.97,-1.72,-2.07,-1.31,-1.28,-1.28
311.69,0.63,1.91,0.65,1.93,-1.93,-1.69,-2.01,-1.30,-1.28,-1.28
314.81,0.60,1.88,0.62,1.90,-1.90,-1.66,-1.96,-1.30,-1.28,-1.28
317.96,0.59,1.87,0.58,1.86,-1.86,-1.63,-1.90,-1.27,-1.28,-1.28
321.14,0.55,1.83,0.55,1.83,-1.83,-1.60,-1.85,-1.28,-1.28,-1.28
324.35,0.55,1.83,0.52,1.79,-1.79,-1.57,-1.80,-1.24,-1.28,-1.28
327.59,0.51,1.78,0.48,1.76,-1.76,-1.54,-1.75,-1.25,-1.27,-1.27
330.87,0.47,1.74,0.45,1.72,-1.72,-1.51,-1.70,-1.25,-1.27,-1.27
334.18,0.44,1.71,0.42,1.69,-1.69,-1.48,-1.65,-1.25,-1.27,-1.27
337.52,0.39,1.66,0.39,1.65,-1.65,-1.46,-1.60,-1.26,-1.27,-1.27
340.90,0.34,1.60,0.35,1.61,-1.61,-1.43,-1.55,-1.27,-1.26,-1.26
344.30,0.31,1.57,0.32,1.57,-1.57,-1.40,-1.51,-1.26,-1.26,-1.26
347.75,0.25,1.50,0.28,1.53,-1.53,-1.38,-1.46,-1.28,-1.25,-1.25
351.23,0.23,1.48,0.24,1.49,-1.49,-1.35,-1.41,-1.26,-1.25,-1.25
354.74,0.21,1.45,0.21,1.45,-1.45,-1.33,-1.37,-1.24,-1.24,-1.24
358.28,0.19,1.43,0.18,1.42,-1.42,-1.30,-1.33,-1.23,-1.24,-1.24
361.87,0.16,1.39,0.15,1.38,-1.38,-1.28,-1.29,-1.22,-1.23,-1.23
365.49,0.13,1.35,0.13,1.36,-1.36,-1.25,-1.25,-1.22,-1.23,-1.22
369.14,0.08,1.30,0.11,1.33,-1.33,-1.23,-1.21,-1.25,-1.22,-1.22
372.83,0.08,1.29,0.09,1.30,-1.30,-1.21,-1.17,-1.22,-1.21,-1.21
376.56,0.03,1.24,0.07,1.28,-1.28,-1.18,-1.13,-1.24,-1.21,-1.21
380.33,0.06,1.26,0.05,1.25,-1.25,-1.16,-1.10,-1.19,-1.20,-1.20
384.13,0.03,1.23,0.03,1.22,-1.22,-1.14,-1.06,-1.19,-1.20,-1.20
387.97,0.03,1.22,0.01,1.20,-1.20,-1.12,-1.03,-1.17,-1.19,-1.19
391.85,0.02,1.20,-0.01,1.18,-1.18,-1.09,-0.99,-1.15,-1.18,-1.18
395.77,-0.01,1.17,-0.03,1.15,-1.15,-1.07,-0.96,-1.16,-1.18,-1.18
399.73,-0.03,1.14,-0.04,1.13,-1.13,-1.05,-0.93,-1.16,-1.17,-1.17
403.72,-0.06,1.10,-0.06,1.10,-1.10,-1.03,-0.90,-1.16,-1.16,-1.16
407.76,-0.10,1.06,-0.08,1.08,-1.08,-1.01,-0.87,-1.18,-1.16,-1.16
411.84,-0.11,1.04,-0.10,1.05,-1.05,-0.99,-0.84,-1.16,-1.15,-1.15
415.96,-0.14,1.00,-0.12,1.02,-1.02,-0.97,-0.81,-1.16,-1.14,-1.14
420.12,-0.14,1.00,-0.14,1.00,-1.00,-0.95,-0.78,-1.14,-1.14,-1.14
424.32,-0.14,0.99,-0.16,0.97,-0.97,-0.93,-0.76,-1.11,-1.13,-1.13
428.56,-0.18,0.94,-0.18,0.94,-0.94,-0.92,-0.73,-1.12,-1.12,-1.12
432.85,-0.18,0.93,-0.20,0.92,-0.92,-0.90,-0.71,-1.10,-1.11,-1.11
437.18,-0.22,0.89,-0.21,0.89,-0.89,-0.88,-0.68,-1.11,-1.11,-1.11
441.55,-0.23,0.87,-0.23,0.87,-0.87,-0.86,-0.66,-1.10,-1.10,-1.10
445.96,-0.27,0.82,-0.24,0.85,-0.85,-0.84,-0.64,-1.12,-1.09,-1.09
450.42,-0.27,0.81,-0.25,0.83,-0.83,-0.83,-0.62,-1.10,-1.08,-1.08
454.93,-0.27,0.80,-0.27,0.80,-0.80,-0.81,-0.60,-1.07,-1.07,-1.07
459.48,-0.27,0.79,-0.28,0.78,-0.78,-0.79,-0.58,-1.05,-1.06,-1.06
464.07,-0.27,0.78,-0.29,0.76,-0.76,-0.78,-0.56,-1.03,-1.05,-1.05
468.71,-0.31,0.73,-0.30,0.74,-0.74,-0.76,-0.54,-1.05,-1.04,-1.04
473.40,-0.31,0.72,-0.32,0.71,-0.71,-0.75,-0.52,-1.02,-1.03,-1.03
478.13,-0.31,0.71,-0.33,0.69,-0.69,-0.73,-0.50,-1.00,-1.02,-1.02
482.91,-0.36,0.65,-0.34,0.67,-0.67,-0.72,-0.48,-1.03,-1.01,-1.01
487.74,-0.36,0.64,-0.35,0.65,-0.65,-0.70,-0.47,-1.01,-1.00,-1.00
492.62,-0.36,0.63,-0.37,0.62,-0.62,-0.69,-0.45,-0.98,-0.99,-0.99
497.55,-0.36,0.62,-0.38,0.60,-0.60,-0.67,-0.44,-0.96,-0.98,-0.98
502.52,-0.40,0.57,-0.39,0.58,-0.58,-0.66,-0.42,-0.98,-0.97,-0.97
507.55,-0.40,0.55,-0.40,0.55,-0.55,-0.65,-0.41,-0.95,-0.96,-0.95
512.62,-0.40,0.54,-0.41,0.53,-0.53,-0.63,-0.40,-0.93,-0.94,-0.94
517.75,-0.44,0.49,-0.42,0.51,-0.51,-0.62,-0.39,-0.95,-0.93,-0.93
