frequency,raw,error,smoothed,error_smoothed,equalization,parametric_eq,fixed_band_eq,equalized_raw,equalized_smoothed,target
20.00,8.22,-3.89,8.21,-3.90,3.90,3.10,0.92,12.11,12.11,12.11
20.20,8.27,-3.83,8.26,-3.83,3.83,3.18,0.95,12.10,12.10,12.10
20.40,8.32,-3.77,8.32,-3.77,3.77,3.25,0.98,12.08,12.08,12.08
20.61,8.37,-3.71,8.37,-3.70,3.70,3.32,1.01,12.07,12.07,12.07
20.81,8.42,-3.64,8.42,-3.64,3.64,3.38,1.04,12.06,12.06,12.05
21.02,8.47,-3.58,8.47,-3.58,3.58,3.43,1.07,12.04,12.05,12.04
21.23,8.53,-3.51,8.52,-3.51,3.51,3.47,1.10,12.04,12.04,12.03
21.44,8.58,-3.46,8.58,-3.45,3.45,3.50,1.13,12.03,12.03,12.04
21.66,8.63,-3.39,8.63,-3.39,3.39,3.52,1.17,12.02,12.02,12.02
21.87,8.68,-3.34,8.68,-3.33,3.33,3.53,1.20,12.01,12.01,12.02
22.09,8.73,-3.27,8.73,-3.27,3.27,3.52,1.24,12.00,12.00,12.00
22.31,8.78,-3.22,8.78,-3.21,3.21,3.51,1.28,11.99,11.99,12.00
22.54,8.83,-3.16,8.83,-3.16,3.16,3.48,1.32,11.98,11.99,11.99
22.76,8.89,-3.10,8.88,-3.10,3.10,3.45,1.36,11.99,11.98,11.98
22.99,8.94,-3.04,8.93,-3.04,3.04,3.40,1.40,11.98,11.98,11.97
23.22,8.99,-2.98,8.99,-2.99,2.99,3.34,1.44,11.97,11.97,11.96
23.45,9.04,-2.93,9.04,-2.93,2.93,3.28,1.48,11.97,11.97,11.97
23.69,9.09,-2.87,9.08,-2.88,2.88,3.21,1.52,11.96,11.96,11.96
23.92,9.14,-2.81,9.13,-2.82,2.82,3.13,1.57,11.96,11.96,11.95
24.16,9.19,-2.77,9.18,-2.77,2.77,3.05,1.61,11.96,11.95,11.96
24.40,9.24,-2.72,9.23,-2.72,2.72,2.96,1.66,11.95,11.95,11.95
24.65,9.28,-2.68,9.28,-2.67,2.67,2.87,1.70,11.94,11.95,11.95
24.89,9.33,-2.62,9.33,-2.62,2.62,2.78,1.75,11.94,11.95,11.95
25.14,9.38,-2.56,9.38,-2.57,2.57,2.68,1.79,11.94,11.94,11.94
25.39,9.43,-2.51,9.42,-2.52,2.52,2.59,1.84,11.94,11.94,11.94
25.65,9.47,-2.47,9.47,-2.47,2.47,2.49,1.88,11.94,11.94,11.94
25.91,9.52,-2.42,9.52,-2.42,2.42,2.40,1.93,11.94,11.94,11.93
26.16,9.57,-2.38,9.56,-2.37,2.37,2.31,1.97,11.94,11.94,11.94
26.43,9.61,-2.33,9.61,-2.33,2.33,2.21,2.02,11.94,11.94,11.94
26.69,9.66,-2.28,9.65,-2.28,2.28,2.12,2.06,11.94,11.94,11.94
26.96,9.70,-2.24,9.70,-2.24,2.24,2.04,2.10,11.94,11.94,11.94
27.23,9.74,-2.20,9.74,-2.20,2.20,1.95,2.14,11.93,11.94,11.93
27.50,9.79,-2.14,9.78,-2.15,2.15,1.87,2.18,11.94,11.94,11.93
27.77,9.83,-2.11,9.83,-2.11,2.11,1.79,2.22,11.94,11.94,11.94
28.05,9.87,-2.07,9.87,-2.07,2.07,1.71,2.25,11.94,11.94,11.94
28.33,9.91,-2.04,9.91,-2.03,2.03,1.63,2.28,11.94,11.94,11.94
28.62,9.95,-1.99,9.95,-1.99,1.99,1.56,2.31,11.94,11.94,11.94
28.90,10.00,-1.95,9.99,-1.95,1.95,1.49,2.34,11.95,11.94,11.95
29.19,10.03,-1.92,10.03,-1.91,1.91,1.43,2.36,11.94,11.94,11.94
29.48,10.07,-1.87,10.06,-1.87,1.87,1.36,2.38,11.94,11.94,11.94
29.78,10.10,-1.84,10.10,-1.84,1.84,1.30,2.39,11.93,11.93,11.94
30.08,10.14,-1.80,10.13,-1.80,1.80,1.24,2.41,11.93,11.93,11.93
30.38,10.17,-1.75,10.16,-1.76,1.76,1.18,2.41,11.93,11.93,11.92
30.68,10.20,-1.72,10.19,-1.73,1.73,1.13,2.41,11.92,11.92,11.92
30.99,10.23,-1.69,10.22,-1.69,1.69,1.07,2.41,11.92,11.91,11.91
31.30,10.25,-1.66,10.25,-1.66,1.66,1.02,2.41,11.90,11.91,11.91
31.61,10.28,-1.63,10.28,-1.62,1.62,0.98,2.40,11.90,11.90,11.90
31.93,10.30,-1.58,10.30,-1.59,1.59,0.93,2.38,11.89,11.89,11.88
32.24,10.33,-1.56,10.32,-1.56,1.56,0.88,2.36,11.88,11.88,11.89
32.57,10.35,-1.52,10.35,-1.53,1.53,0.84,2.34,11.87,11.87,11.87
32.89,10.37,-1.50,10.37,-1.50,1.50,0.80,2.31,11.86,11.87,11.87
33.22,10.40,-1.46,10.39,-1.47,1.47,0.76,2.28,11.86,11.86,11.86
33.55,10.42,-1.44,10.41,-1.44,1.44,0.72,2.25,11.85,11.85,11.86
33.89,10.44,-1.40,10.44,-1.41,1.41,0.68,2.21,11.84,11.84,11.84
34.23,10.46,-1.37,10.46,-1.38,1.38,0.65,2.17,11.83,11.83,11.82
34.57,10.48,-1.34,10.48,-1.35,1.35,0.61,2.12,11.82,11.82,11.82
34.92,10.50,-1.31,10.50,-1.31,1.31,0.58,2.07,11.81,11.81,11.80
35.27,10.52,-1.30,10.52,-1.28,1.28,0.55,2.02,11.80,11.80,11.82
35.62,10.54,-1.25,10.54,-1.25,1.25,0.52,1.97,11.79,11.79,11.79
35.97,10.56,-1.23,10.56,-1.22,1.22,0.49,1.92,11.77,11.77,11.78
36.33,10.58,-1.19,10.57,-1.18,1.18,0.46,1.86,11.76,11.76,11.76
36.70,10.60,-1.14,10.59,-1.15,1.15,0.43,1.81,11.74,11.74,11.74
37.06,10.61,-1.11,10.61,-1.11,1.11,0.41,1.75,11.71,11.72,11.72
37.43,10.63,-1.07,10.63,-1.07,1.07,0.38,1.69,11.70,11.70,11.70
37.81,10.65,-1.04,10.65,-1.03,1.03,0.35,1.63,11.68,11.68,11.68
38.19,10.67,-0.99,10.67,-0.99,0.99,0.33,1.57,11.66,11.66,11.65
38.57,10.69,-0.95,10.69,-0.95,0.95,0.30,1.51,11.64,11.64,11.64
38.95,10.71,-0.91,10.70,-0.91,0.91,0.28,1.45,11.61,11.61,11.62
39.34,10.72,-0.87,10.72,-0.87,0.87,0.26,1.39,11.58,11.59,11.59
39.74,10.74,-0.82,10.73,-0.83,0.83,0.24,1.32,11.57,11.56,11.56
40.14,10.75,-0.79,10.75,-0.79,0.79,0.21,1.26,11.54,11.54,11.54
40.54,10.77,-0.75,10.76,-0.75,0.75,0.19,1.20,11.52,11.51,11.52
40.94,10.78,-0.71,10.77,-0.72,0.72,0.17,1.14,11.49,11.49,11.48
41.35,10.79,-0.68,10.78,-0.68,0.68,0.15,1.08,11.47,11.46,11.46
41.76,10.80,-0.63,10.79,-0.65,0.65,0.13,1.02,11.45,11.44,11.43
42.18,10.80,-0.62,10.80,-0.62,0.62,0.11,0.96,11.41,11.41,11.42
42.60,10.80,-0.59,10.80,-0.58,0.58,0.09,0.90,11.38,11.39,11.38
43.03,10.80,-0.56,10.80,-0.56,0.56,0.08,0.85,11.35,11.36,11.36
43.46,10.80,-0.53,10.80,-0.53,0.53,0.06,0.79,11.32,11.33,11.33
43.90,10.81,-0.50,10.81,-0.50,0.50,0.04,0.73,11.30,11.30,11.30
44.33,10.81,-0.46,10.80,-0.47,0.47,0.02,0.67,11.27,11.27,11.27
44.78,10.80,-0.45,10.80,-0.44,0.44,0.00,0.62,11.24,11.24,11.24
45.23,10.80,-0.42,10.79,-0.41,0.41,-0.01,0.56,11.21,11.20,11.22
45.68,10.79,-0.38,10.78,-0.38,0.38,-0.03,0.51,11.17,11.17,11.17
46.13,10.79,-0.35,10.77,-0.36,0.36,-0.05,0.45,11.14,11.13,11.13
46.60,10.77,-0.33,10.76,-0.33,0.33,-0.07,0.40,11.09,11.09,11.09
47.06,10.76,-0.30,10.75,-0.30,0.30,-0.08,0.35,11.06,11.05,11.05
47.53,10.74,-0.28,10.73,-0.27,0.27,-0.10,0.29,11.01,11.00,11.02
48.01,10.73,-0.23,10.72,-0.24,0.24,-0.12,0.24,10.97,10.96,10.96
48.49,10.71,-0.21,10.70,-0.22,0.22,-0.13,0.19,10.92,10.92,10.92
48.97,10.68,-0.19,10.68,-0.19,0.19,-0.15,0.14,10.86,10.87,10.86
49.46,10.66,-0.17,10.67,-0.16,0.16,-0.16,0.09,10.81,10.82,10.82
49.96,10.63,-0.13,10.65,-0.13,0.13,-0.18,0.04,10.75,10.78,10.76
50.46,10.62,-0.11,10.63,-0.10,0.10,-0.20,-0.01,10.71,10.73,10.73
50.96,10.61,-0.07,10.61,-0.07,0.07,-0.21,-0.06,10.67,10.68,10.68
51.47,10.60,-0.04,10.60,-0.04,0.04,-0.23,-0.11,10.64,10.63,10.64
51.99,10.59,0.01,10.58,-0.01,0.01,-0.24,-0.16,10.59,10.59,10.58
52.51,10.57,0.02,10.56,0.02,-0.02,-0.26,-0.20,10.54,10.54,10.54
53.03,10.56,0.05,10.55,0.05,-0.05,-0.28,-0.25,10.50,10.49,10.50
53.56,10.54,0.08,10.53,0.08,-0.08,-0.29,-0.29,10.45,10.45,10.46
54.10,10.53,0.13,10.52,0.12,-0.12,-0.31,-0.34,10.41,10.40,10.40
54.64,10.51,0.15,10.51,0.15,-0.15,-0.32,-0.38,10.36,10.36,10.36
55.18,10.49,0.18,10.49,0.18,-0.18,-0.34,-0.42,10.31,10.31,10.30
55.74,10.48,0.22,10.48,0.21,-0.21,-0.36,-0.47,10.26,10.27,10.25
56.29,10.46,0.24,10.47,0.25,-0.25,-0.37,-0.51,10.21,10.22,10.22
56.86,10.45,0.27,10.46,0.28,-0.28,-0.39,-0.54,10.17,10.18,10.17
57.42,10.44,0.32,10.44,0.32,-0.32,-0.41,-0.58,10.12,10.13,10.12
58.00,10.42,0.34,10.43,0.35,-0.35,-0.42,-0.62,10.06,10.08,10.07
58.58,10.42,0.38,10.42,0.39,-0.39,-0.44,-0.66,10.03,10.03,10.03
59.16,10.42,0.42,10.40,0.43,-0.43,-0.46,-0.69,9.99,9.98,10.00
59.76,10.40,0.45,10.39,0.47,-0.47,-0.47,-0.72,9.93,9.92,9.95
60.35,10.39,0.50,10.37,0.50,-0.50,-0.49,-0.76,9.88,9.87,9.88
60.96,10.37,0.54,10.35,0.54,-0.54,-0.51,-0.79,9.82,9.81,9.82
61.57,10.35,0.60,10.33,0.58,-0.58,-0.53,-0.82,9.77,9.75,9.75
62.18,10.32,0.63,10.31,0.61,-0.61,-0.54,-0.84,9.70,9.69,9.68
62.80,10.29,0.67,10.28,0.65,-0.65,-0.56,-0.87,9.64,9.63,9.62
63.43,10.26,0.70,10.25,0.69,-0.69,-0.58,-0.89,9.57,9.57,9.55
64.07,10.23,0.73,10.23,0.72,-0.72,-0.60,-0.92,9.51,9.50,9.49
64.71,10.19,0.75,10.20,0.76,-0.76,-0.62,-0.94,9.43,9.44,9.43
65.35,10.16,0.78,10.17,0.79,-0.79,-0.63,-0.96,9.37,9.38,9.37
66.01,10.13,0.81,10.14,0.83,-0.83,-0.65,-0.98,9.30,9.31,9.31
66.67,10.10,0.84,10.11,0.86,-0.86,-0.67,-1.00,9.24,9.25,9.26
67.33,10.07,0.88,10.08,0.90,-0.90,-0.69,-1.02,9.17,9.19,9.18
68.01,10.05,0.92,10.05,0.93,-0.93,-0.71,-1.04,9.11,9.12,9.13
68.69,10.03,0.97,10.03,0.97,-0.97,-0.73,-1.05,9.06,9.06,9.06
69.37,10.01,1.00,10.00,1.01,-1.01,-0.75,-1.07,9.00,8.99,9.00
70.07,9.99,1.05,9.97,1.05,-1.05,-0.77,-1.09,8.94,8.93,8.93
70.77,9.96,1.10,9.95,1.09,-1.09,-0.79,-1.10,8.87,8.86,8.86
71.48,9.93,1.13,9.92,1.13,-1.13,-0.81,-1.12,8.80,8.79,8.80
72.19,9.90,1.17,9.89,1.17,-1.17,-0.83,-1.13,8.73,8.72,8.72
72.91,9.86,1.21,9.87,1.21,-1.21,-0.86,-1.15,8.65,8.66,8.65
73.64,9.84,1.25,9.84,1.25,-1.25,-0.88,-1.16,8.59,8.59,8.58
74.38,9.81,1.29,9.81,1.28,-1.28,-0.90,-1.18,8.52,8.53,8.52
75.12,9.78,1.32,9.78,1.32,-1.32,-0.92,-1.19,8.46,8.46,8.46
75.87,9.75,1.35,9.74,1.35,-1.35,-0.94,-1.21,8.40,8.40,8.40
76.63,9.71,1.38,9.71,1.38,-1.38,-0.97,-1.23,8.33,8.33,8.33
77.40,9.68,1.40,9.68,1.40,-1.40,-0.99,-1.24,8.27,8.27,8.27
78.17,9.64,1.44,9.64,1.43,-1.43,-1.01,-1.26,8.21,8.21,8.20
78.95,9.61,1.45,9.60,1.46,-1.46,-1.04,-1.28,8.15,8.15,8.15
79.74,9.57,1.48,9.57,1.48,-1.48,-1.06,-1.30,8.09,8.09,8.09
80.54,9.54,1.51,9.53,1.50,-1.50,-1.09,-1.32,8.03,8.02,8.03
81.35,9.50,1.54,9.49,1.53,-1.53,-1.11,-1.34,7.97,7.96,7.96
82.16,9.46,1.54,9.45,1.55,-1.55,-1.14,-1.36,7.91,7.90,7.91
82.98,9.41,1.57,9.41,1.57,-1.57,-1.16,-1.38,7.84,7.84,7.84
83.81,9.36,1.58,9.37,1.59,-1.59,-1.19,-1.41,7.76,7.77,7.78
84.65,9.32,1.61,9.32,1.61,-1.61,-1.22,-1.43,7.70,7.71,7.71
85.50,9.28,1.63,9.28,1.64,-1.64,-1.24,-1.46,7.64,7.65,7.64
86.35,9.24,1.66,9.24,1.66,-1.66,-1.27,-1.49,7.58,7.58,7.58
87.22,9.20,1.69,9.20,1.69,-1.69,-1.30,-1.52,7.51,7.51,7.51
88.09,9.17,1.72,9.16,1.71,-1.71,-1.33,-1.55,7.45,7.44,7.44
88.97,9.12,1.74,9.11,1.74,-1.74,-1.36,-1.58,7.38,7.38,7.38
89.86,9.08,1.77,9.07,1.76,-1.76,-1.39,-1.61,7.31,7.31,7.31
90.76,9.02,1.78,9.03,1.79,-1.79,-1.42,-1.64,7.22,7.24,7.24
91.66,8.98,1.82,8.98,1.82,-1.82,-1.45,-1.68,7.16,7.16,7.16
92.58,8.94,1.84,8.94,1.85,-1.85,-1.48,-1.71,7.09,7.09,7.10
93.51,8.90,1.87,8.89,1.87,-1.87,-1.51,-1.75,7.02,7.02,7.03
94.44,8.87,1.91,8.85,1.90,-1.90,-1.54,-1.79,6.97,6.95,6.95
95.39,8.82,1.94,8.80,1.93,-1.93,-1.57,-1.83,6.89,6.87,6.87
96.34,8.77,1.97,8.75,1.96,-1.96,-1.60,-1.87,6.81,6.80,6.80
97.30,8.71,1.98,8.71,1.98,-1.98,-1.63,-1.91,6.72,6.72,6.73
98.28,8.65,2.00,8.66,2.01,-2.01,-1.67,-1.95,6.64,6.65,6.64
99.26,8.60,2.03,8.62,2.04,-2.04,-1.70,-2.00,6.56,6.58,6.57
100.25,8.56,2.06,8.57,2.07,-2.07,-1.73,-2.04,6.49,6.51,6.49
101.25,8.52,2.09,8.53,2.10,-2.10,-1.77,-2.09,6.42,6.43,6.43
102.27,8.47,2.10,8.48,2.12,-2.12,-1.80,-2.13,6.34,6.36,6.36
103.29,8.45,2.16,8.44,2.15,-2.15,-1.83,-2.18,6.30,6.29,6.29
104.32,8.41,2.18,8.39,2.17,-2.17,-1.87,-2.22,6.24,6.22,6.22
105.37,8.36,2.20,8.35,2.19,-2.19,-1.90,-2.27,6.16,6.15,6.16
106.42,8.31,2.22,8.30,2.22,-2.22,-1.94,-2.31,6.09,6.09,6.09
107.48,8.27,2.25,8.26,2.24,-2.24,-1.98,-2.36,6.02,6.02,6.02
108.56,8.23,2.28,8.22,2.27,-2.27,-2.01,-2.40,5.95,5.95,5.95
109.64,8.19,2.30,8.17,2.30,-2.30,-2.05,-2.44,5.89,5.88,5.89
110.74,8.13,2.32,8.12,2.32,-2.32,-2.08,-2.49,5.81,5.80,5.81
111.85,8.07,2.33,8.07,2.34,-2.34,-2.12,-2.53,5.73,5.73,5.74
112.97,8.01,2.34,8.02,2.36,-2.36,-2.16,-2.57,5.64,5.66,5.67
114.10,7.96,2.36,7.97,2.38,-2.38,-2.19,-2.60,5.58,5.59,5.60
115.24,7.92,2.40,7.92,2.40,-2.40,-2.23,-2.64,5.52,5.52,5.51
116.39,7.89,2.45,7.87,2.42,-2.42,-2.27,-2.67,5.47,5.45,5.44
117.55,7.85,2.48,7.81,2.44,-2.44,-2.30,-2.70,5.41,5.38,5.37
118.73,7.77,2.47,7.76,2.45,-2.45,-2.34,-2.73,5.31,5.31,5.30
119.92,7.70,2.46,7.71,2.47,-2.47,-2.38,-2.76,5.23,5.24,5.23
121.12,7.63,2.45,7.66,2.49,-2.49,-2.41,-2.78,5.14,5.17,5.17
122.33,7.60,2.49,7.61,2.50,-2.50,-2.45,-2.80,5.09,5.10,5.10
123.55,7.57,2.52,7.56,2.52,-2.52,-2.49,-2.81,5.04,5.03,5.04
124.79,7.51,2.53,7.50,2.54,-2.54,-2.52,-2.83,4.97,4.97,4.97
126.03,7.45,2.54,7.45,2.55,-2.55,-2.56,-2.84,4.89,4.90,4.91
127.29,7.41,2.57,7.40,2.57,-2.57,-2.59,-2.84,4.84,4.83,4.84
128.57,7.36,2.59,7.35,2.58,-2.58,-2.63,-2.85,4.77,4.76,4.76
129.85,7.30,2.60,7.30,2.60,-2.60,-2.66,-2.85,4.69,4.70,4.70
131.15,7.25,2.62,7.25,2.62,-2.62,-2.70,-2.84,4.63,4.63,4.62
132.46,7.22,2.66,7.20,2.64,-2.64,-2.73,-2.84,4.58,4.56,4.56
133.79,7.16,2.67,7.15,2.66,-2.66,-2.76,-2.83,4.50,4.49,4.49
135.12,7.09,2.66,7.10,2.67,-2.67,-2.79,-2.82,4.41,4.43,4.43
136.48,7.05,2.68,7.05,2.69,-2.69,-2.83,-2.81,4.36,4.36,4.37
137.84,6.99,2.69,7.00,2.70,-2.70,-2.86,-2.79,4.29,4.30,4.30
139.22,6.96,2.73,6.95,2.71,-2.71,-2.89,-2.78,4.24,4.24,4.23
140.61,6.92,2.74,6.90,2.73,-2.73,-2.91,-2.76,4.19,4.17,4.17
142.02,6.85,2.74,6.85,2.74,-2.74,-2.94,-2.74,4.11,4.12,4.11
143.44,6.81,2.75,6.80,2.74,-2.74,-2.97,-2.72,4.06,4.06,4.05
144.87,6.74,2.73,6.75,2.75,-2.75,-2.99,-2.70,3.99,4.00,4.00
146.32,6.70,2.76,6.70,2.75,-2.75,-3.02,-2.68,3.94,3.94,3.94
147.78,6.65,2.76,6.65,2.76,-2.76,-3.04,-2.66,3.89,3.89,3.89
149.26,6.61,2.78,6.60,2.76,-2.76,-3.06,-2.64,3.84,3.83,3.83
150.75,6.56,2.78,6.54,2.77,-2.77,-3.08,-2.62,3.79,3.78,3.77
152.26,6.51,2.78,6.49,2.77,-2.77,-3.10,-2.60,3.74,3.72,3.73
153.78,6.43,2.76,6.44,2.77,-2.77,-3.12,-2.58,3.66,3.67,3.67
155.32,6.38,2.76,6.38,2.77,-2.77,-3.14,-2.56,3.60,3.61,3.62
156.88,6.32,2.75,6.33,2.78,-2.78,-3.15,-2.55,3.54,3.56,3.56
158.44,6.29,2.78,6.28,2.78,-2.78,-3.16,-2.53,3.51,3.50,3.50
160.03,6.23,2.77,6.23,2.78,-2.78,-3.18,-2.52,3.44,3.45,3.45
161.63,6.18,2.78,6.17,2.78,-2.78,-3.18,-2.50,3.39,3.39,3.39
163.24,6.13,2.79,6.12,2.78,-2.78,-3.19,-2.49,3.34,3.34,3.34
164.88,6.06,2.78,6.07,2.79,-2.79,-3.20,-2.48,3.27,3.28,3.28
166.53,6.01,2.79,6.01,2.79,-2.79,-3.20,-2.47,3.22,3.22,3.21
168.19,5.98,2.81,5.96,2.79,-2.79,-3.21,-2.47,3.18,3.16,3.17
169.87,5.92,2.81,5.91,2.80,-2.80,-3.21,-2.46,3.12,3.11,3.11
171.57,5.87,2.82,5.85,2.80,-2.80,-3.20,-2.46,3.06,3.05,3.05
173.29,5.81,2.81,5.80,2.81,-2.81,-3.20,-2.46,3.00,2.99,3.00
175.02,5.73,2.79,5.75,2.81,-2.81,-3.20,-2.46,2.92,2.94,2.94
176.77,5.68,2.79,5.69,2.81,-2.81,-3.19,-2.46,2.86,2.88,2.88
178.54,5.64,2.81,5.64,2.82,-2.82,-3.18,-2.47,2.82,2.82,2.83
180.32,5.60,2.84,5.59,2.82,-2.82,-3.17,-2.48,2.78,2.77,2.76
182.13,5.56,2.84,5.54,2.82,-2.82,-3.16,-2.48,2.73,2.71,2.72
183.95,5.49,2.82,5.49,2.83,-2.83,-3.15,-2.50,2.66,2.66,2.66
185.79,5.45,2.84,5.44,2.83,-2.83,-3.13,-2.51,2.61,2.61,2.60
187.65,5.39,2.83,5.39,2.84,-2.84,-3.12,-2.52,2.55,2.55,2.55
189.52,5.35,2.84,5.35,2.85,-2.85,-3.10,-2.54,2.50,2.50,2.50
191.42,5.31,2.85,5.31,2.86,-2.86,-3.08,-2.56,2.45,2.45,2.46
193.33,5.27,2.86,5.27,2.87,-2.87,-3.06,-2.58,2.40,2.40,2.41
195.27,5.22,2.86,5.23,2.87,-2.87,-3.04,-2.60,2.34,2.36,2.35
197.22,5.18,2.88,5.19,2.88,-2.88,-3.01,-2.62,2.30,2.31,2.30
199.19,5.14,2.87,5.15,2.88,-2.88,-2.99,-2.64,2.25,2.27,2.26
201.18,5.12,2.90,5.11,2.89,-2.89,-2.96,-2.67,2.23,2.22,2.21
203.19,5.10,2.92,5.08,2.89,-2.89,-2.93,-2.69,2.20,2.18,2.18
205.23,5.07,2.92,5.05,2.90,-2.90,-2.90,-2.72,2.16,2.14,2.15
207.28,5.03,2.92,5.01,2.91,-2.91,-2.87,-2.75,2.12,2.10,2.11
209.35,4.99,2.92,4.98,2.92,-2.92,-2.84,-2.77,2.07,2.07,2.07
211.44,4.95,2.91,4.95,2.92,-2.92,-2.81,-2.80,2.02,2.03,2.03
213.56,4.91,2.90,4.92,2.93,-2.93,-2.78,-2.83,1.98,2.00,2.01
215.69,4.87,2.90,4.89,2.93,-2.93,-2.75,-2.85,1.94,1.96,1.97
217.85,4.85,2.91,4.86,2.93,-2.93,-2.71,-2.88,1.92,1.93,1.93
220.03,4.84,2.94,4.83,2.93,-2.93,-2.68,-2.90,1.91,1.90,1.90
222.23,4.82,2.95,4.80,2.93,-2.93,-2.64,-2.93,1.89,1.87,1.87
224.45,4.79,2.94,4.77,2.92,-2.92,-2.61,-2.95,1.86,1.84,1.84
226.70,4.75,2.94,4.74,2.92,-2.92,-2.57,-2.97,1.83,1.82,1.81
228.96,4.71,2.91,4.71,2.91,-2.91,-2.53,-2.98,1.79,1.79,1.80
231.25,4.67,2.90,4.68,2.91,-2.91,-2.49,-3.00,1.76,1.77,1.77
233.57,4.64,2.89,4.64,2.90,-2.90,-2.46,-3.01,1.74,1.75,1.75
235.90,4.59,2.86,4.61,2.88,-2.88,-2.42,-3.02,1.70,1.73,1.73
238.26,4.57,2.87,4.58,2.87,-2.87,-2.38,-3.02,1.70,1.71,1.70
240.64,4.55,2.84,4.54,2.84,-2.84,-2.34,-3.02,1.70,1.70,1.70
243.05,4.53,2.84,4.50,2.82,-2.82,-2.30,-3.02,1.71,1.68,1.68
245.48,4.49,2.82,4.46,2.79,-2.79,-2.27,-3.01,1.70,1.67,1.67
247.93,4.43,2.78,4.42,2.76,-2.76,-2.23,-3.00,1.67,1.66,1.65
250.41,4.38,2.72,4.38,2.72,-2.72,-2.19,-2.99,1.65,1.65,1.65
252.92,4.33,2.68,4.33,2.69,-2.69,-2.15,-2.97,1.64,1.64,1.65
255.45,4.29,2.65,4.29,2.66,-2.66,-2.11,-2.95,1.63,1.64,1.64
258.00,4.25,2.62,4.25,2.62,-2.62,-2.07,-2.92,1.63,1.63,1.63
260.58,4.20,2.57,4.20,2.58,-2.58,-2.03,-2.89,1.62,1.62,1.63
263.19,4.15,2.52,4.16,2.54,-2.54,-2.00,-2.85,1.61,1.62,1.62
265.82,4.10,2.48,4.11,2.50,-2.50,-1.96,-2.81,1.60,1.61,1.61
268.48,4.07,2.46,4.06,2.46,-2.46,-1.92,-2.77,1.61,1.60,1.61
271.16,4.02,2.41,4.01,2.41,-2.41,-1.88,-2.72,1.60,1.60,1.61
273.87,3.97,2.37,3.97,2.37,-2.37,-1.84,-2.67,1.59,1.60,1.60
276.61,3.94,2.34,3.93,2.33,-2.33,-1.81,-2.62,1.60,1.59,1.60
279.38,3.89,2.31,3.88,2.29,-2.29,-1.77,-2.56,1.59,1.59,1.57
282.17,3.84,2.26,3.84,2.25,-2.25,-1.73,-2.51,1.59,1.59,1.57
284.99,3.80,2.21,3.79,2.21,-2.21,-1.69,-2.45,1.59,1.58,1.58
287.84,3.74,2.15,3.75,2.16,-2.16,-1.66,-2.39,1.57,1.58,1.59
290.72,3.70,2.12,3.70,2.12,-2.12,-1.62,-2.32,1.58,1.58,1.58
293.63,3.66,2.07,3.66,2.08,-2.08,-1.59,-2.26,1.58,1.58,1.59
296.57,3.62,2.03,3.62,2.03,-2.03,-1.55,-2.19,1.59,1.59,1.59
299.53,3.58,1.99,3.57,1.98,-1.98,-1.52,-2.13,1.59,1.59,1.59
302.53,3.54,1.93,3.53,1.94,-1.94,-1.48,-2.06,1.60,1.59,1.60
305.55,3.49,1.89,3.49,1.89,-1.89,-1.45,-1.99,1.60,1.60,1.60
308.61,3.45,1.84,3.45,1.84,-1.84,-1.41,-1.93,1.60,1.60,1.61
311.69,3.41,1.80,3.41,1.80,-1.80,-1.38,-1.86,1.61,1.61,1.61
314.81,3.37,1.75,3.37,1.75,-1.75,-1.35,-1.79,1.62,1.62,1.61
317.96,3.33,1.71,3.33,1.70,-1.70,-1.31,-1.73,1.62,1.62,1.62
321.14,3.28,1.64,3.28,1.66,-1.66,-1.28,-1.66,1.62,1.63,1.63
324.35,3.25,1.62,3.24,1.61,-1.61,-1.25,-1.60,1.64,1.63,1.63
327.59,3.21,1.56,3.20,1.56,-1.56,-1.22,-1.53,1.65,1.64,1.65
330.87,3.17,1.52,3.16,1.51,-1.51,-1.19,-1.47,1.65,1.64,1.64
334.18,3.13,1.48,3.12,1.47,-1.47,-1.15,-1.40,1.66,1.65,1.65
337.52,3.09,1.43,3.08,1.42,-1.42,-1.12,-1.34,1.67,1.66,1.65
340.90,3.04,1.37,3.04,1.37,-1.37,-1.09,-1.28,1.66,1.66,1.67
344.30,2.98,1.30,3.00,1.33,-1.33,-1.06,-1.22,1.65,1.67,1.67
347.75,2.94,1.26,2.96,1.28,-1.28,-1.03,-1.16,1.66,1.68,1.68
351.23,2.91,1.23,2.91,1.23,-1.23,-1.00,-1.10,1.68,1.68,1.67
354.74,2.88,1.18,2.87,1.18,-1.18,-0.98,-1.04,1.69,1.69,1.70
358.28,2.85,1.15,2.83,1.14,-1.14,-0.95,-0.98,1.71,1.70,1.70
361.87,2.82,1.11,2.80,1.09,-1.09,-0.92,-0.92,1.72,1.70,1.70
365.49,2.77,1.06,2.76,1.05,-1.05,-0.89,-0.87,1.72,1.71,1.71
369.14,2.72,0.99,2.72,1.00,-1.00,-0.86,-0.81,1.71,1.72,1.73
372.83,2.68,0.94,2.69,0.96,-0.96,-0.83,-0.76,1.72,1.73,1.73
376.56,2.64,0.91,2.65,0.92,-0.92,-0.81,-0.70,1.72,1.73,1.73
380.33,2.60,0.86,2.61,0.87,-0.87,-0.78,-0.65,1.73,1.74,1.73
384.13,2.57,0.81,2.57,0.82,-0.82,-0.75,-0.60,1.74,1.75,1.75
387.97,2.55,0.79,2.53,0.77,-0.77,-0.73,-0.55,1.77,1.76,1.76
391.85,2.52,0.75,2.49,0.72,-0.72,-0.70,-0.49,1.79,1.77,1.77
395.77,2.48,0.70,2.45,0.68,-0.68,-0.68,-0.44,1.80,1.78,1.77
399.73,2.44,0.66,2.42,0.63,-0.63,-0.65,-0.40,1.81,1.79,1.78
403.72,2.39,0.58,2.38,0.58,-0.58,-0.63,-0.35,1.80,1.80,1.81
407.76,2.34,0.53,2.35,0.54,-0.54,-0.60,-0.30,1.80,1.80,1.81
411.84,2.29,0.47,2.31,0.50,-0.50,-0.58,-0.25,1.79,1.81,1.81
415.96,2.25,0.42,2.28,0.45,-0.45,-0.55,-0.21,1.79,1.82,1.83
420.12,2.22,0.39,2.24,0.41,-0.41,-0.53,-0.16,1.80,1.83,1.83
424.32,2.20,0.36,2.21,0.37,-0.37,-0.50,-0.12,1.83,1.84,1.84
428.56,2.19,0.33,2.18,0.33,-0.33,-0.48,-0.07,1.86,1.85,1.85
432.85,2.17,0.30,2.15,0.29,-0.29,-0.45,-0.03,1.88,1.86,1.86
437.18,2.14,0.28,2.12,0.25,-0.25,-0.43,0.01,1.88,1.86,1.86
441.55,2.11,0.24,2.09,0.22,-0.22,-0.41,0.05,1.89,1.87,1.87
445.96,2.07,0.19,2.07,0.19,-0.19,-0.38,0.09,1.88,1.88,1.88
450.42,2.03,0.14,2.05,0.16,-0.16,-0.36,0.13,1.87,1.89,1.89
454.93,2.01,0.11,2.02,0.12,-0.12,-0.34,0.17,1.88,1.90,1.89
459.48,1.98,0.07,1.99,0.08,-0.08,-0.32,0.21,1.89,1.91,1.90
464.07,1.96,0.04,1.96,0.04,-0.04,-0.29,0.25,1.91,1.91,1.92
468.71,1.95,0.02,1.93,0.00,-0.00,-0.27,0.28,1.95,1.92,1.93
473.40,1.92,-0.02,1.89,-0.04,0.04,-0.25,0.32,1.96,1.93,1.94
478.13,1.89,-0.06,1.85,-0.09,0.09,-0.23,0.35,1.98,1.94,1.95
482.91,1.84,-0.12,1.82,-0.14,0.14,-0.20,0.38,1.97,1.95,1.96
487.74,1.79,-0.18,1.78,-0.18,0.18,-0.18,0.41,1.97,1.97,1.96
492.62,1.75,-0.23,1.75,-0.23,0.23,-0.16,0.44,1.97,1.98,1.97
497.55,1.70,-0.29,1.71,-0.27,0.27,-0.14,0.47,1.97,1.99,1.98
502.52,1.65,-0.34,1.68,-0.32,0.32,-0.12,0.50,1.97,2.00,1.99
507.55,1.61,-0.40,1.64,-0.37,0.37,-0.09,0.53,1.98,2.01,2.01
