frequency,raw,error,smoothed,error_smoothed,equalization,parametric_eq,fixed_band_eq,equalized_raw,equalized_smoothed,target
20.00,17.56,5.33,17.55,5.32,-5.32,-5.29,-2.04,12.24,12.23,12.23
20.20,17.54,5.32,17.54,5.32,-5.32,-5.28,-2.10,12.23,12.22,12.22
20.40,17.52,5.31,17.52,5.31,-5.31,-5.28,-2.16,12.21,12.21,12.21
20.61,17.50,5.30,17.51,5.31,-5.31,-5.27,-2.23,12.20,12.20,12.21
20.81,17.48,5.30,17.49,5.30,-5.30,-5.27,-2.29,12.18,12.19,12.19
21.02,17.46,5.28,17.48,5.29,-5.29,-5.26,-2.36,12.17,12.19,12.19
21.23,17.45,5.28,17.46,5.28,-5.28,-5.25,-2.42,12.17,12.18,12.18
21.44,17.44,5.26,17.44,5.27,-5.27,-5.24,-2.49,12.17,12.17,12.18
21.66,17.43,5.26,17.42,5.26,-5.26,-5.23,-2.56,12.17,12.16,12.17
21.87,17.42,5.26,17.41,5.25,-5.25,-5.21,-2.64,12.17,12.16,12.16
22.09,17.40,5.25,17.39,5.24,-5.24,-5.20,-2.71,12.17,12.15,12.15
22.31,17.36,5.21,17.37,5.22,-5.22,-5.19,-2.79,12.14,12.15,12.15
22.54,17.33,5.19,17.35,5.21,-5.21,-5.17,-2.87,12.13,12.14,12.14
22.76,17.30,5.17,17.33,5.19,-5.19,-5.15,-2.95,12.11,12.14,12.14
22.99,17.26,5.14,17.31,5.17,-5.17,-5.14,-3.04,12.09,12.13,12.13
23.22,17.26,5.15,17.28,5.15,-5.15,-5.12,-3.12,12.11,12.13,12.12
23.45,17.26,5.14,17.26,5.13,-5.13,-5.10,-3.21,12.13,12.12,12.12
23.69,17.26,5.15,17.24,5.11,-5.11,-5.08,-3.30,12.15,12.12,12.11
23.92,17.26,5.15,17.21,5.09,-5.09,-5.06,-3.39,12.17,12.12,12.11
24.16,17.23,5.11,17.19,5.07,-5.07,-5.04,-3.48,12.16,12.12,12.12
24.40,17.17,5.04,17.17,5.05,-5.05,-5.01,-3.58,12.12,12.12,12.13
24.65,17.12,5.00,17.14,5.02,-5.02,-4.99,-3.67,12.10,12.12,12.13
24.89,17.07,4.95,17.12,5.00,-5.00,-4.97,-3.77,12.08,12.12,12.13
25.14,17.05,4.93,17.09,4.97,-4.97,-4.94,-3.87,12.09,12.12,12.12
25.39,17.05,4.93,17.07,4.94,-4.94,-4.92,-3.97,12.11,12.13,12.12
25.65,17.05,4.93,17.04,4.91,-4.91,-4.89,-4.07,12.14,12.13,12.12
25.91,17.05,4.93,17.02,4.89,-4.89,-4.87,-4.16,12.17,12.13,12.13
26.16,17.02,4.89,16.99,4.86,-4.86,-4.84,-4.26,12.16,12.13,12.14
26.43,16.96,4.83,16.96,4.83,-4.83,-4.81,-4.36,12.14,12.13,12.13
26.69,16.91,4.78,16.93,4.80,-4.80,-4.79,-4.46,12.11,12.13,12.13
26.96,16.86,4.73,16.90,4.77,-4.77,-4.76,-4.55,12.09,12.13,12.13
27.23,16.85,4.73,16.88,4.75,-4.75,-4.73,-4.65,12.10,12.13,12.13
27.50,16.85,4.73,16.86,4.73,-4.73,-4.71,-4.74,12.13,12.13,12.12
27.77,16.85,4.72,16.83,4.70,-4.70,-4.68,-4.83,12.15,12.13,12.13
28.05,16.84,4.71,16.80,4.68,-4.68,-4.65,-4.91,12.17,12.13,12.13
28.33,16.78,4.67,16.77,4.64,-4.64,-4.62,-4.99,12.14,12.13,12.12
28.62,16.73,4.62,16.74,4.61,-4.61,-4.59,-5.07,12.12,12.12,12.11
28.90,16.67,4.55,16.71,4.59,-4.59,-4.56,-5.14,12.09,12.12,12.12
29.19,16.65,4.54,16.68,4.56,-4.56,-4.54,-5.21,12.09,12.12,12.12
29.48,16.65,4.54,16.66,4.54,-4.54,-4.51,-5.27,12.11,12.11,12.11
29.78,16.65,4.54,16.63,4.52,-4.52,-4.48,-5.32,12.13,12.11,12.11
30.08,16.63,4.52,16.60,4.50,-4.50,-4.45,-5.37,12.14,12.10,12.12
30.38,16.57,4.47,16.57,4.47,-4.47,-4.42,-5.40,12.10,12.10,12.10
30.68,16.51,4.42,16.53,4.44,-4.44,-4.39,-5.44,12.07,12.09,12.09
30.99,16.45,4.37,16.50,4.42,-4.42,-4.37,-5.46,12.04,12.08,12.09
31.30,16.45,4.38,16.47,4.39,-4.39,-4.34,-5.48,12.06,12.08,12.07
31.61,16.45,4.39,16.44,4.37,-4.37,-4.31,-5.49,12.08,12.07,12.07
31.93,16.45,4.40,16.41,4.35,-4.35,-4.28,-5.49,12.11,12.06,12.05
32.24,16.40,4.35,16.37,4.32,-4.32,-4.25,-5.48,12.08,12.05,12.05
32.57,16.34,4.31,16.33,4.29,-4.29,-4.23,-5.47,12.05,12.04,12.04
32.89,16.27,4.24,16.30,4.26,-4.26,-4.20,-5.44,12.01,12.04,12.03
33.22,16.23,4.21,16.26,4.23,-4.23,-4.17,-5.42,12.01,12.03,12.02
33.55,16.21,4.19,16.22,4.20,-4.20,-4.15,-5.38,12.02,12.02,12.02
33.89,16.19,4.17,16.19,4.17,-4.17,-4.12,-5.34,12.03,12.02,12.02
34.23,16.15,4.15,16.15,4.14,-4.14,-4.10,-5.30,12.02,12.01,12.01
34.57,16.11,4.11,16.11,4.11,-4.11,-4.07,-5.25,12.01,12.01,12.00
34.92,16.06,4.07,16.07,4.07,-4.07,-4.05,-5.20,11.99,12.00,12.00
35.27,16.02,4.02,16.03,4.04,-4.04,-4.02,-5.14,11.98,11.99,12.00
35.62,15.99,4.01,15.99,4.01,-4.01,-4.00,-5.08,11.98,11.98,11.98
35.97,15.95,3.98,15.96,3.99,-3.99,-3.97,-5.02,11.96,11.97,11.98
36.33,15.92,3.96,15.92,3.97,-3.97,-3.95,-4.95,11.95,11.95,11.96
36.70,15.88,3.94,15.89,3.95,-3.95,-3.93,-4.89,11.93,11.94,11.94
37.06,15.84,3.92,15.85,3.93,-3.93,-3.91,-4.82,11.91,11.92,11.92
37.43,15.81,3.92,15.81,3.92,-3.92,-3.88,-4.75,11.90,11.90,11.90
37.81,15.77,3.90,15.77,3.90,-3.90,-3.86,-4.69,11.87,11.87,11.88
38.19,15.73,3.89,15.73,3.88,-3.88,-3.84,-4.62,11.85,11.85,11.85
38.57,15.69,3.87,15.68,3.86,-3.86,-3.82,-4.56,11.83,11.82,11.82
38.95,15.65,3.86,15.64,3.85,-3.85,-3.80,-4.49,11.81,11.79,11.79
39.34,15.60,3.85,15.59,3.83,-3.83,-3.78,-4.43,11.77,11.76,11.75
39.74,15.55,3.82,15.55,3.82,-3.82,-3.77,-4.37,11.74,11.73,11.73
40.14,15.50,3.80,15.50,3.80,-3.80,-3.75,-4.31,11.70,11.70,11.70
40.54,15.46,3.79,15.46,3.79,-3.79,-3.73,-4.25,11.68,11.67,11.67
40.94,15.41,3.78,15.42,3.77,-3.77,-3.71,-4.19,11.64,11.64,11.64
41.35,15.34,3.73,15.37,3.76,-3.76,-3.70,-4.14,11.59,11.61,11.62
41.76,15.28,3.71,15.32,3.74,-3.74,-3.68,-4.09,11.54,11.58,11.57
42.18,15.24,3.69,15.27,3.72,-3.72,-3.67,-4.04,11.52,11.55,11.55
42.60,15.24,3.72,15.23,3.70,-3.70,-3.65,-3.99,11.54,11.52,11.53
43.03,15.23,3.74,15.18,3.69,-3.69,-3.64,-3.95,11.55,11.50,11.49
43.46,15.16,3.70,15.14,3.67,-3.67,-3.63,-3.91,11.49,11.47,11.46
43.90,15.09,3.66,15.10,3.66,-3.66,-3.61,-3.88,11.43,11.44,11.44
44.33,15.05,3.65,15.06,3.65,-3.65,-3.60,-3.84,11.40,11.40,11.40
44.78,15.02,3.66,15.01,3.64,-3.64,-3.59,-3.81,11.38,11.37,11.37
45.23,14.96,3.61,14.97,3.64,-3.64,-3.58,-3.78,11.33,11.33,11.35
45.68,14.89,3.59,14.93,3.64,-3.64,-3.57,-3.76,11.26,11.30,11.30
46.13,14.84,3.59,14.89,3.63,-3.63,-3.56,-3.73,11.21,11.26,11.26
46.60,14.84,3.63,14.85,3.63,-3.63,-3.55,-3.71,11.21,11.21,11.22
47.06,14.83,3.65,14.80,3.63,-3.63,-3.55,-3.70,11.20,11.17,11.18
47.53,14.78,3.64,14.75,3.63,-3.63,-3.54,-3.68,11.16,11.12,11.14
48.01,14.73,3.65,14.71,3.63,-3.63,-3.53,-3.67,11.10,11.08,11.08
48.49,14.66,3.63,14.67,3.64,-3.64,-3.53,-3.66,11.03,11.03,11.03
48.97,14.59,3.62,14.63,3.64,-3.64,-3.52,-3.65,10.95,10.98,10.98
49.46,14.57,3.64,14.58,3.65,-3.65,-3.52,-3.65,10.93,10.93,10.94
49.96,14.54,3.68,14.53,3.65,-3.65,-3.51,-3.65,10.89,10.88,10.86
50.46,14.48,3.66,14.49,3.66,-3.66,-3.51,-3.65,10.83,10.83,10.82
50.96,14.41,3.64,14.44,3.66,-3.66,-3.51,-3.65,10.76,10.78,10.77
51.47,14.37,3.64,14.38,3.65,-3.65,-3.51,-3.65,10.72,10.73,10.73
51.99,14.34,3.67,14.32,3.65,-3.65,-3.50,-3.66,10.70,10.68,10.67
52.51,14.28,3.66,14.26,3.64,-3.64,-3.50,-3.66,10.64,10.62,10.63
53.03,14.23,3.64,14.20,3.63,-3.63,-3.50,-3.67,10.60,10.57,10.59
53.56,14.16,3.63,14.15,3.63,-3.63,-3.50,-3.68,10.54,10.52,10.53
54.10,14.09,3.62,14.09,3.62,-3.62,-3.50,-3.69,10.48,10.47,10.47
54.64,14.02,3.60,14.03,3.61,-3.61,-3.51,-3.70,10.42,10.42,10.42
55.18,13.96,3.60,13.97,3.59,-3.59,-3.51,-3.71,10.37,10.37,10.36
55.74,13.88,3.58,13.91,3.58,-3.58,-3.51,-3.72,10.30,10.32,10.31
56.29,13.82,3.56,13.85,3.57,-3.57,-3.51,-3.73,10.25,10.27,10.26
56.86,13.76,3.55,13.78,3.56,-3.56,-3.52,-3.74,10.20,10.22,10.22
57.42,13.70,3.55,13.72,3.55,-3.55,-3.52,-3.75,10.15,10.17,10.15
58.00,13.64,3.53,13.66,3.54,-3.54,-3.53,-3.76,10.10,10.12,10.12
58.58,13.62,3.55,13.61,3.54,-3.54,-3.53,-3.76,10.08,10.06,10.08
59.16,13.58,3.55,13.55,3.54,-3.54,-3.54,-3.77,10.04,10.01,10.03
59.76,13.52,3.54,13.50,3.55,-3.55,-3.54,-3.77,9.98,9.95,9.98
60.35,13.45,3.54,13.44,3.55,-3.55,-3.55,-3.78,9.90,9.89,9.91
60.96,13.38,3.54,13.40,3.56,-3.56,-3.56,-3.78,9.82,9.83,9.85
61.57,13.32,3.55,13.35,3.58,-3.58,-3.57,-3.78,9.75,9.77,9.77
62.18,13.27,3.58,13.30,3.59,-3.59,-3.57,-3.78,9.68,9.71,9.70
62.80,13.24,3.62,13.25,3.61,-3.61,-3.58,-3.77,9.63,9.64,9.62
63.43,13.20,3.65,13.20,3.63,-3.63,-3.59,-3.77,9.58,9.57,9.56
64.07,13.15,3.66,13.15,3.64,-3.64,-3.60,-3.76,9.51,9.51,9.50
64.71,13.07,3.65,13.10,3.66,-3.66,-3.61,-3.75,9.41,9.44,9.43
65.35,13.03,3.67,13.04,3.68,-3.68,-3.62,-3.74,9.36,9.37,9.37
66.01,13.03,3.74,12.99,3.70,-3.70,-3.63,-3.72,9.34,9.30,9.30
66.67,12.96,3.72,12.94,3.71,-3.71,-3.64,-3.71,9.25,9.23,9.24
67.33,12.90,3.75,12.88,3.73,-3.73,-3.65,-3.69,9.18,9.16,9.16
68.01,12.83,3.74,12.83,3.74,-3.74,-3.66,-3.68,9.09,9.09,9.09
68.69,12.77,3.76,12.77,3.75,-3.75,-3.67,-3.66,9.02,9.02,9.01
69.37,12.70,3.75,12.71,3.76,-3.76,-3.69,-3.64,8.94,8.95,8.96
70.07,12.63,3.76,12.64,3.77,-3.77,-3.70,-3.62,8.86,8.87,8.88
70.77,12.58,3.78,12.58,3.78,-3.78,-3.71,-3.61,8.80,8.80,8.81
71.48,12.50,3.77,12.51,3.79,-3.79,-3.72,-3.59,8.71,8.73,8.73
72.19,12.43,3.78,12.45,3.80,-3.80,-3.73,-3.57,8.64,8.65,8.65
72.91,12.41,3.84,12.38,3.80,-3.80,-3.75,-3.55,8.61,8.58,8.57
73.64,12.29,3.80,12.31,3.81,-3.81,-3.76,-3.53,8.49,8.51,8.50
74.38,12.23,3.80,12.25,3.81,-3.81,-3.77,-3.52,8.42,8.43,8.43
75.12,12.21,3.86,12.18,3.82,-3.82,-3.78,-3.50,8.39,8.36,8.35
75.87,12.09,3.80,12.12,3.83,-3.83,-3.80,-3.49,8.27,8.29,8.29
76.63,12.04,3.82,12.06,3.83,-3.83,-3.81,-3.47,8.21,8.23,8.22
77.40,12.01,3.86,11.99,3.83,-3.83,-3.82,-3.46,8.18,8.16,8.16
78.17,11.94,3.86,11.93,3.84,-3.84,-3.83,-3.45,8.10,8.09,8.08
78.95,11.83,3.81,11.86,3.84,-3.84,-3.85,-3.45,7.99,8.02,8.03
79.74,11.82,3.86,11.80,3.85,-3.85,-3.86,-3.44,7.98,7.96,7.96
80.54,11.73,3.84,11.74,3.85,-3.85,-3.87,-3.44,7.88,7.89,7.89
81.35,11.65,3.83,11.68,3.86,-3.86,-3.88,-3.44,7.80,7.82,7.83
82.16,11.62,3.86,11.62,3.87,-3.87,-3.90,-3.44,7.76,7.76,7.77
82.98,11.62,3.93,11.56,3.87,-3.87,-3.91,-3.44,7.75,7.69,7.69
83.81,11.46,3.84,11.50,3.88,-3.88,-3.92,-3.45,7.58,7.62,7.62
84.65,11.42,3.87,11.44,3.89,-3.89,-3.93,-3.46,7.53,7.55,7.55
85.50,11.38,3.92,11.38,3.90,-3.90,-3.94,-3.47,7.48,7.48,7.47
86.35,11.32,3.92,11.32,3.91,-3.91,-3.96,-3.48,7.41,7.41,7.40
87.22,11.26,3.93,11.26,3.92,-3.92,-3.97,-3.50,7.34,7.33,7.33
88.09,11.21,3.96,11.20,3.94,-3.94,-3.98,-3.52,7.27,7.26,7.26
88.97,11.12,3.93,11.14,3.95,-3.95,-3.99,-3.54,7.17,7.18,7.19
89.86,11.06,3.96,11.08,3.97,-3.97,-4.00,-3.56,7.09,7.11,7.10
90.76,11.01,3.98,11.02,3.99,-3.99,-4.01,-3.59,7.02,7.03,7.03
91.66,10.95,4.01,10.95,4.01,-4.01,-4.02,-3.62,6.95,6.95,6.94
92.58,10.88,4.01,10.89,4.02,-4.02,-4.03,-3.65,6.86,6.87,6.87
93.51,10.81,4.02,10.82,4.04,-4.04,-4.04,-3.68,6.77,6.78,6.79
94.44,10.76,4.06,10.75,4.06,-4.06,-4.05,-3.72,6.71,6.70,6.71
95.39,10.69,4.08,10.68,4.07,-4.07,-4.06,-3.76,6.62,6.61,6.62
96.34,10.61,4.09,10.60,4.08,-4.08,-4.07,-3.80,6.53,6.52,6.52
97.30,10.56,4.13,10.53,4.10,-4.10,-4.08,-3.85,6.46,6.43,6.43
98.28,10.47,4.14,10.45,4.11,-4.11,-4.09,-3.89,6.36,6.34,6.34
99.26,10.35,4.12,10.37,4.13,-4.13,-4.09,-3.94,6.23,6.24,6.23
100.25,10.26,4.13,10.28,4.13,-4.13,-4.10,-3.99,6.13,6.15,6.14
101.25,10.17,4.12,10.20,4.14,-4.14,-4.11,-4.04,6.03,6.05,6.05
102.27,10.10,4.15,10.11,4.15,-4.15,-4.12,-4.09,5.95,5.96,5.96
103.29,10.02,4.16,10.02,4.16,-4.16,-4.13,-4.15,5.86,5.86,5.86
104.32,9.94,4.17,9.94,4.17,-4.17,-4.13,-4.20,5.78,5.77,5.78
105.37,9.85,4.17,9.85,4.18,-4.18,-4.14,-4.25,5.68,5.68,5.68
106.42,9.75,4.17,9.76,4.18,-4.18,-4.15,-4.31,5.57,5.58,5.58
107.48,9.67,4.19,9.68,4.19,-4.19,-4.15,-4.36,5.49,5.49,5.48
108.56,9.58,4.18,9.59,4.19,-4.19,-4.16,-4.41,5.39,5.40,5.40
109.64,9.50,4.19,9.50,4.19,-4.19,-4.17,-4.47,5.31,5.31,5.31
110.74,9.41,4.20,9.42,4.20,-4.20,-4.17,-4.52,5.21,5.22,5.21
111.85,9.35,4.22,9.33,4.20,-4.20,-4.18,-4.57,5.15,5.13,5.13
112.97,9.24,4.20,9.24,4.20,-4.20,-4.18,-4.61,5.04,5.04,5.04
114.10,9.19,4.23,9.16,4.20,-4.20,-4.19,-4.66,4.99,4.95,4.96
115.24,9.10,4.24,9.08,4.21,-4.21,-4.19,-4.70,4.90,4.87,4.87
116.39,8.98,4.21,9.00,4.21,-4.21,-4.20,-4.73,4.77,4.79,4.77
117.55,8.88,4.18,8.92,4.22,-4.22,-4.20,-4.77,4.67,4.71,4.70
118.73,8.81,4.20,8.85,4.22,-4.22,-4.21,-4.80,4.59,4.63,4.61
119.92,8.75,4.22,8.78,4.23,-4.23,-4.21,-4.82,4.52,4.55,4.54
121.12,8.69,4.22,8.71,4.24,-4.24,-4.22,-4.84,4.45,4.47,4.48
122.33,8.63,4.24,8.64,4.25,-4.25,-4.22,-4.86,4.38,4.39,4.40
123.55,8.58,4.26,8.58,4.26,-4.26,-4.23,-4.87,4.32,4.32,4.33
124.79,8.52,4.27,8.52,4.28,-4.28,-4.23,-4.88,4.25,4.25,4.26
126.03,8.48,4.30,8.46,4.29,-4.29,-4.24,-4.88,4.19,4.17,4.18
127.29,8.42,4.32,8.40,4.31,-4.31,-4.24,-4.87,4.12,4.10,4.10
128.57,8.36,4.34,8.35,4.32,-4.32,-4.25,-4.86,4.04,4.03,4.03
129.85,8.30,4.35,8.30,4.34,-4.34,-4.25,-4.85,3.96,3.96,3.95
131.15,8.23,4.36,8.24,4.36,-4.36,-4.26,-4.83,3.87,3.88,3.88
132.46,8.17,4.37,8.18,4.37,-4.37,-4.26,-4.80,3.80,3.81,3.80
133.79,8.12,4.39,8.12,4.39,-4.39,-4.27,-4.77,3.74,3.74,3.73
135.12,8.06,4.40,8.06,4.39,-4.39,-4.27,-4.74,3.67,3.67,3.66
136.48,8.00,4.40,8.00,4.40,-4.40,-4.28,-4.71,3.60,3.59,3.60
137.84,7.93,4.40,7.93,4.41,-4.41,-4.28,-4.67,3.53,3.52,3.53
139.22,7.86,4.42,7.86,4.41,-4.41,-4.29,-4.62,3.45,3.45,3.44
140.61,7.81,4.43,7.79,4.41,-4.41,-4.29,-4.58,3.40,3.38,3.39
142.02,7.74,4.43,7.73,4.41,-4.41,-4.30,-4.54,3.33,3.31,3.31
143.44,7.65,4.42,7.66,4.41,-4.41,-4.30,-4.49,3.24,3.25,3.24
144.87,7.56,4.39,7.59,4.41,-4.41,-4.31,-4.44,3.15,3.18,3.18
146.32,7.52,4.41,7.52,4.41,-4.41,-4.31,-4.39,3.11,3.11,3.11
147.78,7.43,4.39,7.45,4.41,-4.41,-4.32,-4.34,3.03,3.04,3.04
149.26,7.35,4.38,7.38,4.40,-4.40,-4.32,-4.29,2.95,2.97,2.97
150.75,7.32,4.43,7.30,4.40,-4.40,-4.33,-4.25,2.93,2.91,2.90
152.26,7.23,4.39,7.23,4.40,-4.40,-4.33,-4.20,2.84,2.84,2.84
153.78,7.13,4.36,7.16,4.39,-4.39,-4.34,-4.15,2.74,2.77,2.77
155.32,7.12,4.41,7.09,4.39,-4.39,-4.34,-4.11,2.73,2.70,2.71
156.88,7.04,4.41,7.02,4.39,-4.39,-4.35,-4.06,2.66,2.63,2.64
158.44,6.94,4.38,6.95,4.39,-4.39,-4.35,-4.02,2.56,2.56,2.57
160.03,6.85,4.36,6.87,4.38,-4.38,-4.36,-3.98,2.47,2.49,2.50
161.63,6.78,4.36,6.80,4.37,-4.37,-4.36,-3.94,2.41,2.42,2.43
163.24,6.73,4.38,6.72,4.37,-4.37,-4.36,-3.91,2.36,2.35,2.35
164.88,6.65,4.37,6.64,4.36,-4.36,-4.37,-3.87,2.29,2.28,2.28
166.53,6.59,4.39,6.56,4.35,-4.35,-4.37,-3.84,2.24,2.21,2.21
168.19,6.50,4.36,6.49,4.35,-4.35,-4.37,-3.82,2.16,2.14,2.14
169.87,6.41,4.34,6.41,4.34,-4.34,-4.37,-3.79,2.08,2.07,2.07
171.57,6.31,4.31,6.33,4.33,-4.33,-4.37,-3.77,1.98,2.00,2.00
173.29,6.26,4.33,6.26,4.32,-4.32,-4.37,-3.75,1.94,1.94,1.93
175.02,6.16,4.29,6.19,4.32,-4.32,-4.37,-3.73,1.84,1.87,1.87
176.77,6.08,4.28,6.12,4.31,-4.31,-4.37,-3.72,1.77,1.81,1.81
178.54,6.07,4.33,6.06,4.31,-4.31,-4.37,-3.71,1.76,1.74,1.74
180.32,5.97,4.30,5.99,4.31,-4.31,-4.37,-3.70,1.67,1.68,1.67
182.13,5.90,4.28,5.93,4.31,-4.31,-4.37,-3.70,1.60,1.62,1.62
183.95,5.89,4.33,5.88,4.31,-4.31,-4.36,-3.69,1.58,1.57,1.57
185.79,5.83,4.33,5.82,4.31,-4.31,-4.35,-3.69,1.52,1.51,1.51
187.65,5.73,4.28,5.77,4.32,-4.32,-4.35,-3.70,1.42,1.45,1.46
189.52,5.73,4.34,5.72,4.32,-4.32,-4.34,-3.70,1.41,1.40,1.40
191.42,5.67,4.31,5.67,4.32,-4.32,-4.33,-3.71,1.35,1.35,1.36
193.33,5.59,4.29,5.62,4.32,-4.32,-4.32,-3.72,1.28,1.30,1.30
195.27,5.57,4.33,5.56,4.32,-4.32,-4.31,-3.73,1.26,1.25,1.25
197.22,5.55,4.36,5.51,4.31,-4.31,-4.30,-3.75,1.24,1.20,1.19
199.19,5.46,4.32,5.46,4.30,-4.30,-4.28,-3.77,1.16,1.15,1.15
201.18,5.40,4.31,5.39,4.29,-4.29,-4.27,-3.78,1.11,1.10,1.10
203.19,5.32,4.27,5.33,4.27,-4.27,-4.25,-3.80,1.05,1.06,1.05
205.23,5.23,4.22,5.26,4.25,-4.25,-4.23,-3.83,0.98,1.01,1.01
207.28,5.21,4.24,5.19,4.23,-4.23,-4.21,-3.85,0.99,0.96,0.97
209.35,5.14,4.22,5.11,4.19,-4.19,-4.19,-3.87,0.95,0.92,0.92
211.44,5.03,4.16,5.04,4.16,-4.16,-4.16,-3.89,0.87,0.87,0.88
213.56,4.99,4.15,4.96,4.13,-4.13,-4.14,-3.92,0.87,0.83,0.84
215.69,4.91,4.12,4.88,4.09,-4.09,-4.11,-3.94,0.82,0.79,0.79
217.85,4.80,4.05,4.81,4.05,-4.05,-4.08,-3.96,0.75,0.75,0.76
220.03,4.67,3.97,4.73,4.01,-4.01,-4.06,-3.98,0.66,0.71,0.70
222.23,4.60,3.93,4.65,3.97,-3.97,-4.02,-4.00,0.63,0.68,0.67
224.45,4.58,3.95,4.58,3.94,-3.94,-3.99,-4.02,0.65,0.64,0.64
226.70,4.50,3.90,4.51,3.90,-3.90,-3.96,-4.04,0.61,0.61,0.60
228.96,4.39,3.81,4.44,3.86,-3.86,-3.92,-4.05,0.54,0.59,0.58
231.25,4.39,3.83,4.38,3.82,-3.82,-3.88,-4.06,0.58,0.56,0.56
233.57,4.37,3.84,4.32,3.78,-3.78,-3.84,-4.07,0.59,0.54,0.53
235.90,4.23,3.72,4.26,3.74,-3.74,-3.80,-4.07,0.49,0.52,0.51
238.26,4.21,3.72,4.21,3.71,-3.71,-3.76,-4.07,0.51,0.50,0.49
240.64,4.13,3.64,4.16,3.67,-3.67,-3.72,-4.06,0.46,0.49,0.50
243.05,4.08,3.61,4.11,3.64,-3.64,-3.67,-4.05,0.45,0.48,0.48
245.48,4.08,3.62,4.07,3.60,-3.60,-3.63,-4.04,0.48,0.46,0.46
247.93,4.02,3.58,4.02,3.56,-3.56,-3.58,-4.02,0.46,0.45,0.44
250.41,3.95,3.50,3.96,3.52,-3.52,-3.53,-3.99,0.44,0.44,0.45
252.92,3.94,3.50,3.91,3.48,-3.48,-3.48,-3.96,0.46,0.43,0.44
255.45,3.87,3.45,3.86,3.44,-3.44,-3.43,-3.93,0.43,0.42,0.42
258.00,3.79,3.38,3.80,3.39,-3.39,-3.38,-3.89,0.40,0.41,0.42
260.58,3.77,3.37,3.74,3.35,-3.35,-3.33,-3.84,0.43,0.39,0.40
263.19,3.70,3.32,3.68,3.31,-3.31,-3.28,-3.79,0.40,0.38,0.39
265.82,3.59,3.23,3.62,3.26,-3.26,-3.22,-3.74,0.33,0.36,0.37
268.48,3.56,3.21,3.57,3.22,-3.22,-3.17,-3.68,0.34,0.35,0.35
271.16,3.52,3.19,3.50,3.17,-3.17,-3.11,-3.62,0.35,0.33,0.33
273.87,3.39,3.07,3.44,3.12,-3.12,-3.06,-3.55,0.27,0.32,0.32
276.61,3.35,3.05,3.37,3.07,-3.07,-3.00,-3.48,0.28,0.30,0.30
279.38,3.33,3.07,3.31,3.02,-3.02,-2.95,-3.41,0.32,0.29,0.27
282.17,3.21,2.95,3.24,2.96,-2.96,-2.89,-3.33,0.25,0.28,0.27
284.99,3.16,2.91,3.17,2.91,-2.91,-2.83,-3.25,0.26,0.27,0.26
287.84,3.12,2.86,3.11,2.85,-2.85,-2.77,-3.17,0.27,0.26,0.26
290.72,3.08,2.84,3.04,2.79,-2.79,-2.71,-3.09,0.29,0.25,0.24
293.63,3.00,2.76,2.98,2.74,-2.74,-2.66,-3.01,0.27,0.24,0.24
296.57,2.92,2.68,2.92,2.68,-2.68,-2.60,-2.92,0.24,0.24,0.24
299.53,2.83,2.60,2.85,2.62,-2.62,-2.54,-2.84,0.21,0.23,0.23
302.53,2.75,2.52,2.79,2.56,-2.56,-2.48,-2.75,0.20,0.23,0.24
305.55,2.71,2.48,2.72,2.50,-2.50,-2.42,-2.67,0.22,0.22,0.23
308.61,2.65,2.42,2.66,2.44,-2.44,-2.36,-2.58,0.22,0.22,0.23
311.69,2.59,2.38,2.59,2.38,-2.38,-2.30,-2.50,0.22,0.22,0.21
314.81,2.54,2.33,2.53,2.32,-2.32,-2.24,-2.41,0.22,0.21,0.22
317.96,2.47,2.27,2.47,2.27,-2.27,-2.18,-2.32,0.21,0.21,0.20
321.14,2.41,2.21,2.41,2.21,-2.21,-2.12,-2.24,0.21,0.21,0.21
324.35,2.36,2.16,2.35,2.15,-2.15,-2.06,-2.16,0.22,0.20,0.20
327.59,2.27,2.07,2.29,2.09,-2.09,-2.01,-2.07,0.18,0.20,0.20
330.87,2.21,2.02,2.23,2.04,-2.04,-1.95,-1.99,0.17,0.19,0.20
334.18,2.16,1.98,2.17,1.98,-1.98,-1.89,-1.91,0.18,0.19,0.18
337.52,2.15,1.97,2.12,1.93,-1.93,-1.83,-1.83,0.23,0.19,0.19
340.90,2.08,1.90,2.06,1.87,-1.87,-1.77,-1.75,0.21,0.19,0.18
344.30,2.00,1.82,2.00,1.81,-1.81,-1.72,-1.67,0.19,0.19,0.19
347.75,1.96,1.77,1.95,1.76,-1.76,-1.66,-1.60,0.21,0.19,0.19
351.23,1.87,1.70,1.89,1.70,-1.70,-1.60,-1.52,0.17,0.19,0.18
354.74,1.78,1.59,1.84,1.65,-1.65,-1.54,-1.45,0.14,0.19,0.19
358.28,1.75,1.56,1.78,1.59,-1.59,-1.49,-1.37,0.17,0.20,0.19
361.87,1.74,1.55,1.73,1.53,-1.53,-1.43,-1.30,0.21,0.20,0.20
365.49,1.68,1.48,1.68,1.48,-1.48,-1.38,-1.23,0.21,0.20,0.20
369.14,1.63,1.42,1.63,1.42,-1.42,-1.32,-1.16,0.21,0.21,0.21
372.83,1.59,1.38,1.57,1.36,-1.36,-1.26,-1.09,0.23,0.21,0.22
376.56,1.52,1.31,1.52,1.31,-1.31,-1.21,-1.02,0.22,0.21,0.21
380.33,1.47,1.26,1.46,1.26,-1.26,-1.15,-0.96,0.22,0.21,0.21
384.13,1.41,1.20,1.41,1.20,-1.20,-1.10,-0.89,0.21,0.21,0.22
387.97,1.34,1.13,1.35,1.15,-1.15,-1.05,-0.83,0.19,0.20,0.21
391.85,1.29,1.08,1.30,1.10,-1.10,-0.99,-0.76,0.20,0.20,0.21
395.77,1.22,1.03,1.24,1.04,-1.04,-0.94,-0.70,0.18,0.19,0.20
399.73,1.20,1.01,1.17,0.98,-0.98,-0.89,-0.64,0.22,0.19,0.19
403.72,1.15,0.95,1.11,0.93,-0.93,-0.83,-0.58,0.23,0.18,0.20
407.76,1.04,0.86,1.05,0.87,-0.87,-0.78,-0.52,0.18,0.18,0.18
411.84,0.99,0.82,0.98,0.81,-0.81,-0.73,-0.46,0.18,0.17,0.18
415.96,0.92,0.75,0.92,0.75,-0.75,-0.68,-0.40,0.17,0.17,0.17
420.12,0.85,0.69,0.87,0.69,-0.69,-0.63,-0.34,0.17,0.18,0.16
424.32,0.81,0.64,0.82,0.63,-0.63,-0.57,-0.29,0.18,0.18,0.17
428.56,0.75,0.57,0.77,0.58,-0.58,-0.52,-0.23,0.18,0.20,0.19
432.85,0.72,0.52,0.73,0.52,-0.52,-0.47,-0.18,0.21,0.21,0.21
437.18,0.67,0.46,0.70,0.46,-0.46,-0.42,-0.13,0.22,0.24,0.21
441.55,0.63,0.38,0.67,0.40,-0.40,-0.37,-0.07,0.24,0.27,0.25
445.96,0.63,0.34,0.65,0.34,-0.34,-0.32,-0.02,0.29,0.31,0.29
450.42,0.60,0.27,0.64,0.29,-0.29,-0.27,0.03,0.31,0.35,0.33
454.93,0.60,0.23,0.64,0.25,-0.25,-0.22,0.07,0.36,0.40,0.38
459.48,0.61,0.18,0.64,0.20,-0.20,-0.17,0.12,0.42,0.45,0.44
464.07,0.66,0.16,0.65,0.15,-0.15,-0.12,0.17,0.52,0.50,0.50
468.71,0.68,0.13,0.65,0.10,-0.10,-0.08,0.21,0.59,0.55,0.55
473.40,0.63,0.02,0.65,0.05,-0.05,-0.03,0.25,0.59,0.60,0.61
478.13,0.64,-0.03,0.65,-0.00,0.00,0.02,0.30,0.65,0.66,0.67
482.91,0.68,-0.04,0.65,-0.06,0.06,0.07,0.34,0.74,0.71,0.72
487.74,0.70,-0.05,0.64,-0.11,0.11,0.12,0.37,0.82,0.75,0.76
492.62,0.67,-0.12,0.63,-0.17,0.17,0.17,0.41,0.84,0.79,0.80
