frequency,raw,error,smoothed,error_smoothed,equalization,parametric_eq,fixed_band_eq,equalized_raw,equalized_smoothed,target
20.00,-5.13,-9.96,-5.15,-9.97,9.97,9.36,3.89,4.84,4.83,4.82
20.20,-5.08,-9.90,-5.09,-9.90,9.90,9.35,4.00,4.82,4.81,4.81
20.40,-5.02,-9.83,-5.03,-9.83,9.83,9.34,4.11,4.81,4.80,4.80
20.61,-4.98,-9.78,-4.97,-9.77,9.77,9.32,4.22,4.79,4.80,4.80
20.81,-4.92,-9.70,-4.92,-9.70,9.70,9.31,4.33,4.78,4.79,4.78
21.02,-4.87,-9.65,-4.86,-9.64,9.64,9.30,4.45,4.77,4.78,4.78
21.23,-4.81,-9.58,-4.81,-9.58,9.58,9.28,4.57,4.77,4.77,4.77
21.44,-4.76,-9.54,-4.76,-9.52,9.52,9.27,4.69,4.76,4.76,4.78
21.66,-4.72,-9.48,-4.71,-9.47,9.47,9.25,4.82,4.75,4.76,4.77
21.87,-4.66,-9.42,-4.66,-9.41,9.41,9.24,4.95,4.75,4.75,4.75
22.09,-4.61,-9.36,-4.61,-9.36,9.36,9.22,5.09,4.74,4.74,4.74
22.31,-4.57,-9.32,-4.57,-9.30,9.30,9.20,5.22,4.73,4.74,4.74
22.54,-4.53,-9.26,-4.52,-9.25,9.25,9.19,5.36,4.73,4.73,4.73
22.76,-4.48,-9.21,-4.48,-9.20,9.20,9.17,5.51,4.72,4.73,4.73
22.99,-4.43,-9.15,-4.43,-9.16,9.16,9.15,5.66,4.72,4.72,4.72
23.22,-4.39,-9.10,-4.40,-9.12,9.12,9.13,5.81,4.72,4.72,4.71
23.45,-4.34,-9.06,-4.36,-9.07,9.07,9.11,5.96,4.73,4.72,4.72
23.69,-4.30,-9.00,-4.32,-9.03,9.03,9.09,6.12,4.73,4.71,4.71
23.92,-4.25,-8.96,-4.27,-8.99,8.99,9.07,6.28,4.73,4.71,4.70
24.16,-4.22,-8.94,-4.23,-8.95,8.95,9.05,6.45,4.72,4.71,4.71
24.40,-4.20,-8.93,-4.20,-8.91,8.91,9.02,6.61,4.70,4.71,4.72
24.65,-4.18,-8.90,-4.16,-8.87,8.87,9.00,6.78,4.69,4.71,4.72
24.89,-4.16,-8.88,-4.13,-8.84,8.84,8.98,6.96,4.68,4.71,4.72
25.14,-4.12,-8.84,-4.10,-8.81,8.81,8.95,7.13,4.69,4.72,4.72
25.39,-4.06,-8.78,-4.07,-8.78,8.78,8.93,7.31,4.72,4.72,4.71
25.65,-4.01,-8.73,-4.03,-8.75,8.75,8.91,7.49,4.74,4.72,4.71
25.91,-3.96,-8.68,-4.00,-8.72,8.72,8.88,7.67,4.77,4.72,4.72
26.16,-3.93,-8.66,-3.97,-8.69,8.69,8.85,7.84,4.76,4.72,4.73
26.43,-3.92,-8.65,-3.94,-8.66,8.66,8.83,8.02,4.73,4.72,4.73
26.69,-3.92,-8.65,-3.90,-8.62,8.62,8.80,8.20,4.70,4.72,4.72
26.96,-3.91,-8.64,-3.87,-8.59,8.59,8.77,8.38,4.67,4.72,4.72
27.23,-3.88,-8.59,-3.84,-8.56,8.56,8.74,8.55,4.68,4.72,4.72
27.50,-3.82,-8.54,-3.81,-8.53,8.53,8.71,8.72,4.70,4.72,4.72
27.77,-3.77,-8.50,-3.78,-8.50,8.50,8.68,8.89,4.73,4.72,4.72
28.05,-3.72,-8.45,-3.76,-8.48,8.48,8.65,9.05,4.75,4.72,4.72
28.33,-3.70,-8.41,-3.73,-8.45,8.45,8.62,9.20,4.75,4.72,4.71
28.62,-3.68,-8.38,-3.70,-8.42,8.42,8.59,9.35,4.75,4.72,4.71
28.90,-3.64,-8.36,-3.67,-8.39,8.39,8.56,9.48,4.74,4.71,4.71
29.19,-3.63,-8.34,-3.64,-8.35,8.35,8.53,9.60,4.71,4.71,4.71
29.48,-3.63,-8.34,-3.60,-8.31,8.31,8.49,9.71,4.68,4.71,4.71
29.78,-3.62,-8.33,-3.57,-8.27,8.27,8.46,9.81,4.65,4.70,4.70
30.08,-3.60,-8.31,-3.55,-8.25,8.25,8.43,9.89,4.64,4.70,4.71
30.38,-3.55,-8.24,-3.53,-8.22,8.22,8.39,9.96,4.67,4.69,4.70
30.68,-3.48,-8.17,-3.51,-8.19,8.19,8.36,10.01,4.70,4.68,4.68
30.99,-3.43,-8.10,-3.48,-8.15,8.15,8.32,10.05,4.73,4.67,4.68
31.30,-3.40,-8.07,-3.45,-8.11,8.11,8.28,10.06,4.71,4.67,4.66
31.61,-3.38,-8.05,-3.41,-8.07,8.07,8.25,10.06,4.69,4.66,4.66
31.93,-3.36,-8.01,-3.38,-8.03,8.03,8.21,10.04,4.67,4.65,4.65
32.24,-3.36,-8.01,-3.34,-7.99,7.99,8.17,10.01,4.62,4.64,4.64
32.57,-3.36,-7.99,-3.31,-7.95,7.95,8.13,9.96,4.58,4.64,4.63
32.89,-3.36,-7.99,-3.27,-7.90,7.90,8.09,9.90,4.54,4.63,4.62
33.22,-3.30,-7.92,-3.24,-7.86,7.86,8.05,9.82,4.56,4.62,4.62
33.55,-3.20,-7.82,-3.22,-7.83,7.83,8.01,9.73,4.63,4.62,4.61
33.89,-3.11,-7.73,-3.20,-7.81,7.81,7.97,9.63,4.69,4.61,4.62
34.23,-3.09,-7.70,-3.18,-7.78,7.78,7.93,9.52,4.69,4.61,4.60
34.57,-3.10,-7.70,-3.16,-7.76,7.76,7.89,9.40,4.65,4.60,4.59
34.92,-3.12,-7.71,-3.14,-7.73,7.73,7.84,9.27,4.60,4.59,4.59
35.27,-3.10,-7.70,-3.11,-7.70,7.70,7.80,9.14,4.59,4.58,4.59
35.62,-3.08,-7.66,-3.09,-7.66,7.66,7.75,9.00,4.57,4.57,4.58
35.97,-3.05,-7.62,-3.06,-7.61,7.61,7.71,8.86,4.56,4.56,4.57
36.33,-3.06,-7.62,-3.03,-7.57,7.57,7.66,8.71,4.51,4.54,4.55
36.70,-3.07,-7.61,-3.00,-7.53,7.53,7.62,8.57,4.46,4.53,4.53
37.06,-3.07,-7.59,-2.98,-7.49,7.49,7.57,8.42,4.42,4.51,4.52
37.43,-3.01,-7.50,-2.96,-7.45,7.45,7.53,8.27,4.44,4.49,4.49
37.81,-2.95,-7.42,-2.94,-7.40,7.40,7.48,8.13,4.45,4.46,4.47
38.19,-2.90,-7.34,-2.92,-7.36,7.36,7.43,7.99,4.46,4.44,4.44
38.57,-2.83,-7.25,-2.90,-7.31,7.31,7.38,7.84,4.47,4.41,4.41
38.95,-2.77,-7.16,-2.88,-7.26,7.26,7.33,7.70,4.48,4.38,4.38
39.34,-2.78,-7.13,-2.86,-7.21,7.21,7.28,7.57,4.43,4.35,4.34
39.74,-2.80,-7.13,-2.84,-7.17,7.17,7.23,7.43,4.36,4.32,4.32
40.14,-2.82,-7.12,-2.83,-7.12,7.12,7.18,7.30,4.30,4.29,4.29
40.54,-2.82,-7.09,-2.81,-7.07,7.07,7.13,7.18,4.25,4.26,4.26
40.94,-2.82,-7.05,-2.79,-7.03,7.03,7.08,7.06,4.20,4.23,4.23
41.35,-2.82,-7.03,-2.78,-6.98,6.98,7.03,6.94,4.16,4.21,4.21
41.76,-2.82,-6.99,-2.77,-6.95,6.95,6.97,6.82,4.12,4.18,4.17
42.18,-2.81,-6.96,-2.76,-6.91,6.91,6.92,6.71,4.09,4.15,4.14
42.60,-2.77,-6.89,-2.75,-6.87,6.87,6.86,6.61,4.09,4.12,4.12
43.03,-2.74,-6.83,-2.73,-6.82,6.82,6.81,6.51,4.07,4.09,4.09
43.46,-2.68,-6.74,-2.71,-6.77,6.77,6.75,6.41,4.08,4.06,4.05
43.90,-2.64,-6.66,-2.68,-6.71,6.71,6.70,6.32,4.07,4.03,4.03
44.33,-2.62,-6.62,-2.65,-6.65,6.65,6.64,6.23,4.02,3.99,3.99
44.78,-2.62,-6.58,-2.63,-6.59,6.59,6.59,6.15,3.96,3.96,3.96
45.23,-2.61,-6.56,-2.60,-6.53,6.53,6.53,6.07,3.92,3.93,3.94
45.68,-2.59,-6.49,-2.58,-6.47,6.47,6.47,6.00,3.88,3.89,3.89
46.13,-2.57,-6.42,-2.57,-6.42,6.42,6.41,5.93,3.84,3.85,3.85
46.60,-2.54,-6.34,-2.56,-6.37,6.37,6.35,5.86,3.83,3.81,3.81
47.06,-2.49,-6.27,-2.55,-6.31,6.31,6.30,5.80,3.81,3.76,3.77
47.53,-2.51,-6.25,-2.53,-6.25,6.25,6.24,5.74,3.73,3.72,3.73
48.01,-2.52,-6.20,-2.53,-6.20,6.20,6.18,5.69,3.67,3.67,3.67
48.49,-2.52,-6.15,-2.52,-6.15,6.15,6.12,5.64,3.62,3.62,3.62
48.97,-2.52,-6.09,-2.52,-6.09,6.09,6.05,5.59,3.56,3.57,3.57
49.46,-2.52,-6.05,-2.51,-6.03,6.03,5.99,5.55,3.51,3.52,3.53
49.96,-2.52,-5.98,-2.49,-5.97,5.97,5.93,5.51,3.44,3.47,3.46
50.46,-2.52,-5.94,-2.48,-5.90,5.90,5.87,5.47,3.38,3.42,3.41
50.96,-2.52,-5.89,-2.47,-5.84,5.84,5.81,5.43,3.31,3.37,3.37
51.47,-2.43,-5.76,-2.45,-5.77,5.77,5.74,5.40,3.34,3.32,3.32
51.99,-2.34,-5.60,-2.44,-5.71,5.71,5.68,5.37,3.37,3.27,3.27
52.51,-2.42,-5.64,-2.43,-5.64,5.64,5.62,5.34,3.22,3.21,3.22
53.03,-2.49,-5.68,-2.42,-5.58,5.58,5.55,5.31,3.09,3.16,3.18
53.56,-2.40,-5.53,-2.40,-5.51,5.51,5.49,5.29,3.11,3.11,3.12
54.10,-2.33,-5.39,-2.38,-5.44,5.44,5.42,5.26,3.12,3.06,3.06
54.64,-2.32,-5.34,-2.36,-5.37,5.37,5.35,5.23,3.05,3.01,3.01
55.18,-2.32,-5.28,-2.33,-5.30,5.30,5.29,5.21,2.97,2.96,2.95
55.74,-2.32,-5.22,-2.31,-5.23,5.23,5.22,5.18,2.91,2.92,2.90
56.29,-2.32,-5.18,-2.30,-5.16,5.16,5.16,5.16,2.84,2.87,2.85
56.86,-2.32,-5.14,-2.28,-5.10,5.10,5.09,5.13,2.77,2.82,2.81
57.42,-2.32,-5.07,-2.27,-5.03,5.03,5.02,5.10,2.71,2.76,2.74
58.00,-2.32,-5.03,-2.26,-4.97,4.97,4.95,5.07,2.64,2.71,2.71
58.58,-2.20,-4.88,-2.24,-4.89,4.89,4.89,5.03,2.69,2.66,2.67
59.16,-2.12,-4.75,-2.22,-4.83,4.83,4.82,5.00,2.70,2.60,2.62
59.76,-2.14,-4.72,-2.22,-4.77,4.77,4.75,4.96,2.62,2.54,2.57
60.35,-2.17,-4.68,-2.22,-4.70,4.70,4.68,4.92,2.53,2.48,2.50
60.96,-2.22,-4.66,-2.21,-4.64,4.64,4.61,4.87,2.41,2.42,2.44
61.57,-2.22,-4.59,-2.21,-4.57,4.57,4.54,4.82,2.35,2.36,2.37
62.18,-2.22,-4.52,-2.20,-4.50,4.50,4.47,4.77,2.28,2.30,2.29
62.80,-2.22,-4.44,-2.20,-4.44,4.44,4.40,4.71,2.21,2.23,2.21
63.43,-2.22,-4.37,-2.20,-4.37,4.37,4.33,4.65,2.15,2.17,2.15
64.07,-2.22,-4.31,-2.21,-4.31,4.31,4.26,4.59,2.08,2.10,2.09
64.71,-2.22,-4.24,-2.22,-4.25,4.25,4.19,4.52,2.02,2.03,2.02
65.35,-2.22,-4.18,-2.23,-4.19,4.19,4.12,4.45,1.96,1.96,1.96
66.01,-2.22,-4.11,-2.23,-4.12,4.12,4.04,4.37,1.90,1.89,1.89
66.67,-2.22,-4.06,-2.23,-4.05,4.05,3.97,4.29,1.82,1.82,1.83
67.33,-2.22,-3.97,-2.23,-3.98,3.98,3.90,4.21,1.75,1.75,1.75
68.01,-2.22,-3.91,-2.23,-3.91,3.91,3.83,4.12,1.68,1.68,1.68
68.69,-2.22,-3.83,-2.24,-3.84,3.84,3.76,4.03,1.62,1.61,1.61
69.37,-2.22,-3.77,-2.24,-3.78,3.78,3.68,3.94,1.55,1.54,1.55
70.07,-2.22,-3.69,-2.23,-3.70,3.70,3.61,3.85,1.47,1.47,1.47
70.77,-2.22,-3.62,-2.23,-3.62,3.62,3.54,3.76,1.39,1.39,1.40
71.48,-2.22,-3.55,-2.22,-3.54,3.54,3.47,3.66,1.31,1.32,1.32
72.19,-2.22,-3.47,-2.21,-3.45,3.45,3.39,3.56,1.23,1.24,1.24
72.91,-2.22,-3.39,-2.20,-3.37,3.37,3.32,3.46,1.15,1.17,1.17
73.64,-2.22,-3.31,-2.19,-3.29,3.29,3.25,3.36,1.06,1.10,1.09
74.38,-2.22,-3.25,-2.18,-3.21,3.21,3.17,3.26,0.98,1.03,1.02
75.12,-2.21,-3.16,-2.17,-3.13,3.13,3.10,3.16,0.91,0.96,0.94
75.87,-2.16,-3.05,-2.16,-3.05,3.05,3.03,3.06,0.88,0.89,0.88
76.63,-2.05,-2.87,-2.15,-2.97,2.97,2.95,2.96,0.91,0.82,0.81
77.40,-2.05,-2.80,-2.14,-2.89,2.89,2.88,2.86,0.83,0.75,0.75
78.17,-2.12,-2.80,-2.13,-2.81,2.81,2.80,2.76,0.69,0.68,0.67
78.95,-2.12,-2.74,-2.12,-2.74,2.74,2.73,2.66,0.61,0.62,0.62
79.74,-2.12,-2.68,-2.12,-2.67,2.67,2.66,2.56,0.54,0.55,0.55
80.54,-2.12,-2.61,-2.11,-2.60,2.60,2.58,2.46,0.47,0.48,0.49
81.35,-2.12,-2.54,-2.11,-2.53,2.53,2.51,2.37,0.40,0.42,0.42
82.16,-2.12,-2.48,-2.11,-2.46,2.46,2.43,2.27,0.34,0.35,0.36
82.98,-2.12,-2.41,-2.11,-2.39,2.39,2.36,2.17,0.27,0.28,0.29
83.81,-2.12,-2.34,-2.12,-2.33,2.33,2.29,2.08,0.20,0.21,0.21
84.65,-2.12,-2.27,-2.12,-2.26,2.26,2.21,1.99,0.14,0.14,0.14
85.50,-2.12,-2.18,-2.13,-2.20,2.20,2.14,1.90,0.07,0.07,0.06
86.35,-2.12,-2.12,-2.13,-2.12,2.12,2.06,1.80,-0.00,-0.00,-0.01
87.22,-2.12,-2.05,-2.12,-2.05,2.05,1.99,1.72,-0.08,-0.07,-0.07
88.09,-2.12,-1.97,-2.12,-1.97,1.97,1.92,1.63,-0.15,-0.15,-0.15
88.97,-2.11,-1.90,-2.12,-1.89,1.89,1.84,1.54,-0.22,-0.22,-0.22
89.86,-2.11,-1.81,-2.11,-1.82,1.82,1.77,1.45,-0.30,-0.30,-0.31
90.76,-2.11,-1.74,-2.11,-1.73,1.73,1.70,1.37,-0.38,-0.38,-0.38
91.66,-2.11,-1.65,-2.11,-1.65,1.65,1.62,1.28,-0.46,-0.46,-0.47
92.58,-2.11,-1.58,-2.11,-1.57,1.57,1.55,1.20,-0.54,-0.54,-0.54
93.51,-2.11,-1.50,-2.11,-1.49,1.49,1.48,1.12,-0.63,-0.63,-0.62
94.44,-2.11,-1.42,-2.12,-1.40,1.40,1.41,1.04,-0.71,-0.71,-0.70
95.39,-2.11,-1.32,-2.12,-1.32,1.32,1.33,0.96,-0.80,-0.80,-0.79
96.34,-2.11,-1.23,-2.12,-1.23,1.23,1.26,0.88,-0.88,-0.89,-0.89
97.30,-2.12,-1.15,-2.13,-1.15,1.15,1.19,0.80,-0.97,-0.98,-0.98
98.28,-2.13,-1.06,-2.14,-1.07,1.07,1.12,0.72,-1.06,-1.07,-1.07
99.26,-2.14,-0.97,-2.15,-0.98,0.98,1.04,0.64,-1.16,-1.17,-1.18
100.25,-2.16,-0.89,-2.16,-0.90,0.90,0.97,0.57,-1.27,-1.26,-1.27
101.25,-2.18,-0.83,-2.17,-0.81,0.81,0.90,0.49,-1.37,-1.35,-1.36
102.27,-2.19,-0.74,-2.18,-0.73,0.73,0.83,0.42,-1.46,-1.45,-1.45
103.29,-2.20,-0.66,-2.20,-0.66,0.66,0.76,0.35,-1.54,-1.54,-1.55
104.32,-2.22,-0.59,-2.23,-0.59,0.59,0.69,0.28,-1.63,-1.64,-1.63
105.37,-2.25,-0.53,-2.26,-0.52,0.52,0.62,0.21,-1.73,-1.73,-1.73
106.42,-2.27,-0.45,-2.28,-0.46,0.46,0.55,0.14,-1.82,-1.82,-1.82
107.48,-2.30,-0.38,-2.31,-0.40,0.40,0.48,0.07,-1.91,-1.92,-1.93
108.56,-2.27,-0.27,-2.34,-0.33,0.33,0.41,0.00,-1.94,-2.01,-2.00
109.64,-2.27,-0.17,-2.37,-0.27,0.27,0.34,-0.06,-2.00,-2.10,-2.10
110.74,-2.42,-0.23,-2.39,-0.20,0.20,0.27,-0.13,-2.22,-2.19,-2.19
111.85,-2.48,-0.21,-2.42,-0.14,0.14,0.20,-0.19,-2.35,-2.28,-2.28
112.97,-2.49,-0.13,-2.44,-0.07,0.07,0.13,-0.26,-2.42,-2.37,-2.36
114.10,-2.49,-0.05,-2.46,-0.00,0.00,0.07,-0.32,-2.49,-2.45,-2.45
115.24,-2.50,0.04,-2.47,0.07,-0.07,-0.00,-0.38,-2.57,-2.54,-2.54
116.39,-2.49,0.14,-2.48,0.14,-0.14,-0.07,-0.44,-2.63,-2.62,-2.63
117.55,-2.49,0.21,-2.49,0.21,-0.21,-0.14,-0.49,-2.71,-2.70,-2.71
118.73,-2.49,0.30,-2.49,0.29,-0.29,-0.20,-0.55,-2.78,-2.78,-2.80
119.92,-2.48,0.39,-2.49,0.36,-0.36,-0.27,-0.60,-2.85,-2.86,-2.87
121.12,-2.47,0.46,-2.49,0.44,-0.44,-0.33,-0.65,-2.92,-2.94,-2.93
122.33,-2.46,0.55,-2.48,0.53,-0.53,-0.40,-0.70,-3.00,-3.01,-3.01
123.55,-2.46,0.62,-2.47,0.62,-0.62,-0.46,-0.75,-3.09,-3.09,-3.08
124.79,-2.45,0.70,-2.45,0.71,-0.71,-0.53,-0.80,-3.16,-3.16,-3.15
126.03,-2.44,0.78,-2.44,0.79,-0.79,-0.59,-0.85,-3.24,-3.24,-3.23
127.29,-2.43,0.87,-2.43,0.88,-0.88,-0.66,-0.89,-3.31,-3.31,-3.30
128.57,-2.43,0.95,-2.42,0.96,-0.96,-0.72,-0.94,-3.40,-3.38,-3.38
129.85,-2.42,1.03,-2.42,1.04,-1.04,-0.78,-0.98,-3.46,-3.45,-3.46
131.15,-2.42,1.11,-2.41,1.11,-1.11,-0.84,-1.02,-3.54,-3.53,-3.53
132.46,-2.41,1.19,-2.42,1.18,-1.18,-0.90,-1.06,-3.59,-3.60,-3.60
133.79,-2.41,1.26,-2.43,1.24,-1.24,-0.97,-1.10,-3.66,-3.67,-3.68
135.12,-2.40,1.34,-2.44,1.30,-1.30,-1.03,-1.14,-3.71,-3.74,-3.75
136.48,-2.40,1.40,-2.45,1.36,-1.36,-1.09,-1.18,-3.77,-3.81,-3.81
137.84,-2.40,1.47,-2.47,1.42,-1.42,-1.15,-1.21,-3.82,-3.89,-3.88
139.22,-2.45,1.51,-2.48,1.47,-1.47,-1.21,-1.25,-3.93,-3.96,-3.96
140.61,-2.49,1.53,-2.50,1.52,-1.52,-1.26,-1.29,-4.02,-4.03,-4.02
142.02,-2.56,1.53,-2.52,1.57,-1.57,-1.32,-1.32,-4.14,-4.09,-4.10
143.44,-2.59,1.58,-2.54,1.62,-1.62,-1.38,-1.36,-4.22,-4.16,-4.17
144.87,-2.60,1.63,-2.56,1.67,-1.67,-1.44,-1.40,-4.28,-4.23,-4.23
146.32,-2.60,1.69,-2.57,1.72,-1.72,-1.49,-1.43,-4.33,-4.30,-4.29
147.78,-2.60,1.76,-2.59,1.77,-1.77,-1.55,-1.47,-4.38,-4.37,-4.36
149.26,-2.60,1.83,-2.60,1.83,-1.83,-1.61,-1.51,-4.43,-4.43,-4.43
150.75,-2.60,1.91,-2.61,1.89,-1.89,-1.66,-1.55,-4.50,-4.50,-4.51
152.26,-2.60,1.96,-2.61,1.96,-1.96,-1.72,-1.58,-4.57,-4.57,-4.57
153.78,-2.60,2.03,-2.60,2.04,-2.04,-1.77,-1.62,-4.64,-4.64,-4.63
155.32,-2.60,2.09,-2.60,2.11,-2.11,-1.82,-1.66,-4.71,-4.71,-4.70
156.88,-2.59,2.18,-2.60,2.18,-2.18,-1.88,-1.71,-4.78,-4.78,-4.77
158.44,-2.59,2.25,-2.60,2.25,-2.25,-1.93,-1.75,-4.84,-4.85,-4.84
160.03,-2.59,2.32,-2.60,2.32,-2.32,-1.98,-1.79,-4.91,-4.92,-4.91
161.63,-2.60,2.38,-2.61,2.38,-2.38,-2.03,-1.84,-4.98,-4.99,-4.98
163.24,-2.60,2.45,-2.62,2.44,-2.44,-2.08,-1.89,-5.04,-5.06,-5.06
164.88,-2.55,2.57,-2.63,2.49,-2.49,-2.13,-1.94,-5.05,-5.13,-5.13
166.53,-2.55,2.65,-2.65,2.55,-2.55,-2.18,-1.99,-5.11,-5.20,-5.20
168.19,-2.65,2.61,-2.66,2.60,-2.60,-2.23,-2.04,-5.26,-5.27,-5.26
169.87,-2.72,2.61,-2.68,2.66,-2.66,-2.28,-2.09,-5.38,-5.34,-5.34
171.57,-2.73,2.67,-2.69,2.72,-2.72,-2.33,-2.15,-5.45,-5.41,-5.41
173.29,-2.73,2.74,-2.70,2.78,-2.78,-2.37,-2.21,-5.51,-5.47,-5.48
175.02,-2.74,2.79,-2.71,2.83,-2.83,-2.42,-2.26,-5.58,-5.54,-5.54
176.77,-2.74,2.86,-2.72,2.88,-2.88,-2.47,-2.33,-5.63,-5.60,-5.60
178.54,-2.74,2.92,-2.73,2.94,-2.94,-2.51,-2.39,-5.68,-5.66,-5.67
180.32,-2.74,2.99,-2.73,2.99,-2.99,-2.56,-2.45,-5.74,-5.72,-5.73
182.13,-2.73,3.05,-2.73,3.05,-3.05,-2.60,-2.52,-5.79,-5.78,-5.79
183.95,-2.72,3.12,-2.73,3.11,-3.11,-2.65,-2.59,-5.84,-5.84,-5.84
185.79,-2.71,3.19,-2.73,3.17,-3.17,-2.69,-2.66,-5.89,-5.90,-5.90
187.65,-2.64,3.31,-2.72,3.23,-3.23,-2.73,-2.73,-5.88,-5.95,-5.95
189.52,-2.68,3.33,-2.72,3.28,-3.28,-2.77,-2.80,-5.97,-6.01,-6.01
191.42,-2.74,3.30,-2.72,3.34,-3.34,-2.81,-2.88,-6.08,-6.06,-6.05
193.33,-2.75,3.35,-2.72,3.39,-3.39,-2.85,-2.96,-6.14,-6.11,-6.11
195.27,-2.74,3.42,-2.73,3.44,-3.44,-2.90,-3.04,-6.18,-6.16,-6.16
197.22,-2.72,3.49,-2.73,3.48,-3.48,-2.93,-3.11,-6.20,-6.21,-6.22
199.19,-2.71,3.55,-2.74,3.51,-3.51,-2.97,-3.20,-6.23,-6.26,-6.26
201.18,-2.71,3.60,-2.76,3.55,-3.55,-3.01,-3.28,-6.26,-6.30,-6.31
203.19,-2.80,3.55,-2.77,3.58,-3.58,-3.05,-3.36,-6.38,-6.35,-6.35
205.23,-2.86,3.53,-2.79,3.61,-3.61,-3.09,-3.44,-6.47,-6.40,-6.39
207.28,-2.82,3.61,-2.81,3.63,-3.63,-3.12,-3.53,-6.46,-6.45,-6.43
209.35,-2.76,3.72,-2.83,3.66,-3.66,-3.16,-3.61,-6.42,-6.49,-6.48
211.44,-2.74,3.79,-2.84,3.69,-3.69,-3.20,-3.69,-6.44,-6.53,-6.53
213.56,-2.86,3.70,-2.85,3.73,-3.73,-3.23,-3.77,-6.59,-6.58,-6.57
215.69,-2.91,3.70,-2.87,3.75,-3.75,-3.26,-3.85,-6.67,-6.62,-6.61
217.85,-2.92,3.73,-2.88,3.77,-3.77,-3.30,-3.93,-6.70,-6.66,-6.65
220.03,-2.92,3.78,-2.90,3.80,-3.80,-3.33,-4.01,-6.72,-6.69,-6.70
222.23,-2.92,3.81,-2.91,3.82,-3.82,-3.36,-4.09,-6.74,-6.73,-6.74
224.45,-2.92,3.85,-2.92,3.84,-3.84,-3.40,-4.16,-6.77,-6.76,-6.77
226.70,-2.92,3.88,-2.93,3.87,-3.87,-3.43,-4.23,-6.79,-6.80,-6.80
228.96,-2.92,3.90,-2.94,3.89,-3.89,-3.46,-4.29,-6.81,-6.82,-6.83
231.25,-2.87,3.97,-2.95,3.90,-3.90,-3.49,-4.35,-6.78,-6.85,-6.85
233.57,-2.90,3.97,-2.95,3.92,-3.92,-3.52,-4.41,-6.83,-6.87,-6.88
235.90,-2.99,3.90,-2.94,3.95,-3.95,-3.55,-4.46,-6.95,-6.89,-6.90
238.26,-2.97,3.94,-2.92,3.98,-3.98,-3.58,-4.51,-6.96,-6.91,-6.91
240.64,-2.95,3.96,-2.92,4.00,-4.00,-3.60,-4.55,-6.96,-6.92,-6.91
243.05,-2.94,3.99,-2.91,4.02,-4.02,-3.63,-4.59,-6.97,-6.93,-6.93
245.48,-2.92,4.02,-2.91,4.04,-4.04,-3.66,-4.62,-6.96,-6.94,-6.95
247.93,-2.89,4.07,-2.91,4.05,-4.05,-3.69,-4.64,-6.94,-6.96,-6.96
250.41,-2.88,4.07,-2.90,4.06,-4.06,-3.71,-4.66,-6.95,-6.97,-6.96
252.92,-2.86,4.10,-2.91,4.07,-4.07,-3.74,-4.67,-6.94,-6.98,-6.96
255.45,-2.83,4.15,-2.90,4.09,-4.09,-3.76,-4.68,-6.92,-6.99,-6.99
258.00,-2.83,4.16,-2.90,4.10,-4.10,-3.78,-4.67,-6.94,-7.00,-6.99
260.58,-2.91,4.09,-2.90,4.12,-4.12,-3.81,-4.67,-7.03,-7.02,-7.01
263.19,-2.93,4.09,-2.90,4.13,-4.13,-3.83,-4.66,-7.07,-7.03,-7.02
265.82,-2.93,4.11,-2.91,4.14,-4.14,-3.85,-4.64,-7.07,-7.05,-7.04
268.48,-2.94,4.11,-2.92,4.14,-4.14,-3.88,-4.62,-7.09,-7.06,-7.05
271.16,-2.94,4.13,-2.93,4.14,-4.14,-3.90,-4.59,-7.09,-7.08,-7.08
273.87,-2.94,4.14,-2.95,4.14,-4.14,-3.92,-4.56,-7.09,-7.09,-7.09
276.61,-2.95,4.15,-2.96,4.15,-4.15,-3.94,-4.52,-7.10,-7.11,-7.11
279.38,-2.94,4.19,-2.96,4.15,-4.15,-3.96,-4.49,-7.10,-7.12,-7.14
282.17,-2.93,4.20,-2.97,4.16,-4.16,-3.98,-4.44,-7.09,-7.13,-7.14
284.99,-2.98,4.16,-2.98,4.16,-4.16,-4.00,-4.40,-7.14,-7.14,-7.15
287.84,-3.03,4.11,-2.99,4.16,-4.16,-4.01,-4.36,-7.20,-7.15,-7.15
290.72,-3.02,4.14,-2.99,4.17,-4.17,-4.03,-4.31,-7.19,-7.16,-7.17
293.63,-3.01,4.15,-3.00,4.17,-4.17,-4.05,-4.26,-7.18,-7.17,-7.17
296.57,-2.99,4.17,-3.00,4.17,-4.17,-4.07,-4.22,-7.16,-7.17,-7.17
299.53,-2.98,4.19,-3.01,4.17,-4.17,-4.08,-4.17,-7.15,-7.18,-7.17
302.53,-2.97,4.20,-3.01,4.17,-4.17,-4.10,-4.12,-7.14,-7.18,-7.17
305.55,-2.98,4.19,-3.02,4.17,-4.17,-4.11,-4.07,-7.15,-7.18,-7.18
308.61,-3.04,4.13,-3.02,4.17,-4.17,-4.13,-4.03,-7.21,-7.19,-7.18
311.69,-3.05,4.14,-3.02,4.17,-4.17,-4.14,-3.98,-7.22,-7.19,-7.19
314.81,-3.04,4.15,-3.03,4.16,-4.16,-4.16,-3.94,-7.21,-7.19,-7.19
317.96,-3.04,4.16,-3.04,4.16,-4.16,-4.17,-3.90,-7.21,-7.20,-7.21
321.14,-3.04,4.16,-3.04,4.16,-4.16,-4.18,-3.86,-7.20,-7.20,-7.20
324.35,-3.04,4.16,-3.05,4.15,-4.15,-4.19,-3.82,-7.20,-7.21,-7.21
327.59,-3.04,4.16,-3.06,4.15,-4.15,-4.20,-3.78,-7.19,-7.21,-7.20
330.87,-3.04,4.17,-3.08,4.14,-4.14,-4.22,-3.75,-7.18,-7.21,-7.21
334.18,-3.04,4.18,-3.09,4.13,-4.13,-4.23,-3.72,-7.17,-7.22,-7.23
337.52,-3.11,4.11,-3.10,4.12,-4.12,-4.24,-3.69,-7.23,-7.22,-7.22
340.90,-3.14,4.08,-3.12,4.10,-4.10,-4.25,-3.66,-7.24,-7.22,-7.23
344.30,-3.15,4.07,-3.13,4.09,-4.09,-4.26,-3.64,-7.24,-7.22,-7.22
347.75,-3.15,4.06,-3.14,4.07,-4.07,-4.26,-3.62,-7.23,-7.22,-7.21
351.23,-3.15,4.07,-3.15,4.06,-4.06,-4.27,-3.60,-7.22,-7.22,-7.23
354.74,-3.14,4.07,-3.16,4.05,-4.05,-4.28,-3.58,-7.20,-7.21,-7.21
358.28,-3.14,4.07,-3.17,4.04,-4.04,-4.29,-3.57,-7.19,-7.21,-7.22
361.87,-3.18,4.03,-3.17,4.04,-4.04,-4.29,-3.56,-7.22,-7.21,-7.21
365.49,-3.22,3.98,-3.17,4.03,-4.03,-4.30,-3.55,-7.26,-7.21,-7.21
369.14,-3.22,3.97,-3.18,4.03,-4.03,-4.31,-3.55,-7.25,-7.20,-7.20
372.83,-3.21,3.98,-3.17,4.03,-4.03,-4.31,-3.55,-7.24,-7.20,-7.19
376.56,-3.17,4.02,-3.17,4.03,-4.03,-4.32,-3.55,-7.21,-7.20,-7.20
380.33,-3.11,4.08,-3.16,4.03,-4.03,-4.32,-3.55,-7.15,-7.20,-7.20
384.13,-3.09,4.10,-3.17,4.04,-4.04,-4.33,-3.56,-7.13,-7.20,-7.19
387.97,-3.14,4.05,-3.17,4.03,-4.03,-4.33,-3.57,-7.18,-7.20,-7.20
391.85,-3.17,4.02,-3.18,4.03,-4.03,-4.33,-3.58,-7.20,-7.21,-7.20
395.77,-3.18,4.03,-3.19,4.03,-4.03,-4.34,-3.59,-7.21,-7.21,-7.21
399.73,-3.18,4.03,-3.20,4.02,-4.02,-4.34,-3.60,-7.21,-7.22,-7.21
403.72,-3.19,4.01,-3.21,4.02,-4.02,-4.34,-3.62,-7.21,-7.23,-7.21
407.76,-3.19,4.03,-3.22,4.01,-4.01,-4.34,-3.64,-7.21,-7.23,-7.23
411.84,-3.19,4.04,-3.23,4.00,-4.00,-4.34,-3.66,-7.20,-7.23,-7.23
415.96,-3.22,4.01,-3.25,3.99,-3.99,-4.35,-3.68,-7.21,-7.23,-7.23
420.12,-3.28,3.96,-3.26,3.97,-3.97,-4.35,-3.71,-7.26,-7.23,-7.25
424.32,-3.29,3.94,-3.26,3.96,-3.96,-4.35,-3.73,-7.25,-7.22,-7.24
428.56,-3.28,3.93,-3.25,3.96,-3.96,-4.35,-3.75,-7.25,-7.21,-7.22
432.85,-3.26,3.94,-3.23,3.97,-3.97,-4.34,-3.78,-7.23,-7.19,-7.20
437.18,-3.24,3.95,-3.20,3.97,-3.97,-4.34,-3.81,-7.22,-7.17,-7.19
441.55,-3.20,3.95,-3.16,3.97,-3.97,-4.34,-3.83,-7.18,-7.14,-7.16
445.96,-3.16,3.95,-3.12,3.98,-3.98,-4.34,-3.86,-7.14,-7.10,-7.12
450.42,-3.10,3.97,-3.08,3.98,-3.98,-4.34,-3.88,-7.09,-7.06,-7.08
454.93,-3.05,3.98,-3.03,3.99,-3.99,-4.33,-3.91,-7.04,-7.01,-7.03
459.48,-2.98,3.99,-2.97,3.99,-3.99,-4.33,-3.93,-6.98,-6.96,-6.97
464.07,-2.86,4.04,-2.91,4.00,-4.00,-4.33,-3.95,-6.86,-6.91,-6.90
