frequency,raw,error,smoothed,error_smoothed,equalization,parametric_eq,fixed_band_eq,equalized_raw,equalized_smoothed,target
20.00,8.86,-1.52,8.81,-1.57,1.57,0.94,-0.04,10.43,10.38,10.38
20.20,8.89,-1.50,8.89,-1.50,1.50,0.93,-0.04,10.39,10.39,10.39
20.40,8.94,-1.46,8.97,-1.43,1.43,0.92,-0.04,10.37,10.40,10.40
20.61,9.02,-1.39,9.05,-1.36,1.36,0.90,-0.04,10.38,10.41,10.41
20.81,9.12,-1.29,9.13,-1.29,1.29,0.89,-0.03,10.41,10.42,10.41
21.02,9.19,-1.23,9.20,-1.22,1.22,0.87,-0.03,10.42,10.42,10.42
21.23,9.27,-1.16,9.27,-1.16,1.16,0.85,-0.03,10.43,10.43,10.43
21.44,9.33,-1.11,9.34,-1.10,1.10,0.82,-0.02,10.43,10.44,10.44
21.66,9.41,-1.03,9.40,-1.04,1.04,0.80,-0.02,10.45,10.44,10.44
21.87,9.47,-0.98,9.47,-0.98,0.98,0.77,-0.02,10.45,10.45,10.45
22.09,9.52,-0.93,9.53,-0.93,0.93,0.75,-0.02,10.45,10.45,10.45
22.31,9.58,-0.88,9.59,-0.87,0.87,0.72,-0.01,10.46,10.46,10.46
22.54,9.64,-0.82,9.65,-0.82,0.82,0.69,-0.01,10.46,10.46,10.46
22.76,9.70,-0.77,9.70,-0.77,0.77,0.66,-0.01,10.47,10.47,10.47
22.99,9.75,-0.72,9.75,-0.72,0.72,0.63,-0.00,10.47,10.47,10.47
23.22,9.80,-0.67,9.80,-0.68,0.68,0.60,0.00,10.48,10.48,10.47
23.45,9.85,-0.63,9.84,-0.64,0.64,0.57,0.01,10.49,10.48,10.48
23.69,9.90,-0.58,9.88,-0.60,0.60,0.53,0.01,10.50,10.48,10.48
23.92,9.91,-0.57,9.92,-0.56,0.56,0.50,0.01,10.47,10.48,10.48
24.16,9.96,-0.52,9.96,-0.53,0.53,0.47,0.02,10.49,10.49,10.48
24.40,9.99,-0.50,10.00,-0.49,0.49,0.44,0.02,10.48,10.49,10.49
24.65,10.03,-0.46,10.03,-0.46,0.46,0.41,0.03,10.49,10.49,10.49
24.89,10.06,-0.43,10.07,-0.42,0.42,0.37,0.03,10.49,10.49,10.49
25.14,10.09,-0.40,10.10,-0.39,0.39,0.34,0.03,10.48,10.49,10.49
25.39,10.12,-0.37,10.13,-0.36,0.36,0.31,0.04,10.48,10.49,10.49
25.65,10.15,-0.34,10.16,-0.33,0.33,0.28,0.04,10.48,10.49,10.49
25.91,10.19,-0.30,10.20,-0.30,0.30,0.25,0.04,10.49,10.49,10.49
26.16,10.24,-0.25,10.23,-0.26,0.26,0.22,0.05,10.51,10.49,10.49
26.43,10.24,-0.25,10.26,-0.23,0.23,0.19,0.05,10.47,10.49,10.49
26.69,10.29,-0.20,10.29,-0.20,0.20,0.16,0.05,10.49,10.49,10.49
26.96,10.33,-0.16,10.32,-0.17,0.17,0.13,0.06,10.50,10.49,10.49
27.23,10.36,-0.13,10.36,-0.14,0.14,0.10,0.06,10.50,10.49,10.49
27.50,10.38,-0.11,10.39,-0.11,0.11,0.08,0.06,10.49,10.49,10.49
27.77,10.42,-0.07,10.42,-0.07,0.07,0.05,0.06,10.50,10.49,10.49
28.05,10.45,-0.04,10.45,-0.04,0.04,0.02,0.06,10.50,10.49,10.49
28.33,10.47,-0.02,10.48,-0.01,0.01,-0.01,0.06,10.48,10.49,10.49
28.62,10.52,0.03,10.51,0.02,-0.02,-0.03,0.06,10.50,10.49,10.49
28.90,10.52,0.03,10.54,0.05,-0.05,-0.06,0.06,10.48,10.49,10.49
29.19,10.57,0.08,10.56,0.07,-0.07,-0.08,0.05,10.50,10.49,10.49
29.48,10.59,0.10,10.59,0.10,-0.10,-0.11,0.05,10.49,10.49,10.49
29.78,10.61,0.12,10.62,0.13,-0.13,-0.13,0.04,10.48,10.49,10.49
30.08,10.65,0.16,10.64,0.16,-0.16,-0.16,0.04,10.50,10.49,10.49
30.38,10.66,0.18,10.67,0.18,-0.18,-0.18,0.03,10.48,10.48,10.48
30.68,10.71,0.23,10.69,0.21,-0.21,-0.21,0.02,10.50,10.48,10.48
30.99,10.71,0.23,10.72,0.24,-0.24,-0.23,0.01,10.47,10.48,10.48
31.30,10.75,0.28,10.75,0.27,-0.27,-0.25,0.00,10.48,10.47,10.47
31.61,10.75,0.28,10.77,0.30,-0.30,-0.28,-0.01,10.45,10.47,10.47
31.93,10.80,0.34,10.80,0.33,-0.33,-0.30,-0.02,10.47,10.47,10.46
32.24,10.80,0.34,10.82,0.36,-0.36,-0.32,-0.04,10.44,10.46,10.46
32.57,10.85,0.40,10.85,0.40,-0.40,-0.35,-0.05,10.46,10.46,10.45
32.89,10.86,0.41,10.87,0.42,-0.42,-0.37,-0.07,10.44,10.45,10.45
33.22,10.89,0.45,10.90,0.45,-0.45,-0.39,-0.09,10.44,10.44,10.44
33.55,10.94,0.50,10.92,0.48,-0.48,-0.41,-0.11,10.46,10.44,10.44
33.89,10.94,0.51,10.94,0.51,-0.51,-0.44,-0.13,10.43,10.43,10.43
34.23,10.98,0.56,10.96,0.54,-0.54,-0.46,-0.15,10.44,10.42,10.42
34.57,10.99,0.58,10.98,0.57,-0.57,-0.48,-0.18,10.42,10.41,10.41
34.92,10.99,0.59,11.00,0.60,-0.60,-0.50,-0.20,10.39,10.40,10.40
35.27,11.03,0.63,11.02,0.63,-0.63,-0.53,-0.23,10.41,10.39,10.40
35.62,11.03,0.65,11.03,0.65,-0.65,-0.55,-0.25,10.38,10.38,10.38
35.97,11.03,0.66,11.04,0.67,-0.67,-0.57,-0.28,10.36,10.37,10.37
36.33,11.03,0.67,11.05,0.69,-0.69,-0.59,-0.31,10.34,10.36,10.36
36.70,11.08,0.74,11.06,0.72,-0.72,-0.61,-0.34,10.36,10.34,10.34
37.06,11.08,0.75,11.07,0.74,-0.74,-0.64,-0.37,10.34,10.33,10.33
37.43,11.08,0.77,11.07,0.76,-0.76,-0.66,-0.40,10.32,10.31,10.31
37.81,11.08,0.79,11.08,0.78,-0.78,-0.68,-0.43,10.30,10.30,10.29
38.19,11.08,0.80,11.08,0.80,-0.80,-0.70,-0.47,10.28,10.28,10.28
38.57,11.08,0.82,11.09,0.83,-0.83,-0.73,-0.50,10.25,10.26,10.26
38.95,11.08,0.84,11.10,0.86,-0.86,-0.75,-0.53,10.23,10.24,10.24
39.34,11.08,0.86,11.11,0.88,-0.88,-0.77,-0.57,10.20,10.22,10.22
39.74,11.10,0.90,11.11,0.91,-0.91,-0.79,-0.61,10.19,10.20,10.20
40.14,11.11,0.93,11.12,0.94,-0.94,-0.82,-0.64,10.17,10.18,10.18
40.54,11.13,0.97,11.13,0.97,-0.97,-0.84,-0.68,10.16,10.16,10.16
40.94,11.13,1.00,11.14,1.00,-1.00,-0.86,-0.72,10.13,10.13,10.13
41.35,11.15,1.04,11.15,1.04,-1.04,-0.89,-0.76,10.12,10.11,10.11
41.76,11.17,1.09,11.15,1.07,-1.07,-0.91,-0.80,10.10,10.08,10.08
42.18,11.17,1.11,11.16,1.10,-1.10,-0.93,-0.84,10.07,10.06,10.06
42.60,11.17,1.14,11.17,1.14,-1.14,-0.96,-0.88,10.04,10.03,10.03
43.03,11.17,1.17,11.17,1.17,-1.17,-0.98,-0.93,10.00,10.00,10.00
43.46,11.17,1.20,11.17,1.20,-1.20,-1.00,-0.97,9.97,9.97,9.97
43.90,11.17,1.23,11.17,1.23,-1.23,-1.03,-1.01,9.94,9.94,9.94
44.33,11.17,1.26,11.17,1.26,-1.26,-1.05,-1.06,9.91,9.91,9.91
44.78,11.17,1.29,11.16,1.29,-1.29,-1.08,-1.10,9.89,9.88,9.88
45.23,11.17,1.32,11.16,1.31,-1.31,-1.10,-1.15,9.86,9.84,9.85
45.68,11.15,1.34,11.15,1.34,-1.34,-1.13,-1.20,9.81,9.81,9.81
46.13,11.13,1.36,11.14,1.37,-1.37,-1.15,-1.25,9.76,9.77,9.77
46.60,11.13,1.40,11.13,1.40,-1.40,-1.18,-1.30,9.74,9.73,9.73
47.06,11.13,1.43,11.12,1.43,-1.43,-1.20,-1.35,9.70,9.69,9.70
47.53,11.10,1.44,11.11,1.46,-1.46,-1.23,-1.40,9.64,9.65,9.66
48.01,11.10,1.49,11.11,1.49,-1.49,-1.26,-1.45,9.61,9.61,9.61
48.49,11.08,1.51,11.10,1.53,-1.53,-1.28,-1.50,9.55,9.57,9.57
48.97,11.08,1.56,11.09,1.57,-1.57,-1.31,-1.55,9.52,9.53,9.52
49.46,11.08,1.60,11.09,1.60,-1.60,-1.34,-1.60,9.48,9.48,9.48
49.96,11.08,1.65,11.08,1.64,-1.64,-1.36,-1.66,9.44,9.44,9.43
50.46,11.08,1.69,11.08,1.69,-1.69,-1.39,-1.71,9.40,9.40,9.39
50.96,11.08,1.73,11.08,1.73,-1.73,-1.42,-1.76,9.35,9.35,9.35
51.47,11.08,1.77,11.08,1.78,-1.78,-1.45,-1.82,9.31,9.31,9.31
51.99,11.08,1.82,11.08,1.82,-1.82,-1.48,-1.87,9.26,9.26,9.26
52.51,11.08,1.86,11.08,1.87,-1.87,-1.51,-1.93,9.21,9.22,9.22
53.03,11.08,1.90,11.09,1.92,-1.92,-1.53,-1.98,9.17,9.17,9.18
53.56,11.08,1.95,11.09,1.96,-1.96,-1.56,-2.03,9.12,9.12,9.13
54.10,11.08,2.00,11.08,2.00,-2.00,-1.59,-2.09,9.08,9.08,9.08
54.64,11.08,2.05,11.08,2.04,-2.04,-1.62,-2.14,9.04,9.03,9.03
55.18,11.08,2.10,11.07,2.08,-2.08,-1.65,-2.19,9.01,8.99,8.98
55.74,11.08,2.15,11.05,2.11,-2.11,-1.69,-2.24,8.97,8.95,8.93
56.29,11.03,2.14,11.04,2.14,-2.14,-1.72,-2.29,8.89,8.90,8.89
56.86,11.03,2.18,11.02,2.17,-2.17,-1.75,-2.34,8.87,8.86,8.85
57.42,11.02,2.22,11.01,2.20,-2.20,-1.78,-2.38,8.83,8.81,8.80
58.00,10.99,2.23,10.99,2.22,-2.22,-1.81,-2.43,8.77,8.76,8.76
58.58,10.97,2.25,10.97,2.25,-2.25,-1.84,-2.47,8.72,8.71,8.72
59.16,10.94,2.26,10.95,2.28,-2.28,-1.88,-2.51,8.66,8.66,8.68
59.76,10.89,2.25,10.92,2.31,-2.31,-1.91,-2.55,8.58,8.61,8.64
60.35,10.89,2.31,10.90,2.34,-2.34,-1.94,-2.59,8.55,8.56,8.58
60.96,10.85,2.33,10.88,2.37,-2.37,-1.98,-2.62,8.48,8.51,8.52
61.57,10.85,2.39,10.85,2.40,-2.40,-2.01,-2.66,8.46,8.46,8.46
62.18,10.83,2.44,10.83,2.43,-2.43,-2.05,-2.69,8.41,8.40,8.39
62.80,10.80,2.47,10.80,2.46,-2.46,-2.08,-2.71,8.35,8.35,8.33
63.43,10.80,2.53,10.78,2.49,-2.49,-2.12,-2.74,8.32,8.29,8.27
64.07,10.76,2.54,10.75,2.51,-2.51,-2.15,-2.76,8.25,8.24,8.22
64.71,10.75,2.58,10.72,2.54,-2.54,-2.19,-2.79,8.21,8.18,8.17
65.35,10.71,2.59,10.70,2.57,-2.57,-2.22,-2.80,8.14,8.12,8.12
66.01,10.66,2.59,10.67,2.60,-2.60,-2.26,-2.82,8.06,8.07,8.07
66.67,10.64,2.62,10.64,2.64,-2.64,-2.30,-2.84,8.01,8.01,8.02
67.33,10.61,2.65,10.62,2.66,-2.66,-2.33,-2.85,7.95,7.95,7.96
68.01,10.57,2.67,10.59,2.69,-2.69,-2.37,-2.86,7.88,7.90,7.90
68.69,10.54,2.70,10.57,2.72,-2.72,-2.41,-2.88,7.82,7.84,7.84
69.37,10.52,2.73,10.54,2.76,-2.76,-2.45,-2.89,7.77,7.78,7.79
70.07,10.52,2.79,10.52,2.79,-2.79,-2.49,-2.90,7.73,7.73,7.73
70.77,10.49,2.82,10.49,2.83,-2.83,-2.53,-2.91,7.67,7.67,7.67
71.48,10.47,2.86,10.47,2.87,-2.87,-2.57,-2.92,7.61,7.61,7.61
72.19,10.47,2.92,10.45,2.91,-2.91,-2.61,-2.92,7.57,7.55,7.55
72.91,10.44,2.96,10.44,2.95,-2.95,-2.65,-2.93,7.49,7.49,7.48
73.64,10.43,3.01,10.42,3.00,-3.00,-2.69,-2.94,7.44,7.43,7.42
74.38,10.41,3.05,10.41,3.04,-3.04,-2.73,-2.95,7.37,7.37,7.36
75.12,10.38,3.08,10.40,3.08,-3.08,-2.77,-2.96,7.30,7.31,7.30
75.87,10.38,3.13,10.38,3.13,-3.13,-2.81,-2.98,7.25,7.25,7.25
76.63,10.33,3.14,10.37,3.17,-3.17,-2.85,-2.99,7.16,7.20,7.19
77.40,10.33,3.19,10.35,3.21,-3.21,-2.89,-3.00,7.12,7.14,7.14
78.17,10.33,3.25,10.33,3.24,-3.24,-2.93,-3.02,7.09,7.08,7.08
78.95,10.31,3.28,10.30,3.28,-3.28,-2.98,-3.04,7.04,7.03,7.03
79.74,10.29,3.31,10.28,3.31,-3.31,-3.02,-3.06,6.98,6.97,6.98
80.54,10.29,3.37,10.25,3.34,-3.34,-3.06,-3.08,6.95,6.92,6.92
81.35,10.24,3.38,10.23,3.37,-3.37,-3.11,-3.10,6.88,6.86,6.86
82.16,10.21,3.40,10.20,3.39,-3.39,-3.15,-3.13,6.82,6.81,6.81
82.98,10.18,3.43,10.17,3.42,-3.42,-3.19,-3.16,6.76,6.75,6.75
83.81,10.12,3.43,10.13,3.44,-3.44,-3.24,-3.19,6.68,6.69,6.69
84.65,10.09,3.46,10.10,3.46,-3.46,-3.28,-3.22,6.63,6.64,6.63
85.50,10.04,3.47,10.06,3.48,-3.48,-3.33,-3.26,6.56,6.58,6.57
86.35,10.01,3.49,10.02,3.50,-3.50,-3.37,-3.29,6.51,6.52,6.52
87.22,9.98,3.52,9.98,3.52,-3.52,-3.42,-3.34,6.46,6.46,6.46
88.09,9.95,3.55,9.94,3.54,-3.54,-3.46,-3.38,6.41,6.40,6.40
88.97,9.91,3.57,9.91,3.57,-3.57,-3.51,-3.42,6.35,6.34,6.34
89.86,9.88,3.60,9.87,3.59,-3.59,-3.55,-3.47,6.29,6.28,6.28
90.76,9.84,3.62,9.84,3.62,-3.62,-3.60,-3.52,6.22,6.22,6.22
91.66,9.80,3.65,9.81,3.65,-3.65,-3.64,-3.58,6.15,6.15,6.15
92.58,9.77,3.68,9.78,3.69,-3.69,-3.69,-3.63,6.09,6.09,6.09
93.51,9.74,3.71,9.75,3.73,-3.73,-3.73,-3.69,6.02,6.03,6.03
94.44,9.73,3.76,9.73,3.77,-3.77,-3.78,-3.75,5.96,5.96,5.97
95.39,9.71,3.81,9.71,3.82,-3.82,-3.83,-3.81,5.90,5.90,5.90
96.34,9.68,3.85,9.70,3.87,-3.87,-3.87,-3.88,5.81,5.83,5.83
97.30,9.68,3.91,9.70,3.93,-3.93,-3.92,-3.95,5.75,5.77,5.77
98.28,9.68,3.98,9.70,3.99,-3.99,-3.96,-4.02,5.69,5.70,5.70
99.26,9.66,4.03,9.70,4.06,-4.06,-4.01,-4.09,5.60,5.64,5.63
100.25,9.68,4.12,9.71,4.13,-4.13,-4.06,-4.16,5.55,5.58,5.56
101.25,9.68,4.17,9.72,4.20,-4.20,-4.10,-4.23,5.48,5.52,5.51
102.27,9.71,4.26,9.72,4.27,-4.27,-4.15,-4.31,5.44,5.45,5.45
103.29,9.73,4.34,9.73,4.34,-4.34,-4.19,-4.39,5.40,5.39,5.39
104.32,9.75,4.42,9.73,4.40,-4.40,-4.24,-4.46,5.35,5.33,5.33
105.37,9.77,4.50,9.73,4.46,-4.46,-4.28,-4.54,5.32,5.27,5.27
106.42,9.77,4.55,9.72,4.51,-4.51,-4.33,-4.62,5.26,5.21,5.22
107.48,9.77,4.62,9.71,4.56,-4.56,-4.37,-4.69,5.21,5.15,5.15
108.56,9.71,4.62,9.69,4.60,-4.60,-4.42,-4.77,5.11,5.09,5.09
109.64,9.68,4.65,9.67,4.64,-4.64,-4.46,-4.84,5.04,5.03,5.03
110.74,9.63,4.66,9.64,4.67,-4.67,-4.51,-4.92,4.96,4.97,4.97
111.85,9.59,4.68,9.60,4.70,-4.70,-4.55,-4.99,4.89,4.90,4.91
112.97,9.54,4.70,9.57,4.73,-4.73,-4.60,-5.05,4.82,4.84,4.84
114.10,9.50,4.72,9.52,4.75,-4.75,-4.64,-5.12,4.76,4.78,4.78
115.24,9.45,4.74,9.48,4.76,-4.76,-4.68,-5.18,4.69,4.71,4.71
116.39,9.42,4.78,9.43,4.78,-4.78,-4.72,-5.24,4.64,4.65,4.64
117.55,9.37,4.79,9.38,4.79,-4.79,-4.76,-5.29,4.58,4.59,4.58
118.73,9.33,4.82,9.33,4.81,-4.81,-4.81,-5.33,4.52,4.52,4.51
119.92,9.29,4.84,9.29,4.83,-4.83,-4.85,-5.38,4.47,4.46,4.45
121.12,9.25,4.85,9.25,4.85,-4.85,-4.89,-5.41,4.41,4.40,4.40
122.33,9.20,4.86,9.20,4.86,-4.86,-4.93,-5.44,4.34,4.34,4.34
123.55,9.17,4.89,9.16,4.88,-4.88,-4.96,-5.47,4.29,4.28,4.28
124.79,9.11,4.89,9.12,4.90,-4.90,-5.00,-5.49,4.21,4.21,4.22
126.03,9.06,4.90,9.07,4.92,-4.92,-5.04,-5.50,4.14,4.15,4.16
127.29,9.03,4.93,9.03,4.94,-4.94,-5.08,-5.51,4.09,4.09,4.10
128.57,8.97,4.94,8.99,4.96,-4.96,-5.11,-5.51,4.02,4.03,4.03
129.85,8.94,4.97,8.95,4.97,-4.97,-5.15,-5.50,3.97,3.97,3.97
131.15,8.91,5.00,8.90,4.99,-4.99,-5.18,-5.49,3.92,3.91,3.91
132.46,8.86,5.01,8.86,5.01,-5.01,-5.21,-5.47,3.86,3.85,3.85
133.79,8.82,5.03,8.82,5.02,-5.02,-5.25,-5.45,3.80,3.79,3.79
135.12,8.77,5.04,8.77,5.04,-5.04,-5.28,-5.43,3.73,3.74,3.73
136.48,8.74,5.06,8.73,5.05,-5.05,-5.31,-5.40,3.69,3.68,3.68
137.84,8.68,5.06,8.69,5.07,-5.07,-5.34,-5.37,3.61,3.62,3.62
139.22,8.65,5.09,8.65,5.08,-5.08,-5.37,-5.33,3.57,3.57,3.56
140.61,8.60,5.09,8.61,5.09,-5.09,-5.39,-5.29,3.51,3.52,3.51
142.02,8.57,5.11,8.56,5.10,-5.10,-5.42,-5.25,3.48,3.47,3.46
143.44,8.51,5.10,8.52,5.10,-5.10,-5.44,-5.21,3.41,3.42,3.41
144.87,8.48,5.11,8.47,5.11,-5.11,-5.47,-5.16,3.38,3.37,3.37
146.32,8.43,5.11,8.43,5.11,-5.11,-5.49,-5.12,3.32,3.32,3.32
147.78,8.40,5.13,8.38,5.11,-5.11,-5.51,-5.08,3.29,3.27,3.27
149.26,8.35,5.13,8.34,5.12,-5.12,-5.53,-5.03,3.23,3.22,3.22
150.75,8.31,5.14,8.30,5.13,-5.13,-5.55,-4.99,3.18,3.17,3.17
152.26,8.26,5.13,8.26,5.14,-5.14,-5.56,-4.95,3.12,3.12,3.13
153.78,8.20,5.12,8.23,5.15,-5.15,-5.58,-4.91,3.05,3.08,3.08
155.32,8.19,5.16,8.20,5.17,-5.17,-5.59,-4.87,3.03,3.03,3.03
156.88,8.14,5.16,8.17,5.19,-5.19,-5.61,-4.83,2.95,2.98,2.98
158.44,8.14,5.21,8.15,5.21,-5.21,-5.62,-4.80,2.93,2.93,2.93
160.03,8.10,5.22,8.13,5.25,-5.25,-5.63,-4.77,2.86,2.88,2.88
161.63,8.10,5.27,8.12,5.29,-5.29,-5.63,-4.74,2.82,2.83,2.83
163.24,8.10,5.32,8.11,5.33,-5.33,-5.64,-4.71,2.77,2.78,2.78
164.88,8.10,5.37,8.11,5.38,-5.38,-5.65,-4.69,2.72,2.73,2.73
166.53,8.10,5.42,8.12,5.44,-5.44,-5.65,-4.67,2.67,2.68,2.68
168.19,8.10,5.47,8.12,5.49,-5.49,-5.65,-4.65,2.61,2.63,2.63
169.87,8.10,5.52,8.13,5.55,-5.55,-5.65,-4.64,2.56,2.58,2.58
171.57,8.10,5.57,8.13,5.60,-5.60,-5.65,-4.63,2.51,2.53,2.53
173.29,8.13,5.65,8.12,5.64,-5.64,-5.65,-4.62,2.49,2.48,2.48
175.02,8.14,5.71,8.11,5.68,-5.68,-5.65,-4.62,2.46,2.43,2.43
176.77,8.14,5.76,8.09,5.71,-5.71,-5.64,-4.62,2.43,2.38,2.38
178.54,8.13,5.80,8.06,5.73,-5.73,-5.63,-4.62,2.40,2.33,2.33
180.32,8.08,5.80,8.03,5.74,-5.74,-5.62,-4.63,2.34,2.28,2.28
182.13,8.02,5.79,7.98,5.75,-5.75,-5.61,-4.64,2.27,2.23,2.23
183.95,7.97,5.78,7.93,5.75,-5.75,-5.60,-4.66,2.22,2.19,2.19
185.79,7.87,5.73,7.88,5.74,-5.74,-5.59,-4.68,2.13,2.14,2.14
187.65,7.79,5.70,7.82,5.73,-5.73,-5.57,-4.70,2.06,2.09,2.09
189.52,7.71,5.67,7.76,5.71,-5.71,-5.56,-4.72,2.00,2.04,2.04
191.42,7.65,5.65,7.69,5.69,-5.69,-5.54,-4.75,1.96,2.00,2.00
193.33,7.58,5.63,7.62,5.67,-5.67,-5.52,-4.78,1.91,1.95,1.95
195.27,7.52,5.61,7.56,5.65,-5.65,-5.50,-4.81,1.87,1.91,1.91
197.22,7.47,5.61,7.49,5.62,-5.62,-5.48,-4.85,1.85,1.87,1.86
199.19,7.42,5.60,7.43,5.60,-5.60,-5.45,-4.89,1.82,1.83,1.82
201.18,7.37,5.59,7.36,5.58,-5.58,-5.43,-4.93,1.79,1.79,1.78
203.19,7.33,5.59,7.30,5.56,-5.56,-5.40,-4.97,1.77,1.75,1.74
205.23,7.27,5.56,7.24,5.54,-5.54,-5.37,-5.02,1.74,1.71,1.71
207.28,7.20,5.53,7.19,5.52,-5.52,-5.34,-5.06,1.69,1.67,1.67
209.35,7.12,5.49,7.13,5.49,-5.49,-5.31,-5.11,1.63,1.63,1.63
211.44,7.07,5.47,7.07,5.46,-5.46,-5.28,-5.15,1.61,1.60,1.60
213.56,7.00,5.43,7.00,5.43,-5.43,-5.25,-5.20,1.57,1.57,1.57
215.69,6.93,5.39,6.94,5.40,-5.40,-5.22,-5.25,1.53,1.54,1.54
217.85,6.86,5.35,6.87,5.37,-5.37,-5.18,-5.29,1.49,1.50,1.51
220.03,6.80,5.33,6.81,5.33,-5.33,-5.14,-5.33,1.47,1.47,1.47
222.23,6.73,5.29,6.74,5.29,-5.29,-5.11,-5.38,1.44,1.45,1.44
224.45,6.67,5.26,6.67,5.25,-5.25,-5.07,-5.41,1.42,1.42,1.41
226.70,6.61,5.22,6.61,5.21,-5.21,-5.03,-5.45,1.40,1.39,1.39
228.96,6.54,5.17,6.54,5.17,-5.17,-4.99,-5.48,1.37,1.37,1.37
231.25,6.48,5.14,6.48,5.14,-5.14,-4.95,-5.51,1.35,1.34,1.34
233.57,6.40,5.08,6.42,5.10,-5.10,-4.90,-5.53,1.31,1.32,1.32
235.90,6.35,5.06,6.35,5.06,-5.06,-4.86,-5.54,1.30,1.30,1.29
238.26,6.29,5.02,6.29,5.02,-5.02,-4.82,-5.55,1.28,1.28,1.27
240.64,6.22,4.96,6.23,4.97,-4.97,-4.77,-5.56,1.25,1.26,1.26
243.05,6.16,4.92,6.17,4.93,-4.93,-4.73,-5.56,1.23,1.24,1.24
245.48,6.10,4.88,6.11,4.88,-4.88,-4.68,-5.54,1.22,1.22,1.22
247.93,6.04,4.84,6.05,4.84,-4.84,-4.63,-5.53,1.20,1.21,1.20
250.41,5.98,4.79,5.98,4.79,-4.79,-4.58,-5.50,1.19,1.19,1.19
252.92,5.93,4.75,5.92,4.74,-4.74,-4.53,-5.47,1.19,1.18,1.18
255.45,5.87,4.71,5.86,4.69,-4.69,-4.48,-5.43,1.18,1.16,1.16
258.00,5.79,4.64,5.79,4.64,-4.64,-4.43,-5.38,1.15,1.15,1.15
260.58,5.73,4.59,5.73,4.59,-4.59,-4.38,-5.33,1.14,1.14,1.14
263.19,5.66,4.53,5.66,4.53,-4.53,-4.33,-5.27,1.13,1.13,1.13
265.82,5.60,4.48,5.60,4.48,-4.48,-4.28,-5.20,1.12,1.12,1.12
268.48,5.53,4.42,5.53,4.42,-4.42,-4.23,-5.12,1.11,1.11,1.11
271.16,5.46,4.36,5.46,4.36,-4.36,-4.18,-5.04,1.10,1.10,1.10
273.87,5.39,4.30,5.39,4.30,-4.30,-4.12,-4.96,1.09,1.09,1.09
276.61,5.31,4.23,5.33,4.24,-4.24,-4.07,-4.87,1.07,1.09,1.08
279.38,5.26,4.19,5.26,4.18,-4.18,-4.01,-4.77,1.08,1.08,1.07
282.17,5.18,4.11,5.19,4.12,-4.12,-3.96,-4.67,1.06,1.07,1.07
284.99,5.12,4.05,5.13,4.06,-4.06,-3.90,-4.57,1.06,1.07,1.07
287.84,5.06,3.99,5.06,4.00,-4.00,-3.85,-4.47,1.06,1.07,1.07
290.72,5.00,3.94,5.00,3.94,-3.94,-3.79,-4.36,1.07,1.06,1.06
293.63,4.94,3.88,4.94,3.88,-3.88,-3.74,-4.25,1.07,1.06,1.06
296.57,4.87,3.81,4.87,3.81,-3.81,-3.68,-4.14,1.06,1.06,1.06
299.53,4.81,3.75,4.81,3.75,-3.75,-3.62,-4.03,1.06,1.06,1.06
302.53,4.75,3.69,4.75,3.69,-3.69,-3.57,-3.92,1.06,1.06,1.06
305.55,4.70,3.64,4.69,3.63,-3.63,-3.51,-3.81,1.07,1.06,1.06
308.61,4.62,3.56,4.63,3.57,-3.57,-3.45,-3.70,1.05,1.06,1.06
311.69,4.56,3.50,4.57,3.51,-3.51,-3.39,-3.59,1.06,1.06,1.06
314.81,4.50,3.44,4.51,3.45,-3.45,-3.34,-3.48,1.06,1.06,1.06
317.96,4.44,3.38,4.44,3.38,-3.38,-3.28,-3.37,1.06,1.06,1.06
321.14,4.38,3.32,4.38,3.32,-3.32,-3.22,-3.26,1.06,1.06,1.06
324.35,4.31,3.25,4.32,3.25,-3.25,-3.16,-3.15,1.06,1.06,1.06
327.59,4.25,3.18,4.26,3.19,-3.19,-3.10,-3.05,1.06,1.07,1.07
330.87,4.19,3.12,4.19,3.12,-3.12,-3.04,-2.94,1.07,1.07,1.07
334.18,4.13,3.06,4.13,3.05,-3.05,-2.98,-2.84,1.08,1.07,1.07
337.52,4.06,2.99,4.06,2.98,-2.98,-2.92,-2.74,1.08,1.08,1.07
340.90,4.00,2.92,3.99,2.91,-2.91,-2.86,-2.64,1.09,1.08,1.08
344.30,3.93,2.85,3.92,2.84,-2.84,-2.80,-2.54,1.10,1.08,1.08
347.75,3.85,2.76,3.85,2.76,-2.76,-2.74,-2.45,1.09,1.09,1.09
351.23,3.77,2.68,3.78,2.69,-2.69,-2.68,-2.35,1.09,1.09,1.09
354.74,3.72,2.62,3.71,2.61,-2.61,-2.62,-2.26,1.11,1.10,1.10
358.28,3.62,2.52,3.63,2.53,-2.53,-2.56,-2.17,1.09,1.10,1.10
361.87,3.56,2.45,3.56,2.45,-2.45,-2.50,-2.08,1.11,1.11,1.11
365.49,3.47,2.35,3.48,2.37,-2.37,-2.44,-1.99,1.10,1.12,1.12
369.14,3.41,2.29,3.41,2.29,-2.29,-2.38,-1.91,1.12,1.12,1.12
372.83,3.33,2.20,3.33,2.21,-2.21,-2.32,-1.82,1.13,1.13,1.13
376.56,3.25,2.12,3.26,2.13,-2.13,-2.26,-1.74,1.13,1.13,1.13
380.33,3.20,2.06,3.19,2.05,-2.05,-2.19,-1.66,1.16,1.14,1.14
384.13,3.12,1.98,3.12,1.97,-1.97,-2.13,-1.58,1.15,1.15,1.14
387.97,3.04,1.89,3.05,1.89,-1.89,-2.07,-1.50,1.15,1.15,1.15
391.85,2.97,1.81,2.98,1.82,-1.82,-2.01,-1.43,1.15,1.16,1.16
395.77,2.90,1.74,2.91,1.75,-1.75,-1.95,-1.35,1.16,1.16,1.16
399.73,2.83,1.66,2.85,1.67,-1.67,-1.88,-1.28,1.16,1.17,1.17
403.72,2.76,1.58,2.78,1.60,-1.60,-1.82,-1.21,1.16,1.18,1.18
407.76,2.71,1.53,2.72,1.53,-1.53,-1.76,-1.14,1.18,1.18,1.18
411.84,2.66,1.47,2.65,1.46,-1.46,-1.69,-1.07,1.20,1.19,1.19
415.96,2.59,1.39,2.59,1.39,-1.39,-1.63,-1.00,1.20,1.20,1.20
420.12,2.52,1.32,2.53,1.32,-1.32,-1.57,-0.93,1.20,1.20,1.20
424.32,2.48,1.27,2.46,1.25,-1.25,-1.50,-0.87,1.23,1.21,1.21
428.56,2.41,1.19,2.40,1.18,-1.18,-1.44,-0.80,1.23,1.22,1.22
432.85,2.34,1.11,2.34,1.11,-1.11,-1.37,-0.74,1.23,1.23,1.23
437.18,2.27,1.04,2.27,1.04,-1.04,-1.31,-0.68,1.23,1.24,1.23
441.55,2.20,0.96,2.21,0.97,-0.97,-1.24,-0.62,1.23,1.24,1.24
445.96,2.15,0.90,2.15,0.90,-0.90,-1.17,-0.56,1.26,1.25,1.25
450.42,2.09,0.83,2.09,0.83,-0.83,-1.11,-0.50,1.27,1.26,1.26
454.93,2.01,0.74,2.03,0.76,-0.76,-1.04,-0.44,1.26,1.27,1.27
459.48,1.96,0.68,1.97,0.69,-0.69,-0.97,-0.39,1.28,1.28,1.28
464.07,1.90,0.61,1.91,0.62,-0.62,-0.90,-0.33,1.29,1.29,1.29
468.71,1.82,0.52,1.85,0.55,-0.55,-0.84,-0.28,1.28,1.30,1.30
473.40,1.78,0.47,1.79,0.48,-0.48,-0.77,-0.23,1.31,1.31,1.31
478.13,1.73,0.41,1.73,0.41,-0.41,-0.70,-0.18,1.33,1.32,1.32
482.91,1.68,0.35,1.67,0.34,-0.34,-0.63,-0.13,1.34,1.33,1.33
487.74,1.62,0.28,1.61,0.27,-0.27,-0.56,-0.08,1.35,1.34,1.34
492.62,1.56,0.21,1.55,0.20,-0.20,-0.49,-0.03,1.36,1.35,1.35
497.55,1.50,0.14,1.49,0.13,-0.13,-0.41,0.02,1.37,1.36,1.36
502.52,1.45,0.08,1.44,0.06,-0.06,-0.34,0.06,1.39,1.37,1.37
507.55,1.37,-0.02,1.38,-0.00,0.00,-0.27,0.11,1.38,1.39,1.39
