frequency,raw,error,smoothed,error_smoothed,equalization,parametric_eq,fixed_band_eq,equalized_raw,equalized_smoothed,target
20.00,-0.11,-6.87,-0.11,-6.87,6.88,6.53,2.28,6.77,6.77,6.76
20.20,-0.08,-6.84,-0.08,-6.84,6.85,6.50,2.35,6.76,6.76,6.76
20.40,-0.05,-6.81,-0.05,-6.81,6.80,6.48,2.42,6.75,6.75,6.76
20.61,-0.02,-6.78,-0.02,-6.77,6.76,6.45,2.49,6.74,6.74,6.76
20.81,0.03,-6.72,0.03,-6.72,6.71,6.42,2.57,6.74,6.74,6.75
21.02,0.08,-6.67,0.08,-6.67,6.66,6.39,2.65,6.74,6.74,6.75
21.23,0.13,-6.62,0.13,-6.61,6.60,6.36,2.73,6.73,6.74,6.75
21.44,0.20,-6.56,0.20,-6.55,6.54,6.33,2.81,6.74,6.74,6.76
21.66,0.27,-6.48,0.27,-6.48,6.47,6.30,2.89,6.74,6.74,6.75
21.87,0.35,-6.40,0.35,-6.40,6.40,6.26,2.98,6.75,6.75,6.75
22.09,0.42,-6.32,0.42,-6.32,6.33,6.23,3.06,6.75,6.75,6.74
22.31,0.49,-6.25,0.49,-6.24,6.25,6.20,3.16,6.74,6.74,6.74
22.54,0.56,-6.17,0.56,-6.17,6.18,6.16,3.25,6.74,6.73,6.73
22.76,0.62,-6.11,0.62,-6.11,6.11,6.13,3.34,6.73,6.73,6.73
22.99,0.67,-6.05,0.67,-6.04,6.04,6.09,3.44,6.71,6.72,6.72
23.22,0.73,-5.98,0.73,-5.98,5.98,6.06,3.54,6.71,6.71,6.71
23.45,0.78,-5.93,0.78,-5.92,5.92,6.02,3.64,6.70,6.70,6.71
23.69,0.83,-5.87,0.83,-5.87,5.87,5.98,3.75,6.70,6.70,6.70
23.92,0.87,-5.82,0.87,-5.82,5.82,5.95,3.86,6.69,6.70,6.69
24.16,0.92,-5.77,0.91,-5.77,5.78,5.91,3.96,6.70,6.69,6.69
24.40,0.95,-5.74,0.95,-5.73,5.73,5.87,4.07,6.68,6.68,6.69
24.65,0.99,-5.70,0.99,-5.70,5.69,5.83,4.19,6.68,6.68,6.69
24.89,1.03,-5.66,1.03,-5.65,5.65,5.79,4.30,6.68,6.67,6.69
25.14,1.07,-5.61,1.07,-5.61,5.60,5.75,4.41,6.67,6.67,6.68
25.39,1.11,-5.56,1.11,-5.56,5.56,5.71,4.53,6.67,6.67,6.67
25.65,1.15,-5.52,1.15,-5.51,5.52,5.67,4.64,6.67,6.67,6.67
25.91,1.20,-5.47,1.19,-5.47,5.48,5.62,4.76,6.67,6.67,6.67
26.16,1.24,-5.44,1.24,-5.44,5.43,5.58,4.87,6.67,6.67,6.68
26.43,1.28,-5.40,1.28,-5.39,5.39,5.54,4.98,6.67,6.67,6.68
26.69,1.33,-5.35,1.33,-5.35,5.34,5.50,5.10,6.67,6.67,6.68
26.96,1.37,-5.30,1.37,-5.30,5.30,5.45,5.21,6.67,6.67,6.67
27.23,1.42,-5.25,1.42,-5.25,5.26,5.41,5.31,6.67,6.67,6.67
27.50,1.46,-5.21,1.46,-5.21,5.21,5.36,5.42,6.67,6.67,6.67
27.77,1.50,-5.18,1.50,-5.17,5.17,5.32,5.52,6.67,6.67,6.68
28.05,1.55,-5.12,1.54,-5.12,5.12,5.27,5.61,6.67,6.66,6.67
28.33,1.58,-5.08,1.58,-5.08,5.08,5.23,5.70,6.66,6.66,6.66
28.62,1.62,-5.03,1.62,-5.03,5.03,5.18,5.79,6.65,6.65,6.65
28.90,1.66,-5.00,1.66,-4.99,4.99,5.13,5.86,6.65,6.65,6.66
29.19,1.70,-4.95,1.70,-4.95,4.95,5.09,5.93,6.65,6.64,6.65
29.48,1.73,-4.91,1.73,-4.91,4.90,5.04,6.00,6.63,6.64,6.64
29.78,1.77,-4.86,1.77,-4.86,4.86,4.99,6.05,6.63,6.63,6.63
30.08,1.81,-4.82,1.80,-4.82,4.82,4.94,6.09,6.63,6.62,6.63
30.38,1.84,-4.78,1.84,-4.78,4.78,4.90,6.12,6.62,6.62,6.62
30.68,1.87,-4.74,1.87,-4.74,4.74,4.85,6.15,6.61,6.61,6.61
30.99,1.91,-4.70,1.91,-4.70,4.70,4.80,6.16,6.61,6.61,6.61
31.30,1.94,-4.67,1.94,-4.66,4.66,4.75,6.16,6.60,6.60,6.61
31.61,1.98,-4.63,1.98,-4.63,4.63,4.70,6.15,6.61,6.60,6.61
31.93,2.01,-4.59,2.01,-4.59,4.59,4.65,6.13,6.60,6.60,6.60
32.24,2.05,-4.56,2.05,-4.55,4.55,4.60,6.10,6.60,6.60,6.61
32.57,2.08,-4.52,2.08,-4.52,4.52,4.55,6.06,6.60,6.60,6.60
32.89,2.12,-4.48,2.12,-4.48,4.48,4.50,6.02,6.60,6.60,6.60
33.22,2.16,-4.44,2.15,-4.44,4.44,4.45,5.96,6.60,6.59,6.60
33.55,2.18,-4.41,2.19,-4.40,4.40,4.40,5.89,6.58,6.58,6.59
33.89,2.22,-4.36,2.22,-4.36,4.36,4.35,5.82,6.58,6.58,6.58
34.23,2.25,-4.31,2.25,-4.31,4.32,4.29,5.73,6.56,6.57,6.56
34.57,2.29,-4.27,2.28,-4.27,4.27,4.24,5.65,6.56,6.55,6.56
34.92,2.31,-4.23,2.31,-4.23,4.23,4.19,5.55,6.53,6.54,6.54
35.27,2.34,-4.19,2.34,-4.18,4.18,4.14,5.45,6.52,6.52,6.53
35.62,2.37,-4.13,2.37,-4.13,4.13,4.09,5.35,6.50,6.50,6.50
35.97,2.40,-4.08,2.40,-4.08,4.07,4.03,5.24,6.47,6.47,6.48
36.33,2.43,-4.02,2.43,-4.02,4.02,3.98,5.14,6.45,6.45,6.45
36.70,2.45,-3.97,2.45,-3.96,3.96,3.93,5.02,6.41,6.42,6.42
37.06,2.48,-3.91,2.48,-3.91,3.91,3.87,4.91,6.39,6.39,6.39
37.43,2.51,-3.85,2.51,-3.85,3.85,3.82,4.80,6.36,6.35,6.36
37.81,2.54,-3.79,2.54,-3.79,3.79,3.77,4.68,6.33,6.32,6.33
38.19,2.56,-3.73,2.56,-3.73,3.73,3.71,4.57,6.29,6.29,6.29
38.57,2.59,-3.68,2.59,-3.67,3.67,3.66,4.45,6.26,6.26,6.27
38.95,2.62,-3.62,2.61,-3.62,3.62,3.61,4.34,6.24,6.23,6.24
39.34,2.64,-3.56,2.64,-3.56,3.56,3.55,4.23,6.20,6.21,6.20
39.74,2.66,-3.51,2.66,-3.51,3.51,3.50,4.11,6.17,6.17,6.17
40.14,2.69,-3.46,2.68,-3.46,3.46,3.44,4.00,6.15,6.14,6.15
40.54,2.70,-3.43,2.71,-3.41,3.41,3.39,3.89,6.11,6.12,6.13
40.94,2.74,-3.36,2.73,-3.36,3.36,3.34,3.79,6.10,6.09,6.10
41.35,2.76,-3.31,2.76,-3.31,3.31,3.28,3.68,6.07,6.07,6.07
41.76,2.78,-3.26,2.78,-3.26,3.26,3.23,3.58,6.04,6.05,6.04
42.18,2.81,-3.22,2.80,-3.22,3.22,3.17,3.48,6.03,6.02,6.03
42.60,2.82,-3.18,2.83,-3.17,3.17,3.12,3.38,5.99,6.00,6.00
43.03,2.85,-3.12,2.85,-3.12,3.12,3.06,3.28,5.97,5.97,5.97
43.46,2.87,-3.08,2.87,-3.08,3.08,3.01,3.19,5.95,5.95,5.95
43.90,2.89,-3.04,2.89,-3.03,3.04,2.95,3.10,5.93,5.92,5.93
44.33,2.90,-2.99,2.90,-2.99,2.99,2.90,3.01,5.89,5.89,5.89
44.78,2.92,-2.95,2.92,-2.95,2.95,2.84,2.92,5.87,5.87,5.87
45.23,2.94,-2.92,2.94,-2.90,2.90,2.79,2.83,5.84,5.84,5.86
45.68,2.96,-2.86,2.96,-2.86,2.85,2.73,2.75,5.81,5.81,5.82
46.13,2.98,-2.79,2.98,-2.80,2.80,2.68,2.67,5.78,5.78,5.77
46.60,3.00,-2.75,3.00,-2.74,2.75,2.62,2.59,5.75,5.75,5.75
47.06,3.02,-2.69,3.02,-2.69,2.69,2.57,2.52,5.71,5.71,5.71
47.53,3.03,-2.65,3.03,-2.64,2.63,2.51,2.44,5.66,5.67,5.68
48.01,3.05,-2.57,3.05,-2.58,2.57,2.46,2.37,5.62,5.62,5.62
48.49,3.07,-2.52,3.06,-2.52,2.51,2.40,2.30,5.58,5.58,5.59
48.97,3.08,-2.46,3.08,-2.45,2.45,2.34,2.23,5.53,5.54,5.54
49.46,3.10,-2.40,3.10,-2.39,2.39,2.29,2.17,5.49,5.49,5.50
49.96,3.12,-2.31,3.11,-2.32,2.33,2.23,2.10,5.44,5.44,5.43
50.46,3.12,-2.27,3.13,-2.26,2.26,2.18,2.04,5.38,5.39,5.39
50.96,3.14,-2.20,3.14,-2.20,2.20,2.12,1.98,5.34,5.34,5.34
51.47,3.16,-2.14,3.15,-2.14,2.14,2.07,1.92,5.30,5.30,5.30
51.99,3.17,-2.08,3.17,-2.08,2.08,2.01,1.86,5.25,5.25,5.25
52.51,3.19,-2.02,3.19,-2.03,2.02,1.95,1.80,5.21,5.21,5.21
53.03,3.20,-1.98,3.20,-1.97,1.96,1.90,1.75,5.16,5.16,5.18
53.56,3.21,-1.92,3.21,-1.91,1.90,1.84,1.70,5.11,5.12,5.13
54.10,3.23,-1.84,3.23,-1.85,1.85,1.79,1.64,5.07,5.07,5.07
54.64,3.24,-1.79,3.24,-1.78,1.79,1.73,1.59,5.03,5.02,5.03
55.18,3.25,-1.72,3.25,-1.72,1.73,1.68,1.54,4.98,4.98,4.97
55.74,3.26,-1.67,3.26,-1.67,1.67,1.62,1.49,4.93,4.93,4.93
56.29,3.27,-1.62,3.27,-1.61,1.61,1.56,1.44,4.88,4.88,4.89
56.86,3.28,-1.57,3.28,-1.56,1.56,1.51,1.39,4.84,4.84,4.85
57.42,3.29,-1.50,3.29,-1.50,1.51,1.45,1.34,4.80,4.80,4.79
58.00,3.30,-1.45,3.30,-1.45,1.46,1.40,1.29,4.76,4.76,4.75
58.58,3.31,-1.41,3.31,-1.41,1.41,1.34,1.25,4.72,4.71,4.72
59.16,3.31,-1.37,3.31,-1.36,1.35,1.28,1.20,4.66,4.66,4.68
59.76,3.32,-1.32,3.32,-1.31,1.29,1.23,1.15,4.61,4.61,4.64
60.35,3.33,-1.24,3.33,-1.24,1.23,1.17,1.10,4.56,4.56,4.57
60.96,3.35,-1.17,3.34,-1.17,1.16,1.12,1.06,4.51,4.50,4.52
61.57,3.35,-1.09,3.35,-1.09,1.09,1.06,1.01,4.44,4.45,4.44
62.18,3.36,-1.02,3.36,-1.02,1.02,1.00,0.96,4.38,4.38,4.38
62.80,3.37,-0.95,3.37,-0.94,0.95,0.95,0.91,4.32,4.32,4.32
63.43,3.38,-0.87,3.38,-0.87,0.88,0.89,0.86,4.26,4.26,4.25
64.07,3.39,-0.81,3.39,-0.81,0.81,0.83,0.82,4.20,4.20,4.20
64.71,3.40,-0.75,3.40,-0.75,0.75,0.78,0.77,4.15,4.15,4.15
65.35,3.40,-0.70,3.40,-0.69,0.69,0.72,0.72,4.09,4.09,4.10
66.01,3.41,-0.63,3.41,-0.63,0.63,0.67,0.67,4.04,4.04,4.04
66.67,3.42,-0.58,3.41,-0.58,0.57,0.61,0.62,3.99,3.98,4.00
67.33,3.41,-0.52,3.42,-0.51,0.51,0.55,0.57,3.92,3.93,3.93
68.01,3.42,-0.46,3.42,-0.46,0.46,0.50,0.52,3.87,3.87,3.88
68.69,3.43,-0.39,3.42,-0.39,0.40,0.44,0.47,3.83,3.82,3.82
69.37,3.43,-0.34,3.43,-0.34,0.33,0.38,0.41,3.76,3.77,3.77
70.07,3.44,-0.28,3.44,-0.28,0.27,0.33,0.36,3.71,3.71,3.72
70.77,3.44,-0.22,3.44,-0.21,0.21,0.27,0.31,3.65,3.65,3.66
71.48,3.45,-0.15,3.44,-0.15,0.15,0.21,0.26,3.60,3.59,3.60
72.19,3.44,-0.09,3.45,-0.09,0.09,0.16,0.20,3.53,3.53,3.53
72.91,3.45,-0.03,3.45,-0.02,0.03,0.10,0.15,3.47,3.47,3.48
73.64,3.45,0.04,3.45,0.04,-0.03,0.04,0.10,3.41,3.41,3.41
74.38,3.45,0.10,3.45,0.10,-0.09,-0.02,0.04,3.35,3.35,3.35
75.12,3.45,0.15,3.45,0.15,-0.15,-0.07,-0.01,3.30,3.30,3.30
75.87,3.45,0.19,3.45,0.20,-0.21,-0.13,-0.07,3.24,3.24,3.26
76.63,3.46,0.26,3.46,0.26,-0.26,-0.19,-0.13,3.20,3.19,3.20
77.40,3.46,0.32,3.46,0.32,-0.31,-0.24,-0.18,3.14,3.14,3.14
78.17,3.46,0.38,3.46,0.37,-0.37,-0.30,-0.24,3.09,3.09,3.08
78.95,3.45,0.40,3.45,0.42,-0.42,-0.36,-0.30,3.03,3.04,3.05
79.74,3.45,0.46,3.45,0.47,-0.47,-0.42,-0.36,2.98,2.98,2.99
80.54,3.45,0.52,3.45,0.51,-0.52,-0.47,-0.42,2.93,2.93,2.93
81.35,3.45,0.56,3.45,0.57,-0.57,-0.53,-0.48,2.88,2.88,2.89
82.16,3.45,0.61,3.45,0.62,-0.62,-0.59,-0.54,2.83,2.83,2.84
82.98,3.45,0.67,3.45,0.67,-0.67,-0.65,-0.60,2.78,2.78,2.78
83.81,3.45,0.72,3.45,0.72,-0.72,-0.71,-0.66,2.73,2.73,2.73
84.65,3.45,0.78,3.45,0.78,-0.77,-0.76,-0.72,2.68,2.67,2.67
85.50,3.44,0.82,3.45,0.83,-0.83,-0.82,-0.78,2.61,2.62,2.62
86.35,3.45,0.88,3.44,0.88,-0.88,-0.88,-0.85,2.57,2.57,2.57
87.22,3.44,0.92,3.44,0.93,-0.93,-0.94,-0.91,2.51,2.51,2.52
88.09,3.44,0.98,3.44,0.98,-0.98,-1.00,-0.98,2.46,2.46,2.46
88.97,3.43,1.02,3.43,1.03,-1.03,-1.05,-1.05,2.40,2.40,2.41
89.86,3.43,1.08,3.43,1.08,-1.08,-1.11,-1.11,2.35,2.35,2.35
90.76,3.43,1.14,3.43,1.14,-1.13,-1.17,-1.18,2.30,2.29,2.29
91.66,3.42,1.18,3.42,1.19,-1.19,-1.23,-1.25,2.23,2.24,2.24
92.58,3.42,1.24,3.42,1.24,-1.24,-1.29,-1.32,2.18,2.18,2.18
93.51,3.41,1.29,3.41,1.29,-1.30,-1.34,-1.39,2.11,2.11,2.12
94.44,3.41,1.35,3.41,1.35,-1.36,-1.40,-1.46,2.05,2.05,2.06
95.39,3.40,1.41,3.40,1.41,-1.42,-1.46,-1.53,1.98,1.98,1.99
96.34,3.39,1.47,3.39,1.48,-1.48,-1.52,-1.60,1.91,1.92,1.92
97.30,3.39,1.53,3.39,1.54,-1.54,-1.57,-1.68,1.85,1.85,1.86
98.28,3.39,1.62,3.38,1.61,-1.60,-1.63,-1.75,1.78,1.78,1.77
99.26,3.37,1.67,3.38,1.68,-1.67,-1.69,-1.83,1.70,1.71,1.70
100.25,3.37,1.73,3.37,1.73,-1.73,-1.74,-1.90,1.64,1.64,1.64
101.25,3.36,1.78,3.36,1.78,-1.78,-1.80,-1.97,1.57,1.57,1.58
102.27,3.35,1.83,3.35,1.84,-1.84,-1.86,-2.05,1.51,1.51,1.52
103.29,3.35,1.90,3.35,1.89,-1.89,-1.91,-2.12,1.45,1.45,1.45
104.32,3.34,1.94,3.34,1.94,-1.95,-1.97,-2.20,1.39,1.39,1.40
105.37,3.33,1.99,3.33,2.00,-2.00,-2.03,-2.27,1.33,1.33,1.34
106.42,3.32,2.04,3.32,2.05,-2.05,-2.08,-2.35,1.27,1.27,1.28
107.48,3.32,2.11,3.32,2.10,-2.10,-2.14,-2.42,1.22,1.22,1.21
108.56,3.31,2.15,3.31,2.15,-2.15,-2.19,-2.49,1.16,1.16,1.16
109.64,3.30,2.19,3.30,2.20,-2.20,-2.24,-2.56,1.10,1.10,1.11
110.74,3.28,2.24,3.29,2.25,-2.25,-2.30,-2.63,1.03,1.04,1.04
111.85,3.28,2.30,3.28,2.30,-2.30,-2.35,-2.70,0.98,0.98,0.98
112.97,3.27,2.35,3.27,2.35,-2.35,-2.40,-2.76,0.92,0.91,0.92
114.10,3.26,2.40,3.26,2.41,-2.41,-2.46,-2.83,0.85,0.85,0.86
115.24,3.24,2.45,3.25,2.46,-2.47,-2.51,-2.89,0.77,0.78,0.79
116.39,3.24,2.53,3.24,2.52,-2.52,-2.56,-2.95,0.72,0.71,0.71
117.55,3.23,2.58,3.23,2.59,-2.58,-2.61,-3.00,0.65,0.64,0.65
118.73,3.22,2.65,3.22,2.65,-2.64,-2.66,-3.05,0.58,0.58,0.57
119.92,3.20,2.70,3.20,2.70,-2.70,-2.71,-3.10,0.50,0.50,0.50
121.12,3.19,2.75,3.19,2.76,-2.76,-2.76,-3.15,0.43,0.43,0.44
122.33,3.18,2.82,3.18,2.82,-2.82,-2.81,-3.19,0.36,0.36,0.36
123.55,3.17,2.87,3.17,2.87,-2.88,-2.86,-3.22,0.29,0.29,0.30
124.79,3.16,2.93,3.15,2.93,-2.94,-2.91,-3.26,0.22,0.22,0.23
126.03,3.14,2.98,3.14,2.99,-3.00,-2.95,-3.29,0.14,0.14,0.16
127.29,3.13,3.06,3.13,3.06,-3.06,-3.00,-3.32,0.07,0.07,0.07
128.57,3.13,3.13,3.12,3.13,-3.13,-3.05,-3.34,0.00,-0.00,-0.00
129.85,3.11,3.19,3.11,3.20,-3.19,-3.09,-3.36,-0.08,-0.07,-0.08
131.15,3.10,3.25,3.10,3.25,-3.24,-3.14,-3.38,-0.14,-0.15,-0.15
132.46,3.08,3.30,3.08,3.30,-3.30,-3.18,-3.39,-0.22,-0.22,-0.22
133.79,3.06,3.34,3.06,3.35,-3.35,-3.23,-3.40,-0.29,-0.29,-0.28
135.12,3.05,3.40,3.05,3.39,-3.39,-3.27,-3.41,-0.34,-0.35,-0.35
136.48,3.03,3.42,3.03,3.43,-3.44,-3.31,-3.41,-0.41,-0.40,-0.39
137.84,3.02,3.47,3.02,3.47,-3.48,-3.36,-3.42,-0.46,-0.46,-0.45
139.22,3.00,3.52,3.00,3.51,-3.51,-3.40,-3.42,-0.51,-0.51,-0.52
140.61,2.98,3.54,2.98,3.55,-3.55,-3.44,-3.42,-0.57,-0.57,-0.56
142.02,2.97,3.58,2.96,3.58,-3.58,-3.48,-3.42,-0.61,-0.62,-0.61
143.44,2.95,3.62,2.95,3.62,-3.62,-3.52,-3.42,-0.67,-0.67,-0.67
144.87,2.93,3.64,2.93,3.65,-3.65,-3.57,-3.42,-0.72,-0.72,-0.71
146.32,2.92,3.68,2.92,3.68,-3.68,-3.61,-3.42,-0.76,-0.76,-0.76
147.78,2.90,3.71,2.90,3.71,-3.71,-3.65,-3.42,-0.81,-0.81,-0.81
149.26,2.88,3.73,2.88,3.74,-3.74,-3.69,-3.41,-0.86,-0.86,-0.85
150.75,2.86,3.77,2.86,3.77,-3.77,-3.72,-3.41,-0.91,-0.91,-0.91
152.26,2.85,3.79,2.84,3.80,-3.79,-3.76,-3.41,-0.95,-0.95,-0.94
153.78,2.82,3.82,2.82,3.82,-3.82,-3.80,-3.42,-1.00,-1.00,-1.00
155.32,2.81,3.85,2.80,3.85,-3.85,-3.84,-3.42,-1.04,-1.05,-1.04
156.88,2.78,3.87,2.79,3.88,-3.88,-3.88,-3.42,-1.10,-1.10,-1.09
158.44,2.77,3.91,2.77,3.91,-3.91,-3.91,-3.43,-1.14,-1.15,-1.14
160.03,2.75,3.94,2.74,3.94,-3.94,-3.95,-3.44,-1.19,-1.20,-1.19
161.63,2.72,3.96,2.73,3.98,-3.98,-3.99,-3.45,-1.26,-1.25,-1.24
163.24,2.71,4.02,2.71,4.01,-4.01,-4.02,-3.46,-1.30,-1.30,-1.31
164.88,2.69,4.04,2.69,4.05,-4.04,-4.06,-3.48,-1.35,-1.35,-1.35
166.53,2.67,4.08,2.67,4.07,-4.07,-4.09,-3.50,-1.40,-1.41,-1.41
168.19,2.64,4.09,2.64,4.10,-4.10,-4.12,-3.52,-1.46,-1.46,-1.45
169.87,2.62,4.12,2.62,4.13,-4.13,-4.16,-3.54,-1.52,-1.51,-1.50
171.57,2.60,4.17,2.60,4.16,-4.16,-4.19,-3.56,-1.57,-1.57,-1.57
173.29,2.58,4.20,2.58,4.20,-4.19,-4.22,-3.59,-1.61,-1.62,-1.62
175.02,2.55,4.21,2.55,4.22,-4.22,-4.25,-3.62,-1.67,-1.67,-1.66
176.77,2.53,4.24,2.53,4.25,-4.25,-4.29,-3.66,-1.72,-1.71,-1.71
178.54,2.51,4.27,2.51,4.27,-4.27,-4.32,-3.70,-1.76,-1.77,-1.76
180.32,2.49,4.31,2.48,4.30,-4.30,-4.35,-3.74,-1.81,-1.81,-1.82
182.13,2.45,4.31,2.46,4.32,-4.32,-4.38,-3.78,-1.87,-1.86,-1.86
183.95,2.43,4.33,2.43,4.34,-4.34,-4.40,-3.82,-1.91,-1.91,-1.90
185.79,2.41,4.37,2.40,4.36,-4.37,-4.43,-3.87,-1.96,-1.96,-1.96
187.65,2.38,4.38,2.38,4.39,-4.39,-4.46,-3.92,-2.01,-2.01,-2.00
189.52,2.35,4.40,2.35,4.41,-4.41,-4.49,-3.98,-2.06,-2.06,-2.05
191.42,2.33,4.43,2.32,4.43,-4.43,-4.51,-4.03,-2.10,-2.11,-2.10
193.33,2.30,4.45,2.30,4.45,-4.45,-4.54,-4.09,-2.15,-2.15,-2.15
195.27,2.27,4.47,2.27,4.48,-4.47,-4.56,-4.15,-2.20,-2.20,-2.20
197.22,2.25,4.50,2.24,4.49,-4.49,-4.58,-4.22,-2.24,-2.24,-2.25
199.19,2.22,4.50,2.22,4.51,-4.51,-4.61,-4.28,-2.29,-2.29,-2.28
201.18,2.19,4.52,2.19,4.52,-4.52,-4.63,-4.35,-2.33,-2.33,-2.33
203.19,2.17,4.53,2.17,4.53,-4.53,-4.65,-4.42,-2.36,-2.37,-2.36
205.23,2.14,4.54,2.14,4.54,-4.55,-4.67,-4.48,-2.41,-2.41,-2.40
207.28,2.12,4.55,2.12,4.55,-4.56,-4.69,-4.55,-2.44,-2.44,-2.43
209.35,2.09,4.56,2.09,4.57,-4.57,-4.71,-4.63,-2.48,-2.48,-2.47
211.44,2.07,4.58,2.07,4.58,-4.58,-4.72,-4.70,-2.51,-2.51,-2.51
213.56,2.05,4.60,2.05,4.60,-4.60,-4.74,-4.77,-2.55,-2.55,-2.55
215.69,2.03,4.61,2.03,4.61,-4.61,-4.76,-4.84,-2.58,-2.58,-2.58
217.85,2.01,4.62,2.01,4.62,-4.62,-4.77,-4.90,-2.61,-2.61,-2.61
220.03,1.98,4.63,1.98,4.63,-4.63,-4.78,-4.97,-2.65,-2.65,-2.65
222.23,1.96,4.63,1.96,4.64,-4.64,-4.80,-5.04,-2.68,-2.68,-2.67
224.45,1.94,4.64,1.94,4.64,-4.65,-4.81,-5.10,-2.71,-2.71,-2.70
226.70,1.92,4.65,1.92,4.65,-4.66,-4.82,-5.16,-2.74,-2.73,-2.73
228.96,1.91,4.66,1.91,4.66,-4.66,-4.83,-5.21,-2.76,-2.76,-2.75
231.25,1.90,4.67,1.89,4.67,-4.67,-4.84,-5.26,-2.78,-2.78,-2.77
233.57,1.88,4.68,1.88,4.69,-4.69,-4.85,-5.31,-2.81,-2.80,-2.80
235.90,1.87,4.70,1.87,4.70,-4.70,-4.85,-5.35,-2.83,-2.83,-2.83
238.26,1.86,4.72,1.86,4.71,-4.71,-4.86,-5.38,-2.85,-2.85,-2.86
240.64,1.85,4.71,1.85,4.72,-4.73,-4.86,-5.41,-2.88,-2.87,-2.86
243.05,1.85,4.73,1.85,4.74,-4.74,-4.87,-5.44,-2.89,-2.89,-2.88
245.48,1.84,4.75,1.84,4.75,-4.75,-4.87,-5.45,-2.91,-2.91,-2.91
247.93,1.84,4.77,1.84,4.77,-4.76,-4.87,-5.46,-2.92,-2.92,-2.93
250.41,1.84,4.77,1.84,4.77,-4.77,-4.87,-5.46,-2.93,-2.93,-2.93
252.92,1.83,4.77,1.83,4.78,-4.78,-4.87,-5.46,-2.95,-2.95,-2.94
255.45,1.83,4.79,1.83,4.78,-4.79,-4.87,-5.45,-2.96,-2.96,-2.96
258.00,1.82,4.79,1.82,4.80,-4.80,-4.87,-5.43,-2.98,-2.98,-2.97
260.58,1.82,4.80,1.82,4.81,-4.81,-4.87,-5.41,-2.99,-2.99,-2.98
263.19,1.82,4.82,1.82,4.82,-4.82,-4.86,-5.38,-3.00,-3.00,-3.00
265.82,1.82,4.83,1.82,4.83,-4.83,-4.86,-5.34,-3.01,-3.01,-3.01
268.48,1.81,4.83,1.81,4.84,-4.84,-4.85,-5.30,-3.03,-3.03,-3.02
271.16,1.81,4.85,1.81,4.85,-4.85,-4.84,-5.25,-3.04,-3.04,-3.04
273.87,1.80,4.85,1.80,4.86,-4.86,-4.83,-5.20,-3.06,-3.06,-3.05
276.61,1.79,4.86,1.79,4.87,-4.86,-4.83,-5.15,-3.07,-3.07,-3.07
279.38,1.78,4.87,1.78,4.87,-4.86,-4.82,-5.09,-3.08,-3.08,-3.09
282.17,1.77,4.87,1.77,4.86,-4.86,-4.80,-5.03,-3.09,-3.10,-3.10
284.99,1.75,4.84,1.75,4.86,-4.86,-4.79,-4.96,-3.11,-3.11,-3.09
287.84,1.74,4.84,1.74,4.85,-4.85,-4.78,-4.89,-3.12,-3.11,-3.10
290.72,1.73,4.86,1.73,4.84,-4.85,-4.77,-4.83,-3.12,-3.12,-3.13
293.63,1.71,4.83,1.71,4.84,-4.83,-4.75,-4.76,-3.12,-3.12,-3.12
296.57,1.69,4.82,1.69,4.82,-4.82,-4.73,-4.69,-3.13,-3.13,-3.13
299.53,1.66,4.80,1.66,4.80,-4.80,-4.72,-4.62,-3.14,-3.14,-3.14
302.53,1.64,4.78,1.64,4.78,-4.79,-4.70,-4.55,-3.15,-3.15,-3.14
305.55,1.61,4.76,1.61,4.76,-4.77,-4.68,-4.48,-3.16,-3.16,-3.15
308.61,1.58,4.73,1.58,4.74,-4.74,-4.66,-4.41,-3.16,-3.16,-3.15
311.69,1.56,4.72,1.56,4.72,-4.72,-4.64,-4.34,-3.16,-3.16,-3.16
314.81,1.54,4.70,1.53,4.70,-4.69,-4.62,-4.28,-3.16,-3.16,-3.16
317.96,1.50,4.67,1.51,4.68,-4.67,-4.60,-4.22,-3.17,-3.16,-3.17
321.14,1.48,4.64,1.47,4.65,-4.64,-4.58,-4.15,-3.16,-3.17,-3.16
324.35,1.44,4.62,1.44,4.61,-4.62,-4.55,-4.09,-3.18,-3.18,-3.18
327.59,1.41,4.57,1.41,4.58,-4.59,-4.53,-4.04,-3.18,-3.18,-3.16
330.87,1.38,4.55,1.38,4.55,-4.56,-4.51,-3.98,-3.18,-3.18,-3.17
334.18,1.35,4.53,1.35,4.53,-4.52,-4.48,-3.93,-3.18,-3.17,-3.18
337.52,1.32,4.49,1.32,4.50,-4.49,-4.45,-3.88,-3.17,-3.17,-3.17
340.90,1.29,4.47,1.29,4.46,-4.46,-4.43,-3.83,-3.17,-3.17,-3.18
344.30,1.25,4.42,1.25,4.43,-4.43,-4.40,-3.79,-3.18,-3.18,-3.17
347.75,1.22,4.38,1.22,4.39,-4.40,-4.37,-3.75,-3.18,-3.18,-3.16
351.23,1.19,4.37,1.19,4.36,-4.36,-4.34,-3.71,-3.17,-3.18,-3.18
354.74,1.16,4.32,1.16,4.33,-4.33,-4.31,-3.68,-3.17,-3.17,-3.16
358.28,1.12,4.29,1.13,4.30,-4.30,-4.28,-3.64,-3.18,-3.17,-3.17
361.87,1.10,4.27,1.09,4.26,-4.26,-4.25,-3.61,-3.16,-3.17,-3.17
365.49,1.06,4.23,1.06,4.23,-4.23,-4.22,-3.59,-3.17,-3.17,-3.17
369.14,1.02,4.18,1.03,4.19,-4.20,-4.19,-3.56,-3.18,-3.17,-3.16
372.83,1.00,4.16,0.99,4.16,-4.16,-4.16,-3.54,-3.16,-3.17,-3.16
376.56,0.96,4.13,0.96,4.13,-4.13,-4.13,-3.52,-3.17,-3.17,-3.17
380.33,0.93,4.10,0.93,4.10,-4.10,-4.09,-3.51,-3.17,-3.17,-3.17
384.13,0.89,4.06,0.89,4.06,-4.06,-4.06,-3.49,-3.17,-3.17,-3.17
387.97,0.86,4.02,0.86,4.03,-4.03,-4.03,-3.48,-3.17,-3.17,-3.16
391.85,0.82,3.99,0.82,3.99,-3.99,-3.99,-3.47,-3.17,-3.17,-3.17
395.77,0.79,3.96,0.79,3.96,-3.96,-3.96,-3.47,-3.17,-3.17,-3.17
399.73,0.76,3.93,0.75,3.93,-3.93,-3.92,-3.46,-3.17,-3.17,-3.17
403.72,0.72,3.88,0.72,3.89,-3.89,-3.89,-3.46,-3.17,-3.17,-3.16
407.76,0.69,3.85,0.69,3.85,-3.86,-3.85,-3.46,-3.17,-3.17,-3.16
411.84,0.66,3.82,0.66,3.82,-3.82,-3.82,-3.46,-3.16,-3.16,-3.16
415.96,0.63,3.79,0.63,3.79,-3.79,-3.78,-3.46,-3.16,-3.16,-3.16
420.12,0.59,3.76,0.59,3.76,-3.75,-3.74,-3.46,-3.17,-3.17,-3.17
424.32,0.55,3.72,0.55,3.72,-3.72,-3.71,-3.46,-3.17,-3.17,-3.17
428.56,0.52,3.68,0.52,3.69,-3.69,-3.67,-3.47,-3.17,-3.17,-3.16
432.85,0.49,3.65,0.48,3.65,-3.66,-3.63,-3.47,-3.17,-3.17,-3.16
437.18,0.45,3.62,0.45,3.62,-3.63,-3.60,-3.47,-3.18,-3.17,-3.17
441.55,0.42,3.59,0.42,3.60,-3.60,-3.56,-3.48,-3.18,-3.18,-3.17
445.96,0.39,3.57,0.39,3.57,-3.56,-3.52,-3.48,-3.17,-3.18,-3.18
450.42,0.35,3.53,0.35,3.54,-3.53,-3.48,-3.48,-3.18,-3.18,-3.18
454.93,0.32,3.50,0.32,3.50,-3.50,-3.44,-3.48,-3.18,-3.18,-3.18
459.48,0.28,3.46,0.28,3.46,-3.46,-3.41,-3.48,-3.18,-3.18,-3.18
464.07,0.25,3.42,0.25,3.42,-3.43,-3.37,-3.48,-3.18,-3.18,-3.17
468.71,0.21,3.38,0.21,3.38,-3.39,-3.33,-3.48,-3.18,-3.18,-3.17
473.40,0.18,3.35,0.18,3.35,-3.36,-3.29,-3.47,-3.18,-3.18,-3.17
478.13,0.14,3.31,0.15,3.32,-3.32,-3.25,-3.46,-3.18,-3.18,-3.17
482.91,0.12,3.29,0.11,3.29,-3.29,-3.21,-3.45,-3.17,-3.18,-3.17
487.74,0.08,3.25,0.08,3.25,-3.25,-3.17,-3.44,-3.17,-3.17,-3.17
492.62,0.04,3.21,0.05,3.22,-3.22,-3.14,-3.42,-3.18,-3.17,-3.17
497.55,0.02,3.19,0.01,3.18,-3.18,-3.10,-3.40,-3.16,-3.17,-3.17
502.52,-0.02,3.15,-0.02,3.15,-3.15,-3.06,-3.38,-3.17,-3.17,-3.17
507.55,-0.06,3.10,-0.06,3.11,-3.11,-3.02,-3.35,-3.17,-3.16,-3.16
512.62,-0.09,3.07,-0.09,3.06,-3.07,-2.98,-3.32,-3.16,-3.16,-3.16
517.75,-0.12,3.02,-0.12,3.03,-3.03,-2.94,-3.29,-3.15,-3.16,-3.14
