frequency,raw,error,smoothed,error_smoothed,equalization,parametric_eq,fixed_band_eq,equalized_raw,equalized_smoothed,target
20.00,-0.22,-3.87,-0.22,-3.87,3.87,3.59,2.22,3.65,3.65,3.65
20.20,-0.22,-3.92,-0.22,-3.92,3.92,3.64,2.29,3.70,3.70,3.70
20.40,-0.22,-3.97,-0.22,-3.97,3.97,3.69,2.35,3.75,3.75,3.75
20.61,-0.22,-4.00,-0.22,-4.01,4.01,3.73,2.42,3.79,3.79,3.78
20.81,-0.22,-4.05,-0.22,-4.05,4.05,3.78,2.49,3.83,3.83,3.83
21.02,-0.22,-4.09,-0.22,-4.08,4.08,3.82,2.57,3.86,3.86,3.87
21.23,-0.22,-4.11,-0.22,-4.11,4.11,3.87,2.64,3.89,3.89,3.89
21.44,-0.22,-4.13,-0.22,-4.13,4.13,3.92,2.72,3.91,3.91,3.91
21.66,-0.22,-4.15,-0.22,-4.15,4.15,3.96,2.80,3.93,3.93,3.93
21.87,-0.22,-4.16,-0.22,-4.17,4.17,4.01,2.88,3.95,3.95,3.94
22.09,-0.22,-4.18,-0.22,-4.18,4.18,4.05,2.96,3.96,3.96,3.96
22.31,-0.22,-4.19,-0.22,-4.19,4.18,4.10,3.05,3.96,3.96,3.97
22.54,-0.22,-4.19,-0.22,-4.19,4.19,4.14,3.14,3.97,3.97,3.97
22.76,-0.22,-4.19,-0.22,-4.19,4.19,4.19,3.23,3.97,3.97,3.97
22.99,-0.22,-4.18,-0.22,-4.18,4.19,4.23,3.32,3.97,3.97,3.96
23.22,-0.22,-4.18,-0.22,-4.18,4.19,4.28,3.42,3.97,3.97,3.96
23.45,-0.22,-4.18,-0.22,-4.18,4.19,4.32,3.52,3.97,3.97,3.96
23.69,-0.22,-4.19,-0.22,-4.19,4.19,4.36,3.62,3.97,3.97,3.97
23.92,-0.22,-4.19,-0.22,-4.19,4.18,4.40,3.72,3.97,3.97,3.97
24.16,-0.22,-4.19,-0.22,-4.19,4.19,4.45,3.82,3.97,3.97,3.97
24.40,-0.22,-4.20,-0.22,-4.19,4.19,4.49,3.93,3.97,3.97,3.98
24.65,-0.22,-4.19,-0.22,-4.19,4.20,4.53,4.03,3.98,3.98,3.97
24.89,-0.22,-4.19,-0.22,-4.20,4.21,4.57,4.14,3.99,3.99,3.97
25.14,-0.23,-4.20,-0.24,-4.21,4.22,4.61,4.25,3.99,3.98,3.97
25.39,-0.26,-4.24,-0.26,-4.24,4.23,4.65,4.36,3.97,3.97,3.98
25.65,-0.29,-4.27,-0.28,-4.26,4.24,4.68,4.47,3.96,3.96,3.98
25.91,-0.31,-4.28,-0.31,-4.29,4.26,4.72,4.58,3.95,3.95,3.97
26.16,-0.34,-4.31,-0.34,-4.31,4.29,4.76,4.69,3.95,3.96,3.97
26.43,-0.36,-4.33,-0.35,-4.32,4.34,4.79,4.80,3.98,3.98,3.97
26.69,-0.38,-4.35,-0.38,-4.35,4.39,4.82,4.91,4.01,4.01,3.97
26.96,-0.41,-4.38,-0.43,-4.40,4.45,4.86,5.01,4.04,4.02,3.97
27.23,-0.51,-4.48,-0.51,-4.48,4.52,4.89,5.12,4.01,4.01,3.97
27.50,-0.63,-4.60,-0.63,-4.60,4.59,4.92,5.22,3.96,3.97,3.97
27.77,-0.74,-4.70,-0.74,-4.70,4.66,4.95,5.32,3.92,3.93,3.96
28.05,-0.84,-4.80,-0.82,-4.78,4.73,4.97,5.41,3.89,3.91,3.96
28.33,-0.87,-4.82,-0.87,-4.83,4.78,5.00,5.50,3.91,3.91,3.95
28.62,-0.90,-4.85,-0.90,-4.86,4.83,5.03,5.59,3.93,3.92,3.95
28.90,-0.92,-4.88,-0.92,-4.87,4.87,5.05,5.66,3.95,3.95,3.96
29.19,-0.94,-4.89,-0.93,-4.89,4.91,5.07,5.74,3.97,3.97,3.95
29.48,-0.95,-4.91,-0.94,-4.90,4.95,5.09,5.80,4.00,4.01,3.96
29.78,-0.97,-4.92,-0.97,-4.93,5.00,5.11,5.86,4.03,4.03,3.95
30.08,-1.01,-4.97,-1.03,-4.99,5.04,5.13,5.90,4.04,4.01,3.96
30.38,-1.13,-5.08,-1.14,-5.09,5.08,5.14,5.94,3.95,3.94,3.95
30.68,-1.25,-5.20,-1.25,-5.20,5.12,5.15,5.97,3.87,3.87,3.95
30.99,-1.37,-5.32,-1.32,-5.27,5.17,5.16,5.99,3.80,3.84,3.95
31.30,-1.33,-5.27,-1.32,-5.26,5.22,5.17,6.00,3.89,3.90,3.94
31.61,-1.27,-5.21,-1.27,-5.22,5.27,5.18,6.00,4.00,4.00,3.94
31.93,-1.21,-5.15,-1.26,-5.19,5.32,5.19,5.99,4.11,4.06,3.94
32.24,-1.31,-5.24,-1.33,-5.26,5.35,5.19,5.98,4.04,4.02,3.93
32.57,-1.45,-5.38,-1.44,-5.37,5.36,5.19,5.95,3.92,3.92,3.93
32.89,-1.58,-5.51,-1.54,-5.47,5.37,5.19,5.91,3.79,3.82,3.93
33.22,-1.59,-5.51,-1.57,-5.50,5.37,5.19,5.87,3.78,3.80,3.92
33.55,-1.53,-5.45,-1.54,-5.46,5.39,5.19,5.82,3.86,3.85,3.92
33.89,-1.47,-5.38,-1.49,-5.40,5.42,5.18,5.76,3.95,3.93,3.91
34.23,-1.46,-5.37,-1.45,-5.36,5.46,5.17,5.69,4.00,4.01,3.91
34.57,-1.47,-5.37,-1.46,-5.36,5.51,5.16,5.62,4.04,4.05,3.90
34.92,-1.49,-5.39,-1.52,-5.42,5.55,5.15,5.54,4.06,4.03,3.90
35.27,-1.63,-5.52,-1.66,-5.55,5.60,5.13,5.46,3.97,3.94,3.89
35.62,-1.81,-5.70,-1.81,-5.70,5.63,5.12,5.37,3.83,3.82,3.89
35.97,-1.99,-5.88,-1.91,-5.80,5.65,5.10,5.28,3.67,3.74,3.89
36.33,-1.90,-5.79,-1.91,-5.80,5.64,5.08,5.19,3.74,3.73,3.89
36.70,-1.78,-5.66,-1.81,-5.69,5.59,5.05,5.10,3.81,3.78,3.88
37.06,-1.66,-5.54,-1.64,-5.53,5.50,5.03,5.01,3.84,3.86,3.88
37.43,-1.48,-5.37,-1.47,-5.36,5.39,5.00,4.91,3.91,3.92,3.89
37.81,-1.29,-5.18,-1.31,-5.20,5.27,4.97,4.81,3.98,3.96,3.89
38.19,-1.16,-5.04,-1.16,-5.05,5.16,4.94,4.72,4.00,4.00,3.88
38.57,-1.09,-4.98,-1.07,-4.97,5.08,4.91,4.62,3.99,4.00,3.89
38.95,-1.02,-4.92,-1.05,-4.94,5.02,4.87,4.53,4.00,3.97,3.90
39.34,-1.07,-4.96,-1.08,-4.97,4.99,4.83,4.44,3.92,3.91,3.89
39.74,-1.14,-5.03,-1.12,-5.01,4.96,4.80,4.35,3.82,3.84,3.89
40.14,-1.17,-5.06,-1.16,-5.05,4.95,4.76,4.26,3.78,3.79,3.89
40.54,-1.13,-5.02,-1.14,-5.03,4.94,4.71,4.17,3.81,3.79,3.89
40.94,-1.09,-4.97,-1.06,-4.95,4.93,4.67,4.08,3.84,3.86,3.88
41.35,-0.97,-4.85,-0.95,-4.83,4.90,4.62,4.00,3.94,3.95,3.88
41.76,-0.83,-4.70,-0.86,-4.74,4.85,4.58,3.92,4.03,3.99,3.87
42.18,-0.79,-4.66,-0.84,-4.71,4.77,4.53,3.84,3.98,3.93,3.87
42.60,-0.86,-4.72,-0.85,-4.71,4.67,4.48,3.76,3.81,3.82,3.86
43.03,-0.90,-4.75,-0.81,-4.66,4.54,4.42,3.69,3.64,3.73,3.85
43.46,-0.67,-4.51,-0.68,-4.52,4.40,4.37,3.62,3.73,3.71,3.84
43.90,-0.44,-4.26,-0.46,-4.29,4.25,4.32,3.55,3.81,3.78,3.82
44.33,-0.23,-4.03,-0.22,-4.02,4.08,4.26,3.49,3.85,3.86,3.80
44.78,-0.02,-3.80,-0.03,-3.82,3.89,4.20,3.42,3.87,3.86,3.78
45.23,0.13,-3.64,0.12,-3.65,3.70,4.14,3.36,3.83,3.82,3.77
45.68,0.24,-3.52,0.25,-3.51,3.51,4.08,3.31,3.75,3.76,3.76
46.13,0.37,-3.37,0.39,-3.36,3.34,4.02,3.25,3.71,3.73,3.74
46.60,0.52,-3.22,0.52,-3.21,3.21,3.96,3.20,3.73,3.73,3.74
47.06,0.67,-3.05,0.65,-3.07,3.10,3.90,3.15,3.77,3.75,3.72
47.53,0.73,-2.98,0.74,-2.98,3.02,3.83,3.11,3.75,3.76,3.71
48.01,0.79,-2.92,0.77,-2.93,2.95,3.77,3.06,3.74,3.72,3.71
48.49,0.77,-2.92,0.77,-2.92,2.90,3.70,3.02,3.67,3.67,3.69
48.97,0.75,-2.92,0.78,-2.90,2.87,3.64,2.98,3.62,3.65,3.67
49.46,0.77,-2.88,0.77,-2.88,2.87,3.57,2.94,3.64,3.64,3.65
49.96,0.79,-2.84,0.77,-2.87,2.88,3.50,2.91,3.67,3.65,3.63
50.46,0.73,-2.89,0.73,-2.89,2.92,3.43,2.87,3.65,3.65,3.62
50.96,0.66,-2.95,0.67,-2.93,2.96,3.36,2.84,3.62,3.63,3.61
51.47,0.59,-3.00,0.60,-3.00,3.01,3.29,2.81,3.60,3.60,3.59
51.99,0.53,-3.05,0.51,-3.07,3.07,3.22,2.78,3.60,3.58,3.58
52.51,0.42,-3.15,0.42,-3.15,3.14,3.15,2.75,3.56,3.56,3.57
53.03,0.32,-3.25,0.35,-3.21,3.21,3.08,2.72,3.53,3.56,3.57
53.56,0.29,-3.26,0.28,-3.27,3.27,3.01,2.69,3.56,3.55,3.55
54.10,0.25,-3.29,0.22,-3.32,3.32,2.94,2.67,3.57,3.54,3.54
54.64,0.15,-3.37,0.16,-3.37,3.37,2.86,2.64,3.52,3.53,3.52
55.18,0.08,-3.44,0.11,-3.41,3.41,2.79,2.61,3.49,3.52,3.52
55.74,0.09,-3.41,0.10,-3.41,3.43,2.72,2.59,3.52,3.53,3.50
56.29,0.12,-3.37,0.12,-3.37,3.42,2.64,2.56,3.55,3.55,3.49
56.86,0.16,-3.32,0.10,-3.37,3.38,2.57,2.53,3.54,3.48,3.48
57.42,0.12,-3.33,0.10,-3.36,3.29,2.50,2.51,3.41,3.39,3.45
58.00,0.05,-3.39,0.16,-3.28,3.15,2.42,2.48,3.20,3.32,3.44
58.58,0.33,-3.10,0.32,-3.11,2.98,2.35,2.45,3.31,3.30,3.43
59.16,0.60,-2.81,0.56,-2.85,2.79,2.27,2.41,3.39,3.35,3.41
59.76,0.84,-2.55,0.85,-2.54,2.59,2.20,2.38,3.43,3.43,3.39
60.35,1.05,-2.30,1.05,-2.30,2.39,2.13,2.34,3.44,3.44,3.35
60.96,1.23,-2.08,1.20,-2.11,2.20,2.05,2.31,3.43,3.41,3.31
61.57,1.29,-1.98,1.30,-1.97,2.06,1.98,2.27,3.35,3.36,3.27
62.18,1.33,-1.90,1.35,-1.88,1.96,1.91,2.23,3.29,3.31,3.23
62.80,1.35,-1.83,1.32,-1.86,1.91,1.83,2.18,3.26,3.24,3.18
63.43,1.27,-1.87,1.26,-1.88,1.91,1.76,2.14,3.18,3.17,3.14
64.07,1.15,-1.94,1.16,-1.93,1.92,1.68,2.09,3.07,3.08,3.09
64.71,1.06,-1.99,1.08,-1.98,1.93,1.61,2.04,2.99,3.00,3.05
65.35,1.02,-1.99,1.02,-1.98,1.92,1.54,1.98,2.94,2.94,3.01
66.01,1.03,-1.93,1.01,-1.95,1.87,1.46,1.93,2.91,2.88,2.96
66.67,1.03,-1.88,1.04,-1.87,1.80,1.39,1.87,2.83,2.84,2.91
67.33,1.10,-1.76,1.13,-1.74,1.69,1.32,1.81,2.79,2.81,2.86
68.01,1.25,-1.57,1.25,-1.57,1.55,1.25,1.75,2.81,2.80,2.82
68.69,1.41,-1.36,1.39,-1.38,1.41,1.17,1.68,2.82,2.80,2.77
69.37,1.53,-1.19,1.53,-1.19,1.25,1.10,1.62,2.79,2.78,2.72
70.07,1.62,-1.05,1.63,-1.05,1.11,1.03,1.55,2.73,2.73,2.67
70.77,1.69,-0.93,1.68,-0.94,0.98,0.96,1.48,2.67,2.66,2.62
71.48,1.71,-0.86,1.71,-0.86,0.87,0.89,1.41,2.58,2.58,2.57
72.19,1.71,-0.79,1.72,-0.79,0.78,0.82,1.34,2.49,2.50,2.50
72.91,1.71,-0.73,1.71,-0.73,0.71,0.75,1.27,2.42,2.43,2.44
73.64,1.71,-0.68,1.72,-0.67,0.66,0.68,1.20,2.38,2.38,2.39
74.38,1.71,-0.62,1.71,-0.62,0.63,0.61,1.12,2.34,2.34,2.33
75.12,1.70,-0.57,1.69,-0.58,0.60,0.54,1.05,2.30,2.29,2.27
75.87,1.64,-0.57,1.66,-0.56,0.58,0.47,0.97,2.22,2.24,2.21
76.63,1.62,-0.54,1.61,-0.55,0.56,0.40,0.89,2.19,2.18,2.16
77.40,1.57,-0.54,1.57,-0.54,0.55,0.34,0.82,2.12,2.11,2.11
78.17,1.52,-0.53,1.54,-0.52,0.52,0.27,0.74,2.04,2.06,2.05
78.95,1.52,-0.49,1.51,-0.50,0.48,0.20,0.66,2.00,2.00,2.01
79.74,1.52,-0.44,1.51,-0.45,0.42,0.14,0.58,1.94,1.92,1.96
80.54,1.52,-0.39,1.53,-0.39,0.32,0.07,0.51,1.85,1.85,1.91
81.35,1.57,-0.29,1.59,-0.28,0.21,0.00,0.43,1.78,1.80,1.86
82.16,1.68,-0.13,1.70,-0.12,0.08,-0.06,0.35,1.76,1.78,1.81
82.98,1.86,0.09,1.84,0.07,-0.06,-0.13,0.27,1.80,1.78,1.77
83.81,1.99,0.27,1.98,0.26,-0.20,-0.19,0.19,1.79,1.78,1.72
84.65,2.08,0.41,2.09,0.41,-0.35,-0.25,0.11,1.74,1.74,1.67
85.50,2.15,0.52,2.15,0.52,-0.48,-0.32,0.03,1.67,1.67,1.63
86.35,2.19,0.61,2.18,0.60,-0.60,-0.38,-0.05,1.59,1.58,1.58
87.22,2.20,0.67,2.22,0.69,-0.70,-0.44,-0.13,1.50,1.52,1.53
88.09,2.24,0.76,2.25,0.77,-0.78,-0.50,-0.21,1.46,1.47,1.48
88.97,2.29,0.87,2.27,0.85,-0.85,-0.56,-0.29,1.44,1.43,1.42
89.86,2.29,0.92,2.29,0.92,-0.91,-0.62,-0.37,1.38,1.38,1.37
90.76,2.29,0.97,2.30,0.98,-0.97,-0.68,-0.46,1.32,1.33,1.32
91.66,2.29,1.02,2.29,1.03,-1.03,-0.74,-0.54,1.26,1.26,1.27
92.58,2.30,1.09,2.29,1.08,-1.10,-0.80,-0.62,1.20,1.20,1.21
93.51,2.30,1.14,2.30,1.13,-1.16,-0.86,-0.70,1.14,1.14,1.16
94.44,2.30,1.18,2.32,1.20,-1.22,-0.92,-0.78,1.08,1.10,1.12
95.39,2.34,1.27,2.35,1.28,-1.28,-0.97,-0.87,1.06,1.07,1.07
96.34,2.41,1.39,2.38,1.36,-1.34,-1.03,-0.95,1.08,1.04,1.02
97.30,2.39,1.42,2.39,1.42,-1.39,-1.08,-1.03,1.00,1.00,0.97
98.28,2.37,1.45,2.38,1.46,-1.44,-1.14,-1.12,0.93,0.94,0.92
99.26,2.36,1.48,2.36,1.48,-1.48,-1.19,-1.20,0.88,0.87,0.88
100.25,2.34,1.51,2.34,1.51,-1.52,-1.25,-1.28,0.82,0.82,0.83
101.25,2.32,1.54,2.33,1.54,-1.55,-1.30,-1.36,0.77,0.77,0.78
102.27,2.31,1.58,2.31,1.58,-1.58,-1.35,-1.44,0.73,0.73,0.73
103.29,2.30,1.62,2.30,1.61,-1.61,-1.41,-1.52,0.69,0.69,0.68
104.32,2.28,1.64,2.28,1.64,-1.64,-1.46,-1.60,0.64,0.64,0.64
105.37,2.25,1.66,2.26,1.67,-1.67,-1.51,-1.68,0.58,0.59,0.59
106.42,2.23,1.69,2.23,1.69,-1.70,-1.56,-1.76,0.53,0.53,0.54
107.48,2.21,1.73,2.21,1.72,-1.72,-1.61,-1.84,0.49,0.49,0.48
108.56,2.18,1.75,2.20,1.76,-1.74,-1.65,-1.91,0.44,0.45,0.43
109.64,2.17,1.79,2.17,1.79,-1.76,-1.70,-1.99,0.41,0.40,0.38
110.74,2.15,1.83,2.12,1.79,-1.78,-1.75,-2.06,0.37,0.34,0.32
111.85,2.05,1.77,2.07,1.80,-1.81,-1.79,-2.13,0.24,0.27,0.28
112.97,2.02,1.80,2.03,1.81,-1.84,-1.84,-2.19,0.18,0.19,0.22
114.10,2.01,1.84,2.01,1.83,-1.87,-1.88,-2.26,0.14,0.14,0.17
115.24,2.01,1.89,2.01,1.89,-1.90,-1.93,-2.32,0.11,0.11,0.12
116.39,2.01,1.94,2.01,1.94,-1.93,-1.97,-2.37,0.08,0.08,0.07
117.55,2.01,1.98,2.02,1.99,-1.96,-2.01,-2.43,0.05,0.06,0.03
118.73,2.02,2.03,2.02,2.03,-2.00,-2.06,-2.48,0.03,0.03,-0.01
119.92,2.03,2.07,2.01,2.05,-2.03,-2.10,-2.52,0.00,-0.02,-0.04
121.12,1.97,2.05,1.98,2.06,-2.06,-2.14,-2.56,-0.09,-0.08,-0.08
122.33,1.94,2.05,1.95,2.06,-2.09,-2.18,-2.60,-0.15,-0.13,-0.11
123.55,1.94,2.08,1.95,2.09,-2.11,-2.22,-2.63,-0.17,-0.17,-0.14
124.79,1.96,2.13,1.96,2.13,-2.13,-2.25,-2.66,-0.17,-0.17,-0.17
126.03,1.98,2.18,1.97,2.17,-2.15,-2.29,-2.69,-0.17,-0.18,-0.20
127.29,1.97,2.19,1.96,2.18,-2.16,-2.33,-2.71,-0.19,-0.21,-0.22
128.57,1.92,2.18,1.93,2.19,-2.18,-2.36,-2.72,-0.26,-0.24,-0.26
129.85,1.89,2.18,1.91,2.20,-2.19,-2.40,-2.73,-0.30,-0.28,-0.29
131.15,1.90,2.22,1.89,2.21,-2.20,-2.43,-2.74,-0.30,-0.31,-0.32
132.46,1.88,2.23,1.86,2.21,-2.21,-2.46,-2.74,-0.33,-0.35,-0.35
133.79,1.81,2.19,1.83,2.20,-2.22,-2.50,-2.74,-0.41,-0.39,-0.38
135.12,1.79,2.20,1.80,2.21,-2.23,-2.53,-2.74,-0.44,-0.43,-0.41
136.48,1.80,2.23,1.80,2.23,-2.26,-2.56,-2.73,-0.46,-0.46,-0.43
137.84,1.82,2.29,1.81,2.28,-2.29,-2.59,-2.72,-0.47,-0.48,-0.47
139.22,1.82,2.32,1.82,2.32,-2.32,-2.62,-2.71,-0.49,-0.50,-0.50
140.61,1.82,2.35,1.82,2.35,-2.34,-2.64,-2.70,-0.52,-0.52,-0.53
142.02,1.82,2.37,1.83,2.39,-2.36,-2.67,-2.68,-0.54,-0.52,-0.55
143.44,1.83,2.41,1.84,2.42,-2.37,-2.70,-2.66,-0.54,-0.54,-0.58
144.87,1.84,2.46,1.80,2.41,-2.39,-2.72,-2.65,-0.55,-0.59,-0.62
146.32,1.74,2.40,1.74,2.39,-2.40,-2.75,-2.63,-0.66,-0.66,-0.66
147.78,1.63,2.32,1.68,2.37,-2.41,-2.77,-2.61,-0.78,-0.74,-0.69
149.26,1.62,2.36,1.63,2.37,-2.42,-2.79,-2.59,-0.80,-0.80,-0.74
150.75,1.63,2.43,1.60,2.40,-2.43,-2.81,-2.57,-0.80,-0.83,-0.80
152.26,1.57,2.44,1.58,2.45,-2.42,-2.83,-2.55,-0.85,-0.84,-0.87
153.78,1.52,2.46,1.54,2.47,-2.41,-2.85,-2.53,-0.88,-0.87,-0.94
155.32,1.48,2.49,1.46,2.47,-2.39,-2.87,-2.51,-0.91,-0.93,-1.01
156.88,1.37,2.46,1.36,2.45,-2.38,-2.89,-2.49,-1.01,-1.02,-1.09
158.44,1.23,2.40,1.22,2.39,-2.39,-2.91,-2.47,-1.16,-1.17,-1.17
160.03,1.08,2.33,1.09,2.34,-2.41,-2.92,-2.46,-1.33,-1.32,-1.25
161.63,0.99,2.31,1.02,2.34,-2.46,-2.94,-2.44,-1.47,-1.44,-1.32
163.24,1.04,2.42,1.04,2.42,-2.53,-2.95,-2.43,-1.49,-1.49,-1.38
164.88,1.13,2.56,1.14,2.57,-2.63,-2.96,-2.42,-1.50,-1.49,-1.43
166.53,1.30,2.78,1.28,2.76,-2.75,-2.97,-2.41,-1.45,-1.47,-1.48
168.19,1.42,2.94,1.41,2.93,-2.88,-2.99,-2.40,-1.46,-1.47,-1.52
169.87,1.52,3.08,1.53,3.08,-3.01,-2.99,-2.39,-1.49,-1.48,-1.56
171.57,1.61,3.19,1.61,3.19,-3.11,-3.00,-2.39,-1.50,-1.50,-1.58
173.29,1.67,3.26,1.66,3.25,-3.19,-3.01,-2.39,-1.52,-1.53,-1.59
175.02,1.68,3.28,1.67,3.27,-3.24,-3.02,-2.39,-1.56,-1.57,-1.60
176.77,1.64,3.25,1.64,3.25,-3.25,-3.02,-2.39,-1.61,-1.62,-1.61
178.54,1.58,3.20,1.61,3.22,-3.25,-3.03,-2.39,-1.67,-1.64,-1.62
180.32,1.59,3.20,1.60,3.20,-3.23,-3.03,-2.39,-1.64,-1.64,-1.61
182.13,1.61,3.21,1.58,3.19,-3.21,-3.03,-2.40,-1.60,-1.63,-1.60
183.95,1.57,3.18,1.57,3.17,-3.19,-3.03,-2.41,-1.62,-1.62,-1.61
185.79,1.53,3.14,1.55,3.17,-3.17,-3.03,-2.42,-1.64,-1.62,-1.61
187.65,1.53,3.16,1.54,3.16,-3.16,-3.03,-2.43,-1.63,-1.62,-1.63
189.52,1.55,3.19,1.53,3.17,-3.15,-3.03,-2.45,-1.60,-1.62,-1.64
191.42,1.50,3.16,1.50,3.16,-3.14,-3.03,-2.47,-1.64,-1.64,-1.66
193.33,1.46,3.14,1.46,3.14,-3.14,-3.02,-2.48,-1.68,-1.68,-1.68
195.27,1.42,3.12,1.43,3.13,-3.15,-3.01,-2.50,-1.73,-1.72,-1.70
197.22,1.41,3.13,1.42,3.13,-3.16,-3.01,-2.52,-1.75,-1.74,-1.72
199.19,1.42,3.16,1.42,3.15,-3.17,-3.00,-2.54,-1.75,-1.76,-1.74
201.18,1.43,3.19,1.43,3.19,-3.19,-2.99,-2.57,-1.75,-1.76,-1.76
203.19,1.43,3.21,1.44,3.21,-3.20,-2.98,-2.59,-1.77,-1.76,-1.78
205.23,1.44,3.24,1.45,3.24,-3.22,-2.97,-2.61,-1.77,-1.77,-1.80
207.28,1.44,3.25,1.44,3.25,-3.23,-2.96,-2.64,-1.79,-1.80,-1.81
209.35,1.43,3.26,1.41,3.24,-3.24,-2.94,-2.66,-1.81,-1.84,-1.83
211.44,1.35,3.21,1.37,3.22,-3.24,-2.93,-2.69,-1.89,-1.87,-1.86
213.56,1.33,3.20,1.35,3.22,-3.23,-2.91,-2.71,-1.89,-1.87,-1.87
215.69,1.35,3.23,1.34,3.22,-3.21,-2.89,-2.74,-1.85,-1.87,-1.88
217.85,1.34,3.23,1.32,3.21,-3.18,-2.87,-2.76,-1.84,-1.86,-1.89
220.03,1.27,3.17,1.26,3.17,-3.16,-2.85,-2.78,-1.88,-1.89,-1.90
222.23,1.18,3.11,1.19,3.11,-3.13,-2.83,-2.80,-1.95,-1.94,-1.93
224.45,1.12,3.04,1.14,3.06,-3.09,-2.81,-2.82,-1.97,-1.96,-1.92
226.70,1.12,3.04,1.12,3.04,-3.05,-2.78,-2.83,-1.93,-1.93,-1.92
228.96,1.13,3.04,1.13,3.03,-3.01,-2.76,-2.85,-1.88,-1.89,-1.91
231.25,1.13,3.03,1.11,3.01,-2.98,-2.73,-2.86,-1.85,-1.87,-1.90
233.57,1.07,2.96,1.06,2.95,-2.95,-2.70,-2.86,-1.87,-1.88,-1.89
235.90,0.99,2.87,1.02,2.90,-2.92,-2.67,-2.87,-1.93,-1.90,-1.88
238.26,0.98,2.85,0.99,2.85,-2.89,-2.64,-2.87,-1.91,-1.91,-1.87
240.64,1.00,2.84,0.99,2.83,-2.86,-2.61,-2.86,-1.86,-1.87,-1.84
243.05,1.01,2.82,1.04,2.85,-2.82,-2.58,-2.86,-1.81,-1.79,-1.81
245.48,1.05,2.84,1.04,2.83,-2.78,-2.54,-2.84,-1.73,-1.74,-1.79
247.93,1.08,2.84,1.01,2.77,-2.74,-2.51,-2.83,-1.66,-1.73,-1.76
250.41,0.91,2.65,0.96,2.70,-2.69,-2.47,-2.81,-1.78,-1.73,-1.74
252.92,0.88,2.59,0.91,2.62,-2.64,-2.43,-2.78,-1.76,-1.73,-1.71
255.45,0.89,2.58,0.86,2.55,-2.57,-2.39,-2.75,-1.68,-1.71,-1.69
258.00,0.85,2.52,0.85,2.51,-2.50,-2.35,-2.72,-1.65,-1.65,-1.67
260.58,0.79,2.44,0.79,2.44,-2.43,-2.30,-2.68,-1.64,-1.64,-1.65
263.19,0.74,2.36,0.73,2.35,-2.36,-2.26,-2.63,-1.62,-1.63,-1.62
265.82,0.64,2.24,0.67,2.27,-2.29,-2.21,-2.58,-1.65,-1.62,-1.60
268.48,0.63,2.21,0.62,2.20,-2.21,-2.17,-2.53,-1.58,-1.59,-1.58
271.16,0.58,2.13,0.58,2.13,-2.13,-2.12,-2.48,-1.55,-1.55,-1.55
273.87,0.54,2.07,0.55,2.07,-2.04,-2.07,-2.42,-1.50,-1.49,-1.53
276.61,0.48,1.98,0.49,1.99,-1.94,-2.02,-2.36,-1.46,-1.45,-1.50
279.38,0.43,1.90,0.40,1.87,-1.85,-1.96,-2.29,-1.41,-1.45,-1.47
282.17,0.30,1.75,0.31,1.75,-1.75,-1.91,-2.22,-1.45,-1.45,-1.45
284.99,0.18,1.59,0.22,1.63,-1.66,-1.85,-2.15,-1.48,-1.45,-1.41
287.84,0.16,1.55,0.14,1.52,-1.57,-1.80,-2.08,-1.41,-1.43,-1.39
290.72,0.09,1.45,0.09,1.44,-1.48,-1.74,-2.01,-1.39,-1.39,-1.36
293.63,0.05,1.38,0.06,1.39,-1.39,-1.68,-1.93,-1.34,-1.33,-1.33
296.57,0.02,1.32,0.04,1.34,-1.31,-1.62,-1.85,-1.29,-1.27,-1.30
299.53,0.04,1.31,0.01,1.28,-1.23,-1.55,-1.77,-1.19,-1.22,-1.27
302.53,-0.04,1.21,-0.06,1.19,-1.16,-1.49,-1.70,-1.20,-1.21,-1.25
305.55,-0.15,1.06,-0.13,1.08,-1.09,-1.43,-1.61,-1.24,-1.22,-1.21
308.61,-0.23,0.96,-0.20,0.98,-1.02,-1.36,-1.53,-1.24,-1.22,-1.19
311.69,-0.23,0.93,-0.25,0.91,-0.94,-1.29,-1.45,-1.17,-1.19,-1.16
314.81,-0.27,0.87,-0.27,0.86,-0.87,-1.22,-1.37,-1.14,-1.15,-1.14
317.96,-0.31,0.81,-0.31,0.81,-0.80,-1.15,-1.29,-1.11,-1.11,-1.12
321.14,-0.36,0.75,-0.35,0.75,-0.74,-1.08,-1.21,-1.10,-1.09,-1.11
324.35,-0.41,0.68,-0.40,0.70,-0.68,-1.01,-1.13,-1.09,-1.07,-1.09
327.59,-0.42,0.66,-0.44,0.64,-0.62,-0.94,-1.04,-1.04,-1.06,-1.08
330.87,-0.50,0.57,-0.50,0.57,-0.57,-0.87,-0.96,-1.06,-1.06,-1.07
334.18,-0.56,0.49,-0.55,0.50,-0.51,-0.79,-0.88,-1.07,-1.06,-1.05
337.52,-0.61,0.43,-0.60,0.44,-0.45,-0.72,-0.80,-1.06,-1.05,-1.04
340.90,-0.63,0.40,-0.64,0.39,-0.40,-0.64,-0.72,-1.03,-1.04,-1.03
344.30,-0.67,0.35,-0.68,0.34,-0.35,-0.57,-0.64,-1.02,-1.03,-1.02
347.75,-0.72,0.30,-0.72,0.29,-0.30,-0.49,-0.56,-1.02,-1.02,-1.02
351.23,-0.78,0.23,-0.76,0.26,-0.25,-0.41,-0.48,-1.03,-1.00,-1.01
354.74,-0.80,0.22,-0.80,0.21,-0.19,-0.33,-0.40,-0.99,-0.99,-1.02
358.28,-0.82,0.19,-0.86,0.15,-0.13,-0.26,-0.32,-0.95,-0.98,-1.01
361.87,-0.95,0.06,-0.93,0.08,-0.06,-0.18,-0.24,-1.01,-0.99,-1.01
365.49,-1.02,-0.02,-1.00,-0.00,-0.00,-0.10,-0.16,-1.02,-1.00,-1.00
369.14,-1.08,-0.07,-1.10,-0.10,0.07,-0.02,-0.08,-1.01,-1.04,-1.01
372.83,-1.16,-0.15,-1.18,-0.17,0.14,0.06,-0.00,-1.02,-1.04,-1.01
376.56,-1.29,-0.27,-1.23,-0.22,0.21,0.13,0.08,-1.08,-1.02,-1.02
380.33,-1.27,-0.26,-1.27,-0.26,0.28,0.21,0.15,-0.99,-0.99,-1.01
384.13,-1.28,-0.27,-1.33,-0.32,0.35,0.28,0.23,-0.93,-0.98,-1.01
387.97,-1.40,-0.38,-1.41,-0.39,0.41,0.36,0.31,-0.99,-1.00,-1.02
391.85,-1.55,-0.52,-1.51,-0.48,0.47,0.43,0.38,-1.08,-1.04,-1.03
395.77,-1.60,-0.58,-1.59,-0.57,0.52,0.51,0.46,-1.08,-1.07,-1.02
399.73,-1.61,-0.58,-1.63,-0.60,0.58,0.58,0.53,-1.03,-1.05,-1.03
403.72,-1.67,-0.64,-1.66,-0.63,0.64,0.65,0.61,-1.03,-1.02,-1.03
407.76,-1.70,-0.65,-1.71,-0.67,0.70,0.72,0.68,-1.00,-1.01,-1.05
411.84,-1.78,-0.73,-1.77,-0.72,0.75,0.78,0.75,-1.03,-1.02,-1.05
415.96,-1.84,-0.79,-1.85,-0.79,0.80,0.85,0.82,-1.04,-1.05,-1.05
420.12,-1.90,-0.85,-1.91,-0.87,0.84,0.91,0.89,-1.06,-1.07,-1.05
424.32,-1.99,-0.94,-1.94,-0.90,0.88,0.97,0.96,-1.11,-1.07,-1.05
428.56,-1.96,-0.92,-1.97,-0.93,0.91,1.03,1.03,-1.05,-1.06,-1.04
432.85,-1.94,-0.91,-1.99,-0.96,0.94,1.08,1.09,-0.99,-1.04,-1.03
437.18,-2.02,-1.00,-1.99,-0.98,0.97,1.13,1.16,-1.04,-1.02,-1.02
441.55,-2.01,-1.03,-1.97,-0.99,1.00,1.18,1.22,-1.01,-0.97,-0.98
445.96,-1.94,-0.99,-1.95,-1.00,1.02,1.23,1.28,-0.92,-0.92,-0.95
450.42,-1.88,-0.96,-1.94,-1.02,1.05,1.27,1.33,-0.83,-0.89,-0.92
454.93,-1.95,-1.08,-1.94,-1.07,1.08,1.31,1.39,-0.87,-0.86,-0.87
459.48,-2.01,-1.18,-1.95,-1.13,1.11,1.35,1.44,-0.90,-0.84,-0.83
464.07,-1.93,-1.15,-1.95,-1.17,1.15,1.39,1.49,-0.78,-0.80,-0.78
468.71,-1.89,-1.17,-1.91,-1.19,1.19,1.42,1.53,-0.70,-0.72,-0.72
473.40,-1.90,-1.22,-1.89,-1.22,1.23,1.45,1.57,-0.66,-0.65,-0.68
478.13,-1.89,-1.27,-1.89,-1.27,1.28,1.47,1.61,-0.61,-0.61,-0.62
482.91,-1.90,-1.32,-1.90,-1.32,1.32,1.50,1.65,-0.58,-0.58,-0.58
487.74,-1.89,-1.35,-1.90,-1.37,1.35,1.52,1.68,-0.54,-0.55,-0.54
492.62,-1.91,-1.42,-1.89,-1.39,1.39,1.53,1.71,-0.52,-0.50,-0.49
497.55,-1.88,-1.41,-1.88,-1.42,1.42,1.55,1.73,-0.46,-0.46,-0.47
502.52,-1.86,-1.42,-1.88,-1.44,1.45,1.56,1.75,-0.41,-0.43,-0.44
