frequency,raw,error,smoothed,error_smoothed,equalization,parametric_eq,fixed_band_eq,equalized_raw,equalized_smoothed,target
20.00,-4.15,-6.38,-4.15,-6.38,6.39,6.55,2.76,2.24,2.24,2.24
20.20,-4.13,-6.41,-4.13,-6.41,6.41,6.54,2.84,2.29,2.29,2.29
20.40,-4.11,-6.44,-4.11,-6.44,6.44,6.53,2.92,2.33,2.33,2.34
20.61,-4.09,-6.45,-4.09,-6.46,6.46,6.51,3.00,2.37,2.37,2.37
20.81,-4.07,-6.48,-4.07,-6.48,6.47,6.49,3.09,2.41,2.41,2.42
21.02,-4.05,-6.50,-4.05,-6.50,6.49,6.48,3.17,2.44,2.44,2.46
21.23,-4.03,-6.50,-4.03,-6.50,6.50,6.46,3.26,2.47,2.47,2.48
21.44,-4.01,-6.50,-4.00,-6.50,6.50,6.44,3.35,2.50,2.50,2.50
21.66,-3.98,-6.49,-3.98,-6.49,6.50,6.42,3.45,2.53,2.52,2.52
21.87,-3.96,-6.48,-3.96,-6.49,6.50,6.41,3.55,2.55,2.54,2.53
22.09,-3.95,-6.49,-3.94,-6.49,6.50,6.39,3.65,2.55,2.55,2.55
22.31,-3.94,-6.49,-3.94,-6.49,6.49,6.37,3.75,2.55,2.55,2.56
22.54,-3.93,-6.48,-3.93,-6.49,6.47,6.35,3.85,2.55,2.54,2.56
22.76,-3.92,-6.47,-3.92,-6.47,6.45,6.33,3.96,2.54,2.54,2.56
22.99,-3.91,-6.45,-3.90,-6.45,6.43,6.31,4.07,2.52,2.53,2.55
23.22,-3.87,-6.41,-3.87,-6.41,6.41,6.29,4.18,2.54,2.54,2.55
23.45,-3.83,-6.37,-3.83,-6.37,6.38,6.27,4.30,2.55,2.55,2.55
23.69,-3.79,-6.34,-3.78,-6.34,6.36,6.25,4.41,2.57,2.57,2.56
23.92,-3.75,-6.30,-3.75,-6.31,6.33,6.24,4.53,2.59,2.58,2.56
24.16,-3.74,-6.29,-3.74,-6.30,6.32,6.22,4.65,2.58,2.58,2.56
24.40,-3.74,-6.30,-3.73,-6.29,6.30,6.20,4.78,2.56,2.56,2.57
24.65,-3.74,-6.29,-3.74,-6.29,6.28,6.18,4.90,2.55,2.54,2.56
24.89,-3.74,-6.29,-3.73,-6.29,6.27,6.16,5.03,2.53,2.54,2.56
25.14,-3.72,-6.27,-3.71,-6.27,6.25,6.15,5.16,2.54,2.54,2.56
25.39,-3.69,-6.25,-3.69,-6.25,6.24,6.13,5.28,2.55,2.55,2.57
25.65,-3.66,-6.22,-3.65,-6.22,6.22,6.12,5.41,2.57,2.57,2.57
25.91,-3.63,-6.18,-3.63,-6.19,6.21,6.10,5.54,2.58,2.58,2.56
26.16,-3.62,-6.17,-3.62,-6.18,6.20,6.09,5.67,2.58,2.58,2.56
26.43,-3.63,-6.18,-3.62,-6.18,6.19,6.07,5.80,2.56,2.57,2.56
26.69,-3.63,-6.18,-3.63,-6.18,6.18,6.06,5.93,2.56,2.56,2.56
26.96,-3.64,-6.19,-3.63,-6.19,6.18,6.04,6.05,2.55,2.55,2.56
27.23,-3.64,-6.19,-3.64,-6.19,6.18,6.03,6.18,2.55,2.55,2.56
27.50,-3.64,-6.19,-3.64,-6.19,6.19,6.02,6.30,2.55,2.55,2.56
27.77,-3.64,-6.18,-3.64,-6.18,6.19,6.01,6.42,2.55,2.55,2.55
28.05,-3.64,-6.18,-3.63,-6.18,6.18,6.00,6.53,2.55,2.55,2.55
28.33,-3.63,-6.16,-3.63,-6.17,6.17,5.99,6.64,2.54,2.54,2.54
28.62,-3.63,-6.16,-3.63,-6.17,6.15,5.98,6.74,2.52,2.52,2.54
28.90,-3.62,-6.16,-3.61,-6.15,6.12,5.97,6.83,2.50,2.51,2.55
29.19,-3.58,-6.11,-3.57,-6.11,6.09,5.96,6.92,2.51,2.52,2.54
29.48,-3.52,-6.06,-3.52,-6.06,6.06,5.96,7.00,2.54,2.54,2.55
29.78,-3.46,-5.99,-3.46,-6.00,6.03,5.95,7.07,2.57,2.56,2.54
30.08,-3.42,-5.96,-3.43,-5.97,6.00,5.94,7.13,2.58,2.57,2.55
30.38,-3.42,-5.95,-3.41,-5.95,5.97,5.94,7.19,2.56,2.56,2.54
30.68,-3.42,-5.95,-3.41,-5.95,5.96,5.93,7.23,2.54,2.54,2.54
30.99,-3.42,-5.95,-3.42,-5.95,5.95,5.93,7.26,2.53,2.53,2.54
31.30,-3.43,-5.95,-3.42,-5.95,5.94,5.93,7.29,2.52,2.52,2.53
31.61,-3.43,-5.95,-3.43,-5.95,5.95,5.92,7.30,2.52,2.52,2.53
31.93,-3.44,-5.96,-3.43,-5.96,5.95,5.92,7.30,2.51,2.52,2.53
32.24,-3.44,-5.95,-3.44,-5.96,5.95,5.92,7.30,2.52,2.52,2.52
32.57,-3.44,-5.95,-3.44,-5.95,5.95,5.92,7.28,2.52,2.51,2.52
32.89,-3.44,-5.95,-3.44,-5.95,5.95,5.92,7.25,2.51,2.51,2.52
33.22,-3.44,-5.94,-3.44,-5.94,5.94,5.92,7.22,2.51,2.51,2.51
33.55,-3.44,-5.94,-3.44,-5.94,5.94,5.92,7.18,2.50,2.50,2.51
33.89,-3.44,-5.93,-3.44,-5.93,5.93,5.92,7.13,2.50,2.50,2.50
34.23,-3.44,-5.93,-3.44,-5.93,5.93,5.92,7.08,2.49,2.49,2.50
34.57,-3.44,-5.92,-3.44,-5.92,5.92,5.92,7.02,2.49,2.49,2.49
34.92,-3.44,-5.92,-3.44,-5.92,5.92,5.93,6.95,2.48,2.48,2.49
35.27,-3.44,-5.91,-3.44,-5.91,5.92,5.93,6.88,2.48,2.48,2.48
35.62,-3.44,-5.91,-3.44,-5.91,5.91,5.93,6.81,2.48,2.48,2.48
35.97,-3.44,-5.91,-3.44,-5.91,5.91,5.93,6.73,2.47,2.47,2.48
36.33,-3.44,-5.91,-3.44,-5.91,5.91,5.94,6.66,2.47,2.47,2.48
36.70,-3.44,-5.90,-3.44,-5.91,5.90,5.94,6.58,2.46,2.46,2.47
37.06,-3.44,-5.90,-3.43,-5.90,5.89,5.94,6.50,2.46,2.46,2.47
37.43,-3.43,-5.90,-3.43,-5.90,5.89,5.95,6.42,2.47,2.47,2.48
37.81,-3.42,-5.89,-3.42,-5.89,5.89,5.95,6.34,2.48,2.47,2.48
38.19,-3.42,-5.88,-3.41,-5.89,5.90,5.96,6.26,2.48,2.49,2.47
38.57,-3.42,-5.89,-3.41,-5.89,5.91,5.96,6.19,2.50,2.50,2.48
38.95,-3.42,-5.90,-3.43,-5.91,5.93,5.96,6.11,2.51,2.50,2.49
39.34,-3.46,-5.93,-3.46,-5.94,5.94,5.97,6.04,2.49,2.48,2.48
39.74,-3.51,-5.98,-3.50,-5.98,5.96,5.97,5.97,2.46,2.46,2.48
40.14,-3.54,-6.01,-3.53,-6.00,5.98,5.97,5.91,2.44,2.45,2.48
40.54,-3.54,-6.01,-3.54,-6.01,5.99,5.98,5.84,2.46,2.45,2.48
40.94,-3.54,-6.00,-3.54,-6.01,6.00,5.98,5.78,2.47,2.46,2.47
41.35,-3.54,-6.00,-3.54,-6.00,6.01,5.98,5.73,2.47,2.47,2.47
41.76,-3.54,-5.99,-3.54,-5.99,6.00,5.98,5.67,2.47,2.47,2.46
42.18,-3.54,-5.99,-3.54,-5.99,5.99,5.98,5.63,2.46,2.46,2.46
42.60,-3.54,-5.98,-3.54,-5.98,5.98,5.99,5.58,2.45,2.45,2.45
43.03,-3.54,-5.97,-3.54,-5.97,5.97,5.99,5.54,2.43,2.43,2.44
43.46,-3.54,-5.96,-3.54,-5.96,5.95,5.99,5.50,2.42,2.42,2.43
43.90,-3.54,-5.94,-3.54,-5.94,5.94,5.98,5.47,2.40,2.40,2.41
44.33,-3.54,-5.92,-3.54,-5.92,5.93,5.98,5.44,2.39,2.39,2.39
44.78,-3.54,-5.90,-3.54,-5.91,5.91,5.98,5.41,2.37,2.37,2.37
45.23,-3.54,-5.89,-3.54,-5.89,5.89,5.98,5.39,2.35,2.35,2.36
45.68,-3.54,-5.88,-3.54,-5.88,5.87,5.97,5.37,2.34,2.34,2.35
46.13,-3.54,-5.86,-3.54,-5.87,5.86,5.97,5.36,2.33,2.33,2.33
46.60,-3.54,-5.86,-3.54,-5.85,5.86,5.96,5.35,2.32,2.32,2.33
47.06,-3.54,-5.84,-3.53,-5.84,5.86,5.95,5.35,2.32,2.33,2.31
47.53,-3.54,-5.83,-3.53,-5.83,5.86,5.94,5.34,2.32,2.32,2.30
48.01,-3.54,-5.83,-3.56,-5.85,5.86,5.94,5.35,2.32,2.30,2.30
48.49,-3.60,-5.87,-3.60,-5.87,5.85,5.92,5.35,2.26,2.26,2.28
48.97,-3.66,-5.91,-3.63,-5.89,5.85,5.91,5.36,2.20,2.22,2.26
49.46,-3.65,-5.88,-3.65,-5.88,5.85,5.90,5.37,2.21,2.21,2.24
49.96,-3.64,-5.85,-3.64,-5.86,5.86,5.89,5.38,2.22,2.22,2.22
50.46,-3.63,-5.83,-3.62,-5.83,5.86,5.87,5.40,2.24,2.24,2.21
50.96,-3.62,-5.81,-3.64,-5.83,5.87,5.86,5.42,2.25,2.23,2.20
51.47,-3.68,-5.85,-3.68,-5.85,5.87,5.84,5.44,2.19,2.19,2.18
51.99,-3.74,-5.90,-3.71,-5.88,5.87,5.82,5.46,2.13,2.16,2.17
52.51,-3.74,-5.89,-3.74,-5.90,5.87,5.80,5.49,2.13,2.13,2.16
53.03,-3.74,-5.89,-3.74,-5.89,5.87,5.78,5.51,2.13,2.13,2.16
53.56,-3.74,-5.87,-3.74,-5.87,5.87,5.76,5.54,2.13,2.13,2.14
54.10,-3.74,-5.86,-3.74,-5.86,5.87,5.73,5.56,2.13,2.13,2.13
54.64,-3.74,-5.84,-3.74,-5.85,5.86,5.71,5.59,2.12,2.12,2.11
55.18,-3.74,-5.84,-3.74,-5.84,5.84,5.68,5.61,2.11,2.11,2.11
55.74,-3.74,-5.82,-3.74,-5.83,5.83,5.65,5.63,2.09,2.09,2.09
56.29,-3.74,-5.81,-3.74,-5.81,5.81,5.62,5.65,2.08,2.08,2.08
56.86,-3.74,-5.80,-3.74,-5.79,5.80,5.59,5.67,2.06,2.06,2.07
57.42,-3.74,-5.77,-3.74,-5.78,5.78,5.56,5.69,2.05,2.05,2.04
58.00,-3.74,-5.76,-3.74,-5.76,5.77,5.53,5.70,2.03,2.03,2.03
58.58,-3.74,-5.75,-3.74,-5.75,5.75,5.50,5.71,2.01,2.01,2.02
59.16,-3.74,-5.73,-3.74,-5.73,5.73,5.46,5.72,1.99,1.99,2.00
59.76,-3.74,-5.71,-3.74,-5.71,5.70,5.43,5.72,1.97,1.97,1.98
60.35,-3.74,-5.67,-3.74,-5.67,5.68,5.39,5.71,1.94,1.94,1.94
60.96,-3.74,-5.63,-3.74,-5.63,5.65,5.35,5.70,1.91,1.91,1.90
61.57,-3.74,-5.59,-3.74,-5.59,5.61,5.31,5.69,1.87,1.87,1.86
62.18,-3.74,-5.55,-3.74,-5.55,5.55,5.27,5.67,1.82,1.82,1.82
62.80,-3.74,-5.50,-3.75,-5.52,5.49,5.23,5.64,1.75,1.74,1.77
63.43,-3.74,-5.46,-3.73,-5.46,5.42,5.19,5.61,1.68,1.69,1.73
64.07,-3.73,-5.40,-3.68,-5.36,5.35,5.15,5.57,1.62,1.66,1.68
64.71,-3.60,-5.23,-3.63,-5.26,5.27,5.10,5.52,1.67,1.64,1.64
65.35,-3.54,-5.13,-3.56,-5.15,5.18,5.06,5.47,1.64,1.62,1.60
66.01,-3.54,-5.08,-3.51,-5.05,5.09,5.02,5.42,1.55,1.58,1.55
66.67,-3.48,-4.97,-3.49,-4.98,4.99,4.97,5.36,1.51,1.50,1.50
67.33,-3.45,-4.89,-3.46,-4.91,4.89,4.92,5.30,1.44,1.43,1.45
68.01,-3.44,-4.84,-3.41,-4.82,4.79,4.88,5.23,1.35,1.38,1.41
68.69,-3.37,-4.72,-3.36,-4.72,4.70,4.83,5.16,1.33,1.34,1.36
69.37,-3.30,-4.60,-3.30,-4.61,4.61,4.78,5.08,1.32,1.31,1.31
70.07,-3.24,-4.49,-3.25,-4.51,4.53,4.73,5.00,1.30,1.28,1.26
70.77,-3.24,-4.44,-3.23,-4.44,4.46,4.68,4.92,1.23,1.23,1.21
71.48,-3.24,-4.39,-3.22,-4.37,4.40,4.63,4.84,1.16,1.17,1.16
72.19,-3.24,-4.32,-3.24,-4.33,4.34,4.58,4.76,1.10,1.11,1.09
72.91,-3.24,-4.26,-3.26,-4.29,4.29,4.53,4.67,1.06,1.03,1.03
73.64,-3.30,-4.27,-3.29,-4.26,4.25,4.48,4.59,0.95,0.96,0.98
74.38,-3.34,-4.25,-3.32,-4.23,4.21,4.43,4.50,0.88,0.89,0.92
75.12,-3.34,-4.19,-3.34,-4.20,4.17,4.38,4.41,0.84,0.83,0.86
75.87,-3.34,-4.13,-3.34,-4.14,4.13,4.33,4.33,0.79,0.79,0.80
76.63,-3.34,-4.08,-3.34,-4.08,4.08,4.28,4.24,0.75,0.75,0.75
77.40,-3.34,-4.03,-3.34,-4.03,4.04,4.22,4.15,0.70,0.70,0.70
78.17,-3.34,-3.97,-3.34,-3.98,3.98,4.17,4.07,0.65,0.65,0.64
78.95,-3.34,-3.93,-3.34,-3.93,3.93,4.12,3.99,0.59,0.59,0.60
79.74,-3.34,-3.88,-3.34,-3.88,3.88,4.07,3.91,0.54,0.54,0.55
80.54,-3.34,-3.83,-3.34,-3.83,3.82,4.02,3.83,0.49,0.49,0.50
81.35,-3.34,-3.78,-3.34,-3.78,3.78,3.97,3.75,0.44,0.44,0.45
82.16,-3.34,-3.73,-3.34,-3.74,3.74,3.91,3.67,0.40,0.40,0.40
82.98,-3.34,-3.69,-3.33,-3.68,3.70,3.86,3.60,0.36,0.36,0.36
83.81,-3.34,-3.64,-3.33,-3.64,3.66,3.81,3.53,0.32,0.32,0.31
84.65,-3.34,-3.59,-3.35,-3.61,3.62,3.76,3.46,0.29,0.27,0.26
85.50,-3.38,-3.59,-3.38,-3.59,3.59,3.71,3.39,0.21,0.21,0.22
86.35,-3.43,-3.59,-3.41,-3.58,3.56,3.66,3.33,0.13,0.15,0.17
87.22,-3.44,-3.55,-3.43,-3.54,3.53,3.61,3.27,0.10,0.11,0.12
88.09,-3.44,-3.50,-3.44,-3.50,3.51,3.56,3.21,0.07,0.07,0.07
88.97,-3.44,-3.44,-3.46,-3.47,3.48,3.51,3.15,0.04,0.02,0.01
89.86,-3.50,-3.45,-3.49,-3.44,3.45,3.46,3.10,-0.05,-0.04,-0.04
90.76,-3.53,-3.43,-3.52,-3.42,3.41,3.41,3.04,-0.11,-0.11,-0.09
91.66,-3.54,-3.39,-3.54,-3.39,3.37,3.36,2.99,-0.16,-0.17,-0.14
92.58,-3.54,-3.33,-3.54,-3.34,3.33,3.31,2.94,-0.21,-0.21,-0.20
93.51,-3.54,-3.28,-3.54,-3.29,3.29,3.26,2.90,-0.25,-0.25,-0.25
94.44,-3.54,-3.24,-3.54,-3.24,3.25,3.21,2.85,-0.29,-0.29,-0.29
95.39,-3.54,-3.19,-3.54,-3.19,3.20,3.16,2.81,-0.33,-0.33,-0.34
96.34,-3.54,-3.14,-3.54,-3.15,3.15,3.12,2.77,-0.39,-0.39,-0.39
97.30,-3.55,-3.10,-3.55,-3.10,3.10,3.07,2.74,-0.45,-0.45,-0.44
98.28,-3.56,-3.06,-3.55,-3.06,3.05,3.02,2.70,-0.51,-0.51,-0.49
99.26,-3.56,-3.02,-3.55,-3.01,3.00,2.98,2.67,-0.56,-0.55,-0.53
100.25,-3.54,-2.95,-3.53,-2.95,2.95,2.93,2.63,-0.59,-0.58,-0.58
101.25,-3.51,-2.87,-3.52,-2.88,2.90,2.89,2.60,-0.60,-0.62,-0.63
102.27,-3.52,-2.83,-3.51,-2.83,2.85,2.84,2.57,-0.66,-0.66,-0.68
103.29,-3.53,-2.79,-3.53,-2.80,2.80,2.80,2.55,-0.72,-0.72,-0.73
104.32,-3.55,-2.77,-3.55,-2.77,2.75,2.75,2.52,-0.79,-0.79,-0.77
105.37,-3.57,-2.74,-3.55,-2.73,2.71,2.71,2.50,-0.86,-0.85,-0.82
106.42,-3.56,-2.68,-3.55,-2.67,2.66,2.67,2.47,-0.89,-0.89,-0.87
107.48,-3.53,-2.59,-3.54,-2.61,2.62,2.62,2.45,-0.90,-0.92,-0.93
108.56,-3.55,-2.56,-3.55,-2.56,2.58,2.58,2.43,-0.96,-0.96,-0.98
109.64,-3.57,-2.53,-3.56,-2.52,2.54,2.54,2.40,-1.03,-1.02,-1.03
110.74,-3.59,-2.49,-3.58,-2.50,2.49,2.50,2.38,-1.09,-1.09,-1.09
111.85,-3.60,-2.46,-3.60,-2.46,2.45,2.46,2.36,-1.15,-1.15,-1.13
112.97,-3.61,-2.41,-3.61,-2.42,2.40,2.42,2.34,-1.20,-1.21,-1.19
114.10,-3.62,-2.37,-3.62,-2.37,2.36,2.38,2.32,-1.26,-1.26,-1.24
115.24,-3.62,-2.32,-3.61,-2.32,2.31,2.34,2.30,-1.30,-1.30,-1.29
116.39,-3.62,-2.27,-3.60,-2.26,2.27,2.30,2.28,-1.35,-1.33,-1.34
117.55,-3.58,-2.19,-3.59,-2.21,2.22,2.26,2.26,-1.35,-1.37,-1.38
118.73,-3.59,-2.16,-3.59,-2.17,2.17,2.22,2.24,-1.41,-1.42,-1.42
119.92,-3.60,-2.14,-3.59,-2.13,2.13,2.19,2.21,-1.47,-1.46,-1.45
121.12,-3.60,-2.10,-3.59,-2.10,2.09,2.15,2.19,-1.51,-1.50,-1.49
122.33,-3.59,-2.06,-3.59,-2.06,2.06,2.12,2.17,-1.53,-1.53,-1.52
123.55,-3.58,-2.02,-3.57,-2.02,2.03,2.08,2.14,-1.54,-1.54,-1.55
124.79,-3.57,-1.98,-3.57,-1.99,2.01,2.04,2.12,-1.56,-1.56,-1.58
126.03,-3.57,-1.95,-3.58,-1.97,1.99,2.01,2.09,-1.58,-1.60,-1.61
127.29,-3.62,-1.98,-3.61,-1.97,1.97,1.98,2.06,-1.65,-1.64,-1.63
128.57,-3.65,-1.97,-3.63,-1.96,1.94,1.94,2.03,-1.70,-1.69,-1.67
129.85,-3.65,-1.94,-3.65,-1.94,1.92,1.91,2.00,-1.73,-1.73,-1.70
131.15,-3.64,-1.90,-3.64,-1.91,1.89,1.88,1.97,-1.74,-1.75,-1.73
132.46,-3.64,-1.87,-3.63,-1.87,1.87,1.84,1.94,-1.77,-1.77,-1.76
133.79,-3.63,-1.83,-3.63,-1.84,1.84,1.81,1.91,-1.78,-1.79,-1.79
135.12,-3.63,-1.80,-3.62,-1.80,1.82,1.78,1.88,-1.81,-1.80,-1.82
136.48,-3.63,-1.78,-3.62,-1.77,1.80,1.75,1.84,-1.83,-1.82,-1.84
137.84,-3.62,-1.73,-3.64,-1.76,1.78,1.72,1.81,-1.84,-1.86,-1.88
139.22,-3.68,-1.76,-3.67,-1.76,1.76,1.69,1.77,-1.92,-1.91,-1.91
140.61,-3.72,-1.77,-3.70,-1.76,1.75,1.66,1.74,-1.97,-1.95,-1.94
142.02,-3.72,-1.75,-3.72,-1.75,1.73,1.63,1.70,-1.99,-1.99,-1.96
143.44,-3.72,-1.72,-3.72,-1.72,1.71,1.61,1.67,-2.01,-2.01,-1.99
144.87,-3.72,-1.68,-3.72,-1.68,1.68,1.58,1.63,-2.03,-2.03,-2.03
146.32,-3.72,-1.64,-3.72,-1.65,1.65,1.55,1.60,-2.06,-2.06,-2.07
147.78,-3.72,-1.61,-3.72,-1.61,1.61,1.52,1.56,-2.11,-2.11,-2.10
149.26,-3.72,-1.56,-3.72,-1.56,1.55,1.50,1.52,-2.16,-2.16,-2.15
150.75,-3.72,-1.50,-3.72,-1.50,1.49,1.47,1.49,-2.22,-2.22,-2.21
152.26,-3.72,-1.43,-3.72,-1.43,1.42,1.45,1.45,-2.29,-2.29,-2.28
153.78,-3.72,-1.36,-3.72,-1.36,1.35,1.42,1.42,-2.36,-2.36,-2.35
155.32,-3.72,-1.29,-3.72,-1.29,1.28,1.40,1.38,-2.43,-2.43,-2.42
156.88,-3.72,-1.21,-3.71,-1.21,1.22,1.37,1.35,-2.50,-2.50,-2.50
158.44,-3.72,-1.13,-3.71,-1.13,1.15,1.35,1.32,-2.56,-2.56,-2.58
160.03,-3.72,-1.05,-3.73,-1.07,1.10,1.32,1.28,-2.62,-2.63,-2.66
161.63,-3.76,-1.02,-3.76,-1.03,1.04,1.30,1.25,-2.71,-2.71,-2.73
163.24,-3.80,-1.00,-3.79,-1.00,0.99,1.28,1.22,-2.80,-2.80,-2.79
164.88,-3.83,-0.98,-3.82,-0.98,0.95,1.26,1.19,-2.88,-2.88,-2.84
166.53,-3.83,-0.93,-3.83,-0.94,0.90,1.24,1.16,-2.92,-2.93,-2.89
168.19,-3.84,-0.90,-3.82,-0.88,0.87,1.21,1.13,-2.97,-2.95,-2.93
169.87,-3.80,-0.82,-3.80,-0.83,0.83,1.19,1.10,-2.96,-2.96,-2.97
171.57,-3.76,-0.76,-3.77,-0.78,0.80,1.17,1.07,-2.95,-2.97,-2.99
173.29,-3.76,-0.75,-3.75,-0.75,0.78,1.15,1.04,-2.98,-2.98,-3.00
175.02,-3.76,-0.74,-3.76,-0.74,0.76,1.13,1.01,-3.00,-3.00,-3.01
176.77,-3.77,-0.74,-3.76,-0.74,0.74,1.11,0.99,-3.02,-3.02,-3.02
178.54,-3.77,-0.73,-3.76,-0.74,0.73,1.09,0.96,-3.03,-3.03,-3.03
180.32,-3.76,-0.73,-3.76,-0.74,0.73,1.08,0.93,-3.03,-3.04,-3.02
182.13,-3.76,-0.74,-3.75,-0.73,0.72,1.06,0.91,-3.04,-3.03,-3.01
183.95,-3.75,-0.72,-3.74,-0.72,0.71,1.04,0.89,-3.04,-3.03,-3.02
185.79,-3.73,-0.70,-3.73,-0.70,0.69,1.02,0.86,-3.03,-3.04,-3.02
187.65,-3.72,-0.67,-3.71,-0.67,0.67,1.01,0.84,-3.05,-3.04,-3.04
189.52,-3.70,-0.64,-3.70,-0.64,0.64,0.99,0.82,-3.05,-3.06,-3.05
191.42,-3.69,-0.61,-3.69,-0.61,0.61,0.97,0.80,-3.07,-3.07,-3.07
193.33,-3.68,-0.58,-3.67,-0.58,0.58,0.96,0.77,-3.10,-3.09,-3.09
195.27,-3.66,-0.54,-3.66,-0.55,0.55,0.94,0.75,-3.11,-3.11,-3.11
197.22,-3.65,-0.51,-3.65,-0.51,0.51,0.93,0.73,-3.13,-3.13,-3.13
199.19,-3.64,-0.48,-3.64,-0.48,0.48,0.91,0.72,-3.15,-3.15,-3.15
201.18,-3.63,-0.45,-3.63,-0.45,0.46,0.90,0.70,-3.17,-3.17,-3.17
203.19,-3.63,-0.43,-3.62,-0.43,0.43,0.88,0.68,-3.20,-3.19,-3.19
205.23,-3.62,-0.40,-3.62,-0.41,0.41,0.87,0.66,-3.21,-3.21,-3.21
207.28,-3.62,-0.39,-3.62,-0.39,0.39,0.86,0.65,-3.23,-3.23,-3.22
209.35,-3.62,-0.37,-3.62,-0.37,0.37,0.84,0.63,-3.25,-3.25,-3.24
211.44,-3.63,-0.35,-3.62,-0.35,0.36,0.83,0.61,-3.27,-3.27,-3.27
213.56,-3.63,-0.34,-3.63,-0.34,0.34,0.82,0.60,-3.28,-3.28,-3.28
215.69,-3.63,-0.33,-3.63,-0.34,0.33,0.81,0.59,-3.29,-3.30,-3.29
217.85,-3.64,-0.33,-3.63,-0.32,0.32,0.79,0.57,-3.31,-3.31,-3.30
220.03,-3.64,-0.32,-3.64,-0.32,0.32,0.78,0.56,-3.32,-3.32,-3.31
222.23,-3.64,-0.29,-3.64,-0.31,0.31,0.77,0.55,-3.32,-3.33,-3.34
224.45,-3.65,-0.31,-3.64,-0.30,0.31,0.76,0.54,-3.34,-3.33,-3.33
226.70,-3.64,-0.30,-3.64,-0.30,0.31,0.75,0.52,-3.33,-3.33,-3.33
228.96,-3.64,-0.31,-3.63,-0.31,0.30,0.74,0.51,-3.33,-3.33,-3.32
231.25,-3.63,-0.31,-3.63,-0.31,0.31,0.73,0.50,-3.32,-3.32,-3.31
233.57,-3.62,-0.31,-3.62,-0.31,0.31,0.72,0.49,-3.31,-3.31,-3.30
235.90,-3.61,-0.31,-3.60,-0.31,0.31,0.71,0.49,-3.29,-3.29,-3.29
238.26,-3.59,-0.30,-3.59,-0.31,0.32,0.71,0.48,-3.27,-3.27,-3.28
240.64,-3.58,-0.32,-3.58,-0.32,0.32,0.70,0.47,-3.25,-3.25,-3.25
243.05,-3.57,-0.34,-3.56,-0.33,0.33,0.69,0.46,-3.24,-3.23,-3.22
245.48,-3.55,-0.34,-3.54,-0.34,0.33,0.68,0.46,-3.21,-3.21,-3.20
247.93,-3.52,-0.34,-3.52,-0.34,0.34,0.68,0.45,-3.18,-3.18,-3.17
250.41,-3.50,-0.34,-3.50,-0.34,0.35,0.67,0.45,-3.15,-3.15,-3.15
252.92,-3.48,-0.35,-3.48,-0.35,0.35,0.67,0.44,-3.12,-3.12,-3.12
255.45,-3.47,-0.36,-3.47,-0.36,0.37,0.66,0.44,-3.10,-3.10,-3.10
258.00,-3.46,-0.37,-3.46,-0.37,0.38,0.66,0.44,-3.08,-3.08,-3.08
260.58,-3.46,-0.39,-3.45,-0.39,0.39,0.65,0.44,-3.06,-3.06,-3.06
263.19,-3.45,-0.41,-3.45,-0.41,0.42,0.65,0.44,-3.03,-3.04,-3.03
265.82,-3.46,-0.44,-3.45,-0.44,0.44,0.65,0.43,-3.02,-3.01,-3.01
268.48,-3.46,-0.46,-3.46,-0.46,0.47,0.64,0.43,-2.99,-2.99,-2.99
271.16,-3.46,-0.49,-3.46,-0.49,0.49,0.64,0.44,-2.97,-2.97,-2.96
273.87,-3.47,-0.52,-3.46,-0.52,0.52,0.64,0.44,-2.95,-2.95,-2.94
276.61,-3.47,-0.55,-3.47,-0.55,0.54,0.64,0.44,-2.92,-2.92,-2.91
279.38,-3.47,-0.58,-3.46,-0.58,0.57,0.64,0.44,-2.90,-2.89,-2.88
282.17,-3.46,-0.59,-3.46,-0.60,0.60,0.64,0.44,-2.85,-2.86,-2.86
284.99,-3.46,-0.63,-3.45,-0.61,0.64,0.64,0.45,-2.82,-2.81,-2.82
287.84,-3.45,-0.64,-3.45,-0.65,0.67,0.64,0.45,-2.78,-2.78,-2.80
290.72,-3.44,-0.66,-3.47,-0.70,0.70,0.64,0.46,-2.74,-2.77,-2.77
293.63,-3.52,-0.77,-3.49,-0.74,0.73,0.65,0.46,-2.79,-2.76,-2.74
296.57,-3.52,-0.80,-3.51,-0.79,0.76,0.65,0.47,-2.75,-2.74,-2.71
299.53,-3.50,-0.81,-3.51,-0.82,0.80,0.65,0.47,-2.70,-2.71,-2.68
302.53,-3.49,-0.82,-3.49,-0.83,0.83,0.66,0.48,-2.66,-2.65,-2.66
305.55,-3.48,-0.85,-3.47,-0.84,0.87,0.67,0.49,-2.61,-2.60,-2.62
308.61,-3.47,-0.86,-3.47,-0.87,0.90,0.67,0.50,-2.57,-2.57,-2.60
311.69,-3.48,-0.90,-3.49,-0.92,0.93,0.68,0.50,-2.55,-2.56,-2.57
314.81,-3.54,-0.98,-3.52,-0.97,0.96,0.69,0.51,-2.58,-2.56,-2.55
317.96,-3.56,-1.02,-3.55,-1.01,0.99,0.70,0.52,-2.57,-2.56,-2.53
321.14,-3.56,-1.03,-3.56,-1.04,1.02,0.71,0.53,-2.54,-2.54,-2.52
324.35,-3.56,-1.05,-3.56,-1.05,1.05,0.73,0.54,-2.51,-2.51,-2.50
327.59,-3.56,-1.06,-3.56,-1.06,1.08,0.74,0.56,-2.48,-2.48,-2.49
330.87,-3.56,-1.07,-3.56,-1.08,1.09,0.75,0.57,-2.46,-2.46,-2.48
334.18,-3.57,-1.10,-3.56,-1.10,1.10,0.77,0.58,-2.46,-2.46,-2.46
337.52,-3.57,-1.11,-3.57,-1.11,1.11,0.79,0.59,-2.46,-2.46,-2.45
340.90,-3.57,-1.12,-3.57,-1.13,1.10,0.81,0.61,-2.47,-2.47,-2.44
344.30,-3.57,-1.13,-3.56,-1.12,1.09,0.82,0.62,-2.47,-2.46,-2.43
347.75,-3.54,-1.10,-3.53,-1.10,1.08,0.84,0.63,-2.45,-2.44,-2.43
351.23,-3.49,-1.06,-3.49,-1.06,1.07,0.87,0.65,-2.41,-2.42,-2.42
354.74,-3.46,-1.02,-3.47,-1.04,1.07,0.89,0.66,-2.39,-2.40,-2.43
358.28,-3.46,-1.03,-3.45,-1.02,1.06,0.91,0.68,-2.40,-2.39,-2.42
361.87,-3.46,-1.03,-3.45,-1.02,1.05,0.93,0.70,-2.40,-2.40,-2.42
365.49,-3.45,-1.03,-3.46,-1.04,1.04,0.95,0.71,-2.40,-2.42,-2.41
369.14,-3.48,-1.05,-3.49,-1.06,1.04,0.98,0.73,-2.44,-2.45,-2.42
372.83,-3.52,-1.09,-3.49,-1.07,1.03,1.00,0.75,-2.48,-2.46,-2.42
376.56,-3.50,-1.06,-3.48,-1.05,1.03,1.02,0.77,-2.47,-2.45,-2.43
380.33,-3.43,-1.00,-3.45,-1.02,1.02,1.04,0.79,-2.41,-2.43,-2.42
384.13,-3.41,-0.98,-3.41,-0.98,1.00,1.06,0.81,-2.40,-2.41,-2.42
387.97,-3.41,-0.97,-3.40,-0.97,0.99,1.08,0.82,-2.42,-2.41,-2.43
391.85,-3.40,-0.95,-3.40,-0.96,0.97,1.09,0.84,-2.42,-2.43,-2.44
395.77,-3.40,-0.96,-3.40,-0.96,0.96,1.10,0.86,-2.44,-2.44,-2.43
399.73,-3.40,-0.95,-3.40,-0.95,0.95,1.11,0.88,-2.45,-2.45,-2.44
403.72,-3.40,-0.95,-3.40,-0.95,0.94,1.11,0.90,-2.45,-2.45,-2.44
407.76,-3.41,-0.94,-3.40,-0.94,0.94,1.11,0.92,-2.46,-2.46,-2.46
411.84,-3.41,-0.94,-3.41,-0.94,0.94,1.11,0.94,-2.46,-2.46,-2.46
415.96,-3.41,-0.94,-3.41,-0.94,0.94,1.10,0.96,-2.46,-2.46,-2.46
420.12,-3.41,-0.94,-3.41,-0.94,0.94,1.09,0.98,-2.46,-2.47,-2.46
424.32,-3.41,-0.94,-3.40,-0.94,0.94,1.08,1.00,-2.47,-2.47,-2.46
428.56,-3.40,-0.94,-3.39,-0.94,0.94,1.06,1.01,-2.46,-2.46,-2.45
432.85,-3.38,-0.93,-3.38,-0.93,0.93,1.03,1.03,-2.45,-2.45,-2.44
437.18,-3.35,-0.91,-3.35,-0.92,0.92,1.01,1.04,-2.42,-2.43,-2.43
441.55,-3.32,-0.92,-3.32,-0.91,0.91,0.98,1.06,-2.40,-2.40,-2.39
445.96,-3.28,-0.91,-3.27,-0.90,0.90,0.95,1.07,-2.37,-2.37,-2.36
450.42,-3.22,-0.88,-3.22,-0.89,0.90,0.92,1.08,-2.32,-2.32,-2.33
454.93,-3.16,-0.87,-3.16,-0.87,0.88,0.88,1.09,-2.27,-2.27,-2.28
459.48,-3.10,-0.85,-3.10,-0.86,0.86,0.85,1.10,-2.23,-2.23,-2.24
464.07,-3.04,-0.84,-3.05,-0.85,0.84,0.81,1.11,-2.20,-2.21,-2.19
468.71,-2.99,-0.85,-2.97,-0.83,0.81,0.77,1.11,-2.18,-2.16,-2.13
473.40,-2.91,-0.81,-2.90,-0.81,0.78,0.74,1.11,-2.13,-2.12,-2.09
478.13,-2.78,-0.74,-2.80,-0.76,0.74,0.70,1.11,-2.03,-2.05,-2.03
