frequency,raw,error,smoothed,error_smoothed,equalization,parametric_eq,fixed_band_eq,equalized_raw,equalized_smoothed,target
20.00,-1.90,-1.56,-1.89,-1.57,1.57,1.28,0.08,-0.34,-0.32,-0.35
20.20,-1.84,-1.55,-1.83,-1.55,1.55,1.21,0.09,-0.29,-0.28,-0.30
20.40,-1.78,-1.54,-1.78,-1.54,1.54,1.15,0.09,-0.25,-0.24,-0.25
20.61,-1.73,-1.51,-1.73,-1.52,1.52,1.08,0.10,-0.21,-0.21,-0.22
20.81,-1.66,-1.50,-1.68,-1.50,1.50,1.02,0.10,-0.16,-0.18,-0.17
21.02,-1.60,-1.48,-1.63,-1.48,1.48,0.96,0.10,-0.13,-0.15,-0.13
21.23,-1.56,-1.46,-1.58,-1.45,1.45,0.90,0.11,-0.11,-0.13,-0.11
21.44,-1.51,-1.43,-1.53,-1.43,1.43,0.84,0.11,-0.09,-0.10,-0.09
21.66,-1.48,-1.41,-1.48,-1.40,1.40,0.79,0.12,-0.08,-0.08,-0.07
21.87,-1.43,-1.38,-1.43,-1.37,1.37,0.73,0.12,-0.07,-0.06,-0.06
22.09,-1.39,-1.36,-1.38,-1.33,1.33,0.68,0.13,-0.06,-0.05,-0.04
22.31,-1.34,-1.32,-1.33,-1.30,1.30,0.63,0.13,-0.05,-0.03,-0.03
22.54,-1.30,-1.27,-1.29,-1.26,1.26,0.59,0.14,-0.04,-0.03,-0.03
22.76,-1.24,-1.22,-1.24,-1.22,1.22,0.54,0.14,-0.03,-0.03,-0.03
22.99,-1.19,-1.16,-1.20,-1.18,1.18,0.50,0.15,-0.02,-0.02,-0.04
23.22,-1.15,-1.12,-1.16,-1.13,1.13,0.46,0.15,-0.02,-0.02,-0.04
23.45,-1.10,-1.07,-1.11,-1.09,1.09,0.42,0.16,-0.02,-0.02,-0.04
23.69,-1.06,-1.03,-1.07,-1.04,1.04,0.39,0.17,-0.01,-0.02,-0.03
23.92,-1.01,-0.99,-1.02,-1.00,1.00,0.35,0.17,-0.02,-0.02,-0.03
24.16,-0.96,-0.94,-0.97,-0.95,0.95,0.32,0.18,-0.02,-0.02,-0.03
24.40,-0.92,-0.91,-0.92,-0.90,0.90,0.29,0.18,-0.03,-0.02,-0.02
24.65,-0.88,-0.85,-0.86,-0.84,0.84,0.26,0.19,-0.04,-0.02,-0.03
24.89,-0.83,-0.81,-0.80,-0.78,0.78,0.24,0.19,-0.05,-0.02,-0.03
25.14,-0.78,-0.76,-0.75,-0.72,0.72,0.21,0.20,-0.06,-0.02,-0.03
25.39,-0.72,-0.71,-0.69,-0.67,0.67,0.18,0.20,-0.05,-0.02,-0.02
25.65,-0.67,-0.65,-0.65,-0.63,0.63,0.16,0.21,-0.04,-0.02,-0.02
25.91,-0.61,-0.58,-0.61,-0.58,0.58,0.14,0.22,-0.02,-0.02,-0.03
26.16,-0.54,-0.52,-0.57,-0.54,0.54,0.12,0.22,-0.00,-0.02,-0.03
26.43,-0.48,-0.45,-0.53,-0.50,0.50,0.10,0.22,0.03,-0.02,-0.03
26.69,-0.41,-0.39,-0.49,-0.46,0.46,0.08,0.23,0.05,-0.03,-0.03
26.96,-0.35,-0.32,-0.45,-0.43,0.43,0.06,0.23,0.08,-0.03,-0.03
27.23,-0.36,-0.34,-0.42,-0.39,0.39,0.04,0.23,0.02,-0.03,-0.03
27.50,-0.39,-0.37,-0.38,-0.35,0.35,0.02,0.24,-0.04,-0.03,-0.03
27.77,-0.43,-0.39,-0.35,-0.32,0.32,0.01,0.24,-0.11,-0.03,-0.04
28.05,-0.44,-0.41,-0.32,-0.29,0.29,-0.01,0.24,-0.16,-0.03,-0.04
28.33,-0.37,-0.33,-0.29,-0.26,0.26,-0.03,0.24,-0.12,-0.04,-0.05
28.62,-0.31,-0.26,-0.27,-0.23,0.23,-0.04,0.24,-0.07,-0.04,-0.05
28.90,-0.22,-0.19,-0.25,-0.21,0.21,-0.06,0.24,-0.02,-0.04,-0.04
29.19,-0.17,-0.13,-0.22,-0.18,0.18,-0.07,0.23,0.01,-0.04,-0.05
29.48,-0.14,-0.11,-0.19,-0.15,0.15,-0.08,0.23,0.01,-0.04,-0.04
29.78,-0.11,-0.06,-0.16,-0.12,0.12,-0.10,0.23,0.01,-0.04,-0.05
30.08,-0.08,-0.04,-0.12,-0.08,0.08,-0.11,0.22,0.00,-0.04,-0.04
30.38,-0.06,-0.02,-0.07,-0.03,0.03,-0.13,0.21,-0.04,-0.05,-0.05
30.68,-0.06,-0.02,-0.02,0.02,-0.02,-0.14,0.20,-0.09,-0.05,-0.05
30.99,-0.05,-0.01,0.02,0.07,-0.07,-0.15,0.19,-0.12,-0.05,-0.05
31.30,0.00,0.06,0.06,0.11,-0.11,-0.16,0.18,-0.10,-0.05,-0.06
31.61,0.07,0.12,0.09,0.15,-0.15,-0.18,0.17,-0.08,-0.05,-0.06
31.93,0.12,0.18,0.13,0.18,-0.18,-0.19,0.16,-0.06,-0.06,-0.06
32.24,0.18,0.24,0.16,0.22,-0.22,-0.20,0.14,-0.05,-0.06,-0.07
32.57,0.23,0.30,0.20,0.26,-0.26,-0.21,0.12,-0.03,-0.07,-0.07
32.89,0.30,0.36,0.24,0.31,-0.31,-0.23,0.11,-0.01,-0.07,-0.07
33.22,0.32,0.39,0.28,0.35,-0.35,-0.24,0.09,-0.04,-0.07,-0.08
33.55,0.32,0.39,0.31,0.39,-0.39,-0.25,0.07,-0.08,-0.08,-0.08
33.89,0.32,0.40,0.34,0.43,-0.43,-0.26,0.05,-0.11,-0.08,-0.09
34.23,0.35,0.43,0.37,0.46,-0.46,-0.28,0.02,-0.11,-0.09,-0.09
34.57,0.39,0.48,0.40,0.49,-0.49,-0.29,-0.00,-0.10,-0.09,-0.10
34.92,0.43,0.53,0.42,0.52,-0.52,-0.30,-0.03,-0.08,-0.10,-0.10
35.27,0.46,0.57,0.45,0.55,-0.55,-0.31,-0.05,-0.08,-0.10,-0.11
35.62,0.49,0.59,0.47,0.58,-0.58,-0.32,-0.08,-0.09,-0.10,-0.11
35.97,0.52,0.62,0.50,0.60,-0.60,-0.34,-0.11,-0.09,-0.11,-0.11
36.33,0.50,0.61,0.52,0.63,-0.63,-0.35,-0.13,-0.12,-0.11,-0.11
36.70,0.49,0.60,0.55,0.65,-0.65,-0.36,-0.16,-0.17,-0.11,-0.12
37.06,0.50,0.61,0.57,0.68,-0.68,-0.38,-0.19,-0.18,-0.11,-0.12
37.43,0.59,0.69,0.60,0.71,-0.71,-0.39,-0.22,-0.12,-0.11,-0.11
37.81,0.67,0.77,0.62,0.73,-0.73,-0.40,-0.26,-0.07,-0.11,-0.11
38.19,0.71,0.83,0.64,0.75,-0.75,-0.42,-0.29,-0.03,-0.11,-0.12
38.57,0.72,0.82,0.66,0.77,-0.77,-0.43,-0.32,-0.05,-0.11,-0.11
38.95,0.72,0.81,0.68,0.79,-0.79,-0.44,-0.35,-0.07,-0.11,-0.10
39.34,0.71,0.81,0.71,0.81,-0.81,-0.46,-0.39,-0.11,-0.11,-0.11
39.74,0.70,0.80,0.73,0.84,-0.84,-0.47,-0.42,-0.14,-0.11,-0.11
40.14,0.71,0.81,0.76,0.86,-0.86,-0.49,-0.46,-0.16,-0.11,-0.11
40.54,0.75,0.86,0.78,0.89,-0.89,-0.50,-0.50,-0.13,-0.11,-0.11
40.94,0.81,0.92,0.80,0.91,-0.91,-0.52,-0.53,-0.11,-0.11,-0.12
41.35,0.82,0.93,0.82,0.94,-0.94,-0.53,-0.57,-0.12,-0.12,-0.12
41.76,0.82,0.94,0.83,0.96,-0.96,-0.55,-0.61,-0.14,-0.12,-0.13
42.18,0.85,0.97,0.85,0.98,-0.98,-0.56,-0.65,-0.14,-0.13,-0.13
42.60,0.91,1.04,0.87,1.01,-1.01,-0.58,-0.69,-0.11,-0.14,-0.14
43.03,0.96,1.10,0.90,1.05,-1.05,-0.60,-0.73,-0.10,-0.15,-0.15
43.46,0.93,1.08,0.92,1.08,-1.08,-0.61,-0.77,-0.16,-0.17,-0.16
43.90,0.91,1.08,0.93,1.11,-1.11,-0.63,-0.81,-0.21,-0.18,-0.18
44.33,0.93,1.12,0.95,1.14,-1.14,-0.65,-0.85,-0.21,-0.19,-0.20
44.78,0.96,1.18,0.96,1.16,-1.16,-0.67,-0.89,-0.20,-0.20,-0.22
45.23,0.99,1.22,0.97,1.19,-1.19,-0.68,-0.94,-0.19,-0.22,-0.23
45.68,1.01,1.24,0.98,1.21,-1.21,-0.70,-0.98,-0.21,-0.23,-0.24
46.13,1.02,1.27,1.00,1.25,-1.25,-0.72,-1.02,-0.23,-0.24,-0.26
46.60,1.02,1.27,1.02,1.28,-1.28,-0.74,-1.07,-0.26,-0.26,-0.26
47.06,1.02,1.29,1.04,1.31,-1.31,-0.76,-1.11,-0.30,-0.27,-0.28
47.53,1.02,1.30,1.06,1.35,-1.35,-0.78,-1.16,-0.33,-0.29,-0.29
48.01,1.02,1.30,1.08,1.38,-1.38,-0.80,-1.20,-0.37,-0.30,-0.29
48.49,1.06,1.37,1.10,1.42,-1.42,-0.83,-1.25,-0.35,-0.32,-0.31
48.97,1.12,1.44,1.12,1.45,-1.45,-0.85,-1.30,-0.34,-0.33,-0.33
49.46,1.17,1.51,1.14,1.48,-1.48,-0.87,-1.35,-0.32,-0.34,-0.35
49.96,1.21,1.58,1.16,1.51,-1.51,-0.90,-1.39,-0.30,-0.36,-0.37
50.46,1.22,1.59,1.17,1.54,-1.54,-0.92,-1.44,-0.33,-0.37,-0.38
50.96,1.22,1.60,1.19,1.57,-1.57,-0.94,-1.49,-0.36,-0.38,-0.39
51.47,1.22,1.62,1.20,1.60,-1.60,-0.97,-1.54,-0.38,-0.40,-0.41
51.99,1.22,1.63,1.22,1.62,-1.62,-1.00,-1.59,-0.41,-0.41,-0.42
52.51,1.22,1.64,1.23,1.65,-1.65,-1.02,-1.63,-0.43,-0.42,-0.43
53.03,1.22,1.64,1.24,1.67,-1.67,-1.05,-1.68,-0.46,-0.43,-0.43
53.56,1.22,1.66,1.24,1.68,-1.68,-1.08,-1.73,-0.47,-0.45,-0.45
54.10,1.22,1.67,1.23,1.69,-1.69,-1.11,-1.78,-0.47,-0.46,-0.46
54.64,1.22,1.69,1.23,1.69,-1.69,-1.14,-1.82,-0.48,-0.47,-0.48
55.18,1.22,1.69,1.22,1.70,-1.70,-1.17,-1.87,-0.48,-0.48,-0.48
55.74,1.22,1.71,1.21,1.70,-1.70,-1.20,-1.91,-0.48,-0.49,-0.50
56.29,1.22,1.72,1.20,1.70,-1.70,-1.23,-1.95,-0.49,-0.50,-0.51
56.86,1.22,1.73,1.19,1.70,-1.70,-1.26,-1.99,-0.49,-0.52,-0.52
57.42,1.21,1.75,1.17,1.71,-1.71,-1.29,-2.03,-0.50,-0.53,-0.55
58.00,1.19,1.74,1.16,1.71,-1.71,-1.33,-2.07,-0.52,-0.55,-0.56
58.58,1.13,1.69,1.14,1.71,-1.71,-1.36,-2.10,-0.59,-0.58,-0.57
59.16,1.10,1.68,1.12,1.72,-1.72,-1.40,-2.14,-0.63,-0.60,-0.59
59.76,1.13,1.74,1.10,1.73,-1.73,-1.44,-2.17,-0.60,-0.63,-0.61
60.35,1.10,1.75,1.09,1.75,-1.75,-1.47,-2.20,-0.64,-0.66,-0.65
60.96,1.03,1.71,1.07,1.76,-1.76,-1.51,-2.23,-0.74,-0.69,-0.69
61.57,1.02,1.74,1.05,1.78,-1.78,-1.55,-2.25,-0.77,-0.73,-0.73
62.18,1.02,1.78,1.04,1.80,-1.80,-1.59,-2.27,-0.79,-0.77,-0.77
62.80,1.02,1.83,1.02,1.83,-1.83,-1.63,-2.29,-0.82,-0.81,-0.82
63.43,1.02,1.87,1.01,1.86,-1.86,-1.67,-2.31,-0.85,-0.85,-0.86
64.07,1.02,1.92,1.01,1.90,-1.90,-1.72,-2.32,-0.89,-0.89,-0.91
64.71,1.02,1.96,1.00,1.94,-1.94,-1.76,-2.34,-0.93,-0.94,-0.95
65.35,1.03,2.01,1.00,1.99,-1.99,-1.80,-2.35,-0.96,-0.99,-0.99
66.01,1.04,2.07,1.00,2.03,-2.03,-1.85,-2.36,-1.00,-1.03,-1.04
66.67,1.00,2.08,1.00,2.08,-2.08,-1.89,-2.36,-1.09,-1.08,-1.09
67.33,0.98,2.11,1.00,2.13,-2.13,-1.94,-2.37,-1.16,-1.13,-1.14
68.01,0.97,2.14,1.01,2.18,-2.18,-1.99,-2.37,-1.22,-1.18,-1.18
68.69,1.02,2.24,1.01,2.24,-2.24,-2.04,-2.37,-1.22,-1.23,-1.23
69.37,1.03,2.30,1.01,2.29,-2.29,-2.08,-2.37,-1.27,-1.28,-1.28
70.07,1.02,2.34,1.02,2.35,-2.35,-2.13,-2.37,-1.33,-1.33,-1.33
70.77,1.02,2.39,1.02,2.40,-2.40,-2.18,-2.37,-1.39,-1.39,-1.38
71.48,1.02,2.44,1.02,2.46,-2.46,-2.23,-2.37,-1.44,-1.44,-1.43
72.19,1.02,2.51,1.01,2.51,-2.51,-2.28,-2.37,-1.50,-1.50,-1.50
72.91,1.02,2.57,1.02,2.57,-2.57,-2.34,-2.37,-1.55,-1.55,-1.56
73.64,1.02,2.62,1.02,2.62,-2.62,-2.39,-2.36,-1.61,-1.61,-1.61
74.38,1.02,2.68,1.01,2.68,-2.68,-2.44,-2.36,-1.66,-1.66,-1.67
75.12,1.02,2.74,1.01,2.73,-2.73,-2.49,-2.36,-1.71,-1.72,-1.73
75.87,1.02,2.80,0.99,2.77,-2.77,-2.54,-2.36,-1.75,-1.78,-1.79
76.63,0.99,2.82,0.98,2.81,-2.81,-2.59,-2.36,-1.82,-1.83,-1.84
77.40,0.94,2.82,0.96,2.84,-2.84,-2.64,-2.36,-1.91,-1.88,-1.89
78.17,0.89,2.83,0.94,2.87,-2.87,-2.69,-2.37,-1.99,-1.94,-1.95
78.95,0.92,2.90,0.90,2.89,-2.89,-2.74,-2.37,-1.97,-1.99,-1.99
79.74,0.91,2.95,0.86,2.89,-2.89,-2.79,-2.37,-1.98,-2.04,-2.04
80.54,0.87,2.95,0.82,2.91,-2.91,-2.84,-2.38,-2.04,-2.08,-2.09
81.35,0.79,2.92,0.78,2.91,-2.91,-2.88,-2.39,-2.13,-2.13,-2.14
82.16,0.74,2.92,0.74,2.92,-2.92,-2.93,-2.40,-2.18,-2.18,-2.19
82.98,0.71,2.94,0.69,2.91,-2.91,-2.97,-2.41,-2.20,-2.23,-2.23
83.81,0.62,2.89,0.64,2.91,-2.91,-3.01,-2.42,-2.30,-2.28,-2.28
84.65,0.61,2.93,0.59,2.91,-2.91,-3.05,-2.44,-2.31,-2.32,-2.33
85.50,0.50,2.86,0.54,2.91,-2.91,-3.09,-2.46,-2.42,-2.37,-2.37
86.35,0.38,2.79,0.49,2.91,-2.91,-3.12,-2.48,-2.53,-2.42,-2.42
87.22,0.39,2.85,0.44,2.91,-2.91,-3.15,-2.50,-2.52,-2.47,-2.47
88.09,0.42,2.93,0.38,2.91,-2.91,-3.18,-2.52,-2.49,-2.52,-2.52
88.97,0.45,3.02,0.33,2.91,-2.91,-3.21,-2.54,-2.46,-2.57,-2.58
89.86,0.24,2.86,0.28,2.91,-2.91,-3.23,-2.57,-2.67,-2.62,-2.63
90.76,0.20,2.87,0.23,2.90,-2.90,-3.25,-2.60,-2.71,-2.67,-2.68
91.66,0.19,2.91,0.17,2.90,-2.90,-3.27,-2.63,-2.71,-2.72,-2.73
92.58,0.15,2.93,0.11,2.89,-2.89,-3.28,-2.66,-2.74,-2.78,-2.79
93.51,0.07,2.90,0.05,2.88,-2.88,-3.29,-2.70,-2.82,-2.83,-2.84
94.44,0.01,2.88,-0.01,2.87,-2.87,-3.30,-2.74,-2.86,-2.88,-2.88
95.39,-0.04,2.88,-0.08,2.85,-2.85,-3.30,-2.77,-2.89,-2.93,-2.93
96.34,-0.11,2.86,-0.15,2.83,-2.83,-3.30,-2.81,-2.94,-2.98,-2.98
97.30,-0.22,2.81,-0.22,2.81,-2.81,-3.29,-2.86,-3.02,-3.02,-3.03
98.28,-0.31,2.76,-0.30,2.77,-2.77,-3.28,-2.90,-3.09,-3.07,-3.08
99.26,-0.42,2.69,-0.38,2.73,-2.73,-3.27,-2.94,-3.16,-3.12,-3.12
100.25,-0.46,2.70,-0.46,2.71,-2.71,-3.25,-2.99,-3.17,-3.17,-3.17
101.25,-0.55,2.67,-0.54,2.67,-2.67,-3.23,-3.03,-3.22,-3.22,-3.22
102.27,-0.60,2.66,-0.62,2.65,-2.65,-3.21,-3.08,-3.25,-3.26,-3.27
103.29,-0.68,2.63,-0.69,2.62,-2.62,-3.18,-3.13,-3.31,-3.31,-3.32
104.32,-0.76,2.59,-0.77,2.59,-2.59,-3.16,-3.17,-3.35,-3.36,-3.36
105.37,-0.79,2.61,-0.85,2.56,-2.56,-3.12,-3.22,-3.36,-3.41,-3.41
106.42,-0.79,2.66,-0.91,2.56,-2.56,-3.09,-3.26,-3.35,-3.46,-3.46
107.48,-0.98,2.54,-0.95,2.57,-2.57,-3.05,-3.31,-3.54,-3.52,-3.52
108.56,-1.15,2.41,-0.98,2.59,-2.59,-3.01,-3.35,-3.74,-3.57,-3.57
109.64,-1.10,2.51,-1.00,2.62,-2.62,-2.97,-3.39,-3.72,-3.62,-3.62
110.74,-0.97,2.70,-1.01,2.66,-2.66,-2.93,-3.43,-3.64,-3.67,-3.68
111.85,-1.00,2.71,-1.01,2.71,-2.71,-2.88,-3.47,-3.72,-3.72,-3.72
112.97,-1.06,2.71,-1.02,2.76,-2.76,-2.83,-3.50,-3.82,-3.77,-3.78
114.10,-1.15,2.67,-1.00,2.82,-2.82,-2.78,-3.53,-3.97,-3.82,-3.83
115.24,-1.10,2.77,-0.98,2.89,-2.89,-2.73,-3.56,-3.99,-3.87,-3.88
116.39,-0.88,3.04,-0.95,2.96,-2.96,-2.68,-3.58,-3.85,-3.91,-3.93
117.55,-0.76,3.20,-0.94,3.02,-3.02,-2.63,-3.60,-3.79,-3.96,-3.97
118.73,-0.83,3.17,-0.92,3.08,-3.08,-2.58,-3.61,-3.91,-4.00,-4.01
119.92,-0.85,3.18,-0.89,3.14,-3.14,-2.53,-3.62,-3.99,-4.03,-4.04
121.12,-0.84,3.23,-0.88,3.19,-3.19,-2.47,-3.62,-4.03,-4.07,-4.08
122.33,-0.85,3.25,-0.90,3.21,-3.21,-2.42,-3.62,-4.06,-4.10,-4.11
123.55,-0.95,3.18,-0.91,3.23,-3.23,-2.36,-3.61,-4.18,-4.14,-4.14
124.79,-0.96,3.20,-0.93,3.24,-3.24,-2.31,-3.60,-4.21,-4.17,-4.17
126.03,-0.82,3.38,-0.95,3.24,-3.24,-2.26,-3.57,-4.06,-4.20,-4.20
127.29,-0.95,3.27,-0.99,3.24,-3.24,-2.20,-3.55,-4.19,-4.23,-4.22
128.57,-1.09,3.16,-1.03,3.23,-3.23,-2.15,-3.51,-4.32,-4.26,-4.26
129.85,-1.21,3.07,-1.08,3.21,-3.21,-2.10,-3.47,-4.42,-4.29,-4.29
131.15,-1.13,3.18,-1.12,3.19,-3.19,-2.04,-3.43,-4.33,-4.31,-4.32
132.46,-1.13,3.22,-1.18,3.17,-3.17,-1.99,-3.38,-4.29,-4.34,-4.35
133.79,-1.31,3.06,-1.24,3.13,-3.13,-1.94,-3.32,-4.45,-4.37,-4.38
135.12,-1.34,3.06,-1.30,3.10,-3.10,-1.89,-3.26,-4.44,-4.40,-4.41
136.48,-1.28,3.14,-1.36,3.07,-3.07,-1.84,-3.19,-4.35,-4.43,-4.43
137.84,-1.47,2.99,-1.42,3.04,-3.04,-1.79,-3.12,-4.51,-4.45,-4.47
139.22,-1.44,3.05,-1.50,2.99,-2.99,-1.74,-3.05,-4.43,-4.48,-4.50
140.61,-1.39,3.13,-1.58,2.93,-2.93,-1.69,-2.97,-4.33,-4.51,-4.53
142.02,-1.61,2.93,-1.65,2.89,-2.89,-1.64,-2.89,-4.51,-4.55,-4.55
143.44,-1.78,2.79,-1.73,2.85,-2.85,-1.59,-2.80,-4.64,-4.58,-4.58
144.87,-1.90,2.71,-1.80,2.81,-2.81,-1.54,-2.71,-4.72,-4.62,-4.62
146.32,-2.02,2.63,-1.89,2.77,-2.77,-1.50,-2.63,-4.79,-4.66,-4.66
147.78,-1.97,2.71,-1.99,2.73,-2.73,-1.45,-2.53,-4.70,-4.71,-4.69
149.26,-2.00,2.73,-2.08,2.68,-2.68,-1.41,-2.44,-4.69,-4.76,-4.74
150.75,-2.16,2.64,-2.19,2.63,-2.63,-1.36,-2.35,-4.79,-4.82,-4.80
152.26,-2.34,2.52,-2.31,2.58,-2.58,-1.32,-2.25,-4.92,-4.89,-4.87
153.78,-2.51,2.42,-2.44,2.51,-2.51,-1.28,-2.16,-5.03,-4.95,-4.94
155.32,-2.50,2.50,-2.58,2.44,-2.44,-1.24,-2.06,-4.94,-5.02,-5.01
156.88,-2.56,2.52,-2.72,2.37,-2.37,-1.19,-1.97,-4.93,-5.09,-5.09
158.44,-2.70,2.47,-2.84,2.32,-2.32,-1.15,-1.87,-5.02,-5.16,-5.17
160.03,-2.83,2.41,-2.94,2.29,-2.29,-1.11,-1.77,-5.12,-5.23,-5.25
161.63,-3.10,2.21,-3.05,2.24,-2.24,-1.07,-1.68,-5.35,-5.29,-5.32
163.24,-3.28,2.10,-3.17,2.18,-2.18,-1.03,-1.58,-5.46,-5.36,-5.38
164.88,-3.40,2.02,-3.29,2.12,-2.12,-1.00,-1.48,-5.52,-5.41,-5.43
166.53,-3.49,1.98,-3.39,2.07,-2.07,-0.96,-1.39,-5.56,-5.46,-5.48
168.19,-3.68,1.83,-3.47,2.03,-2.03,-0.92,-1.29,-5.72,-5.50,-5.52
169.87,-3.71,1.84,-3.53,2.00,-2.00,-0.88,-1.20,-5.72,-5.53,-5.56
171.57,-3.63,1.94,-3.60,1.96,-1.96,-0.85,-1.10,-5.59,-5.56,-5.58
173.29,-3.58,2.00,-3.68,1.90,-1.90,-0.81,-1.01,-5.48,-5.58,-5.59
175.02,-3.47,2.12,-3.75,1.84,-1.84,-0.77,-0.92,-5.32,-5.59,-5.60
176.77,-3.68,1.92,-3.81,1.79,-1.79,-0.74,-0.83,-5.48,-5.60,-5.61
178.54,-3.94,1.67,-3.86,1.74,-1.74,-0.70,-0.73,-5.69,-5.61,-5.62
180.32,-3.99,1.61,-3.92,1.70,-1.70,-0.67,-0.64,-5.69,-5.61,-5.61
182.13,-3.92,1.67,-3.98,1.64,-1.64,-0.63,-0.55,-5.56,-5.62,-5.60
183.95,-3.83,1.77,-4.05,1.57,-1.57,-0.60,-0.46,-5.41,-5.62,-5.61
185.79,-4.02,1.58,-4.13,1.50,-1.50,-0.56,-0.37,-5.53,-5.63,-5.61
187.65,-4.27,1.35,-4.21,1.43,-1.43,-0.53,-0.28,-5.70,-5.64,-5.63
189.52,-4.50,1.13,-4.31,1.34,-1.34,-0.49,-0.20,-5.84,-5.65,-5.64
191.42,-4.51,1.14,-4.41,1.25,-1.25,-0.45,-0.11,-5.76,-5.66,-5.66
193.33,-4.51,1.16,-4.51,1.16,-1.16,-0.42,-0.02,-5.68,-5.68,-5.68
195.27,-4.59,1.10,-4.61,1.08,-1.08,-0.38,0.06,-5.68,-5.69,-5.70
197.22,-4.69,1.02,-4.70,1.01,-1.01,-0.35,0.15,-5.71,-5.71,-5.72
199.19,-4.78,0.95,-4.80,0.93,-0.93,-0.31,0.23,-5.72,-5.73,-5.74
201.18,-4.90,0.85,-4.91,0.84,-0.84,-0.27,0.32,-5.75,-5.75,-5.76
203.19,-4.98,0.79,-5.02,0.75,-0.75,-0.24,0.40,-5.73,-5.77,-5.78
205.23,-5.05,0.74,-5.12,0.67,-0.67,-0.20,0.48,-5.73,-5.79,-5.80
207.28,-5.17,0.63,-5.21,0.61,-0.61,-0.16,0.56,-5.78,-5.81,-5.81
209.35,-5.31,0.51,-5.29,0.54,-0.54,-0.12,0.64,-5.85,-5.83,-5.83
211.44,-5.43,0.43,-5.40,0.45,-0.45,-0.08,0.71,-5.88,-5.85,-5.86
213.56,-5.54,0.32,-5.52,0.34,-0.34,-0.04,0.79,-5.89,-5.86,-5.87
215.69,-5.70,0.18,-5.64,0.24,-0.24,0.00,0.86,-5.93,-5.88,-5.88
217.85,-5.80,0.08,-5.76,0.13,-0.13,0.04,0.93,-5.93,-5.89,-5.89
220.03,-5.87,0.02,-5.89,0.01,-0.01,0.09,1.00,-5.88,-5.90,-5.90
222.23,-5.94,-0.02,-6.02,-0.11,0.11,0.13,1.06,-5.83,-5.91,-5.93
224.45,-6.01,-0.10,-6.13,-0.22,0.22,0.18,1.13,-5.79,-5.91,-5.92
226.70,-6.12,-0.21,-6.23,-0.33,0.33,0.23,1.19,-5.80,-5.91,-5.92
228.96,-6.36,-0.45,-6.34,-0.44,0.44,0.28,1.24,-5.92,-5.90,-5.91
231.25,-6.55,-0.66,-6.45,-0.56,0.56,0.33,1.30,-6.00,-5.89,-5.90
233.57,-6.68,-0.80,-6.56,-0.68,0.68,0.38,1.35,-6.01,-5.88,-5.89
235.90,-6.72,-0.85,-6.66,-0.79,0.79,0.44,1.39,-5.93,-5.87,-5.88
238.26,-6.73,-0.87,-6.76,-0.91,0.91,0.50,1.43,-5.83,-5.85,-5.87
240.64,-6.94,-1.11,-6.84,-1.01,1.01,0.56,1.47,-5.93,-5.83,-5.84
243.05,-6.93,-1.13,-6.93,-1.12,1.12,0.62,1.51,-5.82,-5.81,-5.81
245.48,-6.88,-1.10,-7.02,-1.23,1.23,0.68,1.54,-5.66,-5.79,-5.79
247.93,-6.95,-1.19,-7.09,-1.33,1.33,0.75,1.56,-5.62,-5.76,-5.76
250.41,-7.10,-1.36,-7.14,-1.40,1.40,0.82,1.58,-5.69,-5.74,-5.74
252.92,-7.37,-1.67,-7.19,-1.48,1.48,0.89,1.60,-5.90,-5.72,-5.71
255.45,-7.42,-1.74,-7.24,-1.55,1.55,0.97,1.61,-5.88,-5.69,-5.69
258.00,-7.25,-1.59,-7.29,-1.63,1.63,1.04,1.62,-5.63,-5.67,-5.67
260.58,-7.28,-1.64,-7.37,-1.72,1.72,1.12,1.62,-5.56,-5.64,-5.65
263.19,-7.38,-1.77,-7.44,-1.82,1.82,1.21,1.62,-5.57,-5.62,-5.62
265.82,-7.44,-1.85,-7.51,-1.92,1.92,1.30,1.62,-5.53,-5.59,-5.60
268.48,-7.56,-1.99,-7.57,-2.00,2.00,1.38,1.61,-5.56,-5.57,-5.58
271.16,-7.58,-2.04,-7.64,-2.09,2.09,1.48,1.60,-5.49,-5.54,-5.55
273.87,-7.51,-1.98,-7.70,-2.18,2.18,1.57,1.58,-5.32,-5.52,-5.53
276.61,-7.65,-2.15,-7.75,-2.25,2.25,1.67,1.57,-5.39,-5.49,-5.50
279.38,-7.93,-2.47,-7.77,-2.30,2.30,1.77,1.55,-5.63,-5.47,-5.47
282.17,-7.92,-2.48,-7.79,-2.35,2.35,1.86,1.52,-5.57,-5.44,-5.45
284.99,-7.92,-2.52,-7.82,-2.41,2.41,1.96,1.50,-5.52,-5.41,-5.41
287.84,-7.99,-2.61,-7.83,-2.45,2.45,2.06,1.47,-5.54,-5.38,-5.39
290.72,-7.81,-2.46,-7.82,-2.47,2.47,2.16,1.45,-5.35,-5.35,-5.36
293.63,-7.84,-2.52,-7.79,-2.47,2.47,2.25,1.42,-5.38,-5.32,-5.33
296.57,-7.76,-2.47,-7.75,-2.45,2.45,2.34,1.39,-5.31,-5.29,-5.30
299.53,-7.68,-2.42,-7.70,-2.44,2.44,2.42,1.35,-5.25,-5.27,-5.27
302.53,-7.70,-2.46,-7.67,-2.43,2.43,2.50,1.32,-5.27,-5.24,-5.25
305.55,-7.51,-2.31,-7.63,-2.41,2.41,2.56,1.29,-5.10,-5.21,-5.21
308.61,-7.40,-2.22,-7.56,-2.37,2.37,2.62,1.26,-5.03,-5.19,-5.19
311.69,-7.55,-2.40,-7.49,-2.33,2.33,2.67,1.22,-5.22,-5.16,-5.16
314.81,-7.37,-2.24,-7.44,-2.30,2.30,2.70,1.19,-5.07,-5.14,-5.14
317.96,-7.27,-2.16,-7.40,-2.28,2.28,2.72,1.16,-5.00,-5.12,-5.12
321.14,-7.32,-2.22,-7.36,-2.26,2.26,2.73,1.13,-5.07,-5.10,-5.11
324.35,-7.34,-2.26,-7.33,-2.25,2.25,2.73,1.09,-5.10,-5.09,-5.09
327.59,-7.35,-2.28,-7.30,-2.23,2.23,2.71,1.06,-5.12,-5.07,-5.08
330.87,-7.41,-2.35,-7.28,-2.22,2.22,2.67,1.03,-5.20,-5.06,-5.07
334.18,-7.37,-2.33,-7.25,-2.21,2.21,2.63,1.00,-5.17,-5.05,-5.05
337.52,-7.14,-2.11,-7.23,-2.19,2.19,2.57,0.97,-4.95,-5.04,-5.04
340.90,-7.10,-2.08,-7.21,-2.18,2.18,2.50,0.94,-4.92,-5.03,-5.03
344.30,-7.14,-2.13,-7.19,-2.17,2.17,2.43,0.91,-4.98,-5.02,-5.02
347.75,-7.15,-2.14,-7.16,-2.14,2.14,2.34,0.89,-5.02,-5.02,-5.02
351.23,-7.15,-2.15,-7.12,-2.11,2.11,2.25,0.86,-5.05,-5.01,-5.01
354.74,-7.10,-2.09,-7.08,-2.07,2.07,2.16,0.83,-5.03,-5.01,-5.02
358.28,-7.05,-2.05,-7.04,-2.03,2.03,2.06,0.81,-5.02,-5.00,-5.01
361.87,-6.97,-1.97,-6.98,-1.97,1.97,1.96,0.78,-5.00,-5.00,-5.01
365.49,-6.93,-1.94,-6.92,-1.92,1.92,1.86,0.76,-5.02,-5.00,-5.00
369.14,-6.92,-1.92,-6.88,-1.87,1.87,1.76,0.74,-5.05,-5.00,-5.01
372.83,-6.85,-1.85,-6.83,-1.83,1.83,1.66,0.71,-5.03,-5.00,-5.01
376.56,-6.81,-1.80,-6.78,-1.78,1.78,1.56,0.69,-5.04,-5.01,-5.02
380.33,-6.72,-1.72,-6.72,-1.72,1.72,1.46,0.67,-5.01,-5.01,-5.01
384.13,-6.54,-1.54,-6.67,-1.66,1.66,1.37,0.65,-4.89,-5.01,-5.01
387.97,-6.51,-1.50,-6.61,-1.59,1.59,1.27,0.63,-4.92,-5.02,-5.02
391.85,-6.64,-1.62,-6.54,-1.52,1.52,1.18,0.61,-5.13,-5.02,-5.03
395.77,-6.45,-1.44,-6.49,-1.46,1.46,1.09,0.59,-5.00,-5.03,-5.02
399.73,-6.31,-1.29,-6.43,-1.39,1.39,1.01,0.57,-4.92,-5.03,-5.03
403.72,-6.43,-1.41,-6.36,-1.32,1.32,0.93,0.56,-5.12,-5.04,-5.03
407.76,-6.41,-1.37,-6.29,-1.25,1.25,0.85,0.54,-5.16,-5.04,-5.05
411.84,-6.17,-1.13,-6.24,-1.19,1.19,0.77,0.52,-4.98,-5.05,-5.05
415.96,-6.11,-1.07,-6.18,-1.13,1.13,0.69,0.50,-4.98,-5.05,-5.05
420.12,-6.16,-1.12,-6.10,-1.06,1.06,0.62,0.49,-5.11,-5.04,-5.05
424.32,-6.06,-1.02,-6.01,-0.98,0.98,0.55,0.47,-5.09,-5.04,-5.05
428.56,-5.83,-0.80,-5.94,-0.91,0.91,0.48,0.45,-4.93,-5.03,-5.04
432.85,-5.82,-0.80,-5.84,-0.83,0.83,0.42,0.43,-4.99,-5.01,-5.03
437.18,-5.87,-0.86,-5.74,-0.75,0.75,0.36,0.41,-5.13,-4.99,-5.02
441.55,-5.59,-0.62,-5.65,-0.68,0.68,0.29,0.40,-4.92,-4.97,-4.98
445.96,-5.50,-0.56,-5.53,-0.60,0.60,0.23,0.38,-4.91,-4.93,-4.95
