frequency,raw,error,smoothed,error_smoothed,equalization,parametric_eq,fixed_band_eq,equalized_raw,equalized_smoothed,target
20.00,-7.79,-13.14,-7.80,-13.16,13.16,13.34,4.83,5.37,5.37,5.34
20.20,-7.73,-13.08,-7.74,-13.10,13.10,13.24,4.96,5.37,5.36,5.34
20.40,-7.69,-13.04,-7.68,-13.03,13.03,13.15,5.08,5.34,5.35,5.34
20.61,-7.63,-12.98,-7.63,-12.97,12.97,13.05,5.22,5.33,5.34,5.34
20.81,-7.56,-12.91,-7.57,-12.90,12.90,12.95,5.35,5.34,5.33,5.34
21.02,-7.51,-12.85,-7.51,-12.83,12.83,12.86,5.49,5.32,5.32,5.34
21.23,-7.44,-12.76,-7.45,-12.76,12.76,12.76,5.63,5.31,5.31,5.32
21.44,-7.39,-12.70,-7.39,-12.68,12.68,12.66,5.78,5.29,5.29,5.31
21.66,-7.33,-12.62,-7.33,-12.61,12.61,12.57,5.93,5.27,5.28,5.29
21.87,-7.27,-12.54,-7.27,-12.53,12.53,12.47,6.08,5.26,5.26,5.27
22.09,-7.20,-12.46,-7.20,-12.45,12.45,12.37,6.24,5.25,5.25,5.26
22.31,-7.14,-12.37,-7.14,-12.37,12.37,12.28,6.40,5.23,5.23,5.23
22.54,-7.08,-12.29,-7.07,-12.28,12.28,12.18,6.57,5.20,5.21,5.21
22.76,-7.00,-12.19,-7.01,-12.20,12.20,12.08,6.74,5.19,5.19,5.19
22.99,-6.94,-12.10,-6.94,-12.11,12.11,11.99,6.92,5.16,5.16,5.16
23.22,-6.88,-12.01,-6.88,-12.02,12.02,11.89,7.10,5.14,5.14,5.13
23.45,-6.80,-11.91,-6.81,-11.93,11.93,11.80,7.28,5.13,5.12,5.11
23.69,-6.74,-11.84,-6.74,-11.84,11.84,11.71,7.47,5.10,5.10,5.10
23.92,-6.67,-11.75,-6.67,-11.75,11.75,11.61,7.67,5.08,5.08,5.07
24.16,-6.60,-11.66,-6.61,-11.66,11.66,11.52,7.86,5.06,5.06,5.06
24.40,-6.54,-11.58,-6.54,-11.58,11.58,11.43,8.07,5.04,5.04,5.04
24.65,-6.47,-11.49,-6.47,-11.49,11.49,11.34,8.27,5.02,5.02,5.02
24.89,-6.40,-11.40,-6.40,-11.40,11.40,11.25,8.48,5.00,5.00,5.00
25.14,-6.33,-11.32,-6.33,-11.32,11.32,11.15,8.70,4.98,4.98,4.99
25.39,-6.26,-11.23,-6.26,-11.23,11.23,11.07,8.91,4.97,4.97,4.97
25.65,-6.19,-11.15,-6.19,-11.14,11.14,10.98,9.14,4.95,4.95,4.96
25.91,-6.12,-11.05,-6.12,-11.06,11.06,10.89,9.36,4.93,4.94,4.93
26.16,-6.05,-10.97,-6.05,-10.97,10.97,10.80,9.58,4.92,4.92,4.91
26.43,-5.98,-10.89,-5.98,-10.88,10.88,10.71,9.81,4.90,4.90,4.90
26.69,-5.91,-10.79,-5.91,-10.79,10.79,10.63,10.04,4.88,4.89,4.88
26.96,-5.83,-10.70,-5.84,-10.71,10.71,10.54,10.26,4.87,4.87,4.87
27.23,-5.76,-10.62,-5.76,-10.62,10.62,10.46,10.49,4.86,4.86,4.86
27.50,-5.69,-10.54,-5.69,-10.53,10.53,10.37,10.71,4.84,4.84,4.85
27.77,-5.62,-10.45,-5.62,-10.45,10.45,10.29,10.92,4.82,4.83,4.83
28.05,-5.54,-10.36,-5.55,-10.36,10.36,10.20,11.13,4.82,4.81,4.82
28.33,-5.47,-10.27,-5.47,-10.27,10.27,10.12,11.34,4.80,4.80,4.79
28.62,-5.39,-10.18,-5.40,-10.19,10.19,10.04,11.53,4.79,4.79,4.78
28.90,-5.33,-10.10,-5.33,-10.10,10.10,9.96,11.71,4.77,4.77,4.77
29.19,-5.26,-10.01,-5.26,-10.01,10.01,9.88,11.88,4.75,4.76,4.75
29.48,-5.18,-9.93,-5.18,-9.93,9.93,9.80,12.02,4.75,4.74,4.75
29.78,-5.11,-9.85,-5.11,-9.84,9.84,9.72,12.16,4.73,4.73,4.73
30.08,-5.04,-9.77,-5.04,-9.76,9.76,9.64,12.27,4.72,4.72,4.72
30.38,-4.98,-9.68,-4.98,-9.68,9.68,9.56,12.36,4.69,4.70,4.70
30.68,-4.90,-9.59,-4.91,-9.59,9.59,9.48,12.42,4.69,4.68,4.69
30.99,-4.83,-9.50,-4.84,-9.51,9.51,9.41,12.46,4.68,4.67,4.67
31.30,-4.77,-9.43,-4.78,-9.43,9.43,9.33,12.48,4.66,4.65,4.65
31.61,-4.71,-9.35,-4.72,-9.35,9.35,9.25,12.47,4.64,4.63,4.64
31.93,-4.65,-9.27,-4.65,-9.27,9.27,9.18,12.43,4.62,4.61,4.62
32.24,-4.59,-9.18,-4.59,-9.19,9.19,9.10,12.37,4.60,4.60,4.59
32.57,-4.53,-9.11,-4.54,-9.11,9.11,9.03,12.29,4.58,4.57,4.57
32.89,-4.48,-9.04,-4.48,-9.03,9.03,8.95,12.19,4.55,4.55,4.56
33.22,-4.42,-8.95,-4.42,-8.96,8.96,8.88,12.07,4.53,4.53,4.53
33.55,-4.37,-8.89,-4.37,-8.88,8.88,8.81,11.93,4.51,4.51,4.51
33.89,-4.31,-8.80,-4.31,-8.80,8.80,8.73,11.77,4.49,4.49,4.49
34.23,-4.26,-8.73,-4.26,-8.73,8.73,8.66,11.61,4.46,4.47,4.47
34.57,-4.20,-8.65,-4.20,-8.65,8.65,8.59,11.43,4.45,4.45,4.44
34.92,-4.15,-8.57,-4.15,-8.57,8.57,8.52,11.25,4.42,4.43,4.42
35.27,-4.09,-8.50,-4.09,-8.50,8.50,8.45,11.06,4.41,4.40,4.41
35.62,-4.04,-8.43,-4.04,-8.42,8.42,8.38,10.86,4.38,4.38,4.38
35.97,-3.98,-8.34,-3.99,-8.35,8.35,8.31,10.66,4.37,4.36,4.36
36.33,-3.93,-8.28,-3.93,-8.27,8.27,8.24,10.46,4.34,4.34,4.34
36.70,-3.88,-8.20,-3.88,-8.20,8.20,8.17,10.26,4.31,4.32,4.32
37.06,-3.82,-8.12,-3.83,-8.12,8.12,8.10,10.06,4.30,4.30,4.30
37.43,-3.77,-8.05,-3.77,-8.05,8.05,8.03,9.87,4.28,4.27,4.28
37.81,-3.72,-7.98,-3.72,-7.97,7.97,7.96,9.67,4.25,4.25,4.26
38.19,-3.66,-7.89,-3.67,-7.90,7.90,7.89,9.48,4.24,4.23,4.23
38.57,-3.62,-7.84,-3.61,-7.83,7.83,7.82,9.29,4.20,4.21,4.21
38.95,-3.56,-7.75,-3.56,-7.75,7.75,7.75,9.10,4.19,4.19,4.19
39.34,-3.51,-7.68,-3.51,-7.68,7.68,7.69,8.92,4.17,4.17,4.16
39.74,-3.46,-7.60,-3.46,-7.61,7.61,7.62,8.74,4.15,4.15,4.14
40.14,-3.41,-7.54,-3.41,-7.54,7.54,7.55,8.57,4.13,4.13,4.13
40.54,-3.36,-7.47,-3.36,-7.47,7.47,7.48,8.40,4.11,4.11,4.11
40.94,-3.30,-7.39,-3.31,-7.40,7.40,7.42,8.24,4.10,4.09,4.09
41.35,-3.26,-7.32,-3.26,-7.33,7.33,7.35,8.08,4.07,4.07,4.06
41.76,-3.20,-7.26,-3.21,-7.26,7.26,7.28,7.92,4.06,4.05,4.05
42.18,-3.16,-7.20,-3.17,-7.19,7.19,7.22,7.78,4.03,4.03,4.04
42.60,-3.12,-7.13,-3.12,-7.13,7.13,7.15,7.63,4.01,4.01,4.01
43.03,-3.07,-7.07,-3.07,-7.06,7.06,7.08,7.50,3.99,3.99,4.00
43.46,-3.03,-7.00,-3.03,-6.99,6.99,7.02,7.37,3.96,3.97,3.97
43.90,-2.98,-6.93,-2.98,-6.93,6.93,6.95,7.24,3.95,3.95,3.94
44.33,-2.93,-6.86,-2.94,-6.87,6.87,6.89,7.12,3.93,3.93,3.92
44.78,-2.90,-6.81,-2.89,-6.80,6.80,6.82,7.00,3.90,3.91,3.91
45.23,-2.85,-6.73,-2.85,-6.74,6.74,6.75,6.89,3.88,3.89,3.88
45.68,-2.81,-6.67,-2.81,-6.67,6.67,6.69,6.78,3.86,3.86,3.86
46.13,-2.76,-6.60,-2.77,-6.61,6.61,6.62,6.68,3.85,3.84,3.83
46.60,-2.72,-6.55,-2.72,-6.54,6.54,6.56,6.58,3.82,3.82,3.82
47.06,-2.68,-6.48,-2.68,-6.48,6.48,6.49,6.49,3.80,3.80,3.80
47.53,-2.63,-6.41,-2.64,-6.41,6.41,6.43,6.40,3.78,3.77,3.78
48.01,-2.60,-6.37,-2.60,-6.35,6.35,6.36,6.31,3.75,3.75,3.77
48.49,-2.56,-6.30,-2.56,-6.29,6.29,6.30,6.23,3.73,3.73,3.74
48.97,-2.52,-6.23,-2.52,-6.23,6.23,6.23,6.15,3.70,3.70,3.70
49.46,-2.48,-6.15,-2.48,-6.16,6.16,6.16,6.08,3.68,3.68,3.67
49.96,-2.44,-6.08,-2.44,-6.10,6.10,6.10,6.01,3.65,3.66,3.64
50.46,-2.40,-6.03,-2.40,-6.03,6.03,6.03,5.94,3.63,3.63,3.63
50.96,-2.36,-5.97,-2.37,-5.97,5.97,5.97,5.88,3.61,3.60,3.61
51.47,-2.33,-5.90,-2.33,-5.90,5.90,5.90,5.82,3.57,3.58,3.57
51.99,-2.29,-5.84,-2.29,-5.84,5.84,5.84,5.76,3.55,3.55,3.55
52.51,-2.25,-5.78,-2.25,-5.78,5.78,5.77,5.70,3.52,3.52,3.53
53.03,-2.21,-5.71,-2.21,-5.71,5.71,5.70,5.65,3.50,3.50,3.50
53.56,-2.17,-5.65,-2.18,-5.65,5.65,5.64,5.59,3.47,3.47,3.47
54.10,-2.13,-5.58,-2.14,-5.58,5.58,5.57,5.54,3.45,3.44,3.45
54.64,-2.10,-5.52,-2.10,-5.52,5.52,5.51,5.49,3.42,3.42,3.42
55.18,-2.07,-5.46,-2.06,-5.46,5.46,5.44,5.44,3.38,3.39,3.39
55.74,-2.03,-5.39,-2.03,-5.39,5.39,5.37,5.39,3.36,3.36,3.36
56.29,-1.99,-5.33,-1.99,-5.33,5.33,5.31,5.34,3.33,3.33,3.34
56.86,-1.95,-5.26,-1.96,-5.26,5.26,5.24,5.29,3.31,3.31,3.31
57.42,-1.92,-5.20,-1.92,-5.20,5.20,5.17,5.24,3.28,3.28,3.27
58.00,-1.88,-5.13,-1.89,-5.14,5.14,5.11,5.18,3.25,3.25,3.25
58.58,-1.85,-5.07,-1.85,-5.07,5.07,5.04,5.13,3.22,3.22,3.22
59.16,-1.81,-5.00,-1.82,-5.01,5.01,4.97,5.07,3.19,3.19,3.19
59.76,-1.78,-4.95,-1.78,-4.94,4.94,4.91,5.02,3.16,3.16,3.17
60.35,-1.75,-4.88,-1.75,-4.88,4.88,4.84,4.96,3.13,3.13,3.13
60.96,-1.72,-4.84,-1.72,-4.81,4.81,4.77,4.90,3.09,3.10,3.11
61.57,-1.68,-4.75,-1.69,-4.75,4.75,4.70,4.83,3.07,3.07,3.07
62.18,-1.65,-4.68,-1.65,-4.69,4.69,4.63,4.77,3.04,3.03,3.03
62.80,-1.62,-4.62,-1.62,-4.63,4.63,4.57,4.70,3.00,3.00,3.00
63.43,-1.59,-4.55,-1.59,-4.56,4.56,4.50,4.63,2.97,2.97,2.96
64.07,-1.56,-4.49,-1.56,-4.50,4.50,4.43,4.55,2.94,2.94,2.93
64.71,-1.53,-4.44,-1.53,-4.44,4.44,4.36,4.47,2.91,2.91,2.91
65.35,-1.50,-4.38,-1.50,-4.38,4.38,4.29,4.39,2.88,2.88,2.87
66.01,-1.47,-4.32,-1.47,-4.32,4.32,4.22,4.31,2.84,2.85,2.85
66.67,-1.44,-4.26,-1.44,-4.26,4.26,4.15,4.23,2.81,2.82,2.82
67.33,-1.40,-4.19,-1.41,-4.20,4.20,4.08,4.14,2.79,2.79,2.79
68.01,-1.38,-4.14,-1.38,-4.14,4.14,4.01,4.05,2.75,2.75,2.75
68.69,-1.35,-4.08,-1.35,-4.08,4.08,3.94,3.96,2.72,2.72,2.73
69.37,-1.32,-4.01,-1.32,-4.01,4.01,3.87,3.87,2.69,2.69,2.69
70.07,-1.29,-3.95,-1.30,-3.95,3.95,3.80,3.77,2.66,2.66,2.66
70.77,-1.27,-3.90,-1.27,-3.89,3.89,3.73,3.68,2.62,2.62,2.63
71.48,-1.24,-3.83,-1.24,-3.83,3.83,3.66,3.58,2.58,2.59,2.59
72.19,-1.21,-3.77,-1.21,-3.76,3.76,3.58,3.49,2.55,2.55,2.55
72.91,-1.18,-3.69,-1.19,-3.70,3.70,3.51,3.39,2.51,2.51,2.51
73.64,-1.16,-3.63,-1.16,-3.63,3.63,3.44,3.29,2.47,2.47,2.47
74.38,-1.14,-3.57,-1.13,-3.56,3.56,3.37,3.19,2.42,2.43,2.43
75.12,-1.10,-3.48,-1.11,-3.49,3.49,3.30,3.09,2.39,2.39,2.38
75.87,-1.08,-3.42,-1.08,-3.43,3.43,3.22,2.99,2.34,2.34,2.34
76.63,-1.06,-3.36,-1.06,-3.35,3.35,3.15,2.90,2.29,2.30,2.30
77.40,-1.03,-3.28,-1.03,-3.28,3.28,3.07,2.80,2.25,2.25,2.25
78.17,-1.01,-3.20,-1.01,-3.21,3.21,3.00,2.70,2.20,2.20,2.19
78.95,-0.98,-3.14,-0.99,-3.14,3.14,2.93,2.60,2.16,2.15,2.16
79.74,-0.96,-3.07,-0.96,-3.07,3.07,2.85,2.51,2.10,2.10,2.11
80.54,-0.94,-3.00,-0.94,-2.99,2.99,2.78,2.41,2.05,2.05,2.06
81.35,-0.91,-2.91,-0.92,-2.92,2.92,2.70,2.32,2.01,2.00,2.00
82.16,-0.89,-2.84,-0.90,-2.84,2.84,2.63,2.23,1.95,1.95,1.95
82.98,-0.87,-2.77,-0.87,-2.77,2.77,2.55,2.13,1.90,1.90,1.90
83.81,-0.85,-2.69,-0.85,-2.69,2.69,2.47,2.04,1.84,1.84,1.84
84.65,-0.84,-2.62,-0.83,-2.62,2.62,2.40,1.95,1.77,1.78,1.78
85.50,-0.81,-2.54,-0.81,-2.54,2.54,2.32,1.86,1.73,1.73,1.73
86.35,-0.79,-2.46,-0.79,-2.46,2.46,2.25,1.77,1.67,1.67,1.67
87.22,-0.77,-2.38,-0.77,-2.38,2.38,2.17,1.69,1.61,1.61,1.61
88.09,-0.74,-2.29,-0.75,-2.30,2.30,2.09,1.60,1.56,1.55,1.55
88.97,-0.73,-2.23,-0.73,-2.23,2.23,2.01,1.51,1.49,1.50,1.50
89.86,-0.71,-2.15,-0.71,-2.15,2.15,1.94,1.43,1.43,1.44,1.44
90.76,-0.69,-2.06,-0.69,-2.07,2.07,1.86,1.34,1.37,1.37,1.37
91.66,-0.67,-1.98,-0.67,-1.98,1.98,1.78,1.26,1.31,1.31,1.31
92.58,-0.65,-1.89,-0.65,-1.90,1.90,1.70,1.18,1.25,1.25,1.24
93.51,-0.63,-1.83,-0.63,-1.82,1.82,1.62,1.10,1.19,1.19,1.19
94.44,-0.61,-1.74,-0.61,-1.74,1.74,1.54,1.02,1.12,1.12,1.13
95.39,-0.59,-1.66,-0.60,-1.65,1.65,1.47,0.94,1.06,1.06,1.06
96.34,-0.58,-1.57,-0.58,-1.57,1.57,1.39,0.86,0.98,0.99,0.99
97.30,-0.56,-1.48,-0.56,-1.48,1.48,1.31,0.78,0.92,0.92,0.92
98.28,-0.54,-1.40,-0.54,-1.40,1.40,1.23,0.71,0.85,0.85,0.86
99.26,-0.52,-1.30,-0.52,-1.31,1.31,1.15,0.63,0.78,0.78,0.78
100.25,-0.50,-1.21,-0.51,-1.22,1.22,1.07,0.56,0.72,0.71,0.71
101.25,-0.49,-1.14,-0.49,-1.13,1.13,0.99,0.48,0.64,0.64,0.64
102.27,-0.47,-1.04,-0.48,-1.05,1.05,0.91,0.41,0.57,0.57,0.57
103.29,-0.46,-0.95,-0.46,-0.96,0.96,0.83,0.34,0.50,0.50,0.49
104.32,-0.44,-0.86,-0.45,-0.87,0.87,0.75,0.27,0.43,0.42,0.42
105.37,-0.43,-0.79,-0.43,-0.78,0.78,0.67,0.20,0.35,0.35,0.35
106.42,-0.42,-0.70,-0.42,-0.69,0.69,0.59,0.13,0.27,0.27,0.28
107.48,-0.41,-0.61,-0.41,-0.60,0.60,0.51,0.06,0.19,0.20,0.20
108.56,-0.39,-0.51,-0.39,-0.52,0.52,0.43,-0.00,0.12,0.12,0.12
109.64,-0.38,-0.43,-0.38,-0.43,0.43,0.36,-0.06,0.04,0.04,0.04
110.74,-0.37,-0.35,-0.37,-0.34,0.34,0.28,-0.13,-0.03,-0.03,-0.02
111.85,-0.36,-0.26,-0.36,-0.25,0.25,0.20,-0.19,-0.11,-0.11,-0.10
112.97,-0.35,-0.15,-0.35,-0.16,0.16,0.12,-0.25,-0.19,-0.19,-0.20
114.10,-0.34,-0.08,-0.34,-0.07,0.07,0.04,-0.31,-0.27,-0.27,-0.26
115.24,-0.32,0.02,-0.33,0.01,-0.01,-0.04,-0.36,-0.34,-0.34,-0.34
116.39,-0.31,0.11,-0.32,0.10,-0.10,-0.11,-0.41,-0.41,-0.42,-0.43
117.55,-0.31,0.19,-0.31,0.18,-0.18,-0.19,-0.47,-0.50,-0.49,-0.50
118.73,-0.30,0.27,-0.30,0.27,-0.27,-0.27,-0.52,-0.57,-0.57,-0.58
119.92,-0.29,0.35,-0.29,0.35,-0.35,-0.34,-0.56,-0.64,-0.64,-0.64
121.12,-0.28,0.43,-0.28,0.43,-0.43,-0.42,-0.61,-0.71,-0.72,-0.72
122.33,-0.27,0.52,-0.28,0.51,-0.51,-0.49,-0.65,-0.79,-0.79,-0.79
123.55,-0.27,0.58,-0.27,0.59,-0.59,-0.57,-0.69,-0.86,-0.86,-0.85
124.79,-0.26,0.66,-0.26,0.67,-0.67,-0.64,-0.73,-0.93,-0.93,-0.92
126.03,-0.25,0.73,-0.25,0.74,-0.74,-0.72,-0.77,-0.99,-0.99,-0.98
127.29,-0.24,0.81,-0.25,0.82,-0.82,-0.79,-0.80,-1.06,-1.06,-1.06
128.57,-0.24,0.89,-0.24,0.89,-0.89,-0.86,-0.83,-1.13,-1.13,-1.14
129.85,-0.23,0.96,-0.23,0.96,-0.96,-0.93,-0.86,-1.19,-1.19,-1.19
131.15,-0.22,1.03,-0.23,1.02,-1.02,-1.00,-0.89,-1.25,-1.25,-1.25
132.46,-0.22,1.10,-0.22,1.09,-1.09,-1.07,-0.92,-1.31,-1.31,-1.32
133.79,-0.21,1.15,-0.22,1.15,-1.15,-1.14,-0.94,-1.37,-1.37,-1.37
135.12,-0.21,1.22,-0.21,1.22,-1.22,-1.20,-0.96,-1.43,-1.42,-1.43
136.48,-0.20,1.28,-0.20,1.27,-1.27,-1.27,-0.98,-1.48,-1.48,-1.48
137.84,-0.20,1.32,-0.20,1.33,-1.33,-1.33,-1.00,-1.53,-1.53,-1.52
139.22,-0.19,1.39,-0.19,1.38,-1.38,-1.39,-1.02,-1.58,-1.58,-1.58
140.61,-0.19,1.44,-0.19,1.43,-1.43,-1.46,-1.04,-1.63,-1.62,-1.64
142.02,-0.18,1.48,-0.18,1.48,-1.48,-1.52,-1.06,-1.67,-1.66,-1.66
143.44,-0.17,1.53,-0.18,1.53,-1.53,-1.58,-1.07,-1.70,-1.70,-1.70
144.87,-0.17,1.58,-0.17,1.57,-1.57,-1.63,-1.09,-1.75,-1.74,-1.75
146.32,-0.16,1.62,-0.17,1.62,-1.62,-1.69,-1.11,-1.78,-1.78,-1.79
147.78,-0.16,1.65,-0.16,1.66,-1.66,-1.74,-1.12,-1.82,-1.82,-1.81
149.26,-0.15,1.70,-0.16,1.70,-1.70,-1.80,-1.14,-1.85,-1.86,-1.85
150.75,-0.16,1.73,-0.16,1.74,-1.74,-1.85,-1.15,-1.90,-1.89,-1.90
152.26,-0.15,1.78,-0.15,1.77,-1.77,-1.90,-1.17,-1.93,-1.93,-1.93
153.78,-0.15,1.81,-0.15,1.81,-1.81,-1.94,-1.18,-1.96,-1.96,-1.96
155.32,-0.15,1.84,-0.15,1.85,-1.85,-1.99,-1.20,-2.00,-2.00,-2.00
156.88,-0.15,1.87,-0.15,1.88,-1.88,-2.03,-1.22,-2.03,-2.03,-2.03
158.44,-0.15,1.92,-0.15,1.91,-1.91,-2.08,-1.24,-2.07,-2.07,-2.07
160.03,-0.15,1.95,-0.16,1.95,-1.95,-2.12,-1.25,-2.10,-2.10,-2.11
161.63,-0.16,1.98,-0.16,1.98,-1.98,-2.15,-1.27,-2.14,-2.14,-2.15
163.24,-0.16,2.01,-0.16,2.01,-2.01,-2.19,-1.29,-2.17,-2.17,-2.17
164.88,-0.16,2.04,-0.16,2.04,-2.04,-2.23,-1.32,-2.21,-2.21,-2.20
166.53,-0.16,2.07,-0.17,2.07,-2.07,-2.26,-1.34,-2.24,-2.24,-2.24
168.19,-0.17,2.11,-0.17,2.10,-2.10,-2.29,-1.36,-2.28,-2.28,-2.28
169.87,-0.18,2.13,-0.18,2.14,-2.14,-2.32,-1.39,-2.32,-2.31,-2.31
171.57,-0.18,2.16,-0.18,2.17,-2.17,-2.35,-1.41,-2.35,-2.35,-2.35
173.29,-0.19,2.19,-0.19,2.20,-2.20,-2.37,-1.44,-2.39,-2.39,-2.38
175.02,-0.19,2.23,-0.20,2.23,-2.23,-2.39,-1.47,-2.43,-2.43,-2.42
176.77,-0.21,2.26,-0.21,2.26,-2.26,-2.41,-1.50,-2.48,-2.47,-2.47
178.54,-0.21,2.30,-0.21,2.29,-2.29,-2.43,-1.53,-2.51,-2.51,-2.51
180.32,-0.22,2.33,-0.22,2.33,-2.33,-2.45,-1.56,-2.55,-2.55,-2.55
182.13,-0.23,2.35,-0.23,2.36,-2.36,-2.47,-1.60,-2.59,-2.59,-2.59
183.95,-0.25,2.38,-0.24,2.39,-2.39,-2.48,-1.63,-2.64,-2.63,-2.63
185.79,-0.25,2.42,-0.25,2.41,-2.41,-2.49,-1.67,-2.67,-2.67,-2.67
187.65,-0.26,2.45,-0.27,2.44,-2.44,-2.50,-1.71,-2.70,-2.71,-2.71
189.52,-0.28,2.47,-0.28,2.46,-2.46,-2.51,-1.74,-2.75,-2.74,-2.75
191.42,-0.29,2.49,-0.29,2.48,-2.48,-2.51,-1.78,-2.78,-2.78,-2.78
193.33,-0.30,2.50,-0.31,2.51,-2.51,-2.52,-1.83,-2.81,-2.81,-2.81
195.27,-0.32,2.52,-0.32,2.52,-2.52,-2.52,-1.87,-2.85,-2.85,-2.84
197.22,-0.34,2.53,-0.34,2.54,-2.54,-2.52,-1.91,-2.88,-2.88,-2.87
199.19,-0.35,2.57,-0.36,2.55,-2.55,-2.52,-1.95,-2.90,-2.91,-2.92
201.18,-0.37,2.57,-0.38,2.56,-2.56,-2.52,-2.00,-2.93,-2.94,-2.94
203.19,-0.40,2.56,-0.39,2.57,-2.57,-2.52,-2.04,-2.97,-2.96,-2.96
205.23,-0.42,2.57,-0.41,2.57,-2.57,-2.51,-2.09,-3.00,-2.99,-2.99
207.28,-0.43,2.57,-0.44,2.58,-2.58,-2.50,-2.13,-3.01,-3.01,-3.00
209.35,-0.46,2.57,-0.46,2.58,-2.58,-2.50,-2.18,-3.04,-3.04,-3.04
211.44,-0.47,2.59,-0.48,2.58,-2.58,-2.49,-2.22,-3.05,-3.06,-3.06
213.56,-0.50,2.58,-0.50,2.57,-2.57,-2.48,-2.26,-3.08,-3.08,-3.08
215.69,-0.52,2.56,-0.53,2.57,-2.57,-2.46,-2.31,-3.09,-3.09,-3.09
217.85,-0.55,2.55,-0.55,2.56,-2.56,-2.45,-2.35,-3.11,-3.11,-3.10
220.03,-0.57,2.56,-0.58,2.55,-2.55,-2.44,-2.39,-3.12,-3.12,-3.13
222.23,-0.59,2.55,-0.60,2.53,-2.53,-2.42,-2.43,-3.12,-3.13,-3.14
224.45,-0.62,2.51,-0.63,2.51,-2.51,-2.41,-2.46,-3.14,-3.14,-3.14
226.70,-0.65,2.50,-0.65,2.49,-2.49,-2.39,-2.50,-3.15,-3.14,-3.15
228.96,-0.67,2.48,-0.67,2.47,-2.47,-2.37,-2.53,-3.15,-3.15,-3.15
231.25,-0.70,2.44,-0.70,2.45,-2.45,-2.35,-2.56,-3.15,-3.15,-3.15
233.57,-0.72,2.42,-0.72,2.42,-2.42,-2.33,-2.58,-3.14,-3.14,-3.14
235.90,-0.75,2.39,-0.74,2.39,-2.39,-2.31,-2.61,-3.15,-3.14,-3.14
238.26,-0.76,2.38,-0.76,2.37,-2.37,-2.29,-2.63,-3.13,-3.13,-3.14
240.64,-0.79,2.33,-0.78,2.34,-2.34,-2.27,-2.64,-3.13,-3.12,-3.12
243.05,-0.80,2.31,-0.80,2.31,-2.31,-2.25,-2.65,-3.11,-3.11,-3.11
245.48,-0.82,2.27,-0.82,2.28,-2.28,-2.23,-2.66,-3.10,-3.10,-3.09
247.93,-0.83,2.25,-0.83,2.25,-2.25,-2.20,-2.66,-3.08,-3.08,-3.08
250.41,-0.84,2.23,-0.85,2.22,-2.22,-2.18,-2.66,-3.06,-3.06,-3.07
252.92,-0.85,2.19,-0.86,2.19,-2.19,-2.16,-2.66,-3.04,-3.04,-3.04
255.45,-0.87,2.15,-0.87,2.16,-2.16,-2.13,-2.65,-3.03,-3.03,-3.02
258.00,-0.87,2.13,-0.88,2.13,-2.13,-2.11,-2.64,-3.00,-3.01,-3.00
260.58,-0.88,2.10,-0.88,2.10,-2.10,-2.08,-2.62,-2.98,-2.98,-2.99
263.19,-0.89,2.07,-0.89,2.07,-2.07,-2.06,-2.60,-2.96,-2.96,-2.96
265.82,-0.89,2.05,-0.90,2.04,-2.04,-2.03,-2.57,-2.94,-2.94,-2.94
268.48,-0.90,2.02,-0.90,2.02,-2.02,-2.01,-2.54,-2.92,-2.92,-2.92
271.16,-0.90,1.98,-0.90,1.99,-1.99,-1.98,-2.51,-2.89,-2.89,-2.89
273.87,-0.91,1.96,-0.91,1.97,-1.97,-1.96,-2.48,-2.88,-2.87,-2.87
276.61,-0.91,1.93,-0.91,1.94,-1.94,-1.93,-2.44,-2.85,-2.85,-2.84
279.38,-0.91,1.91,-0.91,1.91,-1.91,-1.90,-2.40,-2.83,-2.82,-2.83
282.17,-0.91,1.89,-0.91,1.89,-1.89,-1.88,-2.36,-2.80,-2.80,-2.80
284.99,-0.91,1.86,-0.91,1.86,-1.86,-1.85,-2.31,-2.77,-2.78,-2.78
287.84,-0.92,1.83,-0.92,1.83,-1.83,-1.83,-2.27,-2.76,-2.75,-2.75
290.72,-0.91,1.81,-0.92,1.80,-1.80,-1.80,-2.22,-2.72,-2.72,-2.72
293.63,-0.91,1.79,-0.92,1.77,-1.77,-1.77,-2.17,-2.69,-2.69,-2.70
296.57,-0.92,1.75,-0.92,1.74,-1.74,-1.75,-2.12,-2.67,-2.67,-2.67
299.53,-0.92,1.72,-0.92,1.71,-1.71,-1.72,-2.07,-2.63,-2.64,-2.64
302.53,-0.93,1.69,-0.93,1.68,-1.68,-1.70,-2.02,-2.61,-2.61,-2.62
305.55,-0.93,1.64,-0.93,1.64,-1.64,-1.67,-1.97,-2.58,-2.58,-2.57
308.61,-0.93,1.61,-0.94,1.61,-1.61,-1.65,-1.92,-2.54,-2.55,-2.55
311.69,-0.94,1.57,-0.94,1.57,-1.57,-1.62,-1.86,-2.51,-2.51,-2.51
314.81,-0.94,1.53,-0.95,1.53,-1.53,-1.60,-1.81,-2.48,-2.48,-2.47
317.96,-0.96,1.49,-0.96,1.49,-1.49,-1.57,-1.76,-2.46,-2.45,-2.45
321.14,-0.96,1.46,-0.97,1.46,-1.46,-1.55,-1.71,-2.42,-2.42,-2.42
324.35,-0.98,1.41,-0.98,1.42,-1.42,-1.52,-1.66,-2.40,-2.39,-2.40
327.59,-0.98,1.38,-0.99,1.38,-1.38,-1.50,-1.61,-2.36,-2.37,-2.36
330.87,-0.99,1.34,-1.00,1.34,-1.34,-1.47,-1.57,-2.33,-2.34,-2.33
334.18,-1.01,1.30,-1.01,1.31,-1.31,-1.45,-1.52,-2.32,-2.31,-2.32
337.52,-1.01,1.28,-1.02,1.27,-1.27,-1.43,-1.47,-2.28,-2.29,-2.29
340.90,-1.02,1.24,-1.03,1.24,-1.24,-1.40,-1.43,-2.26,-2.27,-2.26
344.30,-1.04,1.20,-1.04,1.20,-1.20,-1.38,-1.38,-2.25,-2.24,-2.24
347.75,-1.05,1.16,-1.05,1.17,-1.17,-1.36,-1.34,-2.22,-2.22,-2.22
351.23,-1.06,1.14,-1.06,1.14,-1.14,-1.33,-1.30,-2.20,-2.20,-2.20
354.74,-1.07,1.11,-1.07,1.11,-1.11,-1.31,-1.25,-2.18,-2.18,-2.18
358.28,-1.08,1.08,-1.08,1.08,-1.08,-1.29,-1.21,-2.16,-2.16,-2.16
361.87,-1.09,1.05,-1.09,1.06,-1.06,-1.27,-1.17,-2.15,-2.14,-2.15
365.49,-1.09,1.03,-1.10,1.03,-1.03,-1.25,-1.13,-2.12,-2.13,-2.12
369.14,-1.10,1.01,-1.10,1.01,-1.01,-1.22,-1.10,-2.11,-2.11,-2.11
372.83,-1.11,0.98,-1.10,0.98,-0.98,-1.20,-1.06,-2.10,-2.09,-2.09
376.56,-1.10,0.97,-1.11,0.96,-0.96,-1.18,-1.02,-2.06,-2.07,-2.08
380.33,-1.11,0.94,-1.11,0.94,-0.94,-1.16,-0.99,-2.06,-2.05,-2.05
384.13,-1.10,0.93,-1.10,0.93,-0.93,-1.14,-0.96,-2.03,-2.03,-2.03
387.97,-1.10,0.91,-1.10,0.91,-0.91,-1.12,-0.92,-2.01,-2.01,-2.01
391.85,-1.10,0.89,-1.09,0.90,-0.90,-1.10,-0.89,-2.00,-1.99,-1.99
395.77,-1.09,0.87,-1.09,0.88,-0.88,-1.08,-0.86,-1.98,-1.97,-1.96
399.73,-1.07,0.87,-1.08,0.87,-0.87,-1.06,-0.83,-1.94,-1.95,-1.95
403.72,-1.06,0.86,-1.06,0.86,-0.86,-1.05,-0.80,-1.92,-1.93,-1.93
407.76,-1.05,0.86,-1.05,0.86,-0.86,-1.03,-0.77,-1.91,-1.91,-1.91
411.84,-1.04,0.84,-1.03,0.85,-0.85,-1.01,-0.75,-1.89,-1.88,-1.88
415.96,-1.02,0.84,-1.02,0.84,-0.84,-0.99,-0.72,-1.87,-1.86,-1.86
420.12,-1.00,0.84,-1.00,0.84,-0.84,-0.97,-0.70,-1.84,-1.84,-1.84
424.32,-0.98,0.83,-0.98,0.83,-0.83,-0.96,-0.67,-1.82,-1.82,-1.81
428.56,-0.97,0.82,-0.97,0.83,-0.83,-0.94,-0.65,-1.80,-1.79,-1.80
432.85,-0.95,0.82,-0.95,0.82,-0.82,-0.92,-0.62,-1.77,-1.77,-1.78
437.18,-0.93,0.82,-0.94,0.81,-0.81,-0.90,-0.60,-1.74,-1.75,-1.75
441.55,-0.90,0.82,-0.92,0.80,-0.80,-0.89,-0.58,-1.70,-1.72,-1.72
445.96,-0.89,0.81,-0.91,0.79,-0.79,-0.87,-0.56,-1.68,-1.70,-1.70
450.42,-0.88,0.80,-0.89,0.78,-0.78,-0.86,-0.54,-1.66,-1.67,-1.68
454.93,-0.88,0.76,-0.88,0.76,-0.76,-0.84,-0.52,-1.65,-1.64,-1.64
