frequency,raw,error,smoothed,error_smoothed,equalization,parametric_eq,fixed_band_eq,equalized_raw,equalized_smoothed,target
20.00,0.51,-2.52,0.41,-2.64,2.64,0.08,-0.14,3.15,3.05,3.03
20.20,0.60,-2.48,0.55,-2.55,2.55,0.08,-0.15,3.15,3.09,3.08
20.40,0.69,-2.44,0.68,-2.45,2.45,0.08,-0.15,3.14,3.13,3.13
20.61,0.77,-2.39,0.81,-2.35,2.35,0.08,-0.16,3.12,3.16,3.16
20.81,0.86,-2.35,0.94,-2.25,2.25,0.08,-0.16,3.11,3.19,3.21
21.02,0.96,-2.29,1.07,-2.15,2.15,0.08,-0.17,3.11,3.22,3.25
21.23,1.12,-2.15,1.20,-2.04,2.04,0.08,-0.17,3.16,3.25,3.27
21.44,1.29,-1.99,1.33,-1.94,1.94,0.08,-0.18,3.23,3.27,3.29
21.66,1.45,-1.86,1.46,-1.83,1.83,0.08,-0.19,3.28,3.29,3.31
21.87,1.61,-1.70,1.59,-1.72,1.72,0.08,-0.19,3.33,3.31,3.32
22.09,1.76,-1.57,1.71,-1.61,1.61,0.08,-0.20,3.37,3.32,3.34
22.31,1.88,-1.46,1.84,-1.50,1.50,0.08,-0.21,3.38,3.34,3.35
22.54,2.01,-1.34,1.97,-1.37,1.37,0.08,-0.21,3.38,3.34,3.35
22.76,2.13,-1.21,2.10,-1.24,1.24,0.08,-0.22,3.37,3.35,3.35
22.99,2.25,-1.09,2.23,-1.11,1.11,0.08,-0.23,3.37,3.35,3.34
23.22,2.36,-0.98,2.36,-0.99,0.99,0.08,-0.23,3.35,3.35,3.34
23.45,2.47,-0.87,2.48,-0.87,0.87,0.08,-0.24,3.34,3.35,3.34
23.69,2.57,-0.78,2.60,-0.75,0.75,0.07,-0.25,3.32,3.35,3.35
23.92,2.68,-0.66,2.71,-0.64,0.64,0.07,-0.26,3.32,3.35,3.35
24.16,2.79,-0.56,2.83,-0.52,0.52,0.07,-0.26,3.31,3.35,3.35
24.40,2.91,-0.44,2.94,-0.41,0.41,0.07,-0.27,3.32,3.35,3.36
24.65,3.03,-0.32,3.06,-0.29,0.29,0.06,-0.28,3.32,3.35,3.35
24.89,3.15,-0.19,3.17,-0.18,0.18,0.06,-0.29,3.34,3.35,3.35
25.14,3.26,-0.08,3.27,-0.08,0.08,0.05,-0.30,3.34,3.35,3.35
25.39,3.38,0.03,3.37,0.02,-0.02,0.05,-0.30,3.36,3.35,3.36
25.65,3.49,0.13,3.47,0.12,-0.12,0.04,-0.31,3.37,3.35,3.36
25.91,3.60,0.25,3.55,0.20,-0.20,0.04,-0.32,3.40,3.35,3.35
26.16,3.68,0.33,3.63,0.28,-0.28,0.03,-0.33,3.40,3.35,3.35
26.43,3.73,0.38,3.70,0.35,-0.35,0.02,-0.33,3.38,3.35,3.35
26.69,3.79,0.44,3.76,0.41,-0.41,0.02,-0.34,3.38,3.35,3.35
26.96,3.84,0.49,3.81,0.47,-0.47,0.01,-0.35,3.37,3.34,3.35
27.23,3.86,0.51,3.85,0.51,-0.51,-0.00,-0.35,3.35,3.34,3.35
27.50,3.88,0.53,3.89,0.55,-0.55,-0.01,-0.36,3.33,3.34,3.35
27.77,3.90,0.56,3.92,0.58,-0.58,-0.03,-0.36,3.32,3.34,3.34
28.05,3.91,0.57,3.95,0.61,-0.61,-0.04,-0.36,3.30,3.34,3.34
28.33,3.94,0.61,3.97,0.64,-0.64,-0.06,-0.37,3.30,3.34,3.33
28.62,3.97,0.64,3.99,0.66,-0.66,-0.08,-0.37,3.31,3.33,3.33
28.90,3.99,0.65,4.01,0.68,-0.68,-0.09,-0.37,3.31,3.33,3.34
29.19,4.02,0.69,4.03,0.70,-0.70,-0.12,-0.37,3.33,3.33,3.33
29.48,4.05,0.71,4.04,0.71,-0.71,-0.14,-0.37,3.34,3.33,3.34
29.78,4.08,0.75,4.06,0.73,-0.73,-0.16,-0.37,3.35,3.33,3.33
30.08,4.10,0.76,4.07,0.74,-0.74,-0.19,-0.37,3.36,3.33,3.34
30.38,4.10,0.77,4.08,0.76,-0.76,-0.21,-0.36,3.34,3.33,3.33
30.68,4.10,0.77,4.09,0.77,-0.77,-0.24,-0.36,3.33,3.32,3.33
30.99,4.10,0.77,4.10,0.78,-0.78,-0.27,-0.35,3.32,3.32,3.33
31.30,4.10,0.78,4.11,0.79,-0.79,-0.30,-0.34,3.31,3.32,3.32
31.61,4.10,0.78,4.12,0.80,-0.80,-0.32,-0.34,3.30,3.32,3.32
31.93,4.10,0.78,4.12,0.80,-0.80,-0.34,-0.33,3.30,3.31,3.32
32.24,4.10,0.79,4.12,0.81,-0.81,-0.36,-0.32,3.29,3.31,3.31
32.57,4.10,0.79,4.11,0.81,-0.81,-0.38,-0.30,3.30,3.31,3.31
32.89,4.10,0.79,4.10,0.80,-0.80,-0.38,-0.29,3.30,3.30,3.31
33.22,4.10,0.80,4.09,0.79,-0.79,-0.39,-0.28,3.31,3.30,3.30
33.55,4.10,0.80,4.08,0.79,-0.79,-0.39,-0.26,3.31,3.29,3.30
33.89,4.10,0.81,4.07,0.78,-0.78,-0.38,-0.24,3.32,3.29,3.29
34.23,4.08,0.79,4.06,0.77,-0.77,-0.37,-0.23,3.31,3.28,3.29
34.57,4.04,0.76,4.03,0.75,-0.75,-0.35,-0.21,3.29,3.28,3.28
34.92,4.01,0.73,4.00,0.73,-0.73,-0.33,-0.19,3.28,3.28,3.28
35.27,3.98,0.71,3.98,0.71,-0.71,-0.31,-0.17,3.27,3.27,3.27
35.62,3.94,0.67,3.97,0.70,-0.70,-0.28,-0.15,3.24,3.27,3.27
35.97,3.91,0.64,3.95,0.69,-0.69,-0.26,-0.12,3.22,3.27,3.27
36.33,3.91,0.64,3.94,0.68,-0.68,-0.23,-0.10,3.24,3.27,3.27
36.70,3.90,0.64,3.92,0.66,-0.66,-0.20,-0.08,3.24,3.26,3.26
37.06,3.89,0.63,3.89,0.63,-0.63,-0.17,-0.06,3.26,3.26,3.26
37.43,3.82,0.55,3.85,0.59,-0.59,-0.15,-0.03,3.23,3.26,3.27
37.81,3.75,0.48,3.81,0.54,-0.54,-0.12,-0.01,3.21,3.26,3.27
38.19,3.75,0.49,3.77,0.51,-0.51,-0.09,0.02,3.25,3.27,3.26
38.57,3.84,0.57,3.74,0.47,-0.47,-0.07,0.05,3.37,3.27,3.27
38.95,3.92,0.64,3.70,0.44,-0.44,-0.04,0.07,3.48,3.27,3.28
39.34,3.79,0.52,3.66,0.40,-0.40,-0.02,0.10,3.39,3.27,3.27
39.74,3.63,0.36,3.62,0.35,-0.35,0.00,0.13,3.28,3.27,3.27
40.14,3.49,0.23,3.57,0.31,-0.31,0.02,0.15,3.18,3.27,3.27
40.54,3.37,0.10,3.52,0.26,-0.26,0.05,0.18,3.11,3.26,3.27
40.94,3.26,0.00,3.48,0.21,-0.21,0.07,0.21,3.05,3.26,3.26
41.35,3.34,0.08,3.42,0.17,-0.17,0.09,0.24,3.17,3.26,3.26
41.76,3.45,0.20,3.37,0.12,-0.12,0.11,0.27,3.33,3.25,3.25
42.18,3.46,0.21,3.31,0.07,-0.07,0.13,0.30,3.39,3.24,3.25
42.60,3.34,0.10,3.25,0.02,-0.02,0.14,0.33,3.32,3.23,3.24
43.03,3.23,0.00,3.21,-0.01,0.01,0.16,0.36,3.24,3.22,3.23
43.46,3.17,-0.05,3.18,-0.02,0.02,0.18,0.39,3.19,3.21,3.22
43.90,3.10,-0.10,3.17,-0.03,0.03,0.20,0.42,3.13,3.19,3.20
44.33,3.07,-0.11,3.14,-0.05,0.05,0.22,0.45,3.12,3.18,3.18
44.78,3.04,-0.12,3.08,-0.09,0.09,0.23,0.48,3.13,3.17,3.16
45.23,3.00,-0.15,3.03,-0.13,0.13,0.25,0.51,3.13,3.16,3.15
45.68,2.93,-0.21,2.97,-0.17,0.17,0.27,0.55,3.10,3.14,3.14
46.13,2.91,-0.21,2.91,-0.22,0.22,0.29,0.58,3.13,3.13,3.12
46.60,2.99,-0.13,2.85,-0.27,0.27,0.30,0.61,3.26,3.11,3.12
47.06,3.04,-0.06,2.79,-0.30,0.30,0.32,0.64,3.34,3.10,3.10
47.53,2.85,-0.24,2.75,-0.33,0.33,0.34,0.68,3.18,3.08,3.09
48.01,2.66,-0.43,2.70,-0.37,0.37,0.36,0.71,3.03,3.07,3.09
48.49,2.47,-0.60,2.65,-0.41,0.41,0.37,0.75,2.88,3.06,3.07
48.97,2.29,-0.76,2.58,-0.46,0.46,0.39,0.78,2.75,3.04,3.05
49.46,2.43,-0.60,2.52,-0.51,0.51,0.41,0.81,2.94,3.03,3.03
49.96,2.59,-0.42,2.45,-0.56,0.56,0.43,0.85,3.15,3.02,3.01
50.46,2.49,-0.51,2.39,-0.61,0.61,0.45,0.88,3.10,3.00,3.00
50.96,2.36,-0.63,2.33,-0.65,0.65,0.47,0.92,3.01,2.99,2.99
51.47,2.31,-0.66,2.28,-0.70,0.70,0.49,0.95,3.01,2.98,2.97
51.99,2.27,-0.69,2.22,-0.75,0.75,0.51,0.98,3.02,2.96,2.96
52.51,2.17,-0.78,2.16,-0.79,0.79,0.53,1.02,2.96,2.95,2.95
53.03,2.08,-0.87,2.12,-0.82,0.82,0.55,1.05,2.90,2.94,2.95
53.56,2.02,-0.91,2.09,-0.84,0.84,0.57,1.08,2.86,2.93,2.93
54.10,1.98,-0.94,2.05,-0.87,0.87,0.59,1.11,2.85,2.91,2.92
54.64,1.98,-0.92,1.99,-0.92,0.92,0.62,1.14,2.90,2.91,2.90
55.18,1.96,-0.94,1.93,-0.97,0.97,0.64,1.17,2.93,2.89,2.90
55.74,1.91,-0.97,1.88,-1.01,1.01,0.66,1.20,2.92,2.88,2.88
56.29,1.84,-1.03,1.83,-1.04,1.04,0.69,1.23,2.88,2.87,2.87
56.86,1.74,-1.12,1.77,-1.08,1.08,0.71,1.25,2.82,2.86,2.86
57.42,1.67,-1.16,1.71,-1.13,1.13,0.74,1.28,2.80,2.84,2.83
58.00,1.61,-1.21,1.66,-1.16,1.16,0.76,1.30,2.77,2.82,2.82
58.58,1.71,-1.10,1.60,-1.19,1.19,0.79,1.32,2.90,2.80,2.81
59.16,1.70,-1.09,1.54,-1.23,1.23,0.82,1.34,2.93,2.77,2.79
59.76,1.43,-1.33,1.47,-1.27,1.27,0.85,1.36,2.71,2.74,2.77
60.35,1.37,-1.36,1.40,-1.32,1.32,0.88,1.38,2.69,2.71,2.73
60.96,1.45,-1.24,1.34,-1.34,1.34,0.91,1.39,2.79,2.68,2.69
61.57,1.21,-1.43,1.28,-1.37,1.37,0.94,1.40,2.58,2.64,2.65
62.18,1.04,-1.57,1.22,-1.39,1.39,0.97,1.41,2.43,2.61,2.61
62.80,1.11,-1.45,1.16,-1.41,1.41,1.00,1.42,2.52,2.57,2.56
63.43,1.11,-1.41,1.10,-1.43,1.43,1.03,1.42,2.54,2.52,2.52
64.07,1.08,-1.39,1.03,-1.45,1.45,1.06,1.42,2.53,2.48,2.47
64.71,0.94,-1.49,0.97,-1.47,1.47,1.09,1.42,2.41,2.43,2.43
65.35,0.86,-1.53,0.90,-1.49,1.49,1.13,1.42,2.35,2.39,2.39
66.01,0.82,-1.52,0.84,-1.50,1.50,1.16,1.42,2.32,2.34,2.34
66.67,0.93,-1.36,0.79,-1.50,1.50,1.19,1.41,2.43,2.29,2.29
67.33,0.87,-1.37,0.74,-1.50,1.50,1.23,1.41,2.37,2.24,2.24
68.01,0.64,-1.56,0.68,-1.51,1.51,1.26,1.40,2.16,2.19,2.20
68.69,0.58,-1.57,0.63,-1.52,1.52,1.29,1.39,2.10,2.14,2.15
69.37,0.53,-1.57,0.56,-1.53,1.53,1.33,1.38,2.06,2.09,2.10
70.07,0.47,-1.58,0.49,-1.55,1.55,1.36,1.36,2.02,2.04,2.05
70.77,0.42,-1.58,0.44,-1.55,1.55,1.39,1.35,1.97,1.99,2.00
71.48,0.38,-1.57,0.38,-1.55,1.55,1.42,1.34,1.93,1.93,1.95
72.19,0.33,-1.55,0.33,-1.54,1.54,1.46,1.32,1.87,1.88,1.88
72.91,0.26,-1.56,0.29,-1.54,1.54,1.49,1.31,1.80,1.82,1.82
73.64,0.22,-1.55,0.22,-1.54,1.54,1.51,1.29,1.76,1.76,1.77
74.38,0.15,-1.56,0.15,-1.56,1.56,1.54,1.27,1.71,1.71,1.71
75.12,0.05,-1.60,0.08,-1.57,1.57,1.57,1.26,1.62,1.65,1.65
75.87,0.00,-1.59,0.04,-1.56,1.56,1.59,1.24,1.56,1.60,1.59
76.63,0.02,-1.52,-0.01,-1.56,1.56,1.61,1.22,1.58,1.54,1.54
77.40,0.06,-1.43,-0.07,-1.56,1.56,1.63,1.21,1.62,1.49,1.49
78.17,0.02,-1.41,-0.12,-1.56,1.56,1.65,1.19,1.58,1.44,1.43
78.95,-0.25,-1.64,-0.18,-1.57,1.57,1.66,1.17,1.32,1.38,1.39
79.74,-0.21,-1.55,-0.24,-1.57,1.57,1.67,1.16,1.36,1.34,1.34
80.54,-0.41,-1.70,-0.30,-1.59,1.59,1.68,1.14,1.18,1.29,1.29
81.35,-0.56,-1.80,-0.36,-1.60,1.60,1.69,1.13,1.04,1.24,1.24
82.16,-0.47,-1.66,-0.40,-1.59,1.59,1.69,1.12,1.12,1.19,1.19
82.98,-0.37,-1.52,-0.44,-1.58,1.58,1.69,1.10,1.21,1.14,1.15
83.81,-0.27,-1.37,-0.48,-1.58,1.58,1.69,1.09,1.31,1.10,1.10
84.65,-0.53,-1.58,-0.54,-1.58,1.58,1.69,1.08,1.05,1.05,1.05
85.50,-0.65,-1.66,-0.59,-1.59,1.59,1.68,1.07,0.94,1.00,1.01
86.35,-0.65,-1.61,-0.64,-1.59,1.59,1.67,1.06,0.94,0.95,0.96
87.22,-0.71,-1.62,-0.68,-1.58,1.58,1.65,1.05,0.87,0.90,0.91
88.09,-0.71,-1.57,-0.70,-1.55,1.55,1.64,1.04,0.84,0.85,0.86
88.97,-0.71,-1.51,-0.73,-1.53,1.53,1.62,1.03,0.82,0.80,0.80
89.86,-0.61,-1.36,-0.75,-1.49,1.49,1.60,1.03,0.88,0.75,0.75
90.76,-0.69,-1.39,-0.77,-1.47,1.47,1.58,1.02,0.78,0.70,0.70
91.66,-0.94,-1.59,-0.81,-1.45,1.45,1.55,1.02,0.51,0.65,0.65
92.58,-1.01,-1.60,-0.83,-1.43,1.43,1.53,1.01,0.42,0.60,0.59
93.51,-0.93,-1.47,-0.86,-1.40,1.40,1.50,1.01,0.47,0.55,0.54
94.44,-0.89,-1.39,-0.87,-1.37,1.37,1.47,1.01,0.48,0.50,0.50
95.39,-0.90,-1.35,-0.90,-1.34,1.34,1.44,1.00,0.44,0.45,0.45
96.34,-0.87,-1.27,-0.92,-1.31,1.31,1.41,1.00,0.44,0.40,0.40
97.30,-0.79,-1.14,-0.94,-1.29,1.29,1.38,1.00,0.50,0.35,0.35
98.28,-0.84,-1.14,-0.96,-1.26,1.26,1.35,1.00,0.42,0.30,0.30
99.26,-1.02,-1.28,-0.99,-1.24,1.24,1.31,1.00,0.22,0.25,0.26
100.25,-1.04,-1.25,-1.03,-1.23,1.23,1.28,1.00,0.19,0.20,0.21
101.25,-1.07,-1.23,-1.07,-1.22,1.22,1.25,1.00,0.15,0.16,0.16
102.27,-1.15,-1.26,-1.11,-1.21,1.21,1.22,1.01,0.07,0.11,0.11
103.29,-1.23,-1.29,-1.15,-1.21,1.21,1.18,1.01,-0.02,0.06,0.06
104.32,-1.22,-1.24,-1.20,-1.21,1.21,1.15,1.01,-0.01,0.01,0.02
105.37,-1.10,-1.07,-1.25,-1.21,1.21,1.12,1.01,0.11,-0.04,-0.03
106.42,-1.23,-1.15,-1.30,-1.21,1.21,1.09,1.02,-0.02,-0.09,-0.08
107.48,-1.37,-1.23,-1.36,-1.22,1.22,1.05,1.02,-0.15,-0.14,-0.14
108.56,-1.44,-1.25,-1.42,-1.22,1.22,1.02,1.02,-0.22,-0.20,-0.19
109.64,-1.60,-1.36,-1.47,-1.22,1.22,0.99,1.03,-0.38,-0.25,-0.24
110.74,-1.64,-1.34,-1.51,-1.21,1.21,0.96,1.03,-0.43,-0.30,-0.30
111.85,-1.56,-1.22,-1.55,-1.20,1.20,0.93,1.03,-0.36,-0.35,-0.34
112.97,-1.45,-1.05,-1.58,-1.18,1.18,0.91,1.03,-0.27,-0.40,-0.40
114.10,-1.43,-0.98,-1.60,-1.15,1.15,0.88,1.03,-0.28,-0.45,-0.45
115.24,-1.67,-1.17,-1.63,-1.13,1.13,0.85,1.03,-0.54,-0.50,-0.50
116.39,-1.80,-1.25,-1.66,-1.12,1.12,0.82,1.03,-0.68,-0.54,-0.55
117.55,-1.80,-1.21,-1.70,-1.11,1.11,0.80,1.03,-0.69,-0.58,-0.59
118.73,-1.75,-1.12,-1.71,-1.09,1.09,0.77,1.03,-0.66,-0.62,-0.63
119.92,-1.74,-1.08,-1.73,-1.07,1.07,0.75,1.03,-0.67,-0.66,-0.66
121.12,-1.72,-1.02,-1.75,-1.05,1.05,0.72,1.02,-0.67,-0.70,-0.70
122.33,-1.62,-0.89,-1.77,-1.04,1.04,0.70,1.02,-0.58,-0.73,-0.73
123.55,-1.65,-0.89,-1.79,-1.03,1.03,0.68,1.01,-0.62,-0.76,-0.76
124.79,-1.79,-1.00,-1.83,-1.03,1.03,0.66,1.01,-0.76,-0.80,-0.79
126.03,-1.80,-0.98,-1.85,-1.02,1.02,0.63,1.00,-0.78,-0.83,-0.82
127.29,-1.96,-1.12,-1.85,-0.99,0.99,0.61,0.99,-0.97,-0.86,-0.84
128.57,-2.02,-1.14,-1.84,-0.95,0.95,0.59,0.98,-1.07,-0.89,-0.88
129.85,-1.90,-0.99,-1.84,-0.92,0.92,0.57,0.96,-0.98,-0.91,-0.91
131.15,-1.87,-0.93,-1.85,-0.91,0.91,0.55,0.95,-0.96,-0.94,-0.94
132.46,-1.87,-0.90,-1.86,-0.89,0.89,0.54,0.94,-0.98,-0.97,-0.97
133.79,-1.86,-0.86,-1.87,-0.87,0.87,0.52,0.92,-0.99,-1.00,-1.00
135.12,-1.86,-0.83,-1.88,-0.85,0.85,0.50,0.91,-1.01,-1.03,-1.03
136.48,-1.85,-0.80,-1.88,-0.83,0.83,0.48,0.89,-1.02,-1.05,-1.05
137.84,-1.85,-0.76,-1.87,-0.79,0.79,0.46,0.87,-1.06,-1.08,-1.09
139.22,-1.76,-0.64,-1.86,-0.75,0.75,0.45,0.85,-1.01,-1.11,-1.12
140.61,-1.76,-0.61,-1.87,-0.73,0.73,0.43,0.83,-1.03,-1.14,-1.15
142.02,-1.94,-0.77,-1.87,-0.70,0.70,0.41,0.81,-1.24,-1.17,-1.17
143.44,-1.94,-0.74,-1.89,-0.68,0.68,0.40,0.79,-1.25,-1.21,-1.20
144.87,-1.94,-0.70,-1.92,-0.67,0.67,0.38,0.77,-1.27,-1.25,-1.24
146.32,-1.94,-0.66,-1.94,-0.65,0.65,0.37,0.75,-1.29,-1.29,-1.28
147.78,-1.95,-0.64,-1.96,-0.62,0.62,0.35,0.73,-1.33,-1.34,-1.31
149.26,-1.95,-0.59,-1.98,-0.59,0.59,0.34,0.71,-1.36,-1.39,-1.36
150.75,-1.95,-0.53,-2.00,-0.55,0.55,0.32,0.68,-1.40,-1.45,-1.42
152.26,-2.02,-0.53,-2.02,-0.50,0.50,0.31,0.66,-1.51,-1.51,-1.49
153.78,-2.16,-0.60,-2.03,-0.45,0.45,0.29,0.64,-1.70,-1.58,-1.56
155.32,-2.12,-0.49,-2.04,-0.39,0.39,0.28,0.62,-1.72,-1.65,-1.63
156.88,-2.05,-0.34,-2.04,-0.32,0.32,0.26,0.59,-1.73,-1.72,-1.71
158.44,-2.04,-0.25,-2.04,-0.26,0.26,0.25,0.57,-1.78,-1.79,-1.79
160.03,-2.04,-0.17,-2.06,-0.20,0.20,0.23,0.55,-1.83,-1.86,-1.87
161.63,-2.04,-0.10,-2.07,-0.15,0.15,0.21,0.53,-1.89,-1.92,-1.94
163.24,-2.04,-0.04,-2.08,-0.10,0.10,0.20,0.50,-1.94,-1.98,-2.00
164.88,-2.05,0.00,-2.07,-0.04,0.04,0.18,0.48,-2.01,-2.04,-2.05
166.53,-2.05,0.05,-2.08,0.01,-0.01,0.16,0.46,-2.06,-2.09,-2.10
168.19,-2.06,0.08,-2.08,0.04,-0.04,0.14,0.44,-2.10,-2.13,-2.14
169.87,-2.06,0.12,-2.08,0.08,-0.08,0.13,0.42,-2.14,-2.16,-2.18
171.57,-2.07,0.13,-2.08,0.10,-0.10,0.11,0.40,-2.17,-2.18,-2.20
173.29,-2.17,0.04,-2.09,0.11,-0.11,0.09,0.38,-2.28,-2.20,-2.21
175.02,-2.24,-0.02,-2.10,0.12,-0.12,0.07,0.35,-2.35,-2.22,-2.22
176.77,-2.11,0.12,-2.10,0.12,-0.12,0.04,0.33,-2.23,-2.23,-2.23
178.54,-2.01,0.23,-2.10,0.13,-0.13,0.02,0.31,-2.14,-2.24,-2.24
180.32,-1.99,0.24,-2.10,0.14,-0.14,-0.01,0.29,-2.13,-2.24,-2.23
182.13,-2.11,0.11,-2.10,0.15,-0.15,-0.03,0.27,-2.26,-2.25,-2.22
183.95,-2.22,0.01,-2.09,0.16,-0.16,-0.06,0.26,-2.38,-2.25,-2.23
185.79,-2.09,0.14,-2.08,0.18,-0.18,-0.09,0.24,-2.27,-2.26,-2.23
187.65,-2.05,0.20,-2.07,0.20,-0.20,-0.12,0.22,-2.25,-2.27,-2.25
189.52,-2.02,0.24,-2.04,0.23,-0.23,-0.16,0.20,-2.25,-2.28,-2.26
191.42,-2.01,0.27,-2.02,0.27,-0.27,-0.19,0.18,-2.28,-2.29,-2.28
193.33,-2.00,0.30,-1.99,0.32,-0.32,-0.23,0.16,-2.32,-2.30,-2.30
195.27,-1.98,0.34,-1.96,0.37,-0.37,-0.27,0.14,-2.34,-2.32,-2.32
197.22,-1.97,0.37,-1.94,0.40,-0.40,-0.32,0.13,-2.37,-2.34,-2.34
199.19,-1.96,0.40,-1.92,0.44,-0.44,-0.36,0.11,-2.40,-2.36,-2.36
201.18,-1.95,0.43,-1.90,0.48,-0.48,-0.40,0.09,-2.43,-2.38,-2.38
203.19,-1.88,0.52,-1.88,0.52,-0.52,-0.45,0.08,-2.40,-2.40,-2.40
205.23,-1.81,0.61,-1.87,0.55,-0.55,-0.49,0.06,-2.36,-2.42,-2.42
207.28,-1.79,0.64,-1.88,0.56,-0.56,-0.53,0.04,-2.35,-2.44,-2.43
209.35,-1.79,0.66,-1.89,0.57,-0.57,-0.57,0.03,-2.36,-2.46,-2.45
211.44,-1.84,0.64,-1.90,0.58,-0.58,-0.60,0.01,-2.42,-2.48,-2.48
213.56,-1.81,0.68,-1.91,0.58,-0.58,-0.63,0.00,-2.39,-2.49,-2.49
215.69,-1.92,0.58,-1.92,0.58,-0.58,-0.64,-0.01,-2.50,-2.51,-2.50
217.85,-2.04,0.47,-1.94,0.58,-0.58,-0.65,-0.03,-2.62,-2.52,-2.51
220.03,-2.06,0.46,-1.96,0.57,-0.57,-0.65,-0.04,-2.63,-2.53,-2.52
222.23,-2.06,0.49,-1.98,0.55,-0.55,-0.64,-0.05,-2.61,-2.53,-2.55
224.45,-2.06,0.48,-2.01,0.53,-0.53,-0.62,-0.06,-2.59,-2.54,-2.54
226.70,-2.06,0.48,-2.04,0.50,-0.50,-0.59,-0.07,-2.56,-2.53,-2.54
228.96,-2.06,0.47,-2.06,0.47,-0.47,-0.55,-0.08,-2.53,-2.53,-2.53
231.25,-2.05,0.47,-2.08,0.44,-0.44,-0.51,-0.09,-2.49,-2.52,-2.52
233.57,-2.04,0.47,-2.09,0.42,-0.42,-0.47,-0.10,-2.46,-2.51,-2.51
235.90,-2.03,0.47,-2.09,0.41,-0.41,-0.42,-0.11,-2.44,-2.50,-2.50
238.26,-2.09,0.40,-2.09,0.39,-0.39,-0.37,-0.11,-2.48,-2.48,-2.49
240.64,-2.09,0.37,-2.08,0.38,-0.38,-0.32,-0.12,-2.47,-2.46,-2.46
243.05,-2.14,0.29,-2.09,0.35,-0.35,-0.27,-0.12,-2.49,-2.44,-2.43
245.48,-2.15,0.26,-2.09,0.32,-0.32,-0.22,-0.12,-2.47,-2.42,-2.41
247.93,-2.12,0.26,-2.10,0.29,-0.29,-0.18,-0.13,-2.41,-2.39,-2.38
250.41,-2.11,0.25,-2.10,0.27,-0.27,-0.13,-0.13,-2.37,-2.37,-2.36
252.92,-2.09,0.24,-2.12,0.22,-0.22,-0.09,-0.13,-2.31,-2.34,-2.33
255.45,-2.08,0.23,-2.15,0.17,-0.17,-0.05,-0.13,-2.25,-2.32,-2.31
258.00,-2.12,0.17,-2.18,0.11,-0.11,-0.01,-0.12,-2.23,-2.30,-2.29
260.58,-2.16,0.11,-2.20,0.07,-0.07,0.03,-0.12,-2.23,-2.27,-2.27
263.19,-2.23,0.01,-2.22,0.03,-0.03,0.06,-0.12,-2.26,-2.25,-2.24
265.82,-2.26,-0.04,-2.24,-0.01,0.01,0.10,-0.11,-2.24,-2.22,-2.22
268.48,-2.26,-0.06,-2.26,-0.06,0.06,0.13,-0.10,-2.20,-2.20,-2.20
271.16,-2.26,-0.09,-2.27,-0.09,0.09,0.16,-0.10,-2.17,-2.17,-2.17
273.87,-2.27,-0.12,-2.29,-0.14,0.14,0.20,-0.09,-2.13,-2.15,-2.15
276.61,-2.45,-0.33,-2.32,-0.20,0.20,0.23,-0.08,-2.25,-2.12,-2.12
279.38,-2.51,-0.42,-2.35,-0.26,0.26,0.26,-0.07,-2.25,-2.09,-2.09
282.17,-2.43,-0.36,-2.38,-0.31,0.31,0.29,-0.06,-2.12,-2.07,-2.07
284.99,-2.28,-0.25,-2.39,-0.35,0.35,0.32,-0.05,-1.92,-2.04,-2.03
287.84,-2.19,-0.18,-2.40,-0.39,0.39,0.34,-0.04,-1.80,-2.01,-2.01
290.72,-2.40,-0.42,-2.41,-0.43,0.43,0.37,-0.03,-1.97,-1.98,-1.98
293.63,-2.42,-0.47,-2.41,-0.46,0.46,0.40,-0.01,-1.96,-1.95,-1.95
296.57,-2.41,-0.49,-2.42,-0.50,0.50,0.43,0.00,-1.91,-1.92,-1.92
299.53,-2.45,-0.56,-2.44,-0.54,0.54,0.46,0.01,-1.91,-1.89,-1.89
302.53,-2.60,-0.73,-2.44,-0.58,0.58,0.49,0.03,-2.02,-1.87,-1.87
305.55,-2.56,-0.73,-2.45,-0.61,0.61,0.52,0.04,-1.95,-1.84,-1.83
308.61,-2.47,-0.66,-2.46,-0.65,0.65,0.55,0.06,-1.82,-1.82,-1.81
311.69,-2.33,-0.55,-2.48,-0.68,0.68,0.58,0.07,-1.65,-1.79,-1.78
314.81,-2.38,-0.62,-2.49,-0.72,0.72,0.61,0.09,-1.66,-1.77,-1.76
317.96,-2.50,-0.76,-2.50,-0.75,0.75,0.65,0.11,-1.75,-1.75,-1.74
321.14,-2.54,-0.81,-2.51,-0.78,0.78,0.68,0.12,-1.76,-1.73,-1.73
324.35,-2.54,-0.83,-2.50,-0.79,0.79,0.71,0.14,-1.75,-1.71,-1.71
327.59,-2.55,-0.85,-2.51,-0.81,0.81,0.74,0.16,-1.74,-1.70,-1.70
330.87,-2.55,-0.86,-2.52,-0.83,0.83,0.77,0.18,-1.72,-1.69,-1.69
334.18,-2.55,-0.88,-2.53,-0.85,0.85,0.81,0.19,-1.70,-1.67,-1.67
337.52,-2.55,-0.89,-2.54,-0.88,0.88,0.84,0.21,-1.67,-1.66,-1.66
340.90,-2.52,-0.87,-2.56,-0.91,0.91,0.87,0.23,-1.61,-1.66,-1.65
344.30,-2.44,-0.80,-2.58,-0.93,0.93,0.90,0.25,-1.51,-1.65,-1.64
347.75,-2.52,-0.88,-2.59,-0.94,0.94,0.93,0.27,-1.58,-1.64,-1.64
351.23,-2.63,-1.00,-2.58,-0.94,0.94,0.96,0.29,-1.69,-1.64,-1.63
354.74,-2.65,-1.01,-2.57,-0.94,0.94,0.99,0.31,-1.71,-1.64,-1.64
358.28,-2.64,-1.01,-2.57,-0.94,0.94,1.02,0.33,-1.70,-1.63,-1.63
361.87,-2.64,-1.01,-2.58,-0.95,0.95,1.04,0.35,-1.69,-1.63,-1.63
365.49,-2.63,-1.01,-2.58,-0.95,0.95,1.06,0.37,-1.68,-1.63,-1.62
369.14,-2.62,-0.99,-2.58,-0.95,0.95,1.09,0.39,-1.67,-1.63,-1.63
372.83,-2.61,-0.98,-2.59,-0.96,0.96,1.10,0.41,-1.65,-1.63,-1.63
376.56,-2.51,-0.87,-2.61,-0.97,0.97,1.12,0.43,-1.54,-1.63,-1.64
380.33,-2.48,-0.85,-2.63,-0.99,0.99,1.13,0.45,-1.49,-1.64,-1.63
384.13,-2.63,-1.00,-2.65,-1.01,1.01,1.14,0.47,-1.62,-1.64,-1.63
387.97,-2.61,-0.97,-2.67,-1.02,1.02,1.14,0.49,-1.58,-1.65,-1.64
391.85,-2.65,-1.00,-2.68,-1.03,1.03,1.14,0.51,-1.62,-1.65,-1.65
395.77,-2.74,-1.10,-2.71,-1.05,1.05,1.14,0.53,-1.69,-1.66,-1.64
399.73,-2.73,-1.08,-2.74,-1.08,1.08,1.13,0.55,-1.65,-1.66,-1.65
403.72,-2.74,-1.09,-2.77,-1.10,1.10,1.12,0.57,-1.64,-1.67,-1.65
407.76,-2.84,-1.17,-2.80,-1.12,1.12,1.11,0.60,-1.72,-1.67,-1.67
411.84,-2.88,-1.21,-2.82,-1.14,1.14,1.09,0.62,-1.74,-1.67,-1.67
415.96,-2.88,-1.21,-2.83,-1.16,1.16,1.08,0.64,-1.72,-1.67,-1.67
420.12,-2.88,-1.21,-2.84,-1.16,1.16,1.05,0.66,-1.72,-1.67,-1.67
424.32,-2.85,-1.18,-2.82,-1.15,1.15,1.03,0.68,-1.70,-1.67,-1.67
428.56,-2.73,-1.07,-2.78,-1.13,1.13,1.01,0.70,-1.60,-1.66,-1.66
432.85,-2.72,-1.07,-2.74,-1.10,1.10,0.98,0.71,-1.62,-1.64,-1.65
437.18,-2.79,-1.15,-2.69,-1.07,1.07,0.95,0.73,-1.72,-1.62,-1.64
441.55,-2.71,-1.11,-2.63,-1.04,1.04,0.92,0.75,-1.67,-1.59,-1.60
445.96,-2.57,-1.00,-2.56,-1.00,1.00,0.89,0.77,-1.57,-1.56,-1.57
450.42,-2.47,-0.93,-2.48,-0.95,0.95,0.86,0.78,-1.52,-1.53,-1.54
454.93,-2.37,-0.88,-2.39,-0.90,0.90,0.83,0.80,-1.47,-1.49,-1.49
459.48,-2.28,-0.83,-2.29,-0.85,0.85,0.80,0.81,-1.43,-1.44,-1.45
464.07,-2.15,-0.75,-2.20,-0.80,0.80,0.77,0.82,-1.35,-1.40,-1.40
468.71,-2.08,-0.74,-2.10,-0.75,0.75,0.74,0.83,-1.33,-1.35,-1.34
473.40,-2.01,-0.71,-2.02,-0.72,0.72,0.71,0.84,-1.29,-1.30,-1.30
478.13,-1.97,-0.73,-1.94,-0.68,0.68,0.68,0.85,-1.28,-1.25,-1.24
482.91,-1.96,-0.76,-1.85,-0.65,0.65,0.65,0.85,-1.31,-1.21,-1.20
487.74,-1.74,-0.58,-1.78,-0.61,0.61,0.62,0.86,-1.13,-1.16,-1.16
492.62,-1.60,-0.49,-1.72,-0.59,0.59,0.60,0.86,-1.01,-1.13,-1.11
497.55,-1.59,-0.50,-1.67,-0.57,0.57,0.57,0.86,-1.02,-1.10,-1.09
