frequency,raw,error,smoothed,error_smoothed,equalization,parametric_eq,fixed_band_eq,equalized_raw,equalized_smoothed,target
20.00,-1.70,-5.45,-1.70,-5.48,5.48,5.14,2.10,3.78,3.78,3.75
20.20,-1.66,-5.46,-1.66,-5.48,5.48,5.14,2.16,3.82,3.81,3.80
20.40,-1.62,-5.46,-1.62,-5.47,5.47,5.14,2.22,3.85,3.85,3.85
20.61,-1.58,-5.45,-1.58,-5.46,5.46,5.14,2.29,3.88,3.88,3.87
20.81,-1.55,-5.47,-1.54,-5.45,5.45,5.14,2.35,3.90,3.91,3.92
21.02,-1.51,-5.47,-1.50,-5.44,5.44,5.14,2.42,3.93,3.94,3.96
21.23,-1.46,-5.44,-1.46,-5.42,5.42,5.14,2.49,3.96,3.96,3.98
21.44,-1.42,-5.42,-1.42,-5.41,5.41,5.13,2.57,3.99,3.98,4.00
21.66,-1.38,-5.40,-1.39,-5.39,5.39,5.13,2.64,4.01,4.00,4.02
21.87,-1.33,-5.36,-1.35,-5.37,5.37,5.13,2.72,4.04,4.02,4.03
22.09,-1.30,-5.35,-1.31,-5.35,5.35,5.12,2.80,4.05,4.04,4.05
22.31,-1.28,-5.34,-1.28,-5.33,5.33,5.12,2.88,4.05,4.05,4.06
22.54,-1.25,-5.31,-1.24,-5.30,5.30,5.11,2.96,4.05,4.06,4.06
22.76,-1.23,-5.29,-1.21,-5.27,5.27,5.10,3.04,4.04,4.06,4.06
22.99,-1.20,-5.25,-1.17,-5.23,5.23,5.10,3.13,4.03,4.06,4.05
23.22,-1.16,-5.21,-1.14,-5.20,5.20,5.09,3.22,4.04,4.06,4.05
23.45,-1.11,-5.16,-1.11,-5.17,5.17,5.09,3.31,4.07,4.06,4.05
23.69,-1.06,-5.12,-1.08,-5.15,5.15,5.08,3.41,4.08,4.06,4.06
23.92,-1.02,-5.07,-1.05,-5.12,5.12,5.07,3.50,4.10,4.06,4.06
24.16,-0.99,-5.05,-1.02,-5.08,5.08,5.06,3.60,4.09,4.06,4.06
24.40,-0.98,-5.05,-0.99,-5.05,5.05,5.05,3.70,4.07,4.06,4.07
24.65,-0.97,-5.03,-0.96,-5.02,5.02,5.04,3.80,4.05,4.06,4.06
24.89,-0.96,-5.02,-0.93,-4.99,4.99,5.03,3.90,4.03,4.06,4.06
25.14,-0.93,-4.99,-0.90,-4.96,4.96,5.02,4.00,4.04,4.06,4.06
25.39,-0.89,-4.96,-0.87,-4.94,4.94,5.01,4.10,4.05,4.06,4.07
25.65,-0.85,-4.92,-0.85,-4.91,4.91,5.00,4.20,4.06,4.06,4.07
25.91,-0.81,-4.87,-0.82,-4.88,4.88,4.99,4.30,4.07,4.06,4.06
26.16,-0.78,-4.84,-0.79,-4.86,4.86,4.98,4.41,4.08,4.06,4.06
26.43,-0.76,-4.82,-0.77,-4.83,4.83,4.97,4.51,4.06,4.06,4.05
26.69,-0.73,-4.78,-0.74,-4.79,4.79,4.95,4.61,4.06,4.06,4.05
26.96,-0.70,-4.76,-0.71,-4.76,4.76,4.94,4.71,4.06,4.05,4.06
27.23,-0.68,-4.74,-0.68,-4.73,4.73,4.93,4.80,4.05,4.05,4.06
27.50,-0.65,-4.71,-0.64,-4.70,4.70,4.91,4.90,4.05,4.05,4.06
27.77,-0.62,-4.67,-0.61,-4.66,4.66,4.90,4.99,4.04,4.05,4.05
28.05,-0.59,-4.64,-0.59,-4.63,4.63,4.88,5.08,4.04,4.05,4.05
28.33,-0.57,-4.60,-0.56,-4.60,4.60,4.87,5.16,4.03,4.04,4.03
28.62,-0.54,-4.57,-0.53,-4.58,4.58,4.85,5.23,4.04,4.04,4.03
28.90,-0.51,-4.55,-0.51,-4.55,4.55,4.83,5.31,4.04,4.04,4.04
29.19,-0.48,-4.51,-0.49,-4.53,4.53,4.82,5.37,4.05,4.04,4.03
29.48,-0.45,-4.50,-0.46,-4.50,4.50,4.80,5.43,4.05,4.04,4.05
29.78,-0.42,-4.46,-0.44,-4.48,4.48,4.78,5.48,4.06,4.04,4.04
30.08,-0.40,-4.44,-0.42,-4.45,4.45,4.76,5.52,4.05,4.03,4.04
30.38,-0.39,-4.42,-0.39,-4.43,4.43,4.74,5.56,4.04,4.03,4.03
30.68,-0.38,-4.41,-0.37,-4.40,4.40,4.72,5.59,4.02,4.03,4.03
30.99,-0.37,-4.40,-0.35,-4.38,4.38,4.70,5.60,4.01,4.03,4.03
31.30,-0.35,-4.37,-0.33,-4.36,4.36,4.68,5.61,4.01,4.03,4.02
31.61,-0.33,-4.35,-0.32,-4.34,4.34,4.66,5.62,4.01,4.02,4.02
31.93,-0.31,-4.33,-0.30,-4.32,4.32,4.64,5.61,4.01,4.02,4.02
32.24,-0.28,-4.29,-0.28,-4.30,4.30,4.62,5.59,4.02,4.01,4.01
32.57,-0.25,-4.26,-0.26,-4.27,4.27,4.60,5.57,4.02,4.01,4.01
32.89,-0.21,-4.22,-0.24,-4.24,4.24,4.57,5.54,4.03,4.00,4.01
33.22,-0.20,-4.20,-0.22,-4.21,4.21,4.55,5.50,4.01,4.00,4.00
33.55,-0.20,-4.19,-0.19,-4.18,4.18,4.53,5.45,3.98,3.99,4.00
33.89,-0.20,-4.18,-0.16,-4.15,4.15,4.50,5.40,3.95,3.99,3.98
34.23,-0.17,-4.16,-0.14,-4.12,4.12,4.48,5.34,3.95,3.98,3.99
34.57,-0.14,-4.11,-0.11,-4.09,4.09,4.45,5.28,3.95,3.98,3.98
34.92,-0.10,-4.07,-0.09,-4.06,4.06,4.43,5.21,3.96,3.97,3.97
35.27,-0.06,-4.03,-0.07,-4.04,4.04,4.40,5.14,3.98,3.97,3.97
35.62,-0.03,-3.99,-0.05,-4.02,4.02,4.37,5.07,3.99,3.97,3.96
35.97,0.01,-3.95,-0.04,-4.00,4.00,4.35,4.99,4.01,3.96,3.96
36.33,0.01,-3.96,-0.03,-3.99,3.99,4.32,4.91,4.00,3.96,3.97
36.70,0.01,-3.94,-0.02,-3.98,3.98,4.29,4.83,3.99,3.96,3.95
37.06,0.01,-3.94,-0.00,-3.96,3.96,4.26,4.75,3.97,3.96,3.95
37.43,0.01,-3.95,0.01,-3.94,3.94,4.23,4.67,3.95,3.96,3.96
37.81,0.01,-3.95,0.03,-3.93,3.93,4.20,4.58,3.94,3.96,3.96
38.19,0.01,-3.94,0.04,-3.91,3.91,4.17,4.50,3.92,3.96,3.95
38.57,0.02,-3.94,0.06,-3.90,3.90,4.14,4.42,3.92,3.95,3.96
38.95,0.03,-3.93,0.07,-3.88,3.88,4.11,4.34,3.91,3.95,3.96
39.34,0.05,-3.90,0.09,-3.87,3.87,4.08,4.26,3.92,3.95,3.95
39.74,0.08,-3.87,0.10,-3.85,3.85,4.05,4.19,3.93,3.95,3.95
40.14,0.12,-3.83,0.12,-3.83,3.83,4.02,4.11,3.95,3.95,3.95
40.54,0.16,-3.79,0.14,-3.81,3.81,3.98,4.04,3.97,3.95,3.95
40.94,0.20,-3.74,0.15,-3.79,3.79,3.95,3.97,3.99,3.94,3.94
41.35,0.21,-3.72,0.17,-3.76,3.76,3.92,3.90,3.97,3.93,3.93
41.76,0.21,-3.72,0.19,-3.74,3.74,3.88,3.84,3.95,3.93,3.93
42.18,0.21,-3.72,0.20,-3.72,3.72,3.85,3.77,3.93,3.92,3.93
42.60,0.21,-3.70,0.21,-3.70,3.70,3.81,3.71,3.91,3.91,3.91
43.03,0.21,-3.69,0.22,-3.68,3.68,3.78,3.66,3.89,3.89,3.90
43.46,0.21,-3.68,0.22,-3.66,3.66,3.74,3.60,3.87,3.88,3.89
43.90,0.21,-3.65,0.21,-3.65,3.65,3.70,3.55,3.86,3.87,3.86
44.33,0.21,-3.64,0.21,-3.64,3.64,3.67,3.50,3.85,3.85,3.85
44.78,0.21,-3.62,0.21,-3.63,3.63,3.63,3.45,3.84,3.84,3.83
45.23,0.21,-3.61,0.21,-3.61,3.61,3.59,3.41,3.82,3.82,3.82
45.68,0.21,-3.59,0.21,-3.59,3.59,3.55,3.37,3.80,3.81,3.80
46.13,0.21,-3.57,0.22,-3.57,3.57,3.52,3.33,3.78,3.79,3.78
46.60,0.21,-3.56,0.23,-3.55,3.55,3.48,3.30,3.76,3.77,3.77
47.06,0.21,-3.54,0.24,-3.52,3.52,3.44,3.26,3.73,3.76,3.75
47.53,0.21,-3.53,0.25,-3.49,3.49,3.40,3.23,3.70,3.74,3.74
48.01,0.21,-3.53,0.25,-3.47,3.47,3.36,3.21,3.68,3.72,3.74
48.49,0.27,-3.45,0.26,-3.45,3.45,3.32,3.18,3.72,3.71,3.72
48.97,0.33,-3.36,0.26,-3.43,3.43,3.28,3.16,3.76,3.69,3.69
49.46,0.32,-3.35,0.27,-3.40,3.40,3.23,3.14,3.72,3.68,3.67
49.96,0.31,-3.34,0.29,-3.37,3.37,3.19,3.12,3.68,3.66,3.65
50.46,0.31,-3.33,0.30,-3.35,3.35,3.15,3.10,3.66,3.64,3.64
50.96,0.31,-3.32,0.30,-3.32,3.32,3.11,3.08,3.63,3.63,3.63
51.47,0.31,-3.29,0.31,-3.30,3.30,3.07,3.07,3.61,3.61,3.60
51.99,0.30,-3.29,0.33,-3.27,3.27,3.02,3.05,3.57,3.60,3.59
52.51,0.30,-3.28,0.34,-3.24,3.24,2.98,3.04,3.54,3.58,3.58
53.03,0.30,-3.27,0.36,-3.21,3.21,2.93,3.03,3.51,3.57,3.57
53.56,0.36,-3.20,0.37,-3.18,3.18,2.89,3.02,3.54,3.55,3.56
54.10,0.41,-3.13,0.38,-3.15,3.15,2.85,3.01,3.56,3.54,3.54
54.64,0.41,-3.11,0.40,-3.13,3.13,2.80,3.00,3.54,3.52,3.52
55.18,0.41,-3.10,0.42,-3.09,3.09,2.76,2.99,3.50,3.51,3.51
55.74,0.41,-3.08,0.44,-3.06,3.06,2.71,2.98,3.47,3.49,3.49
56.29,0.45,-3.03,0.45,-3.03,3.03,2.66,2.96,3.48,3.48,3.48
56.86,0.51,-2.95,0.46,-3.00,3.00,2.62,2.95,3.51,3.46,3.46
57.42,0.52,-2.90,0.48,-2.96,2.96,2.57,2.94,3.48,3.44,3.42
58.00,0.51,-2.90,0.49,-2.93,2.93,2.52,2.92,3.44,3.41,3.41
58.58,0.51,-2.89,0.50,-2.89,2.89,2.48,2.90,3.40,3.39,3.40
59.16,0.51,-2.86,0.51,-2.85,2.85,2.43,2.88,3.36,3.36,3.37
59.76,0.51,-2.84,0.52,-2.81,2.81,2.38,2.86,3.32,3.33,3.35
60.35,0.51,-2.79,0.53,-2.76,2.76,2.33,2.84,3.27,3.29,3.30
60.96,0.51,-2.76,0.54,-2.71,2.71,2.29,2.81,3.22,3.25,3.27
61.57,0.50,-2.72,0.55,-2.66,2.66,2.24,2.78,3.16,3.21,3.22
62.18,0.51,-2.66,0.56,-2.61,2.61,2.19,2.75,3.12,3.17,3.17
62.80,0.59,-2.53,0.57,-2.56,2.56,2.14,2.71,3.15,3.13,3.12
63.43,0.61,-2.46,0.57,-2.51,2.51,2.09,2.67,3.12,3.08,3.07
64.07,0.61,-2.41,0.58,-2.45,2.45,2.04,2.63,3.06,3.03,3.02
64.71,0.61,-2.36,0.59,-2.39,2.39,1.99,2.59,3.00,2.98,2.97
65.35,0.61,-2.31,0.60,-2.33,2.33,1.94,2.54,2.94,2.93,2.92
66.01,0.61,-2.26,0.61,-2.27,2.27,1.89,2.49,2.88,2.87,2.87
66.67,0.61,-2.21,0.61,-2.21,2.21,1.84,2.44,2.82,2.82,2.82
67.33,0.61,-2.15,0.62,-2.15,2.15,1.79,2.38,2.76,2.77,2.76
68.01,0.61,-2.10,0.62,-2.09,2.09,1.74,2.32,2.70,2.71,2.71
68.69,0.61,-2.05,0.62,-2.03,2.03,1.69,2.26,2.64,2.65,2.66
69.37,0.61,-1.99,0.62,-1.98,1.98,1.64,2.20,2.59,2.60,2.60
70.07,0.61,-1.93,0.62,-1.92,1.92,1.59,2.14,2.53,2.54,2.54
70.77,0.61,-1.88,0.62,-1.86,1.86,1.54,2.07,2.47,2.48,2.49
71.48,0.61,-1.82,0.62,-1.80,1.80,1.49,2.00,2.41,2.42,2.43
72.19,0.61,-1.75,0.61,-1.74,1.74,1.44,1.94,2.35,2.35,2.36
72.91,0.61,-1.68,0.61,-1.69,1.69,1.39,1.87,2.30,2.29,2.29
73.64,0.61,-1.62,0.60,-1.63,1.63,1.34,1.80,2.24,2.23,2.23
74.38,0.61,-1.55,0.59,-1.57,1.57,1.28,1.72,2.18,2.17,2.16
75.12,0.61,-1.49,0.58,-1.52,1.52,1.23,1.65,2.13,2.10,2.10
75.87,0.61,-1.42,0.57,-1.47,1.47,1.18,1.58,2.08,2.04,2.03
76.63,0.58,-1.39,0.57,-1.41,1.41,1.13,1.51,1.99,1.98,1.97
77.40,0.54,-1.37,0.56,-1.36,1.36,1.08,1.43,1.90,1.92,1.91
78.17,0.49,-1.35,0.55,-1.30,1.30,1.03,1.36,1.79,1.86,1.84
78.95,0.51,-1.29,0.54,-1.26,1.26,0.98,1.29,1.77,1.80,1.80
79.74,0.51,-1.23,0.53,-1.21,1.21,0.92,1.22,1.72,1.74,1.74
80.54,0.51,-1.18,0.52,-1.17,1.17,0.87,1.14,1.68,1.68,1.69
81.35,0.51,-1.11,0.50,-1.12,1.12,0.82,1.07,1.63,1.63,1.62
82.16,0.51,-1.06,0.49,-1.08,1.08,0.77,1.00,1.59,1.57,1.57
82.98,0.51,-1.01,0.48,-1.04,1.04,0.72,0.93,1.55,1.52,1.52
83.81,0.51,-0.95,0.47,-0.99,0.99,0.67,0.85,1.50,1.46,1.46
84.65,0.51,-0.89,0.46,-0.94,0.94,0.61,0.78,1.45,1.40,1.40
85.50,0.45,-0.90,0.45,-0.90,0.90,0.56,0.71,1.35,1.34,1.35
86.35,0.39,-0.90,0.44,-0.85,0.85,0.51,0.64,1.24,1.29,1.29
87.22,0.39,-0.84,0.43,-0.80,0.80,0.46,0.57,1.19,1.23,1.23
88.09,0.41,-0.76,0.42,-0.75,0.75,0.41,0.50,1.16,1.17,1.17
88.97,0.41,-0.70,0.41,-0.70,0.70,0.36,0.43,1.11,1.11,1.11
89.86,0.41,-0.64,0.40,-0.65,0.65,0.31,0.36,1.06,1.05,1.05
90.76,0.41,-0.58,0.40,-0.59,0.59,0.26,0.29,1.00,0.99,0.99
91.66,0.41,-0.52,0.41,-0.52,0.52,0.21,0.22,0.93,0.93,0.93
92.58,0.40,-0.46,0.43,-0.45,0.45,0.16,0.16,0.85,0.87,0.86
93.51,0.39,-0.42,0.44,-0.37,0.37,0.10,0.09,0.76,0.81,0.81
94.44,0.43,-0.32,0.47,-0.29,0.29,0.05,0.02,0.72,0.75,0.75
95.39,0.50,-0.20,0.49,-0.20,0.20,0.00,-0.05,0.70,0.69,0.70
96.34,0.51,-0.12,0.52,-0.11,0.11,-0.05,-0.11,0.63,0.63,0.63
97.30,0.52,-0.05,0.54,-0.04,0.04,-0.10,-0.18,0.56,0.58,0.57
98.28,0.55,0.03,0.56,0.04,-0.04,-0.15,-0.25,0.51,0.52,0.52
99.26,0.61,0.15,0.57,0.11,-0.11,-0.19,-0.31,0.50,0.46,0.46
100.25,0.65,0.25,0.59,0.19,-0.19,-0.24,-0.38,0.46,0.40,0.40
101.25,0.65,0.30,0.60,0.25,-0.25,-0.29,-0.44,0.40,0.34,0.35
102.27,0.63,0.34,0.60,0.32,-0.32,-0.34,-0.51,0.31,0.29,0.29
103.29,0.62,0.40,0.61,0.38,-0.38,-0.39,-0.57,0.24,0.23,0.22
104.32,0.60,0.43,0.60,0.43,-0.43,-0.44,-0.63,0.17,0.17,0.17
105.37,0.58,0.47,0.59,0.48,-0.48,-0.49,-0.70,0.10,0.11,0.12
106.42,0.55,0.49,0.57,0.52,-0.52,-0.54,-0.76,0.03,0.05,0.06
107.48,0.53,0.54,0.55,0.56,-0.56,-0.58,-0.82,-0.03,-0.02,-0.01
108.56,0.51,0.59,0.52,0.60,-0.60,-0.63,-0.88,-0.09,-0.08,-0.08
109.64,0.49,0.63,0.49,0.63,-0.63,-0.68,-0.93,-0.14,-0.14,-0.14
110.74,0.47,0.67,0.46,0.66,-0.66,-0.73,-0.99,-0.19,-0.20,-0.20
111.85,0.45,0.70,0.44,0.70,-0.70,-0.77,-1.05,-0.25,-0.26,-0.25
112.97,0.46,0.79,0.41,0.73,-0.73,-0.82,-1.10,-0.27,-0.32,-0.33
114.10,0.40,0.78,0.39,0.77,-0.77,-0.87,-1.15,-0.37,-0.38,-0.38
115.24,0.33,0.77,0.37,0.81,-0.81,-0.92,-1.20,-0.48,-0.44,-0.44
116.39,0.33,0.84,0.36,0.86,-0.86,-0.96,-1.25,-0.53,-0.49,-0.51
117.55,0.34,0.89,0.36,0.90,-0.90,-1.01,-1.30,-0.56,-0.54,-0.55
118.73,0.34,0.95,0.36,0.95,-0.95,-1.05,-1.34,-0.61,-0.59,-0.61
119.92,0.35,0.99,0.36,1.00,-1.00,-1.10,-1.39,-0.65,-0.64,-0.64
121.12,0.35,1.04,0.37,1.05,-1.05,-1.15,-1.43,-0.70,-0.69,-0.69
122.33,0.36,1.10,0.38,1.11,-1.11,-1.19,-1.47,-0.75,-0.73,-0.74
123.55,0.37,1.14,0.39,1.17,-1.17,-1.24,-1.50,-0.80,-0.78,-0.77
124.79,0.38,1.19,0.41,1.22,-1.22,-1.28,-1.54,-0.84,-0.82,-0.81
126.03,0.44,1.29,0.42,1.28,-1.28,-1.33,-1.57,-0.84,-0.86,-0.85
127.29,0.49,1.37,0.45,1.34,-1.34,-1.37,-1.60,-0.85,-0.90,-0.88
128.57,0.50,1.43,0.47,1.40,-1.40,-1.41,-1.63,-0.90,-0.93,-0.93
129.85,0.50,1.47,0.48,1.45,-1.45,-1.46,-1.65,-0.95,-0.97,-0.97
131.15,0.51,1.52,0.49,1.50,-1.50,-1.50,-1.68,-0.99,-1.01,-1.01
132.46,0.51,1.56,0.50,1.55,-1.55,-1.55,-1.70,-1.04,-1.05,-1.05
133.79,0.52,1.61,0.51,1.60,-1.60,-1.59,-1.72,-1.07,-1.09,-1.09
135.12,0.52,1.65,0.52,1.64,-1.64,-1.64,-1.74,-1.12,-1.12,-1.13
136.48,0.53,1.69,0.53,1.69,-1.69,-1.68,-1.76,-1.16,-1.16,-1.16
137.84,0.53,1.73,0.54,1.73,-1.73,-1.72,-1.78,-1.20,-1.19,-1.20
139.22,0.53,1.77,0.55,1.78,-1.78,-1.77,-1.79,-1.25,-1.23,-1.24
140.61,0.53,1.82,0.55,1.82,-1.82,-1.81,-1.81,-1.29,-1.27,-1.29
142.02,0.52,1.83,0.56,1.87,-1.87,-1.86,-1.82,-1.35,-1.31,-1.31
143.44,0.51,1.86,0.57,1.92,-1.92,-1.90,-1.83,-1.41,-1.35,-1.35
144.87,0.59,1.99,0.58,1.98,-1.98,-1.94,-1.85,-1.39,-1.40,-1.40
146.32,0.62,2.07,0.60,2.05,-2.05,-1.99,-1.86,-1.43,-1.45,-1.45
147.78,0.63,2.11,0.61,2.11,-2.11,-2.03,-1.88,-1.48,-1.51,-1.48
149.26,0.63,2.17,0.61,2.18,-2.18,-2.08,-1.89,-1.55,-1.57,-1.54
150.75,0.63,2.24,0.62,2.25,-2.25,-2.13,-1.91,-1.62,-1.64,-1.61
152.26,0.63,2.32,0.62,2.33,-2.33,-2.17,-1.92,-1.70,-1.71,-1.69
153.78,0.63,2.39,0.62,2.40,-2.40,-2.22,-1.94,-1.77,-1.78,-1.76
155.32,0.63,2.47,0.62,2.47,-2.47,-2.27,-1.95,-1.84,-1.86,-1.84
156.88,0.63,2.56,0.61,2.55,-2.55,-2.31,-1.97,-1.92,-1.94,-1.93
158.44,0.63,2.65,0.59,2.61,-2.61,-2.36,-1.99,-1.98,-2.01,-2.02
160.03,0.60,2.71,0.57,2.66,-2.66,-2.41,-2.01,-2.06,-2.09,-2.11
161.63,0.53,2.71,0.55,2.71,-2.71,-2.46,-2.03,-2.18,-2.16,-2.18
163.24,0.52,2.77,0.54,2.77,-2.77,-2.52,-2.05,-2.25,-2.23,-2.25
164.88,0.53,2.84,0.53,2.83,-2.83,-2.57,-2.08,-2.30,-2.29,-2.31
166.53,0.52,2.88,0.53,2.88,-2.88,-2.63,-2.10,-2.36,-2.35,-2.36
168.19,0.52,2.93,0.53,2.92,-2.92,-2.68,-2.13,-2.40,-2.39,-2.41
169.87,0.51,2.96,0.54,2.97,-2.97,-2.74,-2.16,-2.46,-2.43,-2.45
171.57,0.50,2.98,0.55,3.01,-3.01,-2.80,-2.19,-2.51,-2.46,-2.48
173.29,0.49,2.99,0.56,3.05,-3.05,-2.86,-2.23,-2.56,-2.49,-2.50
175.02,0.47,2.98,0.58,3.08,-3.08,-2.93,-2.26,-2.61,-2.51,-2.51
176.77,0.66,3.19,0.60,3.12,-3.12,-2.99,-2.30,-2.46,-2.52,-2.53
178.54,0.70,3.24,0.62,3.16,-3.16,-3.06,-2.33,-2.46,-2.54,-2.54
180.32,0.70,3.24,0.65,3.19,-3.19,-3.13,-2.37,-2.49,-2.55,-2.54
182.13,0.70,3.24,0.67,3.23,-3.23,-3.20,-2.42,-2.53,-2.56,-2.54
183.95,0.71,3.26,0.69,3.26,-3.26,-3.27,-2.46,-2.55,-2.57,-2.55
185.79,0.72,3.28,0.72,3.30,-3.30,-3.34,-2.51,-2.58,-2.58,-2.56
187.65,0.73,3.31,0.74,3.34,-3.34,-3.41,-2.55,-2.61,-2.59,-2.58
189.52,0.75,3.35,0.76,3.37,-3.37,-3.47,-2.60,-2.62,-2.61,-2.60
191.42,0.76,3.38,0.78,3.41,-3.41,-3.53,-2.65,-2.65,-2.63,-2.62
193.33,0.78,3.43,0.79,3.44,-3.44,-3.58,-2.70,-2.66,-2.65,-2.65
195.27,0.79,3.46,0.80,3.47,-3.47,-3.63,-2.76,-2.68,-2.67,-2.67
197.22,0.81,3.50,0.80,3.49,-3.49,-3.66,-2.81,-2.68,-2.69,-2.69
199.19,0.82,3.54,0.81,3.52,-3.52,-3.69,-2.87,-2.70,-2.71,-2.72
201.18,0.82,3.56,0.82,3.55,-3.55,-3.71,-2.92,-2.73,-2.74,-2.74
203.19,0.83,3.59,0.82,3.58,-3.58,-3.72,-2.98,-2.75,-2.76,-2.76
205.23,0.83,3.62,0.83,3.61,-3.61,-3.72,-3.04,-2.78,-2.79,-2.79
207.28,0.83,3.63,0.83,3.64,-3.64,-3.71,-3.10,-2.81,-2.81,-2.80
209.35,0.83,3.66,0.83,3.66,-3.66,-3.70,-3.16,-2.83,-2.83,-2.83
211.44,0.83,3.69,0.83,3.68,-3.68,-3.68,-3.22,-2.85,-2.85,-2.86
213.56,0.82,3.69,0.82,3.69,-3.69,-3.66,-3.27,-2.87,-2.87,-2.87
215.69,0.82,3.71,0.82,3.71,-3.71,-3.64,-3.33,-2.89,-2.89,-2.89
217.85,0.82,3.72,0.82,3.72,-3.72,-3.62,-3.39,-2.90,-2.90,-2.90
220.03,0.81,3.73,0.81,3.73,-3.73,-3.59,-3.44,-2.92,-2.91,-2.92
222.23,0.81,3.75,0.81,3.74,-3.74,-3.57,-3.50,-2.93,-2.92,-2.94
224.45,0.81,3.74,0.81,3.74,-3.74,-3.55,-3.55,-2.93,-2.93,-2.93
226.70,0.81,3.75,0.82,3.75,-3.75,-3.53,-3.60,-2.94,-2.93,-2.94
228.96,0.81,3.74,0.82,3.75,-3.75,-3.51,-3.65,-2.94,-2.93,-2.93
231.25,0.82,3.74,0.83,3.75,-3.75,-3.50,-3.69,-2.93,-2.92,-2.92
233.57,0.83,3.75,0.84,3.75,-3.75,-3.49,-3.73,-2.92,-2.92,-2.92
235.90,0.84,3.75,0.85,3.76,-3.76,-3.47,-3.77,-2.92,-2.90,-2.91
238.26,0.86,3.76,0.87,3.76,-3.76,-3.46,-3.80,-2.90,-2.89,-2.90
240.64,0.88,3.76,0.89,3.76,-3.76,-3.45,-3.83,-2.88,-2.87,-2.88
243.05,0.89,3.74,0.91,3.76,-3.76,-3.45,-3.86,-2.87,-2.85,-2.85
245.48,0.91,3.74,0.92,3.75,-3.75,-3.44,-3.88,-2.84,-2.83,-2.83
247.93,0.94,3.74,0.93,3.75,-3.75,-3.44,-3.89,-2.81,-2.81,-2.80
250.41,0.96,3.75,0.94,3.73,-3.73,-3.44,-3.91,-2.77,-2.79,-2.79
252.92,0.97,3.73,0.95,3.72,-3.72,-3.43,-3.91,-2.75,-2.77,-2.76
255.45,0.98,3.72,0.95,3.70,-3.70,-3.43,-3.91,-2.72,-2.75,-2.74
258.00,1.00,3.72,0.96,3.68,-3.68,-3.43,-3.91,-2.68,-2.72,-2.72
260.58,1.02,3.72,0.96,3.66,-3.66,-3.43,-3.91,-2.64,-2.70,-2.70
263.19,0.96,3.63,0.95,3.63,-3.63,-3.43,-3.90,-2.67,-2.68,-2.67
265.82,0.90,3.56,0.94,3.60,-3.60,-3.44,-3.88,-2.70,-2.65,-2.66
268.48,0.89,3.53,0.93,3.56,-3.56,-3.44,-3.86,-2.67,-2.63,-2.64
271.16,0.89,3.49,0.92,3.53,-3.53,-3.44,-3.84,-2.64,-2.61,-2.60
273.87,0.89,3.48,0.91,3.49,-3.49,-3.44,-3.82,-2.60,-2.58,-2.59
276.61,0.89,3.45,0.90,3.46,-3.46,-3.45,-3.79,-2.57,-2.56,-2.56
279.38,0.89,3.42,0.88,3.42,-3.42,-3.45,-3.76,-2.53,-2.53,-2.53
282.17,0.89,3.40,0.87,3.38,-3.38,-3.45,-3.73,-2.49,-2.51,-2.51
284.99,0.89,3.37,0.86,3.34,-3.34,-3.46,-3.70,-2.45,-2.48,-2.48
287.84,0.84,3.30,0.85,3.30,-3.30,-3.46,-3.66,-2.46,-2.45,-2.46
290.72,0.79,3.22,0.84,3.27,-3.27,-3.47,-3.63,-2.48,-2.42,-2.43
293.63,0.82,3.22,0.84,3.24,-3.24,-3.47,-3.59,-2.42,-2.40,-2.40
296.57,0.85,3.22,0.83,3.20,-3.20,-3.47,-3.55,-2.35,-2.37,-2.37
299.53,0.87,3.21,0.82,3.17,-3.17,-3.48,-3.52,-2.30,-2.34,-2.34
302.53,0.79,3.12,0.81,3.13,-3.13,-3.48,-3.48,-2.34,-2.32,-2.33
305.55,0.77,3.05,0.80,3.09,-3.09,-3.49,-3.45,-2.32,-2.29,-2.28
308.61,0.78,3.05,0.78,3.05,-3.05,-3.49,-3.41,-2.27,-2.27,-2.27
311.69,0.79,3.03,0.76,3.01,-3.01,-3.50,-3.38,-2.22,-2.25,-2.24
314.81,0.79,3.00,0.75,2.97,-2.97,-3.50,-3.35,-2.18,-2.22,-2.21
317.96,0.74,2.94,0.73,2.93,-2.93,-3.50,-3.32,-2.19,-2.21,-2.20
321.14,0.70,2.89,0.71,2.90,-2.90,-3.51,-3.29,-2.20,-2.19,-2.19
324.35,0.69,2.86,0.69,2.86,-2.86,-3.51,-3.27,-2.17,-2.17,-2.17
327.59,0.69,2.85,0.67,2.82,-2.82,-3.51,-3.24,-2.13,-2.16,-2.16
330.87,0.65,2.80,0.65,2.79,-2.79,-3.52,-3.22,-2.14,-2.14,-2.15
334.18,0.60,2.73,0.63,2.76,-2.76,-3.52,-3.20,-2.16,-2.13,-2.13
337.52,0.59,2.72,0.62,2.74,-2.74,-3.52,-3.18,-2.15,-2.12,-2.13
340.90,0.58,2.69,0.61,2.72,-2.72,-3.53,-3.17,-2.14,-2.12,-2.11
344.30,0.58,2.68,0.59,2.70,-2.70,-3.53,-3.15,-2.12,-2.11,-2.10
347.75,0.58,2.69,0.58,2.68,-2.68,-3.53,-3.14,-2.10,-2.11,-2.11
351.23,0.58,2.68,0.57,2.67,-2.67,-3.53,-3.13,-2.09,-2.10,-2.10
354.74,0.59,2.69,0.57,2.67,-2.67,-3.54,-3.13,-2.08,-2.10,-2.10
358.28,0.59,2.68,0.58,2.67,-2.67,-3.54,-3.12,-2.08,-2.10,-2.09
361.87,0.60,2.70,0.59,2.68,-2.68,-3.54,-3.12,-2.08,-2.09,-2.10
365.49,0.60,2.69,0.60,2.70,-2.70,-3.54,-3.12,-2.10,-2.09,-2.09
369.14,0.61,2.71,0.63,2.72,-2.72,-3.54,-3.13,-2.11,-2.09,-2.10
372.83,0.62,2.72,0.65,2.75,-2.75,-3.54,-3.13,-2.13,-2.10,-2.10
376.56,0.63,2.73,0.67,2.77,-2.77,-3.54,-3.14,-2.14,-2.10,-2.10
380.33,0.63,2.73,0.70,2.80,-2.80,-3.54,-3.15,-2.17,-2.10,-2.10
384.13,0.72,2.82,0.72,2.83,-2.83,-3.54,-3.17,-2.11,-2.11,-2.10
387.97,0.75,2.86,0.74,2.85,-2.85,-3.54,-3.18,-2.10,-2.11,-2.11
391.85,0.82,2.94,0.76,2.88,-2.88,-3.54,-3.20,-2.06,-2.12,-2.12
395.77,0.85,2.96,0.78,2.91,-2.91,-3.54,-3.22,-2.06,-2.12,-2.11
399.73,0.85,2.97,0.80,2.93,-2.93,-3.54,-3.24,-2.08,-2.13,-2.12
403.72,0.85,2.98,0.81,2.95,-2.95,-3.54,-3.26,-2.10,-2.13,-2.13
407.76,0.85,2.99,0.83,2.97,-2.97,-3.54,-3.28,-2.12,-2.14,-2.14
411.84,0.84,2.98,0.84,2.98,-2.98,-3.54,-3.30,-2.14,-2.14,-2.14
415.96,0.84,2.98,0.86,3.00,-3.00,-3.54,-3.33,-2.16,-2.14,-2.14
420.12,0.84,2.98,0.87,3.01,-3.01,-3.54,-3.35,-2.17,-2.14,-2.14
424.32,0.85,2.99,0.88,3.02,-3.02,-3.53,-3.38,-2.17,-2.14,-2.14
428.56,0.86,2.99,0.89,3.01,-3.01,-3.53,-3.40,-2.15,-2.13,-2.13
432.85,0.87,3.00,0.90,3.01,-3.01,-3.53,-3.43,-2.14,-2.11,-2.13
437.18,0.90,3.02,0.92,3.01,-3.01,-3.52,-3.45,-2.11,-2.09,-2.12
441.55,0.93,3.01,0.94,3.01,-3.01,-3.52,-3.48,-2.08,-2.07,-2.08
445.96,0.98,3.03,0.98,3.01,-3.01,-3.52,-3.50,-2.03,-2.03,-2.05
450.42,1.03,3.05,1.01,3.01,-3.01,-3.51,-3.52,-1.98,-2.00,-2.02
454.93,1.09,3.06,1.05,3.01,-3.01,-3.51,-3.54,-1.92,-1.96,-1.97
459.48,1.08,3.00,1.10,3.01,-3.01,-3.50,-3.56,-1.93,-1.91,-1.92
464.07,1.11,2.98,1.14,3.01,-3.01,-3.50,-3.57,-1.90,-1.87,-1.87
468.71,1.16,2.97,1.19,3.01,-3.01,-3.49,-3.58,-1.85,-1.82,-1.81
473.40,1.23,3.00,1.24,3.01,-3.01,-3.49,-3.59,-1.78,-1.77,-1.77
478.13,1.28,2.99,1.28,3.01,-3.01,-3.48,-3.59,-1.73,-1.72,-1.71
482.91,1.33,3.01,1.33,3.01,-3.01,-3.48,-3.59,-1.68,-1.68,-1.68
487.74,1.37,3.01,1.37,3.00,-3.00,-3.47,-3.59,-1.63,-1.64,-1.64
492.62,1.40,2.99,1.39,3.00,-3.00,-3.46,-3.58,-1.60,-1.60,-1.59
497.55,1.43,3.00,1.42,2.99,-2.99,-3.46,-3.57,-1.56,-1.57,-1.57
502.52,1.46,3.00,1.44,2.99,-2.99,-3.45,-3.55,-1.53,-1.55,-1.54
507.55,1.48,3.01,1.45,2.99,-2.99,-3.44,-3.53,-1.51,-1.54,-1.53
