frequency,raw,error,smoothed,error_smoothed,equalization,parametric_eq,fixed_band_eq,equalized_raw,equalized_smoothed,target
20.00,-26.82,-27.86,-26.89,-27.96,27.96,28.67,15.06,1.13,1.07,1.04
20.20,-26.77,-27.86,-26.81,-27.91,27.91,28.56,15.27,1.14,1.11,1.09
20.40,-26.71,-27.85,-26.73,-27.87,27.87,28.45,15.49,1.16,1.14,1.14
20.61,-26.66,-27.83,-26.65,-27.83,27.83,28.35,15.72,1.16,1.17,1.17
20.81,-26.61,-27.83,-26.58,-27.78,27.78,28.24,15.95,1.17,1.20,1.22
21.02,-26.55,-27.81,-26.50,-27.73,27.73,28.14,16.18,1.18,1.23,1.26
21.23,-26.47,-27.75,-26.42,-27.67,27.67,28.05,16.42,1.20,1.25,1.28
21.44,-26.39,-27.69,-26.34,-27.62,27.62,27.95,16.67,1.23,1.28,1.30
21.66,-26.31,-27.63,-26.27,-27.56,27.56,27.86,16.92,1.25,1.30,1.31
21.87,-26.23,-27.55,-26.19,-27.50,27.50,27.77,17.18,1.27,1.31,1.32
22.09,-26.14,-27.48,-26.11,-27.44,27.44,27.68,17.45,1.30,1.33,1.34
22.31,-26.03,-27.38,-26.03,-27.38,27.38,27.59,17.73,1.35,1.34,1.35
22.54,-25.93,-27.29,-25.95,-27.30,27.30,27.50,18.01,1.36,1.35,1.35
22.76,-25.82,-27.17,-25.86,-27.22,27.22,27.42,18.30,1.39,1.35,1.35
22.99,-25.71,-27.05,-25.78,-27.13,27.13,27.34,18.60,1.42,1.35,1.34
23.22,-25.66,-27.00,-25.70,-27.05,27.05,27.26,18.91,1.39,1.35,1.34
23.45,-25.60,-26.94,-25.62,-26.98,26.98,27.18,19.23,1.37,1.36,1.34
23.69,-25.55,-26.90,-25.55,-26.90,26.90,27.10,19.56,1.35,1.36,1.35
23.92,-25.50,-26.85,-25.48,-26.83,26.83,27.02,19.90,1.33,1.36,1.35
24.16,-25.43,-26.79,-25.41,-26.76,26.76,26.95,20.25,1.33,1.35,1.36
24.40,-25.36,-26.73,-25.35,-26.70,26.70,26.88,20.61,1.34,1.35,1.37
24.65,-25.29,-26.65,-25.29,-26.64,26.64,26.80,20.99,1.35,1.35,1.36
24.89,-25.22,-26.57,-25.23,-26.58,26.58,26.73,21.39,1.36,1.35,1.35
25.14,-25.16,-26.51,-25.17,-26.53,26.53,26.66,21.80,1.37,1.35,1.35
25.39,-25.10,-26.46,-25.11,-26.47,26.47,26.59,22.23,1.37,1.36,1.36
25.65,-25.04,-26.40,-25.04,-26.40,26.40,26.52,22.67,1.36,1.36,1.36
25.91,-24.98,-26.33,-24.97,-26.33,26.33,26.45,23.14,1.35,1.36,1.35
26.16,-24.92,-26.27,-24.90,-26.26,26.26,26.38,23.63,1.34,1.35,1.35
26.43,-24.85,-26.20,-24.83,-26.18,26.18,26.31,24.15,1.33,1.35,1.35
26.69,-24.78,-26.13,-24.76,-26.11,26.11,26.25,24.69,1.33,1.35,1.35
26.96,-24.71,-26.07,-24.69,-26.03,26.03,26.18,25.26,1.32,1.35,1.35
27.23,-24.62,-25.98,-24.62,-25.96,25.96,26.11,25.87,1.34,1.34,1.35
27.50,-24.53,-25.88,-24.54,-25.89,25.89,26.05,26.52,1.35,1.34,1.35
27.77,-24.44,-25.78,-24.47,-25.81,25.81,25.98,27.21,1.37,1.34,1.34
28.05,-24.35,-25.69,-24.39,-25.73,25.73,25.91,27.95,1.38,1.34,1.34
28.33,-24.29,-25.62,-24.32,-25.66,25.66,25.85,28.74,1.36,1.34,1.33
28.62,-24.24,-25.57,-24.24,-25.58,25.58,25.78,29.59,1.34,1.34,1.33
28.90,-24.18,-25.52,-24.17,-25.50,25.50,25.72,30.51,1.32,1.33,1.33
29.19,-24.11,-25.43,-24.09,-25.43,25.43,25.65,31.50,1.31,1.33,1.32
29.48,-24.03,-25.37,-24.02,-25.35,25.35,25.59,32.58,1.32,1.33,1.34
29.78,-23.95,-25.28,-23.94,-25.27,25.27,25.52,33.72,1.32,1.33,1.33
30.08,-23.87,-25.21,-23.87,-25.20,25.20,25.45,34.91,1.33,1.33,1.34
30.38,-23.81,-25.14,-23.81,-25.13,25.13,25.39,36.09,1.32,1.32,1.32
30.68,-23.74,-25.06,-23.74,-25.06,25.06,25.32,37.12,1.32,1.32,1.32
30.99,-23.67,-24.99,-23.67,-24.99,24.99,25.26,37.79,1.32,1.32,1.32
31.30,-23.59,-24.91,-23.61,-24.92,24.92,25.19,37.91,1.33,1.32,1.32
31.61,-23.51,-24.83,-23.54,-24.85,24.85,25.12,37.45,1.34,1.31,1.31
31.93,-23.43,-24.74,-23.46,-24.78,24.78,25.05,36.59,1.34,1.31,1.31
32.24,-23.37,-24.67,-23.39,-24.70,24.70,24.99,35.53,1.33,1.31,1.30
32.57,-23.32,-24.63,-23.32,-24.62,24.62,24.92,34.42,1.30,1.30,1.31
32.89,-23.28,-24.58,-23.24,-24.54,24.54,24.85,33.36,1.26,1.30,1.30
33.22,-23.21,-24.50,-23.17,-24.46,24.46,24.78,32.36,1.25,1.29,1.29
33.55,-23.13,-24.42,-23.09,-24.38,24.38,24.71,31.45,1.25,1.29,1.29
33.89,-23.05,-24.33,-23.02,-24.30,24.30,24.64,30.61,1.24,1.28,1.27
34.23,-22.95,-24.23,-22.94,-24.22,24.22,24.57,29.83,1.26,1.28,1.28
34.57,-22.85,-24.12,-22.87,-24.14,24.14,24.50,29.13,1.29,1.27,1.27
34.92,-22.75,-24.02,-22.80,-24.06,24.06,24.42,28.48,1.31,1.27,1.26
35.27,-22.68,-23.94,-22.72,-23.98,23.98,24.35,27.88,1.30,1.26,1.26
35.62,-22.61,-23.87,-22.65,-23.91,23.91,24.28,27.32,1.29,1.26,1.26
35.97,-22.54,-23.79,-22.57,-23.83,23.83,24.20,26.81,1.29,1.26,1.25
36.33,-22.48,-23.74,-22.50,-23.75,23.75,24.13,26.33,1.27,1.25,1.26
36.70,-22.43,-23.68,-22.42,-23.67,23.67,24.05,25.88,1.24,1.25,1.24
37.06,-22.38,-23.62,-22.35,-23.60,23.60,23.97,25.46,1.22,1.25,1.24
37.43,-22.31,-23.56,-22.27,-23.52,23.52,23.89,25.08,1.21,1.25,1.25
37.81,-22.24,-23.49,-22.20,-23.45,23.45,23.81,24.71,1.20,1.25,1.25
38.19,-22.16,-23.41,-22.13,-23.38,23.38,23.73,24.37,1.21,1.25,1.24
38.57,-22.07,-23.32,-22.06,-23.31,23.31,23.65,24.05,1.24,1.25,1.25
38.95,-21.97,-23.22,-22.00,-23.24,23.24,23.57,23.75,1.27,1.25,1.25
39.34,-21.90,-23.15,-21.93,-23.18,23.18,23.49,23.47,1.27,1.25,1.25
39.74,-21.84,-23.08,-21.86,-23.11,23.11,23.41,23.21,1.27,1.24,1.24
40.14,-21.77,-23.02,-21.79,-23.04,23.04,23.32,22.96,1.26,1.24,1.24
40.54,-21.68,-22.92,-21.73,-22.96,22.96,23.24,22.73,1.28,1.24,1.24
40.94,-21.59,-22.82,-21.66,-22.89,22.89,23.15,22.51,1.30,1.23,1.23
41.35,-21.58,-22.81,-21.59,-22.82,22.82,23.06,22.31,1.24,1.23,1.22
41.76,-21.57,-22.79,-21.52,-22.74,22.74,22.98,22.12,1.17,1.22,1.22
42.18,-21.53,-22.75,-21.46,-22.67,22.67,22.89,21.94,1.14,1.21,1.22
42.60,-21.44,-22.64,-21.39,-22.59,22.59,22.80,21.77,1.15,1.20,1.20
43.03,-21.35,-22.55,-21.32,-22.51,22.51,22.71,21.62,1.16,1.18,1.19
43.46,-21.26,-22.45,-21.25,-22.43,22.43,22.62,21.47,1.16,1.17,1.19
43.90,-21.17,-22.33,-21.19,-22.34,22.34,22.53,21.34,1.17,1.16,1.16
44.33,-21.10,-22.24,-21.12,-22.26,22.26,22.43,21.22,1.16,1.14,1.14
44.78,-21.03,-22.15,-21.05,-22.17,22.17,22.34,21.11,1.14,1.13,1.12
45.23,-20.95,-22.06,-20.97,-22.09,22.09,22.24,21.01,1.14,1.11,1.11
45.68,-20.87,-21.96,-20.90,-22.00,22.00,22.15,20.91,1.13,1.10,1.09
46.13,-20.79,-21.86,-20.82,-21.90,21.90,22.05,20.83,1.11,1.08,1.07
46.60,-20.73,-21.80,-20.74,-21.81,21.81,21.95,20.76,1.08,1.07,1.07
47.06,-20.67,-21.72,-20.67,-21.71,21.71,21.86,20.69,1.04,1.05,1.05
47.53,-20.62,-21.66,-20.59,-21.63,21.63,21.76,20.63,1.00,1.03,1.03
48.01,-20.56,-21.59,-20.52,-21.54,21.54,21.66,20.58,0.98,1.01,1.03
48.49,-20.48,-21.49,-20.46,-21.45,21.45,21.56,20.54,0.97,1.00,1.01
48.97,-20.39,-21.38,-20.39,-21.37,21.37,21.46,20.50,0.98,0.98,0.99
49.46,-20.31,-21.27,-20.32,-21.28,21.28,21.35,20.48,0.97,0.97,0.96
49.96,-20.23,-21.17,-20.24,-21.20,21.20,21.25,20.45,0.96,0.95,0.94
50.46,-20.14,-21.08,-20.17,-21.10,21.10,21.15,20.44,0.96,0.94,0.94
50.96,-20.05,-20.97,-20.09,-21.01,21.01,21.04,20.43,0.96,0.92,0.92
51.47,-20.00,-20.90,-20.01,-20.92,20.92,20.94,20.42,0.91,0.91,0.90
51.99,-19.95,-20.83,-19.93,-20.82,20.82,20.83,20.42,0.87,0.89,0.88
52.51,-19.89,-20.76,-19.85,-20.73,20.73,20.73,20.42,0.83,0.87,0.87
53.03,-19.82,-20.69,-19.78,-20.63,20.63,20.62,20.43,0.81,0.86,0.87
53.56,-19.72,-20.57,-19.70,-20.54,20.54,20.51,20.43,0.82,0.84,0.85
54.10,-19.61,-20.44,-19.63,-20.46,20.46,20.40,20.44,0.84,0.83,0.83
54.64,-19.51,-20.32,-19.56,-20.37,20.37,20.30,20.45,0.86,0.82,0.81
55.18,-19.43,-20.23,-19.49,-20.29,20.29,20.19,20.46,0.86,0.80,0.80
55.74,-19.38,-20.16,-19.41,-20.20,20.20,20.08,20.47,0.82,0.79,0.78
56.29,-19.32,-20.09,-19.34,-20.11,20.11,19.97,20.47,0.78,0.77,0.77
56.86,-19.27,-20.02,-19.26,-20.01,20.01,19.86,20.47,0.74,0.75,0.75
57.42,-19.21,-19.93,-19.18,-19.91,19.91,19.75,20.46,0.70,0.73,0.72
58.00,-19.14,-19.85,-19.10,-19.81,19.81,19.63,20.45,0.66,0.71,0.70
58.58,-19.04,-19.73,-19.02,-19.70,19.70,19.52,20.43,0.66,0.68,0.69
59.16,-18.95,-19.62,-18.94,-19.59,19.59,19.41,20.40,0.64,0.65,0.67
59.76,-18.89,-19.53,-18.86,-19.48,19.48,19.30,20.35,0.59,0.62,0.64
60.35,-18.81,-19.41,-18.79,-19.37,19.37,19.18,20.30,0.56,0.59,0.59
60.96,-18.71,-19.27,-18.71,-19.25,19.25,19.07,20.24,0.54,0.55,0.56
61.57,-18.57,-19.08,-18.63,-19.14,19.14,18.96,20.16,0.56,0.51,0.51
62.18,-18.48,-18.94,-18.56,-19.02,19.02,18.84,20.07,0.54,0.46,0.46
62.80,-18.49,-18.90,-18.48,-18.90,18.90,18.73,19.97,0.41,0.42,0.41
63.43,-18.41,-18.77,-18.41,-18.78,18.78,18.61,19.85,0.36,0.37,0.36
64.07,-18.29,-18.60,-18.33,-18.65,18.65,18.50,19.72,0.36,0.32,0.31
64.71,-18.24,-18.50,-18.26,-18.53,18.53,18.38,19.57,0.29,0.27,0.26
65.35,-18.20,-18.42,-18.19,-18.41,18.41,18.26,19.41,0.21,0.22,0.22
66.01,-18.15,-18.32,-18.12,-18.29,18.29,18.15,19.25,0.14,0.16,0.16
66.67,-18.05,-18.16,-18.05,-18.16,18.16,18.03,19.07,0.11,0.11,0.11
67.33,-18.00,-18.05,-17.98,-18.04,18.04,17.91,18.88,0.03,0.06,0.05
68.01,-18.00,-18.01,-17.91,-17.91,17.91,17.80,18.68,-0.09,0.00,0.01
68.69,-17.86,-17.81,-17.84,-17.79,17.79,17.68,18.48,-0.08,-0.05,-0.05
69.37,-17.74,-17.63,-17.76,-17.65,17.65,17.56,18.27,-0.09,-0.11,-0.11
70.07,-17.65,-17.48,-17.69,-17.52,17.52,17.44,18.05,-0.13,-0.17,-0.17
70.77,-17.61,-17.39,-17.61,-17.38,17.38,17.33,17.83,-0.23,-0.23,-0.22
71.48,-17.52,-17.24,-17.53,-17.24,17.24,17.21,17.61,-0.28,-0.29,-0.28
72.19,-17.41,-17.06,-17.45,-17.10,17.10,17.09,17.39,-0.31,-0.35,-0.35
72.91,-17.36,-16.95,-17.38,-16.96,16.96,16.97,17.17,-0.40,-0.42,-0.41
73.64,-17.30,-16.82,-17.30,-16.82,16.82,16.85,16.95,-0.48,-0.48,-0.48
74.38,-17.25,-16.71,-17.23,-16.69,16.69,16.73,16.73,-0.57,-0.54,-0.54
75.12,-17.18,-16.57,-17.16,-16.55,16.55,16.61,16.51,-0.63,-0.60,-0.61
75.87,-17.05,-16.37,-17.09,-16.42,16.42,16.49,16.29,-0.63,-0.67,-0.68
76.63,-17.04,-16.31,-17.03,-16.30,16.30,16.37,16.08,-0.74,-0.73,-0.74
77.40,-16.95,-16.16,-16.97,-16.18,16.18,16.25,15.87,-0.77,-0.79,-0.79
78.17,-16.81,-15.95,-16.90,-16.05,16.05,16.14,15.66,-0.76,-0.85,-0.86
78.95,-16.90,-16.00,-16.83,-15.92,15.92,16.02,15.46,-0.98,-0.91,-0.91
79.74,-16.80,-15.83,-16.77,-15.80,15.80,15.90,15.27,-1.00,-0.97,-0.97
80.54,-16.68,-15.66,-16.70,-15.68,15.68,15.78,15.08,-1.01,-1.02,-1.02
81.35,-16.64,-15.56,-16.63,-15.55,15.55,15.66,14.89,-1.09,-1.08,-1.08
82.16,-16.67,-15.53,-16.56,-15.43,15.43,15.53,14.71,-1.24,-1.14,-1.14
82.98,-16.48,-15.30,-16.50,-15.30,15.30,15.41,14.54,-1.18,-1.19,-1.18
83.81,-16.41,-15.16,-16.42,-15.17,15.17,15.29,14.37,-1.24,-1.25,-1.25
84.65,-16.32,-15.01,-16.35,-15.04,15.04,15.17,14.21,-1.28,-1.31,-1.31
85.50,-16.25,-14.90,-16.28,-14.92,14.92,15.05,14.06,-1.34,-1.36,-1.36
86.35,-16.20,-14.79,-16.22,-14.80,14.80,14.93,13.91,-1.41,-1.42,-1.42
87.22,-16.15,-14.68,-16.15,-14.67,14.67,14.81,13.76,-1.48,-1.48,-1.47
88.09,-16.07,-14.54,-16.07,-14.53,14.53,14.69,13.63,-1.54,-1.54,-1.54
88.97,-15.98,-14.39,-16.01,-14.41,14.41,14.57,13.49,-1.57,-1.60,-1.60
89.86,-15.97,-14.31,-15.95,-14.30,14.30,14.45,13.37,-1.67,-1.66,-1.66
90.76,-15.90,-14.18,-15.89,-14.18,14.18,14.33,13.25,-1.73,-1.72,-1.72
91.66,-15.76,-13.99,-15.83,-14.06,14.06,14.20,13.14,-1.70,-1.78,-1.77
92.58,-15.72,-13.87,-15.78,-13.94,13.94,14.08,13.03,-1.78,-1.84,-1.85
93.51,-15.80,-13.90,-15.72,-13.82,13.82,13.96,12.93,-1.98,-1.90,-1.90
94.44,-15.75,-13.79,-15.67,-13.71,13.71,13.84,12.83,-2.04,-1.96,-1.96
95.39,-15.58,-13.57,-15.61,-13.60,13.60,13.72,12.74,-1.99,-2.02,-2.01
96.34,-15.49,-13.41,-15.55,-13.48,13.48,13.60,12.66,-2.02,-2.07,-2.08
97.30,-15.50,-13.37,-15.49,-13.36,13.36,13.48,12.58,-2.14,-2.13,-2.13
98.28,-15.48,-13.29,-15.43,-13.24,13.24,13.35,12.50,-2.25,-2.19,-2.19
99.26,-15.39,-13.14,-15.35,-13.11,13.11,13.23,12.43,-2.29,-2.25,-2.25
100.25,-15.22,-12.92,-15.28,-12.98,12.98,13.11,12.37,-2.25,-2.31,-2.30
101.25,-15.19,-12.83,-15.22,-12.86,12.86,12.99,12.30,-2.34,-2.36,-2.36
102.27,-15.11,-12.69,-15.14,-12.72,12.72,12.87,12.24,-2.39,-2.42,-2.42
103.29,-15.09,-12.60,-15.05,-12.57,12.57,12.74,12.19,-2.52,-2.48,-2.49
104.32,-15.02,-12.49,-14.94,-12.40,12.40,12.62,12.14,-2.62,-2.54,-2.53
105.37,-14.85,-12.26,-14.84,-12.24,12.24,12.50,12.08,-2.62,-2.60,-2.59
106.42,-14.71,-12.06,-14.74,-12.08,12.08,12.38,12.04,-2.63,-2.66,-2.65
107.48,-14.70,-11.98,-14.64,-11.92,11.92,12.25,11.99,-2.78,-2.72,-2.72
108.56,-14.56,-11.78,-14.54,-11.75,11.75,12.13,11.94,-2.81,-2.78,-2.79
109.64,-14.45,-11.61,-14.44,-11.60,11.60,12.01,11.89,-2.86,-2.85,-2.84
110.74,-14.44,-11.53,-14.35,-11.44,11.44,11.89,11.85,-3.00,-2.91,-2.91
111.85,-14.26,-11.30,-14.27,-11.30,11.30,11.76,11.80,-2.97,-2.97,-2.96
112.97,-13.96,-10.93,-14.18,-11.15,11.15,11.64,11.75,-2.81,-3.03,-3.03
114.10,-13.90,-10.81,-14.10,-11.01,11.01,11.52,11.69,-2.89,-3.09,-3.09
115.24,-13.94,-10.79,-14.02,-10.87,10.87,11.39,11.64,-3.07,-3.14,-3.15
116.39,-14.01,-10.80,-13.96,-10.76,10.76,11.27,11.58,-3.25,-3.20,-3.21
117.55,-13.98,-10.72,-13.89,-10.64,10.64,11.15,11.51,-3.34,-3.25,-3.26
118.73,-13.86,-10.55,-13.81,-10.51,10.51,11.03,11.44,-3.35,-3.30,-3.31
119.92,-13.80,-10.45,-13.73,-10.38,10.38,10.90,11.37,-3.42,-3.35,-3.35
121.12,-13.71,-10.31,-13.67,-10.28,10.28,10.78,11.28,-3.43,-3.40,-3.40
122.33,-13.65,-10.21,-13.62,-10.18,10.18,10.66,11.20,-3.47,-3.44,-3.45
123.55,-13.60,-10.12,-13.56,-10.08,10.08,10.53,11.10,-3.52,-3.48,-3.48
124.79,-13.52,-10.00,-13.50,-9.98,9.98,10.41,11.00,-3.54,-3.52,-3.52
126.03,-13.41,-9.85,-13.44,-9.88,9.88,10.29,10.89,-3.53,-3.56,-3.56
127.29,-13.38,-9.79,-13.38,-9.77,9.77,10.16,10.78,-3.61,-3.60,-3.59
128.57,-13.33,-9.69,-13.31,-9.66,9.66,10.04,10.65,-3.67,-3.64,-3.64
129.85,-13.03,-9.35,-13.25,-9.57,9.57,9.92,10.53,-3.46,-3.68,-3.68
131.15,-13.01,-9.29,-13.20,-9.48,9.48,9.79,10.39,-3.53,-3.72,-3.72
132.46,-13.29,-9.53,-13.14,-9.39,9.39,9.67,10.25,-3.91,-3.76,-3.76
133.79,-13.30,-9.51,-13.10,-9.30,9.30,9.55,10.10,-4.00,-3.79,-3.79
135.12,-12.99,-9.15,-13.05,-9.23,9.23,9.42,9.95,-3.77,-3.83,-3.84
136.48,-12.83,-8.97,-13.01,-9.14,9.14,9.30,9.79,-3.69,-3.86,-3.86
137.84,-12.93,-9.02,-12.96,-9.06,9.06,9.18,9.63,-3.87,-3.90,-3.91
139.22,-13.02,-9.07,-12.91,-8.97,8.97,9.05,9.46,-4.05,-3.94,-3.95
140.61,-12.95,-8.96,-12.85,-8.88,8.88,8.93,9.30,-4.08,-3.98,-3.99
142.02,-12.85,-8.84,-12.80,-8.78,8.78,8.80,9.13,-4.07,-4.02,-4.01
143.44,-12.79,-8.74,-12.75,-8.69,8.69,8.68,8.95,-4.10,-4.06,-4.05
144.87,-12.60,-8.50,-12.69,-8.58,8.58,8.56,8.78,-4.02,-4.11,-4.10
146.32,-12.58,-8.43,-12.61,-8.45,8.45,8.43,8.60,-4.13,-4.16,-4.15
147.78,-12.66,-8.47,-12.54,-8.32,8.32,8.31,8.43,-4.34,-4.22,-4.19
149.26,-12.41,-8.17,-12.48,-8.20,8.20,8.19,8.25,-4.21,-4.28,-4.25
150.75,-12.32,-8.00,-12.42,-8.07,8.07,8.06,8.08,-4.25,-4.34,-4.32
152.26,-12.27,-7.88,-12.33,-7.92,7.92,7.94,7.90,-4.35,-4.41,-4.40
153.78,-12.22,-7.75,-12.23,-7.74,7.74,7.82,7.73,-4.48,-4.49,-4.47
155.32,-12.21,-7.66,-12.13,-7.57,7.57,7.69,7.56,-4.65,-4.56,-4.55
156.88,-12.16,-7.53,-12.05,-7.41,7.41,7.57,7.39,-4.76,-4.64,-4.63
158.44,-11.99,-7.27,-11.99,-7.27,7.27,7.45,7.22,-4.72,-4.72,-4.72
160.03,-11.79,-6.98,-11.92,-7.13,7.13,7.32,7.05,-4.66,-4.80,-4.81
161.63,-12.04,-7.15,-11.85,-6.98,6.98,7.20,6.89,-5.06,-4.87,-4.89
163.24,-11.84,-6.88,-11.77,-6.84,6.84,7.08,6.73,-5.00,-4.94,-4.96
164.88,-11.51,-6.50,-11.70,-6.70,6.70,6.96,6.57,-4.81,-5.00,-5.02
166.53,-11.44,-6.37,-11.61,-6.56,6.56,6.83,6.41,-4.88,-5.05,-5.07
168.19,-11.42,-6.30,-11.54,-6.44,6.44,6.71,6.26,-4.98,-5.10,-5.12
169.87,-11.46,-6.30,-11.47,-6.34,6.34,6.59,6.11,-5.13,-5.14,-5.16
171.57,-11.52,-6.34,-11.41,-6.24,6.24,6.47,5.96,-5.29,-5.17,-5.18
173.29,-11.51,-6.31,-11.32,-6.12,6.12,6.34,5.81,-5.39,-5.20,-5.21
175.02,-11.41,-6.19,-11.22,-6.00,6.00,6.22,5.67,-5.41,-5.22,-5.22
176.77,-11.05,-5.81,-11.14,-5.90,5.90,6.10,5.53,-5.15,-5.23,-5.24
178.54,-10.94,-5.70,-11.06,-5.81,5.81,5.98,5.39,-5.13,-5.24,-5.25
180.32,-11.03,-5.79,-10.96,-5.70,5.70,5.86,5.26,-5.33,-5.25,-5.25
182.13,-10.85,-5.61,-10.89,-5.62,5.62,5.74,5.13,-5.23,-5.27,-5.24
183.95,-10.77,-5.51,-10.83,-5.55,5.55,5.62,5.00,-5.22,-5.28,-5.26
185.79,-10.97,-5.71,-10.76,-5.47,5.47,5.49,4.88,-5.50,-5.29,-5.27
187.65,-10.64,-5.35,-10.68,-5.38,5.38,5.37,4.75,-5.27,-5.30,-5.29
189.52,-10.40,-5.10,-10.60,-5.28,5.28,5.25,4.63,-5.12,-5.32,-5.31
191.42,-10.21,-4.88,-10.53,-5.19,5.19,5.13,4.52,-5.02,-5.33,-5.33
193.33,-10.43,-5.08,-10.46,-5.11,5.11,5.02,4.40,-5.32,-5.35,-5.35
195.27,-10.65,-5.28,-10.41,-5.04,5.04,4.90,4.29,-5.61,-5.37,-5.38
197.22,-10.41,-5.01,-10.38,-4.98,4.98,4.78,4.18,-5.43,-5.40,-5.40
199.19,-10.28,-4.85,-10.32,-4.90,4.90,4.66,4.07,-5.38,-5.42,-5.43
201.18,-10.46,-5.01,-10.27,-4.82,4.82,4.54,3.96,-5.64,-5.45,-5.45
203.19,-10.33,-4.86,-10.23,-4.76,4.76,4.42,3.86,-5.57,-5.47,-5.47
205.23,-10.12,-4.63,-10.19,-4.69,4.69,4.31,3.76,-5.43,-5.49,-5.50
207.28,-10.08,-4.58,-10.13,-4.62,4.62,4.19,3.66,-5.47,-5.52,-5.51
209.35,-10.01,-4.48,-10.11,-4.57,4.57,4.07,3.56,-5.44,-5.54,-5.53
211.44,-9.99,-4.42,-10.09,-4.53,4.53,3.96,3.46,-5.46,-5.56,-5.57
213.56,-9.93,-4.35,-10.06,-4.48,4.48,3.84,3.37,-5.45,-5.58,-5.58
215.69,-10.02,-4.43,-10.00,-4.40,4.40,3.73,3.28,-5.62,-5.60,-5.59
217.85,-9.97,-4.36,-9.93,-4.32,4.32,3.61,3.19,-5.65,-5.61,-5.61
220.03,-9.78,-4.16,-9.87,-4.25,4.25,3.50,3.10,-5.53,-5.62,-5.62
222.23,-9.80,-4.15,-9.79,-4.16,4.16,3.38,3.01,-5.64,-5.63,-5.65
224.45,-9.76,-4.12,-9.68,-4.04,4.04,3.27,2.92,-5.72,-5.64,-5.64
226.70,-9.49,-3.85,-9.56,-3.92,3.92,3.16,2.84,-5.57,-5.64,-5.65
228.96,-9.56,-3.92,-9.42,-3.78,3.78,3.05,2.75,-5.78,-5.64,-5.64
231.25,-9.53,-3.90,-9.24,-3.61,3.61,2.94,2.67,-5.93,-5.63,-5.63
233.57,-9.28,-3.66,-9.02,-3.40,3.40,2.83,2.59,-5.88,-5.62,-5.62
235.90,-8.86,-3.25,-8.79,-3.18,3.18,2.72,2.51,-5.68,-5.61,-5.62
238.26,-8.49,-2.88,-8.54,-2.94,2.94,2.61,2.43,-5.55,-5.60,-5.61
240.64,-8.21,-2.62,-8.26,-2.68,2.68,2.50,2.35,-5.53,-5.58,-5.59
243.05,-8.03,-2.47,-7.99,-2.42,2.42,2.39,2.27,-5.61,-5.56,-5.56
245.48,-7.74,-2.20,-7.72,-2.18,2.18,2.28,2.19,-5.56,-5.54,-5.54
247.93,-7.33,-1.82,-7.46,-1.94,1.94,2.18,2.11,-5.39,-5.52,-5.51
250.41,-7.09,-1.59,-7.20,-1.71,1.71,2.07,2.04,-5.39,-5.50,-5.50
252.92,-6.81,-1.34,-6.96,-1.48,1.48,1.97,1.96,-5.33,-5.48,-5.47
255.45,-6.58,-1.14,-6.73,-1.27,1.27,1.86,1.88,-5.31,-5.45,-5.45
258.00,-6.41,-0.99,-6.54,-1.10,1.10,1.76,1.81,-5.31,-5.43,-5.42
260.58,-6.37,-0.96,-6.38,-0.97,0.97,1.66,1.73,-5.40,-5.41,-5.41
263.19,-6.17,-0.79,-6.24,-0.86,0.86,1.55,1.66,-5.31,-5.38,-5.38
265.82,-6.08,-0.71,-6.12,-0.76,0.76,1.45,1.59,-5.32,-5.36,-5.37
268.48,-6.12,-0.78,-6.01,-0.67,0.67,1.35,1.51,-5.45,-5.34,-5.35
271.16,-6.07,-0.76,-5.92,-0.60,0.60,1.25,1.44,-5.47,-5.32,-5.31
273.87,-5.87,-0.57,-5.85,-0.55,0.55,1.16,1.37,-5.32,-5.29,-5.30
276.61,-5.63,-0.37,-5.78,-0.52,0.52,1.06,1.29,-5.12,-5.27,-5.27
279.38,-5.70,-0.46,-5.72,-0.48,0.48,0.96,1.22,-5.22,-5.24,-5.24
282.17,-5.76,-0.54,-5.66,-0.44,0.44,0.87,1.15,-5.32,-5.22,-5.22
284.99,-5.65,-0.47,-5.59,-0.40,0.40,0.77,1.07,-5.25,-5.19,-5.18
287.84,-5.43,-0.26,-5.51,-0.35,0.35,0.68,1.00,-5.08,-5.16,-5.17
290.72,-5.39,-0.26,-5.41,-0.28,0.28,0.59,0.93,-5.11,-5.13,-5.13
293.63,-5.36,-0.25,-5.32,-0.21,0.21,0.50,0.85,-5.15,-5.10,-5.11
296.57,-5.26,-0.19,-5.21,-0.13,0.13,0.41,0.78,-5.13,-5.08,-5.07
299.53,-5.16,-0.11,-5.09,-0.04,0.04,0.32,0.70,-5.12,-5.05,-5.05
302.53,-5.03,0.00,-4.97,0.05,-0.05,0.23,0.63,-5.08,-5.02,-5.03
305.55,-4.92,0.07,-4.85,0.15,-0.15,0.14,0.56,-5.07,-5.00,-4.99
308.61,-4.78,0.19,-4.72,0.26,-0.26,0.05,0.48,-5.04,-4.98,-4.97
311.69,-4.60,0.35,-4.57,0.38,-0.38,-0.03,0.41,-4.98,-4.95,-4.95
314.81,-4.43,0.49,-4.44,0.49,-0.49,-0.12,0.33,-4.93,-4.93,-4.92
317.96,-4.25,0.65,-4.32,0.60,-0.60,-0.20,0.26,-4.85,-4.91,-4.91
321.14,-4.13,0.77,-4.20,0.69,-0.69,-0.28,0.18,-4.82,-4.89,-4.90
324.35,-4.04,0.84,-4.09,0.79,-0.79,-0.36,0.10,-4.83,-4.88,-4.88
327.59,-3.95,0.91,-4.00,0.87,-0.87,-0.44,0.02,-4.82,-4.86,-4.87
330.87,-3.82,1.04,-3.91,0.94,-0.94,-0.52,-0.05,-4.76,-4.85,-4.86
334.18,-3.74,1.10,-3.85,0.99,-0.99,-0.60,-0.13,-4.73,-4.84,-4.84
337.52,-3.75,1.08,-3.80,1.03,-1.03,-0.68,-0.21,-4.79,-4.83,-4.84
340.90,-3.75,1.07,-3.76,1.07,-1.07,-0.75,-0.29,-4.82,-4.82,-4.82
344.30,-3.77,1.04,-3.73,1.09,-1.09,-0.83,-0.37,-4.86,-4.82,-4.81
347.75,-3.75,1.06,-3.72,1.10,-1.10,-0.90,-0.46,-4.85,-4.81,-4.81
351.23,-3.68,1.12,-3.70,1.11,-1.11,-0.97,-0.54,-4.79,-4.81,-4.81
354.74,-3.72,1.09,-3.69,1.12,-1.12,-1.04,-0.62,-4.84,-4.81,-4.81
358.28,-3.74,1.06,-3.67,1.14,-1.14,-1.11,-0.71,-4.88,-4.80,-4.80
361.87,-3.67,1.13,-3.64,1.16,-1.16,-1.18,-0.79,-4.83,-4.80,-4.80
365.49,-3.63,1.16,-3.61,1.19,-1.19,-1.25,-0.88,-4.82,-4.80,-4.80
369.14,-3.63,1.18,-3.58,1.22,-1.22,-1.32,-0.97,-4.85,-4.80,-4.81
372.83,-3.55,1.26,-3.53,1.27,-1.27,-1.38,-1.05,-4.82,-4.80,-4.81
376.56,-3.51,1.30,-3.48,1.33,-1.33,-1.45,-1.14,-4.84,-4.81,-4.81
