frequency,raw,error,smoothed,error_smoothed,equalization,parametric_eq,fixed_band_eq,equalized_raw,equalized_smoothed,target
20.00,-26.82,-26.72,-26.89,-26.82,26.82,26.91,13.23,-0.00,-0.07,-0.10
20.20,-26.77,-26.72,-26.81,-26.78,26.78,26.81,13.44,0.01,-0.03,-0.05
20.40,-26.71,-26.71,-26.73,-26.74,26.74,26.70,13.65,0.02,0.00,0.00
20.61,-26.66,-26.69,-26.65,-26.69,26.69,26.60,13.87,0.03,0.04,0.03
20.81,-26.61,-26.69,-26.58,-26.64,26.64,26.50,14.10,0.03,0.07,0.08
21.02,-26.55,-26.67,-26.50,-26.59,26.59,26.40,14.33,0.04,0.10,0.12
21.23,-26.47,-26.61,-26.42,-26.54,26.54,26.31,14.56,0.07,0.12,0.14
21.44,-26.39,-26.55,-26.34,-26.49,26.49,26.21,14.80,0.10,0.15,0.16
21.66,-26.31,-26.49,-26.27,-26.43,26.43,26.13,15.05,0.12,0.17,0.18
21.87,-26.23,-26.42,-26.19,-26.37,26.37,26.04,15.30,0.14,0.18,0.19
22.09,-26.14,-26.35,-26.11,-26.31,26.31,25.95,15.56,0.17,0.20,0.21
22.31,-26.03,-26.25,-26.03,-26.25,26.25,25.87,15.83,0.22,0.21,0.22
22.54,-25.93,-26.16,-25.95,-26.17,26.17,25.79,16.10,0.23,0.22,0.22
22.76,-25.82,-26.04,-25.86,-26.09,26.09,25.71,16.39,0.27,0.22,0.22
22.99,-25.71,-25.92,-25.78,-26.00,26.00,25.63,16.68,0.29,0.22,0.21
23.22,-25.66,-25.87,-25.70,-25.92,25.92,25.56,16.98,0.26,0.23,0.21
23.45,-25.60,-25.81,-25.62,-25.85,25.85,25.48,17.28,0.25,0.23,0.21
23.69,-25.55,-25.77,-25.55,-25.77,25.77,25.41,17.60,0.22,0.23,0.22
23.92,-25.50,-25.72,-25.48,-25.70,25.70,25.34,17.93,0.20,0.23,0.22
24.16,-25.43,-25.65,-25.41,-25.64,25.64,25.27,18.27,0.20,0.23,0.22
24.40,-25.36,-25.59,-25.35,-25.57,25.57,25.20,18.61,0.21,0.22,0.23
24.65,-25.29,-25.51,-25.29,-25.51,25.51,25.13,18.98,0.22,0.22,0.22
24.89,-25.22,-25.44,-25.23,-25.45,25.45,25.07,19.35,0.23,0.22,0.22
25.14,-25.16,-25.38,-25.17,-25.40,25.40,25.00,19.74,0.24,0.23,0.22
25.39,-25.10,-25.33,-25.11,-25.34,25.34,24.94,20.14,0.24,0.23,0.23
25.65,-25.04,-25.27,-25.04,-25.27,25.27,24.88,20.56,0.23,0.23,0.23
25.91,-24.98,-25.21,-24.97,-25.20,25.20,24.81,20.99,0.22,0.23,0.22
26.16,-24.92,-25.14,-24.90,-25.13,25.13,24.75,21.44,0.21,0.23,0.22
26.43,-24.85,-25.08,-24.83,-25.05,25.05,24.69,21.91,0.20,0.22,0.22
26.69,-24.78,-25.00,-24.76,-24.98,24.98,24.63,22.41,0.20,0.22,0.22
26.96,-24.71,-24.93,-24.69,-24.91,24.91,24.57,22.92,0.20,0.22,0.22
27.23,-24.62,-24.85,-24.62,-24.83,24.83,24.51,23.45,0.21,0.22,0.22
27.50,-24.53,-24.75,-24.54,-24.76,24.76,24.45,24.01,0.23,0.22,0.22
27.77,-24.44,-24.65,-24.47,-24.68,24.68,24.39,24.60,0.24,0.22,0.21
28.05,-24.35,-24.56,-24.39,-24.61,24.61,24.34,25.21,0.25,0.21,0.21
28.33,-24.29,-24.49,-24.32,-24.53,24.53,24.28,25.84,0.24,0.21,0.20
28.62,-24.24,-24.44,-24.24,-24.45,24.45,24.22,26.50,0.21,0.21,0.20
28.90,-24.18,-24.39,-24.17,-24.38,24.38,24.16,27.18,0.20,0.21,0.21
29.19,-24.11,-24.31,-24.09,-24.30,24.30,24.10,27.87,0.19,0.21,0.20
29.48,-24.03,-24.24,-24.02,-24.22,24.22,24.05,28.57,0.19,0.21,0.21
29.78,-23.95,-24.15,-23.94,-24.15,24.15,23.99,29.26,0.20,0.21,0.20
30.08,-23.87,-24.09,-23.87,-24.08,24.08,23.93,29.91,0.20,0.20,0.21
30.38,-23.81,-24.02,-23.81,-24.01,24.01,23.87,30.50,0.20,0.20,0.20
30.68,-23.74,-23.94,-23.74,-23.94,23.94,23.82,30.97,0.20,0.20,0.20
30.99,-23.67,-23.87,-23.67,-23.87,23.87,23.76,31.29,0.20,0.20,0.20
31.30,-23.59,-23.79,-23.61,-23.80,23.80,23.70,31.43,0.21,0.20,0.19
31.61,-23.51,-23.70,-23.54,-23.73,23.73,23.64,31.37,0.22,0.19,0.19
31.93,-23.43,-23.63,-23.46,-23.65,23.65,23.58,31.14,0.22,0.19,0.19
32.24,-23.37,-23.55,-23.39,-23.58,23.58,23.52,30.76,0.21,0.19,0.18
32.57,-23.32,-23.50,-23.32,-23.50,23.50,23.46,30.28,0.18,0.18,0.18
32.89,-23.28,-23.46,-23.24,-23.42,23.42,23.40,29.73,0.14,0.18,0.18
33.22,-23.21,-23.38,-23.17,-23.34,23.34,23.34,29.15,0.13,0.17,0.17
33.55,-23.13,-23.30,-23.09,-23.26,23.26,23.28,28.56,0.13,0.17,0.17
33.89,-23.05,-23.21,-23.02,-23.18,23.18,23.21,27.98,0.13,0.16,0.16
34.23,-22.95,-23.11,-22.94,-23.10,23.10,23.15,27.42,0.15,0.16,0.16
34.57,-22.85,-23.00,-22.87,-23.02,23.02,23.09,26.88,0.17,0.16,0.15
34.92,-22.75,-22.91,-22.80,-22.95,22.95,23.02,26.36,0.19,0.15,0.15
35.27,-22.68,-22.83,-22.72,-22.87,22.87,22.96,25.88,0.19,0.15,0.14
35.62,-22.61,-22.75,-22.65,-22.79,22.79,22.89,25.41,0.18,0.15,0.14
35.97,-22.54,-22.68,-22.57,-22.71,22.71,22.82,24.98,0.17,0.14,0.14
36.33,-22.48,-22.62,-22.50,-22.64,22.64,22.75,24.57,0.16,0.14,0.14
36.70,-22.43,-22.56,-22.42,-22.56,22.56,22.69,24.18,0.13,0.14,0.13
37.06,-22.38,-22.51,-22.35,-22.49,22.49,22.62,23.82,0.11,0.14,0.13
37.43,-22.31,-22.45,-22.27,-22.41,22.41,22.54,23.47,0.10,0.14,0.14
37.81,-22.24,-22.38,-22.20,-22.34,22.34,22.47,23.15,0.10,0.14,0.14
38.19,-22.16,-22.29,-22.13,-22.27,22.27,22.40,22.85,0.11,0.14,0.13
38.57,-22.07,-22.21,-22.06,-22.20,22.20,22.33,22.56,0.13,0.14,0.14
38.95,-21.97,-22.12,-22.00,-22.14,22.14,22.25,22.30,0.17,0.14,0.15
39.34,-21.90,-22.04,-21.93,-22.07,22.07,22.18,22.04,0.17,0.14,0.14
39.74,-21.84,-21.98,-21.86,-22.01,22.01,22.10,21.81,0.16,0.14,0.14
40.14,-21.77,-21.91,-21.79,-21.94,21.94,22.02,21.59,0.16,0.14,0.14
40.54,-21.68,-21.82,-21.73,-21.87,21.87,21.94,21.38,0.18,0.14,0.14
40.94,-21.59,-21.72,-21.66,-21.79,21.79,21.86,21.19,0.20,0.14,0.13
41.35,-21.58,-21.71,-21.59,-21.72,21.72,21.78,21.01,0.14,0.13,0.13
41.76,-21.57,-21.69,-21.52,-21.65,21.65,21.70,20.85,0.08,0.12,0.12
42.18,-21.53,-21.65,-21.46,-21.57,21.57,21.62,20.70,0.04,0.12,0.12
42.60,-21.44,-21.55,-21.39,-21.50,21.50,21.54,20.55,0.06,0.11,0.11
43.03,-21.35,-21.45,-21.32,-21.42,21.42,21.45,20.42,0.06,0.09,0.10
43.46,-21.26,-21.35,-21.25,-21.34,21.34,21.37,20.31,0.08,0.08,0.09
43.90,-21.17,-21.25,-21.19,-21.26,21.26,21.28,20.20,0.08,0.07,0.07
44.33,-21.10,-21.15,-21.12,-21.17,21.17,21.19,20.10,0.07,0.06,0.05
44.78,-21.03,-21.06,-21.05,-21.09,21.09,21.10,20.01,0.06,0.05,0.03
45.23,-20.95,-20.98,-20.97,-21.01,21.01,21.01,19.93,0.05,0.03,0.02
45.68,-20.87,-20.88,-20.90,-20.92,20.92,20.92,19.87,0.05,0.02,0.01
46.13,-20.79,-20.78,-20.82,-20.83,20.83,20.83,19.81,0.03,0.00,-0.01
46.60,-20.73,-20.72,-20.74,-20.73,20.73,20.74,19.76,-0.00,-0.01,-0.01
47.06,-20.67,-20.64,-20.67,-20.64,20.64,20.64,19.72,-0.03,-0.03,-0.03
47.53,-20.62,-20.58,-20.59,-20.55,20.55,20.55,19.69,-0.07,-0.04,-0.04
48.01,-20.56,-20.52,-20.52,-20.47,20.47,20.45,19.67,-0.09,-0.05,-0.04
48.49,-20.48,-20.42,-20.46,-20.39,20.39,20.36,19.65,-0.09,-0.07,-0.06
48.97,-20.39,-20.31,-20.39,-20.31,20.31,20.26,19.64,-0.08,-0.08,-0.08
49.46,-20.31,-20.21,-20.32,-20.22,20.22,20.16,19.64,-0.09,-0.09,-0.10
49.96,-20.23,-20.11,-20.24,-20.13,20.13,20.06,19.65,-0.10,-0.11,-0.12
50.46,-20.14,-20.01,-20.17,-20.05,20.05,19.97,19.66,-0.10,-0.12,-0.13
50.96,-20.05,-19.91,-20.09,-19.95,19.95,19.87,19.68,-0.10,-0.14,-0.14
51.47,-20.00,-19.84,-20.01,-19.86,19.86,19.76,19.71,-0.14,-0.15,-0.16
51.99,-19.95,-19.78,-19.93,-19.77,19.77,19.66,19.74,-0.18,-0.16,-0.17
52.51,-19.89,-19.71,-19.85,-19.68,19.68,19.56,19.77,-0.21,-0.17,-0.18
53.03,-19.82,-19.64,-19.78,-19.59,19.59,19.46,19.81,-0.23,-0.19,-0.18
53.56,-19.72,-19.52,-19.70,-19.50,19.50,19.35,19.85,-0.22,-0.20,-0.20
54.10,-19.61,-19.40,-19.63,-19.42,19.42,19.25,19.90,-0.19,-0.21,-0.21
54.64,-19.51,-19.28,-19.56,-19.34,19.34,19.15,19.94,-0.18,-0.22,-0.23
55.18,-19.43,-19.20,-19.49,-19.26,19.26,19.04,19.98,-0.18,-0.23,-0.23
55.74,-19.38,-19.13,-19.41,-19.17,19.17,18.93,20.02,-0.21,-0.24,-0.25
56.29,-19.32,-19.06,-19.34,-19.08,19.08,18.83,20.05,-0.24,-0.25,-0.26
56.86,-19.27,-19.00,-19.26,-18.99,18.99,18.72,20.08,-0.28,-0.27,-0.27
57.42,-19.21,-18.91,-19.18,-18.89,18.89,18.61,20.11,-0.32,-0.28,-0.30
58.00,-19.14,-18.83,-19.10,-18.79,18.79,18.51,20.12,-0.35,-0.30,-0.31
58.58,-19.04,-18.72,-19.02,-18.69,18.69,18.40,20.13,-0.35,-0.33,-0.32
59.16,-18.95,-18.61,-18.94,-18.59,18.59,18.29,20.12,-0.36,-0.35,-0.34
59.76,-18.89,-18.53,-18.86,-18.49,18.49,18.18,20.10,-0.41,-0.38,-0.36
60.35,-18.81,-18.41,-18.79,-18.38,18.38,18.07,20.07,-0.43,-0.41,-0.40
60.96,-18.71,-18.27,-18.71,-18.26,18.26,17.96,20.02,-0.45,-0.44,-0.44
61.57,-18.57,-18.10,-18.63,-18.15,18.15,17.85,19.95,-0.42,-0.48,-0.48
62.18,-18.48,-17.96,-18.56,-18.04,18.04,17.74,19.87,-0.44,-0.52,-0.52
62.80,-18.49,-17.92,-18.48,-17.92,17.92,17.63,19.77,-0.57,-0.56,-0.57
63.43,-18.41,-17.80,-18.41,-17.80,17.80,17.52,19.65,-0.61,-0.60,-0.61
64.07,-18.29,-17.64,-18.33,-17.69,17.69,17.41,19.51,-0.61,-0.65,-0.66
64.71,-18.24,-17.54,-18.26,-17.57,17.57,17.30,19.36,-0.67,-0.69,-0.70
65.35,-18.20,-17.46,-18.19,-17.46,17.46,17.19,19.19,-0.75,-0.74,-0.74
66.01,-18.15,-17.36,-18.12,-17.34,17.34,17.07,19.01,-0.81,-0.79,-0.79
66.67,-18.05,-17.21,-18.05,-17.22,17.22,16.96,18.81,-0.84,-0.83,-0.84
67.33,-18.00,-17.11,-17.98,-17.10,17.10,16.85,18.60,-0.90,-0.88,-0.89
68.01,-18.00,-17.07,-17.91,-16.98,16.98,16.74,18.39,-1.02,-0.93,-0.93
68.69,-17.86,-16.88,-17.84,-16.86,16.86,16.63,18.16,-1.00,-0.98,-0.98
69.37,-17.74,-16.71,-17.76,-16.73,16.73,16.51,17.93,-1.01,-1.03,-1.03
70.07,-17.65,-16.57,-17.69,-16.60,16.60,16.40,17.69,-1.05,-1.08,-1.08
70.77,-17.61,-16.48,-17.61,-16.47,16.47,16.29,17.44,-1.14,-1.14,-1.13
71.48,-17.52,-16.34,-17.53,-16.34,16.34,16.17,17.20,-1.18,-1.19,-1.18
72.19,-17.41,-16.16,-17.45,-16.21,16.21,16.06,16.95,-1.21,-1.25,-1.25
72.91,-17.36,-16.05,-17.38,-16.07,16.07,15.95,16.70,-1.29,-1.30,-1.31
73.64,-17.30,-15.94,-17.30,-15.94,15.94,15.84,16.46,-1.36,-1.36,-1.36
74.38,-17.25,-15.83,-17.23,-15.81,15.81,15.72,16.21,-1.44,-1.42,-1.42
75.12,-17.18,-15.70,-17.16,-15.69,15.69,15.61,15.97,-1.49,-1.47,-1.48
75.87,-17.05,-15.51,-17.09,-15.56,15.56,15.50,15.73,-1.49,-1.53,-1.54
76.63,-17.04,-15.45,-17.03,-15.45,15.45,15.38,15.50,-1.59,-1.58,-1.59
77.40,-16.95,-15.31,-16.97,-15.33,15.33,15.27,15.27,-1.62,-1.64,-1.64
78.17,-16.81,-15.11,-16.90,-15.21,15.21,15.16,15.04,-1.60,-1.69,-1.70
78.95,-16.90,-15.16,-16.83,-15.09,15.09,15.04,14.82,-1.81,-1.74,-1.74
79.74,-16.80,-15.01,-16.77,-14.98,14.98,14.93,14.61,-1.82,-1.79,-1.79
80.54,-16.68,-14.84,-16.70,-14.86,14.86,14.82,14.40,-1.82,-1.84,-1.84
81.35,-16.64,-14.75,-16.63,-14.74,14.74,14.70,14.20,-1.90,-1.89,-1.89
82.16,-16.67,-14.73,-16.56,-14.63,14.63,14.59,14.00,-2.04,-1.93,-1.94
82.98,-16.48,-14.50,-16.50,-14.51,14.51,14.48,13.81,-1.97,-1.98,-1.98
83.81,-16.41,-14.38,-16.42,-14.39,14.39,14.36,13.63,-2.02,-2.03,-2.03
84.65,-16.32,-14.24,-16.35,-14.27,14.27,14.25,13.45,-2.05,-2.08,-2.08
85.50,-16.25,-14.13,-16.28,-14.15,14.15,14.14,13.28,-2.10,-2.13,-2.12
86.35,-16.20,-14.03,-16.22,-14.04,14.04,14.02,13.12,-2.16,-2.17,-2.17
87.22,-16.15,-13.93,-16.15,-13.92,13.92,13.91,12.96,-2.23,-2.22,-2.22
88.09,-16.07,-13.80,-16.07,-13.80,13.80,13.80,12.81,-2.27,-2.27,-2.27
88.97,-15.98,-13.65,-16.01,-13.68,13.68,13.68,12.66,-2.30,-2.33,-2.33
89.86,-15.97,-13.59,-15.95,-13.58,13.58,13.57,12.53,-2.39,-2.38,-2.38
90.76,-15.90,-13.47,-15.89,-13.47,13.47,13.46,12.40,-2.43,-2.43,-2.43
91.66,-15.76,-13.28,-15.83,-13.36,13.36,13.35,12.27,-2.40,-2.48,-2.48
92.58,-15.72,-13.18,-15.78,-13.25,13.25,13.23,12.15,-2.47,-2.53,-2.54
93.51,-15.80,-13.21,-15.72,-13.14,13.14,13.12,12.04,-2.66,-2.58,-2.59
94.44,-15.75,-13.12,-15.67,-13.04,13.04,13.01,11.93,-2.71,-2.63,-2.63
95.39,-15.58,-12.91,-15.61,-12.93,12.93,12.90,11.83,-2.65,-2.68,-2.68
96.34,-15.49,-12.76,-15.55,-12.82,12.82,12.78,11.73,-2.67,-2.73,-2.73
97.30,-15.50,-12.72,-15.49,-12.71,12.71,12.67,11.64,-2.79,-2.78,-2.78
98.28,-15.48,-12.65,-15.43,-12.60,12.60,12.56,11.56,-2.88,-2.82,-2.83
99.26,-15.39,-12.52,-15.35,-12.48,12.48,12.45,11.48,-2.91,-2.87,-2.87
100.25,-15.22,-12.30,-15.28,-12.36,12.36,12.33,11.40,-2.86,-2.92,-2.92
101.25,-15.19,-12.22,-15.22,-12.25,12.25,12.22,11.33,-2.94,-2.97,-2.97
102.27,-15.11,-12.09,-15.14,-12.13,12.13,12.11,11.26,-2.98,-3.02,-3.02
103.29,-15.09,-12.02,-15.05,-11.98,11.98,12.00,11.20,-3.11,-3.06,-3.07
104.32,-15.02,-11.91,-14.94,-11.83,11.83,11.88,11.13,-3.20,-3.11,-3.11
105.37,-14.85,-11.70,-14.84,-11.67,11.67,11.77,11.08,-3.18,-3.17,-3.16
106.42,-14.71,-11.50,-14.74,-11.53,11.53,11.66,11.02,-3.19,-3.22,-3.21
107.48,-14.70,-11.43,-14.64,-11.37,11.37,11.55,10.96,-3.33,-3.27,-3.27
108.56,-14.56,-11.24,-14.54,-11.22,11.22,11.44,10.91,-3.34,-3.32,-3.32
109.64,-14.45,-11.08,-14.44,-11.07,11.07,11.32,10.86,-3.38,-3.37,-3.37
110.74,-14.44,-11.01,-14.35,-10.93,10.93,11.21,10.80,-3.51,-3.42,-3.43
111.85,-14.26,-10.79,-14.27,-10.79,10.79,11.10,10.75,-3.47,-3.48,-3.47
112.97,-13.96,-10.44,-14.18,-10.65,10.65,10.99,10.69,-3.31,-3.53,-3.53
114.10,-13.90,-10.32,-14.10,-10.52,10.52,10.88,10.64,-3.38,-3.57,-3.58
115.24,-13.94,-10.31,-14.02,-10.39,10.39,10.76,10.58,-3.55,-3.62,-3.63
116.39,-14.01,-10.33,-13.96,-10.29,10.29,10.65,10.51,-3.72,-3.67,-3.68
117.55,-13.98,-10.26,-13.89,-10.19,10.19,10.54,10.45,-3.79,-3.71,-3.72
118.73,-13.86,-10.10,-13.81,-10.06,10.06,10.43,10.38,-3.80,-3.75,-3.76
119.92,-13.80,-10.01,-13.73,-9.94,9.94,10.32,10.30,-3.86,-3.79,-3.79
121.12,-13.71,-9.88,-13.67,-9.85,9.85,10.20,10.22,-3.86,-3.82,-3.83
122.33,-13.65,-9.79,-13.62,-9.77,9.77,10.09,10.14,-3.89,-3.86,-3.86
123.55,-13.60,-9.71,-13.56,-9.67,9.67,9.98,10.04,-3.93,-3.89,-3.89
124.79,-13.52,-9.60,-13.50,-9.58,9.58,9.87,9.95,-3.94,-3.92,-3.92
126.03,-13.41,-9.46,-13.44,-9.49,9.49,9.76,9.85,-3.92,-3.95,-3.95
127.29,-13.38,-9.41,-13.38,-9.40,9.40,9.64,9.74,-3.99,-3.98,-3.97
128.57,-13.33,-9.32,-13.31,-9.30,9.30,9.53,9.62,-4.03,-4.01,-4.01
129.85,-13.03,-8.99,-13.25,-9.21,9.21,9.42,9.50,-3.82,-4.04,-4.04
131.15,-13.01,-8.94,-13.20,-9.13,9.13,9.31,9.38,-3.88,-4.07,-4.07
132.46,-13.29,-9.19,-13.14,-9.05,9.05,9.19,9.25,-4.25,-4.10,-4.10
133.79,-13.30,-9.17,-13.10,-8.97,8.97,9.08,9.11,-4.33,-4.12,-4.13
135.12,-12.99,-8.83,-13.05,-8.90,8.90,8.97,8.97,-4.09,-4.15,-4.16
136.48,-12.83,-8.65,-13.01,-8.83,8.83,8.86,8.83,-4.00,-4.18,-4.18
137.84,-12.93,-8.71,-12.96,-8.75,8.75,8.75,8.68,-4.18,-4.21,-4.22
139.22,-13.02,-8.77,-12.91,-8.67,8.67,8.63,8.53,-4.35,-4.23,-4.25
140.61,-12.95,-8.67,-12.85,-8.59,8.59,8.52,8.37,-4.36,-4.27,-4.28
142.02,-12.85,-8.55,-12.80,-8.50,8.50,8.41,8.22,-4.35,-4.30,-4.30
143.44,-12.79,-8.46,-12.75,-8.42,8.42,8.30,8.06,-4.37,-4.33,-4.33
144.87,-12.60,-8.23,-12.69,-8.31,8.31,8.18,7.90,-4.29,-4.37,-4.37
146.32,-12.58,-8.17,-12.61,-8.19,8.19,8.07,7.75,-4.39,-4.41,-4.41
147.78,-12.66,-8.22,-12.54,-8.07,8.07,7.96,7.59,-4.59,-4.46,-4.44
149.26,-12.41,-7.92,-12.48,-7.96,7.96,7.85,7.43,-4.45,-4.52,-4.49
150.75,-12.32,-7.77,-12.42,-7.84,7.84,7.73,7.27,-4.48,-4.58,-4.55
152.26,-12.27,-7.65,-12.33,-7.70,7.70,7.62,7.11,-4.58,-4.64,-4.62
153.78,-12.22,-7.53,-12.23,-7.53,7.53,7.51,6.96,-4.69,-4.70,-4.69
155.32,-12.21,-7.45,-12.13,-7.36,7.36,7.39,6.80,-4.85,-4.77,-4.76
156.88,-12.16,-7.32,-12.05,-7.21,7.21,7.28,6.65,-4.95,-4.84,-4.84
158.44,-11.99,-7.07,-11.99,-7.08,7.08,7.17,6.50,-4.92,-4.91,-4.92
160.03,-11.79,-6.79,-11.92,-6.94,6.94,7.05,6.36,-4.85,-4.98,-5.00
161.63,-12.04,-6.97,-11.85,-6.80,6.80,6.94,6.21,-5.24,-5.05,-5.07
163.24,-11.84,-6.71,-11.77,-6.67,6.67,6.83,6.07,-5.17,-5.11,-5.13
164.88,-11.51,-6.33,-11.70,-6.53,6.53,6.71,5.93,-4.98,-5.16,-5.18
166.53,-11.44,-6.21,-11.61,-6.40,6.40,6.60,5.79,-5.04,-5.21,-5.23
168.19,-11.42,-6.15,-11.54,-6.29,6.29,6.49,5.66,-5.13,-5.25,-5.27
169.87,-11.46,-6.15,-11.47,-6.19,6.19,6.37,5.52,-5.27,-5.28,-5.31
171.57,-11.52,-6.19,-11.41,-6.10,6.10,6.26,5.39,-5.42,-5.31,-5.33
173.29,-11.51,-6.17,-11.32,-5.99,5.99,6.15,5.27,-5.52,-5.33,-5.34
175.02,-11.41,-6.06,-11.22,-5.87,5.87,6.03,5.15,-5.54,-5.34,-5.35
176.77,-11.05,-5.69,-11.14,-5.78,5.78,5.92,5.03,-5.27,-5.35,-5.36
178.54,-10.94,-5.57,-11.06,-5.70,5.70,5.81,4.91,-5.24,-5.36,-5.37
180.32,-11.03,-5.67,-10.96,-5.59,5.59,5.69,4.79,-5.44,-5.37,-5.36
182.13,-10.85,-5.50,-10.89,-5.52,5.52,5.58,4.68,-5.33,-5.37,-5.35
183.95,-10.77,-5.41,-10.83,-5.46,5.46,5.46,4.57,-5.32,-5.38,-5.36
185.79,-10.97,-5.61,-10.76,-5.37,5.37,5.35,4.47,-5.60,-5.38,-5.36
187.65,-10.64,-5.26,-10.68,-5.29,5.29,5.24,4.36,-5.36,-5.39,-5.38
189.52,-10.40,-5.01,-10.60,-5.20,5.20,5.12,4.26,-5.20,-5.40,-5.39
191.42,-10.21,-4.80,-10.53,-5.11,5.11,5.01,4.17,-5.10,-5.41,-5.41
193.33,-10.43,-5.00,-10.46,-5.03,5.03,4.89,4.07,-5.40,-5.43,-5.43
195.27,-10.65,-5.20,-10.41,-4.97,4.97,4.78,3.98,-5.69,-5.45,-5.45
197.22,-10.41,-4.94,-10.38,-4.91,4.91,4.67,3.89,-5.50,-5.46,-5.47
199.19,-10.28,-4.79,-10.32,-4.84,4.84,4.55,3.80,-5.44,-5.48,-5.49
201.18,-10.46,-4.95,-10.27,-4.76,4.76,4.44,3.71,-5.70,-5.50,-5.51
203.19,-10.33,-4.80,-10.23,-4.71,4.71,4.33,3.63,-5.62,-5.53,-5.53
205.23,-10.12,-4.57,-10.19,-4.64,4.64,4.21,3.54,-5.48,-5.55,-5.55
207.28,-10.08,-4.52,-10.13,-4.57,4.57,4.10,3.46,-5.51,-5.57,-5.56
209.35,-10.01,-4.43,-10.11,-4.53,4.53,3.99,3.38,-5.48,-5.58,-5.58
211.44,-9.99,-4.38,-10.09,-4.49,4.49,3.87,3.31,-5.50,-5.60,-5.61
213.56,-9.93,-4.31,-10.06,-4.44,4.44,3.76,3.23,-5.49,-5.62,-5.62
215.69,-10.02,-4.39,-10.00,-4.37,4.37,3.65,3.16,-5.65,-5.63,-5.63
217.85,-9.97,-4.33,-9.93,-4.29,4.29,3.54,3.08,-5.68,-5.64,-5.64
220.03,-9.78,-4.13,-9.87,-4.22,4.22,3.43,3.01,-5.56,-5.65,-5.65
222.23,-9.80,-4.12,-9.79,-4.13,4.13,3.31,2.94,-5.67,-5.66,-5.68
224.45,-9.76,-4.09,-9.68,-4.02,4.02,3.20,2.87,-5.74,-5.66,-5.67
226.70,-9.49,-3.82,-9.56,-3.90,3.90,3.09,2.80,-5.59,-5.66,-5.67
228.96,-9.56,-3.90,-9.42,-3.76,3.76,2.98,2.73,-5.80,-5.65,-5.66
231.25,-9.53,-3.88,-9.24,-3.59,3.59,2.87,2.66,-5.94,-5.65,-5.65
233.57,-9.28,-3.64,-9.02,-3.39,3.39,2.76,2.59,-5.89,-5.63,-5.64
235.90,-8.86,-3.23,-8.79,-3.17,3.17,2.65,2.52,-5.69,-5.62,-5.63
238.26,-8.49,-2.87,-8.54,-2.93,2.93,2.54,2.46,-5.56,-5.60,-5.62
240.64,-8.21,-2.62,-8.26,-2.67,2.67,2.43,2.39,-5.54,-5.58,-5.59
243.05,-8.03,-2.47,-7.99,-2.42,2.42,2.32,2.32,-5.61,-5.56,-5.56
245.48,-7.74,-2.20,-7.72,-2.18,2.18,2.22,2.25,-5.56,-5.54,-5.54
247.93,-7.33,-1.82,-7.46,-1.95,1.95,2.11,2.19,-5.39,-5.52,-5.51
250.41,-7.09,-1.60,-7.20,-1.71,1.71,2.00,2.12,-5.38,-5.49,-5.49
252.92,-6.81,-1.35,-6.96,-1.49,1.49,1.90,2.05,-5.32,-5.47,-5.46
255.45,-6.58,-1.14,-6.73,-1.28,1.28,1.79,1.98,-5.30,-5.45,-5.44
258.00,-6.41,-0.99,-6.54,-1.12,1.12,1.69,1.91,-5.30,-5.42,-5.42
260.58,-6.37,-0.97,-6.38,-0.98,0.98,1.58,1.84,-5.39,-5.40,-5.40
263.19,-6.17,-0.80,-6.24,-0.87,0.87,1.48,1.77,-5.30,-5.37,-5.37
265.82,-6.08,-0.73,-6.12,-0.78,0.78,1.38,1.70,-5.31,-5.35,-5.35
268.48,-6.12,-0.79,-6.01,-0.69,0.69,1.28,1.63,-5.43,-5.32,-5.33
271.16,-6.07,-0.77,-5.92,-0.62,0.62,1.18,1.56,-5.45,-5.30,-5.30
273.87,-5.87,-0.59,-5.85,-0.57,0.57,1.08,1.48,-5.30,-5.27,-5.28
276.61,-5.63,-0.38,-5.78,-0.54,0.54,0.98,1.41,-5.09,-5.25,-5.25
279.38,-5.70,-0.48,-5.72,-0.50,0.50,0.88,1.34,-5.20,-5.22,-5.22
282.17,-5.76,-0.56,-5.66,-0.46,0.46,0.78,1.26,-5.30,-5.19,-5.20
284.99,-5.65,-0.49,-5.59,-0.43,0.43,0.69,1.19,-5.23,-5.16,-5.16
287.84,-5.43,-0.29,-5.51,-0.37,0.37,0.59,1.12,-5.06,-5.13,-5.14
290.72,-5.39,-0.28,-5.41,-0.31,0.31,0.50,1.04,-5.08,-5.10,-5.11
293.63,-5.36,-0.28,-5.32,-0.24,0.24,0.40,0.97,-5.12,-5.07,-5.08
296.57,-5.26,-0.21,-5.21,-0.16,0.16,0.31,0.89,-5.10,-5.05,-5.05
299.53,-5.16,-0.14,-5.09,-0.07,0.07,0.22,0.81,-5.09,-5.02,-5.02
302.53,-5.03,-0.03,-4.97,0.02,-0.02,0.13,0.74,-5.05,-4.99,-5.00
305.55,-4.92,0.04,-4.85,0.12,-0.12,0.04,0.66,-5.04,-4.96,-4.96
308.61,-4.78,0.16,-4.72,0.22,-0.22,-0.04,0.58,-5.01,-4.94,-4.94
311.69,-4.60,0.31,-4.57,0.35,-0.35,-0.13,0.50,-4.95,-4.92,-4.91
314.81,-4.43,0.46,-4.44,0.46,-0.46,-0.22,0.43,-4.89,-4.89,-4.89
317.96,-4.25,0.62,-4.32,0.56,-0.56,-0.30,0.35,-4.81,-4.87,-4.87
321.14,-4.13,0.73,-4.20,0.65,-0.65,-0.38,0.27,-4.78,-4.85,-4.86
324.35,-4.04,0.80,-4.09,0.75,-0.75,-0.46,0.19,-4.79,-4.84,-4.84
327.59,-3.95,0.88,-4.00,0.83,-0.83,-0.54,0.11,-4.78,-4.82,-4.83
330.87,-3.82,1.00,-3.91,0.90,-0.90,-0.62,0.03,-4.72,-4.81,-4.82
334.18,-3.74,1.06,-3.85,0.95,-0.95,-0.70,-0.05,-4.69,-4.80,-4.80
337.52,-3.75,1.04,-3.80,0.99,-0.99,-0.77,-0.13,-4.74,-4.79,-4.79
340.90,-3.75,1.03,-3.76,1.02,-1.02,-0.85,-0.22,-4.77,-4.78,-4.78
344.30,-3.77,1.00,-3.73,1.04,-1.04,-0.92,-0.30,-4.81,-4.77,-4.77
347.75,-3.75,1.02,-3.72,1.05,-1.05,-0.99,-0.38,-4.80,-4.77,-4.77
351.23,-3.68,1.08,-3.70,1.06,-1.06,-1.06,-0.47,-4.74,-4.76,-4.76
354.74,-3.72,1.05,-3.69,1.07,-1.07,-1.13,-0.55,-4.79,-4.76,-4.77
358.28,-3.74,1.02,-3.67,1.09,-1.09,-1.20,-0.64,-4.83,-4.76,-4.76
361.87,-3.67,1.09,-3.64,1.11,-1.11,-1.27,-0.72,-4.78,-4.76,-4.76
365.49,-3.63,1.12,-3.61,1.14,-1.14,-1.33,-0.81,-4.77,-4.75,-4.75
369.14,-3.63,1.13,-3.58,1.17,-1.17,-1.40,-0.90,-4.81,-4.75,-4.76
372.83,-3.55,1.21,-3.53,1.22,-1.22,-1.46,-0.99,-4.77,-4.76,-4.76
