frequency,raw,error,smoothed,error_smoothed,equalization,parametric_eq,fixed_band_eq,equalized_raw,equalized_smoothed,target
20.00,-5.05,-7.87,-5.07,-7.91,7.91,7.59,3.02,2.86,2.84,2.81
20.20,-5.02,-7.87,-5.03,-7.89,7.89,7.60,3.10,2.86,2.86,2.84
20.40,-5.00,-7.88,-4.98,-7.86,7.86,7.61,3.19,2.86,2.88,2.87
20.61,-4.95,-7.85,-4.93,-7.83,7.83,7.62,3.28,2.88,2.90,2.89
20.81,-4.90,-7.82,-4.89,-7.80,7.80,7.63,3.37,2.90,2.91,2.92
21.02,-4.84,-7.79,-4.84,-7.77,7.77,7.64,3.46,2.93,2.93,2.95
21.23,-4.78,-7.74,-4.80,-7.74,7.74,7.64,3.56,2.95,2.94,2.96
21.44,-4.74,-7.71,-4.75,-7.70,7.70,7.64,3.66,2.96,2.95,2.97
21.66,-4.69,-7.67,-4.70,-7.67,7.67,7.64,3.76,2.98,2.97,2.98
21.87,-4.66,-7.64,-4.66,-7.63,7.63,7.63,3.86,2.97,2.97,2.98
22.09,-4.60,-7.59,-4.61,-7.59,7.59,7.63,3.97,2.99,2.98,2.99
22.31,-4.57,-7.56,-4.57,-7.56,7.56,7.62,4.08,2.98,2.99,2.99
22.54,-4.52,-7.51,-4.52,-7.51,7.51,7.61,4.20,2.99,2.99,2.99
22.76,-4.48,-7.47,-4.47,-7.46,7.46,7.60,4.31,2.98,2.99,2.99
22.99,-4.43,-7.41,-4.43,-7.41,7.41,7.59,4.43,2.98,2.99,2.98
23.22,-4.38,-7.36,-4.38,-7.37,7.37,7.57,4.55,2.98,2.98,2.98
23.45,-4.35,-7.33,-4.34,-7.32,7.32,7.55,4.68,2.97,2.98,2.97
23.69,-4.30,-7.28,-4.30,-7.28,7.28,7.53,4.80,2.97,2.98,2.97
23.92,-4.26,-7.24,-4.26,-7.23,7.23,7.51,4.93,2.97,2.98,2.97
24.16,-4.21,-7.19,-4.22,-7.19,7.19,7.49,5.06,2.98,2.98,2.98
24.40,-4.16,-7.14,-4.18,-7.15,7.15,7.46,5.20,2.99,2.97,2.98
24.65,-4.12,-7.09,-4.14,-7.12,7.12,7.44,5.33,2.99,2.97,2.97
24.89,-4.09,-7.06,-4.11,-7.08,7.08,7.41,5.47,2.99,2.97,2.97
25.14,-4.06,-7.03,-4.08,-7.05,7.05,7.38,5.61,2.99,2.97,2.97
25.39,-4.04,-7.01,-4.05,-7.02,7.02,7.35,5.75,2.97,2.97,2.97
25.65,-4.02,-6.99,-4.02,-6.99,6.99,7.31,5.89,2.96,2.96,2.97
25.91,-4.00,-6.96,-3.99,-6.95,6.95,7.28,6.03,2.95,2.96,2.96
26.16,-3.96,-6.92,-3.96,-6.92,6.92,7.24,6.17,2.96,2.96,2.95
26.43,-3.95,-6.91,-3.93,-6.88,6.88,7.21,6.31,2.93,2.96,2.95
26.69,-3.90,-6.85,-3.90,-6.85,6.85,7.17,6.45,2.95,2.95,2.95
26.96,-3.89,-6.84,-3.87,-6.81,6.81,7.13,6.58,2.92,2.95,2.95
27.23,-3.86,-6.81,-3.83,-6.78,6.78,7.09,6.72,2.91,2.94,2.95
27.50,-3.80,-6.75,-3.80,-6.74,6.74,7.04,6.85,2.94,2.94,2.95
27.77,-3.75,-6.69,-3.76,-6.70,6.70,7.00,6.97,2.95,2.94,2.94
28.05,-3.72,-6.66,-3.72,-6.65,6.65,6.96,7.09,2.93,2.93,2.93
28.33,-3.66,-6.59,-3.68,-6.61,6.61,6.91,7.21,2.95,2.93,2.92
28.62,-3.63,-6.55,-3.64,-6.57,6.57,6.87,7.32,2.94,2.92,2.92
28.90,-3.60,-6.52,-3.61,-6.53,6.53,6.82,7.42,2.92,2.92,2.92
29.19,-3.57,-6.48,-3.57,-6.49,6.49,6.77,7.51,2.91,2.91,2.91
29.48,-3.53,-6.45,-3.54,-6.44,6.44,6.72,7.59,2.91,2.91,2.92
29.78,-3.48,-6.39,-3.50,-6.41,6.41,6.67,7.67,2.92,2.90,2.90
30.08,-3.47,-6.37,-3.47,-6.37,6.37,6.63,7.73,2.90,2.90,2.90
30.38,-3.44,-6.33,-3.44,-6.33,6.33,6.58,7.78,2.89,2.89,2.89
30.68,-3.41,-6.30,-3.42,-6.30,6.30,6.53,7.82,2.89,2.89,2.89
30.99,-3.39,-6.27,-3.39,-6.27,6.27,6.48,7.84,2.88,2.88,2.88
31.30,-3.36,-6.24,-3.37,-6.24,6.24,6.43,7.86,2.88,2.87,2.87
31.61,-3.35,-6.22,-3.34,-6.21,6.21,6.38,7.86,2.86,2.87,2.87
31.93,-3.31,-6.17,-3.32,-6.17,6.17,6.33,7.85,2.86,2.86,2.86
32.24,-3.30,-6.15,-3.29,-6.14,6.14,6.27,7.83,2.84,2.85,2.85
32.57,-3.25,-6.10,-3.26,-6.11,6.11,6.22,7.80,2.85,2.84,2.84
32.89,-3.25,-6.09,-3.24,-6.07,6.07,6.17,7.75,2.82,2.84,2.84
33.22,-3.21,-6.04,-3.21,-6.03,6.03,6.12,7.70,2.82,2.83,2.83
33.55,-3.18,-6.01,-3.18,-6.00,6.00,6.07,7.64,2.81,2.82,2.82
33.89,-3.15,-5.96,-3.14,-5.96,5.96,6.02,7.57,2.80,2.81,2.81
34.23,-3.11,-5.92,-3.11,-5.92,5.92,5.97,7.49,2.80,2.80,2.81
34.57,-3.07,-5.87,-3.08,-5.87,5.87,5.92,7.40,2.80,2.79,2.79
34.92,-3.05,-5.83,-3.05,-5.83,5.83,5.87,7.31,2.78,2.78,2.78
35.27,-3.02,-5.80,-3.02,-5.79,5.79,5.82,7.21,2.77,2.77,2.78
35.62,-2.97,-5.73,-2.99,-5.75,5.75,5.78,7.11,2.78,2.76,2.76
35.97,-2.96,-5.71,-2.96,-5.71,5.71,5.73,7.01,2.75,2.75,2.75
36.33,-2.93,-5.68,-2.93,-5.67,5.67,5.68,6.90,2.74,2.74,2.74
36.70,-2.88,-5.61,-2.90,-5.63,5.63,5.63,6.79,2.75,2.73,2.73
37.06,-2.87,-5.59,-2.87,-5.59,5.59,5.59,6.68,2.72,2.72,2.71
37.43,-2.83,-5.54,-2.85,-5.55,5.55,5.54,6.57,2.72,2.71,2.71
37.81,-2.83,-5.53,-2.82,-5.52,5.52,5.50,6.46,2.68,2.69,2.69
38.19,-2.79,-5.47,-2.80,-5.48,5.48,5.46,6.35,2.69,2.68,2.68
38.57,-2.79,-5.47,-2.78,-5.45,5.45,5.41,6.25,2.66,2.67,2.67
38.95,-2.76,-5.42,-2.76,-5.42,5.42,5.37,6.14,2.65,2.66,2.66
39.34,-2.74,-5.38,-2.74,-5.39,5.39,5.33,6.04,2.64,2.65,2.64
39.74,-2.72,-5.35,-2.72,-5.36,5.36,5.29,5.93,2.63,2.63,2.63
40.14,-2.69,-5.31,-2.70,-5.32,5.32,5.25,5.83,2.63,2.62,2.62
40.54,-2.69,-5.30,-2.68,-5.30,5.30,5.21,5.74,2.60,2.61,2.60
40.94,-2.65,-5.25,-2.67,-5.27,5.27,5.18,5.65,2.61,2.60,2.60
41.35,-2.65,-5.23,-2.65,-5.23,5.23,5.14,5.55,2.58,2.59,2.58
41.76,-2.65,-5.22,-2.63,-5.20,5.20,5.10,5.47,2.55,2.57,2.57
42.18,-2.60,-5.17,-2.61,-5.17,5.17,5.07,5.38,2.57,2.56,2.57
42.60,-2.60,-5.15,-2.59,-5.13,5.13,5.04,5.30,2.53,2.54,2.55
43.03,-2.56,-5.10,-2.57,-5.10,5.10,5.01,5.23,2.54,2.53,2.54
43.46,-2.55,-5.07,-2.55,-5.06,5.06,4.98,5.16,2.51,2.51,2.52
43.90,-2.54,-5.04,-2.54,-5.03,5.03,4.95,5.09,2.49,2.50,2.49
44.33,-2.51,-4.99,-2.52,-5.00,5.00,4.92,5.02,2.48,2.48,2.47
44.78,-2.51,-4.97,-2.50,-4.96,4.96,4.89,4.96,2.45,2.46,2.45
45.23,-2.46,-4.90,-2.48,-4.92,4.92,4.87,4.90,2.46,2.44,2.43
45.68,-2.46,-4.88,-2.46,-4.88,4.88,4.84,4.85,2.42,2.42,2.41
46.13,-2.44,-4.84,-2.44,-4.84,4.84,4.82,4.80,2.40,2.40,2.39
46.60,-2.41,-4.80,-2.42,-4.80,4.80,4.80,4.75,2.39,2.38,2.38
47.06,-2.41,-4.77,-2.41,-4.76,4.76,4.77,4.71,2.35,2.36,2.36
47.53,-2.41,-4.75,-2.39,-4.72,4.72,4.75,4.67,2.31,2.33,2.34
48.01,-2.37,-4.70,-2.37,-4.68,4.68,4.74,4.63,2.31,2.31,2.33
48.49,-2.37,-4.67,-2.36,-4.65,4.65,4.72,4.60,2.27,2.29,2.30
48.97,-2.33,-4.59,-2.35,-4.61,4.61,4.70,4.56,2.28,2.26,2.26
49.46,-2.32,-4.55,-2.34,-4.57,4.57,4.68,4.54,2.25,2.24,2.23
49.96,-2.32,-4.52,-2.33,-4.54,4.54,4.67,4.51,2.22,2.21,2.20
50.46,-2.32,-4.50,-2.32,-4.51,4.51,4.65,4.49,2.19,2.18,2.18
50.96,-2.32,-4.48,-2.32,-4.47,4.47,4.64,4.47,2.15,2.16,2.16
51.47,-2.30,-4.42,-2.31,-4.44,4.44,4.62,4.45,2.14,2.13,2.12
51.99,-2.30,-4.40,-2.31,-4.41,4.41,4.61,4.43,2.11,2.10,2.09
52.51,-2.30,-4.38,-2.31,-4.39,4.39,4.60,4.41,2.08,2.07,2.08
53.03,-2.32,-4.37,-2.31,-4.36,4.36,4.58,4.40,2.04,2.05,2.05
53.56,-2.32,-4.35,-2.32,-4.33,4.33,4.57,4.39,2.01,2.02,2.02
54.10,-2.32,-4.32,-2.32,-4.31,4.31,4.56,4.37,1.99,1.99,2.00
54.64,-2.32,-4.29,-2.32,-4.28,4.28,4.54,4.36,1.96,1.97,1.97
55.18,-2.32,-4.26,-2.32,-4.26,4.26,4.53,4.35,1.93,1.94,1.94
55.74,-2.32,-4.23,-2.31,-4.23,4.23,4.51,4.33,1.91,1.91,1.91
56.29,-2.32,-4.21,-2.31,-4.20,4.20,4.50,4.32,1.87,1.89,1.89
56.86,-2.32,-4.18,-2.31,-4.17,4.17,4.48,4.30,1.85,1.86,1.85
57.42,-2.32,-4.14,-2.31,-4.14,4.14,4.46,4.29,1.82,1.83,1.82
58.00,-2.30,-4.10,-2.30,-4.10,4.10,4.44,4.27,1.80,1.80,1.80
58.58,-2.27,-4.05,-2.29,-4.07,4.07,4.42,4.25,1.79,1.77,1.78
59.16,-2.27,-4.02,-2.29,-4.03,4.03,4.40,4.23,1.76,1.74,1.75
59.76,-2.27,-4.00,-2.28,-4.00,4.00,4.37,4.20,1.72,1.71,1.73
60.35,-2.27,-3.96,-2.28,-3.96,3.96,4.34,4.17,1.69,1.68,1.69
60.96,-2.27,-3.94,-2.27,-3.92,3.92,4.31,4.14,1.65,1.65,1.66
61.57,-2.27,-3.89,-2.27,-3.89,3.89,4.28,4.11,1.61,1.62,1.62
62.18,-2.27,-3.85,-2.26,-3.85,3.85,4.25,4.07,1.58,1.59,1.58
62.80,-2.27,-3.82,-2.27,-3.82,3.82,4.21,4.03,1.55,1.55,1.55
63.43,-2.26,-3.77,-2.27,-3.79,3.79,4.17,3.99,1.52,1.52,1.51
64.07,-2.25,-3.73,-2.27,-3.75,3.75,4.13,3.94,1.50,1.48,1.48
64.71,-2.27,-3.72,-2.27,-3.72,3.72,4.08,3.89,1.45,1.45,1.45
65.35,-2.27,-3.69,-2.28,-3.69,3.69,4.03,3.83,1.42,1.41,1.41
66.01,-2.27,-3.65,-2.28,-3.66,3.66,3.98,3.78,1.38,1.38,1.38
66.67,-2.27,-3.62,-2.28,-3.62,3.62,3.93,3.72,1.35,1.34,1.34
67.33,-2.27,-3.58,-2.28,-3.59,3.59,3.88,3.65,1.32,1.31,1.31
68.01,-2.30,-3.57,-2.28,-3.56,3.56,3.82,3.59,1.25,1.27,1.27
68.69,-2.30,-3.54,-2.29,-3.52,3.52,3.76,3.52,1.22,1.23,1.24
69.37,-2.32,-3.52,-2.29,-3.48,3.48,3.70,3.45,1.16,1.20,1.20
70.07,-2.27,-3.43,-2.29,-3.45,3.45,3.63,3.38,1.17,1.16,1.16
70.77,-2.27,-3.40,-2.28,-3.40,3.40,3.56,3.31,1.13,1.12,1.13
71.48,-2.27,-3.36,-2.28,-3.36,3.36,3.50,3.23,1.09,1.08,1.09
72.19,-2.27,-3.32,-2.27,-3.31,3.31,3.43,3.15,1.04,1.04,1.04
72.91,-2.27,-3.27,-2.26,-3.27,3.27,3.36,3.08,0.99,1.00,1.00
73.64,-2.27,-3.23,-2.25,-3.22,3.22,3.28,3.00,0.94,0.96,0.96
74.38,-2.23,-3.15,-2.24,-3.17,3.17,3.21,2.92,0.93,0.92,0.92
75.12,-2.23,-3.11,-2.23,-3.11,3.11,3.14,2.84,0.88,0.88,0.88
75.87,-2.23,-3.07,-2.22,-3.06,3.06,3.06,2.77,0.83,0.84,0.84
76.63,-2.18,-2.98,-2.21,-3.01,3.01,2.99,2.69,0.83,0.80,0.80
77.40,-2.18,-2.94,-2.20,-2.96,2.96,2.91,2.61,0.78,0.76,0.76
78.17,-2.18,-2.89,-2.19,-2.91,2.91,2.83,2.53,0.72,0.72,0.71
78.95,-2.18,-2.86,-2.18,-2.85,2.85,2.76,2.46,0.67,0.68,0.68
79.74,-2.18,-2.82,-2.16,-2.79,2.79,2.68,2.38,0.61,0.63,0.64
80.54,-2.13,-2.73,-2.14,-2.74,2.74,2.60,2.31,0.61,0.59,0.60
81.35,-2.13,-2.68,-2.13,-2.68,2.68,2.53,2.23,0.55,0.55,0.55
82.16,-2.13,-2.64,-2.11,-2.62,2.62,2.45,2.16,0.49,0.51,0.51
82.98,-2.10,-2.57,-2.10,-2.56,2.56,2.38,2.09,0.46,0.46,0.47
83.81,-2.09,-2.51,-2.08,-2.50,2.50,2.31,2.02,0.41,0.42,0.41
84.65,-2.06,-2.43,-2.06,-2.44,2.44,2.23,1.95,0.37,0.37,0.37
85.50,-2.04,-2.37,-2.05,-2.37,2.37,2.16,1.88,0.33,0.33,0.33
86.35,-2.04,-2.32,-2.03,-2.31,2.31,2.09,1.82,0.27,0.28,0.28
87.22,-1.99,-2.22,-2.01,-2.25,2.25,2.02,1.75,0.25,0.23,0.23
88.09,-1.99,-2.17,-2.00,-2.18,2.18,1.95,1.69,0.19,0.18,0.18
88.97,-1.99,-2.13,-1.99,-2.12,2.12,1.88,1.62,0.13,0.13,0.14
89.86,-1.96,-2.05,-1.98,-2.06,2.06,1.81,1.56,0.10,0.08,0.09
90.76,-1.95,-1.98,-1.97,-2.00,2.00,1.75,1.50,0.04,0.03,0.02
91.66,-1.95,-1.93,-1.96,-1.94,1.94,1.68,1.44,-0.02,-0.02,-0.02
92.58,-1.95,-1.87,-1.95,-1.88,1.88,1.62,1.38,-0.07,-0.08,-0.08
93.51,-1.95,-1.83,-1.95,-1.82,1.82,1.55,1.33,-0.13,-0.13,-0.13
94.44,-1.95,-1.77,-1.95,-1.76,1.76,1.49,1.27,-0.19,-0.19,-0.18
95.39,-1.95,-1.72,-1.95,-1.71,1.71,1.43,1.21,-0.25,-0.24,-0.24
96.34,-1.95,-1.65,-1.95,-1.65,1.65,1.37,1.16,-0.30,-0.30,-0.30
97.30,-1.95,-1.59,-1.95,-1.59,1.59,1.31,1.11,-0.36,-0.36,-0.36
98.28,-1.95,-1.54,-1.95,-1.54,1.54,1.25,1.05,-0.42,-0.41,-0.41
99.26,-1.95,-1.48,-1.95,-1.48,1.48,1.20,1.00,-0.47,-0.47,-0.47
100.25,-1.95,-1.42,-1.96,-1.43,1.43,1.14,0.95,-0.52,-0.53,-0.53
101.25,-1.95,-1.37,-1.96,-1.37,1.37,1.09,0.91,-0.58,-0.58,-0.59
102.27,-1.95,-1.31,-1.96,-1.31,1.31,1.04,0.86,-0.64,-0.64,-0.64
103.29,-1.95,-1.24,-1.95,-1.25,1.25,0.99,0.81,-0.70,-0.70,-0.71
104.32,-1.95,-1.19,-1.95,-1.19,1.19,0.94,0.76,-0.76,-0.76,-0.76
105.37,-1.95,-1.14,-1.95,-1.13,1.13,0.89,0.72,-0.82,-0.82,-0.82
106.42,-1.95,-1.08,-1.95,-1.07,1.07,0.84,0.67,-0.88,-0.88,-0.87
107.48,-1.95,-1.02,-1.94,-1.00,1.00,0.79,0.63,-0.95,-0.94,-0.93
108.56,-1.95,-0.95,-1.94,-0.94,0.94,0.75,0.59,-1.01,-1.00,-1.00
109.64,-1.95,-0.89,-1.93,-0.87,0.87,0.70,0.55,-1.08,-1.06,-1.06
110.74,-1.91,-0.80,-1.93,-0.80,0.80,0.66,0.50,-1.11,-1.12,-1.11
111.85,-1.90,-0.73,-1.92,-0.74,0.74,0.62,0.46,-1.17,-1.18,-1.17
112.97,-1.90,-0.65,-1.91,-0.67,0.67,0.57,0.42,-1.24,-1.25,-1.25
114.10,-1.90,-0.60,-1.91,-0.60,0.60,0.53,0.39,-1.30,-1.31,-1.31
115.24,-1.90,-0.53,-1.90,-0.53,0.53,0.49,0.35,-1.37,-1.37,-1.37
116.39,-1.90,-0.46,-1.90,-0.46,0.46,0.45,0.31,-1.44,-1.43,-1.44
117.55,-1.90,-0.40,-1.89,-0.39,0.39,0.42,0.27,-1.51,-1.50,-1.50
118.73,-1.88,-0.31,-1.89,-0.33,0.33,0.38,0.24,-1.55,-1.56,-1.57
119.92,-1.88,-0.26,-1.89,-0.27,0.27,0.34,0.20,-1.62,-1.62,-1.62
121.12,-1.88,-0.20,-1.89,-0.21,0.21,0.31,0.17,-1.68,-1.69,-1.69
122.33,-1.88,-0.13,-1.90,-0.15,0.15,0.27,0.14,-1.73,-1.75,-1.75
123.55,-1.90,-0.10,-1.90,-0.09,0.09,0.24,0.11,-1.81,-1.81,-1.80
124.79,-1.90,-0.04,-1.91,-0.04,0.04,0.20,0.07,-1.87,-1.87,-1.86
126.03,-1.90,0.02,-1.91,0.02,-0.02,0.17,0.04,-1.92,-1.93,-1.93
127.29,-1.92,0.06,-1.92,0.07,-0.07,0.14,0.01,-2.00,-1.99,-1.99
128.57,-1.92,0.13,-1.92,0.13,-0.13,0.11,-0.02,-2.05,-2.05,-2.06
129.85,-1.94,0.17,-1.93,0.18,-0.18,0.08,-0.05,-2.12,-2.11,-2.12
131.15,-1.95,0.22,-1.94,0.23,-0.23,0.05,-0.08,-2.19,-2.17,-2.17
132.46,-1.95,0.28,-1.94,0.28,-0.28,0.02,-0.10,-2.24,-2.23,-2.23
133.79,-1.95,0.33,-1.95,0.34,-0.34,-0.01,-0.13,-2.29,-2.28,-2.28
135.12,-1.95,0.39,-1.95,0.39,-0.39,-0.03,-0.16,-2.34,-2.34,-2.34
136.48,-1.95,0.44,-1.95,0.44,-0.44,-0.06,-0.19,-2.39,-2.39,-2.39
137.84,-1.95,0.49,-1.96,0.49,-0.49,-0.09,-0.21,-2.44,-2.44,-2.44
139.22,-1.95,0.55,-1.96,0.54,-0.54,-0.11,-0.24,-2.49,-2.50,-2.51
140.61,-1.95,0.61,-1.96,0.58,-0.58,-0.14,-0.27,-2.53,-2.55,-2.56
142.02,-1.95,0.64,-1.96,0.63,-0.63,-0.16,-0.30,-2.58,-2.59,-2.59
143.44,-1.97,0.67,-1.97,0.68,-0.68,-0.19,-0.32,-2.65,-2.64,-2.64
144.87,-1.97,0.72,-1.97,0.72,-0.72,-0.21,-0.35,-2.69,-2.69,-2.69
146.32,-1.97,0.76,-1.97,0.76,-0.76,-0.23,-0.38,-2.74,-2.74,-2.74
147.78,-1.97,0.80,-1.98,0.81,-0.81,-0.25,-0.40,-2.78,-2.78,-2.77
149.26,-1.99,0.83,-1.98,0.85,-0.85,-0.28,-0.43,-2.84,-2.83,-2.82
150.75,-1.99,0.88,-1.99,0.89,-0.89,-0.30,-0.46,-2.88,-2.88,-2.88
152.26,-1.99,0.93,-1.99,0.93,-0.93,-0.32,-0.49,-2.92,-2.92,-2.92
153.78,-1.99,0.97,-2.00,0.97,-0.97,-0.34,-0.52,-2.96,-2.97,-2.96
155.32,-1.99,1.02,-2.00,1.01,-1.01,-0.36,-0.54,-3.00,-3.01,-3.02
156.88,-1.99,1.07,-2.01,1.05,-1.05,-0.38,-0.57,-3.04,-3.06,-3.06
158.44,-2.02,1.09,-2.02,1.09,-1.09,-0.39,-0.60,-3.11,-3.11,-3.11
160.03,-2.04,1.12,-2.03,1.13,-1.13,-0.41,-0.63,-3.17,-3.15,-3.16
161.63,-2.04,1.16,-2.04,1.16,-1.16,-0.43,-0.67,-3.21,-3.20,-3.21
163.24,-2.04,1.21,-2.04,1.20,-1.20,-0.45,-0.70,-3.24,-3.25,-3.25
164.88,-2.04,1.25,-2.05,1.24,-1.24,-0.47,-0.73,-3.28,-3.29,-3.29
166.53,-2.04,1.29,-2.06,1.28,-1.28,-0.48,-0.76,-3.32,-3.34,-3.34
168.19,-2.06,1.32,-2.06,1.32,-1.32,-0.50,-0.80,-3.38,-3.38,-3.38
169.87,-2.09,1.33,-2.07,1.36,-1.36,-0.51,-0.83,-3.45,-3.43,-3.43
171.57,-2.09,1.38,-2.08,1.39,-1.39,-0.53,-0.87,-3.49,-3.47,-3.47
173.29,-2.09,1.42,-2.08,1.43,-1.43,-0.54,-0.91,-3.53,-3.52,-3.51
175.02,-2.09,1.46,-2.09,1.47,-1.47,-0.56,-0.94,-3.57,-3.56,-3.55
176.77,-2.09,1.51,-2.09,1.51,-1.51,-0.57,-0.98,-3.61,-3.60,-3.60
178.54,-2.09,1.56,-2.10,1.55,-1.55,-0.59,-1.02,-3.64,-3.65,-3.65
180.32,-2.09,1.60,-2.10,1.58,-1.58,-0.60,-1.06,-3.68,-3.69,-3.69
182.13,-2.09,1.63,-2.11,1.62,-1.62,-0.61,-1.10,-3.71,-3.73,-3.73
183.95,-2.09,1.68,-2.12,1.66,-1.66,-0.63,-1.15,-3.75,-3.77,-3.77
185.79,-2.13,1.68,-2.12,1.69,-1.69,-0.64,-1.19,-3.82,-3.81,-3.81
187.65,-2.13,1.72,-2.13,1.72,-1.72,-0.65,-1.23,-3.85,-3.85,-3.86
189.52,-2.13,1.76,-2.14,1.75,-1.75,-0.66,-1.28,-3.88,-3.89,-3.89
191.42,-2.13,1.79,-2.15,1.78,-1.78,-0.67,-1.32,-3.91,-3.92,-3.92
193.33,-2.18,1.77,-2.16,1.80,-1.80,-0.69,-1.37,-3.99,-3.96,-3.96
195.27,-2.18,1.81,-2.17,1.82,-1.82,-0.70,-1.41,-4.01,-3.99,-3.99
197.22,-2.18,1.84,-2.18,1.84,-1.84,-0.71,-1.46,-4.03,-4.02,-4.02
199.19,-2.18,1.88,-2.19,1.86,-1.86,-0.72,-1.51,-4.04,-4.05,-4.06
201.18,-2.18,1.90,-2.20,1.88,-1.88,-0.73,-1.55,-4.06,-4.08,-4.08
203.19,-2.22,1.88,-2.21,1.89,-1.89,-0.74,-1.60,-4.11,-4.10,-4.10
205.23,-2.23,1.90,-2.23,1.90,-1.90,-0.75,-1.65,-4.13,-4.13,-4.13
207.28,-2.23,1.91,-2.24,1.91,-1.91,-0.75,-1.69,-4.15,-4.15,-4.14
209.35,-2.23,1.94,-2.25,1.92,-1.92,-0.76,-1.74,-4.16,-4.17,-4.17
211.44,-2.27,1.92,-2.26,1.93,-1.93,-0.77,-1.78,-4.20,-4.19,-4.19
213.56,-2.27,1.93,-2.27,1.93,-1.93,-0.78,-1.83,-4.21,-4.20,-4.20
215.69,-2.27,1.94,-2.28,1.94,-1.94,-0.79,-1.87,-4.21,-4.21,-4.21
217.85,-2.27,1.95,-2.29,1.94,-1.94,-0.80,-1.91,-4.21,-4.23,-4.22
220.03,-2.30,1.94,-2.30,1.94,-1.94,-0.80,-1.95,-4.24,-4.23,-4.24
222.23,-2.32,1.93,-2.31,1.93,-1.93,-0.81,-1.99,-4.26,-4.24,-4.25
224.45,-2.32,1.92,-2.32,1.93,-1.93,-0.82,-2.03,-4.25,-4.25,-4.25
226.70,-2.32,1.93,-2.33,1.93,-1.93,-0.82,-2.06,-4.25,-4.25,-4.25
228.96,-2.32,1.93,-2.34,1.92,-1.92,-0.83,-2.09,-4.24,-4.25,-4.25
231.25,-2.32,1.92,-2.34,1.91,-1.91,-0.83,-2.12,-4.23,-4.25,-4.25
233.57,-2.37,1.88,-2.35,1.90,-1.90,-0.84,-2.14,-4.27,-4.25,-4.25
235.90,-2.37,1.88,-2.36,1.89,-1.89,-0.85,-2.16,-4.26,-4.25,-4.25
238.26,-2.37,1.88,-2.37,1.88,-1.88,-0.85,-2.18,-4.25,-4.25,-4.25
240.64,-2.37,1.87,-2.37,1.87,-1.87,-0.86,-2.19,-4.24,-4.24,-4.24
243.05,-2.37,1.86,-2.38,1.85,-1.85,-0.86,-2.20,-4.22,-4.23,-4.23
245.48,-2.39,1.83,-2.39,1.83,-1.83,-0.86,-2.21,-4.23,-4.22,-4.22
247.93,-2.40,1.81,-2.40,1.81,-1.81,-0.87,-2.21,-4.22,-4.21,-4.21
250.41,-2.41,1.80,-2.41,1.79,-1.79,-0.87,-2.20,-4.20,-4.20,-4.21
252.92,-2.41,1.78,-2.42,1.77,-1.77,-0.87,-2.19,-4.18,-4.19,-4.19
255.45,-2.41,1.76,-2.43,1.74,-1.74,-0.88,-2.18,-4.16,-4.18,-4.17
258.00,-2.43,1.73,-2.44,1.72,-1.72,-0.88,-2.16,-4.15,-4.16,-4.16
260.58,-2.46,1.68,-2.45,1.69,-1.69,-0.88,-2.14,-4.15,-4.14,-4.15
263.19,-2.46,1.66,-2.47,1.66,-1.66,-0.88,-2.12,-4.12,-4.13,-4.12
265.82,-2.46,1.65,-2.48,1.63,-1.63,-0.89,-2.09,-4.10,-4.11,-4.11
268.48,-2.51,1.58,-2.49,1.60,-1.60,-0.89,-2.05,-4.12,-4.09,-4.09
271.16,-2.51,1.55,-2.50,1.57,-1.57,-0.89,-2.02,-4.09,-4.07,-4.07
273.87,-2.51,1.54,-2.51,1.54,-1.54,-0.89,-1.98,-4.06,-4.05,-4.05
276.61,-2.51,1.52,-2.52,1.52,-1.52,-0.89,-1.93,-4.03,-4.04,-4.03
279.38,-2.54,1.47,-2.53,1.49,-1.49,-0.89,-1.89,-4.03,-4.02,-4.02
282.17,-2.55,1.45,-2.54,1.46,-1.46,-0.89,-1.84,-4.01,-4.00,-4.00
284.99,-2.55,1.43,-2.55,1.43,-1.43,-0.89,-1.78,-3.98,-3.98,-3.98
287.84,-2.55,1.41,-2.56,1.40,-1.40,-0.89,-1.73,-3.95,-3.96,-3.96
290.72,-2.55,1.39,-2.57,1.37,-1.37,-0.88,-1.68,-3.92,-3.94,-3.94
293.63,-2.56,1.36,-2.58,1.34,-1.34,-0.88,-1.62,-3.90,-3.92,-3.92
296.57,-2.60,1.30,-2.59,1.31,-1.31,-0.88,-1.56,-3.91,-3.90,-3.90
299.53,-2.60,1.28,-2.59,1.28,-1.28,-0.88,-1.50,-3.89,-3.88,-3.88
302.53,-2.60,1.27,-2.61,1.25,-1.25,-0.87,-1.44,-3.85,-3.86,-3.87
305.55,-2.61,1.22,-2.62,1.22,-1.22,-0.87,-1.38,-3.83,-3.84,-3.83
308.61,-2.64,1.18,-2.63,1.19,-1.19,-0.86,-1.32,-3.83,-3.81,-3.82
311.69,-2.65,1.14,-2.64,1.15,-1.15,-0.86,-1.25,-3.81,-3.79,-3.79
314.81,-2.65,1.10,-2.65,1.12,-1.12,-0.85,-1.19,-3.77,-3.77,-3.76
317.96,-2.65,1.09,-2.66,1.08,-1.08,-0.84,-1.13,-3.74,-3.75,-3.74
321.14,-2.65,1.07,-2.68,1.05,-1.05,-0.84,-1.06,-3.70,-3.73,-3.72
324.35,-2.68,1.02,-2.69,1.01,-1.01,-0.83,-1.00,-3.69,-3.70,-3.71
327.59,-2.69,0.99,-2.71,0.98,-0.98,-0.82,-0.94,-3.67,-3.68,-3.68
330.87,-2.74,0.92,-2.72,0.94,-0.94,-0.81,-0.87,-3.69,-3.66,-3.66
334.18,-2.74,0.90,-2.74,0.91,-0.91,-0.80,-0.81,-3.65,-3.64,-3.65
337.52,-2.74,0.89,-2.75,0.87,-0.87,-0.79,-0.75,-3.61,-3.62,-3.63
340.90,-2.79,0.81,-2.77,0.84,-0.84,-0.78,-0.68,-3.63,-3.60,-3.60
344.30,-2.79,0.79,-2.78,0.80,-0.80,-0.76,-0.62,-3.60,-3.59,-3.59
347.75,-2.79,0.78,-2.80,0.77,-0.77,-0.75,-0.56,-3.56,-3.57,-3.57
351.23,-2.83,0.72,-2.82,0.73,-0.73,-0.73,-0.50,-3.57,-3.55,-3.55
354.74,-2.83,0.70,-2.84,0.70,-0.70,-0.72,-0.44,-3.53,-3.53,-3.53
358.28,-2.85,0.66,-2.85,0.66,-0.66,-0.70,-0.38,-3.51,-3.52,-3.52
361.87,-2.88,0.62,-2.87,0.63,-0.63,-0.68,-0.32,-3.51,-3.50,-3.50
365.49,-2.88,0.60,-2.90,0.59,-0.59,-0.66,-0.25,-3.47,-3.48,-3.48
369.14,-2.93,0.54,-2.92,0.55,-0.55,-0.63,-0.19,-3.48,-3.47,-3.47
372.83,-2.93,0.52,-2.95,0.50,-0.50,-0.61,-0.14,-3.44,-3.45,-3.45
376.56,-2.97,0.47,-2.98,0.46,-0.46,-0.58,-0.08,-3.43,-3.44,-3.45
380.33,-3.00,0.42,-3.02,0.41,-0.41,-0.55,-0.02,-3.41,-3.43,-3.42
384.13,-3.05,0.36,-3.06,0.36,-0.36,-0.52,0.04,-3.41,-3.41,-3.41
387.97,-3.09,0.31,-3.10,0.30,-0.30,-0.49,0.10,-3.39,-3.40,-3.40
391.85,-3.14,0.25,-3.15,0.24,-0.24,-0.45,0.15,-3.38,-3.39,-3.39
395.77,-3.19,0.18,-3.20,0.18,-0.18,-0.42,0.21,-3.37,-3.38,-3.38
399.73,-3.24,0.12,-3.25,0.12,-0.12,-0.38,0.27,-3.36,-3.37,-3.37
403.72,-3.32,0.04,-3.30,0.05,-0.05,-0.33,0.32,-3.37,-3.36,-3.36
407.76,-3.37,-0.02,-3.36,-0.02,0.02,-0.29,0.37,-3.36,-3.35,-3.35
411.84,-3.42,-0.09,-3.42,-0.08,0.08,-0.23,0.43,-3.34,-3.34,-3.33
415.96,-3.46,-0.14,-3.48,-0.15,0.15,-0.18,0.48,-3.31,-3.33,-3.32
420.12,-3.52,-0.21,-3.54,-0.22,0.22,-0.12,0.53,-3.30,-3.32,-3.31
424.32,-3.59,-0.29,-3.59,-0.29,0.29,-0.06,0.57,-3.31,-3.31,-3.30
428.56,-3.65,-0.36,-3.65,-0.35,0.35,0.00,0.62,-3.30,-3.30,-3.30
432.85,-3.71,-0.43,-3.70,-0.42,0.42,0.07,0.67,-3.29,-3.28,-3.29
437.18,-3.76,-0.48,-3.75,-0.48,0.48,0.14,0.71,-3.28,-3.27,-3.28
441.55,-3.81,-0.55,-3.80,-0.54,0.54,0.22,0.75,-3.27,-3.26,-3.26
445.96,-3.84,-0.59,-3.85,-0.60,0.60,0.30,0.79,-3.24,-3.25,-3.25
450.42,-3.90,-0.66,-3.89,-0.66,0.66,0.38,0.82,-3.24,-3.24,-3.24
454.93,-3.93,-0.71,-3.93,-0.71,0.71,0.47,0.85,-3.22,-3.22,-3.22
459.48,-3.96,-0.75,-3.97,-0.76,0.76,0.56,0.88,-3.20,-3.21,-3.21
464.07,-4.00,-0.81,-4.00,-0.81,0.81,0.65,0.91,-3.19,-3.20,-3.19
468.71,-4.04,-0.87,-4.03,-0.85,0.85,0.74,0.93,-3.19,-3.18,-3.17
