frequency,raw,error,smoothed,error_smoothed,equalization,parametric_eq,fixed_band_eq,equalized_raw,equalized_smoothed,target
20.00,4.73,-1.10,4.73,-1.10,1.10,-0.05,-0.11,5.83,5.83,5.83
20.20,4.76,-1.07,4.76,-1.07,1.08,-0.06,-0.11,5.83,5.83,5.83
20.40,4.78,-1.05,4.78,-1.05,1.05,-0.07,-0.11,5.82,5.83,5.83
20.61,4.82,-1.01,4.81,-1.02,1.02,-0.07,-0.11,5.83,5.83,5.83
20.81,4.85,-0.98,4.84,-0.99,0.98,-0.08,-0.12,5.83,5.82,5.83
21.02,4.87,-0.96,4.88,-0.95,0.94,-0.08,-0.12,5.81,5.82,5.83
21.23,4.91,-0.90,4.91,-0.91,0.90,-0.09,-0.12,5.81,5.81,5.81
21.44,4.94,-0.86,4.93,-0.86,0.86,-0.09,-0.12,5.80,5.80,5.80
21.66,4.97,-0.81,4.97,-0.81,0.82,-0.10,-0.13,5.78,5.78,5.78
21.87,4.99,-0.77,4.99,-0.77,0.77,-0.11,-0.13,5.76,5.76,5.76
22.09,5.03,-0.72,5.02,-0.72,0.71,-0.11,-0.13,5.74,5.74,5.75
22.31,5.06,-0.66,5.06,-0.67,0.66,-0.12,-0.14,5.72,5.72,5.72
22.54,5.09,-0.61,5.09,-0.61,0.60,-0.13,-0.14,5.69,5.70,5.70
22.76,5.13,-0.55,5.12,-0.55,0.55,-0.13,-0.14,5.68,5.67,5.68
22.99,5.16,-0.49,5.16,-0.49,0.49,-0.14,-0.15,5.65,5.65,5.65
23.22,5.18,-0.44,5.18,-0.43,0.44,-0.15,-0.15,5.62,5.63,5.62
23.45,5.22,-0.37,5.21,-0.38,0.39,-0.16,-0.15,5.61,5.60,5.59
23.69,5.24,-0.34,5.24,-0.33,0.34,-0.16,-0.16,5.58,5.58,5.58
23.92,5.27,-0.29,5.27,-0.29,0.29,-0.17,-0.16,5.56,5.56,5.56
24.16,5.30,-0.25,5.29,-0.25,0.25,-0.18,-0.16,5.55,5.54,5.55
24.40,5.32,-0.21,5.32,-0.21,0.20,-0.19,-0.17,5.52,5.53,5.53
24.65,5.35,-0.16,5.34,-0.16,0.16,-0.20,-0.17,5.51,5.51,5.51
24.89,5.37,-0.12,5.37,-0.12,0.12,-0.21,-0.18,5.49,5.49,5.49
25.14,5.40,-0.08,5.40,-0.08,0.07,-0.22,-0.18,5.47,5.47,5.48
25.39,5.43,-0.03,5.43,-0.03,0.03,-0.23,-0.18,5.46,5.46,5.46
25.65,5.46,0.01,5.46,0.01,-0.01,-0.24,-0.19,5.44,5.44,5.45
25.91,5.49,0.07,5.49,0.06,-0.06,-0.25,-0.19,5.43,5.43,5.42
26.16,5.51,0.10,5.51,0.10,-0.10,-0.26,-0.20,5.41,5.41,5.41
26.43,5.54,0.14,5.54,0.15,-0.14,-0.27,-0.20,5.39,5.39,5.40
26.69,5.56,0.19,5.56,0.19,-0.18,-0.28,-0.21,5.38,5.38,5.37
26.96,5.59,0.23,5.58,0.22,-0.22,-0.29,-0.21,5.37,5.36,5.36
27.23,5.61,0.26,5.61,0.26,-0.26,-0.31,-0.22,5.35,5.35,5.35
27.50,5.63,0.29,5.63,0.30,-0.30,-0.32,-0.22,5.33,5.33,5.34
27.77,5.66,0.34,5.65,0.33,-0.34,-0.33,-0.23,5.32,5.32,5.32
28.05,5.68,0.37,5.68,0.37,-0.37,-0.35,-0.23,5.30,5.30,5.31
28.33,5.70,0.41,5.70,0.41,-0.41,-0.36,-0.24,5.29,5.29,5.29
28.62,5.73,0.45,5.72,0.45,-0.45,-0.38,-0.24,5.28,5.27,5.28
28.90,5.75,0.49,5.75,0.49,-0.49,-0.39,-0.25,5.26,5.26,5.26
29.19,5.77,0.53,5.77,0.53,-0.52,-0.41,-0.25,5.25,5.25,5.24
29.48,5.80,0.56,5.80,0.56,-0.56,-0.43,-0.26,5.24,5.24,5.24
29.78,5.82,0.59,5.82,0.59,-0.59,-0.44,-0.27,5.23,5.23,5.23
30.08,5.84,0.62,5.84,0.62,-0.62,-0.46,-0.27,5.21,5.21,5.22
30.38,5.85,0.65,5.85,0.65,-0.65,-0.48,-0.28,5.19,5.20,5.20
30.68,5.87,0.68,5.87,0.69,-0.68,-0.50,-0.28,5.18,5.18,5.19
30.99,5.89,0.73,5.88,0.72,-0.71,-0.52,-0.29,5.18,5.17,5.16
31.30,5.89,0.74,5.89,0.74,-0.74,-0.54,-0.30,5.15,5.15,5.15
31.61,5.90,0.76,5.90,0.76,-0.76,-0.56,-0.30,5.14,5.13,5.14
31.93,5.90,0.78,5.90,0.78,-0.79,-0.58,-0.31,5.11,5.11,5.12
32.24,5.90,0.81,5.90,0.81,-0.81,-0.61,-0.32,5.09,5.09,5.09
32.57,5.91,0.84,5.90,0.83,-0.83,-0.63,-0.33,5.08,5.07,5.07
32.89,5.90,0.84,5.90,0.85,-0.85,-0.65,-0.33,5.05,5.05,5.06
33.22,5.91,0.88,5.90,0.87,-0.87,-0.68,-0.34,5.04,5.03,5.03
33.55,5.90,0.88,5.90,0.89,-0.89,-0.70,-0.35,5.01,5.01,5.02
33.89,5.90,0.91,5.90,0.91,-0.91,-0.72,-0.36,4.99,4.99,4.99
34.23,5.90,0.93,5.90,0.93,-0.93,-0.75,-0.37,4.97,4.97,4.97
34.57,5.90,0.95,5.89,0.95,-0.94,-0.77,-0.37,4.95,4.95,4.95
34.92,5.89,0.96,5.89,0.96,-0.96,-0.79,-0.38,4.93,4.93,4.93
35.27,5.88,0.97,5.88,0.97,-0.97,-0.82,-0.39,4.91,4.91,4.91
35.62,5.88,0.99,5.87,0.98,-0.98,-0.84,-0.40,4.89,4.89,4.89
35.97,5.86,0.99,5.86,0.99,-1.00,-0.86,-0.41,4.86,4.87,4.87
36.33,5.86,1.01,5.85,1.00,-1.00,-0.87,-0.42,4.85,4.85,4.85
36.70,5.84,1.01,5.84,1.01,-1.01,-0.89,-0.43,4.82,4.83,4.83
37.06,5.83,1.02,5.83,1.02,-1.02,-0.90,-0.44,4.81,4.81,4.81
37.43,5.82,1.03,5.81,1.03,-1.03,-0.92,-0.45,4.79,4.79,4.79
37.81,5.80,1.03,5.80,1.03,-1.03,-0.93,-0.46,4.77,4.77,4.77
38.19,5.78,1.04,5.78,1.03,-1.03,-0.93,-0.47,4.74,4.74,4.74
38.57,5.76,1.03,5.76,1.04,-1.04,-0.94,-0.48,4.72,4.72,4.73
38.95,5.74,1.04,5.74,1.04,-1.04,-0.95,-0.50,4.70,4.70,4.70
39.34,5.72,1.04,5.72,1.04,-1.04,-0.95,-0.51,4.68,4.68,4.68
39.74,5.70,1.04,5.70,1.04,-1.04,-0.95,-0.52,4.66,4.66,4.66
40.14,5.68,1.03,5.68,1.03,-1.03,-0.95,-0.54,4.65,4.64,4.65
40.54,5.65,1.02,5.65,1.03,-1.03,-0.95,-0.55,4.62,4.63,4.63
40.94,5.64,1.03,5.63,1.03,-1.02,-0.95,-0.56,4.61,4.61,4.61
41.35,5.61,1.03,5.61,1.02,-1.02,-0.95,-0.58,4.59,4.59,4.58
41.76,5.59,1.01,5.59,1.02,-1.01,-0.95,-0.59,4.58,4.58,4.58
42.18,5.56,1.00,5.56,1.00,-1.00,-0.95,-0.61,4.55,4.56,4.56
42.60,5.54,1.00,5.53,0.99,-1.00,-0.94,-0.62,4.54,4.54,4.54
43.03,5.51,0.98,5.51,0.99,-0.99,-0.94,-0.64,4.51,4.52,4.53
43.46,5.49,0.99,5.49,0.99,-0.99,-0.94,-0.66,4.50,4.50,4.50
43.90,5.47,0.99,5.47,0.98,-0.99,-0.94,-0.68,4.48,4.48,4.48
44.33,5.45,0.99,5.45,0.99,-0.99,-0.94,-0.69,4.46,4.46,4.46
44.78,5.42,0.98,5.42,0.99,-0.99,-0.94,-0.71,4.43,4.44,4.44
45.23,5.41,1.00,5.40,0.99,-0.99,-0.94,-0.73,4.42,4.42,4.41
45.68,5.38,0.99,5.38,0.99,-0.98,-0.95,-0.75,4.39,4.40,4.39
46.13,5.37,0.99,5.37,0.99,-0.98,-0.95,-0.77,4.39,4.38,4.38
46.60,5.35,0.98,5.35,0.98,-0.98,-0.95,-0.79,4.37,4.37,4.37
47.06,5.33,0.98,5.33,0.98,-0.98,-0.96,-0.81,4.35,4.35,4.35
47.53,5.31,0.98,5.31,0.97,-0.98,-0.96,-0.83,4.33,4.33,4.33
48.01,5.29,0.97,5.29,0.98,-0.98,-0.97,-0.85,4.30,4.30,4.32
48.49,5.27,0.98,5.27,0.98,-0.99,-0.97,-0.88,4.28,4.28,4.29
48.97,5.26,1.00,5.25,0.99,-1.00,-0.98,-0.90,4.26,4.26,4.26
49.46,5.24,1.01,5.24,1.01,-1.00,-0.99,-0.92,4.23,4.23,4.23
49.96,5.22,1.02,5.22,1.02,-1.01,-1.00,-0.95,4.20,4.21,4.20
50.46,5.22,1.03,5.21,1.03,-1.02,-1.01,-0.97,4.19,4.19,4.19
50.96,5.20,1.03,5.20,1.04,-1.03,-1.02,-0.99,4.16,4.17,4.17
51.47,5.19,1.05,5.19,1.04,-1.04,-1.03,-1.02,4.14,4.14,4.14
51.99,5.17,1.05,5.17,1.05,-1.05,-1.04,-1.04,4.12,4.12,4.12
52.51,5.16,1.06,5.15,1.06,-1.06,-1.05,-1.07,4.10,4.10,4.10
53.03,5.14,1.06,5.14,1.06,-1.07,-1.06,-1.09,4.07,4.07,4.08
53.56,5.13,1.08,5.13,1.08,-1.08,-1.07,-1.11,4.05,4.05,4.05
54.10,5.12,1.09,5.11,1.09,-1.09,-1.08,-1.14,4.03,4.03,4.03
54.64,5.10,1.10,5.10,1.10,-1.10,-1.10,-1.16,4.00,4.00,4.00
55.18,5.08,1.10,5.08,1.10,-1.11,-1.11,-1.19,3.97,3.97,3.98
55.74,5.07,1.12,5.07,1.12,-1.12,-1.12,-1.21,3.95,3.95,3.95
56.29,5.06,1.13,5.06,1.13,-1.13,-1.14,-1.23,3.93,3.93,3.93
56.86,5.05,1.15,5.05,1.14,-1.14,-1.15,-1.26,3.91,3.90,3.90
57.42,5.03,1.15,5.03,1.15,-1.15,-1.17,-1.28,3.88,3.88,3.88
58.00,5.02,1.16,5.02,1.16,-1.16,-1.19,-1.30,3.86,3.86,3.86
58.58,5.00,1.17,5.00,1.17,-1.16,-1.20,-1.32,3.83,3.83,3.83
59.16,4.99,1.18,4.98,1.17,-1.17,-1.22,-1.34,3.81,3.81,3.81
59.76,4.96,1.17,4.96,1.18,-1.18,-1.23,-1.36,3.78,3.78,3.79
60.35,4.95,1.19,4.94,1.18,-1.19,-1.25,-1.38,3.76,3.75,3.76
60.96,4.92,1.18,4.92,1.19,-1.20,-1.27,-1.39,3.72,3.73,3.74
61.57,4.91,1.21,4.91,1.21,-1.21,-1.29,-1.41,3.70,3.70,3.70
62.18,4.89,1.22,4.89,1.22,-1.21,-1.30,-1.42,3.67,3.67,3.67
62.80,4.87,1.23,4.86,1.23,-1.22,-1.32,-1.44,3.65,3.64,3.64
63.43,4.84,1.23,4.84,1.23,-1.23,-1.34,-1.45,3.61,3.61,3.61
64.07,4.81,1.23,4.82,1.23,-1.23,-1.36,-1.46,3.58,3.59,3.58
64.71,4.80,1.24,4.79,1.23,-1.23,-1.38,-1.48,3.57,3.56,3.56
65.35,4.77,1.23,4.77,1.23,-1.23,-1.40,-1.49,3.54,3.54,3.54
66.01,4.74,1.22,4.74,1.23,-1.23,-1.42,-1.50,3.51,3.51,3.52
66.67,4.72,1.23,4.71,1.22,-1.23,-1.44,-1.51,3.49,3.49,3.49
67.33,4.69,1.22,4.69,1.22,-1.22,-1.46,-1.51,3.47,3.47,3.47
68.01,4.66,1.22,4.66,1.22,-1.22,-1.48,-1.52,3.44,3.44,3.44
68.69,4.64,1.22,4.63,1.22,-1.22,-1.50,-1.53,3.42,3.42,3.42
69.37,4.61,1.22,4.61,1.22,-1.22,-1.52,-1.54,3.39,3.39,3.39
70.07,4.58,1.22,4.58,1.22,-1.22,-1.54,-1.55,3.36,3.37,3.36
70.77,4.56,1.22,4.55,1.22,-1.22,-1.56,-1.55,3.34,3.33,3.34
71.48,4.53,1.22,4.53,1.22,-1.22,-1.58,-1.56,3.31,3.30,3.31
72.19,4.50,1.22,4.50,1.23,-1.23,-1.61,-1.57,3.27,3.27,3.28
72.91,4.48,1.24,4.48,1.23,-1.24,-1.63,-1.58,3.24,3.24,3.24
73.64,4.46,1.25,4.45,1.25,-1.25,-1.65,-1.58,3.21,3.21,3.21
74.38,4.43,1.25,4.44,1.26,-1.26,-1.67,-1.59,3.17,3.18,3.18
75.12,4.42,1.29,4.41,1.28,-1.27,-1.70,-1.60,3.14,3.14,3.13
75.87,4.40,1.30,4.39,1.29,-1.29,-1.72,-1.61,3.11,3.10,3.10
76.63,4.37,1.30,4.37,1.31,-1.31,-1.74,-1.62,3.06,3.06,3.07
77.40,4.35,1.32,4.35,1.33,-1.33,-1.76,-1.63,3.02,3.02,3.03
78.17,4.34,1.37,4.33,1.35,-1.35,-1.79,-1.64,2.99,2.98,2.97
78.95,4.32,1.37,4.32,1.38,-1.38,-1.81,-1.66,2.94,2.94,2.95
79.74,4.31,1.40,4.31,1.40,-1.40,-1.83,-1.67,2.90,2.90,2.91
80.54,4.29,1.43,4.29,1.43,-1.43,-1.86,-1.69,2.85,2.86,2.86
81.35,4.29,1.47,4.28,1.46,-1.46,-1.88,-1.70,2.82,2.82,2.82
82.16,4.27,1.50,4.27,1.50,-1.50,-1.90,-1.72,2.77,2.77,2.77
82.98,4.26,1.53,4.26,1.54,-1.53,-1.93,-1.74,2.73,2.73,2.73
83.81,4.25,1.58,4.24,1.57,-1.56,-1.95,-1.76,2.68,2.68,2.67
84.65,4.23,1.60,4.23,1.60,-1.60,-1.98,-1.78,2.63,2.63,2.63
85.50,4.22,1.63,4.22,1.63,-1.64,-2.00,-1.81,2.58,2.58,2.59
86.35,4.21,1.67,4.21,1.67,-1.67,-2.03,-1.83,2.53,2.53,2.54
87.22,4.20,1.71,4.20,1.71,-1.71,-2.05,-1.86,2.49,2.49,2.49
88.09,4.19,1.76,4.19,1.75,-1.75,-2.07,-1.88,2.44,2.44,2.43
88.97,4.18,1.79,4.18,1.79,-1.79,-2.10,-1.91,2.39,2.39,2.39
89.86,4.17,1.83,4.17,1.83,-1.83,-2.12,-1.94,2.33,2.33,2.34
90.76,4.16,1.88,4.16,1.88,-1.87,-2.15,-1.97,2.28,2.28,2.28
91.66,4.15,1.92,4.15,1.92,-1.92,-2.17,-2.01,2.23,2.23,2.23
92.58,4.14,1.97,4.14,1.96,-1.96,-2.20,-2.04,2.18,2.18,2.17
93.51,4.13,2.00,4.13,2.00,-2.00,-2.22,-2.08,2.12,2.12,2.13
94.44,4.12,2.04,4.12,2.04,-2.05,-2.25,-2.12,2.07,2.07,2.08
95.39,4.11,2.09,4.10,2.09,-2.09,-2.27,-2.15,2.02,2.01,2.02
96.34,4.09,2.14,4.09,2.13,-2.14,-2.30,-2.19,1.95,1.96,1.95
97.30,4.08,2.18,4.08,2.18,-2.18,-2.32,-2.23,1.90,1.90,1.90
98.28,4.07,2.23,4.06,2.23,-2.23,-2.35,-2.28,1.84,1.84,1.84
99.26,4.05,2.28,4.05,2.27,-2.27,-2.37,-2.32,1.78,1.78,1.77
100.25,4.03,2.31,4.03,2.31,-2.31,-2.40,-2.36,1.71,1.71,1.72
101.25,4.01,2.35,4.01,2.36,-2.36,-2.42,-2.41,1.65,1.65,1.66
102.27,3.99,2.40,3.99,2.40,-2.40,-2.45,-2.45,1.59,1.59,1.59
103.29,3.97,2.45,3.97,2.44,-2.44,-2.47,-2.50,1.53,1.53,1.52
104.32,3.95,2.48,3.94,2.48,-2.48,-2.49,-2.54,1.47,1.47,1.47
105.37,3.92,2.51,3.92,2.51,-2.52,-2.52,-2.59,1.40,1.40,1.41
106.42,3.89,2.55,3.89,2.55,-2.55,-2.54,-2.64,1.33,1.33,1.34
107.48,3.86,2.59,3.86,2.59,-2.59,-2.57,-2.68,1.27,1.27,1.27
108.56,3.84,2.64,3.83,2.63,-2.63,-2.59,-2.73,1.21,1.20,1.20
109.64,3.81,2.67,3.81,2.67,-2.67,-2.62,-2.77,1.14,1.14,1.14
110.74,3.78,2.70,3.78,2.71,-2.71,-2.64,-2.82,1.07,1.07,1.08
111.85,3.75,2.74,3.75,2.74,-2.75,-2.66,-2.86,1.00,1.00,1.01
112.97,3.72,2.79,3.71,2.78,-2.78,-2.69,-2.90,0.93,0.93,0.93
114.10,3.68,2.81,3.69,2.82,-2.82,-2.71,-2.94,0.86,0.87,0.87
115.24,3.66,2.86,3.66,2.86,-2.86,-2.73,-2.97,0.80,0.80,0.80
116.39,3.63,2.90,3.62,2.89,-2.89,-2.76,-3.01,0.74,0.73,0.73
117.55,3.59,2.93,3.59,2.93,-2.92,-2.78,-3.04,0.67,0.67,0.66
118.73,3.55,2.95,3.55,2.95,-2.95,-2.80,-3.07,0.60,0.60,0.60
119.92,3.52,2.98,3.51,2.98,-2.98,-2.83,-3.10,0.54,0.54,0.54
121.12,3.48,3.00,3.48,3.00,-3.00,-2.85,-3.13,0.48,0.48,0.48
122.33,3.44,3.03,3.44,3.03,-3.03,-2.87,-3.15,0.41,0.42,0.41
123.55,3.41,3.05,3.40,3.05,-3.05,-2.89,-3.17,0.36,0.36,0.36
124.79,3.37,3.07,3.37,3.07,-3.07,-2.91,-3.18,0.30,0.30,0.30
126.03,3.33,3.08,3.33,3.09,-3.09,-2.93,-3.19,0.24,0.24,0.25
127.29,3.30,3.11,3.29,3.11,-3.11,-2.96,-3.20,0.18,0.18,0.19
128.57,3.26,3.14,3.26,3.13,-3.14,-2.98,-3.21,0.12,0.12,0.12
129.85,3.23,3.16,3.23,3.16,-3.16,-3.00,-3.21,0.07,0.07,0.07
131.15,3.20,3.18,3.20,3.18,-3.18,-3.02,-3.21,0.02,0.02,0.02
132.46,3.17,3.21,3.17,3.20,-3.20,-3.04,-3.21,-0.03,-0.03,-0.04
133.79,3.14,3.22,3.14,3.23,-3.22,-3.06,-3.21,-0.08,-0.08,-0.08
135.12,3.11,3.25,3.11,3.24,-3.24,-3.08,-3.20,-0.13,-0.13,-0.14
136.48,3.08,3.25,3.08,3.25,-3.25,-3.10,-3.19,-0.18,-0.18,-0.17
137.84,3.05,3.26,3.05,3.27,-3.27,-3.11,-3.18,-0.22,-0.22,-0.21
139.22,3.03,3.29,3.02,3.28,-3.28,-3.13,-3.17,-0.25,-0.26,-0.26
140.61,3.00,3.30,3.00,3.29,-3.29,-3.15,-3.16,-0.29,-0.29,-0.30
142.02,2.98,3.30,2.98,3.30,-3.30,-3.17,-3.14,-0.33,-0.33,-0.32
143.44,2.96,3.31,2.95,3.31,-3.31,-3.19,-3.13,-0.36,-0.36,-0.35
144.87,2.93,3.32,2.93,3.32,-3.32,-3.20,-3.11,-0.39,-0.39,-0.39
146.32,2.92,3.34,2.91,3.33,-3.33,-3.22,-3.10,-0.41,-0.42,-0.42
147.78,2.89,3.33,2.89,3.34,-3.34,-3.24,-3.08,-0.45,-0.45,-0.44
149.26,2.88,3.35,2.87,3.35,-3.35,-3.25,-3.07,-0.47,-0.47,-0.47
150.75,2.85,3.36,2.85,3.35,-3.35,-3.27,-3.05,-0.51,-0.50,-0.51
152.26,2.83,3.36,2.83,3.36,-3.36,-3.28,-3.04,-0.53,-0.53,-0.53
153.78,2.81,3.37,2.81,3.37,-3.37,-3.30,-3.03,-0.56,-0.56,-0.56
155.32,2.79,3.37,2.79,3.37,-3.37,-3.31,-3.02,-0.59,-0.59,-0.58
156.88,2.77,3.38,2.77,3.38,-3.38,-3.33,-3.01,-0.61,-0.61,-0.61
158.44,2.74,3.38,2.74,3.38,-3.38,-3.34,-3.00,-0.64,-0.64,-0.64
160.03,2.72,3.39,2.71,3.39,-3.39,-3.35,-2.99,-0.67,-0.67,-0.67
161.63,2.69,3.39,2.69,3.39,-3.39,-3.36,-2.99,-0.70,-0.70,-0.70
163.24,2.67,3.40,2.67,3.40,-3.40,-3.38,-2.99,-0.73,-0.73,-0.73
164.88,2.65,3.40,2.65,3.40,-3.40,-3.39,-2.99,-0.75,-0.75,-0.75
166.53,2.63,3.40,2.62,3.40,-3.40,-3.40,-2.99,-0.77,-0.78,-0.77
168.19,2.60,3.41,2.60,3.41,-3.41,-3.41,-2.99,-0.81,-0.81,-0.81
169.87,2.57,3.41,2.57,3.41,-3.41,-3.42,-3.00,-0.84,-0.84,-0.84
171.57,2.55,3.42,2.54,3.41,-3.41,-3.43,-3.01,-0.87,-0.87,-0.87
173.29,2.52,3.41,2.52,3.41,-3.42,-3.44,-3.02,-0.90,-0.90,-0.89
175.02,2.49,3.42,2.49,3.42,-3.42,-3.45,-3.03,-0.94,-0.94,-0.93
176.77,2.46,3.43,2.46,3.43,-3.43,-3.46,-3.05,-0.97,-0.97,-0.97
178.54,2.44,3.45,2.43,3.44,-3.44,-3.46,-3.06,-1.00,-1.01,-1.01
180.32,2.41,3.45,2.41,3.45,-3.45,-3.47,-3.08,-1.04,-1.04,-1.04
182.13,2.38,3.45,2.38,3.45,-3.46,-3.48,-3.11,-1.08,-1.08,-1.07
183.95,2.35,3.46,2.35,3.46,-3.46,-3.48,-3.13,-1.12,-1.11,-1.11
185.79,2.33,3.48,2.32,3.47,-3.47,-3.49,-3.16,-1.14,-1.15,-1.15
187.65,2.30,3.49,2.29,3.48,-3.48,-3.49,-3.19,-1.18,-1.18,-1.19
189.52,2.26,3.48,2.27,3.48,-3.48,-3.50,-3.22,-1.22,-1.21,-1.22
191.42,2.24,3.48,2.24,3.48,-3.48,-3.50,-3.25,-1.25,-1.24,-1.24
193.33,2.22,3.48,2.21,3.48,-3.49,-3.50,-3.29,-1.27,-1.27,-1.26
195.27,2.19,3.48,2.18,3.48,-3.48,-3.51,-3.33,-1.30,-1.30,-1.29
197.22,2.15,3.47,2.15,3.48,-3.48,-3.51,-3.37,-1.33,-1.33,-1.32
199.19,2.12,3.49,2.12,3.48,-3.47,-3.51,-3.41,-1.36,-1.35,-1.37
201.18,2.10,3.48,2.09,3.47,-3.47,-3.51,-3.45,-1.37,-1.38,-1.38
203.19,2.06,3.46,2.06,3.46,-3.46,-3.51,-3.49,-1.40,-1.40,-1.40
205.23,2.02,3.44,2.02,3.44,-3.44,-3.51,-3.53,-1.43,-1.42,-1.42
207.28,1.99,3.42,1.98,3.42,-3.43,-3.51,-3.58,-1.44,-1.45,-1.43
209.35,1.95,3.41,1.95,3.41,-3.41,-3.50,-3.62,-1.46,-1.46,-1.46
211.44,1.92,3.40,1.92,3.40,-3.39,-3.50,-3.67,-1.48,-1.48,-1.48
213.56,1.89,3.39,1.88,3.38,-3.38,-3.50,-3.71,-1.49,-1.50,-1.50
215.69,1.85,3.35,1.85,3.36,-3.36,-3.49,-3.75,-1.51,-1.51,-1.50
217.85,1.82,3.33,1.82,3.34,-3.34,-3.49,-3.79,-1.53,-1.52,-1.51
220.03,1.80,3.34,1.79,3.33,-3.33,-3.48,-3.83,-1.53,-1.53,-1.54
222.23,1.77,3.32,1.77,3.31,-3.31,-3.48,-3.87,-1.54,-1.54,-1.55
224.45,1.75,3.29,1.75,3.30,-3.29,-3.47,-3.91,-1.55,-1.54,-1.54
226.70,1.73,3.28,1.73,3.28,-3.28,-3.46,-3.94,-1.55,-1.55,-1.55
228.96,1.72,3.27,1.71,3.26,-3.26,-3.45,-3.97,-1.54,-1.55,-1.55
231.25,1.70,3.24,1.70,3.24,-3.25,-3.45,-3.99,-1.55,-1.55,-1.54
233.57,1.69,3.22,1.69,3.23,-3.23,-3.44,-4.01,-1.54,-1.54,-1.53
235.90,1.69,3.22,1.69,3.22,-3.22,-3.43,-4.03,-1.53,-1.53,-1.53
238.26,1.69,3.22,1.69,3.21,-3.21,-3.41,-4.04,-1.52,-1.52,-1.53
240.64,1.69,3.20,1.69,3.20,-3.20,-3.40,-4.05,-1.51,-1.51,-1.51
243.05,1.70,3.19,1.69,3.19,-3.19,-3.39,-4.05,-1.49,-1.49,-1.49
245.48,1.70,3.17,1.70,3.18,-3.18,-3.38,-4.05,-1.48,-1.48,-1.47
247.93,1.72,3.18,1.72,3.18,-3.18,-3.36,-4.04,-1.46,-1.46,-1.46
250.41,1.74,3.19,1.73,3.18,-3.18,-3.35,-4.02,-1.44,-1.44,-1.45
252.92,1.76,3.17,1.76,3.17,-3.18,-3.33,-4.00,-1.42,-1.42,-1.41
255.45,1.78,3.17,1.78,3.18,-3.18,-3.31,-3.97,-1.40,-1.40,-1.39
258.00,1.81,3.18,1.81,3.18,-3.19,-3.30,-3.94,-1.38,-1.38,-1.37
260.58,1.85,3.20,1.84,3.19,-3.19,-3.28,-3.90,-1.34,-1.35,-1.35
263.19,1.87,3.20,1.87,3.20,-3.20,-3.26,-3.85,-1.33,-1.33,-1.33
265.82,1.91,3.22,1.91,3.21,-3.21,-3.24,-3.80,-1.30,-1.30,-1.31
268.48,1.94,3.22,1.94,3.22,-3.22,-3.22,-3.75,-1.28,-1.28,-1.28
271.16,1.98,3.23,1.97,3.23,-3.23,-3.19,-3.69,-1.25,-1.26,-1.25
273.87,2.00,3.23,2.00,3.23,-3.24,-3.17,-3.62,-1.24,-1.23,-1.23
276.61,2.04,3.24,2.04,3.24,-3.25,-3.15,-3.55,-1.21,-1.21,-1.20
279.38,2.08,3.26,2.08,3.26,-3.26,-3.12,-3.48,-1.18,-1.18,-1.18
282.17,2.12,3.28,2.11,3.27,-3.27,-3.10,-3.41,-1.15,-1.16,-1.16
284.99,2.15,3.28,2.15,3.29,-3.29,-3.07,-3.33,-1.14,-1.13,-1.13
287.84,2.19,3.30,2.19,3.30,-3.30,-3.04,-3.25,-1.11,-1.11,-1.11
290.72,2.24,3.31,2.23,3.31,-3.31,-3.02,-3.17,-1.07,-1.08,-1.07
293.63,2.27,3.32,2.27,3.32,-3.32,-2.99,-3.08,-1.05,-1.05,-1.05
296.57,2.31,3.33,2.31,3.33,-3.33,-2.96,-3.00,-1.02,-1.02,-1.02
299.53,2.34,3.33,2.34,3.33,-3.33,-2.93,-2.91,-0.99,-0.99,-0.99
302.53,2.37,3.34,2.37,3.33,-3.33,-2.90,-2.82,-0.96,-0.96,-0.97
305.55,2.40,3.32,2.40,3.32,-3.32,-2.86,-2.74,-0.92,-0.93,-0.92
308.61,2.42,3.31,2.42,3.31,-3.31,-2.83,-2.65,-0.89,-0.89,-0.89
311.69,2.44,3.29,2.44,3.29,-3.29,-2.79,-2.56,-0.86,-0.86,-0.85
314.81,2.45,3.27,2.45,3.27,-3.27,-2.76,-2.47,-0.82,-0.82,-0.82
317.96,2.45,3.24,2.45,3.24,-3.24,-2.72,-2.39,-0.79,-0.79,-0.79
321.14,2.45,3.21,2.44,3.21,-3.20,-2.68,-2.30,-0.76,-0.76,-0.76
324.35,2.43,3.17,2.43,3.16,-3.16,-2.64,-2.22,-0.73,-0.73,-0.74
327.59,2.41,3.11,2.41,3.11,-3.11,-2.60,-2.13,-0.70,-0.70,-0.70
330.87,2.38,3.05,2.38,3.06,-3.06,-2.56,-2.05,-0.68,-0.68,-0.67
334.18,2.35,3.00,2.35,3.00,-3.00,-2.52,-1.96,-0.65,-0.65,-0.65
337.52,2.31,2.94,2.31,2.93,-2.93,-2.48,-1.88,-0.62,-0.62,-0.63
340.90,2.26,2.86,2.26,2.86,-2.86,-2.44,-1.80,-0.60,-0.60,-0.60
344.30,2.21,2.79,2.21,2.78,-2.78,-2.39,-1.72,-0.58,-0.58,-0.58
347.75,2.15,2.70,2.15,2.70,-2.71,-2.34,-1.64,-0.56,-0.56,-0.55
351.23,2.09,2.62,2.09,2.62,-2.62,-2.30,-1.56,-0.54,-0.54,-0.53
354.74,2.02,2.54,2.02,2.54,-2.54,-2.25,-1.49,-0.52,-0.52,-0.52
358.28,1.96,2.46,1.96,2.45,-2.46,-2.20,-1.41,-0.50,-0.50,-0.50
361.87,1.89,2.37,1.89,2.37,-2.37,-2.15,-1.34,-0.48,-0.48,-0.48
365.49,1.82,2.27,1.82,2.28,-2.28,-2.10,-1.27,-0.46,-0.46,-0.45
369.14,1.75,2.19,1.75,2.19,-2.19,-2.05,-1.19,-0.44,-0.44,-0.44
372.83,1.67,2.10,1.67,2.10,-2.09,-1.99,-1.12,-0.43,-0.42,-0.43
376.56,1.60,2.01,1.59,2.00,-2.00,-1.94,-1.05,-0.40,-0.40,-0.41
380.33,1.51,1.89,1.51,1.90,-1.90,-1.88,-0.99,-0.39,-0.38,-0.38
384.13,1.44,1.80,1.43,1.80,-1.79,-1.83,-0.92,-0.36,-0.36,-0.36
387.97,1.35,1.69,1.35,1.69,-1.69,-1.77,-0.85,-0.34,-0.34,-0.34
391.85,1.27,1.59,1.27,1.58,-1.58,-1.71,-0.79,-0.32,-0.32,-0.32
395.77,1.18,1.47,1.18,1.48,-1.48,-1.65,-0.72,-0.30,-0.30,-0.29
399.73,1.11,1.38,1.10,1.38,-1.38,-1.59,-0.66,-0.27,-0.28,-0.27
403.72,1.02,1.28,1.02,1.27,-1.28,-1.53,-0.60,-0.26,-0.26,-0.26
407.76,0.94,1.18,0.94,1.18,-1.18,-1.46,-0.54,-0.24,-0.24,-0.24
411.84,0.87,1.08,0.87,1.09,-1.09,-1.40,-0.48,-0.22,-0.22,-0.21
415.96,0.81,1.00,0.81,1.00,-1.00,-1.34,-0.42,-0.19,-0.19,-0.19
420.12,0.75,0.92,0.75,0.91,-0.91,-1.27,-0.36,-0.17,-0.17,-0.17
424.32,0.69,0.83,0.69,0.84,-0.84,-1.20,-0.31,-0.15,-0.15,-0.14
428.56,0.64,0.76,0.64,0.76,-0.76,-1.13,-0.25,-0.13,-0.13,-0.12
432.85,0.60,0.70,0.60,0.69,-0.70,-1.07,-0.20,-0.10,-0.10,-0.10
437.18,0.56,0.63,0.56,0.63,-0.63,-1.00,-0.15,-0.08,-0.08,-0.07
441.55,0.53,0.57,0.53,0.57,-0.57,-0.92,-0.10,-0.05,-0.05,-0.04
445.96,0.49,0.51,0.49,0.52,-0.52,-0.85,-0.05,-0.03,-0.02,-0.02
450.42,0.47,0.48,0.46,0.46,-0.46,-0.78,0.00,0.01,0.00,-0.01
454.93,0.43,0.40,0.43,0.41,-0.40,-0.71,0.05,0.03,0.03,0.03
459.48,0.40,0.35,0.40,0.35,-0.34,-0.63,0.09,0.06,0.06,0.05
464.07,0.36,0.28,0.36,0.28,-0.28,-0.56,0.14,0.08,0.08,0.08
468.71,0.33,0.21,0.33,0.21,-0.21,-0.48,0.18,0.11,0.11,0.12
473.40,0.29,0.15,0.29,0.15,-0.15,-0.41,0.22,0.14,0.14,0.14
478.13,0.25,0.08,0.25,0.08,-0.08,-0.33,0.26,0.17,0.17,0.17
482.91,0.21,0.01,0.21,0.01,-0.01,-0.25,0.30,0.20,0.20,0.20
487.74,0.17,-0.06,0.17,-0.06,0.06,-0.17,0.33,0.23,0.23,0.23
492.62,0.13,-0.13,0.13,-0.13,0.13,-0.09,0.37,0.26,0.26,0.26
497.55,0.09,-0.19,0.08,-0.20,0.21,-0.01,0.40,0.29,0.29,0.28
502.52,0.03,-0.29,0.03,-0.28,0.28,0.07,0.43,0.31,0.32,0.32
507.55,-0.02,-0.36,-0.02,-0.36,0.37,0.15,0.46,0.34,0.34,0.34
512.62,-0.08,-0.45,-0.08,-0.45,0.45,0.23,0.49,0.37,0.37,0.37
