frequency,raw,error,smoothed,error_smoothed,equalization,parametric_eq,fixed_band_eq,equalized_raw,equalized_smoothed,target
20.00,-8.16,-13.88,-8.16,-13.91,13.91,13.45,5.71,5.75,5.75,5.72
20.20,-8.08,-13.85,-8.08,-13.87,13.87,13.46,5.85,5.78,5.78,5.77
20.40,-8.01,-13.83,-8.00,-13.82,13.82,13.46,6.00,5.81,5.82,5.82
20.61,-7.93,-13.78,-7.93,-13.78,13.78,13.45,6.14,5.84,5.85,5.85
20.81,-7.85,-13.75,-7.85,-13.73,13.73,13.45,6.30,5.88,5.88,5.90
21.02,-7.77,-13.71,-7.77,-13.68,13.68,13.44,6.45,5.91,5.91,5.93
21.23,-7.70,-13.66,-7.70,-13.63,13.63,13.42,6.62,5.93,5.93,5.95
21.44,-7.62,-13.59,-7.62,-13.58,13.58,13.41,6.78,5.96,5.96,5.97
21.66,-7.54,-13.54,-7.55,-13.52,13.52,13.39,6.95,5.98,5.98,5.99
21.87,-7.46,-13.46,-7.48,-13.47,13.47,13.36,7.13,6.01,5.99,6.00
22.09,-7.39,-13.41,-7.40,-13.41,13.41,13.33,7.30,6.02,6.01,6.02
22.31,-7.32,-13.35,-7.33,-13.35,13.35,13.30,7.49,6.03,6.02,6.03
22.54,-7.26,-13.29,-7.26,-13.29,13.29,13.27,7.68,6.03,6.03,6.03
22.76,-7.19,-13.22,-7.19,-13.22,13.22,13.23,7.87,6.03,6.03,6.03
22.99,-7.12,-13.14,-7.12,-13.16,13.16,13.19,8.07,6.03,6.03,6.02
23.22,-7.06,-13.08,-7.06,-13.09,13.09,13.14,8.28,6.03,6.03,6.02
23.45,-6.99,-13.01,-6.99,-13.02,13.02,13.10,8.49,6.03,6.03,6.02
23.69,-6.93,-12.96,-6.91,-12.95,12.95,13.05,8.70,6.02,6.03,6.03
23.92,-6.86,-12.89,-6.84,-12.88,12.88,13.00,8.92,6.02,6.03,6.03
24.16,-6.79,-12.83,-6.77,-12.81,12.81,12.94,9.15,6.01,6.03,6.04
24.40,-6.72,-12.76,-6.70,-12.74,12.74,12.88,9.38,6.02,6.03,6.04
24.65,-6.64,-12.68,-6.64,-12.67,12.67,12.83,9.62,6.03,6.03,6.03
24.89,-6.57,-12.60,-6.58,-12.61,12.61,12.76,9.86,6.04,6.03,6.03
25.14,-6.50,-12.53,-6.52,-12.55,12.55,12.70,10.11,6.05,6.03,6.03
25.39,-6.43,-12.47,-6.46,-12.49,12.49,12.64,10.36,6.06,6.03,6.04
25.65,-6.36,-12.40,-6.40,-12.44,12.44,12.57,10.62,6.08,6.04,6.04
25.91,-6.30,-12.33,-6.35,-12.38,12.38,12.50,10.88,6.08,6.03,6.03
26.16,-6.25,-12.28,-6.29,-12.33,12.33,12.43,11.14,6.08,6.03,6.03
26.43,-6.23,-12.26,-6.23,-12.26,12.26,12.36,11.41,6.03,6.03,6.03
26.69,-6.21,-12.24,-6.18,-12.20,12.20,12.29,11.68,5.99,6.03,6.02
26.96,-6.18,-12.22,-6.12,-12.14,12.14,12.21,11.95,5.96,6.03,6.03
27.23,-6.12,-12.15,-6.06,-12.08,12.08,12.14,12.22,5.96,6.02,6.03
27.50,-6.05,-12.08,-6.00,-12.03,12.03,12.06,12.49,5.98,6.02,6.03
27.77,-5.98,-12.00,-5.95,-11.97,11.97,11.98,12.75,5.99,6.02,6.02
28.05,-5.90,-11.92,-5.90,-11.92,11.92,11.91,13.01,6.01,6.02,6.02
28.33,-5.82,-11.83,-5.84,-11.86,11.86,11.83,13.27,6.04,6.02,6.01
28.62,-5.73,-11.74,-5.79,-11.80,11.80,11.75,13.51,6.07,6.01,6.00
28.90,-5.65,-11.66,-5.73,-11.75,11.75,11.67,13.74,6.10,6.01,6.01
29.19,-5.61,-11.61,-5.68,-11.69,11.69,11.59,13.95,6.08,6.01,6.00
29.48,-5.60,-11.62,-5.62,-11.63,11.63,11.51,14.15,6.03,6.01,6.02
29.78,-5.58,-11.59,-5.56,-11.57,11.57,11.43,14.32,5.99,6.01,6.01
30.08,-5.55,-11.57,-5.51,-11.51,11.51,11.35,14.47,5.96,6.00,6.01
30.38,-5.49,-11.50,-5.45,-11.46,11.46,11.27,14.60,5.96,6.00,6.00
30.68,-5.43,-11.43,-5.40,-11.40,11.40,11.19,14.69,5.97,6.00,6.00
30.99,-5.37,-11.37,-5.35,-11.35,11.35,11.11,14.76,5.98,6.00,6.00
31.30,-5.30,-11.30,-5.30,-11.29,11.29,11.03,14.79,5.99,6.00,6.00
31.61,-5.24,-11.24,-5.24,-11.23,11.23,10.95,14.79,5.99,5.99,5.99
31.93,-5.17,-11.16,-5.18,-11.17,11.17,10.87,14.76,6.00,5.99,5.99
32.24,-5.10,-11.08,-5.12,-11.10,11.10,10.79,14.70,6.00,5.98,5.98
32.57,-5.04,-11.03,-5.05,-11.03,11.03,10.71,14.61,5.99,5.98,5.99
32.89,-4.97,-10.95,-4.98,-10.95,10.95,10.63,14.50,5.98,5.97,5.98
33.22,-4.91,-10.88,-4.90,-10.87,10.87,10.56,14.37,5.96,5.97,5.97
33.55,-4.84,-10.81,-4.83,-10.80,10.80,10.48,14.21,5.96,5.96,5.97
33.89,-4.78,-10.73,-4.76,-10.72,10.72,10.40,14.04,5.94,5.96,5.95
34.23,-4.71,-10.67,-4.69,-10.65,10.65,10.33,13.86,5.94,5.95,5.96
34.57,-4.64,-10.59,-4.63,-10.58,10.58,10.25,13.67,5.94,5.95,5.95
34.92,-4.57,-10.51,-4.57,-10.51,10.51,10.18,13.47,5.94,5.94,5.94
35.27,-4.49,-10.43,-4.51,-10.45,10.45,10.11,13.26,5.96,5.94,5.94
35.62,-4.42,-10.36,-4.46,-10.39,10.39,10.04,13.06,5.97,5.94,5.93
35.97,-4.35,-10.28,-4.40,-10.34,10.34,9.96,12.85,5.99,5.93,5.93
36.33,-4.31,-10.25,-4.35,-10.28,10.28,9.89,12.64,5.97,5.93,5.94
36.70,-4.28,-10.20,-4.30,-10.23,10.23,9.83,12.43,5.94,5.93,5.92
37.06,-4.25,-10.17,-4.24,-10.17,10.17,9.76,12.23,5.92,5.93,5.92
37.43,-4.22,-10.15,-4.19,-10.12,10.12,9.69,12.03,5.90,5.93,5.93
37.81,-4.18,-10.11,-4.15,-10.07,10.07,9.63,11.83,5.89,5.93,5.93
38.19,-4.14,-10.06,-4.10,-10.03,10.03,9.56,11.64,5.88,5.93,5.92
38.57,-4.09,-10.02,-4.05,-9.98,9.98,9.50,11.45,5.89,5.93,5.93
38.95,-4.04,-9.97,-4.01,-9.93,9.93,9.44,11.27,5.89,5.92,5.93
39.34,-3.96,-9.89,-3.97,-9.89,9.89,9.38,11.10,5.93,5.92,5.93
39.74,-3.87,-9.79,-3.92,-9.84,9.84,9.32,10.93,5.97,5.92,5.92
40.14,-3.81,-9.74,-3.87,-9.79,9.79,9.27,10.77,5.98,5.92,5.92
40.54,-3.79,-9.71,-3.82,-9.73,9.73,9.21,10.62,5.94,5.92,5.92
40.94,-3.77,-9.68,-3.76,-9.68,9.68,9.16,10.47,5.91,5.91,5.91
41.35,-3.73,-9.63,-3.71,-9.62,9.62,9.11,10.34,5.89,5.91,5.90
41.76,-3.68,-9.58,-3.67,-9.56,9.56,9.06,10.20,5.88,5.90,5.90
42.18,-3.63,-9.53,-3.62,-9.51,9.51,9.01,10.08,5.88,5.89,5.90
42.60,-3.59,-9.47,-3.58,-9.45,9.45,8.96,9.96,5.86,5.88,5.88
43.03,-3.55,-9.42,-3.53,-9.40,9.40,8.92,9.85,5.85,5.86,5.87
43.46,-3.48,-9.35,-3.49,-9.34,9.34,8.88,9.75,5.86,5.85,5.86
43.90,-3.41,-9.25,-3.45,-9.29,9.29,8.84,9.65,5.88,5.84,5.84
44.33,-3.38,-9.20,-3.41,-9.24,9.24,8.80,9.56,5.85,5.82,5.82
44.78,-3.37,-9.17,-3.37,-9.18,9.18,8.76,9.48,5.81,5.81,5.80
45.23,-3.34,-9.13,-3.32,-9.11,9.11,8.73,9.40,5.77,5.79,5.79
45.68,-3.29,-9.06,-3.27,-9.05,9.05,8.70,9.33,5.76,5.78,5.77
46.13,-3.24,-8.99,-3.22,-8.98,8.98,8.67,9.26,5.74,5.76,5.75
46.60,-3.20,-8.95,-3.18,-8.92,8.92,8.64,9.21,5.72,5.74,5.75
47.06,-3.15,-8.88,-3.13,-8.86,8.86,8.62,9.16,5.70,5.73,5.72
47.53,-3.10,-8.81,-3.09,-8.79,8.79,8.60,9.11,5.69,5.71,5.71
48.01,-3.05,-8.76,-3.05,-8.74,8.74,8.57,9.07,5.69,5.69,5.71
48.49,-3.00,-8.69,-3.01,-8.69,8.69,8.56,9.03,5.69,5.68,5.69
48.97,-2.95,-8.62,-2.98,-8.64,8.64,8.54,9.00,5.69,5.66,5.67
49.46,-2.90,-8.54,-2.94,-8.59,8.59,8.53,8.98,5.69,5.65,5.64
49.96,-2.85,-8.47,-2.91,-8.54,8.54,8.52,8.96,5.69,5.63,5.62
50.46,-2.85,-8.47,-2.88,-8.49,8.49,8.51,8.94,5.64,5.61,5.61
50.96,-2.85,-8.45,-2.85,-8.45,8.45,8.50,8.93,5.60,5.60,5.60
51.47,-2.85,-8.43,-2.83,-8.41,8.41,8.49,8.92,5.56,5.58,5.57
51.99,-2.85,-8.41,-2.81,-8.37,8.37,8.49,8.91,5.52,5.57,5.56
52.51,-2.84,-8.39,-2.79,-8.34,8.34,8.49,8.91,5.50,5.55,5.55
53.03,-2.84,-8.39,-2.78,-8.31,8.31,8.49,8.90,5.47,5.54,5.54
53.56,-2.79,-8.32,-2.77,-8.29,8.29,8.49,8.90,5.50,5.52,5.53
54.10,-2.75,-8.26,-2.77,-8.28,8.28,8.49,8.90,5.52,5.51,5.51
54.64,-2.75,-8.24,-2.77,-8.27,8.27,8.50,8.90,5.51,5.49,5.49
55.18,-2.75,-8.23,-2.78,-8.26,8.26,8.50,8.90,5.51,5.48,5.48
55.74,-2.75,-8.21,-2.78,-8.25,8.25,8.50,8.90,5.50,5.47,5.46
56.29,-2.78,-8.23,-2.79,-8.24,8.24,8.51,8.90,5.46,5.45,5.45
56.86,-2.84,-8.27,-2.82,-8.25,8.25,8.51,8.89,5.41,5.43,5.43
57.42,-2.88,-8.28,-2.87,-8.28,8.28,8.52,8.89,5.40,5.41,5.40
58.00,-2.93,-8.31,-2.93,-8.32,8.32,8.52,8.87,5.39,5.39,5.38
58.58,-3.00,-8.37,-3.01,-8.37,8.37,8.52,8.86,5.37,5.36,5.37
59.16,-3.07,-8.42,-3.12,-8.45,8.45,8.52,8.83,5.38,5.33,5.34
59.76,-3.16,-8.48,-3.25,-8.54,8.54,8.51,8.81,5.38,5.30,5.32
60.35,-3.25,-8.53,-3.38,-8.64,8.64,8.51,8.77,5.39,5.26,5.27
60.96,-3.34,-8.58,-3.52,-8.75,8.75,8.49,8.73,5.41,5.23,5.24
61.57,-3.53,-8.72,-3.66,-8.85,8.85,8.48,8.68,5.32,5.18,5.19
62.18,-3.75,-8.89,-3.80,-8.94,8.94,8.46,8.63,5.19,5.14,5.14
62.80,-4.01,-9.10,-3.92,-9.02,9.02,8.44,8.57,5.01,5.10,5.09
63.43,-4.12,-9.16,-4.03,-9.08,9.08,8.41,8.50,4.96,5.05,5.04
64.07,-4.19,-9.18,-4.11,-9.11,9.11,8.37,8.42,4.92,5.00,4.99
64.71,-4.36,-9.30,-4.16,-9.11,9.11,8.33,8.34,4.75,4.95,4.94
65.35,-4.39,-9.29,-4.18,-9.08,9.08,8.28,8.25,4.69,4.90,4.90
66.01,-4.30,-9.14,-4.17,-9.02,9.02,8.23,8.15,4.71,4.84,4.84
66.67,-4.25,-9.04,-4.13,-8.92,8.92,8.17,8.05,4.67,4.79,4.79
67.33,-4.14,-8.87,-4.05,-8.79,8.79,8.10,7.94,4.65,4.74,4.73
68.01,-3.97,-8.66,-3.94,-8.62,8.62,8.03,7.82,4.65,4.68,4.69
68.69,-3.80,-8.43,-3.80,-8.42,8.42,7.95,7.70,4.62,4.63,4.63
69.37,-3.60,-8.17,-3.64,-8.21,8.21,7.86,7.58,4.61,4.57,4.57
70.07,-3.38,-7.89,-3.47,-7.98,7.98,7.77,7.46,4.60,4.51,4.51
70.77,-3.21,-7.67,-3.30,-7.75,7.75,7.67,7.33,4.54,4.45,4.46
71.48,-3.06,-7.46,-3.14,-7.53,7.53,7.57,7.20,4.46,4.39,4.40
72.19,-2.93,-7.26,-2.98,-7.30,7.30,7.46,7.06,4.37,4.33,4.33
72.91,-2.82,-7.08,-2.84,-7.10,7.10,7.35,6.93,4.28,4.26,4.26
73.64,-2.67,-6.87,-2.72,-6.92,6.92,7.24,6.80,4.25,4.20,4.20
74.38,-2.54,-6.68,-2.62,-6.76,6.76,7.12,6.66,4.22,4.14,4.13
75.12,-2.44,-6.51,-2.54,-6.61,6.61,7.00,6.53,4.17,4.07,4.07
75.87,-2.44,-6.44,-2.47,-6.48,6.48,6.88,6.39,4.04,4.01,4.00
76.63,-2.44,-6.38,-2.41,-6.36,6.36,6.76,6.26,3.92,3.95,3.94
77.40,-2.39,-6.28,-2.37,-6.26,6.26,6.63,6.13,3.87,3.89,3.88
78.17,-2.32,-6.14,-2.34,-6.17,6.17,6.51,6.00,3.84,3.83,3.81
78.95,-2.33,-6.10,-2.31,-6.08,6.08,6.38,5.88,3.75,3.77,3.77
79.74,-2.35,-6.06,-2.29,-6.01,6.01,6.26,5.75,3.65,3.71,3.71
80.54,-2.36,-6.02,-2.29,-5.94,5.94,6.13,5.63,3.58,3.65,3.66
81.35,-2.32,-5.92,-2.29,-5.89,5.89,6.01,5.51,3.57,3.60,3.59
82.16,-2.24,-5.78,-2.29,-5.84,5.84,5.88,5.40,3.59,3.54,3.54
82.98,-2.24,-5.74,-2.29,-5.78,5.78,5.76,5.29,3.54,3.49,3.49
83.81,-2.24,-5.67,-2.29,-5.72,5.72,5.64,5.18,3.47,3.43,3.43
84.65,-2.24,-5.61,-2.28,-5.65,5.65,5.52,5.07,3.41,3.37,3.37
85.50,-2.24,-5.56,-2.27,-5.58,5.58,5.40,4.97,3.34,3.32,3.32
86.35,-2.26,-5.53,-2.25,-5.51,5.51,5.29,4.87,3.25,3.26,3.26
87.22,-2.30,-5.51,-2.23,-5.43,5.43,5.18,4.77,3.13,3.20,3.20
88.09,-2.33,-5.47,-2.20,-5.34,5.34,5.06,4.67,3.01,3.14,3.14
88.97,-2.26,-5.34,-2.18,-5.26,5.26,4.95,4.58,3.00,3.08,3.08
89.86,-2.14,-5.16,-2.15,-5.17,5.17,4.85,4.50,3.03,3.02,3.02
90.76,-2.07,-5.03,-2.11,-5.07,5.07,4.74,4.41,3.00,2.96,2.96
91.66,-2.05,-4.96,-2.07,-4.97,4.97,4.64,4.33,2.92,2.90,2.90
92.58,-2.04,-4.87,-2.03,-4.87,4.87,4.54,4.25,2.83,2.84,2.83
93.51,-1.98,-4.76,-1.98,-4.76,4.76,4.44,4.18,2.78,2.78,2.78
94.44,-1.89,-4.61,-1.93,-4.65,4.65,4.34,4.11,2.76,2.72,2.72
95.39,-1.84,-4.51,-1.88,-4.54,4.54,4.25,4.04,2.70,2.66,2.67
96.34,-1.84,-4.44,-1.83,-4.44,4.44,4.16,3.97,2.60,2.60,2.60
97.30,-1.82,-4.37,-1.79,-4.34,4.34,4.07,3.91,2.52,2.55,2.54
98.28,-1.74,-4.23,-1.76,-4.25,4.25,3.98,3.85,2.50,2.49,2.49
99.26,-1.67,-4.10,-1.73,-4.16,4.16,3.89,3.79,2.49,2.43,2.43
100.25,-1.68,-4.06,-1.71,-4.08,4.08,3.81,3.73,2.40,2.37,2.37
101.25,-1.70,-4.02,-1.69,-4.00,4.00,3.73,3.68,2.30,2.32,2.32
102.27,-1.70,-3.96,-1.67,-3.93,3.93,3.65,3.62,2.23,2.26,2.26
103.29,-1.66,-3.85,-1.67,-3.87,3.87,3.57,3.57,2.20,2.20,2.19
104.32,-1.65,-3.80,-1.67,-3.81,3.81,3.49,3.53,2.16,2.14,2.14
105.37,-1.67,-3.76,-1.67,-3.75,3.75,3.42,3.48,2.08,2.08,2.09
106.42,-1.66,-3.69,-1.67,-3.69,3.69,3.35,3.43,2.02,2.02,2.03
107.48,-1.63,-3.59,-1.66,-3.62,3.62,3.28,3.39,1.99,1.96,1.96
108.56,-1.64,-3.53,-1.66,-3.56,3.56,3.21,3.35,1.91,1.89,1.89
109.64,-1.66,-3.50,-1.66,-3.49,3.49,3.14,3.31,1.83,1.83,1.84
110.74,-1.68,-3.45,-1.65,-3.42,3.42,3.08,3.27,1.74,1.77,1.77
111.85,-1.70,-3.42,-1.64,-3.35,3.35,3.01,3.23,1.65,1.71,1.72
112.97,-1.71,-3.36,-1.62,-3.27,3.27,2.95,3.19,1.56,1.65,1.64
114.10,-1.65,-3.24,-1.61,-3.20,3.20,2.89,3.15,1.55,1.59,1.59
115.24,-1.61,-3.14,-1.60,-3.14,3.14,2.83,3.11,1.53,1.53,1.53
116.39,-1.54,-3.01,-1.59,-3.07,3.07,2.77,3.07,1.53,1.48,1.47
117.55,-1.51,-2.93,-1.57,-3.00,3.00,2.71,3.03,1.49,1.43,1.42
118.73,-1.51,-2.88,-1.55,-2.93,2.93,2.66,2.99,1.42,1.38,1.36
119.92,-1.50,-2.83,-1.53,-2.86,2.86,2.60,2.95,1.36,1.33,1.33
121.12,-1.49,-2.77,-1.51,-2.79,2.79,2.55,2.91,1.30,1.28,1.28
122.33,-1.48,-2.71,-1.49,-2.73,2.73,2.50,2.86,1.24,1.24,1.23
123.55,-1.48,-2.68,-1.46,-2.66,2.66,2.45,2.82,1.18,1.20,1.20
124.79,-1.47,-2.63,-1.44,-2.59,2.59,2.40,2.78,1.12,1.15,1.16
126.03,-1.47,-2.59,-1.42,-2.53,2.53,2.35,2.73,1.06,1.11,1.12
127.29,-1.43,-2.52,-1.40,-2.48,2.48,2.30,2.69,1.04,1.07,1.09
128.57,-1.38,-2.42,-1.38,-2.42,2.42,2.26,2.64,1.04,1.04,1.04
129.85,-1.34,-2.34,-1.36,-2.36,2.36,2.21,2.59,1.02,1.00,1.00
131.15,-1.34,-2.30,-1.34,-2.30,2.30,2.17,2.55,0.96,0.96,0.96
132.46,-1.33,-2.25,-1.32,-2.24,2.24,2.13,2.50,0.91,0.92,0.92
133.79,-1.31,-2.20,-1.29,-2.18,2.18,2.08,2.45,0.87,0.89,0.89
135.12,-1.22,-2.06,-1.27,-2.12,2.12,2.04,2.39,0.90,0.85,0.84
136.48,-1.22,-2.04,-1.26,-2.07,2.07,2.00,2.34,0.85,0.81,0.81
137.84,-1.22,-1.99,-1.25,-2.02,2.02,1.96,2.29,0.80,0.78,0.77
139.22,-1.22,-1.95,-1.23,-1.97,1.97,1.93,2.24,0.75,0.74,0.73
140.61,-1.22,-1.91,-1.22,-1.93,1.93,1.89,2.18,0.70,0.70,0.69
142.02,-1.21,-1.88,-1.22,-1.88,1.88,1.85,2.13,0.66,0.66,0.66
143.44,-1.21,-1.84,-1.21,-1.83,1.83,1.82,2.07,0.61,0.62,0.62
144.87,-1.21,-1.79,-1.20,-1.77,1.77,1.78,2.02,0.56,0.57,0.57
146.32,-1.21,-1.74,-1.19,-1.71,1.71,1.75,1.96,0.50,0.52,0.53
147.78,-1.21,-1.70,-1.18,-1.64,1.64,1.71,1.91,0.43,0.46,0.49
149.26,-1.22,-1.65,-1.17,-1.57,1.57,1.68,1.85,0.35,0.40,0.43
150.75,-1.20,-1.56,-1.16,-1.49,1.49,1.65,1.80,0.29,0.33,0.36
152.26,-1.14,-1.42,-1.15,-1.41,1.41,1.62,1.74,0.27,0.26,0.28
153.78,-1.11,-1.32,-1.15,-1.34,1.34,1.59,1.69,0.23,0.19,0.21
155.32,-1.11,-1.24,-1.15,-1.27,1.27,1.55,1.64,0.15,0.11,0.13
156.88,-1.11,-1.16,-1.15,-1.19,1.19,1.53,1.58,0.07,0.04,0.05
158.44,-1.11,-1.07,-1.15,-1.11,1.11,1.50,1.53,-0.01,-0.04,-0.05
160.03,-1.11,-0.98,-1.14,-1.03,1.03,1.47,1.48,-0.09,-0.12,-0.13
161.63,-1.11,-0.90,-1.14,-0.95,0.95,1.44,1.42,-0.16,-0.19,-0.21
163.24,-1.12,-0.84,-1.13,-0.88,0.88,1.41,1.37,-0.24,-0.26,-0.28
164.88,-1.14,-0.80,-1.13,-0.81,0.81,1.39,1.32,-0.33,-0.32,-0.34
166.53,-1.20,-0.81,-1.13,-0.75,0.75,1.36,1.27,-0.45,-0.37,-0.39
168.19,-1.23,-0.79,-1.13,-0.71,0.71,1.34,1.22,-0.52,-0.42,-0.44
169.87,-1.23,-0.75,-1.13,-0.67,0.67,1.31,1.17,-0.56,-0.46,-0.48
171.57,-1.08,-0.58,-1.12,-0.63,0.63,1.29,1.12,-0.45,-0.49,-0.51
173.29,-1.05,-0.52,-1.11,-0.60,0.60,1.26,1.07,-0.46,-0.52,-0.53
175.02,-1.05,-0.51,-1.10,-0.57,0.57,1.24,1.02,-0.48,-0.54,-0.54
176.77,-1.06,-0.50,-1.09,-0.54,0.54,1.22,0.98,-0.52,-0.55,-0.56
178.54,-1.06,-0.49,-1.08,-0.52,0.52,1.20,0.93,-0.54,-0.56,-0.57
180.32,-1.05,-0.49,-1.07,-0.49,0.49,1.17,0.88,-0.56,-0.58,-0.57
182.13,-1.05,-0.49,-1.05,-0.46,0.46,1.15,0.84,-0.59,-0.59,-0.56
183.95,-1.04,-0.46,-1.03,-0.43,0.43,1.13,0.79,-0.61,-0.60,-0.58
185.79,-1.03,-0.44,-1.01,-0.40,0.40,1.11,0.75,-0.63,-0.61,-0.59
187.65,-1.01,-0.40,-0.99,-0.36,0.36,1.09,0.70,-0.65,-0.62,-0.61
189.52,-1.00,-0.37,-0.97,-0.34,0.34,1.07,0.66,-0.67,-0.64,-0.63
191.42,-0.99,-0.34,-0.96,-0.31,0.31,1.05,0.62,-0.69,-0.66,-0.65
193.33,-0.97,-0.30,-0.94,-0.27,0.27,1.03,0.58,-0.70,-0.67,-0.67
195.27,-0.94,-0.24,-0.92,-0.22,0.22,1.02,0.53,-0.72,-0.70,-0.70
197.22,-0.88,-0.16,-0.90,-0.18,0.18,1.00,0.49,-0.70,-0.72,-0.72
199.19,-0.83,-0.08,-0.88,-0.14,0.14,0.98,0.45,-0.69,-0.74,-0.75
201.18,-0.82,-0.05,-0.86,-0.10,0.10,0.96,0.41,-0.73,-0.77,-0.77
203.19,-0.82,-0.03,-0.85,-0.06,0.06,0.95,0.37,-0.77,-0.79,-0.79
205.23,-0.82,-0.00,-0.84,-0.02,0.02,0.93,0.34,-0.80,-0.82,-0.82
207.28,-0.82,0.01,-0.83,0.01,-0.01,0.92,0.30,-0.83,-0.84,-0.83
209.35,-0.82,0.03,-0.82,0.04,-0.04,0.90,0.26,-0.86,-0.86,-0.85
211.44,-0.82,0.07,-0.82,0.06,-0.06,0.89,0.23,-0.88,-0.88,-0.89
213.56,-0.82,0.08,-0.82,0.08,-0.08,0.87,0.19,-0.90,-0.90,-0.90
215.69,-0.83,0.08,-0.82,0.09,-0.09,0.86,0.16,-0.93,-0.92,-0.91
217.85,-0.83,0.10,-0.83,0.10,-0.10,0.84,0.13,-0.94,-0.93,-0.93
220.03,-0.83,0.11,-0.83,0.11,-0.11,0.83,0.09,-0.94,-0.94,-0.95
222.23,-0.84,0.13,-0.84,0.12,-0.12,0.82,0.06,-0.96,-0.95,-0.97
224.45,-0.84,0.12,-0.84,0.12,-0.12,0.80,0.04,-0.96,-0.96,-0.96
226.70,-0.84,0.13,-0.83,0.13,-0.13,0.79,0.01,-0.97,-0.96,-0.97
228.96,-0.83,0.13,-0.83,0.13,-0.13,0.78,-0.02,-0.96,-0.96,-0.96
231.25,-0.83,0.12,-0.82,0.13,-0.13,0.77,-0.04,-0.96,-0.95,-0.95
233.57,-0.82,0.12,-0.81,0.13,-0.13,0.76,-0.06,-0.96,-0.94,-0.95
235.90,-0.80,0.14,-0.80,0.13,-0.13,0.74,-0.08,-0.94,-0.93,-0.94
238.26,-0.79,0.14,-0.78,0.14,-0.14,0.73,-0.10,-0.93,-0.92,-0.93
240.64,-0.77,0.14,-0.77,0.13,-0.13,0.72,-0.11,-0.91,-0.90,-0.91
243.05,-0.76,0.12,-0.75,0.13,-0.13,0.71,-0.13,-0.89,-0.88,-0.88
245.48,-0.74,0.12,-0.73,0.13,-0.13,0.70,-0.14,-0.87,-0.86,-0.86
247.93,-0.71,0.12,-0.71,0.13,-0.13,0.69,-0.15,-0.84,-0.84,-0.83
250.41,-0.69,0.13,-0.69,0.13,-0.13,0.68,-0.15,-0.82,-0.82,-0.82
252.92,-0.67,0.12,-0.68,0.12,-0.12,0.67,-0.16,-0.79,-0.80,-0.79
255.45,-0.66,0.11,-0.67,0.10,-0.10,0.67,-0.16,-0.76,-0.78,-0.77
258.00,-0.65,0.09,-0.67,0.08,-0.08,0.66,-0.16,-0.73,-0.75,-0.75
260.58,-0.65,0.08,-0.67,0.06,-0.06,0.65,-0.16,-0.71,-0.73,-0.73
263.19,-0.65,0.05,-0.67,0.03,-0.03,0.64,-0.16,-0.69,-0.71,-0.70
265.82,-0.65,0.04,-0.67,0.01,-0.01,0.63,-0.15,-0.66,-0.68,-0.69
268.48,-0.65,0.02,-0.68,-0.02,0.02,0.63,-0.15,-0.63,-0.66,-0.67
271.16,-0.66,-0.03,-0.69,-0.05,0.05,0.62,-0.14,-0.61,-0.64,-0.63
273.87,-0.73,-0.11,-0.70,-0.09,0.09,0.61,-0.13,-0.64,-0.61,-0.62
276.61,-0.76,-0.17,-0.72,-0.13,0.13,0.61,-0.12,-0.63,-0.59,-0.59
279.38,-0.76,-0.20,-0.73,-0.17,0.17,0.60,-0.10,-0.59,-0.56,-0.56
282.17,-0.76,-0.22,-0.74,-0.21,0.21,0.60,-0.09,-0.56,-0.54,-0.54
284.99,-0.75,-0.25,-0.75,-0.24,0.24,0.59,-0.07,-0.51,-0.51,-0.51
287.84,-0.74,-0.25,-0.76,-0.28,0.28,0.59,-0.05,-0.47,-0.48,-0.49
290.72,-0.73,-0.28,-0.76,-0.31,0.31,0.58,-0.03,-0.42,-0.45,-0.46
293.63,-0.77,-0.34,-0.77,-0.34,0.34,0.58,-0.01,-0.43,-0.43,-0.43
296.57,-0.82,-0.43,-0.77,-0.37,0.37,0.57,0.01,-0.45,-0.40,-0.40
299.53,-0.80,-0.43,-0.78,-0.40,0.40,0.57,0.03,-0.40,-0.37,-0.37
302.53,-0.78,-0.43,-0.78,-0.43,0.43,0.56,0.05,-0.35,-0.35,-0.36
305.55,-0.77,-0.46,-0.78,-0.46,0.46,0.56,0.08,-0.31,-0.32,-0.31
308.61,-0.76,-0.47,-0.79,-0.49,0.49,0.56,0.10,-0.27,-0.30,-0.29
311.69,-0.75,-0.48,-0.79,-0.52,0.52,0.56,0.13,-0.24,-0.27,-0.27
314.81,-0.74,-0.50,-0.79,-0.54,0.54,0.55,0.15,-0.20,-0.25,-0.24
317.96,-0.80,-0.58,-0.80,-0.57,0.57,0.55,0.18,-0.23,-0.23,-0.23
321.14,-0.84,-0.62,-0.81,-0.60,0.60,0.55,0.20,-0.24,-0.22,-0.22
324.35,-0.85,-0.65,-0.82,-0.62,0.62,0.55,0.23,-0.23,-0.20,-0.20
327.59,-0.85,-0.66,-0.84,-0.65,0.65,0.55,0.26,-0.20,-0.19,-0.19
330.87,-0.86,-0.68,-0.85,-0.68,0.68,0.55,0.28,-0.19,-0.17,-0.18
334.18,-0.86,-0.70,-0.87,-0.70,0.70,0.55,0.31,-0.16,-0.16,-0.16
337.52,-0.86,-0.70,-0.87,-0.72,0.72,0.55,0.34,-0.14,-0.15,-0.16
340.90,-0.86,-0.72,-0.88,-0.74,0.74,0.55,0.37,-0.12,-0.15,-0.14
344.30,-0.86,-0.73,-0.90,-0.76,0.76,0.55,0.40,-0.11,-0.14,-0.13
347.75,-0.94,-0.81,-0.91,-0.78,0.78,0.55,0.43,-0.17,-0.13,-0.14
351.23,-0.98,-0.85,-0.92,-0.80,0.80,0.55,0.46,-0.19,-0.13,-0.13
354.74,-0.97,-0.84,-0.94,-0.81,0.81,0.56,0.49,-0.16,-0.13,-0.13
358.28,-0.95,-0.83,-0.95,-0.83,0.83,0.56,0.52,-0.12,-0.12,-0.12
361.87,-0.95,-0.83,-0.97,-0.85,0.85,0.56,0.55,-0.10,-0.12,-0.12
365.49,-0.94,-0.82,-0.99,-0.87,0.87,0.57,0.58,-0.07,-0.12,-0.12
369.14,-0.92,-0.79,-1.01,-0.88,0.88,0.57,0.61,-0.04,-0.12,-0.13
372.83,-0.96,-0.83,-1.03,-0.90,0.90,0.58,0.64,-0.06,-0.13,-0.13
376.56,-1.09,-0.96,-1.04,-0.91,0.91,0.58,0.67,-0.18,-0.13,-0.13
380.33,-1.12,-1.00,-1.06,-0.92,0.92,0.59,0.70,-0.20,-0.13,-0.13
384.13,-1.11,-0.98,-1.07,-0.93,0.93,0.60,0.74,-0.18,-0.14,-0.13
387.97,-1.10,-0.96,-1.08,-0.94,0.94,0.60,0.77,-0.16,-0.14,-0.14
391.85,-1.10,-0.95,-1.09,-0.94,0.94,0.61,0.80,-0.16,-0.15,-0.15
395.77,-1.10,-0.96,-1.10,-0.95,0.95,0.62,0.83,-0.15,-0.15,-0.14
399.73,-1.10,-0.95,-1.11,-0.95,0.95,0.63,0.86,-0.15,-0.16,-0.15
403.72,-1.10,-0.95,-1.12,-0.95,0.95,0.64,0.90,-0.15,-0.16,-0.16
407.76,-1.10,-0.93,-1.12,-0.96,0.96,0.65,0.93,-0.15,-0.17,-0.17
411.84,-1.11,-0.94,-1.13,-0.96,0.96,0.66,0.96,-0.16,-0.17,-0.17
415.96,-1.11,-0.94,-1.12,-0.95,0.95,0.67,0.99,-0.16,-0.17,-0.17
420.12,-1.11,-0.94,-1.11,-0.93,0.93,0.69,1.02,-0.18,-0.17,-0.17
424.32,-1.10,-0.93,-1.10,-0.93,0.93,0.70,1.05,-0.17,-0.17,-0.17
428.56,-1.09,-0.93,-1.09,-0.94,0.94,0.72,1.08,-0.15,-0.16,-0.16
432.85,-1.08,-0.93,-1.09,-0.95,0.95,0.73,1.11,-0.13,-0.14,-0.15
437.18,-1.05,-0.91,-1.07,-0.95,0.95,0.75,1.14,-0.10,-0.12,-0.15
441.55,-1.08,-0.98,-1.04,-0.94,0.94,0.77,1.17,-0.14,-0.09,-0.11
445.96,-1.10,-1.02,-1.01,-0.95,0.95,0.79,1.20,-0.15,-0.06,-0.08
450.42,-1.02,-0.97,-0.99,-0.96,0.96,0.81,1.22,-0.06,-0.03,-0.05
454.93,-0.96,-0.96,-0.96,-0.98,0.98,0.83,1.25,0.01,0.01,0.00
459.48,-0.90,-0.95,-0.94,-0.99,0.99,0.85,1.27,0.09,0.06,0.05
464.07,-0.88,-0.98,-0.91,-1.02,1.02,0.87,1.29,0.13,0.10,0.10
468.71,-0.92,-1.08,-0.89,-1.04,1.04,0.89,1.31,0.12,0.15,0.16
