frequency,raw,error,smoothed,error_smoothed,equalization,parametric_eq,fixed_band_eq,equalized_raw,equalized_smoothed,target
20.00,-16.42,-18.16,-16.40,-18.17,18.17,18.17,6.33,1.75,1.77,1.75
20.20,-16.28,-18.06,-16.27,-18.07,18.07,18.09,6.47,1.79,1.80,1.79
20.40,-16.13,-17.95,-16.14,-17.96,17.96,17.99,6.63,1.83,1.82,1.82
20.61,-16.00,-17.84,-16.00,-17.85,17.85,17.88,6.78,1.85,1.85,1.85
20.81,-15.86,-17.75,-15.86,-17.74,17.74,17.76,6.94,1.87,1.88,1.89
21.02,-15.73,-17.65,-15.72,-17.62,17.62,17.64,7.10,1.89,1.90,1.92
21.23,-15.58,-17.51,-15.58,-17.50,17.50,17.50,7.27,1.92,1.92,1.93
21.44,-15.42,-17.38,-15.43,-17.37,17.37,17.36,7.44,1.95,1.94,1.95
21.66,-15.28,-17.25,-15.28,-17.24,17.24,17.21,7.62,1.96,1.96,1.97
21.87,-15.12,-17.11,-15.13,-17.11,17.11,17.05,7.80,1.98,1.98,1.98
22.09,-14.96,-16.97,-14.98,-16.97,16.97,16.89,7.99,2.01,1.99,2.00
22.31,-14.80,-16.81,-14.82,-16.83,16.83,16.72,8.18,2.03,2.01,2.00
22.54,-14.65,-16.66,-14.67,-16.69,16.69,16.55,8.38,2.04,2.02,2.01
22.76,-14.48,-16.50,-14.51,-16.53,16.53,16.38,8.58,2.05,2.03,2.02
22.99,-14.33,-16.35,-14.34,-16.38,16.38,16.20,8.79,2.05,2.03,2.02
23.22,-14.18,-16.21,-14.17,-16.21,16.21,16.02,9.00,2.04,2.04,2.03
23.45,-14.03,-16.06,-14.00,-16.05,16.05,15.84,9.22,2.02,2.04,2.04
23.69,-13.88,-15.93,-13.83,-15.88,15.88,15.66,9.45,2.00,2.05,2.05
23.92,-13.73,-15.79,-13.65,-15.71,15.71,15.48,9.68,1.97,2.05,2.06
24.16,-13.53,-15.60,-13.48,-15.54,15.54,15.30,9.91,2.00,2.06,2.07
24.40,-13.32,-15.40,-13.30,-15.36,15.36,15.12,10.16,2.04,2.06,2.07
24.65,-13.12,-15.18,-13.13,-15.19,15.19,14.94,10.41,2.07,2.06,2.06
24.89,-12.89,-14.96,-12.96,-15.02,15.02,14.76,10.66,2.13,2.06,2.06
25.14,-12.72,-14.79,-12.79,-14.85,14.85,14.58,10.93,2.13,2.06,2.06
25.39,-12.57,-14.63,-12.62,-14.68,14.68,14.40,11.19,2.11,2.06,2.06
25.65,-12.43,-14.49,-12.45,-14.52,14.52,14.22,11.47,2.09,2.06,2.06
25.91,-12.28,-14.33,-12.29,-14.35,14.35,14.04,11.75,2.07,2.06,2.05
26.16,-12.13,-14.19,-12.14,-14.20,14.20,13.87,12.03,2.06,2.06,2.06
26.43,-12.00,-14.05,-11.99,-14.04,14.04,13.69,12.32,2.05,2.06,2.06
26.69,-11.86,-13.91,-11.85,-13.90,13.90,13.52,12.62,2.04,2.05,2.05
26.96,-11.71,-13.76,-11.71,-13.76,13.76,13.35,12.91,2.05,2.05,2.05
27.23,-11.58,-13.63,-11.58,-13.62,13.62,13.18,13.21,2.05,2.05,2.05
27.50,-11.44,-13.49,-11.44,-13.48,13.48,13.01,13.51,2.05,2.04,2.05
27.77,-11.29,-13.33,-11.30,-13.34,13.34,12.85,13.80,2.04,2.04,2.04
28.05,-11.17,-13.20,-11.15,-13.19,13.19,12.68,14.10,2.03,2.04,2.04
28.33,-11.03,-13.05,-11.00,-13.04,13.04,12.52,14.38,2.02,2.04,2.03
28.62,-10.90,-12.93,-10.86,-12.89,12.89,12.36,14.66,1.99,2.04,2.03
28.90,-10.77,-12.80,-10.71,-12.74,12.74,12.20,14.92,1.97,2.03,2.03
29.19,-10.59,-12.61,-10.56,-12.58,12.58,12.05,15.16,2.00,2.03,2.02
29.48,-10.39,-12.42,-10.40,-12.43,12.43,11.89,15.38,2.03,2.02,2.03
29.78,-10.21,-12.23,-10.25,-12.27,12.27,11.74,15.58,2.06,2.02,2.03
30.08,-10.03,-12.05,-10.09,-12.11,12.11,11.59,15.74,2.08,2.02,2.02
30.38,-9.90,-11.91,-9.94,-11.95,11.95,11.44,15.87,2.05,2.01,2.01
30.68,-9.78,-11.79,-9.78,-11.79,11.79,11.29,15.96,2.01,2.01,2.01
30.99,-9.66,-11.66,-9.63,-11.63,11.63,11.14,16.01,1.97,2.00,2.00
31.30,-9.49,-11.48,-9.47,-11.47,11.47,11.00,16.02,1.98,2.00,2.00
31.61,-9.33,-11.32,-9.32,-11.31,11.31,10.86,15.98,1.98,1.99,1.99
31.93,-9.17,-11.15,-9.17,-11.15,11.15,10.71,15.90,1.98,1.98,1.98
32.24,-9.01,-10.98,-9.02,-11.00,11.00,10.58,15.78,1.99,1.98,1.97
32.57,-8.88,-10.84,-8.88,-10.85,10.85,10.44,15.62,1.97,1.97,1.97
32.89,-8.73,-10.70,-8.73,-10.69,10.69,10.30,15.44,1.96,1.97,1.96
33.22,-8.58,-10.53,-8.58,-10.53,10.53,10.17,15.22,1.96,1.96,1.96
33.55,-8.42,-10.38,-8.42,-10.38,10.38,10.03,14.98,1.95,1.95,1.96
33.89,-8.27,-10.22,-8.27,-10.22,10.22,9.90,14.72,1.96,1.95,1.95
34.23,-8.13,-10.08,-8.13,-10.07,10.07,9.77,14.45,1.94,1.94,1.95
34.57,-8.00,-9.93,-7.98,-9.92,9.92,9.65,14.16,1.92,1.94,1.94
34.92,-7.86,-9.79,-7.83,-9.77,9.77,9.52,13.87,1.91,1.93,1.93
35.27,-7.69,-9.62,-7.69,-9.61,9.61,9.39,13.57,1.92,1.93,1.93
35.62,-7.51,-9.42,-7.53,-9.45,9.45,9.27,13.27,1.95,1.92,1.91
35.97,-7.32,-9.23,-7.38,-9.29,9.29,9.15,12.97,1.98,1.91,1.91
36.33,-7.22,-9.12,-7.23,-9.13,9.13,9.03,12.68,1.92,1.91,1.91
36.70,-7.13,-9.03,-7.08,-8.97,8.97,8.91,12.38,1.85,1.90,1.90
37.06,-7.01,-8.90,-6.93,-8.82,8.82,8.79,12.09,1.81,1.89,1.89
37.43,-6.83,-8.72,-6.79,-8.68,8.68,8.67,11.80,1.84,1.88,1.88
37.81,-6.66,-8.53,-6.66,-8.53,8.53,8.56,11.52,1.87,1.87,1.88
38.19,-6.49,-8.35,-6.52,-8.38,8.38,8.44,11.24,1.90,1.87,1.86
38.57,-6.34,-8.19,-6.38,-8.24,8.24,8.33,10.97,1.90,1.86,1.86
38.95,-6.17,-8.03,-6.25,-8.10,8.10,8.22,10.70,1.93,1.85,1.85
39.34,-6.08,-7.91,-6.13,-7.98,7.98,8.11,10.44,1.90,1.84,1.84
39.74,-6.00,-7.82,-6.01,-7.85,7.85,8.00,10.19,1.85,1.84,1.82
40.14,-5.91,-7.73,-5.89,-7.71,7.71,7.89,9.94,1.81,1.83,1.82
40.54,-5.82,-7.63,-5.76,-7.58,7.58,7.78,9.70,1.76,1.81,1.82
40.94,-5.72,-7.53,-5.64,-7.44,7.44,7.68,9.46,1.73,1.80,1.81
41.35,-5.56,-7.35,-5.54,-7.32,7.32,7.57,9.23,1.76,1.78,1.79
41.76,-5.39,-7.17,-5.44,-7.20,7.20,7.47,9.01,1.81,1.76,1.78
42.18,-5.29,-7.04,-5.34,-7.08,7.08,7.37,8.79,1.80,1.74,1.76
42.60,-5.27,-7.00,-5.25,-6.97,6.97,7.27,8.58,1.70,1.72,1.73
43.03,-5.24,-6.95,-5.15,-6.85,6.85,7.17,8.37,1.61,1.69,1.71
43.46,-5.04,-6.72,-5.06,-6.72,6.72,7.07,8.17,1.69,1.67,1.68
43.90,-4.85,-6.48,-4.95,-6.59,6.59,6.97,7.98,1.74,1.64,1.64
44.33,-4.80,-6.40,-4.85,-6.46,6.46,6.87,7.79,1.67,1.61,1.61
44.78,-4.80,-6.36,-4.76,-6.34,6.34,6.78,7.60,1.55,1.58,1.57
45.23,-4.75,-6.28,-4.68,-6.23,6.23,6.68,7.42,1.48,1.55,1.54
45.68,-4.64,-6.14,-4.59,-6.12,6.12,6.59,7.24,1.48,1.53,1.51
46.13,-4.54,-6.02,-4.52,-6.02,6.02,6.49,7.07,1.48,1.50,1.49
46.60,-4.43,-5.90,-4.43,-5.91,5.91,6.40,6.90,1.49,1.48,1.48
47.06,-4.33,-5.78,-4.35,-5.81,5.81,6.31,6.74,1.49,1.46,1.45
47.53,-4.22,-5.66,-4.26,-5.71,5.71,6.22,6.58,1.49,1.45,1.44
48.01,-4.11,-5.55,-4.18,-5.62,5.62,6.13,6.43,1.51,1.44,1.44
48.49,-4.11,-5.53,-4.11,-5.54,5.54,6.04,6.27,1.44,1.43,1.43
48.97,-4.11,-5.52,-4.03,-5.46,5.46,5.96,6.13,1.35,1.43,1.42
49.46,-4.00,-5.40,-3.94,-5.36,5.36,5.87,5.98,1.36,1.42,1.40
49.96,-3.89,-5.29,-3.85,-5.26,5.26,5.78,5.84,1.37,1.41,1.40
50.46,-3.78,-5.18,-3.76,-5.17,5.17,5.70,5.71,1.39,1.41,1.40
50.96,-3.67,-5.08,-3.68,-5.08,5.08,5.62,5.57,1.41,1.39,1.41
51.47,-3.61,-5.00,-3.61,-4.99,4.99,5.53,5.44,1.38,1.38,1.39
51.99,-3.56,-4.93,-3.53,-4.90,4.90,5.45,5.32,1.34,1.36,1.38
52.51,-3.49,-4.85,-3.47,-4.81,4.81,5.37,5.20,1.32,1.34,1.36
53.03,-3.42,-4.75,-3.41,-4.72,4.72,5.29,5.08,1.30,1.31,1.33
53.56,-3.30,-4.59,-3.35,-4.63,4.63,5.21,4.96,1.33,1.28,1.30
54.10,-3.20,-4.45,-3.29,-4.53,4.53,5.13,4.85,1.34,1.24,1.25
54.64,-3.20,-4.40,-3.25,-4.45,4.45,5.06,4.74,1.25,1.20,1.20
55.18,-3.20,-4.35,-3.22,-4.37,4.37,4.98,4.63,1.17,1.15,1.15
55.74,-3.20,-4.29,-3.19,-4.28,4.28,4.90,4.53,1.09,1.10,1.09
56.29,-3.20,-4.23,-3.17,-4.21,4.21,4.83,4.43,1.01,1.04,1.04
56.86,-3.20,-4.17,-3.16,-4.13,4.13,4.75,4.33,0.94,0.98,0.98
57.42,-3.20,-4.10,-3.14,-4.06,4.06,4.68,4.23,0.86,0.91,0.90
58.00,-3.20,-4.04,-3.14,-3.99,3.99,4.61,4.14,0.79,0.85,0.84
58.58,-3.20,-3.97,-3.16,-3.94,3.94,4.53,4.05,0.74,0.78,0.78
59.16,-3.20,-3.92,-3.19,-3.91,3.91,4.46,3.97,0.71,0.72,0.72
59.76,-3.20,-3.86,-3.23,-3.88,3.88,4.39,3.89,0.68,0.65,0.66
60.35,-3.20,-3.78,-3.26,-3.85,3.85,4.32,3.81,0.65,0.58,0.58
60.96,-3.20,-3.72,-3.30,-3.82,3.82,4.25,3.73,0.62,0.52,0.53
61.57,-3.33,-3.77,-3.34,-3.80,3.80,4.19,3.65,0.47,0.46,0.45
62.18,-3.43,-3.81,-3.40,-3.80,3.80,4.12,3.58,0.37,0.39,0.38
62.80,-3.43,-3.76,-3.47,-3.81,3.81,4.05,3.51,0.38,0.34,0.33
63.43,-3.57,-3.84,-3.56,-3.83,3.83,3.99,3.45,0.27,0.28,0.27
64.07,-3.76,-3.98,-3.65,-3.88,3.88,3.92,3.38,0.12,0.22,0.22
64.71,-3.84,-4.00,-3.77,-3.94,3.94,3.86,3.32,0.10,0.17,0.17
65.35,-3.88,-3.99,-3.89,-4.02,4.02,3.79,3.27,0.14,0.12,0.12
66.01,-3.88,-3.95,-4.03,-4.11,4.11,3.73,3.21,0.23,0.08,0.07
66.67,-4.03,-4.05,-4.18,-4.22,4.22,3.67,3.16,0.19,0.03,0.03
67.33,-4.22,-4.21,-4.33,-4.33,4.33,3.61,3.11,0.11,-0.01,-0.01
68.01,-4.44,-4.39,-4.47,-4.42,4.42,3.55,3.06,-0.02,-0.05,-0.04
68.69,-4.54,-4.45,-4.58,-4.49,4.49,3.49,3.01,-0.04,-0.08,-0.08
69.37,-4.67,-4.55,-4.67,-4.55,4.55,3.43,2.97,-0.12,-0.12,-0.12
70.07,-4.82,-4.66,-4.74,-4.58,4.58,3.37,2.93,-0.23,-0.16,-0.16
70.77,-4.97,-4.79,-4.78,-4.59,4.59,3.31,2.89,-0.37,-0.19,-0.18
71.48,-5.02,-4.80,-4.81,-4.58,4.58,3.25,2.85,-0.44,-0.23,-0.22
72.19,-5.02,-4.76,-4.81,-4.55,4.55,3.20,2.81,-0.47,-0.27,-0.25
72.91,-5.02,-4.72,-4.79,-4.49,4.49,3.14,2.78,-0.52,-0.30,-0.30
73.64,-4.85,-4.51,-4.74,-4.40,4.40,3.09,2.75,-0.44,-0.34,-0.33
74.38,-4.62,-4.25,-4.65,-4.28,4.28,3.03,2.72,-0.34,-0.37,-0.37
75.12,-4.39,-3.97,-4.55,-4.14,4.14,2.98,2.69,-0.25,-0.41,-0.41
75.87,-4.30,-3.85,-4.42,-3.97,3.97,2.93,2.66,-0.32,-0.45,-0.45
76.63,-4.17,-3.68,-4.28,-3.80,3.80,2.87,2.64,-0.36,-0.48,-0.49
77.40,-4.09,-3.57,-4.13,-3.62,3.62,2.82,2.62,-0.47,-0.51,-0.52
78.17,-4.02,-3.46,-3.98,-3.44,3.44,2.77,2.59,-0.58,-0.55,-0.56
78.95,-3.89,-3.31,-3.84,-3.27,3.27,2.72,2.58,-0.62,-0.57,-0.58
79.74,-3.72,-3.12,-3.71,-3.11,3.11,2.67,2.56,-0.61,-0.60,-0.60
80.54,-3.58,-2.94,-3.60,-2.97,2.97,2.63,2.54,-0.60,-0.62,-0.63
81.35,-3.48,-2.82,-3.50,-2.86,2.86,2.58,2.53,-0.62,-0.64,-0.66
82.16,-3.41,-2.74,-3.43,-2.76,2.76,2.53,2.51,-0.64,-0.66,-0.67
82.98,-3.33,-2.65,-3.36,-2.68,2.68,2.49,2.50,-0.64,-0.68,-0.68
83.81,-3.22,-2.52,-3.30,-2.61,2.61,2.44,2.49,-0.61,-0.69,-0.69
84.65,-3.20,-2.49,-3.24,-2.54,2.54,2.40,2.48,-0.65,-0.70,-0.71
85.50,-3.20,-2.49,-3.20,-2.50,2.50,2.35,2.47,-0.70,-0.71,-0.71
86.35,-3.20,-2.48,-3.18,-2.46,2.46,2.31,2.47,-0.73,-0.72,-0.72
87.22,-3.20,-2.47,-3.16,-2.44,2.44,2.27,2.46,-0.76,-0.72,-0.73
88.09,-3.20,-2.46,-3.16,-2.43,2.43,2.23,2.46,-0.77,-0.73,-0.74
88.97,-3.20,-2.47,-3.16,-2.42,2.42,2.19,2.46,-0.77,-0.74,-0.73
89.86,-3.20,-2.46,-3.17,-2.42,2.42,2.15,2.45,-0.78,-0.75,-0.74
90.76,-3.20,-2.43,-3.19,-2.43,2.43,2.11,2.46,-0.77,-0.76,-0.76
91.66,-3.20,-2.43,-3.23,-2.45,2.45,2.07,2.46,-0.75,-0.78,-0.77
92.58,-3.28,-2.48,-3.28,-2.49,2.49,2.03,2.46,-0.79,-0.79,-0.80
93.51,-3.39,-2.58,-3.35,-2.54,2.54,1.99,2.46,-0.85,-0.81,-0.80
94.44,-3.43,-2.60,-3.43,-2.59,2.59,1.96,2.47,-0.84,-0.84,-0.83
95.39,-3.43,-2.57,-3.51,-2.65,2.65,1.92,2.48,-0.78,-0.86,-0.85
96.34,-3.46,-2.56,-3.60,-2.71,2.71,1.89,2.48,-0.74,-0.89,-0.90
97.30,-3.57,-2.64,-3.70,-2.78,2.78,1.86,2.49,-0.79,-0.92,-0.93
98.28,-3.71,-2.74,-3.80,-2.85,2.85,1.82,2.50,-0.86,-0.96,-0.96
99.26,-3.91,-2.91,-3.90,-2.90,2.90,1.79,2.51,-1.00,-0.99,-1.00
100.25,-4.12,-3.08,-3.99,-2.95,2.95,1.76,2.52,-1.16,-1.04,-1.04
101.25,-4.19,-3.10,-4.08,-2.99,2.99,1.73,2.54,-1.19,-1.08,-1.08
102.27,-4.34,-3.20,-4.15,-3.02,3.02,1.71,2.55,-1.32,-1.13,-1.13
103.29,-4.34,-3.15,-4.22,-3.03,3.03,1.68,2.56,-1.31,-1.19,-1.19
104.32,-4.34,-3.10,-4.27,-3.03,3.03,1.65,2.57,-1.31,-1.25,-1.24
105.37,-4.34,-3.04,-4.32,-3.01,3.01,1.63,2.59,-1.33,-1.31,-1.29
106.42,-4.34,-2.97,-4.36,-2.98,2.98,1.60,2.60,-1.36,-1.38,-1.36
107.48,-4.34,-2.90,-4.38,-2.93,2.93,1.58,2.61,-1.41,-1.45,-1.44
108.56,-4.34,-2.81,-4.38,-2.86,2.86,1.56,2.63,-1.48,-1.53,-1.53
109.64,-4.34,-2.73,-4.37,-2.76,2.76,1.54,2.64,-1.57,-1.61,-1.60
110.74,-4.34,-2.65,-4.35,-2.66,2.66,1.52,2.65,-1.67,-1.69,-1.68
111.85,-4.34,-2.58,-4.33,-2.56,2.56,1.50,2.66,-1.77,-1.77,-1.76
112.97,-4.34,-2.48,-4.33,-2.48,2.48,1.48,2.67,-1.86,-1.85,-1.86
114.10,-4.34,-2.40,-4.33,-2.39,2.39,1.46,2.68,-1.94,-1.93,-1.93
115.24,-4.34,-2.32,-4.34,-2.33,2.33,1.45,2.68,-2.01,-2.01,-2.02
116.39,-4.34,-2.23,-4.35,-2.26,2.26,1.44,2.69,-2.07,-2.09,-2.10
117.55,-4.34,-2.16,-4.37,-2.21,2.21,1.42,2.69,-2.13,-2.16,-2.18
118.73,-4.34,-2.08,-4.39,-2.16,2.16,1.41,2.69,-2.18,-2.23,-2.26
119.92,-4.34,-2.03,-4.40,-2.11,2.11,1.40,2.69,-2.23,-2.30,-2.31
121.12,-4.35,-1.97,-4.42,-2.06,2.06,1.39,2.69,-2.28,-2.35,-2.37
122.33,-4.49,-2.06,-4.44,-2.03,2.03,1.39,2.68,-2.46,-2.41,-2.43
123.55,-4.57,-2.11,-4.46,-2.00,2.00,1.38,2.68,-2.57,-2.46,-2.46
124.79,-4.57,-2.05,-4.49,-1.98,1.98,1.38,2.67,-2.59,-2.51,-2.51
126.03,-4.57,-2.01,-4.52,-1.96,1.96,1.38,2.65,-2.60,-2.56,-2.55
127.29,-4.57,-1.97,-4.55,-1.95,1.95,1.38,2.64,-2.62,-2.60,-2.59
128.57,-4.57,-1.92,-4.57,-1.93,1.93,1.38,2.62,-2.64,-2.65,-2.64
129.85,-4.57,-1.88,-4.60,-1.92,1.92,1.38,2.60,-2.65,-2.69,-2.68
131.15,-4.57,-1.85,-4.64,-1.91,1.91,1.38,2.58,-2.66,-2.73,-2.72
132.46,-4.57,-1.80,-4.67,-1.90,1.90,1.39,2.55,-2.67,-2.77,-2.77
133.79,-4.71,-1.90,-4.69,-1.88,1.88,1.40,2.53,-2.83,-2.81,-2.81
135.12,-4.80,-1.94,-4.72,-1.86,1.86,1.41,2.50,-2.93,-2.85,-2.86
136.48,-4.80,-1.90,-4.74,-1.85,1.85,1.42,2.47,-2.95,-2.90,-2.90
137.84,-4.80,-1.86,-4.78,-1.84,1.84,1.43,2.44,-2.96,-2.94,-2.94
139.22,-4.80,-1.79,-4.82,-1.84,1.84,1.45,2.40,-2.96,-2.99,-3.00
140.61,-4.80,-1.74,-4.86,-1.83,1.83,1.46,2.37,-2.97,-3.03,-3.05
142.02,-4.91,-1.82,-4.91,-1.82,1.82,1.48,2.34,-3.08,-3.08,-3.09
143.44,-4.99,-1.85,-4.95,-1.82,1.82,1.50,2.30,-3.17,-3.14,-3.14
144.87,-5.02,-1.83,-4.99,-1.79,1.79,1.53,2.26,-3.22,-3.20,-3.19
146.32,-5.02,-1.77,-5.02,-1.76,1.76,1.55,2.23,-3.25,-3.26,-3.24
147.78,-5.07,-1.77,-5.06,-1.73,1.73,1.58,2.19,-3.33,-3.33,-3.29
149.26,-5.19,-1.82,-5.10,-1.70,1.70,1.61,2.15,-3.49,-3.40,-3.37
150.75,-5.25,-1.79,-5.16,-1.69,1.69,1.64,2.12,-3.56,-3.47,-3.45
152.26,-5.25,-1.72,-5.24,-1.69,1.69,1.67,2.08,-3.56,-3.55,-3.53
153.78,-5.25,-1.64,-5.34,-1.71,1.71,1.70,2.04,-3.53,-3.63,-3.61
155.32,-5.30,-1.58,-5.44,-1.74,1.74,1.74,2.01,-3.56,-3.71,-3.71
156.88,-5.46,-1.66,-5.55,-1.76,1.76,1.78,1.97,-3.69,-3.79,-3.79
158.44,-5.48,-1.60,-5.64,-1.78,1.78,1.82,1.94,-3.69,-3.86,-3.88
160.03,-5.54,-1.58,-5.74,-1.81,1.81,1.86,1.91,-3.73,-3.93,-3.96
161.63,-5.81,-1.78,-5.83,-1.83,1.83,1.90,1.87,-3.97,-4.00,-4.02
163.24,-6.05,-1.97,-5.91,-1.86,1.86,1.94,1.84,-4.19,-4.06,-4.08
164.88,-6.16,-2.03,-5.99,-1.88,1.88,1.99,1.81,-4.28,-4.11,-4.13
166.53,-6.34,-2.16,-6.05,-1.90,1.90,2.03,1.78,-4.43,-4.15,-4.17
168.19,-6.39,-2.18,-6.12,-1.94,1.94,2.08,1.75,-4.45,-4.18,-4.21
169.87,-6.34,-2.10,-6.18,-1.97,1.97,2.13,1.73,-4.36,-4.21,-4.23
171.57,-6.20,-1.95,-6.23,-2.00,2.00,2.17,1.70,-4.19,-4.23,-4.25
173.29,-6.16,-1.91,-6.26,-2.02,2.02,2.22,1.68,-4.14,-4.24,-4.25
175.02,-6.16,-1.92,-6.28,-2.03,2.03,2.26,1.65,-4.13,-4.25,-4.24
176.77,-6.16,-1.91,-6.30,-2.04,2.04,2.31,1.63,-4.12,-4.26,-4.25
178.54,-6.16,-1.91,-6.30,-2.04,2.04,2.35,1.61,-4.11,-4.26,-4.25
180.32,-6.24,-1.99,-6.30,-2.03,2.03,2.39,1.59,-4.21,-4.27,-4.25
182.13,-6.34,-2.09,-6.30,-2.02,2.02,2.43,1.57,-4.31,-4.27,-4.24
183.95,-6.39,-2.13,-6.31,-2.03,2.03,2.47,1.55,-4.35,-4.28,-4.25
185.79,-6.39,-2.12,-6.34,-2.05,2.05,2.50,1.54,-4.34,-4.29,-4.27
187.65,-6.39,-2.09,-6.38,-2.08,2.08,2.53,1.52,-4.30,-4.30,-4.29
189.52,-6.39,-2.07,-6.44,-2.12,2.12,2.55,1.51,-4.26,-4.32,-4.32
191.42,-6.45,-2.10,-6.50,-2.16,2.16,2.57,1.49,-4.28,-4.34,-4.34
193.33,-6.57,-2.20,-6.55,-2.20,2.20,2.58,1.48,-4.37,-4.36,-4.36
195.27,-6.62,-2.24,-6.60,-2.22,2.22,2.59,1.47,-4.39,-4.38,-4.38
197.22,-6.62,-2.22,-6.64,-2.24,2.24,2.60,1.46,-4.37,-4.40,-4.40
199.19,-6.63,-2.19,-6.68,-2.25,2.25,2.59,1.45,-4.37,-4.42,-4.44
201.18,-6.76,-2.31,-6.70,-2.26,2.26,2.58,1.44,-4.50,-4.45,-4.45
203.19,-6.85,-2.38,-6.74,-2.26,2.26,2.56,1.43,-4.58,-4.47,-4.47
205.23,-6.85,-2.35,-6.77,-2.28,2.28,2.54,1.42,-4.57,-4.49,-4.50
207.28,-6.85,-2.34,-6.81,-2.30,2.30,2.50,1.41,-4.55,-4.51,-4.51
209.35,-6.85,-2.31,-6.85,-2.31,2.31,2.46,1.40,-4.53,-4.53,-4.53
211.44,-6.85,-2.28,-6.89,-2.34,2.34,2.42,1.39,-4.51,-4.55,-4.56
213.56,-6.85,-2.28,-6.92,-2.35,2.35,2.36,1.38,-4.49,-4.57,-4.57
215.69,-6.85,-2.27,-6.94,-2.36,2.36,2.30,1.37,-4.49,-4.59,-4.57
217.85,-6.85,-2.25,-6.96,-2.36,2.36,2.23,1.36,-4.49,-4.60,-4.60
220.03,-6.94,-2.32,-6.98,-2.36,2.36,2.16,1.35,-4.58,-4.62,-4.62
222.23,-7.04,-2.40,-6.98,-2.35,2.35,2.07,1.34,-4.68,-4.63,-4.64
224.45,-7.08,-2.43,-6.99,-2.35,2.35,1.99,1.33,-4.73,-4.64,-4.64
226.70,-7.08,-2.43,-7.00,-2.35,2.35,1.89,1.31,-4.73,-4.65,-4.65
228.96,-7.08,-2.42,-7.01,-2.35,2.35,1.79,1.30,-4.73,-4.66,-4.66
231.25,-7.08,-2.41,-7.01,-2.34,2.34,1.69,1.28,-4.74,-4.67,-4.66
233.57,-7.04,-2.36,-7.00,-2.32,2.32,1.59,1.26,-4.71,-4.67,-4.68
235.90,-6.86,-2.17,-6.98,-2.30,2.30,1.48,1.24,-4.56,-4.68,-4.69
238.26,-6.85,-2.16,-6.95,-2.27,2.27,1.36,1.21,-4.57,-4.68,-4.69
240.64,-6.85,-2.16,-6.91,-2.23,2.23,1.25,1.18,-4.62,-4.68,-4.69
243.05,-6.85,-2.17,-6.86,-2.18,2.18,1.13,1.16,-4.67,-4.68,-4.68
245.48,-6.85,-2.17,-6.80,-2.12,2.12,1.01,1.12,-4.72,-4.68,-4.68
247.93,-6.85,-2.18,-6.74,-2.06,2.06,0.89,1.09,-4.79,-4.68,-4.67
250.41,-6.66,-1.98,-6.66,-1.98,1.98,0.77,1.05,-4.67,-4.67,-4.68
252.92,-6.57,-1.90,-6.57,-1.90,1.90,0.65,1.01,-4.67,-4.67,-4.67
255.45,-6.42,-1.77,-6.47,-1.81,1.81,0.53,0.97,-4.61,-4.66,-4.65
258.00,-6.39,-1.74,-6.37,-1.71,1.71,0.41,0.92,-4.67,-4.65,-4.65
260.58,-6.25,-1.60,-6.25,-1.60,1.60,0.29,0.87,-4.64,-4.64,-4.64
263.19,-6.16,-1.52,-6.12,-1.49,1.49,0.17,0.82,-4.67,-4.63,-4.63
265.82,-5.96,-1.33,-5.96,-1.34,1.34,0.05,0.76,-4.61,-4.62,-4.63
268.48,-5.88,-1.27,-5.78,-1.18,1.18,-0.07,0.71,-4.70,-4.60,-4.61
271.16,-5.66,-1.06,-5.60,-1.01,1.01,-0.19,0.65,-4.64,-4.59,-4.59
273.87,-5.40,-0.82,-5.41,-0.84,0.84,-0.31,0.58,-4.56,-4.57,-4.58
276.61,-5.14,-0.59,-5.20,-0.65,0.65,-0.43,0.52,-4.48,-4.55,-4.55
279.38,-5.04,-0.50,-4.99,-0.46,0.46,-0.54,0.45,-4.58,-4.53,-4.53
282.17,-4.83,-0.32,-4.77,-0.26,0.26,-0.66,0.38,-4.56,-4.51,-4.51
284.99,-4.58,-0.09,-4.56,-0.08,0.08,-0.77,0.31,-4.50,-4.48,-4.49
287.84,-4.33,0.13,-4.34,0.12,-0.12,-0.88,0.24,-4.44,-4.45,-4.46
290.72,-4.12,0.31,-4.12,0.30,-0.30,-1.00,0.16,-4.42,-4.43,-4.43
293.63,-3.80,0.61,-3.92,0.48,-0.48,-1.11,0.08,-4.28,-4.40,-4.40
296.57,-3.67,0.71,-3.72,0.65,-0.65,-1.22,0.00,-4.32,-4.38,-4.38
299.53,-3.49,0.87,-3.53,0.82,-0.82,-1.33,-0.08,-4.31,-4.35,-4.35
302.53,-3.23,1.11,-3.35,0.98,-0.98,-1.44,-0.16,-4.20,-4.33,-4.34
305.55,-3.00,1.30,-3.16,1.15,-1.15,-1.55,-0.24,-4.15,-4.31,-4.30
308.61,-2.97,1.32,-2.96,1.33,-1.33,-1.66,-0.33,-4.30,-4.30,-4.28
311.69,-2.93,1.34,-2.75,1.53,-1.53,-1.77,-0.41,-4.46,-4.28,-4.27
314.81,-2.67,1.58,-2.54,1.73,-1.73,-1.88,-0.50,-4.39,-4.27,-4.24
317.96,-2.38,1.87,-2.33,1.93,-1.93,-1.99,-0.59,-4.30,-4.26,-4.25
321.14,-2.28,1.97,-2.12,2.13,-2.13,-2.11,-0.68,-4.40,-4.25,-4.25
324.35,-2.08,2.17,-1.91,2.33,-2.33,-2.23,-0.77,-4.41,-4.24,-4.24
327.59,-1.81,2.43,-1.70,2.53,-2.53,-2.35,-0.86,-4.34,-4.23,-4.24
330.87,-1.48,2.75,-1.47,2.75,-2.75,-2.47,-0.96,-4.22,-4.22,-4.23
334.18,-1.13,3.10,-1.26,2.95,-2.95,-2.60,-1.05,-4.08,-4.21,-4.22
337.52,-0.81,3.41,-1.04,3.16,-3.16,-2.73,-1.15,-3.97,-4.20,-4.22
340.90,-0.71,3.48,-0.82,3.37,-3.37,-2.87,-1.25,-4.07,-4.19,-4.19
344.30,-0.52,3.67,-0.61,3.57,-3.57,-3.02,-1.35,-4.08,-4.17,-4.18
347.75,-0.41,3.76,-0.40,3.75,-3.75,-3.17,-1.45,-4.16,-4.16,-4.17
351.23,-0.28,3.86,-0.22,3.92,-3.92,-3.34,-1.55,-4.19,-4.14,-4.14
354.74,-0.14,3.98,-0.05,4.07,-4.07,-3.51,-1.65,-4.21,-4.12,-4.12
358.28,0.08,4.18,0.12,4.21,-4.21,-3.68,-1.75,-4.13,-4.09,-4.09
361.87,0.19,4.27,0.26,4.33,-4.33,-3.87,-1.86,-4.14,-4.07,-4.08
365.49,0.38,4.43,0.38,4.43,-4.43,-4.06,-1.97,-4.04,-4.05,-4.05
369.14,0.46,4.49,0.48,4.51,-4.51,-4.26,-2.07,-4.04,-4.03,-4.03
372.83,0.61,4.62,0.57,4.57,-4.57,-4.45,-2.18,-3.96,-4.01,-4.00
376.56,0.67,4.66,0.65,4.64,-4.64,-4.64,-2.29,-3.97,-3.99,-3.98
380.33,0.77,4.73,0.73,4.70,-4.70,-4.81,-2.40,-3.93,-3.97,-3.96
384.13,0.88,4.82,0.80,4.75,-4.75,-4.95,-2.51,-3.86,-3.95,-3.94
387.97,0.90,4.83,0.85,4.78,-4.78,-5.06,-2.63,-3.88,-3.93,-3.93
391.85,0.90,4.82,0.89,4.81,-4.81,-5.13,-2.74,-3.91,-3.92,-3.92
395.77,0.90,4.82,0.93,4.84,-4.84,-5.15,-2.85,-3.93,-3.91,-3.91
399.73,0.90,4.81,0.94,4.84,-4.84,-5.14,-2.97,-3.94,-3.90,-3.90
403.72,0.90,4.80,0.95,4.84,-4.84,-5.09,-3.08,-3.94,-3.89,-3.90
407.76,0.90,4.79,0.94,4.83,-4.83,-5.01,-3.20,-3.93,-3.89,-3.89
411.84,0.90,4.78,0.93,4.82,-4.82,-4.91,-3.31,-3.91,-3.88,-3.88
415.96,0.90,4.77,0.91,4.79,-4.79,-4.81,-3.43,-3.89,-3.88,-3.87
420.12,0.90,4.77,0.89,4.77,-4.77,-4.70,-3.54,-3.86,-3.88,-3.87
424.32,0.90,4.78,0.87,4.75,-4.75,-4.59,-3.65,-3.84,-3.87,-3.87
428.56,0.90,4.78,0.85,4.72,-4.72,-4.49,-3.76,-3.82,-3.87,-3.87
432.85,0.90,4.78,0.83,4.70,-4.70,-4.40,-3.87,-3.80,-3.87,-3.87
437.18,0.80,4.67,0.81,4.67,-4.67,-4.32,-3.97,-3.87,-3.86,-3.87
441.55,0.70,4.56,0.78,4.64,-4.64,-4.24,-4.08,-3.94,-3.86,-3.86
445.96,0.67,4.53,0.76,4.61,-4.61,-4.18,-4.18,-3.94,-3.85,-3.86
