frequency,raw,error,smoothed,error_smoothed,equalization,parametric_eq,fixed_band_eq,equalized_raw,equalized_smoothed,target
20.00,-2.65,-5.42,-2.59,-5.39,5.39,4.11,0.90,2.74,2.80,2.77
20.20,-2.48,-5.30,-2.46,-5.30,5.30,4.20,0.93,2.82,2.84,2.82
20.40,-2.32,-5.19,-2.33,-5.21,5.21,4.29,0.96,2.89,2.87,2.87
20.61,-2.15,-5.05,-2.20,-5.11,5.11,4.38,0.99,2.96,2.91,2.90
20.81,-1.99,-4.94,-2.08,-5.02,5.02,4.45,1.02,3.03,2.94,2.95
21.02,-1.84,-4.83,-1.96,-4.92,4.92,4.51,1.05,3.08,2.97,2.99
21.23,-1.79,-4.80,-1.83,-4.82,4.82,4.56,1.09,3.04,2.99,3.01
21.44,-1.75,-4.78,-1.71,-4.73,4.73,4.60,1.12,2.98,3.01,3.03
21.66,-1.70,-4.75,-1.60,-4.63,4.63,4.62,1.16,2.93,3.04,3.05
21.87,-1.66,-4.72,-1.48,-4.53,4.53,4.63,1.20,2.88,3.05,3.06
22.09,-1.55,-4.63,-1.36,-4.43,4.43,4.62,1.24,2.89,3.07,3.08
22.31,-1.33,-4.43,-1.25,-4.33,4.33,4.60,1.28,3.00,3.08,3.09
22.54,-1.14,-4.23,-1.14,-4.23,4.23,4.57,1.32,3.09,3.09,3.09
22.76,-0.94,-4.03,-1.03,-4.12,4.12,4.52,1.36,3.19,3.09,3.09
22.99,-0.74,-3.82,-0.92,-4.01,4.01,4.46,1.41,3.27,3.09,3.08
23.22,-0.69,-3.77,-0.80,-3.89,3.89,4.39,1.45,3.21,3.09,3.08
23.45,-0.65,-3.73,-0.69,-3.78,3.78,4.30,1.50,3.13,3.09,3.08
23.69,-0.61,-3.70,-0.58,-3.67,3.67,4.21,1.54,3.06,3.10,3.09
23.92,-0.57,-3.66,-0.48,-3.57,3.57,4.11,1.59,3.01,3.09,3.09
24.16,-0.48,-3.57,-0.40,-3.49,3.49,4.00,1.64,3.01,3.09,3.09
24.40,-0.36,-3.46,-0.33,-3.42,3.42,3.88,1.69,3.07,3.09,3.10
24.65,-0.24,-3.33,-0.28,-3.37,3.37,3.76,1.73,3.13,3.09,3.09
24.89,-0.12,-3.21,-0.24,-3.34,3.34,3.64,1.78,3.22,3.09,3.09
25.14,-0.08,-3.17,-0.21,-3.30,3.30,3.52,1.83,3.23,3.09,3.09
25.39,-0.10,-3.20,-0.17,-3.27,3.27,3.39,1.88,3.17,3.10,3.10
25.65,-0.12,-3.22,-0.13,-3.22,3.22,3.26,1.93,3.10,3.10,3.10
25.91,-0.14,-3.23,-0.07,-3.16,3.16,3.14,1.98,3.03,3.10,3.09
26.16,-0.11,-3.20,-0.01,-3.11,3.11,3.01,2.03,3.00,3.09,3.09
26.43,-0.06,-3.15,0.04,-3.05,3.05,2.89,2.08,3.00,3.09,3.09
26.69,0.00,-3.09,0.09,-3.00,3.00,2.77,2.12,3.01,3.09,3.09
26.96,0.06,-3.03,0.14,-2.95,2.95,2.65,2.17,3.01,3.09,3.09
27.23,0.18,-2.91,0.20,-2.89,2.89,2.54,2.21,3.07,3.09,3.09
27.50,0.30,-2.79,0.27,-2.82,2.82,2.43,2.25,3.12,3.09,3.09
27.77,0.43,-2.65,0.35,-2.73,2.73,2.32,2.29,3.17,3.08,3.08
28.05,0.54,-2.54,0.45,-2.63,2.63,2.22,2.33,3.18,3.08,3.08
28.33,0.58,-2.49,0.55,-2.53,2.53,2.11,2.36,3.11,3.08,3.07
28.62,0.63,-2.44,0.66,-2.42,2.42,2.02,2.39,3.05,3.08,3.07
28.90,0.67,-2.41,0.78,-2.30,2.30,1.92,2.42,2.97,3.08,3.08
29.19,0.80,-2.27,0.90,-2.18,2.18,1.83,2.44,2.98,3.08,3.07
29.48,0.96,-2.12,1.01,-2.06,2.06,1.74,2.46,3.03,3.08,3.08
29.78,1.12,-1.95,1.11,-1.96,1.96,1.66,2.47,3.08,3.07,3.07
30.08,1.26,-1.82,1.20,-1.87,1.87,1.57,2.48,3.13,3.07,3.08
30.38,1.35,-1.72,1.28,-1.79,1.79,1.49,2.48,3.14,3.07,3.07
30.68,1.43,-1.64,1.36,-1.71,1.71,1.42,2.48,3.14,3.07,3.07
30.99,1.52,-1.55,1.45,-1.62,1.62,1.35,2.48,3.14,3.07,3.07
31.30,1.60,-1.46,1.54,-1.53,1.53,1.28,2.46,3.13,3.07,3.06
31.61,1.69,-1.37,1.63,-1.43,1.43,1.21,2.45,3.12,3.06,3.06
31.93,1.77,-1.29,1.72,-1.34,1.34,1.14,2.42,3.11,3.06,3.06
32.24,1.77,-1.28,1.80,-1.26,1.26,1.08,2.39,3.03,3.06,3.05
32.57,1.75,-1.30,1.88,-1.17,1.17,1.02,2.36,2.93,3.05,3.05
32.89,1.73,-1.32,1.96,-1.09,1.09,0.96,2.32,2.82,3.05,3.05
33.22,1.87,-1.17,2.04,-1.00,1.00,0.90,2.28,2.87,3.04,3.04
33.55,2.09,-0.95,2.13,-0.91,0.91,0.85,2.23,3.01,3.04,3.04
33.89,2.32,-0.71,2.21,-0.82,0.82,0.80,2.17,3.14,3.03,3.03
34.23,2.41,-0.62,2.29,-0.74,0.74,0.74,2.12,3.15,3.03,3.03
34.57,2.43,-0.59,2.36,-0.66,0.66,0.70,2.05,3.09,3.02,3.02
34.92,2.45,-0.57,2.43,-0.59,0.59,0.65,1.99,3.04,3.02,3.02
35.27,2.55,-0.46,2.51,-0.50,0.50,0.60,1.92,3.06,3.02,3.01
35.62,2.66,-0.35,2.60,-0.41,0.41,0.56,1.85,3.08,3.01,3.01
35.97,2.77,-0.24,2.69,-0.32,0.32,0.51,1.78,3.09,3.01,3.01
36.33,2.77,-0.24,2.77,-0.24,0.24,0.47,1.70,3.01,3.01,3.01
36.70,2.76,-0.24,2.84,-0.17,0.17,0.43,1.62,2.94,3.01,3.00
37.06,2.76,-0.24,2.89,-0.12,0.12,0.39,1.54,2.89,3.01,3.00
37.43,2.83,-0.18,2.93,-0.08,0.08,0.35,1.46,2.91,3.01,3.01
37.81,2.90,-0.11,2.98,-0.03,0.03,0.31,1.38,2.93,3.01,3.01
38.19,3.02,0.02,3.03,0.02,-0.02,0.27,1.29,3.00,3.01,3.00
38.57,3.18,0.17,3.09,0.08,-0.08,0.24,1.21,3.11,3.01,3.01
38.95,3.34,0.32,3.15,0.14,-0.14,0.20,1.12,3.20,3.01,3.02
39.34,3.31,0.30,3.22,0.21,-0.21,0.17,1.04,3.10,3.01,3.01
39.74,3.26,0.25,3.29,0.28,-0.28,0.13,0.95,2.99,3.01,3.01
40.14,3.25,0.24,3.36,0.35,-0.35,0.10,0.86,2.91,3.01,3.01
40.54,3.33,0.32,3.43,0.42,-0.42,0.07,0.77,2.91,3.01,3.01
40.94,3.42,0.42,3.51,0.50,-0.50,0.03,0.69,2.92,3.01,3.00
41.35,3.50,0.50,3.57,0.57,-0.57,0.00,0.60,2.93,3.00,3.00
41.76,3.58,0.59,3.62,0.63,-0.63,-0.03,0.51,2.95,2.99,2.99
42.18,3.68,0.69,3.67,0.68,-0.68,-0.06,0.42,3.00,2.98,2.99
42.60,3.82,0.84,3.70,0.73,-0.73,-0.09,0.34,3.10,2.97,2.98
43.03,3.95,0.98,3.74,0.78,-0.78,-0.12,0.25,3.17,2.96,2.97
43.46,3.88,0.92,3.79,0.84,-0.84,-0.15,0.16,3.05,2.95,2.96
43.90,3.82,0.88,3.84,0.90,-0.90,-0.18,0.07,2.92,2.94,2.94
44.33,3.85,0.93,3.90,0.97,-0.97,-0.21,-0.02,2.88,2.93,2.92
44.78,3.92,1.02,3.95,1.03,-1.03,-0.24,-0.10,2.89,2.91,2.90
45.23,3.93,1.04,3.98,1.08,-1.08,-0.27,-0.19,2.85,2.90,2.89
45.68,3.90,1.02,4.01,1.12,-1.12,-0.30,-0.28,2.78,2.89,2.88
46.13,3.90,1.04,4.04,1.17,-1.17,-0.33,-0.36,2.74,2.87,2.86
46.60,4.02,1.16,4.07,1.21,-1.21,-0.36,-0.45,2.81,2.86,2.86
47.06,4.13,1.29,4.09,1.25,-1.25,-0.39,-0.54,2.88,2.84,2.84
47.53,4.19,1.36,4.12,1.29,-1.29,-0.42,-0.62,2.90,2.83,2.83
48.01,4.26,1.43,4.16,1.34,-1.34,-0.45,-0.71,2.92,2.81,2.83
48.49,4.26,1.45,4.20,1.40,-1.40,-0.48,-0.80,2.87,2.80,2.81
48.97,4.26,1.47,4.23,1.45,-1.45,-0.51,-0.88,2.82,2.79,2.79
49.46,4.23,1.46,4.26,1.49,-1.49,-0.53,-0.97,2.74,2.77,2.77
49.96,4.20,1.45,4.29,1.53,-1.53,-0.56,-1.06,2.67,2.76,2.75
50.46,4.27,1.53,4.31,1.57,-1.57,-0.59,-1.14,2.71,2.75,2.74
50.96,4.35,1.62,4.33,1.60,-1.60,-0.62,-1.22,2.75,2.73,2.73
51.47,4.36,1.65,4.34,1.62,-1.62,-0.65,-1.31,2.74,2.72,2.71
51.99,4.36,1.66,4.35,1.64,-1.64,-0.68,-1.39,2.72,2.71,2.70
52.51,4.36,1.67,4.35,1.65,-1.65,-0.71,-1.48,2.71,2.70,2.69
53.03,4.36,1.67,4.35,1.67,-1.67,-0.74,-1.56,2.69,2.68,2.69
53.56,4.36,1.69,4.36,1.69,-1.69,-0.77,-1.64,2.68,2.67,2.67
54.10,4.36,1.70,4.36,1.70,-1.70,-0.80,-1.72,2.66,2.66,2.66
54.64,4.36,1.72,4.37,1.72,-1.72,-0.84,-1.79,2.64,2.65,2.64
55.18,4.36,1.72,4.37,1.74,-1.74,-0.87,-1.87,2.63,2.64,2.64
55.74,4.36,1.74,4.38,1.75,-1.75,-0.90,-1.95,2.61,2.63,2.62
56.29,4.36,1.75,4.38,1.76,-1.76,-0.93,-2.02,2.60,2.62,2.61
56.86,4.36,1.76,4.38,1.78,-1.78,-0.96,-2.09,2.59,2.60,2.60
57.42,4.36,1.79,4.38,1.79,-1.79,-1.00,-2.16,2.57,2.58,2.57
58.00,4.36,1.80,4.37,1.81,-1.81,-1.03,-2.22,2.55,2.56,2.56
58.58,4.36,1.81,4.36,1.82,-1.82,-1.06,-2.29,2.54,2.54,2.55
59.16,4.36,1.83,4.35,1.84,-1.84,-1.10,-2.35,2.53,2.52,2.53
59.76,4.36,1.85,4.33,1.84,-1.84,-1.13,-2.41,2.52,2.49,2.51
60.35,4.36,1.89,4.31,1.85,-1.85,-1.17,-2.46,2.51,2.46,2.47
60.96,4.36,1.93,4.30,1.87,-1.87,-1.21,-2.51,2.49,2.43,2.43
61.57,4.33,1.94,4.28,1.89,-1.89,-1.24,-2.56,2.44,2.39,2.39
62.18,4.28,1.93,4.27,1.91,-1.91,-1.28,-2.61,2.37,2.35,2.35
62.80,4.22,1.92,4.24,1.93,-1.93,-1.32,-2.65,2.29,2.31,2.30
63.43,4.18,1.92,4.22,1.96,-1.96,-1.36,-2.69,2.23,2.27,2.26
64.07,4.15,1.94,4.21,1.99,-1.99,-1.40,-2.73,2.17,2.22,2.21
64.71,4.15,1.98,4.20,2.02,-2.02,-1.43,-2.76,2.13,2.18,2.17
65.35,4.15,2.02,4.19,2.06,-2.06,-1.48,-2.79,2.09,2.13,2.13
66.01,4.15,2.07,4.20,2.11,-2.11,-1.52,-2.82,2.04,2.08,2.08
66.67,4.26,2.23,4.21,2.18,-2.18,-1.56,-2.85,2.09,2.04,2.03
67.33,4.29,2.31,4.24,2.25,-2.25,-1.60,-2.87,2.04,1.99,1.98
68.01,4.26,2.32,4.27,2.33,-2.33,-1.64,-2.90,1.93,1.94,1.94
68.69,4.22,2.33,4.31,2.42,-2.42,-1.69,-2.92,1.80,1.89,1.89
69.37,4.26,2.42,4.35,2.51,-2.51,-1.73,-2.94,1.75,1.84,1.84
70.07,4.37,2.58,4.39,2.61,-2.61,-1.78,-2.95,1.76,1.79,1.79
70.77,4.48,2.74,4.43,2.70,-2.70,-1.83,-2.97,1.78,1.73,1.74
71.48,4.50,2.81,4.47,2.79,-2.79,-1.88,-2.99,1.71,1.68,1.69
72.19,4.50,2.88,4.50,2.88,-2.88,-1.92,-3.00,1.62,1.62,1.62
72.91,4.63,3.07,4.53,2.97,-2.97,-1.97,-3.02,1.66,1.57,1.56
73.64,4.64,3.13,4.56,3.05,-3.05,-2.02,-3.04,1.59,1.51,1.51
74.38,4.61,3.16,4.58,3.13,-3.13,-2.08,-3.05,1.49,1.45,1.45
75.12,4.56,3.17,4.60,3.20,-3.20,-2.13,-3.07,1.36,1.40,1.39
75.87,4.56,3.23,4.61,3.27,-3.27,-2.18,-3.09,1.29,1.34,1.33
76.63,4.56,3.28,4.62,3.33,-3.33,-2.24,-3.11,1.23,1.29,1.28
77.40,4.56,3.33,4.60,3.37,-3.37,-2.29,-3.13,1.19,1.23,1.23
78.17,4.56,3.39,4.57,3.39,-3.39,-2.35,-3.16,1.17,1.18,1.17
78.95,4.56,3.43,4.53,3.40,-3.40,-2.41,-3.18,1.16,1.13,1.13
79.74,4.56,3.48,4.48,3.40,-3.40,-2.47,-3.21,1.16,1.08,1.08
80.54,4.51,3.48,4.43,3.40,-3.40,-2.53,-3.24,1.12,1.03,1.03
81.35,4.43,3.45,4.36,3.38,-3.38,-2.59,-3.27,1.05,0.98,0.98
82.16,4.36,3.43,4.30,3.37,-3.37,-2.65,-3.30,0.99,0.94,0.93
82.98,4.31,3.42,4.25,3.36,-3.36,-2.71,-3.34,0.95,0.89,0.89
83.81,4.20,3.36,4.20,3.36,-3.36,-2.78,-3.37,0.85,0.84,0.84
84.65,4.08,3.29,4.14,3.35,-3.35,-2.85,-3.41,0.73,0.79,0.79
85.50,3.99,3.24,4.10,3.36,-3.36,-2.91,-3.46,0.63,0.74,0.75
86.35,3.95,3.25,4.07,3.38,-3.38,-2.98,-3.50,0.57,0.69,0.70
87.22,3.95,3.30,4.05,3.40,-3.40,-3.05,-3.55,0.55,0.64,0.65
88.09,3.95,3.35,4.03,3.44,-3.44,-3.12,-3.60,0.51,0.59,0.60
88.97,3.96,3.42,4.03,3.48,-3.48,-3.19,-3.66,0.48,0.54,0.54
89.86,3.99,3.50,4.03,3.53,-3.53,-3.27,-3.71,0.46,0.49,0.49
90.76,4.12,3.68,4.03,3.59,-3.59,-3.34,-3.77,0.53,0.44,0.44
91.66,4.11,3.72,4.06,3.66,-3.66,-3.42,-3.84,0.45,0.39,0.39
92.58,4.11,3.78,4.08,3.74,-3.74,-3.50,-3.90,0.37,0.34,0.33
93.51,4.21,3.93,4.12,3.83,-3.83,-3.57,-3.97,0.39,0.29,0.28
94.44,4.24,4.00,4.15,3.91,-3.91,-3.65,-4.04,0.33,0.24,0.24
95.39,4.17,3.98,4.18,3.99,-3.99,-3.73,-4.11,0.18,0.19,0.19
96.34,4.16,4.02,4.20,4.06,-4.06,-3.81,-4.19,0.10,0.14,0.14
97.30,4.15,4.06,4.21,4.12,-4.12,-3.90,-4.27,0.04,0.09,0.09
98.28,4.14,4.10,4.21,4.16,-4.16,-3.98,-4.35,-0.02,0.05,0.04
99.26,4.15,4.15,4.20,4.20,-4.20,-4.06,-4.43,-0.05,-0.00,0.00
100.25,4.23,4.28,4.19,4.24,-4.24,-4.15,-4.51,-0.01,-0.05,-0.05
101.25,4.31,4.41,4.18,4.27,-4.27,-4.23,-4.60,0.04,-0.10,-0.10
102.27,4.22,4.37,4.17,4.31,-4.31,-4.32,-4.69,-0.09,-0.15,-0.15
103.29,4.18,4.38,4.15,4.35,-4.35,-4.41,-4.77,-0.17,-0.20,-0.20
104.32,4.15,4.39,4.14,4.39,-4.39,-4.49,-4.86,-0.23,-0.25,-0.24
105.37,4.12,4.41,4.13,4.43,-4.43,-4.58,-4.95,-0.30,-0.30,-0.29
106.42,4.05,4.39,4.12,4.47,-4.47,-4.67,-5.04,-0.42,-0.35,-0.34
107.48,3.97,4.37,4.11,4.51,-4.51,-4.75,-5.12,-0.54,-0.40,-0.40
108.56,4.06,4.51,4.10,4.56,-4.56,-4.84,-5.21,-0.49,-0.45,-0.45
109.64,4.13,4.63,4.09,4.60,-4.60,-4.93,-5.29,-0.46,-0.50,-0.50
110.74,4.11,4.67,4.09,4.64,-4.64,-5.01,-5.37,-0.53,-0.56,-0.56
111.85,4.09,4.69,4.09,4.69,-4.69,-5.10,-5.45,-0.60,-0.61,-0.60
112.97,4.09,4.75,4.08,4.73,-4.73,-5.18,-5.53,-0.64,-0.66,-0.66
114.10,4.08,4.79,4.08,4.78,-4.78,-5.27,-5.60,-0.70,-0.71,-0.71
115.24,4.08,4.84,4.08,4.83,-4.83,-5.35,-5.66,-0.75,-0.75,-0.76
116.39,4.08,4.89,4.07,4.87,-4.87,-5.43,-5.72,-0.79,-0.80,-0.81
117.55,4.08,4.93,4.07,4.91,-4.91,-5.51,-5.78,-0.83,-0.84,-0.85
118.73,4.09,4.98,4.07,4.95,-4.95,-5.59,-5.83,-0.86,-0.88,-0.89
119.92,4.09,5.01,4.07,4.98,-4.98,-5.66,-5.87,-0.89,-0.92,-0.92
121.12,4.10,5.06,4.07,5.02,-5.02,-5.73,-5.91,-0.92,-0.95,-0.96
122.33,4.09,5.08,4.06,5.05,-5.05,-5.80,-5.93,-0.96,-0.99,-0.99
123.55,3.98,5.00,4.06,5.08,-5.08,-5.87,-5.95,-1.10,-1.02,-1.02
124.79,3.90,4.95,4.04,5.10,-5.10,-5.93,-5.96,-1.19,-1.05,-1.05
126.03,4.02,5.10,4.02,5.11,-5.11,-5.99,-5.97,-1.08,-1.08,-1.08
127.29,4.03,5.13,4.00,5.11,-5.11,-6.05,-5.97,-1.08,-1.11,-1.10
128.57,4.04,5.18,3.98,5.12,-5.12,-6.10,-5.95,-1.08,-1.14,-1.14
129.85,4.05,5.22,3.98,5.15,-5.15,-6.14,-5.94,-1.10,-1.17,-1.17
131.15,4.06,5.26,3.98,5.18,-5.18,-6.19,-5.91,-1.12,-1.20,-1.20
132.46,4.06,5.29,3.99,5.22,-5.22,-6.23,-5.88,-1.16,-1.23,-1.23
133.79,4.00,5.26,4.00,5.26,-5.26,-6.26,-5.84,-1.25,-1.25,-1.26
135.12,3.81,5.10,4.01,5.29,-5.29,-6.29,-5.79,-1.48,-1.28,-1.29
136.48,3.86,5.17,4.01,5.32,-5.32,-6.31,-5.74,-1.46,-1.31,-1.31
137.84,3.82,5.17,4.01,5.35,-5.35,-6.33,-5.69,-1.52,-1.34,-1.35
139.22,3.97,5.35,4.00,5.36,-5.36,-6.34,-5.63,-1.39,-1.37,-1.38
140.61,4.08,5.49,3.98,5.37,-5.37,-6.35,-5.56,-1.29,-1.40,-1.41
142.02,4.18,5.61,3.98,5.41,-5.41,-6.36,-5.50,-1.22,-1.43,-1.43
143.44,4.21,5.67,3.98,5.44,-5.44,-6.36,-5.43,-1.23,-1.46,-1.46
144.87,4.07,5.57,3.99,5.49,-5.49,-6.35,-5.36,-1.41,-1.50,-1.50
146.32,3.98,5.52,3.99,5.53,-5.53,-6.34,-5.29,-1.55,-1.55,-1.54
147.78,3.81,5.38,3.99,5.58,-5.58,-6.33,-5.22,-1.77,-1.59,-1.57
149.26,3.80,5.42,3.99,5.63,-5.63,-6.31,-5.15,-1.83,-1.65,-1.62
150.75,3.86,5.54,3.97,5.67,-5.67,-6.29,-5.07,-1.81,-1.71,-1.68
152.26,3.88,5.63,3.92,5.69,-5.69,-6.26,-5.00,-1.81,-1.77,-1.75
153.78,3.88,5.70,3.87,5.70,-5.70,-6.23,-4.93,-1.82,-1.83,-1.82
155.32,3.96,5.85,3.80,5.71,-5.71,-6.20,-4.86,-1.74,-1.90,-1.89
156.88,4.02,5.99,3.74,5.72,-5.72,-6.16,-4.80,-1.69,-1.97,-1.97
158.44,3.81,5.86,3.70,5.74,-5.74,-6.13,-4.73,-1.93,-2.04,-2.05
160.03,3.70,5.83,3.67,5.78,-5.78,-6.09,-4.67,-2.08,-2.11,-2.13
161.63,3.61,5.81,3.64,5.82,-5.82,-6.05,-4.61,-2.21,-2.18,-2.20
163.24,3.51,5.77,3.62,5.86,-5.86,-6.00,-4.55,-2.35,-2.24,-2.26
164.88,3.41,5.72,3.60,5.90,-5.90,-5.96,-4.50,-2.48,-2.29,-2.31
166.53,3.37,5.73,3.57,5.91,-5.91,-5.92,-4.44,-2.54,-2.34,-2.36
168.19,3.42,5.82,3.54,5.92,-5.92,-5.88,-4.39,-2.50,-2.38,-2.40
169.87,3.45,5.89,3.51,5.92,-5.92,-5.83,-4.35,-2.47,-2.41,-2.44
171.57,3.53,5.99,3.49,5.93,-5.93,-5.79,-4.31,-2.39,-2.44,-2.46
173.29,3.57,6.04,3.47,5.93,-5.93,-5.75,-4.27,-2.35,-2.46,-2.47
175.02,3.64,6.12,3.46,5.93,-5.93,-5.71,-4.23,-2.29,-2.47,-2.48
176.77,3.57,6.06,3.47,5.95,-5.95,-5.67,-4.20,-2.38,-2.48,-2.49
178.54,3.46,5.96,3.47,5.96,-5.96,-5.64,-4.17,-2.50,-2.49,-2.50
180.32,3.50,5.99,3.48,5.97,-5.97,-5.60,-4.14,-2.47,-2.50,-2.49
182.13,3.47,5.95,3.48,5.98,-5.98,-5.57,-4.12,-2.50,-2.50,-2.48
183.95,3.35,5.84,3.46,5.97,-5.97,-5.54,-4.10,-2.62,-2.51,-2.49
185.79,3.36,5.85,3.44,5.96,-5.96,-5.52,-4.08,-2.59,-2.51,-2.49
187.65,3.37,5.88,3.41,5.93,-5.93,-5.49,-4.07,-2.56,-2.52,-2.51
189.52,3.39,5.91,3.37,5.90,-5.90,-5.47,-4.06,-2.51,-2.53,-2.52
191.42,3.35,5.89,3.33,5.87,-5.87,-5.46,-4.05,-2.52,-2.54,-2.54
193.33,3.33,5.89,3.29,5.85,-5.85,-5.45,-4.05,-2.52,-2.56,-2.56
195.27,3.32,5.90,3.25,5.83,-5.83,-5.44,-4.04,-2.51,-2.58,-2.58
197.22,3.27,5.87,3.22,5.81,-5.81,-5.43,-4.04,-2.54,-2.59,-2.60
199.19,3.15,5.77,3.18,5.79,-5.79,-5.42,-4.04,-2.64,-2.61,-2.62
201.18,3.08,5.72,3.13,5.76,-5.76,-5.42,-4.05,-2.68,-2.63,-2.64
203.19,3.05,5.71,3.08,5.74,-5.74,-5.42,-4.05,-2.69,-2.66,-2.66
205.23,2.99,5.67,3.03,5.71,-5.71,-5.42,-4.06,-2.71,-2.68,-2.68
207.28,2.93,5.62,2.97,5.66,-5.66,-5.42,-4.07,-2.73,-2.70,-2.69
209.35,2.90,5.61,2.90,5.61,-5.61,-5.41,-4.07,-2.71,-2.72,-2.71
211.44,2.87,5.61,2.82,5.56,-5.56,-5.41,-4.08,-2.69,-2.73,-2.74
213.56,2.74,5.49,2.74,5.49,-5.49,-5.39,-4.09,-2.75,-2.75,-2.75
215.69,2.63,5.39,2.65,5.42,-5.42,-5.38,-4.10,-2.78,-2.76,-2.76
217.85,2.57,5.34,2.56,5.33,-5.33,-5.35,-4.10,-2.76,-2.77,-2.77
220.03,2.50,5.28,2.46,5.24,-5.24,-5.32,-4.11,-2.74,-2.78,-2.78
222.23,2.39,5.20,2.35,5.14,-5.14,-5.27,-4.11,-2.74,-2.79,-2.81
224.45,2.27,5.07,2.22,5.01,-5.01,-5.22,-4.12,-2.74,-2.79,-2.80
226.70,2.14,4.94,2.09,4.88,-4.88,-5.15,-4.11,-2.73,-2.79,-2.80
228.96,1.99,4.78,1.95,4.73,-4.73,-5.06,-4.11,-2.74,-2.79,-2.79
231.25,1.86,4.64,1.81,4.59,-4.59,-4.97,-4.10,-2.72,-2.78,-2.78
233.57,1.69,4.46,1.68,4.44,-4.44,-4.86,-4.09,-2.75,-2.77,-2.77
235.90,1.49,4.25,1.56,4.31,-4.31,-4.74,-4.07,-2.82,-2.75,-2.76
238.26,1.40,4.15,1.45,4.19,-4.19,-4.60,-4.05,-2.79,-2.73,-2.75
240.64,1.28,4.00,1.36,4.08,-4.08,-4.45,-4.03,-2.79,-2.72,-2.72
243.05,1.12,3.81,1.27,3.97,-3.97,-4.30,-4.00,-2.84,-2.69,-2.69
245.48,1.02,3.69,1.19,3.87,-3.87,-4.13,-3.96,-2.84,-2.67,-2.67
247.93,1.00,3.64,1.12,3.77,-3.77,-3.96,-3.91,-2.77,-2.65,-2.64
250.41,0.98,3.60,1.05,3.68,-3.68,-3.78,-3.87,-2.70,-2.62,-2.62
252.92,1.00,3.59,0.99,3.59,-3.59,-3.60,-3.81,-2.59,-2.60,-2.59
255.45,1.01,3.58,0.92,3.50,-3.50,-3.41,-3.75,-2.49,-2.58,-2.57
258.00,0.99,3.54,0.85,3.41,-3.41,-3.23,-3.68,-2.41,-2.55,-2.55
260.58,0.96,3.49,0.78,3.30,-3.30,-3.04,-3.61,-2.34,-2.53,-2.53
263.19,0.82,3.32,0.69,3.19,-3.19,-2.85,-3.53,-2.37,-2.50,-2.50
265.82,0.64,3.12,0.59,3.06,-3.06,-2.67,-3.44,-2.42,-2.48,-2.48
268.48,0.50,2.96,0.47,2.92,-2.92,-2.48,-3.35,-2.42,-2.45,-2.46
271.16,0.32,2.75,0.34,2.76,-2.76,-2.30,-3.25,-2.44,-2.43,-2.43
273.87,0.15,2.56,0.19,2.59,-2.59,-2.12,-3.15,-2.44,-2.40,-2.41
276.61,0.00,2.38,0.02,2.40,-2.40,-1.94,-3.05,-2.39,-2.38,-2.38
279.38,-0.17,2.18,-0.15,2.20,-2.20,-1.77,-2.94,-2.36,-2.35,-2.35
282.17,-0.36,1.97,-0.33,1.99,-1.99,-1.60,-2.83,-2.35,-2.32,-2.33
284.99,-0.55,1.74,-0.51,1.79,-1.79,-1.43,-2.71,-2.33,-2.29,-2.29
287.84,-0.72,1.55,-0.69,1.58,-1.58,-1.27,-2.59,-2.29,-2.26,-2.27
290.72,-0.90,1.34,-0.87,1.37,-1.37,-1.11,-2.47,-2.27,-2.24,-2.24
293.63,-1.09,1.12,-1.04,1.17,-1.17,-0.95,-2.34,-2.26,-2.21,-2.21
296.57,-1.22,0.96,-1.20,0.98,-0.98,-0.79,-2.22,-2.20,-2.18,-2.18
299.53,-1.35,0.80,-1.36,0.79,-0.79,-0.64,-2.09,-2.13,-2.15,-2.15
302.53,-1.53,0.60,-1.53,0.59,-0.59,-0.49,-1.96,-2.12,-2.12,-2.13
305.55,-1.67,0.42,-1.69,0.40,-0.40,-0.34,-1.83,-2.07,-2.10,-2.09
308.61,-1.79,0.28,-1.86,0.22,-0.22,-0.19,-1.69,-2.00,-2.07,-2.07
311.69,-1.98,0.06,-2.02,0.03,-0.03,-0.05,-1.56,-2.01,-2.05,-2.04
314.81,-2.22,-0.20,-2.19,-0.16,0.16,0.10,-1.42,-2.05,-2.03,-2.02
317.96,-2.40,-0.40,-2.36,-0.36,0.36,0.24,-1.29,-2.04,-2.00,-2.00
321.14,-2.52,-0.53,-2.53,-0.54,0.54,0.38,-1.15,-1.98,-1.99,-1.99
324.35,-2.62,-0.65,-2.69,-0.72,0.72,0.51,-1.02,-1.90,-1.97,-1.97
327.59,-2.81,-0.85,-2.85,-0.90,0.90,0.65,-0.88,-1.91,-1.95,-1.96
330.87,-3.03,-1.08,-3.02,-1.08,1.08,0.78,-0.74,-1.95,-1.94,-1.95
334.18,-3.19,-1.26,-3.17,-1.24,1.24,0.92,-0.60,-1.95,-1.93,-1.93
337.52,-3.33,-1.41,-3.32,-1.40,1.40,1.05,-0.47,-1.93,-1.92,-1.92
340.90,-3.50,-1.59,-3.46,-1.55,1.55,1.18,-0.33,-1.95,-1.91,-1.91
344.30,-3.66,-1.76,-3.59,-1.68,1.68,1.31,-0.19,-1.98,-1.90,-1.90
347.75,-3.78,-1.88,-3.70,-1.80,1.80,1.44,-0.05,-1.98,-1.90,-1.90
351.23,-3.82,-1.93,-3.80,-1.91,1.91,1.57,0.09,-1.91,-1.89,-1.89
354.74,-3.85,-1.95,-3.90,-2.01,2.01,1.69,0.23,-1.84,-1.89,-1.90
358.28,-4.00,-2.11,-3.99,-2.10,2.10,1.82,0.37,-1.89,-1.89,-1.89
361.87,-4.13,-2.24,-4.08,-2.19,2.19,1.94,0.50,-1.94,-1.89,-1.89
365.49,-4.16,-2.28,-4.15,-2.26,2.26,2.06,0.64,-1.90,-1.89,-1.88
369.14,-4.20,-2.31,-4.22,-2.33,2.33,2.18,0.78,-1.87,-1.89,-1.89
372.83,-4.30,-2.41,-4.28,-2.39,2.39,2.30,0.92,-1.90,-1.89,-1.89
376.56,-4.30,-2.40,-4.34,-2.45,2.45,2.41,1.06,-1.84,-1.89,-1.90
380.33,-4.38,-2.49,-4.41,-2.52,2.52,2.53,1.20,-1.86,-1.89,-1.89
384.13,-4.45,-2.56,-4.48,-2.58,2.58,2.64,1.34,-1.86,-1.90,-1.89
387.97,-4.50,-2.60,-4.56,-2.65,2.65,2.74,1.48,-1.84,-1.90,-1.90
391.85,-4.61,-2.70,-4.64,-2.73,2.73,2.85,1.62,-1.88,-1.91,-1.91
395.77,-4.74,-2.84,-4.72,-2.81,2.81,2.95,1.76,-1.93,-1.91,-1.90
399.73,-4.81,-2.90,-4.80,-2.88,2.88,3.04,1.90,-1.93,-1.92,-1.91
403.72,-4.85,-2.94,-4.88,-2.96,2.96,3.14,2.04,-1.89,-1.92,-1.91
407.76,-4.94,-3.01,-4.96,-3.04,3.04,3.23,2.18,-1.90,-1.93,-1.93
411.84,-5.01,-3.08,-5.05,-3.12,3.12,3.31,2.31,-1.89,-1.93,-1.93
415.96,-5.15,-3.22,-5.13,-3.20,3.20,3.39,2.45,-1.95,-1.93,-1.93
420.12,-5.25,-3.32,-5.20,-3.28,3.28,3.46,2.58,-1.97,-1.93,-1.93
424.32,-5.26,-3.33,-5.26,-3.34,3.34,3.52,2.71,-1.91,-1.92,-1.93
428.56,-5.34,-3.42,-5.31,-3.40,3.40,3.58,2.83,-1.93,-1.91,-1.92
432.85,-5.41,-3.50,-5.35,-3.46,3.46,3.64,2.96,-1.95,-1.89,-1.91
437.18,-5.41,-3.51,-5.38,-3.51,3.51,3.68,3.08,-1.90,-1.87,-1.90
441.55,-5.43,-3.57,-5.40,-3.55,3.55,3.72,3.19,-1.88,-1.85,-1.86
445.96,-5.43,-3.60,-5.41,-3.59,3.59,3.76,3.30,-1.84,-1.82,-1.83
450.42,-5.46,-3.66,-5.41,-3.63,3.63,3.78,3.41,-1.83,-1.78,-1.80
454.93,-5.42,-3.67,-5.39,-3.65,3.65,3.80,3.51,-1.76,-1.74,-1.75
459.48,-5.36,-3.65,-5.37,-3.68,3.68,3.81,3.60,-1.68,-1.70,-1.71
464.07,-5.30,-3.64,-5.34,-3.69,3.69,3.81,3.68,-1.61,-1.65,-1.66
468.71,-5.25,-3.65,-5.31,-3.70,3.70,3.80,3.76,-1.54,-1.60,-1.60
473.40,-5.24,-3.68,-5.27,-3.71,3.71,3.79,3.83,-1.53,-1.55,-1.56
478.13,-5.22,-3.72,-5.22,-3.71,3.71,3.77,3.89,-1.51,-1.51,-1.50
482.91,-5.18,-3.72,-5.17,-3.71,3.71,3.74,3.94,-1.47,-1.46,-1.46
487.74,-5.14,-3.72,-5.12,-3.70,3.70,3.70,3.98,-1.44,-1.42,-1.42
492.62,-5.11,-3.74,-5.06,-3.68,3.68,3.66,4.01,-1.43,-1.38,-1.37
497.55,-5.01,-3.66,-5.01,-3.65,3.65,3.61,4.04,-1.35,-1.35,-1.35
