frequency,raw,error,smoothed,error_smoothed,equalization,parametric_eq,fixed_band_eq,equalized_raw,equalized_smoothed,target
20.00,9.40,3.04,9.36,2.97,-2.97,-2.87,-1.85,6.43,6.39,6.36
20.20,9.43,3.02,9.41,2.99,-2.99,-2.90,-1.90,6.44,6.43,6.41
20.40,9.47,3.01,9.46,3.00,-3.00,-2.94,-1.95,6.47,6.46,6.46
20.61,9.50,3.01,9.51,3.02,-3.02,-2.97,-2.01,6.48,6.49,6.49
20.81,9.53,2.99,9.56,3.04,-3.04,-3.00,-2.06,6.49,6.53,6.54
21.02,9.57,2.99,9.61,3.05,-3.05,-3.03,-2.12,6.52,6.55,6.58
21.23,9.62,3.02,9.65,3.07,-3.07,-3.07,-2.18,6.55,6.58,6.60
21.44,9.67,3.05,9.69,3.09,-3.09,-3.10,-2.24,6.58,6.60,6.62
21.66,9.73,3.09,9.74,3.11,-3.11,-3.13,-2.30,6.62,6.62,6.64
21.87,9.78,3.13,9.77,3.13,-3.13,-3.16,-2.37,6.65,6.64,6.65
22.09,9.83,3.16,9.81,3.16,-3.16,-3.19,-2.43,6.67,6.66,6.67
22.31,9.87,3.19,9.85,3.18,-3.18,-3.23,-2.50,6.69,6.67,6.68
22.54,9.91,3.23,9.88,3.20,-3.20,-3.26,-2.57,6.70,6.68,6.68
22.76,9.96,3.28,9.91,3.23,-3.23,-3.29,-2.64,6.73,6.68,6.68
22.99,10.00,3.33,9.94,3.26,-3.26,-3.32,-2.71,6.74,6.68,6.67
23.22,10.00,3.33,9.97,3.28,-3.28,-3.35,-2.79,6.71,6.68,6.67
23.45,10.00,3.33,10.00,3.31,-3.31,-3.38,-2.86,6.69,6.68,6.67
23.69,10.00,3.32,10.03,3.35,-3.35,-3.41,-2.94,6.65,6.68,6.68
23.92,10.00,3.32,10.06,3.38,-3.38,-3.44,-3.02,6.62,6.68,6.68
24.16,10.03,3.35,10.10,3.42,-3.42,-3.47,-3.10,6.61,6.68,6.68
24.40,10.08,3.39,10.13,3.45,-3.45,-3.50,-3.18,6.63,6.68,6.69
24.65,10.12,3.44,10.16,3.48,-3.48,-3.53,-3.26,6.64,6.68,6.68
24.89,10.17,3.49,10.19,3.51,-3.51,-3.56,-3.35,6.66,6.68,6.68
25.14,10.23,3.55,10.22,3.53,-3.53,-3.59,-3.43,6.70,6.68,6.68
25.39,10.29,3.60,10.25,3.57,-3.57,-3.62,-3.52,6.72,6.68,6.69
25.65,10.36,3.67,10.29,3.61,-3.61,-3.65,-3.60,6.75,6.68,6.69
25.91,10.43,3.75,10.33,3.65,-3.65,-3.68,-3.69,6.78,6.68,6.68
26.16,10.43,3.75,10.37,3.69,-3.69,-3.71,-3.77,6.74,6.68,6.68
26.43,10.41,3.73,10.41,3.73,-3.73,-3.74,-3.86,6.68,6.68,6.68
26.69,10.39,3.71,10.44,3.76,-3.76,-3.76,-3.94,6.63,6.68,6.68
26.96,10.36,3.68,10.46,3.78,-3.78,-3.79,-4.03,6.58,6.68,6.68
27.23,10.43,3.75,10.49,3.81,-3.81,-3.82,-4.11,6.62,6.68,6.68
27.50,10.51,3.83,10.51,3.84,-3.84,-3.85,-4.19,6.67,6.67,6.68
27.77,10.59,3.92,10.54,3.87,-3.87,-3.87,-4.26,6.72,6.67,6.67
28.05,10.65,3.98,10.57,3.90,-3.90,-3.90,-4.34,6.75,6.67,6.67
28.33,10.62,3.96,10.60,3.93,-3.93,-3.93,-4.41,6.69,6.67,6.66
28.62,10.60,3.94,10.63,3.96,-3.96,-3.95,-4.48,6.64,6.67,6.66
28.90,10.58,3.91,10.66,3.99,-3.99,-3.98,-4.55,6.59,6.67,6.67
29.19,10.62,3.96,10.68,4.02,-4.02,-4.00,-4.61,6.60,6.67,6.66
29.48,10.71,4.04,10.71,4.04,-4.04,-4.03,-4.67,6.67,6.66,6.67
29.78,10.79,4.13,10.73,4.07,-4.07,-4.05,-4.72,6.72,6.66,6.66
30.08,10.85,4.18,10.75,4.09,-4.09,-4.08,-4.77,6.76,6.66,6.67
30.38,10.83,4.17,10.77,4.11,-4.11,-4.10,-4.81,6.72,6.66,6.66
30.68,10.82,4.16,10.79,4.13,-4.13,-4.13,-4.85,6.69,6.66,6.66
30.99,10.81,4.15,10.81,4.16,-4.16,-4.15,-4.88,6.65,6.66,6.66
31.30,10.80,4.15,10.84,4.19,-4.19,-4.17,-4.90,6.61,6.65,6.65
31.61,10.79,4.14,10.87,4.21,-4.21,-4.20,-4.92,6.57,6.65,6.65
31.93,10.77,4.12,10.88,4.24,-4.24,-4.22,-4.94,6.53,6.65,6.65
32.24,10.84,4.20,10.90,4.25,-4.25,-4.24,-4.95,6.59,6.64,6.64
32.57,10.93,4.29,10.91,4.27,-4.27,-4.26,-4.95,6.66,6.64,6.64
32.89,11.02,4.38,10.92,4.29,-4.29,-4.29,-4.96,6.73,6.63,6.64
33.22,11.04,4.41,10.94,4.31,-4.31,-4.31,-4.95,6.73,6.63,6.63
33.55,11.03,4.40,10.97,4.35,-4.35,-4.33,-4.94,6.68,6.63,6.63
33.89,11.01,4.39,11.00,4.38,-4.38,-4.35,-4.93,6.63,6.62,6.62
34.23,11.00,4.38,11.03,4.42,-4.42,-4.37,-4.92,6.58,6.62,6.62
34.57,10.99,4.38,11.06,4.45,-4.45,-4.39,-4.90,6.54,6.61,6.61
34.92,10.98,4.37,11.09,4.48,-4.48,-4.42,-4.88,6.49,6.61,6.61
35.27,11.05,4.45,11.12,4.51,-4.51,-4.44,-4.86,6.53,6.60,6.60
35.62,11.15,4.55,11.14,4.54,-4.54,-4.46,-4.83,6.61,6.60,6.60
35.97,11.24,4.64,11.15,4.55,-4.55,-4.48,-4.81,6.69,6.60,6.60
36.33,11.24,4.64,11.15,4.56,-4.56,-4.50,-4.78,6.68,6.60,6.60
36.70,11.22,4.63,11.16,4.56,-4.56,-4.52,-4.76,6.66,6.60,6.59
37.06,11.21,4.62,11.17,4.57,-4.57,-4.54,-4.73,6.64,6.60,6.59
37.43,11.21,4.61,11.19,4.59,-4.59,-4.56,-4.71,6.62,6.60,6.60
37.81,11.21,4.61,11.21,4.61,-4.61,-4.58,-4.68,6.60,6.60,6.60
38.19,11.21,4.62,11.23,4.63,-4.63,-4.60,-4.66,6.58,6.60,6.59
38.57,11.21,4.61,11.24,4.64,-4.64,-4.62,-4.64,6.56,6.60,6.60
38.95,11.21,4.60,11.26,4.66,-4.66,-4.64,-4.62,6.55,6.60,6.61
39.34,11.20,4.60,11.27,4.67,-4.67,-4.66,-4.60,6.53,6.60,6.60
39.74,11.19,4.59,11.28,4.68,-4.68,-4.68,-4.58,6.51,6.60,6.60
40.14,11.22,4.62,11.29,4.69,-4.69,-4.70,-4.57,6.53,6.60,6.60
40.54,11.33,4.73,11.31,4.72,-4.72,-4.72,-4.56,6.61,6.60,6.60
40.94,11.43,4.84,11.33,4.74,-4.74,-4.74,-4.55,6.69,6.59,6.59
41.35,11.44,4.85,11.35,4.77,-4.77,-4.76,-4.55,6.67,6.59,6.59
41.76,11.42,4.84,11.37,4.79,-4.79,-4.78,-4.54,6.63,6.58,6.58
42.18,11.41,4.83,11.39,4.82,-4.82,-4.81,-4.54,6.59,6.57,6.58
42.60,11.41,4.84,11.40,4.84,-4.84,-4.83,-4.55,6.57,6.56,6.57
43.03,11.41,4.85,11.41,4.86,-4.86,-4.85,-4.56,6.55,6.55,6.56
43.46,11.41,4.86,11.42,4.88,-4.88,-4.87,-4.57,6.52,6.54,6.55
43.90,11.41,4.88,11.43,4.90,-4.90,-4.89,-4.58,6.51,6.53,6.53
44.33,11.41,4.90,11.42,4.91,-4.91,-4.91,-4.60,6.50,6.52,6.51
44.78,11.41,4.92,11.41,4.91,-4.91,-4.94,-4.62,6.50,6.50,6.49
45.23,11.41,4.93,11.39,4.90,-4.90,-4.96,-4.64,6.50,6.49,6.48
45.68,11.41,4.94,11.39,4.91,-4.91,-4.98,-4.67,6.49,6.48,6.47
46.13,11.41,4.96,11.39,4.93,-4.93,-5.00,-4.70,6.47,6.46,6.45
46.60,11.41,4.96,11.41,4.96,-4.96,-5.03,-4.74,6.45,6.45,6.45
47.06,11.41,4.98,11.42,4.99,-4.99,-5.05,-4.77,6.42,6.43,6.43
47.53,11.41,4.99,11.43,5.02,-5.02,-5.07,-4.81,6.39,6.42,6.42
48.01,11.41,4.99,11.45,5.05,-5.05,-5.10,-4.86,6.36,6.40,6.42
48.49,11.39,4.99,11.47,5.08,-5.08,-5.12,-4.90,6.31,6.39,6.40
48.97,11.37,4.99,11.49,5.11,-5.11,-5.15,-4.95,6.26,6.38,6.38
49.46,11.50,5.14,11.51,5.14,-5.14,-5.17,-5.01,6.36,6.36,6.36
49.96,11.63,5.29,11.53,5.18,-5.18,-5.20,-5.06,6.45,6.35,6.34
50.46,11.63,5.30,11.55,5.21,-5.21,-5.22,-5.12,6.42,6.34,6.33
50.96,11.61,5.29,11.56,5.24,-5.24,-5.25,-5.18,6.37,6.32,6.32
51.47,11.61,5.31,11.58,5.27,-5.27,-5.28,-5.24,6.34,6.31,6.30
51.99,11.61,5.32,11.60,5.30,-5.30,-5.31,-5.30,6.31,6.30,6.29
52.51,11.61,5.33,11.61,5.32,-5.32,-5.33,-5.37,6.28,6.28,6.28
53.03,11.61,5.33,11.61,5.34,-5.34,-5.36,-5.43,6.27,6.27,6.28
53.56,11.61,5.35,11.62,5.36,-5.36,-5.39,-5.50,6.25,6.26,6.26
54.10,11.61,5.36,11.62,5.37,-5.37,-5.42,-5.56,6.24,6.25,6.25
54.64,11.61,5.38,11.62,5.38,-5.38,-5.45,-5.63,6.23,6.24,6.23
55.18,11.61,5.38,11.61,5.38,-5.38,-5.48,-5.69,6.23,6.23,6.23
55.74,11.61,5.40,11.61,5.39,-5.39,-5.51,-5.76,6.22,6.22,6.21
56.29,11.61,5.41,11.62,5.41,-5.41,-5.54,-5.82,6.20,6.20,6.20
56.86,11.61,5.42,11.62,5.44,-5.44,-5.57,-5.88,6.17,6.19,6.19
57.42,11.59,5.43,11.63,5.46,-5.46,-5.61,-5.94,6.13,6.17,6.16
58.00,11.57,5.42,11.64,5.49,-5.49,-5.64,-6.00,6.08,6.15,6.15
58.58,11.65,5.51,11.65,5.52,-5.52,-5.67,-6.06,6.13,6.13,6.14
59.16,11.71,5.59,11.66,5.56,-5.56,-5.71,-6.11,6.15,6.10,6.12
59.76,11.71,5.61,11.67,5.59,-5.59,-5.74,-6.16,6.12,6.08,6.10
60.35,11.71,5.65,11.67,5.63,-5.63,-5.78,-6.20,6.08,6.05,6.06
60.96,11.71,5.69,11.68,5.67,-5.67,-5.81,-6.24,6.04,6.01,6.02
61.57,11.71,5.73,11.69,5.71,-5.71,-5.85,-6.28,6.00,5.98,5.98
62.18,11.71,5.77,11.70,5.76,-5.76,-5.88,-6.31,5.95,5.94,5.94
62.80,11.71,5.82,11.71,5.81,-5.81,-5.92,-6.34,5.90,5.90,5.89
63.43,11.71,5.86,11.72,5.87,-5.87,-5.96,-6.36,5.84,5.86,5.85
64.07,11.71,5.91,11.73,5.92,-5.92,-6.00,-6.38,5.79,5.81,5.80
64.71,11.71,5.95,11.74,5.97,-5.97,-6.04,-6.40,5.74,5.77,5.76
65.35,11.70,5.98,11.74,6.02,-6.02,-6.08,-6.41,5.68,5.72,5.72
66.01,11.69,6.02,11.75,6.08,-6.08,-6.12,-6.42,5.61,5.67,5.67
66.67,11.77,6.15,11.76,6.13,-6.13,-6.16,-6.43,5.64,5.62,5.62
67.33,11.81,6.24,11.77,6.19,-6.19,-6.20,-6.43,5.62,5.58,5.57
68.01,11.81,6.28,11.78,6.25,-6.25,-6.24,-6.43,5.55,5.53,5.53
68.69,11.81,6.33,11.79,6.32,-6.32,-6.28,-6.43,5.49,5.48,5.48
69.37,11.81,6.38,11.80,6.38,-6.38,-6.33,-6.43,5.43,5.43,5.43
70.07,11.81,6.43,11.81,6.43,-6.43,-6.37,-6.43,5.38,5.37,5.38
70.77,11.81,6.48,11.81,6.49,-6.49,-6.41,-6.42,5.32,5.32,5.33
71.48,11.81,6.53,11.81,6.54,-6.54,-6.46,-6.42,5.26,5.27,5.28
72.19,11.81,6.60,11.81,6.60,-6.60,-6.50,-6.41,5.21,5.21,5.21
72.91,11.81,6.66,11.80,6.65,-6.65,-6.55,-6.41,5.16,5.15,5.15
73.64,11.81,6.71,11.79,6.69,-6.69,-6.60,-6.41,5.12,5.10,5.10
74.38,11.81,6.77,11.77,6.73,-6.73,-6.64,-6.41,5.08,5.04,5.04
75.12,11.80,6.82,11.76,6.78,-6.78,-6.69,-6.41,5.02,4.99,4.98
75.87,11.71,6.79,11.75,6.82,-6.82,-6.74,-6.41,4.89,4.93,4.92
76.63,11.70,6.83,11.74,6.87,-6.87,-6.79,-6.41,4.83,4.88,4.87
77.40,11.71,6.89,11.73,6.91,-6.91,-6.84,-6.42,4.80,4.82,4.82
78.17,11.71,6.95,11.72,6.96,-6.96,-6.88,-6.43,4.75,4.77,4.76
78.95,11.71,6.99,11.72,7.00,-7.00,-6.93,-6.45,4.71,4.72,4.72
79.74,11.71,7.04,11.71,7.04,-7.04,-6.98,-6.47,4.67,4.67,4.67
80.54,11.71,7.09,11.70,7.08,-7.08,-7.04,-6.49,4.62,4.62,4.62
81.35,11.71,7.14,11.70,7.13,-7.13,-7.09,-6.52,4.58,4.57,4.57
82.16,11.71,7.19,11.70,7.18,-7.18,-7.14,-6.55,4.53,4.52,4.52
82.98,11.71,7.23,11.70,7.22,-7.22,-7.19,-6.58,4.49,4.48,4.48
83.81,11.71,7.28,11.70,7.27,-7.27,-7.24,-6.62,4.44,4.43,4.43
84.65,11.71,7.33,11.70,7.32,-7.32,-7.30,-6.67,4.39,4.38,4.38
85.50,11.71,7.37,11.70,7.37,-7.37,-7.35,-6.71,4.34,4.33,4.34
86.35,11.71,7.42,11.71,7.42,-7.42,-7.40,-6.77,4.29,4.28,4.29
87.22,11.71,7.47,11.71,7.48,-7.48,-7.46,-6.83,4.23,4.23,4.24
88.09,11.71,7.52,11.72,7.53,-7.53,-7.51,-6.89,4.18,4.18,4.19
88.97,11.71,7.58,11.72,7.59,-7.59,-7.57,-6.96,4.12,4.13,4.13
89.86,11.72,7.64,11.73,7.65,-7.65,-7.62,-7.03,4.07,4.08,4.08
90.76,11.72,7.69,11.75,7.71,-7.71,-7.68,-7.11,4.00,4.03,4.03
91.66,11.72,7.74,11.76,7.78,-7.78,-7.73,-7.20,3.94,3.98,3.98
92.58,11.75,7.83,11.77,7.84,-7.84,-7.79,-7.28,3.91,3.93,3.92
93.51,11.82,7.95,11.78,7.90,-7.90,-7.84,-7.38,3.92,3.88,3.87
94.44,11.85,8.02,11.80,7.97,-7.97,-7.90,-7.48,3.88,3.83,3.83
95.39,11.83,8.05,11.82,8.04,-8.04,-7.95,-7.58,3.79,3.78,3.78
96.34,11.82,8.09,11.84,8.11,-8.11,-8.01,-7.69,3.71,3.73,3.73
97.30,11.83,8.15,11.86,8.18,-8.18,-8.07,-7.80,3.65,3.68,3.68
98.28,11.88,8.25,11.87,8.24,-8.24,-8.12,-7.92,3.64,3.63,3.63
99.26,11.93,8.34,11.89,8.30,-8.30,-8.18,-8.04,3.62,3.59,3.59
100.25,11.88,8.34,11.90,8.36,-8.36,-8.24,-8.16,3.52,3.54,3.54
101.25,11.85,8.36,11.89,8.40,-8.40,-8.29,-8.29,3.45,3.49,3.49
102.27,11.86,8.42,11.89,8.45,-8.45,-8.35,-8.42,3.41,3.44,3.44
103.29,11.94,8.55,11.88,8.48,-8.48,-8.40,-8.56,3.46,3.39,3.39
104.32,11.98,8.63,11.86,8.52,-8.52,-8.46,-8.69,3.46,3.34,3.35
105.37,11.92,8.62,11.85,8.55,-8.55,-8.52,-8.83,3.36,3.29,3.30
106.42,11.86,8.61,11.84,8.60,-8.60,-8.57,-8.97,3.26,3.24,3.25
107.48,11.83,8.64,11.84,8.65,-8.65,-8.63,-9.11,3.18,3.19,3.19
108.56,11.81,8.67,11.83,8.69,-8.69,-8.68,-9.25,3.11,3.14,3.14
109.64,11.76,8.67,11.83,8.74,-8.74,-8.74,-9.38,3.01,3.08,3.09
110.74,11.70,8.67,11.83,8.80,-8.80,-8.79,-9.52,2.90,3.03,3.03
111.85,11.76,8.77,11.84,8.86,-8.86,-8.85,-9.65,2.90,2.98,2.99
112.97,11.84,8.91,11.86,8.92,-8.92,-8.90,-9.78,2.91,2.93,2.93
114.10,11.84,8.96,11.87,8.99,-8.99,-8.96,-9.90,2.85,2.88,2.88
115.24,11.86,9.03,11.88,9.05,-9.05,-9.01,-10.01,2.81,2.84,2.83
116.39,11.97,9.19,11.90,9.11,-9.11,-9.06,-10.12,2.86,2.79,2.78
117.55,12.02,9.28,11.92,9.17,-9.17,-9.11,-10.22,2.85,2.75,2.74
118.73,11.97,9.27,11.94,9.23,-9.23,-9.16,-10.31,2.74,2.71,2.70
119.92,11.94,9.27,11.96,9.29,-9.29,-9.21,-10.38,2.65,2.67,2.67
121.12,12.04,9.41,11.97,9.33,-9.33,-9.26,-10.45,2.70,2.64,2.63
122.33,12.00,9.40,11.98,9.38,-9.38,-9.31,-10.50,2.62,2.60,2.60
123.55,12.02,9.45,11.98,9.41,-9.41,-9.36,-10.55,2.61,2.57,2.57
124.79,12.04,9.50,11.97,9.44,-9.44,-9.41,-10.58,2.60,2.54,2.54
126.03,11.91,9.40,11.96,9.46,-9.46,-9.45,-10.59,2.45,2.51,2.51
127.29,11.90,9.41,11.95,9.48,-9.48,-9.50,-10.59,2.42,2.48,2.49
128.57,11.90,9.45,11.94,9.49,-9.49,-9.54,-10.58,2.40,2.45,2.45
129.85,11.91,9.49,11.93,9.52,-9.52,-9.59,-10.56,2.39,2.42,2.42
131.15,11.91,9.52,11.93,9.54,-9.54,-9.63,-10.53,2.37,2.39,2.39
132.46,11.92,9.56,11.94,9.57,-9.57,-9.67,-10.48,2.35,2.36,2.36
133.79,11.92,9.59,11.93,9.60,-9.60,-9.71,-10.43,2.32,2.33,2.33
135.12,11.93,9.63,11.93,9.62,-9.62,-9.75,-10.36,2.31,2.31,2.30
136.48,11.93,9.65,11.93,9.65,-9.65,-9.78,-10.29,2.28,2.28,2.28
137.84,11.93,9.69,11.93,9.68,-9.68,-9.82,-10.22,2.25,2.25,2.24
139.22,11.94,9.73,11.93,9.71,-9.71,-9.85,-10.13,2.23,2.22,2.21
140.61,11.94,9.76,11.94,9.75,-9.75,-9.88,-10.04,2.19,2.19,2.18
142.02,11.98,9.82,11.93,9.77,-9.77,-9.91,-9.95,2.21,2.16,2.16
143.44,11.99,9.86,11.92,9.80,-9.80,-9.94,-9.86,2.19,2.13,2.13
144.87,11.90,9.81,11.91,9.83,-9.83,-9.97,-9.77,2.07,2.09,2.09
146.32,11.86,9.81,11.90,9.85,-9.85,-9.99,-9.67,2.00,2.04,2.05
147.78,11.84,9.82,11.88,9.89,-9.89,-10.02,-9.58,1.95,1.99,2.02
149.26,11.84,9.87,11.86,9.92,-9.92,-10.04,-9.48,1.92,1.94,1.97
150.75,11.86,9.95,11.83,9.95,-9.95,-10.06,-9.39,1.91,1.88,1.91
152.26,11.83,9.99,11.79,9.97,-9.97,-10.08,-9.30,1.86,1.82,1.84
153.78,11.76,9.99,11.74,9.99,-9.99,-10.09,-9.21,1.77,1.75,1.77
155.32,11.66,9.96,11.69,10.00,-10.00,-10.11,-9.13,1.66,1.69,1.70
156.88,11.62,10.00,11.62,10.01,-10.01,-10.12,-9.05,1.61,1.62,1.62
158.44,11.65,10.11,11.56,10.02,-10.02,-10.13,-8.98,1.63,1.55,1.54
160.03,11.57,10.11,11.50,10.02,-10.02,-10.14,-8.91,1.55,1.48,1.46
161.63,11.50,10.11,11.45,10.03,-10.03,-10.14,-8.85,1.47,1.41,1.39
163.24,11.42,10.09,11.39,10.04,-10.04,-10.15,-8.79,1.38,1.35,1.33
164.88,11.30,10.02,11.33,10.04,-10.04,-10.15,-8.74,1.26,1.29,1.28
166.53,11.21,9.98,11.28,10.04,-10.04,-10.15,-8.69,1.17,1.25,1.23
168.19,11.15,9.96,11.24,10.04,-10.04,-10.15,-8.65,1.11,1.21,1.19
169.87,11.11,9.96,11.21,10.04,-10.04,-10.14,-8.61,1.07,1.17,1.15
171.57,11.09,9.96,11.19,10.04,-10.04,-10.13,-8.58,1.04,1.15,1.13
173.29,11.14,10.02,11.18,10.05,-10.05,-10.12,-8.56,1.09,1.13,1.12
175.02,11.19,10.08,11.17,10.05,-10.05,-10.11,-8.54,1.14,1.11,1.11
176.77,11.19,10.09,11.15,10.05,-10.05,-10.10,-8.53,1.14,1.11,1.10
178.54,11.19,10.10,11.15,10.05,-10.05,-10.08,-8.53,1.13,1.10,1.09
180.32,11.19,10.09,11.15,10.06,-10.06,-10.07,-8.53,1.13,1.09,1.10
182.13,11.20,10.09,11.15,10.07,-10.07,-10.05,-8.54,1.13,1.09,1.11
183.95,11.21,10.11,11.16,10.08,-10.08,-10.02,-8.55,1.13,1.08,1.10
185.79,11.20,10.10,11.15,10.08,-10.08,-10.00,-8.57,1.12,1.07,1.10
187.65,11.14,10.06,11.14,10.08,-10.08,-9.97,-8.60,1.06,1.07,1.08
189.52,11.15,10.08,11.13,10.07,-10.07,-9.94,-8.63,1.08,1.06,1.07
191.42,11.09,10.04,11.10,10.06,-10.06,-9.91,-8.67,1.03,1.04,1.05
193.33,11.01,9.98,11.06,10.04,-10.04,-9.88,-8.71,0.97,1.03,1.03
195.27,10.99,9.98,11.02,10.01,-10.01,-9.85,-8.76,0.98,1.01,1.01
197.22,10.99,10.00,10.98,9.99,-9.99,-9.81,-8.81,1.00,0.99,0.99
199.19,10.95,9.98,10.94,9.96,-9.96,-9.77,-8.87,0.98,0.97,0.97
201.18,10.92,9.97,10.90,9.94,-9.94,-9.73,-8.93,0.98,0.95,0.95
203.19,10.87,9.94,10.85,9.91,-9.91,-9.69,-9.00,0.95,0.93,0.93
205.23,10.80,9.89,10.79,9.88,-9.88,-9.65,-9.07,0.92,0.91,0.91
207.28,10.75,9.85,10.74,9.85,-9.85,-9.60,-9.14,0.90,0.89,0.90
209.35,10.68,9.80,10.69,9.81,-9.81,-9.55,-9.22,0.86,0.87,0.88
211.44,10.61,9.76,10.63,9.78,-9.78,-9.51,-9.30,0.83,0.86,0.85
213.56,10.54,9.70,10.58,9.74,-9.74,-9.46,-9.37,0.80,0.84,0.84
215.69,10.51,9.68,10.52,9.69,-9.69,-9.40,-9.45,0.82,0.83,0.83
217.85,10.51,9.69,10.46,9.64,-9.64,-9.35,-9.53,0.87,0.81,0.82
220.03,10.43,9.62,10.40,9.59,-9.59,-9.30,-9.61,0.84,0.81,0.81
222.23,10.33,9.55,10.33,9.53,-9.53,-9.24,-9.68,0.80,0.80,0.78
224.45,10.23,9.44,10.27,9.47,-9.47,-9.18,-9.75,0.76,0.80,0.79
226.70,10.20,9.41,10.21,9.41,-9.41,-9.12,-9.81,0.79,0.80,0.79
228.96,10.16,9.36,10.15,9.35,-9.35,-9.06,-9.87,0.81,0.80,0.80
231.25,10.12,9.31,10.10,9.29,-9.29,-9.00,-9.92,0.83,0.81,0.81
233.57,10.06,9.24,10.04,9.22,-9.22,-8.94,-9.97,0.84,0.82,0.82
235.90,9.95,9.12,9.99,9.15,-9.15,-8.88,-10.00,0.80,0.84,0.83
238.26,9.90,9.06,9.93,9.08,-9.08,-8.81,-10.03,0.82,0.85,0.84
240.64,9.87,9.00,9.88,9.01,-9.01,-8.75,-10.04,0.86,0.87,0.87
243.05,9.83,8.93,9.83,8.93,-8.93,-8.68,-10.04,0.89,0.89,0.90
245.48,9.73,8.81,9.77,8.86,-8.86,-8.61,-10.03,0.87,0.92,0.92
247.93,9.72,8.77,9.72,8.78,-8.78,-8.54,-10.00,0.94,0.94,0.95
250.41,9.71,8.74,9.66,8.70,-8.70,-8.48,-9.97,1.01,0.96,0.97
252.92,9.65,8.65,9.60,8.61,-8.61,-8.41,-9.91,1.04,0.99,1.00
255.45,9.53,8.51,9.54,8.53,-8.53,-8.33,-9.85,1.00,1.01,1.02
258.00,9.48,8.44,9.48,8.45,-8.45,-8.26,-9.77,1.03,1.04,1.04
260.58,9.49,8.43,9.42,8.36,-8.36,-8.19,-9.68,1.13,1.06,1.06
263.19,9.38,8.29,9.36,8.27,-8.27,-8.12,-9.57,1.11,1.09,1.09
265.82,9.26,8.15,9.28,8.17,-8.17,-8.05,-9.46,1.09,1.11,1.11
268.48,9.14,8.01,9.21,8.07,-8.07,-7.97,-9.33,1.06,1.14,1.13
271.16,9.08,7.92,9.14,7.98,-7.98,-7.90,-9.19,1.10,1.16,1.16
273.87,9.06,7.88,9.07,7.88,-7.88,-7.82,-9.05,1.18,1.19,1.18
276.61,9.06,7.85,8.98,7.77,-7.77,-7.75,-8.90,1.29,1.21,1.21
279.38,8.92,7.68,8.90,7.66,-7.66,-7.67,-8.74,1.26,1.24,1.24
282.17,8.87,7.61,8.83,7.56,-7.56,-7.59,-8.58,1.31,1.27,1.26
284.99,8.77,7.47,8.76,7.46,-7.46,-7.52,-8.41,1.31,1.29,1.30
287.84,8.59,7.27,8.68,7.35,-7.35,-7.44,-8.24,1.24,1.32,1.32
290.72,8.60,7.25,8.58,7.23,-7.23,-7.36,-8.07,1.37,1.35,1.35
293.63,8.52,7.14,8.51,7.12,-7.12,-7.29,-7.90,1.39,1.38,1.38
296.57,8.48,7.07,8.44,7.02,-7.02,-7.21,-7.72,1.45,1.41,1.41
299.53,8.39,6.95,8.37,6.93,-6.93,-7.13,-7.55,1.46,1.44,1.44
302.53,8.22,6.76,8.30,6.84,-6.84,-7.05,-7.37,1.38,1.47,1.46
305.55,8.21,6.71,8.25,6.75,-6.75,-6.97,-7.20,1.46,1.49,1.50
308.61,8.27,6.75,8.19,6.67,-6.67,-6.89,-7.03,1.59,1.52,1.52
311.69,8.13,6.58,8.13,6.59,-6.59,-6.82,-6.86,1.54,1.54,1.55
314.81,7.98,6.41,8.07,6.50,-6.50,-6.74,-6.69,1.48,1.56,1.57
317.96,7.87,6.28,8.01,6.43,-6.43,-6.66,-6.52,1.44,1.58,1.59
321.14,7.92,6.32,7.97,6.36,-6.36,-6.58,-6.36,1.55,1.60,1.60
324.35,8.07,6.45,7.91,6.30,-6.30,-6.50,-6.20,1.77,1.62,1.62
327.59,8.01,6.38,7.87,6.23,-6.23,-6.42,-6.05,1.78,1.63,1.63
330.87,7.90,6.26,7.82,6.17,-6.17,-6.34,-5.89,1.73,1.65,1.64
334.18,7.79,6.13,7.78,6.12,-6.12,-6.26,-5.74,1.67,1.66,1.66
337.52,7.74,6.07,7.73,6.06,-6.06,-6.18,-5.60,1.68,1.67,1.67
340.90,7.53,5.85,7.68,6.01,-6.01,-6.10,-5.46,1.52,1.68,1.68
344.30,7.47,5.78,7.64,5.96,-5.96,-6.02,-5.32,1.51,1.68,1.69
347.75,7.61,5.92,7.60,5.91,-5.91,-5.94,-5.18,1.70,1.69,1.69
351.23,7.65,5.95,7.55,5.86,-5.86,-5.86,-5.05,1.79,1.69,1.70
354.74,7.52,5.83,7.50,5.80,-5.80,-5.77,-4.92,1.72,1.70,1.69
358.28,7.42,5.72,7.43,5.73,-5.73,-5.69,-4.80,1.68,1.70,1.70
361.87,7.37,5.67,7.37,5.67,-5.67,-5.61,-4.68,1.70,1.70,1.70
365.49,7.34,5.63,7.31,5.60,-5.60,-5.53,-4.56,1.74,1.70,1.71
369.14,7.30,5.60,7.25,5.55,-5.55,-5.45,-4.45,1.75,1.70,1.70
372.83,7.19,5.49,7.19,5.49,-5.49,-5.37,-4.34,1.70,1.70,1.70
376.56,7.21,5.52,7.12,5.42,-5.42,-5.29,-4.23,1.79,1.70,1.69
380.33,7.04,5.34,7.05,5.35,-5.35,-5.21,-4.13,1.68,1.70,1.70
384.13,6.88,5.18,6.97,5.28,-5.28,-5.12,-4.03,1.60,1.69,1.70
387.97,6.92,5.23,6.88,5.19,-5.19,-5.04,-3.93,1.73,1.69,1.69
391.85,6.84,5.16,6.79,5.11,-5.11,-4.96,-3.84,1.73,1.68,1.68
395.77,6.71,5.02,6.72,5.04,-5.04,-4.88,-3.75,1.67,1.68,1.69
399.73,6.53,4.85,6.64,4.97,-4.97,-4.80,-3.66,1.56,1.67,1.68
403.72,6.48,4.80,6.56,4.90,-4.90,-4.71,-3.57,1.58,1.67,1.68
407.76,6.58,4.92,6.49,4.82,-4.82,-4.63,-3.49,1.75,1.66,1.66
411.84,6.41,4.75,6.41,4.75,-4.75,-4.55,-3.40,1.66,1.66,1.66
415.96,6.31,4.65,6.33,4.67,-4.67,-4.46,-3.32,1.64,1.66,1.66
420.12,6.34,4.68,6.26,4.60,-4.60,-4.38,-3.25,1.74,1.66,1.66
424.32,6.19,4.53,6.20,4.53,-4.53,-4.29,-3.17,1.66,1.67,1.66
428.56,6.10,4.43,6.14,4.46,-4.46,-4.21,-3.10,1.64,1.68,1.67
432.85,6.09,4.41,6.08,4.38,-4.38,-4.12,-3.02,1.71,1.69,1.68
437.18,6.05,4.36,6.03,4.32,-4.32,-4.04,-2.95,1.73,1.71,1.69
441.55,6.00,4.27,5.99,4.26,-4.26,-3.95,-2.88,1.74,1.74,1.73
445.96,5.95,4.19,5.96,4.19,-4.19,-3.87,-2.82,1.76,1.77,1.76
450.42,5.78,3.99,5.92,4.12,-4.12,-3.78,-2.75,1.66,1.81,1.79
454.93,5.78,3.94,5.88,4.03,-4.03,-3.69,-2.68,1.75,1.85,1.84
459.48,5.81,3.93,5.84,3.95,-3.95,-3.60,-2.62,1.86,1.89,1.88
464.07,5.80,3.87,5.79,3.85,-3.85,-3.51,-2.55,1.94,1.94,1.93
468.71,5.81,3.82,5.75,3.76,-3.76,-3.42,-2.49,2.05,1.98,1.99
473.40,5.79,3.76,5.71,3.67,-3.67,-3.33,-2.43,2.12,2.03,2.03
478.13,5.73,3.64,5.66,3.57,-3.57,-3.24,-2.36,2.16,2.08,2.09
482.91,5.68,3.55,5.59,3.47,-3.47,-3.14,-2.30,2.21,2.13,2.13
487.74,5.59,3.42,5.53,3.36,-3.36,-3.05,-2.24,2.23,2.17,2.17
492.62,5.44,3.22,5.45,3.25,-3.25,-2.95,-2.17,2.19,2.20,2.22
497.55,5.28,3.04,5.37,3.14,-3.14,-2.85,-2.11,2.14,2.24,2.24
