frequency,raw,error,smoothed,error_smoothed,equalization,parametric_eq,fixed_band_eq,equalized_raw,equalized_smoothed,target
20.00,-23.91,-26.43,-23.98,-26.52,26.52,26.35,12.35,2.60,2.53,2.51
20.20,-23.73,-26.29,-23.75,-26.31,26.31,26.13,12.54,2.58,2.56,2.55
20.40,-23.54,-26.12,-23.53,-26.12,26.12,25.93,12.73,2.58,2.59,2.58
20.61,-23.37,-25.98,-23.31,-25.93,25.93,25.72,12.93,2.56,2.62,2.61
20.81,-23.18,-25.83,-23.10,-25.74,25.74,25.53,13.14,2.56,2.64,2.65
21.02,-22.99,-25.68,-22.90,-25.57,25.57,25.33,13.35,2.57,2.66,2.69
21.23,-22.75,-25.45,-22.71,-25.39,25.39,25.15,13.56,2.64,2.69,2.70
21.44,-22.51,-25.23,-22.52,-25.23,25.23,24.97,13.78,2.72,2.71,2.72
21.66,-22.28,-25.02,-22.35,-25.07,25.07,24.79,14.00,2.79,2.72,2.74
21.87,-22.03,-24.78,-22.17,-24.92,24.92,24.62,14.23,2.88,2.74,2.75
22.09,-21.86,-24.62,-22.01,-24.77,24.77,24.46,14.46,2.90,2.76,2.76
22.31,-21.79,-24.55,-21.86,-24.63,24.63,24.29,14.71,2.83,2.77,2.76
22.54,-21.73,-24.51,-21.70,-24.48,24.48,24.14,14.95,2.75,2.78,2.77
22.76,-21.66,-24.44,-21.57,-24.36,24.36,23.98,15.21,2.70,2.79,2.78
22.99,-21.59,-24.38,-21.46,-24.25,24.25,23.83,15.47,2.66,2.80,2.78
23.22,-21.41,-24.21,-21.35,-24.16,24.16,23.68,15.74,2.74,2.80,2.79
23.45,-21.23,-24.03,-21.25,-24.06,24.06,23.54,16.02,2.82,2.81,2.80
23.69,-21.05,-23.86,-21.14,-23.95,23.95,23.39,16.30,2.90,2.81,2.81
23.92,-20.86,-23.68,-21.02,-23.84,23.84,23.25,16.60,2.97,2.82,2.82
24.16,-20.78,-23.62,-20.89,-23.71,23.71,23.11,16.90,2.93,2.82,2.83
24.40,-20.76,-23.60,-20.75,-23.58,23.58,22.98,17.22,2.81,2.82,2.84
24.65,-20.73,-23.57,-20.60,-23.43,23.43,22.84,17.54,2.70,2.83,2.83
24.89,-20.70,-23.53,-20.45,-23.28,23.28,22.70,17.88,2.58,2.83,2.83
25.14,-20.52,-23.35,-20.29,-23.12,23.12,22.57,18.22,2.60,2.83,2.83
25.39,-20.22,-23.05,-20.13,-22.96,22.96,22.44,18.58,2.74,2.83,2.83
25.65,-19.93,-22.76,-19.96,-22.79,22.79,22.30,18.96,2.87,2.83,2.83
25.91,-19.63,-22.44,-19.80,-22.63,22.63,22.17,19.34,3.00,2.83,2.81
26.16,-19.45,-22.27,-19.64,-22.47,22.47,22.04,19.75,3.01,2.83,2.82
26.43,-19.36,-22.18,-19.47,-22.30,22.30,21.90,20.17,2.94,2.82,2.82
26.69,-19.25,-22.08,-19.30,-22.12,22.12,21.77,20.60,2.87,2.82,2.82
26.96,-19.16,-21.99,-19.13,-21.94,21.94,21.63,21.05,2.78,2.82,2.82
27.23,-19.00,-21.82,-18.94,-21.76,21.76,21.50,21.52,2.76,2.82,2.82
27.50,-18.80,-21.63,-18.77,-21.58,21.58,21.36,22.01,2.78,2.81,2.82
27.77,-18.62,-21.43,-18.60,-21.41,21.41,21.22,22.52,2.79,2.81,2.81
28.05,-18.45,-21.26,-18.45,-21.26,21.26,21.08,23.04,2.81,2.81,2.81
28.33,-18.31,-21.10,-18.31,-21.11,21.11,20.94,23.58,2.80,2.81,2.79
28.62,-18.19,-20.99,-18.16,-20.97,20.97,20.80,24.13,2.78,2.81,2.80
28.90,-18.05,-20.85,-18.01,-20.82,20.82,20.65,24.69,2.76,2.80,2.80
29.19,-17.87,-20.66,-17.85,-20.65,20.65,20.51,25.25,2.78,2.80,2.79
29.48,-17.67,-20.47,-17.69,-20.48,20.48,20.36,25.80,2.81,2.80,2.80
29.78,-17.49,-20.29,-17.53,-20.32,20.32,20.21,26.32,2.83,2.79,2.80
30.08,-17.31,-20.11,-17.37,-20.16,20.16,20.06,26.79,2.85,2.79,2.80
30.38,-17.19,-19.97,-17.22,-20.00,20.00,19.90,27.19,2.82,2.78,2.78
30.68,-17.06,-19.85,-17.07,-19.85,19.85,19.75,27.50,2.78,2.78,2.78
30.99,-16.95,-19.72,-16.92,-19.69,19.69,19.59,27.67,2.75,2.77,2.77
31.30,-16.78,-19.55,-16.77,-19.54,19.54,19.43,27.71,2.76,2.77,2.77
31.61,-16.61,-19.39,-16.61,-19.37,19.37,19.26,27.61,2.76,2.76,2.77
31.93,-16.45,-19.20,-16.45,-19.21,19.21,19.10,27.36,2.77,2.76,2.75
32.24,-16.29,-19.03,-16.30,-19.05,19.05,18.93,27.01,2.76,2.75,2.74
32.57,-16.16,-18.90,-16.14,-18.88,18.88,18.77,26.56,2.73,2.75,2.74
32.89,-16.01,-18.75,-15.97,-18.71,18.71,18.60,26.06,2.70,2.74,2.74
33.22,-15.84,-18.58,-15.80,-18.54,18.54,18.43,25.52,2.69,2.74,2.74
33.55,-15.65,-18.38,-15.63,-18.36,18.36,18.25,24.96,2.71,2.73,2.73
33.89,-15.47,-18.21,-15.45,-18.18,18.18,18.08,24.39,2.71,2.73,2.73
34.23,-15.29,-18.03,-15.28,-18.01,18.01,17.90,23.83,2.71,2.72,2.73
34.57,-15.10,-17.82,-15.11,-17.83,17.83,17.73,23.28,2.73,2.72,2.72
34.92,-14.92,-17.63,-14.95,-17.66,17.66,17.55,22.74,2.75,2.71,2.71
35.27,-14.74,-17.45,-14.78,-17.49,17.49,17.37,22.22,2.75,2.71,2.71
35.62,-14.55,-17.26,-14.61,-17.32,17.32,17.19,21.71,2.76,2.70,2.70
35.97,-14.37,-17.06,-14.45,-17.15,17.15,17.01,21.22,2.77,2.70,2.69
36.33,-14.27,-16.96,-14.29,-16.98,16.98,16.83,20.76,2.71,2.69,2.69
36.70,-14.17,-16.87,-14.14,-16.82,16.82,16.65,20.31,2.64,2.68,2.69
37.06,-14.06,-16.73,-13.99,-16.67,16.67,16.47,19.87,2.61,2.68,2.67
37.43,-13.88,-16.55,-13.86,-16.53,16.53,16.29,19.45,2.65,2.67,2.67
37.81,-13.71,-16.38,-13.72,-16.38,16.38,16.11,19.05,2.67,2.66,2.66
38.19,-13.54,-16.20,-13.58,-16.24,16.24,15.92,18.66,2.69,2.66,2.65
38.57,-13.39,-16.05,-13.43,-16.08,16.08,15.74,18.29,2.69,2.65,2.65
38.95,-13.23,-15.87,-13.28,-15.93,15.93,15.56,17.93,2.69,2.64,2.64
39.34,-13.12,-15.75,-13.13,-15.77,15.77,15.38,17.58,2.65,2.64,2.63
39.74,-13.02,-15.64,-12.97,-15.60,15.60,15.20,17.24,2.58,2.63,2.61
40.14,-12.90,-15.52,-12.80,-15.42,15.42,15.01,16.91,2.53,2.62,2.62
40.54,-12.73,-15.34,-12.63,-15.24,15.24,14.83,16.59,2.51,2.61,2.61
40.94,-12.55,-15.16,-12.45,-15.05,15.05,14.65,16.29,2.50,2.60,2.61
41.35,-12.30,-14.89,-12.28,-14.86,14.86,14.47,15.99,2.56,2.58,2.59
41.76,-12.04,-14.61,-12.11,-14.68,14.68,14.30,15.70,2.64,2.57,2.57
42.18,-11.84,-14.40,-11.95,-14.49,14.49,14.12,15.41,2.65,2.55,2.56
42.60,-11.72,-14.25,-11.78,-14.30,14.30,13.94,15.14,2.58,2.52,2.53
43.03,-11.60,-14.12,-11.61,-14.11,14.11,13.76,14.87,2.50,2.50,2.52
43.46,-11.40,-13.89,-11.45,-13.92,13.92,13.59,14.61,2.52,2.47,2.49
43.90,-11.22,-13.66,-11.29,-13.74,13.74,13.41,14.36,2.52,2.45,2.44
44.33,-11.08,-13.49,-11.13,-13.55,13.55,13.24,14.11,2.47,2.42,2.41
44.78,-10.98,-13.37,-10.97,-13.36,13.36,13.07,13.87,2.38,2.39,2.38
45.23,-10.87,-13.22,-10.81,-13.18,13.18,12.90,13.63,2.32,2.37,2.35
45.68,-10.73,-13.06,-10.67,-13.01,13.01,12.73,13.40,2.27,2.34,2.32
46.13,-10.59,-12.89,-10.53,-12.84,12.84,12.56,13.17,2.25,2.32,2.30
46.60,-10.42,-12.71,-10.39,-12.69,12.69,12.39,12.95,2.27,2.30,2.29
47.06,-10.23,-12.50,-10.25,-12.53,12.53,12.23,12.73,2.30,2.28,2.27
47.53,-10.10,-12.37,-10.10,-12.37,12.37,12.06,12.52,2.27,2.27,2.27
48.01,-9.97,-12.25,-9.95,-12.21,12.21,11.90,12.31,2.23,2.26,2.27
48.49,-9.73,-11.99,-9.79,-12.05,12.05,11.74,12.11,2.31,2.26,2.25
48.97,-9.49,-11.73,-9.63,-11.88,11.88,11.58,11.91,2.39,2.25,2.24
49.46,-9.41,-11.64,-9.46,-11.71,11.71,11.42,11.71,2.30,2.25,2.23
49.96,-9.34,-11.58,-9.29,-11.53,11.53,11.26,11.52,2.19,2.25,2.23
50.46,-9.21,-11.46,-9.12,-11.36,11.36,11.10,11.33,2.15,2.24,2.24
50.96,-9.07,-11.32,-8.96,-11.19,11.19,10.95,11.14,2.12,2.24,2.25
51.47,-8.85,-11.09,-8.80,-11.02,11.02,10.80,10.96,2.17,2.22,2.24
51.99,-8.63,-10.85,-8.64,-10.85,10.85,10.64,10.78,2.22,2.21,2.22
52.51,-8.41,-10.62,-8.47,-10.66,10.66,10.49,10.61,2.26,2.19,2.21
53.03,-8.19,-10.37,-8.31,-10.47,10.47,10.34,10.43,2.28,2.16,2.18
53.56,-8.07,-10.22,-8.14,-10.27,10.27,10.20,10.26,2.20,2.13,2.15
54.10,-7.95,-10.07,-7.97,-10.07,10.07,10.05,10.10,2.12,2.10,2.11
54.64,-7.82,-9.89,-7.80,-9.86,9.86,9.91,9.93,2.03,2.06,2.06
55.18,-7.70,-9.71,-7.62,-9.64,9.64,9.76,9.77,1.93,2.01,2.01
55.74,-7.57,-9.54,-7.46,-9.42,9.42,9.62,9.61,1.85,1.96,1.96
56.29,-7.38,-9.29,-7.30,-9.20,9.20,9.48,9.46,1.82,1.91,1.91
56.86,-7.13,-8.98,-7.14,-8.99,8.99,9.34,9.31,1.87,1.85,1.85
57.42,-6.96,-8.74,-7.00,-8.79,8.79,9.21,9.16,1.83,1.79,1.78
58.00,-6.83,-8.56,-6.86,-8.59,8.59,9.07,9.01,1.76,1.73,1.72
58.58,-6.70,-8.37,-6.73,-8.40,8.40,8.94,8.87,1.69,1.67,1.66
59.16,-6.56,-8.17,-6.60,-8.21,8.21,8.81,8.72,1.64,1.61,1.61
59.76,-6.43,-7.99,-6.47,-8.02,8.02,8.68,8.58,1.58,1.54,1.55
60.35,-6.38,-7.86,-6.36,-7.84,7.84,8.55,8.45,1.46,1.48,1.48
60.96,-6.37,-7.81,-6.26,-7.68,7.68,8.42,8.32,1.31,1.42,1.43
61.57,-6.24,-7.61,-6.20,-7.56,7.56,8.29,8.18,1.32,1.36,1.36
62.18,-6.14,-7.43,-6.16,-7.47,7.47,8.17,8.06,1.33,1.31,1.29
62.80,-6.14,-7.39,-6.16,-7.41,7.41,8.04,7.93,1.27,1.25,1.25
63.43,-6.14,-7.33,-6.18,-7.38,7.38,7.92,7.81,1.24,1.20,1.19
64.07,-6.14,-7.30,-6.23,-7.39,7.39,7.80,7.69,1.24,1.15,1.15
64.71,-6.18,-7.29,-6.32,-7.43,7.43,7.68,7.57,1.24,1.11,1.10
65.35,-6.25,-7.31,-6.44,-7.50,7.50,7.56,7.45,1.25,1.06,1.05
66.01,-6.37,-7.39,-6.58,-7.61,7.61,7.45,7.34,1.23,1.02,1.02
66.67,-6.63,-7.61,-6.75,-7.73,7.73,7.33,7.22,1.10,0.99,0.98
67.33,-6.90,-7.85,-6.92,-7.87,7.87,7.22,7.11,0.98,0.95,0.95
68.01,-7.15,-8.07,-7.10,-8.02,8.02,7.11,7.01,0.87,0.92,0.92
68.69,-7.26,-8.15,-7.29,-8.17,8.17,7.00,6.90,0.91,0.89,0.89
69.37,-7.46,-8.31,-7.45,-8.31,8.31,6.89,6.80,0.86,0.86,0.85
70.07,-7.71,-8.53,-7.59,-8.42,8.42,6.78,6.69,0.70,0.83,0.82
70.77,-7.91,-8.72,-7.70,-8.50,8.50,6.67,6.59,0.58,0.80,0.81
71.48,-7.97,-8.75,-7.78,-8.54,8.54,6.57,6.49,0.57,0.77,0.77
72.19,-7.97,-8.73,-7.81,-8.54,8.54,6.46,6.40,0.57,0.74,0.75
72.91,-7.97,-8.68,-7.79,-8.50,8.50,6.36,6.30,0.53,0.71,0.71
73.64,-7.82,-8.50,-7.74,-8.41,8.41,6.26,6.20,0.59,0.68,0.68
74.38,-7.68,-8.34,-7.64,-8.29,8.29,6.16,6.11,0.60,0.65,0.65
75.12,-7.54,-8.16,-7.51,-8.12,8.12,6.06,6.02,0.58,0.62,0.62
75.87,-7.33,-7.92,-7.34,-7.93,7.93,5.96,5.92,0.60,0.59,0.59
76.63,-7.03,-7.59,-7.16,-7.72,7.72,5.87,5.83,0.69,0.56,0.56
77.40,-6.83,-7.37,-6.94,-7.48,7.48,5.77,5.74,0.65,0.54,0.53
78.17,-6.70,-7.20,-6.72,-7.23,7.23,5.68,5.66,0.53,0.51,0.50
78.95,-6.44,-6.93,-6.49,-6.99,6.99,5.59,5.57,0.54,0.49,0.49
79.74,-6.21,-6.68,-6.28,-6.75,6.75,5.50,5.48,0.54,0.47,0.47
80.54,-6.06,-6.51,-6.06,-6.51,6.51,5.41,5.39,0.45,0.46,0.45
81.35,-5.89,-6.33,-5.84,-6.29,6.29,5.32,5.31,0.39,0.45,0.43
82.16,-5.63,-6.06,-5.64,-6.08,6.08,5.23,5.22,0.45,0.44,0.43
82.98,-5.37,-5.80,-5.46,-5.89,5.89,5.14,5.14,0.51,0.43,0.43
83.81,-5.25,-5.67,-5.28,-5.71,5.71,5.06,5.06,0.45,0.43,0.42
84.65,-5.08,-5.50,-5.12,-5.54,5.54,4.97,4.97,0.46,0.42,0.41
85.50,-4.94,-5.37,-4.97,-5.39,5.39,4.89,4.89,0.44,0.42,0.42
86.35,-4.84,-5.26,-4.82,-5.24,5.24,4.81,4.81,0.40,0.42,0.42
87.22,-4.72,-5.15,-4.68,-5.10,5.10,4.73,4.73,0.38,0.43,0.42
88.09,-4.48,-4.91,-4.55,-4.97,4.97,4.65,4.65,0.49,0.43,0.42
88.97,-4.33,-4.78,-4.43,-4.86,4.86,4.57,4.57,0.52,0.43,0.44
89.86,-4.32,-4.77,-4.31,-4.74,4.74,4.49,4.49,0.42,0.43,0.44
90.76,-4.30,-4.73,-4.21,-4.63,4.63,4.42,4.41,0.33,0.42,0.42
91.66,-4.16,-4.59,-4.11,-4.53,4.53,4.34,4.33,0.37,0.42,0.43
92.58,-4.01,-4.42,-4.02,-4.43,4.43,4.27,4.25,0.42,0.41,0.40
93.51,-3.91,-4.33,-3.94,-4.34,4.34,4.19,4.17,0.42,0.40,0.41
94.44,-3.86,-4.25,-3.85,-4.24,4.24,4.12,4.10,0.38,0.39,0.39
95.39,-3.77,-4.16,-3.77,-4.14,4.14,4.05,4.02,0.37,0.37,0.38
96.34,-3.64,-3.99,-3.70,-4.05,4.05,3.98,3.94,0.40,0.35,0.34
97.30,-3.64,-3.96,-3.63,-3.96,3.96,3.91,3.87,0.32,0.33,0.32
98.28,-3.59,-3.90,-3.57,-3.88,3.88,3.84,3.79,0.28,0.31,0.30
99.26,-3.44,-3.72,-3.50,-3.78,3.78,3.78,3.72,0.33,0.28,0.27
100.25,-3.41,-3.66,-3.43,-3.67,3.67,3.71,3.64,0.26,0.24,0.24
101.25,-3.41,-3.62,-3.37,-3.57,3.57,3.65,3.57,0.16,0.21,0.21
102.27,-3.38,-3.56,-3.31,-3.48,3.48,3.58,3.50,0.09,0.17,0.17
103.29,-3.26,-3.39,-3.25,-3.37,3.37,3.52,3.43,0.10,0.12,0.12
104.32,-3.18,-3.26,-3.19,-3.26,3.26,3.46,3.35,0.08,0.07,0.08
105.37,-3.18,-3.22,-3.14,-3.16,3.16,3.39,3.28,-0.02,0.02,0.03
106.42,-3.18,-3.17,-3.10,-3.07,3.07,3.33,3.21,-0.12,-0.04,-0.02
107.48,-3.08,-2.99,-3.08,-2.98,2.98,3.27,3.15,-0.11,-0.10,-0.09
108.56,-2.96,-2.80,-3.05,-2.89,2.89,3.21,3.08,-0.08,-0.17,-0.17
109.64,-2.95,-2.71,-3.04,-2.80,2.80,3.16,3.01,-0.15,-0.24,-0.24
110.74,-2.95,-2.66,-3.04,-2.73,2.73,3.10,2.94,-0.22,-0.31,-0.30
111.85,-2.95,-2.59,-3.03,-2.65,2.65,3.04,2.88,-0.30,-0.38,-0.37
112.97,-2.95,-2.50,-3.05,-2.59,2.59,2.99,2.82,-0.36,-0.45,-0.46
114.10,-3.00,-2.49,-3.07,-2.54,2.54,2.93,2.75,-0.46,-0.52,-0.52
115.24,-3.18,-2.58,-3.09,-2.50,2.50,2.88,2.69,-0.69,-0.59,-0.60
116.39,-3.18,-2.51,-3.11,-2.45,2.45,2.83,2.63,-0.74,-0.66,-0.68
117.55,-3.18,-2.44,-3.12,-2.40,2.40,2.77,2.58,-0.79,-0.72,-0.74
118.73,-3.18,-2.38,-3.13,-2.35,2.35,2.72,2.52,-0.84,-0.78,-0.81
119.92,-3.18,-2.34,-3.14,-2.31,2.31,2.67,2.47,-0.88,-0.84,-0.85
121.12,-3.18,-2.28,-3.15,-2.26,2.26,2.62,2.41,-0.92,-0.89,-0.91
122.33,-3.18,-2.24,-3.14,-2.20,2.20,2.57,2.36,-0.98,-0.93,-0.95
123.55,-3.18,-2.22,-3.12,-2.14,2.14,2.52,2.31,-1.05,-0.98,-0.97
124.79,-3.18,-2.18,-3.09,-2.08,2.08,2.48,2.26,-1.11,-1.02,-1.01
126.03,-3.03,-1.98,-3.07,-2.02,2.02,2.43,2.22,-1.02,-1.05,-1.05
127.29,-2.98,-1.90,-3.04,-1.96,1.96,2.38,2.17,-1.03,-1.09,-1.08
128.57,-2.95,-1.84,-3.02,-1.90,1.90,2.34,2.13,-1.05,-1.12,-1.12
129.85,-2.95,-1.81,-3.01,-1.86,1.86,2.29,2.08,-1.09,-1.15,-1.15
131.15,-2.95,-1.78,-3.02,-1.83,1.83,2.25,2.04,-1.12,-1.18,-1.18
132.46,-2.95,-1.75,-3.03,-1.81,1.81,2.20,2.01,-1.14,-1.22,-1.21
133.79,-2.95,-1.72,-3.04,-1.79,1.79,2.16,1.97,-1.17,-1.25,-1.24
135.12,-2.96,-1.68,-3.05,-1.77,1.77,2.12,1.93,-1.20,-1.28,-1.29
136.48,-3.01,-1.70,-3.06,-1.74,1.74,2.08,1.90,-1.27,-1.31,-1.32
137.84,-3.16,-1.82,-3.06,-1.71,1.71,2.03,1.86,-1.45,-1.35,-1.35
139.22,-3.18,-1.79,-3.08,-1.69,1.69,1.99,1.83,-1.49,-1.39,-1.40
140.61,-3.18,-1.74,-3.09,-1.66,1.66,1.95,1.80,-1.52,-1.42,-1.45
142.02,-3.18,-1.72,-3.08,-1.62,1.62,1.91,1.77,-1.57,-1.47,-1.47
143.44,-3.18,-1.68,-3.07,-1.56,1.56,1.88,1.74,-1.62,-1.51,-1.51
144.87,-3.18,-1.63,-3.05,-1.49,1.49,1.84,1.71,-1.69,-1.56,-1.55
146.32,-3.03,-1.44,-3.03,-1.42,1.42,1.80,1.69,-1.62,-1.62,-1.60
147.78,-2.95,-1.31,-3.02,-1.34,1.34,1.76,1.66,-1.61,-1.68,-1.64
149.26,-2.95,-1.25,-3.01,-1.26,1.26,1.73,1.64,-1.69,-1.74,-1.71
150.75,-2.95,-1.16,-3.01,-1.20,1.20,1.69,1.61,-1.75,-1.81,-1.79
152.26,-2.95,-1.10,-3.03,-1.15,1.15,1.65,1.59,-1.80,-1.88,-1.86
153.78,-2.95,-1.02,-3.05,-1.10,1.10,1.62,1.56,-1.85,-1.95,-1.93
155.32,-2.95,-0.93,-3.10,-1.08,1.08,1.58,1.54,-1.88,-2.02,-2.03
156.88,-2.97,-0.88,-3.15,-1.06,1.06,1.55,1.52,-1.92,-2.09,-2.10
158.44,-3.12,-0.96,-3.21,-1.05,1.05,1.52,1.49,-2.08,-2.16,-2.17
160.03,-3.24,-1.00,-3.28,-1.05,1.05,1.48,1.47,-2.19,-2.23,-2.25
161.63,-3.38,-1.08,-3.35,-1.06,1.06,1.45,1.45,-2.32,-2.28,-2.31
163.24,-3.55,-1.20,-3.42,-1.09,1.09,1.42,1.43,-2.47,-2.34,-2.36
164.88,-3.64,-1.25,-3.49,-1.11,1.11,1.39,1.41,-2.53,-2.38,-2.40
166.53,-3.78,-1.34,-3.55,-1.13,1.13,1.36,1.39,-2.65,-2.42,-2.44
168.19,-3.71,-1.25,-3.60,-1.16,1.16,1.32,1.37,-2.56,-2.44,-2.47
169.87,-3.64,-1.17,-3.64,-1.18,1.18,1.29,1.35,-2.46,-2.46,-2.48
171.57,-3.64,-1.16,-3.67,-1.20,1.20,1.26,1.33,-2.44,-2.47,-2.49
173.29,-3.64,-1.16,-3.69,-1.22,1.22,1.23,1.31,-2.43,-2.48,-2.49
175.02,-3.64,-1.18,-3.70,-1.22,1.22,1.21,1.29,-2.43,-2.48,-2.47
176.77,-3.64,-1.17,-3.69,-1.21,1.21,1.18,1.27,-2.43,-2.48,-2.48
178.54,-3.64,-1.18,-3.68,-1.20,1.20,1.15,1.25,-2.44,-2.48,-2.47
180.32,-3.64,-1.19,-3.66,-1.18,1.18,1.12,1.23,-2.46,-2.48,-2.46
182.13,-3.64,-1.19,-3.65,-1.17,1.17,1.09,1.21,-2.48,-2.48,-2.46
183.95,-3.64,-1.19,-3.64,-1.16,1.16,1.06,1.19,-2.49,-2.48,-2.46
185.79,-3.64,-1.18,-3.63,-1.14,1.14,1.04,1.17,-2.50,-2.49,-2.47
187.65,-3.64,-1.16,-3.63,-1.13,1.13,1.01,1.15,-2.51,-2.50,-2.49
189.52,-3.64,-1.14,-3.63,-1.12,1.12,0.98,1.13,-2.52,-2.51,-2.51
191.42,-3.64,-1.12,-3.63,-1.11,1.11,0.96,1.11,-2.54,-2.52,-2.53
193.33,-3.64,-1.10,-3.63,-1.09,1.09,0.93,1.10,-2.55,-2.54,-2.55
195.27,-3.64,-1.10,-3.64,-1.09,1.09,0.91,1.08,-2.56,-2.56,-2.55
197.22,-3.64,-1.08,-3.65,-1.08,1.08,0.88,1.06,-2.56,-2.57,-2.57
199.19,-3.64,-1.04,-3.67,-1.08,1.08,0.86,1.04,-2.57,-2.59,-2.61
201.18,-3.64,-1.04,-3.69,-1.08,1.08,0.83,1.02,-2.57,-2.61,-2.61
203.19,-3.64,-1.02,-3.71,-1.08,1.08,0.81,1.00,-2.57,-2.63,-2.63
205.23,-3.64,-0.99,-3.73,-1.08,1.08,0.78,0.99,-2.57,-2.65,-2.66
207.28,-3.72,-1.07,-3.75,-1.08,1.08,0.76,0.97,-2.64,-2.67,-2.66
209.35,-3.83,-1.16,-3.77,-1.09,1.09,0.73,0.95,-2.75,-2.68,-2.68
211.44,-3.86,-1.16,-3.79,-1.10,1.10,0.71,0.93,-2.77,-2.70,-2.71
213.56,-3.86,-1.16,-3.81,-1.10,1.10,0.69,0.91,-2.76,-2.71,-2.71
215.69,-3.86,-1.16,-3.83,-1.11,1.11,0.66,0.90,-2.76,-2.72,-2.71
217.85,-3.86,-1.13,-3.85,-1.11,1.11,0.64,0.88,-2.75,-2.74,-2.74
220.03,-3.86,-1.12,-3.87,-1.12,1.12,0.62,0.86,-2.74,-2.75,-2.75
222.23,-3.86,-1.10,-3.89,-1.13,1.13,0.60,0.84,-2.74,-2.76,-2.77
224.45,-3.86,-1.10,-3.90,-1.13,1.13,0.57,0.82,-2.74,-2.77,-2.77
226.70,-3.86,-1.10,-3.90,-1.12,1.12,0.55,0.81,-2.74,-2.77,-2.77
228.96,-3.86,-1.09,-3.90,-1.12,1.12,0.53,0.79,-2.75,-2.78,-2.78
231.25,-3.86,-1.09,-3.89,-1.10,1.10,0.51,0.77,-2.76,-2.79,-2.78
233.57,-3.86,-1.08,-3.87,-1.08,1.08,0.49,0.75,-2.79,-2.79,-2.79
235.90,-3.86,-1.07,-3.84,-1.05,1.05,0.46,0.73,-2.81,-2.79,-2.80
238.26,-3.86,-1.07,-3.83,-1.04,1.04,0.44,0.71,-2.83,-2.79,-2.80
240.64,-3.86,-1.07,-3.80,-1.01,1.01,0.42,0.69,-2.85,-2.79,-2.80
243.05,-3.86,-1.08,-3.76,-0.98,0.98,0.40,0.67,-2.89,-2.79,-2.79
245.48,-3.70,-0.93,-3.72,-0.94,0.94,0.38,0.65,-2.77,-2.78,-2.78
247.93,-3.64,-0.88,-3.68,-0.90,0.90,0.36,0.63,-2.74,-2.78,-2.77
250.41,-3.64,-0.87,-3.63,-0.86,0.86,0.34,0.61,-2.79,-2.77,-2.78
252.92,-3.59,-0.83,-3.58,-0.81,0.81,0.32,0.59,-2.78,-2.77,-2.77
255.45,-3.44,-0.71,-3.52,-0.76,0.76,0.30,0.57,-2.68,-2.76,-2.74
258.00,-3.41,-0.68,-3.47,-0.72,0.72,0.28,0.55,-2.69,-2.75,-2.74
260.58,-3.41,-0.68,-3.41,-0.67,0.67,0.26,0.53,-2.74,-2.73,-2.74
263.19,-3.39,-0.68,-3.34,-0.62,0.62,0.24,0.51,-2.78,-2.72,-2.72
265.82,-3.20,-0.49,-3.27,-0.57,0.57,0.22,0.49,-2.64,-2.71,-2.72
268.48,-3.18,-0.50,-3.22,-0.53,0.53,0.20,0.46,-2.66,-2.69,-2.69
271.16,-3.18,-0.51,-3.16,-0.49,0.49,0.18,0.44,-2.69,-2.67,-2.68
273.87,-3.18,-0.51,-3.11,-0.45,0.45,0.16,0.42,-2.73,-2.65,-2.67
276.61,-3.05,-0.43,-3.05,-0.41,0.41,0.13,0.40,-2.64,-2.63,-2.63
279.38,-2.97,-0.36,-2.98,-0.37,0.37,0.11,0.37,-2.60,-2.61,-2.62
282.17,-2.95,-0.37,-2.93,-0.35,0.35,0.09,0.35,-2.61,-2.59,-2.59
284.99,-2.90,-0.34,-2.88,-0.32,0.32,0.07,0.33,-2.58,-2.56,-2.56
287.84,-2.74,-0.21,-2.83,-0.29,0.29,0.05,0.30,-2.45,-2.53,-2.54
290.72,-2.73,-0.24,-2.78,-0.27,0.27,0.03,0.28,-2.46,-2.50,-2.50
293.63,-2.73,-0.26,-2.73,-0.25,0.25,0.01,0.25,-2.48,-2.48,-2.48
296.57,-2.73,-0.29,-2.68,-0.23,0.23,-0.01,0.23,-2.51,-2.45,-2.45
299.53,-2.55,-0.14,-2.61,-0.19,0.19,-0.03,0.21,-2.36,-2.43,-2.42
302.53,-2.50,-0.10,-2.56,-0.16,0.16,-0.05,0.18,-2.35,-2.40,-2.41
305.55,-2.50,-0.14,-2.51,-0.12,0.12,-0.07,0.15,-2.38,-2.38,-2.37
308.61,-2.50,-0.16,-2.45,-0.09,0.09,-0.09,0.13,-2.41,-2.36,-2.35
311.69,-2.50,-0.16,-2.40,-0.05,0.05,-0.11,0.10,-2.45,-2.35,-2.34
314.81,-2.36,-0.06,-2.35,-0.01,0.01,-0.13,0.08,-2.35,-2.33,-2.31
317.96,-2.28,0.02,-2.30,0.03,-0.03,-0.15,0.05,-2.31,-2.32,-2.31
321.14,-2.26,0.05,-2.25,0.06,-0.06,-0.17,0.02,-2.32,-2.31,-2.32
324.35,-2.09,0.21,-2.19,0.11,-0.11,-0.19,-0.01,-2.20,-2.30,-2.31
327.59,-2.04,0.25,-2.14,0.16,-0.16,-0.21,-0.03,-2.20,-2.29,-2.30
330.87,-2.04,0.24,-2.07,0.21,-0.21,-0.23,-0.06,-2.25,-2.28,-2.29
334.18,-2.04,0.24,-2.01,0.26,-0.26,-0.25,-0.09,-2.31,-2.27,-2.29
337.52,-1.91,0.36,-1.92,0.34,-0.34,-0.27,-0.12,-2.25,-2.26,-2.28
340.90,-1.83,0.41,-1.83,0.42,-0.42,-0.29,-0.15,-2.26,-2.25,-2.25
344.30,-1.81,0.42,-1.72,0.51,-0.51,-0.31,-0.18,-2.33,-2.23,-2.24
347.75,-1.75,0.47,-1.60,0.61,-0.61,-0.33,-0.21,-2.37,-2.22,-2.23
351.23,-1.63,0.56,-1.49,0.71,-0.71,-0.35,-0.24,-2.34,-2.20,-2.20
354.74,-1.49,0.68,-1.37,0.80,-0.80,-0.37,-0.27,-2.29,-2.17,-2.18
358.28,-1.27,0.88,-1.27,0.89,-0.89,-0.39,-0.30,-2.16,-2.15,-2.15
361.87,-1.16,0.96,-1.17,0.96,-0.96,-0.41,-0.33,-2.13,-2.13,-2.13
365.49,-0.97,1.13,-1.07,1.03,-1.03,-0.43,-0.36,-2.01,-2.11,-2.11
369.14,-0.89,1.19,-0.98,1.10,-1.10,-0.45,-0.39,-1.99,-2.08,-2.09
372.83,-0.73,1.32,-0.91,1.15,-1.15,-0.47,-0.43,-1.88,-2.06,-2.06
376.56,-0.67,1.36,-0.86,1.18,-1.18,-0.49,-0.46,-1.86,-2.04,-2.04
380.33,-0.67,1.33,-0.82,1.21,-1.21,-0.51,-0.49,-1.88,-2.02,-2.01
384.13,-0.67,1.31,-0.79,1.22,-1.22,-0.54,-0.53,-1.89,-2.01,-1.99
387.97,-0.83,1.14,-0.77,1.21,-1.21,-0.56,-0.56,-2.05,-1.99,-1.98
391.85,-0.89,1.08,-0.78,1.20,-1.20,-0.58,-0.59,-2.09,-1.97,-1.98
395.77,-0.90,1.06,-0.79,1.17,-1.17,-0.60,-0.63,-2.07,-1.96,-1.97
399.73,-0.90,1.05,-0.82,1.13,-1.13,-0.62,-0.66,-2.04,-1.95,-1.96
403.72,-0.90,1.04,-0.84,1.10,-1.10,-0.64,-0.70,-2.01,-1.94,-1.95
407.76,-0.90,1.03,-0.87,1.07,-1.07,-0.66,-0.73,-1.97,-1.94,-1.94
411.84,-0.90,1.02,-0.89,1.04,-1.04,-0.68,-0.76,-1.95,-1.93,-1.93
415.96,-0.90,1.01,-0.91,1.02,-1.02,-0.70,-0.80,-1.92,-1.93,-1.92
420.12,-0.90,1.01,-0.92,1.01,-1.01,-0.72,-0.83,-1.91,-1.93,-1.92
424.32,-0.90,1.01,-0.92,1.00,-1.00,-0.74,-0.86,-1.91,-1.93,-1.92
428.56,-0.90,1.01,-0.92,1.00,-1.00,-0.76,-0.90,-1.91,-1.92,-1.92
