frequency,raw,error,smoothed,error_smoothed,equalization,parametric_eq,fixed_band_eq,equalized_raw,equalized_smoothed,target
20.00,11.78,2.28,11.78,2.28,-2.27,-2.47,-0.50,9.51,9.51,9.51
20.20,11.83,2.29,11.83,2.29,-2.28,-2.62,-0.51,9.55,9.55,9.55
20.40,11.88,2.30,11.88,2.30,-2.29,-2.77,-0.52,9.59,9.59,9.59
20.61,11.92,2.31,11.92,2.30,-2.30,-2.91,-0.54,9.62,9.62,9.62
20.81,11.96,2.31,11.96,2.31,-2.31,-3.06,-0.55,9.65,9.66,9.66
21.02,12.00,2.31,12.00,2.31,-2.32,-3.20,-0.57,9.69,9.68,9.70
21.23,12.03,2.32,12.03,2.32,-2.32,-3.34,-0.59,9.71,9.71,9.72
21.44,12.06,2.33,12.06,2.33,-2.33,-3.46,-0.60,9.73,9.74,9.74
21.66,12.09,2.34,12.09,2.34,-2.34,-3.57,-0.62,9.76,9.75,9.76
21.87,12.11,2.35,12.11,2.34,-2.34,-3.66,-0.64,9.77,9.77,9.77
22.09,12.13,2.35,12.14,2.35,-2.35,-3.73,-0.66,9.79,9.79,9.79
22.31,12.15,2.36,12.15,2.35,-2.35,-3.77,-0.68,9.80,9.80,9.80
22.54,12.16,2.36,12.16,2.35,-2.35,-3.79,-0.70,9.81,9.81,9.81
22.76,12.16,2.35,12.16,2.35,-2.35,-3.79,-0.72,9.81,9.81,9.82
22.99,12.16,2.35,12.16,2.34,-2.35,-3.76,-0.74,9.82,9.82,9.82
23.22,12.16,2.34,12.16,2.34,-2.34,-3.70,-0.76,9.83,9.83,9.83
23.45,12.16,2.33,12.16,2.33,-2.33,-3.63,-0.78,9.84,9.84,9.84
23.69,12.16,2.32,12.16,2.32,-2.31,-3.53,-0.80,9.85,9.85,9.85
23.92,12.16,2.31,12.16,2.30,-2.30,-3.42,-0.82,9.86,9.86,9.86
24.16,12.15,2.28,12.15,2.28,-2.28,-3.30,-0.84,9.87,9.87,9.88
24.40,12.14,2.25,12.14,2.26,-2.26,-3.16,-0.86,9.88,9.88,9.90
24.65,12.13,2.25,12.13,2.24,-2.24,-3.03,-0.89,9.89,9.89,9.89
24.89,12.11,2.22,12.11,2.22,-2.21,-2.88,-0.91,9.90,9.90,9.90
25.14,12.09,2.19,12.09,2.18,-2.18,-2.74,-0.93,9.92,9.91,9.91
25.39,12.06,2.14,12.06,2.14,-2.14,-2.60,-0.95,9.92,9.92,9.92
25.65,12.02,2.09,12.03,2.09,-2.10,-2.46,-0.98,9.93,9.93,9.94
25.91,11.98,2.05,11.99,2.05,-2.05,-2.32,-1.00,9.94,9.94,9.94
26.16,11.94,2.00,11.94,1.99,-1.99,-2.19,-1.02,9.95,9.95,9.95
26.43,11.89,1.94,11.89,1.93,-1.93,-2.06,-1.04,9.97,9.96,9.96
26.69,11.83,1.87,11.83,1.86,-1.86,-1.94,-1.06,9.97,9.97,9.97
26.96,11.77,1.79,11.78,1.79,-1.80,-1.82,-1.08,9.98,9.98,9.99
27.23,11.71,1.72,11.71,1.72,-1.73,-1.71,-1.10,9.99,9.99,10.00
27.50,11.65,1.66,11.65,1.65,-1.66,-1.60,-1.12,10.00,9.99,10.00
27.77,11.58,1.58,11.58,1.58,-1.58,-1.50,-1.13,10.00,10.00,10.00
28.05,11.51,1.50,11.52,1.51,-1.51,-1.41,-1.15,10.01,10.01,10.02
28.33,11.45,1.44,11.45,1.43,-1.43,-1.32,-1.16,10.02,10.02,10.02
28.62,11.38,1.36,11.38,1.36,-1.35,-1.23,-1.18,10.04,10.04,10.03
28.90,11.31,1.28,11.31,1.28,-1.26,-1.15,-1.19,10.05,10.05,10.04
29.19,11.23,1.20,11.23,1.18,-1.18,-1.07,-1.20,10.05,10.05,10.04
29.48,11.14,1.08,11.14,1.09,-1.09,-1.00,-1.20,10.05,10.05,10.07
29.78,11.05,1.00,11.06,1.00,-1.00,-0.93,-1.21,10.05,10.05,10.06
30.08,10.97,0.91,10.98,0.91,-0.91,-0.86,-1.21,10.06,10.06,10.07
30.38,10.90,0.84,10.90,0.83,-0.83,-0.80,-1.21,10.07,10.07,10.07
30.68,10.83,0.75,10.83,0.75,-0.75,-0.74,-1.21,10.08,10.08,10.09
30.99,10.76,0.68,10.76,0.68,-0.67,-0.68,-1.21,10.09,10.09,10.09
31.30,10.69,0.61,10.69,0.60,-0.61,-0.63,-1.20,10.09,10.09,10.09
31.61,10.63,0.54,10.64,0.54,-0.55,-0.57,-1.19,10.09,10.09,10.10
31.93,10.59,0.49,10.59,0.49,-0.49,-0.52,-1.18,10.10,10.10,10.11
32.24,10.56,0.46,10.56,0.45,-0.45,-0.47,-1.17,10.11,10.11,10.11
32.57,10.53,0.41,10.53,0.41,-0.42,-0.43,-1.16,10.11,10.11,10.13
32.89,10.51,0.39,10.51,0.39,-0.39,-0.38,-1.14,10.12,10.12,10.13
33.22,10.50,0.37,10.51,0.37,-0.38,-0.34,-1.12,10.13,10.13,10.14
33.55,10.51,0.37,10.51,0.37,-0.37,-0.29,-1.10,10.15,10.14,10.15
33.89,10.52,0.37,10.52,0.36,-0.36,-0.25,-1.07,10.17,10.16,10.16
34.23,10.51,0.36,10.52,0.36,-0.35,-0.21,-1.05,10.16,10.17,10.16
34.57,10.51,0.35,10.52,0.35,-0.34,-0.17,-1.02,10.17,10.17,10.17
34.92,10.51,0.35,10.51,0.34,-0.33,-0.13,-1.00,10.18,10.18,10.17
35.27,10.49,0.32,10.50,0.32,-0.31,-0.10,-0.97,10.18,10.18,10.18
35.62,10.47,0.30,10.48,0.30,-0.29,-0.06,-0.93,10.18,10.18,10.18
35.97,10.45,0.28,10.45,0.27,-0.27,-0.02,-0.90,10.18,10.18,10.18
36.33,10.42,0.24,10.42,0.24,-0.24,0.01,-0.87,10.18,10.18,10.19
36.70,10.39,0.22,10.39,0.21,-0.22,0.05,-0.84,10.18,10.18,10.18
37.06,10.36,0.18,10.37,0.18,-0.19,0.08,-0.80,10.17,10.18,10.19
37.43,10.34,0.16,10.34,0.16,-0.16,0.12,-0.76,10.18,10.18,10.19
37.81,10.32,0.14,10.32,0.13,-0.13,0.15,-0.73,10.19,10.19,10.19
38.19,10.29,0.11,10.29,0.11,-0.10,0.18,-0.69,10.19,10.19,10.19
38.57,10.26,0.09,10.26,0.08,-0.08,0.21,-0.65,10.19,10.19,10.18
38.95,10.22,0.05,10.22,0.05,-0.05,0.25,-0.62,10.17,10.17,10.18
39.34,10.19,0.03,10.19,0.02,-0.03,0.28,-0.58,10.17,10.16,10.17
39.74,10.15,-0.01,10.16,-0.01,-0.00,0.31,-0.54,10.15,10.16,10.17
40.14,10.13,-0.03,10.13,-0.03,0.02,0.34,-0.50,10.16,10.16,10.17
40.54,10.11,-0.05,10.11,-0.05,0.05,0.37,-0.46,10.16,10.16,10.17
40.94,10.08,-0.07,10.09,-0.07,0.08,0.40,-0.42,10.16,10.17,10.16
41.35,10.06,-0.09,10.06,-0.10,0.11,0.43,-0.38,10.17,10.17,10.16
41.76,10.02,-0.13,10.02,-0.13,0.15,0.45,-0.34,10.17,10.17,10.16
42.18,9.98,-0.17,9.98,-0.18,0.19,0.48,-0.31,10.17,10.17,10.16
42.60,9.93,-0.22,9.93,-0.22,0.23,0.51,-0.27,10.16,10.16,10.16
43.03,9.88,-0.27,9.88,-0.27,0.27,0.53,-0.23,10.15,10.15,10.16
43.46,9.83,-0.32,9.83,-0.32,0.31,0.56,-0.19,10.15,10.14,10.16
43.90,9.77,-0.36,9.78,-0.36,0.36,0.58,-0.15,10.13,10.13,10.14
44.33,9.73,-0.40,9.73,-0.40,0.39,0.60,-0.11,10.13,10.13,10.14
44.78,9.69,-0.43,9.69,-0.44,0.43,0.62,-0.07,10.12,10.12,10.13
45.23,9.66,-0.46,9.67,-0.46,0.46,0.64,-0.03,10.12,10.12,10.13
45.68,9.64,-0.48,9.64,-0.48,0.49,0.66,0.01,10.13,10.13,10.13
46.13,9.62,-0.49,9.62,-0.50,0.51,0.67,0.05,10.14,10.13,10.12
46.60,9.59,-0.53,9.59,-0.53,0.54,0.69,0.09,10.13,10.13,10.13
47.06,9.56,-0.55,9.56,-0.55,0.56,0.70,0.13,10.12,10.12,10.12
47.53,9.53,-0.57,9.53,-0.59,0.58,0.71,0.16,10.12,10.11,10.11
48.01,9.49,-0.62,9.50,-0.61,0.60,0.71,0.20,10.10,10.10,10.12
48.49,9.46,-0.63,9.46,-0.63,0.62,0.72,0.24,10.09,10.09,10.10
48.97,9.43,-0.64,9.43,-0.65,0.64,0.72,0.28,10.07,10.08,10.08
49.46,9.41,-0.65,9.41,-0.65,0.66,0.72,0.32,10.07,10.07,10.07
49.96,9.38,-0.66,9.39,-0.67,0.67,0.72,0.35,10.06,10.06,10.05
50.46,9.36,-0.68,9.36,-0.68,0.68,0.72,0.39,10.05,10.05,10.05
50.96,9.33,-0.69,9.33,-0.69,0.70,0.71,0.43,10.03,10.03,10.03
51.47,9.30,-0.69,9.30,-0.70,0.71,0.70,0.46,10.01,10.01,10.00
51.99,9.27,-0.71,9.28,-0.71,0.72,0.69,0.49,9.99,9.99,9.99
52.51,9.25,-0.72,9.25,-0.72,0.72,0.68,0.53,9.97,9.97,9.98
53.03,9.23,-0.72,9.23,-0.73,0.72,0.66,0.56,9.96,9.95,9.96
53.56,9.21,-0.73,9.21,-0.73,0.72,0.65,0.59,9.93,9.93,9.95
54.10,9.20,-0.71,9.20,-0.72,0.71,0.63,0.62,9.91,9.91,9.92
54.64,9.19,-0.71,9.20,-0.70,0.70,0.60,0.64,9.89,9.89,9.91
55.18,9.20,-0.67,9.20,-0.68,0.68,0.58,0.67,9.88,9.88,9.88
55.74,9.21,-0.63,9.21,-0.65,0.65,0.55,0.69,9.87,9.86,9.85
56.29,9.21,-0.63,9.22,-0.62,0.63,0.53,0.71,9.84,9.84,9.85
56.86,9.22,-0.59,9.22,-0.59,0.60,0.50,0.73,9.82,9.82,9.82
57.42,9.22,-0.56,9.22,-0.57,0.58,0.47,0.75,9.80,9.80,9.79
58.00,9.22,-0.54,9.22,-0.54,0.55,0.43,0.76,9.77,9.78,9.77
58.58,9.22,-0.52,9.22,-0.52,0.53,0.40,0.77,9.75,9.75,9.75
59.16,9.22,-0.50,9.22,-0.50,0.50,0.37,0.78,9.72,9.72,9.73
59.76,9.22,-0.48,9.22,-0.48,0.47,0.33,0.78,9.70,9.70,9.71
60.35,9.22,-0.45,9.22,-0.45,0.45,0.29,0.78,9.67,9.67,9.68
60.96,9.22,-0.42,9.22,-0.42,0.41,0.26,0.78,9.64,9.64,9.65
61.57,9.22,-0.37,9.22,-0.38,0.38,0.22,0.77,9.60,9.60,9.60
62.18,9.22,-0.33,9.22,-0.34,0.34,0.18,0.76,9.57,9.57,9.56
62.80,9.22,-0.31,9.22,-0.30,0.31,0.14,0.74,9.53,9.53,9.54
63.43,9.22,-0.26,9.22,-0.27,0.27,0.10,0.72,9.49,9.49,9.49
64.07,9.22,-0.22,9.22,-0.23,0.23,0.06,0.70,9.45,9.45,9.45
64.71,9.22,-0.19,9.22,-0.19,0.19,0.02,0.68,9.42,9.42,9.42
65.35,9.22,-0.15,9.22,-0.15,0.16,-0.03,0.65,9.38,9.38,9.38
66.01,9.22,-0.11,9.22,-0.12,0.13,-0.07,0.61,9.35,9.35,9.34
66.67,9.21,-0.09,9.22,-0.09,0.09,-0.11,0.58,9.31,9.31,9.31
67.33,9.21,-0.05,9.21,-0.06,0.06,-0.15,0.54,9.27,9.27,9.27
68.01,9.20,-0.02,9.20,-0.03,0.02,-0.19,0.49,9.23,9.22,9.23
68.69,9.19,0.01,9.20,0.01,-0.02,-0.24,0.45,9.18,9.18,9.19
69.37,9.20,0.06,9.20,0.06,-0.06,-0.28,0.40,9.14,9.14,9.15
70.07,9.21,0.11,9.21,0.10,-0.11,-0.32,0.34,9.10,9.10,9.11
70.77,9.22,0.16,9.23,0.16,-0.16,-0.36,0.29,9.06,9.06,9.07
71.48,9.24,0.21,9.25,0.21,-0.22,-0.40,0.23,9.02,9.03,9.04
72.19,9.27,0.29,9.27,0.28,-0.28,-0.45,0.17,8.99,8.99,8.99
72.91,9.30,0.35,9.30,0.35,-0.34,-0.49,0.11,8.96,8.96,8.96
73.64,9.33,0.42,9.33,0.41,-0.41,-0.53,0.05,8.93,8.93,8.92
74.38,9.36,0.48,9.36,0.48,-0.47,-0.57,-0.01,8.89,8.89,8.89
75.12,9.38,0.54,9.39,0.54,-0.53,-0.61,-0.08,8.85,8.85,8.85
75.87,9.41,0.60,9.41,0.59,-0.59,-0.66,-0.15,8.82,8.82,8.82
76.63,9.43,0.65,9.43,0.65,-0.65,-0.70,-0.22,8.78,8.78,8.79
77.40,9.46,0.71,9.46,0.70,-0.71,-0.74,-0.29,8.75,8.75,8.76
78.17,9.48,0.76,9.49,0.76,-0.77,-0.78,-0.36,8.72,8.72,8.73
78.95,9.52,0.83,9.52,0.82,-0.82,-0.83,-0.43,8.70,8.70,8.70
79.74,9.55,0.88,9.55,0.87,-0.88,-0.87,-0.51,8.68,8.68,8.68
80.54,9.58,0.93,9.59,0.93,-0.93,-0.91,-0.58,8.65,8.66,8.66
81.35,9.61,0.99,9.61,0.99,-0.98,-0.95,-0.66,8.63,8.63,8.63
82.16,9.64,1.05,9.64,1.04,-1.03,-0.99,-0.74,8.61,8.61,8.60
82.98,9.66,1.08,9.66,1.08,-1.08,-1.04,-0.82,8.58,8.58,8.59
83.81,9.68,1.13,9.68,1.13,-1.13,-1.08,-0.90,8.56,8.56,8.56
84.65,9.70,1.18,9.71,1.17,-1.17,-1.12,-0.98,8.53,8.54,8.53
85.50,9.73,1.22,9.73,1.22,-1.21,-1.17,-1.06,8.52,8.51,8.52
86.35,9.75,1.26,9.75,1.26,-1.26,-1.21,-1.14,8.49,8.49,8.50
87.22,9.77,1.30,9.78,1.30,-1.30,-1.25,-1.22,8.47,8.47,8.48
88.09,9.80,1.35,9.80,1.34,-1.35,-1.30,-1.31,8.45,8.45,8.46
88.97,9.83,1.40,9.83,1.39,-1.40,-1.34,-1.39,8.44,8.44,8.44
89.86,9.86,1.44,9.86,1.44,-1.44,-1.38,-1.48,8.42,8.42,8.43
90.76,9.89,1.50,9.89,1.49,-1.49,-1.43,-1.56,8.40,8.41,8.40
91.66,9.92,1.55,9.92,1.54,-1.54,-1.47,-1.65,8.39,8.39,8.38
92.58,9.95,1.60,9.95,1.59,-1.58,-1.52,-1.74,8.37,8.37,8.36
93.51,9.97,1.63,9.98,1.63,-1.63,-1.56,-1.83,8.34,8.34,8.35
94.44,10.00,1.68,10.00,1.67,-1.68,-1.61,-1.92,8.32,8.32,8.33
95.39,10.02,1.72,10.03,1.72,-1.73,-1.65,-2.01,8.29,8.29,8.31
96.34,10.05,1.78,10.05,1.78,-1.78,-1.70,-2.10,8.27,8.27,8.28
97.30,10.08,1.84,10.08,1.83,-1.84,-1.75,-2.19,8.25,8.25,8.25
98.28,10.11,1.90,10.11,1.89,-1.89,-1.79,-2.29,8.22,8.22,8.22
99.26,10.14,1.95,10.14,1.95,-1.94,-1.84,-2.38,8.20,8.20,8.20
100.25,10.16,2.00,10.16,2.00,-1.99,-1.89,-2.47,8.17,8.18,8.17
101.25,10.18,2.05,10.18,2.05,-2.04,-1.94,-2.57,8.15,8.15,8.14
102.27,10.19,2.10,10.19,2.09,-2.08,-1.99,-2.66,8.11,8.11,8.10
103.29,10.19,2.13,10.19,2.12,-2.12,-2.04,-2.76,8.07,8.07,8.07
104.32,10.19,2.16,10.19,2.16,-2.16,-2.09,-2.85,8.03,8.03,8.04
105.37,10.19,2.20,10.19,2.20,-2.21,-2.14,-2.94,7.99,7.99,8.00
106.42,10.20,2.26,10.20,2.24,-2.26,-2.19,-3.04,7.95,7.94,7.95
107.48,10.20,2.29,10.21,2.30,-2.31,-2.24,-3.13,7.89,7.90,7.92
108.56,10.22,2.37,10.23,2.37,-2.37,-2.29,-3.22,7.85,7.85,7.86
109.64,10.25,2.45,10.25,2.44,-2.44,-2.35,-3.31,7.82,7.81,7.81
110.74,10.27,2.52,10.28,2.52,-2.51,-2.40,-3.39,7.76,7.76,7.76
111.85,10.30,2.60,10.30,2.60,-2.59,-2.45,-3.48,7.71,7.71,7.71
112.97,10.32,2.69,10.32,2.68,-2.68,-2.51,-3.56,7.64,7.64,7.64
114.10,10.34,2.76,10.35,2.76,-2.77,-2.56,-3.64,7.57,7.58,7.59
115.24,10.37,2.85,10.38,2.85,-2.86,-2.62,-3.72,7.51,7.51,7.53
116.39,10.41,2.96,10.41,2.95,-2.96,-2.68,-3.79,7.46,7.45,7.46
117.55,10.45,3.06,10.45,3.05,-3.05,-2.73,-3.86,7.40,7.40,7.40
118.73,10.49,3.16,10.49,3.15,-3.15,-2.79,-3.93,7.34,7.34,7.34
119.92,10.53,3.25,10.53,3.25,-3.24,-2.85,-3.99,7.29,7.29,7.29
121.12,10.57,3.35,10.57,3.34,-3.33,-2.91,-4.05,7.24,7.24,7.23
122.33,10.61,3.44,10.61,3.43,-3.42,-2.97,-4.10,7.19,7.19,7.18
123.55,10.63,3.51,10.63,3.51,-3.50,-3.03,-4.15,7.13,7.13,7.13
124.79,10.65,3.58,10.66,3.58,-3.59,-3.09,-4.20,7.07,7.07,7.08
126.03,10.68,3.66,10.68,3.66,-3.67,-3.16,-4.24,7.02,7.01,7.03
127.29,10.71,3.74,10.71,3.74,-3.75,-3.22,-4.28,6.96,6.96,6.98
128.57,10.74,3.83,10.75,3.83,-3.83,-3.28,-4.31,6.91,6.92,6.92
129.85,10.79,3.92,10.79,3.92,-3.91,-3.35,-4.34,6.88,6.88,6.88
131.15,10.83,4.01,10.83,4.00,-4.00,-3.41,-4.36,6.84,6.84,6.83
132.46,10.87,4.09,10.87,4.09,-4.08,-3.48,-4.39,6.79,6.79,6.79
133.79,10.91,4.17,10.91,4.17,-4.17,-3.55,-4.40,6.75,6.75,6.75
135.12,10.95,4.25,10.95,4.25,-4.25,-3.61,-4.42,6.70,6.70,6.71
136.48,10.99,4.33,11.00,4.33,-4.33,-3.68,-4.43,6.66,6.66,6.67
137.84,11.04,4.42,11.04,4.42,-4.42,-3.75,-4.44,6.63,6.62,6.63
139.22,11.08,4.51,11.08,4.50,-4.50,-3.82,-4.45,6.58,6.58,6.58
140.61,11.12,4.59,11.12,4.58,-4.58,-3.89,-4.46,6.54,6.54,6.54
142.02,11.16,4.65,11.17,4.66,-4.66,-3.96,-4.46,6.50,6.51,6.52
143.44,11.22,4.75,11.22,4.74,-4.74,-4.03,-4.47,6.48,6.47,6.48
144.87,11.26,4.83,11.26,4.82,-4.82,-4.11,-4.47,6.44,6.44,6.44
146.32,11.30,4.91,11.31,4.90,-4.90,-4.18,-4.48,6.41,6.41,6.40
147.78,11.34,4.98,11.34,4.97,-4.97,-4.25,-4.48,6.37,6.37,6.37
149.26,11.37,5.04,11.37,5.05,-5.05,-4.33,-4.49,6.33,6.33,6.34
150.75,11.40,5.13,11.40,5.12,-5.12,-4.40,-4.49,6.28,6.28,6.28
152.26,11.43,5.20,11.43,5.19,-5.20,-4.48,-4.50,6.23,6.23,6.24
153.78,11.47,5.27,11.47,5.27,-5.28,-4.55,-4.51,6.19,6.19,6.21
155.32,11.50,5.36,11.51,5.35,-5.36,-4.63,-4.52,6.14,6.15,6.15
156.88,11.55,5.44,11.55,5.44,-5.44,-4.70,-4.54,6.11,6.11,6.12
158.44,11.59,5.53,11.59,5.52,-5.52,-4.78,-4.55,6.07,6.07,6.07
160.03,11.62,5.61,11.63,5.61,-5.60,-4.86,-4.57,6.03,6.03,6.02
161.63,11.65,5.69,11.65,5.68,-5.67,-4.94,-4.59,5.98,5.98,5.97
163.24,11.68,5.76,11.68,5.75,-5.75,-5.01,-4.62,5.93,5.93,5.93
164.88,11.70,5.82,11.70,5.82,-5.83,-5.09,-4.65,5.88,5.88,5.89
166.53,11.72,5.89,11.73,5.89,-5.90,-5.17,-4.68,5.82,5.83,5.84
168.19,11.75,5.97,11.75,5.96,-5.97,-5.25,-4.71,5.78,5.78,5.79
169.87,11.78,6.05,11.78,6.04,-6.04,-5.32,-4.75,5.74,5.74,5.74
171.57,11.80,6.11,11.80,6.11,-6.11,-5.40,-4.79,5.69,5.69,5.70
173.29,11.82,6.19,11.82,6.18,-6.18,-5.48,-4.84,5.64,5.64,5.64
175.02,11.83,6.25,11.83,6.25,-6.25,-5.56,-4.89,5.59,5.59,5.59
176.77,11.84,6.32,11.85,6.32,-6.31,-5.63,-4.94,5.53,5.53,5.53
178.54,11.85,6.38,11.85,6.38,-6.37,-5.71,-5.00,5.48,5.48,5.48
180.32,11.85,6.44,11.85,6.43,-6.43,-5.78,-5.06,5.42,5.42,5.42
182.13,11.84,6.48,11.84,6.48,-6.48,-5.86,-5.12,5.36,5.36,5.37
183.95,11.83,6.53,11.84,6.53,-6.53,-5.93,-5.19,5.30,5.30,5.31
185.79,11.82,6.57,11.82,6.57,-6.57,-6.00,-5.26,5.25,5.25,5.26
187.65,11.81,6.63,11.81,6.62,-6.61,-6.08,-5.33,5.20,5.20,5.19
189.52,11.79,6.66,11.79,6.66,-6.65,-6.15,-5.41,5.15,5.15,5.14
191.42,11.77,6.69,11.77,6.68,-6.68,-6.21,-5.50,5.09,5.09,5.09
193.33,11.74,6.71,11.74,6.71,-6.71,-6.28,-5.58,5.03,5.03,5.04
195.27,11.71,6.73,11.71,6.73,-6.74,-6.35,-5.67,4.98,4.98,4.99
197.22,11.68,6.76,11.68,6.75,-6.76,-6.41,-5.76,4.92,4.92,4.93
199.19,11.65,6.78,11.66,6.78,-6.78,-6.47,-5.86,4.87,4.88,4.88
201.18,11.63,6.81,11.63,6.80,-6.80,-6.53,-5.95,4.83,4.83,4.83
203.19,11.61,6.82,11.61,6.82,-6.82,-6.59,-6.05,4.80,4.79,4.80
205.23,11.58,6.85,11.58,6.83,-6.83,-6.64,-6.15,4.75,4.75,4.74
207.28,11.55,6.84,11.55,6.85,-6.85,-6.69,-6.25,4.71,4.70,4.72
209.35,11.51,6.86,11.52,6.86,-6.86,-6.74,-6.35,4.65,4.66,4.66
211.44,11.48,6.88,11.48,6.87,-6.87,-6.79,-6.46,4.61,4.61,4.61
213.56,11.45,6.89,11.45,6.88,-6.89,-6.83,-6.56,4.57,4.57,4.57
215.69,11.42,6.88,11.43,6.89,-6.90,-6.87,-6.66,4.53,4.53,4.55
217.85,11.40,6.90,11.40,6.90,-6.90,-6.91,-6.76,4.50,4.50,4.51
220.03,11.38,6.92,11.38,6.91,-6.91,-6.94,-6.86,4.48,4.48,4.47
222.23,11.35,6.92,11.35,6.91,-6.90,-6.97,-6.95,4.45,4.45,4.44
224.45,11.32,6.91,11.32,6.91,-6.89,-6.99,-7.04,4.43,4.42,4.42
226.70,11.27,6.89,11.27,6.89,-6.88,-7.01,-7.12,4.39,4.39,4.39
228.96,11.22,6.87,11.22,6.86,-6.86,-7.03,-7.20,4.36,4.36,4.36
231.25,11.17,6.83,11.17,6.83,-6.83,-7.04,-7.27,4.34,4.34,4.35
233.57,11.12,6.80,11.13,6.80,-6.80,-7.05,-7.34,4.32,4.32,4.33
235.90,11.08,6.77,11.08,6.77,-6.77,-7.06,-7.39,4.31,4.31,4.32
238.26,11.04,6.74,11.04,6.73,-6.74,-7.06,-7.44,4.31,4.31,4.31
240.64,11.00,6.71,11.00,6.70,-6.70,-7.06,-7.48,4.30,4.30,4.30
243.05,10.95,6.66,10.96,6.66,-6.67,-7.05,-7.51,4.29,4.29,4.30
245.48,10.91,6.63,10.91,6.62,-6.63,-7.03,-7.52,4.28,4.28,4.29
247.93,10.87,6.59,10.88,6.59,-6.59,-7.02,-7.53,4.28,4.29,4.29
250.41,10.84,6.56,10.84,6.55,-6.55,-7.00,-7.52,4.29,4.29,4.29
252.92,10.81,6.52,10.81,6.51,-6.51,-6.97,-7.50,4.31,4.30,4.30
255.45,10.77,6.47,10.77,6.47,-6.46,-6.94,-7.48,4.31,4.31,4.31
258.00,10.73,6.42,10.73,6.42,-6.42,-6.91,-7.44,4.32,4.31,4.32
260.58,10.68,6.37,10.69,6.37,-6.37,-6.87,-7.39,4.31,4.32,4.32
263.19,10.64,6.32,10.64,6.32,-6.32,-6.83,-7.32,4.33,4.33,4.33
265.82,10.60,6.27,10.60,6.26,-6.26,-6.79,-7.25,4.34,4.34,4.34
268.48,10.56,6.21,10.56,6.21,-6.21,-6.74,-7.18,4.36,4.36,4.36
271.16,10.52,6.15,10.52,6.15,-6.15,-6.69,-7.09,4.37,4.37,4.38
273.87,10.48,6.11,10.48,6.09,-6.09,-6.63,-6.99,4.39,4.39,4.38
276.61,10.43,6.03,10.43,6.03,-6.03,-6.57,-6.89,4.40,4.40,4.41
279.38,10.38,5.98,10.38,5.97,-5.97,-6.51,-6.79,4.41,4.41,4.41
282.17,10.33,5.91,10.33,5.90,-5.91,-6.45,-6.67,4.42,4.42,4.43
284.99,10.28,5.85,10.28,5.85,-5.85,-6.38,-6.56,4.43,4.43,4.44
287.84,10.23,5.79,10.24,5.79,-5.80,-6.31,-6.44,4.44,4.44,4.45
290.72,10.20,5.75,10.20,5.74,-5.74,-6.24,-6.32,4.46,4.46,4.46
293.63,10.16,5.69,10.16,5.69,-5.68,-6.16,-6.19,4.48,4.48,4.48
296.57,10.12,5.63,10.12,5.63,-5.63,-6.09,-6.07,4.50,4.50,4.50
299.53,10.07,5.58,10.07,5.57,-5.57,-6.01,-5.94,4.50,4.50,4.50
302.53,10.02,5.52,10.02,5.51,-5.52,-5.93,-5.82,4.51,4.51,4.51
305.55,9.97,5.45,9.98,5.46,-5.46,-5.85,-5.70,4.51,4.52,4.53
308.61,9.94,5.41,9.94,5.40,-5.40,-5.76,-5.57,4.54,4.54,4.54
311.69,9.90,5.36,9.90,5.34,-5.35,-5.68,-5.45,4.56,4.55,4.55
314.81,9.85,5.28,9.85,5.29,-5.29,-5.59,-5.33,4.56,4.57,4.58
317.96,9.80,5.24,9.81,5.23,-5.23,-5.50,-5.21,4.57,4.57,4.57
321.14,9.75,5.18,9.75,5.18,-5.17,-5.42,-5.10,4.58,4.58,4.58
324.35,9.70,5.13,9.70,5.12,-5.12,-5.33,-4.98,4.59,4.58,4.58
327.59,9.63,5.05,9.64,5.05,-5.06,-5.24,-4.87,4.58,4.58,4.59
330.87,9.57,4.99,9.58,4.99,-4.99,-5.15,-4.76,4.58,4.59,4.59
334.18,9.52,4.94,9.52,4.93,-4.93,-5.05,-4.66,4.60,4.59,4.59
337.52,9.46,4.87,9.46,4.87,-4.86,-4.96,-4.56,4.60,4.60,4.60
340.90,9.39,4.80,9.39,4.79,-4.79,-4.87,-4.46,4.60,4.60,4.60
344.30,9.31,4.72,9.32,4.72,-4.72,-4.78,-4.36,4.59,4.60,4.60
347.75,9.24,4.65,9.24,4.65,-4.65,-4.68,-4.27,4.60,4.60,4.60
351.23,9.17,4.58,9.17,4.57,-4.57,-4.59,-4.18,4.60,4.59,4.60
354.74,9.09,4.50,9.09,4.50,-4.50,-4.50,-4.10,4.59,4.59,4.60
358.28,9.01,4.44,9.01,4.43,-4.43,-4.40,-4.01,4.59,4.59,4.58
361.87,8.93,4.36,8.93,4.36,-4.35,-4.31,-3.93,4.58,4.58,4.58
365.49,8.85,4.28,8.86,4.28,-4.28,-4.22,-3.86,4.57,4.57,4.58
369.14,8.78,4.22,8.78,4.21,-4.22,-4.12,-3.78,4.57,4.56,4.57
372.83,8.71,4.15,8.71,4.15,-4.15,-4.03,-3.71,4.56,4.56,4.57
376.56,8.64,4.09,8.64,4.09,-4.09,-3.94,-3.64,4.55,4.55,4.56
380.33,8.57,4.03,8.57,4.03,-4.03,-3.84,-3.58,4.55,4.55,4.55
384.13,8.50,3.97,8.51,3.97,-3.97,-3.75,-3.52,4.54,4.54,4.54
387.97,8.44,3.92,8.44,3.91,-3.91,-3.66,-3.46,4.54,4.53,4.53
391.85,8.37,3.86,8.38,3.85,-3.85,-3.57,-3.40,4.53,4.53,4.52
395.77,8.31,3.79,8.31,3.79,-3.79,-3.47,-3.35,4.53,4.52,4.53
399.73,8.24,3.73,8.24,3.72,-3.73,-3.38,-3.29,4.52,4.51,4.52
403.72,8.16,3.66,8.17,3.66,-3.67,-3.29,-3.24,4.50,4.50,4.51
407.76,8.10,3.61,8.10,3.60,-3.61,-3.20,-3.19,4.50,4.50,4.50
411.84,8.04,3.54,8.04,3.55,-3.55,-3.11,-3.15,4.49,4.50,4.51
415.96,7.99,3.51,7.99,3.49,-3.49,-3.02,-3.10,4.50,4.49,4.49
420.12,7.92,3.44,7.92,3.43,-3.43,-2.93,-3.05,4.49,4.49,4.49
424.32,7.85,3.37,7.86,3.38,-3.37,-2.84,-3.01,4.48,4.48,4.49
428.56,7.79,3.32,7.80,3.32,-3.31,-2.75,-2.97,4.48,4.48,4.48
432.85,7.74,3.27,7.74,3.26,-3.25,-2.66,-2.92,4.49,4.49,4.48
437.18,7.68,3.21,7.68,3.20,-3.19,-2.58,-2.88,4.49,4.49,4.48
441.55,7.60,3.12,7.61,3.13,-3.13,-2.49,-2.84,4.48,4.48,4.49
445.96,7.53,3.05,7.54,3.05,-3.06,-2.40,-2.80,4.47,4.47,4.49
450.42,7.47,3.00,7.47,2.99,-3.00,-2.31,-2.75,4.48,4.48,4.48
454.93,7.41,2.93,7.42,2.93,-2.93,-2.23,-2.71,4.48,4.49,4.49
459.48,7.36,2.88,7.36,2.87,-2.86,-2.14,-2.66,4.50,4.50,4.49
464.07,7.30,2.81,7.30,2.80,-2.80,-2.05,-2.62,4.50,4.50,4.50
468.71,7.23,2.73,7.23,2.73,-2.73,-1.97,-2.57,4.50,4.50,4.51
473.40,7.16,2.67,7.17,2.66,-2.67,-1.88,-2.52,4.50,4.50,4.50
478.13,7.10,2.60,7.11,2.60,-2.60,-1.80,-2.46,4.50,4.51,4.51
482.91,7.05,2.55,7.05,2.54,-2.53,-1.72,-2.41,4.52,4.51,4.51
487.74,6.99,2.48,6.99,2.47,-2.47,-1.63,-2.35,4.52,4.52,4.52
492.62,6.92,2.40,6.93,2.40,-2.41,-1.55,-2.29,4.52,4.52,4.53
497.55,6.86,2.34,6.87,2.34,-2.35,-1.46,-2.23,4.52,4.52,4.53
502.52,6.81,2.28,6.81,2.28,-2.29,-1.38,-2.17,4.53,4.52,4.54
