frequency,raw,error,smoothed,error_smoothed,equalization,parametric_eq,fixed_band_eq,equalized_raw,equalized_smoothed,target
20.00,-5.05,-15.10,-5.11,-15.19,15.19,12.33,5.57,10.14,10.08,10.05
20.20,-4.99,-15.07,-5.00,-15.09,15.09,12.61,5.70,10.10,10.10,10.08
20.40,-4.90,-15.01,-4.88,-15.00,15.00,12.89,5.84,10.10,10.12,10.11
20.61,-4.79,-14.92,-4.77,-14.90,14.90,13.16,5.99,10.11,10.14,10.13
20.81,-4.69,-14.85,-4.66,-14.81,14.81,13.42,6.13,10.12,10.15,10.16
21.02,-4.58,-14.77,-4.54,-14.71,14.71,13.67,6.28,10.13,10.17,10.19
21.23,-4.47,-14.67,-4.43,-14.61,14.61,13.90,6.44,10.15,10.18,10.20
21.44,-4.31,-14.52,-4.32,-14.52,14.52,14.12,6.60,10.21,10.20,10.21
21.66,-4.20,-14.42,-4.21,-14.42,14.42,14.31,6.76,10.22,10.21,10.22
21.87,-4.09,-14.31,-4.10,-14.32,14.32,14.48,6.93,10.23,10.21,10.22
22.09,-3.99,-14.22,-3.99,-14.22,14.22,14.61,7.10,10.23,10.22,10.23
22.31,-3.88,-14.11,-3.89,-14.11,14.11,14.72,7.28,10.24,10.23,10.23
22.54,-3.77,-14.00,-3.77,-14.00,14.00,14.79,7.46,10.23,10.23,10.23
22.76,-3.66,-13.89,-3.66,-13.89,13.89,14.83,7.65,10.23,10.23,10.23
22.99,-3.55,-13.77,-3.56,-13.78,13.78,14.83,7.84,10.24,10.23,10.22
23.22,-3.46,-13.68,-3.45,-13.68,13.68,14.79,8.04,10.22,10.23,10.22
23.45,-3.36,-13.57,-3.35,-13.57,13.57,14.72,8.24,10.21,10.22,10.22
23.69,-3.25,-13.47,-3.25,-13.47,13.47,14.62,8.44,10.22,10.22,10.21
23.92,-3.15,-13.36,-3.15,-13.37,13.37,14.49,8.65,10.22,10.22,10.21
24.16,-3.05,-13.27,-3.05,-13.27,13.27,14.34,8.87,10.22,10.22,10.22
24.40,-2.97,-13.19,-2.96,-13.17,13.17,14.16,9.09,10.20,10.21,10.22
24.65,-2.86,-13.07,-2.86,-13.07,13.07,13.97,9.31,10.21,10.21,10.21
24.89,-2.75,-12.96,-2.76,-12.97,12.97,13.76,9.54,10.23,10.21,10.21
25.14,-2.67,-12.88,-2.67,-12.88,12.88,13.54,9.78,10.21,10.21,10.21
25.39,-2.58,-12.79,-2.57,-12.78,12.78,13.32,10.01,10.20,10.21,10.21
25.65,-2.47,-12.68,-2.48,-12.68,12.68,13.09,10.26,10.21,10.21,10.21
25.91,-2.38,-12.58,-2.38,-12.59,12.59,12.86,10.50,10.21,10.20,10.20
26.16,-2.30,-12.49,-2.29,-12.49,12.49,12.62,10.75,10.19,10.20,10.19
26.43,-2.19,-12.38,-2.20,-12.39,12.39,12.39,11.00,10.20,10.20,10.19
26.69,-2.10,-12.29,-2.10,-12.29,12.29,12.16,11.25,10.19,10.19,10.19
26.96,-2.02,-12.21,-2.00,-12.19,12.19,11.94,11.50,10.17,10.19,10.19
27.23,-1.91,-12.10,-1.91,-12.09,12.09,11.72,11.75,10.18,10.19,10.19
27.50,-1.81,-12.00,-1.81,-12.00,12.00,11.51,12.00,10.19,10.18,10.19
27.77,-1.71,-11.88,-1.72,-11.89,11.89,11.30,12.24,10.19,10.18,10.18
28.05,-1.63,-11.80,-1.62,-11.79,11.79,11.10,12.47,10.16,10.17,10.18
28.33,-1.52,-11.68,-1.52,-11.69,11.69,10.90,12.70,10.17,10.17,10.16
28.62,-1.41,-11.57,-1.42,-11.58,11.58,10.72,12.92,10.17,10.16,10.16
28.90,-1.32,-11.48,-1.32,-11.48,11.48,10.54,13.12,10.16,10.16,10.16
29.19,-1.22,-11.37,-1.22,-11.37,11.37,10.37,13.31,10.15,10.16,10.15
29.48,-1.11,-11.26,-1.11,-11.26,11.26,10.21,13.48,10.15,10.15,10.16
29.78,-1.02,-11.16,-1.01,-11.15,11.15,10.06,13.63,10.13,10.14,10.14
30.08,-0.91,-11.05,-0.91,-11.04,11.04,9.91,13.75,10.13,10.14,10.14
30.38,-0.80,-10.93,-0.80,-10.93,10.93,9.78,13.85,10.13,10.13,10.13
30.68,-0.69,-10.82,-0.70,-10.82,10.82,9.65,13.91,10.13,10.13,10.13
30.99,-0.60,-10.72,-0.59,-10.71,10.71,9.53,13.95,10.11,10.12,10.12
31.30,-0.50,-10.61,-0.49,-10.60,10.60,9.42,13.96,10.10,10.11,10.11
31.61,-0.39,-10.50,-0.38,-10.49,10.49,9.32,13.94,10.10,10.11,10.11
31.93,-0.28,-10.38,-0.28,-10.38,10.38,9.23,13.89,10.10,10.10,10.10
32.24,-0.17,-10.25,-0.18,-10.27,10.27,9.15,13.81,10.10,10.09,10.09
32.57,-0.07,-10.15,-0.08,-10.16,10.16,9.07,13.71,10.09,10.08,10.08
32.89,0.02,-10.06,0.02,-10.06,10.06,9.01,13.58,10.08,10.08,10.08
33.22,0.13,-9.94,0.12,-9.95,9.95,8.95,13.43,10.08,10.07,10.07
33.55,0.21,-9.85,0.21,-9.85,9.85,8.90,13.26,10.06,10.06,10.06
33.89,0.30,-9.75,0.30,-9.75,9.75,8.86,13.08,10.05,10.05,10.05
34.23,0.41,-9.64,0.39,-9.65,9.65,8.82,12.88,10.06,10.04,10.05
34.57,0.47,-9.56,0.48,-9.56,9.56,8.79,12.67,10.03,10.03,10.03
34.92,0.57,-9.45,0.56,-9.46,9.46,8.77,12.46,10.03,10.02,10.02
35.27,0.64,-9.38,0.65,-9.37,9.37,8.76,12.23,10.01,10.01,10.02
35.62,0.73,-9.27,0.73,-9.27,9.27,8.75,12.01,10.00,10.00,10.00
35.97,0.82,-9.17,0.82,-9.18,9.18,8.75,11.78,10.00,9.99,9.99
36.33,0.88,-9.10,0.90,-9.08,9.08,8.76,11.55,9.96,9.98,9.98
36.70,0.99,-8.98,0.99,-8.98,8.98,8.76,11.32,9.97,9.97,9.97
37.06,1.05,-8.90,1.08,-8.88,8.88,8.77,11.09,9.93,9.96,9.96
37.43,1.16,-8.79,1.17,-8.78,8.78,8.79,10.87,9.94,9.95,9.95
37.81,1.22,-8.71,1.26,-8.68,8.68,8.80,10.65,9.90,9.93,9.94
38.19,1.33,-8.59,1.34,-8.58,8.58,8.82,10.43,9.91,9.92,9.92
38.57,1.44,-8.47,1.43,-8.48,8.48,8.83,10.22,9.92,9.91,9.91
38.95,1.50,-8.40,1.52,-8.38,8.38,8.84,10.01,9.88,9.90,9.90
39.34,1.60,-8.28,1.60,-8.29,8.29,8.85,9.80,9.89,9.89,9.88
39.74,1.67,-8.20,1.67,-8.21,8.21,8.86,9.60,9.88,9.88,9.87
40.14,1.75,-8.11,1.74,-8.13,8.13,8.85,9.41,9.88,9.86,9.86
40.54,1.82,-8.02,1.80,-8.06,8.06,8.84,9.22,9.88,9.85,9.84
40.94,1.88,-7.96,1.84,-7.99,7.99,8.82,9.04,9.88,9.84,9.84
41.35,1.91,-7.91,1.88,-7.94,7.94,8.79,8.86,9.85,9.83,9.82
41.76,1.95,-7.86,1.91,-7.90,7.90,8.75,8.69,9.85,9.81,9.81
42.18,1.96,-7.85,1.93,-7.87,7.87,8.69,8.53,9.83,9.80,9.81
42.60,1.96,-7.83,1.94,-7.84,7.84,8.63,8.37,9.80,9.78,9.79
43.03,1.96,-7.82,1.94,-7.82,7.82,8.55,8.21,9.78,9.77,9.78
43.46,1.96,-7.80,1.94,-7.81,7.81,8.46,8.06,9.77,9.75,9.76
43.90,1.96,-7.77,1.94,-7.80,7.80,8.36,7.92,9.76,9.74,9.73
44.33,1.93,-7.78,1.93,-7.79,7.79,8.24,7.78,9.72,9.72,9.71
44.78,1.91,-7.78,1.93,-7.77,7.77,8.12,7.65,9.68,9.70,9.70
45.23,1.91,-7.76,1.93,-7.75,7.75,7.99,7.52,9.66,9.68,9.68
45.68,1.91,-7.74,1.95,-7.72,7.72,7.86,7.39,9.63,9.66,9.66
46.13,1.95,-7.68,1.97,-7.68,7.68,7.71,7.27,9.63,9.64,9.63
46.60,1.96,-7.66,2.00,-7.62,7.62,7.57,7.16,9.58,9.62,9.62
47.06,2.02,-7.58,2.05,-7.55,7.55,7.42,7.05,9.57,9.60,9.60
47.53,2.07,-7.51,2.11,-7.46,7.46,7.27,6.94,9.53,9.57,9.58
48.01,2.16,-7.41,2.19,-7.36,7.36,7.12,6.84,9.52,9.55,9.57
48.49,2.24,-7.30,2.28,-7.25,7.25,6.98,6.75,9.49,9.53,9.54
48.97,2.35,-7.15,2.38,-7.12,7.12,6.83,6.65,9.47,9.50,9.50
49.46,2.46,-7.01,2.49,-6.98,6.98,6.69,6.56,9.44,9.48,9.47
49.96,2.59,-6.85,2.61,-6.84,6.84,6.56,6.48,9.43,9.45,9.44
50.46,2.74,-6.68,2.74,-6.69,6.69,6.43,6.39,9.43,9.42,9.42
50.96,2.86,-6.54,2.86,-6.53,6.53,6.31,6.31,9.39,9.40,9.40
51.47,3.01,-6.35,2.99,-6.38,6.38,6.20,6.23,9.39,9.37,9.36
51.99,3.12,-6.22,3.10,-6.24,6.24,6.10,6.16,9.36,9.34,9.34
52.51,3.25,-6.07,3.21,-6.10,6.10,6.00,6.08,9.35,9.31,9.32
53.03,3.34,-5.95,3.31,-5.98,5.98,5.92,6.01,9.32,9.29,9.29
53.56,3.43,-5.83,3.39,-5.86,5.86,5.84,5.94,9.30,9.26,9.26
54.10,3.50,-5.74,3.46,-5.77,5.77,5.78,5.87,9.27,9.23,9.24
54.64,3.56,-5.65,3.51,-5.69,5.69,5.73,5.80,9.25,9.21,9.21
55.18,3.59,-5.59,3.55,-5.63,5.63,5.69,5.73,9.22,9.18,9.18
55.74,3.60,-5.55,3.57,-5.59,5.59,5.65,5.66,9.19,9.15,9.15
56.29,3.60,-5.53,3.57,-5.56,5.56,5.63,5.59,9.16,9.13,9.13
56.86,3.59,-5.50,3.56,-5.54,5.54,5.62,5.52,9.13,9.10,9.10
57.42,3.56,-5.50,3.54,-5.53,5.53,5.62,5.45,9.09,9.07,9.06
58.00,3.52,-5.52,3.52,-5.53,5.53,5.63,5.37,9.05,9.04,9.04
58.58,3.48,-5.54,3.49,-5.52,5.52,5.64,5.30,9.00,9.01,9.02
59.16,3.45,-5.54,3.47,-5.51,5.51,5.66,5.22,8.96,8.98,8.99
59.76,3.40,-5.57,3.45,-5.50,5.50,5.69,5.14,8.90,8.95,8.97
60.35,3.36,-5.57,3.44,-5.48,5.48,5.71,5.06,8.84,8.92,8.93
60.96,3.36,-5.54,3.43,-5.46,5.46,5.74,4.97,8.82,8.89,8.90
61.57,3.36,-5.50,3.43,-5.43,5.43,5.76,4.88,8.79,8.86,8.86
62.18,3.38,-5.44,3.43,-5.40,5.40,5.78,4.78,8.78,8.83,8.82
62.80,3.43,-5.36,3.43,-5.37,5.37,5.78,4.69,8.80,8.79,8.79
63.43,3.47,-5.28,3.43,-5.33,5.33,5.77,4.59,8.80,8.76,8.75
64.07,3.50,-5.22,3.43,-5.30,5.30,5.73,4.48,8.80,8.72,8.72
64.71,3.54,-5.15,3.43,-5.26,5.26,5.68,4.37,8.80,8.69,8.69
65.35,3.54,-5.11,3.43,-5.22,5.22,5.61,4.26,8.76,8.65,8.65
66.01,3.54,-5.08,3.44,-5.18,5.18,5.50,4.14,8.72,8.62,8.62
66.67,3.54,-5.04,3.46,-5.12,5.12,5.38,4.02,8.66,8.58,8.59
67.33,3.51,-5.04,3.50,-5.05,5.05,5.22,3.90,8.56,8.55,8.55
68.01,3.50,-5.01,3.55,-4.96,4.96,5.04,3.78,8.46,8.51,8.51
68.69,3.53,-4.95,3.62,-4.86,4.86,4.84,3.65,8.39,8.48,8.48
69.37,3.58,-4.86,3.71,-4.73,4.73,4.62,3.52,8.31,8.44,8.44
70.07,3.68,-4.72,3.83,-4.57,4.57,4.39,3.38,8.25,8.40,8.40
70.77,3.83,-4.54,3.98,-4.38,4.38,4.14,3.24,8.21,8.36,8.37
71.48,4.03,-4.30,4.16,-4.17,4.17,3.89,3.11,8.20,8.32,8.33
72.19,4.29,-3.99,4.36,-3.93,3.93,3.62,2.97,8.22,8.28,8.28
72.91,4.54,-3.70,4.58,-3.66,3.66,3.36,2.82,8.20,8.24,8.24
73.64,4.83,-3.37,4.83,-3.38,3.38,3.10,2.68,8.21,8.20,8.20
74.38,5.13,-3.03,5.09,-3.08,3.08,2.84,2.54,8.21,8.16,8.16
75.12,5.42,-2.69,5.36,-2.77,2.77,2.58,2.39,8.19,8.12,8.12
75.87,5.71,-2.37,5.62,-2.46,2.46,2.32,2.24,8.17,8.08,8.08
76.63,5.97,-2.07,5.89,-2.15,2.15,2.08,2.09,8.13,8.04,8.04
77.40,6.22,-1.78,6.14,-1.86,1.86,1.84,1.95,8.08,8.00,8.00
78.17,6.45,-1.50,6.39,-1.57,1.57,1.61,1.80,8.02,7.96,7.95
78.95,6.65,-1.27,6.62,-1.30,1.30,1.38,1.65,7.95,7.92,7.92
79.74,6.84,-1.04,6.83,-1.04,1.04,1.16,1.50,7.88,7.88,7.88
80.54,7.04,-0.79,7.03,-0.80,0.80,0.95,1.35,7.84,7.83,7.84
81.35,7.21,-0.58,7.22,-0.57,0.57,0.75,1.20,7.78,7.79,7.79
82.16,7.37,-0.38,7.39,-0.36,0.36,0.56,1.04,7.73,7.75,7.75
82.98,7.52,-0.19,7.55,-0.16,0.16,0.37,0.89,7.68,7.70,7.71
83.81,7.67,0.02,7.70,0.04,-0.04,0.19,0.74,7.63,7.66,7.66
84.65,7.84,0.23,7.84,0.23,-0.23,0.02,0.59,7.61,7.61,7.61
85.50,7.98,0.41,7.98,0.41,-0.41,-0.15,0.44,7.57,7.57,7.57
86.35,8.12,0.60,8.10,0.58,-0.58,-0.31,0.28,7.54,7.52,7.52
87.22,8.23,0.76,8.22,0.75,-0.75,-0.47,0.13,7.48,7.47,7.47
88.09,8.34,0.92,8.33,0.91,-0.91,-0.62,-0.02,7.43,7.42,7.42
88.97,8.44,1.06,8.44,1.07,-1.07,-0.76,-0.18,7.37,7.37,7.38
89.86,8.55,1.22,8.54,1.22,-1.22,-0.90,-0.33,7.33,7.32,7.33
90.76,8.63,1.37,8.63,1.36,-1.36,-1.04,-0.48,7.27,7.27,7.27
91.66,8.72,1.50,8.72,1.50,-1.50,-1.17,-0.64,7.22,7.22,7.22
92.58,8.80,1.64,8.80,1.64,-1.64,-1.30,-0.80,7.16,7.16,7.16
93.51,8.88,1.77,8.88,1.77,-1.77,-1.42,-0.95,7.11,7.11,7.11
94.44,8.93,1.87,8.95,1.90,-1.90,-1.54,-1.11,7.04,7.06,7.06
95.39,9.01,2.01,9.02,2.02,-2.02,-1.65,-1.26,6.99,7.00,7.00
96.34,9.07,2.13,9.09,2.14,-2.14,-1.77,-1.42,6.93,6.94,6.94
97.30,9.14,2.26,9.15,2.26,-2.26,-1.88,-1.58,6.88,6.89,6.88
98.28,9.21,2.38,9.21,2.38,-2.38,-1.98,-1.73,6.83,6.83,6.83
99.26,9.26,2.49,9.26,2.49,-2.49,-2.09,-1.89,6.77,6.77,6.77
100.25,9.31,2.60,9.32,2.60,-2.60,-2.19,-2.05,6.71,6.71,6.71
101.25,9.37,2.72,9.36,2.71,-2.71,-2.29,-2.20,6.66,6.66,6.65
102.27,9.41,2.81,9.41,2.81,-2.81,-2.38,-2.36,6.60,6.60,6.60
103.29,9.47,2.94,9.45,2.91,-2.91,-2.48,-2.51,6.56,6.54,6.53
104.32,9.50,3.02,9.49,3.01,-3.01,-2.57,-2.66,6.49,6.48,6.48
105.37,9.52,3.10,9.52,3.10,-3.10,-2.66,-2.82,6.42,6.42,6.42
106.42,9.56,3.19,9.55,3.19,-3.19,-2.74,-2.97,6.37,6.36,6.37
107.48,9.56,3.25,9.58,3.28,-3.28,-2.83,-3.11,6.28,6.30,6.31
108.56,9.61,3.37,9.60,3.36,-3.36,-2.91,-3.26,6.25,6.24,6.24
109.64,9.61,3.43,9.62,3.44,-3.44,-2.99,-3.40,6.17,6.18,6.18
110.74,9.64,3.52,9.64,3.52,-3.52,-3.07,-3.54,6.12,6.12,6.13
111.85,9.65,3.58,9.65,3.60,-3.60,-3.15,-3.67,6.05,6.06,6.07
112.97,9.65,3.66,9.67,3.67,-3.67,-3.23,-3.80,5.98,6.00,5.99
114.10,9.66,3.73,9.67,3.74,-3.74,-3.30,-3.92,5.92,5.93,5.94
115.24,9.68,3.81,9.68,3.81,-3.81,-3.38,-4.04,5.87,5.87,5.87
116.39,9.68,3.88,9.68,3.88,-3.88,-3.45,-4.15,5.80,5.81,5.80
117.55,9.68,3.94,9.68,3.94,-3.94,-3.52,-4.25,5.74,5.74,5.74
118.73,9.65,3.98,9.68,4.00,-4.00,-3.59,-4.35,5.65,5.68,5.67
119.92,9.65,4.03,9.67,4.05,-4.05,-3.65,-4.44,5.60,5.62,5.62
121.12,9.65,4.10,9.64,4.09,-4.09,-3.72,-4.52,5.56,5.56,5.55
122.33,9.61,4.12,9.61,4.12,-4.12,-3.78,-4.60,5.49,5.49,5.49
123.55,9.58,4.14,9.57,4.14,-4.14,-3.85,-4.66,5.44,5.43,5.44
124.79,9.54,4.16,9.51,4.14,-4.14,-3.91,-4.72,5.40,5.37,5.38
126.03,9.49,4.18,9.44,4.13,-4.13,-3.97,-4.77,5.36,5.31,5.32
127.29,9.42,4.17,9.35,4.10,-4.10,-4.02,-4.80,5.32,5.25,5.25
128.57,9.32,4.14,9.24,4.05,-4.05,-4.08,-4.84,5.27,5.19,5.18
129.85,9.22,4.10,9.13,4.00,-4.00,-4.14,-4.86,5.22,5.13,5.13
131.15,9.09,4.02,9.01,3.94,-3.94,-4.19,-4.87,5.15,5.07,5.07
132.46,8.97,3.96,8.90,3.89,-3.89,-4.24,-4.88,5.08,5.01,5.01
133.79,8.81,3.85,8.80,3.84,-3.84,-4.30,-4.88,4.97,4.96,4.96
135.12,8.67,3.77,8.71,3.81,-3.81,-4.35,-4.88,4.86,4.90,4.90
136.48,8.55,3.70,8.65,3.80,-3.80,-4.40,-4.87,4.75,4.85,4.85
137.84,8.45,3.65,8.60,3.80,-3.80,-4.44,-4.85,4.65,4.80,4.80
139.22,8.37,3.64,8.57,3.82,-3.82,-4.49,-4.83,4.55,4.75,4.74
140.61,8.36,3.68,8.56,3.87,-3.87,-4.53,-4.81,4.49,4.70,4.68
142.02,8.44,3.79,8.58,3.93,-3.93,-4.58,-4.78,4.51,4.65,4.65
143.44,8.54,3.94,8.61,4.01,-4.01,-4.62,-4.75,4.53,4.60,4.60
144.87,8.68,4.13,8.66,4.11,-4.11,-4.66,-4.72,4.57,4.55,4.55
146.32,8.80,4.30,8.72,4.22,-4.22,-4.70,-4.69,4.58,4.51,4.50
147.78,8.91,4.44,8.79,4.34,-4.34,-4.74,-4.65,4.57,4.46,4.47
149.26,9.00,4.58,8.87,4.46,-4.46,-4.77,-4.62,4.54,4.41,4.42
150.75,9.04,4.68,8.94,4.57,-4.57,-4.81,-4.58,4.47,4.37,4.36
152.26,9.05,4.73,9.00,4.68,-4.68,-4.84,-4.55,4.37,4.32,4.32
153.78,9.10,4.82,9.05,4.78,-4.78,-4.87,-4.51,4.32,4.27,4.28
155.32,9.10,4.88,9.09,4.87,-4.87,-4.90,-4.48,4.23,4.23,4.22
156.88,9.10,4.92,9.11,4.93,-4.93,-4.93,-4.45,4.17,4.18,4.18
158.44,9.10,4.97,9.11,4.98,-4.98,-4.96,-4.42,4.12,4.13,4.13
160.03,9.08,5.00,9.10,5.01,-5.01,-4.98,-4.39,4.07,4.09,4.08
161.63,9.05,5.02,9.07,5.03,-5.03,-5.01,-4.37,4.02,4.04,4.03
163.24,9.01,5.02,9.02,5.03,-5.03,-5.03,-4.35,3.98,3.99,3.99
164.88,8.98,5.03,8.97,5.02,-5.02,-5.05,-4.33,3.96,3.95,3.95
166.53,8.93,5.03,8.91,5.00,-5.00,-5.07,-4.31,3.93,3.90,3.90
168.19,8.89,5.03,8.84,4.98,-4.98,-5.09,-4.30,3.91,3.86,3.86
169.87,8.82,5.01,8.76,4.95,-4.95,-5.11,-4.29,3.87,3.81,3.82
171.57,8.76,4.99,8.69,4.92,-4.92,-5.12,-4.28,3.84,3.77,3.77
173.29,8.65,4.92,8.61,4.89,-4.89,-5.13,-4.28,3.76,3.73,3.73
175.02,8.57,4.88,8.55,4.87,-4.87,-5.15,-4.28,3.70,3.68,3.69
176.77,8.44,4.80,8.49,4.85,-4.85,-5.16,-4.29,3.59,3.64,3.64
178.54,8.34,4.75,8.44,4.85,-4.85,-5.17,-4.29,3.49,3.60,3.59
180.32,8.28,4.73,8.40,4.85,-4.85,-5.17,-4.30,3.43,3.55,3.55
182.13,8.26,4.75,8.38,4.87,-4.87,-5.18,-4.32,3.39,3.51,3.51
183.95,8.26,4.79,8.36,4.89,-4.89,-5.19,-4.34,3.37,3.47,3.47
185.79,8.30,4.87,8.35,4.93,-4.93,-5.19,-4.36,3.38,3.43,3.43
187.65,8.33,4.95,8.35,4.97,-4.97,-5.19,-4.38,3.37,3.39,3.39
189.52,8.40,5.05,8.37,5.01,-5.01,-5.19,-4.41,3.39,3.35,3.35
191.42,8.44,5.12,8.38,5.07,-5.07,-5.19,-4.44,3.37,3.32,3.32
193.33,8.49,5.21,8.40,5.12,-5.12,-5.19,-4.47,3.37,3.28,3.28
195.27,8.49,5.24,8.43,5.18,-5.18,-5.18,-4.51,3.31,3.25,3.25
197.22,8.49,5.27,8.45,5.23,-5.23,-5.18,-4.55,3.26,3.22,3.22
199.19,8.49,5.31,8.46,5.27,-5.27,-5.17,-4.59,3.22,3.19,3.18
201.18,8.49,5.33,8.46,5.30,-5.30,-5.16,-4.63,3.19,3.16,3.16
203.19,8.45,5.31,8.46,5.32,-5.32,-5.15,-4.68,3.13,3.14,3.14
205.23,8.44,5.33,8.45,5.33,-5.33,-5.14,-4.73,3.11,3.11,3.11
207.28,8.41,5.31,8.43,5.34,-5.34,-5.13,-4.77,3.08,3.09,3.10
209.35,8.40,5.33,8.40,5.33,-5.33,-5.11,-4.82,3.07,3.07,3.07
211.44,8.35,5.30,8.37,5.32,-5.32,-5.10,-4.87,3.04,3.05,3.05
213.56,8.34,5.30,8.34,5.30,-5.30,-5.08,-4.92,3.04,3.04,3.04
215.69,8.30,5.27,8.31,5.28,-5.28,-5.06,-4.97,3.02,3.03,3.03
217.85,8.27,5.25,8.28,5.26,-5.26,-5.05,-5.02,3.01,3.02,3.02
220.03,8.24,5.24,8.25,5.24,-5.24,-5.03,-5.06,3.00,3.01,3.00
222.23,8.21,5.22,8.21,5.21,-5.21,-5.00,-5.11,3.00,3.00,2.99
224.45,8.18,5.19,8.18,5.19,-5.19,-4.98,-5.15,2.99,2.99,2.99
226.70,8.15,5.16,8.15,5.16,-5.16,-4.96,-5.19,2.99,2.99,2.99
228.96,8.12,5.13,8.12,5.13,-5.13,-4.93,-5.23,2.99,2.99,2.99
231.25,8.07,5.08,8.08,5.10,-5.10,-4.91,-5.26,2.98,2.99,2.99
233.57,8.06,5.07,8.05,5.06,-5.06,-4.88,-5.28,3.00,2.99,2.99
235.90,8.02,5.03,8.02,5.03,-5.03,-4.85,-5.31,3.00,2.99,2.99
238.26,7.98,4.99,7.98,4.99,-4.99,-4.82,-5.32,2.99,2.99,2.99
240.64,7.94,4.94,7.95,4.95,-4.95,-4.79,-5.33,2.99,3.00,3.00
243.05,7.91,4.90,7.92,4.91,-4.91,-4.76,-5.34,3.00,3.01,3.01
245.48,7.88,4.86,7.89,4.87,-4.87,-4.73,-5.33,3.01,3.02,3.02
247.93,7.85,4.82,7.85,4.83,-4.83,-4.70,-5.32,3.02,3.03,3.03
250.41,7.82,4.79,7.82,4.78,-4.78,-4.66,-5.31,3.04,3.04,3.03
252.92,7.79,4.74,7.79,4.74,-4.74,-4.63,-5.29,3.05,3.05,3.05
255.45,7.75,4.68,7.76,4.69,-4.69,-4.59,-5.26,3.06,3.07,3.07
258.00,7.74,4.66,7.73,4.65,-4.65,-4.56,-5.22,3.09,3.08,3.08
260.58,7.70,4.61,7.69,4.60,-4.60,-4.52,-5.17,3.10,3.10,3.09
263.19,7.66,4.54,7.66,4.55,-4.55,-4.48,-5.12,3.11,3.11,3.12
265.82,7.63,4.50,7.63,4.50,-4.50,-4.44,-5.07,3.13,3.13,3.13
268.48,7.60,4.45,7.60,4.45,-4.45,-4.40,-5.01,3.15,3.15,3.15
271.16,7.57,4.40,7.56,4.40,-4.40,-4.36,-4.94,3.17,3.17,3.17
273.87,7.53,4.34,7.53,4.34,-4.34,-4.32,-4.87,3.19,3.19,3.19
276.61,7.50,4.29,7.50,4.29,-4.29,-4.28,-4.79,3.21,3.20,3.21
279.38,7.46,4.24,7.46,4.24,-4.24,-4.24,-4.71,3.22,3.22,3.22
282.17,7.42,4.18,7.43,4.19,-4.19,-4.19,-4.63,3.23,3.24,3.24
284.99,7.39,4.13,7.40,4.14,-4.14,-4.15,-4.54,3.25,3.26,3.26
287.84,7.37,4.09,7.36,4.08,-4.08,-4.11,-4.46,3.29,3.28,3.28
290.72,7.32,4.02,7.33,4.03,-4.03,-4.06,-4.37,3.29,3.30,3.30
293.63,7.29,3.97,7.30,3.98,-3.98,-4.02,-4.27,3.31,3.32,3.32
296.57,7.26,3.92,7.27,3.93,-3.93,-3.97,-4.18,3.33,3.34,3.34
299.53,7.23,3.87,7.23,3.87,-3.87,-3.92,-4.09,3.36,3.36,3.36
302.53,7.20,3.83,7.20,3.81,-3.81,-3.88,-4.00,3.39,3.38,3.37
305.55,7.17,3.76,7.16,3.75,-3.75,-3.83,-3.90,3.42,3.41,3.41
308.61,7.14,3.72,7.12,3.69,-3.69,-3.78,-3.81,3.45,3.43,3.42
311.69,7.08,3.63,7.08,3.63,-3.63,-3.73,-3.72,3.45,3.45,3.45
314.81,7.05,3.57,7.04,3.57,-3.57,-3.68,-3.63,3.48,3.47,3.49
317.96,7.00,3.50,7.00,3.50,-3.50,-3.64,-3.54,3.50,3.49,3.50
321.14,6.96,3.44,6.94,3.43,-3.43,-3.59,-3.45,3.54,3.52,3.52
324.35,6.89,3.36,6.88,3.35,-3.35,-3.54,-3.37,3.54,3.54,3.53
327.59,6.83,3.27,6.82,3.27,-3.27,-3.49,-3.28,3.56,3.56,3.56
330.87,6.78,3.20,6.77,3.19,-3.19,-3.43,-3.20,3.59,3.58,3.58
334.18,6.75,3.16,6.71,3.11,-3.11,-3.38,-3.12,3.64,3.60,3.59
337.52,6.69,3.08,6.66,3.04,-3.04,-3.33,-3.04,3.65,3.62,3.61
340.90,6.64,3.00,6.62,2.98,-2.98,-3.28,-2.96,3.66,3.64,3.64
344.30,6.55,2.90,6.58,2.93,-2.93,-3.23,-2.89,3.63,3.65,3.66
347.75,6.46,2.79,6.55,2.88,-2.88,-3.18,-2.82,3.59,3.67,3.67
351.23,6.41,2.72,6.52,2.83,-2.83,-3.12,-2.75,3.58,3.69,3.69
354.74,6.40,2.69,6.50,2.79,-2.79,-3.07,-2.68,3.61,3.71,3.71
358.28,6.44,2.72,6.47,2.75,-2.75,-3.02,-2.61,3.69,3.72,3.73
361.87,6.48,2.74,6.46,2.72,-2.72,-2.96,-2.55,3.76,3.74,3.74
365.49,6.50,2.74,6.44,2.69,-2.69,-2.91,-2.49,3.82,3.76,3.76
369.14,6.48,2.71,6.43,2.66,-2.66,-2.85,-2.43,3.82,3.77,3.77
372.83,6.48,2.69,6.42,2.63,-2.63,-2.80,-2.37,3.85,3.79,3.79
376.56,6.45,2.66,6.41,2.61,-2.61,-2.74,-2.32,3.84,3.80,3.79
380.33,6.44,2.62,6.40,2.58,-2.58,-2.69,-2.27,3.86,3.81,3.82
384.13,6.39,2.56,6.39,2.56,-2.56,-2.63,-2.21,3.83,3.83,3.83
387.97,6.35,2.51,6.37,2.53,-2.53,-2.58,-2.16,3.82,3.84,3.84
391.85,6.32,2.47,6.35,2.50,-2.50,-2.52,-2.12,3.82,3.85,3.85
395.77,6.30,2.44,6.33,2.46,-2.46,-2.46,-2.07,3.84,3.86,3.87
399.73,6.28,2.41,6.30,2.42,-2.42,-2.41,-2.02,3.86,3.87,3.87
403.72,6.25,2.37,6.27,2.38,-2.38,-2.35,-1.98,3.87,3.88,3.88
407.76,6.25,2.36,6.24,2.34,-2.34,-2.29,-1.94,3.91,3.89,3.89
411.84,6.20,2.29,6.21,2.30,-2.30,-2.23,-1.90,3.90,3.91,3.91
415.96,6.20,2.28,6.18,2.27,-2.27,-2.17,-1.85,3.93,3.92,3.92
420.12,6.16,2.23,6.16,2.23,-2.23,-2.11,-1.81,3.93,3.92,3.93
424.32,6.14,2.20,6.13,2.20,-2.20,-2.05,-1.77,3.94,3.93,3.94
428.56,6.11,2.17,6.11,2.16,-2.16,-1.99,-1.74,3.95,3.95,3.94
432.85,6.08,2.13,6.08,2.12,-2.12,-1.93,-1.70,3.96,3.96,3.95
437.18,6.05,2.09,6.05,2.09,-2.09,-1.87,-1.66,3.96,3.97,3.96
441.55,6.02,2.04,6.03,2.05,-2.05,-1.81,-1.62,3.97,3.98,3.98
445.96,5.99,2.00,6.00,2.01,-2.01,-1.74,-1.58,3.98,3.99,3.99
450.42,5.97,1.97,5.97,1.97,-1.97,-1.68,-1.54,4.00,4.00,4.00
454.93,5.92,1.90,5.94,1.93,-1.93,-1.62,-1.50,3.99,4.02,4.02
459.48,5.92,1.89,5.92,1.89,-1.89,-1.55,-1.46,4.04,4.03,4.03
464.07,5.88,1.83,5.89,1.84,-1.84,-1.48,-1.41,4.04,4.05,4.05
468.71,5.85,1.78,5.86,1.80,-1.80,-1.42,-1.37,4.06,4.06,4.07
473.40,5.82,1.75,5.82,1.75,-1.75,-1.35,-1.33,4.07,4.08,4.08
478.13,5.79,1.70,5.79,1.70,-1.70,-1.28,-1.28,4.09,4.09,4.09
482.91,5.76,1.66,5.75,1.65,-1.65,-1.21,-1.23,4.11,4.11,4.10
487.74,5.71,1.59,5.71,1.59,-1.59,-1.14,-1.18,4.12,4.12,4.12
492.62,5.67,1.53,5.67,1.54,-1.54,-1.07,-1.13,4.14,4.14,4.14
497.55,5.62,1.47,5.63,1.48,-1.48,-1.00,-1.07,4.14,4.15,4.15
502.52,5.56,1.39,5.58,1.41,-1.41,-0.92,-1.02,4.15,4.17,4.17
507.55,5.49,1.31,5.53,1.35,-1.35,-0.85,-0.96,4.14,4.19,4.18
512.62,5.43,1.23,5.46,1.26,-1.26,-0.77,-0.90,4.17,4.20,4.20
