frequency,raw,error,smoothed,error_smoothed,equalization,parametric_eq,fixed_band_eq,equalized_raw,equalized_smoothed,target
20.00,13.44,-2.47,13.44,-2.48,2.48,1.96,0.48,15.92,15.91,15.91
20.20,13.49,-2.42,13.49,-2.42,2.42,1.94,0.49,15.91,15.91,15.91
20.40,13.55,-2.36,13.55,-2.36,2.36,1.91,0.50,15.91,15.91,15.91
20.61,13.60,-2.31,13.60,-2.31,2.31,1.89,0.52,15.90,15.91,15.91
20.81,13.66,-2.24,13.65,-2.25,2.25,1.87,0.53,15.91,15.90,15.90
21.02,13.71,-2.19,13.71,-2.19,2.19,1.85,0.55,15.90,15.90,15.90
21.23,13.75,-2.15,13.76,-2.14,2.14,1.82,0.57,15.89,15.90,15.90
21.44,13.81,-2.10,13.81,-2.08,2.08,1.80,0.58,15.89,15.89,15.90
21.66,13.86,-2.04,13.86,-2.03,2.03,1.78,0.60,15.89,15.89,15.89
21.87,13.91,-1.98,13.91,-1.98,1.98,1.75,0.62,15.89,15.89,15.89
22.09,13.96,-1.92,13.96,-1.92,1.92,1.73,0.64,15.88,15.88,15.88
22.31,14.01,-1.87,14.01,-1.87,1.87,1.71,0.66,15.88,15.88,15.88
22.54,14.06,-1.81,14.06,-1.81,1.81,1.68,0.68,15.87,15.87,15.87
22.76,14.11,-1.76,14.11,-1.76,1.76,1.66,0.70,15.87,15.87,15.87
22.99,14.15,-1.72,14.15,-1.71,1.71,1.63,0.72,15.86,15.86,15.87
23.22,14.20,-1.66,14.20,-1.66,1.66,1.61,0.74,15.86,15.86,15.86
23.45,14.25,-1.61,14.24,-1.61,1.61,1.58,0.76,15.86,15.85,15.85
23.69,14.29,-1.56,14.29,-1.55,1.55,1.56,0.78,15.84,15.85,15.84
23.92,14.34,-1.49,14.33,-1.51,1.51,1.53,0.80,15.84,15.84,15.83
24.16,14.38,-1.45,14.38,-1.46,1.46,1.50,0.82,15.84,15.83,15.83
24.40,14.42,-1.41,14.42,-1.41,1.41,1.48,0.85,15.83,15.83,15.83
24.65,14.46,-1.37,14.46,-1.36,1.36,1.45,0.87,15.82,15.83,15.83
24.89,14.50,-1.33,14.51,-1.32,1.32,1.42,0.89,15.82,15.82,15.83
25.14,14.55,-1.27,14.55,-1.27,1.27,1.40,0.91,15.82,15.82,15.82
25.39,14.59,-1.22,14.59,-1.23,1.23,1.37,0.94,15.82,15.82,15.81
25.65,14.63,-1.18,14.63,-1.19,1.19,1.34,0.96,15.81,15.82,15.81
25.91,14.67,-1.14,14.67,-1.14,1.14,1.31,0.98,15.81,15.81,15.81
26.16,14.71,-1.11,14.71,-1.10,1.10,1.28,1.00,15.81,15.81,15.82
26.43,14.75,-1.07,14.75,-1.06,1.06,1.26,1.02,15.81,15.81,15.81
26.69,14.79,-1.02,14.79,-1.02,1.02,1.23,1.04,15.81,15.81,15.81
26.96,14.83,-0.98,14.83,-0.98,0.98,1.20,1.06,15.81,15.81,15.81
27.23,14.87,-0.94,14.86,-0.95,0.95,1.17,1.08,15.81,15.81,15.81
27.50,14.90,-0.91,14.90,-0.91,0.91,1.14,1.10,15.81,15.81,15.81
27.77,14.93,-0.88,14.93,-0.87,0.87,1.11,1.11,15.80,15.80,15.81
28.05,14.97,-0.83,14.97,-0.83,0.83,1.08,1.13,15.80,15.80,15.80
28.33,15.00,-0.80,15.00,-0.79,0.79,1.05,1.14,15.79,15.79,15.80
28.62,15.03,-0.76,15.03,-0.76,0.76,1.02,1.15,15.79,15.79,15.78
28.90,15.06,-0.73,15.06,-0.72,0.72,0.99,1.16,15.78,15.78,15.79
29.19,15.09,-0.69,15.09,-0.69,0.69,0.96,1.17,15.77,15.78,15.78
29.48,15.12,-0.65,15.12,-0.65,0.65,0.93,1.17,15.77,15.77,15.77
29.78,15.15,-0.61,15.15,-0.62,0.62,0.90,1.17,15.77,15.76,15.76
30.08,15.18,-0.58,15.17,-0.58,0.58,0.87,1.17,15.76,15.76,15.76
30.38,15.20,-0.55,15.20,-0.55,0.55,0.84,1.17,15.75,15.75,15.74
30.68,15.22,-0.52,15.22,-0.52,0.52,0.81,1.16,15.74,15.75,15.74
30.99,15.24,-0.50,15.25,-0.50,0.50,0.78,1.15,15.73,15.74,15.74
31.30,15.27,-0.46,15.27,-0.47,0.47,0.74,1.14,15.74,15.74,15.73
31.61,15.29,-0.44,15.29,-0.44,0.44,0.71,1.13,15.73,15.73,15.73
31.93,15.31,-0.42,15.31,-0.42,0.42,0.68,1.11,15.73,15.73,15.72
32.24,15.33,-0.40,15.33,-0.39,0.39,0.65,1.09,15.72,15.73,15.73
32.57,15.35,-0.37,15.35,-0.37,0.37,0.62,1.07,15.72,15.72,15.72
32.89,15.37,-0.35,15.37,-0.35,0.35,0.58,1.05,15.72,15.72,15.72
33.22,15.38,-0.34,15.38,-0.33,0.33,0.55,1.02,15.71,15.71,15.72
33.55,15.39,-0.32,15.39,-0.31,0.31,0.52,0.99,15.70,15.70,15.71
33.89,15.41,-0.29,15.40,-0.30,0.30,0.48,0.96,15.70,15.69,15.69
34.23,15.42,-0.26,15.40,-0.28,0.28,0.45,0.92,15.70,15.68,15.68
34.57,15.42,-0.25,15.41,-0.26,0.26,0.42,0.89,15.68,15.66,15.67
34.92,15.42,-0.23,15.41,-0.24,0.24,0.38,0.85,15.66,15.65,15.65
35.27,15.42,-0.22,15.41,-0.22,0.22,0.35,0.81,15.64,15.63,15.64
35.62,15.41,-0.19,15.41,-0.20,0.20,0.31,0.77,15.61,15.60,15.60
35.97,15.40,-0.19,15.41,-0.17,0.17,0.28,0.73,15.57,15.58,15.59
36.33,15.39,-0.17,15.41,-0.15,0.15,0.25,0.69,15.54,15.55,15.56
36.70,15.39,-0.13,15.41,-0.12,0.12,0.21,0.64,15.51,15.52,15.52
37.06,15.39,-0.10,15.41,-0.08,0.08,0.18,0.60,15.47,15.49,15.49
37.43,15.40,-0.06,15.41,-0.05,0.05,0.14,0.55,15.45,15.46,15.46
37.81,15.41,-0.02,15.41,-0.02,0.02,0.11,0.51,15.42,15.43,15.43
38.19,15.41,0.02,15.42,0.02,-0.02,0.07,0.46,15.39,15.40,15.39
38.57,15.43,0.07,15.43,0.07,-0.07,0.03,0.41,15.36,15.36,15.36
38.95,15.44,0.11,15.44,0.11,-0.11,-0.00,0.36,15.33,15.33,15.33
39.34,15.45,0.16,15.45,0.15,-0.15,-0.04,0.32,15.30,15.30,15.29
39.74,15.47,0.21,15.46,0.19,-0.19,-0.07,0.27,15.27,15.27,15.26
40.14,15.48,0.25,15.48,0.24,-0.24,-0.11,0.22,15.24,15.24,15.23
40.54,15.48,0.27,15.49,0.28,-0.28,-0.15,0.17,15.20,15.21,15.21
40.94,15.50,0.32,15.50,0.32,-0.32,-0.18,0.12,15.18,15.18,15.18
41.35,15.51,0.36,15.51,0.36,-0.36,-0.22,0.07,15.15,15.15,15.15
41.76,15.52,0.41,15.52,0.40,-0.40,-0.26,0.02,15.12,15.12,15.11
42.18,15.53,0.43,15.53,0.43,-0.43,-0.30,-0.03,15.10,15.10,15.10
42.60,15.53,0.46,15.53,0.46,-0.46,-0.34,-0.07,15.07,15.07,15.07
43.03,15.54,0.50,15.53,0.49,-0.49,-0.37,-0.12,15.05,15.04,15.04
43.46,15.54,0.53,15.53,0.52,-0.52,-0.41,-0.17,15.02,15.01,15.01
43.90,15.54,0.55,15.53,0.54,-0.54,-0.45,-0.22,15.00,14.99,14.99
44.33,15.53,0.58,15.52,0.57,-0.57,-0.49,-0.27,14.96,14.96,14.95
44.78,15.52,0.59,15.51,0.59,-0.59,-0.53,-0.32,14.93,14.93,14.93
45.23,15.50,0.59,15.50,0.61,-0.61,-0.57,-0.37,14.89,14.89,14.91
45.68,15.49,0.63,15.49,0.63,-0.63,-0.61,-0.42,14.86,14.86,14.86
46.13,15.48,0.66,15.47,0.65,-0.65,-0.65,-0.47,14.83,14.82,14.82
46.60,15.45,0.66,15.45,0.67,-0.67,-0.69,-0.52,14.78,14.78,14.79
47.06,15.44,0.69,15.43,0.69,-0.69,-0.73,-0.56,14.75,14.74,14.75
47.53,15.41,0.70,15.41,0.71,-0.71,-0.77,-0.61,14.70,14.70,14.71
48.01,15.39,0.74,15.39,0.73,-0.73,-0.81,-0.66,14.65,14.65,14.65
48.49,15.36,0.75,15.36,0.76,-0.76,-0.85,-0.71,14.60,14.61,14.61
48.97,15.34,0.78,15.34,0.78,-0.78,-0.89,-0.76,14.56,14.56,14.56
49.46,15.31,0.79,15.32,0.81,-0.81,-0.93,-0.81,14.50,14.51,14.52
49.96,15.29,0.85,15.29,0.83,-0.83,-0.98,-0.86,14.46,14.46,14.44
50.46,15.26,0.86,15.27,0.86,-0.86,-1.02,-0.91,14.40,14.41,14.40
50.96,15.24,0.89,15.24,0.89,-0.89,-1.06,-0.96,14.35,14.35,14.35
51.47,15.22,0.92,15.22,0.92,-0.92,-1.10,-1.01,14.30,14.30,14.30
51.99,15.20,0.96,15.20,0.95,-0.95,-1.15,-1.06,14.25,14.25,14.24
52.51,15.18,0.98,15.17,0.98,-0.98,-1.19,-1.11,14.20,14.20,14.20
53.03,15.16,1.00,15.15,1.01,-1.01,-1.23,-1.16,14.15,14.14,14.16
53.56,15.14,1.04,15.13,1.04,-1.04,-1.28,-1.21,14.10,14.09,14.10
54.10,15.13,1.09,15.12,1.08,-1.08,-1.32,-1.25,14.05,14.04,14.04
54.64,15.10,1.11,15.10,1.11,-1.11,-1.37,-1.30,13.99,13.99,13.99
55.18,15.08,1.15,15.09,1.15,-1.15,-1.41,-1.35,13.93,13.94,13.93
55.74,15.06,1.18,15.08,1.18,-1.18,-1.46,-1.40,13.88,13.89,13.88
56.29,15.05,1.22,15.07,1.22,-1.22,-1.50,-1.45,13.82,13.84,13.83
56.86,15.04,1.25,15.06,1.27,-1.27,-1.55,-1.49,13.77,13.79,13.79
57.42,15.04,1.32,15.05,1.31,-1.31,-1.59,-1.54,13.73,13.74,13.72
58.00,15.04,1.36,15.04,1.35,-1.35,-1.64,-1.59,13.69,13.68,13.68
58.58,15.04,1.40,15.03,1.40,-1.40,-1.69,-1.63,13.64,13.63,13.64
59.16,15.03,1.44,15.02,1.45,-1.45,-1.74,-1.68,13.58,13.57,13.59
59.76,15.03,1.49,15.01,1.50,-1.50,-1.78,-1.72,13.53,13.51,13.54
60.35,15.02,1.55,15.00,1.55,-1.55,-1.83,-1.77,13.47,13.45,13.47
60.96,15.01,1.60,14.99,1.60,-1.60,-1.88,-1.81,13.41,13.39,13.41
61.57,14.98,1.66,14.98,1.65,-1.65,-1.93,-1.85,13.33,13.33,13.32
62.18,14.96,1.71,14.97,1.70,-1.70,-1.98,-1.90,13.25,13.26,13.25
62.80,14.94,1.76,14.96,1.76,-1.76,-2.03,-1.94,13.18,13.20,13.18
63.43,14.93,1.82,14.95,1.82,-1.82,-2.08,-1.98,13.11,13.13,13.11
64.07,14.92,1.87,14.94,1.87,-1.87,-2.13,-2.02,13.05,13.06,13.05
64.71,14.92,1.93,14.93,1.93,-1.93,-2.18,-2.06,12.99,13.00,12.99
65.35,14.91,1.98,14.92,1.99,-1.99,-2.23,-2.10,12.92,12.93,12.93
66.01,14.91,2.04,14.91,2.05,-2.05,-2.28,-2.14,12.86,12.86,12.87
66.67,14.91,2.10,14.91,2.11,-2.11,-2.33,-2.18,12.80,12.80,12.81
67.33,14.91,2.17,14.91,2.17,-2.17,-2.38,-2.22,12.74,12.74,12.74
68.01,14.91,2.24,14.90,2.23,-2.23,-2.43,-2.26,12.68,12.67,12.67
68.69,14.91,2.30,14.90,2.30,-2.30,-2.49,-2.30,12.61,12.61,12.60
69.37,14.91,2.36,14.90,2.36,-2.36,-2.54,-2.34,12.55,12.54,12.55
70.07,14.91,2.42,14.90,2.42,-2.42,-2.59,-2.38,12.49,12.47,12.49
70.77,14.90,2.48,14.90,2.49,-2.49,-2.65,-2.42,12.41,12.41,12.42
71.48,14.90,2.56,14.89,2.55,-2.55,-2.70,-2.46,12.35,12.34,12.34
72.19,14.89,2.62,14.89,2.62,-2.62,-2.76,-2.50,12.27,12.27,12.27
72.91,14.89,2.69,14.89,2.68,-2.68,-2.81,-2.55,12.20,12.20,12.20
73.64,14.88,2.75,14.89,2.75,-2.75,-2.87,-2.59,12.13,12.14,12.13
74.38,14.87,2.81,14.88,2.81,-2.81,-2.92,-2.64,12.05,12.07,12.06
75.12,14.87,2.88,14.88,2.88,-2.88,-2.98,-2.68,11.99,12.00,11.99
75.87,14.88,2.94,14.88,2.94,-2.94,-3.03,-2.73,11.94,11.94,11.94
76.63,14.88,3.01,14.88,3.01,-3.01,-3.09,-2.78,11.87,11.87,11.87
77.40,14.89,3.08,14.88,3.08,-3.08,-3.15,-2.83,11.81,11.81,11.81
78.17,14.89,3.16,14.89,3.14,-3.14,-3.21,-2.89,11.75,11.74,11.73
78.95,14.89,3.20,14.89,3.21,-3.21,-3.27,-2.94,11.68,11.68,11.69
79.74,14.89,3.27,14.89,3.28,-3.28,-3.32,-3.00,11.61,11.62,11.62
80.54,14.89,3.33,14.90,3.34,-3.34,-3.38,-3.06,11.55,11.55,11.55
81.35,14.90,3.40,14.90,3.41,-3.41,-3.44,-3.12,11.49,11.49,11.50
82.16,14.90,3.46,14.90,3.47,-3.47,-3.50,-3.19,11.42,11.43,11.44
82.98,14.90,3.53,14.90,3.54,-3.54,-3.56,-3.26,11.36,11.37,11.37
83.81,14.91,3.61,14.90,3.60,-3.60,-3.62,-3.33,11.31,11.30,11.30
84.65,14.91,3.68,14.90,3.66,-3.66,-3.69,-3.40,11.25,11.24,11.23
85.50,14.90,3.73,14.89,3.72,-3.72,-3.75,-3.47,11.18,11.17,11.17
86.35,14.90,3.79,14.88,3.77,-3.77,-3.81,-3.55,11.13,11.11,11.11
87.22,14.88,3.83,14.87,3.83,-3.83,-3.87,-3.63,11.05,11.04,11.05
88.09,14.87,3.89,14.86,3.88,-3.88,-3.94,-3.71,10.99,10.98,10.98
88.97,14.84,3.93,14.84,3.93,-3.93,-4.00,-3.80,10.91,10.91,10.91
89.86,14.83,3.99,14.82,3.98,-3.98,-4.06,-3.88,10.85,10.84,10.84
90.76,14.80,4.03,14.80,4.03,-4.03,-4.13,-3.97,10.77,10.77,10.77
91.66,14.78,4.08,14.78,4.08,-4.08,-4.19,-4.07,10.70,10.70,10.70
92.58,14.75,4.12,14.75,4.12,-4.12,-4.26,-4.16,10.62,10.63,10.63
93.51,14.73,4.17,14.73,4.18,-4.18,-4.32,-4.26,10.55,10.55,10.56
94.44,14.71,4.22,14.71,4.23,-4.23,-4.39,-4.36,10.48,10.48,10.49
95.39,14.69,4.28,14.69,4.29,-4.29,-4.45,-4.47,10.40,10.40,10.41
96.34,14.66,4.34,14.67,4.35,-4.35,-4.52,-4.57,10.31,10.32,10.32
97.30,14.64,4.39,14.65,4.41,-4.41,-4.59,-4.68,10.23,10.24,10.25
98.28,14.63,4.47,14.64,4.48,-4.48,-4.66,-4.79,10.15,10.16,10.16
99.26,14.61,4.54,14.63,4.55,-4.55,-4.72,-4.90,10.06,10.09,10.07
100.25,14.62,4.62,14.63,4.62,-4.62,-4.79,-5.02,10.00,10.01,10.00
101.25,14.62,4.70,14.63,4.70,-4.70,-4.86,-5.14,9.92,9.93,9.92
102.27,14.63,4.78,14.63,4.78,-4.78,-4.93,-5.25,9.85,9.85,9.85
103.29,14.64,4.87,14.64,4.86,-4.86,-5.00,-5.37,9.78,9.78,9.77
104.32,14.65,4.94,14.64,4.94,-4.94,-5.07,-5.49,9.71,9.71,9.71
105.37,14.66,5.03,14.66,5.02,-5.02,-5.14,-5.61,9.64,9.63,9.63
106.42,14.67,5.10,14.67,5.11,-5.11,-5.21,-5.73,9.56,9.56,9.57
107.48,14.69,5.21,14.68,5.20,-5.20,-5.28,-5.85,9.49,9.49,9.48
108.56,14.70,5.28,14.70,5.28,-5.28,-5.35,-5.97,9.42,9.42,9.41
109.64,14.71,5.36,14.71,5.37,-5.37,-5.43,-6.08,9.34,9.34,9.35
110.74,14.72,5.44,14.73,5.46,-5.46,-5.50,-6.20,9.26,9.27,9.27
111.85,14.75,5.55,14.74,5.55,-5.55,-5.57,-6.31,9.20,9.19,9.20
112.97,14.76,5.63,14.75,5.64,-5.64,-5.64,-6.42,9.12,9.12,9.13
114.10,14.77,5.72,14.76,5.72,-5.72,-5.72,-6.52,9.05,9.04,9.05
115.24,14.78,5.81,14.77,5.81,-5.81,-5.79,-6.63,8.97,8.96,8.97
116.39,14.79,5.91,14.78,5.90,-5.90,-5.86,-6.72,8.89,8.88,8.87
117.55,14.79,5.99,14.79,5.99,-5.99,-5.94,-6.81,8.80,8.80,8.80
118.73,14.80,6.09,14.79,6.07,-6.07,-6.01,-6.90,8.73,8.72,8.71
119.92,14.80,6.17,14.80,6.16,-6.16,-6.09,-6.98,8.64,8.64,8.63
121.12,14.80,6.24,14.80,6.25,-6.25,-6.16,-7.05,8.55,8.55,8.56
122.33,14.80,6.33,14.80,6.34,-6.34,-6.24,-7.12,8.46,8.47,8.47
123.55,14.80,6.41,14.80,6.42,-6.42,-6.31,-7.18,8.38,8.38,8.39
124.79,14.80,6.49,14.80,6.50,-6.50,-6.39,-7.24,8.30,8.29,8.31
126.03,14.80,6.58,14.80,6.59,-6.59,-6.46,-7.28,8.21,8.21,8.22
127.29,14.80,6.68,14.79,6.67,-6.67,-6.54,-7.32,8.13,8.12,8.12
128.57,14.80,6.76,14.79,6.75,-6.75,-6.61,-7.35,8.05,8.04,8.04
129.85,14.79,6.84,14.79,6.83,-6.83,-6.69,-7.38,7.96,7.96,7.95
131.15,14.79,6.92,14.79,6.91,-6.91,-6.77,-7.40,7.87,7.88,7.87
132.46,14.79,7.00,14.79,7.00,-7.00,-6.84,-7.42,7.79,7.80,7.79
133.79,14.79,7.08,14.80,7.08,-7.08,-6.92,-7.42,7.71,7.72,7.71
135.12,14.79,7.16,14.81,7.16,-7.16,-7.00,-7.43,7.63,7.64,7.63
136.48,14.80,7.23,14.81,7.24,-7.24,-7.07,-7.43,7.56,7.57,7.57
137.84,14.81,7.31,14.82,7.32,-7.32,-7.15,-7.43,7.49,7.50,7.50
139.22,14.82,7.39,14.83,7.40,-7.40,-7.23,-7.42,7.42,7.43,7.42
140.61,14.84,7.47,14.84,7.48,-7.48,-7.30,-7.41,7.36,7.37,7.37
142.02,14.87,7.57,14.86,7.55,-7.55,-7.38,-7.40,7.32,7.30,7.30
143.44,14.89,7.65,14.87,7.63,-7.63,-7.46,-7.39,7.26,7.24,7.24
144.87,14.90,7.71,14.89,7.71,-7.71,-7.53,-7.38,7.19,7.18,7.19
146.32,14.91,7.79,14.90,7.78,-7.78,-7.61,-7.37,7.13,7.12,7.12
147.78,14.92,7.86,14.92,7.85,-7.85,-7.69,-7.36,7.06,7.06,7.06
149.26,14.93,7.92,14.93,7.93,-7.93,-7.76,-7.35,7.00,7.00,7.00
150.75,14.93,7.99,14.95,8.00,-8.00,-7.84,-7.34,6.92,6.94,6.94
152.26,14.96,8.07,14.96,8.08,-8.08,-7.91,-7.33,6.88,6.88,6.89
153.78,14.97,8.14,14.98,8.15,-8.15,-7.99,-7.33,6.82,6.82,6.82
155.32,14.99,8.22,14.99,8.22,-8.22,-8.06,-7.33,6.77,6.76,6.77
156.88,15.00,8.29,15.00,8.30,-8.30,-8.14,-7.33,6.70,6.70,6.71
158.44,15.02,8.37,15.01,8.37,-8.37,-8.21,-7.34,6.65,6.64,6.65
160.03,15.03,8.44,15.02,8.44,-8.44,-8.29,-7.35,6.59,6.58,6.59
161.63,15.03,8.50,15.03,8.51,-8.51,-8.36,-7.36,6.52,6.52,6.53
163.24,15.05,8.60,15.04,8.58,-8.58,-8.43,-7.38,6.47,6.46,6.45
164.88,15.06,8.67,15.05,8.65,-8.65,-8.50,-7.41,6.41,6.39,6.39
166.53,15.06,8.73,15.05,8.72,-8.72,-8.57,-7.44,6.34,6.33,6.33
168.19,15.06,8.78,15.06,8.79,-8.79,-8.64,-7.47,6.27,6.27,6.27
169.87,15.06,8.85,15.07,8.86,-8.86,-8.71,-7.51,6.20,6.21,6.21
171.57,15.07,8.93,15.08,8.93,-8.93,-8.78,-7.55,6.14,6.15,6.14
173.29,15.08,9.00,15.09,9.00,-9.00,-8.85,-7.60,6.08,6.09,6.08
175.02,15.08,9.06,15.09,9.07,-9.07,-8.91,-7.66,6.01,6.03,6.02
176.77,15.09,9.12,15.10,9.14,-9.14,-8.98,-7.72,5.95,5.97,5.97
178.54,15.10,9.19,15.11,9.21,-9.21,-9.04,-7.79,5.89,5.91,5.91
180.32,15.12,9.27,15.12,9.27,-9.27,-9.10,-7.86,5.85,5.85,5.84
182.13,15.13,9.34,15.13,9.34,-9.34,-9.17,-7.94,5.79,5.79,5.79
183.95,15.14,9.40,15.13,9.40,-9.40,-9.23,-8.02,5.74,5.73,5.74
185.79,15.16,9.48,15.14,9.46,-9.46,-9.28,-8.11,5.70,5.67,5.68
187.65,15.16,9.53,15.14,9.52,-9.52,-9.34,-8.21,5.64,5.62,5.63
189.52,15.15,9.58,15.14,9.58,-9.58,-9.40,-8.31,5.57,5.56,5.57
191.42,15.15,9.64,15.14,9.63,-9.63,-9.45,-8.42,5.52,5.51,5.51
193.33,15.15,9.70,15.14,9.68,-9.68,-9.50,-8.53,5.47,5.46,5.45
195.27,15.13,9.73,15.13,9.73,-9.73,-9.55,-8.65,5.40,5.40,5.40
197.22,15.12,9.78,15.12,9.77,-9.77,-9.60,-8.77,5.35,5.35,5.34
199.19,15.10,9.80,15.11,9.81,-9.81,-9.64,-8.89,5.29,5.30,5.30
201.18,15.09,9.84,15.10,9.85,-9.85,-9.69,-9.03,5.24,5.25,5.25
203.19,15.08,9.87,15.09,9.88,-9.88,-9.73,-9.16,5.20,5.21,5.20
205.23,15.07,9.91,15.07,9.91,-9.91,-9.77,-9.30,5.16,5.16,5.16
207.28,15.06,9.94,15.05,9.94,-9.94,-9.80,-9.44,5.12,5.12,5.12
209.35,15.03,9.95,15.03,9.96,-9.96,-9.84,-9.59,5.07,5.07,5.07
211.44,15.02,9.98,15.01,9.98,-9.98,-9.87,-9.73,5.04,5.03,5.04
213.56,15.00,10.01,14.99,10.00,-10.00,-9.90,-9.88,5.00,4.99,4.99
215.69,14.97,10.02,14.97,10.02,-10.02,-9.92,-10.03,4.95,4.95,4.95
217.85,14.95,10.03,14.94,10.03,-10.03,-9.95,-10.17,4.92,4.92,4.92
220.03,14.92,10.05,14.92,10.04,-10.04,-9.97,-10.32,4.88,4.88,4.87
222.23,14.89,10.05,14.89,10.04,-10.04,-9.99,-10.46,4.85,4.84,4.84
224.45,14.85,10.04,14.86,10.05,-10.05,-10.00,-10.59,4.80,4.81,4.81
226.70,14.82,10.04,14.82,10.04,-10.04,-10.01,-10.72,4.77,4.78,4.77
228.96,14.78,10.03,14.78,10.04,-10.04,-10.02,-10.84,4.74,4.74,4.75
231.25,14.75,10.03,14.75,10.03,-10.03,-10.03,-10.96,4.72,4.71,4.72
233.57,14.70,10.01,14.71,10.02,-10.02,-10.03,-11.06,4.68,4.69,4.69
235.90,14.66,10.01,14.66,10.00,-10.00,-10.03,-11.15,4.66,4.66,4.65
238.26,14.61,9.99,14.62,9.98,-9.98,-10.03,-11.22,4.63,4.63,4.62
240.64,14.57,9.95,14.57,9.96,-9.96,-10.02,-11.28,4.61,4.61,4.62
243.05,14.53,9.94,14.51,9.93,-9.93,-10.01,-11.32,4.60,4.59,4.59
245.48,14.47,9.91,14.46,9.89,-9.89,-9.99,-11.35,4.58,4.57,4.56
247.93,14.40,9.86,14.40,9.85,-9.85,-9.98,-11.35,4.55,4.55,4.54
250.41,14.35,9.82,14.34,9.81,-9.81,-9.96,-11.34,4.54,4.53,4.53
252.92,14.28,9.77,14.27,9.77,-9.77,-9.93,-11.31,4.51,4.51,4.51
255.45,14.21,9.72,14.21,9.72,-9.72,-9.91,-11.26,4.49,4.49,4.49
258.00,14.14,9.66,14.14,9.67,-9.67,-9.88,-11.19,4.47,4.47,4.48
260.58,14.06,9.60,14.07,9.61,-9.61,-9.84,-11.10,4.45,4.46,4.46
263.19,13.99,9.55,14.00,9.56,-9.56,-9.80,-11.00,4.43,4.44,4.44
265.82,13.92,9.49,13.92,9.50,-9.50,-9.76,-10.88,4.42,4.42,4.43
268.48,13.84,9.43,13.85,9.44,-9.44,-9.72,-10.75,4.40,4.41,4.41
271.16,13.77,9.38,13.78,9.38,-9.38,-9.67,-10.60,4.39,4.39,4.39
273.87,13.70,9.32,13.70,9.32,-9.32,-9.63,-10.44,4.38,4.38,4.38
276.61,13.63,9.27,13.63,9.26,-9.26,-9.57,-10.28,4.37,4.36,4.36
279.38,13.55,9.21,13.55,9.20,-9.20,-9.52,-10.11,4.35,4.35,4.34
282.17,13.48,9.15,13.47,9.14,-9.14,-9.46,-9.93,4.34,4.34,4.33
284.99,13.40,9.07,13.39,9.07,-9.07,-9.40,-9.75,4.33,4.32,4.33
287.84,13.31,8.99,13.31,9.00,-9.00,-9.33,-9.56,4.31,4.31,4.32
290.72,13.24,8.95,13.24,8.93,-8.93,-9.27,-9.37,4.30,4.30,4.29
293.63,13.16,8.87,13.15,8.86,-8.86,-9.20,-9.18,4.30,4.29,4.29
296.57,13.07,8.79,13.07,8.79,-8.79,-9.12,-8.99,4.28,4.28,4.28
299.53,12.99,8.71,12.99,8.72,-8.72,-9.05,-8.80,4.27,4.27,4.27
302.53,12.90,8.63,12.90,8.64,-8.64,-8.97,-8.61,4.26,4.27,4.27
305.55,12.82,8.56,12.82,8.56,-8.56,-8.89,-8.43,4.26,4.26,4.26
308.61,12.73,8.48,12.73,8.48,-8.48,-8.81,-8.24,4.25,4.25,4.25
311.69,12.65,8.40,12.65,8.40,-8.40,-8.72,-8.06,4.25,4.25,4.25
314.81,12.57,8.33,12.56,8.32,-8.32,-8.63,-7.89,4.25,4.24,4.24
317.96,12.47,8.24,12.47,8.24,-8.24,-8.55,-7.71,4.23,4.24,4.23
321.14,12.39,8.15,12.39,8.15,-8.15,-8.45,-7.54,4.23,4.23,4.24
324.35,12.29,8.07,12.30,8.07,-8.07,-8.36,-7.38,4.22,4.23,4.22
327.59,12.21,7.98,12.21,7.98,-7.98,-8.26,-7.22,4.23,4.23,4.23
330.87,12.12,7.89,12.12,7.90,-7.90,-8.17,-7.06,4.22,4.22,4.23
334.18,12.04,7.83,12.03,7.81,-7.81,-8.07,-6.91,4.23,4.22,4.21
337.52,11.95,7.73,11.95,7.73,-7.73,-7.97,-6.76,4.22,4.22,4.22
340.90,11.86,7.65,11.86,7.64,-7.64,-7.86,-6.62,4.22,4.22,4.21
344.30,11.77,7.55,11.77,7.55,-7.55,-7.76,-6.48,4.21,4.22,4.22
347.75,11.68,7.46,11.69,7.47,-7.47,-7.65,-6.35,4.21,4.22,4.22
351.23,11.60,7.39,11.60,7.38,-7.38,-7.54,-6.22,4.22,4.22,4.21
354.74,11.51,7.28,11.51,7.30,-7.30,-7.43,-6.10,4.21,4.22,4.22
358.28,11.42,7.21,11.43,7.21,-7.21,-7.32,-5.98,4.21,4.22,4.21
361.87,11.35,7.13,11.34,7.13,-7.13,-7.21,-5.87,4.22,4.21,4.22
365.49,11.26,7.05,11.26,7.05,-7.05,-7.10,-5.76,4.21,4.21,4.21
369.14,11.18,6.96,11.17,6.96,-6.96,-6.98,-5.65,4.22,4.21,4.22
372.83,11.10,6.88,11.09,6.88,-6.88,-6.86,-5.55,4.22,4.21,4.22
376.56,11.00,6.79,11.01,6.79,-6.79,-6.75,-5.45,4.20,4.21,4.21
380.33,10.92,6.71,10.92,6.71,-6.71,-6.63,-5.36,4.21,4.21,4.21
384.13,10.84,6.63,10.84,6.63,-6.63,-6.51,-5.27,4.21,4.21,4.21
387.97,10.75,6.54,10.75,6.54,-6.54,-6.38,-5.18,4.21,4.21,4.21
391.85,10.66,6.45,10.67,6.46,-6.46,-6.26,-5.09,4.20,4.21,4.21
395.77,10.58,6.37,10.58,6.37,-6.37,-6.14,-5.01,4.21,4.21,4.21
399.73,10.49,6.28,10.49,6.28,-6.28,-6.01,-4.94,4.21,4.21,4.20
403.72,10.40,6.19,10.40,6.19,-6.19,-5.89,-4.86,4.21,4.21,4.21
407.76,10.31,6.10,10.31,6.10,-6.10,-5.76,-4.79,4.21,4.21,4.21
411.84,10.22,6.01,10.21,6.00,-6.00,-5.63,-4.72,4.21,4.21,4.21
415.96,10.12,5.90,10.11,5.91,-5.91,-5.50,-4.65,4.21,4.21,4.22
420.12,10.01,5.81,10.02,5.81,-5.81,-5.37,-4.58,4.20,4.20,4.20
424.32,9.91,5.71,9.91,5.71,-5.71,-5.24,-4.52,4.20,4.20,4.20
428.56,9.81,5.60,9.81,5.60,-5.60,-5.10,-4.45,4.21,4.20,4.21
432.85,9.70,5.49,9.70,5.50,-5.50,-4.97,-4.39,4.20,4.20,4.21
437.18,9.58,5.38,9.58,5.38,-5.38,-4.84,-4.32,4.20,4.20,4.19
441.55,9.47,5.28,9.46,5.27,-5.27,-4.70,-4.26,4.20,4.20,4.19
445.96,9.34,5.15,9.34,5.15,-5.15,-4.56,-4.19,4.19,4.19,4.19
450.42,9.21,5.02,9.22,5.02,-5.02,-4.42,-4.12,4.19,4.19,4.19
454.93,9.08,4.89,9.08,4.89,-4.89,-4.29,-4.06,4.19,4.19,4.19
