frequency,raw,error,smoothed,error_smoothed,equalization,parametric_eq,fixed_band_eq,equalized_raw,equalized_smoothed,target
20.00,3.21,-4.37,3.21,-4.40,4.40,4.35,0.81,7.61,7.61,7.58
20.20,3.29,-4.33,3.29,-4.35,4.35,4.30,0.84,7.64,7.64,7.62
20.40,3.37,-4.29,3.37,-4.30,4.30,4.25,0.87,7.67,7.67,7.66
20.61,3.45,-4.25,3.45,-4.24,4.24,4.20,0.90,7.69,7.70,7.69
20.81,3.54,-4.19,3.54,-4.19,4.19,4.14,0.93,7.73,7.72,7.73
21.02,3.62,-4.15,3.62,-4.13,4.13,4.09,0.96,7.75,7.75,7.77
21.23,3.70,-4.09,3.70,-4.07,4.07,4.03,1.00,7.77,7.77,7.79
21.44,3.78,-4.03,3.79,-4.01,4.01,3.97,1.03,7.79,7.80,7.81
21.66,3.87,-3.97,3.87,-3.95,3.95,3.92,1.06,7.82,7.82,7.83
21.87,3.95,-3.89,3.95,-3.89,3.89,3.86,1.10,7.84,7.84,7.84
22.09,4.03,-3.83,4.03,-3.82,3.82,3.80,1.14,7.85,7.86,7.86
22.31,4.12,-3.75,4.12,-3.76,3.76,3.74,1.17,7.88,7.87,7.87
22.54,4.20,-3.69,4.20,-3.69,3.69,3.68,1.21,7.89,7.89,7.88
22.76,4.28,-3.61,4.28,-3.61,3.61,3.61,1.25,7.89,7.90,7.89
22.99,4.37,-3.52,4.36,-3.54,3.54,3.55,1.29,7.91,7.90,7.89
23.22,4.45,-3.45,4.45,-3.47,3.47,3.49,1.33,7.92,7.91,7.90
23.45,4.53,-3.38,4.53,-3.39,3.39,3.42,1.38,7.92,7.92,7.91
23.69,4.61,-3.32,4.61,-3.32,3.32,3.36,1.42,7.93,7.93,7.92
23.92,4.69,-3.24,4.70,-3.24,3.24,3.29,1.46,7.94,7.94,7.93
24.16,4.78,-3.17,4.78,-3.17,3.17,3.23,1.51,7.95,7.95,7.95
24.40,4.86,-3.11,4.86,-3.10,3.10,3.16,1.55,7.96,7.96,7.97
24.65,4.94,-3.03,4.94,-3.02,3.02,3.10,1.60,7.96,7.97,7.96
24.89,5.02,-2.95,5.03,-2.95,2.95,3.03,1.65,7.97,7.98,7.97
25.14,5.11,-2.87,5.11,-2.88,2.88,2.96,1.69,7.99,7.99,7.98
25.39,5.19,-2.80,5.19,-2.81,2.81,2.90,1.74,8.00,8.00,7.99
25.65,5.28,-2.73,5.28,-2.73,2.73,2.83,1.78,8.01,8.01,8.01
25.91,5.36,-2.66,5.36,-2.66,2.66,2.76,1.83,8.02,8.02,8.01
26.16,5.44,-2.58,5.44,-2.59,2.59,2.69,1.87,8.03,8.03,8.02
26.43,5.52,-2.52,5.52,-2.51,2.51,2.62,1.92,8.03,8.04,8.03
26.69,5.61,-2.43,5.61,-2.44,2.44,2.56,1.96,8.05,8.05,8.04
26.96,5.69,-2.38,5.69,-2.37,2.37,2.49,2.00,8.06,8.05,8.06
27.23,5.77,-2.31,5.77,-2.30,2.30,2.42,2.04,8.06,8.06,8.07
27.50,5.85,-2.22,5.85,-2.22,2.22,2.35,2.08,8.07,8.07,8.07
27.77,5.93,-2.14,5.93,-2.15,2.15,2.28,2.12,8.08,8.08,8.07
28.05,6.01,-2.08,6.01,-2.08,2.08,2.21,2.15,8.09,8.09,8.09
28.33,6.09,-2.00,6.09,-2.01,2.01,2.14,2.18,8.10,8.10,8.09
28.62,6.17,-1.94,6.17,-1.93,1.93,2.08,2.20,8.10,8.11,8.10
28.90,6.25,-1.86,6.25,-1.86,1.86,2.01,2.23,8.11,8.12,8.11
29.19,6.33,-1.78,6.33,-1.79,1.79,1.94,2.25,8.12,8.12,8.11
29.48,6.41,-1.73,6.41,-1.72,1.72,1.87,2.26,8.13,8.13,8.14
29.78,6.49,-1.65,6.49,-1.65,1.65,1.80,2.27,8.14,8.14,8.13
30.08,6.57,-1.58,6.57,-1.58,1.58,1.73,2.28,8.14,8.14,8.14
30.38,6.64,-1.51,6.64,-1.51,1.51,1.66,2.28,8.15,8.15,8.14
30.68,6.72,-1.44,6.72,-1.44,1.44,1.59,2.27,8.16,8.16,8.16
30.99,6.80,-1.37,6.79,-1.37,1.37,1.53,2.26,8.17,8.16,8.16
31.30,6.87,-1.30,6.87,-1.31,1.31,1.46,2.24,8.17,8.17,8.16
31.61,6.94,-1.23,6.94,-1.24,1.24,1.39,2.22,8.18,8.18,8.17
31.93,7.01,-1.18,7.01,-1.18,1.18,1.32,2.20,8.19,8.19,8.18
32.24,7.08,-1.10,7.08,-1.11,1.11,1.25,2.16,8.19,8.19,8.18
32.57,7.15,-1.05,7.15,-1.05,1.05,1.18,2.13,8.20,8.20,8.20
32.89,7.22,-0.98,7.22,-0.99,0.99,1.11,2.08,8.21,8.21,8.20
33.22,7.28,-0.93,7.29,-0.93,0.93,1.05,2.04,8.21,8.22,8.21
33.55,7.35,-0.87,7.35,-0.87,0.87,0.98,1.98,8.22,8.22,8.22
33.89,7.42,-0.81,7.42,-0.81,0.81,0.91,1.93,8.23,8.23,8.23
34.23,7.49,-0.74,7.49,-0.75,0.75,0.84,1.87,8.24,8.23,8.23
34.57,7.55,-0.69,7.55,-0.69,0.69,0.78,1.80,8.24,8.24,8.24
34.92,7.62,-0.63,7.62,-0.63,0.63,0.71,1.73,8.25,8.25,8.24
35.27,7.69,-0.57,7.69,-0.57,0.57,0.64,1.66,8.25,8.25,8.25
35.62,7.75,-0.50,7.75,-0.50,0.50,0.57,1.58,8.25,8.26,8.25
35.97,7.82,-0.43,7.82,-0.44,0.44,0.50,1.51,8.26,8.26,8.25
36.33,7.88,-0.38,7.89,-0.37,0.37,0.44,1.43,8.25,8.26,8.26
36.70,7.95,-0.31,7.96,-0.30,0.30,0.37,1.34,8.25,8.26,8.25
37.06,8.02,-0.24,8.02,-0.24,0.24,0.30,1.26,8.26,8.26,8.26
37.43,8.09,-0.17,8.09,-0.17,0.17,0.24,1.17,8.26,8.26,8.26
37.81,8.16,-0.10,8.16,-0.10,0.10,0.17,1.08,8.26,8.26,8.26
38.19,8.23,-0.03,8.22,-0.03,0.03,0.10,0.99,8.26,8.26,8.26
38.57,8.30,0.05,8.29,0.04,-0.04,0.04,0.90,8.26,8.26,8.25
38.95,8.36,0.11,8.36,0.10,-0.10,-0.03,0.81,8.26,8.25,8.25
39.34,8.42,0.18,8.42,0.17,-0.17,-0.10,0.72,8.25,8.25,8.24
39.74,8.48,0.24,8.48,0.23,-0.23,-0.17,0.62,8.25,8.25,8.24
40.14,8.54,0.29,8.55,0.30,-0.30,-0.23,0.53,8.24,8.25,8.24
40.54,8.61,0.36,8.61,0.36,-0.36,-0.30,0.44,8.25,8.24,8.24
40.94,8.67,0.44,8.67,0.43,-0.43,-0.36,0.34,8.24,8.24,8.23
41.35,8.73,0.50,8.73,0.49,-0.49,-0.43,0.25,8.24,8.24,8.23
41.76,8.79,0.56,8.79,0.55,-0.55,-0.50,0.15,8.24,8.23,8.23
42.18,8.84,0.61,8.84,0.61,-0.61,-0.56,0.05,8.23,8.23,8.23
42.60,8.90,0.67,8.90,0.67,-0.67,-0.63,-0.04,8.23,8.23,8.23
43.03,8.95,0.72,8.96,0.73,-0.73,-0.70,-0.14,8.22,8.23,8.23
43.46,9.01,0.78,9.01,0.79,-0.79,-0.76,-0.23,8.22,8.22,8.23
43.90,9.07,0.85,9.07,0.85,-0.85,-0.83,-0.33,8.22,8.22,8.21
44.33,9.12,0.91,9.12,0.90,-0.90,-0.90,-0.43,8.22,8.22,8.21
44.78,9.18,0.98,9.18,0.96,-0.96,-0.96,-0.52,8.22,8.22,8.20
45.23,9.24,1.03,9.23,1.02,-1.02,-1.03,-0.62,8.22,8.21,8.20
45.68,9.28,1.08,9.28,1.07,-1.07,-1.10,-0.72,8.21,8.21,8.20
46.13,9.33,1.14,9.33,1.13,-1.13,-1.16,-0.82,8.20,8.20,8.19
46.60,9.38,1.18,9.38,1.19,-1.19,-1.23,-0.91,8.19,8.20,8.20
47.06,9.43,1.24,9.43,1.24,-1.24,-1.29,-1.01,8.19,8.19,8.19
47.53,9.48,1.30,9.48,1.30,-1.30,-1.36,-1.11,8.18,8.18,8.18
48.01,9.53,1.34,9.53,1.36,-1.36,-1.43,-1.21,8.17,8.17,8.19
48.49,9.58,1.41,9.58,1.41,-1.41,-1.49,-1.31,8.17,8.17,8.17
48.97,9.63,1.48,9.63,1.47,-1.47,-1.56,-1.40,8.16,8.16,8.15
49.46,9.68,1.54,9.67,1.53,-1.53,-1.63,-1.50,8.15,8.15,8.14
49.96,9.73,1.61,9.72,1.59,-1.59,-1.69,-1.60,8.14,8.13,8.12
50.46,9.77,1.65,9.77,1.65,-1.65,-1.76,-1.70,8.12,8.12,8.12
50.96,9.81,1.71,9.81,1.71,-1.71,-1.83,-1.80,8.10,8.10,8.10
51.47,9.85,1.78,9.86,1.77,-1.77,-1.90,-1.89,8.08,8.09,8.07
51.99,9.90,1.83,9.90,1.83,-1.83,-1.96,-1.99,8.07,8.07,8.06
52.51,9.94,1.89,9.95,1.90,-1.90,-2.03,-2.09,8.04,8.05,8.05
53.03,9.98,1.95,9.99,1.96,-1.96,-2.10,-2.18,8.02,8.03,8.03
53.56,10.04,2.02,10.04,2.02,-2.02,-2.16,-2.28,8.02,8.01,8.02
54.10,10.09,2.09,10.08,2.08,-2.08,-2.23,-2.37,8.01,8.00,7.99
54.64,10.13,2.15,10.12,2.15,-2.15,-2.30,-2.46,7.98,7.98,7.98
55.18,10.17,2.22,10.17,2.21,-2.21,-2.37,-2.55,7.96,7.96,7.95
55.74,10.21,2.28,10.21,2.27,-2.27,-2.43,-2.64,7.94,7.94,7.92
56.29,10.25,2.33,10.25,2.33,-2.33,-2.50,-2.73,7.92,7.92,7.92
56.86,10.30,2.40,10.30,2.40,-2.40,-2.57,-2.81,7.90,7.90,7.89
57.42,10.34,2.48,10.34,2.46,-2.46,-2.64,-2.90,7.88,7.88,7.86
58.00,10.38,2.54,10.38,2.53,-2.53,-2.71,-2.98,7.85,7.85,7.84
58.58,10.41,2.59,10.42,2.60,-2.60,-2.77,-3.06,7.81,7.83,7.82
59.16,10.45,2.65,10.46,2.66,-2.66,-2.84,-3.13,7.79,7.80,7.80
59.76,10.50,2.72,10.50,2.73,-2.73,-2.91,-3.21,7.77,7.77,7.78
60.35,10.54,2.79,10.54,2.80,-2.80,-2.98,-3.28,7.74,7.74,7.75
60.96,10.59,2.87,10.58,2.87,-2.87,-3.05,-3.34,7.72,7.71,7.72
61.57,10.62,2.95,10.62,2.94,-2.94,-3.12,-3.41,7.68,7.68,7.67
62.18,10.66,3.03,10.65,3.01,-3.01,-3.18,-3.47,7.65,7.64,7.63
62.80,10.69,3.08,10.69,3.08,-3.08,-3.25,-3.53,7.61,7.61,7.61
63.43,10.73,3.17,10.73,3.15,-3.15,-3.32,-3.58,7.58,7.57,7.56
64.07,10.76,3.24,10.76,3.23,-3.23,-3.39,-3.63,7.53,7.53,7.52
64.71,10.80,3.31,10.80,3.30,-3.30,-3.46,-3.68,7.50,7.50,7.49
65.35,10.83,3.38,10.83,3.37,-3.37,-3.53,-3.73,7.46,7.46,7.45
66.01,10.86,3.45,10.87,3.45,-3.45,-3.60,-3.77,7.41,7.42,7.41
66.67,10.89,3.51,10.90,3.52,-3.52,-3.67,-3.81,7.37,7.38,7.38
67.33,10.93,3.59,10.93,3.59,-3.59,-3.74,-3.85,7.34,7.34,7.34
68.01,10.97,3.67,10.96,3.66,-3.66,-3.81,-3.89,7.31,7.30,7.30
68.69,11.00,3.74,11.00,3.73,-3.73,-3.88,-3.93,7.27,7.26,7.26
69.37,11.04,3.82,11.03,3.81,-3.81,-3.95,-3.97,7.23,7.22,7.22
70.07,11.06,3.88,11.06,3.88,-3.88,-4.02,-4.00,7.18,7.18,7.18
70.77,11.09,3.95,11.09,3.95,-3.95,-4.09,-4.04,7.14,7.15,7.14
71.48,11.12,4.01,11.13,4.02,-4.02,-4.16,-4.07,7.10,7.11,7.11
72.19,11.16,4.10,11.16,4.09,-4.09,-4.23,-4.10,7.07,7.07,7.06
72.91,11.20,4.17,11.19,4.16,-4.16,-4.30,-4.14,7.04,7.03,7.03
73.64,11.23,4.24,11.23,4.23,-4.23,-4.37,-4.18,7.00,7.00,6.99
74.38,11.27,4.31,11.26,4.30,-4.30,-4.45,-4.21,6.97,6.96,6.96
75.12,11.29,4.37,11.30,4.37,-4.37,-4.52,-4.25,6.92,6.93,6.92
75.87,11.32,4.43,11.34,4.44,-4.44,-4.59,-4.29,6.88,6.90,6.89
76.63,11.36,4.50,11.37,4.51,-4.51,-4.66,-4.33,6.85,6.87,6.86
77.40,11.41,4.58,11.42,4.58,-4.58,-4.73,-4.38,6.83,6.84,6.83
78.17,11.46,4.66,11.46,4.65,-4.65,-4.80,-4.42,6.81,6.81,6.80
78.95,11.51,4.74,11.50,4.72,-4.72,-4.87,-4.47,6.79,6.78,6.77
79.74,11.55,4.80,11.55,4.80,-4.80,-4.95,-4.52,6.75,6.75,6.75
80.54,11.60,4.87,11.60,4.87,-4.87,-5.02,-4.57,6.73,6.73,6.73
81.35,11.65,4.95,11.65,4.94,-4.94,-5.09,-4.63,6.71,6.70,6.70
82.16,11.70,5.03,11.70,5.02,-5.02,-5.16,-4.69,6.68,6.68,6.67
82.98,11.75,5.09,11.75,5.10,-5.10,-5.23,-4.75,6.65,6.66,6.66
83.81,11.80,5.17,11.81,5.17,-5.17,-5.30,-4.82,6.63,6.64,6.63
84.65,11.86,5.26,11.86,5.25,-5.25,-5.38,-4.89,6.61,6.61,6.60
85.50,11.91,5.32,11.92,5.33,-5.33,-5.45,-4.97,6.58,6.59,6.59
86.35,11.98,5.41,11.98,5.40,-5.40,-5.52,-5.04,6.58,6.57,6.57
87.22,12.05,5.50,12.03,5.48,-5.48,-5.59,-5.12,6.57,6.55,6.55
88.09,12.11,5.58,12.09,5.56,-5.56,-5.66,-5.21,6.55,6.54,6.53
88.97,12.16,5.65,12.15,5.64,-5.64,-5.74,-5.30,6.52,6.52,6.51
89.86,12.21,5.71,12.21,5.72,-5.72,-5.81,-5.39,6.49,6.50,6.50
90.76,12.27,5.80,12.27,5.79,-5.79,-5.88,-5.49,6.48,6.48,6.47
91.66,12.34,5.89,12.34,5.88,-5.88,-5.95,-5.59,6.46,6.46,6.45
92.58,12.40,5.97,12.40,5.96,-5.96,-6.02,-5.69,6.44,6.44,6.43
93.51,12.46,6.04,12.47,6.05,-6.05,-6.09,-5.80,6.41,6.42,6.42
94.44,12.53,6.13,12.54,6.14,-6.14,-6.17,-5.92,6.39,6.40,6.40
95.39,12.60,6.22,12.61,6.23,-6.23,-6.24,-6.03,6.37,6.38,6.38
96.34,12.67,6.32,12.68,6.33,-6.33,-6.31,-6.15,6.34,6.35,6.35
97.30,12.74,6.42,12.75,6.42,-6.42,-6.38,-6.27,6.32,6.33,6.32
98.28,12.82,6.53,12.82,6.52,-6.52,-6.45,-6.40,6.30,6.30,6.29
99.26,12.89,6.62,12.90,6.63,-6.63,-6.52,-6.53,6.26,6.27,6.27
100.25,12.98,6.74,12.98,6.73,-6.73,-6.59,-6.66,6.25,6.24,6.24
101.25,13.07,6.86,13.05,6.84,-6.84,-6.66,-6.80,6.23,6.21,6.21
102.27,13.15,6.98,13.13,6.94,-6.94,-6.73,-6.93,6.20,6.18,6.17
103.29,13.19,7.05,13.20,7.05,-7.05,-6.80,-7.07,6.14,6.15,6.14
104.32,13.24,7.13,13.27,7.16,-7.16,-6.87,-7.21,6.08,6.11,6.11
105.37,13.32,7.25,13.33,7.27,-7.27,-6.94,-7.35,6.05,6.07,6.07
106.42,13.39,7.37,13.39,7.37,-7.37,-7.01,-7.49,6.02,6.03,6.02
107.48,13.46,7.47,13.45,7.47,-7.47,-7.08,-7.63,5.99,5.98,5.99
108.56,13.52,7.59,13.50,7.57,-7.57,-7.15,-7.77,5.95,5.93,5.93
109.64,13.56,7.68,13.54,7.66,-7.66,-7.21,-7.91,5.90,5.88,5.88
110.74,13.59,7.76,13.58,7.75,-7.75,-7.28,-8.04,5.84,5.83,5.83
111.85,13.63,7.85,13.61,7.84,-7.84,-7.35,-8.17,5.79,5.77,5.78
112.97,13.64,7.93,13.64,7.92,-7.92,-7.41,-8.30,5.72,5.72,5.71
114.10,13.65,7.99,13.65,7.99,-7.99,-7.48,-8.42,5.66,5.66,5.66
115.24,13.67,8.07,13.66,8.06,-8.06,-7.54,-8.53,5.61,5.60,5.60
116.39,13.67,8.14,13.67,8.12,-8.12,-7.61,-8.64,5.55,5.54,5.53
117.55,13.66,8.19,13.66,8.18,-8.18,-7.67,-8.74,5.48,5.48,5.47
118.73,13.64,8.23,13.65,8.22,-8.22,-7.74,-8.83,5.42,5.43,5.41
119.92,13.62,8.26,13.63,8.26,-8.26,-7.80,-8.91,5.36,5.37,5.36
121.12,13.60,8.30,13.61,8.30,-8.30,-7.86,-8.98,5.30,5.31,5.30
122.33,13.58,8.33,13.57,8.32,-8.32,-7.92,-9.04,5.26,5.26,5.25
123.55,13.55,8.35,13.53,8.33,-8.33,-7.98,-9.09,5.22,5.20,5.20
124.79,13.50,8.35,13.49,8.34,-8.34,-8.04,-9.12,5.16,5.15,5.15
126.03,13.44,8.34,13.44,8.34,-8.34,-8.10,-9.15,5.10,5.10,5.10
127.29,13.41,8.36,13.38,8.33,-8.33,-8.16,-9.16,5.08,5.05,5.05
128.57,13.36,8.37,13.32,8.32,-8.32,-8.22,-9.16,5.04,5.00,4.99
129.85,13.27,8.32,13.26,8.30,-8.30,-8.27,-9.16,4.97,4.96,4.95
131.15,13.17,8.27,13.19,8.28,-8.28,-8.33,-9.14,4.89,4.91,4.90
132.46,13.12,8.26,13.12,8.25,-8.25,-8.38,-9.11,4.87,4.87,4.86
133.79,13.04,8.22,13.05,8.23,-8.23,-8.43,-9.07,4.81,4.82,4.82
135.12,12.95,8.17,12.98,8.20,-8.20,-8.48,-9.02,4.75,4.78,4.78
136.48,12.91,8.17,12.92,8.17,-8.17,-8.53,-8.97,4.74,4.74,4.74
137.84,12.85,8.15,12.85,8.15,-8.15,-8.58,-8.91,4.70,4.70,4.70
139.22,12.81,8.16,12.80,8.14,-8.14,-8.63,-8.85,4.67,4.66,4.65
140.61,12.76,8.15,12.75,8.12,-8.12,-8.67,-8.78,4.64,4.63,4.61
142.02,12.70,8.11,12.71,8.12,-8.12,-8.72,-8.71,4.58,4.59,4.59
143.44,12.67,8.12,12.68,8.13,-8.13,-8.76,-8.63,4.54,4.55,4.55
144.87,12.63,8.12,12.66,8.15,-8.15,-8.80,-8.56,4.48,4.51,4.51
146.32,12.63,8.16,12.65,8.17,-8.17,-8.84,-8.48,4.46,4.48,4.47
147.78,12.62,8.18,12.64,8.21,-8.21,-8.88,-8.41,4.41,4.44,4.44
149.26,12.62,8.21,12.65,8.25,-8.25,-8.92,-8.33,4.37,4.40,4.41
150.75,12.64,8.29,12.66,8.30,-8.30,-8.95,-8.26,4.34,4.36,4.35
152.26,12.67,8.36,12.68,8.36,-8.36,-8.99,-8.18,4.31,4.32,4.31
153.78,12.71,8.43,12.71,8.43,-8.43,-9.02,-8.12,4.28,4.27,4.28
155.32,12.74,8.52,12.74,8.51,-8.51,-9.05,-8.05,4.23,4.23,4.22
156.88,12.79,8.60,12.78,8.59,-8.59,-9.08,-7.99,4.20,4.19,4.19
158.44,12.81,8.67,12.82,8.67,-8.67,-9.10,-7.93,4.14,4.14,4.14
160.03,12.86,8.77,12.85,8.75,-8.75,-9.13,-7.87,4.11,4.10,4.09
161.63,12.88,8.84,12.89,8.83,-8.83,-9.15,-7.82,4.05,4.05,4.04
163.24,12.91,8.91,12.91,8.91,-8.91,-9.17,-7.78,4.00,4.01,4.00
164.88,12.97,9.01,12.94,8.98,-8.98,-9.18,-7.74,3.99,3.96,3.96
166.53,12.99,9.08,12.96,9.04,-9.04,-9.20,-7.70,3.95,3.91,3.91
168.19,13.00,9.14,12.97,9.10,-9.10,-9.21,-7.67,3.90,3.86,3.86
169.87,12.99,9.18,12.97,9.15,-9.15,-9.22,-7.65,3.84,3.81,3.81
171.57,12.97,9.20,12.96,9.20,-9.20,-9.23,-7.63,3.77,3.76,3.77
173.29,12.96,9.25,12.95,9.24,-9.24,-9.24,-7.61,3.72,3.71,3.71
175.02,12.92,9.26,12.93,9.27,-9.27,-9.24,-7.61,3.65,3.66,3.66
176.77,12.89,9.29,12.90,9.30,-9.30,-9.24,-7.60,3.59,3.61,3.60
178.54,12.86,9.31,12.87,9.31,-9.31,-9.24,-7.61,3.55,3.55,3.55
180.32,12.82,9.33,12.83,9.33,-9.33,-9.24,-7.62,3.49,3.50,3.49
182.13,12.79,9.35,12.78,9.34,-9.34,-9.23,-7.63,3.45,3.44,3.44
183.95,12.72,9.34,12.73,9.34,-9.34,-9.22,-7.65,3.38,3.39,3.38
185.79,12.67,9.34,12.67,9.34,-9.34,-9.21,-7.68,3.33,3.33,3.33
187.65,12.61,9.35,12.62,9.34,-9.34,-9.20,-7.71,3.27,3.27,3.26
189.52,12.55,9.34,12.56,9.34,-9.34,-9.18,-7.75,3.21,3.22,3.21
191.42,12.49,9.33,12.49,9.32,-9.32,-9.16,-7.79,3.17,3.17,3.16
193.33,12.42,9.31,12.42,9.31,-9.31,-9.14,-7.83,3.11,3.11,3.11
195.27,12.35,9.29,12.35,9.29,-9.29,-9.12,-7.89,3.06,3.06,3.06
197.22,12.28,9.28,12.28,9.27,-9.27,-9.09,-7.94,3.01,3.01,3.00
199.19,12.21,9.26,12.20,9.24,-9.24,-9.06,-8.00,2.97,2.96,2.95
201.18,12.13,9.23,12.12,9.21,-9.21,-9.03,-8.06,2.92,2.91,2.90
203.19,12.05,9.18,12.04,9.17,-9.17,-9.00,-8.13,2.88,2.86,2.87
205.23,11.95,9.14,11.95,9.13,-9.13,-8.96,-8.20,2.82,2.82,2.81
207.28,11.86,9.07,11.87,9.09,-9.09,-8.92,-8.27,2.77,2.78,2.79
209.35,11.78,9.05,11.79,9.05,-9.05,-8.88,-8.35,2.73,2.73,2.73
211.44,11.69,9.01,11.70,9.01,-9.01,-8.84,-8.42,2.68,2.69,2.68
213.56,11.61,8.97,11.62,8.96,-8.96,-8.79,-8.50,2.65,2.65,2.64
215.69,11.51,8.89,11.53,8.91,-8.91,-8.74,-8.57,2.60,2.62,2.62
217.85,11.42,8.84,11.44,8.86,-8.86,-8.69,-8.65,2.56,2.58,2.58
220.03,11.36,8.82,11.36,8.81,-8.81,-8.63,-8.72,2.55,2.55,2.54
222.23,11.29,8.78,11.27,8.75,-8.75,-8.58,-8.79,2.54,2.52,2.51
224.45,11.19,8.70,11.18,8.69,-8.69,-8.52,-8.85,2.50,2.49,2.49
226.70,11.11,8.65,11.10,8.63,-8.63,-8.46,-8.91,2.48,2.47,2.46
228.96,11.01,8.58,11.01,8.57,-8.57,-8.39,-8.97,2.44,2.44,2.43
231.25,10.94,8.52,10.93,8.50,-8.50,-8.33,-9.01,2.44,2.42,2.42
233.57,10.84,8.44,10.84,8.43,-8.43,-8.26,-9.05,2.41,2.41,2.40
235.90,10.73,8.34,10.75,8.35,-8.35,-8.19,-9.07,2.38,2.40,2.39
238.26,10.66,8.28,10.66,8.28,-8.28,-8.11,-9.09,2.38,2.38,2.38
240.64,10.57,8.20,10.57,8.20,-8.20,-8.04,-9.09,2.37,2.38,2.37
243.05,10.49,8.12,10.48,8.11,-8.11,-7.96,-9.08,2.38,2.37,2.37
245.48,10.39,8.03,10.39,8.02,-8.02,-7.88,-9.06,2.37,2.37,2.36
247.93,10.27,7.91,10.29,7.92,-7.92,-7.80,-9.02,2.35,2.37,2.36
250.41,10.21,7.85,10.20,7.83,-7.83,-7.71,-8.97,2.38,2.37,2.36
252.92,10.08,7.71,10.10,7.73,-7.73,-7.62,-8.91,2.35,2.37,2.37
255.45,10.01,7.63,10.01,7.63,-7.63,-7.53,-8.83,2.38,2.38,2.38
258.00,9.93,7.54,9.91,7.52,-7.52,-7.44,-8.73,2.41,2.39,2.39
260.58,9.81,7.42,9.81,7.41,-7.41,-7.35,-8.62,2.40,2.40,2.39
263.19,9.72,7.32,9.71,7.30,-7.30,-7.26,-8.50,2.42,2.41,2.40
265.82,9.60,7.19,9.61,7.19,-7.19,-7.16,-8.37,2.41,2.42,2.41
268.48,9.51,7.08,9.50,7.07,-7.07,-7.06,-8.22,2.44,2.43,2.43
271.16,9.41,6.96,9.40,6.95,-6.95,-6.96,-8.07,2.46,2.45,2.45
273.87,9.29,6.84,9.29,6.83,-6.83,-6.85,-7.90,2.46,2.46,2.45
276.61,9.18,6.70,9.18,6.71,-6.71,-6.75,-7.73,2.47,2.47,2.48
279.38,9.07,6.59,9.08,6.59,-6.59,-6.64,-7.55,2.48,2.49,2.48
282.17,8.96,6.46,8.97,6.47,-6.47,-6.53,-7.36,2.49,2.50,2.50
284.99,8.86,6.35,8.85,6.34,-6.34,-6.42,-7.17,2.52,2.51,2.51
287.84,8.72,6.20,8.74,6.21,-6.21,-6.31,-6.98,2.51,2.53,2.52
290.72,8.62,6.09,8.63,6.09,-6.09,-6.19,-6.78,2.53,2.54,2.53
293.63,8.51,5.96,8.52,5.96,-5.96,-6.08,-6.57,2.55,2.56,2.55
296.57,8.41,5.84,8.40,5.83,-5.83,-5.96,-6.37,2.58,2.57,2.57
299.53,8.28,5.71,8.28,5.70,-5.70,-5.84,-6.16,2.58,2.58,2.57
302.53,8.17,5.59,8.16,5.57,-5.57,-5.71,-5.96,2.60,2.59,2.58
305.55,8.05,5.45,8.04,5.44,-5.44,-5.59,-5.75,2.61,2.60,2.60
308.61,7.92,5.31,7.92,5.30,-5.30,-5.46,-5.54,2.62,2.61,2.61
311.69,7.78,5.16,7.79,5.16,-5.16,-5.34,-5.34,2.62,2.63,2.62
314.81,7.68,5.03,7.66,5.03,-5.03,-5.21,-5.13,2.65,2.63,2.65
317.96,7.55,4.91,7.53,4.89,-4.89,-5.07,-4.93,2.66,2.64,2.64
321.14,7.40,4.75,7.40,4.74,-4.74,-4.94,-4.73,2.66,2.65,2.65
324.35,7.26,4.61,7.26,4.60,-4.60,-4.81,-4.53,2.66,2.66,2.65
327.59,7.11,4.45,7.12,4.46,-4.46,-4.67,-4.33,2.65,2.66,2.66
330.87,6.99,4.33,6.98,4.32,-4.32,-4.53,-4.13,2.67,2.67,2.66
334.18,6.84,4.18,6.84,4.17,-4.17,-4.39,-3.94,2.67,2.67,2.66
337.52,6.67,4.00,6.70,4.03,-4.03,-4.25,-3.74,2.64,2.67,2.67
340.90,6.56,3.89,6.56,3.89,-3.89,-4.10,-3.55,2.67,2.67,2.67
344.30,6.41,3.74,6.42,3.75,-3.75,-3.96,-3.36,2.66,2.67,2.67
347.75,6.28,3.61,6.28,3.60,-3.60,-3.81,-3.18,2.68,2.67,2.67
351.23,6.13,3.46,6.13,3.46,-3.46,-3.66,-2.99,2.67,2.67,2.67
354.74,6.00,3.33,5.98,3.32,-3.32,-3.51,-2.81,2.68,2.67,2.67
358.28,5.85,3.20,5.84,3.18,-3.18,-3.36,-2.63,2.67,2.66,2.65
361.87,5.71,3.06,5.70,3.04,-3.04,-3.21,-2.45,2.67,2.66,2.65
365.49,5.54,2.89,5.55,2.90,-2.90,-3.05,-2.27,2.64,2.65,2.65
369.14,5.40,2.76,5.40,2.76,-2.76,-2.90,-2.10,2.64,2.65,2.64
372.83,5.26,2.62,5.26,2.62,-2.62,-2.74,-1.92,2.64,2.64,2.64
376.56,5.10,2.47,5.11,2.48,-2.48,-2.58,-1.75,2.62,2.63,2.63
380.33,4.95,2.33,4.96,2.34,-2.34,-2.42,-1.58,2.61,2.62,2.62
384.13,4.80,2.19,4.81,2.19,-2.19,-2.26,-1.41,2.61,2.62,2.61
387.97,4.65,2.05,4.66,2.04,-2.04,-2.09,-1.25,2.61,2.61,2.60
391.85,4.51,1.92,4.50,1.90,-1.90,-1.93,-1.08,2.61,2.60,2.59
395.77,4.37,1.77,4.35,1.75,-1.75,-1.77,-0.92,2.62,2.60,2.60
399.73,4.21,1.62,4.19,1.60,-1.60,-1.60,-0.76,2.61,2.59,2.59
403.72,4.04,1.46,4.03,1.45,-1.45,-1.44,-0.61,2.59,2.58,2.58
407.76,3.88,1.31,3.88,1.30,-1.30,-1.27,-0.45,2.58,2.58,2.57
411.84,3.72,1.14,3.72,1.14,-1.14,-1.10,-0.30,2.58,2.57,2.58
415.96,3.56,1.00,3.56,0.99,-0.99,-0.94,-0.15,2.57,2.57,2.56
420.12,3.39,0.83,3.40,0.83,-0.83,-0.77,0.00,2.56,2.57,2.56
424.32,3.22,0.66,3.24,0.67,-0.67,-0.61,0.15,2.55,2.56,2.56
428.56,3.08,0.53,3.08,0.52,-0.52,-0.44,0.29,2.56,2.56,2.55
432.85,2.92,0.37,2.92,0.36,-0.36,-0.28,0.43,2.56,2.56,2.55
437.18,2.75,0.20,2.76,0.20,-0.20,-0.11,0.56,2.55,2.56,2.55
441.55,2.61,0.05,2.61,0.05,-0.05,0.05,0.70,2.56,2.56,2.56
445.96,2.46,-0.10,2.46,-0.10,0.10,0.21,0.82,2.56,2.56,2.56
450.42,2.30,-0.25,2.31,-0.25,0.25,0.37,0.95,2.55,2.56,2.55
454.93,2.17,-0.39,2.16,-0.40,0.40,0.52,1.06,2.57,2.56,2.56
459.48,2.01,-0.55,2.02,-0.55,0.55,0.68,1.18,2.56,2.57,2.56
464.07,1.88,-0.69,1.88,-0.69,0.69,0.83,1.29,2.57,2.57,2.57
468.71,1.75,-0.83,1.74,-0.84,0.84,0.97,1.39,2.59,2.58,2.58
473.40,1.60,-0.97,1.60,-0.98,0.98,1.12,1.48,2.58,2.58,2.57
478.13,1.46,-1.12,1.46,-1.12,1.12,1.26,1.58,2.58,2.59,2.58
482.91,1.34,-1.24,1.33,-1.26,1.26,1.39,1.66,2.60,2.59,2.58
487.74,1.21,-1.38,1.20,-1.40,1.40,1.52,1.74,2.61,2.60,2.59
492.62,1.08,-1.52,1.07,-1.53,1.53,1.65,1.81,2.61,2.60,2.60
497.55,0.95,-1.65,0.95,-1.66,1.66,1.77,1.88,2.61,2.61,2.60
502.52,0.84,-1.77,0.83,-1.78,1.78,1.88,1.94,2.62,2.61,2.61
507.55,0.71,-1.90,0.71,-1.90,1.90,1.99,1.99,2.61,2.61,2.61
512.62,0.59,-2.02,0.60,-2.01,2.01,2.09,2.04,2.60,2.62,2.61
517.75,0.48,-2.14,0.50,-2.12,2.12,2.19,2.08,2.60,2.62,2.62
522.93,0.38,-2.24,0.40,-2.23,2.23,2.28,2.11,2.61,2.62,2.62
528.16,0.29,-2.33,0.30,-2.32,2.32,2.36,2.14,2.61,2.62,2.62
