frequency,raw,error,smoothed,error_smoothed,equalization,parametric_eq,fixed_band_eq,equalized_raw,equalized_smoothed,target
20.00,-20.62,-29.93,-20.62,-29.93,29.93,30.47,15.44,9.32,9.32,9.32
20.20,-20.49,-29.84,-20.49,-29.85,29.85,30.27,15.64,9.36,9.36,9.36
20.40,-20.36,-29.76,-20.36,-29.76,29.76,30.08,15.85,9.40,9.40,9.40
20.61,-20.24,-29.67,-20.24,-29.67,29.67,29.90,16.07,9.43,9.43,9.43
20.81,-20.11,-29.57,-20.11,-29.58,29.58,29.72,16.29,9.47,9.47,9.47
21.02,-19.99,-29.49,-19.98,-29.48,29.48,29.55,16.51,9.49,9.50,9.51
21.23,-19.86,-29.38,-19.86,-29.38,29.38,29.38,16.74,9.52,9.52,9.53
21.44,-19.72,-29.27,-19.73,-29.28,29.27,29.22,16.97,9.55,9.55,9.55
21.66,-19.60,-29.17,-19.60,-29.16,29.16,29.06,17.21,9.56,9.57,9.57
21.87,-19.46,-29.04,-19.46,-29.05,29.05,28.91,17.46,9.59,9.58,9.58
22.09,-19.33,-28.93,-19.34,-28.93,28.93,28.76,17.71,9.60,9.60,9.60
22.31,-19.20,-28.81,-19.21,-28.81,28.81,28.61,17.97,9.61,9.61,9.61
22.54,-19.08,-28.70,-19.08,-28.69,28.69,28.47,18.24,9.61,9.61,9.62
22.76,-18.95,-28.57,-18.95,-28.57,28.57,28.33,18.51,9.62,9.62,9.63
22.99,-18.82,-28.44,-18.81,-28.44,28.44,28.20,18.79,9.63,9.63,9.63
23.22,-18.68,-28.31,-18.68,-28.32,28.32,28.07,19.08,9.65,9.64,9.64
23.45,-18.55,-28.19,-18.55,-28.19,28.20,27.94,19.38,9.65,9.65,9.65
23.69,-18.42,-28.08,-18.41,-28.07,28.08,27.81,19.69,9.66,9.66,9.66
23.92,-18.27,-27.94,-18.28,-27.95,27.95,27.69,20.01,9.68,9.67,9.67
24.16,-18.15,-27.83,-18.15,-27.83,27.83,27.56,20.34,9.68,9.68,9.69
24.40,-18.01,-27.72,-18.01,-27.71,27.71,27.45,20.68,9.69,9.69,9.71
24.65,-17.89,-27.58,-17.88,-27.59,27.58,27.33,21.03,9.70,9.70,9.70
24.89,-17.75,-27.46,-17.75,-27.46,27.46,27.21,21.40,9.71,9.71,9.71
25.14,-17.61,-27.33,-17.62,-27.33,27.34,27.10,21.78,9.72,9.72,9.72
25.39,-17.48,-27.21,-17.48,-27.21,27.21,26.99,22.18,9.73,9.73,9.73
25.65,-17.35,-27.09,-17.35,-27.09,27.09,26.88,22.59,9.74,9.74,9.75
25.91,-17.22,-26.97,-17.22,-26.97,26.97,26.77,23.02,9.75,9.75,9.75
26.16,-17.08,-26.84,-17.08,-26.84,26.84,26.66,23.47,9.76,9.76,9.76
26.43,-16.95,-26.72,-16.95,-26.72,26.72,26.55,23.94,9.77,9.77,9.77
26.69,-16.82,-26.59,-16.82,-26.60,26.60,26.45,24.44,9.78,9.78,9.78
26.96,-16.69,-26.48,-16.69,-26.48,26.48,26.34,24.96,9.79,9.79,9.80
27.23,-16.56,-26.37,-16.55,-26.36,26.35,26.24,25.50,9.79,9.80,9.81
27.50,-16.42,-26.22,-16.42,-26.23,26.23,26.14,26.08,9.81,9.81,9.81
27.77,-16.28,-26.09,-16.29,-26.10,26.10,26.03,26.69,9.82,9.82,9.81
28.05,-16.16,-25.98,-16.16,-25.98,25.98,25.93,27.33,9.82,9.82,9.83
28.33,-16.03,-25.85,-16.02,-25.85,25.85,25.83,28.00,9.83,9.83,9.83
28.62,-15.90,-25.74,-15.89,-25.73,25.73,25.73,28.72,9.83,9.84,9.84
28.90,-15.76,-25.60,-15.76,-25.61,25.61,25.62,29.47,9.85,9.84,9.85
29.19,-15.64,-25.48,-15.63,-25.49,25.49,25.52,30.25,9.85,9.85,9.85
29.48,-15.51,-25.38,-15.50,-25.37,25.37,25.42,31.06,9.86,9.87,9.88
29.78,-15.38,-25.24,-15.38,-25.25,25.25,25.32,31.88,9.87,9.87,9.87
30.08,-15.25,-25.13,-15.25,-25.13,25.14,25.21,32.67,9.89,9.88,9.88
30.38,-15.14,-25.02,-15.14,-25.02,25.02,25.11,33.39,9.89,9.89,9.88
30.68,-15.03,-24.92,-15.02,-24.91,24.91,25.01,33.98,9.89,9.89,9.90
30.99,-14.91,-24.81,-14.91,-24.81,24.80,24.90,34.35,9.90,9.89,9.90
31.30,-14.80,-24.69,-14.80,-24.70,24.69,24.80,34.45,9.90,9.90,9.90
31.61,-14.68,-24.58,-14.68,-24.59,24.59,24.69,34.26,9.91,9.91,9.91
31.93,-14.57,-24.49,-14.56,-24.48,24.48,24.59,33.82,9.91,9.92,9.92
32.24,-14.44,-24.36,-14.45,-24.37,24.37,24.48,33.20,9.93,9.93,9.92
32.57,-14.33,-24.26,-14.33,-24.26,24.26,24.37,32.48,9.94,9.93,9.94
32.89,-14.22,-24.15,-14.21,-24.15,24.15,24.26,31.71,9.94,9.94,9.94
33.22,-14.10,-24.04,-14.10,-24.04,24.04,24.15,30.93,9.95,9.95,9.95
33.55,-13.97,-23.93,-13.98,-23.93,23.93,24.04,30.17,9.96,9.95,9.96
33.89,-13.86,-23.82,-13.86,-23.82,23.82,23.93,29.44,9.96,9.96,9.97
34.23,-13.74,-23.70,-13.73,-23.70,23.70,23.81,28.75,9.97,9.97,9.97
34.57,-13.61,-23.58,-13.61,-23.59,23.59,23.70,28.09,9.98,9.98,9.98
34.92,-13.49,-23.46,-13.49,-23.47,23.47,23.58,27.47,9.98,9.98,9.98
35.27,-13.37,-23.36,-13.36,-23.35,23.35,23.46,26.89,9.98,9.99,9.99
35.62,-13.24,-23.22,-13.24,-23.23,23.23,23.34,26.34,9.99,9.99,9.99
35.97,-13.11,-23.10,-13.11,-23.10,23.10,23.22,25.82,9.99,9.99,9.99
36.33,-12.98,-22.98,-12.99,-22.98,22.98,23.10,25.33,9.99,9.99,10.00
36.70,-12.86,-22.84,-12.86,-22.85,22.85,22.97,24.86,9.99,9.99,9.99
37.06,-12.72,-22.72,-12.72,-22.72,22.72,22.85,24.42,9.99,9.99,10.00
37.43,-12.58,-22.58,-12.59,-22.58,22.58,22.72,24.01,10.00,10.00,10.00
37.81,-12.45,-22.44,-12.45,-22.44,22.44,22.59,23.61,10.00,10.00,10.00
38.19,-12.31,-22.30,-12.31,-22.31,22.31,22.46,23.24,10.00,10.00,10.00
38.57,-12.18,-22.16,-12.18,-22.17,22.17,22.33,22.88,9.99,9.99,9.99
38.95,-12.04,-22.03,-12.04,-22.03,22.03,22.19,22.54,9.98,9.99,9.99
39.34,-11.90,-21.88,-11.90,-21.88,21.89,22.06,22.21,9.98,9.98,9.98
39.74,-11.77,-21.74,-11.77,-21.75,21.75,21.92,21.90,9.98,9.98,9.98
40.14,-11.63,-21.61,-11.63,-21.61,21.61,21.78,21.61,9.98,9.98,9.98
40.54,-11.50,-21.47,-11.49,-21.47,21.47,21.64,21.33,9.97,9.97,9.98
40.94,-11.36,-21.32,-11.36,-21.33,21.33,21.50,21.06,9.97,9.97,9.97
41.35,-11.22,-21.18,-11.22,-21.18,21.19,21.35,20.80,9.97,9.97,9.97
41.76,-11.07,-21.04,-11.07,-21.04,21.05,21.21,20.55,9.97,9.97,9.97
42.18,-10.94,-20.90,-10.94,-20.90,20.90,21.06,20.32,9.97,9.97,9.97
42.60,-10.79,-20.76,-10.79,-20.76,20.76,20.91,20.09,9.96,9.96,9.97
43.03,-10.66,-20.62,-10.65,-20.62,20.61,20.76,19.87,9.96,9.96,9.97
43.46,-10.51,-20.47,-10.51,-20.47,20.47,20.61,19.67,9.96,9.96,9.97
43.90,-10.37,-20.32,-10.37,-20.32,20.32,20.46,19.47,9.95,9.95,9.95
44.33,-10.22,-20.17,-10.23,-20.17,20.17,20.30,19.28,9.95,9.95,9.95
44.78,-10.09,-20.02,-10.09,-20.03,20.03,20.15,19.10,9.94,9.94,9.94
45.23,-9.95,-19.89,-9.94,-19.88,19.88,19.99,18.92,9.94,9.94,9.94
45.68,-9.80,-19.73,-9.80,-19.74,19.74,19.83,18.75,9.94,9.94,9.94
46.13,-9.65,-19.58,-9.66,-19.59,19.60,19.67,18.59,9.94,9.94,9.93
46.60,-9.53,-19.46,-9.52,-19.45,19.45,19.51,18.44,9.93,9.93,9.94
47.06,-9.39,-19.31,-9.39,-19.31,19.31,19.35,18.29,9.93,9.93,9.93
47.53,-9.25,-19.16,-9.25,-19.18,19.17,19.18,18.15,9.92,9.92,9.92
48.01,-9.12,-19.04,-9.11,-19.03,19.03,19.02,18.01,9.91,9.91,9.93
48.49,-8.98,-18.88,-8.98,-18.89,18.88,18.85,17.88,9.91,9.90,9.91
48.97,-8.85,-18.73,-8.84,-18.73,18.74,18.68,17.76,9.89,9.89,9.89
49.46,-8.71,-18.58,-8.71,-18.58,18.59,18.51,17.64,9.89,9.88,9.88
49.96,-8.58,-18.43,-8.58,-18.44,18.44,18.34,17.52,9.87,9.87,9.86
50.46,-8.45,-18.30,-8.45,-18.30,18.29,18.17,17.41,9.85,9.85,9.86
50.96,-8.32,-18.15,-8.31,-18.15,18.14,18.00,17.30,9.83,9.83,9.84
51.47,-8.18,-17.98,-8.18,-17.99,17.99,17.83,17.19,9.82,9.81,9.81
51.99,-8.04,-17.83,-8.04,-17.84,17.84,17.65,17.08,9.80,9.80,9.80
52.51,-7.90,-17.68,-7.90,-17.68,17.68,17.48,16.98,9.78,9.78,9.79
53.03,-7.76,-17.52,-7.75,-17.52,17.52,17.30,16.88,9.77,9.77,9.77
53.56,-7.61,-17.36,-7.61,-17.36,17.36,17.12,16.78,9.75,9.75,9.76
54.10,-7.46,-17.18,-7.46,-17.19,17.20,16.94,16.68,9.74,9.74,9.73
54.64,-7.32,-17.03,-7.31,-17.02,17.03,16.77,16.58,9.71,9.71,9.72
55.18,-7.17,-16.85,-7.17,-16.86,16.86,16.59,16.48,9.69,9.68,9.69
55.74,-7.03,-16.68,-7.02,-16.69,16.68,16.40,16.37,9.65,9.66,9.66
56.29,-6.87,-16.52,-6.86,-16.51,16.51,16.22,16.27,9.64,9.64,9.66
56.86,-6.70,-16.33,-6.70,-16.33,16.33,16.04,16.16,9.63,9.63,9.63
57.42,-6.54,-16.13,-6.54,-16.14,16.15,15.86,16.04,9.62,9.61,9.60
58.00,-6.38,-15.95,-6.38,-15.96,15.97,15.67,15.93,9.59,9.59,9.58
58.58,-6.23,-15.78,-6.22,-15.78,15.79,15.49,15.80,9.56,9.56,9.56
59.16,-6.07,-15.60,-6.07,-15.60,15.60,15.30,15.68,9.54,9.54,9.54
59.76,-5.91,-15.42,-5.90,-15.42,15.41,15.11,15.54,9.50,9.51,9.52
60.35,-5.74,-15.22,-5.74,-15.23,15.22,14.93,15.40,9.48,9.47,9.49
60.96,-5.58,-15.03,-5.57,-15.03,15.02,14.74,15.25,9.44,9.44,9.46
61.57,-5.41,-14.81,-5.40,-14.82,14.81,14.55,15.10,9.40,9.41,9.41
62.18,-5.23,-14.59,-5.23,-14.60,14.60,14.36,14.94,9.38,9.38,9.37
62.80,-5.05,-14.39,-5.04,-14.38,14.39,14.17,14.76,9.35,9.35,9.35
63.43,-4.87,-14.16,-4.87,-14.17,14.18,13.98,14.59,9.31,9.31,9.30
64.07,-4.69,-13.94,-4.69,-13.96,13.96,13.79,14.40,9.27,9.27,9.26
64.71,-4.53,-13.75,-4.52,-13.74,13.75,13.59,14.20,9.22,9.23,9.23
65.35,-4.35,-13.53,-4.35,-13.53,13.53,13.40,14.00,9.18,9.18,9.19
66.01,-4.17,-13.31,-4.17,-13.32,13.31,13.21,13.79,9.15,9.15,9.15
66.67,-3.99,-13.10,-3.99,-13.10,13.10,13.01,13.58,9.11,9.11,9.12
67.33,-3.81,-12.88,-3.81,-12.88,12.88,12.82,13.35,9.07,9.07,9.08
68.01,-3.63,-12.66,-3.62,-12.66,12.66,12.62,13.12,9.03,9.04,9.04
68.69,-3.44,-12.43,-3.44,-12.44,12.44,12.42,12.89,9.00,9.00,9.00
69.37,-3.25,-12.21,-3.26,-12.21,12.22,12.22,12.65,8.97,8.96,8.96
70.07,-3.08,-11.99,-3.08,-12.00,12.00,12.02,12.40,8.93,8.92,8.92
70.77,-2.91,-11.78,-2.90,-11.78,11.78,11.82,12.15,8.88,8.88,8.88
71.48,-2.73,-11.57,-2.73,-11.57,11.57,11.62,11.90,8.84,8.84,8.85
72.19,-2.55,-11.34,-2.55,-11.35,11.35,11.42,11.64,8.80,8.80,8.80
72.91,-2.37,-11.13,-2.37,-11.13,11.13,11.22,11.38,8.76,8.76,8.77
73.64,-2.19,-10.91,-2.18,-10.91,10.91,11.02,11.12,8.72,8.72,8.73
74.38,-2.00,-10.69,-2.00,-10.69,10.69,10.81,10.86,8.69,8.69,8.70
75.12,-1.81,-10.46,-1.81,-10.47,10.47,10.61,10.59,8.66,8.66,8.66
75.87,-1.62,-10.24,-1.61,-10.24,10.25,10.40,10.32,8.63,8.63,8.63
76.63,-1.43,-10.02,-1.42,-10.02,10.03,10.19,10.05,8.60,8.61,8.60
77.40,-1.24,-9.80,-1.24,-9.81,9.81,9.99,9.78,8.58,8.58,8.57
78.17,-1.06,-9.59,-1.06,-9.60,9.60,9.78,9.51,8.55,8.54,8.54
78.95,-0.89,-9.39,-0.88,-9.39,9.39,9.57,9.24,8.51,8.51,8.51
79.74,-0.71,-9.19,-0.70,-9.19,9.18,9.36,8.97,8.48,8.48,8.49
80.54,-0.52,-8.98,-0.52,-8.98,8.97,9.14,8.70,8.46,8.46,8.47
81.35,-0.33,-8.76,-0.33,-8.77,8.77,8.93,8.43,8.44,8.44,8.44
82.16,-0.14,-8.54,-0.14,-8.55,8.56,8.72,8.16,8.42,8.42,8.41
82.98,0.04,-8.35,0.05,-8.34,8.35,8.50,7.89,8.39,8.39,8.40
83.81,0.23,-8.13,0.23,-8.14,8.13,8.28,7.62,8.37,8.36,8.37
84.65,0.41,-7.92,0.42,-7.93,7.92,8.07,7.35,8.33,8.34,8.34
85.50,0.61,-7.71,0.62,-7.71,7.70,7.85,7.08,8.31,8.32,8.33
86.35,0.82,-7.48,0.82,-7.48,7.48,7.63,6.80,8.31,8.30,8.31
87.22,1.03,-7.25,1.03,-7.26,7.26,7.40,6.53,8.29,8.29,8.29
88.09,1.24,-7.02,1.24,-7.03,7.03,7.18,6.26,8.28,8.27,8.27
88.97,1.44,-6.80,1.44,-6.81,6.81,6.96,5.99,8.25,8.25,8.25
89.86,1.65,-6.58,1.65,-6.58,6.58,6.73,5.72,8.23,8.23,8.24
90.76,1.85,-6.35,1.86,-6.35,6.35,6.50,5.45,8.20,8.21,8.21
91.66,2.07,-6.11,2.07,-6.12,6.12,6.28,5.18,8.20,8.19,8.19
92.58,2.28,-5.88,2.28,-5.89,5.89,6.05,4.91,8.18,8.17,8.17
93.51,2.49,-5.66,2.49,-5.66,5.66,5.81,4.64,8.16,8.16,8.16
94.44,2.70,-5.43,2.70,-5.43,5.43,5.58,4.37,8.14,8.14,8.14
95.39,2.91,-5.20,2.91,-5.20,5.20,5.35,4.10,8.11,8.11,8.12
96.34,3.12,-4.96,3.12,-4.97,4.96,5.11,3.82,8.08,8.08,8.09
97.30,3.32,-4.73,3.33,-4.73,4.72,4.88,3.55,8.05,8.05,8.06
98.28,3.53,-4.49,3.53,-4.50,4.49,4.64,3.28,8.02,8.02,8.03
99.26,3.74,-4.26,3.75,-4.26,4.26,4.40,3.01,8.01,8.01,8.01
100.25,3.96,-4.01,3.97,-4.01,4.04,4.16,2.75,8.01,8.01,7.98
101.25,4.17,-3.77,4.17,-3.78,3.82,3.92,2.48,8.00,7.99,7.95
102.27,4.36,-3.54,4.34,-3.58,3.60,3.68,2.21,7.96,7.93,7.91
103.29,4.48,-3.39,4.49,-3.39,3.37,3.43,1.95,7.85,7.86,7.88
104.32,4.63,-3.21,4.66,-3.18,3.13,3.19,1.68,7.77,7.80,7.85
105.37,4.87,-2.93,4.86,-2.94,2.89,2.94,1.42,7.77,7.76,7.81
106.42,5.10,-2.65,5.10,-2.67,2.64,2.70,1.17,7.74,7.74,7.76
107.48,5.34,-2.38,5.34,-2.38,2.38,2.45,0.91,7.72,7.72,7.73
108.56,5.57,-2.09,5.57,-2.10,2.10,2.20,0.67,7.68,7.68,7.67
109.64,5.80,-1.81,5.80,-1.82,1.83,1.96,0.42,7.63,7.63,7.62
110.74,6.02,-1.54,6.03,-1.54,1.55,1.71,0.18,7.58,7.58,7.57
111.85,6.24,-1.27,6.24,-1.27,1.29,1.46,-0.05,7.53,7.53,7.52
112.97,6.44,-1.00,6.45,-1.00,1.03,1.22,-0.27,7.47,7.48,7.45
114.10,6.64,-0.75,6.64,-0.76,0.78,0.98,-0.49,7.42,7.42,7.40
115.24,6.82,-0.51,6.79,-0.54,0.54,0.73,-0.69,7.37,7.33,7.34
116.39,6.92,-0.34,6.94,-0.33,0.31,0.49,-0.89,7.23,7.25,7.27
117.55,7.06,-0.14,7.09,-0.12,0.09,0.25,-1.07,7.15,7.18,7.21
118.73,7.27,0.13,7.27,0.12,-0.13,0.02,-1.24,7.14,7.14,7.15
119.92,7.46,0.37,7.46,0.36,-0.35,-0.22,-1.40,7.12,7.11,7.10
121.12,7.64,0.61,7.62,0.58,-0.56,-0.45,-1.55,7.09,7.06,7.04
122.33,7.74,0.76,7.76,0.77,-0.76,-0.67,-1.68,6.98,6.99,6.99
123.55,7.87,0.94,7.90,0.97,-0.97,-0.89,-1.80,6.90,6.93,6.94
124.79,8.05,1.17,8.05,1.16,-1.17,-1.10,-1.90,6.88,6.88,6.89
126.03,8.22,1.39,8.19,1.36,-1.36,-1.31,-1.99,6.86,6.83,6.84
127.29,8.31,1.53,8.32,1.54,-1.54,-1.51,-2.06,6.77,6.78,6.79
128.57,8.42,1.70,8.45,1.72,-1.72,-1.70,-2.12,6.71,6.73,6.73
129.85,8.57,1.89,8.57,1.88,-1.88,-1.89,-2.16,6.69,6.68,6.69
131.15,8.71,2.08,8.69,2.05,-2.04,-2.06,-2.19,6.67,6.65,6.64
132.46,8.77,2.18,8.80,2.20,-2.19,-2.22,-2.21,6.59,6.61,6.60
133.79,8.88,2.33,8.88,2.33,-2.32,-2.38,-2.22,6.56,6.56,6.56
135.12,8.97,2.46,8.96,2.44,-2.45,-2.52,-2.21,6.53,6.51,6.52
136.48,9.02,2.55,9.03,2.56,-2.56,-2.65,-2.20,6.46,6.47,6.48
137.84,9.09,2.66,9.09,2.65,-2.66,-2.77,-2.18,6.43,6.42,6.44
139.22,9.13,2.75,9.14,2.75,-2.75,-2.87,-2.14,6.38,6.39,6.39
140.61,9.18,2.84,9.19,2.84,-2.83,-2.96,-2.10,6.35,6.36,6.35
142.02,9.24,2.92,9.23,2.91,-2.90,-3.04,-2.06,6.34,6.33,6.33
143.44,9.25,2.97,9.26,2.97,-2.96,-3.11,-2.01,6.29,6.30,6.29
144.87,9.26,3.02,9.26,3.01,-3.01,-3.16,-1.95,6.25,6.25,6.25
146.32,9.25,3.05,9.26,3.04,-3.05,-3.20,-1.89,6.21,6.21,6.21
147.78,9.24,3.07,9.25,3.07,-3.08,-3.23,-1.83,6.17,6.17,6.18
149.26,9.23,3.09,9.23,3.09,-3.09,-3.25,-1.77,6.14,6.13,6.15
150.75,9.19,3.11,9.20,3.10,-3.10,-3.25,-1.70,6.09,6.09,6.09
152.26,9.15,3.11,9.16,3.11,-3.11,-3.25,-1.64,6.05,6.05,6.05
153.78,9.11,3.10,9.11,3.10,-3.10,-3.23,-1.57,6.01,6.01,6.02
155.32,9.06,3.11,9.07,3.10,-3.09,-3.21,-1.51,5.97,5.97,5.96
156.88,9.00,3.08,9.00,3.08,-3.08,-3.17,-1.44,5.92,5.92,5.93
158.44,8.94,3.07,8.93,3.06,-3.06,-3.13,-1.38,5.89,5.87,5.88
160.03,8.84,3.02,8.86,3.03,-3.03,-3.08,-1.31,5.82,5.83,5.83
161.63,8.77,3.00,8.78,3.00,-3.00,-3.02,-1.25,5.78,5.78,5.78
163.24,8.71,2.98,8.69,2.95,-2.96,-2.96,-1.19,5.76,5.73,5.74
164.88,8.59,2.90,8.61,2.92,-2.92,-2.90,-1.13,5.68,5.70,5.70
166.53,8.51,2.87,8.52,2.87,-2.87,-2.82,-1.07,5.64,5.65,5.65
168.19,8.43,2.84,8.41,2.81,-2.82,-2.75,-1.02,5.61,5.59,5.60
169.87,8.30,2.76,8.33,2.78,-2.77,-2.67,-0.96,5.53,5.55,5.55
171.57,8.22,2.72,8.23,2.72,-2.72,-2.59,-0.91,5.50,5.50,5.51
173.29,8.14,2.70,8.12,2.67,-2.67,-2.50,-0.86,5.47,5.44,5.45
175.02,7.99,2.60,8.01,2.61,-2.62,-2.42,-0.82,5.37,5.39,5.40
176.77,7.88,2.55,7.90,2.56,-2.56,-2.33,-0.77,5.32,5.33,5.34
178.54,7.79,2.51,7.79,2.51,-2.50,-2.24,-0.73,5.29,5.29,5.29
180.32,7.69,2.47,7.69,2.46,-2.44,-2.15,-0.69,5.25,5.25,5.23
182.13,7.58,2.41,7.57,2.39,-2.38,-2.06,-0.66,5.21,5.19,5.18
183.95,7.41,2.30,7.43,2.31,-2.31,-1.97,-0.62,5.10,5.12,5.12
185.79,7.28,2.22,7.29,2.23,-2.24,-1.88,-0.59,5.04,5.05,5.07
187.65,7.16,2.17,7.16,2.15,-2.16,-1.79,-0.56,5.00,4.99,5.00
189.52,7.03,2.09,7.04,2.09,-2.09,-1.70,-0.53,4.95,4.95,4.95
191.42,6.90,2.01,6.90,2.01,-2.00,-1.62,-0.50,4.90,4.90,4.90
193.33,6.77,1.93,6.77,1.92,-1.92,-1.53,-0.48,4.86,4.85,4.85
195.27,6.62,1.83,6.63,1.83,-1.83,-1.44,-0.45,4.79,4.80,4.80
197.22,6.48,1.75,6.49,1.75,-1.74,-1.35,-0.43,4.74,4.74,4.74
199.19,6.34,1.66,6.34,1.65,-1.65,-1.27,-0.41,4.69,4.69,4.69
201.18,6.20,1.57,6.20,1.56,-1.56,-1.18,-0.39,4.64,4.64,4.64
203.19,6.06,1.46,6.06,1.46,-1.47,-1.10,-0.38,4.60,4.59,4.61
205.23,5.92,1.38,5.93,1.37,-1.38,-1.02,-0.36,4.55,4.55,4.55
207.28,5.79,1.27,5.80,1.28,-1.29,-0.94,-0.34,4.50,4.51,4.53
209.35,5.67,1.21,5.67,1.21,-1.20,-0.86,-0.33,4.47,4.47,4.47
211.44,5.55,1.14,5.55,1.12,-1.12,-0.78,-0.32,4.43,4.43,4.42
213.56,5.42,1.05,5.42,1.04,-1.04,-0.70,-0.30,4.38,4.38,4.38
215.69,5.30,0.95,5.31,0.96,-0.96,-0.63,-0.29,4.34,4.34,4.36
217.85,5.18,0.87,5.20,0.88,-0.89,-0.55,-0.28,4.30,4.31,4.32
220.03,5.10,0.83,5.09,0.81,-0.81,-0.48,-0.27,4.30,4.29,4.28
222.23,4.99,0.75,4.99,0.74,-0.73,-0.41,-0.26,4.27,4.26,4.25
224.45,4.87,0.65,4.87,0.65,-0.64,-0.33,-0.24,4.23,4.23,4.23
226.70,4.75,0.56,4.75,0.56,-0.56,-0.27,-0.23,4.20,4.20,4.20
228.96,4.62,0.46,4.64,0.46,-0.47,-0.20,-0.22,4.16,4.17,4.17
231.25,4.53,0.38,4.52,0.37,-0.37,-0.13,-0.20,4.16,4.15,4.16
233.57,4.41,0.28,4.41,0.27,-0.28,-0.06,-0.19,4.14,4.14,4.14
235.90,4.29,0.17,4.30,0.17,-0.18,0.00,-0.17,4.12,4.13,4.13
238.26,4.19,0.08,4.19,0.07,-0.07,0.07,-0.15,4.12,4.12,4.12
240.64,4.07,-0.03,4.08,-0.03,0.04,0.13,-0.13,4.11,4.12,4.11
243.05,3.97,-0.13,3.97,-0.14,0.15,0.19,-0.11,4.12,4.11,4.11
245.48,3.85,-0.24,3.85,-0.25,0.26,0.25,-0.09,4.11,4.11,4.10
247.93,3.71,-0.38,3.73,-0.37,0.37,0.31,-0.07,4.08,4.10,4.10
250.41,3.62,-0.47,3.61,-0.49,0.48,0.37,-0.04,4.10,4.09,4.10
252.92,3.49,-0.61,3.51,-0.60,0.59,0.43,-0.01,4.08,4.10,4.11
255.45,3.41,-0.70,3.41,-0.70,0.70,0.49,0.01,4.11,4.11,4.12
258.00,3.33,-0.79,3.32,-0.80,0.80,0.55,0.05,4.14,4.13,4.13
260.58,3.22,-0.90,3.23,-0.90,0.91,0.60,0.08,4.14,4.14,4.13
263.19,3.13,-1.00,3.13,-1.01,1.02,0.66,0.11,4.15,4.15,4.14
265.82,3.03,-1.11,3.04,-1.11,1.12,0.71,0.15,4.15,4.16,4.15
268.48,2.95,-1.21,2.95,-1.21,1.22,0.77,0.19,4.17,4.17,4.17
271.16,2.87,-1.31,2.87,-1.32,1.31,0.82,0.23,4.18,4.18,4.19
273.87,2.78,-1.40,2.79,-1.41,1.40,0.87,0.27,4.18,4.19,4.19
276.61,2.70,-1.51,2.71,-1.50,1.49,0.92,0.32,4.19,4.20,4.22
279.38,2.65,-1.56,2.65,-1.57,1.57,0.98,0.36,4.22,4.22,4.22
282.17,2.60,-1.63,2.60,-1.64,1.64,1.03,0.41,4.25,4.24,4.24
284.99,2.55,-1.69,2.55,-1.70,1.71,1.08,0.46,4.26,4.26,4.25
287.84,2.49,-1.76,2.50,-1.76,1.76,1.13,0.51,4.26,4.26,4.26
290.72,2.45,-1.81,2.45,-1.82,1.81,1.18,0.56,4.26,4.26,4.27
293.63,2.42,-1.86,2.42,-1.86,1.84,1.23,0.62,4.27,4.27,4.29
296.57,2.40,-1.90,2.41,-1.89,1.87,1.27,0.67,4.28,4.29,4.31
299.53,2.41,-1.89,2.41,-1.90,1.90,1.32,0.72,4.31,4.31,4.31
302.53,2.41,-1.90,2.41,-1.91,1.91,1.37,0.78,4.33,4.32,4.32
305.55,2.41,-1.92,2.42,-1.92,1.93,1.42,0.84,4.34,4.34,4.34
308.61,2.41,-1.93,2.42,-1.93,1.94,1.46,0.90,4.35,4.36,4.35
311.69,2.42,-1.93,2.42,-1.95,1.95,1.51,0.96,4.37,4.37,4.36
314.81,2.41,-1.97,2.42,-1.96,1.97,1.56,1.02,4.38,4.38,4.39
317.96,2.40,-1.97,2.40,-1.98,1.98,1.60,1.08,4.39,4.39,4.38
321.14,2.38,-2.00,2.38,-2.01,2.01,1.65,1.14,4.39,4.39,4.39
324.35,2.35,-2.03,2.35,-2.04,2.04,1.70,1.20,4.39,4.39,4.39
327.59,2.31,-2.08,2.33,-2.07,2.07,1.74,1.27,4.38,4.39,4.40
330.87,2.30,-2.09,2.30,-2.10,2.10,1.79,1.33,4.40,4.40,4.40
334.18,2.27,-2.12,2.27,-2.13,2.13,1.83,1.40,4.41,4.40,4.40
337.52,2.23,-2.17,2.24,-2.17,2.17,1.88,1.47,4.40,4.41,4.41
340.90,2.19,-2.21,2.20,-2.21,2.21,1.92,1.54,4.40,4.40,4.41
344.30,2.15,-2.25,2.16,-2.25,2.25,1.97,1.61,4.40,4.40,4.41
347.75,2.12,-2.28,2.12,-2.29,2.29,2.01,1.68,4.41,4.41,4.41
351.23,2.08,-2.32,2.08,-2.32,2.32,2.06,1.75,4.41,4.41,4.41
354.74,2.04,-2.36,2.04,-2.36,2.37,2.10,1.82,4.41,4.40,4.41
358.28,1.98,-2.40,1.99,-2.41,2.41,2.15,1.89,4.39,4.39,4.39
361.87,1.93,-2.45,1.94,-2.45,2.45,2.19,1.97,4.38,4.39,4.39
365.49,1.88,-2.50,1.89,-2.50,2.50,2.23,2.04,4.38,4.38,4.39
369.14,1.84,-2.53,1.84,-2.54,2.54,2.28,2.12,4.39,4.38,4.38
372.83,1.79,-2.58,1.79,-2.59,2.59,2.32,2.20,4.39,4.38,4.38
376.56,1.72,-2.64,1.73,-2.64,2.65,2.37,2.28,4.37,4.37,4.37
380.33,1.65,-2.70,1.66,-2.70,2.70,2.41,2.36,4.35,4.36,4.36
384.13,1.59,-2.75,1.59,-2.76,2.75,2.46,2.44,4.35,4.34,4.35
387.97,1.52,-2.81,1.53,-2.81,2.81,2.50,2.52,4.33,4.33,4.34
391.85,1.46,-2.86,1.47,-2.87,2.86,2.54,2.60,4.32,4.33,4.33
395.77,1.41,-2.92,1.41,-2.92,2.91,2.59,2.68,4.33,4.33,4.34
399.73,1.36,-2.96,1.36,-2.96,2.96,2.63,2.77,4.33,4.33,4.33
403.72,1.31,-3.00,1.31,-3.01,3.02,2.68,2.85,4.33,4.33,4.32
407.76,1.25,-3.05,1.25,-3.06,3.07,2.72,2.93,4.32,4.32,4.31
411.84,1.19,-3.12,1.19,-3.11,3.12,2.76,3.01,4.31,4.31,4.32
415.96,1.13,-3.16,1.13,-3.17,3.17,2.81,3.10,4.30,4.30,4.30
420.12,1.07,-3.22,1.08,-3.22,3.22,2.85,3.18,4.29,4.30,4.30
424.32,1.03,-3.26,1.03,-3.26,3.26,2.89,3.26,4.30,4.29,4.30
428.56,0.98,-3.30,0.98,-3.31,3.30,2.94,3.34,4.29,4.28,4.29
432.85,0.93,-3.35,0.94,-3.35,3.34,2.98,3.42,4.27,4.28,4.29
437.18,0.90,-3.38,0.91,-3.39,3.37,3.03,3.50,4.28,4.28,4.29
441.55,0.88,-3.41,0.88,-3.41,3.41,3.07,3.58,4.29,4.29,4.30
445.96,0.86,-3.43,0.86,-3.43,3.44,3.11,3.65,4.30,4.30,4.30
450.42,0.84,-3.44,0.84,-3.45,3.47,3.16,3.72,4.31,4.30,4.29
454.93,0.81,-3.48,0.81,-3.48,3.49,3.20,3.79,4.31,4.30,4.30
459.48,0.77,-3.52,0.78,-3.52,3.52,3.24,3.85,4.29,4.30,4.30
464.07,0.75,-3.55,0.75,-3.56,3.55,3.28,3.92,4.30,4.30,4.31
468.71,0.72,-3.59,0.72,-3.59,3.58,3.33,3.97,4.30,4.30,4.32
