frequency,raw,error,smoothed,error_smoothed,equalization,parametric_eq,fixed_band_eq,equalized_raw,equalized_smoothed,target
20.00,-13.24,-19.19,-13.35,-19.33,19.33,18.97,8.34,6.08,5.98,5.95
20.20,-13.18,-19.18,-13.24,-19.26,19.26,19.02,8.51,6.08,6.02,6.00
20.40,-13.13,-19.18,-13.14,-19.19,19.19,19.06,8.69,6.06,6.05,6.05
20.61,-13.08,-19.15,-13.04,-19.12,19.12,19.09,8.88,6.05,6.08,6.08
20.81,-13.01,-19.14,-12.94,-19.05,19.05,19.11,9.07,6.04,6.11,6.13
21.02,-12.95,-19.12,-12.84,-18.98,18.98,19.12,9.26,6.03,6.14,6.17
21.23,-12.82,-19.01,-12.74,-18.91,18.91,19.11,9.46,6.08,6.16,6.19
21.44,-12.69,-18.90,-12.64,-18.83,18.83,19.10,9.67,6.14,6.19,6.21
21.66,-12.57,-18.79,-12.55,-18.75,18.75,19.08,9.88,6.19,6.21,6.22
21.87,-12.43,-18.67,-12.45,-18.67,18.67,19.05,10.10,6.24,6.23,6.23
22.09,-12.31,-18.57,-12.35,-18.59,18.59,19.02,10.32,6.28,6.24,6.25
22.31,-12.21,-18.48,-12.25,-18.51,18.51,18.97,10.55,6.29,6.25,6.26
22.54,-12.13,-18.39,-12.15,-18.41,18.41,18.92,10.79,6.28,6.26,6.26
22.76,-12.02,-18.29,-12.04,-18.30,18.30,18.86,11.03,6.28,6.26,6.26
22.99,-11.92,-18.18,-11.94,-18.20,18.20,18.79,11.28,6.28,6.26,6.25
23.22,-11.84,-18.10,-11.84,-18.10,18.10,18.71,11.54,6.26,6.26,6.25
23.45,-11.75,-18.00,-11.74,-18.01,18.01,18.64,11.80,6.26,6.27,6.25
23.69,-11.67,-17.92,-11.66,-17.93,17.93,18.55,12.07,6.26,6.27,6.26
23.92,-11.58,-17.84,-11.58,-17.84,17.84,18.46,12.35,6.26,6.27,6.26
24.16,-11.50,-17.77,-11.50,-17.76,17.76,18.37,12.64,6.26,6.27,6.27
24.40,-11.42,-17.70,-11.42,-17.69,17.69,18.28,12.94,6.26,6.26,6.28
24.65,-11.35,-17.61,-11.35,-17.62,17.62,18.18,13.25,6.27,6.26,6.27
24.89,-11.26,-17.53,-11.28,-17.55,17.55,18.08,13.57,6.28,6.26,6.26
25.14,-11.19,-17.46,-11.21,-17.48,17.48,17.97,13.90,6.28,6.27,6.26
25.39,-11.13,-17.41,-11.15,-17.42,17.42,17.87,14.23,6.28,6.27,6.27
25.65,-11.07,-17.35,-11.08,-17.35,17.35,17.76,14.58,6.28,6.27,6.27
25.91,-11.01,-17.27,-11.02,-17.29,17.29,17.65,14.94,6.28,6.27,6.26
26.16,-10.94,-17.20,-10.96,-17.22,17.22,17.54,15.31,6.28,6.27,6.26
26.43,-10.90,-17.15,-10.89,-17.15,17.15,17.44,15.70,6.25,6.26,6.26
26.69,-10.83,-17.09,-10.81,-17.07,17.07,17.33,16.09,6.24,6.26,6.26
26.96,-10.78,-17.04,-10.74,-16.99,16.99,17.22,16.50,6.22,6.26,6.27
27.23,-10.70,-16.96,-10.66,-16.91,16.91,17.11,16.91,6.22,6.26,6.26
27.50,-10.61,-16.87,-10.57,-16.83,16.83,17.00,17.34,6.22,6.25,6.26
27.77,-10.52,-16.77,-10.49,-16.74,16.74,16.89,17.77,6.22,6.25,6.25
28.05,-10.43,-16.68,-10.40,-16.65,16.65,16.79,18.21,6.22,6.25,6.25
28.33,-10.31,-16.55,-10.31,-16.56,16.56,16.68,18.66,6.25,6.25,6.24
28.62,-10.21,-16.44,-10.22,-16.47,16.47,16.58,19.10,6.26,6.25,6.24
28.90,-10.08,-16.33,-10.13,-16.38,16.38,16.48,19.54,6.29,6.25,6.24
29.19,-9.99,-16.23,-10.05,-16.29,16.29,16.37,19.97,6.29,6.24,6.23
29.48,-9.92,-16.17,-9.96,-16.20,16.20,16.27,20.38,6.28,6.24,6.25
29.78,-9.85,-16.08,-9.87,-16.11,16.11,16.17,20.76,6.27,6.24,6.24
30.08,-9.78,-16.02,-9.79,-16.03,16.03,16.08,21.09,6.25,6.24,6.25
30.38,-9.72,-15.95,-9.71,-15.95,15.95,15.98,21.38,6.23,6.23,6.23
30.68,-9.64,-15.88,-9.63,-15.87,15.87,15.89,21.60,6.22,6.23,6.23
30.99,-9.58,-15.81,-9.56,-15.79,15.79,15.80,21.75,6.21,6.23,6.23
31.30,-9.51,-15.73,-9.48,-15.71,15.71,15.71,21.81,6.20,6.23,6.23
31.61,-9.44,-15.67,-9.41,-15.63,15.63,15.62,21.80,6.19,6.23,6.23
31.93,-9.38,-15.60,-9.34,-15.56,15.56,15.53,21.71,6.19,6.22,6.22
32.24,-9.28,-15.49,-9.27,-15.49,15.49,15.44,21.54,6.21,6.22,6.21
32.57,-9.19,-15.40,-9.20,-15.41,15.41,15.36,21.32,6.23,6.21,6.22
32.89,-9.09,-15.31,-9.13,-15.34,15.34,15.28,21.04,6.24,6.21,6.21
33.22,-9.02,-15.23,-9.06,-15.26,15.26,15.20,20.72,6.23,6.20,6.20
33.55,-8.95,-15.15,-8.98,-15.18,15.18,15.12,20.38,6.22,6.20,6.20
33.89,-8.88,-15.07,-8.91,-15.10,15.10,15.04,20.01,6.22,6.19,6.18
34.23,-8.83,-15.03,-8.84,-15.02,15.02,14.97,19.64,6.19,6.19,6.19
34.57,-8.79,-14.97,-8.76,-14.95,14.95,14.90,19.26,6.15,6.18,6.18
34.92,-8.75,-14.92,-8.69,-14.87,14.87,14.82,18.88,6.12,6.18,6.17
35.27,-8.66,-14.83,-8.62,-14.79,14.79,14.75,18.51,6.14,6.17,6.17
35.62,-8.56,-14.72,-8.55,-14.72,14.72,14.69,18.15,6.16,6.17,6.17
35.97,-8.45,-14.62,-8.48,-14.65,14.65,14.62,17.79,6.19,6.17,6.16
36.33,-8.39,-14.56,-8.41,-14.57,14.57,14.55,17.45,6.18,6.16,6.17
36.70,-8.34,-14.49,-8.34,-14.50,14.50,14.49,17.12,6.17,6.16,6.15
37.06,-8.27,-14.42,-8.27,-14.43,14.43,14.43,16.80,6.15,6.16,6.15
37.43,-8.19,-14.36,-8.20,-14.36,14.36,14.37,16.49,6.16,6.16,6.16
37.81,-8.12,-14.28,-8.12,-14.28,14.28,14.31,16.20,6.16,6.16,6.16
38.19,-8.05,-14.20,-8.05,-14.21,14.21,14.25,15.91,6.16,6.16,6.15
38.57,-7.97,-14.13,-7.97,-14.13,14.13,14.19,15.65,6.16,6.16,6.16
38.95,-7.89,-14.06,-7.90,-14.06,14.06,14.14,15.39,6.17,6.16,6.16
39.34,-7.83,-13.99,-7.83,-13.99,13.99,14.08,15.14,6.16,6.16,6.16
39.74,-7.77,-13.93,-7.77,-13.92,13.92,14.03,14.91,6.15,6.15,6.15
40.14,-7.72,-13.87,-7.70,-13.86,13.86,13.97,14.69,6.14,6.15,6.16
40.54,-7.65,-13.79,-7.64,-13.79,13.79,13.92,14.47,6.14,6.15,6.15
40.94,-7.58,-13.73,-7.57,-13.71,13.71,13.87,14.27,6.13,6.14,6.14
41.35,-7.50,-13.64,-7.50,-13.64,13.64,13.82,14.08,6.14,6.14,6.14
41.76,-7.42,-13.55,-7.44,-13.57,13.57,13.77,13.90,6.15,6.13,6.13
42.18,-7.35,-13.48,-7.39,-13.50,13.50,13.71,13.73,6.15,6.12,6.13
42.60,-7.31,-13.43,-7.33,-13.44,13.44,13.66,13.57,6.12,6.11,6.11
43.03,-7.27,-13.38,-7.27,-13.37,13.37,13.61,13.42,6.09,6.09,6.10
43.46,-7.22,-13.32,-7.21,-13.29,13.29,13.56,13.28,6.07,6.08,6.10
43.90,-7.19,-13.25,-7.15,-13.22,13.22,13.52,13.14,6.04,6.07,6.07
44.33,-7.10,-13.15,-7.10,-13.15,13.15,13.47,13.02,6.05,6.05,6.05
44.78,-7.02,-13.04,-7.05,-13.09,13.09,13.42,12.90,6.07,6.04,6.03
45.23,-6.98,-12.99,-7.00,-13.02,13.02,13.37,12.79,6.05,6.02,6.02
45.68,-6.97,-12.97,-6.95,-12.95,12.95,13.31,12.69,5.98,6.01,6.00
46.13,-6.94,-12.92,-6.90,-12.89,12.89,13.26,12.60,5.95,5.99,5.98
46.60,-6.86,-12.83,-6.85,-12.83,12.83,13.21,12.51,5.97,5.98,5.98
47.06,-6.76,-12.72,-6.80,-12.76,12.76,13.16,12.44,6.00,5.96,5.96
47.53,-6.72,-12.67,-6.76,-12.70,12.70,13.11,12.36,5.97,5.94,5.95
48.01,-6.67,-12.62,-6.71,-12.64,12.64,13.05,12.30,5.96,5.92,5.94
48.49,-6.67,-12.60,-6.67,-12.58,12.58,13.00,12.24,5.90,5.91,5.92
48.97,-6.67,-12.57,-6.63,-12.52,12.52,12.94,12.19,5.85,5.89,5.90
49.46,-6.59,-12.47,-6.59,-12.47,12.47,12.88,12.14,5.87,5.88,5.87
49.96,-6.52,-12.37,-6.54,-12.41,12.41,12.83,12.10,5.89,5.86,5.85
50.46,-6.49,-12.34,-6.50,-12.34,12.34,12.77,12.06,5.85,5.85,5.85
50.96,-6.47,-12.31,-6.45,-12.29,12.29,12.70,12.03,5.81,5.83,5.83
51.47,-6.42,-12.23,-6.41,-12.23,12.23,12.64,12.00,5.80,5.82,5.81
51.99,-6.38,-12.16,-6.37,-12.17,12.17,12.58,11.98,5.79,5.80,5.79
52.51,-6.34,-12.12,-6.33,-12.11,12.11,12.51,11.96,5.78,5.78,5.78
53.03,-6.29,-12.07,-6.28,-12.05,12.05,12.44,11.94,5.75,5.77,5.78
53.56,-6.22,-11.98,-6.23,-11.98,11.98,12.37,11.92,5.76,5.75,5.76
54.10,-6.17,-11.91,-6.17,-11.91,11.91,12.30,11.90,5.75,5.74,5.74
54.64,-6.11,-11.84,-6.13,-11.85,11.85,12.23,11.89,5.74,5.73,5.72
55.18,-6.07,-11.79,-6.08,-11.79,11.79,12.15,11.87,5.72,5.71,5.71
55.74,-6.06,-11.76,-6.03,-11.73,11.73,12.08,11.86,5.66,5.70,5.69
56.29,-6.00,-11.68,-5.98,-11.66,11.66,12.00,11.84,5.65,5.68,5.68
56.86,-5.90,-11.55,-5.93,-11.59,11.59,11.91,11.81,5.70,5.66,5.66
57.42,-5.86,-11.49,-5.89,-11.53,11.53,11.83,11.79,5.67,5.64,5.63
58.00,-5.86,-11.48,-5.85,-11.47,11.47,11.75,11.76,5.61,5.62,5.61
58.58,-5.80,-11.41,-5.81,-11.40,11.40,11.66,11.73,5.60,5.59,5.60
59.16,-5.76,-11.34,-5.78,-11.34,11.34,11.57,11.69,5.58,5.56,5.58
59.76,-5.74,-11.30,-5.75,-11.28,11.28,11.48,11.64,5.53,5.53,5.55
60.35,-5.71,-11.22,-5.72,-11.22,11.22,11.39,11.59,5.51,5.50,5.50
60.96,-5.66,-11.13,-5.70,-11.16,11.16,11.29,11.53,5.49,5.46,5.47
61.57,-5.66,-11.09,-5.68,-11.10,11.10,11.19,11.46,5.43,5.42,5.42
62.18,-5.66,-11.04,-5.66,-11.03,11.03,11.10,11.38,5.37,5.37,5.37
62.80,-5.66,-10.99,-5.64,-10.97,10.97,11.00,11.30,5.31,5.33,5.32
63.43,-5.62,-10.90,-5.62,-10.90,10.90,10.90,11.20,5.28,5.28,5.27
64.07,-5.56,-10.79,-5.60,-10.83,10.83,10.79,11.10,5.26,5.23,5.22
64.71,-5.56,-10.73,-5.57,-10.75,10.75,10.69,10.99,5.18,5.18,5.17
65.35,-5.56,-10.69,-5.53,-10.66,10.66,10.58,10.87,5.10,5.13,5.13
66.01,-5.56,-10.64,-5.50,-10.57,10.57,10.48,10.75,5.01,5.08,5.07
66.67,-5.49,-10.51,-5.46,-10.48,10.48,10.37,10.62,4.98,5.02,5.02
67.33,-5.43,-10.40,-5.41,-10.38,10.38,10.26,10.48,4.95,4.97,4.96
68.01,-5.36,-10.28,-5.36,-10.28,10.28,10.15,10.33,4.91,4.91,4.92
68.69,-5.29,-10.16,-5.31,-10.17,10.17,10.04,10.19,4.87,4.86,4.86
69.37,-5.23,-10.04,-5.25,-10.05,10.05,9.92,10.03,4.82,4.80,4.80
70.07,-5.16,-9.91,-5.19,-9.93,9.93,9.81,9.88,4.77,4.74,4.74
70.77,-5.10,-9.80,-5.13,-9.81,9.81,9.70,9.72,4.71,4.68,4.69
71.48,-5.04,-9.68,-5.07,-9.68,9.68,9.58,9.56,4.64,4.62,4.63
72.19,-4.98,-9.54,-4.99,-9.55,9.55,9.47,9.40,4.56,4.56,4.56
72.91,-4.93,-9.43,-4.91,-9.41,9.41,9.36,9.23,4.47,4.49,4.50
73.64,-4.86,-9.30,-4.84,-9.27,9.27,9.24,9.07,4.41,4.43,4.43
74.38,-4.80,-9.17,-4.77,-9.14,9.14,9.13,8.91,4.33,4.37,4.37
75.12,-4.74,-9.04,-4.70,-9.01,9.01,9.01,8.74,4.26,4.31,4.30
75.87,-4.65,-8.89,-4.63,-8.88,8.88,8.89,8.58,4.22,4.24,4.23
76.63,-4.52,-8.70,-4.57,-8.75,8.75,8.78,8.43,4.22,4.18,4.17
77.40,-4.46,-8.58,-4.50,-8.62,8.62,8.66,8.27,4.15,4.12,4.12
78.17,-4.43,-8.48,-4.43,-8.49,8.49,8.55,8.11,4.06,4.06,4.05
78.95,-4.27,-8.28,-4.36,-8.36,8.36,8.43,7.96,4.09,4.00,4.00
79.74,-4.26,-8.21,-4.30,-8.25,8.25,8.32,7.82,3.98,3.94,3.94
80.54,-4.26,-8.15,-4.24,-8.13,8.13,8.20,7.67,3.86,3.89,3.89
81.35,-4.22,-8.05,-4.18,-8.01,8.01,8.09,7.53,3.78,3.83,3.83
82.16,-4.13,-7.91,-4.11,-7.89,7.89,7.98,7.39,3.75,3.77,3.77
82.98,-4.05,-7.78,-4.06,-7.77,7.77,7.86,7.26,3.72,3.72,3.73
83.81,-4.05,-7.71,-4.01,-7.67,7.67,7.75,7.13,3.61,3.66,3.66
84.65,-3.95,-7.56,-3.96,-7.57,7.57,7.64,7.00,3.61,3.60,3.60
85.50,-3.88,-7.44,-3.91,-7.46,7.46,7.53,6.88,3.58,3.55,3.55
86.35,-3.85,-7.35,-3.86,-7.35,7.35,7.42,6.76,3.50,3.49,3.50
87.22,-3.83,-7.27,-3.81,-7.24,7.24,7.31,6.65,3.41,3.43,3.44
88.09,-3.76,-7.14,-3.76,-7.14,7.14,7.20,6.54,3.37,3.37,3.38
88.97,-3.65,-6.97,-3.72,-7.03,7.03,7.09,6.43,3.37,3.31,3.31
89.86,-3.65,-6.91,-3.67,-6.93,6.93,6.99,6.33,3.27,3.25,3.25
90.76,-3.65,-6.84,-3.64,-6.83,6.83,6.88,6.23,3.17,3.19,3.19
91.66,-3.65,-6.79,-3.60,-6.73,6.73,6.77,6.14,3.08,3.13,3.14
92.58,-3.59,-6.66,-3.56,-6.64,6.64,6.67,6.05,3.04,3.07,3.06
93.51,-3.50,-6.50,-3.53,-6.54,6.54,6.57,5.96,3.05,3.01,3.01
94.44,-3.44,-6.40,-3.50,-6.45,6.45,6.46,5.88,3.01,2.95,2.95
95.39,-3.44,-6.34,-3.47,-6.37,6.37,6.36,5.80,2.92,2.89,2.90
96.34,-3.45,-6.29,-3.44,-6.28,6.28,6.26,5.72,2.82,2.84,2.83
97.30,-3.45,-6.23,-3.41,-6.19,6.19,6.16,5.65,2.74,2.78,2.78
98.28,-3.44,-6.16,-3.39,-6.11,6.11,6.07,5.58,2.66,2.72,2.72
99.26,-3.36,-6.03,-3.37,-6.03,6.03,5.97,5.52,2.67,2.66,2.66
100.25,-3.29,-5.90,-3.34,-5.94,5.94,5.87,5.45,2.65,2.61,2.61
101.25,-3.31,-5.86,-3.31,-5.86,5.86,5.78,5.39,2.55,2.55,2.55
102.27,-3.31,-5.81,-3.30,-5.79,5.79,5.69,5.33,2.47,2.49,2.49
103.29,-3.27,-5.70,-3.29,-5.72,5.72,5.59,5.28,2.44,2.43,2.42
104.32,-3.26,-5.64,-3.28,-5.65,5.65,5.50,5.23,2.39,2.37,2.38
105.37,-3.24,-5.56,-3.27,-5.58,5.58,5.41,5.18,2.33,2.31,2.32
106.42,-3.20,-5.46,-3.25,-5.50,5.50,5.32,5.13,2.30,2.25,2.26
107.48,-3.23,-5.43,-3.24,-5.42,5.42,5.23,5.08,2.19,2.19,2.19
108.56,-3.25,-5.38,-3.22,-5.34,5.34,5.15,5.03,2.09,2.13,2.12
109.64,-3.21,-5.28,-3.21,-5.27,5.27,5.06,4.99,2.06,2.06,2.07
110.74,-3.18,-5.18,-3.20,-5.20,5.20,4.98,4.94,2.02,2.00,2.00
111.85,-3.22,-5.18,-3.19,-5.13,5.13,4.89,4.90,1.90,1.94,1.95
112.97,-3.24,-5.12,-3.17,-5.05,5.05,4.81,4.85,1.81,1.88,1.88
114.10,-3.13,-4.94,-3.15,-4.97,4.97,4.73,4.81,1.84,1.82,1.82
115.24,-3.12,-4.89,-3.12,-4.89,4.89,4.65,4.77,1.76,1.77,1.76
116.39,-3.07,-4.77,-3.09,-4.80,4.80,4.57,4.72,1.73,1.71,1.70
117.55,-3.02,-4.68,-3.06,-4.72,4.72,4.49,4.68,1.70,1.66,1.65
118.73,-3.01,-4.61,-3.04,-4.64,4.64,4.42,4.63,1.63,1.61,1.60
119.92,-3.01,-4.58,-3.00,-4.56,4.56,4.34,4.58,1.55,1.56,1.56
121.12,-3.01,-4.52,-2.96,-4.48,4.48,4.26,4.53,1.46,1.51,1.51
122.33,-2.94,-4.41,-2.92,-4.39,4.39,4.19,4.48,1.45,1.47,1.47
123.55,-2.88,-4.32,-2.88,-4.31,4.31,4.12,4.43,1.42,1.43,1.43
124.79,-2.79,-4.18,-2.84,-4.22,4.22,4.05,4.38,1.44,1.39,1.39
126.03,-2.75,-4.10,-2.80,-4.15,4.15,3.97,4.33,1.40,1.35,1.35
127.29,-2.76,-4.08,-2.77,-4.08,4.08,3.90,4.27,1.32,1.31,1.32
128.57,-2.78,-4.05,-2.73,-4.00,4.00,3.84,4.21,1.22,1.27,1.27
129.85,-2.75,-3.98,-2.69,-3.92,3.92,3.77,4.15,1.17,1.23,1.23
131.15,-2.64,-3.84,-2.65,-3.84,3.84,3.70,4.09,1.20,1.19,1.19
132.46,-2.55,-3.71,-2.61,-3.76,3.76,3.63,4.03,1.21,1.16,1.15
133.79,-2.52,-3.64,-2.57,-3.69,3.69,3.57,3.96,1.16,1.12,1.12
135.12,-2.53,-3.61,-2.54,-3.62,3.62,3.50,3.90,1.09,1.08,1.07
136.48,-2.53,-3.58,-2.51,-3.56,3.56,3.44,3.83,1.02,1.05,1.05
137.84,-2.54,-3.55,-2.48,-3.49,3.49,3.38,3.76,0.94,1.01,1.00
139.22,-2.47,-3.43,-2.44,-3.42,3.42,3.31,3.70,0.94,0.97,0.96
140.61,-2.35,-3.27,-2.40,-3.34,3.34,3.25,3.63,0.98,0.93,0.92
142.02,-2.30,-3.20,-2.36,-3.26,3.26,3.19,3.56,0.95,0.89,0.90
143.44,-2.31,-3.17,-2.33,-3.18,3.18,3.13,3.49,0.86,0.85,0.86
144.87,-2.32,-3.13,-2.29,-3.10,3.10,3.07,3.42,0.77,0.80,0.81
146.32,-2.33,-3.09,-2.26,-3.01,3.01,3.01,3.35,0.68,0.75,0.76
147.78,-2.34,-3.06,-2.23,-2.92,2.92,2.95,3.28,0.58,0.69,0.72
149.26,-2.19,-2.86,-2.20,-2.84,2.84,2.89,3.21,0.64,0.63,0.66
150.75,-2.10,-2.69,-2.18,-2.75,2.75,2.83,3.14,0.65,0.57,0.59
152.26,-2.11,-2.63,-2.17,-2.67,2.67,2.78,3.07,0.55,0.50,0.51
153.78,-2.12,-2.57,-2.17,-2.59,2.59,2.72,3.00,0.46,0.42,0.44
155.32,-2.12,-2.48,-2.17,-2.51,2.51,2.66,2.93,0.39,0.35,0.36
156.88,-2.12,-2.40,-2.17,-2.44,2.44,2.60,2.87,0.31,0.27,0.28
158.44,-2.12,-2.31,-2.16,-2.35,2.35,2.55,2.80,0.23,0.19,0.19
160.03,-2.12,-2.22,-2.16,-2.28,2.28,2.49,2.74,0.15,0.11,0.10
161.63,-2.19,-2.21,-2.17,-2.21,2.21,2.43,2.67,0.01,0.04,0.02
163.24,-2.24,-2.20,-2.18,-2.15,2.15,2.37,2.61,-0.09,-0.03,-0.05
164.88,-2.31,-2.21,-2.19,-2.11,2.11,2.31,2.55,-0.21,-0.09,-0.11
166.53,-2.25,-2.09,-2.21,-2.07,2.07,2.25,2.49,-0.19,-0.14,-0.16
168.19,-2.19,-1.99,-2.21,-2.02,2.02,2.19,2.43,-0.17,-0.19,-0.21
169.87,-2.14,-1.89,-2.20,-1.98,1.98,2.13,2.37,-0.17,-0.23,-0.25
171.57,-2.15,-1.88,-2.19,-1.93,1.93,2.07,2.32,-0.22,-0.26,-0.27
173.29,-2.16,-1.87,-2.17,-1.89,1.89,2.01,2.26,-0.28,-0.28,-0.30
175.02,-2.16,-1.86,-2.15,-1.85,1.85,1.95,2.21,-0.32,-0.30,-0.31
176.77,-2.18,-1.86,-2.13,-1.81,1.81,1.89,2.16,-0.38,-0.32,-0.33
178.54,-2.18,-1.85,-2.10,-1.76,1.76,1.82,2.11,-0.42,-0.33,-0.34
180.32,-2.10,-1.77,-2.06,-1.72,1.72,1.76,2.06,-0.39,-0.34,-0.33
182.13,-1.99,-1.66,-2.03,-1.67,1.67,1.70,2.01,-0.32,-0.36,-0.33
183.95,-1.92,-1.58,-2.00,-1.63,1.63,1.63,1.96,-0.29,-0.37,-0.35
185.79,-1.93,-1.58,-1.97,-1.60,1.60,1.57,1.92,-0.34,-0.38,-0.36
187.65,-1.92,-1.54,-1.95,-1.56,1.56,1.51,1.87,-0.37,-0.39,-0.38
189.52,-1.90,-1.51,-1.92,-1.52,1.52,1.45,1.83,-0.39,-0.41,-0.40
191.42,-1.89,-1.48,-1.90,-1.47,1.47,1.40,1.79,-0.42,-0.42,-0.42
193.33,-1.88,-1.44,-1.88,-1.43,1.43,1.35,1.75,-0.45,-0.44,-0.44
195.27,-1.86,-1.40,-1.86,-1.39,1.39,1.31,1.71,-0.47,-0.46,-0.46
197.22,-1.85,-1.37,-1.84,-1.35,1.35,1.27,1.67,-0.50,-0.49,-0.49
199.19,-1.83,-1.32,-1.83,-1.32,1.32,1.24,1.64,-0.51,-0.51,-0.52
201.18,-1.83,-1.30,-1.83,-1.30,1.30,1.21,1.60,-0.54,-0.53,-0.54
203.19,-1.82,-1.27,-1.83,-1.27,1.27,1.20,1.57,-0.55,-0.56,-0.56
205.23,-1.82,-1.24,-1.83,-1.25,1.25,1.19,1.53,-0.58,-0.58,-0.59
207.28,-1.82,-1.23,-1.83,-1.22,1.22,1.18,1.50,-0.60,-0.61,-0.60
209.35,-1.82,-1.20,-1.83,-1.20,1.20,1.18,1.47,-0.62,-0.63,-0.62
211.44,-1.83,-1.17,-1.83,-1.18,1.18,1.18,1.44,-0.65,-0.65,-0.66
213.56,-1.83,-1.17,-1.83,-1.17,1.17,1.19,1.41,-0.67,-0.67,-0.67
215.69,-1.83,-1.15,-1.84,-1.15,1.15,1.20,1.39,-0.68,-0.69,-0.68
217.85,-1.84,-1.15,-1.84,-1.14,1.14,1.21,1.36,-0.71,-0.70,-0.70
220.03,-1.84,-1.13,-1.84,-1.13,1.13,1.22,1.34,-0.72,-0.71,-0.71
222.23,-1.84,-1.11,-1.84,-1.12,1.12,1.23,1.31,-0.73,-0.72,-0.74
224.45,-1.84,-1.11,-1.83,-1.11,1.11,1.24,1.29,-0.74,-0.73,-0.73
226.70,-1.84,-1.11,-1.83,-1.11,1.11,1.25,1.27,-0.74,-0.73,-0.74
228.96,-1.84,-1.12,-1.83,-1.10,1.10,1.26,1.25,-0.74,-0.73,-0.73
231.25,-1.83,-1.11,-1.83,-1.11,1.11,1.27,1.23,-0.73,-0.72,-0.72
233.57,-1.82,-1.11,-1.83,-1.11,1.11,1.28,1.22,-0.71,-0.71,-0.71
235.90,-1.81,-1.11,-1.82,-1.12,1.12,1.29,1.20,-0.69,-0.70,-0.71
238.26,-1.79,-1.10,-1.81,-1.13,1.13,1.29,1.18,-0.67,-0.69,-0.70
240.64,-1.76,-1.09,-1.81,-1.14,1.14,1.30,1.17,-0.63,-0.67,-0.68
243.05,-1.78,-1.14,-1.80,-1.15,1.15,1.30,1.16,-0.63,-0.65,-0.65
245.48,-1.82,-1.20,-1.79,-1.16,1.16,1.31,1.15,-0.66,-0.63,-0.63
247.93,-1.81,-1.22,-1.79,-1.18,1.18,1.31,1.14,-0.64,-0.61,-0.60
250.41,-1.80,-1.22,-1.78,-1.19,1.19,1.32,1.13,-0.61,-0.59,-0.59
252.92,-1.78,-1.23,-1.78,-1.21,1.21,1.32,1.13,-0.57,-0.57,-0.56
255.45,-1.77,-1.24,-1.78,-1.23,1.23,1.32,1.12,-0.54,-0.54,-0.54
258.00,-1.76,-1.25,-1.77,-1.25,1.25,1.32,1.12,-0.51,-0.52,-0.51
260.58,-1.75,-1.25,-1.77,-1.27,1.27,1.33,1.11,-0.48,-0.50,-0.50
263.19,-1.75,-1.28,-1.77,-1.30,1.30,1.33,1.11,-0.46,-0.47,-0.47
265.82,-1.75,-1.30,-1.77,-1.32,1.32,1.33,1.11,-0.43,-0.45,-0.46
268.48,-1.76,-1.33,-1.77,-1.34,1.34,1.33,1.12,-0.42,-0.43,-0.43
271.16,-1.76,-1.36,-1.77,-1.36,1.36,1.33,1.12,-0.40,-0.40,-0.40
273.87,-1.76,-1.38,-1.76,-1.38,1.38,1.34,1.12,-0.38,-0.38,-0.39
276.61,-1.77,-1.42,-1.76,-1.40,1.40,1.34,1.13,-0.38,-0.36,-0.36
279.38,-1.77,-1.44,-1.75,-1.42,1.42,1.34,1.13,-0.35,-0.33,-0.33
282.17,-1.76,-1.46,-1.75,-1.44,1.44,1.35,1.14,-0.32,-0.31,-0.31
284.99,-1.76,-1.49,-1.75,-1.47,1.47,1.35,1.15,-0.30,-0.28,-0.27
287.84,-1.75,-1.50,-1.74,-1.49,1.49,1.35,1.16,-0.26,-0.25,-0.26
290.72,-1.74,-1.52,-1.74,-1.52,1.52,1.36,1.17,-0.22,-0.22,-0.22
293.63,-1.73,-1.54,-1.74,-1.55,1.55,1.36,1.18,-0.19,-0.19,-0.20
296.57,-1.71,-1.55,-1.74,-1.57,1.57,1.37,1.20,-0.14,-0.17,-0.16
299.53,-1.70,-1.57,-1.74,-1.60,1.60,1.37,1.21,-0.11,-0.14,-0.14
302.53,-1.69,-1.57,-1.73,-1.62,1.62,1.38,1.23,-0.08,-0.11,-0.12
305.55,-1.70,-1.63,-1.73,-1.64,1.64,1.38,1.25,-0.06,-0.09,-0.08
308.61,-1.76,-1.70,-1.73,-1.66,1.66,1.39,1.26,-0.10,-0.07,-0.06
311.69,-1.76,-1.73,-1.74,-1.69,1.69,1.40,1.28,-0.07,-0.04,-0.04
314.81,-1.76,-1.75,-1.74,-1.72,1.72,1.41,1.30,-0.04,-0.02,-0.01
317.96,-1.76,-1.77,-1.76,-1.75,1.75,1.42,1.33,-0.01,-0.00,0.01
321.14,-1.76,-1.78,-1.77,-1.78,1.78,1.43,1.35,0.02,0.02,0.01
324.35,-1.76,-1.79,-1.78,-1.81,1.81,1.44,1.37,0.05,0.03,0.03
327.59,-1.76,-1.81,-1.80,-1.84,1.84,1.45,1.40,0.08,0.05,0.04
330.87,-1.76,-1.82,-1.81,-1.87,1.87,1.46,1.42,0.10,0.06,0.05
334.18,-1.79,-1.86,-1.82,-1.89,1.89,1.47,1.45,0.10,0.07,0.07
337.52,-1.86,-1.94,-1.83,-1.91,1.91,1.48,1.48,0.05,0.08,0.08
340.90,-1.87,-1.97,-1.84,-1.92,1.92,1.50,1.51,0.05,0.09,0.09
344.30,-1.87,-1.97,-1.84,-1.93,1.93,1.51,1.54,0.06,0.09,0.10
347.75,-1.87,-1.97,-1.84,-1.94,1.94,1.52,1.57,0.06,0.10,0.10
351.23,-1.87,-1.98,-1.84,-1.95,1.95,1.54,1.60,0.07,0.10,0.10
354.74,-1.86,-1.97,-1.85,-1.96,1.96,1.56,1.64,0.09,0.11,0.10
358.28,-1.86,-1.97,-1.86,-1.97,1.97,1.57,1.67,0.10,0.11,0.11
361.87,-1.85,-1.96,-1.87,-1.97,1.97,1.59,1.71,0.12,0.11,0.11
365.49,-1.85,-1.97,-1.87,-1.98,1.98,1.61,1.75,0.13,0.11,0.11
369.14,-1.84,-1.95,-1.88,-1.99,1.99,1.63,1.79,0.14,0.11,0.10
372.83,-1.83,-1.94,-1.88,-1.99,1.99,1.65,1.83,0.16,0.11,0.10
376.56,-1.82,-1.92,-1.89,-1.99,1.99,1.67,1.87,0.17,0.10,0.10
380.33,-1.88,-1.99,-1.90,-2.00,2.00,1.69,1.91,0.12,0.10,0.11
384.13,-1.92,-2.03,-1.92,-2.01,2.01,1.71,1.95,0.09,0.10,0.10
387.97,-1.99,-2.09,-1.93,-2.02,2.02,1.74,2.00,0.03,0.09,0.09
391.85,-2.00,-2.09,-1.95,-2.04,2.04,1.76,2.04,0.03,0.09,0.08
395.77,-2.00,-2.09,-1.98,-2.06,2.06,1.79,2.09,0.05,0.08,0.09
399.73,-2.00,-2.08,-2.00,-2.08,2.08,1.81,2.13,0.07,0.07,0.08
403.72,-2.00,-2.08,-2.03,-2.10,2.10,1.84,2.18,0.09,0.07,0.08
407.76,-2.01,-2.08,-2.05,-2.12,2.12,1.86,2.23,0.10,0.06,0.07
411.84,-2.01,-2.08,-2.07,-2.13,2.13,1.89,2.27,0.12,0.06,0.06
415.96,-2.08,-2.15,-2.09,-2.15,2.15,1.92,2.32,0.07,0.06,0.06
420.12,-2.11,-2.18,-2.11,-2.17,2.17,1.95,2.36,0.05,0.06,0.06
424.32,-2.11,-2.17,-2.12,-2.18,2.18,1.98,2.41,0.07,0.07,0.06
428.56,-2.12,-2.19,-2.12,-2.19,2.19,2.01,2.46,0.07,0.08,0.07
432.85,-2.17,-2.25,-2.11,-2.20,2.20,2.04,2.50,0.03,0.09,0.08
437.18,-2.16,-2.25,-2.11,-2.22,2.22,2.07,2.54,0.05,0.11,0.09
441.55,-2.12,-2.25,-2.10,-2.23,2.23,2.10,2.58,0.11,0.14,0.13
445.96,-2.08,-2.24,-2.08,-2.25,2.25,2.13,2.62,0.17,0.17,0.15
