frequency,raw,error,smoothed,error_smoothed,equalization,parametric_eq,fixed_band_eq,equalized_raw,equalized_smoothed,target
20.00,-9.45,-14.03,-9.47,-14.08,14.08,13.52,5.72,4.64,4.61,4.59
20.20,-9.42,-14.03,-9.41,-14.04,14.04,13.57,5.86,4.62,4.63,4.62
20.40,-9.36,-14.00,-9.35,-14.00,14.00,13.62,6.01,4.64,4.65,4.65
20.61,-9.30,-13.96,-9.28,-13.95,13.95,13.66,6.16,4.65,4.67,4.66
20.81,-9.23,-13.92,-9.22,-13.90,13.90,13.69,6.31,4.68,4.69,4.70
21.02,-9.16,-13.88,-9.15,-13.86,13.86,13.72,6.47,4.70,4.70,4.72
21.23,-9.10,-13.83,-9.09,-13.81,13.81,13.74,6.63,4.71,4.71,4.73
21.44,-9.02,-13.76,-9.03,-13.75,13.75,13.75,6.80,4.74,4.73,4.74
21.66,-8.97,-13.72,-8.96,-13.70,13.70,13.75,6.97,4.73,4.74,4.75
21.87,-8.90,-13.65,-8.90,-13.65,13.65,13.75,7.15,4.75,4.75,4.75
22.09,-8.84,-13.60,-8.84,-13.59,13.59,13.74,7.33,4.75,4.75,4.76
22.31,-8.78,-13.54,-8.77,-13.53,13.53,13.72,7.51,4.76,4.76,4.76
22.54,-8.71,-13.47,-8.71,-13.47,13.47,13.70,7.71,4.76,4.76,4.76
22.76,-8.65,-13.41,-8.64,-13.40,13.40,13.67,7.90,4.76,4.76,4.76
22.99,-8.58,-13.33,-8.58,-13.34,13.34,13.63,8.10,4.76,4.76,4.75
23.22,-8.52,-13.27,-8.52,-13.28,13.28,13.59,8.31,4.76,4.76,4.75
23.45,-8.46,-13.20,-8.46,-13.21,13.21,13.54,8.52,4.76,4.75,4.75
23.69,-8.40,-13.14,-8.39,-13.15,13.15,13.48,8.74,4.75,4.75,4.75
23.92,-8.34,-13.08,-8.33,-13.08,13.08,13.43,8.96,4.75,4.75,4.75
24.16,-8.28,-13.03,-8.27,-13.02,13.02,13.36,9.19,4.74,4.75,4.75
24.40,-8.22,-12.97,-8.21,-12.96,12.96,13.30,9.43,4.74,4.75,4.75
24.65,-8.15,-12.89,-8.15,-12.90,12.90,13.22,9.67,4.75,4.74,4.74
24.89,-8.09,-12.83,-8.09,-12.84,12.84,13.15,9.91,4.75,4.74,4.74
25.14,-8.04,-12.78,-8.03,-12.77,12.77,13.07,10.16,4.74,4.74,4.74
25.39,-7.98,-12.72,-7.98,-12.71,12.71,12.99,10.42,4.74,4.74,4.74
25.65,-7.90,-12.64,-7.92,-12.65,12.65,12.91,10.68,4.76,4.74,4.74
25.91,-7.86,-12.59,-7.86,-12.59,12.59,12.82,10.95,4.73,4.73,4.73
26.16,-7.81,-12.53,-7.80,-12.53,12.53,12.73,11.22,4.72,4.73,4.73
26.43,-7.76,-12.48,-7.74,-12.47,12.47,12.64,11.49,4.71,4.73,4.73
26.69,-7.70,-12.42,-7.68,-12.41,12.41,12.55,11.77,4.71,4.72,4.72
26.96,-7.62,-12.34,-7.63,-12.35,12.35,12.46,12.04,4.73,4.72,4.72
27.23,-7.57,-12.29,-7.57,-12.29,12.29,12.36,12.32,4.72,4.72,4.72
27.50,-7.51,-12.23,-7.51,-12.23,12.23,12.27,12.60,4.72,4.71,4.72
27.77,-7.45,-12.15,-7.46,-12.17,12.17,12.18,12.87,4.72,4.71,4.71
28.05,-7.39,-12.09,-7.40,-12.10,12.10,12.08,13.14,4.72,4.71,4.71
28.33,-7.34,-12.03,-7.34,-12.04,12.04,11.99,13.40,4.71,4.70,4.70
28.62,-7.30,-11.99,-7.29,-11.98,11.98,11.89,13.66,4.69,4.70,4.69
28.90,-7.25,-11.94,-7.23,-11.92,11.92,11.80,13.90,4.67,4.69,4.69
29.19,-7.18,-11.86,-7.17,-11.86,11.86,11.70,14.12,4.68,4.69,4.68
29.48,-7.12,-11.80,-7.12,-11.80,11.80,11.61,14.33,4.68,4.68,4.69
29.78,-7.06,-11.73,-7.06,-11.74,11.74,11.52,14.51,4.68,4.68,4.68
30.08,-7.01,-11.68,-7.01,-11.68,11.68,11.43,14.67,4.67,4.67,4.67
30.38,-6.95,-11.61,-6.95,-11.62,11.62,11.34,14.80,4.67,4.66,4.66
30.68,-6.90,-11.56,-6.90,-11.56,11.56,11.25,14.90,4.66,4.66,4.66
30.99,-6.84,-11.49,-6.84,-11.50,11.50,11.16,14.97,4.66,4.65,4.65
31.30,-6.79,-11.43,-6.79,-11.43,11.43,11.08,15.00,4.65,4.65,4.65
31.61,-6.73,-11.37,-6.73,-11.37,11.37,10.99,15.00,4.65,4.64,4.64
31.93,-6.69,-11.32,-6.68,-11.31,11.31,10.91,14.97,4.62,4.63,4.63
32.24,-6.64,-11.25,-6.63,-11.25,11.25,10.83,14.90,4.62,4.62,4.62
32.57,-6.59,-11.20,-6.58,-11.19,11.19,10.75,14.80,4.61,4.62,4.61
32.89,-6.53,-11.14,-6.52,-11.13,11.13,10.67,14.68,4.61,4.61,4.61
33.22,-6.47,-11.07,-6.47,-11.07,11.07,10.59,14.53,4.61,4.60,4.60
33.55,-6.41,-11.00,-6.42,-11.01,11.01,10.52,14.36,4.61,4.59,4.60
33.89,-6.38,-10.96,-6.37,-10.95,10.95,10.44,14.18,4.58,4.58,4.58
34.23,-6.32,-10.90,-6.32,-10.89,10.89,10.37,13.98,4.58,4.57,4.58
34.57,-6.27,-10.83,-6.27,-10.83,10.83,10.30,13.77,4.57,4.56,4.57
34.92,-6.22,-10.77,-6.22,-10.77,10.77,10.23,13.55,4.56,4.55,4.55
35.27,-6.18,-10.73,-6.17,-10.71,10.71,10.17,13.33,4.54,4.55,4.55
35.62,-6.13,-10.66,-6.12,-10.66,10.66,10.11,13.10,4.53,4.54,4.53
35.97,-6.07,-10.59,-6.07,-10.59,10.59,10.04,12.87,4.53,4.52,4.52
36.33,-6.02,-10.53,-6.02,-10.53,10.53,9.98,12.65,4.52,4.51,4.52
36.70,-5.98,-10.48,-5.97,-10.47,10.47,9.92,12.42,4.50,4.50,4.50
37.06,-5.93,-10.41,-5.92,-10.41,10.41,9.87,12.20,4.49,4.49,4.49
37.43,-5.88,-10.36,-5.87,-10.35,10.35,9.81,11.98,4.48,4.48,4.48
37.81,-5.82,-10.28,-5.83,-10.29,10.29,9.76,11.76,4.47,4.47,4.47
38.19,-5.78,-10.23,-5.78,-10.23,10.23,9.71,11.55,4.45,4.45,4.45
38.57,-5.74,-10.18,-5.73,-10.17,10.17,9.66,11.35,4.43,4.44,4.45
38.95,-5.68,-10.11,-5.68,-10.11,10.11,9.61,11.15,4.43,4.43,4.43
39.34,-5.63,-10.04,-5.63,-10.05,10.05,9.57,10.96,4.42,4.42,4.42
39.74,-5.58,-9.98,-5.58,-9.99,9.99,9.52,10.78,4.41,4.41,4.40
40.14,-5.54,-9.93,-5.53,-9.93,9.93,9.48,10.60,4.39,4.40,4.39
40.54,-5.49,-9.86,-5.49,-9.87,9.87,9.44,10.43,4.38,4.38,4.38
40.94,-5.44,-9.81,-5.44,-9.81,9.81,9.40,10.26,4.37,4.37,4.37
41.35,-5.40,-9.75,-5.39,-9.75,9.75,9.36,10.10,4.36,4.36,4.35
41.76,-5.35,-9.69,-5.35,-9.69,9.69,9.32,9.95,4.35,4.34,4.35
42.18,-5.29,-9.62,-5.31,-9.63,9.63,9.28,9.81,4.35,4.33,4.34
42.60,-5.26,-9.58,-5.26,-9.58,9.58,9.25,9.67,4.32,4.31,4.32
43.03,-5.22,-9.53,-5.22,-9.52,9.52,9.21,9.54,4.30,4.30,4.31
43.46,-5.18,-9.47,-5.17,-9.46,9.46,9.18,9.42,4.28,4.28,4.29
43.90,-5.15,-9.41,-5.13,-9.40,9.40,9.14,9.30,4.25,4.27,4.27
44.33,-5.09,-9.33,-5.09,-9.34,9.34,9.11,9.19,4.25,4.25,4.25
44.78,-5.06,-9.28,-5.04,-9.28,9.28,9.08,9.09,4.22,4.23,4.23
45.23,-5.01,-9.21,-5.00,-9.22,9.22,9.04,8.99,4.21,4.22,4.21
45.68,-4.95,-9.13,-4.96,-9.15,9.15,9.01,8.90,4.21,4.19,4.19
46.13,-4.92,-9.08,-4.92,-9.09,9.09,8.98,8.81,4.17,4.17,4.17
46.60,-4.87,-9.02,-4.87,-9.03,9.03,8.95,8.73,4.16,4.15,4.16
47.06,-4.84,-8.97,-4.83,-8.96,8.96,8.91,8.66,4.13,4.13,4.13
47.53,-4.78,-8.89,-4.79,-8.90,8.90,8.88,8.59,4.12,4.11,4.11
48.01,-4.75,-8.85,-4.75,-8.83,8.83,8.84,8.52,4.08,4.08,4.10
48.49,-4.72,-8.79,-4.71,-8.77,8.77,8.81,8.46,4.05,4.06,4.07
48.97,-4.66,-8.69,-4.67,-8.70,8.70,8.77,8.41,4.05,4.03,4.03
49.46,-4.63,-8.63,-4.63,-8.64,8.64,8.73,8.36,4.01,4.01,4.00
49.96,-4.60,-8.56,-4.59,-8.57,8.57,8.69,8.31,3.98,3.98,3.97
50.46,-4.57,-8.52,-4.55,-8.51,8.51,8.65,8.27,3.94,3.96,3.95
50.96,-4.52,-8.45,-4.52,-8.45,8.45,8.61,8.24,3.93,3.93,3.93
51.47,-4.48,-8.37,-4.48,-8.38,8.38,8.57,8.20,3.90,3.90,3.89
51.99,-4.45,-8.31,-4.44,-8.31,8.31,8.52,8.17,3.87,3.87,3.87
52.51,-4.40,-8.25,-4.40,-8.25,8.25,8.47,8.14,3.85,3.85,3.85
53.03,-4.37,-8.19,-4.37,-8.18,8.18,8.42,8.11,3.82,3.82,3.82
53.56,-4.34,-8.13,-4.33,-8.12,8.12,8.37,8.09,3.78,3.79,3.80
54.10,-4.29,-8.05,-4.29,-8.06,8.06,8.31,8.06,3.77,3.76,3.77
54.64,-4.25,-7.99,-4.26,-8.00,8.00,8.25,8.04,3.75,3.74,3.74
55.18,-4.22,-7.93,-4.22,-7.93,7.93,8.19,8.01,3.72,3.71,3.71
55.74,-4.19,-7.87,-4.18,-7.87,7.87,8.13,7.99,3.68,3.69,3.68
56.29,-4.15,-7.80,-4.15,-7.81,7.81,8.06,7.96,3.66,3.66,3.66
56.86,-4.12,-7.74,-4.12,-7.75,7.75,7.99,7.94,3.63,3.63,3.63
57.42,-4.10,-7.69,-4.08,-7.68,7.68,7.92,7.91,3.59,3.60,3.59
58.00,-4.05,-7.62,-4.05,-7.62,7.62,7.85,7.88,3.57,3.58,3.57
58.58,-4.01,-7.55,-4.01,-7.56,7.56,7.77,7.84,3.55,3.55,3.55
59.16,-3.98,-7.50,-3.98,-7.49,7.49,7.69,7.81,3.52,3.52,3.52
59.76,-3.95,-7.45,-3.94,-7.43,7.43,7.61,7.76,3.48,3.49,3.50
60.35,-3.91,-7.37,-3.91,-7.37,7.37,7.53,7.72,3.46,3.45,3.46
60.96,-3.89,-7.32,-3.88,-7.30,7.30,7.44,7.67,3.42,3.42,3.44
61.57,-3.85,-7.24,-3.85,-7.24,7.24,7.36,7.61,3.39,3.39,3.39
62.18,-3.82,-7.17,-3.81,-7.17,7.17,7.27,7.55,3.36,3.36,3.35
62.80,-3.77,-7.09,-3.78,-7.11,7.11,7.18,7.49,3.34,3.32,3.32
63.43,-3.76,-7.04,-3.75,-7.04,7.04,7.08,7.42,3.28,3.29,3.28
64.07,-3.73,-6.98,-3.72,-6.97,6.97,6.99,7.34,3.25,3.26,3.25
64.71,-3.68,-6.89,-3.69,-6.91,6.91,6.89,7.26,3.23,3.22,3.22
65.35,-3.67,-6.85,-3.66,-6.84,6.84,6.80,7.18,3.18,3.19,3.19
66.01,-3.63,-6.78,-3.63,-6.78,6.78,6.70,7.09,3.15,3.15,3.15
66.67,-3.61,-6.72,-3.60,-6.71,6.71,6.60,6.99,3.11,3.11,3.12
67.33,-3.57,-6.65,-3.57,-6.65,6.65,6.50,6.89,3.08,3.08,3.08
68.01,-3.54,-6.58,-3.54,-6.58,6.58,6.40,6.79,3.05,3.04,3.05
68.69,-3.51,-6.51,-3.51,-6.52,6.52,6.30,6.69,3.01,3.01,3.01
69.37,-3.50,-6.47,-3.49,-6.46,6.46,6.20,6.58,2.96,2.97,2.97
70.07,-3.45,-6.38,-3.46,-6.39,6.39,6.09,6.47,2.94,2.93,2.93
70.77,-3.44,-6.34,-3.43,-6.32,6.32,5.99,6.36,2.89,2.89,2.90
71.48,-3.40,-6.26,-3.40,-6.26,6.26,5.89,6.24,2.86,2.85,2.86
72.19,-3.38,-6.19,-3.38,-6.19,6.19,5.79,6.13,2.81,2.81,2.82
72.91,-3.36,-6.13,-3.35,-6.12,6.12,5.69,6.02,2.76,2.77,2.77
73.64,-3.32,-6.05,-3.32,-6.06,6.06,5.59,5.90,2.74,2.73,2.73
74.38,-3.31,-6.00,-3.29,-5.99,5.99,5.48,5.78,2.68,2.69,2.69
75.12,-3.26,-5.90,-3.27,-5.92,5.92,5.38,5.67,2.67,2.65,2.65
75.87,-3.25,-5.86,-3.24,-5.86,5.86,5.28,5.56,2.61,2.61,2.61
76.63,-3.22,-5.79,-3.21,-5.79,5.79,5.19,5.44,2.57,2.57,2.57
77.40,-3.18,-5.71,-3.19,-5.72,5.72,5.09,5.33,2.54,2.53,2.53
78.17,-3.17,-5.65,-3.16,-5.65,5.65,4.99,5.22,2.49,2.49,2.48
78.95,-3.12,-5.57,-3.13,-5.58,5.58,4.89,5.11,2.47,2.45,2.45
79.74,-3.12,-5.53,-3.11,-5.52,5.52,4.80,5.01,2.40,2.41,2.41
80.54,-3.08,-5.44,-3.08,-5.45,5.45,4.70,4.90,2.37,2.37,2.37
81.35,-3.08,-5.40,-3.05,-5.38,5.38,4.61,4.80,2.30,2.32,2.32
82.16,-3.03,-5.31,-3.03,-5.31,5.31,4.52,4.70,2.28,2.28,2.28
82.98,-3.01,-5.25,-3.00,-5.24,5.24,4.43,4.61,2.23,2.24,2.24
83.81,-2.98,-5.16,-2.98,-5.17,5.17,4.34,4.51,2.19,2.19,2.19
84.65,-2.95,-5.09,-2.96,-5.10,5.10,4.25,4.42,2.15,2.15,2.14
85.50,-2.94,-5.04,-2.93,-5.03,5.03,4.16,4.34,2.09,2.10,2.10
86.35,-2.91,-4.96,-2.91,-4.96,4.96,4.07,4.25,2.06,2.05,2.05
87.22,-2.89,-4.89,-2.89,-4.89,4.89,3.99,4.17,2.01,2.00,2.00
88.09,-2.87,-4.82,-2.87,-4.82,4.82,3.90,4.09,1.96,1.96,1.95
88.97,-2.84,-4.75,-2.85,-4.75,4.75,3.82,4.01,1.92,1.91,1.91
89.86,-2.84,-4.70,-2.83,-4.68,4.68,3.74,3.94,1.85,1.85,1.86
90.76,-2.81,-4.60,-2.81,-4.61,4.61,3.66,3.86,1.81,1.80,1.80
91.66,-2.80,-4.55,-2.80,-4.55,4.55,3.58,3.80,1.75,1.75,1.75
92.58,-2.80,-4.49,-2.78,-4.48,4.48,3.50,3.73,1.68,1.70,1.69
93.51,-2.76,-4.40,-2.77,-4.41,4.41,3.42,3.66,1.65,1.64,1.65
94.44,-2.75,-4.34,-2.76,-4.34,4.34,3.34,3.60,1.60,1.59,1.59
95.39,-2.75,-4.28,-2.74,-4.27,4.27,3.27,3.54,1.53,1.53,1.54
96.34,-2.75,-4.22,-2.73,-4.21,4.21,3.20,3.49,1.46,1.47,1.47
97.30,-2.72,-4.13,-2.72,-4.14,4.14,3.12,3.43,1.42,1.42,1.41
98.28,-2.70,-4.05,-2.71,-4.07,4.07,3.05,3.38,1.37,1.36,1.36
99.26,-2.70,-4.00,-2.70,-4.00,4.00,2.98,3.33,1.30,1.30,1.30
100.25,-2.70,-3.94,-2.69,-3.93,3.93,2.91,3.28,1.23,1.24,1.24
101.25,-2.69,-3.87,-2.68,-3.86,3.86,2.85,3.24,1.18,1.19,1.19
102.27,-2.66,-3.79,-2.66,-3.79,3.79,2.78,3.19,1.14,1.13,1.13
103.29,-2.66,-3.72,-2.65,-3.72,3.72,2.71,3.15,1.07,1.07,1.06
104.32,-2.66,-3.67,-2.64,-3.65,3.65,2.65,3.11,1.00,1.01,1.01
105.37,-2.62,-3.57,-2.63,-3.58,3.58,2.59,3.07,0.97,0.95,0.96
106.42,-2.61,-3.50,-2.62,-3.51,3.51,2.52,3.03,0.90,0.90,0.90
107.48,-2.61,-3.45,-2.60,-3.44,3.44,2.46,2.99,0.83,0.84,0.84
108.56,-2.61,-3.38,-2.59,-3.36,3.36,2.40,2.95,0.76,0.77,0.77
109.64,-2.56,-3.27,-2.58,-3.29,3.29,2.34,2.92,0.73,0.71,0.71
110.74,-2.56,-3.21,-2.56,-3.21,3.21,2.28,2.88,0.65,0.65,0.66
111.85,-2.56,-3.16,-2.54,-3.13,3.13,2.23,2.85,0.58,0.59,0.60
112.97,-2.52,-3.04,-2.53,-3.06,3.06,2.17,2.81,0.54,0.53,0.52
114.10,-2.52,-2.98,-2.51,-2.98,2.98,2.11,2.77,0.46,0.46,0.47
115.24,-2.52,-2.92,-2.49,-2.90,2.90,2.06,2.74,0.38,0.40,0.40
116.39,-2.47,-2.80,-2.48,-2.82,2.82,2.01,2.70,0.35,0.34,0.33
117.55,-2.47,-2.74,-2.46,-2.74,2.74,1.95,2.66,0.27,0.28,0.27
118.73,-2.43,-2.63,-2.44,-2.66,2.66,1.90,2.62,0.23,0.21,0.20
119.92,-2.42,-2.57,-2.42,-2.57,2.57,1.85,2.59,0.16,0.15,0.15
121.12,-2.42,-2.50,-2.40,-2.49,2.49,1.80,2.55,0.07,0.09,0.09
122.33,-2.38,-2.40,-2.39,-2.41,2.41,1.75,2.50,0.03,0.02,0.02
123.55,-2.38,-2.35,-2.37,-2.33,2.33,1.70,2.46,-0.05,-0.04,-0.03
124.79,-2.34,-2.25,-2.35,-2.25,2.25,1.65,2.42,-0.09,-0.10,-0.09
126.03,-2.33,-2.17,-2.33,-2.17,2.17,1.60,2.37,-0.16,-0.16,-0.15
127.29,-2.33,-2.11,-2.31,-2.09,2.09,1.55,2.33,-0.24,-0.22,-0.21
128.57,-2.28,-1.99,-2.29,-2.01,2.01,1.50,2.28,-0.27,-0.28,-0.28
129.85,-2.28,-1.93,-2.27,-1.93,1.93,1.46,2.23,-0.35,-0.34,-0.34
131.15,-2.24,-1.84,-2.25,-1.85,1.85,1.41,2.18,-0.38,-0.40,-0.40
132.46,-2.24,-1.78,-2.23,-1.78,1.78,1.37,2.13,-0.46,-0.45,-0.46
133.79,-2.22,-1.71,-2.21,-1.70,1.70,1.32,2.07,-0.52,-0.51,-0.51
135.12,-2.19,-1.62,-2.19,-1.62,1.62,1.28,2.02,-0.56,-0.57,-0.57
136.48,-2.18,-1.56,-2.17,-1.55,1.55,1.23,1.96,-0.63,-0.62,-0.62
137.84,-2.14,-1.47,-2.15,-1.48,1.48,1.19,1.91,-0.66,-0.67,-0.67
139.22,-2.14,-1.40,-2.13,-1.41,1.41,1.15,1.85,-0.73,-0.72,-0.73
140.61,-2.10,-1.31,-2.11,-1.34,1.34,1.11,1.79,-0.76,-0.77,-0.79
142.02,-2.10,-1.28,-2.09,-1.27,1.27,1.06,1.73,-0.82,-0.82,-0.82
143.44,-2.09,-1.22,-2.08,-1.21,1.21,1.02,1.67,-0.88,-0.87,-0.87
144.87,-2.05,-1.13,-2.06,-1.15,1.15,0.98,1.61,-0.90,-0.92,-0.92
146.32,-2.05,-1.08,-2.05,-1.08,1.08,0.94,1.55,-0.96,-0.96,-0.96
147.78,-2.04,-1.03,-2.03,-1.02,1.02,0.90,1.49,-1.02,-1.01,-1.00
149.26,-2.00,-0.95,-2.01,-0.96,0.96,0.86,1.43,-1.04,-1.06,-1.05
150.75,-2.00,-0.89,-2.00,-0.89,0.89,0.82,1.37,-1.10,-1.10,-1.10
152.26,-2.00,-0.85,-1.98,-0.83,0.83,0.78,1.30,-1.17,-1.15,-1.15
153.78,-1.96,-0.77,-1.97,-0.77,0.77,0.74,1.24,-1.19,-1.20,-1.19
155.32,-1.96,-0.71,-1.95,-0.71,0.71,0.70,1.18,-1.25,-1.24,-1.24
156.88,-1.95,-0.66,-1.93,-0.64,0.64,0.66,1.12,-1.30,-1.29,-1.29
158.44,-1.91,-0.57,-1.92,-0.58,0.58,0.62,1.05,-1.33,-1.34,-1.34
160.03,-1.91,-0.52,-1.90,-0.52,0.52,0.59,0.99,-1.39,-1.38,-1.39
161.63,-1.88,-0.44,-1.88,-0.45,0.45,0.55,0.93,-1.42,-1.43,-1.43
163.24,-1.86,-0.38,-1.87,-0.39,0.39,0.51,0.87,-1.46,-1.47,-1.48
164.88,-1.86,-0.34,-1.85,-0.33,0.33,0.47,0.81,-1.53,-1.52,-1.52
166.53,-1.82,-0.25,-1.83,-0.27,0.27,0.43,0.74,-1.55,-1.57,-1.56
168.19,-1.82,-0.21,-1.82,-0.21,0.21,0.40,0.68,-1.61,-1.61,-1.61
169.87,-1.82,-0.16,-1.80,-0.14,0.14,0.36,0.62,-1.67,-1.65,-1.65
171.57,-1.77,-0.07,-1.78,-0.08,0.08,0.32,0.56,-1.68,-1.70,-1.70
173.29,-1.77,-0.03,-1.76,-0.02,0.02,0.28,0.50,-1.75,-1.74,-1.74
175.02,-1.77,0.01,-1.75,0.04,-0.04,0.25,0.44,-1.80,-1.79,-1.78
176.77,-1.72,0.11,-1.74,0.10,-0.10,0.21,0.38,-1.81,-1.83,-1.83
178.54,-1.72,0.16,-1.72,0.15,-0.15,0.17,0.31,-1.87,-1.87,-1.88
180.32,-1.72,0.20,-1.70,0.21,-0.21,0.14,0.25,-1.93,-1.92,-1.92
182.13,-1.68,0.28,-1.69,0.27,-0.27,0.10,0.19,-1.94,-1.96,-1.95
183.95,-1.68,0.33,-1.67,0.32,-0.32,0.06,0.13,-2.00,-2.00,-2.00
185.79,-1.68,0.36,-1.66,0.38,-0.38,0.03,0.07,-2.06,-2.04,-2.04
187.65,-1.63,0.46,-1.65,0.43,-0.43,-0.01,0.01,-2.06,-2.08,-2.08
189.52,-1.63,0.49,-1.63,0.48,-0.48,-0.04,-0.05,-2.11,-2.12,-2.12
191.42,-1.63,0.52,-1.62,0.53,-0.53,-0.08,-0.11,-2.16,-2.15,-2.15
193.33,-1.63,0.56,-1.61,0.58,-0.58,-0.12,-0.17,-2.21,-2.19,-2.18
195.27,-1.58,0.64,-1.60,0.63,-0.63,-0.15,-0.23,-2.20,-2.22,-2.22
197.22,-1.58,0.67,-1.59,0.67,-0.67,-0.19,-0.29,-2.24,-2.25,-2.25
199.19,-1.58,0.71,-1.57,0.71,-0.71,-0.22,-0.35,-2.28,-2.28,-2.29
201.18,-1.57,0.74,-1.56,0.75,-0.75,-0.26,-0.40,-2.32,-2.31,-2.31
203.19,-1.54,0.79,-1.55,0.79,-0.79,-0.30,-0.46,-2.32,-2.33,-2.33
205.23,-1.54,0.82,-1.53,0.82,-0.82,-0.33,-0.52,-2.36,-2.36,-2.36
207.28,-1.54,0.83,-1.52,0.85,-0.85,-0.37,-0.58,-2.39,-2.38,-2.37
209.35,-1.52,0.88,-1.51,0.89,-0.89,-0.40,-0.63,-2.40,-2.40,-2.40
211.44,-1.49,0.94,-1.50,0.92,-0.92,-0.43,-0.69,-2.40,-2.41,-2.42
213.56,-1.49,0.94,-1.49,0.94,-0.94,-0.47,-0.74,-2.43,-2.43,-2.43
215.69,-1.49,0.95,-1.48,0.97,-0.97,-0.50,-0.79,-2.45,-2.44,-2.44
217.85,-1.46,0.99,-1.46,0.99,-0.99,-0.54,-0.84,-2.45,-2.45,-2.45
220.03,-1.44,1.03,-1.45,1.01,-1.01,-0.57,-0.89,-2.45,-2.46,-2.47
222.23,-1.44,1.04,-1.44,1.03,-1.03,-0.60,-0.94,-2.47,-2.47,-2.48
224.45,-1.44,1.04,-1.43,1.05,-1.05,-0.64,-0.99,-2.48,-2.47,-2.47
226.70,-1.42,1.06,-1.42,1.06,-1.06,-0.67,-1.03,-2.48,-2.48,-2.48
228.96,-1.40,1.08,-1.40,1.08,-1.08,-0.70,-1.07,-2.47,-2.48,-2.48
231.25,-1.40,1.08,-1.39,1.09,-1.09,-0.73,-1.11,-2.49,-2.48,-2.47
233.57,-1.40,1.08,-1.38,1.10,-1.10,-0.76,-1.15,-2.50,-2.48,-2.48
235.90,-1.38,1.10,-1.37,1.11,-1.11,-0.79,-1.18,-2.48,-2.48,-2.48
238.26,-1.35,1.13,-1.36,1.11,-1.11,-0.82,-1.21,-2.46,-2.47,-2.48
240.64,-1.35,1.12,-1.35,1.12,-1.12,-0.85,-1.24,-2.47,-2.47,-2.47
243.05,-1.35,1.11,-1.34,1.12,-1.12,-0.87,-1.27,-2.47,-2.46,-2.46
245.48,-1.35,1.10,-1.33,1.12,-1.12,-0.90,-1.29,-2.47,-2.45,-2.45
247.93,-1.30,1.14,-1.32,1.12,-1.12,-0.92,-1.31,-2.42,-2.44,-2.44
250.41,-1.30,1.14,-1.31,1.12,-1.12,-0.95,-1.32,-2.42,-2.43,-2.44
252.92,-1.30,1.12,-1.30,1.12,-1.12,-0.97,-1.34,-2.41,-2.42,-2.42
255.45,-1.30,1.10,-1.29,1.11,-1.11,-0.99,-1.35,-2.41,-2.40,-2.40
258.00,-1.30,1.09,-1.28,1.10,-1.10,-1.02,-1.35,-2.40,-2.39,-2.39
260.58,-1.27,1.11,-1.27,1.10,-1.10,-1.04,-1.36,-2.36,-2.37,-2.37
263.19,-1.26,1.10,-1.27,1.09,-1.09,-1.05,-1.36,-2.34,-2.35,-2.35
265.82,-1.26,1.08,-1.26,1.08,-1.08,-1.07,-1.36,-2.33,-2.34,-2.34
268.48,-1.26,1.06,-1.25,1.07,-1.07,-1.09,-1.35,-2.32,-2.32,-2.32
271.16,-1.26,1.04,-1.25,1.06,-1.06,-1.10,-1.34,-2.31,-2.30,-2.29
273.87,-1.26,1.02,-1.24,1.04,-1.04,-1.12,-1.34,-2.30,-2.28,-2.28
276.61,-1.23,1.03,-1.23,1.03,-1.03,-1.13,-1.32,-2.26,-2.26,-2.26
279.38,-1.21,1.04,-1.22,1.02,-1.02,-1.14,-1.31,-2.23,-2.25,-2.24
282.17,-1.21,1.02,-1.21,1.01,-1.01,-1.15,-1.30,-2.22,-2.23,-2.23
284.99,-1.21,1.00,-1.21,1.00,-1.00,-1.16,-1.28,-2.21,-2.21,-2.21
287.84,-1.21,0.98,-1.20,0.99,-0.99,-1.16,-1.26,-2.20,-2.19,-2.19
290.72,-1.21,0.96,-1.19,0.98,-0.98,-1.17,-1.24,-2.18,-2.17,-2.17
293.63,-1.19,0.97,-1.18,0.96,-0.96,-1.17,-1.22,-2.15,-2.15,-2.15
296.57,-1.16,0.97,-1.18,0.95,-0.95,-1.17,-1.20,-2.11,-2.13,-2.13
299.53,-1.16,0.95,-1.17,0.94,-0.94,-1.18,-1.18,-2.09,-2.11,-2.11
302.53,-1.16,0.94,-1.16,0.92,-0.92,-1.18,-1.16,-2.08,-2.08,-2.10
305.55,-1.16,0.90,-1.15,0.91,-0.91,-1.17,-1.14,-2.07,-2.06,-2.06
308.61,-1.16,0.89,-1.15,0.89,-0.89,-1.17,-1.12,-2.05,-2.04,-2.05
311.69,-1.16,0.86,-1.14,0.88,-0.88,-1.17,-1.10,-2.04,-2.02,-2.02
314.81,-1.12,0.87,-1.13,0.87,-0.87,-1.16,-1.07,-1.98,-2.00,-1.98
317.96,-1.12,0.85,-1.12,0.85,-0.85,-1.16,-1.05,-1.97,-1.97,-1.97
321.14,-1.12,0.83,-1.12,0.84,-0.84,-1.15,-1.03,-1.95,-1.95,-1.95
324.35,-1.12,0.82,-1.11,0.82,-0.82,-1.14,-1.01,-1.94,-1.93,-1.93
327.59,-1.12,0.79,-1.10,0.81,-0.81,-1.13,-0.99,-1.93,-1.91,-1.91
330.87,-1.09,0.80,-1.09,0.80,-0.80,-1.12,-0.97,-1.88,-1.89,-1.89
334.18,-1.07,0.81,-1.08,0.79,-0.79,-1.11,-0.95,-1.85,-1.87,-1.87
337.52,-1.07,0.79,-1.07,0.78,-0.78,-1.10,-0.93,-1.84,-1.85,-1.86
340.90,-1.07,0.76,-1.07,0.77,-0.77,-1.09,-0.91,-1.83,-1.83,-1.83
344.30,-1.07,0.75,-1.06,0.76,-0.76,-1.07,-0.90,-1.82,-1.81,-1.81
347.75,-1.07,0.73,-1.05,0.75,-0.75,-1.06,-0.88,-1.81,-1.80,-1.80
351.23,-1.04,0.74,-1.04,0.74,-0.74,-1.04,-0.86,-1.77,-1.78,-1.78
354.74,-1.02,0.74,-1.04,0.73,-0.73,-1.03,-0.85,-1.74,-1.76,-1.76
358.28,-1.02,0.73,-1.03,0.71,-0.71,-1.01,-0.83,-1.73,-1.74,-1.74
361.87,-1.02,0.71,-1.02,0.70,-0.70,-1.00,-0.82,-1.72,-1.73,-1.73
365.49,-1.02,0.69,-1.02,0.70,-0.70,-0.98,-0.81,-1.71,-1.71,-1.71
369.14,-1.02,0.68,-1.01,0.69,-0.69,-0.97,-0.80,-1.70,-1.70,-1.70
372.83,-1.02,0.67,-1.01,0.68,-0.68,-0.95,-0.78,-1.69,-1.68,-1.68
376.56,-1.01,0.67,-1.00,0.67,-0.67,-0.93,-0.77,-1.68,-1.67,-1.67
380.33,-0.98,0.67,-0.99,0.67,-0.67,-0.91,-0.76,-1.64,-1.65,-1.65
384.13,-0.98,0.66,-0.98,0.66,-0.66,-0.90,-0.76,-1.64,-1.64,-1.64
387.97,-0.98,0.65,-0.97,0.66,-0.66,-0.88,-0.75,-1.64,-1.63,-1.63
391.85,-0.98,0.64,-0.96,0.65,-0.65,-0.86,-0.74,-1.63,-1.62,-1.62
395.77,-0.96,0.65,-0.95,0.65,-0.65,-0.85,-0.73,-1.61,-1.61,-1.60
399.73,-0.93,0.67,-0.94,0.66,-0.66,-0.83,-0.73,-1.58,-1.59,-1.59
403.72,-0.93,0.66,-0.93,0.66,-0.66,-0.81,-0.72,-1.58,-1.58,-1.59
407.76,-0.93,0.65,-0.91,0.66,-0.66,-0.79,-0.71,-1.59,-1.57,-1.58
411.84,-0.90,0.66,-0.90,0.66,-0.66,-0.78,-0.71,-1.56,-1.56,-1.56
415.96,-0.88,0.67,-0.89,0.66,-0.66,-0.76,-0.70,-1.54,-1.55,-1.55
420.12,-0.88,0.66,-0.89,0.66,-0.66,-0.74,-0.70,-1.54,-1.54,-1.54
424.32,-0.88,0.66,-0.88,0.66,-0.66,-0.73,-0.70,-1.53,-1.53,-1.53
428.56,-0.88,0.65,-0.87,0.66,-0.66,-0.71,-0.69,-1.53,-1.52,-1.52
432.85,-0.85,0.67,-0.86,0.65,-0.65,-0.69,-0.69,-1.50,-1.51,-1.51
437.18,-0.84,0.67,-0.85,0.65,-0.65,-0.68,-0.69,-1.49,-1.50,-1.51
441.55,-0.84,0.65,-0.84,0.65,-0.65,-0.66,-0.68,-1.49,-1.49,-1.49
445.96,-0.84,0.64,-0.83,0.65,-0.65,-0.65,-0.68,-1.48,-1.48,-1.48
450.42,-0.84,0.63,-0.82,0.64,-0.64,-0.63,-0.68,-1.48,-1.46,-1.47
454.93,-0.84,0.61,-0.81,0.64,-0.64,-0.62,-0.68,-1.48,-1.45,-1.45
