frequency,raw,error,smoothed,error_smoothed,equalization,parametric_eq,fixed_band_eq,equalized_raw,equalized_smoothed,target
20.00,-9.42,-12.89,-9.43,-12.89,12.91,12.94,5.22,3.48,3.48,3.47
20.20,-9.38,-12.88,-9.38,-12.88,12.88,12.88,5.35,3.50,3.50,3.50
20.40,-9.34,-12.87,-9.33,-12.86,12.85,12.82,5.48,3.51,3.52,3.53
20.61,-9.27,-12.82,-9.27,-12.83,12.81,12.77,5.62,3.54,3.54,3.55
20.81,-9.20,-12.78,-9.21,-12.78,12.78,12.71,5.76,3.57,3.57,3.58
21.02,-9.14,-12.75,-9.14,-12.74,12.73,12.65,5.90,3.59,3.60,3.61
21.23,-9.07,-12.69,-9.08,-12.69,12.69,12.59,6.05,3.62,3.61,3.62
21.44,-9.01,-12.64,-9.01,-12.64,12.64,12.53,6.21,3.63,3.63,3.63
21.66,-8.95,-12.59,-8.95,-12.58,12.58,12.47,6.36,3.63,3.64,3.64
21.87,-8.88,-12.52,-8.88,-12.52,12.53,12.40,6.52,3.65,3.64,3.64
22.09,-8.82,-12.47,-8.82,-12.47,12.47,12.34,6.69,3.64,3.64,3.65
22.31,-8.76,-12.41,-8.76,-12.41,12.40,12.28,6.86,3.64,3.64,3.65
22.54,-8.70,-12.35,-8.70,-12.35,12.34,12.22,7.03,3.64,3.64,3.65
22.76,-8.63,-12.28,-8.64,-12.28,12.28,12.16,7.21,3.65,3.64,3.65
22.99,-8.57,-12.21,-8.57,-12.21,12.22,12.09,7.39,3.64,3.64,3.64
23.22,-8.51,-12.15,-8.51,-12.15,12.15,12.03,7.58,3.64,3.64,3.64
23.45,-8.45,-12.09,-8.45,-12.09,12.09,11.97,7.77,3.64,3.64,3.64
23.69,-8.39,-12.03,-8.39,-12.02,12.02,11.90,7.97,3.63,3.64,3.64
23.92,-8.32,-11.96,-8.33,-11.96,11.96,11.84,8.17,3.64,3.63,3.64
24.16,-8.26,-11.90,-8.26,-11.90,11.90,11.78,8.37,3.63,3.63,3.64
24.40,-8.20,-11.84,-8.20,-11.83,11.83,11.72,8.58,3.63,3.63,3.64
24.65,-8.14,-11.77,-8.14,-11.77,11.77,11.65,8.79,3.63,3.63,3.63
24.89,-8.08,-11.71,-8.08,-11.70,11.71,11.59,9.01,3.62,3.63,3.63
25.14,-8.01,-11.64,-8.01,-11.64,11.64,11.53,9.23,3.63,3.63,3.63
25.39,-7.95,-11.58,-7.95,-11.58,11.58,11.46,9.45,3.63,3.63,3.63
25.65,-7.89,-11.52,-7.90,-11.52,11.52,11.40,9.68,3.62,3.62,3.63
25.91,-7.84,-11.46,-7.84,-11.46,11.46,11.34,9.91,3.61,3.62,3.62
26.16,-7.78,-11.40,-7.78,-11.39,11.40,11.28,10.14,3.62,3.62,3.62
26.43,-7.70,-11.32,-7.72,-11.33,11.34,11.21,10.37,3.64,3.62,3.62
26.69,-7.66,-11.28,-7.66,-11.28,11.28,11.15,10.61,3.62,3.62,3.62
26.96,-7.61,-11.23,-7.61,-11.22,11.22,11.09,10.84,3.61,3.61,3.62
27.23,-7.56,-11.17,-7.56,-11.17,11.16,11.02,11.07,3.59,3.60,3.61
27.50,-7.50,-11.11,-7.50,-11.11,11.10,10.96,11.30,3.59,3.59,3.61
27.77,-7.44,-11.04,-7.44,-11.04,11.03,10.90,11.52,3.59,3.59,3.60
28.05,-7.37,-10.97,-7.38,-10.97,10.97,10.84,11.74,3.60,3.60,3.60
28.33,-7.31,-10.90,-7.31,-10.90,10.91,10.78,11.94,3.60,3.60,3.59
28.62,-7.25,-10.84,-7.25,-10.84,10.85,10.71,12.14,3.60,3.60,3.59
28.90,-7.19,-10.78,-7.20,-10.78,10.79,10.65,12.33,3.59,3.59,3.59
29.19,-7.15,-10.73,-7.15,-10.73,10.73,10.59,12.50,3.57,3.58,3.58
29.48,-7.10,-10.68,-7.10,-10.68,10.67,10.53,12.66,3.56,3.56,3.58
29.78,-7.05,-10.62,-7.05,-10.62,10.61,10.47,12.80,3.56,3.56,3.57
30.08,-6.99,-10.56,-6.99,-10.55,10.55,10.41,12.91,3.56,3.56,3.57
30.38,-6.92,-10.48,-6.93,-10.49,10.49,10.35,13.01,3.57,3.56,3.56
30.68,-6.87,-10.43,-6.87,-10.43,10.43,10.28,13.08,3.56,3.56,3.56
30.99,-6.82,-10.37,-6.82,-10.37,10.37,10.22,13.13,3.55,3.55,3.55
31.30,-6.77,-10.31,-6.77,-10.31,10.31,10.16,13.15,3.54,3.54,3.54
31.61,-6.72,-10.26,-6.72,-10.25,10.25,10.10,13.15,3.53,3.53,3.54
31.93,-6.66,-10.19,-6.66,-10.19,10.19,10.04,13.12,3.53,3.53,3.53
32.24,-6.60,-10.12,-6.61,-10.13,10.13,9.98,13.06,3.53,3.52,3.52
32.57,-6.56,-10.08,-6.56,-10.07,10.07,9.92,12.99,3.51,3.51,3.52
32.89,-6.51,-10.02,-6.51,-10.01,10.01,9.86,12.89,3.50,3.51,3.51
33.22,-6.45,-9.95,-6.46,-9.96,9.96,9.80,12.78,3.50,3.50,3.50
33.55,-6.40,-9.90,-6.40,-9.90,9.90,9.74,12.65,3.50,3.49,3.50
33.89,-6.35,-9.84,-6.36,-9.84,9.84,9.68,12.50,3.49,3.48,3.49
34.23,-6.31,-9.79,-6.31,-9.79,9.78,9.62,12.34,3.47,3.47,3.48
34.57,-6.26,-9.73,-6.26,-9.72,9.72,9.56,12.18,3.46,3.46,3.47
34.92,-6.20,-9.66,-6.21,-9.66,9.66,9.50,12.00,3.46,3.46,3.46
35.27,-6.15,-9.60,-6.16,-9.60,9.60,9.44,11.82,3.45,3.45,3.45
35.62,-6.11,-9.55,-6.11,-9.54,9.54,9.39,11.63,3.43,3.44,3.44
35.97,-6.05,-9.48,-6.06,-9.48,9.48,9.33,11.44,3.43,3.42,3.43
36.33,-6.01,-9.43,-6.01,-9.42,9.42,9.27,11.25,3.41,3.41,3.42
36.70,-5.95,-9.36,-5.95,-9.36,9.36,9.21,11.06,3.41,3.40,3.41
37.06,-5.90,-9.30,-5.90,-9.30,9.30,9.15,10.86,3.40,3.40,3.40
37.43,-5.85,-9.24,-5.85,-9.23,9.24,9.09,10.68,3.39,3.39,3.39
37.81,-5.79,-9.17,-5.80,-9.18,9.18,9.03,10.49,3.39,3.38,3.38
38.19,-5.76,-9.13,-5.75,-9.12,9.12,8.97,10.30,3.36,3.37,3.37
38.57,-5.71,-9.07,-5.71,-9.06,9.06,8.92,10.12,3.35,3.35,3.36
38.95,-5.65,-9.00,-5.66,-9.01,9.00,8.86,9.95,3.35,3.34,3.35
39.34,-5.62,-8.95,-5.61,-8.94,8.94,8.80,9.78,3.32,3.33,3.33
39.74,-5.57,-8.89,-5.57,-8.88,8.89,8.74,9.61,3.31,3.32,3.32
40.14,-5.51,-8.82,-5.52,-8.83,8.83,8.68,9.45,3.31,3.31,3.31
40.54,-5.47,-8.77,-5.47,-8.77,8.77,8.63,9.29,3.30,3.30,3.30
40.94,-5.43,-8.72,-5.43,-8.71,8.71,8.57,9.14,3.28,3.29,3.29
41.35,-5.37,-8.65,-5.38,-8.66,8.66,8.51,8.99,3.29,3.28,3.28
41.76,-5.34,-8.61,-5.34,-8.60,8.60,8.45,8.85,3.26,3.27,3.27
42.18,-5.29,-8.55,-5.29,-8.55,8.55,8.39,8.72,3.25,3.25,3.26
42.60,-5.24,-8.49,-5.25,-8.49,8.49,8.34,8.59,3.25,3.24,3.25
43.03,-5.20,-8.44,-5.20,-8.43,8.43,8.28,8.47,3.23,3.23,3.24
43.46,-5.15,-8.37,-5.15,-8.37,8.37,8.22,8.35,3.22,3.21,3.22
43.90,-5.11,-8.31,-5.11,-8.31,8.31,8.16,8.24,3.19,3.19,3.20
44.33,-5.06,-8.24,-5.07,-8.24,8.24,8.10,8.13,3.18,3.18,3.18
44.78,-5.03,-8.19,-5.02,-8.18,8.18,8.05,8.03,3.15,3.16,3.16
45.23,-4.97,-8.11,-4.98,-8.12,8.12,7.99,7.93,3.15,3.14,3.14
45.68,-4.94,-8.07,-4.94,-8.06,8.07,7.93,7.84,3.12,3.13,3.13
46.13,-4.89,-8.00,-4.90,-8.01,8.01,7.87,7.76,3.12,3.11,3.11
46.60,-4.86,-7.96,-4.86,-7.95,7.95,7.82,7.68,3.09,3.09,3.10
47.06,-4.82,-7.90,-4.82,-7.89,7.89,7.76,7.60,3.07,3.07,3.08
47.53,-4.77,-7.83,-4.78,-7.84,7.83,7.70,7.53,3.06,3.05,3.06
48.01,-4.74,-7.79,-4.74,-7.78,7.77,7.64,7.47,3.03,3.03,3.05
48.49,-4.70,-7.72,-4.70,-7.72,7.71,7.58,7.41,3.01,3.01,3.02
48.97,-4.66,-7.65,-4.66,-7.65,7.65,7.53,7.35,2.99,2.98,2.99
49.46,-4.62,-7.58,-4.62,-7.58,7.58,7.47,7.30,2.96,2.96,2.96
49.96,-4.58,-7.51,-4.58,-7.51,7.52,7.41,7.25,2.94,2.93,2.93
50.46,-4.54,-7.45,-4.55,-7.45,7.45,7.35,7.20,2.91,2.91,2.91
50.96,-4.51,-7.40,-4.51,-7.39,7.39,7.30,7.16,2.88,2.88,2.89
51.47,-4.47,-7.33,-4.47,-7.33,7.33,7.24,7.12,2.86,2.86,2.86
51.99,-4.42,-7.26,-4.43,-7.27,7.27,7.18,7.08,2.85,2.84,2.84
52.51,-4.39,-7.21,-4.39,-7.21,7.21,7.12,7.05,2.82,2.81,2.82
53.03,-4.36,-7.16,-4.36,-7.15,7.15,7.06,7.02,2.79,2.79,2.80
53.56,-4.33,-7.10,-4.33,-7.09,7.09,7.00,6.99,2.76,2.76,2.77
54.10,-4.28,-7.03,-4.29,-7.03,7.03,6.95,6.96,2.75,2.74,2.75
54.64,-4.24,-6.96,-4.25,-6.97,6.97,6.89,6.93,2.73,2.72,2.72
55.18,-4.21,-6.91,-4.21,-6.90,6.91,6.83,6.90,2.69,2.70,2.70
55.74,-4.18,-6.85,-4.18,-6.85,6.85,6.77,6.87,2.66,2.67,2.67
56.29,-4.14,-6.79,-4.14,-6.79,6.79,6.71,6.84,2.64,2.64,2.65
56.86,-4.10,-6.73,-4.10,-6.72,6.73,6.65,6.81,2.62,2.62,2.63
57.42,-4.06,-6.66,-4.07,-6.67,6.67,6.59,6.78,2.61,2.60,2.60
58.00,-4.03,-6.61,-4.03,-6.61,6.61,6.53,6.75,2.58,2.58,2.58
58.58,-4.00,-6.56,-3.99,-6.55,6.56,6.48,6.71,2.55,2.56,2.56
59.16,-3.95,-6.49,-3.96,-6.50,6.50,6.42,6.67,2.54,2.53,2.54
59.76,-3.93,-6.45,-3.93,-6.45,6.44,6.36,6.63,2.50,2.50,2.52
60.35,-3.91,-6.40,-3.90,-6.39,6.37,6.30,6.59,2.46,2.48,2.49
60.96,-3.86,-6.32,-3.87,-6.32,6.31,6.24,6.54,2.45,2.45,2.46
61.57,-3.82,-6.24,-3.83,-6.25,6.25,6.18,6.49,2.43,2.42,2.42
62.18,-3.79,-6.18,-3.79,-6.18,6.19,6.12,6.43,2.40,2.40,2.39
62.80,-3.77,-6.13,-3.76,-6.12,6.13,6.06,6.37,2.35,2.36,2.36
63.43,-3.73,-6.06,-3.74,-6.06,6.06,6.00,6.31,2.33,2.33,2.33
64.07,-3.70,-6.00,-3.70,-6.00,6.00,5.94,6.24,2.30,2.30,2.30
64.71,-3.67,-5.95,-3.67,-5.95,5.94,5.88,6.17,2.27,2.27,2.28
65.35,-3.64,-5.89,-3.65,-5.89,5.89,5.82,6.10,2.24,2.24,2.25
66.01,-3.63,-5.85,-3.62,-5.83,5.83,5.76,6.02,2.20,2.21,2.22
66.67,-3.58,-5.77,-3.59,-5.77,5.77,5.70,5.94,2.19,2.18,2.19
67.33,-3.54,-5.70,-3.55,-5.71,5.71,5.63,5.85,2.17,2.16,2.16
68.01,-3.53,-5.66,-3.52,-5.65,5.65,5.57,5.77,2.12,2.13,2.13
68.69,-3.49,-5.59,-3.50,-5.59,5.60,5.51,5.68,2.10,2.10,2.10
69.37,-3.47,-5.54,-3.47,-5.54,5.54,5.45,5.58,2.06,2.07,2.07
70.07,-3.44,-5.48,-3.44,-5.48,5.48,5.39,5.49,2.03,2.03,2.04
70.77,-3.41,-5.42,-3.41,-5.42,5.42,5.33,5.39,2.00,2.00,2.01
71.48,-3.39,-5.37,-3.39,-5.36,5.36,5.27,5.30,1.97,1.97,1.98
72.19,-3.35,-5.29,-3.36,-5.30,5.30,5.20,5.20,1.95,1.94,1.94
72.91,-3.34,-5.25,-3.33,-5.24,5.24,5.14,5.10,1.89,1.90,1.91
73.64,-3.30,-5.17,-3.31,-5.17,5.18,5.08,5.00,1.87,1.87,1.87
74.38,-3.28,-5.12,-3.28,-5.11,5.11,5.02,4.90,1.83,1.84,1.84
75.12,-3.25,-5.05,-3.25,-5.05,5.05,4.95,4.80,1.80,1.80,1.80
75.87,-3.22,-4.99,-3.23,-4.99,4.99,4.89,4.71,1.77,1.77,1.77
76.63,-3.21,-4.95,-3.20,-4.94,4.94,4.83,4.61,1.72,1.73,1.74
77.40,-3.16,-4.87,-3.17,-4.88,4.88,4.76,4.51,1.72,1.70,1.71
78.17,-3.16,-4.83,-3.15,-4.82,4.82,4.70,4.42,1.66,1.67,1.67
78.95,-3.11,-4.75,-3.12,-4.76,4.76,4.64,4.33,1.65,1.64,1.64
79.74,-3.11,-4.72,-3.10,-4.71,4.70,4.57,4.24,1.59,1.60,1.61
80.54,-3.07,-4.64,-3.08,-4.65,4.64,4.51,4.15,1.57,1.57,1.57
81.35,-3.05,-4.59,-3.05,-4.58,4.58,4.45,4.06,1.53,1.53,1.54
82.16,-3.02,-4.52,-3.02,-4.52,4.52,4.38,3.98,1.50,1.50,1.50
82.98,-2.98,-4.45,-2.99,-4.46,4.46,4.32,3.90,1.48,1.46,1.47
83.81,-2.98,-4.41,-2.97,-4.40,4.40,4.25,3.81,1.41,1.43,1.43
84.65,-2.93,-4.32,-2.94,-4.33,4.33,4.19,3.74,1.40,1.39,1.39
85.50,-2.93,-4.29,-2.92,-4.27,4.27,4.13,3.66,1.34,1.35,1.36
86.35,-2.88,-4.20,-2.89,-4.21,4.21,4.06,3.59,1.33,1.32,1.32
87.22,-2.88,-4.16,-2.87,-4.15,4.15,4.00,3.52,1.27,1.28,1.28
88.09,-2.84,-4.08,-2.85,-4.09,4.09,3.93,3.45,1.25,1.24,1.24
88.97,-2.84,-4.04,-2.84,-4.03,4.03,3.87,3.38,1.19,1.19,1.20
89.86,-2.83,-3.99,-2.82,-3.97,3.97,3.80,3.32,1.14,1.15,1.16
90.76,-2.79,-3.90,-2.81,-3.92,3.91,3.74,3.26,1.12,1.10,1.11
91.66,-2.79,-3.86,-2.79,-3.85,3.85,3.67,3.20,1.06,1.06,1.07
92.58,-2.79,-3.81,-2.77,-3.79,3.79,3.61,3.14,1.00,1.02,1.02
93.51,-2.74,-3.72,-2.76,-3.74,3.73,3.54,3.08,0.99,0.97,0.98
94.44,-2.74,-3.68,-2.74,-3.68,3.68,3.48,3.03,0.93,0.93,0.94
95.39,-2.74,-3.63,-2.73,-3.61,3.62,3.41,2.98,0.87,0.89,0.89
96.34,-2.71,-3.55,-2.72,-3.55,3.56,3.34,2.93,0.85,0.84,0.84
97.30,-2.70,-3.49,-2.71,-3.49,3.50,3.28,2.88,0.80,0.79,0.79
98.28,-2.70,-3.44,-2.70,-3.44,3.44,3.21,2.84,0.74,0.74,0.74
99.26,-2.70,-3.40,-2.70,-3.39,3.38,3.15,2.80,0.68,0.69,0.70
100.25,-2.69,-3.34,-2.68,-3.33,3.32,3.08,2.75,0.63,0.64,0.65
101.25,-2.65,-3.25,-2.67,-3.26,3.26,3.02,2.71,0.61,0.60,0.60
102.27,-2.65,-3.20,-2.66,-3.20,3.20,2.95,2.68,0.55,0.55,0.55
103.29,-2.65,-3.15,-2.64,-3.14,3.14,2.89,2.64,0.49,0.50,0.50
104.32,-2.63,-3.09,-2.63,-3.08,3.08,2.82,2.60,0.45,0.45,0.46
105.37,-2.60,-3.01,-2.62,-3.02,3.02,2.75,2.57,0.42,0.40,0.41
106.42,-2.60,-2.96,-2.60,-2.96,2.96,2.69,2.53,0.36,0.36,0.36
107.48,-2.60,-2.91,-2.59,-2.89,2.90,2.62,2.50,0.29,0.31,0.31
108.56,-2.57,-2.83,-2.58,-2.84,2.83,2.56,2.47,0.26,0.25,0.26
109.64,-2.56,-2.77,-2.57,-2.77,2.77,2.49,2.43,0.21,0.20,0.21
110.74,-2.56,-2.72,-2.55,-2.70,2.70,2.43,2.40,0.14,0.16,0.16
111.85,-2.52,-2.63,-2.54,-2.64,2.63,2.36,2.37,0.11,0.10,0.11
112.97,-2.51,-2.56,-2.52,-2.57,2.56,2.30,2.34,0.05,0.05,0.05
114.10,-2.51,-2.51,-2.50,-2.49,2.49,2.23,2.31,-0.02,-0.00,-0.00
115.24,-2.47,-2.41,-2.48,-2.42,2.42,2.17,2.28,-0.05,-0.06,-0.06
116.39,-2.46,-2.35,-2.46,-2.35,2.35,2.11,2.24,-0.11,-0.11,-0.11
117.55,-2.45,-2.28,-2.45,-2.27,2.28,2.04,2.21,-0.17,-0.17,-0.17
118.73,-2.42,-2.20,-2.43,-2.21,2.21,1.98,2.18,-0.21,-0.22,-0.22
119.92,-2.42,-2.15,-2.41,-2.13,2.14,1.91,2.14,-0.28,-0.27,-0.27
121.12,-2.38,-2.06,-2.39,-2.07,2.07,1.85,2.11,-0.31,-0.33,-0.32
122.33,-2.37,-2.00,-2.38,-2.00,2.00,1.79,2.07,-0.37,-0.38,-0.37
123.55,-2.37,-1.95,-2.36,-1.93,1.93,1.73,2.04,-0.44,-0.43,-0.42
124.79,-2.32,-1.85,-2.34,-1.86,1.86,1.66,2.00,-0.46,-0.48,-0.47
126.03,-2.32,-1.80,-2.31,-1.79,1.79,1.60,1.96,-0.53,-0.53,-0.52
127.29,-2.28,-1.71,-2.29,-1.72,1.72,1.54,1.92,-0.57,-0.58,-0.57
128.57,-2.28,-1.65,-2.28,-1.65,1.65,1.48,1.88,-0.64,-0.63,-0.63
129.85,-2.26,-1.58,-2.26,-1.58,1.58,1.42,1.84,-0.69,-0.68,-0.68
131.15,-2.23,-1.50,-2.24,-1.51,1.51,1.36,1.79,-0.73,-0.73,-0.73
132.46,-2.23,-1.45,-2.22,-1.44,1.44,1.30,1.75,-0.79,-0.78,-0.78
133.79,-2.18,-1.36,-2.20,-1.37,1.37,1.24,1.70,-0.81,-0.83,-0.82
135.12,-2.18,-1.31,-2.18,-1.30,1.30,1.18,1.66,-0.88,-0.87,-0.87
136.48,-2.15,-1.24,-2.16,-1.24,1.24,1.12,1.61,-0.91,-0.92,-0.91
137.84,-2.14,-1.18,-2.14,-1.18,1.17,1.06,1.56,-0.97,-0.97,-0.96
139.22,-2.13,-1.12,-2.12,-1.11,1.11,1.00,1.51,-1.02,-1.01,-1.01
140.61,-2.09,-1.04,-2.10,-1.05,1.05,0.95,1.46,-1.04,-1.05,-1.05
142.02,-2.09,-1.01,-2.08,-0.99,0.99,0.89,1.41,-1.10,-1.08,-1.08
143.44,-2.04,-0.92,-2.06,-0.93,0.94,0.83,1.36,-1.10,-1.12,-1.12
144.87,-2.04,-0.88,-2.04,-0.88,0.88,0.78,1.30,-1.16,-1.16,-1.16
146.32,-2.04,-0.84,-2.02,-0.82,0.83,0.72,1.25,-1.21,-1.20,-1.20
147.78,-2.00,-0.77,-2.02,-0.78,0.77,0.67,1.20,-1.23,-1.25,-1.23
149.26,-2.00,-0.73,-2.00,-0.73,0.72,0.61,1.14,-1.28,-1.28,-1.27
150.75,-2.00,-0.69,-1.98,-0.67,0.67,0.56,1.09,-1.33,-1.31,-1.31
152.26,-1.95,-0.60,-1.97,-0.62,0.61,0.51,1.04,-1.34,-1.36,-1.35
153.78,-1.95,-0.56,-1.95,-0.56,0.56,0.46,0.98,-1.39,-1.39,-1.39
155.32,-1.95,-0.52,-1.93,-0.50,0.50,0.41,0.93,-1.45,-1.43,-1.43
156.88,-1.90,-0.43,-1.92,-0.45,0.45,0.36,0.87,-1.46,-1.48,-1.47
158.44,-1.90,-0.39,-1.90,-0.39,0.39,0.31,0.82,-1.51,-1.51,-1.51
160.03,-1.90,-0.35,-1.89,-0.33,0.33,0.26,0.77,-1.57,-1.55,-1.55
161.63,-1.86,-0.27,-1.87,-0.28,0.28,0.21,0.71,-1.58,-1.60,-1.59
163.24,-1.86,-0.23,-1.85,-0.22,0.22,0.16,0.66,-1.64,-1.63,-1.63
164.88,-1.82,-0.16,-1.83,-0.16,0.16,0.12,0.60,-1.66,-1.67,-1.66
166.53,-1.81,-0.11,-1.82,-0.11,0.11,0.07,0.55,-1.70,-1.71,-1.70
168.19,-1.81,-0.07,-1.80,-0.05,0.05,0.03,0.49,-1.76,-1.74,-1.74
169.87,-1.77,0.01,-1.79,-0.00,0.00,-0.02,0.44,-1.77,-1.79,-1.78
171.57,-1.76,0.06,-1.77,0.06,-0.05,-0.06,0.39,-1.82,-1.82,-1.82
173.29,-1.76,0.09,-1.75,0.11,-0.11,-0.10,0.33,-1.87,-1.85,-1.85
175.02,-1.72,0.17,-1.74,0.16,-0.16,-0.14,0.28,-1.88,-1.90,-1.89
176.77,-1.72,0.21,-1.72,0.21,-0.21,-0.18,0.22,-1.94,-1.94,-1.93
178.54,-1.72,0.25,-1.70,0.27,-0.27,-0.22,0.17,-1.99,-1.97,-1.97
180.32,-1.68,0.33,-1.70,0.32,-0.32,-0.26,0.12,-2.00,-2.02,-2.01
182.13,-1.67,0.37,-1.68,0.37,-0.37,-0.30,0.06,-2.04,-2.05,-2.04
183.95,-1.67,0.41,-1.66,0.43,-0.42,-0.33,0.01,-2.09,-2.08,-2.08
185.79,-1.63,0.48,-1.64,0.48,-0.47,-0.37,-0.05,-2.10,-2.11,-2.11
187.65,-1.62,0.53,-1.63,0.52,-0.52,-0.41,-0.10,-2.14,-2.15,-2.15
189.52,-1.62,0.56,-1.62,0.57,-0.56,-0.44,-0.15,-2.19,-2.18,-2.18
191.42,-1.62,0.59,-1.61,0.61,-0.61,-0.47,-0.21,-2.23,-2.22,-2.21
193.33,-1.58,0.66,-1.60,0.65,-0.65,-0.50,-0.26,-2.23,-2.25,-2.24
195.27,-1.58,0.69,-1.59,0.69,-0.69,-0.53,-0.31,-2.27,-2.28,-2.27
197.22,-1.58,0.72,-1.57,0.73,-0.73,-0.56,-0.37,-2.31,-2.30,-2.30
199.19,-1.57,0.76,-1.56,0.77,-0.77,-0.59,-0.42,-2.34,-2.33,-2.33
201.18,-1.53,0.82,-1.55,0.81,-0.80,-0.62,-0.47,-2.34,-2.35,-2.35
203.19,-1.53,0.84,-1.54,0.84,-0.84,-0.65,-0.53,-2.37,-2.37,-2.37
205.23,-1.53,0.86,-1.52,0.87,-0.87,-0.67,-0.58,-2.40,-2.39,-2.39
207.28,-1.51,0.89,-1.51,0.90,-0.90,-0.70,-0.63,-2.42,-2.41,-2.40
209.35,-1.48,0.94,-1.50,0.93,-0.93,-0.72,-0.68,-2.41,-2.43,-2.42
211.44,-1.48,0.96,-1.48,0.96,-0.96,-0.75,-0.73,-2.44,-2.44,-2.44
213.56,-1.48,0.97,-1.47,0.99,-0.98,-0.77,-0.78,-2.46,-2.45,-2.45
215.69,-1.44,1.01,-1.46,1.00,-1.00,-0.79,-0.82,-2.44,-2.46,-2.45
217.85,-1.44,1.02,-1.45,1.02,-1.02,-0.81,-0.87,-2.46,-2.47,-2.46
220.03,-1.44,1.03,-1.44,1.03,-1.04,-0.83,-0.91,-2.48,-2.48,-2.47
222.23,-1.44,1.04,-1.43,1.05,-1.05,-0.85,-0.96,-2.50,-2.48,-2.48
224.45,-1.41,1.07,-1.42,1.07,-1.07,-0.87,-1.00,-2.48,-2.48,-2.48
226.70,-1.39,1.09,-1.40,1.08,-1.08,-0.88,-1.04,-2.47,-2.48,-2.48
228.96,-1.39,1.09,-1.39,1.09,-1.09,-0.90,-1.07,-2.48,-2.48,-2.48
231.25,-1.39,1.08,-1.39,1.09,-1.10,-0.91,-1.11,-2.49,-2.48,-2.47
233.57,-1.38,1.09,-1.37,1.10,-1.11,-0.92,-1.14,-2.49,-2.48,-2.47
235.90,-1.34,1.13,-1.36,1.11,-1.11,-0.94,-1.17,-2.45,-2.47,-2.47
238.26,-1.34,1.12,-1.35,1.12,-1.12,-0.95,-1.20,-2.46,-2.46,-2.46
240.64,-1.34,1.11,-1.34,1.12,-1.12,-0.96,-1.23,-2.46,-2.45,-2.45
243.05,-1.34,1.10,-1.33,1.12,-1.12,-0.97,-1.25,-2.46,-2.45,-2.44
245.48,-1.30,1.13,-1.32,1.12,-1.12,-0.98,-1.27,-2.42,-2.43,-2.43
247.93,-1.30,1.12,-1.30,1.12,-1.11,-0.99,-1.28,-2.42,-2.42,-2.42
250.41,-1.30,1.11,-1.30,1.11,-1.11,-0.99,-1.30,-2.41,-2.41,-2.41
252.92,-1.30,1.09,-1.30,1.10,-1.10,-1.00,-1.31,-2.41,-2.40,-2.39
255.45,-1.30,1.07,-1.29,1.09,-1.10,-1.00,-1.32,-2.40,-2.38,-2.37
258.00,-1.25,1.11,-1.27,1.09,-1.09,-1.01,-1.32,-2.34,-2.36,-2.36
260.58,-1.25,1.09,-1.25,1.09,-1.08,-1.01,-1.32,-2.33,-2.33,-2.34
263.19,-1.25,1.07,-1.25,1.08,-1.07,-1.01,-1.32,-2.32,-2.32,-2.32
265.82,-1.25,1.05,-1.25,1.05,-1.06,-1.01,-1.32,-2.31,-2.31,-2.30
268.48,-1.25,1.03,-1.25,1.04,-1.05,-1.01,-1.31,-2.30,-2.30,-2.28
271.16,-1.24,1.02,-1.24,1.03,-1.04,-1.01,-1.31,-2.28,-2.27,-2.26
273.87,-1.21,1.03,-1.22,1.02,-1.02,-1.01,-1.30,-2.23,-2.24,-2.24
276.61,-1.20,1.02,-1.21,1.02,-1.01,-1.01,-1.28,-2.21,-2.21,-2.22
279.38,-1.20,1.00,-1.20,1.00,-1.00,-1.01,-1.27,-2.20,-2.20,-2.20
282.17,-1.20,0.98,-1.21,0.98,-0.99,-1.00,-1.25,-2.19,-2.19,-2.18
284.99,-1.20,0.96,-1.20,0.96,-0.97,-1.00,-1.24,-2.18,-2.17,-2.16
287.84,-1.20,0.94,-1.19,0.96,-0.96,-0.99,-1.22,-2.16,-2.15,-2.14
290.72,-1.16,0.96,-1.18,0.95,-0.95,-0.98,-1.20,-2.11,-2.12,-2.12
293.63,-1.16,0.94,-1.16,0.94,-0.93,-0.98,-1.18,-2.09,-2.10,-2.10
296.57,-1.16,0.92,-1.16,0.93,-0.92,-0.97,-1.16,-2.08,-2.08,-2.08
299.53,-1.16,0.90,-1.17,0.90,-0.90,-0.96,-1.14,-2.07,-2.07,-2.06
302.53,-1.16,0.88,-1.16,0.88,-0.89,-0.95,-1.12,-2.05,-2.05,-2.04
305.55,-1.16,0.85,-1.15,0.87,-0.87,-0.93,-1.10,-2.04,-2.02,-2.01
308.61,-1.11,0.88,-1.13,0.86,-0.86,-0.92,-1.07,-1.97,-1.98,-1.99
311.69,-1.11,0.85,-1.11,0.85,-0.84,-0.91,-1.05,-1.95,-1.95,-1.96
314.81,-1.11,0.82,-1.11,0.83,-0.82,-0.89,-1.03,-1.94,-1.93,-1.93
317.96,-1.11,0.80,-1.12,0.80,-0.81,-0.88,-1.01,-1.92,-1.93,-1.91
321.14,-1.11,0.78,-1.11,0.78,-0.80,-0.86,-0.99,-1.91,-1.91,-1.89
324.35,-1.11,0.76,-1.10,0.78,-0.78,-0.84,-0.97,-1.89,-1.88,-1.87
327.59,-1.07,0.78,-1.08,0.77,-0.77,-0.82,-0.95,-1.84,-1.85,-1.85
330.87,-1.06,0.77,-1.07,0.77,-0.75,-0.81,-0.93,-1.82,-1.82,-1.83
334.18,-1.06,0.75,-1.06,0.76,-0.74,-0.79,-0.91,-1.81,-1.80,-1.81
337.52,-1.06,0.73,-1.07,0.73,-0.73,-0.77,-0.89,-1.80,-1.80,-1.79
340.90,-1.06,0.71,-1.06,0.71,-0.72,-0.75,-0.87,-1.79,-1.78,-1.77
344.30,-1.06,0.69,-1.05,0.71,-0.71,-0.73,-0.85,-1.77,-1.76,-1.75
347.75,-1.02,0.71,-1.04,0.70,-0.70,-0.71,-0.83,-1.72,-1.73,-1.73
351.23,-1.02,0.69,-1.02,0.69,-0.68,-0.69,-0.82,-1.70,-1.71,-1.71
354.74,-1.02,0.67,-1.02,0.68,-0.67,-0.67,-0.80,-1.69,-1.69,-1.69
358.28,-1.02,0.66,-1.02,0.66,-0.66,-0.65,-0.79,-1.68,-1.68,-1.68
361.87,-1.02,0.64,-1.03,0.64,-0.65,-0.64,-0.77,-1.67,-1.68,-1.66
365.49,-1.02,0.62,-1.02,0.63,-0.64,-0.62,-0.76,-1.66,-1.66,-1.64
369.14,-1.02,0.61,-1.01,0.63,-0.63,-0.61,-0.75,-1.65,-1.63,-1.63
372.83,-0.97,0.64,-0.99,0.63,-0.62,-0.60,-0.74,-1.59,-1.61,-1.61
376.56,-0.97,0.63,-0.97,0.63,-0.62,-0.59,-0.72,-1.59,-1.59,-1.60
380.33,-0.97,0.61,-0.97,0.62,-0.61,-0.58,-0.71,-1.59,-1.58,-1.58
384.13,-0.97,0.60,-0.97,0.60,-0.61,-0.58,-0.70,-1.58,-1.58,-1.57
387.97,-0.97,0.59,-0.96,0.60,-0.61,-0.57,-0.69,-1.58,-1.57,-1.56
391.85,-0.93,0.62,-0.94,0.61,-0.61,-0.57,-0.69,-1.54,-1.55,-1.55
395.77,-0.92,0.61,-0.93,0.61,-0.60,-0.57,-0.68,-1.53,-1.53,-1.53
399.73,-0.92,0.60,-0.92,0.60,-0.60,-0.57,-0.67,-1.52,-1.52,-1.52
403.72,-0.92,0.59,-0.92,0.60,-0.60,-0.57,-0.66,-1.52,-1.52,-1.51
407.76,-0.91,0.59,-0.91,0.60,-0.60,-0.57,-0.66,-1.51,-1.51,-1.50
411.84,-0.88,0.61,-0.89,0.60,-0.60,-0.57,-0.65,-1.48,-1.49,-1.49
415.96,-0.88,0.60,-0.89,0.60,-0.60,-0.58,-0.64,-1.48,-1.49,-1.48
420.12,-0.88,0.59,-0.88,0.60,-0.60,-0.58,-0.64,-1.48,-1.48,-1.47
424.32,-0.88,0.58,-0.87,0.60,-0.60,-0.59,-0.64,-1.48,-1.47,-1.46
428.56,-0.83,0.62,-0.85,0.61,-0.60,-0.59,-0.63,-1.43,-1.45,-1.45
432.85,-0.83,0.61,-0.83,0.61,-0.60,-0.59,-0.63,-1.43,-1.43,-1.44
437.18,-0.83,0.60,-0.83,0.60,-0.59,-0.60,-0.62,-1.43,-1.42,-1.43
441.55,-0.83,0.58,-0.84,0.58,-0.59,-0.60,-0.62,-1.42,-1.43,-1.41
445.96,-0.83,0.57,-0.83,0.58,-0.59,-0.60,-0.62,-1.42,-1.41,-1.40
450.42,-0.82,0.57,-0.81,0.58,-0.58,-0.60,-0.61,-1.40,-1.39,-1.39
454.93,-0.78,0.59,-0.80,0.58,-0.58,-0.61,-0.61,-1.36,-1.37,-1.37
459.48,-0.78,0.58,-0.79,0.58,-0.57,-0.61,-0.60,-1.36,-1.36,-1.36
