frequency,raw,error,smoothed,error_smoothed,equalization,parametric_eq,fixed_band_eq,equalized_raw,equalized_smoothed,target
20.00,-1.39,-6.10,-1.40,-6.13,6.13,5.06,1.85,4.74,4.73,4.71
20.20,-1.35,-6.06,-1.35,-6.08,6.08,5.05,1.90,4.73,4.73,4.71
20.40,-1.31,-6.02,-1.31,-6.02,6.02,5.04,1.96,4.72,4.72,4.71
20.61,-1.27,-5.98,-1.26,-5.97,5.97,5.02,2.02,4.70,4.71,4.71
20.81,-1.22,-5.93,-1.21,-5.91,5.91,5.01,2.08,4.70,4.70,4.71
21.02,-1.18,-5.89,-1.17,-5.85,5.85,5.00,2.14,4.68,4.69,4.71
21.23,-1.12,-5.81,-1.12,-5.80,5.80,4.98,2.21,4.68,4.67,4.69
21.44,-1.08,-5.75,-1.07,-5.74,5.74,4.97,2.27,4.66,4.66,4.68
21.66,-1.03,-5.69,-1.03,-5.67,5.67,4.96,2.34,4.65,4.65,4.66
21.87,-0.99,-5.62,-0.98,-5.61,5.61,4.94,2.41,4.63,4.63,4.64
22.09,-0.93,-5.55,-0.93,-5.55,5.55,4.93,2.48,4.62,4.62,4.63
22.31,-0.89,-5.48,-0.89,-5.48,5.48,4.91,2.56,4.60,4.60,4.60
22.54,-0.84,-5.41,-0.84,-5.41,5.41,4.90,2.63,4.57,4.58,4.58
22.76,-0.79,-5.34,-0.79,-5.34,5.34,4.88,2.71,4.55,4.55,4.56
22.99,-0.74,-5.26,-0.74,-5.27,5.27,4.86,2.79,4.53,4.53,4.52
23.22,-0.70,-5.19,-0.69,-5.20,5.20,4.85,2.87,4.50,4.51,4.49
23.45,-0.64,-5.11,-0.64,-5.13,5.13,4.83,2.96,4.49,4.49,4.47
23.69,-0.60,-5.06,-0.59,-5.06,5.06,4.82,3.04,4.46,4.47,4.46
23.92,-0.54,-4.98,-0.54,-4.99,4.99,4.80,3.13,4.45,4.45,4.44
24.16,-0.49,-4.92,-0.49,-4.92,4.92,4.78,3.22,4.43,4.43,4.43
24.40,-0.45,-4.86,-0.44,-4.85,4.85,4.76,3.31,4.40,4.41,4.41
24.65,-0.40,-4.79,-0.39,-4.78,4.78,4.75,3.40,4.38,4.39,4.39
24.89,-0.35,-4.71,-0.34,-4.71,4.71,4.73,3.49,4.37,4.37,4.37
25.14,-0.30,-4.65,-0.30,-4.65,4.65,4.71,3.59,4.35,4.35,4.36
25.39,-0.25,-4.58,-0.25,-4.58,4.58,4.69,3.68,4.34,4.34,4.34
25.65,-0.20,-4.52,-0.20,-4.52,4.52,4.67,3.77,4.32,4.32,4.32
25.91,-0.16,-4.45,-0.15,-4.46,4.46,4.65,3.87,4.30,4.30,4.29
26.16,-0.11,-4.39,-0.11,-4.39,4.39,4.63,3.96,4.29,4.29,4.28
26.43,-0.06,-4.33,-0.06,-4.33,4.33,4.61,4.06,4.28,4.27,4.27
26.69,-0.02,-4.27,-0.02,-4.27,4.27,4.59,4.15,4.26,4.25,4.25
26.96,0.02,-4.22,0.02,-4.21,4.21,4.57,4.24,4.24,4.24,4.24
27.23,0.07,-4.15,0.07,-4.16,4.16,4.55,4.33,4.23,4.22,4.23
27.50,0.10,-4.11,0.11,-4.10,4.10,4.53,4.41,4.21,4.21,4.22
27.77,0.14,-4.05,0.14,-4.05,4.05,4.51,4.50,4.20,4.19,4.19
28.05,0.18,-4.00,0.18,-4.00,4.00,4.49,4.58,4.18,4.18,4.18
28.33,0.21,-3.95,0.22,-3.95,3.95,4.46,4.65,4.16,4.17,4.16
28.62,0.25,-3.90,0.25,-3.90,3.90,4.44,4.72,4.15,4.15,4.15
28.90,0.28,-3.85,0.29,-3.85,3.85,4.42,4.79,4.13,4.14,4.14
29.19,0.31,-3.80,0.32,-3.81,3.81,4.39,4.85,4.12,4.13,4.12
29.48,0.35,-3.76,0.35,-3.76,3.76,4.37,4.90,4.11,4.11,4.11
29.78,0.38,-3.72,0.38,-3.72,3.72,4.35,4.95,4.10,4.10,4.10
30.08,0.41,-3.68,0.41,-3.67,3.67,4.32,4.99,4.09,4.08,4.09
30.38,0.43,-3.64,0.43,-3.63,3.63,4.30,5.02,4.07,4.07,4.07
30.68,0.46,-3.59,0.46,-3.59,3.59,4.27,5.04,4.06,4.05,4.06
30.99,0.49,-3.54,0.48,-3.56,3.56,4.25,5.06,4.05,4.04,4.03
31.30,0.50,-3.52,0.50,-3.52,3.52,4.22,5.07,4.02,4.02,4.02
31.61,0.52,-3.49,0.51,-3.49,3.49,4.20,5.07,4.01,4.00,4.01
31.93,0.52,-3.46,0.53,-3.45,3.45,4.17,5.06,3.98,3.98,3.99
32.24,0.53,-3.42,0.54,-3.42,3.42,4.14,5.05,3.95,3.96,3.95
32.57,0.55,-3.39,0.55,-3.39,3.39,4.12,5.02,3.94,3.94,3.94
32.89,0.55,-3.37,0.56,-3.36,3.36,4.09,5.00,3.92,3.92,3.93
33.22,0.56,-3.33,0.57,-3.33,3.33,4.06,4.96,3.90,3.90,3.89
33.55,0.56,-3.32,0.57,-3.31,3.31,4.04,4.92,3.87,3.88,3.88
33.89,0.57,-3.29,0.57,-3.29,3.29,4.01,4.87,3.86,3.86,3.86
34.23,0.57,-3.26,0.57,-3.26,3.26,3.98,4.82,3.84,3.84,3.84
34.57,0.57,-3.24,0.57,-3.24,3.24,3.95,4.76,3.82,3.81,3.81
34.92,0.57,-3.21,0.57,-3.22,3.22,3.92,4.70,3.80,3.79,3.79
35.27,0.57,-3.20,0.57,-3.21,3.21,3.89,4.63,3.78,3.77,3.77
35.62,0.56,-3.19,0.56,-3.19,3.19,3.86,4.56,3.75,3.75,3.75
35.97,0.55,-3.17,0.55,-3.18,3.18,3.83,4.49,3.73,3.73,3.73
36.33,0.55,-3.16,0.55,-3.16,3.16,3.80,4.42,3.71,3.71,3.71
36.70,0.53,-3.15,0.54,-3.15,3.15,3.77,4.34,3.68,3.69,3.69
37.06,0.52,-3.14,0.53,-3.14,3.14,3.74,4.26,3.66,3.66,3.66
37.43,0.51,-3.13,0.52,-3.13,3.13,3.71,4.19,3.64,3.64,3.65
37.81,0.50,-3.12,0.51,-3.11,3.11,3.67,4.11,3.62,3.62,3.62
38.19,0.49,-3.10,0.49,-3.10,3.10,3.64,4.04,3.60,3.60,3.60
38.57,0.47,-3.11,0.48,-3.09,3.09,3.61,3.96,3.57,3.58,3.58
38.95,0.47,-3.08,0.47,-3.09,3.09,3.57,3.89,3.56,3.56,3.56
39.34,0.46,-3.07,0.46,-3.08,3.08,3.54,3.81,3.54,3.54,3.53
39.74,0.45,-3.05,0.45,-3.07,3.07,3.51,3.74,3.52,3.52,3.51
40.14,0.43,-3.07,0.44,-3.06,3.06,3.47,3.67,3.49,3.50,3.50
40.54,0.42,-3.05,0.43,-3.05,3.05,3.44,3.60,3.47,3.48,3.47
40.94,0.42,-3.03,0.42,-3.04,3.04,3.40,3.53,3.46,3.46,3.46
41.35,0.40,-3.03,0.41,-3.03,3.03,3.37,3.47,3.43,3.44,3.43
41.76,0.40,-3.02,0.40,-3.02,3.02,3.33,3.41,3.42,3.42,3.42
42.18,0.38,-3.02,0.39,-3.01,3.01,3.30,3.35,3.39,3.40,3.40
42.60,0.37,-3.00,0.38,-3.00,3.00,3.26,3.29,3.37,3.38,3.38
43.03,0.36,-3.00,0.37,-2.98,2.98,3.22,3.23,3.35,3.35,3.37
43.46,0.36,-2.98,0.36,-2.97,2.97,3.19,3.18,3.33,3.33,3.34
43.90,0.36,-2.95,0.36,-2.96,2.96,3.15,3.13,3.32,3.32,3.31
44.33,0.35,-2.94,0.36,-2.94,2.94,3.11,3.08,3.29,3.30,3.29
44.78,0.34,-2.93,0.35,-2.92,2.92,3.08,3.03,3.27,3.28,3.27
45.23,0.35,-2.89,0.35,-2.90,2.90,3.04,2.99,3.26,3.25,3.24
45.68,0.34,-2.88,0.35,-2.88,2.88,3.00,2.95,3.23,3.23,3.22
46.13,0.35,-2.85,0.35,-2.86,2.86,2.96,2.91,3.22,3.21,3.20
46.60,0.35,-2.84,0.35,-2.84,2.84,2.92,2.88,3.19,3.19,3.19
47.06,0.35,-2.82,0.35,-2.81,2.81,2.88,2.84,3.17,3.16,3.17
47.53,0.35,-2.80,0.35,-2.79,2.79,2.84,2.81,3.14,3.14,3.15
48.01,0.35,-2.78,0.35,-2.76,2.76,2.80,2.78,3.12,3.12,3.14
48.49,0.35,-2.75,0.36,-2.74,2.74,2.76,2.75,3.09,3.09,3.10
48.97,0.36,-2.71,0.36,-2.71,2.71,2.72,2.73,3.07,3.07,3.07
49.46,0.36,-2.67,0.36,-2.68,2.68,2.68,2.70,3.05,3.05,3.04
49.96,0.36,-2.64,0.37,-2.65,2.65,2.64,2.68,3.02,3.02,3.00
50.46,0.37,-2.63,0.37,-2.62,2.62,2.60,2.66,3.00,3.00,3.00
50.96,0.38,-2.59,0.38,-2.59,2.59,2.55,2.64,2.98,2.97,2.97
51.47,0.38,-2.56,0.38,-2.56,2.56,2.51,2.62,2.94,2.94,2.94
51.99,0.39,-2.52,0.39,-2.53,2.53,2.47,2.61,2.92,2.92,2.91
52.51,0.39,-2.50,0.40,-2.49,2.49,2.43,2.59,2.89,2.89,2.90
53.03,0.40,-2.47,0.41,-2.46,2.46,2.38,2.58,2.86,2.86,2.87
53.56,0.41,-2.43,0.41,-2.42,2.42,2.34,2.56,2.84,2.84,2.84
54.10,0.43,-2.38,0.42,-2.39,2.39,2.30,2.55,2.82,2.81,2.81
54.64,0.42,-2.36,0.43,-2.35,2.35,2.25,2.53,2.78,2.78,2.78
55.18,0.43,-2.32,0.44,-2.32,2.32,2.21,2.52,2.75,2.76,2.76
55.74,0.45,-2.27,0.45,-2.28,2.28,2.17,2.50,2.74,2.73,2.73
56.29,0.45,-2.25,0.46,-2.25,2.25,2.12,2.48,2.70,2.70,2.70
56.86,0.46,-2.21,0.46,-2.21,2.21,2.08,2.47,2.68,2.67,2.67
57.42,0.47,-2.17,0.47,-2.18,2.18,2.03,2.45,2.65,2.65,2.64
58.00,0.48,-2.13,0.48,-2.14,2.14,1.99,2.43,2.62,2.62,2.62
58.58,0.48,-2.10,0.48,-2.10,2.10,1.94,2.40,2.59,2.59,2.58
59.16,0.49,-2.07,0.49,-2.07,2.07,1.89,2.38,2.56,2.56,2.56
59.76,0.49,-2.04,0.49,-2.03,2.03,1.85,2.36,2.52,2.53,2.53
60.35,0.50,-2.00,0.50,-2.00,2.00,1.80,2.33,2.50,2.49,2.50
60.96,0.49,-1.99,0.50,-1.96,1.96,1.76,2.30,2.45,2.46,2.48
61.57,0.50,-1.93,0.51,-1.93,1.93,1.71,2.26,2.43,2.43,2.43
62.18,0.51,-1.88,0.51,-1.89,1.89,1.66,2.23,2.41,2.40,2.40
62.80,0.51,-1.85,0.51,-1.86,1.86,1.62,2.19,2.37,2.37,2.37
63.43,0.51,-1.81,0.51,-1.83,1.83,1.57,2.15,2.34,2.34,2.33
64.07,0.51,-1.78,0.51,-1.80,1.80,1.52,2.11,2.31,2.31,2.30
64.71,0.51,-1.76,0.51,-1.76,1.76,1.47,2.06,2.28,2.28,2.27
65.35,0.51,-1.73,0.51,-1.73,1.73,1.43,2.01,2.25,2.25,2.24
66.01,0.50,-1.71,0.51,-1.70,1.70,1.38,1.96,2.21,2.21,2.22
66.67,0.51,-1.67,0.51,-1.67,1.67,1.33,1.91,2.19,2.18,2.18
67.33,0.51,-1.64,0.51,-1.65,1.65,1.28,1.85,2.16,2.15,2.16
68.01,0.50,-1.62,0.51,-1.62,1.62,1.23,1.79,2.12,2.12,2.12
68.69,0.50,-1.59,0.50,-1.59,1.59,1.19,1.73,2.09,2.09,2.09
69.37,0.49,-1.56,0.50,-1.56,1.56,1.14,1.67,2.05,2.06,2.06
70.07,0.49,-1.53,0.49,-1.53,1.53,1.09,1.60,2.02,2.03,2.03
70.77,0.49,-1.50,0.49,-1.50,1.50,1.04,1.54,1.99,1.99,2.00
71.48,0.48,-1.47,0.48,-1.47,1.47,0.99,1.47,1.95,1.95,1.95
72.19,0.47,-1.45,0.48,-1.44,1.44,0.94,1.40,1.91,1.92,1.92
72.91,0.47,-1.41,0.47,-1.41,1.41,0.89,1.33,1.88,1.88,1.88
73.64,0.46,-1.37,0.46,-1.38,1.38,0.84,1.26,1.84,1.84,1.83
74.38,0.45,-1.35,0.45,-1.34,1.34,0.79,1.19,1.80,1.80,1.80
75.12,0.45,-1.29,0.44,-1.31,1.31,0.75,1.12,1.76,1.75,1.74
75.87,0.43,-1.27,0.43,-1.28,1.28,0.70,1.04,1.71,1.71,1.71
76.63,0.42,-1.25,0.42,-1.24,1.24,0.65,0.97,1.66,1.66,1.67
77.40,0.41,-1.21,0.42,-1.20,1.20,0.60,0.89,1.62,1.62,1.62
78.17,0.40,-1.16,0.41,-1.17,1.17,0.55,0.82,1.57,1.57,1.56
78.95,0.39,-1.14,0.39,-1.13,1.13,0.50,0.74,1.52,1.52,1.53
79.74,0.38,-1.09,0.39,-1.09,1.09,0.45,0.67,1.47,1.47,1.48
80.54,0.37,-1.05,0.38,-1.04,1.04,0.40,0.59,1.42,1.42,1.42
81.35,0.37,-1.00,0.37,-1.00,1.00,0.35,0.52,1.38,1.37,1.37
82.16,0.36,-0.95,0.36,-0.96,0.96,0.30,0.44,1.32,1.32,1.32
82.98,0.35,-0.92,0.35,-0.91,0.91,0.25,0.36,1.26,1.26,1.27
83.81,0.35,-0.85,0.35,-0.86,0.86,0.20,0.29,1.21,1.21,1.20
84.65,0.33,-0.81,0.34,-0.81,0.81,0.15,0.21,1.14,1.15,1.15
85.50,0.34,-0.75,0.34,-0.75,0.75,0.10,0.13,1.10,1.09,1.10
86.35,0.33,-0.71,0.34,-0.70,0.70,0.05,0.06,1.03,1.04,1.04
87.22,0.33,-0.65,0.34,-0.64,0.64,-0.00,-0.02,0.97,0.98,0.98
88.09,0.34,-0.58,0.34,-0.58,0.58,-0.05,-0.10,0.92,0.92,0.92
88.97,0.34,-0.52,0.34,-0.52,0.52,-0.10,-0.17,0.86,0.86,0.87
89.86,0.34,-0.46,0.35,-0.45,0.45,-0.15,-0.25,0.80,0.80,0.81
90.76,0.35,-0.38,0.35,-0.39,0.39,-0.20,-0.33,0.74,0.74,0.73
91.66,0.36,-0.32,0.36,-0.32,0.32,-0.25,-0.40,0.68,0.68,0.68
92.58,0.37,-0.23,0.37,-0.24,0.24,-0.30,-0.48,0.62,0.62,0.61
93.51,0.38,-0.18,0.38,-0.17,0.17,-0.35,-0.56,0.55,0.55,0.56
94.44,0.40,-0.09,0.40,-0.09,0.09,-0.40,-0.64,0.50,0.49,0.50
95.39,0.41,-0.02,0.41,-0.01,0.01,-0.45,-0.71,0.43,0.42,0.43
96.34,0.42,0.07,0.43,0.07,-0.07,-0.50,-0.79,0.35,0.36,0.36
97.30,0.43,0.14,0.44,0.15,-0.15,-0.54,-0.87,0.28,0.29,0.29
98.28,0.45,0.23,0.46,0.24,-0.24,-0.59,-0.95,0.22,0.22,0.22
99.26,0.47,0.33,0.47,0.32,-0.32,-0.64,-1.02,0.15,0.15,0.15
100.25,0.49,0.41,0.49,0.41,-0.41,-0.69,-1.10,0.08,0.08,0.08
101.25,0.51,0.50,0.51,0.50,-0.50,-0.74,-1.18,0.02,0.01,0.01
102.27,0.52,0.59,0.53,0.59,-0.59,-0.79,-1.25,-0.07,-0.06,-0.07
103.29,0.54,0.69,0.54,0.68,-0.68,-0.84,-1.33,-0.14,-0.14,-0.14
104.32,0.56,0.77,0.56,0.77,-0.77,-0.88,-1.40,-0.21,-0.21,-0.21
105.37,0.58,0.86,0.58,0.86,-0.86,-0.93,-1.48,-0.28,-0.28,-0.28
106.42,0.59,0.95,0.59,0.95,-0.95,-0.98,-1.55,-0.36,-0.36,-0.36
107.48,0.60,1.04,0.61,1.04,-1.04,-1.03,-1.63,-0.44,-0.44,-0.43
108.56,0.62,1.13,0.62,1.14,-1.14,-1.07,-1.70,-0.51,-0.51,-0.51
109.64,0.64,1.23,0.64,1.23,-1.23,-1.12,-1.77,-0.58,-0.59,-0.59
110.74,0.65,1.31,0.65,1.32,-1.32,-1.17,-1.83,-0.66,-0.67,-0.66
111.85,0.66,1.40,0.66,1.41,-1.41,-1.22,-1.90,-0.74,-0.74,-0.73
112.97,0.67,1.50,0.67,1.49,-1.49,-1.26,-1.96,-0.82,-0.82,-0.83
114.10,0.68,1.58,0.68,1.58,-1.58,-1.31,-2.02,-0.90,-0.90,-0.90
115.24,0.69,1.67,0.69,1.67,-1.67,-1.36,-2.08,-0.97,-0.97,-0.97
116.39,0.70,1.76,0.70,1.75,-1.75,-1.40,-2.14,-1.05,-1.05,-1.06
117.55,0.71,1.85,0.71,1.84,-1.84,-1.45,-2.19,-1.12,-1.13,-1.13
118.73,0.71,1.92,0.72,1.92,-1.92,-1.49,-2.24,-1.21,-1.20,-1.21
119.92,0.72,2.00,0.73,2.00,-2.00,-1.54,-2.29,-1.28,-1.28,-1.27
121.12,0.73,2.08,0.73,2.08,-2.08,-1.58,-2.33,-1.35,-1.35,-1.35
122.33,0.74,2.16,0.74,2.16,-2.16,-1.63,-2.38,-1.42,-1.42,-1.42
123.55,0.74,2.23,0.75,2.24,-2.24,-1.67,-2.41,-1.50,-1.49,-1.48
124.79,0.75,2.31,0.76,2.32,-2.32,-1.72,-2.45,-1.57,-1.56,-1.56
126.03,0.76,2.38,0.77,2.39,-2.39,-1.76,-2.48,-1.63,-1.63,-1.62
127.29,0.77,2.46,0.77,2.47,-2.47,-1.80,-2.50,-1.69,-1.69,-1.69
128.57,0.77,2.54,0.78,2.54,-2.54,-1.85,-2.53,-1.77,-1.76,-1.77
129.85,0.79,2.62,0.78,2.61,-2.61,-1.89,-2.55,-1.81,-1.82,-1.83
131.15,0.79,2.68,0.79,2.67,-2.67,-1.93,-2.56,-1.88,-1.88,-1.89
132.46,0.79,2.75,0.79,2.74,-2.74,-1.98,-2.58,-1.94,-1.94,-1.95
133.79,0.80,2.80,0.79,2.80,-2.80,-2.02,-2.59,-1.99,-2.00,-2.00
135.12,0.79,2.86,0.80,2.85,-2.85,-2.06,-2.60,-2.06,-2.06,-2.07
136.48,0.79,2.90,0.79,2.90,-2.90,-2.10,-2.61,-2.11,-2.11,-2.11
137.84,0.79,2.95,0.79,2.95,-2.95,-2.14,-2.61,-2.16,-2.16,-2.15
139.22,0.79,3.01,0.79,2.99,-2.99,-2.18,-2.61,-2.20,-2.21,-2.22
140.61,0.78,3.05,0.78,3.03,-3.03,-2.22,-2.62,-2.25,-2.25,-2.27
142.02,0.77,3.06,0.77,3.07,-3.07,-2.27,-2.62,-2.29,-2.30,-2.29
143.44,0.76,3.09,0.76,3.10,-3.10,-2.31,-2.62,-2.34,-2.34,-2.33
144.87,0.75,3.13,0.75,3.13,-3.13,-2.34,-2.61,-2.38,-2.38,-2.38
146.32,0.74,3.16,0.74,3.16,-3.16,-2.38,-2.61,-2.41,-2.42,-2.42
147.78,0.73,3.18,0.73,3.19,-3.19,-2.42,-2.61,-2.45,-2.45,-2.45
149.26,0.72,3.21,0.72,3.21,-3.21,-2.46,-2.61,-2.49,-2.49,-2.48
150.75,0.70,3.23,0.71,3.24,-3.24,-2.50,-2.61,-2.53,-2.53,-2.53
152.26,0.69,3.26,0.70,3.26,-3.26,-2.54,-2.61,-2.57,-2.56,-2.56
153.78,0.68,3.28,0.69,3.29,-3.29,-2.57,-2.61,-2.60,-2.60,-2.60
155.32,0.67,3.30,0.68,3.31,-3.31,-2.61,-2.61,-2.64,-2.63,-2.63
156.88,0.67,3.33,0.67,3.34,-3.34,-2.65,-2.61,-2.66,-2.67,-2.66
158.44,0.66,3.36,0.66,3.36,-3.36,-2.68,-2.61,-2.70,-2.70,-2.70
160.03,0.66,3.40,0.66,3.39,-3.39,-2.72,-2.62,-2.73,-2.73,-2.74
161.63,0.64,3.42,0.65,3.42,-3.42,-2.76,-2.62,-2.78,-2.77,-2.78
163.24,0.64,3.45,0.65,3.45,-3.45,-2.79,-2.63,-2.81,-2.80,-2.81
164.88,0.64,3.48,0.64,3.48,-3.48,-2.83,-2.64,-2.84,-2.84,-2.83
166.53,0.64,3.51,0.64,3.51,-3.51,-2.86,-2.65,-2.87,-2.87,-2.87
168.19,0.63,3.55,0.64,3.55,-3.55,-2.89,-2.66,-2.91,-2.91,-2.91
169.87,0.63,3.58,0.63,3.58,-3.58,-2.93,-2.68,-2.95,-2.95,-2.95
171.57,0.63,3.61,0.63,3.61,-3.61,-2.96,-2.70,-2.98,-2.98,-2.98
173.29,0.62,3.64,0.62,3.65,-3.65,-2.99,-2.72,-3.02,-3.02,-3.01
175.02,0.62,3.68,0.62,3.68,-3.68,-3.02,-2.74,-3.06,-3.06,-3.05
176.77,0.61,3.72,0.61,3.72,-3.72,-3.06,-2.76,-3.10,-3.10,-3.10
178.54,0.61,3.76,0.61,3.75,-3.75,-3.09,-2.79,-3.14,-3.14,-3.14
180.32,0.60,3.78,0.60,3.78,-3.78,-3.12,-2.81,-3.18,-3.18,-3.18
182.13,0.59,3.81,0.60,3.82,-3.82,-3.15,-2.84,-3.22,-3.22,-3.22
183.95,0.58,3.85,0.59,3.85,-3.85,-3.18,-2.88,-3.27,-3.26,-3.27
185.79,0.58,3.89,0.58,3.88,-3.88,-3.21,-2.91,-3.30,-3.30,-3.30
187.65,0.57,3.92,0.57,3.91,-3.91,-3.24,-2.95,-3.34,-3.34,-3.35
189.52,0.55,3.94,0.56,3.93,-3.93,-3.27,-2.99,-3.38,-3.38,-3.38
191.42,0.55,3.97,0.55,3.96,-3.96,-3.29,-3.03,-3.40,-3.41,-3.42
193.33,0.53,3.97,0.53,3.98,-3.98,-3.32,-3.07,-3.45,-3.45,-3.44
195.27,0.52,3.99,0.52,4.00,-4.00,-3.35,-3.11,-3.48,-3.48,-3.47
197.22,0.50,4.01,0.50,4.01,-4.01,-3.38,-3.16,-3.51,-3.51,-3.50
199.19,0.48,4.04,0.49,4.03,-4.03,-3.40,-3.21,-3.54,-3.54,-3.55
201.18,0.47,4.05,0.47,4.04,-4.04,-3.43,-3.25,-3.56,-3.57,-3.57
203.19,0.44,4.04,0.45,4.05,-4.05,-3.45,-3.30,-3.60,-3.60,-3.59
205.23,0.42,4.05,0.43,4.05,-4.05,-3.48,-3.35,-3.63,-3.62,-3.62
207.28,0.40,4.03,0.41,4.06,-4.06,-3.50,-3.41,-3.65,-3.65,-3.63
209.35,0.38,4.05,0.39,4.06,-4.06,-3.53,-3.46,-3.67,-3.67,-3.67
211.44,0.36,4.06,0.36,4.05,-4.05,-3.55,-3.51,-3.69,-3.69,-3.70
213.56,0.33,4.05,0.34,4.05,-4.05,-3.57,-3.56,-3.71,-3.71,-3.71
215.69,0.30,4.02,0.31,4.04,-4.04,-3.59,-3.61,-3.73,-3.73,-3.72
217.85,0.27,4.01,0.28,4.02,-4.02,-3.62,-3.67,-3.74,-3.74,-3.73
220.03,0.25,4.01,0.24,3.99,-3.99,-3.64,-3.72,-3.74,-3.75,-3.76
222.23,0.22,4.00,0.20,3.96,-3.96,-3.66,-3.77,-3.74,-3.76,-3.77
224.45,0.18,3.95,0.16,3.93,-3.93,-3.68,-3.81,-3.74,-3.77,-3.77
226.70,0.13,3.92,0.11,3.89,-3.89,-3.70,-3.86,-3.75,-3.78,-3.78
228.96,0.09,3.88,0.06,3.84,-3.84,-3.72,-3.90,-3.75,-3.78,-3.79
231.25,0.02,3.80,0.01,3.79,-3.79,-3.74,-3.94,-3.77,-3.78,-3.78
233.57,-0.03,3.74,-0.04,3.74,-3.74,-3.76,-3.98,-3.77,-3.78,-3.77
235.90,-0.09,3.68,-0.08,3.69,-3.69,-3.78,-4.01,-3.77,-3.77,-3.77
238.26,-0.14,3.64,-0.13,3.64,-3.64,-3.79,-4.04,-3.77,-3.76,-3.77
240.64,-0.20,3.56,-0.16,3.59,-3.59,-3.81,-4.07,-3.79,-3.75,-3.75
243.05,-0.23,3.52,-0.20,3.55,-3.55,-3.83,-4.10,-3.77,-3.74,-3.74
245.48,-0.26,3.47,-0.22,3.51,-3.51,-3.84,-4.12,-3.76,-3.73,-3.72
247.93,-0.28,3.44,-0.24,3.47,-3.47,-3.86,-4.13,-3.75,-3.71,-3.71
250.41,-0.28,3.43,-0.25,3.44,-3.44,-3.87,-4.14,-3.72,-3.70,-3.70
252.92,-0.27,3.41,-0.25,3.42,-3.42,-3.89,-4.15,-3.69,-3.68,-3.67
255.45,-0.26,3.40,-0.25,3.41,-3.41,-3.90,-4.15,-3.66,-3.66,-3.65
258.00,-0.24,3.39,-0.24,3.40,-3.40,-3.92,-4.15,-3.63,-3.64,-3.63
260.58,-0.21,3.41,-0.23,3.39,-3.39,-3.93,-4.14,-3.60,-3.62,-3.62
263.19,-0.20,3.40,-0.21,3.39,-3.39,-3.94,-4.13,-3.58,-3.59,-3.60
265.82,-0.17,3.41,-0.19,3.39,-3.39,-3.95,-4.12,-3.55,-3.57,-3.57
268.48,-0.15,3.40,-0.16,3.39,-3.39,-3.97,-4.11,-3.53,-3.55,-3.55
271.16,-0.13,3.39,-0.14,3.39,-3.39,-3.98,-4.09,-3.51,-3.53,-3.52
273.87,-0.11,3.40,-0.11,3.39,-3.39,-3.99,-4.07,-3.50,-3.50,-3.51
276.61,-0.09,3.38,-0.09,3.39,-3.39,-4.00,-4.04,-3.48,-3.48,-3.47
279.38,-0.07,3.39,-0.07,3.39,-3.39,-4.01,-4.02,-3.45,-3.46,-3.46
282.17,-0.05,3.39,-0.05,3.38,-3.38,-4.01,-3.99,-3.43,-3.43,-3.43
284.99,-0.03,3.38,-0.03,3.38,-3.38,-4.02,-3.96,-3.41,-3.41,-3.41
287.84,-0.02,3.37,-0.01,3.38,-3.38,-4.03,-3.93,-3.39,-3.38,-3.39
290.72,0.02,3.37,0.02,3.37,-3.37,-4.04,-3.90,-3.35,-3.35,-3.35
293.63,0.04,3.38,0.04,3.37,-3.37,-4.05,-3.87,-3.33,-3.33,-3.34
296.57,0.06,3.36,0.07,3.37,-3.37,-4.05,-3.84,-3.30,-3.30,-3.30
299.53,0.09,3.37,0.09,3.36,-3.36,-4.06,-3.81,-3.27,-3.27,-3.28
302.53,0.12,3.37,0.12,3.36,-3.36,-4.06,-3.78,-3.24,-3.24,-3.25
305.55,0.14,3.35,0.16,3.36,-3.36,-4.07,-3.75,-3.22,-3.21,-3.20
308.61,0.18,3.36,0.19,3.37,-3.37,-4.07,-3.73,-3.18,-3.18,-3.18
311.69,0.22,3.37,0.22,3.37,-3.37,-4.08,-3.70,-3.15,-3.15,-3.14
314.81,0.26,3.37,0.26,3.38,-3.38,-4.08,-3.68,-3.11,-3.12,-3.11
317.96,0.30,3.38,0.30,3.39,-3.39,-4.08,-3.65,-3.08,-3.09,-3.08
321.14,0.34,3.40,0.34,3.40,-3.40,-4.08,-3.64,-3.06,-3.06,-3.05
324.35,0.38,3.41,0.39,3.41,-3.41,-4.08,-3.62,-3.03,-3.03,-3.03
327.59,0.43,3.43,0.43,3.43,-3.43,-4.09,-3.60,-3.00,-3.00,-2.99
330.87,0.47,3.44,0.48,3.45,-3.45,-4.09,-3.59,-2.97,-2.97,-2.97
334.18,0.52,3.47,0.52,3.47,-3.47,-4.09,-3.58,-2.95,-2.94,-2.95
337.52,0.57,3.49,0.57,3.49,-3.49,-4.08,-3.57,-2.92,-2.92,-2.92
340.90,0.62,3.52,0.62,3.52,-3.52,-4.08,-3.57,-2.89,-2.90,-2.89
344.30,0.67,3.55,0.67,3.54,-3.54,-4.08,-3.57,-2.87,-2.88,-2.88
347.75,0.71,3.56,0.72,3.57,-3.57,-4.08,-3.57,-2.86,-2.86,-2.85
351.23,0.77,3.61,0.77,3.60,-3.60,-4.08,-3.57,-2.83,-2.83,-2.83
354.74,0.82,3.64,0.82,3.63,-3.63,-4.07,-3.58,-2.81,-2.82,-2.81
358.28,0.87,3.67,0.87,3.67,-3.67,-4.07,-3.59,-2.79,-2.80,-2.80
361.87,0.92,3.70,0.93,3.70,-3.70,-4.06,-3.60,-2.78,-2.78,-2.78
365.49,0.97,3.73,0.98,3.74,-3.74,-4.06,-3.61,-2.76,-2.76,-2.75
369.14,1.02,3.77,1.03,3.77,-3.77,-4.05,-3.63,-2.75,-2.74,-2.74
372.83,1.08,3.81,1.09,3.81,-3.81,-4.05,-3.65,-2.73,-2.72,-2.73
376.56,1.14,3.85,1.14,3.84,-3.84,-4.04,-3.67,-2.70,-2.70,-2.71
380.33,1.19,3.87,1.20,3.88,-3.88,-4.03,-3.70,-2.69,-2.68,-2.68
384.13,1.26,3.93,1.25,3.92,-3.92,-4.02,-3.73,-2.65,-2.66,-2.66
387.97,1.31,3.96,1.31,3.95,-3.95,-4.01,-3.76,-2.64,-2.64,-2.64
391.85,1.36,3.99,1.36,3.98,-3.98,-4.01,-3.79,-2.62,-2.62,-2.63
395.77,1.42,4.02,1.42,4.02,-4.02,-4.00,-3.82,-2.59,-2.60,-2.60
399.73,1.47,4.05,1.47,4.05,-4.05,-3.98,-3.86,-2.58,-2.58,-2.58
403.72,1.52,4.08,1.52,4.08,-4.08,-3.97,-3.90,-2.56,-2.56,-2.56
407.76,1.57,4.11,1.57,4.11,-4.11,-3.96,-3.94,-2.54,-2.54,-2.54
411.84,1.61,4.13,1.62,4.14,-4.14,-3.95,-3.98,-2.53,-2.52,-2.51
415.96,1.67,4.17,1.67,4.17,-4.17,-3.94,-4.02,-2.49,-2.49,-2.49
420.12,1.71,4.19,1.72,4.19,-4.19,-3.92,-4.06,-2.48,-2.47,-2.48
424.32,1.76,4.21,1.76,4.22,-4.22,-3.91,-4.10,-2.45,-2.45,-2.45
428.56,1.80,4.23,1.81,4.24,-4.24,-3.89,-4.14,-2.43,-2.43,-2.43
432.85,1.84,4.25,1.85,4.26,-4.26,-3.88,-4.18,-2.41,-2.40,-2.41
437.18,1.89,4.27,1.89,4.27,-4.27,-3.86,-4.22,-2.38,-2.38,-2.38
441.55,1.93,4.28,1.93,4.29,-4.29,-3.84,-4.25,-2.35,-2.36,-2.35
445.96,1.97,4.31,1.97,4.30,-4.30,-3.83,-4.29,-2.32,-2.33,-2.33
450.42,2.01,4.33,2.00,4.31,-4.31,-3.81,-4.32,-2.29,-2.30,-2.31
454.93,2.03,4.31,2.04,4.31,-4.31,-3.79,-4.35,-2.28,-2.28,-2.27
459.48,2.06,4.32,2.06,4.31,-4.31,-3.77,-4.37,-2.25,-2.25,-2.25
464.07,2.08,4.31,2.09,4.31,-4.31,-3.75,-4.39,-2.23,-2.22,-2.23
468.71,2.10,4.29,2.11,4.30,-4.30,-3.73,-4.41,-2.20,-2.20,-2.19
473.40,2.12,4.29,2.12,4.29,-4.29,-3.71,-4.42,-2.17,-2.17,-2.17
478.13,2.13,4.27,2.14,4.27,-4.27,-3.69,-4.43,-2.14,-2.14,-2.14
482.91,2.13,4.24,2.14,4.25,-4.25,-3.66,-4.43,-2.12,-2.11,-2.11
487.74,2.14,4.22,2.14,4.22,-4.22,-3.64,-4.42,-2.08,-2.08,-2.08
492.62,2.14,4.19,2.13,4.18,-4.18,-3.61,-4.41,-2.04,-2.05,-2.05
497.55,2.13,4.16,2.11,4.14,-4.14,-3.59,-4.39,-2.01,-2.03,-2.03
502.52,2.10,4.09,2.09,4.09,-4.09,-3.56,-4.37,-1.99,-2.00,-1.99
507.55,2.07,4.05,2.06,4.03,-4.03,-3.54,-4.34,-1.96,-1.97,-1.97
