frequency,raw,error,smoothed,error_smoothed,equalization,parametric_eq,fixed_band_eq,equalized_raw,equalized_smoothed,target
20.00,-8.06,-15.76,-7.86,-15.57,15.57,15.84,6.41,7.51,7.71,7.71
20.20,-7.91,-15.60,-7.78,-15.48,15.48,15.78,6.56,7.57,7.70,7.70
20.40,-7.74,-15.43,-7.70,-15.39,15.39,15.72,6.71,7.64,7.69,7.69
20.61,-7.60,-15.29,-7.62,-15.30,15.30,15.65,6.87,7.70,7.68,7.69
20.81,-7.43,-15.10,-7.55,-15.22,15.22,15.58,7.03,7.79,7.67,7.67
21.02,-7.30,-14.96,-7.48,-15.14,15.14,15.51,7.20,7.85,7.66,7.67
21.23,-7.26,-14.91,-7.41,-15.07,15.07,15.43,7.37,7.81,7.66,7.66
21.44,-7.23,-14.89,-7.35,-15.00,15.00,15.36,7.54,7.77,7.65,7.67
21.66,-7.19,-14.84,-7.29,-14.93,14.93,15.28,7.72,7.75,7.64,7.66
21.87,-7.16,-14.80,-7.23,-14.87,14.87,15.20,7.91,7.72,7.64,7.65
22.09,-7.14,-14.77,-7.18,-14.81,14.81,15.12,8.10,7.68,7.63,7.64
22.31,-7.13,-14.76,-7.13,-14.76,14.76,15.04,8.29,7.63,7.63,7.64
22.54,-7.13,-14.75,-7.12,-14.74,14.74,14.95,8.49,7.61,7.62,7.63
22.76,-7.12,-14.73,-7.11,-14.73,14.73,14.87,8.70,7.61,7.62,7.62
22.99,-7.12,-14.72,-7.10,-14.71,14.71,14.78,8.91,7.59,7.61,7.61
23.22,-7.09,-14.68,-7.08,-14.69,14.69,14.70,9.13,7.60,7.61,7.60
23.45,-7.07,-14.67,-7.04,-14.65,14.65,14.61,9.35,7.58,7.61,7.61
23.69,-7.04,-14.63,-6.98,-14.59,14.59,14.53,9.58,7.55,7.61,7.60
23.92,-7.01,-14.60,-6.92,-14.52,14.52,14.44,9.82,7.52,7.60,7.60
24.16,-6.92,-14.52,-6.84,-14.44,14.44,14.35,10.06,7.53,7.60,7.61
24.40,-6.79,-14.41,-6.75,-14.35,14.35,14.27,10.31,7.56,7.61,7.62
24.65,-6.69,-14.30,-6.65,-14.25,14.25,14.18,10.56,7.57,7.61,7.62
24.89,-6.56,-14.18,-6.54,-14.15,14.15,14.10,10.82,7.58,7.61,7.62
25.14,-6.42,-14.03,-6.42,-14.03,14.03,14.01,11.09,7.61,7.61,7.61
25.39,-6.26,-13.87,-6.29,-13.91,13.91,13.93,11.36,7.64,7.61,7.61
25.65,-6.11,-13.71,-6.16,-13.77,13.77,13.84,11.64,7.66,7.62,7.61
25.91,-5.95,-13.56,-6.02,-13.63,13.63,13.76,11.93,7.69,7.62,7.62
26.16,-5.83,-13.46,-5.88,-13.50,13.50,13.68,12.22,7.67,7.62,7.63
26.43,-5.76,-13.38,-5.76,-13.38,13.38,13.59,12.51,7.62,7.62,7.63
26.69,-5.67,-13.29,-5.64,-13.26,13.26,13.51,12.81,7.59,7.62,7.63
26.96,-5.59,-13.20,-5.54,-13.16,13.16,13.43,13.11,7.57,7.62,7.62
27.23,-5.47,-13.08,-5.46,-13.08,13.08,13.35,13.42,7.61,7.62,7.62
27.50,-5.34,-12.95,-5.40,-13.02,13.02,13.27,13.72,7.68,7.62,7.62
27.77,-5.20,-12.83,-5.34,-12.96,12.96,13.19,14.03,7.76,7.62,7.63
28.05,-5.10,-12.72,-5.28,-12.90,12.90,13.11,14.32,7.80,7.62,7.63
28.33,-5.12,-12.72,-5.20,-12.82,12.82,13.03,14.62,7.70,7.62,7.61
28.62,-5.13,-12.73,-5.12,-12.73,12.73,12.95,14.90,7.61,7.62,7.61
28.90,-5.15,-12.76,-5.03,-12.65,12.65,12.87,15.17,7.50,7.61,7.62
29.19,-5.12,-12.73,-4.95,-12.56,12.56,12.79,15.42,7.44,7.61,7.62
29.48,-5.06,-12.66,-4.87,-12.48,12.48,12.71,15.65,7.42,7.61,7.61
29.78,-5.01,-12.61,-4.79,-12.39,12.39,12.64,15.86,7.39,7.60,7.61
30.08,-4.90,-12.51,-4.71,-12.31,12.31,12.56,16.03,7.42,7.60,7.62
30.38,-4.64,-12.25,-4.64,-12.24,12.24,12.48,16.17,7.60,7.59,7.61
30.68,-4.38,-11.96,-4.57,-12.16,12.16,12.40,16.27,7.78,7.59,7.59
30.99,-4.12,-11.71,-4.49,-12.07,12.07,12.33,16.32,7.95,7.58,7.59
31.30,-4.18,-11.75,-4.40,-11.98,11.98,12.25,16.34,7.80,7.58,7.58
31.61,-4.25,-11.81,-4.32,-11.88,11.88,12.17,16.31,7.64,7.57,7.57
31.93,-4.32,-11.87,-4.24,-11.80,11.80,12.10,16.24,7.49,7.56,7.56
32.24,-4.28,-11.83,-4.17,-11.72,11.72,12.02,16.14,7.45,7.56,7.56
32.57,-4.20,-11.73,-4.11,-11.66,11.66,11.94,15.99,7.46,7.55,7.54
32.89,-4.12,-11.65,-4.05,-11.60,11.60,11.87,15.82,7.48,7.54,7.54
33.22,-4.04,-11.57,-4.00,-11.54,11.54,11.79,15.61,7.50,7.54,7.54
33.55,-3.96,-11.48,-3.96,-11.49,11.49,11.71,15.39,7.54,7.53,7.53
33.89,-3.89,-11.42,-3.92,-11.45,11.45,11.63,15.14,7.56,7.53,7.54
34.23,-3.85,-11.36,-3.87,-11.40,11.40,11.56,14.88,7.55,7.52,7.52
34.57,-3.83,-11.34,-3.81,-11.33,11.33,11.48,14.61,7.50,7.52,7.52
34.92,-3.80,-11.30,-3.72,-11.24,11.24,11.40,14.33,7.44,7.51,7.51
35.27,-3.71,-11.22,-3.64,-11.15,11.15,11.32,14.05,7.44,7.51,7.52
35.62,-3.58,-11.07,-3.56,-11.06,11.06,11.24,13.77,7.48,7.50,7.50
35.97,-3.46,-10.95,-3.50,-10.98,10.98,11.16,13.49,7.53,7.49,7.50
36.33,-3.39,-10.86,-3.44,-10.92,10.92,11.08,13.21,7.53,7.47,7.48
36.70,-3.32,-10.78,-3.39,-10.85,10.85,10.99,12.93,7.53,7.46,7.47
37.06,-3.25,-10.69,-3.32,-10.76,10.76,10.91,12.65,7.51,7.44,7.45
37.43,-3.19,-10.61,-3.22,-10.64,10.64,10.83,12.39,7.46,7.42,7.43
37.81,-3.14,-10.54,-3.12,-10.52,10.52,10.74,12.12,7.38,7.40,7.41
38.19,-3.09,-10.46,-3.02,-10.40,10.40,10.66,11.87,7.31,7.38,7.38
38.57,-3.05,-10.40,-2.93,-10.28,10.28,10.57,11.61,7.24,7.35,7.36
38.95,-3.01,-10.33,-2.87,-10.19,10.19,10.49,11.37,7.19,7.33,7.33
39.34,-2.93,-10.21,-2.82,-10.12,10.12,10.40,11.13,7.20,7.30,7.29
39.74,-2.84,-10.10,-2.77,-10.04,10.04,10.31,10.90,7.21,7.27,7.27
40.14,-2.69,-9.92,-2.70,-9.95,9.95,10.22,10.68,7.26,7.24,7.24
40.54,-2.41,-9.62,-2.64,-9.85,9.85,10.13,10.46,7.44,7.22,7.22
40.94,-2.14,-9.32,-2.59,-9.78,9.78,10.04,10.26,7.64,7.19,7.19
41.35,-2.30,-9.46,-2.55,-9.71,9.71,9.95,10.05,7.41,7.16,7.17
41.76,-2.54,-9.66,-2.50,-9.64,9.64,9.85,9.86,7.10,7.14,7.13
42.18,-2.66,-9.76,-2.45,-9.55,9.55,9.76,9.67,6.90,7.11,7.11
42.60,-2.64,-9.72,-2.37,-9.45,9.45,9.67,9.49,6.82,7.08,7.09
43.03,-2.60,-9.65,-2.29,-9.34,9.34,9.57,9.31,6.75,7.06,7.06
43.46,-2.30,-9.32,-2.22,-9.25,9.25,9.47,9.14,6.96,7.03,7.03
43.90,-1.99,-9.00,-2.18,-9.18,9.18,9.38,8.98,7.19,7.00,7.01
44.33,-2.05,-9.01,-2.13,-9.10,9.10,9.28,8.82,7.05,6.97,6.97
44.78,-2.23,-9.16,-2.08,-9.02,9.02,9.18,8.67,6.79,6.94,6.94
45.23,-2.17,-9.09,-2.02,-8.93,8.93,9.08,8.52,6.76,6.91,6.93
45.68,-1.86,-8.73,-1.94,-8.82,8.82,8.98,8.38,6.96,6.87,6.88
46.13,-1.62,-8.45,-1.84,-8.67,8.67,8.88,8.25,7.06,6.84,6.84
46.60,-1.51,-8.31,-1.73,-8.53,8.53,8.77,8.12,7.02,6.80,6.81
47.06,-1.45,-8.21,-1.64,-8.40,8.40,8.67,7.99,6.96,6.76,6.77
47.53,-1.67,-8.40,-1.57,-8.29,8.29,8.57,7.87,6.62,6.72,6.74
48.01,-1.89,-8.56,-1.51,-8.19,8.19,8.46,7.75,6.30,6.67,6.68
48.49,-1.63,-8.25,-1.47,-8.10,8.10,8.36,7.64,6.47,6.63,6.63
48.97,-1.36,-7.94,-1.44,-8.02,8.02,8.25,7.54,6.67,6.59,6.59
49.46,-1.30,-7.84,-1.39,-7.93,7.93,8.14,7.43,6.64,6.54,6.55
49.96,-1.25,-7.72,-1.32,-7.81,7.81,8.04,7.33,6.57,6.50,6.48
50.46,-1.20,-7.63,-1.26,-7.71,7.71,7.93,7.24,6.51,6.45,6.44
50.96,-1.15,-7.54,-1.23,-7.63,7.63,7.82,7.14,6.48,6.40,6.40
51.47,-1.17,-7.52,-1.19,-7.54,7.54,7.71,7.05,6.38,6.36,6.36
51.99,-1.20,-7.50,-1.13,-7.44,7.44,7.60,6.97,6.24,6.31,6.31
52.51,-1.13,-7.39,-1.05,-7.31,7.31,7.49,6.88,6.19,6.26,6.27
53.03,-1.07,-7.30,-0.97,-7.19,7.19,7.38,6.80,6.12,6.21,6.24
53.56,-1.09,-7.26,-0.93,-7.10,7.10,7.27,6.72,6.01,6.17,6.18
54.10,-1.03,-7.15,-0.90,-7.03,7.03,7.16,6.64,6.00,6.13,6.13
54.64,-0.60,-6.68,-0.84,-6.92,6.92,7.05,6.56,6.32,6.08,6.09
55.18,-0.44,-6.46,-0.78,-6.82,6.82,6.94,6.49,6.38,6.04,6.03
55.74,-0.79,-6.77,-0.72,-6.72,6.72,6.83,6.41,5.93,6.00,5.98
56.29,-0.84,-6.78,-0.66,-6.62,6.62,6.72,6.33,5.78,5.96,5.95
56.86,-0.60,-6.50,-0.60,-6.51,6.51,6.61,6.26,5.91,5.91,5.91
57.42,-0.50,-6.34,-0.53,-6.40,6.40,6.50,6.18,5.90,5.87,5.85
58.00,-0.44,-6.25,-0.45,-6.27,6.27,6.38,6.10,5.84,5.82,5.82
58.58,-0.53,-6.31,-0.39,-6.17,6.17,6.27,6.03,5.64,5.77,5.79
59.16,-0.47,-6.22,-0.36,-6.08,6.08,6.16,5.95,5.61,5.72,5.75
59.76,-0.05,-5.76,-0.30,-5.97,5.97,6.05,5.86,5.92,5.67,5.71
60.35,-0.07,-5.70,-0.24,-5.86,5.86,5.94,5.78,5.79,5.62,5.64
60.96,-0.41,-6.00,-0.20,-5.76,5.76,5.83,5.70,5.35,5.57,5.59
61.57,-0.21,-5.72,-0.14,-5.66,5.66,5.72,5.61,5.45,5.52,5.52
62.18,-0.02,-5.46,-0.06,-5.52,5.52,5.60,5.52,5.50,5.46,5.45
62.80,0.04,-5.34,0.02,-5.38,5.38,5.49,5.42,5.43,5.40,5.39
63.43,0.10,-5.22,0.07,-5.28,5.28,5.38,5.33,5.38,5.34,5.33
64.07,0.14,-5.13,0.13,-5.16,5.16,5.27,5.23,5.30,5.28,5.28
64.71,-0.04,-5.25,0.19,-5.03,5.03,5.16,5.13,5.00,5.22,5.22
65.35,0.16,-5.00,0.23,-4.93,4.93,5.05,5.03,5.09,5.16,5.16
66.01,0.64,-4.45,0.26,-4.84,4.84,4.94,4.92,5.48,5.10,5.10
66.67,0.28,-4.78,0.30,-4.74,4.74,4.83,4.81,5.01,5.04,5.06
67.33,0.21,-4.77,0.38,-4.60,4.60,4.72,4.70,4.81,4.98,4.98
68.01,0.42,-4.50,0.44,-4.47,4.47,4.62,4.59,4.90,4.92,4.93
68.69,0.71,-4.14,0.48,-4.38,4.38,4.51,4.48,5.09,4.86,4.86
69.37,0.63,-4.17,0.52,-4.27,4.27,4.40,4.36,4.91,4.79,4.81
70.07,0.31,-4.42,0.57,-4.17,4.17,4.29,4.25,4.48,4.73,4.74
70.77,0.57,-4.10,0.61,-4.05,4.05,4.18,4.13,4.63,4.67,4.68
71.48,0.55,-4.05,0.67,-3.93,3.93,4.08,4.01,4.49,4.60,4.61
72.19,0.54,-3.99,0.73,-3.81,3.81,3.97,3.89,4.36,4.54,4.54
72.91,0.95,-3.52,0.76,-3.72,3.72,3.86,3.77,4.67,4.48,4.48
73.64,0.99,-3.41,0.78,-3.64,3.64,3.76,3.64,4.63,4.41,4.41
74.38,0.87,-3.47,0.83,-3.52,3.52,3.65,3.52,4.40,4.35,4.35
75.12,0.72,-3.55,0.86,-3.43,3.43,3.55,3.40,4.15,4.29,4.28
75.87,0.93,-3.30,0.90,-3.34,3.34,3.44,3.28,4.27,4.23,4.24
76.63,0.96,-3.20,0.94,-3.24,3.24,3.34,3.16,4.20,4.18,4.17
77.40,1.00,-3.11,1.00,-3.12,3.12,3.23,3.04,4.12,4.12,4.12
78.17,1.08,-2.97,1.05,-3.01,3.01,3.13,2.91,4.10,4.06,4.06
78.95,1.11,-2.90,1.05,-2.96,2.96,3.03,2.79,4.07,4.01,4.02
79.74,0.99,-2.96,1.08,-2.87,2.87,2.93,2.67,3.87,3.95,3.96
80.54,0.93,-2.96,1.12,-2.78,2.78,2.82,2.55,3.72,3.90,3.90
81.35,1.04,-2.80,1.16,-2.69,2.69,2.72,2.44,3.73,3.84,3.85
82.16,1.30,-2.49,1.21,-2.58,2.58,2.62,2.32,3.88,3.79,3.80
82.98,1.44,-2.29,1.27,-2.46,2.46,2.52,2.20,3.91,3.73,3.74
83.81,1.36,-2.31,1.31,-2.36,2.36,2.42,2.08,3.72,3.67,3.68
84.65,1.31,-2.30,1.35,-2.26,2.26,2.32,1.97,3.58,3.61,3.62
85.50,1.29,-2.25,1.40,-2.16,2.16,2.22,1.85,3.45,3.56,3.55
86.35,1.28,-2.20,1.44,-2.05,2.05,2.12,1.74,3.34,3.49,3.49
87.22,1.39,-2.04,1.49,-1.94,1.94,2.02,1.62,3.34,3.43,3.44
88.09,1.88,-1.48,1.55,-1.83,1.83,1.92,1.51,3.71,3.37,3.37
88.97,1.76,-1.55,1.61,-1.70,1.70,1.83,1.40,3.46,3.31,3.32
89.86,1.64,-1.59,1.66,-1.59,1.59,1.73,1.28,3.23,3.24,3.24
90.76,1.49,-1.68,1.68,-1.50,1.50,1.63,1.17,2.99,3.18,3.18
91.66,1.62,-1.48,1.70,-1.41,1.41,1.54,1.06,3.03,3.11,3.11
92.58,1.75,-1.29,1.73,-1.31,1.31,1.44,0.95,3.06,3.04,3.05
93.51,1.78,-1.19,1.77,-1.19,1.19,1.34,0.84,2.98,2.97,2.98
94.44,1.82,-1.08,1.81,-1.09,1.09,1.25,0.73,2.91,2.89,2.91
95.39,1.88,-0.94,1.83,-0.98,0.98,1.15,0.63,2.87,2.82,2.83
96.34,1.90,-0.84,1.86,-0.88,0.88,1.06,0.52,2.79,2.74,2.75
97.30,1.97,-0.69,1.88,-0.78,0.78,0.96,0.41,2.75,2.66,2.67
98.28,1.90,-0.67,1.90,-0.68,0.68,0.87,0.31,2.59,2.58,2.58
99.26,1.74,-0.74,1.93,-0.56,0.56,0.78,0.20,2.31,2.50,2.49
100.25,1.80,-0.60,1.96,-0.46,0.46,0.68,0.10,2.26,2.42,2.41
101.25,2.01,-0.32,1.98,-0.35,0.35,0.59,-0.01,2.37,2.33,2.34
102.27,2.01,-0.23,2.00,-0.26,0.26,0.50,-0.11,2.27,2.25,2.25
103.29,2.05,-0.11,2.00,-0.17,0.17,0.41,-0.21,2.22,2.17,2.17
104.32,2.08,-0.01,2.00,-0.09,0.09,0.31,-0.31,2.17,2.09,2.10
105.37,2.11,0.10,1.99,-0.01,0.01,0.22,-0.41,2.13,2.01,2.02
106.42,2.12,0.20,2.00,0.07,-0.07,0.13,-0.51,2.05,1.93,1.93
107.48,2.06,0.23,2.02,0.17,-0.17,0.04,-0.61,1.89,1.85,1.84
108.56,1.94,0.17,2.05,0.28,-0.28,-0.05,-0.71,1.66,1.77,1.78
109.64,1.87,0.19,2.07,0.38,-0.38,-0.14,-0.80,1.49,1.69,1.69
110.74,2.05,0.45,2.09,0.47,-0.47,-0.23,-0.89,1.58,1.61,1.61
111.85,2.11,0.58,2.09,0.56,-0.56,-0.32,-0.98,1.55,1.54,1.54
112.97,2.10,0.64,2.10,0.64,-0.64,-0.41,-1.07,1.46,1.46,1.47
114.10,1.96,0.57,2.13,0.74,-0.74,-0.50,-1.16,1.22,1.39,1.40
115.24,2.03,0.72,2.16,0.85,-0.85,-0.59,-1.24,1.19,1.32,1.32
116.39,2.31,1.08,2.20,0.95,-0.95,-0.68,-1.32,1.36,1.25,1.24
117.55,2.46,1.29,2.22,1.04,-1.04,-0.77,-1.40,1.42,1.18,1.18
118.73,2.36,1.27,2.25,1.14,-1.14,-0.85,-1.48,1.23,1.11,1.10
119.92,2.24,1.21,2.28,1.24,-1.24,-0.94,-1.55,1.01,1.05,1.04
121.12,2.18,1.20,2.32,1.34,-1.34,-1.03,-1.62,0.84,0.98,0.99
122.33,2.34,1.43,2.35,1.44,-1.44,-1.12,-1.69,0.91,0.92,0.92
123.55,2.44,1.58,2.38,1.52,-1.52,-1.20,-1.75,0.92,0.85,0.87
124.79,2.44,1.64,2.40,1.61,-1.61,-1.29,-1.81,0.84,0.79,0.81
126.03,2.45,1.72,2.42,1.69,-1.69,-1.38,-1.87,0.77,0.73,0.74
127.29,2.38,1.71,2.44,1.77,-1.77,-1.46,-1.93,0.62,0.67,0.68
128.57,2.33,1.72,2.44,1.83,-1.83,-1.55,-1.98,0.50,0.61,0.62
129.85,2.33,1.79,2.45,1.90,-1.90,-1.63,-2.03,0.44,0.55,0.55
131.15,2.57,2.09,2.48,1.98,-1.98,-1.72,-2.08,0.59,0.49,0.49
132.46,2.58,2.16,2.51,2.08,-2.08,-1.80,-2.12,0.50,0.43,0.43
133.79,2.58,2.22,2.54,2.17,-2.17,-1.89,-2.17,0.42,0.37,0.37
135.12,2.58,2.28,2.55,2.24,-2.24,-1.97,-2.21,0.34,0.31,0.31
136.48,2.50,2.24,2.56,2.31,-2.31,-2.06,-2.25,0.19,0.25,0.27
137.84,2.47,2.27,2.58,2.39,-2.39,-2.14,-2.28,0.09,0.19,0.21
139.22,2.61,2.49,2.60,2.46,-2.46,-2.22,-2.32,0.15,0.14,0.13
140.61,2.70,2.62,2.62,2.54,-2.54,-2.30,-2.35,0.17,0.08,0.09
142.02,2.70,2.68,2.64,2.62,-2.62,-2.39,-2.39,0.08,0.02,0.03
143.44,2.70,2.75,2.67,2.70,-2.70,-2.47,-2.42,0.00,-0.03,-0.04
144.87,2.70,2.80,2.69,2.78,-2.78,-2.55,-2.46,-0.07,-0.09,-0.09
146.32,2.63,2.78,2.71,2.85,-2.85,-2.63,-2.49,-0.22,-0.14,-0.14
147.78,2.60,2.81,2.74,2.94,-2.94,-2.71,-2.53,-0.34,-0.20,-0.20
149.26,2.73,2.99,2.77,3.02,-3.02,-2.79,-2.56,-0.29,-0.26,-0.25
150.75,2.80,3.13,2.80,3.11,-3.11,-2.87,-2.60,-0.31,-0.31,-0.32
152.26,2.80,3.17,2.82,3.19,-3.19,-2.95,-2.63,-0.39,-0.37,-0.36
153.78,2.80,3.23,2.84,3.27,-3.27,-3.03,-2.67,-0.46,-0.43,-0.42
155.32,2.89,3.37,2.85,3.33,-3.33,-3.11,-2.71,-0.44,-0.48,-0.47
156.88,2.99,3.53,2.86,3.41,-3.41,-3.19,-2.75,-0.41,-0.54,-0.53
158.44,2.98,3.58,2.88,3.48,-3.48,-3.26,-2.79,-0.50,-0.60,-0.59
160.03,2.93,3.59,2.90,3.55,-3.55,-3.34,-2.84,-0.62,-0.66,-0.65
161.63,2.91,3.63,2.91,3.62,-3.62,-3.42,-2.88,-0.71,-0.72,-0.71
163.24,2.81,3.60,2.92,3.69,-3.69,-3.49,-2.93,-0.88,-0.78,-0.78
164.88,2.87,3.71,2.91,3.75,-3.75,-3.57,-2.98,-0.88,-0.84,-0.83
166.53,2.89,3.80,2.90,3.79,-3.79,-3.64,-3.03,-0.90,-0.90,-0.90
168.19,2.88,3.84,2.88,3.84,-3.84,-3.71,-3.09,-0.96,-0.96,-0.95
169.87,2.88,3.90,2.87,3.89,-3.89,-3.79,-3.15,-1.01,-1.02,-1.01
171.57,2.87,3.96,2.86,3.94,-3.94,-3.86,-3.21,-1.07,-1.08,-1.08
173.29,2.86,4.01,2.85,3.99,-3.99,-3.93,-3.27,-1.13,-1.14,-1.14
175.02,2.86,4.06,2.85,4.04,-4.04,-4.00,-3.34,-1.18,-1.19,-1.19
176.77,2.86,4.11,2.86,4.11,-4.11,-4.07,-3.40,-1.24,-1.25,-1.24
178.54,2.85,4.16,2.87,4.17,-4.17,-4.13,-3.48,-1.32,-1.30,-1.30
180.32,2.85,4.22,2.89,4.24,-4.24,-4.20,-3.55,-1.39,-1.35,-1.36
182.13,2.82,4.23,2.91,4.31,-4.31,-4.27,-3.63,-1.49,-1.40,-1.40
183.95,2.83,4.29,2.92,4.37,-4.37,-4.33,-3.71,-1.54,-1.45,-1.45
185.79,2.97,4.48,2.94,4.44,-4.44,-4.40,-3.79,-1.47,-1.50,-1.50
187.65,3.00,4.55,2.96,4.51,-4.51,-4.46,-3.87,-1.51,-1.55,-1.54
189.52,3.02,4.62,2.98,4.57,-4.57,-4.52,-3.96,-1.55,-1.59,-1.59
191.42,3.03,4.66,3.01,4.64,-4.64,-4.58,-4.05,-1.61,-1.64,-1.62
193.33,3.04,4.72,3.03,4.71,-4.71,-4.64,-4.14,-1.67,-1.68,-1.67
195.27,3.06,4.79,3.06,4.78,-4.78,-4.70,-4.24,-1.72,-1.72,-1.72
197.22,3.07,4.85,3.08,4.84,-4.84,-4.75,-4.34,-1.77,-1.76,-1.77
199.19,3.08,4.89,3.09,4.90,-4.90,-4.81,-4.43,-1.81,-1.80,-1.80
201.18,3.09,4.95,3.10,4.95,-4.95,-4.86,-4.53,-1.85,-1.85,-1.85
203.19,3.10,4.99,3.10,4.99,-4.99,-4.91,-4.63,-1.89,-1.89,-1.88
205.23,3.10,5.03,3.10,5.02,-5.02,-4.96,-4.74,-1.92,-1.93,-1.92
207.28,3.10,5.06,3.08,5.05,-5.05,-5.01,-4.84,-1.95,-1.97,-1.95
209.35,3.11,5.11,3.07,5.08,-5.08,-5.06,-4.94,-1.97,-2.01,-1.99
211.44,3.12,5.17,3.06,5.11,-5.11,-5.10,-5.05,-1.98,-2.04,-2.04
213.56,3.07,5.15,3.05,5.13,-5.13,-5.15,-5.15,-2.06,-2.08,-2.07
215.69,3.00,5.12,3.04,5.16,-5.16,-5.19,-5.25,-2.15,-2.12,-2.11
217.85,2.98,5.13,3.03,5.18,-5.18,-5.23,-5.35,-2.20,-2.15,-2.14
220.03,2.98,5.18,3.02,5.20,-5.20,-5.27,-5.45,-2.22,-2.18,-2.19
222.23,2.98,5.20,3.01,5.22,-5.22,-5.30,-5.54,-2.24,-2.21,-2.21
224.45,2.97,5.22,3.00,5.24,-5.24,-5.34,-5.63,-2.27,-2.24,-2.24
226.70,2.98,5.26,2.99,5.26,-5.26,-5.37,-5.72,-2.27,-2.27,-2.27
228.96,2.98,5.28,2.98,5.27,-5.27,-5.40,-5.80,-2.29,-2.29,-2.29
231.25,2.99,5.30,2.98,5.29,-5.29,-5.43,-5.87,-2.29,-2.31,-2.30
233.57,3.00,5.34,2.98,5.30,-5.30,-5.46,-5.94,-2.30,-2.32,-2.33
235.90,3.02,5.37,2.98,5.32,-5.32,-5.48,-6.01,-2.30,-2.34,-2.34
238.26,3.03,5.40,3.00,5.35,-5.35,-5.50,-6.06,-2.31,-2.35,-2.36
240.64,2.96,5.32,3.01,5.37,-5.37,-5.53,-6.11,-2.41,-2.36,-2.35
243.05,2.96,5.33,3.01,5.38,-5.38,-5.54,-6.15,-2.42,-2.37,-2.36
245.48,2.97,5.36,3.02,5.40,-5.40,-5.56,-6.18,-2.42,-2.38,-2.38
247.93,3.00,5.40,3.02,5.41,-5.41,-5.58,-6.20,-2.40,-2.39,-2.39
250.41,3.02,5.41,3.02,5.41,-5.41,-5.59,-6.22,-2.39,-2.39,-2.38
252.92,3.04,5.43,3.02,5.42,-5.42,-5.60,-6.22,-2.38,-2.40,-2.38
255.45,3.05,5.46,3.02,5.43,-5.43,-5.61,-6.22,-2.37,-2.41,-2.40
258.00,3.06,5.48,3.02,5.44,-5.44,-5.61,-6.20,-2.37,-2.42,-2.41
260.58,3.06,5.49,3.01,5.44,-5.44,-5.62,-6.18,-2.38,-2.43,-2.42
263.19,3.02,5.46,3.01,5.45,-5.45,-5.62,-6.15,-2.42,-2.44,-2.43
265.82,2.96,5.42,3.00,5.45,-5.45,-5.62,-6.12,-2.49,-2.45,-2.45
268.48,2.96,5.42,2.99,5.46,-5.46,-5.62,-6.07,-2.50,-2.47,-2.45
271.16,2.96,5.44,2.99,5.46,-5.46,-5.62,-6.02,-2.50,-2.48,-2.47
273.87,2.95,5.44,2.98,5.47,-5.47,-5.61,-5.97,-2.51,-2.49,-2.48
276.61,2.95,5.46,2.97,5.47,-5.47,-5.60,-5.91,-2.51,-2.50,-2.50
279.38,2.95,5.49,2.95,5.46,-5.46,-5.59,-5.84,-2.51,-2.51,-2.53
282.17,2.95,5.49,2.94,5.46,-5.46,-5.58,-5.77,-2.50,-2.52,-2.53
284.99,2.94,5.48,2.92,5.45,-5.45,-5.57,-5.70,-2.50,-2.53,-2.53
287.84,2.87,5.41,2.91,5.44,-5.44,-5.56,-5.63,-2.57,-2.54,-2.53
290.72,2.88,5.44,2.89,5.44,-5.44,-5.54,-5.55,-2.55,-2.54,-2.55
293.63,2.89,5.44,2.88,5.43,-5.43,-5.52,-5.47,-2.54,-2.55,-2.54
296.57,2.90,5.45,2.87,5.42,-5.42,-5.50,-5.39,-2.52,-2.55,-2.54
299.53,2.92,5.48,2.85,5.41,-5.41,-5.48,-5.31,-2.48,-2.55,-2.55
302.53,2.83,5.38,2.84,5.39,-5.39,-5.46,-5.23,-2.56,-2.55,-2.54
305.55,2.75,5.31,2.82,5.37,-5.37,-5.43,-5.15,-2.62,-2.56,-2.55
308.61,2.75,5.30,2.79,5.35,-5.35,-5.41,-5.08,-2.60,-2.56,-2.54
311.69,2.75,5.32,2.77,5.33,-5.33,-5.38,-5.00,-2.58,-2.56,-2.56
314.81,2.76,5.32,2.75,5.32,-5.32,-5.35,-4.93,-2.55,-2.56,-2.55
317.96,2.76,5.34,2.73,5.30,-5.30,-5.32,-4.86,-2.54,-2.56,-2.57
321.14,2.71,5.28,2.71,5.28,-5.28,-5.29,-4.79,-2.56,-2.57,-2.56
324.35,2.67,5.25,2.68,5.25,-5.25,-5.25,-4.72,-2.58,-2.57,-2.57
327.59,2.66,5.23,2.65,5.22,-5.22,-5.22,-4.65,-2.56,-2.57,-2.56
330.87,2.65,5.23,2.62,5.19,-5.19,-5.18,-4.59,-2.54,-2.57,-2.57
334.18,2.58,5.17,2.59,5.17,-5.17,-5.15,-4.53,-2.58,-2.58,-2.58
337.52,2.55,5.13,2.57,5.14,-5.14,-5.11,-4.48,-2.59,-2.58,-2.57
340.90,2.55,5.14,2.54,5.11,-5.11,-5.07,-4.43,-2.56,-2.58,-2.58
344.30,2.53,5.11,2.51,5.08,-5.08,-5.03,-4.38,-2.55,-2.57,-2.57
347.75,2.47,5.04,2.48,5.05,-5.05,-4.99,-4.33,-2.58,-2.57,-2.56
351.23,2.40,4.99,2.45,5.02,-5.02,-4.95,-4.29,-2.62,-2.57,-2.58
354.74,2.36,4.93,2.42,4.99,-4.99,-4.91,-4.25,-2.62,-2.56,-2.56
358.28,2.36,4.93,2.40,4.96,-4.96,-4.87,-4.21,-2.59,-2.56,-2.56
361.87,2.36,4.93,2.37,4.93,-4.93,-4.82,-4.18,-2.56,-2.56,-2.56
365.49,2.37,4.93,2.34,4.89,-4.89,-4.78,-4.15,-2.52,-2.55,-2.55
369.14,2.34,4.89,2.31,4.86,-4.86,-4.73,-4.13,-2.51,-2.55,-2.54
372.83,2.29,4.83,2.28,4.83,-4.83,-4.69,-4.10,-2.53,-2.55,-2.53
376.56,2.29,4.84,2.25,4.80,-4.80,-4.64,-4.08,-2.50,-2.54,-2.54
380.33,2.23,4.78,2.23,4.77,-4.77,-4.60,-4.07,-2.53,-2.54,-2.54
384.13,2.19,4.73,2.20,4.74,-4.74,-4.55,-4.05,-2.55,-2.54,-2.53
387.97,2.13,4.67,2.17,4.72,-4.72,-4.50,-4.04,-2.59,-2.55,-2.53
391.85,2.11,4.66,2.14,4.69,-4.69,-4.45,-4.03,-2.57,-2.55,-2.54
395.77,2.10,4.66,2.09,4.65,-4.65,-4.41,-4.03,-2.55,-2.55,-2.55
399.73,2.04,4.60,2.05,4.61,-4.61,-4.36,-4.02,-2.57,-2.56,-2.55
403.72,2.00,4.55,2.01,4.58,-4.58,-4.31,-4.02,-2.57,-2.56,-2.54
407.76,2.01,4.58,1.97,4.54,-4.54,-4.26,-4.02,-2.53,-2.57,-2.56
411.84,2.00,4.58,1.93,4.51,-4.51,-4.21,-4.02,-2.50,-2.57,-2.57
415.96,1.93,4.51,1.90,4.47,-4.47,-4.16,-4.03,-2.54,-2.57,-2.57
420.12,1.85,4.44,1.86,4.43,-4.43,-4.11,-4.03,-2.58,-2.57,-2.58
424.32,1.81,4.39,1.84,4.40,-4.40,-4.06,-4.04,-2.59,-2.56,-2.57
428.56,1.75,4.31,1.82,4.37,-4.37,-4.01,-4.04,-2.61,-2.55,-2.55
432.85,1.72,4.26,1.80,4.33,-4.33,-3.96,-4.05,-2.60,-2.53,-2.53
437.18,1.77,4.30,1.79,4.29,-4.29,-3.91,-4.05,-2.52,-2.50,-2.52
441.55,1.79,4.29,1.78,4.25,-4.25,-3.86,-4.06,-2.46,-2.47,-2.49
445.96,1.76,4.22,1.77,4.21,-4.21,-3.81,-4.06,-2.45,-2.44,-2.45
450.42,1.75,4.17,1.78,4.17,-4.17,-3.76,-4.07,-2.42,-2.39,-2.41
454.93,1.74,4.11,1.79,4.13,-4.13,-3.71,-4.07,-2.39,-2.35,-2.36
459.48,1.80,4.11,1.80,4.09,-4.09,-3.66,-4.07,-2.29,-2.29,-2.30
464.07,1.83,4.07,1.81,4.05,-4.05,-3.61,-4.06,-2.22,-2.24,-2.23
468.71,1.84,4.03,1.82,4.01,-4.01,-3.56,-4.06,-2.17,-2.19,-2.18
473.40,1.83,3.96,1.83,3.97,-3.97,-3.51,-4.05,-2.13,-2.13,-2.12
478.13,1.85,3.92,1.84,3.93,-3.93,-3.46,-4.04,-2.07,-2.08,-2.06
482.91,1.88,3.90,1.85,3.88,-3.88,-3.41,-4.02,-1.99,-2.03,-2.01
