frequency,raw,error,smoothed,error_smoothed,equalization,parametric_eq,fixed_band_eq,equalized_raw,equalized_smoothed,target
20.00,-6.09,-11.83,-6.09,-11.86,11.86,11.50,4.54,5.76,5.76,5.74
20.20,-5.98,-11.81,-5.98,-11.82,11.82,11.48,4.65,5.84,5.84,5.83
20.40,-5.87,-11.78,-5.88,-11.79,11.79,11.46,4.78,5.92,5.91,5.91
20.61,-5.78,-11.75,-5.77,-11.75,11.75,11.43,4.90,5.98,5.98,5.98
20.81,-5.66,-11.73,-5.66,-11.71,11.71,11.41,5.03,6.05,6.05,6.07
21.02,-5.55,-11.70,-5.55,-11.67,11.67,11.37,5.16,6.12,6.12,6.15
21.23,-5.44,-11.65,-5.45,-11.63,11.63,11.34,5.30,6.18,6.18,6.20
21.44,-5.34,-11.61,-5.34,-11.58,11.58,11.30,5.44,6.24,6.24,6.26
21.66,-5.23,-11.55,-5.23,-11.53,11.53,11.26,5.58,6.30,6.30,6.31
21.87,-5.12,-11.49,-5.12,-11.48,11.48,11.22,5.73,6.36,6.36,6.36
22.09,-5.01,-11.43,-5.02,-11.42,11.42,11.18,5.88,6.41,6.41,6.41
22.31,-4.91,-11.37,-4.91,-11.37,11.37,11.13,6.04,6.46,6.46,6.46
22.54,-4.81,-11.31,-4.80,-11.30,11.30,11.08,6.20,6.50,6.50,6.50
22.76,-4.69,-11.23,-4.69,-11.24,11.24,11.03,6.36,6.54,6.54,6.54
22.99,-4.58,-11.15,-4.59,-11.17,11.17,10.98,6.53,6.59,6.58,6.57
23.22,-4.48,-11.09,-4.48,-11.10,11.10,10.93,6.71,6.62,6.62,6.61
23.45,-4.37,-11.02,-4.37,-11.03,11.03,10.87,6.88,6.66,6.66,6.65
23.69,-4.27,-10.95,-4.26,-10.96,10.96,10.81,7.07,6.69,6.69,6.69
23.92,-4.15,-10.88,-4.16,-10.89,10.89,10.75,7.25,6.73,6.73,6.73
24.16,-4.05,-10.83,-4.05,-10.81,10.81,10.69,7.44,6.76,6.76,6.78
24.40,-3.94,-10.75,-3.94,-10.74,10.74,10.63,7.64,6.80,6.80,6.81
24.65,-3.83,-10.67,-3.84,-10.67,10.67,10.57,7.84,6.84,6.83,6.83
24.89,-3.73,-10.60,-3.73,-10.60,10.60,10.50,8.04,6.87,6.87,6.86
25.14,-3.62,-10.52,-3.63,-10.53,10.53,10.44,8.25,6.90,6.90,6.90
25.39,-3.52,-10.45,-3.52,-10.46,10.46,10.37,8.46,6.93,6.93,6.93
25.65,-3.41,-10.38,-3.42,-10.38,10.38,10.30,8.67,6.97,6.97,6.97
25.91,-3.32,-10.30,-3.31,-10.31,10.31,10.24,8.89,6.99,7.00,6.99
26.16,-3.21,-10.23,-3.21,-10.24,10.24,10.17,9.10,7.03,7.03,7.02
26.43,-3.11,-10.17,-3.11,-10.17,10.17,10.10,9.32,7.05,7.06,7.06
26.69,-3.01,-10.10,-3.01,-10.09,10.09,10.03,9.54,7.08,7.09,7.09
26.96,-2.91,-10.03,-2.91,-10.02,10.02,9.96,9.76,7.11,7.11,7.11
27.23,-2.80,-9.96,-2.81,-9.95,9.95,9.89,9.97,7.15,7.15,7.15
27.50,-2.70,-9.88,-2.70,-9.88,9.88,9.82,10.19,7.18,7.17,7.18
27.77,-2.60,-9.80,-2.61,-9.81,9.81,9.75,10.40,7.21,7.20,7.20
28.05,-2.50,-9.74,-2.51,-9.74,9.74,9.68,10.60,7.24,7.23,7.24
28.33,-2.41,-9.67,-2.41,-9.67,9.67,9.61,10.80,7.26,7.26,7.26
28.62,-2.32,-9.61,-2.32,-9.61,9.61,9.53,10.99,7.28,7.29,7.28
28.90,-2.22,-9.55,-2.22,-9.55,9.55,9.46,11.16,7.32,7.32,7.32
29.19,-2.13,-9.47,-2.13,-9.48,9.48,9.39,11.32,7.35,7.35,7.34
29.48,-2.03,-9.42,-2.04,-9.42,9.42,9.32,11.47,7.39,7.38,7.39
29.78,-1.94,-9.35,-1.96,-9.36,9.36,9.25,11.60,7.42,7.41,7.41
30.08,-1.85,-9.29,-1.87,-9.30,9.30,9.18,11.71,7.45,7.43,7.43
30.38,-1.78,-9.25,-1.79,-9.25,9.25,9.11,11.80,7.46,7.46,7.46
30.68,-1.71,-9.20,-1.71,-9.19,9.19,9.04,11.87,7.48,7.49,7.49
30.99,-1.63,-9.14,-1.63,-9.14,9.14,8.97,11.91,7.50,7.51,7.51
31.30,-1.55,-9.09,-1.55,-9.09,9.09,8.90,11.94,7.53,7.54,7.54
31.61,-1.47,-9.04,-1.47,-9.03,9.03,8.83,11.93,7.56,7.56,7.56
31.93,-1.39,-8.98,-1.39,-8.98,8.98,8.76,11.91,7.59,7.59,7.58
32.24,-1.32,-8.92,-1.32,-8.93,8.93,8.69,11.86,7.61,7.61,7.60
32.57,-1.24,-8.87,-1.25,-8.88,8.88,8.62,11.79,7.63,7.63,7.63
32.89,-1.17,-8.83,-1.18,-8.82,8.82,8.55,11.69,7.65,7.65,7.65
33.22,-1.10,-8.77,-1.10,-8.77,8.77,8.49,11.59,7.67,7.67,7.67
33.55,-1.03,-8.72,-1.03,-8.71,8.71,8.42,11.46,7.68,7.68,7.69
33.89,-0.95,-8.65,-0.96,-8.66,8.66,8.35,11.32,7.70,7.70,7.69
34.23,-0.88,-8.60,-0.89,-8.60,8.60,8.29,11.17,7.72,7.71,7.72
34.57,-0.82,-8.55,-0.82,-8.54,8.54,8.22,11.01,7.72,7.72,7.73
34.92,-0.75,-8.49,-0.75,-8.48,8.48,8.16,10.84,7.73,7.73,7.73
35.27,-0.68,-8.43,-0.68,-8.42,8.42,8.10,10.66,7.74,7.74,7.75
35.62,-0.61,-8.36,-0.61,-8.36,8.36,8.03,10.48,7.75,7.75,7.75
35.97,-0.54,-8.29,-0.54,-8.30,8.30,7.97,10.29,7.75,7.76,7.75
36.33,-0.47,-8.24,-0.47,-8.23,8.23,7.91,10.11,7.76,7.76,7.77
36.70,-0.40,-8.17,-0.40,-8.16,8.16,7.85,9.92,7.76,7.76,7.76
37.06,-0.33,-8.09,-0.34,-8.10,8.10,7.78,9.73,7.76,7.76,7.76
37.43,-0.26,-8.03,-0.27,-8.03,8.03,7.72,9.55,7.77,7.76,7.76
37.81,-0.19,-7.95,-0.20,-7.96,7.96,7.66,9.36,7.77,7.76,7.76
38.19,-0.13,-7.89,-0.14,-7.89,7.89,7.60,9.18,7.76,7.76,7.75
38.57,-0.07,-7.83,-0.07,-7.83,7.83,7.55,9.00,7.75,7.75,7.76
38.95,-0.01,-7.76,-0.01,-7.76,7.76,7.49,8.83,7.75,7.75,7.75
39.34,0.05,-7.69,0.05,-7.69,7.69,7.43,8.66,7.74,7.74,7.74
39.74,0.11,-7.62,0.11,-7.63,7.63,7.37,8.50,7.73,7.74,7.73
40.14,0.17,-7.56,0.17,-7.56,7.56,7.32,8.34,7.72,7.73,7.72
40.54,0.23,-7.49,0.23,-7.49,7.49,7.26,8.18,7.72,7.72,7.72
40.94,0.29,-7.42,0.29,-7.43,7.43,7.21,8.03,7.71,7.71,7.71
41.35,0.35,-7.36,0.34,-7.36,7.36,7.15,7.89,7.71,7.70,7.70
41.76,0.40,-7.30,0.40,-7.29,7.29,7.10,7.75,7.69,7.69,7.70
42.18,0.46,-7.23,0.46,-7.23,7.23,7.04,7.61,7.68,7.68,7.69
42.60,0.52,-7.15,0.51,-7.16,7.16,6.99,7.48,7.68,7.67,7.67
43.03,0.57,-7.11,0.57,-7.09,7.09,6.94,7.36,7.66,7.66,7.67
43.46,0.63,-7.03,0.63,-7.02,7.02,6.88,7.24,7.65,7.65,7.65
43.90,0.68,-6.96,0.68,-6.96,6.96,6.83,7.13,7.63,7.64,7.64
44.33,0.73,-6.89,0.73,-6.89,6.89,6.78,7.02,7.62,7.62,7.62
44.78,0.78,-6.83,0.79,-6.82,6.82,6.73,6.92,7.60,7.61,7.61
45.23,0.84,-6.75,0.84,-6.76,6.76,6.68,6.82,7.60,7.60,7.59
45.68,0.90,-6.68,0.89,-6.69,6.69,6.63,6.73,7.59,7.59,7.58
46.13,0.95,-6.62,0.94,-6.63,6.63,6.58,6.64,7.58,7.57,7.57
46.60,1.01,-6.56,0.99,-6.57,6.57,6.53,6.56,7.57,7.56,7.57
47.06,1.06,-6.50,1.04,-6.51,6.51,6.48,6.48,7.56,7.55,7.56
47.53,1.10,-6.45,1.09,-6.45,6.45,6.43,6.41,7.55,7.54,7.54
48.01,1.14,-6.41,1.14,-6.39,6.39,6.38,6.34,7.53,7.53,7.54
48.49,1.18,-6.35,1.18,-6.34,6.34,6.33,6.27,7.51,7.52,7.53
48.97,1.23,-6.29,1.23,-6.28,6.28,6.28,6.21,7.51,7.51,7.52
49.46,1.27,-6.23,1.27,-6.23,6.23,6.23,6.16,7.50,7.51,7.49
49.96,1.32,-6.16,1.32,-6.18,6.18,6.18,6.10,7.50,7.50,7.48
50.46,1.36,-6.13,1.36,-6.14,6.14,6.13,6.05,7.49,7.49,7.48
50.96,1.40,-6.09,1.40,-6.09,6.09,6.08,6.01,7.49,7.49,7.49
51.47,1.44,-6.04,1.44,-6.04,6.04,6.03,5.96,7.48,7.48,7.47
51.99,1.48,-5.99,1.48,-6.00,6.00,5.98,5.92,7.47,7.47,7.47
52.51,1.52,-5.96,1.51,-5.95,5.95,5.93,5.88,7.47,7.46,7.47
53.03,1.55,-5.92,1.55,-5.91,5.91,5.88,5.84,7.45,7.46,7.46
53.56,1.60,-5.86,1.59,-5.86,5.86,5.83,5.81,7.46,7.45,7.46
54.10,1.63,-5.82,1.62,-5.82,5.82,5.78,5.77,7.44,7.44,7.45
54.64,1.66,-5.77,1.66,-5.77,5.77,5.73,5.74,7.43,7.43,7.43
55.18,1.69,-5.73,1.69,-5.73,5.73,5.68,5.70,7.42,7.42,7.42
55.74,1.72,-5.68,1.72,-5.69,5.69,5.63,5.67,7.40,7.41,7.40
56.29,1.75,-5.64,1.75,-5.64,5.64,5.58,5.64,7.39,7.39,7.39
56.86,1.78,-5.59,1.77,-5.60,5.60,5.53,5.60,7.37,7.37,7.37
57.42,1.81,-5.54,1.80,-5.55,5.55,5.47,5.57,7.36,7.35,7.35
58.00,1.84,-5.50,1.83,-5.50,5.50,5.42,5.53,7.34,7.33,7.33
58.58,1.86,-5.45,1.85,-5.45,5.45,5.37,5.49,7.31,7.31,7.31
59.16,1.89,-5.41,1.88,-5.40,5.40,5.32,5.45,7.29,7.28,7.29
59.76,1.91,-5.36,1.91,-5.35,5.35,5.26,5.41,7.25,7.25,7.27
60.35,1.93,-5.31,1.93,-5.29,5.29,5.21,5.36,7.22,7.23,7.23
60.96,1.96,-5.26,1.96,-5.24,5.24,5.15,5.31,7.19,7.20,7.22
61.57,1.98,-5.19,1.99,-5.18,5.18,5.10,5.26,7.16,7.17,7.17
62.18,2.01,-5.12,2.02,-5.12,5.12,5.04,5.21,7.13,7.14,7.13
62.80,2.05,-5.06,2.05,-5.07,5.07,4.98,5.15,7.11,7.12,7.11
63.43,2.09,-4.98,2.08,-5.01,5.01,4.93,5.09,7.10,7.09,7.07
64.07,2.12,-4.93,2.11,-4.95,4.95,4.87,5.03,7.07,7.06,7.05
64.71,2.16,-4.87,2.14,-4.90,4.90,4.81,4.96,7.05,7.04,7.03
65.35,2.19,-4.82,2.18,-4.84,4.84,4.75,4.89,7.03,7.02,7.01
66.01,2.22,-4.78,2.21,-4.78,4.78,4.69,4.82,7.00,7.00,6.99
66.67,2.26,-4.72,2.25,-4.72,4.72,4.63,4.74,6.98,6.98,6.98
67.33,2.29,-4.68,2.30,-4.67,4.67,4.57,4.66,6.95,6.96,6.96
68.01,2.32,-4.63,2.34,-4.61,4.61,4.51,4.58,6.92,6.95,6.95
68.69,2.37,-4.56,2.38,-4.55,4.55,4.44,4.50,6.92,6.93,6.93
69.37,2.42,-4.50,2.42,-4.49,4.49,4.38,4.41,6.91,6.92,6.92
70.07,2.47,-4.43,2.47,-4.43,4.43,4.32,4.32,6.90,6.90,6.90
70.77,2.52,-4.38,2.52,-4.37,4.37,4.25,4.24,6.89,6.89,6.90
71.48,2.58,-4.30,2.57,-4.30,4.30,4.19,4.15,6.88,6.87,6.88
72.19,2.64,-4.22,2.62,-4.24,4.24,4.12,4.06,6.87,6.86,6.86
72.91,2.69,-4.16,2.67,-4.16,4.16,4.06,3.96,6.85,6.84,6.84
73.64,2.74,-4.08,2.73,-4.09,4.09,3.99,3.87,6.83,6.82,6.82
74.38,2.78,-4.03,2.79,-4.01,4.01,3.92,3.78,6.79,6.80,6.81
75.12,2.83,-3.95,2.85,-3.93,3.93,3.86,3.69,6.76,6.78,6.78
75.87,2.89,-3.87,2.91,-3.85,3.85,3.79,3.60,6.74,6.76,6.76
76.63,2.96,-3.79,2.97,-3.77,3.77,3.72,3.51,6.73,6.74,6.74
77.40,3.02,-3.70,3.02,-3.69,3.69,3.65,3.42,6.71,6.72,6.71
78.17,3.08,-3.61,3.08,-3.62,3.62,3.58,3.33,6.70,6.70,6.68
78.95,3.15,-3.54,3.14,-3.54,3.54,3.51,3.24,6.69,6.68,6.68
79.74,3.20,-3.46,3.19,-3.47,3.47,3.44,3.16,6.67,6.66,6.66
80.54,3.26,-3.38,3.24,-3.41,3.41,3.37,3.07,6.66,6.65,6.64
81.35,3.31,-3.32,3.29,-3.34,3.34,3.30,2.99,6.65,6.63,6.62
82.16,3.37,-3.24,3.34,-3.28,3.28,3.23,2.90,6.65,6.62,6.61
82.98,3.41,-3.20,3.38,-3.22,3.22,3.16,2.82,6.63,6.61,6.60
83.81,3.43,-3.16,3.43,-3.17,3.17,3.09,2.74,6.60,6.60,6.59
84.65,3.46,-3.11,3.47,-3.12,3.12,3.02,2.67,6.57,6.58,6.57
85.50,3.49,-3.09,3.50,-3.07,3.07,2.95,2.59,6.56,6.57,6.57
86.35,3.53,-3.04,3.54,-3.02,3.02,2.88,2.52,6.55,6.56,6.56
87.22,3.57,-2.98,3.57,-2.98,2.98,2.80,2.44,6.54,6.55,6.54
88.09,3.59,-2.95,3.60,-2.93,2.93,2.73,2.37,6.52,6.53,6.53
88.97,3.63,-2.90,3.63,-2.88,2.88,2.66,2.30,6.51,6.51,6.52
89.86,3.66,-2.84,3.66,-2.83,2.83,2.59,2.23,6.49,6.49,6.50
90.76,3.70,-2.77,3.69,-2.78,2.78,2.52,2.17,6.47,6.47,6.47
91.66,3.73,-2.72,3.72,-2.72,2.72,2.44,2.10,6.44,6.44,6.45
92.58,3.76,-2.64,3.75,-2.65,2.65,2.37,2.04,6.41,6.40,6.40
93.51,3.78,-2.60,3.78,-2.58,2.58,2.30,1.98,6.36,6.37,6.38
94.44,3.80,-2.54,3.81,-2.51,2.51,2.23,1.92,6.31,6.32,6.33
95.39,3.83,-2.46,3.84,-2.44,2.44,2.16,1.86,6.26,6.27,6.29
96.34,3.86,-2.37,3.86,-2.36,2.36,2.09,1.80,6.22,6.22,6.23
97.30,3.89,-2.28,3.88,-2.29,2.29,2.02,1.74,6.18,6.17,6.17
98.28,3.91,-2.20,3.89,-2.22,2.22,1.95,1.69,6.12,6.11,6.11
99.26,3.92,-2.13,3.90,-2.14,2.14,1.88,1.63,6.06,6.04,6.04
100.25,3.93,-2.05,3.90,-2.07,2.07,1.81,1.58,6.00,5.98,5.97
101.25,3.94,-1.97,3.91,-2.00,2.00,1.74,1.53,5.94,5.91,5.91
102.27,3.93,-1.91,3.91,-1.93,1.93,1.67,1.48,5.86,5.84,5.84
103.29,3.92,-1.85,3.91,-1.86,1.86,1.60,1.43,5.78,5.77,5.76
104.32,3.92,-1.79,3.91,-1.79,1.79,1.53,1.38,5.71,5.70,5.70
105.37,3.90,-1.73,3.91,-1.72,1.72,1.46,1.33,5.62,5.63,5.63
106.42,3.89,-1.67,3.91,-1.65,1.65,1.39,1.29,5.53,5.56,5.56
107.48,3.89,-1.60,3.92,-1.57,1.57,1.32,1.24,5.46,5.49,5.49
108.56,3.90,-1.53,3.93,-1.50,1.50,1.26,1.20,5.40,5.43,5.42
109.64,3.92,-1.44,3.94,-1.42,1.42,1.19,1.15,5.34,5.36,5.36
110.74,3.94,-1.36,3.96,-1.34,1.34,1.12,1.11,5.27,5.29,5.30
111.85,3.98,-1.26,3.98,-1.25,1.25,1.06,1.07,5.23,5.23,5.24
112.97,4.01,-1.16,4.00,-1.17,1.17,0.99,1.02,5.17,5.17,5.16
114.10,4.04,-1.08,4.03,-1.08,1.08,0.93,0.98,5.12,5.11,5.12
115.24,4.07,-0.99,4.07,-0.99,0.99,0.86,0.94,5.06,5.06,5.05
116.39,4.10,-0.90,4.10,-0.91,0.91,0.80,0.90,5.01,5.01,5.00
117.55,4.13,-0.82,4.13,-0.83,0.83,0.74,0.86,4.96,4.96,4.95
118.73,4.16,-0.74,4.16,-0.75,0.75,0.67,0.82,4.91,4.91,4.90
119.92,4.20,-0.66,4.18,-0.68,0.68,0.61,0.78,4.88,4.86,4.86
121.12,4.23,-0.59,4.20,-0.62,0.62,0.55,0.74,4.84,4.82,4.82
122.33,4.24,-0.54,4.22,-0.56,0.56,0.49,0.70,4.80,4.78,4.77
123.55,4.26,-0.48,4.23,-0.50,0.50,0.43,0.66,4.76,4.74,4.74
124.79,4.26,-0.44,4.24,-0.46,0.46,0.37,0.62,4.71,4.70,4.70
126.03,4.26,-0.41,4.25,-0.41,0.41,0.31,0.58,4.67,4.66,4.67
127.29,4.25,-0.38,4.25,-0.37,0.37,0.25,0.54,4.62,4.62,4.63
128.57,4.24,-0.34,4.25,-0.33,0.33,0.19,0.50,4.57,4.58,4.58
129.85,4.24,-0.31,4.25,-0.29,0.29,0.14,0.47,4.53,4.55,4.55
131.15,4.24,-0.27,4.25,-0.26,0.26,0.08,0.43,4.49,4.51,4.51
132.46,4.24,-0.23,4.25,-0.22,0.22,0.02,0.39,4.46,4.47,4.46
133.79,4.24,-0.20,4.24,-0.18,0.18,-0.03,0.35,4.42,4.43,4.44
135.12,4.24,-0.15,4.24,-0.15,0.15,-0.09,0.31,4.39,4.39,4.39
136.48,4.24,-0.12,4.24,-0.11,0.11,-0.14,0.27,4.35,4.35,4.35
137.84,4.24,-0.07,4.23,-0.07,0.07,-0.19,0.23,4.31,4.31,4.31
139.22,4.24,-0.02,4.23,-0.04,0.04,-0.25,0.19,4.27,4.27,4.26
140.61,4.24,0.02,4.23,0.00,-0.00,-0.30,0.15,4.23,4.22,4.22
142.02,4.24,0.05,4.22,0.04,-0.04,-0.35,0.11,4.20,4.18,4.18
143.44,4.24,0.09,4.22,0.08,-0.08,-0.40,0.07,4.15,4.14,4.14
144.87,4.24,0.14,4.22,0.13,-0.13,-0.45,0.02,4.11,4.10,4.09
146.32,4.23,0.18,4.22,0.17,-0.17,-0.50,-0.02,4.06,4.05,4.05
147.78,4.21,0.20,4.22,0.22,-0.22,-0.55,-0.06,3.99,4.00,4.01
149.26,4.21,0.24,4.23,0.27,-0.27,-0.60,-0.10,3.94,3.96,3.96
150.75,4.22,0.31,4.23,0.32,-0.32,-0.65,-0.15,3.89,3.91,3.91
152.26,4.23,0.36,4.24,0.38,-0.38,-0.69,-0.19,3.84,3.86,3.86
153.78,4.25,0.43,4.26,0.44,-0.44,-0.74,-0.23,3.80,3.81,3.82
155.32,4.27,0.50,4.27,0.51,-0.51,-0.78,-0.28,3.76,3.76,3.77
156.88,4.30,0.57,4.29,0.58,-0.58,-0.83,-0.32,3.72,3.71,3.73
158.44,4.33,0.66,4.32,0.65,-0.65,-0.87,-0.37,3.67,3.66,3.67
160.03,4.36,0.74,4.35,0.73,-0.73,-0.91,-0.42,3.62,3.61,3.62
161.63,4.38,0.82,4.38,0.82,-0.82,-0.95,-0.47,3.56,3.56,3.56
163.24,4.41,0.90,4.42,0.90,-0.90,-1.00,-0.51,3.50,3.52,3.51
164.88,4.45,0.98,4.46,0.99,-0.99,-1.04,-0.56,3.46,3.47,3.46
166.53,4.48,1.06,4.49,1.07,-1.07,-1.08,-0.61,3.40,3.42,3.42
168.19,4.52,1.14,4.53,1.16,-1.16,-1.12,-0.66,3.36,3.37,3.37
169.87,4.57,1.24,4.56,1.24,-1.24,-1.15,-0.71,3.33,3.33,3.33
171.57,4.62,1.33,4.60,1.32,-1.32,-1.19,-0.77,3.30,3.28,3.29
173.29,4.66,1.41,4.63,1.39,-1.39,-1.23,-0.82,3.26,3.24,3.24
175.02,4.71,1.50,4.67,1.47,-1.47,-1.26,-0.87,3.24,3.20,3.20
176.77,4.74,1.57,4.70,1.54,-1.54,-1.30,-0.93,3.20,3.17,3.16
178.54,4.74,1.61,4.74,1.61,-1.61,-1.33,-0.98,3.13,3.13,3.12
180.32,4.75,1.65,4.77,1.67,-1.67,-1.37,-1.04,3.08,3.10,3.09
182.13,4.78,1.71,4.80,1.73,-1.73,-1.40,-1.10,3.04,3.07,3.07
183.95,4.82,1.78,4.83,1.79,-1.79,-1.43,-1.16,3.03,3.04,3.04
185.79,4.86,1.84,4.86,1.85,-1.85,-1.46,-1.22,3.01,3.02,3.01
187.65,4.89,1.90,4.90,1.90,-1.90,-1.49,-1.28,2.98,2.99,2.99
189.52,4.93,1.95,4.93,1.96,-1.96,-1.52,-1.34,2.97,2.97,2.97
191.42,4.97,2.02,4.96,2.01,-2.01,-1.55,-1.40,2.95,2.95,2.95
193.33,5.00,2.06,5.00,2.07,-2.07,-1.58,-1.46,2.93,2.93,2.94
195.27,5.02,2.09,5.03,2.12,-2.12,-1.60,-1.52,2.90,2.91,2.92
197.22,5.05,2.14,5.07,2.17,-2.17,-1.63,-1.58,2.87,2.90,2.90
199.19,5.08,2.21,5.10,2.22,-2.22,-1.66,-1.65,2.86,2.88,2.87
201.18,5.12,2.26,5.12,2.26,-2.26,-1.68,-1.71,2.86,2.86,2.86
203.19,5.16,2.31,5.14,2.29,-2.29,-1.70,-1.77,2.86,2.85,2.85
205.23,5.19,2.35,5.15,2.32,-2.32,-1.73,-1.84,2.87,2.83,2.83
207.28,5.21,2.38,5.16,2.34,-2.34,-1.75,-1.90,2.86,2.82,2.82
209.35,5.20,2.39,5.16,2.36,-2.36,-1.77,-1.96,2.84,2.80,2.81
211.44,5.19,2.41,5.15,2.37,-2.37,-1.79,-2.02,2.82,2.79,2.78
213.56,5.17,2.39,5.14,2.37,-2.37,-1.81,-2.08,2.80,2.77,2.77
215.69,5.13,2.36,5.12,2.36,-2.36,-1.83,-2.14,2.76,2.76,2.77
217.85,5.08,2.34,5.10,2.36,-2.36,-1.84,-2.19,2.72,2.74,2.74
220.03,5.05,2.32,5.07,2.34,-2.34,-1.86,-2.24,2.70,2.73,2.73
222.23,5.02,2.32,5.04,2.33,-2.33,-1.87,-2.29,2.69,2.71,2.70
224.45,5.00,2.30,5.01,2.31,-2.31,-1.89,-2.34,2.68,2.70,2.70
226.70,4.96,2.27,4.98,2.30,-2.30,-1.90,-2.39,2.66,2.68,2.68
228.96,4.93,2.26,4.95,2.29,-2.29,-1.91,-2.43,2.64,2.66,2.67
231.25,4.91,2.25,4.92,2.27,-2.27,-1.93,-2.46,2.63,2.64,2.66
233.57,4.88,2.24,4.89,2.26,-2.26,-1.94,-2.50,2.62,2.63,2.64
235.90,4.84,2.22,4.86,2.25,-2.25,-1.95,-2.52,2.59,2.61,2.61
238.26,4.82,2.22,4.83,2.23,-2.23,-1.95,-2.55,2.58,2.59,2.59
240.64,4.81,2.24,4.79,2.22,-2.22,-1.96,-2.57,2.59,2.58,2.57
243.05,4.80,2.24,4.76,2.19,-2.19,-1.97,-2.58,2.60,2.57,2.56
245.48,4.77,2.22,4.72,2.17,-2.17,-1.97,-2.59,2.60,2.55,2.55
247.93,4.71,2.17,4.68,2.14,-2.14,-1.98,-2.59,2.57,2.55,2.54
250.41,4.67,2.15,4.64,2.11,-2.11,-1.98,-2.58,2.56,2.54,2.52
252.92,4.60,2.06,4.60,2.07,-2.07,-1.99,-2.57,2.53,2.54,2.53
255.45,4.55,2.01,4.56,2.03,-2.03,-1.99,-2.56,2.52,2.53,2.53
258.00,4.51,1.97,4.52,1.98,-1.98,-1.99,-2.54,2.53,2.54,2.53
260.58,4.45,1.91,4.47,1.93,-1.93,-1.99,-2.51,2.52,2.54,2.54
263.19,4.41,1.86,4.42,1.87,-1.87,-1.98,-2.48,2.53,2.55,2.55
265.82,4.36,1.81,4.38,1.82,-1.82,-1.98,-2.44,2.54,2.56,2.55
268.48,4.34,1.76,4.33,1.76,-1.76,-1.98,-2.40,2.58,2.57,2.57
271.16,4.30,1.71,4.29,1.70,-1.70,-1.97,-2.35,2.59,2.58,2.59
273.87,4.25,1.65,4.25,1.65,-1.65,-1.97,-2.30,2.60,2.60,2.60
276.61,4.22,1.59,4.21,1.60,-1.60,-1.96,-2.25,2.62,2.61,2.62
279.38,4.18,1.55,4.17,1.54,-1.54,-1.95,-2.19,2.63,2.62,2.63
282.17,4.14,1.50,4.13,1.50,-1.50,-1.94,-2.12,2.64,2.64,2.64
284.99,4.10,1.44,4.10,1.44,-1.44,-1.93,-2.06,2.65,2.65,2.66
287.84,4.06,1.39,4.06,1.39,-1.39,-1.92,-1.99,2.66,2.67,2.67
290.72,4.04,1.34,4.03,1.34,-1.34,-1.91,-1.92,2.69,2.69,2.69
293.63,4.02,1.32,4.00,1.30,-1.30,-1.89,-1.85,2.72,2.71,2.70
296.57,3.99,1.26,3.98,1.25,-1.25,-1.88,-1.78,2.73,2.72,2.72
299.53,3.96,1.22,3.96,1.22,-1.22,-1.86,-1.70,2.74,2.74,2.74
302.53,3.93,1.18,3.94,1.18,-1.18,-1.84,-1.62,2.75,2.76,2.74
305.55,3.91,1.13,3.93,1.15,-1.15,-1.82,-1.55,2.76,2.78,2.78
308.61,3.90,1.10,3.92,1.12,-1.12,-1.80,-1.47,2.77,2.80,2.80
311.69,3.89,1.06,3.92,1.10,-1.10,-1.78,-1.39,2.79,2.82,2.82
314.81,3.89,1.03,3.91,1.07,-1.07,-1.76,-1.31,2.82,2.84,2.86
317.96,3.90,1.02,3.91,1.05,-1.05,-1.74,-1.23,2.85,2.86,2.87
321.14,3.92,1.03,3.91,1.02,-1.02,-1.71,-1.15,2.89,2.89,2.89
324.35,3.94,1.03,3.90,1.00,-1.00,-1.69,-1.07,2.94,2.91,2.91
327.59,3.93,0.99,3.90,0.97,-0.97,-1.66,-0.99,2.96,2.93,2.93
330.87,3.93,0.98,3.89,0.94,-0.94,-1.63,-0.91,2.99,2.95,2.95
334.18,3.92,0.94,3.89,0.91,-0.91,-1.60,-0.83,3.01,2.98,2.98
337.52,3.89,0.89,3.88,0.87,-0.87,-1.57,-0.75,3.01,3.00,2.99
340.90,3.87,0.85,3.86,0.84,-0.84,-1.53,-0.67,3.03,3.02,3.02
344.30,3.84,0.79,3.84,0.79,-0.79,-1.50,-0.59,3.04,3.05,3.05
347.75,3.81,0.74,3.81,0.75,-0.75,-1.46,-0.51,3.06,3.07,3.07
351.23,3.78,0.68,3.78,0.69,-0.69,-1.43,-0.44,3.08,3.09,3.09
354.74,3.75,0.63,3.75,0.63,-0.63,-1.39,-0.36,3.11,3.12,3.12
358.28,3.72,0.58,3.72,0.58,-0.58,-1.35,-0.28,3.14,3.14,3.14
361.87,3.70,0.53,3.68,0.52,-0.52,-1.30,-0.20,3.18,3.16,3.17
365.49,3.66,0.46,3.65,0.46,-0.46,-1.26,-0.13,3.20,3.19,3.19
369.14,3.62,0.42,3.61,0.40,-0.40,-1.22,-0.05,3.21,3.21,3.20
372.83,3.57,0.34,3.58,0.35,-0.35,-1.17,0.02,3.22,3.23,3.23
376.56,3.53,0.28,3.55,0.29,-0.29,-1.12,0.10,3.23,3.25,3.25
380.33,3.50,0.21,3.52,0.24,-0.24,-1.07,0.18,3.25,3.27,3.29
384.13,3.47,0.17,3.48,0.19,-0.19,-1.02,0.25,3.28,3.29,3.29
387.97,3.45,0.13,3.45,0.14,-0.14,-0.97,0.32,3.31,3.31,3.31
391.85,3.43,0.11,3.42,0.09,-0.09,-0.92,0.40,3.33,3.32,3.32
395.77,3.41,0.06,3.39,0.05,-0.05,-0.86,0.47,3.36,3.34,3.35
399.73,3.37,0.01,3.36,0.01,-0.01,-0.81,0.54,3.36,3.35,3.36
403.72,3.34,-0.02,3.32,-0.03,0.03,-0.75,0.62,3.37,3.36,3.36
407.76,3.30,-0.07,3.30,-0.07,0.07,-0.69,0.69,3.36,3.36,3.36
411.84,3.25,-0.13,3.26,-0.10,0.10,-0.63,0.76,3.35,3.37,3.37
415.96,3.22,-0.15,3.23,-0.13,0.13,-0.56,0.83,3.35,3.37,3.37
420.12,3.19,-0.18,3.20,-0.17,0.17,-0.50,0.90,3.35,3.37,3.37
424.32,3.16,-0.21,3.16,-0.20,0.20,-0.43,0.97,3.36,3.37,3.37
428.56,3.14,-0.23,3.12,-0.24,0.24,-0.36,1.03,3.38,3.36,3.37
432.85,3.11,-0.25,3.08,-0.28,0.28,-0.29,1.10,3.38,3.36,3.36
437.18,3.07,-0.29,3.04,-0.31,0.31,-0.22,1.16,3.38,3.36,3.36
441.55,3.02,-0.34,3.00,-0.35,0.35,-0.15,1.23,3.37,3.35,3.35
445.96,2.97,-0.38,2.96,-0.39,0.39,-0.07,1.29,3.35,3.35,3.34
450.42,2.92,-0.43,2.92,-0.42,0.42,0.01,1.35,3.34,3.35,3.34
454.93,2.87,-0.47,2.88,-0.46,0.46,0.08,1.40,3.33,3.34,3.34
459.48,2.83,-0.50,2.84,-0.50,0.50,0.16,1.46,3.33,3.34,3.33
464.07,2.78,-0.56,2.79,-0.55,0.55,0.25,1.51,3.32,3.34,3.34
468.71,2.73,-0.61,2.74,-0.59,0.59,0.33,1.56,3.32,3.34,3.34
473.40,2.69,-0.65,2.70,-0.64,0.64,0.42,1.61,3.33,3.34,3.34
478.13,2.66,-0.69,2.65,-0.69,0.69,0.50,1.66,3.35,3.34,3.35
482.91,2.62,-0.72,2.60,-0.74,0.74,0.59,1.70,3.36,3.34,3.34
487.74,2.57,-0.78,2.55,-0.79,0.79,0.68,1.74,3.36,3.34,3.35
492.62,2.51,-0.85,2.50,-0.85,0.85,0.78,1.78,3.35,3.34,3.35
497.55,2.45,-0.90,2.45,-0.90,0.90,0.87,1.82,3.35,3.35,3.34
502.52,2.39,-0.97,2.40,-0.96,0.96,0.97,1.85,3.34,3.35,3.35
507.55,2.34,-1.02,2.34,-1.02,1.02,1.06,1.88,3.35,3.36,3.35
512.62,2.29,-1.08,2.28,-1.08,1.08,1.16,1.91,3.37,3.37,3.36
517.75,2.23,-1.15,2.23,-1.15,1.15,1.26,1.93,3.37,3.37,3.37
522.93,2.17,-1.21,2.17,-1.21,1.21,1.37,1.95,3.38,3.38,3.38
528.16,2.11,-1.27,2.11,-1.28,1.28,1.47,1.97,3.39,3.39,3.38
533.44,2.06,-1.33,2.05,-1.35,1.35,1.58,1.99,3.41,3.40,3.39
538.77,1.99,-1.42,1.99,-1.42,1.42,1.68,2.01,3.41,3.41,3.41
