frequency,raw,error,smoothed,error_smoothed,equalization,parametric_eq,fixed_band_eq,equalized_raw,equalized_smoothed,target
20.00,-6.09,-10.69,-6.09,-10.69,10.69,10.17,3.90,4.60,4.60,4.60
20.20,-5.98,-10.67,-5.98,-10.67,10.67,10.23,4.01,4.69,4.69,4.69
20.40,-5.87,-10.64,-5.88,-10.65,10.65,10.29,4.12,4.78,4.77,4.77
20.61,-5.78,-10.61,-5.77,-10.62,10.62,10.34,4.23,4.85,4.85,4.84
20.81,-5.66,-10.59,-5.66,-10.59,10.59,10.38,4.34,4.93,4.93,4.93
21.02,-5.55,-10.56,-5.55,-10.56,10.55,10.42,4.46,5.00,5.00,5.01
21.23,-5.44,-10.51,-5.45,-10.52,10.51,10.44,4.58,5.07,5.07,5.07
21.44,-5.34,-10.47,-5.34,-10.47,10.47,10.46,4.70,5.12,5.13,5.13
21.66,-5.23,-10.42,-5.23,-10.41,10.42,10.46,4.83,5.18,5.18,5.18
21.87,-5.12,-10.35,-5.12,-10.36,10.36,10.46,4.96,5.24,5.24,5.23
22.09,-5.01,-10.29,-5.02,-10.30,10.30,10.45,5.10,5.29,5.28,5.28
22.31,-4.91,-10.24,-4.91,-10.24,10.24,10.43,5.24,5.32,5.33,5.33
22.54,-4.81,-10.18,-4.80,-10.17,10.17,10.40,5.38,5.36,5.37,5.37
22.76,-4.69,-10.10,-4.70,-10.10,10.10,10.37,5.53,5.41,5.41,5.41
22.99,-4.58,-10.02,-4.59,-10.03,10.04,10.32,5.68,5.45,5.45,5.44
23.22,-4.48,-9.96,-4.48,-9.96,9.97,10.27,5.83,5.48,5.49,5.48
23.45,-4.37,-9.89,-4.37,-9.89,9.90,10.21,5.99,5.53,5.53,5.52
23.69,-4.27,-9.83,-4.26,-9.83,9.83,10.15,6.15,5.56,5.56,5.56
23.92,-4.15,-9.75,-4.16,-9.76,9.76,10.08,6.31,5.60,5.60,5.60
24.16,-4.05,-9.70,-4.05,-9.69,9.69,10.00,6.48,5.63,5.64,5.65
24.40,-3.94,-9.62,-3.94,-9.62,9.61,9.92,6.65,5.67,5.67,5.68
24.65,-3.83,-9.54,-3.84,-9.54,9.54,9.84,6.82,5.71,5.71,5.70
24.89,-3.73,-9.46,-3.73,-9.46,9.47,9.75,7.00,5.74,5.74,5.73
25.14,-3.62,-9.39,-3.62,-9.39,9.40,9.66,7.18,5.77,5.77,5.77
25.39,-3.52,-9.32,-3.52,-9.32,9.32,9.56,7.36,5.80,5.80,5.80
25.65,-3.41,-9.25,-3.42,-9.25,9.25,9.47,7.55,5.84,5.84,5.84
25.91,-3.32,-9.18,-3.31,-9.18,9.18,9.37,7.73,5.87,5.87,5.86
26.16,-3.21,-9.10,-3.21,-9.11,9.11,9.27,7.92,5.90,5.90,5.89
26.43,-3.11,-9.05,-3.11,-9.04,9.04,9.16,8.11,5.92,5.92,5.93
26.69,-3.01,-8.97,-3.01,-8.97,8.97,9.06,8.29,5.95,5.95,5.96
26.96,-2.91,-8.91,-2.91,-8.90,8.90,8.96,8.48,5.98,5.98,5.99
27.23,-2.80,-8.83,-2.81,-8.83,8.82,8.85,8.66,6.02,6.02,6.02
27.50,-2.70,-8.75,-2.70,-8.75,8.75,8.75,8.84,6.05,6.05,6.05
27.77,-2.60,-8.67,-2.60,-8.68,8.69,8.65,9.02,6.08,6.08,6.07
28.05,-2.50,-8.61,-2.51,-8.61,8.62,8.55,9.18,6.11,6.11,6.11
28.33,-2.41,-8.54,-2.41,-8.55,8.55,8.45,9.35,6.13,6.14,6.13
28.62,-2.32,-8.49,-2.32,-8.48,8.48,8.35,9.50,6.16,6.16,6.16
28.90,-2.22,-8.42,-2.23,-8.42,8.42,8.25,9.65,6.19,6.19,6.20
29.19,-2.13,-8.35,-2.13,-8.36,8.35,8.15,9.78,6.22,6.22,6.22
29.48,-2.03,-8.30,-2.03,-8.29,8.30,8.06,9.90,6.26,6.26,6.27
29.78,-1.94,-8.23,-1.94,-8.23,8.24,7.96,10.01,6.29,6.29,6.28
30.08,-1.85,-8.17,-1.86,-8.17,8.18,7.87,10.10,6.33,6.32,6.31
30.38,-1.78,-8.12,-1.78,-8.12,8.13,7.78,10.17,6.34,6.34,6.34
30.68,-1.71,-8.08,-1.71,-8.08,8.07,7.70,10.23,6.36,6.36,6.37
30.99,-1.63,-8.02,-1.63,-8.03,8.02,7.61,10.26,6.38,6.38,6.39
31.30,-1.55,-7.97,-1.55,-7.97,7.96,7.53,10.28,6.41,6.41,6.41
31.61,-1.47,-7.91,-1.47,-7.91,7.91,7.45,10.28,6.44,6.44,6.44
31.93,-1.39,-7.86,-1.40,-7.86,7.86,7.37,10.27,6.47,6.47,6.46
32.24,-1.32,-7.80,-1.32,-7.80,7.81,7.30,10.23,6.49,6.49,6.48
32.57,-1.24,-7.75,-1.25,-7.75,7.76,7.23,10.17,6.51,6.51,6.51
32.89,-1.17,-7.70,-1.17,-7.71,7.70,7.16,10.10,6.53,6.53,6.53
33.22,-1.10,-7.65,-1.10,-7.65,7.65,7.09,10.02,6.55,6.55,6.55
33.55,-1.03,-7.60,-1.03,-7.60,7.60,7.03,9.92,6.56,6.57,6.57
33.89,-0.95,-7.53,-0.96,-7.54,7.54,6.97,9.81,6.59,6.59,6.58
34.23,-0.88,-7.48,-0.89,-7.48,7.49,6.91,9.68,6.60,6.60,6.60
34.57,-0.82,-7.43,-0.82,-7.43,7.43,6.85,9.55,6.61,6.61,6.61
34.92,-0.75,-7.37,-0.75,-7.38,7.37,6.80,9.41,6.62,6.62,6.62
35.27,-0.68,-7.32,-0.68,-7.31,7.31,6.75,9.26,6.63,6.63,6.64
35.62,-0.61,-7.24,-0.61,-7.25,7.25,6.70,9.11,6.64,6.64,6.63
35.97,-0.54,-7.18,-0.54,-7.19,7.19,6.66,8.95,6.64,6.64,6.64
36.33,-0.47,-7.13,-0.47,-7.12,7.12,6.61,8.79,6.65,6.65,6.66
36.70,-0.40,-7.05,-0.40,-7.06,7.05,6.57,8.63,6.65,6.65,6.65
37.06,-0.33,-6.98,-0.33,-6.99,6.99,6.53,8.47,6.65,6.66,6.65
37.43,-0.26,-6.91,-0.26,-6.91,6.92,6.50,8.31,6.66,6.66,6.65
37.81,-0.19,-6.84,-0.20,-6.85,6.85,6.46,8.15,6.66,6.66,6.65
38.19,-0.13,-6.78,-0.13,-6.79,6.79,6.43,7.99,6.65,6.65,6.65
38.57,-0.07,-6.72,-0.07,-6.72,6.72,6.40,7.83,6.65,6.65,6.65
38.95,-0.01,-6.66,-0.01,-6.66,6.65,6.37,7.68,6.64,6.64,6.65
39.34,0.05,-6.58,0.05,-6.59,6.59,6.35,7.52,6.64,6.64,6.63
39.74,0.11,-6.52,0.11,-6.52,6.52,6.32,7.37,6.63,6.63,6.63
40.14,0.17,-6.46,0.17,-6.46,6.46,6.30,7.23,6.62,6.62,6.62
40.54,0.23,-6.39,0.23,-6.39,6.39,6.27,7.09,6.62,6.62,6.62
40.94,0.29,-6.32,0.29,-6.33,6.33,6.25,6.95,6.62,6.61,6.61
41.35,0.35,-6.26,0.34,-6.26,6.26,6.23,6.82,6.61,6.61,6.61
41.76,0.40,-6.20,0.40,-6.20,6.20,6.21,6.69,6.60,6.60,6.60
42.18,0.46,-6.13,0.46,-6.14,6.14,6.18,6.56,6.59,6.59,6.59
42.60,0.52,-6.06,0.51,-6.07,6.07,6.16,6.44,6.59,6.58,6.58
43.03,0.57,-6.01,0.57,-6.01,6.01,6.14,6.33,6.57,6.58,6.58
43.46,0.63,-5.94,0.62,-5.94,5.94,6.12,6.21,6.57,6.56,6.57
43.90,0.68,-5.88,0.68,-5.88,5.87,6.09,6.11,6.55,6.55,6.55
44.33,0.73,-5.80,0.73,-5.81,5.81,6.07,6.00,6.53,6.53,6.53
44.78,0.78,-5.74,0.78,-5.74,5.74,6.04,5.91,6.52,6.52,6.52
45.23,0.84,-5.68,0.84,-5.67,5.67,6.01,5.81,6.51,6.51,6.51
45.68,0.90,-5.60,0.89,-5.61,5.61,5.98,5.72,6.51,6.50,6.50
46.13,0.95,-5.54,0.95,-5.54,5.55,5.95,5.64,6.50,6.50,6.49
46.60,1.01,-5.48,1.00,-5.48,5.49,5.92,5.55,6.50,6.49,6.49
47.06,1.06,-5.42,1.05,-5.43,5.43,5.88,5.48,6.49,6.49,6.48
47.53,1.10,-5.37,1.10,-5.38,5.38,5.84,5.40,6.47,6.47,6.47
48.01,1.14,-5.33,1.14,-5.33,5.32,5.80,5.33,6.46,6.46,6.47
48.49,1.18,-5.28,1.18,-5.28,5.27,5.76,5.27,6.45,6.45,6.46
48.97,1.23,-5.22,1.22,-5.22,5.22,5.71,5.20,6.45,6.44,6.45
49.46,1.27,-5.16,1.27,-5.16,5.17,5.66,5.14,6.44,6.44,6.43
49.96,1.32,-5.10,1.31,-5.11,5.12,5.61,5.09,6.44,6.44,6.42
50.46,1.36,-5.07,1.36,-5.07,5.08,5.55,5.03,6.43,6.43,6.43
50.96,1.40,-5.03,1.40,-5.03,5.03,5.49,4.98,6.43,6.43,6.43
51.47,1.44,-4.98,1.44,-4.99,4.99,5.43,4.93,6.42,6.42,6.42
51.99,1.48,-4.94,1.48,-4.95,4.94,5.37,4.89,6.42,6.42,6.42
52.51,1.52,-4.90,1.51,-4.91,4.91,5.30,4.84,6.42,6.42,6.42
53.03,1.55,-4.87,1.55,-4.87,4.87,5.24,4.80,6.41,6.42,6.42
53.56,1.60,-4.82,1.59,-4.83,4.83,5.17,4.76,6.42,6.42,6.42
54.10,1.63,-4.78,1.63,-4.79,4.79,5.10,4.72,6.41,6.41,6.41
54.64,1.66,-4.74,1.66,-4.74,4.74,5.02,4.68,6.40,6.40,6.40
55.18,1.69,-4.70,1.69,-4.70,4.70,4.95,4.65,6.39,6.39,6.39
55.74,1.72,-4.65,1.72,-4.66,4.66,4.88,4.61,6.38,6.38,6.37
56.29,1.75,-4.62,1.75,-4.62,4.62,4.80,4.57,6.36,6.36,6.37
56.86,1.78,-4.57,1.78,-4.57,4.57,4.72,4.53,6.35,6.35,6.35
57.42,1.81,-4.52,1.81,-4.53,4.53,4.65,4.50,6.34,6.34,6.33
58.00,1.84,-4.48,1.83,-4.48,4.49,4.57,4.46,6.33,6.33,6.32
58.58,1.86,-4.44,1.86,-4.44,4.45,4.50,4.42,6.31,6.31,6.30
59.16,1.89,-4.40,1.88,-4.40,4.40,4.42,4.38,6.29,6.29,6.29
59.76,1.91,-4.36,1.91,-4.36,4.36,4.35,4.33,6.26,6.26,6.27
60.35,1.93,-4.31,1.93,-4.32,4.31,4.27,4.29,6.24,6.24,6.24
60.96,1.96,-4.27,1.95,-4.26,4.26,4.20,4.24,6.21,6.21,6.23
61.57,1.98,-4.20,1.98,-4.21,4.20,4.13,4.20,6.18,6.18,6.18
62.18,2.01,-4.14,2.01,-4.15,4.15,4.06,4.14,6.15,6.16,6.15
62.80,2.05,-4.09,2.04,-4.08,4.09,3.99,4.09,6.13,6.13,6.14
63.43,2.09,-4.01,2.08,-4.02,4.03,3.93,4.04,6.12,6.11,6.10
64.07,2.12,-3.96,2.12,-3.96,3.97,3.86,3.98,6.09,6.09,6.08
64.71,2.16,-3.91,2.15,-3.91,3.92,3.80,3.92,6.08,6.07,6.07
65.35,2.19,-3.86,2.19,-3.87,3.87,3.74,3.86,6.06,6.06,6.05
66.01,2.22,-3.82,2.22,-3.82,3.82,3.68,3.80,6.04,6.04,6.04
66.67,2.26,-3.77,2.25,-3.78,3.78,3.62,3.73,6.03,6.03,6.03
67.33,2.29,-3.73,2.29,-3.73,3.73,3.57,3.66,6.02,6.02,6.02
68.01,2.32,-3.69,2.32,-3.69,3.68,3.52,3.59,6.00,6.01,6.01
68.69,2.37,-3.63,2.37,-3.64,3.63,3.47,3.52,6.00,6.00,6.00
69.37,2.42,-3.58,2.41,-3.58,3.58,3.42,3.45,6.00,5.99,6.00
70.07,2.47,-3.52,2.47,-3.53,3.52,3.37,3.38,5.99,5.99,5.99
70.77,2.52,-3.47,2.52,-3.47,3.46,3.33,3.30,5.98,5.98,5.99
71.48,2.58,-3.40,2.58,-3.40,3.40,3.28,3.23,5.98,5.98,5.98
72.19,2.64,-3.32,2.63,-3.33,3.34,3.24,3.15,5.98,5.98,5.96
72.91,2.69,-3.27,2.69,-3.27,3.28,3.20,3.08,5.97,5.96,5.96
73.64,2.74,-3.20,2.73,-3.21,3.21,3.16,3.00,5.95,5.95,5.94
74.38,2.78,-3.15,2.78,-3.15,3.14,3.12,2.93,5.92,5.92,5.93
75.12,2.83,-3.08,2.83,-3.08,3.07,3.08,2.85,5.90,5.90,5.91
75.87,2.89,-3.01,2.89,-3.01,3.00,3.03,2.78,5.89,5.89,5.90
76.63,2.96,-2.93,2.95,-2.93,2.93,2.99,2.70,5.89,5.88,5.89
77.40,3.02,-2.85,3.02,-2.85,2.86,2.95,2.63,5.87,5.87,5.87
78.17,3.08,-2.77,3.08,-2.78,2.78,2.90,2.55,5.86,5.86,5.85
78.95,3.15,-2.70,3.14,-2.71,2.71,2.85,2.48,5.85,5.85,5.85
79.74,3.20,-2.64,3.20,-2.64,2.64,2.80,2.41,5.84,5.84,5.84
80.54,3.26,-2.57,3.26,-2.57,2.58,2.75,2.34,5.83,5.83,5.83
81.35,3.31,-2.51,3.31,-2.51,2.52,2.69,2.27,5.82,5.83,5.82
82.16,3.37,-2.44,3.36,-2.46,2.47,2.63,2.20,5.83,5.83,5.81
82.98,3.41,-2.41,3.40,-2.41,2.42,2.57,2.13,5.83,5.82,5.82
83.81,3.43,-2.38,3.43,-2.38,2.38,2.51,2.06,5.81,5.81,5.81
84.65,3.46,-2.34,3.46,-2.35,2.35,2.44,2.00,5.80,5.80,5.80
85.50,3.49,-2.32,3.49,-2.32,2.31,2.38,1.93,5.80,5.80,5.81
86.35,3.53,-2.28,3.53,-2.28,2.28,2.31,1.87,5.80,5.80,5.81
87.22,3.57,-2.23,3.56,-2.25,2.24,2.24,1.81,5.81,5.80,5.80
88.09,3.59,-2.21,3.59,-2.21,2.20,2.17,1.74,5.79,5.80,5.80
88.97,3.63,-2.16,3.63,-2.17,2.16,2.10,1.68,5.79,5.79,5.79
89.86,3.66,-2.12,3.66,-2.12,2.12,2.03,1.63,5.77,5.78,5.78
90.76,3.70,-2.06,3.70,-2.07,2.07,1.96,1.57,5.77,5.77,5.76
91.66,3.73,-2.01,3.73,-2.01,2.02,1.89,1.51,5.75,5.75,5.74
92.58,3.76,-1.95,3.75,-1.96,1.97,1.82,1.46,5.72,5.72,5.71
93.51,3.78,-1.91,3.78,-1.91,1.91,1.76,1.40,5.69,5.69,5.69
94.44,3.80,-1.86,3.80,-1.86,1.85,1.69,1.35,5.64,5.65,5.66
95.39,3.83,-1.79,3.83,-1.80,1.78,1.62,1.30,5.61,5.61,5.62
96.34,3.86,-1.72,3.86,-1.72,1.71,1.56,1.25,5.57,5.57,5.58
97.30,3.89,-1.63,3.88,-1.64,1.64,1.50,1.20,5.53,5.53,5.52
98.28,3.91,-1.56,3.90,-1.57,1.57,1.44,1.15,5.48,5.48,5.47
99.26,3.92,-1.50,3.92,-1.50,1.51,1.38,1.10,5.42,5.43,5.42
100.25,3.93,-1.43,3.93,-1.43,1.44,1.32,1.05,5.37,5.37,5.36
101.25,3.94,-1.36,3.93,-1.37,1.38,1.26,1.00,5.31,5.31,5.30
102.27,3.93,-1.31,3.93,-1.31,1.32,1.21,0.96,5.25,5.25,5.24
103.29,3.92,-1.26,3.92,-1.26,1.27,1.15,0.91,5.18,5.19,5.18
104.32,3.92,-1.21,3.91,-1.21,1.22,1.10,0.87,5.13,5.13,5.13
105.37,3.90,-1.16,3.90,-1.17,1.16,1.05,0.83,5.06,5.06,5.06
106.42,3.89,-1.11,3.89,-1.12,1.11,1.00,0.78,4.99,5.00,5.00
107.48,3.89,-1.06,3.89,-1.06,1.05,0.95,0.74,4.93,4.94,4.95
108.56,3.90,-0.99,3.90,-0.99,0.98,0.90,0.70,4.88,4.88,4.89
109.64,3.92,-0.91,3.92,-0.92,0.91,0.85,0.66,4.83,4.83,4.83
110.74,3.94,-0.84,3.94,-0.84,0.84,0.80,0.62,4.77,4.78,4.78
111.85,3.98,-0.76,3.97,-0.76,0.76,0.76,0.58,4.74,4.73,4.74
112.97,4.01,-0.66,4.01,-0.68,0.68,0.71,0.54,4.68,4.68,4.67
114.10,4.04,-0.59,4.04,-0.59,0.60,0.67,0.50,4.63,4.63,4.63
115.24,4.07,-0.51,4.07,-0.51,0.51,0.62,0.47,4.58,4.58,4.58
116.39,4.10,-0.43,4.10,-0.44,0.44,0.58,0.43,4.53,4.53,4.53
117.55,4.13,-0.36,4.13,-0.36,0.36,0.54,0.39,4.49,4.49,4.49
118.73,4.16,-0.29,4.16,-0.29,0.29,0.49,0.36,4.45,4.45,4.45
119.92,4.20,-0.22,4.19,-0.23,0.23,0.45,0.32,4.43,4.42,4.42
121.12,4.23,-0.16,4.22,-0.17,0.18,0.41,0.29,4.40,4.40,4.39
122.33,4.24,-0.12,4.24,-0.12,0.13,0.36,0.25,4.36,4.37,4.36
123.55,4.26,-0.07,4.25,-0.08,0.09,0.32,0.22,4.34,4.34,4.33
124.79,4.26,-0.04,4.26,-0.05,0.05,0.28,0.18,4.31,4.31,4.30
126.03,4.26,-0.02,4.25,-0.02,0.02,0.24,0.15,4.28,4.28,4.28
127.29,4.25,-0.00,4.25,-0.00,-0.01,0.19,0.12,4.24,4.24,4.25
128.57,4.24,0.03,4.24,0.02,-0.03,0.15,0.09,4.21,4.21,4.21
129.85,4.24,0.05,4.24,0.05,-0.05,0.11,0.05,4.18,4.18,4.19
131.15,4.24,0.08,4.24,0.08,-0.08,0.07,0.02,4.16,4.16,4.16
132.46,4.24,0.12,4.24,0.11,-0.11,0.02,-0.01,4.13,4.13,4.12
133.79,4.24,0.14,4.24,0.14,-0.14,-0.02,-0.04,4.10,4.10,4.10
135.12,4.24,0.17,4.24,0.17,-0.17,-0.06,-0.08,4.07,4.07,4.07
136.48,4.24,0.20,4.24,0.20,-0.20,-0.11,-0.11,4.04,4.04,4.04
137.84,4.24,0.23,4.24,0.23,-0.23,-0.15,-0.14,4.00,4.00,4.01
139.22,4.24,0.28,4.24,0.27,-0.27,-0.20,-0.17,3.97,3.97,3.96
140.61,4.24,0.31,4.24,0.30,-0.30,-0.25,-0.20,3.94,3.94,3.93
142.02,4.24,0.33,4.24,0.33,-0.33,-0.29,-0.24,3.91,3.91,3.91
143.44,4.24,0.37,4.24,0.37,-0.36,-0.34,-0.27,3.88,3.88,3.87
144.87,4.24,0.41,4.23,0.40,-0.39,-0.39,-0.30,3.85,3.84,3.83
146.32,4.23,0.44,4.22,0.43,-0.42,-0.44,-0.34,3.80,3.80,3.79
147.78,4.21,0.45,4.21,0.45,-0.46,-0.49,-0.37,3.75,3.76,3.76
149.26,4.21,0.48,4.21,0.49,-0.50,-0.54,-0.40,3.71,3.71,3.73
150.75,4.22,0.54,4.21,0.53,-0.54,-0.59,-0.44,3.68,3.68,3.68
152.26,4.23,0.59,4.23,0.58,-0.59,-0.64,-0.47,3.64,3.64,3.64
153.78,4.25,0.64,4.25,0.64,-0.64,-0.70,-0.51,3.60,3.60,3.61
155.32,4.27,0.71,4.27,0.70,-0.71,-0.75,-0.54,3.56,3.56,3.56
156.88,4.30,0.77,4.30,0.77,-0.77,-0.81,-0.58,3.52,3.52,3.53
158.44,4.33,0.86,4.33,0.85,-0.84,-0.87,-0.62,3.48,3.48,3.47
160.03,4.36,0.93,4.35,0.92,-0.92,-0.92,-0.66,3.44,3.44,3.43
161.63,4.38,1.00,4.38,1.00,-0.99,-0.98,-0.70,3.39,3.39,3.38
163.24,4.41,1.07,4.41,1.07,-1.07,-1.04,-0.74,3.34,3.34,3.34
164.88,4.45,1.15,4.44,1.14,-1.15,-1.11,-0.78,3.30,3.29,3.30
166.53,4.48,1.22,4.48,1.22,-1.23,-1.17,-0.82,3.25,3.25,3.26
168.19,4.52,1.30,4.52,1.30,-1.31,-1.23,-0.86,3.21,3.21,3.22
169.87,4.57,1.39,4.56,1.38,-1.39,-1.30,-0.90,3.18,3.18,3.18
171.57,4.62,1.47,4.61,1.47,-1.47,-1.36,-0.95,3.15,3.15,3.15
173.29,4.66,1.55,4.66,1.55,-1.54,-1.43,-0.99,3.12,3.13,3.11
175.02,4.71,1.64,4.70,1.63,-1.61,-1.50,-1.04,3.10,3.10,3.07
176.77,4.74,1.70,4.73,1.69,-1.67,-1.56,-1.09,3.07,3.06,3.04
178.54,4.74,1.73,4.74,1.73,-1.73,-1.63,-1.13,3.01,3.01,3.01
180.32,4.75,1.77,4.75,1.77,-1.78,-1.70,-1.18,2.96,2.97,2.98
182.13,4.78,1.82,4.78,1.82,-1.84,-1.76,-1.23,2.94,2.94,2.96
183.95,4.82,1.88,4.81,1.87,-1.89,-1.83,-1.29,2.93,2.93,2.94
185.79,4.86,1.94,4.85,1.93,-1.93,-1.90,-1.34,2.92,2.92,2.92
187.65,4.89,1.99,4.89,1.99,-1.98,-1.96,-1.39,2.90,2.91,2.90
189.52,4.93,2.04,4.93,2.04,-2.03,-2.03,-1.44,2.90,2.90,2.89
191.42,4.97,2.10,4.96,2.09,-2.08,-2.09,-1.50,2.88,2.88,2.87
193.33,5.00,2.14,4.99,2.13,-2.13,-2.15,-1.55,2.86,2.86,2.86
195.27,5.02,2.17,5.02,2.17,-2.18,-2.20,-1.61,2.84,2.84,2.85
197.22,5.05,2.22,5.05,2.22,-2.23,-2.26,-1.66,2.82,2.82,2.83
199.19,5.08,2.27,5.08,2.26,-2.28,-2.31,-1.72,2.80,2.80,2.81
201.18,5.12,2.32,5.12,2.32,-2.32,-2.35,-1.78,2.80,2.80,2.80
203.19,5.16,2.36,5.16,2.36,-2.36,-2.40,-1.83,2.80,2.80,2.80
205.23,5.19,2.41,5.19,2.40,-2.39,-2.43,-1.89,2.80,2.80,2.78
207.28,5.21,2.43,5.20,2.43,-2.41,-2.46,-1.95,2.79,2.79,2.78
209.35,5.20,2.44,5.20,2.44,-2.42,-2.49,-2.00,2.77,2.78,2.76
211.44,5.19,2.45,5.19,2.44,-2.43,-2.51,-2.06,2.76,2.76,2.74
213.56,5.17,2.44,5.16,2.43,-2.42,-2.53,-2.11,2.75,2.74,2.73
215.69,5.13,2.40,5.12,2.40,-2.40,-2.54,-2.16,2.72,2.72,2.73
217.85,5.08,2.37,5.08,2.37,-2.38,-2.54,-2.21,2.69,2.70,2.71
220.03,5.05,2.35,5.05,2.35,-2.36,-2.53,-2.26,2.69,2.69,2.70
222.23,5.02,2.34,5.02,2.33,-2.34,-2.53,-2.30,2.68,2.68,2.68
224.45,5.00,2.32,4.99,2.31,-2.31,-2.51,-2.35,2.68,2.68,2.68
226.70,4.96,2.30,4.96,2.30,-2.29,-2.49,-2.39,2.66,2.67,2.66
228.96,4.93,2.28,4.93,2.28,-2.28,-2.46,-2.42,2.65,2.65,2.65
231.25,4.91,2.27,4.90,2.26,-2.27,-2.43,-2.45,2.64,2.63,2.64
233.57,4.88,2.26,4.87,2.25,-2.26,-2.40,-2.48,2.62,2.61,2.62
235.90,4.84,2.23,4.84,2.24,-2.25,-2.36,-2.51,2.58,2.59,2.61
238.26,4.82,2.23,4.82,2.23,-2.24,-2.31,-2.53,2.57,2.58,2.59
240.64,4.81,2.24,4.81,2.23,-2.23,-2.27,-2.54,2.58,2.58,2.57
243.05,4.80,2.24,4.79,2.23,-2.21,-2.22,-2.55,2.58,2.58,2.56
245.48,4.77,2.22,4.76,2.21,-2.19,-2.16,-2.55,2.58,2.57,2.55
247.93,4.71,2.17,4.72,2.17,-2.16,-2.11,-2.55,2.55,2.56,2.54
250.41,4.67,2.14,4.66,2.12,-2.12,-2.05,-2.55,2.55,2.54,2.53
252.92,4.60,2.06,4.60,2.07,-2.07,-1.99,-2.53,2.53,2.53,2.54
255.45,4.55,2.01,4.55,2.01,-2.02,-1.93,-2.52,2.53,2.53,2.54
258.00,4.51,1.96,4.50,1.95,-1.96,-1.88,-2.49,2.54,2.54,2.55
260.58,4.45,1.90,4.45,1.90,-1.90,-1.82,-2.47,2.54,2.55,2.55
263.19,4.41,1.85,4.41,1.84,-1.85,-1.76,-2.43,2.56,2.56,2.56
265.82,4.36,1.79,4.37,1.79,-1.79,-1.70,-2.39,2.57,2.58,2.57
268.48,4.34,1.75,4.33,1.74,-1.74,-1.64,-2.35,2.60,2.59,2.59
271.16,4.30,1.69,4.29,1.68,-1.68,-1.58,-2.30,2.62,2.61,2.61
273.87,4.25,1.63,4.26,1.63,-1.63,-1.52,-2.25,2.62,2.63,2.62
276.61,4.22,1.57,4.21,1.57,-1.57,-1.46,-2.20,2.64,2.64,2.65
279.38,4.18,1.53,4.18,1.52,-1.52,-1.41,-2.14,2.66,2.66,2.65
282.17,4.14,1.47,4.14,1.47,-1.47,-1.35,-2.08,2.67,2.67,2.67
284.99,4.10,1.42,4.10,1.41,-1.42,-1.30,-2.01,2.68,2.68,2.68
287.84,4.06,1.36,4.06,1.36,-1.37,-1.25,-1.94,2.69,2.70,2.70
290.72,4.04,1.32,4.04,1.32,-1.32,-1.20,-1.87,2.72,2.72,2.72
293.63,4.02,1.29,4.01,1.27,-1.27,-1.15,-1.80,2.74,2.74,2.73
296.57,3.99,1.23,3.99,1.23,-1.23,-1.10,-1.73,2.76,2.76,2.76
299.53,3.96,1.19,3.96,1.19,-1.18,-1.05,-1.65,2.78,2.78,2.77
302.53,3.93,1.15,3.93,1.14,-1.14,-1.00,-1.58,2.79,2.79,2.78
305.55,3.91,1.10,3.91,1.10,-1.10,-0.96,-1.50,2.81,2.81,2.81
308.61,3.90,1.07,3.89,1.06,-1.07,-0.91,-1.42,2.83,2.83,2.83
311.69,3.89,1.03,3.89,1.02,-1.04,-0.87,-1.34,2.85,2.85,2.86
314.81,3.89,0.99,3.89,1.00,-1.02,-0.83,-1.27,2.87,2.87,2.90
317.96,3.90,0.99,3.90,0.99,-1.00,-0.79,-1.19,2.90,2.90,2.91
321.14,3.92,0.99,3.92,0.98,-0.98,-0.75,-1.11,2.93,2.93,2.93
324.35,3.94,0.99,3.93,0.98,-0.96,-0.71,-1.03,2.97,2.96,2.95
327.59,3.93,0.96,3.93,0.96,-0.94,-0.67,-0.95,2.98,2.99,2.97
330.87,3.93,0.94,3.93,0.93,-0.92,-0.64,-0.87,3.01,3.01,2.99
334.18,3.92,0.90,3.91,0.89,-0.89,-0.60,-0.79,3.03,3.02,3.02
337.52,3.89,0.85,3.89,0.85,-0.85,-0.57,-0.71,3.04,3.04,3.04
340.90,3.87,0.81,3.87,0.80,-0.80,-0.53,-0.63,3.06,3.06,3.06
344.30,3.84,0.75,3.84,0.75,-0.75,-0.50,-0.55,3.08,3.08,3.09
347.75,3.81,0.70,3.81,0.69,-0.70,-0.47,-0.47,3.11,3.11,3.11
351.23,3.78,0.64,3.78,0.64,-0.64,-0.44,-0.40,3.13,3.13,3.14
354.74,3.75,0.58,3.75,0.58,-0.59,-0.40,-0.32,3.16,3.16,3.17
358.28,3.72,0.54,3.72,0.53,-0.53,-0.37,-0.24,3.19,3.19,3.18
361.87,3.70,0.49,3.69,0.48,-0.47,-0.34,-0.16,3.23,3.22,3.21
365.49,3.66,0.42,3.66,0.42,-0.41,-0.31,-0.09,3.25,3.25,3.24
369.14,3.62,0.37,3.61,0.36,-0.35,-0.28,-0.01,3.27,3.26,3.25
372.83,3.57,0.29,3.57,0.29,-0.29,-0.26,0.07,3.27,3.28,3.28
376.56,3.53,0.23,3.53,0.23,-0.24,-0.23,0.14,3.29,3.29,3.30
380.33,3.50,0.17,3.49,0.17,-0.19,-0.20,0.22,3.31,3.31,3.33
384.13,3.47,0.13,3.47,0.13,-0.13,-0.17,0.29,3.33,3.33,3.34
387.97,3.45,0.09,3.45,0.09,-0.09,-0.15,0.37,3.36,3.36,3.36
391.85,3.43,0.06,3.43,0.05,-0.04,-0.12,0.44,3.39,3.39,3.37
395.77,3.41,0.01,3.40,0.01,0.00,-0.09,0.51,3.41,3.41,3.40
399.73,3.37,-0.04,3.37,-0.03,0.05,-0.06,0.59,3.41,3.42,3.41
403.72,3.34,-0.07,3.33,-0.08,0.09,-0.04,0.66,3.42,3.42,3.41
407.76,3.30,-0.12,3.29,-0.13,0.12,-0.01,0.73,3.42,3.42,3.42
411.84,3.25,-0.18,3.25,-0.17,0.16,0.02,0.80,3.41,3.41,3.43
415.96,3.22,-0.20,3.22,-0.21,0.19,0.04,0.87,3.41,3.41,3.42
420.12,3.19,-0.23,3.19,-0.24,0.23,0.07,0.94,3.41,3.41,3.42
424.32,3.16,-0.26,3.16,-0.26,0.26,0.10,1.01,3.42,3.42,3.42
428.56,3.14,-0.28,3.13,-0.28,0.29,0.13,1.08,3.43,3.43,3.42
432.85,3.11,-0.30,3.10,-0.31,0.32,0.15,1.14,3.43,3.43,3.41
437.18,3.07,-0.34,3.07,-0.35,0.36,0.18,1.21,3.42,3.42,3.41
441.55,3.02,-0.39,3.02,-0.39,0.40,0.21,1.27,3.41,3.41,3.41
445.96,2.97,-0.43,2.97,-0.44,0.44,0.24,1.33,3.40,3.40,3.40
450.42,2.92,-0.48,2.92,-0.48,0.48,0.27,1.39,3.40,3.40,3.40
454.93,2.87,-0.53,2.87,-0.53,0.53,0.30,1.45,3.39,3.40,3.40
459.48,2.83,-0.56,2.82,-0.58,0.57,0.33,1.51,3.40,3.39,3.39
464.07,2.78,-0.62,2.77,-0.62,0.61,0.36,1.56,3.39,3.39,3.40
468.71,2.73,-0.67,2.73,-0.67,0.66,0.39,1.61,3.38,3.39,3.40
473.40,2.69,-0.70,2.69,-0.71,0.70,0.42,1.66,3.39,3.39,3.39
478.13,2.66,-0.74,2.65,-0.74,0.75,0.46,1.71,3.40,3.40,3.40
482.91,2.62,-0.77,2.61,-0.78,0.80,0.49,1.75,3.41,3.41,3.39
487.74,2.57,-0.83,2.57,-0.84,0.85,0.53,1.79,3.41,3.41,3.40
492.62,2.51,-0.90,2.51,-0.90,0.90,0.56,1.83,3.40,3.41,3.41
497.55,2.45,-0.95,2.45,-0.96,0.95,0.60,1.87,3.40,3.40,3.40
502.52,2.39,-1.02,2.39,-1.02,1.01,0.64,1.90,3.40,3.40,3.41
507.55,2.34,-1.07,2.34,-1.08,1.07,0.68,1.93,3.41,3.41,3.41
512.62,2.29,-1.13,2.28,-1.14,1.14,0.72,1.96,3.42,3.42,3.42
517.75,2.23,-1.20,2.23,-1.20,1.20,0.76,1.98,3.43,3.43,3.43
522.93,2.17,-1.27,2.17,-1.27,1.27,0.81,2.00,3.44,3.44,3.44
528.16,2.11,-1.33,2.11,-1.33,1.34,0.85,2.03,3.45,3.45,3.44
533.44,2.06,-1.39,2.05,-1.41,1.41,0.90,2.04,3.47,3.46,3.45
538.77,1.99,-1.48,1.98,-1.48,1.49,0.95,2.06,3.47,3.47,3.47
544.16,1.91,-1.57,1.92,-1.57,1.56,1.01,2.07,3.47,3.48,3.48
549.60,1.86,-1.64,1.85,-1.64,1.63,1.06,2.09,3.49,3.49,3.50
