frequency,raw,error,smoothed,error_smoothed,equalization,parametric_eq,fixed_band_eq,equalized_raw,equalized_smoothed,target
20.00,-10.75,-16.20,-10.78,-16.26,16.26,15.76,6.70,5.50,5.48,5.45
20.20,-10.66,-16.16,-10.68,-16.20,16.20,15.77,6.86,5.53,5.52,5.50
20.40,-10.57,-16.12,-10.58,-16.13,16.13,15.77,7.02,5.56,5.55,5.55
20.61,-10.49,-16.07,-10.48,-16.07,16.07,15.77,7.18,5.57,5.58,5.58
20.81,-10.40,-16.03,-10.39,-16.00,16.00,15.75,7.35,5.60,5.61,5.63
21.02,-10.31,-15.98,-10.29,-15.93,15.93,15.74,7.52,5.62,5.64,5.67
21.23,-10.22,-15.91,-10.20,-15.86,15.86,15.71,7.70,5.64,5.67,5.69
21.44,-10.12,-15.83,-10.11,-15.79,15.79,15.68,7.88,5.67,5.69,5.71
21.66,-10.03,-15.76,-10.01,-15.72,15.72,15.64,8.07,5.69,5.71,5.73
21.87,-9.93,-15.67,-9.92,-15.65,15.65,15.60,8.26,5.72,5.73,5.74
22.09,-9.84,-15.60,-9.83,-15.57,15.57,15.55,8.46,5.73,5.74,5.76
22.31,-9.74,-15.51,-9.74,-15.50,15.50,15.49,8.67,5.76,5.75,5.76
22.54,-9.64,-15.41,-9.65,-15.41,15.41,15.44,8.87,5.77,5.76,5.76
22.76,-9.54,-15.30,-9.56,-15.33,15.33,15.37,9.09,5.78,5.76,5.76
22.99,-9.44,-15.19,-9.47,-15.24,15.24,15.31,9.31,5.80,5.77,5.75
23.22,-9.37,-15.12,-9.39,-15.15,15.15,15.24,9.54,5.78,5.77,5.75
23.45,-9.30,-15.05,-9.30,-15.07,15.07,15.16,9.77,5.77,5.77,5.75
23.69,-9.23,-14.99,-9.22,-14.99,14.99,15.09,10.01,5.76,5.77,5.76
23.92,-9.15,-14.91,-9.15,-14.92,14.92,15.01,10.25,5.76,5.77,5.76
24.16,-9.08,-14.85,-9.07,-14.84,14.84,14.92,10.50,5.76,5.77,5.77
24.40,-9.00,-14.78,-9.00,-14.77,14.77,14.84,10.76,5.76,5.77,5.78
24.65,-8.91,-14.68,-8.93,-14.69,14.69,14.76,11.03,5.78,5.76,5.77
24.89,-8.83,-14.60,-8.85,-14.62,14.62,14.67,11.30,5.79,5.77,5.77
25.14,-8.77,-14.54,-8.78,-14.54,14.54,14.58,11.57,5.77,5.77,5.76
25.39,-8.70,-14.47,-8.70,-14.47,14.47,14.49,11.86,5.77,5.77,5.77
25.65,-8.64,-14.42,-8.62,-14.39,14.39,14.40,12.15,5.75,5.77,5.77
25.91,-8.58,-14.34,-8.54,-14.31,14.31,14.31,12.45,5.73,5.77,5.76
26.16,-8.49,-14.25,-8.46,-14.22,14.22,14.22,12.75,5.73,5.77,5.76
26.43,-8.39,-14.15,-8.37,-14.13,14.13,14.13,13.05,5.74,5.76,5.76
26.69,-8.28,-14.04,-8.28,-14.04,14.04,14.04,13.37,5.76,5.76,5.76
26.96,-8.18,-13.95,-8.19,-13.95,13.95,13.95,13.68,5.77,5.76,5.77
27.23,-8.10,-13.87,-8.11,-13.87,13.87,13.86,14.00,5.76,5.76,5.76
27.50,-8.02,-13.79,-8.03,-13.78,13.78,13.77,14.32,5.76,5.76,5.76
27.77,-7.94,-13.69,-7.95,-13.70,13.70,13.68,14.63,5.76,5.75,5.75
28.05,-7.86,-13.61,-7.87,-13.62,13.62,13.60,14.95,5.76,5.75,5.75
28.33,-7.77,-13.51,-7.79,-13.54,13.54,13.51,15.25,5.77,5.75,5.74
28.62,-7.68,-13.42,-7.72,-13.46,13.46,13.42,15.55,5.78,5.75,5.74
28.90,-7.59,-13.34,-7.65,-13.39,13.39,13.34,15.84,5.80,5.75,5.75
29.19,-7.54,-13.28,-7.58,-13.33,13.33,13.25,16.10,5.78,5.74,5.73
29.48,-7.51,-13.26,-7.52,-13.26,13.26,13.17,16.35,5.75,5.74,5.75
29.78,-7.48,-13.22,-7.46,-13.20,13.20,13.09,16.57,5.72,5.74,5.74
30.08,-7.44,-13.19,-7.40,-13.13,13.13,13.01,16.76,5.69,5.74,5.75
30.38,-7.36,-13.10,-7.33,-13.07,13.07,12.93,16.92,5.70,5.74,5.74
30.68,-7.28,-13.02,-7.27,-13.00,13.00,12.85,17.03,5.72,5.73,5.73
30.99,-7.20,-12.93,-7.20,-12.93,12.93,12.77,17.11,5.73,5.73,5.73
31.30,-7.14,-12.87,-7.13,-12.86,12.86,12.70,17.14,5.72,5.73,5.73
31.61,-7.07,-12.80,-7.06,-12.79,12.79,12.63,17.14,5.72,5.73,5.73
31.93,-7.01,-12.74,-6.99,-12.71,12.71,12.55,17.09,5.70,5.72,5.72
32.24,-6.92,-12.63,-6.91,-12.63,12.63,12.48,17.00,5.71,5.72,5.71
32.57,-6.83,-12.55,-6.83,-12.54,12.54,12.41,16.88,5.71,5.71,5.72
32.89,-6.74,-12.46,-6.75,-12.46,12.46,12.34,16.72,5.72,5.71,5.72
33.22,-6.66,-12.36,-6.67,-12.38,12.38,12.28,16.54,5.71,5.70,5.70
33.55,-6.59,-12.29,-6.60,-12.30,12.30,12.21,16.34,5.71,5.70,5.70
33.89,-6.52,-12.21,-6.54,-12.23,12.23,12.15,16.12,5.71,5.69,5.69
34.23,-6.45,-12.15,-6.47,-12.16,12.16,12.09,15.88,5.71,5.69,5.69
34.57,-6.39,-12.07,-6.41,-12.09,12.09,12.03,15.64,5.70,5.68,5.68
34.92,-6.32,-12.00,-6.35,-12.03,12.03,11.97,15.38,5.71,5.68,5.68
35.27,-6.27,-11.94,-6.29,-11.97,11.97,11.91,15.13,5.69,5.67,5.67
35.62,-6.23,-11.90,-6.24,-11.91,11.91,11.85,14.87,5.68,5.67,5.67
35.97,-6.19,-11.86,-6.19,-11.85,11.85,11.80,14.62,5.66,5.67,5.66
36.33,-6.16,-11.83,-6.14,-11.80,11.80,11.74,14.37,5.64,5.66,5.67
36.70,-6.13,-11.79,-6.10,-11.76,11.76,11.69,14.12,5.63,5.66,5.65
37.06,-6.09,-11.74,-6.05,-11.71,11.71,11.64,13.87,5.62,5.66,5.65
37.43,-6.01,-11.68,-6.00,-11.66,11.66,11.59,13.64,5.65,5.66,5.67
37.81,-5.94,-11.60,-5.95,-11.61,11.61,11.54,13.41,5.66,5.66,5.66
38.19,-5.88,-11.54,-5.90,-11.56,11.56,11.49,13.18,5.67,5.66,5.66
38.57,-5.83,-11.49,-5.85,-11.51,11.51,11.44,12.97,5.67,5.66,5.66
38.95,-5.79,-11.46,-5.80,-11.46,11.46,11.39,12.76,5.67,5.66,5.66
39.34,-5.75,-11.41,-5.75,-11.41,11.41,11.35,12.56,5.66,5.66,5.66
39.74,-5.72,-11.38,-5.70,-11.36,11.36,11.30,12.37,5.64,5.66,5.65
40.14,-5.67,-11.33,-5.66,-11.31,11.31,11.26,12.18,5.64,5.65,5.66
40.54,-5.59,-11.24,-5.61,-11.26,11.26,11.22,12.01,5.67,5.65,5.65
40.94,-5.51,-11.16,-5.57,-11.21,11.21,11.17,11.84,5.70,5.65,5.64
41.35,-5.50,-11.14,-5.53,-11.17,11.17,11.13,11.68,5.66,5.64,5.64
41.76,-5.50,-11.13,-5.49,-11.12,11.12,11.09,11.53,5.62,5.63,5.63
42.18,-5.48,-11.11,-5.46,-11.08,11.08,11.05,11.38,5.60,5.62,5.63
42.60,-5.44,-11.06,-5.42,-11.03,11.03,11.01,11.24,5.59,5.61,5.61
43.03,-5.40,-11.01,-5.39,-10.98,10.98,10.97,11.12,5.58,5.60,5.61
43.46,-5.35,-10.95,-5.35,-10.93,10.93,10.93,11.00,5.58,5.58,5.60
43.90,-5.31,-10.88,-5.31,-10.88,10.88,10.89,10.88,5.57,5.57,5.57
44.33,-5.27,-10.82,-5.28,-10.83,10.83,10.85,10.78,5.56,5.56,5.55
44.78,-5.23,-10.76,-5.25,-10.79,10.79,10.81,10.68,5.56,5.54,5.53
45.23,-5.21,-10.73,-5.22,-10.75,10.75,10.77,10.58,5.53,5.53,5.52
45.68,-5.20,-10.70,-5.18,-10.69,10.69,10.74,10.50,5.49,5.51,5.50
46.13,-5.17,-10.65,-5.15,-10.64,10.64,10.70,10.42,5.47,5.49,5.48
46.60,-5.10,-10.58,-5.11,-10.58,10.58,10.66,10.35,5.48,5.48,5.48
47.06,-5.04,-10.50,-5.07,-10.53,10.53,10.62,10.28,5.49,5.46,5.46
47.53,-5.01,-10.46,-5.03,-10.48,10.48,10.58,10.22,5.46,5.44,5.45
48.01,-4.99,-10.44,-5.00,-10.43,10.43,10.53,10.17,5.43,5.43,5.44
48.49,-4.99,-10.41,-4.97,-10.38,10.38,10.49,10.12,5.39,5.41,5.42
48.97,-4.99,-10.39,-4.94,-10.33,10.33,10.45,10.08,5.34,5.40,5.40
49.46,-4.90,-10.28,-4.90,-10.28,10.28,10.41,10.04,5.38,5.38,5.38
49.96,-4.80,-10.15,-4.86,-10.22,10.22,10.36,10.01,5.42,5.36,5.35
50.46,-4.79,-10.14,-4.82,-10.16,10.16,10.32,9.98,5.37,5.35,5.35
50.96,-4.79,-10.12,-4.78,-10.11,10.11,10.27,9.95,5.32,5.33,5.33
51.47,-4.74,-10.05,-4.74,-10.05,10.05,10.23,9.93,5.31,5.32,5.31
51.99,-4.69,-9.98,-4.70,-10.00,10.00,10.18,9.91,5.31,5.30,5.29
52.51,-4.68,-9.97,-4.66,-9.94,9.94,10.13,9.90,5.26,5.29,5.28
53.03,-4.67,-9.95,-4.61,-9.88,9.88,10.08,9.89,5.21,5.27,5.28
53.56,-4.57,-9.83,-4.56,-9.82,9.82,10.03,9.87,5.24,5.25,5.26
54.10,-4.48,-9.72,-4.51,-9.76,9.76,9.98,9.86,5.27,5.24,5.24
54.64,-4.43,-9.65,-4.47,-9.70,9.70,9.92,9.85,5.26,5.23,5.22
55.18,-4.39,-9.61,-4.43,-9.64,9.64,9.87,9.84,5.25,5.21,5.21
55.74,-4.39,-9.58,-4.39,-9.58,9.58,9.81,9.83,5.19,5.20,5.19
56.29,-4.36,-9.54,-4.34,-9.52,9.52,9.75,9.82,5.15,5.18,5.18
56.86,-4.30,-9.46,-4.28,-9.45,9.45,9.69,9.80,5.14,5.16,5.16
57.42,-4.25,-9.38,-4.24,-9.38,9.38,9.63,9.79,5.13,5.14,5.13
58.00,-4.19,-9.31,-4.19,-9.31,9.31,9.57,9.77,5.12,5.12,5.12
58.58,-4.13,-9.23,-4.15,-9.24,9.24,9.50,9.74,5.11,5.09,5.10
59.16,-4.09,-9.17,-4.11,-9.17,9.17,9.44,9.71,5.08,5.06,5.08
59.76,-4.09,-9.14,-4.07,-9.10,9.10,9.37,9.67,5.01,5.03,5.05
60.35,-4.05,-9.06,-4.03,-9.03,9.03,9.30,9.63,4.98,5.00,5.01
60.96,-3.99,-8.96,-4.00,-8.95,8.95,9.23,9.58,4.96,4.96,4.97
61.57,-3.93,-8.85,-3.96,-8.87,8.87,9.16,9.52,4.94,4.92,4.92
62.18,-3.89,-8.77,-3.92,-8.79,8.79,9.09,9.46,4.90,4.87,4.87
62.80,-3.89,-8.72,-3.88,-8.71,8.71,9.01,9.39,4.82,4.83,4.82
63.43,-3.89,-8.67,-3.86,-8.64,8.64,8.94,9.32,4.75,4.78,4.77
64.07,-3.88,-8.61,-3.84,-8.57,8.57,8.86,9.23,4.69,4.73,4.72
64.71,-3.82,-8.49,-3.83,-8.51,8.51,8.78,9.14,4.69,4.68,4.67
65.35,-3.79,-8.42,-3.82,-8.45,8.45,8.70,9.04,4.66,4.63,4.63
66.01,-3.79,-8.37,-3.82,-8.39,8.39,8.62,8.94,4.60,4.58,4.57
66.67,-3.79,-8.31,-3.82,-8.34,8.34,8.54,8.83,4.55,4.52,4.52
67.33,-3.79,-8.26,-3.83,-8.30,8.30,8.45,8.71,4.51,4.47,4.46
68.01,-3.79,-8.21,-3.85,-8.27,8.27,8.37,8.59,4.47,4.41,4.42
68.69,-3.85,-8.21,-3.87,-8.23,8.23,8.28,8.47,4.38,4.36,4.36
69.37,-3.90,-8.21,-3.90,-8.20,8.20,8.20,8.34,4.29,4.30,4.30
70.07,-3.96,-8.21,-3.92,-8.17,8.17,8.11,8.21,4.21,4.24,4.24
70.77,-3.98,-8.18,-3.96,-8.14,8.14,8.02,8.07,4.16,4.18,4.19
71.48,-3.99,-8.12,-3.99,-8.11,8.11,7.93,7.94,4.12,4.12,4.13
72.19,-4.01,-8.07,-4.03,-8.09,8.09,7.84,7.80,4.08,4.06,4.06
72.91,-4.08,-8.08,-4.06,-8.06,8.06,7.75,7.66,3.98,4.00,4.00
73.64,-4.09,-8.02,-4.09,-8.02,8.02,7.66,7.52,3.93,3.93,3.93
74.38,-4.09,-7.96,-4.10,-7.97,7.97,7.57,7.39,3.88,3.87,3.87
75.12,-4.10,-7.90,-4.11,-7.92,7.92,7.48,7.25,3.82,3.81,3.80
75.87,-4.13,-7.87,-4.12,-7.86,7.86,7.39,7.11,3.73,3.74,3.73
76.63,-4.17,-7.85,-4.11,-7.80,7.80,7.29,6.98,3.62,3.68,3.68
77.40,-4.15,-7.77,-4.10,-7.72,7.72,7.20,6.84,3.57,3.62,3.62
78.17,-4.09,-7.64,-4.08,-7.64,7.64,7.11,6.71,3.55,3.56,3.55
78.95,-4.09,-7.60,-4.05,-7.55,7.55,7.02,6.58,3.46,3.50,3.51
79.74,-3.99,-7.44,-4.02,-7.46,7.46,6.92,6.46,3.47,3.44,3.44
80.54,-3.92,-7.31,-3.97,-7.36,7.36,6.83,6.33,3.44,3.39,3.39
81.35,-3.89,-7.22,-3.92,-7.25,7.25,6.74,6.21,3.36,3.33,3.33
82.16,-3.88,-7.16,-3.87,-7.15,7.15,6.65,6.10,3.26,3.27,3.27
82.98,-3.84,-7.07,-3.82,-7.03,7.03,6.56,5.98,3.19,3.22,3.23
83.81,-3.79,-6.95,-3.75,-6.91,6.91,6.46,5.87,3.12,3.16,3.16
84.65,-3.67,-6.78,-3.68,-6.79,6.79,6.37,5.77,3.11,3.11,3.10
85.50,-3.58,-6.64,-3.61,-6.66,6.66,6.28,5.66,3.08,3.05,3.06
86.35,-3.53,-6.53,-3.55,-6.54,6.54,6.19,5.56,3.01,2.99,3.00
87.22,-3.48,-6.42,-3.49,-6.42,6.42,6.10,5.47,2.94,2.93,2.94
88.09,-3.47,-6.35,-3.43,-6.30,6.30,6.01,5.38,2.83,2.87,2.88
88.97,-3.33,-6.15,-3.37,-6.18,6.18,5.92,5.29,2.85,2.81,2.82
89.86,-3.29,-6.05,-3.30,-6.06,6.06,5.83,5.20,2.77,2.75,2.75
90.76,-3.28,-5.97,-3.25,-5.94,5.94,5.74,5.12,2.66,2.69,2.69
91.66,-3.15,-5.79,-3.19,-5.83,5.83,5.66,5.04,2.68,2.63,2.64
92.58,-3.08,-5.65,-3.14,-5.72,5.72,5.57,4.97,2.64,2.57,2.56
93.51,-3.08,-5.59,-3.10,-5.61,5.61,5.48,4.89,2.53,2.51,2.51
94.44,-3.08,-5.54,-3.05,-5.51,5.51,5.40,4.83,2.42,2.46,2.45
95.39,-3.06,-5.46,-3.01,-5.40,5.40,5.31,4.76,2.34,2.40,2.40
96.34,-2.99,-5.33,-2.97,-5.31,5.31,5.23,4.70,2.31,2.34,2.33
97.30,-2.88,-5.16,-2.93,-5.21,5.21,5.14,4.64,2.33,2.28,2.28
98.28,-2.89,-5.11,-2.90,-5.13,5.13,5.06,4.58,2.23,2.22,2.22
99.26,-2.91,-5.08,-2.88,-5.05,5.05,4.98,4.53,2.14,2.16,2.16
100.25,-2.90,-5.01,-2.86,-4.97,4.97,4.90,4.48,2.07,2.11,2.11
101.25,-2.82,-4.87,-2.84,-4.89,4.89,4.81,4.43,2.07,2.05,2.05
102.27,-2.75,-4.74,-2.83,-4.82,4.82,4.73,4.38,2.07,1.99,1.99
103.29,-2.77,-4.70,-2.81,-4.74,4.74,4.66,4.34,1.97,1.93,1.92
104.32,-2.79,-4.67,-2.80,-4.67,4.67,4.58,4.30,1.88,1.87,1.88
105.37,-2.81,-4.63,-2.79,-4.60,4.60,4.50,4.25,1.79,1.81,1.82
106.42,-2.82,-4.58,-2.78,-4.54,4.54,4.42,4.21,1.71,1.75,1.76
107.48,-2.79,-4.49,-2.78,-4.47,4.47,4.35,4.18,1.68,1.69,1.69
108.56,-2.78,-4.41,-2.78,-4.41,4.41,4.27,4.14,1.63,1.63,1.63
109.64,-2.78,-4.35,-2.77,-4.34,4.34,4.20,4.10,1.56,1.57,1.57
110.74,-2.74,-4.24,-2.76,-4.26,4.26,4.12,4.07,1.52,1.50,1.50
111.85,-2.74,-4.20,-2.75,-4.19,4.19,4.05,4.03,1.45,1.44,1.45
112.97,-2.75,-4.13,-2.74,-4.12,4.12,3.98,4.00,1.37,1.38,1.38
114.10,-2.76,-4.08,-2.73,-4.05,4.05,3.91,3.96,1.29,1.32,1.32
115.24,-2.73,-4.00,-2.71,-3.97,3.97,3.84,3.93,1.24,1.27,1.26
116.39,-2.68,-3.88,-2.68,-3.89,3.89,3.77,3.89,1.21,1.21,1.20
117.55,-2.65,-3.81,-2.66,-3.82,3.82,3.70,3.85,1.16,1.16,1.15
118.73,-2.65,-3.75,-2.63,-3.74,3.74,3.63,3.82,1.09,1.11,1.10
119.92,-2.60,-3.67,-2.60,-3.67,3.67,3.56,3.78,1.06,1.06,1.06
121.12,-2.53,-3.54,-2.58,-3.60,3.60,3.50,3.74,1.06,1.02,1.01
122.33,-2.52,-3.49,-2.55,-3.53,3.53,3.43,3.69,1.00,0.97,0.97
123.55,-2.52,-3.46,-2.53,-3.45,3.45,3.37,3.65,0.93,0.93,0.93
124.79,-2.51,-3.40,-2.50,-3.38,3.38,3.30,3.61,0.87,0.89,0.89
126.03,-2.50,-3.35,-2.46,-3.31,3.31,3.24,3.56,0.81,0.85,0.85
127.29,-2.43,-3.25,-2.44,-3.24,3.24,3.18,3.51,0.81,0.81,0.82
128.57,-2.39,-3.16,-2.41,-3.18,3.18,3.11,3.46,0.79,0.77,0.77
129.85,-2.38,-3.11,-2.39,-3.13,3.13,3.05,3.41,0.74,0.73,0.73
131.15,-2.38,-3.07,-2.37,-3.07,3.07,2.99,3.35,0.68,0.69,0.69
132.46,-2.37,-3.03,-2.35,-3.01,3.01,2.93,3.30,0.64,0.66,0.65
133.79,-2.35,-2.97,-2.33,-2.95,2.95,2.87,3.24,0.60,0.62,0.62
135.12,-2.26,-2.83,-2.32,-2.90,2.90,2.81,3.18,0.64,0.58,0.57
136.48,-2.26,-2.81,-2.30,-2.84,2.84,2.75,3.13,0.58,0.55,0.55
137.84,-2.26,-2.77,-2.27,-2.78,2.78,2.69,3.07,0.52,0.51,0.50
139.22,-2.26,-2.72,-2.25,-2.72,2.72,2.63,3.00,0.46,0.47,0.46
140.61,-2.26,-2.68,-2.23,-2.66,2.66,2.58,2.94,0.40,0.43,0.42
142.02,-2.26,-2.66,-2.21,-2.60,2.60,2.52,2.88,0.34,0.39,0.40
143.44,-2.21,-2.57,-2.19,-2.54,2.54,2.46,2.82,0.33,0.35,0.36
144.87,-2.16,-2.47,-2.17,-2.47,2.47,2.40,2.75,0.31,0.30,0.31
146.32,-2.15,-2.41,-2.15,-2.40,2.40,2.35,2.69,0.25,0.25,0.26
147.78,-2.15,-2.37,-2.13,-2.32,2.32,2.29,2.62,0.17,0.20,0.22
149.26,-2.09,-2.26,-2.11,-2.24,2.24,2.24,2.56,0.15,0.13,0.17
150.75,-2.05,-2.14,-2.09,-2.16,2.16,2.18,2.50,0.11,0.07,0.09
152.26,-2.05,-2.07,-2.08,-2.08,2.08,2.12,2.43,0.02,-0.00,0.02
153.78,-2.05,-1.99,-2.07,-1.99,1.99,2.07,2.37,-0.06,-0.08,-0.06
155.32,-2.05,-1.91,-2.07,-1.91,1.91,2.01,2.31,-0.14,-0.15,-0.14
156.88,-2.05,-1.83,-2.07,-1.84,1.84,1.95,2.24,-0.22,-0.23,-0.22
158.44,-2.05,-1.74,-2.07,-1.76,1.76,1.90,2.18,-0.29,-0.31,-0.31
160.03,-2.05,-1.65,-2.07,-1.68,1.68,1.84,2.12,-0.37,-0.38,-0.40
161.63,-2.05,-1.57,-2.07,-1.61,1.61,1.78,2.06,-0.44,-0.46,-0.48
163.24,-2.05,-1.50,-2.06,-1.54,1.54,1.73,2.00,-0.52,-0.52,-0.55
164.88,-2.06,-1.46,-2.06,-1.47,1.47,1.67,1.94,-0.59,-0.59,-0.60
166.53,-2.13,-1.47,-2.05,-1.41,1.41,1.61,1.89,-0.72,-0.64,-0.66
168.19,-2.10,-1.40,-2.04,-1.35,1.35,1.55,1.83,-0.75,-0.69,-0.71
169.87,-2.08,-1.33,-2.03,-1.31,1.31,1.49,1.78,-0.78,-0.73,-0.75
171.57,-2.08,-1.31,-2.02,-1.26,1.26,1.43,1.72,-0.82,-0.76,-0.77
173.29,-1.97,-1.18,-2.00,-1.22,1.22,1.37,1.67,-0.75,-0.78,-0.79
175.02,-1.89,-1.09,-1.98,-1.18,1.18,1.31,1.61,-0.71,-0.80,-0.81
176.77,-1.90,-1.08,-1.96,-1.14,1.14,1.25,1.56,-0.76,-0.82,-0.83
178.54,-1.90,-1.07,-1.94,-1.11,1.11,1.19,1.51,-0.80,-0.83,-0.84
180.32,-1.89,-1.06,-1.91,-1.07,1.07,1.13,1.46,-0.82,-0.84,-0.83
182.13,-1.89,-1.06,-1.88,-1.03,1.03,1.06,1.41,-0.86,-0.85,-0.83
183.95,-1.88,-1.03,-1.85,-0.98,0.98,1.00,1.37,-0.90,-0.87,-0.85
185.79,-1.87,-1.02,-1.82,-0.94,0.94,0.94,1.32,-0.93,-0.88,-0.85
187.65,-1.82,-0.94,-1.79,-0.90,0.90,0.88,1.27,-0.93,-0.89,-0.88
189.52,-1.76,-0.87,-1.76,-0.85,0.85,0.82,1.23,-0.91,-0.90,-0.89
191.42,-1.73,-0.81,-1.73,-0.81,0.81,0.76,1.18,-0.92,-0.92,-0.92
193.33,-1.71,-0.77,-1.71,-0.77,0.77,0.71,1.14,-0.95,-0.94,-0.94
195.27,-1.69,-0.73,-1.68,-0.72,0.72,0.65,1.10,-0.97,-0.96,-0.96
197.22,-1.64,-0.66,-1.65,-0.67,0.67,0.60,1.06,-0.98,-0.99,-0.99
199.19,-1.59,-0.58,-1.63,-0.62,0.62,0.55,1.02,-0.97,-1.01,-1.02
201.18,-1.56,-0.53,-1.60,-0.57,0.57,0.51,0.98,-0.99,-1.03,-1.04
203.19,-1.56,-0.51,-1.58,-0.53,0.53,0.47,0.94,-1.04,-1.06,-1.06
205.23,-1.55,-0.47,-1.57,-0.49,0.49,0.44,0.90,-1.07,-1.08,-1.09
207.28,-1.55,-0.46,-1.56,-0.45,0.45,0.41,0.87,-1.10,-1.11,-1.09
209.35,-1.55,-0.43,-1.55,-0.42,0.42,0.38,0.83,-1.13,-1.13,-1.12
211.44,-1.56,-0.40,-1.55,-0.40,0.40,0.37,0.80,-1.16,-1.15,-1.16
213.56,-1.56,-0.40,-1.55,-0.38,0.38,0.35,0.76,-1.18,-1.17,-1.17
215.69,-1.57,-0.39,-1.56,-0.37,0.37,0.34,0.73,-1.20,-1.18,-1.18
217.85,-1.57,-0.38,-1.56,-0.37,0.37,0.34,0.70,-1.21,-1.20,-1.20
220.03,-1.57,-0.36,-1.58,-0.37,0.37,0.34,0.67,-1.21,-1.21,-1.21
222.23,-1.57,-0.34,-1.59,-0.37,0.37,0.35,0.64,-1.20,-1.22,-1.24
224.45,-1.58,-0.35,-1.60,-0.37,0.37,0.35,0.62,-1.21,-1.22,-1.23
226.70,-1.57,-0.34,-1.60,-0.38,0.38,0.37,0.59,-1.19,-1.23,-1.23
228.96,-1.58,-0.36,-1.61,-0.38,0.38,0.38,0.57,-1.20,-1.23,-1.23
231.25,-1.64,-0.42,-1.61,-0.39,0.39,0.39,0.55,-1.25,-1.22,-1.22
233.57,-1.65,-0.44,-1.61,-0.40,0.40,0.41,0.52,-1.25,-1.21,-1.21
235.90,-1.64,-0.44,-1.61,-0.41,0.41,0.43,0.50,-1.23,-1.20,-1.20
238.26,-1.63,-0.44,-1.60,-0.42,0.42,0.45,0.49,-1.21,-1.19,-1.20
240.64,-1.61,-0.44,-1.60,-0.43,0.43,0.47,0.47,-1.19,-1.17,-1.18
243.05,-1.60,-0.46,-1.59,-0.44,0.44,0.49,0.46,-1.17,-1.15,-1.15
245.48,-1.58,-0.46,-1.58,-0.45,0.45,0.50,0.44,-1.14,-1.13,-1.13
247.93,-1.55,-0.46,-1.56,-0.46,0.46,0.52,0.43,-1.10,-1.11,-1.10
250.41,-1.53,-0.45,-1.55,-0.46,0.46,0.54,0.42,-1.07,-1.09,-1.09
252.92,-1.51,-0.46,-1.54,-0.47,0.47,0.56,0.41,-1.04,-1.07,-1.06
255.45,-1.50,-0.47,-1.52,-0.48,0.48,0.57,0.41,-1.02,-1.04,-1.03
258.00,-1.49,-0.48,-1.51,-0.49,0.49,0.59,0.40,-1.00,-1.02,-1.01
260.58,-1.49,-0.49,-1.50,-0.51,0.51,0.60,0.40,-0.99,-1.00,-1.00
263.19,-1.49,-0.52,-1.50,-0.53,0.53,0.62,0.40,-0.97,-0.97,-0.97
265.82,-1.49,-0.54,-1.50,-0.55,0.55,0.63,0.40,-0.94,-0.95,-0.96
268.48,-1.49,-0.56,-1.50,-0.57,0.57,0.65,0.40,-0.92,-0.93,-0.93
271.16,-1.49,-0.59,-1.51,-0.60,0.60,0.66,0.40,-0.89,-0.90,-0.90
273.87,-1.50,-0.61,-1.51,-0.63,0.63,0.67,0.41,-0.88,-0.88,-0.89
276.61,-1.50,-0.65,-1.50,-0.65,0.65,0.68,0.41,-0.85,-0.86,-0.85
279.38,-1.50,-0.67,-1.50,-0.67,0.67,0.69,0.42,-0.84,-0.83,-0.83
282.17,-1.50,-0.70,-1.48,-0.68,0.68,0.70,0.43,-0.82,-0.80,-0.81
284.99,-1.49,-0.72,-1.46,-0.69,0.69,0.71,0.44,-0.80,-0.78,-0.77
287.84,-1.48,-0.72,-1.44,-0.69,0.69,0.72,0.45,-0.79,-0.75,-0.76
290.72,-1.47,-0.75,-1.41,-0.69,0.69,0.73,0.46,-0.78,-0.72,-0.72
293.63,-1.46,-0.76,-1.38,-0.69,0.69,0.74,0.47,-0.77,-0.69,-0.70
296.57,-1.37,-0.71,-1.35,-0.68,0.68,0.75,0.48,-0.69,-0.67,-0.66
299.53,-1.33,-0.69,-1.32,-0.68,0.68,0.76,0.50,-0.65,-0.64,-0.64
302.53,-1.24,-0.62,-1.29,-0.68,0.68,0.77,0.51,-0.56,-0.61,-0.62
305.55,-1.21,-0.64,-1.27,-0.68,0.68,0.78,0.53,-0.53,-0.59,-0.58
308.61,-1.20,-0.64,-1.26,-0.69,0.69,0.78,0.55,-0.51,-0.56,-0.56
311.69,-1.20,-0.67,-1.25,-0.71,0.71,0.79,0.56,-0.50,-0.54,-0.54
314.81,-1.19,-0.68,-1.25,-0.73,0.73,0.80,0.58,-0.47,-0.52,-0.51
317.96,-1.19,-0.70,-1.25,-0.75,0.75,0.81,0.60,-0.44,-0.50,-0.49
321.14,-1.24,-0.76,-1.27,-0.79,0.79,0.82,0.62,-0.46,-0.48,-0.49
324.35,-1.29,-0.82,-1.29,-0.82,0.82,0.83,0.64,-0.47,-0.47,-0.47
327.59,-1.33,-0.88,-1.32,-0.86,0.86,0.84,0.66,-0.47,-0.45,-0.45
330.87,-1.38,-0.93,-1.35,-0.91,0.91,0.85,0.68,-0.47,-0.44,-0.45
334.18,-1.39,-0.96,-1.38,-0.95,0.95,0.86,0.71,-0.44,-0.43,-0.43
337.52,-1.45,-1.03,-1.42,-1.00,1.00,0.87,0.73,-0.46,-0.42,-0.42
340.90,-1.49,-1.09,-1.44,-1.03,1.03,0.88,0.75,-0.47,-0.41,-0.41
344.30,-1.50,-1.10,-1.46,-1.05,1.05,0.89,0.78,-0.45,-0.41,-0.40
347.75,-1.50,-1.10,-1.47,-1.07,1.07,0.90,0.80,-0.43,-0.40,-0.40
351.23,-1.50,-1.11,-1.49,-1.09,1.09,0.91,0.83,-0.41,-0.40,-0.39
354.74,-1.50,-1.11,-1.49,-1.10,1.10,0.92,0.85,-0.40,-0.39,-0.40
358.28,-1.49,-1.10,-1.50,-1.11,1.11,0.93,0.88,-0.39,-0.39,-0.39
361.87,-1.49,-1.10,-1.50,-1.11,1.11,0.94,0.91,-0.39,-0.39,-0.39
365.49,-1.48,-1.10,-1.49,-1.10,1.10,0.96,0.94,-0.38,-0.39,-0.38
369.14,-1.47,-1.08,-1.49,-1.10,1.10,0.97,0.96,-0.37,-0.39,-0.40
372.83,-1.46,-1.06,-1.49,-1.10,1.10,0.98,0.99,-0.37,-0.39,-0.40
376.56,-1.46,-1.06,-1.49,-1.09,1.09,0.99,1.02,-0.37,-0.40,-0.40
380.33,-1.48,-1.09,-1.49,-1.09,1.09,1.01,1.05,-0.39,-0.40,-0.39
384.13,-1.53,-1.14,-1.51,-1.10,1.10,1.02,1.08,-0.43,-0.40,-0.39
387.97,-1.54,-1.14,-1.52,-1.11,1.11,1.04,1.11,-0.43,-0.41,-0.41
391.85,-1.53,-1.11,-1.54,-1.13,1.13,1.05,1.14,-0.40,-0.41,-0.42
395.77,-1.53,-1.12,-1.56,-1.14,1.14,1.07,1.17,-0.39,-0.42,-0.41
399.73,-1.53,-1.11,-1.59,-1.16,1.16,1.09,1.20,-0.37,-0.43,-0.42
403.72,-1.58,-1.16,-1.61,-1.18,1.18,1.10,1.24,-0.40,-0.43,-0.42
407.76,-1.63,-1.20,-1.64,-1.20,1.20,1.12,1.27,-0.43,-0.44,-0.43
411.84,-1.64,-1.21,-1.66,-1.22,1.22,1.14,1.30,-0.42,-0.44,-0.44
415.96,-1.71,-1.28,-1.68,-1.24,1.24,1.16,1.33,-0.48,-0.44,-0.44
420.12,-1.74,-1.30,-1.69,-1.25,1.25,1.17,1.36,-0.49,-0.44,-0.44
424.32,-1.74,-1.30,-1.70,-1.27,1.27,1.19,1.39,-0.47,-0.43,-0.44
428.56,-1.73,-1.30,-1.71,-1.29,1.29,1.21,1.42,-0.44,-0.42,-0.43
432.85,-1.72,-1.30,-1.71,-1.31,1.31,1.23,1.45,-0.41,-0.41,-0.42
437.18,-1.69,-1.28,-1.71,-1.32,1.32,1.25,1.48,-0.37,-0.39,-0.41
441.55,-1.70,-1.33,-1.70,-1.33,1.33,1.27,1.51,-0.37,-0.36,-0.37
445.96,-1.70,-1.36,-1.67,-1.34,1.34,1.29,1.53,-0.36,-0.33,-0.34
450.42,-1.65,-1.34,-1.64,-1.35,1.35,1.31,1.56,-0.30,-0.29,-0.32
454.93,-1.60,-1.34,-1.61,-1.36,1.36,1.33,1.58,-0.25,-0.25,-0.27
