frequency,raw,error,smoothed,error_smoothed,equalization,parametric_eq,fixed_band_eq,equalized_raw,equalized_smoothed,target
20.00,-10.75,-15.07,-10.78,-15.12,15.12,15.04,6.00,4.37,4.34,4.31
20.20,-10.66,-15.03,-10.68,-15.06,15.06,15.03,6.15,4.40,4.38,4.36
20.40,-10.57,-14.99,-10.58,-15.00,15.00,15.01,6.30,4.42,4.42,4.41
20.61,-10.49,-14.94,-10.48,-14.93,14.93,14.98,6.45,4.44,4.45,4.44
20.81,-10.40,-14.90,-10.39,-14.87,14.87,14.95,6.61,4.47,4.48,4.49
21.02,-10.31,-14.85,-10.29,-14.80,14.80,14.91,6.78,4.49,4.51,4.53
21.23,-10.22,-14.78,-10.20,-14.73,14.73,14.86,6.94,4.51,4.53,4.55
21.44,-10.12,-14.70,-10.11,-14.66,14.66,14.81,7.11,4.54,4.56,4.57
21.66,-10.03,-14.63,-10.01,-14.59,14.59,14.75,7.29,4.56,4.58,4.59
21.87,-9.93,-14.54,-9.92,-14.52,14.52,14.69,7.47,4.59,4.60,4.60
22.09,-9.84,-14.47,-9.83,-14.44,14.44,14.62,7.66,4.60,4.61,4.62
22.31,-9.74,-14.37,-9.74,-14.37,14.37,14.55,7.85,4.63,4.62,4.63
22.54,-9.64,-14.28,-9.65,-14.28,14.28,14.48,8.05,4.64,4.63,4.63
22.76,-9.54,-14.18,-9.56,-14.20,14.20,14.40,8.25,4.65,4.63,4.63
22.99,-9.44,-14.07,-9.47,-14.11,14.11,14.32,8.46,4.67,4.64,4.62
23.22,-9.37,-14.00,-9.39,-14.02,14.02,14.24,8.67,4.65,4.64,4.62
23.45,-9.30,-13.93,-9.30,-13.94,13.94,14.15,8.89,4.64,4.64,4.62
23.69,-9.23,-13.87,-9.22,-13.86,13.86,14.06,9.11,4.63,4.64,4.63
23.92,-9.15,-13.79,-9.15,-13.79,13.79,13.97,9.34,4.63,4.64,4.63
24.16,-9.08,-13.72,-9.07,-13.71,13.71,13.88,9.58,4.63,4.64,4.63
24.40,-9.00,-13.64,-9.00,-13.64,13.64,13.79,9.82,4.64,4.64,4.64
24.65,-8.91,-13.55,-8.93,-13.56,13.56,13.70,10.07,4.65,4.64,4.63
24.89,-8.83,-13.47,-8.85,-13.49,13.49,13.60,10.32,4.66,4.64,4.63
25.14,-8.77,-13.41,-8.78,-13.41,13.41,13.51,10.58,4.64,4.64,4.63
25.39,-8.70,-13.35,-8.70,-13.34,13.34,13.41,10.84,4.64,4.64,4.64
25.65,-8.64,-13.29,-8.62,-13.26,13.26,13.32,11.12,4.62,4.64,4.64
25.91,-8.58,-13.22,-8.54,-13.18,13.18,13.23,11.39,4.60,4.64,4.63
26.16,-8.49,-13.12,-8.46,-13.09,13.09,13.13,11.67,4.60,4.64,4.63
26.43,-8.39,-13.03,-8.37,-13.01,13.01,13.04,11.96,4.61,4.63,4.63
26.69,-8.28,-12.92,-8.28,-12.92,12.92,12.94,12.24,4.63,4.63,4.63
26.96,-8.18,-12.82,-8.19,-12.83,12.83,12.85,12.53,4.64,4.63,4.63
27.23,-8.10,-12.74,-8.11,-12.74,12.74,12.76,12.83,4.64,4.63,4.63
27.50,-8.02,-12.66,-8.03,-12.66,12.66,12.67,13.12,4.63,4.63,4.63
27.77,-7.94,-12.57,-7.95,-12.57,12.57,12.58,13.41,4.63,4.63,4.62
28.05,-7.86,-12.49,-7.87,-12.49,12.49,12.49,13.69,4.63,4.63,4.62
28.33,-7.77,-12.39,-7.79,-12.41,12.41,12.41,13.97,4.64,4.62,4.61
28.62,-7.68,-12.30,-7.72,-12.34,12.34,12.32,14.24,4.65,4.62,4.61
28.90,-7.59,-12.22,-7.65,-12.27,12.27,12.23,14.50,4.67,4.62,4.62
29.19,-7.54,-12.16,-7.58,-12.20,12.20,12.15,14.74,4.66,4.62,4.61
29.48,-7.51,-12.14,-7.52,-12.14,12.14,12.07,14.97,4.63,4.62,4.62
29.78,-7.48,-12.10,-7.46,-12.08,12.08,11.99,15.17,4.59,4.62,4.61
30.08,-7.44,-12.07,-7.40,-12.01,12.01,11.91,15.34,4.57,4.61,4.62
30.38,-7.36,-11.98,-7.33,-11.95,11.95,11.83,15.49,4.58,4.61,4.61
30.68,-7.28,-11.90,-7.27,-11.88,11.88,11.76,15.60,4.60,4.61,4.61
30.99,-7.20,-11.82,-7.20,-11.81,11.81,11.68,15.68,4.61,4.61,4.61
31.30,-7.14,-11.75,-7.13,-11.74,11.74,11.61,15.72,4.60,4.61,4.60
31.61,-7.07,-11.68,-7.06,-11.67,11.67,11.54,15.73,4.60,4.61,4.60
31.93,-7.01,-11.62,-6.99,-11.59,11.59,11.47,15.70,4.58,4.60,4.60
32.24,-6.92,-11.52,-6.91,-11.51,11.51,11.40,15.63,4.59,4.60,4.59
32.57,-6.83,-11.43,-6.83,-11.43,11.43,11.33,15.53,4.59,4.59,4.59
32.89,-6.74,-11.34,-6.75,-11.34,11.34,11.26,15.41,4.60,4.59,4.59
33.22,-6.66,-11.25,-6.67,-11.26,11.26,11.20,15.25,4.60,4.59,4.58
33.55,-6.59,-11.18,-6.60,-11.18,11.18,11.14,15.08,4.59,4.58,4.58
33.89,-6.52,-11.10,-6.54,-11.11,11.11,11.08,14.89,4.59,4.58,4.57
34.23,-6.45,-11.03,-6.47,-11.04,11.04,11.02,14.68,4.59,4.57,4.57
34.57,-6.39,-10.96,-6.41,-10.98,10.98,10.96,14.46,4.59,4.57,4.56
34.92,-6.32,-10.89,-6.35,-10.91,10.91,10.90,14.24,4.59,4.56,4.56
35.27,-6.27,-10.83,-6.29,-10.85,10.85,10.84,14.01,4.58,4.56,4.55
35.62,-6.23,-10.79,-6.24,-10.80,10.80,10.79,13.77,4.56,4.56,4.55
35.97,-6.19,-10.75,-6.19,-10.74,10.74,10.74,13.53,4.55,4.55,4.55
36.33,-6.16,-10.72,-6.14,-10.69,10.69,10.68,13.30,4.53,4.55,4.55
36.70,-6.13,-10.68,-6.10,-10.65,10.65,10.63,13.07,4.52,4.55,4.54
37.06,-6.09,-10.64,-6.05,-10.60,10.60,10.58,12.84,4.51,4.55,4.54
37.43,-6.01,-10.57,-6.00,-10.55,10.55,10.53,12.61,4.54,4.55,4.55
37.81,-5.94,-10.50,-5.95,-10.50,10.50,10.49,12.39,4.56,4.55,4.55
38.19,-5.88,-10.43,-5.90,-10.45,10.45,10.44,12.18,4.57,4.55,4.54
38.57,-5.83,-10.39,-5.85,-10.40,10.40,10.39,11.97,4.57,4.55,4.55
38.95,-5.79,-10.36,-5.80,-10.35,10.35,10.35,11.77,4.56,4.55,4.56
39.34,-5.75,-10.31,-5.75,-10.31,10.31,10.30,11.57,4.55,4.55,4.55
39.74,-5.72,-10.28,-5.70,-10.26,10.26,10.26,11.39,4.54,4.55,4.55
40.14,-5.67,-10.23,-5.66,-10.21,10.21,10.22,11.21,4.54,4.55,4.55
40.54,-5.59,-10.15,-5.61,-10.16,10.16,10.18,11.03,4.57,4.55,4.55
40.94,-5.51,-10.06,-5.57,-10.12,10.12,10.14,10.87,4.60,4.55,4.54
41.35,-5.50,-10.05,-5.53,-10.07,10.07,10.09,10.71,4.57,4.54,4.54
41.76,-5.50,-10.04,-5.49,-10.03,10.03,10.05,10.56,4.52,4.53,4.53
42.18,-5.48,-10.02,-5.46,-9.99,9.99,10.01,10.42,4.50,4.53,4.53
42.60,-5.44,-9.97,-5.42,-9.94,9.94,9.97,10.28,4.50,4.52,4.52
43.03,-5.40,-9.92,-5.39,-9.89,9.89,9.93,10.15,4.49,4.51,4.51
43.46,-5.35,-9.86,-5.35,-9.84,9.84,9.90,10.03,4.49,4.49,4.50
43.90,-5.31,-9.80,-5.31,-9.79,9.79,9.86,9.91,4.48,4.48,4.48
44.33,-5.27,-9.74,-5.28,-9.75,9.75,9.82,9.80,4.48,4.47,4.46
44.78,-5.23,-9.68,-5.25,-9.71,9.71,9.78,9.70,4.47,4.46,4.44
45.23,-5.21,-9.65,-5.22,-9.66,9.66,9.74,9.61,4.45,4.44,4.43
45.68,-5.20,-9.63,-5.18,-9.61,9.61,9.70,9.52,4.41,4.43,4.42
46.13,-5.17,-9.58,-5.15,-9.56,9.56,9.66,9.43,4.39,4.42,4.40
46.60,-5.10,-9.51,-5.11,-9.51,9.51,9.62,9.36,4.41,4.40,4.40
47.06,-5.04,-9.43,-5.07,-9.46,9.46,9.58,9.29,4.41,4.39,4.38
47.53,-5.01,-9.39,-5.03,-9.40,9.40,9.54,9.22,4.39,4.37,4.37
48.01,-4.99,-9.37,-5.00,-9.36,9.36,9.50,9.16,4.36,4.36,4.37
48.49,-4.99,-9.35,-4.97,-9.31,9.31,9.46,9.11,4.32,4.34,4.35
48.97,-4.99,-9.33,-4.94,-9.27,9.27,9.41,9.06,4.27,4.33,4.33
49.46,-4.90,-9.22,-4.90,-9.22,9.22,9.37,9.02,4.32,4.32,4.31
49.96,-4.80,-9.10,-4.86,-9.16,9.16,9.33,8.98,4.36,4.30,4.29
50.46,-4.79,-9.08,-4.82,-9.11,9.11,9.28,8.94,4.31,4.29,4.28
50.96,-4.79,-9.07,-4.78,-9.05,9.05,9.24,8.91,4.26,4.28,4.27
51.47,-4.74,-9.00,-4.74,-9.00,9.00,9.19,8.88,4.26,4.26,4.25
51.99,-4.69,-8.94,-4.70,-8.95,8.95,9.14,8.86,4.26,4.25,4.24
52.51,-4.68,-8.92,-4.66,-8.89,8.89,9.10,8.83,4.21,4.24,4.23
53.03,-4.67,-8.91,-4.61,-8.84,8.84,9.05,8.81,4.16,4.22,4.23
53.56,-4.57,-8.79,-4.56,-8.78,8.78,9.00,8.79,4.20,4.21,4.21
54.10,-4.48,-8.69,-4.51,-8.72,8.72,8.95,8.78,4.23,4.20,4.20
54.64,-4.43,-8.62,-4.47,-8.66,8.66,8.89,8.76,4.23,4.19,4.18
55.18,-4.39,-8.58,-4.43,-8.61,8.61,8.84,8.74,4.22,4.18,4.18
55.74,-4.39,-8.56,-4.39,-8.56,8.56,8.78,8.72,4.16,4.17,4.16
56.29,-4.36,-8.52,-4.34,-8.49,8.49,8.73,8.70,4.13,4.16,4.15
56.86,-4.30,-8.45,-4.28,-8.43,8.43,8.67,8.68,4.12,4.14,4.14
57.42,-4.25,-8.37,-4.24,-8.36,8.36,8.61,8.66,4.11,4.13,4.11
58.00,-4.19,-8.30,-4.19,-8.30,8.30,8.55,8.63,4.11,4.11,4.10
58.58,-4.13,-8.23,-4.15,-8.23,8.23,8.49,8.61,4.10,4.08,4.09
59.16,-4.09,-8.17,-4.11,-8.17,8.17,8.43,8.57,4.07,4.06,4.07
59.76,-4.09,-8.15,-4.07,-8.10,8.10,8.37,8.53,4.01,4.03,4.05
60.35,-4.05,-8.07,-4.03,-8.04,8.04,8.30,8.49,3.98,4.00,4.01
60.96,-3.99,-7.97,-4.00,-7.96,7.96,8.24,8.44,3.97,3.97,3.97
61.57,-3.93,-7.87,-3.96,-7.89,7.89,8.17,8.39,3.95,3.93,3.93
62.18,-3.89,-7.79,-3.92,-7.81,7.81,8.10,8.33,3.92,3.89,3.89
62.80,-3.89,-7.74,-3.88,-7.74,7.74,8.03,8.26,3.84,3.85,3.84
63.43,-3.89,-7.70,-3.86,-7.67,7.67,7.96,8.19,3.78,3.81,3.80
64.07,-3.88,-7.64,-3.84,-7.61,7.61,7.89,8.12,3.72,3.77,3.75
64.71,-3.82,-7.54,-3.83,-7.55,7.55,7.82,8.03,3.73,3.72,3.71
65.35,-3.79,-7.47,-3.82,-7.49,7.49,7.75,7.95,3.70,3.67,3.67
66.01,-3.79,-7.42,-3.82,-7.44,7.44,7.67,7.85,3.65,3.63,3.62
66.67,-3.79,-7.37,-3.82,-7.40,7.40,7.60,7.75,3.61,3.58,3.57
67.33,-3.79,-7.32,-3.83,-7.36,7.36,7.52,7.65,3.57,3.53,3.52
68.01,-3.79,-7.28,-3.85,-7.33,7.33,7.44,7.54,3.54,3.48,3.48
68.69,-3.85,-7.29,-3.87,-7.30,7.30,7.37,7.43,3.45,3.43,3.43
69.37,-3.90,-7.29,-3.90,-7.28,7.28,7.29,7.32,3.37,3.38,3.38
70.07,-3.96,-7.30,-3.92,-7.25,7.25,7.21,7.20,3.29,3.33,3.33
70.77,-3.98,-7.27,-3.96,-7.23,7.23,7.13,7.09,3.25,3.27,3.28
71.48,-3.99,-7.23,-3.99,-7.21,7.21,7.05,6.97,3.22,3.22,3.23
72.19,-4.01,-7.18,-4.03,-7.20,7.20,6.97,6.85,3.18,3.16,3.16
72.91,-4.08,-7.19,-4.06,-7.17,7.17,6.89,6.72,3.09,3.11,3.10
73.64,-4.09,-7.15,-4.09,-7.14,7.14,6.81,6.60,3.05,3.05,3.05
74.38,-4.09,-7.09,-4.10,-7.10,7.10,6.73,6.48,3.01,3.00,2.99
75.12,-4.10,-7.04,-4.11,-7.05,7.05,6.65,6.36,2.95,2.94,2.93
75.87,-4.13,-7.01,-4.12,-7.00,7.00,6.57,6.24,2.87,2.88,2.87
76.63,-4.17,-7.00,-4.11,-6.94,6.94,6.48,6.12,2.77,2.83,2.82
77.40,-4.15,-6.93,-4.10,-6.88,6.88,6.40,6.01,2.72,2.78,2.77
78.17,-4.09,-6.81,-4.08,-6.80,6.80,6.32,5.89,2.71,2.72,2.71
78.95,-4.09,-6.77,-4.05,-6.72,6.72,6.24,5.78,2.63,2.67,2.67
79.74,-3.99,-6.62,-4.02,-6.64,6.64,6.16,5.67,2.65,2.62,2.62
80.54,-3.92,-6.50,-3.97,-6.55,6.55,6.08,5.56,2.63,2.57,2.57
81.35,-3.89,-6.42,-3.92,-6.45,6.45,5.99,5.46,2.56,2.53,2.52
82.16,-3.88,-6.36,-3.87,-6.35,6.35,5.91,5.35,2.47,2.48,2.47
82.98,-3.84,-6.28,-3.82,-6.25,6.25,5.83,5.26,2.40,2.43,2.43
83.81,-3.79,-6.18,-3.75,-6.13,6.13,5.75,5.16,2.34,2.38,2.38
84.65,-3.67,-6.01,-3.68,-6.02,6.02,5.67,5.07,2.34,2.34,2.33
85.50,-3.58,-5.88,-3.61,-5.90,5.90,5.59,4.98,2.31,2.29,2.29
86.35,-3.53,-5.78,-3.55,-5.78,5.78,5.51,4.89,2.25,2.24,2.24
87.22,-3.48,-5.68,-3.49,-5.68,5.68,5.43,4.81,2.19,2.19,2.19
88.09,-3.47,-5.62,-3.43,-5.56,5.56,5.35,4.73,2.09,2.14,2.14
88.97,-3.33,-5.42,-3.37,-5.45,5.45,5.27,4.65,2.12,2.09,2.08
89.86,-3.29,-5.33,-3.30,-5.34,5.34,5.19,4.58,2.05,2.04,2.03
90.76,-3.28,-5.27,-3.25,-5.23,5.23,5.11,4.51,1.95,1.99,1.98
91.66,-3.15,-5.09,-3.19,-5.13,5.13,5.04,4.44,1.98,1.93,1.93
92.58,-3.08,-4.96,-3.14,-5.03,5.03,4.96,4.37,1.94,1.88,1.87
93.51,-3.08,-4.91,-3.10,-4.93,4.93,4.88,4.31,1.85,1.83,1.82
94.44,-3.08,-4.87,-3.05,-4.83,4.83,4.81,4.25,1.75,1.78,1.78
95.39,-3.06,-4.80,-3.01,-4.74,4.74,4.73,4.20,1.68,1.73,1.73
96.34,-2.99,-4.68,-2.97,-4.65,4.65,4.66,4.15,1.66,1.68,1.68
97.30,-2.88,-4.52,-2.93,-4.57,4.57,4.58,4.10,1.69,1.64,1.63
98.28,-2.89,-4.48,-2.90,-4.49,4.49,4.51,4.05,1.60,1.59,1.58
99.26,-2.91,-4.46,-2.88,-4.42,4.42,4.44,4.00,1.51,1.54,1.54
100.25,-2.90,-4.40,-2.86,-4.35,4.35,4.37,3.96,1.45,1.49,1.49
101.25,-2.82,-4.27,-2.84,-4.29,4.29,4.29,3.92,1.46,1.44,1.44
102.27,-2.75,-4.15,-2.83,-4.22,4.22,4.22,3.88,1.47,1.40,1.39
103.29,-2.77,-4.12,-2.81,-4.16,4.16,4.15,3.84,1.39,1.35,1.34
104.32,-2.79,-4.10,-2.80,-4.10,4.10,4.08,3.81,1.31,1.30,1.30
105.37,-2.81,-4.07,-2.79,-4.04,4.04,4.02,3.77,1.23,1.25,1.25
106.42,-2.82,-4.03,-2.78,-3.98,3.98,3.95,3.74,1.16,1.20,1.20
107.48,-2.79,-3.94,-2.78,-3.93,3.93,3.88,3.71,1.13,1.14,1.14
108.56,-2.78,-3.88,-2.78,-3.87,3.87,3.81,3.68,1.09,1.09,1.09
109.64,-2.78,-3.83,-2.77,-3.81,3.81,3.75,3.65,1.03,1.04,1.04
110.74,-2.74,-3.73,-2.76,-3.75,3.75,3.68,3.62,1.01,0.99,0.98
111.85,-2.74,-3.69,-2.75,-3.69,3.69,3.62,3.59,0.94,0.94,0.94
112.97,-2.75,-3.64,-2.74,-3.63,3.63,3.56,3.56,0.87,0.89,0.88
114.10,-2.76,-3.60,-2.73,-3.56,3.56,3.49,3.53,0.80,0.84,0.83
115.24,-2.73,-3.52,-2.71,-3.50,3.50,3.43,3.50,0.76,0.79,0.78
116.39,-2.68,-3.42,-2.68,-3.43,3.43,3.37,3.47,0.75,0.75,0.73
117.55,-2.65,-3.35,-2.66,-3.36,3.36,3.31,3.44,0.71,0.70,0.69
118.73,-2.65,-3.31,-2.63,-3.29,3.29,3.25,3.41,0.64,0.66,0.65
119.92,-2.60,-3.23,-2.60,-3.23,3.23,3.19,3.38,0.63,0.63,0.62
121.12,-2.53,-3.12,-2.58,-3.17,3.17,3.13,3.34,0.64,0.59,0.58
122.33,-2.52,-3.08,-2.55,-3.11,3.11,3.07,3.30,0.59,0.55,0.55
123.55,-2.52,-3.05,-2.53,-3.05,3.05,3.01,3.27,0.53,0.52,0.52
124.79,-2.51,-3.01,-2.50,-2.99,2.99,2.95,3.23,0.47,0.49,0.49
126.03,-2.50,-2.97,-2.46,-2.93,2.93,2.90,3.19,0.42,0.46,0.46
127.29,-2.43,-2.88,-2.44,-2.87,2.87,2.84,3.14,0.43,0.43,0.44
128.57,-2.39,-2.80,-2.41,-2.82,2.82,2.79,3.10,0.42,0.40,0.40
129.85,-2.38,-2.76,-2.39,-2.77,2.77,2.73,3.05,0.39,0.37,0.37
131.15,-2.38,-2.73,-2.37,-2.72,2.72,2.68,3.00,0.34,0.35,0.34
132.46,-2.37,-2.69,-2.35,-2.67,2.67,2.62,2.95,0.30,0.32,0.31
133.79,-2.35,-2.64,-2.33,-2.62,2.62,2.57,2.90,0.27,0.29,0.28
135.12,-2.26,-2.52,-2.32,-2.58,2.58,2.51,2.85,0.32,0.26,0.25
136.48,-2.26,-2.50,-2.30,-2.53,2.53,2.46,2.80,0.27,0.23,0.23
137.84,-2.26,-2.46,-2.27,-2.48,2.48,2.41,2.74,0.22,0.21,0.19
139.22,-2.26,-2.43,-2.25,-2.43,2.43,2.36,2.69,0.17,0.18,0.16
140.61,-2.26,-2.40,-2.23,-2.38,2.38,2.30,2.63,0.11,0.15,0.13
142.02,-2.26,-2.38,-2.21,-2.33,2.33,2.25,2.57,0.06,0.11,0.11
143.44,-2.21,-2.30,-2.19,-2.27,2.27,2.20,2.52,0.06,0.08,0.08
144.87,-2.16,-2.21,-2.17,-2.21,2.21,2.15,2.46,0.05,0.04,0.04
146.32,-2.15,-2.16,-2.15,-2.14,2.14,2.10,2.40,-0.01,-0.00,0.00
147.78,-2.15,-2.13,-2.13,-2.08,2.08,2.05,2.34,-0.08,-0.05,-0.03
149.26,-2.09,-2.02,-2.11,-2.00,2.00,2.00,2.28,-0.09,-0.11,-0.08
150.75,-2.05,-1.92,-2.09,-1.93,1.93,1.94,2.22,-0.12,-0.16,-0.14
152.26,-2.05,-1.85,-2.08,-1.85,1.85,1.89,2.16,-0.20,-0.23,-0.21
153.78,-2.05,-1.78,-2.07,-1.78,1.78,1.84,2.11,-0.27,-0.29,-0.28
155.32,-2.05,-1.71,-2.07,-1.71,1.71,1.79,2.05,-0.35,-0.36,-0.35
156.88,-2.05,-1.63,-2.07,-1.64,1.64,1.74,1.99,-0.42,-0.43,-0.43
158.44,-2.05,-1.55,-2.07,-1.57,1.57,1.69,1.93,-0.49,-0.50,-0.51
160.03,-2.05,-1.47,-2.07,-1.50,1.50,1.64,1.88,-0.55,-0.57,-0.59
161.63,-2.05,-1.40,-2.07,-1.43,1.43,1.58,1.82,-0.62,-0.63,-0.66
163.24,-2.05,-1.34,-2.06,-1.37,1.37,1.53,1.77,-0.69,-0.70,-0.72
164.88,-2.06,-1.30,-2.06,-1.30,1.30,1.48,1.71,-0.76,-0.75,-0.77
166.53,-2.13,-1.32,-2.05,-1.25,1.25,1.43,1.66,-0.88,-0.80,-0.82
168.19,-2.10,-1.25,-2.04,-1.20,1.20,1.37,1.61,-0.90,-0.84,-0.86
169.87,-2.08,-1.19,-2.03,-1.16,1.16,1.32,1.56,-0.92,-0.87,-0.90
171.57,-2.08,-1.17,-2.02,-1.12,1.12,1.26,1.50,-0.96,-0.90,-0.92
173.29,-1.97,-1.05,-2.00,-1.09,1.09,1.21,1.45,-0.89,-0.92,-0.93
175.02,-1.89,-0.96,-1.98,-1.05,1.05,1.15,1.41,-0.84,-0.93,-0.94
176.77,-1.90,-0.96,-1.96,-1.02,1.02,1.10,1.36,-0.88,-0.94,-0.95
178.54,-1.90,-0.95,-1.94,-0.99,0.99,1.04,1.31,-0.91,-0.95,-0.96
180.32,-1.89,-0.95,-1.91,-0.96,0.96,0.99,1.26,-0.93,-0.95,-0.95
182.13,-1.89,-0.96,-1.88,-0.92,0.92,0.93,1.22,-0.97,-0.96,-0.94
183.95,-1.88,-0.94,-1.85,-0.88,0.88,0.88,1.17,-1.00,-0.96,-0.95
185.79,-1.87,-0.93,-1.82,-0.84,0.84,0.82,1.13,-1.03,-0.97,-0.95
187.65,-1.82,-0.86,-1.79,-0.81,0.81,0.77,1.09,-1.02,-0.98,-0.97
189.52,-1.76,-0.79,-1.76,-0.77,0.77,0.72,1.04,-0.99,-0.99,-0.98
191.42,-1.73,-0.74,-1.73,-0.73,0.73,0.67,1.00,-1.00,-1.00,-1.00
193.33,-1.71,-0.70,-1.71,-0.69,0.69,0.62,0.96,-1.02,-1.02,-1.02
195.27,-1.69,-0.66,-1.68,-0.65,0.65,0.57,0.92,-1.05,-1.03,-1.04
197.22,-1.64,-0.59,-1.65,-0.60,0.60,0.53,0.88,-1.04,-1.05,-1.06
199.19,-1.59,-0.52,-1.63,-0.56,0.56,0.49,0.84,-1.04,-1.07,-1.08
201.18,-1.56,-0.47,-1.60,-0.51,0.51,0.45,0.81,-1.05,-1.09,-1.10
203.19,-1.56,-0.45,-1.58,-0.47,0.47,0.42,0.77,-1.09,-1.11,-1.12
205.23,-1.55,-0.42,-1.57,-0.44,0.44,0.39,0.73,-1.12,-1.13,-1.14
207.28,-1.55,-0.41,-1.56,-0.40,0.40,0.37,0.70,-1.15,-1.15,-1.15
209.35,-1.55,-0.39,-1.55,-0.38,0.38,0.35,0.67,-1.17,-1.17,-1.17
211.44,-1.56,-0.37,-1.55,-0.36,0.36,0.34,0.63,-1.20,-1.19,-1.20
213.56,-1.56,-0.36,-1.55,-0.35,0.35,0.33,0.60,-1.22,-1.21,-1.21
215.69,-1.57,-0.36,-1.56,-0.34,0.34,0.33,0.57,-1.23,-1.22,-1.22
217.85,-1.57,-0.35,-1.56,-0.33,0.33,0.32,0.54,-1.24,-1.23,-1.23
220.03,-1.57,-0.34,-1.58,-0.34,0.34,0.33,0.52,-1.24,-1.24,-1.24
222.23,-1.57,-0.31,-1.59,-0.34,0.34,0.33,0.49,-1.23,-1.25,-1.27
224.45,-1.58,-0.33,-1.60,-0.35,0.35,0.34,0.46,-1.23,-1.25,-1.26
226.70,-1.57,-0.32,-1.60,-0.36,0.36,0.35,0.44,-1.22,-1.25,-1.26
228.96,-1.58,-0.34,-1.61,-0.37,0.37,0.37,0.42,-1.22,-1.24,-1.25
231.25,-1.64,-0.41,-1.61,-0.38,0.38,0.38,0.40,-1.27,-1.24,-1.24
233.57,-1.65,-0.43,-1.61,-0.39,0.39,0.40,0.38,-1.26,-1.22,-1.23
235.90,-1.64,-0.43,-1.61,-0.40,0.40,0.42,0.36,-1.24,-1.21,-1.22
238.26,-1.63,-0.43,-1.60,-0.41,0.41,0.44,0.34,-1.22,-1.19,-1.21
240.64,-1.61,-0.44,-1.60,-0.42,0.42,0.45,0.33,-1.19,-1.17,-1.18
243.05,-1.60,-0.46,-1.59,-0.43,0.43,0.47,0.32,-1.17,-1.15,-1.15
245.48,-1.58,-0.46,-1.58,-0.45,0.45,0.49,0.31,-1.14,-1.13,-1.13
247.93,-1.55,-0.46,-1.56,-0.46,0.46,0.51,0.30,-1.09,-1.10,-1.10
250.41,-1.53,-0.46,-1.55,-0.47,0.47,0.53,0.29,-1.06,-1.08,-1.08
252.92,-1.51,-0.47,-1.54,-0.48,0.48,0.54,0.28,-1.03,-1.06,-1.05
255.45,-1.50,-0.48,-1.52,-0.49,0.49,0.56,0.28,-1.01,-1.03,-1.03
258.00,-1.49,-0.49,-1.51,-0.50,0.50,0.57,0.28,-0.99,-1.01,-1.01
260.58,-1.49,-0.51,-1.50,-0.52,0.52,0.59,0.28,-0.97,-0.98,-0.99
263.19,-1.49,-0.54,-1.50,-0.54,0.54,0.60,0.28,-0.95,-0.96,-0.96
265.82,-1.49,-0.56,-1.50,-0.57,0.57,0.62,0.28,-0.93,-0.93,-0.94
268.48,-1.49,-0.58,-1.50,-0.59,0.59,0.63,0.29,-0.90,-0.91,-0.92
271.16,-1.49,-0.61,-1.51,-0.62,0.62,0.65,0.29,-0.87,-0.89,-0.89
273.87,-1.50,-0.64,-1.51,-0.65,0.65,0.66,0.30,-0.86,-0.86,-0.87
276.61,-1.50,-0.67,-1.50,-0.67,0.67,0.67,0.31,-0.83,-0.83,-0.84
279.38,-1.50,-0.70,-1.50,-0.69,0.69,0.68,0.32,-0.81,-0.81,-0.81
282.17,-1.50,-0.72,-1.48,-0.70,0.70,0.69,0.33,-0.80,-0.78,-0.79
284.99,-1.49,-0.75,-1.46,-0.71,0.71,0.71,0.35,-0.78,-0.75,-0.75
287.84,-1.48,-0.76,-1.44,-0.72,0.72,0.72,0.36,-0.76,-0.72,-0.73
290.72,-1.47,-0.78,-1.41,-0.72,0.72,0.73,0.38,-0.75,-0.69,-0.70
293.63,-1.46,-0.80,-1.38,-0.72,0.72,0.74,0.39,-0.74,-0.66,-0.67
296.57,-1.37,-0.74,-1.35,-0.72,0.72,0.75,0.41,-0.66,-0.63,-0.64
299.53,-1.33,-0.73,-1.32,-0.72,0.72,0.76,0.43,-0.62,-0.61,-0.61
302.53,-1.24,-0.66,-1.29,-0.72,0.72,0.77,0.45,-0.53,-0.58,-0.59
305.55,-1.21,-0.67,-1.27,-0.72,0.72,0.78,0.47,-0.49,-0.55,-0.55
308.61,-1.20,-0.68,-1.26,-0.73,0.73,0.79,0.49,-0.48,-0.53,-0.53
311.69,-1.20,-0.71,-1.25,-0.74,0.74,0.80,0.51,-0.46,-0.51,-0.50
314.81,-1.19,-0.72,-1.25,-0.76,0.76,0.81,0.54,-0.43,-0.48,-0.48
317.96,-1.19,-0.74,-1.25,-0.79,0.79,0.82,0.56,-0.40,-0.46,-0.46
321.14,-1.24,-0.80,-1.27,-0.83,0.83,0.83,0.58,-0.42,-0.44,-0.45
324.35,-1.29,-0.87,-1.29,-0.86,0.86,0.84,0.61,-0.43,-0.43,-0.43
327.59,-1.33,-0.92,-1.32,-0.91,0.91,0.85,0.63,-0.43,-0.41,-0.42
330.87,-1.38,-0.98,-1.35,-0.95,0.95,0.87,0.66,-0.43,-0.40,-0.41
334.18,-1.39,-1.01,-1.38,-1.00,1.00,0.88,0.69,-0.39,-0.39,-0.39
337.52,-1.45,-1.08,-1.42,-1.04,1.04,0.89,0.71,-0.41,-0.38,-0.38
340.90,-1.49,-1.13,-1.44,-1.07,1.07,0.90,0.74,-0.42,-0.37,-0.37
344.30,-1.50,-1.15,-1.46,-1.10,1.10,0.91,0.77,-0.41,-0.36,-0.36
347.75,-1.50,-1.15,-1.47,-1.12,1.12,0.93,0.80,-0.39,-0.36,-0.36
351.23,-1.50,-1.16,-1.49,-1.14,1.14,0.94,0.83,-0.37,-0.35,-0.35
354.74,-1.50,-1.15,-1.49,-1.15,1.15,0.95,0.86,-0.36,-0.35,-0.36
358.28,-1.49,-1.15,-1.50,-1.15,1.15,0.97,0.89,-0.34,-0.35,-0.35
361.87,-1.49,-1.15,-1.50,-1.15,1.15,0.98,0.92,-0.34,-0.34,-0.35
365.49,-1.48,-1.15,-1.49,-1.15,1.15,0.99,0.95,-0.33,-0.34,-0.34
369.14,-1.47,-1.13,-1.49,-1.15,1.15,1.01,0.99,-0.32,-0.34,-0.35
372.83,-1.46,-1.12,-1.49,-1.15,1.15,1.02,1.02,-0.32,-0.34,-0.35
376.56,-1.46,-1.11,-1.49,-1.14,1.14,1.04,1.05,-0.32,-0.35,-0.36
380.33,-1.48,-1.14,-1.49,-1.14,1.14,1.06,1.09,-0.34,-0.35,-0.35
384.13,-1.53,-1.19,-1.51,-1.15,1.15,1.07,1.12,-0.38,-0.35,-0.35
387.97,-1.54,-1.19,-1.52,-1.16,1.16,1.09,1.16,-0.38,-0.36,-0.36
391.85,-1.53,-1.17,-1.54,-1.18,1.18,1.11,1.19,-0.35,-0.36,-0.37
395.77,-1.53,-1.18,-1.56,-1.20,1.20,1.12,1.23,-0.34,-0.37,-0.36
399.73,-1.53,-1.17,-1.59,-1.21,1.21,1.14,1.26,-0.32,-0.37,-0.37
403.72,-1.58,-1.22,-1.61,-1.23,1.23,1.16,1.30,-0.35,-0.38,-0.37
407.76,-1.63,-1.25,-1.64,-1.25,1.25,1.18,1.34,-0.38,-0.38,-0.39
411.84,-1.64,-1.26,-1.66,-1.27,1.27,1.20,1.37,-0.37,-0.39,-0.39
415.96,-1.71,-1.33,-1.68,-1.29,1.29,1.22,1.41,-0.42,-0.39,-0.39
420.12,-1.74,-1.36,-1.69,-1.31,1.31,1.24,1.44,-0.44,-0.38,-0.39
424.32,-1.74,-1.36,-1.70,-1.32,1.32,1.26,1.48,-0.42,-0.38,-0.39
428.56,-1.73,-1.36,-1.71,-1.34,1.34,1.28,1.51,-0.39,-0.37,-0.38
432.85,-1.72,-1.36,-1.71,-1.36,1.36,1.30,1.54,-0.36,-0.35,-0.37
437.18,-1.69,-1.34,-1.71,-1.38,1.38,1.32,1.58,-0.32,-0.33,-0.36
441.55,-1.70,-1.39,-1.70,-1.39,1.39,1.34,1.61,-0.31,-0.31,-0.32
445.96,-1.70,-1.42,-1.67,-1.40,1.40,1.36,1.64,-0.30,-0.28,-0.29
450.42,-1.65,-1.40,-1.64,-1.40,1.40,1.39,1.67,-0.25,-0.24,-0.26
454.93,-1.60,-1.40,-1.61,-1.41,1.41,1.41,1.69,-0.19,-0.20,-0.21
459.48,-1.61,-1.45,-1.58,-1.42,1.42,1.43,1.72,-0.19,-0.15,-0.17
