frequency,raw,error,smoothed,error_smoothed,equalization,parametric_eq,fixed_band_eq,equalized_raw,equalized_smoothed,target
20.00,-5.94,-10.27,-5.93,-10.28,10.28,9.85,2.89,4.34,4.35,4.33
20.20,-5.85,-10.18,-5.85,-10.19,10.19,9.89,2.97,4.34,4.35,4.33
20.40,-5.78,-10.11,-5.77,-10.11,10.11,9.92,3.05,4.33,4.34,4.33
20.61,-5.69,-10.02,-5.69,-10.02,10.02,9.94,3.14,4.33,4.33,4.33
20.81,-5.60,-9.93,-5.61,-9.93,9.93,9.95,3.23,4.33,4.32,4.33
21.02,-5.52,-9.85,-5.53,-9.83,9.83,9.94,3.32,4.31,4.31,4.33
21.23,-5.43,-9.74,-5.45,-9.74,9.74,9.92,3.42,4.31,4.29,4.31
21.44,-5.35,-9.65,-5.36,-9.64,9.64,9.89,3.51,4.29,4.28,4.30
21.66,-5.27,-9.55,-5.28,-9.54,9.54,9.85,3.62,4.27,4.27,4.28
21.87,-5.19,-9.45,-5.19,-9.44,9.44,9.79,3.72,4.25,4.25,4.26
22.09,-5.10,-9.34,-5.10,-9.34,9.34,9.72,3.82,4.24,4.23,4.25
22.31,-5.02,-9.23,-5.02,-9.23,9.23,9.64,3.93,4.21,4.22,4.22
22.54,-4.94,-9.14,-4.93,-9.12,9.12,9.56,4.04,4.18,4.19,4.20
22.76,-4.85,-9.02,-4.84,-9.01,9.01,9.46,4.16,4.16,4.17,4.17
22.99,-4.76,-8.90,-4.75,-8.90,8.90,9.35,4.27,4.14,4.15,4.14
23.22,-4.67,-8.78,-4.66,-8.78,8.78,9.24,4.39,4.11,4.13,4.11
23.45,-4.56,-8.65,-4.56,-8.67,8.67,9.12,4.52,4.11,4.11,4.09
23.69,-4.47,-8.55,-4.47,-8.55,8.55,8.99,4.64,4.08,4.08,4.08
23.92,-4.36,-8.42,-4.37,-8.44,8.44,8.85,4.77,4.08,4.06,4.06
24.16,-4.27,-8.32,-4.28,-8.32,8.32,8.72,4.90,4.05,4.04,4.05
24.40,-4.18,-8.21,-4.18,-8.21,8.21,8.57,5.03,4.03,4.02,4.03
24.65,-4.08,-8.09,-4.08,-8.09,8.09,8.43,5.16,4.01,4.00,4.01
24.89,-3.98,-7.96,-3.98,-7.97,7.97,8.28,5.29,3.99,3.99,3.99
25.14,-3.89,-7.86,-3.89,-7.86,7.86,8.13,5.43,3.97,3.97,3.98
25.39,-3.79,-7.74,-3.79,-7.74,7.74,7.98,5.57,3.95,3.95,3.95
25.65,-3.69,-7.63,-3.69,-7.62,7.62,7.83,5.70,3.93,3.94,3.94
25.91,-3.59,-7.50,-3.59,-7.51,7.51,7.67,5.84,3.92,3.92,3.91
26.16,-3.49,-7.39,-3.49,-7.39,7.39,7.52,5.98,3.90,3.91,3.90
26.43,-3.39,-7.28,-3.39,-7.28,7.28,7.37,6.11,3.88,3.89,3.89
26.69,-3.28,-7.15,-3.28,-7.16,7.16,7.21,6.25,3.88,3.87,3.87
26.96,-3.18,-7.04,-3.18,-7.04,7.04,7.06,6.38,3.86,3.86,3.86
27.23,-3.07,-6.92,-3.08,-6.92,6.92,6.91,6.50,3.85,3.84,3.85
27.50,-2.98,-6.82,-2.97,-6.80,6.80,6.76,6.63,3.82,3.83,3.83
27.77,-2.87,-6.68,-2.87,-6.68,6.68,6.61,6.75,3.81,3.81,3.81
28.05,-2.76,-6.56,-2.76,-6.56,6.56,6.46,6.86,3.80,3.80,3.80
28.33,-2.66,-6.44,-2.65,-6.44,6.44,6.32,6.96,3.78,3.79,3.78
28.62,-2.55,-6.32,-2.55,-6.32,6.32,6.17,7.06,3.77,3.77,3.77
28.90,-2.45,-6.21,-2.44,-6.20,6.20,6.03,7.15,3.75,3.76,3.76
29.19,-2.34,-6.07,-2.33,-6.08,6.08,5.89,7.23,3.74,3.75,3.73
29.48,-2.23,-5.96,-2.23,-5.96,5.96,5.75,7.29,3.73,3.73,3.73
29.78,-2.12,-5.84,-2.12,-5.84,5.84,5.62,7.35,3.72,3.72,3.72
30.08,-2.01,-5.72,-2.02,-5.72,5.72,5.49,7.39,3.71,3.70,3.71
30.38,-1.92,-5.61,-1.92,-5.60,5.60,5.35,7.42,3.68,3.69,3.69
30.68,-1.81,-5.48,-1.82,-5.49,5.49,5.23,7.43,3.68,3.67,3.67
30.99,-1.70,-5.35,-1.72,-5.37,5.37,5.10,7.43,3.67,3.65,3.65
31.30,-1.62,-5.26,-1.62,-5.26,5.26,4.97,7.42,3.64,3.64,3.64
31.61,-1.52,-5.15,-1.53,-5.15,5.15,4.85,7.39,3.63,3.62,3.63
31.93,-1.43,-5.04,-1.43,-5.03,5.03,4.73,7.35,3.60,3.60,3.61
32.24,-1.35,-4.92,-1.34,-4.92,4.92,4.61,7.29,3.57,3.58,3.57
32.57,-1.25,-4.81,-1.25,-4.81,4.81,4.50,7.22,3.56,3.56,3.56
32.89,-1.17,-4.72,-1.16,-4.70,4.70,4.38,7.13,3.53,3.54,3.55
33.22,-1.08,-4.59,-1.08,-4.60,4.60,4.27,7.04,3.52,3.52,3.51
33.55,-0.99,-4.49,-0.99,-4.49,4.49,4.16,6.93,3.50,3.50,3.50
33.89,-0.91,-4.39,-0.90,-4.38,4.38,4.05,6.81,3.47,3.48,3.48
34.23,-0.82,-4.27,-0.82,-4.27,4.27,3.95,6.69,3.45,3.45,3.45
34.57,-0.73,-4.16,-0.73,-4.17,4.17,3.85,6.55,3.44,3.43,3.43
34.92,-0.65,-4.06,-0.65,-4.06,4.06,3.74,6.41,3.41,3.41,3.41
35.27,-0.56,-3.95,-0.56,-3.95,3.95,3.64,6.26,3.39,3.39,3.39
35.62,-0.48,-3.85,-0.48,-3.85,3.85,3.55,6.10,3.37,3.37,3.37
35.97,-0.40,-3.74,-0.39,-3.74,3.74,3.45,5.94,3.34,3.35,3.34
36.33,-0.31,-3.64,-0.31,-3.64,3.64,3.35,5.78,3.33,3.33,3.33
36.70,-0.23,-3.54,-0.23,-3.53,3.53,3.26,5.61,3.30,3.30,3.31
37.06,-0.14,-3.42,-0.15,-3.43,3.43,3.17,5.44,3.29,3.28,3.28
37.43,-0.06,-3.33,-0.06,-3.32,3.32,3.08,5.27,3.27,3.26,3.27
37.81,0.02,-3.22,0.02,-3.22,3.22,2.99,5.10,3.24,3.24,3.24
38.19,0.10,-3.12,0.10,-3.12,3.12,2.91,4.93,3.22,3.22,3.22
38.57,0.17,-3.03,0.18,-3.02,3.02,2.82,4.75,3.19,3.20,3.20
38.95,0.26,-2.91,0.26,-2.92,2.92,2.74,4.58,3.18,3.18,3.18
39.34,0.33,-2.82,0.33,-2.82,2.82,2.66,4.41,3.15,3.16,3.15
39.74,0.41,-2.71,0.41,-2.72,2.72,2.58,4.24,3.13,3.14,3.12
40.14,0.49,-2.63,0.49,-2.63,2.63,2.50,4.07,3.12,3.11,3.12
40.54,0.56,-2.53,0.56,-2.53,2.53,2.42,3.90,3.09,3.09,3.09
40.94,0.64,-2.43,0.64,-2.44,2.44,2.34,3.73,3.08,3.08,3.07
41.35,0.71,-2.34,0.71,-2.34,2.34,2.26,3.57,3.05,3.06,3.05
41.76,0.79,-2.25,0.78,-2.25,2.25,2.19,3.40,3.04,3.03,3.04
42.18,0.86,-2.16,0.86,-2.16,2.16,2.12,3.24,3.02,3.01,3.02
42.60,0.93,-2.06,0.93,-2.06,2.06,2.04,3.08,2.99,2.99,2.99
43.03,1.00,-1.99,1.00,-1.97,1.97,1.97,2.92,2.97,2.97,2.99
43.46,1.07,-1.89,1.07,-1.88,1.88,1.90,2.76,2.95,2.95,2.96
43.90,1.15,-1.78,1.14,-1.79,1.79,1.83,2.60,2.94,2.93,2.93
44.33,1.21,-1.70,1.21,-1.70,1.70,1.76,2.45,2.91,2.91,2.91
44.78,1.28,-1.61,1.28,-1.61,1.61,1.69,2.29,2.89,2.89,2.89
45.23,1.35,-1.51,1.35,-1.52,1.52,1.63,2.14,2.87,2.87,2.86
45.68,1.42,-1.42,1.42,-1.43,1.43,1.56,1.99,2.85,2.85,2.84
46.13,1.49,-1.33,1.49,-1.34,1.34,1.50,1.85,2.83,2.83,2.82
46.60,1.56,-1.25,1.55,-1.25,1.25,1.43,1.70,2.81,2.81,2.81
47.06,1.62,-1.17,1.62,-1.16,1.16,1.37,1.55,2.78,2.78,2.79
47.53,1.69,-1.08,1.69,-1.07,1.07,1.30,1.41,2.76,2.76,2.77
48.01,1.75,-1.01,1.75,-0.98,0.98,1.24,1.27,2.73,2.74,2.76
48.49,1.82,-0.90,1.82,-0.90,0.90,1.18,1.13,2.72,2.71,2.72
48.97,1.88,-0.81,1.88,-0.81,0.81,1.11,0.99,2.69,2.69,2.69
49.46,1.94,-0.72,1.94,-0.72,0.72,1.05,0.86,2.66,2.67,2.66
49.96,2.00,-0.62,2.01,-0.63,0.63,0.99,0.72,2.63,2.64,2.62
50.46,2.07,-0.55,2.07,-0.55,0.55,0.93,0.59,2.62,2.62,2.62
50.96,2.13,-0.46,2.13,-0.46,0.46,0.87,0.46,2.59,2.59,2.59
51.47,2.19,-0.37,2.19,-0.37,0.37,0.81,0.33,2.56,2.56,2.56
51.99,2.25,-0.28,2.25,-0.28,0.28,0.75,0.20,2.53,2.54,2.53
52.51,2.31,-0.21,2.31,-0.20,0.20,0.69,0.08,2.51,2.51,2.52
53.03,2.37,-0.12,2.37,-0.11,0.11,0.63,-0.04,2.48,2.48,2.49
53.56,2.43,-0.03,2.43,-0.03,0.03,0.57,-0.16,2.46,2.46,2.46
54.10,2.49,0.06,2.48,0.05,-0.05,0.51,-0.28,2.44,2.43,2.43
54.64,2.54,0.14,2.54,0.14,-0.14,0.45,-0.39,2.40,2.40,2.40
55.18,2.59,0.22,2.59,0.22,-0.22,0.39,-0.50,2.37,2.38,2.37
55.74,2.65,0.31,2.65,0.30,-0.30,0.33,-0.61,2.35,2.35,2.34
56.29,2.69,0.37,2.70,0.37,-0.37,0.27,-0.72,2.32,2.32,2.32
56.86,2.74,0.45,2.74,0.45,-0.45,0.21,-0.82,2.29,2.29,2.29
57.42,2.79,0.53,2.79,0.53,-0.53,0.16,-0.91,2.26,2.27,2.26
58.00,2.84,0.60,2.84,0.60,-0.60,0.10,-1.01,2.24,2.24,2.24
58.58,2.88,0.68,2.88,0.68,-0.68,0.04,-1.10,2.20,2.21,2.20
59.16,2.93,0.75,2.92,0.75,-0.75,-0.02,-1.18,2.18,2.18,2.18
59.76,2.96,0.81,2.96,0.82,-0.82,-0.08,-1.26,2.14,2.14,2.15
60.35,3.00,0.88,3.00,0.89,-0.89,-0.14,-1.34,2.11,2.11,2.12
60.96,3.03,0.93,3.04,0.95,-0.95,-0.20,-1.41,2.08,2.08,2.10
61.57,3.07,1.02,3.07,1.02,-1.02,-0.26,-1.47,2.05,2.05,2.05
62.18,3.10,1.09,3.10,1.08,-1.08,-0.32,-1.54,2.02,2.02,2.01
62.80,3.13,1.15,3.13,1.14,-1.14,-0.39,-1.59,1.99,1.99,1.99
63.43,3.16,1.21,3.15,1.20,-1.20,-0.45,-1.64,1.96,1.96,1.95
64.07,3.17,1.26,3.18,1.25,-1.25,-0.51,-1.69,1.92,1.93,1.91
64.71,3.20,1.31,3.20,1.30,-1.30,-0.57,-1.73,1.90,1.89,1.89
65.35,3.21,1.35,3.21,1.35,-1.35,-0.63,-1.77,1.86,1.86,1.86
66.01,3.23,1.39,3.23,1.40,-1.40,-0.70,-1.81,1.83,1.83,1.84
66.67,3.24,1.44,3.24,1.44,-1.44,-0.76,-1.84,1.80,1.80,1.80
67.33,3.26,1.48,3.25,1.48,-1.48,-0.83,-1.87,1.78,1.77,1.78
68.01,3.26,1.52,3.26,1.52,-1.52,-0.89,-1.89,1.74,1.74,1.74
68.69,3.26,1.55,3.26,1.55,-1.55,-0.95,-1.91,1.71,1.71,1.71
69.37,3.26,1.59,3.26,1.58,-1.58,-1.02,-1.93,1.68,1.68,1.67
70.07,3.26,1.62,3.26,1.61,-1.61,-1.09,-1.95,1.65,1.64,1.64
70.77,3.25,1.64,3.25,1.64,-1.64,-1.15,-1.96,1.61,1.61,1.61
71.48,3.25,1.68,3.24,1.67,-1.67,-1.22,-1.97,1.58,1.57,1.57
72.19,3.23,1.69,3.23,1.70,-1.70,-1.28,-1.98,1.53,1.53,1.54
72.91,3.22,1.72,3.21,1.72,-1.72,-1.35,-1.99,1.50,1.50,1.50
73.64,3.19,1.74,3.19,1.74,-1.74,-1.42,-2.00,1.45,1.46,1.45
74.38,3.17,1.75,3.17,1.76,-1.76,-1.49,-2.01,1.41,1.41,1.42
75.12,3.15,1.79,3.15,1.77,-1.77,-1.55,-2.02,1.38,1.37,1.36
75.87,3.12,1.79,3.12,1.79,-1.79,-1.62,-2.02,1.33,1.33,1.33
76.63,3.09,1.80,3.09,1.80,-1.80,-1.69,-2.03,1.29,1.28,1.29
77.40,3.05,1.81,3.05,1.82,-1.82,-1.76,-2.04,1.23,1.24,1.24
78.17,3.02,1.84,3.02,1.83,-1.83,-1.83,-2.05,1.19,1.19,1.18
78.95,2.98,1.83,2.98,1.84,-1.84,-1.90,-2.06,1.14,1.14,1.15
79.74,2.94,1.84,2.94,1.85,-1.85,-1.96,-2.07,1.09,1.09,1.10
80.54,2.90,1.86,2.90,1.86,-1.86,-2.03,-2.08,1.04,1.04,1.04
81.35,2.86,1.87,2.86,1.87,-1.87,-2.10,-2.09,0.99,0.99,0.99
82.16,2.82,1.89,2.81,1.88,-1.88,-2.17,-2.11,0.94,0.94,0.93
82.98,2.77,1.88,2.77,1.89,-1.89,-2.23,-2.13,0.88,0.88,0.89
83.81,2.73,1.91,2.72,1.90,-1.90,-2.30,-2.14,0.83,0.83,0.82
84.65,2.67,1.91,2.68,1.91,-1.91,-2.36,-2.16,0.76,0.77,0.76
85.50,2.63,1.91,2.63,1.92,-1.92,-2.42,-2.18,0.71,0.71,0.72
86.35,2.59,1.93,2.59,1.93,-1.93,-2.49,-2.21,0.66,0.66,0.66
87.22,2.54,1.94,2.55,1.95,-1.95,-2.55,-2.23,0.59,0.60,0.60
88.09,2.51,1.97,2.50,1.96,-1.96,-2.61,-2.26,0.55,0.54,0.54
88.97,2.46,1.97,2.46,1.98,-1.98,-2.66,-2.29,0.48,0.48,0.49
89.86,2.42,2.00,2.42,2.00,-2.00,-2.72,-2.32,0.42,0.42,0.42
90.76,2.38,2.03,2.38,2.02,-2.02,-2.77,-2.35,0.36,0.36,0.35
91.66,2.35,2.05,2.35,2.05,-2.05,-2.82,-2.39,0.30,0.30,0.30
92.58,2.31,2.09,2.31,2.08,-2.08,-2.87,-2.42,0.23,0.24,0.22
93.51,2.28,2.10,2.28,2.11,-2.11,-2.92,-2.46,0.17,0.17,0.18
94.44,2.25,2.13,2.25,2.14,-2.14,-2.96,-2.50,0.11,0.11,0.12
95.39,2.22,2.17,2.22,2.18,-2.18,-3.00,-2.54,0.04,0.04,0.05
96.34,2.19,2.22,2.20,2.22,-2.22,-3.04,-2.58,-0.03,-0.02,-0.03
97.30,2.17,2.26,2.17,2.26,-2.26,-3.08,-2.63,-0.09,-0.09,-0.09
98.28,2.15,2.31,2.15,2.31,-2.31,-3.11,-2.68,-0.16,-0.16,-0.16
99.26,2.12,2.35,2.12,2.35,-2.35,-3.14,-2.72,-0.23,-0.23,-0.23
100.25,2.10,2.40,2.10,2.40,-2.40,-3.16,-2.77,-0.30,-0.30,-0.30
101.25,2.08,2.45,2.08,2.45,-2.45,-3.18,-2.82,-0.37,-0.37,-0.37
102.27,2.06,2.51,2.06,2.51,-2.51,-3.20,-2.87,-0.45,-0.44,-0.45
103.29,2.04,2.56,2.04,2.56,-2.56,-3.22,-2.92,-0.52,-0.52,-0.52
104.32,2.03,2.62,2.02,2.61,-2.61,-3.23,-2.97,-0.58,-0.59,-0.59
105.37,2.01,2.67,2.00,2.67,-2.67,-3.24,-3.02,-0.66,-0.67,-0.66
106.42,1.98,2.72,1.99,2.73,-2.73,-3.25,-3.07,-0.75,-0.74,-0.74
107.48,1.96,2.78,1.97,2.78,-2.78,-3.25,-3.11,-0.82,-0.82,-0.82
108.56,1.95,2.84,1.95,2.84,-2.84,-3.25,-3.16,-0.89,-0.89,-0.89
109.64,1.93,2.90,1.93,2.90,-2.90,-3.25,-3.21,-0.97,-0.97,-0.97
110.74,1.91,2.95,1.91,2.95,-2.95,-3.24,-3.25,-1.04,-1.05,-1.04
111.85,1.88,3.00,1.88,3.01,-3.01,-3.24,-3.29,-1.13,-1.13,-1.12
112.97,1.86,3.07,1.86,3.06,-3.06,-3.23,-3.33,-1.20,-1.20,-1.21
114.10,1.83,3.11,1.83,3.11,-3.11,-3.22,-3.36,-1.28,-1.28,-1.28
115.24,1.81,3.16,1.81,3.16,-3.16,-3.21,-3.39,-1.35,-1.36,-1.35
116.39,1.78,3.22,1.78,3.21,-3.21,-3.20,-3.42,-1.43,-1.43,-1.44
117.55,1.75,3.27,1.74,3.25,-3.25,-3.19,-3.44,-1.50,-1.51,-1.52
118.73,1.71,3.30,1.71,3.29,-3.29,-3.18,-3.46,-1.58,-1.58,-1.59
119.92,1.67,3.33,1.67,3.33,-3.33,-3.17,-3.47,-1.66,-1.66,-1.66
121.12,1.63,3.36,1.63,3.36,-3.36,-3.16,-3.48,-1.73,-1.73,-1.73
122.33,1.59,3.39,1.59,3.39,-3.39,-3.15,-3.48,-1.80,-1.80,-1.80
123.55,1.54,3.41,1.54,3.41,-3.41,-3.14,-3.47,-1.87,-1.87,-1.87
124.79,1.49,3.43,1.49,3.43,-3.43,-3.13,-3.46,-1.94,-1.94,-1.94
126.03,1.43,3.43,1.43,3.44,-3.44,-3.13,-3.44,-2.01,-2.01,-2.00
127.29,1.38,3.45,1.37,3.45,-3.45,-3.13,-3.42,-2.07,-2.08,-2.07
128.57,1.31,3.46,1.31,3.45,-3.45,-3.13,-3.39,-2.14,-2.14,-2.15
129.85,1.25,3.46,1.24,3.45,-3.45,-3.14,-3.36,-2.20,-2.20,-2.21
131.15,1.18,3.45,1.17,3.44,-3.44,-3.14,-3.32,-2.26,-2.27,-2.27
132.46,1.10,3.43,1.10,3.43,-3.43,-3.15,-3.27,-2.33,-2.33,-2.33
133.79,1.03,3.41,1.02,3.41,-3.41,-3.17,-3.22,-2.38,-2.38,-2.38
135.12,0.94,3.39,0.94,3.38,-3.38,-3.18,-3.17,-2.44,-2.44,-2.45
136.48,0.86,3.35,0.86,3.35,-3.35,-3.20,-3.10,-2.49,-2.49,-2.49
137.84,0.77,3.31,0.78,3.32,-3.32,-3.21,-3.04,-2.55,-2.54,-2.54
139.22,0.68,3.28,0.69,3.28,-3.28,-3.22,-2.97,-2.60,-2.59,-2.60
140.61,0.59,3.24,0.60,3.23,-3.23,-3.23,-2.90,-2.64,-2.63,-2.65
142.02,0.50,3.17,0.51,3.18,-3.18,-3.23,-2.82,-2.68,-2.68,-2.67
143.44,0.41,3.12,0.41,3.13,-3.13,-3.22,-2.75,-2.72,-2.72,-2.71
144.87,0.31,3.07,0.31,3.07,-3.07,-3.20,-2.67,-2.76,-2.76,-2.76
146.32,0.22,3.02,0.21,3.01,-3.01,-3.16,-2.58,-2.79,-2.80,-2.80
147.78,0.12,2.95,0.11,2.95,-2.95,-3.11,-2.50,-2.83,-2.83,-2.83
149.26,0.02,2.88,0.01,2.88,-2.88,-3.04,-2.41,-2.86,-2.87,-2.86
150.75,-0.10,2.81,-0.10,2.81,-2.81,-2.96,-2.33,-2.91,-2.91,-2.91
152.26,-0.21,2.73,-0.21,2.73,-2.73,-2.87,-2.24,-2.94,-2.94,-2.94
153.78,-0.32,2.66,-0.32,2.66,-2.66,-2.77,-2.15,-2.98,-2.98,-2.98
155.32,-0.43,2.58,-0.43,2.58,-2.58,-2.65,-2.06,-3.01,-3.01,-3.01
156.88,-0.55,2.49,-0.55,2.50,-2.50,-2.54,-1.97,-3.05,-3.05,-3.04
158.44,-0.67,2.41,-0.67,2.42,-2.42,-2.42,-1.88,-3.09,-3.08,-3.08
160.03,-0.79,2.33,-0.79,2.33,-2.33,-2.30,-1.79,-3.12,-3.12,-3.12
161.63,-0.92,2.24,-0.91,2.24,-2.24,-2.18,-1.70,-3.16,-3.15,-3.16
163.24,-1.03,2.16,-1.03,2.15,-2.15,-2.06,-1.62,-3.18,-3.18,-3.19
164.88,-1.15,2.06,-1.16,2.06,-2.06,-1.95,-1.53,-3.21,-3.22,-3.21
166.53,-1.28,1.97,-1.28,1.97,-1.97,-1.83,-1.44,-3.25,-3.26,-3.25
168.19,-1.41,1.88,-1.41,1.88,-1.88,-1.72,-1.35,-3.29,-3.29,-3.29
169.87,-1.54,1.79,-1.54,1.79,-1.79,-1.62,-1.27,-3.33,-3.33,-3.33
171.57,-1.67,1.69,-1.67,1.69,-1.69,-1.52,-1.18,-3.36,-3.37,-3.36
173.29,-1.81,1.58,-1.81,1.60,-1.60,-1.42,-1.09,-3.41,-3.41,-3.39
175.02,-1.94,1.49,-1.94,1.50,-1.50,-1.32,-1.01,-3.44,-3.44,-3.43
176.77,-2.08,1.40,-2.08,1.40,-1.40,-1.22,-0.93,-3.48,-3.48,-3.48
178.54,-2.22,1.30,-2.22,1.30,-1.30,-1.13,-0.84,-3.52,-3.52,-3.52
180.32,-2.36,1.20,-2.36,1.20,-1.20,-1.04,-0.76,-3.56,-3.56,-3.56
182.13,-2.51,1.09,-2.51,1.09,-1.09,-0.95,-0.68,-3.60,-3.60,-3.60
183.95,-2.66,0.99,-2.66,0.98,-0.98,-0.85,-0.60,-3.64,-3.64,-3.65
185.79,-2.80,0.88,-2.81,0.87,-0.87,-0.76,-0.52,-3.67,-3.68,-3.68
187.65,-2.95,0.78,-2.96,0.76,-0.76,-0.67,-0.44,-3.71,-3.72,-3.73
189.52,-3.12,0.64,-3.12,0.64,-0.64,-0.58,-0.36,-3.76,-3.76,-3.76
191.42,-3.27,0.53,-3.28,0.51,-0.51,-0.49,-0.28,-3.78,-3.79,-3.80
193.33,-3.43,0.39,-3.44,0.39,-0.39,-0.39,-0.20,-3.82,-3.83,-3.82
195.27,-3.59,0.26,-3.60,0.26,-0.26,-0.29,-0.13,-3.85,-3.86,-3.85
197.22,-3.76,0.12,-3.76,0.13,-0.13,-0.19,-0.05,-3.89,-3.89,-3.88
199.19,-3.92,0.02,-3.92,-0.00,0.00,-0.09,0.02,-3.92,-3.92,-3.94
201.18,-4.08,-0.12,-4.09,-0.14,0.14,0.02,0.10,-3.94,-3.95,-3.96
203.19,-4.25,-0.27,-4.25,-0.27,0.27,0.13,0.17,-3.98,-3.98,-3.98
205.23,-4.41,-0.41,-4.40,-0.40,0.40,0.24,0.24,-4.01,-4.00,-4.00
207.28,-4.56,-0.55,-4.56,-0.53,0.53,0.36,0.31,-4.03,-4.03,-4.01
209.35,-4.71,-0.66,-4.71,-0.66,0.66,0.48,0.38,-4.05,-4.05,-4.05
211.44,-4.85,-0.77,-4.86,-0.78,0.78,0.61,0.44,-4.07,-4.07,-4.08
213.56,-5.00,-0.91,-5.00,-0.91,0.91,0.74,0.51,-4.09,-4.09,-4.09
215.69,-5.13,-1.03,-5.13,-1.02,1.02,0.87,0.57,-4.11,-4.11,-4.10
217.85,-5.26,-1.14,-5.25,-1.13,1.13,1.00,0.63,-4.13,-4.12,-4.12
220.03,-5.38,-1.24,-5.37,-1.24,1.24,1.14,0.69,-4.14,-4.13,-4.14
222.23,-5.48,-1.32,-5.48,-1.33,1.33,1.27,0.74,-4.15,-4.14,-4.16
224.45,-5.58,-1.43,-5.58,-1.42,1.42,1.40,0.79,-4.16,-4.15,-4.15
226.70,-5.67,-1.51,-5.66,-1.51,1.51,1.53,0.84,-4.16,-4.16,-4.16
228.96,-5.74,-1.57,-5.74,-1.58,1.58,1.64,0.89,-4.16,-4.16,-4.17
231.25,-5.82,-1.66,-5.81,-1.65,1.65,1.75,0.93,-4.17,-4.16,-4.16
233.57,-5.87,-1.72,-5.87,-1.71,1.71,1.83,0.97,-4.16,-4.16,-4.15
235.90,-5.91,-1.76,-5.91,-1.76,1.76,1.90,1.01,-4.15,-4.15,-4.15
238.26,-5.94,-1.79,-5.95,-1.80,1.80,1.95,1.04,-4.14,-4.14,-4.15
240.64,-5.96,-1.82,-5.97,-1.84,1.84,1.97,1.07,-4.12,-4.14,-4.14
243.05,-5.97,-1.84,-5.98,-1.86,1.86,1.97,1.09,-4.11,-4.12,-4.13
245.48,-5.97,-1.86,-5.98,-1.87,1.87,1.95,1.11,-4.10,-4.11,-4.11
247.93,-5.96,-1.86,-5.97,-1.87,1.87,1.90,1.13,-4.09,-4.09,-4.10
250.41,-5.93,-1.84,-5.94,-1.86,1.86,1.84,1.14,-4.07,-4.08,-4.09
252.92,-5.89,-1.84,-5.89,-1.83,1.83,1.76,1.14,-4.06,-4.06,-4.05
255.45,-5.85,-1.82,-5.82,-1.78,1.78,1.67,1.14,-4.07,-4.04,-4.03
258.00,-5.78,-1.77,-5.74,-1.72,1.72,1.57,1.14,-4.06,-4.02,-4.01
260.58,-5.68,-1.68,-5.63,-1.64,1.64,1.46,1.14,-4.04,-4.00,-4.00
263.19,-5.57,-1.59,-5.51,-1.54,1.54,1.35,1.13,-4.03,-3.98,-3.98
265.82,-5.44,-1.48,-5.38,-1.43,1.43,1.24,1.11,-4.01,-3.95,-3.96
268.48,-5.28,-1.35,-5.23,-1.30,1.30,1.13,1.09,-3.98,-3.93,-3.93
271.16,-5.10,-1.20,-5.07,-1.17,1.17,1.02,1.07,-3.93,-3.91,-3.90
273.87,-4.93,-1.04,-4.91,-1.02,1.02,0.92,1.05,-3.91,-3.89,-3.89
276.61,-4.73,-0.88,-4.74,-0.88,0.88,0.82,1.02,-3.85,-3.86,-3.85
279.38,-4.54,-0.70,-4.58,-0.74,0.74,0.73,0.99,-3.80,-3.84,-3.84
282.17,-4.36,-0.54,-4.41,-0.60,0.60,0.64,0.96,-3.76,-3.81,-3.82
284.99,-4.19,-0.40,-4.26,-0.47,0.47,0.55,0.92,-3.72,-3.79,-3.79
287.84,-4.05,-0.28,-4.11,-0.35,0.35,0.47,0.88,-3.70,-3.76,-3.77
290.72,-3.92,-0.19,-3.98,-0.24,0.24,0.39,0.84,-3.68,-3.74,-3.73
293.63,-3.81,-0.09,-3.86,-0.15,0.15,0.32,0.80,-3.66,-3.71,-3.72
296.57,-3.72,-0.04,-3.75,-0.07,0.07,0.25,0.76,-3.65,-3.68,-3.68
299.53,-3.64,0.02,-3.65,-0.00,0.00,0.19,0.71,-3.64,-3.65,-3.66
302.53,-3.57,0.06,-3.57,0.05,-0.05,0.13,0.67,-3.62,-3.62,-3.63
305.55,-3.51,0.08,-3.49,0.10,-0.10,0.07,0.62,-3.61,-3.59,-3.59
308.61,-3.44,0.12,-3.42,0.14,-0.14,0.02,0.57,-3.58,-3.56,-3.56
311.69,-3.38,0.14,-3.36,0.17,-0.17,-0.03,0.52,-3.55,-3.53,-3.52
314.81,-3.32,0.17,-3.30,0.20,-0.20,-0.08,0.48,-3.52,-3.50,-3.49
317.96,-3.26,0.20,-3.24,0.22,-0.22,-0.13,0.43,-3.48,-3.47,-3.46
321.14,-3.19,0.25,-3.18,0.25,-0.25,-0.17,0.37,-3.44,-3.44,-3.44
324.35,-3.14,0.27,-3.13,0.28,-0.28,-0.22,0.32,-3.42,-3.41,-3.41
327.59,-3.08,0.29,-3.07,0.31,-0.31,-0.26,0.27,-3.39,-3.38,-3.37
330.87,-3.01,0.34,-3.01,0.34,-0.34,-0.30,0.22,-3.35,-3.35,-3.35
334.18,-2.96,0.37,-2.95,0.37,-0.37,-0.34,0.17,-3.33,-3.33,-3.33
337.52,-2.89,0.41,-2.90,0.40,-0.40,-0.38,0.12,-3.29,-3.30,-3.30
340.90,-2.84,0.44,-2.84,0.44,-0.44,-0.41,0.07,-3.28,-3.28,-3.28
344.30,-2.78,0.48,-2.79,0.47,-0.47,-0.45,0.01,-3.25,-3.26,-3.26
347.75,-2.73,0.50,-2.74,0.50,-0.50,-0.49,-0.04,-3.23,-3.24,-3.23
351.23,-2.67,0.54,-2.69,0.53,-0.53,-0.52,-0.09,-3.20,-3.22,-3.21
354.74,-2.62,0.58,-2.64,0.56,-0.56,-0.56,-0.14,-3.18,-3.20,-3.20
358.28,-2.58,0.60,-2.59,0.59,-0.59,-0.60,-0.19,-3.17,-3.18,-3.18
361.87,-2.54,0.62,-2.54,0.62,-0.62,-0.63,-0.25,-3.16,-3.16,-3.16
365.49,-2.49,0.64,-2.48,0.66,-0.66,-0.67,-0.30,-3.15,-3.14,-3.13
369.14,-2.45,0.68,-2.43,0.69,-0.69,-0.70,-0.35,-3.14,-3.12,-3.13
372.83,-2.40,0.71,-2.38,0.72,-0.72,-0.74,-0.40,-3.12,-3.10,-3.11
376.56,-2.33,0.76,-2.32,0.76,-0.76,-0.78,-0.46,-3.09,-3.08,-3.09
380.33,-2.28,0.78,-2.26,0.80,-0.80,-0.81,-0.51,-3.08,-3.06,-3.06
384.13,-2.21,0.83,-2.20,0.84,-0.84,-0.85,-0.56,-3.05,-3.04,-3.04
387.97,-2.15,0.87,-2.14,0.88,-0.88,-0.89,-0.61,-3.03,-3.02,-3.02
391.85,-2.08,0.93,-2.08,0.92,-0.92,-0.92,-0.66,-3.00,-3.00,-3.01
395.77,-2.02,0.96,-2.01,0.97,-0.97,-0.96,-0.72,-2.99,-2.98,-2.98
399.73,-1.94,1.02,-1.95,1.01,-1.01,-1.00,-0.77,-2.95,-2.96,-2.96
403.72,-1.88,1.06,-1.89,1.05,-1.05,-1.03,-0.82,-2.93,-2.94,-2.94
407.76,-1.82,1.10,-1.82,1.10,-1.10,-1.07,-0.87,-2.92,-2.92,-2.92
411.84,-1.76,1.13,-1.76,1.13,-1.13,-1.11,-0.92,-2.89,-2.90,-2.89
415.96,-1.69,1.19,-1.71,1.17,-1.17,-1.14,-0.97,-2.86,-2.88,-2.88
420.12,-1.64,1.22,-1.65,1.20,-1.20,-1.18,-1.01,-2.84,-2.85,-2.86
424.32,-1.59,1.24,-1.60,1.23,-1.23,-1.21,-1.06,-2.82,-2.83,-2.83
428.56,-1.55,1.26,-1.55,1.26,-1.26,-1.24,-1.11,-2.81,-2.81,-2.81
432.85,-1.50,1.29,-1.50,1.28,-1.28,-1.27,-1.15,-2.78,-2.79,-2.79
437.18,-1.46,1.30,-1.46,1.30,-1.30,-1.30,-1.20,-2.76,-2.76,-2.76
441.55,-1.42,1.31,-1.42,1.32,-1.32,-1.33,-1.24,-2.74,-2.74,-2.73
445.96,-1.38,1.33,-1.38,1.33,-1.33,-1.35,-1.28,-2.71,-2.71,-2.71
450.42,-1.35,1.34,-1.35,1.34,-1.34,-1.37,-1.32,-2.69,-2.68,-2.69
454.93,-1.32,1.34,-1.31,1.34,-1.34,-1.39,-1.36,-2.66,-2.66,-2.66
459.48,-1.28,1.36,-1.28,1.35,-1.35,-1.41,-1.39,-2.63,-2.63,-2.64
464.07,-1.25,1.36,-1.25,1.35,-1.35,-1.42,-1.43,-2.60,-2.60,-2.61
468.71,-1.23,1.34,-1.22,1.35,-1.35,-1.43,-1.46,-2.58,-2.58,-2.57
473.40,-1.20,1.35,-1.19,1.35,-1.35,-1.44,-1.48,-2.55,-2.55,-2.55
478.13,-1.17,1.35,-1.17,1.35,-1.35,-1.44,-1.51,-2.52,-2.52,-2.52
482.91,-1.14,1.35,-1.14,1.35,-1.35,-1.44,-1.53,-2.49,-2.49,-2.49
487.74,-1.11,1.35,-1.11,1.35,-1.35,-1.44,-1.55,-2.46,-2.46,-2.46
