frequency,raw,error,smoothed,error_smoothed,equalization,parametric_eq,fixed_band_eq,equalized_raw,equalized_smoothed,target
20.00,-11.38,-15.72,-11.33,-15.69,15.69,16.37,5.66,4.31,4.37,4.34
20.20,-11.24,-15.63,-11.20,-15.61,15.61,16.22,5.80,4.37,4.40,4.39
20.40,-11.10,-15.54,-11.08,-15.52,15.52,16.07,5.94,4.42,4.44,4.44
20.61,-10.96,-15.43,-10.96,-15.43,15.43,15.92,6.09,4.47,4.47,4.47
20.81,-10.82,-15.34,-10.84,-15.34,15.34,15.77,6.24,4.52,4.50,4.52
21.02,-10.68,-15.24,-10.72,-15.25,15.25,15.63,6.39,4.57,4.53,4.56
21.23,-10.55,-15.13,-10.60,-15.15,15.15,15.48,6.55,4.60,4.56,4.58
21.44,-10.43,-15.03,-10.48,-15.06,15.06,15.34,6.72,4.63,4.58,4.60
21.66,-10.30,-14.92,-10.36,-14.96,14.96,15.19,6.89,4.66,4.60,4.62
21.87,-10.17,-14.80,-10.24,-14.86,14.86,15.05,7.06,4.69,4.62,4.63
22.09,-10.06,-14.71,-10.12,-14.75,14.75,14.91,7.24,4.69,4.64,4.65
22.31,-9.98,-14.64,-10.00,-14.65,14.65,14.77,7.42,4.67,4.65,4.66
22.54,-9.89,-14.55,-9.89,-14.55,14.55,14.64,7.61,4.65,4.66,4.66
22.76,-9.81,-14.47,-9.78,-14.44,14.44,14.50,7.80,4.63,4.66,4.66
22.99,-9.72,-14.37,-9.67,-14.33,14.33,14.36,8.00,4.60,4.66,4.65
23.22,-9.60,-14.25,-9.55,-14.21,14.21,14.23,8.20,4.61,4.66,4.65
23.45,-9.47,-14.12,-9.43,-14.09,14.09,14.10,8.41,4.62,4.66,4.65
23.69,-9.35,-14.01,-9.31,-13.98,13.98,13.97,8.62,4.62,4.66,4.66
23.92,-9.22,-13.88,-9.20,-13.86,13.86,13.84,8.84,4.64,4.66,4.66
24.16,-9.08,-13.74,-9.08,-13.74,13.74,13.71,9.07,4.66,4.66,4.66
24.40,-8.93,-13.60,-8.95,-13.61,13.61,13.58,9.30,4.68,4.66,4.67
24.65,-8.79,-13.45,-8.83,-13.49,13.49,13.46,9.53,4.69,4.66,4.66
24.89,-8.64,-13.30,-8.70,-13.36,13.36,13.33,9.77,4.72,4.66,4.66
25.14,-8.52,-13.18,-8.57,-13.23,13.23,13.21,10.02,4.71,4.66,4.66
25.39,-8.42,-13.09,-8.44,-13.11,13.11,13.09,10.27,4.69,4.66,4.67
25.65,-8.33,-13.00,-8.32,-12.98,12.98,12.96,10.52,4.65,4.66,4.67
25.91,-8.23,-12.89,-8.20,-12.86,12.86,12.85,10.78,4.63,4.66,4.66
26.16,-8.11,-12.77,-8.08,-12.75,12.75,12.73,11.05,4.64,4.66,4.66
26.43,-7.99,-12.65,-7.97,-12.63,12.63,12.61,11.31,4.63,4.66,4.66
26.69,-7.86,-12.52,-7.86,-12.51,12.51,12.49,11.58,4.65,4.66,4.66
26.96,-7.74,-12.40,-7.75,-12.40,12.40,12.38,11.85,4.66,4.66,4.66
27.23,-7.63,-12.29,-7.64,-12.29,12.29,12.27,12.12,4.66,4.65,4.66
27.50,-7.52,-12.18,-7.53,-12.18,12.18,12.15,12.39,4.66,4.65,4.66
27.77,-7.41,-12.06,-7.42,-12.07,12.07,12.04,12.65,4.66,4.65,4.65
28.05,-7.30,-11.95,-7.31,-11.96,11.96,11.93,12.91,4.66,4.65,4.65
28.33,-7.20,-11.84,-7.20,-11.85,11.85,11.82,13.16,4.65,4.65,4.64
28.62,-7.09,-11.73,-7.10,-11.74,11.74,11.71,13.40,4.65,4.65,4.64
28.90,-6.99,-11.64,-6.99,-11.63,11.63,11.61,13.62,4.64,4.65,4.65
29.19,-6.88,-11.52,-6.88,-11.53,11.53,11.50,13.83,4.64,4.64,4.64
29.48,-6.78,-11.43,-6.77,-11.42,11.42,11.40,14.02,4.64,4.64,4.65
29.78,-6.68,-11.32,-6.67,-11.31,11.31,11.29,14.19,4.63,4.64,4.64
30.08,-6.57,-11.22,-6.57,-11.21,11.21,11.19,14.33,4.63,4.64,4.65
30.38,-6.47,-11.11,-6.47,-11.10,11.10,11.09,14.44,4.63,4.64,4.64
30.68,-6.37,-11.01,-6.36,-11.00,11.00,10.99,14.51,4.63,4.64,4.64
30.99,-6.27,-10.91,-6.26,-10.89,10.89,10.89,14.56,4.62,4.63,4.64
31.30,-6.15,-10.78,-6.16,-10.79,10.79,10.79,14.57,4.63,4.63,4.63
31.61,-6.03,-10.66,-6.05,-10.68,10.68,10.69,14.55,4.65,4.63,4.63
31.93,-5.91,-10.54,-5.95,-10.58,10.58,10.59,14.49,4.66,4.63,4.63
32.24,-5.83,-10.45,-5.85,-10.47,10.47,10.50,14.40,4.64,4.62,4.62
32.57,-5.76,-10.38,-5.75,-10.37,10.37,10.40,14.29,4.61,4.62,4.62
32.89,-5.69,-10.31,-5.66,-10.27,10.27,10.31,14.14,4.58,4.61,4.62
33.22,-5.58,-10.19,-5.56,-10.17,10.17,10.21,13.98,4.59,4.61,4.61
33.55,-5.46,-10.07,-5.46,-10.06,10.06,10.12,13.79,4.60,4.60,4.61
33.89,-5.33,-9.93,-5.36,-9.96,9.96,10.03,13.59,4.63,4.60,4.60
34.23,-5.24,-9.84,-5.26,-9.86,9.86,9.94,13.37,4.62,4.60,4.60
34.57,-5.17,-9.76,-5.16,-9.75,9.75,9.85,13.14,4.58,4.59,4.59
34.92,-5.10,-9.69,-5.06,-9.65,9.65,9.76,12.91,4.55,4.59,4.59
35.27,-4.99,-9.57,-4.96,-9.55,9.55,9.67,12.67,4.55,4.58,4.58
35.62,-4.88,-9.46,-4.87,-9.45,9.45,9.58,12.43,4.57,4.58,4.58
35.97,-4.77,-9.35,-4.78,-9.36,9.36,9.49,12.18,4.58,4.58,4.58
36.33,-4.67,-9.25,-4.68,-9.26,9.26,9.41,11.94,4.59,4.58,4.58
36.70,-4.57,-9.14,-4.59,-9.17,9.17,9.32,11.69,4.59,4.58,4.57
37.06,-4.47,-9.04,-4.50,-9.08,9.08,9.24,11.45,4.61,4.58,4.57
37.43,-4.38,-8.96,-4.42,-9.00,9.00,9.15,11.22,4.62,4.58,4.58
37.81,-4.29,-8.87,-4.34,-8.91,8.91,9.07,10.98,4.62,4.58,4.58
38.19,-4.22,-8.79,-4.25,-8.83,8.83,8.98,10.76,4.61,4.58,4.57
38.57,-4.19,-8.77,-4.16,-8.74,8.74,8.90,10.53,4.55,4.58,4.58
38.95,-4.15,-8.74,-4.07,-8.65,8.65,8.82,10.31,4.50,4.58,4.59
39.34,-4.04,-8.62,-3.99,-8.57,8.57,8.74,10.10,4.53,4.58,4.58
39.74,-3.91,-8.49,-3.90,-8.48,8.48,8.66,9.90,4.57,4.58,4.58
40.14,-3.80,-8.38,-3.81,-8.39,8.39,8.58,9.70,4.59,4.58,4.58
40.54,-3.74,-8.32,-3.72,-8.30,8.30,8.50,9.50,4.56,4.58,4.58
40.94,-3.68,-8.25,-3.63,-8.21,8.21,8.42,9.31,4.53,4.57,4.57
41.35,-3.56,-8.13,-3.54,-8.11,8.11,8.34,9.13,4.55,4.57,4.57
41.76,-3.42,-7.98,-3.46,-8.01,8.01,8.27,8.96,4.59,4.56,4.56
42.18,-3.32,-7.88,-3.37,-7.92,7.92,8.19,8.79,4.60,4.55,4.56
42.60,-3.24,-7.79,-3.28,-7.82,7.82,8.11,8.62,4.58,4.54,4.55
43.03,-3.17,-7.71,-3.19,-7.72,7.72,8.04,8.46,4.54,4.53,4.54
43.46,-3.10,-7.63,-3.10,-7.62,7.62,7.96,8.31,4.52,4.52,4.53
43.90,-3.03,-7.54,-3.02,-7.53,7.53,7.89,8.17,4.50,4.51,4.51
44.33,-2.96,-7.45,-2.95,-7.44,7.44,7.82,8.02,4.48,4.49,4.49
44.78,-2.89,-7.36,-2.88,-7.36,7.36,7.74,7.89,4.47,4.48,4.47
45.23,-2.83,-7.29,-2.82,-7.29,7.29,7.67,7.76,4.45,4.47,4.46
45.68,-2.79,-7.24,-2.77,-7.23,7.23,7.60,7.63,4.44,4.45,4.45
46.13,-2.73,-7.16,-2.73,-7.17,7.17,7.53,7.51,4.44,4.44,4.43
46.60,-2.64,-7.07,-2.69,-7.12,7.12,7.46,7.40,4.47,4.43,4.43
47.06,-2.57,-6.98,-2.66,-7.07,7.07,7.39,7.29,4.49,4.41,4.41
47.53,-2.56,-6.96,-2.63,-7.02,7.02,7.32,7.18,4.46,4.40,4.40
48.01,-2.55,-6.95,-2.60,-6.98,6.98,7.25,7.08,4.43,4.38,4.40
48.49,-2.55,-6.93,-2.57,-6.93,6.93,7.18,6.99,4.38,4.37,4.38
48.97,-2.55,-6.91,-2.53,-6.89,6.89,7.11,6.90,4.34,4.35,4.36
49.46,-2.57,-6.91,-2.50,-6.84,6.84,7.04,6.81,4.27,4.34,4.34
49.96,-2.59,-6.91,-2.45,-6.78,6.78,6.97,6.72,4.19,4.33,4.32
50.46,-2.46,-6.77,-2.40,-6.71,6.71,6.91,6.64,4.25,4.31,4.31
50.96,-2.31,-6.61,-2.36,-6.66,6.66,6.84,6.57,4.35,4.30,4.30
51.47,-2.32,-6.60,-2.31,-6.60,6.60,6.78,6.49,4.27,4.29,4.28
51.99,-2.35,-6.62,-2.25,-6.52,6.52,6.71,6.42,4.17,4.27,4.27
52.51,-2.21,-6.47,-2.18,-6.44,6.44,6.65,6.35,4.23,4.26,4.26
53.03,-2.07,-6.33,-2.11,-6.36,6.36,6.58,6.29,4.29,4.25,4.26
53.56,-1.99,-6.23,-2.05,-6.29,6.29,6.52,6.23,4.29,4.24,4.24
54.10,-1.92,-6.15,-1.99,-6.21,6.21,6.46,6.16,4.29,4.23,4.23
54.64,-1.83,-6.04,-1.92,-6.14,6.14,6.39,6.11,4.30,4.22,4.21
55.18,-1.80,-6.01,-1.85,-6.06,6.06,6.33,6.05,4.26,4.21,4.21
55.74,-1.87,-6.06,-1.80,-5.99,5.99,6.27,5.99,4.12,4.19,4.19
56.29,-1.81,-5.99,-1.75,-5.93,5.93,6.21,5.94,4.12,4.18,4.18
56.86,-1.63,-5.80,-1.70,-5.86,5.86,6.15,5.88,4.23,4.17,4.17
57.42,-1.61,-5.75,-1.65,-5.80,5.80,6.09,5.83,4.19,4.15,4.14
58.00,-1.64,-5.77,-1.61,-5.74,5.74,6.03,5.78,4.10,4.13,4.13
58.58,-1.67,-5.79,-1.57,-5.68,5.68,5.97,5.72,4.01,4.11,4.12
59.16,-1.64,-5.74,-1.54,-5.63,5.63,5.91,5.67,3.99,4.08,4.10
59.76,-1.46,-5.54,-1.52,-5.57,5.57,5.85,5.62,4.11,4.06,4.08
60.35,-1.41,-5.45,-1.49,-5.52,5.52,5.79,5.56,4.11,4.03,4.04
60.96,-1.44,-5.44,-1.47,-5.47,5.47,5.74,5.51,4.03,3.99,4.00
61.57,-1.44,-5.40,-1.45,-5.40,5.40,5.68,5.45,3.96,3.96,3.96
62.18,-1.44,-5.36,-1.42,-5.34,5.34,5.62,5.40,3.90,3.92,3.92
62.80,-1.44,-5.31,-1.42,-5.30,5.30,5.57,5.34,3.86,3.88,3.87
63.43,-1.44,-5.27,-1.43,-5.27,5.27,5.51,5.28,3.82,3.83,3.83
64.07,-1.44,-5.22,-1.44,-5.23,5.23,5.46,5.22,3.79,3.79,3.78
64.71,-1.44,-5.18,-1.45,-5.20,5.20,5.40,5.16,3.75,3.74,3.74
65.35,-1.48,-5.18,-1.48,-5.18,5.18,5.35,5.10,3.70,3.70,3.70
66.01,-1.54,-5.19,-1.53,-5.18,5.18,5.30,5.04,3.64,3.65,3.65
66.67,-1.54,-5.14,-1.59,-5.19,5.19,5.24,4.97,3.65,3.60,3.60
67.33,-1.55,-5.10,-1.65,-5.21,5.21,5.19,4.91,3.65,3.56,3.55
68.01,-1.58,-5.09,-1.71,-5.22,5.22,5.14,4.85,3.64,3.51,3.51
68.69,-1.80,-5.26,-1.78,-5.23,5.23,5.09,4.78,3.43,3.46,3.46
69.37,-1.90,-5.31,-1.85,-5.26,5.26,5.04,4.72,3.36,3.40,3.41
70.07,-1.92,-5.28,-1.93,-5.29,5.29,4.99,4.65,3.36,3.35,3.36
70.77,-1.99,-5.30,-2.00,-5.30,5.30,4.94,4.59,3.31,3.30,3.31
71.48,-2.09,-5.35,-2.06,-5.31,5.31,4.89,4.53,3.22,3.24,3.26
72.19,-2.19,-5.38,-2.11,-5.30,5.30,4.84,4.46,3.11,3.19,3.19
72.91,-2.23,-5.36,-2.15,-5.28,5.28,4.79,4.40,3.05,3.13,3.13
73.64,-2.24,-5.32,-2.19,-5.26,5.26,4.74,4.34,3.02,3.08,3.08
74.38,-2.24,-5.26,-2.22,-5.24,5.24,4.69,4.28,2.99,3.02,3.02
75.12,-2.24,-5.20,-2.23,-5.19,5.19,4.65,4.22,2.95,2.96,2.96
75.87,-2.25,-5.15,-2.22,-5.13,5.13,4.60,4.16,2.88,2.91,2.90
76.63,-2.28,-5.13,-2.20,-5.05,5.05,4.56,4.10,2.77,2.85,2.85
77.40,-2.17,-4.97,-2.17,-4.97,4.97,4.51,4.05,2.80,2.80,2.80
78.17,-1.99,-4.73,-2.14,-4.89,4.89,4.47,4.00,2.89,2.75,2.74
78.95,-2.01,-4.71,-2.10,-4.80,4.80,4.42,3.94,2.78,2.70,2.70
79.74,-2.08,-4.73,-2.06,-4.70,4.70,4.38,3.89,2.62,2.65,2.65
80.54,-2.10,-4.70,-2.01,-4.61,4.61,4.33,3.85,2.51,2.60,2.60
81.35,-2.04,-4.59,-1.98,-4.53,4.53,4.29,3.80,2.49,2.55,2.55
82.16,-1.93,-4.43,-1.94,-4.45,4.45,4.25,3.76,2.52,2.50,2.50
82.98,-1.86,-4.32,-1.91,-4.37,4.37,4.21,3.72,2.51,2.46,2.46
83.81,-1.80,-4.21,-1.89,-4.30,4.30,4.17,3.68,2.50,2.41,2.41
84.65,-1.82,-4.18,-1.87,-4.23,4.23,4.12,3.64,2.41,2.36,2.36
85.50,-1.84,-4.16,-1.85,-4.16,4.16,4.08,3.61,2.32,2.31,2.32
86.35,-1.84,-4.11,-1.85,-4.11,4.11,4.05,3.58,2.27,2.26,2.27
87.22,-1.84,-4.06,-1.84,-4.05,4.05,4.01,3.55,2.21,2.21,2.22
88.09,-1.84,-4.01,-1.83,-3.99,3.99,3.97,3.52,2.15,2.16,2.17
88.97,-1.84,-3.95,-1.82,-3.93,3.93,3.93,3.50,2.09,2.11,2.11
89.86,-1.84,-3.90,-1.81,-3.87,3.87,3.89,3.47,2.03,2.06,2.06
90.76,-1.84,-3.85,-1.82,-3.83,3.83,3.86,3.45,1.99,2.01,2.01
91.66,-1.83,-3.79,-1.83,-3.79,3.79,3.82,3.44,1.95,1.96,1.96
92.58,-1.83,-3.73,-1.83,-3.74,3.74,3.78,3.42,1.91,1.91,1.90
93.51,-1.83,-3.68,-1.84,-3.69,3.69,3.75,3.41,1.86,1.86,1.85
94.44,-1.83,-3.64,-1.84,-3.65,3.65,3.71,3.40,1.81,1.81,1.81
95.39,-1.84,-3.60,-1.84,-3.60,3.60,3.68,3.39,1.76,1.76,1.76
96.34,-1.84,-3.55,-1.84,-3.55,3.55,3.65,3.38,1.71,1.71,1.71
97.30,-1.84,-3.50,-1.84,-3.50,3.50,3.61,3.38,1.66,1.66,1.66
98.28,-1.85,-3.46,-1.85,-3.46,3.46,3.58,3.37,1.61,1.61,1.61
99.26,-1.87,-3.44,-1.87,-3.43,3.43,3.55,3.37,1.56,1.57,1.57
100.25,-1.89,-3.41,-1.88,-3.40,3.40,3.52,3.37,1.51,1.52,1.52
101.25,-1.91,-3.38,-1.91,-3.38,3.38,3.49,3.37,1.47,1.47,1.47
102.27,-1.92,-3.34,-1.94,-3.36,3.36,3.46,3.37,1.43,1.42,1.42
103.29,-1.93,-3.30,-1.96,-3.33,3.33,3.43,3.38,1.40,1.37,1.37
104.32,-1.95,-3.28,-1.98,-3.30,3.30,3.40,3.38,1.35,1.32,1.33
105.37,-1.97,-3.25,-2.01,-3.28,3.28,3.38,3.39,1.31,1.27,1.28
106.42,-2.00,-3.23,-2.04,-3.26,3.26,3.35,3.39,1.26,1.22,1.23
107.48,-2.08,-3.25,-2.08,-3.24,3.24,3.32,3.40,1.16,1.17,1.17
108.56,-2.20,-3.32,-2.10,-3.22,3.22,3.30,3.40,1.02,1.12,1.12
109.64,-2.20,-3.27,-2.13,-3.20,3.20,3.27,3.41,0.99,1.06,1.07
110.74,-2.19,-3.20,-2.16,-3.18,3.18,3.25,3.42,0.98,1.01,1.01
111.85,-2.19,-3.16,-2.20,-3.16,3.16,3.22,3.42,0.97,0.96,0.97
112.97,-2.13,-3.04,-2.22,-3.13,3.13,3.20,3.43,1.00,0.91,0.91
114.10,-2.20,-3.06,-2.25,-3.11,3.11,3.18,3.43,0.91,0.86,0.86
115.24,-2.32,-3.13,-2.27,-3.08,3.08,3.15,3.43,0.76,0.82,0.81
116.39,-2.32,-3.08,-2.28,-3.05,3.05,3.13,3.43,0.73,0.77,0.76
117.55,-2.32,-3.04,-2.30,-3.03,3.03,3.11,3.43,0.71,0.73,0.72
118.73,-2.31,-2.99,-2.32,-3.01,3.01,3.09,3.43,0.70,0.69,0.68
119.92,-2.30,-2.95,-2.34,-2.99,2.99,3.07,3.42,0.69,0.65,0.65
121.12,-2.40,-3.01,-2.36,-2.97,2.97,3.05,3.42,0.57,0.61,0.61
122.33,-2.41,-2.99,-2.38,-2.96,2.96,3.03,3.41,0.55,0.58,0.58
123.55,-2.36,-2.91,-2.41,-2.95,2.95,3.01,3.39,0.59,0.55,0.55
124.79,-2.32,-2.84,-2.43,-2.95,2.95,3.00,3.38,0.63,0.52,0.52
126.03,-2.45,-2.94,-2.46,-2.95,2.95,2.98,3.36,0.50,0.49,0.49
127.29,-2.46,-2.93,-2.47,-2.93,2.93,2.96,3.34,0.47,0.46,0.47
128.57,-2.53,-2.96,-2.48,-2.91,2.91,2.95,3.32,0.38,0.43,0.43
129.85,-2.62,-3.02,-2.50,-2.90,2.90,2.93,3.30,0.28,0.40,0.40
131.15,-2.56,-2.93,-2.53,-2.90,2.90,2.92,3.27,0.33,0.37,0.37
132.46,-2.50,-2.84,-2.55,-2.89,2.89,2.90,3.24,0.39,0.34,0.34
133.79,-2.57,-2.88,-2.58,-2.89,2.89,2.89,3.21,0.32,0.31,0.31
135.12,-2.63,-2.91,-2.61,-2.89,2.89,2.88,3.18,0.26,0.28,0.28
136.48,-2.63,-2.89,-2.64,-2.89,2.89,2.86,3.15,0.26,0.26,0.26
137.84,-2.63,-2.85,-2.66,-2.89,2.89,2.85,3.11,0.26,0.23,0.22
139.22,-2.61,-2.80,-2.68,-2.88,2.88,2.84,3.07,0.27,0.20,0.19
140.61,-2.57,-2.73,-2.69,-2.86,2.86,2.83,3.04,0.29,0.17,0.16
142.02,-2.73,-2.87,-2.71,-2.85,2.85,2.82,3.00,0.12,0.14,0.14
143.44,-2.84,-2.95,-2.73,-2.83,2.83,2.81,2.96,-0.01,0.10,0.11
144.87,-2.85,-2.92,-2.75,-2.82,2.82,2.80,2.92,-0.03,0.07,0.07
146.32,-2.83,-2.86,-2.78,-2.80,2.80,2.79,2.88,-0.03,0.02,0.03
147.78,-2.82,-2.82,-2.81,-2.78,2.78,2.78,2.84,-0.04,-0.03,-0.00
149.26,-2.82,-2.77,-2.83,-2.75,2.75,2.77,2.80,-0.07,-0.08,-0.05
150.75,-2.79,-2.68,-2.87,-2.73,2.73,2.76,2.76,-0.06,-0.14,-0.11
152.26,-2.82,-2.64,-2.91,-2.71,2.71,2.75,2.72,-0.11,-0.20,-0.18
153.78,-2.90,-2.65,-2.94,-2.68,2.68,2.74,2.68,-0.22,-0.27,-0.25
155.32,-3.01,-2.69,-2.98,-2.65,2.65,2.73,2.64,-0.36,-0.34,-0.32
156.88,-3.05,-2.65,-3.02,-2.61,2.61,2.72,2.61,-0.44,-0.41,-0.40
158.44,-3.01,-2.53,-3.05,-2.58,2.58,2.71,2.57,-0.43,-0.48,-0.48
160.03,-3.08,-2.52,-3.10,-2.55,2.55,2.70,2.54,-0.53,-0.54,-0.56
161.63,-3.15,-2.52,-3.15,-2.54,2.54,2.69,2.50,-0.61,-0.61,-0.63
163.24,-3.21,-2.52,-3.20,-2.52,2.52,2.68,2.47,-0.69,-0.67,-0.69
164.88,-3.29,-2.55,-3.24,-2.51,2.51,2.67,2.44,-0.78,-0.73,-0.74
166.53,-3.33,-2.54,-3.28,-2.51,2.51,2.66,2.41,-0.82,-0.77,-0.79
168.19,-3.32,-2.49,-3.33,-2.51,2.51,2.65,2.39,-0.81,-0.81,-0.83
169.87,-3.31,-2.44,-3.36,-2.51,2.51,2.64,2.36,-0.80,-0.85,-0.87
171.57,-3.43,-2.54,-3.39,-2.52,2.52,2.63,2.34,-0.91,-0.87,-0.89
173.29,-3.46,-2.56,-3.42,-2.53,2.53,2.62,2.31,-0.93,-0.89,-0.90
175.02,-3.47,-2.56,-3.46,-2.55,2.55,2.61,2.29,-0.92,-0.91,-0.91
176.77,-3.47,-2.55,-3.49,-2.57,2.57,2.60,2.27,-0.90,-0.92,-0.92
178.54,-3.45,-2.52,-3.52,-2.59,2.59,2.58,2.26,-0.86,-0.92,-0.93
180.32,-3.50,-2.58,-3.54,-2.61,2.61,2.57,2.24,-0.89,-0.93,-0.92
182.13,-3.55,-2.64,-3.57,-2.63,2.63,2.56,2.23,-0.92,-0.93,-0.91
183.95,-3.63,-2.71,-3.59,-2.65,2.65,2.54,2.21,-0.98,-0.94,-0.92
185.79,-3.64,-2.72,-3.62,-2.67,2.67,2.53,2.20,-0.97,-0.95,-0.92
187.65,-3.63,-2.69,-3.64,-2.69,2.69,2.51,2.19,-0.94,-0.96,-0.94
189.52,-3.69,-2.74,-3.67,-2.71,2.71,2.50,2.18,-0.99,-0.96,-0.95
191.42,-3.70,-2.73,-3.69,-2.72,2.72,2.48,2.18,-0.98,-0.98,-0.97
193.33,-3.70,-2.71,-3.72,-2.73,2.73,2.46,2.17,-0.97,-0.99,-0.99
195.27,-3.74,-2.73,-3.75,-2.74,2.74,2.44,2.17,-1.00,-1.01,-1.01
197.22,-3.76,-2.73,-3.77,-2.75,2.75,2.43,2.17,-1.02,-1.03,-1.03
199.19,-3.75,-2.70,-3.79,-2.74,2.74,2.41,2.16,-1.01,-1.05,-1.05
201.18,-3.75,-2.68,-3.80,-2.73,2.73,2.39,2.16,-1.02,-1.07,-1.07
203.19,-3.80,-2.71,-3.81,-2.72,2.72,2.37,2.16,-1.09,-1.09,-1.09
205.23,-3.83,-2.72,-3.81,-2.70,2.70,2.34,2.16,-1.13,-1.11,-1.11
207.28,-3.83,-2.71,-3.81,-2.68,2.68,2.32,2.17,-1.15,-1.13,-1.12
209.35,-3.83,-2.69,-3.80,-2.65,2.65,2.30,2.17,-1.18,-1.15,-1.14
211.44,-3.79,-2.62,-3.77,-2.60,2.60,2.28,2.17,-1.19,-1.17,-1.17
213.56,-3.74,-2.56,-3.73,-2.55,2.55,2.25,2.17,-1.19,-1.18,-1.18
215.69,-3.66,-2.47,-3.68,-2.49,2.49,2.23,2.18,-1.17,-1.19,-1.19
217.85,-3.61,-2.41,-3.62,-2.42,2.42,2.20,2.18,-1.19,-1.21,-1.20
220.03,-3.56,-2.35,-3.55,-2.34,2.34,2.18,2.18,-1.23,-1.22,-1.21
222.23,-3.51,-2.27,-3.46,-2.24,2.24,2.15,2.18,-1.28,-1.22,-1.24
224.45,-3.43,-2.20,-3.33,-2.11,2.11,2.12,2.19,-1.32,-1.22,-1.23
226.70,-3.26,-2.03,-3.21,-1.98,1.98,2.10,2.19,-1.28,-1.22,-1.23
228.96,-3.09,-1.87,-3.07,-1.85,1.85,2.07,2.18,-1.24,-1.22,-1.22
231.25,-2.95,-1.74,-2.91,-1.70,1.70,2.04,2.18,-1.25,-1.21,-1.21
233.57,-2.79,-1.59,-2.76,-1.56,1.56,2.02,2.18,-1.23,-1.20,-1.20
235.90,-2.67,-1.48,-2.61,-1.43,1.43,1.99,2.17,-1.24,-1.18,-1.19
238.26,-2.52,-1.34,-2.48,-1.32,1.32,1.96,2.17,-1.21,-1.17,-1.18
240.64,-2.37,-1.22,-2.35,-1.21,1.21,1.93,2.16,-1.17,-1.15,-1.15
243.05,-2.13,-1.01,-2.25,-1.12,1.12,1.90,2.15,-1.01,-1.13,-1.12
245.48,-1.93,-0.83,-2.17,-1.07,1.07,1.87,2.14,-0.86,-1.10,-1.10
247.93,-1.91,-0.84,-2.11,-1.03,1.03,1.84,2.12,-0.88,-1.08,-1.07
250.41,-2.03,-0.98,-2.06,-1.00,1.00,1.81,2.11,-1.03,-1.06,-1.05
252.92,-1.85,-0.83,-2.01,-0.97,0.97,1.78,2.09,-0.88,-1.03,-1.02
255.45,-1.90,-0.90,-1.98,-0.97,0.97,1.76,2.07,-0.93,-1.01,-1.00
258.00,-2.02,-1.04,-1.98,-1.00,1.00,1.73,2.04,-1.02,-0.98,-0.98
260.58,-2.22,-1.26,-2.00,-1.04,1.04,1.70,2.02,-1.18,-0.96,-0.96
263.19,-2.17,-1.24,-2.02,-1.09,1.09,1.67,1.99,-1.08,-0.93,-0.93
265.82,-2.07,-1.16,-2.05,-1.14,1.14,1.64,1.96,-0.93,-0.91,-0.91
268.48,-2.32,-1.43,-2.08,-1.20,1.20,1.61,1.93,-1.12,-0.89,-0.89
271.16,-2.21,-1.35,-2.14,-1.28,1.28,1.58,1.90,-0.93,-0.86,-0.86
273.87,-1.96,-1.12,-2.19,-1.35,1.35,1.55,1.86,-0.61,-0.84,-0.84
276.61,-1.97,-1.16,-2.22,-1.41,1.41,1.53,1.83,-0.56,-0.81,-0.81
279.38,-2.11,-1.33,-2.26,-1.48,1.48,1.50,1.79,-0.63,-0.78,-0.78
282.17,-2.49,-1.73,-2.30,-1.55,1.55,1.47,1.75,-0.94,-0.76,-0.76
284.99,-2.52,-1.80,-2.33,-1.60,1.60,1.44,1.71,-0.92,-0.73,-0.72
287.84,-2.27,-1.57,-2.35,-1.66,1.66,1.42,1.67,-0.61,-0.70,-0.70
290.72,-2.24,-1.57,-2.39,-1.72,1.72,1.39,1.63,-0.52,-0.67,-0.67
293.63,-2.41,-1.77,-2.43,-1.79,1.79,1.36,1.59,-0.62,-0.64,-0.64
296.57,-2.51,-1.90,-2.47,-1.86,1.86,1.34,1.55,-0.65,-0.61,-0.61
299.53,-2.71,-2.13,-2.50,-1.92,1.92,1.31,1.51,-0.80,-0.58,-0.58
302.53,-2.48,-1.92,-2.53,-1.98,1.98,1.29,1.46,-0.51,-0.56,-0.56
305.55,-2.47,-1.95,-2.55,-2.02,2.02,1.26,1.42,-0.45,-0.53,-0.52
308.61,-2.61,-2.11,-2.55,-2.04,2.04,1.24,1.38,-0.57,-0.50,-0.50
311.69,-2.49,-2.02,-2.53,-2.05,2.05,1.21,1.34,-0.44,-0.48,-0.47
314.81,-2.50,-2.05,-2.50,-2.04,2.04,1.19,1.30,-0.46,-0.46,-0.45
317.96,-2.55,-2.12,-2.49,-2.05,2.05,1.16,1.25,-0.50,-0.44,-0.43
321.14,-2.51,-2.09,-2.47,-2.05,2.05,1.14,1.21,-0.46,-0.42,-0.42
324.35,-2.44,-2.04,-2.43,-2.03,2.03,1.12,1.17,-0.41,-0.40,-0.40
327.59,-2.40,-2.01,-2.37,-1.98,1.98,1.09,1.13,-0.42,-0.39,-0.39
330.87,-2.28,-1.90,-2.32,-1.94,1.94,1.07,1.09,-0.34,-0.37,-0.38
334.18,-2.19,-1.83,-2.26,-1.90,1.90,1.05,1.05,-0.29,-0.36,-0.36
337.52,-2.20,-1.85,-2.22,-1.87,1.87,1.03,1.01,-0.33,-0.35,-0.35
340.90,-2.16,-1.82,-2.16,-1.81,1.81,1.01,0.97,-0.35,-0.34,-0.34
344.30,-2.08,-1.75,-2.08,-1.75,1.75,0.99,0.93,-0.33,-0.34,-0.33
347.75,-2.00,-1.67,-2.02,-1.69,1.69,0.97,0.89,-0.31,-0.33,-0.33
351.23,-1.97,-1.65,-1.95,-1.62,1.62,0.95,0.86,-0.35,-0.33,-0.32
354.74,-1.87,-1.54,-1.88,-1.55,1.55,0.93,0.82,-0.32,-0.32,-0.33
358.28,-1.78,-1.46,-1.80,-1.48,1.48,0.91,0.79,-0.30,-0.32,-0.32
361.87,-1.76,-1.44,-1.73,-1.41,1.41,0.89,0.75,-0.36,-0.32,-0.32
365.49,-1.71,-1.40,-1.64,-1.33,1.33,0.87,0.72,-0.39,-0.32,-0.31
369.14,-1.57,-1.25,-1.56,-1.24,1.24,0.85,0.68,-0.33,-0.32,-0.32
372.83,-1.46,-1.14,-1.48,-1.16,1.16,0.83,0.65,-0.31,-0.32,-0.32
376.56,-1.36,-1.03,-1.39,-1.06,1.06,0.82,0.61,-0.30,-0.32,-0.33
380.33,-1.32,-1.00,-1.30,-0.97,0.97,0.80,0.58,-0.35,-0.33,-0.32
384.13,-1.26,-0.94,-1.21,-0.88,0.88,0.78,0.55,-0.38,-0.33,-0.32
387.97,-1.14,-0.81,-1.13,-0.80,0.80,0.76,0.52,-0.34,-0.33,-0.33
391.85,-0.99,-0.65,-1.06,-0.72,0.72,0.75,0.49,-0.27,-0.34,-0.34
395.77,-0.91,-0.58,-0.98,-0.64,0.64,0.73,0.46,-0.27,-0.34,-0.33
399.73,-0.88,-0.54,-0.91,-0.56,0.56,0.72,0.43,-0.32,-0.35,-0.34
403.72,-0.81,-0.47,-0.84,-0.49,0.49,0.70,0.40,-0.33,-0.36,-0.34
407.76,-0.79,-0.43,-0.78,-0.42,0.42,0.69,0.37,-0.37,-0.36,-0.36
411.84,-0.73,-0.37,-0.73,-0.37,0.37,0.67,0.34,-0.37,-0.36,-0.36
415.96,-0.67,-0.31,-0.68,-0.32,0.32,0.66,0.32,-0.36,-0.36,-0.36
420.12,-0.61,-0.25,-0.63,-0.27,0.27,0.64,0.29,-0.34,-0.36,-0.36
424.32,-0.60,-0.24,-0.58,-0.22,0.22,0.63,0.27,-0.38,-0.35,-0.36
428.56,-0.59,-0.24,-0.53,-0.19,0.19,0.61,0.24,-0.40,-0.34,-0.35
432.85,-0.50,-0.16,-0.49,-0.16,0.16,0.60,0.22,-0.34,-0.33,-0.34
437.18,-0.41,-0.08,-0.45,-0.14,0.14,0.59,0.19,-0.27,-0.31,-0.33
441.55,-0.40,-0.11,-0.40,-0.12,0.12,0.58,0.17,-0.29,-0.28,-0.29
445.96,-0.37,-0.11,-0.35,-0.10,0.10,0.56,0.15,-0.27,-0.25,-0.26
450.42,-0.31,-0.08,-0.30,-0.09,0.09,0.55,0.13,-0.23,-0.22,-0.23
454.93,-0.26,-0.08,-0.25,-0.07,0.07,0.54,0.11,-0.19,-0.17,-0.18
459.48,-0.19,-0.05,-0.19,-0.06,0.06,0.53,0.09,-0.13,-0.13,-0.14
464.07,-0.13,-0.04,-0.14,-0.06,0.06,0.51,0.07,-0.08,-0.08,-0.09
468.71,-0.08,-0.05,-0.08,-0.05,0.05,0.50,0.06,-0.03,-0.04,-0.03
