frequency,raw,error,smoothed,error_smoothed,equalization,parametric_eq,fixed_band_eq,equalized_raw,equalized_smoothed,target
20.00,1.48,-2.22,1.49,-2.24,2.24,1.86,0.55,3.71,3.73,3.70
20.20,1.52,-2.23,1.53,-2.24,2.24,1.86,0.57,3.76,3.77,3.75
20.40,1.56,-2.24,1.57,-2.24,2.24,1.86,0.59,3.80,3.80,3.80
20.61,1.60,-2.23,1.60,-2.23,2.23,1.86,0.61,3.83,3.84,3.83
20.81,1.64,-2.24,1.64,-2.23,2.23,1.86,0.63,3.87,3.86,3.88
21.02,1.68,-2.24,1.67,-2.22,2.22,1.85,0.65,3.90,3.89,3.92
21.23,1.73,-2.21,1.71,-2.21,2.21,1.85,0.67,3.93,3.92,3.94
21.44,1.77,-2.19,1.75,-2.19,2.19,1.85,0.69,3.96,3.94,3.96
21.66,1.81,-2.17,1.79,-2.17,2.17,1.84,0.71,3.98,3.96,3.98
21.87,1.86,-2.13,1.82,-2.15,2.15,1.84,0.74,4.01,3.98,3.99
22.09,1.89,-2.12,1.86,-2.13,2.13,1.84,0.76,4.02,3.99,4.01
22.31,1.91,-2.11,1.90,-2.11,2.11,1.83,0.79,4.02,4.01,4.02
22.54,1.93,-2.09,1.94,-2.08,2.08,1.83,0.81,4.00,4.01,4.02
22.76,1.96,-2.06,1.97,-2.04,2.04,1.82,0.84,4.00,4.01,4.01
22.99,1.98,-2.03,2.01,-2.00,2.00,1.81,0.87,3.98,4.02,4.00
23.22,2.02,-1.98,2.06,-1.96,1.96,1.81,0.89,3.98,4.02,4.00
23.45,2.07,-1.93,2.09,-1.92,1.92,1.80,0.92,3.99,4.02,4.00
23.69,2.12,-1.89,2.13,-1.89,1.89,1.79,0.95,4.01,4.02,4.01
23.92,2.16,-1.85,2.16,-1.85,1.85,1.78,0.98,4.01,4.02,4.01
24.16,2.21,-1.81,2.20,-1.82,1.82,1.78,1.01,4.03,4.02,4.02
24.40,2.26,-1.77,2.23,-1.78,1.78,1.77,1.04,4.04,4.02,4.03
24.65,2.31,-1.71,2.27,-1.75,1.75,1.76,1.07,4.05,4.02,4.02
24.89,2.36,-1.66,2.31,-1.71,1.71,1.75,1.10,4.07,4.02,4.02
25.14,2.38,-1.64,2.34,-1.67,1.67,1.74,1.13,4.05,4.02,4.02
25.39,2.38,-1.65,2.38,-1.64,1.64,1.73,1.16,4.02,4.02,4.02
25.65,2.38,-1.65,2.41,-1.61,1.61,1.71,1.19,3.99,4.02,4.02
25.91,2.38,-1.63,2.43,-1.58,1.58,1.70,1.22,3.96,4.02,4.01
26.16,2.41,-1.60,2.46,-1.56,1.56,1.69,1.25,3.97,4.02,4.01
26.43,2.47,-1.54,2.48,-1.53,1.53,1.68,1.28,4.00,4.01,4.01
26.69,2.52,-1.49,2.50,-1.51,1.51,1.66,1.31,4.03,4.01,4.01
26.96,2.57,-1.45,2.52,-1.49,1.49,1.65,1.34,4.06,4.01,4.02
27.23,2.58,-1.44,2.54,-1.47,1.47,1.64,1.36,4.04,4.01,4.02
27.50,2.59,-1.43,2.56,-1.44,1.44,1.62,1.39,4.03,4.01,4.01
27.77,2.59,-1.41,2.58,-1.42,1.42,1.61,1.41,4.01,4.00,4.00
28.05,2.59,-1.41,2.61,-1.39,1.39,1.59,1.44,3.98,4.00,4.00
28.33,2.62,-1.37,2.64,-1.36,1.36,1.57,1.46,3.98,4.00,3.99
28.62,2.65,-1.34,2.66,-1.34,1.34,1.56,1.48,3.98,4.00,3.99
28.90,2.67,-1.33,2.69,-1.31,1.31,1.54,1.49,3.98,4.00,4.00
29.19,2.70,-1.29,2.71,-1.29,1.29,1.52,1.51,3.98,4.00,3.99
29.48,2.73,-1.27,2.73,-1.26,1.26,1.50,1.52,3.99,3.99,4.00
29.78,2.76,-1.23,2.76,-1.23,1.23,1.48,1.53,3.99,3.99,3.99
30.08,2.79,-1.21,2.79,-1.20,1.20,1.46,1.54,3.99,3.99,4.00
30.38,2.82,-1.17,2.82,-1.16,1.16,1.44,1.54,3.98,3.99,3.99
30.68,2.86,-1.13,2.86,-1.13,1.13,1.42,1.54,3.99,3.98,3.98
30.99,2.89,-1.09,2.89,-1.09,1.09,1.40,1.54,3.98,3.98,3.98
31.30,2.92,-1.06,2.92,-1.06,1.06,1.38,1.54,3.98,3.98,3.98
31.61,2.95,-1.03,2.95,-1.03,1.03,1.36,1.53,3.98,3.98,3.98
31.93,2.98,-1.00,2.98,-1.00,1.00,1.33,1.52,3.98,3.97,3.98
32.24,3.01,-0.95,3.00,-0.96,0.96,1.31,1.51,3.97,3.97,3.96
32.57,3.05,-0.92,3.03,-0.93,0.93,1.29,1.49,3.98,3.96,3.97
32.89,3.08,-0.89,3.05,-0.91,0.91,1.26,1.48,3.99,3.96,3.97
33.22,3.09,-0.87,3.07,-0.88,0.88,1.24,1.45,3.97,3.95,3.95
33.55,3.09,-0.86,3.09,-0.86,0.86,1.21,1.43,3.95,3.95,3.95
33.89,3.09,-0.85,3.11,-0.83,0.83,1.19,1.40,3.92,3.94,3.94
34.23,3.11,-0.84,3.13,-0.81,0.81,1.16,1.38,3.92,3.94,3.94
34.57,3.15,-0.78,3.14,-0.79,0.79,1.13,1.35,3.94,3.93,3.93
34.92,3.18,-0.75,3.16,-0.76,0.76,1.11,1.31,3.94,3.93,3.93
35.27,3.19,-0.73,3.18,-0.74,0.74,1.08,1.28,3.93,3.92,3.92
35.62,3.19,-0.73,3.20,-0.72,0.72,1.05,1.24,3.91,3.92,3.92
35.97,3.19,-0.73,3.22,-0.69,0.69,1.02,1.21,3.88,3.92,3.92
36.33,3.22,-0.70,3.25,-0.67,0.67,0.99,1.17,3.89,3.92,3.92
36.70,3.26,-0.65,3.27,-0.65,0.65,0.96,1.13,3.90,3.91,3.91
37.06,3.29,-0.61,3.29,-0.62,0.62,0.93,1.09,3.91,3.91,3.90
37.43,3.32,-0.60,3.31,-0.60,0.60,0.90,1.05,3.92,3.91,3.92
37.81,3.35,-0.56,3.33,-0.58,0.58,0.87,1.01,3.93,3.91,3.91
38.19,3.37,-0.54,3.34,-0.57,0.57,0.84,0.96,3.94,3.91,3.91
38.57,3.38,-0.53,3.34,-0.57,0.57,0.81,0.92,3.94,3.91,3.91
38.95,3.39,-0.53,3.35,-0.55,0.55,0.77,0.88,3.94,3.91,3.92
39.34,3.39,-0.52,3.37,-0.54,0.54,0.74,0.84,3.93,3.91,3.91
39.74,3.39,-0.52,3.38,-0.52,0.52,0.71,0.79,3.91,3.91,3.90
40.14,3.39,-0.52,3.40,-0.51,0.51,0.67,0.75,3.89,3.91,3.91
40.54,3.39,-0.51,3.41,-0.49,0.49,0.64,0.71,3.88,3.90,3.90
40.94,3.39,-0.51,3.43,-0.47,0.47,0.60,0.67,3.86,3.90,3.89
41.35,3.39,-0.50,3.44,-0.45,0.45,0.57,0.62,3.83,3.89,3.89
41.76,3.39,-0.49,3.46,-0.42,0.42,0.53,0.58,3.81,3.88,3.88
42.18,3.43,-0.45,3.48,-0.39,0.39,0.50,0.54,3.82,3.87,3.88
42.60,3.51,-0.36,3.50,-0.36,0.36,0.46,0.50,3.87,3.86,3.87
43.03,3.59,-0.27,3.51,-0.33,0.33,0.42,0.46,3.92,3.85,3.86
43.46,3.59,-0.26,3.53,-0.30,0.30,0.39,0.41,3.89,3.83,3.85
43.90,3.59,-0.23,3.55,-0.27,0.27,0.35,0.37,3.86,3.82,3.82
44.33,3.59,-0.21,3.57,-0.24,0.24,0.31,0.33,3.83,3.81,3.80
44.78,3.59,-0.19,3.58,-0.21,0.21,0.27,0.29,3.80,3.79,3.78
45.23,3.59,-0.18,3.59,-0.19,0.19,0.23,0.25,3.77,3.78,3.77
45.68,3.59,-0.16,3.60,-0.16,0.16,0.19,0.21,3.75,3.76,3.75
46.13,3.59,-0.14,3.60,-0.14,0.14,0.15,0.18,3.73,3.74,3.73
46.60,3.59,-0.14,3.60,-0.12,0.12,0.11,0.14,3.71,3.73,3.73
47.06,3.59,-0.12,3.60,-0.11,0.11,0.07,0.10,3.70,3.71,3.71
47.53,3.59,-0.11,3.59,-0.11,0.11,0.03,0.06,3.69,3.69,3.70
48.01,3.59,-0.11,3.58,-0.09,0.09,-0.01,0.02,3.68,3.68,3.70
48.49,3.59,-0.08,3.58,-0.08,0.08,-0.05,-0.02,3.67,3.66,3.67
48.97,3.59,-0.06,3.58,-0.06,0.06,-0.09,-0.05,3.65,3.65,3.65
49.46,3.59,-0.04,3.59,-0.05,0.05,-0.13,-0.09,3.63,3.63,3.63
49.96,3.59,-0.01,3.59,-0.02,0.02,-0.18,-0.13,3.61,3.62,3.60
50.46,3.59,-0.01,3.60,-0.00,0.00,-0.22,-0.16,3.59,3.60,3.60
50.96,3.59,0.01,3.60,0.02,-0.02,-0.26,-0.20,3.57,3.58,3.58
51.47,3.59,0.03,3.61,0.04,-0.04,-0.30,-0.24,3.54,3.57,3.56
51.99,3.59,0.05,3.62,0.07,-0.07,-0.35,-0.27,3.52,3.55,3.54
52.51,3.62,0.08,3.63,0.09,-0.09,-0.39,-0.31,3.52,3.54,3.54
53.03,3.65,0.12,3.64,0.12,-0.12,-0.44,-0.34,3.53,3.52,3.53
53.56,3.67,0.16,3.65,0.14,-0.14,-0.48,-0.38,3.52,3.51,3.51
54.10,3.69,0.20,3.66,0.17,-0.17,-0.52,-0.41,3.52,3.49,3.49
54.64,3.69,0.21,3.67,0.19,-0.19,-0.57,-0.45,3.50,3.48,3.47
55.18,3.69,0.22,3.68,0.21,-0.21,-0.61,-0.48,3.48,3.46,3.46
55.74,3.69,0.24,3.68,0.23,-0.23,-0.66,-0.52,3.46,3.45,3.44
56.29,3.69,0.26,3.68,0.25,-0.25,-0.70,-0.55,3.44,3.43,3.43
56.86,3.69,0.28,3.69,0.27,-0.27,-0.75,-0.59,3.42,3.41,3.41
57.42,3.69,0.31,3.69,0.29,-0.29,-0.79,-0.62,3.39,3.39,3.38
58.00,3.69,0.32,3.69,0.32,-0.32,-0.84,-0.65,3.37,3.37,3.37
58.58,3.69,0.34,3.69,0.35,-0.35,-0.89,-0.69,3.34,3.34,3.35
59.16,3.69,0.36,3.69,0.38,-0.38,-0.93,-0.72,3.31,3.31,3.33
59.76,3.69,0.39,3.70,0.42,-0.42,-0.98,-0.75,3.27,3.28,3.30
60.35,3.69,0.43,3.71,0.46,-0.46,-1.02,-0.79,3.23,3.25,3.26
60.96,3.69,0.47,3.71,0.50,-0.50,-1.07,-0.82,3.18,3.21,3.22
61.57,3.69,0.52,3.72,0.55,-0.55,-1.12,-0.85,3.14,3.17,3.17
62.18,3.71,0.58,3.73,0.60,-0.60,-1.16,-0.88,3.11,3.13,3.12
62.80,3.77,0.69,3.74,0.65,-0.65,-1.21,-0.91,3.11,3.08,3.08
63.43,3.79,0.76,3.75,0.71,-0.71,-1.26,-0.95,3.08,3.03,3.03
64.07,3.79,0.81,3.76,0.77,-0.77,-1.30,-0.98,3.01,2.98,2.97
64.71,3.79,0.87,3.77,0.84,-0.84,-1.35,-1.01,2.95,2.93,2.92
65.35,3.79,0.91,3.79,0.91,-0.91,-1.40,-1.04,2.88,2.88,2.88
66.01,3.79,0.96,3.80,0.97,-0.97,-1.44,-1.07,2.82,2.83,2.83
66.67,3.79,1.02,3.81,1.04,-1.04,-1.49,-1.11,2.75,2.77,2.77
67.33,3.79,1.07,3.83,1.11,-1.11,-1.54,-1.14,2.68,2.72,2.72
68.01,3.79,1.12,3.84,1.17,-1.17,-1.59,-1.17,2.62,2.67,2.67
68.69,3.86,1.25,3.85,1.24,-1.24,-1.63,-1.20,2.62,2.61,2.61
69.37,3.89,1.33,3.85,1.30,-1.30,-1.68,-1.24,2.59,2.55,2.55
70.07,3.89,1.39,3.86,1.37,-1.37,-1.73,-1.27,2.52,2.49,2.50
70.77,3.89,1.44,3.87,1.43,-1.43,-1.77,-1.30,2.45,2.43,2.44
71.48,3.89,1.50,3.88,1.50,-1.50,-1.82,-1.34,2.38,2.37,2.38
72.19,3.89,1.58,3.88,1.57,-1.57,-1.87,-1.37,2.31,2.31,2.31
72.91,3.89,1.64,3.89,1.64,-1.64,-1.91,-1.41,2.25,2.25,2.25
73.64,3.89,1.70,3.89,1.71,-1.71,-1.96,-1.45,2.18,2.18,2.18
74.38,3.89,1.77,3.90,1.78,-1.78,-2.01,-1.49,2.11,2.12,2.12
75.12,3.89,1.84,3.90,1.84,-1.84,-2.05,-1.53,2.05,2.06,2.05
75.87,3.89,1.90,3.89,1.90,-1.90,-2.10,-1.57,1.99,2.00,1.99
76.63,3.89,1.96,3.89,1.96,-1.96,-2.14,-1.61,1.93,1.93,1.93
77.40,3.89,2.02,3.90,2.02,-2.02,-2.19,-1.65,1.87,1.87,1.87
78.17,3.89,2.09,3.90,2.08,-2.08,-2.24,-1.69,1.80,1.81,1.80
78.95,3.89,2.13,3.90,2.14,-2.14,-2.28,-1.74,1.75,1.75,1.76
79.74,3.89,2.19,3.89,2.20,-2.20,-2.33,-1.79,1.69,1.70,1.70
80.54,3.89,2.25,3.89,2.25,-2.25,-2.37,-1.83,1.64,1.64,1.64
81.35,3.89,2.31,3.88,2.30,-2.30,-2.42,-1.88,1.59,1.58,1.58
82.16,3.89,2.36,3.87,2.35,-2.35,-2.46,-1.94,1.54,1.53,1.52
82.98,3.89,2.41,3.86,2.39,-2.39,-2.51,-1.99,1.49,1.47,1.48
83.81,3.89,2.48,3.86,2.44,-2.44,-2.55,-2.04,1.45,1.41,1.41
84.65,3.88,2.52,3.85,2.49,-2.49,-2.60,-2.10,1.39,1.36,1.35
85.50,3.83,2.52,3.84,2.54,-2.54,-2.64,-2.16,1.28,1.30,1.31
86.35,3.79,2.54,3.84,2.59,-2.59,-2.68,-2.22,1.19,1.24,1.25
87.22,3.79,2.60,3.83,2.64,-2.64,-2.73,-2.28,1.15,1.18,1.19
88.09,3.79,2.66,3.82,2.69,-2.69,-2.77,-2.34,1.10,1.12,1.13
88.97,3.79,2.72,3.80,2.74,-2.74,-2.81,-2.40,1.05,1.06,1.07
89.86,3.79,2.78,3.79,2.79,-2.79,-2.86,-2.47,1.00,1.01,1.00
90.76,3.80,2.86,3.78,2.83,-2.83,-2.90,-2.54,0.96,0.95,0.94
91.66,3.80,2.91,3.76,2.88,-2.88,-2.94,-2.61,0.92,0.89,0.89
92.58,3.80,2.98,3.75,2.92,-2.92,-2.98,-2.68,0.87,0.83,0.82
93.51,3.78,3.02,3.74,2.97,-2.97,-3.02,-2.75,0.81,0.77,0.76
94.44,3.73,3.02,3.73,3.02,-3.02,-3.07,-2.83,0.71,0.71,0.71
95.39,3.70,3.05,3.72,3.08,-3.08,-3.11,-2.91,0.62,0.65,0.65
96.34,3.69,3.10,3.72,3.13,-3.13,-3.15,-2.98,0.56,0.59,0.59
97.30,3.69,3.16,3.71,3.18,-3.18,-3.19,-3.06,0.51,0.53,0.53
98.28,3.68,3.21,3.71,3.23,-3.23,-3.23,-3.15,0.45,0.47,0.47
99.26,3.66,3.24,3.70,3.28,-3.28,-3.27,-3.23,0.38,0.42,0.42
100.25,3.65,3.29,3.68,3.33,-3.33,-3.31,-3.31,0.32,0.36,0.36
101.25,3.65,3.35,3.67,3.37,-3.37,-3.35,-3.39,0.28,0.30,0.30
102.27,3.69,3.44,3.65,3.41,-3.41,-3.38,-3.48,0.28,0.24,0.24
103.29,3.69,3.51,3.64,3.45,-3.45,-3.42,-3.56,0.23,0.18,0.18
104.32,3.68,3.55,3.62,3.50,-3.50,-3.46,-3.65,0.18,0.12,0.13
105.37,3.66,3.59,3.60,3.54,-3.54,-3.50,-3.73,0.12,0.06,0.07
106.42,3.64,3.63,3.58,3.58,-3.58,-3.54,-3.82,0.06,0.00,0.01
107.48,3.58,3.63,3.56,3.62,-3.62,-3.57,-3.90,-0.04,-0.06,-0.06
108.56,3.50,3.62,3.53,3.65,-3.65,-3.61,-3.98,-0.16,-0.12,-0.12
109.64,3.47,3.65,3.51,3.70,-3.70,-3.65,-4.07,-0.23,-0.18,-0.18
110.74,3.45,3.70,3.49,3.74,-3.74,-3.68,-4.14,-0.29,-0.25,-0.25
111.85,3.43,3.72,3.47,3.78,-3.78,-3.72,-4.22,-0.35,-0.31,-0.29
112.97,3.42,3.79,3.45,3.82,-3.82,-3.75,-4.30,-0.40,-0.37,-0.37
114.10,3.41,3.84,3.43,3.86,-3.86,-3.79,-4.37,-0.45,-0.42,-0.43
115.24,3.41,3.89,3.42,3.90,-3.90,-3.82,-4.44,-0.49,-0.48,-0.48
116.39,3.41,3.96,3.41,3.95,-3.95,-3.85,-4.50,-0.54,-0.54,-0.55
117.55,3.42,4.01,3.40,3.99,-3.99,-3.89,-4.56,-0.57,-0.59,-0.60
118.73,3.42,4.07,3.40,4.04,-4.04,-3.92,-4.61,-0.62,-0.64,-0.65
119.92,3.43,4.11,3.40,4.08,-4.08,-3.95,-4.66,-0.65,-0.69,-0.69
121.12,3.44,4.18,3.39,4.12,-4.12,-3.98,-4.71,-0.69,-0.73,-0.74
122.33,3.40,4.18,3.38,4.16,-4.16,-4.02,-4.75,-0.76,-0.78,-0.78
123.55,3.36,4.17,3.38,4.20,-4.20,-4.05,-4.79,-0.84,-0.82,-0.82
124.79,3.36,4.22,3.37,4.23,-4.23,-4.08,-4.82,-0.87,-0.86,-0.86
126.03,3.37,4.27,3.36,4.26,-4.26,-4.11,-4.84,-0.89,-0.90,-0.90
127.29,3.37,4.30,3.35,4.29,-4.29,-4.14,-4.86,-0.92,-0.94,-0.93
128.57,3.34,4.32,3.34,4.32,-4.32,-4.17,-4.87,-0.98,-0.98,-0.98
129.85,3.28,4.30,3.33,4.35,-4.35,-4.20,-4.88,-1.07,-1.02,-1.02
131.15,3.29,4.34,3.32,4.37,-4.37,-4.22,-4.88,-1.08,-1.05,-1.06
132.46,3.29,4.38,3.30,4.39,-4.39,-4.25,-4.88,-1.11,-1.09,-1.09
133.79,3.30,4.43,3.29,4.42,-4.42,-4.28,-4.88,-1.12,-1.13,-1.13
135.12,3.30,4.47,3.27,4.43,-4.43,-4.31,-4.87,-1.14,-1.17,-1.18
136.48,3.30,4.50,3.25,4.45,-4.45,-4.33,-4.85,-1.16,-1.20,-1.20
137.84,3.26,4.50,3.24,4.47,-4.47,-4.36,-4.84,-1.22,-1.24,-1.25
139.22,3.23,4.52,3.21,4.49,-4.49,-4.39,-4.82,-1.26,-1.28,-1.29
140.61,3.21,4.54,3.19,4.51,-4.51,-4.41,-4.80,-1.30,-1.31,-1.33
142.02,3.21,4.56,3.18,4.53,-4.53,-4.44,-4.78,-1.32,-1.35,-1.35
143.44,3.14,4.53,3.16,4.56,-4.56,-4.46,-4.75,-1.42,-1.40,-1.39
144.87,3.11,4.55,3.15,4.60,-4.60,-4.49,-4.73,-1.49,-1.44,-1.44
146.32,3.11,4.60,3.14,4.64,-4.64,-4.51,-4.70,-1.53,-1.50,-1.49
147.78,3.11,4.64,3.14,4.69,-4.69,-4.53,-4.68,-1.58,-1.55,-1.53
149.26,3.11,4.69,3.14,4.75,-4.75,-4.56,-4.65,-1.64,-1.62,-1.58
150.75,3.11,4.77,3.15,4.83,-4.83,-4.58,-4.63,-1.72,-1.68,-1.66
152.26,3.11,4.84,3.16,4.91,-4.91,-4.60,-4.60,-1.80,-1.75,-1.73
153.78,3.13,4.94,3.17,4.99,-4.99,-4.62,-4.58,-1.86,-1.83,-1.81
155.32,3.18,5.07,3.17,5.07,-5.07,-4.64,-4.56,-1.90,-1.90,-1.89
156.88,3.21,5.18,3.17,5.15,-5.15,-4.66,-4.54,-1.94,-1.98,-1.97
158.44,3.21,5.27,3.17,5.23,-5.23,-4.68,-4.53,-2.02,-2.06,-2.06
160.03,3.21,5.36,3.17,5.30,-5.30,-4.70,-4.51,-2.09,-2.13,-2.15
161.63,3.21,5.44,3.15,5.35,-5.35,-4.72,-4.50,-2.15,-2.21,-2.23
163.24,3.21,5.51,3.12,5.40,-5.40,-4.74,-4.49,-2.19,-2.27,-2.30
164.88,3.18,5.53,3.09,5.43,-5.43,-4.76,-4.49,-2.25,-2.34,-2.35
166.53,3.12,5.53,3.06,5.45,-5.45,-4.78,-4.48,-2.33,-2.39,-2.41
168.19,3.00,5.45,3.01,5.45,-5.45,-4.79,-4.49,-2.45,-2.44,-2.45
169.87,2.90,5.40,2.96,5.44,-5.44,-4.81,-4.49,-2.54,-2.48,-2.50
171.57,2.88,5.40,2.92,5.42,-5.42,-4.83,-4.50,-2.55,-2.51,-2.52
173.29,2.87,5.41,2.88,5.41,-5.41,-4.84,-4.51,-2.54,-2.53,-2.54
175.02,2.83,5.38,2.84,5.40,-5.40,-4.86,-4.52,-2.57,-2.55,-2.55
176.77,2.77,5.34,2.82,5.39,-5.39,-4.87,-4.54,-2.62,-2.57,-2.57
178.54,2.76,5.34,2.81,5.39,-5.39,-4.89,-4.56,-2.63,-2.58,-2.58
180.32,2.77,5.35,2.81,5.40,-5.40,-4.90,-4.58,-2.64,-2.59,-2.58
182.13,2.77,5.35,2.83,5.43,-5.43,-4.92,-4.61,-2.66,-2.60,-2.58
183.95,2.78,5.38,2.85,5.46,-5.46,-4.93,-4.64,-2.68,-2.61,-2.60
185.79,2.79,5.39,2.87,5.50,-5.50,-4.94,-4.68,-2.71,-2.63,-2.60
187.65,2.90,5.53,2.90,5.54,-5.54,-4.95,-4.72,-2.65,-2.64,-2.63
189.52,3.00,5.64,2.93,5.58,-5.58,-4.97,-4.76,-2.58,-2.65,-2.64
191.42,3.04,5.71,2.95,5.62,-5.62,-4.98,-4.80,-2.58,-2.67,-2.67
193.33,3.05,5.74,2.97,5.66,-5.66,-4.99,-4.85,-2.61,-2.69,-2.69
195.27,3.07,5.78,2.98,5.70,-5.70,-5.00,-4.90,-2.63,-2.71,-2.71
197.22,3.08,5.81,3.00,5.73,-5.73,-5.01,-4.95,-2.65,-2.73,-2.73
199.19,3.05,5.81,3.00,5.76,-5.76,-5.02,-5.01,-2.71,-2.76,-2.77
201.18,3.01,5.79,3.00,5.78,-5.78,-5.03,-5.07,-2.77,-2.78,-2.79
203.19,2.94,5.74,2.99,5.80,-5.80,-5.04,-5.13,-2.86,-2.81,-2.81
205.23,2.91,5.74,2.98,5.81,-5.81,-5.05,-5.19,-2.90,-2.83,-2.83
207.28,2.91,5.75,2.96,5.81,-5.81,-5.05,-5.25,-2.90,-2.86,-2.84
209.35,2.90,5.77,2.93,5.81,-5.81,-5.06,-5.31,-2.91,-2.88,-2.87
211.44,2.90,5.81,2.92,5.81,-5.81,-5.07,-5.38,-2.92,-2.90,-2.91
213.56,2.90,5.81,2.91,5.82,-5.82,-5.08,-5.44,-2.92,-2.92,-2.91
215.69,2.89,5.82,2.90,5.83,-5.83,-5.08,-5.51,-2.94,-2.93,-2.93
217.85,2.89,5.83,2.89,5.84,-5.84,-5.09,-5.57,-2.95,-2.95,-2.95
220.03,2.89,5.85,2.89,5.85,-5.85,-5.09,-5.63,-2.96,-2.96,-2.96
222.23,2.89,5.87,2.88,5.85,-5.85,-5.10,-5.69,-2.96,-2.97,-2.99
224.45,2.88,5.86,2.88,5.85,-5.85,-5.10,-5.75,-2.97,-2.97,-2.98
226.70,2.89,5.87,2.87,5.85,-5.85,-5.11,-5.80,-2.96,-2.98,-2.98
228.96,2.89,5.86,2.87,5.85,-5.85,-5.11,-5.85,-2.96,-2.97,-2.98
231.25,2.90,5.87,2.87,5.84,-5.84,-5.11,-5.90,-2.94,-2.97,-2.97
233.57,2.91,5.87,2.86,5.82,-5.82,-5.12,-5.94,-2.91,-2.96,-2.96
235.90,2.87,5.82,2.85,5.80,-5.80,-5.12,-5.98,-2.93,-2.95,-2.95
238.26,2.82,5.76,2.84,5.77,-5.77,-5.12,-6.01,-2.96,-2.93,-2.94
240.64,2.76,5.68,2.83,5.75,-5.75,-5.12,-6.03,-2.99,-2.92,-2.92
243.05,2.76,5.65,2.82,5.72,-5.72,-5.12,-6.05,-2.96,-2.90,-2.90
245.48,2.78,5.65,2.81,5.68,-5.68,-5.12,-6.06,-2.91,-2.88,-2.88
247.93,2.81,5.65,2.79,5.65,-5.65,-5.12,-6.07,-2.84,-2.86,-2.85
250.41,2.83,5.66,2.78,5.61,-5.61,-5.12,-6.07,-2.78,-2.84,-2.83
252.92,2.79,5.59,2.76,5.57,-5.57,-5.12,-6.06,-2.78,-2.81,-2.80
255.45,2.75,5.53,2.74,5.53,-5.53,-5.12,-6.05,-2.78,-2.79,-2.78
258.00,2.69,5.45,2.72,5.48,-5.48,-5.12,-6.02,-2.80,-2.77,-2.76
260.58,2.67,5.42,2.69,5.43,-5.43,-5.12,-6.00,-2.76,-2.75,-2.75
263.19,2.67,5.39,2.66,5.38,-5.38,-5.12,-5.96,-2.71,-2.72,-2.72
265.82,2.67,5.37,2.62,5.32,-5.32,-5.11,-5.92,-2.65,-2.70,-2.70
268.48,2.63,5.31,2.59,5.26,-5.26,-5.11,-5.88,-2.63,-2.68,-2.68
271.16,2.58,5.23,2.54,5.19,-5.19,-5.11,-5.82,-2.62,-2.65,-2.65
273.87,2.49,5.12,2.49,5.12,-5.12,-5.10,-5.77,-2.64,-2.63,-2.64
276.61,2.46,5.06,2.45,5.05,-5.05,-5.10,-5.71,-2.59,-2.60,-2.60
279.38,2.44,5.02,2.41,4.98,-4.98,-5.09,-5.65,-2.55,-2.58,-2.58
282.17,2.32,4.87,2.37,4.92,-4.92,-5.09,-5.58,-2.60,-2.55,-2.55
284.99,2.27,4.79,2.33,4.86,-4.86,-5.08,-5.51,-2.59,-2.53,-2.52
287.84,2.27,4.77,2.30,4.80,-4.80,-5.08,-5.44,-2.53,-2.50,-2.51
290.72,2.28,4.75,2.27,4.74,-4.74,-5.07,-5.37,-2.46,-2.47,-2.47
293.63,2.25,4.70,2.25,4.70,-4.70,-5.06,-5.30,-2.45,-2.44,-2.45
296.57,2.22,4.63,2.24,4.66,-4.66,-5.06,-5.23,-2.44,-2.41,-2.41
299.53,2.22,4.61,2.25,4.63,-4.63,-5.05,-5.16,-2.41,-2.39,-2.39
302.53,2.23,4.60,2.25,4.61,-4.61,-5.04,-5.09,-2.39,-2.36,-2.37
305.55,2.24,4.56,2.26,4.60,-4.60,-5.03,-5.02,-2.36,-2.34,-2.33
308.61,2.25,4.56,2.27,4.58,-4.58,-5.02,-4.95,-2.33,-2.31,-2.31
311.69,2.26,4.54,2.28,4.57,-4.57,-5.01,-4.88,-2.31,-2.29,-2.28
314.81,2.32,4.58,2.29,4.56,-4.56,-5.00,-4.81,-2.24,-2.27,-2.26
317.96,2.36,4.60,2.30,4.55,-4.55,-4.99,-4.75,-2.19,-2.25,-2.24
321.14,2.37,4.60,2.30,4.54,-4.54,-4.98,-4.69,-2.17,-2.23,-2.24
324.35,2.37,4.59,2.31,4.52,-4.52,-4.97,-4.63,-2.15,-2.22,-2.22
327.59,2.36,4.56,2.31,4.51,-4.51,-4.96,-4.57,-2.15,-2.20,-2.20
330.87,2.32,4.51,2.31,4.50,-4.50,-4.95,-4.52,-2.18,-2.19,-2.20
334.18,2.27,4.45,2.31,4.49,-4.49,-4.93,-4.47,-2.22,-2.18,-2.18
337.52,2.26,4.43,2.30,4.47,-4.47,-4.92,-4.42,-2.21,-2.17,-2.17
340.90,2.26,4.41,2.30,4.46,-4.46,-4.91,-4.38,-2.20,-2.16,-2.16
344.30,2.26,4.41,2.29,4.44,-4.44,-4.89,-4.34,-2.18,-2.16,-2.15
347.75,2.26,4.41,2.28,4.43,-4.43,-4.88,-4.30,-2.17,-2.15,-2.15
351.23,2.26,4.40,2.27,4.41,-4.41,-4.86,-4.26,-2.16,-2.15,-2.14
354.74,2.26,4.40,2.26,4.40,-4.40,-4.85,-4.23,-2.15,-2.14,-2.15
358.28,2.26,4.40,2.26,4.40,-4.40,-4.83,-4.21,-2.14,-2.14,-2.14
361.87,2.27,4.41,2.25,4.39,-4.39,-4.82,-4.18,-2.12,-2.14,-2.14
365.49,2.28,4.41,2.24,4.38,-4.38,-4.80,-4.16,-2.10,-2.14,-2.13
369.14,2.25,4.39,2.23,4.37,-4.37,-4.78,-4.14,-2.12,-2.14,-2.14
372.83,2.20,4.35,2.22,4.36,-4.36,-4.77,-4.13,-2.17,-2.14,-2.15
376.56,2.20,4.35,2.21,4.35,-4.35,-4.75,-4.11,-2.15,-2.14,-2.15
380.33,2.21,4.35,2.18,4.33,-4.33,-4.73,-4.10,-2.12,-2.15,-2.14
384.13,2.21,4.35,2.16,4.31,-4.31,-4.71,-4.10,-2.10,-2.15,-2.14
387.97,2.16,4.31,2.13,4.29,-4.29,-4.69,-4.09,-2.13,-2.16,-2.15
391.85,2.11,4.27,2.10,4.26,-4.26,-4.67,-4.09,-2.16,-2.16,-2.17
395.77,2.04,4.20,2.07,4.24,-4.24,-4.66,-4.09,-2.20,-2.17,-2.16
399.73,2.02,4.19,2.04,4.22,-4.22,-4.63,-4.10,-2.20,-2.17,-2.17
403.72,2.02,4.19,2.01,4.19,-4.19,-4.61,-4.10,-2.17,-2.18,-2.17
407.76,2.02,4.20,1.98,4.16,-4.16,-4.59,-4.11,-2.14,-2.18,-2.18
411.84,1.94,4.12,1.95,4.14,-4.14,-4.57,-4.12,-2.20,-2.19,-2.18
415.96,1.91,4.09,1.93,4.12,-4.12,-4.55,-4.13,-2.21,-2.19,-2.19
420.12,1.91,4.09,1.91,4.10,-4.10,-4.53,-4.14,-2.19,-2.19,-2.19
424.32,1.92,4.11,1.91,4.09,-4.09,-4.51,-4.16,-2.17,-2.18,-2.19
428.56,1.93,4.11,1.91,4.09,-4.09,-4.48,-4.17,-2.16,-2.17,-2.18
432.85,1.92,4.09,1.93,4.09,-4.09,-4.46,-4.18,-2.17,-2.16,-2.17
437.18,1.89,4.05,1.96,4.09,-4.09,-4.43,-4.20,-2.20,-2.14,-2.16
441.55,1.90,4.02,1.99,4.10,-4.10,-4.41,-4.21,-2.20,-2.11,-2.12
445.96,1.95,4.04,2.03,4.10,-4.10,-4.39,-4.22,-2.16,-2.08,-2.09
450.42,2.00,4.06,2.07,4.11,-4.11,-4.36,-4.23,-2.11,-2.04,-2.06
454.93,2.14,4.15,2.11,4.12,-4.12,-4.34,-4.24,-1.98,-2.00,-2.02
459.48,2.22,4.18,2.16,4.12,-4.12,-4.31,-4.25,-1.90,-1.96,-1.97
464.07,2.28,4.20,2.21,4.12,-4.12,-4.28,-4.25,-1.84,-1.91,-1.92
468.71,2.31,4.17,2.25,4.11,-4.11,-4.26,-4.26,-1.80,-1.87,-1.86
473.40,2.31,4.13,2.29,4.10,-4.10,-4.23,-4.26,-1.80,-1.82,-1.82
478.13,2.35,4.11,2.33,4.10,-4.10,-4.20,-4.25,-1.75,-1.77,-1.76
482.91,2.40,4.12,2.36,4.09,-4.09,-4.17,-4.25,-1.69,-1.72,-1.72
487.74,2.39,4.07,2.39,4.07,-4.07,-4.15,-4.24,-1.68,-1.68,-1.68
492.62,2.38,4.01,2.40,4.05,-4.05,-4.12,-4.22,-1.67,-1.65,-1.63
497.55,2.39,4.00,2.40,4.01,-4.01,-4.09,-4.21,-1.63,-1.62,-1.61
502.52,2.35,3.93,2.39,3.98,-3.98,-4.06,-4.19,-1.63,-1.59,-1.58
507.55,2.34,3.91,2.37,3.94,-3.94,-4.03,-4.16,-1.61,-1.58,-1.57
512.62,2.36,3.92,2.34,3.91,-3.91,-4.00,-4.13,-1.56,-1.57,-1.56
