frequency,raw,error,smoothed,error_smoothed,equalization,parametric_eq,fixed_band_eq,equalized_raw,equalized_smoothed,target
20.00,-10.42,-11.62,-10.48,-11.69,11.51,11.21,7.52,1.09,1.03,1.20
20.20,-10.39,-11.63,-10.35,-11.59,11.55,11.38,7.69,1.16,1.20,1.24
20.40,-10.36,-11.63,-10.28,-11.56,11.62,11.55,7.86,1.26,1.33,1.28
20.61,-10.33,-11.63,-10.28,-11.59,11.70,11.73,8.03,1.37,1.42,1.30
20.81,-10.30,-11.64,-10.29,-11.64,11.82,11.91,8.21,1.52,1.52,1.35
21.02,-10.32,-11.70,-10.45,-11.82,11.95,12.11,8.39,1.63,1.50,1.38
21.23,-10.80,-12.20,-10.77,-12.17,12.11,12.32,8.58,1.31,1.35,1.39
21.44,-11.28,-12.69,-11.17,-12.58,12.30,12.53,8.77,1.03,1.13,1.42
21.66,-11.74,-13.18,-11.64,-13.07,12.55,12.76,8.97,0.81,0.92,1.43
21.87,-12.25,-13.69,-12.39,-13.84,12.82,13.01,9.17,0.57,0.43,1.45
22.09,-13.39,-14.85,-13.61,-15.06,13.10,13.27,9.38,-0.30,-0.52,1.45
22.31,-15.45,-16.90,-15.33,-16.79,13.37,13.54,9.60,-2.08,-1.96,1.46
22.54,-17.44,-18.90,-17.62,-19.08,13.63,13.84,9.82,-3.80,-3.98,1.46
22.76,-19.55,-21.02,-19.65,-21.12,13.89,14.15,10.04,-5.65,-5.76,1.47
22.99,-21.57,-23.05,-20.89,-22.37,14.15,14.48,10.27,-7.42,-6.74,1.47
23.22,-21.23,-22.72,-21.32,-22.80,14.41,14.82,10.51,-6.82,-6.91,1.48
23.45,-20.77,-22.26,-20.92,-22.41,14.67,15.17,10.76,-6.10,-6.25,1.49
23.69,-20.31,-21.81,-20.24,-21.74,14.93,15.53,11.01,-5.38,-5.31,1.50
23.92,-19.84,-21.36,-20.08,-21.60,15.18,15.88,11.27,-4.66,-4.89,1.52
24.16,-20.27,-21.79,-20.34,-21.87,15.44,16.20,11.53,-4.82,-4.90,1.52
24.40,-21.10,-22.64,-21.10,-22.62,15.70,16.49,11.81,-5.40,-5.39,1.53
24.65,-21.92,-23.45,-22.02,-23.54,15.96,16.72,12.09,-5.96,-6.06,1.52
24.89,-22.76,-24.28,-22.48,-24.01,16.22,16.88,12.37,-6.54,-6.27,1.52
25.14,-22.52,-24.04,-22.33,-23.86,16.48,16.96,12.67,-6.04,-5.86,1.52
25.39,-21.47,-23.00,-21.53,-23.06,16.59,16.97,12.97,-4.88,-4.95,1.52
25.65,-20.46,-21.99,-20.44,-21.96,16.98,16.90,13.28,-3.49,-3.46,1.52
25.91,-19.45,-20.95,-19.68,-21.20,17.51,16.78,13.60,-1.94,-2.18,1.51
26.16,-19.37,-20.88,-19.48,-20.99,18.00,16.63,13.93,-1.37,-1.48,1.51
26.43,-19.84,-21.36,-19.93,-21.44,18.34,16.45,14.26,-1.50,-1.59,1.51
26.69,-20.33,-21.84,-20.42,-21.93,18.45,16.27,14.60,-1.88,-1.97,1.51
26.96,-20.81,-22.33,-20.23,-21.75,18.30,16.09,14.94,-2.52,-1.93,1.51
27.23,-19.18,-20.70,-19.12,-20.64,17.91,15.92,15.29,-1.28,-1.22,1.51
27.50,-17.10,-18.61,-17.18,-18.69,17.34,15.77,15.64,0.24,0.16,1.51
27.77,-14.99,-16.50,-15.07,-16.58,16.65,15.63,15.99,1.65,1.58,1.50
28.05,-13.23,-14.73,-13.57,-15.07,15.90,15.51,16.35,2.68,2.34,1.50
28.33,-12.71,-14.19,-12.50,-13.99,15.16,15.41,16.69,2.46,2.67,1.48
28.62,-12.20,-13.69,-11.95,-13.44,14.51,15.32,17.04,2.31,2.56,1.49
28.90,-11.67,-13.17,-12.01,-13.50,13.99,15.24,17.37,2.32,1.98,1.49
29.19,-12.42,-13.91,-12.57,-14.06,13.64,15.18,17.68,1.22,1.07,1.48
29.48,-13.83,-15.33,-13.73,-15.22,13.79,15.12,17.98,-0.04,0.06,1.49
29.78,-15.22,-16.71,-15.13,-16.62,14.04,15.07,18.24,-1.18,-1.09,1.49
30.08,-16.43,-17.92,-16.29,-17.78,14.27,15.04,18.48,-2.16,-2.02,1.49
30.38,-17.12,-18.59,-17.24,-18.72,14.43,15.00,18.67,-2.69,-2.81,1.48
30.68,-17.82,-19.29,-17.90,-19.37,14.48,14.97,18.83,-3.34,-3.43,1.47
30.99,-18.49,-19.96,-18.27,-19.74,14.37,14.95,18.93,-4.12,-3.91,1.47
31.30,-18.39,-19.86,-18.61,-20.08,14.16,14.92,18.99,-4.23,-4.45,1.46
31.61,-18.25,-19.71,-18.47,-19.92,13.92,14.90,18.99,-4.33,-4.55,1.46
31.93,-18.10,-19.55,-17.56,-19.01,13.66,14.88,18.95,-4.44,-3.90,1.45
32.24,-15.93,-17.37,-15.56,-17.00,13.43,14.86,18.85,-2.50,-2.13,1.43
32.57,-13.25,-14.69,-13.13,-14.56,13.27,14.83,18.72,0.01,0.14,1.43
32.89,-10.49,-11.93,-11.45,-12.88,13.21,14.81,18.55,2.71,1.76,1.43
33.22,-11.16,-12.60,-11.64,-13.07,13.24,14.79,18.34,2.08,1.60,1.43
33.55,-13.49,-14.91,-13.23,-14.66,13.34,14.76,18.11,-0.14,0.11,1.42
33.89,-15.76,-17.19,-15.17,-16.59,13.52,14.73,17.86,-2.25,-1.65,1.42
34.23,-16.36,-17.78,-16.13,-17.55,13.75,14.70,17.60,-2.61,-2.38,1.42
34.57,-16.10,-17.51,-16.24,-17.66,14.04,14.67,17.33,-2.06,-2.21,1.41
34.92,-15.84,-17.25,-16.11,-17.52,14.37,14.64,17.05,-1.47,-1.74,1.40
35.27,-16.29,-17.70,-16.40,-17.80,14.70,14.60,16.76,-1.59,-1.70,1.40
35.62,-16.98,-18.37,-16.94,-18.33,14.98,14.56,16.48,-2.00,-1.96,1.39
35.97,-17.66,-19.04,-17.42,-18.81,15.20,14.52,16.20,-2.46,-2.21,1.38
36.33,-17.56,-18.94,-17.58,-18.96,15.37,14.47,15.93,-2.19,-2.21,1.38
36.70,-17.40,-18.79,-17.48,-18.85,15.46,14.42,15.66,-1.94,-2.02,1.38
37.06,-17.24,-18.60,-17.24,-18.62,15.48,14.37,15.39,-1.76,-1.77,1.36
37.43,-17.07,-18.43,-17.07,-18.44,15.41,14.31,15.14,-1.65,-1.66,1.36
37.81,-16.90,-18.25,-16.89,-18.25,15.28,14.25,14.89,-1.62,-1.61,1.35
38.19,-16.70,-18.05,-16.74,-18.09,15.08,14.19,14.65,-1.62,-1.66,1.34
38.57,-16.47,-17.81,-16.50,-17.84,14.79,14.12,14.42,-1.68,-1.71,1.34
38.95,-16.23,-17.56,-16.10,-17.43,14.46,14.06,14.20,-1.77,-1.64,1.33
39.34,-15.46,-16.78,-15.51,-16.83,14.14,13.99,13.99,-1.32,-1.37,1.32
39.74,-14.63,-15.94,-14.66,-15.97,13.87,13.91,13.79,-0.76,-0.78,1.30
40.14,-13.65,-14.97,-13.34,-14.65,13.69,13.84,13.59,0.04,0.35,1.31
40.54,-12.37,-13.68,-12.24,-13.54,13.57,13.76,13.41,1.20,1.34,1.30
40.94,-11.08,-12.38,-11.88,-13.18,13.54,13.68,13.23,2.46,1.65,1.30
41.35,-12.29,-13.58,-12.43,-13.72,13.57,13.60,13.07,1.28,1.14,1.28
41.76,-13.92,-15.18,-13.47,-14.74,13.71,13.51,12.91,-0.21,0.24,1.26
42.18,-14.72,-15.97,-14.40,-15.65,13.92,13.43,12.76,-0.79,-0.47,1.25
42.60,-14.48,-15.70,-14.60,-15.83,14.19,13.34,12.62,-0.29,-0.41,1.22
43.03,-14.25,-15.46,-14.43,-15.64,14.46,13.25,12.49,0.21,0.03,1.21
43.46,-14.28,-15.46,-14.27,-15.45,14.72,13.16,12.36,0.44,0.45,1.18
43.90,-14.30,-15.43,-14.25,-15.39,14.91,13.06,12.25,0.61,0.66,1.14
44.33,-14.23,-15.33,-14.23,-15.33,15.02,12.97,12.14,0.79,0.79,1.10
44.78,-14.13,-15.20,-14.14,-15.21,15.08,12.87,12.04,0.95,0.94,1.08
45.23,-14.03,-15.08,-14.03,-15.07,15.10,12.77,11.95,1.07,1.07,1.05
45.68,-13.92,-14.93,-13.92,-14.94,15.08,12.68,11.86,1.16,1.16,1.02
46.13,-13.82,-14.81,-13.82,-14.82,15.01,12.58,11.79,1.19,1.19,0.99
46.60,-13.71,-14.70,-13.71,-14.69,14.86,12.48,11.72,1.15,1.15,0.98
47.06,-13.60,-14.56,-13.63,-14.60,14.60,12.38,11.65,1.00,0.97,0.96
47.53,-13.46,-14.42,-13.48,-14.45,14.22,12.27,11.59,0.76,0.74,0.96
48.01,-13.32,-14.28,-13.23,-14.19,13.77,12.17,11.54,0.45,0.54,0.96
48.49,-12.75,-13.70,-12.78,-13.73,13.29,12.07,11.50,0.54,0.50,0.94
48.97,-12.16,-13.10,-12.05,-12.99,12.80,11.97,11.46,0.63,0.74,0.93
49.46,-11.27,-12.20,-11.24,-12.17,12.34,11.86,11.42,1.06,1.09,0.92
49.96,-10.36,-11.29,-10.51,-11.44,11.95,11.76,11.40,1.58,1.44,0.92
50.46,-10.16,-11.10,-10.10,-11.04,11.68,11.65,11.37,1.52,1.57,0.93
50.96,-10.03,-10.98,-10.28,-11.22,11.54,11.55,11.35,1.51,1.26,0.94
51.47,-10.80,-11.74,-10.81,-11.74,11.53,11.45,11.34,0.73,0.73,0.93
51.99,-11.63,-12.55,-11.35,-12.27,11.64,11.34,11.32,0.01,0.29,0.92
52.51,-11.73,-12.63,-11.76,-12.66,11.83,11.24,11.31,0.10,0.08,0.90
53.03,-11.79,-12.66,-11.81,-12.69,12.04,11.13,11.31,0.25,0.23,0.87
53.56,-11.67,-12.51,-11.68,-12.53,12.20,11.03,11.30,0.53,0.51,0.84
54.10,-11.55,-12.36,-11.56,-12.37,12.25,10.92,11.29,0.70,0.68,0.81
54.64,-11.42,-12.18,-11.43,-12.19,12.18,10.82,11.29,0.76,0.74,0.76
55.18,-11.30,-12.00,-11.31,-12.02,12.02,10.72,11.28,0.72,0.71,0.70
55.74,-11.18,-11.84,-11.15,-11.81,11.81,10.61,11.28,0.63,0.66,0.66
56.29,-10.98,-11.58,-10.96,-11.56,11.57,10.51,11.27,0.59,0.60,0.60
56.86,-10.72,-11.27,-10.73,-11.27,11.31,10.41,11.26,0.59,0.58,0.55
57.42,-10.50,-10.97,-10.50,-10.98,11.07,10.30,11.24,0.58,0.57,0.47
58.00,-10.30,-10.71,-10.33,-10.75,10.88,10.20,11.22,0.58,0.55,0.42
58.58,-10.24,-10.59,-10.24,-10.60,10.69,10.10,11.20,0.45,0.45,0.36
59.16,-10.20,-10.50,-10.21,-10.51,10.51,10.00,11.16,0.31,0.30,0.30
59.76,-10.20,-10.44,-10.18,-10.42,10.34,9.90,11.13,0.14,0.16,0.25
60.35,-10.12,-10.29,-10.11,-10.29,10.18,9.80,11.08,0.06,0.07,0.17
60.96,-9.99,-10.12,-10.00,-10.11,10.03,9.70,11.03,0.04,0.03,0.13
61.57,-9.85,-9.91,-9.84,-9.90,9.88,9.60,10.97,0.03,0.04,0.06
62.18,-9.71,-9.69,-9.70,-9.69,9.74,9.50,10.89,0.03,0.04,-0.02
62.80,-9.56,-9.50,-9.59,-9.53,9.61,9.40,10.82,0.05,0.02,-0.06
63.43,-9.52,-9.40,-9.53,-9.42,9.49,9.30,10.73,-0.03,-0.04,-0.12
64.07,-9.52,-9.36,-9.51,-9.35,9.39,9.21,10.63,-0.13,-0.11,-0.15
64.71,-9.52,-9.31,-9.52,-9.31,9.32,9.11,10.53,-0.20,-0.20,-0.20
65.35,-9.52,-9.26,-9.52,-9.27,9.26,9.01,10.41,-0.26,-0.26,-0.26
66.01,-9.52,-9.23,-9.52,-9.24,9.20,8.92,10.29,-0.32,-0.32,-0.29
66.67,-9.52,-9.19,-9.52,-9.19,9.15,8.82,10.16,-0.37,-0.37,-0.32
67.33,-9.49,-9.13,-9.48,-9.13,9.08,8.73,10.03,-0.41,-0.40,-0.36
68.01,-9.42,-9.03,-9.42,-9.03,9.01,8.63,9.89,-0.41,-0.41,-0.39
68.69,-9.32,-8.90,-9.30,-8.88,8.91,8.54,9.74,-0.41,-0.40,-0.42
69.37,-9.19,-8.73,-9.20,-8.75,8.78,8.45,9.59,-0.40,-0.41,-0.46
70.07,-9.06,-8.57,-9.11,-8.63,8.64,8.35,9.44,-0.42,-0.47,-0.49
70.77,-9.06,-8.56,-9.03,-8.53,8.49,8.26,9.28,-0.57,-0.54,-0.50
71.48,-8.95,-8.41,-8.91,-8.38,8.33,8.17,9.12,-0.62,-0.58,-0.53
72.19,-8.76,-8.20,-8.75,-8.19,8.16,8.08,8.96,-0.60,-0.59,-0.56
72.91,-8.50,-7.90,-8.56,-7.97,7.99,7.99,8.80,-0.51,-0.57,-0.60
73.64,-8.41,-7.78,-8.41,-7.78,7.83,7.90,8.63,-0.58,-0.58,-0.63
74.38,-8.32,-7.66,-8.30,-7.64,7.67,7.81,8.47,-0.65,-0.63,-0.66
75.12,-8.20,-7.51,-8.20,-7.52,7.52,7.73,8.31,-0.68,-0.68,-0.69
75.87,-8.11,-7.39,-8.09,-7.37,7.39,7.64,8.15,-0.72,-0.70,-0.72
76.63,-7.98,-7.23,-8.00,-7.25,7.28,7.55,7.99,-0.70,-0.72,-0.75
77.40,-7.92,-7.14,-7.95,-7.18,7.18,7.47,7.83,-0.74,-0.77,-0.78
78.17,-7.92,-7.11,-7.91,-7.11,7.10,7.38,7.68,-0.82,-0.81,-0.81
78.95,-7.92,-7.10,-7.86,-7.04,7.03,7.30,7.53,-0.89,-0.83,-0.82
79.74,-7.76,-6.92,-7.80,-6.96,6.95,7.21,7.38,-0.81,-0.85,-0.84
80.54,-7.70,-6.84,-7.74,-6.88,6.87,7.13,7.24,-0.83,-0.87,-0.86
81.35,-7.69,-6.81,-7.66,-6.79,6.79,7.05,7.09,-0.90,-0.87,-0.88
82.16,-7.65,-6.77,-7.61,-6.74,6.71,6.97,6.95,-0.94,-0.90,-0.88
82.98,-7.47,-6.59,-7.53,-6.65,6.63,6.89,6.82,-0.84,-0.90,-0.88
83.81,-7.47,-6.58,-7.42,-6.54,6.55,6.81,6.69,-0.92,-0.87,-0.89
84.65,-7.32,-6.42,-7.33,-6.44,6.48,6.73,6.56,-0.84,-0.85,-0.90
85.50,-7.24,-6.35,-7.28,-6.39,6.41,6.65,6.44,-0.83,-0.87,-0.89
86.35,-7.24,-6.35,-7.24,-6.35,6.35,6.57,6.32,-0.89,-0.89,-0.89
87.22,-7.23,-6.34,-7.20,-6.32,6.30,6.49,6.20,-0.93,-0.90,-0.89
88.09,-7.17,-6.28,-7.14,-6.26,6.25,6.41,6.09,-0.92,-0.89,-0.89
88.97,-7.02,-6.15,-7.07,-6.19,6.21,6.34,5.98,-0.81,-0.86,-0.87
89.86,-7.01,-6.14,-7.02,-6.15,6.16,6.26,5.88,-0.85,-0.86,-0.87
90.76,-7.01,-6.12,-7.00,-6.13,6.11,6.19,5.78,-0.90,-0.89,-0.89
91.66,-7.01,-6.13,-6.98,-6.10,6.07,6.11,5.68,-0.94,-0.92,-0.88
92.58,-6.93,-6.02,-6.92,-6.03,6.02,6.04,5.59,-0.91,-0.90,-0.91
93.51,-6.83,-5.93,-6.85,-5.95,5.97,5.96,5.50,-0.86,-0.88,-0.90
94.44,-6.78,-5.86,-6.79,-5.88,5.92,5.89,5.42,-0.86,-0.88,-0.92
95.39,-6.78,-5.85,-6.78,-5.84,5.86,5.82,5.33,-0.92,-0.92,-0.93
96.34,-6.78,-5.81,-6.79,-5.83,5.79,5.75,5.26,-0.99,-0.99,-0.97
97.30,-6.78,-5.79,-6.76,-5.78,5.73,5.68,5.18,-1.05,-1.03,-0.99
98.28,-6.73,-5.72,-6.70,-5.69,5.67,5.61,5.11,-1.06,-1.03,-1.01
99.26,-6.59,-5.55,-6.63,-5.59,5.62,5.54,5.04,-0.97,-1.01,-1.04
100.25,-6.56,-5.49,-6.57,-5.51,5.56,5.47,4.97,-1.00,-1.01,-1.07
101.25,-6.56,-5.46,-6.55,-5.45,5.50,5.40,4.91,-1.06,-1.05,-1.10
102.27,-6.56,-5.42,-6.56,-5.43,5.42,5.34,4.85,-1.14,-1.14,-1.13
103.29,-6.56,-5.37,-6.57,-5.39,5.33,5.27,4.79,-1.22,-1.23,-1.19
104.32,-6.56,-5.33,-6.54,-5.31,5.25,5.20,4.74,-1.31,-1.29,-1.23
105.37,-6.50,-5.22,-6.47,-5.20,5.17,5.14,4.68,-1.33,-1.31,-1.27
106.42,-6.37,-5.04,-6.40,-5.07,5.08,5.07,4.63,-1.29,-1.32,-1.33
107.48,-6.33,-4.93,-6.34,-4.94,4.99,5.01,4.58,-1.34,-1.35,-1.40
108.56,-6.33,-4.85,-6.32,-4.85,4.90,4.95,4.54,-1.43,-1.42,-1.47
109.64,-6.33,-4.78,-6.33,-4.79,4.80,4.88,4.49,-1.53,-1.52,-1.55
110.74,-6.33,-4.72,-6.33,-4.72,4.71,4.82,4.45,-1.62,-1.62,-1.61
111.85,-6.33,-4.65,-6.33,-4.65,4.63,4.76,4.40,-1.70,-1.70,-1.67
112.97,-6.33,-4.56,-6.33,-4.58,4.56,4.70,4.36,-1.77,-1.77,-1.76
114.10,-6.33,-4.50,-6.33,-4.50,4.49,4.64,4.32,-1.84,-1.84,-1.82
115.24,-6.33,-4.42,-6.33,-4.42,4.42,4.58,4.28,-1.91,-1.91,-1.90
116.39,-6.33,-4.34,-6.33,-4.35,4.36,4.52,4.24,-1.97,-1.97,-1.99
117.55,-6.33,-4.28,-6.33,-4.28,4.29,4.46,4.20,-2.03,-2.03,-2.05
118.73,-6.33,-4.21,-6.33,-4.22,4.24,4.41,4.16,-2.09,-2.09,-2.12
119.92,-6.33,-4.17,-6.33,-4.17,4.18,4.35,4.12,-2.15,-2.15,-2.15
121.12,-6.33,-4.11,-6.33,-4.12,4.12,4.30,4.08,-2.20,-2.20,-2.21
122.33,-6.33,-4.07,-6.34,-4.10,4.07,4.24,4.03,-2.26,-2.28,-2.25
123.55,-6.33,-4.05,-6.32,-4.04,4.01,4.19,3.99,-2.32,-2.31,-2.28
124.79,-6.33,-4.01,-6.28,-3.96,3.94,4.13,3.95,-2.39,-2.34,-2.31
126.03,-6.18,-3.82,-6.25,-3.90,3.87,4.08,3.91,-2.30,-2.37,-2.36
127.29,-6.20,-3.81,-6.21,-3.82,3.82,4.03,3.87,-2.38,-2.39,-2.39
128.57,-6.23,-3.80,-6.17,-3.74,3.78,3.97,3.83,-2.45,-2.39,-2.42
129.85,-6.12,-3.66,-6.14,-3.68,3.74,3.92,3.78,-2.38,-2.40,-2.46
131.15,-6.10,-3.61,-6.11,-3.63,3.69,3.87,3.74,-2.41,-2.42,-2.49
132.46,-6.10,-3.58,-6.14,-3.63,3.65,3.82,3.70,-2.45,-2.49,-2.52
133.79,-6.24,-3.69,-6.23,-3.68,3.62,3.77,3.65,-2.62,-2.61,-2.55
135.12,-6.32,-3.72,-6.26,-3.68,3.58,3.73,3.61,-2.74,-2.68,-2.60
136.48,-6.27,-3.64,-6.24,-3.62,3.55,3.68,3.57,-2.72,-2.70,-2.63
137.84,-6.12,-3.46,-6.16,-3.50,3.52,3.63,3.52,-2.60,-2.65,-2.66
139.22,-6.10,-3.39,-6.11,-3.40,3.49,3.59,3.48,-2.61,-2.62,-2.71
140.61,-6.10,-3.34,-6.14,-3.40,3.46,3.54,3.44,-2.64,-2.68,-2.76
142.02,-6.21,-3.43,-6.18,-3.39,3.43,3.50,3.39,-2.78,-2.74,-2.78
143.44,-6.28,-3.46,-6.20,-3.39,3.40,3.45,3.35,-2.88,-2.80,-2.82
144.87,-6.14,-3.28,-6.24,-3.38,3.37,3.41,3.31,-2.77,-2.87,-2.86
146.32,-6.26,-3.35,-6.27,-3.37,3.33,3.37,3.27,-2.93,-2.94,-2.91
147.78,-6.33,-3.38,-6.29,-3.34,3.28,3.32,3.23,-3.05,-3.01,-2.95
149.26,-6.33,-3.31,-6.30,-3.29,3.21,3.28,3.19,-3.12,-3.10,-3.02
150.75,-6.23,-3.13,-6.24,-3.15,3.12,3.24,3.15,-3.11,-3.12,-3.10
152.26,-6.14,-2.97,-6.16,-2.99,3.01,3.20,3.11,-3.13,-3.15,-3.17
153.78,-6.10,-2.86,-6.11,-2.86,2.90,3.16,3.08,-3.20,-3.21,-3.24
155.32,-6.10,-2.76,-6.09,-2.77,2.80,3.13,3.04,-3.30,-3.30,-3.34
156.88,-6.10,-2.69,-6.10,-2.69,2.71,3.09,3.01,-3.39,-3.39,-3.40
158.44,-6.10,-2.62,-6.09,-2.60,2.64,3.05,2.98,-3.46,-3.45,-3.48
160.03,-6.10,-2.54,-6.10,-2.55,2.59,3.02,2.95,-3.51,-3.51,-3.56
161.63,-6.10,-2.48,-6.15,-2.54,2.56,2.98,2.92,-3.54,-3.59,-3.62
163.24,-6.24,-2.57,-6.22,-2.56,2.55,2.95,2.90,-3.69,-3.67,-3.67
164.88,-6.33,-2.62,-6.29,-2.58,2.55,2.91,2.87,-3.78,-3.75,-3.71
166.53,-6.33,-2.58,-6.34,-2.59,2.54,2.88,2.85,-3.79,-3.79,-3.75
168.19,-6.33,-2.55,-6.34,-2.57,2.55,2.85,2.83,-3.78,-3.79,-3.78
169.87,-6.33,-2.54,-6.33,-2.54,2.55,2.82,2.81,-3.78,-3.78,-3.79
171.57,-6.33,-2.53,-6.33,-2.54,2.55,2.79,2.80,-3.78,-3.78,-3.80
173.29,-6.33,-2.53,-6.33,-2.54,2.55,2.76,2.78,-3.78,-3.78,-3.80
175.02,-6.33,-2.55,-6.33,-2.54,2.55,2.73,2.77,-3.78,-3.78,-3.78
176.77,-6.33,-2.54,-6.33,-2.55,2.55,2.70,2.76,-3.78,-3.78,-3.79
178.54,-6.33,-2.55,-6.33,-2.56,2.55,2.68,2.75,-3.78,-3.78,-3.78
180.32,-6.33,-2.56,-6.33,-2.56,2.56,2.65,2.74,-3.77,-3.77,-3.77
182.13,-6.33,-2.56,-6.33,-2.57,2.56,2.62,2.74,-3.77,-3.77,-3.77
183.95,-6.33,-2.56,-6.33,-2.56,2.55,2.60,2.73,-3.78,-3.78,-3.77
185.79,-6.33,-2.55,-6.33,-2.55,2.54,2.58,2.73,-3.78,-3.78,-3.78
187.65,-6.33,-2.53,-6.33,-2.54,2.53,2.55,2.73,-3.80,-3.80,-3.80
189.52,-6.33,-2.51,-6.33,-2.51,2.52,2.53,2.73,-3.81,-3.81,-3.82
191.42,-6.33,-2.49,-6.33,-2.50,2.50,2.51,2.74,-3.83,-3.83,-3.84
193.33,-6.33,-2.47,-6.33,-2.48,2.49,2.49,2.74,-3.84,-3.84,-3.86
195.27,-6.33,-2.47,-6.33,-2.46,2.46,2.48,2.75,-3.86,-3.86,-3.86
197.22,-6.33,-2.45,-6.33,-2.45,2.44,2.46,2.76,-3.89,-3.89,-3.88
199.19,-6.33,-2.41,-6.33,-2.43,2.42,2.44,2.76,-3.91,-3.91,-3.92
201.18,-6.33,-2.41,-6.33,-2.41,2.39,2.43,2.77,-3.94,-3.94,-3.92
203.19,-6.33,-2.39,-6.33,-2.39,2.38,2.41,2.79,-3.95,-3.95,-3.94
205.23,-6.33,-2.36,-6.33,-2.38,2.38,2.40,2.80,-3.95,-3.95,-3.97
207.28,-6.33,-2.36,-6.31,-2.34,2.38,2.39,2.81,-3.95,-3.93,-3.97
209.35,-6.33,-2.34,-6.33,-2.34,2.40,2.38,2.82,-3.93,-3.93,-3.99
211.44,-6.33,-2.31,-6.39,-2.38,2.41,2.37,2.84,-3.92,-3.97,-4.02
213.56,-6.49,-2.47,-6.46,-2.44,2.43,2.36,2.85,-4.06,-4.03,-4.02
215.69,-6.56,-2.54,-6.53,-2.50,2.45,2.36,2.86,-4.10,-4.07,-4.02
217.85,-6.56,-2.51,-6.57,-2.53,2.47,2.35,2.88,-4.09,-4.10,-4.05
220.03,-6.56,-2.50,-6.57,-2.51,2.49,2.35,2.89,-4.07,-4.08,-4.06
222.23,-6.56,-2.48,-6.56,-2.49,2.50,2.35,2.90,-4.06,-4.06,-4.08
224.45,-6.56,-2.48,-6.56,-2.48,2.50,2.34,2.92,-4.06,-4.06,-4.08
226.70,-6.56,-2.48,-6.56,-2.48,2.49,2.34,2.93,-4.07,-4.07,-4.08
228.96,-6.56,-2.47,-6.56,-2.48,2.48,2.35,2.94,-4.08,-4.08,-4.09
231.25,-6.56,-2.47,-6.56,-2.47,2.47,2.35,2.94,-4.09,-4.09,-4.09
233.57,-6.56,-2.46,-6.56,-2.46,2.46,2.36,2.95,-4.10,-4.10,-4.10
235.90,-6.56,-2.45,-6.56,-2.46,2.46,2.36,2.95,-4.10,-4.10,-4.11
238.26,-6.56,-2.45,-6.56,-2.45,2.46,2.37,2.96,-4.10,-4.10,-4.11
240.64,-6.56,-2.45,-6.56,-2.46,2.46,2.38,2.96,-4.10,-4.10,-4.11
243.05,-6.56,-2.46,-6.56,-2.47,2.46,2.39,2.95,-4.10,-4.10,-4.10
245.48,-6.56,-2.47,-6.56,-2.47,2.47,2.41,2.95,-4.09,-4.09,-4.09
247.93,-6.56,-2.48,-6.56,-2.48,2.47,2.42,2.94,-4.09,-4.09,-4.08
250.41,-6.56,-2.47,-6.56,-2.48,2.48,2.44,2.93,-4.08,-4.08,-4.09
252.92,-6.56,-2.48,-6.56,-2.49,2.48,2.46,2.92,-4.08,-4.08,-4.08
255.45,-6.56,-2.51,-6.56,-2.50,2.49,2.48,2.90,-4.07,-4.07,-4.05
258.00,-6.56,-2.51,-6.56,-2.51,2.50,2.50,2.89,-4.06,-4.06,-4.05
260.58,-6.56,-2.51,-6.55,-2.52,2.52,2.52,2.87,-4.04,-4.03,-4.05
263.19,-6.56,-2.53,-6.55,-2.52,2.56,2.55,2.84,-4.00,-3.99,-4.03
265.82,-6.56,-2.53,-6.58,-2.56,2.60,2.57,2.82,-3.96,-3.98,-4.03
268.48,-6.61,-2.61,-6.64,-2.63,2.66,2.60,2.79,-3.95,-3.98,-4.00
271.16,-6.74,-2.75,-6.71,-2.72,2.72,2.63,2.76,-4.02,-3.99,-3.99
273.87,-6.78,-2.80,-6.75,-2.78,2.79,2.66,2.73,-3.99,-3.96,-3.98
276.61,-6.78,-2.84,-6.80,-2.85,2.85,2.70,2.70,-3.93,-3.95,-3.94
279.38,-6.78,-2.85,-6.86,-2.94,2.90,2.73,2.67,-3.88,-3.95,-3.93
282.17,-6.95,-3.05,-6.89,-2.99,2.95,2.76,2.63,-4.00,-3.94,-3.90
284.99,-6.96,-3.09,-6.89,-3.02,2.99,2.80,2.60,-3.97,-3.90,-3.87
287.84,-6.79,-2.94,-6.86,-3.02,3.02,2.83,2.56,-3.77,-3.84,-3.85
290.72,-6.78,-2.97,-6.79,-2.98,3.03,2.87,2.53,-3.75,-3.76,-3.81
293.63,-6.78,-2.99,-6.76,-2.98,3.03,2.90,2.49,-3.75,-3.74,-3.79
296.57,-6.78,-3.02,-6.80,-3.04,3.01,2.93,2.45,-3.77,-3.78,-3.76
299.53,-6.78,-3.05,-6.77,-3.04,2.99,2.96,2.42,-3.79,-3.78,-3.73
302.53,-6.78,-3.06,-6.71,-3.01,2.97,3.00,2.38,-3.81,-3.74,-3.72
305.55,-6.59,-2.91,-6.64,-2.96,2.95,3.02,2.34,-3.64,-3.69,-3.68
308.61,-6.56,-2.90,-6.58,-2.92,2.95,3.05,2.31,-3.61,-3.63,-3.66
311.69,-6.56,-2.91,-6.54,-2.91,2.95,3.07,2.27,-3.61,-3.59,-3.65
314.81,-6.56,-2.94,-6.54,-2.92,2.97,3.09,2.24,-3.59,-3.58,-3.62
317.96,-6.56,-2.94,-6.57,-2.95,2.98,3.11,2.21,-3.58,-3.58,-3.62
321.14,-6.57,-2.94,-6.62,-3.01,3.02,3.12,2.18,-3.55,-3.60,-3.63
324.35,-6.73,-3.11,-6.69,-3.08,3.06,3.13,2.14,-3.67,-3.63,-3.62
327.59,-6.78,-3.17,-6.76,-3.15,3.12,3.13,2.11,-3.66,-3.64,-3.61
330.87,-6.78,-3.18,-6.79,-3.19,3.17,3.13,2.09,-3.61,-3.62,-3.60
334.18,-6.78,-3.18,-6.78,-3.19,3.21,3.12,2.06,-3.57,-3.58,-3.60
337.52,-6.78,-3.19,-6.78,-3.21,3.22,3.10,2.03,-3.56,-3.56,-3.59
340.90,-6.78,-3.22,-6.79,-3.22,3.21,3.09,2.01,-3.57,-3.58,-3.56
344.30,-6.78,-3.23,-6.77,-3.22,3.17,3.06,1.99,-3.61,-3.60,-3.55
347.75,-6.72,-3.18,-6.71,-3.19,3.11,3.03,1.97,-3.60,-3.60,-3.54
351.23,-6.60,-3.09,-6.60,-3.09,3.05,3.00,1.95,-3.55,-3.55,-3.51
354.74,-6.46,-2.97,-6.43,-2.95,2.97,2.96,1.93,-3.49,-3.46,-3.49
358.28,-6.24,-2.78,-6.27,-2.81,2.89,2.91,1.91,-3.35,-3.38,-3.46
361.87,-6.13,-2.69,-6.17,-2.73,2.80,2.86,1.90,-3.33,-3.37,-3.44
365.49,-6.10,-2.68,-6.09,-2.68,2.70,2.81,1.88,-3.40,-3.39,-3.42
369.14,-6.08,-2.68,-6.03,-2.64,2.61,2.75,1.87,-3.47,-3.42,-3.40
372.83,-5.93,-2.56,-5.94,-2.57,2.53,2.70,1.86,-3.40,-3.41,-3.37
376.56,-5.82,-2.47,-5.83,-2.49,2.45,2.63,1.85,-3.37,-3.38,-3.35
380.33,-5.68,-2.36,-5.71,-2.39,2.39,2.57,1.84,-3.29,-3.32,-3.32
384.13,-5.65,-2.35,-5.60,-2.30,2.33,2.51,1.83,-3.32,-3.27,-3.30
387.97,-5.49,-2.20,-5.51,-2.22,2.27,2.44,1.83,-3.22,-3.25,-3.29
391.85,-5.43,-2.14,-5.46,-2.18,2.20,2.37,1.82,-3.22,-3.25,-3.29
395.77,-5.42,-2.14,-5.42,-2.14,2.15,2.30,1.82,-3.27,-3.27,-3.28
399.73,-5.42,-2.15,-5.38,-2.12,2.09,2.24,1.82,-3.32,-3.29,-3.27
403.72,-5.33,-2.07,-5.32,-2.07,2.04,2.17,1.81,-3.29,-3.28,-3.26
407.76,-5.22,-1.97,-5.27,-2.02,1.99,2.10,1.81,-3.23,-3.28,-3.25
