frequency,raw,error,smoothed,error_smoothed,equalization,parametric_eq,fixed_band_eq,equalized_raw,equalized_smoothed,target
20.00,-5.32,-7.61,-5.32,-7.63,7.63,6.09,2.06,2.31,2.31,2.28
20.20,-5.23,-7.56,-5.23,-7.58,7.58,6.22,2.12,2.35,2.35,2.33
20.40,-5.14,-7.52,-5.15,-7.53,7.53,6.35,2.18,2.38,2.38,2.38
20.61,-5.06,-7.46,-5.06,-7.47,7.47,6.47,2.25,2.42,2.41,2.41
20.81,-4.96,-7.42,-4.97,-7.41,7.41,6.58,2.31,2.45,2.44,2.46
21.02,-4.87,-7.37,-4.88,-7.35,7.35,6.69,2.38,2.48,2.47,2.50
21.23,-4.79,-7.31,-4.79,-7.29,7.29,6.79,2.45,2.50,2.50,2.52
21.44,-4.71,-7.25,-4.71,-7.22,7.22,6.88,2.52,2.51,2.52,2.54
21.66,-4.62,-7.18,-4.62,-7.16,7.16,6.95,2.59,2.53,2.54,2.56
21.87,-4.54,-7.11,-4.53,-7.09,7.09,7.01,2.67,2.54,2.56,2.57
22.09,-4.45,-7.04,-4.44,-7.01,7.01,7.06,2.75,2.56,2.57,2.59
22.31,-4.35,-6.95,-4.35,-6.94,6.94,7.10,2.83,2.59,2.59,2.60
22.54,-4.27,-6.86,-4.27,-6.86,6.86,7.12,2.91,2.59,2.59,2.59
22.76,-4.16,-6.76,-4.18,-6.77,6.77,7.12,2.99,2.61,2.59,2.59
22.99,-4.06,-6.65,-4.09,-6.69,6.69,7.11,3.08,2.63,2.60,2.58
23.22,-3.99,-6.58,-4.01,-6.60,6.60,7.08,3.17,2.61,2.60,2.58
23.45,-3.91,-6.50,-3.92,-6.51,6.51,7.04,3.26,2.60,2.60,2.58
23.69,-3.84,-6.43,-3.83,-6.42,6.42,6.99,3.35,2.59,2.60,2.59
23.92,-3.75,-6.34,-3.73,-6.33,6.33,6.92,3.44,2.58,2.60,2.59
24.16,-3.66,-6.26,-3.64,-6.24,6.24,6.84,3.53,2.58,2.60,2.60
24.40,-3.57,-6.18,-3.55,-6.15,6.15,6.74,3.63,2.58,2.60,2.61
24.65,-3.47,-6.07,-3.46,-6.06,6.06,6.64,3.73,2.59,2.60,2.60
24.89,-3.37,-5.97,-3.38,-5.97,5.97,6.53,3.82,2.60,2.60,2.60
25.14,-3.28,-5.88,-3.29,-5.88,5.88,6.40,3.92,2.60,2.60,2.60
25.39,-3.18,-5.79,-3.20,-5.79,5.79,6.28,4.02,2.61,2.60,2.60
25.65,-3.09,-5.70,-3.10,-5.70,5.70,6.14,4.12,2.61,2.60,2.60
25.91,-3.00,-5.59,-3.01,-5.61,5.61,6.00,4.22,2.61,2.60,2.59
26.16,-2.91,-5.50,-2.92,-5.52,5.52,5.86,4.32,2.61,2.60,2.59
26.43,-2.84,-5.43,-2.83,-5.43,5.43,5.72,4.41,2.59,2.59,2.59
26.69,-2.75,-5.34,-2.75,-5.34,5.34,5.57,4.51,2.59,2.59,2.59
26.96,-2.67,-5.27,-2.67,-5.26,5.26,5.43,4.60,2.58,2.59,2.60
27.23,-2.58,-5.18,-2.59,-5.17,5.17,5.28,4.69,2.59,2.59,2.60
27.50,-2.49,-5.09,-2.50,-5.09,5.09,5.13,4.78,2.59,2.59,2.59
27.77,-2.40,-4.99,-2.42,-5.00,5.00,4.99,4.86,2.60,2.58,2.58
28.05,-2.31,-4.90,-2.33,-4.91,4.91,4.84,4.94,2.60,2.58,2.58
28.33,-2.25,-4.82,-2.25,-4.83,4.83,4.70,5.01,2.57,2.58,2.57
28.62,-2.18,-4.75,-2.16,-4.74,4.74,4.56,5.08,2.56,2.58,2.57
28.90,-2.12,-4.70,-2.08,-4.66,4.66,4.42,5.14,2.53,2.58,2.58
29.19,-2.02,-4.59,-1.99,-4.57,4.57,4.29,5.20,2.54,2.58,2.56
29.48,-1.91,-4.50,-1.90,-4.48,4.48,4.15,5.25,2.56,2.57,2.58
29.78,-1.79,-4.37,-1.82,-4.39,4.39,4.03,5.29,2.59,2.57,2.57
30.08,-1.69,-4.26,-1.73,-4.30,4.30,3.90,5.32,2.61,2.57,2.58
30.38,-1.62,-4.19,-1.64,-4.21,4.21,3.78,5.34,2.58,2.57,2.57
30.68,-1.56,-4.13,-1.56,-4.12,4.12,3.66,5.36,2.56,2.56,2.56
30.99,-1.49,-4.06,-1.48,-4.04,4.04,3.54,5.36,2.55,2.56,2.56
31.30,-1.40,-3.96,-1.41,-3.97,3.97,3.43,5.36,2.56,2.56,2.56
31.61,-1.31,-3.87,-1.33,-3.89,3.89,3.32,5.34,2.58,2.56,2.56
31.93,-1.23,-3.78,-1.26,-3.81,3.81,3.21,5.32,2.58,2.55,2.55
32.24,-1.15,-3.70,-1.18,-3.73,3.73,3.11,5.29,2.58,2.55,2.54
32.57,-1.08,-3.63,-1.11,-3.65,3.65,3.01,5.25,2.57,2.54,2.55
32.89,-1.01,-3.56,-1.03,-3.57,3.57,2.91,5.19,2.56,2.54,2.55
33.22,-0.97,-3.51,-0.96,-3.49,3.49,2.81,5.14,2.52,2.53,2.53
33.55,-0.93,-3.46,-0.88,-3.41,3.41,2.72,5.07,2.47,2.53,2.53
33.89,-0.90,-3.42,-0.80,-3.32,3.32,2.63,5.00,2.42,2.52,2.52
34.23,-0.79,-3.32,-0.72,-3.24,3.24,2.55,4.92,2.44,2.52,2.52
34.57,-0.64,-3.15,-0.64,-3.15,3.15,2.46,4.83,2.51,2.51,2.51
34.92,-0.51,-3.01,-0.56,-3.07,3.07,2.38,4.74,2.56,2.51,2.51
35.27,-0.42,-2.93,-0.48,-2.99,2.99,2.31,4.65,2.56,2.50,2.50
35.62,-0.36,-2.86,-0.40,-2.91,2.91,2.23,4.55,2.54,2.50,2.50
35.97,-0.30,-2.80,-0.33,-2.82,2.82,2.16,4.44,2.52,2.50,2.49
36.33,-0.23,-2.73,-0.25,-2.75,2.75,2.08,4.34,2.51,2.50,2.50
36.70,-0.16,-2.65,-0.17,-2.67,2.67,2.02,4.23,2.50,2.49,2.49
37.06,-0.09,-2.57,-0.09,-2.59,2.59,1.95,4.12,2.49,2.49,2.48
37.43,-0.03,-2.53,-0.02,-2.51,2.51,1.88,4.01,2.48,2.49,2.50
37.81,0.04,-2.46,0.06,-2.44,2.44,1.82,3.89,2.47,2.49,2.49
38.19,0.10,-2.39,0.12,-2.37,2.37,1.76,3.78,2.47,2.49,2.49
38.57,0.16,-2.34,0.17,-2.32,2.32,1.70,3.67,2.47,2.49,2.49
38.95,0.21,-2.29,0.23,-2.26,2.26,1.65,3.55,2.46,2.49,2.50
39.34,0.29,-2.20,0.29,-2.20,2.20,1.59,3.44,2.48,2.49,2.49
39.74,0.37,-2.12,0.35,-2.13,2.13,1.54,3.33,2.50,2.49,2.48
40.14,0.44,-2.05,0.42,-2.07,2.07,1.48,3.21,2.50,2.49,2.49
40.54,0.52,-1.97,0.47,-2.01,2.01,1.43,3.10,2.52,2.48,2.48
40.94,0.59,-1.89,0.53,-1.95,1.95,1.38,2.99,2.54,2.48,2.47
41.35,0.60,-1.87,0.58,-1.89,1.89,1.34,2.88,2.49,2.47,2.47
41.76,0.60,-1.86,0.63,-1.83,1.83,1.29,2.77,2.43,2.46,2.46
42.18,0.64,-1.83,0.68,-1.77,1.77,1.24,2.67,2.40,2.45,2.46
42.60,0.72,-1.73,0.74,-1.70,1.70,1.20,2.56,2.42,2.44,2.44
43.03,0.80,-1.64,0.79,-1.63,1.63,1.16,2.46,2.43,2.43,2.44
43.46,0.86,-1.57,0.85,-1.57,1.57,1.11,2.36,2.42,2.41,2.43
43.90,0.92,-1.48,0.90,-1.50,1.50,1.07,2.26,2.42,2.40,2.40
44.33,0.94,-1.44,0.95,-1.43,1.43,1.03,2.16,2.37,2.39,2.38
44.78,0.95,-1.42,1.01,-1.36,1.36,1.00,2.06,2.31,2.37,2.36
45.23,1.02,-1.34,1.07,-1.29,1.29,0.96,1.97,2.31,2.36,2.35
45.68,1.15,-1.19,1.13,-1.21,1.21,0.92,1.87,2.36,2.34,2.33
46.13,1.25,-1.06,1.19,-1.13,1.13,0.89,1.78,2.38,2.32,2.31
46.60,1.28,-1.03,1.25,-1.06,1.06,0.85,1.69,2.34,2.31,2.31
47.06,1.31,-0.98,1.30,-0.99,0.99,0.82,1.60,2.29,2.29,2.29
47.53,1.35,-0.93,1.35,-0.92,0.92,0.78,1.51,2.27,2.27,2.28
48.01,1.40,-0.88,1.40,-0.86,0.86,0.75,1.43,2.25,2.26,2.28
48.49,1.45,-0.81,1.44,-0.80,0.80,0.72,1.34,2.24,2.24,2.25
48.97,1.50,-0.73,1.49,-0.74,0.74,0.69,1.26,2.23,2.23,2.23
49.46,1.55,-0.66,1.53,-0.68,0.68,0.65,1.18,2.23,2.21,2.21
49.96,1.60,-0.59,1.57,-0.63,0.63,0.62,1.10,2.22,2.20,2.18
50.46,1.60,-0.58,1.60,-0.58,0.58,0.59,1.02,2.18,2.18,2.18
50.96,1.61,-0.56,1.62,-0.55,0.55,0.57,0.94,2.15,2.16,2.16
51.47,1.64,-0.50,1.64,-0.50,0.50,0.54,0.87,2.14,2.15,2.14
51.99,1.68,-0.45,1.68,-0.46,0.46,0.51,0.79,2.13,2.13,2.12
52.51,1.70,-0.42,1.70,-0.41,0.41,0.48,0.72,2.11,2.12,2.12
53.03,1.72,-0.39,1.73,-0.37,0.37,0.45,0.65,2.09,2.10,2.11
53.56,1.75,-0.34,1.76,-0.33,0.33,0.43,0.58,2.08,2.09,2.09
54.10,1.78,-0.30,1.78,-0.29,0.29,0.40,0.51,2.07,2.07,2.07
54.64,1.80,-0.26,1.80,-0.26,0.26,0.37,0.44,2.05,2.06,2.05
55.18,1.81,-0.24,1.82,-0.22,0.22,0.35,0.38,2.03,2.04,2.04
55.74,1.81,-0.22,1.84,-0.19,0.19,0.32,0.31,1.99,2.03,2.02
56.29,1.86,-0.16,1.86,-0.15,0.15,0.30,0.25,2.01,2.01,2.01
56.86,1.95,-0.05,1.88,-0.12,0.12,0.27,0.19,2.06,1.99,1.99
57.42,1.94,-0.02,1.89,-0.09,0.09,0.25,0.13,2.02,1.97,1.96
58.00,1.91,-0.04,1.90,-0.05,0.05,0.22,0.08,1.96,1.95,1.95
58.58,1.91,-0.03,1.91,-0.01,0.01,0.20,0.02,1.92,1.92,1.93
59.16,1.91,-0.00,1.92,0.02,-0.02,0.17,-0.03,1.88,1.89,1.91
59.76,1.91,0.02,1.93,0.06,-0.06,0.15,-0.08,1.84,1.86,1.88
60.35,1.91,0.07,1.93,0.10,-0.10,0.12,-0.13,1.81,1.83,1.84
60.96,1.91,0.11,1.92,0.13,-0.13,0.10,-0.18,1.78,1.79,1.80
61.57,1.91,0.15,1.92,0.17,-0.17,0.08,-0.23,1.73,1.75,1.75
62.18,1.91,0.20,1.93,0.22,-0.22,0.05,-0.27,1.69,1.71,1.70
62.80,1.91,0.25,1.92,0.26,-0.26,0.03,-0.32,1.65,1.66,1.66
63.43,1.91,0.30,1.91,0.29,-0.29,0.00,-0.36,1.61,1.61,1.61
64.07,1.91,0.35,1.89,0.33,-0.33,-0.02,-0.40,1.58,1.56,1.55
64.71,1.91,0.40,1.88,0.36,-0.36,-0.04,-0.44,1.54,1.51,1.50
65.35,1.87,0.41,1.85,0.39,-0.39,-0.07,-0.47,1.48,1.46,1.46
66.01,1.80,0.39,1.82,0.41,-0.41,-0.09,-0.51,1.38,1.41,1.41
66.67,1.77,0.41,1.79,0.43,-0.43,-0.12,-0.54,1.33,1.35,1.35
67.33,1.80,0.50,1.75,0.45,-0.45,-0.14,-0.57,1.35,1.30,1.30
68.01,1.89,0.64,1.71,0.46,-0.46,-0.16,-0.61,1.42,1.25,1.25
68.69,1.63,0.43,1.66,0.47,-0.47,-0.19,-0.64,1.16,1.19,1.19
69.37,1.50,0.36,1.59,0.46,-0.46,-0.21,-0.67,1.03,1.13,1.13
70.07,1.47,0.39,1.52,0.45,-0.45,-0.24,-0.70,1.02,1.07,1.07
70.77,1.42,0.39,1.45,0.44,-0.44,-0.26,-0.72,0.98,1.01,1.02
71.48,1.39,0.42,1.38,0.42,-0.42,-0.29,-0.75,0.96,0.95,0.96
72.19,1.35,0.45,1.30,0.41,-0.41,-0.31,-0.78,0.94,0.89,0.89
72.91,1.29,0.46,1.21,0.38,-0.38,-0.34,-0.81,0.90,0.83,0.83
73.64,1.20,0.43,1.13,0.36,-0.36,-0.36,-0.83,0.83,0.76,0.76
74.38,1.09,0.39,1.04,0.34,-0.34,-0.39,-0.86,0.75,0.70,0.70
75.12,0.97,0.33,0.96,0.33,-0.33,-0.42,-0.89,0.64,0.64,0.63
75.87,0.78,0.21,0.90,0.32,-0.32,-0.44,-0.92,0.45,0.58,0.57
76.63,0.76,0.25,0.84,0.33,-0.33,-0.47,-0.95,0.43,0.51,0.51
77.40,0.76,0.31,0.78,0.33,-0.33,-0.50,-0.97,0.43,0.45,0.45
78.17,0.74,0.36,0.73,0.34,-0.34,-0.52,-1.00,0.40,0.39,0.38
78.95,0.68,0.34,0.69,0.36,-0.36,-0.55,-1.03,0.32,0.33,0.34
79.74,0.54,0.26,0.65,0.37,-0.37,-0.58,-1.06,0.16,0.28,0.28
80.54,0.55,0.32,0.62,0.40,-0.40,-0.61,-1.09,0.15,0.22,0.22
81.35,0.61,0.45,0.58,0.42,-0.42,-0.64,-1.13,0.18,0.16,0.16
82.16,0.63,0.52,0.56,0.45,-0.45,-0.67,-1.16,0.18,0.11,0.10
82.98,0.60,0.54,0.53,0.48,-0.48,-0.70,-1.19,0.12,0.05,0.06
83.81,0.49,0.49,0.51,0.51,-0.51,-0.73,-1.23,-0.02,-0.01,-0.01
84.65,0.48,0.54,0.47,0.54,-0.54,-0.76,-1.26,-0.06,-0.06,-0.07
85.50,0.54,0.65,0.43,0.55,-0.55,-0.79,-1.30,-0.02,-0.12,-0.11
86.35,0.52,0.69,0.39,0.57,-0.57,-0.83,-1.34,-0.05,-0.18,-0.17
87.22,0.35,0.58,0.34,0.57,-0.57,-0.86,-1.38,-0.23,-0.24,-0.23
88.09,0.23,0.52,0.28,0.57,-0.57,-0.89,-1.42,-0.35,-0.30,-0.29
88.97,0.18,0.53,0.22,0.57,-0.57,-0.93,-1.46,-0.40,-0.36,-0.35
89.86,0.12,0.53,0.15,0.57,-0.57,-0.96,-1.51,-0.45,-0.42,-0.42
90.76,0.09,0.56,0.08,0.56,-0.56,-1.00,-1.55,-0.47,-0.47,-0.48
91.66,0.05,0.58,0.01,0.54,-0.54,-1.04,-1.59,-0.50,-0.53,-0.53
92.58,-0.03,0.57,-0.06,0.54,-0.54,-1.07,-1.64,-0.57,-0.59,-0.60
93.51,-0.10,0.56,-0.12,0.54,-0.54,-1.11,-1.69,-0.64,-0.65,-0.66
94.44,-0.16,0.55,-0.17,0.54,-0.54,-1.15,-1.74,-0.70,-0.71,-0.71
95.39,-0.25,0.52,-0.22,0.55,-0.55,-1.19,-1.79,-0.80,-0.77,-0.77
96.34,-0.33,0.50,-0.26,0.57,-0.57,-1.23,-1.84,-0.90,-0.83,-0.84
97.30,-0.30,0.59,-0.28,0.61,-0.61,-1.27,-1.89,-0.91,-0.89,-0.89
98.28,-0.23,0.71,-0.30,0.65,-0.65,-1.31,-1.94,-0.88,-0.95,-0.95
99.26,-0.31,0.69,-0.31,0.70,-0.70,-1.36,-2.00,-1.01,-1.00,-1.00
100.25,-0.36,0.70,-0.30,0.76,-0.76,-1.40,-2.05,-1.13,-1.06,-1.06
101.25,-0.35,0.77,-0.29,0.83,-0.83,-1.45,-2.10,-1.19,-1.12,-1.12
102.27,-0.25,0.92,-0.26,0.92,-0.92,-1.49,-2.16,-1.18,-1.18,-1.18
103.29,-0.20,1.04,-0.22,1.02,-1.02,-1.54,-2.21,-1.23,-1.24,-1.24
104.32,-0.15,1.14,-0.16,1.13,-1.13,-1.59,-2.27,-1.29,-1.30,-1.29
105.37,-0.11,1.24,-0.10,1.26,-1.26,-1.64,-2.32,-1.37,-1.36,-1.35
106.42,-0.06,1.34,-0.03,1.39,-1.39,-1.69,-2.37,-1.45,-1.42,-1.41
107.48,0.05,1.52,0.05,1.52,-1.52,-1.74,-2.43,-1.48,-1.48,-1.48
108.56,0.15,1.69,0.12,1.66,-1.66,-1.79,-2.48,-1.52,-1.54,-1.54
109.64,0.24,1.84,0.21,1.81,-1.81,-1.84,-2.53,-1.58,-1.60,-1.60
110.74,0.31,1.97,0.31,1.97,-1.97,-1.89,-2.58,-1.67,-1.67,-1.67
111.85,0.36,2.07,0.40,2.13,-2.13,-1.95,-2.62,-1.77,-1.73,-1.71
112.97,0.48,2.27,0.49,2.28,-2.28,-2.00,-2.67,-1.80,-1.79,-1.79
114.10,0.58,2.42,0.58,2.42,-2.42,-2.05,-2.71,-1.85,-1.85,-1.85
115.24,0.66,2.56,0.67,2.57,-2.57,-2.11,-2.75,-1.91,-1.90,-1.90
116.39,0.77,2.74,0.75,2.71,-2.71,-2.17,-2.79,-1.94,-1.96,-1.97
117.55,0.84,2.85,0.82,2.83,-2.83,-2.22,-2.82,-2.00,-2.01,-2.02
118.73,0.91,2.98,0.89,2.95,-2.95,-2.28,-2.85,-2.04,-2.06,-2.07
119.92,0.97,3.07,0.95,3.05,-3.05,-2.34,-2.88,-2.09,-2.11,-2.11
121.12,1.05,3.21,0.99,3.15,-3.15,-2.39,-2.90,-2.10,-2.15,-2.16
122.33,1.06,3.26,1.03,3.23,-3.23,-2.45,-2.92,-2.17,-2.20,-2.20
123.55,1.07,3.30,1.05,3.29,-3.29,-2.51,-2.94,-2.23,-2.24,-2.24
124.79,1.07,3.34,1.07,3.35,-3.35,-2.57,-2.95,-2.28,-2.28,-2.28
126.03,1.08,3.39,1.07,3.39,-3.39,-2.62,-2.95,-2.31,-2.32,-2.32
127.29,1.09,3.44,1.06,3.42,-3.42,-2.68,-2.96,-2.33,-2.36,-2.35
128.57,1.06,3.46,1.04,3.44,-3.44,-2.74,-2.95,-2.38,-2.40,-2.40
129.85,1.00,3.43,1.02,3.46,-3.46,-2.79,-2.95,-2.46,-2.44,-2.44
131.15,1.00,3.47,1.00,3.47,-3.47,-2.85,-2.94,-2.48,-2.47,-2.48
132.46,0.96,3.47,0.97,3.48,-3.48,-2.90,-2.93,-2.53,-2.51,-2.51
133.79,0.88,3.43,0.94,3.49,-3.49,-2.95,-2.91,-2.61,-2.55,-2.55
135.12,0.83,3.42,0.90,3.48,-3.48,-3.00,-2.89,-2.65,-2.59,-2.60
136.48,0.83,3.45,0.85,3.47,-3.47,-3.05,-2.87,-2.65,-2.62,-2.62
137.84,0.77,3.43,0.80,3.46,-3.46,-3.09,-2.84,-2.69,-2.66,-2.67
139.22,0.74,3.44,0.74,3.43,-3.43,-3.14,-2.81,-2.70,-2.70,-2.71
140.61,0.72,3.47,0.67,3.41,-3.41,-3.18,-2.79,-2.69,-2.73,-2.75
142.02,0.65,3.42,0.61,3.38,-3.38,-3.22,-2.75,-2.73,-2.77,-2.77
143.44,0.62,3.43,0.53,3.35,-3.35,-3.25,-2.72,-2.73,-2.82,-2.81
144.87,0.51,3.37,0.45,3.31,-3.31,-3.28,-2.69,-2.81,-2.86,-2.86
146.32,0.35,3.26,0.35,3.27,-3.27,-3.31,-2.65,-2.92,-2.92,-2.91
147.78,0.20,3.14,0.25,3.22,-3.22,-3.34,-2.62,-3.03,-2.97,-2.95
149.26,0.10,3.10,0.13,3.17,-3.17,-3.36,-2.58,-3.07,-3.04,-3.00
150.75,-0.02,3.05,0.00,3.10,-3.10,-3.38,-2.54,-3.13,-3.10,-3.08
152.26,-0.15,3.00,-0.16,3.01,-3.01,-3.39,-2.51,-3.17,-3.17,-3.15
153.78,-0.25,2.97,-0.34,2.91,-2.91,-3.40,-2.47,-3.16,-3.25,-3.23
155.32,-0.37,2.94,-0.53,2.79,-2.79,-3.41,-2.43,-3.17,-3.32,-3.31
156.88,-0.59,2.80,-0.72,2.68,-2.68,-3.41,-2.40,-3.28,-3.40,-3.39
158.44,-0.75,2.73,-0.89,2.59,-2.59,-3.41,-2.37,-3.35,-3.48,-3.48
160.03,-0.91,2.66,-1.03,2.52,-2.52,-3.40,-2.33,-3.43,-3.55,-3.57
161.63,-1.15,2.50,-1.15,2.47,-2.47,-3.39,-2.30,-3.63,-3.63,-3.65
163.24,-1.32,2.39,-1.24,2.45,-2.45,-3.38,-2.27,-3.78,-3.69,-3.72
164.88,-1.50,2.27,-1.30,2.45,-2.45,-3.36,-2.24,-3.95,-3.76,-3.77
166.53,-1.70,2.13,-1.34,2.47,-2.47,-3.34,-2.21,-4.17,-3.81,-3.83
168.19,-1.76,2.11,-1.35,2.50,-2.50,-3.32,-2.18,-4.27,-3.86,-3.87
169.87,-1.66,2.25,-1.34,2.55,-2.55,-3.29,-2.16,-4.21,-3.90,-3.92
171.57,-1.38,2.56,-1.31,2.62,-2.62,-3.26,-2.14,-4.00,-3.93,-3.94
173.29,-1.14,2.82,-1.25,2.70,-2.70,-3.23,-2.11,-3.85,-3.95,-3.96
175.02,-0.99,2.98,-1.18,2.80,-2.80,-3.19,-2.09,-3.79,-3.97,-3.97
176.77,-0.86,3.13,-1.10,2.89,-2.89,-3.16,-2.07,-3.75,-3.99,-3.99
178.54,-0.79,3.21,-1.01,2.99,-2.99,-3.12,-2.06,-3.78,-4.00,-4.00
180.32,-0.75,3.25,-0.92,3.09,-3.09,-3.07,-2.04,-3.84,-4.01,-4.00
182.13,-0.73,3.27,-0.84,3.18,-3.18,-3.03,-2.03,-3.91,-4.02,-4.00
183.95,-0.77,3.24,-0.78,3.25,-3.25,-2.99,-2.01,-4.03,-4.03,-4.02
185.79,-0.80,3.22,-0.74,3.30,-3.30,-2.94,-2.00,-4.11,-4.05,-4.02
187.65,-0.78,3.26,-0.74,3.32,-3.32,-2.89,-1.99,-4.10,-4.06,-4.05
189.52,-0.76,3.30,-0.77,3.31,-3.31,-2.85,-1.99,-4.07,-4.07,-4.06
191.42,-0.82,3.26,-0.81,3.28,-3.28,-2.80,-1.98,-4.10,-4.09,-4.09
193.33,-0.91,3.20,-0.87,3.24,-3.24,-2.75,-1.98,-4.15,-4.11,-4.11
195.27,-0.93,3.20,-0.93,3.20,-3.20,-2.70,-1.97,-4.13,-4.13,-4.13
197.22,-0.93,3.22,-0.99,3.16,-3.16,-2.65,-1.97,-4.10,-4.15,-4.15
199.19,-1.01,3.17,-1.05,3.12,-3.12,-2.60,-1.97,-4.14,-4.18,-4.19
201.18,-1.11,3.09,-1.12,3.08,-3.08,-2.55,-1.97,-4.19,-4.20,-4.21
203.19,-1.23,2.99,-1.19,3.04,-3.04,-2.50,-1.97,-4.27,-4.23,-4.23
205.23,-1.32,2.93,-1.26,2.99,-2.99,-2.45,-1.97,-4.31,-4.25,-4.25
207.28,-1.37,2.89,-1.34,2.93,-2.93,-2.40,-1.98,-4.31,-4.28,-4.26
209.35,-1.44,2.85,-1.42,2.87,-2.87,-2.36,-1.98,-4.32,-4.30,-4.29
211.44,-1.51,2.81,-1.51,2.81,-2.81,-2.31,-1.98,-4.32,-4.32,-4.33
213.56,-1.58,2.75,-1.60,2.74,-2.74,-2.26,-1.99,-4.32,-4.34,-4.33
215.69,-1.64,2.71,-1.68,2.67,-2.67,-2.22,-1.99,-4.32,-4.35,-4.35
217.85,-1.71,2.65,-1.77,2.60,-2.60,-2.17,-2.00,-4.31,-4.37,-4.37
220.03,-1.83,2.55,-1.86,2.52,-2.52,-2.13,-2.00,-4.36,-4.38,-4.38
222.23,-1.94,2.46,-1.94,2.45,-2.45,-2.08,-2.01,-4.40,-4.39,-4.41
224.45,-2.01,2.39,-2.01,2.38,-2.38,-2.04,-2.01,-4.40,-4.39,-4.40
226.70,-2.08,2.32,-2.09,2.31,-2.31,-2.00,-2.02,-4.39,-4.40,-4.40
228.96,-2.17,2.22,-2.16,2.23,-2.23,-1.96,-2.02,-4.41,-4.39,-4.40
231.25,-2.28,2.10,-2.23,2.16,-2.16,-1.92,-2.03,-4.44,-4.39,-4.39
233.57,-2.35,2.03,-2.30,2.08,-2.08,-1.88,-2.03,-4.43,-4.38,-4.38
235.90,-2.38,1.99,-2.37,2.00,-2.00,-1.85,-2.03,-4.39,-4.37,-4.37
238.26,-2.40,1.96,-2.43,1.93,-1.93,-1.81,-2.03,-4.33,-4.35,-4.36
240.64,-2.48,1.86,-2.48,1.86,-1.86,-1.78,-2.03,-4.35,-4.34,-4.34
243.05,-2.52,1.79,-2.52,1.80,-1.80,-1.74,-2.03,-4.32,-4.32,-4.32
245.48,-2.52,1.77,-2.56,1.74,-1.74,-1.71,-2.02,-4.26,-4.30,-4.30
247.93,-2.58,1.68,-2.60,1.68,-1.68,-1.68,-2.02,-4.27,-4.28,-4.27
250.41,-2.65,1.60,-2.63,1.63,-1.63,-1.65,-2.01,-4.28,-4.26,-4.25
252.92,-2.66,1.56,-2.66,1.57,-1.57,-1.62,-2.00,-4.23,-4.23,-4.22
255.45,-2.67,1.53,-2.69,1.52,-1.52,-1.59,-1.99,-4.19,-4.21,-4.20
258.00,-2.72,1.46,-2.72,1.47,-1.47,-1.56,-1.98,-4.20,-4.19,-4.18
260.58,-2.74,1.43,-2.74,1.42,-1.42,-1.53,-1.97,-4.17,-4.17,-4.17
263.19,-2.73,1.40,-2.77,1.38,-1.38,-1.51,-1.96,-4.11,-4.14,-4.14
265.82,-2.73,1.39,-2.79,1.33,-1.33,-1.48,-1.94,-4.06,-4.12,-4.13
268.48,-2.83,1.27,-2.81,1.28,-1.28,-1.46,-1.93,-4.12,-4.10,-4.10
271.16,-2.86,1.21,-2.83,1.25,-1.25,-1.44,-1.91,-4.11,-4.07,-4.07
273.87,-2.84,1.21,-2.83,1.22,-1.22,-1.42,-1.89,-4.06,-4.05,-4.06
276.61,-2.85,1.17,-2.83,1.19,-1.19,-1.39,-1.87,-4.05,-4.02,-4.02
279.38,-2.84,1.16,-2.83,1.17,-1.17,-1.37,-1.85,-4.01,-4.00,-4.00
282.17,-2.84,1.13,-2.83,1.14,-1.14,-1.36,-1.83,-3.99,-3.97,-3.98
284.99,-2.84,1.10,-2.83,1.12,-1.12,-1.34,-1.81,-3.96,-3.95,-3.94
287.84,-2.83,1.09,-2.82,1.10,-1.10,-1.32,-1.79,-3.93,-3.92,-3.93
290.72,-2.83,1.06,-2.81,1.08,-1.08,-1.30,-1.77,-3.91,-3.89,-3.89
293.63,-2.83,1.03,-2.80,1.06,-1.06,-1.29,-1.75,-3.90,-3.86,-3.87
296.57,-2.71,1.12,-2.79,1.05,-1.05,-1.27,-1.73,-3.76,-3.83,-3.83
299.53,-2.68,1.12,-2.77,1.04,-1.04,-1.26,-1.71,-3.72,-3.81,-3.81
302.53,-2.74,1.05,-2.76,1.02,-1.02,-1.24,-1.69,-3.76,-3.78,-3.79
305.55,-2.76,0.98,-2.76,1.00,-1.00,-1.23,-1.67,-3.77,-3.76,-3.75
308.61,-2.75,0.98,-2.75,0.98,-0.98,-1.22,-1.65,-3.74,-3.73,-3.73
311.69,-2.74,0.96,-2.75,0.96,-0.96,-1.21,-1.63,-3.71,-3.71,-3.70
314.81,-2.74,0.93,-2.75,0.94,-0.94,-1.20,-1.61,-3.69,-3.69,-3.68
317.96,-2.74,0.92,-2.74,0.93,-0.93,-1.19,-1.59,-3.67,-3.67,-3.66
321.14,-2.74,0.91,-2.74,0.91,-0.91,-1.18,-1.57,-3.66,-3.65,-3.66
324.35,-2.74,0.90,-2.73,0.90,-0.90,-1.17,-1.56,-3.65,-3.64,-3.64
327.59,-2.74,0.88,-2.73,0.89,-0.89,-1.17,-1.54,-3.63,-3.62,-3.62
330.87,-2.74,0.87,-2.73,0.88,-0.88,-1.16,-1.53,-3.62,-3.61,-3.62
334.18,-2.74,0.86,-2.72,0.87,-0.87,-1.15,-1.51,-3.62,-3.60,-3.60
337.52,-2.74,0.85,-2.72,0.87,-0.87,-1.15,-1.50,-3.62,-3.59,-3.59
340.90,-2.71,0.86,-2.71,0.88,-0.88,-1.14,-1.49,-3.59,-3.58,-3.58
344.30,-2.65,0.91,-2.69,0.88,-0.88,-1.14,-1.48,-3.54,-3.58,-3.57
347.75,-2.64,0.93,-2.68,0.89,-0.89,-1.14,-1.47,-3.53,-3.57,-3.57
351.23,-2.64,0.92,-2.67,0.90,-0.90,-1.13,-1.46,-3.54,-3.57,-3.56
354.74,-2.64,0.92,-2.65,0.91,-0.91,-1.13,-1.45,-3.55,-3.56,-3.57
358.28,-2.64,0.91,-2.63,0.93,-0.93,-1.13,-1.45,-3.57,-3.56,-3.56
361.87,-2.63,0.93,-2.61,0.95,-0.95,-1.13,-1.44,-3.58,-3.56,-3.56
365.49,-2.62,0.93,-2.59,0.97,-0.97,-1.13,-1.44,-3.59,-3.56,-3.55
369.14,-2.62,0.94,-2.57,0.99,-0.99,-1.13,-1.44,-3.61,-3.56,-3.57
372.83,-2.54,1.02,-2.55,1.01,-1.01,-1.13,-1.43,-3.56,-3.56,-3.57
376.56,-2.50,1.07,-2.53,1.04,-1.04,-1.13,-1.43,-3.54,-3.56,-3.57
380.33,-2.49,1.07,-2.51,1.06,-1.06,-1.13,-1.43,-3.55,-3.57,-3.56
384.13,-2.49,1.07,-2.49,1.09,-1.09,-1.14,-1.43,-3.58,-3.57,-3.56
387.97,-2.47,1.10,-2.46,1.11,-1.11,-1.14,-1.44,-3.59,-3.58,-3.57
391.85,-2.40,1.18,-2.44,1.14,-1.14,-1.14,-1.44,-3.54,-3.58,-3.59
395.77,-2.38,1.19,-2.42,1.17,-1.17,-1.15,-1.44,-3.55,-3.59,-3.58
399.73,-2.38,1.21,-2.40,1.19,-1.19,-1.15,-1.45,-3.58,-3.59,-3.59
403.72,-2.38,1.21,-2.38,1.22,-1.22,-1.16,-1.45,-3.61,-3.60,-3.59
407.76,-2.38,1.22,-2.36,1.25,-1.25,-1.16,-1.46,-3.63,-3.60,-3.60
411.84,-2.32,1.28,-2.34,1.27,-1.27,-1.17,-1.47,-3.59,-3.61,-3.60
415.96,-2.29,1.31,-2.32,1.29,-1.29,-1.18,-1.48,-3.58,-3.61,-3.61
420.12,-2.29,1.31,-2.30,1.31,-1.31,-1.19,-1.48,-3.61,-3.61,-3.61
424.32,-2.28,1.32,-2.26,1.34,-1.34,-1.19,-1.49,-3.62,-3.60,-3.61
428.56,-2.27,1.33,-2.23,1.36,-1.36,-1.20,-1.50,-3.64,-3.59,-3.60
432.85,-2.20,1.39,-2.19,1.39,-1.39,-1.21,-1.51,-3.59,-3.58,-3.59
437.18,-2.13,1.45,-2.14,1.42,-1.42,-1.22,-1.52,-3.55,-3.56,-3.58
441.55,-2.09,1.45,-2.08,1.45,-1.45,-1.23,-1.53,-3.54,-3.53,-3.54
445.96,-2.05,1.46,-2.02,1.48,-1.48,-1.25,-1.54,-3.53,-3.50,-3.51
450.42,-2.00,1.48,-1.96,1.50,-1.50,-1.26,-1.55,-3.51,-3.46,-3.48
454.93,-1.94,1.49,-1.89,1.53,-1.53,-1.27,-1.56,-3.47,-3.42,-3.44
459.48,-1.84,1.54,-1.83,1.54,-1.54,-1.28,-1.57,-3.39,-3.38,-3.39
464.07,-1.71,1.62,-1.77,1.56,-1.56,-1.30,-1.58,-3.28,-3.33,-3.34
468.71,-1.65,1.62,-1.70,1.58,-1.58,-1.31,-1.59,-3.24,-3.29,-3.28
473.40,-1.60,1.63,-1.64,1.60,-1.60,-1.33,-1.59,-3.20,-3.24,-3.24
478.13,-1.54,1.64,-1.58,1.61,-1.61,-1.34,-1.60,-3.15,-3.19,-3.18
