frequency,raw,error,smoothed,error_smoothed,equalization,parametric_eq,fixed_band_eq,equalized_raw,equalized_smoothed,target
20.00,-5.32,-6.47,-5.32,-6.47,6.46,6.20,1.62,1.14,1.14,1.15
20.20,-5.23,-6.43,-5.23,-6.43,6.43,6.14,1.67,1.19,1.19,1.20
20.40,-5.14,-6.39,-5.14,-6.38,6.39,6.08,1.72,1.24,1.25,1.25
20.61,-5.06,-6.33,-5.05,-6.34,6.34,6.01,1.78,1.29,1.29,1.27
20.81,-4.96,-6.29,-4.96,-6.29,6.29,5.95,1.83,1.33,1.33,1.33
21.02,-4.87,-6.24,-4.88,-6.24,6.24,5.89,1.89,1.37,1.36,1.37
21.23,-4.79,-6.18,-4.79,-6.18,6.18,5.82,1.94,1.39,1.39,1.39
21.44,-4.71,-6.12,-4.71,-6.12,6.12,5.76,2.00,1.40,1.41,1.41
21.66,-4.62,-6.05,-4.63,-6.05,6.05,5.69,2.06,1.42,1.42,1.43
21.87,-4.54,-5.98,-4.54,-5.98,5.97,5.63,2.13,1.43,1.43,1.44
22.09,-4.45,-5.91,-4.45,-5.90,5.89,5.56,2.19,1.44,1.44,1.46
22.31,-4.35,-5.82,-4.36,-5.82,5.81,5.50,2.26,1.46,1.45,1.47
22.54,-4.27,-5.73,-4.26,-5.72,5.72,5.43,2.32,1.46,1.46,1.47
22.76,-4.16,-5.63,-4.16,-5.63,5.64,5.36,2.39,1.47,1.47,1.47
22.99,-4.06,-5.52,-4.07,-5.53,5.55,5.29,2.46,1.49,1.48,1.46
23.22,-3.99,-5.45,-3.99,-5.45,5.46,5.23,2.54,1.47,1.47,1.46
23.45,-3.91,-5.37,-3.91,-5.37,5.38,5.16,2.61,1.46,1.46,1.46
23.69,-3.84,-5.30,-3.84,-5.30,5.29,5.09,2.69,1.46,1.46,1.47
23.92,-3.75,-5.22,-3.75,-5.22,5.21,5.02,2.76,1.45,1.45,1.47
24.16,-3.66,-5.13,-3.66,-5.13,5.12,4.95,2.84,1.46,1.46,1.47
24.40,-3.57,-5.05,-3.57,-5.04,5.03,4.88,2.92,1.46,1.46,1.48
24.65,-3.47,-4.94,-3.47,-4.94,4.94,4.81,3.00,1.47,1.47,1.47
24.89,-3.37,-4.84,-3.38,-4.84,4.85,4.74,3.08,1.47,1.47,1.47
25.14,-3.28,-4.75,-3.28,-4.75,4.75,4.66,3.16,1.47,1.47,1.47
25.39,-3.18,-4.66,-3.18,-4.66,4.66,4.59,3.24,1.48,1.47,1.48
25.65,-3.09,-4.57,-3.09,-4.56,4.57,4.52,3.33,1.47,1.48,1.48
25.91,-3.00,-4.46,-3.00,-4.47,4.48,4.45,3.41,1.48,1.48,1.47
26.16,-2.91,-4.38,-2.91,-4.38,4.39,4.37,3.49,1.48,1.47,1.47
26.43,-2.84,-4.30,-2.83,-4.30,4.30,4.30,3.57,1.46,1.47,1.47
26.69,-2.75,-4.22,-2.75,-4.22,4.21,4.23,3.65,1.46,1.46,1.47
26.96,-2.67,-4.14,-2.67,-4.14,4.12,4.15,3.72,1.45,1.45,1.47
27.23,-2.58,-4.05,-2.58,-4.05,4.04,4.08,3.80,1.45,1.46,1.47
27.50,-2.49,-3.96,-2.49,-3.96,3.96,4.00,3.87,1.46,1.47,1.47
27.77,-2.40,-3.86,-2.40,-3.86,3.88,3.93,3.94,1.48,1.48,1.46
28.05,-2.31,-3.77,-2.32,-3.77,3.80,3.85,4.00,1.48,1.47,1.46
28.33,-2.25,-3.70,-2.25,-3.70,3.71,3.78,4.06,1.46,1.46,1.45
28.62,-2.18,-3.63,-2.19,-3.64,3.62,3.70,4.12,1.44,1.43,1.45
28.90,-2.12,-3.58,-2.11,-3.56,3.53,3.62,4.17,1.41,1.42,1.46
29.19,-2.02,-3.47,-2.02,-3.47,3.44,3.55,4.21,1.42,1.42,1.45
29.48,-1.91,-3.37,-1.91,-3.36,3.36,3.47,4.25,1.44,1.45,1.46
29.78,-1.79,-3.24,-1.80,-3.25,3.27,3.39,4.28,1.47,1.47,1.45
30.08,-1.69,-3.14,-1.70,-3.15,3.18,3.32,4.30,1.49,1.48,1.46
30.38,-1.62,-3.07,-1.62,-3.07,3.09,3.24,4.32,1.46,1.46,1.45
30.68,-1.56,-3.01,-1.56,-3.00,3.00,3.16,4.32,1.43,1.44,1.45
30.99,-1.49,-2.94,-1.49,-2.93,2.91,3.08,4.32,1.41,1.42,1.45
31.30,-1.40,-2.84,-1.40,-2.84,2.82,3.01,4.31,1.42,1.42,1.44
31.61,-1.31,-2.75,-1.32,-2.75,2.74,2.93,4.30,1.43,1.43,1.44
31.93,-1.23,-2.66,-1.23,-2.66,2.67,2.85,4.27,1.45,1.44,1.44
32.24,-1.15,-2.58,-1.15,-2.58,2.61,2.77,4.24,1.45,1.46,1.43
32.57,-1.08,-2.51,-1.08,-2.51,2.54,2.69,4.19,1.45,1.46,1.43
32.89,-1.01,-2.44,-1.02,-2.44,2.47,2.62,4.15,1.45,1.45,1.43
33.22,-0.97,-2.39,-0.98,-2.40,2.39,2.54,4.09,1.42,1.41,1.42
33.55,-0.93,-2.35,-0.94,-2.35,2.31,2.46,4.03,1.38,1.37,1.42
33.89,-0.90,-2.31,-0.88,-2.29,2.23,2.38,3.95,1.33,1.35,1.41
34.23,-0.79,-2.20,-0.78,-2.18,2.14,2.30,3.88,1.35,1.36,1.41
34.57,-0.64,-2.04,-0.65,-2.05,2.05,2.22,3.80,1.41,1.40,1.40
34.92,-0.51,-1.90,-0.52,-1.92,1.96,2.15,3.71,1.45,1.43,1.40
35.27,-0.42,-1.81,-0.43,-1.82,1.86,2.07,3.62,1.44,1.43,1.39
35.62,-0.36,-1.75,-0.36,-1.74,1.77,1.99,3.52,1.40,1.41,1.39
35.97,-0.30,-1.69,-0.30,-1.68,1.68,1.91,3.42,1.38,1.38,1.39
36.33,-0.23,-1.62,-0.23,-1.61,1.60,1.83,3.32,1.37,1.37,1.39
36.70,-0.16,-1.54,-0.16,-1.54,1.53,1.76,3.22,1.37,1.37,1.38
37.06,-0.09,-1.47,-0.10,-1.48,1.47,1.68,3.11,1.38,1.38,1.38
37.43,-0.03,-1.42,-0.03,-1.41,1.42,1.60,3.00,1.38,1.39,1.39
37.81,0.04,-1.35,0.03,-1.35,1.36,1.53,2.90,1.39,1.39,1.39
38.19,0.10,-1.28,0.09,-1.29,1.29,1.45,2.78,1.39,1.38,1.38
38.57,0.16,-1.23,0.15,-1.23,1.22,1.37,2.67,1.38,1.37,1.39
38.95,0.21,-1.19,0.22,-1.17,1.15,1.30,2.56,1.36,1.37,1.40
39.34,0.29,-1.10,0.29,-1.10,1.08,1.22,2.45,1.37,1.37,1.39
39.74,0.37,-1.02,0.36,-1.03,1.02,1.15,2.34,1.39,1.38,1.39
40.14,0.44,-0.95,0.45,-0.94,0.96,1.08,2.23,1.40,1.41,1.39
40.54,0.52,-0.87,0.52,-0.87,0.90,1.00,2.11,1.42,1.42,1.39
40.94,0.59,-0.79,0.57,-0.81,0.84,0.93,2.00,1.43,1.41,1.38
41.35,0.60,-0.78,0.59,-0.78,0.79,0.86,1.89,1.38,1.38,1.38
41.76,0.60,-0.77,0.61,-0.76,0.73,0.79,1.78,1.32,1.34,1.37
42.18,0.64,-0.73,0.65,-0.71,0.67,0.72,1.68,1.31,1.32,1.37
42.60,0.72,-0.64,0.71,-0.64,0.62,0.65,1.57,1.34,1.33,1.36
43.03,0.80,-0.55,0.79,-0.56,0.57,0.58,1.46,1.36,1.36,1.35
43.46,0.86,-0.48,0.86,-0.47,0.51,0.51,1.35,1.36,1.37,1.34
43.90,0.92,-0.40,0.90,-0.41,0.43,0.44,1.25,1.35,1.33,1.32
44.33,0.94,-0.36,0.93,-0.37,0.35,0.38,1.14,1.29,1.28,1.30
44.78,0.95,-0.33,0.97,-0.31,0.27,0.31,1.04,1.22,1.24,1.28
45.23,1.02,-0.25,1.04,-0.22,0.20,0.25,0.94,1.21,1.24,1.27
45.68,1.15,-0.11,1.13,-0.12,0.13,0.19,0.84,1.27,1.26,1.26
46.13,1.25,0.01,1.22,-0.02,0.06,0.12,0.74,1.30,1.28,1.24
46.60,1.28,0.04,1.28,0.05,-0.01,0.06,0.64,1.26,1.27,1.24
47.06,1.31,0.09,1.32,0.10,-0.09,0.00,0.54,1.22,1.23,1.22
47.53,1.35,0.14,1.35,0.14,-0.16,-0.06,0.44,1.19,1.19,1.21
48.01,1.40,0.19,1.39,0.20,-0.22,-0.11,0.34,1.17,1.17,1.21
48.49,1.45,0.26,1.45,0.26,-0.28,-0.17,0.25,1.17,1.17,1.19
48.97,1.50,0.33,1.50,0.33,-0.33,-0.22,0.15,1.17,1.17,1.17
49.46,1.55,0.40,1.55,0.40,-0.38,-0.28,0.06,1.17,1.17,1.15
49.96,1.60,0.47,1.58,0.45,-0.43,-0.33,-0.03,1.17,1.15,1.13
50.46,1.60,0.48,1.60,0.49,-0.48,-0.38,-0.13,1.12,1.12,1.12
50.96,1.61,0.50,1.62,0.52,-0.52,-0.43,-0.22,1.08,1.10,1.11
51.47,1.64,0.55,1.64,0.55,-0.56,-0.48,-0.31,1.07,1.08,1.09
51.99,1.68,0.60,1.67,0.59,-0.60,-0.53,-0.39,1.08,1.07,1.08
52.51,1.70,0.63,1.70,0.63,-0.63,-0.57,-0.48,1.07,1.07,1.07
53.03,1.72,0.65,1.72,0.66,-0.66,-0.62,-0.57,1.06,1.06,1.07
53.56,1.75,0.70,1.75,0.70,-0.69,-0.66,-0.65,1.05,1.05,1.05
54.10,1.78,0.74,1.77,0.74,-0.73,-0.70,-0.73,1.04,1.04,1.04
54.64,1.80,0.78,1.79,0.77,-0.77,-0.74,-0.81,1.02,1.02,1.02
55.18,1.81,0.79,1.80,0.79,-0.81,-0.78,-0.89,0.99,0.98,1.02
55.74,1.81,0.81,1.83,0.83,-0.85,-0.82,-0.96,0.96,0.98,1.00
56.29,1.86,0.87,1.87,0.89,-0.88,-0.85,-1.04,0.97,0.99,0.99
56.86,1.95,0.97,1.91,0.94,-0.91,-0.89,-1.11,1.03,0.99,0.98
57.42,1.94,0.99,1.93,0.98,-0.94,-0.92,-1.17,0.99,0.99,0.95
58.00,1.91,0.97,1.93,0.99,-0.97,-0.95,-1.24,0.94,0.96,0.94
58.58,1.91,0.98,1.91,0.98,-0.99,-0.98,-1.30,0.91,0.91,0.93
59.16,1.91,1.00,1.90,1.00,-1.02,-1.01,-1.36,0.89,0.88,0.91
59.76,1.91,1.02,1.91,1.03,-1.04,-1.04,-1.41,0.86,0.86,0.89
60.35,1.91,1.06,1.91,1.06,-1.07,-1.07,-1.47,0.84,0.84,0.85
60.96,1.91,1.10,1.91,1.10,-1.10,-1.09,-1.51,0.80,0.80,0.81
61.57,1.91,1.14,1.91,1.14,-1.15,-1.12,-1.56,0.76,0.76,0.77
62.18,1.91,1.18,1.91,1.18,-1.18,-1.14,-1.60,0.72,0.72,0.73
62.80,1.91,1.23,1.91,1.23,-1.22,-1.16,-1.64,0.68,0.68,0.68
63.43,1.91,1.27,1.91,1.28,-1.26,-1.19,-1.67,0.64,0.65,0.64
64.07,1.91,1.32,1.91,1.32,-1.30,-1.21,-1.71,0.60,0.61,0.59
64.71,1.91,1.36,1.89,1.35,-1.34,-1.23,-1.74,0.56,0.55,0.55
65.35,1.87,1.36,1.85,1.35,-1.38,-1.25,-1.76,0.49,0.48,0.51
66.01,1.80,1.34,1.80,1.35,-1.39,-1.27,-1.78,0.40,0.41,0.46
66.67,1.77,1.36,1.81,1.41,-1.40,-1.29,-1.80,0.37,0.42,0.41
67.33,1.80,1.44,1.81,1.45,-1.40,-1.30,-1.82,0.40,0.42,0.36
68.01,1.89,1.57,1.76,1.45,-1.39,-1.32,-1.84,0.50,0.37,0.32
68.69,1.63,1.36,1.67,1.41,-1.38,-1.34,-1.85,0.25,0.29,0.27
69.37,1.50,1.28,1.55,1.33,-1.37,-1.35,-1.86,0.12,0.18,0.22
70.07,1.47,1.30,1.44,1.28,-1.37,-1.37,-1.87,0.10,0.08,0.17
70.77,1.42,1.30,1.42,1.30,-1.35,-1.38,-1.88,0.06,0.06,0.12
71.48,1.39,1.32,1.39,1.33,-1.33,-1.40,-1.88,0.06,0.06,0.07
72.19,1.35,1.35,1.34,1.34,-1.30,-1.41,-1.89,0.04,0.04,-0.00
72.91,1.29,1.35,1.28,1.34,-1.28,-1.43,-1.89,0.01,0.00,-0.06
73.64,1.20,1.31,1.20,1.32,-1.26,-1.44,-1.90,-0.06,-0.06,-0.11
74.38,1.09,1.26,1.07,1.25,-1.24,-1.46,-1.90,-0.15,-0.16,-0.17
75.12,0.97,1.20,0.94,1.17,-1.21,-1.47,-1.90,-0.25,-0.27,-0.23
75.87,0.78,1.07,0.83,1.12,-1.18,-1.49,-1.91,-0.40,-0.35,-0.29
76.63,0.76,1.10,0.77,1.11,-1.15,-1.50,-1.91,-0.39,-0.38,-0.34
77.40,0.76,1.15,0.74,1.14,-1.13,-1.52,-1.92,-0.37,-0.39,-0.39
78.17,0.74,1.19,0.71,1.16,-1.13,-1.53,-1.92,-0.39,-0.42,-0.45
78.95,0.68,1.17,0.64,1.14,-1.14,-1.55,-1.93,-0.47,-0.50,-0.49
79.74,0.54,1.08,0.59,1.13,-1.16,-1.56,-1.94,-0.63,-0.58,-0.54
80.54,0.55,1.14,0.57,1.16,-1.20,-1.58,-1.95,-0.65,-0.63,-0.59
81.35,0.61,1.25,0.59,1.23,-1.23,-1.59,-1.95,-0.63,-0.64,-0.64
82.16,0.63,1.32,0.60,1.29,-1.27,-1.61,-1.97,-0.64,-0.66,-0.69
82.98,0.60,1.33,0.57,1.31,-1.30,-1.63,-1.98,-0.70,-0.73,-0.73
83.81,0.49,1.27,0.53,1.31,-1.32,-1.64,-1.99,-0.84,-0.80,-0.78
84.65,0.48,1.31,0.52,1.35,-1.34,-1.66,-2.01,-0.86,-0.82,-0.83
85.50,0.54,1.41,0.50,1.38,-1.35,-1.68,-2.02,-0.81,-0.84,-0.87
86.35,0.52,1.44,0.46,1.39,-1.34,-1.69,-2.04,-0.82,-0.88,-0.92
87.22,0.35,1.32,0.37,1.35,-1.33,-1.71,-2.06,-0.98,-0.96,-0.97
88.09,0.23,1.25,0.26,1.28,-1.32,-1.73,-2.08,-1.09,-1.06,-1.02
88.97,0.18,1.26,0.17,1.25,-1.30,-1.75,-2.10,-1.13,-1.14,-1.08
89.86,0.12,1.25,0.12,1.26,-1.29,-1.77,-2.13,-1.17,-1.16,-1.13
90.76,0.09,1.27,0.08,1.27,-1.26,-1.79,-2.16,-1.17,-1.18,-1.18
91.66,0.05,1.28,0.03,1.27,-1.24,-1.81,-2.18,-1.19,-1.21,-1.23
92.58,-0.03,1.26,-0.03,1.27,-1.22,-1.83,-2.21,-1.26,-1.25,-1.29
93.51,-0.10,1.24,-0.10,1.24,-1.22,-1.85,-2.25,-1.32,-1.32,-1.34
94.44,-0.16,1.22,-0.18,1.20,-1.22,-1.87,-2.28,-1.38,-1.41,-1.38
95.39,-0.25,1.18,-0.26,1.18,-1.22,-1.89,-2.31,-1.47,-1.48,-1.43
96.34,-0.33,1.15,-0.29,1.20,-1.22,-1.91,-2.35,-1.55,-1.51,-1.48
97.30,-0.30,1.23,-0.29,1.24,-1.23,-1.94,-2.39,-1.54,-1.53,-1.53
98.28,-0.23,1.35,-0.30,1.29,-1.26,-1.96,-2.42,-1.49,-1.56,-1.58
99.26,-0.31,1.31,-0.31,1.31,-1.30,-1.98,-2.46,-1.61,-1.61,-1.62
100.25,-0.36,1.31,-0.33,1.34,-1.36,-2.00,-2.50,-1.72,-1.69,-1.67
101.25,-0.35,1.37,-0.33,1.39,-1.43,-2.03,-2.55,-1.78,-1.76,-1.72
102.27,-0.25,1.52,-0.28,1.50,-1.51,-2.05,-2.59,-1.76,-1.78,-1.77
103.29,-0.20,1.62,-0.21,1.61,-1.60,-2.07,-2.63,-1.80,-1.81,-1.82
104.32,-0.15,1.71,-0.16,1.71,-1.70,-2.10,-2.67,-1.85,-1.86,-1.86
105.37,-0.11,1.80,-0.11,1.80,-1.81,-2.12,-2.72,-1.93,-1.93,-1.91
106.42,-0.06,1.90,-0.04,1.92,-1.94,-2.14,-2.76,-2.00,-1.98,-1.96
107.48,0.05,2.07,0.04,2.06,-2.07,-2.17,-2.80,-2.02,-2.02,-2.02
108.56,0.15,2.22,0.14,2.22,-2.20,-2.19,-2.84,-2.06,-2.06,-2.07
109.64,0.24,2.36,0.23,2.35,-2.34,-2.21,-2.88,-2.10,-2.11,-2.12
110.74,0.31,2.49,0.30,2.48,-2.48,-2.24,-2.92,-2.17,-2.18,-2.18
111.85,0.36,2.58,0.38,2.61,-2.62,-2.26,-2.96,-2.27,-2.24,-2.22
112.97,0.48,2.76,0.47,2.75,-2.77,-2.28,-2.99,-2.29,-2.30,-2.28
114.10,0.58,2.91,0.57,2.90,-2.91,-2.31,-3.03,-2.34,-2.35,-2.33
115.24,0.66,3.04,0.67,3.06,-3.05,-2.33,-3.06,-2.39,-2.38,-2.38
116.39,0.77,3.20,0.76,3.19,-3.18,-2.35,-3.09,-2.41,-2.42,-2.43
117.55,0.84,3.31,0.83,3.31,-3.30,-2.37,-3.11,-2.47,-2.47,-2.47
118.73,0.91,3.42,0.91,3.43,-3.42,-2.40,-3.14,-2.51,-2.50,-2.51
119.92,0.97,3.51,0.98,3.52,-3.51,-2.42,-3.15,-2.55,-2.54,-2.54
121.12,1.05,3.63,1.03,3.61,-3.60,-2.44,-3.17,-2.55,-2.57,-2.58
122.33,1.06,3.67,1.06,3.67,-3.66,-2.46,-3.18,-2.61,-2.61,-2.61
123.55,1.07,3.71,1.07,3.72,-3.72,-2.48,-3.19,-2.65,-2.65,-2.64
124.79,1.07,3.74,1.07,3.75,-3.76,-2.50,-3.19,-2.69,-2.68,-2.67
126.03,1.08,3.78,1.08,3.78,-3.79,-2.52,-3.19,-2.71,-2.70,-2.70
127.29,1.09,3.81,1.07,3.80,-3.80,-2.54,-3.19,-2.72,-2.73,-2.72
128.57,1.06,3.82,1.05,3.81,-3.81,-2.56,-3.18,-2.75,-2.76,-2.76
129.85,1.00,3.79,1.02,3.82,-3.81,-2.57,-3.17,-2.81,-2.78,-2.79
131.15,1.00,3.82,0.98,3.81,-3.80,-2.59,-3.15,-2.81,-2.82,-2.82
132.46,0.96,3.81,0.93,3.79,-3.79,-2.61,-3.13,-2.84,-2.86,-2.85
133.79,0.88,3.76,0.89,3.78,-3.79,-2.62,-3.11,-2.91,-2.89,-2.88
135.12,0.83,3.74,0.84,3.75,-3.78,-2.64,-3.09,-2.95,-2.94,-2.91
136.48,0.83,3.76,0.80,3.74,-3.77,-2.65,-3.06,-2.95,-2.97,-2.93
137.84,0.77,3.74,0.78,3.75,-3.76,-2.67,-3.03,-3.00,-2.99,-2.97
139.22,0.74,3.74,0.74,3.74,-3.75,-2.68,-2.99,-3.01,-3.01,-3.00
140.61,0.72,3.75,0.70,3.74,-3.72,-2.69,-2.96,-3.01,-3.02,-3.03
142.02,0.65,3.70,0.67,3.73,-3.69,-2.70,-2.92,-3.04,-3.02,-3.05
143.44,0.62,3.70,0.60,3.69,-3.64,-2.71,-2.88,-3.02,-3.04,-3.08
144.87,0.51,3.63,0.49,3.61,-3.58,-2.72,-2.84,-3.08,-3.10,-3.12
146.32,0.35,3.51,0.36,3.52,-3.52,-2.73,-2.80,-3.18,-3.16,-3.16
147.78,0.20,3.39,0.22,3.42,-3.45,-2.74,-2.76,-3.26,-3.24,-3.19
149.26,0.10,3.34,0.08,3.33,-3.38,-2.74,-2.72,-3.29,-3.30,-3.24
150.75,-0.02,3.28,-0.03,3.28,-3.31,-2.75,-2.68,-3.34,-3.34,-3.30
152.26,-0.15,3.22,-0.13,3.24,-3.24,-2.76,-2.64,-3.39,-3.37,-3.37
153.78,-0.25,3.19,-0.26,3.18,-3.17,-2.76,-2.60,-3.42,-3.43,-3.44
155.32,-0.37,3.14,-0.41,3.11,-3.09,-2.76,-2.56,-3.46,-3.49,-3.51
156.88,-0.59,3.00,-0.56,3.03,-2.99,-2.77,-2.52,-3.59,-3.56,-3.59
158.44,-0.75,2.92,-0.75,2.93,-2.88,-2.77,-2.48,-3.63,-3.63,-3.67
160.03,-0.91,2.84,-0.94,2.81,-2.75,-2.77,-2.44,-3.66,-3.70,-3.75
161.63,-1.15,2.67,-1.13,2.70,-2.62,-2.77,-2.41,-3.78,-3.75,-3.82
163.24,-1.32,2.56,-1.33,2.55,-2.52,-2.77,-2.37,-3.84,-3.85,-3.88
164.88,-1.50,2.43,-1.54,2.40,-2.46,-2.76,-2.34,-3.96,-3.99,-3.93
166.53,-1.70,2.28,-1.69,2.30,-2.44,-2.76,-2.31,-4.15,-4.13,-3.98
168.19,-1.76,2.26,-1.73,2.30,-2.48,-2.76,-2.28,-4.25,-4.21,-4.02
169.87,-1.66,2.40,-1.62,2.44,-2.57,-2.75,-2.25,-4.23,-4.19,-4.06
171.57,-1.38,2.70,-1.41,2.67,-2.69,-2.75,-2.22,-4.08,-4.11,-4.08
173.29,-1.14,2.95,-1.18,2.92,-2.84,-2.74,-2.19,-3.98,-4.02,-4.09
175.02,-0.99,3.11,-0.99,3.12,-2.99,-2.73,-2.17,-3.98,-3.98,-4.10
176.77,-0.86,3.25,-0.87,3.25,-3.13,-2.73,-2.15,-4.00,-4.00,-4.11
178.54,-0.79,3.33,-0.79,3.33,-3.26,-2.72,-2.13,-4.05,-4.05,-4.12
180.32,-0.75,3.36,-0.75,3.37,-3.34,-2.71,-2.11,-4.09,-4.09,-4.11
182.13,-0.73,3.37,-0.75,3.36,-3.38,-2.70,-2.09,-4.11,-4.13,-4.10
183.95,-0.77,3.34,-0.77,3.34,-3.39,-2.69,-2.07,-4.16,-4.16,-4.11
185.79,-0.80,3.31,-0.78,3.34,-3.38,-2.67,-2.06,-4.18,-4.16,-4.11
187.65,-0.78,3.35,-0.78,3.35,-3.37,-2.66,-2.04,-4.15,-4.15,-4.13
189.52,-0.76,3.38,-0.80,3.35,-3.35,-2.65,-2.03,-4.12,-4.15,-4.14
191.42,-0.82,3.34,-0.83,3.33,-3.33,-2.63,-2.02,-4.16,-4.17,-4.16
193.33,-0.91,3.27,-0.88,3.31,-3.31,-2.62,-2.02,-4.22,-4.19,-4.18
195.27,-0.93,3.27,-0.92,3.28,-3.28,-2.60,-2.01,-4.21,-4.20,-4.20
197.22,-0.93,3.29,-0.96,3.26,-3.24,-2.59,-2.00,-4.17,-4.20,-4.22
199.19,-1.01,3.23,-1.02,3.23,-3.19,-2.57,-2.00,-4.20,-4.21,-4.24
201.18,-1.11,3.15,-1.12,3.15,-3.14,-2.55,-1.99,-4.25,-4.25,-4.26
203.19,-1.23,3.05,-1.22,3.06,-3.08,-2.53,-1.99,-4.31,-4.30,-4.28
205.23,-1.32,2.98,-1.31,2.99,-3.02,-2.51,-1.99,-4.35,-4.33,-4.30
207.28,-1.37,2.94,-1.38,2.94,-2.96,-2.49,-1.99,-4.34,-4.35,-4.31
209.35,-1.44,2.89,-1.45,2.89,-2.90,-2.47,-1.99,-4.35,-4.35,-4.33
211.44,-1.51,2.85,-1.51,2.85,-2.84,-2.45,-1.99,-4.36,-4.35,-4.36
213.56,-1.58,2.79,-1.58,2.80,-2.78,-2.43,-1.99,-4.36,-4.36,-4.37
215.69,-1.64,2.74,-1.65,2.74,-2.72,-2.40,-1.99,-4.36,-4.37,-4.38
217.85,-1.71,2.68,-1.73,2.66,-2.65,-2.38,-2.00,-4.37,-4.39,-4.39
220.03,-1.83,2.57,-1.83,2.58,-2.58,-2.36,-2.00,-4.41,-4.41,-4.40
222.23,-1.94,2.49,-1.93,2.50,-2.50,-2.33,-2.00,-4.44,-4.42,-4.43
224.45,-2.01,2.41,-2.01,2.41,-2.41,-2.30,-2.00,-4.42,-4.42,-4.42
226.70,-2.08,2.34,-2.10,2.33,-2.32,-2.28,-2.00,-4.41,-4.42,-4.42
228.96,-2.17,2.24,-2.18,2.23,-2.24,-2.25,-2.00,-4.41,-4.42,-4.41
231.25,-2.28,2.12,-2.27,2.13,-2.16,-2.22,-2.00,-4.44,-4.43,-4.40
233.57,-2.35,2.04,-2.34,2.06,-2.08,-2.19,-2.00,-4.43,-4.41,-4.39
235.90,-2.38,2.00,-2.39,2.00,-2.00,-2.16,-2.00,-4.39,-4.39,-4.38
238.26,-2.40,1.97,-2.43,1.94,-1.93,-2.12,-2.00,-4.34,-4.36,-4.37
240.64,-2.48,1.86,-2.47,1.88,-1.86,-2.09,-1.99,-4.35,-4.33,-4.34
243.05,-2.52,1.79,-2.50,1.81,-1.80,-2.05,-1.99,-4.32,-4.30,-4.31
245.48,-2.52,1.77,-2.55,1.74,-1.74,-2.02,-1.98,-4.26,-4.29,-4.29
247.93,-2.58,1.68,-2.59,1.68,-1.68,-1.98,-1.97,-4.26,-4.27,-4.26
250.41,-2.65,1.59,-2.63,1.62,-1.62,-1.94,-1.96,-4.28,-4.25,-4.24
252.92,-2.66,1.55,-2.67,1.55,-1.57,-1.90,-1.95,-4.23,-4.23,-4.21
255.45,-2.67,1.52,-2.70,1.50,-1.51,-1.85,-1.94,-4.19,-4.21,-4.19
258.00,-2.72,1.45,-2.71,1.46,-1.46,-1.81,-1.92,-4.19,-4.18,-4.17
260.58,-2.74,1.41,-2.72,1.43,-1.41,-1.76,-1.91,-4.15,-4.13,-4.15
263.19,-2.73,1.39,-2.74,1.39,-1.36,-1.71,-1.89,-4.10,-4.11,-4.12
265.82,-2.73,1.37,-2.77,1.33,-1.32,-1.66,-1.87,-4.05,-4.09,-4.10
268.48,-2.83,1.25,-2.81,1.27,-1.28,-1.60,-1.86,-4.11,-4.08,-4.08
271.16,-2.86,1.19,-2.84,1.21,-1.23,-1.55,-1.84,-4.10,-4.08,-4.05
273.87,-2.84,1.19,-2.86,1.17,-1.19,-1.49,-1.81,-4.04,-4.05,-4.03
276.61,-2.85,1.15,-2.85,1.15,-1.15,-1.42,-1.79,-4.01,-4.00,-4.00
279.38,-2.84,1.13,-2.85,1.13,-1.12,-1.36,-1.77,-3.96,-3.96,-3.97
282.17,-2.84,1.11,-2.84,1.10,-1.10,-1.29,-1.75,-3.94,-3.94,-3.95
284.99,-2.84,1.07,-2.84,1.08,-1.08,-1.23,-1.72,-3.93,-3.92,-3.91
287.84,-2.83,1.06,-2.85,1.04,-1.07,-1.16,-1.70,-3.91,-3.92,-3.89
290.72,-2.83,1.03,-2.83,1.03,-1.06,-1.09,-1.67,-3.90,-3.89,-3.86
293.63,-2.83,1.00,-2.79,1.05,-1.05,-1.03,-1.65,-3.88,-3.83,-3.83
296.57,-2.71,1.09,-2.74,1.06,-1.03,-0.97,-1.62,-3.75,-3.78,-3.80
299.53,-2.68,1.09,-2.72,1.06,-1.02,-0.91,-1.60,-3.70,-3.74,-3.77
302.53,-2.74,1.01,-2.72,1.03,-1.00,-0.86,-1.58,-3.74,-3.72,-3.75
305.55,-2.76,0.95,-2.75,0.97,-0.98,-0.82,-1.55,-3.74,-3.73,-3.71
308.61,-2.75,0.94,-2.76,0.93,-0.96,-0.79,-1.53,-3.71,-3.72,-3.69
311.69,-2.74,0.92,-2.75,0.92,-0.93,-0.77,-1.50,-3.68,-3.68,-3.66
314.81,-2.74,0.90,-2.74,0.90,-0.91,-0.75,-1.48,-3.65,-3.65,-3.64
317.96,-2.74,0.88,-2.74,0.88,-0.88,-0.75,-1.46,-3.62,-3.62,-3.62
321.14,-2.74,0.87,-2.74,0.87,-0.86,-0.76,-1.44,-3.60,-3.60,-3.61
324.35,-2.74,0.85,-2.74,0.85,-0.84,-0.78,-1.42,-3.59,-3.59,-3.59
327.59,-2.74,0.84,-2.74,0.84,-0.84,-0.80,-1.40,-3.58,-3.58,-3.58
330.87,-2.74,0.83,-2.75,0.82,-0.83,-0.83,-1.38,-3.57,-3.58,-3.57
334.18,-2.74,0.81,-2.75,0.81,-0.83,-0.86,-1.36,-3.57,-3.58,-3.55
337.52,-2.74,0.80,-2.73,0.81,-0.83,-0.90,-1.34,-3.58,-3.56,-3.54
340.90,-2.71,0.82,-2.70,0.83,-0.84,-0.94,-1.33,-3.55,-3.54,-3.53
344.30,-2.65,0.87,-2.67,0.85,-0.84,-0.97,-1.31,-3.50,-3.51,-3.52
347.75,-2.64,0.88,-2.65,0.88,-0.85,-1.01,-1.30,-3.49,-3.50,-3.52
351.23,-2.64,0.87,-2.64,0.88,-0.86,-1.04,-1.28,-3.50,-3.50,-3.51
354.74,-2.64,0.88,-2.64,0.88,-0.87,-1.08,-1.27,-3.51,-3.51,-3.52
358.28,-2.64,0.87,-2.64,0.88,-0.88,-1.11,-1.26,-3.53,-3.52,-3.51
361.87,-2.63,0.88,-2.64,0.87,-0.90,-1.14,-1.25,-3.53,-3.54,-3.51
365.49,-2.62,0.88,-2.63,0.88,-0.91,-1.16,-1.24,-3.53,-3.54,-3.50
369.14,-2.62,0.89,-2.60,0.92,-0.93,-1.19,-1.23,-3.55,-3.52,-3.51
372.83,-2.54,0.97,-2.56,0.96,-0.95,-1.21,-1.22,-3.50,-3.51,-3.51
376.56,-2.50,1.02,-2.52,1.00,-0.98,-1.23,-1.21,-3.48,-3.50,-3.52
380.33,-2.49,1.02,-2.50,1.02,-1.01,-1.25,-1.20,-3.51,-3.51,-3.51
384.13,-2.49,1.02,-2.48,1.04,-1.04,-1.26,-1.20,-3.54,-3.53,-3.51
387.97,-2.47,1.05,-2.46,1.07,-1.07,-1.28,-1.19,-3.55,-3.53,-3.52
391.85,-2.40,1.13,-2.42,1.11,-1.10,-1.29,-1.19,-3.50,-3.52,-3.53
395.77,-2.38,1.14,-2.39,1.14,-1.13,-1.31,-1.19,-3.51,-3.52,-3.52
399.73,-2.38,1.15,-2.38,1.15,-1.15,-1.32,-1.18,-3.53,-3.53,-3.53
403.72,-2.38,1.15,-2.38,1.16,-1.17,-1.33,-1.18,-3.55,-3.55,-3.53
407.76,-2.38,1.17,-2.36,1.19,-1.19,-1.34,-1.18,-3.58,-3.55,-3.55
411.84,-2.32,1.23,-2.33,1.22,-1.21,-1.34,-1.18,-3.54,-3.55,-3.55
415.96,-2.29,1.26,-2.31,1.25,-1.24,-1.35,-1.18,-3.53,-3.54,-3.55
420.12,-2.29,1.26,-2.29,1.26,-1.26,-1.36,-1.18,-3.55,-3.55,-3.55
424.32,-2.28,1.27,-2.28,1.27,-1.28,-1.37,-1.18,-3.57,-3.57,-3.55
428.56,-2.27,1.27,-2.25,1.29,-1.31,-1.37,-1.19,-3.58,-3.56,-3.54
432.85,-2.20,1.33,-2.21,1.33,-1.33,-1.38,-1.19,-3.53,-3.53,-3.53
437.18,-2.13,1.39,-2.15,1.37,-1.35,-1.38,-1.19,-3.49,-3.50,-3.52
441.55,-2.09,1.39,-2.09,1.40,-1.38,-1.39,-1.19,-3.47,-3.47,-3.48
445.96,-2.05,1.40,-2.05,1.40,-1.41,-1.39,-1.20,-3.46,-3.46,-3.45
450.42,-2.00,1.42,-2.01,1.41,-1.44,-1.40,-1.20,-3.45,-3.45,-3.42
454.93,-1.94,1.43,-1.93,1.45,-1.47,-1.40,-1.21,-3.42,-3.40,-3.37
459.48,-1.84,1.49,-1.83,1.50,-1.50,-1.41,-1.21,-3.35,-3.34,-3.33
464.07,-1.71,1.57,-1.74,1.54,-1.53,-1.41,-1.22,-3.24,-3.27,-3.28
468.71,-1.65,1.57,-1.65,1.58,-1.55,-1.42,-1.22,-3.20,-3.20,-3.22
473.40,-1.60,1.58,-1.59,1.59,-1.56,-1.42,-1.22,-3.17,-3.15,-3.18
