frequency,raw,error,smoothed,error_smoothed,equalization,parametric_eq,fixed_band_eq,equalized_raw,equalized_smoothed,target
20.00,-0.85,-9.39,-0.87,-9.41,9.44,7.62,2.90,8.59,8.56,8.54
20.20,-0.84,-9.41,-0.81,-9.38,9.39,7.78,2.98,8.55,8.57,8.57
20.40,-0.76,-9.36,-0.74,-9.34,9.33,7.95,3.06,8.57,8.59,8.60
20.61,-0.65,-9.27,-0.67,-9.29,9.27,8.10,3.15,8.62,8.61,8.62
20.81,-0.57,-9.22,-0.57,-9.22,9.21,8.25,3.23,8.64,8.64,8.65
21.02,-0.47,-9.15,-0.47,-9.15,9.14,8.39,3.32,8.67,8.67,8.68
21.23,-0.39,-9.08,-0.38,-9.07,9.07,8.53,3.42,8.68,8.69,8.69
21.44,-0.28,-8.98,-0.28,-8.98,8.99,8.64,3.51,8.71,8.71,8.70
21.66,-0.18,-8.89,-0.19,-8.90,8.90,8.75,3.61,8.72,8.71,8.71
21.87,-0.10,-8.81,-0.09,-8.81,8.81,8.84,3.71,8.71,8.72,8.71
22.09,0.00,-8.72,-0.00,-8.72,8.72,8.92,3.82,8.72,8.72,8.72
22.31,0.09,-8.63,0.09,-8.63,8.62,8.97,3.93,8.72,8.72,8.72
22.54,0.19,-8.53,0.19,-8.53,8.53,9.01,4.04,8.72,8.72,8.72
22.76,0.29,-8.43,0.28,-8.43,8.43,9.03,4.15,8.72,8.72,8.72
22.99,0.37,-8.34,0.38,-8.33,8.34,9.03,4.26,8.71,8.72,8.71
23.22,0.48,-8.23,0.47,-8.24,8.24,9.02,4.38,8.72,8.71,8.71
23.45,0.56,-8.15,0.56,-8.15,8.15,8.98,4.50,8.71,8.71,8.71
23.69,0.66,-8.05,0.66,-8.05,8.05,8.93,4.62,8.71,8.71,8.71
23.92,0.75,-7.96,0.75,-7.96,7.96,8.85,4.75,8.71,8.71,8.71
24.16,0.85,-7.86,0.85,-7.86,7.86,8.77,4.88,8.71,8.71,8.71
24.40,0.94,-7.77,0.94,-7.77,7.77,8.67,5.01,8.71,8.71,8.71
24.65,1.03,-7.67,1.03,-7.67,7.67,8.55,5.14,8.70,8.70,8.70
24.89,1.13,-7.57,1.13,-7.58,7.58,8.42,5.27,8.71,8.70,8.70
25.14,1.21,-7.49,1.22,-7.48,7.48,8.29,5.41,8.69,8.70,8.70
25.39,1.32,-7.38,1.31,-7.39,7.38,8.14,5.54,8.70,8.70,8.70
25.65,1.41,-7.29,1.41,-7.29,7.29,7.99,5.68,8.70,8.70,8.70
25.91,1.50,-7.19,1.51,-7.19,7.19,7.83,5.81,8.69,8.70,8.69
26.16,1.61,-7.08,1.60,-7.09,7.10,7.67,5.95,8.71,8.70,8.69
26.43,1.69,-7.00,1.69,-7.00,7.00,7.51,6.08,8.69,8.69,8.69
26.69,1.79,-6.90,1.78,-6.91,6.90,7.34,6.22,8.69,8.69,8.69
26.96,1.87,-6.82,1.88,-6.81,6.80,7.17,6.35,8.67,8.68,8.69
27.23,1.97,-6.71,1.97,-6.71,6.71,7.01,6.47,8.68,8.68,8.68
27.50,2.08,-6.60,2.07,-6.61,6.61,6.84,6.60,8.69,8.68,8.68
27.77,2.16,-6.51,2.16,-6.51,6.51,6.68,6.71,8.67,8.68,8.67
28.05,2.26,-6.41,2.26,-6.41,6.41,6.52,6.83,8.67,8.67,8.67
28.33,2.34,-6.32,2.35,-6.32,6.32,6.36,6.93,8.66,8.66,8.66
28.62,2.45,-6.21,2.44,-6.22,6.22,6.20,7.03,8.67,8.66,8.66
28.90,2.53,-6.13,2.53,-6.12,6.12,6.05,7.12,8.65,8.65,8.66
29.19,2.63,-6.02,2.63,-6.03,6.03,5.90,7.20,8.66,8.65,8.65
29.48,2.71,-5.94,2.72,-5.93,5.93,5.76,7.26,8.64,8.65,8.65
29.78,2.82,-5.82,2.81,-5.83,5.83,5.62,7.32,8.65,8.64,8.64
30.08,2.90,-5.74,2.90,-5.74,5.74,5.49,7.36,8.64,8.63,8.64
30.38,2.98,-5.65,2.99,-5.64,5.64,5.36,7.39,8.62,8.63,8.63
30.68,3.08,-5.55,3.08,-5.55,5.55,5.23,7.41,8.62,8.62,8.63
30.99,3.18,-5.44,3.17,-5.45,5.45,5.11,7.41,8.63,8.62,8.62
31.30,3.27,-5.34,3.27,-5.35,5.35,5.00,7.40,8.62,8.62,8.61
31.61,3.35,-5.26,3.36,-5.25,5.25,4.89,7.37,8.60,8.61,8.61
31.93,3.45,-5.15,3.44,-5.16,5.16,4.79,7.33,8.61,8.60,8.60
32.24,3.53,-5.06,3.53,-5.07,5.06,4.69,7.28,8.59,8.59,8.59
32.57,3.61,-4.98,3.62,-4.96,4.96,4.60,7.21,8.57,8.59,8.59
32.89,3.72,-4.86,3.71,-4.87,4.87,4.51,7.13,8.59,8.58,8.58
33.22,3.82,-4.75,3.80,-4.77,4.77,4.42,7.03,8.59,8.57,8.57
33.55,3.88,-4.69,3.90,-4.67,4.67,4.34,6.93,8.55,8.57,8.57
33.89,3.98,-4.58,3.98,-4.58,4.58,4.27,6.81,8.56,8.56,8.56
34.23,4.08,-4.47,4.07,-4.48,4.48,4.20,6.69,8.56,8.55,8.55
34.57,4.15,-4.39,4.16,-4.38,4.38,4.13,6.56,8.53,8.54,8.54
34.92,4.25,-4.28,4.24,-4.29,4.29,4.06,6.42,8.54,8.53,8.53
35.27,4.32,-4.20,4.33,-4.19,4.19,4.00,6.28,8.51,8.52,8.52
35.62,4.41,-4.10,4.41,-4.10,4.10,3.94,6.12,8.51,8.51,8.51
35.97,4.51,-3.99,4.50,-4.00,4.00,3.89,5.97,8.51,8.50,8.50
36.33,4.57,-3.92,4.59,-3.90,3.91,3.83,5.81,8.48,8.49,8.49
36.70,4.68,-3.80,4.67,-3.81,3.81,3.77,5.65,8.49,8.48,8.48
37.06,4.75,-3.72,4.76,-3.71,3.71,3.72,5.49,8.46,8.47,8.47
37.43,4.84,-3.62,4.84,-3.62,3.62,3.66,5.32,8.46,8.46,8.46
37.81,4.94,-3.51,4.93,-3.52,3.52,3.60,5.16,8.46,8.45,8.45
38.19,5.00,-3.44,5.01,-3.43,3.43,3.54,4.99,8.43,8.44,8.44
38.57,5.11,-3.32,5.10,-3.33,3.33,3.47,4.83,8.44,8.43,8.43
38.95,5.17,-3.25,5.18,-3.24,3.24,3.40,4.66,8.41,8.42,8.42
39.34,5.27,-3.13,5.26,-3.14,3.15,3.33,4.50,8.42,8.41,8.40
39.74,5.33,-3.06,5.33,-3.06,3.05,3.25,4.33,8.38,8.39,8.39
40.14,5.42,-2.96,5.42,-2.96,2.96,3.17,4.17,8.38,8.38,8.38
40.54,5.49,-2.88,5.50,-2.87,2.87,3.08,4.01,8.36,8.37,8.37
40.94,5.59,-2.77,5.58,-2.78,2.78,2.99,3.85,8.37,8.36,8.36
41.35,5.66,-2.69,5.66,-2.69,2.69,2.90,3.69,8.35,8.35,8.35
41.76,5.74,-2.60,5.74,-2.60,2.60,2.81,3.54,8.34,8.35,8.34
42.18,5.82,-2.51,5.82,-2.52,2.52,2.71,3.38,8.34,8.33,8.33
42.60,5.89,-2.43,5.89,-2.43,2.43,2.61,3.23,8.32,8.32,8.32
43.03,5.96,-2.35,5.96,-2.34,2.34,2.50,3.08,8.30,8.30,8.31
43.46,6.04,-2.25,6.03,-2.26,2.25,2.40,2.93,8.29,8.28,8.29
43.90,6.10,-2.17,6.11,-2.17,2.16,2.30,2.79,8.26,8.27,8.27
44.33,6.18,-2.07,6.18,-2.07,2.07,2.19,2.64,8.25,8.25,8.25
44.78,6.25,-1.98,6.25,-1.98,1.98,2.09,2.50,8.23,8.23,8.23
45.23,6.32,-1.89,6.32,-1.89,1.90,1.99,2.36,8.22,8.22,8.21
45.68,6.40,-1.80,6.39,-1.81,1.81,1.89,2.22,8.21,8.20,8.20
46.13,6.46,-1.72,6.46,-1.72,1.73,1.79,2.09,8.19,8.19,8.18
46.60,6.52,-1.65,6.53,-1.64,1.64,1.70,1.95,8.16,8.17,8.17
47.06,6.60,-1.55,6.59,-1.56,1.55,1.60,1.82,8.15,8.14,8.15
47.53,6.65,-1.48,6.65,-1.48,1.47,1.51,1.69,8.12,8.12,8.13
48.01,6.72,-1.40,6.72,-1.39,1.38,1.42,1.56,8.10,8.10,8.12
48.49,6.79,-1.30,6.79,-1.30,1.29,1.33,1.43,8.08,8.08,8.09
48.97,6.87,-1.19,6.86,-1.20,1.20,1.25,1.31,8.07,8.07,8.06
49.46,6.92,-1.11,6.93,-1.10,1.12,1.17,1.18,8.04,8.05,8.03
49.96,6.99,-1.01,6.99,-1.02,1.03,1.08,1.06,8.02,8.02,8.00
50.46,7.04,-0.94,7.04,-0.94,0.95,1.01,0.94,7.99,7.99,7.98
50.96,7.08,-0.88,7.08,-0.87,0.87,0.93,0.83,7.95,7.95,7.96
51.47,7.13,-0.80,7.13,-0.80,0.79,0.85,0.71,7.92,7.92,7.93
51.99,7.18,-0.73,7.18,-0.73,0.72,0.78,0.60,7.90,7.91,7.91
52.51,7.24,-0.65,7.24,-0.65,0.65,0.71,0.49,7.89,7.89,7.89
53.03,7.30,-0.57,7.29,-0.58,0.58,0.64,0.38,7.88,7.87,7.87
53.56,7.33,-0.51,7.34,-0.51,0.51,0.57,0.27,7.84,7.85,7.84
54.10,7.38,-0.44,7.38,-0.44,0.44,0.50,0.17,7.82,7.82,7.82
54.64,7.41,-0.38,7.41,-0.38,0.37,0.44,0.07,7.78,7.79,7.79
55.18,7.46,-0.31,7.46,-0.31,0.31,0.37,-0.03,7.77,7.76,7.77
55.74,7.50,-0.24,7.50,-0.24,0.24,0.31,-0.13,7.74,7.74,7.74
56.29,7.55,-0.17,7.54,-0.18,0.18,0.25,-0.22,7.73,7.73,7.72
56.86,7.58,-0.12,7.58,-0.12,0.12,0.19,-0.31,7.70,7.70,7.70
57.42,7.61,-0.06,7.61,-0.06,0.07,0.13,-0.40,7.68,7.68,7.67
58.00,7.64,-0.01,7.64,-0.01,0.01,0.07,-0.48,7.65,7.65,7.65
58.58,7.67,0.04,7.67,0.04,-0.04,0.01,-0.56,7.63,7.63,7.63
59.16,7.71,0.10,7.70,0.09,-0.09,-0.04,-0.63,7.62,7.61,7.61
59.76,7.72,0.13,7.73,0.14,-0.15,-0.10,-0.71,7.57,7.58,7.59
60.35,7.76,0.20,7.75,0.19,-0.20,-0.16,-0.77,7.56,7.56,7.56
60.96,7.76,0.23,7.77,0.24,-0.25,-0.21,-0.84,7.51,7.52,7.53
61.57,7.80,0.31,7.79,0.30,-0.30,-0.27,-0.90,7.50,7.50,7.49
62.18,7.80,0.34,7.81,0.35,-0.34,-0.32,-0.95,7.46,7.47,7.46
62.80,7.84,0.41,7.83,0.40,-0.39,-0.37,-1.00,7.45,7.44,7.43
63.43,7.84,0.44,7.84,0.44,-0.44,-0.43,-1.05,7.40,7.40,7.40
64.07,7.84,0.47,7.86,0.48,-0.48,-0.48,-1.10,7.36,7.38,7.37
64.71,7.88,0.53,7.87,0.52,-0.52,-0.53,-1.14,7.36,7.34,7.35
65.35,7.89,0.57,7.89,0.57,-0.57,-0.58,-1.17,7.32,7.32,7.32
66.01,7.89,0.60,7.90,0.61,-0.61,-0.63,-1.21,7.28,7.29,7.29
66.67,7.92,0.66,7.91,0.65,-0.66,-0.68,-1.23,7.26,7.26,7.26
67.33,7.93,0.70,7.93,0.70,-0.71,-0.74,-1.26,7.22,7.22,7.23
68.01,7.96,0.76,7.96,0.76,-0.76,-0.79,-1.29,7.20,7.20,7.20
68.69,7.97,0.80,7.98,0.81,-0.81,-0.84,-1.31,7.16,7.17,7.17
69.37,8.02,0.88,8.01,0.87,-0.86,-0.89,-1.33,7.16,7.15,7.14
70.07,8.02,0.91,8.03,0.92,-0.91,-0.94,-1.34,7.11,7.12,7.11
70.77,8.06,0.98,8.05,0.97,-0.97,-0.99,-1.36,7.09,7.08,7.08
71.48,8.06,1.01,8.06,1.01,-1.01,-1.04,-1.37,7.05,7.04,7.05
72.19,8.06,1.05,8.07,1.06,-1.06,-1.08,-1.38,7.00,7.01,7.01
72.91,8.08,1.10,8.08,1.10,-1.10,-1.13,-1.40,6.98,6.98,6.98
73.64,8.10,1.16,8.09,1.15,-1.14,-1.18,-1.41,6.96,6.95,6.94
74.38,8.10,1.19,8.10,1.19,-1.18,-1.23,-1.42,6.92,6.92,6.91
75.12,8.10,1.23,8.10,1.23,-1.22,-1.28,-1.42,6.88,6.88,6.87
75.87,8.10,1.26,8.10,1.25,-1.26,-1.33,-1.43,6.84,6.83,6.84
76.63,8.10,1.29,8.10,1.29,-1.30,-1.38,-1.44,6.80,6.80,6.81
77.40,8.10,1.32,8.11,1.34,-1.34,-1.42,-1.45,6.76,6.77,6.78
78.17,8.14,1.40,8.13,1.39,-1.38,-1.47,-1.46,6.76,6.75,6.74
78.95,8.15,1.44,8.14,1.43,-1.42,-1.52,-1.47,6.73,6.72,6.71
79.74,8.15,1.47,8.15,1.47,-1.47,-1.56,-1.48,6.68,6.68,6.68
80.54,8.15,1.51,8.15,1.51,-1.51,-1.61,-1.49,6.64,6.64,6.64
81.35,8.15,1.54,8.16,1.55,-1.56,-1.66,-1.51,6.59,6.60,6.61
82.16,8.18,1.61,8.17,1.60,-1.60,-1.70,-1.52,6.58,6.57,6.57
82.98,8.19,1.65,8.19,1.65,-1.65,-1.75,-1.53,6.54,6.54,6.54
83.81,8.19,1.69,8.21,1.71,-1.70,-1.79,-1.55,6.49,6.51,6.50
84.65,8.23,1.77,8.21,1.75,-1.75,-1.83,-1.57,6.48,6.46,6.46
85.50,8.23,1.80,8.23,1.80,-1.80,-1.88,-1.59,6.43,6.43,6.43
86.35,8.23,1.84,8.25,1.86,-1.86,-1.92,-1.61,6.37,6.39,6.39
87.22,8.28,1.93,8.26,1.91,-1.92,-1.96,-1.63,6.36,6.34,6.35
88.09,8.28,1.97,8.28,1.97,-1.97,-2.00,-1.65,6.31,6.31,6.31
88.97,8.28,2.01,8.30,2.03,-2.02,-2.04,-1.67,6.26,6.27,6.27
89.86,8.32,2.09,8.31,2.08,-2.08,-2.08,-1.70,6.24,6.23,6.23
90.76,8.32,2.14,8.32,2.13,-2.13,-2.12,-1.73,6.19,6.19,6.18
91.66,8.32,2.18,8.32,2.19,-2.18,-2.16,-1.75,6.14,6.15,6.14
92.58,8.32,2.23,8.32,2.23,-2.23,-2.19,-1.78,6.09,6.09,6.09
93.51,8.32,2.27,8.32,2.27,-2.28,-2.23,-1.82,6.04,6.04,6.05
94.44,8.32,2.31,8.32,2.31,-2.32,-2.26,-1.85,6.00,6.00,6.01
95.39,8.32,2.36,8.32,2.36,-2.37,-2.29,-1.88,5.95,5.95,5.96
96.34,8.32,2.41,8.32,2.41,-2.41,-2.32,-1.92,5.91,5.91,5.91
97.30,8.32,2.46,8.32,2.46,-2.46,-2.35,-1.95,5.86,5.87,5.86
98.28,8.32,2.51,8.32,2.50,-2.50,-2.38,-1.99,5.82,5.82,5.81
99.26,8.32,2.55,8.31,2.54,-2.54,-2.41,-2.03,5.78,5.78,5.77
100.25,8.28,2.56,8.29,2.57,-2.57,-2.43,-2.07,5.71,5.72,5.72
101.25,8.28,2.61,8.27,2.60,-2.60,-2.46,-2.11,5.68,5.67,5.67
102.27,8.23,2.61,8.24,2.62,-2.63,-2.48,-2.15,5.60,5.62,5.62
103.29,8.23,2.66,8.22,2.65,-2.65,-2.50,-2.19,5.58,5.57,5.57
104.32,8.19,2.66,8.19,2.66,-2.67,-2.51,-2.23,5.52,5.52,5.53
105.37,8.16,2.68,8.17,2.69,-2.68,-2.53,-2.27,5.48,5.48,5.48
106.42,8.13,2.70,8.13,2.70,-2.70,-2.54,-2.31,5.43,5.43,5.43
107.48,8.10,2.72,8.09,2.71,-2.71,-2.56,-2.35,5.39,5.38,5.38
108.56,8.05,2.72,8.05,2.72,-2.72,-2.57,-2.38,5.33,5.33,5.33
109.64,8.00,2.72,8.00,2.72,-2.73,-2.58,-2.42,5.27,5.28,5.28
110.74,7.95,2.72,7.96,2.73,-2.73,-2.58,-2.46,5.22,5.23,5.23
111.85,7.91,2.73,7.91,2.73,-2.73,-2.59,-2.49,5.18,5.18,5.18
112.97,7.86,2.74,7.85,2.73,-2.73,-2.59,-2.52,5.13,5.12,5.12
114.10,7.79,2.72,7.79,2.73,-2.72,-2.59,-2.55,5.07,5.07,5.07
115.24,7.72,2.71,7.73,2.72,-2.72,-2.59,-2.58,5.00,5.01,5.01
116.39,7.67,2.71,7.66,2.70,-2.70,-2.58,-2.60,4.97,4.96,4.96
117.55,7.59,2.69,7.59,2.69,-2.69,-2.58,-2.62,4.90,4.91,4.90
118.73,7.52,2.67,7.52,2.67,-2.67,-2.57,-2.64,4.85,4.86,4.85
119.92,7.44,2.64,7.44,2.64,-2.64,-2.56,-2.65,4.80,4.80,4.80
121.12,7.37,2.62,7.36,2.61,-2.61,-2.55,-2.66,4.76,4.75,4.75
122.33,7.28,2.58,7.28,2.58,-2.58,-2.53,-2.67,4.70,4.70,4.70
123.55,7.19,2.54,7.20,2.55,-2.55,-2.52,-2.67,4.64,4.65,4.65
124.79,7.12,2.52,7.11,2.51,-2.52,-2.50,-2.67,4.60,4.60,4.60
126.03,7.02,2.47,7.03,2.48,-2.48,-2.48,-2.66,4.54,4.55,4.55
127.29,6.96,2.46,6.95,2.45,-2.45,-2.46,-2.65,4.51,4.50,4.50
128.57,6.85,2.41,6.86,2.42,-2.41,-2.44,-2.64,4.44,4.45,4.44
129.85,6.77,2.38,6.77,2.38,-2.38,-2.42,-2.62,4.39,4.39,4.39
131.15,6.69,2.35,6.68,2.34,-2.34,-2.39,-2.60,4.35,4.34,4.34
132.46,6.59,2.30,6.60,2.31,-2.31,-2.37,-2.57,4.28,4.29,4.29
133.79,6.53,2.28,6.52,2.27,-2.27,-2.34,-2.54,4.26,4.25,4.25
135.12,6.42,2.22,6.43,2.23,-2.23,-2.31,-2.51,4.18,4.20,4.20
136.48,6.36,2.20,6.35,2.20,-2.20,-2.28,-2.47,4.16,4.15,4.16
137.84,6.26,2.15,6.27,2.16,-2.16,-2.25,-2.43,4.10,4.11,4.11
139.22,6.20,2.14,6.19,2.13,-2.12,-2.22,-2.39,4.08,4.07,4.06
140.61,6.10,2.08,6.11,2.08,-2.08,-2.18,-2.34,4.02,4.03,4.02
142.02,6.04,2.05,6.03,2.05,-2.04,-2.15,-2.30,4.00,3.99,3.99
143.44,5.94,1.99,5.95,2.00,-2.00,-2.11,-2.25,3.94,3.95,3.95
144.87,5.88,1.97,5.87,1.96,-1.96,-2.08,-2.20,3.92,3.91,3.91
146.32,5.77,1.90,5.78,1.91,-1.91,-2.04,-2.15,3.86,3.87,3.87
147.78,5.71,1.87,5.70,1.87,-1.87,-2.00,-2.10,3.84,3.84,3.84
149.26,5.61,1.81,5.62,1.82,-1.82,-1.96,-2.05,3.79,3.80,3.80
150.75,5.55,1.79,5.54,1.77,-1.77,-1.93,-1.99,3.78,3.76,3.76
152.26,5.45,1.73,5.45,1.73,-1.73,-1.89,-1.94,3.72,3.72,3.72
153.78,5.34,1.66,5.36,1.68,-1.68,-1.85,-1.89,3.66,3.68,3.68
155.32,5.28,1.64,5.27,1.63,-1.64,-1.81,-1.83,3.64,3.63,3.64
156.88,5.18,1.58,5.19,1.59,-1.59,-1.77,-1.78,3.59,3.60,3.60
158.44,5.11,1.55,5.11,1.55,-1.54,-1.73,-1.73,3.57,3.56,3.56
160.03,5.02,1.50,5.02,1.50,-1.50,-1.69,-1.67,3.52,3.52,3.52
161.63,4.93,1.45,4.93,1.45,-1.45,-1.65,-1.62,3.48,3.49,3.48
163.24,4.85,1.41,4.84,1.40,-1.40,-1.61,-1.57,3.45,3.45,3.44
164.88,4.75,1.34,4.75,1.35,-1.35,-1.56,-1.52,3.40,3.41,3.41
166.53,4.66,1.29,4.66,1.29,-1.29,-1.52,-1.47,3.37,3.37,3.37
168.19,4.57,1.24,4.56,1.23,-1.23,-1.48,-1.42,3.34,3.33,3.33
169.87,4.46,1.17,4.47,1.18,-1.17,-1.44,-1.38,3.28,3.30,3.29
171.57,4.38,1.13,4.38,1.12,-1.12,-1.40,-1.33,3.26,3.26,3.25
173.29,4.28,1.06,4.27,1.06,-1.06,-1.36,-1.28,3.22,3.22,3.22
175.02,4.18,1.00,4.18,1.00,-1.00,-1.32,-1.24,3.18,3.18,3.18
176.77,4.07,0.93,4.08,0.94,-0.95,-1.28,-1.20,3.12,3.13,3.14
178.54,4.00,0.90,3.99,0.89,-0.90,-1.24,-1.15,3.10,3.10,3.10
180.32,3.91,0.85,3.91,0.85,-0.85,-1.19,-1.11,3.06,3.06,3.06
182.13,3.83,0.80,3.83,0.81,-0.80,-1.15,-1.07,3.03,3.03,3.03
183.95,3.76,0.77,3.76,0.77,-0.77,-1.11,-1.03,2.99,2.99,2.99
185.79,3.70,0.74,3.69,0.74,-0.74,-1.07,-0.99,2.96,2.96,2.96
187.65,3.63,0.71,3.63,0.71,-0.71,-1.03,-0.96,2.92,2.92,2.92
189.52,3.57,0.68,3.58,0.68,-0.69,-0.99,-0.92,2.88,2.88,2.89
191.42,3.53,0.67,3.53,0.67,-0.68,-0.95,-0.88,2.85,2.86,2.86
193.33,3.50,0.67,3.49,0.66,-0.67,-0.91,-0.85,2.83,2.83,2.83
195.27,3.47,0.67,3.46,0.67,-0.66,-0.87,-0.81,2.81,2.80,2.80
197.22,3.42,0.65,3.43,0.66,-0.66,-0.83,-0.78,2.76,2.77,2.77
199.19,3.42,0.68,3.41,0.66,-0.67,-0.79,-0.75,2.75,2.74,2.74
201.18,3.38,0.66,3.39,0.67,-0.67,-0.76,-0.72,2.71,2.72,2.72
203.19,3.38,0.68,3.38,0.68,-0.68,-0.72,-0.69,2.70,2.70,2.70
205.23,3.38,0.70,3.36,0.68,-0.68,-0.68,-0.65,2.70,2.68,2.68
207.28,3.34,0.67,3.35,0.69,-0.69,-0.64,-0.62,2.65,2.66,2.67
209.35,3.34,0.69,3.35,0.70,-0.69,-0.60,-0.59,2.65,2.65,2.65
211.44,3.34,0.71,3.33,0.70,-0.70,-0.56,-0.57,2.64,2.64,2.63
213.56,3.34,0.72,3.32,0.70,-0.70,-0.52,-0.54,2.64,2.63,2.62
215.69,3.29,0.67,3.31,0.69,-0.69,-0.49,-0.51,2.60,2.62,2.62
217.85,3.29,0.68,3.29,0.68,-0.68,-0.45,-0.48,2.61,2.61,2.61
220.03,3.28,0.68,3.27,0.67,-0.67,-0.41,-0.45,2.61,2.60,2.60
222.23,3.25,0.66,3.26,0.66,-0.65,-0.37,-0.42,2.60,2.60,2.59
224.45,3.23,0.64,3.23,0.64,-0.63,-0.34,-0.39,2.60,2.60,2.59
226.70,3.20,0.61,3.20,0.61,-0.61,-0.30,-0.36,2.59,2.59,2.59
228.96,3.16,0.57,3.17,0.57,-0.58,-0.26,-0.33,2.58,2.59,2.59
231.25,3.14,0.54,3.14,0.54,-0.55,-0.22,-0.30,2.59,2.59,2.60
233.57,3.11,0.51,3.11,0.51,-0.51,-0.19,-0.27,2.60,2.60,2.60
235.90,3.08,0.48,3.08,0.48,-0.48,-0.15,-0.24,2.60,2.60,2.60
238.26,3.05,0.44,3.05,0.44,-0.44,-0.11,-0.21,2.61,2.61,2.61
240.64,3.02,0.40,3.02,0.40,-0.40,-0.07,-0.18,2.62,2.62,2.62
243.05,2.99,0.36,2.99,0.36,-0.36,-0.04,-0.15,2.63,2.63,2.63
245.48,2.96,0.32,2.97,0.33,-0.33,0.00,-0.12,2.63,2.64,2.64
247.93,2.95,0.30,2.93,0.28,-0.28,0.04,-0.08,2.66,2.65,2.65
250.41,2.90,0.24,2.91,0.24,-0.24,0.08,-0.05,2.66,2.67,2.66
252.92,2.87,0.19,2.88,0.20,-0.20,0.11,-0.02,2.67,2.68,2.68
255.45,2.86,0.16,2.85,0.15,-0.15,0.15,0.02,2.71,2.70,2.70
258.00,2.82,0.11,2.82,0.11,-0.10,0.19,0.06,2.72,2.71,2.71
260.58,2.78,0.05,2.79,0.05,-0.05,0.23,0.09,2.73,2.73,2.73
263.19,2.75,-0.00,2.75,0.00,-0.00,0.27,0.13,2.75,2.75,2.75
265.82,2.72,-0.05,2.72,-0.05,0.05,0.30,0.17,2.77,2.77,2.77
268.48,2.69,-0.10,2.68,-0.11,0.11,0.34,0.21,2.80,2.79,2.79
271.16,2.64,-0.17,2.65,-0.16,0.16,0.38,0.25,2.80,2.81,2.81
273.87,2.61,-0.22,2.61,-0.22,0.22,0.42,0.29,2.83,2.83,2.83
276.61,2.58,-0.27,2.57,-0.28,0.28,0.46,0.34,2.86,2.85,2.85
279.38,2.53,-0.34,2.53,-0.34,0.34,0.50,0.38,2.87,2.87,2.87
282.17,2.49,-0.40,2.49,-0.40,0.40,0.54,0.43,2.89,2.89,2.89
284.99,2.45,-0.46,2.45,-0.46,0.46,0.58,0.47,2.91,2.91,2.91
287.84,2.41,-0.52,2.41,-0.52,0.52,0.62,0.52,2.93,2.93,2.93
290.72,2.36,-0.59,2.36,-0.59,0.58,0.66,0.57,2.94,2.95,2.95
293.63,2.32,-0.65,2.32,-0.65,0.65,0.71,0.61,2.97,2.97,2.97
296.57,2.28,-0.71,2.28,-0.71,0.71,0.75,0.66,2.99,2.99,2.99
299.53,2.23,-0.78,2.23,-0.78,0.78,0.79,0.71,3.01,3.01,3.01
302.53,2.19,-0.84,2.19,-0.84,0.84,0.84,0.77,3.03,3.03,3.03
305.55,2.15,-0.91,2.15,-0.91,0.91,0.88,0.82,3.06,3.06,3.06
308.61,2.10,-0.98,2.10,-0.98,0.99,0.92,0.87,3.09,3.09,3.08
311.69,2.06,-1.05,2.06,-1.05,1.06,0.97,0.93,3.12,3.12,3.11
314.81,2.01,-1.13,2.01,-1.13,1.13,1.02,0.98,3.14,3.14,3.14
317.96,1.95,-1.21,1.95,-1.21,1.21,1.06,1.04,3.16,3.16,3.16
321.14,1.89,-1.29,1.89,-1.29,1.28,1.11,1.10,3.17,3.17,3.18
324.35,1.84,-1.36,1.84,-1.36,1.35,1.16,1.16,3.19,3.19,3.20
327.59,1.80,-1.42,1.80,-1.42,1.42,1.21,1.22,3.22,3.22,3.22
330.87,1.75,-1.49,1.75,-1.49,1.49,1.26,1.28,3.24,3.24,3.24
334.18,1.70,-1.56,1.70,-1.56,1.56,1.31,1.34,3.26,3.26,3.26
337.52,1.65,-1.63,1.65,-1.63,1.63,1.37,1.40,3.28,3.28,3.28
340.90,1.60,-1.70,1.60,-1.70,1.70,1.42,1.47,3.30,3.30,3.30
344.30,1.55,-1.77,1.55,-1.77,1.77,1.48,1.53,3.32,3.32,3.32
347.75,1.50,-1.84,1.50,-1.84,1.84,1.54,1.60,3.34,3.34,3.34
351.23,1.45,-1.91,1.45,-1.91,1.91,1.59,1.67,3.36,3.36,3.36
354.74,1.40,-1.98,1.40,-1.98,1.98,1.65,1.74,3.38,3.38,3.38
358.28,1.34,-2.05,1.35,-2.05,2.04,1.72,1.81,3.38,3.39,3.39
361.87,1.31,-2.10,1.30,-2.11,2.11,1.78,1.88,3.42,3.41,3.41
365.49,1.25,-2.18,1.25,-2.17,2.17,1.84,1.96,3.42,3.42,3.43
369.14,1.21,-2.23,1.21,-2.23,2.23,1.91,2.03,3.44,3.44,3.44
372.83,1.17,-2.29,1.17,-2.29,2.29,1.98,2.11,3.45,3.45,3.46
376.56,1.13,-2.34,1.13,-2.34,2.34,2.05,2.19,3.47,3.47,3.47
380.33,1.10,-2.39,1.09,-2.39,2.39,2.12,2.27,3.49,3.49,3.49
384.13,1.05,-2.45,1.06,-2.44,2.45,2.20,2.35,3.50,3.50,3.50
387.97,1.02,-2.49,1.02,-2.50,2.50,2.27,2.43,3.52,3.52,3.51
391.85,0.97,-2.55,0.97,-2.55,2.56,2.35,2.51,3.53,3.53,3.52
395.77,0.93,-2.61,0.93,-2.61,2.61,2.43,2.59,3.54,3.54,3.54
399.73,0.88,-2.67,0.88,-2.67,2.66,2.51,2.67,3.54,3.55,3.55
403.72,0.84,-2.72,0.84,-2.72,2.72,2.60,2.76,3.56,3.56,3.56
407.76,0.80,-2.77,0.80,-2.77,2.77,2.68,2.84,3.57,3.57,3.57
411.84,0.75,-2.83,0.75,-2.83,2.83,2.77,2.93,3.58,3.58,3.58
415.96,0.71,-2.88,0.71,-2.88,2.88,2.85,3.01,3.59,3.59,3.59
420.12,0.67,-2.93,0.67,-2.93,2.93,2.94,3.10,3.60,3.60,3.60
424.32,0.62,-2.99,0.62,-2.99,2.99,3.03,3.18,3.61,3.61,3.61
428.56,0.58,-3.04,0.58,-3.04,3.04,3.11,3.26,3.62,3.63,3.62
432.85,0.54,-3.09,0.53,-3.10,3.10,3.20,3.34,3.64,3.63,3.63
437.18,0.49,-3.15,0.49,-3.16,3.16,3.28,3.43,3.65,3.65,3.64
441.55,0.43,-3.23,0.44,-3.22,3.22,3.36,3.50,3.65,3.66,3.66
445.96,0.40,-3.27,0.39,-3.28,3.27,3.44,3.58,3.67,3.66,3.67
450.42,0.35,-3.33,0.35,-3.34,3.33,3.51,3.66,3.68,3.68,3.68
454.93,0.30,-3.40,0.31,-3.39,3.39,3.58,3.73,3.69,3.69,3.70
459.48,0.27,-3.44,0.26,-3.45,3.44,3.64,3.80,3.71,3.71,3.71
464.07,0.22,-3.50,0.23,-3.50,3.50,3.70,3.86,3.72,3.73,3.72
468.71,0.19,-3.55,0.18,-3.55,3.56,3.76,3.92,3.75,3.74,3.74
473.40,0.14,-3.61,0.14,-3.61,3.62,3.80,3.98,3.76,3.76,3.75
478.13,0.09,-3.68,0.09,-3.67,3.68,3.84,4.04,3.77,3.77,3.77
482.91,0.05,-3.73,0.04,-3.74,3.74,3.88,4.08,3.79,3.78,3.78
487.74,-0.01,-3.81,-0.01,-3.81,3.81,3.91,4.13,3.80,3.80,3.80
492.62,-0.06,-3.88,-0.06,-3.87,3.87,3.93,4.17,3.81,3.81,3.82
497.55,-0.11,-3.94,-0.11,-3.94,3.94,3.96,4.20,3.83,3.83,3.83
502.52,-0.15,-4.00,-0.16,-4.00,4.01,3.97,4.23,3.86,3.85,3.85
507.55,-0.21,-4.07,-0.20,-4.07,4.08,3.99,4.26,3.87,3.87,3.86
512.62,-0.25,-4.13,-0.25,-4.14,4.14,4.00,4.28,3.89,3.89,3.88
517.75,-0.30,-4.20,-0.31,-4.20,4.20,4.01,4.30,3.90,3.90,3.90
522.93,-0.36,-4.28,-0.35,-4.27,4.26,4.02,4.31,3.90,3.91,3.92
528.16,-0.39,-4.32,-0.39,-4.33,4.31,4.03,4.32,3.92,3.92,3.93
533.44,-0.42,-4.37,-0.42,-4.37,4.36,4.04,4.32,3.94,3.94,3.95
538.77,-0.43,-4.40,-0.43,-4.40,4.40,4.05,4.32,3.97,3.97,3.97
544.16,-0.43,-4.42,-0.44,-4.43,4.43,4.06,4.32,4.00,3.99,3.99
549.60,-0.45,-4.46,-0.44,-4.45,4.45,4.07,4.32,4.00,4.01,4.01
555.10,-0.45,-4.47,-0.44,-4.47,4.47,4.08,4.31,4.02,4.02,4.02
560.65,-0.43,-4.47,-0.44,-4.48,4.48,4.10,4.30,4.05,4.03,4.04
