frequency,raw,error,smoothed,error_smoothed,equalization,parametric_eq,fixed_band_eq,equalized_raw,equalized_smoothed,target
20.00,-23.29,-27.58,-23.16,-27.48,27.48,26.95,13.87,4.19,4.32,4.29
20.20,-23.15,-27.49,-23.07,-27.43,27.43,27.03,14.09,4.28,4.35,4.34
20.40,-23.00,-27.39,-22.99,-27.37,27.37,27.10,14.30,4.38,4.39,4.39
20.61,-22.86,-27.28,-22.90,-27.32,27.32,27.16,14.52,4.46,4.42,4.42
20.81,-22.71,-27.18,-22.81,-27.26,27.26,27.20,14.75,4.55,4.45,4.47
21.02,-22.58,-27.09,-22.72,-27.20,27.20,27.24,14.98,4.62,4.48,4.51
21.23,-22.54,-27.07,-22.64,-27.14,27.14,27.26,15.22,4.60,4.50,4.52
21.44,-22.49,-27.03,-22.55,-27.08,27.08,27.27,15.46,4.59,4.53,4.54
21.66,-22.45,-27.01,-22.47,-27.02,27.02,27.27,15.71,4.57,4.55,4.56
21.87,-22.41,-26.98,-22.39,-26.95,26.95,27.26,15.96,4.54,4.56,4.57
22.09,-22.35,-26.94,-22.30,-26.88,26.88,27.23,16.23,4.53,4.58,4.59
22.31,-22.27,-26.87,-22.22,-26.81,26.81,27.20,16.50,4.55,4.59,4.60
22.54,-22.18,-26.78,-22.16,-26.76,26.76,27.16,16.77,4.57,4.60,4.60
22.76,-22.10,-26.70,-22.09,-26.69,26.69,27.11,17.06,4.59,4.60,4.60
22.99,-22.01,-26.60,-22.02,-26.63,26.63,27.05,17.35,4.62,4.60,4.59
23.22,-21.94,-26.53,-21.95,-26.55,26.55,26.99,17.65,4.61,4.60,4.59
23.45,-21.86,-26.45,-21.87,-26.47,26.47,26.91,17.96,4.61,4.60,4.59
23.69,-21.78,-26.38,-21.77,-26.38,26.38,26.83,18.28,4.60,4.60,4.60
23.92,-21.70,-26.30,-21.67,-26.28,26.28,26.75,18.62,4.58,4.60,4.60
24.16,-21.61,-26.22,-21.57,-26.18,26.18,26.66,18.96,4.57,4.60,4.61
24.40,-21.51,-26.12,-21.48,-26.08,26.08,26.56,19.31,4.57,4.60,4.61
24.65,-21.41,-26.02,-21.38,-25.99,25.99,26.46,19.68,4.58,4.60,4.60
24.89,-21.30,-25.90,-21.30,-25.90,25.90,26.36,20.06,4.60,4.60,4.60
25.14,-21.20,-25.80,-21.21,-25.82,25.82,26.26,20.46,4.62,4.60,4.60
25.39,-21.09,-25.70,-21.13,-25.74,25.74,26.15,20.87,4.65,4.61,4.61
25.65,-20.99,-25.60,-21.06,-25.66,25.66,26.04,21.30,4.67,4.61,4.61
25.91,-20.88,-25.48,-20.98,-25.59,25.59,25.93,21.75,4.71,4.61,4.60
26.16,-20.82,-25.42,-20.91,-25.51,25.51,25.82,22.22,4.69,4.60,4.60
26.43,-20.80,-25.40,-20.83,-25.43,25.43,25.70,22.71,4.63,4.60,4.60
26.69,-20.78,-25.38,-20.75,-25.35,25.35,25.59,23.22,4.57,4.60,4.60
26.96,-20.75,-25.35,-20.67,-25.27,25.27,25.47,23.76,4.52,4.60,4.60
27.23,-20.67,-25.27,-20.59,-25.18,25.18,25.36,24.33,4.51,4.59,4.60
27.50,-20.58,-25.18,-20.50,-25.09,25.09,25.24,24.92,4.51,4.59,4.60
27.77,-20.49,-25.08,-20.41,-25.01,25.01,25.13,25.55,4.52,4.59,4.59
28.05,-20.38,-24.97,-20.32,-24.91,24.91,25.02,26.21,4.53,4.59,4.59
28.33,-20.25,-24.83,-20.23,-24.82,24.82,24.90,26.91,4.57,4.59,4.58
28.62,-20.11,-24.69,-20.13,-24.72,24.72,24.79,27.65,4.60,4.58,4.57
28.90,-19.97,-24.55,-20.03,-24.62,24.62,24.68,28.43,4.65,4.58,4.58
29.19,-19.86,-24.43,-19.93,-24.51,24.51,24.57,29.24,4.65,4.58,4.57
29.48,-19.78,-24.37,-19.83,-24.41,24.41,24.46,30.07,4.63,4.58,4.59
29.78,-19.69,-24.27,-19.73,-24.31,24.31,24.35,30.92,4.62,4.58,4.58
30.08,-19.61,-24.20,-19.64,-24.22,24.22,24.25,31.74,4.60,4.57,4.59
30.38,-19.54,-24.12,-19.56,-24.13,24.13,24.14,32.50,4.59,4.57,4.57
30.68,-19.47,-24.04,-19.47,-24.04,24.04,24.04,33.12,4.57,4.57,4.57
30.99,-19.40,-23.97,-19.39,-23.95,23.95,23.93,33.52,4.55,4.57,4.57
31.30,-19.33,-23.90,-19.30,-23.87,23.87,23.83,33.65,4.54,4.57,4.57
31.61,-19.27,-23.83,-19.23,-23.79,23.79,23.73,33.49,4.52,4.56,4.56
31.93,-19.20,-23.76,-19.16,-23.72,23.72,23.63,33.08,4.52,4.56,4.56
32.24,-19.12,-23.67,-19.10,-23.65,23.65,23.54,32.49,4.53,4.56,4.55
32.57,-19.03,-23.59,-19.03,-23.58,23.58,23.44,31.79,4.55,4.55,4.56
32.89,-18.95,-23.50,-18.95,-23.50,23.50,23.35,31.05,4.55,4.54,4.55
33.22,-18.85,-23.39,-18.88,-23.42,23.42,23.25,30.30,4.57,4.54,4.54
33.55,-18.75,-23.29,-18.81,-23.34,23.34,23.16,29.57,4.59,4.53,4.54
33.89,-18.65,-23.17,-18.74,-23.27,23.27,23.07,28.88,4.61,4.53,4.52
34.23,-18.62,-23.15,-18.66,-23.19,23.19,22.98,28.22,4.57,4.52,4.53
34.57,-18.62,-23.14,-18.59,-23.11,23.11,22.89,27.60,4.49,4.52,4.52
34.92,-18.62,-23.13,-18.52,-23.03,23.03,22.81,27.02,4.41,4.51,4.51
35.27,-18.52,-23.03,-18.44,-22.95,22.95,22.72,26.47,4.43,4.51,4.51
35.62,-18.38,-22.89,-18.37,-22.87,22.87,22.64,25.96,4.49,4.51,4.51
35.97,-18.25,-22.75,-18.29,-22.79,22.79,22.56,25.48,4.54,4.50,4.50
36.33,-18.19,-22.70,-18.21,-22.71,22.71,22.48,25.04,4.52,4.50,4.51
36.70,-18.13,-22.62,-18.12,-22.62,22.62,22.40,24.62,4.49,4.50,4.49
37.06,-18.07,-22.56,-18.05,-22.55,22.55,22.32,24.22,4.48,4.50,4.49
37.43,-17.98,-22.48,-17.98,-22.48,22.48,22.24,23.85,4.50,4.50,4.50
37.81,-17.88,-22.38,-17.91,-22.40,22.40,22.16,23.51,4.52,4.50,4.50
38.19,-17.79,-22.28,-17.82,-22.32,22.32,22.09,23.18,4.53,4.50,4.49
38.57,-17.70,-22.20,-17.74,-22.23,22.23,22.01,22.88,4.53,4.50,4.50
38.95,-17.62,-22.12,-17.65,-22.14,22.14,21.94,22.59,4.52,4.50,4.50
39.34,-17.54,-22.04,-17.56,-22.06,22.06,21.86,22.32,4.52,4.49,4.50
39.74,-17.46,-21.95,-17.48,-21.97,21.97,21.79,22.06,4.51,4.49,4.49
40.14,-17.41,-21.91,-17.40,-21.89,21.89,21.72,21.83,4.48,4.49,4.49
40.54,-17.41,-21.90,-17.31,-21.80,21.80,21.65,21.60,4.39,4.49,4.49
40.94,-17.41,-21.89,-17.23,-21.71,21.71,21.57,21.39,4.30,4.48,4.48
41.35,-17.22,-21.69,-17.15,-21.63,21.63,21.50,21.20,4.41,4.48,4.47
41.76,-17.00,-21.47,-17.07,-21.54,21.54,21.43,21.01,4.54,4.47,4.47
42.18,-16.86,-21.33,-17.00,-21.45,21.45,21.36,20.84,4.59,4.46,4.47
42.60,-16.80,-21.25,-16.93,-21.37,21.37,21.30,20.68,4.57,4.45,4.45
43.03,-16.75,-21.19,-16.86,-21.29,21.29,21.23,20.54,4.54,4.43,4.44
43.46,-16.75,-21.19,-16.77,-21.19,21.19,21.16,20.40,4.44,4.42,4.43
43.90,-16.75,-21.16,-16.68,-21.08,21.08,21.09,20.27,4.33,4.41,4.41
44.33,-16.67,-21.06,-16.58,-20.98,20.98,21.02,20.16,4.31,4.39,4.39
44.78,-16.56,-20.93,-16.50,-20.88,20.88,20.95,20.05,4.32,4.38,4.37
45.23,-16.47,-20.83,-16.42,-20.78,20.78,20.89,19.96,4.31,4.36,4.36
45.68,-16.39,-20.73,-16.34,-20.69,20.69,20.82,19.87,4.30,4.35,4.34
46.13,-16.31,-20.63,-16.28,-20.61,20.61,20.75,19.79,4.30,4.33,4.32
46.60,-16.23,-20.55,-16.22,-20.53,20.53,20.68,19.72,4.30,4.31,4.32
47.06,-16.13,-20.43,-16.14,-20.44,20.44,20.61,19.66,4.31,4.30,4.30
47.53,-15.94,-20.22,-16.07,-20.35,20.35,20.55,19.61,4.41,4.28,4.28
48.01,-15.76,-20.04,-15.99,-20.25,20.25,20.48,19.57,4.49,4.26,4.28
48.49,-15.85,-20.11,-15.91,-20.16,20.16,20.41,19.53,4.31,4.25,4.26
48.97,-15.94,-20.18,-15.83,-20.07,20.07,20.34,19.50,4.13,4.23,4.24
49.46,-15.85,-20.06,-15.76,-19.98,19.98,20.27,19.48,4.13,4.22,4.21
49.96,-15.75,-19.94,-15.70,-19.90,19.90,20.20,19.47,4.15,4.20,4.19
50.46,-15.67,-19.86,-15.63,-19.82,19.82,20.13,19.46,4.15,4.19,4.18
50.96,-15.60,-19.77,-15.57,-19.74,19.74,20.05,19.45,4.14,4.17,4.17
51.47,-15.51,-19.65,-15.50,-19.66,19.66,19.98,19.45,4.14,4.15,4.14
51.99,-15.42,-19.55,-15.42,-19.56,19.56,19.91,19.46,4.13,4.14,4.13
52.51,-15.35,-19.47,-15.35,-19.47,19.47,19.83,19.47,4.12,4.12,4.12
53.03,-15.28,-19.40,-15.29,-19.40,19.40,19.76,19.48,4.12,4.11,4.11
53.56,-15.21,-19.31,-15.23,-19.33,19.33,19.68,19.50,4.12,4.09,4.10
54.10,-15.14,-19.22,-15.16,-19.24,19.24,19.60,19.51,4.10,4.08,4.08
54.64,-15.08,-19.14,-15.08,-19.15,19.15,19.53,19.53,4.07,4.06,4.06
55.18,-15.02,-19.07,-15.01,-19.06,19.06,19.45,19.54,4.04,4.05,4.05
55.74,-14.97,-19.00,-14.95,-18.98,18.98,19.37,19.56,4.01,4.04,4.03
56.29,-14.85,-18.87,-14.90,-18.92,18.92,19.28,19.57,4.07,4.02,4.02
56.86,-14.68,-18.68,-14.86,-18.86,18.86,19.20,19.57,4.18,4.00,4.00
57.42,-14.81,-18.78,-14.83,-18.81,18.81,19.12,19.57,4.00,3.98,3.97
58.00,-15.04,-18.99,-14.81,-18.76,18.76,19.03,19.57,3.72,3.96,3.95
58.58,-14.87,-18.81,-14.77,-18.70,18.70,18.94,19.55,3.83,3.93,3.94
59.16,-14.69,-18.60,-14.73,-18.63,18.63,18.86,19.53,3.94,3.90,3.91
59.76,-14.51,-18.40,-14.70,-18.57,18.57,18.77,19.50,4.06,3.87,3.89
60.35,-14.50,-18.34,-14.67,-18.51,18.51,18.67,19.45,4.00,3.83,3.84
60.96,-14.63,-18.44,-14.63,-18.42,18.42,18.58,19.39,3.79,3.80,3.81
61.57,-14.75,-18.51,-14.59,-18.34,18.34,18.49,19.32,3.59,3.76,3.76
62.18,-14.78,-18.49,-14.55,-18.27,18.27,18.39,19.23,3.49,3.71,3.71
62.80,-14.59,-18.25,-14.52,-18.19,18.19,18.29,19.13,3.60,3.67,3.66
63.43,-14.45,-18.06,-14.48,-18.10,18.10,18.19,19.02,3.65,3.62,3.61
64.07,-14.33,-17.89,-14.42,-17.99,17.99,18.09,18.89,3.66,3.57,3.56
64.71,-14.21,-17.72,-14.36,-17.88,17.88,17.99,18.75,3.67,3.52,3.51
65.35,-14.26,-17.73,-14.32,-17.78,17.78,17.89,18.59,3.52,3.47,3.47
66.01,-14.43,-17.84,-14.26,-17.68,17.68,17.78,18.42,3.25,3.41,3.41
66.67,-14.10,-17.46,-14.20,-17.56,17.56,17.67,18.25,3.46,3.36,3.36
67.33,-14.02,-17.32,-14.12,-17.43,17.43,17.57,18.06,3.41,3.31,3.30
68.01,-14.21,-17.47,-14.04,-17.29,17.29,17.46,17.86,3.08,3.25,3.26
68.69,-14.07,-17.27,-13.96,-17.16,17.16,17.34,17.66,3.09,3.20,3.20
69.37,-13.95,-17.09,-13.90,-17.04,17.04,17.23,17.45,3.09,3.14,3.14
70.07,-13.84,-16.92,-13.86,-16.94,16.94,17.11,17.24,3.10,3.08,3.08
70.77,-13.66,-16.69,-13.79,-16.81,16.81,17.00,17.02,3.15,3.02,3.03
71.48,-13.62,-16.59,-13.71,-16.67,16.67,16.88,16.80,3.05,2.96,2.97
72.19,-13.62,-16.52,-13.64,-16.54,16.54,16.76,16.57,2.92,2.90,2.90
72.91,-13.57,-16.40,-13.57,-16.41,16.41,16.64,16.35,2.83,2.83,2.83
73.64,-13.51,-16.28,-13.49,-16.26,16.26,16.52,16.13,2.75,2.77,2.77
74.38,-13.45,-16.16,-13.44,-16.14,16.14,16.39,15.91,2.69,2.71,2.71
75.12,-13.39,-16.03,-13.35,-15.99,15.99,16.27,15.69,2.60,2.64,2.64
75.87,-13.33,-15.90,-13.25,-15.83,15.83,16.14,15.47,2.50,2.58,2.57
76.63,-13.30,-15.81,-13.19,-15.71,15.71,16.01,15.26,2.41,2.52,2.51
77.40,-13.11,-15.57,-13.13,-15.59,15.59,15.88,15.05,2.48,2.46,2.45
78.17,-12.87,-15.26,-13.08,-15.48,15.48,15.75,14.85,2.61,2.40,2.38
78.95,-13.01,-15.35,-13.01,-15.35,15.35,15.62,14.65,2.34,2.34,2.34
79.74,-13.10,-15.38,-12.95,-15.23,15.23,15.49,14.45,2.13,2.28,2.28
80.54,-12.83,-15.06,-12.88,-15.11,15.11,15.35,14.26,2.28,2.23,2.23
81.35,-12.64,-14.81,-12.79,-14.96,14.96,15.22,14.08,2.32,2.17,2.17
82.16,-12.70,-14.81,-12.71,-14.82,14.82,15.08,13.90,2.12,2.11,2.11
82.98,-12.49,-14.56,-12.65,-14.70,14.70,14.94,13.73,2.21,2.06,2.06
83.81,-12.73,-14.73,-12.57,-14.58,14.58,14.81,13.56,1.84,2.00,2.00
84.65,-12.73,-14.67,-12.50,-14.44,14.44,14.67,13.40,1.71,1.94,1.94
85.50,-12.56,-14.45,-12.43,-14.31,14.31,14.53,13.25,1.75,1.89,1.89
86.35,-12.30,-14.13,-12.35,-14.18,14.18,14.39,13.10,1.88,1.83,1.83
87.22,-12.14,-13.92,-12.27,-14.04,14.04,14.25,12.96,1.90,1.77,1.77
88.09,-12.30,-14.01,-12.19,-13.90,13.90,14.10,12.82,1.60,1.71,1.71
88.97,-11.91,-13.56,-12.10,-13.75,13.75,13.96,12.69,1.84,1.65,1.65
89.86,-11.84,-13.43,-12.03,-13.62,13.62,13.82,12.57,1.78,1.59,1.59
90.76,-12.16,-13.69,-11.96,-13.49,13.49,13.67,12.45,1.33,1.53,1.53
91.66,-11.99,-13.46,-11.85,-13.33,13.33,13.53,12.34,1.34,1.47,1.48
92.58,-11.69,-13.09,-11.78,-13.19,13.19,13.38,12.24,1.50,1.41,1.40
93.51,-11.65,-13.00,-11.69,-13.04,13.04,13.24,12.14,1.39,1.35,1.35
94.44,-11.62,-12.91,-11.60,-12.89,12.89,13.09,12.05,1.27,1.29,1.29
95.39,-11.51,-12.75,-11.53,-12.77,12.77,12.95,11.96,1.25,1.23,1.24
96.34,-11.55,-12.72,-11.49,-12.66,12.66,12.80,11.88,1.11,1.17,1.17
97.30,-11.45,-12.57,-11.43,-12.54,12.54,12.65,11.80,1.09,1.12,1.12
98.28,-11.22,-12.28,-11.35,-12.41,12.41,12.51,11.73,1.19,1.06,1.06
99.26,-11.34,-12.34,-11.30,-12.30,12.30,12.36,11.66,0.96,1.00,1.00
100.25,-11.31,-12.25,-11.23,-12.17,12.17,12.21,11.59,0.86,0.94,0.94
101.25,-11.02,-11.91,-11.16,-12.05,12.05,12.07,11.53,1.03,0.89,0.89
102.27,-11.28,-12.11,-11.13,-11.95,11.95,11.92,11.48,0.67,0.83,0.83
103.29,-10.97,-11.73,-11.09,-11.86,11.86,11.77,11.42,0.89,0.77,0.76
104.32,-10.87,-11.59,-11.05,-11.76,11.76,11.62,11.37,0.89,0.71,0.71
105.37,-11.19,-11.85,-11.01,-11.66,11.66,11.48,11.33,0.47,0.65,0.66
106.42,-11.13,-11.73,-10.97,-11.56,11.56,11.33,11.28,0.43,0.59,0.60
107.48,-10.77,-11.30,-10.93,-11.46,11.46,11.18,11.23,0.69,0.53,0.53
108.56,-10.82,-11.28,-10.91,-11.38,11.38,11.04,11.19,0.56,0.46,0.46
109.64,-10.91,-11.32,-10.89,-11.30,11.30,10.89,11.15,0.39,0.40,0.41
110.74,-10.87,-11.21,-10.85,-11.19,11.19,10.74,11.10,0.32,0.34,0.34
111.85,-10.82,-11.11,-10.81,-11.09,11.09,10.60,11.05,0.27,0.28,0.29
112.97,-10.78,-11.00,-10.77,-10.99,10.99,10.45,11.01,0.21,0.22,0.21
114.10,-10.74,-10.90,-10.70,-10.86,10.86,10.30,10.96,0.12,0.16,0.16
115.24,-10.67,-10.77,-10.65,-10.76,10.76,10.16,10.90,0.09,0.11,0.10
116.39,-10.56,-10.60,-10.58,-10.63,10.63,10.01,10.84,0.07,0.05,0.04
117.55,-10.55,-10.54,-10.49,-10.49,10.49,9.87,10.78,-0.06,-0.00,-0.01
118.73,-10.57,-10.51,-10.44,-10.39,10.39,9.72,10.71,-0.18,-0.05,-0.06
119.92,-10.46,-10.36,-10.38,-10.28,10.28,9.58,10.64,-0.18,-0.10,-0.10
121.12,-10.17,-10.02,-10.26,-10.12,10.12,9.44,10.56,-0.06,-0.15,-0.15
122.33,-10.02,-9.82,-10.16,-9.97,9.97,9.29,10.48,-0.05,-0.19,-0.20
123.55,-10.00,-9.77,-10.07,-9.84,9.84,9.15,10.39,-0.16,-0.23,-0.23
124.79,-9.99,-9.72,-9.97,-9.70,9.70,9.01,10.29,-0.29,-0.28,-0.27
126.03,-9.89,-9.58,-9.86,-9.54,9.54,8.87,10.18,-0.35,-0.31,-0.31
127.29,-9.78,-9.44,-9.75,-9.39,9.39,8.73,10.07,-0.39,-0.35,-0.34
128.57,-9.69,-9.30,-9.65,-9.26,9.26,8.59,9.95,-0.43,-0.39,-0.39
129.85,-9.59,-9.16,-9.55,-9.12,9.12,8.45,9.82,-0.48,-0.43,-0.43
131.15,-9.59,-9.12,-9.44,-8.97,8.97,8.31,9.68,-0.62,-0.47,-0.47
132.46,-9.19,-8.68,-9.37,-8.86,8.86,8.17,9.54,-0.33,-0.51,-0.51
133.79,-9.05,-8.51,-9.29,-8.75,8.75,8.03,9.40,-0.30,-0.54,-0.54
135.12,-9.41,-8.82,-9.21,-8.64,8.64,7.89,9.25,-0.77,-0.58,-0.59
136.48,-9.14,-8.53,-9.13,-8.51,8.51,7.75,9.09,-0.63,-0.62,-0.62
137.84,-8.82,-8.16,-9.04,-8.39,8.39,7.62,8.93,-0.44,-0.65,-0.66
139.22,-8.90,-8.20,-8.95,-8.26,8.26,7.48,8.77,-0.64,-0.69,-0.70
140.61,-9.00,-8.26,-8.87,-8.15,8.15,7.35,8.60,-0.86,-0.73,-0.74
142.02,-8.90,-8.14,-8.80,-8.03,8.03,7.21,8.43,-0.87,-0.77,-0.77
143.44,-8.66,-7.86,-8.72,-7.91,7.91,7.08,8.26,-0.75,-0.81,-0.81
144.87,-8.81,-7.96,-8.65,-7.79,7.79,6.95,8.08,-1.02,-0.86,-0.86
146.32,-8.72,-7.82,-8.58,-7.67,7.67,6.82,7.91,-1.05,-0.91,-0.90
147.78,-8.34,-7.40,-8.51,-7.54,7.54,6.69,7.73,-0.80,-0.97,-0.94
149.26,-8.29,-7.29,-8.42,-7.39,7.39,6.55,7.56,-0.90,-1.03,-1.00
150.75,-8.36,-7.29,-8.30,-7.21,7.21,6.42,7.38,-1.15,-1.10,-1.07
152.26,-8.29,-7.14,-8.21,-7.05,7.05,6.30,7.20,-1.24,-1.17,-1.15
153.78,-8.18,-6.96,-8.15,-6.91,6.91,6.17,7.03,-1.27,-1.24,-1.22
155.32,-8.10,-6.80,-8.07,-6.75,6.75,6.04,6.86,-1.35,-1.32,-1.30
156.88,-8.03,-6.65,-8.01,-6.62,6.62,5.91,6.69,-1.42,-1.39,-1.38
158.44,-7.94,-6.47,-7.97,-6.50,6.50,5.79,6.52,-1.44,-1.47,-1.48
160.03,-7.82,-6.26,-7.93,-6.39,6.39,5.66,6.35,-1.43,-1.55,-1.56
161.63,-7.75,-6.11,-7.88,-6.26,6.26,5.54,6.19,-1.49,-1.62,-1.64
163.24,-7.69,-5.98,-7.85,-6.16,6.16,5.42,6.02,-1.53,-1.69,-1.71
164.88,-7.68,-5.91,-7.84,-6.09,6.09,5.29,5.86,-1.59,-1.75,-1.77
166.53,-7.68,-5.86,-7.82,-6.01,6.01,5.17,5.70,-1.67,-1.80,-1.82
168.19,-7.94,-6.07,-7.79,-5.94,5.94,5.05,5.55,-2.01,-1.85,-1.87
169.87,-8.09,-6.18,-7.74,-5.85,5.85,4.93,5.40,-2.24,-1.89,-1.91
171.57,-7.81,-5.88,-7.68,-5.76,5.76,4.81,5.25,-2.05,-1.92,-1.93
173.29,-7.68,-5.72,-7.61,-5.66,5.66,4.69,5.10,-2.02,-1.95,-1.96
175.02,-7.58,-5.61,-7.54,-5.58,5.58,4.58,4.95,-2.00,-1.97,-1.97
176.77,-7.44,-5.45,-7.48,-5.50,5.50,4.46,4.81,-1.94,-1.98,-1.99
178.54,-7.34,-5.34,-7.41,-5.42,5.42,4.34,4.67,-1.92,-1.99,-2.00
180.32,-7.44,-5.44,-7.30,-5.30,5.30,4.23,4.53,-2.14,-2.01,-2.00
182.13,-7.33,-5.34,-7.19,-5.17,5.17,4.11,4.40,-2.16,-2.02,-1.99
183.95,-7.00,-4.99,-7.07,-5.05,5.05,4.00,4.27,-1.96,-2.03,-2.01
185.79,-6.71,-4.69,-6.95,-4.91,4.91,3.89,4.14,-1.80,-2.04,-2.02
187.65,-6.53,-4.49,-6.82,-4.77,4.77,3.78,4.01,-1.77,-2.05,-2.04
189.52,-6.61,-4.55,-6.68,-4.62,4.62,3.67,3.88,-1.99,-2.07,-2.06
191.42,-6.74,-4.66,-6.56,-4.47,4.47,3.56,3.76,-2.27,-2.08,-2.08
193.33,-6.70,-4.60,-6.44,-4.33,4.33,3.45,3.64,-2.37,-2.10,-2.10
195.27,-6.43,-4.31,-6.33,-4.21,4.21,3.34,3.52,-2.23,-2.13,-2.13
197.22,-6.12,-3.97,-6.24,-4.09,4.09,3.23,3.41,-2.03,-2.15,-2.15
199.19,-6.00,-3.82,-6.14,-3.97,3.97,3.12,3.29,-2.03,-2.17,-2.18
201.18,-6.15,-3.95,-6.03,-3.83,3.83,3.02,3.18,-2.32,-2.20,-2.20
203.19,-6.03,-3.81,-5.93,-3.71,3.71,2.91,3.07,-2.32,-2.22,-2.22
205.23,-5.73,-3.48,-5.85,-3.61,3.61,2.81,2.96,-2.12,-2.25,-2.25
207.28,-5.48,-3.22,-5.77,-3.50,3.50,2.71,2.86,-1.98,-2.27,-2.26
209.35,-5.47,-3.19,-5.66,-3.37,3.37,2.60,2.75,-2.10,-2.29,-2.28
211.44,-5.58,-3.26,-5.53,-3.22,3.22,2.50,2.65,-2.36,-2.31,-2.32
213.56,-5.72,-3.39,-5.42,-3.09,3.09,2.40,2.55,-2.63,-2.33,-2.33
215.69,-5.56,-3.22,-5.33,-2.98,2.98,2.30,2.45,-2.58,-2.35,-2.34
217.85,-5.30,-2.94,-5.25,-2.89,2.89,2.20,2.35,-2.41,-2.36,-2.36
220.03,-4.98,-2.61,-5.15,-2.77,2.77,2.10,2.25,-2.21,-2.37,-2.37
222.23,-4.87,-2.47,-5.02,-2.64,2.64,2.00,2.16,-2.23,-2.38,-2.40
224.45,-4.96,-2.57,-4.87,-2.48,2.48,1.90,2.06,-2.48,-2.39,-2.39
226.70,-4.88,-2.48,-4.74,-2.35,2.35,1.80,1.97,-2.53,-2.39,-2.40
228.96,-4.59,-2.20,-4.61,-2.23,2.23,1.71,1.87,-2.36,-2.39,-2.39
231.25,-4.32,-1.94,-4.48,-2.09,2.09,1.61,1.78,-2.23,-2.38,-2.38
233.57,-4.32,-1.95,-4.32,-1.94,1.94,1.52,1.69,-2.38,-2.37,-2.37
235.90,-4.39,-2.02,-4.15,-1.79,1.79,1.42,1.60,-2.60,-2.36,-2.37
238.26,-4.11,-1.75,-4.00,-1.65,1.65,1.33,1.51,-2.46,-2.35,-2.36
240.64,-3.73,-1.39,-3.88,-1.55,1.55,1.23,1.43,-2.18,-2.33,-2.34
243.05,-3.50,-1.19,-3.76,-1.44,1.44,1.14,1.34,-2.06,-2.31,-2.31
245.48,-3.46,-1.17,-3.61,-1.32,1.32,1.05,1.25,-2.14,-2.29,-2.29
247.93,-3.39,-1.13,-3.45,-1.18,1.18,0.95,1.17,-2.21,-2.27,-2.26
250.41,-3.45,-1.20,-3.29,-1.04,1.04,0.86,1.08,-2.41,-2.25,-2.25
252.92,-3.34,-1.12,-3.15,-0.92,0.92,0.77,1.00,-2.42,-2.23,-2.22
255.45,-3.02,-0.82,-3.02,-0.81,0.81,0.68,0.91,-2.21,-2.21,-2.20
258.00,-2.83,-0.66,-2.87,-0.69,0.69,0.59,0.83,-2.14,-2.18,-2.18
260.58,-2.80,-0.64,-2.72,-0.56,0.56,0.50,0.74,-2.24,-2.16,-2.16
263.19,-2.69,-0.56,-2.57,-0.44,0.44,0.41,0.66,-2.26,-2.14,-2.13
265.82,-2.44,-0.32,-2.44,-0.33,0.33,0.32,0.58,-2.11,-2.11,-2.12
268.48,-2.15,-0.05,-2.31,-0.22,0.22,0.23,0.49,-1.93,-2.09,-2.10
271.16,-1.95,0.11,-2.16,-0.09,0.09,0.14,0.41,-1.86,-2.07,-2.06
273.87,-1.99,0.06,-2.00,0.04,-0.04,0.05,0.32,-2.03,-2.04,-2.05
276.61,-1.97,0.05,-1.84,0.18,-0.18,-0.04,0.24,-2.15,-2.02,-2.02
279.38,-1.74,0.25,-1.67,0.33,-0.33,-0.13,0.16,-2.07,-1.99,-1.99
282.17,-1.50,0.47,-1.51,0.46,-0.46,-0.22,0.07,-1.96,-1.97,-1.97
284.99,-1.40,0.53,-1.37,0.57,-0.57,-0.31,-0.01,-1.97,-1.94,-1.93
287.84,-1.33,0.59,-1.24,0.67,-0.67,-0.40,-0.10,-2.00,-1.91,-1.92
290.72,-1.13,0.75,-1.13,0.75,-0.75,-0.49,-0.19,-1.88,-1.88,-1.89
293.63,-0.97,0.89,-1.01,0.84,-0.84,-0.58,-0.27,-1.81,-1.86,-1.86
296.57,-0.86,0.96,-0.91,0.91,-0.91,-0.67,-0.36,-1.78,-1.83,-1.83
299.53,-0.70,1.10,-0.81,0.99,-0.99,-0.76,-0.45,-1.69,-1.80,-1.80
302.53,-0.55,1.23,-0.70,1.08,-1.08,-0.85,-0.54,-1.63,-1.78,-1.79
305.55,-0.44,1.30,-0.57,1.18,-1.18,-0.94,-0.63,-1.62,-1.75,-1.74
308.61,-0.40,1.32,-0.46,1.26,-1.26,-1.03,-0.72,-1.66,-1.73,-1.72
311.69,-0.48,1.22,-0.38,1.33,-1.33,-1.13,-0.81,-1.81,-1.70,-1.70
314.81,-0.57,1.10,-0.28,1.41,-1.41,-1.22,-0.91,-1.98,-1.68,-1.67
317.96,-0.39,1.27,-0.17,1.50,-1.50,-1.31,-1.00,-1.89,-1.66,-1.66
321.14,-0.12,1.53,-0.06,1.58,-1.58,-1.40,-1.10,-1.70,-1.65,-1.65
324.35,0.24,1.87,0.02,1.65,-1.65,-1.50,-1.20,-1.41,-1.63,-1.63
327.59,0.10,1.72,0.11,1.73,-1.73,-1.60,-1.30,-1.63,-1.62,-1.62
330.87,0.31,1.92,0.23,1.83,-1.83,-1.69,-1.40,-1.52,-1.60,-1.61
334.18,0.48,2.07,0.35,1.94,-1.94,-1.79,-1.50,-1.47,-1.59,-1.59
337.52,0.53,2.12,0.48,2.06,-2.06,-1.89,-1.61,-1.53,-1.58,-1.59
340.90,0.43,2.00,0.61,2.19,-2.19,-1.99,-1.71,-1.76,-1.58,-1.57
344.30,0.75,2.31,0.76,2.33,-2.33,-2.09,-1.82,-1.58,-1.57,-1.56
347.75,0.98,2.54,0.91,2.47,-2.47,-2.19,-1.93,-1.49,-1.56,-1.56
351.23,0.93,2.49,1.04,2.60,-2.60,-2.29,-2.04,-1.67,-1.56,-1.56
354.74,1.00,2.56,1.15,2.70,-2.70,-2.40,-2.16,-1.70,-1.56,-1.56
358.28,1.18,2.73,1.25,2.81,-2.81,-2.50,-2.27,-1.63,-1.55,-1.55
361.87,1.54,3.09,1.37,2.92,-2.92,-2.61,-2.39,-1.38,-1.55,-1.55
365.49,1.73,3.28,1.51,3.06,-3.06,-2.71,-2.51,-1.33,-1.55,-1.55
369.14,1.64,3.20,1.63,3.18,-3.18,-2.82,-2.63,-1.54,-1.55,-1.56
372.83,1.71,3.27,1.76,3.31,-3.31,-2.93,-2.76,-1.60,-1.56,-1.56
376.56,1.84,3.40,1.88,3.44,-3.44,-3.04,-2.88,-1.60,-1.56,-1.56
380.33,2.03,3.58,1.99,3.55,-3.55,-3.16,-3.01,-1.53,-1.56,-1.55
384.13,2.05,3.61,2.09,3.66,-3.66,-3.27,-3.14,-1.61,-1.57,-1.56
387.97,2.07,3.64,2.20,3.77,-3.77,-3.38,-3.27,-1.70,-1.57,-1.57
391.85,2.22,3.80,2.30,3.88,-3.88,-3.50,-3.40,-1.66,-1.58,-1.58
395.77,2.45,4.02,2.40,3.98,-3.98,-3.61,-3.53,-1.53,-1.58,-1.57
