frequency,raw,error,smoothed,error_smoothed,equalization,parametric_eq,fixed_band_eq,equalized_raw,equalized_smoothed,target
20.00,-12.21,-20.40,-12.21,-20.43,20.43,21.67,8.86,8.22,8.22,8.20
20.20,-12.09,-20.32,-12.09,-20.34,20.34,21.47,9.03,8.25,8.25,8.24
20.40,-11.97,-20.24,-11.97,-20.25,20.25,21.28,9.21,8.28,8.28,8.28
20.61,-11.85,-20.15,-11.85,-20.15,20.15,21.09,9.40,8.31,8.31,8.30
20.81,-11.73,-20.07,-11.72,-20.06,20.06,20.90,9.58,8.33,8.33,8.34
21.02,-11.61,-19.99,-11.60,-19.96,19.96,20.71,9.77,8.36,8.36,8.38
21.23,-11.49,-19.89,-11.48,-19.86,19.86,20.53,9.97,8.38,8.38,8.40
21.44,-11.35,-19.78,-11.36,-19.76,19.76,20.34,10.17,8.41,8.40,8.42
21.66,-11.24,-19.68,-11.24,-19.66,19.66,20.16,10.38,8.42,8.43,8.44
21.87,-11.11,-19.57,-11.11,-19.56,19.56,19.98,10.59,8.44,8.44,8.45
22.09,-10.99,-19.47,-10.99,-19.45,19.45,19.81,10.81,8.46,8.46,8.47
22.31,-10.86,-19.34,-10.87,-19.35,19.35,19.63,11.03,8.48,8.48,8.48
22.54,-10.75,-19.24,-10.74,-19.23,19.23,19.46,11.26,8.49,8.49,8.49
22.76,-10.62,-19.11,-10.62,-19.12,19.12,19.29,11.50,8.50,8.50,8.50
22.99,-10.50,-18.99,-10.49,-19.00,19.00,19.12,11.74,8.51,8.51,8.50
23.22,-10.37,-18.87,-10.37,-18.89,18.89,18.96,11.99,8.52,8.52,8.51
23.45,-10.25,-18.76,-10.24,-18.77,18.77,18.79,12.24,8.52,8.52,8.52
23.69,-10.12,-18.64,-10.12,-18.65,18.65,18.63,12.50,8.53,8.53,8.53
23.92,-9.99,-18.53,-9.99,-18.54,18.54,18.47,12.77,8.54,8.54,8.54
24.16,-9.87,-18.42,-9.87,-18.42,18.42,18.32,13.05,8.55,8.55,8.55
24.40,-9.74,-18.32,-9.74,-18.30,18.30,18.16,13.34,8.56,8.56,8.57
24.65,-9.62,-18.19,-9.62,-18.19,18.19,18.01,13.63,8.57,8.57,8.57
24.89,-9.48,-18.07,-9.49,-18.07,18.07,17.85,13.94,8.59,8.58,8.58
25.14,-9.36,-17.95,-9.36,-17.95,17.95,17.70,14.25,8.59,8.59,8.59
25.39,-9.23,-17.83,-9.24,-17.84,17.84,17.55,14.57,8.60,8.60,8.60
25.65,-9.11,-17.72,-9.11,-17.72,17.72,17.41,14.90,8.61,8.61,8.62
25.91,-8.99,-17.61,-8.98,-17.60,17.60,17.26,15.24,8.61,8.62,8.62
26.16,-8.85,-17.48,-8.85,-17.48,17.48,17.12,15.59,8.63,8.63,8.63
26.43,-8.73,-17.36,-8.72,-17.36,17.36,16.97,15.95,8.64,8.64,8.63
26.69,-8.60,-17.24,-8.60,-17.24,17.24,16.83,16.32,8.65,8.65,8.64
26.96,-8.47,-17.13,-8.47,-17.12,17.12,16.69,16.69,8.66,8.66,8.66
27.23,-8.34,-17.01,-8.34,-17.00,17.00,16.56,17.08,8.66,8.66,8.67
27.50,-8.21,-16.89,-8.21,-16.88,16.88,16.42,17.47,8.68,8.67,8.68
27.77,-8.07,-16.75,-8.08,-16.76,16.76,16.28,17.87,8.69,8.68,8.68
28.05,-7.96,-16.65,-7.95,-16.64,16.64,16.15,18.27,8.69,8.69,8.70
28.33,-7.83,-16.52,-7.82,-16.52,16.52,16.02,18.67,8.70,8.70,8.69
28.62,-7.70,-16.40,-7.70,-16.40,16.40,15.88,19.06,8.70,8.71,8.70
28.90,-7.57,-16.28,-7.57,-16.28,16.28,15.75,19.45,8.72,8.71,8.71
29.19,-7.45,-16.16,-7.44,-16.16,16.16,15.63,19.82,8.72,8.72,8.71
29.48,-7.32,-16.05,-7.32,-16.05,16.05,15.50,20.17,8.73,8.73,8.74
29.78,-7.19,-15.92,-7.20,-15.93,15.93,15.37,20.48,8.74,8.73,8.74
30.08,-7.07,-15.81,-7.08,-15.81,15.81,15.24,20.76,8.75,8.74,8.74
30.38,-6.95,-15.69,-6.95,-15.70,15.70,15.12,20.98,8.75,8.75,8.74
30.68,-6.83,-15.59,-6.83,-15.58,15.58,15.00,21.15,8.76,8.75,8.76
30.99,-6.72,-15.47,-6.71,-15.47,15.47,14.87,21.25,8.75,8.76,8.76
31.30,-6.60,-15.36,-6.59,-15.36,15.36,14.75,21.28,8.76,8.77,8.76
31.61,-6.48,-15.25,-6.47,-15.24,15.24,14.63,21.24,8.77,8.77,8.77
31.93,-6.36,-15.14,-6.35,-15.13,15.13,14.51,21.13,8.77,8.78,8.78
32.24,-6.23,-15.01,-6.23,-15.01,15.01,14.39,20.95,8.78,8.79,8.78
32.57,-6.11,-14.90,-6.11,-14.90,14.90,14.28,20.72,8.79,8.79,8.79
32.89,-5.99,-14.79,-5.99,-14.79,14.79,14.16,20.45,8.80,8.80,8.80
33.22,-5.87,-14.67,-5.87,-14.67,14.67,14.04,20.13,8.81,8.81,8.81
33.55,-5.73,-14.55,-5.75,-14.56,14.56,13.93,19.79,8.82,8.81,8.81
33.89,-5.62,-14.44,-5.62,-14.44,14.44,13.81,19.43,8.83,8.82,8.82
34.23,-5.50,-14.33,-5.50,-14.33,14.33,13.70,19.06,8.83,8.82,8.83
34.57,-5.38,-14.21,-5.38,-14.21,14.21,13.59,18.68,8.83,8.83,8.83
34.92,-5.27,-14.10,-5.26,-14.10,14.10,13.48,18.30,8.83,8.83,8.83
35.27,-5.15,-13.98,-5.14,-13.98,13.98,13.37,17.92,8.83,8.84,8.84
35.62,-5.03,-13.87,-5.02,-13.86,13.86,13.26,17.55,8.84,8.84,8.84
35.97,-4.90,-13.74,-4.90,-13.75,13.75,13.15,17.18,8.84,8.84,8.84
36.33,-4.78,-13.63,-4.78,-13.63,13.63,13.04,16.82,8.84,8.84,8.84
36.70,-4.67,-13.51,-4.67,-13.51,13.51,12.93,16.47,8.84,8.84,8.84
37.06,-4.54,-13.39,-4.55,-13.39,13.39,12.82,16.12,8.85,8.84,8.85
37.43,-4.42,-13.28,-4.43,-13.28,13.28,12.71,15.79,8.85,8.84,8.85
37.81,-4.32,-13.16,-4.32,-13.16,13.16,12.61,15.47,8.84,8.84,8.85
38.19,-4.20,-13.04,-4.20,-13.04,13.04,12.50,15.15,8.84,8.84,8.84
38.57,-4.09,-12.92,-4.08,-12.92,12.92,12.40,14.85,8.83,8.83,8.84
38.95,-3.96,-12.79,-3.97,-12.80,12.80,12.29,14.55,8.84,8.83,8.83
39.34,-3.85,-12.68,-3.86,-12.68,12.68,12.19,14.27,8.83,8.83,8.82
39.74,-3.75,-12.57,-3.74,-12.57,12.57,12.09,13.99,8.82,8.83,8.82
40.14,-3.63,-12.45,-3.63,-12.45,12.45,11.98,13.72,8.82,8.82,8.82
40.54,-3.52,-12.33,-3.52,-12.34,12.34,11.88,13.47,8.82,8.82,8.82
40.94,-3.41,-12.21,-3.41,-12.22,12.22,11.78,13.22,8.81,8.81,8.81
41.35,-3.30,-12.10,-3.29,-12.10,12.10,11.68,12.98,8.81,8.81,8.80
41.76,-3.18,-11.99,-3.18,-11.99,11.99,11.58,12.74,8.80,8.80,8.80
42.18,-3.08,-11.88,-3.07,-11.87,11.87,11.48,12.52,8.79,8.80,8.81
42.60,-2.96,-11.76,-2.96,-11.76,11.76,11.38,12.30,8.79,8.80,8.80
43.03,-2.85,-11.65,-2.85,-11.64,11.64,11.28,12.09,8.79,8.79,8.80
43.46,-2.74,-11.53,-2.74,-11.52,11.52,11.18,11.88,8.79,8.79,8.79
43.90,-2.64,-11.41,-2.63,-11.41,11.41,11.08,11.68,8.77,8.78,8.77
44.33,-2.52,-11.29,-2.52,-11.30,11.30,10.98,11.49,8.78,8.78,8.78
44.78,-2.41,-11.17,-2.41,-11.18,11.18,10.89,11.31,8.78,8.77,8.77
45.23,-2.30,-11.05,-2.30,-11.07,11.07,10.79,11.13,8.77,8.77,8.76
45.68,-2.19,-10.94,-2.19,-10.95,10.95,10.69,10.96,8.77,8.76,8.76
46.13,-2.09,-10.83,-2.08,-10.84,10.84,10.59,10.79,8.75,8.76,8.75
46.60,-1.98,-10.73,-1.98,-10.73,10.73,10.50,10.63,8.75,8.75,8.75
47.06,-1.88,-10.62,-1.87,-10.61,10.61,10.40,10.47,8.74,8.74,8.74
47.53,-1.77,-10.50,-1.77,-10.50,10.50,10.31,10.32,8.73,8.73,8.73
48.01,-1.67,-10.41,-1.67,-10.38,10.38,10.21,10.17,8.72,8.72,8.74
48.49,-1.57,-10.28,-1.56,-10.27,10.27,10.12,10.03,8.70,8.71,8.72
48.97,-1.47,-10.16,-1.46,-10.16,10.16,10.02,9.89,8.69,8.70,8.69
49.46,-1.37,-10.05,-1.36,-10.05,10.05,9.93,9.76,8.68,8.68,8.68
49.96,-1.27,-9.92,-1.26,-9.93,9.93,9.83,9.63,8.66,8.67,8.66
50.46,-1.17,-9.82,-1.17,-9.82,9.82,9.74,9.50,8.65,8.65,8.65
50.96,-1.08,-9.71,-1.07,-9.70,9.70,9.64,9.38,8.63,8.63,8.64
51.47,-0.98,-9.58,-0.98,-9.59,9.59,9.55,9.26,8.61,8.61,8.60
51.99,-0.88,-9.46,-0.89,-9.48,9.48,9.45,9.15,8.60,8.59,8.59
52.51,-0.79,-9.37,-0.79,-9.37,9.37,9.36,9.03,8.58,8.57,8.58
53.03,-0.71,-9.26,-0.71,-9.26,9.26,9.27,8.92,8.55,8.55,8.55
53.56,-0.62,-9.15,-0.62,-9.15,9.15,9.17,8.82,8.53,8.53,8.54
54.10,-0.54,-9.04,-0.54,-9.04,9.04,9.08,8.71,8.51,8.51,8.51
54.64,-0.45,-8.93,-0.46,-8.94,8.94,8.99,8.61,8.49,8.48,8.49
55.18,-0.38,-8.83,-0.38,-8.84,8.84,8.89,8.51,8.46,8.46,8.46
55.74,-0.31,-8.74,-0.30,-8.74,8.74,8.80,8.41,8.43,8.44,8.43
56.29,-0.24,-8.65,-0.23,-8.64,8.64,8.71,8.32,8.41,8.41,8.42
56.86,-0.16,-8.54,-0.15,-8.54,8.54,8.61,8.22,8.39,8.39,8.39
57.42,-0.08,-8.43,-0.08,-8.45,8.45,8.52,8.13,8.37,8.36,8.35
58.00,-0.01,-8.34,-0.01,-8.35,8.35,8.43,8.03,8.34,8.34,8.33
58.58,0.05,-8.25,0.06,-8.25,8.25,8.33,7.94,8.30,8.31,8.31
59.16,0.12,-8.16,0.12,-8.15,8.15,8.24,7.85,8.28,8.28,8.28
59.76,0.18,-8.07,0.19,-8.06,8.06,8.15,7.75,8.24,8.24,8.26
60.35,0.25,-7.97,0.25,-7.96,7.96,8.05,7.66,8.21,8.21,8.22
60.96,0.31,-7.87,0.31,-7.86,7.86,7.96,7.57,8.17,8.17,8.18
61.57,0.37,-7.76,0.37,-7.76,7.76,7.86,7.48,8.14,8.14,8.14
62.18,0.44,-7.65,0.44,-7.66,7.66,7.77,7.38,8.11,8.10,8.09
62.80,0.50,-7.56,0.50,-7.56,7.56,7.68,7.29,8.07,8.06,8.06
63.43,0.55,-7.46,0.56,-7.46,7.46,7.58,7.20,8.02,8.02,8.01
64.07,0.61,-7.36,0.62,-7.36,7.36,7.49,7.11,7.97,7.98,7.97
64.71,0.66,-7.26,0.68,-7.26,7.26,7.39,7.01,7.92,7.93,7.93
65.35,0.72,-7.16,0.73,-7.15,7.15,7.30,6.92,7.88,7.89,7.88
66.01,0.78,-7.06,0.79,-7.05,7.05,7.20,6.83,7.83,7.84,7.84
66.67,0.85,-6.95,0.85,-6.95,6.95,7.11,6.73,7.80,7.80,7.81
67.33,0.91,-6.85,0.91,-6.84,6.84,7.01,6.64,7.76,7.75,7.76
68.01,0.97,-6.74,0.97,-6.74,6.74,6.92,6.55,7.71,7.71,7.71
68.69,1.03,-6.63,1.03,-6.64,6.64,6.82,6.45,7.67,7.66,7.67
69.37,1.08,-6.53,1.09,-6.53,6.53,6.73,6.36,7.62,7.62,7.62
70.07,1.14,-6.43,1.14,-6.43,6.43,6.63,6.27,7.57,7.57,7.57
70.77,1.19,-6.34,1.20,-6.33,6.33,6.54,6.18,7.52,7.53,7.53
71.48,1.25,-6.23,1.26,-6.23,6.23,6.44,6.09,7.48,7.48,7.49
72.19,1.31,-6.12,1.31,-6.13,6.13,6.35,6.00,7.44,7.44,7.44
72.91,1.36,-6.03,1.37,-6.03,6.03,6.26,5.91,7.39,7.40,7.39
73.64,1.42,-5.92,1.42,-5.93,5.93,6.17,5.82,7.36,7.35,7.35
74.38,1.47,-5.84,1.47,-5.84,5.84,6.07,5.74,7.31,7.31,7.31
75.12,1.52,-5.74,1.52,-5.75,5.75,5.98,5.65,7.27,7.27,7.27
75.87,1.56,-5.67,1.57,-5.66,5.66,5.89,5.57,7.22,7.23,7.23
76.63,1.61,-5.58,1.62,-5.57,5.57,5.80,5.49,7.19,7.19,7.19
77.40,1.66,-5.49,1.66,-5.49,5.49,5.72,5.41,7.16,7.15,7.15
78.17,1.70,-5.41,1.70,-5.42,5.42,5.63,5.33,7.12,7.12,7.11
78.95,1.73,-5.35,1.74,-5.35,5.35,5.55,5.25,7.08,7.08,7.08
79.74,1.77,-5.28,1.77,-5.28,5.28,5.46,5.18,7.05,7.05,7.05
80.54,1.80,-5.21,1.80,-5.22,5.22,5.38,5.11,7.02,7.01,7.02
81.35,1.83,-5.15,1.82,-5.16,5.16,5.30,5.04,7.00,6.98,6.98
82.16,1.84,-5.10,1.84,-5.11,5.11,5.23,4.97,6.95,6.95,6.95
82.98,1.86,-5.06,1.85,-5.06,5.06,5.15,4.91,6.93,6.92,6.92
83.81,1.86,-5.02,1.87,-5.02,5.02,5.08,4.85,6.89,6.89,6.89
84.65,1.87,-4.98,1.87,-4.98,4.98,5.01,4.79,6.86,6.86,6.85
85.50,1.88,-4.95,1.88,-4.95,4.95,4.94,4.73,6.83,6.83,6.83
86.35,1.89,-4.91,1.88,-4.92,4.92,4.88,4.67,6.81,6.80,6.80
87.22,1.88,-4.89,1.88,-4.89,4.89,4.82,4.62,6.78,6.77,6.77
88.09,1.87,-4.87,1.88,-4.87,4.87,4.76,4.57,6.74,6.75,6.74
88.97,1.86,-4.86,1.88,-4.84,4.84,4.70,4.52,6.71,6.72,6.72
89.86,1.86,-4.84,1.87,-4.82,4.82,4.65,4.47,6.68,6.69,6.70
90.76,1.86,-4.79,1.87,-4.79,4.79,4.60,4.43,6.66,6.66,6.66
91.66,1.86,-4.77,1.87,-4.77,4.77,4.55,4.39,6.63,6.64,6.63
92.58,1.86,-4.74,1.87,-4.74,4.74,4.50,4.35,6.60,6.61,6.60
93.51,1.86,-4.72,1.87,-4.71,4.71,4.46,4.31,6.58,6.58,6.59
94.44,1.86,-4.69,1.86,-4.68,4.68,4.41,4.27,6.55,6.55,6.55
95.39,1.86,-4.66,1.86,-4.65,4.65,4.37,4.24,6.52,6.51,6.52
96.34,1.86,-4.62,1.86,-4.62,4.62,4.33,4.21,6.48,6.48,6.48
97.30,1.86,-4.58,1.86,-4.58,4.58,4.29,4.18,6.45,6.45,6.44
98.28,1.86,-4.54,1.86,-4.55,4.55,4.26,4.15,6.41,6.41,6.41
99.26,1.86,-4.51,1.86,-4.51,4.51,4.22,4.12,6.37,6.37,6.37
100.25,1.86,-4.47,1.86,-4.47,4.47,4.19,4.10,6.33,6.33,6.33
101.25,1.86,-4.43,1.86,-4.43,4.43,4.15,4.07,6.29,6.29,6.30
102.27,1.86,-4.38,1.86,-4.39,4.39,4.12,4.05,6.25,6.25,6.25
103.29,1.86,-4.34,1.86,-4.34,4.34,4.09,4.03,6.21,6.20,6.20
104.32,1.86,-4.30,1.86,-4.29,4.29,4.06,4.01,6.16,6.16,6.16
105.37,1.86,-4.25,1.86,-4.24,4.24,4.03,3.99,6.11,6.11,6.11
106.42,1.86,-4.19,1.87,-4.19,4.19,4.00,3.98,6.05,6.05,6.06
107.48,1.86,-4.15,1.87,-4.13,4.13,3.96,3.96,5.99,6.00,6.01
108.56,1.86,-4.08,1.87,-4.07,4.07,3.93,3.94,5.93,5.94,5.94
109.64,1.86,-4.02,1.88,-4.01,4.01,3.90,3.92,5.87,5.88,5.88
110.74,1.86,-3.96,1.88,-3.94,3.94,3.87,3.91,5.80,5.82,5.83
111.85,1.87,-3.89,1.88,-3.87,3.87,3.84,3.89,5.75,5.75,5.76
112.97,1.87,-3.81,1.88,-3.81,3.81,3.81,3.87,5.68,5.69,5.68
114.10,1.88,-3.74,1.87,-3.74,3.74,3.78,3.86,5.63,5.62,5.63
115.24,1.88,-3.67,1.87,-3.68,3.68,3.75,3.84,5.57,5.55,5.55
116.39,1.87,-3.60,1.86,-3.62,3.62,3.72,3.82,5.50,5.48,5.47
117.55,1.86,-3.54,1.85,-3.57,3.57,3.69,3.80,5.43,5.41,5.41
118.73,1.85,-3.48,1.83,-3.51,3.51,3.66,3.78,5.37,5.35,5.33
119.92,1.82,-3.46,1.81,-3.47,3.47,3.63,3.75,5.29,5.28,5.28
121.12,1.79,-3.41,1.79,-3.42,3.42,3.60,3.73,5.22,5.21,5.21
122.33,1.77,-3.37,1.76,-3.39,3.39,3.57,3.70,5.16,5.15,5.14
123.55,1.74,-3.35,1.73,-3.35,3.35,3.54,3.68,5.09,5.08,5.09
124.79,1.70,-3.32,1.70,-3.32,3.32,3.51,3.65,5.02,5.02,5.03
126.03,1.66,-3.30,1.68,-3.29,3.29,3.48,3.62,4.95,4.96,4.97
127.29,1.64,-3.26,1.65,-3.25,3.25,3.45,3.58,4.89,4.90,4.91
128.57,1.61,-3.22,1.63,-3.22,3.22,3.42,3.55,4.83,4.85,4.84
129.85,1.57,-3.21,1.61,-3.18,3.18,3.39,3.51,4.75,4.79,4.79
131.15,1.55,-3.17,1.59,-3.14,3.14,3.36,3.48,4.70,4.73,4.73
132.46,1.54,-3.14,1.57,-3.11,3.11,3.33,3.44,4.65,4.68,4.68
133.79,1.54,-3.09,1.56,-3.07,3.07,3.30,3.40,4.61,4.63,4.63
135.12,1.54,-3.03,1.54,-3.03,3.03,3.27,3.36,4.58,4.58,4.58
136.48,1.54,-2.99,1.53,-3.00,3.00,3.24,3.31,4.54,4.53,4.53
137.84,1.54,-2.94,1.52,-2.96,2.96,3.21,3.27,4.51,4.48,4.48
139.22,1.53,-2.89,1.50,-2.93,2.93,3.18,3.23,4.46,4.43,4.43
140.61,1.52,-2.85,1.49,-2.90,2.90,3.15,3.18,4.42,4.39,4.37
142.02,1.48,-2.86,1.47,-2.87,2.87,3.12,3.13,4.35,4.34,4.34
143.44,1.46,-2.84,1.46,-2.84,2.84,3.09,3.09,4.30,4.30,4.30
144.87,1.42,-2.83,1.43,-2.82,2.82,3.06,3.04,4.24,4.25,4.25
146.32,1.40,-2.80,1.41,-2.80,2.80,3.03,3.00,4.20,4.20,4.20
147.78,1.37,-2.79,1.38,-2.78,2.78,3.00,2.95,4.15,4.16,4.17
149.26,1.34,-2.78,1.35,-2.76,2.76,2.97,2.91,4.10,4.11,4.12
150.75,1.31,-2.74,1.32,-2.74,2.74,2.95,2.86,4.06,4.06,4.06
152.26,1.29,-2.72,1.29,-2.72,2.72,2.92,2.82,4.02,4.01,4.01
153.78,1.26,-2.70,1.26,-2.70,2.70,2.89,2.77,3.97,3.96,3.97
155.32,1.23,-2.67,1.23,-2.68,2.68,2.86,2.73,3.91,3.91,3.91
156.88,1.18,-2.68,1.21,-2.65,2.65,2.83,2.69,3.84,3.86,3.86
158.44,1.16,-2.65,1.18,-2.63,2.63,2.81,2.65,3.79,3.81,3.81
160.03,1.12,-2.63,1.15,-2.61,2.61,2.78,2.61,3.73,3.76,3.75
161.63,1.11,-2.58,1.12,-2.59,2.59,2.75,2.57,3.70,3.71,3.70
163.24,1.10,-2.54,1.09,-2.57,2.57,2.73,2.53,3.67,3.65,3.65
164.88,1.07,-2.53,1.05,-2.54,2.54,2.70,2.49,3.62,3.60,3.60
166.53,1.05,-2.49,1.02,-2.52,2.52,2.67,2.46,3.58,3.54,3.55
168.19,1.01,-2.48,0.98,-2.51,2.51,2.65,2.42,3.52,3.49,3.49
169.87,0.96,-2.47,0.95,-2.48,2.48,2.62,2.39,3.45,3.43,3.44
171.57,0.91,-2.47,0.92,-2.46,2.46,2.60,2.36,3.38,3.38,3.38
173.29,0.87,-2.45,0.88,-2.44,2.44,2.57,2.33,3.31,3.32,3.32
175.02,0.80,-2.47,0.84,-2.42,2.42,2.55,2.30,3.22,3.26,3.27
176.77,0.77,-2.43,0.80,-2.40,2.40,2.53,2.27,3.17,3.20,3.20
178.54,0.74,-2.40,0.76,-2.38,2.38,2.50,2.25,3.12,3.14,3.14
180.32,0.72,-2.36,0.72,-2.36,2.36,2.48,2.23,3.08,3.08,3.08
182.13,0.69,-2.33,0.68,-2.34,2.34,2.46,2.20,3.03,3.02,3.02
183.95,0.66,-2.29,0.64,-2.32,2.32,2.44,2.18,2.98,2.96,2.96
185.79,0.62,-2.28,0.60,-2.29,2.29,2.41,2.16,2.92,2.90,2.90
187.65,0.58,-2.24,0.57,-2.27,2.27,2.39,2.14,2.85,2.84,2.83
189.52,0.53,-2.24,0.53,-2.24,2.24,2.37,2.13,2.78,2.78,2.77
191.42,0.49,-2.22,0.50,-2.22,2.22,2.35,2.11,2.71,2.72,2.72
193.33,0.45,-2.21,0.47,-2.20,2.20,2.33,2.10,2.65,2.66,2.66
195.27,0.42,-2.19,0.43,-2.17,2.17,2.31,2.08,2.60,2.60,2.61
197.22,0.39,-2.16,0.40,-2.15,2.15,2.29,2.07,2.55,2.55,2.55
199.19,0.37,-2.12,0.36,-2.13,2.13,2.27,2.06,2.51,2.50,2.49
201.18,0.34,-2.10,0.34,-2.11,2.11,2.26,2.05,2.45,2.44,2.44
203.19,0.31,-2.09,0.31,-2.08,2.08,2.24,2.04,2.40,2.39,2.40
205.23,0.28,-2.06,0.29,-2.06,2.06,2.22,2.03,2.34,2.34,2.34
207.28,0.26,-2.05,0.27,-2.02,2.02,2.20,2.03,2.29,2.30,2.31
209.35,0.24,-2.01,0.26,-1.99,1.99,2.19,2.02,2.24,2.25,2.25
211.44,0.22,-1.97,0.25,-1.96,1.96,2.17,2.01,2.18,2.21,2.20
213.56,0.22,-1.94,0.24,-1.92,1.92,2.16,2.01,2.15,2.16,2.16
215.69,0.22,-1.91,0.24,-1.89,1.89,2.14,2.00,2.11,2.12,2.13
217.85,0.23,-1.85,0.23,-1.85,1.85,2.12,2.00,2.09,2.09,2.09
220.03,0.24,-1.80,0.23,-1.82,1.82,2.11,2.00,2.06,2.05,2.04
222.23,0.24,-1.77,0.23,-1.79,1.79,2.10,1.99,2.03,2.02,2.01
224.45,0.24,-1.74,0.23,-1.75,1.75,2.08,1.99,2.00,1.99,1.98
226.70,0.24,-1.72,0.24,-1.72,1.72,2.07,1.99,1.97,1.96,1.96
228.96,0.24,-1.68,0.24,-1.69,1.69,2.06,1.98,1.94,1.93,1.93
231.25,0.24,-1.67,0.24,-1.67,1.67,2.05,1.98,1.91,1.91,1.92
233.57,0.24,-1.65,0.24,-1.65,1.65,2.03,1.98,1.89,1.89,1.89
235.90,0.24,-1.63,0.25,-1.63,1.63,2.02,1.97,1.88,1.88,1.87
238.26,0.24,-1.62,0.25,-1.62,1.62,2.01,1.97,1.86,1.86,1.86
240.64,0.24,-1.61,0.25,-1.61,1.61,2.00,1.96,1.85,1.85,1.85
243.05,0.24,-1.61,0.24,-1.60,1.60,1.99,1.96,1.84,1.85,1.85
245.48,0.24,-1.59,0.24,-1.60,1.60,1.98,1.95,1.84,1.84,1.84
247.93,0.24,-1.60,0.24,-1.60,1.60,1.97,1.95,1.84,1.84,1.84
250.41,0.24,-1.59,0.24,-1.60,1.60,1.96,1.94,1.84,1.84,1.83
252.92,0.24,-1.60,0.24,-1.60,1.60,1.96,1.93,1.84,1.84,1.84
255.45,0.24,-1.61,0.24,-1.60,1.60,1.95,1.92,1.85,1.84,1.85
258.00,0.24,-1.61,0.24,-1.61,1.61,1.94,1.92,1.85,1.85,1.85
260.58,0.24,-1.61,0.24,-1.61,1.61,1.93,1.91,1.86,1.86,1.85
263.19,0.24,-1.62,0.25,-1.62,1.62,1.93,1.90,1.86,1.87,1.87
265.82,0.24,-1.63,0.25,-1.63,1.63,1.92,1.89,1.87,1.88,1.87
268.48,0.24,-1.65,0.25,-1.63,1.63,1.92,1.88,1.88,1.89,1.89
271.16,0.24,-1.66,0.26,-1.64,1.64,1.91,1.87,1.89,1.90,1.91
273.87,0.24,-1.66,0.26,-1.65,1.65,1.91,1.86,1.90,1.91,1.91
276.61,0.25,-1.68,0.26,-1.66,1.66,1.90,1.85,1.92,1.92,1.93
279.38,0.25,-1.68,0.26,-1.68,1.68,1.90,1.83,1.93,1.94,1.94
282.17,0.26,-1.69,0.25,-1.69,1.69,1.89,1.82,1.96,1.95,1.95
284.99,0.26,-1.70,0.25,-1.71,1.71,1.89,1.81,1.98,1.96,1.96
287.84,0.25,-1.71,0.24,-1.73,1.73,1.89,1.80,1.99,1.97,1.97
290.72,0.24,-1.74,0.22,-1.76,1.76,1.89,1.79,2.00,1.99,1.98
293.63,0.22,-1.77,0.21,-1.79,1.79,1.88,1.78,2.01,2.00,2.00
296.57,0.20,-1.81,0.19,-1.82,1.82,1.88,1.77,2.03,2.01,2.01
299.53,0.17,-1.84,0.16,-1.86,1.86,1.88,1.77,2.03,2.02,2.02
302.53,0.14,-1.88,0.14,-1.90,1.90,1.88,1.76,2.04,2.03,2.02
305.55,0.11,-1.93,0.11,-1.94,1.94,1.88,1.75,2.05,2.04,2.05
308.61,0.07,-1.98,0.08,-1.98,1.98,1.88,1.74,2.05,2.05,2.05
311.69,0.04,-2.02,0.05,-2.02,2.02,1.88,1.74,2.06,2.06,2.06
314.81,0.01,-2.07,0.02,-2.05,2.05,1.88,1.73,2.07,2.07,2.09
317.96,-0.02,-2.10,-0.01,-2.08,2.08,1.88,1.73,2.07,2.08,2.08
321.14,-0.04,-2.12,-0.02,-2.11,2.11,1.88,1.73,2.08,2.09,2.09
324.35,-0.07,-2.15,-0.04,-2.13,2.13,1.89,1.73,2.07,2.09,2.08
327.59,-0.09,-2.19,-0.05,-2.15,2.15,1.89,1.72,2.06,2.10,2.10
330.87,-0.10,-2.19,-0.06,-2.16,2.16,1.89,1.73,2.07,2.10,2.10
334.18,-0.10,-2.19,-0.07,-2.17,2.17,1.89,1.73,2.08,2.10,2.10
337.52,-0.09,-2.19,-0.07,-2.18,2.18,1.90,1.73,2.09,2.10,2.10
340.90,-0.08,-2.19,-0.08,-2.18,2.18,1.90,1.74,2.11,2.10,2.11
344.30,-0.07,-2.17,-0.08,-2.19,2.19,1.91,1.74,2.12,2.10,2.11
347.75,-0.06,-2.16,-0.09,-2.19,2.19,1.91,1.75,2.13,2.10,2.10
351.23,-0.07,-2.17,-0.10,-2.20,2.20,1.91,1.76,2.13,2.10,2.10
354.74,-0.08,-2.17,-0.11,-2.20,2.20,1.92,1.77,2.13,2.09,2.10
358.28,-0.11,-2.19,-0.13,-2.22,2.22,1.92,1.78,2.11,2.09,2.09
361.87,-0.13,-2.21,-0.14,-2.23,2.23,1.93,1.79,2.10,2.08,2.08
365.49,-0.16,-2.24,-0.17,-2.25,2.25,1.93,1.80,2.09,2.08,2.08
369.14,-0.19,-2.26,-0.19,-2.27,2.27,1.94,1.82,2.08,2.07,2.07
372.83,-0.23,-2.29,-0.22,-2.29,2.29,1.95,1.83,2.06,2.06,2.07
376.56,-0.27,-2.32,-0.26,-2.31,2.31,1.95,1.85,2.05,2.06,2.06
380.33,-0.30,-2.35,-0.29,-2.34,2.34,1.96,1.87,2.04,2.05,2.05
384.13,-0.33,-2.37,-0.32,-2.36,2.36,1.97,1.89,2.03,2.04,2.04
387.97,-0.36,-2.39,-0.34,-2.37,2.37,1.97,1.91,2.02,2.03,2.03
391.85,-0.38,-2.39,-0.36,-2.39,2.39,1.98,1.93,2.01,2.03,2.02
395.77,-0.40,-2.42,-0.38,-2.40,2.40,1.99,1.95,2.00,2.02,2.03
399.73,-0.42,-2.43,-0.39,-2.41,2.41,2.00,1.97,1.99,2.01,2.01
403.72,-0.43,-2.43,-0.41,-2.41,2.41,2.00,2.00,1.99,2.01,2.00
407.76,-0.43,-2.42,-0.42,-2.42,2.42,2.01,2.02,1.99,2.00,1.99
411.84,-0.42,-2.42,-0.42,-2.42,2.42,2.02,2.05,2.00,2.00,2.00
415.96,-0.41,-2.40,-0.43,-2.42,2.42,2.03,2.07,2.01,1.99,1.99
420.12,-0.41,-2.39,-0.43,-2.42,2.42,2.04,2.10,2.01,1.99,1.99
424.32,-0.41,-2.39,-0.43,-2.41,2.41,2.04,2.12,2.01,1.98,1.99
428.56,-0.41,-2.38,-0.43,-2.41,2.41,2.05,2.15,2.00,1.98,1.98
432.85,-0.42,-2.39,-0.43,-2.40,2.40,2.06,2.17,1.99,1.98,1.97
437.18,-0.43,-2.40,-0.42,-2.40,2.40,2.07,2.20,1.97,1.98,1.97
441.55,-0.43,-2.41,-0.41,-2.39,2.39,2.08,2.22,1.96,1.98,1.98
445.96,-0.43,-2.41,-0.40,-2.38,2.38,2.09,2.25,1.95,1.98,1.98
450.42,-0.41,-2.38,-0.39,-2.37,2.37,2.09,2.27,1.96,1.98,1.97
454.93,-0.39,-2.37,-0.37,-2.35,2.35,2.10,2.29,1.97,1.98,1.98
459.48,-0.37,-2.34,-0.35,-2.34,2.34,2.11,2.31,1.97,1.98,1.98
464.07,-0.35,-2.33,-0.33,-2.32,2.32,2.12,2.33,1.97,1.99,1.99
468.71,-0.32,-2.31,-0.30,-2.30,2.30,2.13,2.35,1.98,1.99,2.00
473.40,-0.28,-2.27,-0.27,-2.27,2.27,2.14,2.36,2.00,2.00,2.00
478.13,-0.25,-2.25,-0.24,-2.25,2.25,2.15,2.38,2.00,2.00,2.01
482.91,-0.21,-2.21,-0.21,-2.22,2.22,2.15,2.39,2.01,2.01,2.00
487.74,-0.18,-2.19,-0.18,-2.20,2.20,2.16,2.40,2.02,2.01,2.01
492.62,-0.15,-2.17,-0.16,-2.17,2.17,2.17,2.41,2.03,2.02,2.02
497.55,-0.12,-2.14,-0.13,-2.16,2.16,2.18,2.42,2.04,2.02,2.02
502.52,-0.10,-2.13,-0.11,-2.14,2.14,2.19,2.42,2.04,2.03,2.03
507.55,-0.08,-2.11,-0.10,-2.13,2.13,2.19,2.42,2.05,2.03,2.03
