frequency,raw,error,smoothed,error_smoothed,equalization,parametric_eq,fixed_band_eq,equalized_raw,equalized_smoothed,target
20.00,-4.70,-7.37,-4.72,-7.41,7.41,7.52,2.26,2.71,2.69,2.67
20.20,-4.66,-7.33,-4.68,-7.36,7.36,7.48,2.32,2.70,2.68,2.67
20.40,-4.63,-7.30,-4.63,-7.30,7.30,7.44,2.39,2.67,2.67,2.67
20.61,-4.59,-7.26,-4.59,-7.25,7.25,7.40,2.46,2.65,2.66,2.67
20.81,-4.54,-7.21,-4.54,-7.19,7.19,7.35,2.53,2.65,2.65,2.67
21.02,-4.51,-7.18,-4.49,-7.13,7.13,7.30,2.60,2.62,2.64,2.66
21.23,-4.45,-7.10,-4.44,-7.07,7.07,7.25,2.68,2.62,2.63,2.64
21.44,-4.41,-7.05,-4.39,-7.01,7.01,7.20,2.76,2.60,2.62,2.63
21.66,-4.36,-6.98,-4.35,-6.95,6.95,7.14,2.84,2.58,2.60,2.61
21.87,-4.31,-6.90,-4.30,-6.88,6.88,7.09,2.92,2.57,2.59,2.59
22.09,-4.24,-6.82,-4.25,-6.82,6.82,7.03,3.00,2.58,2.57,2.58
22.31,-4.19,-6.74,-4.20,-6.75,6.75,6.97,3.09,2.56,2.55,2.55
22.54,-4.14,-6.67,-4.15,-6.68,6.68,6.91,3.18,2.54,2.53,2.53
22.76,-4.08,-6.59,-4.10,-6.61,6.61,6.85,3.27,2.52,2.51,2.51
22.99,-4.03,-6.51,-4.05,-6.53,6.53,6.78,3.36,2.50,2.49,2.48
23.22,-3.99,-6.44,-4.00,-6.46,6.46,6.72,3.46,2.47,2.46,2.45
23.45,-3.94,-6.37,-3.94,-6.39,6.39,6.66,3.56,2.44,2.44,2.43
23.69,-3.89,-6.31,-3.89,-6.31,6.31,6.59,3.66,2.42,2.42,2.42
23.92,-3.84,-6.24,-3.84,-6.24,6.24,6.52,3.76,2.40,2.40,2.40
24.16,-3.80,-6.19,-3.79,-6.17,6.17,6.46,3.86,2.37,2.38,2.38
24.40,-3.75,-6.12,-3.75,-6.10,6.10,6.39,3.97,2.35,2.36,2.36
24.65,-3.70,-6.05,-3.70,-6.04,6.04,6.32,4.08,2.33,2.34,2.34
24.89,-3.65,-5.97,-3.65,-5.97,5.97,6.25,4.18,2.32,2.32,2.32
25.14,-3.60,-5.91,-3.60,-5.90,5.90,6.19,4.29,2.30,2.31,2.31
25.39,-3.54,-5.83,-3.55,-5.84,5.84,6.12,4.40,2.30,2.29,2.29
25.65,-3.49,-5.77,-3.50,-5.77,5.77,6.05,4.52,2.28,2.27,2.28
25.91,-3.44,-5.69,-3.45,-5.71,5.71,5.98,4.63,2.26,2.26,2.25
26.16,-3.39,-5.63,-3.40,-5.64,5.64,5.91,4.74,2.25,2.24,2.24
26.43,-3.35,-5.58,-3.35,-5.58,5.58,5.85,4.85,2.22,2.22,2.23
26.69,-3.30,-5.51,-3.30,-5.51,5.51,5.78,4.96,2.21,2.21,2.20
26.96,-3.25,-5.45,-3.25,-5.44,5.44,5.71,5.06,2.19,2.19,2.19
27.23,-3.20,-5.39,-3.20,-5.38,5.38,5.64,5.17,2.17,2.18,2.18
27.50,-3.16,-5.33,-3.15,-5.31,5.31,5.58,5.27,2.15,2.16,2.17
27.77,-3.10,-5.25,-3.10,-5.25,5.25,5.51,5.37,2.15,2.15,2.15
28.05,-3.05,-5.19,-3.05,-5.19,5.19,5.45,5.47,2.14,2.14,2.14
28.33,-3.00,-5.12,-3.01,-5.13,5.13,5.38,5.56,2.12,2.12,2.12
28.62,-2.95,-5.06,-2.96,-5.07,5.07,5.32,5.64,2.11,2.11,2.10
28.90,-2.91,-5.00,-2.91,-5.01,5.01,5.25,5.72,2.09,2.10,2.09
29.19,-2.86,-4.93,-2.86,-4.95,4.95,5.19,5.79,2.08,2.08,2.07
29.48,-2.81,-4.88,-2.82,-4.89,4.89,5.13,5.86,2.07,2.07,2.07
29.78,-2.77,-4.83,-2.78,-4.83,4.83,5.07,5.92,2.06,2.05,2.06
30.08,-2.73,-4.78,-2.73,-4.77,4.77,5.01,5.96,2.04,2.04,2.04
30.38,-2.70,-4.73,-2.69,-4.72,4.72,4.95,6.00,2.01,2.02,2.02
30.68,-2.65,-4.66,-2.66,-4.66,4.66,4.89,6.03,2.01,2.01,2.01
30.99,-2.61,-4.60,-2.62,-4.61,4.61,4.83,6.06,2.00,1.99,1.99
31.30,-2.58,-4.56,-2.59,-4.56,4.56,4.77,6.07,1.98,1.97,1.98
31.61,-2.55,-4.52,-2.55,-4.51,4.51,4.71,6.07,1.96,1.96,1.96
31.93,-2.52,-4.46,-2.52,-4.46,4.46,4.66,6.06,1.94,1.94,1.94
32.24,-2.50,-4.41,-2.49,-4.41,4.41,4.60,6.04,1.91,1.92,1.91
32.57,-2.46,-4.36,-2.47,-4.36,4.36,4.55,6.02,1.90,1.90,1.90
32.89,-2.44,-4.32,-2.44,-4.32,4.32,4.50,5.98,1.87,1.88,1.88
33.22,-2.41,-4.26,-2.42,-4.27,4.27,4.45,5.94,1.86,1.85,1.85
33.55,-2.39,-4.23,-2.39,-4.23,4.23,4.39,5.89,1.83,1.83,1.84
33.89,-2.37,-4.19,-2.37,-4.18,4.18,4.34,5.83,1.81,1.81,1.81
34.23,-2.35,-4.14,-2.35,-4.14,4.14,4.30,5.77,1.79,1.79,1.79
34.57,-2.33,-4.10,-2.33,-4.10,4.10,4.25,5.70,1.77,1.77,1.77
34.92,-2.31,-4.06,-2.31,-4.06,4.06,4.20,5.62,1.74,1.75,1.74
35.27,-2.29,-4.02,-2.29,-4.02,4.02,4.16,5.54,1.73,1.73,1.73
35.62,-2.27,-3.98,-2.28,-3.98,3.98,4.11,5.46,1.71,1.71,1.70
35.97,-2.26,-3.94,-2.26,-3.94,3.94,4.07,5.37,1.68,1.68,1.68
36.33,-2.24,-3.91,-2.25,-3.91,3.91,4.03,5.28,1.66,1.66,1.67
36.70,-2.23,-3.87,-2.23,-3.87,3.87,3.98,5.19,1.64,1.64,1.64
37.06,-2.21,-3.83,-2.22,-3.84,3.84,3.94,5.10,1.63,1.62,1.62
37.43,-2.20,-3.80,-2.21,-3.80,3.80,3.91,5.00,1.60,1.60,1.60
37.81,-2.19,-3.77,-2.20,-3.77,3.77,3.87,4.91,1.58,1.57,1.58
38.19,-2.18,-3.74,-2.19,-3.74,3.74,3.83,4.82,1.56,1.55,1.55
38.57,-2.18,-3.72,-2.18,-3.71,3.71,3.79,4.72,1.53,1.53,1.54
38.95,-2.17,-3.68,-2.17,-3.68,3.68,3.76,4.63,1.51,1.51,1.51
39.34,-2.16,-3.65,-2.16,-3.65,3.65,3.73,4.54,1.49,1.49,1.49
39.74,-2.15,-3.61,-2.15,-3.62,3.62,3.69,4.45,1.47,1.47,1.46
40.14,-2.14,-3.60,-2.14,-3.59,3.59,3.66,4.37,1.45,1.45,1.45
40.54,-2.14,-3.57,-2.14,-3.57,3.57,3.63,4.28,1.42,1.43,1.43
40.94,-2.12,-3.53,-2.13,-3.54,3.54,3.60,4.20,1.42,1.41,1.41
41.35,-2.12,-3.51,-2.12,-3.51,3.51,3.57,4.12,1.39,1.39,1.38
41.76,-2.11,-3.49,-2.12,-3.49,3.49,3.54,4.04,1.37,1.37,1.38
42.18,-2.11,-3.47,-2.11,-3.46,3.46,3.52,3.96,1.35,1.35,1.36
42.60,-2.10,-3.43,-2.10,-3.43,3.43,3.49,3.89,1.33,1.33,1.33
43.03,-2.10,-3.43,-2.10,-3.41,3.41,3.46,3.82,1.30,1.31,1.32
43.46,-2.09,-3.39,-2.09,-3.38,3.38,3.44,3.75,1.29,1.29,1.29
43.90,-2.08,-3.35,-2.09,-3.36,3.36,3.42,3.69,1.27,1.27,1.27
44.33,-2.08,-3.33,-2.09,-3.33,3.33,3.39,3.63,1.25,1.25,1.25
44.78,-2.08,-3.31,-2.08,-3.31,3.31,3.37,3.57,1.23,1.23,1.23
45.23,-2.08,-3.28,-2.08,-3.29,3.29,3.35,3.51,1.21,1.21,1.20
45.68,-2.08,-3.26,-2.08,-3.27,3.27,3.33,3.46,1.18,1.19,1.18
46.13,-2.07,-3.23,-2.08,-3.24,3.24,3.30,3.41,1.17,1.16,1.16
46.60,-2.07,-3.22,-2.08,-3.22,3.22,3.28,3.36,1.15,1.14,1.15
47.06,-2.07,-3.20,-2.08,-3.20,3.20,3.26,3.31,1.13,1.12,1.12
47.53,-2.08,-3.19,-2.08,-3.18,3.18,3.24,3.27,1.09,1.10,1.10
48.01,-2.08,-3.17,-2.08,-3.15,3.15,3.22,3.23,1.07,1.07,1.09
48.49,-2.08,-3.14,-2.09,-3.13,3.13,3.21,3.19,1.05,1.05,1.06
48.97,-2.09,-3.12,-2.09,-3.11,3.11,3.19,3.16,1.02,1.03,1.03
49.46,-2.09,-3.08,-2.09,-3.09,3.09,3.17,3.12,1.00,1.00,0.99
49.96,-2.09,-3.05,-2.09,-3.07,3.07,3.15,3.09,0.97,0.98,0.96
50.46,-2.09,-3.05,-2.09,-3.04,3.04,3.13,3.06,0.95,0.95,0.95
50.96,-2.09,-3.02,-2.09,-3.02,3.02,3.11,3.03,0.93,0.93,0.93
51.47,-2.09,-2.99,-2.09,-2.99,2.99,3.09,3.01,0.90,0.90,0.89
51.99,-2.09,-2.96,-2.09,-2.97,2.97,3.07,2.98,0.87,0.87,0.87
52.51,-2.09,-2.94,-2.09,-2.94,2.94,3.05,2.96,0.85,0.85,0.85
53.03,-2.09,-2.92,-2.09,-2.91,2.91,3.03,2.93,0.82,0.82,0.82
53.56,-2.09,-2.89,-2.09,-2.88,2.88,3.00,2.91,0.79,0.79,0.80
54.10,-2.08,-2.85,-2.09,-2.86,2.86,2.98,2.89,0.77,0.77,0.77
54.64,-2.09,-2.83,-2.09,-2.83,2.83,2.96,2.86,0.73,0.74,0.74
55.18,-2.09,-2.80,-2.09,-2.80,2.80,2.93,2.84,0.71,0.71,0.71
55.74,-2.08,-2.76,-2.08,-2.77,2.77,2.91,2.82,0.69,0.69,0.68
56.29,-2.08,-2.74,-2.08,-2.74,2.74,2.88,2.80,0.65,0.66,0.66
56.86,-2.07,-2.70,-2.08,-2.70,2.70,2.85,2.77,0.63,0.63,0.63
57.42,-2.07,-2.67,-2.07,-2.67,2.67,2.82,2.75,0.60,0.60,0.59
58.00,-2.06,-2.64,-2.06,-2.64,2.64,2.79,2.72,0.57,0.57,0.57
58.58,-2.06,-2.60,-2.06,-2.60,2.60,2.76,2.69,0.54,0.54,0.54
59.16,-2.04,-2.56,-2.05,-2.56,2.56,2.73,2.66,0.52,0.51,0.51
59.76,-2.04,-2.53,-2.04,-2.52,2.52,2.69,2.63,0.48,0.48,0.49
60.35,-2.03,-2.49,-2.04,-2.48,2.48,2.65,2.60,0.45,0.45,0.45
60.96,-2.03,-2.47,-2.03,-2.44,2.44,2.62,2.56,0.41,0.42,0.44
61.57,-2.02,-2.41,-2.02,-2.40,2.40,2.58,2.52,0.38,0.39,0.39
62.18,-2.00,-2.35,-2.01,-2.36,2.36,2.54,2.48,0.36,0.36,0.35
62.80,-1.99,-2.31,-2.00,-2.32,2.32,2.50,2.44,0.33,0.32,0.32
63.43,-1.99,-2.27,-1.99,-2.28,2.28,2.45,2.39,0.29,0.29,0.28
64.07,-1.98,-2.23,-1.98,-2.24,2.24,2.41,2.35,0.26,0.26,0.25
64.71,-1.97,-2.20,-1.97,-2.20,2.20,2.36,2.30,0.23,0.23,0.23
65.35,-1.96,-2.16,-1.96,-2.16,2.16,2.32,2.24,0.20,0.20,0.20
66.01,-1.95,-2.12,-1.95,-2.12,2.12,2.27,2.19,0.17,0.17,0.17
66.67,-1.94,-2.08,-1.94,-2.08,2.08,2.22,2.13,0.14,0.14,0.14
67.33,-1.93,-2.04,-1.94,-2.04,2.04,2.17,2.07,0.11,0.11,0.11
68.01,-1.93,-2.01,-1.93,-2.00,2.00,2.11,2.01,0.07,0.08,0.08
68.69,-1.91,-1.96,-1.92,-1.96,1.96,2.06,1.94,0.05,0.04,0.05
69.37,-1.91,-1.92,-1.91,-1.92,1.92,2.00,1.88,0.01,0.01,0.01
70.07,-1.90,-1.88,-1.90,-1.88,1.88,1.95,1.81,-0.02,-0.02,-0.02
70.77,-1.89,-1.84,-1.90,-1.84,1.84,1.89,1.74,-0.05,-0.06,-0.05
71.48,-1.88,-1.79,-1.89,-1.80,1.80,1.84,1.67,-0.09,-0.09,-0.09
72.19,-1.88,-1.76,-1.88,-1.75,1.75,1.78,1.60,-0.13,-0.13,-0.12
72.91,-1.87,-1.71,-1.87,-1.71,1.71,1.72,1.52,-0.17,-0.17,-0.17
73.64,-1.87,-1.66,-1.87,-1.66,1.66,1.66,1.45,-0.21,-0.21,-0.21
74.38,-1.87,-1.63,-1.86,-1.61,1.61,1.60,1.37,-0.26,-0.25,-0.25
75.12,-1.85,-1.55,-1.86,-1.56,1.56,1.54,1.30,-0.29,-0.29,-0.30
75.87,-1.85,-1.51,-1.85,-1.52,1.52,1.48,1.22,-0.34,-0.34,-0.34
76.63,-1.84,-1.47,-1.85,-1.47,1.47,1.42,1.15,-0.38,-0.38,-0.38
77.40,-1.84,-1.42,-1.84,-1.41,1.41,1.35,1.07,-0.43,-0.43,-0.43
78.17,-1.83,-1.35,-1.84,-1.36,1.36,1.29,0.99,-0.47,-0.48,-0.49
78.95,-1.83,-1.32,-1.83,-1.31,1.31,1.23,0.91,-0.52,-0.52,-0.52
79.74,-1.83,-1.26,-1.83,-1.26,1.26,1.17,0.84,-0.58,-0.57,-0.57
80.54,-1.83,-1.21,-1.83,-1.20,1.20,1.10,0.76,-0.63,-0.63,-0.62
81.35,-1.82,-1.15,-1.83,-1.15,1.15,1.04,0.68,-0.67,-0.68,-0.68
82.16,-1.81,-1.08,-1.82,-1.10,1.10,0.98,0.60,-0.72,-0.73,-0.73
82.98,-1.82,-1.05,-1.82,-1.04,1.04,0.91,0.53,-0.78,-0.78,-0.78
83.81,-1.82,-0.98,-1.83,-0.99,0.99,0.85,0.45,-0.83,-0.84,-0.84
84.65,-1.83,-0.93,-1.83,-0.93,0.93,0.79,0.37,-0.90,-0.89,-0.90
85.50,-1.82,-0.88,-1.83,-0.88,0.88,0.72,0.29,-0.95,-0.95,-0.95
86.35,-1.83,-0.83,-1.83,-0.82,0.82,0.66,0.22,-1.01,-1.01,-1.01
87.22,-1.83,-0.77,-1.83,-0.77,0.77,0.59,0.14,-1.07,-1.06,-1.07
88.09,-1.83,-0.71,-1.83,-0.71,0.71,0.53,0.06,-1.12,-1.12,-1.13
88.97,-1.83,-0.65,-1.84,-0.65,0.65,0.47,-0.02,-1.18,-1.18,-1.18
89.86,-1.84,-0.60,-1.84,-0.60,0.60,0.40,-0.09,-1.25,-1.24,-1.24
90.76,-1.84,-0.53,-1.84,-0.54,0.54,0.34,-0.17,-1.30,-1.30,-1.31
91.66,-1.84,-0.48,-1.84,-0.48,0.48,0.27,-0.25,-1.36,-1.37,-1.37
92.58,-1.84,-0.40,-1.84,-0.42,0.42,0.21,-0.32,-1.43,-1.43,-1.44
93.51,-1.85,-0.37,-1.84,-0.35,0.35,0.15,-0.40,-1.50,-1.49,-1.48
94.44,-1.84,-0.29,-1.84,-0.29,0.29,0.08,-0.48,-1.56,-1.56,-1.55
95.39,-1.84,-0.23,-1.84,-0.22,0.22,0.02,-0.56,-1.62,-1.62,-1.61
96.34,-1.84,-0.15,-1.84,-0.15,0.15,-0.05,-0.63,-1.69,-1.69,-1.69
97.30,-1.84,-0.09,-1.84,-0.08,0.08,-0.11,-0.71,-1.76,-1.76,-1.76
98.28,-1.83,-0.01,-1.83,-0.01,0.01,-0.18,-0.79,-1.82,-1.82,-1.82
99.26,-1.82,0.08,-1.83,0.07,-0.07,-0.24,-0.86,-1.89,-1.89,-1.90
100.25,-1.82,0.14,-1.82,0.14,-0.14,-0.31,-0.94,-1.96,-1.97,-1.97
101.25,-1.81,0.22,-1.82,0.22,-0.22,-0.37,-1.02,-2.03,-2.04,-2.03
102.27,-1.80,0.31,-1.81,0.30,-0.30,-0.44,-1.09,-2.10,-2.11,-2.11
103.29,-1.80,0.39,-1.80,0.38,-0.38,-0.50,-1.17,-2.18,-2.18,-2.19
104.32,-1.79,0.46,-1.79,0.46,-0.46,-0.57,-1.24,-2.26,-2.26,-2.26
105.37,-1.78,0.54,-1.78,0.55,-0.55,-0.63,-1.32,-2.33,-2.33,-2.32
106.42,-1.77,0.63,-1.77,0.64,-0.64,-0.70,-1.39,-2.41,-2.40,-2.40
107.48,-1.76,0.72,-1.76,0.72,-0.72,-0.77,-1.46,-2.49,-2.48,-2.48
108.56,-1.74,0.81,-1.74,0.82,-0.82,-0.83,-1.53,-2.56,-2.56,-2.56
109.64,-1.72,0.91,-1.73,0.91,-0.91,-0.90,-1.60,-2.63,-2.63,-2.63
110.74,-1.71,0.99,-1.71,1.00,-1.00,-0.97,-1.67,-2.71,-2.71,-2.70
111.85,-1.69,1.09,-1.69,1.10,-1.10,-1.04,-1.74,-2.79,-2.79,-2.78
112.97,-1.67,1.20,-1.68,1.19,-1.19,-1.10,-1.80,-2.86,-2.87,-2.88
114.10,-1.66,1.28,-1.66,1.29,-1.29,-1.17,-1.87,-2.95,-2.94,-2.94
115.24,-1.63,1.39,-1.64,1.38,-1.38,-1.24,-1.93,-3.02,-3.02,-3.02
116.39,-1.61,1.49,-1.61,1.48,-1.48,-1.31,-1.99,-3.09,-3.10,-3.10
117.55,-1.59,1.59,-1.59,1.58,-1.58,-1.38,-2.04,-3.17,-3.17,-3.18
118.73,-1.57,1.68,-1.57,1.68,-1.68,-1.45,-2.10,-3.25,-3.25,-3.26
119.92,-1.54,1.78,-1.55,1.77,-1.77,-1.52,-2.15,-3.32,-3.32,-3.32
121.12,-1.52,1.87,-1.52,1.87,-1.87,-1.59,-2.20,-3.39,-3.39,-3.39
122.33,-1.50,1.96,-1.50,1.97,-1.97,-1.66,-2.24,-3.47,-3.47,-3.47
123.55,-1.47,2.06,-1.47,2.06,-2.06,-1.73,-2.28,-3.54,-3.54,-3.53
124.79,-1.45,2.15,-1.45,2.16,-2.16,-1.81,-2.32,-3.61,-3.61,-3.60
126.03,-1.42,2.24,-1.42,2.25,-2.25,-1.88,-2.36,-3.67,-3.67,-3.66
127.29,-1.40,2.33,-1.40,2.34,-2.34,-1.95,-2.40,-3.75,-3.74,-3.73
128.57,-1.37,2.44,-1.37,2.43,-2.43,-2.03,-2.43,-3.81,-3.81,-3.81
129.85,-1.34,2.53,-1.35,2.52,-2.52,-2.10,-2.46,-3.86,-3.87,-3.87
131.15,-1.32,2.61,-1.32,2.61,-2.61,-2.18,-2.48,-3.93,-3.93,-3.93
132.46,-1.29,2.71,-1.30,2.69,-2.69,-2.25,-2.51,-3.98,-3.99,-4.00
133.79,-1.27,2.77,-1.28,2.77,-2.77,-2.33,-2.53,-4.04,-4.05,-4.05
135.12,-1.25,2.86,-1.25,2.85,-2.85,-2.40,-2.55,-4.10,-4.10,-4.11
136.48,-1.23,2.92,-1.23,2.92,-2.92,-2.48,-2.57,-4.16,-4.16,-4.16
137.84,-1.21,2.99,-1.21,2.99,-2.99,-2.56,-2.59,-4.21,-4.21,-4.20
139.22,-1.19,3.07,-1.19,3.06,-3.06,-2.63,-2.60,-4.26,-4.25,-4.26
140.61,-1.17,3.14,-1.17,3.13,-3.13,-2.71,-2.62,-4.30,-4.30,-4.32
142.02,-1.15,3.18,-1.15,3.19,-3.19,-2.79,-2.63,-4.34,-4.34,-4.34
143.44,-1.14,3.23,-1.14,3.25,-3.25,-2.87,-2.65,-4.39,-4.38,-4.38
144.87,-1.12,3.30,-1.12,3.30,-3.30,-2.94,-2.66,-4.43,-4.42,-4.43
146.32,-1.10,3.36,-1.10,3.36,-3.36,-3.02,-2.68,-4.46,-4.46,-4.46
147.78,-1.08,3.41,-1.09,3.41,-3.41,-3.10,-2.69,-4.49,-4.50,-4.49
149.26,-1.07,3.46,-1.08,3.46,-3.46,-3.18,-2.70,-4.53,-4.54,-4.53
150.75,-1.06,3.51,-1.07,3.51,-3.51,-3.26,-2.72,-4.57,-4.57,-4.57
152.26,-1.05,3.55,-1.06,3.55,-3.55,-3.33,-2.73,-4.60,-4.61,-4.61
153.78,-1.04,3.60,-1.05,3.60,-3.60,-3.41,-2.75,-4.64,-4.64,-4.64
155.32,-1.03,3.64,-1.04,3.64,-3.64,-3.49,-2.77,-4.67,-4.68,-4.67
156.88,-1.03,3.67,-1.03,3.68,-3.68,-3.56,-2.79,-4.71,-4.71,-4.71
158.44,-1.03,3.71,-1.03,3.72,-3.72,-3.64,-2.81,-4.75,-4.75,-4.75
160.03,-1.02,3.76,-1.02,3.76,-3.76,-3.71,-2.83,-4.78,-4.78,-4.79
161.63,-1.02,3.80,-1.02,3.79,-3.79,-3.79,-2.86,-4.82,-4.81,-4.82
163.24,-1.01,3.84,-1.02,3.83,-3.83,-3.86,-2.89,-4.84,-4.85,-4.85
164.88,-1.01,3.87,-1.01,3.87,-3.87,-3.93,-2.91,-4.88,-4.88,-4.88
166.53,-1.01,3.90,-1.01,3.91,-3.91,-4.00,-2.95,-4.92,-4.92,-4.91
168.19,-1.01,3.95,-1.01,3.95,-3.95,-4.07,-2.98,-4.96,-4.96,-4.96
169.87,-1.01,3.98,-1.00,3.99,-3.99,-4.14,-3.01,-5.00,-4.99,-4.99
171.57,-1.00,4.02,-1.00,4.03,-4.03,-4.21,-3.05,-5.03,-5.03,-5.03
173.29,-1.00,4.05,-1.00,4.07,-4.07,-4.27,-3.09,-5.07,-5.07,-5.06
175.02,-0.99,4.11,-0.99,4.12,-4.12,-4.33,-3.14,-5.11,-5.11,-5.10
176.77,-0.99,4.16,-0.99,4.16,-4.16,-4.39,-3.18,-5.15,-5.15,-5.15
178.54,-0.98,4.21,-0.99,4.20,-4.20,-4.45,-3.23,-5.18,-5.19,-5.19
180.32,-0.98,4.24,-0.98,4.24,-4.24,-4.50,-3.28,-5.23,-5.23,-5.23
182.13,-0.98,4.28,-0.98,4.29,-4.29,-4.56,-3.33,-5.27,-5.27,-5.26
183.95,-0.98,4.33,-0.98,4.33,-4.33,-4.61,-3.39,-5.31,-5.31,-5.31
185.79,-0.97,4.37,-0.98,4.37,-4.37,-4.65,-3.44,-5.34,-5.35,-5.35
187.65,-0.97,4.42,-0.98,4.41,-4.41,-4.70,-3.50,-5.38,-5.38,-5.39
189.52,-0.98,4.44,-0.98,4.44,-4.44,-4.74,-3.57,-5.42,-5.42,-5.43
191.42,-0.98,4.48,-0.99,4.47,-4.47,-4.78,-3.63,-5.45,-5.46,-5.46
193.33,-0.98,4.50,-1.00,4.50,-4.50,-4.81,-3.70,-5.48,-5.49,-5.48
195.27,-1.00,4.51,-1.01,4.52,-4.52,-4.84,-3.77,-5.52,-5.53,-5.52
197.22,-1.01,4.54,-1.02,4.54,-4.54,-4.87,-3.84,-5.55,-5.56,-5.55
199.19,-1.02,4.58,-1.03,4.55,-4.55,-4.89,-3.91,-5.58,-5.59,-5.60
201.18,-1.03,4.59,-1.05,4.57,-4.57,-4.91,-3.98,-5.60,-5.62,-5.62
203.19,-1.06,4.58,-1.07,4.58,-4.58,-4.93,-4.06,-5.64,-5.64,-5.64
205.23,-1.08,4.59,-1.08,4.58,-4.58,-4.94,-4.13,-5.67,-5.67,-5.67
207.28,-1.10,4.57,-1.10,4.59,-4.59,-4.95,-4.21,-5.69,-5.69,-5.68
209.35,-1.12,4.59,-1.12,4.59,-4.59,-4.96,-4.28,-5.72,-5.72,-5.72
211.44,-1.14,4.60,-1.14,4.60,-4.60,-4.96,-4.36,-5.74,-5.74,-5.74
213.56,-1.16,4.60,-1.15,4.60,-4.60,-4.96,-4.43,-5.76,-5.75,-5.76
215.69,-1.17,4.59,-1.17,4.60,-4.60,-4.95,-4.51,-5.78,-5.77,-5.76
217.85,-1.19,4.59,-1.18,4.61,-4.61,-4.95,-4.58,-5.80,-5.79,-5.78
220.03,-1.19,4.61,-1.19,4.61,-4.61,-4.93,-4.65,-5.80,-5.80,-5.81
222.23,-1.20,4.62,-1.20,4.61,-4.61,-4.92,-4.72,-5.82,-5.81,-5.82
224.45,-1.20,4.61,-1.20,4.62,-4.62,-4.90,-4.79,-5.82,-5.82,-5.81
226.70,-1.20,4.62,-1.20,4.62,-4.62,-4.88,-4.85,-5.82,-5.82,-5.83
228.96,-1.20,4.63,-1.20,4.63,-4.63,-4.86,-4.91,-5.83,-5.83,-5.83
231.25,-1.20,4.62,-1.20,4.63,-4.63,-4.84,-4.96,-5.83,-5.83,-5.82
233.57,-1.19,4.62,-1.19,4.63,-4.63,-4.81,-5.01,-5.82,-5.82,-5.82
235.90,-1.18,4.63,-1.18,4.63,-4.63,-4.78,-5.05,-5.82,-5.82,-5.82
238.26,-1.17,4.65,-1.18,4.63,-4.63,-4.75,-5.09,-5.81,-5.81,-5.82
240.64,-1.16,4.64,-1.17,4.63,-4.63,-4.72,-5.12,-5.80,-5.80,-5.80
243.05,-1.15,4.64,-1.16,4.63,-4.63,-4.68,-5.15,-5.78,-5.79,-5.79
245.48,-1.15,4.62,-1.15,4.62,-4.62,-4.64,-5.17,-5.78,-5.77,-5.77
247.93,-1.14,4.62,-1.14,4.62,-4.62,-4.61,-5.18,-5.76,-5.76,-5.76
250.41,-1.12,4.63,-1.13,4.61,-4.61,-4.57,-5.19,-5.73,-5.74,-5.75
252.92,-1.11,4.61,-1.12,4.60,-4.60,-4.53,-5.18,-5.72,-5.72,-5.72
255.45,-1.11,4.58,-1.11,4.59,-4.59,-4.49,-5.18,-5.70,-5.70,-5.70
258.00,-1.10,4.57,-1.10,4.58,-4.58,-4.44,-5.16,-5.68,-5.68,-5.68
260.58,-1.09,4.57,-1.10,4.56,-4.56,-4.40,-5.14,-5.66,-5.66,-5.66
263.19,-1.09,4.55,-1.09,4.55,-4.55,-4.36,-5.11,-5.64,-5.64,-5.64
265.82,-1.08,4.54,-1.09,4.53,-4.53,-4.31,-5.07,-5.62,-5.62,-5.62
268.48,-1.08,4.51,-1.08,4.52,-4.52,-4.27,-5.03,-5.60,-5.60,-5.60
271.16,-1.07,4.49,-1.08,4.50,-4.50,-4.23,-4.99,-5.57,-5.57,-5.56
273.87,-1.07,4.48,-1.07,4.48,-4.48,-4.18,-4.94,-5.55,-5.55,-5.55
276.61,-1.07,4.44,-1.07,4.46,-4.46,-4.14,-4.89,-5.53,-5.53,-5.52
279.38,-1.06,4.44,-1.07,4.44,-4.44,-4.09,-4.83,-5.50,-5.50,-5.50
282.17,-1.06,4.42,-1.06,4.41,-4.41,-4.05,-4.77,-5.48,-5.48,-5.48
284.99,-1.06,4.39,-1.06,4.39,-4.39,-4.01,-4.70,-5.45,-5.45,-5.46
287.84,-1.06,4.37,-1.06,4.37,-4.37,-3.96,-4.64,-5.43,-5.43,-5.43
290.72,-1.05,4.34,-1.06,4.34,-4.34,-3.92,-4.57,-5.39,-5.40,-5.40
293.63,-1.06,4.32,-1.06,4.31,-4.31,-3.88,-4.50,-5.37,-5.37,-5.38
296.57,-1.06,4.28,-1.06,4.28,-4.28,-3.83,-4.43,-5.35,-5.34,-5.35
299.53,-1.06,4.26,-1.06,4.25,-4.25,-3.79,-4.36,-5.32,-5.31,-5.32
302.53,-1.06,4.23,-1.06,4.22,-4.22,-3.75,-4.29,-5.29,-5.28,-5.30
305.55,-1.07,4.18,-1.06,4.19,-4.19,-3.71,-4.22,-5.26,-5.25,-5.25
308.61,-1.06,4.16,-1.07,4.16,-4.16,-3.67,-4.15,-5.22,-5.22,-5.22
311.69,-1.07,4.12,-1.07,4.12,-4.12,-3.63,-4.08,-5.20,-5.19,-5.19
314.81,-1.06,4.09,-1.07,4.09,-4.09,-3.59,-4.02,-5.15,-5.16,-5.15
317.96,-1.07,4.05,-1.07,4.06,-4.06,-3.56,-3.95,-5.13,-5.13,-5.13
321.14,-1.07,4.03,-1.07,4.03,-4.03,-3.52,-3.89,-5.10,-5.10,-5.10
324.35,-1.08,3.99,-1.07,4.01,-4.01,-3.48,-3.82,-5.09,-5.07,-5.07
327.59,-1.08,3.95,-1.06,3.98,-3.98,-3.45,-3.76,-5.06,-5.04,-5.04
330.87,-1.09,3.92,-1.06,3.95,-3.95,-3.41,-3.71,-5.05,-5.02,-5.01
334.18,-1.09,3.90,-1.07,3.92,-3.92,-3.38,-3.65,-5.01,-4.99,-4.99
337.52,-1.10,3.86,-1.08,3.88,-3.88,-3.34,-3.60,-4.99,-4.97,-4.97
340.90,-1.11,3.83,-1.10,3.84,-3.84,-3.31,-3.55,-4.95,-4.94,-4.94
344.30,-1.12,3.80,-1.14,3.79,-3.79,-3.27,-3.50,-4.91,-4.92,-4.92
347.75,-1.13,3.76,-1.17,3.73,-3.73,-3.24,-3.45,-4.86,-4.90,-4.90
351.23,-1.13,3.74,-1.22,3.66,-3.66,-3.21,-3.41,-4.79,-4.88,-4.88
354.74,-1.17,3.69,-1.28,3.58,-3.58,-3.17,-3.37,-4.75,-4.86,-4.86
358.28,-1.29,3.55,-1.35,3.49,-3.49,-3.14,-3.33,-4.79,-4.84,-4.84
361.87,-1.40,3.42,-1.42,3.40,-3.40,-3.10,-3.30,-4.80,-4.82,-4.83
365.49,-1.51,3.28,-1.50,3.30,-3.30,-3.07,-3.26,-4.81,-4.80,-4.80
369.14,-1.62,3.17,-1.59,3.20,-3.20,-3.03,-3.23,-4.82,-4.78,-4.79
372.83,-1.72,3.05,-1.68,3.09,-3.09,-2.99,-3.21,-4.81,-4.77,-4.77
376.56,-1.80,2.95,-1.77,2.98,-2.98,-2.95,-3.18,-4.78,-4.75,-4.75
380.33,-1.89,2.83,-1.86,2.87,-2.87,-2.91,-3.16,-4.76,-4.73,-4.73
384.13,-1.97,2.73,-1.95,2.76,-2.76,-2.86,-3.14,-4.73,-4.71,-4.71
387.97,-2.05,2.64,-2.03,2.65,-2.65,-2.81,-3.12,-4.71,-4.69,-4.69
391.85,-2.11,2.56,-2.11,2.56,-2.56,-2.76,-3.10,-4.67,-4.67,-4.67
395.77,-2.17,2.47,-2.17,2.47,-2.47,-2.70,-3.09,-4.65,-4.65,-4.64
399.73,-2.22,2.40,-2.23,2.40,-2.40,-2.63,-3.08,-4.62,-4.63,-4.62
403.72,-2.27,2.33,-2.28,2.33,-2.33,-2.56,-3.07,-4.60,-4.61,-4.61
407.76,-2.32,2.26,-2.32,2.26,-2.26,-2.48,-3.06,-4.59,-4.58,-4.59
411.84,-2.35,2.21,-2.36,2.20,-2.20,-2.40,-3.05,-4.56,-4.56,-4.56
415.96,-2.37,2.17,-2.39,2.15,-2.15,-2.31,-3.05,-4.53,-4.54,-4.54
420.12,-2.39,2.13,-2.41,2.11,-2.11,-2.23,-3.05,-4.51,-4.52,-4.52
424.32,-2.40,2.09,-2.41,2.08,-2.08,-2.15,-3.05,-4.49,-4.50,-4.49
428.56,-2.41,2.06,-2.41,2.06,-2.06,-2.09,-3.04,-4.48,-4.47,-4.47
432.85,-2.41,2.04,-2.40,2.05,-2.05,-2.06,-3.04,-4.47,-4.45,-4.45
437.18,-2.39,2.03,-2.37,2.05,-2.05,-2.05,-3.05,-4.45,-4.43,-4.43
441.55,-2.37,2.02,-2.34,2.06,-2.06,-2.07,-3.05,-4.44,-4.40,-4.40
445.96,-2.35,2.02,-2.29,2.08,-2.08,-2.12,-3.05,-4.44,-4.38,-4.38
450.42,-2.26,2.10,-2.24,2.11,-2.11,-2.19,-3.05,-4.38,-4.35,-4.36
454.93,-2.18,2.14,-2.17,2.15,-2.15,-2.27,-3.05,-4.33,-4.32,-4.32
459.48,-2.09,2.21,-2.10,2.20,-2.20,-2.35,-3.06,-4.29,-4.30,-4.30
