frequency,raw,error,smoothed,error_smoothed,equalization,parametric_eq,fixed_band_eq,equalized_raw,equalized_smoothed,target
20.00,-0.71,-2.51,-0.71,-2.51,2.51,2.57,0.15,1.80,1.80,1.80
20.20,-0.67,-2.47,-0.67,-2.47,2.47,2.51,0.15,1.80,1.80,1.80
20.40,-0.63,-2.43,-0.63,-2.43,2.43,2.44,0.16,1.80,1.80,1.80
20.61,-0.58,-2.38,-0.58,-2.39,2.38,2.38,0.17,1.80,1.80,1.80
20.81,-0.54,-2.34,-0.54,-2.34,2.34,2.31,0.17,1.80,1.80,1.80
21.02,-0.50,-2.30,-0.50,-2.29,2.29,2.25,0.18,1.79,1.79,1.80
21.23,-0.45,-2.23,-0.45,-2.24,2.23,2.19,0.18,1.78,1.78,1.78
21.44,-0.41,-2.18,-0.41,-2.18,2.18,2.12,0.19,1.77,1.77,1.77
21.66,-0.36,-2.11,-0.36,-2.11,2.12,2.06,0.20,1.76,1.75,1.75
21.87,-0.32,-2.05,-0.32,-2.05,2.05,1.99,0.21,1.73,1.74,1.73
22.09,-0.27,-1.99,-0.27,-1.99,1.99,1.93,0.21,1.72,1.71,1.72
22.31,-0.23,-1.92,-0.23,-1.92,1.92,1.87,0.22,1.69,1.69,1.69
22.54,-0.18,-1.85,-0.18,-1.85,1.85,1.80,0.23,1.67,1.67,1.67
22.76,-0.13,-1.78,-0.13,-1.78,1.77,1.74,0.24,1.65,1.64,1.65
22.99,-0.08,-1.70,-0.08,-1.70,1.70,1.68,0.25,1.62,1.62,1.62
23.22,-0.04,-1.63,-0.04,-1.63,1.63,1.61,0.25,1.59,1.60,1.59
23.45,0.01,-1.55,0.01,-1.55,1.56,1.55,0.26,1.57,1.57,1.56
23.69,0.06,-1.49,0.06,-1.49,1.49,1.49,0.27,1.55,1.55,1.55
23.92,0.11,-1.42,0.11,-1.42,1.42,1.42,0.28,1.54,1.53,1.53
24.16,0.16,-1.36,0.16,-1.36,1.36,1.36,0.29,1.52,1.51,1.52
24.40,0.20,-1.30,0.20,-1.29,1.29,1.30,0.30,1.49,1.50,1.50
24.65,0.25,-1.23,0.25,-1.23,1.23,1.24,0.31,1.48,1.48,1.48
24.89,0.30,-1.16,0.30,-1.16,1.16,1.18,0.32,1.46,1.46,1.46
25.14,0.35,-1.10,0.35,-1.10,1.10,1.12,0.33,1.45,1.45,1.45
25.39,0.40,-1.03,0.40,-1.03,1.03,1.05,0.34,1.43,1.43,1.43
25.65,0.45,-0.97,0.45,-0.97,0.97,0.99,0.34,1.42,1.41,1.42
25.91,0.49,-0.90,0.49,-0.90,0.90,0.93,0.35,1.39,1.39,1.39
26.16,0.54,-0.84,0.54,-0.84,0.84,0.87,0.36,1.38,1.38,1.38
26.43,0.59,-0.78,0.59,-0.77,0.77,0.81,0.37,1.36,1.36,1.37
26.69,0.64,-0.70,0.64,-0.71,0.71,0.75,0.38,1.35,1.35,1.34
26.96,0.69,-0.64,0.69,-0.65,0.65,0.70,0.38,1.34,1.34,1.33
27.23,0.73,-0.59,0.73,-0.59,0.59,0.64,0.39,1.32,1.32,1.32
27.50,0.77,-0.54,0.78,-0.53,0.53,0.58,0.39,1.30,1.30,1.31
27.77,0.82,-0.47,0.82,-0.47,0.47,0.52,0.40,1.29,1.29,1.29
28.05,0.87,-0.41,0.87,-0.41,0.41,0.46,0.40,1.28,1.28,1.28
28.33,0.91,-0.35,0.91,-0.35,0.35,0.41,0.41,1.26,1.27,1.26
28.62,0.96,-0.29,0.95,-0.29,0.30,0.35,0.41,1.26,1.25,1.25
28.90,0.99,-0.24,0.99,-0.24,0.24,0.29,0.41,1.23,1.23,1.23
29.19,1.03,-0.18,1.04,-0.18,0.18,0.24,0.41,1.22,1.22,1.21
29.48,1.08,-0.13,1.08,-0.13,0.13,0.18,0.41,1.21,1.21,1.21
29.78,1.12,-0.08,1.12,-0.08,0.08,0.13,0.40,1.20,1.20,1.20
30.08,1.16,-0.03,1.16,-0.03,0.03,0.08,0.40,1.19,1.18,1.19
30.38,1.19,0.02,1.19,0.02,-0.03,0.02,0.39,1.16,1.17,1.17
30.68,1.23,0.07,1.23,0.08,-0.08,-0.03,0.39,1.15,1.16,1.16
30.99,1.27,0.14,1.27,0.13,-0.13,-0.08,0.38,1.15,1.14,1.13
31.30,1.30,0.18,1.30,0.18,-0.17,-0.13,0.37,1.13,1.13,1.12
31.61,1.33,0.22,1.33,0.22,-0.22,-0.18,0.35,1.11,1.11,1.11
31.93,1.35,0.26,1.35,0.26,-0.27,-0.23,0.34,1.08,1.09,1.09
32.24,1.37,0.31,1.38,0.31,-0.31,-0.28,0.32,1.06,1.06,1.06
32.57,1.40,0.36,1.40,0.35,-0.35,-0.33,0.31,1.05,1.04,1.04
32.89,1.42,0.39,1.42,0.40,-0.40,-0.38,0.29,1.02,1.02,1.03
33.22,1.44,0.44,1.44,0.44,-0.44,-0.42,0.27,1.00,1.00,1.00
33.55,1.46,0.47,1.46,0.48,-0.48,-0.47,0.25,0.98,0.98,0.99
33.89,1.48,0.52,1.48,0.52,-0.52,-0.52,0.22,0.96,0.96,0.96
34.23,1.50,0.56,1.50,0.56,-0.56,-0.56,0.20,0.94,0.94,0.94
34.57,1.52,0.60,1.52,0.60,-0.60,-0.60,0.17,0.92,0.92,0.92
34.92,1.53,0.63,1.53,0.63,-0.63,-0.65,0.15,0.90,0.90,0.90
35.27,1.55,0.67,1.55,0.67,-0.67,-0.69,0.12,0.88,0.88,0.88
35.62,1.57,0.71,1.57,0.71,-0.71,-0.73,0.09,0.86,0.86,0.86
35.97,1.58,0.74,1.58,0.74,-0.74,-0.77,0.06,0.84,0.84,0.84
36.33,1.60,0.78,1.59,0.77,-0.78,-0.81,0.03,0.83,0.82,0.82
36.70,1.60,0.80,1.61,0.81,-0.81,-0.85,-0.00,0.79,0.80,0.80
37.06,1.62,0.84,1.62,0.84,-0.84,-0.89,-0.04,0.78,0.78,0.78
37.43,1.64,0.88,1.64,0.88,-0.88,-0.93,-0.07,0.76,0.76,0.76
37.81,1.65,0.91,1.65,0.91,-0.91,-0.96,-0.11,0.74,0.74,0.74
38.19,1.66,0.95,1.66,0.94,-0.94,-1.00,-0.14,0.72,0.72,0.71
38.57,1.67,0.97,1.67,0.98,-0.98,-1.03,-0.18,0.70,0.70,0.70
38.95,1.68,1.01,1.68,1.01,-1.01,-1.07,-0.21,0.67,0.68,0.67
39.34,1.69,1.04,1.69,1.04,-1.04,-1.10,-0.25,0.66,0.65,0.65
39.74,1.70,1.07,1.70,1.06,-1.06,-1.13,-0.29,0.64,0.63,0.63
40.14,1.70,1.08,1.70,1.09,-1.09,-1.16,-0.33,0.61,0.62,0.62
40.54,1.71,1.11,1.71,1.11,-1.12,-1.19,-0.37,0.60,0.59,0.60
40.94,1.72,1.14,1.72,1.14,-1.14,-1.22,-0.41,0.58,0.58,0.58
41.35,1.72,1.17,1.73,1.17,-1.16,-1.25,-0.45,0.56,0.56,0.55
41.76,1.74,1.19,1.74,1.19,-1.19,-1.28,-0.49,0.55,0.55,0.55
42.18,1.74,1.21,1.74,1.21,-1.21,-1.30,-0.53,0.53,0.53,0.53
42.60,1.75,1.24,1.75,1.23,-1.24,-1.33,-0.57,0.51,0.51,0.51
43.03,1.75,1.25,1.75,1.26,-1.26,-1.35,-0.61,0.49,0.49,0.50
43.46,1.76,1.29,1.76,1.29,-1.29,-1.38,-0.66,0.47,0.47,0.47
43.90,1.77,1.32,1.77,1.31,-1.32,-1.40,-0.70,0.45,0.45,0.45
44.33,1.77,1.34,1.77,1.34,-1.34,-1.42,-0.75,0.43,0.43,0.43
44.78,1.77,1.36,1.77,1.37,-1.36,-1.44,-0.79,0.41,0.41,0.41
45.23,1.78,1.40,1.77,1.39,-1.39,-1.46,-0.84,0.39,0.39,0.38
45.68,1.77,1.41,1.78,1.41,-1.41,-1.48,-0.88,0.36,0.37,0.36
46.13,1.78,1.43,1.78,1.43,-1.43,-1.50,-0.93,0.36,0.35,0.35
46.60,1.78,1.44,1.78,1.44,-1.44,-1.52,-0.97,0.34,0.34,0.34
47.06,1.78,1.46,1.78,1.46,-1.46,-1.53,-1.02,0.32,0.32,0.32
47.53,1.78,1.48,1.78,1.47,-1.48,-1.55,-1.07,0.30,0.30,0.30
48.01,1.78,1.49,1.78,1.49,-1.50,-1.56,-1.12,0.28,0.28,0.29
48.49,1.77,1.51,1.77,1.51,-1.52,-1.58,-1.17,0.25,0.26,0.26
48.97,1.77,1.54,1.77,1.54,-1.54,-1.59,-1.21,0.23,0.23,0.23
49.46,1.77,1.57,1.77,1.57,-1.56,-1.60,-1.26,0.21,0.21,0.20
49.96,1.76,1.59,1.76,1.59,-1.58,-1.62,-1.31,0.18,0.18,0.17
50.46,1.76,1.60,1.76,1.60,-1.60,-1.63,-1.36,0.16,0.16,0.16
50.96,1.75,1.61,1.75,1.62,-1.62,-1.64,-1.41,0.13,0.14,0.14
51.47,1.75,1.64,1.75,1.63,-1.63,-1.65,-1.46,0.12,0.11,0.11
51.99,1.74,1.65,1.74,1.65,-1.65,-1.66,-1.51,0.09,0.09,0.09
52.51,1.73,1.66,1.73,1.66,-1.66,-1.67,-1.56,0.07,0.07,0.07
53.03,1.72,1.67,1.73,1.68,-1.68,-1.68,-1.61,0.04,0.05,0.05
53.56,1.72,1.70,1.72,1.69,-1.69,-1.69,-1.65,0.03,0.02,0.02
54.10,1.71,1.71,1.71,1.71,-1.71,-1.69,-1.70,0.00,-0.00,0.00
54.64,1.69,1.72,1.70,1.73,-1.72,-1.70,-1.75,-0.03,-0.03,-0.03
55.18,1.69,1.74,1.69,1.74,-1.74,-1.71,-1.79,-0.05,-0.05,-0.05
55.74,1.68,1.76,1.68,1.75,-1.76,-1.71,-1.84,-0.07,-0.08,-0.08
56.29,1.66,1.76,1.67,1.77,-1.77,-1.72,-1.88,-0.11,-0.10,-0.10
56.86,1.66,1.79,1.66,1.78,-1.78,-1.73,-1.92,-0.12,-0.13,-0.13
57.42,1.65,1.80,1.65,1.80,-1.79,-1.73,-1.96,-0.14,-0.15,-0.15
58.00,1.63,1.80,1.64,1.81,-1.81,-1.74,-2.00,-0.17,-0.17,-0.17
58.58,1.62,1.82,1.62,1.82,-1.82,-1.74,-2.03,-0.19,-0.19,-0.20
59.16,1.61,1.83,1.61,1.83,-1.83,-1.75,-2.06,-0.22,-0.22,-0.22
59.76,1.59,1.83,1.59,1.83,-1.84,-1.75,-2.09,-0.25,-0.24,-0.24
60.35,1.58,1.85,1.58,1.84,-1.85,-1.76,-2.12,-0.27,-0.27,-0.27
60.96,1.55,1.84,1.56,1.85,-1.86,-1.76,-2.15,-0.31,-0.30,-0.29
61.57,1.54,1.87,1.54,1.87,-1.87,-1.77,-2.17,-0.33,-0.33,-0.33
62.18,1.52,1.88,1.52,1.88,-1.88,-1.77,-2.19,-0.36,-0.36,-0.36
62.80,1.51,1.90,1.51,1.90,-1.89,-1.78,-2.21,-0.38,-0.38,-0.39
63.43,1.49,1.91,1.49,1.91,-1.90,-1.78,-2.23,-0.41,-0.41,-0.42
64.07,1.46,1.91,1.47,1.91,-1.91,-1.79,-2.24,-0.45,-0.44,-0.45
64.71,1.44,1.91,1.44,1.91,-1.91,-1.79,-2.25,-0.47,-0.47,-0.47
65.35,1.42,1.91,1.42,1.91,-1.92,-1.80,-2.26,-0.49,-0.50,-0.49
66.01,1.40,1.91,1.40,1.91,-1.92,-1.81,-2.27,-0.52,-0.52,-0.51
66.67,1.38,1.92,1.38,1.92,-1.92,-1.81,-2.27,-0.54,-0.54,-0.54
67.33,1.36,1.92,1.36,1.92,-1.92,-1.82,-2.27,-0.56,-0.56,-0.56
68.01,1.33,1.92,1.33,1.92,-1.92,-1.83,-2.27,-0.59,-0.59,-0.59
68.69,1.31,1.92,1.31,1.92,-1.92,-1.83,-2.27,-0.61,-0.61,-0.61
69.37,1.28,1.92,1.28,1.92,-1.92,-1.84,-2.27,-0.64,-0.64,-0.64
70.07,1.26,1.93,1.26,1.93,-1.93,-1.85,-2.27,-0.67,-0.66,-0.67
70.77,1.24,1.93,1.24,1.93,-1.93,-1.86,-2.26,-0.69,-0.69,-0.69
71.48,1.21,1.93,1.21,1.93,-1.93,-1.87,-2.26,-0.72,-0.72,-0.72
72.19,1.18,1.93,1.18,1.94,-1.94,-1.88,-2.25,-0.76,-0.75,-0.75
72.91,1.16,1.95,1.16,1.94,-1.94,-1.89,-2.24,-0.78,-0.79,-0.79
73.64,1.13,1.95,1.13,1.95,-1.95,-1.90,-2.24,-0.82,-0.82,-0.82
74.38,1.10,1.95,1.10,1.96,-1.96,-1.91,-2.23,-0.85,-0.85,-0.85
75.12,1.07,1.97,1.07,1.96,-1.96,-1.92,-2.23,-0.89,-0.89,-0.90
75.87,1.04,1.97,1.04,1.97,-1.97,-1.93,-2.22,-0.93,-0.93,-0.93
76.63,1.01,1.97,1.01,1.98,-1.98,-1.95,-2.22,-0.97,-0.97,-0.96
77.40,0.98,1.98,0.98,1.99,-1.99,-1.96,-2.21,-1.00,-1.00,-1.00
78.17,0.95,2.01,0.95,2.00,-1.99,-1.97,-2.21,-1.04,-1.04,-1.06
78.95,0.92,2.00,0.92,2.00,-2.00,-1.99,-2.21,-1.08,-1.09,-1.08
79.74,0.89,2.01,0.89,2.01,-2.02,-2.00,-2.21,-1.12,-1.13,-1.12
80.54,0.85,2.02,0.86,2.02,-2.03,-2.02,-2.21,-1.18,-1.17,-1.17
81.35,0.83,2.04,0.83,2.04,-2.04,-2.04,-2.21,-1.21,-1.21,-1.21
82.16,0.79,2.05,0.79,2.05,-2.05,-2.05,-2.21,-1.26,-1.26,-1.26
82.98,0.76,2.06,0.76,2.06,-2.06,-2.07,-2.22,-1.30,-1.30,-1.30
83.81,0.72,2.08,0.72,2.07,-2.07,-2.09,-2.23,-1.35,-1.35,-1.36
84.65,0.68,2.08,0.68,2.08,-2.08,-2.11,-2.23,-1.40,-1.40,-1.40
85.50,0.65,2.09,0.65,2.09,-2.09,-2.13,-2.24,-1.44,-1.45,-1.44
86.35,0.61,2.10,0.61,2.10,-2.10,-2.15,-2.26,-1.49,-1.49,-1.49
87.22,0.57,2.11,0.57,2.12,-2.12,-2.17,-2.27,-1.54,-1.54,-1.54
88.09,0.54,2.14,0.53,2.12,-2.13,-2.19,-2.28,-1.58,-1.59,-1.60
88.97,0.49,2.13,0.50,2.14,-2.14,-2.21,-2.30,-1.65,-1.64,-1.64
89.86,0.45,2.14,0.46,2.15,-2.15,-2.23,-2.32,-1.70,-1.69,-1.69
90.76,0.42,2.17,0.41,2.16,-2.16,-2.25,-2.34,-1.74,-1.75,-1.75
91.66,0.37,2.17,0.37,2.17,-2.17,-2.27,-2.36,-1.80,-1.80,-1.80
92.58,0.33,2.19,0.33,2.19,-2.19,-2.30,-2.39,-1.85,-1.85,-1.86
93.51,0.29,2.19,0.29,2.19,-2.20,-2.32,-2.41,-1.91,-1.91,-1.90
94.44,0.26,2.21,0.26,2.21,-2.22,-2.34,-2.44,-1.96,-1.96,-1.95
95.39,0.22,2.23,0.22,2.23,-2.23,-2.37,-2.47,-2.01,-2.01,-2.01
96.34,0.18,2.26,0.18,2.25,-2.25,-2.39,-2.50,-2.07,-2.07,-2.08
97.30,0.14,2.27,0.14,2.27,-2.27,-2.41,-2.53,-2.13,-2.13,-2.13
98.28,0.10,2.29,0.10,2.29,-2.29,-2.44,-2.56,-2.19,-2.19,-2.19
99.26,0.06,2.32,0.06,2.31,-2.31,-2.46,-2.60,-2.25,-2.25,-2.26
100.25,0.02,2.33,0.02,2.33,-2.34,-2.49,-2.63,-2.32,-2.32,-2.31
101.25,-0.02,2.35,-0.02,2.36,-2.36,-2.51,-2.67,-2.38,-2.38,-2.37
102.27,-0.06,2.38,-0.06,2.38,-2.38,-2.54,-2.71,-2.44,-2.44,-2.44
103.29,-0.09,2.42,-0.09,2.41,-2.40,-2.56,-2.75,-2.49,-2.50,-2.51
104.32,-0.13,2.43,-0.13,2.43,-2.43,-2.58,-2.78,-2.56,-2.56,-2.56
105.37,-0.17,2.45,-0.17,2.45,-2.46,-2.61,-2.82,-2.62,-2.63,-2.62
106.42,-0.22,2.47,-0.21,2.48,-2.48,-2.63,-2.86,-2.70,-2.70,-2.69
107.48,-0.25,2.51,-0.25,2.51,-2.51,-2.66,-2.90,-2.76,-2.76,-2.76
108.56,-0.29,2.54,-0.29,2.54,-2.54,-2.68,-2.93,-2.83,-2.82,-2.83
109.64,-0.32,2.57,-0.32,2.57,-2.56,-2.70,-2.97,-2.88,-2.89,-2.89
110.74,-0.36,2.59,-0.36,2.59,-2.59,-2.73,-3.01,-2.95,-2.95,-2.95
111.85,-0.40,2.62,-0.40,2.62,-2.63,-2.75,-3.04,-3.02,-3.02,-3.02
112.97,-0.44,2.66,-0.44,2.65,-2.66,-2.77,-3.07,-3.10,-3.10,-3.10
114.10,-0.48,2.68,-0.48,2.69,-2.69,-2.79,-3.10,-3.17,-3.16,-3.16
115.24,-0.51,2.72,-0.51,2.72,-2.72,-2.81,-3.13,-3.23,-3.23,-3.23
116.39,-0.55,2.75,-0.55,2.75,-2.75,-2.84,-3.15,-3.30,-3.30,-3.30
117.55,-0.59,2.78,-0.59,2.78,-2.78,-2.86,-3.17,-3.37,-3.36,-3.37
118.73,-0.62,2.81,-0.62,2.81,-2.81,-2.88,-3.19,-3.42,-3.43,-3.43
119.92,-0.66,2.83,-0.66,2.83,-2.83,-2.89,-3.21,-3.49,-3.49,-3.49
121.12,-0.70,2.85,-0.69,2.86,-2.86,-2.91,-3.22,-3.55,-3.55,-3.55
122.33,-0.73,2.89,-0.73,2.88,-2.88,-2.93,-3.23,-3.61,-3.61,-3.62
123.55,-0.77,2.90,-0.77,2.90,-2.90,-2.95,-3.24,-3.67,-3.67,-3.67
124.79,-0.81,2.92,-0.81,2.92,-2.92,-2.96,-3.24,-3.73,-3.73,-3.73
126.03,-0.85,2.93,-0.85,2.94,-2.94,-2.98,-3.24,-3.79,-3.79,-3.78
127.29,-0.88,2.96,-0.88,2.96,-2.97,-2.99,-3.23,-3.85,-3.85,-3.84
128.57,-0.92,2.99,-0.92,2.98,-2.99,-3.01,-3.22,-3.91,-3.90,-3.91
129.85,-0.95,3.01,-0.95,3.01,-3.01,-3.02,-3.20,-3.95,-3.96,-3.96
131.15,-0.99,3.02,-0.99,3.03,-3.02,-3.03,-3.19,-4.01,-4.01,-4.01
132.46,-1.02,3.05,-1.02,3.04,-3.04,-3.04,-3.17,-4.06,-4.06,-4.07
133.79,-1.06,3.05,-1.06,3.06,-3.05,-3.05,-3.14,-4.11,-4.11,-4.11
135.12,-1.10,3.07,-1.10,3.06,-3.06,-3.06,-3.12,-4.16,-4.16,-4.17
136.48,-1.14,3.06,-1.14,3.06,-3.07,-3.07,-3.09,-4.21,-4.21,-4.20
137.84,-1.18,3.06,-1.18,3.07,-3.07,-3.08,-3.05,-4.25,-4.25,-4.24
139.22,-1.21,3.08,-1.21,3.07,-3.07,-3.08,-3.02,-4.28,-4.29,-4.29
140.61,-1.25,3.08,-1.25,3.08,-3.07,-3.09,-2.98,-4.32,-4.32,-4.33
142.02,-1.28,3.07,-1.28,3.07,-3.07,-3.09,-2.95,-4.35,-4.35,-4.35
143.44,-1.32,3.06,-1.32,3.07,-3.07,-3.09,-2.91,-4.38,-4.38,-4.38
144.87,-1.36,3.06,-1.36,3.06,-3.06,-3.09,-2.87,-4.42,-4.42,-4.42
146.32,-1.39,3.06,-1.39,3.05,-3.05,-3.09,-2.83,-4.44,-4.45,-4.45
147.78,-1.44,3.03,-1.43,3.04,-3.04,-3.09,-2.79,-4.48,-4.48,-4.47
149.26,-1.47,3.03,-1.47,3.03,-3.03,-3.09,-2.75,-4.50,-4.51,-4.50
150.75,-1.52,3.02,-1.51,3.02,-3.02,-3.09,-2.70,-4.54,-4.53,-4.54
152.26,-1.55,3.01,-1.55,3.01,-3.01,-3.08,-2.66,-4.56,-4.56,-4.56
153.78,-1.59,3.00,-1.59,2.99,-2.99,-3.08,-2.62,-4.58,-4.59,-4.59
155.32,-1.64,2.97,-1.64,2.98,-2.98,-3.07,-2.58,-4.62,-4.61,-4.61
156.88,-1.68,2.96,-1.68,2.96,-2.96,-3.06,-2.54,-4.64,-4.64,-4.64
158.44,-1.73,2.94,-1.73,2.94,-2.94,-3.05,-2.51,-4.67,-4.67,-4.67
160.03,-1.77,2.93,-1.77,2.93,-2.93,-3.04,-2.47,-4.70,-4.70,-4.70
161.63,-1.82,2.91,-1.82,2.91,-2.91,-3.03,-2.43,-4.73,-4.73,-4.73
163.24,-1.86,2.90,-1.86,2.89,-2.89,-3.02,-2.40,-4.75,-4.75,-4.76
164.88,-1.91,2.87,-1.91,2.87,-2.87,-3.00,-2.36,-4.78,-4.78,-4.78
166.53,-1.95,2.85,-1.95,2.85,-2.86,-2.99,-2.33,-4.81,-4.81,-4.80
168.19,-2.00,2.84,-2.00,2.84,-2.84,-2.97,-2.30,-4.84,-4.84,-4.84
169.87,-2.04,2.83,-2.04,2.83,-2.83,-2.96,-2.27,-4.87,-4.87,-4.87
171.57,-2.08,2.82,-2.08,2.81,-2.82,-2.94,-2.25,-4.90,-4.90,-4.90
173.29,-2.13,2.79,-2.12,2.80,-2.81,-2.92,-2.22,-4.94,-4.93,-4.92
175.02,-2.16,2.80,-2.16,2.80,-2.80,-2.90,-2.20,-4.96,-4.96,-4.96
176.77,-2.20,2.80,-2.20,2.80,-2.80,-2.88,-2.18,-5.00,-5.00,-5.00
178.54,-2.24,2.80,-2.24,2.80,-2.79,-2.86,-2.16,-5.03,-5.03,-5.04
180.32,-2.28,2.79,-2.28,2.79,-2.79,-2.83,-2.14,-5.07,-5.07,-5.07
182.13,-2.32,2.78,-2.32,2.78,-2.79,-2.81,-2.12,-5.11,-5.11,-5.10
183.95,-2.36,2.78,-2.35,2.78,-2.79,-2.78,-2.10,-5.15,-5.14,-5.14
185.79,-2.39,2.79,-2.39,2.79,-2.78,-2.76,-2.09,-5.17,-5.18,-5.18
187.65,-2.43,2.79,-2.43,2.78,-2.78,-2.73,-2.08,-5.20,-5.21,-5.22
189.52,-2.48,2.77,-2.47,2.77,-2.77,-2.70,-2.07,-5.25,-5.24,-5.25
191.42,-2.51,2.76,-2.51,2.76,-2.76,-2.67,-2.06,-5.27,-5.27,-5.27
193.33,-2.55,2.74,-2.55,2.74,-2.75,-2.64,-2.05,-5.30,-5.30,-5.29
195.27,-2.59,2.73,-2.59,2.73,-2.74,-2.61,-2.05,-5.33,-5.33,-5.32
197.22,-2.64,2.71,-2.63,2.72,-2.72,-2.58,-2.04,-5.36,-5.35,-5.35
199.19,-2.68,2.72,-2.68,2.71,-2.70,-2.55,-2.04,-5.38,-5.38,-5.40
201.18,-2.72,2.69,-2.72,2.69,-2.68,-2.52,-2.03,-5.40,-5.41,-5.41
203.19,-2.77,2.66,-2.77,2.67,-2.66,-2.48,-2.03,-5.43,-5.43,-5.43
205.23,-2.81,2.64,-2.81,2.64,-2.64,-2.45,-2.03,-5.45,-5.45,-5.45
207.28,-2.85,2.61,-2.85,2.61,-2.62,-2.41,-2.03,-5.47,-5.47,-5.46
209.35,-2.90,2.59,-2.90,2.59,-2.59,-2.38,-2.03,-5.49,-5.49,-5.49
211.44,-2.94,2.57,-2.94,2.57,-2.56,-2.34,-2.03,-5.50,-5.51,-5.51
213.56,-2.99,2.54,-2.99,2.53,-2.54,-2.30,-2.03,-5.53,-5.52,-5.53
215.69,-3.03,2.50,-3.03,2.50,-2.51,-2.27,-2.03,-5.54,-5.54,-5.53
217.85,-3.08,2.46,-3.08,2.47,-2.47,-2.23,-2.03,-5.55,-5.55,-5.54
220.03,-3.12,2.45,-3.12,2.44,-2.44,-2.19,-2.03,-5.56,-5.56,-5.57
222.23,-3.17,2.41,-3.17,2.41,-2.40,-2.15,-2.03,-5.57,-5.57,-5.58
224.45,-3.21,2.36,-3.21,2.37,-2.36,-2.11,-2.03,-5.57,-5.57,-5.57
226.70,-3.26,2.32,-3.26,2.32,-2.32,-2.07,-2.02,-5.57,-5.58,-5.58
228.96,-3.31,2.27,-3.31,2.27,-2.27,-2.03,-2.02,-5.58,-5.58,-5.58
231.25,-3.36,2.21,-3.36,2.21,-2.22,-1.99,-2.01,-5.58,-5.58,-5.57
233.57,-3.40,2.16,-3.40,2.16,-2.17,-1.94,-2.01,-5.57,-5.57,-5.56
235.90,-3.45,2.11,-3.45,2.11,-2.11,-1.90,-2.00,-5.56,-5.56,-5.56
238.26,-3.49,2.07,-3.49,2.06,-2.06,-1.86,-1.99,-5.55,-5.55,-5.56
240.64,-3.54,2.00,-3.54,2.00,-2.00,-1.82,-1.97,-5.54,-5.54,-5.54
243.05,-3.58,1.94,-3.58,1.94,-1.94,-1.77,-1.96,-5.52,-5.52,-5.52
245.48,-3.62,1.88,-3.62,1.89,-1.89,-1.73,-1.94,-5.51,-5.51,-5.50
247.93,-3.66,1.83,-3.66,1.83,-1.83,-1.68,-1.92,-5.49,-5.49,-5.49
250.41,-3.69,1.79,-3.69,1.78,-1.77,-1.64,-1.90,-5.46,-5.47,-5.48
252.92,-3.73,1.71,-3.73,1.72,-1.72,-1.59,-1.87,-5.45,-5.45,-5.44
255.45,-3.77,1.65,-3.76,1.66,-1.66,-1.55,-1.85,-5.43,-5.43,-5.42
258.00,-3.80,1.60,-3.80,1.60,-1.61,-1.50,-1.82,-5.41,-5.41,-5.40
260.58,-3.82,1.56,-3.83,1.55,-1.55,-1.46,-1.78,-5.37,-5.38,-5.38
263.19,-3.86,1.50,-3.85,1.51,-1.50,-1.41,-1.75,-5.36,-5.35,-5.36
265.82,-3.88,1.46,-3.88,1.45,-1.45,-1.37,-1.71,-5.33,-5.33,-5.34
268.48,-3.91,1.40,-3.91,1.40,-1.40,-1.32,-1.68,-5.31,-5.31,-5.31
271.16,-3.94,1.34,-3.94,1.34,-1.35,-1.28,-1.63,-5.29,-5.28,-5.28
273.87,-3.97,1.29,-3.97,1.29,-1.29,-1.23,-1.59,-5.26,-5.26,-5.26
276.61,-3.99,1.24,-3.99,1.24,-1.24,-1.18,-1.55,-5.23,-5.24,-5.23
279.38,-4.02,1.19,-4.02,1.19,-1.19,-1.14,-1.50,-5.21,-5.21,-5.21
282.17,-4.05,1.14,-4.05,1.14,-1.14,-1.09,-1.45,-5.19,-5.19,-5.19
284.99,-4.07,1.09,-4.07,1.09,-1.09,-1.04,-1.40,-5.16,-5.16,-5.16
287.84,-4.10,1.04,-4.10,1.04,-1.04,-1.00,-1.35,-5.14,-5.13,-5.14
290.72,-4.12,0.98,-4.12,0.98,-0.98,-0.95,-1.30,-5.10,-5.10,-5.10
293.63,-4.15,0.93,-4.15,0.93,-0.93,-0.90,-1.25,-5.08,-5.08,-5.08
296.57,-4.18,0.87,-4.18,0.87,-0.87,-0.86,-1.19,-5.05,-5.05,-5.05
299.53,-4.21,0.81,-4.21,0.81,-0.81,-0.81,-1.14,-5.02,-5.02,-5.02
302.53,-4.24,0.76,-4.24,0.75,-0.75,-0.77,-1.09,-4.99,-4.99,-5.00
305.55,-4.28,0.67,-4.27,0.68,-0.68,-0.72,-1.03,-4.96,-4.96,-4.95
308.61,-4.30,0.62,-4.30,0.62,-0.62,-0.67,-0.97,-4.92,-4.92,-4.92
311.69,-4.33,0.55,-4.33,0.55,-0.56,-0.63,-0.92,-4.89,-4.89,-4.88
314.81,-4.36,0.49,-4.36,0.49,-0.49,-0.58,-0.86,-4.85,-4.85,-4.85
317.96,-4.39,0.43,-4.39,0.43,-0.43,-0.54,-0.80,-4.82,-4.82,-4.82
321.14,-4.42,0.37,-4.42,0.37,-0.37,-0.49,-0.75,-4.79,-4.79,-4.79
324.35,-4.46,0.31,-4.46,0.31,-0.31,-0.45,-0.69,-4.76,-4.76,-4.77
327.59,-4.49,0.24,-4.49,0.24,-0.25,-0.40,-0.63,-4.73,-4.73,-4.73
330.87,-4.52,0.18,-4.52,0.18,-0.19,-0.36,-0.58,-4.71,-4.71,-4.70
334.18,-4.55,0.13,-4.55,0.13,-0.13,-0.32,-0.52,-4.68,-4.68,-4.68
337.52,-4.58,0.08,-4.58,0.08,-0.07,-0.27,-0.46,-4.65,-4.65,-4.66
340.90,-4.61,0.02,-4.61,0.02,-0.02,-0.23,-0.41,-4.63,-4.63,-4.63
344.30,-4.64,-0.03,-4.64,-0.03,0.03,-0.19,-0.35,-4.61,-4.61,-4.61
347.75,-4.67,-0.09,-4.67,-0.08,0.08,-0.15,-0.29,-4.59,-4.58,-4.58
351.23,-4.69,-0.13,-4.69,-0.13,0.13,-0.10,-0.24,-4.56,-4.56,-4.56
354.74,-4.72,-0.17,-4.72,-0.17,0.18,-0.06,-0.18,-4.54,-4.54,-4.55
358.28,-4.75,-0.22,-4.75,-0.22,0.22,-0.02,-0.12,-4.52,-4.52,-4.53
361.87,-4.78,-0.27,-4.78,-0.27,0.27,0.02,-0.07,-4.51,-4.51,-4.51
365.49,-4.80,-0.32,-4.80,-0.32,0.31,0.06,-0.01,-4.49,-4.49,-4.48
369.14,-4.83,-0.36,-4.83,-0.36,0.35,0.10,0.05,-4.48,-4.47,-4.47
372.83,-4.85,-0.39,-4.85,-0.39,0.39,0.13,0.10,-4.46,-4.45,-4.46
376.56,-4.86,-0.42,-4.86,-0.43,0.43,0.17,0.16,-4.43,-4.43,-4.44
380.33,-4.88,-0.47,-4.88,-0.46,0.47,0.21,0.21,-4.41,-4.41,-4.41
384.13,-4.89,-0.50,-4.89,-0.50,0.51,0.24,0.27,-4.38,-4.39,-4.39
387.97,-4.91,-0.54,-4.91,-0.54,0.54,0.28,0.33,-4.37,-4.37,-4.37
391.85,-4.92,-0.57,-4.92,-0.57,0.57,0.31,0.38,-4.35,-4.35,-4.35
395.77,-4.93,-0.61,-4.93,-0.60,0.60,0.35,0.43,-4.33,-4.33,-4.32
399.73,-4.93,-0.63,-4.93,-0.63,0.63,0.38,0.49,-4.30,-4.31,-4.30
403.72,-4.94,-0.65,-4.94,-0.65,0.65,0.41,0.54,-4.29,-4.29,-4.29
407.76,-4.94,-0.67,-4.94,-0.67,0.67,0.44,0.59,-4.27,-4.27,-4.27
411.84,-4.93,-0.69,-4.93,-0.68,0.68,0.47,0.64,-4.25,-4.24,-4.24
415.96,-4.91,-0.69,-4.91,-0.69,0.70,0.50,0.69,-4.21,-4.22,-4.22
420.12,-4.90,-0.70,-4.90,-0.70,0.70,0.53,0.74,-4.20,-4.19,-4.20
424.32,-4.88,-0.71,-4.88,-0.71,0.71,0.55,0.79,-4.17,-4.17,-4.17
428.56,-4.86,-0.71,-4.86,-0.71,0.71,0.58,0.84,-4.15,-4.15,-4.15
432.85,-4.84,-0.71,-4.84,-0.71,0.71,0.60,0.88,-4.13,-4.13,-4.13
437.18,-4.81,-0.71,-4.81,-0.71,0.70,0.62,0.92,-4.11,-4.10,-4.10
441.55,-4.77,-0.70,-4.77,-0.70,0.70,0.65,0.96,-4.07,-4.08,-4.07
445.96,-4.74,-0.69,-4.74,-0.69,0.69,0.67,1.00,-4.05,-4.05,-4.05
450.42,-4.71,-0.67,-4.71,-0.68,0.68,0.69,1.04,-4.03,-4.02,-4.04
454.93,-4.68,-0.68,-4.68,-0.67,0.68,0.70,1.07,-4.00,-4.00,-4.00
459.48,-4.64,-0.66,-4.65,-0.67,0.67,0.72,1.10,-3.97,-3.97,-3.98
464.07,-4.62,-0.67,-4.61,-0.67,0.67,0.74,1.13,-3.95,-3.95,-3.95
468.71,-4.58,-0.67,-4.58,-0.66,0.66,0.75,1.15,-3.92,-3.92,-3.91
