frequency,raw,error,smoothed,error_smoothed,equalization,parametric_eq,fixed_band_eq,equalized_raw,equalized_smoothed,target
20.00,5.39,-2.59,5.39,-2.60,2.60,2.13,1.03,7.99,7.99,7.98
20.20,5.40,-2.57,5.40,-2.57,2.57,2.15,1.06,7.97,7.97,7.97
20.40,5.41,-2.55,5.41,-2.55,2.55,2.17,1.09,7.96,7.96,7.96
20.61,5.42,-2.53,5.42,-2.53,2.53,2.18,1.12,7.95,7.95,7.95
20.81,5.43,-2.50,5.43,-2.51,2.51,2.20,1.15,7.94,7.94,7.93
21.02,5.44,-2.48,5.44,-2.49,2.49,2.21,1.19,7.93,7.93,7.92
21.23,5.45,-2.46,5.45,-2.47,2.47,2.22,1.22,7.92,7.92,7.91
21.44,5.46,-2.46,5.46,-2.45,2.45,2.23,1.26,7.91,7.91,7.92
21.66,5.47,-2.43,5.47,-2.43,2.43,2.24,1.29,7.90,7.90,7.90
21.87,5.48,-2.42,5.48,-2.41,2.41,2.24,1.33,7.89,7.89,7.90
22.09,5.48,-2.40,5.49,-2.39,2.39,2.24,1.37,7.87,7.88,7.88
22.31,5.50,-2.37,5.50,-2.38,2.38,2.24,1.41,7.88,7.87,7.87
22.54,5.51,-2.35,5.51,-2.36,2.36,2.24,1.45,7.87,7.87,7.86
22.76,5.52,-2.34,5.52,-2.34,2.34,2.24,1.49,7.86,7.86,7.86
22.99,5.53,-2.32,5.53,-2.33,2.33,2.23,1.54,7.86,7.86,7.85
23.22,5.54,-2.30,5.54,-2.31,2.31,2.23,1.58,7.85,7.85,7.84
23.45,5.55,-2.30,5.55,-2.30,2.30,2.22,1.63,7.85,7.85,7.85
23.69,5.56,-2.28,5.56,-2.28,2.28,2.20,1.67,7.84,7.84,7.84
23.92,5.57,-2.26,5.57,-2.27,2.27,2.19,1.72,7.84,7.84,7.83
24.16,5.57,-2.27,5.58,-2.26,2.26,2.18,1.77,7.83,7.83,7.84
24.40,5.58,-2.26,5.58,-2.25,2.25,2.16,1.82,7.83,7.83,7.84
24.65,5.59,-2.24,5.59,-2.24,2.24,2.15,1.86,7.83,7.83,7.83
24.89,5.60,-2.23,5.60,-2.23,2.23,2.13,1.91,7.83,7.83,7.83
25.14,5.61,-2.21,5.61,-2.22,2.22,2.11,1.96,7.83,7.83,7.82
25.39,5.62,-2.20,5.62,-2.21,2.21,2.09,2.01,7.83,7.83,7.82
25.65,5.63,-2.19,5.63,-2.20,2.20,2.07,2.06,7.83,7.82,7.82
25.91,5.64,-2.18,5.63,-2.19,2.19,2.05,2.11,7.83,7.82,7.82
26.16,5.64,-2.19,5.64,-2.18,2.18,2.03,2.16,7.82,7.82,7.83
26.43,5.65,-2.17,5.65,-2.17,2.17,2.01,2.21,7.82,7.82,7.82
26.69,5.65,-2.17,5.66,-2.17,2.17,1.98,2.26,7.82,7.82,7.82
26.96,5.66,-2.16,5.66,-2.16,2.16,1.96,2.30,7.82,7.82,7.82
27.23,5.67,-2.15,5.67,-2.16,2.16,1.94,2.35,7.83,7.83,7.82
27.50,5.68,-2.14,5.68,-2.15,2.15,1.92,2.39,7.83,7.83,7.82
27.77,5.68,-2.15,5.68,-2.15,2.15,1.90,2.43,7.83,7.83,7.83
28.05,5.69,-2.13,5.69,-2.14,2.14,1.88,2.47,7.83,7.83,7.82
28.33,5.70,-2.13,5.69,-2.14,2.14,1.85,2.51,7.84,7.83,7.83
28.62,5.70,-2.13,5.70,-2.13,2.13,1.83,2.54,7.83,7.83,7.83
28.90,5.71,-2.13,5.71,-2.12,2.12,1.81,2.58,7.83,7.83,7.84
29.19,5.71,-2.13,5.72,-2.11,2.11,1.80,2.61,7.82,7.83,7.84
29.48,5.72,-2.11,5.72,-2.11,2.11,1.78,2.63,7.83,7.83,7.83
29.78,5.73,-2.10,5.73,-2.10,2.10,1.76,2.65,7.83,7.83,7.83
30.08,5.73,-2.10,5.74,-2.08,2.08,1.74,2.67,7.81,7.83,7.83
30.38,5.75,-2.06,5.75,-2.07,2.07,1.73,2.68,7.82,7.82,7.81
30.68,5.76,-2.05,5.76,-2.06,2.06,1.72,2.69,7.82,7.82,7.81
30.99,5.77,-2.04,5.77,-2.05,2.05,1.70,2.70,7.82,7.81,7.81
31.30,5.78,-2.03,5.77,-2.03,2.03,1.69,2.70,7.81,7.81,7.81
31.61,5.78,-2.02,5.78,-2.02,2.02,1.68,2.70,7.80,7.80,7.80
31.93,5.79,-1.99,5.79,-2.00,2.00,1.67,2.69,7.79,7.79,7.78
32.24,5.79,-2.00,5.80,-1.99,1.99,1.67,2.68,7.78,7.78,7.79
32.57,5.80,-1.97,5.80,-1.98,1.98,1.66,2.66,7.78,7.78,7.77
32.89,5.81,-1.96,5.81,-1.96,1.96,1.66,2.65,7.77,7.77,7.77
33.22,5.81,-1.95,5.81,-1.95,1.95,1.66,2.62,7.76,7.77,7.76
33.55,5.82,-1.94,5.81,-1.94,1.94,1.66,2.60,7.76,7.76,7.76
33.89,5.82,-1.93,5.82,-1.94,1.94,1.66,2.57,7.76,7.75,7.75
34.23,5.82,-1.91,5.82,-1.93,1.93,1.66,2.53,7.75,7.74,7.73
34.57,5.81,-1.92,5.81,-1.92,1.92,1.66,2.50,7.73,7.73,7.73
34.92,5.81,-1.90,5.81,-1.91,1.91,1.67,2.46,7.72,7.72,7.71
35.27,5.81,-1.92,5.81,-1.90,1.90,1.68,2.42,7.71,7.71,7.73
35.62,5.80,-1.90,5.80,-1.90,1.90,1.69,2.38,7.70,7.70,7.70
35.97,5.80,-1.90,5.80,-1.89,1.89,1.70,2.34,7.69,7.69,7.70
36.33,5.79,-1.89,5.79,-1.89,1.89,1.71,2.29,7.68,7.68,7.68
36.70,5.78,-1.88,5.78,-1.88,1.88,1.72,2.25,7.66,7.66,7.66
37.06,5.77,-1.87,5.76,-1.88,1.88,1.73,2.20,7.65,7.64,7.64
37.43,5.75,-1.87,5.75,-1.88,1.88,1.75,2.15,7.63,7.63,7.62
37.81,5.74,-1.87,5.74,-1.87,1.87,1.76,2.10,7.61,7.61,7.61
38.19,5.72,-1.86,5.72,-1.86,1.86,1.78,2.06,7.58,7.59,7.58
38.57,5.71,-1.85,5.71,-1.86,1.86,1.79,2.01,7.57,7.56,7.56
38.95,5.69,-1.86,5.69,-1.85,1.85,1.81,1.96,7.54,7.54,7.55
39.34,5.67,-1.85,5.67,-1.85,1.85,1.82,1.91,7.52,7.52,7.52
39.74,5.65,-1.84,5.66,-1.84,1.84,1.83,1.87,7.49,7.50,7.49
40.14,5.64,-1.83,5.64,-1.83,1.83,1.84,1.82,7.47,7.48,7.47
40.54,5.62,-1.83,5.63,-1.83,1.83,1.85,1.77,7.45,7.45,7.45
40.94,5.61,-1.81,5.61,-1.82,1.82,1.85,1.73,7.43,7.43,7.42
41.35,5.60,-1.81,5.60,-1.81,1.81,1.85,1.69,7.41,7.41,7.41
41.76,5.59,-1.79,5.58,-1.80,1.80,1.85,1.64,7.39,7.39,7.38
42.18,5.57,-1.80,5.57,-1.79,1.79,1.85,1.60,7.36,7.36,7.37
42.60,5.56,-1.78,5.56,-1.78,1.78,1.84,1.56,7.34,7.34,7.34
43.03,5.55,-1.77,5.55,-1.77,1.77,1.82,1.52,7.32,7.32,7.32
43.46,5.54,-1.74,5.54,-1.75,1.75,1.80,1.48,7.29,7.29,7.28
43.90,5.52,-1.74,5.53,-1.74,1.74,1.78,1.44,7.26,7.26,7.26
44.33,5.52,-1.71,5.52,-1.72,1.72,1.75,1.41,7.24,7.24,7.23
44.78,5.51,-1.70,5.51,-1.70,1.70,1.72,1.37,7.21,7.21,7.21
45.23,5.51,-1.68,5.50,-1.67,1.67,1.69,1.34,7.18,7.18,7.19
45.68,5.50,-1.64,5.50,-1.64,1.64,1.65,1.31,7.14,7.14,7.14
46.13,5.49,-1.62,5.50,-1.61,1.61,1.61,1.27,7.10,7.11,7.11
46.60,5.49,-1.58,5.50,-1.58,1.58,1.57,1.24,7.07,7.07,7.07
47.06,5.49,-1.55,5.50,-1.54,1.54,1.52,1.21,7.03,7.03,7.04
47.53,5.49,-1.51,5.50,-1.49,1.49,1.47,1.19,6.98,6.99,7.00
48.01,5.49,-1.46,5.50,-1.45,1.45,1.42,1.16,6.94,6.95,6.95
48.49,5.50,-1.41,5.51,-1.41,1.41,1.37,1.13,6.91,6.91,6.91
48.97,5.51,-1.35,5.51,-1.36,1.36,1.32,1.11,6.87,6.87,6.86
49.46,5.52,-1.31,5.52,-1.31,1.31,1.27,1.08,6.83,6.83,6.83
49.96,5.53,-1.24,5.52,-1.27,1.27,1.22,1.06,6.80,6.79,6.77
50.46,5.53,-1.21,5.53,-1.22,1.22,1.17,1.04,6.75,6.74,6.74
50.96,5.54,-1.16,5.53,-1.17,1.17,1.12,1.01,6.71,6.70,6.70
51.47,5.54,-1.12,5.53,-1.13,1.13,1.07,0.99,6.67,6.66,6.66
51.99,5.54,-1.07,5.53,-1.09,1.09,1.03,0.97,6.63,6.62,6.61
52.51,5.53,-1.05,5.53,-1.05,1.05,0.98,0.95,6.58,6.58,6.58
53.03,5.53,-1.02,5.53,-1.01,1.01,0.93,0.93,6.54,6.54,6.55
53.56,5.52,-0.98,5.52,-0.98,0.98,0.89,0.91,6.50,6.50,6.50
54.10,5.51,-0.94,5.51,-0.94,0.94,0.85,0.89,6.45,6.46,6.45
54.64,5.50,-0.91,5.50,-0.92,0.92,0.80,0.87,6.42,6.42,6.41
55.18,5.49,-0.88,5.49,-0.89,0.89,0.76,0.85,6.38,6.38,6.37
55.74,5.48,-0.84,5.48,-0.87,0.87,0.72,0.83,6.35,6.34,6.32
56.29,5.46,-0.84,5.46,-0.84,0.84,0.68,0.82,6.30,6.30,6.30
56.86,5.44,-0.82,5.44,-0.82,0.82,0.65,0.80,6.26,6.26,6.26
57.42,5.43,-0.78,5.43,-0.80,0.80,0.61,0.78,6.23,6.22,6.21
58.00,5.41,-0.76,5.41,-0.77,0.77,0.58,0.76,6.18,6.18,6.17
58.58,5.39,-0.75,5.39,-0.75,0.75,0.54,0.74,6.14,6.13,6.14
59.16,5.37,-0.74,5.37,-0.72,0.72,0.51,0.72,6.09,6.09,6.11
59.76,5.35,-0.71,5.35,-0.70,0.70,0.48,0.70,6.05,6.04,6.06
60.35,5.33,-0.68,5.33,-0.67,0.67,0.45,0.67,6.00,5.99,6.01
60.96,5.30,-0.65,5.31,-0.64,0.64,0.42,0.65,5.94,5.94,5.95
61.57,5.28,-0.61,5.29,-0.60,0.60,0.39,0.63,5.88,5.89,5.89
62.18,5.26,-0.57,5.27,-0.57,0.57,0.36,0.61,5.83,5.84,5.83
62.80,5.25,-0.52,5.26,-0.53,0.53,0.33,0.58,5.78,5.79,5.77
63.43,5.23,-0.49,5.24,-0.49,0.49,0.30,0.56,5.72,5.73,5.72
64.07,5.22,-0.45,5.23,-0.45,0.45,0.28,0.53,5.67,5.68,5.67
64.71,5.21,-0.41,5.22,-0.41,0.41,0.25,0.50,5.62,5.62,5.62
65.35,5.21,-0.35,5.21,-0.36,0.36,0.23,0.48,5.57,5.57,5.56
66.01,5.20,-0.31,5.20,-0.32,0.32,0.20,0.45,5.52,5.51,5.51
66.67,5.19,-0.28,5.19,-0.27,0.27,0.18,0.42,5.46,5.46,5.47
67.33,5.18,-0.22,5.18,-0.22,0.22,0.15,0.39,5.40,5.40,5.40
68.01,5.17,-0.18,5.17,-0.18,0.18,0.13,0.36,5.35,5.35,5.35
68.69,5.16,-0.14,5.16,-0.13,0.13,0.11,0.33,5.29,5.30,5.30
69.37,5.16,-0.09,5.15,-0.09,0.09,0.09,0.30,5.25,5.24,5.25
70.07,5.15,-0.04,5.13,-0.05,0.05,0.06,0.26,5.20,5.18,5.19
70.77,5.13,0.01,5.12,-0.01,0.01,0.04,0.23,5.14,5.12,5.12
71.48,5.11,0.04,5.10,0.03,-0.03,0.02,0.20,5.08,5.07,5.07
72.19,5.08,0.07,5.08,0.07,-0.07,0.00,0.16,5.01,5.01,5.01
72.91,5.06,0.12,5.06,0.10,-0.10,-0.02,0.13,4.96,4.95,4.94
73.64,5.03,0.14,5.04,0.14,-0.14,-0.04,0.09,4.89,4.90,4.89
74.38,5.01,0.18,5.01,0.17,-0.17,-0.06,0.05,4.84,4.84,4.83
75.12,4.99,0.21,4.99,0.21,-0.21,-0.08,0.02,4.78,4.79,4.78
75.87,4.96,0.23,4.97,0.24,-0.24,-0.10,-0.02,4.72,4.73,4.73
76.63,4.94,0.27,4.95,0.27,-0.27,-0.12,-0.06,4.67,4.68,4.67
77.40,4.92,0.29,4.93,0.30,-0.30,-0.14,-0.10,4.62,4.63,4.63
78.17,4.91,0.34,4.92,0.34,-0.34,-0.16,-0.14,4.57,4.58,4.57
78.95,4.90,0.37,4.90,0.37,-0.37,-0.18,-0.17,4.53,4.53,4.53
79.74,4.89,0.41,4.89,0.41,-0.41,-0.20,-0.21,4.48,4.48,4.48
80.54,4.87,0.44,4.87,0.44,-0.44,-0.22,-0.25,4.43,4.43,4.43
81.35,4.85,0.48,4.86,0.48,-0.48,-0.24,-0.29,4.37,4.38,4.37
82.16,4.84,0.50,4.84,0.51,-0.51,-0.26,-0.34,4.33,4.33,4.34
82.98,4.83,0.55,4.82,0.54,-0.54,-0.28,-0.38,4.29,4.28,4.28
83.81,4.82,0.59,4.80,0.58,-0.58,-0.29,-0.42,4.24,4.22,4.23
84.65,4.80,0.63,4.78,0.61,-0.61,-0.31,-0.46,4.19,4.17,4.17
85.50,4.78,0.67,4.76,0.64,-0.64,-0.33,-0.50,4.14,4.12,4.11
86.35,4.75,0.69,4.74,0.68,-0.68,-0.35,-0.55,4.07,4.06,4.06
87.22,4.72,0.71,4.72,0.71,-0.71,-0.37,-0.59,4.01,4.01,4.01
88.09,4.69,0.74,4.69,0.74,-0.74,-0.39,-0.64,3.95,3.95,3.95
88.97,4.66,0.77,4.67,0.77,-0.77,-0.41,-0.68,3.89,3.90,3.89
89.86,4.63,0.79,4.65,0.81,-0.81,-0.43,-0.73,3.82,3.84,3.84
90.76,4.61,0.83,4.63,0.85,-0.85,-0.45,-0.77,3.76,3.78,3.78
91.66,4.59,0.88,4.60,0.89,-0.89,-0.47,-0.82,3.70,3.72,3.71
92.58,4.58,0.92,4.58,0.92,-0.92,-0.50,-0.86,3.66,3.66,3.66
93.51,4.56,0.95,4.56,0.96,-0.96,-0.52,-0.91,3.60,3.60,3.61
94.44,4.54,0.99,4.54,1.00,-1.00,-0.54,-0.96,3.54,3.54,3.55
95.39,4.52,1.04,4.52,1.04,-1.04,-0.56,-1.01,3.48,3.48,3.48
96.34,4.51,1.10,4.50,1.08,-1.08,-0.58,-1.06,3.43,3.41,3.41
97.30,4.49,1.14,4.48,1.13,-1.13,-0.60,-1.11,3.36,3.35,3.35
98.28,4.47,1.19,4.46,1.17,-1.17,-0.63,-1.15,3.30,3.29,3.28
99.26,4.45,1.23,4.44,1.21,-1.21,-0.65,-1.20,3.24,3.23,3.22
100.25,4.41,1.25,4.42,1.25,-1.25,-0.67,-1.25,3.16,3.17,3.16
101.25,4.38,1.27,4.40,1.28,-1.28,-0.69,-1.30,3.10,3.11,3.11
102.27,4.36,1.31,4.37,1.32,-1.32,-0.72,-1.35,3.04,3.05,3.05
103.29,4.35,1.36,4.34,1.35,-1.35,-0.74,-1.40,3.00,3.00,2.99
104.32,4.33,1.39,4.32,1.38,-1.38,-0.77,-1.45,2.95,2.94,2.94
105.37,4.30,1.42,4.29,1.40,-1.40,-0.79,-1.50,2.90,2.88,2.88
106.42,4.27,1.44,4.26,1.43,-1.43,-0.82,-1.55,2.84,2.83,2.83
107.48,4.24,1.47,4.23,1.46,-1.46,-0.84,-1.60,2.78,2.77,2.77
108.56,4.20,1.48,4.20,1.48,-1.48,-0.87,-1.65,2.72,2.71,2.72
109.64,4.16,1.50,4.17,1.51,-1.51,-0.89,-1.70,2.65,2.66,2.66
110.74,4.13,1.53,4.13,1.54,-1.54,-0.92,-1.74,2.59,2.60,2.60
111.85,4.10,1.56,4.10,1.57,-1.57,-0.95,-1.79,2.53,2.54,2.54
112.97,4.07,1.58,4.07,1.59,-1.59,-0.98,-1.83,2.48,2.48,2.49
114.10,4.04,1.61,4.04,1.62,-1.62,-1.00,-1.87,2.42,2.42,2.43
115.24,4.01,1.66,4.01,1.65,-1.65,-1.03,-1.91,2.36,2.36,2.35
116.39,3.99,1.70,3.99,1.69,-1.69,-1.06,-1.95,2.30,2.31,2.29
117.55,3.96,1.73,3.97,1.72,-1.72,-1.09,-1.99,2.24,2.25,2.23
118.73,3.94,1.77,3.95,1.76,-1.76,-1.12,-2.03,2.18,2.19,2.17
119.92,3.91,1.78,3.93,1.80,-1.80,-1.15,-2.06,2.11,2.13,2.13
121.12,3.90,1.82,3.92,1.84,-1.84,-1.19,-2.09,2.06,2.08,2.08
122.33,3.89,1.87,3.90,1.88,-1.88,-1.22,-2.12,2.01,2.02,2.02
123.55,3.88,1.91,3.88,1.92,-1.92,-1.25,-2.15,1.96,1.96,1.97
124.79,3.87,1.95,3.86,1.95,-1.95,-1.28,-2.17,1.92,1.91,1.92
126.03,3.86,2.00,3.84,1.99,-1.99,-1.32,-2.19,1.87,1.85,1.86
127.29,3.85,2.04,3.82,2.02,-2.02,-1.35,-2.21,1.83,1.80,1.81
128.57,3.83,2.09,3.80,2.05,-2.05,-1.39,-2.23,1.78,1.75,1.74
129.85,3.79,2.10,3.77,2.08,-2.08,-1.43,-2.25,1.71,1.69,1.69
131.15,3.75,2.12,3.75,2.11,-2.11,-1.46,-2.26,1.64,1.64,1.63
132.46,3.73,2.15,3.72,2.14,-2.14,-1.50,-2.27,1.59,1.58,1.58
133.79,3.69,2.17,3.70,2.17,-2.17,-1.54,-2.28,1.52,1.53,1.52
135.12,3.65,2.18,3.67,2.20,-2.20,-1.58,-2.29,1.45,1.47,1.47
136.48,3.63,2.21,3.65,2.23,-2.23,-1.62,-2.30,1.40,1.42,1.42
137.84,3.60,2.23,3.63,2.26,-2.26,-1.66,-2.30,1.34,1.37,1.37
139.22,3.59,2.28,3.61,2.29,-2.29,-1.70,-2.31,1.30,1.32,1.31
140.61,3.57,2.30,3.59,2.33,-2.33,-1.74,-2.31,1.24,1.27,1.27
142.02,3.57,2.36,3.58,2.36,-2.36,-1.78,-2.32,1.21,1.22,1.21
143.44,3.57,2.40,3.56,2.39,-2.39,-1.83,-2.32,1.18,1.18,1.17
144.87,3.56,2.43,3.55,2.42,-2.42,-1.87,-2.32,1.14,1.13,1.13
146.32,3.55,2.47,3.53,2.45,-2.45,-1.91,-2.32,1.10,1.08,1.08
147.78,3.54,2.50,3.51,2.47,-2.47,-1.96,-2.33,1.07,1.04,1.04
149.26,3.52,2.53,3.49,2.49,-2.49,-2.01,-2.33,1.03,1.00,0.99
150.75,3.49,2.54,3.47,2.52,-2.52,-2.05,-2.34,0.97,0.95,0.95
152.26,3.46,2.55,3.44,2.53,-2.53,-2.10,-2.34,0.93,0.91,0.91
153.78,3.43,2.56,3.42,2.55,-2.55,-2.15,-2.35,0.88,0.87,0.87
155.32,3.39,2.56,3.39,2.57,-2.57,-2.20,-2.35,0.82,0.82,0.83
156.88,3.35,2.57,3.36,2.58,-2.58,-2.25,-2.36,0.77,0.78,0.78
158.44,3.33,2.60,3.33,2.60,-2.60,-2.30,-2.37,0.73,0.74,0.73
160.03,3.29,2.60,3.31,2.62,-2.62,-2.35,-2.38,0.67,0.69,0.69
161.63,3.27,2.62,3.29,2.64,-2.64,-2.40,-2.40,0.63,0.65,0.65
163.24,3.26,2.66,3.27,2.67,-2.67,-2.45,-2.41,0.59,0.60,0.60
164.88,3.23,2.68,3.26,2.70,-2.70,-2.50,-2.43,0.53,0.55,0.55
166.53,3.23,2.73,3.25,2.74,-2.74,-2.55,-2.44,0.49,0.51,0.50
168.19,3.23,2.76,3.25,2.79,-2.79,-2.60,-2.46,0.44,0.46,0.47
169.87,3.23,2.82,3.24,2.83,-2.83,-2.66,-2.48,0.40,0.41,0.41
171.57,3.24,2.88,3.25,2.88,-2.88,-2.71,-2.51,0.36,0.37,0.36
173.29,3.24,2.92,3.25,2.93,-2.93,-2.76,-2.53,0.31,0.32,0.32
175.02,3.26,2.99,3.25,2.98,-2.98,-2.81,-2.56,0.28,0.27,0.27
176.77,3.27,3.05,3.25,3.02,-3.02,-2.86,-2.59,0.25,0.23,0.22
178.54,3.27,3.09,3.24,3.06,-3.06,-2.92,-2.62,0.21,0.18,0.18
180.32,3.26,3.14,3.24,3.10,-3.10,-2.97,-2.66,0.16,0.13,0.12
182.13,3.25,3.16,3.23,3.14,-3.14,-3.02,-2.69,0.11,0.09,0.09
183.95,3.22,3.18,3.21,3.17,-3.17,-3.07,-2.73,0.05,0.04,0.04
185.79,3.20,3.21,3.19,3.20,-3.20,-3.12,-2.77,0.00,-0.01,-0.01
187.65,3.18,3.23,3.17,3.22,-3.22,-3.17,-2.81,-0.04,-0.05,-0.05
189.52,3.15,3.24,3.14,3.23,-3.23,-3.21,-2.85,-0.08,-0.09,-0.09
191.42,3.11,3.24,3.11,3.25,-3.25,-3.26,-2.90,-0.14,-0.13,-0.13
193.33,3.08,3.25,3.08,3.26,-3.26,-3.31,-2.95,-0.18,-0.18,-0.17
195.27,3.05,3.27,3.05,3.26,-3.26,-3.35,-2.99,-0.21,-0.22,-0.22
197.22,3.02,3.29,3.02,3.27,-3.27,-3.39,-3.04,-0.25,-0.25,-0.27
199.19,2.98,3.28,2.99,3.28,-3.28,-3.43,-3.09,-0.30,-0.29,-0.30
201.18,2.96,3.30,2.97,3.30,-3.30,-3.47,-3.15,-0.34,-0.33,-0.34
203.19,2.93,3.30,2.95,3.31,-3.31,-3.51,-3.20,-0.38,-0.36,-0.37
205.23,2.91,3.30,2.93,3.33,-3.33,-3.54,-3.25,-0.42,-0.40,-0.39
207.28,2.90,3.32,2.92,3.35,-3.35,-3.57,-3.31,-0.45,-0.43,-0.42
209.35,2.90,3.36,2.91,3.37,-3.37,-3.60,-3.36,-0.47,-0.46,-0.46
211.44,2.90,3.39,2.91,3.40,-3.40,-3.63,-3.41,-0.50,-0.49,-0.49
213.56,2.91,3.42,2.91,3.43,-3.43,-3.65,-3.47,-0.52,-0.52,-0.51
215.69,2.92,3.46,2.91,3.46,-3.46,-3.68,-3.52,-0.54,-0.54,-0.54
217.85,2.92,3.49,2.91,3.48,-3.48,-3.70,-3.57,-0.56,-0.57,-0.57
220.03,2.92,3.52,2.92,3.51,-3.51,-3.71,-3.62,-0.59,-0.59,-0.60
222.23,2.92,3.55,2.92,3.54,-3.54,-3.72,-3.67,-0.62,-0.62,-0.63
224.45,2.93,3.57,2.93,3.57,-3.57,-3.73,-3.71,-0.64,-0.64,-0.64
226.70,2.93,3.60,2.93,3.59,-3.59,-3.74,-3.75,-0.66,-0.66,-0.67
228.96,2.94,3.62,2.93,3.61,-3.61,-3.74,-3.79,-0.67,-0.68,-0.68
231.25,2.93,3.63,2.92,3.62,-3.62,-3.74,-3.83,-0.69,-0.70,-0.70
233.57,2.92,3.64,2.91,3.62,-3.62,-3.74,-3.86,-0.70,-0.72,-0.72
235.90,2.91,3.64,2.89,3.62,-3.62,-3.73,-3.88,-0.71,-0.73,-0.73
238.26,2.89,3.65,2.87,3.62,-3.62,-3.73,-3.91,-0.73,-0.74,-0.76
240.64,2.86,3.61,2.85,3.61,-3.61,-3.71,-3.92,-0.75,-0.76,-0.75
243.05,2.84,3.61,2.83,3.60,-3.60,-3.70,-3.94,-0.76,-0.76,-0.77
245.48,2.81,3.59,2.81,3.58,-3.58,-3.68,-3.94,-0.77,-0.77,-0.78
247.93,2.76,3.55,2.78,3.56,-3.56,-3.66,-3.94,-0.80,-0.78,-0.79
250.41,2.74,3.52,2.75,3.54,-3.54,-3.63,-3.94,-0.80,-0.79,-0.78
252.92,2.70,3.49,2.72,3.51,-3.51,-3.61,-3.93,-0.81,-0.79,-0.79
255.45,2.68,3.48,2.69,3.49,-3.49,-3.58,-3.91,-0.81,-0.80,-0.80
258.00,2.67,3.47,2.67,3.47,-3.47,-3.54,-3.89,-0.80,-0.80,-0.80
260.58,2.64,3.44,2.64,3.44,-3.44,-3.51,-3.86,-0.80,-0.80,-0.80
263.19,2.62,3.42,2.61,3.42,-3.42,-3.47,-3.83,-0.80,-0.81,-0.80
265.82,2.58,3.39,2.59,3.40,-3.40,-3.43,-3.79,-0.82,-0.81,-0.81
268.48,2.56,3.37,2.56,3.37,-3.37,-3.39,-3.75,-0.81,-0.81,-0.81
271.16,2.53,3.34,2.54,3.35,-3.35,-3.35,-3.70,-0.82,-0.81,-0.81
273.87,2.50,3.31,2.51,3.32,-3.32,-3.31,-3.65,-0.82,-0.81,-0.81
276.61,2.48,3.29,2.48,3.29,-3.29,-3.26,-3.60,-0.81,-0.82,-0.81
279.38,2.46,3.29,2.45,3.26,-3.26,-3.22,-3.54,-0.80,-0.82,-0.83
282.17,2.44,3.27,2.41,3.23,-3.23,-3.17,-3.48,-0.79,-0.82,-0.83
284.99,2.41,3.23,2.37,3.19,-3.19,-3.12,-3.42,-0.78,-0.81,-0.82
287.84,2.35,3.16,2.34,3.15,-3.15,-3.07,-3.36,-0.80,-0.81,-0.81
290.72,2.30,3.12,2.30,3.11,-3.11,-3.02,-3.29,-0.81,-0.81,-0.82
293.63,2.26,3.07,2.26,3.07,-3.07,-2.97,-3.22,-0.81,-0.81,-0.81
296.57,2.22,3.02,2.23,3.03,-3.03,-2.92,-3.15,-0.81,-0.80,-0.80
299.53,2.17,2.97,2.19,2.99,-2.99,-2.86,-3.08,-0.82,-0.80,-0.80
302.53,2.13,2.91,2.16,2.95,-2.95,-2.81,-3.01,-0.82,-0.79,-0.78
305.55,2.09,2.88,2.12,2.91,-2.91,-2.76,-2.94,-0.82,-0.79,-0.79
308.61,2.07,2.85,2.09,2.86,-2.86,-2.71,-2.87,-0.79,-0.78,-0.78
311.69,2.05,2.82,2.05,2.82,-2.82,-2.65,-2.80,-0.77,-0.77,-0.77
314.81,2.04,2.81,2.02,2.78,-2.78,-2.60,-2.73,-0.74,-0.76,-0.77
317.96,2.02,2.78,1.99,2.75,-2.75,-2.55,-2.66,-0.73,-0.76,-0.76
321.14,1.98,2.73,1.97,2.72,-2.72,-2.49,-2.60,-0.74,-0.75,-0.75
324.35,1.95,2.70,1.94,2.68,-2.68,-2.44,-2.53,-0.73,-0.74,-0.75
327.59,1.91,2.63,1.92,2.65,-2.65,-2.39,-2.46,-0.74,-0.73,-0.72
330.87,1.88,2.61,1.89,2.62,-2.62,-2.34,-2.40,-0.74,-0.73,-0.73
334.18,1.86,2.58,1.87,2.59,-2.59,-2.29,-2.34,-0.73,-0.72,-0.72
337.52,1.82,2.54,1.84,2.55,-2.55,-2.24,-2.28,-0.73,-0.71,-0.72
340.90,1.81,2.51,1.81,2.51,-2.51,-2.19,-2.21,-0.70,-0.70,-0.70
344.30,1.78,2.47,1.78,2.47,-2.47,-2.14,-2.16,-0.69,-0.69,-0.69
347.75,1.76,2.45,1.74,2.43,-2.43,-2.09,-2.10,-0.67,-0.69,-0.69
351.23,1.73,2.42,1.71,2.39,-2.39,-2.04,-2.04,-0.66,-0.68,-0.69
354.74,1.70,2.36,1.68,2.35,-2.35,-1.99,-1.99,-0.65,-0.67,-0.66
358.28,1.66,2.33,1.65,2.31,-2.31,-1.95,-1.94,-0.65,-0.66,-0.67
361.87,1.61,2.27,1.62,2.27,-2.27,-1.90,-1.89,-0.66,-0.66,-0.66
365.49,1.57,2.22,1.59,2.23,-2.23,-1.86,-1.84,-0.66,-0.65,-0.65
369.14,1.54,2.17,1.55,2.19,-2.19,-1.81,-1.79,-0.65,-0.64,-0.63
372.83,1.50,2.13,1.52,2.15,-2.15,-1.77,-1.74,-0.65,-0.63,-0.63
376.56,1.47,2.10,1.49,2.11,-2.11,-1.72,-1.70,-0.64,-0.62,-0.63
380.33,1.45,2.07,1.46,2.07,-2.07,-1.68,-1.65,-0.62,-0.61,-0.62
384.13,1.43,2.03,1.42,2.03,-2.03,-1.64,-1.61,-0.60,-0.60,-0.60
387.97,1.41,2.01,1.39,1.98,-1.98,-1.60,-1.57,-0.57,-0.59,-0.60
391.85,1.38,1.97,1.36,1.94,-1.94,-1.56,-1.53,-0.56,-0.58,-0.59
395.77,1.34,1.92,1.33,1.90,-1.90,-1.52,-1.50,-0.56,-0.57,-0.58
399.73,1.31,1.88,1.30,1.87,-1.87,-1.48,-1.46,-0.56,-0.56,-0.57
403.72,1.27,1.81,1.27,1.83,-1.83,-1.44,-1.42,-0.56,-0.55,-0.54
407.76,1.23,1.78,1.25,1.79,-1.79,-1.40,-1.39,-0.56,-0.54,-0.55
411.84,1.20,1.74,1.22,1.75,-1.75,-1.37,-1.36,-0.55,-0.54,-0.54
415.96,1.18,1.70,1.19,1.71,-1.71,-1.33,-1.32,-0.53,-0.53,-0.52
420.12,1.15,1.67,1.16,1.67,-1.67,-1.29,-1.29,-0.52,-0.52,-0.52
424.32,1.12,1.63,1.13,1.63,-1.63,-1.26,-1.26,-0.51,-0.51,-0.51
428.56,1.11,1.60,1.10,1.59,-1.59,-1.22,-1.24,-0.48,-0.50,-0.49
432.85,1.08,1.56,1.06,1.55,-1.55,-1.19,-1.21,-0.47,-0.49,-0.48
437.18,1.05,1.54,1.03,1.51,-1.51,-1.16,-1.18,-0.46,-0.48,-0.49
441.55,1.02,1.50,1.00,1.48,-1.48,-1.13,-1.15,-0.46,-0.47,-0.48
445.96,0.98,1.45,0.98,1.44,-1.44,-1.09,-1.13,-0.46,-0.46,-0.47
450.42,0.94,1.40,0.95,1.40,-1.40,-1.06,-1.10,-0.46,-0.45,-0.46
454.93,0.91,1.36,0.92,1.36,-1.36,-1.03,-1.08,-0.45,-0.44,-0.45
459.48,0.87,1.31,0.89,1.32,-1.32,-1.00,-1.06,-0.45,-0.44,-0.44
464.07,0.85,1.27,0.86,1.29,-1.29,-0.97,-1.03,-0.44,-0.43,-0.42
468.71,0.82,1.23,0.83,1.25,-1.25,-0.94,-1.01,-0.43,-0.42,-0.41
473.40,0.79,1.20,0.80,1.21,-1.21,-0.91,-0.99,-0.42,-0.41,-0.41
478.13,0.77,1.17,0.77,1.17,-1.17,-0.89,-0.97,-0.40,-0.40,-0.40
482.91,0.75,1.14,0.74,1.13,-1.13,-0.86,-0.95,-0.38,-0.39,-0.39
487.74,0.73,1.11,0.71,1.09,-1.09,-0.83,-0.93,-0.36,-0.37,-0.38
492.62,0.70,1.07,0.69,1.05,-1.05,-0.81,-0.91,-0.35,-0.36,-0.37
497.55,0.66,1.02,0.66,1.01,-1.01,-0.78,-0.89,-0.35,-0.35,-0.36
502.52,0.63,0.98,0.63,0.97,-0.97,-0.75,-0.87,-0.34,-0.34,-0.35
507.55,0.60,0.93,0.60,0.93,-0.93,-0.73,-0.85,-0.33,-0.33,-0.33
512.62,0.57,0.89,0.57,0.89,-0.89,-0.70,-0.83,-0.32,-0.32,-0.32
517.75,0.54,0.84,0.55,0.85,-0.85,-0.68,-0.81,-0.31,-0.31,-0.30
522.93,0.52,0.81,0.52,0.81,-0.81,-0.66,-0.79,-0.29,-0.29,-0.29
528.16,0.49,0.77,0.49,0.77,-0.77,-0.63,-0.77,-0.28,-0.28,-0.28
