frequency,raw,error,smoothed,error_smoothed,equalization,parametric_eq,fixed_band_eq,equalized_raw,equalized_smoothed,target
20.00,-15.96,-24.87,-15.95,-24.89,24.89,22.51,12.45,8.93,8.94,8.91
20.20,-15.85,-24.80,-15.84,-24.81,24.81,22.82,12.64,8.97,8.97,8.95
20.40,-15.74,-24.73,-15.73,-24.73,24.73,23.12,12.84,9.00,9.00,8.99
20.61,-15.62,-24.64,-15.62,-24.65,24.65,23.38,13.04,9.03,9.03,9.02
20.81,-15.51,-24.57,-15.51,-24.56,24.56,23.62,13.25,9.06,9.05,9.06
21.02,-15.40,-24.50,-15.40,-24.47,24.47,23.81,13.46,9.08,9.08,9.10
21.23,-15.29,-24.41,-15.28,-24.39,24.39,23.97,13.68,9.10,9.10,9.12
21.44,-15.16,-24.31,-15.17,-24.29,24.29,24.09,13.90,9.13,9.12,9.14
21.66,-15.06,-24.22,-15.06,-24.20,24.20,24.16,14.13,9.14,9.14,9.16
21.87,-14.94,-24.11,-14.94,-24.11,24.11,24.19,14.36,9.16,9.16,9.17
22.09,-14.82,-24.01,-14.83,-24.01,24.01,24.18,14.60,9.18,9.18,9.19
22.31,-14.70,-23.90,-14.71,-23.91,23.91,24.13,14.85,9.20,9.20,9.20
22.54,-14.60,-23.81,-14.60,-23.80,23.80,24.04,15.10,9.21,9.21,9.21
22.76,-14.48,-23.69,-14.48,-23.70,23.70,23.92,15.36,9.22,9.22,9.22
22.99,-14.37,-23.58,-14.36,-23.59,23.59,23.78,15.63,9.22,9.23,9.22
23.22,-14.25,-23.47,-14.24,-23.48,23.48,23.61,15.90,9.23,9.23,9.23
23.45,-14.13,-23.36,-14.12,-23.37,23.37,23.43,16.19,9.24,9.24,9.23
23.69,-14.01,-23.25,-14.00,-23.26,23.26,23.24,16.48,9.25,9.25,9.24
23.92,-13.88,-23.14,-13.88,-23.15,23.15,23.03,16.78,9.26,9.26,9.25
24.16,-13.77,-23.04,-13.76,-23.03,23.03,22.82,17.09,9.27,9.27,9.27
24.40,-13.64,-22.94,-13.64,-22.92,22.92,22.61,17.42,9.28,9.28,9.29
24.65,-13.52,-22.81,-13.52,-22.81,22.81,22.39,17.75,9.29,9.29,9.29
24.89,-13.39,-22.69,-13.40,-22.70,22.70,22.18,18.10,9.30,9.30,9.30
25.14,-13.27,-22.58,-13.27,-22.58,22.58,21.97,18.46,9.31,9.31,9.31
25.39,-13.14,-22.46,-13.15,-22.47,22.47,21.77,18.83,9.32,9.32,9.32
25.65,-13.03,-22.36,-13.02,-22.35,22.35,21.57,19.22,9.33,9.33,9.34
25.91,-12.91,-22.24,-12.90,-22.24,22.24,21.38,19.62,9.33,9.34,9.34
26.16,-12.77,-22.12,-12.78,-22.13,22.13,21.20,20.04,9.35,9.35,9.34
26.43,-12.65,-22.00,-12.65,-22.01,22.01,21.02,20.48,9.36,9.36,9.35
26.69,-12.53,-21.89,-12.53,-21.89,21.89,20.85,20.94,9.37,9.37,9.36
26.96,-12.40,-21.78,-12.40,-21.77,21.77,20.69,21.42,9.38,9.37,9.38
27.23,-12.27,-21.66,-12.27,-21.65,21.65,20.53,21.92,9.39,9.38,9.39
27.50,-12.15,-21.54,-12.14,-21.54,21.54,20.38,22.44,9.39,9.39,9.40
27.77,-12.01,-21.41,-12.01,-21.41,21.41,20.25,22.99,9.40,9.40,9.40
28.05,-11.90,-21.31,-11.89,-21.29,21.29,20.11,23.57,9.40,9.41,9.41
28.33,-11.77,-21.18,-11.76,-21.17,21.17,19.99,24.16,9.41,9.42,9.41
28.62,-11.64,-21.06,-11.63,-21.05,21.05,19.87,24.78,9.41,9.42,9.42
28.90,-11.50,-20.92,-11.50,-20.93,20.93,19.77,25.42,9.44,9.43,9.43
29.19,-11.37,-20.79,-11.37,-20.81,20.81,19.66,26.08,9.45,9.44,9.43
29.48,-11.24,-20.69,-11.25,-20.69,20.69,19.57,26.73,9.46,9.45,9.46
29.78,-11.11,-20.56,-11.12,-20.57,20.57,19.48,27.38,9.46,9.45,9.45
30.08,-10.98,-20.44,-10.99,-20.45,20.45,19.40,27.99,9.47,9.46,9.46
30.38,-10.86,-20.32,-10.86,-20.33,20.33,19.32,28.52,9.47,9.46,9.46
30.68,-10.74,-20.21,-10.73,-20.20,20.20,19.25,28.95,9.47,9.47,9.48
30.99,-10.62,-20.09,-10.60,-20.08,20.08,19.19,29.22,9.46,9.48,9.48
31.30,-10.48,-19.96,-10.47,-19.96,19.96,19.13,29.31,9.48,9.48,9.48
31.61,-10.35,-19.84,-10.34,-19.83,19.83,19.07,29.21,9.49,9.49,9.49
31.93,-10.22,-19.72,-10.21,-19.71,19.71,19.02,28.92,9.49,9.50,9.50
32.24,-10.08,-19.58,-10.08,-19.58,19.58,18.97,28.49,9.50,9.51,9.50
32.57,-9.95,-19.46,-9.94,-19.46,19.46,18.92,27.95,9.51,9.51,9.51
32.89,-9.81,-19.32,-9.81,-19.33,19.33,18.88,27.35,9.52,9.52,9.52
33.22,-9.68,-19.20,-9.67,-19.20,19.20,18.84,26.71,9.52,9.53,9.53
33.55,-9.53,-19.07,-9.54,-19.07,19.07,18.80,26.06,9.53,9.53,9.53
33.89,-9.40,-18.94,-9.40,-18.94,18.94,18.76,25.42,9.54,9.54,9.54
34.23,-9.26,-18.80,-9.26,-18.81,18.81,18.72,24.80,9.55,9.54,9.55
34.57,-9.13,-18.68,-9.13,-18.68,18.68,18.68,24.19,9.55,9.55,9.55
34.92,-8.99,-18.54,-8.99,-18.54,18.54,18.64,23.61,9.56,9.55,9.55
35.27,-8.86,-18.41,-8.85,-18.41,18.41,18.59,23.05,9.55,9.56,9.56
35.62,-8.72,-18.28,-8.72,-18.28,18.28,18.54,22.52,9.56,9.56,9.56
35.97,-8.58,-18.14,-8.58,-18.14,18.14,18.49,22.01,9.56,9.56,9.56
36.33,-8.44,-18.01,-8.44,-18.01,18.01,18.44,21.53,9.56,9.56,9.56
36.70,-8.31,-17.87,-8.31,-17.87,17.87,18.38,21.06,9.56,9.56,9.56
37.06,-8.17,-17.74,-8.17,-17.74,17.74,18.31,20.62,9.56,9.56,9.56
37.43,-8.03,-17.60,-8.04,-17.60,17.60,18.24,20.20,9.56,9.56,9.57
37.81,-7.91,-17.47,-7.90,-17.46,17.46,18.16,19.79,9.55,9.56,9.56
38.19,-7.77,-17.33,-7.77,-17.32,17.32,18.07,19.41,9.56,9.56,9.56
38.57,-7.63,-17.18,-7.63,-17.18,17.18,17.97,19.03,9.56,9.55,9.55
38.95,-7.49,-17.04,-7.50,-17.05,17.05,17.87,18.68,9.55,9.55,9.55
39.34,-7.36,-16.91,-7.36,-16.91,16.91,17.76,18.34,9.54,9.55,9.54
39.74,-7.24,-16.77,-7.23,-16.77,16.77,17.64,18.01,9.54,9.54,9.54
40.14,-7.10,-16.64,-7.10,-16.64,16.64,17.51,17.69,9.54,9.54,9.54
40.54,-6.97,-16.50,-6.97,-16.50,16.50,17.37,17.38,9.54,9.54,9.53
40.94,-6.84,-16.36,-6.84,-16.37,16.37,17.23,17.09,9.53,9.53,9.53
41.35,-6.71,-16.23,-6.71,-16.23,16.23,17.08,16.81,9.53,9.53,9.52
41.76,-6.56,-16.09,-6.58,-16.10,16.10,16.91,16.53,9.54,9.52,9.52
42.18,-6.45,-15.97,-6.45,-15.97,15.97,16.75,16.27,9.52,9.52,9.53
42.60,-6.31,-15.83,-6.33,-15.84,15.84,16.57,16.01,9.53,9.51,9.52
43.03,-6.20,-15.72,-6.20,-15.71,15.71,16.39,15.76,9.51,9.51,9.52
43.46,-6.08,-15.59,-6.07,-15.58,15.58,16.21,15.52,9.50,9.50,9.51
43.90,-5.96,-15.45,-5.95,-15.45,15.45,16.02,15.29,9.49,9.50,9.49
44.33,-5.82,-15.32,-5.82,-15.32,15.32,15.83,15.07,9.49,9.50,9.49
44.78,-5.70,-15.18,-5.70,-15.19,15.19,15.63,14.85,9.49,9.49,9.48
45.23,-5.58,-15.05,-5.57,-15.05,15.05,15.43,14.64,9.48,9.49,9.47
45.68,-5.45,-14.92,-5.44,-14.92,14.92,15.23,14.43,9.47,9.48,9.47
46.13,-5.31,-14.78,-5.31,-14.78,14.78,15.03,14.23,9.47,9.47,9.46
46.60,-5.19,-14.66,-5.18,-14.65,14.65,14.83,14.04,9.46,9.47,9.47
47.06,-5.05,-14.51,-5.05,-14.50,14.50,14.62,13.85,9.46,9.46,9.46
47.53,-4.91,-14.36,-4.91,-14.36,14.36,14.42,13.67,9.45,9.45,9.45
48.01,-4.78,-14.23,-4.77,-14.21,14.21,14.22,13.49,9.43,9.44,9.46
48.49,-4.64,-14.07,-4.64,-14.06,14.06,14.02,13.31,9.42,9.43,9.44
48.97,-4.50,-13.91,-4.50,-13.91,13.91,13.82,13.14,9.41,9.41,9.41
49.46,-4.36,-13.75,-4.36,-13.76,13.76,13.63,12.98,9.40,9.40,9.40
49.96,-4.22,-13.59,-4.21,-13.60,13.60,13.44,12.82,9.38,9.39,9.38
50.46,-4.08,-13.45,-4.07,-13.44,13.44,13.25,12.66,9.36,9.37,9.37
50.96,-3.93,-13.28,-3.93,-13.28,13.28,13.06,12.50,9.35,9.35,9.36
51.47,-3.79,-13.11,-3.79,-13.12,13.12,12.88,12.35,9.33,9.33,9.32
51.99,-3.64,-12.94,-3.64,-12.96,12.96,12.70,12.20,9.32,9.31,9.30
52.51,-3.50,-12.80,-3.50,-12.79,12.79,12.53,12.06,9.30,9.29,9.30
53.03,-3.36,-12.63,-3.36,-12.63,12.63,12.35,11.91,9.27,9.27,9.27
53.56,-3.22,-12.47,-3.22,-12.46,12.46,12.19,11.77,9.25,9.25,9.25
54.10,-3.07,-12.29,-3.07,-12.30,12.30,12.03,11.63,9.23,9.23,9.23
54.64,-2.93,-12.13,-2.93,-12.13,12.13,11.87,11.49,9.21,9.20,9.21
55.18,-2.79,-11.96,-2.79,-11.97,11.97,11.71,11.36,9.19,9.18,9.18
55.74,-2.66,-11.80,-2.65,-11.81,11.81,11.56,11.22,9.15,9.16,9.15
56.29,-2.52,-11.65,-2.51,-11.64,11.64,11.41,11.09,9.12,9.13,9.14
56.86,-2.38,-11.48,-2.37,-11.47,11.47,11.26,10.95,9.10,9.11,9.10
57.42,-2.23,-11.30,-2.23,-11.31,11.31,11.12,10.82,9.08,9.08,9.07
58.00,-2.09,-11.14,-2.08,-11.14,11.14,10.98,10.68,9.05,9.05,9.05
58.58,-1.94,-10.96,-1.94,-10.97,10.97,10.83,10.55,9.03,9.02,9.03
59.16,-1.80,-10.80,-1.81,-10.80,10.80,10.69,10.41,9.00,8.99,9.00
59.76,-1.67,-10.64,-1.67,-10.63,10.63,10.55,10.27,8.96,8.96,8.98
60.35,-1.53,-10.47,-1.53,-10.45,10.45,10.41,10.14,8.93,8.93,8.94
60.96,-1.39,-10.29,-1.39,-10.28,10.28,10.26,10.00,8.89,8.89,8.90
61.57,-1.25,-10.10,-1.25,-10.10,10.10,10.12,9.86,8.86,8.85,8.86
62.18,-1.11,-9.91,-1.11,-9.93,9.93,9.97,9.71,8.82,8.82,8.81
62.80,-0.98,-9.75,-0.97,-9.75,9.75,9.81,9.57,8.77,8.78,8.78
63.43,-0.84,-9.56,-0.83,-9.57,9.57,9.66,9.43,8.73,8.74,8.73
64.07,-0.71,-9.39,-0.69,-9.39,9.39,9.50,9.28,8.68,8.69,8.69
64.71,-0.57,-9.21,-0.56,-9.21,9.21,9.33,9.13,8.64,8.65,8.65
65.35,-0.43,-9.03,-0.42,-9.02,9.02,9.16,8.98,8.60,8.61,8.60
66.01,-0.28,-8.84,-0.28,-8.84,8.84,8.99,8.83,8.56,8.56,8.56
66.67,-0.14,-8.66,-0.14,-8.66,8.66,8.81,8.68,8.52,8.52,8.52
67.33,0.00,-8.47,-0.00,-8.48,8.48,8.63,8.53,8.48,8.47,8.48
68.01,0.13,-8.30,0.13,-8.29,8.29,8.45,8.37,8.43,8.43,8.43
68.69,0.27,-8.11,0.27,-8.11,8.11,8.26,8.21,8.39,8.38,8.39
69.37,0.40,-7.93,0.40,-7.93,7.93,8.07,8.06,8.34,8.34,8.34
70.07,0.53,-7.75,0.54,-7.76,7.76,7.88,7.90,8.29,8.29,8.29
70.77,0.67,-7.57,0.67,-7.58,7.58,7.70,7.74,8.25,8.25,8.25
71.48,0.80,-7.40,0.80,-7.40,7.40,7.51,7.58,8.21,8.20,8.21
72.19,0.92,-7.23,0.93,-7.23,7.23,7.32,7.42,8.15,8.16,8.15
72.91,1.05,-7.06,1.05,-7.06,7.06,7.13,7.25,8.11,8.11,8.11
73.64,1.18,-6.88,1.18,-6.89,6.89,6.95,7.09,8.08,8.07,8.07
74.38,1.30,-6.73,1.30,-6.72,6.72,6.76,6.93,8.03,8.03,8.03
75.12,1.42,-6.56,1.43,-6.56,6.56,6.58,6.77,7.99,7.99,7.99
75.87,1.54,-6.40,1.55,-6.40,6.40,6.40,6.60,7.94,7.95,7.95
76.63,1.66,-6.25,1.67,-6.24,6.24,6.23,6.44,7.91,7.91,7.91
77.40,1.78,-6.09,1.79,-6.09,6.09,6.06,6.28,7.87,7.87,7.87
78.17,1.91,-5.92,1.90,-5.93,5.93,5.89,6.11,7.85,7.84,7.83
78.95,2.02,-5.78,2.02,-5.78,5.78,5.72,5.95,7.81,7.80,7.80
79.74,2.13,-5.63,2.13,-5.63,5.63,5.56,5.79,7.77,7.77,7.77
80.54,2.25,-5.48,2.25,-5.48,5.48,5.40,5.62,7.74,7.73,7.74
81.35,2.36,-5.34,2.36,-5.34,5.34,5.24,5.46,7.70,7.70,7.70
82.16,2.47,-5.19,2.47,-5.19,5.19,5.08,5.30,7.67,7.67,7.67
82.98,2.58,-5.06,2.59,-5.05,5.05,4.93,5.14,7.64,7.64,7.64
83.81,2.69,-4.91,2.70,-4.91,4.91,4.78,4.97,7.60,7.61,7.60
84.65,2.80,-4.76,2.81,-4.77,4.77,4.64,4.81,7.57,7.58,7.57
85.50,2.92,-4.63,2.92,-4.63,4.63,4.49,4.65,7.55,7.55,7.55
86.35,3.03,-4.49,3.03,-4.49,4.49,4.35,4.49,7.52,7.52,7.52
87.22,3.14,-4.35,3.14,-4.35,4.35,4.21,4.33,7.49,7.49,7.49
88.09,3.25,-4.21,3.25,-4.21,4.21,4.08,4.16,7.46,7.46,7.46
88.97,3.36,-4.08,3.37,-4.07,4.07,3.94,4.00,7.43,7.44,7.44
89.86,3.47,-3.94,3.48,-3.93,3.93,3.81,3.84,7.40,7.41,7.42
90.76,3.59,-3.78,3.60,-3.79,3.79,3.68,3.68,7.38,7.38,7.37
91.66,3.71,-3.64,3.71,-3.64,3.64,3.55,3.52,7.36,7.35,7.35
92.58,3.82,-3.49,3.83,-3.50,3.50,3.42,3.36,7.32,7.32,7.32
93.51,3.93,-3.37,3.95,-3.35,3.35,3.30,3.20,7.28,7.29,7.30
94.44,4.04,-3.22,4.06,-3.20,3.20,3.17,3.04,7.25,7.26,7.27
95.39,4.16,-3.08,4.17,-3.06,3.06,3.05,2.88,7.22,7.23,7.24
96.34,4.28,-2.91,4.28,-2.91,2.91,2.93,2.72,7.20,7.20,7.20
97.30,4.40,-2.76,4.39,-2.77,2.77,2.81,2.56,7.18,7.16,7.16
98.28,4.51,-2.61,4.50,-2.63,2.63,2.69,2.40,7.14,7.13,7.12
99.26,4.62,-2.46,4.60,-2.49,2.49,2.57,2.24,7.11,7.09,7.09
100.25,4.72,-2.33,4.70,-2.35,2.35,2.45,2.08,7.07,7.05,7.05
101.25,4.83,-2.18,4.80,-2.21,2.21,2.33,1.93,7.05,7.01,7.01
102.27,4.91,-2.05,4.90,-2.07,2.07,2.22,1.77,6.99,6.97,6.97
103.29,4.97,-1.94,4.99,-1.93,1.93,2.10,1.62,6.91,6.92,6.92
104.32,5.04,-1.84,5.08,-1.79,1.79,1.98,1.46,6.84,6.88,6.88
105.37,5.14,-1.69,5.17,-1.65,1.65,1.87,1.31,6.80,6.83,6.83
106.42,5.23,-1.54,5.26,-1.52,1.52,1.75,1.16,6.75,6.77,6.78
107.48,5.32,-1.40,5.34,-1.38,1.38,1.64,1.02,6.71,6.72,6.73
108.56,5.40,-1.26,5.41,-1.25,1.25,1.52,0.88,6.65,6.66,6.66
109.64,5.48,-1.12,5.49,-1.11,1.11,1.41,0.74,6.59,6.60,6.60
110.74,5.57,-0.97,5.56,-0.98,0.98,1.29,0.60,6.55,6.54,6.54
111.85,5.65,-0.82,5.63,-0.84,0.84,1.18,0.47,6.50,6.47,6.48
112.97,5.71,-0.69,5.69,-0.71,0.71,1.06,0.34,6.43,6.40,6.40
114.10,5.76,-0.58,5.75,-0.59,0.59,0.95,0.22,6.35,6.34,6.34
115.24,5.82,-0.44,5.80,-0.47,0.47,0.83,0.10,6.29,6.27,6.27
116.39,5.84,-0.35,5.85,-0.35,0.35,0.72,-0.01,6.19,6.20,6.19
117.55,5.88,-0.24,5.89,-0.24,0.24,0.60,-0.12,6.12,6.13,6.13
118.73,5.92,-0.13,5.93,-0.14,0.14,0.49,-0.22,6.06,6.06,6.05
119.92,5.95,-0.04,5.95,-0.04,0.04,0.38,-0.31,6.00,6.00,6.00
121.12,5.97,0.05,5.97,0.04,-0.04,0.27,-0.40,5.93,5.93,5.92
122.33,5.98,0.12,5.99,0.13,-0.13,0.15,-0.48,5.86,5.87,5.86
123.55,6.00,0.20,6.00,0.20,-0.20,0.05,-0.55,5.80,5.80,5.81
124.79,6.02,0.28,6.01,0.27,-0.27,-0.06,-0.62,5.76,5.74,5.75
126.03,6.03,0.35,6.02,0.34,-0.34,-0.17,-0.67,5.70,5.68,5.68
127.29,6.03,0.41,6.02,0.40,-0.40,-0.27,-0.72,5.63,5.62,5.62
128.57,6.02,0.47,6.02,0.46,-0.46,-0.37,-0.77,5.56,5.56,5.55
129.85,6.01,0.51,6.03,0.52,-0.52,-0.47,-0.80,5.49,5.51,5.50
131.15,6.00,0.56,6.03,0.58,-0.58,-0.57,-0.83,5.43,5.45,5.45
132.46,6.00,0.61,6.03,0.63,-0.63,-0.66,-0.86,5.37,5.40,5.40
133.79,6.00,0.65,6.03,0.68,-0.68,-0.75,-0.88,5.32,5.35,5.35
135.12,6.01,0.72,6.03,0.73,-0.73,-0.83,-0.89,5.28,5.30,5.30
136.48,6.01,0.76,6.02,0.78,-0.78,-0.91,-0.89,5.24,5.25,5.25
137.84,6.02,0.83,6.02,0.82,-0.82,-0.98,-0.89,5.20,5.20,5.20
139.22,6.03,0.89,6.01,0.86,-0.86,-1.05,-0.89,5.17,5.15,5.14
140.61,6.02,0.93,6.01,0.90,-0.90,-1.11,-0.88,5.12,5.11,5.09
142.02,6.01,0.95,6.00,0.94,-0.94,-1.17,-0.87,5.08,5.06,5.06
143.44,6.00,0.98,5.99,0.97,-0.97,-1.22,-0.86,5.03,5.01,5.02
144.87,5.97,1.00,5.97,1.01,-1.01,-1.26,-0.84,4.97,4.97,4.97
146.32,5.95,1.03,5.95,1.03,-1.03,-1.30,-0.82,4.92,4.92,4.92
147.78,5.92,1.04,5.93,1.06,-1.06,-1.33,-0.80,4.87,4.87,4.89
149.26,5.90,1.06,5.91,1.08,-1.08,-1.35,-0.78,4.83,4.83,4.84
150.75,5.87,1.10,5.87,1.10,-1.10,-1.36,-0.75,4.78,4.78,4.77
152.26,5.84,1.11,5.84,1.11,-1.11,-1.37,-0.73,4.73,4.73,4.73
153.78,5.81,1.13,5.81,1.13,-1.13,-1.38,-0.70,4.69,4.68,4.69
155.32,5.77,1.15,5.77,1.14,-1.14,-1.37,-0.68,4.64,4.63,4.62
156.88,5.71,1.13,5.73,1.15,-1.15,-1.36,-0.65,4.56,4.58,4.58
158.44,5.69,1.16,5.69,1.16,-1.16,-1.35,-0.62,4.53,4.53,4.53
160.03,5.63,1.16,5.65,1.17,-1.17,-1.33,-0.60,4.46,4.48,4.47
161.63,5.59,1.18,5.60,1.18,-1.18,-1.31,-0.57,4.41,4.42,4.41
163.24,5.55,1.19,5.55,1.18,-1.18,-1.28,-0.55,4.37,4.37,4.37
164.88,5.49,1.17,5.50,1.19,-1.19,-1.25,-0.53,4.31,4.32,4.32
166.53,5.46,1.20,5.45,1.19,-1.19,-1.22,-0.50,4.27,4.26,4.26
168.19,5.42,1.22,5.40,1.19,-1.19,-1.18,-0.48,4.24,4.21,4.21
169.87,5.34,1.19,5.34,1.19,-1.19,-1.14,-0.46,4.16,4.15,4.15
171.57,5.28,1.18,5.28,1.18,-1.18,-1.10,-0.44,4.10,4.10,4.10
173.29,5.23,1.19,5.21,1.18,-1.18,-1.06,-0.42,4.06,4.04,4.04
175.02,5.13,1.15,5.15,1.17,-1.17,-1.02,-0.40,3.96,3.98,3.99
176.77,5.06,1.15,5.08,1.16,-1.16,-0.97,-0.39,3.90,3.92,3.92
178.54,5.00,1.15,5.01,1.15,-1.15,-0.93,-0.37,3.85,3.86,3.86
180.32,4.94,1.14,4.94,1.14,-1.14,-0.89,-0.36,3.81,3.80,3.80
182.13,4.88,1.14,4.86,1.13,-1.13,-0.84,-0.35,3.76,3.74,3.74
183.95,4.77,1.10,4.79,1.11,-1.11,-0.80,-0.34,3.66,3.68,3.68
185.79,4.70,1.08,4.71,1.09,-1.09,-0.75,-0.33,3.61,3.62,3.62
187.65,4.62,1.08,4.63,1.08,-1.08,-0.71,-0.32,3.55,3.56,3.54
189.52,4.56,1.07,4.56,1.06,-1.06,-0.67,-0.31,3.50,3.50,3.49
191.42,4.48,1.05,4.48,1.04,-1.04,-0.62,-0.30,3.44,3.44,3.44
193.33,4.40,1.02,4.40,1.02,-1.02,-0.58,-0.30,3.38,3.38,3.38
195.27,4.32,0.99,4.33,1.00,-1.00,-0.54,-0.29,3.32,3.32,3.33
197.22,4.24,0.98,4.25,0.98,-0.98,-0.50,-0.29,3.26,3.27,3.27
199.19,4.16,0.96,4.17,0.95,-0.95,-0.46,-0.28,3.21,3.22,3.21
201.18,4.08,0.93,4.09,0.93,-0.93,-0.42,-0.28,3.15,3.16,3.16
203.19,4.01,0.90,4.02,0.91,-0.91,-0.39,-0.28,3.11,3.11,3.12
205.23,3.94,0.89,3.94,0.88,-0.88,-0.35,-0.28,3.06,3.06,3.06
207.28,3.87,0.84,3.87,0.85,-0.85,-0.31,-0.28,3.02,3.01,3.03
209.35,3.79,0.82,3.79,0.82,-0.82,-0.28,-0.28,2.97,2.97,2.97
211.44,3.71,0.80,3.71,0.79,-0.79,-0.25,-0.28,2.92,2.92,2.91
213.56,3.64,0.77,3.64,0.76,-0.76,-0.21,-0.28,2.89,2.88,2.88
215.69,3.55,0.70,3.56,0.72,-0.72,-0.18,-0.28,2.83,2.84,2.85
217.85,3.48,0.68,3.48,0.68,-0.68,-0.15,-0.28,2.80,2.80,2.81
220.03,3.42,0.66,3.41,0.64,-0.64,-0.12,-0.27,2.78,2.77,2.76
222.23,3.34,0.62,3.33,0.60,-0.60,-0.09,-0.27,2.74,2.74,2.73
224.45,3.25,0.55,3.26,0.56,-0.56,-0.07,-0.27,2.70,2.71,2.70
226.70,3.18,0.50,3.19,0.51,-0.51,-0.04,-0.27,2.67,2.68,2.68
228.96,3.11,0.47,3.12,0.46,-0.46,-0.01,-0.26,2.65,2.65,2.65
231.25,3.05,0.42,3.05,0.42,-0.42,0.01,-0.26,2.64,2.63,2.63
233.57,2.97,0.36,2.98,0.37,-0.37,0.04,-0.25,2.61,2.61,2.61
235.90,2.88,0.29,2.91,0.32,-0.32,0.06,-0.24,2.57,2.60,2.59
238.26,2.84,0.27,2.85,0.27,-0.27,0.09,-0.24,2.58,2.58,2.58
240.64,2.78,0.22,2.79,0.22,-0.22,0.11,-0.22,2.57,2.57,2.57
243.05,2.73,0.17,2.73,0.16,-0.16,0.13,-0.21,2.57,2.56,2.57
245.48,2.67,0.12,2.67,0.11,-0.11,0.16,-0.20,2.56,2.56,2.56
247.93,2.61,0.06,2.61,0.06,-0.06,0.18,-0.18,2.56,2.56,2.56
250.41,2.56,0.02,2.56,0.01,-0.01,0.20,-0.16,2.56,2.56,2.55
252.92,2.49,-0.06,2.51,-0.05,0.05,0.22,-0.15,2.54,2.56,2.56
255.45,2.45,-0.12,2.46,-0.11,0.11,0.24,-0.12,2.56,2.56,2.57
258.00,2.41,-0.16,2.41,-0.16,0.16,0.26,-0.10,2.58,2.57,2.57
260.58,2.37,-0.20,2.36,-0.22,0.22,0.28,-0.08,2.59,2.58,2.57
263.19,2.32,-0.26,2.31,-0.28,0.28,0.30,-0.05,2.60,2.59,2.59
265.82,2.26,-0.32,2.26,-0.34,0.34,0.32,-0.02,2.60,2.60,2.59
268.48,2.21,-0.40,2.21,-0.39,0.39,0.34,0.01,2.61,2.61,2.61
271.16,2.16,-0.46,2.17,-0.45,0.45,0.36,0.04,2.61,2.62,2.62
273.87,2.11,-0.51,2.12,-0.51,0.51,0.38,0.08,2.62,2.63,2.63
276.61,2.08,-0.57,2.08,-0.56,0.56,0.40,0.11,2.64,2.64,2.65
279.38,2.02,-0.63,2.04,-0.61,0.61,0.42,0.15,2.64,2.65,2.65
282.17,1.98,-0.68,2.00,-0.67,0.67,0.44,0.19,2.65,2.67,2.67
284.99,1.95,-0.73,1.96,-0.72,0.72,0.46,0.23,2.67,2.68,2.68
287.84,1.91,-0.77,1.92,-0.77,0.77,0.48,0.27,2.68,2.69,2.69
290.72,1.88,-0.82,1.88,-0.82,0.82,0.50,0.32,2.70,2.70,2.70
293.63,1.85,-0.86,1.85,-0.87,0.87,0.52,0.36,2.72,2.72,2.72
296.57,1.82,-0.91,1.82,-0.91,0.91,0.53,0.41,2.74,2.73,2.73
299.53,1.78,-0.95,1.78,-0.96,0.96,0.55,0.45,2.74,2.74,2.74
302.53,1.74,-1.00,1.75,-1.00,1.00,0.57,0.50,2.75,2.75,2.74
305.55,1.71,-1.05,1.71,-1.05,1.05,0.59,0.55,2.76,2.76,2.77
308.61,1.67,-1.10,1.67,-1.10,1.10,0.61,0.60,2.77,2.77,2.77
311.69,1.63,-1.14,1.64,-1.15,1.15,0.63,0.65,2.78,2.78,2.78
314.81,1.60,-1.20,1.59,-1.20,1.20,0.65,0.70,2.80,2.79,2.80
317.96,1.56,-1.24,1.55,-1.25,1.25,0.67,0.76,2.81,2.80,2.80
321.14,1.51,-1.29,1.51,-1.30,1.30,0.69,0.81,2.81,2.80,2.81
324.35,1.46,-1.34,1.46,-1.35,1.35,0.71,0.87,2.82,2.81,2.80
327.59,1.40,-1.42,1.41,-1.41,1.41,0.74,0.92,2.81,2.81,2.82
330.87,1.35,-1.46,1.35,-1.47,1.47,0.76,0.98,2.82,2.82,2.82
334.18,1.29,-1.52,1.30,-1.52,1.52,0.78,1.03,2.82,2.82,2.81
337.52,1.23,-1.59,1.24,-1.58,1.58,0.80,1.09,2.82,2.82,2.82
340.90,1.18,-1.64,1.18,-1.64,1.64,0.82,1.15,2.82,2.82,2.83
344.30,1.12,-1.70,1.12,-1.70,1.70,0.85,1.21,2.82,2.82,2.82
347.75,1.07,-1.75,1.06,-1.76,1.76,0.87,1.27,2.83,2.82,2.82
351.23,1.00,-1.82,0.99,-1.82,1.82,0.89,1.33,2.83,2.82,2.82
354.74,0.93,-1.88,0.93,-1.88,1.88,0.92,1.40,2.82,2.81,2.82
358.28,0.85,-1.95,0.87,-1.94,1.94,0.94,1.46,2.80,2.81,2.80
361.87,0.80,-2.00,0.80,-2.00,2.00,0.97,1.52,2.80,2.80,2.80
365.49,0.74,-2.06,0.74,-2.06,2.06,0.99,1.59,2.80,2.80,2.80
369.14,0.68,-2.10,0.68,-2.11,2.11,1.02,1.65,2.79,2.79,2.79
372.83,0.63,-2.15,0.62,-2.16,2.16,1.05,1.72,2.79,2.78,2.79
376.56,0.56,-2.21,0.57,-2.21,2.21,1.08,1.79,2.77,2.78,2.77
380.33,0.49,-2.28,0.52,-2.25,2.25,1.10,1.86,2.75,2.77,2.77
384.13,0.44,-2.32,0.47,-2.29,2.29,1.13,1.93,2.74,2.76,2.76
387.97,0.39,-2.35,0.42,-2.33,2.33,1.16,2.00,2.73,2.75,2.75
391.85,0.36,-2.37,0.38,-2.37,2.37,1.19,2.07,2.73,2.75,2.74
395.77,0.32,-2.42,0.34,-2.40,2.40,1.22,2.14,2.72,2.74,2.74
399.73,0.30,-2.43,0.30,-2.43,2.43,1.25,2.21,2.74,2.73,2.73
403.72,0.27,-2.45,0.26,-2.46,2.46,1.29,2.28,2.74,2.72,2.72
407.76,0.25,-2.46,0.23,-2.49,2.49,1.32,2.35,2.75,2.72,2.71
411.84,0.21,-2.50,0.19,-2.52,2.52,1.35,2.42,2.73,2.71,2.72
415.96,0.17,-2.53,0.16,-2.55,2.55,1.39,2.49,2.72,2.71,2.71
420.12,0.13,-2.57,0.13,-2.57,2.57,1.42,2.56,2.71,2.70,2.71
424.32,0.09,-2.61,0.10,-2.60,2.60,1.46,2.63,2.69,2.70,2.70
428.56,0.06,-2.63,0.07,-2.63,2.63,1.49,2.70,2.69,2.70,2.69
432.85,0.03,-2.66,0.03,-2.66,2.66,1.53,2.76,2.70,2.70,2.69
437.18,0.00,-2.69,0.00,-2.69,2.69,1.57,2.83,2.70,2.70,2.69
441.55,-0.02,-2.72,-0.03,-2.72,2.72,1.61,2.89,2.71,2.69,2.70
445.96,-0.05,-2.75,-0.06,-2.75,2.75,1.65,2.95,2.71,2.70,2.70
450.42,-0.09,-2.77,-0.08,-2.78,2.78,1.69,3.01,2.69,2.70,2.69
454.93,-0.11,-2.80,-0.11,-2.81,2.81,1.73,3.07,2.70,2.70,2.70
459.48,-0.15,-2.84,-0.12,-2.83,2.83,1.77,3.12,2.68,2.70,2.70
464.07,-0.16,-2.86,-0.14,-2.84,2.84,1.82,3.17,2.69,2.71,2.71
468.71,-0.17,-2.88,-0.15,-2.86,2.86,1.86,3.21,2.69,2.71,2.71
473.40,-0.18,-2.89,-0.16,-2.87,2.87,1.91,3.25,2.70,2.72,2.71
478.13,-0.18,-2.90,-0.16,-2.89,2.89,1.95,3.29,2.71,2.72,2.72
482.91,-0.17,-2.89,-0.17,-2.89,2.89,2.00,3.32,2.73,2.73,2.72
487.74,-0.16,-2.89,-0.17,-2.90,2.90,2.05,3.35,2.75,2.73,2.73
