frequency,raw,error,smoothed,error_smoothed,equalization,parametric_eq,fixed_band_eq,equalized_raw,equalized_smoothed,target
20.00,-8.81,-18.50,-8.82,-18.50,18.50,18.73,8.10,9.69,9.69,9.68
20.20,-8.74,-18.41,-8.75,-18.42,18.42,18.63,8.27,9.68,9.67,9.67
20.40,-8.68,-18.34,-8.68,-18.34,18.34,18.53,8.44,9.66,9.66,9.66
20.61,-8.61,-18.26,-8.61,-18.26,18.26,18.43,8.62,9.65,9.65,9.65
20.81,-8.54,-18.17,-8.54,-18.18,18.18,18.33,8.80,9.64,9.64,9.63
21.02,-8.47,-18.09,-8.47,-18.10,18.10,18.23,8.99,9.62,9.62,9.62
21.23,-8.40,-18.01,-8.40,-18.01,18.01,18.14,9.18,9.61,9.61,9.61
21.44,-8.33,-17.95,-8.33,-17.93,17.93,18.04,9.38,9.60,9.60,9.62
21.66,-8.26,-17.86,-8.25,-17.85,17.85,17.95,9.58,9.59,9.60,9.60
21.87,-8.18,-17.78,-8.18,-17.77,17.77,17.85,9.79,9.58,9.59,9.60
22.09,-8.11,-17.69,-8.10,-17.68,17.68,17.76,10.01,9.57,9.58,9.57
22.31,-8.03,-17.60,-8.03,-17.60,17.60,17.66,10.23,9.57,9.57,9.57
22.54,-7.95,-17.52,-7.95,-17.51,17.51,17.57,10.45,9.56,9.56,9.56
22.76,-7.86,-17.42,-7.87,-17.43,17.43,17.48,10.68,9.57,9.56,9.56
22.99,-7.79,-17.34,-7.79,-17.34,17.34,17.39,10.92,9.55,9.55,9.55
23.22,-7.72,-17.26,-7.71,-17.26,17.26,17.30,11.17,9.54,9.55,9.54
23.45,-7.63,-17.18,-7.63,-17.17,17.17,17.21,11.42,9.54,9.54,9.55
23.69,-7.54,-17.08,-7.55,-17.09,17.09,17.12,11.68,9.54,9.54,9.54
23.92,-7.46,-16.99,-7.47,-17.00,17.00,17.04,11.95,9.54,9.53,9.52
24.16,-7.39,-16.92,-7.39,-16.92,16.92,16.95,12.23,9.53,9.53,9.53
24.40,-7.32,-16.85,-7.32,-16.84,16.84,16.87,12.51,9.52,9.53,9.53
24.65,-7.23,-16.76,-7.24,-16.76,16.76,16.79,12.81,9.53,9.53,9.53
24.89,-7.15,-16.68,-7.16,-16.69,16.69,16.71,13.11,9.54,9.52,9.53
25.14,-7.08,-16.60,-7.09,-16.61,16.61,16.63,13.42,9.53,9.52,9.52
25.39,-7.02,-16.54,-7.02,-16.54,16.54,16.55,13.74,9.52,9.52,9.52
25.65,-6.94,-16.46,-6.95,-16.46,16.46,16.47,14.07,9.52,9.52,9.51
25.91,-6.86,-16.37,-6.87,-16.39,16.39,16.39,14.41,9.52,9.52,9.51
26.16,-6.80,-16.32,-6.80,-16.32,16.32,16.31,14.76,9.51,9.51,9.52
26.43,-6.74,-16.26,-6.73,-16.24,16.24,16.24,15.12,9.50,9.51,9.52
26.69,-6.66,-16.18,-6.66,-16.17,16.17,16.16,15.49,9.51,9.51,9.51
26.96,-6.59,-16.11,-6.58,-16.10,16.10,16.08,15.87,9.50,9.51,9.51
27.23,-6.51,-16.02,-6.51,-16.02,16.02,16.01,16.26,9.51,9.51,9.51
27.50,-6.44,-15.95,-6.43,-15.95,15.95,15.94,16.65,9.51,9.52,9.51
27.77,-6.36,-15.88,-6.36,-15.88,15.88,15.86,17.05,9.52,9.52,9.52
28.05,-6.28,-15.79,-6.28,-15.80,15.80,15.79,17.45,9.52,9.52,9.51
28.33,-6.20,-15.72,-6.21,-15.72,15.72,15.72,17.85,9.52,9.52,9.52
28.62,-6.12,-15.64,-6.13,-15.65,15.65,15.64,18.25,9.52,9.52,9.52
28.90,-6.05,-15.58,-6.05,-15.57,15.57,15.57,18.64,9.52,9.52,9.52
29.19,-5.96,-15.48,-5.98,-15.49,15.49,15.50,19.01,9.53,9.52,9.52
29.48,-5.89,-15.41,-5.90,-15.41,15.41,15.43,19.37,9.52,9.51,9.52
29.78,-5.82,-15.34,-5.82,-15.33,15.33,15.36,19.69,9.51,9.51,9.51
30.08,-5.75,-15.26,-5.74,-15.25,15.25,15.28,19.97,9.50,9.51,9.51
30.38,-5.66,-15.16,-5.67,-15.17,15.17,15.21,20.20,9.50,9.50,9.50
30.68,-5.58,-15.08,-5.59,-15.08,15.08,15.14,20.37,9.50,9.50,9.49
30.99,-5.51,-15.00,-5.51,-15.00,15.00,15.06,20.47,9.49,9.49,9.49
31.30,-5.44,-14.93,-5.43,-14.92,14.92,14.99,20.51,9.47,9.48,9.49
31.61,-5.36,-14.84,-5.35,-14.83,14.83,14.92,20.47,9.47,9.48,9.48
31.93,-5.27,-14.73,-5.27,-14.74,14.74,14.84,20.37,9.47,9.47,9.46
32.24,-5.19,-14.65,-5.19,-14.65,14.65,14.77,20.20,9.46,9.46,9.46
32.57,-5.11,-14.56,-5.11,-14.56,14.56,14.69,19.98,9.45,9.45,9.45
32.89,-5.03,-14.47,-5.03,-14.48,14.48,14.62,19.71,9.45,9.44,9.44
33.22,-4.95,-14.39,-4.95,-14.39,14.39,14.54,19.40,9.44,9.44,9.44
33.55,-4.87,-14.30,-4.88,-14.30,14.30,14.46,19.07,9.43,9.43,9.43
33.89,-4.79,-14.21,-4.80,-14.22,14.22,14.38,18.72,9.43,9.42,9.42
34.23,-4.72,-14.12,-4.72,-14.13,14.13,14.30,18.36,9.41,9.41,9.40
34.57,-4.63,-14.03,-4.65,-14.05,14.05,14.22,17.99,9.42,9.40,9.40
34.92,-4.56,-13.94,-4.57,-13.96,13.96,14.14,17.62,9.40,9.39,9.38
35.27,-4.49,-13.89,-4.50,-13.88,13.88,14.06,17.25,9.38,9.38,9.39
35.62,-4.43,-13.80,-4.43,-13.79,13.79,13.97,16.88,9.36,9.36,9.37
35.97,-4.35,-13.71,-4.35,-13.70,13.70,13.89,16.53,9.35,9.35,9.36
36.33,-4.28,-13.62,-4.28,-13.61,13.61,13.80,16.18,9.33,9.33,9.34
36.70,-4.22,-13.54,-4.20,-13.52,13.52,13.71,15.84,9.30,9.32,9.31
37.06,-4.14,-13.44,-4.13,-13.43,13.43,13.62,15.51,9.28,9.30,9.30
37.43,-4.06,-13.34,-4.05,-13.33,13.33,13.53,15.19,9.27,9.28,9.28
37.81,-3.97,-13.23,-3.98,-13.23,13.23,13.44,14.88,9.26,9.26,9.26
38.19,-3.90,-13.13,-3.90,-13.14,13.14,13.35,14.58,9.23,9.24,9.23
38.57,-3.82,-13.03,-3.82,-13.04,13.04,13.25,14.29,9.21,9.21,9.21
38.95,-3.74,-12.93,-3.75,-12.94,12.94,13.15,14.01,9.19,9.19,9.19
39.34,-3.66,-12.82,-3.67,-12.83,12.83,13.06,13.74,9.17,9.16,9.16
39.74,-3.58,-12.72,-3.59,-12.73,12.73,12.96,13.48,9.15,9.14,9.13
40.14,-3.51,-12.63,-3.52,-12.63,12.63,12.85,13.23,9.12,9.12,9.11
40.54,-3.44,-12.53,-3.44,-12.53,12.53,12.75,12.99,9.09,9.09,9.09
40.94,-3.36,-12.42,-3.36,-12.43,12.43,12.65,12.76,9.07,9.07,9.06
41.35,-3.28,-12.32,-3.29,-12.33,12.33,12.54,12.54,9.05,9.04,9.04
41.76,-3.21,-12.22,-3.21,-12.23,12.23,12.43,12.32,9.02,9.02,9.01
42.18,-3.14,-12.14,-3.14,-12.13,12.13,12.33,12.12,8.98,8.99,8.99
42.60,-3.07,-12.03,-3.06,-12.02,12.02,12.22,11.92,8.95,8.96,8.96
43.03,-2.98,-11.92,-2.99,-11.92,11.92,12.10,11.73,8.94,8.94,8.94
43.46,-2.91,-11.82,-2.91,-11.82,11.82,11.99,11.55,8.91,8.91,8.90
43.90,-2.84,-11.72,-2.84,-11.71,11.71,11.88,11.38,8.87,8.88,8.88
44.33,-2.76,-11.61,-2.76,-11.61,11.61,11.76,11.21,8.85,8.85,8.84
44.78,-2.68,-11.50,-2.69,-11.50,11.50,11.64,11.05,8.82,8.82,8.82
45.23,-2.61,-11.41,-2.61,-11.39,11.39,11.53,10.90,8.78,8.78,8.79
45.68,-2.54,-11.29,-2.54,-11.28,11.28,11.41,10.75,8.74,8.74,8.75
46.13,-2.46,-11.17,-2.46,-11.17,11.17,11.29,10.61,8.71,8.71,8.71
46.60,-2.38,-11.05,-2.39,-11.06,11.06,11.16,10.48,8.67,8.67,8.67
47.06,-2.31,-10.94,-2.32,-10.94,10.94,11.04,10.35,8.63,8.62,8.63
47.53,-2.24,-10.83,-2.25,-10.83,10.83,10.92,10.22,8.58,8.58,8.59
48.01,-2.17,-10.71,-2.18,-10.71,10.71,10.79,10.11,8.54,8.54,8.53
48.49,-2.11,-10.60,-2.10,-10.60,10.60,10.67,9.99,8.48,8.49,8.49
48.97,-2.03,-10.47,-2.03,-10.48,10.48,10.54,9.88,8.45,8.45,8.44
49.46,-1.96,-10.36,-1.96,-10.36,10.36,10.41,9.78,8.40,8.40,8.40
49.96,-1.89,-10.23,-1.89,-10.24,10.24,10.29,9.68,8.35,8.35,8.34
50.46,-1.82,-10.12,-1.82,-10.13,10.13,10.16,9.58,8.30,8.31,8.30
50.96,-1.75,-10.01,-1.75,-10.01,10.01,10.03,9.49,8.26,8.26,8.26
51.47,-1.68,-9.89,-1.68,-9.89,9.89,9.90,9.40,8.21,8.21,8.21
51.99,-1.61,-9.77,-1.61,-9.78,9.78,9.77,9.32,8.16,8.16,8.16
52.51,-1.54,-9.66,-1.54,-9.66,9.66,9.63,9.23,8.12,8.12,8.12
53.03,-1.47,-9.55,-1.47,-9.54,9.54,9.50,9.15,8.07,8.07,8.08
53.56,-1.39,-9.43,-1.40,-9.43,9.43,9.37,9.07,8.03,8.02,8.03
54.10,-1.32,-9.30,-1.33,-9.31,9.31,9.24,8.99,7.99,7.98,7.97
54.64,-1.26,-9.20,-1.26,-9.19,9.19,9.10,8.92,7.93,7.93,7.93
55.18,-1.19,-9.07,-1.19,-9.08,9.08,8.97,8.84,7.89,7.89,7.88
55.74,-1.12,-8.95,-1.12,-8.97,8.97,8.84,8.76,7.84,7.85,7.83
56.29,-1.04,-8.84,-1.05,-8.85,8.85,8.70,8.68,7.81,7.80,7.80
56.86,-0.98,-8.73,-0.98,-8.73,8.73,8.57,8.61,7.75,7.75,7.75
57.42,-0.91,-8.61,-0.91,-8.61,8.61,8.44,8.53,7.70,7.71,7.70
58.00,-0.84,-8.49,-0.83,-8.49,8.49,8.30,8.44,7.65,7.66,7.65
58.58,-0.76,-8.37,-0.76,-8.36,8.36,8.17,8.36,7.60,7.61,7.61
59.16,-0.68,-8.25,-0.68,-8.24,8.24,8.03,8.27,7.55,7.55,7.57
59.76,-0.61,-8.14,-0.61,-8.11,8.11,7.90,8.18,7.49,7.50,7.52
60.35,-0.54,-8.00,-0.53,-7.98,7.98,7.76,8.09,7.43,7.44,7.46
60.96,-0.46,-7.86,-0.46,-7.84,7.84,7.63,7.99,7.38,7.39,7.40
61.57,-0.37,-7.70,-0.38,-7.71,7.71,7.50,7.89,7.34,7.33,7.33
62.18,-0.30,-7.56,-0.31,-7.57,7.57,7.36,7.78,7.27,7.27,7.26
62.80,-0.22,-7.42,-0.23,-7.44,7.44,7.23,7.67,7.22,7.21,7.20
63.43,-0.15,-7.28,-0.16,-7.30,7.30,7.09,7.56,7.15,7.14,7.13
64.07,-0.08,-7.15,-0.09,-7.17,7.17,6.96,7.44,7.09,7.08,7.07
64.71,-0.01,-7.02,-0.02,-7.03,7.03,6.83,7.32,7.02,7.02,7.01
65.35,0.06,-6.89,0.05,-6.90,6.90,6.70,7.19,6.96,6.95,6.95
66.01,0.12,-6.77,0.12,-6.77,6.77,6.56,7.06,6.89,6.89,6.89
66.67,0.19,-6.65,0.19,-6.64,6.64,6.43,6.93,6.82,6.83,6.83
67.33,0.26,-6.50,0.26,-6.51,6.51,6.30,6.79,6.76,6.76,6.76
68.01,0.32,-6.39,0.32,-6.38,6.38,6.17,6.65,6.70,6.70,6.70
68.69,0.39,-6.25,0.38,-6.25,6.25,6.04,6.50,6.64,6.63,6.64
69.37,0.45,-6.13,0.45,-6.12,6.12,5.91,6.36,6.57,6.57,6.58
70.07,0.52,-5.99,0.51,-5.99,5.99,5.78,6.21,6.51,6.50,6.51
70.77,0.58,-5.86,0.58,-5.86,5.86,5.65,6.06,6.44,6.44,6.44
71.48,0.64,-5.74,0.64,-5.72,5.72,5.52,5.90,6.36,6.37,6.38
72.19,0.71,-5.59,0.71,-5.59,5.59,5.39,5.75,6.30,6.30,6.30
72.91,0.77,-5.46,0.78,-5.46,5.46,5.26,5.59,6.23,6.24,6.23
73.64,0.84,-5.32,0.85,-5.32,5.32,5.13,5.44,6.16,6.17,6.16
74.38,0.90,-5.20,0.91,-5.19,5.19,5.00,5.28,6.09,6.10,6.09
75.12,0.98,-5.06,0.98,-5.06,5.06,4.88,5.13,6.03,6.04,6.03
75.87,1.06,-4.92,1.05,-4.92,4.92,4.75,4.97,5.98,5.97,5.97
76.63,1.13,-4.77,1.12,-4.79,4.79,4.62,4.81,5.92,5.91,5.90
77.40,1.20,-4.65,1.19,-4.66,4.66,4.50,4.66,5.86,5.85,5.85
78.17,1.26,-4.52,1.26,-4.53,4.53,4.37,4.50,5.79,5.79,5.78
78.95,1.32,-4.41,1.33,-4.40,4.40,4.25,4.34,5.72,5.72,5.73
79.74,1.40,-4.27,1.39,-4.27,4.27,4.13,4.19,5.67,5.66,5.66
80.54,1.47,-4.14,1.46,-4.14,4.14,4.00,4.04,5.61,5.60,5.61
81.35,1.53,-4.01,1.52,-4.02,4.02,3.88,3.88,5.55,5.54,5.54
82.16,1.58,-3.91,1.58,-3.89,3.89,3.76,3.73,5.47,5.48,5.49
82.98,1.64,-3.78,1.65,-3.77,3.77,3.63,3.58,5.41,5.42,5.42
83.81,1.71,-3.65,1.70,-3.65,3.65,3.51,3.43,5.35,5.35,5.36
84.65,1.77,-3.51,1.76,-3.52,3.52,3.39,3.29,5.29,5.29,5.28
85.50,1.83,-3.39,1.82,-3.40,3.40,3.27,3.14,5.23,5.22,5.22
86.35,1.88,-3.28,1.88,-3.28,3.28,3.15,2.99,5.16,5.16,5.15
87.22,1.93,-3.16,1.93,-3.16,3.16,3.03,2.85,5.09,5.09,5.09
88.09,1.98,-3.04,1.98,-3.04,3.04,2.91,2.71,5.01,5.02,5.02
88.97,2.04,-2.92,2.04,-2.92,2.92,2.80,2.57,4.95,4.95,4.95
89.86,2.09,-2.80,2.09,-2.79,2.79,2.68,2.43,4.88,4.88,4.88
90.76,2.15,-2.67,2.14,-2.67,2.67,2.56,2.29,4.82,4.81,4.82
91.66,2.20,-2.54,2.20,-2.54,2.54,2.44,2.15,4.74,4.74,4.74
92.58,2.25,-2.43,2.25,-2.42,2.42,2.33,2.01,4.67,4.67,4.67
93.51,2.30,-2.31,2.30,-2.30,2.30,2.21,1.87,4.59,4.60,4.60
94.44,2.35,-2.18,2.35,-2.17,2.17,2.10,1.74,4.52,4.52,4.53
95.39,2.40,-2.05,2.40,-2.05,2.05,1.98,1.61,4.45,4.45,4.45
96.34,2.45,-1.93,2.45,-1.92,1.92,1.87,1.47,4.37,4.37,4.38
97.30,2.51,-1.79,2.50,-1.80,1.80,1.76,1.34,4.31,4.30,4.30
98.28,2.56,-1.66,2.55,-1.67,1.67,1.64,1.21,4.23,4.23,4.22
99.26,2.61,-1.54,2.60,-1.55,1.55,1.53,1.08,4.16,4.15,4.14
100.25,2.65,-1.42,2.65,-1.43,1.43,1.42,0.95,4.08,4.08,4.07
101.25,2.69,-1.32,2.70,-1.31,1.31,1.31,0.83,4.00,4.01,4.00
102.27,2.74,-1.20,2.74,-1.20,1.20,1.20,0.70,3.93,3.94,3.94
103.29,2.79,-1.08,2.79,-1.08,1.08,1.09,0.58,3.87,3.87,3.86
104.32,2.85,-0.95,2.84,-0.96,0.96,0.98,0.45,3.81,3.80,3.80
105.37,2.90,-0.84,2.89,-0.85,0.85,0.87,0.33,3.74,3.73,3.73
106.42,2.94,-0.73,2.93,-0.73,0.73,0.76,0.21,3.67,3.66,3.67
107.48,2.97,-0.62,2.98,-0.62,0.62,0.65,0.10,3.58,3.59,3.59
108.56,3.01,-0.52,3.02,-0.50,0.50,0.54,-0.02,3.51,3.52,3.53
109.64,3.06,-0.40,3.07,-0.39,0.39,0.44,-0.13,3.45,3.45,3.46
110.74,3.11,-0.28,3.11,-0.27,0.27,0.33,-0.24,3.38,3.38,3.39
111.85,3.17,-0.14,3.16,-0.15,0.15,0.22,-0.35,3.32,3.31,3.31
112.97,3.21,-0.04,3.20,-0.04,0.04,0.12,-0.46,3.25,3.24,3.25
114.10,3.25,0.07,3.24,0.08,-0.08,0.01,-0.56,3.17,3.17,3.17
115.24,3.29,0.20,3.29,0.19,-0.19,-0.09,-0.66,3.10,3.10,3.09
116.39,3.33,0.31,3.33,0.31,-0.31,-0.20,-0.76,3.02,3.03,3.02
117.55,3.37,0.42,3.38,0.42,-0.42,-0.30,-0.85,2.94,2.96,2.94
118.73,3.42,0.55,3.43,0.54,-0.54,-0.40,-0.95,2.88,2.89,2.87
119.92,3.47,0.66,3.47,0.66,-0.66,-0.51,-1.03,2.81,2.82,2.81
121.12,3.52,0.77,3.51,0.77,-0.77,-0.61,-1.12,2.75,2.75,2.75
122.33,3.56,0.88,3.56,0.88,-0.88,-0.71,-1.20,2.68,2.68,2.68
123.55,3.60,0.98,3.59,0.98,-0.98,-0.81,-1.28,2.61,2.61,2.62
124.79,3.64,1.09,3.63,1.09,-1.09,-0.91,-1.35,2.55,2.54,2.55
126.03,3.69,1.20,3.67,1.20,-1.20,-1.01,-1.42,2.49,2.47,2.48
127.29,3.73,1.31,3.71,1.30,-1.30,-1.11,-1.49,2.43,2.41,2.42
128.57,3.76,1.42,3.74,1.40,-1.40,-1.21,-1.55,2.35,2.34,2.34
129.85,3.78,1.50,3.78,1.51,-1.51,-1.31,-1.61,2.27,2.27,2.28
131.15,3.81,1.61,3.81,1.61,-1.61,-1.41,-1.67,2.20,2.21,2.20
132.46,3.83,1.69,3.85,1.71,-1.71,-1.50,-1.72,2.12,2.14,2.14
133.79,3.86,1.79,3.88,1.81,-1.81,-1.60,-1.77,2.05,2.07,2.07
135.12,3.90,1.89,3.91,1.90,-1.90,-1.70,-1.82,1.99,2.01,2.00
136.48,3.94,1.99,3.94,2.00,-2.00,-1.79,-1.87,1.94,1.94,1.94
137.84,3.97,2.09,3.97,2.09,-2.09,-1.89,-1.92,1.87,1.88,1.88
139.22,4.01,2.20,4.00,2.19,-2.19,-1.98,-1.96,1.82,1.81,1.81
140.61,4.04,2.29,4.03,2.28,-2.28,-2.08,-2.00,1.76,1.75,1.75
142.02,4.07,2.38,4.06,2.36,-2.36,-2.17,-2.04,1.70,1.69,1.69
143.44,4.09,2.46,4.08,2.45,-2.45,-2.26,-2.08,1.64,1.63,1.63
144.87,4.12,2.54,4.11,2.53,-2.53,-2.35,-2.13,1.58,1.58,1.58
146.32,4.14,2.62,4.13,2.62,-2.62,-2.44,-2.16,1.52,1.52,1.52
147.78,4.16,2.69,4.16,2.69,-2.69,-2.54,-2.20,1.46,1.46,1.47
149.26,4.18,2.77,4.18,2.77,-2.77,-2.63,-2.24,1.41,1.41,1.41
150.75,4.20,2.85,4.20,2.84,-2.84,-2.71,-2.29,1.35,1.35,1.35
152.26,4.22,2.92,4.22,2.92,-2.92,-2.80,-2.33,1.30,1.30,1.30
153.78,4.24,2.99,4.24,2.99,-2.99,-2.89,-2.37,1.25,1.24,1.25
155.32,4.26,3.06,4.25,3.07,-3.07,-2.98,-2.41,1.19,1.19,1.19
156.88,4.28,3.14,4.28,3.14,-3.14,-3.06,-2.46,1.14,1.13,1.14
158.44,4.29,3.21,4.30,3.22,-3.22,-3.15,-2.50,1.07,1.08,1.08
160.03,4.31,3.28,4.32,3.30,-3.30,-3.24,-2.55,1.01,1.02,1.03
161.63,4.33,3.36,4.35,3.38,-3.38,-3.32,-2.60,0.95,0.97,0.97
163.24,4.36,3.45,4.37,3.46,-3.46,-3.40,-2.65,0.90,0.91,0.91
164.88,4.39,3.53,4.40,3.54,-3.54,-3.48,-2.71,0.84,0.86,0.86
166.53,4.42,3.63,4.43,3.63,-3.63,-3.57,-2.76,0.79,0.80,0.79
168.19,4.45,3.70,4.45,3.71,-3.71,-3.65,-2.82,0.74,0.74,0.75
169.87,4.48,3.79,4.47,3.79,-3.79,-3.73,-2.88,0.69,0.68,0.68
171.57,4.51,3.88,4.50,3.87,-3.87,-3.80,-2.95,0.64,0.63,0.62
173.29,4.53,3.95,4.52,3.95,-3.95,-3.88,-3.01,0.58,0.57,0.57
175.02,4.55,4.03,4.53,4.02,-4.02,-3.96,-3.08,0.53,0.51,0.52
176.77,4.57,4.11,4.55,4.09,-4.09,-4.03,-3.15,0.48,0.46,0.46
178.54,4.58,4.18,4.56,4.16,-4.16,-4.11,-3.23,0.42,0.40,0.40
180.32,4.58,4.24,4.57,4.22,-4.22,-4.18,-3.30,0.36,0.35,0.34
182.13,4.58,4.28,4.57,4.28,-4.28,-4.25,-3.38,0.30,0.29,0.29
183.95,4.57,4.33,4.57,4.34,-4.34,-4.32,-3.47,0.23,0.24,0.24
185.79,4.56,4.38,4.57,4.39,-4.39,-4.39,-3.55,0.17,0.18,0.18
187.65,4.56,4.43,4.57,4.44,-4.44,-4.46,-3.64,0.12,0.13,0.13
189.52,4.56,4.48,4.57,4.49,-4.49,-4.53,-3.73,0.07,0.08,0.08
191.42,4.56,4.53,4.57,4.54,-4.54,-4.60,-3.82,0.02,0.03,0.03
193.33,4.56,4.57,4.56,4.58,-4.58,-4.66,-3.91,-0.03,-0.02,-0.01
195.27,4.56,4.63,4.56,4.63,-4.63,-4.72,-4.01,-0.07,-0.07,-0.07
197.22,4.56,4.68,4.56,4.67,-4.67,-4.79,-4.11,-0.11,-0.11,-0.12
199.19,4.56,4.72,4.56,4.71,-4.71,-4.85,-4.21,-0.15,-0.16,-0.16
201.18,4.56,4.77,4.56,4.75,-4.75,-4.91,-4.31,-0.20,-0.20,-0.21
203.19,4.56,4.80,4.56,4.80,-4.80,-4.96,-4.42,-0.24,-0.24,-0.24
205.23,4.56,4.83,4.56,4.84,-4.84,-5.02,-4.52,-0.28,-0.28,-0.27
207.28,4.56,4.87,4.56,4.88,-4.88,-5.07,-4.62,-0.32,-0.32,-0.31
209.35,4.56,4.91,4.56,4.91,-4.91,-5.13,-4.73,-0.36,-0.36,-0.35
211.44,4.56,4.95,4.56,4.95,-4.95,-5.18,-4.83,-0.39,-0.39,-0.39
213.56,4.56,4.98,4.56,4.98,-4.98,-5.23,-4.94,-0.43,-0.43,-0.42
215.69,4.56,5.01,4.56,5.02,-5.02,-5.28,-5.04,-0.46,-0.46,-0.45
217.85,4.56,5.05,4.56,5.05,-5.05,-5.32,-5.14,-0.49,-0.49,-0.49
220.03,4.56,5.08,4.56,5.08,-5.08,-5.37,-5.24,-0.52,-0.52,-0.52
222.23,4.56,5.12,4.56,5.11,-5.11,-5.41,-5.34,-0.55,-0.55,-0.56
224.45,4.56,5.14,4.56,5.14,-5.14,-5.45,-5.43,-0.58,-0.58,-0.58
226.70,4.56,5.17,4.56,5.16,-5.16,-5.49,-5.52,-0.61,-0.61,-0.61
228.96,4.56,5.18,4.56,5.19,-5.19,-5.53,-5.61,-0.63,-0.63,-0.62
231.25,4.56,5.21,4.56,5.21,-5.21,-5.57,-5.69,-0.65,-0.65,-0.66
233.57,4.56,5.23,4.56,5.23,-5.23,-5.60,-5.76,-0.68,-0.68,-0.68
235.90,4.56,5.25,4.56,5.25,-5.25,-5.63,-5.83,-0.69,-0.69,-0.69
238.26,4.56,5.28,4.56,5.27,-5.27,-5.66,-5.89,-0.71,-0.71,-0.72
240.64,4.56,5.28,4.56,5.28,-5.28,-5.69,-5.95,-0.73,-0.73,-0.72
243.05,4.56,5.30,4.56,5.30,-5.30,-5.72,-6.00,-0.74,-0.74,-0.74
245.48,4.56,5.31,4.56,5.31,-5.31,-5.75,-6.03,-0.75,-0.75,-0.76
247.93,4.56,5.33,4.56,5.32,-5.32,-5.77,-6.07,-0.76,-0.76,-0.77
250.41,4.56,5.33,4.56,5.33,-5.33,-5.79,-6.09,-0.77,-0.77,-0.77
252.92,4.56,5.33,4.56,5.34,-5.34,-5.81,-6.10,-0.78,-0.78,-0.77
255.45,4.56,5.35,4.56,5.34,-5.34,-5.83,-6.11,-0.79,-0.79,-0.79
258.00,4.56,5.35,4.56,5.35,-5.35,-5.84,-6.11,-0.79,-0.79,-0.79
260.58,4.56,5.35,4.56,5.36,-5.36,-5.86,-6.10,-0.80,-0.80,-0.80
263.19,4.56,5.36,4.56,5.36,-5.36,-5.87,-6.08,-0.81,-0.81,-0.80
265.82,4.56,5.37,4.56,5.37,-5.37,-5.88,-6.06,-0.81,-0.81,-0.81
268.48,4.56,5.37,4.56,5.38,-5.38,-5.89,-6.03,-0.82,-0.82,-0.81
271.16,4.56,5.37,4.56,5.38,-5.38,-5.89,-6.00,-0.82,-0.82,-0.82
273.87,4.56,5.38,4.56,5.39,-5.39,-5.90,-5.96,-0.83,-0.83,-0.83
276.61,4.56,5.39,4.56,5.39,-5.39,-5.90,-5.91,-0.83,-0.83,-0.83
279.38,4.56,5.41,4.56,5.39,-5.39,-5.90,-5.86,-0.84,-0.84,-0.85
282.17,4.56,5.41,4.56,5.40,-5.40,-5.90,-5.81,-0.84,-0.84,-0.85
284.99,4.56,5.40,4.56,5.40,-5.40,-5.90,-5.75,-0.84,-0.84,-0.84
287.84,4.56,5.40,4.56,5.40,-5.40,-5.90,-5.70,-0.84,-0.84,-0.84
290.72,4.56,5.40,4.56,5.40,-5.40,-5.89,-5.64,-0.84,-0.84,-0.85
293.63,4.56,5.39,4.56,5.40,-5.40,-5.89,-5.58,-0.84,-0.84,-0.84
296.57,4.56,5.39,4.56,5.39,-5.39,-5.88,-5.52,-0.84,-0.84,-0.83
299.53,4.56,5.39,4.56,5.39,-5.39,-5.87,-5.46,-0.83,-0.83,-0.83
302.53,4.56,5.38,4.56,5.39,-5.39,-5.86,-5.40,-0.83,-0.83,-0.82
305.55,4.56,5.39,4.56,5.38,-5.38,-5.85,-5.34,-0.82,-0.82,-0.83
308.61,4.56,5.37,4.56,5.38,-5.38,-5.83,-5.29,-0.82,-0.82,-0.82
311.69,4.56,5.37,4.56,5.37,-5.37,-5.82,-5.23,-0.81,-0.81,-0.81
314.81,4.56,5.37,4.56,5.36,-5.36,-5.80,-5.18,-0.81,-0.81,-0.81
317.96,4.56,5.36,4.56,5.36,-5.36,-5.78,-5.13,-0.80,-0.80,-0.81
321.14,4.56,5.35,4.56,5.35,-5.35,-5.76,-5.08,-0.80,-0.80,-0.79
324.35,4.56,5.36,4.56,5.35,-5.35,-5.74,-5.04,-0.79,-0.79,-0.80
327.59,4.56,5.33,4.56,5.34,-5.34,-5.72,-5.00,-0.79,-0.78,-0.77
330.87,4.56,5.34,4.56,5.34,-5.34,-5.70,-4.96,-0.78,-0.78,-0.78
334.18,4.56,5.33,4.56,5.33,-5.33,-5.68,-4.92,-0.77,-0.77,-0.77
337.52,4.56,5.33,4.56,5.32,-5.32,-5.66,-4.89,-0.77,-0.77,-0.77
340.90,4.56,5.31,4.56,5.31,-5.31,-5.63,-4.86,-0.76,-0.76,-0.75
344.30,4.56,5.31,4.55,5.30,-5.30,-5.61,-4.84,-0.75,-0.75,-0.75
347.75,4.56,5.30,4.55,5.29,-5.29,-5.58,-4.82,-0.74,-0.75,-0.74
351.23,4.56,5.31,4.54,5.28,-5.28,-5.55,-4.80,-0.73,-0.74,-0.75
354.74,4.56,5.28,4.54,5.27,-5.27,-5.53,-4.79,-0.72,-0.73,-0.72
358.28,4.55,5.27,4.54,5.27,-5.27,-5.50,-4.78,-0.72,-0.73,-0.73
361.87,4.55,5.27,4.54,5.26,-5.26,-5.47,-4.77,-0.71,-0.72,-0.72
365.49,4.54,5.25,4.54,5.26,-5.26,-5.44,-4.77,-0.72,-0.71,-0.71
369.14,4.53,5.23,4.55,5.26,-5.26,-5.41,-4.77,-0.73,-0.70,-0.70
372.83,4.54,5.23,4.56,5.26,-5.26,-5.39,-4.78,-0.72,-0.70,-0.69
376.56,4.55,5.24,4.58,5.27,-5.27,-5.36,-4.79,-0.72,-0.69,-0.69
380.33,4.57,5.26,4.59,5.27,-5.27,-5.33,-4.80,-0.71,-0.68,-0.69
384.13,4.59,5.26,4.61,5.28,-5.28,-5.30,-4.82,-0.70,-0.67,-0.67
387.97,4.62,5.28,4.63,5.30,-5.30,-5.27,-4.84,-0.68,-0.66,-0.66
391.85,4.66,5.31,4.66,5.31,-5.31,-5.24,-4.86,-0.65,-0.65,-0.66
395.77,4.69,5.34,4.68,5.32,-5.32,-5.22,-4.88,-0.64,-0.65,-0.65
399.73,4.72,5.36,4.70,5.34,-5.34,-5.19,-4.91,-0.62,-0.64,-0.64
403.72,4.74,5.35,4.72,5.35,-5.35,-5.16,-4.94,-0.61,-0.63,-0.62
407.76,4.76,5.38,4.74,5.36,-5.36,-5.14,-4.97,-0.60,-0.62,-0.62
411.84,4.77,5.38,4.75,5.36,-5.36,-5.11,-5.00,-0.59,-0.61,-0.61
415.96,4.77,5.36,4.75,5.36,-5.36,-5.09,-5.03,-0.59,-0.60,-0.59
420.12,4.77,5.36,4.75,5.34,-5.34,-5.07,-5.07,-0.58,-0.59,-0.59
424.32,4.77,5.35,4.74,5.33,-5.33,-5.05,-5.10,-0.56,-0.58,-0.59
428.56,4.75,5.32,4.73,5.31,-5.31,-5.03,-5.14,-0.56,-0.58,-0.57
432.85,4.73,5.29,4.71,5.28,-5.28,-5.01,-5.17,-0.55,-0.57,-0.56
437.18,4.71,5.27,4.69,5.25,-5.25,-4.99,-5.21,-0.54,-0.56,-0.56
441.55,4.68,5.23,4.67,5.22,-5.22,-4.97,-5.24,-0.54,-0.55,-0.55
445.96,4.64,5.18,4.65,5.19,-5.19,-4.96,-5.27,-0.56,-0.54,-0.55
450.42,4.61,5.15,4.63,5.17,-5.17,-4.95,-5.30,-0.56,-0.53,-0.54
454.93,4.58,5.11,4.61,5.14,-5.14,-4.94,-5.32,-0.56,-0.53,-0.53
459.48,4.56,5.08,4.60,5.12,-5.12,-4.93,-5.34,-0.56,-0.52,-0.52
464.07,4.55,5.05,4.59,5.09,-5.09,-4.92,-5.36,-0.55,-0.51,-0.50
468.71,4.55,5.04,4.58,5.07,-5.07,-4.92,-5.37,-0.53,-0.50,-0.49
473.40,4.56,5.04,4.57,5.05,-5.05,-4.91,-5.38,-0.50,-0.49,-0.49
478.13,4.57,5.04,4.56,5.04,-5.04,-4.91,-5.38,-0.47,-0.48,-0.48
