frequency,raw,error,smoothed,error_smoothed,equalization,parametric_eq,fixed_band_eq,equalized_raw,equalized_smoothed,target
20.00,-0.74,-4.96,-0.73,-4.98,4.98,4.90,1.26,4.23,4.25,4.22
20.20,-0.65,-4.92,-0.65,-4.94,4.94,4.85,1.30,4.28,4.29,4.27
20.40,-0.57,-4.89,-0.58,-4.90,4.90,4.80,1.34,4.32,4.32,4.32
20.61,-0.49,-4.83,-0.50,-4.86,4.86,4.74,1.38,4.37,4.35,4.35
20.81,-0.40,-4.80,-0.43,-4.81,4.81,4.69,1.42,4.41,4.38,4.40
21.02,-0.31,-4.75,-0.35,-4.76,4.76,4.64,1.46,4.45,4.41,4.44
21.23,-0.26,-4.72,-0.28,-4.71,4.71,4.59,1.50,4.45,4.44,4.46
21.44,-0.21,-4.69,-0.21,-4.66,4.66,4.54,1.55,4.45,4.46,4.48
21.66,-0.16,-4.65,-0.13,-4.61,4.61,4.49,1.59,4.45,4.48,4.50
21.87,-0.10,-4.61,-0.06,-4.55,4.55,4.44,1.64,4.45,4.50,4.51
22.09,-0.03,-4.56,0.02,-4.49,4.49,4.39,1.69,4.46,4.51,4.52
22.31,0.07,-4.47,0.09,-4.43,4.43,4.33,1.74,4.50,4.52,4.53
22.54,0.15,-4.38,0.16,-4.37,4.37,4.28,1.79,4.52,4.53,4.53
22.76,0.26,-4.28,0.24,-4.30,4.30,4.23,1.84,4.55,4.53,4.53
22.99,0.36,-4.17,0.31,-4.23,4.23,4.18,1.89,4.58,4.54,4.52
23.22,0.42,-4.11,0.38,-4.15,4.15,4.13,1.95,4.57,4.54,4.52
23.45,0.48,-4.04,0.46,-4.08,4.08,4.08,2.00,4.55,4.54,4.52
23.69,0.53,-4.00,0.53,-4.00,4.00,4.03,2.06,4.54,4.54,4.53
23.92,0.60,-3.93,0.61,-3.93,3.93,3.98,2.11,4.52,4.54,4.53
24.16,0.67,-3.87,0.68,-3.85,3.85,3.93,2.17,4.52,4.54,4.54
24.40,0.74,-3.81,0.76,-3.78,3.78,3.88,2.23,4.52,4.54,4.55
24.65,0.81,-3.72,0.82,-3.71,3.71,3.83,2.29,4.52,4.53,4.54
24.89,0.89,-3.65,0.89,-3.65,3.65,3.78,2.35,4.53,4.54,4.54
25.14,0.96,-3.58,0.95,-3.58,3.58,3.73,2.41,4.54,4.54,4.53
25.39,1.03,-3.52,1.02,-3.52,3.52,3.68,2.47,4.55,4.54,4.54
25.65,1.09,-3.45,1.08,-3.46,3.46,3.63,2.54,4.55,4.54,4.54
25.91,1.15,-3.38,1.14,-3.39,3.39,3.58,2.60,4.55,4.54,4.53
26.16,1.22,-3.31,1.21,-3.33,3.33,3.53,2.66,4.55,4.54,4.53
26.43,1.27,-3.25,1.27,-3.27,3.27,3.48,2.72,4.54,4.53,4.53
26.69,1.33,-3.20,1.33,-3.20,3.20,3.44,2.78,4.53,4.53,4.53
26.96,1.37,-3.16,1.38,-3.14,3.14,3.39,2.83,4.52,4.53,4.54
27.23,1.43,-3.10,1.44,-3.08,3.08,3.34,2.89,4.52,4.53,4.53
27.50,1.50,-3.04,1.50,-3.02,3.02,3.30,2.94,4.52,4.52,4.53
27.77,1.55,-2.98,1.56,-2.96,2.96,3.25,3.00,4.51,4.52,4.52
28.05,1.61,-2.91,1.62,-2.91,2.91,3.20,3.04,4.51,4.52,4.52
28.33,1.67,-2.84,1.67,-2.85,2.85,3.16,3.09,4.52,4.52,4.51
28.62,1.71,-2.79,1.72,-2.80,2.80,3.11,3.13,4.51,4.52,4.51
28.90,1.78,-2.74,1.77,-2.74,2.74,3.07,3.17,4.52,4.52,4.52
29.19,1.84,-2.67,1.83,-2.69,2.69,3.02,3.21,4.52,4.51,4.50
29.48,1.90,-2.63,1.88,-2.63,2.63,2.98,3.24,4.53,4.51,4.52
29.78,1.95,-2.55,1.93,-2.58,2.58,2.94,3.27,4.53,4.51,4.51
30.08,2.01,-2.50,1.99,-2.52,2.52,2.89,3.29,4.54,4.51,4.52
30.38,2.04,-2.47,2.04,-2.47,2.47,2.85,3.31,4.50,4.51,4.51
30.68,2.07,-2.44,2.09,-2.42,2.42,2.81,3.32,4.48,4.50,4.50
30.99,2.10,-2.41,2.13,-2.37,2.37,2.77,3.33,4.47,4.50,4.50
31.30,2.15,-2.34,2.17,-2.33,2.33,2.73,3.33,4.48,4.50,4.50
31.61,2.22,-2.28,2.22,-2.28,2.28,2.69,3.33,4.49,4.50,4.50
31.93,2.28,-2.21,2.26,-2.23,2.23,2.65,3.32,4.51,4.49,4.49
32.24,2.33,-2.15,2.31,-2.18,2.18,2.61,3.31,4.50,4.49,4.48
32.57,2.36,-2.12,2.35,-2.13,2.13,2.57,3.29,4.49,4.48,4.49
32.89,2.41,-2.08,2.39,-2.08,2.08,2.53,3.26,4.49,4.48,4.48
33.22,2.44,-2.04,2.43,-2.04,2.04,2.49,3.24,4.47,4.47,4.47
33.55,2.46,-2.01,2.48,-1.99,1.99,2.45,3.20,4.45,4.47,4.47
33.89,2.49,-1.97,2.52,-1.94,1.94,2.41,3.17,4.43,4.46,4.46
34.23,2.55,-1.92,2.57,-1.89,1.89,2.38,3.13,4.44,4.46,4.46
34.57,2.62,-1.83,2.61,-1.84,1.84,2.34,3.09,4.46,4.45,4.45
34.92,2.68,-1.76,2.65,-1.80,1.80,2.30,3.04,4.49,4.45,4.45
35.27,2.71,-1.74,2.68,-1.76,1.76,2.27,2.99,4.46,4.44,4.44
35.62,2.71,-1.73,2.72,-1.72,1.72,2.23,2.94,4.43,4.44,4.44
35.97,2.71,-1.73,2.75,-1.69,1.69,2.20,2.89,4.39,4.44,4.43
36.33,2.77,-1.67,2.78,-1.65,1.65,2.16,2.84,4.42,4.43,4.44
36.70,2.83,-1.59,2.81,-1.62,1.62,2.13,2.78,4.46,4.43,4.42
37.06,2.90,-1.52,2.84,-1.59,1.59,2.09,2.72,4.49,4.43,4.42
37.43,2.90,-1.54,2.87,-1.57,1.57,2.06,2.67,4.46,4.43,4.44
37.81,2.90,-1.53,2.89,-1.54,1.54,2.03,2.61,4.43,4.43,4.43
38.19,2.91,-1.52,2.91,-1.52,1.52,2.00,2.55,4.42,4.43,4.43
38.57,2.92,-1.51,2.93,-1.49,1.49,1.96,2.50,4.41,4.43,4.43
38.95,2.93,-1.51,2.96,-1.47,1.47,1.93,2.44,4.40,4.43,4.43
39.34,2.95,-1.48,2.98,-1.45,1.45,1.90,2.38,4.39,4.43,4.43
39.74,2.97,-1.46,3.00,-1.42,1.42,1.87,2.33,4.39,4.43,4.42
40.14,3.00,-1.42,3.02,-1.40,1.40,1.84,2.27,4.41,4.42,4.43
40.54,3.05,-1.37,3.03,-1.39,1.39,1.81,2.22,4.43,4.42,4.42
40.94,3.09,-1.33,3.05,-1.37,1.37,1.78,2.16,4.46,4.42,4.41
41.35,3.10,-1.31,3.06,-1.35,1.35,1.75,2.11,4.44,4.41,4.41
41.76,3.10,-1.30,3.08,-1.32,1.32,1.72,2.06,4.42,4.40,4.40
42.18,3.10,-1.31,3.09,-1.30,1.30,1.70,2.01,4.39,4.39,4.40
42.60,3.10,-1.29,3.10,-1.28,1.28,1.67,1.96,4.37,4.38,4.38
43.03,3.10,-1.28,3.11,-1.26,1.26,1.64,1.91,4.35,4.37,4.38
43.46,3.10,-1.27,3.11,-1.25,1.25,1.62,1.87,4.34,4.35,4.37
43.90,3.10,-1.24,3.10,-1.24,1.24,1.59,1.83,4.33,4.34,4.34
44.33,3.10,-1.22,3.09,-1.23,1.23,1.56,1.78,4.33,4.33,4.32
44.78,3.10,-1.20,3.08,-1.23,1.23,1.54,1.74,4.32,4.31,4.30
45.23,3.10,-1.19,3.07,-1.22,1.22,1.51,1.70,4.32,4.30,4.29
45.68,3.10,-1.17,3.07,-1.21,1.21,1.49,1.66,4.31,4.28,4.27
46.13,3.07,-1.17,3.06,-1.21,1.21,1.46,1.63,4.28,4.26,4.25
46.60,3.03,-1.22,3.04,-1.20,1.20,1.44,1.59,4.23,4.25,4.25
47.06,2.98,-1.25,3.03,-1.20,1.20,1.42,1.55,4.17,4.23,4.23
47.53,2.99,-1.23,3.02,-1.19,1.19,1.39,1.52,4.17,4.21,4.22
48.01,3.00,-1.22,3.01,-1.18,1.18,1.37,1.49,4.18,4.20,4.21
48.49,3.00,-1.20,3.00,-1.18,1.18,1.35,1.46,4.18,4.18,4.19
48.97,3.00,-1.17,2.98,-1.19,1.19,1.32,1.43,4.18,4.17,4.17
49.46,3.00,-1.15,2.96,-1.19,1.19,1.30,1.40,4.18,4.15,4.14
49.96,3.00,-1.13,2.95,-1.19,1.19,1.28,1.38,4.18,4.13,4.12
50.46,2.94,-1.18,2.93,-1.18,1.18,1.26,1.35,4.12,4.12,4.12
50.96,2.88,-1.23,2.92,-1.19,1.19,1.24,1.32,4.06,4.10,4.10
51.47,2.90,-1.18,2.90,-1.19,1.19,1.22,1.30,4.08,4.09,4.08
51.99,2.94,-1.13,2.88,-1.19,1.19,1.20,1.28,4.12,4.07,4.06
52.51,2.87,-1.19,2.86,-1.20,1.20,1.18,1.26,4.06,4.06,4.05
53.03,2.80,-1.25,2.84,-1.20,1.20,1.16,1.24,4.00,4.04,4.05
53.56,2.80,-1.23,2.81,-1.21,1.21,1.14,1.22,4.01,4.02,4.03
54.10,2.80,-1.22,2.79,-1.22,1.22,1.12,1.20,4.02,4.01,4.01
54.64,2.80,-1.20,2.77,-1.23,1.23,1.11,1.18,4.02,4.00,3.99
55.18,2.77,-1.21,2.76,-1.22,1.22,1.09,1.16,4.00,3.98,3.98
55.74,2.72,-1.25,2.75,-1.21,1.21,1.07,1.14,3.93,3.97,3.96
56.29,2.69,-1.27,2.74,-1.21,1.21,1.05,1.13,3.89,3.95,3.95
56.86,2.70,-1.23,2.73,-1.20,1.20,1.04,1.11,3.90,3.93,3.93
57.42,2.70,-1.20,2.71,-1.20,1.20,1.02,1.10,3.89,3.91,3.90
58.00,2.70,-1.19,2.70,-1.19,1.19,1.00,1.08,3.88,3.89,3.88
58.58,2.70,-1.18,2.69,-1.17,1.17,0.99,1.07,3.87,3.86,3.87
59.16,2.70,-1.15,2.67,-1.16,1.16,0.97,1.05,3.86,3.83,3.85
59.76,2.72,-1.11,2.65,-1.15,1.15,0.96,1.04,3.87,3.80,3.82
60.35,2.71,-1.07,2.62,-1.14,1.14,0.94,1.03,3.85,3.77,3.78
60.96,2.67,-1.07,2.60,-1.13,1.13,0.93,1.01,3.80,3.73,3.74
61.57,2.55,-1.15,2.57,-1.12,1.12,0.91,1.00,3.66,3.69,3.69
62.18,2.47,-1.18,2.54,-1.10,1.10,0.90,0.99,3.57,3.64,3.64
62.80,2.49,-1.11,2.51,-1.09,1.09,0.88,0.97,3.57,3.60,3.59
63.43,2.47,-1.08,2.47,-1.08,1.08,0.87,0.96,3.55,3.55,3.54
64.07,2.43,-1.07,2.43,-1.07,1.07,0.86,0.95,3.50,3.50,3.49
64.71,2.37,-1.08,2.39,-1.06,1.06,0.85,0.94,3.42,3.45,3.44
65.35,2.33,-1.07,2.35,-1.04,1.04,0.83,0.93,3.37,3.40,3.40
66.01,2.30,-1.05,2.31,-1.04,1.04,0.82,0.92,3.33,3.35,3.34
66.67,2.30,-0.99,2.26,-1.03,1.03,0.81,0.90,3.33,3.29,3.29
67.33,2.26,-0.97,2.22,-1.01,1.01,0.80,0.89,3.28,3.24,3.23
68.01,2.20,-0.99,2.18,-1.00,1.00,0.78,0.88,3.20,3.18,3.19
68.69,2.13,-1.01,2.14,-0.99,0.99,0.77,0.87,3.11,3.13,3.13
69.37,2.09,-0.99,2.10,-0.97,0.97,0.76,0.86,3.06,3.07,3.07
70.07,2.07,-0.95,2.05,-0.96,0.96,0.75,0.85,3.03,3.01,3.01
70.77,2.02,-0.95,2.00,-0.95,0.95,0.74,0.84,2.97,2.95,2.96
71.48,1.95,-0.96,1.95,-0.94,0.94,0.73,0.83,2.89,2.89,2.90
72.19,1.87,-0.96,1.89,-0.94,0.94,0.72,0.82,2.80,2.83,2.83
72.91,1.76,-1.01,1.83,-0.93,0.93,0.71,0.81,2.69,2.77,2.77
73.64,1.82,-0.89,1.78,-0.93,0.93,0.70,0.81,2.74,2.70,2.70
74.38,1.75,-0.89,1.71,-0.93,0.93,0.69,0.80,2.67,2.64,2.64
75.12,1.58,-1.00,1.65,-0.92,0.92,0.68,0.79,2.50,2.58,2.57
75.87,1.61,-0.90,1.59,-0.92,0.92,0.67,0.78,2.53,2.51,2.50
76.63,1.55,-0.89,1.52,-0.93,0.93,0.67,0.78,2.49,2.45,2.45
77.40,1.44,-0.95,1.43,-0.96,0.96,0.66,0.77,2.39,2.39,2.39
78.17,1.31,-1.01,1.33,-1.00,1.00,0.65,0.76,2.30,2.33,2.32
78.95,1.24,-1.04,1.23,-1.04,1.04,0.64,0.76,2.28,2.27,2.28
79.74,1.19,-1.02,1.12,-1.10,1.10,0.63,0.75,2.29,2.21,2.21
80.54,1.09,-1.08,1.00,-1.16,1.16,0.63,0.75,2.25,2.16,2.16
81.35,0.95,-1.15,0.87,-1.23,1.23,0.62,0.75,2.18,2.10,2.10
82.16,0.81,-1.24,0.74,-1.31,1.31,0.61,0.74,2.11,2.04,2.04
82.98,0.69,-1.30,0.61,-1.38,1.38,0.61,0.74,2.08,1.99,2.00
83.81,0.45,-1.48,0.48,-1.45,1.45,0.60,0.74,1.91,1.93,1.93
84.65,0.26,-1.62,0.36,-1.52,1.52,0.59,0.74,1.78,1.88,1.87
85.50,0.14,-1.69,0.25,-1.57,1.57,0.59,0.73,1.70,1.82,1.83
86.35,0.08,-1.69,0.16,-1.60,1.60,0.58,0.73,1.68,1.76,1.77
87.22,0.05,-1.66,0.08,-1.62,1.62,0.58,0.73,1.67,1.70,1.71
88.09,-0.05,-1.70,0.01,-1.63,1.63,0.57,0.73,1.58,1.64,1.65
88.97,-0.11,-1.70,-0.04,-1.62,1.62,0.56,0.73,1.51,1.58,1.58
89.86,-0.11,-1.64,-0.07,-1.60,1.60,0.56,0.74,1.48,1.52,1.52
90.76,-0.11,-1.58,-0.09,-1.56,1.56,0.56,0.74,1.44,1.46,1.46
91.66,-0.11,-1.52,-0.10,-1.50,1.50,0.55,0.74,1.39,1.40,1.41
92.58,-0.08,-1.42,-0.09,-1.43,1.43,0.55,0.74,1.35,1.34,1.33
93.51,-0.00,-1.28,-0.07,-1.35,1.35,0.54,0.75,1.35,1.28,1.28
94.44,0.03,-1.20,-0.05,-1.28,1.28,0.54,0.75,1.30,1.22,1.22
95.39,-0.00,-1.17,-0.03,-1.20,1.20,0.53,0.75,1.20,1.17,1.17
96.34,-0.01,-1.12,-0.03,-1.14,1.14,0.53,0.76,1.12,1.11,1.10
97.30,-0.02,-1.07,-0.03,-1.08,1.08,0.53,0.76,1.06,1.05,1.05
98.28,-0.03,-1.03,-0.03,-1.02,1.02,0.53,0.77,0.99,0.99,0.99
99.26,-0.04,-0.98,-0.04,-0.98,0.98,0.52,0.78,0.93,0.93,0.93
100.25,-0.05,-0.93,-0.06,-0.93,0.93,0.52,0.78,0.88,0.88,0.88
101.25,-0.04,-0.86,-0.09,-0.90,0.90,0.52,0.79,0.86,0.82,0.82
102.27,-0.05,-0.82,-0.13,-0.89,0.89,0.52,0.80,0.83,0.76,0.76
103.29,-0.15,-0.85,-0.18,-0.88,0.88,0.51,0.80,0.73,0.70,0.69
104.32,-0.22,-0.87,-0.23,-0.87,0.87,0.51,0.81,0.65,0.64,0.65
105.37,-0.29,-0.88,-0.28,-0.86,0.86,0.51,0.82,0.56,0.58,0.59
106.42,-0.41,-0.95,-0.33,-0.85,0.85,0.51,0.83,0.44,0.52,0.53
107.48,-0.40,-0.87,-0.39,-0.85,0.85,0.51,0.83,0.45,0.46,0.46
108.56,-0.37,-0.77,-0.45,-0.85,0.85,0.51,0.84,0.48,0.40,0.40
109.64,-0.49,-0.82,-0.51,-0.85,0.85,0.51,0.85,0.36,0.33,0.34
110.74,-0.59,-0.87,-0.57,-0.84,0.84,0.51,0.86,0.24,0.27,0.27
111.85,-0.72,-0.95,-0.62,-0.83,0.83,0.51,0.87,0.11,0.21,0.22
112.97,-0.73,-0.88,-0.68,-0.83,0.83,0.51,0.88,0.09,0.15,0.15
114.10,-0.69,-0.78,-0.73,-0.82,0.82,0.51,0.88,0.13,0.09,0.09
115.24,-0.68,-0.72,-0.77,-0.80,0.80,0.51,0.89,0.12,0.04,0.03
116.39,-0.84,-0.81,-0.80,-0.78,0.78,0.51,0.90,-0.06,-0.02,-0.03
117.55,-0.94,-0.87,-0.84,-0.77,0.77,0.51,0.90,-0.18,-0.07,-0.08
118.73,-0.91,-0.78,-0.88,-0.76,0.76,0.51,0.91,-0.16,-0.12,-0.13
119.92,-0.84,-0.68,-0.92,-0.76,0.76,0.51,0.92,-0.09,-0.17,-0.17
121.12,-0.91,-0.69,-0.97,-0.76,0.76,0.51,0.92,-0.16,-0.21,-0.22
122.33,-1.03,-0.77,-1.02,-0.76,0.76,0.52,0.93,-0.28,-0.26,-0.26
123.55,-1.08,-0.79,-1.06,-0.76,0.76,0.52,0.93,-0.33,-0.30,-0.30
124.79,-1.10,-0.77,-1.12,-0.78,0.78,0.52,0.94,-0.33,-0.34,-0.34
126.03,-1.13,-0.75,-1.19,-0.81,0.81,0.52,0.94,-0.32,-0.38,-0.38
127.29,-1.16,-0.75,-1.27,-0.85,0.85,0.53,0.95,-0.32,-0.42,-0.41
128.57,-1.28,-0.82,-1.35,-0.89,0.89,0.53,0.95,-0.39,-0.46,-0.46
129.85,-1.47,-0.98,-1.43,-0.93,0.93,0.53,0.95,-0.54,-0.50,-0.50
131.15,-1.51,-0.98,-1.51,-0.98,0.98,0.54,0.96,-0.54,-0.54,-0.54
132.46,-1.60,-1.03,-1.60,-1.02,1.02,0.54,0.96,-0.58,-0.57,-0.58
133.79,-1.67,-1.06,-1.68,-1.07,1.07,0.55,0.96,-0.61,-0.61,-0.61
135.12,-1.74,-1.09,-1.75,-1.10,1.10,0.55,0.96,-0.64,-0.65,-0.66
136.48,-1.84,-1.16,-1.82,-1.13,1.13,0.56,0.96,-0.71,-0.68,-0.68
137.84,-1.98,-1.26,-1.88,-1.16,1.16,0.56,0.97,-0.83,-0.72,-0.73
139.22,-2.00,-1.23,-1.92,-1.16,1.16,0.57,0.97,-0.84,-0.76,-0.77
140.61,-2.01,-1.20,-1.95,-1.15,1.15,0.57,0.97,-0.86,-0.80,-0.81
142.02,-2.05,-1.22,-1.98,-1.14,1.14,0.58,0.97,-0.91,-0.84,-0.83
143.44,-1.98,-1.11,-2.00,-1.12,1.12,0.59,0.97,-0.87,-0.88,-0.87
144.87,-1.91,-0.99,-2.01,-1.08,1.08,0.59,0.97,-0.83,-0.93,-0.92
146.32,-2.01,-1.04,-2.02,-1.04,1.04,0.60,0.98,-0.97,-0.98,-0.97
147.78,-2.05,-1.05,-2.03,-0.99,0.99,0.61,0.98,-1.06,-1.04,-1.01
149.26,-2.02,-0.96,-2.03,-0.93,0.93,0.62,0.98,-1.09,-1.10,-1.07
150.75,-2.00,-0.86,-2.04,-0.88,0.88,0.63,0.98,-1.13,-1.16,-1.14
152.26,-1.96,-0.75,-2.05,-0.82,0.82,0.63,0.99,-1.15,-1.23,-1.21
153.78,-1.97,-0.68,-2.08,-0.77,0.77,0.64,0.99,-1.19,-1.31,-1.29
155.32,-2.15,-0.78,-2.12,-0.74,0.74,0.65,0.99,-1.42,-1.38,-1.37
156.88,-2.26,-0.81,-2.17,-0.71,0.71,0.66,1.00,-1.55,-1.46,-1.45
158.44,-2.19,-0.65,-2.23,-0.69,0.69,0.67,1.00,-1.50,-1.54,-1.54
160.03,-2.19,-0.56,-2.30,-0.68,0.68,0.68,1.01,-1.51,-1.61,-1.63
161.63,-2.32,-0.61,-2.35,-0.67,0.67,0.70,1.02,-1.66,-1.69,-1.71
163.24,-2.35,-0.58,-2.41,-0.65,0.65,0.71,1.02,-1.70,-1.76,-1.78
164.88,-2.45,-0.62,-2.47,-0.66,0.66,0.72,1.03,-1.80,-1.82,-1.84
166.53,-2.61,-0.72,-2.54,-0.67,0.67,0.73,1.04,-1.94,-1.87,-1.89
168.19,-2.70,-0.77,-2.60,-0.68,0.68,0.75,1.05,-2.02,-1.92,-1.94
169.87,-2.73,-0.76,-2.65,-0.69,0.69,0.76,1.06,-2.04,-1.96,-1.98
171.57,-2.73,-0.73,-2.69,-0.70,0.70,0.77,1.07,-2.03,-1.99,-2.00
173.29,-2.74,-0.72,-2.73,-0.71,0.71,0.79,1.08,-2.03,-2.01,-2.02
175.02,-2.75,-0.72,-2.76,-0.73,0.73,0.80,1.10,-2.03,-2.03,-2.04
176.77,-2.75,-0.70,-2.79,-0.75,0.75,0.82,1.11,-2.01,-2.05,-2.06
178.54,-2.75,-0.69,-2.81,-0.75,0.75,0.83,1.13,-2.00,-2.06,-2.07
180.32,-2.86,-0.80,-2.82,-0.75,0.75,0.85,1.14,-2.11,-2.07,-2.06
182.13,-2.88,-0.82,-2.84,-0.75,0.75,0.87,1.16,-2.13,-2.08,-2.06
183.95,-2.79,-0.72,-2.84,-0.75,0.75,0.89,1.17,-2.05,-2.10,-2.08
185.79,-2.79,-0.71,-2.85,-0.74,0.74,0.91,1.19,-2.06,-2.11,-2.08
187.65,-2.89,-0.78,-2.85,-0.73,0.73,0.92,1.21,-2.16,-2.12,-2.11
189.52,-2.89,-0.77,-2.87,-0.73,0.73,0.94,1.23,-2.16,-2.14,-2.12
191.42,-2.88,-0.74,-2.89,-0.73,0.73,0.96,1.25,-2.15,-2.15,-2.15
193.33,-2.86,-0.69,-2.91,-0.74,0.74,0.99,1.27,-2.13,-2.17,-2.17
195.27,-2.89,-0.70,-2.93,-0.74,0.74,1.01,1.29,-2.16,-2.19,-2.19
197.22,-2.93,-0.72,-2.95,-0.74,0.74,1.03,1.31,-2.20,-2.22,-2.22
199.19,-2.99,-0.75,-2.98,-0.74,0.74,1.05,1.34,-2.26,-2.24,-2.25
201.18,-3.02,-0.76,-3.00,-0.73,0.73,1.08,1.36,-2.29,-2.26,-2.27
203.19,-3.01,-0.73,-3.03,-0.74,0.74,1.10,1.38,-2.28,-2.29,-2.29
205.23,-3.03,-0.72,-3.06,-0.75,0.75,1.13,1.41,-2.29,-2.31,-2.32
207.28,-3.09,-0.77,-3.09,-0.76,0.76,1.16,1.43,-2.34,-2.34,-2.32
209.35,-3.16,-0.81,-3.13,-0.77,0.77,1.18,1.45,-2.40,-2.36,-2.35
211.44,-3.21,-0.83,-3.17,-0.79,0.79,1.21,1.48,-2.42,-2.38,-2.39
213.56,-3.22,-0.83,-3.21,-0.81,0.81,1.24,1.50,-2.41,-2.40,-2.40
215.69,-3.22,-0.81,-3.26,-0.84,0.84,1.27,1.53,-2.38,-2.41,-2.41
217.85,-3.23,-0.81,-3.30,-0.87,0.87,1.30,1.55,-2.37,-2.43,-2.43
220.03,-3.30,-0.86,-3.34,-0.90,0.90,1.33,1.58,-2.41,-2.44,-2.44
222.23,-3.37,-0.91,-3.38,-0.93,0.93,1.37,1.60,-2.44,-2.45,-2.47
224.45,-3.42,-0.96,-3.42,-0.97,0.97,1.40,1.62,-2.46,-2.46,-2.46
226.70,-3.50,-1.04,-3.47,-1.01,1.01,1.43,1.65,-2.50,-2.46,-2.46
228.96,-3.54,-1.09,-3.51,-1.05,1.05,1.47,1.67,-2.49,-2.46,-2.46
231.25,-3.60,-1.15,-3.55,-1.10,1.10,1.51,1.69,-2.50,-2.45,-2.45
233.57,-3.60,-1.16,-3.60,-1.16,1.16,1.54,1.71,-2.45,-2.44,-2.44
235.90,-3.63,-1.20,-3.65,-1.22,1.22,1.58,1.73,-2.42,-2.43,-2.43
238.26,-3.69,-1.27,-3.70,-1.28,1.28,1.62,1.74,-2.42,-2.42,-2.43
240.64,-3.73,-1.33,-3.75,-1.35,1.35,1.66,1.76,-2.38,-2.40,-2.41
243.05,-3.76,-1.39,-3.81,-1.42,1.42,1.70,1.77,-2.34,-2.38,-2.38
245.48,-3.79,-1.44,-3.86,-1.50,1.50,1.74,1.79,-2.30,-2.36,-2.36
247.93,-3.89,-1.57,-3.91,-1.57,1.57,1.78,1.80,-2.32,-2.34,-2.33
250.41,-3.99,-1.68,-3.96,-1.65,1.65,1.83,1.81,-2.35,-2.32,-2.32
252.92,-4.03,-1.75,-4.02,-1.73,1.73,1.87,1.82,-2.31,-2.30,-2.29
255.45,-4.05,-1.79,-4.09,-1.81,1.81,1.92,1.83,-2.24,-2.27,-2.26
258.00,-4.10,-1.86,-4.15,-1.90,1.90,1.96,1.83,-2.21,-2.25,-2.24
260.58,-4.19,-1.96,-4.21,-1.98,1.98,2.01,1.84,-2.21,-2.23,-2.23
263.19,-4.29,-2.10,-4.26,-2.06,2.06,2.05,1.84,-2.24,-2.20,-2.20
265.82,-4.35,-2.17,-4.31,-2.13,2.13,2.10,1.85,-2.23,-2.18,-2.19
268.48,-4.35,-2.19,-4.34,-2.19,2.19,2.15,1.85,-2.17,-2.16,-2.16
271.16,-4.36,-2.23,-4.37,-2.24,2.24,2.19,1.85,-2.13,-2.13,-2.13
273.87,-4.43,-2.32,-4.39,-2.28,2.28,2.24,1.85,-2.16,-2.11,-2.12
276.61,-4.46,-2.38,-4.39,-2.31,2.31,2.29,1.85,-2.16,-2.09,-2.08
279.38,-4.46,-2.40,-4.40,-2.34,2.34,2.33,1.85,-2.12,-2.06,-2.06
282.17,-4.46,-2.43,-4.40,-2.37,2.37,2.38,1.85,-2.09,-2.03,-2.04
284.99,-4.40,-2.40,-4.40,-2.39,2.39,2.43,1.85,-2.01,-2.01,-2.00
287.84,-4.33,-2.35,-4.39,-2.41,2.41,2.47,1.85,-1.92,-1.98,-1.99
290.72,-4.32,-2.37,-4.38,-2.42,2.42,2.52,1.84,-1.90,-1.95,-1.95
293.63,-4.32,-2.40,-4.37,-2.44,2.44,2.56,1.84,-1.88,-1.92,-1.93
296.57,-4.31,-2.42,-4.36,-2.46,2.46,2.60,1.84,-1.85,-1.90,-1.89
299.53,-4.30,-2.44,-4.36,-2.49,2.49,2.64,1.84,-1.82,-1.87,-1.87
302.53,-4.33,-2.48,-4.36,-2.51,2.51,2.68,1.84,-1.82,-1.84,-1.85
305.55,-4.41,-2.61,-4.36,-2.54,2.54,2.72,1.84,-1.87,-1.82,-1.81
308.61,-4.39,-2.60,-4.38,-2.59,2.59,2.75,1.85,-1.81,-1.80,-1.79
311.69,-4.36,-2.60,-4.41,-2.64,2.64,2.79,1.85,-1.73,-1.77,-1.77
314.81,-4.39,-2.65,-4.44,-2.69,2.69,2.82,1.85,-1.71,-1.75,-1.74
317.96,-4.44,-2.72,-4.47,-2.74,2.74,2.85,1.86,-1.70,-1.73,-1.72
321.14,-4.50,-2.79,-4.51,-2.80,2.80,2.87,1.86,-1.71,-1.71,-1.72
324.35,-4.54,-2.84,-4.53,-2.83,2.83,2.89,1.87,-1.71,-1.70,-1.70
327.59,-4.52,-2.84,-4.55,-2.87,2.87,2.91,1.88,-1.66,-1.68,-1.68
330.87,-4.58,-2.91,-4.58,-2.91,2.91,2.93,1.89,-1.68,-1.67,-1.68
334.18,-4.64,-2.98,-4.59,-2.93,2.93,2.94,1.90,-1.71,-1.66,-1.66
337.52,-4.66,-3.01,-4.59,-2.94,2.94,2.95,1.92,-1.72,-1.65,-1.65
340.90,-4.67,-3.04,-4.59,-2.94,2.94,2.96,1.93,-1.73,-1.64,-1.64
344.30,-4.59,-2.96,-4.59,-2.95,2.95,2.96,1.95,-1.65,-1.64,-1.63
347.75,-4.54,-2.91,-4.57,-2.94,2.94,2.96,1.96,-1.60,-1.63,-1.63
351.23,-4.55,-2.93,-4.54,-2.91,2.91,2.96,1.98,-1.64,-1.63,-1.63
354.74,-4.47,-2.85,-4.50,-2.87,2.87,2.95,2.00,-1.60,-1.62,-1.63
358.28,-4.41,-2.79,-4.45,-2.83,2.83,2.94,2.03,-1.59,-1.62,-1.62
361.87,-4.48,-2.86,-4.41,-2.79,2.79,2.92,2.05,-1.70,-1.62,-1.62
365.49,-4.44,-2.83,-4.37,-2.75,2.75,2.91,2.08,-1.70,-1.62,-1.61
369.14,-4.23,-2.61,-4.33,-2.70,2.70,2.89,2.10,-1.53,-1.62,-1.63
372.83,-4.22,-2.60,-4.28,-2.66,2.66,2.87,2.13,-1.56,-1.62,-1.63
376.56,-4.22,-2.59,-4.24,-2.61,2.61,2.84,2.16,-1.61,-1.63,-1.63
380.33,-4.21,-2.59,-4.20,-2.57,2.57,2.81,2.19,-1.65,-1.63,-1.62
384.13,-4.07,-2.45,-4.17,-2.53,2.53,2.79,2.23,-1.54,-1.63,-1.62
387.97,-4.02,-2.39,-4.13,-2.50,2.50,2.75,2.26,-1.53,-1.64,-1.64
391.85,-4.08,-2.44,-4.10,-2.46,2.46,2.72,2.29,-1.62,-1.64,-1.65
395.77,-4.16,-2.53,-4.08,-2.43,2.43,2.69,2.33,-1.74,-1.65,-1.64
399.73,-4.18,-2.53,-4.05,-2.39,2.39,2.65,2.37,-1.79,-1.66,-1.65
403.72,-4.06,-2.41,-4.02,-2.35,2.35,2.61,2.40,-1.71,-1.66,-1.65
407.76,-3.99,-2.33,-3.99,-2.33,2.33,2.58,2.44,-1.67,-1.67,-1.66
411.84,-3.88,-2.22,-3.98,-2.31,2.31,2.54,2.48,-1.58,-1.67,-1.67
415.96,-3.84,-2.18,-3.94,-2.27,2.27,2.50,2.52,-1.57,-1.67,-1.67
420.12,-3.94,-2.28,-3.91,-2.24,2.24,2.46,2.56,-1.70,-1.67,-1.67
424.32,-3.95,-2.29,-3.88,-2.22,2.22,2.42,2.59,-1.74,-1.66,-1.67
428.56,-3.83,-2.17,-3.85,-2.19,2.19,2.38,2.63,-1.64,-1.65,-1.66
432.85,-3.78,-2.13,-3.80,-2.16,2.16,2.34,2.67,-1.62,-1.64,-1.65
437.18,-3.75,-2.11,-3.75,-2.13,2.13,2.31,2.70,-1.62,-1.62,-1.64
441.55,-3.71,-2.11,-3.70,-2.10,2.10,2.27,2.74,-1.61,-1.59,-1.60
445.96,-3.67,-2.10,-3.65,-2.09,2.09,2.23,2.77,-1.59,-1.56,-1.57
450.42,-3.62,-2.08,-3.60,-2.08,2.08,2.19,2.80,-1.55,-1.53,-1.55
454.93,-3.56,-2.07,-3.55,-2.06,2.06,2.16,2.82,-1.50,-1.48,-1.50
459.48,-3.50,-2.06,-3.49,-2.05,2.05,2.12,2.85,-1.45,-1.44,-1.45
464.07,-3.43,-2.04,-3.43,-2.04,2.04,2.09,2.87,-1.40,-1.39,-1.40
468.71,-3.38,-2.05,-3.38,-2.03,2.03,2.06,2.89,-1.36,-1.35,-1.34
473.40,-3.32,-2.02,-3.33,-2.03,2.03,2.03,2.90,-1.29,-1.30,-1.30
478.13,-3.26,-2.02,-3.29,-2.04,2.04,2.00,2.91,-1.23,-1.25,-1.24
482.91,-3.22,-2.02,-3.25,-2.05,2.05,1.97,2.92,-1.18,-1.20,-1.20
487.74,-3.18,-2.02,-3.22,-2.06,2.06,1.95,2.92,-1.13,-1.16,-1.16
492.62,-3.14,-2.03,-3.18,-2.05,2.05,1.92,2.92,-1.09,-1.13,-1.11
497.55,-3.11,-2.02,-3.15,-2.06,2.06,1.90,2.92,-1.06,-1.10,-1.09
502.52,-3.09,-2.03,-3.13,-2.06,2.06,1.88,2.91,-1.04,-1.07,-1.06
