frequency,raw,error,smoothed,error_smoothed,equalization,parametric_eq,fixed_band_eq,equalized_raw,equalized_smoothed,target
20.00,-4.79,-8.04,-4.76,-8.03,8.03,7.48,1.92,3.24,3.27,3.25
20.20,-4.65,-7.94,-4.64,-7.94,7.94,7.39,1.97,3.29,3.30,3.29
20.40,-4.51,-7.83,-4.51,-7.84,7.84,7.29,2.03,3.33,3.33,3.32
20.61,-4.37,-7.72,-4.39,-7.74,7.74,7.19,2.09,3.37,3.35,3.35
20.81,-4.23,-7.62,-4.26,-7.64,7.64,7.09,2.15,3.41,3.38,3.39
21.02,-4.09,-7.52,-4.14,-7.54,7.54,6.99,2.21,3.45,3.40,3.43
21.23,-3.99,-7.43,-4.01,-7.43,7.43,6.89,2.27,3.44,3.42,3.44
21.44,-3.89,-7.35,-3.88,-7.33,7.33,6.79,2.34,3.44,3.44,3.46
21.66,-3.79,-7.27,-3.76,-7.22,7.22,6.69,2.41,3.43,3.46,3.48
21.87,-3.69,-7.17,-3.63,-7.11,7.11,6.60,2.48,3.42,3.48,3.49
22.09,-3.56,-7.06,-3.50,-7.00,7.00,6.50,2.55,3.44,3.50,3.50
22.31,-3.40,-6.90,-3.38,-6.89,6.89,6.40,2.62,3.49,3.51,3.50
22.54,-3.24,-6.76,-3.25,-6.77,6.77,6.30,2.69,3.53,3.52,3.51
22.76,-3.08,-6.60,-3.13,-6.65,6.65,6.20,2.77,3.58,3.53,3.52
22.99,-2.92,-6.44,-3.00,-6.53,6.53,6.11,2.85,3.61,3.54,3.52
23.22,-2.82,-6.35,-2.86,-6.41,6.41,6.01,2.93,3.59,3.54,3.53
23.45,-2.73,-6.27,-2.73,-6.28,6.28,5.92,3.01,3.55,3.55,3.54
23.69,-2.63,-6.18,-2.60,-6.15,6.15,5.82,3.09,3.52,3.55,3.55
23.92,-2.54,-6.10,-2.46,-6.02,6.02,5.73,3.18,3.48,3.56,3.56
24.16,-2.40,-5.97,-2.33,-5.89,5.89,5.64,3.26,3.49,3.56,3.57
24.40,-2.24,-5.81,-2.21,-5.77,5.77,5.55,3.35,3.53,3.56,3.58
24.65,-2.09,-5.66,-2.09,-5.65,5.65,5.46,3.44,3.56,3.56,3.57
24.89,-1.93,-5.49,-1.98,-5.54,5.54,5.37,3.53,3.62,3.57,3.57
25.14,-1.81,-5.37,-1.87,-5.44,5.44,5.28,3.61,3.63,3.57,3.56
25.39,-1.72,-5.28,-1.77,-5.33,5.33,5.19,3.70,3.61,3.57,3.56
25.65,-1.63,-5.19,-1.67,-5.23,5.23,5.10,3.79,3.60,3.57,3.56
25.91,-1.54,-5.09,-1.57,-5.13,5.13,5.02,3.88,3.59,3.56,3.55
26.16,-1.46,-5.02,-1.47,-5.03,5.03,4.93,3.97,3.57,3.56,3.56
26.43,-1.38,-4.94,-1.37,-4.93,4.93,4.85,4.06,3.55,3.56,3.56
26.69,-1.29,-4.85,-1.28,-4.83,4.83,4.77,4.15,3.54,3.55,3.56
26.96,-1.21,-4.77,-1.19,-4.74,4.74,4.69,4.23,3.53,3.55,3.56
27.23,-1.13,-4.69,-1.10,-4.65,4.65,4.61,4.31,3.52,3.55,3.55
27.50,-1.05,-4.60,-1.01,-4.56,4.56,4.53,4.39,3.51,3.55,3.55
27.77,-0.97,-4.51,-0.92,-4.47,4.47,4.45,4.47,3.50,3.55,3.54
28.05,-0.89,-4.43,-0.83,-4.38,4.38,4.37,4.54,3.49,3.54,3.54
28.33,-0.76,-4.29,-0.74,-4.28,4.28,4.30,4.61,3.52,3.54,3.53
28.62,-0.63,-4.17,-0.65,-4.19,4.19,4.22,4.67,3.55,3.54,3.54
28.90,-0.50,-4.03,-0.56,-4.09,4.09,4.15,4.73,3.59,3.54,3.53
29.19,-0.42,-3.94,-0.47,-4.00,4.00,4.07,4.78,3.58,3.53,3.52
29.48,-0.35,-3.88,-0.38,-3.91,3.91,4.00,4.83,3.56,3.53,3.53
29.78,-0.28,-3.81,-0.30,-3.82,3.82,3.93,4.87,3.54,3.52,3.53
30.08,-0.21,-3.74,-0.22,-3.73,3.73,3.86,4.90,3.52,3.52,3.53
30.38,-0.14,-3.66,-0.14,-3.65,3.65,3.79,4.92,3.51,3.51,3.52
30.68,-0.07,-3.58,-0.06,-3.56,3.56,3.73,4.94,3.49,3.51,3.51
30.99,-0.00,-3.50,0.02,-3.48,3.48,3.66,4.94,3.48,3.50,3.50
31.30,0.07,-3.43,0.10,-3.40,3.40,3.59,4.94,3.47,3.50,3.50
31.61,0.14,-3.36,0.17,-3.32,3.32,3.53,4.94,3.46,3.49,3.50
31.93,0.21,-3.27,0.24,-3.24,3.24,3.47,4.92,3.45,3.49,3.48
32.24,0.29,-3.18,0.31,-3.17,3.17,3.41,4.90,3.46,3.48,3.47
32.57,0.36,-3.11,0.38,-3.10,3.10,3.34,4.87,3.46,3.47,3.47
32.89,0.44,-3.02,0.44,-3.03,3.03,3.28,4.83,3.47,3.47,3.46
33.22,0.51,-2.95,0.50,-2.97,2.97,3.22,4.78,3.48,3.46,3.46
33.55,0.58,-2.88,0.55,-2.91,2.91,3.17,4.73,3.49,3.46,3.46
33.89,0.66,-2.80,0.59,-2.86,2.86,3.11,4.67,3.52,3.45,3.46
34.23,0.68,-2.77,0.62,-2.82,2.82,3.05,4.61,3.50,3.45,3.45
34.57,0.68,-2.76,0.64,-2.80,2.80,3.00,4.54,3.48,3.44,3.44
34.92,0.68,-2.75,0.66,-2.77,2.77,2.94,4.47,3.45,3.43,3.43
35.27,0.68,-2.75,0.67,-2.76,2.76,2.89,4.40,3.44,3.43,3.43
35.62,0.68,-2.74,0.68,-2.74,2.74,2.84,4.32,3.42,3.42,3.42
35.97,0.68,-2.73,0.69,-2.73,2.73,2.78,4.24,3.41,3.42,3.41
36.33,0.68,-2.73,0.70,-2.71,2.71,2.73,4.15,3.39,3.41,3.41
36.70,0.68,-2.72,0.70,-2.70,2.70,2.68,4.07,3.38,3.40,3.40
37.06,0.68,-2.71,0.71,-2.68,2.68,2.63,3.98,3.36,3.39,3.39
37.43,0.68,-2.71,0.73,-2.66,2.66,2.59,3.89,3.34,3.38,3.39
37.81,0.68,-2.70,0.75,-2.63,2.63,2.54,3.80,3.31,3.38,3.38
38.19,0.72,-2.65,0.78,-2.59,2.59,2.49,3.71,3.31,3.37,3.37
38.57,0.81,-2.55,0.81,-2.56,2.56,2.45,3.62,3.37,3.36,3.36
38.95,0.90,-2.45,0.84,-2.51,2.51,2.40,3.54,3.41,3.35,3.35
39.34,0.92,-2.42,0.89,-2.46,2.46,2.36,3.45,3.38,3.35,3.34
39.74,0.93,-2.39,0.94,-2.40,2.40,2.31,3.36,3.33,3.34,3.32
40.14,0.97,-2.36,0.99,-2.34,2.34,2.27,3.28,3.31,3.33,3.33
40.54,1.05,-2.27,1.04,-2.27,2.27,2.23,3.19,3.32,3.32,3.32
40.94,1.13,-2.18,1.09,-2.21,2.21,2.19,3.11,3.34,3.30,3.31
41.35,1.14,-2.16,1.14,-2.14,2.14,2.15,3.03,3.28,3.29,3.30
41.76,1.14,-2.14,1.19,-2.08,2.08,2.11,2.95,3.22,3.27,3.28
42.18,1.18,-2.08,1.23,-2.01,2.01,2.07,2.87,3.19,3.25,3.26
42.60,1.28,-1.95,1.26,-1.96,1.96,2.03,2.80,3.24,3.22,3.23
43.03,1.37,-1.85,1.29,-1.90,1.90,1.99,2.72,3.27,3.20,3.22
43.46,1.37,-1.82,1.32,-1.85,1.85,1.95,2.65,3.22,3.17,3.19
43.90,1.37,-1.77,1.34,-1.80,1.80,1.92,2.58,3.17,3.14,3.14
44.33,1.37,-1.74,1.37,-1.75,1.75,1.88,2.52,3.12,3.11,3.11
44.78,1.37,-1.70,1.39,-1.70,1.70,1.85,2.45,3.07,3.08,3.07
45.23,1.37,-1.67,1.40,-1.66,1.66,1.81,2.39,3.03,3.06,3.04
45.68,1.37,-1.64,1.40,-1.63,1.63,1.78,2.32,3.00,3.03,3.01
46.13,1.37,-1.62,1.40,-1.61,1.61,1.74,2.26,2.98,3.00,2.99
46.60,1.37,-1.61,1.39,-1.60,1.60,1.71,2.21,2.97,2.98,2.98
47.06,1.37,-1.59,1.37,-1.59,1.59,1.68,2.15,2.96,2.97,2.96
47.53,1.37,-1.58,1.36,-1.59,1.59,1.65,2.10,2.96,2.95,2.95
48.01,1.37,-1.57,1.35,-1.59,1.59,1.62,2.04,2.96,2.94,2.94
48.49,1.37,-1.56,1.33,-1.60,1.60,1.59,1.99,2.97,2.93,2.93
48.97,1.37,-1.55,1.31,-1.62,1.62,1.56,1.94,2.99,2.93,2.92
49.46,1.26,-1.65,1.27,-1.65,1.65,1.53,1.90,2.91,2.92,2.90
49.96,1.15,-1.75,1.24,-1.68,1.68,1.50,1.85,2.83,2.92,2.90
50.46,1.14,-1.77,1.19,-1.71,1.71,1.47,1.81,2.85,2.91,2.91
50.96,1.14,-1.77,1.14,-1.76,1.76,1.44,1.76,2.90,2.90,2.91
51.47,1.14,-1.76,1.08,-1.80,1.80,1.41,1.72,2.94,2.88,2.90
51.99,1.14,-1.74,1.02,-1.85,1.85,1.39,1.68,2.99,2.87,2.88
52.51,1.02,-1.84,0.95,-1.90,1.90,1.36,1.64,2.92,2.84,2.86
53.03,0.90,-1.94,0.88,-1.94,1.94,1.34,1.61,2.84,2.81,2.84
53.56,0.78,-2.02,0.81,-1.97,1.97,1.31,1.57,2.75,2.78,2.80
54.10,0.68,-2.07,0.74,-2.00,2.00,1.29,1.53,2.68,2.74,2.75
54.64,0.68,-2.02,0.67,-2.02,2.02,1.26,1.50,2.70,2.70,2.70
55.18,0.64,-2.01,0.62,-2.03,2.03,1.24,1.47,2.67,2.65,2.65
55.74,0.52,-2.07,0.57,-2.02,2.02,1.21,1.44,2.55,2.60,2.59
56.29,0.46,-2.08,0.53,-2.01,2.01,1.19,1.41,2.47,2.54,2.54
56.86,0.46,-2.02,0.50,-1.98,1.98,1.17,1.38,2.44,2.48,2.48
57.42,0.46,-1.95,0.48,-1.93,1.93,1.15,1.35,2.39,2.42,2.41
58.00,0.46,-1.88,0.48,-1.87,1.87,1.12,1.32,2.33,2.35,2.34
58.58,0.46,-1.82,0.50,-1.79,1.79,1.10,1.29,2.25,2.28,2.28
59.16,0.46,-1.77,0.52,-1.70,1.70,1.08,1.26,2.16,2.22,2.23
59.76,0.46,-1.70,0.54,-1.61,1.61,1.06,1.24,2.07,2.15,2.16
60.35,0.54,-1.54,0.56,-1.52,1.52,1.04,1.21,2.06,2.09,2.09
60.96,0.67,-1.36,0.58,-1.44,1.44,1.02,1.19,2.11,2.02,2.03
61.57,0.68,-1.27,0.59,-1.36,1.36,1.00,1.16,2.04,1.96,1.95
62.18,0.68,-1.20,0.61,-1.29,1.29,0.98,1.14,1.97,1.90,1.88
62.80,0.68,-1.15,0.61,-1.22,1.22,0.97,1.11,1.90,1.84,1.83
63.43,0.68,-1.09,0.61,-1.17,1.17,0.95,1.09,1.85,1.78,1.77
64.07,0.68,-1.04,0.61,-1.12,1.12,0.93,1.06,1.80,1.73,1.72
64.71,0.64,-1.03,0.60,-1.08,1.08,0.91,1.04,1.72,1.67,1.67
65.35,0.57,-1.05,0.58,-1.04,1.04,0.89,1.02,1.61,1.63,1.62
66.01,0.46,-1.11,0.57,-1.01,1.01,0.88,1.00,1.47,1.58,1.57
66.67,0.46,-1.07,0.56,-0.98,0.98,0.86,0.97,1.44,1.54,1.53
67.33,0.46,-1.03,0.53,-0.97,0.97,0.84,0.95,1.43,1.50,1.49
68.01,0.46,-1.00,0.50,-0.95,0.95,0.83,0.93,1.41,1.46,1.46
68.69,0.46,-0.96,0.48,-0.94,0.94,0.81,0.91,1.40,1.42,1.42
69.37,0.46,-0.92,0.46,-0.93,0.93,0.80,0.89,1.39,1.38,1.38
70.07,0.46,-0.88,0.43,-0.91,0.91,0.78,0.86,1.37,1.35,1.34
70.77,0.46,-0.86,0.41,-0.90,0.90,0.77,0.84,1.36,1.31,1.32
71.48,0.46,-0.82,0.39,-0.88,0.88,0.75,0.82,1.34,1.27,1.28
72.19,0.46,-0.79,0.37,-0.86,0.86,0.74,0.80,1.32,1.24,1.25
72.91,0.46,-0.75,0.36,-0.84,0.84,0.72,0.78,1.30,1.20,1.21
73.64,0.31,-0.86,0.34,-0.82,0.82,0.71,0.76,1.13,1.16,1.17
74.38,0.23,-0.91,0.33,-0.80,0.80,0.70,0.74,1.03,1.13,1.14
75.12,0.23,-0.86,0.32,-0.78,0.78,0.68,0.73,1.01,1.09,1.09
75.87,0.23,-0.82,0.29,-0.76,0.76,0.67,0.71,0.99,1.06,1.05
76.63,0.23,-0.79,0.27,-0.75,0.75,0.66,0.69,0.98,1.02,1.02
77.40,0.23,-0.76,0.24,-0.74,0.74,0.65,0.67,0.97,0.99,0.99
78.17,0.23,-0.72,0.22,-0.74,0.74,0.63,0.65,0.97,0.96,0.95
78.95,0.23,-0.70,0.21,-0.72,0.72,0.62,0.64,0.95,0.93,0.93
79.74,0.23,-0.67,0.19,-0.71,0.71,0.61,0.62,0.94,0.90,0.90
80.54,0.23,-0.64,0.16,-0.71,0.71,0.60,0.60,0.94,0.88,0.87
81.35,0.23,-0.62,0.14,-0.72,0.72,0.59,0.59,0.95,0.86,0.85
82.16,0.18,-0.65,0.12,-0.72,0.72,0.58,0.57,0.90,0.84,0.83
82.98,0.00,-0.83,0.09,-0.73,0.73,0.57,0.55,0.73,0.83,0.83
83.81,0.00,-0.81,0.06,-0.75,0.75,0.56,0.54,0.75,0.81,0.81
84.65,0.00,-0.79,0.03,-0.78,0.78,0.55,0.52,0.78,0.80,0.79
85.50,0.00,-0.79,-0.01,-0.81,0.81,0.54,0.51,0.81,0.79,0.79
86.35,-0.00,-0.79,-0.06,-0.84,0.84,0.53,0.49,0.84,0.79,0.79
87.22,-0.05,-0.83,-0.10,-0.88,0.88,0.52,0.48,0.83,0.78,0.78
88.09,-0.23,-1.00,-0.15,-0.92,0.92,0.51,0.47,0.69,0.77,0.77
88.97,-0.23,-1.00,-0.19,-0.95,0.95,0.50,0.45,0.72,0.76,0.77
89.86,-0.23,-0.99,-0.22,-0.98,0.98,0.49,0.44,0.75,0.75,0.76
90.76,-0.23,-0.97,-0.26,-1.00,1.00,0.48,0.43,0.77,0.74,0.74
91.66,-0.23,-0.97,-0.29,-1.01,1.01,0.47,0.41,0.78,0.73,0.74
92.58,-0.31,-1.01,-0.32,-1.03,1.03,0.46,0.40,0.72,0.71,0.70
93.51,-0.41,-1.11,-0.36,-1.05,1.05,0.45,0.39,0.64,0.69,0.70
94.44,-0.46,-1.13,-0.41,-1.07,1.07,0.45,0.38,0.61,0.67,0.67
95.39,-0.46,-1.11,-0.45,-1.09,1.09,0.44,0.36,0.63,0.64,0.65
96.34,-0.46,-1.06,-0.48,-1.10,1.10,0.43,0.35,0.64,0.61,0.60
97.30,-0.46,-1.04,-0.51,-1.09,1.09,0.42,0.34,0.63,0.58,0.58
98.28,-0.46,-1.00,-0.54,-1.09,1.09,0.41,0.33,0.63,0.55,0.54
99.26,-0.52,-1.02,-0.57,-1.08,1.08,0.41,0.32,0.56,0.51,0.50
100.25,-0.68,-1.15,-0.59,-1.06,1.06,0.40,0.31,0.38,0.47,0.47
101.25,-0.68,-1.10,-0.61,-1.03,1.03,0.39,0.30,0.35,0.42,0.42
102.27,-0.68,-1.05,-0.63,-0.99,0.99,0.39,0.29,0.31,0.37,0.37
103.29,-0.68,-0.99,-0.64,-0.96,0.96,0.38,0.28,0.28,0.31,0.31
104.32,-0.68,-0.95,-0.66,-0.91,0.91,0.37,0.27,0.23,0.25,0.27
105.37,-0.68,-0.89,-0.68,-0.87,0.87,0.37,0.26,0.19,0.19,0.21
106.42,-0.68,-0.82,-0.71,-0.83,0.83,0.36,0.25,0.15,0.12,0.14
107.48,-0.68,-0.74,-0.73,-0.78,0.78,0.35,0.24,0.10,0.05,0.06
108.56,-0.68,-0.66,-0.74,-0.72,0.72,0.35,0.24,0.04,-0.02,-0.02
109.64,-0.68,-0.58,-0.76,-0.65,0.65,0.34,0.23,-0.03,-0.10,-0.10
110.74,-0.69,-0.51,-0.77,-0.59,0.59,0.34,0.22,-0.10,-0.18,-0.18
111.85,-0.88,-0.62,-0.79,-0.52,0.52,0.33,0.21,-0.36,-0.27,-0.26
112.97,-0.91,-0.56,-0.81,-0.46,0.46,0.32,0.21,-0.45,-0.35,-0.35
114.10,-0.91,-0.48,-0.84,-0.41,0.41,0.32,0.20,-0.50,-0.43,-0.43
115.24,-0.91,-0.39,-0.87,-0.36,0.36,0.31,0.19,-0.55,-0.51,-0.52
116.39,-0.91,-0.31,-0.91,-0.32,0.32,0.31,0.19,-0.59,-0.59,-0.60
117.55,-0.91,-0.23,-0.95,-0.29,0.29,0.30,0.18,-0.62,-0.66,-0.68
118.73,-0.91,-0.16,-1.00,-0.27,0.27,0.30,0.18,-0.64,-0.73,-0.75
119.92,-0.92,-0.11,-1.04,-0.25,0.25,0.29,0.17,-0.67,-0.79,-0.81
121.12,-1.14,-0.27,-1.09,-0.23,0.23,0.29,0.17,-0.91,-0.85,-0.87
122.33,-1.14,-0.22,-1.12,-0.22,0.22,0.28,0.17,-0.92,-0.91,-0.92
123.55,-1.14,-0.18,-1.15,-0.19,0.19,0.28,0.16,-0.95,-0.96,-0.96
124.79,-1.14,-0.13,-1.18,-0.17,0.17,0.28,0.16,-0.97,-1.01,-1.01
126.03,-1.29,-0.24,-1.22,-0.16,0.16,0.27,0.16,-1.13,-1.06,-1.05
127.29,-1.34,-0.25,-1.26,-0.16,0.16,0.27,0.16,-1.18,-1.10,-1.09
128.57,-1.37,-0.23,-1.30,-0.16,0.16,0.26,0.16,-1.21,-1.14,-1.14
129.85,-1.37,-0.19,-1.35,-0.16,0.16,0.26,0.16,-1.21,-1.18,-1.18
131.15,-1.37,-0.15,-1.38,-0.16,0.16,0.26,0.16,-1.21,-1.23,-1.22
132.46,-1.37,-0.10,-1.42,-0.15,0.15,0.25,0.16,-1.22,-1.27,-1.27
133.79,-1.37,-0.07,-1.44,-0.13,0.13,0.25,0.16,-1.24,-1.31,-1.30
135.12,-1.38,-0.02,-1.45,-0.10,0.10,0.25,0.16,-1.28,-1.35,-1.36
136.48,-1.43,-0.04,-1.48,-0.08,0.08,0.24,0.16,-1.35,-1.39,-1.39
137.84,-1.58,-0.14,-1.51,-0.07,0.07,0.24,0.16,-1.51,-1.44,-1.44
139.22,-1.60,-0.10,-1.53,-0.05,0.05,0.24,0.16,-1.55,-1.48,-1.50
140.61,-1.60,-0.05,-1.54,-0.01,0.01,0.23,0.17,-1.59,-1.53,-1.55
142.02,-1.60,-0.02,-1.57,0.01,-0.01,0.23,0.17,-1.61,-1.58,-1.58
143.44,-1.60,0.03,-1.60,0.04,-0.04,0.23,0.17,-1.64,-1.64,-1.63
144.87,-1.60,0.08,-1.63,0.07,-0.07,0.23,0.18,-1.67,-1.70,-1.68
146.32,-1.60,0.14,-1.66,0.10,-0.10,0.22,0.18,-1.70,-1.76,-1.74
147.78,-1.65,0.14,-1.70,0.12,-0.12,0.22,0.18,-1.77,-1.83,-1.79
149.26,-1.76,0.11,-1.74,0.16,-0.16,0.22,0.19,-1.92,-1.90,-1.87
150.75,-1.82,0.13,-1.78,0.19,-0.19,0.22,0.19,-2.01,-1.97,-1.95
152.26,-1.82,0.21,-1.82,0.22,-0.22,0.21,0.20,-2.04,-2.05,-2.03
153.78,-1.82,0.29,-1.88,0.25,-0.25,0.21,0.20,-2.07,-2.13,-2.11
155.32,-1.87,0.34,-1.94,0.26,-0.26,0.21,0.21,-2.14,-2.20,-2.21
156.88,-2.03,0.26,-2.01,0.28,-0.28,0.21,0.21,-2.30,-2.28,-2.29
158.44,-2.05,0.32,-2.08,0.28,-0.28,0.21,0.22,-2.33,-2.36,-2.37
160.03,-2.11,0.34,-2.15,0.28,-0.28,0.20,0.23,-2.39,-2.43,-2.45
161.63,-2.25,0.27,-2.21,0.28,-0.28,0.20,0.23,-2.53,-2.50,-2.52
163.24,-2.28,0.30,-2.27,0.28,-0.28,0.20,0.24,-2.56,-2.56,-2.58
164.88,-2.28,0.35,-2.33,0.28,-0.28,0.20,0.25,-2.56,-2.61,-2.63
166.53,-2.46,0.21,-2.37,0.28,-0.28,0.20,0.25,-2.74,-2.65,-2.67
168.19,-2.51,0.20,-2.42,0.26,-0.26,0.20,0.26,-2.77,-2.68,-2.71
169.87,-2.51,0.22,-2.46,0.25,-0.25,0.20,0.27,-2.76,-2.71,-2.73
171.57,-2.51,0.23,-2.49,0.24,-0.24,0.20,0.27,-2.75,-2.72,-2.74
173.29,-2.51,0.23,-2.50,0.24,-0.24,0.20,0.28,-2.75,-2.74,-2.74
175.02,-2.51,0.23,-2.50,0.24,-0.24,0.19,0.29,-2.75,-2.75,-2.74
176.77,-2.51,0.24,-2.51,0.24,-0.24,0.19,0.30,-2.75,-2.75,-2.75
178.54,-2.51,0.24,-2.52,0.24,-0.24,0.19,0.31,-2.75,-2.76,-2.75
180.32,-2.51,0.23,-2.52,0.24,-0.24,0.19,0.31,-2.75,-2.76,-2.74
182.13,-2.51,0.23,-2.53,0.24,-0.24,0.19,0.32,-2.75,-2.77,-2.74
183.95,-2.51,0.24,-2.54,0.24,-0.24,0.19,0.33,-2.75,-2.78,-2.75
185.79,-2.51,0.25,-2.54,0.25,-0.25,0.19,0.34,-2.76,-2.79,-2.76
187.65,-2.51,0.28,-2.55,0.25,-0.25,0.19,0.35,-2.76,-2.80,-2.79
189.52,-2.51,0.30,-2.58,0.24,-0.24,0.20,0.36,-2.75,-2.81,-2.81
191.42,-2.56,0.28,-2.61,0.22,-0.22,0.20,0.37,-2.78,-2.83,-2.84
193.33,-2.69,0.17,-2.64,0.21,-0.21,0.20,0.38,-2.90,-2.85,-2.86
195.27,-2.74,0.13,-2.68,0.20,-0.20,0.20,0.39,-2.94,-2.88,-2.87
197.22,-2.74,0.16,-2.71,0.19,-0.19,0.20,0.40,-2.93,-2.90,-2.90
199.19,-2.74,0.20,-2.74,0.18,-0.18,0.20,0.41,-2.92,-2.92,-2.94
201.18,-2.74,0.21,-2.78,0.17,-0.17,0.20,0.42,-2.91,-2.95,-2.95
203.19,-2.78,0.19,-2.81,0.16,-0.16,0.20,0.43,-2.94,-2.97,-2.97
205.23,-2.90,0.10,-2.85,0.14,-0.14,0.20,0.44,-3.04,-2.99,-3.00
207.28,-2.96,0.04,-2.89,0.12,-0.12,0.21,0.45,-3.08,-3.01,-3.00
209.35,-2.96,0.07,-2.93,0.10,-0.10,0.21,0.46,-3.06,-3.03,-3.03
211.44,-2.96,0.10,-2.96,0.09,-0.09,0.21,0.47,-3.05,-3.05,-3.06
213.56,-2.96,0.11,-2.99,0.08,-0.08,0.21,0.48,-3.04,-3.07,-3.07
215.69,-2.96,0.11,-3.01,0.08,-0.08,0.22,0.49,-3.04,-3.08,-3.07
217.85,-2.96,0.14,-3.03,0.07,-0.07,0.22,0.50,-3.03,-3.10,-3.10
220.03,-3.05,0.06,-3.06,0.05,-0.05,0.22,0.51,-3.10,-3.11,-3.11
222.23,-3.15,-0.01,-3.10,0.03,-0.03,0.23,0.52,-3.18,-3.13,-3.14
224.45,-3.19,-0.05,-3.13,0.01,-0.01,0.23,0.53,-3.20,-3.14,-3.14
226.70,-3.19,-0.05,-3.16,-0.01,0.01,0.24,0.54,-3.18,-3.15,-3.14
228.96,-3.19,-0.03,-3.19,-0.03,0.03,0.24,0.55,-3.16,-3.16,-3.16
231.25,-3.19,-0.03,-3.22,-0.05,0.05,0.25,0.56,-3.14,-3.17,-3.16
233.57,-3.19,-0.02,-3.25,-0.07,0.07,0.25,0.56,-3.12,-3.17,-3.17
235.90,-3.19,-0.01,-3.27,-0.10,0.10,0.26,0.57,-3.09,-3.18,-3.18
238.26,-3.30,-0.11,-3.30,-0.12,0.12,0.26,0.58,-3.18,-3.18,-3.19
240.64,-3.40,-0.21,-3.33,-0.15,0.15,0.27,0.59,-3.25,-3.18,-3.19
243.05,-3.42,-0.24,-3.35,-0.17,0.17,0.28,0.59,-3.25,-3.18,-3.18
245.48,-3.42,-0.24,-3.38,-0.20,0.20,0.29,0.60,-3.22,-3.18,-3.18
247.93,-3.42,-0.25,-3.40,-0.22,0.22,0.30,0.60,-3.20,-3.18,-3.17
250.41,-3.42,-0.24,-3.42,-0.25,0.25,0.30,0.61,-3.17,-3.17,-3.18
252.92,-3.42,-0.25,-3.45,-0.29,0.29,0.31,0.61,-3.13,-3.17,-3.17
255.45,-3.42,-0.28,-3.49,-0.33,0.33,0.33,0.62,-3.09,-3.16,-3.14
258.00,-3.42,-0.28,-3.52,-0.37,0.37,0.34,0.62,-3.05,-3.15,-3.14
260.58,-3.56,-0.42,-3.56,-0.42,0.42,0.35,0.62,-3.14,-3.14,-3.14
263.19,-3.64,-0.51,-3.59,-0.46,0.46,0.36,0.63,-3.18,-3.13,-3.13
265.82,-3.65,-0.52,-3.62,-0.50,0.50,0.38,0.63,-3.15,-3.12,-3.13
268.48,-3.65,-0.55,-3.64,-0.54,0.54,0.39,0.63,-3.11,-3.10,-3.10
271.16,-3.65,-0.56,-3.67,-0.59,0.59,0.41,0.63,-3.06,-3.09,-3.09
273.87,-3.65,-0.57,-3.71,-0.64,0.64,0.43,0.63,-3.01,-3.07,-3.08
276.61,-3.78,-0.74,-3.75,-0.70,0.70,0.44,0.63,-3.08,-3.05,-3.04
279.38,-3.86,-0.83,-3.79,-0.76,0.76,0.47,0.64,-3.10,-3.03,-3.03
282.17,-3.87,-0.86,-3.82,-0.82,0.82,0.49,0.64,-3.05,-3.00,-3.01
284.99,-3.87,-0.89,-3.86,-0.88,0.88,0.51,0.64,-2.99,-2.98,-2.98
287.84,-3.87,-0.91,-3.89,-0.94,0.94,0.54,0.64,-2.93,-2.95,-2.96
290.72,-3.87,-0.95,-3.91,-0.98,0.98,0.57,0.64,-2.89,-2.93,-2.92
293.63,-3.87,-0.97,-3.93,-1.03,1.03,0.60,0.64,-2.84,-2.90,-2.90
296.57,-3.87,-1.00,-3.96,-1.09,1.09,0.63,0.64,-2.78,-2.87,-2.87
299.53,-4.05,-1.20,-3.99,-1.14,1.14,0.66,0.64,-2.91,-2.85,-2.85
302.53,-4.10,-1.27,-4.02,-1.19,1.19,0.70,0.64,-2.91,-2.83,-2.83
305.55,-4.10,-1.30,-4.05,-1.24,1.24,0.75,0.65,-2.86,-2.81,-2.80
308.61,-4.10,-1.32,-4.08,-1.29,1.29,0.79,0.65,-2.81,-2.79,-2.78
311.69,-4.10,-1.33,-4.11,-1.33,1.33,0.84,0.65,-2.77,-2.78,-2.77
314.81,-4.10,-1.36,-4.14,-1.37,1.37,0.89,0.65,-2.73,-2.77,-2.74
317.96,-4.10,-1.36,-4.17,-1.41,1.41,0.95,0.66,-2.69,-2.76,-2.74
321.14,-4.11,-1.36,-4.20,-1.46,1.46,1.02,0.66,-2.65,-2.75,-2.75
324.35,-4.28,-1.54,-4.23,-1.49,1.49,1.09,0.67,-2.79,-2.74,-2.74
327.59,-4.33,-1.60,-4.26,-1.53,1.53,1.16,0.67,-2.80,-2.73,-2.73
330.87,-4.33,-1.60,-4.28,-1.56,1.56,1.24,0.68,-2.77,-2.72,-2.73
334.18,-4.33,-1.61,-4.29,-1.59,1.59,1.33,0.68,-2.74,-2.71,-2.72
337.52,-4.33,-1.62,-4.32,-1.62,1.62,1.42,0.69,-2.71,-2.70,-2.71
340.90,-4.33,-1.64,-4.35,-1.67,1.67,1.52,0.70,-2.66,-2.69,-2.69
344.30,-4.33,-1.65,-4.40,-1.73,1.73,1.62,0.70,-2.60,-2.67,-2.68
347.75,-4.39,-1.73,-4.43,-1.78,1.78,1.72,0.71,-2.61,-2.65,-2.66
351.23,-4.52,-1.88,-4.46,-1.83,1.83,1.83,0.72,-2.69,-2.64,-2.64
354.74,-4.46,-1.84,-4.50,-1.88,1.88,1.94,0.73,-2.58,-2.61,-2.62
358.28,-4.46,-1.87,-4.53,-1.94,1.94,2.05,0.74,-2.52,-2.59,-2.59
361.87,-4.53,-1.96,-4.56,-1.99,1.99,2.16,0.75,-2.54,-2.57,-2.57
365.49,-4.56,-2.02,-4.58,-2.04,2.04,2.25,0.76,-2.52,-2.55,-2.54
369.14,-4.58,-2.05,-4.61,-2.09,2.09,2.34,0.77,-2.49,-2.52,-2.53
372.83,-4.73,-2.23,-4.63,-2.13,2.13,2.40,0.78,-2.60,-2.50,-2.50
376.56,-4.79,-2.31,-4.66,-2.17,2.17,2.45,0.80,-2.62,-2.48,-2.48
380.33,-4.69,-2.24,-4.67,-2.21,2.21,2.48,0.81,-2.48,-2.47,-2.45
384.13,-4.58,-2.15,-4.68,-2.23,2.23,2.48,0.82,-2.35,-2.45,-2.43
387.97,-4.71,-2.28,-4.67,-2.24,2.24,2.46,0.84,-2.47,-2.43,-2.43
391.85,-4.77,-2.35,-4.66,-2.24,2.24,2.41,0.85,-2.53,-2.42,-2.42
395.77,-4.62,-2.21,-4.65,-2.25,2.25,2.35,0.87,-2.37,-2.41,-2.41
399.73,-4.56,-2.16,-4.64,-2.24,2.24,2.26,0.88,-2.32,-2.40,-2.40
403.72,-4.56,-2.17,-4.61,-2.22,2.22,2.17,0.90,-2.34,-2.39,-2.39
407.76,-4.56,-2.18,-4.57,-2.19,2.19,2.06,0.91,-2.37,-2.38,-2.38
411.84,-4.56,-2.18,-4.53,-2.15,2.15,1.95,0.93,-2.41,-2.38,-2.38
415.96,-4.56,-2.19,-4.48,-2.10,2.10,1.84,0.94,-2.46,-2.38,-2.37
420.12,-4.38,-2.01,-4.44,-2.06,2.06,1.72,0.95,-2.32,-2.37,-2.37
424.32,-4.33,-1.96,-4.38,-2.01,2.01,1.61,0.97,-2.32,-2.37,-2.37
428.56,-4.33,-1.96,-4.32,-1.95,1.95,1.50,0.98,-2.38,-2.37,-2.37
432.85,-4.33,-1.96,-4.24,-1.88,1.88,1.39,0.99,-2.45,-2.36,-2.37
437.18,-4.22,-1.86,-4.17,-1.81,1.81,1.30,1.01,-2.41,-2.36,-2.36
441.55,-4.13,-1.78,-4.09,-1.74,1.74,1.20,1.02,-2.39,-2.36,-2.35
445.96,-3.94,-1.59,-4.01,-1.66,1.66,1.11,1.03,-2.28,-2.35,-2.35
450.42,-3.87,-1.52,-3.92,-1.58,1.58,1.03,1.04,-2.29,-2.34,-2.35
454.93,-3.87,-1.53,-3.82,-1.49,1.49,0.95,1.05,-2.38,-2.33,-2.34
459.48,-3.83,-1.50,-3.73,-1.41,1.41,0.88,1.05,-2.42,-2.32,-2.33
464.07,-3.58,-1.27,-3.64,-1.33,1.33,0.81,1.06,-2.25,-2.31,-2.31
468.71,-3.45,-1.16,-3.55,-1.26,1.26,0.75,1.06,-2.19,-2.29,-2.29
473.40,-3.42,-1.14,-3.46,-1.19,1.19,0.69,1.06,-2.23,-2.27,-2.28
478.13,-3.42,-1.17,-3.36,-1.12,1.12,0.64,1.06,-2.30,-2.25,-2.25
482.91,-3.24,-1.01,-3.27,-1.05,1.05,0.59,1.06,-2.19,-2.23,-2.23
487.74,-3.19,-0.99,-3.19,-0.99,0.99,0.54,1.05,-2.20,-2.20,-2.20
492.62,-3.11,-0.94,-3.12,-0.94,0.94,0.49,1.04,-2.17,-2.18,-2.17
497.55,-2.99,-0.84,-3.05,-0.89,0.89,0.45,1.03,-2.10,-2.15,-2.15
