frequency,raw,error,smoothed,error_smoothed,equalization,parametric_eq,fixed_band_eq,equalized_raw,equalized_smoothed,target
20.00,0.88,-3.70,0.88,-3.72,3.72,3.66,0.72,4.60,4.60,4.58
20.20,0.92,-3.66,0.92,-3.67,3.67,3.62,0.74,4.59,4.59,4.58
20.40,0.96,-3.62,0.96,-3.63,3.63,3.58,0.76,4.58,4.59,4.58
20.61,1.00,-3.58,1.00,-3.58,3.58,3.53,0.79,4.57,4.58,4.58
20.81,1.05,-3.53,1.04,-3.53,3.53,3.49,0.81,4.57,4.57,4.58
21.02,1.08,-3.50,1.08,-3.47,3.47,3.45,0.83,4.55,4.55,4.58
21.23,1.13,-3.43,1.12,-3.42,3.42,3.40,0.86,4.55,4.54,4.56
21.44,1.17,-3.38,1.16,-3.37,3.37,3.36,0.89,4.54,4.53,4.55
21.66,1.20,-3.33,1.20,-3.31,3.31,3.32,0.91,4.51,4.51,4.53
21.87,1.24,-3.27,1.24,-3.26,3.26,3.27,0.94,4.50,4.50,4.51
22.09,1.28,-3.22,1.28,-3.20,3.20,3.23,0.97,4.48,4.48,4.49
22.31,1.32,-3.14,1.32,-3.14,3.14,3.19,1.00,4.46,4.47,4.46
22.54,1.36,-3.09,1.36,-3.08,3.08,3.14,1.03,4.44,4.44,4.44
22.76,1.40,-3.02,1.40,-3.02,3.02,3.10,1.06,4.42,4.42,4.42
22.99,1.44,-2.95,1.44,-2.95,2.95,3.06,1.09,4.39,4.40,4.39
23.22,1.48,-2.88,1.48,-2.89,2.89,3.01,1.12,4.37,4.38,4.36
23.45,1.53,-2.81,1.53,-2.83,2.83,2.97,1.15,4.36,4.35,4.34
23.69,1.57,-2.76,1.57,-2.77,2.77,2.93,1.18,4.33,4.33,4.33
23.92,1.62,-2.69,1.61,-2.70,2.70,2.89,1.22,4.32,4.31,4.31
24.16,1.66,-2.64,1.65,-2.64,2.64,2.85,1.25,4.30,4.29,4.30
24.40,1.69,-2.59,1.69,-2.58,2.58,2.80,1.29,4.27,4.27,4.28
24.65,1.73,-2.53,1.74,-2.52,2.52,2.76,1.32,4.25,4.25,4.26
24.89,1.78,-2.46,1.78,-2.46,2.46,2.72,1.36,4.24,4.24,4.24
25.14,1.82,-2.40,1.82,-2.40,2.40,2.68,1.39,4.22,4.22,4.22
25.39,1.86,-2.34,1.86,-2.34,2.34,2.64,1.43,4.20,4.20,4.20
25.65,1.90,-2.29,1.90,-2.29,2.29,2.60,1.46,4.18,4.19,4.19
25.91,1.94,-2.22,1.94,-2.23,2.23,2.56,1.50,4.17,4.17,4.16
26.16,1.98,-2.17,1.98,-2.17,2.17,2.52,1.53,4.15,4.15,4.15
26.43,2.02,-2.12,2.02,-2.12,2.12,2.48,1.57,4.14,4.14,4.14
26.69,2.06,-2.06,2.06,-2.06,2.06,2.44,1.60,4.12,4.12,4.12
26.96,2.10,-2.01,2.09,-2.01,2.01,2.41,1.63,4.11,4.11,4.11
27.23,2.14,-1.96,2.13,-1.96,1.96,2.37,1.67,4.10,4.09,4.09
27.50,2.17,-1.91,2.17,-1.91,1.91,2.33,1.70,4.08,4.08,4.08
27.77,2.21,-1.85,2.20,-1.86,1.86,2.29,1.73,4.07,4.06,4.06
28.05,2.24,-1.81,2.23,-1.81,1.81,2.26,1.76,4.05,4.05,4.05
28.33,2.27,-1.76,2.27,-1.77,1.77,2.22,1.79,4.03,4.03,4.03
28.62,2.30,-1.72,2.30,-1.72,1.72,2.18,1.81,4.02,4.02,4.02
28.90,2.33,-1.68,2.33,-1.67,1.67,2.15,1.84,4.00,4.01,4.00
29.19,2.35,-1.63,2.36,-1.63,1.63,2.11,1.86,3.98,3.99,3.98
29.48,2.39,-1.59,2.39,-1.58,1.58,2.08,1.88,3.97,3.98,3.98
29.78,2.42,-1.55,2.42,-1.54,1.54,2.04,1.90,3.96,3.97,3.97
30.08,2.45,-1.51,2.45,-1.50,1.50,2.01,1.91,3.95,3.95,3.96
30.38,2.48,-1.46,2.48,-1.46,1.46,1.97,1.92,3.94,3.93,3.94
30.68,2.51,-1.41,2.50,-1.42,1.42,1.94,1.93,3.93,3.92,3.92
30.99,2.54,-1.36,2.53,-1.38,1.38,1.90,1.94,3.92,3.90,3.90
31.30,2.56,-1.33,2.55,-1.34,1.34,1.87,1.94,3.90,3.89,3.89
31.61,2.58,-1.30,2.57,-1.30,1.30,1.84,1.94,3.88,3.87,3.88
31.93,2.59,-1.27,2.59,-1.26,1.26,1.81,1.94,3.85,3.85,3.85
32.24,2.60,-1.22,2.60,-1.23,1.23,1.77,1.94,3.83,3.83,3.82
32.57,2.62,-1.19,2.62,-1.19,1.19,1.74,1.93,3.81,3.81,3.81
32.89,2.63,-1.17,2.63,-1.16,1.16,1.71,1.92,3.79,3.79,3.79
33.22,2.65,-1.11,2.64,-1.12,1.12,1.68,1.91,3.77,3.77,3.76
33.55,2.65,-1.10,2.66,-1.09,1.09,1.65,1.90,3.74,3.75,3.75
33.89,2.66,-1.07,2.67,-1.06,1.06,1.62,1.88,3.72,3.72,3.73
34.23,2.67,-1.03,2.68,-1.03,1.03,1.59,1.87,3.70,3.70,3.70
34.57,2.69,-0.99,2.69,-1.00,1.00,1.56,1.85,3.68,3.68,3.68
34.92,2.70,-0.96,2.70,-0.96,0.96,1.53,1.83,3.66,3.66,3.66
35.27,2.71,-0.93,2.71,-0.93,0.93,1.50,1.81,3.64,3.64,3.64
35.62,2.72,-0.90,2.72,-0.90,0.90,1.47,1.78,3.62,3.62,3.62
35.97,2.73,-0.86,2.73,-0.87,0.87,1.45,1.76,3.59,3.60,3.59
36.33,2.74,-0.84,2.74,-0.83,0.83,1.42,1.74,3.57,3.57,3.58
36.70,2.75,-0.81,2.75,-0.80,0.80,1.39,1.71,3.55,3.55,3.55
37.06,2.76,-0.77,2.76,-0.77,0.77,1.36,1.68,3.53,3.53,3.53
37.43,2.77,-0.75,2.77,-0.74,0.74,1.34,1.66,3.51,3.51,3.51
37.81,2.78,-0.71,2.78,-0.71,0.71,1.31,1.63,3.49,3.49,3.49
38.19,2.79,-0.68,2.78,-0.68,0.68,1.29,1.61,3.47,3.47,3.47
38.57,2.79,-0.66,2.79,-0.66,0.66,1.26,1.58,3.44,3.45,3.45
38.95,2.80,-0.63,2.79,-0.63,0.63,1.24,1.56,3.43,3.42,3.42
39.34,2.80,-0.60,2.80,-0.61,0.61,1.21,1.53,3.41,3.40,3.40
39.74,2.80,-0.57,2.80,-0.59,0.59,1.19,1.51,3.38,3.38,3.37
40.14,2.80,-0.57,2.80,-0.56,0.56,1.16,1.48,3.36,3.36,3.37
40.54,2.79,-0.55,2.80,-0.55,0.55,1.14,1.46,3.33,3.34,3.34
40.94,2.80,-0.52,2.79,-0.53,0.53,1.12,1.44,3.33,3.32,3.32
41.35,2.79,-0.51,2.79,-0.51,0.51,1.09,1.42,3.30,3.30,3.30
41.76,2.79,-0.50,2.78,-0.50,0.50,1.07,1.40,3.29,3.28,3.29
42.18,2.78,-0.49,2.77,-0.49,0.49,1.05,1.38,3.27,3.26,3.27
42.60,2.76,-0.49,2.76,-0.48,0.48,1.03,1.36,3.24,3.24,3.24
43.03,2.75,-0.49,2.75,-0.47,0.47,1.00,1.34,3.22,3.22,3.24
43.46,2.74,-0.47,2.74,-0.47,0.47,0.98,1.33,3.20,3.20,3.21
43.90,2.73,-0.45,2.72,-0.46,0.46,0.96,1.31,3.19,3.18,3.18
44.33,2.71,-0.45,2.70,-0.46,0.46,0.94,1.30,3.17,3.16,3.16
44.78,2.68,-0.46,2.68,-0.46,0.46,0.92,1.29,3.14,3.14,3.14
45.23,2.66,-0.45,2.66,-0.46,0.46,0.90,1.27,3.12,3.12,3.11
45.68,2.64,-0.45,2.64,-0.46,0.46,0.88,1.26,3.10,3.10,3.09
46.13,2.62,-0.45,2.61,-0.46,0.46,0.86,1.25,3.08,3.08,3.07
46.60,2.59,-0.47,2.59,-0.47,0.47,0.85,1.24,3.06,3.05,3.06
47.06,2.56,-0.48,2.56,-0.47,0.47,0.83,1.24,3.03,3.03,3.04
47.53,2.53,-0.49,2.53,-0.48,0.48,0.81,1.23,3.01,3.01,3.02
48.01,2.50,-0.51,2.50,-0.49,0.49,0.79,1.22,2.98,2.98,3.00
48.49,2.47,-0.50,2.47,-0.50,0.50,0.78,1.22,2.96,2.96,2.97
48.97,2.43,-0.51,2.43,-0.51,0.51,0.76,1.21,2.93,2.94,2.94
49.46,2.40,-0.51,2.40,-0.52,0.52,0.75,1.21,2.91,2.91,2.90
49.96,2.36,-0.51,2.36,-0.53,0.53,0.73,1.20,2.89,2.89,2.87
50.46,2.33,-0.54,2.33,-0.54,0.54,0.72,1.20,2.87,2.86,2.87
50.96,2.29,-0.55,2.29,-0.55,0.55,0.70,1.20,2.84,2.84,2.84
51.47,2.25,-0.56,2.25,-0.57,0.57,0.69,1.19,2.81,2.81,2.81
51.99,2.21,-0.57,2.21,-0.58,0.58,0.68,1.19,2.79,2.78,2.78
52.51,2.16,-0.60,2.16,-0.59,0.59,0.67,1.19,2.75,2.76,2.76
53.03,2.12,-0.62,2.12,-0.61,0.61,0.66,1.19,2.73,2.73,2.74
53.56,2.08,-0.63,2.08,-0.63,0.63,0.65,1.18,2.71,2.70,2.71
54.10,2.04,-0.64,2.03,-0.65,0.65,0.65,1.18,2.69,2.68,2.68
54.64,1.98,-0.67,1.99,-0.67,0.67,0.64,1.18,2.64,2.65,2.65
55.18,1.94,-0.68,1.94,-0.69,0.69,0.64,1.17,2.63,2.63,2.62
55.74,1.89,-0.70,1.89,-0.71,0.71,0.64,1.16,2.60,2.60,2.59
56.29,1.84,-0.73,1.84,-0.73,0.73,0.64,1.16,2.57,2.57,2.57
56.86,1.79,-0.75,1.79,-0.75,0.75,0.64,1.15,2.54,2.54,2.54
57.42,1.74,-0.77,1.74,-0.78,0.78,0.64,1.14,2.51,2.51,2.51
58.00,1.69,-0.80,1.69,-0.80,0.80,0.65,1.13,2.49,2.48,2.48
58.58,1.64,-0.81,1.63,-0.82,0.82,0.66,1.11,2.46,2.45,2.45
59.16,1.59,-0.84,1.58,-0.84,0.84,0.68,1.10,2.43,2.42,2.43
59.76,1.53,-0.87,1.53,-0.87,0.87,0.70,1.08,2.40,2.39,2.40
60.35,1.48,-0.89,1.47,-0.89,0.89,0.72,1.06,2.37,2.36,2.37
60.96,1.41,-0.94,1.42,-0.92,0.92,0.75,1.04,2.32,2.33,2.35
61.57,1.36,-0.94,1.36,-0.94,0.94,0.79,1.02,2.30,2.30,2.30
62.18,1.31,-0.95,1.31,-0.96,0.96,0.83,0.99,2.27,2.27,2.26
62.80,1.26,-0.98,1.25,-0.99,0.99,0.88,0.96,2.24,2.24,2.23
63.43,1.20,-1.00,1.20,-1.01,1.01,0.94,0.93,2.21,2.21,2.19
64.07,1.15,-1.01,1.15,-1.03,1.03,1.00,0.90,2.18,2.17,2.16
64.71,1.10,-1.04,1.10,-1.05,1.05,1.07,0.86,2.14,2.14,2.14
65.35,1.05,-1.06,1.05,-1.06,1.06,1.14,0.82,2.11,2.11,2.11
66.01,1.00,-1.09,1.01,-1.08,1.08,1.21,0.78,2.07,2.08,2.08
66.67,0.97,-1.08,0.97,-1.08,1.08,1.28,0.73,2.05,2.05,2.05
67.33,0.93,-1.10,0.93,-1.09,1.09,1.33,0.69,2.02,2.02,2.02
68.01,0.89,-1.10,0.90,-1.09,1.09,1.37,0.64,1.98,1.99,1.99
68.69,0.87,-1.09,0.87,-1.09,1.09,1.39,0.59,1.96,1.96,1.96
69.37,0.84,-1.08,0.85,-1.08,1.08,1.38,0.53,1.92,1.93,1.92
70.07,0.83,-1.06,0.83,-1.06,1.06,1.34,0.48,1.89,1.89,1.89
70.77,0.82,-1.04,0.82,-1.04,1.04,1.27,0.42,1.86,1.86,1.86
71.48,0.81,-1.01,0.81,-1.01,1.01,1.18,0.36,1.82,1.82,1.82
72.19,0.80,-0.99,0.81,-0.98,0.98,1.07,0.30,1.77,1.78,1.79
72.91,0.81,-0.94,0.81,-0.93,0.93,0.96,0.24,1.74,1.74,1.75
73.64,0.82,-0.88,0.82,-0.89,0.89,0.84,0.18,1.71,1.70,1.70
74.38,0.82,-0.85,0.83,-0.83,0.83,0.72,0.11,1.65,1.66,1.67
75.12,0.85,-0.76,0.84,-0.78,0.78,0.61,0.05,1.62,1.62,1.61
75.87,0.87,-0.71,0.86,-0.71,0.71,0.50,-0.02,1.58,1.58,1.57
76.63,0.89,-0.65,0.89,-0.64,0.64,0.40,-0.09,1.53,1.53,1.54
77.40,0.91,-0.58,0.92,-0.57,0.57,0.30,-0.16,1.48,1.49,1.49
78.17,0.94,-0.49,0.95,-0.49,0.49,0.22,-0.23,1.43,1.44,1.43
78.95,0.98,-0.42,0.98,-0.41,0.41,0.14,-0.30,1.39,1.39,1.40
79.74,1.01,-0.34,1.01,-0.33,0.33,0.06,-0.37,1.33,1.34,1.34
80.54,1.05,-0.24,1.05,-0.24,0.24,-0.01,-0.45,1.29,1.29,1.29
81.35,1.09,-0.15,1.09,-0.15,0.15,-0.08,-0.52,1.24,1.24,1.24
82.16,1.13,-0.05,1.12,-0.06,0.06,-0.14,-0.60,1.19,1.18,1.18
82.98,1.17,0.03,1.16,0.03,-0.03,-0.20,-0.68,1.14,1.13,1.14
83.81,1.21,0.14,1.20,0.12,-0.12,-0.25,-0.75,1.09,1.08,1.07
84.65,1.24,0.23,1.24,0.22,-0.22,-0.31,-0.83,1.02,1.02,1.01
85.50,1.28,0.31,1.27,0.31,-0.31,-0.36,-0.91,0.97,0.96,0.96
86.35,1.31,0.40,1.31,0.40,-0.40,-0.41,-0.99,0.90,0.91,0.91
87.22,1.34,0.49,1.34,0.50,-0.50,-0.46,-1.07,0.84,0.85,0.85
88.09,1.38,0.59,1.38,0.59,-0.59,-0.50,-1.16,0.79,0.79,0.79
88.97,1.41,0.67,1.41,0.68,-0.68,-0.55,-1.24,0.73,0.73,0.73
89.86,1.44,0.77,1.44,0.77,-0.77,-0.60,-1.32,0.67,0.67,0.67
90.76,1.47,0.87,1.47,0.86,-0.86,-0.64,-1.41,0.61,0.61,0.60
91.66,1.50,0.95,1.49,0.95,-0.95,-0.69,-1.50,0.55,0.55,0.55
92.58,1.52,1.04,1.52,1.04,-1.04,-0.73,-1.58,0.48,0.49,0.47
93.51,1.54,1.11,1.54,1.12,-1.12,-0.78,-1.67,0.42,0.42,0.43
94.44,1.57,1.20,1.57,1.21,-1.21,-0.83,-1.76,0.36,0.36,0.36
95.39,1.59,1.29,1.59,1.30,-1.30,-0.87,-1.85,0.29,0.29,0.30
96.34,1.61,1.39,1.61,1.38,-1.38,-0.92,-1.94,0.23,0.22,0.22
97.30,1.62,1.46,1.62,1.47,-1.47,-0.96,-2.03,0.15,0.16,0.16
98.28,1.64,1.55,1.64,1.55,-1.55,-1.01,-2.12,0.09,0.09,0.09
99.26,1.65,1.63,1.65,1.63,-1.63,-1.06,-2.21,0.02,0.02,0.01
100.25,1.66,1.71,1.66,1.71,-1.71,-1.11,-2.30,-0.05,-0.05,-0.05
101.25,1.67,1.79,1.66,1.78,-1.78,-1.15,-2.39,-0.12,-0.12,-0.12
102.27,1.67,1.87,1.67,1.86,-1.86,-1.20,-2.48,-0.19,-0.20,-0.20
103.29,1.67,1.94,1.67,1.93,-1.93,-1.25,-2.57,-0.27,-0.27,-0.28
104.32,1.67,2.01,1.66,2.01,-2.01,-1.31,-2.66,-0.34,-0.34,-0.34
105.37,1.67,2.08,1.66,2.08,-2.08,-1.36,-2.75,-0.41,-0.42,-0.41
106.42,1.65,2.14,1.65,2.14,-2.14,-1.41,-2.84,-0.50,-0.49,-0.49
107.48,1.64,2.21,1.64,2.21,-2.21,-1.46,-2.92,-0.57,-0.57,-0.57
108.56,1.63,2.27,1.63,2.28,-2.28,-1.52,-3.00,-0.65,-0.64,-0.64
109.64,1.62,2.34,1.62,2.34,-2.34,-1.58,-3.08,-0.72,-0.72,-0.72
110.74,1.60,2.39,1.60,2.40,-2.40,-1.63,-3.16,-0.80,-0.80,-0.79
111.85,1.59,2.45,1.58,2.46,-2.46,-1.69,-3.23,-0.87,-0.88,-0.87
112.97,1.56,2.52,1.57,2.52,-2.52,-1.75,-3.30,-0.96,-0.95,-0.96
114.10,1.54,2.57,1.55,2.58,-2.58,-1.81,-3.37,-1.04,-1.03,-1.03
115.24,1.53,2.63,1.52,2.63,-2.63,-1.87,-3.43,-1.10,-1.11,-1.11
116.39,1.51,2.70,1.50,2.69,-2.69,-1.94,-3.48,-1.18,-1.18,-1.19
117.55,1.48,2.75,1.48,2.74,-2.74,-2.00,-3.53,-1.26,-1.26,-1.27
118.73,1.45,2.79,1.45,2.79,-2.79,-2.07,-3.58,-1.34,-1.33,-1.34
119.92,1.43,2.84,1.43,2.84,-2.84,-2.13,-3.61,-1.41,-1.41,-1.41
121.12,1.40,2.88,1.40,2.88,-2.88,-2.20,-3.64,-1.48,-1.48,-1.48
122.33,1.38,2.93,1.37,2.93,-2.93,-2.27,-3.67,-1.55,-1.55,-1.55
123.55,1.35,2.97,1.34,2.97,-2.97,-2.34,-3.68,-1.62,-1.62,-1.62
124.79,1.32,3.01,1.31,3.01,-3.01,-2.41,-3.69,-1.69,-1.69,-1.69
126.03,1.29,3.04,1.28,3.04,-3.04,-2.48,-3.69,-1.75,-1.76,-1.75
127.29,1.25,3.07,1.25,3.08,-3.08,-2.55,-3.69,-1.83,-1.83,-1.82
128.57,1.22,3.12,1.22,3.11,-3.11,-2.62,-3.68,-1.89,-1.89,-1.90
129.85,1.19,3.15,1.19,3.14,-3.14,-2.69,-3.66,-1.95,-1.96,-1.96
131.15,1.15,3.17,1.16,3.17,-3.17,-2.76,-3.63,-2.03,-2.02,-2.02
132.46,1.13,3.21,1.13,3.21,-3.21,-2.84,-3.60,-2.08,-2.08,-2.09
133.79,1.10,3.23,1.10,3.24,-3.24,-2.91,-3.56,-2.14,-2.14,-2.13
135.12,1.07,3.27,1.08,3.27,-3.27,-2.98,-3.52,-2.20,-2.19,-2.20
136.48,1.04,3.28,1.05,3.30,-3.30,-3.05,-3.47,-2.26,-2.24,-2.24
137.84,1.02,3.31,1.03,3.33,-3.33,-3.12,-3.42,-2.31,-2.29,-2.29
139.22,1.01,3.36,1.01,3.35,-3.35,-3.19,-3.36,-2.35,-2.34,-2.35
140.61,0.99,3.39,1.00,3.38,-3.38,-3.26,-3.30,-2.39,-2.39,-2.40
142.02,0.98,3.40,0.98,3.41,-3.41,-3.32,-3.23,-2.43,-2.43,-2.42
143.44,0.97,3.43,0.96,3.43,-3.43,-3.38,-3.16,-2.46,-2.47,-2.46
144.87,0.95,3.46,0.95,3.46,-3.46,-3.45,-3.09,-2.51,-2.51,-2.51
146.32,0.94,3.49,0.93,3.48,-3.48,-3.50,-3.02,-2.54,-2.55,-2.55
147.78,0.92,3.50,0.91,3.50,-3.50,-3.56,-2.94,-2.58,-2.59,-2.58
149.26,0.91,3.52,0.90,3.52,-3.52,-3.61,-2.86,-2.61,-2.62,-2.62
150.75,0.88,3.54,0.88,3.54,-3.54,-3.65,-2.79,-2.66,-2.66,-2.66
152.26,0.86,3.55,0.85,3.55,-3.55,-3.70,-2.71,-2.69,-2.69,-2.70
153.78,0.83,3.56,0.83,3.56,-3.56,-3.73,-2.63,-2.73,-2.73,-2.73
155.32,0.81,3.57,0.80,3.57,-3.57,-3.77,-2.55,-2.76,-2.76,-2.76
156.88,0.77,3.56,0.77,3.57,-3.57,-3.79,-2.47,-2.80,-2.80,-2.79
158.44,0.74,3.57,0.74,3.57,-3.57,-3.81,-2.39,-2.83,-2.83,-2.83
160.03,0.71,3.58,0.70,3.57,-3.57,-3.83,-2.31,-2.86,-2.87,-2.87
161.63,0.66,3.57,0.67,3.57,-3.57,-3.84,-2.23,-2.91,-2.90,-2.91
163.24,0.63,3.57,0.63,3.56,-3.56,-3.84,-2.15,-2.93,-2.94,-2.94
164.88,0.59,3.55,0.58,3.56,-3.56,-3.84,-2.08,-2.97,-2.97,-2.97
166.53,0.54,3.54,0.54,3.55,-3.55,-3.83,-2.00,-3.01,-3.01,-3.00
168.19,0.49,3.53,0.49,3.53,-3.53,-3.81,-1.93,-3.04,-3.04,-3.05
169.87,0.44,3.52,0.44,3.52,-3.52,-3.79,-1.85,-3.08,-3.08,-3.08
171.57,0.39,3.50,0.39,3.51,-3.51,-3.76,-1.78,-3.12,-3.12,-3.11
173.29,0.33,3.47,0.33,3.49,-3.49,-3.72,-1.71,-3.16,-3.16,-3.14
175.02,0.28,3.46,0.27,3.47,-3.47,-3.68,-1.64,-3.19,-3.20,-3.19
176.77,0.21,3.44,0.21,3.45,-3.45,-3.64,-1.57,-3.24,-3.24,-3.24
178.54,0.15,3.42,0.15,3.42,-3.42,-3.58,-1.50,-3.27,-3.27,-3.28
180.32,0.08,3.39,0.08,3.39,-3.39,-3.52,-1.44,-3.31,-3.31,-3.31
182.13,0.01,3.36,0.01,3.36,-3.36,-3.46,-1.37,-3.35,-3.35,-3.35
183.95,-0.07,3.33,-0.07,3.33,-3.33,-3.39,-1.31,-3.40,-3.39,-3.40
185.79,-0.14,3.29,-0.15,3.29,-3.29,-3.32,-1.24,-3.43,-3.43,-3.43
187.65,-0.22,3.26,-0.23,3.24,-3.24,-3.25,-1.18,-3.46,-3.47,-3.48
189.52,-0.32,3.19,-0.31,3.20,-3.20,-3.16,-1.12,-3.52,-3.51,-3.51
191.42,-0.40,3.15,-0.40,3.14,-3.14,-3.08,-1.06,-3.54,-3.54,-3.55
193.33,-0.49,3.08,-0.49,3.09,-3.09,-2.99,-1.01,-3.58,-3.58,-3.57
195.27,-0.58,3.02,-0.59,3.02,-3.02,-2.91,-0.95,-3.61,-3.61,-3.60
197.22,-0.69,2.94,-0.69,2.96,-2.96,-2.81,-0.89,-3.65,-3.64,-3.64
199.19,-0.78,2.91,-0.79,2.89,-2.89,-2.72,-0.84,-3.67,-3.67,-3.69
201.18,-0.89,2.82,-0.89,2.81,-2.81,-2.62,-0.79,-3.70,-3.70,-3.71
203.19,-1.00,2.73,-1.00,2.73,-2.73,-2.52,-0.73,-3.73,-3.73,-3.73
205.23,-1.11,2.64,-1.11,2.64,-2.64,-2.42,-0.68,-3.76,-3.75,-3.76
207.28,-1.22,2.54,-1.22,2.56,-2.56,-2.32,-0.63,-3.78,-3.78,-3.76
209.35,-1.34,2.46,-1.34,2.46,-2.46,-2.22,-0.59,-3.80,-3.80,-3.80
211.44,-1.46,2.37,-1.46,2.36,-2.36,-2.12,-0.54,-3.83,-3.82,-3.83
213.56,-1.58,2.26,-1.58,2.26,-2.26,-2.01,-0.49,-3.84,-3.84,-3.85
215.69,-1.71,2.14,-1.71,2.15,-2.15,-1.90,-0.45,-3.86,-3.86,-3.85
217.85,-1.84,2.03,-1.84,2.04,-2.04,-1.80,-0.40,-3.88,-3.87,-3.87
220.03,-1.96,1.93,-1.97,1.92,-1.92,-1.69,-0.36,-3.88,-3.89,-3.89
222.23,-2.09,1.82,-2.10,1.80,-1.80,-1.58,-0.32,-3.89,-3.90,-3.91
224.45,-2.23,1.67,-2.24,1.67,-1.67,-1.47,-0.28,-3.90,-3.90,-3.90
226.70,-2.37,1.54,-2.37,1.54,-1.54,-1.36,-0.24,-3.91,-3.91,-3.91
228.96,-2.51,1.41,-2.51,1.40,-1.40,-1.24,-0.20,-3.91,-3.91,-3.92
231.25,-2.66,1.25,-2.66,1.26,-1.26,-1.13,-0.17,-3.92,-3.91,-3.91
233.57,-2.80,1.10,-2.80,1.11,-1.11,-1.01,-0.13,-3.91,-3.91,-3.90
235.90,-2.95,0.95,-2.95,0.96,-0.96,-0.89,-0.10,-3.91,-3.90,-3.90
238.26,-3.09,0.81,-3.10,0.80,-0.80,-0.78,-0.07,-3.89,-3.90,-3.91
240.64,-3.25,0.63,-3.25,0.64,-0.64,-0.65,-0.04,-3.89,-3.89,-3.89
243.05,-3.39,0.49,-3.40,0.48,-0.48,-0.53,-0.01,-3.87,-3.88,-3.88
245.48,-3.55,0.31,-3.55,0.31,-0.31,-0.41,0.02,-3.86,-3.86,-3.86
247.93,-3.70,0.15,-3.71,0.14,-0.14,-0.28,0.05,-3.84,-3.85,-3.85
250.41,-3.85,-0.02,-3.86,-0.03,0.03,-0.15,0.07,-3.82,-3.83,-3.84
252.92,-4.01,-0.21,-4.02,-0.21,0.21,-0.02,0.10,-3.80,-3.81,-3.81
255.45,-4.17,-0.39,-4.18,-0.39,0.39,0.12,0.12,-3.79,-3.79,-3.78
258.00,-4.32,-0.56,-4.33,-0.56,0.56,0.25,0.14,-3.76,-3.77,-3.76
260.58,-4.47,-0.72,-4.49,-0.74,0.74,0.39,0.16,-3.73,-3.75,-3.75
263.19,-4.63,-0.90,-4.64,-0.92,0.92,0.53,0.18,-3.71,-3.73,-3.73
265.82,-4.78,-1.07,-4.80,-1.09,1.09,0.68,0.20,-3.69,-3.70,-3.71
268.48,-4.93,-1.25,-4.94,-1.26,1.26,0.82,0.21,-3.67,-3.68,-3.68
271.16,-5.07,-1.42,-5.08,-1.42,1.42,0.97,0.23,-3.65,-3.66,-3.65
273.87,-5.21,-1.57,-5.21,-1.57,1.57,1.12,0.24,-3.64,-3.64,-3.64
276.61,-5.34,-1.74,-5.33,-1.72,1.72,1.27,0.26,-3.62,-3.61,-3.60
279.38,-5.45,-1.86,-5.44,-1.85,1.85,1.42,0.27,-3.61,-3.59,-3.59
282.17,-5.55,-1.98,-5.53,-1.96,1.96,1.57,0.28,-3.59,-3.57,-3.57
284.99,-5.64,-2.10,-5.60,-2.06,2.06,1.72,0.30,-3.58,-3.54,-3.54
287.84,-5.70,-2.18,-5.66,-2.14,2.14,1.86,0.31,-3.56,-3.51,-3.52
290.72,-5.74,-2.26,-5.69,-2.21,2.21,2.00,0.32,-3.53,-3.49,-3.48
293.63,-5.76,-2.29,-5.72,-2.26,2.26,2.14,0.33,-3.50,-3.46,-3.47
296.57,-5.76,-2.33,-5.73,-2.29,2.29,2.26,0.34,-3.47,-3.43,-3.43
299.53,-5.75,-2.34,-5.72,-2.32,2.32,2.38,0.35,-3.43,-3.40,-3.41
302.53,-5.72,-2.34,-5.71,-2.33,2.33,2.49,0.36,-3.39,-3.37,-3.38
305.55,-5.68,-2.34,-5.68,-2.34,2.34,2.58,0.37,-3.34,-3.34,-3.34
308.61,-5.63,-2.32,-5.66,-2.35,2.35,2.66,0.38,-3.28,-3.31,-3.31
311.69,-5.59,-2.32,-5.63,-2.35,2.35,2.73,0.39,-3.24,-3.28,-3.28
314.81,-5.55,-2.31,-5.60,-2.36,2.36,2.77,0.40,-3.20,-3.25,-3.24
317.96,-5.53,-2.32,-5.58,-2.36,2.36,2.81,0.42,-3.17,-3.22,-3.21
321.14,-5.51,-2.32,-5.57,-2.38,2.38,2.82,0.43,-3.13,-3.19,-3.19
324.35,-5.51,-2.35,-5.56,-2.40,2.40,2.82,0.44,-3.11,-3.16,-3.16
327.59,-5.51,-2.39,-5.55,-2.42,2.42,2.80,0.45,-3.09,-3.13,-3.12
330.87,-5.52,-2.42,-5.56,-2.45,2.45,2.77,0.46,-3.07,-3.10,-3.10
334.18,-5.54,-2.46,-5.56,-2.48,2.48,2.73,0.47,-3.06,-3.08,-3.08
337.52,-5.55,-2.50,-5.56,-2.51,2.51,2.67,0.49,-3.04,-3.05,-3.05
340.90,-5.57,-2.54,-5.56,-2.53,2.53,2.60,0.50,-3.04,-3.03,-3.03
344.30,-5.58,-2.57,-5.56,-2.55,2.55,2.53,0.51,-3.03,-3.01,-3.01
347.75,-5.59,-2.61,-5.55,-2.56,2.56,2.44,0.53,-3.03,-2.99,-2.98
351.23,-5.58,-2.62,-5.53,-2.56,2.56,2.35,0.54,-3.02,-2.97,-2.97
354.74,-5.57,-2.62,-5.49,-2.55,2.55,2.26,0.56,-3.03,-2.95,-2.95
358.28,-5.50,-2.57,-5.45,-2.52,2.52,2.17,0.58,-2.98,-2.93,-2.93
361.87,-5.42,-2.51,-5.39,-2.48,2.48,2.07,0.59,-2.94,-2.91,-2.91
365.49,-5.33,-2.45,-5.33,-2.44,2.44,1.98,0.61,-2.90,-2.89,-2.88
369.14,-5.24,-2.36,-5.25,-2.37,2.37,1.88,0.63,-2.87,-2.87,-2.88
372.83,-5.14,-2.28,-5.16,-2.31,2.31,1.79,0.64,-2.84,-2.85,-2.86
376.56,-5.04,-2.20,-5.06,-2.23,2.23,1.70,0.66,-2.81,-2.83,-2.84
380.33,-4.94,-2.13,-4.96,-2.14,2.14,1.61,0.68,-2.80,-2.82,-2.81
384.13,-4.83,-2.04,-4.85,-2.05,2.05,1.52,0.70,-2.78,-2.80,-2.79
387.97,-4.73,-1.96,-4.74,-1.96,1.96,1.44,0.72,-2.77,-2.78,-2.78
391.85,-4.61,-1.85,-4.62,-1.87,1.87,1.36,0.74,-2.74,-2.75,-2.76
395.77,-4.51,-1.78,-4.51,-1.77,1.77,1.29,0.76,-2.74,-2.73,-2.73
399.73,-4.39,-1.68,-4.40,-1.68,1.68,1.21,0.78,-2.71,-2.71,-2.71
403.72,-4.28,-1.59,-4.28,-1.59,1.59,1.14,0.80,-2.69,-2.69,-2.69
407.76,-4.17,-1.50,-4.17,-1.50,1.50,1.08,0.82,-2.67,-2.67,-2.67
411.84,-4.07,-1.43,-4.06,-1.41,1.41,1.02,0.84,-2.66,-2.65,-2.65
415.96,-3.95,-1.32,-3.95,-1.32,1.32,0.96,0.86,-2.63,-2.63,-2.63
420.12,-3.84,-1.23,-3.84,-1.23,1.23,0.90,0.88,-2.61,-2.61,-2.61
424.32,-3.74,-1.16,-3.73,-1.15,1.15,0.85,0.90,-2.59,-2.58,-2.58
428.56,-3.63,-1.07,-3.63,-1.07,1.07,0.80,0.92,-2.56,-2.56,-2.56
432.85,-3.53,-0.99,-3.53,-1.00,1.00,0.75,0.94,-2.53,-2.54,-2.54
437.18,-3.43,-0.92,-3.44,-0.93,0.93,0.71,0.95,-2.50,-2.51,-2.51
441.55,-3.32,-0.84,-3.35,-0.86,0.86,0.66,0.97,-2.46,-2.49,-2.48
445.96,-3.23,-0.77,-3.27,-0.80,0.80,0.62,0.99,-2.43,-2.46,-2.46
450.42,-3.16,-0.72,-3.18,-0.75,0.75,0.58,1.00,-2.41,-2.44,-2.45
454.93,-3.10,-0.69,-3.11,-0.70,0.70,0.55,1.01,-2.41,-2.41,-2.41
459.48,-3.03,-0.64,-3.03,-0.65,0.65,0.51,1.03,-2.38,-2.38,-2.39
464.07,-2.97,-0.61,-2.96,-0.61,0.61,0.48,1.04,-2.37,-2.36,-2.36
468.71,-2.91,-0.59,-2.89,-0.57,0.57,0.45,1.04,-2.35,-2.33,-2.32
473.40,-2.84,-0.54,-2.83,-0.53,0.53,0.42,1.05,-2.31,-2.30,-2.30
478.13,-2.77,-0.50,-2.76,-0.49,0.49,0.39,1.06,-2.28,-2.27,-2.27
482.91,-2.71,-0.47,-2.70,-0.46,0.46,0.37,1.06,-2.25,-2.24,-2.24
487.74,-2.64,-0.43,-2.64,-0.43,0.43,0.34,1.06,-2.22,-2.21,-2.21
492.62,-2.58,-0.40,-2.58,-0.39,0.39,0.32,1.06,-2.19,-2.19,-2.18
497.55,-2.51,-0.35,-2.52,-0.36,0.36,0.30,1.05,-2.15,-2.16,-2.16
502.52,-2.46,-0.34,-2.46,-0.33,0.33,0.27,1.05,-2.14,-2.13,-2.12
