frequency,raw,error,smoothed,error_smoothed,equalization,parametric_eq,fixed_band_eq,equalized_raw,equalized_smoothed,target
20.00,0.72,-4.82,0.69,-4.88,4.88,4.47,2.17,5.59,5.56,5.53
20.20,0.72,-4.87,0.70,-4.90,4.90,4.49,2.24,5.62,5.60,5.58
20.40,0.72,-4.92,0.71,-4.92,4.92,4.51,2.30,5.64,5.63,5.63
20.61,0.72,-4.94,0.72,-4.94,4.94,4.54,2.37,5.66,5.67,5.66
20.81,0.72,-5.00,0.74,-4.96,4.96,4.56,2.44,5.67,5.70,5.71
21.02,0.72,-5.03,0.75,-4.97,4.97,4.58,2.51,5.69,5.72,5.75
21.23,0.74,-5.03,0.76,-4.98,4.98,4.60,2.58,5.72,5.75,5.77
21.44,0.76,-5.03,0.78,-4.99,4.99,4.63,2.65,5.75,5.77,5.79
21.66,0.78,-5.02,0.79,-5.00,5.00,4.65,2.73,5.78,5.79,5.81
21.87,0.81,-5.01,0.80,-5.00,5.00,4.67,2.81,5.81,5.81,5.82
22.09,0.83,-5.01,0.82,-5.01,5.01,4.69,2.89,5.83,5.82,5.84
22.31,0.85,-5.00,0.83,-5.00,5.00,4.71,2.97,5.85,5.84,5.85
22.54,0.87,-4.98,0.85,-4.99,4.99,4.73,3.06,5.86,5.84,5.85
22.76,0.89,-4.96,0.86,-4.98,4.98,4.74,3.15,5.87,5.85,5.84
22.99,0.91,-4.93,0.88,-4.97,4.97,4.76,3.24,5.87,5.85,5.83
23.22,0.91,-4.93,0.90,-4.95,4.95,4.78,3.33,5.86,5.85,5.83
23.45,0.91,-4.93,0.91,-4.94,4.94,4.80,3.42,5.84,5.85,5.83
23.69,0.91,-4.94,0.93,-4.92,4.92,4.81,3.52,5.83,5.85,5.84
23.92,0.91,-4.94,0.94,-4.91,4.91,4.83,3.62,5.82,5.85,5.84
24.16,0.93,-4.92,0.95,-4.90,4.90,4.84,3.72,5.83,5.85,5.85
24.40,0.95,-4.91,0.96,-4.89,4.89,4.86,3.82,5.83,5.85,5.86
24.65,0.98,-4.87,0.97,-4.88,4.88,4.87,3.92,5.85,5.85,5.85
24.89,1.00,-4.85,0.98,-4.87,4.87,4.88,4.03,5.87,5.85,5.85
25.14,1.01,-4.84,0.98,-4.87,4.87,4.90,4.13,5.87,5.85,5.85
25.39,1.01,-4.85,0.99,-4.86,4.86,4.91,4.24,5.86,5.85,5.86
25.65,1.01,-4.85,1.00,-4.85,4.85,4.92,4.34,5.86,5.85,5.85
25.91,1.01,-4.84,1.00,-4.85,4.85,4.93,4.45,5.85,5.85,5.84
26.16,1.01,-4.84,1.01,-4.84,4.84,4.94,4.55,5.85,5.85,5.84
26.43,1.01,-4.84,1.01,-4.84,4.84,4.95,4.66,5.84,5.85,5.84
26.69,1.01,-4.83,1.01,-4.84,4.84,4.96,4.76,5.84,5.84,5.84
26.96,1.01,-4.84,1.00,-4.84,4.84,4.97,4.86,5.84,5.84,5.85
27.23,1.01,-4.84,1.00,-4.84,4.84,4.97,4.96,5.84,5.84,5.85
27.50,1.01,-4.84,1.00,-4.84,4.84,4.98,5.06,5.84,5.84,5.85
27.77,1.01,-4.83,1.00,-4.83,4.83,4.98,5.15,5.84,5.84,5.83
28.05,1.01,-4.83,1.01,-4.83,4.83,4.99,5.24,5.83,5.83,5.83
28.33,1.01,-4.82,1.01,-4.82,4.82,4.99,5.33,5.82,5.83,5.82
28.62,1.01,-4.81,1.03,-4.80,4.80,5.00,5.41,5.81,5.83,5.82
28.90,1.01,-4.82,1.04,-4.79,4.79,5.00,5.48,5.79,5.83,5.83
29.19,1.03,-4.79,1.06,-4.77,4.77,5.00,5.55,5.80,5.83,5.82
29.48,1.06,-4.78,1.07,-4.75,4.75,5.00,5.61,5.81,5.82,5.83
29.78,1.09,-4.74,1.09,-4.73,4.73,5.00,5.66,5.82,5.82,5.82
30.08,1.11,-4.71,1.11,-4.71,4.71,5.00,5.70,5.83,5.82,5.83
30.38,1.14,-4.68,1.12,-4.69,4.69,5.00,5.74,5.83,5.82,5.82
30.68,1.17,-4.65,1.14,-4.67,4.67,5.00,5.77,5.84,5.82,5.82
30.99,1.19,-4.62,1.16,-4.66,4.66,5.00,5.79,5.85,5.81,5.81
31.30,1.20,-4.62,1.17,-4.64,4.64,4.99,5.80,5.84,5.81,5.81
31.61,1.20,-4.61,1.18,-4.62,4.62,4.99,5.80,5.82,5.81,5.81
31.93,1.20,-4.61,1.19,-4.61,4.61,4.98,5.79,5.81,5.80,5.81
32.24,1.20,-4.60,1.20,-4.60,4.60,4.98,5.77,5.80,5.80,5.79
32.57,1.20,-4.60,1.20,-4.59,4.59,4.97,5.75,5.79,5.79,5.80
32.89,1.20,-4.60,1.20,-4.59,4.59,4.96,5.72,5.78,5.79,5.80
33.22,1.20,-4.59,1.20,-4.58,4.58,4.95,5.68,5.78,5.78,5.78
33.55,1.20,-4.59,1.20,-4.58,4.58,4.94,5.63,5.77,5.78,5.78
33.89,1.20,-4.57,1.20,-4.57,4.57,4.93,5.58,5.77,5.77,5.77
34.23,1.20,-4.58,1.20,-4.57,4.57,4.92,5.52,5.77,5.77,5.77
34.57,1.20,-4.57,1.20,-4.57,4.57,4.91,5.45,5.76,5.76,5.76
34.92,1.20,-4.56,1.20,-4.56,4.56,4.90,5.39,5.76,5.76,5.76
35.27,1.20,-4.56,1.19,-4.56,4.56,4.88,5.31,5.76,5.75,5.75
35.62,1.20,-4.55,1.19,-4.56,4.56,4.87,5.24,5.76,5.75,5.75
35.97,1.20,-4.55,1.18,-4.57,4.57,4.85,5.16,5.76,5.75,5.75
36.33,1.20,-4.56,1.18,-4.56,4.56,4.83,5.08,5.76,5.75,5.75
36.70,1.20,-4.54,1.18,-4.56,4.56,4.82,5.00,5.76,5.74,5.74
37.06,1.20,-4.54,1.19,-4.55,4.55,4.80,4.92,5.75,5.74,5.73
37.43,1.20,-4.55,1.20,-4.54,4.54,4.78,4.84,5.74,5.74,5.75
37.81,1.20,-4.55,1.21,-4.53,4.53,4.76,4.76,5.73,5.74,5.74
38.19,1.20,-4.54,1.23,-4.51,4.51,4.74,4.68,5.71,5.74,5.74
38.57,1.20,-4.55,1.24,-4.50,4.50,4.71,4.60,5.69,5.74,5.74
38.95,1.20,-4.55,1.26,-4.48,4.48,4.69,4.52,5.68,5.74,5.75
39.34,1.26,-4.48,1.27,-4.46,4.46,4.67,4.44,5.72,5.74,5.74
39.74,1.32,-4.42,1.29,-4.45,4.45,4.64,4.37,5.76,5.74,5.73
40.14,1.36,-4.37,1.31,-4.42,4.42,4.61,4.29,5.79,5.74,5.74
40.54,1.38,-4.36,1.33,-4.40,4.40,4.59,4.22,5.78,5.73,5.73
40.94,1.40,-4.33,1.35,-4.37,4.37,4.56,4.15,5.77,5.73,5.73
41.35,1.40,-4.32,1.37,-4.35,4.35,4.53,4.09,5.74,5.72,5.72
41.76,1.40,-4.32,1.39,-4.32,4.32,4.50,4.03,5.71,5.71,5.71
42.18,1.40,-4.32,1.41,-4.29,4.29,4.47,3.97,5.68,5.70,5.71
42.60,1.40,-4.30,1.43,-4.26,4.26,4.44,3.91,5.66,5.69,5.70
43.03,1.40,-4.29,1.44,-4.24,4.24,4.40,3.85,5.63,5.68,5.69
43.46,1.44,-4.24,1.45,-4.22,4.22,4.37,3.80,5.65,5.66,5.68
43.90,1.47,-4.18,1.45,-4.20,4.20,4.33,3.76,5.68,5.65,5.65
44.33,1.49,-4.15,1.45,-4.18,4.18,4.30,3.71,5.67,5.64,5.63
44.78,1.49,-4.13,1.46,-4.16,4.16,4.26,3.67,5.65,5.62,5.61
45.23,1.49,-4.12,1.47,-4.14,4.14,4.22,3.63,5.62,5.61,5.60
45.68,1.49,-4.10,1.48,-4.11,4.11,4.18,3.59,5.60,5.59,5.58
46.13,1.49,-4.08,1.49,-4.09,4.09,4.14,3.56,5.57,5.58,5.56
46.60,1.49,-4.08,1.50,-4.06,4.06,4.10,3.53,5.55,5.56,5.56
47.06,1.49,-4.05,1.51,-4.04,4.04,4.06,3.50,5.52,5.54,5.54
47.53,1.49,-4.04,1.52,-4.01,4.01,4.02,3.48,5.49,5.52,5.53
48.01,1.49,-4.04,1.53,-3.98,3.98,3.97,3.45,5.47,5.51,5.53
48.49,1.54,-3.97,1.54,-3.95,3.95,3.93,3.43,5.49,5.49,5.50
48.97,1.59,-3.90,1.55,-3.93,3.93,3.88,3.41,5.51,5.48,5.48
49.46,1.59,-3.87,1.57,-3.89,3.89,3.83,3.40,5.48,5.46,5.46
49.96,1.59,-3.85,1.59,-3.86,3.86,3.79,3.38,5.45,5.45,5.43
50.46,1.59,-3.84,1.60,-3.83,3.83,3.74,3.37,5.41,5.43,5.43
50.96,1.59,-3.83,1.62,-3.79,3.79,3.69,3.36,5.38,5.41,5.41
51.47,1.64,-3.75,1.64,-3.76,3.76,3.64,3.35,5.40,5.40,5.39
51.99,1.68,-3.69,1.65,-3.73,3.73,3.59,3.34,5.42,5.38,5.37
52.51,1.69,-3.68,1.66,-3.71,3.71,3.53,3.33,5.39,5.37,5.37
53.03,1.69,-3.67,1.67,-3.68,3.68,3.48,3.33,5.37,5.35,5.36
53.56,1.69,-3.66,1.68,-3.66,3.66,3.43,3.32,5.34,5.34,5.34
54.10,1.69,-3.64,1.68,-3.64,3.64,3.37,3.31,5.33,5.32,5.32
54.64,1.69,-3.62,1.69,-3.62,3.62,3.31,3.30,5.31,5.31,5.30
55.18,1.69,-3.61,1.69,-3.61,3.61,3.26,3.29,5.29,5.29,5.29
55.74,1.69,-3.59,1.69,-3.59,3.59,3.20,3.28,5.27,5.28,5.27
56.29,1.69,-3.58,1.69,-3.57,3.57,3.14,3.27,5.25,5.26,5.26
56.86,1.69,-3.56,1.69,-3.55,3.55,3.08,3.26,5.24,5.24,5.24
57.42,1.69,-3.52,1.69,-3.54,3.54,3.02,3.24,5.22,5.22,5.21
58.00,1.69,-3.51,1.68,-3.52,3.52,2.95,3.22,5.21,5.20,5.20
58.58,1.69,-3.50,1.67,-3.50,3.50,2.89,3.20,5.18,5.17,5.18
59.16,1.69,-3.47,1.67,-3.47,3.47,2.83,3.18,5.16,5.14,5.16
59.76,1.69,-3.45,1.67,-3.44,3.44,2.76,3.15,5.13,5.11,5.13
60.35,1.69,-3.40,1.68,-3.40,3.40,2.70,3.12,5.09,5.08,5.09
60.96,1.69,-3.37,1.68,-3.36,3.36,2.63,3.09,5.05,5.04,5.05
61.57,1.69,-3.32,1.69,-3.31,3.31,2.56,3.05,5.00,5.00,5.00
62.18,1.69,-3.27,1.70,-3.26,3.26,2.50,3.00,4.95,4.96,4.96
62.80,1.69,-3.22,1.71,-3.20,3.20,2.43,2.96,4.89,4.91,4.91
63.43,1.69,-3.17,1.73,-3.13,3.13,2.36,2.90,4.82,4.86,4.86
64.07,1.70,-3.11,1.75,-3.06,3.06,2.29,2.85,4.76,4.81,4.81
64.71,1.79,-2.96,1.77,-2.99,2.99,2.22,2.79,4.79,4.76,4.75
65.35,1.85,-2.86,1.80,-2.91,2.91,2.14,2.72,4.76,4.71,4.71
66.01,1.88,-2.78,1.83,-2.83,2.83,2.07,2.65,4.71,4.66,4.66
66.67,1.88,-2.73,1.87,-2.74,2.74,2.00,2.58,4.61,4.60,4.60
67.33,1.91,-2.64,1.91,-2.64,2.64,1.92,2.51,4.54,4.55,4.55
68.01,1.97,-2.54,1.97,-2.53,2.53,1.85,2.43,4.49,4.50,4.50
68.69,2.04,-2.41,2.02,-2.42,2.42,1.77,2.34,4.45,4.44,4.44
69.37,2.09,-2.30,2.08,-2.30,2.30,1.70,2.26,4.39,4.38,4.38
70.07,2.12,-2.21,2.15,-2.18,2.18,1.62,2.17,4.29,4.32,4.33
70.77,2.17,-2.11,2.22,-2.04,2.04,1.54,2.07,4.20,4.26,4.28
71.48,2.26,-1.95,2.31,-1.90,1.90,1.46,1.98,4.16,4.20,4.21
72.19,2.39,-1.76,2.39,-1.75,1.75,1.39,1.88,4.13,4.14,4.14
72.91,2.49,-1.59,2.49,-1.59,1.59,1.31,1.78,4.07,4.08,4.08
73.64,2.63,-1.39,2.60,-1.42,1.42,1.23,1.68,4.04,4.01,4.01
74.38,2.72,-1.23,2.71,-1.24,1.24,1.15,1.58,3.96,3.95,3.95
75.12,2.77,-1.12,2.82,-1.07,1.07,1.06,1.48,3.83,3.89,3.88
75.87,2.86,-0.96,2.93,-0.90,0.90,0.98,1.37,3.76,3.83,3.82
76.63,3.03,-0.73,3.03,-0.73,0.73,0.90,1.27,3.76,3.76,3.76
77.40,3.18,-0.52,3.13,-0.57,0.57,0.82,1.16,3.74,3.70,3.70
78.17,3.30,-0.33,3.23,-0.41,0.41,0.73,1.06,3.71,3.64,3.63
78.95,3.37,-0.22,3.32,-0.26,0.26,0.65,0.95,3.63,3.58,3.59
79.74,3.45,-0.08,3.40,-0.13,0.13,0.57,0.84,3.57,3.53,3.53
80.54,3.51,0.03,3.46,-0.01,0.01,0.48,0.73,3.51,3.47,3.47
81.35,3.56,0.15,3.52,0.11,-0.11,0.40,0.62,3.45,3.41,3.41
82.16,3.61,0.25,3.57,0.21,-0.21,0.31,0.51,3.39,3.36,3.35
82.98,3.61,0.30,3.61,0.31,-0.31,0.23,0.40,3.29,3.30,3.31
83.81,3.61,0.36,3.65,0.40,-0.40,0.14,0.29,3.20,3.24,3.24
84.65,3.68,0.49,3.67,0.48,-0.48,0.06,0.18,3.19,3.19,3.19
85.50,3.71,0.57,3.69,0.56,-0.56,-0.03,0.07,3.15,3.13,3.14
86.35,3.71,0.63,3.70,0.63,-0.63,-0.12,-0.04,3.08,3.07,3.08
87.22,3.71,0.69,3.72,0.71,-0.71,-0.20,-0.15,3.00,3.01,3.02
88.09,3.71,0.75,3.74,0.79,-0.79,-0.29,-0.26,2.92,2.95,2.96
88.97,3.71,0.81,3.77,0.87,-0.87,-0.38,-0.37,2.83,2.90,2.90
89.86,3.79,0.95,3.79,0.96,-0.96,-0.46,-0.48,2.83,2.84,2.84
90.76,3.81,1.03,3.81,1.04,-1.04,-0.55,-0.59,2.77,2.78,2.77
91.66,3.81,1.09,3.84,1.12,-1.12,-0.64,-0.71,2.68,2.72,2.72
92.58,3.84,1.19,3.86,1.20,-1.20,-0.72,-0.82,2.63,2.66,2.65
93.51,3.89,1.29,3.88,1.28,-1.28,-0.81,-0.93,2.60,2.60,2.59
94.44,3.95,1.41,3.90,1.36,-1.36,-0.90,-1.05,2.58,2.54,2.54
95.39,4.00,1.51,3.92,1.45,-1.45,-0.98,-1.16,2.55,2.48,2.48
96.34,4.00,1.58,3.95,1.53,-1.53,-1.07,-1.27,2.46,2.42,2.42
97.30,4.00,1.64,3.97,1.61,-1.61,-1.15,-1.38,2.38,2.36,2.36
98.28,3.99,1.68,4.00,1.69,-1.69,-1.24,-1.50,2.29,2.30,2.30
99.26,3.97,1.72,4.02,1.77,-1.77,-1.32,-1.61,2.20,2.25,2.25
100.25,3.98,1.79,4.03,1.85,-1.85,-1.41,-1.72,2.13,2.19,2.19
101.25,4.03,1.89,4.05,1.92,-1.92,-1.49,-1.84,2.11,2.13,2.13
102.27,4.03,1.95,4.06,1.99,-1.99,-1.58,-1.95,2.04,2.07,2.07
103.29,4.08,2.07,4.07,2.06,-2.06,-1.66,-2.06,2.02,2.01,2.01
104.32,4.13,2.17,4.08,2.13,-2.13,-1.74,-2.17,2.00,1.95,1.96
105.37,4.16,2.25,4.09,2.20,-2.20,-1.83,-2.28,1.95,1.89,1.90
106.42,4.13,2.28,4.11,2.27,-2.27,-1.91,-2.38,1.85,1.83,1.84
107.48,4.12,2.34,4.12,2.35,-2.35,-1.99,-2.49,1.76,1.77,1.78
108.56,4.14,2.43,4.14,2.43,-2.43,-2.07,-2.59,1.71,1.71,1.71
109.64,4.16,2.51,4.15,2.50,-2.50,-2.15,-2.69,1.65,1.65,1.65
110.74,4.14,2.55,4.16,2.58,-2.58,-2.23,-2.79,1.56,1.59,1.58
111.85,4.12,2.58,4.17,2.65,-2.65,-2.31,-2.89,1.47,1.52,1.54
112.97,4.19,2.73,4.18,2.71,-2.71,-2.38,-2.98,1.47,1.46,1.46
114.10,4.21,2.80,4.19,2.78,-2.78,-2.46,-3.07,1.42,1.41,1.40
115.24,4.20,2.85,4.20,2.85,-2.85,-2.54,-3.15,1.35,1.35,1.35
116.39,4.20,2.92,4.21,2.91,-2.91,-2.61,-3.23,1.28,1.29,1.28
117.55,4.21,2.97,4.21,2.97,-2.97,-2.68,-3.30,1.23,1.24,1.23
118.73,4.21,3.03,4.22,3.03,-3.03,-2.76,-3.37,1.18,1.19,1.18
119.92,4.22,3.07,4.22,3.08,-3.08,-2.83,-3.44,1.14,1.14,1.15
121.12,4.23,3.13,4.22,3.12,-3.12,-2.90,-3.50,1.11,1.10,1.09
122.33,4.24,3.19,4.21,3.16,-3.16,-2.97,-3.55,1.08,1.05,1.05
123.55,4.24,3.22,4.21,3.20,-3.20,-3.03,-3.60,1.04,1.01,1.02
124.79,4.25,3.27,4.20,3.23,-3.23,-3.10,-3.64,1.02,0.97,0.97
126.03,4.23,3.29,4.18,3.25,-3.25,-3.16,-3.68,0.97,0.93,0.93
127.29,4.18,3.27,4.17,3.28,-3.28,-3.23,-3.71,0.90,0.89,0.90
128.57,4.11,3.25,4.16,3.31,-3.31,-3.29,-3.73,0.80,0.85,0.85
129.85,4.08,3.26,4.14,3.33,-3.33,-3.35,-3.75,0.75,0.81,0.81
131.15,4.09,3.31,4.12,3.35,-3.35,-3.41,-3.76,0.74,0.78,0.77
132.46,4.09,3.35,4.10,3.36,-3.36,-3.47,-3.77,0.72,0.74,0.74
133.79,4.10,3.40,4.08,3.38,-3.38,-3.52,-3.78,0.71,0.70,0.70
135.12,4.09,3.43,4.06,3.40,-3.40,-3.58,-3.78,0.69,0.66,0.65
136.48,4.03,3.40,4.04,3.41,-3.41,-3.63,-3.77,0.61,0.63,0.63
137.84,4.01,3.42,4.02,3.43,-3.43,-3.68,-3.77,0.58,0.59,0.59
139.22,4.01,3.46,4.00,3.44,-3.44,-3.73,-3.76,0.56,0.56,0.54
140.61,4.01,3.51,3.98,3.46,-3.46,-3.78,-3.74,0.55,0.52,0.50
142.02,3.94,3.46,3.95,3.47,-3.47,-3.83,-3.73,0.46,0.48,0.48
143.44,3.89,3.45,3.91,3.48,-3.48,-3.87,-3.71,0.40,0.43,0.44
144.87,3.83,3.44,3.86,3.48,-3.48,-3.91,-3.69,0.35,0.39,0.39
146.32,3.82,3.47,3.79,3.46,-3.46,-3.95,-3.67,0.36,0.33,0.34
147.78,3.82,3.51,3.71,3.43,-3.43,-3.99,-3.65,0.38,0.28,0.30
149.26,3.71,3.46,3.61,3.40,-3.40,-4.03,-3.63,0.31,0.22,0.25
150.75,3.63,3.45,3.51,3.36,-3.36,-4.07,-3.61,0.27,0.15,0.17
152.26,3.53,3.43,3.41,3.33,-3.33,-4.10,-3.59,0.20,0.08,0.10
153.78,3.39,3.36,3.31,3.30,-3.30,-4.13,-3.57,0.08,0.01,0.02
155.32,3.28,3.33,3.22,3.29,-3.29,-4.16,-3.55,-0.02,-0.07,-0.06
156.88,3.17,3.31,3.16,3.31,-3.31,-4.19,-3.53,-0.14,-0.15,-0.14
158.44,3.01,3.24,3.12,3.35,-3.35,-4.22,-3.52,-0.34,-0.23,-0.23
160.03,2.89,3.21,3.10,3.40,-3.40,-4.24,-3.51,-0.52,-0.30,-0.32
161.63,2.82,3.21,3.10,3.47,-3.47,-4.26,-3.49,-0.66,-0.37,-0.40
163.24,2.87,3.33,3.12,3.56,-3.56,-4.29,-3.48,-0.69,-0.44,-0.47
164.88,2.94,3.46,3.15,3.66,-3.66,-4.31,-3.48,-0.72,-0.51,-0.52
166.53,3.14,3.72,3.21,3.77,-3.77,-4.32,-3.47,-0.63,-0.56,-0.58
168.19,3.33,3.95,3.29,3.89,-3.89,-4.34,-3.47,-0.57,-0.61,-0.62
169.87,3.50,4.16,3.37,4.02,-4.02,-4.35,-3.47,-0.52,-0.64,-0.67
171.57,3.67,4.36,3.46,4.13,-4.13,-4.37,-3.47,-0.47,-0.68,-0.69
173.29,3.76,4.47,3.54,4.24,-4.24,-4.38,-3.48,-0.49,-0.70,-0.71
175.02,3.78,4.50,3.62,4.34,-4.34,-4.39,-3.48,-0.56,-0.72,-0.72
176.77,3.78,4.52,3.69,4.43,-4.43,-4.39,-3.49,-0.65,-0.74,-0.74
178.54,3.78,4.53,3.75,4.50,-4.50,-4.40,-3.51,-0.72,-0.75,-0.75
180.32,3.78,4.53,3.78,4.55,-4.55,-4.40,-3.52,-0.77,-0.76,-0.75
182.13,3.79,4.53,3.80,4.57,-4.57,-4.41,-3.54,-0.78,-0.77,-0.75
183.95,3.80,4.56,3.79,4.57,-4.57,-4.41,-3.56,-0.78,-0.78,-0.77
185.79,3.72,4.49,3.77,4.56,-4.56,-4.41,-3.59,-0.85,-0.80,-0.77
187.65,3.65,4.44,3.74,4.55,-4.55,-4.41,-3.62,-0.90,-0.81,-0.80
189.52,3.65,4.46,3.70,4.53,-4.53,-4.40,-3.64,-0.88,-0.82,-0.81
191.42,3.66,4.49,3.67,4.51,-4.51,-4.40,-3.68,-0.86,-0.84,-0.84
193.33,3.67,4.52,3.65,4.51,-4.51,-4.39,-3.71,-0.84,-0.86,-0.86
195.27,3.69,4.57,3.63,4.51,-4.51,-4.38,-3.75,-0.83,-0.88,-0.88
197.22,3.66,4.56,3.62,4.52,-4.52,-4.38,-3.79,-0.86,-0.90,-0.90
199.19,3.57,4.50,3.60,4.53,-4.53,-4.37,-3.83,-0.96,-0.93,-0.93
201.18,3.53,4.48,3.58,4.53,-4.53,-4.35,-3.87,-1.01,-0.95,-0.95
203.19,3.53,4.50,3.56,4.54,-4.54,-4.34,-3.91,-1.01,-0.98,-0.97
205.23,3.53,4.53,3.55,4.55,-4.55,-4.33,-3.96,-1.02,-1.00,-1.00
207.28,3.53,4.54,3.53,4.56,-4.56,-4.31,-4.00,-1.03,-1.02,-1.01
209.35,3.53,4.57,3.51,4.55,-4.55,-4.30,-4.05,-1.03,-1.05,-1.04
211.44,3.53,4.60,3.48,4.55,-4.55,-4.28,-4.09,-1.02,-1.07,-1.08
213.56,3.53,4.61,3.45,4.54,-4.54,-4.26,-4.14,-1.01,-1.09,-1.08
215.69,3.47,4.57,3.43,4.53,-4.53,-4.24,-4.19,-1.06,-1.10,-1.10
217.85,3.42,4.53,3.40,4.51,-4.51,-4.22,-4.23,-1.10,-1.12,-1.12
220.03,3.35,4.48,3.37,4.50,-4.50,-4.20,-4.27,-1.16,-1.13,-1.13
222.23,3.32,4.47,3.35,4.49,-4.49,-4.18,-4.32,-1.17,-1.14,-1.15
224.45,3.32,4.46,3.32,4.47,-4.47,-4.16,-4.35,-1.15,-1.14,-1.15
226.70,3.30,4.45,3.29,4.44,-4.44,-4.14,-4.39,-1.14,-1.15,-1.15
228.96,3.23,4.37,3.27,4.41,-4.41,-4.11,-4.43,-1.19,-1.14,-1.15
231.25,3.23,4.36,3.25,4.39,-4.39,-4.09,-4.46,-1.16,-1.14,-1.14
233.57,3.24,4.37,3.23,4.36,-4.36,-4.06,-4.48,-1.13,-1.13,-1.13
235.90,3.20,4.32,3.22,4.33,-4.33,-4.03,-4.51,-1.14,-1.12,-1.12
238.26,3.18,4.29,3.20,4.31,-4.31,-4.01,-4.52,-1.13,-1.10,-1.11
240.64,3.20,4.29,3.19,4.28,-4.28,-3.98,-4.54,-1.08,-1.09,-1.09
243.05,3.21,4.27,3.18,4.25,-4.25,-3.95,-4.54,-1.05,-1.07,-1.07
245.48,3.19,4.23,3.17,4.22,-4.22,-3.92,-4.54,-1.04,-1.05,-1.05
247.93,3.16,4.17,3.16,4.19,-4.19,-3.89,-4.54,-1.03,-1.03,-1.01
250.41,3.18,4.18,3.14,4.15,-4.15,-3.86,-4.53,-0.97,-1.01,-1.00
252.92,3.19,4.16,3.13,4.11,-4.11,-3.83,-4.52,-0.93,-0.98,-0.97
255.45,3.12,4.07,3.11,4.07,-4.07,-3.80,-4.50,-0.96,-0.96,-0.95
258.00,3.10,4.03,3.09,4.03,-4.03,-3.77,-4.47,-0.94,-0.94,-0.93
260.58,3.04,3.95,3.07,3.99,-3.99,-3.74,-4.44,-0.95,-0.91,-0.92
263.19,3.03,3.91,3.05,3.94,-3.94,-3.70,-4.40,-0.91,-0.89,-0.89
265.82,3.03,3.90,3.02,3.89,-3.89,-3.67,-4.36,-0.86,-0.87,-0.87
268.48,3.00,3.85,2.99,3.83,-3.83,-3.64,-4.31,-0.84,-0.85,-0.85
271.16,2.94,3.75,2.96,3.78,-3.78,-3.60,-4.26,-0.84,-0.82,-0.82
273.87,2.92,3.72,2.93,3.73,-3.73,-3.57,-4.21,-0.81,-0.80,-0.81
276.61,2.92,3.69,2.90,3.67,-3.67,-3.54,-4.15,-0.76,-0.77,-0.77
279.38,2.92,3.66,2.87,3.62,-3.62,-3.50,-4.08,-0.70,-0.75,-0.75
282.17,2.85,3.57,2.84,3.56,-3.56,-3.47,-4.02,-0.72,-0.72,-0.72
284.99,2.83,3.52,2.82,3.51,-3.51,-3.43,-3.95,-0.69,-0.70,-0.69
287.84,2.75,3.42,2.79,3.46,-3.46,-3.40,-3.88,-0.72,-0.67,-0.68
290.72,2.75,3.39,2.77,3.41,-3.41,-3.36,-3.81,-0.67,-0.64,-0.64
293.63,2.76,3.37,2.75,3.36,-3.36,-3.33,-3.74,-0.61,-0.61,-0.62
296.57,2.74,3.32,2.73,3.31,-3.31,-3.29,-3.67,-0.57,-0.58,-0.58
299.53,2.70,3.25,2.70,3.26,-3.26,-3.26,-3.60,-0.57,-0.56,-0.56
302.53,2.71,3.25,2.68,3.22,-3.22,-3.22,-3.52,-0.51,-0.53,-0.54
305.55,2.67,3.16,2.67,3.17,-3.17,-3.19,-3.45,-0.51,-0.51,-0.50
308.61,2.63,3.11,2.65,3.13,-3.13,-3.15,-3.38,-0.51,-0.48,-0.48
311.69,2.63,3.08,2.64,3.10,-3.10,-3.11,-3.31,-0.47,-0.46,-0.45
314.81,2.64,3.06,2.62,3.06,-3.06,-3.08,-3.24,-0.43,-0.44,-0.43
317.96,2.64,3.05,2.61,3.03,-3.03,-3.04,-3.17,-0.39,-0.42,-0.41
321.14,2.58,2.98,2.59,2.99,-2.99,-3.01,-3.10,-0.42,-0.40,-0.41
324.35,2.55,2.93,2.57,2.95,-2.95,-2.97,-3.03,-0.41,-0.39,-0.39
327.59,2.54,2.91,2.55,2.92,-2.92,-2.93,-2.96,-0.38,-0.37,-0.37
330.87,2.54,2.90,2.53,2.89,-2.89,-2.90,-2.90,-0.35,-0.36,-0.37
334.18,2.54,2.88,2.51,2.86,-2.86,-2.86,-2.84,-0.32,-0.35,-0.35
337.52,2.54,2.88,2.49,2.83,-2.83,-2.83,-2.78,-0.29,-0.34,-0.34
340.90,2.48,2.80,2.47,2.80,-2.80,-2.79,-2.72,-0.32,-0.33,-0.32
344.30,2.44,2.75,2.44,2.77,-2.77,-2.76,-2.66,-0.33,-0.33,-0.32
347.75,2.37,2.69,2.41,2.73,-2.73,-2.72,-2.61,-0.37,-0.32,-0.32
351.23,2.34,2.65,2.39,2.70,-2.70,-2.68,-2.55,-0.37,-0.32,-0.31
354.74,2.35,2.66,2.36,2.67,-2.67,-2.65,-2.50,-0.32,-0.31,-0.32
358.28,2.35,2.65,2.33,2.64,-2.64,-2.61,-2.45,-0.29,-0.31,-0.31
361.87,2.34,2.65,2.29,2.60,-2.60,-2.58,-2.41,-0.27,-0.31,-0.31
365.49,2.28,2.58,2.25,2.56,-2.56,-2.54,-2.36,-0.28,-0.31,-0.30
369.14,2.23,2.54,2.21,2.52,-2.52,-2.51,-2.32,-0.29,-0.31,-0.31
372.83,2.19,2.50,2.17,2.48,-2.48,-2.47,-2.28,-0.29,-0.31,-0.32
376.56,2.13,2.44,2.13,2.44,-2.44,-2.44,-2.24,-0.32,-0.31,-0.32
380.33,2.10,2.41,2.09,2.41,-2.41,-2.40,-2.20,-0.32,-0.32,-0.31
384.13,2.05,2.36,2.06,2.38,-2.38,-2.37,-2.17,-0.33,-0.32,-0.31
387.97,2.02,2.34,2.02,2.34,-2.34,-2.33,-2.13,-0.33,-0.33,-0.32
391.85,1.95,2.28,1.97,2.30,-2.30,-2.30,-2.10,-0.35,-0.33,-0.34
395.77,1.90,2.22,1.92,2.25,-2.25,-2.26,-2.07,-0.36,-0.34,-0.33
399.73,1.85,2.18,1.87,2.22,-2.22,-2.23,-2.04,-0.37,-0.34,-0.34
403.72,1.83,2.17,1.83,2.18,-2.18,-2.20,-2.01,-0.35,-0.35,-0.34
407.76,1.83,2.18,1.78,2.14,-2.14,-2.16,-1.98,-0.31,-0.35,-0.35
411.84,1.82,2.17,1.74,2.10,-2.10,-2.13,-1.96,-0.28,-0.36,-0.35
415.96,1.74,2.09,1.71,2.07,-2.07,-2.09,-1.93,-0.33,-0.36,-0.35
420.12,1.70,2.05,1.68,2.04,-2.04,-2.06,-1.91,-0.34,-0.36,-0.36
424.32,1.64,1.99,1.65,2.00,-2.00,-2.03,-1.89,-0.37,-0.35,-0.36
428.56,1.59,1.93,1.63,1.97,-1.97,-2.00,-1.86,-0.39,-0.34,-0.35
432.85,1.57,1.90,1.62,1.95,-1.95,-1.96,-1.84,-0.38,-0.33,-0.34
437.18,1.59,1.92,1.62,1.93,-1.93,-1.93,-1.82,-0.34,-0.30,-0.33
441.55,1.61,1.90,1.63,1.91,-1.91,-1.90,-1.80,-0.30,-0.28,-0.29
445.96,1.58,1.84,1.64,1.89,-1.89,-1.87,-1.78,-0.32,-0.25,-0.26
450.42,1.61,1.84,1.65,1.87,-1.87,-1.83,-1.76,-0.26,-0.21,-0.23
454.93,1.68,1.86,1.67,1.84,-1.84,-1.80,-1.74,-0.17,-0.17,-0.18
459.48,1.74,1.87,1.69,1.82,-1.82,-1.77,-1.72,-0.08,-0.13,-0.14
464.07,1.69,1.77,1.72,1.80,-1.80,-1.74,-1.70,-0.12,-0.08,-0.09
468.71,1.73,1.75,1.75,1.79,-1.79,-1.71,-1.68,-0.06,-0.03,-0.03
473.40,1.83,1.81,1.77,1.75,-1.75,-1.68,-1.66,0.07,0.01,0.01
478.13,1.83,1.75,1.76,1.70,-1.70,-1.64,-1.64,0.13,0.06,0.07
482.91,1.83,1.71,1.75,1.64,-1.64,-1.61,-1.61,0.18,0.11,0.11
487.74,1.82,1.67,1.74,1.60,-1.60,-1.58,-1.59,0.22,0.15,0.15
492.62,1.70,1.50,1.73,1.54,-1.54,-1.55,-1.56,0.15,0.18,0.20
497.55,1.67,1.45,1.69,1.47,-1.47,-1.52,-1.54,0.19,0.21,0.22
502.52,1.67,1.42,1.63,1.40,-1.40,-1.49,-1.51,0.27,0.24,0.25
507.55,1.63,1.37,1.57,1.32,-1.32,-1.46,-1.49,0.31,0.25,0.26
512.62,1.59,1.32,1.49,1.24,-1.24,-1.43,-1.46,0.35,0.26,0.27
517.75,1.36,1.08,1.42,1.16,-1.16,-1.40,-1.43,0.19,0.25,0.28
522.93,1.20,0.93,1.33,1.09,-1.09,-1.37,-1.40,0.11,0.24,0.27
528.16,1.20,0.96,1.24,1.02,-1.02,-1.35,-1.37,0.17,0.22,0.24
