frequency,raw,error,smoothed,error_smoothed,equalization,parametric_eq,fixed_band_eq,equalized_raw,equalized_smoothed,target
20.00,3.70,-1.38,3.70,-1.40,1.40,1.50,0.15,5.10,5.10,5.08
20.20,3.74,-1.39,3.74,-1.40,1.40,1.50,0.16,5.14,5.14,5.13
20.40,3.78,-1.40,3.78,-1.40,1.40,1.49,0.16,5.18,5.18,5.18
20.61,3.82,-1.39,3.82,-1.39,1.39,1.47,0.17,5.21,5.21,5.20
20.81,3.86,-1.40,3.86,-1.38,1.38,1.45,0.18,5.24,5.24,5.26
21.02,3.90,-1.40,3.90,-1.37,1.37,1.42,0.19,5.27,5.27,5.30
21.23,3.94,-1.38,3.94,-1.36,1.36,1.40,0.19,5.29,5.29,5.32
21.44,3.99,-1.35,3.98,-1.34,1.34,1.37,0.20,5.33,5.32,5.34
21.66,4.03,-1.33,4.02,-1.32,1.32,1.33,0.21,5.34,5.34,5.35
21.87,4.07,-1.30,4.06,-1.29,1.29,1.30,0.22,5.36,5.36,5.37
22.09,4.11,-1.28,4.11,-1.27,1.27,1.26,0.23,5.37,5.37,5.39
22.31,4.15,-1.25,4.15,-1.24,1.24,1.22,0.24,5.38,5.39,5.40
22.54,4.19,-1.21,4.19,-1.20,1.20,1.17,0.25,5.39,5.39,5.40
22.76,4.24,-1.16,4.24,-1.16,1.16,1.13,0.26,5.40,5.39,5.39
22.99,4.28,-1.11,4.28,-1.12,1.12,1.09,0.27,5.39,5.40,5.39
23.22,4.32,-1.07,4.33,-1.07,1.07,1.04,0.28,5.39,5.40,5.39
23.45,4.37,-1.02,4.37,-1.03,1.03,1.00,0.29,5.39,5.40,5.39
23.69,4.41,-0.99,4.42,-0.98,0.98,0.95,0.30,5.39,5.40,5.39
23.92,4.46,-0.94,4.46,-0.94,0.94,0.91,0.31,5.39,5.40,5.40
24.16,4.50,-0.90,4.50,-0.89,0.89,0.86,0.32,5.39,5.40,5.40
24.40,4.55,-0.86,4.54,-0.85,0.85,0.82,0.34,5.40,5.40,5.40
24.65,4.60,-0.80,4.58,-0.82,0.82,0.78,0.35,5.41,5.40,5.40
24.89,4.65,-0.75,4.62,-0.78,0.78,0.74,0.36,5.43,5.40,5.40
25.14,4.68,-0.72,4.65,-0.75,0.75,0.69,0.37,5.42,5.40,5.40
25.39,4.71,-0.70,4.69,-0.71,0.71,0.65,0.38,5.42,5.40,5.41
25.65,4.73,-0.68,4.72,-0.68,0.68,0.61,0.39,5.40,5.40,5.41
25.91,4.75,-0.65,4.76,-0.64,0.64,0.58,0.40,5.38,5.40,5.40
26.16,4.78,-0.62,4.79,-0.60,0.60,0.54,0.41,5.38,5.40,5.40
26.43,4.80,-0.60,4.82,-0.57,0.57,0.50,0.42,5.37,5.40,5.40
26.69,4.83,-0.57,4.85,-0.54,0.54,0.47,0.43,5.37,5.39,5.40
26.96,4.86,-0.54,4.88,-0.51,0.51,0.43,0.44,5.37,5.39,5.40
27.23,4.90,-0.50,4.91,-0.48,0.48,0.40,0.45,5.38,5.39,5.40
27.50,4.96,-0.44,4.94,-0.45,0.45,0.36,0.46,5.41,5.39,5.40
27.77,5.01,-0.38,4.97,-0.42,0.42,0.33,0.47,5.43,5.39,5.39
28.05,5.05,-0.34,5.00,-0.39,0.39,0.30,0.48,5.43,5.39,5.38
28.33,5.05,-0.33,5.03,-0.36,0.36,0.27,0.48,5.40,5.38,5.38
28.62,5.05,-0.33,5.06,-0.32,0.32,0.24,0.49,5.37,5.38,5.38
28.90,5.05,-0.34,5.09,-0.30,0.30,0.21,0.49,5.34,5.38,5.38
29.19,5.08,-0.30,5.11,-0.27,0.27,0.18,0.49,5.35,5.38,5.38
29.48,5.13,-0.26,5.14,-0.24,0.24,0.16,0.49,5.37,5.38,5.38
29.78,5.18,-0.20,5.16,-0.22,0.22,0.13,0.49,5.39,5.38,5.38
30.08,5.22,-0.17,5.19,-0.19,0.19,0.10,0.49,5.41,5.38,5.38
30.38,5.23,-0.15,5.21,-0.17,0.17,0.08,0.49,5.39,5.37,5.38
30.68,5.24,-0.14,5.23,-0.14,0.14,0.05,0.48,5.38,5.37,5.38
30.99,5.25,-0.13,5.26,-0.11,0.11,0.03,0.47,5.36,5.37,5.38
31.30,5.28,-0.09,5.29,-0.08,0.08,0.01,0.46,5.36,5.37,5.37
31.61,5.31,-0.06,5.32,-0.05,0.05,-0.02,0.45,5.35,5.37,5.37
31.93,5.33,-0.04,5.35,-0.01,0.01,-0.04,0.44,5.34,5.36,5.37
32.24,5.36,0.00,5.37,0.02,-0.02,-0.06,0.43,5.34,5.36,5.36
32.57,5.40,0.04,5.40,0.04,-0.04,-0.09,0.41,5.35,5.35,5.36
32.89,5.43,0.07,5.42,0.07,-0.07,-0.11,0.40,5.36,5.35,5.35
33.22,5.46,0.11,5.44,0.09,-0.09,-0.13,0.38,5.36,5.35,5.35
33.55,5.50,0.15,5.46,0.12,-0.12,-0.15,0.36,5.37,5.34,5.34
33.89,5.53,0.19,5.49,0.15,-0.15,-0.17,0.34,5.37,5.34,5.34
34.23,5.54,0.20,5.52,0.18,-0.18,-0.19,0.31,5.35,5.33,5.34
34.57,5.54,0.21,5.54,0.22,-0.22,-0.21,0.29,5.32,5.33,5.33
34.92,5.54,0.21,5.57,0.25,-0.25,-0.23,0.26,5.29,5.32,5.33
35.27,5.56,0.24,5.60,0.28,-0.28,-0.25,0.24,5.28,5.32,5.32
35.62,5.60,0.28,5.62,0.30,-0.30,-0.27,0.21,5.29,5.32,5.32
35.97,5.63,0.31,5.64,0.33,-0.33,-0.29,0.18,5.30,5.32,5.32
36.33,5.66,0.34,5.67,0.35,-0.35,-0.31,0.15,5.30,5.31,5.31
36.70,5.70,0.39,5.69,0.38,-0.38,-0.33,0.12,5.32,5.31,5.31
37.06,5.74,0.43,5.72,0.41,-0.41,-0.35,0.08,5.33,5.31,5.31
37.43,5.77,0.45,5.74,0.43,-0.43,-0.37,0.05,5.34,5.31,5.32
37.81,5.79,0.47,5.77,0.46,-0.46,-0.39,0.02,5.33,5.31,5.32
38.19,5.81,0.50,5.79,0.48,-0.48,-0.41,-0.02,5.33,5.31,5.31
38.57,5.82,0.50,5.82,0.50,-0.50,-0.42,-0.05,5.31,5.31,5.31
38.95,5.82,0.49,5.84,0.52,-0.52,-0.44,-0.09,5.29,5.31,5.32
39.34,5.85,0.53,5.85,0.54,-0.54,-0.46,-0.12,5.31,5.32,5.32
39.74,5.89,0.57,5.87,0.56,-0.56,-0.48,-0.16,5.33,5.32,5.32
40.14,5.92,0.60,5.89,0.57,-0.57,-0.50,-0.20,5.34,5.31,5.32
40.54,5.92,0.60,5.90,0.59,-0.59,-0.52,-0.23,5.32,5.31,5.32
40.94,5.92,0.61,5.92,0.61,-0.61,-0.54,-0.27,5.30,5.31,5.31
41.35,5.92,0.61,5.94,0.64,-0.64,-0.56,-0.31,5.28,5.30,5.30
41.76,5.93,0.63,5.96,0.66,-0.66,-0.58,-0.35,5.26,5.30,5.30
42.18,5.95,0.65,5.98,0.69,-0.69,-0.60,-0.39,5.26,5.29,5.29
42.60,5.98,0.69,6.00,0.72,-0.72,-0.62,-0.43,5.26,5.28,5.28
43.03,6.02,0.74,6.02,0.75,-0.75,-0.64,-0.47,5.27,5.27,5.27
43.46,6.05,0.78,6.03,0.78,-0.78,-0.66,-0.51,5.27,5.25,5.26
43.90,6.07,0.82,6.05,0.80,-0.80,-0.68,-0.55,5.26,5.24,5.25
44.33,6.09,0.86,6.06,0.83,-0.83,-0.70,-0.59,5.26,5.23,5.22
44.78,6.10,0.89,6.07,0.85,-0.85,-0.72,-0.63,5.25,5.22,5.21
45.23,6.11,0.91,6.08,0.87,-0.87,-0.74,-0.67,5.23,5.20,5.20
45.68,6.11,0.92,6.09,0.90,-0.90,-0.76,-0.72,5.21,5.19,5.19
46.13,6.11,0.94,6.10,0.92,-0.92,-0.78,-0.76,5.19,5.18,5.17
46.60,6.11,0.94,6.11,0.95,-0.95,-0.80,-0.80,5.16,5.16,5.17
47.06,6.11,0.96,6.12,0.97,-0.97,-0.82,-0.85,5.13,5.15,5.14
47.53,6.11,0.97,6.13,1.00,-1.00,-0.84,-0.89,5.11,5.13,5.14
48.01,6.11,0.97,6.14,1.03,-1.03,-0.86,-0.93,5.08,5.12,5.14
48.49,6.12,1.00,6.16,1.06,-1.06,-0.88,-0.98,5.06,5.10,5.12
48.97,6.13,1.03,6.18,1.08,-1.08,-0.91,-1.02,5.04,5.09,5.09
49.46,6.17,1.09,6.19,1.12,-1.12,-0.93,-1.07,5.05,5.08,5.07
49.96,6.21,1.15,6.21,1.15,-1.15,-0.95,-1.11,5.06,5.06,5.06
50.46,6.26,1.21,6.23,1.18,-1.18,-0.97,-1.16,5.08,5.05,5.05
50.96,6.31,1.27,6.25,1.21,-1.21,-1.00,-1.21,5.10,5.04,5.03
51.47,6.31,1.29,6.27,1.24,-1.24,-1.02,-1.25,5.07,5.02,5.01
51.99,6.31,1.30,6.28,1.27,-1.27,-1.04,-1.30,5.04,5.01,5.01
52.51,6.31,1.31,6.29,1.30,-1.30,-1.07,-1.34,5.01,5.00,5.00
53.03,6.31,1.31,6.31,1.32,-1.32,-1.09,-1.39,4.99,4.99,4.99
53.56,6.31,1.33,6.31,1.34,-1.34,-1.12,-1.43,4.97,4.97,4.97
54.10,6.31,1.34,6.32,1.35,-1.35,-1.14,-1.48,4.95,4.96,4.97
54.64,6.31,1.36,6.32,1.37,-1.37,-1.17,-1.52,4.94,4.95,4.95
55.18,6.31,1.36,6.32,1.37,-1.37,-1.19,-1.56,4.93,4.94,4.94
55.74,6.31,1.38,6.31,1.38,-1.38,-1.22,-1.61,4.92,4.93,4.93
56.29,6.31,1.39,6.31,1.39,-1.39,-1.24,-1.65,4.92,4.92,4.91
56.86,6.31,1.40,6.31,1.40,-1.40,-1.27,-1.69,4.90,4.90,4.91
57.42,6.31,1.43,6.31,1.42,-1.42,-1.30,-1.73,4.89,4.89,4.87
58.00,6.31,1.44,6.31,1.44,-1.44,-1.32,-1.77,4.87,4.87,4.87
58.58,6.31,1.45,6.31,1.46,-1.46,-1.35,-1.80,4.85,4.85,4.86
59.16,6.31,1.47,6.31,1.49,-1.49,-1.38,-1.84,4.82,4.82,4.83
59.76,6.31,1.49,6.31,1.51,-1.51,-1.41,-1.87,4.79,4.79,4.82
60.35,6.31,1.53,6.31,1.54,-1.54,-1.44,-1.91,4.76,4.76,4.77
60.96,6.31,1.57,6.31,1.58,-1.58,-1.46,-1.94,4.73,4.73,4.74
61.57,6.31,1.61,6.31,1.61,-1.61,-1.49,-1.97,4.69,4.69,4.70
62.18,6.31,1.65,6.31,1.65,-1.65,-1.52,-2.00,4.65,4.65,4.65
62.80,6.31,1.70,6.31,1.69,-1.69,-1.55,-2.02,4.61,4.61,4.60
63.43,6.31,1.74,6.31,1.74,-1.74,-1.58,-2.05,4.57,4.57,4.56
64.07,6.31,1.79,6.31,1.78,-1.78,-1.62,-2.07,4.53,4.53,4.52
64.71,6.31,1.83,6.31,1.83,-1.83,-1.65,-2.09,4.48,4.48,4.48
65.35,6.31,1.87,6.31,1.88,-1.88,-1.68,-2.11,4.43,4.43,4.43
66.01,6.31,1.92,6.31,1.93,-1.93,-1.71,-2.13,4.38,4.39,4.39
66.67,6.31,1.97,6.31,1.98,-1.98,-1.74,-2.15,4.33,4.34,4.34
67.33,6.31,2.02,6.31,2.02,-2.02,-1.78,-2.17,4.29,4.29,4.28
68.01,6.31,2.06,6.31,2.07,-2.07,-1.81,-2.18,4.24,4.24,4.25
68.69,6.31,2.11,6.30,2.11,-2.11,-1.84,-2.20,4.20,4.19,4.20
69.37,6.31,2.16,6.30,2.16,-2.16,-1.88,-2.21,4.15,4.14,4.14
70.07,6.31,2.21,6.29,2.20,-2.20,-1.91,-2.23,4.11,4.09,4.10
70.77,6.31,2.26,6.28,2.24,-2.24,-1.95,-2.24,4.06,4.04,4.05
71.48,6.31,2.31,6.27,2.29,-2.29,-1.98,-2.26,4.02,3.98,4.00
72.19,6.29,2.36,6.26,2.34,-2.34,-2.02,-2.27,3.95,3.92,3.92
72.91,6.22,2.35,6.25,2.38,-2.38,-2.06,-2.29,3.83,3.87,3.86
73.64,6.21,2.39,6.24,2.43,-2.43,-2.09,-2.30,3.78,3.81,3.81
74.38,6.21,2.45,6.24,2.48,-2.48,-2.13,-2.32,3.73,3.76,3.76
75.12,6.21,2.51,6.23,2.53,-2.53,-2.17,-2.34,3.68,3.70,3.69
75.87,6.21,2.57,6.22,2.58,-2.58,-2.21,-2.35,3.63,3.65,3.63
76.63,6.21,2.62,6.21,2.62,-2.62,-2.25,-2.37,3.58,3.59,3.58
77.40,6.21,2.67,6.20,2.67,-2.67,-2.28,-2.39,3.54,3.54,3.54
78.17,6.21,2.73,6.19,2.71,-2.71,-2.32,-2.42,3.50,3.48,3.47
78.95,6.21,2.77,6.18,2.75,-2.75,-2.36,-2.44,3.46,3.43,3.43
79.74,6.21,2.82,6.18,2.79,-2.79,-2.40,-2.46,3.41,3.38,3.38
80.54,6.21,2.87,6.17,2.83,-2.83,-2.45,-2.49,3.37,3.34,3.33
81.35,6.20,2.91,6.17,2.88,-2.88,-2.49,-2.52,3.32,3.29,3.29
82.16,6.16,2.92,6.16,2.92,-2.92,-2.53,-2.55,3.24,3.24,3.23
82.98,6.11,2.91,6.15,2.96,-2.96,-2.57,-2.58,3.15,3.19,3.19
83.81,6.11,2.96,6.14,3.00,-3.00,-2.61,-2.61,3.11,3.14,3.14
84.65,6.11,3.01,6.13,3.04,-3.04,-2.65,-2.65,3.07,3.10,3.09
85.50,6.11,3.05,6.12,3.08,-3.08,-2.70,-2.69,3.03,3.05,3.06
86.35,6.11,3.10,6.11,3.11,-3.11,-2.74,-2.73,2.99,3.00,3.00
87.22,6.11,3.15,6.10,3.15,-3.15,-2.78,-2.77,2.95,2.95,2.96
88.09,6.11,3.20,6.09,3.19,-3.19,-2.83,-2.81,2.92,2.90,2.91
88.97,6.12,3.27,6.08,3.23,-3.23,-2.87,-2.86,2.88,2.85,2.85
89.86,6.12,3.32,6.08,3.28,-3.28,-2.92,-2.91,2.84,2.80,2.80
90.76,6.09,3.34,6.07,3.33,-3.33,-2.96,-2.96,2.76,2.75,2.75
91.66,6.04,3.34,6.07,3.37,-3.37,-3.01,-3.01,2.66,2.70,2.69
92.58,6.02,3.38,6.06,3.41,-3.41,-3.05,-3.07,2.60,2.64,2.63
93.51,6.02,3.43,6.05,3.45,-3.45,-3.10,-3.13,2.56,2.59,2.59
94.44,6.02,3.47,6.03,3.49,-3.49,-3.14,-3.19,2.53,2.54,2.54
95.39,6.02,3.52,6.01,3.52,-3.52,-3.19,-3.25,2.50,2.49,2.50
96.34,6.02,3.57,6.00,3.55,-3.55,-3.23,-3.31,2.47,2.45,2.44
97.30,6.01,3.61,5.98,3.58,-3.58,-3.28,-3.38,2.43,2.40,2.39
98.28,6.00,3.65,5.95,3.61,-3.61,-3.33,-3.44,2.39,2.35,2.35
99.26,5.97,3.66,5.93,3.63,-3.63,-3.37,-3.51,2.34,2.30,2.31
100.25,5.91,3.65,5.91,3.66,-3.66,-3.42,-3.58,2.25,2.25,2.25
101.25,5.86,3.65,5.90,3.69,-3.69,-3.46,-3.65,2.17,2.21,2.20
102.27,5.85,3.69,5.87,3.72,-3.72,-3.51,-3.72,2.13,2.16,2.16
103.29,5.83,3.72,5.85,3.74,-3.74,-3.56,-3.79,2.09,2.11,2.11
104.32,5.81,3.74,5.82,3.76,-3.76,-3.60,-3.86,2.05,2.06,2.06
105.37,5.79,3.77,5.78,3.78,-3.78,-3.65,-3.94,2.01,2.01,2.02
106.42,5.77,3.80,5.75,3.80,-3.80,-3.69,-4.01,1.97,1.96,1.97
107.48,5.74,3.83,5.72,3.82,-3.82,-3.74,-4.08,1.92,1.90,1.90
108.56,5.72,3.86,5.69,3.84,-3.84,-3.78,-4.15,1.88,1.85,1.86
109.64,5.70,3.89,5.67,3.87,-3.87,-3.83,-4.22,1.83,1.80,1.80
110.74,5.68,3.93,5.65,3.90,-3.90,-3.87,-4.28,1.77,1.75,1.74
111.85,5.62,3.91,5.64,3.94,-3.94,-3.91,-4.35,1.68,1.70,1.71
112.97,5.55,3.90,5.62,3.97,-3.97,-3.96,-4.41,1.58,1.65,1.65
114.10,5.54,3.94,5.60,4.00,-4.00,-4.00,-4.47,1.54,1.60,1.60
115.24,5.55,4.00,5.57,4.02,-4.02,-4.04,-4.52,1.53,1.55,1.55
116.39,5.55,4.05,5.55,4.05,-4.05,-4.08,-4.57,1.50,1.51,1.50
117.55,5.55,4.09,5.53,4.07,-4.07,-4.12,-4.62,1.48,1.46,1.45
118.73,5.56,4.14,5.52,4.10,-4.10,-4.16,-4.66,1.46,1.42,1.42
119.92,5.56,4.17,5.51,4.12,-4.12,-4.20,-4.69,1.43,1.39,1.39
121.12,5.55,4.20,5.50,4.15,-4.15,-4.24,-4.72,1.40,1.35,1.35
122.33,5.50,4.18,5.48,4.17,-4.17,-4.28,-4.75,1.33,1.32,1.32
123.55,5.44,4.15,5.47,4.18,-4.18,-4.31,-4.77,1.25,1.28,1.29
124.79,5.40,4.14,5.45,4.20,-4.20,-4.35,-4.78,1.20,1.25,1.26
126.03,5.41,4.18,5.44,4.21,-4.21,-4.38,-4.79,1.19,1.22,1.22
127.29,5.41,4.20,5.42,4.22,-4.22,-4.41,-4.79,1.18,1.19,1.20
128.57,5.42,4.25,5.40,4.23,-4.23,-4.44,-4.79,1.18,1.16,1.17
129.85,5.43,4.29,5.38,4.24,-4.24,-4.47,-4.78,1.18,1.13,1.13
131.15,5.39,4.28,5.35,4.25,-4.25,-4.50,-4.76,1.14,1.11,1.10
132.46,5.34,4.26,5.33,4.25,-4.25,-4.53,-4.74,1.09,1.08,1.07
133.79,5.26,4.21,5.30,4.26,-4.26,-4.56,-4.72,1.00,1.05,1.05
135.12,5.25,4.23,5.28,4.26,-4.26,-4.58,-4.69,0.99,1.02,1.01
136.48,5.25,4.25,5.26,4.27,-4.27,-4.61,-4.65,0.98,0.99,1.00
137.84,5.26,4.30,5.24,4.27,-4.27,-4.63,-4.62,0.98,0.97,0.95
139.22,5.26,4.33,5.21,4.28,-4.28,-4.65,-4.58,0.98,0.94,0.93
140.61,5.22,4.32,5.19,4.28,-4.28,-4.67,-4.53,0.94,0.91,0.89
142.02,5.16,4.28,5.16,4.28,-4.28,-4.68,-4.49,0.87,0.88,0.88
143.44,5.10,4.25,5.13,4.29,-4.29,-4.70,-4.44,0.81,0.84,0.85
144.87,5.07,4.26,5.11,4.31,-4.31,-4.71,-4.39,0.76,0.80,0.80
146.32,5.07,4.30,5.09,4.33,-4.33,-4.72,-4.35,0.74,0.76,0.76
147.78,5.07,4.33,5.06,4.36,-4.36,-4.73,-4.30,0.71,0.71,0.73
149.26,5.05,4.36,5.04,4.38,-4.38,-4.74,-4.25,0.66,0.66,0.68
150.75,4.99,4.36,5.01,4.41,-4.41,-4.75,-4.20,0.58,0.60,0.62
152.26,4.98,4.42,4.97,4.43,-4.43,-4.75,-4.15,0.54,0.54,0.55
153.78,4.97,4.48,4.93,4.46,-4.46,-4.75,-4.10,0.51,0.47,0.48
155.32,4.91,4.49,4.88,4.48,-4.48,-4.75,-4.05,0.42,0.40,0.41
156.88,4.88,4.54,4.84,4.51,-4.51,-4.75,-4.01,0.36,0.33,0.34
158.44,4.84,4.58,4.80,4.54,-4.54,-4.75,-3.96,0.29,0.26,0.25
160.03,4.78,4.60,4.76,4.57,-4.57,-4.74,-3.92,0.21,0.19,0.18
161.63,4.71,4.60,4.71,4.58,-4.58,-4.74,-3.88,0.12,0.13,0.11
163.24,4.66,4.61,4.66,4.59,-4.59,-4.73,-3.84,0.06,0.07,0.04
164.88,4.59,4.59,4.61,4.60,-4.60,-4.72,-3.81,-0.01,0.01,-0.00
166.53,4.53,4.58,4.57,4.61,-4.61,-4.71,-3.78,-0.08,-0.04,-0.05
168.19,4.49,4.58,4.53,4.61,-4.61,-4.69,-3.75,-0.12,-0.08,-0.10
169.87,4.47,4.60,4.49,4.61,-4.61,-4.68,-3.72,-0.14,-0.11,-0.14
171.57,4.46,4.61,4.46,4.60,-4.60,-4.66,-3.69,-0.14,-0.14,-0.16
173.29,4.45,4.61,4.43,4.58,-4.58,-4.64,-3.67,-0.13,-0.16,-0.16
175.02,4.40,4.57,4.40,4.57,-4.57,-4.62,-3.65,-0.17,-0.17,-0.18
176.77,4.34,4.52,4.37,4.55,-4.55,-4.60,-3.64,-0.22,-0.18,-0.19
178.54,4.35,4.54,4.36,4.55,-4.55,-4.57,-3.62,-0.20,-0.19,-0.19
180.32,4.35,4.53,4.35,4.54,-4.54,-4.55,-3.61,-0.19,-0.19,-0.18
182.13,4.36,4.53,4.33,4.53,-4.53,-4.52,-3.60,-0.17,-0.20,-0.18
183.95,4.39,4.57,4.31,4.51,-4.51,-4.49,-3.60,-0.12,-0.20,-0.18
185.79,4.29,4.47,4.29,4.50,-4.50,-4.46,-3.60,-0.21,-0.21,-0.18
187.65,4.21,4.41,4.26,4.48,-4.48,-4.43,-3.60,-0.28,-0.22,-0.20
189.52,4.21,4.42,4.24,4.47,-4.47,-4.40,-3.60,-0.27,-0.23,-0.22
191.42,4.23,4.46,4.22,4.46,-4.46,-4.36,-3.60,-0.23,-0.24,-0.23
193.33,4.24,4.49,4.20,4.45,-4.45,-4.33,-3.61,-0.21,-0.26,-0.26
195.27,4.21,4.48,4.17,4.44,-4.44,-4.29,-3.62,-0.24,-0.27,-0.27
197.22,4.17,4.46,4.13,4.42,-4.42,-4.26,-3.63,-0.26,-0.29,-0.29
199.19,4.06,4.37,4.09,4.40,-4.40,-4.22,-3.65,-0.34,-0.31,-0.31
201.18,3.98,4.31,4.05,4.38,-4.38,-4.18,-3.66,-0.40,-0.33,-0.34
203.19,4.01,4.36,4.01,4.36,-4.36,-4.14,-3.68,-0.35,-0.35,-0.36
205.23,4.04,4.41,3.97,4.35,-4.35,-4.10,-3.70,-0.31,-0.37,-0.37
207.28,3.99,4.37,3.94,4.33,-4.33,-4.06,-3.72,-0.34,-0.39,-0.38
209.35,3.92,4.32,3.90,4.31,-4.31,-4.02,-3.74,-0.39,-0.41,-0.41
211.44,3.81,4.24,3.85,4.28,-4.28,-3.97,-3.76,-0.48,-0.43,-0.44
213.56,3.78,4.22,3.81,4.25,-4.25,-3.93,-3.78,-0.48,-0.44,-0.44
215.69,3.71,4.16,3.76,4.22,-4.22,-3.89,-3.80,-0.51,-0.46,-0.46
217.85,3.65,4.11,3.72,4.19,-4.19,-3.84,-3.82,-0.55,-0.47,-0.47
220.03,3.72,4.19,3.68,4.16,-4.16,-3.80,-3.84,-0.44,-0.48,-0.47
222.23,3.74,4.24,3.64,4.13,-4.13,-3.75,-3.86,-0.39,-0.48,-0.50
224.45,3.65,4.14,3.60,4.09,-4.09,-3.71,-3.87,-0.44,-0.49,-0.49
226.70,3.57,4.06,3.56,4.04,-4.04,-3.66,-3.89,-0.48,-0.49,-0.49
228.96,3.45,3.93,3.51,3.99,-3.99,-3.61,-3.90,-0.54,-0.48,-0.48
231.25,3.50,3.97,3.47,3.94,-3.94,-3.57,-3.91,-0.45,-0.47,-0.47
233.57,3.45,3.91,3.43,3.90,-3.90,-3.52,-3.92,-0.45,-0.46,-0.47
235.90,3.36,3.81,3.40,3.85,-3.85,-3.48,-3.92,-0.49,-0.45,-0.45
238.26,3.36,3.80,3.37,3.80,-3.80,-3.43,-3.92,-0.44,-0.43,-0.44
240.64,3.32,3.73,3.33,3.74,-3.74,-3.38,-3.92,-0.43,-0.41,-0.41
243.05,3.28,3.66,3.29,3.68,-3.68,-3.33,-3.91,-0.40,-0.39,-0.39
245.48,3.24,3.60,3.25,3.61,-3.61,-3.29,-3.90,-0.38,-0.37,-0.36
247.93,3.25,3.58,3.21,3.55,-3.55,-3.24,-3.88,-0.31,-0.34,-0.33
250.41,3.12,3.43,3.17,3.50,-3.50,-3.19,-3.86,-0.38,-0.32,-0.31
252.92,3.11,3.39,3.14,3.44,-3.44,-3.15,-3.83,-0.33,-0.30,-0.29
255.45,3.16,3.42,3.11,3.38,-3.38,-3.10,-3.80,-0.22,-0.27,-0.27
258.00,3.13,3.37,3.06,3.31,-3.31,-3.05,-3.77,-0.18,-0.25,-0.24
260.58,3.07,3.29,3.01,3.23,-3.23,-3.01,-3.73,-0.17,-0.22,-0.22
263.19,3.02,3.21,2.96,3.16,-3.16,-2.96,-3.68,-0.14,-0.20,-0.20
265.82,2.88,3.05,2.92,3.09,-3.09,-2.92,-3.63,-0.21,-0.17,-0.17
268.48,2.85,3.00,2.88,3.03,-3.03,-2.87,-3.58,-0.18,-0.15,-0.16
271.16,2.84,2.96,2.84,2.96,-2.96,-2.82,-3.53,-0.12,-0.12,-0.12
273.87,2.82,2.92,2.80,2.90,-2.90,-2.78,-3.47,-0.08,-0.10,-0.10
276.61,2.73,2.80,2.76,2.84,-2.84,-2.73,-3.41,-0.11,-0.07,-0.07
279.38,2.72,2.76,2.74,2.78,-2.78,-2.69,-3.34,-0.06,-0.05,-0.05
282.17,2.65,2.67,2.70,2.72,-2.72,-2.64,-3.28,-0.07,-0.02,-0.02
284.99,2.55,2.53,2.67,2.66,-2.66,-2.60,-3.21,-0.11,0.01,0.02
287.84,2.58,2.54,2.64,2.60,-2.60,-2.55,-3.14,-0.02,0.04,0.04
290.72,2.75,2.68,2.62,2.55,-2.55,-2.51,-3.07,0.19,0.07,0.07
293.63,2.70,2.60,2.61,2.51,-2.51,-2.47,-2.99,0.19,0.10,0.10
296.57,2.60,2.47,2.59,2.46,-2.46,-2.42,-2.92,0.14,0.13,0.12
299.53,2.59,2.43,2.57,2.41,-2.41,-2.38,-2.85,0.17,0.15,0.16
302.53,2.56,2.38,2.56,2.38,-2.38,-2.34,-2.77,0.18,0.18,0.17
305.55,2.53,2.31,2.54,2.34,-2.34,-2.30,-2.70,0.19,0.21,0.22
308.61,2.52,2.28,2.52,2.29,-2.29,-2.26,-2.62,0.23,0.23,0.23
311.69,2.44,2.17,2.49,2.24,-2.24,-2.21,-2.55,0.20,0.26,0.27
314.81,2.44,2.15,2.46,2.18,-2.18,-2.17,-2.48,0.25,0.28,0.29
317.96,2.44,2.13,2.42,2.12,-2.12,-2.13,-2.40,0.31,0.30,0.31
321.14,2.42,2.10,2.37,2.05,-2.05,-2.09,-2.33,0.37,0.32,0.32
324.35,2.36,2.02,2.32,1.99,-1.99,-2.05,-2.26,0.37,0.33,0.34
327.59,2.31,1.96,2.29,1.94,-1.94,-2.01,-2.19,0.36,0.35,0.35
330.87,2.33,1.97,2.25,1.89,-1.89,-1.97,-2.12,0.44,0.36,0.36
334.18,2.28,1.90,2.20,1.82,-1.82,-1.94,-2.05,0.45,0.37,0.37
337.52,2.04,1.65,2.15,1.77,-1.77,-1.90,-1.98,0.27,0.38,0.39
340.90,1.98,1.58,2.10,1.71,-1.71,-1.86,-1.92,0.27,0.39,0.39
344.30,2.03,1.62,2.05,1.65,-1.65,-1.82,-1.85,0.38,0.40,0.41
347.75,2.00,1.59,2.00,1.59,-1.59,-1.78,-1.79,0.40,0.40,0.41
351.23,1.96,1.54,1.94,1.53,-1.53,-1.75,-1.73,0.42,0.41,0.41
354.74,1.93,1.52,1.89,1.48,-1.48,-1.71,-1.67,0.45,0.41,0.41
358.28,1.95,1.53,1.84,1.43,-1.43,-1.67,-1.61,0.52,0.42,0.42
361.87,1.82,1.40,1.80,1.38,-1.38,-1.64,-1.55,0.43,0.42,0.42
365.49,1.62,1.19,1.75,1.34,-1.34,-1.60,-1.49,0.28,0.42,0.42
369.14,1.70,1.28,1.71,1.29,-1.29,-1.57,-1.44,0.41,0.42,0.42
372.83,1.71,1.29,1.67,1.26,-1.26,-1.53,-1.38,0.45,0.42,0.41
376.56,1.62,1.21,1.64,1.23,-1.23,-1.50,-1.33,0.39,0.41,0.41
380.33,1.58,1.16,1.58,1.17,-1.17,-1.46,-1.27,0.40,0.41,0.41
384.13,1.54,1.12,1.52,1.12,-1.12,-1.43,-1.22,0.42,0.41,0.42
387.97,1.52,1.11,1.47,1.07,-1.07,-1.39,-1.17,0.45,0.40,0.41
391.85,1.46,1.06,1.42,1.02,-1.02,-1.36,-1.13,0.44,0.40,0.40
395.77,1.41,1.00,1.37,0.97,-0.97,-1.33,-1.08,0.43,0.39,0.41
399.73,1.36,0.96,1.33,0.94,-0.94,-1.29,-1.03,0.42,0.39,0.40
403.72,1.29,0.89,1.30,0.92,-0.92,-1.26,-0.99,0.37,0.38,0.39
407.76,1.25,0.87,1.26,0.88,-0.88,-1.23,-0.94,0.37,0.38,0.38
411.84,1.22,0.84,1.21,0.84,-0.84,-1.19,-0.90,0.38,0.37,0.38
415.96,1.08,0.70,1.19,0.81,-0.81,-1.16,-0.86,0.27,0.37,0.38
420.12,1.06,0.68,1.17,0.79,-0.79,-1.13,-0.82,0.27,0.38,0.38
424.32,1.14,0.76,1.14,0.76,-0.76,-1.09,-0.78,0.38,0.38,0.38
428.56,1.16,0.77,1.12,0.73,-0.73,-1.06,-0.74,0.43,0.39,0.39
432.85,1.17,0.77,1.12,0.72,-0.72,-1.03,-0.70,0.45,0.41,0.39
437.18,1.20,0.79,1.14,0.71,-0.71,-1.00,-0.66,0.49,0.43,0.40
441.55,1.21,0.76,1.16,0.71,-0.71,-0.97,-0.63,0.50,0.45,0.44
445.96,1.11,0.63,1.20,0.71,-0.71,-0.93,-0.59,0.40,0.49,0.48
450.42,1.12,0.61,1.23,0.71,-0.71,-0.90,-0.56,0.41,0.52,0.51
454.93,1.26,0.70,1.26,0.69,-0.69,-0.87,-0.53,0.56,0.56,0.55
459.48,1.35,0.75,1.29,0.68,-0.68,-0.84,-0.49,0.67,0.61,0.59
464.07,1.22,0.57,1.33,0.68,-0.68,-0.81,-0.46,0.54,0.65,0.65
468.71,1.27,0.56,1.36,0.66,-0.66,-0.77,-0.44,0.61,0.70,0.71
473.40,1.51,0.76,1.37,0.62,-0.62,-0.74,-0.41,0.88,0.75,0.74
478.13,1.58,0.77,1.40,0.60,-0.60,-0.71,-0.38,0.98,0.80,0.81
482.91,1.48,0.63,1.43,0.58,-0.58,-0.68,-0.35,0.89,0.84,0.85
487.74,1.48,0.59,1.46,0.57,-0.57,-0.65,-0.33,0.91,0.88,0.89
492.62,1.42,0.48,1.48,0.56,-0.56,-0.61,-0.31,0.86,0.92,0.94
497.55,1.34,0.38,1.48,0.53,-0.53,-0.58,-0.28,0.81,0.95,0.95
502.52,1.42,0.43,1.47,0.49,-0.49,-0.55,-0.26,0.92,0.97,0.99
507.55,1.49,0.49,1.45,0.46,-0.46,-0.52,-0.24,1.02,0.99,0.99
512.62,1.51,0.50,1.42,0.43,-0.43,-0.48,-0.22,1.08,0.99,1.01
517.75,1.33,0.31,1.38,0.39,-0.39,-0.45,-0.20,0.94,0.99,1.02
522.93,1.38,0.37,1.32,0.34,-0.34,-0.42,-0.18,1.04,0.98,1.01
528.16,1.43,0.45,1.27,0.31,-0.31,-0.38,-0.17,1.11,0.96,0.98
533.44,1.33,0.38,1.23,0.30,-0.30,-0.35,-0.15,1.03,0.93,0.95
538.77,1.19,0.27,1.18,0.28,-0.28,-0.32,-0.14,0.90,0.89,0.91
