frequency,raw,error,smoothed,error_smoothed,equalization,parametric_eq,fixed_band_eq,equalized_raw,equalized_smoothed,target
20.00,-20.56,-16.52,-20.56,-16.52,16.52,15.93,5.72,-4.04,-4.04,-4.04
20.20,-20.43,-16.48,-20.43,-16.48,16.48,15.88,5.86,-3.95,-3.95,-3.95
20.40,-20.29,-16.42,-20.29,-16.42,16.43,15.82,6.00,-3.86,-3.87,-3.87
20.61,-20.16,-16.36,-20.16,-16.37,16.37,15.77,6.15,-3.79,-3.79,-3.80
20.81,-20.02,-16.31,-20.02,-16.31,16.31,15.71,6.30,-3.71,-3.71,-3.71
21.02,-19.89,-16.26,-19.89,-16.25,16.25,15.66,6.46,-3.64,-3.64,-3.63
21.23,-19.75,-16.18,-19.75,-16.19,16.18,15.60,6.62,-3.57,-3.57,-3.57
21.44,-19.62,-16.11,-19.62,-16.11,16.11,15.54,6.79,-3.51,-3.51,-3.51
21.66,-19.48,-16.02,-19.48,-16.02,16.03,15.49,6.95,-3.45,-3.45,-3.46
21.87,-19.35,-15.94,-19.35,-15.94,15.94,15.43,7.13,-3.40,-3.40,-3.41
22.09,-19.21,-15.85,-19.21,-15.86,15.86,15.37,7.30,-3.35,-3.36,-3.36
22.31,-19.08,-15.77,-19.08,-15.77,15.76,15.30,7.49,-3.31,-3.31,-3.31
22.54,-18.94,-15.67,-18.94,-15.67,15.67,15.24,7.67,-3.27,-3.27,-3.27
22.76,-18.80,-15.57,-18.80,-15.57,15.57,15.18,7.87,-3.22,-3.23,-3.23
22.99,-18.67,-15.47,-18.67,-15.47,15.48,15.12,8.06,-3.19,-3.19,-3.20
23.22,-18.53,-15.37,-18.53,-15.38,15.38,15.05,8.27,-3.15,-3.15,-3.16
23.45,-18.40,-15.28,-18.40,-15.28,15.28,14.99,8.47,-3.11,-3.11,-3.12
23.69,-18.26,-15.18,-18.26,-15.18,15.18,14.92,8.69,-3.08,-3.08,-3.08
23.92,-18.12,-15.08,-18.12,-15.09,15.08,14.86,8.91,-3.03,-3.04,-3.04
24.16,-17.99,-15.00,-17.98,-14.99,14.98,14.79,9.13,-3.00,-3.00,-2.99
24.40,-17.85,-14.89,-17.85,-14.89,14.88,14.72,9.36,-2.96,-2.97,-2.96
24.65,-17.71,-14.77,-17.71,-14.78,14.78,14.65,9.60,-2.93,-2.93,-2.94
24.89,-17.58,-14.67,-17.58,-14.67,14.68,14.58,9.83,-2.90,-2.90,-2.91
25.14,-17.44,-14.57,-17.44,-14.57,14.57,14.51,10.08,-2.86,-2.87,-2.87
25.39,-17.31,-14.47,-17.31,-14.47,14.47,14.44,10.33,-2.84,-2.84,-2.84
25.65,-17.17,-14.37,-17.17,-14.37,14.37,14.37,10.58,-2.80,-2.80,-2.80
25.91,-17.04,-14.26,-17.04,-14.26,14.26,14.29,10.84,-2.78,-2.77,-2.78
26.16,-16.90,-14.15,-16.90,-14.16,14.16,14.22,11.10,-2.74,-2.74,-2.75
26.43,-16.77,-14.06,-16.77,-14.06,14.06,14.14,11.37,-2.71,-2.71,-2.71
26.69,-16.64,-13.96,-16.64,-13.96,13.96,14.06,11.63,-2.68,-2.68,-2.68
26.96,-16.50,-13.85,-16.50,-13.86,13.85,13.99,11.90,-2.65,-2.65,-2.65
27.23,-16.37,-13.75,-16.37,-13.75,13.75,13.91,12.17,-2.62,-2.62,-2.62
27.50,-16.23,-13.64,-16.23,-13.64,13.64,13.83,12.44,-2.59,-2.59,-2.59
27.77,-16.10,-13.53,-16.10,-13.54,13.54,13.75,12.70,-2.56,-2.56,-2.57
28.05,-15.97,-13.44,-15.97,-13.44,13.44,13.67,12.96,-2.53,-2.53,-2.53
28.33,-15.84,-13.33,-15.84,-13.33,13.33,13.59,13.21,-2.50,-2.50,-2.51
28.62,-15.71,-13.23,-15.71,-13.23,13.23,13.50,13.45,-2.48,-2.47,-2.48
28.90,-15.57,-13.13,-15.58,-13.13,13.13,13.42,13.68,-2.44,-2.44,-2.44
29.19,-15.45,-13.03,-15.45,-13.04,13.04,13.33,13.90,-2.41,-2.41,-2.42
29.48,-15.32,-12.95,-15.32,-12.94,12.94,13.25,14.09,-2.38,-2.38,-2.37
29.78,-15.19,-12.83,-15.20,-12.84,12.85,13.16,14.27,-2.34,-2.35,-2.36
30.08,-15.07,-12.74,-15.07,-12.75,12.75,13.07,14.41,-2.32,-2.32,-2.33
30.38,-14.96,-12.66,-14.96,-12.66,12.66,12.98,14.54,-2.30,-2.30,-2.30
30.68,-14.84,-12.57,-14.84,-12.57,12.57,12.89,14.63,-2.27,-2.28,-2.27
30.99,-14.73,-12.48,-14.73,-12.48,12.48,12.80,14.70,-2.25,-2.25,-2.25
31.30,-14.61,-12.38,-14.61,-12.39,12.38,12.71,14.72,-2.23,-2.23,-2.23
31.61,-14.49,-12.29,-14.49,-12.29,12.29,12.62,14.73,-2.20,-2.20,-2.20
31.93,-14.38,-12.20,-14.38,-12.20,12.20,12.52,14.69,-2.18,-2.17,-2.18
32.24,-14.26,-12.10,-14.26,-12.11,12.11,12.43,14.63,-2.15,-2.15,-2.16
32.57,-14.14,-12.01,-14.14,-12.01,12.02,12.33,14.53,-2.12,-2.13,-2.13
32.89,-14.03,-11.92,-14.03,-11.92,11.92,12.24,14.42,-2.11,-2.11,-2.11
33.22,-13.92,-11.83,-13.92,-11.83,11.83,12.14,14.28,-2.09,-2.09,-2.09
33.55,-13.81,-11.74,-13.81,-11.74,11.73,12.04,14.12,-2.07,-2.07,-2.07
33.89,-13.70,-11.64,-13.70,-11.64,11.64,11.94,13.94,-2.06,-2.06,-2.06
34.23,-13.58,-11.54,-13.58,-11.54,11.54,11.84,13.75,-2.04,-2.04,-2.04
34.57,-13.47,-11.44,-13.47,-11.44,11.45,11.74,13.55,-2.02,-2.02,-2.03
34.92,-13.36,-11.34,-13.36,-11.35,11.35,11.64,13.34,-2.01,-2.01,-2.02
35.27,-13.25,-11.25,-13.25,-11.25,11.25,11.53,13.12,-2.00,-2.01,-2.00
35.62,-13.15,-11.14,-13.15,-11.15,11.15,11.43,12.90,-2.00,-2.00,-2.01
35.97,-13.05,-11.05,-13.05,-11.05,11.04,11.33,12.67,-2.00,-2.00,-2.00
36.33,-12.94,-10.96,-12.93,-10.95,10.94,11.22,12.45,-2.00,-1.99,-1.98
36.70,-12.82,-10.83,-12.82,-10.84,10.84,11.12,12.23,-1.98,-1.98,-1.99
37.06,-12.71,-10.72,-12.72,-10.73,10.74,11.01,12.01,-1.97,-1.98,-1.99
37.43,-12.62,-10.63,-12.61,-10.63,10.64,10.90,11.79,-1.98,-1.98,-1.99
37.81,-12.52,-10.53,-12.52,-10.53,10.53,10.79,11.58,-1.99,-1.99,-1.99
38.19,-12.42,-10.43,-12.42,-10.43,10.43,10.68,11.37,-1.99,-1.99,-1.99
38.57,-12.32,-10.33,-12.32,-10.33,10.33,10.57,11.17,-1.99,-1.99,-1.99
38.95,-12.22,-10.23,-12.22,-10.23,10.23,10.46,10.97,-1.99,-1.99,-1.99
39.34,-12.13,-10.12,-12.13,-10.12,10.13,10.35,10.78,-2.00,-2.00,-2.01
39.74,-12.03,-10.02,-12.03,-10.02,10.03,10.24,10.59,-2.00,-2.01,-2.01
40.14,-11.94,-9.92,-11.94,-9.92,9.93,10.13,10.41,-2.01,-2.01,-2.02
40.54,-11.85,-9.83,-11.85,-9.83,9.83,10.02,10.24,-2.02,-2.02,-2.02
40.94,-11.75,-9.72,-11.75,-9.73,9.73,9.91,10.07,-2.02,-2.03,-2.03
41.35,-11.66,-9.63,-11.66,-9.63,9.63,9.79,9.91,-2.03,-2.03,-2.03
41.76,-11.57,-9.53,-11.57,-9.53,9.53,9.68,9.76,-2.04,-2.04,-2.04
42.18,-11.48,-9.43,-11.48,-9.43,9.43,9.57,9.61,-2.04,-2.04,-2.05
42.60,-11.39,-9.33,-11.39,-9.34,9.34,9.46,9.47,-2.05,-2.05,-2.06
43.03,-11.30,-9.24,-11.30,-9.24,9.24,9.34,9.34,-2.06,-2.06,-2.06
43.46,-11.22,-9.15,-11.22,-9.15,9.14,9.23,9.21,-2.08,-2.08,-2.07
43.90,-11.13,-9.04,-11.13,-9.05,9.04,9.12,9.09,-2.09,-2.09,-2.09
44.33,-11.05,-8.94,-11.05,-8.94,8.95,9.01,8.97,-2.10,-2.10,-2.11
44.78,-10.96,-8.84,-10.96,-8.84,8.85,8.90,8.86,-2.11,-2.11,-2.12
45.23,-10.88,-8.75,-10.88,-8.75,8.75,8.79,8.76,-2.13,-2.13,-2.13
45.68,-10.79,-8.65,-10.79,-8.66,8.66,8.68,8.66,-2.13,-2.14,-2.14
46.13,-10.71,-8.56,-10.71,-8.56,8.56,8.57,8.57,-2.15,-2.15,-2.15
46.60,-10.62,-8.47,-10.62,-8.47,8.47,8.46,8.48,-2.15,-2.15,-2.15
47.06,-10.54,-8.38,-10.54,-8.38,8.38,8.35,8.40,-2.16,-2.16,-2.16
47.53,-10.45,-8.28,-10.45,-8.29,8.29,8.24,8.33,-2.16,-2.16,-2.17
48.01,-10.36,-8.19,-10.37,-8.20,8.20,8.13,8.26,-2.16,-2.17,-2.17
48.49,-10.29,-8.11,-10.29,-8.11,8.11,8.03,8.19,-2.18,-2.18,-2.18
48.97,-10.21,-8.02,-10.21,-8.02,8.02,7.93,8.13,-2.19,-2.19,-2.19
49.46,-10.14,-7.93,-10.14,-7.94,7.94,7.82,8.08,-2.20,-2.20,-2.21
49.96,-10.07,-7.85,-10.07,-7.86,7.86,7.72,8.02,-2.21,-2.21,-2.22
50.46,-9.99,-7.78,-9.99,-7.78,7.78,7.62,7.98,-2.22,-2.22,-2.21
50.96,-9.91,-7.70,-9.91,-7.70,7.70,7.53,7.93,-2.21,-2.21,-2.21
51.47,-9.83,-7.61,-9.83,-7.62,7.62,7.43,7.89,-2.21,-2.21,-2.22
51.99,-9.75,-7.53,-9.75,-7.54,7.54,7.33,7.85,-2.21,-2.21,-2.22
52.51,-9.68,-7.46,-9.68,-7.46,7.47,7.24,7.81,-2.21,-2.21,-2.22
53.03,-9.61,-7.39,-9.61,-7.39,7.39,7.15,7.78,-2.22,-2.22,-2.22
53.56,-9.54,-7.32,-9.54,-7.32,7.31,7.06,7.75,-2.23,-2.23,-2.22
54.10,-9.47,-7.24,-9.47,-7.24,7.23,6.98,7.71,-2.24,-2.23,-2.23
54.64,-9.39,-7.15,-9.39,-7.16,7.15,6.89,7.68,-2.24,-2.24,-2.24
55.18,-9.32,-7.07,-9.32,-7.07,7.07,6.81,7.65,-2.24,-2.24,-2.25
55.74,-9.25,-6.98,-9.25,-6.99,6.99,6.73,7.62,-2.26,-2.26,-2.27
56.29,-9.18,-6.91,-9.18,-6.91,6.91,6.65,7.59,-2.27,-2.27,-2.27
56.86,-9.12,-6.83,-9.12,-6.83,6.83,6.57,7.56,-2.29,-2.29,-2.29
57.42,-9.05,-6.74,-9.05,-6.75,6.75,6.50,7.52,-2.30,-2.30,-2.31
58.00,-8.99,-6.67,-8.99,-6.67,6.67,6.43,7.49,-2.32,-2.32,-2.32
58.58,-8.92,-6.58,-8.92,-6.59,6.58,6.36,7.45,-2.34,-2.33,-2.34
59.16,-8.85,-6.50,-8.85,-6.50,6.50,6.29,7.41,-2.35,-2.35,-2.35
59.76,-8.79,-6.42,-8.79,-6.42,6.42,6.23,7.36,-2.37,-2.37,-2.37
60.35,-8.73,-6.33,-8.73,-6.34,6.33,6.16,7.31,-2.39,-2.39,-2.40
60.96,-8.67,-6.26,-8.67,-6.25,6.25,6.10,7.26,-2.42,-2.42,-2.41
61.57,-8.62,-6.16,-8.62,-6.17,6.17,6.04,7.20,-2.45,-2.45,-2.46
62.18,-8.56,-6.07,-8.56,-6.08,6.08,5.98,7.14,-2.47,-2.48,-2.49
62.80,-8.51,-6.01,-8.51,-6.00,6.00,5.93,7.08,-2.51,-2.51,-2.50
63.43,-8.46,-5.92,-8.46,-5.93,5.93,5.87,7.01,-2.53,-2.53,-2.54
64.07,-8.40,-5.84,-8.40,-5.85,5.85,5.82,6.93,-2.55,-2.55,-2.56
64.71,-8.35,-5.78,-8.35,-5.77,5.78,5.77,6.85,-2.57,-2.57,-2.57
65.35,-8.29,-5.70,-8.29,-5.71,5.71,5.72,6.77,-2.58,-2.59,-2.59
66.01,-8.24,-5.64,-8.24,-5.64,5.64,5.67,6.68,-2.60,-2.60,-2.60
66.67,-8.19,-5.58,-8.18,-5.58,5.58,5.62,6.59,-2.61,-2.61,-2.61
67.33,-8.13,-5.51,-8.13,-5.51,5.52,5.58,6.49,-2.61,-2.62,-2.62
68.01,-8.08,-5.45,-8.08,-5.46,5.46,5.53,6.39,-2.62,-2.62,-2.63
68.69,-8.04,-5.40,-8.04,-5.40,5.41,5.49,6.29,-2.63,-2.63,-2.64
69.37,-8.00,-5.36,-8.00,-5.36,5.36,5.45,6.19,-2.64,-2.64,-2.64
70.07,-7.96,-5.31,-7.96,-5.32,5.32,5.40,6.08,-2.64,-2.64,-2.65
70.77,-7.93,-5.28,-7.93,-5.28,5.28,5.36,5.97,-2.65,-2.65,-2.65
71.48,-7.90,-5.24,-7.90,-5.24,5.24,5.32,5.86,-2.66,-2.66,-2.66
72.19,-7.87,-5.19,-7.87,-5.20,5.20,5.28,5.75,-2.67,-2.67,-2.68
72.91,-7.85,-5.17,-7.85,-5.16,5.16,5.24,5.64,-2.69,-2.68,-2.68
73.64,-7.82,-5.12,-7.82,-5.12,5.12,5.20,5.53,-2.70,-2.70,-2.70
74.38,-7.79,-5.08,-7.79,-5.09,5.08,5.16,5.42,-2.71,-2.71,-2.71
75.12,-7.77,-5.04,-7.77,-5.04,5.04,5.12,5.31,-2.73,-2.73,-2.73
75.87,-7.74,-5.00,-7.74,-5.00,5.00,5.08,5.20,-2.74,-2.74,-2.74
76.63,-7.71,-4.96,-7.71,-4.96,4.96,5.04,5.09,-2.75,-2.75,-2.75
77.40,-7.68,-4.91,-7.68,-4.91,4.92,5.00,4.99,-2.76,-2.76,-2.77
78.17,-7.65,-4.86,-7.65,-4.87,4.88,4.96,4.88,-2.77,-2.77,-2.79
78.95,-7.63,-4.84,-7.63,-4.84,4.84,4.92,4.78,-2.79,-2.79,-2.79
79.74,-7.61,-4.81,-7.61,-4.81,4.81,4.88,4.67,-2.80,-2.80,-2.80
80.54,-7.59,-4.78,-7.59,-4.78,4.78,4.84,4.58,-2.81,-2.81,-2.81
81.35,-7.57,-4.75,-7.57,-4.75,4.75,4.80,4.48,-2.82,-2.82,-2.82
82.16,-7.55,-4.72,-7.55,-4.73,4.72,4.75,4.38,-2.83,-2.82,-2.83
82.98,-7.52,-4.70,-7.52,-4.70,4.70,4.71,4.29,-2.82,-2.82,-2.82
83.81,-7.50,-4.67,-7.50,-4.67,4.68,4.67,4.20,-2.82,-2.82,-2.83
84.65,-7.48,-4.64,-7.48,-4.65,4.66,4.62,4.11,-2.82,-2.82,-2.84
85.50,-7.47,-4.64,-7.47,-4.64,4.64,4.58,4.02,-2.83,-2.83,-2.83
86.35,-7.46,-4.63,-7.46,-4.63,4.63,4.53,3.94,-2.83,-2.83,-2.83
87.22,-7.45,-4.61,-7.45,-4.61,4.61,4.49,3.86,-2.84,-2.83,-2.84
88.09,-7.43,-4.59,-7.43,-4.59,4.60,4.44,3.78,-2.83,-2.83,-2.84
88.97,-7.41,-4.56,-7.42,-4.57,4.58,4.39,3.70,-2.83,-2.84,-2.85
89.86,-7.41,-4.55,-7.41,-4.55,4.55,4.35,3.63,-2.86,-2.86,-2.86
90.76,-7.40,-4.52,-7.40,-4.52,4.52,4.30,3.56,-2.88,-2.88,-2.88
91.66,-7.39,-4.49,-7.39,-4.49,4.48,4.25,3.49,-2.91,-2.91,-2.90
92.58,-7.36,-4.43,-7.36,-4.43,4.42,4.20,3.42,-2.94,-2.93,-2.93
93.51,-7.31,-4.36,-7.32,-4.37,4.36,4.15,3.36,-2.95,-2.96,-2.95
94.44,-7.27,-4.29,-7.27,-4.29,4.28,4.10,3.30,-2.99,-2.99,-2.98
95.39,-7.22,-4.20,-7.22,-4.20,4.19,4.04,3.24,-3.03,-3.02,-3.02
96.34,-7.16,-4.10,-7.16,-4.10,4.10,3.99,3.18,-3.06,-3.06,-3.06
97.30,-7.10,-3.98,-7.10,-3.99,3.99,3.94,3.13,-3.11,-3.11,-3.12
98.28,-7.05,-3.88,-7.05,-3.88,3.89,3.88,3.07,-3.16,-3.16,-3.17
99.26,-7.00,-3.78,-7.00,-3.78,3.79,3.83,3.02,-3.21,-3.21,-3.22
100.25,-6.95,-3.67,-6.95,-3.67,3.68,3.77,2.97,-3.27,-3.27,-3.28
101.25,-6.91,-3.57,-6.91,-3.57,3.58,3.71,2.93,-3.33,-3.32,-3.34
102.27,-6.87,-3.47,-6.88,-3.48,3.49,3.66,2.88,-3.38,-3.39,-3.40
103.29,-6.85,-3.39,-6.85,-3.40,3.39,3.60,2.84,-3.46,-3.46,-3.46
104.32,-6.83,-3.32,-6.83,-3.31,3.30,3.54,2.80,-3.53,-3.53,-3.51
105.37,-6.80,-3.22,-6.79,-3.22,3.21,3.48,2.75,-3.59,-3.58,-3.58
106.42,-6.75,-3.11,-6.75,-3.12,3.12,3.42,2.72,-3.63,-3.63,-3.64
107.48,-6.71,-3.02,-6.71,-3.02,3.03,3.36,2.68,-3.68,-3.68,-3.69
108.56,-6.68,-2.93,-6.68,-2.93,2.94,3.30,2.64,-3.74,-3.74,-3.75
109.64,-6.66,-2.85,-6.66,-2.86,2.85,3.24,2.60,-3.81,-3.80,-3.81
110.74,-6.63,-2.77,-6.63,-2.77,2.76,3.17,2.57,-3.87,-3.87,-3.86
111.85,-6.59,-2.69,-6.59,-2.68,2.67,3.11,2.53,-3.92,-3.92,-3.90
112.97,-6.54,-2.57,-6.54,-2.58,2.57,3.05,2.50,-3.97,-3.97,-3.97
114.10,-6.49,-2.48,-6.49,-2.48,2.48,2.98,2.46,-4.01,-4.01,-4.01
115.24,-6.43,-2.37,-6.44,-2.38,2.39,2.92,2.43,-4.04,-4.05,-4.06
116.39,-6.41,-2.30,-6.40,-2.30,2.30,2.86,2.39,-4.11,-4.10,-4.11
117.55,-6.36,-2.21,-6.36,-2.21,2.21,2.79,2.36,-4.15,-4.14,-4.15
118.73,-6.31,-2.12,-6.31,-2.13,2.13,2.73,2.32,-4.17,-4.18,-4.19
119.92,-6.27,-2.05,-6.27,-2.05,2.06,2.66,2.29,-4.21,-4.21,-4.22
121.12,-6.24,-1.99,-6.24,-1.99,2.00,2.60,2.25,-4.24,-4.25,-4.25
122.33,-6.22,-1.94,-6.22,-1.94,1.94,2.53,2.22,-4.28,-4.28,-4.28
123.55,-6.20,-1.89,-6.19,-1.89,1.88,2.47,2.18,-4.32,-4.31,-4.31
124.79,-6.17,-1.83,-6.17,-1.84,1.84,2.40,2.15,-4.33,-4.34,-4.34
126.03,-6.15,-1.79,-6.15,-1.79,1.80,2.33,2.11,-4.35,-4.36,-4.36
127.29,-6.14,-1.75,-6.14,-1.75,1.76,2.27,2.07,-4.38,-4.38,-4.39
128.57,-6.13,-1.70,-6.14,-1.72,1.72,2.20,2.03,-4.41,-4.41,-4.43
129.85,-6.14,-1.69,-6.14,-1.69,1.69,2.14,2.00,-4.45,-4.45,-4.45
131.15,-6.14,-1.66,-6.14,-1.66,1.65,2.07,1.96,-4.48,-4.49,-4.48
132.46,-6.14,-1.62,-6.14,-1.63,1.62,2.01,1.92,-4.52,-4.52,-4.52
133.79,-6.13,-1.59,-6.13,-1.59,1.58,1.94,1.88,-4.55,-4.55,-4.54
135.12,-6.10,-1.53,-6.11,-1.54,1.53,1.88,1.84,-4.57,-4.58,-4.57
136.48,-6.09,-1.49,-6.08,-1.49,1.48,1.81,1.80,-4.61,-4.60,-4.60
137.84,-6.05,-1.42,-6.06,-1.42,1.42,1.75,1.75,-4.63,-4.64,-4.63
139.22,-6.03,-1.35,-6.03,-1.36,1.36,1.68,1.71,-4.67,-4.67,-4.68
140.61,-5.99,-1.28,-5.99,-1.29,1.29,1.62,1.67,-4.70,-4.70,-4.71
142.02,-5.95,-1.22,-5.95,-1.22,1.22,1.55,1.63,-4.73,-4.73,-4.73
143.44,-5.92,-1.15,-5.92,-1.15,1.15,1.49,1.59,-4.77,-4.77,-4.77
144.87,-5.88,-1.07,-5.88,-1.08,1.08,1.43,1.54,-4.80,-4.80,-4.81
146.32,-5.86,-1.01,-5.86,-1.01,1.02,1.36,1.50,-4.84,-4.84,-4.85
147.78,-5.83,-0.95,-5.83,-0.96,0.96,1.30,1.46,-4.87,-4.87,-4.88
149.26,-5.82,-0.91,-5.82,-0.90,0.91,1.24,1.42,-4.91,-4.91,-4.91
150.75,-5.80,-0.84,-5.80,-0.85,0.86,1.18,1.38,-4.94,-4.95,-4.96
152.26,-5.80,-0.80,-5.80,-0.81,0.81,1.12,1.33,-4.99,-4.99,-5.00
153.78,-5.80,-0.77,-5.80,-0.77,0.77,1.06,1.29,-5.03,-5.03,-5.03
155.32,-5.81,-0.73,-5.81,-0.74,0.73,1.00,1.25,-5.08,-5.08,-5.08
156.88,-5.81,-0.70,-5.81,-0.70,0.69,0.94,1.21,-5.12,-5.12,-5.11
158.44,-5.82,-0.65,-5.82,-0.66,0.65,0.88,1.17,-5.17,-5.17,-5.17
160.03,-5.82,-0.61,-5.82,-0.61,0.61,0.82,1.13,-5.21,-5.21,-5.21
161.63,-5.82,-0.56,-5.82,-0.57,0.57,0.77,1.09,-5.25,-5.25,-5.26
163.24,-5.82,-0.52,-5.82,-0.52,0.53,0.71,1.05,-5.29,-5.29,-5.30
164.88,-5.82,-0.48,-5.82,-0.48,0.48,0.66,1.02,-5.34,-5.34,-5.34
166.53,-5.82,-0.44,-5.82,-0.44,0.44,0.60,0.98,-5.38,-5.38,-5.38
168.19,-5.82,-0.40,-5.82,-0.40,0.40,0.55,0.94,-5.42,-5.42,-5.42
169.87,-5.82,-0.36,-5.82,-0.37,0.36,0.50,0.90,-5.46,-5.46,-5.46
171.57,-5.82,-0.33,-5.82,-0.33,0.33,0.44,0.87,-5.49,-5.49,-5.49
173.29,-5.82,-0.29,-5.82,-0.29,0.29,0.39,0.83,-5.53,-5.53,-5.53
175.02,-5.82,-0.25,-5.82,-0.26,0.26,0.34,0.80,-5.56,-5.56,-5.57
176.77,-5.82,-0.22,-5.82,-0.22,0.22,0.29,0.76,-5.60,-5.60,-5.60
178.54,-5.82,-0.19,-5.82,-0.19,0.19,0.25,0.73,-5.63,-5.63,-5.63
180.32,-5.82,-0.16,-5.82,-0.17,0.17,0.20,0.69,-5.65,-5.65,-5.66
182.13,-5.82,-0.14,-5.82,-0.14,0.14,0.15,0.66,-5.68,-5.68,-5.68
183.95,-5.82,-0.12,-5.82,-0.12,0.12,0.11,0.63,-5.70,-5.70,-5.70
185.79,-5.82,-0.10,-5.82,-0.10,0.10,0.06,0.60,-5.72,-5.72,-5.72
187.65,-5.82,-0.08,-5.82,-0.09,0.09,0.02,0.56,-5.73,-5.73,-5.74
189.52,-5.82,-0.07,-5.82,-0.07,0.07,-0.02,0.53,-5.75,-5.75,-5.75
191.42,-5.82,-0.05,-5.82,-0.06,0.06,-0.06,0.50,-5.76,-5.76,-5.77
193.33,-5.82,-0.04,-5.82,-0.04,0.04,-0.10,0.47,-5.78,-5.78,-5.78
195.27,-5.82,-0.03,-5.82,-0.03,0.03,-0.14,0.44,-5.79,-5.79,-5.79
197.22,-5.82,-0.01,-5.82,-0.01,0.01,-0.18,0.41,-5.81,-5.81,-5.81
199.19,-5.82,0.01,-5.82,0.00,-0.00,-0.22,0.38,-5.82,-5.82,-5.83
201.18,-5.82,0.02,-5.82,0.02,-0.02,-0.26,0.35,-5.84,-5.84,-5.84
203.19,-5.81,0.03,-5.81,0.03,-0.04,-0.29,0.32,-5.85,-5.85,-5.84
205.23,-5.80,0.06,-5.80,0.05,-0.05,-0.33,0.29,-5.85,-5.86,-5.86
207.28,-5.80,0.06,-5.80,0.07,-0.07,-0.36,0.26,-5.87,-5.86,-5.86
209.35,-5.79,0.09,-5.79,0.09,-0.08,-0.39,0.24,-5.87,-5.87,-5.88
211.44,-5.80,0.10,-5.80,0.09,-0.08,-0.43,0.21,-5.88,-5.88,-5.90
213.56,-5.81,0.10,-5.81,0.09,-0.08,-0.46,0.18,-5.89,-5.90,-5.91
215.69,-5.83,0.08,-5.83,0.08,-0.08,-0.49,0.15,-5.91,-5.91,-5.91
217.85,-5.86,0.07,-5.86,0.07,-0.07,-0.52,0.13,-5.93,-5.93,-5.93
220.03,-5.88,0.06,-5.88,0.06,-0.06,-0.55,0.10,-5.94,-5.94,-5.94
222.23,-5.91,0.05,-5.91,0.04,-0.04,-0.57,0.07,-5.95,-5.95,-5.96
224.45,-5.94,0.02,-5.94,0.02,-0.02,-0.60,0.05,-5.96,-5.96,-5.96
226.70,-5.98,-0.00,-5.98,-0.01,0.00,-0.63,0.02,-5.98,-5.98,-5.98
228.96,-6.02,-0.03,-6.01,-0.03,0.02,-0.65,-0.01,-6.00,-5.99,-5.99
231.25,-6.04,-0.04,-6.05,-0.04,0.04,-0.68,-0.03,-6.00,-6.00,-6.00
233.57,-6.07,-0.05,-6.08,-0.06,0.06,-0.70,-0.06,-6.01,-6.02,-6.02
235.90,-6.11,-0.08,-6.10,-0.07,0.07,-0.72,-0.08,-6.04,-6.03,-6.03
238.26,-6.13,-0.08,-6.13,-0.08,0.08,-0.75,-0.11,-6.05,-6.06,-6.05
240.64,-6.15,-0.08,-6.15,-0.09,0.08,-0.77,-0.13,-6.07,-6.07,-6.07
243.05,-6.16,-0.08,-6.16,-0.08,0.07,-0.79,-0.16,-6.09,-6.09,-6.08
245.48,-6.16,-0.07,-6.16,-0.07,0.07,-0.81,-0.18,-6.09,-6.09,-6.09
247.93,-6.16,-0.06,-6.16,-0.06,0.06,-0.83,-0.21,-6.10,-6.09,-6.10
250.41,-6.15,-0.04,-6.15,-0.05,0.06,-0.85,-0.23,-6.09,-6.09,-6.11
252.92,-6.14,-0.04,-6.15,-0.05,0.06,-0.87,-0.26,-6.08,-6.08,-6.10
255.45,-6.15,-0.05,-6.15,-0.05,0.07,-0.89,-0.28,-6.08,-6.08,-6.10
258.00,-6.16,-0.07,-6.16,-0.07,0.07,-0.91,-0.30,-6.09,-6.09,-6.09
260.58,-6.17,-0.08,-6.17,-0.08,0.08,-0.92,-0.33,-6.09,-6.09,-6.09
263.19,-6.17,-0.09,-6.17,-0.09,0.09,-0.94,-0.35,-6.08,-6.08,-6.08
265.82,-6.17,-0.10,-6.17,-0.11,0.10,-0.96,-0.38,-6.07,-6.07,-6.07
268.48,-6.16,-0.11,-6.16,-0.11,0.10,-0.97,-0.40,-6.06,-6.05,-6.05
271.16,-6.14,-0.11,-6.13,-0.10,0.10,-0.99,-0.42,-6.04,-6.03,-6.03
273.87,-6.09,-0.07,-6.10,-0.09,0.09,-1.01,-0.45,-6.00,-6.01,-6.02
276.61,-6.06,-0.07,-6.06,-0.07,0.06,-1.02,-0.47,-6.00,-6.00,-5.99
279.38,-6.02,-0.03,-6.02,-0.04,0.03,-1.04,-0.50,-5.99,-5.98,-5.99
282.17,-5.97,-0.00,-5.97,0.00,-0.01,-1.05,-0.52,-5.98,-5.98,-5.97
284.99,-5.90,0.06,-5.90,0.06,-0.06,-1.07,-0.55,-5.96,-5.96,-5.96
287.84,-5.82,0.12,-5.82,0.12,-0.12,-1.08,-0.57,-5.94,-5.94,-5.94
290.72,-5.73,0.19,-5.73,0.19,-0.19,-1.10,-0.60,-5.92,-5.92,-5.92
293.63,-5.64,0.27,-5.64,0.26,-0.27,-1.11,-0.63,-5.91,-5.91,-5.91
296.57,-5.54,0.34,-5.54,0.34,-0.35,-1.12,-0.65,-5.89,-5.89,-5.88
299.53,-5.44,0.43,-5.44,0.43,-0.43,-1.14,-0.68,-5.87,-5.87,-5.87
302.53,-5.34,0.52,-5.33,0.52,-0.50,-1.15,-0.71,-5.84,-5.84,-5.86
305.55,-5.23,0.60,-5.23,0.60,-0.58,-1.17,-0.74,-5.81,-5.81,-5.83
308.61,-5.13,0.68,-5.14,0.67,-0.65,-1.18,-0.77,-5.78,-5.79,-5.81
311.69,-5.05,0.73,-5.05,0.72,-0.72,-1.19,-0.80,-5.77,-5.77,-5.78
314.81,-4.98,0.76,-4.97,0.77,-0.79,-1.21,-0.83,-5.77,-5.76,-5.74
317.96,-4.89,0.84,-4.89,0.83,-0.86,-1.22,-0.86,-5.75,-5.75,-5.73
321.14,-4.80,0.91,-4.80,0.91,-0.93,-1.24,-0.89,-5.73,-5.72,-5.71
324.35,-4.70,0.99,-4.70,0.99,-0.99,-1.25,-0.92,-5.69,-5.69,-5.69
327.59,-4.60,1.07,-4.61,1.06,-1.05,-1.26,-0.96,-5.65,-5.66,-5.67
330.87,-4.53,1.12,-4.53,1.12,-1.10,-1.28,-0.99,-5.63,-5.63,-5.65
334.18,-4.46,1.16,-4.46,1.16,-1.15,-1.29,-1.02,-5.61,-5.61,-5.62
337.52,-4.40,1.20,-4.40,1.20,-1.19,-1.31,-1.06,-5.59,-5.59,-5.60
340.90,-4.35,1.23,-4.35,1.22,-1.22,-1.32,-1.10,-5.57,-5.57,-5.58
344.30,-4.31,1.24,-4.31,1.24,-1.23,-1.34,-1.14,-5.54,-5.54,-5.55
347.75,-4.28,1.25,-4.28,1.24,-1.24,-1.35,-1.17,-5.52,-5.52,-5.53
351.23,-4.26,1.24,-4.26,1.24,-1.24,-1.37,-1.21,-5.50,-5.50,-5.50
354.74,-4.24,1.23,-4.24,1.24,-1.24,-1.38,-1.25,-5.48,-5.48,-5.47
358.28,-4.21,1.25,-4.22,1.23,-1.24,-1.40,-1.30,-5.45,-5.46,-5.46
361.87,-4.20,1.23,-4.19,1.23,-1.24,-1.42,-1.34,-5.44,-5.43,-5.43
365.49,-4.17,1.23,-4.17,1.24,-1.23,-1.44,-1.38,-5.40,-5.40,-5.40
369.14,-4.14,1.25,-4.14,1.24,-1.23,-1.45,-1.43,-5.37,-5.38,-5.39
372.83,-4.12,1.24,-4.12,1.24,-1.23,-1.47,-1.47,-5.35,-5.35,-5.36
376.56,-4.10,1.24,-4.10,1.24,-1.23,-1.49,-1.52,-5.33,-5.33,-5.34
380.33,-4.08,1.23,-4.08,1.23,-1.24,-1.51,-1.56,-5.32,-5.32,-5.31
384.13,-4.06,1.24,-4.06,1.24,-1.24,-1.53,-1.61,-5.30,-5.30,-5.30
387.97,-4.03,1.25,-4.03,1.25,-1.26,-1.55,-1.66,-5.29,-5.28,-5.28
391.85,-3.99,1.28,-3.99,1.27,-1.27,-1.57,-1.71,-5.26,-5.27,-5.27
395.77,-3.95,1.29,-3.95,1.29,-1.30,-1.59,-1.76,-5.25,-5.25,-5.24
399.73,-3.91,1.32,-3.91,1.33,-1.32,-1.61,-1.81,-5.23,-5.23,-5.23
403.72,-3.86,1.37,-3.86,1.36,-1.36,-1.63,-1.86,-5.21,-5.22,-5.23
