frequency,raw,error,smoothed,error_smoothed,equalization,parametric_eq,fixed_band_eq,equalized_raw,equalized_smoothed,target
20.00,4.26,1.04,4.27,1.05,-1.02,-1.94,-0.88,3.24,3.24,3.22
20.20,4.29,1.04,4.28,1.02,-1.01,-1.94,-0.91,3.28,3.26,3.25
20.40,4.29,1.01,4.29,1.01,-1.01,-1.94,-0.93,3.28,3.28,3.28
20.61,4.29,0.99,4.31,1.00,-1.01,-1.95,-0.96,3.28,3.30,3.30
20.81,4.34,1.01,4.33,1.00,-1.02,-1.95,-0.99,3.32,3.31,3.33
21.02,4.37,1.01,4.37,1.01,-1.03,-1.95,-1.02,3.34,3.33,3.36
21.23,4.40,1.03,4.41,1.03,-1.05,-1.95,-1.05,3.35,3.36,3.37
21.44,4.45,1.07,4.45,1.07,-1.07,-1.95,-1.08,3.38,3.38,3.38
21.66,4.50,1.11,4.50,1.11,-1.11,-1.96,-1.11,3.39,3.39,3.39
21.87,4.55,1.16,4.55,1.16,-1.15,-1.96,-1.14,3.40,3.40,3.39
22.09,4.60,1.20,4.60,1.20,-1.19,-1.96,-1.17,3.41,3.41,3.40
22.31,4.65,1.25,4.64,1.24,-1.23,-1.96,-1.21,3.42,3.41,3.40
22.54,4.68,1.28,4.68,1.28,-1.27,-1.97,-1.24,3.41,3.41,3.40
22.76,4.71,1.31,4.72,1.32,-1.31,-1.97,-1.28,3.40,3.40,3.40
22.99,4.76,1.37,4.75,1.35,-1.35,-1.97,-1.31,3.41,3.39,3.39
23.22,4.77,1.38,4.78,1.39,-1.39,-1.98,-1.35,3.38,3.39,3.39
23.45,4.81,1.42,4.82,1.42,-1.42,-1.98,-1.39,3.39,3.39,3.39
23.69,4.86,1.47,4.85,1.46,-1.46,-1.98,-1.43,3.40,3.39,3.39
23.92,4.89,1.50,4.89,1.50,-1.50,-1.98,-1.46,3.39,3.39,3.39
24.16,4.92,1.53,4.93,1.54,-1.54,-1.99,-1.50,3.38,3.39,3.39
24.40,4.98,1.59,4.97,1.58,-1.58,-1.99,-1.54,3.40,3.39,3.39
24.65,5.01,1.63,5.01,1.63,-1.63,-1.99,-1.59,3.38,3.39,3.38
24.89,5.06,1.68,5.06,1.67,-1.67,-2.00,-1.63,3.39,3.38,3.38
25.14,5.09,1.71,5.09,1.71,-1.71,-2.00,-1.67,3.38,3.38,3.38
25.39,5.13,1.75,5.14,1.75,-1.75,-2.01,-1.71,3.38,3.38,3.38
25.65,5.18,1.80,5.17,1.79,-1.79,-2.01,-1.75,3.39,3.38,3.38
25.91,5.20,1.83,5.20,1.82,-1.82,-2.01,-1.80,3.38,3.38,3.37
26.16,5.22,1.85,5.23,1.85,-1.84,-2.02,-1.84,3.38,3.38,3.37
26.43,5.25,1.88,5.25,1.87,-1.87,-2.02,-1.88,3.38,3.38,3.37
26.69,5.27,1.90,5.26,1.89,-1.89,-2.02,-1.92,3.38,3.37,3.37
26.96,5.27,1.90,5.27,1.90,-1.91,-2.03,-1.96,3.36,3.37,3.37
27.23,5.27,1.91,5.29,1.92,-1.93,-2.03,-2.00,3.34,3.36,3.36
27.50,5.32,1.96,5.30,1.94,-1.95,-2.04,-2.04,3.37,3.35,3.36
27.77,5.32,1.97,5.32,1.97,-1.97,-2.04,-2.08,3.35,3.35,3.35
28.05,5.34,1.99,5.35,2.00,-2.00,-2.05,-2.12,3.34,3.35,3.35
28.33,5.36,2.02,5.36,2.02,-2.02,-2.05,-2.15,3.34,3.34,3.34
28.62,5.40,2.06,5.39,2.05,-2.05,-2.06,-2.19,3.35,3.34,3.34
28.90,5.41,2.07,5.42,2.08,-2.08,-2.06,-2.22,3.33,3.34,3.34
29.19,5.44,2.11,5.44,2.10,-2.10,-2.07,-2.25,3.34,3.34,3.33
29.48,5.46,2.13,5.45,2.12,-2.11,-2.07,-2.28,3.35,3.34,3.33
29.78,5.46,2.14,5.46,2.14,-2.12,-2.08,-2.30,3.34,3.34,3.32
30.08,5.46,2.14,5.46,2.14,-2.13,-2.08,-2.33,3.33,3.33,3.32
30.38,5.46,2.15,5.45,2.13,-2.13,-2.09,-2.35,3.33,3.32,3.31
30.68,5.43,2.12,5.43,2.12,-2.13,-2.09,-2.37,3.30,3.30,3.31
30.99,5.41,2.11,5.42,2.12,-2.13,-2.10,-2.38,3.28,3.29,3.30
31.30,5.41,2.12,5.41,2.11,-2.12,-2.10,-2.39,3.29,3.28,3.29
31.61,5.41,2.12,5.41,2.12,-2.12,-2.11,-2.40,3.29,3.28,3.29
31.93,5.41,2.13,5.41,2.13,-2.12,-2.12,-2.41,3.29,3.29,3.28
32.24,5.41,2.14,5.41,2.13,-2.13,-2.12,-2.42,3.28,3.28,3.27
32.57,5.41,2.14,5.40,2.14,-2.13,-2.13,-2.42,3.28,3.27,3.27
32.89,5.39,2.13,5.40,2.14,-2.14,-2.14,-2.42,3.25,3.26,3.26
33.22,5.41,2.16,5.40,2.15,-2.15,-2.15,-2.41,3.26,3.26,3.25
33.55,5.41,2.16,5.41,2.16,-2.15,-2.15,-2.41,3.26,3.25,3.25
33.89,5.41,2.17,5.41,2.17,-2.16,-2.16,-2.40,3.25,3.25,3.24
34.23,5.41,2.18,5.41,2.18,-2.18,-2.17,-2.39,3.23,3.23,3.23
34.57,5.41,2.19,5.41,2.18,-2.19,-2.18,-2.38,3.22,3.21,3.22
34.92,5.41,2.20,5.41,2.20,-2.21,-2.19,-2.37,3.20,3.20,3.21
35.27,5.41,2.21,5.42,2.22,-2.24,-2.19,-2.36,3.17,3.19,3.20
35.62,5.46,2.27,5.45,2.26,-2.26,-2.20,-2.34,3.20,3.19,3.19
35.97,5.47,2.29,5.47,2.29,-2.28,-2.21,-2.33,3.19,3.19,3.18
36.33,5.50,2.33,5.49,2.32,-2.30,-2.22,-2.31,3.20,3.19,3.17
36.70,5.50,2.34,5.50,2.34,-2.33,-2.23,-2.30,3.17,3.17,3.16
37.06,5.50,2.35,5.50,2.35,-2.34,-2.24,-2.28,3.16,3.16,3.15
37.43,5.50,2.36,5.50,2.36,-2.36,-2.25,-2.27,3.14,3.14,3.14
37.81,5.50,2.37,5.50,2.37,-2.37,-2.27,-2.25,3.13,3.13,3.13
38.19,5.50,2.38,5.50,2.38,-2.38,-2.28,-2.23,3.12,3.12,3.12
38.57,5.50,2.39,5.50,2.39,-2.39,-2.29,-2.22,3.11,3.11,3.11
38.95,5.50,2.40,5.50,2.40,-2.40,-2.30,-2.21,3.10,3.10,3.10
39.34,5.50,2.42,5.50,2.41,-2.42,-2.32,-2.19,3.08,3.08,3.08
39.74,5.50,2.43,5.50,2.43,-2.43,-2.33,-2.18,3.07,3.07,3.07
40.14,5.50,2.44,5.50,2.44,-2.44,-2.34,-2.17,3.06,3.06,3.06
40.54,5.50,2.45,5.50,2.45,-2.44,-2.36,-2.16,3.06,3.06,3.05
40.94,5.50,2.46,5.50,2.46,-2.44,-2.37,-2.15,3.06,3.06,3.04
41.35,5.50,2.47,5.49,2.46,-2.44,-2.39,-2.14,3.06,3.05,3.03
41.76,5.46,2.44,5.47,2.45,-2.44,-2.41,-2.13,3.02,3.03,3.02
42.18,5.46,2.45,5.44,2.43,-2.45,-2.42,-2.13,3.01,3.00,3.01
42.60,5.41,2.41,5.43,2.43,-2.46,-2.44,-2.12,2.95,2.98,3.00
43.03,5.43,2.44,5.43,2.44,-2.47,-2.46,-2.12,2.96,2.96,2.99
43.46,5.46,2.49,5.45,2.47,-2.49,-2.48,-2.12,2.97,2.96,2.97
43.90,5.46,2.51,5.47,2.52,-2.51,-2.50,-2.12,2.95,2.96,2.95
44.33,5.50,2.57,5.49,2.56,-2.54,-2.52,-2.12,2.96,2.95,2.93
44.78,5.50,2.59,5.50,2.58,-2.57,-2.54,-2.13,2.93,2.93,2.91
45.23,5.50,2.61,5.50,2.61,-2.59,-2.57,-2.13,2.91,2.91,2.89
45.68,5.50,2.62,5.50,2.62,-2.62,-2.59,-2.14,2.88,2.88,2.88
46.13,5.50,2.64,5.50,2.63,-2.64,-2.61,-2.15,2.86,2.86,2.86
46.60,5.50,2.65,5.50,2.65,-2.65,-2.64,-2.16,2.85,2.85,2.85
47.06,5.50,2.67,5.50,2.67,-2.67,-2.66,-2.17,2.83,2.83,2.83
47.53,5.50,2.69,5.50,2.68,-2.69,-2.69,-2.18,2.81,2.81,2.81
48.01,5.50,2.70,5.50,2.70,-2.71,-2.71,-2.20,2.79,2.79,2.80
48.49,5.50,2.73,5.50,2.73,-2.73,-2.73,-2.21,2.77,2.77,2.77
48.97,5.50,2.76,5.50,2.76,-2.76,-2.76,-2.23,2.74,2.74,2.74
49.46,5.50,2.79,5.50,2.79,-2.78,-2.78,-2.25,2.72,2.72,2.71
49.96,5.50,2.82,5.50,2.81,-2.81,-2.80,-2.27,2.69,2.69,2.68
50.46,5.50,2.84,5.50,2.84,-2.83,-2.82,-2.29,2.67,2.67,2.66
50.96,5.50,2.86,5.50,2.86,-2.86,-2.84,-2.31,2.64,2.64,2.64
51.47,5.50,2.89,5.50,2.88,-2.88,-2.86,-2.34,2.62,2.62,2.61
51.99,5.50,2.91,5.50,2.91,-2.91,-2.88,-2.36,2.59,2.59,2.59
52.51,5.50,2.93,5.50,2.93,-2.93,-2.89,-2.39,2.57,2.57,2.57
53.03,5.50,2.95,5.50,2.95,-2.96,-2.90,-2.41,2.54,2.54,2.55
53.56,5.50,2.98,5.50,2.97,-2.98,-2.91,-2.44,2.52,2.52,2.52
54.10,5.50,3.00,5.50,3.00,-3.00,-2.92,-2.47,2.50,2.50,2.50
54.64,5.50,3.03,5.50,3.03,-3.02,-2.93,-2.50,2.48,2.48,2.47
55.18,5.50,3.05,5.50,3.05,-3.04,-2.93,-2.53,2.46,2.46,2.45
55.74,5.50,3.08,5.49,3.07,-3.05,-2.94,-2.55,2.45,2.44,2.42
56.29,5.46,3.06,5.47,3.07,-3.06,-2.94,-2.58,2.40,2.41,2.40
56.86,5.46,3.08,5.45,3.07,-3.06,-2.94,-2.61,2.40,2.39,2.38
57.42,5.41,3.06,5.42,3.06,-3.06,-2.95,-2.64,2.35,2.36,2.35
58.00,5.40,3.07,5.39,3.06,-3.06,-2.95,-2.67,2.34,2.33,2.33
58.58,5.36,3.05,5.36,3.05,-3.06,-2.95,-2.70,2.30,2.30,2.31
59.16,5.35,3.06,5.34,3.05,-3.07,-2.95,-2.73,2.28,2.27,2.29
59.76,5.32,3.05,5.33,3.06,-3.08,-2.96,-2.75,2.24,2.25,2.27
60.35,5.32,3.08,5.33,3.08,-3.09,-2.96,-2.78,2.23,2.24,2.24
60.96,5.32,3.11,5.32,3.11,-3.10,-2.97,-2.81,2.22,2.21,2.21
61.57,5.32,3.15,5.31,3.13,-3.12,-2.97,-2.83,2.20,2.19,2.17
62.18,5.27,3.13,5.29,3.14,-3.13,-2.98,-2.86,2.14,2.16,2.14
62.80,5.26,3.15,5.25,3.14,-3.13,-2.99,-2.89,2.13,2.12,2.11
63.43,5.22,3.14,5.22,3.13,-3.14,-3.00,-2.91,2.08,2.08,2.08
64.07,5.18,3.13,5.19,3.13,-3.13,-3.01,-2.93,2.05,2.06,2.05
64.71,5.15,3.12,5.15,3.12,-3.12,-3.02,-2.96,2.03,2.03,2.03
65.35,5.12,3.12,5.11,3.11,-3.11,-3.03,-2.98,2.01,2.00,2.00
66.01,5.06,3.09,5.06,3.09,-3.09,-3.05,-3.00,1.97,1.97,1.97
66.67,5.01,3.07,5.02,3.07,-3.07,-3.06,-3.03,1.94,1.94,1.94
67.33,4.97,3.06,4.97,3.05,-3.05,-3.08,-3.05,1.92,1.92,1.91
68.01,4.92,3.04,4.92,3.03,-3.03,-3.09,-3.07,1.89,1.89,1.88
68.69,4.86,3.01,4.86,3.01,-3.00,-3.11,-3.09,1.86,1.86,1.85
69.37,4.80,2.98,4.80,2.98,-2.97,-3.13,-3.12,1.83,1.83,1.82
70.07,4.74,2.95,4.74,2.94,-2.95,-3.15,-3.14,1.79,1.79,1.79
70.77,4.68,2.92,4.68,2.92,-2.93,-3.17,-3.17,1.75,1.75,1.76
71.48,4.63,2.90,4.63,2.90,-2.92,-3.20,-3.19,1.71,1.71,1.73
72.19,4.59,2.90,4.59,2.89,-2.90,-3.22,-3.22,1.69,1.69,1.69
72.91,4.56,2.90,4.56,2.90,-2.89,-3.25,-3.25,1.67,1.67,1.66
73.64,4.52,2.90,4.53,2.90,-2.88,-3.27,-3.28,1.64,1.65,1.62
74.38,4.50,2.91,4.49,2.90,-2.87,-3.30,-3.31,1.63,1.62,1.59
75.12,4.44,2.89,4.44,2.88,-2.87,-3.33,-3.34,1.57,1.56,1.55
75.87,4.38,2.86,4.39,2.86,-2.88,-3.36,-3.37,1.50,1.51,1.52
76.63,4.34,2.85,4.35,2.86,-2.89,-3.40,-3.41,1.45,1.46,1.49
77.40,4.34,2.88,4.34,2.88,-2.90,-3.43,-3.45,1.44,1.44,1.46
78.17,4.34,2.92,4.35,2.92,-2.92,-3.46,-3.49,1.42,1.43,1.42
78.95,4.38,2.99,4.37,2.97,-2.95,-3.50,-3.53,1.43,1.41,1.39
79.74,4.38,3.02,4.37,3.02,-3.00,-3.54,-3.58,1.38,1.38,1.36
80.54,4.38,3.06,4.38,3.06,-3.05,-3.58,-3.62,1.33,1.34,1.32
81.35,4.38,3.09,4.39,3.10,-3.11,-3.62,-3.67,1.27,1.28,1.29
82.16,4.42,3.17,4.41,3.16,-3.17,-3.66,-3.73,1.25,1.24,1.25
82.98,4.45,3.23,4.45,3.23,-3.25,-3.71,-3.78,1.20,1.20,1.22
83.81,4.50,3.32,4.50,3.32,-3.32,-3.75,-3.84,1.18,1.18,1.18
84.65,4.55,3.41,4.56,3.41,-3.41,-3.80,-3.90,1.14,1.15,1.14
85.50,4.63,3.52,4.62,3.51,-3.50,-3.85,-3.97,1.13,1.12,1.11
86.35,4.69,3.62,4.68,3.61,-3.60,-3.90,-4.04,1.09,1.08,1.07
87.22,4.73,3.70,4.74,3.71,-3.70,-3.95,-4.11,1.03,1.04,1.03
88.09,4.80,3.81,4.80,3.80,-3.81,-4.01,-4.18,0.99,0.99,0.99
88.97,4.87,3.92,4.87,3.91,-3.93,-4.06,-4.26,0.94,0.94,0.95
89.86,4.93,4.02,4.94,4.03,-4.04,-4.12,-4.34,0.89,0.90,0.91
90.76,5.02,4.16,5.01,4.15,-4.15,-4.18,-4.42,0.87,0.86,0.86
91.66,5.08,4.26,5.09,4.27,-4.26,-4.24,-4.51,0.82,0.83,0.82
92.58,5.17,4.40,5.17,4.39,-4.37,-4.31,-4.60,0.80,0.80,0.77
93.51,5.24,4.51,5.23,4.50,-4.48,-4.38,-4.69,0.76,0.75,0.73
94.44,5.29,4.60,5.29,4.60,-4.59,-4.44,-4.79,0.70,0.70,0.69
95.39,5.33,4.69,5.33,4.69,-4.70,-4.52,-4.89,0.63,0.64,0.64
96.34,5.38,4.79,5.38,4.79,-4.80,-4.59,-4.99,0.58,0.58,0.59
97.30,5.43,4.89,5.44,4.89,-4.91,-4.66,-5.09,0.52,0.53,0.54
98.28,5.50,5.01,5.50,5.00,-5.01,-4.74,-5.20,0.49,0.49,0.49
99.26,5.57,5.12,5.56,5.11,-5.11,-4.82,-5.31,0.46,0.45,0.45
100.25,5.62,5.22,5.62,5.22,-5.22,-4.90,-5.42,0.40,0.41,0.40
101.25,5.68,5.33,5.68,5.33,-5.31,-4.98,-5.53,0.37,0.36,0.35
102.27,5.73,5.43,5.73,5.43,-5.41,-5.07,-5.65,0.32,0.32,0.30
103.29,5.78,5.53,5.78,5.52,-5.51,-5.16,-5.76,0.27,0.26,0.25
104.32,5.82,5.61,5.81,5.60,-5.61,-5.24,-5.87,0.21,0.20,0.21
105.37,5.83,5.67,5.84,5.68,-5.70,-5.33,-5.99,0.13,0.14,0.16
106.42,5.88,5.77,5.88,5.77,-5.79,-5.43,-6.10,0.09,0.09,0.11
107.48,5.93,5.87,5.93,5.87,-5.88,-5.52,-6.21,0.05,0.05,0.06
108.56,5.99,5.98,5.99,5.98,-5.96,-5.61,-6.32,0.03,0.03,0.01
109.64,6.04,6.08,6.03,6.07,-6.04,-5.71,-6.43,-0.00,-0.01,-0.04
110.74,6.06,6.15,6.05,6.14,-6.12,-5.80,-6.53,-0.06,-0.07,-0.09
111.85,6.06,6.20,6.06,6.20,-6.20,-5.90,-6.64,-0.14,-0.14,-0.14
112.97,6.04,6.24,6.06,6.25,-6.26,-6.00,-6.73,-0.22,-0.21,-0.20
114.10,6.06,6.31,6.05,6.30,-6.32,-6.09,-6.82,-0.26,-0.27,-0.25
115.24,6.06,6.37,6.06,6.36,-6.37,-6.19,-6.90,-0.31,-0.32,-0.31
116.39,6.06,6.42,6.06,6.42,-6.42,-6.28,-6.98,-0.36,-0.35,-0.36
117.55,6.06,6.48,6.06,6.47,-6.46,-6.37,-7.04,-0.40,-0.40,-0.42
118.73,6.05,6.52,6.04,6.51,-6.49,-6.46,-7.10,-0.44,-0.45,-0.47
119.92,6.02,6.54,6.02,6.53,-6.53,-6.54,-7.14,-0.51,-0.51,-0.52
121.12,5.97,6.54,5.98,6.55,-6.55,-6.63,-7.18,-0.58,-0.57,-0.57
122.33,5.95,6.57,5.95,6.56,-6.58,-6.71,-7.21,-0.63,-0.63,-0.62
123.55,5.92,6.59,5.92,6.58,-6.60,-6.78,-7.23,-0.68,-0.68,-0.67
124.79,5.89,6.61,5.89,6.61,-6.62,-6.85,-7.22,-0.73,-0.73,-0.72
126.03,5.86,6.63,5.86,6.63,-6.63,-6.91,-7.22,-0.77,-0.77,-0.77
127.29,5.83,6.65,5.83,6.65,-6.64,-6.97,-7.19,-0.81,-0.81,-0.82
128.57,5.80,6.68,5.79,6.67,-6.64,-7.02,-7.17,-0.84,-0.85,-0.88
129.85,5.74,6.67,5.74,6.66,-6.64,-7.06,-7.12,-0.90,-0.91,-0.93
131.15,5.67,6.65,5.67,6.65,-6.64,-7.09,-7.07,-0.97,-0.97,-0.98
132.46,5.59,6.62,5.59,6.62,-6.64,-7.12,-7.00,-1.05,-1.04,-1.03
133.79,5.53,6.60,5.53,6.61,-6.63,-7.14,-6.93,-1.10,-1.09,-1.07
135.12,5.48,6.60,5.48,6.60,-6.62,-7.14,-6.85,-1.14,-1.13,-1.12
136.48,5.45,6.61,5.44,6.60,-6.61,-7.14,-6.76,-1.16,-1.17,-1.16
137.84,5.39,6.60,5.39,6.60,-6.60,-7.12,-6.66,-1.21,-1.20,-1.21
139.22,5.34,6.60,5.34,6.60,-6.59,-7.11,-6.56,-1.25,-1.24,-1.26
140.61,5.29,6.59,5.28,6.58,-6.58,-7.07,-6.45,-1.29,-1.29,-1.30
142.02,5.23,6.56,5.23,6.56,-6.56,-7.04,-6.34,-1.33,-1.34,-1.33
143.44,5.15,6.52,5.17,6.54,-6.54,-6.99,-6.22,-1.39,-1.37,-1.37
144.87,5.11,6.52,5.10,6.51,-6.50,-6.93,-6.10,-1.39,-1.40,-1.41
146.32,5.04,6.49,5.03,6.48,-6.46,-6.87,-5.97,-1.42,-1.43,-1.45
147.78,4.94,6.42,4.95,6.43,-6.40,-6.80,-5.85,-1.46,-1.46,-1.48
149.26,4.85,6.37,4.84,6.36,-6.34,-6.72,-5.72,-1.49,-1.50,-1.52
150.75,4.73,6.29,4.73,6.29,-6.28,-6.64,-5.60,-1.55,-1.55,-1.56
152.26,4.61,6.21,4.61,6.21,-6.22,-6.55,-5.47,-1.61,-1.61,-1.60
153.78,4.50,6.14,4.50,6.14,-6.17,-6.46,-5.35,-1.67,-1.67,-1.64
155.32,4.39,6.07,4.40,6.08,-6.11,-6.37,-5.22,-1.72,-1.71,-1.68
156.88,4.33,6.05,4.32,6.04,-6.06,-6.27,-5.10,-1.73,-1.74,-1.72
158.44,4.25,6.01,4.25,6.01,-6.01,-6.17,-4.98,-1.76,-1.76,-1.76
160.03,4.18,5.98,4.19,5.99,-5.96,-6.07,-4.85,-1.78,-1.77,-1.80
161.63,4.12,5.96,4.11,5.94,-5.91,-5.97,-4.74,-1.79,-1.80,-1.84
163.24,4.02,5.90,4.01,5.88,-5.86,-5.86,-4.62,-1.84,-1.85,-1.88
164.88,3.89,5.80,3.90,5.81,-5.81,-5.76,-4.51,-1.92,-1.91,-1.91
166.53,3.77,5.72,3.77,5.72,-5.75,-5.66,-4.40,-1.98,-1.97,-1.95
168.19,3.66,5.65,3.66,5.65,-5.68,-5.57,-4.29,-2.02,-2.02,-1.99
169.87,3.57,5.60,3.58,5.60,-5.62,-5.47,-4.18,-2.05,-2.04,-2.03
171.57,3.49,5.56,3.49,5.55,-5.54,-5.37,-4.08,-2.05,-2.06,-2.07
173.29,3.41,5.51,3.39,5.49,-5.47,-5.28,-3.98,-2.06,-2.08,-2.10
175.02,3.27,5.41,3.28,5.42,-5.40,-5.19,-3.88,-2.13,-2.11,-2.14
176.77,3.16,5.34,3.15,5.33,-5.32,-5.11,-3.79,-2.16,-2.17,-2.18
178.54,3.01,5.23,3.02,5.23,-5.25,-5.02,-3.70,-2.24,-2.23,-2.22
180.32,2.88,5.14,2.89,5.15,-5.17,-4.94,-3.61,-2.29,-2.27,-2.26
182.13,2.79,5.08,2.77,5.06,-5.08,-4.86,-3.52,-2.29,-2.31,-2.29
183.95,2.66,4.99,2.67,4.99,-5.00,-4.79,-3.44,-2.34,-2.33,-2.33
185.79,2.55,4.91,2.55,4.91,-4.91,-4.71,-3.36,-2.36,-2.36,-2.36
187.65,2.44,4.84,2.44,4.83,-4.82,-4.63,-3.28,-2.38,-2.39,-2.40
189.52,2.31,4.74,2.32,4.74,-4.73,-4.56,-3.20,-2.42,-2.41,-2.43
191.42,2.20,4.66,2.19,4.64,-4.63,-4.48,-3.13,-2.43,-2.45,-2.46
193.33,2.04,4.53,2.05,4.53,-4.53,-4.39,-3.06,-2.49,-2.49,-2.49
195.27,1.90,4.42,1.91,4.42,-4.42,-4.31,-2.99,-2.52,-2.52,-2.52
197.22,1.76,4.31,1.76,4.31,-4.31,-4.21,-2.93,-2.55,-2.55,-2.55
199.19,1.62,4.20,1.61,4.19,-4.19,-4.12,-2.86,-2.57,-2.58,-2.58
201.18,1.46,4.06,1.47,4.07,-4.07,-4.01,-2.80,-2.61,-2.60,-2.60
203.19,1.32,3.94,1.33,3.95,-3.95,-3.90,-2.74,-2.63,-2.62,-2.62
205.23,1.20,3.84,1.19,3.82,-3.83,-3.78,-2.69,-2.63,-2.64,-2.64
207.28,1.05,3.70,1.05,3.70,-3.70,-3.65,-2.63,-2.65,-2.65,-2.65
209.35,0.90,3.57,0.91,3.58,-3.58,-3.52,-2.58,-2.68,-2.67,-2.67
211.44,0.78,3.47,0.77,3.45,-3.46,-3.39,-2.53,-2.68,-2.69,-2.69
213.56,0.63,3.33,0.64,3.33,-3.33,-3.25,-2.48,-2.70,-2.69,-2.70
215.69,0.50,3.20,0.50,3.20,-3.19,-3.11,-2.43,-2.69,-2.69,-2.70
217.85,0.36,3.07,0.36,3.07,-3.06,-2.97,-2.38,-2.70,-2.70,-2.71
220.03,0.21,2.93,0.21,2.93,-2.92,-2.82,-2.33,-2.71,-2.71,-2.72
222.23,0.06,2.79,0.05,2.78,-2.78,-2.69,-2.29,-2.72,-2.72,-2.73
224.45,-0.10,2.63,-0.10,2.63,-2.64,-2.55,-2.25,-2.74,-2.73,-2.73
226.70,-0.25,2.48,-0.24,2.48,-2.49,-2.41,-2.20,-2.74,-2.74,-2.73
228.96,-0.37,2.36,-0.38,2.35,-2.35,-2.28,-2.16,-2.72,-2.73,-2.73
231.25,-0.52,2.20,-0.51,2.21,-2.21,-2.15,-2.12,-2.73,-2.72,-2.72
233.57,-0.63,2.09,-0.64,2.07,-2.07,-2.03,-2.08,-2.70,-2.72,-2.72
235.90,-0.79,1.93,-0.78,1.94,-1.94,-1.91,-2.04,-2.73,-2.72,-2.72
238.26,-0.90,1.81,-0.90,1.80,-1.81,-1.79,-2.00,-2.71,-2.71,-2.71
240.64,-1.03,1.67,-1.03,1.67,-1.67,-1.68,-1.97,-2.70,-2.70,-2.70
243.05,-1.14,1.55,-1.14,1.55,-1.54,-1.57,-1.93,-2.68,-2.68,-2.69
245.48,-1.25,1.43,-1.25,1.43,-1.41,-1.46,-1.89,-2.66,-2.66,-2.68
247.93,-1.36,1.31,-1.37,1.30,-1.28,-1.36,-1.85,-2.64,-2.65,-2.67
250.41,-1.48,1.18,-1.49,1.17,-1.16,-1.27,-1.82,-2.64,-2.65,-2.66
252.92,-1.61,1.03,-1.61,1.03,-1.05,-1.17,-1.78,-2.66,-2.65,-2.64
255.45,-1.71,0.91,-1.70,0.92,-0.94,-1.09,-1.74,-2.65,-2.65,-2.62
258.00,-1.79,0.82,-1.78,0.82,-0.84,-1.00,-1.70,-2.63,-2.63,-2.61
260.58,-1.82,0.77,-1.83,0.75,-0.76,-0.92,-1.67,-2.58,-2.59,-2.59
263.19,-1.88,0.69,-1.87,0.69,-0.68,-0.85,-1.63,-2.56,-2.56,-2.57
265.82,-1.91,0.64,-1.91,0.64,-0.62,-0.78,-1.59,-2.53,-2.53,-2.55
268.48,-1.94,0.59,-1.95,0.58,-0.58,-0.71,-1.56,-2.52,-2.53,-2.53
271.16,-1.97,0.54,-1.98,0.53,-0.54,-0.65,-1.52,-2.51,-2.52,-2.51
273.87,-2.01,0.48,-1.99,0.50,-0.52,-0.59,-1.49,-2.53,-2.50,-2.49
276.61,-1.98,0.49,-1.99,0.48,-0.50,-0.54,-1.45,-2.48,-2.48,-2.47
279.38,-1.96,0.49,-1.98,0.47,-0.48,-0.49,-1.41,-2.44,-2.46,-2.45
282.17,-1.96,0.47,-1.95,0.47,-0.47,-0.45,-1.38,-2.43,-2.42,-2.43
284.99,-1.95,0.46,-1.94,0.47,-0.46,-0.41,-1.34,-2.41,-2.40,-2.41
287.84,-1.91,0.48,-1.92,0.47,-0.45,-0.37,-1.31,-2.36,-2.36,-2.39
290.72,-1.91,0.46,-1.91,0.45,-0.43,-0.34,-1.27,-2.34,-2.34,-2.37
293.63,-1.91,0.44,-1.92,0.42,-0.41,-0.31,-1.24,-2.32,-2.33,-2.35
296.57,-1.96,0.37,-1.94,0.39,-0.39,-0.29,-1.20,-2.35,-2.33,-2.33
299.53,-1.96,0.35,-1.96,0.35,-0.36,-0.26,-1.17,-2.32,-2.32,-2.31
302.53,-1.96,0.33,-1.97,0.32,-0.34,-0.24,-1.13,-2.30,-2.31,-2.29
305.55,-1.96,0.30,-1.95,0.31,-0.32,-0.23,-1.10,-2.28,-2.27,-2.26
308.61,-1.94,0.30,-1.94,0.29,-0.30,-0.21,-1.07,-2.24,-2.24,-2.24
311.69,-1.91,0.30,-1.92,0.29,-0.29,-0.20,-1.03,-2.20,-2.21,-2.21
314.81,-1.90,0.28,-1.89,0.29,-0.28,-0.19,-1.00,-2.18,-2.18,-2.18
317.96,-1.87,0.29,-1.88,0.28,-0.28,-0.19,-0.97,-2.15,-2.16,-2.16
321.14,-1.87,0.27,-1.86,0.27,-0.28,-0.18,-0.94,-2.15,-2.14,-2.14
324.35,-1.85,0.27,-1.84,0.27,-0.27,-0.18,-0.91,-2.12,-2.11,-2.12
327.59,-1.82,0.28,-1.83,0.27,-0.26,-0.17,-0.88,-2.08,-2.09,-2.10
330.87,-1.82,0.26,-1.82,0.26,-0.25,-0.17,-0.85,-2.07,-2.07,-2.08
334.18,-1.82,0.24,-1.82,0.24,-0.23,-0.17,-0.82,-2.05,-2.05,-2.06
337.52,-1.82,0.22,-1.82,0.22,-0.22,-0.17,-0.79,-2.04,-2.04,-2.04
340.90,-1.82,0.20,-1.82,0.20,-0.20,-0.17,-0.76,-2.02,-2.02,-2.02
344.30,-1.82,0.18,-1.82,0.18,-0.18,-0.17,-0.73,-2.00,-2.00,-2.00
347.75,-1.82,0.16,-1.82,0.16,-0.16,-0.17,-0.70,-1.98,-1.98,-1.98
351.23,-1.82,0.14,-1.82,0.14,-0.14,-0.18,-0.68,-1.96,-1.96,-1.96
354.74,-1.82,0.12,-1.82,0.12,-0.12,-0.18,-0.65,-1.94,-1.94,-1.94
358.28,-1.82,0.11,-1.82,0.10,-0.10,-0.18,-0.62,-1.92,-1.92,-1.93
361.87,-1.82,0.09,-1.82,0.09,-0.09,-0.18,-0.60,-1.91,-1.91,-1.91
365.49,-1.82,0.07,-1.82,0.07,-0.07,-0.19,-0.57,-1.89,-1.89,-1.89
369.14,-1.82,0.06,-1.82,0.05,-0.05,-0.19,-0.54,-1.87,-1.87,-1.88
372.83,-1.82,0.04,-1.82,0.04,-0.04,-0.19,-0.52,-1.86,-1.86,-1.86
376.56,-1.82,0.03,-1.82,0.02,-0.02,-0.19,-0.49,-1.84,-1.84,-1.85
380.33,-1.82,0.01,-1.82,0.01,-0.01,-0.20,-0.47,-1.83,-1.83,-1.83
384.13,-1.82,-0.00,-1.82,-0.00,0.00,-0.20,-0.45,-1.82,-1.82,-1.82
387.97,-1.82,-0.01,-1.82,-0.01,0.01,-0.20,-0.42,-1.81,-1.81,-1.81
391.85,-1.82,-0.02,-1.82,-0.03,0.02,-0.20,-0.40,-1.80,-1.80,-1.80
395.77,-1.82,-0.04,-1.82,-0.04,0.03,-0.21,-0.38,-1.79,-1.79,-1.78
399.73,-1.82,-0.05,-1.80,-0.04,0.04,-0.21,-0.35,-1.78,-1.77,-1.77
403.72,-1.77,-0.01,-1.79,-0.03,0.04,-0.21,-0.33,-1.73,-1.75,-1.76
407.76,-1.77,-0.02,-1.77,-0.03,0.04,-0.21,-0.31,-1.73,-1.74,-1.75
411.84,-1.77,-0.03,-1.77,-0.03,0.03,-0.22,-0.29,-1.74,-1.74,-1.74
415.96,-1.77,-0.04,-1.77,-0.04,0.02,-0.22,-0.27,-1.75,-1.75,-1.73
420.12,-1.75,-0.03,-1.74,-0.03,0.01,-0.22,-0.25,-1.74,-1.73,-1.72
424.32,-1.71,-0.00,-1.71,0.00,-0.00,-0.22,-0.23,-1.71,-1.71,-1.71
428.56,-1.66,0.04,-1.67,0.03,-0.01,-0.22,-0.21,-1.67,-1.68,-1.70
432.85,-1.63,0.06,-1.64,0.05,-0.03,-0.23,-0.20,-1.66,-1.67,-1.69
437.18,-1.63,0.05,-1.62,0.05,-0.04,-0.23,-0.18,-1.67,-1.66,-1.68
441.55,-1.61,0.05,-1.61,0.05,-0.06,-0.23,-0.16,-1.67,-1.67,-1.66
445.96,-1.59,0.06,-1.59,0.06,-0.08,-0.23,-0.15,-1.67,-1.67,-1.65
450.42,-1.55,0.09,-1.55,0.08,-0.10,-0.23,-0.13,-1.65,-1.65,-1.64
454.93,-1.52,0.10,-1.51,0.11,-0.11,-0.23,-0.12,-1.63,-1.62,-1.62
459.48,-1.46,0.15,-1.47,0.14,-0.13,-0.23,-0.11,-1.59,-1.60,-1.61
464.07,-1.45,0.15,-1.44,0.15,-0.14,-0.24,-0.10,-1.59,-1.58,-1.60
468.71,-1.40,0.18,-1.41,0.17,-0.16,-0.24,-0.09,-1.56,-1.57,-1.58
473.40,-1.40,0.17,-1.39,0.17,-0.17,-0.24,-0.08,-1.57,-1.56,-1.57
478.13,-1.36,0.19,-1.37,0.18,-0.19,-0.24,-0.07,-1.55,-1.55,-1.55
482.91,-1.35,0.19,-1.34,0.19,-0.20,-0.24,-0.07,-1.55,-1.54,-1.54
487.74,-1.31,0.21,-1.31,0.21,-0.21,-0.24,-0.06,-1.52,-1.52,-1.52
492.62,-1.27,0.23,-1.28,0.22,-0.22,-0.25,-0.06,-1.49,-1.50,-1.50
