frequency,raw,error,smoothed,error_smoothed,equalization,parametric_eq,fixed_band_eq,equalized_raw,equalized_smoothed,target
20.00,0.04,-9.60,0.04,-9.60,9.56,9.13,3.33,9.61,9.61,9.64
20.20,0.13,-9.50,0.13,-9.50,9.49,9.10,3.42,9.62,9.62,9.63
20.40,0.21,-9.41,0.22,-9.41,9.41,9.07,3.52,9.63,9.63,9.62
20.61,0.30,-9.32,0.30,-9.31,9.34,9.03,3.62,9.64,9.64,9.62
20.81,0.38,-9.22,0.39,-9.22,9.26,8.99,3.72,9.65,9.65,9.60
21.02,0.46,-9.14,0.46,-9.15,9.19,8.96,3.82,9.65,9.64,9.60
21.23,0.51,-9.08,0.51,-9.09,9.11,8.91,3.93,9.63,9.63,9.59
21.44,0.55,-9.05,0.56,-9.04,9.04,8.87,4.04,9.60,9.60,9.60
21.66,0.60,-8.99,0.60,-8.99,8.98,8.83,4.15,9.58,9.58,9.59
21.87,0.64,-8.94,0.65,-8.94,8.91,8.78,4.27,9.56,9.56,9.58
22.09,0.70,-8.87,0.71,-8.86,8.84,8.74,4.39,9.55,9.56,9.57
22.31,0.79,-8.78,0.79,-8.78,8.77,8.69,4.51,9.57,9.56,9.57
22.54,0.87,-8.69,0.87,-8.69,8.69,8.64,4.64,9.57,9.57,9.56
22.76,0.95,-8.60,0.96,-8.60,8.61,8.59,4.76,9.57,9.57,9.55
22.99,1.04,-8.50,1.04,-8.51,8.53,8.54,4.90,9.57,9.56,9.54
23.22,1.11,-8.42,1.12,-8.42,8.44,8.49,5.03,9.55,9.55,9.53
23.45,1.19,-8.35,1.19,-8.34,8.34,8.44,5.17,9.54,9.54,9.54
23.69,1.27,-8.26,1.27,-8.27,8.25,8.38,5.31,9.52,9.52,9.53
23.92,1.36,-8.18,1.36,-8.18,8.14,8.33,5.46,9.50,9.50,9.53
24.16,1.45,-8.09,1.46,-8.08,8.05,8.27,5.60,9.50,9.51,9.54
24.40,1.58,-7.98,1.58,-7.97,7.96,8.21,5.75,9.54,9.54,9.55
24.65,1.69,-7.86,1.70,-7.85,7.89,8.16,5.91,9.58,9.59,9.55
24.89,1.81,-7.74,1.79,-7.76,7.82,8.10,6.06,9.64,9.62,9.55
25.14,1.85,-7.69,1.84,-7.70,7.77,8.04,6.22,9.63,9.62,9.54
25.39,1.84,-7.70,1.85,-7.70,7.73,7.98,6.38,9.58,9.58,9.54
25.65,1.83,-7.71,1.83,-7.72,7.70,7.91,6.54,9.53,9.53,9.54
25.91,1.81,-7.74,1.83,-7.72,7.67,7.85,6.70,9.48,9.50,9.55
26.16,1.86,-7.70,1.87,-7.69,7.64,7.79,6.86,9.50,9.51,9.56
26.43,1.93,-7.63,1.93,-7.64,7.60,7.72,7.02,9.53,9.53,9.56
26.69,2.00,-7.56,2.00,-7.56,7.55,7.66,7.17,9.55,9.55,9.56
26.96,2.07,-7.48,2.08,-7.48,7.49,7.59,7.33,9.56,9.56,9.55
27.23,2.15,-7.40,2.15,-7.40,7.42,7.53,7.48,9.57,9.57,9.55
27.50,2.23,-7.32,2.24,-7.32,7.34,7.46,7.63,9.58,9.58,9.55
27.77,2.31,-7.25,2.32,-7.25,7.27,7.40,7.78,9.58,9.58,9.56
28.05,2.39,-7.17,2.38,-7.17,7.20,7.33,7.92,9.59,9.58,9.56
28.33,2.43,-7.11,2.43,-7.12,7.12,7.26,8.05,9.55,9.55,9.54
28.62,2.48,-7.06,2.48,-7.07,7.04,7.19,8.17,9.53,9.52,9.54
28.90,2.52,-7.03,2.54,-7.01,6.97,7.12,8.28,9.49,9.51,9.55
29.19,2.61,-6.94,2.62,-6.93,6.90,7.05,8.38,9.51,9.52,9.55
29.48,2.72,-6.82,2.72,-6.83,6.83,6.98,8.47,9.56,9.56,9.54
29.78,2.82,-6.72,2.82,-6.73,6.77,6.91,8.55,9.60,9.59,9.54
30.08,2.90,-6.65,2.89,-6.66,6.71,6.84,8.61,9.61,9.60,9.55
30.38,2.91,-6.63,2.91,-6.63,6.65,6.77,8.66,9.56,9.56,9.54
30.68,2.92,-6.60,2.93,-6.61,6.59,6.70,8.69,9.52,9.52,9.52
30.99,2.93,-6.59,2.95,-6.57,6.54,6.63,8.70,9.47,9.49,9.52
31.30,2.99,-6.52,3.00,-6.52,6.49,6.55,8.70,9.49,9.49,9.51
31.61,3.06,-6.44,3.06,-6.45,6.45,6.48,8.68,9.51,9.50,9.50
31.93,3.12,-6.37,3.12,-6.38,6.39,6.41,8.65,9.51,9.51,9.49
32.24,3.17,-6.32,3.17,-6.32,6.33,6.33,8.60,9.50,9.50,9.49
32.57,3.22,-6.25,3.22,-6.26,6.25,6.26,8.53,9.48,9.48,9.47
32.89,3.27,-6.20,3.28,-6.19,6.18,6.19,8.45,9.45,9.46,9.47
33.22,3.35,-6.12,3.36,-6.11,6.10,6.11,8.36,9.45,9.46,9.47
33.55,3.45,-6.01,3.45,-6.02,6.02,6.04,8.26,9.47,9.47,9.46
33.89,3.55,-5.92,3.55,-5.92,5.92,5.97,8.14,9.48,9.47,9.47
34.23,3.63,-5.82,3.63,-5.83,5.83,5.89,8.01,9.46,9.45,9.45
34.57,3.69,-5.76,3.70,-5.76,5.73,5.82,7.88,9.43,9.43,9.45
34.92,3.76,-5.68,3.77,-5.68,5.65,5.74,7.74,9.42,9.43,9.44
35.27,3.86,-5.59,3.88,-5.57,5.59,5.67,7.59,9.45,9.47,9.45
35.62,3.97,-5.46,3.98,-5.46,5.54,5.59,7.43,9.51,9.51,9.43
35.97,4.07,-5.36,4.02,-5.41,5.49,5.52,7.28,9.56,9.52,9.43
36.33,4.01,-5.40,4.00,-5.41,5.44,5.44,7.12,9.46,9.45,9.41
36.70,3.94,-5.46,3.96,-5.44,5.39,5.37,6.96,9.34,9.35,9.40
37.06,3.90,-5.48,3.95,-5.44,5.34,5.29,6.79,9.24,9.29,9.38
37.43,4.01,-5.36,4.00,-5.36,5.29,5.22,6.63,9.29,9.29,9.36
37.81,4.11,-5.23,4.09,-5.25,5.23,5.14,6.47,9.35,9.33,9.34
38.19,4.19,-5.12,4.20,-5.12,5.17,5.07,6.30,9.36,9.37,9.32
38.57,4.26,-5.03,4.27,-5.02,5.09,4.99,6.14,9.35,9.36,9.29
38.95,4.32,-4.94,4.30,-4.96,4.99,4.92,5.98,9.32,9.30,9.26
39.34,4.32,-4.90,4.32,-4.92,4.90,4.84,5.82,9.22,9.21,9.22
39.74,4.32,-4.88,4.34,-4.87,4.81,4.77,5.67,9.14,9.15,9.20
40.14,4.36,-4.81,4.41,-4.76,4.74,4.69,5.51,9.10,9.15,9.18
40.54,4.51,-4.64,4.52,-4.64,4.67,4.62,5.36,9.18,9.19,9.15
40.94,4.66,-4.46,4.59,-4.54,4.60,4.54,5.21,9.26,9.18,9.12
41.35,4.61,-4.49,4.60,-4.50,4.52,4.47,5.07,9.13,9.12,9.10
41.76,4.53,-4.53,4.58,-4.49,4.45,4.39,4.93,8.98,9.03,9.06
42.18,4.56,-4.48,4.62,-4.42,4.37,4.32,4.79,8.94,9.00,9.04
42.60,4.74,-4.29,4.73,-4.29,4.30,4.24,4.65,9.03,9.02,9.02
43.03,4.89,-4.10,4.80,-4.20,4.23,4.17,4.52,9.12,9.03,8.99
43.46,4.82,-4.14,4.82,-4.15,4.17,4.09,4.39,8.99,8.99,8.96
43.90,4.75,-4.19,4.83,-4.11,4.10,4.02,4.26,8.86,8.93,8.95
44.33,4.85,-4.06,4.87,-4.04,4.02,3.94,4.14,8.87,8.90,8.90
44.78,5.00,-3.87,4.95,-3.94,3.94,3.87,4.02,8.94,8.89,8.87
45.23,5.03,-3.83,4.98,-3.87,3.87,3.79,3.90,8.90,8.85,8.86
45.68,4.95,-3.86,4.99,-3.83,3.80,3.72,3.79,8.76,8.79,8.82
46.13,4.95,-3.83,5.03,-3.75,3.74,3.64,3.68,8.68,8.77,8.77
46.60,5.13,-3.61,5.12,-3.63,3.66,3.57,3.57,8.79,8.78,8.75
47.06,5.28,-3.42,5.18,-3.53,3.57,3.49,3.47,8.86,8.75,8.70
47.53,5.18,-3.49,5.19,-3.47,3.48,3.42,3.37,8.67,8.68,8.67
48.01,5.09,-3.52,5.17,-3.45,3.40,3.34,3.27,8.49,8.57,8.62
48.49,5.19,-3.37,5.18,-3.39,3.31,3.27,3.17,8.51,8.49,8.57
48.97,5.28,-3.24,5.29,-3.24,3.23,3.19,3.08,8.52,8.52,8.52
49.46,5.38,-3.10,5.39,-3.08,3.16,3.12,2.99,8.54,8.55,8.48
49.96,5.48,-2.93,5.42,-3.01,3.08,3.05,2.90,8.56,8.49,8.42
50.46,5.40,-2.97,5.40,-2.98,2.99,2.97,2.81,8.40,8.39,8.38
50.96,5.30,-3.03,5.38,-2.95,2.91,2.90,2.73,8.22,8.29,8.33
51.47,5.38,-2.91,5.39,-2.90,2.83,2.82,2.64,8.22,8.22,8.29
51.99,5.49,-2.75,5.47,-2.78,2.76,2.75,2.56,8.26,8.23,8.25
52.51,5.55,-2.65,5.55,-2.65,2.70,2.68,2.48,8.25,8.25,8.21
53.03,5.61,-2.56,5.57,-2.59,2.62,2.60,2.41,8.24,8.19,8.17
53.56,5.55,-2.56,5.57,-2.55,2.54,2.53,2.33,8.10,8.11,8.11
54.10,5.53,-2.53,5.59,-2.48,2.47,2.46,2.26,8.00,8.05,8.07
54.64,5.63,-2.39,5.62,-2.40,2.39,2.38,2.18,8.02,8.01,8.03
55.18,5.69,-2.27,5.67,-2.30,2.32,2.31,2.11,8.01,7.99,7.96
55.74,5.69,-2.22,5.70,-2.23,2.25,2.23,2.04,7.95,7.95,7.92
56.29,5.69,-2.19,5.70,-2.18,2.18,2.16,1.97,7.87,7.88,7.88
56.86,5.69,-2.15,5.70,-2.13,2.10,2.09,1.91,7.80,7.81,7.85
57.42,5.73,-2.05,5.74,-2.06,2.03,2.02,1.84,7.76,7.77,7.78
58.00,5.79,-1.96,5.79,-1.96,1.96,1.94,1.77,7.76,7.76,7.75
58.58,5.85,-1.87,5.85,-1.87,1.90,1.87,1.71,7.76,7.75,7.72
59.16,5.89,-1.79,5.88,-1.80,1.84,1.80,1.64,7.74,7.72,7.68
59.76,5.89,-1.75,5.90,-1.74,1.77,1.72,1.58,7.66,7.67,7.65
60.35,5.89,-1.68,5.89,-1.69,1.68,1.65,1.51,7.57,7.57,7.57
60.96,5.89,-1.63,5.86,-1.66,1.59,1.58,1.45,7.48,7.45,7.53
61.57,5.84,-1.61,5.88,-1.57,1.50,1.51,1.38,7.34,7.38,7.46
62.18,5.88,-1.50,5.95,-1.44,1.41,1.43,1.32,7.29,7.36,7.38
62.80,6.10,-1.22,6.04,-1.29,1.32,1.36,1.26,7.42,7.35,7.32
63.43,6.14,-1.12,6.11,-1.16,1.23,1.29,1.19,7.37,7.34,7.26
64.07,6.09,-1.12,6.13,-1.08,1.15,1.22,1.13,7.24,7.28,7.22
64.71,6.09,-1.06,6.10,-1.05,1.07,1.15,1.06,7.17,7.17,7.16
65.35,6.09,-1.00,6.09,-1.01,1.01,1.07,1.00,7.10,7.10,7.09
66.01,6.09,-0.94,6.10,-0.94,0.95,1.00,0.94,7.04,7.04,7.04
66.67,6.09,-0.90,6.09,-0.89,0.88,0.93,0.87,6.98,6.97,6.99
67.33,6.08,-0.83,6.07,-0.86,0.81,0.86,0.81,6.89,6.88,6.91
68.01,6.05,-0.81,6.06,-0.81,0.73,0.79,0.74,6.78,6.79,6.86
68.69,6.06,-0.73,6.12,-0.68,0.64,0.71,0.68,6.70,6.76,6.80
69.37,6.19,-0.56,6.20,-0.54,0.54,0.64,0.61,6.73,6.75,6.74
70.07,6.37,-0.30,6.29,-0.39,0.45,0.57,0.54,6.82,6.73,6.67
70.77,6.31,-0.30,6.33,-0.28,0.35,0.50,0.48,6.66,6.68,6.61
71.48,6.29,-0.25,6.32,-0.22,0.26,0.43,0.41,6.55,6.58,6.55
72.19,6.29,-0.18,6.29,-0.19,0.17,0.36,0.35,6.47,6.46,6.47
72.91,6.29,-0.12,6.29,-0.12,0.11,0.28,0.28,6.40,6.40,6.41
73.64,6.29,-0.05,6.29,-0.05,0.05,0.21,0.21,6.34,6.34,6.34
74.38,6.29,0.01,6.30,0.01,-0.01,0.14,0.14,6.29,6.29,6.28
75.12,6.29,0.08,6.29,0.06,-0.07,0.07,0.07,6.23,6.22,6.21
75.87,6.29,0.12,6.27,0.10,-0.13,0.00,0.00,6.16,6.14,6.17
76.63,6.24,0.14,6.28,0.17,-0.21,-0.07,-0.06,6.04,6.08,6.10
77.40,6.29,0.24,6.32,0.26,-0.28,-0.14,-0.13,6.01,6.04,6.05
78.17,6.40,0.41,6.36,0.36,-0.35,-0.21,-0.21,6.06,6.01,5.99
78.95,6.40,0.45,6.40,0.46,-0.41,-0.28,-0.28,5.99,5.99,5.95
79.74,6.40,0.51,6.42,0.52,-0.48,-0.35,-0.35,5.92,5.94,5.89
80.54,6.40,0.57,6.40,0.56,-0.55,-0.43,-0.42,5.85,5.85,5.83
81.35,6.40,0.62,6.40,0.62,-0.62,-0.50,-0.49,5.78,5.78,5.78
82.16,6.39,0.66,6.39,0.66,-0.70,-0.57,-0.57,5.70,5.69,5.73
82.98,6.39,0.72,6.39,0.72,-0.77,-0.64,-0.64,5.63,5.63,5.67
83.81,6.39,0.78,6.43,0.81,-0.84,-0.71,-0.72,5.56,5.59,5.61
84.65,6.48,0.93,6.48,0.93,-0.91,-0.78,-0.79,5.57,5.56,5.55
85.50,6.54,1.06,6.51,1.03,-0.99,-0.85,-0.87,5.55,5.52,5.49
86.35,6.53,1.11,6.53,1.11,-1.07,-0.92,-0.95,5.47,5.47,5.42
87.22,6.50,1.13,6.52,1.15,-1.13,-0.99,-1.03,5.37,5.39,5.38
88.09,6.50,1.20,6.50,1.19,-1.20,-1.06,-1.11,5.31,5.31,5.31
88.97,6.50,1.25,6.51,1.26,-1.25,-1.13,-1.19,5.25,5.25,5.25
89.86,6.50,1.33,6.50,1.32,-1.31,-1.20,-1.27,5.19,5.19,5.17
90.76,6.50,1.39,6.48,1.36,-1.38,-1.27,-1.35,5.13,5.10,5.12
91.66,6.45,1.41,6.46,1.41,-1.45,-1.34,-1.44,5.00,5.01,5.04
92.58,6.42,1.44,6.47,1.49,-1.53,-1.41,-1.52,4.89,4.94,4.98
93.51,6.51,1.60,6.51,1.60,-1.62,-1.48,-1.61,4.89,4.89,4.92
94.44,6.60,1.76,6.57,1.72,-1.71,-1.55,-1.69,4.89,4.86,4.84
95.39,6.60,1.84,6.61,1.84,-1.80,-1.62,-1.78,4.80,4.81,4.77
96.34,6.60,1.92,6.61,1.92,-1.90,-1.69,-1.87,4.71,4.71,4.68
97.30,6.59,1.99,6.60,1.99,-1.99,-1.75,-1.96,4.60,4.60,4.60
98.28,6.58,2.07,6.58,2.07,-2.08,-1.82,-2.05,4.51,4.51,4.52
99.26,6.57,2.15,6.57,2.14,-2.15,-1.89,-2.14,4.42,4.42,4.42
100.25,6.55,2.21,6.56,2.21,-2.21,-1.96,-2.23,4.34,4.35,4.34
101.25,6.54,2.27,6.55,2.28,-2.27,-2.03,-2.32,4.28,4.28,4.27
102.27,6.53,2.35,6.53,2.34,-2.32,-2.10,-2.41,4.22,4.21,4.19
103.29,6.49,2.39,6.49,2.38,-2.37,-2.16,-2.50,4.13,4.12,4.10
104.32,6.44,2.41,6.44,2.41,-2.41,-2.23,-2.59,4.03,4.03,4.03
105.37,6.37,2.42,6.39,2.44,-2.45,-2.30,-2.68,3.92,3.93,3.96
106.42,6.34,2.48,6.35,2.48,-2.50,-2.37,-2.77,3.85,3.85,3.86
107.48,6.32,2.55,6.32,2.53,-2.54,-2.43,-2.86,3.78,3.77,3.77
108.56,6.29,2.58,6.30,2.59,-2.59,-2.50,-2.95,3.70,3.71,3.71
109.64,6.27,2.65,6.27,2.65,-2.64,-2.57,-3.03,3.63,3.63,3.62
110.74,6.25,2.71,6.25,2.70,-2.70,-2.63,-3.11,3.55,3.55,3.54
111.85,6.23,2.76,6.24,2.76,-2.76,-2.70,-3.20,3.47,3.47,3.47
112.97,6.23,2.83,6.23,2.82,-2.83,-2.76,-3.27,3.40,3.40,3.41
114.10,6.22,2.89,6.23,2.89,-2.90,-2.83,-3.35,3.32,3.32,3.34
115.24,6.22,2.97,6.22,2.97,-2.97,-2.89,-3.42,3.25,3.25,3.26
116.39,6.22,3.05,6.22,3.04,-3.04,-2.96,-3.49,3.18,3.18,3.17
117.55,6.22,3.11,6.23,3.12,-3.12,-3.02,-3.56,3.10,3.11,3.11
118.73,6.23,3.20,6.23,3.19,-3.19,-3.09,-3.62,3.04,3.04,3.03
119.92,6.23,3.26,6.24,3.26,-3.26,-3.15,-3.67,2.97,2.97,2.98
121.12,6.24,3.32,6.25,3.33,-3.32,-3.21,-3.73,2.92,2.93,2.93
122.33,6.25,3.40,6.25,3.39,-3.37,-3.27,-3.77,2.88,2.88,2.86
123.55,6.26,3.46,6.25,3.45,-3.42,-3.34,-3.82,2.85,2.83,2.80
124.79,6.21,3.47,6.22,3.48,-3.46,-3.40,-3.85,2.76,2.76,2.75
126.03,6.17,3.50,6.17,3.49,-3.50,-3.46,-3.89,2.68,2.67,2.67
127.29,6.11,3.50,6.12,3.51,-3.54,-3.52,-3.92,2.58,2.59,2.61
128.57,6.08,3.53,6.10,3.54,-3.58,-3.58,-3.94,2.51,2.52,2.55
129.85,6.09,3.61,6.09,3.60,-3.62,-3.64,-3.96,2.48,2.47,2.48
131.15,6.09,3.67,6.09,3.67,-3.67,-3.70,-3.97,2.42,2.42,2.42
132.46,6.10,3.74,6.10,3.74,-3.73,-3.75,-3.99,2.38,2.37,2.36
133.79,6.10,3.80,6.11,3.80,-3.79,-3.81,-3.99,2.31,2.31,2.30
135.12,6.11,3.87,6.11,3.86,-3.86,-3.87,-4.00,2.25,2.25,2.24
136.48,6.11,3.91,6.11,3.92,-3.93,-3.92,-4.00,2.19,2.18,2.20
137.84,6.11,3.97,6.13,3.99,-3.99,-3.98,-4.00,2.13,2.14,2.14
139.22,6.13,4.07,6.14,4.06,-4.04,-4.03,-3.99,2.09,2.10,2.06
140.61,6.15,4.13,6.13,4.12,-4.09,-4.08,-3.99,2.07,2.04,2.02
142.02,6.11,4.15,6.11,4.15,-4.13,-4.13,-3.98,1.98,1.97,1.96
143.44,6.05,4.16,6.07,4.16,-4.18,-4.19,-3.97,1.88,1.89,1.89
144.87,6.02,4.18,6.03,4.19,-4.21,-4.24,-3.96,1.81,1.82,1.84
146.32,6.02,4.23,6.03,4.24,-4.25,-4.29,-3.95,1.78,1.78,1.79
147.78,6.02,4.29,6.01,4.28,-4.27,-4.33,-3.94,1.75,1.74,1.73
149.26,6.01,4.33,5.99,4.31,-4.30,-4.38,-3.93,1.71,1.69,1.68
150.75,5.93,4.32,5.97,4.34,-4.33,-4.43,-3.92,1.61,1.64,1.61
152.26,5.92,4.35,5.94,4.37,-4.35,-4.47,-3.91,1.57,1.58,1.57
153.78,5.94,4.43,5.90,4.39,-4.39,-4.52,-3.91,1.56,1.52,1.51
155.32,5.86,4.40,5.88,4.41,-4.42,-4.56,-3.90,1.44,1.45,1.46
156.88,5.82,4.42,5.84,4.44,-4.47,-4.60,-3.90,1.36,1.38,1.40
158.44,5.82,4.48,5.82,4.47,-4.51,-4.64,-3.90,1.31,1.31,1.34
160.03,5.82,4.54,5.82,4.54,-4.56,-4.68,-3.90,1.27,1.26,1.28
161.63,5.82,4.60,5.82,4.60,-4.59,-4.72,-3.90,1.23,1.23,1.22
163.24,5.81,4.66,5.84,4.68,-4.63,-4.76,-3.90,1.18,1.20,1.15
164.88,5.82,4.72,5.83,4.73,-4.67,-4.79,-3.91,1.16,1.16,1.10
166.53,5.83,4.80,5.77,4.73,-4.70,-4.82,-3.92,1.13,1.07,1.03
168.19,5.68,4.70,5.70,4.72,-4.73,-4.86,-3.94,0.95,0.97,0.98
169.87,5.57,4.65,5.63,4.71,-4.75,-4.89,-3.95,0.82,0.87,0.92
171.57,5.59,4.74,5.58,4.72,-4.77,-4.92,-3.97,0.82,0.81,0.85
173.29,5.59,4.80,5.59,4.79,-4.79,-4.95,-4.00,0.80,0.79,0.79
175.02,5.59,4.85,5.58,4.84,-4.81,-4.97,-4.02,0.78,0.77,0.74
176.77,5.55,4.86,5.55,4.86,-4.84,-5.00,-4.05,0.72,0.71,0.69
178.54,5.49,4.86,5.51,4.88,-4.87,-5.02,-4.08,0.63,0.65,0.63
180.32,5.47,4.90,5.47,4.89,-4.90,-5.05,-4.12,0.58,0.58,0.57
182.13,5.46,4.93,5.44,4.91,-4.92,-5.07,-4.16,0.54,0.52,0.53
183.95,5.41,4.93,5.43,4.95,-4.95,-5.09,-4.20,0.47,0.49,0.48
185.79,5.40,4.97,5.41,4.97,-4.97,-5.10,-4.24,0.43,0.44,0.43
187.65,5.41,5.02,5.38,4.99,-5.00,-5.12,-4.29,0.41,0.38,0.39
189.52,5.35,5.01,5.37,5.02,-5.04,-5.14,-4.34,0.32,0.33,0.34
191.42,5.34,5.03,5.36,5.05,-5.07,-5.15,-4.39,0.27,0.29,0.31
193.33,5.36,5.10,5.36,5.10,-5.10,-5.16,-4.45,0.26,0.26,0.26
195.27,5.37,5.16,5.37,5.15,-5.13,-5.17,-4.51,0.24,0.24,0.21
197.22,5.37,5.21,5.36,5.19,-5.16,-5.18,-4.57,0.21,0.20,0.16
199.19,5.32,5.19,5.33,5.20,-5.19,-5.19,-4.63,0.14,0.15,0.13
201.18,5.29,5.21,5.29,5.20,-5.20,-5.19,-4.70,0.09,0.09,0.08
203.19,5.24,5.19,5.25,5.20,-5.21,-5.20,-4.77,0.03,0.04,0.05
205.23,5.21,5.20,5.23,5.21,-5.21,-5.20,-4.83,0.00,0.01,0.01
207.28,5.21,5.23,5.20,5.22,-5.21,-5.20,-4.90,0.00,-0.01,-0.02
209.35,5.16,5.22,5.16,5.22,-5.20,-5.20,-4.97,-0.04,-0.05,-0.06
211.44,5.10,5.21,5.10,5.20,-5.20,-5.19,-5.04,-0.10,-0.10,-0.11
213.56,5.02,5.16,5.04,5.18,-5.20,-5.19,-5.11,-0.18,-0.16,-0.14
215.69,4.99,5.17,5.00,5.18,-5.20,-5.19,-5.18,-0.20,-0.19,-0.18
217.85,4.99,5.20,4.97,5.18,-5.19,-5.18,-5.25,-0.20,-0.22,-0.21
220.03,4.94,5.20,4.95,5.20,-5.18,-5.17,-5.31,-0.24,-0.23,-0.26
222.23,4.90,5.18,4.92,5.20,-5.17,-5.16,-5.37,-0.27,-0.26,-0.28
224.45,4.89,5.20,4.87,5.18,-5.17,-5.15,-5.43,-0.27,-0.29,-0.31
226.70,4.82,5.16,4.83,5.16,-5.16,-5.14,-5.49,-0.34,-0.33,-0.34
228.96,4.78,5.14,4.78,5.13,-5.15,-5.12,-5.54,-0.37,-0.37,-0.36
231.25,4.72,5.09,4.74,5.11,-5.13,-5.10,-5.59,-0.41,-0.40,-0.37
233.57,4.71,5.11,4.73,5.12,-5.11,-5.09,-5.63,-0.40,-0.39,-0.40
235.90,4.72,5.13,4.72,5.12,-5.10,-5.07,-5.67,-0.37,-0.38,-0.41
238.26,4.72,5.15,4.69,5.11,-5.09,-5.05,-5.70,-0.36,-0.40,-0.43
240.64,4.63,5.05,4.65,5.07,-5.08,-5.03,-5.72,-0.45,-0.43,-0.42
243.05,4.58,5.01,4.60,5.04,-5.07,-5.01,-5.74,-0.49,-0.47,-0.43
245.48,4.58,5.03,4.59,5.03,-5.06,-4.98,-5.74,-0.48,-0.47,-0.45
247.93,4.61,5.07,4.61,5.05,-5.05,-4.96,-5.75,-0.44,-0.44,-0.46
250.41,4.63,5.08,4.62,5.07,-5.03,-4.93,-5.74,-0.40,-0.41,-0.45
252.92,4.59,5.04,4.60,5.05,-5.01,-4.91,-5.72,-0.42,-0.41,-0.45
255.45,4.55,5.02,4.55,5.01,-5.00,-4.88,-5.70,-0.44,-0.44,-0.47
258.00,4.49,4.97,4.49,4.96,-4.98,-4.85,-5.67,-0.48,-0.49,-0.48
260.58,4.42,4.91,4.43,4.92,-4.95,-4.82,-5.63,-0.53,-0.52,-0.49
263.19,4.38,4.88,4.40,4.89,-4.92,-4.79,-5.59,-0.54,-0.53,-0.50
265.82,4.37,4.89,4.38,4.89,-4.89,-4.75,-5.53,-0.51,-0.50,-0.52
268.48,4.37,4.89,4.35,4.88,-4.85,-4.72,-5.48,-0.48,-0.50,-0.52
271.16,4.33,4.87,4.30,4.83,-4.82,-4.69,-5.41,-0.48,-0.52,-0.54
273.87,4.20,4.75,4.24,4.79,-4.78,-4.65,-5.34,-0.58,-0.54,-0.55
276.61,4.16,4.73,4.18,4.75,-4.75,-4.62,-5.27,-0.59,-0.58,-0.57
279.38,4.14,4.74,4.12,4.71,-4.72,-4.58,-5.19,-0.57,-0.60,-0.60
282.17,4.08,4.68,4.08,4.67,-4.68,-4.54,-5.11,-0.60,-0.60,-0.60
284.99,4.02,4.62,4.04,4.64,-4.64,-4.51,-5.02,-0.62,-0.60,-0.60
287.84,3.97,4.57,3.99,4.59,-4.60,-4.47,-4.93,-0.62,-0.61,-0.60
290.72,3.98,4.60,3.96,4.56,-4.56,-4.43,-4.84,-0.57,-0.60,-0.62
293.63,3.91,4.52,3.92,4.53,-4.51,-4.39,-4.75,-0.60,-0.59,-0.61
296.57,3.87,4.48,3.88,4.49,-4.47,-4.35,-4.66,-0.60,-0.59,-0.61
299.53,3.83,4.45,3.82,4.43,-4.43,-4.31,-4.57,-0.60,-0.61,-0.62
302.53,3.76,4.37,3.77,4.38,-4.39,-4.26,-4.47,-0.63,-0.62,-0.61
305.55,3.72,4.34,3.72,4.33,-4.36,-4.22,-4.38,-0.63,-0.64,-0.62
308.61,3.66,4.27,3.68,4.30,-4.32,-4.18,-4.29,-0.65,-0.63,-0.61
311.69,3.66,4.29,3.67,4.28,-4.28,-4.13,-4.20,-0.62,-0.62,-0.63
314.81,3.66,4.28,3.65,4.27,-4.25,-4.09,-4.11,-0.59,-0.60,-0.62
317.96,3.61,4.25,3.61,4.24,-4.22,-4.05,-4.02,-0.61,-0.61,-0.64
321.14,3.56,4.19,3.56,4.18,-4.19,-4.00,-3.93,-0.62,-0.63,-0.63
324.35,3.48,4.12,3.51,4.14,-4.15,-3.96,-3.85,-0.67,-0.64,-0.64
327.59,3.46,4.09,3.47,4.10,-4.11,-3.91,-3.76,-0.64,-0.64,-0.63
330.87,3.45,4.09,3.44,4.07,-4.06,-3.87,-3.68,-0.60,-0.62,-0.64
334.18,3.38,4.03,3.39,4.03,-4.00,-3.82,-3.60,-0.62,-0.61,-0.65
337.52,3.33,3.97,3.31,3.95,-3.94,-3.77,-3.53,-0.61,-0.64,-0.64
340.90,3.20,3.85,3.23,3.87,-3.88,-3.73,-3.45,-0.68,-0.65,-0.65
344.30,3.15,3.79,3.18,3.81,-3.83,-3.68,-3.38,-0.67,-0.65,-0.64
347.75,3.15,3.78,3.12,3.75,-3.77,-3.63,-3.31,-0.61,-0.65,-0.63
351.23,3.08,3.73,3.07,3.70,-3.70,-3.59,-3.24,-0.62,-0.63,-0.65
354.74,2.98,3.61,3.02,3.65,-3.64,-3.54,-3.18,-0.66,-0.63,-0.63
358.28,2.96,3.59,2.96,3.59,-3.58,-3.49,-3.12,-0.62,-0.62,-0.63
361.87,2.92,3.55,2.92,3.54,-3.53,-3.44,-3.06,-0.61,-0.61,-0.63
365.49,2.88,3.50,2.87,3.49,-3.48,-3.40,-3.00,-0.59,-0.61,-0.62
369.14,2.80,3.41,2.81,3.41,-3.43,-3.35,-2.95,-0.62,-0.62,-0.61
372.83,2.74,3.34,2.75,3.35,-3.38,-3.30,-2.89,-0.64,-0.63,-0.60
376.56,2.70,3.31,2.72,3.32,-3.33,-3.25,-2.84,-0.63,-0.61,-0.61
380.33,2.70,3.31,2.69,3.29,-3.29,-3.20,-2.80,-0.58,-0.59,-0.61
384.13,2.68,3.28,2.65,3.25,-3.24,-3.15,-2.75,-0.56,-0.59,-0.60
387.97,2.57,3.17,2.60,3.20,-3.19,-3.10,-2.71,-0.61,-0.59,-0.60
391.85,2.52,3.13,2.54,3.15,-3.13,-3.06,-2.67,-0.61,-0.59,-0.61
395.77,2.50,3.12,2.48,3.09,-3.08,-3.01,-2.63,-0.58,-0.60,-0.62
399.73,2.43,3.05,2.41,3.03,-3.02,-2.96,-2.59,-0.59,-0.61,-0.62
403.72,2.32,2.93,2.33,2.95,-2.96,-2.91,-2.55,-0.63,-0.63,-0.61
407.76,2.22,2.85,2.25,2.88,-2.89,-2.86,-2.52,-0.67,-0.64,-0.63
411.84,2.20,2.84,2.18,2.82,-2.83,-2.81,-2.48,-0.63,-0.65,-0.64
415.96,2.14,2.78,2.13,2.77,-2.76,-2.76,-2.45,-0.62,-0.63,-0.64
420.12,2.05,2.70,2.07,2.71,-2.69,-2.71,-2.42,-0.64,-0.62,-0.65
424.32,2.01,2.65,2.01,2.64,-2.63,-2.66,-2.39,-0.62,-0.62,-0.64
428.56,1.95,2.57,1.96,2.58,-2.58,-2.61,-2.36,-0.62,-0.61,-0.62
432.85,1.92,2.52,1.92,2.52,-2.52,-2.56,-2.33,-0.60,-0.61,-0.60
437.18,1.88,2.47,1.86,2.44,-2.47,-2.51,-2.31,-0.59,-0.61,-0.59
441.55,1.82,2.38,1.84,2.39,-2.42,-2.46,-2.28,-0.60,-0.58,-0.56
445.96,1.81,2.33,1.86,2.38,-2.37,-2.41,-2.25,-0.56,-0.51,-0.52
450.42,1.90,2.38,1.87,2.34,-2.32,-2.36,-2.22,-0.42,-0.45,-0.48
454.93,1.93,2.36,1.88,2.30,-2.28,-2.31,-2.19,-0.34,-0.40,-0.43
459.48,1.82,2.19,1.88,2.25,-2.23,-2.25,-2.16,-0.41,-0.35,-0.37
464.07,1.86,2.16,1.87,2.17,-2.18,-2.20,-2.13,-0.32,-0.31,-0.30
468.71,1.89,2.14,1.87,2.11,-2.14,-2.15,-2.10,-0.24,-0.26,-0.25
473.40,1.90,2.09,1.90,2.08,-2.08,-2.10,-2.07,-0.18,-0.18,-0.19
478.13,1.88,2.01,1.89,2.02,-2.02,-2.04,-2.04,-0.14,-0.13,-0.13
482.91,1.89,1.97,1.88,1.97,-1.96,-1.99,-2.01,-0.07,-0.08,-0.08
487.74,1.85,1.90,1.87,1.91,-1.90,-1.93,-1.97,-0.04,-0.02,-0.05
492.62,1.86,1.87,1.85,1.85,-1.83,-1.88,-1.93,0.03,0.01,-0.01
497.55,1.81,1.78,1.80,1.78,-1.77,-1.82,-1.90,0.05,0.04,0.03
502.52,1.74,1.69,1.77,1.71,-1.70,-1.76,-1.86,0.04,0.06,0.05
507.55,1.70,1.62,1.70,1.62,-1.64,-1.70,-1.82,0.07,0.06,0.08
512.62,1.66,1.57,1.63,1.54,-1.57,-1.64,-1.77,0.09,0.06,0.09
517.75,1.55,1.45,1.61,1.50,-1.51,-1.58,-1.73,0.05,0.10,0.10
522.93,1.54,1.44,1.56,1.46,-1.45,-1.52,-1.68,0.10,0.11,0.10
528.16,1.57,1.49,1.48,1.40,-1.39,-1.45,-1.63,0.18,0.09,0.08
533.44,1.37,1.31,1.41,1.34,-1.34,-1.38,-1.58,0.04,0.07,0.06
