frequency,raw,error,smoothed,error_smoothed,equalization,parametric_eq,fixed_band_eq,equalized_raw,equalized_smoothed,target
20.00,-12.55,-17.13,-12.54,-17.13,17.16,16.84,6.05,4.62,4.63,4.59
20.20,-12.50,-17.12,-12.50,-17.13,17.14,16.90,6.20,4.65,4.64,4.63
20.40,-12.46,-17.11,-12.46,-17.12,17.12,16.96,6.35,4.66,4.66,4.66
20.61,-12.41,-17.09,-12.41,-17.10,17.08,16.99,6.51,4.68,4.67,4.69
20.81,-12.36,-17.08,-12.36,-17.09,17.05,17.03,6.66,4.69,4.69,4.73
21.02,-12.31,-17.07,-12.29,-17.05,17.01,17.04,6.83,4.70,4.71,4.77
21.23,-12.21,-16.98,-12.21,-16.99,16.96,17.05,7.00,4.75,4.75,4.78
21.44,-12.11,-16.90,-12.11,-16.91,16.91,17.03,7.17,4.80,4.79,4.80
21.66,-12.02,-16.83,-12.01,-16.82,16.84,17.01,7.34,4.82,4.83,4.82
21.87,-11.91,-16.74,-11.92,-16.74,16.77,16.97,7.53,4.85,4.85,4.83
22.09,-11.83,-16.66,-11.83,-16.67,16.70,16.92,7.71,4.87,4.86,4.84
22.31,-11.77,-16.60,-11.76,-16.61,16.63,16.85,7.91,4.86,4.86,4.84
22.54,-11.71,-16.55,-11.71,-16.55,16.55,16.79,8.10,4.85,4.85,4.85
22.76,-11.65,-16.50,-11.65,-16.50,16.48,16.70,8.31,4.84,4.83,4.86
22.99,-11.59,-16.44,-11.58,-16.44,16.41,16.62,8.51,4.83,4.84,4.86
23.22,-11.50,-16.36,-11.50,-16.36,16.34,16.52,8.73,4.85,4.85,4.87
23.45,-11.40,-16.27,-11.40,-16.28,16.28,16.42,8.94,4.88,4.88,4.88
23.69,-11.31,-16.20,-11.30,-16.19,16.21,16.32,9.17,4.90,4.91,4.89
23.92,-11.21,-16.10,-11.21,-16.11,16.14,16.21,9.40,4.93,4.92,4.90
24.16,-11.14,-16.04,-11.14,-16.05,16.07,16.11,9.64,4.93,4.92,4.91
24.40,-11.09,-16.00,-11.08,-15.99,16.00,16.00,9.87,4.91,4.92,4.92
24.65,-11.03,-15.93,-11.02,-15.94,15.93,15.90,10.12,4.90,4.90,4.91
24.89,-10.96,-15.87,-10.96,-15.87,15.86,15.79,10.37,4.90,4.90,4.91
25.14,-10.90,-15.80,-10.90,-15.80,15.79,15.69,10.63,4.90,4.90,4.91
25.39,-10.82,-15.73,-10.82,-15.73,15.72,15.59,10.89,4.90,4.90,4.91
25.65,-10.75,-15.65,-10.75,-15.65,15.65,15.49,11.16,4.90,4.90,4.91
25.91,-10.67,-15.56,-10.67,-15.57,15.57,15.40,11.43,4.90,4.90,4.89
26.16,-10.58,-15.48,-10.59,-15.48,15.48,15.31,11.71,4.90,4.90,4.90
26.43,-10.51,-15.41,-10.50,-15.40,15.40,15.22,11.99,4.89,4.90,4.90
26.69,-10.42,-15.31,-10.42,-15.32,15.31,15.13,12.27,4.89,4.89,4.90
26.96,-10.34,-15.23,-10.34,-15.24,15.23,15.05,12.55,4.89,4.89,4.90
27.23,-10.27,-15.16,-10.26,-15.16,15.16,14.97,12.83,4.89,4.90,4.90
27.50,-10.19,-15.08,-10.18,-15.08,15.09,14.89,13.12,4.91,4.92,4.90
27.77,-10.11,-14.99,-10.11,-15.00,15.04,14.82,13.39,4.94,4.93,4.89
28.05,-10.05,-14.93,-10.06,-14.94,14.99,14.74,13.67,4.95,4.93,4.89
28.33,-10.05,-14.91,-10.05,-14.92,14.94,14.67,13.94,4.89,4.90,4.87
28.62,-10.04,-14.91,-10.04,-14.92,14.88,14.61,14.20,4.85,4.84,4.88
28.90,-10.04,-14.91,-10.02,-14.89,14.82,14.54,14.44,4.78,4.80,4.88
29.19,-9.96,-14.82,-9.94,-14.82,14.75,14.48,14.68,4.80,4.81,4.87
29.48,-9.83,-14.70,-9.83,-14.71,14.68,14.42,14.89,4.85,4.85,4.88
29.78,-9.70,-14.58,-9.71,-14.58,14.60,14.36,15.09,4.90,4.89,4.88
30.08,-9.59,-14.47,-9.60,-14.48,14.52,14.30,15.25,4.93,4.92,4.88
30.38,-9.54,-14.39,-9.53,-14.39,14.44,14.25,15.40,4.90,4.91,4.86
30.68,-9.48,-14.33,-9.47,-14.33,14.37,14.20,15.51,4.89,4.89,4.86
30.99,-9.43,-14.27,-9.43,-14.29,14.30,14.14,15.60,4.87,4.87,4.85
31.30,-9.41,-14.25,-9.40,-14.25,14.25,14.09,15.65,4.84,4.84,4.85
31.61,-9.38,-14.22,-9.38,-14.22,14.20,14.04,15.68,4.82,4.82,4.85
31.93,-9.36,-14.18,-9.35,-14.18,14.15,13.99,15.66,4.79,4.80,4.83
32.24,-9.30,-14.11,-9.29,-14.11,14.09,13.95,15.63,4.80,4.80,4.82
32.57,-9.22,-14.03,-9.22,-14.04,14.03,13.90,15.56,4.82,4.81,4.82
32.89,-9.15,-13.96,-9.15,-13.96,13.97,13.85,15.47,4.82,4.82,4.82
33.22,-9.08,-13.89,-9.07,-13.89,13.90,13.81,15.35,4.82,4.83,4.82
33.55,-9.00,-13.80,-9.00,-13.81,13.82,13.76,15.22,4.83,4.83,4.81
33.89,-8.93,-13.73,-8.93,-13.74,13.74,13.72,15.07,4.82,4.82,4.81
34.23,-8.86,-13.66,-8.86,-13.67,13.66,13.67,14.91,4.80,4.80,4.81
34.57,-8.81,-13.60,-8.81,-13.60,13.58,13.63,14.73,4.77,4.77,4.80
34.92,-8.75,-13.53,-8.74,-13.53,13.50,13.58,14.56,4.76,4.77,4.79
35.27,-8.66,-13.45,-8.65,-13.43,13.43,13.54,14.37,4.78,4.79,4.79
35.62,-8.56,-13.33,-8.56,-13.33,13.36,13.50,14.18,4.81,4.81,4.78
35.97,-8.46,-13.22,-8.48,-13.26,13.30,13.45,13.99,4.84,4.81,4.77
36.33,-8.45,-13.21,-8.45,-13.22,13.23,13.41,13.80,4.79,4.78,4.77
36.70,-8.44,-13.20,-8.43,-13.19,13.17,13.36,13.61,4.74,4.74,4.77
37.06,-8.43,-13.17,-8.40,-13.15,13.12,13.32,13.43,4.70,4.72,4.75
37.43,-8.34,-13.08,-8.34,-13.08,13.07,13.28,13.25,4.74,4.74,4.75
37.81,-8.26,-12.99,-8.27,-13.01,13.03,13.23,13.07,4.77,4.75,4.74
38.19,-8.22,-12.94,-8.23,-12.96,12.98,13.18,12.90,4.76,4.75,4.73
38.57,-8.22,-12.94,-8.21,-12.94,12.93,13.14,12.74,4.71,4.71,4.73
38.95,-8.22,-12.93,-8.19,-12.90,12.88,13.09,12.58,4.66,4.69,4.72
39.34,-8.14,-12.84,-8.13,-12.84,12.83,13.05,12.43,4.69,4.70,4.71
39.74,-8.05,-12.73,-8.06,-12.76,12.78,13.00,12.29,4.73,4.72,4.69
40.14,-7.99,-12.68,-8.01,-12.70,12.73,12.95,12.15,4.74,4.72,4.70
40.54,-7.99,-12.67,-7.99,-12.68,12.68,12.90,12.03,4.70,4.70,4.69
40.94,-7.99,-12.67,-7.96,-12.64,12.63,12.85,11.91,4.64,4.67,4.69
41.35,-7.93,-12.59,-7.92,-12.59,12.57,12.80,11.80,4.65,4.65,4.67
41.76,-7.85,-12.49,-7.86,-12.51,12.51,12.75,11.69,4.66,4.65,4.65
42.18,-7.80,-12.43,-7.81,-12.44,12.44,12.69,11.60,4.64,4.62,4.64
42.60,-7.78,-12.38,-7.77,-12.39,12.36,12.64,11.51,4.59,4.59,4.61
43.03,-7.75,-12.34,-7.72,-12.31,12.29,12.59,11.43,4.54,4.57,4.60
43.46,-7.65,-12.21,-7.64,-12.21,12.21,12.53,11.35,4.57,4.57,4.57
43.90,-7.55,-12.07,-7.58,-12.10,12.14,12.47,11.29,4.59,4.56,4.52
44.33,-7.53,-12.01,-7.53,-12.02,12.07,12.41,11.23,4.54,4.54,4.49
44.78,-7.53,-11.98,-7.52,-11.98,12.00,12.36,11.19,4.47,4.48,4.46
45.23,-7.53,-11.95,-7.53,-11.96,11.93,12.29,11.14,4.40,4.40,4.43
45.68,-7.53,-11.92,-7.52,-11.92,11.86,12.23,11.11,4.34,4.34,4.40
46.13,-7.50,-11.87,-7.47,-11.84,11.81,12.17,11.08,4.31,4.34,4.38
46.60,-7.39,-11.76,-7.39,-11.76,11.76,12.11,11.06,4.37,4.37,4.37
47.06,-7.30,-11.64,-7.33,-11.68,11.72,12.04,11.05,4.42,4.39,4.35
47.53,-7.30,-11.64,-7.29,-11.64,11.68,11.97,11.05,4.38,4.39,4.35
48.01,-7.30,-11.64,-7.29,-11.63,11.65,11.91,11.05,4.35,4.36,4.35
48.49,-7.30,-11.62,-7.30,-11.63,11.62,11.84,11.05,4.32,4.32,4.33
48.97,-7.30,-11.61,-7.30,-11.61,11.61,11.77,11.07,4.31,4.31,4.32
49.46,-7.30,-11.60,-7.30,-11.61,11.61,11.69,11.09,4.31,4.31,4.31
49.96,-7.30,-11.60,-7.30,-11.61,11.61,11.62,11.11,4.31,4.31,4.31
50.46,-7.30,-11.61,-7.30,-11.61,11.62,11.55,11.14,4.32,4.32,4.32
50.96,-7.30,-11.62,-7.30,-11.62,11.62,11.47,11.18,4.33,4.33,4.33
51.47,-7.30,-11.61,-7.30,-11.61,11.62,11.40,11.22,4.32,4.32,4.32
51.99,-7.30,-11.59,-7.30,-11.60,11.61,11.32,11.26,4.31,4.31,4.30
52.51,-7.30,-11.58,-7.30,-11.58,11.58,11.24,11.30,4.28,4.28,4.29
53.03,-7.30,-11.55,-7.31,-11.57,11.54,11.16,11.35,4.24,4.23,4.26
53.56,-7.30,-11.52,-7.29,-11.52,11.48,11.08,11.40,4.18,4.19,4.23
54.10,-7.28,-11.46,-7.24,-11.42,11.41,11.00,11.45,4.13,4.17,4.19
54.64,-7.16,-11.29,-7.18,-11.32,11.32,10.92,11.50,4.16,4.14,4.14
55.18,-7.08,-11.16,-7.12,-11.21,11.21,10.84,11.55,4.14,4.10,4.09
55.74,-7.08,-11.11,-7.04,-11.08,11.10,10.76,11.60,4.02,4.05,4.04
56.29,-7.01,-10.99,-6.98,-10.96,10.97,10.67,11.64,3.96,3.99,3.99
56.86,-6.88,-10.81,-6.93,-10.85,10.84,10.59,11.68,3.96,3.91,3.93
57.42,-6.85,-10.70,-6.86,-10.72,10.72,10.51,11.72,3.87,3.86,3.86
58.00,-6.85,-10.64,-6.79,-10.59,10.60,10.43,11.75,3.75,3.81,3.80
58.58,-6.72,-10.45,-6.72,-10.46,10.48,10.35,11.77,3.77,3.76,3.74
59.16,-6.62,-10.30,-6.66,-10.34,10.37,10.27,11.78,3.75,3.71,3.69
59.76,-6.62,-10.24,-6.62,-10.25,10.25,10.19,11.78,3.63,3.63,3.63
60.35,-6.62,-10.17,-6.61,-10.18,10.13,10.11,11.78,3.52,3.52,3.56
60.96,-6.62,-10.12,-6.57,-10.07,10.02,10.03,11.76,3.41,3.46,3.51
61.57,-6.49,-9.93,-6.50,-9.93,9.92,9.95,11.73,3.44,3.43,3.44
62.18,-6.39,-9.75,-6.43,-9.80,9.83,9.88,11.69,3.45,3.41,3.37
62.80,-6.39,-9.71,-6.38,-9.70,9.75,9.80,11.63,3.36,3.37,3.33
63.43,-6.39,-9.65,-6.38,-9.65,9.67,9.73,11.57,3.29,3.30,3.27
64.07,-6.39,-9.61,-6.39,-9.61,9.61,9.66,11.49,3.22,3.22,3.23
64.71,-6.39,-9.56,-6.39,-9.56,9.55,9.58,11.40,3.17,3.17,3.18
65.35,-6.39,-9.51,-6.39,-9.52,9.51,9.52,11.30,3.13,3.13,3.13
66.01,-6.39,-9.48,-6.39,-9.48,9.48,9.45,11.18,3.10,3.10,3.10
66.67,-6.39,-9.44,-6.39,-9.45,9.46,9.38,11.06,3.07,3.07,3.06
67.33,-6.39,-9.41,-6.39,-9.42,9.43,9.32,10.93,3.04,3.04,3.03
68.01,-6.39,-9.38,-6.39,-9.38,9.39,9.25,10.79,3.00,3.00,3.00
68.69,-6.39,-9.35,-6.40,-9.36,9.34,9.19,10.65,2.95,2.93,2.97
69.37,-6.39,-9.31,-6.38,-9.31,9.27,9.13,10.50,2.89,2.90,2.93
70.07,-6.37,-9.26,-6.32,-9.22,9.20,9.07,10.34,2.83,2.88,2.90
70.77,-6.21,-9.09,-6.26,-9.14,9.12,9.01,10.18,2.91,2.86,2.89
71.48,-6.16,-9.00,-6.16,-9.01,9.02,8.96,10.02,2.87,2.86,2.85
72.19,-6.12,-8.94,-6.07,-8.89,8.92,8.90,9.85,2.80,2.85,2.83
72.91,-5.96,-8.74,-6.01,-8.80,8.81,8.84,9.69,2.85,2.80,2.79
73.64,-5.94,-8.69,-5.92,-8.68,8.68,8.79,9.52,2.75,2.76,2.76
74.38,-5.88,-8.60,-5.85,-8.58,8.56,8.73,9.36,2.69,2.71,2.73
75.12,-5.76,-8.45,-5.79,-8.48,8.45,8.68,9.19,2.69,2.66,2.70
75.87,-5.72,-8.38,-5.69,-8.36,8.35,8.63,9.03,2.63,2.66,2.67
76.63,-5.60,-8.23,-5.59,-8.23,8.26,8.57,8.87,2.66,2.66,2.64
77.40,-5.51,-8.11,-5.53,-8.14,8.18,8.52,8.71,2.68,2.66,2.61
78.17,-5.48,-8.05,-5.48,-8.06,8.12,8.46,8.56,2.64,2.64,2.58
78.95,-5.48,-8.04,-5.47,-8.03,8.06,8.41,8.41,2.58,2.59,2.57
79.74,-5.48,-8.02,-5.48,-8.02,8.01,8.35,8.26,2.53,2.53,2.55
80.54,-5.48,-8.00,-5.49,-8.02,7.96,8.29,8.12,2.48,2.47,2.53
81.35,-5.48,-7.98,-5.45,-7.97,7.92,8.24,7.98,2.44,2.47,2.51
82.16,-5.43,-7.93,-5.38,-7.89,7.88,8.18,7.85,2.45,2.49,2.51
82.98,-5.25,-7.75,-5.31,-7.82,7.82,8.12,7.72,2.58,2.51,2.51
83.81,-5.25,-7.74,-5.26,-7.75,7.77,8.06,7.59,2.52,2.51,2.50
84.65,-5.25,-7.73,-5.21,-7.71,7.71,8.00,7.47,2.47,2.50,2.49
85.50,-5.19,-7.68,-5.17,-7.66,7.66,7.94,7.36,2.48,2.49,2.50
86.35,-5.09,-7.58,-5.10,-7.59,7.62,7.87,7.25,2.53,2.52,2.50
87.22,-5.02,-7.51,-5.04,-7.54,7.58,7.81,7.14,2.56,2.54,2.50
88.09,-5.02,-7.51,-5.01,-7.52,7.54,7.74,7.04,2.53,2.53,2.50
88.97,-5.02,-7.53,-5.02,-7.53,7.50,7.68,6.95,2.49,2.48,2.52
89.86,-5.02,-7.53,-5.01,-7.53,7.46,7.61,6.85,2.45,2.45,2.52
90.76,-5.01,-7.50,-4.96,-7.47,7.43,7.54,6.77,2.42,2.47,2.50
91.66,-4.87,-7.37,-4.89,-7.39,7.39,7.47,6.69,2.53,2.50,2.51
92.58,-4.80,-7.27,-4.83,-7.31,7.36,7.40,6.61,2.57,2.54,2.48
93.51,-4.80,-7.28,-4.79,-7.27,7.33,7.32,6.54,2.53,2.54,2.49
94.44,-4.80,-7.26,-4.79,-7.26,7.28,7.25,6.47,2.49,2.49,2.47
95.39,-4.80,-7.25,-4.80,-7.25,7.23,7.18,6.41,2.43,2.43,2.46
96.34,-4.80,-7.21,-4.81,-7.23,7.17,7.10,6.35,2.38,2.36,2.42
97.30,-4.80,-7.19,-4.78,-7.18,7.12,7.02,6.30,2.33,2.35,2.40
98.28,-4.75,-7.12,-4.71,-7.08,7.07,6.94,6.25,2.33,2.36,2.38
99.26,-4.60,-6.94,-4.64,-6.99,7.02,6.86,6.20,2.42,2.38,2.35
100.25,-4.57,-6.88,-4.58,-6.90,6.96,6.78,6.15,2.39,2.38,2.32
101.25,-4.57,-6.85,-4.55,-6.84,6.89,6.70,6.11,2.32,2.34,2.29
102.27,-4.57,-6.81,-4.57,-6.81,6.81,6.62,6.07,2.24,2.24,2.25
103.29,-4.57,-6.76,-4.58,-6.78,6.72,6.54,6.04,2.16,2.15,2.20
104.32,-4.57,-6.72,-4.54,-6.70,6.64,6.46,6.01,2.07,2.09,2.16
105.37,-4.51,-6.61,-4.48,-6.59,6.56,6.37,5.97,2.05,2.08,2.11
106.42,-4.38,-6.43,-4.41,-6.46,6.48,6.29,5.95,2.10,2.07,2.06
107.48,-4.34,-6.32,-4.35,-6.33,6.39,6.20,5.92,2.06,2.04,1.99
108.56,-4.34,-6.24,-4.33,-6.24,6.30,6.12,5.89,1.96,1.97,1.91
109.64,-4.34,-6.17,-4.33,-6.18,6.20,6.03,5.86,1.86,1.86,1.84
110.74,-4.34,-6.11,-4.34,-6.11,6.09,5.94,5.84,1.75,1.75,1.78
111.85,-4.34,-6.04,-4.35,-6.05,5.98,5.86,5.81,1.64,1.63,1.71
112.97,-4.34,-5.95,-4.31,-5.94,5.88,5.77,5.79,1.54,1.56,1.62
114.10,-4.29,-5.84,-4.24,-5.79,5.78,5.69,5.76,1.49,1.53,1.56
115.24,-4.11,-5.58,-4.17,-5.64,5.68,5.60,5.73,1.57,1.51,1.48
116.39,-4.11,-5.50,-4.11,-5.51,5.58,5.51,5.70,1.48,1.47,1.40
117.55,-4.11,-5.44,-4.09,-5.42,5.49,5.43,5.67,1.38,1.40,1.34
118.73,-4.11,-5.37,-4.11,-5.38,5.39,5.34,5.64,1.29,1.29,1.27
119.92,-4.11,-5.33,-4.12,-5.33,5.30,5.25,5.60,1.20,1.19,1.23
121.12,-4.11,-5.27,-4.11,-5.29,5.22,5.17,5.56,1.12,1.11,1.17
122.33,-4.11,-5.23,-4.07,-5.20,5.15,5.08,5.52,1.05,1.08,1.13
123.55,-4.01,-5.11,-4.00,-5.10,5.09,5.00,5.48,1.08,1.09,1.11
124.79,-3.89,-4.95,-3.93,-5.00,5.03,4.91,5.43,1.14,1.10,1.07
126.03,-3.88,-4.90,-3.88,-4.91,4.97,4.83,5.38,1.09,1.09,1.03
127.29,-3.88,-4.87,-3.87,-4.86,4.91,4.75,5.33,1.03,1.04,1.00
128.57,-3.88,-4.83,-3.88,-4.84,4.84,4.66,5.27,0.96,0.96,0.96
129.85,-3.88,-4.80,-3.89,-4.82,4.77,4.58,5.21,0.90,0.88,0.93
131.15,-3.88,-4.77,-3.88,-4.78,4.71,4.50,5.15,0.83,0.83,0.90
132.46,-3.88,-4.74,-3.83,-4.70,4.65,4.42,5.08,0.77,0.82,0.87
133.79,-3.75,-4.58,-3.76,-4.59,4.59,4.34,5.01,0.85,0.83,0.84
135.12,-3.66,-4.44,-3.69,-4.49,4.54,4.26,4.94,0.88,0.84,0.79
136.48,-3.66,-4.41,-3.65,-4.41,4.47,4.18,4.86,0.82,0.82,0.76
137.84,-3.66,-4.38,-3.65,-4.36,4.40,4.10,4.79,0.75,0.76,0.73
139.22,-3.66,-4.33,-3.66,-4.34,4.33,4.03,4.71,0.67,0.67,0.68
140.61,-3.66,-4.28,-3.67,-4.31,4.26,3.95,4.63,0.60,0.59,0.63
142.02,-3.66,-4.26,-3.64,-4.25,4.20,3.88,4.55,0.54,0.55,0.61
143.44,-3.64,-4.20,-3.59,-4.15,4.13,3.81,4.47,0.50,0.55,0.57
144.87,-3.47,-3.99,-3.51,-4.04,4.06,3.73,4.39,0.60,0.55,0.53
146.32,-3.44,-3.91,-3.45,-3.93,3.98,3.67,4.30,0.54,0.53,0.48
147.78,-3.43,-3.86,-3.42,-3.84,3.88,3.60,4.22,0.45,0.46,0.44
149.26,-3.43,-3.79,-3.44,-3.80,3.76,3.53,4.14,0.34,0.32,0.37
150.75,-3.43,-3.71,-3.42,-3.72,3.64,3.46,4.06,0.21,0.22,0.29
152.26,-3.42,-3.63,-3.37,-3.58,3.52,3.40,3.98,0.11,0.16,0.22
153.78,-3.27,-3.41,-3.30,-3.43,3.42,3.33,3.90,0.16,0.13,0.15
155.32,-3.21,-3.25,-3.22,-3.28,3.34,3.27,3.82,0.13,0.12,0.05
156.88,-3.20,-3.17,-3.18,-3.16,3.27,3.21,3.74,0.07,0.09,-0.02
158.44,-3.20,-3.10,-3.21,-3.11,3.20,3.15,3.67,0.01,-0.01,-0.09
160.03,-3.26,-3.08,-3.28,-3.12,3.14,3.09,3.59,-0.12,-0.14,-0.17
161.63,-3.40,-3.16,-3.36,-3.13,3.09,3.03,3.52,-0.31,-0.27,-0.23
163.24,-3.43,-3.14,-3.42,-3.14,3.04,2.98,3.45,-0.38,-0.38,-0.28
164.88,-3.43,-3.10,-3.43,-3.10,3.00,2.92,3.38,-0.42,-0.42,-0.32
166.53,-3.39,-3.02,-3.36,-3.00,2.97,2.87,3.31,-0.42,-0.39,-0.36
168.19,-3.27,-2.87,-3.28,-2.90,2.93,2.82,3.25,-0.34,-0.36,-0.39
169.87,-3.20,-2.79,-3.22,-2.81,2.88,2.77,3.18,-0.31,-0.34,-0.40
171.57,-3.20,-2.78,-3.19,-2.78,2.85,2.72,3.12,-0.35,-0.34,-0.41
173.29,-3.20,-2.78,-3.19,-2.78,2.82,2.67,3.06,-0.38,-0.37,-0.41
175.02,-3.20,-2.80,-3.20,-2.79,2.80,2.63,3.00,-0.40,-0.40,-0.39
176.77,-3.20,-2.79,-3.20,-2.80,2.79,2.58,2.95,-0.41,-0.41,-0.40
178.54,-3.20,-2.80,-3.20,-2.81,2.77,2.54,2.89,-0.42,-0.43,-0.39
180.32,-3.20,-2.81,-3.20,-2.82,2.76,2.50,2.84,-0.44,-0.45,-0.38
182.13,-3.20,-2.81,-3.16,-2.78,2.73,2.46,2.79,-0.47,-0.43,-0.38
183.95,-3.11,-2.72,-3.09,-2.71,2.69,2.42,2.74,-0.41,-0.40,-0.38
185.79,-2.98,-2.58,-3.02,-2.63,2.65,2.39,2.70,-0.33,-0.37,-0.39
187.65,-2.97,-2.55,-2.97,-2.56,2.61,2.35,2.65,-0.36,-0.36,-0.41
189.52,-2.97,-2.53,-2.95,-2.52,2.57,2.32,2.61,-0.40,-0.38,-0.43
191.42,-2.97,-2.51,-2.97,-2.51,2.54,2.29,2.57,-0.43,-0.43,-0.45
193.33,-2.97,-2.49,-2.97,-2.50,2.51,2.26,2.53,-0.46,-0.46,-0.47
195.27,-2.97,-2.49,-2.97,-2.48,2.48,2.23,2.50,-0.49,-0.49,-0.47
197.22,-2.97,-2.47,-2.97,-2.47,2.45,2.20,2.46,-0.52,-0.52,-0.49
199.19,-2.97,-2.43,-2.98,-2.46,2.41,2.17,2.43,-0.55,-0.56,-0.53
201.18,-2.97,-2.43,-2.95,-2.41,2.37,2.15,2.40,-0.60,-0.58,-0.53
203.19,-2.93,-2.37,-2.90,-2.34,2.32,2.12,2.37,-0.60,-0.58,-0.55
205.23,-2.81,-2.22,-2.83,-2.26,2.27,2.10,2.34,-0.54,-0.56,-0.58
207.28,-2.75,-2.16,-2.77,-2.18,2.22,2.08,2.31,-0.52,-0.55,-0.58
209.35,-2.75,-2.14,-2.74,-2.13,2.18,2.06,2.29,-0.57,-0.56,-0.60
211.44,-2.75,-2.11,-2.74,-2.12,2.14,2.04,2.26,-0.61,-0.60,-0.63
213.56,-2.75,-2.11,-2.75,-2.11,2.11,2.02,2.24,-0.64,-0.64,-0.63
215.69,-2.75,-2.11,-2.75,-2.10,2.08,2.00,2.22,-0.66,-0.66,-0.63
217.85,-2.75,-2.08,-2.75,-2.09,2.07,1.99,2.20,-0.67,-0.67,-0.66
220.03,-2.75,-2.07,-2.75,-2.07,2.07,1.97,2.17,-0.67,-0.67,-0.67
222.23,-2.75,-2.05,-2.75,-2.06,2.07,1.96,2.16,-0.67,-0.67,-0.69
224.45,-2.75,-2.05,-2.75,-2.05,2.07,1.95,2.14,-0.67,-0.67,-0.69
226.70,-2.75,-2.05,-2.75,-2.05,2.06,1.93,2.12,-0.68,-0.68,-0.69
228.96,-2.75,-2.04,-2.75,-2.05,2.04,1.92,2.10,-0.70,-0.70,-0.70
231.25,-2.75,-2.04,-2.76,-2.05,2.02,1.91,2.08,-0.73,-0.74,-0.70
233.57,-2.75,-2.03,-2.75,-2.04,1.99,1.91,2.07,-0.76,-0.77,-0.71
235.90,-2.75,-2.02,-2.71,-1.99,1.95,1.90,2.05,-0.79,-0.75,-0.72
238.26,-2.64,-1.91,-2.64,-1.91,1.92,1.89,2.04,-0.72,-0.72,-0.72
240.64,-2.53,-1.80,-2.56,-1.84,1.88,1.89,2.02,-0.64,-0.68,-0.72
243.05,-2.52,-1.80,-2.51,-1.80,1.85,1.88,2.01,-0.66,-0.66,-0.71
245.48,-2.52,-1.81,-2.51,-1.80,1.83,1.88,1.99,-0.69,-0.68,-0.70
247.93,-2.52,-1.82,-2.52,-1.81,1.82,1.87,1.98,-0.70,-0.70,-0.69
250.41,-2.52,-1.81,-2.52,-1.82,1.81,1.87,1.96,-0.71,-0.71,-0.70
252.92,-2.52,-1.82,-2.52,-1.83,1.82,1.87,1.95,-0.70,-0.70,-0.69
255.45,-2.52,-1.85,-2.52,-1.84,1.83,1.87,1.93,-0.68,-0.68,-0.66
258.00,-2.52,-1.85,-2.52,-1.85,1.86,1.87,1.92,-0.66,-0.66,-0.66
260.58,-2.52,-1.85,-2.52,-1.86,1.87,1.87,1.90,-0.64,-0.64,-0.66
263.19,-2.52,-1.87,-2.52,-1.87,1.88,1.87,1.89,-0.63,-0.63,-0.64
265.82,-2.52,-1.87,-2.52,-1.88,1.88,1.87,1.88,-0.63,-0.63,-0.64
268.48,-2.52,-1.90,-2.53,-1.91,1.88,1.88,1.86,-0.64,-0.65,-0.61
271.16,-2.52,-1.91,-2.52,-1.91,1.87,1.88,1.85,-0.65,-0.65,-0.60
273.87,-2.52,-1.92,-2.47,-1.89,1.85,1.88,1.84,-0.66,-0.62,-0.59
276.61,-2.39,-1.83,-2.40,-1.84,1.85,1.89,1.82,-0.54,-0.56,-0.55
279.38,-2.31,-1.76,-2.33,-1.80,1.84,1.89,1.81,-0.46,-0.49,-0.54
282.17,-2.29,-1.77,-2.28,-1.77,1.84,1.90,1.80,-0.45,-0.44,-0.51
284.99,-2.29,-1.80,-2.28,-1.79,1.84,1.91,1.79,-0.45,-0.44,-0.48
287.84,-2.29,-1.82,-2.28,-1.83,1.83,1.91,1.78,-0.46,-0.46,-0.46
290.72,-2.29,-1.86,-2.30,-1.87,1.82,1.92,1.77,-0.47,-0.48,-0.42
293.63,-2.29,-1.88,-2.28,-1.89,1.82,1.93,1.76,-0.47,-0.47,-0.40
296.57,-2.29,-1.91,-2.23,-1.85,1.82,1.94,1.75,-0.47,-0.41,-0.37
299.53,-2.12,-1.77,-2.15,-1.80,1.81,1.94,1.75,-0.30,-0.34,-0.34
302.53,-2.06,-1.72,-2.08,-1.76,1.81,1.95,1.74,-0.25,-0.27,-0.33
305.55,-2.06,-1.76,-2.04,-1.74,1.80,1.96,1.73,-0.26,-0.24,-0.29
308.61,-2.06,-1.78,-2.05,-1.78,1.79,1.97,1.73,-0.26,-0.26,-0.27
311.69,-2.06,-1.79,-2.06,-1.80,1.79,1.98,1.73,-0.27,-0.27,-0.26
314.81,-2.06,-1.82,-2.06,-1.81,1.79,1.99,1.72,-0.26,-0.26,-0.23
317.96,-2.06,-1.82,-2.06,-1.82,1.80,2.00,1.72,-0.25,-0.25,-0.23
321.14,-2.06,-1.81,-2.06,-1.82,1.82,2.01,1.72,-0.24,-0.24,-0.24
324.35,-2.06,-1.82,-2.06,-1.82,1.83,2.02,1.72,-0.23,-0.23,-0.23
327.59,-2.06,-1.83,-2.06,-1.83,1.84,2.03,1.72,-0.22,-0.22,-0.22
330.87,-2.06,-1.84,-2.06,-1.84,1.84,2.04,1.73,-0.21,-0.21,-0.21
334.18,-2.06,-1.84,-2.06,-1.85,1.85,2.06,1.73,-0.21,-0.21,-0.21
337.52,-2.06,-1.85,-2.06,-1.86,1.86,2.07,1.74,-0.19,-0.19,-0.20
340.90,-2.06,-1.88,-2.06,-1.87,1.88,2.08,1.74,-0.18,-0.18,-0.17
344.30,-2.06,-1.89,-2.06,-1.89,1.89,2.09,1.75,-0.16,-0.16,-0.16
347.75,-2.06,-1.90,-2.06,-1.91,1.91,2.10,1.76,-0.14,-0.14,-0.15
351.23,-2.06,-1.93,-2.06,-1.93,1.93,2.11,1.77,-0.12,-0.12,-0.12
354.74,-2.06,-1.95,-2.06,-1.96,1.95,2.13,1.79,-0.10,-0.10,-0.10
358.28,-2.06,-1.98,-2.06,-1.98,1.98,2.14,1.80,-0.08,-0.08,-0.07
361.87,-2.06,-2.00,-2.06,-2.00,2.00,2.15,1.81,-0.05,-0.05,-0.05
365.49,-2.06,-2.02,-2.06,-2.03,2.03,2.16,1.83,-0.02,-0.02,-0.03
369.14,-2.06,-2.04,-2.06,-2.05,2.06,2.17,1.85,0.01,0.01,-0.01
372.83,-2.06,-2.07,-2.06,-2.07,2.08,2.19,1.87,0.03,0.03,0.02
376.56,-2.06,-2.09,-2.06,-2.10,2.09,2.20,1.89,0.04,0.04,0.04
380.33,-2.06,-2.12,-2.06,-2.12,2.10,2.21,1.91,0.04,0.04,0.07
384.13,-2.06,-2.14,-2.07,-2.15,2.10,2.22,1.93,0.04,0.03,0.09
387.97,-2.06,-2.15,-2.05,-2.14,2.10,2.23,1.95,0.04,0.06,0.10
391.85,-2.05,-2.14,-1.98,-2.09,2.11,2.25,1.98,0.06,0.12,0.10
395.77,-1.89,-1.99,-1.94,-2.05,2.11,2.26,2.00,0.23,0.17,0.11
399.73,-1.89,-2.00,-1.94,-2.05,2.12,2.27,2.03,0.24,0.18,0.12
403.72,-2.02,-2.14,-1.97,-2.10,2.14,2.28,2.05,0.12,0.17,0.13
407.76,-2.06,-2.19,-2.04,-2.18,2.16,2.29,2.08,0.10,0.12,0.14
411.84,-2.06,-2.20,-2.07,-2.21,2.18,2.30,2.11,0.12,0.11,0.15
415.96,-2.06,-2.21,-2.06,-2.21,2.20,2.31,2.13,0.14,0.14,0.16
420.12,-2.06,-2.21,-2.06,-2.22,2.21,2.33,2.16,0.15,0.15,0.16
424.32,-2.06,-2.21,-2.07,-2.22,2.20,2.34,2.19,0.14,0.13,0.16
428.56,-2.06,-2.21,-2.06,-2.21,2.17,2.35,2.21,0.12,0.11,0.16
432.85,-2.06,-2.20,-2.02,-2.18,2.13,2.36,2.24,0.08,0.11,0.15
437.18,-1.96,-2.11,-1.95,-2.11,2.10,2.37,2.27,0.14,0.14,0.16
441.55,-1.86,-2.02,-1.88,-2.05,2.07,2.38,2.29,0.21,0.19,0.17
445.96,-1.83,-1.99,-1.83,-2.00,2.06,2.39,2.32,0.23,0.23,0.17
