frequency,raw,error,smoothed,error_smoothed,equalization,parametric_eq,fixed_band_eq,equalized_raw,equalized_smoothed,target
20.00,-20.81,-16.08,-20.81,-16.08,16.08,13.48,6.22,-4.73,-4.73,-4.73
20.20,-20.66,-16.02,-20.66,-16.02,16.02,13.64,6.37,-4.64,-4.64,-4.64
20.40,-20.51,-15.95,-20.51,-15.95,15.95,13.80,6.52,-4.56,-4.56,-4.56
20.61,-20.36,-15.87,-20.36,-15.88,15.88,13.96,6.67,-4.48,-4.48,-4.49
20.81,-20.21,-15.81,-20.21,-15.81,15.80,14.11,6.83,-4.40,-4.40,-4.40
21.02,-20.06,-15.74,-20.05,-15.73,15.72,14.26,6.99,-4.34,-4.33,-4.32
21.23,-19.90,-15.64,-19.90,-15.64,15.64,14.39,7.15,-4.26,-4.26,-4.26
21.44,-19.75,-15.55,-19.75,-15.55,15.55,14.52,7.32,-4.20,-4.20,-4.20
21.66,-19.60,-15.45,-19.60,-15.45,15.45,14.64,7.50,-4.15,-4.15,-4.15
21.87,-19.45,-15.35,-19.44,-15.35,15.35,14.75,7.68,-4.10,-4.10,-4.10
22.09,-19.29,-15.24,-19.29,-15.24,15.24,14.84,7.86,-4.05,-4.05,-4.05
22.31,-19.14,-15.14,-19.13,-15.13,15.13,14.92,8.05,-4.01,-4.01,-4.00
22.54,-18.98,-15.02,-18.98,-15.02,15.01,14.99,8.25,-3.97,-3.96,-3.96
22.76,-18.82,-14.90,-18.82,-14.90,14.90,15.04,8.45,-3.92,-3.92,-3.92
22.99,-18.67,-14.78,-18.66,-14.78,14.78,15.08,8.66,-3.89,-3.88,-3.89
23.22,-18.51,-14.66,-18.51,-14.66,14.67,15.10,8.87,-3.84,-3.84,-3.85
23.45,-18.35,-14.54,-18.35,-14.54,14.55,15.10,9.09,-3.80,-3.81,-3.81
23.69,-18.20,-14.43,-18.20,-14.43,14.43,15.08,9.31,-3.77,-3.77,-3.77
23.92,-18.04,-14.31,-18.04,-14.31,14.31,15.05,9.54,-3.73,-3.73,-3.73
24.16,-17.88,-14.20,-17.88,-14.19,14.18,15.00,9.78,-3.69,-3.69,-3.68
24.40,-17.72,-14.07,-17.72,-14.07,14.06,14.93,10.03,-3.65,-3.66,-3.65
24.65,-17.57,-13.94,-17.56,-13.94,13.94,14.84,10.28,-3.63,-3.62,-3.63
24.89,-17.41,-13.81,-17.41,-13.81,13.81,14.74,10.54,-3.59,-3.59,-3.60
25.14,-17.25,-13.69,-17.25,-13.68,13.69,14.63,10.80,-3.56,-3.56,-3.56
25.39,-17.09,-13.56,-17.09,-13.56,13.56,14.50,11.07,-3.53,-3.53,-3.53
25.65,-16.93,-13.44,-16.93,-13.43,13.43,14.36,11.35,-3.50,-3.50,-3.49
25.91,-16.77,-13.30,-16.77,-13.30,13.30,14.21,11.64,-3.47,-3.47,-3.47
26.16,-16.61,-13.17,-16.61,-13.17,13.18,14.05,11.93,-3.43,-3.43,-3.44
26.43,-16.45,-13.05,-16.45,-13.04,13.05,13.88,12.23,-3.40,-3.40,-3.40
26.69,-16.29,-12.92,-16.29,-12.92,12.92,13.70,12.53,-3.37,-3.37,-3.37
26.96,-16.13,-12.79,-16.13,-12.79,12.79,13.52,12.84,-3.34,-3.34,-3.34
27.23,-15.97,-12.66,-15.97,-12.66,12.66,13.33,13.15,-3.31,-3.31,-3.31
27.50,-15.81,-12.53,-15.81,-12.53,12.53,13.13,13.46,-3.28,-3.28,-3.28
27.77,-15.65,-12.39,-15.65,-12.39,12.40,12.94,13.77,-3.25,-3.25,-3.26
28.05,-15.49,-12.27,-15.49,-12.26,12.26,12.74,14.08,-3.22,-3.22,-3.22
28.33,-15.33,-12.13,-15.33,-12.13,12.13,12.54,14.39,-3.19,-3.19,-3.20
28.62,-15.17,-12.00,-15.17,-12.00,12.00,12.34,14.68,-3.17,-3.16,-3.17
28.90,-15.01,-11.88,-15.01,-11.87,11.87,12.14,14.96,-3.14,-3.13,-3.13
29.19,-14.84,-11.73,-14.84,-11.74,11.74,11.94,15.22,-3.10,-3.10,-3.11
29.48,-14.68,-11.62,-14.68,-11.61,11.60,11.74,15.46,-3.07,-3.08,-3.06
29.78,-14.52,-11.47,-14.52,-11.47,11.46,11.54,15.67,-3.06,-3.05,-3.05
30.08,-14.35,-11.33,-14.35,-11.33,11.32,11.34,15.85,-3.03,-3.03,-3.02
30.38,-14.17,-11.18,-14.17,-11.18,11.17,11.15,15.98,-3.00,-3.00,-2.99
30.68,-13.99,-11.03,-13.99,-11.03,11.03,10.96,16.07,-2.96,-2.97,-2.96
30.99,-13.81,-10.87,-13.81,-10.87,10.87,10.77,16.11,-2.94,-2.94,-2.94
31.30,-13.64,-10.72,-13.64,-10.72,10.72,10.59,16.09,-2.92,-2.91,-2.92
31.61,-13.46,-10.57,-13.46,-10.57,10.57,10.41,16.03,-2.89,-2.89,-2.89
31.93,-13.29,-10.42,-13.29,-10.42,10.42,10.23,15.91,-2.87,-2.87,-2.87
32.24,-13.12,-10.27,-13.12,-10.27,10.28,10.06,15.75,-2.84,-2.84,-2.85
32.57,-12.96,-10.14,-12.96,-10.13,10.13,9.89,15.54,-2.83,-2.82,-2.82
32.89,-12.79,-9.99,-12.79,-9.99,9.99,9.72,15.29,-2.80,-2.80,-2.80
33.22,-12.64,-9.86,-12.63,-9.85,9.85,9.56,15.02,-2.79,-2.78,-2.78
33.55,-12.48,-9.72,-12.48,-9.72,9.72,9.41,14.72,-2.76,-2.76,-2.76
33.89,-12.33,-9.58,-12.33,-9.58,9.59,9.25,14.40,-2.74,-2.75,-2.75
34.23,-12.19,-9.46,-12.19,-9.45,9.46,9.11,14.06,-2.73,-2.73,-2.73
34.57,-12.05,-9.33,-12.05,-9.33,9.33,8.96,13.71,-2.72,-2.72,-2.72
34.92,-11.91,-9.20,-11.91,-9.21,9.21,8.83,13.36,-2.70,-2.71,-2.71
35.27,-11.78,-9.09,-11.78,-9.08,9.08,8.69,13.00,-2.70,-2.70,-2.69
35.62,-11.66,-8.96,-11.66,-8.96,8.96,8.56,12.64,-2.70,-2.69,-2.70
35.97,-11.53,-8.84,-11.53,-8.84,8.84,8.44,12.29,-2.69,-2.69,-2.69
36.33,-11.41,-8.74,-11.41,-8.72,8.72,8.32,11.93,-2.69,-2.69,-2.67
36.70,-11.28,-8.60,-11.28,-8.60,8.60,8.20,11.58,-2.68,-2.68,-2.68
37.06,-11.16,-8.48,-11.16,-8.48,8.48,8.09,11.23,-2.68,-2.68,-2.68
37.43,-11.04,-8.36,-11.04,-8.36,8.36,7.98,10.88,-2.67,-2.67,-2.68
37.81,-10.92,-8.24,-10.92,-8.24,8.24,7.88,10.55,-2.67,-2.68,-2.68
38.19,-10.81,-8.13,-10.81,-8.13,8.13,7.78,10.21,-2.68,-2.68,-2.68
38.57,-10.69,-8.01,-10.69,-8.01,8.01,7.68,9.89,-2.68,-2.68,-2.68
38.95,-10.58,-7.90,-10.58,-7.89,7.89,7.58,9.57,-2.69,-2.69,-2.68
39.34,-10.47,-7.77,-10.47,-7.77,7.77,7.49,9.25,-2.70,-2.70,-2.70
39.74,-10.36,-7.66,-10.36,-7.65,7.65,7.40,8.94,-2.71,-2.70,-2.70
40.14,-10.24,-7.53,-10.24,-7.53,7.53,7.31,8.64,-2.71,-2.71,-2.71
40.54,-10.12,-7.41,-10.12,-7.41,7.41,7.23,8.34,-2.71,-2.71,-2.71
40.94,-10.01,-7.29,-10.01,-7.29,7.29,7.14,8.05,-2.72,-2.71,-2.72
41.35,-9.89,-7.17,-9.89,-7.17,7.17,7.05,7.77,-2.72,-2.72,-2.72
41.76,-9.78,-7.05,-9.78,-7.04,7.05,6.96,7.48,-2.73,-2.73,-2.73
42.18,-9.66,-6.92,-9.66,-6.92,6.92,6.87,7.21,-2.74,-2.74,-2.74
42.60,-9.54,-6.79,-9.54,-6.79,6.79,6.78,6.94,-2.75,-2.75,-2.75
43.03,-9.42,-6.67,-9.42,-6.67,6.66,6.69,6.67,-2.76,-2.76,-2.75
43.46,-9.30,-6.54,-9.30,-6.53,6.52,6.59,6.40,-2.78,-2.77,-2.76
43.90,-9.17,-6.39,-9.17,-6.39,6.39,6.49,6.15,-2.78,-2.78,-2.78
44.33,-9.04,-6.24,-9.04,-6.24,6.25,6.38,5.89,-2.79,-2.79,-2.80
44.78,-8.91,-6.10,-8.91,-6.10,6.11,6.27,5.64,-2.80,-2.80,-2.81
45.23,-8.78,-5.96,-8.78,-5.96,5.97,6.15,5.39,-2.81,-2.81,-2.82
45.68,-8.65,-5.82,-8.65,-5.82,5.82,6.02,5.15,-2.82,-2.83,-2.83
46.13,-8.52,-5.68,-8.52,-5.68,5.68,5.89,4.90,-2.83,-2.84,-2.84
46.60,-8.39,-5.55,-8.39,-5.54,5.54,5.75,4.67,-2.85,-2.84,-2.84
47.06,-8.25,-5.40,-8.25,-5.40,5.40,5.60,4.43,-2.85,-2.85,-2.85
47.53,-8.11,-5.25,-8.11,-5.25,5.25,5.44,4.20,-2.86,-2.86,-2.86
48.01,-7.97,-5.11,-7.97,-5.10,5.10,5.27,3.97,-2.87,-2.87,-2.86
48.49,-7.82,-4.95,-7.82,-4.95,4.94,5.10,3.74,-2.88,-2.88,-2.87
48.97,-7.67,-4.79,-7.67,-4.78,4.78,4.92,3.52,-2.89,-2.89,-2.88
49.46,-7.51,-4.61,-7.51,-4.61,4.62,4.73,3.29,-2.89,-2.89,-2.90
49.96,-7.35,-4.44,-7.35,-4.44,4.45,4.54,3.07,-2.90,-2.90,-2.91
50.46,-7.18,-4.28,-7.18,-4.27,4.28,4.34,2.86,-2.90,-2.90,-2.90
50.96,-7.01,-4.11,-7.01,-4.10,4.10,4.13,2.64,-2.91,-2.91,-2.90
51.47,-6.83,-3.92,-6.83,-3.93,3.92,3.92,2.43,-2.91,-2.91,-2.91
51.99,-6.66,-3.75,-6.65,-3.74,3.74,3.70,2.23,-2.92,-2.91,-2.91
52.51,-6.46,-3.55,-6.46,-3.55,3.55,3.49,2.02,-2.91,-2.91,-2.91
53.03,-6.26,-3.35,-6.27,-3.36,3.35,3.26,1.82,-2.90,-2.91,-2.91
53.56,-6.07,-3.16,-6.07,-3.15,3.15,3.04,1.62,-2.91,-2.91,-2.91
54.10,-5.87,-2.95,-5.87,-2.95,2.95,2.81,1.43,-2.92,-2.92,-2.92
54.64,-5.67,-2.74,-5.67,-2.74,2.74,2.59,1.23,-2.93,-2.93,-2.93
55.18,-5.47,-2.53,-5.47,-2.53,2.53,2.36,1.05,-2.94,-2.94,-2.94
55.74,-5.27,-2.31,-5.27,-2.31,2.31,2.14,0.87,-2.96,-2.96,-2.96
56.29,-5.06,-2.10,-5.06,-2.09,2.09,1.91,0.69,-2.97,-2.97,-2.96
56.86,-4.85,-1.87,-4.85,-1.87,1.87,1.69,0.51,-2.98,-2.98,-2.98
57.42,-4.64,-1.64,-4.64,-1.64,1.64,1.46,0.34,-2.99,-2.99,-3.00
58.00,-4.42,-1.41,-4.42,-1.41,1.41,1.25,0.18,-3.00,-3.01,-3.01
58.58,-4.21,-1.18,-4.21,-1.18,1.18,1.03,0.02,-3.02,-3.02,-3.03
59.16,-4.00,-0.96,-4.00,-0.95,0.95,0.81,-0.13,-3.05,-3.05,-3.04
59.76,-3.79,-0.73,-3.79,-0.73,0.72,0.60,-0.28,-3.07,-3.07,-3.06
60.35,-3.58,-0.49,-3.58,-0.49,0.48,0.40,-0.42,-3.10,-3.10,-3.09
60.96,-3.36,-0.26,-3.36,-0.25,0.25,0.19,-0.55,-3.11,-3.12,-3.10
61.57,-3.16,-0.01,-3.15,-0.01,0.01,-0.01,-0.68,-3.15,-3.14,-3.15
62.18,-2.95,0.23,-2.95,0.22,-0.22,-0.21,-0.81,-3.17,-3.17,-3.18
62.80,-2.75,0.44,-2.75,0.45,-0.44,-0.40,-0.92,-3.19,-3.19,-3.19
63.43,-2.56,0.67,-2.56,0.67,-0.66,-0.59,-1.03,-3.22,-3.22,-3.23
64.07,-2.37,0.88,-2.37,0.88,-0.87,-0.77,-1.14,-3.24,-3.24,-3.25
64.71,-2.19,1.07,-2.19,1.08,-1.07,-0.95,-1.24,-3.26,-3.26,-3.26
65.35,-2.01,1.27,-2.01,1.27,-1.27,-1.13,-1.33,-3.27,-3.28,-3.28
66.01,-1.84,1.45,-1.84,1.45,-1.45,-1.30,-1.42,-3.29,-3.29,-3.29
66.67,-1.68,1.62,-1.68,1.63,-1.63,-1.47,-1.51,-3.30,-3.30,-3.30
67.33,-1.52,1.79,-1.52,1.79,-1.79,-1.64,-1.59,-3.31,-3.31,-3.31
68.01,-1.36,1.96,-1.36,1.96,-1.96,-1.80,-1.66,-3.31,-3.32,-3.32
68.69,-1.22,2.11,-1.21,2.11,-2.11,-1.95,-1.73,-3.33,-3.33,-3.33
69.37,-1.07,2.26,-1.07,2.26,-2.26,-2.11,-1.80,-3.33,-3.34,-3.33
70.07,-0.94,2.40,-0.94,2.40,-2.41,-2.25,-1.87,-3.35,-3.35,-3.34
70.77,-0.80,2.54,-0.80,2.55,-2.55,-2.40,-1.93,-3.35,-3.35,-3.34
71.48,-0.67,2.68,-0.67,2.69,-2.69,-2.54,-1.99,-3.36,-3.35,-3.35
72.19,-0.54,2.83,-0.54,2.82,-2.82,-2.68,-2.05,-3.36,-3.36,-3.37
72.91,-0.42,2.95,-0.43,2.95,-2.94,-2.81,-2.11,-3.36,-3.37,-3.37
73.64,-0.33,3.06,-0.32,3.07,-3.06,-2.94,-2.17,-3.39,-3.38,-3.39
74.38,-0.23,3.17,-0.23,3.17,-3.18,-3.07,-2.23,-3.40,-3.40,-3.40
75.12,-0.14,3.28,-0.14,3.28,-3.28,-3.19,-2.29,-3.42,-3.42,-3.42
75.87,-0.05,3.38,-0.05,3.38,-3.39,-3.31,-2.34,-3.44,-3.43,-3.43
76.63,0.04,3.48,0.04,3.49,-3.49,-3.43,-2.40,-3.45,-3.45,-3.44
77.40,0.12,3.58,0.12,3.58,-3.58,-3.54,-2.46,-3.46,-3.46,-3.46
78.17,0.20,3.68,0.20,3.68,-3.67,-3.65,-2.52,-3.47,-3.47,-3.48
78.95,0.28,3.76,0.28,3.76,-3.76,-3.76,-2.59,-3.48,-3.48,-3.48
79.74,0.35,3.84,0.36,3.85,-3.85,-3.86,-2.65,-3.49,-3.49,-3.49
80.54,0.43,3.93,0.43,3.93,-3.93,-3.96,-2.71,-3.50,-3.50,-3.50
81.35,0.50,4.01,0.50,4.01,-4.01,-4.06,-2.78,-3.50,-3.51,-3.51
82.16,0.56,4.08,0.56,4.08,-4.08,-4.15,-2.85,-3.52,-3.52,-3.52
82.98,0.63,4.14,0.63,4.15,-4.16,-4.25,-2.93,-3.53,-3.52,-3.51
83.81,0.70,4.22,0.70,4.23,-4.23,-4.34,-3.00,-3.53,-3.53,-3.52
84.65,0.78,4.31,0.78,4.30,-4.30,-4.42,-3.08,-3.52,-3.52,-3.53
85.50,0.85,4.37,0.85,4.38,-4.37,-4.51,-3.16,-3.52,-3.52,-3.52
86.35,0.92,4.44,0.92,4.45,-4.44,-4.59,-3.24,-3.52,-3.52,-3.52
87.22,0.99,4.52,0.99,4.51,-4.51,-4.66,-3.33,-3.52,-3.52,-3.53
88.09,1.05,4.58,1.05,4.58,-4.58,-4.74,-3.42,-3.53,-3.53,-3.53
88.97,1.10,4.64,1.10,4.64,-4.65,-4.81,-3.51,-3.55,-3.54,-3.54
89.86,1.15,4.70,1.16,4.71,-4.72,-4.88,-3.61,-3.56,-3.56,-3.55
90.76,1.21,4.78,1.21,4.78,-4.79,-4.95,-3.71,-3.58,-3.57,-3.57
91.66,1.27,4.86,1.27,4.86,-4.86,-5.02,-3.81,-3.59,-3.59,-3.59
92.58,1.32,4.94,1.32,4.94,-4.93,-5.08,-3.92,-3.61,-3.61,-3.62
93.51,1.37,5.01,1.37,5.02,-5.01,-5.14,-4.03,-3.64,-3.64,-3.64
94.44,1.42,5.09,1.42,5.09,-5.10,-5.20,-4.14,-3.68,-3.68,-3.67
95.39,1.47,5.18,1.47,5.18,-5.18,-5.26,-4.26,-3.71,-3.72,-3.71
96.34,1.51,5.26,1.51,5.27,-5.27,-5.32,-4.37,-3.76,-3.76,-3.75
97.30,1.55,5.36,1.55,5.36,-5.36,-5.37,-4.49,-3.81,-3.81,-3.81
98.28,1.59,5.45,1.59,5.45,-5.45,-5.42,-4.62,-3.86,-3.86,-3.86
99.26,1.63,5.54,1.63,5.54,-5.54,-5.47,-4.74,-3.91,-3.91,-3.91
100.25,1.66,5.63,1.66,5.63,-5.63,-5.51,-4.87,-3.96,-3.97,-3.97
101.25,1.68,5.71,1.68,5.71,-5.71,-5.56,-5.00,-4.03,-4.03,-4.03
102.27,1.70,5.79,1.70,5.79,-5.80,-5.60,-5.13,-4.10,-4.10,-4.09
103.29,1.72,5.87,1.72,5.87,-5.88,-5.64,-5.26,-4.16,-4.16,-4.15
104.32,1.74,5.94,1.74,5.95,-5.95,-5.68,-5.40,-4.21,-4.21,-4.20
105.37,1.76,6.03,1.76,6.03,-6.02,-5.72,-5.53,-4.26,-4.26,-4.27
106.42,1.77,6.10,1.77,6.10,-6.08,-5.76,-5.66,-4.31,-4.31,-4.33
107.48,1.77,6.15,1.76,6.15,-6.13,-5.79,-5.79,-4.36,-4.37,-4.38
108.56,1.74,6.18,1.74,6.19,-6.18,-5.82,-5.92,-4.44,-4.44,-4.44
109.64,1.71,6.21,1.71,6.21,-6.22,-5.85,-6.05,-4.50,-4.50,-4.50
110.74,1.68,6.23,1.69,6.24,-6.24,-5.88,-6.17,-4.56,-4.56,-4.55
111.85,1.66,6.25,1.66,6.26,-6.27,-5.91,-6.29,-4.60,-4.61,-4.59
112.97,1.63,6.29,1.63,6.28,-6.28,-5.94,-6.41,-4.65,-4.66,-4.66
114.10,1.59,6.29,1.59,6.29,-6.29,-5.96,-6.52,-4.70,-4.70,-4.70
115.24,1.53,6.28,1.55,6.30,-6.29,-5.99,-6.62,-4.76,-4.75,-4.75
116.39,1.51,6.31,1.50,6.30,-6.29,-6.01,-6.72,-4.78,-4.79,-4.80
117.55,1.46,6.30,1.46,6.30,-6.29,-6.03,-6.81,-4.83,-4.84,-4.84
118.73,1.40,6.28,1.41,6.28,-6.28,-6.05,-6.89,-4.88,-4.88,-4.88
119.92,1.35,6.26,1.35,6.26,-6.27,-6.06,-6.97,-4.92,-4.92,-4.91
121.12,1.30,6.24,1.31,6.25,-6.26,-6.08,-7.03,-4.95,-4.95,-4.94
122.33,1.27,6.24,1.26,6.24,-6.24,-6.10,-7.08,-4.97,-4.98,-4.97
123.55,1.22,6.22,1.22,6.22,-6.22,-6.11,-7.12,-5.00,-5.00,-5.00
124.79,1.17,6.20,1.17,6.20,-6.20,-6.12,-7.16,-5.03,-5.03,-5.03
126.03,1.12,6.17,1.13,6.19,-6.18,-6.13,-7.18,-5.06,-5.05,-5.05
127.29,1.09,6.17,1.09,6.17,-6.16,-6.14,-7.19,-5.07,-5.07,-5.08
128.57,1.05,6.17,1.04,6.15,-6.14,-6.15,-7.19,-5.09,-5.10,-5.12
129.85,0.98,6.12,0.98,6.13,-6.12,-6.16,-7.18,-5.14,-5.14,-5.14
131.15,0.90,6.07,0.92,6.09,-6.10,-6.17,-7.16,-5.19,-5.18,-5.17
132.46,0.86,6.07,0.85,6.06,-6.07,-6.17,-7.13,-5.21,-5.22,-5.21
133.79,0.80,6.03,0.81,6.04,-6.05,-6.18,-7.09,-5.25,-5.24,-5.23
135.12,0.76,6.02,0.76,6.02,-6.03,-6.18,-7.05,-5.26,-5.26,-5.26
136.48,0.72,6.01,0.71,6.00,-6.00,-6.18,-6.99,-5.28,-5.29,-5.29
137.84,0.66,5.98,0.67,6.00,-5.98,-6.18,-6.94,-5.32,-5.31,-5.32
139.22,0.61,5.98,0.61,5.97,-5.96,-6.18,-6.87,-5.34,-5.35,-5.37
140.61,0.55,5.95,0.54,5.94,-5.94,-6.18,-6.80,-5.39,-5.40,-5.40
142.02,0.46,5.88,0.48,5.91,-5.92,-6.18,-6.73,-5.46,-5.44,-5.42
143.44,0.42,5.88,0.42,5.88,-5.90,-6.18,-6.66,-5.48,-5.48,-5.46
144.87,0.38,5.88,0.38,5.88,-5.89,-6.18,-6.58,-5.51,-5.51,-5.50
146.32,0.35,5.89,0.35,5.88,-5.88,-6.17,-6.50,-5.53,-5.53,-5.54
147.78,0.30,5.87,0.30,5.87,-5.87,-6.17,-6.42,-5.57,-5.56,-5.57
149.26,0.26,5.86,0.26,5.87,-5.86,-6.16,-6.34,-5.60,-5.60,-5.60
150.75,0.21,5.86,0.21,5.86,-5.86,-6.15,-6.26,-5.65,-5.64,-5.65
152.26,0.17,5.86,0.17,5.86,-5.85,-6.15,-6.19,-5.68,-5.68,-5.69
153.78,0.13,5.85,0.13,5.86,-5.85,-6.14,-6.11,-5.72,-5.72,-5.72
155.32,0.09,5.86,0.08,5.85,-5.85,-6.13,-6.04,-5.76,-5.77,-5.77
156.88,0.03,5.83,0.04,5.84,-5.86,-6.12,-5.96,-5.82,-5.82,-5.80
158.44,-0.01,5.85,-0.01,5.85,-5.86,-6.11,-5.89,-5.87,-5.87,-5.86
160.03,-0.05,5.85,-0.04,5.86,-5.87,-6.10,-5.83,-5.91,-5.91,-5.90
161.63,-0.07,5.88,-0.07,5.88,-5.87,-6.08,-5.76,-5.94,-5.94,-5.95
163.24,-0.10,5.89,-0.10,5.89,-5.88,-6.07,-5.70,-5.97,-5.98,-5.99
164.88,-0.14,5.89,-0.14,5.90,-5.88,-6.06,-5.65,-6.02,-6.02,-6.03
166.53,-0.18,5.89,-0.18,5.89,-5.89,-6.04,-5.59,-6.06,-6.06,-6.07
168.19,-0.22,5.89,-0.22,5.89,-5.89,-6.03,-5.54,-6.11,-6.11,-6.11
169.87,-0.27,5.88,-0.27,5.88,-5.89,-6.01,-5.50,-6.16,-6.16,-6.15
171.57,-0.31,5.87,-0.31,5.88,-5.89,-6.00,-5.46,-6.20,-6.20,-6.18
173.29,-0.34,5.88,-0.34,5.88,-5.89,-5.98,-5.42,-6.23,-6.23,-6.22
175.02,-0.37,5.89,-0.37,5.89,-5.89,-5.96,-5.39,-6.26,-6.26,-6.26
176.77,-0.40,5.89,-0.40,5.89,-5.88,-5.94,-5.36,-6.28,-6.28,-6.29
178.54,-0.43,5.89,-0.43,5.89,-5.87,-5.92,-5.34,-6.30,-6.30,-6.32
180.32,-0.47,5.88,-0.47,5.88,-5.86,-5.91,-5.32,-6.33,-6.33,-6.35
182.13,-0.51,5.86,-0.52,5.85,-5.84,-5.89,-5.30,-6.35,-6.36,-6.37
183.95,-0.58,5.81,-0.57,5.82,-5.83,-5.86,-5.29,-6.40,-6.39,-6.39
185.79,-0.62,5.79,-0.62,5.79,-5.80,-5.84,-5.28,-6.42,-6.42,-6.41
187.65,-0.66,5.77,-0.66,5.77,-5.78,-5.82,-5.28,-6.44,-6.44,-6.43
189.52,-0.69,5.75,-0.69,5.75,-5.76,-5.80,-5.28,-6.45,-6.45,-6.44
191.42,-0.72,5.74,-0.72,5.74,-5.75,-5.78,-5.28,-6.47,-6.47,-6.46
193.33,-0.74,5.73,-0.74,5.73,-5.73,-5.75,-5.29,-6.47,-6.47,-6.47
195.27,-0.76,5.72,-0.76,5.73,-5.72,-5.73,-5.30,-6.48,-6.48,-6.48
197.22,-0.78,5.72,-0.78,5.72,-5.71,-5.71,-5.31,-6.49,-6.49,-6.50
199.19,-0.81,5.71,-0.81,5.71,-5.70,-5.68,-5.33,-6.51,-6.50,-6.52
201.18,-0.84,5.69,-0.84,5.69,-5.68,-5.66,-5.34,-6.52,-6.52,-6.53
203.19,-0.87,5.66,-0.87,5.67,-5.67,-5.63,-5.37,-6.54,-6.54,-6.53
205.23,-0.91,5.64,-0.90,5.64,-5.65,-5.60,-5.39,-6.56,-6.55,-6.55
207.28,-0.93,5.62,-0.93,5.63,-5.63,-5.58,-5.42,-6.56,-6.56,-6.55
209.35,-0.96,5.61,-0.96,5.62,-5.62,-5.55,-5.44,-6.57,-6.57,-6.57
211.44,-0.98,5.61,-0.98,5.60,-5.60,-5.52,-5.47,-6.58,-6.58,-6.59
213.56,-1.01,5.59,-1.01,5.59,-5.58,-5.49,-5.50,-6.59,-6.60,-6.60
215.69,-1.05,5.55,-1.04,5.57,-5.57,-5.47,-5.53,-6.62,-6.61,-6.60
217.85,-1.07,5.55,-1.07,5.55,-5.55,-5.44,-5.55,-6.62,-6.62,-6.62
220.03,-1.09,5.54,-1.09,5.54,-5.54,-5.41,-5.58,-6.63,-6.63,-6.63
222.23,-1.11,5.54,-1.12,5.53,-5.52,-5.38,-5.61,-6.63,-6.63,-6.65
224.45,-1.15,5.50,-1.15,5.51,-5.50,-5.35,-5.63,-6.65,-6.65,-6.65
226.70,-1.19,5.48,-1.18,5.48,-5.49,-5.32,-5.66,-6.68,-6.67,-6.67
228.96,-1.22,5.46,-1.22,5.46,-5.47,-5.28,-5.67,-6.69,-6.69,-6.68
231.25,-1.24,5.45,-1.24,5.45,-5.46,-5.25,-5.69,-6.70,-6.71,-6.69
233.57,-1.27,5.44,-1.27,5.44,-5.45,-5.22,-5.70,-6.72,-6.72,-6.71
235.90,-1.29,5.43,-1.29,5.44,-5.44,-5.19,-5.71,-6.73,-6.73,-6.72
238.26,-1.31,5.43,-1.31,5.43,-5.43,-5.15,-5.71,-6.73,-6.73,-6.74
240.64,-1.33,5.43,-1.33,5.42,-5.41,-5.12,-5.71,-6.74,-6.74,-6.76
243.05,-1.37,5.40,-1.37,5.40,-5.38,-5.09,-5.71,-6.75,-6.75,-6.77
245.48,-1.41,5.37,-1.41,5.37,-5.36,-5.05,-5.69,-6.77,-6.77,-6.78
247.93,-1.47,5.32,-1.46,5.33,-5.32,-5.02,-5.68,-6.79,-6.79,-6.79
250.41,-1.51,5.29,-1.51,5.28,-5.29,-4.98,-5.65,-6.80,-6.80,-6.80
252.92,-1.57,5.22,-1.56,5.23,-5.25,-4.95,-5.62,-6.82,-6.81,-6.79
255.45,-1.60,5.19,-1.60,5.19,-5.21,-4.91,-5.59,-6.81,-6.81,-6.79
258.00,-1.63,5.15,-1.63,5.15,-5.17,-4.88,-5.54,-6.79,-6.80,-6.78
260.58,-1.66,5.12,-1.65,5.12,-5.12,-4.84,-5.50,-6.78,-6.78,-6.78
263.19,-1.68,5.09,-1.68,5.09,-5.08,-4.80,-5.44,-6.76,-6.76,-6.77
265.82,-1.71,5.05,-1.71,5.05,-5.03,-4.77,-5.38,-6.74,-6.74,-6.76
268.48,-1.75,4.99,-1.75,4.99,-4.98,-4.73,-5.32,-6.73,-6.73,-6.74
271.16,-1.79,4.93,-1.79,4.93,-4.93,-4.69,-5.25,-6.72,-6.72,-6.72
273.87,-1.84,4.87,-1.84,4.87,-4.87,-4.65,-5.18,-6.71,-6.71,-6.71
276.61,-1.88,4.80,-1.89,4.80,-4.81,-4.61,-5.11,-6.69,-6.70,-6.68
279.38,-1.94,4.74,-1.93,4.74,-4.74,-4.57,-5.03,-6.68,-6.68,-6.68
282.17,-1.99,4.67,-1.98,4.68,-4.67,-4.54,-4.95,-6.66,-6.66,-6.66
284.99,-2.03,4.62,-2.04,4.61,-4.60,-4.50,-4.86,-6.63,-6.64,-6.65
287.84,-2.10,4.53,-2.09,4.54,-4.53,-4.46,-4.78,-6.63,-6.63,-6.63
290.72,-2.15,4.46,-2.15,4.46,-4.46,-4.42,-4.69,-6.61,-6.61,-6.61
293.63,-2.21,4.39,-2.21,4.39,-4.40,-4.38,-4.60,-6.60,-6.60,-6.60
296.57,-2.26,4.31,-2.26,4.32,-4.33,-4.33,-4.51,-6.59,-6.59,-6.57
299.53,-2.31,4.25,-2.31,4.25,-4.26,-4.29,-4.42,-6.57,-6.56,-6.56
302.53,-2.35,4.20,-2.35,4.20,-4.19,-4.25,-4.33,-6.54,-6.54,-6.55
305.55,-2.39,4.13,-2.39,4.13,-4.12,-4.21,-4.24,-6.51,-6.52,-6.52
308.61,-2.43,4.07,-2.43,4.07,-4.06,-4.17,-4.15,-6.49,-6.49,-6.50
311.69,-2.48,3.99,-2.47,4.00,-4.00,-4.13,-4.07,-6.48,-6.47,-6.47
314.81,-2.50,3.93,-2.50,3.94,-3.94,-4.09,-3.98,-6.44,-6.45,-6.43
317.96,-2.54,3.88,-2.54,3.88,-3.88,-4.04,-3.90,-6.42,-6.42,-6.42
321.14,-2.57,3.83,-2.57,3.83,-3.83,-4.00,-3.81,-6.40,-6.40,-6.40
324.35,-2.61,3.77,-2.61,3.77,-3.77,-3.96,-3.73,-6.38,-6.38,-6.38
327.59,-2.65,3.71,-2.64,3.72,-3.72,-3.92,-3.65,-6.37,-6.36,-6.36
330.87,-2.66,3.68,-2.67,3.67,-3.67,-3.87,-3.57,-6.33,-6.33,-6.34
334.18,-2.69,3.62,-2.69,3.62,-3.61,-3.83,-3.49,-6.30,-6.31,-6.31
337.52,-2.73,3.56,-2.72,3.57,-3.56,-3.79,-3.42,-6.29,-6.28,-6.29
340.90,-2.75,3.52,-2.75,3.52,-3.51,-3.75,-3.35,-6.26,-6.26,-6.27
344.30,-2.78,3.46,-2.78,3.47,-3.47,-3.70,-3.28,-6.24,-6.24,-6.24
347.75,-2.80,3.42,-2.80,3.42,-3.42,-3.66,-3.21,-6.22,-6.22,-6.22
351.23,-2.82,3.37,-2.82,3.37,-3.39,-3.62,-3.14,-6.20,-6.20,-6.19
354.74,-2.83,3.33,-2.82,3.34,-3.35,-3.57,-3.08,-6.18,-6.18,-6.16
358.28,-2.82,3.33,-2.82,3.32,-3.33,-3.53,-3.02,-6.14,-6.15,-6.15
361.87,-2.82,3.30,-2.82,3.30,-3.30,-3.49,-2.96,-6.12,-6.12,-6.12
365.49,-2.81,3.28,-2.81,3.29,-3.28,-3.45,-2.90,-6.09,-6.09,-6.09
369.14,-2.80,3.28,-2.80,3.27,-3.26,-3.41,-2.85,-6.06,-6.07,-6.08
372.83,-2.80,3.25,-2.80,3.25,-3.25,-3.36,-2.80,-6.05,-6.05,-6.05
376.56,-2.80,3.23,-2.80,3.23,-3.23,-3.32,-2.75,-6.03,-6.03,-6.03
380.33,-2.80,3.20,-2.79,3.21,-3.22,-3.28,-2.70,-6.02,-6.01,-6.00
384.13,-2.79,3.20,-2.79,3.20,-3.20,-3.24,-2.65,-5.99,-5.99,-5.99
387.97,-2.78,3.19,-2.78,3.19,-3.19,-3.20,-2.61,-5.97,-5.97,-5.97
391.85,-2.78,3.18,-2.78,3.18,-3.17,-3.16,-2.57,-5.95,-5.95,-5.96
395.77,-2.78,3.15,-2.78,3.16,-3.15,-3.12,-2.53,-5.93,-5.93,-5.93
399.73,-2.79,3.13,-2.79,3.14,-3.14,-3.08,-2.49,-5.92,-5.92,-5.92
403.72,-2.80,3.12,-2.80,3.11,-3.12,-3.04,-2.45,-5.91,-5.92,-5.92
407.76,-2.82,3.09,-2.82,3.09,-3.09,-3.01,-2.42,-5.91,-5.91,-5.91
411.84,-2.84,3.06,-2.84,3.07,-3.07,-2.97,-2.39,-5.91,-5.91,-5.90
415.96,-2.87,3.04,-2.87,3.04,-3.04,-2.93,-2.36,-5.91,-5.91,-5.91
