frequency,raw,error,smoothed,error_smoothed,equalization,parametric_eq,fixed_band_eq,equalized_raw,equalized_smoothed,target
20.00,5.14,-4.23,5.11,-4.26,4.26,3.91,1.37,9.41,9.37,9.37
20.20,5.12,-4.26,5.14,-4.23,4.23,3.91,1.41,9.35,9.38,9.38
20.40,5.18,-4.21,5.18,-4.20,4.20,3.91,1.45,9.38,9.39,9.39
20.61,5.21,-4.19,5.22,-4.17,4.17,3.92,1.50,9.38,9.40,9.40
20.81,5.26,-4.14,5.26,-4.14,4.14,3.92,1.54,9.40,9.40,9.40
21.02,5.29,-4.12,5.30,-4.11,4.11,3.91,1.59,9.40,9.41,9.41
21.23,5.34,-4.08,5.34,-4.08,4.08,3.91,1.64,9.42,9.42,9.42
21.44,5.38,-4.05,5.38,-4.05,4.05,3.91,1.69,9.43,9.42,9.43
21.66,5.42,-4.01,5.42,-4.01,4.01,3.90,1.74,9.43,9.43,9.43
21.87,5.45,-3.99,5.46,-3.98,3.98,3.89,1.79,9.43,9.44,9.44
22.09,5.50,-3.94,5.50,-3.95,3.95,3.88,1.85,9.45,9.44,9.44
22.31,5.53,-3.92,5.53,-3.91,3.91,3.87,1.90,9.44,9.45,9.45
22.54,5.58,-3.87,5.58,-3.88,3.88,3.86,1.96,9.46,9.45,9.45
22.76,5.61,-3.85,5.61,-3.84,3.84,3.85,2.02,9.45,9.45,9.46
22.99,5.66,-3.80,5.65,-3.81,3.81,3.84,2.08,9.47,9.46,9.46
23.22,5.69,-3.77,5.69,-3.77,3.77,3.82,2.14,9.46,9.46,9.46
23.45,5.72,-3.75,5.73,-3.73,3.73,3.80,2.21,9.46,9.47,9.47
23.69,5.76,-3.71,5.77,-3.70,3.70,3.78,2.27,9.46,9.47,9.47
23.92,5.81,-3.66,5.81,-3.66,3.66,3.76,2.34,9.48,9.47,9.47
24.16,5.84,-3.63,5.84,-3.63,3.63,3.74,2.40,9.47,9.47,9.47
24.40,5.88,-3.60,5.88,-3.59,3.59,3.72,2.47,9.48,9.47,9.48
24.65,5.92,-3.56,5.92,-3.56,3.56,3.70,2.54,9.48,9.48,9.48
24.89,5.95,-3.53,5.95,-3.53,3.53,3.67,2.61,9.48,9.48,9.48
25.14,5.99,-3.49,5.98,-3.49,3.49,3.65,2.68,9.48,9.48,9.48
25.39,6.03,-3.45,6.02,-3.46,3.46,3.62,2.75,9.49,9.48,9.48
25.65,6.05,-3.43,6.05,-3.43,3.43,3.59,2.82,9.48,9.48,9.48
25.91,6.07,-3.41,6.09,-3.39,3.39,3.57,2.89,9.46,9.48,9.48
26.16,6.12,-3.36,6.12,-3.36,3.36,3.54,2.96,9.48,9.48,9.48
26.43,6.15,-3.33,6.15,-3.33,3.33,3.50,3.03,9.48,9.48,9.48
26.69,6.18,-3.30,6.18,-3.30,3.30,3.47,3.09,9.48,9.48,9.48
26.96,6.20,-3.28,6.21,-3.27,3.27,3.44,3.16,9.47,9.48,9.48
27.23,6.24,-3.24,6.24,-3.24,3.24,3.41,3.22,9.48,9.48,9.48
27.50,6.27,-3.21,6.27,-3.21,3.21,3.37,3.29,9.48,9.48,9.48
27.77,6.30,-3.18,6.30,-3.18,3.18,3.34,3.34,9.48,9.48,9.48
28.05,6.33,-3.15,6.33,-3.15,3.15,3.30,3.40,9.48,9.48,9.48
28.33,6.36,-3.12,6.36,-3.12,3.12,3.27,3.45,9.48,9.48,9.48
28.62,6.38,-3.10,6.39,-3.09,3.09,3.23,3.50,9.47,9.48,9.48
28.90,6.42,-3.06,6.41,-3.07,3.07,3.19,3.55,9.49,9.48,9.48
29.19,6.43,-3.05,6.44,-3.04,3.04,3.16,3.59,9.47,9.48,9.48
29.48,6.46,-3.02,6.47,-3.01,3.01,3.12,3.62,9.47,9.48,9.48
29.78,6.51,-2.97,6.49,-2.98,2.98,3.08,3.65,9.49,9.48,9.48
30.08,6.51,-2.97,6.52,-2.95,2.95,3.04,3.67,9.47,9.47,9.48
30.38,6.55,-2.92,6.54,-2.93,2.93,3.00,3.69,9.48,9.47,9.47
30.68,6.57,-2.90,6.57,-2.90,2.90,2.96,3.70,9.47,9.47,9.47
30.99,6.59,-2.88,6.59,-2.87,2.87,2.92,3.71,9.46,9.47,9.47
31.30,6.61,-2.85,6.62,-2.84,2.84,2.88,3.71,9.45,9.46,9.46
31.61,6.64,-2.82,6.64,-2.82,2.82,2.84,3.70,9.46,9.46,9.46
31.93,6.67,-2.78,6.67,-2.79,2.79,2.79,3.69,9.46,9.45,9.45
32.24,6.68,-2.77,6.69,-2.76,2.76,2.75,3.67,9.44,9.45,9.45
32.57,6.71,-2.73,6.71,-2.73,2.73,2.71,3.64,9.44,9.44,9.44
32.89,6.72,-2.72,6.73,-2.70,2.70,2.67,3.61,9.42,9.44,9.44
33.22,6.77,-2.66,6.76,-2.67,2.67,2.63,3.57,9.44,9.43,9.43
33.55,6.78,-2.65,6.78,-2.64,2.64,2.59,3.53,9.42,9.42,9.43
33.89,6.81,-2.61,6.80,-2.62,2.62,2.54,3.48,9.43,9.42,9.42
34.23,6.82,-2.59,6.82,-2.58,2.58,2.50,3.43,9.41,9.41,9.41
34.57,6.85,-2.55,6.85,-2.55,2.55,2.46,3.37,9.41,9.40,9.40
34.92,6.85,-2.54,6.87,-2.52,2.52,2.42,3.31,9.38,9.39,9.39
35.27,6.90,-2.49,6.89,-2.49,2.49,2.37,3.25,9.39,9.38,9.39
35.62,6.90,-2.47,6.91,-2.46,2.46,2.33,3.18,9.36,9.37,9.37
35.97,6.94,-2.42,6.93,-2.43,2.43,2.29,3.11,9.37,9.36,9.36
36.33,6.94,-2.41,6.95,-2.40,2.40,2.25,3.04,9.34,9.34,9.35
36.70,6.96,-2.37,6.97,-2.37,2.37,2.20,2.97,9.33,9.33,9.33
37.06,6.98,-2.34,6.98,-2.33,2.33,2.16,2.90,9.32,9.32,9.32
37.43,6.98,-2.32,7.00,-2.30,2.30,2.12,2.82,9.28,9.30,9.30
37.81,7.03,-2.25,7.02,-2.27,2.27,2.08,2.74,9.30,9.28,9.28
38.19,7.03,-2.24,7.03,-2.23,2.23,2.04,2.67,9.26,9.27,9.27
38.57,7.05,-2.20,7.05,-2.20,2.20,1.99,2.59,9.25,9.25,9.25
38.95,7.07,-2.16,7.06,-2.16,2.16,1.95,2.51,9.24,9.23,9.23
39.34,7.07,-2.14,7.08,-2.13,2.13,1.91,2.43,9.20,9.21,9.21
39.74,7.11,-2.08,7.09,-2.09,2.09,1.87,2.36,9.21,9.19,9.19
40.14,7.11,-2.06,7.11,-2.06,2.06,1.83,2.28,9.17,9.17,9.17
40.54,7.11,-2.04,7.12,-2.02,2.02,1.79,2.20,9.13,9.14,9.15
40.94,7.12,-2.00,7.14,-1.98,1.98,1.74,2.13,9.11,9.12,9.12
41.35,7.16,-1.94,7.15,-1.95,1.95,1.70,2.06,9.11,9.10,9.10
41.76,7.16,-1.91,7.16,-1.91,1.91,1.66,1.98,9.07,9.07,9.07
42.18,7.16,-1.89,7.17,-1.88,1.88,1.62,1.91,9.04,9.05,9.05
42.60,7.20,-1.82,7.18,-1.83,1.83,1.58,1.84,9.04,9.02,9.02
43.03,7.20,-1.79,7.20,-1.79,1.79,1.54,1.77,9.00,8.99,8.99
43.46,7.20,-1.76,7.21,-1.75,1.75,1.50,1.70,8.95,8.96,8.96
43.90,7.20,-1.73,7.22,-1.71,1.71,1.46,1.63,8.91,8.93,8.93
44.33,7.24,-1.66,7.23,-1.67,1.67,1.42,1.57,8.91,8.90,8.90
44.78,7.24,-1.63,7.24,-1.63,1.63,1.38,1.50,8.87,8.87,8.87
45.23,7.24,-1.60,7.25,-1.58,1.58,1.34,1.44,8.82,8.83,8.84
45.68,7.24,-1.56,7.26,-1.54,1.54,1.30,1.38,8.78,8.80,8.80
46.13,7.28,-1.48,7.27,-1.49,1.49,1.26,1.32,8.77,8.76,8.76
46.60,7.29,-1.43,7.28,-1.44,1.44,1.23,1.26,8.73,8.72,8.72
47.06,7.29,-1.40,7.29,-1.39,1.39,1.19,1.20,8.68,8.68,8.69
47.53,7.29,-1.36,7.29,-1.35,1.35,1.15,1.14,8.64,8.64,8.65
48.01,7.29,-1.31,7.30,-1.30,1.30,1.11,1.08,8.59,8.60,8.60
48.49,7.30,-1.26,7.31,-1.25,1.25,1.07,1.03,8.55,8.56,8.56
48.97,7.33,-1.18,7.31,-1.20,1.20,1.03,0.98,8.53,8.52,8.51
49.46,7.33,-1.14,7.32,-1.15,1.15,0.99,0.92,8.48,8.47,8.47
49.96,7.33,-1.09,7.33,-1.10,1.10,0.96,0.87,8.43,8.43,8.42
50.46,7.33,-1.05,7.33,-1.05,1.05,0.92,0.82,8.38,8.38,8.38
50.96,7.33,-1.01,7.34,-1.00,1.00,0.88,0.77,8.34,8.34,8.34
51.47,7.33,-0.97,7.34,-0.96,0.96,0.84,0.72,8.29,8.29,8.30
51.99,7.33,-0.92,7.34,-0.91,0.91,0.81,0.67,8.24,8.25,8.25
52.51,7.33,-0.88,7.35,-0.86,0.86,0.77,0.62,8.19,8.20,8.21
53.03,7.35,-0.82,7.35,-0.81,0.81,0.73,0.58,8.16,8.16,8.17
53.56,7.37,-0.75,7.35,-0.76,0.76,0.69,0.53,8.13,8.11,8.12
54.10,7.37,-0.70,7.36,-0.71,0.71,0.66,0.49,8.08,8.07,8.07
54.64,7.37,-0.65,7.36,-0.66,0.66,0.62,0.44,8.03,8.02,8.02
55.18,7.34,-0.63,7.36,-0.62,0.62,0.58,0.40,7.96,7.98,7.97
55.74,7.37,-0.55,7.37,-0.57,0.57,0.55,0.36,7.94,7.93,7.92
56.29,7.37,-0.51,7.37,-0.52,0.52,0.51,0.31,7.89,7.89,7.88
56.86,7.37,-0.47,7.37,-0.47,0.47,0.47,0.27,7.85,7.84,7.84
57.42,7.37,-0.42,7.37,-0.43,0.43,0.44,0.23,7.80,7.80,7.79
58.00,7.37,-0.38,7.37,-0.38,0.38,0.40,0.19,7.75,7.75,7.75
58.58,7.37,-0.34,7.37,-0.33,0.33,0.36,0.15,7.70,7.70,7.71
59.16,7.37,-0.30,7.37,-0.28,0.28,0.33,0.11,7.65,7.65,7.67
59.76,7.37,-0.26,7.37,-0.23,0.23,0.29,0.07,7.60,7.60,7.63
60.35,7.37,-0.20,7.37,-0.18,0.18,0.25,0.03,7.55,7.55,7.57
60.96,7.37,-0.14,7.37,-0.13,0.13,0.22,-0.00,7.50,7.50,7.51
61.57,7.37,-0.08,7.37,-0.07,0.07,0.18,-0.04,7.44,7.44,7.45
62.18,7.37,-0.01,7.37,-0.02,0.02,0.14,-0.08,7.40,7.39,7.38
62.80,7.37,0.05,7.36,0.03,-0.03,0.11,-0.11,7.34,7.33,7.32
63.43,7.37,0.11,7.36,0.08,-0.08,0.07,-0.15,7.29,7.28,7.26
64.07,7.35,0.14,7.35,0.13,-0.13,0.03,-0.19,7.22,7.22,7.21
64.71,7.34,0.18,7.34,0.18,-0.18,-0.01,-0.22,7.16,7.17,7.16
65.35,7.33,0.22,7.34,0.23,-0.23,-0.04,-0.26,7.10,7.11,7.11
66.01,7.33,0.27,7.33,0.28,-0.28,-0.08,-0.29,7.05,7.05,7.06
66.67,7.33,0.32,7.33,0.33,-0.33,-0.12,-0.33,7.00,7.00,7.01
67.33,7.33,0.38,7.32,0.38,-0.38,-0.16,-0.36,6.95,6.94,6.95
68.01,7.29,0.40,7.31,0.43,-0.43,-0.19,-0.40,6.86,6.89,6.89
68.69,7.29,0.46,7.31,0.48,-0.48,-0.23,-0.44,6.81,6.83,6.83
69.37,7.29,0.51,7.30,0.53,-0.53,-0.27,-0.47,6.76,6.77,6.78
70.07,7.29,0.57,7.29,0.58,-0.58,-0.31,-0.51,6.71,6.71,6.72
70.77,7.29,0.63,7.28,0.63,-0.63,-0.35,-0.54,6.66,6.65,6.66
71.48,7.29,0.69,7.28,0.68,-0.68,-0.39,-0.58,6.61,6.59,6.60
72.19,7.29,0.75,7.27,0.74,-0.74,-0.43,-0.62,6.55,6.53,6.54
72.91,7.28,0.81,7.26,0.79,-0.79,-0.46,-0.65,6.49,6.47,6.47
73.64,7.24,0.83,7.25,0.84,-0.84,-0.50,-0.69,6.40,6.41,6.41
74.38,7.24,0.89,7.25,0.89,-0.89,-0.54,-0.73,6.35,6.36,6.35
75.12,7.24,0.95,7.24,0.94,-0.94,-0.58,-0.77,6.30,6.30,6.29
75.87,7.24,1.00,7.23,0.99,-0.99,-0.62,-0.81,6.25,6.24,6.24
76.63,7.20,1.02,7.22,1.04,-1.04,-0.66,-0.85,6.16,6.18,6.18
77.40,7.20,1.07,7.21,1.08,-1.08,-0.71,-0.89,6.12,6.13,6.13
78.17,7.20,1.13,7.20,1.13,-1.13,-0.75,-0.93,6.07,6.07,6.07
78.95,7.20,1.18,7.19,1.17,-1.17,-0.79,-0.97,6.03,6.01,6.02
79.74,7.17,1.20,7.17,1.22,-1.22,-0.83,-1.02,5.96,5.96,5.97
80.54,7.16,1.25,7.16,1.26,-1.26,-0.87,-1.06,5.90,5.90,5.91
81.35,7.16,1.31,7.15,1.30,-1.30,-0.91,-1.11,5.86,5.85,5.85
82.16,7.16,1.36,7.14,1.35,-1.35,-0.96,-1.15,5.81,5.79,5.80
82.98,7.11,1.37,7.13,1.39,-1.39,-1.00,-1.20,5.72,5.74,5.74
83.81,7.11,1.43,7.11,1.43,-1.43,-1.04,-1.25,5.68,5.68,5.68
84.65,7.11,1.49,7.10,1.48,-1.48,-1.09,-1.30,5.63,5.62,5.62
85.50,7.07,1.51,7.09,1.52,-1.52,-1.13,-1.35,5.55,5.56,5.56
86.35,7.07,1.56,7.07,1.57,-1.57,-1.18,-1.40,5.50,5.51,5.51
87.22,7.07,1.62,7.06,1.61,-1.61,-1.22,-1.45,5.46,5.45,5.45
88.09,7.03,1.64,7.04,1.66,-1.66,-1.27,-1.51,5.37,5.39,5.39
88.97,7.03,1.70,7.03,1.70,-1.70,-1.32,-1.56,5.33,5.33,5.33
89.86,7.03,1.76,7.01,1.75,-1.75,-1.36,-1.62,5.28,5.27,5.27
90.76,6.98,1.77,7.00,1.79,-1.79,-1.41,-1.67,5.19,5.20,5.21
91.66,6.98,1.84,6.98,1.84,-1.84,-1.46,-1.73,5.14,5.14,5.14
92.58,6.98,1.90,6.97,1.89,-1.89,-1.50,-1.79,5.09,5.08,5.08
93.51,6.94,1.92,6.95,1.94,-1.94,-1.55,-1.85,5.01,5.01,5.02
94.44,6.94,1.98,6.93,1.98,-1.98,-1.60,-1.92,4.96,4.95,4.96
95.39,6.91,2.02,6.92,2.03,-2.03,-1.65,-1.98,4.88,4.88,4.89
96.34,6.90,2.08,6.90,2.08,-2.08,-1.70,-2.04,4.82,4.82,4.82
97.30,6.89,2.13,6.88,2.13,-2.13,-1.75,-2.11,4.76,4.76,4.76
98.28,6.85,2.16,6.86,2.17,-2.17,-1.80,-2.18,4.68,4.69,4.69
99.26,6.85,2.23,6.84,2.22,-2.22,-1.85,-2.24,4.63,4.63,4.62
100.25,6.81,2.26,6.82,2.26,-2.26,-1.90,-2.31,4.55,4.56,4.55
101.25,6.81,2.31,6.81,2.30,-2.30,-1.96,-2.38,4.51,4.50,4.50
102.27,6.79,2.35,6.79,2.35,-2.35,-2.01,-2.45,4.45,4.44,4.44
103.29,6.77,2.39,6.77,2.39,-2.39,-2.06,-2.51,4.38,4.38,4.38
104.32,6.75,2.43,6.74,2.43,-2.43,-2.11,-2.58,4.33,4.32,4.32
105.37,6.72,2.46,6.72,2.46,-2.46,-2.17,-2.65,4.26,4.26,4.26
106.42,6.70,2.49,6.70,2.50,-2.50,-2.22,-2.72,4.20,4.20,4.21
107.48,6.68,2.54,6.68,2.54,-2.54,-2.27,-2.78,4.14,4.14,4.14
108.56,6.65,2.57,6.66,2.58,-2.58,-2.33,-2.85,4.07,4.08,4.08
109.64,6.64,2.62,6.63,2.62,-2.62,-2.38,-2.91,4.02,4.01,4.02
110.74,6.61,2.65,6.61,2.66,-2.66,-2.44,-2.98,3.95,3.95,3.96
111.85,6.59,2.69,6.59,2.70,-2.70,-2.49,-3.04,3.89,3.89,3.90
112.97,6.55,2.72,6.56,2.74,-2.74,-2.55,-3.09,3.81,3.83,3.83
114.10,6.54,2.77,6.54,2.78,-2.78,-2.60,-3.15,3.76,3.76,3.77
115.24,6.51,2.81,6.52,2.82,-2.82,-2.66,-3.20,3.69,3.70,3.70
116.39,6.51,2.88,6.49,2.86,-2.86,-2.71,-3.25,3.65,3.64,3.63
117.55,6.46,2.89,6.47,2.89,-2.89,-2.77,-3.30,3.57,3.57,3.57
118.73,6.45,2.95,6.44,2.93,-2.93,-2.82,-3.34,3.52,3.51,3.50
119.92,6.42,2.98,6.42,2.97,-2.97,-2.88,-3.38,3.45,3.45,3.44
121.12,6.39,3.00,6.39,3.01,-3.01,-2.93,-3.41,3.39,3.39,3.39
122.33,6.38,3.05,6.37,3.04,-3.04,-2.99,-3.45,3.34,3.32,3.33
123.55,6.33,3.06,6.34,3.08,-3.08,-3.04,-3.47,3.25,3.26,3.27
124.79,6.30,3.09,6.31,3.11,-3.11,-3.10,-3.49,3.19,3.20,3.21
126.03,6.29,3.14,6.29,3.14,-3.14,-3.15,-3.51,3.15,3.14,3.15
127.29,6.25,3.16,6.26,3.18,-3.18,-3.20,-3.52,3.07,3.08,3.09
128.57,6.23,3.21,6.23,3.21,-3.21,-3.25,-3.53,3.02,3.02,3.02
129.85,6.20,3.24,6.20,3.24,-3.24,-3.31,-3.54,2.96,2.96,2.96
131.15,6.17,3.27,6.17,3.27,-3.27,-3.36,-3.54,2.90,2.90,2.90
132.46,6.14,3.30,6.14,3.30,-3.30,-3.41,-3.54,2.84,2.84,2.84
133.79,6.12,3.34,6.11,3.33,-3.33,-3.45,-3.53,2.79,2.78,2.78
135.12,6.08,3.36,6.08,3.36,-3.36,-3.50,-3.52,2.72,2.72,2.72
136.48,6.05,3.38,6.05,3.39,-3.39,-3.55,-3.51,2.66,2.67,2.67
137.84,6.02,3.41,6.02,3.41,-3.41,-3.59,-3.49,2.61,2.61,2.61
139.22,5.99,3.44,5.99,3.44,-3.44,-3.64,-3.48,2.56,2.56,2.55
140.61,5.96,3.46,5.96,3.45,-3.45,-3.68,-3.46,2.51,2.50,2.50
142.02,5.93,3.48,5.93,3.47,-3.47,-3.72,-3.44,2.46,2.45,2.45
143.44,5.90,3.50,5.89,3.49,-3.49,-3.76,-3.42,2.41,2.40,2.40
144.87,5.86,3.50,5.86,3.51,-3.51,-3.80,-3.39,2.36,2.35,2.36
146.32,5.82,3.51,5.82,3.52,-3.52,-3.83,-3.37,2.30,2.30,2.31
147.78,5.79,3.53,5.79,3.53,-3.53,-3.87,-3.35,2.26,2.26,2.26
149.26,5.75,3.54,5.75,3.54,-3.54,-3.90,-3.32,2.21,2.21,2.21
150.75,5.71,3.55,5.71,3.55,-3.55,-3.93,-3.30,2.16,2.16,2.16
152.26,5.68,3.56,5.68,3.56,-3.56,-3.96,-3.28,2.12,2.11,2.12
153.78,5.64,3.57,5.64,3.57,-3.57,-3.98,-3.26,2.07,2.06,2.07
155.32,5.60,3.58,5.60,3.58,-3.58,-4.00,-3.24,2.02,2.02,2.02
156.88,5.57,3.60,5.56,3.59,-3.59,-4.02,-3.22,1.98,1.97,1.97
158.44,5.51,3.59,5.52,3.61,-3.61,-4.04,-3.20,1.90,1.92,1.92
160.03,5.48,3.61,5.49,3.62,-3.62,-4.06,-3.18,1.86,1.87,1.87
161.63,5.45,3.63,5.45,3.63,-3.63,-4.07,-3.17,1.82,1.82,1.82
163.24,5.40,3.63,5.41,3.64,-3.64,-4.08,-3.16,1.76,1.77,1.77
164.88,5.37,3.65,5.37,3.65,-3.65,-4.09,-3.15,1.72,1.72,1.72
166.53,5.34,3.67,5.33,3.67,-3.67,-4.09,-3.14,1.68,1.67,1.67
168.19,5.29,3.67,5.30,3.68,-3.68,-4.10,-3.13,1.61,1.62,1.62
169.87,5.26,3.69,5.26,3.69,-3.69,-4.10,-3.13,1.57,1.57,1.57
171.57,5.23,3.71,5.22,3.70,-3.70,-4.09,-3.13,1.53,1.52,1.52
173.29,5.18,3.71,5.18,3.71,-3.71,-4.09,-3.13,1.47,1.47,1.47
175.02,5.14,3.72,5.14,3.73,-3.73,-4.08,-3.13,1.41,1.42,1.42
176.77,5.10,3.73,5.11,3.74,-3.74,-4.07,-3.14,1.36,1.37,1.37
178.54,5.07,3.75,5.07,3.75,-3.75,-4.05,-3.15,1.32,1.32,1.32
180.32,5.02,3.75,5.03,3.76,-3.76,-4.04,-3.16,1.26,1.27,1.27
182.13,4.99,3.77,4.99,3.77,-3.77,-4.02,-3.17,1.22,1.22,1.22
183.95,4.95,3.77,4.95,3.78,-3.78,-4.00,-3.19,1.17,1.17,1.18
185.79,4.91,3.78,4.91,3.78,-3.78,-3.98,-3.21,1.13,1.12,1.13
187.65,4.88,3.80,4.87,3.79,-3.79,-3.95,-3.23,1.09,1.08,1.08
189.52,4.82,3.79,4.83,3.80,-3.80,-3.92,-3.25,1.02,1.03,1.03
191.42,4.79,3.80,4.79,3.80,-3.80,-3.89,-3.27,0.99,0.99,0.99
193.33,4.74,3.80,4.75,3.81,-3.81,-3.86,-3.30,0.93,0.94,0.94
195.27,4.71,3.81,4.71,3.81,-3.81,-3.83,-3.33,0.90,0.90,0.90
197.22,4.66,3.81,4.67,3.81,-3.81,-3.80,-3.36,0.85,0.85,0.85
199.19,4.62,3.81,4.62,3.81,-3.81,-3.76,-3.39,0.81,0.81,0.81
201.18,4.58,3.81,4.58,3.81,-3.81,-3.72,-3.43,0.77,0.77,0.77
203.19,4.54,3.81,4.54,3.81,-3.81,-3.68,-3.46,0.73,0.73,0.73
205.23,4.50,3.80,4.50,3.80,-3.80,-3.64,-3.50,0.70,0.69,0.70
207.28,4.45,3.79,4.45,3.79,-3.79,-3.60,-3.54,0.66,0.66,0.66
209.35,4.41,3.79,4.41,3.79,-3.79,-3.56,-3.57,0.62,0.62,0.62
211.44,4.37,3.78,4.37,3.78,-3.78,-3.51,-3.61,0.59,0.59,0.59
213.56,4.32,3.76,4.32,3.77,-3.77,-3.47,-3.65,0.55,0.55,0.56
215.69,4.28,3.75,4.28,3.76,-3.76,-3.42,-3.68,0.52,0.52,0.53
217.85,4.23,3.73,4.24,3.74,-3.74,-3.37,-3.72,0.49,0.49,0.50
220.03,4.19,3.73,4.19,3.73,-3.73,-3.32,-3.75,0.46,0.46,0.46
222.23,4.15,3.72,4.15,3.71,-3.71,-3.28,-3.78,0.44,0.43,0.43
224.45,4.10,3.70,4.10,3.70,-3.70,-3.23,-3.81,0.40,0.41,0.40
226.70,4.05,3.67,4.06,3.68,-3.68,-3.18,-3.84,0.37,0.38,0.38
228.96,4.02,3.66,4.01,3.66,-3.66,-3.13,-3.87,0.36,0.35,0.36
231.25,3.97,3.64,3.97,3.64,-3.64,-3.08,-3.89,0.33,0.33,0.33
233.57,3.92,3.61,3.92,3.62,-3.62,-3.03,-3.91,0.30,0.31,0.31
235.90,3.89,3.61,3.88,3.60,-3.60,-2.98,-3.92,0.30,0.28,0.28
238.26,3.83,3.57,3.83,3.57,-3.57,-2.93,-3.93,0.26,0.26,0.26
240.64,3.78,3.53,3.79,3.55,-3.55,-2.88,-3.93,0.24,0.24,0.25
243.05,3.75,3.52,3.74,3.52,-3.52,-2.83,-3.93,0.23,0.23,0.23
245.48,3.70,3.49,3.70,3.49,-3.49,-2.78,-3.93,0.21,0.21,0.21
247.93,3.65,3.46,3.65,3.46,-3.46,-2.73,-3.92,0.19,0.19,0.19
250.41,3.61,3.43,3.61,3.43,-3.43,-2.68,-3.90,0.18,0.18,0.18
252.92,3.55,3.38,3.56,3.40,-3.40,-2.63,-3.88,0.16,0.16,0.17
255.45,3.52,3.37,3.51,3.36,-3.36,-2.58,-3.85,0.16,0.15,0.15
258.00,3.46,3.32,3.47,3.33,-3.33,-2.53,-3.82,0.13,0.14,0.14
260.58,3.42,3.29,3.42,3.30,-3.30,-2.48,-3.78,0.12,0.13,0.13
263.19,3.38,3.26,3.38,3.26,-3.26,-2.43,-3.74,0.12,0.12,0.12
265.82,3.33,3.22,3.33,3.23,-3.23,-2.38,-3.69,0.10,0.11,0.11
268.48,3.28,3.18,3.29,3.19,-3.19,-2.33,-3.64,0.09,0.10,0.10
271.16,3.24,3.15,3.24,3.15,-3.15,-2.28,-3.58,0.09,0.09,0.09
273.87,3.19,3.11,3.19,3.11,-3.11,-2.24,-3.52,0.08,0.08,0.08
276.61,3.15,3.08,3.14,3.07,-3.07,-2.19,-3.46,0.08,0.07,0.07
279.38,3.10,3.04,3.10,3.03,-3.03,-2.14,-3.39,0.07,0.07,0.06
282.17,3.06,3.00,3.05,2.99,-2.99,-2.10,-3.32,0.07,0.06,0.06
284.99,3.01,2.95,3.00,2.95,-2.95,-2.05,-3.25,0.06,0.06,0.06
287.84,2.95,2.89,2.96,2.90,-2.90,-2.01,-3.18,0.05,0.05,0.06
290.72,2.89,2.84,2.91,2.86,-2.86,-1.96,-3.10,0.03,0.05,0.05
293.63,2.86,2.81,2.86,2.81,-2.81,-1.92,-3.02,0.05,0.05,0.05
296.57,2.81,2.76,2.81,2.77,-2.77,-1.87,-2.95,0.05,0.05,0.05
299.53,2.76,2.71,2.76,2.72,-2.72,-1.83,-2.87,0.04,0.05,0.05
302.53,2.72,2.67,2.71,2.67,-2.67,-1.79,-2.79,0.05,0.05,0.05
305.55,2.67,2.62,2.66,2.62,-2.62,-1.75,-2.71,0.06,0.05,0.05
308.61,2.62,2.57,2.61,2.57,-2.57,-1.70,-2.63,0.06,0.05,0.05
311.69,2.56,2.51,2.56,2.51,-2.51,-1.66,-2.55,0.05,0.05,0.05
314.81,2.50,2.45,2.51,2.46,-2.46,-1.62,-2.47,0.04,0.05,0.05
317.96,2.46,2.41,2.46,2.41,-2.41,-1.58,-2.39,0.05,0.05,0.05
321.14,2.41,2.36,2.41,2.36,-2.36,-1.54,-2.31,0.05,0.05,0.05
324.35,2.36,2.31,2.36,2.31,-2.31,-1.50,-2.23,0.05,0.05,0.05
327.59,2.30,2.24,2.30,2.25,-2.25,-1.46,-2.15,0.05,0.05,0.06
330.87,2.24,2.18,2.25,2.19,-2.19,-1.43,-2.08,0.05,0.06,0.06
334.18,2.20,2.14,2.20,2.14,-2.14,-1.39,-2.00,0.06,0.06,0.06
337.52,2.15,2.09,2.14,2.08,-2.08,-1.35,-1.93,0.08,0.06,0.06
340.90,2.11,2.04,2.08,2.01,-2.01,-1.31,-1.86,0.10,0.07,0.07
344.30,2.02,1.95,2.02,1.95,-1.95,-1.28,-1.78,0.07,0.07,0.07
347.75,1.98,1.90,1.97,1.89,-1.89,-1.24,-1.71,0.09,0.08,0.08
351.23,1.93,1.85,1.92,1.84,-1.84,-1.20,-1.64,0.09,0.08,0.08
354.74,1.87,1.78,1.87,1.78,-1.78,-1.17,-1.58,0.09,0.09,0.09
358.28,1.81,1.72,1.82,1.73,-1.73,-1.13,-1.51,0.08,0.09,0.09
361.87,1.75,1.65,1.78,1.68,-1.68,-1.10,-1.44,0.07,0.10,0.10
365.49,1.70,1.59,1.73,1.63,-1.63,-1.07,-1.38,0.07,0.10,0.11
369.14,1.65,1.54,1.69,1.58,-1.58,-1.03,-1.32,0.07,0.11,0.11
372.83,1.62,1.50,1.65,1.54,-1.54,-1.00,-1.26,0.08,0.11,0.12
376.56,1.61,1.49,1.62,1.50,-1.50,-0.97,-1.20,0.11,0.12,0.12
380.33,1.60,1.47,1.58,1.46,-1.46,-0.93,-1.14,0.15,0.13,0.13
384.13,1.57,1.44,1.55,1.42,-1.42,-0.90,-1.08,0.15,0.13,0.13
387.97,1.55,1.41,1.52,1.38,-1.38,-0.87,-1.02,0.17,0.14,0.14
391.85,1.50,1.35,1.48,1.34,-1.34,-0.84,-0.96,0.16,0.15,0.15
395.77,1.46,1.31,1.45,1.30,-1.30,-0.80,-0.91,0.16,0.15,0.15
399.73,1.42,1.26,1.41,1.25,-1.25,-0.77,-0.86,0.17,0.16,0.16
403.72,1.37,1.20,1.37,1.21,-1.21,-0.74,-0.80,0.16,0.16,0.17
407.76,1.33,1.16,1.33,1.16,-1.16,-0.71,-0.75,0.17,0.17,0.17
411.84,1.28,1.10,1.29,1.11,-1.11,-0.68,-0.70,0.17,0.18,0.18
415.96,1.24,1.05,1.24,1.05,-1.05,-0.65,-0.65,0.19,0.18,0.19
420.12,1.20,1.01,1.19,1.00,-1.00,-0.62,-0.60,0.20,0.19,0.19
424.32,1.14,0.94,1.14,0.94,-0.94,-0.59,-0.55,0.20,0.20,0.20
428.56,1.08,0.87,1.09,0.88,-0.88,-0.56,-0.51,0.20,0.21,0.21
432.85,1.04,0.82,1.04,0.83,-0.83,-0.52,-0.46,0.21,0.21,0.22
437.18,0.99,0.77,1.00,0.77,-0.77,-0.49,-0.42,0.22,0.22,0.22
441.55,0.94,0.71,0.95,0.72,-0.72,-0.46,-0.37,0.22,0.23,0.23
445.96,0.90,0.66,0.90,0.66,-0.66,-0.43,-0.33,0.24,0.24,0.24
450.42,0.85,0.60,0.86,0.61,-0.61,-0.40,-0.29,0.24,0.25,0.25
454.93,0.81,0.55,0.81,0.55,-0.55,-0.37,-0.25,0.26,0.26,0.26
459.48,0.77,0.50,0.77,0.50,-0.50,-0.34,-0.21,0.27,0.27,0.27
464.07,0.73,0.45,0.72,0.44,-0.44,-0.31,-0.17,0.29,0.28,0.28
468.71,0.68,0.39,0.68,0.39,-0.39,-0.28,-0.13,0.29,0.29,0.29
473.40,0.64,0.34,0.64,0.34,-0.34,-0.25,-0.10,0.30,0.30,0.30
478.13,0.59,0.28,0.59,0.29,-0.29,-0.22,-0.06,0.30,0.31,0.31
482.91,0.55,0.23,0.55,0.23,-0.23,-0.19,-0.03,0.32,0.32,0.32
487.74,0.51,0.18,0.51,0.18,-0.18,-0.16,0.01,0.33,0.33,0.33
492.62,0.46,0.12,0.47,0.13,-0.13,-0.13,0.04,0.33,0.34,0.34
497.55,0.43,0.08,0.43,0.08,-0.08,-0.10,0.07,0.35,0.35,0.35
502.52,0.38,0.02,0.39,0.03,-0.03,-0.07,0.10,0.35,0.36,0.36
507.55,0.35,-0.03,0.35,-0.02,0.02,-0.03,0.13,0.37,0.37,0.38
512.62,0.32,-0.07,0.31,-0.07,0.07,-0.00,0.16,0.39,0.38,0.39
517.75,0.27,-0.13,0.27,-0.12,0.12,0.03,0.19,0.40,0.40,0.40
522.93,0.24,-0.17,0.23,-0.18,0.18,0.06,0.21,0.42,0.41,0.41
528.16,0.20,-0.22,0.20,-0.23,0.23,0.09,0.24,0.43,0.42,0.42
533.44,0.16,-0.27,0.16,-0.28,0.28,0.13,0.27,0.44,0.43,0.43
538.77,0.13,-0.31,0.12,-0.33,0.33,0.16,0.29,0.46,0.45,0.44
544.16,0.07,-0.39,0.08,-0.38,0.38,0.20,0.31,0.45,0.46,0.46
549.60,0.04,-0.43,0.04,-0.42,0.42,0.23,0.34,0.46,0.47,0.47
555.10,0.01,-0.48,0.01,-0.47,0.47,0.26,0.36,0.48,0.48,0.49
560.65,-0.04,-0.54,-0.03,-0.52,0.52,0.30,0.39,0.48,0.49,0.50
