frequency,raw,error,smoothed,error_smoothed,equalization,parametric_eq,fixed_band_eq,equalized_raw,equalized_smoothed,target
20.00,12.27,1.00,12.31,1.04,-1.04,-1.16,-0.33,11.23,11.27,11.27
20.20,12.27,1.01,12.30,1.03,-1.03,-1.17,-0.34,11.24,11.26,11.26
20.40,12.27,1.02,12.28,1.02,-1.02,-1.17,-0.35,11.25,11.25,11.25
20.61,12.27,1.02,12.26,1.02,-1.02,-1.17,-0.36,11.25,11.24,11.25
20.81,12.27,1.04,12.24,1.01,-1.01,-1.16,-0.37,11.26,11.24,11.23
21.02,12.27,1.04,12.23,1.00,-1.00,-1.16,-0.38,11.27,11.23,11.23
21.23,12.25,1.03,12.21,0.99,-0.99,-1.15,-0.39,11.26,11.22,11.22
21.44,12.23,1.00,12.20,0.99,-0.99,-1.14,-0.40,11.24,11.21,11.23
21.66,12.20,0.98,12.18,0.98,-0.98,-1.14,-0.41,11.22,11.20,11.22
21.87,12.18,0.98,12.17,0.97,-0.97,-1.12,-0.42,11.21,11.20,11.20
22.09,12.16,0.97,12.16,0.96,-0.96,-1.11,-0.43,11.20,11.19,11.19
22.31,12.14,0.95,12.14,0.96,-0.96,-1.10,-0.44,11.18,11.19,11.19
22.54,12.12,0.94,12.13,0.94,-0.94,-1.09,-0.45,11.17,11.18,11.18
22.76,12.09,0.91,12.11,0.93,-0.93,-1.07,-0.46,11.16,11.18,11.18
22.99,12.07,0.90,12.10,0.92,-0.92,-1.06,-0.47,11.15,11.17,11.17
23.22,12.07,0.91,12.08,0.91,-0.91,-1.04,-0.49,11.15,11.17,11.16
23.45,12.07,0.90,12.08,0.91,-0.91,-1.02,-0.50,11.16,11.17,11.17
23.69,12.07,0.91,12.07,0.91,-0.91,-1.01,-0.51,11.16,11.16,11.15
23.92,12.07,0.92,12.07,0.90,-0.90,-0.99,-0.53,11.16,11.16,11.15
24.16,12.07,0.91,12.06,0.90,-0.90,-0.97,-0.54,11.17,11.16,11.16
24.40,12.07,0.90,12.07,0.90,-0.90,-0.96,-0.55,11.17,11.16,11.17
24.65,12.07,0.90,12.07,0.91,-0.91,-0.94,-0.57,11.16,11.16,11.17
24.89,12.07,0.90,12.08,0.91,-0.91,-0.92,-0.58,11.16,11.16,11.17
25.14,12.07,0.90,12.08,0.92,-0.92,-0.91,-0.59,11.15,11.16,11.17
25.39,12.07,0.91,12.08,0.91,-0.91,-0.89,-0.61,11.16,11.17,11.16
25.65,12.07,0.91,12.08,0.91,-0.91,-0.88,-0.62,11.16,11.17,11.16
25.91,12.07,0.90,12.07,0.90,-0.90,-0.86,-0.63,11.17,11.17,11.17
26.16,12.07,0.89,12.05,0.88,-0.88,-0.85,-0.65,11.18,11.17,11.18
26.43,12.07,0.89,12.04,0.87,-0.87,-0.83,-0.66,11.20,11.17,11.18
26.69,12.07,0.90,12.02,0.85,-0.85,-0.82,-0.68,11.22,11.17,11.17
26.96,12.07,0.90,12.01,0.84,-0.84,-0.80,-0.69,11.23,11.17,11.17
27.23,12.02,0.85,11.99,0.82,-0.82,-0.79,-0.70,11.20,11.17,11.17
27.50,11.97,0.80,11.97,0.80,-0.80,-0.78,-0.71,11.17,11.17,11.17
27.77,11.91,0.73,11.95,0.78,-0.78,-0.77,-0.73,11.12,11.17,11.17
28.05,11.87,0.70,11.94,0.77,-0.77,-0.75,-0.74,11.10,11.17,11.17
28.33,11.87,0.71,11.92,0.75,-0.75,-0.74,-0.75,11.12,11.17,11.16
28.62,11.87,0.71,11.90,0.74,-0.74,-0.73,-0.76,11.13,11.17,11.16
28.90,11.87,0.71,11.89,0.73,-0.73,-0.72,-0.77,11.14,11.16,11.16
29.19,11.87,0.71,11.87,0.71,-0.71,-0.71,-0.78,11.16,11.16,11.16
29.48,11.87,0.71,11.85,0.70,-0.70,-0.70,-0.78,11.17,11.16,11.16
29.78,11.87,0.72,11.83,0.68,-0.68,-0.70,-0.79,11.19,11.15,11.15
30.08,11.86,0.70,11.82,0.67,-0.67,-0.69,-0.80,11.18,11.14,11.16
30.38,11.84,0.69,11.81,0.67,-0.67,-0.68,-0.80,11.17,11.14,11.15
30.68,11.82,0.69,11.80,0.67,-0.67,-0.67,-0.81,11.15,11.13,11.13
30.99,11.80,0.67,11.78,0.66,-0.66,-0.67,-0.81,11.14,11.12,11.13
31.30,11.76,0.65,11.77,0.65,-0.65,-0.66,-0.81,11.11,11.12,11.11
31.61,11.72,0.61,11.75,0.64,-0.64,-0.66,-0.81,11.08,11.11,11.11
31.93,11.68,0.58,11.73,0.62,-0.62,-0.65,-0.81,11.06,11.10,11.10
32.24,11.67,0.58,11.70,0.61,-0.61,-0.65,-0.81,11.06,11.09,11.09
32.57,11.67,0.59,11.67,0.59,-0.59,-0.64,-0.81,11.08,11.09,11.08
32.89,11.67,0.60,11.65,0.57,-0.57,-0.64,-0.81,11.10,11.08,11.07
33.22,11.65,0.58,11.63,0.55,-0.55,-0.63,-0.80,11.09,11.07,11.07
33.55,11.63,0.57,11.61,0.54,-0.54,-0.63,-0.80,11.09,11.07,11.06
33.89,11.61,0.54,11.59,0.53,-0.53,-0.63,-0.80,11.08,11.06,11.07
34.23,11.57,0.52,11.57,0.51,-0.51,-0.63,-0.79,11.06,11.05,11.05
34.57,11.53,0.49,11.54,0.50,-0.50,-0.63,-0.78,11.03,11.05,11.04
34.92,11.48,0.44,11.52,0.48,-0.48,-0.62,-0.78,11.00,11.04,11.04
35.27,11.47,0.43,11.50,0.46,-0.46,-0.62,-0.77,11.00,11.03,11.04
35.62,11.47,0.44,11.47,0.45,-0.45,-0.62,-0.76,11.02,11.02,11.02
35.97,11.47,0.45,11.44,0.43,-0.43,-0.62,-0.76,11.03,11.01,11.02
36.33,11.45,0.45,11.42,0.43,-0.43,-0.62,-0.75,11.02,10.99,11.00
36.70,11.42,0.44,11.40,0.42,-0.42,-0.62,-0.74,11.00,10.98,10.98
37.06,11.39,0.42,11.38,0.42,-0.42,-0.62,-0.73,10.97,10.96,10.96
37.43,11.34,0.40,11.35,0.42,-0.42,-0.62,-0.72,10.92,10.94,10.94
37.81,11.29,0.37,11.33,0.42,-0.42,-0.63,-0.71,10.87,10.91,10.92
38.19,11.27,0.38,11.31,0.42,-0.42,-0.63,-0.71,10.85,10.89,10.89
38.57,11.27,0.41,11.29,0.43,-0.43,-0.63,-0.70,10.84,10.86,10.86
38.95,11.27,0.44,11.26,0.43,-0.43,-0.63,-0.69,10.84,10.83,10.83
39.34,11.26,0.47,11.23,0.43,-0.43,-0.64,-0.68,10.83,10.80,10.79
39.74,11.26,0.49,11.20,0.43,-0.43,-0.64,-0.68,10.83,10.77,10.77
40.14,11.22,0.48,11.17,0.43,-0.43,-0.64,-0.67,10.79,10.74,10.74
40.54,11.15,0.44,11.14,0.43,-0.43,-0.65,-0.66,10.72,10.71,10.71
40.94,11.07,0.39,11.11,0.43,-0.43,-0.65,-0.66,10.64,10.68,10.68
41.35,11.06,0.40,11.09,0.43,-0.43,-0.65,-0.65,10.63,10.65,10.66
41.76,11.07,0.45,11.05,0.43,-0.43,-0.66,-0.65,10.64,10.63,10.61
42.18,11.04,0.45,11.02,0.42,-0.42,-0.66,-0.64,10.62,10.60,10.59
42.60,10.97,0.40,10.98,0.41,-0.41,-0.67,-0.64,10.55,10.57,10.57
43.03,10.91,0.37,10.94,0.40,-0.40,-0.67,-0.63,10.51,10.54,10.54
43.46,10.89,0.39,10.90,0.40,-0.40,-0.68,-0.63,10.49,10.51,10.50
43.90,10.87,0.39,10.87,0.40,-0.40,-0.68,-0.63,10.47,10.48,10.48
44.33,10.86,0.42,10.84,0.40,-0.40,-0.69,-0.62,10.46,10.44,10.44
44.78,10.84,0.43,10.81,0.40,-0.40,-0.70,-0.62,10.44,10.41,10.41
45.23,10.79,0.40,10.78,0.40,-0.40,-0.70,-0.62,10.39,10.38,10.39
45.68,10.71,0.37,10.74,0.41,-0.41,-0.71,-0.62,10.30,10.34,10.34
46.13,10.66,0.36,10.71,0.41,-0.41,-0.72,-0.62,10.25,10.30,10.30
46.60,10.67,0.41,10.67,0.41,-0.41,-0.73,-0.62,10.25,10.26,10.26
47.06,10.67,0.45,10.64,0.42,-0.42,-0.73,-0.62,10.24,10.21,10.22
47.53,10.64,0.46,10.60,0.44,-0.44,-0.74,-0.62,10.20,10.17,10.18
48.01,10.61,0.49,10.57,0.45,-0.45,-0.75,-0.62,10.16,10.12,10.12
48.49,10.54,0.47,10.54,0.46,-0.46,-0.76,-0.62,10.08,10.07,10.07
48.97,10.46,0.44,10.50,0.48,-0.48,-0.77,-0.62,9.98,10.02,10.02
49.46,10.44,0.46,10.47,0.49,-0.49,-0.77,-0.62,9.95,9.97,9.98
49.96,10.42,0.51,10.43,0.51,-0.51,-0.78,-0.63,9.91,9.92,9.90
50.46,10.39,0.53,10.40,0.52,-0.52,-0.79,-0.63,9.86,9.87,9.86
50.96,10.36,0.54,10.36,0.54,-0.54,-0.80,-0.63,9.82,9.82,9.82
51.47,10.33,0.56,10.33,0.56,-0.56,-0.81,-0.64,9.77,9.77,9.77
51.99,10.29,0.57,10.29,0.57,-0.57,-0.82,-0.64,9.72,9.72,9.72
52.51,10.27,0.60,10.25,0.59,-0.59,-0.83,-0.65,9.68,9.66,9.67
53.03,10.26,0.63,10.22,0.60,-0.60,-0.84,-0.65,9.66,9.61,9.63
53.56,10.19,0.62,10.18,0.62,-0.62,-0.85,-0.66,9.57,9.56,9.57
54.10,10.12,0.61,10.15,0.64,-0.64,-0.87,-0.66,9.48,9.51,9.51
54.64,10.09,0.63,10.12,0.65,-0.65,-0.88,-0.67,9.44,9.46,9.46
55.18,10.05,0.65,10.08,0.66,-0.66,-0.89,-0.68,9.39,9.41,9.40
55.74,10.04,0.69,10.03,0.67,-0.67,-0.90,-0.68,9.37,9.37,9.35
56.29,10.01,0.70,9.99,0.67,-0.67,-0.91,-0.69,9.33,9.32,9.30
56.86,9.97,0.71,9.95,0.68,-0.68,-0.92,-0.70,9.29,9.27,9.26
57.42,9.92,0.72,9.90,0.69,-0.69,-0.94,-0.71,9.23,9.21,9.19
58.00,9.86,0.70,9.86,0.70,-0.70,-0.95,-0.71,9.16,9.16,9.16
58.58,9.83,0.71,9.82,0.72,-0.72,-0.96,-0.72,9.11,9.11,9.12
59.16,9.79,0.72,9.78,0.73,-0.73,-0.98,-0.73,9.06,9.05,9.07
59.76,9.74,0.72,9.74,0.75,-0.75,-0.99,-0.74,8.99,8.99,9.02
60.35,9.68,0.73,9.70,0.76,-0.76,-1.00,-0.75,8.91,8.93,8.95
60.96,9.61,0.72,9.65,0.78,-0.78,-1.02,-0.76,8.83,8.87,8.89
61.57,9.58,0.76,9.61,0.80,-0.80,-1.03,-0.77,8.78,8.81,8.81
62.18,9.56,0.82,9.56,0.82,-0.82,-1.05,-0.78,8.74,8.75,8.74
62.80,9.55,0.88,9.52,0.84,-0.84,-1.06,-0.79,8.71,8.68,8.66
63.43,9.51,0.91,9.48,0.86,-0.86,-1.08,-0.80,8.65,8.62,8.60
64.07,9.44,0.90,9.43,0.89,-0.89,-1.09,-0.81,8.55,8.55,8.54
64.71,9.39,0.92,9.39,0.91,-0.91,-1.11,-0.82,8.48,8.48,8.47
65.35,9.34,0.93,9.34,0.93,-0.93,-1.12,-0.83,8.40,8.41,8.41
66.01,9.30,0.96,9.29,0.95,-0.95,-1.14,-0.84,8.34,8.34,8.34
66.67,9.24,0.96,9.24,0.97,-0.97,-1.15,-0.85,8.27,8.27,8.28
67.33,9.19,0.99,9.19,0.99,-0.99,-1.17,-0.86,8.20,8.20,8.20
68.01,9.16,1.03,9.14,1.01,-1.01,-1.19,-0.88,8.15,8.13,8.13
68.69,9.10,1.04,9.09,1.03,-1.03,-1.20,-0.89,8.07,8.06,8.06
69.37,9.05,1.05,9.03,1.05,-1.05,-1.22,-0.90,8.00,7.99,8.00
70.07,8.98,1.06,8.98,1.07,-1.07,-1.24,-0.92,7.91,7.91,7.92
70.77,8.92,1.07,8.93,1.09,-1.09,-1.25,-0.93,7.83,7.84,7.85
71.48,8.86,1.09,8.89,1.12,-1.12,-1.27,-0.95,7.74,7.77,7.77
72.19,8.81,1.12,8.84,1.15,-1.15,-1.29,-0.96,7.66,7.69,7.69
72.91,8.76,1.14,8.79,1.17,-1.17,-1.31,-0.98,7.59,7.62,7.61
73.64,8.75,1.21,8.74,1.20,-1.20,-1.32,-1.00,7.55,7.55,7.54
74.38,8.72,1.25,8.69,1.22,-1.22,-1.34,-1.01,7.50,7.47,7.47
75.12,8.67,1.28,8.65,1.24,-1.24,-1.36,-1.03,7.42,7.41,7.39
75.87,8.61,1.28,8.61,1.27,-1.27,-1.38,-1.05,7.34,7.34,7.33
76.63,8.57,1.31,8.56,1.30,-1.30,-1.40,-1.07,7.27,7.27,7.26
77.40,8.53,1.33,8.52,1.32,-1.32,-1.42,-1.09,7.21,7.20,7.20
78.17,8.49,1.36,8.47,1.34,-1.34,-1.44,-1.11,7.15,7.13,7.12
78.95,8.43,1.36,8.42,1.36,-1.36,-1.46,-1.13,7.07,7.06,7.07
79.74,8.37,1.37,8.38,1.38,-1.38,-1.48,-1.16,6.99,7.00,7.00
80.54,8.30,1.36,8.33,1.39,-1.39,-1.50,-1.18,6.90,6.93,6.94
81.35,8.25,1.38,8.28,1.41,-1.41,-1.52,-1.21,6.84,6.86,6.87
82.16,8.25,1.44,8.23,1.43,-1.43,-1.54,-1.23,6.82,6.80,6.81
82.98,8.25,1.51,8.18,1.45,-1.45,-1.56,-1.26,6.80,6.73,6.74
83.81,8.12,1.46,8.13,1.47,-1.47,-1.58,-1.29,6.65,6.66,6.66
84.65,8.04,1.45,8.08,1.49,-1.49,-1.60,-1.32,6.55,6.59,6.59
85.50,7.99,1.48,8.03,1.51,-1.51,-1.62,-1.35,6.48,6.52,6.51
86.35,7.95,1.51,7.98,1.53,-1.53,-1.64,-1.38,6.42,6.45,6.44
87.22,7.95,1.57,7.93,1.56,-1.56,-1.66,-1.41,6.39,6.38,6.38
88.09,7.93,1.63,7.88,1.58,-1.58,-1.68,-1.45,6.35,6.30,6.30
88.97,7.85,1.62,7.84,1.61,-1.61,-1.71,-1.48,6.24,6.23,6.23
89.86,7.79,1.65,7.79,1.64,-1.64,-1.73,-1.52,6.15,6.15,6.14
90.76,7.74,1.67,7.73,1.66,-1.66,-1.75,-1.56,6.08,6.07,6.07
91.66,7.68,1.69,7.68,1.69,-1.69,-1.77,-1.59,5.99,5.99,5.98
92.58,7.60,1.69,7.63,1.72,-1.72,-1.79,-1.63,5.88,5.91,5.91
93.51,7.56,1.73,7.58,1.76,-1.76,-1.82,-1.67,5.80,5.82,5.83
94.44,7.53,1.78,7.53,1.79,-1.79,-1.84,-1.71,5.74,5.74,5.75
95.39,7.49,1.83,7.47,1.82,-1.82,-1.86,-1.76,5.67,5.65,5.66
96.34,7.42,1.85,7.41,1.85,-1.85,-1.88,-1.80,5.57,5.56,5.56
97.30,7.34,1.87,7.35,1.88,-1.88,-1.91,-1.84,5.46,5.47,5.47
98.28,7.30,1.92,7.29,1.91,-1.91,-1.93,-1.89,5.39,5.38,5.38
99.26,7.22,1.95,7.22,1.94,-1.94,-1.95,-1.93,5.28,5.28,5.27
100.25,7.18,2.00,7.15,1.96,-1.96,-1.97,-1.98,5.22,5.19,5.18
101.25,7.08,1.99,7.08,1.98,-1.98,-2.00,-2.03,5.10,5.09,5.09
102.27,7.03,2.03,7.00,2.00,-2.00,-2.02,-2.07,5.03,5.00,5.00
103.29,6.95,2.05,6.93,2.02,-2.02,-2.04,-2.12,4.93,4.90,4.90
104.32,6.87,2.05,6.85,2.04,-2.04,-2.07,-2.17,4.83,4.81,4.82
105.37,6.78,2.06,6.78,2.06,-2.06,-2.09,-2.22,4.72,4.72,4.72
106.42,6.68,2.05,6.70,2.08,-2.08,-2.11,-2.26,4.60,4.62,4.63
107.48,6.60,2.08,6.63,2.10,-2.10,-2.14,-2.31,4.50,4.53,4.52
108.56,6.51,2.06,6.55,2.11,-2.11,-2.16,-2.35,4.40,4.44,4.45
109.64,6.43,2.08,6.48,2.13,-2.13,-2.18,-2.40,4.30,4.35,4.35
110.74,6.40,2.14,6.41,2.15,-2.15,-2.21,-2.44,4.25,4.26,4.26
111.85,6.38,2.21,6.34,2.17,-2.17,-2.23,-2.49,4.20,4.17,4.17
112.97,6.32,2.23,6.28,2.20,-2.20,-2.25,-2.53,4.12,4.08,4.09
114.10,6.26,2.26,6.23,2.23,-2.23,-2.28,-2.57,4.03,3.99,4.00
115.24,6.18,2.27,6.17,2.26,-2.26,-2.30,-2.60,3.92,3.91,3.91
116.39,6.10,2.28,6.12,2.29,-2.29,-2.32,-2.64,3.81,3.83,3.82
117.55,6.01,2.27,6.07,2.32,-2.32,-2.35,-2.67,3.69,3.75,3.74
118.73,5.97,2.32,6.02,2.35,-2.35,-2.37,-2.70,3.62,3.67,3.65
119.92,5.98,2.40,5.97,2.38,-2.38,-2.39,-2.73,3.60,3.59,3.58
121.12,5.97,2.45,5.93,2.41,-2.41,-2.42,-2.75,3.56,3.51,3.52
122.33,5.91,2.47,5.88,2.44,-2.44,-2.44,-2.78,3.47,3.44,3.44
123.55,5.84,2.47,5.83,2.47,-2.47,-2.46,-2.79,3.37,3.36,3.37
124.79,5.79,2.49,5.78,2.49,-2.49,-2.49,-2.81,3.30,3.29,3.30
126.03,5.72,2.50,5.73,2.52,-2.52,-2.51,-2.82,3.20,3.21,3.22
127.29,5.66,2.51,5.69,2.55,-2.55,-2.53,-2.83,3.11,3.14,3.14
128.57,5.63,2.56,5.64,2.57,-2.57,-2.55,-2.84,3.06,3.07,3.07
129.85,5.63,2.64,5.60,2.60,-2.60,-2.57,-2.84,3.03,3.00,2.99
131.15,5.56,2.64,5.55,2.63,-2.63,-2.60,-2.85,2.93,2.92,2.92
132.46,5.50,2.65,5.50,2.65,-2.65,-2.62,-2.84,2.85,2.85,2.85
133.79,5.45,2.68,5.45,2.67,-2.67,-2.64,-2.84,2.78,2.78,2.77
135.12,5.39,2.69,5.39,2.69,-2.69,-2.66,-2.83,2.70,2.71,2.70
136.48,5.33,2.69,5.35,2.71,-2.71,-2.68,-2.83,2.62,2.64,2.64
137.84,5.26,2.69,5.30,2.74,-2.74,-2.70,-2.82,2.52,2.56,2.57
139.22,5.26,2.77,5.25,2.75,-2.75,-2.72,-2.81,2.50,2.49,2.49
140.61,5.26,2.83,5.19,2.77,-2.77,-2.74,-2.79,2.49,2.42,2.43
142.02,5.15,2.80,5.14,2.78,-2.78,-2.76,-2.78,2.37,2.36,2.35
143.44,5.09,2.81,5.08,2.80,-2.80,-2.78,-2.77,2.29,2.29,2.28
144.87,5.03,2.81,5.03,2.81,-2.81,-2.80,-2.75,2.22,2.22,2.22
146.32,4.97,2.81,4.98,2.83,-2.83,-2.82,-2.74,2.14,2.15,2.15
147.78,4.89,2.80,4.93,2.84,-2.84,-2.84,-2.72,2.05,2.08,2.08
149.26,4.86,2.84,4.88,2.86,-2.86,-2.86,-2.71,2.00,2.02,2.02
150.75,4.86,2.92,4.83,2.88,-2.88,-2.88,-2.70,1.98,1.95,1.94
152.26,4.77,2.89,4.77,2.89,-2.89,-2.90,-2.68,1.87,1.88,1.88
153.78,4.66,2.84,4.72,2.91,-2.91,-2.91,-2.67,1.75,1.81,1.82
155.32,4.66,2.91,4.67,2.93,-2.93,-2.93,-2.66,1.73,1.74,1.75
156.88,4.66,2.98,4.62,2.94,-2.94,-2.95,-2.65,1.71,1.67,1.68
158.44,4.59,2.98,4.57,2.96,-2.96,-2.96,-2.64,1.62,1.60,1.61
160.03,4.53,2.99,4.52,2.99,-2.99,-2.98,-2.63,1.54,1.53,1.54
161.63,4.46,2.99,4.47,3.01,-3.01,-2.99,-2.62,1.45,1.46,1.47
163.24,4.44,3.05,4.41,3.02,-3.02,-3.01,-2.62,1.42,1.39,1.39
164.88,4.37,3.05,4.35,3.03,-3.03,-3.02,-2.62,1.34,1.32,1.32
166.53,4.27,3.02,4.29,3.04,-3.04,-3.04,-2.62,1.23,1.25,1.25
168.19,4.24,3.05,4.24,3.05,-3.05,-3.05,-2.62,1.19,1.18,1.19
169.87,4.23,3.12,4.18,3.07,-3.07,-3.06,-2.62,1.16,1.11,1.11
171.57,4.13,3.09,4.13,3.08,-3.08,-3.08,-2.62,1.05,1.04,1.04
173.29,4.04,3.07,4.07,3.09,-3.09,-3.09,-2.63,0.95,0.98,0.97
175.02,4.01,3.10,4.01,3.10,-3.10,-3.10,-2.64,0.91,0.91,0.91
176.77,3.97,3.12,3.96,3.11,-3.11,-3.11,-2.65,0.86,0.85,0.85
178.54,3.84,3.06,3.91,3.12,-3.12,-3.12,-2.66,0.72,0.79,0.78
180.32,3.80,3.08,3.86,3.13,-3.13,-3.13,-2.68,0.67,0.72,0.72
182.13,3.81,3.15,3.81,3.14,-3.14,-3.14,-2.70,0.66,0.67,0.66
183.95,3.83,3.22,3.77,3.16,-3.16,-3.15,-2.72,0.67,0.61,0.61
185.79,3.76,3.21,3.72,3.17,-3.17,-3.15,-2.74,0.59,0.55,0.55
187.65,3.67,3.17,3.68,3.19,-3.19,-3.16,-2.76,0.48,0.49,0.50
189.52,3.67,3.23,3.65,3.20,-3.20,-3.17,-2.79,0.47,0.44,0.44
191.42,3.61,3.21,3.61,3.22,-3.22,-3.17,-2.81,0.39,0.39,0.40
193.33,3.52,3.18,3.58,3.24,-3.24,-3.18,-2.84,0.28,0.34,0.34
195.27,3.50,3.21,3.53,3.25,-3.25,-3.18,-2.87,0.25,0.29,0.29
197.22,3.52,3.29,3.50,3.26,-3.26,-3.19,-2.90,0.26,0.24,0.23
199.19,3.49,3.30,3.47,3.27,-3.27,-3.19,-2.94,0.22,0.19,0.19
201.18,3.44,3.30,3.42,3.28,-3.28,-3.19,-2.97,0.16,0.14,0.14
203.19,3.37,3.27,3.38,3.28,-3.28,-3.19,-3.01,0.09,0.10,0.10
205.23,3.35,3.29,3.34,3.29,-3.29,-3.19,-3.04,0.06,0.05,0.05
207.28,3.34,3.32,3.30,3.29,-3.29,-3.19,-3.08,0.05,0.00,0.01
209.35,3.27,3.30,3.26,3.30,-3.30,-3.19,-3.11,-0.03,-0.04,-0.03
211.44,3.17,3.25,3.21,3.29,-3.29,-3.19,-3.15,-0.12,-0.08,-0.08
213.56,3.13,3.25,3.17,3.29,-3.29,-3.19,-3.19,-0.16,-0.13,-0.12
215.69,3.13,3.29,3.12,3.29,-3.29,-3.19,-3.22,-0.16,-0.17,-0.17
217.85,3.13,3.33,3.07,3.28,-3.28,-3.18,-3.26,-0.15,-0.21,-0.20
220.03,3.01,3.26,3.01,3.26,-3.26,-3.18,-3.29,-0.25,-0.25,-0.26
222.23,2.94,3.23,2.96,3.25,-3.25,-3.17,-3.32,-0.31,-0.28,-0.29
224.45,2.92,3.24,2.92,3.24,-3.24,-3.17,-3.35,-0.32,-0.31,-0.32
226.70,2.90,3.25,2.88,3.22,-3.22,-3.16,-3.38,-0.32,-0.35,-0.35
228.96,2.82,3.20,2.83,3.20,-3.20,-3.15,-3.41,-0.38,-0.37,-0.38
231.25,2.77,3.17,2.78,3.18,-3.18,-3.15,-3.43,-0.41,-0.40,-0.40
233.57,2.74,3.17,2.75,3.17,-3.17,-3.14,-3.45,-0.43,-0.42,-0.43
235.90,2.71,3.16,2.71,3.15,-3.15,-3.13,-3.47,-0.44,-0.44,-0.45
238.26,2.65,3.11,2.68,3.13,-3.13,-3.12,-3.48,-0.48,-0.46,-0.47
240.64,2.60,3.06,2.64,3.11,-3.11,-3.11,-3.49,-0.51,-0.47,-0.46
243.05,2.60,3.08,2.60,3.09,-3.09,-3.09,-3.49,-0.49,-0.48,-0.48
245.48,2.62,3.12,2.58,3.07,-3.07,-3.08,-3.49,-0.45,-0.49,-0.50
247.93,2.56,3.07,2.55,3.06,-3.06,-3.07,-3.48,-0.50,-0.51,-0.51
250.41,2.48,2.99,2.52,3.03,-3.03,-3.05,-3.47,-0.55,-0.52,-0.51
252.92,2.48,2.99,2.48,3.01,-3.01,-3.04,-3.46,-0.53,-0.53,-0.52
255.45,2.49,3.03,2.45,2.99,-2.99,-3.02,-3.44,-0.50,-0.54,-0.54
258.00,2.48,3.02,2.42,2.97,-2.97,-3.00,-3.42,-0.49,-0.55,-0.54
260.58,2.38,2.94,2.38,2.95,-2.95,-2.99,-3.39,-0.57,-0.57,-0.56
263.19,2.31,2.88,2.34,2.92,-2.92,-2.97,-3.36,-0.61,-0.58,-0.57
265.82,2.30,2.89,2.30,2.90,-2.90,-2.95,-3.32,-0.60,-0.60,-0.59
268.48,2.30,2.90,2.26,2.87,-2.87,-2.93,-3.28,-0.57,-0.61,-0.61
271.16,2.26,2.89,2.22,2.84,-2.84,-2.91,-3.24,-0.59,-0.63,-0.63
273.87,2.13,2.77,2.18,2.82,-2.82,-2.88,-3.19,-0.69,-0.64,-0.64
276.61,2.09,2.75,2.14,2.79,-2.79,-2.86,-3.14,-0.70,-0.66,-0.66
279.38,2.09,2.78,2.10,2.77,-2.77,-2.84,-3.09,-0.68,-0.67,-0.69
282.17,2.10,2.79,2.06,2.74,-2.74,-2.81,-3.03,-0.64,-0.68,-0.69
284.99,2.03,2.73,2.02,2.71,-2.71,-2.79,-2.98,-0.68,-0.69,-0.70
287.84,1.92,2.62,1.99,2.69,-2.69,-2.76,-2.92,-0.77,-0.70,-0.70
290.72,1.92,2.64,1.96,2.66,-2.66,-2.74,-2.86,-0.75,-0.71,-0.72
293.63,1.93,2.65,1.92,2.64,-2.64,-2.71,-2.79,-0.71,-0.72,-0.72
296.57,1.94,2.66,1.89,2.61,-2.61,-2.68,-2.73,-0.67,-0.72,-0.72
299.53,1.87,2.59,1.85,2.58,-2.58,-2.66,-2.67,-0.71,-0.73,-0.72
302.53,1.83,2.55,1.83,2.56,-2.56,-2.63,-2.61,-0.73,-0.73,-0.72
305.55,1.79,2.52,1.79,2.53,-2.53,-2.60,-2.54,-0.74,-0.73,-0.73
308.61,1.78,2.51,1.76,2.50,-2.50,-2.57,-2.48,-0.72,-0.74,-0.73
311.69,1.73,2.47,1.72,2.46,-2.46,-2.54,-2.42,-0.73,-0.74,-0.74
314.81,1.68,2.42,1.68,2.43,-2.43,-2.50,-2.35,-0.75,-0.75,-0.74
317.96,1.62,2.38,1.65,2.40,-2.40,-2.47,-2.29,-0.78,-0.75,-0.76
321.14,1.60,2.35,1.62,2.37,-2.37,-2.44,-2.23,-0.77,-0.75,-0.75
324.35,1.60,2.36,1.58,2.33,-2.33,-2.40,-2.17,-0.73,-0.76,-0.76
327.59,1.56,2.31,1.53,2.29,-2.29,-2.37,-2.11,-0.73,-0.76,-0.76
330.87,1.50,2.26,1.48,2.25,-2.25,-2.34,-2.05,-0.75,-0.77,-0.76
334.18,1.41,2.19,1.44,2.21,-2.21,-2.30,-2.00,-0.80,-0.77,-0.78
337.52,1.39,2.16,1.40,2.17,-2.17,-2.26,-1.94,-0.78,-0.77,-0.77
340.90,1.39,2.17,1.36,2.13,-2.13,-2.23,-1.89,-0.75,-0.77,-0.78
344.30,1.34,2.11,1.32,2.09,-2.09,-2.19,-1.83,-0.75,-0.77,-0.77
347.75,1.30,2.06,1.28,2.05,-2.05,-2.15,-1.78,-0.75,-0.77,-0.77
351.23,1.24,2.02,1.24,2.01,-2.01,-2.12,-1.73,-0.77,-0.77,-0.78
354.74,1.18,1.94,1.21,1.97,-1.97,-2.08,-1.68,-0.79,-0.76,-0.76
358.28,1.11,1.88,1.17,1.93,-1.93,-2.04,-1.64,-0.82,-0.76,-0.77
361.87,1.10,1.86,1.13,1.89,-1.89,-2.00,-1.59,-0.79,-0.76,-0.76
365.49,1.10,1.86,1.10,1.86,-1.86,-1.96,-1.54,-0.76,-0.76,-0.76
369.14,1.11,1.86,1.06,1.82,-1.82,-1.92,-1.50,-0.71,-0.75,-0.75
372.83,1.08,1.82,1.03,1.78,-1.78,-1.88,-1.46,-0.70,-0.75,-0.74
376.56,0.97,1.72,0.99,1.74,-1.74,-1.84,-1.42,-0.77,-0.75,-0.75
380.33,0.93,1.68,0.95,1.70,-1.70,-1.79,-1.38,-0.77,-0.75,-0.75
384.13,0.94,1.68,0.92,1.67,-1.67,-1.75,-1.34,-0.73,-0.75,-0.74
387.97,0.89,1.64,0.88,1.64,-1.64,-1.71,-1.30,-0.75,-0.76,-0.75
391.85,0.86,1.61,0.85,1.60,-1.60,-1.67,-1.26,-0.74,-0.76,-0.75
395.77,0.84,1.60,0.80,1.57,-1.57,-1.63,-1.23,-0.73,-0.76,-0.76
399.73,0.78,1.54,0.76,1.53,-1.53,-1.58,-1.19,-0.75,-0.77,-0.76
403.72,0.70,1.46,0.72,1.49,-1.49,-1.54,-1.16,-0.79,-0.78,-0.76
407.76,0.65,1.43,0.68,1.46,-1.46,-1.50,-1.13,-0.81,-0.78,-0.78
411.84,0.64,1.42,0.63,1.42,-1.42,-1.45,-1.10,-0.78,-0.78,-0.78
415.96,0.64,1.42,0.60,1.39,-1.39,-1.41,-1.07,-0.75,-0.79,-0.78
420.12,0.62,1.42,0.57,1.36,-1.36,-1.36,-1.04,-0.74,-0.78,-0.80
424.32,0.49,1.28,0.54,1.32,-1.32,-1.32,-1.01,-0.83,-0.77,-0.79
428.56,0.46,1.23,0.52,1.28,-1.28,-1.27,-0.98,-0.82,-0.76,-0.77
432.85,0.47,1.22,0.50,1.25,-1.25,-1.23,-0.95,-0.78,-0.74,-0.75
437.18,0.49,1.23,0.50,1.22,-1.22,-1.18,-0.92,-0.73,-0.72,-0.74
441.55,0.51,1.22,0.50,1.19,-1.19,-1.14,-0.90,-0.68,-0.69,-0.71
445.96,0.49,1.16,0.51,1.16,-1.16,-1.09,-0.87,-0.67,-0.65,-0.67
450.42,0.49,1.12,0.52,1.13,-1.13,-1.05,-0.84,-0.64,-0.61,-0.63
454.93,0.49,1.07,0.52,1.09,-1.09,-1.00,-0.82,-0.60,-0.56,-0.58
459.48,0.54,1.06,0.53,1.04,-1.04,-0.96,-0.79,-0.50,-0.51,-0.52
464.07,0.53,0.98,0.55,1.01,-1.01,-0.91,-0.77,-0.48,-0.46,-0.45
468.71,0.57,0.97,0.56,0.97,-0.97,-0.87,-0.74,-0.40,-0.41,-0.41
473.40,0.62,0.97,0.58,0.93,-0.93,-0.82,-0.72,-0.32,-0.35,-0.35
478.13,0.66,0.95,0.59,0.89,-0.89,-0.78,-0.69,-0.23,-0.30,-0.29
482.91,0.64,0.88,0.59,0.84,-0.84,-0.73,-0.67,-0.20,-0.25,-0.24
