frequency,raw,error,smoothed,error_smoothed,equalization,parametric_eq,fixed_band_eq,equalized_raw,equalized_smoothed,target
20.00,12.27,2.69,12.31,2.73,-2.73,-2.32,-1.05,9.54,9.58,9.58
20.20,12.27,2.70,12.30,2.72,-2.72,-2.32,-1.08,9.55,9.57,9.57
20.40,12.27,2.71,12.28,2.71,-2.71,-2.32,-1.11,9.56,9.56,9.56
20.61,12.27,2.71,12.26,2.71,-2.71,-2.32,-1.14,9.56,9.55,9.56
20.81,12.27,2.73,12.24,2.70,-2.70,-2.32,-1.18,9.57,9.55,9.54
21.02,12.27,2.73,12.23,2.69,-2.69,-2.32,-1.21,9.58,9.54,9.54
21.23,12.25,2.72,12.21,2.68,-2.68,-2.32,-1.25,9.57,9.53,9.53
21.44,12.23,2.69,12.20,2.67,-2.67,-2.32,-1.29,9.56,9.52,9.54
21.66,12.20,2.67,12.18,2.67,-2.67,-2.32,-1.32,9.53,9.52,9.53
21.87,12.18,2.66,12.17,2.66,-2.66,-2.32,-1.36,9.52,9.51,9.52
22.09,12.16,2.65,12.16,2.65,-2.65,-2.32,-1.40,9.51,9.51,9.51
22.31,12.14,2.63,12.14,2.64,-2.64,-2.32,-1.45,9.50,9.50,9.51
22.54,12.12,2.62,12.13,2.63,-2.63,-2.32,-1.49,9.49,9.50,9.50
22.76,12.09,2.60,12.11,2.62,-2.62,-2.32,-1.53,9.47,9.49,9.49
22.99,12.07,2.59,12.10,2.61,-2.61,-2.32,-1.58,9.46,9.49,9.48
23.22,12.07,2.60,12.08,2.60,-2.60,-2.32,-1.62,9.47,9.49,9.47
23.45,12.07,2.59,12.08,2.59,-2.59,-2.32,-1.67,9.47,9.48,9.48
23.69,12.07,2.60,12.07,2.59,-2.59,-2.32,-1.72,9.48,9.48,9.47
23.92,12.07,2.60,12.07,2.59,-2.59,-2.32,-1.77,9.48,9.48,9.47
24.16,12.07,2.59,12.06,2.59,-2.59,-2.32,-1.82,9.48,9.48,9.48
24.40,12.07,2.58,12.07,2.59,-2.59,-2.32,-1.87,9.48,9.48,9.49
24.65,12.07,2.58,12.07,2.59,-2.59,-2.32,-1.92,9.48,9.48,9.49
24.89,12.07,2.58,12.08,2.59,-2.59,-2.32,-1.97,9.48,9.48,9.49
25.14,12.07,2.59,12.08,2.60,-2.60,-2.32,-2.02,9.47,9.48,9.48
25.39,12.07,2.59,12.08,2.59,-2.59,-2.32,-2.07,9.48,9.49,9.48
25.65,12.07,2.59,12.08,2.59,-2.59,-2.32,-2.13,9.48,9.49,9.48
25.91,12.07,2.58,12.07,2.58,-2.58,-2.32,-2.18,9.49,9.49,9.49
26.16,12.07,2.57,12.05,2.56,-2.56,-2.32,-2.23,9.51,9.49,9.50
26.43,12.07,2.57,12.04,2.55,-2.55,-2.32,-2.28,9.52,9.49,9.50
26.69,12.07,2.57,12.02,2.53,-2.53,-2.32,-2.33,9.54,9.49,9.50
26.96,12.07,2.58,12.01,2.52,-2.52,-2.32,-2.38,9.55,9.49,9.49
27.23,12.02,2.53,11.99,2.50,-2.50,-2.32,-2.43,9.52,9.49,9.49
27.50,11.97,2.48,11.97,2.48,-2.48,-2.32,-2.48,9.49,9.49,9.49
27.77,11.91,2.41,11.95,2.46,-2.46,-2.32,-2.52,9.45,9.49,9.50
28.05,11.87,2.37,11.94,2.44,-2.44,-2.32,-2.57,9.43,9.49,9.50
28.33,11.87,2.39,11.92,2.43,-2.43,-2.32,-2.61,9.44,9.49,9.48
28.62,11.87,2.39,11.90,2.41,-2.41,-2.32,-2.65,9.46,9.49,9.48
28.90,11.87,2.38,11.89,2.40,-2.40,-2.32,-2.69,9.47,9.49,9.49
29.19,11.87,2.38,11.87,2.38,-2.38,-2.32,-2.72,9.49,9.49,9.49
29.48,11.87,2.39,11.85,2.37,-2.37,-2.32,-2.75,9.50,9.48,9.48
29.78,11.87,2.39,11.83,2.36,-2.36,-2.32,-2.78,9.51,9.48,9.48
30.08,11.86,2.37,11.82,2.35,-2.35,-2.32,-2.81,9.51,9.47,9.49
30.38,11.84,2.36,11.81,2.34,-2.34,-2.32,-2.83,9.50,9.47,9.48
30.68,11.82,2.36,11.80,2.33,-2.33,-2.32,-2.85,9.48,9.46,9.46
30.99,11.80,2.34,11.78,2.33,-2.33,-2.32,-2.86,9.47,9.46,9.46
31.30,11.76,2.31,11.77,2.32,-2.32,-2.32,-2.87,9.44,9.45,9.45
31.61,11.72,2.28,11.75,2.31,-2.31,-2.32,-2.88,9.41,9.44,9.44
31.93,11.68,2.25,11.73,2.29,-2.29,-2.32,-2.88,9.39,9.44,9.43
32.24,11.67,2.24,11.70,2.27,-2.27,-2.31,-2.88,9.40,9.43,9.43
32.57,11.67,2.26,11.67,2.25,-2.25,-2.31,-2.88,9.42,9.42,9.41
32.89,11.67,2.26,11.65,2.23,-2.23,-2.31,-2.87,9.44,9.42,9.41
33.22,11.65,2.24,11.63,2.22,-2.22,-2.31,-2.86,9.43,9.41,9.41
33.55,11.63,2.23,11.61,2.20,-2.20,-2.31,-2.84,9.43,9.41,9.40
33.89,11.61,2.20,11.59,2.18,-2.18,-2.31,-2.83,9.42,9.40,9.41
34.23,11.57,2.18,11.57,2.17,-2.17,-2.31,-2.81,9.40,9.40,9.39
34.57,11.53,2.14,11.54,2.15,-2.15,-2.31,-2.78,9.38,9.39,9.39
34.92,11.48,2.10,11.52,2.13,-2.13,-2.31,-2.76,9.34,9.39,9.38
35.27,11.47,2.08,11.50,2.12,-2.12,-2.31,-2.73,9.35,9.38,9.39
35.62,11.47,2.10,11.47,2.10,-2.10,-2.31,-2.71,9.37,9.37,9.37
35.97,11.47,2.10,11.44,2.08,-2.08,-2.31,-2.68,9.38,9.36,9.37
36.33,11.45,2.10,11.42,2.07,-2.07,-2.31,-2.65,9.38,9.35,9.35
36.70,11.42,2.08,11.40,2.07,-2.07,-2.31,-2.62,9.35,9.33,9.34
37.06,11.39,2.07,11.38,2.07,-2.07,-2.31,-2.59,9.32,9.31,9.32
37.43,11.34,2.04,11.35,2.06,-2.06,-2.31,-2.56,9.28,9.29,9.30
37.81,11.29,2.01,11.33,2.06,-2.06,-2.31,-2.53,9.23,9.27,9.28
38.19,11.27,2.02,11.31,2.06,-2.06,-2.31,-2.50,9.21,9.25,9.25
38.57,11.27,2.04,11.29,2.06,-2.06,-2.31,-2.47,9.21,9.22,9.23
38.95,11.27,2.07,11.26,2.07,-2.07,-2.31,-2.44,9.20,9.20,9.20
39.34,11.26,2.10,11.23,2.06,-2.06,-2.31,-2.41,9.20,9.17,9.16
39.74,11.26,2.12,11.20,2.06,-2.06,-2.31,-2.38,9.20,9.15,9.14
40.14,11.22,2.11,11.17,2.05,-2.05,-2.31,-2.35,9.17,9.12,9.11
40.54,11.15,2.06,11.14,2.05,-2.05,-2.31,-2.33,9.10,9.09,9.09
40.94,11.07,2.01,11.11,2.05,-2.05,-2.31,-2.30,9.02,9.06,9.06
41.35,11.06,2.02,11.09,2.05,-2.05,-2.31,-2.28,9.01,9.04,9.04
41.76,11.07,2.07,11.05,2.05,-2.05,-2.31,-2.26,9.02,9.01,9.00
42.18,11.04,2.06,11.02,2.04,-2.04,-2.31,-2.24,9.00,8.98,8.98
42.60,10.97,2.01,10.98,2.02,-2.02,-2.31,-2.22,8.94,8.96,8.96
43.03,10.91,1.98,10.94,2.01,-2.01,-2.31,-2.20,8.90,8.93,8.93
43.46,10.89,1.99,10.90,2.00,-2.00,-2.31,-2.18,8.89,8.90,8.90
43.90,10.87,1.99,10.87,2.00,-2.00,-2.31,-2.17,8.87,8.88,8.88
44.33,10.86,2.02,10.84,1.99,-1.99,-2.31,-2.16,8.86,8.84,8.84
44.78,10.84,2.03,10.81,1.99,-1.99,-2.31,-2.14,8.85,8.81,8.81
45.23,10.79,1.99,10.78,1.99,-1.99,-2.31,-2.13,8.79,8.78,8.80
45.68,10.71,1.96,10.74,2.00,-2.00,-2.31,-2.13,8.71,8.75,8.75
46.13,10.66,1.95,10.71,2.00,-2.00,-2.31,-2.12,8.66,8.71,8.71
46.60,10.67,1.99,10.67,2.00,-2.00,-2.31,-2.11,8.67,8.67,8.68
47.06,10.67,2.03,10.64,2.00,-2.00,-2.31,-2.11,8.67,8.63,8.64
47.53,10.64,2.03,10.60,2.01,-2.01,-2.31,-2.11,8.63,8.59,8.61
48.01,10.61,2.06,10.57,2.02,-2.02,-2.31,-2.11,8.59,8.55,8.55
48.49,10.54,2.04,10.54,2.03,-2.03,-2.31,-2.11,8.51,8.50,8.50
48.97,10.46,2.00,10.50,2.04,-2.04,-2.31,-2.11,8.42,8.46,8.46
49.46,10.44,2.02,10.47,2.05,-2.05,-2.31,-2.12,8.39,8.42,8.42
49.96,10.42,2.07,10.43,2.06,-2.06,-2.31,-2.12,8.36,8.37,8.35
50.46,10.39,2.08,10.40,2.07,-2.07,-2.31,-2.13,8.31,8.32,8.31
50.96,10.36,2.09,10.36,2.09,-2.09,-2.31,-2.13,8.27,8.28,8.27
51.47,10.33,2.10,10.33,2.10,-2.10,-2.31,-2.14,8.23,8.23,8.23
51.99,10.29,2.11,10.29,2.11,-2.11,-2.31,-2.15,8.18,8.18,8.18
52.51,10.27,2.13,10.25,2.12,-2.12,-2.31,-2.16,8.15,8.13,8.14
53.03,10.26,2.15,10.22,2.13,-2.13,-2.31,-2.17,8.13,8.09,8.11
53.56,10.19,2.14,10.18,2.14,-2.14,-2.31,-2.18,8.05,8.04,8.05
54.10,10.12,2.12,10.15,2.15,-2.15,-2.31,-2.19,7.97,8.00,8.00
54.64,10.09,2.13,10.12,2.16,-2.16,-2.31,-2.21,7.93,7.96,7.96
55.18,10.05,2.15,10.08,2.16,-2.16,-2.31,-2.22,7.89,7.91,7.90
55.74,10.04,2.19,10.03,2.16,-2.16,-2.32,-2.23,7.88,7.87,7.85
56.29,10.01,2.19,9.99,2.16,-2.16,-2.32,-2.24,7.85,7.83,7.82
56.86,9.97,2.19,9.95,2.16,-2.16,-2.32,-2.25,7.81,7.79,7.78
57.42,9.92,2.20,9.90,2.17,-2.17,-2.32,-2.26,7.75,7.74,7.72
58.00,9.86,2.17,9.86,2.17,-2.17,-2.32,-2.27,7.69,7.69,7.69
58.58,9.83,2.17,9.82,2.18,-2.18,-2.32,-2.28,7.65,7.65,7.66
59.16,9.79,2.17,9.78,2.18,-2.18,-2.32,-2.29,7.61,7.60,7.62
59.76,9.74,2.16,9.74,2.19,-2.19,-2.32,-2.30,7.55,7.55,7.58
60.35,9.68,2.17,9.70,2.20,-2.20,-2.32,-2.31,7.48,7.50,7.51
60.96,9.61,2.15,9.65,2.21,-2.21,-2.33,-2.31,7.40,7.44,7.46
61.57,9.58,2.19,9.61,2.22,-2.22,-2.33,-2.32,7.36,7.39,7.39
62.18,9.56,2.24,9.56,2.23,-2.23,-2.33,-2.32,7.33,7.33,7.32
62.80,9.55,2.29,9.52,2.25,-2.25,-2.33,-2.32,7.30,7.27,7.26
63.43,9.51,2.31,9.48,2.26,-2.26,-2.33,-2.32,7.25,7.22,7.20
64.07,9.44,2.29,9.43,2.28,-2.28,-2.34,-2.32,7.16,7.16,7.15
64.71,9.39,2.30,9.39,2.29,-2.29,-2.34,-2.32,7.10,7.10,7.09
65.35,9.34,2.31,9.34,2.31,-2.31,-2.34,-2.32,7.03,7.03,7.03
66.01,9.30,2.33,9.29,2.32,-2.32,-2.34,-2.32,6.98,6.97,6.97
66.67,9.24,2.31,9.24,2.33,-2.33,-2.34,-2.31,6.91,6.91,6.93
67.33,9.19,2.34,9.19,2.34,-2.34,-2.35,-2.31,6.85,6.85,6.85
68.01,9.16,2.36,9.14,2.35,-2.35,-2.35,-2.30,6.81,6.79,6.80
68.69,9.10,2.37,9.09,2.36,-2.36,-2.35,-2.30,6.74,6.73,6.73
69.37,9.05,2.37,9.03,2.37,-2.37,-2.36,-2.29,6.68,6.67,6.68
70.07,8.98,2.37,8.98,2.38,-2.38,-2.36,-2.28,6.60,6.61,6.61
70.77,8.92,2.37,8.93,2.39,-2.39,-2.36,-2.28,6.53,6.54,6.55
71.48,8.86,2.38,8.89,2.41,-2.41,-2.36,-2.27,6.45,6.48,6.48
72.19,8.81,2.40,8.84,2.43,-2.43,-2.37,-2.27,6.38,6.41,6.41
72.91,8.76,2.41,8.79,2.44,-2.44,-2.37,-2.26,6.32,6.35,6.35
73.64,8.75,2.47,8.74,2.46,-2.46,-2.38,-2.25,6.29,6.29,6.28
74.38,8.72,2.50,8.69,2.47,-2.47,-2.38,-2.25,6.25,6.23,6.22
75.12,8.67,2.52,8.65,2.48,-2.48,-2.38,-2.24,6.19,6.17,6.15
75.87,8.61,2.50,8.61,2.50,-2.50,-2.39,-2.24,6.11,6.11,6.11
76.63,8.57,2.53,8.56,2.51,-2.51,-2.39,-2.24,6.05,6.05,6.04
77.40,8.53,2.54,8.52,2.53,-2.53,-2.40,-2.24,6.00,5.99,5.99
78.17,8.49,2.56,8.47,2.54,-2.54,-2.40,-2.24,5.95,5.94,5.93
78.95,8.43,2.54,8.42,2.54,-2.54,-2.41,-2.24,5.89,5.88,5.89
79.74,8.37,2.54,8.38,2.55,-2.55,-2.41,-2.24,5.82,5.83,5.83
80.54,8.30,2.53,8.33,2.56,-2.56,-2.42,-2.25,5.74,5.77,5.77
81.35,8.25,2.53,8.28,2.56,-2.56,-2.42,-2.25,5.69,5.72,5.72
82.16,8.25,2.58,8.23,2.57,-2.57,-2.43,-2.26,5.68,5.66,5.67
82.98,8.25,2.64,8.18,2.58,-2.58,-2.44,-2.27,5.67,5.60,5.61
83.81,8.12,2.57,8.13,2.58,-2.58,-2.44,-2.28,5.53,5.55,5.55
84.65,8.04,2.55,8.08,2.59,-2.59,-2.45,-2.29,5.45,5.49,5.49
85.50,7.99,2.57,8.03,2.60,-2.60,-2.46,-2.30,5.39,5.43,5.42
86.35,7.95,2.59,7.98,2.61,-2.61,-2.46,-2.32,5.34,5.37,5.36
87.22,7.95,2.64,7.93,2.62,-2.62,-2.47,-2.34,5.32,5.31,5.31
88.09,7.93,2.69,7.88,2.64,-2.64,-2.48,-2.35,5.29,5.25,5.24
88.97,7.85,2.66,7.84,2.65,-2.65,-2.49,-2.38,5.20,5.18,5.19
89.86,7.79,2.68,7.79,2.67,-2.67,-2.49,-2.40,5.12,5.12,5.11
90.76,7.74,2.69,7.73,2.68,-2.68,-2.50,-2.42,5.06,5.05,5.05
91.66,7.68,2.70,7.68,2.70,-2.70,-2.51,-2.45,4.98,4.98,4.98
92.58,7.60,2.68,7.63,2.72,-2.72,-2.52,-2.48,4.88,4.91,4.92
93.51,7.56,2.71,7.58,2.74,-2.74,-2.53,-2.51,4.82,4.84,4.85
94.44,7.53,2.75,7.53,2.76,-2.76,-2.54,-2.54,4.77,4.77,4.78
95.39,7.49,2.79,7.47,2.78,-2.78,-2.55,-2.57,4.71,4.69,4.70
96.34,7.42,2.80,7.41,2.80,-2.80,-2.56,-2.60,4.62,4.61,4.62
97.30,7.34,2.80,7.35,2.82,-2.82,-2.57,-2.64,4.52,4.53,4.54
98.28,7.30,2.85,7.29,2.83,-2.83,-2.58,-2.68,4.47,4.45,4.45
99.26,7.22,2.86,7.22,2.85,-2.85,-2.59,-2.72,4.37,4.37,4.36
100.25,7.18,2.90,7.15,2.86,-2.86,-2.60,-2.76,4.32,4.29,4.28
101.25,7.08,2.87,7.08,2.87,-2.87,-2.61,-2.80,4.21,4.21,4.21
102.27,7.03,2.91,7.00,2.88,-2.88,-2.62,-2.84,4.15,4.13,4.12
103.29,6.95,2.91,6.93,2.89,-2.89,-2.64,-2.88,4.06,4.04,4.04
104.32,6.87,2.90,6.85,2.89,-2.89,-2.65,-2.92,3.98,3.96,3.97
105.37,6.78,2.89,6.78,2.90,-2.90,-2.66,-2.96,3.88,3.88,3.89
106.42,6.68,2.88,6.70,2.90,-2.90,-2.67,-3.01,3.78,3.80,3.80
107.48,6.60,2.89,6.63,2.91,-2.91,-2.69,-3.05,3.69,3.72,3.71
108.56,6.51,2.86,6.55,2.91,-2.91,-2.70,-3.09,3.60,3.64,3.65
109.64,6.43,2.87,6.48,2.91,-2.91,-2.71,-3.13,3.52,3.56,3.56
110.74,6.40,2.92,6.41,2.92,-2.92,-2.73,-3.17,3.48,3.49,3.48
111.85,6.38,2.97,6.34,2.93,-2.93,-2.74,-3.21,3.44,3.41,3.41
112.97,6.32,2.98,6.28,2.95,-2.95,-2.76,-3.25,3.37,3.33,3.34
114.10,6.26,2.99,6.23,2.97,-2.97,-2.77,-3.28,3.29,3.26,3.27
115.24,6.18,2.99,6.17,2.98,-2.98,-2.79,-3.31,3.20,3.19,3.19
116.39,6.10,2.99,6.12,3.00,-3.00,-2.81,-3.34,3.10,3.12,3.11
117.55,6.01,2.96,6.07,3.01,-3.01,-2.82,-3.37,2.99,3.05,3.05
118.73,5.97,3.00,6.02,3.03,-3.03,-2.84,-3.40,2.94,2.99,2.97
119.92,5.98,3.07,5.97,3.05,-3.05,-2.85,-3.42,2.93,2.92,2.91
121.12,5.97,3.11,5.93,3.07,-3.07,-2.87,-3.44,2.90,2.86,2.86
122.33,5.91,3.12,5.88,3.09,-3.09,-2.89,-3.45,2.82,2.79,2.79
123.55,5.84,3.10,5.83,3.10,-3.10,-2.91,-3.47,2.74,2.73,2.74
124.79,5.79,3.11,5.78,3.11,-3.11,-2.92,-3.48,2.68,2.67,2.68
126.03,5.72,3.11,5.73,3.12,-3.12,-2.94,-3.48,2.59,2.60,2.61
127.29,5.66,3.11,5.69,3.14,-3.14,-2.96,-3.48,2.52,2.54,2.55
128.57,5.63,3.14,5.64,3.16,-3.16,-2.98,-3.48,2.47,2.49,2.49
129.85,5.63,3.21,5.60,3.17,-3.17,-3.00,-3.48,2.46,2.43,2.42
131.15,5.56,3.20,5.55,3.19,-3.19,-3.02,-3.47,2.37,2.37,2.36
132.46,5.50,3.20,5.50,3.20,-3.20,-3.03,-3.46,2.30,2.31,2.30
133.79,5.45,3.21,5.45,3.20,-3.20,-3.05,-3.44,2.25,2.25,2.24
135.12,5.39,3.21,5.39,3.21,-3.21,-3.07,-3.43,2.18,2.19,2.18
136.48,5.33,3.19,5.35,3.22,-3.22,-3.09,-3.41,2.11,2.13,2.14
137.84,5.26,3.18,5.30,3.23,-3.23,-3.11,-3.39,2.03,2.07,2.08
139.22,5.26,3.26,5.25,3.24,-3.24,-3.13,-3.36,2.02,2.01,2.00
140.61,5.26,3.30,5.19,3.24,-3.24,-3.15,-3.34,2.02,1.95,1.96
142.02,5.15,3.25,5.14,3.24,-3.24,-3.17,-3.31,1.91,1.90,1.90
143.44,5.09,3.26,5.08,3.24,-3.24,-3.19,-3.29,1.85,1.84,1.83
144.87,5.03,3.25,5.03,3.25,-3.25,-3.20,-3.26,1.78,1.78,1.78
146.32,4.97,3.24,4.98,3.25,-3.25,-3.22,-3.23,1.72,1.73,1.73
147.78,4.89,3.22,4.93,3.25,-3.25,-3.24,-3.20,1.64,1.67,1.67
149.26,4.86,3.24,4.88,3.26,-3.26,-3.26,-3.18,1.60,1.62,1.62
150.75,4.86,3.31,4.83,3.27,-3.27,-3.28,-3.15,1.59,1.56,1.55
152.26,4.77,3.26,4.77,3.27,-3.27,-3.30,-3.12,1.50,1.50,1.51
153.78,4.66,3.21,4.72,3.27,-3.27,-3.31,-3.10,1.38,1.45,1.45
155.32,4.66,3.26,4.67,3.28,-3.28,-3.33,-3.07,1.38,1.39,1.40
156.88,4.66,3.32,4.62,3.28,-3.28,-3.35,-3.05,1.37,1.33,1.34
158.44,4.59,3.31,4.57,3.29,-3.29,-3.36,-3.03,1.29,1.27,1.28
160.03,4.53,3.31,4.52,3.31,-3.31,-3.38,-3.01,1.22,1.22,1.22
161.63,4.46,3.30,4.47,3.31,-3.31,-3.39,-2.99,1.15,1.16,1.16
163.24,4.44,3.35,4.41,3.32,-3.32,-3.41,-2.98,1.12,1.10,1.09
164.88,4.37,3.33,4.35,3.32,-3.32,-3.42,-2.96,1.05,1.04,1.04
166.53,4.27,3.30,4.29,3.32,-3.32,-3.43,-2.95,0.95,0.97,0.97
168.19,4.24,3.32,4.24,3.32,-3.32,-3.45,-2.94,0.92,0.91,0.92
169.87,4.23,3.37,4.18,3.33,-3.33,-3.46,-2.93,0.90,0.85,0.86
171.57,4.13,3.34,4.13,3.33,-3.33,-3.47,-2.92,0.80,0.79,0.79
173.29,4.04,3.31,4.07,3.33,-3.33,-3.48,-2.92,0.71,0.74,0.73
175.02,4.01,3.33,4.01,3.33,-3.33,-3.49,-2.92,0.68,0.68,0.68
176.77,3.97,3.34,3.96,3.33,-3.33,-3.49,-2.92,0.64,0.63,0.63
178.54,3.84,3.27,3.91,3.33,-3.33,-3.50,-2.92,0.51,0.57,0.57
180.32,3.80,3.29,3.86,3.34,-3.34,-3.51,-2.93,0.46,0.52,0.51
182.13,3.81,3.34,3.81,3.34,-3.34,-3.51,-2.93,0.47,0.47,0.47
183.95,3.83,3.41,3.77,3.35,-3.35,-3.52,-2.94,0.48,0.42,0.42
185.79,3.76,3.39,3.72,3.35,-3.35,-3.52,-2.95,0.41,0.37,0.37
187.65,3.67,3.34,3.68,3.36,-3.36,-3.52,-2.97,0.31,0.33,0.33
189.52,3.67,3.39,3.65,3.36,-3.36,-3.52,-2.98,0.30,0.28,0.28
191.42,3.61,3.36,3.61,3.38,-3.38,-3.52,-3.00,0.23,0.24,0.25
193.33,3.52,3.32,3.58,3.38,-3.38,-3.52,-3.02,0.14,0.19,0.20
195.27,3.50,3.35,3.53,3.38,-3.38,-3.51,-3.04,0.12,0.15,0.15
197.22,3.52,3.42,3.50,3.39,-3.39,-3.51,-3.07,0.13,0.11,0.10
199.19,3.49,3.42,3.47,3.40,-3.40,-3.50,-3.09,0.09,0.07,0.07
201.18,3.44,3.42,3.42,3.40,-3.40,-3.49,-3.12,0.04,0.03,0.02
203.19,3.37,3.38,3.38,3.39,-3.39,-3.48,-3.14,-0.02,-0.01,-0.01
205.23,3.35,3.40,3.34,3.39,-3.39,-3.47,-3.17,-0.04,-0.05,-0.05
207.28,3.34,3.42,3.30,3.39,-3.39,-3.46,-3.20,-0.05,-0.09,-0.08
209.35,3.27,3.39,3.26,3.39,-3.39,-3.45,-3.23,-0.12,-0.13,-0.12
211.44,3.17,3.34,3.21,3.38,-3.38,-3.43,-3.26,-0.21,-0.17,-0.17
213.56,3.13,3.33,3.17,3.37,-3.37,-3.42,-3.29,-0.24,-0.21,-0.20
215.69,3.13,3.37,3.12,3.36,-3.36,-3.40,-3.31,-0.23,-0.24,-0.24
217.85,3.13,3.40,3.07,3.34,-3.34,-3.38,-3.34,-0.22,-0.28,-0.27
220.03,3.01,3.33,3.01,3.32,-3.32,-3.36,-3.37,-0.31,-0.31,-0.32
222.23,2.94,3.28,2.96,3.30,-3.30,-3.34,-3.39,-0.36,-0.34,-0.34
224.45,2.92,3.29,2.92,3.29,-3.29,-3.32,-3.42,-0.37,-0.37,-0.37
226.70,2.90,3.30,2.88,3.27,-3.27,-3.29,-3.44,-0.37,-0.39,-0.40
228.96,2.82,3.24,2.83,3.24,-3.24,-3.27,-3.46,-0.42,-0.41,-0.42
231.25,2.77,3.20,2.78,3.22,-3.22,-3.24,-3.48,-0.45,-0.43,-0.43
233.57,2.74,3.20,2.75,3.20,-3.20,-3.22,-3.49,-0.46,-0.45,-0.46
235.90,2.71,3.18,2.71,3.18,-3.18,-3.19,-3.50,-0.47,-0.47,-0.47
238.26,2.65,3.14,2.68,3.15,-3.15,-3.16,-3.51,-0.50,-0.48,-0.49
240.64,2.60,3.08,2.64,3.13,-3.13,-3.13,-3.51,-0.53,-0.49,-0.48
243.05,2.60,3.09,2.60,3.10,-3.10,-3.10,-3.51,-0.50,-0.50,-0.49
245.48,2.62,3.13,2.58,3.08,-3.08,-3.06,-3.51,-0.46,-0.50,-0.51
247.93,2.56,3.08,2.55,3.06,-3.06,-3.03,-3.50,-0.50,-0.51,-0.52
250.41,2.48,2.99,2.52,3.04,-3.04,-3.00,-3.48,-0.56,-0.52,-0.51
252.92,2.48,2.99,2.48,3.01,-3.01,-2.96,-3.46,-0.53,-0.53,-0.51
255.45,2.49,3.02,2.45,2.98,-2.98,-2.93,-3.44,-0.50,-0.54,-0.53
258.00,2.48,3.02,2.42,2.96,-2.96,-2.89,-3.42,-0.49,-0.55,-0.54
260.58,2.38,2.93,2.38,2.94,-2.94,-2.86,-3.38,-0.56,-0.56,-0.55
263.19,2.31,2.87,2.34,2.91,-2.91,-2.82,-3.35,-0.60,-0.57,-0.56
265.82,2.30,2.88,2.30,2.88,-2.88,-2.78,-3.31,-0.58,-0.58,-0.58
268.48,2.30,2.88,2.26,2.85,-2.85,-2.74,-3.27,-0.55,-0.59,-0.58
271.16,2.26,2.86,2.22,2.82,-2.82,-2.71,-3.22,-0.56,-0.60,-0.60
273.87,2.13,2.74,2.18,2.79,-2.79,-2.67,-3.17,-0.66,-0.62,-0.61
276.61,2.09,2.72,2.14,2.77,-2.77,-2.63,-3.12,-0.68,-0.63,-0.63
279.38,2.09,2.75,2.10,2.74,-2.74,-2.59,-3.07,-0.65,-0.64,-0.66
282.17,2.10,2.76,2.06,2.71,-2.71,-2.55,-3.01,-0.61,-0.65,-0.66
284.99,2.03,2.69,2.02,2.68,-2.68,-2.51,-2.95,-0.65,-0.65,-0.66
287.84,1.92,2.58,1.99,2.65,-2.65,-2.47,-2.89,-0.73,-0.66,-0.66
290.72,1.92,2.60,1.96,2.62,-2.62,-2.43,-2.83,-0.70,-0.67,-0.68
293.63,1.93,2.60,1.92,2.59,-2.59,-2.39,-2.77,-0.66,-0.67,-0.67
296.57,1.94,2.61,1.89,2.56,-2.56,-2.35,-2.70,-0.62,-0.68,-0.67
299.53,1.87,2.55,1.85,2.53,-2.53,-2.31,-2.64,-0.67,-0.68,-0.68
302.53,1.83,2.50,1.83,2.51,-2.51,-2.27,-2.58,-0.68,-0.68,-0.67
305.55,1.79,2.47,1.79,2.48,-2.48,-2.23,-2.51,-0.69,-0.68,-0.68
308.61,1.78,2.45,1.76,2.44,-2.44,-2.19,-2.45,-0.66,-0.68,-0.67
311.69,1.73,2.42,1.72,2.41,-2.41,-2.15,-2.38,-0.68,-0.69,-0.69
314.81,1.68,2.36,1.68,2.37,-2.37,-2.10,-2.32,-0.69,-0.69,-0.68
317.96,1.62,2.32,1.65,2.34,-2.34,-2.06,-2.26,-0.73,-0.69,-0.70
321.14,1.60,2.29,1.62,2.31,-2.31,-2.02,-2.20,-0.71,-0.69,-0.69
324.35,1.60,2.30,1.58,2.27,-2.27,-1.98,-2.13,-0.67,-0.70,-0.70
327.59,1.56,2.25,1.53,2.23,-2.23,-1.94,-2.07,-0.67,-0.70,-0.69
330.87,1.50,2.20,1.48,2.18,-2.18,-1.90,-2.01,-0.69,-0.70,-0.70
334.18,1.41,2.12,1.44,2.14,-2.14,-1.86,-1.96,-0.73,-0.70,-0.71
337.52,1.39,2.09,1.40,2.11,-2.11,-1.83,-1.90,-0.72,-0.70,-0.70
340.90,1.39,2.10,1.36,2.07,-2.07,-1.79,-1.84,-0.68,-0.70,-0.71
344.30,1.34,2.04,1.32,2.02,-2.02,-1.75,-1.79,-0.68,-0.70,-0.70
347.75,1.30,1.99,1.28,1.98,-1.98,-1.71,-1.74,-0.68,-0.70,-0.69
351.23,1.24,1.95,1.24,1.94,-1.94,-1.67,-1.68,-0.70,-0.70,-0.71
354.74,1.18,1.87,1.21,1.90,-1.90,-1.63,-1.63,-0.72,-0.69,-0.69
358.28,1.11,1.80,1.17,1.85,-1.85,-1.59,-1.59,-0.74,-0.69,-0.69
361.87,1.10,1.79,1.13,1.82,-1.82,-1.56,-1.54,-0.72,-0.68,-0.69
365.49,1.10,1.78,1.10,1.78,-1.78,-1.52,-1.49,-0.68,-0.68,-0.68
369.14,1.11,1.78,1.06,1.74,-1.74,-1.48,-1.45,-0.63,-0.68,-0.67
372.83,1.08,1.74,1.03,1.70,-1.70,-1.45,-1.40,-0.62,-0.67,-0.66
376.56,0.97,1.64,0.99,1.66,-1.66,-1.41,-1.36,-0.69,-0.67,-0.67
380.33,0.93,1.60,0.95,1.62,-1.62,-1.37,-1.32,-0.69,-0.67,-0.67
384.13,0.94,1.60,0.92,1.59,-1.59,-1.34,-1.28,-0.65,-0.67,-0.66
387.97,0.89,1.55,0.88,1.56,-1.56,-1.30,-1.24,-0.67,-0.67,-0.66
391.85,0.86,1.53,0.85,1.52,-1.52,-1.27,-1.20,-0.66,-0.68,-0.67
395.77,0.84,1.52,0.80,1.48,-1.48,-1.23,-1.16,-0.65,-0.68,-0.68
399.73,0.78,1.46,0.76,1.45,-1.45,-1.20,-1.12,-0.67,-0.69,-0.68
403.72,0.70,1.37,0.72,1.41,-1.41,-1.16,-1.09,-0.71,-0.69,-0.67
407.76,0.65,1.34,0.68,1.37,-1.37,-1.13,-1.05,-0.72,-0.70,-0.69
411.84,0.64,1.34,0.63,1.33,-1.33,-1.09,-1.02,-0.69,-0.70,-0.70
415.96,0.64,1.34,0.60,1.30,-1.30,-1.06,-0.99,-0.66,-0.70,-0.70
420.12,0.62,1.33,0.57,1.27,-1.27,-1.03,-0.96,-0.65,-0.70,-0.71
424.32,0.49,1.19,0.54,1.23,-1.23,-0.99,-0.92,-0.74,-0.69,-0.70
428.56,0.46,1.14,0.52,1.19,-1.19,-0.96,-0.89,-0.73,-0.68,-0.68
432.85,0.47,1.13,0.50,1.16,-1.16,-0.93,-0.86,-0.69,-0.66,-0.66
437.18,0.49,1.14,0.50,1.13,-1.13,-0.90,-0.84,-0.64,-0.63,-0.65
441.55,0.51,1.13,0.50,1.10,-1.10,-0.86,-0.81,-0.59,-0.60,-0.62
445.96,0.49,1.07,0.51,1.07,-1.07,-0.83,-0.78,-0.58,-0.56,-0.58
450.42,0.49,1.03,0.52,1.03,-1.03,-0.80,-0.75,-0.55,-0.52,-0.54
454.93,0.49,0.98,0.52,0.99,-0.99,-0.77,-0.72,-0.50,-0.47,-0.49
459.48,0.54,0.97,0.53,0.95,-0.95,-0.74,-0.70,-0.41,-0.42,-0.43
464.07,0.53,0.89,0.55,0.91,-0.91,-0.71,-0.67,-0.39,-0.37,-0.36
468.71,0.57,0.88,0.56,0.88,-0.88,-0.67,-0.64,-0.31,-0.31,-0.31
473.40,0.62,0.87,0.58,0.84,-0.84,-0.64,-0.62,-0.22,-0.26,-0.25
478.13,0.66,0.85,0.59,0.79,-0.79,-0.61,-0.59,-0.14,-0.21,-0.19
482.91,0.64,0.78,0.59,0.75,-0.75,-0.58,-0.56,-0.11,-0.16,-0.14
487.74,0.60,0.71,0.59,0.70,-0.70,-0.55,-0.54,-0.10,-0.11,-0.11
492.62,0.53,0.60,0.59,0.66,-0.66,-0.52,-0.51,-0.13,-0.07,-0.07
497.55,0.53,0.56,0.58,0.62,-0.62,-0.49,-0.49,-0.09,-0.04,-0.03
502.52,0.55,0.56,0.56,0.58,-0.58,-0.46,-0.46,-0.03,-0.01,-0.01
