frequency,raw,error,smoothed,error_smoothed,equalization,parametric_eq,fixed_band_eq,equalized_raw,equalized_smoothed,target
20.00,-4.58,-9.17,-4.56,-9.15,9.15,8.68,3.03,4.58,4.60,4.60
20.20,-4.50,-9.08,-4.48,-9.06,9.06,8.64,3.12,4.57,4.58,4.59
20.40,-4.41,-8.98,-4.40,-8.97,8.97,8.59,3.21,4.57,4.57,4.57
20.61,-4.33,-8.89,-4.33,-8.89,8.89,8.55,3.30,4.56,4.56,4.56
20.81,-4.25,-8.79,-4.25,-8.80,8.80,8.50,3.40,4.56,4.55,4.54
21.02,-4.17,-8.70,-4.18,-8.72,8.72,8.45,3.49,4.55,4.54,4.53
21.23,-4.10,-8.62,-4.11,-8.64,8.64,8.40,3.59,4.54,4.53,4.52
21.44,-4.02,-8.55,-4.04,-8.55,8.55,8.35,3.70,4.54,4.52,4.53
21.66,-3.95,-8.46,-3.97,-8.47,8.47,8.30,3.80,4.53,4.51,4.51
21.87,-3.88,-8.38,-3.90,-8.40,8.40,8.25,3.91,4.52,4.50,4.51
22.09,-3.81,-8.29,-3.83,-8.32,8.32,8.20,4.03,4.51,4.49,4.49
22.31,-3.74,-8.22,-3.76,-8.24,8.24,8.15,4.14,4.51,4.48,4.49
22.54,-3.70,-8.17,-3.70,-8.18,8.18,8.09,4.26,4.48,4.48,4.48
22.76,-3.66,-8.13,-3.64,-8.11,8.11,8.04,4.38,4.45,4.47,4.47
22.99,-3.60,-8.06,-3.58,-8.04,8.04,7.98,4.50,4.45,4.47,4.46
23.22,-3.52,-7.97,-3.52,-7.98,7.98,7.93,4.63,4.46,4.46,4.45
23.45,-3.46,-7.92,-3.45,-7.91,7.91,7.87,4.76,4.45,4.46,4.46
23.69,-3.40,-7.85,-3.39,-7.84,7.84,7.81,4.89,4.44,4.45,4.45
23.92,-3.33,-7.76,-3.32,-7.77,7.77,7.76,5.03,4.44,4.45,4.44
24.16,-3.27,-7.71,-3.25,-7.70,7.70,7.70,5.17,4.43,4.44,4.45
24.40,-3.20,-7.64,-3.18,-7.62,7.62,7.64,5.31,4.43,4.44,4.44
24.65,-3.12,-7.56,-3.11,-7.55,7.55,7.58,5.45,4.43,4.44,4.44
24.89,-3.04,-7.48,-3.03,-7.47,7.47,7.52,5.60,4.43,4.43,4.44
25.14,-2.96,-7.39,-2.95,-7.39,7.39,7.46,5.74,4.43,4.43,4.43
25.39,-2.88,-7.30,-2.87,-7.30,7.30,7.40,5.89,4.43,4.43,4.43
25.65,-2.80,-7.22,-2.80,-7.22,7.22,7.34,6.04,4.43,4.43,4.43
25.91,-2.72,-7.14,-2.72,-7.15,7.15,7.28,6.19,4.43,4.43,4.42
26.16,-2.64,-7.07,-2.64,-7.07,7.07,7.21,6.34,4.43,4.43,4.43
26.43,-2.56,-6.99,-2.56,-6.99,6.99,7.15,6.48,4.43,4.43,4.43
26.69,-2.49,-6.91,-2.49,-6.91,6.91,7.09,6.63,4.43,4.43,4.43
26.96,-2.41,-6.83,-2.41,-6.84,6.84,7.03,6.77,4.43,4.43,4.43
27.23,-2.33,-6.75,-2.34,-6.77,6.77,6.96,6.92,4.44,4.43,4.42
27.50,-2.26,-6.68,-2.28,-6.70,6.70,6.90,7.05,4.45,4.43,4.42
27.77,-2.21,-6.63,-2.21,-6.64,6.64,6.83,7.19,4.43,4.43,4.43
28.05,-2.16,-6.58,-2.15,-6.58,6.58,6.77,7.32,4.42,4.43,4.43
28.33,-2.10,-6.53,-2.09,-6.52,6.52,6.70,7.44,4.42,4.43,4.43
28.62,-2.04,-6.47,-2.03,-6.46,6.46,6.64,7.55,4.43,4.43,4.43
28.90,-1.98,-6.41,-1.98,-6.41,6.41,6.57,7.65,4.43,4.43,4.44
29.19,-1.94,-6.37,-1.93,-6.36,6.36,6.51,7.75,4.42,4.43,4.43
29.48,-1.89,-6.32,-1.89,-6.31,6.31,6.44,7.83,4.43,4.43,4.43
29.78,-1.84,-6.26,-1.84,-6.27,6.27,6.38,7.90,4.43,4.42,4.43
30.08,-1.79,-6.21,-1.80,-6.22,6.22,6.31,7.96,4.43,4.42,4.42
30.38,-1.76,-6.17,-1.76,-6.18,6.18,6.24,8.01,4.42,4.41,4.41
30.68,-1.72,-6.12,-1.72,-6.13,6.13,6.18,8.04,4.42,4.41,4.41
30.99,-1.69,-6.09,-1.69,-6.09,6.09,6.11,8.06,4.40,4.40,4.40
31.30,-1.66,-6.06,-1.65,-6.05,6.05,6.04,8.06,4.39,4.40,4.40
31.61,-1.63,-6.02,-1.62,-6.01,6.01,5.98,8.05,4.38,4.39,4.39
31.93,-1.60,-5.97,-1.59,-5.97,5.97,5.91,8.02,4.37,4.38,4.37
32.24,-1.56,-5.93,-1.56,-5.93,5.93,5.84,7.98,4.37,4.37,4.38
32.57,-1.53,-5.89,-1.53,-5.89,5.89,5.78,7.92,4.36,4.36,4.36
32.89,-1.49,-5.84,-1.50,-5.85,5.85,5.71,7.86,4.37,4.36,4.36
33.22,-1.46,-5.81,-1.46,-5.81,5.81,5.64,7.78,4.36,4.35,4.35
33.55,-1.43,-5.77,-1.43,-5.77,5.77,5.57,7.69,4.34,4.34,4.35
33.89,-1.40,-5.73,-1.39,-5.73,5.73,5.51,7.58,4.33,4.33,4.33
34.23,-1.36,-5.67,-1.35,-5.68,5.68,5.44,7.47,4.32,4.32,4.31
34.57,-1.33,-5.63,-1.31,-5.63,5.63,5.37,7.35,4.30,4.31,4.31
34.92,-1.29,-5.58,-1.27,-5.57,5.57,5.30,7.23,4.29,4.30,4.29
35.27,-1.25,-5.55,-1.23,-5.52,5.52,5.23,7.10,4.27,4.29,4.31
35.62,-1.20,-5.48,-1.18,-5.46,5.46,5.17,6.96,4.26,4.28,4.28
35.97,-1.14,-5.41,-1.14,-5.40,5.40,5.10,6.82,4.26,4.26,4.27
36.33,-1.08,-5.33,-1.09,-5.33,5.33,5.03,6.68,4.26,4.25,4.25
36.70,-1.02,-5.24,-1.03,-5.26,5.26,4.96,6.53,4.25,4.23,4.23
37.06,-0.97,-5.18,-0.98,-5.19,5.19,4.89,6.38,4.22,4.21,4.21
37.43,-0.93,-5.12,-0.93,-5.12,5.12,4.83,6.23,4.19,4.19,4.19
37.81,-0.88,-5.05,-0.87,-5.04,5.04,4.76,6.09,4.17,4.17,4.17
38.19,-0.83,-4.97,-0.82,-4.97,4.97,4.69,5.94,4.14,4.15,4.14
38.57,-0.78,-4.90,-0.77,-4.89,4.89,4.62,5.79,4.11,4.13,4.13
38.95,-0.71,-4.81,-0.71,-4.81,4.81,4.55,5.64,4.11,4.10,4.11
39.34,-0.65,-4.72,-0.66,-4.74,4.74,4.48,5.50,4.09,4.08,4.08
39.74,-0.60,-4.64,-0.61,-4.66,4.66,4.42,5.35,4.06,4.05,4.05
40.14,-0.56,-4.58,-0.56,-4.58,4.58,4.35,5.21,4.03,4.03,4.03
40.54,-0.51,-4.51,-0.50,-4.51,4.51,4.28,5.07,4.00,4.00,4.00
40.94,-0.47,-4.44,-0.45,-4.43,4.43,4.21,4.94,3.97,3.98,3.97
41.35,-0.42,-4.37,-0.40,-4.36,4.36,4.14,4.80,3.94,3.95,3.95
41.76,-0.36,-4.28,-0.35,-4.28,4.28,4.08,4.67,3.92,3.93,3.92
42.18,-0.31,-4.21,-0.31,-4.21,4.21,4.01,4.55,3.90,3.90,3.91
42.60,-0.26,-4.13,-0.26,-4.14,4.14,3.94,4.42,3.88,3.87,3.87
43.03,-0.21,-4.06,-0.22,-4.07,4.07,3.87,4.30,3.86,3.85,3.85
43.46,-0.17,-3.98,-0.18,-4.00,4.00,3.80,4.18,3.83,3.82,3.82
43.90,-0.13,-3.92,-0.14,-3.93,3.93,3.74,4.06,3.80,3.79,3.79
44.33,-0.09,-3.84,-0.10,-3.86,3.86,3.67,3.95,3.77,3.76,3.76
44.78,-0.06,-3.79,-0.06,-3.79,3.79,3.60,3.84,3.73,3.73,3.73
45.23,-0.03,-3.73,-0.03,-3.72,3.72,3.53,3.73,3.69,3.69,3.71
45.68,0.00,-3.66,0.01,-3.65,3.65,3.47,3.63,3.65,3.66,3.66
46.13,0.02,-3.60,0.04,-3.58,3.58,3.40,3.53,3.60,3.62,3.62
46.60,0.05,-3.53,0.07,-3.51,3.51,3.33,3.43,3.56,3.58,3.58
47.06,0.09,-3.45,0.10,-3.43,3.43,3.26,3.33,3.53,3.54,3.54
47.53,0.13,-3.37,0.13,-3.36,3.36,3.20,3.24,3.49,3.49,3.50
48.01,0.17,-3.27,0.16,-3.28,3.28,3.13,3.15,3.46,3.45,3.45
48.49,0.20,-3.20,0.20,-3.21,3.21,3.06,3.06,3.41,3.40,3.40
48.97,0.23,-3.12,0.23,-3.13,3.13,2.99,2.98,3.36,3.36,3.35
49.46,0.25,-3.06,0.26,-3.05,3.05,2.93,2.89,3.31,3.31,3.31
49.96,0.27,-2.98,0.29,-2.98,2.98,2.86,2.81,3.25,3.27,3.25
50.46,0.30,-2.91,0.31,-2.91,2.91,2.79,2.73,3.21,3.22,3.21
50.96,0.33,-2.84,0.33,-2.84,2.84,2.72,2.66,3.17,3.17,3.17
51.47,0.35,-2.77,0.35,-2.77,2.77,2.66,2.58,3.12,3.12,3.13
51.99,0.38,-2.69,0.37,-2.71,2.71,2.59,2.51,3.09,3.08,3.07
52.51,0.40,-2.63,0.38,-2.65,2.65,2.52,2.43,3.06,3.03,3.03
53.03,0.41,-2.58,0.38,-2.60,2.60,2.45,2.36,3.01,2.98,2.99
53.56,0.42,-2.52,0.39,-2.55,2.55,2.39,2.30,2.97,2.94,2.95
54.10,0.41,-2.47,0.40,-2.50,2.50,2.32,2.23,2.91,2.89,2.89
54.64,0.40,-2.44,0.40,-2.45,2.45,2.25,2.16,2.85,2.85,2.85
55.18,0.38,-2.41,0.41,-2.40,2.40,2.18,2.10,2.78,2.80,2.79
55.74,0.38,-2.36,0.41,-2.35,2.35,2.12,2.03,2.73,2.76,2.74
56.29,0.38,-2.33,0.42,-2.30,2.30,2.05,1.97,2.68,2.71,2.71
56.86,0.40,-2.26,0.42,-2.24,2.24,1.98,1.91,2.65,2.67,2.66
57.42,0.42,-2.19,0.43,-2.19,2.19,1.91,1.84,2.61,2.62,2.61
58.00,0.44,-2.12,0.45,-2.12,2.12,1.85,1.78,2.57,2.57,2.56
58.58,0.46,-2.06,0.46,-2.06,2.06,1.78,1.72,2.52,2.52,2.52
59.16,0.49,-1.99,0.48,-1.98,1.98,1.71,1.66,2.47,2.47,2.49
59.76,0.52,-1.91,0.51,-1.90,1.90,1.64,1.60,2.42,2.41,2.44
60.35,0.54,-1.83,0.54,-1.82,1.82,1.58,1.54,2.36,2.36,2.37
60.96,0.56,-1.75,0.58,-1.72,1.72,1.51,1.48,2.29,2.30,2.31
61.57,0.59,-1.65,0.61,-1.63,1.63,1.44,1.41,2.22,2.24,2.24
62.18,0.63,-1.54,0.65,-1.53,1.53,1.37,1.35,2.17,2.18,2.17
62.80,0.67,-1.43,0.68,-1.44,1.44,1.31,1.29,2.11,2.12,2.11
63.43,0.71,-1.33,0.72,-1.34,1.34,1.24,1.23,2.05,2.06,2.04
64.07,0.76,-1.22,0.75,-1.24,1.24,1.17,1.16,2.00,1.99,1.98
64.71,0.80,-1.12,0.79,-1.14,1.14,1.10,1.10,1.94,1.93,1.92
65.35,0.84,-1.02,0.83,-1.04,1.04,1.03,1.04,1.88,1.87,1.86
66.01,0.87,-0.93,0.86,-0.94,0.94,0.97,0.97,1.81,1.80,1.80
66.67,0.90,-0.84,0.90,-0.84,0.84,0.90,0.91,1.75,1.74,1.75
67.33,0.92,-0.75,0.93,-0.75,0.75,0.83,0.84,1.67,1.67,1.67
68.01,0.94,-0.67,0.96,-0.65,0.65,0.76,0.77,1.60,1.61,1.62
68.69,0.97,-0.58,0.98,-0.56,0.56,0.69,0.71,1.54,1.55,1.55
69.37,1.00,-0.49,1.00,-0.48,0.48,0.62,0.64,1.48,1.48,1.49
70.07,1.02,-0.40,1.02,-0.40,0.40,0.55,0.57,1.42,1.42,1.42
70.77,1.04,-0.31,1.03,-0.31,0.31,0.48,0.50,1.36,1.35,1.35
71.48,1.06,-0.23,1.04,-0.24,0.24,0.42,0.43,1.30,1.28,1.29
72.19,1.07,-0.14,1.05,-0.16,0.16,0.35,0.36,1.23,1.21,1.21
72.91,1.07,-0.07,1.06,-0.09,0.09,0.28,0.29,1.16,1.15,1.14
73.64,1.07,-0.00,1.06,-0.02,0.02,0.21,0.22,1.09,1.08,1.07
74.38,1.06,0.06,1.07,0.05,-0.05,0.14,0.15,1.01,1.02,1.01
75.12,1.05,0.11,1.07,0.12,-0.12,0.07,0.08,0.94,0.95,0.95
75.87,1.05,0.17,1.07,0.18,-0.18,-0.00,0.00,0.87,0.89,0.89
76.63,1.05,0.24,1.06,0.24,-0.24,-0.07,-0.07,0.81,0.82,0.82
77.40,1.05,0.29,1.06,0.30,-0.30,-0.14,-0.15,0.75,0.76,0.76
78.17,1.05,0.36,1.06,0.36,-0.36,-0.22,-0.22,0.69,0.70,0.69
78.95,1.05,0.41,1.05,0.42,-0.42,-0.29,-0.30,0.63,0.64,0.64
79.74,1.05,0.48,1.05,0.48,-0.48,-0.36,-0.37,0.58,0.58,0.58
80.54,1.05,0.53,1.05,0.54,-0.54,-0.43,-0.45,0.52,0.51,0.52
81.35,1.05,0.60,1.05,0.60,-0.60,-0.50,-0.53,0.45,0.45,0.45
82.16,1.05,0.65,1.05,0.66,-0.66,-0.57,-0.61,0.39,0.39,0.40
82.98,1.05,0.72,1.05,0.72,-0.72,-0.64,-0.69,0.33,0.33,0.33
83.81,1.05,0.78,1.05,0.79,-0.79,-0.72,-0.77,0.26,0.26,0.27
84.65,1.05,0.86,1.05,0.85,-0.85,-0.79,-0.85,0.20,0.20,0.20
85.50,1.05,0.92,1.05,0.92,-0.92,-0.86,-0.94,0.13,0.13,0.13
86.35,1.05,0.99,1.05,0.98,-0.98,-0.93,-1.02,0.07,0.07,0.07
87.22,1.05,1.05,1.05,1.05,-1.05,-1.01,-1.10,0.00,0.00,0.00
88.09,1.05,1.12,1.05,1.12,-1.12,-1.08,-1.19,-0.07,-0.07,-0.07
88.97,1.05,1.19,1.05,1.19,-1.19,-1.15,-1.28,-0.13,-0.13,-0.13
89.86,1.05,1.26,1.05,1.26,-1.26,-1.22,-1.37,-0.20,-0.20,-0.20
90.76,1.05,1.32,1.05,1.33,-1.33,-1.30,-1.45,-0.27,-0.27,-0.27
91.66,1.05,1.40,1.05,1.40,-1.40,-1.37,-1.54,-0.35,-0.35,-0.35
92.58,1.05,1.47,1.05,1.47,-1.47,-1.45,-1.64,-0.42,-0.42,-0.41
93.51,1.05,1.54,1.05,1.54,-1.54,-1.52,-1.73,-0.49,-0.49,-0.48
94.44,1.05,1.61,1.05,1.62,-1.62,-1.59,-1.82,-0.57,-0.57,-0.56
95.39,1.05,1.69,1.05,1.69,-1.69,-1.67,-1.91,-0.64,-0.64,-0.64
96.34,1.05,1.76,1.05,1.77,-1.77,-1.74,-2.01,-0.71,-0.71,-0.71
97.30,1.05,1.84,1.05,1.84,-1.84,-1.82,-2.10,-0.79,-0.79,-0.78
98.28,1.05,1.92,1.05,1.91,-1.91,-1.89,-2.20,-0.86,-0.86,-0.87
99.26,1.05,2.00,1.05,1.99,-1.99,-1.96,-2.30,-0.93,-0.93,-0.94
100.25,1.05,2.07,1.05,2.06,-2.06,-2.04,-2.39,-1.01,-1.01,-1.02
101.25,1.05,2.14,1.05,2.13,-2.13,-2.11,-2.49,-1.08,-1.08,-1.08
102.27,1.05,2.20,1.05,2.20,-2.20,-2.19,-2.59,-1.15,-1.15,-1.15
103.29,1.05,2.28,1.05,2.27,-2.27,-2.26,-2.68,-1.22,-1.22,-1.22
104.32,1.05,2.34,1.05,2.34,-2.34,-2.34,-2.78,-1.29,-1.29,-1.29
105.37,1.05,2.41,1.05,2.41,-2.41,-2.41,-2.88,-1.36,-1.36,-1.35
106.42,1.05,2.47,1.05,2.48,-2.48,-2.48,-2.97,-1.43,-1.43,-1.42
107.48,1.05,2.55,1.05,2.55,-2.55,-2.56,-3.06,-1.49,-1.49,-1.49
108.56,1.05,2.61,1.05,2.62,-2.62,-2.63,-3.16,-1.56,-1.57,-1.56
109.64,1.05,2.68,1.05,2.69,-2.69,-2.70,-3.25,-1.63,-1.63,-1.63
110.74,1.05,2.75,1.05,2.76,-2.76,-2.78,-3.33,-1.71,-1.71,-1.70
111.85,1.05,2.83,1.05,2.83,-2.83,-2.85,-3.42,-1.78,-1.78,-1.78
112.97,1.05,2.89,1.06,2.90,-2.90,-2.92,-3.50,-1.85,-1.85,-1.84
114.10,1.05,2.97,1.06,2.98,-2.98,-2.99,-3.58,-1.93,-1.92,-1.91
115.24,1.05,3.05,1.06,3.05,-3.05,-3.06,-3.65,-2.00,-1.99,-2.00
116.39,1.05,3.12,1.06,3.12,-3.12,-3.13,-3.72,-2.07,-2.06,-2.07
117.55,1.05,3.20,1.07,3.20,-3.20,-3.20,-3.79,-2.14,-2.13,-2.14
118.73,1.05,3.27,1.07,3.27,-3.27,-3.27,-3.85,-2.21,-2.20,-2.22
119.92,1.06,3.34,1.07,3.34,-3.34,-3.34,-3.90,-2.27,-2.27,-2.28
121.12,1.07,3.41,1.06,3.40,-3.40,-3.41,-3.96,-2.33,-2.34,-2.34
122.33,1.07,3.48,1.06,3.47,-3.47,-3.48,-4.00,-2.39,-2.41,-2.41
123.55,1.06,3.53,1.05,3.53,-3.53,-3.54,-4.04,-2.46,-2.48,-2.47
124.79,1.05,3.59,1.04,3.58,-3.58,-3.61,-4.07,-2.53,-2.54,-2.54
126.03,1.04,3.65,1.02,3.63,-3.63,-3.67,-4.10,-2.59,-2.61,-2.60
127.29,1.01,3.68,1.00,3.68,-3.68,-3.73,-4.12,-2.67,-2.68,-2.67
128.57,0.99,3.74,0.98,3.73,-3.73,-3.79,-4.14,-2.74,-2.75,-2.75
129.85,0.96,3.78,0.96,3.78,-3.78,-3.86,-4.15,-2.81,-2.81,-2.81
131.15,0.93,3.82,0.94,3.82,-3.82,-3.91,-4.16,-2.88,-2.88,-2.89
132.46,0.90,3.85,0.91,3.86,-3.86,-3.97,-4.16,-2.96,-2.95,-2.95
133.79,0.87,3.90,0.88,3.90,-3.90,-4.03,-4.15,-3.03,-3.02,-3.02
135.12,0.84,3.93,0.86,3.94,-3.94,-4.08,-4.15,-3.10,-3.08,-3.08
136.48,0.81,3.96,0.83,3.98,-3.98,-4.14,-4.13,-3.16,-3.15,-3.14
137.84,0.79,4.01,0.81,4.02,-4.02,-4.19,-4.12,-3.23,-3.21,-3.21
139.22,0.77,4.05,0.78,4.06,-4.06,-4.24,-4.10,-3.28,-3.27,-3.28
140.61,0.76,4.10,0.76,4.10,-4.10,-4.28,-4.08,-3.33,-3.34,-3.34
142.02,0.74,4.15,0.74,4.13,-4.13,-4.33,-4.06,-3.39,-3.40,-3.40
143.44,0.72,4.18,0.72,4.17,-4.17,-4.37,-4.03,-3.45,-3.45,-3.46
144.87,0.69,4.20,0.70,4.21,-4.21,-4.42,-4.01,-3.52,-3.51,-3.51
146.32,0.68,4.25,0.68,4.25,-4.25,-4.46,-3.98,-3.56,-3.57,-3.57
147.78,0.66,4.28,0.66,4.28,-4.28,-4.50,-3.95,-3.62,-3.62,-3.62
149.26,0.64,4.32,0.64,4.32,-4.32,-4.53,-3.93,-3.67,-3.68,-3.68
150.75,0.62,4.36,0.62,4.35,-4.35,-4.56,-3.90,-3.73,-3.73,-3.74
152.26,0.59,4.38,0.59,4.38,-4.38,-4.60,-3.87,-3.79,-3.79,-3.79
153.78,0.56,4.40,0.57,4.41,-4.41,-4.63,-3.85,-3.85,-3.84,-3.84
155.32,0.54,4.44,0.54,4.44,-4.44,-4.65,-3.82,-3.89,-3.90,-3.89
156.88,0.52,4.47,0.51,4.46,-4.46,-4.68,-3.80,-3.94,-3.95,-3.95
158.44,0.49,4.50,0.48,4.49,-4.49,-4.70,-3.78,-4.00,-4.01,-4.01
160.03,0.46,4.52,0.46,4.52,-4.52,-4.72,-3.76,-4.06,-4.06,-4.06
161.63,0.42,4.54,0.43,4.55,-4.55,-4.74,-3.74,-4.13,-4.12,-4.12
163.24,0.39,4.57,0.40,4.58,-4.58,-4.75,-3.72,-4.19,-4.18,-4.18
164.88,0.35,4.58,0.38,4.61,-4.61,-4.77,-3.71,-4.25,-4.23,-4.23
166.53,0.32,4.62,0.35,4.63,-4.63,-4.78,-3.70,-4.31,-4.29,-4.30
168.19,0.30,4.64,0.31,4.66,-4.66,-4.78,-3.69,-4.36,-4.35,-4.34
169.87,0.28,4.69,0.28,4.69,-4.69,-4.79,-3.69,-4.40,-4.40,-4.40
171.57,0.27,4.74,0.25,4.71,-4.71,-4.79,-3.68,-4.44,-4.46,-4.46
173.29,0.24,4.76,0.22,4.73,-4.73,-4.80,-3.68,-4.49,-4.52,-4.51
175.02,0.20,4.77,0.18,4.76,-4.76,-4.80,-3.69,-4.55,-4.57,-4.57
176.77,0.16,4.79,0.15,4.78,-4.78,-4.79,-3.69,-4.61,-4.63,-4.63
178.54,0.11,4.80,0.11,4.80,-4.80,-4.79,-3.70,-4.68,-4.69,-4.69
180.32,0.06,4.81,0.08,4.82,-4.82,-4.78,-3.71,-4.75,-4.74,-4.75
182.13,0.02,4.82,0.04,4.84,-4.84,-4.77,-3.73,-4.81,-4.80,-4.79
183.95,-0.02,4.83,0.00,4.85,-4.85,-4.76,-3.75,-4.87,-4.85,-4.85
185.79,-0.05,4.86,-0.04,4.87,-4.87,-4.75,-3.77,-4.92,-4.90,-4.91
187.65,-0.08,4.88,-0.08,4.88,-4.88,-4.74,-3.79,-4.96,-4.96,-4.96
189.52,-0.12,4.89,-0.12,4.89,-4.89,-4.72,-3.82,-5.01,-5.01,-5.01
191.42,-0.15,4.91,-0.16,4.90,-4.90,-4.70,-3.84,-5.05,-5.06,-5.05
193.33,-0.19,4.91,-0.19,4.92,-4.92,-4.68,-3.87,-5.10,-5.11,-5.10
195.27,-0.23,4.93,-0.23,4.93,-4.93,-4.66,-3.91,-5.15,-5.15,-5.16
197.22,-0.27,4.95,-0.26,4.94,-4.94,-4.64,-3.94,-5.20,-5.20,-5.21
199.19,-0.30,4.95,-0.30,4.94,-4.94,-4.62,-3.98,-5.24,-5.24,-5.25
201.18,-0.34,4.96,-0.34,4.95,-4.95,-4.59,-4.02,-5.28,-5.29,-5.30
203.19,-0.39,4.94,-0.38,4.95,-4.95,-4.57,-4.06,-5.34,-5.33,-5.33
205.23,-0.43,4.93,-0.42,4.95,-4.95,-4.54,-4.10,-5.37,-5.37,-5.36
207.28,-0.47,4.93,-0.46,4.94,-4.94,-4.51,-4.14,-5.41,-5.41,-5.40
209.35,-0.50,4.94,-0.51,4.94,-4.94,-4.48,-4.19,-5.43,-5.44,-5.44
211.44,-0.54,4.94,-0.55,4.93,-4.93,-4.45,-4.23,-5.47,-5.48,-5.48
213.56,-0.58,4.93,-0.60,4.92,-4.92,-4.42,-4.28,-5.49,-5.51,-5.51
215.69,-0.64,4.90,-0.64,4.90,-4.90,-4.39,-4.32,-5.54,-5.55,-5.54
217.85,-0.70,4.88,-0.69,4.89,-4.89,-4.36,-4.36,-5.58,-5.58,-5.58
220.03,-0.76,4.85,-0.74,4.87,-4.87,-4.33,-4.41,-5.62,-5.61,-5.61
222.23,-0.81,4.84,-0.79,4.84,-4.84,-4.29,-4.45,-5.65,-5.64,-5.65
224.45,-0.85,4.82,-0.85,4.82,-4.82,-4.26,-4.49,-5.67,-5.67,-5.67
226.70,-0.90,4.80,-0.90,4.80,-4.80,-4.23,-4.53,-5.69,-5.69,-5.70
228.96,-0.94,4.77,-0.95,4.77,-4.77,-4.19,-4.56,-5.70,-5.72,-5.71
231.25,-1.00,4.75,-1.01,4.74,-4.74,-4.16,-4.59,-5.73,-5.74,-5.74
233.57,-1.06,4.71,-1.06,4.70,-4.70,-4.12,-4.62,-5.76,-5.76,-5.76
235.90,-1.12,4.67,-1.11,4.67,-4.67,-4.09,-4.65,-5.79,-5.78,-5.78
238.26,-1.18,4.63,-1.17,4.63,-4.63,-4.06,-4.67,-5.81,-5.80,-5.81
240.64,-1.23,4.58,-1.22,4.60,-4.60,-4.02,-4.69,-5.83,-5.81,-5.81
243.05,-1.27,4.56,-1.27,4.56,-4.56,-3.99,-4.70,-5.83,-5.83,-5.83
245.48,-1.32,4.53,-1.32,4.52,-4.52,-3.95,-4.71,-5.84,-5.84,-5.84
247.93,-1.37,4.49,-1.37,4.48,-4.48,-3.92,-4.71,-5.85,-5.85,-5.86
250.41,-1.43,4.43,-1.42,4.44,-4.44,-3.88,-4.71,-5.87,-5.86,-5.86
252.92,-1.48,4.38,-1.47,4.40,-4.40,-3.85,-4.70,-5.87,-5.87,-5.86
255.45,-1.52,4.36,-1.52,4.35,-4.35,-3.82,-4.69,-5.87,-5.87,-5.88
258.00,-1.57,4.31,-1.57,4.31,-4.31,-3.78,-4.68,-5.88,-5.88,-5.88
260.58,-1.62,4.27,-1.62,4.27,-4.27,-3.75,-4.65,-5.88,-5.89,-5.88
263.19,-1.67,4.22,-1.67,4.22,-4.22,-3.72,-4.63,-5.89,-5.89,-5.89
265.82,-1.72,4.18,-1.73,4.17,-4.17,-3.69,-4.60,-5.89,-5.90,-5.90
268.48,-1.78,4.12,-1.78,4.12,-4.12,-3.66,-4.57,-5.90,-5.91,-5.90
271.16,-1.84,4.07,-1.84,4.07,-4.07,-3.63,-4.53,-5.91,-5.91,-5.90
273.87,-1.89,4.03,-1.89,4.02,-4.02,-3.60,-4.49,-5.91,-5.91,-5.91
276.61,-1.95,3.97,-1.95,3.97,-3.97,-3.57,-4.44,-5.91,-5.92,-5.92
279.38,-2.01,3.93,-2.01,3.91,-3.91,-3.54,-4.40,-5.92,-5.92,-5.94
282.17,-2.08,3.86,-2.07,3.86,-3.86,-3.51,-4.35,-5.93,-5.92,-5.94
284.99,-2.14,3.79,-2.13,3.80,-3.80,-3.48,-4.30,-5.93,-5.93,-5.93
287.84,-2.19,3.74,-2.19,3.74,-3.74,-3.45,-4.25,-5.93,-5.93,-5.93
290.72,-2.25,3.69,-2.24,3.68,-3.68,-3.43,-4.20,-5.93,-5.93,-5.93
293.63,-2.30,3.63,-2.30,3.63,-3.63,-3.40,-4.14,-5.92,-5.93,-5.92
296.57,-2.35,3.57,-2.35,3.57,-3.57,-3.37,-4.09,-5.92,-5.92,-5.92
299.53,-2.41,3.51,-2.41,3.51,-3.51,-3.35,-4.04,-5.92,-5.92,-5.92
302.53,-2.47,3.44,-2.46,3.46,-3.46,-3.33,-3.99,-5.93,-5.92,-5.91
305.55,-2.53,3.39,-2.51,3.40,-3.40,-3.30,-3.93,-5.93,-5.91,-5.92
308.61,-2.57,3.34,-2.55,3.35,-3.35,-3.28,-3.88,-5.92,-5.91,-5.90
311.69,-2.61,3.29,-2.60,3.30,-3.30,-3.26,-3.83,-5.91,-5.90,-5.90
314.81,-2.64,3.26,-2.65,3.25,-3.25,-3.24,-3.78,-5.88,-5.89,-5.90
317.96,-2.69,3.21,-2.69,3.19,-3.19,-3.22,-3.74,-5.88,-5.89,-5.89
321.14,-2.73,3.15,-2.74,3.14,-3.14,-3.20,-3.69,-5.87,-5.88,-5.88
324.35,-2.78,3.11,-2.79,3.09,-3.09,-3.18,-3.65,-5.87,-5.88,-5.88
327.59,-2.82,3.04,-2.83,3.04,-3.04,-3.17,-3.61,-5.86,-5.87,-5.86
330.87,-2.86,3.01,-2.87,3.00,-3.00,-3.15,-3.57,-5.85,-5.87,-5.87
334.18,-2.91,2.95,-2.91,2.95,-2.95,-3.13,-3.53,-5.86,-5.86,-5.86
337.52,-2.95,2.91,-2.95,2.91,-2.91,-3.12,-3.49,-5.85,-5.85,-5.86
340.90,-3.00,2.85,-2.98,2.86,-2.86,-3.11,-3.46,-5.86,-5.85,-5.84
344.30,-3.04,2.80,-3.02,2.82,-2.82,-3.09,-3.43,-5.86,-5.84,-5.84
347.75,-3.07,2.76,-3.05,2.78,-2.78,-3.08,-3.40,-5.85,-5.83,-5.83
351.23,-3.10,2.74,-3.09,2.74,-2.74,-3.07,-3.38,-5.84,-5.83,-5.84
354.74,-3.11,2.70,-3.11,2.71,-2.71,-3.06,-3.36,-5.81,-5.82,-5.81
358.28,-3.13,2.69,-3.14,2.68,-2.68,-3.05,-3.34,-5.80,-5.81,-5.81
361.87,-3.15,2.66,-3.16,2.65,-2.65,-3.05,-3.32,-5.80,-5.81,-5.81
365.49,-3.17,2.63,-3.17,2.63,-2.63,-3.04,-3.30,-5.80,-5.80,-5.80
369.14,-3.19,2.60,-3.18,2.61,-2.61,-3.04,-3.29,-5.80,-5.79,-5.79
372.83,-3.20,2.58,-3.19,2.59,-2.59,-3.03,-3.28,-5.79,-5.78,-5.78
376.56,-3.20,2.59,-3.20,2.58,-2.58,-3.03,-3.27,-5.78,-5.78,-5.78
380.33,-3.21,2.57,-3.20,2.57,-2.57,-3.03,-3.27,-5.78,-5.77,-5.78
384.13,-3.20,2.56,-3.19,2.57,-2.57,-3.03,-3.27,-5.76,-5.76,-5.76
387.97,-3.19,2.56,-3.19,2.56,-2.56,-3.03,-3.27,-5.75,-5.75,-5.75
391.85,-3.18,2.57,-3.18,2.56,-2.56,-3.03,-3.27,-5.74,-5.74,-5.74
395.77,-3.17,2.57,-3.17,2.56,-2.56,-3.03,-3.27,-5.73,-5.73,-5.74
399.73,-3.15,2.58,-3.15,2.57,-2.57,-3.03,-3.28,-5.72,-5.72,-5.73
403.72,-3.13,2.58,-3.13,2.58,-2.58,-3.04,-3.28,-5.71,-5.71,-5.70
407.76,-3.12,2.59,-3.11,2.60,-2.60,-3.05,-3.29,-5.71,-5.71,-5.70
411.84,-3.09,2.61,-3.08,2.62,-2.62,-3.05,-3.30,-5.70,-5.70,-5.70
415.96,-3.06,2.62,-3.05,2.64,-2.64,-3.06,-3.32,-5.69,-5.69,-5.68
420.12,-3.02,2.66,-3.02,2.66,-2.66,-3.07,-3.33,-5.68,-5.68,-5.68
424.32,-2.98,2.70,-2.98,2.69,-2.69,-3.09,-3.35,-5.67,-5.67,-5.67
428.56,-2.95,2.71,-2.94,2.73,-2.73,-3.10,-3.36,-5.67,-5.66,-5.66
432.85,-2.90,2.75,-2.89,2.76,-2.76,-3.11,-3.38,-5.66,-5.65,-5.65
437.18,-2.85,2.80,-2.85,2.80,-2.80,-3.13,-3.40,-5.65,-5.65,-5.65
441.55,-2.79,2.85,-2.80,2.84,-2.84,-3.15,-3.42,-5.63,-5.64,-5.64
445.96,-2.74,2.90,-2.74,2.89,-2.89,-3.17,-3.43,-5.62,-5.63,-5.63
450.42,-2.68,2.95,-2.69,2.93,-2.93,-3.19,-3.45,-5.61,-5.62,-5.62
454.93,-2.62,3.00,-2.63,2.98,-2.98,-3.21,-3.47,-5.60,-5.61,-5.62
459.48,-2.57,3.04,-2.57,3.04,-3.04,-3.24,-3.49,-5.60,-5.60,-5.61
464.07,-2.51,3.08,-2.50,3.09,-3.09,-3.27,-3.51,-5.60,-5.60,-5.59
468.71,-2.45,3.13,-2.44,3.15,-3.15,-3.30,-3.53,-5.60,-5.59,-5.58
473.40,-2.38,3.20,-2.37,3.21,-3.21,-3.33,-3.55,-5.59,-5.58,-5.57
478.13,-2.31,3.26,-2.29,3.27,-3.27,-3.36,-3.56,-5.58,-5.57,-5.56
482.91,-2.23,3.33,-2.22,3.33,-3.33,-3.40,-3.58,-5.56,-5.56,-5.55
