frequency,raw,error,smoothed,error_smoothed,equalization,parametric_eq,fixed_band_eq,equalized_raw,equalized_smoothed,target
20.00,-6.00,-8.40,-6.00,-8.42,8.42,8.02,2.14,2.42,2.42,2.40
20.20,-5.88,-8.32,-5.88,-8.34,8.34,7.98,2.20,2.46,2.45,2.44
20.40,-5.77,-8.25,-5.77,-8.25,8.25,7.94,2.27,2.48,2.48,2.48
20.61,-5.65,-8.16,-5.65,-8.16,8.16,7.89,2.33,2.51,2.51,2.51
20.81,-5.54,-8.09,-5.54,-8.07,8.07,7.84,2.40,2.53,2.54,2.55
21.02,-5.42,-8.01,-5.42,-7.98,7.98,7.78,2.47,2.56,2.56,2.59
21.23,-5.30,-7.91,-5.31,-7.89,7.89,7.71,2.54,2.59,2.59,2.61
21.44,-5.19,-7.82,-5.19,-7.80,7.80,7.63,2.61,2.61,2.61,2.63
21.66,-5.07,-7.72,-5.08,-7.70,7.70,7.56,2.69,2.63,2.63,2.65
21.87,-4.96,-7.62,-4.96,-7.61,7.61,7.47,2.76,2.65,2.65,2.66
22.09,-4.84,-7.52,-4.85,-7.51,7.51,7.39,2.84,2.67,2.67,2.67
22.31,-4.73,-7.41,-4.73,-7.41,7.41,7.30,2.92,2.68,2.68,2.68
22.54,-4.61,-7.31,-4.62,-7.31,7.31,7.20,3.01,2.70,2.69,2.69
22.76,-4.50,-7.20,-4.50,-7.20,7.20,7.11,3.09,2.70,2.70,2.70
22.99,-4.39,-7.09,-4.39,-7.10,7.10,7.01,3.18,2.71,2.71,2.70
23.22,-4.27,-6.98,-4.27,-6.99,6.99,6.91,3.27,2.72,2.72,2.71
23.45,-4.16,-6.88,-4.16,-6.89,6.89,6.80,3.36,2.72,2.73,2.72
23.69,-4.04,-6.77,-4.04,-6.78,6.78,6.70,3.46,2.74,2.74,2.73
23.92,-3.93,-6.67,-3.93,-6.67,6.67,6.59,3.55,2.74,2.75,2.74
24.16,-3.81,-6.57,-3.81,-6.57,6.57,6.49,3.65,2.76,2.76,2.76
24.40,-3.70,-6.48,-3.70,-6.46,6.46,6.38,3.75,2.76,2.76,2.78
24.65,-3.58,-6.36,-3.58,-6.36,6.36,6.27,3.84,2.78,2.77,2.78
24.89,-3.47,-6.26,-3.47,-6.26,6.26,6.16,3.94,2.79,2.78,2.79
25.14,-3.36,-6.15,-3.36,-6.15,6.15,6.05,4.05,2.79,2.79,2.79
25.39,-3.24,-6.04,-3.25,-6.05,6.05,5.95,4.15,2.81,2.81,2.80
25.65,-3.13,-5.95,-3.13,-5.95,5.95,5.84,4.25,2.82,2.82,2.82
25.91,-3.02,-5.84,-3.02,-5.85,5.85,5.73,4.35,2.83,2.83,2.82
26.16,-2.91,-5.74,-2.91,-5.75,5.75,5.63,4.45,2.84,2.84,2.83
26.43,-2.80,-5.64,-2.80,-5.65,5.65,5.52,4.55,2.84,2.84,2.84
26.69,-2.70,-5.55,-2.70,-5.55,5.55,5.42,4.65,2.85,2.85,2.85
26.96,-2.59,-5.46,-2.59,-5.45,5.45,5.32,4.75,2.85,2.86,2.87
27.23,-2.48,-5.36,-2.48,-5.35,5.35,5.22,4.85,2.87,2.87,2.87
27.50,-2.37,-5.26,-2.38,-5.25,5.25,5.12,4.94,2.88,2.88,2.88
27.77,-2.27,-5.15,-2.27,-5.16,5.16,5.02,5.03,2.89,2.89,2.88
28.05,-2.16,-5.06,-2.17,-5.06,5.06,4.92,5.11,2.90,2.89,2.90
28.33,-2.06,-4.96,-2.06,-4.96,4.96,4.83,5.19,2.90,2.90,2.90
28.62,-1.96,-4.87,-1.96,-4.87,4.87,4.73,5.27,2.91,2.91,2.91
28.90,-1.85,-4.77,-1.86,-4.77,4.77,4.64,5.34,2.92,2.92,2.92
29.19,-1.76,-4.67,-1.76,-4.68,4.68,4.55,5.40,2.92,2.92,2.91
29.48,-1.66,-4.60,-1.65,-4.59,4.59,4.46,5.46,2.92,2.93,2.94
29.78,-1.56,-4.50,-1.56,-4.49,4.49,4.37,5.51,2.93,2.94,2.94
30.08,-1.46,-4.41,-1.46,-4.40,4.40,4.29,5.55,2.94,2.94,2.95
30.38,-1.36,-4.31,-1.36,-4.31,4.31,4.20,5.58,2.95,2.95,2.95
30.68,-1.26,-4.22,-1.27,-4.22,4.22,4.12,5.60,2.96,2.96,2.96
30.99,-1.16,-4.12,-1.17,-4.14,4.14,4.04,5.62,2.97,2.96,2.96
31.30,-1.08,-4.05,-1.08,-4.05,4.05,3.96,5.62,2.97,2.97,2.97
31.61,-0.99,-3.97,-0.99,-3.97,3.97,3.88,5.62,2.98,2.98,2.98
31.93,-0.90,-3.89,-0.91,-3.89,3.89,3.81,5.61,2.99,2.98,2.98
32.24,-0.82,-3.80,-0.82,-3.81,3.81,3.73,5.59,2.99,2.99,2.98
32.57,-0.74,-3.74,-0.74,-3.74,3.74,3.66,5.56,2.99,3.00,3.00
32.89,-0.66,-3.67,-0.66,-3.66,3.66,3.59,5.52,3.00,3.00,3.01
33.22,-0.58,-3.59,-0.58,-3.59,3.59,3.52,5.47,3.01,3.01,3.01
33.55,-0.50,-3.52,-0.51,-3.52,3.52,3.46,5.42,3.02,3.02,3.02
33.89,-0.43,-3.46,-0.44,-3.46,3.46,3.39,5.36,3.03,3.02,3.03
34.23,-0.36,-3.39,-0.37,-3.39,3.39,3.33,5.30,3.03,3.03,3.03
34.57,-0.30,-3.34,-0.30,-3.33,3.33,3.27,5.23,3.03,3.03,3.04
34.92,-0.23,-3.27,-0.23,-3.27,3.27,3.21,5.16,3.04,3.04,3.04
35.27,-0.17,-3.21,-0.17,-3.21,3.21,3.15,5.08,3.04,3.04,3.04
35.62,-0.11,-3.16,-0.10,-3.15,3.15,3.09,5.00,3.04,3.05,3.05
35.97,-0.04,-3.08,-0.04,-3.09,3.09,3.03,4.91,3.05,3.05,3.04
36.33,0.01,-3.04,0.01,-3.03,3.03,2.98,4.82,3.04,3.05,3.05
36.70,0.07,-2.98,0.07,-2.98,2.98,2.93,4.74,3.05,3.05,3.04
37.06,0.13,-2.92,0.12,-2.92,2.92,2.88,4.64,3.05,3.05,3.05
37.43,0.18,-2.88,0.18,-2.87,2.87,2.83,4.55,3.05,3.05,3.06
37.81,0.23,-2.82,0.23,-2.82,2.82,2.78,4.46,3.05,3.04,3.05
38.19,0.28,-2.77,0.27,-2.77,2.77,2.73,4.37,3.05,3.04,3.05
38.57,0.33,-2.71,0.32,-2.72,2.72,2.69,4.28,3.05,3.04,3.04
38.95,0.37,-2.67,0.37,-2.67,2.67,2.65,4.19,3.04,3.04,3.03
39.34,0.41,-2.62,0.41,-2.62,2.62,2.60,4.10,3.03,3.03,3.03
39.74,0.45,-2.57,0.45,-2.58,2.58,2.56,4.01,3.03,3.03,3.02
40.14,0.49,-2.54,0.49,-2.53,2.53,2.52,3.93,3.02,3.03,3.03
40.54,0.53,-2.49,0.53,-2.49,2.49,2.49,3.84,3.02,3.02,3.02
40.94,0.56,-2.45,0.57,-2.45,2.45,2.45,3.76,3.01,3.02,3.01
41.35,0.60,-2.41,0.61,-2.41,2.41,2.42,3.68,3.01,3.01,3.01
41.76,0.64,-2.37,0.64,-2.36,2.36,2.38,3.60,3.00,3.01,3.01
42.18,0.68,-2.33,0.68,-2.33,2.33,2.35,3.52,3.00,3.00,3.01
42.60,0.71,-2.29,0.71,-2.29,2.29,2.32,3.45,3.00,3.00,3.00
43.03,0.75,-2.26,0.74,-2.25,2.25,2.29,3.38,3.00,2.99,3.01
43.46,0.78,-2.22,0.77,-2.22,2.22,2.27,3.31,3.00,2.99,3.00
43.90,0.80,-2.18,0.80,-2.19,2.19,2.24,3.24,2.99,2.99,2.98
44.33,0.83,-2.15,0.82,-2.16,2.16,2.22,3.17,2.99,2.98,2.98
44.78,0.85,-2.12,0.85,-2.13,2.13,2.19,3.11,2.98,2.98,2.97
45.23,0.87,-2.09,0.87,-2.10,2.10,2.17,3.05,2.97,2.97,2.96
45.68,0.89,-2.07,0.89,-2.08,2.08,2.15,2.99,2.97,2.97,2.96
46.13,0.90,-2.05,0.90,-2.06,2.06,2.14,2.94,2.96,2.96,2.95
46.60,0.91,-2.05,0.91,-2.04,2.04,2.12,2.89,2.95,2.95,2.96
47.06,0.92,-2.03,0.92,-2.02,2.02,2.11,2.84,2.94,2.94,2.95
47.53,0.93,-2.01,0.93,-2.00,2.00,2.09,2.79,2.93,2.93,2.94
48.01,0.93,-2.02,0.93,-1.99,1.99,2.08,2.74,2.92,2.92,2.94
48.49,0.93,-1.99,0.93,-1.98,1.98,2.07,2.70,2.91,2.91,2.92
48.97,0.93,-1.97,0.92,-1.98,1.98,2.06,2.66,2.91,2.90,2.90
49.46,0.92,-1.97,0.91,-1.97,1.97,2.06,2.62,2.89,2.89,2.88
49.96,0.91,-1.95,0.90,-1.97,1.97,2.05,2.58,2.88,2.87,2.86
50.46,0.89,-1.97,0.88,-1.98,1.98,2.05,2.54,2.86,2.85,2.86
50.96,0.86,-1.98,0.86,-1.98,1.98,2.05,2.51,2.84,2.84,2.84
51.47,0.83,-1.98,0.83,-1.99,1.99,2.05,2.48,2.82,2.82,2.81
51.99,0.79,-2.00,0.80,-2.00,2.00,2.05,2.45,2.79,2.80,2.79
52.51,0.76,-2.03,0.76,-2.02,2.02,2.05,2.42,2.78,2.78,2.78
53.03,0.73,-2.03,0.72,-2.04,2.04,2.06,2.39,2.76,2.76,2.76
53.56,0.68,-2.06,0.68,-2.06,2.06,2.07,2.36,2.73,2.73,2.74
54.10,0.64,-2.07,0.63,-2.08,2.08,2.08,2.34,2.72,2.71,2.71
54.64,0.59,-2.10,0.58,-2.11,2.11,2.09,2.31,2.70,2.69,2.69
55.18,0.53,-2.13,0.53,-2.13,2.13,2.10,2.29,2.66,2.67,2.66
55.74,0.48,-2.15,0.48,-2.16,2.16,2.11,2.27,2.64,2.64,2.63
56.29,0.42,-2.20,0.43,-2.19,2.19,2.13,2.25,2.61,2.62,2.62
56.86,0.37,-2.22,0.38,-2.22,2.22,2.15,2.23,2.58,2.59,2.59
57.42,0.32,-2.24,0.33,-2.24,2.24,2.17,2.21,2.56,2.57,2.56
58.00,0.27,-2.27,0.27,-2.27,2.27,2.19,2.19,2.54,2.54,2.53
58.58,0.22,-2.29,0.22,-2.29,2.29,2.21,2.17,2.51,2.51,2.51
59.16,0.17,-2.32,0.17,-2.31,2.31,2.23,2.15,2.48,2.48,2.49
59.76,0.12,-2.34,0.12,-2.33,2.33,2.25,2.13,2.45,2.45,2.46
60.35,0.07,-2.36,0.07,-2.35,2.35,2.27,2.11,2.42,2.41,2.43
60.96,0.02,-2.37,0.02,-2.36,2.36,2.29,2.09,2.38,2.38,2.39
61.57,-0.03,-2.37,-0.03,-2.37,2.37,2.31,2.07,2.34,2.34,2.34
62.18,-0.08,-2.37,-0.08,-2.38,2.38,2.33,2.05,2.30,2.30,2.29
62.80,-0.13,-2.40,-0.13,-2.39,2.39,2.35,2.04,2.26,2.26,2.26
63.43,-0.18,-2.40,-0.17,-2.39,2.39,2.37,2.02,2.21,2.22,2.21
64.07,-0.22,-2.39,-0.22,-2.40,2.40,2.39,2.00,2.17,2.18,2.17
64.71,-0.26,-2.39,-0.26,-2.40,2.40,2.40,1.98,2.14,2.14,2.13
65.35,-0.30,-2.39,-0.31,-2.40,2.40,2.41,1.96,2.10,2.09,2.09
66.01,-0.34,-2.39,-0.35,-2.40,2.40,2.42,1.94,2.06,2.05,2.04
66.67,-0.39,-2.40,-0.40,-2.40,2.40,2.43,1.92,2.01,2.00,2.01
67.33,-0.43,-2.40,-0.44,-2.40,2.40,2.43,1.90,1.97,1.96,1.96
68.01,-0.48,-2.40,-0.48,-2.40,2.40,2.43,1.88,1.91,1.91,1.92
68.69,-0.52,-2.39,-0.52,-2.39,2.39,2.43,1.87,1.87,1.87,1.87
69.37,-0.56,-2.38,-0.56,-2.39,2.39,2.42,1.85,1.83,1.82,1.82
70.07,-0.60,-2.37,-0.60,-2.38,2.38,2.41,1.83,1.78,1.78,1.77
70.77,-0.65,-2.38,-0.64,-2.37,2.37,2.40,1.81,1.72,1.73,1.73
71.48,-0.69,-2.38,-0.68,-2.37,2.37,2.39,1.80,1.68,1.69,1.69
72.19,-0.73,-2.37,-0.71,-2.36,2.36,2.37,1.78,1.63,1.64,1.64
72.91,-0.75,-2.35,-0.75,-2.35,2.35,2.36,1.76,1.60,1.60,1.60
73.64,-0.78,-2.33,-0.78,-2.34,2.34,2.34,1.75,1.56,1.56,1.55
74.38,-0.81,-2.33,-0.81,-2.32,2.32,2.32,1.73,1.51,1.51,1.52
75.12,-0.83,-2.30,-0.84,-2.31,2.31,2.30,1.72,1.48,1.47,1.47
75.87,-0.86,-2.30,-0.87,-2.30,2.30,2.29,1.71,1.44,1.43,1.43
76.63,-0.90,-2.30,-0.90,-2.29,2.29,2.27,1.69,1.39,1.40,1.40
77.40,-0.92,-2.28,-0.92,-2.28,2.28,2.25,1.68,1.36,1.36,1.36
78.17,-0.95,-2.27,-0.95,-2.27,2.27,2.24,1.67,1.32,1.32,1.32
78.95,-0.98,-2.27,-0.98,-2.26,2.26,2.22,1.66,1.28,1.29,1.29
79.74,-1.00,-2.26,-1.00,-2.26,2.26,2.21,1.65,1.25,1.25,1.25
80.54,-1.03,-2.25,-1.04,-2.25,2.25,2.20,1.65,1.22,1.22,1.22
81.35,-1.06,-2.25,-1.07,-2.26,2.26,2.19,1.64,1.19,1.19,1.19
82.16,-1.10,-2.25,-1.11,-2.26,2.26,2.18,1.64,1.16,1.15,1.15
82.98,-1.13,-2.26,-1.14,-2.27,2.27,2.18,1.63,1.13,1.12,1.13
83.81,-1.16,-2.25,-1.18,-2.27,2.27,2.17,1.63,1.11,1.09,1.09
84.65,-1.20,-2.25,-1.22,-2.28,2.28,2.17,1.63,1.08,1.06,1.05
85.50,-1.25,-2.29,-1.26,-2.29,2.29,2.17,1.63,1.04,1.03,1.03
86.35,-1.30,-2.31,-1.30,-2.30,2.30,2.18,1.63,1.00,1.01,1.01
87.22,-1.35,-2.33,-1.34,-2.31,2.31,2.18,1.64,0.96,0.98,0.98
88.09,-1.39,-2.34,-1.38,-2.33,2.33,2.19,1.64,0.94,0.95,0.95
88.97,-1.43,-2.36,-1.42,-2.34,2.34,2.20,1.64,0.91,0.92,0.92
89.86,-1.46,-2.36,-1.46,-2.35,2.35,2.21,1.65,0.89,0.90,0.90
90.76,-1.50,-2.36,-1.49,-2.36,2.36,2.22,1.66,0.86,0.87,0.86
91.66,-1.53,-2.37,-1.53,-2.37,2.37,2.24,1.67,0.84,0.84,0.84
92.58,-1.56,-2.37,-1.57,-2.38,2.38,2.25,1.68,0.81,0.81,0.80
93.51,-1.60,-2.39,-1.60,-2.38,2.38,2.27,1.69,0.78,0.78,0.79
94.44,-1.63,-2.39,-1.63,-2.38,2.38,2.28,1.70,0.75,0.75,0.75
95.39,-1.67,-2.40,-1.66,-2.38,2.38,2.30,1.71,0.71,0.72,0.73
96.34,-1.70,-2.38,-1.70,-2.38,2.38,2.32,1.73,0.68,0.68,0.68
97.30,-1.73,-2.38,-1.73,-2.38,2.38,2.33,1.74,0.65,0.65,0.65
98.28,-1.76,-2.37,-1.77,-2.38,2.38,2.34,1.76,0.62,0.62,0.61
99.26,-1.78,-2.36,-1.80,-2.38,2.38,2.35,1.78,0.60,0.58,0.57
100.25,-1.82,-2.36,-1.84,-2.38,2.38,2.36,1.79,0.56,0.54,0.54
101.25,-1.87,-2.37,-1.88,-2.38,2.38,2.37,1.81,0.50,0.50,0.50
102.27,-1.92,-2.37,-1.92,-2.37,2.37,2.37,1.83,0.45,0.45,0.45
103.29,-1.94,-2.35,-1.96,-2.37,2.37,2.37,1.85,0.42,0.41,0.40
104.32,-1.98,-2.35,-1.99,-2.36,2.36,2.37,1.87,0.37,0.36,0.37
105.37,-2.03,-2.35,-2.03,-2.34,2.34,2.36,1.89,0.31,0.31,0.32
106.42,-2.08,-2.34,-2.07,-2.33,2.33,2.35,1.90,0.25,0.26,0.26
107.48,-2.12,-2.33,-2.10,-2.31,2.31,2.34,1.92,0.18,0.20,0.21
108.56,-2.15,-2.30,-2.13,-2.28,2.28,2.32,1.94,0.13,0.15,0.15
109.64,-2.17,-2.26,-2.16,-2.25,2.25,2.30,1.96,0.07,0.08,0.09
110.74,-2.19,-2.22,-2.18,-2.21,2.21,2.27,1.97,0.01,0.02,0.03
111.85,-2.22,-2.19,-2.21,-2.16,2.16,2.24,1.99,-0.06,-0.04,-0.04
112.97,-2.24,-2.13,-2.22,-2.11,2.11,2.20,2.00,-0.13,-0.11,-0.11
114.10,-2.25,-2.08,-2.24,-2.06,2.06,2.16,2.01,-0.19,-0.18,-0.17
115.24,-2.26,-2.02,-2.26,-2.01,2.01,2.12,2.02,-0.25,-0.24,-0.25
116.39,-2.26,-1.94,-2.27,-1.96,1.96,2.08,2.03,-0.30,-0.31,-0.32
117.55,-2.27,-1.88,-2.29,-1.91,1.91,2.03,2.03,-0.37,-0.38,-0.39
118.73,-2.28,-1.82,-2.30,-1.85,1.85,1.98,2.04,-0.43,-0.45,-0.46
119.92,-2.30,-1.78,-2.32,-1.81,1.81,1.93,2.04,-0.49,-0.52,-0.52
121.12,-2.32,-1.73,-2.35,-1.76,1.76,1.88,2.04,-0.56,-0.58,-0.59
122.33,-2.35,-1.70,-2.37,-1.72,1.72,1.82,2.03,-0.63,-0.65,-0.65
123.55,-2.38,-1.67,-2.40,-1.69,1.69,1.77,2.02,-0.70,-0.71,-0.71
124.79,-2.41,-1.64,-2.42,-1.65,1.65,1.72,2.01,-0.76,-0.77,-0.77
126.03,-2.46,-1.63,-2.45,-1.61,1.61,1.66,2.00,-0.85,-0.83,-0.83
127.29,-2.48,-1.59,-2.47,-1.58,1.58,1.61,1.99,-0.91,-0.89,-0.89
128.57,-2.51,-1.55,-2.49,-1.54,1.54,1.56,1.97,-0.97,-0.95,-0.96
129.85,-2.54,-1.53,-2.51,-1.50,1.50,1.50,1.95,-1.04,-1.01,-1.01
131.15,-2.57,-1.50,-2.53,-1.47,1.47,1.45,1.92,-1.10,-1.06,-1.07
132.46,-2.57,-1.46,-2.55,-1.43,1.43,1.40,1.89,-1.14,-1.11,-1.12
133.79,-2.58,-1.42,-2.56,-1.39,1.39,1.35,1.86,-1.19,-1.17,-1.16
135.12,-2.57,-1.35,-2.57,-1.36,1.36,1.30,1.83,-1.22,-1.22,-1.22
136.48,-2.57,-1.31,-2.59,-1.32,1.32,1.26,1.80,-1.25,-1.27,-1.26
137.84,-2.57,-1.25,-2.60,-1.28,1.28,1.21,1.76,-1.29,-1.32,-1.32
139.22,-2.58,-1.21,-2.61,-1.25,1.25,1.16,1.73,-1.33,-1.36,-1.37
140.61,-2.60,-1.18,-2.63,-1.22,1.22,1.12,1.69,-1.38,-1.41,-1.42
142.02,-2.63,-1.18,-2.65,-1.20,1.20,1.08,1.64,-1.44,-1.45,-1.45
143.44,-2.65,-1.16,-2.67,-1.17,1.17,1.04,1.60,-1.48,-1.50,-1.49
144.87,-2.69,-1.15,-2.70,-1.15,1.15,1.00,1.56,-1.54,-1.55,-1.54
146.32,-2.72,-1.13,-2.73,-1.13,1.13,0.96,1.51,-1.59,-1.59,-1.59
147.78,-2.75,-1.12,-2.75,-1.11,1.11,0.92,1.47,-1.64,-1.64,-1.63
149.26,-2.78,-1.11,-2.78,-1.09,1.09,0.89,1.42,-1.69,-1.69,-1.68
150.75,-2.82,-1.08,-2.81,-1.07,1.07,0.85,1.38,-1.75,-1.74,-1.74
152.26,-2.85,-1.07,-2.83,-1.04,1.04,0.82,1.33,-1.81,-1.78,-1.78
153.78,-2.88,-1.05,-2.85,-1.01,1.01,0.79,1.28,-1.87,-1.83,-1.83
155.32,-2.89,-1.00,-2.86,-0.98,0.98,0.76,1.24,-1.91,-1.88,-1.89
156.88,-2.91,-0.98,-2.88,-0.94,0.94,0.73,1.19,-1.97,-1.93,-1.93
158.44,-2.91,-0.93,-2.89,-0.90,0.90,0.70,1.14,-2.01,-1.99,-1.98
160.03,-2.90,-0.86,-2.90,-0.86,0.86,0.67,1.09,-2.04,-2.04,-2.04
161.63,-2.89,-0.79,-2.91,-0.82,0.82,0.64,1.05,-2.07,-2.09,-2.10
163.24,-2.89,-0.74,-2.92,-0.78,0.78,0.62,1.00,-2.12,-2.14,-2.15
164.88,-2.90,-0.71,-2.93,-0.73,0.73,0.59,0.95,-2.17,-2.20,-2.20
166.53,-2.92,-0.67,-2.95,-0.70,0.70,0.57,0.91,-2.23,-2.25,-2.25
168.19,-2.93,-0.63,-2.97,-0.66,0.66,0.54,0.86,-2.27,-2.31,-2.31
169.87,-2.97,-0.61,-2.99,-0.62,0.62,0.52,0.82,-2.35,-2.36,-2.36
171.57,-2.99,-0.58,-3.01,-0.59,0.59,0.50,0.77,-2.40,-2.42,-2.41
173.29,-3.03,-0.56,-3.04,-0.56,0.56,0.47,0.73,-2.47,-2.48,-2.47
175.02,-3.07,-0.55,-3.07,-0.53,0.53,0.45,0.68,-2.54,-2.54,-2.53
176.77,-3.11,-0.52,-3.10,-0.50,0.50,0.43,0.64,-2.61,-2.60,-2.60
178.54,-3.13,-0.48,-3.13,-0.47,0.47,0.41,0.60,-2.66,-2.65,-2.66
180.32,-3.16,-0.45,-3.15,-0.44,0.44,0.39,0.56,-2.72,-2.71,-2.71
182.13,-3.19,-0.42,-3.18,-0.40,0.40,0.38,0.52,-2.79,-2.78,-2.77
183.95,-3.22,-0.38,-3.20,-0.36,0.36,0.36,0.47,-2.86,-2.84,-2.84
185.79,-3.23,-0.34,-3.21,-0.31,0.31,0.34,0.43,-2.92,-2.90,-2.89
187.65,-3.24,-0.27,-3.22,-0.27,0.27,0.32,0.39,-2.98,-2.96,-2.97
189.52,-3.25,-0.23,-3.23,-0.21,0.21,0.31,0.35,-3.04,-3.02,-3.02
191.42,-3.24,-0.16,-3.24,-0.16,0.16,0.29,0.31,-3.08,-3.08,-3.08
193.33,-3.23,-0.10,-3.24,-0.10,0.10,0.27,0.28,-3.13,-3.13,-3.13
195.27,-3.23,-0.05,-3.24,-0.05,0.05,0.26,0.24,-3.18,-3.19,-3.18
197.22,-3.22,0.02,-3.24,0.01,-0.01,0.24,0.20,-3.23,-3.25,-3.25
199.19,-3.22,0.09,-3.24,0.06,-0.06,0.23,0.16,-3.28,-3.30,-3.31
201.18,-3.22,0.14,-3.23,0.12,-0.12,0.21,0.13,-3.34,-3.35,-3.36
203.19,-3.22,0.18,-3.23,0.17,-0.17,0.20,0.09,-3.40,-3.40,-3.40
205.23,-3.22,0.23,-3.22,0.23,-0.23,0.18,0.06,-3.45,-3.45,-3.46
207.28,-3.22,0.26,-3.22,0.28,-0.28,0.17,0.02,-3.50,-3.50,-3.48
209.35,-3.22,0.32,-3.21,0.33,-0.33,0.16,-0.01,-3.55,-3.55,-3.54
211.44,-3.22,0.38,-3.21,0.38,-0.38,0.14,-0.05,-3.60,-3.59,-3.60
213.56,-3.22,0.41,-3.21,0.42,-0.42,0.13,-0.08,-3.64,-3.63,-3.64
215.69,-3.22,0.44,-3.21,0.46,-0.46,0.12,-0.11,-3.69,-3.67,-3.66
217.85,-3.22,0.49,-3.21,0.50,-0.50,0.10,-0.14,-3.72,-3.71,-3.71
220.03,-3.21,0.54,-3.21,0.54,-0.54,0.09,-0.17,-3.75,-3.75,-3.75
222.23,-3.20,0.59,-3.21,0.57,-0.57,0.08,-0.20,-3.77,-3.78,-3.79
224.45,-3.20,0.61,-3.22,0.59,-0.59,0.07,-0.23,-3.79,-3.81,-3.81
226.70,-3.21,0.62,-3.23,0.61,-0.61,0.05,-0.26,-3.82,-3.84,-3.83
228.96,-3.22,0.65,-3.24,0.62,-0.62,0.04,-0.28,-3.84,-3.86,-3.87
231.25,-3.24,0.64,-3.26,0.63,-0.63,0.03,-0.31,-3.87,-3.89,-3.88
233.57,-3.26,0.64,-3.28,0.63,-0.63,0.02,-0.33,-3.89,-3.90,-3.90
235.90,-3.29,0.63,-3.30,0.62,-0.62,0.01,-0.35,-3.91,-3.92,-3.92
238.26,-3.31,0.62,-3.33,0.61,-0.61,-0.00,-0.37,-3.92,-3.93,-3.94
240.64,-3.35,0.59,-3.35,0.59,-0.59,-0.02,-0.39,-3.94,-3.94,-3.95
243.05,-3.38,0.57,-3.38,0.57,-0.57,-0.03,-0.41,-3.95,-3.95,-3.95
245.48,-3.42,0.54,-3.41,0.55,-0.55,-0.04,-0.43,-3.97,-3.95,-3.96
247.93,-3.46,0.50,-3.43,0.52,-0.52,-0.05,-0.44,-3.98,-3.96,-3.96
250.41,-3.48,0.48,-3.46,0.50,-0.50,-0.06,-0.45,-3.98,-3.96,-3.97
252.92,-3.51,0.44,-3.48,0.47,-0.47,-0.07,-0.47,-3.98,-3.96,-3.96
255.45,-3.52,0.42,-3.50,0.45,-0.45,-0.08,-0.48,-3.97,-3.95,-3.94
258.00,-3.53,0.41,-3.52,0.42,-0.42,-0.09,-0.49,-3.95,-3.95,-3.94
260.58,-3.55,0.39,-3.54,0.39,-0.39,-0.10,-0.50,-3.94,-3.94,-3.94
263.19,-3.56,0.37,-3.56,0.37,-0.37,-0.12,-0.50,-3.93,-3.93,-3.93
265.82,-3.57,0.36,-3.58,0.34,-0.34,-0.13,-0.51,-3.91,-3.92,-3.93
268.48,-3.58,0.32,-3.60,0.30,-0.30,-0.14,-0.51,-3.89,-3.91,-3.90
271.16,-3.59,0.30,-3.63,0.27,-0.27,-0.15,-0.52,-3.86,-3.90,-3.89
273.87,-3.63,0.26,-3.65,0.24,-0.24,-0.16,-0.52,-3.87,-3.89,-3.89
276.61,-3.66,0.20,-3.68,0.20,-0.20,-0.17,-0.52,-3.86,-3.87,-3.86
279.38,-3.69,0.17,-3.71,0.15,-0.15,-0.18,-0.52,-3.84,-3.86,-3.86
282.17,-3.72,0.12,-3.74,0.11,-0.11,-0.19,-0.52,-3.83,-3.85,-3.85
284.99,-3.76,0.07,-3.77,0.07,-0.07,-0.20,-0.52,-3.83,-3.84,-3.83
287.84,-3.80,0.03,-3.80,0.02,-0.02,-0.22,-0.52,-3.83,-3.82,-3.83
290.72,-3.83,-0.02,-3.83,-0.02,0.02,-0.23,-0.52,-3.82,-3.81,-3.81
293.63,-3.86,-0.06,-3.85,-0.05,0.05,-0.24,-0.51,-3.81,-3.80,-3.80
296.57,-3.88,-0.10,-3.87,-0.08,0.08,-0.25,-0.51,-3.80,-3.79,-3.78
299.53,-3.91,-0.13,-3.88,-0.11,0.11,-0.26,-0.51,-3.80,-3.77,-3.78
302.53,-3.92,-0.15,-3.89,-0.13,0.13,-0.27,-0.50,-3.80,-3.76,-3.77
305.55,-3.92,-0.17,-3.89,-0.14,0.14,-0.28,-0.50,-3.79,-3.75,-3.75
308.61,-3.90,-0.16,-3.88,-0.14,0.14,-0.30,-0.50,-3.76,-3.74,-3.74
311.69,-3.87,-0.14,-3.87,-0.14,0.14,-0.31,-0.49,-3.73,-3.73,-3.74
314.81,-3.85,-0.14,-3.85,-0.13,0.13,-0.32,-0.49,-3.72,-3.72,-3.71
317.96,-3.83,-0.12,-3.83,-0.12,0.12,-0.33,-0.48,-3.72,-3.72,-3.71
321.14,-3.80,-0.09,-3.81,-0.10,0.10,-0.34,-0.48,-3.70,-3.71,-3.71
324.35,-3.76,-0.05,-3.78,-0.07,0.07,-0.36,-0.48,-3.69,-3.70,-3.71
327.59,-3.72,-0.03,-3.75,-0.05,0.05,-0.37,-0.47,-3.68,-3.70,-3.69
330.87,-3.70,-0.00,-3.71,-0.02,0.02,-0.38,-0.47,-3.68,-3.70,-3.70
334.18,-3.68,0.02,-3.68,0.01,-0.01,-0.39,-0.47,-3.69,-3.69,-3.70
337.52,-3.64,0.05,-3.65,0.04,-0.04,-0.41,-0.46,-3.68,-3.69,-3.69
340.90,-3.62,0.07,-3.62,0.07,-0.07,-0.42,-0.46,-3.69,-3.69,-3.69
344.30,-3.59,0.10,-3.59,0.10,-0.10,-0.43,-0.46,-3.69,-3.69,-3.69
347.75,-3.55,0.14,-3.56,0.13,-0.13,-0.45,-0.46,-3.68,-3.69,-3.69
351.23,-3.52,0.17,-3.53,0.17,-0.17,-0.46,-0.45,-3.69,-3.70,-3.70
354.74,-3.49,0.21,-3.49,0.21,-0.21,-0.47,-0.45,-3.70,-3.70,-3.70
358.28,-3.46,0.25,-3.46,0.25,-0.25,-0.49,-0.45,-3.71,-3.71,-3.71
361.87,-3.44,0.27,-3.42,0.29,-0.29,-0.50,-0.45,-3.73,-3.71,-3.71
365.49,-3.41,0.30,-3.38,0.34,-0.34,-0.52,-0.45,-3.75,-3.72,-3.71
369.14,-3.36,0.37,-3.34,0.39,-0.39,-0.53,-0.45,-3.75,-3.72,-3.73
372.83,-3.31,0.42,-3.29,0.44,-0.44,-0.55,-0.45,-3.75,-3.73,-3.73
376.56,-3.25,0.49,-3.25,0.49,-0.49,-0.56,-0.45,-3.74,-3.74,-3.74
380.33,-3.19,0.55,-3.21,0.54,-0.54,-0.58,-0.45,-3.73,-3.75,-3.74
384.13,-3.14,0.61,-3.16,0.59,-0.59,-0.59,-0.45,-3.73,-3.75,-3.75
387.97,-3.09,0.67,-3.12,0.64,-0.64,-0.61,-0.45,-3.73,-3.76,-3.77
391.85,-3.05,0.73,-3.08,0.69,-0.69,-0.62,-0.45,-3.75,-3.77,-3.78
395.77,-3.02,0.75,-3.03,0.74,-0.74,-0.64,-0.46,-3.77,-3.78,-3.77
399.73,-2.99,0.79,-2.99,0.79,-0.79,-0.66,-0.46,-3.78,-3.78,-3.78
403.72,-2.96,0.83,-2.95,0.84,-0.84,-0.67,-0.46,-3.80,-3.79,-3.79
407.76,-2.93,0.87,-2.92,0.88,-0.88,-0.69,-0.47,-3.81,-3.80,-3.80
411.84,-2.89,0.90,-2.88,0.92,-0.92,-0.71,-0.47,-3.81,-3.80,-3.80
415.96,-2.85,0.96,-2.85,0.96,-0.96,-0.72,-0.48,-3.81,-3.81,-3.81
420.12,-2.81,1.00,-2.82,1.00,-1.00,-0.74,-0.48,-3.81,-3.81,-3.81
424.32,-2.78,1.03,-2.78,1.03,-1.03,-0.76,-0.49,-3.81,-3.81,-3.81
428.56,-2.75,1.07,-2.75,1.07,-1.07,-0.78,-0.50,-3.82,-3.82,-3.82
432.85,-2.73,1.09,-2.72,1.10,-1.10,-0.80,-0.51,-3.83,-3.82,-3.82
437.18,-2.70,1.12,-2.69,1.13,-1.13,-0.82,-0.52,-3.83,-3.82,-3.82
441.55,-2.67,1.14,-2.66,1.16,-1.16,-0.84,-0.53,-3.83,-3.82,-3.81
445.96,-2.64,1.17,-2.64,1.18,-1.18,-0.85,-0.54,-3.82,-3.82,-3.81
450.42,-2.60,1.22,-2.62,1.20,-1.20,-0.88,-0.55,-3.80,-3.82,-3.83
454.93,-2.58,1.24,-2.60,1.21,-1.21,-0.90,-0.57,-3.80,-3.81,-3.82
459.48,-2.56,1.26,-2.59,1.22,-1.22,-0.92,-0.58,-3.79,-3.81,-3.82
464.07,-2.55,1.26,-2.58,1.23,-1.23,-0.94,-0.60,-3.78,-3.81,-3.81
468.71,-2.55,1.25,-2.57,1.23,-1.23,-0.96,-0.61,-3.78,-3.80,-3.80
473.40,-2.56,1.24,-2.57,1.23,-1.23,-0.98,-0.63,-3.79,-3.80,-3.80
478.13,-2.57,1.22,-2.56,1.23,-1.23,-1.00,-0.65,-3.80,-3.79,-3.79
482.91,-2.58,1.21,-2.56,1.22,-1.22,-1.03,-0.67,-3.81,-3.79,-3.79
