frequency,raw,error,smoothed,error_smoothed,equalization,parametric_eq,fixed_band_eq,equalized_raw,equalized_smoothed,target
20.00,-5.36,-12.61,-5.36,-12.61,12.61,12.37,5.28,7.26,7.26,7.25
20.20,-5.32,-12.56,-5.31,-12.55,12.55,12.33,5.41,7.24,7.24,7.24
20.40,-5.26,-12.50,-5.27,-12.50,12.50,12.28,5.54,7.23,7.23,7.23
20.61,-5.23,-12.45,-5.22,-12.44,12.44,12.24,5.68,7.22,7.22,7.22
20.81,-5.17,-12.38,-5.18,-12.39,12.39,12.20,5.82,7.21,7.21,7.20
21.02,-5.14,-12.33,-5.13,-12.33,12.33,12.16,5.97,7.20,7.20,7.19
21.23,-5.09,-12.27,-5.09,-12.28,12.28,12.11,6.12,7.19,7.19,7.18
21.44,-5.04,-12.24,-5.05,-12.22,12.22,12.07,6.28,7.18,7.18,7.19
21.66,-5.01,-12.18,-5.00,-12.17,12.17,12.03,6.43,7.16,7.17,7.17
21.87,-4.95,-12.13,-4.96,-12.12,12.12,11.98,6.60,7.16,7.16,7.17
22.09,-4.91,-12.07,-4.91,-12.07,12.07,11.94,6.76,7.15,7.15,7.15
22.31,-4.87,-12.02,-4.87,-12.01,12.01,11.90,6.93,7.14,7.14,7.14
22.54,-4.83,-11.96,-4.83,-11.96,11.96,11.86,7.11,7.14,7.14,7.13
22.76,-4.78,-11.92,-4.78,-11.91,11.91,11.81,7.29,7.13,7.13,7.13
22.99,-4.74,-11.86,-4.74,-11.86,11.86,11.77,7.47,7.13,7.13,7.12
23.22,-4.70,-11.81,-4.69,-11.81,11.81,11.73,7.66,7.12,7.12,7.11
23.45,-4.65,-11.77,-4.65,-11.76,11.76,11.68,7.86,7.12,7.12,7.12
23.69,-4.61,-11.72,-4.60,-11.72,11.72,11.64,8.05,7.11,7.11,7.11
23.92,-4.55,-11.66,-4.56,-11.67,11.67,11.60,8.26,7.11,7.11,7.10
24.16,-4.51,-11.63,-4.52,-11.62,11.62,11.56,8.46,7.11,7.10,7.11
24.40,-4.47,-11.59,-4.47,-11.57,11.57,11.51,8.67,7.10,7.10,7.11
24.65,-4.43,-11.53,-4.43,-11.53,11.53,11.47,8.89,7.10,7.10,7.10
24.89,-4.38,-11.49,-4.38,-11.48,11.48,11.43,9.11,7.10,7.10,7.10
25.14,-4.34,-11.44,-4.34,-11.44,11.44,11.39,9.33,7.09,7.10,7.09
25.39,-4.29,-11.39,-4.30,-11.39,11.39,11.34,9.56,7.10,7.10,7.09
25.65,-4.26,-11.35,-4.26,-11.35,11.35,11.30,9.79,7.09,7.09,7.09
25.91,-4.22,-11.31,-4.21,-11.31,11.31,11.26,10.02,7.09,7.09,7.09
26.16,-4.16,-11.27,-4.17,-11.26,11.26,11.22,10.25,7.10,7.09,7.10
26.43,-4.13,-11.22,-4.13,-11.22,11.22,11.17,10.49,7.09,7.09,7.09
26.69,-4.09,-11.18,-4.08,-11.18,11.18,11.13,10.72,7.09,7.09,7.09
26.96,-4.05,-11.14,-4.04,-11.14,11.14,11.09,10.96,7.09,7.09,7.09
27.23,-4.01,-11.10,-4.00,-11.10,11.10,11.05,11.19,7.09,7.10,7.09
27.50,-3.96,-11.05,-3.96,-11.06,11.06,11.01,11.42,7.10,7.10,7.09
27.77,-3.91,-11.02,-3.92,-11.02,11.02,10.97,11.65,7.10,7.10,7.10
28.05,-3.88,-10.97,-3.88,-10.98,10.98,10.92,11.87,7.10,7.10,7.09
28.33,-3.84,-10.94,-3.84,-10.94,10.94,10.88,12.08,7.10,7.10,7.10
28.62,-3.80,-10.90,-3.79,-10.90,10.90,10.84,12.29,7.10,7.10,7.10
28.90,-3.76,-10.87,-3.75,-10.86,10.86,10.80,12.48,7.10,7.10,7.11
29.19,-3.72,-10.83,-3.71,-10.81,10.81,10.76,12.65,7.10,7.10,7.11
29.48,-3.68,-10.78,-3.67,-10.77,10.77,10.72,12.81,7.10,7.10,7.10
29.78,-3.64,-10.74,-3.63,-10.73,10.73,10.67,12.95,7.10,7.10,7.10
30.08,-3.60,-10.70,-3.59,-10.69,10.69,10.63,13.08,7.09,7.10,7.10
30.38,-3.56,-10.64,-3.56,-10.65,10.65,10.59,13.17,7.09,7.09,7.08
30.68,-3.52,-10.60,-3.52,-10.61,10.61,10.55,13.25,7.09,7.09,7.08
30.99,-3.48,-10.56,-3.48,-10.56,10.56,10.51,13.30,7.09,7.08,7.08
31.30,-3.45,-10.53,-3.44,-10.52,10.52,10.47,13.33,7.08,7.08,7.08
31.61,-3.41,-10.48,-3.41,-10.48,10.48,10.43,13.33,7.07,7.07,7.07
31.93,-3.38,-10.43,-3.38,-10.44,10.44,10.38,13.30,7.06,7.06,7.05
32.24,-3.34,-10.41,-3.34,-10.40,10.40,10.34,13.26,7.05,7.05,7.06
32.57,-3.31,-10.35,-3.31,-10.36,10.36,10.30,13.19,7.05,7.05,7.04
32.89,-3.28,-10.32,-3.28,-10.32,10.32,10.26,13.10,7.05,7.04,7.04
33.22,-3.25,-10.28,-3.25,-10.29,10.29,10.22,12.99,7.04,7.04,7.03
33.55,-3.23,-10.26,-3.22,-10.25,10.25,10.17,12.86,7.03,7.03,7.03
33.89,-3.20,-10.22,-3.19,-10.21,10.21,10.13,12.72,7.02,7.02,7.02
34.23,-3.17,-10.17,-3.17,-10.18,10.18,10.09,12.57,7.01,7.01,7.00
34.57,-3.14,-10.14,-3.14,-10.14,10.14,10.05,12.41,7.01,7.00,7.00
34.92,-3.12,-10.10,-3.11,-10.10,10.10,10.00,12.24,6.99,6.99,6.98
35.27,-3.09,-10.09,-3.08,-10.06,10.06,9.96,12.06,6.98,6.98,7.00
35.62,-3.06,-10.03,-3.05,-10.02,10.02,9.92,11.88,6.97,6.97,6.97
35.97,-3.02,-10.00,-3.02,-9.98,9.98,9.88,11.70,6.96,6.96,6.97
36.33,-3.00,-9.95,-2.99,-9.94,9.94,9.83,11.51,6.94,6.95,6.95
36.70,-2.97,-9.90,-2.96,-9.89,9.89,9.79,11.33,6.93,6.93,6.93
37.06,-2.94,-9.85,-2.93,-9.85,9.85,9.74,11.14,6.91,6.91,6.91
37.43,-2.90,-9.80,-2.90,-9.80,9.80,9.70,10.96,6.89,6.90,6.89
37.81,-2.88,-9.76,-2.88,-9.75,9.75,9.66,10.78,6.88,6.88,6.88
38.19,-2.85,-9.70,-2.85,-9.70,9.70,9.61,10.61,6.86,6.86,6.85
38.57,-2.82,-9.65,-2.82,-9.65,9.65,9.57,10.43,6.84,6.83,6.83
38.95,-2.79,-9.61,-2.79,-9.61,9.61,9.52,10.27,6.82,6.81,6.82
39.34,-2.77,-9.56,-2.77,-9.56,9.56,9.48,10.10,6.79,6.79,6.79
39.74,-2.74,-9.50,-2.74,-9.51,9.51,9.43,9.95,6.78,6.77,6.76
40.14,-2.71,-9.45,-2.72,-9.46,9.46,9.38,9.79,6.76,6.75,6.74
40.54,-2.70,-9.42,-2.69,-9.42,9.42,9.34,9.65,6.72,6.72,6.72
40.94,-2.68,-9.37,-2.67,-9.37,9.37,9.29,9.51,6.70,6.70,6.69
41.35,-2.66,-9.34,-2.65,-9.33,9.33,9.25,9.37,6.67,6.68,6.68
41.76,-2.63,-9.28,-2.63,-9.28,9.28,9.20,9.24,6.66,6.66,6.65
42.18,-2.61,-9.25,-2.60,-9.24,9.24,9.15,9.12,6.63,6.63,6.64
42.60,-2.58,-9.19,-2.58,-9.19,9.19,9.10,9.00,6.61,6.61,6.61
43.03,-2.56,-9.15,-2.56,-9.14,9.14,9.05,8.89,6.59,6.59,6.59
43.46,-2.54,-9.09,-2.53,-9.09,9.09,9.01,8.78,6.56,6.56,6.55
43.90,-2.52,-9.05,-2.51,-9.04,9.04,8.96,8.68,6.53,6.53,6.53
44.33,-2.49,-8.99,-2.48,-8.99,8.99,8.91,8.59,6.50,6.51,6.50
44.78,-2.46,-8.94,-2.46,-8.93,8.93,8.86,8.50,6.48,6.48,6.48
45.23,-2.44,-8.90,-2.43,-8.88,8.88,8.81,8.42,6.44,6.45,6.46
45.68,-2.41,-8.82,-2.40,-8.82,8.82,8.76,8.34,6.41,6.41,6.41
46.13,-2.38,-8.76,-2.38,-8.76,8.76,8.71,8.27,6.38,6.38,6.38
46.60,-2.35,-8.69,-2.35,-8.70,8.70,8.65,8.20,6.35,6.34,6.34
47.06,-2.33,-8.64,-2.33,-8.63,8.63,8.60,8.14,6.31,6.30,6.31
47.53,-2.31,-8.58,-2.31,-8.57,8.57,8.55,8.09,6.26,6.26,6.27
48.01,-2.29,-8.51,-2.28,-8.51,8.51,8.50,8.03,6.22,6.22,6.22
48.49,-2.27,-8.45,-2.26,-8.44,8.44,8.44,7.99,6.18,6.18,6.18
48.97,-2.25,-8.38,-2.24,-8.38,8.38,8.39,7.95,6.14,6.14,6.13
49.46,-2.23,-8.33,-2.22,-8.32,8.32,8.34,7.91,6.10,6.10,6.10
49.96,-2.20,-8.24,-2.21,-8.27,8.27,8.28,7.88,6.07,6.06,6.04
50.46,-2.19,-8.20,-2.19,-8.21,8.21,8.23,7.85,6.02,6.01,6.01
50.96,-2.17,-8.14,-2.18,-8.15,8.15,8.17,7.82,5.98,5.97,5.97
51.47,-2.16,-8.09,-2.16,-8.09,8.09,8.12,7.80,5.94,5.93,5.93
51.99,-2.15,-8.03,-2.15,-8.04,8.04,8.06,7.78,5.89,5.89,5.88
52.51,-2.14,-7.99,-2.13,-7.98,7.98,8.00,7.76,5.85,5.85,5.85
53.03,-2.14,-7.96,-2.12,-7.93,7.93,7.95,7.74,5.79,5.81,5.82
53.56,-2.12,-7.89,-2.11,-7.87,7.87,7.89,7.73,5.76,5.77,5.77
54.10,-2.11,-7.83,-2.09,-7.82,7.82,7.83,7.71,5.71,5.73,5.72
54.64,-2.09,-7.77,-2.08,-7.76,7.76,7.77,7.70,5.68,5.69,5.68
55.18,-2.07,-7.71,-2.06,-7.71,7.71,7.72,7.68,5.65,5.65,5.64
55.74,-2.05,-7.64,-2.05,-7.66,7.66,7.66,7.67,5.61,5.61,5.59
56.29,-2.03,-7.60,-2.03,-7.60,7.60,7.60,7.65,5.58,5.57,5.57
56.86,-2.01,-7.54,-2.01,-7.55,7.55,7.54,7.64,5.54,5.53,5.53
57.42,-2.00,-7.48,-2.00,-7.49,7.49,7.48,7.62,5.49,5.49,5.48
58.00,-1.98,-7.42,-1.98,-7.43,7.43,7.41,7.59,5.45,5.45,5.44
58.58,-1.96,-7.37,-1.96,-7.37,7.37,7.35,7.57,5.41,5.40,5.41
59.16,-1.95,-7.33,-1.94,-7.30,7.30,7.29,7.54,5.36,5.36,5.38
59.76,-1.93,-7.26,-1.93,-7.24,7.24,7.23,7.50,5.31,5.31,5.33
60.35,-1.92,-7.20,-1.91,-7.17,7.17,7.17,7.47,5.25,5.26,5.28
60.96,-1.90,-7.12,-1.89,-7.10,7.10,7.10,7.42,5.21,5.21,5.22
61.57,-1.88,-7.04,-1.87,-7.03,7.03,7.04,7.37,5.16,5.16,5.16
62.18,-1.86,-6.96,-1.85,-6.96,6.96,6.97,7.32,5.11,5.11,5.10
62.80,-1.85,-6.89,-1.83,-6.89,6.89,6.91,7.26,5.04,5.06,5.04
63.43,-1.82,-6.81,-1.81,-6.82,6.82,6.85,7.20,5.00,5.00,4.99
64.07,-1.80,-6.74,-1.80,-6.75,6.75,6.78,7.13,4.95,4.95,4.94
64.71,-1.78,-6.67,-1.78,-6.68,6.68,6.71,7.05,4.90,4.89,4.89
65.35,-1.76,-6.59,-1.77,-6.61,6.61,6.65,6.97,4.85,4.84,4.83
66.01,-1.75,-6.53,-1.76,-6.54,6.54,6.58,6.88,4.80,4.78,4.78
66.67,-1.74,-6.48,-1.75,-6.48,6.48,6.52,6.79,4.75,4.73,4.74
67.33,-1.74,-6.41,-1.74,-6.42,6.42,6.45,6.70,4.68,4.67,4.67
68.01,-1.73,-6.35,-1.74,-6.36,6.36,6.38,6.60,4.63,4.62,4.62
68.69,-1.73,-6.30,-1.73,-6.30,6.30,6.31,6.50,4.57,4.57,4.57
69.37,-1.73,-6.25,-1.73,-6.23,6.23,6.24,6.40,4.51,4.51,4.52
70.07,-1.73,-6.19,-1.72,-6.17,6.17,6.18,6.29,4.45,4.45,4.46
70.77,-1.73,-6.12,-1.71,-6.11,6.11,6.11,6.18,4.38,4.39,4.39
71.48,-1.73,-6.07,-1.71,-6.04,6.04,6.04,6.07,4.32,4.34,4.34
72.19,-1.72,-6.00,-1.70,-5.98,5.98,5.97,5.96,4.26,4.28,4.28
72.91,-1.70,-5.91,-1.68,-5.91,5.91,5.90,5.84,4.21,4.22,4.21
73.64,-1.68,-5.84,-1.67,-5.83,5.83,5.83,5.73,4.16,4.17,4.16
74.38,-1.66,-5.76,-1.65,-5.76,5.76,5.76,5.62,4.11,4.11,4.10
75.12,-1.64,-5.69,-1.63,-5.69,5.69,5.69,5.51,4.05,4.06,4.05
75.87,-1.61,-5.61,-1.61,-5.61,5.61,5.62,5.39,4.01,4.00,4.00
76.63,-1.59,-5.53,-1.58,-5.53,5.53,5.54,5.28,3.95,3.95,3.94
77.40,-1.56,-5.46,-1.56,-5.46,5.46,5.47,5.17,3.90,3.90,3.90
78.17,-1.53,-5.37,-1.53,-5.38,5.38,5.40,5.07,3.85,3.85,3.84
78.95,-1.51,-5.31,-1.50,-5.30,5.30,5.33,4.96,3.80,3.80,3.80
79.74,-1.49,-5.24,-1.48,-5.23,5.23,5.26,4.86,3.74,3.75,3.75
80.54,-1.46,-5.16,-1.46,-5.16,5.16,5.19,4.75,3.70,3.70,3.70
81.35,-1.44,-5.08,-1.44,-5.09,5.09,5.11,4.66,3.65,3.65,3.64
82.16,-1.42,-5.03,-1.42,-5.02,5.02,5.04,4.56,3.61,3.60,3.61
82.98,-1.40,-4.95,-1.41,-4.96,4.96,4.97,4.46,3.56,3.55,3.55
83.81,-1.39,-4.89,-1.40,-4.90,4.90,4.89,4.37,3.51,3.49,3.50
84.65,-1.38,-4.82,-1.40,-4.84,4.84,4.82,4.28,3.47,3.44,3.44
85.50,-1.38,-4.76,-1.40,-4.79,4.79,4.75,4.20,3.41,3.39,3.38
86.35,-1.39,-4.72,-1.40,-4.73,4.73,4.67,4.11,3.35,3.33,3.33
87.22,-1.40,-4.68,-1.40,-4.68,4.68,4.60,4.03,3.28,3.28,3.28
88.09,-1.41,-4.63,-1.40,-4.63,4.63,4.53,3.96,3.22,3.22,3.22
88.97,-1.42,-4.58,-1.40,-4.57,4.57,4.45,3.88,3.16,3.17,3.16
89.86,-1.43,-4.54,-1.41,-4.51,4.51,4.38,3.81,3.09,3.11,3.11
90.76,-1.43,-4.48,-1.40,-4.45,4.45,4.30,3.74,3.03,3.05,3.05
91.66,-1.42,-4.40,-1.40,-4.39,4.39,4.23,3.67,2.97,2.99,2.98
92.58,-1.41,-4.34,-1.39,-4.32,4.32,4.16,3.61,2.91,2.93,2.93
93.51,-1.39,-4.27,-1.37,-4.24,4.24,4.08,3.54,2.86,2.87,2.88
94.44,-1.37,-4.19,-1.35,-4.16,4.16,4.01,3.49,2.80,2.81,2.82
95.39,-1.35,-4.10,-1.33,-4.08,4.08,3.93,3.43,2.73,2.75,2.75
96.34,-1.32,-4.00,-1.31,-3.99,3.99,3.86,3.37,2.68,2.68,2.68
97.30,-1.29,-3.91,-1.28,-3.90,3.90,3.78,3.32,2.62,2.62,2.62
98.28,-1.25,-3.80,-1.25,-3.81,3.81,3.71,3.27,2.57,2.56,2.55
99.26,-1.22,-3.71,-1.22,-3.72,3.72,3.64,3.22,2.50,2.50,2.49
100.25,-1.18,-3.61,-1.19,-3.63,3.63,3.56,3.18,2.46,2.44,2.43
101.25,-1.15,-3.53,-1.16,-3.55,3.55,3.49,3.13,2.40,2.38,2.38
102.27,-1.13,-3.45,-1.14,-3.46,3.46,3.41,3.09,2.34,2.32,2.32
103.29,-1.12,-3.38,-1.12,-3.39,3.39,3.34,3.05,2.27,2.27,2.26
104.32,-1.10,-3.31,-1.10,-3.31,3.31,3.27,3.01,2.22,2.21,2.21
105.37,-1.08,-3.23,-1.09,-3.24,3.24,3.19,2.97,2.17,2.15,2.15
106.42,-1.07,-3.17,-1.08,-3.18,3.18,3.12,2.93,2.12,2.10,2.10
107.48,-1.06,-3.10,-1.08,-3.12,3.12,3.04,2.89,2.07,2.04,2.04
108.56,-1.07,-3.06,-1.08,-3.06,3.06,2.97,2.86,2.00,1.98,1.99
109.64,-1.08,-3.01,-1.08,-3.01,3.01,2.90,2.82,1.93,1.93,1.93
110.74,-1.09,-2.96,-1.08,-2.95,2.95,2.82,2.79,1.86,1.87,1.87
111.85,-1.09,-2.90,-1.08,-2.89,2.89,2.75,2.75,1.81,1.81,1.81
112.97,-1.10,-2.86,-1.08,-2.83,2.83,2.68,2.72,1.74,1.75,1.76
114.10,-1.11,-2.81,-1.08,-2.77,2.77,2.60,2.68,1.67,1.69,1.70
115.24,-1.10,-2.72,-1.07,-2.71,2.71,2.53,2.64,1.61,1.63,1.62
116.39,-1.09,-2.65,-1.07,-2.64,2.64,2.46,2.61,1.55,1.58,1.56
117.55,-1.08,-2.58,-1.05,-2.57,2.57,2.39,2.57,1.49,1.52,1.50
118.73,-1.06,-2.50,-1.03,-2.49,2.49,2.32,2.53,1.44,1.46,1.44
119.92,-1.02,-2.42,-1.01,-2.41,2.41,2.24,2.49,1.40,1.40,1.40
121.12,-0.99,-2.34,-0.98,-2.33,2.33,2.17,2.44,1.34,1.35,1.35
122.33,-0.96,-2.25,-0.95,-2.24,2.24,2.10,2.40,1.29,1.29,1.29
123.55,-0.93,-2.17,-0.92,-2.15,2.15,2.03,2.36,1.23,1.23,1.24
124.79,-0.89,-2.08,-0.89,-2.07,2.07,1.96,2.31,1.18,1.18,1.19
126.03,-0.85,-1.98,-0.86,-1.98,1.98,1.89,2.26,1.14,1.12,1.13
127.29,-0.83,-1.91,-0.83,-1.90,1.90,1.82,2.21,1.08,1.07,1.08
128.57,-0.80,-1.81,-0.81,-1.83,1.83,1.75,2.16,1.03,1.02,1.01
129.85,-0.77,-1.73,-0.79,-1.75,1.75,1.68,2.11,0.99,0.96,0.96
131.15,-0.75,-1.65,-0.78,-1.68,1.68,1.61,2.05,0.94,0.91,0.90
132.46,-0.74,-1.59,-0.77,-1.62,1.62,1.54,1.99,0.88,0.85,0.85
133.79,-0.74,-1.53,-0.76,-1.56,1.56,1.47,1.94,0.82,0.80,0.79
135.12,-0.74,-1.48,-0.76,-1.50,1.50,1.41,1.88,0.76,0.74,0.74
136.48,-0.75,-1.44,-0.75,-1.44,1.44,1.34,1.82,0.70,0.69,0.69
137.84,-0.77,-1.41,-0.75,-1.39,1.39,1.27,1.75,0.63,0.64,0.64
139.22,-0.78,-1.36,-0.75,-1.34,1.34,1.20,1.69,0.56,0.59,0.58
140.61,-0.78,-1.32,-0.74,-1.28,1.28,1.14,1.62,0.51,0.54,0.54
142.02,-0.77,-1.25,-0.74,-1.23,1.23,1.07,1.56,0.46,0.49,0.48
143.44,-0.76,-1.20,-0.73,-1.17,1.17,1.01,1.49,0.42,0.45,0.44
144.87,-0.73,-1.13,-0.71,-1.11,1.11,0.94,1.42,0.38,0.40,0.40
146.32,-0.71,-1.06,-0.69,-1.04,1.04,0.88,1.35,0.34,0.35,0.35
147.78,-0.68,-0.99,-0.66,-0.97,0.97,0.81,1.28,0.30,0.31,0.31
149.26,-0.65,-0.91,-0.64,-0.90,0.90,0.75,1.21,0.26,0.27,0.26
150.75,-0.61,-0.83,-0.61,-0.83,0.83,0.68,1.14,0.22,0.22,0.22
152.26,-0.58,-0.76,-0.58,-0.76,0.76,0.62,1.07,0.18,0.18,0.18
153.78,-0.54,-0.68,-0.55,-0.69,0.69,0.56,1.00,0.15,0.14,0.14
155.32,-0.51,-0.61,-0.52,-0.62,0.62,0.50,0.93,0.11,0.09,0.10
156.88,-0.47,-0.52,-0.50,-0.55,0.55,0.43,0.85,0.09,0.05,0.05
158.44,-0.46,-0.46,-0.48,-0.49,0.49,0.37,0.78,0.03,0.01,0.00
160.03,-0.44,-0.40,-0.47,-0.43,0.43,0.31,0.71,-0.01,-0.04,-0.04
161.63,-0.43,-0.35,-0.45,-0.37,0.37,0.25,0.64,-0.06,-0.08,-0.08
163.24,-0.43,-0.30,-0.44,-0.31,0.31,0.19,0.56,-0.12,-0.13,-0.13
164.88,-0.44,-0.26,-0.43,-0.25,0.25,0.13,0.49,-0.18,-0.18,-0.18
166.53,-0.44,-0.21,-0.41,-0.19,0.19,0.07,0.42,-0.24,-0.22,-0.23
168.19,-0.44,-0.18,-0.40,-0.13,0.13,0.02,0.35,-0.30,-0.27,-0.26
169.87,-0.42,-0.10,-0.39,-0.07,0.07,-0.04,0.27,-0.35,-0.32,-0.32
171.57,-0.40,-0.03,-0.37,-0.00,0.00,-0.10,0.20,-0.39,-0.36,-0.37
173.29,-0.38,0.03,-0.35,0.07,-0.07,-0.16,0.13,-0.44,-0.41,-0.41
175.02,-0.34,0.12,-0.32,0.14,-0.14,-0.21,0.05,-0.47,-0.46,-0.46
176.77,-0.30,0.21,-0.30,0.21,-0.21,-0.27,-0.02,-0.50,-0.50,-0.51
178.54,-0.28,0.27,-0.27,0.28,-0.28,-0.32,-0.10,-0.56,-0.55,-0.55
180.32,-0.24,0.37,-0.24,0.36,-0.36,-0.38,-0.17,-0.59,-0.60,-0.61
182.13,-0.21,0.43,-0.22,0.43,-0.43,-0.43,-0.24,-0.63,-0.64,-0.64
183.95,-0.17,0.52,-0.19,0.50,-0.50,-0.48,-0.32,-0.66,-0.69,-0.69
185.79,-0.14,0.60,-0.17,0.57,-0.57,-0.54,-0.39,-0.70,-0.74,-0.74
187.65,-0.12,0.66,-0.15,0.63,-0.63,-0.59,-0.47,-0.74,-0.78,-0.78
189.52,-0.11,0.71,-0.14,0.69,-0.69,-0.64,-0.54,-0.79,-0.82,-0.82
191.42,-0.11,0.75,-0.12,0.74,-0.74,-0.69,-0.62,-0.85,-0.86,-0.86
193.33,-0.11,0.79,-0.11,0.80,-0.80,-0.74,-0.69,-0.90,-0.91,-0.90
195.27,-0.12,0.83,-0.10,0.85,-0.85,-0.79,-0.77,-0.96,-0.95,-0.95
197.22,-0.11,0.89,-0.08,0.90,-0.90,-0.84,-0.84,-1.00,-0.98,-1.00
199.19,-0.10,0.93,-0.07,0.95,-0.95,-0.89,-0.92,-1.05,-1.02,-1.03
201.18,-0.09,0.98,-0.05,1.00,-1.00,-0.94,-0.99,-1.09,-1.06,-1.07
203.19,-0.07,1.03,-0.03,1.06,-1.06,-0.99,-1.07,-1.12,-1.09,-1.10
205.23,-0.04,1.08,-0.01,1.11,-1.11,-1.03,-1.14,-1.15,-1.13,-1.12
207.28,-0.01,1.14,0.01,1.17,-1.17,-1.08,-1.21,-1.17,-1.16,-1.15
209.35,0.03,1.22,0.04,1.23,-1.23,-1.12,-1.28,-1.19,-1.19,-1.19
211.44,0.06,1.28,0.06,1.28,-1.28,-1.17,-1.36,-1.22,-1.22,-1.22
213.56,0.10,1.34,0.09,1.34,-1.34,-1.21,-1.43,-1.23,-1.25,-1.24
215.69,0.14,1.41,0.12,1.39,-1.39,-1.26,-1.49,-1.24,-1.27,-1.27
217.85,0.17,1.47,0.14,1.44,-1.44,-1.30,-1.56,-1.26,-1.30,-1.30
220.03,0.18,1.51,0.16,1.48,-1.48,-1.34,-1.63,-1.30,-1.32,-1.33
222.23,0.20,1.56,0.18,1.53,-1.53,-1.38,-1.69,-1.32,-1.35,-1.36
224.45,0.21,1.58,0.20,1.57,-1.57,-1.43,-1.75,-1.35,-1.37,-1.37
226.70,0.21,1.61,0.21,1.60,-1.60,-1.47,-1.81,-1.39,-1.39,-1.40
228.96,0.22,1.63,0.23,1.64,-1.64,-1.51,-1.87,-1.41,-1.41,-1.41
231.25,0.22,1.65,0.24,1.67,-1.67,-1.55,-1.92,-1.45,-1.43,-1.43
233.57,0.22,1.67,0.26,1.70,-1.70,-1.58,-1.98,-1.48,-1.45,-1.45
235.90,0.24,1.70,0.27,1.74,-1.74,-1.62,-2.02,-1.49,-1.46,-1.46
238.26,0.26,1.75,0.29,1.77,-1.77,-1.66,-2.07,-1.50,-1.47,-1.49
240.64,0.29,1.77,0.31,1.80,-1.80,-1.70,-2.11,-1.50,-1.49,-1.48
243.05,0.32,1.82,0.34,1.83,-1.83,-1.73,-2.15,-1.51,-1.49,-1.50
245.48,0.35,1.86,0.36,1.87,-1.87,-1.77,-2.18,-1.51,-1.50,-1.51
247.93,0.40,1.92,0.39,1.90,-1.90,-1.80,-2.22,-1.49,-1.51,-1.52
250.41,0.42,1.93,0.41,1.93,-1.93,-1.84,-2.24,-1.50,-1.52,-1.51
252.92,0.46,1.98,0.44,1.96,-1.96,-1.87,-2.27,-1.49,-1.52,-1.52
255.45,0.48,2.01,0.46,1.99,-1.99,-1.90,-2.29,-1.50,-1.53,-1.53
258.00,0.50,2.03,0.48,2.01,-2.01,-1.94,-2.30,-1.51,-1.53,-1.53
260.58,0.52,2.05,0.50,2.04,-2.04,-1.97,-2.32,-1.51,-1.53,-1.53
263.19,0.53,2.06,0.52,2.06,-2.06,-2.00,-2.33,-1.52,-1.54,-1.53
265.82,0.54,2.08,0.54,2.08,-2.08,-2.03,-2.33,-1.54,-1.54,-1.54
268.48,0.55,2.09,0.56,2.10,-2.10,-2.06,-2.34,-1.55,-1.54,-1.54
271.16,0.56,2.10,0.58,2.12,-2.12,-2.09,-2.34,-1.56,-1.54,-1.54
273.87,0.57,2.11,0.60,2.14,-2.14,-2.12,-2.34,-1.57,-1.54,-1.54
276.61,0.59,2.13,0.62,2.16,-2.16,-2.15,-2.33,-1.57,-1.55,-1.54
279.38,0.61,2.17,0.64,2.19,-2.19,-2.17,-2.33,-1.57,-1.55,-1.56
282.17,0.64,2.20,0.66,2.21,-2.21,-2.20,-2.32,-1.56,-1.55,-1.56
284.99,0.67,2.22,0.69,2.23,-2.23,-2.23,-2.31,-1.56,-1.54,-1.55
287.84,0.72,2.26,0.71,2.25,-2.25,-2.25,-2.31,-1.53,-1.54,-1.54
290.72,0.75,2.30,0.74,2.27,-2.27,-2.28,-2.30,-1.52,-1.54,-1.55
293.63,0.78,2.32,0.76,2.30,-2.30,-2.30,-2.28,-1.51,-1.54,-1.54
296.57,0.80,2.33,0.78,2.32,-2.32,-2.33,-2.27,-1.51,-1.53,-1.53
299.53,0.82,2.35,0.81,2.33,-2.33,-2.35,-2.26,-1.51,-1.53,-1.53
302.53,0.83,2.34,0.83,2.35,-2.35,-2.37,-2.25,-1.52,-1.52,-1.51
305.55,0.85,2.37,0.85,2.37,-2.37,-2.39,-2.24,-1.51,-1.52,-1.52
308.61,0.87,2.38,0.88,2.38,-2.38,-2.41,-2.23,-1.51,-1.51,-1.51
311.69,0.89,2.39,0.90,2.40,-2.40,-2.43,-2.22,-1.50,-1.50,-1.50
314.81,0.90,2.40,0.92,2.41,-2.41,-2.45,-2.21,-1.51,-1.49,-1.50
317.96,0.92,2.41,0.95,2.43,-2.43,-2.47,-2.21,-1.51,-1.49,-1.49
321.14,0.94,2.42,0.97,2.45,-2.45,-2.49,-2.20,-1.50,-1.48,-1.48
324.35,0.97,2.45,1.00,2.47,-2.47,-2.51,-2.19,-1.49,-1.47,-1.48
327.59,1.01,2.46,1.03,2.49,-2.49,-2.53,-2.19,-1.48,-1.46,-1.45
330.87,1.04,2.50,1.06,2.51,-2.51,-2.54,-2.19,-1.47,-1.46,-1.46
334.18,1.08,2.53,1.08,2.53,-2.53,-2.56,-2.19,-1.45,-1.45,-1.45
337.52,1.12,2.57,1.11,2.55,-2.55,-2.58,-2.19,-1.42,-1.44,-1.45
340.90,1.14,2.57,1.13,2.56,-2.56,-2.59,-2.19,-1.41,-1.43,-1.43
344.30,1.17,2.59,1.14,2.57,-2.57,-2.61,-2.20,-1.39,-1.42,-1.42
347.75,1.18,2.60,1.16,2.57,-2.57,-2.62,-2.20,-1.39,-1.42,-1.42
351.23,1.20,2.62,1.17,2.58,-2.58,-2.63,-2.21,-1.37,-1.41,-1.42
354.74,1.21,2.60,1.18,2.58,-2.58,-2.65,-2.22,-1.37,-1.40,-1.39
358.28,1.20,2.60,1.19,2.58,-2.58,-2.66,-2.23,-1.38,-1.39,-1.40
361.87,1.19,2.58,1.20,2.58,-2.58,-2.67,-2.24,-1.39,-1.39,-1.39
365.49,1.17,2.55,1.20,2.58,-2.58,-2.68,-2.26,-1.41,-1.38,-1.38
369.14,1.17,2.53,1.21,2.58,-2.58,-2.69,-2.28,-1.40,-1.37,-1.36
372.83,1.18,2.54,1.22,2.58,-2.58,-2.70,-2.30,-1.39,-1.36,-1.36
376.56,1.20,2.56,1.23,2.58,-2.58,-2.71,-2.32,-1.38,-1.35,-1.36
380.33,1.22,2.57,1.25,2.59,-2.59,-2.72,-2.34,-1.37,-1.34,-1.35
384.13,1.25,2.58,1.27,2.60,-2.60,-2.72,-2.36,-1.35,-1.33,-1.33
387.97,1.28,2.61,1.29,2.62,-2.62,-2.73,-2.39,-1.33,-1.32,-1.33
391.85,1.31,2.63,1.32,2.63,-2.63,-2.74,-2.41,-1.32,-1.31,-1.32
395.77,1.34,2.65,1.35,2.65,-2.65,-2.74,-2.44,-1.31,-1.30,-1.31
399.73,1.38,2.68,1.38,2.67,-2.67,-2.75,-2.47,-1.29,-1.29,-1.30
403.72,1.41,2.68,1.41,2.69,-2.69,-2.75,-2.50,-1.28,-1.28,-1.27
407.76,1.44,2.72,1.44,2.71,-2.71,-2.76,-2.53,-1.27,-1.27,-1.28
411.84,1.47,2.74,1.46,2.73,-2.73,-2.76,-2.56,-1.25,-1.27,-1.27
415.96,1.49,2.74,1.48,2.74,-2.74,-2.76,-2.59,-1.24,-1.26,-1.25
420.12,1.52,2.77,1.50,2.74,-2.74,-2.76,-2.62,-1.22,-1.25,-1.25
424.32,1.53,2.77,1.51,2.75,-2.75,-2.76,-2.66,-1.21,-1.24,-1.24
428.56,1.53,2.75,1.52,2.75,-2.75,-2.76,-2.69,-1.21,-1.23,-1.22
432.85,1.53,2.74,1.53,2.74,-2.74,-2.76,-2.72,-1.21,-1.22,-1.21
437.18,1.52,2.74,1.53,2.74,-2.74,-2.76,-2.75,-1.21,-1.21,-1.22
441.55,1.51,2.72,1.53,2.73,-2.73,-2.76,-2.78,-1.22,-1.20,-1.21
445.96,1.51,2.71,1.53,2.72,-2.72,-2.76,-2.81,-1.21,-1.19,-1.20
450.42,1.51,2.70,1.53,2.71,-2.71,-2.76,-2.83,-1.20,-1.18,-1.19
454.93,1.51,2.69,1.52,2.70,-2.70,-2.76,-2.86,-1.18,-1.17,-1.18
459.48,1.51,2.68,1.52,2.69,-2.69,-2.75,-2.88,-1.17,-1.17,-1.17
464.07,1.51,2.66,1.52,2.67,-2.67,-2.75,-2.90,-1.16,-1.16,-1.15
468.71,1.51,2.65,1.51,2.66,-2.66,-2.74,-2.91,-1.15,-1.15,-1.14
473.40,1.51,2.65,1.51,2.65,-2.65,-2.74,-2.93,-1.14,-1.14,-1.14
