frequency,raw,error,smoothed,error_smoothed,equalization,parametric_eq,fixed_band_eq,equalized_raw,equalized_smoothed,target
20.00,-5.36,-14.30,-5.36,-14.30,14.30,14.29,6.30,8.94,8.94,8.94
20.20,-5.32,-14.25,-5.31,-14.24,14.24,14.24,6.45,8.93,8.93,8.93
20.40,-5.26,-14.19,-5.27,-14.19,14.19,14.18,6.60,8.92,8.92,8.92
20.61,-5.23,-14.14,-5.22,-14.13,14.13,14.13,6.76,8.90,8.91,8.91
20.81,-5.17,-14.06,-5.18,-14.07,14.07,14.07,6.92,8.90,8.89,8.89
21.02,-5.14,-14.01,-5.13,-14.02,14.02,14.02,7.08,8.88,8.88,8.88
21.23,-5.09,-13.95,-5.09,-13.96,13.96,13.96,7.25,8.88,8.87,8.87
21.44,-5.04,-13.92,-5.05,-13.91,13.91,13.91,7.43,8.87,8.86,8.88
21.66,-5.01,-13.86,-5.00,-13.86,13.86,13.86,7.60,8.85,8.85,8.86
21.87,-4.95,-13.81,-4.96,-13.80,13.80,13.81,7.79,8.85,8.85,8.85
22.09,-4.91,-13.75,-4.91,-13.75,13.75,13.75,7.97,8.84,8.84,8.83
22.31,-4.87,-13.71,-4.87,-13.70,13.70,13.70,8.17,8.83,8.83,8.83
22.54,-4.83,-13.65,-4.83,-13.65,13.65,13.65,8.36,8.82,8.82,8.82
22.76,-4.78,-13.61,-4.78,-13.60,13.60,13.60,8.57,8.81,8.82,8.82
22.99,-4.74,-13.54,-4.74,-13.55,13.55,13.55,8.78,8.81,8.81,8.81
23.22,-4.70,-13.49,-4.69,-13.50,13.50,13.50,8.99,8.80,8.81,8.80
23.45,-4.65,-13.45,-4.65,-13.45,13.45,13.45,9.21,8.81,8.80,8.81
23.69,-4.61,-13.40,-4.60,-13.40,13.40,13.40,9.43,8.80,8.80,8.80
23.92,-4.55,-13.34,-4.56,-13.35,13.35,13.35,9.66,8.80,8.79,8.78
24.16,-4.51,-13.31,-4.52,-13.30,13.30,13.30,9.90,8.79,8.79,8.79
24.40,-4.47,-13.27,-4.47,-13.26,13.26,13.25,10.14,8.78,8.79,8.79
24.65,-4.43,-13.21,-4.43,-13.21,13.21,13.21,10.38,8.79,8.78,8.79
24.89,-4.38,-13.17,-4.38,-13.17,13.17,13.16,10.64,8.78,8.78,8.79
25.14,-4.34,-13.12,-4.34,-13.12,13.12,13.11,10.89,8.78,8.78,8.78
25.39,-4.29,-13.07,-4.30,-13.08,13.08,13.06,11.16,8.78,8.78,8.77
25.65,-4.26,-13.03,-4.26,-13.03,13.03,13.02,11.42,8.78,8.78,8.77
25.91,-4.22,-12.99,-4.21,-12.99,12.99,12.97,11.69,8.77,8.77,8.77
26.16,-4.16,-12.94,-4.17,-12.94,12.94,12.93,11.97,8.78,8.77,8.78
26.43,-4.13,-12.90,-4.13,-12.90,12.90,12.88,12.25,8.77,8.77,8.78
26.69,-4.09,-12.86,-4.08,-12.86,12.86,12.84,12.53,8.77,8.77,8.77
26.96,-4.05,-12.82,-4.04,-12.82,12.82,12.79,12.81,8.77,8.77,8.77
27.23,-4.01,-12.78,-4.00,-12.77,12.77,12.75,13.09,8.77,8.77,8.77
27.50,-3.96,-12.72,-3.96,-12.73,12.73,12.70,13.37,8.78,8.77,8.77
27.77,-3.91,-12.69,-3.92,-12.69,12.69,12.66,13.64,8.78,8.78,8.77
28.05,-3.88,-12.65,-3.88,-12.65,12.65,12.62,13.91,8.78,8.78,8.77
28.33,-3.84,-12.61,-3.84,-12.61,12.61,12.57,14.18,8.78,8.78,8.78
28.62,-3.80,-12.57,-3.79,-12.57,12.57,12.53,14.43,8.78,8.78,8.78
28.90,-3.76,-12.54,-3.75,-12.53,12.53,12.49,14.67,8.77,8.78,8.78
29.19,-3.72,-12.50,-3.71,-12.49,12.49,12.44,14.89,8.77,8.77,8.78
29.48,-3.68,-12.45,-3.67,-12.45,12.45,12.40,15.09,8.77,8.77,8.78
29.78,-3.64,-12.41,-3.63,-12.40,12.40,12.36,15.27,8.77,8.77,8.77
30.08,-3.60,-12.37,-3.59,-12.36,12.36,12.31,15.43,8.76,8.77,8.77
30.38,-3.56,-12.31,-3.56,-12.32,12.32,12.27,15.55,8.76,8.76,8.76
30.68,-3.52,-12.27,-3.52,-12.27,12.27,12.23,15.64,8.76,8.76,8.75
30.99,-3.48,-12.22,-3.48,-12.23,12.23,12.19,15.70,8.76,8.75,8.75
31.30,-3.45,-12.19,-3.44,-12.19,12.19,12.14,15.73,8.74,8.74,8.74
31.61,-3.41,-12.15,-3.41,-12.14,12.14,12.10,15.72,8.74,8.73,8.74
31.93,-3.38,-12.09,-3.38,-12.10,12.10,12.06,15.68,8.73,8.73,8.72
32.24,-3.34,-12.07,-3.34,-12.06,12.06,12.02,15.61,8.72,8.72,8.72
32.57,-3.31,-12.01,-3.31,-12.02,12.02,11.98,15.51,8.72,8.71,8.71
32.89,-3.28,-11.98,-3.28,-11.98,11.98,11.93,15.38,8.71,8.70,8.70
33.22,-3.25,-11.94,-3.25,-11.95,11.95,11.89,15.24,8.70,8.70,8.70
33.55,-3.23,-11.92,-3.22,-11.91,11.91,11.85,15.07,8.68,8.69,8.69
33.89,-3.20,-11.87,-3.19,-11.87,11.87,11.81,14.88,8.68,8.68,8.68
34.23,-3.17,-11.83,-3.17,-11.83,11.83,11.76,14.69,8.67,8.67,8.66
34.57,-3.14,-11.79,-3.14,-11.80,11.80,11.72,14.48,8.66,8.66,8.65
34.92,-3.12,-11.75,-3.11,-11.76,11.76,11.68,14.26,8.64,8.65,8.64
35.27,-3.09,-11.74,-3.08,-11.72,11.72,11.63,14.04,8.63,8.64,8.65
35.62,-3.06,-11.68,-3.05,-11.67,11.67,11.59,13.82,8.62,8.62,8.62
35.97,-3.02,-11.64,-3.02,-11.63,11.63,11.55,13.60,8.61,8.61,8.62
36.33,-3.00,-11.60,-2.99,-11.59,11.59,11.50,13.38,8.59,8.59,8.60
36.70,-2.97,-11.54,-2.96,-11.54,11.54,11.46,13.16,8.57,8.58,8.57
37.06,-2.94,-11.49,-2.93,-11.49,11.49,11.41,12.94,8.56,8.56,8.56
37.43,-2.90,-11.44,-2.90,-11.44,11.44,11.37,12.73,8.54,8.54,8.54
37.81,-2.88,-11.39,-2.88,-11.39,11.39,11.32,12.52,8.52,8.52,8.52
38.19,-2.85,-11.34,-2.85,-11.34,11.34,11.28,12.32,8.50,8.49,8.49
38.57,-2.82,-11.29,-2.82,-11.29,11.29,11.23,12.12,8.48,8.47,8.47
38.95,-2.79,-11.24,-2.79,-11.24,11.24,11.19,11.93,8.46,8.45,8.45
39.34,-2.77,-11.19,-2.77,-11.19,11.19,11.14,11.75,8.42,8.42,8.42
39.74,-2.74,-11.13,-2.74,-11.14,11.14,11.10,11.57,8.40,8.40,8.39
40.14,-2.71,-11.08,-2.72,-11.09,11.09,11.05,11.40,8.39,8.37,8.37
40.54,-2.70,-11.05,-2.69,-11.04,11.04,11.00,11.24,8.35,8.35,8.35
40.94,-2.68,-10.99,-2.67,-10.99,10.99,10.95,11.08,8.32,8.32,8.32
41.35,-2.66,-10.95,-2.65,-10.95,10.95,10.90,10.93,8.29,8.30,8.30
41.76,-2.63,-10.89,-2.63,-10.90,10.90,10.86,10.79,8.27,8.27,8.27
42.18,-2.61,-10.86,-2.60,-10.85,10.85,10.81,10.66,8.24,8.25,8.25
42.60,-2.58,-10.80,-2.58,-10.80,10.80,10.76,10.53,8.22,8.22,8.22
43.03,-2.56,-10.75,-2.56,-10.75,10.75,10.71,10.41,8.19,8.19,8.20
43.46,-2.54,-10.70,-2.53,-10.70,10.70,10.66,10.30,8.16,8.17,8.16
43.90,-2.52,-10.65,-2.51,-10.64,10.64,10.60,10.19,8.13,8.14,8.14
44.33,-2.49,-10.59,-2.48,-10.59,10.59,10.55,10.09,8.10,8.11,8.10
44.78,-2.46,-10.53,-2.46,-10.53,10.53,10.50,10.00,8.08,8.07,8.08
45.23,-2.44,-10.49,-2.43,-10.47,10.47,10.45,9.91,8.03,8.04,8.05
45.68,-2.41,-10.41,-2.40,-10.41,10.41,10.39,9.83,8.00,8.00,8.00
46.13,-2.38,-10.34,-2.38,-10.34,10.34,10.34,9.76,7.97,7.96,7.97
46.60,-2.35,-10.27,-2.35,-10.28,10.28,10.29,9.69,7.93,7.93,7.93
47.06,-2.33,-10.22,-2.33,-10.21,10.21,10.23,9.63,7.89,7.88,7.89
47.53,-2.31,-10.16,-2.31,-10.15,10.15,10.17,9.57,7.84,7.84,7.85
48.01,-2.29,-10.08,-2.28,-10.08,10.08,10.12,9.52,7.79,7.80,7.79
48.49,-2.27,-10.02,-2.26,-10.01,10.01,10.06,9.47,7.75,7.75,7.75
48.97,-2.25,-9.94,-2.24,-9.95,9.95,10.00,9.43,7.70,7.70,7.70
49.46,-2.23,-9.88,-2.22,-9.88,9.88,9.95,9.40,7.66,7.66,7.66
49.96,-2.20,-9.79,-2.21,-9.82,9.82,9.89,9.37,7.62,7.61,7.59
50.46,-2.19,-9.75,-2.19,-9.76,9.76,9.83,9.34,7.57,7.56,7.56
50.96,-2.17,-9.68,-2.18,-9.69,9.69,9.77,9.32,7.53,7.52,7.52
51.47,-2.16,-9.63,-2.16,-9.63,9.63,9.71,9.30,7.48,7.47,7.47
51.99,-2.15,-9.56,-2.15,-9.57,9.57,9.64,9.28,7.43,7.42,7.42
52.51,-2.14,-9.51,-2.13,-9.51,9.51,9.58,9.27,7.38,7.38,7.38
53.03,-2.14,-9.48,-2.12,-9.45,9.45,9.52,9.25,7.31,7.33,7.34
53.56,-2.12,-9.41,-2.11,-9.39,9.39,9.46,9.24,7.27,7.28,7.29
54.10,-2.11,-9.34,-2.09,-9.33,9.33,9.39,9.23,7.22,7.24,7.23
54.64,-2.09,-9.28,-2.08,-9.27,9.27,9.33,9.22,7.18,7.19,7.19
55.18,-2.07,-9.21,-2.06,-9.21,9.21,9.26,9.21,7.15,7.15,7.14
55.74,-2.05,-9.13,-2.05,-9.15,9.15,9.20,9.20,7.11,7.10,7.09
56.29,-2.03,-9.08,-2.03,-9.09,9.09,9.13,9.19,7.06,7.06,7.05
56.86,-2.01,-9.02,-2.01,-9.03,9.03,9.06,9.18,7.02,7.01,7.01
57.42,-2.00,-8.95,-2.00,-8.96,8.96,9.00,9.16,6.97,6.96,6.95
58.00,-1.98,-8.88,-1.98,-8.90,8.90,8.93,9.14,6.92,6.92,6.91
58.58,-1.96,-8.83,-1.96,-8.83,8.83,8.86,9.11,6.87,6.86,6.87
59.16,-1.95,-8.78,-1.94,-8.75,8.75,8.79,9.08,6.81,6.81,6.83
59.76,-1.93,-8.71,-1.93,-8.68,8.68,8.72,9.05,6.76,6.76,6.78
60.35,-1.92,-8.64,-1.91,-8.61,8.61,8.65,9.01,6.69,6.70,6.72
60.96,-1.90,-8.55,-1.89,-8.53,8.53,8.58,8.96,6.64,6.65,6.66
61.57,-1.88,-8.46,-1.87,-8.46,8.46,8.50,8.91,6.58,6.59,6.59
62.18,-1.86,-8.38,-1.85,-8.38,8.38,8.43,8.85,6.52,6.53,6.52
62.80,-1.85,-8.30,-1.83,-8.30,8.30,8.36,8.78,6.45,6.47,6.45
63.43,-1.82,-8.20,-1.81,-8.22,8.22,8.29,8.70,6.40,6.40,6.39
64.07,-1.80,-8.12,-1.80,-8.14,8.14,8.21,8.62,6.34,6.34,6.33
64.71,-1.78,-8.05,-1.78,-8.06,8.06,8.14,8.53,6.28,6.28,6.27
65.35,-1.76,-7.96,-1.77,-7.98,7.98,8.06,8.44,6.23,6.21,6.21
66.01,-1.75,-7.89,-1.76,-7.91,7.91,7.99,8.34,6.16,6.15,6.15
66.67,-1.74,-7.83,-1.75,-7.84,7.84,7.91,8.23,6.10,6.08,6.09
67.33,-1.74,-7.75,-1.74,-7.76,7.76,7.83,8.12,6.03,6.02,6.02
68.01,-1.73,-7.69,-1.74,-7.69,7.69,7.75,8.01,5.97,5.96,5.96
68.69,-1.73,-7.62,-1.73,-7.62,7.62,7.68,7.89,5.90,5.89,5.90
69.37,-1.73,-7.56,-1.73,-7.55,7.55,7.60,7.76,5.83,5.83,5.84
70.07,-1.73,-7.49,-1.72,-7.48,7.48,7.52,7.64,5.76,5.76,5.77
70.77,-1.73,-7.42,-1.71,-7.41,7.41,7.44,7.51,5.68,5.70,5.70
71.48,-1.73,-7.36,-1.71,-7.33,7.33,7.36,7.37,5.61,5.63,5.63
72.19,-1.72,-7.28,-1.70,-7.26,7.26,7.28,7.24,5.54,5.56,5.56
72.91,-1.70,-7.18,-1.68,-7.18,7.18,7.20,7.11,5.48,5.49,5.49
73.64,-1.68,-7.09,-1.67,-7.10,7.10,7.12,6.97,5.42,5.43,5.42
74.38,-1.66,-7.01,-1.65,-7.01,7.01,7.04,6.84,5.36,5.36,5.35
75.12,-1.64,-6.93,-1.63,-6.93,6.93,6.96,6.71,5.29,5.30,5.29
75.87,-1.61,-6.84,-1.61,-6.84,6.84,6.87,6.57,5.24,5.23,5.23
76.63,-1.59,-6.75,-1.58,-6.75,6.75,6.79,6.44,5.17,5.17,5.16
77.40,-1.56,-6.66,-1.56,-6.66,6.66,6.71,6.31,5.11,5.11,5.11
78.17,-1.53,-6.56,-1.53,-6.57,6.57,6.63,6.19,5.05,5.04,5.03
78.95,-1.51,-6.49,-1.50,-6.49,6.49,6.54,6.06,4.98,4.98,4.99
79.74,-1.49,-6.41,-1.48,-6.40,6.40,6.46,5.94,4.91,4.92,4.92
80.54,-1.46,-6.32,-1.46,-6.32,6.32,6.37,5.82,4.86,4.86,4.87
81.35,-1.44,-6.23,-1.44,-6.24,6.24,6.29,5.70,4.80,4.80,4.80
82.16,-1.42,-6.16,-1.42,-6.16,6.16,6.21,5.59,4.75,4.74,4.75
82.98,-1.40,-6.07,-1.41,-6.09,6.09,6.12,5.48,4.69,4.67,4.68
83.81,-1.39,-6.00,-1.40,-6.01,6.01,6.04,5.37,4.63,4.61,4.61
84.65,-1.38,-5.92,-1.40,-5.95,5.95,5.95,5.26,4.57,4.55,4.54
85.50,-1.38,-5.85,-1.40,-5.88,5.88,5.87,5.16,4.50,4.48,4.48
86.35,-1.39,-5.80,-1.40,-5.81,5.81,5.78,5.06,4.43,4.41,4.41
87.22,-1.40,-5.74,-1.40,-5.75,5.75,5.70,4.97,4.35,4.35,4.35
88.09,-1.41,-5.69,-1.40,-5.68,5.68,5.61,4.88,4.28,4.28,4.28
88.97,-1.42,-5.63,-1.40,-5.62,5.62,5.52,4.79,4.20,4.21,4.21
89.86,-1.43,-5.57,-1.41,-5.55,5.55,5.44,4.70,4.12,4.14,4.14
90.76,-1.43,-5.50,-1.40,-5.47,5.47,5.35,4.62,4.05,4.07,4.07
91.66,-1.42,-5.41,-1.40,-5.40,5.40,5.27,4.54,3.98,4.00,3.99
92.58,-1.41,-5.34,-1.39,-5.31,5.31,5.18,4.47,3.91,3.93,3.93
93.51,-1.39,-5.25,-1.37,-5.23,5.23,5.09,4.40,3.84,3.85,3.86
94.44,-1.37,-5.16,-1.35,-5.14,5.14,5.01,4.33,3.77,3.78,3.79
95.39,-1.35,-5.05,-1.33,-5.04,5.04,4.92,4.26,3.69,3.71,3.71
96.34,-1.32,-4.95,-1.31,-4.94,4.94,4.83,4.20,3.62,3.63,3.63
97.30,-1.29,-4.85,-1.28,-4.84,4.84,4.75,4.14,3.55,3.56,3.56
98.28,-1.25,-4.72,-1.25,-4.73,4.73,4.66,4.08,3.49,3.49,3.48
99.26,-1.22,-4.62,-1.22,-4.63,4.63,4.57,4.02,3.42,3.41,3.40
100.25,-1.18,-4.50,-1.19,-4.53,4.53,4.49,3.97,3.35,3.34,3.33
101.25,-1.15,-4.41,-1.16,-4.43,4.43,4.40,3.92,3.29,3.27,3.26
102.27,-1.13,-4.32,-1.14,-4.34,4.34,4.32,3.87,3.21,3.20,3.20
103.29,-1.12,-4.24,-1.12,-4.25,4.25,4.23,3.82,3.13,3.13,3.12
104.32,-1.10,-4.15,-1.10,-4.16,4.16,4.14,3.78,3.07,3.06,3.06
105.37,-1.08,-4.07,-1.09,-4.08,4.08,4.06,3.73,3.01,2.99,2.99
106.42,-1.07,-3.99,-1.08,-4.00,4.00,3.97,3.69,2.94,2.92,2.93
107.48,-1.06,-3.91,-1.08,-3.93,3.93,3.89,3.65,2.88,2.85,2.85
108.56,-1.07,-3.85,-1.08,-3.86,3.86,3.80,3.60,2.80,2.78,2.79
109.64,-1.08,-3.80,-1.08,-3.79,3.79,3.72,3.56,2.72,2.71,2.72
110.74,-1.09,-3.73,-1.08,-3.72,3.72,3.63,3.52,2.64,2.64,2.65
111.85,-1.09,-3.66,-1.08,-3.65,3.65,3.55,3.48,2.57,2.57,2.57
112.97,-1.10,-3.60,-1.08,-3.58,3.58,3.46,3.44,2.49,2.50,2.51
114.10,-1.11,-3.54,-1.08,-3.51,3.51,3.38,3.40,2.40,2.43,2.43
115.24,-1.10,-3.44,-1.07,-3.43,3.43,3.29,3.36,2.33,2.36,2.35
116.39,-1.09,-3.36,-1.07,-3.35,3.35,3.21,3.31,2.26,2.29,2.28
117.55,-1.08,-3.28,-1.05,-3.27,3.27,3.13,3.27,2.19,2.22,2.20
118.73,-1.06,-3.19,-1.03,-3.18,3.18,3.04,3.22,2.12,2.15,2.13
119.92,-1.02,-3.08,-1.01,-3.09,3.09,2.96,3.18,2.07,2.08,2.07
121.12,-0.99,-2.99,-0.98,-2.99,2.99,2.88,3.13,2.00,2.01,2.01
122.33,-0.96,-2.89,-0.95,-2.89,2.89,2.79,3.08,1.93,1.94,1.94
123.55,-0.93,-2.80,-0.92,-2.79,2.79,2.71,3.03,1.86,1.87,1.88
124.79,-0.89,-2.70,-0.89,-2.69,2.69,2.63,2.97,1.80,1.80,1.81
126.03,-0.85,-2.59,-0.86,-2.59,2.59,2.55,2.91,1.75,1.73,1.74
127.29,-0.83,-2.50,-0.83,-2.50,2.50,2.47,2.86,1.67,1.67,1.68
128.57,-0.80,-2.39,-0.81,-2.41,2.41,2.39,2.80,1.61,1.60,1.60
129.85,-0.77,-2.30,-0.79,-2.32,2.32,2.30,2.73,1.56,1.53,1.53
131.15,-0.75,-2.21,-0.78,-2.24,2.24,2.22,2.67,1.50,1.47,1.46
132.46,-0.74,-2.13,-0.77,-2.16,2.16,2.15,2.60,1.43,1.40,1.40
133.79,-0.74,-2.06,-0.76,-2.09,2.09,2.07,2.53,1.36,1.33,1.32
135.12,-0.74,-2.00,-0.76,-2.02,2.02,1.99,2.46,1.29,1.26,1.26
136.48,-0.75,-1.95,-0.75,-1.95,1.95,1.91,2.39,1.21,1.20,1.20
137.84,-0.77,-1.90,-0.75,-1.89,1.89,1.83,2.31,1.12,1.13,1.13
139.22,-0.78,-1.84,-0.75,-1.82,1.82,1.75,2.24,1.05,1.07,1.07
140.61,-0.78,-1.79,-0.74,-1.76,1.76,1.68,2.16,0.98,1.01,1.01
142.02,-0.77,-1.71,-0.74,-1.69,1.69,1.60,2.08,0.92,0.95,0.94
143.44,-0.76,-1.65,-0.73,-1.62,1.62,1.52,2.00,0.86,0.89,0.89
144.87,-0.73,-1.56,-0.71,-1.54,1.54,1.45,1.92,0.82,0.83,0.84
146.32,-0.71,-1.48,-0.69,-1.47,1.47,1.37,1.84,0.76,0.78,0.78
147.78,-0.68,-1.40,-0.66,-1.39,1.39,1.30,1.76,0.71,0.72,0.72
149.26,-0.65,-1.31,-0.64,-1.30,1.30,1.22,1.67,0.66,0.67,0.67
150.75,-0.61,-1.21,-0.61,-1.22,1.22,1.15,1.59,0.61,0.61,0.61
152.26,-0.58,-1.14,-0.58,-1.13,1.13,1.08,1.51,0.56,0.56,0.56
153.78,-0.54,-1.04,-0.55,-1.05,1.05,1.00,1.42,0.52,0.50,0.51
155.32,-0.51,-0.96,-0.52,-0.97,0.97,0.93,1.34,0.47,0.45,0.45
156.88,-0.47,-0.86,-0.50,-0.90,0.90,0.86,1.25,0.43,0.39,0.40
158.44,-0.46,-0.79,-0.48,-0.82,0.82,0.79,1.17,0.37,0.34,0.34
160.03,-0.44,-0.72,-0.47,-0.75,0.75,0.72,1.08,0.31,0.28,0.29
161.63,-0.43,-0.65,-0.45,-0.68,0.68,0.65,1.00,0.25,0.23,0.23
163.24,-0.43,-0.60,-0.44,-0.61,0.61,0.58,0.91,0.18,0.17,0.17
164.88,-0.44,-0.55,-0.43,-0.54,0.54,0.51,0.83,0.11,0.11,0.11
166.53,-0.44,-0.49,-0.41,-0.47,0.47,0.44,0.74,0.04,0.06,0.05
168.19,-0.44,-0.44,-0.40,-0.40,0.40,0.38,0.66,-0.03,0.00,0.01
169.87,-0.42,-0.36,-0.39,-0.33,0.33,0.31,0.57,-0.09,-0.06,-0.06
171.57,-0.40,-0.28,-0.37,-0.25,0.25,0.24,0.49,-0.14,-0.11,-0.12
173.29,-0.38,-0.21,-0.35,-0.17,0.17,0.18,0.40,-0.20,-0.17,-0.17
175.02,-0.34,-0.11,-0.32,-0.09,0.09,0.11,0.32,-0.24,-0.23,-0.23
176.77,-0.30,-0.01,-0.30,-0.01,0.01,0.05,0.23,-0.28,-0.28,-0.28
178.54,-0.28,0.06,-0.27,0.07,-0.07,-0.02,0.15,-0.35,-0.34,-0.34
180.32,-0.24,0.17,-0.24,0.15,-0.15,-0.08,0.07,-0.39,-0.39,-0.40
182.13,-0.21,0.24,-0.22,0.23,-0.23,-0.14,-0.02,-0.44,-0.45,-0.45
183.95,-0.17,0.33,-0.19,0.31,-0.31,-0.20,-0.10,-0.48,-0.50,-0.50
185.79,-0.14,0.43,-0.17,0.39,-0.39,-0.26,-0.19,-0.52,-0.56,-0.56
187.65,-0.12,0.50,-0.15,0.46,-0.46,-0.32,-0.27,-0.58,-0.61,-0.61
189.52,-0.11,0.56,-0.14,0.53,-0.53,-0.38,-0.36,-0.63,-0.66,-0.66
191.42,-0.11,0.60,-0.12,0.59,-0.59,-0.44,-0.44,-0.70,-0.71,-0.71
193.33,-0.11,0.65,-0.11,0.65,-0.65,-0.50,-0.53,-0.76,-0.76,-0.76
195.27,-0.12,0.70,-0.10,0.71,-0.71,-0.56,-0.61,-0.83,-0.81,-0.81
197.22,-0.11,0.76,-0.08,0.77,-0.77,-0.62,-0.70,-0.87,-0.85,-0.87
199.19,-0.10,0.80,-0.07,0.83,-0.83,-0.67,-0.78,-0.92,-0.90,-0.90
201.18,-0.09,0.87,-0.05,0.89,-0.89,-0.73,-0.86,-0.97,-0.94,-0.95
203.19,-0.07,0.92,-0.03,0.95,-0.95,-0.78,-0.95,-1.01,-0.98,-0.98
205.23,-0.04,0.98,-0.01,1.01,-1.01,-0.84,-1.03,-1.04,-1.02,-1.02
207.28,-0.01,1.05,0.01,1.07,-1.07,-0.89,-1.11,-1.08,-1.06,-1.05
209.35,0.03,1.13,0.04,1.13,-1.13,-0.94,-1.19,-1.10,-1.10,-1.09
211.44,0.06,1.20,0.06,1.20,-1.20,-1.00,-1.27,-1.13,-1.13,-1.13
213.56,0.10,1.26,0.09,1.26,-1.26,-1.05,-1.35,-1.15,-1.17,-1.16
215.69,0.14,1.34,0.12,1.32,-1.32,-1.10,-1.43,-1.17,-1.20,-1.20
217.85,0.17,1.41,0.14,1.37,-1.37,-1.15,-1.50,-1.20,-1.23,-1.23
220.03,0.18,1.45,0.16,1.42,-1.42,-1.20,-1.57,-1.24,-1.26,-1.27
222.23,0.20,1.50,0.18,1.47,-1.47,-1.25,-1.65,-1.27,-1.29,-1.30
224.45,0.21,1.54,0.20,1.52,-1.52,-1.29,-1.71,-1.30,-1.32,-1.32
226.70,0.21,1.57,0.21,1.56,-1.56,-1.34,-1.78,-1.34,-1.35,-1.35
228.96,0.22,1.59,0.23,1.60,-1.60,-1.39,-1.84,-1.37,-1.37,-1.37
231.25,0.22,1.62,0.24,1.64,-1.64,-1.43,-1.91,-1.41,-1.40,-1.40
233.57,0.22,1.64,0.26,1.67,-1.67,-1.48,-1.96,-1.45,-1.42,-1.42
235.90,0.24,1.68,0.27,1.71,-1.71,-1.52,-2.02,-1.47,-1.44,-1.44
238.26,0.26,1.73,0.29,1.75,-1.75,-1.57,-2.07,-1.48,-1.45,-1.46
240.64,0.29,1.76,0.31,1.78,-1.78,-1.61,-2.11,-1.49,-1.47,-1.46
243.05,0.32,1.80,0.34,1.82,-1.82,-1.65,-2.16,-1.49,-1.48,-1.48
245.48,0.35,1.85,0.36,1.86,-1.86,-1.69,-2.20,-1.50,-1.49,-1.50
247.93,0.40,1.92,0.39,1.89,-1.89,-1.73,-2.23,-1.49,-1.50,-1.51
250.41,0.42,1.93,0.41,1.93,-1.93,-1.77,-2.26,-1.50,-1.51,-1.51
252.92,0.46,1.98,0.44,1.96,-1.96,-1.81,-2.29,-1.49,-1.52,-1.51
255.45,0.48,2.01,0.46,1.99,-1.99,-1.85,-2.32,-1.51,-1.53,-1.53
258.00,0.50,2.04,0.48,2.02,-2.02,-1.89,-2.33,-1.51,-1.54,-1.53
260.58,0.52,2.06,0.50,2.05,-2.05,-1.93,-2.35,-1.52,-1.54,-1.54
263.19,0.53,2.07,0.52,2.07,-2.07,-1.96,-2.36,-1.54,-1.55,-1.54
265.82,0.54,2.10,0.54,2.10,-2.10,-2.00,-2.37,-1.55,-1.55,-1.55
268.48,0.55,2.11,0.56,2.12,-2.12,-2.03,-2.38,-1.57,-1.56,-1.55
271.16,0.56,2.12,0.58,2.14,-2.14,-2.07,-2.38,-1.58,-1.56,-1.56
273.87,0.57,2.14,0.60,2.17,-2.17,-2.10,-2.38,-1.59,-1.57,-1.57
276.61,0.59,2.16,0.62,2.19,-2.19,-2.13,-2.38,-1.60,-1.57,-1.57
279.38,0.61,2.20,0.64,2.22,-2.22,-2.17,-2.38,-1.60,-1.58,-1.59
282.17,0.64,2.23,0.66,2.24,-2.24,-2.20,-2.37,-1.60,-1.58,-1.59
284.99,0.67,2.25,0.69,2.27,-2.27,-2.23,-2.36,-1.59,-1.58,-1.58
287.84,0.72,2.30,0.71,2.29,-2.29,-2.26,-2.35,-1.57,-1.58,-1.58
290.72,0.75,2.34,0.74,2.32,-2.32,-2.29,-2.35,-1.56,-1.58,-1.59
293.63,0.78,2.36,0.76,2.34,-2.34,-2.32,-2.34,-1.55,-1.58,-1.58
296.57,0.80,2.38,0.78,2.36,-2.36,-2.34,-2.32,-1.56,-1.58,-1.58
299.53,0.82,2.40,0.81,2.38,-2.38,-2.37,-2.31,-1.56,-1.57,-1.57
302.53,0.83,2.40,0.83,2.40,-2.40,-2.40,-2.30,-1.56,-1.57,-1.56
305.55,0.85,2.42,0.85,2.42,-2.42,-2.42,-2.29,-1.56,-1.56,-1.57
308.61,0.87,2.43,0.88,2.43,-2.43,-2.45,-2.28,-1.56,-1.56,-1.56
311.69,0.89,2.45,0.90,2.45,-2.45,-2.47,-2.27,-1.56,-1.55,-1.55
314.81,0.90,2.45,0.92,2.47,-2.47,-2.50,-2.27,-1.56,-1.55,-1.55
317.96,0.92,2.47,0.95,2.49,-2.49,-2.52,-2.26,-1.56,-1.54,-1.55
321.14,0.94,2.48,0.97,2.51,-2.51,-2.54,-2.25,-1.56,-1.54,-1.53
324.35,0.97,2.51,1.00,2.53,-2.53,-2.56,-2.25,-1.55,-1.53,-1.54
327.59,1.01,2.53,1.03,2.55,-2.55,-2.58,-2.25,-1.54,-1.53,-1.51
330.87,1.04,2.56,1.06,2.57,-2.57,-2.60,-2.24,-1.53,-1.52,-1.52
334.18,1.08,2.60,1.08,2.60,-2.60,-2.62,-2.24,-1.51,-1.51,-1.52
337.52,1.12,2.64,1.11,2.61,-2.61,-2.64,-2.24,-1.49,-1.51,-1.51
340.90,1.14,2.64,1.13,2.63,-2.63,-2.66,-2.25,-1.48,-1.50,-1.50
344.30,1.17,2.67,1.14,2.64,-2.64,-2.68,-2.25,-1.46,-1.49,-1.49
347.75,1.18,2.67,1.16,2.65,-2.65,-2.69,-2.26,-1.46,-1.49,-1.48
351.23,1.20,2.69,1.17,2.65,-2.65,-2.71,-2.27,-1.45,-1.48,-1.49
354.74,1.21,2.68,1.18,2.65,-2.65,-2.72,-2.28,-1.44,-1.47,-1.46
358.28,1.20,2.67,1.19,2.66,-2.66,-2.74,-2.29,-1.45,-1.47,-1.47
361.87,1.19,2.66,1.20,2.66,-2.66,-2.75,-2.31,-1.46,-1.46,-1.46
365.49,1.17,2.63,1.20,2.66,-2.66,-2.76,-2.32,-1.48,-1.45,-1.46
369.14,1.17,2.61,1.21,2.66,-2.66,-2.78,-2.34,-1.48,-1.45,-1.44
372.83,1.18,2.62,1.22,2.66,-2.66,-2.79,-2.36,-1.47,-1.44,-1.43
376.56,1.20,2.64,1.23,2.66,-2.66,-2.80,-2.38,-1.46,-1.43,-1.44
380.33,1.22,2.65,1.25,2.67,-2.67,-2.81,-2.41,-1.44,-1.42,-1.43
384.13,1.25,2.67,1.27,2.68,-2.68,-2.82,-2.43,-1.43,-1.41,-1.41
387.97,1.28,2.69,1.29,2.70,-2.70,-2.83,-2.46,-1.41,-1.41,-1.41
391.85,1.31,2.71,1.32,2.71,-2.71,-2.84,-2.48,-1.40,-1.40,-1.40
395.77,1.34,2.74,1.35,2.73,-2.73,-2.84,-2.51,-1.39,-1.39,-1.39
399.73,1.38,2.77,1.38,2.76,-2.76,-2.85,-2.54,-1.37,-1.38,-1.38
403.72,1.41,2.77,1.41,2.78,-2.78,-2.86,-2.58,-1.36,-1.37,-1.36
407.76,1.44,2.80,1.44,2.80,-2.80,-2.86,-2.61,-1.35,-1.36,-1.36
411.84,1.47,2.83,1.46,2.81,-2.81,-2.87,-2.64,-1.34,-1.35,-1.35
415.96,1.49,2.83,1.48,2.82,-2.82,-2.87,-2.67,-1.33,-1.34,-1.33
420.12,1.52,2.86,1.50,2.83,-2.83,-2.87,-2.71,-1.31,-1.33,-1.34
424.32,1.53,2.86,1.51,2.83,-2.83,-2.88,-2.74,-1.30,-1.32,-1.33
428.56,1.53,2.84,1.52,2.84,-2.84,-2.88,-2.77,-1.30,-1.32,-1.31
432.85,1.53,2.84,1.53,2.83,-2.83,-2.88,-2.81,-1.30,-1.31,-1.30
437.18,1.52,2.83,1.53,2.83,-2.83,-2.88,-2.84,-1.30,-1.30,-1.30
441.55,1.51,2.81,1.53,2.82,-2.82,-2.88,-2.87,-1.31,-1.29,-1.30
445.96,1.51,2.80,1.53,2.81,-2.81,-2.88,-2.90,-1.30,-1.28,-1.29
450.42,1.51,2.79,1.53,2.80,-2.80,-2.88,-2.93,-1.29,-1.28,-1.28
454.93,1.51,2.79,1.52,2.79,-2.79,-2.87,-2.95,-1.28,-1.27,-1.27
459.48,1.51,2.78,1.52,2.78,-2.78,-2.87,-2.97,-1.26,-1.26,-1.26
464.07,1.51,2.76,1.52,2.77,-2.77,-2.87,-3.00,-1.25,-1.25,-1.24
