frequency,raw,error,smoothed,error_smoothed,equalization,parametric_eq,fixed_band_eq,equalized_raw,equalized_smoothed,target
20.00,-0.25,-4.69,-0.26,-4.72,4.72,3.91,0.68,4.47,4.46,4.44
20.20,-0.19,-4.63,-0.20,-4.66,4.66,4.02,0.71,4.47,4.46,4.44
20.40,-0.15,-4.59,-0.14,-4.59,4.59,4.13,0.73,4.44,4.45,4.44
20.61,-0.09,-4.53,-0.08,-4.52,4.52,4.22,0.76,4.43,4.44,4.44
20.81,-0.03,-4.47,-0.03,-4.45,4.45,4.29,0.78,4.42,4.43,4.44
21.02,0.03,-4.41,0.03,-4.38,4.38,4.35,0.81,4.41,4.42,4.44
21.23,0.09,-4.33,0.09,-4.31,4.31,4.39,0.84,4.40,4.40,4.42
21.44,0.15,-4.26,0.15,-4.24,4.24,4.40,0.86,4.39,4.39,4.41
21.66,0.21,-4.18,0.21,-4.16,4.16,4.39,0.89,4.37,4.38,4.39
21.87,0.27,-4.10,0.27,-4.09,4.09,4.36,0.92,4.36,4.36,4.37
22.09,0.34,-4.02,0.34,-4.01,4.01,4.31,0.95,4.35,4.34,4.36
22.31,0.40,-3.92,0.40,-3.93,3.93,4.24,0.99,4.33,4.33,4.33
22.54,0.46,-3.85,0.46,-3.84,3.84,4.15,1.02,4.30,4.31,4.31
22.76,0.53,-3.75,0.53,-3.76,3.76,4.05,1.05,4.29,4.28,4.28
22.99,0.59,-3.66,0.59,-3.67,3.67,3.93,1.09,4.26,4.26,4.25
23.22,0.65,-3.57,0.65,-3.58,3.58,3.80,1.12,4.23,4.24,4.22
23.45,0.72,-3.48,0.72,-3.50,3.50,3.66,1.16,4.22,4.22,4.20
23.69,0.78,-3.41,0.79,-3.41,3.41,3.51,1.19,4.19,4.20,4.19
23.92,0.85,-3.32,0.85,-3.32,3.32,3.36,1.23,4.17,4.17,4.17
24.16,0.92,-3.24,0.92,-3.24,3.24,3.21,1.27,4.16,4.15,4.16
24.40,0.98,-3.16,0.98,-3.15,3.15,3.06,1.31,4.13,4.13,4.14
24.65,1.05,-3.07,1.05,-3.06,3.06,2.92,1.34,4.11,4.12,4.12
24.89,1.12,-2.98,1.12,-2.98,2.98,2.77,1.38,4.10,4.10,4.10
25.14,1.19,-2.90,1.19,-2.89,2.89,2.63,1.42,4.09,4.08,4.09
25.39,1.26,-2.80,1.25,-2.81,2.81,2.49,1.46,4.07,4.06,4.07
25.65,1.32,-2.73,1.32,-2.73,2.73,2.36,1.50,4.05,4.05,4.05
25.91,1.39,-2.63,1.39,-2.64,2.64,2.23,1.54,4.03,4.03,4.02
26.16,1.46,-2.55,1.46,-2.56,2.56,2.10,1.58,4.02,4.02,4.01
26.43,1.52,-2.48,1.53,-2.47,2.47,1.98,1.61,3.99,4.00,4.00
26.69,1.59,-2.39,1.59,-2.39,2.39,1.87,1.65,3.98,3.98,3.98
26.96,1.66,-2.31,1.66,-2.31,2.31,1.76,1.69,3.97,3.97,3.97
27.23,1.73,-2.23,1.73,-2.23,2.23,1.66,1.72,3.95,3.95,3.96
27.50,1.79,-2.16,1.79,-2.15,2.15,1.56,1.76,3.93,3.94,3.95
27.77,1.86,-2.06,1.86,-2.07,2.07,1.47,1.79,3.93,3.92,3.92
28.05,1.93,-1.98,1.93,-1.98,1.98,1.38,1.82,3.92,3.91,3.91
28.33,1.99,-1.90,1.99,-1.90,1.90,1.30,1.84,3.89,3.90,3.89
28.62,2.06,-1.82,2.06,-1.82,1.82,1.22,1.87,3.88,3.88,3.88
28.90,2.12,-1.75,2.12,-1.75,1.75,1.14,1.89,3.87,3.87,3.87
29.19,2.18,-1.67,2.19,-1.67,1.67,1.07,1.91,3.85,3.86,3.85
29.48,2.25,-1.59,2.25,-1.59,1.59,1.00,1.93,3.84,3.84,3.84
29.78,2.31,-1.52,2.31,-1.51,1.51,0.94,1.94,3.82,3.83,3.83
30.08,2.38,-1.44,2.37,-1.44,1.44,0.88,1.95,3.82,3.81,3.82
30.38,2.43,-1.37,2.43,-1.36,1.36,0.82,1.95,3.79,3.80,3.80
30.68,2.50,-1.29,2.49,-1.29,1.29,0.76,1.96,3.79,3.78,3.79
30.99,2.56,-1.20,2.55,-1.22,1.22,0.71,1.96,3.78,3.77,3.76
31.30,2.61,-1.14,2.60,-1.14,1.14,0.66,1.95,3.75,3.75,3.75
31.61,2.66,-1.08,2.66,-1.07,1.07,0.61,1.94,3.73,3.73,3.74
31.93,2.71,-1.01,2.71,-1.00,1.00,0.57,1.93,3.71,3.71,3.72
32.24,2.76,-0.92,2.76,-0.93,0.93,0.52,1.91,3.69,3.69,3.68
32.57,2.81,-0.86,2.81,-0.86,0.86,0.48,1.89,3.67,3.67,3.67
32.89,2.86,-0.80,2.86,-0.79,0.79,0.44,1.86,3.65,3.65,3.66
33.22,2.91,-0.71,2.91,-0.72,0.72,0.40,1.83,3.63,3.63,3.62
33.55,2.95,-0.66,2.95,-0.65,0.65,0.37,1.80,3.60,3.61,3.61
33.89,3.00,-0.59,3.00,-0.59,0.59,0.33,1.76,3.59,3.59,3.59
34.23,3.04,-0.52,3.04,-0.52,0.52,0.30,1.73,3.56,3.57,3.56
34.57,3.09,-0.45,3.09,-0.46,0.46,0.27,1.69,3.55,3.54,3.54
34.92,3.13,-0.39,3.13,-0.39,0.39,0.23,1.64,3.52,3.52,3.52
35.27,3.17,-0.33,3.17,-0.33,0.33,0.20,1.59,3.50,3.50,3.50
35.62,3.21,-0.27,3.21,-0.27,0.27,0.18,1.55,3.48,3.48,3.48
35.97,3.25,-0.20,3.25,-0.21,0.21,0.15,1.50,3.46,3.46,3.46
36.33,3.29,-0.15,3.29,-0.15,0.15,0.12,1.44,3.44,3.44,3.44
36.70,3.32,-0.10,3.33,-0.09,0.09,0.10,1.39,3.41,3.41,3.42
37.06,3.36,-0.03,3.36,-0.03,0.03,0.07,1.33,3.39,3.39,3.39
37.43,3.40,0.02,3.40,0.03,-0.03,0.05,1.28,3.37,3.37,3.38
37.81,3.43,0.08,3.43,0.08,-0.08,0.02,1.22,3.35,3.35,3.35
38.19,3.47,0.14,3.47,0.14,-0.14,-0.00,1.16,3.33,3.33,3.33
38.57,3.49,0.18,3.50,0.19,-0.19,-0.02,1.10,3.30,3.31,3.31
38.95,3.53,0.24,3.53,0.24,-0.24,-0.04,1.05,3.29,3.29,3.29
39.34,3.56,0.30,3.56,0.29,-0.29,-0.06,0.99,3.27,3.27,3.26
39.74,3.59,0.36,3.59,0.34,-0.34,-0.09,0.93,3.25,3.25,3.23
40.14,3.61,0.38,3.61,0.39,-0.39,-0.11,0.87,3.22,3.23,3.23
40.54,3.64,0.44,3.64,0.43,-0.43,-0.12,0.81,3.21,3.21,3.20
40.94,3.67,0.49,3.67,0.48,-0.48,-0.14,0.75,3.19,3.19,3.18
41.35,3.69,0.53,3.69,0.52,-0.52,-0.16,0.69,3.17,3.17,3.16
41.76,3.71,0.56,3.71,0.56,-0.56,-0.18,0.63,3.15,3.15,3.15
42.18,3.73,0.60,3.73,0.60,-0.60,-0.20,0.57,3.13,3.12,3.13
42.60,3.75,0.64,3.75,0.64,-0.64,-0.22,0.51,3.11,3.10,3.11
43.03,3.76,0.66,3.77,0.68,-0.68,-0.23,0.45,3.08,3.08,3.10
43.46,3.78,0.71,3.78,0.72,-0.72,-0.25,0.39,3.06,3.06,3.07
43.90,3.80,0.76,3.80,0.75,-0.75,-0.27,0.33,3.05,3.04,3.04
44.33,3.82,0.80,3.81,0.79,-0.79,-0.28,0.27,3.03,3.02,3.02
44.78,3.82,0.82,3.83,0.82,-0.82,-0.30,0.21,3.00,3.00,3.00
45.23,3.84,0.87,3.84,0.85,-0.85,-0.31,0.15,2.98,2.98,2.97
45.68,3.84,0.89,3.85,0.89,-0.89,-0.33,0.09,2.95,2.96,2.95
46.13,3.86,0.93,3.86,0.92,-0.92,-0.34,0.03,2.94,2.94,2.93
46.60,3.87,0.95,3.86,0.95,-0.95,-0.36,-0.02,2.92,2.92,2.92
47.06,3.87,0.97,3.87,0.98,-0.98,-0.37,-0.08,2.89,2.89,2.90
47.53,3.88,1.00,3.87,1.00,-1.00,-0.39,-0.14,2.88,2.87,2.88
48.01,3.88,1.01,3.88,1.03,-1.03,-0.40,-0.20,2.85,2.85,2.87
48.49,3.88,1.05,3.88,1.05,-1.05,-0.42,-0.25,2.83,2.82,2.83
48.97,3.88,1.08,3.88,1.08,-1.08,-0.43,-0.31,2.80,2.80,2.80
49.46,3.87,1.10,3.88,1.10,-1.10,-0.45,-0.36,2.77,2.78,2.77
49.96,3.87,1.14,3.88,1.12,-1.12,-0.46,-0.42,2.75,2.75,2.73
50.46,3.87,1.14,3.87,1.14,-1.14,-0.48,-0.48,2.73,2.73,2.73
50.96,3.87,1.17,3.87,1.17,-1.17,-0.49,-0.53,2.70,2.70,2.70
51.47,3.86,1.19,3.86,1.18,-1.18,-0.51,-0.59,2.68,2.67,2.67
51.99,3.85,1.21,3.85,1.20,-1.20,-0.52,-0.64,2.65,2.65,2.64
52.51,3.84,1.21,3.84,1.22,-1.22,-0.54,-0.69,2.62,2.62,2.63
53.03,3.83,1.23,3.83,1.24,-1.24,-0.55,-0.75,2.59,2.59,2.60
53.56,3.82,1.25,3.82,1.25,-1.25,-0.56,-0.80,2.57,2.57,2.57
54.10,3.82,1.28,3.81,1.27,-1.27,-0.58,-0.85,2.55,2.54,2.54
54.64,3.79,1.28,3.80,1.28,-1.28,-0.59,-0.90,2.51,2.51,2.51
55.18,3.78,1.30,3.78,1.29,-1.29,-0.61,-0.95,2.49,2.49,2.48
55.74,3.76,1.31,3.76,1.30,-1.30,-0.62,-1.00,2.46,2.46,2.45
56.29,3.74,1.31,3.74,1.31,-1.31,-0.64,-1.04,2.43,2.43,2.43
56.86,3.72,1.32,3.72,1.32,-1.32,-0.65,-1.09,2.40,2.40,2.40
57.42,3.71,1.34,3.70,1.33,-1.33,-0.67,-1.13,2.38,2.38,2.37
58.00,3.68,1.33,3.68,1.33,-1.33,-0.68,-1.18,2.35,2.35,2.35
58.58,3.65,1.34,3.65,1.34,-1.34,-0.70,-1.22,2.31,2.32,2.31
59.16,3.63,1.34,3.63,1.34,-1.34,-0.72,-1.26,2.29,2.29,2.29
59.76,3.60,1.34,3.60,1.34,-1.34,-0.73,-1.29,2.26,2.26,2.26
60.35,3.57,1.34,3.57,1.34,-1.34,-0.75,-1.33,2.23,2.22,2.23
60.96,3.53,1.32,3.54,1.34,-1.34,-0.76,-1.36,2.19,2.19,2.21
61.57,3.50,1.34,3.50,1.34,-1.34,-0.78,-1.40,2.16,2.16,2.16
62.18,3.47,1.34,3.47,1.34,-1.34,-0.80,-1.43,2.13,2.13,2.13
62.80,3.44,1.34,3.43,1.33,-1.33,-0.82,-1.45,2.11,2.10,2.10
63.43,3.40,1.34,3.39,1.33,-1.33,-0.83,-1.48,2.07,2.07,2.06
64.07,3.35,1.33,3.35,1.32,-1.32,-0.85,-1.51,2.04,2.04,2.02
64.71,3.31,1.31,3.31,1.30,-1.30,-0.87,-1.53,2.01,2.01,2.00
65.35,3.26,1.29,3.27,1.29,-1.29,-0.89,-1.55,1.97,1.97,1.97
66.01,3.22,1.27,3.22,1.28,-1.28,-0.91,-1.57,1.94,1.94,1.95
66.67,3.18,1.27,3.17,1.26,-1.26,-0.93,-1.59,1.92,1.91,1.91
67.33,3.13,1.24,3.12,1.24,-1.24,-0.95,-1.61,1.89,1.88,1.89
68.01,3.07,1.22,3.07,1.22,-1.22,-0.97,-1.62,1.85,1.85,1.85
68.69,3.02,1.20,3.02,1.20,-1.20,-0.99,-1.64,1.82,1.82,1.82
69.37,2.96,1.17,2.96,1.18,-1.18,-1.02,-1.65,1.78,1.79,1.78
70.07,2.91,1.15,2.91,1.16,-1.16,-1.04,-1.66,1.75,1.75,1.76
70.77,2.86,1.13,2.85,1.14,-1.14,-1.06,-1.68,1.72,1.72,1.73
71.48,2.80,1.12,2.80,1.12,-1.12,-1.09,-1.69,1.68,1.68,1.68
72.19,2.74,1.09,2.74,1.10,-1.10,-1.11,-1.70,1.64,1.64,1.65
72.91,2.69,1.08,2.69,1.08,-1.08,-1.14,-1.71,1.61,1.61,1.61
73.64,2.63,1.07,2.63,1.06,-1.06,-1.16,-1.73,1.57,1.57,1.56
74.38,2.57,1.04,2.57,1.05,-1.05,-1.19,-1.74,1.52,1.52,1.53
75.12,2.52,1.05,2.52,1.04,-1.04,-1.22,-1.75,1.48,1.48,1.47
75.87,2.47,1.03,2.47,1.03,-1.03,-1.25,-1.77,1.44,1.44,1.44
76.63,2.41,1.01,2.41,1.02,-1.02,-1.28,-1.78,1.39,1.39,1.40
77.40,2.36,1.01,2.36,1.02,-1.02,-1.31,-1.80,1.34,1.35,1.35
78.17,2.31,1.02,2.32,1.02,-1.02,-1.34,-1.81,1.29,1.30,1.29
78.95,2.27,1.01,2.27,1.02,-1.02,-1.38,-1.83,1.25,1.25,1.26
79.74,2.22,1.01,2.23,1.03,-1.03,-1.41,-1.85,1.19,1.20,1.21
80.54,2.18,1.03,2.19,1.04,-1.04,-1.45,-1.87,1.14,1.15,1.15
81.35,2.15,1.05,2.15,1.05,-1.05,-1.48,-1.89,1.10,1.10,1.10
82.16,2.12,1.08,2.11,1.07,-1.07,-1.52,-1.91,1.05,1.05,1.04
82.98,2.08,1.08,2.08,1.09,-1.09,-1.56,-1.94,0.99,0.99,1.00
83.81,2.06,1.13,2.05,1.12,-1.12,-1.61,-1.96,0.94,0.94,0.93
84.65,2.02,1.14,2.03,1.15,-1.15,-1.65,-1.99,0.87,0.88,0.88
85.50,2.00,1.17,2.01,1.18,-1.18,-1.69,-2.02,0.82,0.82,0.83
86.35,1.99,1.22,1.99,1.22,-1.22,-1.74,-2.05,0.77,0.77,0.77
87.22,1.96,1.25,1.97,1.26,-1.26,-1.79,-2.08,0.70,0.71,0.71
88.09,1.96,1.31,1.96,1.30,-1.30,-1.84,-2.11,0.66,0.65,0.65
88.97,1.94,1.34,1.94,1.35,-1.35,-1.89,-2.15,0.59,0.59,0.60
89.86,1.93,1.40,1.93,1.40,-1.40,-1.95,-2.19,0.53,0.53,0.53
90.76,1.92,1.46,1.92,1.45,-1.45,-2.00,-2.23,0.47,0.47,0.46
91.66,1.92,1.51,1.92,1.51,-1.51,-2.06,-2.27,0.41,0.41,0.41
92.58,1.91,1.57,1.91,1.57,-1.57,-2.12,-2.31,0.34,0.35,0.34
93.51,1.91,1.62,1.91,1.62,-1.62,-2.18,-2.35,0.29,0.28,0.29
94.44,1.91,1.68,1.91,1.69,-1.69,-2.25,-2.40,0.22,0.22,0.23
95.39,1.91,1.75,1.90,1.75,-1.75,-2.32,-2.44,0.16,0.15,0.16
96.34,1.90,1.81,1.90,1.81,-1.81,-2.38,-2.49,0.09,0.09,0.09
97.30,1.89,1.87,1.90,1.88,-1.88,-2.46,-2.54,0.01,0.02,0.02
98.28,1.90,1.95,1.89,1.94,-1.94,-2.53,-2.59,-0.04,-0.05,-0.05
99.26,1.89,2.01,1.89,2.01,-2.01,-2.60,-2.64,-0.12,-0.12,-0.12
100.25,1.89,2.08,1.89,2.08,-2.08,-2.68,-2.69,-0.19,-0.19,-0.19
101.25,1.88,2.14,1.88,2.14,-2.14,-2.76,-2.75,-0.26,-0.26,-0.26
102.27,1.88,2.22,1.88,2.21,-2.21,-2.84,-2.80,-0.33,-0.33,-0.34
103.29,1.87,2.28,1.87,2.28,-2.28,-2.92,-2.85,-0.41,-0.41,-0.41
104.32,1.87,2.35,1.86,2.34,-2.34,-3.00,-2.91,-0.47,-0.48,-0.48
105.37,1.86,2.41,1.86,2.41,-2.41,-3.08,-2.96,-0.55,-0.55,-0.55
106.42,1.84,2.47,1.85,2.48,-2.48,-3.16,-3.01,-0.64,-0.63,-0.63
107.48,1.83,2.53,1.84,2.54,-2.54,-3.24,-3.06,-0.71,-0.71,-0.70
108.56,1.82,2.60,1.82,2.61,-2.61,-3.32,-3.11,-0.79,-0.78,-0.78
109.64,1.81,2.67,1.81,2.67,-2.67,-3.40,-3.16,-0.86,-0.86,-0.86
110.74,1.80,2.73,1.79,2.73,-2.73,-3.47,-3.20,-0.93,-0.94,-0.93
111.85,1.78,2.78,1.78,2.79,-2.79,-3.55,-3.24,-1.01,-1.01,-1.00
112.97,1.76,2.86,1.76,2.85,-2.85,-3.61,-3.28,-1.09,-1.09,-1.10
114.10,1.73,2.90,1.73,2.90,-2.90,-3.68,-3.32,-1.17,-1.17,-1.17
115.24,1.71,2.95,1.71,2.95,-2.95,-3.74,-3.35,-1.24,-1.25,-1.24
116.39,1.69,3.02,1.68,3.00,-3.00,-3.79,-3.38,-1.31,-1.32,-1.33
117.55,1.65,3.06,1.65,3.05,-3.05,-3.83,-3.40,-1.40,-1.40,-1.41
118.73,1.62,3.10,1.62,3.09,-3.09,-3.87,-3.42,-1.47,-1.47,-1.48
119.92,1.59,3.13,1.59,3.13,-3.13,-3.90,-3.43,-1.54,-1.55,-1.54
121.12,1.55,3.17,1.55,3.17,-3.17,-3.92,-3.44,-1.62,-1.62,-1.62
122.33,1.51,3.20,1.51,3.20,-3.20,-3.93,-3.44,-1.69,-1.69,-1.69
123.55,1.47,3.22,1.47,3.23,-3.23,-3.93,-3.43,-1.76,-1.76,-1.75
124.79,1.42,3.25,1.43,3.26,-3.26,-3.92,-3.42,-1.84,-1.83,-1.83
126.03,1.38,3.27,1.38,3.28,-3.28,-3.91,-3.40,-1.90,-1.90,-1.89
127.29,1.33,3.29,1.33,3.30,-3.30,-3.88,-3.38,-1.97,-1.97,-1.96
128.57,1.28,3.32,1.28,3.31,-3.31,-3.85,-3.35,-2.03,-2.03,-2.04
129.85,1.23,3.33,1.23,3.32,-3.32,-3.80,-3.31,-2.09,-2.09,-2.10
131.15,1.17,3.33,1.17,3.32,-3.32,-3.75,-3.27,-2.15,-2.16,-2.16
132.46,1.12,3.34,1.11,3.32,-3.32,-3.70,-3.23,-2.20,-2.22,-2.22
133.79,1.05,3.32,1.04,3.32,-3.32,-3.63,-3.17,-2.27,-2.27,-2.27
135.12,0.98,3.32,0.98,3.30,-3.30,-3.56,-3.12,-2.32,-2.33,-2.34
136.48,0.91,3.29,0.91,3.29,-3.29,-3.49,-3.05,-2.38,-2.38,-2.38
137.84,0.83,3.25,0.83,3.26,-3.26,-3.41,-2.99,-2.43,-2.43,-2.42
139.22,0.76,3.25,0.76,3.24,-3.24,-3.33,-2.92,-2.48,-2.48,-2.49
140.61,0.68,3.22,0.68,3.21,-3.21,-3.25,-2.84,-2.53,-2.52,-2.54
142.02,0.60,3.16,0.60,3.17,-3.17,-3.16,-2.77,-2.57,-2.57,-2.56
143.44,0.52,3.12,0.52,3.13,-3.13,-3.07,-2.69,-2.61,-2.61,-2.60
144.87,0.44,3.09,0.44,3.09,-3.09,-2.98,-2.60,-2.65,-2.65,-2.65
146.32,0.36,3.05,0.36,3.05,-3.05,-2.89,-2.52,-2.69,-2.69,-2.69
147.78,0.27,2.99,0.28,3.00,-3.00,-2.81,-2.43,-2.73,-2.72,-2.72
149.26,0.20,2.95,0.20,2.96,-2.96,-2.72,-2.34,-2.76,-2.76,-2.75
150.75,0.11,2.91,0.12,2.91,-2.91,-2.63,-2.25,-2.80,-2.80,-2.80
152.26,0.03,2.86,0.03,2.86,-2.86,-2.54,-2.16,-2.83,-2.83,-2.83
153.78,-0.05,2.82,-0.05,2.81,-2.81,-2.46,-2.07,-2.86,-2.87,-2.87
155.32,-0.14,2.76,-0.14,2.76,-2.76,-2.37,-1.98,-2.90,-2.90,-2.90
156.88,-0.23,2.70,-0.23,2.71,-2.71,-2.29,-1.88,-2.94,-2.94,-2.93
158.44,-0.32,2.65,-0.32,2.66,-2.66,-2.21,-1.79,-2.98,-2.97,-2.97
160.03,-0.40,2.61,-0.41,2.60,-2.60,-2.13,-1.70,-3.00,-3.00,-3.01
161.63,-0.50,2.55,-0.50,2.54,-2.54,-2.05,-1.60,-3.04,-3.04,-3.05
163.24,-0.59,2.49,-0.59,2.48,-2.48,-1.97,-1.51,-3.07,-3.07,-3.08
164.88,-0.69,2.41,-0.69,2.42,-2.42,-1.89,-1.42,-3.11,-3.11,-3.10
166.53,-0.79,2.35,-0.79,2.35,-2.35,-1.82,-1.33,-3.14,-3.14,-3.14
168.19,-0.90,2.28,-0.90,2.28,-2.28,-1.74,-1.24,-3.18,-3.18,-3.18
169.87,-1.01,2.21,-1.00,2.21,-2.21,-1.67,-1.14,-3.22,-3.22,-3.22
171.57,-1.11,2.14,-1.12,2.14,-2.14,-1.60,-1.05,-3.25,-3.26,-3.25
173.29,-1.23,2.05,-1.23,2.07,-2.07,-1.53,-0.96,-3.30,-3.29,-3.28
175.02,-1.34,1.98,-1.35,1.99,-1.99,-1.46,-0.87,-3.33,-3.33,-3.32
176.77,-1.47,1.90,-1.47,1.91,-1.91,-1.39,-0.78,-3.38,-3.37,-3.37
178.54,-1.59,1.82,-1.59,1.82,-1.82,-1.32,-0.70,-3.41,-3.41,-3.41
180.32,-1.71,1.74,-1.72,1.73,-1.73,-1.25,-0.61,-3.44,-3.45,-3.45
182.13,-1.85,1.64,-1.85,1.64,-1.64,-1.18,-0.52,-3.49,-3.49,-3.49
183.95,-1.99,1.55,-1.98,1.55,-1.55,-1.11,-0.43,-3.54,-3.53,-3.54
185.79,-2.12,1.45,-2.12,1.45,-1.45,-1.04,-0.35,-3.57,-3.57,-3.57
187.65,-2.26,1.36,-2.27,1.34,-1.34,-0.97,-0.26,-3.60,-3.61,-3.62
189.52,-2.41,1.24,-2.41,1.23,-1.23,-0.90,-0.18,-3.64,-3.65,-3.65
191.42,-2.55,1.14,-2.56,1.12,-1.12,-0.83,-0.09,-3.67,-3.68,-3.69
193.33,-2.71,1.00,-2.72,1.00,-1.00,-0.76,-0.01,-3.71,-3.72,-3.71
195.27,-2.87,0.87,-2.87,0.88,-0.88,-0.68,0.07,-3.75,-3.75,-3.74
197.22,-3.03,0.74,-3.03,0.75,-0.75,-0.61,0.16,-3.78,-3.78,-3.77
199.19,-3.19,0.63,-3.20,0.61,-0.61,-0.53,0.24,-3.80,-3.81,-3.82
201.18,-3.35,0.49,-3.36,0.48,-0.48,-0.44,0.32,-3.83,-3.84,-3.85
203.19,-3.53,0.33,-3.53,0.34,-0.34,-0.36,0.39,-3.87,-3.87,-3.86
205.23,-3.69,0.20,-3.69,0.20,-0.20,-0.27,0.47,-3.89,-3.89,-3.89
207.28,-3.86,0.04,-3.86,0.06,-0.06,-0.18,0.55,-3.92,-3.92,-3.90
209.35,-4.02,-0.08,-4.02,-0.08,0.08,-0.08,0.62,-3.94,-3.94,-3.94
211.44,-4.18,-0.21,-4.18,-0.22,0.22,0.02,0.69,-3.96,-3.96,-3.97
213.56,-4.35,-0.37,-4.34,-0.36,0.36,0.13,0.77,-3.99,-3.98,-3.98
215.69,-4.50,-0.51,-4.50,-0.50,0.50,0.24,0.83,-4.00,-4.00,-3.99
217.85,-4.66,-0.65,-4.65,-0.64,0.64,0.36,0.90,-4.02,-4.01,-4.01
220.03,-4.80,-0.77,-4.80,-0.77,0.77,0.48,0.96,-4.03,-4.02,-4.03
222.23,-4.94,-0.89,-4.94,-0.90,0.90,0.61,1.03,-4.04,-4.03,-4.05
224.45,-5.07,-1.03,-5.07,-1.03,1.03,0.75,1.08,-4.04,-4.04,-4.04
226.70,-5.21,-1.16,-5.20,-1.15,1.15,0.89,1.14,-4.06,-4.05,-4.05
228.96,-5.33,-1.27,-5.32,-1.27,1.27,1.04,1.19,-4.06,-4.05,-4.06
231.25,-5.45,-1.40,-5.44,-1.39,1.39,1.19,1.24,-4.06,-4.05,-4.05
233.57,-5.56,-1.52,-5.55,-1.50,1.50,1.35,1.28,-4.06,-4.05,-4.04
235.90,-5.66,-1.62,-5.66,-1.62,1.62,1.52,1.32,-4.04,-4.04,-4.04
238.26,-5.75,-1.71,-5.76,-1.73,1.73,1.68,1.36,-4.02,-4.03,-4.04
240.64,-5.85,-1.83,-5.86,-1.84,1.84,1.85,1.39,-4.01,-4.02,-4.02
243.05,-5.93,-1.91,-5.96,-1.95,1.95,2.01,1.42,-3.98,-4.01,-4.02
245.48,-6.02,-2.02,-6.05,-2.05,2.05,2.17,1.44,-3.97,-4.00,-4.00
247.93,-6.10,-2.12,-6.14,-2.15,2.15,2.31,1.46,-3.95,-3.98,-3.99
250.41,-6.17,-2.20,-6.22,-2.25,2.25,2.44,1.47,-3.92,-3.97,-3.97
252.92,-6.25,-2.31,-6.28,-2.34,2.34,2.55,1.48,-3.91,-3.95,-3.94
255.45,-6.33,-2.41,-6.34,-2.41,2.41,2.63,1.48,-3.92,-3.93,-3.92
258.00,-6.39,-2.49,-6.38,-2.47,2.47,2.68,1.48,-3.92,-3.91,-3.90
260.58,-6.43,-2.54,-6.40,-2.51,2.51,2.71,1.48,-3.92,-3.89,-3.89
263.19,-6.46,-2.59,-6.40,-2.54,2.54,2.71,1.47,-3.92,-3.86,-3.87
265.82,-6.45,-2.61,-6.39,-2.54,2.54,2.67,1.45,-3.91,-3.84,-3.84
268.48,-6.42,-2.60,-6.34,-2.52,2.52,2.61,1.43,-3.90,-3.82,-3.82
271.16,-6.35,-2.56,-6.28,-2.48,2.48,2.52,1.41,-3.86,-3.80,-3.79
273.87,-6.26,-2.48,-6.20,-2.42,2.42,2.42,1.39,-3.84,-3.78,-3.78
276.61,-6.14,-2.40,-6.10,-2.34,2.34,2.29,1.36,-3.80,-3.75,-3.74
279.38,-5.99,-2.26,-5.98,-2.25,2.25,2.16,1.33,-3.74,-3.73,-3.73
282.17,-5.84,-2.14,-5.84,-2.14,2.14,2.02,1.29,-3.70,-3.70,-3.70
284.99,-5.67,-1.99,-5.70,-2.02,2.02,1.87,1.25,-3.65,-3.68,-3.68
287.84,-5.51,-1.85,-5.54,-1.89,1.89,1.73,1.21,-3.62,-3.65,-3.66
290.72,-5.34,-1.72,-5.39,-1.76,1.76,1.58,1.17,-3.58,-3.62,-3.62
293.63,-5.18,-1.57,-5.23,-1.63,1.63,1.44,1.13,-3.55,-3.60,-3.61
296.57,-5.03,-1.46,-5.07,-1.50,1.50,1.31,1.08,-3.53,-3.57,-3.57
299.53,-4.89,-1.34,-4.92,-1.38,1.38,1.18,1.04,-3.51,-3.54,-3.55
302.53,-4.76,-1.24,-4.78,-1.27,1.27,1.06,0.99,-3.49,-3.51,-3.52
305.55,-4.63,-1.15,-4.64,-1.16,1.16,0.95,0.94,-3.47,-3.48,-3.48
308.61,-4.51,-1.06,-4.51,-1.06,1.06,0.84,0.89,-3.45,-3.45,-3.45
311.69,-4.39,-0.98,-4.39,-0.97,0.97,0.74,0.84,-3.42,-3.42,-3.41
314.81,-4.27,-0.89,-4.27,-0.89,0.89,0.64,0.79,-3.38,-3.39,-3.38
317.96,-4.17,-0.82,-4.16,-0.80,0.80,0.56,0.74,-3.37,-3.36,-3.35
321.14,-4.05,-0.72,-4.05,-0.73,0.73,0.48,0.69,-3.32,-3.33,-3.33
324.35,-3.95,-0.65,-3.95,-0.65,0.65,0.40,0.64,-3.30,-3.30,-3.30
327.59,-3.85,-0.59,-3.85,-0.58,0.58,0.33,0.58,-3.27,-3.27,-3.26
330.87,-3.75,-0.51,-3.75,-0.51,0.51,0.27,0.53,-3.24,-3.24,-3.24
334.18,-3.65,-0.43,-3.65,-0.44,0.44,0.21,0.48,-3.21,-3.22,-3.22
337.52,-3.55,-0.36,-3.56,-0.37,0.37,0.15,0.43,-3.18,-3.19,-3.19
340.90,-3.46,-0.30,-3.46,-0.29,0.29,0.10,0.38,-3.17,-3.17,-3.16
344.30,-3.37,-0.22,-3.37,-0.22,0.22,0.05,0.33,-3.15,-3.15,-3.15
347.75,-3.29,-0.17,-3.28,-0.15,0.15,0.00,0.27,-3.14,-3.13,-3.12
351.23,-3.19,-0.09,-3.19,-0.08,0.08,-0.04,0.22,-3.11,-3.11,-3.10
354.74,-3.11,-0.02,-3.09,-0.01,0.01,-0.08,0.17,-3.10,-3.09,-3.09
358.28,-3.02,0.05,-3.01,0.06,-0.06,-0.11,0.12,-3.08,-3.07,-3.07
361.87,-2.92,0.13,-2.92,0.13,-0.13,-0.15,0.07,-3.05,-3.05,-3.05
365.49,-2.83,0.19,-2.83,0.20,-0.20,-0.18,0.02,-3.03,-3.03,-3.02
369.14,-2.74,0.27,-2.74,0.27,-0.27,-0.21,-0.03,-3.01,-3.01,-3.01
372.83,-2.65,0.35,-2.65,0.34,-0.34,-0.23,-0.08,-2.99,-2.99,-3.00
376.56,-2.56,0.42,-2.57,0.40,-0.40,-0.26,-0.13,-2.96,-2.97,-2.98
380.33,-2.48,0.47,-2.49,0.47,-0.47,-0.28,-0.18,-2.95,-2.95,-2.95
384.13,-2.40,0.53,-2.41,0.53,-0.53,-0.31,-0.23,-2.93,-2.93,-2.93
387.97,-2.33,0.58,-2.33,0.58,-0.58,-0.33,-0.27,-2.91,-2.91,-2.91
391.85,-2.25,0.65,-2.26,0.64,-0.64,-0.35,-0.32,-2.89,-2.89,-2.90
395.77,-2.18,0.69,-2.18,0.69,-0.69,-0.37,-0.37,-2.87,-2.87,-2.87
399.73,-2.11,0.74,-2.12,0.73,-0.73,-0.39,-0.42,-2.84,-2.85,-2.85
403.72,-2.05,0.78,-2.05,0.78,-0.78,-0.40,-0.46,-2.83,-2.83,-2.83
407.76,-2.00,0.81,-1.99,0.82,-0.82,-0.42,-0.51,-2.82,-2.81,-2.81
411.84,-1.94,0.84,-1.93,0.85,-0.85,-0.43,-0.56,-2.79,-2.79,-2.78
415.96,-1.88,0.88,-1.88,0.89,-0.89,-0.45,-0.60,-2.77,-2.77,-2.76
420.12,-1.83,0.92,-1.83,0.92,-0.92,-0.46,-0.64,-2.75,-2.74,-2.75
424.32,-1.78,0.94,-1.78,0.94,-0.94,-0.48,-0.69,-2.72,-2.72,-2.72
428.56,-1.73,0.97,-1.73,0.97,-0.97,-0.49,-0.73,-2.70,-2.70,-2.70
432.85,-1.69,0.99,-1.69,0.99,-0.99,-0.50,-0.77,-2.68,-2.67,-2.68
437.18,-1.64,1.01,-1.65,1.00,-1.00,-0.51,-0.81,-2.64,-2.65,-2.65
441.55,-1.60,1.02,-1.61,1.02,-1.02,-0.52,-0.85,-2.62,-2.63,-2.62
445.96,-1.57,1.03,-1.57,1.03,-1.03,-0.53,-0.89,-2.60,-2.60,-2.60
450.42,-1.53,1.05,-1.53,1.04,-1.04,-0.54,-0.92,-2.57,-2.57,-2.58
454.93,-1.50,1.04,-1.50,1.05,-1.05,-0.55,-0.96,-2.55,-2.55,-2.54
459.48,-1.47,1.06,-1.47,1.05,-1.05,-0.56,-0.99,-2.52,-2.52,-2.53
464.07,-1.44,1.06,-1.44,1.05,-1.05,-0.57,-1.02,-2.49,-2.49,-2.50
468.71,-1.41,1.05,-1.41,1.05,-1.05,-0.58,-1.05,-2.46,-2.47,-2.46
473.40,-1.39,1.05,-1.38,1.05,-1.05,-0.59,-1.07,-2.44,-2.44,-2.44
478.13,-1.36,1.05,-1.36,1.05,-1.05,-0.60,-1.10,-2.41,-2.41,-2.41
482.91,-1.34,1.04,-1.33,1.05,-1.05,-0.61,-1.12,-2.39,-2.38,-2.38
487.74,-1.30,1.05,-1.30,1.05,-1.05,-0.61,-1.14,-2.35,-2.35,-2.35
492.62,-1.28,1.04,-1.28,1.05,-1.05,-0.62,-1.16,-2.33,-2.32,-2.32
497.55,-1.25,1.05,-1.25,1.04,-1.04,-0.63,-1.17,-2.29,-2.30,-2.30
