frequency,raw,error,smoothed,error_smoothed,equalization,parametric_eq,fixed_band_eq,equalized_raw,equalized_smoothed,target
20.00,-8.28,-14.82,-8.28,-14.82,14.82,15.12,5.05,6.54,6.54,6.54
20.20,-8.19,-14.73,-8.20,-14.74,14.74,15.05,5.17,6.55,6.54,6.54
20.40,-8.12,-14.66,-8.12,-14.66,14.66,14.97,5.30,6.54,6.55,6.54
20.61,-8.03,-14.58,-8.03,-14.58,14.58,14.89,5.43,6.54,6.54,6.54
20.81,-7.94,-14.48,-7.95,-14.49,14.49,14.80,5.57,6.55,6.54,6.54
21.02,-7.87,-14.41,-7.87,-14.40,14.40,14.70,5.71,6.53,6.54,6.54
21.23,-7.78,-14.30,-7.79,-14.31,14.31,14.60,5.86,6.53,6.52,6.52
21.44,-7.70,-14.21,-7.70,-14.21,14.21,14.49,6.01,6.51,6.51,6.51
21.66,-7.62,-14.12,-7.62,-14.11,14.11,14.38,6.16,6.49,6.49,6.49
21.87,-7.53,-14.00,-7.53,-14.01,14.01,14.26,6.31,6.48,6.48,6.47
22.09,-7.44,-13.90,-7.45,-13.90,13.90,14.14,6.47,6.46,6.46,6.46
22.31,-7.36,-13.79,-7.36,-13.79,13.79,14.02,6.64,6.43,6.43,6.43
22.54,-7.27,-13.69,-7.27,-13.69,13.68,13.90,6.81,6.41,6.41,6.41
22.76,-7.18,-13.57,-7.18,-13.57,13.57,13.78,6.98,6.39,6.38,6.39
22.99,-7.09,-13.46,-7.09,-13.45,13.45,13.65,7.16,6.36,6.36,6.36
23.22,-7.00,-13.34,-7.00,-13.34,13.34,13.53,7.34,6.34,6.34,6.33
23.45,-6.91,-13.21,-6.91,-13.22,13.23,13.40,7.52,6.31,6.31,6.30
23.69,-6.82,-13.12,-6.82,-13.11,13.11,13.28,7.71,6.29,6.29,6.29
23.92,-6.72,-12.99,-6.72,-13.00,13.00,13.15,7.91,6.28,6.28,6.27
24.16,-6.62,-12.88,-6.63,-12.89,12.89,13.03,8.11,6.26,6.26,6.26
24.40,-6.54,-12.78,-6.53,-12.77,12.77,12.90,8.31,6.23,6.24,6.24
24.65,-6.44,-12.67,-6.44,-12.67,12.66,12.78,8.51,6.22,6.22,6.22
24.89,-6.34,-12.54,-6.35,-12.55,12.55,12.65,8.72,6.21,6.20,6.20
25.14,-6.25,-12.44,-6.25,-12.44,12.44,12.53,8.94,6.19,6.19,6.19
25.39,-6.15,-12.32,-6.15,-12.32,12.32,12.41,9.15,6.17,6.17,6.17
25.65,-6.05,-12.22,-6.05,-12.21,12.21,12.29,9.37,6.15,6.15,6.16
25.91,-5.95,-12.09,-5.95,-12.09,12.09,12.17,9.60,6.14,6.14,6.13
26.16,-5.85,-11.97,-5.85,-11.98,11.97,12.05,9.82,6.12,6.12,6.12
26.43,-5.75,-11.87,-5.75,-11.85,11.86,11.93,10.04,6.10,6.11,6.11
26.69,-5.64,-11.72,-5.65,-11.74,11.74,11.82,10.27,6.10,6.09,6.08
26.96,-5.54,-11.62,-5.54,-11.62,11.62,11.70,10.49,6.08,6.08,6.07
27.23,-5.44,-11.51,-5.44,-11.50,11.50,11.59,10.71,6.06,6.06,6.06
27.50,-5.34,-11.40,-5.34,-11.39,11.39,11.47,10.93,6.04,6.04,6.05
27.77,-5.24,-11.27,-5.24,-11.27,11.27,11.36,11.15,6.03,6.03,6.03
28.05,-5.13,-11.15,-5.14,-11.16,11.15,11.25,11.35,6.02,6.02,6.02
28.33,-5.03,-11.03,-5.03,-11.04,11.04,11.14,11.55,6.01,6.01,6.00
28.62,-4.93,-10.93,-4.93,-10.92,10.93,11.03,11.74,5.99,5.99,5.99
28.90,-4.83,-10.80,-4.84,-10.81,10.81,10.92,11.92,5.98,5.98,5.97
29.19,-4.74,-10.69,-4.74,-10.70,10.70,10.81,12.08,5.95,5.96,5.95
29.48,-4.63,-10.58,-4.63,-10.58,10.58,10.70,12.23,5.95,5.95,5.95
29.78,-4.53,-10.48,-4.53,-10.47,10.47,10.59,12.35,5.93,5.93,5.94
30.08,-4.42,-10.36,-4.43,-10.36,10.35,10.48,12.46,5.93,5.92,5.93
30.38,-4.33,-10.25,-4.33,-10.24,10.24,10.37,12.54,5.91,5.91,5.91
30.68,-4.22,-10.13,-4.23,-10.12,10.13,10.27,12.60,5.90,5.90,5.90
30.99,-4.12,-10.00,-4.13,-10.01,10.01,10.16,12.63,5.89,5.88,5.87
31.30,-4.03,-9.90,-4.03,-9.89,9.90,10.05,12.64,5.86,5.87,5.86
31.61,-3.93,-9.79,-3.94,-9.78,9.78,9.94,12.62,5.85,5.85,5.85
31.93,-3.84,-9.68,-3.85,-9.67,9.67,9.84,12.58,5.83,5.83,5.83
32.24,-3.76,-9.56,-3.76,-9.56,9.56,9.73,12.52,5.80,5.81,5.80
32.57,-3.66,-9.45,-3.67,-9.45,9.45,9.62,12.43,5.79,5.78,5.78
32.89,-3.57,-9.34,-3.57,-9.34,9.34,9.51,12.31,5.77,5.77,5.77
33.22,-3.48,-9.22,-3.48,-9.23,9.23,9.40,12.18,5.75,5.75,5.74
33.55,-3.39,-9.12,-3.39,-9.12,9.12,9.29,12.04,5.73,5.72,5.73
33.89,-3.30,-9.01,-3.30,-9.01,9.01,9.18,11.87,5.70,5.70,5.70
34.23,-3.21,-8.90,-3.21,-8.90,8.90,9.07,11.70,5.68,5.68,5.68
34.57,-3.12,-8.78,-3.12,-8.78,8.79,8.96,11.51,5.66,5.66,5.66
34.92,-3.03,-8.68,-3.03,-8.67,8.68,8.86,11.32,5.64,5.64,5.64
35.27,-2.94,-8.57,-2.94,-8.57,8.57,8.74,11.11,5.62,5.62,5.62
35.62,-2.85,-8.46,-2.86,-8.46,8.46,8.63,10.91,5.61,5.60,5.60
35.97,-2.77,-8.35,-2.77,-8.35,8.35,8.52,10.70,5.58,5.58,5.58
36.33,-2.68,-8.24,-2.68,-8.25,8.24,8.41,10.48,5.56,5.56,5.56
36.70,-2.60,-8.15,-2.60,-8.14,8.14,8.30,10.27,5.53,5.54,5.54
37.06,-2.50,-8.02,-2.51,-8.03,8.03,8.19,10.06,5.53,5.52,5.52
37.43,-2.42,-7.92,-2.42,-7.92,7.92,8.08,9.84,5.50,5.50,5.50
37.81,-2.33,-7.82,-2.33,-7.81,7.81,7.97,9.63,5.48,5.48,5.48
38.19,-2.24,-7.70,-2.25,-7.71,7.71,7.86,9.42,5.46,5.46,5.45
38.57,-2.16,-7.61,-2.16,-7.60,7.60,7.75,9.22,5.44,5.44,5.44
38.95,-2.08,-7.49,-2.08,-7.49,7.49,7.64,9.01,5.41,5.42,5.41
39.34,-1.99,-7.38,-2.00,-7.39,7.39,7.53,8.81,5.40,5.39,5.39
39.74,-1.91,-7.29,-1.91,-7.29,7.29,7.41,8.62,5.37,5.37,5.37
40.14,-1.83,-7.20,-1.83,-7.19,7.19,7.30,8.43,5.35,5.36,5.36
40.54,-1.75,-7.10,-1.75,-7.09,7.09,7.19,8.24,5.34,5.34,5.34
40.94,-1.66,-6.98,-1.67,-6.99,6.99,7.09,8.06,5.33,5.32,5.32
41.35,-1.59,-6.88,-1.59,-6.89,6.90,6.98,7.88,5.30,5.31,5.29
41.76,-1.51,-6.80,-1.51,-6.80,6.80,6.87,7.71,5.29,5.29,5.29
42.18,-1.43,-6.70,-1.44,-6.71,6.70,6.76,7.54,5.27,5.27,5.27
42.60,-1.36,-6.61,-1.36,-6.62,6.61,6.65,7.37,5.25,5.25,5.25
43.03,-1.28,-6.52,-1.28,-6.52,6.51,6.55,7.21,5.23,5.23,5.24
43.46,-1.20,-6.41,-1.20,-6.42,6.42,6.44,7.06,5.21,5.21,5.21
43.90,-1.12,-6.32,-1.13,-6.32,6.32,6.34,6.91,5.20,5.19,5.19
44.33,-1.05,-6.22,-1.05,-6.22,6.22,6.23,6.76,5.17,5.17,5.17
44.78,-0.98,-6.14,-0.98,-6.13,6.13,6.13,6.62,5.14,5.15,5.15
45.23,-0.90,-6.03,-0.91,-6.03,6.03,6.03,6.48,5.13,5.13,5.12
45.68,-0.83,-5.94,-0.83,-5.94,5.94,5.92,6.35,5.11,5.11,5.10
46.13,-0.75,-5.84,-0.76,-5.85,5.85,5.82,6.22,5.10,5.10,5.09
46.60,-0.68,-5.77,-0.68,-5.76,5.76,5.72,6.10,5.08,5.08,5.08
47.06,-0.61,-5.67,-0.61,-5.68,5.67,5.63,5.97,5.06,5.06,5.06
47.53,-0.54,-5.58,-0.55,-5.59,5.59,5.53,5.86,5.04,5.04,5.04
48.01,-0.48,-5.52,-0.48,-5.51,5.50,5.43,5.74,5.01,5.02,5.03
48.49,-0.41,-5.42,-0.41,-5.42,5.41,5.34,5.63,5.00,4.99,5.00
48.97,-0.35,-5.32,-0.35,-5.32,5.32,5.24,5.53,4.97,4.97,4.97
49.46,-0.28,-5.22,-0.29,-5.23,5.23,5.15,5.42,4.95,4.95,4.94
49.96,-0.22,-5.14,-0.22,-5.14,5.14,5.06,5.32,4.92,4.92,4.91
50.46,-0.15,-5.06,-0.16,-5.05,5.06,4.97,5.23,4.90,4.90,4.90
50.96,-0.09,-4.97,-0.09,-4.97,4.97,4.88,5.13,4.88,4.88,4.88
51.47,-0.03,-4.88,-0.03,-4.89,4.89,4.79,5.04,4.86,4.86,4.85
51.99,0.03,-4.81,0.02,-4.81,4.81,4.71,4.95,4.83,4.83,4.83
52.51,0.08,-4.74,0.08,-4.73,4.73,4.62,4.87,4.80,4.81,4.81
53.03,0.14,-4.65,0.14,-4.65,4.65,4.54,4.79,4.78,4.79,4.79
53.56,0.20,-4.56,0.19,-4.57,4.57,4.45,4.70,4.77,4.76,4.76
54.10,0.26,-4.49,0.25,-4.49,4.49,4.37,4.63,4.75,4.74,4.74
54.64,0.30,-4.42,0.31,-4.41,4.41,4.29,4.55,4.71,4.72,4.71
55.18,0.36,-4.33,0.36,-4.33,4.33,4.21,4.47,4.69,4.69,4.69
55.74,0.42,-4.25,0.41,-4.26,4.25,4.14,4.40,4.67,4.66,4.66
56.29,0.46,-4.18,0.46,-4.18,4.18,4.06,4.33,4.64,4.64,4.64
56.86,0.51,-4.11,0.51,-4.10,4.10,3.98,4.25,4.61,4.62,4.61
57.42,0.57,-4.02,0.56,-4.03,4.03,3.91,4.18,4.60,4.59,4.59
58.00,0.61,-3.96,0.61,-3.96,3.96,3.84,4.11,4.57,4.57,4.57
58.58,0.65,-3.90,0.65,-3.89,3.89,3.77,4.04,4.54,4.55,4.54
59.16,0.71,-3.81,0.70,-3.82,3.82,3.70,3.98,4.53,4.52,4.52
59.76,0.74,-3.77,0.74,-3.76,3.76,3.63,3.91,4.49,4.50,4.50
60.35,0.79,-3.68,0.78,-3.69,3.69,3.56,3.84,4.47,4.47,4.47
60.96,0.82,-3.64,0.82,-3.63,3.62,3.49,3.77,4.43,4.44,4.45
61.57,0.86,-3.56,0.86,-3.55,3.55,3.43,3.70,4.41,4.41,4.41
62.18,0.91,-3.47,0.90,-3.48,3.48,3.36,3.64,4.39,4.38,4.38
62.80,0.94,-3.41,0.94,-3.41,3.42,3.30,3.57,4.36,4.36,4.35
63.43,0.98,-3.34,0.98,-3.35,3.36,3.24,3.50,4.33,4.33,4.32
64.07,1.01,-3.29,1.01,-3.29,3.29,3.17,3.43,4.30,4.30,4.29
64.71,1.04,-3.24,1.04,-3.24,3.23,3.11,3.37,4.27,4.27,4.27
65.35,1.07,-3.18,1.07,-3.18,3.18,3.06,3.30,4.24,4.24,4.25
66.01,1.10,-3.14,1.10,-3.13,3.12,3.00,3.23,4.22,4.22,4.23
66.67,1.14,-3.07,1.13,-3.07,3.07,2.94,3.16,4.21,4.20,4.20
67.33,1.17,-3.01,1.16,-3.02,3.02,2.89,3.09,4.19,4.18,4.18
68.01,1.19,-2.96,1.19,-2.96,2.97,2.83,3.02,4.15,4.16,4.15
68.69,1.22,-2.91,1.21,-2.91,2.92,2.78,2.95,4.13,4.13,4.13
69.37,1.24,-2.86,1.24,-2.87,2.87,2.72,2.89,4.10,4.10,4.10
70.07,1.26,-2.81,1.26,-2.82,2.82,2.67,2.82,4.07,4.08,4.07
70.77,1.28,-2.77,1.28,-2.77,2.77,2.62,2.75,4.04,4.05,4.05
71.48,1.31,-2.72,1.30,-2.72,2.72,2.57,2.68,4.02,4.02,4.02
72.19,1.32,-2.67,1.32,-2.67,2.67,2.52,2.61,3.98,3.99,3.99
72.91,1.34,-2.61,1.34,-2.62,2.62,2.48,2.55,3.95,3.96,3.95
73.64,1.36,-2.56,1.35,-2.57,2.57,2.43,2.48,3.92,3.92,3.92
74.38,1.37,-2.52,1.37,-2.51,2.52,2.38,2.41,3.88,3.89,3.89
75.12,1.39,-2.45,1.38,-2.46,2.47,2.34,2.35,3.85,3.85,3.84
75.87,1.40,-2.41,1.40,-2.42,2.42,2.29,2.28,3.81,3.81,3.81
76.63,1.41,-2.37,1.41,-2.37,2.37,2.25,2.22,3.77,3.78,3.78
77.40,1.42,-2.32,1.42,-2.32,2.32,2.21,2.15,3.74,3.74,3.74
78.17,1.43,-2.25,1.43,-2.27,2.27,2.16,2.09,3.70,3.70,3.68
78.95,1.44,-2.22,1.44,-2.22,2.22,2.12,2.03,3.66,3.66,3.66
79.74,1.45,-2.17,1.44,-2.17,2.17,2.08,1.96,3.62,3.61,3.62
80.54,1.45,-2.12,1.45,-2.13,2.12,2.04,1.90,3.57,3.57,3.57
81.35,1.46,-2.07,1.46,-2.07,2.07,2.00,1.84,3.53,3.53,3.53
82.16,1.47,-2.01,1.46,-2.02,2.02,1.97,1.78,3.49,3.49,3.48
82.98,1.47,-1.97,1.47,-1.97,1.97,1.93,1.72,3.44,3.44,3.44
83.81,1.47,-1.91,1.46,-1.92,1.93,1.89,1.67,3.39,3.39,3.38
84.65,1.46,-1.88,1.46,-1.88,1.88,1.86,1.61,3.34,3.34,3.34
85.50,1.47,-1.84,1.46,-1.83,1.83,1.82,1.55,3.30,3.30,3.30
86.35,1.47,-1.78,1.46,-1.79,1.79,1.79,1.50,3.25,3.25,3.25
87.22,1.46,-1.75,1.46,-1.74,1.74,1.75,1.44,3.20,3.20,3.20
88.09,1.46,-1.69,1.46,-1.69,1.69,1.72,1.39,3.15,3.15,3.14
88.97,1.45,-1.65,1.45,-1.65,1.65,1.69,1.33,3.10,3.10,3.10
89.86,1.45,-1.60,1.44,-1.60,1.60,1.66,1.28,3.05,3.05,3.05
90.76,1.44,-1.56,1.44,-1.56,1.56,1.63,1.23,3.00,3.00,2.99
91.66,1.43,-1.51,1.43,-1.51,1.52,1.60,1.17,2.94,2.94,2.94
92.58,1.42,-1.46,1.42,-1.47,1.47,1.57,1.12,2.89,2.89,2.88
93.51,1.41,-1.43,1.41,-1.43,1.43,1.54,1.07,2.83,2.84,2.84
94.44,1.41,-1.38,1.40,-1.38,1.38,1.51,1.02,2.79,2.78,2.79
95.39,1.40,-1.34,1.40,-1.33,1.33,1.48,0.97,2.73,2.73,2.73
96.34,1.39,-1.27,1.38,-1.29,1.29,1.45,0.93,2.67,2.67,2.66
97.30,1.37,-1.24,1.37,-1.24,1.24,1.43,0.88,2.61,2.61,2.61
98.28,1.36,-1.20,1.36,-1.19,1.19,1.40,0.83,2.55,2.55,2.55
99.26,1.35,-1.13,1.35,-1.14,1.14,1.37,0.78,2.49,2.49,2.48
100.25,1.34,-1.09,1.33,-1.09,1.09,1.35,0.74,2.43,2.43,2.43
101.25,1.32,-1.05,1.32,-1.04,1.05,1.32,0.69,2.36,2.37,2.37
102.27,1.31,-1.00,1.30,-1.00,1.00,1.30,0.65,2.31,2.31,2.30
103.29,1.29,-0.94,1.29,-0.95,0.96,1.28,0.61,2.24,2.24,2.23
104.32,1.27,-0.91,1.27,-0.91,0.91,1.25,0.56,2.18,2.18,2.18
105.37,1.26,-0.87,1.25,-0.87,0.86,1.23,0.52,2.12,2.11,2.12
106.42,1.23,-0.82,1.23,-0.82,0.82,1.21,0.48,2.04,2.05,2.05
107.48,1.21,-0.77,1.21,-0.77,0.77,1.19,0.44,1.98,1.98,1.98
108.56,1.20,-0.71,1.19,-0.72,0.72,1.17,0.41,1.92,1.92,1.91
109.64,1.18,-0.67,1.18,-0.68,0.68,1.14,0.37,1.85,1.86,1.85
110.74,1.16,-0.63,1.16,-0.63,0.63,1.12,0.33,1.79,1.79,1.79
111.85,1.14,-0.58,1.13,-0.59,0.58,1.10,0.30,1.72,1.72,1.72
112.97,1.11,-0.53,1.11,-0.54,0.54,1.08,0.26,1.64,1.65,1.64
114.10,1.09,-0.49,1.09,-0.49,0.49,1.07,0.23,1.58,1.58,1.58
115.24,1.07,-0.44,1.07,-0.44,0.44,1.05,0.20,1.51,1.51,1.51
116.39,1.05,-0.39,1.04,-0.40,0.40,1.03,0.17,1.45,1.44,1.44
117.55,1.02,-0.35,1.02,-0.35,0.36,1.01,0.15,1.37,1.38,1.37
118.73,1.00,-0.31,1.00,-0.32,0.32,0.99,0.12,1.31,1.31,1.31
119.92,0.98,-0.27,0.97,-0.28,0.28,0.98,0.10,1.25,1.25,1.25
121.12,0.95,-0.24,0.95,-0.24,0.24,0.96,0.08,1.19,1.19,1.19
122.33,0.93,-0.19,0.93,-0.20,0.20,0.94,0.06,1.13,1.13,1.12
123.55,0.91,-0.16,0.90,-0.17,0.17,0.93,0.04,1.07,1.07,1.07
124.79,0.88,-0.13,0.88,-0.13,0.13,0.91,0.02,1.01,1.01,1.01
126.03,0.86,-0.10,0.85,-0.10,0.10,0.90,0.01,0.95,0.95,0.96
127.29,0.83,-0.07,0.83,-0.07,0.06,0.88,-0.00,0.89,0.89,0.90
128.57,0.81,-0.02,0.81,-0.03,0.03,0.87,-0.02,0.84,0.84,0.83
129.85,0.79,0.01,0.78,0.00,0.00,0.85,-0.02,0.79,0.78,0.78
131.15,0.76,0.03,0.76,0.03,-0.03,0.84,-0.03,0.73,0.73,0.73
132.46,0.74,0.07,0.73,0.06,-0.05,0.82,-0.04,0.68,0.68,0.67
133.79,0.71,0.08,0.71,0.08,-0.08,0.81,-0.04,0.63,0.63,0.63
135.12,0.68,0.11,0.68,0.10,-0.10,0.80,-0.04,0.58,0.58,0.57
136.48,0.65,0.11,0.65,0.11,-0.11,0.79,-0.04,0.53,0.53,0.54
137.84,0.62,0.12,0.62,0.13,-0.13,0.77,-0.04,0.49,0.49,0.50
139.22,0.60,0.15,0.59,0.14,-0.14,0.76,-0.04,0.46,0.46,0.45
140.61,0.57,0.16,0.57,0.15,-0.14,0.75,-0.04,0.42,0.42,0.41
142.02,0.54,0.15,0.54,0.15,-0.15,0.74,-0.03,0.39,0.39,0.39
143.44,0.51,0.15,0.51,0.15,-0.15,0.73,-0.03,0.35,0.35,0.36
144.87,0.48,0.16,0.48,0.15,-0.16,0.72,-0.02,0.32,0.32,0.32
146.32,0.46,0.17,0.45,0.16,-0.16,0.71,-0.02,0.30,0.30,0.29
147.78,0.43,0.16,0.42,0.16,-0.16,0.70,-0.01,0.27,0.27,0.27
149.26,0.40,0.16,0.39,0.16,-0.16,0.69,-0.00,0.24,0.24,0.24
150.75,0.36,0.16,0.36,0.16,-0.15,0.68,0.01,0.20,0.21,0.20
152.26,0.34,0.16,0.33,0.15,-0.15,0.67,0.02,0.19,0.18,0.18
153.78,0.31,0.16,0.30,0.15,-0.15,0.66,0.03,0.16,0.16,0.15
155.32,0.27,0.14,0.27,0.14,-0.14,0.65,0.04,0.12,0.13,0.13
156.88,0.24,0.14,0.23,0.13,-0.14,0.64,0.05,0.10,0.10,0.10
158.44,0.20,0.13,0.20,0.13,-0.13,0.63,0.06,0.07,0.07,0.07
160.03,0.17,0.13,0.16,0.12,-0.12,0.62,0.07,0.04,0.04,0.04
161.63,0.13,0.12,0.13,0.12,-0.11,0.62,0.08,0.01,0.02,0.01
163.24,0.10,0.12,0.09,0.11,-0.10,0.61,0.09,-0.01,-0.01,-0.02
164.88,0.06,0.10,0.06,0.10,-0.09,0.60,0.10,-0.04,-0.04,-0.04
166.53,0.02,0.08,0.02,0.08,-0.08,0.59,0.11,-0.07,-0.07,-0.06
168.19,-0.02,0.08,-0.02,0.07,-0.07,0.59,0.13,-0.10,-0.10,-0.10
169.87,-0.06,0.07,-0.06,0.06,-0.06,0.58,0.14,-0.13,-0.13,-0.13
171.57,-0.10,0.06,-0.10,0.05,-0.05,0.57,0.15,-0.16,-0.15,-0.16
173.29,-0.14,0.04,-0.14,0.04,-0.04,0.57,0.16,-0.18,-0.19,-0.18
175.02,-0.18,0.04,-0.19,0.03,-0.03,0.56,0.17,-0.22,-0.22,-0.22
176.77,-0.23,0.03,-0.23,0.03,-0.03,0.56,0.18,-0.26,-0.26,-0.26
178.54,-0.27,0.03,-0.27,0.02,-0.02,0.55,0.20,-0.29,-0.29,-0.30
180.32,-0.31,0.02,-0.32,0.01,-0.02,0.55,0.21,-0.33,-0.33,-0.33
182.13,-0.35,0.01,-0.35,0.01,-0.01,0.54,0.22,-0.37,-0.37,-0.36
183.95,-0.39,0.01,-0.39,0.01,-0.01,0.54,0.23,-0.40,-0.40,-0.40
185.79,-0.42,0.02,-0.42,0.01,-0.01,0.53,0.24,-0.43,-0.43,-0.44
187.65,-0.45,0.03,-0.46,0.02,-0.01,0.53,0.25,-0.46,-0.47,-0.48
189.52,-0.49,0.02,-0.49,0.02,-0.01,0.52,0.27,-0.51,-0.50,-0.51
191.42,-0.51,0.02,-0.51,0.02,-0.02,0.52,0.28,-0.53,-0.53,-0.53
193.33,-0.53,0.02,-0.54,0.01,-0.03,0.52,0.29,-0.56,-0.56,-0.55
195.27,-0.55,0.03,-0.55,0.03,-0.04,0.51,0.30,-0.59,-0.59,-0.58
197.22,-0.57,0.04,-0.57,0.04,-0.04,0.51,0.31,-0.62,-0.61,-0.61
199.19,-0.58,0.08,-0.59,0.06,-0.05,0.51,0.32,-0.63,-0.64,-0.66
201.18,-0.60,0.07,-0.60,0.07,-0.06,0.50,0.33,-0.66,-0.66,-0.67
203.19,-0.62,0.07,-0.62,0.07,-0.06,0.50,0.35,-0.68,-0.68,-0.69
205.23,-0.64,0.07,-0.64,0.06,-0.06,0.50,0.36,-0.71,-0.71,-0.71
207.28,-0.66,0.06,-0.67,0.06,-0.06,0.50,0.37,-0.72,-0.73,-0.72
209.35,-0.69,0.06,-0.69,0.06,-0.06,0.49,0.38,-0.75,-0.74,-0.75
211.44,-0.71,0.06,-0.72,0.05,-0.05,0.49,0.39,-0.76,-0.76,-0.77
213.56,-0.74,0.05,-0.74,0.04,-0.04,0.49,0.40,-0.78,-0.78,-0.79
215.69,-0.77,0.02,-0.77,0.02,-0.03,0.49,0.41,-0.80,-0.80,-0.79
217.85,-0.79,0.01,-0.79,0.01,-0.02,0.49,0.42,-0.81,-0.81,-0.80
220.03,-0.81,0.02,-0.81,0.01,-0.01,0.49,0.43,-0.82,-0.82,-0.83
222.23,-0.83,0.01,-0.83,-0.00,0.00,0.49,0.45,-0.83,-0.83,-0.84
224.45,-0.84,-0.01,-0.85,-0.01,0.01,0.49,0.46,-0.83,-0.83,-0.83
226.70,-0.86,-0.02,-0.86,-0.02,0.02,0.49,0.47,-0.84,-0.84,-0.84
228.96,-0.86,-0.02,-0.87,-0.03,0.03,0.49,0.48,-0.84,-0.84,-0.84
231.25,-0.87,-0.04,-0.87,-0.04,0.04,0.49,0.49,-0.84,-0.84,-0.83
233.57,-0.87,-0.05,-0.87,-0.05,0.04,0.49,0.50,-0.83,-0.83,-0.82
235.90,-0.87,-0.05,-0.87,-0.05,0.05,0.49,0.51,-0.82,-0.82,-0.82
238.26,-0.86,-0.04,-0.87,-0.05,0.06,0.49,0.52,-0.80,-0.80,-0.82
240.64,-0.86,-0.06,-0.86,-0.07,0.07,0.49,0.53,-0.79,-0.79,-0.80
243.05,-0.86,-0.08,-0.87,-0.09,0.09,0.49,0.53,-0.78,-0.78,-0.78
245.48,-0.87,-0.11,-0.87,-0.10,0.11,0.49,0.54,-0.77,-0.76,-0.76
247.93,-0.87,-0.12,-0.87,-0.12,0.13,0.50,0.55,-0.75,-0.74,-0.75
250.41,-0.87,-0.13,-0.88,-0.15,0.15,0.50,0.56,-0.72,-0.72,-0.74
252.92,-0.88,-0.18,-0.89,-0.18,0.18,0.50,0.57,-0.70,-0.70,-0.70
255.45,-0.90,-0.22,-0.90,-0.22,0.21,0.50,0.58,-0.69,-0.68,-0.68
258.00,-0.91,-0.25,-0.91,-0.26,0.25,0.50,0.59,-0.66,-0.66,-0.66
260.58,-0.92,-0.28,-0.93,-0.29,0.29,0.51,0.59,-0.64,-0.64,-0.64
263.19,-0.94,-0.32,-0.94,-0.32,0.32,0.51,0.60,-0.62,-0.62,-0.62
265.82,-0.95,-0.35,-0.95,-0.36,0.36,0.51,0.61,-0.59,-0.59,-0.60
268.48,-0.97,-0.40,-0.97,-0.40,0.40,0.52,0.62,-0.57,-0.57,-0.57
271.16,-0.98,-0.44,-0.99,-0.45,0.45,0.52,0.62,-0.54,-0.54,-0.54
273.87,-1.01,-0.49,-1.01,-0.49,0.49,0.53,0.63,-0.53,-0.52,-0.52
276.61,-1.02,-0.53,-1.03,-0.53,0.53,0.53,0.64,-0.49,-0.49,-0.49
279.38,-1.04,-0.57,-1.04,-0.58,0.57,0.54,0.65,-0.47,-0.47,-0.47
282.17,-1.06,-0.61,-1.06,-0.62,0.62,0.54,0.66,-0.44,-0.44,-0.45
284.99,-1.08,-0.66,-1.08,-0.66,0.66,0.55,0.66,-0.42,-0.42,-0.42
287.84,-1.10,-0.70,-1.10,-0.71,0.71,0.55,0.67,-0.40,-0.39,-0.40
290.72,-1.11,-0.75,-1.12,-0.75,0.75,0.56,0.68,-0.36,-0.36,-0.36
293.63,-1.13,-0.79,-1.13,-0.80,0.80,0.56,0.69,-0.33,-0.34,-0.34
296.57,-1.15,-0.84,-1.15,-0.84,0.85,0.57,0.70,-0.31,-0.30,-0.31
299.53,-1.17,-0.89,-1.17,-0.89,0.90,0.58,0.71,-0.28,-0.28,-0.28
302.53,-1.19,-0.93,-1.19,-0.94,0.95,0.58,0.72,-0.24,-0.24,-0.26
305.55,-1.21,-1.00,-1.21,-1.00,1.00,0.59,0.73,-0.21,-0.21,-0.21
308.61,-1.22,-1.04,-1.23,-1.05,1.05,0.60,0.74,-0.17,-0.18,-0.18
311.69,-1.24,-1.10,-1.24,-1.10,1.10,0.61,0.75,-0.14,-0.14,-0.14
314.81,-1.25,-1.14,-1.25,-1.15,1.14,0.62,0.76,-0.11,-0.11,-0.11
317.96,-1.26,-1.18,-1.26,-1.18,1.18,0.63,0.77,-0.08,-0.08,-0.08
321.14,-1.26,-1.21,-1.26,-1.21,1.22,0.63,0.78,-0.05,-0.05,-0.05
324.35,-1.26,-1.23,-1.26,-1.24,1.24,0.64,0.80,-0.02,-0.02,-0.03
327.59,-1.24,-1.25,-1.25,-1.26,1.25,0.65,0.81,0.01,0.00,0.01
330.87,-1.22,-1.26,-1.22,-1.26,1.25,0.66,0.82,0.03,0.03,0.04
334.18,-1.19,-1.25,-1.19,-1.25,1.24,0.67,0.84,0.05,0.06,0.06
337.52,-1.13,-1.21,-1.14,-1.22,1.22,0.69,0.85,0.08,0.08,0.08
340.90,-1.07,-1.18,-1.08,-1.19,1.18,0.70,0.87,0.11,0.10,0.11
344.30,-1.01,-1.14,-1.01,-1.14,1.13,0.71,0.89,0.12,0.13,0.13
347.75,-0.93,-1.09,-0.93,-1.09,1.08,0.72,0.90,0.14,0.15,0.16
351.23,-0.84,-1.02,-0.84,-1.02,1.01,0.73,0.92,0.17,0.17,0.18
354.74,-0.75,-0.94,-0.75,-0.95,0.95,0.75,0.94,0.20,0.20,0.19
358.28,-0.66,-0.87,-0.66,-0.88,0.88,0.76,0.96,0.22,0.22,0.21
361.87,-0.58,-0.81,-0.58,-0.82,0.83,0.77,0.98,0.24,0.24,0.23
365.49,-0.51,-0.77,-0.51,-0.77,0.78,0.79,1.00,0.26,0.26,0.26
369.14,-0.45,-0.72,-0.46,-0.73,0.74,0.80,1.02,0.29,0.28,0.27
372.83,-0.42,-0.70,-0.42,-0.71,0.72,0.82,1.05,0.29,0.30,0.28
376.56,-0.39,-0.69,-0.39,-0.70,0.71,0.83,1.07,0.32,0.32,0.30
380.33,-0.38,-0.71,-0.38,-0.71,0.72,0.85,1.09,0.34,0.34,0.33
384.13,-0.38,-0.73,-0.39,-0.74,0.74,0.87,1.12,0.36,0.36,0.35
387.97,-0.40,-0.77,-0.40,-0.77,0.77,0.88,1.14,0.37,0.37,0.37
391.85,-0.42,-0.81,-0.42,-0.82,0.81,0.90,1.17,0.39,0.39,0.39
395.77,-0.45,-0.87,-0.45,-0.87,0.86,0.92,1.19,0.40,0.41,0.42
399.73,-0.47,-0.91,-0.47,-0.91,0.90,0.94,1.22,0.43,0.43,0.44
403.72,-0.49,-0.94,-0.50,-0.95,0.95,0.96,1.24,0.46,0.45,0.45
407.76,-0.52,-0.99,-0.52,-0.99,0.99,0.98,1.27,0.47,0.48,0.47
411.84,-0.54,-1.04,-0.54,-1.04,1.04,1.00,1.30,0.49,0.50,0.50
415.96,-0.55,-1.07,-0.56,-1.08,1.08,1.02,1.33,0.52,0.52,0.52
420.12,-0.57,-1.11,-0.57,-1.12,1.11,1.04,1.35,0.54,0.54,0.54
424.32,-0.58,-1.15,-0.58,-1.15,1.15,1.06,1.38,0.57,0.56,0.57
428.56,-0.59,-1.18,-0.59,-1.19,1.18,1.09,1.41,0.59,0.59,0.59
432.85,-0.60,-1.21,-0.60,-1.22,1.21,1.11,1.43,0.61,0.61,0.61
437.18,-0.60,-1.24,-0.60,-1.25,1.24,1.13,1.46,0.64,0.64,0.64
441.55,-0.60,-1.27,-0.61,-1.27,1.28,1.16,1.49,0.67,0.67,0.67
445.96,-0.61,-1.30,-0.61,-1.30,1.31,1.18,1.51,0.70,0.70,0.69
450.42,-0.62,-1.32,-0.63,-1.34,1.34,1.21,1.54,0.72,0.72,0.70
454.93,-0.64,-1.38,-0.64,-1.37,1.38,1.24,1.56,0.74,0.74,0.74
459.48,-0.65,-1.41,-0.65,-1.42,1.42,1.26,1.59,0.77,0.77,0.76
464.07,-0.66,-1.45,-0.67,-1.46,1.46,1.29,1.61,0.80,0.79,0.79
468.71,-0.68,-1.51,-0.68,-1.50,1.50,1.32,1.63,0.81,0.82,0.83
473.40,-0.68,-1.53,-0.69,-1.54,1.54,1.35,1.65,0.85,0.85,0.85
478.13,-0.69,-1.57,-0.70,-1.58,1.57,1.38,1.67,0.88,0.88,0.88
482.91,-0.70,-1.61,-0.70,-1.61,1.61,1.41,1.69,0.91,0.91,0.91
487.74,-0.70,-1.64,-0.70,-1.64,1.64,1.44,1.71,0.94,0.94,0.94
492.62,-0.70,-1.67,-0.70,-1.67,1.68,1.47,1.73,0.97,0.97,0.97
497.55,-0.70,-1.69,-0.71,-1.70,1.71,1.50,1.74,1.00,1.00,0.99
502.52,-0.71,-1.74,-0.71,-1.74,1.74,1.54,1.75,1.02,1.03,1.03
507.55,-0.71,-1.76,-0.71,-1.76,1.76,1.57,1.77,1.05,1.05,1.05
