frequency,raw,error,smoothed,error_smoothed,equalization,parametric_eq,fixed_band_eq,equalized_raw,equalized_smoothed,target
20.00,0.80,-6.12,0.81,-6.14,6.14,5.99,1.75,6.94,6.95,6.92
20.20,0.86,-6.06,0.86,-6.08,6.08,5.96,1.80,6.94,6.94,6.92
20.40,0.91,-6.01,0.92,-6.01,6.01,5.94,1.86,6.92,6.93,6.92
20.61,0.97,-5.95,0.97,-5.95,5.95,5.91,1.91,6.92,6.92,6.92
20.81,1.03,-5.89,1.02,-5.88,5.88,5.88,1.97,6.92,6.91,6.92
21.02,1.08,-5.84,1.08,-5.82,5.82,5.84,2.03,6.90,6.90,6.92
21.23,1.13,-5.77,1.13,-5.76,5.76,5.81,2.09,6.89,6.88,6.90
21.44,1.18,-5.71,1.18,-5.69,5.69,5.77,2.15,6.87,6.87,6.89
21.66,1.23,-5.64,1.23,-5.63,5.63,5.73,2.22,6.86,6.86,6.87
21.87,1.27,-5.58,1.28,-5.57,5.57,5.69,2.28,6.84,6.84,6.85
22.09,1.33,-5.51,1.32,-5.50,5.50,5.64,2.35,6.83,6.83,6.84
22.31,1.37,-5.44,1.37,-5.44,5.44,5.59,2.42,6.81,6.81,6.81
22.54,1.41,-5.38,1.42,-5.37,5.37,5.54,2.49,6.78,6.79,6.79
22.76,1.46,-5.30,1.46,-5.30,5.30,5.49,2.57,6.76,6.76,6.77
22.99,1.50,-5.23,1.50,-5.24,5.24,5.44,2.64,6.74,6.74,6.73
23.22,1.54,-5.16,1.55,-5.17,5.17,5.38,2.72,6.71,6.72,6.70
23.45,1.59,-5.09,1.59,-5.11,5.11,5.33,2.80,6.70,6.70,6.68
23.69,1.63,-5.04,1.63,-5.05,5.05,5.27,2.88,6.68,6.68,6.67
23.92,1.68,-4.97,1.67,-4.98,4.98,5.21,2.96,6.66,6.66,6.65
24.16,1.72,-4.92,1.71,-4.92,4.92,5.15,3.04,6.64,6.64,6.64
24.40,1.75,-4.87,1.75,-4.86,4.86,5.09,3.13,6.61,6.62,6.62
24.65,1.79,-4.81,1.79,-4.80,4.80,5.03,3.21,6.59,6.60,6.60
24.89,1.83,-4.75,1.83,-4.75,4.75,4.96,3.30,6.58,6.58,6.58
25.14,1.87,-4.70,1.87,-4.69,4.69,4.90,3.38,6.56,6.56,6.57
25.39,1.91,-4.63,1.91,-4.63,4.63,4.83,3.47,6.55,6.55,6.55
25.65,1.95,-4.58,1.95,-4.58,4.58,4.76,3.56,6.53,6.53,6.54
25.91,1.99,-4.51,1.99,-4.52,4.52,4.70,3.65,6.51,6.51,6.50
26.16,2.03,-4.46,2.03,-4.47,4.47,4.63,3.73,6.50,6.50,6.49
26.43,2.07,-4.41,2.07,-4.41,4.41,4.56,3.82,6.48,6.48,6.48
26.69,2.11,-4.35,2.11,-4.35,4.35,4.49,3.90,6.46,6.46,6.46
26.96,2.16,-4.29,2.16,-4.29,4.29,4.42,3.98,6.45,6.45,6.45
27.23,2.20,-4.24,2.20,-4.23,4.23,4.35,4.06,6.43,6.43,6.44
27.50,2.24,-4.19,2.25,-4.17,4.17,4.28,4.13,6.41,6.42,6.43
27.77,2.29,-4.11,2.29,-4.12,4.12,4.21,4.21,6.41,6.41,6.40
28.05,2.34,-4.05,2.33,-4.06,4.06,4.14,4.28,6.40,6.39,6.39
28.33,2.38,-3.99,2.38,-4.00,4.00,4.06,4.34,6.38,6.38,6.37
28.62,2.43,-3.93,2.43,-3.94,3.94,3.99,4.40,6.37,6.36,6.36
28.90,2.47,-3.88,2.47,-3.88,3.88,3.92,4.45,6.35,6.35,6.35
29.19,2.52,-3.81,2.52,-3.81,3.81,3.85,4.50,6.34,6.34,6.33
29.48,2.57,-3.75,2.57,-3.75,3.75,3.78,4.54,6.32,6.32,6.32
29.78,2.62,-3.69,2.62,-3.69,3.69,3.70,4.57,6.31,6.31,6.31
30.08,2.67,-3.63,2.67,-3.62,3.62,3.63,4.59,6.29,6.29,6.30
30.38,2.71,-3.57,2.72,-3.56,3.56,3.56,4.61,6.27,6.28,6.28
30.68,2.77,-3.50,2.77,-3.49,3.49,3.49,4.62,6.26,6.26,6.27
30.99,2.83,-3.41,2.82,-3.42,3.42,3.41,4.62,6.25,6.25,6.24
31.30,2.87,-3.36,2.87,-3.35,3.35,3.34,4.61,6.22,6.23,6.23
31.61,2.93,-3.29,2.93,-3.28,3.28,3.27,4.59,6.21,6.21,6.22
31.93,2.98,-3.22,2.98,-3.21,3.21,3.20,4.56,6.19,6.19,6.20
32.24,3.03,-3.13,3.03,-3.14,3.14,3.13,4.53,6.17,6.17,6.16
32.57,3.09,-3.06,3.09,-3.06,3.06,3.06,4.49,6.16,6.15,6.15
32.89,3.14,-3.00,3.14,-2.99,2.99,2.99,4.43,6.13,6.13,6.14
33.22,3.20,-2.90,3.20,-2.91,2.91,2.91,4.38,6.12,6.11,6.10
33.55,3.25,-2.84,3.25,-2.84,2.84,2.84,4.31,6.09,6.09,6.09
33.89,3.30,-2.77,3.31,-2.76,2.76,2.77,4.24,6.06,6.07,6.07
34.23,3.36,-2.68,3.36,-2.69,2.69,2.70,4.16,6.05,6.05,6.05
34.57,3.41,-2.61,3.41,-2.61,2.61,2.63,4.08,6.02,6.02,6.02
34.92,3.47,-2.53,3.47,-2.53,2.53,2.57,3.99,6.00,6.00,6.00
35.27,3.52,-2.46,3.52,-2.46,2.46,2.50,3.89,5.98,5.98,5.98
35.62,3.58,-2.38,3.58,-2.38,2.38,2.43,3.80,5.96,5.96,5.96
35.97,3.63,-2.30,3.63,-2.30,2.30,2.36,3.70,5.94,5.94,5.94
36.33,3.69,-2.23,3.69,-2.23,2.23,2.29,3.59,5.92,5.92,5.92
36.70,3.74,-2.16,3.74,-2.15,2.15,2.22,3.49,5.89,5.90,5.90
37.06,3.80,-2.07,3.80,-2.08,2.08,2.16,3.38,5.88,5.87,5.87
37.43,3.85,-2.01,3.85,-2.00,2.00,2.09,3.27,5.85,5.85,5.86
37.81,3.90,-1.93,3.90,-1.93,1.93,2.02,3.16,5.83,5.83,5.83
38.19,3.96,-1.85,3.95,-1.85,1.85,1.96,3.04,5.82,5.81,5.81
38.57,4.01,-1.78,4.01,-1.78,1.78,1.89,2.93,5.79,5.79,5.79
38.95,4.06,-1.71,4.06,-1.71,1.71,1.83,2.82,5.77,5.77,5.77
39.34,4.11,-1.63,4.10,-1.64,1.64,1.76,2.71,5.75,5.75,5.74
39.74,4.15,-1.56,4.15,-1.58,1.58,1.70,2.60,5.73,5.73,5.72
40.14,4.20,-1.51,4.20,-1.51,1.51,1.63,2.48,5.71,5.71,5.71
40.54,4.24,-1.44,4.25,-1.44,1.44,1.57,2.37,5.68,5.69,5.68
40.94,4.29,-1.37,4.29,-1.37,1.37,1.50,2.26,5.67,5.67,5.67
41.35,4.33,-1.31,4.34,-1.31,1.31,1.44,2.15,5.64,5.65,5.64
41.76,4.38,-1.25,4.38,-1.24,1.24,1.38,2.04,5.63,5.63,5.63
42.18,4.43,-1.18,4.43,-1.18,1.18,1.31,1.94,5.61,5.61,5.61
42.60,4.47,-1.12,4.47,-1.11,1.11,1.25,1.83,5.58,5.59,5.59
43.03,4.51,-1.07,4.52,-1.05,1.05,1.19,1.72,5.56,5.56,5.58
43.46,4.56,-0.99,4.56,-0.98,0.98,1.13,1.62,5.54,5.54,5.55
43.90,4.61,-0.91,4.61,-0.92,0.92,1.06,1.52,5.53,5.53,5.52
44.33,4.66,-0.84,4.65,-0.85,0.85,1.00,1.41,5.51,5.51,5.50
44.78,4.69,-0.79,4.70,-0.79,0.79,0.94,1.31,5.48,5.49,5.48
45.23,4.74,-0.71,4.74,-0.72,0.72,0.88,1.21,5.46,5.46,5.45
45.68,4.78,-0.65,4.79,-0.65,0.65,0.82,1.11,5.43,5.44,5.43
46.13,4.83,-0.58,4.83,-0.59,0.59,0.76,1.02,5.42,5.42,5.41
46.60,4.88,-0.52,4.87,-0.52,0.52,0.70,0.92,5.40,5.40,5.40
47.06,4.92,-0.46,4.92,-0.46,0.46,0.64,0.82,5.38,5.37,5.38
47.53,4.96,-0.40,4.96,-0.39,0.39,0.58,0.73,5.35,5.35,5.36
48.01,5.00,-0.35,5.00,-0.33,0.33,0.52,0.64,5.33,5.33,5.35
48.49,5.04,-0.27,5.04,-0.27,0.27,0.46,0.54,5.31,5.30,5.31
48.97,5.08,-0.20,5.08,-0.20,0.20,0.40,0.45,5.28,5.28,5.28
49.46,5.11,-0.14,5.12,-0.14,0.14,0.34,0.36,5.25,5.26,5.25
49.96,5.15,-0.06,5.15,-0.08,0.08,0.28,0.27,5.23,5.23,5.21
50.46,5.19,-0.02,5.19,-0.02,0.02,0.23,0.19,5.21,5.21,5.21
50.96,5.22,0.04,5.22,0.04,-0.04,0.17,0.10,5.18,5.18,5.18
51.47,5.26,0.11,5.26,0.10,-0.10,0.11,0.01,5.16,5.16,5.15
51.99,5.29,0.17,5.29,0.16,-0.16,0.05,-0.07,5.13,5.13,5.12
52.51,5.32,0.21,5.32,0.22,-0.22,-0.01,-0.15,5.10,5.10,5.11
53.03,5.35,0.27,5.35,0.28,-0.28,-0.06,-0.24,5.07,5.07,5.08
53.56,5.38,0.33,5.38,0.33,-0.33,-0.12,-0.32,5.05,5.05,5.05
54.10,5.41,0.39,5.41,0.39,-0.39,-0.18,-0.40,5.02,5.02,5.02
54.64,5.43,0.44,5.43,0.44,-0.44,-0.24,-0.47,4.99,4.99,4.99
55.18,5.46,0.50,5.46,0.49,-0.49,-0.29,-0.55,4.97,4.97,4.97
55.74,5.49,0.56,5.48,0.54,-0.54,-0.35,-0.62,4.95,4.94,4.94
56.29,5.50,0.59,5.51,0.59,-0.59,-0.41,-0.70,4.91,4.91,4.91
56.86,5.53,0.65,5.53,0.64,-0.64,-0.47,-0.77,4.89,4.89,4.88
57.42,5.55,0.70,5.55,0.69,-0.69,-0.52,-0.84,4.86,4.86,4.85
58.00,5.57,0.74,5.57,0.74,-0.74,-0.58,-0.91,4.83,4.83,4.83
58.58,5.59,0.80,5.59,0.79,-0.79,-0.64,-0.97,4.80,4.80,4.79
59.16,5.61,0.84,5.61,0.84,-0.84,-0.69,-1.04,4.77,4.77,4.77
59.76,5.62,0.88,5.62,0.89,-0.89,-0.75,-1.10,4.73,4.74,4.74
60.35,5.64,0.93,5.64,0.94,-0.94,-0.81,-1.16,4.71,4.70,4.71
60.96,5.65,0.96,5.66,0.98,-0.98,-0.86,-1.21,4.67,4.67,4.69
61.57,5.67,1.03,5.67,1.03,-1.03,-0.92,-1.27,4.64,4.64,4.64
62.18,5.69,1.08,5.68,1.07,-1.07,-0.98,-1.32,4.62,4.61,4.61
62.80,5.70,1.12,5.70,1.12,-1.12,-1.04,-1.37,4.59,4.58,4.58
63.43,5.71,1.17,5.71,1.16,-1.16,-1.09,-1.42,4.55,4.55,4.54
64.07,5.71,1.21,5.72,1.20,-1.20,-1.15,-1.47,4.51,4.52,4.51
64.71,5.73,1.25,5.73,1.24,-1.24,-1.21,-1.51,4.49,4.49,4.48
65.35,5.73,1.28,5.74,1.28,-1.28,-1.26,-1.56,4.45,4.46,4.45
66.01,5.74,1.31,5.75,1.32,-1.32,-1.32,-1.60,4.42,4.42,4.43
66.67,5.76,1.37,5.76,1.37,-1.37,-1.38,-1.64,4.40,4.39,4.39
67.33,5.77,1.40,5.77,1.40,-1.40,-1.43,-1.68,4.37,4.36,4.37
68.01,5.77,1.44,5.78,1.44,-1.44,-1.49,-1.72,4.33,4.33,4.33
68.69,5.78,1.48,5.78,1.48,-1.48,-1.55,-1.75,4.30,4.30,4.30
69.37,5.79,1.53,5.79,1.52,-1.52,-1.60,-1.79,4.27,4.27,4.27
70.07,5.80,1.56,5.80,1.56,-1.56,-1.66,-1.83,4.24,4.24,4.24
70.77,5.81,1.60,5.81,1.61,-1.61,-1.72,-1.86,4.20,4.20,4.21
71.48,5.82,1.66,5.81,1.65,-1.65,-1.77,-1.90,4.17,4.16,4.16
72.19,5.82,1.69,5.82,1.69,-1.69,-1.83,-1.93,4.13,4.13,4.13
72.91,5.83,1.74,5.83,1.74,-1.74,-1.89,-1.96,4.09,4.09,4.09
73.64,5.83,1.79,5.83,1.78,-1.78,-1.94,-2.00,4.05,4.05,4.05
74.38,5.83,1.82,5.83,1.83,-1.83,-2.00,-2.04,4.00,4.01,4.01
75.12,5.84,1.89,5.84,1.87,-1.87,-2.06,-2.07,3.97,3.96,3.95
75.87,5.84,1.92,5.84,1.92,-1.92,-2.12,-2.11,3.92,3.92,3.92
76.63,5.84,1.96,5.84,1.97,-1.97,-2.17,-2.15,3.87,3.87,3.88
77.40,5.84,2.01,5.85,2.02,-2.02,-2.23,-2.19,3.82,3.83,3.83
78.17,5.85,2.08,5.85,2.07,-2.07,-2.29,-2.23,3.78,3.78,3.77
78.95,5.85,2.11,5.85,2.12,-2.12,-2.34,-2.27,3.73,3.73,3.74
79.74,5.85,2.16,5.86,2.17,-2.17,-2.40,-2.31,3.68,3.68,3.69
80.54,5.85,2.22,5.86,2.23,-2.23,-2.46,-2.36,3.62,3.63,3.63
81.35,5.87,2.29,5.86,2.28,-2.28,-2.52,-2.40,3.59,3.58,3.58
82.16,5.87,2.35,5.87,2.34,-2.34,-2.57,-2.45,3.53,3.53,3.53
82.98,5.88,2.40,5.87,2.40,-2.40,-2.63,-2.50,3.48,3.47,3.48
83.81,5.88,2.47,5.88,2.46,-2.46,-2.69,-2.55,3.42,3.42,3.41
84.65,5.88,2.52,5.89,2.52,-2.52,-2.75,-2.61,3.36,3.36,3.36
85.50,5.89,2.58,5.89,2.59,-2.59,-2.80,-2.66,3.30,3.31,3.31
86.35,5.90,2.65,5.90,2.65,-2.65,-2.86,-2.72,3.25,3.25,3.25
87.22,5.90,2.71,5.91,2.71,-2.71,-2.92,-2.78,3.19,3.19,3.19
88.09,5.91,2.78,5.91,2.78,-2.78,-2.97,-2.85,3.13,3.13,3.13
88.97,5.92,2.84,5.92,2.85,-2.85,-3.03,-2.91,3.07,3.07,3.08
89.86,5.92,2.90,5.93,2.91,-2.91,-3.09,-2.98,3.01,3.01,3.02
90.76,5.93,2.99,5.93,2.98,-2.98,-3.14,-3.05,2.95,2.95,2.94
91.66,5.94,3.05,5.94,3.05,-3.05,-3.20,-3.12,2.89,2.89,2.89
92.58,5.94,3.12,5.94,3.11,-3.11,-3.25,-3.20,2.83,2.83,2.82
93.51,5.94,3.17,5.95,3.18,-3.18,-3.31,-3.27,2.76,2.76,2.77
94.44,5.96,3.25,5.95,3.25,-3.25,-3.37,-3.35,2.71,2.70,2.71
95.39,5.96,3.32,5.96,3.32,-3.32,-3.42,-3.43,2.64,2.63,2.64
96.34,5.96,3.39,5.96,3.39,-3.39,-3.48,-3.51,2.57,2.57,2.57
97.30,5.96,3.46,5.96,3.46,-3.46,-3.53,-3.60,2.50,2.50,2.50
98.28,5.96,3.53,5.96,3.53,-3.53,-3.59,-3.68,2.43,2.43,2.43
99.26,5.96,3.60,5.96,3.60,-3.60,-3.64,-3.77,2.36,2.36,2.36
100.25,5.96,3.67,5.96,3.67,-3.67,-3.70,-3.86,2.29,2.29,2.29
101.25,5.96,3.74,5.96,3.74,-3.74,-3.75,-3.95,2.22,2.22,2.22
102.27,5.96,3.82,5.96,3.81,-3.81,-3.80,-4.04,2.15,2.15,2.14
103.29,5.95,3.88,5.95,3.88,-3.88,-3.86,-4.13,2.07,2.07,2.07
104.32,5.95,3.95,5.94,3.94,-3.94,-3.91,-4.22,2.01,2.00,2.00
105.37,5.94,4.01,5.94,4.01,-4.01,-3.96,-4.31,1.93,1.93,1.93
106.42,5.92,4.07,5.93,4.08,-4.08,-4.01,-4.40,1.84,1.85,1.85
107.48,5.91,4.13,5.92,4.14,-4.14,-4.06,-4.49,1.77,1.78,1.78
108.56,5.90,4.20,5.90,4.21,-4.21,-4.11,-4.58,1.69,1.70,1.70
109.64,5.89,4.27,5.89,4.27,-4.27,-4.16,-4.67,1.62,1.62,1.62
110.74,5.88,4.33,5.88,4.33,-4.33,-4.21,-4.75,1.55,1.54,1.55
111.85,5.86,4.38,5.86,4.39,-4.39,-4.26,-4.83,1.47,1.47,1.48
112.97,5.84,4.46,5.84,4.45,-4.45,-4.31,-4.91,1.39,1.39,1.38
114.10,5.82,4.51,5.82,4.51,-4.51,-4.36,-4.98,1.31,1.31,1.31
115.24,5.80,4.56,5.80,4.56,-4.56,-4.40,-5.05,1.24,1.24,1.24
116.39,5.78,4.63,5.77,4.62,-4.62,-4.45,-5.11,1.17,1.16,1.15
117.55,5.75,4.68,5.75,4.67,-4.67,-4.49,-5.17,1.08,1.08,1.08
118.73,5.72,4.72,5.73,4.72,-4.72,-4.54,-5.22,1.00,1.01,1.00
119.92,5.70,4.76,5.70,4.76,-4.76,-4.58,-5.27,0.94,0.93,0.94
121.12,5.67,4.81,5.67,4.81,-4.81,-4.62,-5.31,0.86,0.86,0.86
122.33,5.64,4.85,5.64,4.85,-4.85,-4.66,-5.34,0.79,0.79,0.79
123.55,5.61,4.88,5.61,4.90,-4.90,-4.70,-5.36,0.71,0.72,0.73
124.79,5.58,4.93,5.59,4.94,-4.94,-4.74,-5.38,0.65,0.65,0.65
126.03,5.55,4.96,5.56,4.97,-4.97,-4.78,-5.39,0.58,0.58,0.59
127.29,5.52,5.00,5.52,5.01,-5.01,-4.81,-5.40,0.51,0.52,0.52
128.57,5.49,5.05,5.49,5.04,-5.04,-4.85,-5.39,0.45,0.45,0.44
129.85,5.47,5.09,5.46,5.07,-5.07,-4.88,-5.38,0.40,0.39,0.38
131.15,5.43,5.11,5.43,5.10,-5.10,-4.91,-5.36,0.33,0.33,0.32
132.46,5.40,5.14,5.39,5.13,-5.13,-4.95,-5.34,0.27,0.27,0.26
133.79,5.36,5.15,5.36,5.15,-5.15,-4.98,-5.31,0.21,0.21,0.21
135.12,5.32,5.18,5.32,5.17,-5.17,-5.00,-5.27,0.15,0.15,0.14
136.48,5.28,5.18,5.29,5.19,-5.19,-5.03,-5.23,0.09,0.10,0.10
137.84,5.25,5.19,5.25,5.20,-5.20,-5.06,-5.19,0.05,0.05,0.06
139.22,5.21,5.22,5.22,5.21,-5.21,-5.08,-5.14,-0.00,0.00,-0.01
140.61,5.17,5.23,5.18,5.22,-5.22,-5.10,-5.09,-0.05,-0.04,-0.06
142.02,5.14,5.22,5.14,5.23,-5.23,-5.12,-5.03,-0.09,-0.09,-0.08
143.44,5.10,5.22,5.10,5.23,-5.23,-5.14,-4.97,-0.13,-0.13,-0.12
144.87,5.06,5.23,5.06,5.23,-5.23,-5.16,-4.91,-0.17,-0.17,-0.17
146.32,5.03,5.24,5.02,5.23,-5.23,-5.17,-4.85,-0.20,-0.21,-0.21
147.78,4.98,5.22,4.98,5.22,-5.22,-5.19,-4.79,-0.24,-0.24,-0.24
149.26,4.94,5.21,4.94,5.22,-5.22,-5.20,-4.73,-0.28,-0.28,-0.27
150.75,4.90,5.22,4.90,5.21,-5.21,-5.21,-4.67,-0.31,-0.32,-0.32
152.26,4.86,5.21,4.86,5.21,-5.21,-5.22,-4.61,-0.35,-0.35,-0.35
153.78,4.81,5.20,4.81,5.20,-5.20,-5.22,-4.55,-0.39,-0.39,-0.39
155.32,4.77,5.19,4.77,5.19,-5.19,-5.23,-4.49,-0.42,-0.42,-0.42
156.88,4.72,5.17,4.72,5.18,-5.18,-5.23,-4.43,-0.46,-0.46,-0.45
158.44,4.67,5.16,4.68,5.17,-5.17,-5.23,-4.38,-0.50,-0.49,-0.49
160.03,4.63,5.16,4.63,5.15,-5.15,-5.23,-4.33,-0.52,-0.52,-0.53
161.63,4.57,5.14,4.58,5.14,-5.14,-5.23,-4.27,-0.57,-0.56,-0.57
163.24,4.53,5.13,4.53,5.12,-5.12,-5.22,-4.23,-0.59,-0.59,-0.60
164.88,4.48,5.10,4.48,5.11,-5.11,-5.21,-4.18,-0.63,-0.63,-0.62
166.53,4.43,5.09,4.43,5.09,-5.09,-5.21,-4.14,-0.66,-0.66,-0.66
168.19,4.38,5.08,4.38,5.08,-5.08,-5.19,-4.10,-0.69,-0.70,-0.70
169.87,4.32,5.06,4.32,5.06,-5.06,-5.18,-4.06,-0.74,-0.74,-0.74
171.57,4.27,5.04,4.27,5.04,-5.04,-5.17,-4.02,-0.77,-0.77,-0.77
173.29,4.21,5.01,4.21,5.02,-5.02,-5.15,-3.99,-0.81,-0.81,-0.80
175.02,4.16,5.00,4.15,5.01,-5.01,-5.13,-3.96,-0.85,-0.85,-0.84
176.77,4.09,4.98,4.10,4.99,-4.99,-5.11,-3.94,-0.90,-0.89,-0.89
178.54,4.04,4.97,4.04,4.97,-4.97,-5.09,-3.92,-0.93,-0.93,-0.93
180.32,3.97,4.94,3.97,4.95,-4.95,-5.06,-3.90,-0.97,-0.97,-0.97
182.13,3.91,4.92,3.91,4.92,-4.92,-5.04,-3.88,-1.01,-1.01,-1.01
183.95,3.84,4.90,3.85,4.90,-4.90,-5.01,-3.87,-1.06,-1.05,-1.06
185.79,3.79,4.88,3.78,4.88,-4.88,-4.98,-3.86,-1.08,-1.09,-1.09
187.65,3.72,4.86,3.72,4.85,-4.85,-4.94,-3.85,-1.13,-1.13,-1.14
189.52,3.65,4.82,3.65,4.82,-4.82,-4.91,-3.85,-1.17,-1.17,-1.17
191.42,3.59,4.80,3.59,4.79,-4.79,-4.88,-3.85,-1.20,-1.20,-1.21
193.33,3.52,4.75,3.52,4.75,-4.75,-4.84,-3.85,-1.23,-1.24,-1.23
195.27,3.45,4.71,3.45,4.72,-4.72,-4.80,-3.85,-1.27,-1.27,-1.26
197.22,3.37,4.66,3.38,4.68,-4.68,-4.76,-3.86,-1.31,-1.30,-1.29
199.19,3.31,4.65,3.31,4.64,-4.64,-4.72,-3.86,-1.32,-1.33,-1.34
201.18,3.24,4.60,3.23,4.59,-4.59,-4.67,-3.87,-1.35,-1.36,-1.36
203.19,3.16,4.54,3.16,4.55,-4.55,-4.63,-3.88,-1.39,-1.39,-1.38
205.23,3.08,4.49,3.09,4.50,-4.50,-4.58,-3.90,-1.42,-1.41,-1.41
207.28,3.02,4.44,3.02,4.45,-4.45,-4.53,-3.91,-1.43,-1.44,-1.42
209.35,2.94,4.40,2.94,4.40,-4.40,-4.48,-3.92,-1.46,-1.46,-1.46
211.44,2.87,4.36,2.87,4.35,-4.35,-4.43,-3.94,-1.48,-1.48,-1.49
213.56,2.80,4.30,2.80,4.30,-4.30,-4.38,-3.95,-1.50,-1.50,-1.50
215.69,2.72,4.23,2.73,4.24,-4.24,-4.32,-3.97,-1.52,-1.52,-1.51
217.85,2.65,4.18,2.65,4.19,-4.19,-4.27,-3.98,-1.53,-1.53,-1.52
220.03,2.58,4.13,2.58,4.13,-4.13,-4.21,-3.99,-1.55,-1.54,-1.55
222.23,2.52,4.09,2.51,4.07,-4.07,-4.15,-4.00,-1.55,-1.55,-1.56
224.45,2.45,4.01,2.44,4.01,-4.01,-4.09,-4.01,-1.55,-1.56,-1.56
226.70,2.38,3.95,2.38,3.94,-3.94,-4.03,-4.02,-1.56,-1.57,-1.57
228.96,2.31,3.89,2.31,3.88,-3.88,-3.97,-4.02,-1.57,-1.57,-1.57
231.25,2.24,3.81,2.25,3.82,-3.82,-3.91,-4.03,-1.58,-1.57,-1.57
233.57,2.18,3.74,2.18,3.75,-3.75,-3.84,-4.02,-1.57,-1.57,-1.56
235.90,2.12,3.68,2.12,3.68,-3.68,-3.78,-4.02,-1.56,-1.56,-1.56
238.26,2.06,3.62,2.06,3.62,-3.62,-3.71,-4.01,-1.56,-1.55,-1.56
240.64,2.00,3.54,2.01,3.55,-3.55,-3.65,-3.99,-1.55,-1.54,-1.54
243.05,1.95,3.49,1.95,3.48,-3.48,-3.58,-3.97,-1.53,-1.53,-1.53
245.48,1.89,3.41,1.90,3.41,-3.41,-3.51,-3.94,-1.52,-1.52,-1.51
247.93,1.84,3.34,1.84,3.35,-3.35,-3.44,-3.91,-1.51,-1.50,-1.50
250.41,1.80,3.29,1.80,3.28,-3.28,-3.37,-3.88,-1.48,-1.49,-1.49
252.92,1.75,3.21,1.75,3.22,-3.22,-3.30,-3.84,-1.46,-1.47,-1.46
255.45,1.69,3.13,1.70,3.15,-3.15,-3.23,-3.79,-1.46,-1.45,-1.44
258.00,1.65,3.07,1.66,3.09,-3.09,-3.16,-3.74,-1.43,-1.43,-1.42
260.58,1.62,3.03,1.61,3.02,-3.02,-3.09,-3.68,-1.40,-1.41,-1.41
263.19,1.57,2.96,1.57,2.95,-2.95,-3.02,-3.62,-1.38,-1.38,-1.39
265.82,1.53,2.89,1.53,2.89,-2.89,-2.94,-3.55,-1.36,-1.36,-1.36
268.48,1.49,2.83,1.48,2.82,-2.82,-2.87,-3.48,-1.33,-1.34,-1.34
271.16,1.45,2.76,1.44,2.76,-2.76,-2.79,-3.40,-1.31,-1.32,-1.31
273.87,1.40,2.70,1.40,2.69,-2.69,-2.72,-3.32,-1.29,-1.29,-1.29
276.61,1.36,2.62,1.36,2.63,-2.63,-2.64,-3.24,-1.27,-1.27,-1.26
279.38,1.32,2.57,1.32,2.56,-2.56,-2.57,-3.15,-1.24,-1.25,-1.25
282.17,1.27,2.49,1.28,2.50,-2.50,-2.49,-3.06,-1.23,-1.22,-1.22
284.99,1.23,2.43,1.24,2.43,-2.43,-2.42,-2.97,-1.20,-1.20,-1.20
287.84,1.19,2.37,1.20,2.37,-2.37,-2.34,-2.87,-1.18,-1.17,-1.18
290.72,1.16,2.30,1.16,2.30,-2.30,-2.26,-2.77,-1.14,-1.14,-1.14
293.63,1.12,2.25,1.12,2.24,-2.24,-2.19,-2.67,-1.12,-1.12,-1.13
296.57,1.08,2.17,1.09,2.17,-2.17,-2.11,-2.57,-1.09,-1.09,-1.09
299.53,1.05,2.12,1.05,2.11,-2.11,-2.03,-2.47,-1.06,-1.06,-1.07
302.53,1.01,2.05,1.02,2.05,-2.05,-1.95,-2.37,-1.04,-1.03,-1.04
305.55,0.98,1.98,0.99,1.98,-1.98,-1.87,-2.26,-1.00,-1.00,-0.99
308.61,0.96,1.93,0.95,1.92,-1.92,-1.80,-2.16,-0.96,-0.97,-0.97
311.69,0.92,1.85,0.92,1.86,-1.86,-1.72,-2.05,-0.94,-0.94,-0.93
314.81,0.90,1.80,0.89,1.80,-1.80,-1.64,-1.95,-0.90,-0.91,-0.90
317.96,0.86,1.73,0.86,1.74,-1.74,-1.56,-1.84,-0.88,-0.87,-0.87
321.14,0.84,1.69,0.84,1.68,-1.68,-1.48,-1.74,-0.84,-0.84,-0.84
324.35,0.80,1.62,0.82,1.63,-1.63,-1.41,-1.63,-0.83,-0.82,-0.82
327.59,0.77,1.55,0.79,1.58,-1.58,-1.33,-1.53,-0.81,-0.79,-0.78
330.87,0.74,1.50,0.77,1.53,-1.53,-1.25,-1.42,-0.79,-0.76,-0.75
334.18,0.71,1.45,0.74,1.47,-1.47,-1.17,-1.32,-0.76,-0.73,-0.74
337.52,0.69,1.40,0.70,1.41,-1.41,-1.09,-1.21,-0.72,-0.71,-0.71
340.90,0.65,1.33,0.66,1.35,-1.35,-1.02,-1.11,-0.70,-0.69,-0.68
344.30,0.62,1.29,0.61,1.27,-1.27,-0.94,-1.01,-0.65,-0.67,-0.67
347.75,0.59,1.23,0.55,1.20,-1.20,-0.86,-0.90,-0.61,-0.65,-0.64
351.23,0.56,1.18,0.49,1.11,-1.11,-0.78,-0.80,-0.55,-0.62,-0.62
354.74,0.51,1.12,0.42,1.02,-1.02,-0.71,-0.70,-0.51,-0.60,-0.60
358.28,0.38,0.97,0.33,0.92,-0.92,-0.63,-0.60,-0.54,-0.59,-0.59
361.87,0.26,0.83,0.25,0.82,-0.82,-0.55,-0.50,-0.55,-0.57,-0.57
365.49,0.14,0.68,0.16,0.70,-0.70,-0.48,-0.40,-0.56,-0.55,-0.54
369.14,0.03,0.56,0.06,0.59,-0.59,-0.40,-0.30,-0.56,-0.53,-0.53
372.83,-0.08,0.44,-0.04,0.47,-0.47,-0.33,-0.20,-0.55,-0.51,-0.52
376.56,-0.18,0.32,-0.15,0.34,-0.34,-0.25,-0.11,-0.52,-0.49,-0.50
380.33,-0.28,0.19,-0.25,0.22,-0.22,-0.18,-0.01,-0.50,-0.47,-0.47
384.13,-0.37,0.08,-0.36,0.09,-0.09,-0.10,0.09,-0.46,-0.45,-0.45
387.97,-0.47,-0.04,-0.46,-0.03,0.03,-0.03,0.19,-0.44,-0.43,-0.43
391.85,-0.56,-0.14,-0.56,-0.15,0.15,0.04,0.28,-0.41,-0.41,-0.42
395.77,-0.65,-0.26,-0.65,-0.26,0.26,0.11,0.38,-0.39,-0.39,-0.39
399.73,-0.72,-0.35,-0.73,-0.36,0.36,0.18,0.47,-0.36,-0.37,-0.37
403.72,-0.81,-0.46,-0.81,-0.46,0.46,0.25,0.56,-0.35,-0.35,-0.35
407.76,-0.89,-0.56,-0.89,-0.56,0.56,0.32,0.65,-0.33,-0.33,-0.33
411.84,-0.96,-0.66,-0.96,-0.66,0.66,0.39,0.74,-0.30,-0.31,-0.30
415.96,-1.02,-0.74,-1.03,-0.75,0.75,0.46,0.83,-0.27,-0.28,-0.28
420.12,-1.09,-0.82,-1.10,-0.83,0.83,0.53,0.92,-0.26,-0.26,-0.27
424.32,-1.15,-0.91,-1.15,-0.91,0.91,0.60,1.01,-0.24,-0.24,-0.24
428.56,-1.20,-0.98,-1.20,-0.99,0.99,0.66,1.09,-0.21,-0.22,-0.22
432.85,-1.26,-1.06,-1.24,-1.05,1.05,0.73,1.18,-0.21,-0.19,-0.20
437.18,-1.30,-1.13,-1.28,-1.11,1.11,0.79,1.26,-0.19,-0.17,-0.17
441.55,-1.34,-1.20,-1.31,-1.16,1.16,0.85,1.33,-0.18,-0.15,-0.14
445.96,-1.38,-1.26,-1.33,-1.21,1.21,0.92,1.41,-0.17,-0.12,-0.12
450.42,-1.36,-1.26,-1.34,-1.25,1.25,0.98,1.48,-0.11,-0.09,-0.10
454.93,-1.36,-1.30,-1.35,-1.28,1.28,1.04,1.55,-0.08,-0.07,-0.06
459.48,-1.34,-1.29,-1.35,-1.31,1.31,1.09,1.62,-0.03,-0.04,-0.04
464.07,-1.33,-1.31,-1.35,-1.34,1.34,1.15,1.68,0.01,-0.01,-0.02
468.71,-1.33,-1.35,-1.34,-1.36,1.36,1.21,1.74,0.03,0.02,0.02
473.40,-1.32,-1.36,-1.34,-1.38,1.38,1.26,1.79,0.06,0.04,0.04
478.13,-1.31,-1.38,-1.33,-1.40,1.40,1.32,1.84,0.09,0.07,0.07
482.91,-1.31,-1.41,-1.32,-1.42,1.42,1.37,1.89,0.11,0.10,0.10
487.74,-1.30,-1.43,-1.31,-1.44,1.44,1.42,1.93,0.14,0.13,0.13
492.62,-1.30,-1.46,-1.30,-1.46,1.46,1.47,1.96,0.16,0.16,0.16
497.55,-1.29,-1.47,-1.30,-1.48,1.48,1.52,2.00,0.19,0.18,0.18
502.52,-1.30,-1.52,-1.29,-1.51,1.51,1.56,2.02,0.21,0.21,0.22
507.55,-1.30,-1.54,-1.29,-1.53,1.53,1.61,2.05,0.23,0.24,0.24
512.62,-1.30,-1.57,-1.30,-1.56,1.56,1.65,2.06,0.27,0.27,0.27
517.75,-1.29,-1.59,-1.30,-1.59,1.59,1.69,2.08,0.31,0.30,0.30
