frequency,raw,error,smoothed,error_smoothed,equalization,parametric_eq,fixed_band_eq,equalized_raw,equalized_smoothed,target
20.00,-26.91,-24.09,-26.90,-24.11,24.11,21.68,10.05,-2.80,-2.79,-2.82
20.20,-26.74,-23.96,-26.73,-23.97,23.97,21.97,10.23,-2.76,-2.76,-2.78
20.40,-26.57,-23.83,-26.57,-23.83,23.83,22.25,10.41,-2.73,-2.73,-2.74
20.61,-26.40,-23.69,-26.40,-23.69,23.69,22.51,10.60,-2.71,-2.70,-2.71
20.81,-26.23,-23.56,-26.23,-23.55,23.55,22.77,10.79,-2.67,-2.68,-2.67
21.02,-26.06,-23.43,-26.06,-23.41,23.41,23.00,10.98,-2.65,-2.65,-2.63
21.23,-25.89,-23.28,-25.89,-23.26,23.26,23.21,11.18,-2.63,-2.63,-2.61
21.44,-25.71,-23.13,-25.72,-23.11,23.11,23.39,11.38,-2.60,-2.61,-2.59
21.66,-25.55,-22.98,-25.55,-22.96,22.96,23.54,11.59,-2.59,-2.59,-2.57
21.87,-25.37,-22.81,-25.37,-22.81,22.81,23.65,11.81,-2.57,-2.57,-2.56
22.09,-25.20,-22.66,-25.20,-22.65,22.65,23.73,12.03,-2.56,-2.55,-2.54
22.31,-25.02,-22.49,-25.02,-22.49,22.49,23.76,12.25,-2.53,-2.53,-2.53
22.54,-24.85,-22.33,-24.85,-22.33,22.33,23.75,12.49,-2.52,-2.52,-2.52
22.76,-24.67,-22.15,-24.67,-22.16,22.16,23.71,12.73,-2.51,-2.51,-2.51
22.99,-24.50,-21.98,-24.49,-21.99,21.99,23.62,12.97,-2.51,-2.50,-2.51
23.22,-24.32,-21.81,-24.32,-21.82,21.82,23.49,13.23,-2.50,-2.50,-2.51
23.45,-24.14,-21.64,-24.14,-21.65,21.65,23.33,13.49,-2.49,-2.49,-2.50
23.69,-23.96,-21.47,-23.96,-21.48,21.48,23.13,13.76,-2.48,-2.48,-2.49
23.92,-23.77,-21.30,-23.77,-21.31,21.31,22.91,14.03,-2.47,-2.47,-2.48
24.16,-23.60,-21.14,-23.59,-21.13,21.13,22.67,14.32,-2.46,-2.46,-2.46
24.40,-23.40,-20.97,-23.41,-20.96,20.96,22.41,14.62,-2.45,-2.45,-2.44
24.65,-23.23,-20.79,-23.23,-20.78,20.78,22.13,14.92,-2.44,-2.44,-2.44
24.89,-23.04,-20.61,-23.04,-20.61,20.61,21.84,15.24,-2.43,-2.43,-2.43
25.14,-22.85,-20.43,-22.86,-20.44,20.44,21.55,15.56,-2.42,-2.42,-2.42
25.39,-22.67,-20.26,-22.68,-20.26,20.26,21.25,15.90,-2.41,-2.41,-2.41
25.65,-22.49,-20.09,-22.49,-20.09,20.09,20.95,16.25,-2.40,-2.40,-2.39
25.91,-22.31,-19.91,-22.30,-19.91,19.91,20.64,16.61,-2.40,-2.39,-2.40
26.16,-22.11,-19.73,-22.12,-19.74,19.74,20.34,16.99,-2.38,-2.38,-2.39
26.43,-21.93,-19.55,-21.93,-19.56,19.56,20.04,17.38,-2.37,-2.37,-2.38
26.69,-21.75,-19.38,-21.74,-19.38,19.38,19.75,17.78,-2.37,-2.36,-2.37
26.96,-21.56,-19.21,-21.55,-19.20,19.20,19.46,18.20,-2.36,-2.36,-2.35
27.23,-21.37,-19.03,-21.36,-19.02,19.02,19.17,18.63,-2.35,-2.35,-2.34
27.50,-21.18,-18.84,-21.18,-18.84,18.84,18.89,19.08,-2.34,-2.34,-2.33
27.77,-20.98,-18.65,-20.99,-18.66,18.66,18.62,19.54,-2.33,-2.33,-2.33
28.05,-20.79,-18.47,-20.79,-18.47,18.47,18.35,20.01,-2.31,-2.32,-2.32
28.33,-20.60,-18.28,-20.60,-18.29,18.29,18.09,20.49,-2.31,-2.31,-2.32
28.62,-20.41,-18.10,-20.41,-18.10,18.10,17.84,20.97,-2.31,-2.31,-2.31
28.90,-20.22,-17.91,-20.22,-17.92,17.92,17.60,21.45,-2.30,-2.30,-2.30
29.19,-20.03,-17.72,-20.02,-17.73,17.73,17.36,21.93,-2.29,-2.29,-2.30
29.48,-19.84,-17.56,-19.83,-17.55,17.55,17.14,22.39,-2.29,-2.29,-2.27
29.78,-19.65,-17.37,-19.64,-17.36,17.36,16.92,22.81,-2.29,-2.28,-2.28
30.08,-19.45,-17.18,-19.45,-17.17,17.17,16.71,23.18,-2.28,-2.27,-2.27
30.38,-19.25,-16.98,-19.25,-16.99,16.99,16.51,23.48,-2.26,-2.27,-2.27
30.68,-19.06,-16.80,-19.06,-16.80,16.80,16.32,23.69,-2.26,-2.26,-2.25
30.99,-18.86,-16.60,-18.87,-16.62,16.62,16.14,23.80,-2.24,-2.25,-2.26
31.30,-18.67,-16.42,-18.68,-16.43,16.43,15.97,23.80,-2.24,-2.25,-2.25
31.61,-18.48,-16.24,-18.48,-16.24,16.24,15.81,23.67,-2.23,-2.24,-2.24
31.93,-18.29,-16.06,-18.29,-16.06,16.06,15.66,23.44,-2.23,-2.23,-2.23
32.24,-18.09,-15.86,-18.09,-15.87,15.87,15.53,23.12,-2.23,-2.22,-2.24
32.57,-17.91,-15.69,-17.90,-15.68,15.68,15.40,22.72,-2.23,-2.22,-2.22
32.89,-17.71,-15.49,-17.70,-15.49,15.49,15.28,22.27,-2.21,-2.21,-2.21
33.22,-17.52,-15.31,-17.51,-15.30,15.30,15.18,21.78,-2.21,-2.21,-2.20
33.55,-17.31,-15.12,-17.31,-15.11,15.11,15.08,21.26,-2.20,-2.20,-2.20
33.89,-17.12,-14.93,-17.12,-14.92,14.92,14.99,20.74,-2.19,-2.19,-2.19
34.23,-16.92,-14.73,-16.92,-14.73,14.73,14.91,20.21,-2.19,-2.19,-2.18
34.57,-16.72,-14.54,-16.72,-14.54,14.54,14.83,19.68,-2.18,-2.18,-2.18
34.92,-16.53,-14.35,-16.53,-14.35,14.35,14.75,19.16,-2.18,-2.18,-2.18
35.27,-16.33,-14.15,-16.33,-14.15,14.15,14.66,18.65,-2.18,-2.17,-2.18
35.62,-16.13,-13.96,-16.13,-13.96,13.96,14.56,18.16,-2.17,-2.17,-2.17
35.97,-15.92,-13.75,-15.93,-13.76,13.76,14.44,17.68,-2.16,-2.17,-2.17
36.33,-15.73,-13.57,-15.73,-13.57,13.57,14.31,17.21,-2.17,-2.17,-2.17
36.70,-15.54,-13.37,-15.54,-13.37,13.37,14.15,16.75,-2.17,-2.17,-2.17
37.06,-15.34,-13.18,-15.34,-13.17,13.17,13.96,16.31,-2.17,-2.17,-2.17
37.43,-15.14,-12.98,-15.15,-12.98,12.98,13.75,15.88,-2.17,-2.17,-2.16
37.81,-14.95,-12.78,-14.95,-12.78,12.78,13.52,15.46,-2.17,-2.17,-2.17
38.19,-14.75,-12.58,-14.75,-12.58,12.58,13.27,15.06,-2.17,-2.17,-2.17
38.57,-14.56,-12.38,-14.56,-12.38,12.38,13.01,14.67,-2.18,-2.18,-2.18
38.95,-14.35,-12.17,-14.36,-12.18,12.18,12.73,14.28,-2.18,-2.18,-2.18
39.34,-14.16,-11.98,-14.16,-11.98,11.98,12.45,13.91,-2.19,-2.18,-2.19
39.74,-13.97,-11.77,-13.96,-11.78,11.78,12.16,13.55,-2.19,-2.19,-2.19
40.14,-13.77,-11.58,-13.77,-11.58,11.58,11.88,13.19,-2.19,-2.19,-2.19
40.54,-13.58,-11.38,-13.57,-11.37,11.37,11.60,12.84,-2.20,-2.19,-2.20
40.94,-13.38,-11.17,-13.37,-11.17,11.17,11.32,12.51,-2.20,-2.20,-2.20
41.35,-13.18,-10.97,-13.17,-10.97,10.97,11.05,12.17,-2.21,-2.20,-2.21
41.76,-12.96,-10.76,-12.97,-10.76,10.76,10.79,11.85,-2.20,-2.21,-2.21
42.18,-12.77,-10.56,-12.77,-10.56,10.56,10.54,11.53,-2.21,-2.21,-2.21
42.60,-12.56,-10.35,-12.57,-10.36,10.36,10.29,11.22,-2.21,-2.22,-2.21
43.03,-12.38,-10.17,-12.37,-10.15,10.15,10.05,10.91,-2.23,-2.22,-2.21
43.46,-12.18,-9.96,-12.17,-9.95,9.95,9.83,10.61,-2.23,-2.23,-2.22
43.90,-11.98,-9.74,-11.98,-9.75,9.75,9.60,10.31,-2.23,-2.23,-2.24
44.33,-11.77,-9.54,-11.78,-9.54,9.54,9.39,10.02,-2.23,-2.23,-2.24
44.78,-11.58,-9.33,-11.58,-9.34,9.34,9.18,9.74,-2.24,-2.24,-2.25
45.23,-11.38,-9.12,-11.38,-9.14,9.14,8.98,9.45,-2.24,-2.24,-2.26
45.68,-11.19,-8.93,-11.18,-8.93,8.93,8.78,9.17,-2.26,-2.25,-2.26
46.13,-10.99,-8.72,-10.99,-8.73,8.73,8.59,8.90,-2.25,-2.26,-2.27
46.60,-10.80,-8.54,-10.79,-8.53,8.53,8.41,8.62,-2.27,-2.26,-2.26
47.06,-10.60,-8.33,-10.60,-8.32,8.32,8.22,8.35,-2.27,-2.27,-2.27
47.53,-10.41,-8.13,-10.41,-8.12,8.12,8.05,8.09,-2.28,-2.28,-2.28
48.01,-10.22,-7.95,-10.21,-7.92,7.92,7.88,7.83,-2.30,-2.29,-2.27
48.49,-10.02,-7.72,-10.02,-7.72,7.72,7.71,7.57,-2.30,-2.30,-2.29
48.97,-9.83,-7.51,-9.84,-7.52,7.52,7.54,7.31,-2.31,-2.32,-2.32
49.46,-9.65,-7.31,-9.65,-7.32,7.32,7.38,7.06,-2.33,-2.33,-2.33
49.96,-9.47,-7.11,-9.46,-7.12,7.12,7.22,6.80,-2.35,-2.34,-2.36
50.46,-9.28,-6.92,-9.28,-6.92,6.92,7.07,6.56,-2.36,-2.36,-2.36
50.96,-9.10,-6.72,-9.09,-6.71,6.71,6.91,6.31,-2.38,-2.38,-2.37
51.47,-8.92,-6.51,-8.91,-6.52,6.52,6.76,6.07,-2.40,-2.40,-2.41
51.99,-8.75,-6.32,-8.74,-6.32,6.32,6.62,5.83,-2.43,-2.42,-2.43
52.51,-8.57,-6.14,-8.56,-6.12,6.12,6.47,5.60,-2.45,-2.44,-2.43
53.03,-8.39,-5.93,-8.39,-5.93,5.93,6.33,5.36,-2.46,-2.46,-2.46
53.56,-8.21,-5.73,-8.22,-5.73,5.73,6.19,5.14,-2.47,-2.48,-2.48
54.10,-8.04,-5.53,-8.05,-5.54,5.54,6.05,4.91,-2.49,-2.51,-2.51
54.64,-7.88,-5.35,-7.89,-5.36,5.36,5.91,4.69,-2.52,-2.53,-2.52
55.18,-7.73,-5.17,-7.72,-5.18,5.18,5.78,4.48,-2.55,-2.55,-2.55
55.74,-7.57,-4.98,-7.57,-5.00,5.00,5.64,4.27,-2.57,-2.57,-2.58
56.29,-7.42,-4.82,-7.41,-4.82,4.82,5.51,4.06,-2.60,-2.60,-2.59
56.86,-7.27,-4.64,-7.26,-4.64,4.64,5.38,3.87,-2.63,-2.62,-2.63
57.42,-7.12,-4.46,-7.12,-4.47,4.47,5.25,3.67,-2.65,-2.65,-2.66
58.00,-6.98,-4.30,-6.98,-4.30,4.30,5.13,3.48,-2.68,-2.68,-2.68
58.58,-6.84,-4.13,-6.84,-4.13,4.13,5.00,3.30,-2.70,-2.71,-2.71
59.16,-6.71,-3.98,-6.71,-3.97,3.97,4.88,3.13,-2.74,-2.74,-2.73
59.76,-6.58,-3.82,-6.58,-3.81,3.81,4.76,2.96,-2.77,-2.77,-2.75
60.35,-6.46,-3.67,-6.45,-3.65,3.65,4.63,2.80,-2.81,-2.80,-2.79
60.96,-6.33,-3.50,-6.33,-3.49,3.49,4.52,2.65,-2.84,-2.84,-2.83
61.57,-6.21,-3.33,-6.21,-3.34,3.34,4.40,2.51,-2.87,-2.88,-2.87
62.18,-6.10,-3.17,-6.10,-3.19,3.19,4.28,2.37,-2.91,-2.91,-2.92
62.80,-5.99,-3.03,-5.99,-3.04,3.04,4.16,2.24,-2.95,-2.95,-2.95
63.43,-5.88,-2.87,-5.88,-2.89,2.89,4.05,2.11,-2.99,-2.99,-3.00
64.07,-5.79,-2.74,-5.78,-2.75,2.75,3.94,2.00,-3.04,-3.04,-3.04
64.71,-5.69,-2.60,-5.68,-2.60,2.60,3.83,1.89,-3.08,-3.08,-3.09
65.35,-5.60,-2.47,-5.59,-2.46,2.46,3.71,1.79,-3.13,-3.12,-3.13
66.01,-5.50,-2.33,-5.49,-2.33,2.33,3.60,1.69,-3.17,-3.17,-3.17
66.67,-5.41,-2.20,-5.40,-2.19,2.19,3.50,1.60,-3.22,-3.21,-3.21
67.33,-5.32,-2.06,-5.32,-2.06,2.06,3.39,1.52,-3.26,-3.26,-3.25
68.01,-5.24,-1.94,-5.24,-1.93,1.93,3.28,1.44,-3.30,-3.30,-3.30
68.69,-5.16,-1.81,-5.16,-1.81,1.81,3.18,1.37,-3.35,-3.35,-3.35
69.37,-5.08,-1.68,-5.08,-1.69,1.69,3.07,1.30,-3.39,-3.39,-3.39
70.07,-5.01,-1.56,-5.01,-1.57,1.57,2.97,1.24,-3.44,-3.44,-3.44
70.77,-4.94,-1.45,-4.94,-1.45,1.45,2.87,1.18,-3.48,-3.48,-3.48
71.48,-4.87,-1.34,-4.87,-1.34,1.34,2.77,1.12,-3.53,-3.53,-3.52
72.19,-4.80,-1.22,-4.81,-1.23,1.23,2.67,1.07,-3.56,-3.57,-3.58
72.91,-4.75,-1.13,-4.75,-1.13,1.13,2.57,1.01,-3.62,-3.62,-3.62
73.64,-4.69,-1.02,-4.69,-1.03,1.03,2.47,0.96,-3.65,-3.66,-3.66
74.38,-4.64,-0.94,-4.64,-0.94,0.94,2.37,0.92,-3.70,-3.70,-3.70
75.12,-4.59,-0.84,-4.59,-0.85,0.85,2.28,0.87,-3.74,-3.74,-3.75
75.87,-4.54,-0.75,-4.55,-0.76,0.76,2.18,0.82,-3.77,-3.78,-3.78
76.63,-4.50,-0.68,-4.50,-0.68,0.68,2.09,0.78,-3.81,-3.82,-3.82
77.40,-4.47,-0.61,-4.46,-0.60,0.60,1.99,0.73,-3.86,-3.86,-3.86
78.17,-4.43,-0.53,-4.42,-0.53,0.53,1.90,0.68,-3.90,-3.89,-3.90
78.95,-4.39,-0.46,-4.38,-0.45,0.45,1.81,0.64,-3.94,-3.93,-3.93
79.74,-4.36,-0.39,-4.34,-0.38,0.38,1.72,0.59,-3.98,-3.96,-3.96
80.54,-4.32,-0.32,-4.31,-0.31,0.31,1.63,0.54,-4.01,-4.00,-4.00
81.35,-4.28,-0.25,-4.27,-0.24,0.24,1.54,0.50,-4.04,-4.03,-4.03
82.16,-4.24,-0.17,-4.24,-0.17,0.17,1.45,0.45,-4.06,-4.06,-4.06
82.98,-4.21,-0.12,-4.20,-0.11,0.11,1.37,0.39,-4.10,-4.09,-4.09
83.81,-4.17,-0.04,-4.17,-0.05,0.05,1.28,0.34,-4.12,-4.12,-4.13
84.65,-4.13,0.04,-4.14,0.01,-0.01,1.20,0.29,-4.14,-4.15,-4.16
85.50,-4.10,0.08,-4.11,0.07,-0.07,1.11,0.23,-4.17,-4.18,-4.18
86.35,-4.07,0.14,-4.08,0.13,-0.13,1.03,0.18,-4.19,-4.21,-4.21
87.22,-4.05,0.19,-4.06,0.18,-0.18,0.95,0.12,-4.23,-4.24,-4.24
88.09,-4.04,0.23,-4.03,0.24,-0.24,0.86,0.06,-4.27,-4.27,-4.27
88.97,-4.02,0.27,-4.00,0.29,-0.29,0.78,-0.01,-4.31,-4.29,-4.29
89.86,-3.99,0.33,-3.98,0.34,-0.34,0.70,-0.07,-4.33,-4.32,-4.31
90.76,-3.97,0.39,-3.95,0.40,-0.40,0.62,-0.14,-4.36,-4.35,-4.36
91.66,-3.93,0.45,-3.93,0.45,-0.45,0.55,-0.21,-4.38,-4.38,-4.38
92.58,-3.90,0.52,-3.90,0.51,-0.51,0.47,-0.28,-4.40,-4.41,-4.41
93.51,-3.87,0.56,-3.87,0.56,-0.56,0.39,-0.35,-4.43,-4.44,-4.43
94.44,-3.85,0.61,-3.84,0.62,-0.62,0.32,-0.42,-4.47,-4.47,-4.46
95.39,-3.82,0.67,-3.81,0.68,-0.68,0.24,-0.50,-4.50,-4.50,-4.49
96.34,-3.79,0.75,-3.78,0.75,-0.75,0.17,-0.57,-4.54,-4.53,-4.53
97.30,-3.77,0.80,-3.75,0.81,-0.81,0.10,-0.65,-4.58,-4.57,-4.57
98.28,-3.74,0.87,-3.72,0.88,-0.88,0.02,-0.73,-4.62,-4.60,-4.61
99.26,-3.70,0.95,-3.69,0.95,-0.95,-0.05,-0.81,-4.65,-4.64,-4.64
100.25,-3.67,1.01,-3.66,1.01,-1.01,-0.12,-0.89,-4.68,-4.68,-4.68
101.25,-3.64,1.08,-3.64,1.08,-1.08,-0.19,-0.98,-4.71,-4.72,-4.72
102.27,-3.62,1.15,-3.62,1.14,-1.14,-0.26,-1.06,-4.76,-4.76,-4.76
103.29,-3.61,1.21,-3.61,1.20,-1.20,-0.32,-1.14,-4.80,-4.81,-4.81
104.32,-3.59,1.26,-3.60,1.25,-1.25,-0.39,-1.23,-4.84,-4.86,-4.85
105.37,-3.58,1.32,-3.60,1.30,-1.30,-0.46,-1.31,-4.88,-4.91,-4.90
106.42,-3.57,1.39,-3.61,1.35,-1.35,-0.52,-1.40,-4.92,-4.96,-4.96
107.48,-3.59,1.42,-3.61,1.40,-1.40,-0.59,-1.48,-4.99,-5.01,-5.00
108.56,-3.62,1.45,-3.63,1.44,-1.44,-0.65,-1.56,-5.06,-5.07,-5.07
109.64,-3.65,1.48,-3.65,1.48,-1.48,-0.72,-1.64,-5.13,-5.13,-5.13
110.74,-3.68,1.51,-3.67,1.52,-1.52,-0.78,-1.72,-5.20,-5.19,-5.19
111.85,-3.72,1.54,-3.70,1.56,-1.56,-0.84,-1.80,-5.28,-5.26,-5.25
112.97,-3.75,1.58,-3.73,1.60,-1.60,-0.90,-1.87,-5.34,-5.33,-5.33
114.10,-3.79,1.60,-3.76,1.63,-1.63,-0.96,-1.95,-5.42,-5.39,-5.39
115.24,-3.81,1.66,-3.79,1.67,-1.67,-1.02,-2.02,-5.48,-5.46,-5.46
116.39,-3.83,1.71,-3.82,1.71,-1.71,-1.08,-2.08,-5.53,-5.53,-5.54
117.55,-3.86,1.75,-3.85,1.74,-1.74,-1.14,-2.15,-5.60,-5.60,-5.60
118.73,-3.88,1.80,-3.89,1.78,-1.78,-1.19,-2.21,-5.66,-5.67,-5.68
119.92,-3.92,1.82,-3.91,1.82,-1.82,-1.25,-2.26,-5.74,-5.73,-5.73
121.12,-3.95,1.86,-3.94,1.86,-1.86,-1.31,-2.31,-5.80,-5.80,-5.81
122.33,-3.97,1.90,-3.97,1.89,-1.89,-1.36,-2.36,-5.86,-5.87,-5.87
123.55,-4.00,1.93,-4.00,1.93,-1.93,-1.42,-2.40,-5.93,-5.93,-5.92
124.79,-4.03,1.96,-4.03,1.96,-1.96,-1.47,-2.44,-5.99,-5.99,-5.99
126.03,-4.05,2.00,-4.06,1.99,-1.99,-1.52,-2.47,-6.04,-6.05,-6.05
127.29,-4.07,2.04,-4.08,2.03,-2.03,-1.57,-2.50,-6.09,-6.11,-6.11
128.57,-4.10,2.08,-4.11,2.06,-2.06,-1.63,-2.52,-6.15,-6.17,-6.18
129.85,-4.14,2.09,-4.14,2.09,-2.09,-1.68,-2.54,-6.22,-6.22,-6.23
131.15,-4.18,2.11,-4.16,2.12,-2.12,-1.73,-2.55,-6.30,-6.28,-6.28
132.46,-4.20,2.13,-4.18,2.15,-2.15,-1.78,-2.56,-6.35,-6.33,-6.33
133.79,-4.23,2.15,-4.20,2.19,-2.19,-1.82,-2.57,-6.41,-6.38,-6.38
135.12,-4.24,2.20,-4.22,2.22,-2.22,-1.87,-2.57,-6.45,-6.43,-6.43
136.48,-4.25,2.23,-4.23,2.25,-2.25,-1.92,-2.57,-6.50,-6.48,-6.48
137.84,-4.26,2.28,-4.25,2.28,-2.28,-1.97,-2.57,-6.54,-6.53,-6.53
139.22,-4.27,2.32,-4.27,2.31,-2.31,-2.01,-2.56,-6.58,-6.58,-6.59
140.61,-4.27,2.37,-4.29,2.34,-2.34,-2.06,-2.55,-6.60,-6.62,-6.64
142.02,-4.29,2.38,-4.31,2.36,-2.36,-2.10,-2.54,-6.65,-6.67,-6.67
143.44,-4.30,2.41,-4.33,2.39,-2.39,-2.14,-2.53,-6.69,-6.72,-6.71
144.87,-4.33,2.43,-4.35,2.41,-2.41,-2.19,-2.51,-6.74,-6.76,-6.76
146.32,-4.35,2.46,-4.37,2.44,-2.44,-2.23,-2.50,-6.78,-6.81,-6.81
147.78,-4.39,2.46,-4.40,2.46,-2.46,-2.27,-2.49,-6.85,-6.86,-6.85
149.26,-4.42,2.47,-4.42,2.48,-2.48,-2.31,-2.47,-6.90,-6.90,-6.89
150.75,-4.46,2.50,-4.45,2.50,-2.50,-2.35,-2.45,-6.96,-6.95,-6.96
152.26,-4.49,2.51,-4.47,2.53,-2.53,-2.39,-2.44,-7.02,-7.00,-7.00
153.78,-4.52,2.53,-4.49,2.55,-2.55,-2.43,-2.42,-7.07,-7.05,-7.04
155.32,-4.55,2.56,-4.52,2.58,-2.58,-2.47,-2.41,-7.13,-7.10,-7.11
156.88,-4.57,2.58,-4.54,2.61,-2.61,-2.51,-2.40,-7.18,-7.15,-7.15
158.44,-4.58,2.62,-4.55,2.65,-2.65,-2.55,-2.39,-7.23,-7.20,-7.20
160.03,-4.59,2.67,-4.57,2.68,-2.68,-2.58,-2.37,-7.27,-7.25,-7.26
161.63,-4.59,2.73,-4.59,2.72,-2.72,-2.62,-2.37,-7.31,-7.31,-7.32
163.24,-4.59,2.78,-4.60,2.76,-2.76,-2.65,-2.36,-7.35,-7.36,-7.36
164.88,-4.59,2.82,-4.61,2.80,-2.80,-2.69,-2.35,-7.39,-7.41,-7.41
166.53,-4.61,2.86,-4.63,2.84,-2.84,-2.72,-2.35,-7.45,-7.47,-7.47
168.19,-4.62,2.91,-4.65,2.88,-2.88,-2.76,-2.35,-7.49,-7.52,-7.52
169.87,-4.66,2.92,-4.66,2.91,-2.91,-2.79,-2.35,-7.57,-7.58,-7.58
171.57,-4.68,2.95,-4.69,2.95,-2.95,-2.82,-2.35,-7.63,-7.64,-7.63
173.29,-4.71,2.98,-4.71,2.98,-2.98,-2.85,-2.35,-7.69,-7.69,-7.69
175.02,-4.75,3.00,-4.74,3.02,-3.02,-2.88,-2.36,-7.76,-7.75,-7.74
176.77,-4.78,3.04,-4.77,3.04,-3.04,-2.91,-2.37,-7.82,-7.81,-7.81
178.54,-4.80,3.07,-4.80,3.07,-3.07,-2.94,-2.38,-7.87,-7.87,-7.87
180.32,-4.83,3.10,-4.83,3.10,-3.10,-2.97,-2.39,-7.92,-7.93,-7.93
182.13,-4.86,3.13,-4.87,3.12,-3.12,-3.00,-2.41,-7.98,-7.99,-7.99
183.95,-4.91,3.15,-4.90,3.15,-3.15,-3.03,-2.43,-8.06,-8.05,-8.05
185.79,-4.95,3.16,-4.93,3.18,-3.18,-3.06,-2.44,-8.13,-8.12,-8.11
187.65,-4.97,3.22,-4.96,3.21,-3.21,-3.08,-2.47,-8.18,-8.18,-8.19
189.52,-5.01,3.23,-4.99,3.24,-3.24,-3.11,-2.49,-8.25,-8.23,-8.24
191.42,-5.03,3.27,-5.02,3.27,-3.27,-3.14,-2.52,-8.30,-8.29,-8.29
193.33,-5.06,3.29,-5.05,3.30,-3.30,-3.16,-2.54,-8.36,-8.35,-8.35
195.27,-5.09,3.31,-5.08,3.33,-3.33,-3.18,-2.57,-8.42,-8.41,-8.40
197.22,-5.11,3.36,-5.11,3.35,-3.35,-3.21,-2.60,-8.46,-8.46,-8.46
199.19,-5.14,3.39,-5.13,3.38,-3.38,-3.23,-2.64,-8.52,-8.52,-8.52
201.18,-5.16,3.42,-5.16,3.41,-3.41,-3.25,-2.67,-8.56,-8.57,-8.57
203.19,-5.18,3.44,-5.19,3.43,-3.43,-3.27,-2.70,-8.61,-8.62,-8.61
205.23,-5.21,3.47,-5.21,3.46,-3.46,-3.29,-2.74,-8.66,-8.67,-8.67
207.28,-5.23,3.47,-5.24,3.48,-3.48,-3.31,-2.78,-8.71,-8.72,-8.70
209.35,-5.26,3.50,-5.26,3.50,-3.50,-3.33,-2.82,-8.76,-8.76,-8.76
211.44,-5.29,3.53,-5.29,3.52,-3.52,-3.35,-2.85,-8.81,-8.81,-8.82
213.56,-5.32,3.54,-5.31,3.54,-3.54,-3.37,-2.89,-8.85,-8.85,-8.85
215.69,-5.35,3.53,-5.34,3.55,-3.55,-3.39,-2.93,-8.90,-8.89,-8.88
217.85,-5.38,3.55,-5.37,3.56,-3.56,-3.40,-2.97,-8.94,-8.93,-8.92
220.03,-5.40,3.57,-5.40,3.57,-3.57,-3.42,-3.01,-8.96,-8.96,-8.97
222.23,-5.42,3.59,-5.42,3.57,-3.57,-3.43,-3.05,-8.99,-9.00,-9.00
224.45,-5.45,3.58,-5.45,3.57,-3.57,-3.45,-3.08,-9.02,-9.03,-9.03
226.70,-5.48,3.57,-5.48,3.57,-3.57,-3.46,-3.12,-9.05,-9.05,-9.05
228.96,-5.51,3.58,-5.51,3.57,-3.57,-3.47,-3.15,-9.08,-9.08,-9.08
231.25,-5.53,3.57,-5.54,3.56,-3.56,-3.48,-3.19,-9.09,-9.10,-9.10
233.57,-5.57,3.55,-5.56,3.55,-3.55,-3.49,-3.22,-9.12,-9.12,-9.12
235.90,-5.61,3.53,-5.59,3.54,-3.54,-3.50,-3.25,-9.15,-9.14,-9.14
238.26,-5.63,3.53,-5.62,3.53,-3.53,-3.51,-3.27,-9.16,-9.15,-9.15
240.64,-5.66,3.51,-5.65,3.51,-3.51,-3.51,-3.29,-9.17,-9.16,-9.16
243.05,-5.67,3.50,-5.68,3.49,-3.49,-3.52,-3.32,-9.16,-9.17,-9.16
245.48,-5.70,3.48,-5.70,3.47,-3.47,-3.52,-3.33,-9.16,-9.17,-9.17
247.93,-5.74,3.44,-5.73,3.44,-3.44,-3.52,-3.35,-9.18,-9.17,-9.17
250.41,-5.76,3.43,-5.76,3.42,-3.42,-3.52,-3.36,-9.17,-9.17,-9.18
252.92,-5.79,3.39,-5.79,3.39,-3.39,-3.52,-3.37,-9.17,-9.17,-9.17
255.45,-5.81,3.35,-5.81,3.35,-3.35,-3.52,-3.38,-9.16,-9.17,-9.16
258.00,-5.84,3.32,-5.84,3.32,-3.32,-3.52,-3.38,-9.16,-9.16,-9.16
260.58,-5.87,3.29,-5.87,3.28,-3.28,-3.51,-3.38,-9.15,-9.15,-9.16
263.19,-5.90,3.25,-5.90,3.25,-3.25,-3.50,-3.38,-9.14,-9.14,-9.15
265.82,-5.94,3.21,-5.93,3.21,-3.21,-3.50,-3.37,-9.14,-9.14,-9.14
268.48,-5.96,3.16,-5.96,3.17,-3.17,-3.48,-3.37,-9.13,-9.12,-9.12
271.16,-5.98,3.13,-5.98,3.13,-3.13,-3.47,-3.36,-9.11,-9.11,-9.11
273.87,-6.02,3.09,-6.01,3.09,-3.09,-3.45,-3.35,-9.11,-9.10,-9.10
276.61,-6.05,3.03,-6.04,3.05,-3.05,-3.44,-3.34,-9.10,-9.09,-9.08
279.38,-6.07,3.01,-6.07,3.01,-3.01,-3.41,-3.32,-9.08,-9.08,-9.08
282.17,-6.10,2.97,-6.09,2.97,-2.97,-3.39,-3.31,-9.07,-9.07,-9.06
284.99,-6.12,2.93,-6.12,2.93,-2.93,-3.36,-3.29,-9.05,-9.05,-9.05
287.84,-6.15,2.90,-6.14,2.90,-2.90,-3.33,-3.28,-9.04,-9.04,-9.04
290.72,-6.17,2.86,-6.17,2.86,-2.86,-3.30,-3.26,-9.03,-9.03,-9.03
293.63,-6.20,2.82,-6.19,2.82,-2.82,-3.26,-3.24,-9.02,-9.01,-9.01
296.57,-6.22,2.78,-6.22,2.79,-2.79,-3.22,-3.23,-9.00,-9.00,-9.00
299.53,-6.25,2.75,-6.24,2.75,-2.75,-3.18,-3.21,-9.00,-8.99,-8.99
302.53,-6.27,2.72,-6.27,2.71,-2.71,-3.13,-3.19,-8.98,-8.98,-8.99
305.55,-6.29,2.68,-6.29,2.67,-2.67,-3.08,-3.18,-8.96,-8.97,-8.96
308.61,-6.31,2.65,-6.32,2.64,-2.64,-3.02,-3.17,-8.94,-8.96,-8.96
311.69,-6.34,2.62,-6.35,2.60,-2.60,-2.96,-3.15,-8.93,-8.95,-8.95
314.81,-6.37,2.56,-6.38,2.56,-2.56,-2.89,-3.14,-8.93,-8.94,-8.93
317.96,-6.40,2.53,-6.41,2.52,-2.52,-2.83,-3.13,-8.92,-8.93,-8.93
321.14,-6.43,2.50,-6.43,2.49,-2.49,-2.76,-3.12,-8.92,-8.93,-8.92
324.35,-6.46,2.47,-6.46,2.46,-2.46,-2.68,-3.12,-8.92,-8.92,-8.93
327.59,-6.50,2.41,-6.48,2.44,-2.44,-2.60,-3.11,-8.94,-8.92,-8.91
330.87,-6.52,2.40,-6.49,2.42,-2.42,-2.53,-3.11,-8.93,-8.91,-8.91
334.18,-6.54,2.38,-6.51,2.40,-2.40,-2.45,-3.11,-8.94,-8.91,-8.92
337.52,-6.55,2.36,-6.52,2.39,-2.39,-2.37,-3.11,-8.93,-8.91,-8.91
340.90,-6.56,2.35,-6.53,2.38,-2.38,-2.30,-3.11,-8.93,-8.91,-8.90
344.30,-6.55,2.36,-6.54,2.37,-2.37,-2.23,-3.12,-8.92,-8.91,-8.91
347.75,-6.54,2.37,-6.55,2.37,-2.37,-2.16,-3.13,-8.90,-8.91,-8.91
351.23,-6.53,2.38,-6.55,2.37,-2.37,-2.10,-3.14,-8.89,-8.91,-8.91
354.74,-6.53,2.39,-6.55,2.37,-2.37,-2.06,-3.15,-8.89,-8.92,-8.91
358.28,-6.53,2.40,-6.55,2.37,-2.37,-2.02,-3.16,-8.90,-8.92,-8.93
361.87,-6.53,2.40,-6.55,2.38,-2.38,-2.00,-3.18,-8.90,-8.93,-8.93
365.49,-6.54,2.39,-6.55,2.38,-2.38,-2.00,-3.20,-8.92,-8.93,-8.93
369.14,-6.55,2.40,-6.55,2.39,-2.39,-2.01,-3.22,-8.94,-8.94,-8.94
372.83,-6.55,2.40,-6.55,2.40,-2.40,-2.03,-3.24,-8.95,-8.95,-8.95
376.56,-6.56,2.40,-6.55,2.41,-2.41,-2.07,-3.27,-8.97,-8.96,-8.96
380.33,-6.55,2.41,-6.54,2.42,-2.42,-2.13,-3.29,-8.97,-8.96,-8.96
384.13,-6.54,2.43,-6.53,2.44,-2.44,-2.20,-3.32,-8.97,-8.97,-8.97
387.97,-6.53,2.46,-6.52,2.46,-2.46,-2.29,-3.36,-8.98,-8.98,-8.98
391.85,-6.52,2.48,-6.50,2.48,-2.48,-2.38,-3.39,-9.00,-8.99,-8.99
395.77,-6.50,2.49,-6.48,2.51,-2.51,-2.49,-3.43,-9.01,-8.99,-8.99
399.73,-6.46,2.54,-6.45,2.55,-2.55,-2.60,-3.46,-9.01,-9.00,-9.00
