frequency,raw,error,smoothed,error_smoothed,equalization,parametric_eq,fixed_band_eq,equalized_raw,equalized_smoothed,target
20.00,-26.91,-22.95,-26.90,-22.97,22.97,20.57,8.70,-3.94,-3.93,-3.95
20.20,-26.74,-22.82,-26.73,-22.84,22.84,20.83,8.87,-3.90,-3.90,-3.91
20.40,-26.57,-22.69,-26.57,-22.70,22.70,21.07,9.04,-3.87,-3.87,-3.87
20.61,-26.40,-22.56,-26.40,-22.56,22.56,21.29,9.22,-3.84,-3.84,-3.84
20.81,-26.23,-22.42,-26.23,-22.42,22.42,21.50,9.40,-3.81,-3.81,-3.80
21.02,-26.06,-22.29,-26.06,-22.27,22.27,21.69,9.59,-3.78,-3.79,-3.76
21.23,-25.89,-22.14,-25.89,-22.13,22.13,21.85,9.78,-3.76,-3.76,-3.74
21.44,-25.71,-21.99,-25.72,-21.98,21.98,21.99,9.97,-3.74,-3.74,-3.72
21.66,-25.55,-21.85,-25.55,-21.83,21.83,22.09,10.17,-3.72,-3.72,-3.70
21.87,-25.37,-21.68,-25.37,-21.67,21.67,22.16,10.38,-3.70,-3.70,-3.69
22.09,-25.20,-21.53,-25.20,-21.52,21.52,22.20,10.59,-3.69,-3.68,-3.67
22.31,-25.02,-21.36,-25.02,-21.36,21.36,22.20,10.81,-3.66,-3.66,-3.66
22.54,-24.85,-21.20,-24.85,-21.20,21.20,22.17,11.03,-3.65,-3.65,-3.65
22.76,-24.67,-21.02,-24.67,-21.03,21.03,22.10,11.26,-3.64,-3.64,-3.64
22.99,-24.50,-20.85,-24.49,-20.86,20.86,22.00,11.50,-3.64,-3.63,-3.64
23.22,-24.32,-20.68,-24.32,-20.69,20.69,21.86,11.74,-3.63,-3.62,-3.63
23.45,-24.14,-20.51,-24.14,-20.52,20.52,21.70,11.99,-3.62,-3.62,-3.62
23.69,-23.96,-20.35,-23.96,-20.35,20.35,21.52,12.24,-3.61,-3.61,-3.61
23.92,-23.77,-20.17,-23.77,-20.18,20.18,21.31,12.51,-3.60,-3.60,-3.60
24.16,-23.60,-20.01,-23.59,-20.00,20.00,21.08,12.78,-3.59,-3.59,-3.58
24.40,-23.40,-19.84,-23.41,-19.83,19.83,20.85,13.06,-3.57,-3.58,-3.56
24.65,-23.23,-19.66,-23.23,-19.66,19.66,20.60,13.35,-3.57,-3.57,-3.57
24.89,-23.04,-19.48,-23.04,-19.48,19.48,20.34,13.65,-3.56,-3.56,-3.56
25.14,-22.85,-19.30,-22.86,-19.31,19.31,20.08,13.96,-3.54,-3.55,-3.55
25.39,-22.67,-19.13,-22.68,-19.14,19.14,19.81,14.27,-3.54,-3.54,-3.54
25.65,-22.49,-18.96,-22.49,-18.96,18.96,19.54,14.60,-3.53,-3.53,-3.52
25.91,-22.31,-18.79,-22.30,-18.79,18.79,19.27,14.94,-3.53,-3.52,-3.52
26.16,-22.11,-18.60,-22.12,-18.61,18.61,19.00,15.28,-3.51,-3.51,-3.51
26.43,-21.93,-18.43,-21.93,-18.43,18.43,18.74,15.64,-3.50,-3.50,-3.50
26.69,-21.75,-18.25,-21.74,-18.25,18.25,18.48,16.01,-3.50,-3.49,-3.49
26.96,-21.56,-18.09,-21.55,-18.07,18.07,18.23,16.39,-3.49,-3.48,-3.47
27.23,-21.37,-17.91,-21.36,-17.89,17.89,17.98,16.77,-3.48,-3.47,-3.46
27.50,-21.18,-17.71,-21.18,-17.71,17.71,17.73,17.17,-3.47,-3.46,-3.46
27.77,-20.98,-17.52,-20.99,-17.53,17.53,17.50,17.57,-3.45,-3.46,-3.46
28.05,-20.79,-17.34,-20.79,-17.35,17.35,17.27,17.98,-3.44,-3.45,-3.44
28.33,-20.60,-17.15,-20.60,-17.16,17.16,17.05,18.39,-3.43,-3.44,-3.44
28.62,-20.41,-16.98,-20.41,-16.98,16.98,16.84,18.79,-3.43,-3.43,-3.43
28.90,-20.22,-16.79,-20.22,-16.80,16.80,16.63,19.19,-3.42,-3.42,-3.42
29.19,-20.03,-16.60,-20.02,-16.61,16.61,16.44,19.57,-3.42,-3.42,-3.42
29.48,-19.84,-16.44,-19.83,-16.42,16.42,16.26,19.92,-3.41,-3.41,-3.39
29.78,-19.65,-16.25,-19.64,-16.24,16.24,16.08,20.25,-3.41,-3.40,-3.40
30.08,-19.45,-16.06,-19.45,-16.05,16.05,15.92,20.52,-3.40,-3.40,-3.39
30.38,-19.25,-15.86,-19.25,-15.86,15.86,15.76,20.74,-3.38,-3.39,-3.39
30.68,-19.06,-15.68,-19.06,-15.68,15.68,15.62,20.89,-3.38,-3.38,-3.37
30.99,-18.86,-15.49,-18.87,-15.50,15.50,15.49,20.97,-3.36,-3.37,-3.37
31.30,-18.67,-15.30,-18.68,-15.31,15.31,15.36,20.96,-3.36,-3.37,-3.37
31.61,-18.48,-15.11,-18.48,-15.12,15.12,15.25,20.87,-3.36,-3.36,-3.36
31.93,-18.29,-14.94,-18.29,-14.94,14.94,15.14,20.71,-3.35,-3.35,-3.35
32.24,-18.09,-14.74,-18.09,-14.75,14.75,15.04,20.47,-3.35,-3.34,-3.35
32.57,-17.91,-14.58,-17.90,-14.56,14.56,14.94,20.17,-3.35,-3.34,-3.33
32.89,-17.71,-14.37,-17.70,-14.37,14.37,14.85,19.82,-3.33,-3.33,-3.33
33.22,-17.52,-14.19,-17.51,-14.19,14.19,14.75,19.44,-3.33,-3.32,-3.32
33.55,-17.31,-14.00,-17.31,-14.00,14.00,14.64,19.02,-3.32,-3.32,-3.31
33.89,-17.12,-13.81,-17.12,-13.81,13.81,14.53,18.59,-3.31,-3.31,-3.30
34.23,-16.92,-13.61,-16.92,-13.62,13.62,14.40,18.15,-3.30,-3.30,-3.30
34.57,-16.72,-13.42,-16.72,-13.43,13.43,14.24,17.71,-3.29,-3.30,-3.29
34.92,-16.53,-13.24,-16.53,-13.24,13.24,14.07,17.26,-3.29,-3.29,-3.29
35.27,-16.33,-13.05,-16.33,-13.04,13.04,13.88,16.82,-3.29,-3.29,-3.28
35.62,-16.13,-12.84,-16.13,-12.85,12.85,13.66,16.39,-3.28,-3.28,-3.28
35.97,-15.92,-12.64,-15.93,-12.65,12.65,13.42,15.96,-3.27,-3.28,-3.28
36.33,-15.73,-12.46,-15.73,-12.46,12.46,13.16,15.54,-3.28,-3.28,-3.27
36.70,-15.54,-12.26,-15.54,-12.26,12.26,12.89,15.13,-3.28,-3.28,-3.28
37.06,-15.34,-12.07,-15.34,-12.06,12.06,12.60,14.72,-3.28,-3.28,-3.27
37.43,-15.14,-11.87,-15.15,-11.87,11.87,12.31,14.33,-3.28,-3.28,-3.27
37.81,-14.95,-11.67,-14.95,-11.67,11.67,12.02,13.95,-3.28,-3.28,-3.27
38.19,-14.75,-11.48,-14.75,-11.47,11.47,11.72,13.58,-3.27,-3.28,-3.27
38.57,-14.56,-11.27,-14.56,-11.27,11.27,11.43,13.21,-3.28,-3.28,-3.28
38.95,-14.35,-11.07,-14.36,-11.07,11.07,11.15,12.86,-3.28,-3.28,-3.28
39.34,-14.16,-10.87,-14.16,-10.88,10.88,10.87,12.51,-3.29,-3.29,-3.29
39.74,-13.97,-10.67,-13.96,-10.68,10.68,10.60,12.17,-3.29,-3.29,-3.29
40.14,-13.77,-10.48,-13.77,-10.48,10.48,10.33,11.84,-3.29,-3.29,-3.29
40.54,-13.58,-10.29,-13.57,-10.27,10.27,10.08,11.52,-3.30,-3.29,-3.29
40.94,-13.38,-10.07,-13.37,-10.07,10.07,9.83,11.20,-3.30,-3.30,-3.30
41.35,-13.18,-9.87,-13.17,-9.87,9.87,9.59,10.89,-3.30,-3.30,-3.30
41.76,-12.96,-9.66,-12.97,-9.67,9.67,9.36,10.59,-3.30,-3.30,-3.30
42.18,-12.77,-9.46,-12.77,-9.47,9.47,9.14,10.29,-3.30,-3.31,-3.30
42.60,-12.56,-9.26,-12.57,-9.26,9.26,8.92,10.00,-3.30,-3.31,-3.30
43.03,-12.38,-9.07,-12.37,-9.06,9.06,8.71,9.72,-3.32,-3.31,-3.30
43.46,-12.18,-8.87,-12.17,-8.86,8.86,8.51,9.44,-3.32,-3.31,-3.30
43.90,-11.98,-8.66,-11.98,-8.66,8.66,8.31,9.16,-3.32,-3.32,-3.32
44.33,-11.77,-8.45,-11.78,-8.46,8.46,8.12,8.89,-3.32,-3.32,-3.32
44.78,-11.58,-8.24,-11.58,-8.26,8.26,7.93,8.62,-3.32,-3.32,-3.33
45.23,-11.38,-8.05,-11.38,-8.05,8.05,7.75,8.36,-3.33,-3.33,-3.33
45.68,-11.19,-7.85,-11.18,-7.85,7.85,7.58,8.10,-3.33,-3.33,-3.33
46.13,-10.99,-7.64,-10.99,-7.65,7.65,7.41,7.85,-3.33,-3.33,-3.34
46.60,-10.80,-7.47,-10.79,-7.45,7.45,7.24,7.59,-3.35,-3.34,-3.33
47.06,-10.60,-7.25,-10.60,-7.25,7.25,7.07,7.35,-3.34,-3.35,-3.34
47.53,-10.41,-7.05,-10.41,-7.05,7.05,6.91,7.10,-3.35,-3.35,-3.35
48.01,-10.22,-6.87,-10.21,-6.85,6.85,6.75,6.86,-3.37,-3.36,-3.34
48.49,-10.02,-6.65,-10.02,-6.65,6.65,6.60,6.62,-3.37,-3.37,-3.36
48.97,-9.83,-6.44,-9.84,-6.45,6.45,6.45,6.38,-3.37,-3.38,-3.38
49.46,-9.65,-6.25,-9.65,-6.26,6.26,6.30,6.15,-3.39,-3.39,-3.39
49.96,-9.47,-6.05,-9.46,-6.06,6.06,6.15,5.92,-3.41,-3.40,-3.41
50.46,-9.28,-5.86,-9.28,-5.86,5.86,6.01,5.70,-3.42,-3.42,-3.41
50.96,-9.10,-5.66,-9.09,-5.66,5.66,5.87,5.47,-3.44,-3.43,-3.43
51.47,-8.92,-5.45,-8.91,-5.46,5.46,5.73,5.25,-3.45,-3.45,-3.46
51.99,-8.75,-5.28,-8.74,-5.27,5.27,5.59,5.04,-3.48,-3.47,-3.47
52.51,-8.57,-5.09,-8.56,-5.08,5.08,5.46,4.82,-3.49,-3.49,-3.48
53.03,-8.39,-4.88,-8.39,-4.88,4.88,5.33,4.61,-3.50,-3.50,-3.50
53.56,-8.21,-4.69,-8.22,-4.69,4.69,5.19,4.41,-3.51,-3.52,-3.51
54.10,-8.04,-4.49,-8.05,-4.51,4.51,5.07,4.20,-3.53,-3.54,-3.54
54.64,-7.88,-4.32,-7.89,-4.33,4.33,4.94,4.00,-3.55,-3.56,-3.55
55.18,-7.73,-4.14,-7.72,-4.15,4.15,4.81,3.81,-3.58,-3.58,-3.58
55.74,-7.57,-3.96,-7.57,-3.97,3.97,4.69,3.62,-3.60,-3.60,-3.61
56.29,-7.42,-3.80,-7.41,-3.79,3.79,4.57,3.43,-3.62,-3.62,-3.61
56.86,-7.27,-3.62,-7.26,-3.62,3.62,4.45,3.25,-3.64,-3.64,-3.64
57.42,-7.12,-3.44,-7.12,-3.46,3.46,4.33,3.08,-3.66,-3.66,-3.67
58.00,-6.98,-3.28,-6.98,-3.29,3.29,4.21,2.91,-3.69,-3.69,-3.69
58.58,-6.84,-3.12,-6.84,-3.13,3.13,4.09,2.74,-3.71,-3.71,-3.71
59.16,-6.71,-2.97,-6.71,-2.97,2.97,3.98,2.59,-3.74,-3.74,-3.73
59.76,-6.58,-2.82,-6.58,-2.81,2.81,3.87,2.43,-3.77,-3.77,-3.75
60.35,-6.46,-2.67,-6.45,-2.66,2.66,3.75,2.29,-3.80,-3.80,-3.78
60.96,-6.33,-2.51,-6.33,-2.50,2.50,3.64,2.15,-3.83,-3.83,-3.81
61.57,-6.21,-2.34,-6.21,-2.35,2.35,3.53,2.01,-3.85,-3.86,-3.86
62.18,-6.10,-2.19,-6.10,-2.21,2.21,3.43,1.89,-3.89,-3.89,-3.90
62.80,-5.99,-2.06,-5.99,-2.06,2.06,3.32,1.77,-3.93,-3.93,-3.92
63.43,-5.88,-1.90,-5.88,-1.92,1.92,3.21,1.65,-3.96,-3.97,-3.97
64.07,-5.79,-1.77,-5.78,-1.78,1.78,3.11,1.54,-4.01,-4.00,-4.01
64.71,-5.69,-1.64,-5.68,-1.64,1.64,3.01,1.44,-4.05,-4.04,-4.04
65.35,-5.60,-1.51,-5.59,-1.51,1.51,2.90,1.34,-4.09,-4.08,-4.08
66.01,-5.50,-1.37,-5.49,-1.37,1.37,2.80,1.25,-4.12,-4.12,-4.12
66.67,-5.41,-1.25,-5.40,-1.25,1.25,2.70,1.16,-4.16,-4.16,-4.15
67.33,-5.32,-1.12,-5.32,-1.12,1.12,2.60,1.08,-4.20,-4.20,-4.19
68.01,-5.24,-1.00,-5.24,-1.00,1.00,2.51,1.01,-4.24,-4.24,-4.23
68.69,-5.16,-0.88,-5.16,-0.88,0.88,2.41,0.93,-4.28,-4.27,-4.27
69.37,-5.08,-0.76,-5.08,-0.77,0.77,2.31,0.86,-4.31,-4.31,-4.31
70.07,-5.01,-0.65,-5.01,-0.65,0.65,2.22,0.80,-4.35,-4.35,-4.35
70.77,-4.94,-0.54,-4.94,-0.54,0.54,2.12,0.74,-4.39,-4.39,-4.39
71.48,-4.87,-0.44,-4.87,-0.44,0.44,2.03,0.68,-4.43,-4.43,-4.42
72.19,-4.80,-0.32,-4.81,-0.34,0.34,1.94,0.62,-4.46,-4.47,-4.47
72.91,-4.75,-0.24,-4.75,-0.24,0.24,1.85,0.57,-4.50,-4.50,-4.50
73.64,-4.69,-0.14,-4.69,-0.15,0.15,1.76,0.51,-4.53,-4.54,-4.54
74.38,-4.64,-0.06,-4.64,-0.07,0.07,1.67,0.46,-4.57,-4.58,-4.57
75.12,-4.59,0.03,-4.59,0.02,-0.02,1.58,0.41,-4.60,-4.61,-4.61
75.87,-4.54,0.11,-4.55,0.09,-0.09,1.50,0.36,-4.63,-4.64,-4.64
76.63,-4.50,0.18,-4.50,0.17,-0.17,1.41,0.31,-4.67,-4.67,-4.67
77.40,-4.47,0.24,-4.46,0.24,-0.24,1.33,0.26,-4.71,-4.70,-4.70
78.17,-4.43,0.31,-4.42,0.31,-0.31,1.24,0.21,-4.74,-4.73,-4.73
78.95,-4.39,0.38,-4.38,0.38,-0.38,1.16,0.16,-4.77,-4.76,-4.76
79.74,-4.36,0.43,-4.34,0.44,-0.44,1.08,0.11,-4.80,-4.79,-4.78
80.54,-4.32,0.49,-4.31,0.51,-0.51,1.00,0.06,-4.82,-4.81,-4.80
81.35,-4.28,0.56,-4.27,0.57,-0.57,0.92,0.01,-4.84,-4.83,-4.83
82.16,-4.24,0.63,-4.24,0.62,-0.62,0.84,-0.05,-4.86,-4.86,-4.86
82.98,-4.21,0.67,-4.20,0.68,-0.68,0.76,-0.10,-4.88,-4.88,-4.87
83.81,-4.17,0.74,-4.17,0.73,-0.73,0.68,-0.16,-4.90,-4.90,-4.90
84.65,-4.13,0.81,-4.14,0.78,-0.78,0.61,-0.21,-4.91,-4.92,-4.93
85.50,-4.10,0.85,-4.11,0.83,-0.83,0.53,-0.27,-4.93,-4.94,-4.94
86.35,-4.07,0.90,-4.08,0.88,-0.88,0.46,-0.33,-4.95,-4.96,-4.96
87.22,-4.05,0.94,-4.06,0.93,-0.93,0.38,-0.39,-4.97,-4.98,-4.98
88.09,-4.04,0.97,-4.03,0.97,-0.97,0.31,-0.46,-5.01,-5.00,-5.00
88.97,-4.02,1.01,-4.00,1.02,-1.02,0.24,-0.52,-5.04,-5.02,-5.02
89.86,-3.99,1.05,-3.98,1.06,-1.06,0.17,-0.59,-5.05,-5.04,-5.03
90.76,-3.97,1.10,-3.95,1.11,-1.11,0.10,-0.66,-5.07,-5.06,-5.06
91.66,-3.93,1.16,-3.93,1.15,-1.15,0.03,-0.73,-5.08,-5.08,-5.08
92.58,-3.90,1.21,-3.90,1.20,-1.20,-0.04,-0.80,-5.10,-5.10,-5.10
93.51,-3.87,1.25,-3.87,1.25,-1.25,-0.11,-0.87,-5.11,-5.12,-5.11
94.44,-3.85,1.29,-3.84,1.30,-1.30,-0.18,-0.95,-5.14,-5.14,-5.13
95.39,-3.82,1.34,-3.81,1.35,-1.35,-0.24,-1.02,-5.17,-5.16,-5.15
96.34,-3.79,1.40,-3.78,1.40,-1.40,-0.31,-1.10,-5.19,-5.19,-5.18
97.30,-3.77,1.45,-3.75,1.46,-1.46,-0.37,-1.18,-5.23,-5.21,-5.21
98.28,-3.74,1.51,-3.72,1.52,-1.52,-0.44,-1.26,-5.25,-5.24,-5.24
99.26,-3.70,1.57,-3.69,1.57,-1.57,-0.50,-1.34,-5.27,-5.26,-5.26
100.25,-3.67,1.63,-3.66,1.63,-1.63,-0.56,-1.42,-5.30,-5.29,-5.29
101.25,-3.64,1.69,-3.64,1.68,-1.68,-0.62,-1.51,-5.32,-5.32,-5.32
102.27,-3.62,1.75,-3.62,1.73,-1.73,-0.68,-1.59,-5.35,-5.36,-5.36
103.29,-3.61,1.79,-3.61,1.78,-1.78,-0.74,-1.67,-5.39,-5.39,-5.39
104.32,-3.59,1.84,-3.60,1.83,-1.83,-0.80,-1.76,-5.41,-5.43,-5.42
105.37,-3.58,1.89,-3.60,1.87,-1.87,-0.86,-1.84,-5.45,-5.47,-5.46
106.42,-3.57,1.95,-3.61,1.91,-1.91,-0.92,-1.92,-5.47,-5.51,-5.51
107.48,-3.59,1.96,-3.61,1.94,-1.94,-0.97,-2.01,-5.53,-5.56,-5.54
108.56,-3.62,1.99,-3.63,1.98,-1.98,-1.03,-2.09,-5.59,-5.60,-5.60
109.64,-3.65,2.01,-3.65,2.01,-2.01,-1.08,-2.17,-5.65,-5.66,-5.65
110.74,-3.68,2.03,-3.67,2.04,-2.04,-1.14,-2.25,-5.71,-5.71,-5.70
111.85,-3.72,2.04,-3.70,2.06,-2.06,-1.19,-2.32,-5.78,-5.76,-5.75
112.97,-3.75,2.08,-3.73,2.09,-2.09,-1.25,-2.39,-5.84,-5.82,-5.82
114.10,-3.79,2.09,-3.76,2.12,-2.12,-1.30,-2.47,-5.90,-5.88,-5.87
115.24,-3.81,2.13,-3.79,2.14,-2.14,-1.35,-2.53,-5.95,-5.94,-5.93
116.39,-3.83,2.18,-3.82,2.17,-2.17,-1.40,-2.60,-6.00,-6.00,-6.00
117.55,-3.86,2.21,-3.85,2.20,-2.20,-1.45,-2.66,-6.06,-6.05,-6.06
118.73,-3.88,2.25,-3.89,2.23,-2.23,-1.50,-2.71,-6.10,-6.11,-6.12
119.92,-3.92,2.26,-3.91,2.26,-2.26,-1.55,-2.76,-6.17,-6.17,-6.17
121.12,-3.95,2.29,-3.94,2.28,-2.28,-1.60,-2.81,-6.23,-6.23,-6.23
122.33,-3.97,2.32,-3.97,2.31,-2.31,-1.65,-2.85,-6.28,-6.28,-6.28
123.55,-4.00,2.34,-4.00,2.34,-2.34,-1.69,-2.89,-6.33,-6.34,-6.33
124.79,-4.03,2.36,-4.03,2.36,-2.36,-1.74,-2.92,-6.39,-6.39,-6.38
126.03,-4.05,2.39,-4.06,2.38,-2.38,-1.78,-2.95,-6.43,-6.44,-6.43
127.29,-4.07,2.42,-4.08,2.40,-2.40,-1.83,-2.97,-6.47,-6.49,-6.48
128.57,-4.10,2.45,-4.11,2.42,-2.42,-1.87,-2.99,-6.52,-6.54,-6.54
129.85,-4.14,2.45,-4.14,2.45,-2.45,-1.92,-3.00,-6.58,-6.58,-6.58
131.15,-4.18,2.46,-4.16,2.47,-2.47,-1.96,-3.01,-6.64,-6.63,-6.63
132.46,-4.20,2.48,-4.18,2.49,-2.49,-2.00,-3.01,-6.69,-6.67,-6.67
133.79,-4.23,2.49,-4.20,2.52,-2.52,-2.04,-3.01,-6.74,-6.71,-6.71
135.12,-4.24,2.52,-4.22,2.54,-2.54,-2.08,-3.01,-6.78,-6.76,-6.75
136.48,-4.25,2.55,-4.23,2.56,-2.56,-2.12,-3.00,-6.81,-6.80,-6.79
137.84,-4.26,2.58,-4.25,2.58,-2.58,-2.16,-2.99,-6.84,-6.84,-6.83
139.22,-4.27,2.62,-4.27,2.61,-2.61,-2.20,-2.97,-6.87,-6.87,-6.88
140.61,-4.27,2.66,-4.29,2.62,-2.62,-2.24,-2.95,-6.89,-6.91,-6.92
142.02,-4.29,2.66,-4.31,2.64,-2.64,-2.28,-2.93,-6.93,-6.95,-6.94
143.44,-4.30,2.69,-4.33,2.66,-2.66,-2.32,-2.91,-6.96,-6.99,-6.98
144.87,-4.33,2.70,-4.35,2.67,-2.67,-2.35,-2.89,-7.00,-7.02,-7.02
146.32,-4.35,2.72,-4.37,2.69,-2.69,-2.39,-2.87,-7.04,-7.06,-7.06
147.78,-4.39,2.71,-4.40,2.70,-2.70,-2.43,-2.84,-7.09,-7.10,-7.09
149.26,-4.42,2.71,-4.42,2.72,-2.72,-2.46,-2.82,-7.13,-7.14,-7.12
150.75,-4.46,2.73,-4.45,2.73,-2.73,-2.50,-2.80,-7.19,-7.18,-7.18
152.26,-4.49,2.74,-4.47,2.75,-2.75,-2.53,-2.77,-7.24,-7.22,-7.22
153.78,-4.52,2.74,-4.49,2.77,-2.77,-2.56,-2.75,-7.28,-7.26,-7.25
155.32,-4.55,2.77,-4.52,2.79,-2.79,-2.60,-2.73,-7.34,-7.30,-7.31
156.88,-4.57,2.78,-4.54,2.81,-2.81,-2.63,-2.70,-7.38,-7.35,-7.34
158.44,-4.58,2.82,-4.55,2.84,-2.84,-2.66,-2.68,-7.42,-7.39,-7.39
160.03,-4.59,2.86,-4.57,2.87,-2.87,-2.69,-2.66,-7.45,-7.44,-7.44
161.63,-4.59,2.91,-4.59,2.90,-2.90,-2.72,-2.64,-7.48,-7.48,-7.49
163.24,-4.59,2.95,-4.60,2.93,-2.93,-2.75,-2.63,-7.52,-7.53,-7.53
164.88,-4.59,2.99,-4.61,2.96,-2.96,-2.78,-2.61,-7.55,-7.58,-7.57
166.53,-4.61,3.02,-4.63,3.00,-3.00,-2.81,-2.60,-7.60,-7.63,-7.62
168.19,-4.62,3.06,-4.65,3.03,-3.03,-2.84,-2.59,-7.64,-7.67,-7.67
169.87,-4.66,3.07,-4.66,3.06,-3.06,-2.87,-2.58,-7.72,-7.72,-7.72
171.57,-4.68,3.09,-4.69,3.09,-3.09,-2.89,-2.57,-7.77,-7.77,-7.76
173.29,-4.71,3.12,-4.71,3.12,-3.12,-2.92,-2.57,-7.82,-7.83,-7.82
175.02,-4.75,3.13,-4.74,3.14,-3.14,-2.95,-2.57,-7.89,-7.88,-7.87
176.77,-4.78,3.16,-4.77,3.16,-3.16,-2.97,-2.57,-7.94,-7.93,-7.93
178.54,-4.80,3.19,-4.80,3.19,-3.19,-3.00,-2.57,-7.98,-7.99,-7.98
180.32,-4.83,3.22,-4.83,3.21,-3.21,-3.02,-2.57,-8.03,-8.04,-8.04
182.13,-4.86,3.24,-4.87,3.23,-3.23,-3.05,-2.58,-8.09,-8.10,-8.09
183.95,-4.91,3.25,-4.90,3.25,-3.25,-3.07,-2.59,-8.16,-8.15,-8.15
185.79,-4.95,3.26,-4.93,3.28,-3.28,-3.09,-2.60,-8.22,-8.21,-8.20
187.65,-4.97,3.31,-4.96,3.30,-3.30,-3.12,-2.61,-8.27,-8.26,-8.27
189.52,-5.01,3.32,-4.99,3.32,-3.32,-3.14,-2.63,-8.33,-8.32,-8.32
191.42,-5.03,3.35,-5.02,3.35,-3.35,-3.16,-2.64,-8.38,-8.37,-8.37
193.33,-5.06,3.37,-5.05,3.37,-3.37,-3.18,-2.66,-8.43,-8.43,-8.42
195.27,-5.09,3.39,-5.08,3.40,-3.40,-3.20,-2.68,-8.49,-8.48,-8.47
197.22,-5.11,3.43,-5.11,3.42,-3.42,-3.22,-2.71,-8.53,-8.53,-8.53
199.19,-5.14,3.45,-5.13,3.44,-3.44,-3.24,-2.73,-8.58,-8.58,-8.58
201.18,-5.16,3.48,-5.16,3.47,-3.47,-3.26,-2.76,-8.62,-8.63,-8.63
203.19,-5.18,3.49,-5.19,3.49,-3.49,-3.28,-2.78,-8.66,-8.67,-8.66
205.23,-5.21,3.52,-5.21,3.51,-3.51,-3.29,-2.81,-8.71,-8.72,-8.72
207.28,-5.23,3.52,-5.24,3.53,-3.53,-3.31,-2.84,-8.75,-8.76,-8.74
209.35,-5.26,3.55,-5.26,3.54,-3.54,-3.33,-2.87,-8.80,-8.80,-8.80
211.44,-5.29,3.57,-5.29,3.56,-3.56,-3.34,-2.90,-8.85,-8.85,-8.85
213.56,-5.32,3.58,-5.31,3.57,-3.57,-3.36,-2.93,-8.89,-8.88,-8.89
215.69,-5.35,3.57,-5.34,3.58,-3.58,-3.37,-2.96,-8.93,-8.92,-8.91
217.85,-5.38,3.58,-5.37,3.59,-3.59,-3.39,-2.99,-8.97,-8.96,-8.95
220.03,-5.40,3.60,-5.40,3.59,-3.59,-3.40,-3.02,-8.99,-8.99,-8.99
222.23,-5.42,3.61,-5.42,3.59,-3.59,-3.41,-3.05,-9.01,-9.02,-9.02
224.45,-5.45,3.60,-5.45,3.59,-3.59,-3.43,-3.08,-9.04,-9.05,-9.04
226.70,-5.48,3.60,-5.48,3.59,-3.59,-3.44,-3.11,-9.07,-9.07,-9.07
228.96,-5.51,3.60,-5.51,3.59,-3.59,-3.45,-3.14,-9.09,-9.09,-9.10
231.25,-5.53,3.59,-5.54,3.58,-3.58,-3.46,-3.17,-9.10,-9.11,-9.11
233.57,-5.57,3.57,-5.56,3.56,-3.56,-3.46,-3.19,-9.13,-9.13,-9.13
235.90,-5.61,3.54,-5.59,3.55,-3.55,-3.47,-3.21,-9.16,-9.14,-9.14
238.26,-5.63,3.53,-5.62,3.53,-3.53,-3.48,-3.23,-9.16,-9.15,-9.15
240.64,-5.66,3.51,-5.65,3.52,-3.52,-3.48,-3.25,-9.17,-9.16,-9.16
243.05,-5.67,3.50,-5.68,3.49,-3.49,-3.49,-3.27,-9.16,-9.17,-9.16
245.48,-5.70,3.48,-5.70,3.47,-3.47,-3.49,-3.28,-9.16,-9.17,-9.17
247.93,-5.74,3.44,-5.73,3.44,-3.44,-3.49,-3.29,-9.18,-9.17,-9.17
250.41,-5.76,3.42,-5.76,3.41,-3.41,-3.50,-3.30,-9.17,-9.17,-9.17
252.92,-5.79,3.38,-5.79,3.38,-3.38,-3.50,-3.31,-9.16,-9.16,-9.16
255.45,-5.81,3.35,-5.81,3.34,-3.34,-3.49,-3.31,-9.15,-9.16,-9.15
258.00,-5.84,3.31,-5.84,3.31,-3.31,-3.49,-3.31,-9.14,-9.15,-9.14
260.58,-5.87,3.28,-5.87,3.27,-3.27,-3.49,-3.31,-9.14,-9.14,-9.14
263.19,-5.90,3.24,-5.90,3.23,-3.23,-3.48,-3.31,-9.13,-9.13,-9.13
265.82,-5.94,3.19,-5.93,3.19,-3.19,-3.47,-3.30,-9.13,-9.12,-9.12
268.48,-5.96,3.15,-5.96,3.15,-3.15,-3.46,-3.29,-9.11,-9.11,-9.10
271.16,-5.98,3.11,-5.98,3.11,-3.11,-3.45,-3.29,-9.08,-9.09,-9.08
273.87,-6.02,3.07,-6.01,3.07,-3.07,-3.43,-3.27,-9.08,-9.08,-9.08
276.61,-6.05,3.01,-6.04,3.03,-3.03,-3.42,-3.26,-9.07,-9.06,-9.05
279.38,-6.07,2.99,-6.07,2.98,-2.98,-3.40,-3.25,-9.05,-9.05,-9.05
282.17,-6.10,2.94,-6.09,2.95,-2.95,-3.38,-3.23,-9.04,-9.04,-9.03
284.99,-6.12,2.91,-6.12,2.91,-2.91,-3.35,-3.22,-9.02,-9.02,-9.02
287.84,-6.15,2.87,-6.14,2.87,-2.87,-3.32,-3.20,-9.01,-9.01,-9.01
290.72,-6.17,2.84,-6.17,2.83,-2.83,-3.29,-3.19,-9.00,-9.00,-9.00
293.63,-6.20,2.79,-6.19,2.79,-2.79,-3.26,-3.17,-8.99,-8.98,-8.98
296.57,-6.22,2.75,-6.22,2.75,-2.75,-3.22,-3.15,-8.97,-8.97,-8.96
299.53,-6.25,2.72,-6.24,2.72,-2.72,-3.18,-3.14,-8.96,-8.96,-8.96
302.53,-6.27,2.69,-6.27,2.68,-2.68,-3.13,-3.12,-8.94,-8.95,-8.95
305.55,-6.29,2.65,-6.29,2.64,-2.64,-3.08,-3.11,-8.93,-8.93,-8.93
308.61,-6.31,2.62,-6.32,2.60,-2.60,-3.03,-3.10,-8.91,-8.92,-8.92
311.69,-6.34,2.58,-6.35,2.56,-2.56,-2.97,-3.09,-8.90,-8.91,-8.91
314.81,-6.37,2.52,-6.38,2.52,-2.52,-2.90,-3.08,-8.89,-8.90,-8.88
317.96,-6.40,2.50,-6.41,2.49,-2.49,-2.83,-3.07,-8.88,-8.89,-8.89
321.14,-6.43,2.46,-6.43,2.45,-2.45,-2.76,-3.06,-8.88,-8.89,-8.88
324.35,-6.46,2.43,-6.46,2.42,-2.42,-2.68,-3.05,-8.88,-8.88,-8.88
327.59,-6.50,2.38,-6.48,2.40,-2.40,-2.60,-3.05,-8.89,-8.87,-8.87
330.87,-6.52,2.36,-6.49,2.38,-2.38,-2.52,-3.05,-8.89,-8.87,-8.87
334.18,-6.54,2.34,-6.51,2.36,-2.36,-2.44,-3.05,-8.89,-8.87,-8.87
337.52,-6.55,2.32,-6.52,2.34,-2.34,-2.36,-3.05,-8.89,-8.86,-8.86
340.90,-6.56,2.31,-6.53,2.33,-2.33,-2.27,-3.05,-8.89,-8.86,-8.86
344.30,-6.55,2.32,-6.54,2.32,-2.32,-2.20,-3.06,-8.87,-8.86,-8.86
347.75,-6.54,2.33,-6.55,2.32,-2.32,-2.12,-3.07,-8.86,-8.87,-8.86
351.23,-6.53,2.34,-6.55,2.32,-2.32,-2.06,-3.08,-8.85,-8.87,-8.86
354.74,-6.53,2.34,-6.55,2.32,-2.32,-2.01,-3.09,-8.85,-8.87,-8.86
358.28,-6.53,2.36,-6.55,2.32,-2.32,-1.97,-3.10,-8.85,-8.88,-8.88
361.87,-6.53,2.36,-6.55,2.33,-2.33,-1.95,-3.12,-8.85,-8.88,-8.88
365.49,-6.54,2.35,-6.55,2.33,-2.33,-1.94,-3.14,-8.87,-8.89,-8.88
369.14,-6.55,2.35,-6.55,2.34,-2.34,-1.95,-3.16,-8.89,-8.89,-8.89
372.83,-6.55,2.35,-6.55,2.35,-2.35,-1.98,-3.18,-8.90,-8.90,-8.89
376.56,-6.56,2.35,-6.55,2.36,-2.36,-2.03,-3.21,-8.92,-8.91,-8.90
380.33,-6.55,2.37,-6.54,2.37,-2.37,-2.10,-3.24,-8.92,-8.91,-8.91
384.13,-6.54,2.39,-6.53,2.39,-2.39,-2.18,-3.27,-8.92,-8.92,-8.92
387.97,-6.53,2.41,-6.52,2.41,-2.41,-2.27,-3.30,-8.93,-8.93,-8.93
391.85,-6.52,2.43,-6.50,2.43,-2.43,-2.38,-3.33,-8.95,-8.93,-8.94
395.77,-6.50,2.44,-6.48,2.46,-2.46,-2.49,-3.37,-8.96,-8.94,-8.93
399.73,-6.46,2.49,-6.45,2.50,-2.50,-2.61,-3.40,-8.95,-8.95,-8.94
