frequency,raw,error,smoothed,error_smoothed,equalization,parametric_eq,fixed_band_eq,equalized_raw,equalized_smoothed,target
20.00,-6.69,-11.01,-6.69,-11.04,11.04,10.48,4.23,4.36,4.35,4.32
20.20,-6.63,-11.00,-6.63,-11.02,11.02,10.51,4.34,4.39,4.39,4.37
20.40,-6.58,-11.00,-6.57,-10.99,10.99,10.55,4.45,4.42,4.43,4.42
20.61,-6.52,-10.97,-6.51,-10.97,10.97,10.57,4.57,4.45,4.46,4.45
20.81,-6.46,-10.96,-6.45,-10.93,10.93,10.60,4.70,4.48,4.49,4.50
21.02,-6.40,-10.94,-6.38,-10.90,10.90,10.62,4.82,4.50,4.52,4.54
21.23,-6.33,-10.89,-6.32,-10.86,10.86,10.63,4.95,4.53,4.54,4.56
21.44,-6.26,-10.84,-6.25,-10.82,10.82,10.63,5.09,4.56,4.57,4.58
21.66,-6.18,-10.78,-6.19,-10.78,10.78,10.64,5.22,4.60,4.59,4.60
21.87,-6.11,-10.72,-6.13,-10.73,10.73,10.63,5.36,4.62,4.60,4.61
22.09,-6.04,-10.67,-6.06,-10.68,10.68,10.62,5.51,4.64,4.62,4.63
22.31,-5.97,-10.61,-5.99,-10.63,10.63,10.61,5.66,4.66,4.63,4.64
22.54,-5.90,-10.54,-5.93,-10.57,10.57,10.59,5.81,4.67,4.64,4.64
22.76,-5.82,-10.46,-5.87,-10.51,10.51,10.57,5.97,4.69,4.64,4.64
22.99,-5.75,-10.38,-5.80,-10.44,10.44,10.54,6.13,4.69,4.65,4.63
23.22,-5.72,-10.35,-5.73,-10.37,10.37,10.51,6.29,4.65,4.65,4.63
23.45,-5.69,-10.32,-5.65,-10.30,10.30,10.47,6.46,4.61,4.65,4.63
23.69,-5.65,-10.29,-5.58,-10.23,10.23,10.43,6.63,4.58,4.65,4.64
23.92,-5.62,-10.26,-5.51,-10.16,10.16,10.39,6.81,4.54,4.65,4.64
24.16,-5.53,-10.17,-5.44,-10.09,10.09,10.34,6.99,4.56,4.65,4.64
24.40,-5.40,-10.05,-5.37,-10.02,10.02,10.28,7.17,4.62,4.65,4.65
24.65,-5.28,-9.92,-5.30,-9.95,9.95,10.23,7.36,4.67,4.64,4.64
24.89,-5.15,-9.79,-5.23,-9.88,9.88,10.17,7.55,4.73,4.65,4.64
25.14,-5.08,-9.72,-5.17,-9.81,9.81,10.11,7.75,4.74,4.65,4.64
25.39,-5.04,-9.69,-5.10,-9.75,9.75,10.04,7.94,4.71,4.65,4.65
25.65,-5.00,-9.65,-5.04,-9.69,9.69,9.98,8.14,4.69,4.65,4.65
25.91,-4.96,-9.60,-4.97,-9.62,9.62,9.91,8.34,4.66,4.65,4.64
26.16,-4.92,-9.56,-4.91,-9.55,9.55,9.84,8.54,4.63,4.65,4.64
26.43,-4.86,-9.50,-4.84,-9.48,9.48,9.76,8.74,4.62,4.64,4.64
26.69,-4.81,-9.45,-4.78,-9.42,9.42,9.69,8.95,4.61,4.64,4.64
26.96,-4.76,-9.40,-4.71,-9.35,9.35,9.61,9.15,4.59,4.64,4.64
27.23,-4.69,-9.33,-4.65,-9.29,9.29,9.54,9.34,4.60,4.64,4.64
27.50,-4.62,-9.26,-4.58,-9.22,9.22,9.46,9.54,4.60,4.64,4.64
27.77,-4.56,-9.19,-4.51,-9.15,9.15,9.38,9.73,4.59,4.64,4.63
28.05,-4.48,-9.11,-4.44,-9.07,9.07,9.30,9.91,4.59,4.63,4.63
28.33,-4.38,-9.00,-4.36,-8.99,8.99,9.22,10.09,4.61,4.63,4.62
28.62,-4.27,-8.89,-4.28,-8.91,8.91,9.14,10.26,4.64,4.63,4.62
28.90,-4.17,-8.80,-4.21,-8.84,8.84,9.06,10.42,4.67,4.63,4.63
29.19,-4.10,-8.72,-4.15,-8.78,8.78,8.98,10.56,4.68,4.63,4.62
29.48,-4.04,-8.67,-4.10,-8.72,8.72,8.90,10.69,4.68,4.63,4.63
29.78,-3.99,-8.61,-4.05,-8.67,8.67,8.82,10.81,4.69,4.63,4.62
30.08,-3.95,-8.58,-4.01,-8.63,8.63,8.74,10.91,4.68,4.62,4.63
30.38,-3.93,-8.55,-3.97,-8.60,8.60,8.67,10.99,4.67,4.62,4.62
30.68,-3.91,-8.53,-3.94,-8.56,8.56,8.59,11.05,4.65,4.62,4.62
30.99,-3.89,-8.51,-3.90,-8.52,8.52,8.51,11.09,4.63,4.62,4.62
31.30,-3.89,-8.50,-3.85,-8.47,8.47,8.44,11.11,4.58,4.62,4.61
31.61,-3.90,-8.51,-3.81,-8.43,8.43,8.36,11.11,4.53,4.61,4.61
31.93,-3.90,-8.51,-3.78,-8.39,8.39,8.29,11.09,4.49,4.61,4.61
32.24,-3.85,-8.45,-3.74,-8.35,8.35,8.21,11.05,4.50,4.61,4.60
32.57,-3.77,-8.37,-3.70,-8.31,8.31,8.14,10.99,4.54,4.60,4.60
32.89,-3.70,-8.30,-3.66,-8.26,8.26,8.07,10.92,4.56,4.60,4.60
33.22,-3.60,-8.19,-3.62,-8.22,8.22,8.00,10.83,4.62,4.59,4.59
33.55,-3.48,-8.07,-3.58,-8.17,8.17,7.94,10.72,4.70,4.59,4.59
33.89,-3.37,-7.95,-3.54,-8.13,8.13,7.87,10.61,4.76,4.58,4.58
34.23,-3.37,-7.95,-3.50,-8.08,8.08,7.81,10.48,4.71,4.58,4.58
34.57,-3.42,-7.99,-3.46,-8.04,8.04,7.75,10.34,4.62,4.58,4.57
34.92,-3.48,-8.05,-3.42,-7.99,7.99,7.69,10.20,4.51,4.57,4.57
35.27,-3.46,-8.02,-3.38,-7.95,7.95,7.63,10.05,4.49,4.57,4.56
35.62,-3.41,-7.97,-3.35,-7.91,7.91,7.57,9.89,4.50,4.57,4.56
35.97,-3.36,-7.92,-3.32,-7.88,7.88,7.52,9.73,4.52,4.56,4.56
36.33,-3.32,-7.88,-3.29,-7.85,7.85,7.46,9.57,4.53,4.56,4.56
36.70,-3.28,-7.83,-3.26,-7.82,7.82,7.41,9.41,4.54,4.56,4.55
37.06,-3.24,-7.79,-3.23,-7.79,7.79,7.36,9.25,4.55,4.56,4.55
37.43,-3.18,-7.74,-3.19,-7.75,7.75,7.32,9.09,4.58,4.56,4.56
37.81,-3.12,-7.68,-3.15,-7.71,7.71,7.27,8.93,4.59,4.56,4.56
38.19,-3.08,-7.63,-3.10,-7.66,7.66,7.23,8.78,4.58,4.56,4.55
38.57,-3.06,-7.62,-3.05,-7.61,7.61,7.19,8.63,4.55,4.56,4.56
38.95,-3.04,-7.61,-3.00,-7.56,7.56,7.15,8.48,4.52,4.56,4.57
39.34,-2.97,-7.53,-2.94,-7.51,7.51,7.11,8.33,4.54,4.56,4.56
39.74,-2.88,-7.44,-2.89,-7.46,7.46,7.08,8.19,4.58,4.56,4.56
40.14,-2.82,-7.38,-2.85,-7.41,7.41,7.05,8.05,4.59,4.56,4.56
40.54,-2.79,-7.35,-2.80,-7.36,7.36,7.01,7.92,4.58,4.56,4.56
40.94,-2.75,-7.30,-2.77,-7.32,7.32,6.99,7.79,4.58,4.56,4.55
41.35,-2.75,-7.30,-2.74,-7.29,7.29,6.96,7.67,4.54,4.55,4.55
41.76,-2.74,-7.28,-2.72,-7.26,7.26,6.93,7.55,4.52,4.54,4.54
42.18,-2.70,-7.24,-2.70,-7.24,7.24,6.91,7.44,4.54,4.54,4.54
42.60,-2.61,-7.14,-2.67,-7.20,7.20,6.89,7.33,4.59,4.53,4.53
43.03,-2.52,-7.04,-2.63,-7.15,7.15,6.87,7.23,4.63,4.51,4.52
43.46,-2.58,-7.09,-2.61,-7.12,7.12,6.85,7.13,4.54,4.50,4.51
43.90,-2.63,-7.12,-2.61,-7.10,7.10,6.84,7.04,4.47,4.49,4.49
44.33,-2.64,-7.11,-2.58,-7.06,7.06,6.82,6.95,4.43,4.48,4.47
44.78,-2.64,-7.09,-2.55,-7.02,7.02,6.81,6.87,4.38,4.47,4.45
45.23,-2.62,-7.06,-2.52,-6.97,6.97,6.79,6.79,4.36,4.45,4.44
45.68,-2.57,-7.00,-2.50,-6.94,6.94,6.78,6.72,4.37,4.44,4.43
46.13,-2.49,-6.90,-2.47,-6.89,6.89,6.77,6.66,4.40,4.42,4.41
46.60,-2.34,-6.75,-2.42,-6.83,6.83,6.76,6.59,4.49,4.41,4.41
47.06,-2.22,-6.61,-2.38,-6.77,6.77,6.75,6.54,4.55,4.39,4.39
47.53,-2.35,-6.73,-2.34,-6.72,6.72,6.74,6.48,4.37,4.38,4.38
48.01,-2.48,-6.86,-2.29,-6.66,6.66,6.73,6.43,4.18,4.37,4.38
48.49,-2.24,-6.60,-2.24,-6.59,6.59,6.72,6.39,4.35,4.35,4.36
48.97,-2.01,-6.35,-2.18,-6.52,6.52,6.71,6.35,4.51,4.34,4.34
49.46,-2.13,-6.45,-2.13,-6.46,6.46,6.70,6.31,4.33,4.33,4.32
49.96,-2.26,-6.56,-2.07,-6.39,6.39,6.69,6.28,4.13,4.31,4.30
50.46,-2.05,-6.34,-2.03,-6.33,6.33,6.67,6.25,4.28,4.30,4.29
50.96,-1.82,-6.10,-1.99,-6.28,6.28,6.66,6.22,4.46,4.29,4.28
51.47,-1.89,-6.15,-1.97,-6.24,6.24,6.64,6.20,4.35,4.27,4.26
51.99,-2.00,-6.25,-1.95,-6.21,6.21,6.62,6.18,4.21,4.26,4.25
52.51,-1.95,-6.19,-1.91,-6.16,6.16,6.60,6.16,4.21,4.25,4.24
53.03,-1.90,-6.14,-1.86,-6.09,6.09,6.58,6.14,4.20,4.23,4.24
53.56,-1.80,-6.02,-1.82,-6.04,6.04,6.55,6.12,4.24,4.22,4.22
54.10,-1.71,-5.92,-1.80,-6.01,6.01,6.52,6.10,4.30,4.21,4.21
54.64,-1.73,-5.92,-1.76,-5.96,5.96,6.48,6.09,4.24,4.20,4.19
55.18,-1.77,-5.96,-1.72,-5.91,5.91,6.45,6.07,4.14,4.19,4.19
55.74,-1.84,-6.01,-1.68,-5.86,5.86,6.41,6.06,4.03,4.18,4.17
56.29,-1.81,-5.97,-1.67,-5.83,5.83,6.36,6.04,4.03,4.17,4.16
56.86,-1.67,-5.82,-1.64,-5.79,5.79,6.31,6.02,4.12,4.15,4.15
57.42,-1.54,-5.66,-1.60,-5.73,5.73,6.26,6.00,4.20,4.14,4.12
58.00,-1.40,-5.51,-1.56,-5.68,5.68,6.21,5.98,4.28,4.12,4.11
58.58,-1.48,-5.58,-1.54,-5.63,5.63,6.15,5.96,4.15,4.09,4.10
59.16,-1.54,-5.62,-1.53,-5.60,5.60,6.09,5.93,4.06,4.07,4.08
59.76,-1.54,-5.60,-1.53,-5.57,5.57,6.02,5.90,4.03,4.04,4.06
60.35,-1.54,-5.56,-1.53,-5.54,5.54,5.95,5.86,4.00,4.01,4.02
60.96,-1.54,-5.52,-1.53,-5.51,5.51,5.88,5.82,3.97,3.98,3.98
61.57,-1.54,-5.48,-1.54,-5.48,5.48,5.80,5.78,3.94,3.94,3.94
62.18,-1.54,-5.44,-1.57,-5.47,5.47,5.72,5.73,3.93,3.90,3.90
62.80,-1.54,-5.39,-1.61,-5.47,5.47,5.64,5.68,3.93,3.86,3.85
63.43,-1.61,-5.42,-1.66,-5.48,5.48,5.55,5.63,3.87,3.82,3.81
64.07,-1.71,-5.47,-1.72,-5.49,5.49,5.47,5.57,3.78,3.77,3.76
64.71,-1.82,-5.54,-1.77,-5.50,5.50,5.38,5.50,3.68,3.73,3.72
65.35,-1.87,-5.55,-1.83,-5.51,5.51,5.29,5.43,3.64,3.68,3.68
66.01,-1.87,-5.50,-1.89,-5.53,5.53,5.20,5.36,3.66,3.64,3.63
66.67,-1.88,-5.46,-1.95,-5.53,5.53,5.11,5.28,3.65,3.59,3.58
67.33,-1.95,-5.48,-1.99,-5.53,5.53,5.01,5.20,3.58,3.54,3.53
68.01,-2.07,-5.56,-2.03,-5.52,5.52,4.92,5.12,3.46,3.49,3.49
68.69,-2.05,-5.49,-2.05,-5.49,5.49,4.82,5.03,3.44,3.44,3.44
69.37,-2.08,-5.47,-2.05,-5.44,5.44,4.73,4.94,3.36,3.39,3.39
70.07,-2.14,-5.48,-2.05,-5.38,5.38,4.63,4.85,3.25,3.34,3.34
70.77,-2.14,-5.43,-2.02,-5.31,5.31,4.54,4.75,3.17,3.28,3.29
71.48,-2.15,-5.39,-1.99,-5.22,5.22,4.45,4.66,3.07,3.23,3.24
72.19,-2.10,-5.27,-1.94,-5.12,5.12,4.35,4.56,3.02,3.17,3.17
72.91,-1.82,-4.93,-1.89,-5.01,5.01,4.26,4.46,3.19,3.12,3.11
73.64,-1.72,-4.78,-1.83,-4.90,4.90,4.17,4.36,3.18,3.06,3.06
74.38,-1.68,-4.68,-1.77,-4.77,4.77,4.07,4.27,3.10,3.01,3.00
75.12,-1.65,-4.59,-1.70,-4.65,4.65,3.98,4.17,3.00,2.95,2.94
75.87,-1.44,-4.32,-1.62,-4.52,4.52,3.89,4.07,3.08,2.89,2.88
76.63,-1.56,-4.39,-1.54,-4.38,4.38,3.81,3.97,2.82,2.84,2.83
77.40,-1.55,-4.33,-1.45,-4.23,4.23,3.72,3.87,2.69,2.78,2.78
78.17,-1.38,-4.10,-1.36,-4.10,4.10,3.63,3.78,2.72,2.73,2.72
78.95,-1.35,-4.03,-1.30,-3.98,3.98,3.55,3.68,2.63,2.68,2.68
79.74,-1.26,-3.89,-1.24,-3.87,3.87,3.46,3.59,2.62,2.63,2.63
80.54,-1.22,-3.80,-1.20,-3.78,3.78,3.38,3.50,2.56,2.58,2.58
81.35,-1.19,-3.72,-1.17,-3.70,3.70,3.30,3.41,2.51,2.54,2.53
82.16,-1.12,-3.60,-1.12,-3.61,3.61,3.22,3.32,2.49,2.49,2.48
82.98,-1.04,-3.48,-1.07,-3.51,3.51,3.15,3.23,2.47,2.44,2.44
83.81,-0.84,-3.23,-1.01,-3.41,3.41,3.07,3.14,2.57,2.39,2.39
84.65,-0.84,-3.18,-0.97,-3.31,3.31,2.99,3.06,2.47,2.34,2.34
85.50,-0.95,-3.25,-0.92,-3.22,3.22,2.92,2.98,2.27,2.30,2.30
86.35,-1.05,-3.30,-0.89,-3.14,3.14,2.85,2.90,2.09,2.25,2.25
87.22,-1.02,-3.22,-0.87,-3.06,3.06,2.78,2.82,2.05,2.20,2.20
88.09,-0.83,-2.98,-0.84,-2.99,2.99,2.71,2.75,2.16,2.15,2.15
88.97,-0.83,-2.92,-0.83,-2.92,2.92,2.64,2.67,2.09,2.10,2.09
89.86,-0.78,-2.82,-0.80,-2.84,2.84,2.58,2.60,2.06,2.04,2.04
90.76,-0.63,-2.62,-0.77,-2.76,2.76,2.51,2.53,2.13,1.99,1.99
91.66,-0.66,-2.60,-0.74,-2.68,2.68,2.45,2.46,2.02,1.94,1.94
92.58,-0.74,-2.62,-0.71,-2.60,2.60,2.39,2.39,1.87,1.89,1.88
93.51,-0.82,-2.65,-0.68,-2.53,2.53,2.33,2.33,1.71,1.84,1.83
94.44,-0.77,-2.56,-0.66,-2.45,2.45,2.27,2.27,1.68,1.79,1.79
95.39,-0.64,-2.38,-0.63,-2.37,2.37,2.21,2.20,1.73,1.74,1.74
96.34,-0.63,-2.32,-0.61,-2.31,2.31,2.15,2.14,1.68,1.69,1.69
97.30,-0.61,-2.25,-0.61,-2.25,2.25,2.09,2.09,1.65,1.64,1.64
98.28,-0.51,-2.10,-0.61,-2.21,2.21,2.04,2.03,1.70,1.60,1.59
99.26,-0.44,-1.99,-0.60,-2.15,2.15,1.99,1.97,1.71,1.55,1.55
100.25,-0.54,-2.04,-0.61,-2.11,2.11,1.93,1.92,1.58,1.50,1.50
101.25,-0.59,-2.04,-0.62,-2.07,2.07,1.88,1.87,1.49,1.45,1.45
102.27,-0.62,-2.02,-0.61,-2.02,2.02,1.83,1.82,1.40,1.40,1.40
103.29,-0.71,-2.06,-0.60,-1.95,1.95,1.78,1.77,1.25,1.36,1.35
104.32,-0.74,-2.05,-0.59,-1.90,1.90,1.73,1.72,1.16,1.31,1.31
105.37,-0.65,-1.91,-0.60,-1.85,1.85,1.68,1.67,1.21,1.26,1.26
106.42,-0.58,-1.79,-0.60,-1.81,1.81,1.64,1.63,1.23,1.20,1.21
107.48,-0.61,-1.76,-0.60,-1.76,1.76,1.59,1.58,1.15,1.15,1.15
108.56,-0.63,-1.73,-0.62,-1.72,1.72,1.54,1.54,1.09,1.10,1.10
109.64,-0.65,-1.70,-0.63,-1.68,1.68,1.50,1.50,1.03,1.05,1.05
110.74,-0.67,-1.66,-0.63,-1.62,1.62,1.46,1.46,0.96,1.00,0.99
111.85,-0.48,-1.43,-0.62,-1.56,1.56,1.41,1.42,1.08,0.95,0.95
112.97,-0.46,-1.35,-0.61,-1.50,1.50,1.37,1.38,1.04,0.90,0.89
114.10,-0.56,-1.40,-0.59,-1.44,1.44,1.33,1.34,0.88,0.85,0.84
115.24,-0.61,-1.40,-0.58,-1.38,1.38,1.29,1.30,0.77,0.80,0.79
116.39,-0.61,-1.35,-0.57,-1.33,1.33,1.24,1.26,0.72,0.75,0.74
117.55,-0.62,-1.32,-0.57,-1.28,1.28,1.20,1.22,0.66,0.71,0.70
118.73,-0.70,-1.36,-0.56,-1.23,1.23,1.16,1.19,0.54,0.67,0.66
119.92,-0.68,-1.31,-0.55,-1.18,1.18,1.13,1.15,0.50,0.63,0.63
121.12,-0.48,-1.07,-0.53,-1.13,1.13,1.09,1.11,0.65,0.60,0.59
122.33,-0.47,-1.03,-0.52,-1.08,1.08,1.05,1.08,0.62,0.56,0.56
123.55,-0.47,-1.00,-0.51,-1.04,1.04,1.01,1.04,0.57,0.53,0.53
124.79,-0.46,-0.96,-0.50,-1.00,1.00,0.97,1.01,0.54,0.50,0.50
126.03,-0.45,-0.92,-0.48,-0.95,0.95,0.93,0.98,0.50,0.47,0.47
127.29,-0.45,-0.90,-0.46,-0.90,0.90,0.90,0.94,0.45,0.44,0.45
128.57,-0.44,-0.85,-0.44,-0.85,0.85,0.86,0.91,0.41,0.41,0.41
129.85,-0.43,-0.81,-0.44,-0.82,0.82,0.82,0.87,0.39,0.38,0.38
131.15,-0.43,-0.78,-0.43,-0.79,0.79,0.78,0.84,0.36,0.35,0.35
132.46,-0.42,-0.74,-0.43,-0.75,0.75,0.75,0.81,0.34,0.33,0.32
133.79,-0.42,-0.71,-0.43,-0.73,0.73,0.71,0.77,0.31,0.30,0.29
135.12,-0.42,-0.68,-0.43,-0.70,0.70,0.67,0.74,0.29,0.27,0.26
136.48,-0.41,-0.65,-0.42,-0.66,0.66,0.64,0.71,0.26,0.24,0.24
137.84,-0.41,-0.61,-0.40,-0.61,0.61,0.60,0.68,0.21,0.21,0.20
139.22,-0.41,-0.58,-0.38,-0.56,0.56,0.56,0.64,0.15,0.19,0.17
140.61,-0.41,-0.55,-0.36,-0.51,0.51,0.53,0.61,0.10,0.16,0.14
142.02,-0.49,-0.61,-0.34,-0.46,0.46,0.49,0.58,-0.03,0.12,0.12
143.44,-0.48,-0.57,-0.31,-0.40,0.40,0.45,0.55,-0.08,0.09,0.09
144.87,-0.22,-0.27,-0.29,-0.34,0.34,0.42,0.51,0.12,0.05,0.05
146.32,-0.17,-0.18,-0.27,-0.27,0.27,0.38,0.48,0.10,0.01,0.01
147.78,-0.20,-0.18,-0.25,-0.21,0.21,0.34,0.45,0.01,-0.04,-0.02
149.26,-0.20,-0.13,-0.25,-0.16,0.16,0.30,0.42,-0.04,-0.10,-0.07
150.75,-0.13,-0.00,-0.26,-0.10,0.10,0.26,0.39,-0.02,-0.15,-0.13
152.26,-0.16,0.04,-0.27,-0.05,0.05,0.23,0.35,-0.11,-0.22,-0.20
153.78,-0.28,-0.01,-0.28,0.00,-0.00,0.19,0.32,-0.28,-0.28,-0.27
155.32,-0.30,0.04,-0.29,0.06,-0.06,0.15,0.29,-0.36,-0.35,-0.34
156.88,-0.30,0.12,-0.30,0.12,-0.12,0.11,0.26,-0.42,-0.42,-0.42
158.44,-0.30,0.20,-0.32,0.18,-0.18,0.07,0.22,-0.47,-0.49,-0.50
160.03,-0.37,0.21,-0.34,0.22,-0.22,0.02,0.19,-0.59,-0.56,-0.58
161.63,-0.50,0.15,-0.37,0.25,-0.25,-0.02,0.16,-0.75,-0.62,-0.65
163.24,-0.51,0.20,-0.38,0.30,-0.30,-0.06,0.12,-0.81,-0.69,-0.71
164.88,-0.53,0.23,-0.39,0.35,-0.35,-0.10,0.09,-0.88,-0.74,-0.76
166.53,-0.39,0.42,-0.40,0.39,-0.39,-0.15,0.06,-0.78,-0.79,-0.81
168.19,-0.33,0.52,-0.40,0.43,-0.43,-0.19,0.02,-0.75,-0.83,-0.85
169.87,-0.33,0.56,-0.40,0.47,-0.47,-0.24,-0.01,-0.80,-0.86,-0.89
171.57,-0.33,0.58,-0.38,0.51,-0.51,-0.28,-0.04,-0.84,-0.89,-0.91
173.29,-0.34,0.58,-0.37,0.53,-0.53,-0.33,-0.08,-0.87,-0.91,-0.92
175.02,-0.35,0.58,-0.37,0.55,-0.55,-0.37,-0.11,-0.90,-0.92,-0.93
176.77,-0.35,0.59,-0.36,0.57,-0.57,-0.42,-0.15,-0.92,-0.93,-0.94
178.54,-0.35,0.60,-0.35,0.59,-0.59,-0.47,-0.18,-0.94,-0.94,-0.95
180.32,-0.35,0.59,-0.34,0.61,-0.61,-0.52,-0.22,-0.96,-0.94,-0.94
182.13,-0.34,0.59,-0.33,0.62,-0.62,-0.56,-0.25,-0.96,-0.95,-0.93
183.95,-0.33,0.61,-0.32,0.64,-0.64,-0.61,-0.29,-0.96,-0.96,-0.94
185.79,-0.32,0.62,-0.31,0.65,-0.65,-0.66,-0.32,-0.97,-0.96,-0.94
187.65,-0.30,0.66,-0.30,0.67,-0.67,-0.70,-0.36,-0.97,-0.97,-0.96
189.52,-0.32,0.65,-0.28,0.70,-0.70,-0.75,-0.40,-1.02,-0.98,-0.97
191.42,-0.36,0.63,-0.26,0.73,-0.73,-0.80,-0.43,-1.09,-0.99,-0.99
193.33,-0.31,0.70,-0.24,0.77,-0.77,-0.84,-0.47,-1.08,-1.01,-1.01
195.27,-0.19,0.84,-0.21,0.81,-0.81,-0.88,-0.51,-1.00,-1.02,-1.03
197.22,-0.13,0.92,-0.19,0.85,-0.85,-0.93,-0.54,-0.98,-1.04,-1.05
199.19,-0.12,0.95,-0.17,0.89,-0.89,-0.97,-0.58,-1.01,-1.06,-1.07
201.18,-0.11,0.98,-0.15,0.93,-0.93,-1.00,-0.62,-1.04,-1.08,-1.09
203.19,-0.11,1.00,-0.14,0.97,-0.97,-1.04,-0.65,-1.08,-1.10,-1.11
205.23,-0.11,1.02,-0.12,1.00,-1.00,-1.07,-0.69,-1.11,-1.13,-1.13
207.28,-0.11,1.03,-0.11,1.03,-1.03,-1.10,-0.72,-1.14,-1.15,-1.14
209.35,-0.11,1.05,-0.11,1.06,-1.06,-1.13,-0.76,-1.17,-1.16,-1.16
211.44,-0.11,1.08,-0.10,1.08,-1.08,-1.15,-0.79,-1.19,-1.18,-1.19
213.56,-0.12,1.08,-0.10,1.09,-1.09,-1.17,-0.83,-1.21,-1.20,-1.20
215.69,-0.12,1.09,-0.11,1.10,-1.10,-1.19,-0.86,-1.22,-1.21,-1.21
217.85,-0.12,1.10,-0.12,1.10,-1.10,-1.20,-0.89,-1.22,-1.22,-1.22
220.03,-0.13,1.10,-0.12,1.11,-1.11,-1.21,-0.92,-1.24,-1.23,-1.23
222.23,-0.13,1.13,-0.13,1.11,-1.11,-1.21,-0.95,-1.24,-1.24,-1.26
224.45,-0.13,1.12,-0.13,1.11,-1.11,-1.21,-0.98,-1.24,-1.24,-1.25
226.70,-0.13,1.12,-0.12,1.12,-1.12,-1.21,-1.01,-1.25,-1.24,-1.25
228.96,-0.12,1.12,-0.11,1.12,-1.12,-1.20,-1.03,-1.24,-1.23,-1.24
231.25,-0.12,1.11,-0.10,1.13,-1.13,-1.19,-1.06,-1.25,-1.23,-1.23
233.57,-0.11,1.11,-0.09,1.13,-1.13,-1.17,-1.08,-1.24,-1.21,-1.22
235.90,-0.09,1.12,-0.07,1.12,-1.12,-1.16,-1.10,-1.21,-1.20,-1.21
238.26,-0.08,1.12,-0.06,1.12,-1.12,-1.14,-1.11,-1.20,-1.18,-1.20
240.64,-0.06,1.11,-0.05,1.11,-1.11,-1.12,-1.13,-1.17,-1.16,-1.17
243.05,-0.05,1.09,-0.04,1.10,-1.10,-1.09,-1.14,-1.15,-1.14,-1.14
245.48,-0.03,1.09,-0.03,1.09,-1.09,-1.07,-1.15,-1.12,-1.12,-1.12
247.93,0.02,1.11,-0.03,1.07,-1.07,-1.04,-1.16,-1.05,-1.10,-1.09
250.41,0.08,1.15,-0.02,1.05,-1.05,-1.01,-1.16,-0.97,-1.07,-1.07
252.92,0.01,1.05,-0.02,1.03,-1.03,-0.98,-1.16,-1.02,-1.05,-1.04
255.45,-0.04,0.98,-0.02,1.01,-1.01,-0.95,-1.16,-1.05,-1.02,-1.02
258.00,-0.05,0.95,-0.02,0.98,-0.98,-0.92,-1.16,-1.03,-1.00,-1.00
260.58,-0.04,0.94,-0.02,0.95,-0.95,-0.89,-1.15,-0.99,-0.97,-0.98
263.19,-0.04,0.91,-0.02,0.93,-0.93,-0.86,-1.14,-0.97,-0.95,-0.95
265.82,-0.04,0.89,-0.02,0.90,-0.90,-0.83,-1.13,-0.94,-0.93,-0.93
268.48,-0.04,0.87,-0.03,0.87,-0.87,-0.80,-1.12,-0.91,-0.90,-0.91
271.16,-0.05,0.83,-0.03,0.84,-0.84,-0.77,-1.11,-0.89,-0.88,-0.88
273.87,-0.05,0.81,-0.04,0.81,-0.81,-0.74,-1.09,-0.86,-0.85,-0.86
276.61,-0.05,0.78,-0.05,0.78,-0.78,-0.71,-1.07,-0.83,-0.82,-0.83
279.38,-0.05,0.75,-0.05,0.75,-0.75,-0.68,-1.05,-0.80,-0.80,-0.80
282.17,-0.05,0.73,-0.05,0.72,-0.72,-0.65,-1.03,-0.77,-0.77,-0.78
284.99,-0.04,0.70,-0.05,0.69,-0.69,-0.63,-1.01,-0.73,-0.74,-0.74
287.84,0.00,0.72,-0.06,0.65,-0.65,-0.60,-0.98,-0.65,-0.71,-0.72
290.72,0.04,0.73,-0.06,0.62,-0.62,-0.58,-0.96,-0.58,-0.68,-0.69
293.63,-0.09,0.57,-0.06,0.59,-0.59,-0.55,-0.93,-0.68,-0.65,-0.66
296.57,-0.10,0.53,-0.06,0.57,-0.57,-0.53,-0.90,-0.67,-0.63,-0.63
299.53,-0.09,0.51,-0.05,0.55,-0.55,-0.50,-0.87,-0.64,-0.60,-0.60
302.53,-0.08,0.50,-0.04,0.53,-0.53,-0.48,-0.85,-0.61,-0.57,-0.58
305.55,-0.07,0.47,-0.03,0.51,-0.51,-0.46,-0.82,-0.58,-0.54,-0.54
308.61,-0.07,0.45,-0.02,0.50,-0.50,-0.44,-0.79,-0.57,-0.52,-0.52
311.69,-0.09,0.40,-0.02,0.48,-0.48,-0.42,-0.76,-0.57,-0.50,-0.49
314.81,0.00,0.47,-0.01,0.46,-0.46,-0.40,-0.73,-0.46,-0.47,-0.47
317.96,0.05,0.50,-0.01,0.44,-0.44,-0.38,-0.70,-0.39,-0.45,-0.45
321.14,0.06,0.50,-0.01,0.43,-0.43,-0.37,-0.67,-0.36,-0.43,-0.44
324.35,0.06,0.48,-0.00,0.41,-0.41,-0.35,-0.64,-0.35,-0.42,-0.42
327.59,0.08,0.49,0.00,0.41,-0.41,-0.33,-0.62,-0.32,-0.40,-0.41
330.87,0.02,0.42,0.00,0.39,-0.39,-0.32,-0.59,-0.37,-0.39,-0.40
334.18,-0.04,0.34,-0.00,0.38,-0.38,-0.30,-0.56,-0.41,-0.38,-0.38
337.52,-0.05,0.32,-0.00,0.36,-0.36,-0.29,-0.53,-0.41,-0.37,-0.37
340.90,-0.05,0.31,-0.01,0.35,-0.35,-0.28,-0.50,-0.40,-0.36,-0.36
344.30,-0.05,0.30,-0.01,0.34,-0.34,-0.26,-0.48,-0.39,-0.35,-0.35
347.75,-0.05,0.30,-0.02,0.33,-0.33,-0.25,-0.45,-0.37,-0.35,-0.35
351.23,-0.05,0.29,-0.04,0.31,-0.31,-0.24,-0.42,-0.36,-0.34,-0.34
354.74,-0.05,0.30,-0.05,0.29,-0.29,-0.23,-0.40,-0.34,-0.34,-0.35
358.28,-0.05,0.29,-0.05,0.29,-0.29,-0.22,-0.37,-0.33,-0.34,-0.34
361.87,-0.04,0.30,-0.05,0.28,-0.28,-0.21,-0.35,-0.32,-0.34,-0.34
365.49,-0.03,0.30,-0.05,0.28,-0.28,-0.20,-0.32,-0.31,-0.33,-0.33
369.14,-0.02,0.32,-0.05,0.28,-0.28,-0.19,-0.30,-0.30,-0.33,-0.34
372.83,-0.02,0.32,-0.05,0.28,-0.28,-0.18,-0.27,-0.30,-0.34,-0.34
376.56,-0.08,0.27,-0.06,0.28,-0.28,-0.17,-0.25,-0.36,-0.34,-0.35
380.33,-0.10,0.24,-0.06,0.28,-0.28,-0.16,-0.22,-0.38,-0.34,-0.34
384.13,-0.10,0.24,-0.07,0.28,-0.28,-0.15,-0.20,-0.38,-0.34,-0.34
387.97,-0.09,0.26,-0.08,0.27,-0.27,-0.14,-0.18,-0.36,-0.35,-0.35
391.85,-0.09,0.27,-0.10,0.26,-0.26,-0.13,-0.16,-0.34,-0.35,-0.36
395.77,-0.09,0.26,-0.12,0.24,-0.24,-0.13,-0.13,-0.33,-0.36,-0.35
399.73,-0.13,0.23,-0.14,0.22,-0.22,-0.12,-0.11,-0.35,-0.37,-0.36
403.72,-0.18,0.18,-0.17,0.20,-0.20,-0.11,-0.09,-0.37,-0.37,-0.36
407.76,-0.19,0.19,-0.21,0.16,-0.16,-0.11,-0.07,-0.35,-0.38,-0.38
411.84,-0.20,0.18,-0.25,0.13,-0.13,-0.10,-0.05,-0.33,-0.38,-0.38
415.96,-0.20,0.18,-0.28,0.10,-0.10,-0.09,-0.03,-0.30,-0.38,-0.38
420.12,-0.29,0.09,-0.32,0.06,-0.06,-0.09,-0.01,-0.35,-0.38,-0.38
424.32,-0.38,-0.00,-0.35,0.02,-0.02,-0.08,0.01,-0.40,-0.37,-0.38
428.56,-0.45,-0.08,-0.38,-0.02,0.02,-0.07,0.03,-0.42,-0.36,-0.37
432.85,-0.46,-0.10,-0.41,-0.07,0.07,-0.07,0.04,-0.39,-0.34,-0.36
437.18,-0.44,-0.09,-0.44,-0.12,0.12,-0.06,0.06,-0.32,-0.32,-0.35
441.55,-0.47,-0.16,-0.46,-0.16,0.16,-0.06,0.08,-0.30,-0.30,-0.31
445.96,-0.53,-0.25,-0.47,-0.21,0.21,-0.05,0.10,-0.32,-0.27,-0.28
450.42,-0.51,-0.26,-0.47,-0.24,0.24,-0.05,0.11,-0.27,-0.23,-0.25
454.93,-0.45,-0.25,-0.47,-0.28,0.28,-0.04,0.13,-0.17,-0.19,-0.20
459.48,-0.46,-0.30,-0.45,-0.31,0.31,-0.04,0.14,-0.15,-0.15,-0.16
464.07,-0.43,-0.32,-0.43,-0.33,0.33,-0.03,0.15,-0.10,-0.10,-0.11
468.71,-0.38,-0.33,-0.39,-0.34,0.34,-0.03,0.17,-0.04,-0.05,-0.05
473.40,-0.37,-0.36,-0.35,-0.35,0.35,-0.02,0.18,-0.02,-0.00,-0.01
