frequency,raw,error,smoothed,error_smoothed,equalization,parametric_eq,fixed_band_eq,equalized_raw,equalized_smoothed,target
20.00,0.48,-1.44,0.48,-1.43,1.41,-0.59,-0.63,1.89,1.89,1.92
20.20,0.55,-1.42,0.55,-1.42,1.42,-0.61,-0.65,1.97,1.96,1.97
20.40,0.61,-1.41,0.61,-1.40,1.41,-0.62,-0.66,2.02,2.02,2.02
20.61,0.68,-1.37,0.68,-1.38,1.40,-0.63,-0.68,2.08,2.07,2.05
20.81,0.74,-1.36,0.74,-1.35,1.37,-0.65,-0.70,2.11,2.11,2.10
21.02,0.81,-1.33,0.81,-1.32,1.33,-0.66,-0.72,2.14,2.14,2.14
21.23,0.89,-1.27,0.89,-1.27,1.28,-0.68,-0.73,2.17,2.17,2.16
21.44,0.97,-1.21,0.97,-1.21,1.21,-0.69,-0.75,2.19,2.18,2.18
21.66,1.05,-1.15,1.05,-1.15,1.14,-0.71,-0.77,2.19,2.19,2.20
21.87,1.13,-1.08,1.14,-1.07,1.05,-0.72,-0.79,2.18,2.19,2.21
22.09,1.24,-0.99,1.25,-0.98,0.95,-0.74,-0.81,2.19,2.19,2.23
22.31,1.38,-0.86,1.38,-0.86,0.83,-0.75,-0.83,2.21,2.21,2.24
22.54,1.52,-0.72,1.52,-0.72,0.71,-0.77,-0.85,2.23,2.24,2.24
22.76,1.66,-0.58,1.66,-0.57,0.59,-0.79,-0.88,2.25,2.26,2.24
22.99,1.80,-0.43,1.78,-0.44,0.47,-0.81,-0.90,2.27,2.26,2.23
23.22,1.89,-0.34,1.89,-0.34,0.36,-0.82,-0.92,2.25,2.25,2.23
23.45,1.97,-0.26,1.98,-0.25,0.27,-0.84,-0.94,2.24,2.25,2.23
23.69,2.06,-0.18,2.06,-0.17,0.18,-0.86,-0.97,2.24,2.25,2.24
23.92,2.14,-0.10,2.13,-0.10,0.12,-0.88,-0.99,2.26,2.25,2.24
24.16,2.20,-0.04,2.20,-0.04,0.06,-0.90,-1.02,2.26,2.25,2.24
24.40,2.24,-0.01,2.24,0.00,-0.00,-0.92,-1.04,2.24,2.24,2.25
24.65,2.29,0.05,2.28,0.04,-0.07,-0.94,-1.07,2.22,2.22,2.24
24.89,2.33,0.09,2.34,0.10,-0.14,-0.96,-1.09,2.19,2.20,2.24
25.14,2.41,0.17,2.42,0.18,-0.21,-0.99,-1.12,2.20,2.21,2.24
25.39,2.52,0.27,2.52,0.27,-0.28,-1.01,-1.15,2.24,2.23,2.25
25.65,2.62,0.37,2.62,0.38,-0.36,-1.03,-1.17,2.26,2.27,2.25
25.91,2.73,0.49,2.72,0.48,-0.43,-1.05,-1.20,2.30,2.29,2.24
26.16,2.80,0.56,2.79,0.56,-0.51,-1.08,-1.23,2.29,2.28,2.24
26.43,2.85,0.61,2.85,0.61,-0.60,-1.10,-1.26,2.25,2.25,2.24
26.69,2.90,0.66,2.90,0.66,-0.69,-1.13,-1.28,2.21,2.21,2.24
26.96,2.95,0.71,2.97,0.73,-0.78,-1.15,-1.31,2.17,2.19,2.24
27.23,3.07,0.83,3.07,0.83,-0.88,-1.18,-1.34,2.19,2.19,2.24
27.50,3.20,0.96,3.20,0.96,-0.98,-1.21,-1.37,2.22,2.22,2.24
27.77,3.33,1.10,3.33,1.10,-1.08,-1.24,-1.39,2.25,2.24,2.23
28.05,3.45,1.22,3.44,1.22,-1.19,-1.26,-1.42,2.26,2.25,2.23
28.33,3.54,1.32,3.55,1.32,-1.29,-1.29,-1.45,2.25,2.25,2.22
28.62,3.63,1.41,3.63,1.42,-1.39,-1.32,-1.47,2.24,2.25,2.22
28.90,3.72,1.49,3.71,1.49,-1.47,-1.35,-1.50,2.25,2.24,2.23
29.19,3.78,1.56,3.78,1.56,-1.55,-1.38,-1.53,2.23,2.23,2.22
29.48,3.83,1.60,3.83,1.61,-1.62,-1.42,-1.55,2.21,2.21,2.23
29.78,3.88,1.66,3.88,1.66,-1.68,-1.45,-1.58,2.20,2.20,2.22
30.08,3.94,1.71,3.94,1.72,-1.75,-1.48,-1.60,2.19,2.20,2.23
30.38,4.02,1.80,4.02,1.80,-1.82,-1.52,-1.63,2.20,2.20,2.22
30.68,4.10,1.88,4.10,1.88,-1.89,-1.55,-1.65,2.21,2.21,2.22
30.99,4.18,1.96,4.17,1.96,-1.95,-1.59,-1.67,2.23,2.22,2.22
31.30,4.24,2.03,4.24,2.03,-2.02,-1.63,-1.70,2.22,2.23,2.21
31.61,4.30,2.09,4.31,2.10,-2.08,-1.66,-1.72,2.22,2.23,2.21
31.93,4.37,2.16,4.36,2.15,-2.13,-1.70,-1.74,2.24,2.23,2.21
32.24,4.40,2.20,4.39,2.19,-2.18,-1.74,-1.76,2.22,2.22,2.20
32.57,4.42,2.22,4.42,2.23,-2.22,-1.78,-1.78,2.20,2.20,2.20
32.89,4.44,2.24,4.45,2.26,-2.27,-1.82,-1.80,2.17,2.18,2.20
33.22,4.49,2.30,4.48,2.29,-2.33,-1.87,-1.82,2.16,2.16,2.19
33.55,4.54,2.35,4.53,2.35,-2.39,-1.91,-1.85,2.15,2.14,2.19
33.89,4.59,2.41,4.60,2.42,-2.45,-1.95,-1.87,2.14,2.15,2.18
34.23,4.68,2.50,4.69,2.51,-2.52,-2.00,-1.89,2.16,2.17,2.18
34.57,4.79,2.62,4.79,2.62,-2.59,-2.05,-1.91,2.20,2.20,2.17
34.92,4.89,2.72,4.87,2.71,-2.65,-2.09,-1.93,2.23,2.22,2.17
35.27,4.93,2.77,4.92,2.76,-2.72,-2.14,-1.95,2.21,2.20,2.16
35.62,4.94,2.78,4.94,2.78,-2.78,-2.19,-1.97,2.16,2.16,2.16
35.97,4.95,2.79,4.97,2.81,-2.84,-2.24,-2.00,2.11,2.13,2.16
36.33,5.01,2.85,5.01,2.86,-2.89,-2.29,-2.02,2.12,2.12,2.16
36.70,5.08,2.93,5.07,2.92,-2.94,-2.34,-2.04,2.14,2.13,2.15
37.06,5.14,2.99,5.14,2.99,-2.99,-2.40,-2.07,2.15,2.15,2.15
37.43,5.20,3.04,5.20,3.05,-3.04,-2.45,-2.09,2.16,2.16,2.16
37.81,5.26,3.10,5.26,3.10,-3.09,-2.51,-2.12,2.17,2.17,2.16
38.19,5.31,3.16,5.31,3.15,-3.14,-2.56,-2.15,2.17,2.17,2.15
38.57,5.35,3.19,5.35,3.19,-3.18,-2.62,-2.18,2.17,2.17,2.16
38.95,5.39,3.22,5.39,3.23,-3.23,-2.68,-2.21,2.16,2.16,2.17
39.34,5.42,3.26,5.42,3.26,-3.27,-2.74,-2.25,2.15,2.15,2.16
39.74,5.46,3.30,5.46,3.30,-3.32,-2.80,-2.28,2.14,2.14,2.16
40.14,5.50,3.34,5.50,3.34,-3.36,-2.86,-2.32,2.14,2.14,2.16
40.54,5.54,3.38,5.54,3.38,-3.40,-2.92,-2.35,2.14,2.14,2.16
40.94,5.58,3.43,5.59,3.44,-3.44,-2.98,-2.39,2.14,2.15,2.15
41.35,5.64,3.49,5.65,3.50,-3.47,-3.04,-2.44,2.17,2.18,2.15
41.76,5.70,3.56,5.69,3.55,-3.51,-3.10,-2.48,2.19,2.18,2.14
42.18,5.72,3.58,5.70,3.56,-3.54,-3.16,-2.52,2.18,2.15,2.14
42.60,5.68,3.55,5.68,3.56,-3.58,-3.23,-2.57,2.10,2.11,2.13
43.03,5.65,3.53,5.69,3.57,-3.61,-3.29,-2.62,2.04,2.08,2.12
43.46,5.71,3.60,5.71,3.61,-3.64,-3.35,-2.67,2.07,2.08,2.11
43.90,5.78,3.69,5.75,3.67,-3.66,-3.41,-2.73,2.12,2.09,2.09
44.33,5.79,3.72,5.79,3.72,-3.69,-3.47,-2.78,2.10,2.10,2.07
44.78,5.79,3.74,5.79,3.74,-3.72,-3.54,-2.84,2.07,2.08,2.05
45.23,5.79,3.75,5.78,3.75,-3.75,-3.60,-2.90,2.04,2.03,2.04
45.68,5.78,3.75,5.78,3.76,-3.79,-3.66,-2.96,1.99,2.00,2.03
46.13,5.79,3.78,5.81,3.79,-3.82,-3.72,-3.03,1.97,1.99,2.01
46.60,5.84,3.83,5.84,3.84,-3.84,-3.77,-3.09,2.00,2.00,2.01
47.06,5.89,3.90,5.87,3.88,-3.87,-3.83,-3.16,2.02,2.01,1.99
47.53,5.89,3.91,5.89,3.91,-3.89,-3.89,-3.23,2.00,2.00,1.98
48.01,5.89,3.91,5.89,3.92,-3.91,-3.94,-3.30,1.98,1.98,1.98
48.49,5.89,3.93,5.89,3.93,-3.93,-3.99,-3.37,1.96,1.96,1.96
48.97,5.89,3.95,5.89,3.95,-3.95,-4.04,-3.45,1.94,1.94,1.94
49.46,5.89,3.97,5.89,3.97,-3.98,-4.09,-3.52,1.91,1.91,1.92
49.96,5.89,3.99,5.89,3.98,-4.00,-4.14,-3.60,1.89,1.89,1.90
50.46,5.89,4.00,5.89,4.00,-4.02,-4.18,-3.68,1.87,1.86,1.89
50.96,5.89,4.01,5.91,4.04,-4.05,-4.22,-3.76,1.84,1.86,1.88
51.47,5.94,4.08,5.94,4.08,-4.08,-4.26,-3.84,1.86,1.86,1.86
51.99,5.99,4.14,5.97,4.12,-4.11,-4.30,-3.92,1.88,1.87,1.85
52.51,5.99,4.15,5.99,4.15,-4.13,-4.33,-4.00,1.86,1.86,1.84
53.03,5.99,4.15,5.99,4.16,-4.15,-4.37,-4.08,1.84,1.84,1.84
53.56,5.99,4.17,5.99,4.17,-4.17,-4.40,-4.17,1.82,1.82,1.82
54.10,5.99,4.18,5.99,4.18,-4.19,-4.42,-4.25,1.80,1.80,1.81
54.64,5.99,4.20,5.99,4.20,-4.20,-4.45,-4.32,1.79,1.79,1.79
55.18,5.99,4.20,5.99,4.21,-4.21,-4.47,-4.40,1.78,1.78,1.79
55.74,5.99,4.22,5.99,4.22,-4.22,-4.49,-4.48,1.77,1.77,1.77
56.29,5.99,4.23,5.99,4.23,-4.23,-4.51,-4.55,1.76,1.76,1.76
56.86,5.99,4.24,5.99,4.25,-4.25,-4.53,-4.62,1.74,1.74,1.75
57.42,5.99,4.27,5.99,4.26,-4.26,-4.54,-4.69,1.73,1.73,1.72
58.00,5.99,4.28,5.99,4.28,-4.28,-4.55,-4.76,1.71,1.71,1.71
58.58,5.99,4.29,5.99,4.30,-4.30,-4.56,-4.82,1.69,1.69,1.70
59.16,5.99,4.31,5.99,4.31,-4.32,-4.57,-4.87,1.67,1.67,1.68
59.76,5.99,4.33,5.99,4.34,-4.35,-4.58,-4.93,1.64,1.64,1.66
60.35,5.99,4.37,5.99,4.37,-4.38,-4.59,-4.98,1.61,1.61,1.62
60.96,5.99,4.41,5.99,4.41,-4.41,-4.59,-5.02,1.58,1.58,1.58
61.57,5.99,4.45,5.99,4.46,-4.44,-4.60,-5.06,1.55,1.55,1.54
62.18,5.99,4.49,5.99,4.49,-4.47,-4.60,-5.09,1.52,1.52,1.50
62.80,5.98,4.53,5.97,4.52,-4.50,-4.61,-5.12,1.48,1.47,1.45
63.43,5.94,4.53,5.94,4.53,-4.53,-4.61,-5.14,1.41,1.41,1.41
64.07,5.89,4.53,5.91,4.55,-4.57,-4.61,-5.16,1.32,1.34,1.36
64.71,5.89,4.57,5.89,4.57,-4.60,-4.62,-5.18,1.29,1.29,1.32
65.35,5.89,4.61,5.89,4.61,-4.63,-4.62,-5.18,1.26,1.25,1.28
66.01,5.89,4.66,5.89,4.66,-4.66,-4.62,-5.19,1.23,1.23,1.23
66.67,5.89,4.71,5.90,4.72,-4.69,-4.63,-5.19,1.20,1.20,1.18
67.33,5.89,4.76,5.89,4.76,-4.73,-4.63,-5.19,1.16,1.16,1.13
68.01,5.89,4.80,5.87,4.78,-4.77,-4.63,-5.18,1.12,1.10,1.09
68.69,5.82,4.78,5.83,4.80,-4.81,-4.64,-5.17,1.01,1.03,1.04
69.37,5.79,4.80,5.80,4.81,-4.84,-4.64,-5.16,0.95,0.96,0.99
70.07,5.79,4.85,5.79,4.85,-4.87,-4.65,-5.15,0.92,0.91,0.94
70.77,5.79,4.90,5.79,4.91,-4.90,-4.66,-5.13,0.89,0.89,0.89
71.48,5.79,4.95,5.78,4.95,-4.93,-4.67,-5.11,0.86,0.85,0.84
72.19,5.77,5.00,5.76,4.98,-4.96,-4.67,-5.10,0.81,0.79,0.77
72.91,5.70,4.99,5.72,5.01,-5.00,-4.68,-5.08,0.70,0.72,0.71
73.64,5.69,5.03,5.68,5.03,-5.04,-4.70,-5.06,0.65,0.64,0.66
74.38,5.65,5.05,5.64,5.04,-5.07,-4.71,-5.04,0.58,0.57,0.60
75.12,5.59,5.05,5.61,5.08,-5.09,-4.72,-5.03,0.50,0.52,0.54
75.87,5.59,5.11,5.59,5.11,-5.11,-4.73,-5.01,0.48,0.48,0.48
76.63,5.59,5.16,5.59,5.16,-5.13,-4.75,-5.00,0.46,0.46,0.43
77.40,5.57,5.19,5.55,5.18,-5.15,-4.77,-4.99,0.42,0.40,0.38
78.17,5.51,5.19,5.49,5.17,-5.17,-4.78,-4.98,0.34,0.33,0.32
78.95,5.40,5.12,5.44,5.16,-5.19,-4.80,-4.97,0.21,0.25,0.28
79.74,5.39,5.16,5.40,5.17,-5.20,-4.82,-4.97,0.19,0.19,0.23
80.54,5.39,5.21,5.37,5.19,-5.21,-4.84,-4.97,0.18,0.16,0.18
81.35,5.36,5.23,5.36,5.23,-5.22,-4.86,-4.97,0.14,0.14,0.13
82.16,5.31,5.23,5.32,5.24,-5.22,-4.89,-4.97,0.09,0.10,0.08
82.98,5.29,5.25,5.28,5.24,-5.22,-4.91,-4.98,0.07,0.06,0.04
83.81,5.21,5.22,5.22,5.23,-5.21,-4.94,-4.99,-0.00,0.01,-0.01
84.65,5.16,5.22,5.15,5.21,-5.20,-4.96,-5.00,-0.04,-0.05,-0.06
85.50,5.07,5.17,5.07,5.17,-5.18,-4.99,-5.02,-0.11,-0.11,-0.10
86.35,4.98,5.13,5.00,5.15,-5.16,-5.02,-5.04,-0.18,-0.16,-0.15
87.22,4.93,5.13,4.92,5.13,-5.13,-5.05,-5.07,-0.20,-0.21,-0.20
88.09,4.87,5.12,4.86,5.11,-5.11,-5.08,-5.10,-0.24,-0.26,-0.25
88.97,4.79,5.10,4.80,5.11,-5.10,-5.11,-5.13,-0.31,-0.31,-0.31
89.86,4.73,5.09,4.74,5.10,-5.10,-5.15,-5.17,-0.37,-0.36,-0.36
90.76,4.70,5.11,4.69,5.11,-5.12,-5.18,-5.21,-0.42,-0.42,-0.41
91.66,4.67,5.13,4.66,5.13,-5.14,-5.21,-5.26,-0.47,-0.48,-0.46
92.58,4.64,5.16,4.66,5.18,-5.18,-5.25,-5.30,-0.54,-0.53,-0.52
93.51,4.66,5.23,4.66,5.23,-5.24,-5.29,-5.36,-0.58,-0.58,-0.57
94.44,4.69,5.30,4.67,5.29,-5.30,-5.32,-5.41,-0.61,-0.63,-0.61
95.39,4.69,5.35,4.70,5.36,-5.37,-5.36,-5.47,-0.68,-0.67,-0.66
96.34,4.72,5.43,4.74,5.45,-5.45,-5.40,-5.53,-0.73,-0.71,-0.71
97.30,4.79,5.55,4.78,5.54,-5.53,-5.44,-5.60,-0.74,-0.74,-0.76
98.28,4.83,5.64,4.82,5.63,-5.61,-5.48,-5.67,-0.78,-0.78,-0.81
99.26,4.86,5.71,4.84,5.70,-5.69,-5.52,-5.74,-0.83,-0.85,-0.85
100.25,4.84,5.74,4.85,5.75,-5.77,-5.56,-5.82,-0.93,-0.92,-0.90
101.25,4.85,5.80,4.87,5.83,-5.85,-5.61,-5.89,-1.00,-0.98,-0.95
102.27,4.92,5.92,4.91,5.91,-5.92,-5.65,-5.97,-1.00,-1.01,-1.00
103.29,4.96,6.01,4.95,6.00,-5.98,-5.69,-6.05,-1.02,-1.03,-1.05
104.32,4.98,6.07,4.97,6.07,-6.03,-5.74,-6.14,-1.05,-1.06,-1.09
105.37,4.96,6.10,4.96,6.10,-6.08,-5.78,-6.22,-1.12,-1.12,-1.14
106.42,4.93,6.12,4.94,6.13,-6.13,-5.83,-6.30,-1.20,-1.19,-1.19
107.48,4.91,6.16,4.91,6.15,-6.17,-5.88,-6.39,-1.26,-1.26,-1.25
108.56,4.88,6.18,4.88,6.19,-6.20,-5.92,-6.47,-1.32,-1.32,-1.30
109.64,4.86,6.21,4.86,6.22,-6.23,-5.97,-6.55,-1.38,-1.37,-1.35
110.74,4.85,6.26,4.85,6.25,-6.27,-6.02,-6.63,-1.42,-1.42,-1.41
111.85,4.83,6.28,4.83,6.29,-6.30,-6.06,-6.71,-1.47,-1.47,-1.45
112.97,4.82,6.33,4.83,6.34,-6.33,-6.11,-6.79,-1.51,-1.51,-1.51
114.10,4.81,6.37,4.81,6.37,-6.36,-6.16,-6.86,-1.55,-1.55,-1.56
115.24,4.80,6.41,4.78,6.39,-6.37,-6.21,-6.93,-1.57,-1.59,-1.61
116.39,4.73,6.39,4.76,6.42,-6.38,-6.26,-6.99,-1.65,-1.62,-1.66
117.55,4.71,6.41,4.71,6.41,-6.38,-6.31,-7.05,-1.67,-1.67,-1.70
118.73,4.70,6.44,4.64,6.39,-6.38,-6.35,-7.11,-1.68,-1.74,-1.74
119.92,4.55,6.32,4.58,6.36,-6.39,-6.40,-7.16,-1.84,-1.80,-1.77
121.12,4.51,6.32,4.54,6.35,-6.39,-6.45,-7.20,-1.88,-1.85,-1.81
122.33,4.53,6.37,4.52,6.36,-6.40,-6.50,-7.23,-1.87,-1.88,-1.84
123.55,4.55,6.42,4.54,6.42,-6.41,-6.55,-7.26,-1.86,-1.87,-1.87
124.79,4.56,6.46,4.56,6.46,-6.43,-6.60,-7.28,-1.87,-1.87,-1.90
126.03,4.56,6.49,4.57,6.50,-6.47,-6.65,-7.30,-1.91,-1.90,-1.93
127.29,4.57,6.52,4.57,6.53,-6.52,-6.69,-7.31,-1.95,-1.95,-1.95
128.57,4.58,6.57,4.56,6.55,-6.59,-6.74,-7.31,-2.01,-2.03,-1.99
129.85,4.57,6.59,4.58,6.60,-6.65,-6.79,-7.30,-2.08,-2.07,-2.02
131.15,4.59,6.64,4.64,6.70,-6.72,-6.84,-7.29,-2.13,-2.08,-2.05
132.46,4.75,6.83,4.72,6.80,-6.79,-6.88,-7.27,-2.04,-2.07,-2.08
133.79,4.82,6.93,4.78,6.89,-6.85,-6.93,-7.24,-2.03,-2.07,-2.11
135.12,4.80,6.94,4.82,6.96,-6.91,-6.98,-7.21,-2.11,-2.09,-2.14
136.48,4.80,6.96,4.81,6.98,-6.96,-7.02,-7.18,-2.17,-2.15,-2.16
137.84,4.81,7.01,4.80,7.01,-7.01,-7.07,-7.14,-2.20,-2.21,-2.20
139.22,4.81,7.04,4.81,7.04,-7.05,-7.11,-7.10,-2.24,-2.24,-2.23
140.61,4.81,7.07,4.81,7.07,-7.08,-7.15,-7.06,-2.27,-2.27,-2.26
142.02,4.81,7.09,4.81,7.10,-7.10,-7.19,-7.02,-2.29,-2.29,-2.28
143.44,4.81,7.12,4.81,7.13,-7.13,-7.24,-6.97,-2.32,-2.32,-2.31
144.87,4.81,7.16,4.81,7.16,-7.16,-7.28,-6.92,-2.35,-2.35,-2.35
146.32,4.81,7.20,4.81,7.20,-7.21,-7.32,-6.87,-2.40,-2.40,-2.39
147.78,4.81,7.23,4.81,7.24,-7.25,-7.35,-6.83,-2.44,-2.44,-2.42
149.26,4.81,7.28,4.81,7.29,-7.30,-7.39,-6.78,-2.49,-2.49,-2.47
150.75,4.81,7.34,4.82,7.35,-7.35,-7.43,-6.74,-2.54,-2.54,-2.53
152.26,4.81,7.41,4.81,7.41,-7.40,-7.46,-6.69,-2.59,-2.59,-2.60
153.78,4.81,7.48,4.78,7.46,-7.44,-7.50,-6.65,-2.64,-2.66,-2.67
155.32,4.73,7.47,4.76,7.50,-7.48,-7.53,-6.61,-2.75,-2.72,-2.74
156.88,4.70,7.52,4.70,7.53,-7.51,-7.56,-6.58,-2.81,-2.80,-2.82
158.44,4.67,7.57,4.63,7.53,-7.52,-7.59,-6.55,-2.85,-2.89,-2.90
160.03,4.54,7.52,4.56,7.54,-7.53,-7.62,-6.52,-2.99,-2.97,-2.98
161.63,4.46,7.51,4.48,7.53,-7.53,-7.65,-6.49,-3.07,-3.05,-3.05
163.24,4.42,7.53,4.41,7.52,-7.54,-7.67,-6.47,-3.12,-3.13,-3.11
164.88,4.37,7.53,4.36,7.52,-7.55,-7.70,-6.46,-3.18,-3.19,-3.16
166.53,4.31,7.52,4.32,7.53,-7.56,-7.72,-6.44,-3.25,-3.25,-3.21
168.19,4.29,7.54,4.30,7.55,-7.58,-7.74,-6.44,-3.29,-3.28,-3.25
169.87,4.29,7.58,4.31,7.60,-7.60,-7.76,-6.43,-3.31,-3.30,-3.29
171.57,4.36,7.67,4.34,7.65,-7.63,-7.78,-6.43,-3.27,-3.29,-3.31
173.29,4.37,7.69,4.36,7.69,-7.66,-7.79,-6.44,-3.29,-3.30,-3.32
175.02,4.37,7.70,4.37,7.71,-7.68,-7.81,-6.45,-3.31,-3.31,-3.33
176.77,4.36,7.70,4.36,7.71,-7.71,-7.82,-6.47,-3.35,-3.34,-3.34
178.54,4.36,7.71,4.36,7.71,-7.72,-7.83,-6.49,-3.36,-3.36,-3.35
180.32,4.37,7.71,4.37,7.71,-7.73,-7.84,-6.51,-3.36,-3.36,-3.34
182.13,4.38,7.71,4.39,7.73,-7.73,-7.85,-6.54,-3.35,-3.34,-3.33
183.95,4.40,7.74,4.39,7.73,-7.72,-7.85,-6.58,-3.32,-3.33,-3.34
185.79,4.39,7.73,4.37,7.72,-7.71,-7.85,-6.62,-3.32,-3.34,-3.34
187.65,4.32,7.68,4.35,7.71,-7.70,-7.85,-6.66,-3.38,-3.36,-3.36
189.52,4.32,7.69,4.31,7.69,-7.69,-7.85,-6.71,-3.37,-3.38,-3.37
191.42,4.28,7.67,4.28,7.67,-7.68,-7.85,-6.77,-3.40,-3.40,-3.39
193.33,4.25,7.66,4.25,7.66,-7.66,-7.84,-6.82,-3.42,-3.42,-3.41
195.27,4.20,7.63,4.21,7.64,-7.65,-7.84,-6.88,-3.45,-3.44,-3.43
197.22,4.18,7.63,4.18,7.63,-7.63,-7.83,-6.95,-3.45,-3.45,-3.45
199.19,4.15,7.62,4.14,7.61,-7.60,-7.82,-7.02,-3.45,-3.46,-3.47
201.18,4.10,7.59,4.10,7.59,-7.58,-7.80,-7.09,-3.48,-3.48,-3.49
203.19,4.04,7.55,4.05,7.56,-7.54,-7.79,-7.16,-3.50,-3.50,-3.51
205.23,4.00,7.53,4.00,7.53,-7.51,-7.77,-7.24,-3.51,-3.52,-3.53
207.28,3.95,7.49,3.95,7.50,-7.49,-7.75,-7.32,-3.54,-3.54,-3.54
209.35,3.91,7.47,3.90,7.46,-7.49,-7.73,-7.40,-3.58,-3.59,-3.56
211.44,3.85,7.44,3.85,7.43,-7.49,-7.71,-7.48,-3.64,-3.64,-3.59
213.56,3.81,7.41,3.83,7.43,-7.49,-7.69,-7.57,-3.68,-3.67,-3.60
215.69,3.83,7.44,3.85,7.46,-7.50,-7.66,-7.65,-3.67,-3.65,-3.61
217.85,3.90,7.52,3.91,7.53,-7.50,-7.63,-7.73,-3.60,-3.59,-3.62
220.03,3.97,7.60,3.95,7.59,-7.51,-7.60,-7.81,-3.54,-3.56,-3.63
222.23,3.96,7.62,3.93,7.58,-7.51,-7.57,-7.88,-3.55,-3.59,-3.66
224.45,3.85,7.50,3.85,7.51,-7.51,-7.54,-7.95,-3.66,-3.66,-3.65
226.70,3.74,7.39,3.78,7.43,-7.49,-7.51,-8.02,-3.75,-3.71,-3.65
228.96,3.71,7.35,3.74,7.38,-7.43,-7.47,-8.08,-3.72,-3.69,-3.64
231.25,3.77,7.40,3.75,7.38,-7.36,-7.43,-8.14,-3.59,-3.61,-3.63
233.57,3.75,7.37,3.73,7.36,-7.27,-7.40,-8.19,-3.52,-3.53,-3.62
235.90,3.67,7.28,3.64,7.25,-7.18,-7.35,-8.23,-3.51,-3.54,-3.61
238.26,3.49,7.09,3.48,7.08,-7.07,-7.31,-8.27,-3.58,-3.59,-3.60
240.64,3.29,6.86,3.35,6.92,-6.97,-7.27,-8.29,-3.68,-3.62,-3.57
243.05,3.26,6.80,3.28,6.83,-6.86,-7.23,-8.30,-3.60,-3.57,-3.54
245.48,3.30,6.82,3.27,6.79,-6.76,-7.18,-8.31,-3.46,-3.49,-3.52
247.93,3.30,6.79,3.26,6.76,-6.71,-7.13,-8.30,-3.41,-3.45,-3.49
250.41,3.21,6.68,3.20,6.67,-6.73,-7.09,-8.28,-3.52,-3.53,-3.47
252.92,3.16,6.60,3.16,6.61,-6.79,-7.04,-8.25,-3.63,-3.63,-3.44
255.45,3.17,6.59,3.28,6.70,-6.89,-6.99,-8.21,-3.72,-3.62,-3.42
258.00,3.50,6.90,3.51,6.91,-7.00,-6.94,-8.16,-3.50,-3.49,-3.40
260.58,3.88,7.26,3.80,7.18,-7.09,-6.89,-8.10,-3.21,-3.30,-3.38
263.19,4.02,7.37,4.04,7.39,-7.17,-6.83,-8.02,-3.15,-3.14,-3.35
265.82,4.14,7.47,4.12,7.45,-7.23,-6.78,-7.94,-3.09,-3.11,-3.33
268.48,4.08,7.39,4.06,7.37,-7.27,-6.73,-7.85,-3.19,-3.21,-3.31
271.16,3.96,7.24,3.95,7.24,-7.25,-6.67,-7.75,-3.30,-3.30,-3.28
273.87,3.77,7.03,3.85,7.11,-7.20,-6.61,-7.65,-3.43,-3.35,-3.26
276.61,3.79,7.02,3.77,7.01,-7.10,-6.56,-7.54,-3.31,-3.33,-3.23
279.38,3.78,6.98,3.74,6.94,-6.99,-6.50,-7.42,-3.21,-3.25,-3.20
282.17,3.69,6.87,3.73,6.90,-6.90,-6.44,-7.30,-3.21,-3.17,-3.18
284.99,3.68,6.82,3.66,6.81,-6.83,-6.39,-7.17,-3.15,-3.17,-3.14
287.84,3.64,6.76,3.62,6.74,-6.77,-6.33,-7.04,-3.13,-3.15,-3.12
290.72,3.55,6.64,3.61,6.70,-6.72,-6.27,-6.91,-3.17,-3.11,-3.09
293.63,3.63,6.69,3.60,6.67,-6.66,-6.21,-6.78,-3.03,-3.06,-3.06
296.57,3.60,6.63,3.60,6.63,-6.59,-6.15,-6.65,-2.99,-2.99,-3.03
299.53,3.58,6.58,3.57,6.57,-6.51,-6.09,-6.52,-2.93,-2.94,-3.00
302.53,3.47,6.45,3.47,6.44,-6.41,-6.03,-6.38,-2.94,-2.94,-2.98
305.55,3.36,6.30,3.36,6.31,-6.30,-5.97,-6.25,-2.94,-2.94,-2.94
308.61,3.22,6.14,3.25,6.17,-6.18,-5.90,-6.12,-2.96,-2.93,-2.92
311.69,3.16,6.05,3.16,6.05,-6.05,-5.84,-5.99,-2.89,-2.89,-2.89
314.81,3.08,5.95,3.05,5.92,-5.93,-5.78,-5.86,-2.85,-2.88,-2.87
317.96,2.95,5.80,2.95,5.80,-5.81,-5.72,-5.74,-2.86,-2.87,-2.85
321.14,2.82,5.66,2.86,5.70,-5.73,-5.66,-5.62,-2.91,-2.86,-2.84
324.35,2.81,5.63,2.80,5.63,-5.67,-5.60,-5.50,-2.86,-2.86,-2.82
327.59,2.81,5.62,2.77,5.59,-5.63,-5.53,-5.38,-2.82,-2.86,-2.81
330.87,2.77,5.57,2.79,5.59,-5.62,-5.47,-5.27,-2.85,-2.82,-2.80
334.18,2.79,5.57,2.83,5.61,-5.62,-5.41,-5.15,-2.83,-2.79,-2.78
337.52,2.91,5.68,2.88,5.65,-5.64,-5.35,-5.05,-2.73,-2.76,-2.77
340.90,2.94,5.70,2.93,5.69,-5.66,-5.29,-4.94,-2.72,-2.73,-2.76
344.30,2.95,5.70,2.96,5.71,-5.68,-5.22,-4.84,-2.73,-2.73,-2.75
347.75,2.95,5.70,2.95,5.70,-5.70,-5.16,-4.74,-2.75,-2.75,-2.75
351.23,2.95,5.69,2.96,5.71,-5.70,-5.10,-4.65,-2.76,-2.75,-2.74
354.74,2.96,5.71,2.96,5.71,-5.69,-5.04,-4.56,-2.73,-2.73,-2.75
358.28,2.96,5.70,2.94,5.68,-5.67,-4.98,-4.47,-2.71,-2.73,-2.74
361.87,2.91,5.65,2.89,5.63,-5.63,-4.92,-4.39,-2.72,-2.74,-2.74
365.49,2.80,5.53,2.84,5.58,-5.58,-4.85,-4.31,-2.78,-2.74,-2.73
369.14,2.78,5.52,2.78,5.52,-5.52,-4.79,-4.23,-2.74,-2.75,-2.74
372.83,2.74,5.48,2.70,5.45,-5.45,-4.73,-4.16,-2.71,-2.75,-2.74
376.56,2.61,5.36,2.64,5.38,-5.37,-4.67,-4.09,-2.76,-2.74,-2.75
380.33,2.53,5.27,2.55,5.29,-5.28,-4.61,-4.02,-2.75,-2.73,-2.74
384.13,2.47,5.21,2.44,5.19,-5.18,-4.55,-3.95,-2.71,-2.74,-2.74
387.97,2.35,5.10,2.34,5.09,-5.09,-4.49,-3.89,-2.74,-2.75,-2.75
391.85,2.20,4.96,2.23,4.98,-4.99,-4.43,-3.83,-2.79,-2.77,-2.76
395.77,2.11,4.86,2.11,4.87,-4.89,-4.37,-3.78,-2.78,-2.78,-2.75
399.73,2.02,4.78,2.01,4.77,-4.78,-4.31,-3.72,-2.76,-2.78,-2.76
403.72,1.91,4.67,1.91,4.68,-4.67,-4.25,-3.67,-2.76,-2.76,-2.76
407.76,1.81,4.59,1.82,4.60,-4.56,-4.19,-3.62,-2.75,-2.74,-2.78
411.84,1.72,4.50,1.72,4.50,-4.46,-4.13,-3.57,-2.74,-2.74,-2.78
415.96,1.63,4.41,1.61,4.39,-4.37,-4.07,-3.53,-2.74,-2.76,-2.78
420.12,1.48,4.26,1.47,4.26,-4.30,-4.01,-3.49,-2.82,-2.82,-2.78
424.32,1.36,4.14,1.36,4.14,-4.23,-3.95,-3.44,-2.87,-2.88,-2.78
428.56,1.27,4.04,1.34,4.12,-4.18,-3.89,-3.40,-2.91,-2.84,-2.77
432.85,1.36,4.12,1.38,4.14,-4.14,-3.84,-3.37,-2.78,-2.76,-2.76
437.18,1.53,4.28,1.40,4.14,-4.11,-3.78,-3.33,-2.58,-2.71,-2.75
441.55,1.40,4.11,1.43,4.15,-4.09,-3.72,-3.29,-2.69,-2.66,-2.71
445.96,1.33,4.01,1.43,4.11,-4.08,-3.66,-3.26,-2.75,-2.65,-2.68
450.42,1.46,4.11,1.39,4.03,-4.06,-3.60,-3.22,-2.60,-2.68,-2.65
454.93,1.45,4.05,1.42,4.03,-4.04,-3.55,-3.19,-2.59,-2.62,-2.60
459.48,1.38,3.94,1.48,4.03,-4.01,-3.49,-3.15,-2.63,-2.54,-2.56
464.07,1.52,4.03,1.48,3.99,-3.98,-3.43,-3.12,-2.46,-2.51,-2.51
468.71,1.54,3.99,1.47,3.92,-3.95,-3.37,-3.08,-2.41,-2.49,-2.45
473.40,1.42,3.83,1.48,3.89,-3.92,-3.31,-3.05,-2.50,-2.44,-2.41
478.13,1.43,3.78,1.49,3.85,-3.88,-3.26,-3.01,-2.45,-2.38,-2.35
482.91,1.58,3.89,1.52,3.83,-3.82,-3.20,-2.98,-2.24,-2.30,-2.31
487.74,1.57,3.84,1.54,3.81,-3.74,-3.14,-2.94,-2.17,-2.20,-2.27
492.62,1.48,3.70,1.51,3.74,-3.66,-3.08,-2.91,-2.18,-2.15,-2.22
497.55,1.40,3.60,1.40,3.60,-3.58,-3.02,-2.87,-2.18,-2.17,-2.20
