frequency,raw,error,smoothed,error_smoothed,equalization,parametric_eq,fixed_band_eq,equalized_raw,equalized_smoothed,target
20.00,-2.38,-6.95,-2.38,-6.95,6.94,6.72,2.63,4.56,4.56,4.56
20.20,-2.31,-6.93,-2.32,-6.93,6.93,6.72,2.71,4.61,4.61,4.61
20.40,-2.25,-6.92,-2.25,-6.91,6.91,6.73,2.78,4.66,4.66,4.66
20.61,-2.19,-6.88,-2.19,-6.89,6.89,6.72,2.86,4.70,4.70,4.69
20.81,-2.12,-6.87,-2.12,-6.86,6.86,6.72,2.94,4.74,4.74,4.74
21.02,-2.05,-6.84,-2.06,-6.83,6.83,6.71,3.03,4.78,4.78,4.78
21.23,-2.00,-6.81,-2.00,-6.81,6.80,6.70,3.11,4.80,4.80,4.80
21.44,-1.94,-6.77,-1.95,-6.77,6.77,6.69,3.20,4.83,4.82,4.82
21.66,-1.90,-6.74,-1.89,-6.73,6.73,6.67,3.29,4.84,4.84,4.84
21.87,-1.83,-6.69,-1.84,-6.69,6.69,6.65,3.38,4.86,4.86,4.85
22.09,-1.78,-6.66,-1.78,-6.65,6.65,6.63,3.48,4.86,4.87,4.87
22.31,-1.72,-6.60,-1.73,-6.61,6.60,6.61,3.58,4.87,4.87,4.88
22.54,-1.68,-6.56,-1.67,-6.56,6.55,6.58,3.68,4.87,4.87,4.88
22.76,-1.62,-6.51,-1.62,-6.50,6.50,6.55,3.78,4.87,4.87,4.88
22.99,-1.56,-6.44,-1.57,-6.44,6.44,6.52,3.89,4.88,4.88,4.87
23.22,-1.51,-6.39,-1.51,-6.39,6.39,6.49,3.99,4.88,4.88,4.87
23.45,-1.46,-6.34,-1.46,-6.34,6.35,6.45,4.10,4.88,4.88,4.87
23.69,-1.42,-6.30,-1.42,-6.29,6.31,6.42,4.22,4.89,4.89,4.88
23.92,-1.37,-6.26,-1.37,-6.26,6.27,6.38,4.33,4.89,4.90,4.88
24.16,-1.33,-6.22,-1.34,-6.22,6.23,6.34,4.45,4.90,4.89,4.88
24.40,-1.31,-6.21,-1.31,-6.20,6.20,6.30,4.56,4.88,4.88,4.89
24.65,-1.28,-6.17,-1.29,-6.17,6.16,6.25,4.68,4.87,4.87,4.88
24.89,-1.26,-6.14,-1.26,-6.14,6.11,6.21,4.81,4.85,4.85,4.88
25.14,-1.21,-6.09,-1.20,-6.09,6.06,6.17,4.93,4.85,4.86,4.88
25.39,-1.13,-6.02,-1.14,-6.03,6.01,6.12,5.05,4.88,4.87,4.89
25.65,-1.06,-5.96,-1.06,-5.95,5.96,6.08,5.18,4.90,4.90,4.89
25.91,-1.00,-5.88,-1.00,-5.88,5.91,6.03,5.30,4.92,4.91,4.88
26.16,-0.94,-5.83,-0.95,-5.84,5.86,5.99,5.42,4.92,4.91,4.88
26.43,-0.92,-5.81,-0.92,-5.80,5.82,5.94,5.55,4.89,4.90,4.88
26.69,-0.90,-5.79,-0.90,-5.78,5.78,5.89,5.67,4.88,4.88,4.88
26.96,-0.87,-5.76,-0.88,-5.76,5.75,5.85,5.79,4.87,4.87,4.88
27.23,-0.85,-5.74,-0.85,-5.73,5.72,5.80,5.90,4.86,4.87,4.88
27.50,-0.82,-5.71,-0.82,-5.70,5.69,5.75,6.02,4.87,4.87,4.88
27.77,-0.79,-5.67,-0.80,-5.67,5.67,5.71,6.13,4.87,4.87,4.87
28.05,-0.76,-5.64,-0.77,-5.63,5.64,5.66,6.23,4.87,4.87,4.87
28.33,-0.74,-5.61,-0.74,-5.61,5.61,5.62,6.33,4.87,4.87,4.86
28.62,-0.71,-5.58,-0.71,-5.58,5.59,5.57,6.43,4.87,4.87,4.86
28.90,-0.68,-5.56,-0.69,-5.55,5.56,5.53,6.52,4.88,4.87,4.87
29.19,-0.66,-5.53,-0.66,-5.53,5.53,5.48,6.60,4.87,4.87,4.86
29.48,-0.64,-5.52,-0.65,-5.51,5.51,5.44,6.67,4.86,4.86,4.87
29.78,-0.62,-5.49,-0.63,-5.49,5.48,5.40,6.73,4.86,4.85,4.86
30.08,-0.60,-5.48,-0.60,-5.46,5.45,5.36,6.79,4.85,4.85,4.87
30.38,-0.57,-5.43,-0.56,-5.43,5.42,5.32,6.83,4.85,4.85,4.86
30.68,-0.52,-5.39,-0.53,-5.39,5.39,5.28,6.87,4.86,4.86,4.86
30.99,-0.48,-5.35,-0.49,-5.34,5.35,5.24,6.89,4.87,4.87,4.86
31.30,-0.45,-5.31,-0.45,-5.31,5.32,5.21,6.91,4.86,4.86,4.85
31.61,-0.42,-5.28,-0.43,-5.28,5.29,5.17,6.91,4.86,4.86,4.85
31.93,-0.40,-5.26,-0.40,-5.25,5.25,5.14,6.90,4.85,4.85,4.85
32.24,-0.38,-5.23,-0.38,-5.23,5.22,5.11,6.89,4.84,4.84,4.84
32.57,-0.36,-5.21,-0.36,-5.20,5.20,5.08,6.86,4.84,4.84,4.84
32.89,-0.34,-5.19,-0.34,-5.18,5.18,5.05,6.83,4.84,4.84,4.84
33.22,-0.32,-5.16,-0.33,-5.16,5.17,5.02,6.78,4.84,4.84,4.83
33.55,-0.31,-5.15,-0.31,-5.14,5.15,4.99,6.73,4.84,4.84,4.83
33.89,-0.29,-5.12,-0.30,-5.12,5.13,4.97,6.67,4.84,4.83,4.82
34.23,-0.29,-5.12,-0.30,-5.12,5.11,4.95,6.60,4.82,4.81,4.82
34.57,-0.29,-5.11,-0.30,-5.11,5.09,4.93,6.53,4.79,4.79,4.81
34.92,-0.29,-5.11,-0.28,-5.09,5.06,4.91,6.45,4.77,4.78,4.81
35.27,-0.26,-5.06,-0.25,-5.05,5.04,4.89,6.37,4.79,4.79,4.80
35.62,-0.20,-5.01,-0.21,-5.01,5.02,4.87,6.29,4.82,4.82,4.80
35.97,-0.15,-4.96,-0.17,-4.97,5.00,4.86,6.20,4.85,4.83,4.80
36.33,-0.16,-4.97,-0.17,-4.96,4.99,4.84,6.11,4.83,4.82,4.80
36.70,-0.18,-4.98,-0.18,-4.97,4.98,4.83,6.02,4.80,4.81,4.79
37.06,-0.19,-4.99,-0.19,-4.99,4.98,4.82,5.92,4.78,4.79,4.79
37.43,-0.19,-5.00,-0.20,-4.99,4.98,4.81,5.83,4.78,4.78,4.80
37.81,-0.19,-5.00,-0.20,-4.99,4.98,4.81,5.74,4.79,4.79,4.80
38.19,-0.19,-4.99,-0.19,-4.99,4.99,4.80,5.64,4.80,4.80,4.79
38.57,-0.19,-5.00,-0.19,-5.00,5.00,4.80,5.55,4.80,4.80,4.80
38.95,-0.19,-5.01,-0.19,-5.00,5.00,4.79,5.46,4.81,4.81,4.81
39.34,-0.19,-5.00,-0.19,-5.00,5.00,4.79,5.37,4.81,4.81,4.80
39.74,-0.19,-5.00,-0.19,-5.00,5.00,4.79,5.28,4.81,4.81,4.80
40.14,-0.19,-5.00,-0.19,-4.99,5.00,4.79,5.20,4.81,4.81,4.80
40.54,-0.19,-5.00,-0.19,-4.99,5.00,4.79,5.12,4.80,4.80,4.80
40.94,-0.19,-4.99,-0.20,-4.99,4.98,4.79,5.04,4.79,4.79,4.79
41.35,-0.19,-4.99,-0.20,-4.99,4.96,4.80,4.96,4.77,4.77,4.79
41.76,-0.19,-4.98,-0.19,-4.97,4.94,4.80,4.89,4.75,4.76,4.78
42.18,-0.16,-4.95,-0.15,-4.93,4.92,4.81,4.82,4.75,4.77,4.78
42.60,-0.10,-4.87,-0.11,-4.88,4.89,4.81,4.75,4.79,4.79,4.77
43.03,-0.05,-4.82,-0.08,-4.84,4.87,4.81,4.68,4.81,4.79,4.76
43.46,-0.07,-4.83,-0.07,-4.82,4.84,4.82,4.62,4.77,4.77,4.75
43.90,-0.09,-4.83,-0.09,-4.82,4.82,4.82,4.57,4.73,4.74,4.73
44.33,-0.10,-4.82,-0.10,-4.81,4.80,4.83,4.51,4.70,4.70,4.71
44.78,-0.10,-4.80,-0.11,-4.80,4.79,4.83,4.46,4.68,4.68,4.69
45.23,-0.10,-4.79,-0.11,-4.78,4.78,4.83,4.41,4.68,4.67,4.68
45.68,-0.10,-4.78,-0.10,-4.77,4.77,4.83,4.37,4.67,4.67,4.67
46.13,-0.10,-4.76,-0.10,-4.76,4.76,4.83,4.33,4.66,4.66,4.65
46.60,-0.10,-4.76,-0.10,-4.75,4.75,4.83,4.29,4.65,4.65,4.65
47.06,-0.10,-4.74,-0.10,-4.74,4.74,4.83,4.26,4.64,4.64,4.63
47.53,-0.10,-4.73,-0.10,-4.73,4.73,4.83,4.22,4.62,4.62,4.62
48.01,-0.10,-4.73,-0.10,-4.72,4.71,4.82,4.20,4.61,4.61,4.62
48.49,-0.10,-4.71,-0.10,-4.71,4.70,4.81,4.17,4.59,4.59,4.60
48.97,-0.10,-4.69,-0.10,-4.69,4.69,4.80,4.15,4.58,4.58,4.58
49.46,-0.10,-4.67,-0.10,-4.67,4.68,4.78,4.13,4.57,4.57,4.56
49.96,-0.10,-4.65,-0.10,-4.65,4.67,4.77,4.11,4.56,4.56,4.54
50.46,-0.10,-4.64,-0.10,-4.63,4.65,4.75,4.09,4.55,4.55,4.53
50.96,-0.10,-4.63,-0.12,-4.64,4.63,4.72,4.08,4.53,4.51,4.52
51.47,-0.12,-4.63,-0.13,-4.63,4.61,4.70,4.07,4.49,4.48,4.50
51.99,-0.15,-4.65,-0.11,-4.61,4.59,4.67,4.06,4.43,4.47,4.49
52.51,-0.08,-4.56,-0.08,-4.56,4.55,4.64,4.05,4.48,4.47,4.48
53.03,-0.00,-4.49,-0.04,-4.51,4.52,4.60,4.04,4.51,4.48,4.48
53.56,-0.00,-4.47,-0.00,-4.46,4.47,4.56,4.03,4.47,4.47,4.46
54.10,0.01,-4.45,0.02,-4.43,4.43,4.52,4.02,4.43,4.45,4.45
54.64,0.06,-4.38,0.06,-4.38,4.38,4.48,4.02,4.43,4.44,4.43
55.18,0.12,-4.32,0.11,-4.31,4.33,4.43,4.01,4.44,4.44,4.43
55.74,0.17,-4.25,0.15,-4.26,4.27,4.38,4.00,4.44,4.43,4.41
56.29,0.19,-4.22,0.18,-4.22,4.22,4.33,3.99,4.41,4.40,4.40
56.86,0.19,-4.21,0.20,-4.18,4.18,4.27,3.99,4.36,4.37,4.39
57.42,0.23,-4.14,0.23,-4.14,4.13,4.22,3.98,4.35,4.36,4.36
58.00,0.29,-4.07,0.29,-4.07,4.07,4.16,3.96,4.36,4.36,4.35
58.58,0.35,-4.00,0.34,-4.00,4.01,4.09,3.95,4.36,4.35,4.34
59.16,0.39,-3.94,0.37,-3.95,3.95,4.03,3.93,4.34,4.32,4.32
59.76,0.39,-3.92,0.40,-3.90,3.88,3.97,3.91,4.27,4.28,4.30
60.35,0.42,-3.85,0.43,-3.83,3.81,3.90,3.89,4.22,4.24,4.26
60.96,0.48,-3.75,0.48,-3.75,3.74,3.83,3.87,4.21,4.21,4.22
61.57,0.54,-3.65,0.53,-3.65,3.67,3.77,3.84,4.20,4.20,4.18
62.18,0.58,-3.57,0.56,-3.57,3.60,3.70,3.81,4.18,4.17,4.14
62.80,0.58,-3.52,0.58,-3.51,3.54,3.63,3.78,4.11,4.12,4.09
63.43,0.58,-3.48,0.58,-3.47,3.48,3.56,3.74,4.05,4.06,4.05
64.07,0.58,-3.43,0.58,-3.43,3.42,3.49,3.70,4.00,4.00,4.00
64.71,0.58,-3.39,0.58,-3.39,3.38,3.42,3.66,3.95,3.95,3.96
65.35,0.58,-3.35,0.58,-3.34,3.33,3.35,3.62,3.91,3.91,3.92
66.01,0.58,-3.30,0.58,-3.30,3.29,3.27,3.57,3.87,3.87,3.87
66.67,0.58,-3.25,0.58,-3.25,3.25,3.21,3.52,3.82,3.82,3.82
67.33,0.58,-3.20,0.58,-3.20,3.20,3.14,3.46,3.78,3.78,3.77
68.01,0.58,-3.16,0.58,-3.15,3.15,3.07,3.41,3.73,3.73,3.73
68.69,0.58,-3.11,0.58,-3.11,3.11,3.00,3.35,3.68,3.68,3.68
69.37,0.58,-3.06,0.58,-3.06,3.06,2.93,3.29,3.63,3.63,3.63
70.07,0.58,-3.01,0.58,-3.01,3.00,2.86,3.23,3.58,3.58,3.58
70.77,0.58,-2.96,0.58,-2.96,2.95,2.80,3.16,3.53,3.53,3.53
71.48,0.58,-2.91,0.58,-2.90,2.90,2.73,3.10,3.47,3.47,3.48
72.19,0.58,-2.84,0.58,-2.84,2.84,2.67,3.03,3.41,3.41,3.41
72.91,0.58,-2.78,0.58,-2.78,2.78,2.61,2.97,3.35,3.35,3.35
73.64,0.58,-2.73,0.58,-2.72,2.71,2.54,2.90,3.29,3.29,3.30
74.38,0.58,-2.67,0.57,-2.67,2.66,2.48,2.83,3.23,3.23,3.24
75.12,0.58,-2.61,0.58,-2.60,2.60,2.42,2.76,3.18,3.18,3.18
75.87,0.58,-2.55,0.59,-2.53,2.56,2.36,2.70,3.13,3.15,3.12
76.63,0.61,-2.47,0.58,-2.49,2.52,2.31,2.63,3.12,3.10,3.07
77.40,0.58,-2.45,0.56,-2.46,2.48,2.25,2.56,3.05,3.04,3.02
78.17,0.50,-2.47,0.52,-2.45,2.44,2.19,2.50,2.94,2.96,2.96
78.95,0.48,-2.45,0.48,-2.43,2.41,2.14,2.43,2.88,2.89,2.92
79.74,0.48,-2.40,0.47,-2.40,2.37,2.09,2.37,2.85,2.84,2.87
80.54,0.48,-2.35,0.47,-2.35,2.34,2.03,2.31,2.81,2.81,2.82
81.35,0.48,-2.30,0.48,-2.30,2.30,1.98,2.24,2.78,2.78,2.77
82.16,0.48,-2.25,0.48,-2.25,2.26,1.93,2.18,2.73,2.73,2.72
82.98,0.48,-2.21,0.48,-2.20,2.21,1.88,2.12,2.69,2.69,2.68
83.81,0.48,-2.16,0.48,-2.16,2.16,1.84,2.06,2.64,2.64,2.63
84.65,0.48,-2.11,0.48,-2.11,2.11,1.79,2.01,2.59,2.59,2.58
85.50,0.48,-2.07,0.48,-2.06,2.06,1.74,1.95,2.54,2.54,2.54
86.35,0.48,-2.02,0.48,-2.02,2.01,1.70,1.89,2.49,2.49,2.49
87.22,0.48,-1.97,0.47,-1.97,1.96,1.66,1.84,2.44,2.44,2.44
88.09,0.48,-1.92,0.48,-1.91,1.91,1.61,1.79,2.38,2.38,2.39
88.97,0.48,-1.86,0.48,-1.86,1.85,1.57,1.74,2.32,2.33,2.33
89.86,0.49,-1.80,0.48,-1.80,1.79,1.53,1.69,2.28,2.28,2.28
90.76,0.49,-1.75,0.49,-1.74,1.74,1.49,1.64,2.23,2.23,2.23
91.66,0.49,-1.70,0.49,-1.69,1.70,1.45,1.59,2.19,2.19,2.18
92.58,0.49,-1.64,0.49,-1.64,1.66,1.42,1.55,2.15,2.15,2.12
93.51,0.49,-1.59,0.48,-1.60,1.62,1.38,1.50,2.11,2.10,2.07
94.44,0.46,-1.58,0.44,-1.59,1.59,1.34,1.46,2.04,2.03,2.03
95.39,0.40,-1.59,0.40,-1.58,1.56,1.31,1.41,1.96,1.96,1.98
96.34,0.35,-1.59,0.38,-1.55,1.53,1.27,1.37,1.88,1.91,1.93
97.30,0.37,-1.52,0.36,-1.52,1.51,1.24,1.33,1.87,1.87,1.88
98.28,0.41,-1.43,0.36,-1.48,1.48,1.20,1.29,1.88,1.84,1.83
99.26,0.32,-1.48,0.35,-1.44,1.45,1.17,1.26,1.76,1.80,1.79
100.25,0.33,-1.42,0.33,-1.41,1.41,1.14,1.22,1.74,1.74,1.74
101.25,0.32,-1.38,0.31,-1.38,1.37,1.11,1.18,1.69,1.68,1.69
102.27,0.31,-1.34,0.31,-1.33,1.33,1.08,1.15,1.64,1.64,1.64
103.29,0.30,-1.30,0.29,-1.30,1.30,1.05,1.11,1.59,1.59,1.59
104.32,0.28,-1.28,0.28,-1.27,1.27,1.02,1.08,1.55,1.56,1.55
105.37,0.27,-1.24,0.27,-1.23,1.25,0.99,1.05,1.52,1.53,1.50
106.42,0.26,-1.20,0.24,-1.21,1.24,0.96,1.02,1.49,1.48,1.45
107.48,0.21,-1.19,0.19,-1.21,1.22,0.93,0.99,1.43,1.41,1.39
108.56,0.11,-1.24,0.13,-1.21,1.21,0.90,0.96,1.31,1.33,1.34
109.64,0.07,-1.23,0.07,-1.22,1.19,0.88,0.93,1.26,1.26,1.29
110.74,0.05,-1.19,0.04,-1.20,1.17,0.85,0.90,1.22,1.21,1.23
111.85,0.03,-1.17,0.03,-1.16,1.15,0.82,0.87,1.17,1.17,1.19
112.97,0.02,-1.12,0.01,-1.12,1.12,0.80,0.84,1.13,1.13,1.13
114.10,0.01,-1.08,0.01,-1.08,1.08,0.77,0.82,1.08,1.08,1.08
115.24,0.01,-1.03,0.01,-1.02,1.03,0.75,0.79,1.04,1.04,1.03
116.39,0.01,-0.98,0.01,-0.98,0.98,0.72,0.76,0.99,0.99,0.98
117.55,0.02,-0.93,0.01,-0.93,0.93,0.70,0.74,0.95,0.95,0.94
118.73,0.02,-0.89,0.02,-0.88,0.89,0.67,0.71,0.90,0.91,0.90
119.92,0.03,-0.85,0.03,-0.84,0.85,0.65,0.69,0.87,0.87,0.87
121.12,0.04,-0.80,0.03,-0.80,0.80,0.63,0.67,0.84,0.83,0.83
122.33,0.04,-0.77,0.04,-0.76,0.76,0.60,0.64,0.80,0.80,0.80
123.55,0.05,-0.73,0.05,-0.72,0.72,0.58,0.62,0.76,0.77,0.77
124.79,0.06,-0.69,0.05,-0.69,0.68,0.56,0.59,0.73,0.73,0.74
126.03,0.07,-0.65,0.06,-0.65,0.64,0.53,0.57,0.71,0.70,0.71
127.29,0.07,-0.63,0.07,-0.61,0.61,0.51,0.55,0.68,0.68,0.69
128.57,0.08,-0.58,0.08,-0.57,0.58,0.49,0.53,0.66,0.67,0.65
129.85,0.10,-0.53,0.07,-0.55,0.57,0.46,0.50,0.66,0.64,0.62
131.15,0.06,-0.54,0.06,-0.53,0.55,0.44,0.48,0.61,0.61,0.59
132.46,0.02,-0.55,0.03,-0.53,0.55,0.42,0.46,0.56,0.58,0.56
133.79,-0.00,-0.54,-0.01,-0.54,0.54,0.39,0.44,0.54,0.53,0.53
135.12,-0.03,-0.54,-0.05,-0.55,0.54,0.37,0.42,0.50,0.49,0.50
136.48,-0.09,-0.58,-0.08,-0.55,0.53,0.35,0.40,0.44,0.45,0.48
137.84,-0.10,-0.55,-0.10,-0.54,0.52,0.32,0.38,0.42,0.43,0.44
139.22,-0.09,-0.51,-0.10,-0.51,0.51,0.30,0.35,0.41,0.41,0.41
140.61,-0.08,-0.47,-0.10,-0.48,0.49,0.28,0.33,0.40,0.39,0.38
142.02,-0.09,-0.46,-0.09,-0.45,0.46,0.25,0.31,0.36,0.37,0.36
143.44,-0.10,-0.44,-0.08,-0.40,0.42,0.23,0.29,0.32,0.35,0.33
144.87,-0.03,-0.33,-0.08,-0.37,0.37,0.20,0.27,0.34,0.30,0.29
146.32,-0.07,-0.33,-0.08,-0.33,0.32,0.17,0.25,0.24,0.24,0.25
147.78,-0.10,-0.33,-0.06,-0.28,0.25,0.15,0.23,0.15,0.19,0.22
149.26,-0.04,-0.22,-0.05,-0.22,0.19,0.12,0.21,0.14,0.14,0.17
150.75,0.01,-0.11,-0.01,-0.12,0.12,0.09,0.19,0.12,0.10,0.11
152.26,0.02,-0.03,0.02,-0.03,0.05,0.07,0.17,0.06,0.06,0.04
153.78,0.02,0.04,0.02,0.05,-0.02,0.04,0.15,-0.01,0.00,-0.03
155.32,0.02,0.11,0.02,0.12,-0.10,0.01,0.12,-0.08,-0.07,-0.10
156.88,0.02,0.19,-0.01,0.17,-0.16,-0.02,0.10,-0.15,-0.17,-0.18
158.44,-0.03,0.22,-0.04,0.22,-0.22,-0.06,0.08,-0.26,-0.27,-0.26
160.03,-0.10,0.23,-0.07,0.26,-0.28,-0.09,0.06,-0.38,-0.35,-0.34
161.63,-0.09,0.31,-0.10,0.31,-0.33,-0.12,0.04,-0.42,-0.42,-0.41
163.24,-0.08,0.38,-0.10,0.37,-0.37,-0.16,0.02,-0.46,-0.47,-0.47
164.88,-0.09,0.42,-0.09,0.43,-0.42,-0.19,-0.00,-0.51,-0.51,-0.52
166.53,-0.09,0.47,-0.10,0.47,-0.46,-0.23,-0.02,-0.56,-0.56,-0.57
168.19,-0.10,0.50,-0.11,0.50,-0.51,-0.27,-0.05,-0.61,-0.62,-0.61
169.87,-0.12,0.52,-0.11,0.54,-0.55,-0.31,-0.07,-0.67,-0.66,-0.65
171.57,-0.10,0.56,-0.09,0.58,-0.58,-0.35,-0.09,-0.69,-0.67,-0.67
173.29,-0.04,0.63,-0.06,0.62,-0.61,-0.39,-0.11,-0.65,-0.67,-0.68
175.02,-0.03,0.65,-0.04,0.65,-0.63,-0.43,-0.13,-0.66,-0.67,-0.69
176.77,-0.03,0.66,-0.03,0.67,-0.65,-0.48,-0.16,-0.68,-0.68,-0.70
178.54,-0.03,0.67,-0.03,0.67,-0.66,-0.52,-0.18,-0.70,-0.70,-0.71
180.32,-0.03,0.66,-0.03,0.67,-0.67,-0.57,-0.20,-0.71,-0.71,-0.70
182.13,-0.02,0.66,-0.03,0.67,-0.68,-0.61,-0.23,-0.71,-0.71,-0.69
183.95,-0.01,0.68,-0.01,0.68,-0.70,-0.66,-0.25,-0.71,-0.71,-0.70
185.79,-0.00,0.69,-0.00,0.70,-0.71,-0.71,-0.27,-0.72,-0.71,-0.70
187.65,0.02,0.73,0.01,0.73,-0.73,-0.75,-0.30,-0.71,-0.72,-0.72
189.52,0.03,0.75,0.03,0.76,-0.76,-0.80,-0.32,-0.73,-0.73,-0.73
191.42,0.04,0.78,0.04,0.79,-0.79,-0.84,-0.35,-0.75,-0.75,-0.75
193.33,0.06,0.82,0.05,0.82,-0.83,-0.88,-0.37,-0.77,-0.77,-0.77
195.27,0.07,0.85,0.07,0.86,-0.86,-0.91,-0.40,-0.80,-0.79,-0.79
197.22,0.09,0.89,0.08,0.89,-0.89,-0.95,-0.42,-0.81,-0.81,-0.81
199.19,0.10,0.92,0.10,0.93,-0.92,-0.98,-0.44,-0.83,-0.82,-0.83
201.18,0.11,0.95,0.11,0.96,-0.94,-1.00,-0.47,-0.84,-0.83,-0.85
203.19,0.12,0.98,0.11,0.98,-0.96,-1.02,-0.49,-0.84,-0.85,-0.87
205.23,0.11,0.99,0.10,0.98,-0.97,-1.03,-0.52,-0.86,-0.87,-0.89
207.28,0.07,0.96,0.07,0.97,-0.98,-1.04,-0.54,-0.91,-0.91,-0.90
209.35,0.03,0.94,0.03,0.96,-0.98,-1.04,-0.56,-0.95,-0.94,-0.92
211.44,0.01,0.95,0.01,0.95,-0.97,-1.04,-0.59,-0.97,-0.96,-0.95
213.56,0.01,0.96,0.01,0.97,-0.97,-1.03,-0.61,-0.96,-0.96,-0.96
215.69,0.01,0.97,-0.00,0.97,-0.96,-1.01,-0.63,-0.95,-0.96,-0.97
217.85,-0.00,0.97,-0.03,0.96,-0.95,-0.99,-0.66,-0.96,-0.98,-0.98
220.03,-0.07,0.91,-0.06,0.93,-0.94,-0.97,-0.68,-1.02,-1.00,-0.99
222.23,-0.10,0.91,-0.09,0.91,-0.93,-0.94,-0.70,-1.03,-1.02,-1.02
224.45,-0.10,0.90,-0.10,0.91,-0.90,-0.92,-0.72,-1.01,-1.01,-1.01
226.70,-0.10,0.90,-0.10,0.91,-0.87,-0.89,-0.73,-0.98,-0.98,-1.01
228.96,-0.10,0.89,-0.13,0.87,-0.84,-0.85,-0.75,-0.95,-0.97,-1.00
231.25,-0.17,0.81,-0.18,0.81,-0.81,-0.82,-0.77,-0.99,-0.99,-0.99
233.57,-0.25,0.72,-0.23,0.75,-0.78,-0.79,-0.78,-1.03,-1.01,-0.98
235.90,-0.26,0.70,-0.26,0.71,-0.75,-0.75,-0.80,-1.01,-1.00,-0.97
238.26,-0.24,0.71,-0.25,0.70,-0.71,-0.72,-0.81,-0.96,-0.96,-0.96
240.64,-0.23,0.69,-0.23,0.70,-0.68,-0.69,-0.82,-0.91,-0.91,-0.93
243.05,-0.22,0.67,-0.23,0.67,-0.65,-0.66,-0.83,-0.88,-0.89,-0.90
245.48,-0.23,0.64,-0.24,0.64,-0.63,-0.63,-0.84,-0.87,-0.88,-0.88
247.93,-0.26,0.58,-0.25,0.60,-0.62,-0.60,-0.84,-0.88,-0.86,-0.85
250.41,-0.24,0.58,-0.25,0.58,-0.60,-0.57,-0.85,-0.84,-0.84,-0.83
252.92,-0.23,0.56,-0.23,0.57,-0.57,-0.55,-0.85,-0.81,-0.80,-0.80
255.45,-0.21,0.56,-0.22,0.56,-0.54,-0.52,-0.85,-0.75,-0.76,-0.78
258.00,-0.21,0.54,-0.23,0.53,-0.51,-0.50,-0.85,-0.72,-0.73,-0.76
260.58,-0.24,0.49,-0.25,0.49,-0.47,-0.48,-0.85,-0.72,-0.72,-0.74
263.19,-0.29,0.41,-0.28,0.43,-0.44,-0.46,-0.84,-0.73,-0.72,-0.71
265.82,-0.30,0.38,-0.30,0.39,-0.40,-0.44,-0.84,-0.71,-0.70,-0.69
268.48,-0.30,0.36,-0.31,0.36,-0.37,-0.42,-0.83,-0.67,-0.68,-0.67
271.16,-0.30,0.33,-0.31,0.33,-0.34,-0.40,-0.82,-0.65,-0.65,-0.64
273.87,-0.31,0.30,-0.31,0.30,-0.32,-0.38,-0.81,-0.63,-0.63,-0.62
276.61,-0.31,0.27,-0.30,0.29,-0.30,-0.37,-0.80,-0.62,-0.60,-0.59
279.38,-0.27,0.28,-0.27,0.29,-0.29,-0.36,-0.79,-0.56,-0.56,-0.56
282.17,-0.22,0.31,-0.24,0.30,-0.27,-0.34,-0.78,-0.50,-0.51,-0.54
284.99,-0.20,0.29,-0.21,0.29,-0.26,-0.33,-0.76,-0.47,-0.48,-0.50
287.84,-0.20,0.27,-0.20,0.28,-0.26,-0.32,-0.75,-0.46,-0.46,-0.48
290.72,-0.19,0.25,-0.19,0.26,-0.26,-0.31,-0.74,-0.46,-0.45,-0.45
293.63,-0.17,0.24,-0.19,0.23,-0.27,-0.30,-0.72,-0.44,-0.46,-0.42
296.57,-0.16,0.22,-0.16,0.23,-0.27,-0.29,-0.71,-0.44,-0.43,-0.39
299.53,-0.13,0.22,-0.10,0.26,-0.28,-0.28,-0.69,-0.41,-0.37,-0.36
302.53,0.01,0.34,-0.02,0.31,-0.28,-0.28,-0.67,-0.28,-0.31,-0.34
305.55,0.06,0.35,0.04,0.34,-0.29,-0.27,-0.66,-0.24,-0.25,-0.30
308.61,0.08,0.35,0.08,0.35,-0.31,-0.26,-0.64,-0.24,-0.24,-0.28
311.69,0.08,0.32,0.07,0.32,-0.34,-0.26,-0.63,-0.26,-0.26,-0.25
314.81,0.09,0.31,0.09,0.32,-0.36,-0.25,-0.61,-0.28,-0.27,-0.23
317.96,0.12,0.32,0.14,0.35,-0.39,-0.25,-0.59,-0.27,-0.25,-0.21
321.14,0.22,0.41,0.20,0.40,-0.42,-0.24,-0.58,-0.20,-0.22,-0.20
324.35,0.29,0.46,0.27,0.45,-0.45,-0.24,-0.56,-0.16,-0.18,-0.18
327.59,0.33,0.49,0.33,0.50,-0.48,-0.23,-0.55,-0.15,-0.15,-0.17
330.87,0.36,0.51,0.38,0.53,-0.51,-0.23,-0.53,-0.15,-0.13,-0.16
334.18,0.44,0.57,0.42,0.56,-0.54,-0.23,-0.52,-0.10,-0.11,-0.14
337.52,0.47,0.59,0.45,0.58,-0.56,-0.23,-0.50,-0.09,-0.10,-0.13
340.90,0.47,0.58,0.46,0.58,-0.57,-0.22,-0.49,-0.11,-0.11,-0.12
344.30,0.46,0.56,0.46,0.57,-0.59,-0.22,-0.47,-0.13,-0.13,-0.11
347.75,0.46,0.56,0.47,0.58,-0.61,-0.22,-0.46,-0.15,-0.14,-0.11
351.23,0.50,0.59,0.49,0.60,-0.63,-0.22,-0.45,-0.13,-0.14,-0.10
354.74,0.55,0.65,0.53,0.64,-0.65,-0.22,-0.44,-0.11,-0.12,-0.11
358.28,0.57,0.66,0.58,0.68,-0.68,-0.21,-0.42,-0.12,-0.10,-0.10
361.87,0.64,0.73,0.63,0.73,-0.72,-0.21,-0.41,-0.08,-0.09,-0.10
365.49,0.68,0.76,0.66,0.76,-0.75,-0.21,-0.40,-0.07,-0.09,-0.09
369.14,0.69,0.78,0.69,0.78,-0.78,-0.21,-0.39,-0.09,-0.09,-0.10
372.83,0.69,0.78,0.70,0.80,-0.79,-0.21,-0.38,-0.11,-0.10,-0.10
376.56,0.70,0.80,0.70,0.80,-0.79,-0.21,-0.37,-0.10,-0.09,-0.11
380.33,0.71,0.80,0.69,0.79,-0.78,-0.21,-0.36,-0.07,-0.09,-0.10
384.13,0.66,0.75,0.65,0.76,-0.74,-0.21,-0.35,-0.08,-0.09,-0.10
387.97,0.60,0.70,0.61,0.72,-0.69,-0.21,-0.34,-0.09,-0.08,-0.11
391.85,0.54,0.65,0.54,0.65,-0.63,-0.21,-0.33,-0.09,-0.09,-0.12
395.77,0.50,0.60,0.46,0.57,-0.57,-0.21,-0.32,-0.07,-0.11,-0.11
399.73,0.36,0.47,0.37,0.49,-0.51,-0.21,-0.32,-0.15,-0.14,-0.12
403.72,0.28,0.39,0.29,0.42,-0.46,-0.21,-0.31,-0.18,-0.17,-0.12
407.76,0.24,0.37,0.24,0.37,-0.42,-0.21,-0.30,-0.18,-0.18,-0.14
411.84,0.23,0.36,0.22,0.36,-0.40,-0.21,-0.29,-0.17,-0.18,-0.14
415.96,0.23,0.36,0.22,0.36,-0.39,-0.21,-0.29,-0.16,-0.17,-0.14
420.12,0.23,0.36,0.23,0.37,-0.39,-0.21,-0.28,-0.16,-0.16,-0.14
424.32,0.24,0.37,0.24,0.38,-0.38,-0.21,-0.27,-0.14,-0.14,-0.14
428.56,0.25,0.37,0.25,0.38,-0.35,-0.22,-0.27,-0.10,-0.10,-0.13
432.85,0.25,0.36,0.25,0.37,-0.29,-0.22,-0.26,-0.05,-0.05,-0.12
437.18,0.21,0.31,0.20,0.30,-0.21,-0.22,-0.25,-0.01,-0.01,-0.11
441.55,0.14,0.20,0.10,0.17,-0.11,-0.22,-0.25,0.03,-0.01,-0.07
445.96,-0.05,-0.02,-0.04,-0.00,0.02,-0.22,-0.24,-0.03,-0.02,-0.04
450.42,-0.21,-0.21,-0.19,-0.19,0.16,-0.22,-0.23,-0.05,-0.03,-0.01
454.93,-0.31,-0.36,-0.31,-0.35,0.30,-0.22,-0.23,-0.02,-0.02,0.04
459.48,-0.37,-0.46,-0.38,-0.47,0.42,-0.22,-0.22,0.05,0.04,0.08
464.07,-0.43,-0.57,-0.43,-0.56,0.52,-0.22,-0.21,0.09,0.09,0.13
468.71,-0.43,-0.63,-0.44,-0.63,0.59,-0.22,-0.21,0.16,0.15,0.19
473.40,-0.43,-0.67,-0.42,-0.66,0.63,-0.22,-0.20,0.20,0.21,0.23
478.13,-0.36,-0.66,-0.35,-0.64,0.64,-0.22,-0.19,0.28,0.29,0.29
482.91,-0.25,-0.59,-0.26,-0.59,0.63,-0.22,-0.19,0.37,0.37,0.33
487.74,-0.15,-0.53,-0.17,-0.55,0.58,-0.23,-0.18,0.43,0.41,0.37
492.62,-0.08,-0.51,-0.12,-0.54,0.52,-0.23,-0.17,0.43,0.40,0.42
497.55,-0.08,-0.53,-0.04,-0.49,0.45,-0.23,-0.17,0.36,0.40,0.44
502.52,0.01,-0.47,0.06,-0.40,0.37,-0.23,-0.16,0.37,0.43,0.47
