frequency,raw,error,smoothed,error_smoothed,equalization,parametric_eq,fixed_band_eq,equalized_raw,equalized_smoothed,target
20.00,-3.15,-8.69,-3.15,-8.72,8.72,8.64,3.20,5.56,5.56,5.53
20.20,-3.08,-8.67,-3.08,-8.69,8.69,8.62,3.29,5.60,5.60,5.58
20.40,-3.02,-8.66,-3.02,-8.65,8.65,8.59,3.39,5.63,5.64,5.63
20.61,-2.95,-8.62,-2.95,-8.62,8.62,8.57,3.48,5.67,5.67,5.66
20.81,-2.89,-8.61,-2.89,-8.59,8.59,8.54,3.58,5.69,5.70,5.71
21.02,-2.82,-8.57,-2.82,-8.55,8.55,8.51,3.68,5.73,5.73,5.75
21.23,-2.76,-8.53,-2.76,-8.51,8.51,8.47,3.79,5.75,5.75,5.77
21.44,-2.70,-8.49,-2.70,-8.47,8.47,8.44,3.89,5.77,5.77,5.79
21.66,-2.63,-8.44,-2.63,-8.43,8.43,8.41,4.00,5.79,5.79,5.81
21.87,-2.57,-8.39,-2.57,-8.38,8.38,8.37,4.11,5.81,5.81,5.82
22.09,-2.50,-8.34,-2.51,-8.34,8.34,8.33,4.23,5.84,5.83,5.84
22.31,-2.44,-8.29,-2.45,-8.29,8.29,8.29,4.35,5.85,5.84,5.85
22.54,-2.38,-8.23,-2.39,-8.24,8.24,8.25,4.47,5.85,5.84,5.85
22.76,-2.32,-8.17,-2.33,-8.18,8.18,8.21,4.60,5.86,5.85,5.85
22.99,-2.25,-8.09,-2.27,-8.12,8.12,8.16,4.73,5.87,5.85,5.84
23.22,-2.21,-8.05,-2.22,-8.07,8.07,8.12,4.86,5.85,5.85,5.84
23.45,-2.16,-8.00,-2.16,-8.01,8.01,8.07,4.99,5.85,5.85,5.84
23.69,-2.12,-7.97,-2.10,-7.95,7.95,8.03,5.13,5.83,5.85,5.84
23.92,-2.07,-7.92,-2.04,-7.90,7.90,7.98,5.27,5.82,5.85,5.84
24.16,-2.01,-7.86,-1.99,-7.84,7.84,7.93,5.41,5.83,5.85,5.85
24.40,-1.94,-7.80,-1.93,-7.78,7.78,7.88,5.56,5.84,5.85,5.86
24.65,-1.87,-7.72,-1.87,-7.72,7.72,7.83,5.71,5.85,5.85,5.85
24.89,-1.80,-7.65,-1.82,-7.67,7.67,7.78,5.86,5.86,5.85,5.85
25.14,-1.74,-7.59,-1.76,-7.61,7.61,7.73,6.01,5.87,5.85,5.85
25.39,-1.69,-7.55,-1.70,-7.56,7.56,7.68,6.17,5.87,5.85,5.86
25.65,-1.65,-7.51,-1.65,-7.51,7.51,7.63,6.32,5.85,5.85,5.86
25.91,-1.60,-7.45,-1.60,-7.45,7.45,7.57,6.48,5.85,5.85,5.85
26.16,-1.55,-7.40,-1.55,-7.40,7.40,7.52,6.63,5.85,5.85,5.85
26.43,-1.49,-7.34,-1.51,-7.35,7.35,7.47,6.79,5.86,5.85,5.84
26.69,-1.44,-7.28,-1.46,-7.31,7.31,7.41,6.94,5.86,5.85,5.84
26.96,-1.39,-7.24,-1.42,-7.26,7.26,7.36,7.09,5.87,5.84,5.85
27.23,-1.36,-7.21,-1.38,-7.22,7.22,7.30,7.24,5.85,5.84,5.85
27.50,-1.33,-7.18,-1.33,-7.17,7.17,7.25,7.39,5.84,5.84,5.85
27.77,-1.31,-7.15,-1.29,-7.13,7.13,7.19,7.53,5.82,5.84,5.84
28.05,-1.28,-7.12,-1.25,-7.08,7.08,7.14,7.67,5.80,5.84,5.84
28.33,-1.22,-7.05,-1.20,-7.03,7.03,7.08,7.80,5.81,5.83,5.82
28.62,-1.17,-7.00,-1.15,-6.98,6.98,7.03,7.93,5.81,5.83,5.82
28.90,-1.11,-6.94,-1.10,-6.93,6.93,6.97,8.04,5.82,5.83,5.83
29.19,-1.05,-6.87,-1.05,-6.88,6.88,6.92,8.15,5.82,5.83,5.82
29.48,-1.00,-6.84,-1.00,-6.83,6.83,6.86,8.24,5.82,5.83,5.84
29.78,-0.94,-6.77,-0.95,-6.77,6.77,6.81,8.33,5.83,5.82,5.82
30.08,-0.89,-6.73,-0.90,-6.72,6.72,6.76,8.40,5.83,5.82,5.83
30.38,-0.83,-6.65,-0.85,-6.67,6.67,6.70,8.46,5.84,5.82,5.82
30.68,-0.77,-6.59,-0.80,-6.62,6.62,6.65,8.50,5.85,5.82,5.82
30.99,-0.71,-6.53,-0.76,-6.57,6.57,6.60,8.53,5.86,5.82,5.82
31.30,-0.69,-6.51,-0.71,-6.53,6.53,6.54,8.55,5.83,5.81,5.81
31.61,-0.67,-6.48,-0.67,-6.48,6.48,6.49,8.55,5.81,5.81,5.81
31.93,-0.65,-6.46,-0.63,-6.44,6.44,6.44,8.54,5.79,5.81,5.81
32.24,-0.62,-6.42,-0.60,-6.40,6.40,6.39,8.52,5.78,5.80,5.80
32.57,-0.58,-6.39,-0.56,-6.36,6.36,6.34,8.48,5.78,5.80,5.80
32.89,-0.53,-6.33,-0.53,-6.32,6.32,6.29,8.43,5.79,5.79,5.80
33.22,-0.50,-6.29,-0.50,-6.29,6.29,6.24,8.37,5.78,5.79,5.79
33.55,-0.46,-6.25,-0.47,-6.25,6.25,6.19,8.30,5.79,5.78,5.78
33.89,-0.43,-6.20,-0.44,-6.21,6.21,6.15,8.22,5.78,5.78,5.77
34.23,-0.40,-6.18,-0.40,-6.18,6.18,6.10,8.13,5.77,5.77,5.78
34.57,-0.36,-6.13,-0.37,-6.14,6.14,6.05,8.03,5.77,5.77,5.76
34.92,-0.33,-6.09,-0.33,-6.10,6.10,6.01,7.92,5.76,5.76,5.76
35.27,-0.30,-6.06,-0.30,-6.05,6.05,5.97,7.82,5.75,5.76,5.76
35.62,-0.26,-6.01,-0.26,-6.01,6.01,5.92,7.70,5.75,5.75,5.75
35.97,-0.23,-5.98,-0.22,-5.97,5.97,5.88,7.59,5.74,5.75,5.75
36.33,-0.20,-5.96,-0.18,-5.93,5.93,5.84,7.47,5.73,5.75,5.75
36.70,-0.16,-5.90,-0.15,-5.90,5.90,5.80,7.35,5.73,5.75,5.74
37.06,-0.12,-5.86,-0.12,-5.86,5.86,5.76,7.23,5.74,5.75,5.74
37.43,-0.09,-5.84,-0.09,-5.83,5.83,5.72,7.11,5.74,5.75,5.75
37.81,-0.05,-5.80,-0.06,-5.81,5.81,5.68,6.99,5.75,5.74,5.75
38.19,-0.01,-5.75,-0.04,-5.78,5.78,5.65,6.87,5.77,5.74,5.74
38.57,0.02,-5.73,-0.01,-5.76,5.76,5.61,6.75,5.78,5.74,5.74
38.95,0.06,-5.69,0.01,-5.73,5.73,5.58,6.64,5.79,5.74,5.75
39.34,0.06,-5.69,0.03,-5.71,5.71,5.55,6.52,5.77,5.74,5.74
39.74,0.06,-5.68,0.06,-5.68,5.68,5.52,6.41,5.74,5.74,5.74
40.14,0.06,-5.68,0.08,-5.66,5.66,5.49,6.31,5.72,5.74,5.74
40.54,0.06,-5.68,0.10,-5.63,5.63,5.46,6.21,5.69,5.73,5.73
40.94,0.06,-5.67,0.12,-5.61,5.61,5.43,6.11,5.67,5.73,5.73
41.35,0.10,-5.62,0.14,-5.59,5.59,5.40,6.01,5.68,5.72,5.72
41.76,0.14,-5.58,0.15,-5.56,5.56,5.37,5.92,5.70,5.71,5.71
42.18,0.18,-5.54,0.17,-5.53,5.53,5.35,5.83,5.71,5.71,5.72
42.60,0.21,-5.49,0.19,-5.51,5.51,5.33,5.75,5.72,5.69,5.70
43.03,0.25,-5.44,0.20,-5.48,5.48,5.30,5.67,5.73,5.68,5.69
43.46,0.25,-5.43,0.21,-5.46,5.46,5.28,5.59,5.70,5.67,5.68
43.90,0.25,-5.41,0.22,-5.43,5.43,5.26,5.52,5.68,5.65,5.65
44.33,0.25,-5.39,0.23,-5.41,5.41,5.24,5.46,5.66,5.64,5.63
44.78,0.25,-5.37,0.24,-5.38,5.38,5.22,5.40,5.63,5.63,5.62
45.23,0.25,-5.36,0.25,-5.36,5.36,5.20,5.34,5.61,5.61,5.61
45.68,0.25,-5.34,0.26,-5.33,5.33,5.19,5.28,5.58,5.59,5.59
46.13,0.25,-5.32,0.26,-5.31,5.31,5.17,5.23,5.56,5.58,5.56
46.60,0.25,-5.32,0.27,-5.29,5.29,5.15,5.19,5.54,5.56,5.56
47.06,0.25,-5.29,0.27,-5.27,5.27,5.14,5.14,5.52,5.54,5.54
47.53,0.25,-5.28,0.27,-5.25,5.25,5.12,5.11,5.50,5.53,5.53
48.01,0.25,-5.28,0.28,-5.23,5.23,5.11,5.07,5.48,5.51,5.53
48.49,0.30,-5.21,0.29,-5.20,5.20,5.10,5.04,5.50,5.49,5.51
48.97,0.35,-5.14,0.31,-5.17,5.17,5.08,5.01,5.52,5.48,5.48
49.46,0.35,-5.11,0.32,-5.15,5.15,5.07,4.98,5.49,5.46,5.46
49.96,0.35,-5.09,0.33,-5.12,5.12,5.06,4.96,5.47,5.45,5.44
50.46,0.35,-5.08,0.34,-5.09,5.09,5.04,4.94,5.44,5.43,5.43
50.96,0.35,-5.07,0.36,-5.06,5.06,5.03,4.92,5.40,5.42,5.42
51.47,0.36,-5.03,0.38,-5.03,5.03,5.02,4.91,5.38,5.40,5.39
51.99,0.37,-5.01,0.39,-4.99,4.99,5.00,4.89,5.36,5.39,5.38
52.51,0.41,-4.96,0.41,-4.96,4.96,4.99,4.88,5.37,5.37,5.37
53.03,0.45,-4.91,0.43,-4.93,4.93,4.97,4.87,5.37,5.35,5.36
53.56,0.45,-4.90,0.44,-4.90,4.90,4.96,4.86,5.35,5.34,5.34
54.10,0.45,-4.88,0.45,-4.88,4.88,4.94,4.85,5.32,5.33,5.33
54.64,0.45,-4.86,0.47,-4.85,4.85,4.92,4.84,5.29,5.31,5.31
55.18,0.47,-4.83,0.49,-4.81,4.81,4.91,4.83,5.28,5.30,5.30
55.74,0.52,-4.76,0.51,-4.77,4.77,4.89,4.82,5.29,5.28,5.28
56.29,0.54,-4.73,0.52,-4.74,4.74,4.86,4.81,5.28,5.27,5.27
56.86,0.54,-4.71,0.54,-4.71,4.71,4.84,4.79,5.25,5.25,5.25
57.42,0.54,-4.68,0.55,-4.68,4.68,4.82,4.78,5.22,5.23,5.21
58.00,0.54,-4.66,0.55,-4.65,4.65,4.79,4.76,5.19,5.20,5.20
58.58,0.54,-4.65,0.55,-4.63,4.63,4.76,4.74,5.16,5.18,5.19
59.16,0.55,-4.61,0.54,-4.60,4.60,4.73,4.72,5.15,5.15,5.16
59.76,0.60,-4.54,0.54,-4.58,4.58,4.70,4.69,5.18,5.12,5.14
60.35,0.60,-4.49,0.53,-4.55,4.55,4.66,4.66,5.15,5.08,5.09
60.96,0.57,-4.49,0.52,-4.53,4.53,4.62,4.62,5.09,5.04,5.05
61.57,0.50,-4.51,0.50,-4.50,4.50,4.58,4.59,5.00,5.00,5.01
62.18,0.45,-4.51,0.49,-4.47,4.47,4.54,4.54,4.92,4.96,4.96
62.80,0.45,-4.46,0.48,-4.44,4.44,4.49,4.50,4.89,4.91,4.91
63.43,0.44,-4.42,0.46,-4.40,4.40,4.44,4.44,4.84,4.87,4.86
64.07,0.43,-4.38,0.45,-4.36,4.36,4.39,4.39,4.79,4.82,4.81
64.71,0.39,-4.37,0.45,-4.32,4.32,4.33,4.33,4.71,4.77,4.76
65.35,0.40,-4.32,0.44,-4.28,4.28,4.28,4.26,4.68,4.71,4.71
66.01,0.45,-4.21,0.43,-4.23,4.23,4.22,4.20,4.68,4.66,4.66
66.67,0.45,-4.16,0.42,-4.18,4.18,4.15,4.12,4.63,4.61,4.61
67.33,0.45,-4.10,0.42,-4.13,4.13,4.09,4.05,4.58,4.55,4.55
68.01,0.45,-4.06,0.42,-4.08,4.08,4.02,3.97,4.53,4.50,4.50
68.69,0.45,-4.00,0.42,-4.02,4.02,3.95,3.88,4.47,4.44,4.45
69.37,0.45,-3.94,0.43,-3.96,3.96,3.88,3.80,4.41,4.39,4.39
70.07,0.45,-3.88,0.43,-3.90,3.90,3.80,3.71,4.34,4.33,4.33
70.77,0.45,-3.83,0.44,-3.83,3.83,3.73,3.62,4.28,4.27,4.28
71.48,0.45,-3.77,0.45,-3.76,3.76,3.65,3.53,4.20,4.21,4.22
72.19,0.45,-3.70,0.47,-3.67,3.67,3.57,3.43,4.12,4.14,4.14
72.91,0.45,-3.63,0.49,-3.59,3.59,3.48,3.34,4.04,4.08,4.08
73.64,0.45,-3.57,0.51,-3.51,3.51,3.40,3.24,3.96,4.02,4.02
74.38,0.48,-3.47,0.53,-3.42,3.42,3.31,3.15,3.90,3.95,3.95
75.12,0.55,-3.34,0.56,-3.33,3.33,3.23,3.05,3.88,3.89,3.89
75.87,0.62,-3.20,0.59,-3.24,3.24,3.14,2.95,3.86,3.83,3.82
76.63,0.65,-3.11,0.63,-3.14,3.14,3.05,2.85,3.78,3.77,3.76
77.40,0.69,-3.01,0.68,-3.03,3.03,2.96,2.75,3.72,3.71,3.70
78.17,0.76,-2.87,0.73,-2.92,2.92,2.87,2.66,3.68,3.65,3.63
78.95,0.83,-2.76,0.78,-2.81,2.81,2.78,2.56,3.64,3.59,3.59
79.74,0.83,-2.70,0.83,-2.70,2.70,2.68,2.46,3.53,3.53,3.53
80.54,0.83,-2.65,0.88,-2.59,2.59,2.59,2.37,3.42,3.47,3.48
81.35,0.86,-2.55,0.92,-2.49,2.49,2.50,2.27,3.35,3.42,3.41
82.16,0.93,-2.43,0.96,-2.40,2.40,2.41,2.18,3.33,3.36,3.36
82.98,0.98,-2.33,0.99,-2.32,2.32,2.31,2.09,3.30,3.30,3.31
83.81,1.11,-2.14,1.01,-2.23,2.23,2.22,1.99,3.34,3.25,3.25
84.65,1.13,-2.06,1.04,-2.15,2.15,2.13,1.90,3.28,3.19,3.19
85.50,1.13,-2.01,1.06,-2.07,2.07,2.04,1.81,3.20,3.13,3.14
86.35,1.12,-1.96,1.08,-1.99,1.99,1.94,1.72,3.11,3.08,3.08
87.22,1.12,-1.90,1.11,-1.90,1.90,1.85,1.64,3.02,3.02,3.02
88.09,1.12,-1.84,1.14,-1.81,1.81,1.76,1.55,2.93,2.96,2.96
88.97,1.13,-1.77,1.17,-1.72,1.72,1.67,1.46,2.85,2.90,2.90
89.86,1.11,-1.73,1.21,-1.63,1.63,1.59,1.38,2.74,2.84,2.84
90.76,1.11,-1.67,1.24,-1.54,1.54,1.50,1.29,2.65,2.78,2.78
91.66,1.26,-1.46,1.27,-1.45,1.45,1.41,1.21,2.71,2.72,2.72
92.58,1.33,-1.32,1.30,-1.36,1.36,1.32,1.13,2.69,2.66,2.65
93.51,1.31,-1.29,1.33,-1.27,1.27,1.24,1.05,2.58,2.60,2.59
94.44,1.37,-1.17,1.37,-1.17,1.17,1.16,0.97,2.54,2.54,2.54
95.39,1.48,-1.01,1.40,-1.08,1.08,1.07,0.89,2.56,2.48,2.48
96.34,1.52,-0.90,1.44,-0.98,0.98,0.99,0.81,2.50,2.42,2.42
97.30,1.49,-0.87,1.47,-0.89,0.89,0.91,0.74,2.38,2.36,2.36
98.28,1.50,-0.81,1.50,-0.80,0.80,0.83,0.66,2.30,2.31,2.31
99.26,1.55,-0.70,1.53,-0.72,0.72,0.75,0.59,2.27,2.25,2.25
100.25,1.56,-0.63,1.55,-0.65,0.65,0.68,0.51,2.20,2.19,2.19
101.25,1.54,-0.60,1.55,-0.58,0.58,0.60,0.44,2.12,2.13,2.13
102.27,1.53,-0.55,1.54,-0.53,0.53,0.52,0.37,2.06,2.08,2.08
103.29,1.52,-0.49,1.54,-0.48,0.48,0.45,0.30,2.00,2.02,2.01
104.32,1.52,-0.44,1.53,-0.42,0.42,0.38,0.23,1.94,1.96,1.96
105.37,1.56,-0.35,1.52,-0.37,0.37,0.31,0.16,1.93,1.90,1.90
106.42,1.56,-0.29,1.51,-0.32,0.32,0.24,0.09,1.88,1.84,1.85
107.48,1.53,-0.25,1.51,-0.27,0.27,0.17,0.03,1.79,1.77,1.78
108.56,1.50,-0.21,1.50,-0.21,0.21,0.10,-0.04,1.70,1.71,1.71
109.64,1.48,-0.18,1.50,-0.15,0.15,0.04,-0.10,1.63,1.65,1.65
110.74,1.44,-0.15,1.49,-0.09,0.09,-0.03,-0.16,1.53,1.59,1.59
111.85,1.42,-0.12,1.49,-0.03,0.03,-0.09,-0.22,1.45,1.53,1.54
112.97,1.50,0.04,1.50,0.03,-0.03,-0.15,-0.28,1.47,1.47,1.46
114.10,1.52,0.11,1.50,0.09,-0.09,-0.21,-0.34,1.43,1.41,1.41
115.24,1.52,0.17,1.50,0.15,-0.15,-0.27,-0.39,1.37,1.35,1.35
116.39,1.52,0.23,1.50,0.21,-0.21,-0.33,-0.44,1.31,1.30,1.28
117.55,1.52,0.28,1.51,0.26,-0.26,-0.39,-0.49,1.25,1.24,1.24
118.73,1.53,0.34,1.52,0.32,-0.32,-0.45,-0.54,1.20,1.19,1.18
119.92,1.54,0.39,1.53,0.38,-0.38,-0.50,-0.59,1.15,1.15,1.15
121.12,1.54,0.44,1.54,0.44,-0.44,-0.55,-0.63,1.10,1.10,1.09
122.33,1.55,0.50,1.55,0.50,-0.50,-0.61,-0.68,1.05,1.06,1.05
123.55,1.56,0.54,1.56,0.55,-0.55,-0.66,-0.72,1.01,1.01,1.02
124.79,1.57,0.59,1.57,0.60,-0.60,-0.71,-0.76,0.97,0.97,0.98
126.03,1.57,0.63,1.57,0.64,-0.64,-0.76,-0.79,0.93,0.93,0.94
127.29,1.58,0.67,1.58,0.68,-0.68,-0.81,-0.83,0.89,0.89,0.90
128.57,1.59,0.73,1.58,0.73,-0.73,-0.85,-0.86,0.86,0.85,0.85
129.85,1.59,0.77,1.59,0.77,-0.77,-0.90,-0.89,0.81,0.82,0.82
131.15,1.60,0.82,1.60,0.82,-0.82,-0.95,-0.92,0.78,0.78,0.78
132.46,1.60,0.86,1.60,0.86,-0.86,-0.99,-0.95,0.74,0.74,0.74
133.79,1.61,0.90,1.60,0.90,-0.90,-1.03,-0.97,0.71,0.70,0.70
135.12,1.61,0.95,1.61,0.94,-0.94,-1.07,-0.99,0.67,0.67,0.66
136.48,1.61,0.98,1.61,0.98,-0.98,-1.12,-1.02,0.63,0.63,0.63
137.84,1.62,1.03,1.61,1.02,-1.02,-1.16,-1.04,0.60,0.60,0.59
139.22,1.62,1.07,1.62,1.06,-1.06,-1.20,-1.06,0.56,0.56,0.55
140.61,1.62,1.11,1.62,1.10,-1.10,-1.23,-1.08,0.52,0.52,0.50
142.02,1.62,1.14,1.62,1.14,-1.14,-1.27,-1.10,0.47,0.48,0.48
143.44,1.62,1.18,1.63,1.19,-1.19,-1.31,-1.12,0.43,0.44,0.44
144.87,1.62,1.23,1.63,1.24,-1.24,-1.34,-1.13,0.38,0.39,0.39
146.32,1.62,1.27,1.63,1.29,-1.29,-1.38,-1.15,0.32,0.34,0.34
147.78,1.62,1.31,1.63,1.35,-1.35,-1.41,-1.17,0.27,0.28,0.31
149.26,1.62,1.37,1.63,1.41,-1.41,-1.45,-1.19,0.21,0.22,0.25
150.75,1.62,1.44,1.62,1.47,-1.47,-1.48,-1.21,0.15,0.15,0.17
152.26,1.62,1.52,1.60,1.52,-1.52,-1.51,-1.22,0.10,0.08,0.10
153.78,1.62,1.59,1.58,1.57,-1.57,-1.54,-1.24,0.05,0.01,0.03
155.32,1.62,1.67,1.56,1.63,-1.63,-1.57,-1.26,-0.01,-0.07,-0.06
156.88,1.62,1.75,1.54,1.69,-1.69,-1.60,-1.28,-0.07,-0.15,-0.14
158.44,1.54,1.77,1.52,1.75,-1.75,-1.63,-1.30,-0.21,-0.22,-0.23
160.03,1.51,1.82,1.51,1.81,-1.81,-1.66,-1.32,-0.30,-0.30,-0.32
161.63,1.49,1.88,1.49,1.86,-1.86,-1.68,-1.35,-0.37,-0.37,-0.40
163.24,1.45,1.91,1.47,1.91,-1.91,-1.71,-1.37,-0.46,-0.44,-0.46
164.88,1.38,1.90,1.45,1.96,-1.96,-1.73,-1.39,-0.58,-0.50,-0.52
166.53,1.32,1.89,1.44,2.00,-2.00,-1.76,-1.42,-0.68,-0.56,-0.58
168.19,1.36,1.98,1.44,2.04,-2.04,-1.78,-1.44,-0.68,-0.60,-0.62
169.87,1.48,2.14,1.43,2.08,-2.08,-1.81,-1.47,-0.60,-0.64,-0.66
171.57,1.51,2.20,1.44,2.11,-2.11,-1.83,-1.50,-0.60,-0.67,-0.69
173.29,1.50,2.21,1.45,2.15,-2.15,-1.85,-1.53,-0.65,-0.70,-0.71
175.02,1.48,2.20,1.46,2.18,-2.18,-1.87,-1.56,-0.70,-0.72,-0.72
176.77,1.46,2.20,1.49,2.22,-2.22,-1.89,-1.60,-0.76,-0.73,-0.74
178.54,1.46,2.21,1.51,2.26,-2.26,-1.91,-1.63,-0.80,-0.75,-0.75
180.32,1.54,2.29,1.54,2.30,-2.30,-1.93,-1.67,-0.76,-0.76,-0.75
182.13,1.58,2.32,1.56,2.33,-2.33,-1.95,-1.70,-0.76,-0.77,-0.75
183.95,1.59,2.35,1.59,2.37,-2.37,-1.97,-1.74,-0.78,-0.78,-0.76
185.79,1.61,2.38,1.61,2.40,-2.40,-1.99,-1.78,-0.79,-0.79,-0.77
187.65,1.62,2.41,1.61,2.42,-2.42,-2.01,-1.82,-0.80,-0.81,-0.80
189.52,1.64,2.45,1.62,2.44,-2.44,-2.02,-1.86,-0.80,-0.82,-0.81
191.42,1.65,2.48,1.63,2.47,-2.47,-2.04,-1.91,-0.82,-0.84,-0.83
193.33,1.66,2.51,1.64,2.50,-2.50,-2.06,-1.95,-0.84,-0.86,-0.86
195.27,1.68,2.56,1.65,2.53,-2.53,-2.07,-2.00,-0.85,-0.88,-0.88
197.22,1.69,2.59,1.65,2.55,-2.55,-2.08,-2.04,-0.86,-0.90,-0.90
199.19,1.65,2.58,1.65,2.57,-2.57,-2.10,-2.09,-0.92,-0.92,-0.93
201.18,1.61,2.56,1.64,2.59,-2.59,-2.11,-2.14,-0.98,-0.95,-0.95
203.19,1.61,2.58,1.64,2.61,-2.61,-2.13,-2.19,-1.00,-0.97,-0.97
205.23,1.62,2.62,1.63,2.63,-2.63,-2.14,-2.23,-1.01,-1.00,-1.00
207.28,1.62,2.63,1.62,2.65,-2.65,-2.15,-2.28,-1.03,-1.02,-1.01
209.35,1.62,2.65,1.62,2.66,-2.66,-2.16,-2.33,-1.04,-1.04,-1.04
211.44,1.62,2.69,1.61,2.68,-2.68,-2.17,-2.38,-1.06,-1.06,-1.07
213.56,1.61,2.69,1.61,2.69,-2.69,-2.18,-2.43,-1.08,-1.08,-1.08
215.69,1.61,2.70,1.61,2.71,-2.71,-2.19,-2.47,-1.10,-1.10,-1.10
217.85,1.61,2.72,1.61,2.72,-2.72,-2.20,-2.52,-1.11,-1.11,-1.11
220.03,1.60,2.73,1.60,2.73,-2.73,-2.21,-2.56,-1.13,-1.13,-1.13
222.23,1.60,2.75,1.60,2.74,-2.74,-2.22,-2.61,-1.14,-1.13,-1.15
224.45,1.60,2.74,1.60,2.74,-2.74,-2.23,-2.65,-1.14,-1.14,-1.15
226.70,1.60,2.75,1.60,2.74,-2.74,-2.23,-2.68,-1.14,-1.14,-1.15
228.96,1.60,2.74,1.59,2.74,-2.74,-2.24,-2.72,-1.14,-1.14,-1.14
231.25,1.62,2.75,1.59,2.73,-2.73,-2.25,-2.75,-1.11,-1.14,-1.14
233.57,1.64,2.77,1.60,2.72,-2.72,-2.25,-2.78,-1.08,-1.13,-1.13
235.90,1.62,2.74,1.60,2.71,-2.71,-2.26,-2.81,-1.10,-1.11,-1.12
238.26,1.57,2.68,1.60,2.70,-2.70,-2.27,-2.83,-1.14,-1.10,-1.11
240.64,1.57,2.66,1.61,2.69,-2.69,-2.27,-2.85,-1.13,-1.08,-1.09
243.05,1.58,2.64,1.62,2.68,-2.68,-2.27,-2.87,-1.11,-1.07,-1.06
245.48,1.60,2.64,1.63,2.68,-2.68,-2.28,-2.88,-1.08,-1.04,-1.04
247.93,1.63,2.64,1.64,2.67,-2.67,-2.28,-2.89,-1.04,-1.02,-1.01
250.41,1.65,2.65,1.65,2.66,-2.66,-2.29,-2.89,-1.01,-1.00,-1.00
252.92,1.67,2.64,1.66,2.64,-2.64,-2.29,-2.89,-0.97,-0.98,-0.97
255.45,1.68,2.63,1.66,2.62,-2.62,-2.29,-2.89,-0.94,-0.96,-0.95
258.00,1.69,2.62,1.66,2.59,-2.59,-2.29,-2.88,-0.91,-0.93,-0.93
260.58,1.69,2.60,1.65,2.56,-2.56,-2.29,-2.87,-0.88,-0.91,-0.92
263.19,1.69,2.57,1.65,2.54,-2.54,-2.30,-2.85,-0.85,-0.89,-0.88
265.82,1.69,2.56,1.64,2.50,-2.50,-2.30,-2.83,-0.82,-0.87,-0.87
268.48,1.69,2.54,1.62,2.47,-2.47,-2.30,-2.81,-0.78,-0.84,-0.85
271.16,1.63,2.44,1.61,2.42,-2.42,-2.30,-2.78,-0.80,-0.82,-0.82
273.87,1.59,2.39,1.59,2.38,-2.38,-2.30,-2.75,-0.79,-0.80,-0.80
276.61,1.50,2.27,1.57,2.34,-2.34,-2.30,-2.72,-0.84,-0.77,-0.77
279.38,1.49,2.23,1.56,2.30,-2.30,-2.29,-2.68,-0.81,-0.74,-0.75
282.17,1.49,2.21,1.55,2.27,-2.27,-2.29,-2.65,-0.78,-0.72,-0.72
284.99,1.50,2.18,1.54,2.23,-2.23,-2.29,-2.61,-0.73,-0.69,-0.69
287.84,1.50,2.17,1.53,2.19,-2.19,-2.29,-2.57,-0.69,-0.66,-0.67
290.72,1.52,2.16,1.52,2.16,-2.16,-2.29,-2.53,-0.64,-0.64,-0.64
293.63,1.53,2.14,1.52,2.13,-2.13,-2.28,-2.48,-0.60,-0.61,-0.61
296.57,1.54,2.12,1.52,2.10,-2.10,-2.28,-2.44,-0.56,-0.58,-0.58
299.53,1.55,2.10,1.52,2.07,-2.07,-2.28,-2.40,-0.52,-0.55,-0.55
302.53,1.56,2.10,1.53,2.05,-2.05,-2.27,-2.35,-0.50,-0.53,-0.54
305.55,1.58,2.07,1.54,2.04,-2.04,-2.27,-2.31,-0.46,-0.50,-0.49
308.61,1.58,2.05,1.54,2.02,-2.02,-2.26,-2.27,-0.45,-0.48,-0.48
311.69,1.51,1.96,1.54,2.00,-2.00,-2.26,-2.23,-0.49,-0.46,-0.45
314.81,1.50,1.92,1.54,1.97,-1.97,-2.25,-2.18,-0.47,-0.44,-0.42
317.96,1.50,1.91,1.52,1.94,-1.94,-2.24,-2.14,-0.44,-0.42,-0.41
321.14,1.50,1.90,1.51,1.91,-1.91,-2.24,-2.10,-0.41,-0.40,-0.40
324.35,1.50,1.88,1.49,1.87,-1.87,-2.23,-2.06,-0.37,-0.38,-0.39
327.59,1.50,1.87,1.47,1.84,-1.84,-2.22,-2.02,-0.34,-0.37,-0.37
330.87,1.50,1.86,1.45,1.80,-1.80,-2.22,-1.98,-0.30,-0.36,-0.36
334.18,1.49,1.83,1.43,1.77,-1.77,-2.21,-1.95,-0.28,-0.34,-0.35
337.52,1.43,1.77,1.41,1.74,-1.74,-2.20,-1.91,-0.31,-0.33,-0.34
340.90,1.38,1.70,1.39,1.72,-1.72,-2.19,-1.88,-0.34,-0.33,-0.32
344.30,1.31,1.62,1.37,1.69,-1.69,-2.18,-1.85,-0.39,-0.32,-0.31
347.75,1.30,1.62,1.36,1.67,-1.67,-2.17,-1.81,-0.38,-0.32,-0.32
351.23,1.30,1.61,1.34,1.65,-1.65,-2.16,-1.78,-0.35,-0.31,-0.31
354.74,1.30,1.61,1.32,1.63,-1.63,-2.15,-1.76,-0.33,-0.31,-0.31
358.28,1.31,1.61,1.31,1.62,-1.62,-2.14,-1.73,-0.31,-0.31,-0.30
361.87,1.31,1.61,1.30,1.61,-1.61,-2.13,-1.70,-0.30,-0.31,-0.31
365.49,1.32,1.62,1.29,1.60,-1.60,-2.12,-1.68,-0.28,-0.31,-0.30
369.14,1.33,1.64,1.29,1.59,-1.59,-2.11,-1.66,-0.27,-0.31,-0.31
372.83,1.29,1.60,1.28,1.59,-1.59,-2.10,-1.64,-0.30,-0.31,-0.31
376.56,1.25,1.56,1.27,1.58,-1.58,-2.09,-1.62,-0.34,-0.31,-0.32
380.33,1.25,1.56,1.26,1.58,-1.58,-2.07,-1.60,-0.33,-0.31,-0.31
384.13,1.26,1.57,1.25,1.57,-1.57,-2.06,-1.58,-0.31,-0.32,-0.31
387.97,1.26,1.58,1.23,1.55,-1.55,-2.05,-1.57,-0.29,-0.32,-0.32
391.85,1.27,1.60,1.21,1.54,-1.54,-2.03,-1.55,-0.27,-0.33,-0.33
395.77,1.24,1.56,1.19,1.52,-1.52,-2.02,-1.54,-0.29,-0.33,-0.32
399.73,1.19,1.52,1.17,1.51,-1.51,-2.00,-1.52,-0.32,-0.34,-0.34
403.72,1.12,1.46,1.14,1.49,-1.49,-1.99,-1.51,-0.37,-0.35,-0.34
407.76,1.08,1.43,1.12,1.47,-1.47,-1.97,-1.50,-0.39,-0.35,-0.35
411.84,1.07,1.42,1.10,1.46,-1.46,-1.96,-1.49,-0.39,-0.35,-0.35
415.96,1.06,1.41,1.09,1.44,-1.44,-1.94,-1.48,-0.39,-0.36,-0.35
420.12,1.07,1.42,1.08,1.43,-1.43,-1.93,-1.47,-0.36,-0.35,-0.35
424.32,1.07,1.42,1.07,1.42,-1.42,-1.91,-1.46,-0.35,-0.35,-0.35
428.56,1.08,1.42,1.07,1.40,-1.40,-1.89,-1.46,-0.33,-0.34,-0.35
432.85,1.09,1.42,1.07,1.39,-1.39,-1.88,-1.45,-0.30,-0.32,-0.34
437.18,1.04,1.37,1.08,1.38,-1.38,-1.86,-1.44,-0.34,-0.30,-0.33
441.55,1.06,1.35,1.09,1.37,-1.37,-1.84,-1.43,-0.31,-0.28,-0.29
445.96,1.11,1.37,1.12,1.36,-1.36,-1.82,-1.43,-0.26,-0.25,-0.26
450.42,1.16,1.39,1.15,1.36,-1.36,-1.80,-1.42,-0.20,-0.21,-0.23
454.93,1.20,1.38,1.17,1.34,-1.34,-1.78,-1.41,-0.15,-0.17,-0.18
459.48,1.19,1.32,1.20,1.33,-1.33,-1.77,-1.40,-0.14,-0.13,-0.13
464.07,1.24,1.32,1.23,1.31,-1.31,-1.75,-1.39,-0.07,-0.08,-0.08
468.71,1.26,1.28,1.26,1.29,-1.29,-1.73,-1.38,-0.03,-0.03,-0.02
473.40,1.27,1.25,1.29,1.27,-1.27,-1.70,-1.37,-0.01,0.02,0.02
478.13,1.32,1.24,1.32,1.25,-1.25,-1.68,-1.36,0.06,0.07,0.07
482.91,1.36,1.24,1.35,1.24,-1.24,-1.66,-1.35,0.12,0.11,0.11
487.74,1.40,1.24,1.37,1.22,-1.22,-1.64,-1.34,0.18,0.15,0.15
492.62,1.40,1.20,1.39,1.20,-1.20,-1.62,-1.32,0.20,0.19,0.20
497.55,1.39,1.17,1.40,1.18,-1.18,-1.60,-1.31,0.20,0.22,0.22
502.52,1.40,1.15,1.41,1.17,-1.17,-1.57,-1.29,0.23,0.24,0.25
507.55,1.42,1.16,1.42,1.16,-1.16,-1.55,-1.28,0.25,0.25,0.26
512.62,1.43,1.16,1.41,1.15,-1.15,-1.53,-1.26,0.27,0.26,0.27
517.75,1.43,1.15,1.40,1.14,-1.14,-1.50,-1.24,0.29,0.26,0.28
