frequency,raw,error,smoothed,error_smoothed,equalization,parametric_eq,fixed_band_eq,equalized_raw,equalized_smoothed,target
20.00,-12.81,-15.75,-12.81,-15.75,15.74,15.43,5.97,2.93,2.93,2.93
20.20,-12.71,-15.69,-12.71,-15.68,15.69,15.39,6.11,2.97,2.97,2.97
20.40,-12.61,-15.62,-12.61,-15.62,15.62,15.34,6.25,3.01,3.01,3.01
20.61,-12.51,-15.55,-12.51,-15.55,15.56,15.29,6.40,3.05,3.05,3.04
20.81,-12.40,-15.49,-12.40,-15.49,15.49,15.22,6.56,3.09,3.08,3.08
21.02,-12.30,-15.43,-12.30,-15.42,15.41,15.15,6.72,3.11,3.11,3.12
21.23,-12.20,-15.35,-12.20,-15.34,15.34,15.08,6.88,3.14,3.14,3.14
21.44,-12.09,-15.25,-12.10,-15.26,15.26,14.99,7.04,3.17,3.16,3.16
21.66,-11.99,-15.18,-11.99,-15.17,15.18,14.90,7.22,3.18,3.18,3.18
21.87,-11.89,-15.08,-11.89,-15.09,15.09,14.81,7.39,3.20,3.20,3.19
22.09,-11.79,-15.00,-11.79,-15.00,15.00,14.72,7.57,3.21,3.21,3.21
22.31,-11.68,-14.90,-11.69,-14.91,14.90,14.62,7.76,3.22,3.22,3.22
22.54,-11.58,-14.82,-11.58,-14.81,14.81,14.51,7.95,3.22,3.23,3.23
22.76,-11.47,-14.71,-11.47,-14.71,14.71,14.41,8.14,3.24,3.24,3.24
22.99,-11.36,-14.61,-11.37,-14.61,14.62,14.30,8.34,3.25,3.25,3.24
23.22,-11.26,-14.52,-11.26,-14.51,14.52,14.19,8.55,3.26,3.26,3.25
23.45,-11.15,-14.42,-11.16,-14.42,14.42,14.09,8.76,3.27,3.27,3.26
23.69,-11.05,-14.33,-11.05,-14.32,14.33,13.98,8.98,3.27,3.28,3.27
23.92,-10.94,-14.22,-10.95,-14.23,14.23,13.87,9.20,3.29,3.29,3.28
24.16,-10.84,-14.14,-10.84,-14.14,14.14,13.76,9.43,3.29,3.30,3.30
24.40,-10.73,-14.05,-10.73,-14.04,14.04,13.65,9.66,3.31,3.31,3.32
24.65,-10.62,-13.94,-10.63,-13.95,13.94,13.54,9.90,3.32,3.32,3.31
24.89,-10.52,-13.84,-10.52,-13.84,13.85,13.43,10.15,3.32,3.33,3.32
25.14,-10.41,-13.74,-10.41,-13.74,13.75,13.32,10.40,3.33,3.34,3.33
25.39,-10.30,-13.64,-10.30,-13.65,13.65,13.22,10.65,3.35,3.34,3.34
25.65,-10.19,-13.56,-10.19,-13.55,13.55,13.11,10.91,3.35,3.36,3.36
25.91,-10.09,-13.45,-10.08,-13.45,13.45,13.01,11.18,3.36,3.37,3.36
26.16,-9.97,-13.34,-9.97,-13.35,13.35,12.91,11.45,3.38,3.38,3.37
26.43,-9.86,-13.25,-9.87,-13.25,13.25,12.81,11.72,3.39,3.39,3.38
26.69,-9.76,-13.16,-9.76,-13.16,13.16,12.71,12.00,3.39,3.40,3.39
26.96,-9.65,-13.07,-9.65,-13.06,13.06,12.61,12.28,3.40,3.40,3.41
27.23,-9.54,-12.97,-9.54,-12.96,12.96,12.52,12.56,3.41,3.41,3.42
27.50,-9.43,-12.86,-9.43,-12.86,12.86,12.43,12.84,3.42,3.42,3.42
27.77,-9.32,-12.74,-9.32,-12.75,12.75,12.33,13.11,3.43,3.43,3.42
28.05,-9.21,-12.66,-9.21,-12.65,12.65,12.24,13.39,3.44,3.44,3.44
28.33,-9.10,-12.54,-9.10,-12.55,12.55,12.15,13.65,3.45,3.45,3.44
28.62,-8.99,-12.45,-8.99,-12.44,12.45,12.07,13.91,3.45,3.45,3.45
28.90,-8.88,-12.35,-8.88,-12.34,12.34,11.98,14.15,3.46,3.46,3.46
29.19,-8.77,-12.24,-8.77,-12.24,12.24,11.90,14.38,3.47,3.47,3.46
29.48,-8.66,-12.15,-8.66,-12.14,12.14,11.81,14.59,3.48,3.48,3.49
29.78,-8.55,-12.04,-8.55,-12.04,12.04,11.73,14.78,3.49,3.49,3.48
30.08,-8.44,-11.94,-8.45,-11.94,11.94,11.65,14.93,3.50,3.49,3.49
30.38,-8.34,-11.84,-8.34,-11.84,11.84,11.57,15.06,3.50,3.50,3.49
30.68,-8.24,-11.76,-8.24,-11.75,11.75,11.49,15.16,3.50,3.50,3.51
30.99,-8.13,-11.65,-8.14,-11.65,11.65,11.41,15.22,3.51,3.51,3.51
31.30,-8.03,-11.55,-8.03,-11.55,11.55,11.33,15.24,3.51,3.52,3.51
31.61,-7.92,-11.45,-7.93,-11.45,11.45,11.25,15.23,3.53,3.52,3.52
31.93,-7.82,-11.36,-7.82,-11.35,11.35,11.17,15.18,3.52,3.53,3.53
32.24,-7.71,-11.24,-7.71,-11.25,11.25,11.09,15.09,3.54,3.54,3.53
32.57,-7.60,-11.16,-7.60,-11.15,11.15,11.01,14.98,3.54,3.54,3.55
32.89,-7.49,-11.04,-7.49,-11.05,11.05,10.93,14.83,3.56,3.56,3.55
33.22,-7.38,-10.95,-7.38,-10.95,10.95,10.85,14.65,3.57,3.57,3.56
33.55,-7.27,-10.84,-7.27,-10.84,10.85,10.77,14.46,3.58,3.58,3.57
33.89,-7.16,-10.75,-7.17,-10.75,10.75,10.69,14.24,3.59,3.58,3.58
34.23,-7.06,-10.65,-7.06,-10.65,10.65,10.61,14.01,3.58,3.59,3.58
34.57,-6.96,-10.56,-6.96,-10.55,10.55,10.53,13.77,3.59,3.59,3.59
34.92,-6.85,-10.45,-6.86,-10.45,10.45,10.44,13.51,3.59,3.59,3.59
35.27,-6.75,-10.36,-6.75,-10.35,10.35,10.36,13.26,3.59,3.60,3.60
35.62,-6.64,-10.25,-6.65,-10.25,10.25,10.27,12.99,3.60,3.60,3.60
35.97,-6.54,-10.14,-6.54,-10.15,10.15,10.19,12.73,3.61,3.61,3.60
36.33,-6.44,-10.05,-6.44,-10.04,10.05,10.10,12.46,3.61,3.61,3.61
36.70,-6.33,-9.94,-6.34,-9.94,9.95,10.01,12.20,3.61,3.61,3.60
37.06,-6.23,-9.84,-6.23,-9.84,9.84,9.91,11.94,3.61,3.61,3.61
37.43,-6.13,-9.74,-6.13,-9.74,9.74,9.82,11.68,3.61,3.61,3.61
37.81,-6.03,-9.65,-6.03,-9.65,9.64,9.72,11.43,3.61,3.61,3.61
38.19,-5.93,-9.55,-5.93,-9.54,9.54,9.62,11.18,3.61,3.61,3.61
38.57,-5.83,-9.44,-5.83,-9.44,9.44,9.53,10.94,3.60,3.60,3.60
38.95,-5.73,-9.33,-5.73,-9.33,9.34,9.42,10.70,3.60,3.60,3.60
39.34,-5.63,-9.22,-5.63,-9.23,9.23,9.32,10.47,3.60,3.60,3.59
39.74,-5.53,-9.13,-5.54,-9.13,9.13,9.22,10.24,3.60,3.59,3.59
40.14,-5.44,-9.04,-5.44,-9.03,9.03,9.11,10.02,3.58,3.59,3.59
40.54,-5.34,-8.94,-5.34,-8.93,8.93,9.00,9.81,3.58,3.59,3.59
40.94,-5.23,-8.82,-5.24,-8.83,8.83,8.90,9.60,3.59,3.59,3.58
41.35,-5.14,-8.73,-5.14,-8.72,8.73,8.79,9.40,3.58,3.59,3.58
41.76,-5.04,-8.62,-5.04,-8.62,8.63,8.68,9.20,3.58,3.59,3.58
42.18,-4.94,-8.53,-4.94,-8.52,8.53,8.56,9.01,3.58,3.58,3.58
42.60,-4.84,-8.42,-4.84,-8.43,8.42,8.45,8.83,3.58,3.58,3.58
43.03,-4.74,-8.33,-4.75,-8.33,8.32,8.34,8.65,3.58,3.58,3.58
43.46,-4.65,-8.24,-4.65,-8.23,8.22,8.22,8.48,3.57,3.58,3.58
43.90,-4.55,-8.12,-4.56,-8.13,8.13,8.11,8.31,3.57,3.57,3.56
44.33,-4.46,-8.02,-4.46,-8.02,8.03,7.99,8.15,3.56,3.56,3.56
44.78,-4.37,-7.93,-4.37,-7.93,7.93,7.87,7.99,3.55,3.56,3.55
45.23,-4.27,-7.83,-4.28,-7.83,7.83,7.76,7.84,3.56,3.55,3.55
45.68,-4.18,-7.74,-4.18,-7.73,7.73,7.64,7.70,3.55,3.55,3.55
46.13,-4.08,-7.62,-4.09,-7.64,7.64,7.52,7.56,3.55,3.55,3.54
46.60,-3.99,-7.55,-3.99,-7.54,7.54,7.40,7.42,3.54,3.55,3.55
47.06,-3.90,-7.45,-3.90,-7.44,7.44,7.29,7.29,3.54,3.54,3.54
47.53,-3.80,-7.34,-3.81,-7.35,7.34,7.17,7.16,3.54,3.54,3.53
48.01,-3.71,-7.26,-3.71,-7.25,7.24,7.05,7.04,3.53,3.53,3.54
48.49,-3.62,-7.15,-3.62,-7.14,7.14,6.94,6.92,3.52,3.52,3.52
48.97,-3.53,-7.04,-3.53,-7.04,7.04,6.82,6.80,3.51,3.51,3.50
49.46,-3.44,-6.94,-3.44,-6.93,6.94,6.71,6.69,3.49,3.49,3.49
49.96,-3.35,-6.83,-3.35,-6.83,6.83,6.60,6.59,3.48,3.48,3.47
50.46,-3.26,-6.74,-3.26,-6.73,6.73,6.48,6.48,3.46,3.46,3.47
50.96,-3.17,-6.63,-3.17,-6.62,6.62,6.37,6.38,3.45,3.45,3.45
51.47,-3.08,-6.51,-3.08,-6.51,6.52,6.26,6.29,3.43,3.43,3.42
51.99,-2.99,-6.41,-2.99,-6.41,6.41,6.15,6.19,3.42,3.42,3.41
52.51,-2.90,-6.31,-2.91,-6.31,6.31,6.04,6.10,3.40,3.40,3.40
53.03,-2.82,-6.21,-2.82,-6.20,6.20,5.93,6.01,3.38,3.38,3.38
53.56,-2.73,-6.11,-2.73,-6.10,6.10,5.83,5.93,3.36,3.36,3.37
54.10,-2.64,-5.99,-2.65,-6.00,5.99,5.72,5.84,3.35,3.34,3.34
54.64,-2.56,-5.90,-2.56,-5.88,5.89,5.62,5.76,3.32,3.33,3.33
55.18,-2.47,-5.77,-2.47,-5.77,5.78,5.52,5.68,3.31,3.31,3.30
55.74,-2.38,-5.66,-2.39,-5.67,5.68,5.41,5.60,3.29,3.29,3.27
56.29,-2.30,-5.58,-2.31,-5.57,5.57,5.31,5.52,3.27,3.27,3.27
56.86,-2.23,-5.48,-2.23,-5.47,5.47,5.22,5.44,3.24,3.24,3.24
57.42,-2.15,-5.36,-2.15,-5.37,5.37,5.12,5.37,3.22,3.21,3.21
58.00,-2.07,-5.27,-2.07,-5.27,5.27,5.02,5.29,3.19,3.19,3.19
58.58,-1.99,-5.17,-1.99,-5.16,5.17,4.93,5.21,3.17,3.18,3.17
59.16,-1.91,-5.06,-1.91,-5.07,5.07,4.84,5.14,3.15,3.15,3.15
59.76,-1.83,-4.97,-1.84,-4.97,4.96,4.74,5.06,3.13,3.13,3.13
60.35,-1.76,-4.87,-1.76,-4.87,4.86,4.65,4.99,3.10,3.10,3.10
60.96,-1.69,-4.77,-1.69,-4.76,4.76,4.57,4.91,3.06,3.06,3.07
61.57,-1.62,-4.65,-1.62,-4.65,4.65,4.48,4.83,3.03,3.03,3.02
62.18,-1.55,-4.54,-1.55,-4.54,4.54,4.39,4.76,2.99,2.99,2.98
62.80,-1.48,-4.44,-1.48,-4.43,4.43,4.31,4.68,2.95,2.95,2.96
63.43,-1.41,-4.33,-1.41,-4.33,4.33,4.23,4.60,2.91,2.92,2.91
64.07,-1.34,-4.22,-1.34,-4.22,4.22,4.14,4.52,2.88,2.88,2.87
64.71,-1.27,-4.12,-1.28,-4.11,4.12,4.06,4.44,2.85,2.85,2.84
65.35,-1.21,-4.01,-1.21,-4.01,4.02,3.99,4.36,2.81,2.81,2.80
66.01,-1.15,-3.92,-1.15,-3.92,3.93,3.91,4.28,2.77,2.77,2.76
66.67,-1.10,-3.84,-1.10,-3.83,3.83,3.83,4.20,2.73,2.73,2.73
67.33,-1.05,-3.75,-1.05,-3.74,3.74,3.76,4.12,2.68,2.68,2.69
68.01,-1.00,-3.66,-1.00,-3.65,3.64,3.69,4.03,2.64,2.64,2.65
68.69,-0.94,-3.56,-0.94,-3.56,3.55,3.62,3.95,2.61,2.61,2.61
69.37,-0.88,-3.46,-0.89,-3.46,3.46,3.54,3.87,2.58,2.57,2.57
70.07,-0.83,-3.37,-0.83,-3.37,3.37,3.48,3.78,2.54,2.54,2.53
70.77,-0.78,-3.28,-0.78,-3.28,3.28,3.41,3.70,2.50,2.50,2.49
71.48,-0.73,-3.20,-0.74,-3.19,3.20,3.34,3.62,2.46,2.46,2.46
72.19,-0.69,-3.11,-0.69,-3.11,3.11,3.28,3.53,2.42,2.42,2.41
72.91,-0.65,-3.04,-0.65,-3.03,3.03,3.21,3.45,2.38,2.38,2.38
73.64,-0.61,-2.96,-0.61,-2.95,2.95,3.15,3.37,2.34,2.34,2.34
74.38,-0.56,-2.88,-0.56,-2.87,2.87,3.09,3.29,2.31,2.31,2.31
75.12,-0.51,-2.79,-0.52,-2.79,2.79,3.03,3.20,2.28,2.27,2.27
75.87,-0.47,-2.72,-0.47,-2.72,2.71,2.97,3.12,2.24,2.24,2.24
76.63,-0.43,-2.65,-0.43,-2.64,2.64,2.91,3.04,2.20,2.21,2.21
77.40,-0.38,-2.57,-0.38,-2.56,2.56,2.85,2.96,2.18,2.18,2.18
78.17,-0.33,-2.49,-0.33,-2.48,2.49,2.80,2.89,2.16,2.16,2.15
78.95,-0.28,-2.41,-0.29,-2.41,2.42,2.74,2.81,2.13,2.13,2.12
79.74,-0.24,-2.35,-0.25,-2.35,2.35,2.69,2.73,2.10,2.10,2.10
80.54,-0.21,-2.30,-0.21,-2.28,2.28,2.64,2.66,2.07,2.07,2.08
81.35,-0.17,-2.23,-0.17,-2.22,2.22,2.59,2.58,2.04,2.05,2.05
82.16,-0.12,-2.15,-0.13,-2.16,2.16,2.54,2.51,2.03,2.03,2.02
82.98,-0.09,-2.11,-0.09,-2.10,2.10,2.49,2.44,2.01,2.01,2.01
83.81,-0.06,-2.05,-0.06,-2.04,2.05,2.44,2.36,1.99,1.99,1.98
84.65,-0.03,-1.99,-0.04,-2.00,2.00,2.39,2.29,1.97,1.97,1.95
85.50,-0.02,-1.97,-0.02,-1.96,1.96,2.34,2.23,1.94,1.94,1.94
86.35,-0.00,-1.93,-0.00,-1.93,1.92,2.30,2.16,1.92,1.92,1.92
87.22,0.01,-1.90,0.01,-1.90,1.89,2.25,2.09,1.90,1.90,1.90
88.09,0.02,-1.87,0.02,-1.87,1.86,2.21,2.03,1.88,1.88,1.88
88.97,0.03,-1.84,0.02,-1.84,1.84,2.17,1.96,1.87,1.87,1.86
89.86,0.03,-1.83,0.03,-1.82,1.82,2.12,1.90,1.85,1.85,1.85
90.76,0.03,-1.80,0.02,-1.80,1.81,2.08,1.83,1.83,1.83,1.82
91.66,0.02,-1.79,0.02,-1.79,1.79,2.04,1.77,1.81,1.81,1.80
92.58,0.01,-1.78,0.01,-1.77,1.77,2.00,1.71,1.78,1.78,1.78
93.51,0.01,-1.77,0.01,-1.76,1.76,1.96,1.65,1.76,1.76,1.77
94.44,0.01,-1.75,0.01,-1.75,1.74,1.93,1.59,1.74,1.74,1.75
95.39,0.01,-1.73,0.01,-1.72,1.72,1.89,1.54,1.72,1.72,1.73
96.34,0.01,-1.70,0.01,-1.70,1.70,1.85,1.48,1.70,1.70,1.70
97.30,0.01,-1.67,0.01,-1.67,1.67,1.82,1.42,1.68,1.68,1.67
98.28,0.01,-1.64,0.01,-1.64,1.64,1.78,1.37,1.65,1.65,1.64
99.26,0.01,-1.62,0.01,-1.61,1.61,1.75,1.32,1.62,1.62,1.62
100.25,0.01,-1.59,0.01,-1.58,1.58,1.71,1.26,1.59,1.59,1.59
101.25,0.01,-1.56,0.01,-1.55,1.55,1.68,1.21,1.56,1.56,1.56
102.27,0.01,-1.52,0.01,-1.52,1.52,1.65,1.16,1.53,1.53,1.52
103.29,0.01,-1.49,0.01,-1.49,1.49,1.62,1.11,1.50,1.50,1.49
104.32,0.01,-1.46,0.01,-1.45,1.45,1.59,1.07,1.46,1.46,1.46
105.37,0.01,-1.42,0.01,-1.42,1.41,1.56,1.02,1.42,1.42,1.42
106.42,0.01,-1.37,0.01,-1.37,1.36,1.53,0.97,1.37,1.37,1.37
107.48,0.01,-1.34,0.01,-1.32,1.32,1.50,0.93,1.32,1.33,1.34
108.56,0.02,-1.27,0.02,-1.27,1.27,1.47,0.88,1.28,1.28,1.28
109.64,0.03,-1.21,0.02,-1.21,1.21,1.44,0.84,1.24,1.24,1.23
110.74,0.03,-1.16,0.03,-1.15,1.16,1.41,0.80,1.19,1.19,1.18
111.85,0.03,-1.11,0.03,-1.10,1.11,1.39,0.76,1.13,1.13,1.13
112.97,0.02,-1.05,0.01,-1.06,1.06,1.36,0.73,1.07,1.07,1.06
114.10,-0.00,-1.02,-0.00,-1.01,1.01,1.34,0.69,1.01,1.01,1.01
115.24,-0.02,-0.98,-0.02,-0.97,0.97,1.31,0.65,0.95,0.95,0.95
116.39,-0.03,-0.92,-0.04,-0.92,0.93,1.29,0.62,0.90,0.89,0.88
117.55,-0.06,-0.89,-0.07,-0.89,0.90,1.26,0.59,0.84,0.83,0.82
118.73,-0.10,-0.87,-0.10,-0.87,0.87,1.24,0.56,0.77,0.77,0.76
119.92,-0.14,-0.86,-0.14,-0.85,0.84,1.22,0.53,0.70,0.70,0.71
121.12,-0.17,-0.83,-0.17,-0.82,0.82,1.19,0.51,0.64,0.65,0.65
122.33,-0.19,-0.80,-0.19,-0.80,0.79,1.17,0.48,0.60,0.60,0.60
123.55,-0.21,-0.77,-0.22,-0.77,0.77,1.15,0.46,0.56,0.55,0.55
124.79,-0.24,-0.75,-0.25,-0.75,0.75,1.13,0.44,0.51,0.50,0.50
126.03,-0.28,-0.74,-0.27,-0.73,0.73,1.11,0.42,0.44,0.45,0.45
127.29,-0.30,-0.71,-0.31,-0.71,0.70,1.09,0.40,0.40,0.40,0.40
128.57,-0.33,-0.68,-0.34,-0.69,0.68,1.07,0.39,0.35,0.34,0.34
129.85,-0.37,-0.68,-0.36,-0.66,0.66,1.05,0.38,0.29,0.30,0.30
131.15,-0.39,-0.65,-0.39,-0.64,0.64,1.03,0.36,0.25,0.25,0.25
132.46,-0.40,-0.62,-0.41,-0.62,0.63,1.01,0.35,0.22,0.21,0.21
133.79,-0.43,-0.61,-0.43,-0.61,0.61,0.99,0.35,0.18,0.18,0.17
135.12,-0.47,-0.61,-0.47,-0.60,0.61,0.98,0.34,0.14,0.14,0.13
136.48,-0.50,-0.60,-0.51,-0.60,0.61,0.96,0.33,0.11,0.10,0.09
137.84,-0.56,-0.62,-0.56,-0.60,0.61,0.94,0.33,0.05,0.06,0.05
139.22,-0.60,-0.61,-0.61,-0.62,0.62,0.93,0.33,0.02,0.01,0.00
140.61,-0.66,-0.63,-0.66,-0.63,0.63,0.91,0.33,-0.04,-0.04,-0.04
142.02,-0.72,-0.67,-0.71,-0.65,0.64,0.90,0.33,-0.08,-0.07,-0.06
143.44,-0.75,-0.66,-0.76,-0.66,0.65,0.88,0.33,-0.10,-0.11,-0.10
144.87,-0.79,-0.66,-0.80,-0.66,0.66,0.87,0.33,-0.14,-0.14,-0.14
146.32,-0.83,-0.66,-0.83,-0.66,0.66,0.85,0.33,-0.17,-0.17,-0.18
147.78,-0.87,-0.67,-0.87,-0.67,0.67,0.84,0.34,-0.21,-0.21,-0.21
149.26,-0.91,-0.68,-0.92,-0.67,0.67,0.82,0.34,-0.24,-0.25,-0.24
150.75,-0.96,-0.67,-0.96,-0.67,0.67,0.81,0.35,-0.29,-0.29,-0.30
152.26,-1.00,-0.67,-1.00,-0.67,0.67,0.80,0.35,-0.33,-0.33,-0.34
153.78,-1.04,-0.68,-1.05,-0.67,0.67,0.78,0.36,-0.38,-0.38,-0.37
155.32,-1.08,-0.66,-1.08,-0.67,0.66,0.77,0.37,-0.42,-0.42,-0.43
156.88,-1.13,-0.68,-1.12,-0.66,0.66,0.76,0.37,-0.48,-0.47,-0.46
158.44,-1.15,-0.65,-1.16,-0.65,0.65,0.75,0.38,-0.50,-0.51,-0.51
160.03,-1.20,-0.65,-1.20,-0.64,0.65,0.74,0.39,-0.56,-0.55,-0.56
161.63,-1.23,-0.63,-1.24,-0.63,0.64,0.72,0.40,-0.59,-0.59,-0.61
163.24,-1.27,-0.63,-1.28,-0.63,0.64,0.71,0.41,-0.64,-0.65,-0.65
164.88,-1.33,-0.65,-1.32,-0.63,0.63,0.70,0.42,-0.70,-0.69,-0.69
166.53,-1.37,-0.64,-1.37,-0.63,0.63,0.69,0.43,-0.74,-0.74,-0.74
168.19,-1.40,-0.62,-1.41,-0.63,0.63,0.68,0.44,-0.78,-0.79,-0.79
169.87,-1.46,-0.63,-1.46,-0.62,0.62,0.67,0.45,-0.84,-0.83,-0.84
171.57,-1.50,-0.63,-1.50,-0.62,0.62,0.66,0.46,-0.89,-0.88,-0.88
173.29,-1.54,-0.61,-1.55,-0.61,0.61,0.66,0.47,-0.93,-0.94,-0.94
175.02,-1.59,-0.61,-1.59,-0.60,0.60,0.65,0.48,-0.99,-0.99,-0.99
176.77,-1.64,-0.60,-1.64,-0.59,0.59,0.64,0.49,-1.05,-1.05,-1.05
178.54,-1.68,-0.59,-1.68,-0.58,0.58,0.63,0.51,-1.10,-1.10,-1.10
180.32,-1.72,-0.57,-1.72,-0.57,0.57,0.62,0.52,-1.16,-1.15,-1.16
182.13,-1.75,-0.55,-1.76,-0.55,0.55,0.62,0.53,-1.20,-1.21,-1.21
183.95,-1.81,-0.55,-1.81,-0.54,0.54,0.61,0.54,-1.27,-1.26,-1.27
185.79,-1.85,-0.54,-1.85,-0.53,0.53,0.60,0.55,-1.32,-1.32,-1.32
187.65,-1.89,-0.51,-1.90,-0.51,0.52,0.59,0.57,-1.38,-1.38,-1.39
189.52,-1.93,-0.50,-1.94,-0.50,0.50,0.59,0.58,-1.43,-1.43,-1.44
191.42,-1.98,-0.50,-1.98,-0.49,0.49,0.58,0.59,-1.50,-1.49,-1.49
193.33,-2.02,-0.49,-2.02,-0.49,0.47,0.58,0.61,-1.55,-1.55,-1.54
195.27,-2.06,-0.48,-2.06,-0.47,0.46,0.57,0.62,-1.60,-1.60,-1.59
197.22,-2.09,-0.45,-2.09,-0.45,0.45,0.57,0.63,-1.64,-1.64,-1.65
199.19,-2.12,-0.43,-2.13,-0.43,0.44,0.56,0.65,-1.68,-1.69,-1.70
201.18,-2.16,-0.42,-2.16,-0.42,0.43,0.56,0.66,-1.73,-1.73,-1.75
203.19,-2.20,-0.43,-2.21,-0.42,0.43,0.55,0.67,-1.78,-1.78,-1.78
205.23,-2.25,-0.42,-2.25,-0.43,0.42,0.55,0.69,-1.83,-1.83,-1.84
207.28,-2.30,-0.45,-2.30,-0.43,0.42,0.55,0.70,-1.88,-1.88,-1.86
209.35,-2.34,-0.43,-2.34,-0.42,0.42,0.54,0.71,-1.92,-1.93,-1.92
211.44,-2.38,-0.42,-2.38,-0.42,0.42,0.54,0.73,-1.96,-1.96,-1.97
213.56,-2.42,-0.42,-2.42,-0.42,0.42,0.54,0.74,-2.00,-2.00,-2.01
215.69,-2.46,-0.44,-2.47,-0.43,0.43,0.53,0.75,-2.03,-2.03,-2.03
217.85,-2.51,-0.45,-2.51,-0.44,0.44,0.53,0.77,-2.07,-2.06,-2.07
220.03,-2.54,-0.44,-2.55,-0.45,0.45,0.53,0.78,-2.09,-2.09,-2.11
222.23,-2.59,-0.46,-2.60,-0.46,0.47,0.53,0.79,-2.12,-2.12,-2.14
224.45,-2.65,-0.50,-2.65,-0.49,0.49,0.53,0.80,-2.16,-2.16,-2.16
226.70,-2.70,-0.52,-2.71,-0.52,0.51,0.53,0.82,-2.19,-2.19,-2.19
228.96,-2.76,-0.55,-2.76,-0.54,0.53,0.53,0.83,-2.23,-2.22,-2.22
231.25,-2.79,-0.57,-2.79,-0.56,0.56,0.53,0.84,-2.24,-2.24,-2.23
233.57,-2.82,-0.58,-2.83,-0.58,0.58,0.53,0.85,-2.25,-2.25,-2.25
235.90,-2.85,-0.60,-2.85,-0.59,0.59,0.53,0.86,-2.26,-2.26,-2.26
238.26,-2.87,-0.61,-2.87,-0.61,0.61,0.53,0.86,-2.27,-2.27,-2.27
240.64,-2.89,-0.62,-2.89,-0.62,0.62,0.53,0.87,-2.27,-2.27,-2.28
243.05,-2.90,-0.63,-2.91,-0.63,0.63,0.54,0.88,-2.27,-2.28,-2.28
245.48,-2.92,-0.64,-2.92,-0.64,0.64,0.54,0.89,-2.29,-2.28,-2.29
247.93,-2.93,-0.65,-2.93,-0.65,0.65,0.54,0.89,-2.29,-2.29,-2.29
250.41,-2.94,-0.66,-2.94,-0.65,0.65,0.55,0.90,-2.29,-2.28,-2.29
252.92,-2.93,-0.66,-2.94,-0.66,0.66,0.55,0.90,-2.27,-2.28,-2.28
255.45,-2.93,-0.67,-2.93,-0.67,0.67,0.56,0.90,-2.27,-2.27,-2.27
258.00,-2.93,-0.68,-2.93,-0.67,0.67,0.56,0.91,-2.27,-2.26,-2.26
260.58,-2.92,-0.67,-2.92,-0.67,0.67,0.57,0.91,-2.26,-2.26,-2.26
263.19,-2.91,-0.67,-2.91,-0.66,0.66,0.57,0.91,-2.25,-2.25,-2.25
265.82,-2.89,-0.66,-2.90,-0.66,0.66,0.58,0.91,-2.23,-2.24,-2.24
268.48,-2.87,-0.66,-2.87,-0.65,0.65,0.59,0.91,-2.22,-2.22,-2.22
271.16,-2.84,-0.65,-2.84,-0.64,0.64,0.60,0.91,-2.21,-2.20,-2.20
273.87,-2.80,-0.61,-2.81,-0.62,0.62,0.61,0.91,-2.18,-2.19,-2.20
276.61,-2.77,-0.61,-2.78,-0.60,0.60,0.62,0.91,-2.18,-2.18,-2.17
279.38,-2.75,-0.59,-2.75,-0.58,0.57,0.63,0.91,-2.18,-2.17,-2.17
282.17,-2.71,-0.57,-2.71,-0.56,0.55,0.64,0.91,-2.16,-2.16,-2.15
284.99,-2.67,-0.54,-2.67,-0.53,0.53,0.65,0.91,-2.15,-2.14,-2.14
287.84,-2.62,-0.50,-2.63,-0.50,0.51,0.66,0.90,-2.12,-2.12,-2.13
290.72,-2.59,-0.48,-2.59,-0.48,0.49,0.68,0.90,-2.10,-2.10,-2.12
293.63,-2.57,-0.48,-2.58,-0.48,0.49,0.69,0.90,-2.08,-2.09,-2.10
296.57,-2.57,-0.50,-2.57,-0.49,0.49,0.71,0.90,-2.08,-2.08,-2.08
299.53,-2.58,-0.51,-2.58,-0.51,0.51,0.72,0.90,-2.07,-2.07,-2.08
302.53,-2.59,-0.53,-2.60,-0.53,0.54,0.74,0.90,-2.06,-2.06,-2.07
305.55,-2.62,-0.58,-2.62,-0.57,0.58,0.76,0.90,-2.05,-2.05,-2.05
308.61,-2.65,-0.62,-2.65,-0.62,0.62,0.78,0.90,-2.03,-2.03,-2.04
311.69,-2.69,-0.67,-2.69,-0.67,0.67,0.80,0.90,-2.02,-2.02,-2.03
314.81,-2.74,-0.75,-2.74,-0.73,0.73,0.82,0.90,-2.02,-2.02,-2.00
317.96,-2.79,-0.79,-2.80,-0.79,0.78,0.84,0.90,-2.01,-2.01,-2.01
321.14,-2.85,-0.86,-2.85,-0.85,0.84,0.87,0.90,-2.01,-2.01,-2.00
324.35,-2.90,-0.91,-2.90,-0.91,0.91,0.89,0.90,-2.00,-2.00,-2.00
327.59,-2.95,-0.97,-2.95,-0.96,0.97,0.92,0.91,-1.99,-1.98,-1.99
330.87,-3.00,-1.02,-3.01,-1.02,1.03,0.94,0.91,-1.98,-1.98,-1.99
334.18,-3.06,-1.08,-3.07,-1.08,1.09,0.97,0.91,-1.98,-1.98,-1.99
337.52,-3.13,-1.16,-3.13,-1.15,1.14,1.00,0.92,-1.99,-1.98,-1.98
340.90,-3.18,-1.21,-3.18,-1.20,1.20,1.03,0.93,-1.99,-1.98,-1.98
344.30,-3.23,-1.26,-3.23,-1.26,1.25,1.07,0.93,-1.98,-1.98,-1.98
347.75,-3.27,-1.30,-3.28,-1.30,1.30,1.10,0.94,-1.97,-1.98,-1.98
351.23,-3.32,-1.35,-3.32,-1.34,1.34,1.13,0.95,-1.98,-1.98,-1.98
354.74,-3.36,-1.39,-3.37,-1.38,1.39,1.17,0.96,-1.98,-1.98,-1.98
358.28,-3.41,-1.42,-3.41,-1.42,1.42,1.20,0.97,-1.99,-1.99,-2.00
361.87,-3.45,-1.46,-3.45,-1.45,1.45,1.24,0.98,-2.00,-2.00,-2.00
365.49,-3.48,-1.49,-3.48,-1.48,1.48,1.27,0.99,-2.00,-2.00,-2.00
369.14,-3.50,-1.50,-3.50,-1.50,1.50,1.31,1.00,-2.00,-2.00,-2.01
372.83,-3.52,-1.52,-3.53,-1.52,1.52,1.34,1.01,-2.00,-2.01,-2.01
376.56,-3.55,-1.54,-3.55,-1.53,1.53,1.38,1.03,-2.02,-2.02,-2.02
380.33,-3.57,-1.55,-3.57,-1.54,1.54,1.41,1.04,-2.04,-2.03,-2.03
384.13,-3.58,-1.55,-3.58,-1.54,1.54,1.45,1.05,-2.05,-2.04,-2.04
387.97,-3.58,-1.54,-3.59,-1.54,1.54,1.48,1.07,-2.05,-2.05,-2.05
391.85,-3.58,-1.53,-3.58,-1.53,1.53,1.51,1.08,-2.05,-2.05,-2.06
395.77,-3.57,-1.53,-3.57,-1.52,1.52,1.54,1.10,-2.05,-2.05,-2.05
399.73,-3.56,-1.51,-3.57,-1.51,1.51,1.56,1.11,-2.05,-2.05,-2.06
403.72,-3.56,-1.50,-3.56,-1.50,1.50,1.58,1.13,-2.06,-2.06,-2.07
407.76,-3.56,-1.49,-3.56,-1.49,1.49,1.60,1.15,-2.07,-2.07,-2.08
411.84,-3.56,-1.50,-3.56,-1.49,1.48,1.62,1.16,-2.08,-2.08,-2.07
415.96,-3.56,-1.48,-3.56,-1.48,1.48,1.63,1.18,-2.08,-2.08,-2.09
420.12,-3.56,-1.48,-3.56,-1.48,1.48,1.63,1.19,-2.08,-2.08,-2.09
424.32,-3.56,-1.48,-3.56,-1.47,1.48,1.63,1.21,-2.08,-2.08,-2.09
428.56,-3.56,-1.47,-3.57,-1.47,1.48,1.63,1.22,-2.08,-2.09,-2.10
432.85,-3.57,-1.48,-3.57,-1.48,1.48,1.62,1.24,-2.09,-2.09,-2.10
437.18,-3.58,-1.49,-3.58,-1.49,1.48,1.61,1.25,-2.10,-2.10,-2.10
441.55,-3.58,-1.50,-3.58,-1.49,1.48,1.60,1.26,-2.10,-2.10,-2.09
445.96,-3.57,-1.49,-3.57,-1.48,1.47,1.57,1.27,-2.10,-2.10,-2.09
450.42,-3.56,-1.47,-3.56,-1.47,1.47,1.55,1.28,-2.10,-2.09,-2.10
454.93,-3.54,-1.46,-3.54,-1.45,1.46,1.52,1.29,-2.09,-2.09,-2.09
459.48,-3.52,-1.44,-3.52,-1.44,1.44,1.49,1.29,-2.08,-2.08,-2.09
464.07,-3.50,-1.43,-3.50,-1.42,1.42,1.45,1.30,-2.08,-2.08,-2.08
