frequency,raw,error,smoothed,error_smoothed,equalization,parametric_eq,fixed_band_eq,equalized_raw,equalized_smoothed,target
20.00,16.88,7.25,16.89,7.26,-7.26,-7.17,-2.89,9.61,9.63,9.62
20.20,16.87,7.25,16.87,7.26,-7.26,-7.15,-2.97,9.60,9.61,9.61
20.40,16.86,7.25,16.86,7.26,-7.26,-7.13,-3.06,9.60,9.60,9.60
20.61,16.85,7.25,16.84,7.26,-7.26,-7.11,-3.14,9.59,9.59,9.59
20.81,16.83,7.25,16.83,7.25,-7.25,-7.09,-3.23,9.58,9.58,9.57
21.02,16.82,7.26,16.81,7.24,-7.24,-7.07,-3.32,9.57,9.57,9.56
21.23,16.80,7.25,16.79,7.23,-7.23,-7.05,-3.41,9.56,9.56,9.55
21.44,16.78,7.22,16.76,7.22,-7.22,-7.02,-3.50,9.56,9.55,9.56
21.66,16.76,7.22,16.74,7.21,-7.21,-7.00,-3.60,9.55,9.54,9.54
21.87,16.73,7.19,16.72,7.19,-7.19,-6.98,-3.70,9.54,9.53,9.54
22.09,16.71,7.19,16.69,7.17,-7.17,-6.96,-3.80,9.53,9.52,9.52
22.31,16.67,7.16,16.66,7.15,-7.15,-6.94,-3.91,9.52,9.51,9.51
22.54,16.65,7.14,16.63,7.13,-7.13,-6.91,-4.02,9.52,9.51,9.50
22.76,16.61,7.10,16.60,7.10,-7.10,-6.89,-4.13,9.50,9.50,9.50
22.99,16.57,7.07,16.57,7.07,-7.07,-6.87,-4.24,9.49,9.49,9.49
23.22,16.53,7.05,16.53,7.05,-7.05,-6.84,-4.36,9.48,9.49,9.48
23.45,16.49,7.00,16.50,7.02,-7.02,-6.82,-4.48,9.47,9.48,9.49
23.69,16.45,6.97,16.47,6.99,-6.99,-6.80,-4.60,9.46,9.48,9.48
23.92,16.41,6.95,16.43,6.96,-6.96,-6.77,-4.72,9.46,9.47,9.47
24.16,16.39,6.91,16.40,6.92,-6.92,-6.75,-4.85,9.46,9.47,9.47
24.40,16.36,6.89,16.36,6.89,-6.89,-6.72,-4.97,9.47,9.47,9.47
24.65,16.34,6.86,16.32,6.86,-6.86,-6.70,-5.10,9.48,9.47,9.47
24.89,16.30,6.84,16.29,6.83,-6.83,-6.67,-5.24,9.48,9.46,9.47
25.14,16.26,6.81,16.25,6.79,-6.79,-6.65,-5.37,9.47,9.46,9.46
25.39,16.21,6.76,16.22,6.76,-6.76,-6.62,-5.50,9.46,9.46,9.46
25.65,16.18,6.72,16.18,6.72,-6.72,-6.59,-5.64,9.45,9.46,9.45
25.91,16.15,6.69,16.14,6.68,-6.68,-6.57,-5.77,9.46,9.46,9.45
26.16,16.10,6.64,16.10,6.65,-6.65,-6.54,-5.91,9.46,9.45,9.46
26.43,16.06,6.60,16.06,6.61,-6.61,-6.51,-6.04,9.45,9.45,9.46
26.69,16.02,6.56,16.02,6.56,-6.56,-6.49,-6.17,9.45,9.45,9.46
26.96,15.98,6.52,15.97,6.52,-6.52,-6.46,-6.30,9.46,9.45,9.45
27.23,15.94,6.48,15.93,6.47,-6.47,-6.43,-6.43,9.46,9.46,9.45
27.50,15.89,6.44,15.89,6.43,-6.43,-6.40,-6.56,9.46,9.46,9.45
27.77,15.84,6.39,15.84,6.39,-6.39,-6.38,-6.68,9.46,9.46,9.46
28.05,15.80,6.34,15.80,6.34,-6.34,-6.35,-6.79,9.45,9.46,9.45
28.33,15.76,6.29,15.76,6.30,-6.30,-6.32,-6.90,9.45,9.46,9.46
28.62,15.72,6.26,15.72,6.26,-6.26,-6.29,-7.01,9.46,9.46,9.46
28.90,15.68,6.21,15.68,6.22,-6.22,-6.26,-7.10,9.45,9.46,9.46
29.19,15.64,6.17,15.64,6.18,-6.18,-6.23,-7.19,9.45,9.46,9.46
29.48,15.60,6.14,15.60,6.15,-6.15,-6.20,-7.27,9.45,9.45,9.46
29.78,15.56,6.10,15.56,6.11,-6.11,-6.17,-7.34,9.45,9.45,9.46
30.08,15.53,6.07,15.52,6.08,-6.08,-6.14,-7.40,9.45,9.45,9.45
30.38,15.49,6.05,15.49,6.04,-6.04,-6.11,-7.45,9.44,9.44,9.44
30.68,15.45,6.01,15.45,6.01,-6.01,-6.08,-7.49,9.44,9.44,9.43
30.99,15.41,5.98,15.41,5.98,-5.98,-6.05,-7.51,9.43,9.43,9.43
31.30,15.37,5.94,15.37,5.94,-5.94,-6.02,-7.53,9.42,9.43,9.43
31.61,15.33,5.90,15.32,5.91,-5.91,-5.99,-7.53,9.42,9.42,9.42
31.93,15.30,5.90,15.28,5.87,-5.87,-5.96,-7.52,9.42,9.41,9.40
32.24,15.25,5.85,15.24,5.84,-5.84,-5.93,-7.50,9.42,9.40,9.40
32.57,15.21,5.82,15.19,5.80,-5.80,-5.90,-7.47,9.41,9.39,9.39
32.89,15.15,5.77,15.15,5.76,-5.76,-5.87,-7.42,9.39,9.39,9.38
33.22,15.10,5.72,15.10,5.72,-5.72,-5.84,-7.37,9.38,9.38,9.38
33.55,15.03,5.66,15.05,5.68,-5.68,-5.81,-7.31,9.36,9.37,9.37
33.89,14.98,5.62,14.99,5.63,-5.63,-5.78,-7.24,9.34,9.36,9.36
34.23,14.94,5.59,14.94,5.59,-5.59,-5.74,-7.17,9.34,9.35,9.34
34.57,14.90,5.56,14.89,5.55,-5.55,-5.71,-7.09,9.35,9.34,9.34
34.92,14.85,5.53,14.84,5.51,-5.51,-5.68,-7.00,9.34,9.33,9.32
35.27,14.80,5.46,14.78,5.46,-5.46,-5.65,-6.91,9.33,9.32,9.33
35.62,14.73,5.42,14.73,5.42,-5.42,-5.62,-6.81,9.30,9.31,9.31
35.97,14.66,5.37,14.67,5.38,-5.38,-5.59,-6.71,9.28,9.29,9.30
36.33,14.61,5.33,14.62,5.35,-5.35,-5.56,-6.61,9.27,9.27,9.28
36.70,14.57,5.31,14.57,5.31,-5.31,-5.52,-6.51,9.25,9.26,9.26
37.06,14.51,5.28,14.52,5.28,-5.28,-5.49,-6.40,9.23,9.24,9.24
37.43,14.46,5.25,14.47,5.25,-5.25,-5.46,-6.30,9.21,9.22,9.22
37.81,14.42,5.21,14.42,5.22,-5.22,-5.43,-6.20,9.20,9.20,9.20
38.19,14.37,5.19,14.37,5.19,-5.19,-5.40,-6.09,9.18,9.18,9.17
38.57,14.32,5.16,14.32,5.16,-5.16,-5.36,-5.99,9.15,9.15,9.15
38.95,14.26,5.13,14.26,5.13,-5.13,-5.33,-5.89,9.13,9.13,9.13
39.34,14.22,5.12,14.21,5.11,-5.11,-5.30,-5.79,9.11,9.10,9.10
39.74,14.18,5.10,14.16,5.08,-5.08,-5.27,-5.70,9.09,9.08,9.07
40.14,14.12,5.06,14.11,5.06,-5.06,-5.24,-5.60,9.06,9.06,9.05
40.54,14.06,5.02,14.06,5.03,-5.03,-5.20,-5.51,9.03,9.03,9.03
40.94,14.01,5.00,14.01,5.00,-5.00,-5.17,-5.43,9.01,9.01,9.00
41.35,13.96,4.98,13.95,4.97,-4.97,-5.14,-5.34,8.98,8.98,8.98
41.76,13.89,4.95,13.90,4.94,-4.94,-5.11,-5.26,8.95,8.96,8.95
42.18,13.85,4.91,13.85,4.92,-4.92,-5.08,-5.19,8.93,8.93,8.93
42.60,13.79,4.89,13.79,4.89,-4.89,-5.05,-5.11,8.91,8.90,8.90
43.03,13.74,4.86,13.73,4.86,-4.86,-5.02,-5.04,8.88,8.88,8.88
43.46,13.68,4.83,13.68,4.83,-4.83,-4.98,-4.98,8.85,8.85,8.84
43.90,13.62,4.80,13.62,4.80,-4.80,-4.95,-4.91,8.81,8.82,8.82
44.33,13.56,4.78,13.57,4.78,-4.78,-4.92,-4.85,8.79,8.79,8.78
44.78,13.51,4.75,13.51,4.76,-4.76,-4.89,-4.80,8.75,8.76,8.76
45.23,13.46,4.72,13.46,4.73,-4.73,-4.86,-4.75,8.72,8.72,8.73
45.68,13.41,4.72,13.40,4.71,-4.71,-4.83,-4.70,8.69,8.69,8.69
46.13,13.34,4.70,13.34,4.69,-4.69,-4.80,-4.65,8.65,8.65,8.65
46.60,13.29,4.67,13.28,4.68,-4.68,-4.77,-4.61,8.61,8.61,8.61
47.06,13.22,4.64,13.23,4.66,-4.66,-4.74,-4.57,8.55,8.57,8.57
47.53,13.17,4.63,13.17,4.64,-4.64,-4.71,-4.54,8.52,8.52,8.53
48.01,13.12,4.64,13.11,4.63,-4.63,-4.68,-4.51,8.49,8.48,8.47
48.49,13.06,4.62,13.05,4.61,-4.61,-4.65,-4.48,8.44,8.43,8.43
48.97,12.98,4.60,12.99,4.60,-4.60,-4.62,-4.45,8.39,8.39,8.38
49.46,12.92,4.58,12.92,4.58,-4.58,-4.60,-4.43,8.33,8.34,8.34
49.96,12.86,4.58,12.86,4.57,-4.57,-4.57,-4.41,8.29,8.29,8.28
50.46,12.81,4.56,12.80,4.55,-4.55,-4.54,-4.40,8.25,8.25,8.24
50.96,12.74,4.54,12.73,4.53,-4.53,-4.51,-4.38,8.20,8.20,8.20
51.47,12.68,4.52,12.67,4.52,-4.52,-4.48,-4.37,8.16,8.15,8.15
51.99,12.60,4.50,12.60,4.50,-4.50,-4.46,-4.36,8.10,8.10,8.10
52.51,12.54,4.48,12.54,4.48,-4.48,-4.43,-4.35,8.05,8.06,8.06
53.03,12.48,4.45,12.47,4.46,-4.46,-4.40,-4.34,8.01,8.01,8.02
53.56,12.42,4.44,12.41,4.44,-4.44,-4.38,-4.34,7.98,7.96,7.97
54.10,12.35,4.43,12.34,4.42,-4.42,-4.35,-4.34,7.93,7.92,7.91
54.64,12.27,4.39,12.27,4.40,-4.40,-4.33,-4.33,7.87,7.87,7.87
55.18,12.19,4.37,12.21,4.38,-4.38,-4.30,-4.33,7.82,7.83,7.82
55.74,12.14,4.37,12.14,4.35,-4.35,-4.28,-4.33,7.78,7.79,7.77
56.29,12.08,4.34,12.07,4.33,-4.33,-4.25,-4.33,7.74,7.74,7.74
56.86,12.01,4.31,12.01,4.31,-4.31,-4.23,-4.32,7.69,7.69,7.69
57.42,11.93,4.30,11.94,4.29,-4.29,-4.20,-4.32,7.64,7.65,7.64
58.00,11.88,4.29,11.88,4.28,-4.28,-4.18,-4.32,7.60,7.60,7.59
58.58,11.81,4.25,11.81,4.26,-4.26,-4.16,-4.31,7.54,7.55,7.55
59.16,11.74,4.23,11.74,4.25,-4.25,-4.14,-4.31,7.50,7.49,7.51
59.76,11.68,4.21,11.68,4.24,-4.24,-4.11,-4.30,7.44,7.44,7.46
60.35,11.61,4.21,11.61,4.23,-4.23,-4.09,-4.29,7.39,7.38,7.40
60.96,11.55,4.21,11.55,4.22,-4.22,-4.07,-4.28,7.32,7.33,7.34
61.57,11.49,4.22,11.48,4.21,-4.21,-4.05,-4.27,7.27,7.27,7.27
62.18,11.42,4.21,11.42,4.21,-4.21,-4.03,-4.26,7.21,7.21,7.20
62.80,11.35,4.22,11.35,4.20,-4.20,-4.01,-4.25,7.15,7.15,7.14
63.43,11.28,4.21,11.28,4.19,-4.19,-4.00,-4.23,7.08,7.09,7.07
64.07,11.21,4.19,11.21,4.19,-4.19,-3.98,-4.21,7.02,7.02,7.01
64.71,11.15,4.19,11.14,4.18,-4.18,-3.96,-4.19,6.96,6.96,6.95
65.35,11.07,4.18,11.07,4.18,-4.18,-3.94,-4.17,6.90,6.89,6.89
66.01,11.01,4.18,11.00,4.17,-4.17,-3.93,-4.15,6.84,6.83,6.83
66.67,10.94,4.16,10.93,4.16,-4.16,-3.91,-4.12,6.78,6.77,6.78
67.33,10.85,4.15,10.85,4.15,-4.15,-3.90,-4.10,6.70,6.70,6.70
68.01,10.78,4.13,10.78,4.14,-4.14,-3.88,-4.07,6.63,6.64,6.65
68.69,10.71,4.13,10.71,4.13,-4.13,-3.87,-4.05,6.57,6.57,6.58
69.37,10.63,4.12,10.64,4.13,-4.13,-3.86,-4.02,6.51,6.51,6.52
70.07,10.56,4.11,10.56,4.12,-4.12,-3.85,-3.99,6.44,6.44,6.45
70.77,10.49,4.11,10.49,4.11,-4.11,-3.83,-3.96,6.37,6.38,6.38
71.48,10.41,4.09,10.41,4.10,-4.10,-3.82,-3.93,6.30,6.31,6.32
72.19,10.35,4.10,10.34,4.10,-4.10,-3.81,-3.91,6.25,6.24,6.24
72.91,10.27,4.11,10.26,4.09,-4.09,-3.80,-3.88,6.19,6.18,6.17
73.64,10.20,4.09,10.19,4.08,-4.08,-3.80,-3.85,6.11,6.11,6.10
74.38,10.12,4.08,10.12,4.08,-4.08,-3.79,-3.83,6.04,6.04,6.03
75.12,10.05,4.07,10.05,4.07,-4.07,-3.78,-3.80,5.98,5.98,5.97
75.87,9.97,4.06,9.98,4.06,-4.06,-3.77,-3.78,5.91,5.91,5.91
76.63,9.91,4.06,9.90,4.05,-4.05,-3.77,-3.76,5.85,5.85,5.84
77.40,9.83,4.04,9.83,4.04,-4.04,-3.76,-3.74,5.78,5.79,5.79
78.17,9.76,4.04,9.76,4.04,-4.04,-3.76,-3.72,5.72,5.73,5.72
78.95,9.68,4.01,9.69,4.03,-4.03,-3.76,-3.70,5.66,5.66,5.67
79.74,9.62,4.02,9.62,4.02,-4.02,-3.75,-3.69,5.61,5.60,5.61
80.54,9.56,4.01,9.55,4.01,-4.01,-3.75,-3.68,5.55,5.54,5.55
81.35,9.49,4.01,9.48,4.00,-4.00,-3.75,-3.67,5.48,5.48,5.48
82.16,9.43,4.00,9.41,3.99,-3.99,-3.75,-3.66,5.43,5.42,5.43
82.98,9.35,3.99,9.34,3.99,-3.99,-3.75,-3.66,5.36,5.36,5.36
83.81,9.28,3.98,9.27,3.98,-3.98,-3.75,-3.66,5.29,5.29,5.30
84.65,9.21,3.98,9.21,3.98,-3.98,-3.76,-3.66,5.23,5.23,5.22
85.50,9.14,3.98,9.14,3.97,-3.97,-3.76,-3.66,5.16,5.16,5.16
86.35,9.07,3.97,9.07,3.97,-3.97,-3.76,-3.67,5.09,5.10,5.09
87.22,9.00,3.97,9.00,3.97,-3.97,-3.77,-3.68,5.02,5.03,5.03
88.09,8.94,3.97,8.93,3.97,-3.97,-3.77,-3.69,4.96,4.96,4.96
88.97,8.87,3.97,8.86,3.97,-3.97,-3.78,-3.71,4.89,4.89,4.89
89.86,8.80,3.97,8.80,3.97,-3.97,-3.79,-3.72,4.82,4.82,4.83
90.76,8.73,3.97,8.73,3.98,-3.98,-3.80,-3.74,4.75,4.75,4.76
91.66,8.67,3.99,8.67,3.98,-3.98,-3.81,-3.77,4.68,4.68,4.68
92.58,8.60,3.98,8.60,3.99,-3.99,-3.81,-3.79,4.61,4.61,4.62
93.51,8.54,3.99,8.53,4.00,-4.00,-3.83,-3.82,4.54,4.54,4.54
94.44,8.47,3.99,8.47,4.00,-4.00,-3.84,-3.85,4.46,4.46,4.47
95.39,8.41,4.02,8.40,4.01,-4.01,-3.85,-3.89,4.40,4.39,4.39
96.34,8.34,4.02,8.33,4.02,-4.02,-3.86,-3.92,4.32,4.32,4.32
97.30,8.27,4.02,8.26,4.02,-4.02,-3.88,-3.96,4.24,4.24,4.24
98.28,8.21,4.05,8.20,4.03,-4.03,-3.89,-4.00,4.18,4.17,4.16
99.26,8.14,4.05,8.13,4.03,-4.03,-3.90,-4.04,4.10,4.09,4.08
100.25,8.06,4.04,8.06,4.03,-4.03,-3.92,-4.08,4.02,4.02,4.01
101.25,7.99,4.04,7.99,4.04,-4.04,-3.94,-4.13,3.95,3.95,3.95
102.27,7.92,4.04,7.92,4.04,-4.04,-3.95,-4.18,3.87,3.88,3.88
103.29,7.86,4.05,7.85,4.04,-4.04,-3.97,-4.22,3.81,3.81,3.80
104.32,7.80,4.06,7.79,4.05,-4.05,-3.99,-4.27,3.75,3.74,3.74
105.37,7.73,4.05,7.72,4.05,-4.05,-4.01,-4.32,3.68,3.67,3.67
106.42,7.65,4.04,7.66,4.05,-4.05,-4.03,-4.37,3.59,3.60,3.61
107.48,7.58,4.04,7.59,4.06,-4.06,-4.04,-4.42,3.51,3.53,3.53
108.56,7.53,4.06,7.53,4.07,-4.07,-4.06,-4.46,3.45,3.46,3.47
109.64,7.48,4.07,7.48,4.08,-4.08,-4.08,-4.51,3.39,3.39,3.40
110.74,7.43,4.10,7.42,4.10,-4.10,-4.10,-4.55,3.33,3.32,3.33
111.85,7.37,4.11,7.36,4.11,-4.11,-4.12,-4.60,3.25,3.25,3.25
112.97,7.31,4.12,7.31,4.13,-4.13,-4.14,-4.64,3.17,3.18,3.19
114.10,7.26,4.14,7.26,4.15,-4.15,-4.16,-4.68,3.11,3.11,3.11
115.24,7.21,4.17,7.20,4.17,-4.17,-4.18,-4.71,3.04,3.04,3.03
116.39,7.16,4.20,7.15,4.19,-4.19,-4.20,-4.74,2.97,2.97,2.96
117.55,7.11,4.22,7.10,4.21,-4.21,-4.22,-4.77,2.90,2.90,2.89
118.73,7.06,4.24,7.05,4.23,-4.23,-4.24,-4.79,2.83,2.83,2.81
119.92,7.01,4.25,7.00,4.24,-4.24,-4.26,-4.81,2.76,2.76,2.75
121.12,6.95,4.26,6.95,4.26,-4.26,-4.28,-4.82,2.69,2.69,2.69
122.33,6.90,4.28,6.90,4.28,-4.28,-4.30,-4.83,2.62,2.62,2.62
123.55,6.85,4.28,6.84,4.29,-4.29,-4.32,-4.84,2.55,2.55,2.56
124.79,6.79,4.29,6.79,4.31,-4.31,-4.34,-4.83,2.48,2.48,2.49
126.03,6.74,4.31,6.74,4.32,-4.32,-4.35,-4.83,2.41,2.42,2.42
127.29,6.69,4.33,6.68,4.33,-4.33,-4.37,-4.81,2.35,2.35,2.36
128.57,6.64,4.35,6.63,4.35,-4.35,-4.38,-4.80,2.29,2.28,2.28
129.85,6.58,4.36,6.57,4.36,-4.36,-4.40,-4.77,2.22,2.21,2.22
131.15,6.51,4.36,6.51,4.37,-4.37,-4.41,-4.75,2.14,2.15,2.14
132.46,6.45,4.37,6.45,4.37,-4.37,-4.42,-4.71,2.07,2.08,2.08
133.79,6.40,4.39,6.39,4.38,-4.38,-4.43,-4.68,2.02,2.01,2.01
135.12,6.34,4.39,6.33,4.38,-4.38,-4.44,-4.63,1.95,1.95,1.95
136.48,6.28,4.39,6.26,4.38,-4.38,-4.44,-4.59,1.90,1.88,1.88
137.84,6.20,4.38,6.19,4.38,-4.38,-4.45,-4.54,1.82,1.82,1.82
139.22,6.13,4.38,6.12,4.37,-4.37,-4.45,-4.49,1.76,1.75,1.75
140.61,6.06,4.36,6.05,4.36,-4.36,-4.45,-4.44,1.70,1.69,1.69
142.02,5.99,4.36,5.98,4.35,-4.35,-4.45,-4.38,1.64,1.63,1.63
143.44,5.91,4.33,5.90,4.33,-4.33,-4.45,-4.32,1.58,1.57,1.57
144.87,5.84,4.32,5.83,4.31,-4.31,-4.45,-4.27,1.52,1.52,1.52
146.32,5.76,4.30,5.76,4.30,-4.30,-4.44,-4.21,1.46,1.46,1.46
147.78,5.68,4.27,5.68,4.28,-4.28,-4.43,-4.15,1.40,1.40,1.41
149.26,5.60,4.25,5.61,4.26,-4.26,-4.43,-4.09,1.34,1.35,1.35
150.75,5.53,4.24,5.53,4.24,-4.24,-4.41,-4.03,1.29,1.29,1.29
152.26,5.46,4.21,5.46,4.22,-4.22,-4.40,-3.97,1.23,1.24,1.24
153.78,5.39,4.20,5.39,4.20,-4.20,-4.38,-3.91,1.18,1.19,1.19
155.32,5.32,4.18,5.32,4.19,-4.19,-4.37,-3.85,1.13,1.13,1.13
156.88,5.25,4.16,5.25,4.17,-4.17,-4.35,-3.79,1.07,1.08,1.08
158.44,5.18,4.16,5.18,4.16,-4.16,-4.32,-3.74,1.02,1.02,1.02
160.03,5.12,4.15,5.11,4.15,-4.15,-4.30,-3.68,0.97,0.96,0.97
161.63,5.04,4.12,5.04,4.13,-4.13,-4.27,-3.63,0.90,0.91,0.91
163.24,4.97,4.11,4.97,4.12,-4.12,-4.25,-3.58,0.85,0.85,0.85
164.88,4.91,4.11,4.90,4.10,-4.10,-4.22,-3.54,0.80,0.80,0.80
166.53,4.85,4.11,4.83,4.09,-4.09,-4.18,-3.49,0.76,0.74,0.73
168.19,4.77,4.08,4.76,4.07,-4.07,-4.15,-3.45,0.69,0.68,0.69
169.87,4.69,4.06,4.68,4.06,-4.06,-4.12,-3.41,0.63,0.62,0.63
171.57,4.61,4.04,4.60,4.04,-4.04,-4.08,-3.37,0.57,0.57,0.56
173.29,4.54,4.02,4.53,4.02,-4.02,-4.04,-3.33,0.52,0.51,0.51
175.02,4.46,4.00,4.45,3.99,-3.99,-4.00,-3.30,0.46,0.45,0.46
176.77,4.37,3.97,4.37,3.97,-3.97,-3.96,-3.27,0.39,0.40,0.40
178.54,4.29,3.94,4.29,3.95,-3.95,-3.92,-3.24,0.34,0.34,0.34
180.32,4.21,3.93,4.21,3.92,-3.92,-3.87,-3.21,0.28,0.29,0.28
182.13,4.13,3.89,4.13,3.90,-3.90,-3.83,-3.19,0.23,0.23,0.23
183.95,4.05,3.86,4.05,3.87,-3.87,-3.78,-3.17,0.17,0.18,0.18
185.79,3.97,3.84,3.97,3.85,-3.85,-3.73,-3.15,0.12,0.12,0.12
187.65,3.89,3.82,3.89,3.82,-3.82,-3.69,-3.13,0.06,0.07,0.07
189.52,3.82,3.79,3.82,3.80,-3.80,-3.64,-3.12,0.02,0.02,0.02
191.42,3.75,3.77,3.74,3.77,-3.77,-3.59,-3.11,-0.03,-0.03,-0.03
193.33,3.67,3.74,3.67,3.75,-3.75,-3.54,-3.10,-0.08,-0.08,-0.07
195.27,3.59,3.71,3.59,3.72,-3.72,-3.49,-3.09,-0.13,-0.13,-0.13
197.22,3.52,3.70,3.52,3.70,-3.70,-3.44,-3.09,-0.18,-0.17,-0.18
199.19,3.46,3.67,3.45,3.67,-3.67,-3.38,-3.08,-0.21,-0.22,-0.22
201.18,3.39,3.66,3.38,3.64,-3.64,-3.33,-3.08,-0.26,-0.26,-0.27
203.19,3.32,3.62,3.31,3.61,-3.61,-3.28,-3.08,-0.30,-0.30,-0.30
205.23,3.26,3.59,3.25,3.59,-3.59,-3.23,-3.08,-0.33,-0.34,-0.33
207.28,3.19,3.56,3.18,3.56,-3.56,-3.17,-3.08,-0.37,-0.38,-0.37
209.35,3.11,3.52,3.11,3.53,-3.53,-3.12,-3.08,-0.42,-0.42,-0.41
211.44,3.05,3.50,3.05,3.50,-3.50,-3.07,-3.08,-0.45,-0.45,-0.45
213.56,2.99,3.46,2.98,3.47,-3.47,-3.02,-3.09,-0.48,-0.49,-0.48
215.69,2.93,3.44,2.92,3.44,-3.44,-2.97,-3.09,-0.51,-0.52,-0.51
217.85,2.86,3.40,2.85,3.40,-3.40,-2.91,-3.09,-0.55,-0.55,-0.55
220.03,2.78,3.36,2.79,3.37,-3.37,-2.86,-3.10,-0.60,-0.58,-0.58
222.23,2.72,3.33,2.73,3.34,-3.34,-2.81,-3.10,-0.62,-0.61,-0.62
224.45,2.67,3.31,2.67,3.31,-3.31,-2.76,-3.10,-0.64,-0.64,-0.64
226.70,2.62,3.29,2.61,3.28,-3.28,-2.71,-3.10,-0.66,-0.67,-0.67
228.96,2.56,3.24,2.55,3.24,-3.24,-2.66,-3.10,-0.69,-0.69,-0.68
231.25,2.49,3.20,2.49,3.21,-3.21,-2.61,-3.10,-0.72,-0.71,-0.71
233.57,2.44,3.17,2.44,3.17,-3.17,-2.56,-3.10,-0.74,-0.73,-0.73
235.90,2.39,3.14,2.38,3.13,-3.13,-2.51,-3.09,-0.75,-0.75,-0.75
238.26,2.33,3.11,2.32,3.09,-3.09,-2.46,-3.08,-0.76,-0.77,-0.78
240.64,2.27,3.05,2.26,3.05,-3.05,-2.41,-3.07,-0.78,-0.79,-0.78
243.05,2.21,3.00,2.21,3.01,-3.01,-2.36,-3.06,-0.80,-0.80,-0.80
245.48,2.15,2.96,2.15,2.96,-2.96,-2.32,-3.04,-0.81,-0.81,-0.82
247.93,2.10,2.93,2.09,2.91,-2.91,-2.27,-3.02,-0.82,-0.82,-0.83
250.41,2.04,2.86,2.03,2.86,-2.86,-2.22,-3.00,-0.82,-0.83,-0.83
252.92,1.98,2.81,1.97,2.81,-2.81,-2.18,-2.98,-0.83,-0.84,-0.83
255.45,1.91,2.75,1.91,2.76,-2.76,-2.13,-2.95,-0.86,-0.85,-0.85
258.00,1.85,2.70,1.86,2.71,-2.71,-2.09,-2.92,-0.86,-0.85,-0.85
260.58,1.79,2.64,1.80,2.66,-2.66,-2.05,-2.89,-0.87,-0.86,-0.85
263.19,1.75,2.60,1.74,2.60,-2.60,-2.00,-2.85,-0.86,-0.87,-0.86
265.82,1.69,2.56,1.68,2.55,-2.55,-1.96,-2.81,-0.86,-0.87,-0.87
268.48,1.62,2.49,1.62,2.49,-2.49,-1.92,-2.77,-0.88,-0.88,-0.87
271.16,1.55,2.42,1.56,2.44,-2.44,-1.88,-2.73,-0.89,-0.88,-0.87
273.87,1.50,2.38,1.49,2.38,-2.38,-1.84,-2.68,-0.88,-0.89,-0.89
276.61,1.45,2.33,1.43,2.32,-2.32,-1.80,-2.64,-0.88,-0.89,-0.89
279.38,1.39,2.29,1.37,2.26,-2.26,-1.76,-2.59,-0.88,-0.89,-0.91
282.17,1.31,2.21,1.30,2.20,-2.20,-1.72,-2.54,-0.89,-0.90,-0.91
284.99,1.24,2.13,1.24,2.13,-2.13,-1.68,-2.48,-0.90,-0.90,-0.90
287.84,1.17,2.06,1.17,2.07,-2.07,-1.64,-2.43,-0.90,-0.90,-0.90
290.72,1.11,2.01,1.10,2.00,-2.00,-1.61,-2.38,-0.90,-0.90,-0.91
293.63,1.05,1.94,1.04,1.93,-1.93,-1.57,-2.32,-0.89,-0.90,-0.90
296.57,0.98,1.87,0.97,1.87,-1.87,-1.54,-2.27,-0.89,-0.89,-0.89
299.53,0.91,1.80,0.91,1.80,-1.80,-1.50,-2.21,-0.90,-0.89,-0.89
302.53,0.84,1.71,0.85,1.73,-1.73,-1.47,-2.16,-0.90,-0.89,-0.88
305.55,0.78,1.66,0.78,1.67,-1.67,-1.43,-2.10,-0.89,-0.88,-0.89
308.61,0.72,1.59,0.72,1.60,-1.60,-1.40,-2.05,-0.89,-0.88,-0.87
311.69,0.66,1.53,0.67,1.54,-1.54,-1.37,-1.99,-0.88,-0.87,-0.87
314.81,0.61,1.47,0.61,1.48,-1.48,-1.34,-1.94,-0.87,-0.87,-0.87
317.96,0.56,1.42,0.56,1.42,-1.42,-1.30,-1.89,-0.86,-0.86,-0.86
321.14,0.51,1.36,0.50,1.36,-1.36,-1.27,-1.83,-0.85,-0.86,-0.85
324.35,0.46,1.31,0.45,1.30,-1.30,-1.24,-1.78,-0.84,-0.85,-0.86
327.59,0.42,1.25,0.40,1.24,-1.24,-1.21,-1.73,-0.83,-0.84,-0.83
330.87,0.36,1.19,0.35,1.19,-1.19,-1.18,-1.68,-0.83,-0.84,-0.84
334.18,0.31,1.14,0.30,1.14,-1.14,-1.15,-1.63,-0.83,-0.83,-0.83
337.52,0.27,1.09,0.26,1.08,-1.08,-1.13,-1.58,-0.82,-0.82,-0.83
340.90,0.23,1.04,0.22,1.03,-1.03,-1.10,-1.53,-0.81,-0.82,-0.81
344.30,0.18,0.98,0.18,0.99,-0.99,-1.07,-1.48,-0.81,-0.81,-0.81
347.75,0.14,0.94,0.14,0.94,-0.94,-1.04,-1.44,-0.81,-0.80,-0.80
351.23,0.10,0.90,0.10,0.90,-0.90,-1.02,-1.39,-0.80,-0.80,-0.81
354.74,0.06,0.84,0.07,0.86,-0.86,-0.99,-1.35,-0.81,-0.79,-0.78
358.28,0.04,0.82,0.04,0.83,-0.83,-0.97,-1.30,-0.79,-0.78,-0.79
361.87,0.02,0.80,0.02,0.80,-0.80,-0.94,-1.26,-0.78,-0.78,-0.78
365.49,-0.00,0.77,0.00,0.77,-0.77,-0.92,-1.22,-0.78,-0.77,-0.77
369.14,-0.01,0.74,-0.01,0.75,-0.75,-0.89,-1.18,-0.76,-0.76,-0.76
372.83,-0.03,0.72,-0.02,0.73,-0.73,-0.87,-1.14,-0.77,-0.76,-0.75
376.56,-0.04,0.71,-0.03,0.72,-0.72,-0.85,-1.10,-0.76,-0.75,-0.75
380.33,-0.04,0.70,-0.04,0.70,-0.70,-0.82,-1.07,-0.75,-0.74,-0.75
384.13,-0.04,0.69,-0.04,0.69,-0.69,-0.80,-1.03,-0.74,-0.73,-0.73
387.97,-0.03,0.69,-0.04,0.68,-0.68,-0.78,-0.99,-0.72,-0.72,-0.72
391.85,-0.02,0.69,-0.04,0.67,-0.67,-0.76,-0.96,-0.70,-0.71,-0.72
395.77,-0.02,0.68,-0.04,0.66,-0.66,-0.73,-0.93,-0.69,-0.71,-0.71
399.73,-0.02,0.68,-0.04,0.65,-0.65,-0.71,-0.89,-0.68,-0.70,-0.70
403.72,-0.02,0.65,-0.04,0.64,-0.64,-0.69,-0.86,-0.67,-0.69,-0.67
407.76,-0.02,0.65,-0.04,0.63,-0.63,-0.67,-0.83,-0.66,-0.68,-0.68
411.84,-0.03,0.63,-0.04,0.63,-0.63,-0.65,-0.80,-0.66,-0.67,-0.67
415.96,-0.04,0.61,-0.04,0.62,-0.62,-0.63,-0.77,-0.67,-0.66,-0.65
420.12,-0.04,0.61,-0.03,0.62,-0.62,-0.61,-0.74,-0.66,-0.65,-0.65
424.32,-0.04,0.60,-0.02,0.62,-0.62,-0.59,-0.71,-0.66,-0.64,-0.65
428.56,-0.03,0.59,-0.01,0.62,-0.62,-0.57,-0.69,-0.66,-0.63,-0.63
432.85,-0.01,0.61,-0.00,0.63,-0.63,-0.56,-0.66,-0.64,-0.63,-0.62
437.18,0.01,0.63,0.02,0.63,-0.63,-0.54,-0.63,-0.63,-0.62,-0.62
441.55,0.03,0.64,0.04,0.65,-0.65,-0.52,-0.61,-0.62,-0.61,-0.61
445.96,0.06,0.66,0.06,0.66,-0.66,-0.50,-0.58,-0.61,-0.60,-0.61
450.42,0.09,0.68,0.09,0.68,-0.68,-0.48,-0.56,-0.60,-0.59,-0.60
454.93,0.12,0.70,0.12,0.70,-0.70,-0.47,-0.54,-0.59,-0.58,-0.59
459.48,0.15,0.73,0.15,0.72,-0.72,-0.45,-0.52,-0.58,-0.58,-0.58
464.07,0.19,0.75,0.18,0.74,-0.74,-0.43,-0.49,-0.56,-0.57,-0.56
468.71,0.22,0.77,0.20,0.76,-0.76,-0.42,-0.47,-0.55,-0.56,-0.55
473.40,0.24,0.78,0.23,0.78,-0.78,-0.40,-0.45,-0.54,-0.55,-0.54
478.13,0.27,0.80,0.25,0.79,-0.79,-0.38,-0.44,-0.53,-0.54,-0.54
482.91,0.29,0.81,0.27,0.80,-0.80,-0.37,-0.42,-0.52,-0.53,-0.53
487.74,0.31,0.82,0.29,0.81,-0.81,-0.35,-0.40,-0.50,-0.52,-0.52
492.62,0.32,0.82,0.31,0.81,-0.81,-0.34,-0.38,-0.50,-0.51,-0.51
497.55,0.33,0.83,0.32,0.81,-0.81,-0.32,-0.37,-0.49,-0.50,-0.50
