frequency,raw,error,smoothed,error_smoothed,equalization,parametric_eq,fixed_band_eq,equalized_raw,equalized_smoothed,target
20.00,1.65,-0.53,1.64,-0.53,0.52,0.12,-0.13,2.17,2.16,2.17
20.20,1.68,-0.55,1.68,-0.54,0.54,0.10,-0.14,2.22,2.22,2.22
20.40,1.72,-0.56,1.72,-0.55,0.56,0.09,-0.14,2.27,2.27,2.27
20.61,1.75,-0.56,1.75,-0.56,0.57,0.07,-0.14,2.31,2.32,2.30
20.81,1.79,-0.57,1.79,-0.57,0.58,0.05,-0.14,2.36,2.36,2.35
21.02,1.82,-0.58,1.82,-0.57,0.58,0.04,-0.15,2.40,2.40,2.39
21.23,1.85,-0.57,1.84,-0.57,0.58,0.02,-0.15,2.42,2.42,2.41
21.44,1.87,-0.57,1.87,-0.57,0.57,0.01,-0.15,2.44,2.44,2.43
21.66,1.89,-0.57,1.89,-0.56,0.56,-0.01,-0.16,2.45,2.45,2.45
21.87,1.92,-0.55,1.92,-0.55,0.55,-0.02,-0.16,2.47,2.47,2.46
22.09,1.95,-0.54,1.95,-0.54,0.53,-0.04,-0.17,2.48,2.48,2.48
22.31,1.98,-0.52,1.98,-0.51,0.50,-0.05,-0.17,2.48,2.48,2.49
22.54,2.02,-0.48,2.01,-0.48,0.47,-0.06,-0.17,2.48,2.48,2.49
22.76,2.06,-0.44,2.05,-0.44,0.42,-0.08,-0.18,2.48,2.48,2.49
22.99,2.10,-0.39,2.10,-0.38,0.37,-0.09,-0.18,2.47,2.48,2.48
23.22,2.16,-0.33,2.16,-0.33,0.32,-0.10,-0.19,2.48,2.48,2.48
23.45,2.22,-0.27,2.22,-0.26,0.27,-0.12,-0.19,2.49,2.49,2.48
23.69,2.29,-0.21,2.29,-0.20,0.22,-0.13,-0.19,2.51,2.51,2.49
23.92,2.35,-0.15,2.34,-0.16,0.18,-0.14,-0.20,2.53,2.52,2.49
24.16,2.38,-0.12,2.37,-0.12,0.14,-0.15,-0.20,2.52,2.52,2.49
24.40,2.39,-0.12,2.39,-0.10,0.11,-0.17,-0.21,2.50,2.50,2.50
24.65,2.41,-0.09,2.40,-0.09,0.09,-0.18,-0.21,2.49,2.49,2.49
24.89,2.42,-0.08,2.42,-0.08,0.06,-0.19,-0.22,2.48,2.48,2.49
25.14,2.44,-0.06,2.44,-0.05,0.04,-0.20,-0.22,2.48,2.48,2.49
25.39,2.47,-0.04,2.47,-0.03,0.02,-0.21,-0.23,2.49,2.49,2.50
25.65,2.50,-0.01,2.49,-0.01,-0.00,-0.22,-0.23,2.50,2.49,2.50
25.91,2.52,0.02,2.52,0.02,-0.02,-0.24,-0.24,2.49,2.50,2.49
26.16,2.55,0.05,2.54,0.05,-0.05,-0.25,-0.24,2.50,2.50,2.49
26.43,2.57,0.07,2.57,0.08,-0.06,-0.26,-0.25,2.50,2.50,2.49
26.69,2.59,0.09,2.59,0.10,-0.08,-0.27,-0.26,2.51,2.51,2.49
26.96,2.62,0.12,2.61,0.11,-0.09,-0.28,-0.26,2.52,2.51,2.49
27.23,2.62,0.12,2.61,0.12,-0.11,-0.29,-0.27,2.50,2.50,2.49
27.50,2.61,0.11,2.61,0.12,-0.13,-0.31,-0.27,2.47,2.47,2.49
27.77,2.61,0.12,2.61,0.12,-0.16,-0.32,-0.28,2.45,2.45,2.48
28.05,2.62,0.13,2.63,0.15,-0.19,-0.33,-0.29,2.43,2.44,2.48
28.33,2.68,0.20,2.68,0.20,-0.21,-0.34,-0.29,2.47,2.47,2.47
28.62,2.74,0.26,2.74,0.26,-0.24,-0.35,-0.30,2.50,2.50,2.47
28.90,2.80,0.31,2.79,0.31,-0.26,-0.36,-0.31,2.53,2.52,2.48
29.19,2.82,0.34,2.81,0.33,-0.29,-0.37,-0.32,2.52,2.51,2.47
29.48,2.81,0.32,2.81,0.33,-0.33,-0.39,-0.32,2.48,2.48,2.48
29.78,2.80,0.32,2.81,0.33,-0.36,-0.40,-0.33,2.43,2.44,2.47
30.08,2.82,0.33,2.83,0.35,-0.40,-0.41,-0.34,2.42,2.43,2.48
30.38,2.88,0.40,2.88,0.40,-0.43,-0.42,-0.35,2.45,2.45,2.47
30.68,2.94,0.46,2.93,0.46,-0.45,-0.43,-0.36,2.49,2.48,2.47
30.99,3.00,0.52,2.98,0.51,-0.48,-0.44,-0.37,2.52,2.50,2.47
31.30,3.00,0.53,3.00,0.54,-0.50,-0.46,-0.38,2.49,2.50,2.46
31.61,3.01,0.54,3.01,0.55,-0.53,-0.47,-0.39,2.48,2.48,2.46
31.93,3.01,0.54,3.01,0.55,-0.55,-0.48,-0.40,2.46,2.46,2.46
32.24,3.01,0.55,3.01,0.55,-0.56,-0.49,-0.41,2.45,2.44,2.45
32.57,3.01,0.55,3.01,0.55,-0.57,-0.51,-0.42,2.43,2.43,2.45
32.89,3.01,0.55,3.01,0.56,-0.58,-0.52,-0.43,2.43,2.43,2.45
33.22,3.03,0.58,3.03,0.59,-0.59,-0.53,-0.44,2.43,2.44,2.44
33.55,3.06,0.61,3.06,0.62,-0.61,-0.54,-0.45,2.45,2.45,2.44
33.89,3.09,0.65,3.08,0.65,-0.63,-0.56,-0.46,2.46,2.45,2.43
34.23,3.10,0.66,3.09,0.66,-0.65,-0.57,-0.47,2.44,2.44,2.43
34.57,3.10,0.67,3.10,0.67,-0.68,-0.58,-0.49,2.42,2.42,2.42
34.92,3.10,0.67,3.10,0.68,-0.70,-0.60,-0.50,2.39,2.40,2.42
35.27,3.13,0.71,3.13,0.72,-0.72,-0.61,-0.51,2.40,2.41,2.41
35.62,3.17,0.75,3.17,0.76,-0.74,-0.62,-0.52,2.42,2.43,2.41
35.97,3.22,0.80,3.20,0.79,-0.76,-0.64,-0.54,2.46,2.44,2.41
36.33,3.21,0.79,3.20,0.79,-0.78,-0.65,-0.55,2.43,2.42,2.41
36.70,3.19,0.78,3.20,0.79,-0.80,-0.66,-0.57,2.39,2.39,2.40
37.06,3.19,0.78,3.20,0.79,-0.82,-0.68,-0.58,2.37,2.38,2.40
37.43,3.23,0.81,3.23,0.82,-0.84,-0.69,-0.60,2.39,2.39,2.41
37.81,3.28,0.86,3.27,0.86,-0.85,-0.71,-0.62,2.43,2.42,2.41
38.19,3.30,0.89,3.29,0.88,-0.86,-0.72,-0.63,2.44,2.43,2.40
38.57,3.30,0.88,3.30,0.89,-0.87,-0.74,-0.65,2.43,2.43,2.41
38.95,3.30,0.87,3.30,0.88,-0.88,-0.75,-0.67,2.42,2.42,2.42
39.34,3.30,0.88,3.30,0.88,-0.89,-0.77,-0.69,2.41,2.41,2.41
39.74,3.30,0.88,3.30,0.88,-0.89,-0.78,-0.70,2.41,2.41,2.41
40.14,3.30,0.88,3.30,0.89,-0.89,-0.80,-0.72,2.41,2.41,2.41
40.54,3.30,0.88,3.30,0.89,-0.89,-0.81,-0.74,2.41,2.41,2.41
40.94,3.30,0.89,3.30,0.89,-0.89,-0.83,-0.77,2.41,2.41,2.40
41.35,3.30,0.89,3.30,0.90,-0.89,-0.84,-0.79,2.41,2.41,2.40
41.76,3.30,0.90,3.30,0.90,-0.89,-0.86,-0.81,2.40,2.40,2.39
42.18,3.30,0.90,3.30,0.91,-0.90,-0.88,-0.83,2.40,2.40,2.39
42.60,3.30,0.91,3.30,0.91,-0.91,-0.89,-0.85,2.38,2.38,2.38
43.03,3.30,0.92,3.29,0.92,-0.93,-0.91,-0.88,2.37,2.36,2.37
43.46,3.30,0.93,3.29,0.93,-0.95,-0.93,-0.90,2.35,2.34,2.36
43.90,3.30,0.95,3.31,0.96,-0.98,-0.94,-0.93,2.32,2.33,2.34
44.33,3.33,1.00,3.33,1.01,-1.01,-0.96,-0.95,2.32,2.32,2.32
44.78,3.37,1.06,3.36,1.05,-1.04,-0.98,-0.98,2.32,2.32,2.30
45.23,3.39,1.09,3.38,1.09,-1.08,-1.00,-1.01,2.31,2.30,2.29
45.68,3.40,1.11,3.40,1.12,-1.12,-1.02,-1.04,2.28,2.28,2.28
46.13,3.41,1.14,3.42,1.15,-1.15,-1.03,-1.07,2.25,2.27,2.26
46.60,3.45,1.18,3.45,1.19,-1.19,-1.05,-1.10,2.26,2.26,2.26
47.06,3.49,1.24,3.47,1.23,-1.22,-1.07,-1.13,2.27,2.26,2.24
47.53,3.49,1.25,3.49,1.25,-1.24,-1.09,-1.16,2.25,2.25,2.23
48.01,3.49,1.25,3.49,1.26,-1.26,-1.11,-1.19,2.22,2.23,2.23
48.49,3.49,1.27,3.49,1.27,-1.28,-1.13,-1.22,2.20,2.20,2.21
48.97,3.49,1.29,3.49,1.29,-1.30,-1.15,-1.25,2.19,2.19,2.19
49.46,3.49,1.31,3.49,1.31,-1.32,-1.17,-1.28,2.17,2.17,2.17
49.96,3.49,1.33,3.49,1.33,-1.33,-1.19,-1.32,2.16,2.16,2.15
50.46,3.49,1.34,3.49,1.34,-1.34,-1.21,-1.35,2.14,2.14,2.14
50.96,3.49,1.35,3.49,1.36,-1.36,-1.23,-1.39,2.13,2.13,2.13
51.47,3.49,1.37,3.49,1.37,-1.37,-1.25,-1.42,2.12,2.12,2.11
51.99,3.49,1.38,3.49,1.38,-1.38,-1.27,-1.45,2.11,2.11,2.10
52.51,3.49,1.39,3.49,1.39,-1.39,-1.29,-1.49,2.09,2.09,2.09
53.03,3.49,1.39,3.49,1.40,-1.40,-1.31,-1.52,2.08,2.08,2.09
53.56,3.49,1.41,3.49,1.41,-1.42,-1.34,-1.56,2.07,2.07,2.07
54.10,3.49,1.42,3.49,1.42,-1.43,-1.36,-1.59,2.06,2.06,2.06
54.64,3.49,1.44,3.49,1.44,-1.44,-1.38,-1.63,2.04,2.04,2.04
55.18,3.49,1.44,3.49,1.45,-1.45,-1.40,-1.66,2.04,2.04,2.04
55.74,3.49,1.46,3.49,1.46,-1.46,-1.42,-1.69,2.03,2.03,2.02
56.29,3.49,1.47,3.49,1.48,-1.46,-1.45,-1.73,2.03,2.03,2.01
56.86,3.49,1.48,3.48,1.48,-1.46,-1.47,-1.76,2.03,2.02,2.00
57.42,3.46,1.48,3.45,1.47,-1.46,-1.49,-1.79,2.00,1.99,1.97
58.00,3.41,1.44,3.42,1.46,-1.46,-1.52,-1.82,1.95,1.96,1.96
58.58,3.40,1.44,3.40,1.45,-1.47,-1.54,-1.85,1.93,1.93,1.95
59.16,3.39,1.45,3.39,1.45,-1.48,-1.57,-1.87,1.91,1.91,1.93
59.76,3.39,1.47,3.39,1.48,-1.49,-1.59,-1.90,1.89,1.89,1.91
60.35,3.39,1.51,3.39,1.51,-1.52,-1.61,-1.92,1.87,1.87,1.87
60.96,3.39,1.55,3.39,1.55,-1.55,-1.64,-1.95,1.84,1.84,1.83
61.57,3.39,1.59,3.39,1.59,-1.59,-1.66,-1.97,1.80,1.80,1.79
62.18,3.39,1.63,3.39,1.64,-1.63,-1.69,-1.99,1.76,1.76,1.75
62.80,3.39,1.68,3.39,1.68,-1.68,-1.72,-2.01,1.71,1.71,1.70
63.43,3.39,1.72,3.39,1.73,-1.73,-1.74,-2.02,1.66,1.66,1.66
64.07,3.39,1.77,3.39,1.77,-1.77,-1.77,-2.04,1.61,1.61,1.61
64.71,3.39,1.81,3.39,1.81,-1.82,-1.79,-2.05,1.57,1.57,1.57
65.35,3.39,1.85,3.39,1.86,-1.85,-1.82,-2.07,1.53,1.54,1.53
66.01,3.39,1.90,3.39,1.91,-1.89,-1.85,-2.08,1.50,1.50,1.48
66.67,3.39,1.95,3.37,1.94,-1.92,-1.87,-2.09,1.46,1.45,1.43
67.33,3.36,1.97,3.35,1.96,-1.96,-1.90,-2.10,1.40,1.39,1.38
68.01,3.30,1.95,3.32,1.98,-1.99,-1.93,-2.11,1.30,1.32,1.34
68.69,3.30,2.00,3.30,2.00,-2.03,-1.95,-2.12,1.27,1.27,1.29
69.37,3.30,2.05,3.29,2.05,-2.07,-1.98,-2.12,1.23,1.22,1.24
70.07,3.30,2.10,3.30,2.10,-2.10,-2.01,-2.13,1.20,1.20,1.19
70.77,3.30,2.15,3.30,2.16,-2.14,-2.04,-2.14,1.16,1.16,1.14
71.48,3.30,2.20,3.29,2.20,-2.18,-2.07,-2.14,1.12,1.11,1.09
72.19,3.28,2.25,3.26,2.23,-2.22,-2.09,-2.15,1.05,1.04,1.02
72.91,3.21,2.24,3.23,2.26,-2.27,-2.12,-2.16,0.94,0.96,0.96
73.64,3.20,2.28,3.20,2.29,-2.32,-2.15,-2.17,0.88,0.88,0.91
74.38,3.20,2.34,3.19,2.34,-2.36,-2.18,-2.18,0.83,0.83,0.85
75.12,3.20,2.40,3.20,2.40,-2.41,-2.21,-2.18,0.79,0.79,0.79
75.87,3.20,2.46,3.20,2.46,-2.45,-2.24,-2.19,0.74,0.75,0.73
76.63,3.20,2.51,3.20,2.52,-2.50,-2.27,-2.21,0.70,0.70,0.68
77.40,3.20,2.56,3.19,2.56,-2.54,-2.30,-2.22,0.65,0.65,0.63
78.17,3.19,2.61,3.17,2.59,-2.58,-2.32,-2.23,0.60,0.59,0.57
78.95,3.13,2.59,3.14,2.61,-2.62,-2.35,-2.25,0.51,0.52,0.53
79.74,3.11,2.62,3.12,2.64,-2.65,-2.38,-2.26,0.46,0.47,0.48
80.54,3.11,2.67,3.11,2.67,-2.68,-2.41,-2.28,0.43,0.43,0.43
81.35,3.11,2.72,3.10,2.71,-2.70,-2.44,-2.30,0.40,0.39,0.38
82.16,3.09,2.75,3.07,2.74,-2.73,-2.47,-2.32,0.36,0.34,0.33
82.98,3.03,2.73,3.04,2.75,-2.76,-2.50,-2.34,0.27,0.28,0.29
83.81,3.01,2.76,3.02,2.77,-2.79,-2.53,-2.36,0.22,0.23,0.24
84.65,3.01,2.81,3.01,2.81,-2.81,-2.56,-2.39,0.19,0.19,0.19
85.50,3.01,2.85,3.00,2.85,-2.84,-2.59,-2.42,0.17,0.16,0.15
86.35,2.99,2.88,2.98,2.87,-2.86,-2.62,-2.45,0.13,0.12,0.10
87.22,2.94,2.88,2.95,2.90,-2.88,-2.65,-2.48,0.05,0.07,0.05
88.09,2.91,2.90,2.91,2.91,-2.91,-2.68,-2.51,-0.00,-0.00,0.00
88.97,2.90,2.95,2.87,2.93,-2.94,-2.71,-2.55,-0.05,-0.07,-0.06
89.86,2.83,2.93,2.84,2.95,-2.97,-2.74,-2.59,-0.14,-0.13,-0.11
90.76,2.82,2.97,2.83,2.98,-3.00,-2.77,-2.63,-0.18,-0.17,-0.16
91.66,2.82,3.02,2.81,3.02,-3.03,-2.80,-2.67,-0.21,-0.21,-0.21
92.58,2.82,3.08,2.81,3.07,-3.05,-2.83,-2.71,-0.23,-0.24,-0.27
93.51,2.79,3.10,2.79,3.10,-3.07,-2.86,-2.76,-0.29,-0.29,-0.32
94.44,2.75,3.10,2.76,3.12,-3.10,-2.89,-2.80,-0.35,-0.35,-0.36
95.39,2.72,3.12,2.71,3.12,-3.13,-2.92,-2.85,-0.41,-0.41,-0.41
96.34,2.68,3.13,2.67,3.13,-3.15,-2.95,-2.90,-0.47,-0.48,-0.46
97.30,2.62,3.12,2.63,3.14,-3.16,-2.98,-2.95,-0.55,-0.53,-0.51
98.28,2.61,3.16,2.61,3.16,-3.17,-3.01,-3.01,-0.57,-0.56,-0.56
99.26,2.60,3.19,2.59,3.19,-3.18,-3.04,-3.06,-0.58,-0.59,-0.60
100.25,2.58,3.22,2.56,3.21,-3.18,-3.07,-3.12,-0.61,-0.62,-0.65
101.25,2.52,3.21,2.51,3.21,-3.19,-3.10,-3.17,-0.67,-0.68,-0.70
102.27,2.44,3.18,2.44,3.19,-3.19,-3.12,-3.23,-0.75,-0.75,-0.75
103.29,2.38,3.17,2.38,3.17,-3.19,-3.15,-3.29,-0.81,-0.81,-0.80
104.32,2.33,3.16,2.33,3.17,-3.18,-3.18,-3.34,-0.85,-0.85,-0.84
105.37,2.30,3.18,2.29,3.18,-3.18,-3.21,-3.40,-0.88,-0.89,-0.89
106.42,2.26,3.19,2.24,3.18,-3.18,-3.24,-3.46,-0.92,-0.94,-0.94
107.48,2.18,3.17,2.19,3.18,-3.19,-3.26,-3.52,-1.01,-1.00,-1.00
108.56,2.13,3.17,2.14,3.19,-3.21,-3.29,-3.57,-1.08,-1.07,-1.05
109.64,2.11,3.20,2.10,3.20,-3.22,-3.32,-3.63,-1.12,-1.12,-1.10
110.74,2.09,3.24,2.09,3.24,-3.24,-3.34,-3.68,-1.15,-1.15,-1.16
111.85,2.07,3.26,2.09,3.29,-3.25,-3.37,-3.73,-1.18,-1.17,-1.20
112.97,2.07,3.32,2.05,3.30,-3.27,-3.39,-3.78,-1.20,-1.22,-1.26
114.10,2.04,3.34,2.00,3.30,-3.29,-3.42,-3.83,-1.25,-1.29,-1.31
115.24,1.89,3.24,1.93,3.29,-3.31,-3.44,-3.87,-1.42,-1.37,-1.36
116.39,1.88,3.28,1.88,3.29,-3.32,-3.47,-3.91,-1.45,-1.44,-1.41
117.55,1.87,3.31,1.86,3.31,-3.34,-3.49,-3.95,-1.47,-1.48,-1.45
118.73,1.88,3.36,1.88,3.36,-3.35,-3.52,-3.98,-1.47,-1.47,-1.49
119.92,1.88,3.39,1.88,3.40,-3.37,-3.54,-4.01,-1.49,-1.49,-1.52
121.12,1.88,3.43,1.85,3.41,-3.39,-3.56,-4.03,-1.52,-1.54,-1.56
122.33,1.82,3.40,1.83,3.41,-3.42,-3.58,-4.05,-1.60,-1.59,-1.59
123.55,1.79,3.40,1.81,3.43,-3.45,-3.60,-4.06,-1.66,-1.64,-1.62
124.79,1.82,3.46,1.80,3.45,-3.48,-3.62,-4.07,-1.66,-1.67,-1.65
126.03,1.82,3.49,1.83,3.50,-3.50,-3.64,-4.08,-1.68,-1.67,-1.68
127.29,1.84,3.53,1.83,3.53,-3.51,-3.66,-4.08,-1.67,-1.68,-1.70
128.57,1.84,3.57,1.81,3.54,-3.52,-3.68,-4.07,-1.68,-1.71,-1.74
129.85,1.76,3.52,1.79,3.55,-3.53,-3.70,-4.06,-1.78,-1.74,-1.77
131.15,1.75,3.54,1.75,3.55,-3.55,-3.72,-4.04,-1.80,-1.80,-1.80
132.46,1.74,3.56,1.70,3.53,-3.56,-3.74,-4.03,-1.82,-1.85,-1.83
133.79,1.66,3.51,1.68,3.53,-3.57,-3.75,-4.00,-1.91,-1.89,-1.86
135.12,1.65,3.53,1.67,3.55,-3.57,-3.77,-3.98,-1.92,-1.90,-1.89
136.48,1.67,3.57,1.66,3.58,-3.57,-3.78,-3.95,-1.91,-1.91,-1.91
137.84,1.69,3.63,1.66,3.61,-3.58,-3.80,-3.91,-1.89,-1.92,-1.95
139.22,1.64,3.61,1.64,3.62,-3.58,-3.81,-3.88,-1.94,-1.94,-1.98
140.61,1.59,3.59,1.61,3.61,-3.59,-3.82,-3.84,-2.00,-1.98,-2.01
142.02,1.58,3.60,1.55,3.58,-3.60,-3.83,-3.80,-2.02,-2.04,-2.03
143.44,1.52,3.57,1.51,3.58,-3.61,-3.84,-3.76,-2.09,-2.09,-2.06
144.87,1.47,3.56,1.49,3.58,-3.62,-3.85,-3.71,-2.15,-2.13,-2.10
146.32,1.48,3.61,1.48,3.61,-3.63,-3.86,-3.67,-2.15,-2.14,-2.14
147.78,1.50,3.66,1.49,3.66,-3.64,-3.87,-3.63,-2.14,-2.15,-2.17
149.26,1.49,3.70,1.48,3.70,-3.66,-3.88,-3.58,-2.18,-2.18,-2.22
150.75,1.44,3.71,1.43,3.71,-3.69,-3.88,-3.54,-2.26,-2.26,-2.28
152.26,1.37,3.71,1.36,3.71,-3.73,-3.89,-3.49,-2.37,-2.37,-2.35
153.78,1.29,3.70,1.31,3.73,-3.77,-3.89,-3.45,-2.48,-2.46,-2.42
155.32,1.28,3.76,1.30,3.79,-3.80,-3.90,-3.41,-2.53,-2.51,-2.49
156.88,1.31,3.87,1.27,3.84,-3.83,-3.90,-3.37,-2.52,-2.56,-2.57
158.44,1.27,3.91,1.23,3.88,-3.85,-3.90,-3.33,-2.59,-2.62,-2.65
160.03,1.14,3.86,1.18,3.91,-3.87,-3.90,-3.29,-2.74,-2.69,-2.73
161.63,1.11,3.90,1.11,3.91,-3.89,-3.90,-3.25,-2.79,-2.78,-2.80
163.24,1.09,3.94,1.04,3.90,-3.91,-3.90,-3.22,-2.82,-2.86,-2.86
164.88,0.98,3.88,0.98,3.89,-3.91,-3.90,-3.18,-2.93,-2.93,-2.91
166.53,0.90,3.85,0.93,3.88,-3.90,-3.89,-3.15,-3.01,-2.98,-2.96
168.19,0.89,3.88,0.89,3.89,-3.89,-3.89,-3.13,-3.01,-3.00,-3.00
169.87,0.89,3.92,0.87,3.91,-3.89,-3.88,-3.10,-3.00,-3.01,-3.04
171.57,0.87,3.92,0.84,3.89,-3.88,-3.87,-3.07,-3.02,-3.04,-3.06
173.29,0.78,3.84,0.79,3.86,-3.88,-3.87,-3.05,-3.10,-3.08,-3.07
175.02,0.74,3.81,0.77,3.85,-3.87,-3.86,-3.03,-3.13,-3.10,-3.08
176.77,0.77,3.85,0.76,3.85,-3.85,-3.85,-3.02,-3.08,-3.09,-3.09
178.54,0.79,3.88,0.77,3.86,-3.83,-3.84,-3.00,-3.04,-3.06,-3.10
180.32,0.77,3.85,0.76,3.85,-3.81,-3.82,-2.99,-3.04,-3.05,-3.09
182.13,0.71,3.78,0.73,3.81,-3.79,-3.81,-2.98,-3.09,-3.07,-3.08
183.95,0.69,3.77,0.67,3.76,-3.78,-3.79,-2.97,-3.10,-3.11,-3.09
185.79,0.65,3.73,0.63,3.72,-3.77,-3.78,-2.96,-3.13,-3.14,-3.09
187.65,0.59,3.69,0.63,3.73,-3.76,-3.76,-2.96,-3.18,-3.14,-3.11
189.52,0.63,3.74,0.63,3.75,-3.75,-3.74,-2.96,-3.13,-3.12,-3.12
191.42,0.68,3.81,0.64,3.78,-3.75,-3.72,-2.96,-3.07,-3.11,-3.14
193.33,0.64,3.79,0.63,3.79,-3.75,-3.70,-2.96,-3.11,-3.12,-3.16
195.27,0.58,3.75,0.57,3.75,-3.74,-3.68,-2.97,-3.17,-3.17,-3.18
197.22,0.50,3.69,0.52,3.72,-3.74,-3.66,-2.97,-3.24,-3.22,-3.20
199.19,0.48,3.69,0.51,3.73,-3.73,-3.64,-2.98,-3.25,-3.22,-3.22
201.18,0.53,3.76,0.48,3.72,-3.71,-3.61,-2.99,-3.19,-3.23,-3.24
203.19,0.48,3.73,0.44,3.69,-3.69,-3.59,-3.00,-3.21,-3.25,-3.26
205.23,0.34,3.61,0.38,3.65,-3.66,-3.56,-3.01,-3.32,-3.28,-3.28
207.28,0.30,3.58,0.34,3.63,-3.63,-3.53,-3.03,-3.33,-3.29,-3.29
209.35,0.34,3.64,0.31,3.62,-3.61,-3.50,-3.04,-3.27,-3.30,-3.31
211.44,0.33,3.66,0.27,3.60,-3.59,-3.47,-3.05,-3.26,-3.32,-3.34
213.56,0.17,3.51,0.21,3.55,-3.57,-3.44,-3.07,-3.40,-3.36,-3.35
215.69,0.11,3.46,0.14,3.50,-3.54,-3.41,-3.08,-3.44,-3.41,-3.36
217.85,0.13,3.49,0.11,3.48,-3.52,-3.37,-3.09,-3.39,-3.41,-3.37
220.03,0.13,3.50,0.14,3.52,-3.49,-3.34,-3.11,-3.36,-3.35,-3.38
222.23,0.15,3.55,0.13,3.53,-3.46,-3.30,-3.12,-3.31,-3.33,-3.41
224.45,0.12,3.51,0.07,3.47,-3.43,-3.27,-3.13,-3.31,-3.36,-3.40
226.70,-0.03,3.36,-0.01,3.39,-3.41,-3.23,-3.14,-3.44,-3.41,-3.40
228.96,-0.11,3.27,-0.07,3.32,-3.38,-3.19,-3.15,-3.49,-3.45,-3.39
231.25,-0.07,3.30,-0.08,3.30,-3.35,-3.15,-3.15,-3.42,-3.43,-3.38
233.57,-0.05,3.31,-0.07,3.30,-3.30,-3.11,-3.16,-3.35,-3.37,-3.37
235.90,-0.04,3.31,-0.07,3.29,-3.24,-3.07,-3.16,-3.29,-3.31,-3.36
238.26,-0.12,3.22,-0.08,3.26,-3.20,-3.03,-3.16,-3.32,-3.28,-3.35
240.64,-0.11,3.20,-0.13,3.19,-3.15,-2.99,-3.15,-3.27,-3.29,-3.32
243.05,-0.15,3.13,-0.20,3.09,-3.12,-2.94,-3.15,-3.27,-3.32,-3.29
245.48,-0.28,2.98,-0.24,3.03,-3.09,-2.90,-3.14,-3.37,-3.32,-3.27
247.93,-0.28,2.95,-0.26,2.98,-3.04,-2.85,-3.12,-3.33,-3.30,-3.24
250.41,-0.22,2.99,-0.25,2.97,-3.00,-2.81,-3.10,-3.22,-3.24,-3.22
252.92,-0.20,2.98,-0.22,2.97,-2.94,-2.76,-3.08,-3.15,-3.16,-3.19
255.45,-0.22,2.94,-0.21,2.96,-2.89,-2.71,-3.06,-3.11,-3.10,-3.17
258.00,-0.25,2.89,-0.24,2.90,-2.84,-2.66,-3.03,-3.10,-3.09,-3.15
260.58,-0.27,2.85,-0.32,2.80,-2.79,-2.62,-3.00,-3.07,-3.11,-3.13
263.19,-0.40,2.69,-0.40,2.70,-2.73,-2.57,-2.97,-3.13,-3.14,-3.10
265.82,-0.53,2.54,-0.47,2.61,-2.65,-2.52,-2.93,-3.19,-3.12,-3.08
268.48,-0.50,2.55,-0.52,2.54,-2.57,-2.47,-2.89,-3.07,-3.08,-3.06
271.16,-0.49,2.53,-0.52,2.51,-2.48,-2.41,-2.85,-2.98,-3.00,-3.03
273.87,-0.56,2.44,-0.56,2.45,-2.40,-2.36,-2.80,-2.96,-2.96,-3.01
276.61,-0.60,2.37,-0.66,2.32,-2.32,-2.31,-2.75,-2.93,-2.98,-2.98
279.38,-0.79,2.15,-0.74,2.21,-2.25,-2.26,-2.70,-3.04,-2.99,-2.95
282.17,-0.83,2.09,-0.79,2.13,-2.16,-2.21,-2.65,-2.99,-2.95,-2.93
284.99,-0.78,2.10,-0.81,2.08,-2.06,-2.15,-2.60,-2.85,-2.87,-2.89
287.84,-0.79,2.07,-0.84,2.03,-1.97,-2.10,-2.55,-2.76,-2.81,-2.87
290.72,-0.90,1.93,-0.92,1.92,-1.87,-2.05,-2.49,-2.78,-2.79,-2.84
293.63,-1.07,1.73,-1.01,1.80,-1.80,-1.99,-2.43,-2.87,-2.81,-2.81
296.57,-1.08,1.69,-1.09,1.69,-1.75,-1.94,-2.38,-2.83,-2.84,-2.78
299.53,-1.08,1.66,-1.15,1.60,-1.70,-1.89,-2.32,-2.79,-2.85,-2.75
302.53,-1.18,1.54,-1.12,1.60,-1.66,-1.83,-2.26,-2.84,-2.78,-2.73
305.55,-1.13,1.55,-1.07,1.62,-1.61,-1.78,-2.21,-2.75,-2.69,-2.69
308.61,-0.95,1.71,-1.03,1.63,-1.57,-1.72,-2.15,-2.52,-2.60,-2.67
311.69,-0.97,1.66,-1.00,1.63,-1.53,-1.67,-2.09,-2.51,-2.54,-2.64
314.81,-1.09,1.52,-1.05,1.57,-1.50,-1.62,-2.03,-2.60,-2.55,-2.62
317.96,-1.13,1.46,-1.15,1.45,-1.47,-1.57,-1.98,-2.61,-2.62,-2.60
321.14,-1.21,1.37,-1.21,1.37,-1.43,-1.51,-1.92,-2.65,-2.64,-2.59
324.35,-1.27,1.29,-1.25,1.32,-1.38,-1.46,-1.87,-2.65,-2.63,-2.57
327.59,-1.24,1.31,-1.28,1.27,-1.31,-1.41,-1.81,-2.56,-2.60,-2.56
330.87,-1.30,1.24,-1.27,1.27,-1.25,-1.36,-1.76,-2.55,-2.52,-2.55
334.18,-1.29,1.23,-1.26,1.27,-1.19,-1.31,-1.71,-2.48,-2.45,-2.53
337.52,-1.23,1.28,-1.32,1.20,-1.14,-1.26,-1.66,-2.38,-2.46,-2.52
340.90,-1.38,1.12,-1.42,1.09,-1.10,-1.21,-1.61,-2.49,-2.52,-2.51
344.30,-1.59,0.90,-1.50,1.00,-1.06,-1.16,-1.56,-2.65,-2.56,-2.50
347.75,-1.58,0.91,-1.54,0.95,-1.02,-1.12,-1.51,-2.60,-2.56,-2.50
351.23,-1.46,1.02,-1.53,0.96,-0.98,-1.07,-1.46,-2.44,-2.51,-2.49
354.74,-1.47,1.02,-1.52,0.98,-0.94,-1.03,-1.42,-2.41,-2.45,-2.50
358.28,-1.59,0.89,-1.54,0.94,-0.90,-0.98,-1.37,-2.50,-2.45,-2.49
361.87,-1.61,0.87,-1.60,0.89,-0.88,-0.94,-1.33,-2.49,-2.48,-2.49
365.49,-1.60,0.87,-1.62,0.86,-0.87,-0.90,-1.28,-2.47,-2.49,-2.48
369.14,-1.63,0.85,-1.64,0.85,-0.85,-0.86,-1.24,-2.48,-2.49,-2.49
372.83,-1.67,0.81,-1.68,0.81,-0.82,-0.82,-1.20,-2.50,-2.50,-2.49
376.56,-1.73,0.76,-1.73,0.76,-0.79,-0.78,-1.16,-2.52,-2.51,-2.50
380.33,-1.76,0.72,-1.73,0.76,-0.75,-0.75,-1.12,-2.51,-2.48,-2.49
384.13,-1.75,0.73,-1.74,0.76,-0.72,-0.71,-1.08,-2.47,-2.45,-2.49
387.97,-1.69,0.80,-1.78,0.71,-0.69,-0.68,-1.05,-2.38,-2.47,-2.50
391.85,-1.86,0.64,-1.85,0.65,-0.66,-0.65,-1.01,-2.52,-2.51,-2.51
395.77,-1.98,0.51,-1.92,0.59,-0.62,-0.62,-0.98,-2.60,-2.53,-2.50
399.73,-1.96,0.54,-1.96,0.55,-0.58,-0.59,-0.94,-2.54,-2.54,-2.51
403.72,-1.91,0.59,-1.96,0.56,-0.54,-0.57,-0.91,-2.45,-2.50,-2.51
407.76,-1.96,0.56,-1.98,0.54,-0.50,-0.54,-0.88,-2.46,-2.48,-2.53
411.84,-2.05,0.47,-2.04,0.48,-0.46,-0.52,-0.85,-2.51,-2.50,-2.53
415.96,-2.13,0.39,-2.11,0.42,-0.43,-0.50,-0.82,-2.56,-2.54,-2.53
420.12,-2.14,0.38,-2.14,0.38,-0.41,-0.48,-0.79,-2.56,-2.56,-2.53
424.32,-2.14,0.38,-2.15,0.37,-0.41,-0.47,-0.76,-2.55,-2.55,-2.53
428.56,-2.13,0.38,-2.14,0.38,-0.40,-0.45,-0.74,-2.54,-2.54,-2.52
432.85,-2.12,0.38,-2.13,0.38,-0.40,-0.44,-0.71,-2.52,-2.53,-2.51
437.18,-2.09,0.40,-2.08,0.41,-0.41,-0.43,-0.69,-2.50,-2.49,-2.50
441.55,-2.05,0.40,-2.00,0.46,-0.42,-0.42,-0.66,-2.47,-2.42,-2.46
445.96,-1.88,0.54,-1.96,0.47,-0.44,-0.42,-0.64,-2.32,-2.39,-2.43
450.42,-1.89,0.50,-1.93,0.47,-0.45,-0.41,-0.62,-2.34,-2.38,-2.40
454.93,-1.98,0.36,-1.89,0.46,-0.46,-0.41,-0.60,-2.44,-2.36,-2.35
459.48,-1.85,0.45,-1.87,0.43,-0.47,-0.41,-0.59,-2.32,-2.34,-2.31
464.07,-1.77,0.48,-1.80,0.45,-0.48,-0.41,-0.57,-2.25,-2.28,-2.26
468.71,-1.72,0.47,-1.71,0.49,-0.48,-0.42,-0.56,-2.20,-2.19,-2.20
473.40,-1.66,0.49,-1.66,0.49,-0.47,-0.42,-0.54,-2.14,-2.13,-2.16
478.13,-1.60,0.49,-1.61,0.49,-0.47,-0.43,-0.53,-2.08,-2.08,-2.10
482.91,-1.56,0.49,-1.56,0.49,-0.48,-0.44,-0.52,-2.04,-2.04,-2.06
487.74,-1.52,0.49,-1.52,0.49,-0.48,-0.45,-0.51,-2.01,-2.00,-2.02
