frequency,raw,error,smoothed,error_smoothed,equalization,parametric_eq,fixed_band_eq,equalized_raw,equalized_smoothed,target
20.00,-2.16,-7.20,-2.13,-7.20,7.20,7.39,0.52,5.04,5.06,5.04
20.20,-1.99,-7.03,-1.98,-7.03,7.03,7.31,0.54,5.05,5.05,5.04
20.40,-1.84,-6.87,-1.82,-6.87,6.87,7.21,0.56,5.03,5.05,5.04
20.61,-1.67,-6.71,-1.67,-6.70,6.70,7.09,0.58,5.03,5.04,5.04
20.81,-1.49,-6.52,-1.51,-6.53,6.53,6.96,0.59,5.05,5.03,5.04
21.02,-1.33,-6.36,-1.35,-6.36,6.36,6.81,0.61,5.04,5.01,5.04
21.23,-1.16,-6.17,-1.19,-6.19,6.19,6.66,0.63,5.03,5.00,5.02
21.44,-1.01,-6.01,-1.03,-6.02,6.02,6.48,0.65,5.01,4.99,5.01
21.66,-0.86,-5.84,-0.87,-5.84,5.84,6.30,0.67,4.98,4.97,4.99
21.87,-0.69,-5.66,-0.70,-5.66,5.66,6.11,0.69,4.97,4.96,4.97
22.09,-0.54,-5.49,-0.54,-5.48,5.48,5.92,0.72,4.94,4.94,4.95
22.31,-0.38,-5.31,-0.37,-5.30,5.30,5.72,0.74,4.91,4.93,4.92
22.54,-0.23,-5.13,-0.21,-5.11,5.11,5.51,0.76,4.88,4.90,4.90
22.76,-0.06,-4.94,-0.04,-4.92,4.92,5.31,0.79,4.87,4.88,4.88
22.99,0.11,-4.74,0.13,-4.73,4.73,5.10,0.81,4.84,4.86,4.85
23.22,0.28,-4.54,0.30,-4.54,4.54,4.89,0.84,4.82,4.84,4.82
23.45,0.46,-4.34,0.47,-4.34,4.34,4.68,0.86,4.81,4.81,4.80
23.69,0.64,-4.15,0.64,-4.15,4.15,4.47,0.89,4.79,4.79,4.79
23.92,0.83,-3.94,0.82,-3.95,3.95,4.26,0.91,4.78,4.77,4.77
24.16,1.00,-3.75,0.99,-3.76,3.76,4.06,0.94,4.76,4.75,4.76
24.40,1.18,-3.56,1.17,-3.56,3.56,3.85,0.97,4.74,4.73,4.74
24.65,1.34,-3.37,1.34,-3.37,3.37,3.65,0.99,4.71,4.71,4.72
24.89,1.53,-3.17,1.51,-3.18,3.18,3.45,1.02,4.71,4.70,4.70
25.14,1.70,-2.99,1.69,-2.99,2.99,3.26,1.05,4.69,4.68,4.68
25.39,1.86,-2.81,1.85,-2.81,2.81,3.07,1.07,4.67,4.66,4.66
25.65,2.02,-2.63,2.02,-2.63,2.63,2.88,1.10,4.65,4.65,4.65
25.91,2.18,-2.44,2.18,-2.45,2.45,2.69,1.12,4.63,4.63,4.62
26.16,2.34,-2.27,2.34,-2.27,2.27,2.51,1.15,4.61,4.61,4.61
26.43,2.49,-2.11,2.50,-2.10,2.10,2.34,1.17,4.59,4.60,4.60
26.69,2.65,-1.92,2.65,-1.93,1.93,2.16,1.20,4.58,4.58,4.58
26.96,2.80,-1.76,2.80,-1.76,1.76,1.99,1.22,4.56,4.57,4.57
27.23,2.95,-1.60,2.95,-1.60,1.60,1.83,1.24,4.55,4.55,4.55
27.50,3.09,-1.45,3.10,-1.44,1.44,1.67,1.26,4.53,4.54,4.54
27.77,3.25,-1.28,3.24,-1.28,1.28,1.51,1.28,4.53,4.52,4.52
28.05,3.38,-1.13,3.38,-1.13,1.13,1.36,1.29,4.51,4.51,4.51
28.33,3.51,-0.97,3.52,-0.98,0.98,1.21,1.31,4.49,4.49,4.49
28.62,3.65,-0.83,3.65,-0.83,0.83,1.06,1.32,4.48,4.48,4.48
28.90,3.77,-0.69,3.78,-0.69,0.69,0.92,1.32,4.46,4.47,4.47
29.19,3.90,-0.54,3.91,-0.55,0.55,0.78,1.33,4.45,4.45,4.44
29.48,4.02,-0.42,4.03,-0.41,0.41,0.64,1.33,4.44,4.44,4.44
29.78,4.14,-0.29,4.14,-0.28,0.28,0.51,1.33,4.42,4.43,4.43
30.08,4.26,-0.16,4.26,-0.15,0.15,0.38,1.33,4.41,4.41,4.42
30.38,4.36,-0.03,4.36,-0.03,0.03,0.26,1.32,4.39,4.39,4.40
30.68,4.47,0.09,4.47,0.09,-0.09,0.14,1.31,4.38,4.38,4.38
30.99,4.57,0.21,4.56,0.20,-0.20,0.02,1.29,4.37,4.36,4.36
31.30,4.66,0.31,4.66,0.31,-0.31,-0.09,1.27,4.35,4.35,4.35
31.61,4.75,0.42,4.75,0.42,-0.42,-0.20,1.25,4.34,4.33,4.34
31.93,4.83,0.52,4.83,0.52,-0.52,-0.31,1.22,4.31,4.31,4.31
32.24,4.90,0.62,4.91,0.62,-0.62,-0.42,1.19,4.29,4.29,4.28
32.57,4.98,0.71,4.98,0.71,-0.71,-0.52,1.16,4.27,4.27,4.27
32.89,5.04,0.79,5.05,0.80,-0.80,-0.61,1.12,4.25,4.25,4.25
33.22,5.11,0.89,5.11,0.88,-0.88,-0.71,1.08,4.23,4.23,4.22
33.55,5.16,0.96,5.17,0.96,-0.96,-0.80,1.03,4.20,4.21,4.21
33.89,5.22,1.04,5.22,1.04,-1.04,-0.89,0.99,4.18,4.18,4.19
34.23,5.27,1.11,5.28,1.11,-1.11,-0.98,0.94,4.16,4.16,4.16
34.57,5.32,1.18,5.32,1.18,-1.18,-1.06,0.88,4.14,4.14,4.14
34.92,5.37,1.26,5.37,1.25,-1.25,-1.14,0.82,4.12,4.12,4.12
35.27,5.41,1.31,5.41,1.32,-1.32,-1.22,0.77,4.10,4.10,4.10
35.62,5.45,1.38,5.45,1.38,-1.38,-1.29,0.70,4.08,4.08,4.08
35.97,5.49,1.44,5.49,1.44,-1.44,-1.36,0.64,4.06,4.06,4.05
36.33,5.53,1.49,5.53,1.50,-1.50,-1.43,0.57,4.04,4.03,4.04
36.70,5.56,1.55,5.56,1.55,-1.55,-1.50,0.51,4.01,4.01,4.01
37.06,5.60,1.61,5.60,1.61,-1.61,-1.56,0.44,4.00,3.99,3.99
37.43,5.63,1.66,5.63,1.66,-1.66,-1.62,0.37,3.97,3.97,3.97
37.81,5.65,1.70,5.66,1.71,-1.71,-1.68,0.29,3.94,3.95,3.95
38.19,5.69,1.77,5.69,1.77,-1.77,-1.74,0.22,3.93,3.93,3.93
38.57,5.71,1.80,5.72,1.82,-1.82,-1.79,0.15,3.90,3.91,3.91
38.95,5.74,1.86,5.75,1.86,-1.86,-1.84,0.07,3.88,3.88,3.88
39.34,5.77,1.92,5.78,1.91,-1.91,-1.89,-0.01,3.86,3.86,3.86
39.74,5.80,1.97,5.80,1.96,-1.96,-1.94,-0.09,3.84,3.84,3.83
40.14,5.82,2.00,5.83,2.00,-2.00,-1.99,-0.16,3.82,3.82,3.83
40.54,5.85,2.05,5.85,2.05,-2.05,-2.03,-0.24,3.80,3.80,3.80
40.94,5.88,2.10,5.88,2.09,-2.09,-2.07,-0.32,3.79,3.78,3.78
41.35,5.89,2.14,5.90,2.13,-2.13,-2.11,-0.40,3.76,3.76,3.76
41.76,5.92,2.17,5.92,2.18,-2.18,-2.15,-0.49,3.75,3.74,3.75
42.18,5.94,2.21,5.94,2.22,-2.22,-2.18,-0.57,3.73,3.72,3.73
42.60,5.95,2.25,5.96,2.25,-2.25,-2.22,-0.65,3.70,3.70,3.70
43.03,5.97,2.28,5.97,2.29,-2.29,-2.25,-0.74,3.68,3.68,3.70
43.46,5.98,2.32,5.99,2.33,-2.33,-2.28,-0.82,3.66,3.66,3.67
43.90,6.00,2.36,6.00,2.36,-2.36,-2.31,-0.91,3.65,3.64,3.64
44.33,6.01,2.39,6.01,2.39,-2.39,-2.33,-0.99,3.63,3.62,3.62
44.78,6.01,2.41,6.02,2.42,-2.42,-2.36,-1.08,3.60,3.60,3.60
45.23,6.02,2.45,6.02,2.44,-2.44,-2.39,-1.17,3.58,3.58,3.57
45.68,6.02,2.47,6.02,2.47,-2.47,-2.41,-1.25,3.56,3.56,3.55
46.13,6.03,2.50,6.02,2.49,-2.49,-2.43,-1.34,3.55,3.54,3.53
46.60,6.02,2.50,6.02,2.51,-2.51,-2.46,-1.43,3.52,3.51,3.52
47.06,6.02,2.53,6.01,2.52,-2.52,-2.48,-1.52,3.50,3.49,3.50
47.53,6.01,2.54,6.01,2.54,-2.54,-2.50,-1.61,3.48,3.47,3.48
48.01,5.99,2.53,5.99,2.55,-2.55,-2.52,-1.70,3.44,3.44,3.46
48.49,5.98,2.55,5.98,2.56,-2.56,-2.53,-1.79,3.42,3.42,3.43
48.97,5.96,2.56,5.96,2.57,-2.57,-2.55,-1.88,3.40,3.40,3.40
49.46,5.94,2.58,5.95,2.57,-2.57,-2.57,-1.98,3.37,3.37,3.36
49.96,5.92,2.59,5.92,2.57,-2.57,-2.59,-2.07,3.35,3.35,3.33
50.46,5.90,2.58,5.90,2.58,-2.58,-2.60,-2.16,3.33,3.32,3.33
50.96,5.88,2.58,5.88,2.58,-2.58,-2.62,-2.25,3.30,3.30,3.30
51.47,5.85,2.59,5.85,2.58,-2.58,-2.63,-2.34,3.27,3.27,3.27
51.99,5.82,2.58,5.83,2.58,-2.58,-2.65,-2.44,3.24,3.24,3.24
52.51,5.80,2.58,5.80,2.58,-2.58,-2.67,-2.53,3.22,3.22,3.22
53.03,5.77,2.58,5.77,2.58,-2.58,-2.68,-2.62,3.19,3.19,3.20
53.56,5.75,2.58,5.75,2.59,-2.59,-2.70,-2.70,3.17,3.16,3.17
54.10,5.72,2.58,5.72,2.59,-2.59,-2.71,-2.79,3.14,3.14,3.14
54.64,5.69,2.58,5.70,2.59,-2.59,-2.73,-2.88,3.11,3.11,3.11
55.18,5.67,2.59,5.68,2.59,-2.59,-2.74,-2.96,3.08,3.09,3.08
55.74,5.65,2.60,5.65,2.60,-2.60,-2.76,-3.04,3.06,3.06,3.05
56.29,5.62,2.59,5.63,2.60,-2.60,-2.77,-3.12,3.02,3.03,3.03
56.86,5.61,2.61,5.61,2.61,-2.61,-2.79,-3.20,3.00,3.00,3.00
57.42,5.59,2.63,5.60,2.62,-2.62,-2.80,-3.27,2.97,2.97,2.97
58.00,5.58,2.64,5.58,2.64,-2.64,-2.82,-3.34,2.95,2.94,2.94
58.58,5.56,2.65,5.57,2.65,-2.65,-2.84,-3.41,2.91,2.91,2.91
59.16,5.55,2.67,5.55,2.67,-2.67,-2.86,-3.47,2.88,2.88,2.89
59.76,5.54,2.68,5.54,2.69,-2.69,-2.87,-3.53,2.85,2.85,2.86
60.35,5.53,2.71,5.53,2.71,-2.71,-2.89,-3.58,2.82,2.82,2.83
60.96,5.52,2.71,5.53,2.73,-2.73,-2.91,-3.63,2.79,2.79,2.81
61.57,5.52,2.76,5.52,2.76,-2.76,-2.93,-3.67,2.76,2.76,2.76
62.18,5.51,2.79,5.51,2.79,-2.79,-2.95,-3.71,2.73,2.73,2.72
62.80,5.51,2.82,5.51,2.81,-2.81,-2.97,-3.75,2.70,2.70,2.69
63.43,5.51,2.86,5.51,2.84,-2.84,-2.99,-3.78,2.67,2.67,2.65
64.07,5.50,2.88,5.51,2.87,-2.87,-3.01,-3.80,2.63,2.63,2.62
64.71,5.51,2.91,5.51,2.91,-2.91,-3.04,-3.83,2.61,2.60,2.60
65.35,5.50,2.93,5.51,2.94,-2.94,-3.06,-3.84,2.56,2.57,2.57
66.01,5.51,2.97,5.52,2.97,-2.97,-3.08,-3.86,2.54,2.54,2.54
66.67,5.52,3.01,5.52,3.01,-3.01,-3.11,-3.87,2.51,2.51,2.51
67.33,5.53,3.05,5.53,3.05,-3.05,-3.14,-3.87,2.48,2.48,2.48
68.01,5.53,3.08,5.54,3.09,-3.09,-3.16,-3.87,2.44,2.45,2.45
68.69,5.54,3.12,5.55,3.13,-3.13,-3.19,-3.87,2.41,2.42,2.42
69.37,5.55,3.17,5.56,3.18,-3.18,-3.22,-3.87,2.38,2.39,2.38
70.07,5.57,3.22,5.57,3.22,-3.22,-3.25,-3.87,2.35,2.35,2.35
70.77,5.58,3.26,5.59,3.27,-3.27,-3.28,-3.86,2.31,2.32,2.32
71.48,5.60,3.32,5.60,3.32,-3.32,-3.31,-3.85,2.28,2.28,2.28
72.19,5.61,3.36,5.61,3.37,-3.37,-3.34,-3.84,2.24,2.24,2.25
72.91,5.63,3.43,5.63,3.42,-3.42,-3.37,-3.84,2.21,2.20,2.21
73.64,5.64,3.48,5.64,3.48,-3.48,-3.41,-3.83,2.17,2.16,2.16
74.38,5.65,3.53,5.65,3.53,-3.53,-3.44,-3.82,2.12,2.12,2.13
75.12,5.67,3.60,5.66,3.58,-3.58,-3.48,-3.81,2.09,2.08,2.07
75.87,5.67,3.64,5.67,3.64,-3.64,-3.51,-3.80,2.04,2.04,2.03
76.63,5.68,3.69,5.68,3.69,-3.69,-3.55,-3.79,1.99,1.99,2.00
77.40,5.69,3.75,5.69,3.75,-3.75,-3.59,-3.79,1.95,1.95,1.95
78.17,5.69,3.81,5.70,3.80,-3.80,-3.63,-3.78,1.89,1.90,1.89
78.95,5.70,3.85,5.70,3.85,-3.85,-3.67,-3.78,1.85,1.85,1.86
79.74,5.70,3.90,5.71,3.91,-3.91,-3.71,-3.78,1.80,1.80,1.80
80.54,5.70,3.95,5.71,3.96,-3.96,-3.75,-3.78,1.74,1.75,1.75
81.35,5.71,4.02,5.71,4.01,-4.01,-3.79,-3.79,1.70,1.70,1.70
82.16,5.70,4.06,5.70,4.06,-4.06,-3.83,-3.79,1.64,1.64,1.64
82.98,5.70,4.11,5.70,4.11,-4.11,-3.88,-3.80,1.59,1.59,1.60
83.81,5.69,4.16,5.69,4.16,-4.16,-3.92,-3.82,1.54,1.54,1.53
84.65,5.68,4.21,5.68,4.20,-4.20,-3.96,-3.83,1.48,1.48,1.47
85.50,5.67,4.25,5.67,4.25,-4.25,-4.01,-3.85,1.42,1.42,1.42
86.35,5.66,4.30,5.66,4.29,-4.29,-4.05,-3.87,1.37,1.37,1.37
87.22,5.64,4.34,5.64,4.33,-4.33,-4.10,-3.89,1.31,1.31,1.31
88.09,5.62,4.38,5.62,4.38,-4.38,-4.15,-3.92,1.25,1.25,1.25
88.97,5.60,4.41,5.60,4.41,-4.41,-4.19,-3.95,1.19,1.19,1.19
89.86,5.58,4.45,5.58,4.45,-4.45,-4.24,-3.98,1.13,1.13,1.13
90.76,5.55,4.49,5.55,4.49,-4.49,-4.28,-4.02,1.07,1.07,1.06
91.66,5.52,4.52,5.53,4.52,-4.52,-4.33,-4.06,1.00,1.01,1.01
92.58,5.49,4.56,5.50,4.55,-4.55,-4.38,-4.10,0.94,0.95,0.93
93.51,5.46,4.57,5.47,4.58,-4.58,-4.42,-4.14,0.88,0.88,0.89
94.44,5.43,4.61,5.43,4.61,-4.61,-4.47,-4.19,0.82,0.82,0.82
95.39,5.40,4.64,5.40,4.64,-4.64,-4.51,-4.24,0.76,0.75,0.76
96.34,5.35,4.67,5.36,4.67,-4.67,-4.56,-4.29,0.68,0.68,0.68
97.30,5.31,4.70,5.32,4.70,-4.70,-4.60,-4.35,0.61,0.62,0.62
98.28,5.27,4.72,5.27,4.73,-4.73,-4.65,-4.41,0.55,0.55,0.55
99.26,5.23,4.76,5.23,4.75,-4.75,-4.69,-4.47,0.48,0.48,0.47
100.25,5.18,4.78,5.18,4.78,-4.78,-4.73,-4.53,0.41,0.41,0.41
101.25,5.13,4.79,5.14,4.80,-4.80,-4.77,-4.59,0.34,0.34,0.34
102.27,5.08,4.82,5.08,4.82,-4.82,-4.81,-4.66,0.26,0.26,0.26
103.29,5.03,4.85,5.03,4.84,-4.84,-4.85,-4.72,0.19,0.19,0.18
104.32,4.97,4.86,4.97,4.86,-4.86,-4.89,-4.79,0.12,0.12,0.12
105.37,4.92,4.87,4.92,4.87,-4.87,-4.92,-4.86,0.05,0.04,0.05
106.42,4.85,4.88,4.85,4.89,-4.89,-4.96,-4.92,-0.03,-0.03,-0.03
107.48,4.79,4.90,4.79,4.90,-4.90,-4.99,-4.99,-0.11,-0.11,-0.11
108.56,4.73,4.92,4.73,4.91,-4.91,-5.02,-5.05,-0.18,-0.18,-0.18
109.64,4.66,4.92,4.66,4.92,-4.92,-5.04,-5.11,-0.26,-0.26,-0.26
110.74,4.59,4.92,4.59,4.93,-4.93,-5.07,-5.18,-0.34,-0.34,-0.33
111.85,4.52,4.93,4.52,4.93,-4.93,-5.09,-5.23,-0.41,-0.42,-0.41
112.97,4.44,4.95,4.44,4.94,-4.94,-5.11,-5.29,-0.50,-0.49,-0.50
114.10,4.36,4.93,4.37,4.94,-4.94,-5.13,-5.34,-0.58,-0.57,-0.57
115.24,4.29,4.94,4.30,4.94,-4.94,-5.15,-5.39,-0.65,-0.65,-0.65
116.39,4.22,4.96,4.22,4.94,-4.94,-5.16,-5.43,-0.72,-0.72,-0.73
117.55,4.14,4.95,4.14,4.94,-4.94,-5.17,-5.46,-0.80,-0.80,-0.81
118.73,4.06,4.95,4.07,4.94,-4.94,-5.17,-5.49,-0.88,-0.87,-0.88
119.92,3.98,4.93,3.99,4.94,-4.94,-5.18,-5.52,-0.96,-0.95,-0.95
121.12,3.91,4.93,3.92,4.94,-4.94,-5.18,-5.53,-1.02,-1.02,-1.02
122.33,3.83,4.93,3.84,4.93,-4.93,-5.17,-5.54,-1.10,-1.09,-1.09
123.55,3.76,4.92,3.76,4.93,-4.93,-5.17,-5.55,-1.17,-1.16,-1.16
124.79,3.69,4.92,3.69,4.92,-4.92,-5.16,-5.54,-1.23,-1.23,-1.23
126.03,3.61,4.90,3.61,4.91,-4.91,-5.15,-5.53,-1.30,-1.30,-1.29
127.29,3.54,4.90,3.54,4.90,-4.90,-5.13,-5.51,-1.36,-1.37,-1.36
128.57,3.46,4.90,3.46,4.89,-4.89,-5.12,-5.48,-1.43,-1.43,-1.44
129.85,3.39,4.89,3.38,4.88,-4.88,-5.09,-5.45,-1.49,-1.50,-1.50
131.15,3.31,4.87,3.31,4.87,-4.87,-5.07,-5.41,-1.55,-1.56,-1.56
132.46,3.23,4.86,3.23,4.85,-4.85,-5.04,-5.36,-1.62,-1.62,-1.63
133.79,3.15,4.83,3.16,4.83,-4.83,-5.01,-5.30,-1.68,-1.68,-1.67
135.12,3.08,4.82,3.08,4.81,-4.81,-4.98,-5.24,-1.73,-1.73,-1.74
136.48,3.00,4.79,3.01,4.79,-4.79,-4.95,-5.18,-1.79,-1.78,-1.78
137.84,2.92,4.75,2.93,4.77,-4.77,-4.91,-5.11,-1.84,-1.83,-1.83
139.22,2.85,4.74,2.86,4.74,-4.74,-4.87,-5.03,-1.89,-1.88,-1.89
140.61,2.78,4.73,2.78,4.71,-4.71,-4.83,-4.95,-1.93,-1.93,-1.94
142.02,2.71,4.68,2.71,4.68,-4.68,-4.78,-4.87,-1.97,-1.97,-1.96
143.44,2.63,4.64,2.64,4.65,-4.65,-4.74,-4.79,-2.01,-2.01,-2.00
144.87,2.56,4.62,2.56,4.61,-4.61,-4.69,-4.70,-2.05,-2.05,-2.05
146.32,2.49,4.58,2.49,4.58,-4.58,-4.64,-4.61,-2.09,-2.09,-2.09
147.78,2.42,4.54,2.42,4.54,-4.54,-4.59,-4.52,-2.12,-2.13,-2.12
149.26,2.35,4.51,2.34,4.51,-4.51,-4.54,-4.43,-2.15,-2.16,-2.16
150.75,2.27,4.47,2.27,4.47,-4.47,-4.48,-4.34,-2.20,-2.20,-2.20
152.26,2.19,4.43,2.19,4.43,-4.43,-4.43,-4.25,-2.24,-2.23,-2.24
153.78,2.12,4.39,2.12,4.39,-4.39,-4.37,-4.16,-2.27,-2.27,-2.27
155.32,2.04,4.34,2.04,4.35,-4.35,-4.31,-4.07,-2.30,-2.30,-2.30
156.88,1.96,4.30,1.96,4.30,-4.30,-4.25,-3.98,-2.34,-2.34,-2.33
158.44,1.88,4.26,1.89,4.26,-4.26,-4.19,-3.89,-2.38,-2.37,-2.37
160.03,1.81,4.23,1.81,4.21,-4.21,-4.13,-3.80,-2.40,-2.41,-2.41
161.63,1.72,4.17,1.73,4.17,-4.17,-4.07,-3.72,-2.45,-2.44,-2.45
163.24,1.64,4.12,1.65,4.12,-4.12,-4.01,-3.64,-2.48,-2.48,-2.48
164.88,1.57,4.08,1.57,4.08,-4.08,-3.95,-3.56,-2.51,-2.51,-2.51
166.53,1.49,4.03,1.49,4.03,-4.03,-3.89,-3.48,-2.54,-2.55,-2.54
168.19,1.40,3.99,1.41,3.99,-3.99,-3.82,-3.40,-2.59,-2.58,-2.59
169.87,1.32,3.94,1.32,3.94,-3.94,-3.76,-3.33,-2.62,-2.62,-2.62
171.57,1.24,3.90,1.24,3.90,-3.90,-3.70,-3.25,-2.66,-2.66,-2.65
173.29,1.15,3.84,1.16,3.86,-3.86,-3.64,-3.18,-2.70,-2.70,-2.68
175.02,1.08,3.81,1.08,3.81,-3.81,-3.57,-3.12,-2.73,-2.74,-2.73
176.77,0.99,3.77,0.99,3.77,-3.77,-3.51,-3.05,-2.77,-2.78,-2.78
178.54,0.91,3.73,0.91,3.72,-3.72,-3.45,-2.99,-2.81,-2.81,-2.82
180.32,0.82,3.68,0.82,3.68,-3.68,-3.39,-2.93,-2.85,-2.85,-2.85
182.13,0.74,3.63,0.74,3.63,-3.63,-3.33,-2.87,-2.89,-2.89,-2.89
183.95,0.65,3.59,0.66,3.59,-3.59,-3.27,-2.81,-2.94,-2.93,-2.94
185.79,0.57,3.55,0.57,3.54,-3.54,-3.21,-2.76,-2.97,-2.97,-2.97
187.65,0.49,3.51,0.49,3.50,-3.50,-3.15,-2.70,-3.01,-3.01,-3.02
189.52,0.39,3.45,0.40,3.45,-3.45,-3.09,-2.66,-3.06,-3.05,-3.05
191.42,0.32,3.41,0.32,3.41,-3.41,-3.03,-2.61,-3.08,-3.08,-3.09
193.33,0.24,3.35,0.24,3.36,-3.36,-2.97,-2.56,-3.12,-3.12,-3.11
195.27,0.15,3.30,0.16,3.31,-3.31,-2.91,-2.52,-3.16,-3.15,-3.14
197.22,0.07,3.25,0.08,3.26,-3.26,-2.85,-2.48,-3.19,-3.18,-3.18
199.19,0.00,3.23,0.00,3.21,-3.21,-2.80,-2.44,-3.21,-3.21,-3.23
201.18,-0.08,3.17,-0.08,3.17,-3.17,-2.74,-2.40,-3.24,-3.24,-3.25
203.19,-0.16,3.11,-0.15,3.12,-3.12,-2.69,-2.36,-3.27,-3.27,-3.27
205.23,-0.24,3.06,-0.23,3.07,-3.07,-2.63,-2.33,-3.30,-3.29,-3.30
207.28,-0.30,3.01,-0.30,3.02,-3.02,-2.58,-2.29,-3.31,-3.32,-3.30
209.35,-0.38,2.97,-0.38,2.97,-2.97,-2.52,-2.26,-3.34,-3.34,-3.34
211.44,-0.45,2.92,-0.45,2.91,-2.91,-2.47,-2.23,-3.36,-3.36,-3.37
213.56,-0.52,2.87,-0.52,2.86,-2.86,-2.42,-2.20,-3.38,-3.38,-3.39
215.69,-0.59,2.81,-0.59,2.81,-2.81,-2.37,-2.17,-3.39,-3.40,-3.39
217.85,-0.67,2.74,-0.66,2.75,-2.75,-2.32,-2.14,-3.42,-3.41,-3.41
220.03,-0.73,2.71,-0.73,2.70,-2.70,-2.27,-2.12,-3.42,-3.43,-3.43
222.23,-0.80,2.65,-0.80,2.64,-2.64,-2.22,-2.09,-3.43,-3.44,-3.45
224.45,-0.87,2.57,-0.87,2.58,-2.58,-2.17,-2.06,-3.44,-3.44,-3.44
226.70,-0.94,2.52,-0.93,2.52,-2.52,-2.12,-2.04,-3.45,-3.45,-3.45
228.96,-1.00,2.46,-1.00,2.45,-2.45,-2.08,-2.01,-3.45,-3.45,-3.46
231.25,-1.07,2.38,-1.06,2.39,-2.39,-2.03,-1.99,-3.46,-3.45,-3.45
233.57,-1.13,2.32,-1.13,2.32,-2.32,-1.98,-1.96,-3.45,-3.45,-3.44
235.90,-1.19,2.26,-1.19,2.26,-2.26,-1.94,-1.94,-3.44,-3.44,-3.44
238.26,-1.25,2.20,-1.25,2.19,-2.19,-1.89,-1.91,-3.43,-3.44,-3.45
240.64,-1.31,2.12,-1.31,2.12,-2.12,-1.85,-1.89,-3.43,-3.43,-3.43
243.05,-1.37,2.05,-1.37,2.05,-2.05,-1.81,-1.86,-3.42,-3.42,-3.42
245.48,-1.43,1.97,-1.42,1.98,-1.98,-1.76,-1.83,-3.40,-3.40,-3.40
247.93,-1.48,1.91,-1.48,1.91,-1.91,-1.72,-1.81,-3.38,-3.39,-3.39
250.41,-1.53,1.85,-1.53,1.84,-1.84,-1.68,-1.78,-3.36,-3.37,-3.38
252.92,-1.59,1.76,-1.59,1.76,-1.76,-1.63,-1.75,-3.35,-3.35,-3.35
255.45,-1.65,1.68,-1.64,1.69,-1.69,-1.59,-1.72,-3.34,-3.33,-3.32
258.00,-1.69,1.62,-1.69,1.62,-1.62,-1.55,-1.69,-3.31,-3.31,-3.30
260.58,-1.74,1.55,-1.74,1.55,-1.55,-1.51,-1.66,-3.29,-3.29,-3.29
263.19,-1.79,1.48,-1.79,1.48,-1.48,-1.47,-1.63,-3.27,-3.27,-3.27
265.82,-1.83,1.42,-1.83,1.41,-1.41,-1.43,-1.60,-3.24,-3.24,-3.25
268.48,-1.88,1.35,-1.88,1.35,-1.35,-1.39,-1.57,-3.22,-3.22,-3.22
271.16,-1.92,1.27,-1.92,1.28,-1.28,-1.34,-1.54,-3.20,-3.20,-3.19
273.87,-1.97,1.21,-1.96,1.22,-1.22,-1.30,-1.51,-3.18,-3.18,-3.18
276.61,-2.01,1.14,-2.00,1.15,-1.15,-1.26,-1.47,-3.16,-3.15,-3.14
279.38,-2.04,1.09,-2.04,1.09,-1.09,-1.22,-1.44,-3.13,-3.13,-3.13
282.17,-2.08,1.03,-2.08,1.03,-1.03,-1.18,-1.41,-3.10,-3.11,-3.11
284.99,-2.12,0.97,-2.12,0.96,-0.96,-1.14,-1.38,-3.08,-3.08,-3.08
287.84,-2.16,0.90,-2.15,0.90,-0.90,-1.09,-1.34,-3.06,-3.05,-3.06
290.72,-2.18,0.85,-2.19,0.84,-0.84,-1.05,-1.31,-3.02,-3.03,-3.02
293.63,-2.22,0.79,-2.22,0.78,-0.78,-1.00,-1.28,-2.99,-3.00,-3.01
296.57,-2.26,0.72,-2.26,0.72,-0.72,-0.96,-1.24,-2.97,-2.97,-2.97
299.53,-2.29,0.66,-2.29,0.65,-0.65,-0.91,-1.21,-2.94,-2.94,-2.95
302.53,-2.32,0.61,-2.32,0.59,-0.59,-0.86,-1.18,-2.91,-2.91,-2.92
305.55,-2.36,0.52,-2.35,0.53,-0.53,-0.81,-1.14,-2.89,-2.88,-2.88
308.61,-2.38,0.48,-2.38,0.47,-0.47,-0.76,-1.11,-2.85,-2.85,-2.85
311.69,-2.41,0.41,-2.40,0.42,-0.42,-0.70,-1.08,-2.82,-2.82,-2.82
314.81,-2.43,0.35,-2.43,0.36,-0.36,-0.65,-1.05,-2.79,-2.79,-2.78
317.96,-2.46,0.30,-2.45,0.31,-0.31,-0.59,-1.02,-2.76,-2.76,-2.75
321.14,-2.48,0.25,-2.48,0.25,-0.25,-0.52,-0.98,-2.73,-2.73,-2.73
324.35,-2.50,0.20,-2.50,0.20,-0.20,-0.46,-0.95,-2.70,-2.70,-2.70
327.59,-2.52,0.15,-2.52,0.15,-0.15,-0.38,-0.92,-2.67,-2.67,-2.66
330.87,-2.54,0.10,-2.54,0.11,-0.11,-0.31,-0.89,-2.64,-2.64,-2.64
334.18,-2.56,0.06,-2.56,0.06,-0.06,-0.23,-0.86,-2.62,-2.62,-2.62
337.52,-2.58,0.02,-2.57,0.02,-0.02,-0.15,-0.84,-2.60,-2.59,-2.59
340.90,-2.59,-0.02,-2.59,-0.02,0.02,-0.07,-0.81,-2.56,-2.57,-2.57
344.30,-2.61,-0.06,-2.61,-0.06,0.06,0.02,-0.78,-2.54,-2.55,-2.55
347.75,-2.63,-0.10,-2.63,-0.10,0.10,0.11,-0.75,-2.52,-2.53,-2.52
351.23,-2.64,-0.13,-2.65,-0.14,0.14,0.19,-0.73,-2.49,-2.51,-2.51
354.74,-2.66,-0.17,-2.67,-0.18,0.18,0.27,-0.70,-2.48,-2.49,-2.49
358.28,-2.68,-0.21,-2.69,-0.22,0.22,0.35,-0.67,-2.46,-2.47,-2.47
361.87,-2.70,-0.24,-2.70,-0.25,0.25,0.42,-0.65,-2.45,-2.45,-2.45
365.49,-2.72,-0.29,-2.71,-0.28,0.28,0.47,-0.62,-2.43,-2.43,-2.42
369.14,-2.74,-0.32,-2.73,-0.31,0.31,0.51,-0.60,-2.42,-2.41,-2.42
372.83,-2.75,-0.35,-2.74,-0.34,0.34,0.53,-0.58,-2.40,-2.39,-2.40
376.56,-2.75,-0.37,-2.74,-0.37,0.37,0.54,-0.55,-2.38,-2.37,-2.38
380.33,-2.75,-0.39,-2.74,-0.39,0.39,0.53,-0.53,-2.36,-2.35,-2.35
384.13,-2.74,-0.40,-2.74,-0.41,0.41,0.51,-0.51,-2.33,-2.34,-2.33
387.97,-2.74,-0.42,-2.73,-0.42,0.42,0.47,-0.48,-2.32,-2.32,-2.32
391.85,-2.73,-0.43,-2.72,-0.43,0.43,0.43,-0.46,-2.30,-2.29,-2.30
395.77,-2.71,-0.44,-2.70,-0.43,0.43,0.38,-0.44,-2.28,-2.27,-2.27
399.73,-2.68,-0.43,-2.68,-0.43,0.43,0.32,-0.42,-2.25,-2.25,-2.25
403.72,-2.66,-0.42,-2.65,-0.42,0.42,0.27,-0.40,-2.24,-2.23,-2.23
407.76,-2.63,-0.41,-2.62,-0.41,0.41,0.22,-0.38,-2.22,-2.21,-2.21
411.84,-2.59,-0.40,-2.58,-0.39,0.39,0.17,-0.36,-2.20,-2.19,-2.19
415.96,-2.54,-0.37,-2.53,-0.37,0.37,0.12,-0.34,-2.17,-2.17,-2.17
420.12,-2.50,-0.35,-2.49,-0.34,0.34,0.08,-0.32,-2.16,-2.15,-2.15
424.32,-2.44,-0.32,-2.43,-0.31,0.31,0.04,-0.30,-2.13,-2.12,-2.12
428.56,-2.39,-0.29,-2.38,-0.28,0.28,0.00,-0.29,-2.11,-2.10,-2.10
432.85,-2.33,-0.25,-2.32,-0.24,0.24,-0.03,-0.27,-2.08,-2.08,-2.08
437.18,-2.26,-0.20,-2.26,-0.21,0.21,-0.06,-0.25,-2.05,-2.05,-2.05
441.55,-2.19,-0.16,-2.20,-0.17,0.17,-0.08,-0.24,-2.02,-2.03,-2.02
445.96,-2.13,-0.12,-2.13,-0.13,0.13,-0.11,-0.22,-1.99,-2.00,-2.00
450.42,-2.06,-0.07,-2.07,-0.09,0.09,-0.13,-0.21,-1.96,-1.98,-1.99
454.93,-2.01,-0.06,-2.01,-0.06,0.06,-0.14,-0.19,-1.95,-1.95,-1.95
459.48,-1.94,-0.01,-1.94,-0.02,0.02,-0.16,-0.18,-1.92,-1.92,-1.93
464.07,-1.88,0.02,-1.88,0.01,-0.01,-0.17,-0.17,-1.89,-1.90,-1.90
468.71,-1.82,0.04,-1.82,0.05,-0.05,-0.18,-0.16,-1.87,-1.87,-1.86
473.40,-1.76,0.08,-1.76,0.08,-0.08,-0.19,-0.14,-1.84,-1.84,-1.84
478.13,-1.70,0.11,-1.70,0.11,-0.11,-0.20,-0.13,-1.81,-1.81,-1.81
482.91,-1.65,0.13,-1.64,0.14,-0.14,-0.20,-0.12,-1.78,-1.78,-1.78
487.74,-1.59,0.17,-1.59,0.17,-0.17,-0.21,-0.11,-1.75,-1.75,-1.75
492.62,-1.54,0.19,-1.53,0.19,-0.19,-0.21,-0.11,-1.73,-1.73,-1.72
