frequency,raw,error,smoothed,error_smoothed,equalization,parametric_eq,fixed_band_eq,equalized_raw,equalized_smoothed,target
20.00,-7.69,-10.88,-7.71,-10.91,10.91,10.32,4.64,3.22,3.21,3.19
20.20,-7.67,-10.89,-7.67,-10.90,10.90,10.37,4.76,3.23,3.23,3.22
20.40,-7.64,-10.89,-7.63,-10.88,10.88,10.42,4.88,3.24,3.25,3.25
20.61,-7.58,-10.85,-7.59,-10.86,10.86,10.47,5.01,3.28,3.27,3.27
20.81,-7.55,-10.85,-7.55,-10.84,10.84,10.51,5.14,3.29,3.29,3.30
21.02,-7.52,-10.85,-7.51,-10.81,10.81,10.54,5.27,3.29,3.31,3.33
21.23,-7.47,-10.81,-7.47,-10.79,10.79,10.57,5.41,3.32,3.32,3.34
21.44,-7.44,-10.79,-7.43,-10.77,10.77,10.60,5.55,3.33,3.33,3.35
21.66,-7.39,-10.75,-7.40,-10.74,10.74,10.63,5.70,3.35,3.34,3.36
21.87,-7.36,-10.72,-7.36,-10.71,10.71,10.65,5.85,3.35,3.35,3.36
22.09,-7.32,-10.69,-7.32,-10.68,10.68,10.66,6.00,3.36,3.36,3.37
22.31,-7.28,-10.65,-7.28,-10.65,10.65,10.68,6.16,3.37,3.37,3.37
22.54,-7.25,-10.62,-7.25,-10.62,10.62,10.68,6.32,3.37,3.37,3.37
22.76,-7.21,-10.58,-7.21,-10.58,10.58,10.69,6.48,3.37,3.37,3.37
22.99,-7.17,-10.53,-7.18,-10.54,10.54,10.69,6.65,3.37,3.37,3.36
23.22,-7.14,-10.50,-7.14,-10.51,10.51,10.68,6.83,3.37,3.37,3.36
23.45,-7.11,-10.47,-7.11,-10.47,10.47,10.68,7.00,3.36,3.36,3.36
23.69,-7.08,-10.44,-7.07,-10.43,10.43,10.66,7.18,3.35,3.36,3.36
23.92,-7.04,-10.40,-7.04,-10.40,10.40,10.65,7.37,3.36,3.36,3.36
24.16,-7.00,-10.36,-7.01,-10.36,10.36,10.63,7.56,3.36,3.36,3.36
24.40,-6.98,-10.34,-6.97,-10.33,10.33,10.61,7.75,3.35,3.35,3.36
24.65,-6.94,-10.29,-6.94,-10.30,10.30,10.58,7.95,3.35,3.35,3.35
24.89,-6.91,-10.26,-6.91,-10.26,10.26,10.55,8.14,3.35,3.35,3.35
25.14,-6.88,-10.23,-6.88,-10.23,10.23,10.52,8.35,3.35,3.35,3.35
25.39,-6.85,-10.20,-6.85,-10.20,10.20,10.49,8.55,3.35,3.35,3.35
25.65,-6.82,-10.17,-6.82,-10.17,10.17,10.45,8.76,3.35,3.35,3.35
25.91,-6.79,-10.13,-6.79,-10.13,10.13,10.41,8.97,3.34,3.34,3.34
26.16,-6.76,-10.10,-6.76,-10.10,10.10,10.37,9.18,3.34,3.34,3.34
26.43,-6.73,-10.07,-6.73,-10.07,10.07,10.32,9.39,3.34,3.34,3.34
26.69,-6.70,-10.04,-6.70,-10.04,10.04,10.27,9.60,3.34,3.33,3.34
26.96,-6.67,-10.01,-6.67,-10.00,10.00,10.22,9.81,3.33,3.33,3.34
27.23,-6.64,-9.97,-6.64,-9.97,9.97,10.17,10.01,3.33,3.33,3.33
27.50,-6.61,-9.94,-6.61,-9.94,9.94,10.12,10.22,3.33,3.33,3.33
27.77,-6.59,-9.91,-6.58,-9.90,9.90,10.07,10.42,3.31,3.32,3.32
28.05,-6.55,-9.87,-6.55,-9.87,9.87,10.01,10.61,3.32,3.32,3.32
28.33,-6.52,-9.83,-6.52,-9.84,9.84,9.96,10.79,3.32,3.31,3.31
28.62,-6.50,-9.81,-6.49,-9.80,9.80,9.90,10.97,3.30,3.31,3.31
28.90,-6.46,-9.77,-6.47,-9.77,9.77,9.84,11.14,3.31,3.31,3.31
29.19,-6.43,-9.73,-6.44,-9.74,9.74,9.78,11.29,3.31,3.30,3.30
29.48,-6.41,-9.71,-6.41,-9.70,9.70,9.72,11.43,3.29,3.30,3.30
29.78,-6.37,-9.66,-6.38,-9.67,9.67,9.66,11.55,3.30,3.29,3.29
30.08,-6.36,-9.65,-6.35,-9.64,9.64,9.60,11.66,3.28,3.28,3.29
30.38,-6.33,-9.61,-6.32,-9.60,9.60,9.54,11.75,3.27,3.28,3.28
30.68,-6.28,-9.56,-6.29,-9.57,9.57,9.48,11.82,3.29,3.27,3.28
30.99,-6.27,-9.54,-6.26,-9.53,9.53,9.42,11.87,3.26,3.27,3.27
31.30,-6.24,-9.50,-6.23,-9.50,9.50,9.37,11.90,3.26,3.26,3.26
31.61,-6.20,-9.46,-6.21,-9.46,9.46,9.31,11.91,3.26,3.26,3.26
31.93,-6.18,-9.43,-6.18,-9.43,9.43,9.25,11.90,3.25,3.25,3.25
32.24,-6.15,-9.39,-6.15,-9.39,9.39,9.19,11.87,3.24,3.24,3.24
32.57,-6.11,-9.35,-6.12,-9.35,9.35,9.13,11.82,3.24,3.24,3.24
32.89,-6.09,-9.32,-6.09,-9.32,9.32,9.08,11.75,3.23,3.23,3.23
33.22,-6.06,-9.28,-6.06,-9.28,9.28,9.02,11.67,3.22,3.22,3.22
33.55,-6.02,-9.24,-6.03,-9.24,9.24,8.97,11.58,3.22,3.21,3.22
33.89,-6.00,-9.21,-6.00,-9.20,9.20,8.92,11.47,3.20,3.20,3.21
34.23,-5.98,-9.18,-5.97,-9.17,9.17,8.86,11.35,3.19,3.20,3.20
34.57,-5.94,-9.13,-5.94,-9.13,9.13,8.81,11.22,3.19,3.19,3.19
34.92,-5.91,-9.09,-5.91,-9.09,9.09,8.76,11.09,3.18,3.18,3.18
35.27,-5.89,-9.06,-5.89,-9.05,9.05,8.72,10.95,3.16,3.17,3.17
35.62,-5.85,-9.01,-5.86,-9.02,9.02,8.67,10.80,3.17,3.16,3.16
35.97,-5.84,-8.99,-5.83,-8.98,8.98,8.63,10.66,3.14,3.15,3.15
36.33,-5.81,-8.95,-5.80,-8.94,8.94,8.58,10.51,3.13,3.14,3.14
36.70,-5.76,-8.89,-5.78,-8.91,8.91,8.54,10.36,3.15,3.13,3.13
37.06,-5.76,-8.88,-5.75,-8.87,8.87,8.50,10.21,3.11,3.12,3.12
37.43,-5.72,-8.83,-5.73,-8.84,8.84,8.46,10.06,3.12,3.11,3.11
37.81,-5.71,-8.81,-5.70,-8.80,8.80,8.43,9.91,3.09,3.10,3.10
38.19,-5.68,-8.77,-5.68,-8.76,8.76,8.39,9.77,3.08,3.09,3.09
38.57,-5.66,-8.74,-5.66,-8.73,8.73,8.36,9.63,3.07,3.07,3.08
38.95,-5.63,-8.70,-5.63,-8.70,8.70,8.33,9.49,3.07,3.06,3.07
39.34,-5.62,-8.67,-5.61,-8.67,8.67,8.30,9.36,3.05,3.05,3.05
39.74,-5.59,-8.63,-5.59,-8.63,8.63,8.27,9.23,3.04,3.04,3.04
40.14,-5.57,-8.60,-5.57,-8.60,8.60,8.25,9.10,3.03,3.03,3.03
40.54,-5.55,-8.57,-5.55,-8.57,8.57,8.22,8.99,3.02,3.02,3.02
40.94,-5.55,-8.56,-5.53,-8.55,8.55,8.20,8.87,3.00,3.01,3.01
41.35,-5.50,-8.50,-5.52,-8.52,8.52,8.18,8.77,3.02,3.00,3.00
41.76,-5.50,-8.49,-5.50,-8.49,8.49,8.16,8.66,2.99,2.99,2.99
42.18,-5.50,-8.48,-5.49,-8.47,8.47,8.15,8.57,2.97,2.97,2.98
42.60,-5.47,-8.44,-5.48,-8.44,8.44,8.13,8.48,2.97,2.96,2.97
43.03,-5.46,-8.42,-5.47,-8.42,8.42,8.12,8.39,2.96,2.95,2.96
43.46,-5.46,-8.40,-5.47,-8.40,8.40,8.11,8.31,2.94,2.93,2.94
43.90,-5.46,-8.38,-5.46,-8.38,8.38,8.10,8.24,2.92,2.92,2.92
44.33,-5.46,-8.36,-5.46,-8.36,8.36,8.09,8.17,2.90,2.90,2.90
44.78,-5.46,-8.34,-5.46,-8.34,8.34,8.09,8.11,2.88,2.89,2.88
45.23,-5.46,-8.32,-5.46,-8.33,8.33,8.08,8.05,2.87,2.87,2.86
45.68,-5.46,-8.31,-5.46,-8.31,8.31,8.08,8.00,2.85,2.85,2.85
46.13,-5.46,-8.29,-5.46,-8.29,8.29,8.08,7.95,2.83,2.83,2.83
46.60,-5.46,-8.28,-5.46,-8.27,8.27,8.07,7.91,2.81,2.81,2.82
47.06,-5.46,-8.26,-5.46,-8.25,8.25,8.07,7.88,2.79,2.79,2.80
47.53,-5.46,-8.24,-5.46,-8.23,8.23,8.07,7.85,2.77,2.77,2.78
48.01,-5.46,-8.23,-5.46,-8.21,8.21,8.07,7.82,2.75,2.75,2.77
48.49,-5.46,-8.20,-5.46,-8.19,8.19,8.08,7.80,2.73,2.73,2.74
48.97,-5.46,-8.17,-5.46,-8.17,8.17,8.08,7.79,2.71,2.71,2.71
49.46,-5.46,-8.14,-5.46,-8.15,8.15,8.08,7.77,2.69,2.68,2.68
49.96,-5.46,-8.11,-5.46,-8.12,8.12,8.08,7.77,2.66,2.66,2.65
50.46,-5.46,-8.09,-5.46,-8.10,8.10,8.08,7.76,2.64,2.64,2.63
50.96,-5.46,-8.07,-5.46,-8.07,8.07,8.08,7.76,2.61,2.61,2.61
51.47,-5.46,-8.04,-5.46,-8.04,8.04,8.07,7.76,2.58,2.59,2.58
51.99,-5.46,-8.02,-5.45,-8.01,8.01,8.07,7.76,2.55,2.56,2.56
52.51,-5.46,-8.00,-5.45,-7.98,7.98,8.07,7.77,2.52,2.54,2.54
53.03,-5.44,-7.96,-5.44,-7.95,7.95,8.06,7.78,2.51,2.51,2.52
53.56,-5.42,-7.91,-5.44,-7.92,7.92,8.05,7.79,2.50,2.49,2.49
54.10,-5.42,-7.89,-5.43,-7.89,7.89,8.04,7.80,2.47,2.46,2.47
54.64,-5.42,-7.86,-5.42,-7.86,7.86,8.02,7.81,2.44,2.44,2.44
55.18,-5.42,-7.84,-5.41,-7.83,7.83,8.00,7.81,2.41,2.42,2.42
55.74,-5.42,-7.81,-5.40,-7.80,7.80,7.98,7.82,2.38,2.40,2.39
56.29,-5.37,-7.74,-5.39,-7.77,7.77,7.96,7.83,2.40,2.37,2.37
56.86,-5.37,-7.72,-5.38,-7.73,7.73,7.93,7.83,2.36,2.35,2.35
57.42,-5.37,-7.69,-5.37,-7.69,7.69,7.89,7.83,2.32,2.33,2.32
58.00,-5.35,-7.65,-5.35,-7.65,7.65,7.86,7.82,2.30,2.30,2.30
58.58,-5.33,-7.61,-5.33,-7.61,7.61,7.82,7.81,2.28,2.28,2.28
59.16,-5.33,-7.59,-5.31,-7.56,7.56,7.77,7.80,2.23,2.25,2.26
59.76,-5.29,-7.53,-5.29,-7.51,7.51,7.72,7.78,2.22,2.22,2.24
60.35,-5.27,-7.48,-5.26,-7.46,7.46,7.66,7.76,2.19,2.20,2.21
60.96,-5.24,-7.42,-5.23,-7.40,7.40,7.61,7.72,2.16,2.17,2.18
61.57,-5.21,-7.35,-5.20,-7.34,7.34,7.54,7.68,2.13,2.14,2.14
62.18,-5.18,-7.29,-5.17,-7.28,7.28,7.47,7.64,2.10,2.11,2.11
62.80,-5.13,-7.21,-5.14,-7.22,7.22,7.40,7.59,2.09,2.09,2.08
63.43,-5.09,-7.14,-5.10,-7.15,7.15,7.33,7.53,2.06,2.06,2.05
64.07,-5.06,-7.08,-5.06,-7.09,7.09,7.25,7.46,2.03,2.03,2.02
64.71,-5.01,-7.01,-5.02,-7.02,7.02,7.16,7.39,2.01,2.00,2.00
65.35,-4.98,-6.95,-4.98,-6.95,6.95,7.07,7.31,1.97,1.97,1.97
66.01,-4.93,-6.87,-4.94,-6.88,6.88,6.98,7.22,1.95,1.94,1.94
66.67,-4.90,-6.81,-4.90,-6.81,6.81,6.89,7.13,1.91,1.91,1.91
67.33,-4.85,-6.73,-4.86,-6.74,6.74,6.79,7.03,1.89,1.88,1.88
68.01,-4.82,-6.67,-4.82,-6.66,6.66,6.70,6.93,1.84,1.85,1.85
68.69,-4.77,-6.59,-4.77,-6.59,6.59,6.59,6.82,1.82,1.82,1.82
69.37,-4.74,-6.53,-4.73,-6.52,6.52,6.49,6.71,1.78,1.79,1.79
70.07,-4.69,-6.45,-4.68,-6.44,6.44,6.39,6.60,1.75,1.76,1.76
70.77,-4.66,-6.39,-4.64,-6.36,6.36,6.28,6.48,1.70,1.72,1.73
71.48,-4.60,-6.30,-4.59,-6.28,6.28,6.17,6.36,1.68,1.69,1.70
72.19,-4.54,-6.20,-4.54,-6.20,6.20,6.07,6.24,1.66,1.66,1.66
72.91,-4.48,-6.11,-4.50,-6.12,6.12,5.96,6.12,1.64,1.63,1.63
73.64,-4.44,-6.03,-4.45,-6.04,6.04,5.85,5.99,1.60,1.59,1.59
74.38,-4.40,-5.96,-4.40,-5.96,5.96,5.74,5.87,1.56,1.56,1.56
75.12,-4.35,-5.87,-4.35,-5.88,5.88,5.63,5.75,1.53,1.53,1.52
75.87,-4.30,-5.79,-4.30,-5.80,5.80,5.52,5.63,1.50,1.49,1.49
76.63,-4.26,-5.72,-4.26,-5.71,5.71,5.41,5.50,1.45,1.46,1.46
77.40,-4.21,-5.64,-4.21,-5.63,5.63,5.30,5.38,1.42,1.42,1.43
78.17,-4.16,-5.55,-4.16,-5.56,5.56,5.19,5.26,1.40,1.39,1.39
78.95,-4.11,-5.47,-4.12,-5.48,5.48,5.09,5.15,1.37,1.36,1.36
79.74,-4.08,-5.41,-4.08,-5.40,5.40,4.98,5.03,1.32,1.32,1.33
80.54,-4.03,-5.32,-4.03,-5.32,5.32,4.88,4.92,1.29,1.29,1.29
81.35,-3.99,-5.25,-3.99,-5.25,5.25,4.77,4.81,1.26,1.26,1.26
82.16,-3.95,-5.17,-3.95,-5.17,5.17,4.67,4.70,1.22,1.22,1.22
82.98,-3.92,-5.11,-3.91,-5.09,5.09,4.57,4.59,1.17,1.19,1.19
83.81,-3.87,-5.02,-3.86,-5.01,5.01,4.47,4.49,1.14,1.15,1.15
84.65,-3.82,-4.93,-3.82,-4.93,4.93,4.37,4.39,1.11,1.11,1.11
85.50,-3.79,-4.87,-3.78,-4.86,4.86,4.27,4.29,1.07,1.07,1.08
86.35,-3.73,-4.77,-3.74,-4.78,4.78,4.18,4.20,1.05,1.04,1.04
87.22,-3.70,-4.70,-3.70,-4.70,4.70,4.09,4.11,1.00,1.00,1.00
88.09,-3.66,-4.62,-3.66,-4.62,4.62,3.99,4.02,0.96,0.96,0.96
88.97,-3.62,-4.54,-3.62,-4.54,4.54,3.90,3.93,0.92,0.92,0.92
89.86,-3.59,-4.47,-3.59,-4.46,4.46,3.81,3.85,0.87,0.87,0.88
90.76,-3.55,-4.38,-3.55,-4.38,4.38,3.73,3.77,0.83,0.83,0.83
91.66,-3.51,-4.30,-3.52,-4.31,4.31,3.64,3.69,0.80,0.79,0.79
92.58,-3.48,-4.22,-3.49,-4.23,4.23,3.56,3.62,0.75,0.74,0.74
93.51,-3.47,-4.17,-3.46,-4.15,4.15,3.47,3.55,0.68,0.70,0.70
94.44,-3.42,-4.08,-3.43,-4.08,4.08,3.39,3.48,0.66,0.65,0.66
95.39,-3.39,-4.00,-3.40,-4.00,4.00,3.31,3.41,0.61,0.61,0.61
96.34,-3.38,-3.94,-3.37,-3.93,3.93,3.23,3.34,0.55,0.56,0.56
97.30,-3.34,-3.85,-3.34,-3.85,3.85,3.16,3.28,0.51,0.51,0.51
98.28,-3.32,-3.78,-3.32,-3.78,3.78,3.08,3.22,0.46,0.46,0.46
99.26,-3.29,-3.71,-3.29,-3.71,3.71,3.01,3.16,0.42,0.42,0.42
100.25,-3.25,-3.62,-3.26,-3.63,3.63,2.94,3.11,0.38,0.37,0.37
101.25,-3.25,-3.57,-3.24,-3.56,3.56,2.86,3.06,0.31,0.32,0.32
102.27,-3.21,-3.48,-3.22,-3.49,3.49,2.79,3.00,0.28,0.27,0.27
103.29,-3.20,-3.42,-3.19,-3.41,3.41,2.73,2.95,0.21,0.22,0.22
104.32,-3.16,-3.34,-3.17,-3.34,3.34,2.66,2.90,0.18,0.18,0.18
105.37,-3.14,-3.27,-3.14,-3.27,3.27,2.59,2.86,0.13,0.13,0.13
106.42,-3.12,-3.20,-3.12,-3.20,3.20,2.53,2.81,0.08,0.08,0.08
107.48,-3.10,-3.13,-3.09,-3.12,3.12,2.47,2.77,0.02,0.03,0.03
108.56,-3.08,-3.06,-3.07,-3.05,3.05,2.41,2.72,-0.03,-0.02,-0.02
109.64,-3.04,-2.97,-3.05,-2.97,2.97,2.34,2.68,-0.07,-0.07,-0.07
110.74,-3.03,-2.91,-3.03,-2.90,2.90,2.29,2.64,-0.13,-0.13,-0.12
111.85,-3.00,-2.83,-3.00,-2.82,2.82,2.23,2.60,-0.18,-0.18,-0.17
112.97,-2.99,-2.76,-2.98,-2.75,2.75,2.17,2.56,-0.24,-0.23,-0.23
114.10,-2.95,-2.67,-2.96,-2.67,2.67,2.11,2.52,-0.28,-0.28,-0.28
115.24,-2.95,-2.61,-2.93,-2.60,2.60,2.06,2.48,-0.35,-0.34,-0.34
116.39,-2.90,-2.51,-2.91,-2.52,2.52,2.00,2.44,-0.38,-0.39,-0.39
117.55,-2.89,-2.44,-2.89,-2.45,2.45,1.95,2.40,-0.44,-0.44,-0.45
118.73,-2.86,-2.36,-2.87,-2.37,2.37,1.90,2.36,-0.49,-0.50,-0.50
119.92,-2.86,-2.31,-2.85,-2.30,2.30,1.85,2.32,-0.56,-0.55,-0.55
121.12,-2.82,-2.22,-2.83,-2.23,2.23,1.80,2.27,-0.59,-0.60,-0.60
122.33,-2.82,-2.17,-2.81,-2.15,2.15,1.75,2.23,-0.67,-0.65,-0.65
123.55,-2.77,-2.07,-2.79,-2.08,2.08,1.70,2.19,-0.69,-0.71,-0.70
124.79,-2.77,-2.02,-2.77,-2.01,2.01,1.65,2.15,-0.76,-0.76,-0.75
126.03,-2.73,-1.93,-2.75,-1.94,1.94,1.60,2.10,-0.79,-0.81,-0.80
127.29,-2.73,-1.88,-2.73,-1.87,1.87,1.55,2.06,-0.86,-0.86,-0.85
128.57,-2.73,-1.82,-2.71,-1.80,1.80,1.51,2.01,-0.93,-0.91,-0.91
129.85,-2.69,-1.73,-2.69,-1.74,1.74,1.46,1.97,-0.95,-0.96,-0.96
131.15,-2.69,-1.68,-2.67,-1.67,1.67,1.42,1.92,-1.02,-1.01,-1.01
132.46,-2.64,-1.58,-2.66,-1.60,1.60,1.37,1.87,-1.04,-1.06,-1.06
133.79,-2.64,-1.54,-2.64,-1.53,1.53,1.33,1.82,-1.11,-1.10,-1.10
135.12,-2.61,-1.46,-2.62,-1.47,1.47,1.29,1.77,-1.14,-1.15,-1.15
136.48,-2.60,-1.41,-2.59,-1.40,1.40,1.24,1.72,-1.20,-1.20,-1.19
137.84,-2.57,-1.33,-2.57,-1.33,1.33,1.20,1.67,-1.24,-1.24,-1.24
139.22,-2.56,-1.27,-2.55,-1.26,1.26,1.16,1.62,-1.30,-1.28,-1.29
140.61,-2.53,-1.20,-2.52,-1.20,1.20,1.12,1.57,-1.33,-1.32,-1.33
142.02,-2.51,-1.15,-2.49,-1.13,1.13,1.07,1.51,-1.38,-1.36,-1.36
143.44,-2.47,-1.07,-2.47,-1.07,1.07,1.03,1.46,-1.40,-1.40,-1.40
144.87,-2.46,-1.02,-2.45,-1.01,1.01,0.99,1.41,-1.45,-1.44,-1.44
146.32,-2.43,-0.95,-2.43,-0.95,0.95,0.95,1.35,-1.48,-1.48,-1.48
147.78,-2.38,-0.87,-2.41,-0.89,0.89,0.91,1.30,-1.49,-1.52,-1.51
149.26,-2.38,-0.83,-2.39,-0.84,0.84,0.87,1.25,-1.54,-1.56,-1.55
150.75,-2.34,-0.75,-2.38,-0.78,0.78,0.83,1.19,-1.56,-1.60,-1.59
152.26,-2.34,-0.71,-2.36,-0.73,0.73,0.79,1.14,-1.61,-1.63,-1.63
153.78,-2.34,-0.67,-2.35,-0.68,0.68,0.75,1.08,-1.66,-1.67,-1.67
155.32,-2.34,-0.63,-2.34,-0.62,0.62,0.71,1.03,-1.72,-1.71,-1.71
156.88,-2.34,-0.59,-2.32,-0.57,0.57,0.67,0.97,-1.77,-1.75,-1.75
158.44,-2.34,-0.55,-2.31,-0.52,0.52,0.63,0.92,-1.82,-1.79,-1.79
160.03,-2.33,-0.50,-2.30,-0.47,0.47,0.59,0.87,-1.86,-1.83,-1.83
161.63,-2.30,-0.43,-2.29,-0.43,0.43,0.55,0.81,-1.87,-1.87,-1.87
163.24,-2.30,-0.39,-2.28,-0.38,0.38,0.51,0.76,-1.92,-1.91,-1.91
164.88,-2.25,-0.31,-2.27,-0.32,0.32,0.47,0.71,-1.93,-1.95,-1.94
166.53,-2.25,-0.27,-2.26,-0.27,0.27,0.42,0.65,-1.98,-1.98,-1.98
168.19,-2.25,-0.23,-2.24,-0.22,0.22,0.38,0.60,-2.03,-2.02,-2.02
169.87,-2.21,-0.15,-2.23,-0.16,0.16,0.34,0.55,-2.05,-2.06,-2.06
171.57,-2.21,-0.11,-2.21,-0.11,0.11,0.30,0.49,-2.10,-2.10,-2.10
173.29,-2.20,-0.07,-2.19,-0.05,0.05,0.26,0.44,-2.15,-2.14,-2.13
175.02,-2.17,0.00,-2.18,-0.00,0.00,0.21,0.39,-2.17,-2.18,-2.17
176.77,-2.17,0.04,-2.16,0.05,-0.05,0.17,0.33,-2.22,-2.21,-2.21
178.54,-2.15,0.10,-2.15,0.10,-0.10,0.13,0.28,-2.25,-2.25,-2.25
180.32,-2.12,0.17,-2.14,0.15,-0.15,0.08,0.23,-2.27,-2.29,-2.29
182.13,-2.12,0.20,-2.12,0.20,-0.20,0.04,0.18,-2.32,-2.32,-2.32
183.95,-2.12,0.24,-2.11,0.25,-0.25,-0.00,0.12,-2.37,-2.36,-2.36
185.79,-2.08,0.31,-2.10,0.30,-0.30,-0.05,0.07,-2.38,-2.40,-2.39
187.65,-2.08,0.35,-2.09,0.34,-0.34,-0.09,0.02,-2.42,-2.43,-2.43
189.52,-2.08,0.38,-2.07,0.39,-0.39,-0.14,-0.03,-2.47,-2.46,-2.46
191.42,-2.08,0.41,-2.06,0.43,-0.43,-0.19,-0.08,-2.51,-2.49,-2.49
193.33,-2.04,0.48,-2.05,0.47,-0.47,-0.23,-0.14,-2.51,-2.52,-2.52
195.27,-2.04,0.51,-2.04,0.52,-0.52,-0.28,-0.19,-2.56,-2.55,-2.55
197.22,-2.04,0.54,-2.02,0.56,-0.56,-0.32,-0.24,-2.60,-2.58,-2.58
199.19,-2.01,0.60,-2.01,0.59,-0.59,-0.37,-0.29,-2.60,-2.60,-2.61
201.18,-1.99,0.64,-2.00,0.63,-0.63,-0.42,-0.34,-2.62,-2.63,-2.63
203.19,-1.99,0.66,-1.99,0.66,-0.66,-0.46,-0.39,-2.65,-2.65,-2.65
205.23,-1.99,0.68,-1.98,0.69,-0.69,-0.51,-0.44,-2.68,-2.67,-2.67
207.28,-1.95,0.73,-1.96,0.72,-0.72,-0.55,-0.49,-2.67,-2.69,-2.68
209.35,-1.95,0.75,-1.95,0.75,-0.75,-0.60,-0.54,-2.70,-2.70,-2.70
211.44,-1.95,0.77,-1.94,0.78,-0.78,-0.64,-0.58,-2.73,-2.72,-2.72
213.56,-1.91,0.82,-1.93,0.80,-0.80,-0.69,-0.63,-2.71,-2.73,-2.73
215.69,-1.91,0.82,-1.91,0.82,-0.82,-0.73,-0.67,-2.73,-2.74,-2.73
217.85,-1.91,0.83,-1.90,0.85,-0.85,-0.77,-0.72,-2.76,-2.75,-2.74
220.03,-1.91,0.84,-1.89,0.86,-0.86,-0.80,-0.76,-2.77,-2.75,-2.75
222.23,-1.86,0.90,-1.88,0.87,-0.87,-0.84,-0.80,-2.73,-2.76,-2.76
224.45,-1.86,0.90,-1.87,0.89,-0.89,-0.87,-0.84,-2.75,-2.76,-2.76
226.70,-1.86,0.90,-1.86,0.90,-0.90,-0.91,-0.88,-2.76,-2.76,-2.76
228.96,-1.86,0.90,-1.85,0.91,-0.91,-0.93,-0.91,-2.77,-2.76,-2.76
231.25,-1.86,0.89,-1.84,0.91,-0.91,-0.96,-0.95,-2.77,-2.76,-2.75
233.57,-1.82,0.93,-1.83,0.92,-0.92,-0.98,-0.98,-2.74,-2.75,-2.75
235.90,-1.82,0.93,-1.83,0.92,-0.92,-1.00,-1.00,-2.74,-2.75,-2.75
238.26,-1.82,0.92,-1.82,0.92,-0.92,-1.02,-1.03,-2.74,-2.74,-2.74
240.64,-1.82,0.91,-1.82,0.92,-0.92,-1.03,-1.05,-2.74,-2.73,-2.73
243.05,-1.82,0.90,-1.81,0.92,-0.92,-1.04,-1.07,-2.74,-2.72,-2.72
245.48,-1.81,0.90,-1.80,0.91,-0.91,-1.05,-1.09,-2.72,-2.71,-2.71
247.93,-1.78,0.92,-1.80,0.90,-0.90,-1.05,-1.11,-2.68,-2.70,-2.70
250.41,-1.78,0.91,-1.79,0.90,-0.90,-1.05,-1.12,-2.68,-2.69,-2.69
252.92,-1.78,0.89,-1.78,0.89,-0.89,-1.05,-1.13,-2.67,-2.67,-2.67
255.45,-1.78,0.87,-1.77,0.88,-0.88,-1.04,-1.13,-2.66,-2.66,-2.65
258.00,-1.78,0.86,-1.77,0.87,-0.87,-1.04,-1.14,-2.65,-2.64,-2.64
260.58,-1.78,0.84,-1.76,0.86,-0.86,-1.02,-1.14,-2.64,-2.62,-2.62
263.19,-1.73,0.87,-1.75,0.85,-0.85,-1.01,-1.14,-2.58,-2.60,-2.60
265.82,-1.73,0.85,-1.74,0.84,-0.84,-0.99,-1.13,-2.57,-2.58,-2.58
268.48,-1.73,0.83,-1.73,0.83,-0.83,-0.98,-1.12,-2.56,-2.56,-2.56
271.16,-1.73,0.81,-1.73,0.82,-0.82,-0.96,-1.12,-2.55,-2.54,-2.54
273.87,-1.73,0.79,-1.72,0.80,-0.80,-0.94,-1.10,-2.53,-2.52,-2.52
276.61,-1.71,0.79,-1.71,0.79,-0.79,-0.91,-1.09,-2.50,-2.50,-2.50
279.38,-1.69,0.79,-1.70,0.78,-0.78,-0.89,-1.08,-2.47,-2.48,-2.48
282.17,-1.69,0.77,-1.69,0.77,-0.77,-0.87,-1.06,-2.46,-2.46,-2.46
284.99,-1.69,0.75,-1.68,0.76,-0.76,-0.84,-1.04,-2.45,-2.44,-2.44
287.84,-1.69,0.73,-1.67,0.75,-0.75,-0.82,-1.02,-2.44,-2.42,-2.42
290.72,-1.65,0.75,-1.66,0.74,-0.74,-0.79,-1.00,-2.39,-2.40,-2.40
293.63,-1.65,0.73,-1.66,0.72,-0.72,-0.77,-0.98,-2.37,-2.38,-2.38
296.57,-1.65,0.71,-1.64,0.71,-0.71,-0.74,-0.96,-2.36,-2.36,-2.36
299.53,-1.65,0.69,-1.63,0.70,-0.70,-0.72,-0.94,-2.35,-2.34,-2.34
302.53,-1.60,0.72,-1.62,0.69,-0.69,-0.69,-0.91,-2.29,-2.31,-2.32
305.55,-1.60,0.69,-1.61,0.68,-0.68,-0.67,-0.89,-2.28,-2.29,-2.29
308.61,-1.60,0.67,-1.60,0.67,-0.67,-0.65,-0.87,-2.27,-2.27,-2.27
311.69,-1.60,0.64,-1.58,0.66,-0.66,-0.62,-0.84,-2.26,-2.24,-2.24
314.81,-1.56,0.65,-1.57,0.65,-0.65,-0.60,-0.82,-2.21,-2.22,-2.21
317.96,-1.56,0.63,-1.56,0.64,-0.64,-0.58,-0.80,-2.20,-2.20,-2.19
321.14,-1.56,0.61,-1.55,0.63,-0.63,-0.56,-0.77,-2.19,-2.18,-2.17
324.35,-1.52,0.63,-1.53,0.62,-0.62,-0.54,-0.75,-2.14,-2.15,-2.15
327.59,-1.52,0.61,-1.52,0.61,-0.61,-0.52,-0.72,-2.13,-2.13,-2.13
330.87,-1.52,0.59,-1.51,0.60,-0.60,-0.50,-0.70,-2.12,-2.11,-2.11
334.18,-1.50,0.59,-1.50,0.59,-0.59,-0.48,-0.68,-2.09,-2.09,-2.09
337.52,-1.47,0.60,-1.49,0.58,-0.58,-0.46,-0.66,-2.05,-2.07,-2.07
340.90,-1.47,0.58,-1.47,0.58,-0.58,-0.45,-0.63,-2.05,-2.05,-2.05
344.30,-1.47,0.56,-1.46,0.57,-0.57,-0.43,-0.61,-2.04,-2.03,-2.03
347.75,-1.46,0.55,-1.45,0.56,-0.56,-0.41,-0.59,-2.02,-2.01,-2.01
351.23,-1.43,0.56,-1.44,0.55,-0.55,-0.40,-0.57,-1.98,-1.99,-1.99
354.74,-1.43,0.54,-1.43,0.54,-0.54,-0.38,-0.55,-1.97,-1.98,-1.97
358.28,-1.43,0.53,-1.42,0.54,-0.54,-0.37,-0.53,-1.97,-1.96,-1.96
361.87,-1.41,0.53,-1.41,0.53,-0.53,-0.36,-0.51,-1.94,-1.94,-1.94
365.49,-1.39,0.53,-1.40,0.52,-0.52,-0.34,-0.49,-1.91,-1.93,-1.92
369.14,-1.39,0.52,-1.39,0.52,-0.52,-0.33,-0.48,-1.91,-1.91,-1.91
372.83,-1.39,0.50,-1.38,0.51,-0.51,-0.32,-0.46,-1.90,-1.89,-1.89
376.56,-1.39,0.49,-1.38,0.50,-0.50,-0.31,-0.44,-1.89,-1.88,-1.88
380.33,-1.39,0.47,-1.37,0.50,-0.50,-0.30,-0.43,-1.89,-1.87,-1.86
384.13,-1.35,0.50,-1.36,0.49,-0.49,-0.29,-0.41,-1.84,-1.85,-1.85
387.97,-1.34,0.50,-1.36,0.48,-0.48,-0.28,-0.39,-1.82,-1.84,-1.84
391.85,-1.34,0.49,-1.35,0.48,-0.48,-0.27,-0.38,-1.82,-1.83,-1.83
395.77,-1.34,0.47,-1.35,0.47,-0.47,-0.26,-0.36,-1.81,-1.82,-1.81
399.73,-1.34,0.46,-1.34,0.46,-0.46,-0.25,-0.35,-1.80,-1.80,-1.80
403.72,-1.34,0.45,-1.34,0.46,-0.46,-0.25,-0.34,-1.80,-1.79,-1.79
407.76,-1.34,0.44,-1.34,0.45,-0.45,-0.24,-0.32,-1.79,-1.78,-1.78
411.84,-1.34,0.43,-1.33,0.44,-0.44,-0.23,-0.31,-1.78,-1.77,-1.77
415.96,-1.34,0.42,-1.33,0.43,-0.43,-0.22,-0.30,-1.77,-1.76,-1.76
420.12,-1.34,0.41,-1.33,0.42,-0.42,-0.22,-0.29,-1.76,-1.75,-1.75
424.32,-1.34,0.40,-1.34,0.40,-0.40,-0.21,-0.28,-1.74,-1.74,-1.74
428.56,-1.34,0.39,-1.34,0.39,-0.39,-0.21,-0.27,-1.73,-1.73,-1.73
432.85,-1.34,0.38,-1.35,0.37,-0.37,-0.20,-0.25,-1.71,-1.72,-1.72
437.18,-1.34,0.37,-1.35,0.35,-0.35,-0.20,-0.24,-1.69,-1.71,-1.71
441.55,-1.34,0.35,-1.36,0.33,-0.33,-0.19,-0.24,-1.67,-1.70,-1.69
445.96,-1.37,0.31,-1.37,0.31,-0.31,-0.19,-0.23,-1.68,-1.68,-1.68
450.42,-1.39,0.28,-1.38,0.29,-0.29,-0.18,-0.22,-1.68,-1.67,-1.67
454.93,-1.39,0.26,-1.39,0.26,-0.26,-0.18,-0.21,-1.65,-1.66,-1.65
459.48,-1.39,0.25,-1.40,0.24,-0.24,-0.17,-0.20,-1.63,-1.64,-1.64
464.07,-1.42,0.21,-1.42,0.21,-0.21,-0.17,-0.20,-1.63,-1.63,-1.63
