frequency,raw,error,smoothed,error_smoothed,equalization,parametric_eq,fixed_band_eq,equalized_raw,equalized_smoothed,target
20.00,-8.19,-17.89,-8.19,-17.89,17.88,17.10,5.87,9.69,9.69,9.69
20.20,-8.11,-17.85,-8.12,-17.85,17.85,17.05,6.02,9.74,9.74,9.73
20.40,-8.04,-17.82,-8.04,-17.81,17.81,17.01,6.16,9.77,9.78,9.78
20.61,-7.96,-17.77,-7.96,-17.77,17.77,16.97,6.31,9.81,9.81,9.80
20.81,-7.88,-17.73,-7.88,-17.73,17.73,16.92,6.47,9.85,9.85,9.85
21.02,-7.80,-17.69,-7.81,-17.68,17.68,16.88,6.63,9.88,9.88,9.88
21.23,-7.73,-17.64,-7.73,-17.64,17.63,16.83,6.79,9.90,9.90,9.90
21.44,-7.65,-17.58,-7.65,-17.58,17.58,16.79,6.96,9.92,9.93,9.92
21.66,-7.57,-17.52,-7.57,-17.52,17.52,16.74,7.13,9.94,9.94,9.94
21.87,-7.49,-17.45,-7.50,-17.45,17.45,16.69,7.31,9.96,9.96,9.96
22.09,-7.42,-17.40,-7.42,-17.39,17.39,16.65,7.49,9.97,9.97,9.97
22.31,-7.34,-17.33,-7.34,-17.32,17.32,16.60,7.68,9.98,9.98,9.98
22.54,-7.25,-17.25,-7.26,-17.25,17.25,16.55,7.87,9.99,9.99,9.99
22.76,-7.17,-17.18,-7.17,-17.17,17.18,16.50,8.07,10.00,10.00,10.00
22.99,-7.09,-17.10,-7.09,-17.10,17.10,16.45,8.27,10.01,10.01,10.00
23.22,-7.01,-17.03,-7.01,-17.03,17.03,16.40,8.48,10.02,10.02,10.01
23.45,-6.93,-16.96,-6.93,-16.96,16.96,16.35,8.69,10.03,10.03,10.02
23.69,-6.85,-16.89,-6.85,-16.89,16.89,16.30,8.91,10.04,10.04,10.03
23.92,-6.77,-16.82,-6.77,-16.82,16.82,16.25,9.13,10.05,10.05,10.04
24.16,-6.68,-16.75,-6.69,-16.75,16.74,16.20,9.36,10.06,10.06,10.06
24.40,-6.60,-16.69,-6.60,-16.68,16.67,16.14,9.59,10.07,10.07,10.08
24.65,-6.52,-16.60,-6.52,-16.60,16.60,16.09,9.84,10.08,10.08,10.07
24.89,-6.44,-16.53,-6.44,-16.52,16.53,16.04,10.08,10.08,10.09,10.08
25.14,-6.35,-16.45,-6.35,-16.45,16.45,15.98,10.33,10.10,10.10,10.09
25.39,-6.26,-16.37,-6.27,-16.37,16.37,15.93,10.59,10.11,10.11,10.11
25.65,-6.18,-16.31,-6.18,-16.30,16.30,15.87,10.85,10.12,10.12,10.12
25.91,-6.09,-16.22,-6.09,-16.22,16.22,15.82,11.11,10.13,10.13,10.12
26.16,-6.01,-16.15,-6.01,-16.15,16.15,15.76,11.38,10.14,10.14,10.13
26.43,-5.92,-16.07,-5.92,-16.07,16.07,15.70,11.65,10.15,10.15,10.14
26.69,-5.84,-16.00,-5.84,-16.00,16.00,15.65,11.93,10.16,10.16,10.15
26.96,-5.75,-15.93,-5.76,-15.93,15.92,15.59,12.20,10.17,10.17,10.17
27.23,-5.67,-15.86,-5.67,-15.85,15.84,15.53,12.48,10.17,10.17,10.18
27.50,-5.58,-15.77,-5.58,-15.77,15.77,15.47,12.75,10.18,10.19,10.18
27.77,-5.49,-15.68,-5.49,-15.68,15.69,15.41,13.02,10.20,10.19,10.19
28.05,-5.40,-15.61,-5.41,-15.60,15.61,15.35,13.29,10.21,10.20,10.20
28.33,-5.32,-15.53,-5.32,-15.53,15.53,15.29,13.55,10.21,10.21,10.20
28.62,-5.23,-15.45,-5.23,-15.45,15.45,15.23,13.80,10.21,10.21,10.21
28.90,-5.14,-15.37,-5.14,-15.37,15.36,15.17,14.04,10.22,10.22,10.22
29.19,-5.05,-15.28,-5.05,-15.29,15.28,15.10,14.27,10.23,10.23,10.22
29.48,-4.96,-15.22,-4.96,-15.20,15.20,15.04,14.47,10.24,10.24,10.25
29.78,-4.87,-15.12,-4.87,-15.12,15.13,14.97,14.66,10.25,10.25,10.24
30.08,-4.78,-15.04,-4.79,-15.04,15.05,14.91,14.81,10.26,10.26,10.25
30.38,-4.70,-14.96,-4.70,-14.96,14.97,14.84,14.95,10.26,10.26,10.25
30.68,-4.62,-14.90,-4.62,-14.89,14.89,14.78,15.04,10.26,10.27,10.27
30.99,-4.53,-14.81,-4.54,-14.81,14.81,14.71,15.13,10.27,10.27,10.27
31.30,-4.45,-14.73,-4.45,-14.73,14.73,14.64,15.16,10.27,10.28,10.27
31.61,-4.36,-14.65,-4.36,-14.64,14.65,14.58,15.18,10.29,10.29,10.28
31.93,-4.27,-14.57,-4.27,-14.57,14.57,14.51,15.15,10.30,10.29,10.29
32.24,-4.18,-14.48,-4.19,-14.49,14.49,14.44,15.10,10.31,10.30,10.30
32.57,-4.10,-14.42,-4.10,-14.41,14.41,14.37,15.01,10.30,10.31,10.31
32.89,-4.01,-14.33,-4.01,-14.33,14.33,14.30,14.92,10.31,10.31,10.31
33.22,-3.92,-14.25,-3.92,-14.25,14.24,14.22,14.78,10.32,10.32,10.32
33.55,-3.82,-14.16,-3.83,-14.16,14.16,14.15,14.64,10.34,10.33,10.33
33.89,-3.73,-14.08,-3.73,-14.08,14.08,14.08,14.47,10.34,10.34,10.34
34.23,-3.64,-13.99,-3.64,-13.99,13.99,14.01,14.29,10.35,10.35,10.34
34.57,-3.55,-13.91,-3.55,-13.90,13.90,13.93,14.10,10.35,10.35,10.35
34.92,-3.45,-13.81,-3.46,-13.81,13.82,13.85,13.90,10.36,10.36,10.35
35.27,-3.36,-13.73,-3.36,-13.73,13.73,13.78,13.70,10.36,10.36,10.36
35.62,-3.27,-13.64,-3.27,-13.64,13.64,13.70,13.49,10.37,10.37,10.36
35.97,-3.18,-13.55,-3.18,-13.55,13.55,13.62,13.28,10.37,10.37,10.36
36.33,-3.09,-13.47,-3.09,-13.46,13.46,13.54,13.07,10.37,10.37,10.37
36.70,-2.99,-13.36,-3.00,-13.37,13.37,13.46,12.87,10.37,10.37,10.36
37.06,-2.90,-13.28,-2.90,-13.28,13.27,13.38,12.66,10.37,10.37,10.37
37.43,-2.81,-13.19,-2.81,-13.18,13.18,13.30,12.46,10.37,10.37,10.37
37.81,-2.71,-13.09,-2.71,-13.09,13.08,13.22,12.27,10.37,10.37,10.37
38.19,-2.61,-12.99,-2.62,-12.99,12.99,13.14,12.08,10.37,10.37,10.37
38.57,-2.52,-12.89,-2.52,-12.89,12.89,13.05,11.89,10.36,10.37,10.36
38.95,-2.42,-12.79,-2.42,-12.78,12.78,12.97,11.71,10.36,10.36,10.36
39.34,-2.32,-12.68,-2.32,-12.68,12.68,12.88,11.54,10.36,10.36,10.35
39.74,-2.22,-12.58,-2.22,-12.58,12.58,12.79,11.37,10.35,10.35,10.35
40.14,-2.12,-12.48,-2.12,-12.48,12.47,12.70,11.21,10.35,10.35,10.35
40.54,-2.02,-12.38,-2.02,-12.37,12.37,12.62,11.06,10.35,10.35,10.35
40.94,-1.91,-12.26,-1.92,-12.27,12.27,12.53,10.92,10.36,10.35,10.34
41.35,-1.82,-12.17,-1.82,-12.16,12.17,12.43,10.78,10.35,10.35,10.34
41.76,-1.72,-12.07,-1.72,-12.07,12.07,12.34,10.65,10.35,10.35,10.34
42.18,-1.63,-11.98,-1.63,-11.98,11.98,12.25,10.53,10.35,10.35,10.34
42.60,-1.54,-11.89,-1.54,-11.88,11.88,12.15,10.41,10.34,10.34,10.34
43.03,-1.44,-11.79,-1.45,-11.79,11.78,12.06,10.31,10.34,10.34,10.34
43.46,-1.35,-11.70,-1.35,-11.69,11.69,11.96,10.21,10.34,10.33,10.34
43.90,-1.26,-11.59,-1.26,-11.59,11.59,11.86,10.11,10.33,10.33,10.32
44.33,-1.17,-11.50,-1.17,-11.49,11.49,11.76,10.03,10.32,10.32,10.32
44.78,-1.07,-11.39,-1.07,-11.39,11.39,11.66,9.95,10.32,10.32,10.31
45.23,-0.97,-11.29,-0.97,-11.29,11.29,11.56,9.87,10.32,10.32,10.31
45.68,-0.87,-11.19,-0.87,-11.18,11.19,11.46,9.81,10.32,10.32,10.31
46.13,-0.77,-11.08,-0.77,-11.09,11.09,11.36,9.75,10.31,10.31,10.30
46.60,-0.67,-10.99,-0.67,-10.98,10.98,11.25,9.69,10.30,10.31,10.31
47.06,-0.57,-10.88,-0.57,-10.87,10.87,11.14,9.65,10.29,10.30,10.30
47.53,-0.45,-10.75,-0.46,-10.76,10.75,11.04,9.60,10.30,10.30,10.29
48.01,-0.34,-10.65,-0.34,-10.64,10.64,10.93,9.57,10.29,10.29,10.30
48.49,-0.23,-10.52,-0.23,-10.52,10.52,10.82,9.54,10.28,10.28,10.28
48.97,-0.12,-10.39,-0.12,-10.39,10.39,10.71,9.51,10.27,10.27,10.26
49.46,-0.00,-10.26,-0.01,-10.26,10.26,10.59,9.49,10.26,10.26,10.25
49.96,0.11,-10.13,0.11,-10.13,10.13,10.48,9.48,10.24,10.24,10.23
50.46,0.23,-10.01,0.22,-10.00,10.00,10.37,9.47,10.23,10.22,10.23
50.96,0.34,-9.88,0.34,-9.87,9.87,10.25,9.46,10.20,10.21,10.21
51.47,0.46,-9.73,0.46,-9.73,9.73,10.13,9.45,10.19,10.19,10.18
51.99,0.59,-9.59,0.58,-9.59,9.60,10.01,9.45,10.19,10.18,10.17
52.51,0.70,-9.47,0.70,-9.46,9.47,9.89,9.45,10.16,10.17,10.16
53.03,0.82,-9.33,0.82,-9.33,9.33,9.77,9.45,10.15,10.15,10.14
53.56,0.93,-9.21,0.93,-9.20,9.20,9.65,9.46,10.13,10.13,10.13
54.10,1.04,-9.07,1.04,-9.07,9.07,9.52,9.46,10.11,10.11,10.10
54.64,1.15,-8.95,1.15,-8.94,8.94,9.40,9.46,10.09,10.09,10.09
55.18,1.26,-8.81,1.25,-8.81,8.81,9.27,9.46,10.07,10.07,10.06
55.74,1.36,-8.68,1.36,-8.69,8.69,9.14,9.46,10.04,10.04,10.03
56.29,1.46,-8.58,1.46,-8.57,8.56,9.02,9.46,10.02,10.02,10.03
56.86,1.56,-8.45,1.56,-8.44,8.44,8.89,9.45,9.99,10.00,10.00
57.42,1.67,-8.31,1.67,-8.31,8.31,8.75,9.44,9.98,9.98,9.97
58.00,1.78,-8.18,1.77,-8.18,8.19,8.62,9.42,9.97,9.96,9.95
58.58,1.87,-8.07,1.87,-8.06,8.07,8.49,9.39,9.94,9.94,9.93
59.16,1.97,-7.95,1.97,-7.95,7.95,8.35,9.36,9.92,9.92,9.91
59.76,2.06,-7.84,2.06,-7.84,7.83,8.22,9.32,9.89,9.89,9.89
60.35,2.15,-7.72,2.15,-7.72,7.71,8.08,9.27,9.86,9.86,9.86
60.96,2.24,-7.60,2.24,-7.59,7.59,7.94,9.21,9.83,9.83,9.83
61.57,2.33,-7.46,2.32,-7.47,7.47,7.80,9.14,9.80,9.79,9.79
62.18,2.41,-7.34,2.41,-7.34,7.35,7.66,9.06,9.76,9.76,9.74
62.80,2.49,-7.24,2.49,-7.22,7.23,7.52,8.97,9.71,9.72,9.72
63.43,2.58,-7.10,2.57,-7.10,7.10,7.38,8.86,9.68,9.68,9.67
64.07,2.66,-6.98,2.66,-6.98,6.98,7.23,8.75,9.64,9.64,9.63
64.71,2.75,-6.86,2.75,-6.85,6.85,7.09,8.63,9.60,9.60,9.60
65.35,2.84,-6.73,2.84,-6.73,6.72,6.94,8.50,9.56,9.56,9.56
66.01,2.94,-6.59,2.93,-6.60,6.59,6.80,8.36,9.53,9.53,9.52
66.67,3.03,-6.47,3.03,-6.46,6.46,6.65,8.21,9.49,9.49,9.49
67.33,3.13,-6.33,3.13,-6.32,6.32,6.50,8.05,9.45,9.45,9.45
68.01,3.24,-6.18,3.23,-6.18,6.18,6.35,7.88,9.42,9.41,9.41
68.69,3.34,-6.04,3.34,-6.04,6.04,6.20,7.71,9.38,9.38,9.37
69.37,3.45,-5.89,3.44,-5.89,5.89,6.06,7.53,9.34,9.34,9.33
70.07,3.55,-5.75,3.55,-5.75,5.75,5.91,7.34,9.29,9.30,9.29
70.77,3.66,-5.60,3.66,-5.60,5.60,5.75,7.15,9.25,9.25,9.25
71.48,3.77,-5.46,3.77,-5.45,5.45,5.60,6.95,9.21,9.21,9.22
72.19,3.88,-5.30,3.88,-5.30,5.30,5.45,6.76,9.18,9.18,9.17
72.91,4.00,-5.15,3.99,-5.15,5.15,5.30,6.56,9.15,9.14,9.14
73.64,4.11,-5.00,4.11,-5.00,5.00,5.15,6.35,9.11,9.11,9.10
74.38,4.22,-4.86,4.22,-4.85,4.85,5.00,6.15,9.07,9.07,9.07
75.12,4.33,-4.71,4.33,-4.71,4.71,4.84,5.94,9.04,9.04,9.03
75.87,4.44,-4.57,4.44,-4.57,4.57,4.69,5.74,9.01,9.01,9.00
76.63,4.55,-4.43,4.54,-4.43,4.43,4.54,5.53,8.98,8.98,8.97
77.40,4.65,-4.30,4.65,-4.30,4.30,4.38,5.33,8.94,8.94,8.94
78.17,4.75,-4.17,4.75,-4.16,4.16,4.23,5.12,8.91,8.91,8.91
78.95,4.85,-4.04,4.85,-4.04,4.03,4.08,4.92,8.88,8.89,8.88
79.74,4.96,-3.91,4.95,-3.91,3.91,3.93,4.71,8.87,8.86,8.86
80.54,5.06,-3.79,5.06,-3.78,3.78,3.77,4.51,8.84,8.84,8.84
81.35,5.16,-3.66,5.16,-3.66,3.66,3.62,4.31,8.82,8.82,8.81
82.16,5.26,-3.53,5.26,-3.54,3.54,3.47,4.11,8.80,8.79,8.78
82.98,5.35,-3.43,5.35,-3.42,3.42,3.32,3.91,8.77,8.77,8.77
83.81,5.45,-3.30,5.44,-3.30,3.30,3.17,3.72,8.75,8.74,8.74
84.65,5.54,-3.18,5.54,-3.18,3.18,3.02,3.52,8.72,8.72,8.71
85.50,5.64,-3.07,5.64,-3.06,3.06,2.87,3.33,8.69,8.70,8.70
86.35,5.75,-2.94,5.75,-2.94,2.94,2.72,3.13,8.68,8.68,8.68
87.22,5.86,-2.81,5.86,-2.81,2.81,2.57,2.94,8.67,8.67,8.66
88.09,5.97,-2.68,5.96,-2.68,2.69,2.42,2.76,8.65,8.65,8.64
88.97,6.07,-2.56,6.07,-2.56,2.56,2.27,2.57,8.62,8.63,8.62
89.86,6.18,-2.44,6.18,-2.43,2.42,2.13,2.38,8.60,8.60,8.61
90.76,6.30,-2.29,6.30,-2.29,2.29,1.98,2.20,8.59,8.58,8.58
91.66,6.42,-2.15,6.42,-2.15,2.15,1.84,2.02,8.57,8.57,8.56
92.58,6.54,-2.01,6.54,-2.01,2.01,1.69,1.84,8.55,8.55,8.54
93.51,6.67,-1.87,6.67,-1.86,1.87,1.55,1.66,8.53,8.53,8.53
94.44,6.80,-1.72,6.79,-1.72,1.72,1.41,1.48,8.52,8.51,8.51
95.39,6.92,-1.58,6.92,-1.58,1.57,1.27,1.30,8.49,8.49,8.49
96.34,7.04,-1.43,7.04,-1.42,1.42,1.13,1.13,8.45,8.46,8.46
97.30,7.17,-1.27,7.17,-1.27,1.26,0.99,0.96,8.43,8.43,8.43
98.28,7.30,-1.11,7.29,-1.11,1.11,0.86,0.79,8.41,8.41,8.40
99.26,7.42,-0.97,7.42,-0.96,0.97,0.72,0.62,8.39,8.39,8.38
100.25,7.54,-0.82,7.54,-0.81,0.83,0.59,0.45,8.37,8.37,8.35
101.25,7.66,-0.67,7.66,-0.67,0.69,0.46,0.28,8.35,8.34,8.32
102.27,7.77,-0.52,7.75,-0.54,0.55,0.33,0.12,8.32,8.30,8.28
103.29,7.83,-0.43,7.84,-0.42,0.41,0.20,-0.04,8.24,8.25,8.25
104.32,7.91,-0.32,7.92,-0.30,0.28,0.07,-0.20,8.19,8.20,8.22
105.37,8.02,-0.17,8.02,-0.17,0.14,-0.05,-0.36,8.16,8.16,8.18
106.42,8.13,-0.01,8.13,-0.02,0.01,-0.18,-0.51,8.14,8.13,8.13
107.48,8.24,0.13,8.23,0.14,-0.13,-0.30,-0.66,8.11,8.10,8.10
108.56,8.33,0.28,8.33,0.28,-0.27,-0.42,-0.80,8.06,8.06,8.04
109.64,8.42,0.42,8.42,0.42,-0.41,-0.53,-0.95,8.00,8.00,7.99
110.74,8.50,0.55,8.50,0.56,-0.56,-0.65,-1.09,7.94,7.94,7.94
111.85,8.58,0.68,8.58,0.69,-0.70,-0.77,-1.22,7.88,7.88,7.89
112.97,8.66,0.83,8.66,0.83,-0.83,-0.88,-1.35,7.83,7.83,7.82
114.10,8.74,0.96,8.73,0.96,-0.96,-0.99,-1.47,7.78,7.78,7.77
115.24,8.81,1.09,8.80,1.09,-1.08,-1.09,-1.59,7.73,7.72,7.71
116.39,8.85,1.20,8.85,1.21,-1.20,-1.20,-1.71,7.65,7.65,7.64
117.55,8.90,1.31,8.90,1.32,-1.31,-1.30,-1.81,7.58,7.59,7.58
118.73,8.96,1.43,8.95,1.43,-1.42,-1.41,-1.91,7.53,7.53,7.52
119.92,9.01,1.53,9.00,1.53,-1.53,-1.51,-2.01,7.48,7.47,7.47
121.12,9.05,1.63,9.04,1.63,-1.63,-1.60,-2.09,7.42,7.41,7.41
122.33,9.08,1.71,9.09,1.72,-1.73,-1.70,-2.17,7.35,7.36,7.36
123.55,9.13,1.81,9.14,1.82,-1.83,-1.79,-2.25,7.30,7.31,7.31
124.79,9.20,1.93,9.19,1.92,-1.93,-1.88,-2.31,7.27,7.26,7.26
126.03,9.25,2.03,9.24,2.03,-2.03,-1.97,-2.37,7.22,7.21,7.21
127.29,9.28,2.11,9.29,2.12,-2.13,-2.06,-2.42,7.15,7.16,7.16
128.57,9.33,2.22,9.33,2.22,-2.22,-2.14,-2.47,7.11,7.11,7.10
129.85,9.38,2.31,9.38,2.32,-2.31,-2.22,-2.50,7.07,7.07,7.06
131.15,9.44,2.42,9.43,2.41,-2.40,-2.30,-2.54,7.04,7.03,7.01
132.46,9.46,2.48,9.46,2.49,-2.48,-2.37,-2.56,6.98,6.98,6.97
133.79,9.49,2.55,9.49,2.56,-2.56,-2.45,-2.58,6.93,6.93,6.93
135.12,9.52,2.62,9.51,2.62,-2.63,-2.52,-2.59,6.89,6.89,6.89
136.48,9.53,2.67,9.54,2.68,-2.69,-2.59,-2.60,6.84,6.85,6.85
137.84,9.57,2.75,9.56,2.75,-2.75,-2.66,-2.61,6.82,6.81,6.81
139.22,9.58,2.81,9.58,2.81,-2.80,-2.72,-2.61,6.77,6.77,6.76
140.61,9.59,2.86,9.59,2.86,-2.85,-2.78,-2.60,6.73,6.74,6.72
142.02,9.60,2.89,9.60,2.90,-2.90,-2.84,-2.60,6.70,6.70,6.70
143.44,9.61,2.94,9.61,2.94,-2.94,-2.90,-2.59,6.67,6.66,6.66
144.87,9.61,2.98,9.61,2.98,-2.98,-2.95,-2.58,6.63,6.63,6.62
146.32,9.60,3.01,9.60,3.01,-3.01,-3.00,-2.56,6.59,6.59,6.58
147.78,9.59,3.03,9.59,3.04,-3.04,-3.05,-2.55,6.55,6.55,6.55
149.26,9.58,3.05,9.58,3.06,-3.06,-3.10,-2.53,6.51,6.51,6.52
150.75,9.56,3.09,9.56,3.08,-3.09,-3.14,-2.51,6.47,6.47,6.46
152.26,9.54,3.11,9.54,3.11,-3.11,-3.18,-2.50,6.43,6.43,6.42
153.78,9.51,3.11,9.51,3.12,-3.13,-3.22,-2.48,6.38,6.38,6.39
155.32,9.49,3.15,9.48,3.14,-3.14,-3.26,-2.46,6.34,6.34,6.33
156.88,9.45,3.14,9.46,3.16,-3.16,-3.29,-2.45,6.29,6.30,6.30
158.44,9.44,3.18,9.43,3.17,-3.17,-3.32,-2.43,6.27,6.26,6.25
160.03,9.39,3.18,9.39,3.19,-3.18,-3.35,-2.42,6.21,6.21,6.20
161.63,9.36,3.20,9.36,3.20,-3.19,-3.37,-2.40,6.17,6.17,6.15
163.24,9.32,3.20,9.31,3.19,-3.20,-3.40,-2.39,6.12,6.11,6.11
164.88,9.26,3.18,9.27,3.20,-3.20,-3.42,-2.38,6.06,6.07,6.07
166.53,9.23,3.20,9.23,3.20,-3.21,-3.44,-2.37,6.02,6.02,6.02
168.19,9.20,3.22,9.18,3.21,-3.21,-3.45,-2.37,5.99,5.97,5.97
169.87,9.14,3.21,9.14,3.21,-3.22,-3.46,-2.36,5.92,5.92,5.92
171.57,9.09,3.20,9.09,3.21,-3.22,-3.47,-2.36,5.86,5.87,5.88
173.29,9.05,3.22,9.05,3.22,-3.23,-3.48,-2.36,5.82,5.82,5.82
175.02,9.01,3.23,9.01,3.23,-3.23,-3.49,-2.36,5.77,5.77,5.77
176.77,8.97,3.25,8.96,3.25,-3.23,-3.49,-2.36,5.73,5.73,5.71
178.54,8.91,3.24,8.91,3.25,-3.23,-3.49,-2.37,5.67,5.68,5.66
180.32,8.85,3.24,8.85,3.24,-3.23,-3.49,-2.37,5.62,5.62,5.60
182.13,8.79,3.23,8.78,3.22,-3.23,-3.48,-2.38,5.56,5.55,5.55
183.95,8.70,3.20,8.71,3.21,-3.22,-3.48,-2.40,5.48,5.49,5.49
185.79,8.64,3.19,8.64,3.20,-3.21,-3.46,-2.41,5.42,5.42,5.44
187.65,8.58,3.20,8.58,3.19,-3.20,-3.45,-2.43,5.37,5.37,5.37
189.52,8.52,3.19,8.52,3.20,-3.19,-3.44,-2.44,5.32,5.33,5.32
191.42,8.47,3.19,8.46,3.19,-3.18,-3.42,-2.46,5.28,5.28,5.27
193.33,8.41,3.18,8.41,3.18,-3.17,-3.40,-2.48,5.23,5.23,5.22
195.27,8.34,3.16,8.34,3.17,-3.16,-3.38,-2.51,5.18,5.18,5.17
197.22,8.27,3.15,8.26,3.15,-3.14,-3.36,-2.53,5.12,5.12,5.11
199.19,8.19,3.12,8.19,3.12,-3.13,-3.33,-2.56,5.06,5.07,5.06
201.18,8.12,3.10,8.12,3.10,-3.11,-3.30,-2.58,5.01,5.01,5.01
203.19,8.06,3.07,8.05,3.08,-3.08,-3.28,-2.61,4.97,4.97,4.98
205.23,7.99,3.06,7.99,3.05,-3.06,-3.24,-2.64,4.93,4.93,4.92
207.28,7.93,3.02,7.92,3.03,-3.04,-3.21,-2.66,4.89,4.89,4.90
209.35,7.86,3.01,7.86,3.02,-3.01,-3.17,-2.69,4.84,4.85,4.84
211.44,7.80,3.00,7.80,3.00,-2.99,-3.13,-2.72,4.81,4.81,4.79
213.56,7.74,2.98,7.73,2.97,-2.96,-3.09,-2.75,4.77,4.76,4.75
215.69,7.66,2.92,7.66,2.93,-2.93,-3.05,-2.77,4.72,4.72,4.73
217.85,7.58,2.88,7.59,2.90,-2.90,-3.01,-2.80,4.68,4.69,4.69
220.03,7.53,2.87,7.53,2.87,-2.87,-2.96,-2.82,4.66,4.66,4.65
222.23,7.47,2.84,7.46,2.83,-2.83,-2.91,-2.84,4.64,4.63,4.62
224.45,7.39,2.78,7.38,2.78,-2.78,-2.86,-2.86,4.61,4.60,4.60
226.70,7.30,2.72,7.30,2.73,-2.73,-2.81,-2.88,4.57,4.57,4.57
228.96,7.22,2.67,7.23,2.68,-2.68,-2.76,-2.89,4.54,4.55,4.54
231.25,7.17,2.63,7.16,2.63,-2.63,-2.71,-2.90,4.54,4.53,4.53
233.57,7.10,2.58,7.09,2.57,-2.57,-2.65,-2.91,4.53,4.52,4.51
235.90,7.00,2.49,7.01,2.51,-2.50,-2.59,-2.90,4.49,4.51,4.50
238.26,6.94,2.44,6.93,2.44,-2.44,-2.53,-2.90,4.50,4.49,4.49
240.64,6.85,2.36,6.86,2.37,-2.37,-2.47,-2.89,4.48,4.48,4.48
243.05,6.79,2.30,6.78,2.30,-2.30,-2.41,-2.88,4.48,4.48,4.48
245.48,6.72,2.24,6.71,2.23,-2.23,-2.35,-2.86,4.48,4.47,4.47
247.93,6.63,2.15,6.64,2.16,-2.16,-2.28,-2.84,4.46,4.47,4.47
250.41,6.57,2.09,6.57,2.09,-2.09,-2.22,-2.80,4.47,4.47,4.47
252.92,6.50,2.01,6.50,2.02,-2.02,-2.15,-2.77,4.48,4.48,4.48
255.45,6.45,1.95,6.45,1.95,-1.95,-2.08,-2.72,4.50,4.50,4.49
258.00,6.39,1.88,6.38,1.87,-1.87,-2.01,-2.68,4.52,4.51,4.50
260.58,6.30,1.79,6.30,1.79,-1.79,-1.94,-2.62,4.51,4.51,4.50
263.19,6.22,1.70,6.22,1.71,-1.71,-1.87,-2.57,4.51,4.52,4.51
265.82,6.15,1.62,6.15,1.62,-1.62,-1.80,-2.50,4.53,4.53,4.52
268.48,6.09,1.54,6.08,1.54,-1.54,-1.72,-2.43,4.55,4.55,4.54
271.16,6.02,1.45,6.01,1.45,-1.45,-1.65,-2.36,4.57,4.56,4.56
273.87,5.93,1.36,5.93,1.36,-1.37,-1.57,-2.28,4.56,4.57,4.56
276.61,5.86,1.26,5.86,1.27,-1.29,-1.50,-2.20,4.57,4.57,4.59
279.38,5.80,1.20,5.80,1.20,-1.21,-1.42,-2.11,4.59,4.59,4.59
282.17,5.75,1.13,5.75,1.13,-1.13,-1.34,-2.02,4.62,4.61,4.61
284.99,5.70,1.07,5.69,1.06,-1.06,-1.27,-1.93,4.64,4.63,4.62
287.84,5.62,0.98,5.62,0.99,-0.98,-1.19,-1.83,4.63,4.64,4.63
290.72,5.56,0.91,5.56,0.91,-0.91,-1.11,-1.73,4.64,4.65,4.64
293.63,5.51,0.84,5.50,0.84,-0.84,-1.03,-1.63,4.67,4.66,4.66
296.57,5.45,0.76,5.45,0.77,-0.77,-0.95,-1.52,4.68,4.68,4.68
299.53,5.39,0.70,5.39,0.70,-0.69,-0.87,-1.42,4.69,4.69,4.68
302.53,5.32,0.62,5.32,0.62,-0.62,-0.79,-1.31,4.70,4.70,4.69
305.55,5.26,0.54,5.26,0.55,-0.55,-0.71,-1.20,4.71,4.71,4.71
308.61,5.20,0.47,5.20,0.47,-0.47,-0.63,-1.09,4.73,4.73,4.72
311.69,5.14,0.40,5.14,0.40,-0.40,-0.55,-0.98,4.74,4.74,4.73
314.81,5.08,0.31,5.08,0.32,-0.33,-0.47,-0.87,4.75,4.75,4.76
317.96,5.01,0.25,5.01,0.25,-0.25,-0.39,-0.76,4.75,4.76,4.75
321.14,4.95,0.18,4.95,0.18,-0.18,-0.31,-0.64,4.77,4.76,4.76
324.35,4.88,0.11,4.88,0.11,-0.11,-0.23,-0.53,4.77,4.77,4.76
327.59,4.82,0.04,4.82,0.04,-0.04,-0.15,-0.41,4.78,4.78,4.77
330.87,4.75,-0.03,4.74,-0.03,0.03,-0.07,-0.30,4.78,4.78,4.77
334.18,4.67,-0.11,4.67,-0.11,0.11,0.01,-0.18,4.77,4.78,4.77
337.52,4.59,-0.20,4.60,-0.18,0.18,0.09,-0.07,4.77,4.78,4.78
340.90,4.54,-0.25,4.53,-0.25,0.25,0.17,0.05,4.79,4.78,4.78
344.30,4.48,-0.31,4.47,-0.32,0.32,0.25,0.17,4.80,4.79,4.78
347.75,4.40,-0.39,4.40,-0.39,0.39,0.33,0.28,4.79,4.79,4.78
351.23,4.32,-0.47,4.32,-0.46,0.46,0.41,0.40,4.77,4.78,4.78
354.74,4.26,-0.53,4.26,-0.52,0.52,0.48,0.52,4.78,4.78,4.78
358.28,4.19,-0.58,4.19,-0.58,0.59,0.56,0.64,4.77,4.78,4.76
361.87,4.13,-0.64,4.12,-0.64,0.65,0.64,0.76,4.78,4.77,4.76
365.49,4.05,-0.72,4.05,-0.71,0.71,0.71,0.87,4.76,4.76,4.76
369.14,3.98,-0.78,3.98,-0.78,0.77,0.79,0.99,4.75,4.75,4.75
372.83,3.92,-0.84,3.91,-0.84,0.83,0.86,1.11,4.75,4.74,4.75
376.56,3.85,-0.90,3.85,-0.89,0.89,0.93,1.23,4.74,4.74,4.74
380.33,3.79,-0.95,3.79,-0.95,0.95,1.00,1.35,4.73,4.73,4.73
384.13,3.73,-1.00,3.72,-1.00,1.00,1.07,1.47,4.73,4.72,4.72
387.97,3.66,-1.06,3.66,-1.05,1.06,1.14,1.59,4.72,4.72,4.71
391.85,3.60,-1.11,3.60,-1.11,1.11,1.21,1.71,4.71,4.72,4.70
395.77,3.55,-1.17,3.54,-1.17,1.17,1.27,1.83,4.72,4.71,4.71
399.73,3.48,-1.23,3.48,-1.23,1.23,1.34,1.95,4.71,4.70,4.70
403.72,3.41,-1.29,3.41,-1.29,1.29,1.40,2.07,4.69,4.70,4.69
407.76,3.34,-1.35,3.34,-1.35,1.35,1.47,2.19,4.68,4.69,4.68
411.84,3.28,-1.42,3.28,-1.41,1.41,1.53,2.31,4.68,4.68,4.69
415.96,3.22,-1.46,3.21,-1.47,1.47,1.59,2.42,4.68,4.68,4.67
420.12,3.15,-1.53,3.15,-1.53,1.53,1.64,2.54,4.67,4.67,4.67
424.32,3.08,-1.60,3.08,-1.59,1.59,1.70,2.65,4.67,4.67,4.67
428.56,3.02,-1.65,3.02,-1.65,1.65,1.76,2.76,4.67,4.67,4.66
432.85,2.96,-1.71,2.96,-1.71,1.71,1.81,2.87,4.67,4.67,4.66
437.18,2.90,-1.77,2.90,-1.77,1.77,1.86,2.98,4.67,4.67,4.66
441.55,2.84,-1.84,2.84,-1.83,1.84,1.92,3.08,4.68,4.67,4.67
445.96,2.78,-1.90,2.77,-1.90,1.90,1.97,3.18,4.68,4.67,4.67
450.42,2.70,-1.97,2.70,-1.97,1.97,2.02,3.27,4.66,4.67,4.66
454.93,2.64,-2.04,2.64,-2.03,2.03,2.07,3.36,4.67,4.67,4.67
459.48,2.58,-2.10,2.58,-2.10,2.10,2.11,3.45,4.67,4.67,4.67
464.07,2.52,-2.17,2.52,-2.16,2.16,2.16,3.53,4.68,4.68,4.68
468.71,2.47,-2.23,2.46,-2.22,2.22,2.21,3.60,4.69,4.69,4.69
473.40,2.41,-2.28,2.41,-2.28,2.29,2.26,3.67,4.69,4.69,4.68
478.13,2.35,-2.35,2.35,-2.34,2.35,2.31,3.74,4.70,4.70,4.69
482.91,2.30,-2.40,2.29,-2.40,2.41,2.36,3.79,4.71,4.70,4.69
487.74,2.24,-2.47,2.24,-2.47,2.47,2.41,3.84,4.71,4.70,4.70
