frequency,raw,error,smoothed,error_smoothed,equalization,parametric_eq,fixed_band_eq,equalized_raw,equalized_smoothed,target
20.00,4.89,-4.49,4.88,-4.50,4.50,4.21,1.51,9.39,9.38,9.38
20.20,4.93,-4.44,4.93,-4.44,4.44,4.20,1.55,9.37,9.37,9.37
20.40,4.97,-4.39,4.98,-4.38,4.38,4.18,1.60,9.35,9.36,9.35
20.61,5.01,-4.35,5.02,-4.33,4.33,4.16,1.65,9.33,9.35,9.35
20.81,5.05,-4.29,5.07,-4.27,4.27,4.15,1.70,9.32,9.34,9.33
21.02,5.09,-4.25,5.11,-4.22,4.22,4.13,1.75,9.31,9.33,9.33
21.23,5.14,-4.18,5.15,-4.18,4.18,4.11,1.80,9.31,9.32,9.32
21.44,5.19,-4.14,5.18,-4.13,4.13,4.09,1.85,9.32,9.32,9.33
21.66,5.24,-4.08,5.22,-4.09,4.09,4.07,1.91,9.33,9.31,9.32
21.87,5.28,-4.03,5.25,-4.06,4.06,4.06,1.97,9.33,9.30,9.31
22.09,5.32,-3.98,5.27,-4.02,4.02,4.04,2.02,9.34,9.30,9.30
22.31,5.34,-3.96,5.30,-3.99,3.99,4.02,2.09,9.33,9.29,9.30
22.54,5.35,-3.94,5.32,-3.97,3.97,4.00,2.15,9.32,9.29,9.29
22.76,5.37,-3.92,5.33,-3.95,3.95,3.97,2.21,9.32,9.28,9.28
22.99,5.39,-3.89,5.34,-3.94,3.94,3.95,2.28,9.32,9.28,9.27
23.22,5.38,-3.89,5.35,-3.92,3.92,3.93,2.34,9.30,9.27,9.26
23.45,5.36,-3.91,5.37,-3.90,3.90,3.91,2.41,9.26,9.27,9.27
23.69,5.35,-3.91,5.38,-3.89,3.89,3.89,2.48,9.23,9.27,9.26
23.92,5.33,-3.93,5.40,-3.86,3.86,3.86,2.55,9.19,9.27,9.26
24.16,5.36,-3.91,5.43,-3.84,3.84,3.84,2.62,9.20,9.27,9.27
24.40,5.41,-3.87,5.45,-3.81,3.81,3.82,2.70,9.22,9.27,9.27
24.65,5.46,-3.82,5.49,-3.78,3.78,3.79,2.77,9.24,9.27,9.27
24.89,5.51,-3.76,5.52,-3.74,3.74,3.77,2.84,9.25,9.27,9.27
25.14,5.57,-3.70,5.56,-3.70,3.70,3.74,2.92,9.27,9.27,9.27
25.39,5.63,-3.64,5.61,-3.66,3.66,3.72,2.99,9.28,9.27,9.27
25.65,5.70,-3.57,5.67,-3.60,3.60,3.69,3.07,9.30,9.27,9.27
25.91,5.76,-3.51,5.73,-3.55,3.55,3.67,3.15,9.31,9.27,9.27
26.16,5.81,-3.48,5.78,-3.49,3.49,3.64,3.22,9.30,9.27,9.28
26.43,5.83,-3.45,5.83,-3.45,3.45,3.62,3.29,9.27,9.28,9.28
26.69,5.86,-3.42,5.87,-3.41,3.41,3.59,3.37,9.27,9.28,9.28
26.96,5.89,-3.39,5.89,-3.38,3.38,3.56,3.44,9.27,9.27,9.28
27.23,5.93,-3.35,5.91,-3.36,3.36,3.53,3.51,9.28,9.27,9.27
27.50,5.98,-3.29,5.93,-3.34,3.34,3.51,3.58,9.32,9.27,9.27
27.77,6.03,-3.25,5.95,-3.33,3.33,3.48,3.64,9.35,9.27,9.28
28.05,6.06,-3.22,5.96,-3.32,3.32,3.45,3.70,9.37,9.27,9.28
28.33,6.01,-3.26,5.96,-3.31,3.31,3.42,3.76,9.31,9.27,9.26
28.62,5.95,-3.31,5.97,-3.30,3.30,3.39,3.81,9.25,9.27,9.26
28.90,5.90,-3.37,5.99,-3.28,3.28,3.36,3.86,9.18,9.27,9.27
29.19,5.92,-3.35,6.01,-3.25,3.25,3.33,3.91,9.16,9.26,9.26
29.48,5.97,-3.29,6.05,-3.21,3.21,3.30,3.94,9.18,9.26,9.26
29.78,6.03,-3.23,6.08,-3.17,3.17,3.27,3.98,9.20,9.25,9.26
30.08,6.08,-3.19,6.11,-3.14,3.14,3.24,4.00,9.21,9.25,9.26
30.38,6.12,-3.13,6.14,-3.10,3.10,3.21,4.02,9.22,9.24,9.25
30.68,6.16,-3.08,6.17,-3.07,3.07,3.18,4.04,9.22,9.24,9.24
30.99,6.20,-3.04,6.20,-3.03,3.03,3.14,4.05,9.22,9.23,9.23
31.30,6.28,-2.93,6.23,-2.99,2.99,3.11,4.05,9.27,9.22,9.22
31.61,6.38,-2.84,6.27,-2.94,2.94,3.08,4.04,9.32,9.21,9.21
31.93,6.47,-2.73,6.31,-2.90,2.90,3.05,4.03,9.37,9.21,9.20
32.24,6.43,-2.76,6.34,-2.86,2.86,3.01,4.01,9.30,9.20,9.19
32.57,6.35,-2.83,6.35,-2.83,2.83,2.98,3.98,9.18,9.19,9.18
32.89,6.27,-2.91,6.37,-2.81,2.81,2.95,3.95,9.08,9.18,9.18
33.22,6.28,-2.89,6.38,-2.80,2.80,2.91,3.91,9.08,9.18,9.17
33.55,6.33,-2.84,6.38,-2.79,2.79,2.88,3.87,9.11,9.17,9.17
33.89,6.38,-2.79,6.39,-2.77,2.77,2.84,3.82,9.15,9.16,9.17
34.23,6.40,-2.76,6.39,-2.77,2.77,2.81,3.76,9.17,9.16,9.15
34.57,6.40,-2.75,6.38,-2.77,2.77,2.77,3.71,9.17,9.15,9.15
34.92,6.40,-2.75,6.37,-2.77,2.77,2.74,3.64,9.17,9.14,9.14
35.27,6.40,-2.75,6.36,-2.77,2.77,2.70,3.58,9.17,9.14,9.14
35.62,6.40,-2.73,6.37,-2.76,2.76,2.67,3.51,9.16,9.13,9.13
35.97,6.40,-2.73,6.38,-2.74,2.74,2.63,3.44,9.13,9.11,9.12
36.33,6.40,-2.71,6.39,-2.71,2.71,2.60,3.37,9.10,9.10,9.10
36.70,6.40,-2.69,6.40,-2.68,2.68,2.56,3.29,9.08,9.08,9.09
37.06,6.40,-2.67,6.41,-2.66,2.66,2.52,3.21,9.05,9.06,9.07
37.43,6.37,-2.68,6.41,-2.63,2.63,2.49,3.14,9.00,9.04,9.04
37.81,6.35,-2.68,6.41,-2.60,2.60,2.45,3.06,8.95,9.02,9.02
38.19,6.37,-2.63,6.42,-2.57,2.57,2.41,2.98,8.93,8.99,8.99
38.57,6.43,-2.54,6.43,-2.53,2.53,2.38,2.90,8.96,8.96,8.96
38.95,6.49,-2.45,6.44,-2.49,2.49,2.34,2.82,8.98,8.94,8.94
39.34,6.50,-2.40,6.45,-2.45,2.45,2.30,2.74,8.95,8.91,8.90
39.74,6.50,-2.38,6.47,-2.41,2.41,2.26,2.66,8.91,8.88,8.88
40.14,6.50,-2.35,6.48,-2.37,2.37,2.22,2.59,8.86,8.85,8.85
40.54,6.50,-2.32,6.49,-2.33,2.33,2.19,2.51,8.82,8.82,8.81
40.94,6.50,-2.29,6.49,-2.29,2.29,2.15,2.44,8.79,8.79,8.78
41.35,6.50,-2.27,6.49,-2.27,2.27,2.11,2.36,8.76,8.76,8.76
41.76,6.50,-2.22,6.49,-2.24,2.24,2.07,2.29,8.74,8.73,8.72
42.18,6.50,-2.20,6.49,-2.21,2.21,2.03,2.22,8.71,8.70,8.70
42.60,6.50,-2.18,6.48,-2.19,2.19,1.99,2.15,8.68,8.67,8.67
43.03,6.50,-2.14,6.48,-2.16,2.16,1.95,2.08,8.66,8.64,8.64
43.46,6.50,-2.11,6.48,-2.13,2.13,1.91,2.02,8.63,8.61,8.61
43.90,6.50,-2.09,6.48,-2.10,2.10,1.87,1.95,8.59,8.58,8.58
44.33,6.45,-2.10,6.49,-2.06,2.06,1.83,1.89,8.50,8.55,8.55
44.78,6.38,-2.13,6.50,-2.02,2.02,1.79,1.82,8.39,8.51,8.51
45.23,6.41,-2.09,6.51,-1.97,1.97,1.75,1.76,8.38,8.48,8.49
45.68,6.52,-1.93,6.52,-1.92,1.92,1.71,1.70,8.44,8.44,8.45
46.13,6.60,-1.80,6.53,-1.87,1.87,1.67,1.65,8.47,8.40,8.40
46.60,6.60,-1.77,6.54,-1.82,1.82,1.63,1.59,8.41,8.36,8.36
47.06,6.60,-1.73,6.55,-1.76,1.76,1.59,1.54,8.36,8.32,8.32
47.53,6.60,-1.69,6.57,-1.70,1.70,1.55,1.48,8.30,8.27,8.28
48.01,6.60,-1.63,6.58,-1.65,1.65,1.51,1.43,8.24,8.22,8.23
48.49,6.60,-1.58,6.59,-1.59,1.59,1.47,1.38,8.18,8.18,8.17
48.97,6.60,-1.53,6.60,-1.53,1.53,1.42,1.33,8.12,8.13,8.12
49.46,6.60,-1.48,6.61,-1.47,1.47,1.38,1.28,8.07,8.08,8.08
49.96,6.60,-1.41,6.61,-1.42,1.42,1.34,1.24,8.02,8.03,8.01
50.46,6.60,-1.37,6.60,-1.37,1.37,1.30,1.19,7.97,7.98,7.96
50.96,6.60,-1.32,6.60,-1.32,1.32,1.26,1.15,7.92,7.92,7.92
51.47,6.60,-1.28,6.61,-1.26,1.26,1.21,1.10,7.86,7.87,7.87
51.99,6.60,-1.22,6.62,-1.20,1.20,1.17,1.06,7.79,7.82,7.82
52.51,6.60,-1.18,6.63,-1.14,1.14,1.13,1.02,7.74,7.77,7.77
53.03,6.60,-1.14,6.62,-1.09,1.09,1.09,0.98,7.69,7.72,7.73
53.56,6.60,-1.08,6.61,-1.06,1.06,1.04,0.94,7.65,7.67,7.68
54.10,6.60,-1.02,6.59,-1.02,1.02,1.00,0.90,7.62,7.62,7.62
54.64,6.60,-0.97,6.58,-0.99,0.99,0.96,0.86,7.59,7.57,7.57
55.18,6.62,-0.89,6.56,-0.96,0.96,0.92,0.82,7.58,7.52,7.50
55.74,6.69,-0.77,6.53,-0.94,0.94,0.87,0.78,7.62,7.47,7.45
56.29,6.66,-0.75,6.51,-0.91,0.91,0.83,0.74,7.56,7.42,7.41
56.86,6.53,-0.84,6.49,-0.88,0.88,0.79,0.70,7.41,7.37,7.36
57.42,6.40,-0.90,6.46,-0.85,0.85,0.74,0.67,7.25,7.32,7.30
58.00,6.26,-1.01,6.44,-0.82,0.82,0.70,0.63,7.08,7.26,7.26
58.58,6.31,-0.92,6.43,-0.78,0.78,0.65,0.59,7.09,7.21,7.22
59.16,6.36,-0.82,6.42,-0.74,0.74,0.61,0.56,7.09,7.15,7.18
59.76,6.39,-0.74,6.41,-0.69,0.69,0.57,0.52,7.08,7.10,7.13
60.35,6.40,-0.66,6.39,-0.64,0.64,0.52,0.48,7.04,7.04,7.05
60.96,6.40,-0.60,6.38,-0.60,0.60,0.48,0.45,6.99,6.98,6.99
61.57,6.40,-0.52,6.37,-0.54,0.54,0.43,0.41,6.94,6.92,6.92
62.18,6.40,-0.45,6.37,-0.48,0.48,0.39,0.37,6.88,6.85,6.84
62.80,6.40,-0.37,6.37,-0.42,0.42,0.34,0.34,6.81,6.79,6.77
63.43,6.44,-0.26,6.38,-0.34,0.34,0.30,0.30,6.78,6.72,6.70
64.07,6.48,-0.17,6.39,-0.26,0.26,0.25,0.26,6.74,6.65,6.64
64.71,6.43,-0.15,6.40,-0.18,0.18,0.21,0.22,6.61,6.58,6.57
65.35,6.36,-0.16,6.39,-0.13,0.13,0.16,0.19,6.48,6.51,6.51
66.01,6.30,-0.14,6.37,-0.07,0.07,0.12,0.15,6.37,6.44,6.44
66.67,6.30,-0.09,6.35,-0.02,0.02,0.07,0.11,6.32,6.37,6.39
67.33,6.30,-0.01,6.33,0.02,-0.02,0.03,0.07,6.27,6.30,6.30
68.01,6.30,0.06,6.30,0.07,-0.07,-0.02,0.03,6.23,6.23,6.24
68.69,6.30,0.14,6.27,0.11,-0.11,-0.07,-0.01,6.18,6.16,6.16
69.37,6.31,0.21,6.24,0.15,-0.15,-0.11,-0.05,6.15,6.09,6.10
70.07,6.32,0.29,6.22,0.20,-0.20,-0.16,-0.10,6.12,6.02,6.02
70.77,6.30,0.35,6.20,0.25,-0.25,-0.21,-0.14,6.04,5.94,5.95
71.48,6.16,0.28,6.18,0.31,-0.31,-0.25,-0.18,5.84,5.87,5.88
72.19,6.03,0.23,6.18,0.38,-0.38,-0.30,-0.22,5.64,5.80,5.79
72.91,6.09,0.37,6.17,0.45,-0.45,-0.35,-0.27,5.64,5.72,5.72
73.64,6.10,0.45,6.16,0.51,-0.51,-0.39,-0.31,5.59,5.65,5.64
74.38,6.10,0.52,6.13,0.55,-0.55,-0.44,-0.36,5.54,5.58,5.58
75.12,6.10,0.60,6.10,0.59,-0.59,-0.49,-0.40,5.50,5.51,5.50
75.87,6.10,0.66,6.07,0.64,-0.64,-0.53,-0.45,5.46,5.44,5.44
76.63,6.13,0.76,6.06,0.68,-0.68,-0.58,-0.49,5.44,5.37,5.36
77.40,6.17,0.86,6.04,0.74,-0.74,-0.63,-0.54,5.43,5.30,5.30
78.17,6.17,0.94,6.02,0.79,-0.79,-0.68,-0.59,5.38,5.24,5.23
78.95,6.01,0.83,6.01,0.84,-0.84,-0.73,-0.64,5.16,5.17,5.17
79.74,6.00,0.89,6.00,0.90,-0.90,-0.77,-0.69,5.09,5.10,5.11
80.54,5.87,0.83,5.99,0.95,-0.95,-0.82,-0.74,4.91,5.04,5.04
81.35,5.80,0.83,5.96,0.99,-0.99,-0.87,-0.79,4.80,4.97,4.97
82.16,5.87,0.96,5.94,1.03,-1.03,-0.92,-0.84,4.83,4.90,4.91
82.98,5.89,1.05,5.91,1.07,-1.07,-0.97,-0.89,4.81,4.83,4.84
83.81,5.99,1.22,5.87,1.11,-1.11,-1.02,-0.95,4.88,4.76,4.77
84.65,5.94,1.24,5.84,1.14,-1.14,-1.07,-1.00,4.79,4.69,4.70
85.50,5.85,1.24,5.81,1.19,-1.19,-1.11,-1.06,4.66,4.62,4.61
86.35,5.79,1.24,5.79,1.24,-1.24,-1.16,-1.11,4.55,4.55,4.55
87.22,5.79,1.31,5.77,1.29,-1.29,-1.21,-1.17,4.49,4.48,4.48
88.09,5.78,1.37,5.75,1.35,-1.35,-1.26,-1.23,4.43,4.41,4.40
88.97,5.70,1.36,5.72,1.39,-1.39,-1.31,-1.29,4.30,4.33,4.34
89.86,5.64,1.39,5.69,1.44,-1.44,-1.36,-1.35,4.20,4.25,4.25
90.76,5.61,1.43,5.66,1.49,-1.49,-1.41,-1.41,4.12,4.17,4.18
91.66,5.60,1.51,5.63,1.54,-1.54,-1.46,-1.47,4.06,4.09,4.09
92.58,5.60,1.58,5.60,1.58,-1.58,-1.51,-1.54,4.01,4.01,4.02
93.51,5.63,1.69,5.56,1.63,-1.63,-1.56,-1.60,3.99,3.93,3.94
94.44,5.64,1.78,5.53,1.68,-1.68,-1.61,-1.67,3.95,3.84,3.85
95.39,5.50,1.74,5.49,1.74,-1.74,-1.66,-1.73,3.76,3.75,3.76
96.34,5.34,1.67,5.45,1.79,-1.79,-1.71,-1.80,3.55,3.66,3.67
97.30,5.37,1.79,5.42,1.85,-1.85,-1.76,-1.87,3.52,3.57,3.57
98.28,5.39,1.91,5.39,1.91,-1.91,-1.81,-1.93,3.47,3.48,3.48
99.26,5.42,2.04,5.35,1.97,-1.97,-1.86,-2.00,3.45,3.39,3.38
100.25,5.42,2.13,5.30,2.01,-2.01,-1.91,-2.07,3.41,3.29,3.28
101.25,5.26,2.06,5.25,2.05,-2.05,-1.96,-2.14,3.20,3.20,3.20
102.27,5.16,2.05,5.20,2.10,-2.10,-2.01,-2.21,3.06,3.10,3.10
103.29,5.09,2.08,5.15,2.14,-2.14,-2.06,-2.28,2.95,3.01,3.01
104.32,5.05,2.12,5.09,2.18,-2.18,-2.11,-2.35,2.87,2.91,2.92
105.37,5.10,2.27,5.04,2.22,-2.22,-2.16,-2.42,2.87,2.82,2.83
106.42,5.11,2.38,4.99,2.27,-2.27,-2.21,-2.49,2.84,2.73,2.73
107.48,4.99,2.36,4.94,2.31,-2.31,-2.26,-2.56,2.68,2.64,2.62
108.56,4.82,2.27,4.88,2.34,-2.34,-2.31,-2.62,2.48,2.54,2.55
109.64,4.70,2.24,4.82,2.37,-2.37,-2.36,-2.69,2.33,2.45,2.45
110.74,4.73,2.37,4.76,2.40,-2.40,-2.41,-2.75,2.32,2.36,2.36
111.85,4.82,2.54,4.72,2.45,-2.45,-2.46,-2.81,2.37,2.27,2.27
112.97,4.73,2.54,4.68,2.50,-2.50,-2.51,-2.87,2.23,2.18,2.19
114.10,4.61,2.50,4.64,2.54,-2.54,-2.56,-2.93,2.06,2.10,2.11
115.24,4.59,2.57,4.59,2.58,-2.58,-2.60,-2.99,2.01,2.01,2.01
116.39,4.50,2.58,4.54,2.61,-2.61,-2.65,-3.04,1.88,1.93,1.92
117.55,4.49,2.64,4.51,2.65,-2.65,-2.70,-3.09,1.83,1.85,1.85
118.73,4.53,2.77,4.48,2.71,-2.71,-2.75,-3.13,1.82,1.77,1.75
119.92,4.44,2.75,4.46,2.77,-2.77,-2.80,-3.18,1.67,1.69,1.68
121.12,4.43,2.80,4.44,2.82,-2.82,-2.84,-3.21,1.61,1.62,1.62
122.33,4.43,2.88,4.40,2.86,-2.86,-2.89,-3.25,1.56,1.54,1.54
123.55,4.39,2.91,4.37,2.91,-2.91,-2.94,-3.28,1.48,1.46,1.47
124.79,4.34,2.93,4.34,2.95,-2.95,-2.98,-3.31,1.38,1.39,1.40
126.03,4.27,2.94,4.32,3.00,-3.00,-3.03,-3.33,1.27,1.32,1.33
127.29,4.27,3.02,4.28,3.04,-3.04,-3.08,-3.35,1.23,1.24,1.25
128.57,4.31,3.13,4.25,3.07,-3.07,-3.12,-3.36,1.23,1.17,1.17
129.85,4.36,3.26,4.21,3.11,-3.11,-3.17,-3.37,1.24,1.10,1.10
131.15,4.21,3.18,4.19,3.16,-3.16,-3.21,-3.38,1.05,1.03,1.02
132.46,4.07,3.12,4.15,3.20,-3.20,-3.25,-3.39,0.87,0.96,0.95
133.79,4.06,3.18,4.12,3.24,-3.24,-3.30,-3.39,0.82,0.88,0.88
135.12,4.10,3.29,4.08,3.27,-3.27,-3.34,-3.39,0.82,0.81,0.81
136.48,4.10,3.35,4.05,3.31,-3.31,-3.38,-3.38,0.78,0.74,0.75
137.84,3.93,3.25,4.02,3.35,-3.35,-3.42,-3.38,0.58,0.67,0.68
139.22,3.90,3.31,3.97,3.38,-3.38,-3.46,-3.37,0.52,0.60,0.59
140.61,3.91,3.37,3.92,3.39,-3.39,-3.50,-3.36,0.51,0.53,0.53
142.02,3.96,3.50,3.88,3.42,-3.42,-3.54,-3.35,0.54,0.46,0.46
143.44,3.98,3.59,3.83,3.44,-3.44,-3.58,-3.33,0.53,0.39,0.38
144.87,3.88,3.56,3.80,3.47,-3.47,-3.62,-3.32,0.40,0.32,0.32
146.32,3.71,3.45,3.76,3.50,-3.50,-3.65,-3.31,0.20,0.26,0.26
147.78,3.69,3.50,3.72,3.53,-3.53,-3.69,-3.29,0.15,0.19,0.19
149.26,3.69,3.57,3.68,3.56,-3.56,-3.72,-3.28,0.13,0.12,0.12
150.75,3.62,3.57,3.63,3.58,-3.58,-3.76,-3.27,0.04,0.05,0.04
152.26,3.49,3.50,3.59,3.61,-3.61,-3.79,-3.26,-0.12,-0.02,-0.02
153.78,3.43,3.51,3.56,3.64,-3.64,-3.82,-3.25,-0.21,-0.09,-0.08
155.32,3.53,3.67,3.51,3.66,-3.66,-3.85,-3.24,-0.13,-0.15,-0.14
156.88,3.59,3.80,3.46,3.68,-3.68,-3.88,-3.23,-0.10,-0.22,-0.22
158.44,3.46,3.74,3.41,3.70,-3.70,-3.91,-3.22,-0.25,-0.29,-0.29
160.03,3.36,3.72,3.37,3.73,-3.73,-3.94,-3.21,-0.37,-0.36,-0.36
161.63,3.29,3.71,3.32,3.76,-3.76,-3.96,-3.21,-0.47,-0.43,-0.43
163.24,3.33,3.83,3.28,3.78,-3.78,-3.99,-3.21,-0.45,-0.50,-0.51
164.88,3.26,3.83,3.22,3.80,-3.80,-4.01,-3.21,-0.54,-0.57,-0.57
166.53,3.20,3.84,3.17,3.81,-3.81,-4.04,-3.21,-0.62,-0.64,-0.65
168.19,3.13,3.84,3.12,3.84,-3.84,-4.06,-3.22,-0.71,-0.71,-0.71
169.87,3.08,3.86,3.07,3.85,-3.85,-4.08,-3.23,-0.78,-0.78,-0.78
171.57,2.99,3.84,3.01,3.86,-3.86,-4.10,-3.24,-0.87,-0.85,-0.85
173.29,2.95,3.87,2.94,3.86,-3.86,-4.12,-3.25,-0.91,-0.92,-0.92
175.02,2.88,3.86,2.89,3.88,-3.88,-4.13,-3.26,-1.00,-0.98,-0.98
176.77,2.82,3.87,2.86,3.91,-3.91,-4.15,-3.28,-1.09,-1.05,-1.05
178.54,2.77,3.88,2.82,3.93,-3.93,-4.16,-3.30,-1.16,-1.11,-1.12
180.32,2.76,3.94,2.77,3.94,-3.94,-4.18,-3.33,-1.19,-1.17,-1.18
182.13,2.75,3.98,2.73,3.96,-3.96,-4.19,-3.35,-1.22,-1.23,-1.23
183.95,2.71,3.99,2.71,4.00,-4.00,-4.20,-3.38,-1.29,-1.29,-1.29
185.79,2.67,4.01,2.68,4.02,-4.02,-4.21,-3.41,-1.36,-1.35,-1.35
187.65,2.61,4.00,2.65,4.05,-4.05,-4.21,-3.44,-1.45,-1.40,-1.40
189.52,2.62,4.07,2.63,4.09,-4.09,-4.22,-3.48,-1.47,-1.45,-1.46
191.42,2.66,4.15,2.61,4.11,-4.11,-4.22,-3.52,-1.46,-1.51,-1.50
193.33,2.68,4.23,2.58,4.13,-4.13,-4.23,-3.56,-1.46,-1.56,-1.55
195.27,2.53,4.13,2.54,4.14,-4.14,-4.23,-3.60,-1.62,-1.61,-1.61
197.22,2.43,4.09,2.50,4.16,-4.16,-4.23,-3.64,-1.73,-1.66,-1.66
199.19,2.49,4.19,2.47,4.17,-4.17,-4.23,-3.69,-1.69,-1.70,-1.71
201.18,2.54,4.29,2.42,4.18,-4.18,-4.23,-3.73,-1.64,-1.75,-1.76
203.19,2.40,4.20,2.37,4.17,-4.17,-4.22,-3.78,-1.78,-1.80,-1.80
205.23,2.29,4.13,2.32,4.16,-4.16,-4.22,-3.83,-1.88,-1.85,-1.84
207.28,2.32,4.20,2.28,4.17,-4.17,-4.21,-3.88,-1.85,-1.89,-1.88
209.35,2.24,4.17,2.23,4.17,-4.17,-4.21,-3.93,-1.93,-1.94,-1.93
211.44,2.07,4.04,2.17,4.15,-4.15,-4.20,-3.98,-2.09,-1.98,-1.98
213.56,2.05,4.06,2.11,4.14,-4.14,-4.19,-4.03,-2.09,-2.02,-2.02
215.69,2.08,4.14,2.07,4.13,-4.13,-4.18,-4.08,-2.05,-2.06,-2.06
217.85,2.13,4.22,2.03,4.13,-4.13,-4.17,-4.13,-2.01,-2.10,-2.10
220.03,1.95,4.10,1.98,4.12,-4.12,-4.15,-4.17,-2.17,-2.14,-2.15
222.23,1.85,4.03,1.92,4.10,-4.10,-4.14,-4.22,-2.25,-2.18,-2.19
224.45,1.86,4.07,1.87,4.08,-4.08,-4.12,-4.26,-2.23,-2.21,-2.22
226.70,1.91,4.16,1.84,4.08,-4.08,-4.11,-4.30,-2.18,-2.24,-2.25
228.96,1.93,4.20,1.81,4.08,-4.08,-4.09,-4.34,-2.15,-2.27,-2.27
231.25,1.72,4.01,1.77,4.06,-4.06,-4.07,-4.37,-2.35,-2.29,-2.29
233.57,1.64,3.96,1.73,4.05,-4.05,-4.05,-4.40,-2.41,-2.32,-2.32
235.90,1.73,4.07,1.70,4.04,-4.04,-4.03,-4.43,-2.31,-2.34,-2.34
238.26,1.75,4.11,1.67,4.03,-4.03,-4.01,-4.45,-2.28,-2.35,-2.36
240.64,1.60,3.96,1.64,4.01,-4.01,-3.99,-4.46,-2.41,-2.37,-2.36
243.05,1.52,3.89,1.61,3.99,-3.99,-3.97,-4.47,-2.47,-2.38,-2.38
245.48,1.55,3.94,1.58,3.97,-3.97,-3.94,-4.48,-2.43,-2.39,-2.39
247.93,1.61,4.02,1.55,3.96,-3.96,-3.92,-4.48,-2.35,-2.40,-2.41
250.41,1.62,4.02,1.52,3.94,-3.94,-3.89,-4.47,-2.32,-2.41,-2.41
252.92,1.45,3.86,1.49,3.91,-3.91,-3.87,-4.46,-2.47,-2.42,-2.41
255.45,1.42,3.85,1.46,3.89,-3.89,-3.84,-4.44,-2.48,-2.44,-2.44
258.00,1.46,3.90,1.43,3.88,-3.88,-3.81,-4.41,-2.42,-2.45,-2.44
260.58,1.51,3.96,1.39,3.86,-3.86,-3.78,-4.38,-2.35,-2.46,-2.45
263.19,1.42,3.88,1.35,3.83,-3.83,-3.75,-4.35,-2.41,-2.48,-2.47
265.82,1.23,3.72,1.32,3.81,-3.81,-3.73,-4.31,-2.58,-2.49,-2.49
268.48,1.21,3.71,1.28,3.79,-3.79,-3.70,-4.26,-2.58,-2.51,-2.50
271.16,1.24,3.76,1.24,3.76,-3.76,-3.67,-4.21,-2.53,-2.52,-2.52
273.87,1.29,3.82,1.20,3.74,-3.74,-3.63,-4.16,-2.45,-2.54,-2.53
276.61,1.16,3.71,1.16,3.71,-3.71,-3.60,-4.10,-2.56,-2.55,-2.56
279.38,1.03,3.61,1.12,3.68,-3.68,-3.57,-4.04,-2.66,-2.57,-2.59
282.17,1.04,3.62,1.08,3.66,-3.66,-3.54,-3.98,-2.62,-2.58,-2.59
284.99,1.08,3.67,1.04,3.63,-3.63,-3.51,-3.92,-2.55,-2.59,-2.60
287.84,1.04,3.63,1.00,3.60,-3.60,-3.48,-3.85,-2.56,-2.60,-2.60
290.72,0.98,3.59,0.96,3.57,-3.57,-3.44,-3.78,-2.59,-2.60,-2.61
293.63,0.89,3.50,0.93,3.54,-3.54,-3.41,-3.71,-2.65,-2.61,-2.61
296.57,0.92,3.53,0.89,3.51,-3.51,-3.38,-3.64,-2.60,-2.62,-2.61
299.53,0.96,3.58,0.85,3.47,-3.47,-3.34,-3.57,-2.52,-2.62,-2.62
302.53,0.81,3.42,0.81,3.44,-3.44,-3.31,-3.50,-2.63,-2.63,-2.62
305.55,0.69,3.31,0.78,3.41,-3.41,-3.27,-3.42,-2.72,-2.63,-2.63
308.61,0.70,3.32,0.76,3.39,-3.39,-3.24,-3.35,-2.69,-2.63,-2.62
311.69,0.75,3.39,0.72,3.35,-3.35,-3.21,-3.28,-2.61,-2.64,-2.64
314.81,0.74,3.37,0.67,3.31,-3.31,-3.17,-3.21,-2.57,-2.64,-2.64
317.96,0.60,3.25,0.62,3.27,-3.27,-3.14,-3.14,-2.67,-2.65,-2.65
321.14,0.52,3.17,0.58,3.23,-3.23,-3.10,-3.08,-2.72,-2.65,-2.65
324.35,0.54,3.19,0.54,3.20,-3.20,-3.07,-3.01,-2.66,-2.65,-2.66
327.59,0.55,3.20,0.51,3.16,-3.16,-3.03,-2.95,-2.62,-2.66,-2.65
330.87,0.54,3.19,0.46,3.12,-3.12,-3.00,-2.88,-2.58,-2.66,-2.66
334.18,0.47,3.14,0.41,3.07,-3.07,-2.97,-2.82,-2.61,-2.66,-2.67
337.52,0.42,3.08,0.38,3.05,-3.05,-2.93,-2.76,-2.63,-2.67,-2.67
340.90,0.24,2.91,0.34,3.01,-3.01,-2.90,-2.70,-2.77,-2.67,-2.67
344.30,0.17,2.83,0.29,2.96,-2.96,-2.86,-2.65,-2.79,-2.67,-2.67
347.75,0.27,2.93,0.24,2.91,-2.91,-2.83,-2.60,-2.64,-2.66,-2.66
351.23,0.29,2.96,0.20,2.86,-2.86,-2.80,-2.54,-2.58,-2.66,-2.68
354.74,0.18,2.84,0.17,2.83,-2.83,-2.76,-2.49,-2.65,-2.66,-2.66
358.28,0.14,2.80,0.13,2.79,-2.79,-2.73,-2.45,-2.65,-2.66,-2.66
361.87,0.06,2.71,0.09,2.74,-2.74,-2.69,-2.40,-2.69,-2.66,-2.66
365.49,-0.01,2.64,0.05,2.70,-2.70,-2.66,-2.35,-2.71,-2.65,-2.65
369.14,0.08,2.72,0.02,2.67,-2.67,-2.63,-2.31,-2.59,-2.65,-2.65
372.83,0.07,2.71,-0.01,2.64,-2.64,-2.59,-2.27,-2.57,-2.65,-2.64
376.56,-0.13,2.51,-0.04,2.60,-2.60,-2.56,-2.23,-2.74,-2.65,-2.64
380.33,-0.14,2.50,-0.07,2.57,-2.57,-2.53,-2.20,-2.72,-2.65,-2.65
384.13,-0.12,2.51,-0.10,2.54,-2.54,-2.50,-2.16,-2.67,-2.65,-2.64
387.97,-0.10,2.54,-0.15,2.51,-2.51,-2.46,-2.13,-2.61,-2.65,-2.64
391.85,-0.11,2.53,-0.19,2.47,-2.47,-2.43,-2.10,-2.58,-2.65,-2.64
395.77,-0.18,2.47,-0.23,2.43,-2.43,-2.40,-2.07,-2.62,-2.66,-2.66
399.73,-0.25,2.41,-0.27,2.39,-2.39,-2.37,-2.04,-2.64,-2.67,-2.66
403.72,-0.29,2.36,-0.32,2.35,-2.35,-2.33,-2.01,-2.65,-2.67,-2.65
407.76,-0.31,2.36,-0.36,2.32,-2.32,-2.30,-1.98,-2.63,-2.68,-2.68
411.84,-0.45,2.22,-0.40,2.28,-2.28,-2.27,-1.96,-2.73,-2.68,-2.68
415.96,-0.44,2.24,-0.43,2.25,-2.25,-2.24,-1.94,-2.69,-2.68,-2.68
420.12,-0.41,2.28,-0.46,2.22,-2.22,-2.21,-1.91,-2.64,-2.68,-2.69
424.32,-0.48,2.20,-0.48,2.19,-2.19,-2.18,-1.89,-2.68,-2.67,-2.68
428.56,-0.62,2.04,-0.51,2.15,-2.15,-2.15,-1.87,-2.78,-2.66,-2.67
432.85,-0.66,1.98,-0.53,2.11,-2.11,-2.12,-1.85,-2.77,-2.64,-2.65
437.18,-0.57,2.07,-0.54,2.07,-2.07,-2.09,-1.83,-2.64,-2.62,-2.64
441.55,-0.52,2.08,-0.54,2.04,-2.04,-2.06,-1.82,-2.57,-2.58,-2.60
445.96,-0.47,2.09,-0.53,2.02,-2.02,-2.03,-1.80,-2.49,-2.55,-2.56
450.42,-0.45,2.07,-0.51,2.00,-2.00,-2.00,-1.78,-2.45,-2.51,-2.53
454.93,-0.46,2.01,-0.49,1.97,-1.97,-1.97,-1.76,-2.44,-2.46,-2.48
459.48,-0.47,1.94,-0.47,1.94,-1.94,-1.94,-1.75,-2.42,-2.41,-2.42
464.07,-0.44,1.91,-0.46,1.90,-1.90,-1.91,-1.73,-2.34,-2.36,-2.35
468.71,-0.45,1.85,-0.43,1.87,-1.87,-1.88,-1.71,-2.32,-2.30,-2.30
473.40,-0.53,1.71,-0.40,1.85,-1.85,-1.85,-1.70,-2.39,-2.25,-2.24
478.13,-0.41,1.77,-0.37,1.82,-1.82,-1.82,-1.68,-2.24,-2.20,-2.18
482.91,-0.24,1.89,-0.36,1.78,-1.78,-1.79,-1.66,-2.03,-2.15,-2.14
487.74,-0.27,1.82,-0.36,1.74,-1.74,-1.76,-1.64,-2.01,-2.10,-2.10
492.62,-0.33,1.72,-0.37,1.70,-1.70,-1.73,-1.62,-2.03,-2.06,-2.06
497.55,-0.33,1.68,-0.37,1.66,-1.66,-1.70,-1.60,-1.99,-2.03,-2.02
502.52,-0.46,1.54,-0.37,1.63,-1.63,-1.67,-1.59,-2.10,-2.00,-2.00
507.55,-0.47,1.50,-0.39,1.60,-1.60,-1.64,-1.57,-2.07,-1.98,-1.97
512.62,-0.38,1.58,-0.42,1.56,-1.56,-1.62,-1.55,-1.94,-1.97,-1.96
517.75,-0.28,1.67,-0.45,1.52,-1.52,-1.59,-1.52,-1.81,-1.97,-1.95
