frequency,raw,error,smoothed,error_smoothed,equalization,parametric_eq,fixed_band_eq,equalized_raw,equalized_smoothed,target
20.00,-11.97,-18.79,-11.94,-18.79,18.79,19.66,7.55,6.82,6.84,6.82
20.20,-11.83,-18.70,-11.82,-18.70,18.70,19.53,7.71,6.87,6.88,6.86
20.40,-11.70,-18.61,-11.70,-18.62,18.62,19.40,7.88,6.92,6.92,6.91
20.61,-11.56,-18.51,-11.58,-18.53,18.53,19.26,8.05,6.96,6.95,6.94
20.81,-11.42,-18.41,-11.46,-18.44,18.44,19.12,8.23,7.02,6.98,6.99
21.02,-11.29,-18.32,-11.34,-18.34,18.34,18.97,8.40,7.05,7.01,7.03
21.23,-11.19,-18.24,-11.22,-18.25,18.25,18.82,8.59,7.06,7.03,7.05
21.44,-11.10,-18.17,-11.10,-18.15,18.15,18.67,8.78,7.05,7.05,7.07
21.66,-11.00,-18.09,-10.98,-18.05,18.05,18.51,8.97,7.05,7.07,7.09
21.87,-10.91,-18.01,-10.86,-17.95,17.95,18.36,9.17,7.04,7.09,7.10
22.09,-10.79,-17.91,-10.74,-17.85,17.85,18.20,9.37,7.06,7.11,7.12
22.31,-10.65,-17.78,-10.62,-17.74,17.74,18.05,9.58,7.09,7.12,7.13
22.54,-10.51,-17.64,-10.51,-17.63,17.63,17.90,9.80,7.12,7.13,7.13
22.76,-10.37,-17.50,-10.39,-17.52,17.52,17.75,10.02,7.15,7.13,7.13
22.99,-10.23,-17.35,-10.27,-17.40,17.40,17.60,10.25,7.17,7.13,7.12
23.22,-10.12,-17.24,-10.15,-17.28,17.28,17.45,10.48,7.16,7.13,7.12
23.45,-10.02,-17.14,-10.04,-17.17,17.17,17.31,10.72,7.15,7.13,7.12
23.69,-9.92,-17.05,-9.92,-17.05,17.05,17.17,10.97,7.13,7.13,7.12
23.92,-9.82,-16.94,-9.80,-16.94,16.94,17.03,11.22,7.11,7.13,7.12
24.16,-9.71,-16.84,-9.69,-16.82,16.82,16.89,11.48,7.11,7.13,7.13
24.40,-9.58,-16.72,-9.58,-16.71,16.71,16.76,11.75,7.13,7.13,7.14
24.65,-9.46,-16.59,-9.47,-16.60,16.60,16.62,12.03,7.14,7.13,7.13
24.89,-9.33,-16.46,-9.37,-16.50,16.50,16.50,12.31,7.17,7.13,7.13
25.14,-9.23,-16.36,-9.26,-16.39,16.39,16.37,12.60,7.16,7.13,7.13
25.39,-9.14,-16.28,-9.15,-16.28,16.28,16.25,12.90,7.14,7.13,7.14
25.65,-9.06,-16.20,-9.04,-16.17,16.17,16.13,13.21,7.11,7.13,7.14
25.91,-8.97,-16.10,-8.93,-16.06,16.06,16.01,13.52,7.09,7.13,7.13
26.16,-8.85,-15.97,-8.81,-15.94,15.94,15.90,13.85,7.09,7.13,7.13
26.43,-8.72,-15.85,-8.69,-15.82,15.82,15.78,14.17,7.10,7.13,7.12
26.69,-8.58,-15.70,-8.58,-15.70,15.70,15.67,14.51,7.12,7.13,7.12
26.96,-8.44,-15.57,-8.46,-15.58,15.58,15.56,14.85,7.14,7.12,7.13
27.23,-8.32,-15.45,-8.34,-15.46,15.46,15.46,15.20,7.14,7.12,7.13
27.50,-8.21,-15.34,-8.22,-15.34,15.34,15.35,15.55,7.12,7.12,7.13
27.77,-8.09,-15.21,-8.09,-15.21,15.21,15.25,15.90,7.12,7.12,7.12
28.05,-7.98,-15.10,-7.97,-15.09,15.09,15.15,16.25,7.11,7.12,7.12
28.33,-7.85,-14.95,-7.86,-14.97,14.97,15.05,16.60,7.12,7.11,7.10
28.62,-7.73,-14.84,-7.74,-14.85,14.85,14.95,16.94,7.12,7.11,7.10
28.90,-7.60,-14.71,-7.63,-14.74,14.74,14.86,17.27,7.14,7.11,7.11
29.19,-7.49,-14.59,-7.52,-14.63,14.63,14.76,17.59,7.14,7.11,7.10
29.48,-7.38,-14.50,-7.41,-14.52,14.52,14.66,17.88,7.14,7.11,7.12
29.78,-7.28,-14.39,-7.30,-14.41,14.41,14.57,18.14,7.12,7.10,7.10
30.08,-7.18,-14.30,-7.19,-14.29,14.29,14.47,18.36,7.11,7.10,7.11
30.38,-7.09,-14.19,-7.07,-14.17,14.17,14.38,18.54,7.08,7.10,7.10
30.68,-7.00,-14.10,-6.96,-14.06,14.06,14.29,18.68,7.06,7.10,7.10
30.99,-6.91,-14.01,-6.85,-13.94,13.94,14.19,18.76,7.03,7.10,7.10
31.30,-6.78,-13.88,-6.73,-13.83,13.83,14.10,18.78,7.04,7.09,7.09
31.61,-6.63,-13.72,-6.62,-13.71,13.71,14.00,18.75,7.08,7.09,7.09
31.93,-6.49,-13.58,-6.50,-13.59,13.59,13.90,18.66,7.10,7.09,7.09
32.24,-6.36,-13.44,-6.39,-13.47,13.47,13.81,18.52,7.11,7.08,7.08
32.57,-6.24,-13.33,-6.27,-13.35,13.35,13.71,18.33,7.11,7.08,7.08
32.89,-6.11,-13.19,-6.16,-13.23,13.23,13.61,18.10,7.12,7.07,7.08
33.22,-6.01,-13.08,-6.05,-13.12,13.12,13.51,17.84,7.10,7.07,7.07
33.55,-5.92,-12.98,-5.93,-13.00,13.00,13.41,17.56,7.08,7.06,7.06
33.89,-5.83,-12.88,-5.82,-12.88,12.88,13.30,17.25,7.05,7.06,7.05
34.23,-5.72,-12.78,-5.71,-12.76,12.76,13.20,16.93,7.04,7.05,7.06
34.57,-5.60,-12.65,-5.59,-12.64,12.64,13.09,16.60,7.04,7.05,7.04
34.92,-5.49,-12.53,-5.48,-12.53,12.53,12.98,16.26,7.03,7.04,7.04
35.27,-5.39,-12.43,-5.38,-12.41,12.41,12.87,15.93,7.02,7.04,7.04
35.62,-5.30,-12.33,-5.27,-12.30,12.30,12.76,15.59,7.00,7.03,7.03
35.97,-5.21,-12.24,-5.16,-12.19,12.19,12.65,15.26,6.98,7.03,7.03
36.33,-5.07,-12.10,-5.06,-12.08,12.08,12.53,14.93,7.01,7.03,7.03
36.70,-4.93,-11.95,-4.95,-11.98,11.98,12.42,14.60,7.04,7.03,7.02
37.06,-4.80,-11.82,-4.84,-11.87,11.87,12.30,14.28,7.07,7.03,7.02
37.43,-4.69,-11.72,-4.73,-11.76,11.76,12.18,13.97,7.07,7.03,7.03
37.81,-4.58,-11.61,-4.63,-11.65,11.65,12.05,13.67,7.07,7.02,7.03
38.19,-4.49,-11.51,-4.52,-11.54,11.54,11.93,13.38,7.05,7.02,7.02
38.57,-4.42,-11.45,-4.41,-11.43,11.43,11.80,13.09,7.01,7.02,7.02
38.95,-4.34,-11.37,-4.30,-11.32,11.32,11.68,12.81,6.98,7.02,7.03
39.34,-4.23,-11.25,-4.19,-11.22,11.22,11.55,12.54,6.99,7.02,7.02
39.74,-4.12,-11.14,-4.09,-11.11,11.11,11.42,12.28,6.99,7.02,7.02
40.14,-4.00,-11.02,-3.98,-11.00,11.00,11.28,12.03,7.00,7.02,7.02
40.54,-3.89,-10.91,-3.88,-10.89,10.89,11.15,11.78,7.00,7.01,7.01
40.94,-3.78,-10.79,-3.78,-10.79,10.79,11.02,11.54,7.01,7.01,7.01
41.35,-3.65,-10.65,-3.68,-10.69,10.69,10.88,11.31,7.04,7.00,7.00
41.76,-3.53,-10.52,-3.58,-10.58,10.58,10.75,11.09,7.05,6.99,6.99
42.18,-3.44,-10.44,-3.49,-10.47,10.47,10.61,10.87,7.03,6.99,7.00
42.60,-3.39,-10.37,-3.39,-10.36,10.36,10.47,10.66,6.97,6.97,6.98
43.03,-3.34,-10.31,-3.29,-10.25,10.25,10.34,10.46,6.91,6.96,6.97
43.46,-3.20,-10.16,-3.20,-10.15,10.15,10.20,10.26,6.95,6.95,6.96
43.90,-3.06,-10.00,-3.11,-10.05,10.05,10.06,10.07,6.98,6.93,6.93
44.33,-3.01,-9.93,-3.03,-9.95,9.95,9.92,9.89,6.94,6.92,6.91
44.78,-2.98,-9.88,-2.95,-9.86,9.86,9.78,9.71,6.88,6.91,6.90
45.23,-2.90,-9.79,-2.87,-9.76,9.76,9.64,9.53,6.86,6.89,6.89
45.68,-2.78,-9.65,-2.79,-9.66,9.66,9.51,9.37,6.88,6.87,6.87
46.13,-2.68,-9.53,-2.70,-9.56,9.56,9.37,9.21,6.88,6.86,6.84
46.60,-2.60,-9.45,-2.61,-9.45,9.45,9.23,9.05,6.85,6.84,6.84
47.06,-2.53,-9.35,-2.51,-9.33,9.33,9.09,8.90,6.80,6.82,6.82
47.53,-2.43,-9.24,-2.41,-9.22,9.22,8.96,8.75,6.79,6.81,6.81
48.01,-2.33,-9.14,-2.31,-9.11,9.11,8.82,8.61,6.77,6.79,6.81
48.49,-2.26,-9.05,-2.22,-8.99,8.99,8.69,8.47,6.73,6.78,6.79
48.97,-2.18,-8.94,-2.12,-8.88,8.88,8.55,8.34,6.70,6.76,6.76
49.46,-2.02,-8.76,-2.02,-8.76,8.76,8.42,8.21,6.74,6.74,6.74
49.96,-1.85,-8.57,-1.92,-8.65,8.65,8.29,8.08,6.80,6.73,6.72
50.46,-1.77,-8.48,-1.82,-8.53,8.53,8.15,7.96,6.76,6.71,6.71
50.96,-1.70,-8.40,-1.73,-8.43,8.43,8.02,7.84,6.72,6.70,6.70
51.47,-1.62,-8.29,-1.64,-8.32,8.32,7.90,7.73,6.70,6.68,6.67
51.99,-1.54,-8.20,-1.55,-8.21,8.21,7.77,7.61,6.67,6.67,6.66
52.51,-1.46,-8.11,-1.46,-8.12,8.12,7.64,7.50,6.65,6.65,6.65
53.03,-1.38,-8.02,-1.39,-8.02,8.02,7.52,7.40,6.64,6.63,6.64
53.56,-1.30,-7.93,-1.31,-7.93,7.93,7.39,7.29,6.63,6.62,6.62
54.10,-1.22,-7.83,-1.23,-7.83,7.83,7.27,7.19,6.61,6.61,6.61
54.64,-1.14,-7.73,-1.15,-7.74,7.74,7.15,7.09,6.60,6.59,6.59
55.18,-1.06,-7.64,-1.08,-7.65,7.65,7.03,6.99,6.59,6.58,6.58
55.74,-1.01,-7.57,-1.00,-7.56,7.56,6.91,6.90,6.55,6.56,6.56
56.29,-0.95,-7.50,-0.91,-7.46,7.46,6.79,6.80,6.50,6.55,6.55
56.86,-0.86,-7.39,-0.82,-7.35,7.35,6.68,6.71,6.48,6.53,6.53
57.42,-0.77,-7.26,-0.73,-7.23,7.23,6.56,6.61,6.46,6.51,6.49
58.00,-0.67,-7.15,-0.63,-7.12,7.12,6.45,6.52,6.44,6.48,6.48
58.58,-0.54,-7.01,-0.54,-6.99,6.99,6.34,6.43,6.45,6.46,6.47
59.16,-0.42,-6.86,-0.44,-6.87,6.87,6.23,6.34,6.45,6.43,6.44
59.76,-0.30,-6.72,-0.34,-6.74,6.74,6.12,6.24,6.44,6.40,6.42
60.35,-0.21,-6.58,-0.25,-6.61,6.61,6.02,6.15,6.40,6.36,6.37
60.96,-0.14,-6.48,-0.15,-6.47,6.47,5.91,6.06,6.33,6.32,6.33
61.57,-0.04,-6.33,-0.05,-6.33,6.33,5.81,5.97,6.29,6.28,6.29
62.18,0.05,-6.19,0.05,-6.19,6.19,5.71,5.87,6.24,6.24,6.24
62.80,0.16,-6.03,0.14,-6.06,6.06,5.61,5.78,6.22,6.19,6.19
63.43,0.22,-5.92,0.22,-5.93,5.93,5.51,5.68,6.14,6.15,6.14
64.07,0.28,-5.81,0.30,-5.79,5.79,5.41,5.59,6.07,6.10,6.09
64.71,0.38,-5.66,0.38,-5.66,5.66,5.32,5.49,6.04,6.05,6.04
65.35,0.47,-5.52,0.46,-5.54,5.54,5.22,5.40,6.01,5.99,5.99
66.01,0.53,-5.41,0.53,-5.42,5.42,5.13,5.30,5.94,5.94,5.94
66.67,0.62,-5.27,0.60,-5.29,5.29,5.04,5.20,5.91,5.89,5.89
67.33,0.68,-5.15,0.66,-5.17,5.17,4.95,5.11,5.85,5.83,5.83
68.01,0.71,-5.08,0.73,-5.05,5.05,4.86,5.01,5.75,5.78,5.78
68.69,0.75,-4.98,0.80,-4.93,4.93,4.77,4.91,5.68,5.72,5.73
69.37,0.85,-4.82,0.85,-4.81,4.81,4.69,4.81,5.66,5.67,5.67
70.07,0.97,-4.64,0.91,-4.70,4.70,4.61,4.71,5.67,5.61,5.61
70.77,0.97,-4.59,0.96,-4.58,4.58,4.52,4.61,5.55,5.55,5.56
71.48,1.01,-4.49,1.02,-4.47,4.47,4.44,4.51,5.47,5.49,5.50
72.19,1.08,-4.35,1.07,-4.35,4.35,4.36,4.41,5.43,5.42,5.42
72.91,1.13,-4.23,1.13,-4.23,4.23,4.28,4.32,5.36,5.36,5.36
73.64,1.19,-4.11,1.19,-4.11,4.11,4.21,4.22,5.30,5.30,5.30
74.38,1.24,-3.99,1.24,-4.00,4.00,4.13,4.12,5.23,5.23,5.23
75.12,1.28,-3.89,1.29,-3.88,3.88,4.06,4.03,5.16,5.17,5.17
75.87,1.28,-3.82,1.33,-3.78,3.78,3.99,3.93,5.06,5.11,5.10
76.63,1.34,-3.70,1.37,-3.68,3.68,3.91,3.84,5.01,5.05,5.04
77.40,1.42,-3.56,1.41,-3.58,3.58,3.84,3.74,5.00,4.99,4.98
78.17,1.50,-3.41,1.45,-3.48,3.48,3.77,3.65,4.98,4.93,4.91
78.95,1.57,-3.30,1.49,-3.37,3.37,3.71,3.56,4.94,4.87,4.87
79.74,1.58,-3.23,1.54,-3.27,3.27,3.64,3.47,4.85,4.81,4.81
80.54,1.58,-3.18,1.58,-3.17,3.17,3.57,3.38,4.75,4.75,4.76
81.35,1.58,-3.11,1.62,-3.08,3.08,3.51,3.29,4.66,4.70,4.69
82.16,1.59,-3.05,1.66,-2.98,2.98,3.45,3.20,4.57,4.64,4.64
82.98,1.62,-2.97,1.69,-2.89,2.89,3.39,3.11,4.51,4.58,4.59
83.81,1.68,-2.85,1.72,-2.80,2.80,3.33,3.03,4.48,4.53,4.53
84.65,1.75,-2.72,1.75,-2.72,2.72,3.27,2.94,4.47,4.47,4.47
85.50,1.83,-2.59,1.78,-2.63,2.63,3.21,2.86,4.46,4.41,4.42
86.35,1.89,-2.47,1.81,-2.55,2.55,3.15,2.78,4.44,4.36,4.36
87.22,1.91,-2.39,1.83,-2.46,2.46,3.09,2.70,4.37,4.30,4.30
88.09,1.88,-2.36,1.86,-2.38,2.38,3.04,2.62,4.26,4.24,4.24
88.97,1.88,-2.30,1.89,-2.29,2.29,2.99,2.54,4.17,4.18,4.18
89.86,1.88,-2.24,1.91,-2.20,2.20,2.93,2.46,4.08,4.12,4.12
90.76,1.89,-2.17,1.94,-2.12,2.12,2.88,2.39,4.01,4.06,4.06
91.66,1.89,-2.11,1.95,-2.05,2.05,2.83,2.31,3.94,4.00,4.00
92.58,1.92,-2.01,1.96,-1.98,1.98,2.78,2.24,3.90,3.94,3.93
93.51,2.00,-1.88,1.97,-1.91,1.91,2.73,2.17,3.91,3.88,3.87
94.44,2.03,-1.79,1.98,-1.84,1.84,2.68,2.09,3.87,3.82,3.82
95.39,1.99,-1.78,1.98,-1.78,1.78,2.64,2.02,3.77,3.76,3.76
96.34,1.98,-1.72,1.97,-1.73,1.73,2.59,1.95,3.71,3.70,3.70
97.30,1.98,-1.66,1.97,-1.68,1.68,2.54,1.89,3.66,3.64,3.64
98.28,1.97,-1.62,1.96,-1.63,1.63,2.50,1.82,3.60,3.59,3.59
99.26,1.95,-1.58,1.94,-1.59,1.59,2.46,1.75,3.53,3.53,3.53
100.25,1.94,-1.53,1.92,-1.55,1.55,2.41,1.69,3.49,3.47,3.47
101.25,1.92,-1.50,1.90,-1.52,1.52,2.37,1.62,3.43,3.41,3.41
102.27,1.90,-1.46,1.87,-1.49,1.49,2.33,1.56,3.39,3.36,3.36
103.29,1.88,-1.41,1.84,-1.46,1.46,2.29,1.50,3.34,3.30,3.29
104.32,1.81,-1.43,1.81,-1.43,1.43,2.25,1.44,3.24,3.24,3.24
105.37,1.68,-1.51,1.78,-1.40,1.40,2.21,1.38,3.08,3.18,3.18
106.42,1.69,-1.44,1.75,-1.37,1.37,2.18,1.32,3.05,3.12,3.13
107.48,1.70,-1.36,1.71,-1.34,1.34,2.14,1.27,3.04,3.05,3.06
108.56,1.68,-1.31,1.67,-1.32,1.32,2.10,1.21,3.00,2.99,2.99
109.64,1.66,-1.27,1.65,-1.28,1.28,2.07,1.16,2.94,2.93,2.93
110.74,1.64,-1.23,1.62,-1.24,1.24,2.03,1.11,2.88,2.87,2.87
111.85,1.62,-1.20,1.61,-1.20,1.20,2.00,1.06,2.82,2.81,2.82
112.97,1.61,-1.13,1.60,-1.15,1.15,1.97,1.01,2.76,2.75,2.74
114.10,1.60,-1.09,1.58,-1.11,1.11,1.94,0.96,2.71,2.69,2.69
115.24,1.58,-1.05,1.56,-1.08,1.08,1.90,0.92,2.66,2.63,2.63
116.39,1.46,-1.10,1.53,-1.04,1.04,1.87,0.88,2.50,2.58,2.56
117.55,1.41,-1.11,1.52,-1.00,1.00,1.84,0.84,2.41,2.52,2.52
118.73,1.48,-0.98,1.51,-0.97,0.97,1.81,0.80,2.44,2.47,2.46
119.92,1.59,-0.84,1.49,-0.93,0.93,1.78,0.76,2.52,2.43,2.43
121.12,1.61,-0.77,1.47,-0.91,0.91,1.76,0.73,2.52,2.38,2.37
122.33,1.49,-0.84,1.45,-0.89,0.89,1.73,0.70,2.38,2.34,2.33
123.55,1.44,-0.86,1.42,-0.87,0.87,1.70,0.67,2.31,2.29,2.30
124.79,1.34,-0.92,1.40,-0.85,0.85,1.68,0.64,2.19,2.25,2.26
126.03,1.25,-0.97,1.39,-0.82,0.82,1.65,0.62,2.07,2.21,2.22
127.29,1.32,-0.87,1.37,-0.80,0.80,1.63,0.59,2.12,2.17,2.18
128.57,1.41,-0.73,1.35,-0.78,0.78,1.60,0.57,2.19,2.13,2.13
129.85,1.47,-0.63,1.32,-0.77,0.77,1.58,0.56,2.24,2.10,2.10
131.15,1.31,-0.75,1.28,-0.78,0.78,1.55,0.54,2.08,2.06,2.06
132.46,1.15,-0.87,1.25,-0.78,0.78,1.53,0.53,1.92,2.02,2.02
133.79,1.15,-0.83,1.22,-0.77,0.77,1.51,0.52,1.92,1.98,1.98
135.12,1.19,-0.75,1.19,-0.76,0.76,1.49,0.51,1.95,1.95,1.94
136.48,1.23,-0.68,1.17,-0.75,0.75,1.47,0.50,1.97,1.91,1.91
137.84,1.29,-0.58,1.14,-0.74,0.74,1.45,0.49,2.03,1.88,1.87
139.22,1.12,-0.71,1.10,-0.74,0.74,1.43,0.49,1.86,1.84,1.83
140.61,0.94,-0.84,1.06,-0.74,0.74,1.41,0.48,1.68,1.80,1.78
142.02,0.92,-0.84,1.02,-0.74,0.74,1.39,0.48,1.66,1.76,1.76
143.44,0.98,-0.74,0.99,-0.73,0.73,1.37,0.48,1.71,1.72,1.72
144.87,1.00,-0.67,0.97,-0.70,0.70,1.35,0.48,1.70,1.67,1.67
146.32,1.05,-0.58,0.95,-0.67,0.67,1.34,0.48,1.72,1.62,1.62
147.78,0.92,-0.67,0.92,-0.64,0.64,1.32,0.49,1.55,1.56,1.59
149.26,0.80,-0.73,0.89,-0.61,0.61,1.30,0.49,1.40,1.50,1.53
150.75,0.79,-0.67,0.86,-0.57,0.57,1.29,0.49,1.36,1.43,1.45
152.26,0.80,-0.58,0.83,-0.53,0.53,1.27,0.50,1.33,1.36,1.38
153.78,0.80,-0.51,0.81,-0.48,0.48,1.26,0.50,1.28,1.29,1.31
155.32,0.86,-0.37,0.79,-0.42,0.42,1.25,0.51,1.28,1.21,1.22
156.88,0.90,-0.24,0.76,-0.37,0.37,1.23,0.52,1.27,1.13,1.14
158.44,0.76,-0.29,0.72,-0.34,0.34,1.22,0.53,1.10,1.06,1.05
160.03,0.64,-0.32,0.66,-0.32,0.32,1.21,0.53,0.96,0.98,0.96
161.63,0.57,-0.32,0.62,-0.29,0.29,1.19,0.54,0.85,0.91,0.88
163.24,0.62,-0.20,0.59,-0.25,0.25,1.18,0.55,0.87,0.84,0.82
164.88,0.56,-0.20,0.55,-0.23,0.23,1.17,0.56,0.79,0.78,0.76
166.53,0.50,-0.21,0.51,-0.22,0.22,1.16,0.57,0.72,0.72,0.70
168.19,0.45,-0.21,0.45,-0.23,0.23,1.15,0.58,0.67,0.68,0.66
169.87,0.38,-0.24,0.40,-0.24,0.24,1.14,0.59,0.62,0.64,0.62
171.57,0.31,-0.28,0.35,-0.26,0.26,1.13,0.60,0.57,0.61,0.59
173.29,0.27,-0.30,0.30,-0.28,0.28,1.12,0.61,0.55,0.58,0.57
175.02,0.25,-0.31,0.26,-0.30,0.30,1.11,0.62,0.55,0.56,0.56
176.77,0.25,-0.29,0.24,-0.31,0.31,1.10,0.64,0.56,0.55,0.54
178.54,0.31,-0.22,0.20,-0.33,0.33,1.10,0.65,0.64,0.53,0.53
180.32,0.14,-0.39,0.17,-0.35,0.35,1.09,0.66,0.49,0.52,0.53
182.13,0.03,-0.50,0.13,-0.38,0.38,1.08,0.67,0.41,0.51,0.53
183.95,0.07,-0.45,0.10,-0.40,0.40,1.08,0.68,0.47,0.50,0.52
185.79,0.08,-0.43,0.06,-0.43,0.43,1.07,0.70,0.50,0.49,0.51
187.65,0.09,-0.40,0.03,-0.44,0.44,1.06,0.71,0.53,0.47,0.49
189.52,0.05,-0.42,0.00,-0.46,0.46,1.06,0.72,0.51,0.46,0.47
191.42,0.01,-0.44,-0.03,-0.47,0.47,1.05,0.73,0.48,0.44,0.45
193.33,-0.04,-0.47,-0.07,-0.49,0.49,1.05,0.75,0.45,0.42,0.42
195.27,-0.14,-0.54,-0.10,-0.51,0.51,1.05,0.76,0.36,0.40,0.40
197.22,-0.19,-0.57,-0.15,-0.53,0.53,1.04,0.77,0.33,0.38,0.38
199.19,-0.17,-0.52,-0.18,-0.54,0.54,1.04,0.79,0.37,0.36,0.35
201.18,-0.20,-0.53,-0.20,-0.53,0.53,1.04,0.80,0.33,0.33,0.33
203.19,-0.28,-0.59,-0.22,-0.53,0.53,1.03,0.82,0.25,0.31,0.31
205.23,-0.28,-0.56,-0.26,-0.54,0.54,1.03,0.83,0.26,0.28,0.28
207.28,-0.23,-0.50,-0.30,-0.56,0.56,1.03,0.84,0.33,0.26,0.27
209.35,-0.32,-0.56,-0.34,-0.57,0.57,1.03,0.86,0.25,0.24,0.24
211.44,-0.41,-0.62,-0.37,-0.59,0.59,1.03,0.87,0.18,0.22,0.21
213.56,-0.42,-0.62,-0.41,-0.61,0.61,1.03,0.89,0.19,0.20,0.20
215.69,-0.42,-0.60,-0.43,-0.61,0.61,1.03,0.90,0.19,0.18,0.18
217.85,-0.43,-0.60,-0.46,-0.62,0.62,1.03,0.92,0.19,0.17,0.17
220.03,-0.38,-0.53,-0.48,-0.64,0.64,1.03,0.93,0.26,0.15,0.15
222.23,-0.41,-0.54,-0.51,-0.66,0.66,1.03,0.94,0.25,0.15,0.13
224.45,-0.63,-0.77,-0.53,-0.67,0.67,1.03,0.96,0.04,0.14,0.13
226.70,-0.70,-0.83,-0.55,-0.69,0.69,1.03,0.97,-0.01,0.14,0.13
228.96,-0.63,-0.77,-0.58,-0.71,0.71,1.04,0.98,0.08,0.14,0.14
231.25,-0.62,-0.77,-0.60,-0.74,0.74,1.04,1.00,0.12,0.14,0.14
233.57,-0.61,-0.76,-0.61,-0.77,0.77,1.04,1.01,0.15,0.15,0.15
235.90,-0.56,-0.72,-0.62,-0.78,0.78,1.05,1.02,0.22,0.17,0.16
238.26,-0.54,-0.71,-0.62,-0.80,0.80,1.05,1.03,0.26,0.18,0.17
240.64,-0.64,-0.83,-0.63,-0.82,0.82,1.06,1.04,0.18,0.20,0.19
243.05,-0.65,-0.87,-0.64,-0.85,0.85,1.06,1.06,0.20,0.21,0.22
245.48,-0.64,-0.88,-0.65,-0.89,0.89,1.07,1.07,0.25,0.24,0.24
247.93,-0.64,-0.91,-0.66,-0.92,0.92,1.07,1.08,0.27,0.26,0.27
250.41,-0.74,-1.02,-0.66,-0.94,0.94,1.08,1.09,0.19,0.28,0.28
252.92,-0.71,-1.02,-0.67,-0.97,0.97,1.08,1.10,0.26,0.30,0.31
255.45,-0.65,-0.98,-0.69,-1.01,1.01,1.09,1.11,0.36,0.32,0.33
258.00,-0.59,-0.94,-0.72,-1.06,1.06,1.10,1.12,0.47,0.35,0.35
260.58,-0.65,-1.02,-0.75,-1.12,1.12,1.11,1.12,0.47,0.37,0.36
263.19,-0.75,-1.15,-0.77,-1.17,1.17,1.11,1.13,0.41,0.39,0.40
265.82,-0.90,-1.31,-0.80,-1.22,1.22,1.12,1.14,0.31,0.41,0.41
268.48,-0.90,-1.33,-0.82,-1.26,1.26,1.13,1.15,0.36,0.44,0.43
271.16,-0.86,-1.33,-0.85,-1.31,1.31,1.14,1.16,0.45,0.46,0.46
273.87,-0.79,-1.27,-0.87,-1.36,1.36,1.15,1.16,0.56,0.48,0.48
276.61,-0.82,-1.33,-0.89,-1.40,1.40,1.16,1.17,0.58,0.51,0.51
279.38,-0.93,-1.47,-0.90,-1.43,1.43,1.17,1.18,0.50,0.54,0.53
282.17,-0.96,-1.52,-0.90,-1.47,1.47,1.18,1.19,0.50,0.56,0.56
284.99,-0.99,-1.58,-0.91,-1.49,1.49,1.20,1.20,0.50,0.59,0.59
287.84,-0.97,-1.58,-0.90,-1.51,1.51,1.21,1.21,0.54,0.62,0.61
290.72,-0.83,-1.47,-0.87,-1.52,1.52,1.22,1.21,0.68,0.64,0.64
293.63,-0.93,-1.60,-0.84,-1.52,1.52,1.23,1.22,0.58,0.67,0.67
296.57,-0.84,-1.54,-0.82,-1.52,1.52,1.25,1.23,0.68,0.70,0.70
299.53,-0.80,-1.53,-0.80,-1.53,1.53,1.26,1.24,0.73,0.73,0.73
302.53,-0.78,-1.52,-0.79,-1.55,1.55,1.27,1.26,0.76,0.75,0.74
305.55,-0.70,-1.49,-0.79,-1.56,1.56,1.29,1.27,0.86,0.78,0.79
308.61,-0.66,-1.46,-0.77,-1.57,1.57,1.30,1.28,0.91,0.80,0.80
311.69,-0.71,-1.54,-0.76,-1.59,1.59,1.32,1.29,0.88,0.82,0.83
314.81,-0.74,-1.60,-0.77,-1.61,1.61,1.33,1.31,0.87,0.84,0.86
317.96,-0.75,-1.62,-0.78,-1.64,1.64,1.35,1.32,0.89,0.86,0.87
321.14,-0.76,-1.64,-0.80,-1.68,1.68,1.37,1.34,0.92,0.88,0.88
324.35,-0.83,-1.73,-0.82,-1.72,1.72,1.38,1.36,0.89,0.90,0.89
327.59,-0.89,-1.80,-0.84,-1.76,1.76,1.40,1.37,0.86,0.91,0.91
330.87,-0.94,-1.86,-0.88,-1.80,1.80,1.42,1.39,0.86,0.92,0.92
334.18,-0.96,-1.90,-0.91,-1.85,1.85,1.44,1.41,0.88,0.94,0.93
337.52,-0.96,-1.90,-0.95,-1.89,1.89,1.46,1.43,0.93,0.95,0.94
340.90,-0.96,-1.92,-0.98,-1.93,1.93,1.47,1.46,0.97,0.95,0.96
344.30,-0.98,-1.95,-1.01,-1.96,1.96,1.49,1.48,0.98,0.96,0.97
347.75,-1.04,-2.00,-1.03,-1.99,1.99,1.51,1.50,0.95,0.96,0.96
351.23,-1.06,-2.03,-1.05,-2.01,2.01,1.53,1.53,0.95,0.97,0.97
354.74,-1.06,-2.03,-1.07,-2.04,2.04,1.55,1.56,0.98,0.97,0.97
358.28,-1.05,-2.03,-1.08,-2.05,2.05,1.57,1.58,1.00,0.97,0.98
361.87,-1.09,-2.06,-1.08,-2.06,2.06,1.60,1.61,0.97,0.97,0.97
365.49,-1.13,-2.11,-1.09,-2.07,2.07,1.62,1.64,0.94,0.97,0.98
369.14,-1.14,-2.11,-1.11,-2.08,2.08,1.64,1.67,0.94,0.97,0.97
372.83,-1.13,-2.10,-1.13,-2.10,2.10,1.66,1.71,0.97,0.97,0.97
376.56,-1.12,-2.09,-1.15,-2.12,2.12,1.68,1.74,0.99,0.97,0.96
380.33,-1.14,-2.11,-1.17,-2.14,2.14,1.70,1.77,0.99,0.97,0.97
384.13,-1.19,-2.16,-1.19,-2.15,2.15,1.73,1.81,0.96,0.96,0.97
387.97,-1.20,-2.16,-1.22,-2.17,2.17,1.75,1.85,0.97,0.96,0.96
391.85,-1.20,-2.15,-1.25,-2.20,2.20,1.77,1.88,1.00,0.95,0.95
395.77,-1.21,-2.17,-1.28,-2.23,2.23,1.80,1.92,1.02,0.95,0.96
399.73,-1.32,-2.27,-1.32,-2.25,2.25,1.82,1.96,0.93,0.94,0.94
403.72,-1.39,-2.33,-1.35,-2.29,2.29,1.84,2.00,0.89,0.93,0.94
407.76,-1.40,-2.33,-1.39,-2.32,2.32,1.87,2.04,0.92,0.93,0.93
411.84,-1.41,-2.34,-1.43,-2.36,2.36,1.89,2.08,0.95,0.93,0.93
415.96,-1.48,-2.41,-1.47,-2.39,2.39,1.92,2.12,0.91,0.92,0.93
420.12,-1.51,-2.44,-1.50,-2.43,2.43,1.94,2.16,0.92,0.93,0.93
424.32,-1.50,-2.43,-1.53,-2.46,2.46,1.96,2.20,0.96,0.93,0.93
428.56,-1.56,-2.50,-1.56,-2.50,2.50,1.99,2.24,0.94,0.94,0.93
432.85,-1.59,-2.54,-1.57,-2.53,2.53,2.01,2.28,0.94,0.96,0.94
437.18,-1.55,-2.50,-1.58,-2.56,2.56,2.04,2.31,1.00,0.98,0.95
441.55,-1.59,-2.58,-1.56,-2.57,2.57,2.06,2.35,0.98,1.00,0.99
445.96,-1.60,-2.62,-1.53,-2.57,2.57,2.08,2.39,0.97,1.03,1.02
450.42,-1.53,-2.58,-1.49,-2.56,2.56,2.11,2.42,1.03,1.07,1.05
454.93,-1.46,-2.56,-1.44,-2.55,2.55,2.13,2.45,1.09,1.11,1.10
459.48,-1.42,-2.57,-1.38,-2.53,2.53,2.15,2.48,1.11,1.15,1.15
464.07,-1.38,-2.58,-1.31,-2.51,2.51,2.17,2.51,1.13,1.20,1.20
468.71,-1.30,-2.56,-1.23,-2.48,2.48,2.20,2.54,1.18,1.25,1.26
473.40,-1.18,-2.48,-1.15,-2.45,2.45,2.22,2.56,1.26,1.30,1.30
478.13,-1.03,-2.39,-1.06,-2.41,2.41,2.24,2.58,1.38,1.35,1.35
482.91,-0.91,-2.31,-0.98,-2.37,2.37,2.26,2.60,1.46,1.39,1.39
487.74,-0.83,-2.26,-0.91,-2.34,2.34,2.28,2.61,1.51,1.43,1.43
492.62,-0.76,-2.24,-0.83,-2.30,2.30,2.30,2.62,1.54,1.47,1.48
497.55,-0.72,-2.22,-0.77,-2.27,2.27,2.32,2.63,1.54,1.50,1.50
502.52,-0.69,-2.22,-0.72,-2.24,2.24,2.34,2.64,1.54,1.52,1.53
