frequency,raw,error,smoothed,error_smoothed,equalization,parametric_eq,fixed_band_eq,equalized_raw,equalized_smoothed,target
20.00,-16.22,-18.27,-16.22,-18.30,18.30,18.74,8.40,2.08,2.08,2.05
20.20,-16.16,-18.26,-16.16,-18.27,18.27,18.65,8.58,2.11,2.12,2.10
20.40,-16.10,-18.25,-16.10,-18.25,18.25,18.56,8.76,2.15,2.15,2.15
20.61,-16.04,-18.22,-16.04,-18.22,18.22,18.47,8.94,2.18,2.18,2.18
20.81,-15.98,-18.21,-15.98,-18.19,18.19,18.38,9.13,2.21,2.21,2.23
21.02,-15.91,-18.18,-15.92,-18.16,18.16,18.30,9.33,2.24,2.24,2.27
21.23,-15.85,-18.14,-15.86,-18.12,18.12,18.21,9.53,2.27,2.27,2.29
21.44,-15.79,-18.10,-15.80,-18.09,18.09,18.13,9.73,2.30,2.29,2.31
21.66,-15.72,-18.05,-15.74,-18.05,18.05,18.05,9.94,2.33,2.31,2.33
21.87,-15.66,-18.00,-15.68,-18.01,18.01,17.96,10.15,2.35,2.33,2.34
22.09,-15.60,-17.96,-15.63,-17.97,17.97,17.88,10.37,2.37,2.34,2.36
22.31,-15.57,-17.94,-15.57,-17.93,17.93,17.81,10.60,2.36,2.35,2.36
22.54,-15.53,-17.90,-15.52,-17.88,17.88,17.73,10.83,2.34,2.36,2.36
22.76,-15.49,-17.85,-15.46,-17.82,17.82,17.65,11.07,2.33,2.36,2.36
22.99,-15.45,-17.80,-15.41,-17.77,17.77,17.58,11.31,2.32,2.37,2.35
23.22,-15.38,-17.73,-15.35,-17.72,17.72,17.50,11.56,2.34,2.37,2.35
23.45,-15.31,-17.66,-15.30,-17.67,17.67,17.43,11.82,2.36,2.37,2.35
23.69,-15.24,-17.60,-15.26,-17.63,17.63,17.36,12.09,2.38,2.37,2.36
23.92,-15.17,-17.53,-15.21,-17.58,17.58,17.29,12.36,2.41,2.37,2.36
24.16,-15.13,-17.50,-15.17,-17.54,17.54,17.22,12.64,2.41,2.37,2.37
24.40,-15.09,-17.47,-15.13,-17.49,17.49,17.16,12.92,2.40,2.37,2.38
24.65,-15.05,-17.42,-15.08,-17.44,17.44,17.09,13.22,2.39,2.36,2.37
24.89,-15.02,-17.39,-15.03,-17.39,17.39,17.03,13.52,2.37,2.37,2.37
25.14,-14.98,-17.35,-14.98,-17.34,17.34,16.97,13.83,2.36,2.37,2.36
25.39,-14.96,-17.33,-14.93,-17.29,17.29,16.90,14.15,2.33,2.37,2.37
25.65,-14.93,-17.30,-14.88,-17.25,17.25,16.84,14.48,2.32,2.37,2.37
25.91,-14.90,-17.26,-14.84,-17.21,17.21,16.78,14.81,2.30,2.37,2.36
26.16,-14.83,-17.19,-14.79,-17.16,17.16,16.73,15.16,2.33,2.37,2.36
26.43,-14.74,-17.10,-14.74,-17.10,17.10,16.67,15.51,2.36,2.36,2.36
26.69,-14.65,-17.01,-14.68,-17.04,17.04,16.61,15.87,2.39,2.36,2.36
26.96,-14.55,-16.92,-14.62,-16.98,16.98,16.56,16.23,2.43,2.36,2.37
27.23,-14.52,-16.89,-14.56,-16.92,16.92,16.51,16.60,2.40,2.36,2.37
27.50,-14.50,-16.87,-14.50,-16.86,16.86,16.45,16.98,2.36,2.36,2.36
27.77,-14.48,-16.83,-14.45,-16.80,16.80,16.40,17.35,2.32,2.35,2.35
28.05,-14.44,-16.79,-14.39,-16.74,16.74,16.35,17.73,2.30,2.35,2.35
28.33,-14.35,-16.69,-14.33,-16.68,16.68,16.30,18.10,2.32,2.35,2.34
28.62,-14.26,-16.60,-14.27,-16.61,16.61,16.26,18.47,2.35,2.35,2.34
28.90,-14.16,-16.51,-14.22,-16.56,16.56,16.21,18.83,2.40,2.35,2.35
29.19,-14.12,-16.46,-14.17,-16.52,16.52,16.16,19.17,2.40,2.34,2.33
29.48,-14.12,-16.47,-14.14,-16.48,16.48,16.12,19.48,2.36,2.34,2.35
29.78,-14.11,-16.45,-14.10,-16.44,16.44,16.07,19.77,2.33,2.34,2.34
30.08,-14.08,-16.43,-14.06,-16.40,16.40,16.03,20.03,2.32,2.34,2.35
30.38,-14.01,-16.35,-14.01,-16.35,16.35,15.98,20.24,2.34,2.34,2.34
30.68,-13.94,-16.28,-13.97,-16.30,16.30,15.94,20.40,2.36,2.33,2.33
30.99,-13.86,-16.19,-13.92,-16.26,16.26,15.90,20.51,2.39,2.33,2.33
31.30,-13.87,-16.20,-13.88,-16.21,16.21,15.86,20.57,2.34,2.33,2.33
31.61,-13.88,-16.21,-13.84,-16.16,16.16,15.82,20.57,2.28,2.33,2.33
31.93,-13.89,-16.22,-13.78,-16.11,16.11,15.78,20.51,2.21,2.32,2.32
32.24,-13.81,-16.12,-13.72,-16.04,16.04,15.74,20.41,2.23,2.32,2.31
32.57,-13.70,-16.02,-13.67,-15.98,15.98,15.70,20.26,2.28,2.31,2.32
32.89,-13.59,-15.91,-13.61,-15.92,15.92,15.66,20.07,2.33,2.31,2.32
33.22,-13.52,-15.82,-13.56,-15.87,15.87,15.62,19.85,2.34,2.30,2.30
33.55,-13.47,-15.77,-13.51,-15.81,15.81,15.58,19.60,2.34,2.30,2.30
33.89,-13.43,-15.72,-13.46,-15.75,15.75,15.55,19.33,2.32,2.29,2.29
34.23,-13.36,-15.65,-13.40,-15.69,15.69,15.51,19.06,2.32,2.29,2.29
34.57,-13.28,-15.56,-13.34,-15.62,15.62,15.47,18.77,2.34,2.28,2.28
34.92,-13.20,-15.48,-13.27,-15.55,15.55,15.43,18.48,2.35,2.28,2.28
35.27,-13.21,-15.48,-13.22,-15.49,15.49,15.40,18.18,2.28,2.27,2.27
35.62,-13.24,-15.51,-13.17,-15.44,15.44,15.36,17.89,2.20,2.27,2.27
35.97,-13.28,-15.54,-13.14,-15.40,15.40,15.32,17.61,2.12,2.27,2.26
36.33,-13.16,-15.43,-13.10,-15.36,15.36,15.29,17.33,2.20,2.26,2.27
36.70,-13.03,-15.29,-13.06,-15.32,15.32,15.25,17.05,2.29,2.26,2.26
37.06,-12.92,-15.17,-13.02,-15.28,15.28,15.21,16.79,2.36,2.26,2.25
37.43,-12.90,-15.17,-12.98,-15.24,15.24,15.17,16.53,2.33,2.26,2.27
37.81,-12.88,-15.14,-12.93,-15.19,15.19,15.14,16.28,2.31,2.26,2.26
38.19,-12.87,-15.13,-12.89,-15.15,15.15,15.10,16.05,2.28,2.26,2.26
38.57,-12.88,-15.14,-12.84,-15.10,15.10,15.06,15.82,2.22,2.26,2.26
38.95,-12.88,-15.14,-12.79,-15.04,15.04,15.02,15.60,2.16,2.26,2.26
39.34,-12.79,-15.05,-12.72,-14.98,14.98,14.98,15.39,2.19,2.26,2.26
39.74,-12.68,-14.93,-12.66,-14.91,14.91,14.94,15.19,2.23,2.26,2.25
40.14,-12.59,-14.85,-12.60,-14.86,14.86,14.90,15.00,2.27,2.25,2.26
40.54,-12.55,-14.80,-12.56,-14.81,14.81,14.86,14.83,2.26,2.25,2.25
40.94,-12.51,-14.75,-12.50,-14.75,14.75,14.82,14.66,2.24,2.25,2.24
41.35,-12.45,-14.69,-12.45,-14.69,14.69,14.77,14.50,2.24,2.24,2.24
41.76,-12.38,-14.61,-12.39,-14.62,14.62,14.73,14.35,2.24,2.23,2.23
42.18,-12.31,-14.54,-12.34,-14.56,14.56,14.68,14.21,2.25,2.22,2.23
42.60,-12.21,-14.42,-12.29,-14.50,14.50,14.64,14.07,2.28,2.21,2.21
43.03,-12.12,-14.33,-12.22,-14.42,14.42,14.59,13.95,2.30,2.20,2.21
43.46,-12.18,-14.38,-12.18,-14.36,14.36,14.54,13.84,2.18,2.18,2.20
43.90,-12.23,-14.40,-12.15,-14.32,14.32,14.49,13.73,2.09,2.17,2.17
44.33,-12.15,-14.30,-12.11,-14.26,14.26,14.44,13.63,2.11,2.16,2.15
44.78,-12.03,-14.16,-12.06,-14.20,14.20,14.39,13.55,2.17,2.14,2.13
45.23,-12.00,-14.12,-12.02,-14.14,14.14,14.34,13.46,2.14,2.13,2.12
45.68,-12.04,-14.14,-11.98,-14.09,14.09,14.29,13.39,2.05,2.11,2.10
46.13,-12.03,-14.11,-11.94,-14.04,14.04,14.23,13.33,2.01,2.09,2.08
46.60,-11.86,-13.94,-11.90,-13.97,13.97,14.17,13.27,2.11,2.08,2.08
47.06,-11.73,-13.79,-11.85,-13.91,13.91,14.11,13.22,2.18,2.06,2.06
47.53,-11.81,-13.86,-11.80,-13.84,13.84,14.05,13.17,2.03,2.04,2.05
48.01,-11.88,-13.93,-11.75,-13.78,13.78,13.99,13.14,1.90,2.03,2.04
48.49,-11.70,-13.72,-11.70,-13.71,13.71,13.93,13.11,2.01,2.01,2.02
48.97,-11.53,-13.53,-11.64,-13.64,13.64,13.87,13.08,2.11,2.00,2.00
49.46,-11.59,-13.57,-11.60,-13.58,13.58,13.80,13.07,1.99,1.98,1.98
49.96,-11.67,-13.62,-11.56,-13.53,13.53,13.73,13.05,1.86,1.96,1.95
50.46,-11.51,-13.46,-11.52,-13.47,13.47,13.66,13.05,1.95,1.95,1.95
50.96,-11.33,-13.26,-11.47,-13.40,13.40,13.59,13.04,2.07,1.93,1.93
51.47,-11.37,-13.28,-11.43,-13.35,13.35,13.52,13.05,1.97,1.92,1.91
51.99,-11.43,-13.32,-11.40,-13.30,13.30,13.44,13.05,1.87,1.90,1.89
52.51,-11.39,-13.28,-11.36,-13.24,13.24,13.37,13.06,1.85,1.89,1.88
53.03,-11.34,-13.22,-11.30,-13.17,13.17,13.29,13.07,1.83,1.87,1.88
53.56,-11.25,-13.11,-11.25,-13.11,13.11,13.21,13.08,1.85,1.85,1.86
54.10,-11.19,-13.03,-11.22,-13.06,13.06,13.13,13.09,1.87,1.84,1.84
54.64,-11.24,-13.06,-11.18,-13.00,13.00,13.05,13.11,1.76,1.83,1.82
55.18,-11.21,-13.02,-11.12,-12.93,12.93,12.96,13.12,1.72,1.81,1.81
55.74,-11.01,-12.81,-11.06,-12.86,12.86,12.88,13.13,1.84,1.80,1.79
56.29,-10.96,-12.74,-11.02,-12.80,12.80,12.79,13.14,1.83,1.78,1.78
56.86,-11.05,-12.81,-10.97,-12.73,12.73,12.70,13.14,1.68,1.76,1.76
57.42,-10.92,-12.65,-10.92,-12.66,12.66,12.61,13.14,1.74,1.74,1.73
58.00,-10.71,-12.43,-10.86,-12.58,12.58,12.52,13.13,1.86,1.72,1.72
58.58,-10.78,-12.48,-10.80,-12.49,12.49,12.42,13.12,1.71,1.69,1.70
59.16,-10.81,-12.49,-10.75,-12.42,12.42,12.33,13.09,1.61,1.66,1.68
59.76,-10.74,-12.39,-10.71,-12.34,12.34,12.23,13.06,1.60,1.63,1.65
60.35,-10.64,-12.25,-10.67,-12.26,12.26,12.13,13.02,1.62,1.60,1.61
60.96,-10.52,-12.09,-10.61,-12.17,12.17,12.03,12.97,1.65,1.56,1.57
61.57,-10.60,-12.12,-10.57,-12.09,12.09,11.93,12.91,1.49,1.52,1.52
62.18,-10.64,-12.11,-10.53,-12.01,12.01,11.83,12.83,1.37,1.47,1.47
62.80,-10.53,-11.95,-10.50,-11.93,11.93,11.73,12.75,1.39,1.43,1.42
63.43,-10.41,-11.79,-10.46,-11.84,11.84,11.62,12.65,1.43,1.38,1.37
64.07,-10.32,-11.65,-10.43,-11.76,11.76,11.52,12.54,1.44,1.33,1.32
64.71,-10.42,-11.69,-10.39,-11.67,11.67,11.41,12.42,1.25,1.28,1.27
65.35,-10.41,-11.64,-10.34,-11.57,11.57,11.31,12.29,1.16,1.23,1.23
66.01,-10.29,-11.47,-10.29,-11.47,11.47,11.20,12.15,1.18,1.18,1.18
66.67,-10.17,-11.29,-10.25,-11.37,11.37,11.09,12.00,1.20,1.12,1.12
67.33,-10.15,-11.22,-10.21,-11.28,11.28,10.98,11.84,1.13,1.07,1.06
68.01,-10.22,-11.24,-10.16,-11.18,11.18,10.87,11.68,0.95,1.01,1.02
68.69,-10.22,-11.18,-10.10,-11.06,11.06,10.76,11.51,0.84,0.96,0.96
69.37,-10.13,-11.03,-10.06,-10.96,10.96,10.65,11.33,0.83,0.90,0.90
70.07,-9.98,-10.83,-10.02,-10.87,10.87,10.53,11.15,0.88,0.84,0.84
70.77,-9.91,-10.71,-9.98,-10.77,10.77,10.42,10.96,0.85,0.78,0.79
71.48,-9.89,-10.62,-9.93,-10.65,10.65,10.31,10.77,0.76,0.72,0.73
72.19,-9.87,-10.53,-9.87,-10.53,10.53,10.19,10.58,0.66,0.66,0.66
72.91,-9.80,-10.40,-9.83,-10.43,10.43,10.08,10.39,0.62,0.60,0.60
73.64,-9.79,-10.32,-9.80,-10.33,10.33,9.96,10.20,0.54,0.53,0.53
74.38,-9.75,-10.22,-9.76,-10.23,10.23,9.85,10.01,0.47,0.47,0.47
75.12,-9.69,-10.09,-9.71,-10.12,10.12,9.73,9.82,0.43,0.41,0.40
75.87,-9.69,-10.03,-9.67,-10.01,10.01,9.62,9.64,0.32,0.34,0.33
76.63,-9.73,-10.01,-9.63,-9.92,9.92,9.50,9.45,0.18,0.28,0.28
77.40,-9.62,-9.84,-9.60,-9.82,9.82,9.38,9.27,0.20,0.22,0.22
78.17,-9.43,-9.58,-9.56,-9.72,9.72,9.27,9.09,0.29,0.16,0.15
78.95,-9.45,-9.56,-9.52,-9.62,9.62,9.15,8.91,0.17,0.10,0.11
79.74,-9.52,-9.57,-9.48,-9.52,9.52,9.04,8.74,-0.00,0.04,0.04
80.54,-9.53,-9.52,-9.43,-9.41,9.41,8.92,8.57,-0.12,-0.01,-0.01
81.35,-9.42,-9.35,-9.37,-9.30,9.30,8.80,8.41,-0.12,-0.07,-0.07
82.16,-9.24,-9.11,-9.32,-9.19,9.19,8.69,8.25,-0.05,-0.13,-0.13
82.98,-9.32,-9.15,-9.26,-9.08,9.08,8.57,8.09,-0.24,-0.18,-0.17
83.81,-9.21,-8.97,-9.20,-8.96,8.96,8.46,7.94,-0.25,-0.24,-0.24
84.65,-9.12,-8.83,-9.14,-8.84,8.84,8.34,7.79,-0.28,-0.29,-0.30
85.50,-9.03,-8.69,-9.07,-8.72,8.72,8.23,7.65,-0.32,-0.35,-0.34
86.35,-8.99,-8.59,-9.01,-8.60,8.60,8.11,7.51,-0.39,-0.41,-0.40
87.22,-8.98,-8.52,-8.95,-8.48,8.48,8.00,7.38,-0.50,-0.47,-0.46
88.09,-8.82,-8.30,-8.87,-8.34,8.34,7.89,7.25,-0.48,-0.53,-0.52
88.97,-8.78,-8.20,-8.79,-8.21,8.21,7.77,7.12,-0.57,-0.59,-0.58
89.86,-8.74,-8.09,-8.73,-8.08,8.08,7.66,7.00,-0.66,-0.65,-0.65
90.76,-8.70,-7.99,-8.67,-7.96,7.96,7.55,6.89,-0.74,-0.71,-0.71
91.66,-8.59,-7.83,-8.61,-7.84,7.84,7.43,6.78,-0.75,-0.77,-0.76
92.58,-8.51,-7.68,-8.54,-7.71,7.71,7.32,6.67,-0.80,-0.83,-0.84
93.51,-8.44,-7.55,-8.47,-7.58,7.58,7.21,6.57,-0.86,-0.88,-0.89
94.44,-8.39,-7.45,-8.40,-7.45,7.45,7.10,6.47,-0.94,-0.94,-0.95
95.39,-8.36,-7.36,-8.32,-7.32,7.32,6.99,6.38,-1.04,-1.00,-1.00
96.34,-8.29,-7.23,-8.25,-7.19,7.19,6.88,6.29,-1.10,-1.06,-1.07
97.30,-8.18,-7.06,-8.18,-7.06,7.06,6.77,6.20,-1.12,-1.12,-1.12
98.28,-8.14,-6.96,-8.11,-6.94,6.94,6.66,6.12,-1.21,-1.18,-1.18
99.26,-8.09,-6.86,-8.04,-6.81,6.81,6.55,6.04,-1.28,-1.24,-1.24
100.25,-7.96,-6.67,-7.97,-6.68,6.68,6.45,5.96,-1.28,-1.29,-1.29
101.25,-7.84,-6.49,-7.91,-6.56,6.56,6.34,5.89,-1.28,-1.35,-1.35
102.27,-7.79,-6.38,-7.85,-6.44,6.44,6.23,5.82,-1.35,-1.41,-1.41
103.29,-7.72,-6.25,-7.78,-6.31,6.31,6.13,5.75,-1.41,-1.47,-1.48
104.32,-7.68,-6.16,-7.71,-6.19,6.19,6.02,5.68,-1.50,-1.53,-1.52
105.37,-7.67,-6.09,-7.64,-6.06,6.06,5.92,5.62,-1.62,-1.59,-1.58
106.42,-7.61,-5.97,-7.57,-5.93,5.93,5.81,5.56,-1.69,-1.65,-1.64
107.48,-7.57,-5.86,-7.51,-5.80,5.80,5.71,5.50,-1.78,-1.71,-1.71
108.56,-7.48,-5.71,-7.44,-5.67,5.67,5.61,5.44,-1.81,-1.77,-1.77
109.64,-7.38,-5.55,-7.37,-5.54,5.54,5.51,5.38,-1.84,-1.83,-1.83
110.74,-7.35,-5.45,-7.31,-5.41,5.41,5.41,5.32,-1.94,-1.90,-1.90
111.85,-7.26,-5.32,-7.24,-5.28,5.28,5.31,5.27,-1.98,-1.96,-1.95
112.97,-7.13,-5.11,-7.17,-5.15,5.15,5.21,5.21,-1.98,-2.02,-2.02
114.10,-7.06,-4.98,-7.10,-5.02,5.02,5.11,5.15,-2.04,-2.08,-2.08
115.24,-7.00,-4.87,-7.03,-4.90,4.90,5.01,5.10,-2.11,-2.13,-2.14
116.39,-6.96,-4.76,-6.96,-4.77,4.77,4.92,5.04,-2.19,-2.19,-2.20
117.55,-6.89,-4.64,-6.89,-4.65,4.65,4.82,4.98,-2.24,-2.24,-2.25
118.73,-6.84,-4.54,-6.83,-4.54,4.54,4.72,4.92,-2.30,-2.29,-2.30
119.92,-6.78,-4.45,-6.78,-4.44,4.44,4.63,4.86,-2.34,-2.34,-2.34
121.12,-6.71,-4.32,-6.73,-4.35,4.35,4.53,4.80,-2.36,-2.38,-2.39
122.33,-6.65,-4.22,-6.69,-4.26,4.26,4.44,4.73,-2.39,-2.43,-2.43
123.55,-6.61,-4.15,-6.65,-4.18,4.18,4.35,4.67,-2.43,-2.47,-2.47
124.79,-6.60,-4.09,-6.62,-4.10,4.10,4.26,4.60,-2.50,-2.51,-2.51
126.03,-6.61,-4.06,-6.58,-4.03,4.03,4.17,4.53,-2.58,-2.55,-2.55
127.29,-6.58,-4.00,-6.54,-3.95,3.95,4.08,4.46,-2.63,-2.59,-2.58
128.57,-6.52,-3.89,-6.51,-3.88,3.88,3.99,4.38,-2.64,-2.63,-2.63
129.85,-6.47,-3.80,-6.48,-3.81,3.81,3.90,4.30,-2.66,-2.67,-2.67
131.15,-6.47,-3.76,-6.45,-3.75,3.75,3.81,4.23,-2.73,-2.71,-2.71
132.46,-6.46,-3.72,-6.42,-3.68,3.68,3.72,4.14,-2.78,-2.74,-2.75
133.79,-6.44,-3.66,-6.40,-3.62,3.62,3.64,4.06,-2.83,-2.78,-2.78
135.12,-6.34,-3.51,-6.37,-3.55,3.55,3.55,3.98,-2.79,-2.82,-2.83
136.48,-6.28,-3.43,-6.33,-3.48,3.48,3.47,3.89,-2.80,-2.85,-2.85
137.84,-6.25,-3.35,-6.30,-3.41,3.41,3.39,3.80,-2.84,-2.89,-2.90
139.22,-6.25,-3.31,-6.27,-3.34,3.34,3.30,3.71,-2.91,-2.93,-2.94
140.61,-6.25,-3.27,-6.24,-3.27,3.27,3.22,3.62,-2.98,-2.97,-2.98
142.02,-6.26,-3.26,-6.21,-3.21,3.21,3.14,3.53,-3.06,-3.01,-3.00
143.44,-6.20,-3.16,-6.19,-3.14,3.14,3.06,3.44,-3.06,-3.05,-3.04
144.87,-6.15,-3.06,-6.16,-3.06,3.06,2.98,3.35,-3.09,-3.10,-3.09
146.32,-6.10,-2.96,-6.12,-2.97,2.97,2.90,3.26,-3.13,-3.15,-3.14
147.78,-6.05,-2.87,-6.09,-2.88,2.88,2.82,3.16,-3.17,-3.20,-3.18
149.26,-6.04,-2.81,-6.06,-2.79,2.79,2.74,3.07,-3.25,-3.27,-3.23
150.75,-6.04,-2.73,-6.02,-2.69,2.69,2.67,2.98,-3.35,-3.33,-3.31
152.26,-6.04,-2.66,-5.98,-2.58,2.58,2.59,2.89,-3.46,-3.40,-3.38
153.78,-6.02,-2.56,-5.95,-2.47,2.47,2.52,2.79,-3.55,-3.48,-3.46
155.32,-5.92,-2.38,-5.91,-2.36,2.36,2.44,2.70,-3.57,-3.55,-3.54
156.88,-5.84,-2.22,-5.87,-2.24,2.24,2.37,2.61,-3.60,-3.63,-3.62
158.44,-5.82,-2.11,-5.84,-2.13,2.13,2.30,2.52,-3.69,-3.71,-3.71
160.03,-5.74,-1.94,-5.81,-2.02,2.02,2.23,2.43,-3.72,-3.78,-3.80
161.63,-5.74,-1.86,-5.77,-1.91,1.91,2.15,2.34,-3.83,-3.86,-3.88
163.24,-5.73,-1.78,-5.74,-1.81,1.81,2.08,2.25,-3.92,-3.92,-3.95
164.88,-5.65,-1.65,-5.70,-1.71,1.71,2.01,2.16,-3.94,-3.99,-4.00
166.53,-5.65,-1.59,-5.66,-1.62,1.62,1.95,2.08,-4.03,-4.04,-4.06
168.19,-5.66,-1.56,-5.63,-1.54,1.54,1.88,1.99,-4.12,-4.09,-4.11
169.87,-5.66,-1.51,-5.59,-1.46,1.46,1.81,1.91,-4.20,-4.13,-4.15
171.57,-5.59,-1.42,-5.55,-1.39,1.39,1.74,1.82,-4.20,-4.16,-4.17
173.29,-5.52,-1.33,-5.52,-1.33,1.33,1.68,1.74,-4.19,-4.18,-4.19
175.02,-5.48,-1.28,-5.48,-1.28,1.28,1.61,1.66,-4.21,-4.20,-4.21
176.77,-5.40,-1.18,-5.44,-1.22,1.22,1.55,1.57,-4.18,-4.22,-4.23
178.54,-5.38,-1.15,-5.40,-1.17,1.17,1.49,1.49,-4.21,-4.23,-4.24
180.32,-5.38,-1.15,-5.35,-1.11,1.11,1.42,1.41,-4.27,-4.24,-4.23
182.13,-5.32,-1.09,-5.30,-1.05,1.05,1.36,1.33,-4.27,-4.25,-4.23
183.95,-5.24,-0.99,-5.25,-0.99,0.99,1.30,1.26,-4.25,-4.27,-4.25
185.79,-5.16,-0.91,-5.20,-0.92,0.92,1.24,1.18,-4.24,-4.28,-4.25
187.65,-5.14,-0.86,-5.15,-0.86,0.86,1.18,1.10,-4.29,-4.29,-4.28
189.52,-5.12,-0.83,-5.10,-0.80,0.80,1.12,1.03,-4.33,-4.30,-4.29
191.42,-5.11,-0.79,-5.06,-0.74,0.74,1.06,0.95,-4.37,-4.32,-4.32
193.33,-5.05,-0.71,-5.03,-0.68,0.68,1.00,0.88,-4.37,-4.34,-4.34
195.27,-4.98,-0.62,-4.99,-0.63,0.63,0.95,0.81,-4.35,-4.36,-4.36
197.22,-4.90,-0.52,-4.95,-0.57,0.57,0.89,0.73,-4.33,-4.39,-4.39
199.19,-4.85,-0.44,-4.92,-0.51,0.51,0.83,0.66,-4.34,-4.41,-4.42
201.18,-4.84,-0.40,-4.88,-0.45,0.45,0.78,0.59,-4.39,-4.43,-4.44
203.19,-4.84,-0.39,-4.86,-0.40,0.40,0.73,0.52,-4.44,-4.46,-4.46
205.23,-4.84,-0.36,-4.83,-0.35,0.35,0.67,0.46,-4.49,-4.48,-4.49
207.28,-4.84,-0.35,-4.81,-0.30,0.30,0.62,0.39,-4.54,-4.51,-4.49
209.35,-4.84,-0.32,-4.78,-0.25,0.25,0.57,0.32,-4.59,-4.53,-4.52
211.44,-4.79,-0.23,-4.76,-0.21,0.21,0.52,0.26,-4.58,-4.55,-4.56
213.56,-4.75,-0.19,-4.74,-0.17,0.17,0.46,0.20,-4.58,-4.57,-4.57
215.69,-4.66,-0.08,-4.72,-0.13,0.13,0.41,0.13,-4.53,-4.58,-4.58
217.85,-4.65,-0.05,-4.70,-0.10,0.10,0.36,0.07,-4.55,-4.60,-4.60
220.03,-4.66,-0.05,-4.68,-0.07,0.07,0.32,0.01,-4.60,-4.61,-4.61
222.23,-4.66,-0.02,-4.65,-0.03,0.03,0.27,-0.04,-4.63,-4.62,-4.64
224.45,-4.63,-0.00,-4.62,0.01,-0.01,0.22,-0.10,-4.64,-4.62,-4.63
226.70,-4.57,0.06,-4.58,0.05,-0.05,0.17,-0.15,-4.62,-4.63,-4.63
228.96,-4.55,0.08,-4.54,0.09,-0.09,0.13,-0.20,-4.64,-4.63,-4.63
231.25,-4.55,0.07,-4.50,0.12,-0.12,0.08,-0.25,-4.67,-4.62,-4.62
233.57,-4.49,0.12,-4.46,0.15,-0.15,0.04,-0.30,-4.64,-4.61,-4.61
235.90,-4.42,0.18,-4.42,0.18,-0.18,-0.01,-0.35,-4.60,-4.60,-4.60
238.26,-4.39,0.20,-4.37,0.21,-0.21,-0.05,-0.39,-4.60,-4.59,-4.60
240.64,-4.31,0.26,-4.33,0.24,-0.24,-0.09,-0.43,-4.55,-4.57,-4.58
243.05,-4.28,0.27,-4.28,0.27,-0.27,-0.14,-0.47,-4.55,-4.55,-4.55
245.48,-4.23,0.30,-4.23,0.30,-0.30,-0.18,-0.50,-4.53,-4.53,-4.53
247.93,-4.13,0.37,-4.18,0.32,-0.32,-0.22,-0.54,-4.46,-4.51,-4.50
250.41,-4.11,0.37,-4.14,0.35,-0.35,-0.26,-0.57,-4.46,-4.49,-4.49
252.92,-4.09,0.36,-4.10,0.36,-0.36,-0.30,-0.60,-4.46,-4.47,-4.46
255.45,-4.08,0.35,-4.06,0.38,-0.38,-0.34,-0.62,-4.46,-4.44,-4.43
258.00,-4.01,0.40,-4.03,0.39,-0.39,-0.38,-0.65,-4.40,-4.42,-4.41
260.58,-3.97,0.43,-4.01,0.38,-0.38,-0.42,-0.67,-4.36,-4.40,-4.40
263.19,-3.97,0.40,-3.99,0.38,-0.38,-0.46,-0.69,-4.35,-4.37,-4.37
265.82,-3.97,0.38,-3.97,0.38,-0.38,-0.49,-0.70,-4.35,-4.35,-4.36
268.48,-3.97,0.36,-3.95,0.38,-0.38,-0.53,-0.72,-4.35,-4.33,-4.33
271.16,-3.90,0.40,-3.92,0.39,-0.39,-0.57,-0.73,-4.29,-4.30,-4.30
273.87,-3.87,0.42,-3.89,0.39,-0.39,-0.60,-0.74,-4.26,-4.28,-4.29
276.61,-3.88,0.37,-3.87,0.39,-0.39,-0.64,-0.75,-4.27,-4.26,-4.25
279.38,-3.88,0.35,-3.84,0.39,-0.39,-0.67,-0.76,-4.27,-4.23,-4.23
282.17,-3.87,0.33,-3.80,0.40,-0.40,-0.71,-0.77,-4.27,-4.20,-4.21
284.99,-3.82,0.35,-3.76,0.42,-0.42,-0.74,-0.77,-4.24,-4.18,-4.17
287.84,-3.76,0.40,-3.72,0.43,-0.43,-0.77,-0.78,-4.19,-4.15,-4.16
290.72,-3.61,0.51,-3.68,0.44,-0.44,-0.80,-0.78,-4.06,-4.12,-4.12
293.63,-3.53,0.57,-3.62,0.47,-0.47,-0.84,-0.78,-4.01,-4.09,-4.10
296.57,-3.52,0.54,-3.56,0.50,-0.50,-0.87,-0.79,-4.03,-4.06,-4.06
299.53,-3.52,0.52,-3.50,0.54,-0.54,-0.90,-0.79,-4.06,-4.04,-4.04
302.53,-3.52,0.50,-3.45,0.57,-0.57,-0.93,-0.79,-4.09,-4.01,-4.02
305.55,-3.38,0.60,-3.38,0.61,-0.61,-0.96,-0.79,-3.99,-3.99,-3.98
308.61,-3.32,0.64,-3.31,0.65,-0.65,-0.99,-0.79,-3.97,-3.96,-3.96
311.69,-3.22,0.71,-3.25,0.70,-0.70,-1.02,-0.80,-3.92,-3.94,-3.94
314.81,-3.18,0.73,-3.18,0.74,-0.74,-1.05,-0.80,-3.92,-3.92,-3.91
317.96,-3.15,0.74,-3.12,0.78,-0.78,-1.07,-0.80,-3.94,-3.90,-3.89
321.14,-3.01,0.88,-3.05,0.83,-0.83,-1.10,-0.80,-3.84,-3.88,-3.89
324.35,-2.96,0.91,-2.99,0.87,-0.87,-1.13,-0.81,-3.83,-3.87,-3.87
327.59,-2.97,0.88,-2.93,0.92,-0.92,-1.16,-0.81,-3.89,-3.85,-3.85
330.87,-2.90,0.95,-2.87,0.97,-0.97,-1.18,-0.82,-3.87,-3.84,-3.85
334.18,-2.83,1.00,-2.81,1.02,-1.02,-1.21,-0.82,-3.85,-3.83,-3.83
337.52,-2.71,1.11,-2.76,1.06,-1.06,-1.23,-0.83,-3.77,-3.82,-3.82
340.90,-2.66,1.14,-2.71,1.10,-1.10,-1.26,-0.83,-3.77,-3.81,-3.81
344.30,-2.66,1.14,-2.66,1.15,-1.15,-1.28,-0.84,-3.81,-3.81,-3.80
347.75,-2.59,1.21,-2.61,1.19,-1.19,-1.31,-0.85,-3.78,-3.80,-3.80
351.23,-2.54,1.25,-2.56,1.23,-1.23,-1.33,-0.85,-3.78,-3.80,-3.79
354.74,-2.54,1.26,-2.52,1.27,-1.27,-1.35,-0.86,-3.81,-3.79,-3.80
358.28,-2.55,1.24,-2.49,1.30,-1.30,-1.37,-0.87,-3.86,-3.79,-3.79
361.87,-2.49,1.30,-2.45,1.34,-1.34,-1.40,-0.88,-3.84,-3.79,-3.79
365.49,-2.45,1.33,-2.41,1.38,-1.38,-1.42,-0.90,-3.83,-3.79,-3.78
369.14,-2.36,1.43,-2.38,1.41,-1.41,-1.44,-0.91,-3.77,-3.79,-3.80
372.83,-2.33,1.47,-2.36,1.43,-1.43,-1.46,-0.92,-3.77,-3.79,-3.80
376.56,-2.33,1.47,-2.34,1.45,-1.45,-1.48,-0.94,-3.78,-3.80,-3.80
380.33,-2.31,1.48,-2.33,1.47,-1.47,-1.50,-0.95,-3.78,-3.80,-3.79
384.13,-2.31,1.48,-2.33,1.48,-1.48,-1.52,-0.96,-3.79,-3.80,-3.79
387.97,-2.37,1.43,-2.34,1.47,-1.47,-1.54,-0.98,-3.84,-3.81,-3.81
391.85,-2.33,1.49,-2.36,1.45,-1.45,-1.56,-1.00,-3.78,-3.81,-3.82
395.77,-2.31,1.50,-2.39,1.42,-1.42,-1.58,-1.02,-3.74,-3.82,-3.81
399.73,-2.35,1.47,-2.44,1.38,-1.38,-1.60,-1.03,-3.73,-3.83,-3.82
403.72,-2.44,1.38,-2.50,1.33,-1.33,-1.62,-1.05,-3.77,-3.83,-3.82
407.76,-2.50,1.33,-2.56,1.27,-1.27,-1.64,-1.07,-3.77,-3.84,-3.83
