frequency,raw,error,smoothed,error_smoothed,equalization,parametric_eq,fixed_band_eq,equalized_raw,equalized_smoothed,target
20.00,0.26,-11.27,0.26,-11.28,11.28,10.91,4.09,11.53,11.53,11.53
20.20,0.32,-11.20,0.32,-11.20,11.20,10.87,4.20,11.52,11.52,11.52
20.40,0.39,-11.12,0.38,-11.12,11.12,10.84,4.31,11.51,11.51,11.51
20.61,0.45,-11.05,0.45,-11.05,11.05,10.80,4.43,11.49,11.49,11.50
20.81,0.51,-10.97,0.51,-10.97,10.97,10.77,4.55,11.48,11.48,11.48
21.02,0.58,-10.89,0.57,-10.90,10.90,10.73,4.67,11.47,11.47,11.47
21.23,0.64,-10.82,0.64,-10.82,10.82,10.69,4.80,11.46,11.46,11.45
21.44,0.70,-10.77,0.70,-10.75,10.75,10.65,4.93,11.45,11.45,11.46
21.66,0.77,-10.68,0.76,-10.68,10.68,10.61,5.06,11.44,11.44,11.44
21.87,0.83,-10.61,0.83,-10.61,10.61,10.56,5.19,11.43,11.43,11.44
22.09,0.90,-10.52,0.89,-10.53,10.53,10.52,5.34,11.43,11.43,11.42
22.31,0.96,-10.46,0.95,-10.46,10.46,10.48,5.48,11.42,11.42,11.42
22.54,1.02,-10.39,1.02,-10.39,10.39,10.43,5.63,11.41,11.41,11.41
22.76,1.08,-10.33,1.08,-10.32,10.32,10.38,5.78,11.40,11.40,11.41
22.99,1.15,-10.25,1.15,-10.25,10.25,10.33,5.93,11.40,11.40,11.40
23.22,1.21,-10.18,1.21,-10.18,10.18,10.28,6.09,11.39,11.39,11.39
23.45,1.28,-10.12,1.27,-10.11,10.11,10.23,6.26,11.39,11.39,11.39
23.69,1.34,-10.05,1.34,-10.05,10.05,10.18,6.42,11.38,11.38,11.38
23.92,1.41,-9.96,1.40,-9.98,9.98,10.13,6.59,11.38,11.38,11.37
24.16,1.47,-9.91,1.47,-9.91,9.91,10.08,6.77,11.38,11.38,11.38
24.40,1.54,-9.84,1.53,-9.84,9.84,10.03,6.95,11.38,11.37,11.38
24.65,1.60,-9.78,1.59,-9.78,9.78,9.97,7.13,11.37,11.37,11.38
24.89,1.66,-9.72,1.66,-9.71,9.71,9.92,7.31,11.37,11.37,11.37
25.14,1.73,-9.64,1.72,-9.64,9.64,9.86,7.50,11.37,11.37,11.36
25.39,1.79,-9.57,1.79,-9.58,9.58,9.80,7.69,11.36,11.36,11.36
25.65,1.85,-9.51,1.85,-9.51,9.51,9.74,7.88,11.36,11.36,11.36
25.91,1.91,-9.44,1.92,-9.45,9.45,9.69,8.07,11.36,11.36,11.36
26.16,1.98,-9.39,1.98,-9.38,9.38,9.63,8.26,11.36,11.36,11.37
26.43,2.05,-9.32,2.04,-9.32,9.32,9.57,8.46,11.36,11.36,11.36
26.69,2.11,-9.26,2.11,-9.25,9.25,9.50,8.65,11.36,11.36,11.36
26.96,2.18,-9.18,2.17,-9.19,9.19,9.44,8.84,11.36,11.36,11.36
27.23,2.24,-9.12,2.24,-9.13,9.13,9.38,9.03,11.36,11.36,11.36
27.50,2.31,-9.05,2.30,-9.06,9.06,9.32,9.22,11.37,11.36,11.35
27.77,2.37,-8.99,2.36,-9.00,9.00,9.25,9.40,11.37,11.36,11.36
28.05,2.43,-8.93,2.43,-8.94,8.94,9.19,9.58,11.36,11.36,11.36
28.33,2.49,-8.88,2.49,-8.87,8.87,9.13,9.74,11.36,11.36,11.37
28.62,2.56,-8.81,2.56,-8.81,8.81,9.06,9.90,11.36,11.36,11.36
28.90,2.62,-8.75,2.62,-8.74,8.74,8.99,10.05,11.36,11.36,11.37
29.19,2.68,-8.69,2.68,-8.68,8.68,8.93,10.18,11.35,11.36,11.37
29.48,2.75,-8.62,2.75,-8.61,8.61,8.86,10.30,11.36,11.36,11.36
29.78,2.81,-8.56,2.81,-8.55,8.55,8.79,10.40,11.36,11.36,11.36
30.08,2.88,-8.48,2.87,-8.49,8.49,8.73,10.49,11.36,11.35,11.36
30.38,2.94,-8.41,2.93,-8.42,8.42,8.66,10.56,11.36,11.35,11.34
30.68,3.00,-8.34,2.99,-8.36,8.36,8.59,10.61,11.35,11.34,11.34
30.99,3.06,-8.28,3.04,-8.29,8.29,8.52,10.64,11.35,11.34,11.34
31.30,3.11,-8.23,3.10,-8.23,8.23,8.45,10.64,11.33,11.33,11.33
31.61,3.16,-8.17,3.16,-8.16,8.16,8.38,10.63,11.32,11.32,11.33
31.93,3.22,-8.09,3.22,-8.09,8.09,8.31,10.60,11.31,11.31,11.30
32.24,3.27,-8.04,3.28,-8.03,8.03,8.24,10.54,11.29,11.31,11.31
32.57,3.33,-7.97,3.34,-7.96,7.96,8.16,10.47,11.29,11.30,11.29
32.89,3.39,-7.90,3.39,-7.90,7.90,8.09,10.38,11.28,11.29,11.29
33.22,3.45,-7.84,3.45,-7.83,7.83,8.02,10.27,11.28,11.28,11.28
33.55,3.51,-7.77,3.51,-7.77,7.77,7.95,10.15,11.27,11.27,11.28
33.89,3.57,-7.70,3.57,-7.70,7.70,7.88,10.02,11.27,11.27,11.26
34.23,3.63,-7.62,3.62,-7.63,7.63,7.80,9.87,11.26,11.26,11.25
34.57,3.69,-7.56,3.68,-7.57,7.57,7.73,9.71,11.25,11.25,11.24
34.92,3.75,-7.48,3.73,-7.50,7.50,7.65,9.55,11.25,11.23,11.23
35.27,3.80,-7.44,3.79,-7.43,7.43,7.58,9.38,11.23,11.22,11.24
35.62,3.85,-7.37,3.84,-7.37,7.37,7.51,9.21,11.21,11.21,11.21
35.97,3.90,-7.31,3.90,-7.30,7.30,7.43,9.03,11.20,11.20,11.21
36.33,3.95,-7.24,3.95,-7.23,7.23,7.36,8.85,11.18,11.18,11.19
36.70,4.00,-7.16,4.00,-7.16,7.16,7.28,8.66,11.16,11.16,11.16
37.06,4.05,-7.10,4.05,-7.09,7.09,7.20,8.48,11.14,11.14,11.14
37.43,4.10,-7.03,4.10,-7.03,7.03,7.13,8.29,11.12,11.12,11.12
37.81,4.15,-6.96,4.15,-6.96,6.96,7.05,8.11,11.10,11.10,11.11
38.19,4.20,-6.88,4.20,-6.89,6.89,6.98,7.93,11.08,11.08,11.08
38.57,4.25,-6.81,4.24,-6.81,6.81,6.90,7.75,11.06,11.06,11.06
38.95,4.30,-6.74,4.29,-6.74,6.74,6.82,7.58,11.04,11.04,11.04
39.34,4.35,-6.66,4.34,-6.67,6.67,6.75,7.40,11.02,11.01,11.01
39.74,4.39,-6.59,4.39,-6.60,6.60,6.67,7.23,10.98,10.99,10.98
40.14,4.44,-6.52,4.44,-6.52,6.52,6.59,7.07,10.96,10.96,10.96
40.54,4.48,-6.46,4.48,-6.45,6.45,6.51,6.90,10.93,10.94,10.94
40.94,4.53,-6.38,4.53,-6.38,6.38,6.44,6.74,10.91,10.91,10.91
41.35,4.58,-6.31,4.58,-6.31,6.31,6.36,6.59,10.89,10.89,10.89
41.76,4.63,-6.23,4.62,-6.24,6.24,6.28,6.44,10.87,10.86,10.85
42.18,4.68,-6.16,4.67,-6.17,6.17,6.20,6.29,10.84,10.84,10.84
42.60,4.72,-6.09,4.71,-6.10,6.10,6.12,6.15,10.81,10.81,10.81
43.03,4.76,-6.03,4.76,-6.03,6.03,6.05,6.01,10.78,10.78,10.78
43.46,4.81,-5.94,4.80,-5.95,5.95,5.97,5.88,10.76,10.75,10.75
43.90,4.85,-5.88,4.84,-5.88,5.88,5.89,5.75,10.73,10.72,10.73
44.33,4.89,-5.80,4.89,-5.80,5.80,5.81,5.62,10.69,10.69,10.69
44.78,4.93,-5.74,4.93,-5.73,5.73,5.73,5.50,10.66,10.66,10.66
45.23,4.97,-5.67,4.98,-5.65,5.65,5.65,5.38,10.62,10.63,10.64
45.68,5.02,-5.58,5.02,-5.57,5.57,5.57,5.27,10.59,10.59,10.59
46.13,5.06,-5.50,5.06,-5.49,5.49,5.49,5.16,10.55,10.55,10.55
46.60,5.10,-5.42,5.10,-5.41,5.41,5.41,5.05,10.51,10.51,10.52
47.06,5.15,-5.33,5.14,-5.33,5.33,5.33,4.95,10.47,10.47,10.48
47.53,5.19,-5.25,5.18,-5.24,5.24,5.26,4.85,10.43,10.43,10.44
48.01,5.24,-5.14,5.22,-5.16,5.16,5.18,4.76,10.40,10.38,10.38
48.49,5.27,-5.07,5.26,-5.08,5.08,5.10,4.67,10.34,10.34,10.34
48.97,5.31,-4.98,5.30,-4.99,4.99,5.02,4.58,10.30,10.29,10.29
49.46,5.34,-4.91,5.34,-4.91,4.91,4.94,4.49,10.24,10.25,10.24
49.96,5.38,-4.81,5.38,-4.82,4.82,4.86,4.41,10.20,10.20,10.18
50.46,5.42,-4.73,5.42,-4.73,4.73,4.78,4.33,10.15,10.15,10.15
50.96,5.46,-4.65,5.46,-4.65,4.65,4.70,4.25,10.10,10.10,10.10
51.47,5.49,-4.57,5.49,-4.56,4.56,4.62,4.17,10.05,10.06,10.06
51.99,5.52,-4.49,5.53,-4.48,4.48,4.53,4.10,10.00,10.01,10.00
52.51,5.56,-4.41,5.56,-4.40,4.40,4.45,4.03,9.95,9.96,9.97
53.03,5.60,-4.33,5.60,-4.32,4.32,4.37,3.96,9.91,9.92,9.93
53.56,5.65,-4.23,5.63,-4.24,4.24,4.29,3.89,9.88,9.87,9.88
54.10,5.69,-4.13,5.67,-4.16,4.16,4.21,3.83,9.84,9.82,9.82
54.64,5.72,-4.06,5.70,-4.08,4.08,4.13,3.76,9.79,9.78,9.78
55.18,5.75,-3.98,5.74,-4.00,4.00,4.05,3.70,9.75,9.74,9.73
55.74,5.77,-3.91,5.77,-3.92,3.92,3.97,3.63,9.69,9.69,9.68
56.29,5.80,-3.85,5.80,-3.84,3.84,3.89,3.57,9.64,9.65,9.64
56.86,5.83,-3.77,5.84,-3.76,3.76,3.81,3.51,9.59,9.60,9.60
57.42,5.87,-3.68,5.87,-3.68,3.68,3.73,3.44,9.55,9.55,9.54
58.00,5.90,-3.60,5.90,-3.60,3.60,3.65,3.38,9.50,9.50,9.50
58.58,5.93,-3.53,5.94,-3.52,3.52,3.57,3.32,9.44,9.45,9.46
59.16,5.96,-3.46,5.97,-3.43,3.43,3.49,3.25,9.39,9.40,9.42
59.76,6.00,-3.37,6.00,-3.35,3.35,3.40,3.19,9.34,9.34,9.37
60.35,6.03,-3.28,6.03,-3.26,3.26,3.32,3.12,9.29,9.29,9.31
60.96,6.08,-3.17,6.06,-3.17,3.17,3.24,3.05,9.25,9.23,9.25
61.57,6.11,-3.07,6.09,-3.08,3.08,3.16,2.99,9.19,9.17,9.17
62.18,6.14,-2.97,6.13,-2.99,2.99,3.08,2.92,9.12,9.11,9.11
62.80,6.17,-2.88,6.16,-2.90,2.90,3.00,2.85,9.06,9.05,9.04
63.43,6.19,-2.79,6.19,-2.81,2.81,2.92,2.77,8.99,8.99,8.98
64.07,6.21,-2.71,6.21,-2.71,2.71,2.84,2.70,8.92,8.93,8.92
64.71,6.24,-2.62,6.24,-2.62,2.62,2.76,2.63,8.86,8.86,8.86
65.35,6.27,-2.53,6.27,-2.53,2.53,2.67,2.55,8.80,8.80,8.80
66.01,6.30,-2.44,6.30,-2.44,2.44,2.59,2.47,8.74,8.74,8.73
66.67,6.33,-2.36,6.32,-2.35,2.35,2.51,2.39,8.68,8.67,8.68
67.33,6.35,-2.26,6.35,-2.26,2.26,2.43,2.31,8.60,8.61,8.61
68.01,6.38,-2.17,6.38,-2.17,2.17,2.35,2.23,8.54,8.54,8.55
68.69,6.40,-2.09,6.41,-2.07,2.07,2.27,2.14,8.47,8.48,8.48
69.37,6.43,-2.00,6.43,-1.98,1.98,2.19,2.06,8.41,8.41,8.43
70.07,6.45,-1.91,6.46,-1.89,1.89,2.10,1.97,8.34,8.35,8.36
70.77,6.49,-1.80,6.49,-1.80,1.80,2.02,1.89,8.28,8.28,8.28
71.48,6.52,-1.71,6.51,-1.70,1.70,1.94,1.80,8.22,8.22,8.22
72.19,6.55,-1.60,6.54,-1.61,1.61,1.86,1.71,8.16,8.15,8.15
72.91,6.58,-1.50,6.56,-1.52,1.52,1.78,1.62,8.10,8.08,8.07
73.64,6.60,-1.41,6.58,-1.43,1.43,1.70,1.53,8.03,8.01,8.01
74.38,6.62,-1.32,6.60,-1.35,1.35,1.62,1.44,7.96,7.95,7.94
75.12,6.63,-1.25,6.63,-1.26,1.26,1.53,1.35,7.88,7.88,7.88
75.87,6.64,-1.18,6.65,-1.17,1.17,1.45,1.26,7.81,7.82,7.82
76.63,6.66,-1.09,6.67,-1.09,1.09,1.37,1.17,7.74,7.76,7.75
77.40,6.68,-1.02,6.69,-1.00,1.00,1.29,1.08,7.68,7.69,7.70
78.17,6.71,-0.92,6.71,-0.92,0.92,1.21,0.99,7.63,7.63,7.62
78.95,6.73,-0.85,6.73,-0.84,0.84,1.13,0.89,7.57,7.57,7.58
79.74,6.75,-0.76,6.75,-0.76,0.76,1.05,0.80,7.51,7.51,7.51
80.54,6.78,-0.68,6.77,-0.68,0.68,0.96,0.71,7.45,7.45,7.45
81.35,6.81,-0.58,6.79,-0.59,0.59,0.88,0.62,7.40,7.39,7.38
82.16,6.83,-0.51,6.82,-0.51,0.51,0.80,0.52,7.33,7.32,7.33
82.98,6.85,-0.42,6.84,-0.42,0.42,0.72,0.43,7.26,7.26,7.26
83.81,6.87,-0.34,6.87,-0.32,0.32,0.64,0.34,7.19,7.20,7.20
84.65,6.89,-0.24,6.90,-0.23,0.23,0.56,0.24,7.12,7.13,7.13
85.50,6.91,-0.16,6.93,-0.14,0.14,0.48,0.15,7.05,7.07,7.06
86.35,6.94,-0.06,6.95,-0.05,0.05,0.39,0.05,6.99,7.00,7.00
87.22,6.98,0.04,6.98,0.04,-0.04,0.31,-0.04,6.93,6.94,6.93
88.09,7.00,0.13,7.00,0.13,-0.13,0.23,-0.13,6.86,6.87,6.87
88.97,7.03,0.23,7.02,0.22,-0.22,0.15,-0.23,6.80,6.80,6.80
89.86,7.06,0.32,7.04,0.31,-0.31,0.07,-0.32,6.75,6.73,6.73
90.76,7.08,0.41,7.05,0.39,-0.39,-0.01,-0.42,6.68,6.66,6.66
91.66,7.09,0.50,7.07,0.48,-0.48,-0.09,-0.52,6.61,6.59,6.58
92.58,7.10,0.57,7.08,0.56,-0.56,-0.17,-0.61,6.54,6.51,6.52
93.51,7.10,0.65,7.08,0.64,-0.64,-0.25,-0.71,6.46,6.44,6.45
94.44,7.10,0.72,7.09,0.72,-0.72,-0.33,-0.80,6.38,6.37,6.38
95.39,7.09,0.79,7.09,0.79,-0.79,-0.42,-0.90,6.29,6.29,6.30
96.34,7.08,0.85,7.09,0.87,-0.87,-0.50,-1.00,6.21,6.22,6.22
97.30,7.07,0.92,7.08,0.94,-0.94,-0.58,-1.09,6.13,6.15,6.15
98.28,7.07,1.00,7.08,1.01,-1.01,-0.66,-1.19,6.06,6.07,6.06
99.26,7.07,1.08,7.08,1.08,-1.08,-0.74,-1.29,5.99,6.00,5.99
100.25,7.07,1.15,7.07,1.14,-1.14,-0.82,-1.39,5.92,5.93,5.92
101.25,7.07,1.22,7.07,1.21,-1.21,-0.90,-1.48,5.85,5.86,5.85
102.27,7.07,1.28,7.07,1.28,-1.28,-0.98,-1.58,5.79,5.79,5.79
103.29,7.07,1.36,7.06,1.35,-1.35,-1.06,-1.68,5.72,5.72,5.71
104.32,7.07,1.42,7.06,1.42,-1.42,-1.14,-1.77,5.65,5.65,5.65
105.37,7.07,1.49,7.06,1.49,-1.49,-1.22,-1.87,5.58,5.58,5.58
106.42,7.07,1.55,7.07,1.56,-1.56,-1.30,-1.96,5.51,5.51,5.51
107.48,7.07,1.63,7.07,1.63,-1.63,-1.38,-2.05,5.44,5.44,5.44
108.56,7.07,1.69,7.07,1.70,-1.70,-1.45,-2.14,5.37,5.37,5.37
109.64,7.07,1.76,7.07,1.77,-1.77,-1.53,-2.23,5.30,5.30,5.31
110.74,7.07,1.83,7.06,1.84,-1.84,-1.61,-2.32,5.23,5.23,5.23
111.85,7.07,1.91,7.06,1.90,-1.90,-1.69,-2.40,5.16,5.16,5.16
112.97,7.07,1.97,7.06,1.97,-1.97,-1.77,-2.49,5.09,5.08,5.09
114.10,7.07,2.05,7.05,2.04,-2.04,-1.85,-2.57,5.03,5.01,5.02
115.24,7.07,2.13,7.05,2.11,-2.11,-1.92,-2.64,4.96,4.94,4.94
116.39,7.07,2.20,7.05,2.18,-2.18,-2.00,-2.72,4.89,4.87,4.86
117.55,7.06,2.27,7.05,2.25,-2.25,-2.08,-2.79,4.81,4.80,4.79
118.73,7.05,2.33,7.06,2.32,-2.32,-2.16,-2.86,4.72,4.73,4.72
119.92,7.05,2.39,7.06,2.40,-2.40,-2.23,-2.92,4.65,4.66,4.66
121.12,7.06,2.46,7.07,2.48,-2.48,-2.31,-2.98,4.58,4.59,4.60
122.33,7.07,2.54,7.09,2.57,-2.57,-2.39,-3.04,4.50,4.52,4.53
123.55,7.09,2.62,7.11,2.65,-2.65,-2.46,-3.09,4.43,4.46,4.47
124.79,7.12,2.72,7.13,2.75,-2.75,-2.54,-3.13,4.37,4.39,4.40
126.03,7.16,2.83,7.16,2.84,-2.84,-2.61,-3.18,4.31,4.32,4.33
127.29,7.18,2.91,7.19,2.94,-2.94,-2.69,-3.22,4.24,4.25,4.26
128.57,7.21,3.02,7.23,3.04,-3.04,-2.76,-3.25,4.17,4.19,4.19
129.85,7.25,3.12,7.26,3.14,-3.14,-2.83,-3.28,4.11,4.12,4.12
131.15,7.30,3.25,7.29,3.24,-3.24,-2.91,-3.31,4.06,4.05,4.05
132.46,7.33,3.34,7.32,3.33,-3.33,-2.98,-3.34,3.99,3.99,3.98
133.79,7.37,3.45,7.34,3.42,-3.42,-3.05,-3.36,3.95,3.92,3.91
135.12,7.39,3.54,7.35,3.50,-3.50,-3.12,-3.38,3.89,3.85,3.85
136.48,7.40,3.61,7.36,3.57,-3.57,-3.19,-3.39,3.83,3.79,3.79
137.84,7.40,3.67,7.36,3.63,-3.63,-3.26,-3.41,3.76,3.72,3.72
139.22,7.39,3.73,7.35,3.69,-3.69,-3.33,-3.42,3.70,3.66,3.65
140.61,7.36,3.76,7.33,3.73,-3.73,-3.40,-3.43,3.62,3.60,3.60
142.02,7.31,3.77,7.31,3.77,-3.77,-3.47,-3.44,3.54,3.54,3.53
143.44,7.28,3.80,7.28,3.80,-3.80,-3.54,-3.44,3.48,3.48,3.48
144.87,7.24,3.81,7.25,3.83,-3.83,-3.60,-3.45,3.41,3.42,3.42
146.32,7.21,3.84,7.21,3.85,-3.85,-3.67,-3.46,3.36,3.37,3.36
147.78,7.17,3.85,7.18,3.87,-3.87,-3.73,-3.47,3.29,3.31,3.31
149.26,7.14,3.88,7.15,3.90,-3.90,-3.80,-3.47,3.24,3.26,3.25
150.75,7.11,3.91,7.12,3.93,-3.93,-3.86,-3.48,3.18,3.20,3.20
152.26,7.09,3.94,7.10,3.96,-3.96,-3.93,-3.49,3.13,3.14,3.15
153.78,7.06,3.96,7.09,4.00,-4.00,-3.99,-3.50,3.06,3.09,3.09
155.32,7.05,4.01,7.08,4.04,-4.04,-4.05,-3.51,3.00,3.04,3.04
156.88,7.05,4.06,7.07,4.09,-4.09,-4.11,-3.53,2.95,2.98,2.99
158.44,7.06,4.13,7.07,4.14,-4.14,-4.17,-3.54,2.91,2.93,2.92
160.03,7.06,4.18,7.07,4.20,-4.20,-4.22,-3.56,2.86,2.87,2.87
161.63,7.08,4.26,7.07,4.26,-4.26,-4.28,-3.58,2.82,2.81,2.82
163.24,7.09,4.33,7.07,4.31,-4.31,-4.34,-3.60,2.77,2.76,2.76
164.88,7.10,4.39,7.07,4.37,-4.37,-4.39,-3.63,2.73,2.70,2.70
166.53,7.10,4.46,7.07,4.42,-4.42,-4.44,-3.66,2.68,2.65,2.64
168.19,7.09,4.49,7.06,4.47,-4.47,-4.50,-3.69,2.62,2.59,2.59
169.87,7.07,4.53,7.05,4.52,-4.52,-4.55,-3.72,2.55,2.53,2.53
171.57,7.05,4.58,7.03,4.56,-4.56,-4.60,-3.76,2.49,2.47,2.47
173.29,7.04,4.62,7.01,4.60,-4.60,-4.64,-3.80,2.44,2.42,2.42
175.02,7.00,4.63,6.99,4.63,-4.63,-4.69,-3.84,2.37,2.36,2.36
176.77,6.96,4.65,6.96,4.66,-4.66,-4.74,-3.88,2.30,2.30,2.30
178.54,6.94,4.69,6.94,4.69,-4.69,-4.78,-3.93,2.25,2.25,2.25
180.32,6.90,4.71,6.91,4.71,-4.71,-4.82,-3.98,2.18,2.19,2.18
182.13,6.87,4.73,6.88,4.74,-4.74,-4.86,-4.04,2.13,2.14,2.14
183.95,6.83,4.74,6.85,4.77,-4.77,-4.90,-4.09,2.06,2.08,2.09
185.79,6.81,4.78,6.83,4.80,-4.80,-4.94,-4.16,2.01,2.03,2.03
187.65,6.79,4.81,6.80,4.83,-4.83,-4.98,-4.22,1.96,1.98,1.98
189.52,6.77,4.84,6.78,4.85,-4.85,-5.01,-4.29,1.91,1.92,1.93
191.42,6.76,4.88,6.76,4.88,-4.88,-5.05,-4.35,1.88,1.87,1.88
193.33,6.74,4.90,6.73,4.91,-4.91,-5.08,-4.43,1.83,1.83,1.83
195.27,6.72,4.94,6.72,4.94,-4.94,-5.11,-4.50,1.78,1.78,1.78
197.22,6.71,4.98,6.70,4.96,-4.96,-5.14,-4.58,1.74,1.73,1.72
199.19,6.69,5.00,6.67,4.98,-4.98,-5.16,-4.65,1.70,1.69,1.69
201.18,6.67,5.03,6.65,5.00,-5.00,-5.19,-4.73,1.66,1.65,1.63
203.19,6.64,5.03,6.63,5.02,-5.02,-5.21,-4.82,1.61,1.61,1.60
205.23,6.61,5.03,6.61,5.04,-5.04,-5.23,-4.90,1.57,1.57,1.57
207.28,6.58,5.04,6.58,5.05,-5.05,-5.25,-4.98,1.53,1.53,1.53
209.35,6.55,5.05,6.55,5.06,-5.06,-5.27,-5.07,1.49,1.49,1.49
211.44,6.53,5.07,6.52,5.07,-5.07,-5.29,-5.15,1.46,1.45,1.46
213.56,6.50,5.07,6.49,5.07,-5.07,-5.30,-5.23,1.43,1.42,1.43
215.69,6.46,5.06,6.46,5.07,-5.07,-5.32,-5.32,1.39,1.39,1.39
217.85,6.42,5.06,6.42,5.07,-5.07,-5.33,-5.40,1.35,1.36,1.36
220.03,6.39,5.06,6.39,5.06,-5.06,-5.34,-5.48,1.32,1.33,1.32
222.23,6.36,5.07,6.35,5.06,-5.06,-5.34,-5.55,1.30,1.30,1.29
224.45,6.33,5.06,6.32,5.05,-5.05,-5.35,-5.63,1.28,1.27,1.27
226.70,6.29,5.05,6.28,5.04,-5.04,-5.35,-5.70,1.25,1.24,1.23
228.96,6.26,5.03,6.24,5.03,-5.03,-5.35,-5.76,1.23,1.21,1.22
231.25,6.24,5.05,6.21,5.02,-5.02,-5.35,-5.82,1.22,1.19,1.19
233.57,6.21,5.04,6.18,5.01,-5.01,-5.35,-5.87,1.20,1.17,1.17
235.90,6.16,5.00,6.16,5.00,-5.00,-5.35,-5.92,1.15,1.15,1.15
238.26,6.13,5.00,6.14,5.00,-5.00,-5.34,-5.96,1.13,1.13,1.12
240.64,6.10,4.97,6.12,5.00,-5.00,-5.34,-5.99,1.09,1.12,1.12
243.05,6.08,4.97,6.11,5.01,-5.01,-5.33,-6.02,1.07,1.11,1.11
245.48,6.08,4.99,6.11,5.02,-5.02,-5.32,-6.03,1.06,1.09,1.09
247.93,6.09,5.01,6.12,5.04,-5.04,-5.31,-6.04,1.05,1.08,1.07
250.41,6.11,5.03,6.14,5.06,-5.06,-5.29,-6.04,1.05,1.08,1.08
252.92,6.15,5.07,6.16,5.09,-5.09,-5.28,-6.03,1.06,1.07,1.07
255.45,6.18,5.12,6.19,5.13,-5.13,-5.26,-6.01,1.05,1.06,1.06
258.00,6.22,5.16,6.22,5.17,-5.17,-5.24,-5.99,1.05,1.05,1.05
260.58,6.25,5.20,6.25,5.21,-5.21,-5.22,-5.95,1.04,1.05,1.05
263.19,6.29,5.24,6.29,5.25,-5.25,-5.20,-5.91,1.04,1.04,1.05
265.82,6.34,5.30,6.32,5.29,-5.29,-5.18,-5.86,1.05,1.03,1.03
268.48,6.37,5.33,6.35,5.32,-5.32,-5.16,-5.81,1.05,1.03,1.03
271.16,6.40,5.37,6.37,5.35,-5.35,-5.13,-5.75,1.05,1.02,1.03
273.87,6.43,5.41,6.38,5.37,-5.37,-5.10,-5.68,1.06,1.02,1.02
276.61,6.43,5.41,6.39,5.38,-5.38,-5.07,-5.61,1.05,1.01,1.02
279.38,6.43,5.43,6.39,5.38,-5.38,-5.05,-5.53,1.04,1.01,1.00
282.17,6.42,5.42,6.38,5.38,-5.38,-5.01,-5.45,1.04,1.01,1.00
284.99,6.38,5.37,6.37,5.36,-5.36,-4.98,-5.36,1.01,1.01,1.01
287.84,6.33,5.32,6.35,5.34,-5.34,-4.95,-5.27,0.99,1.01,1.01
290.72,6.30,5.30,6.32,5.31,-5.31,-4.91,-5.19,0.98,1.01,1.00
293.63,6.28,5.27,6.29,5.28,-5.28,-4.88,-5.10,1.00,1.01,1.01
296.57,6.25,5.23,6.25,5.24,-5.24,-4.84,-5.00,1.00,1.01,1.01
299.53,6.22,5.20,6.22,5.20,-5.20,-4.80,-4.91,1.01,1.01,1.01
302.53,6.18,5.15,6.18,5.16,-5.16,-4.77,-4.82,1.02,1.02,1.03
305.55,6.13,5.11,6.14,5.12,-5.12,-4.73,-4.73,1.01,1.02,1.02
308.61,6.09,5.06,6.10,5.07,-5.07,-4.69,-4.64,1.01,1.03,1.03
311.69,6.04,5.00,6.06,5.03,-5.03,-4.64,-4.55,1.01,1.03,1.03
314.81,6.02,4.98,6.02,4.98,-4.98,-4.60,-4.46,1.04,1.04,1.04
317.96,5.98,4.94,5.98,4.94,-4.94,-4.56,-4.37,1.04,1.04,1.04
321.14,5.95,4.89,5.94,4.89,-4.89,-4.51,-4.29,1.06,1.05,1.05
324.35,5.91,4.86,5.89,4.84,-4.84,-4.47,-4.20,1.07,1.06,1.05
327.59,5.86,4.78,5.85,4.78,-4.78,-4.42,-4.12,1.07,1.06,1.07
330.87,5.82,4.75,5.80,4.73,-4.73,-4.38,-4.05,1.08,1.07,1.07
334.18,5.77,4.69,5.75,4.68,-4.68,-4.33,-3.97,1.09,1.07,1.07
337.52,5.71,4.63,5.70,4.62,-4.62,-4.28,-3.90,1.08,1.08,1.08
340.90,5.65,4.55,5.65,4.56,-4.56,-4.23,-3.83,1.08,1.09,1.09
344.30,5.58,4.48,5.60,4.50,-4.50,-4.18,-3.76,1.07,1.09,1.10
347.75,5.54,4.43,5.54,4.44,-4.44,-4.14,-3.69,1.10,1.10,1.10
351.23,5.48,4.38,5.48,4.38,-4.38,-4.09,-3.63,1.10,1.11,1.10
354.74,5.44,4.31,5.43,4.31,-4.31,-4.03,-3.57,1.12,1.11,1.12
358.28,5.39,4.27,5.37,4.25,-4.25,-3.98,-3.52,1.14,1.12,1.12
361.87,5.33,4.20,5.31,4.19,-4.19,-3.93,-3.46,1.14,1.13,1.13
365.49,5.25,4.11,5.26,4.12,-4.12,-3.88,-3.41,1.12,1.13,1.13
369.14,5.19,4.04,5.20,4.06,-4.06,-3.83,-3.37,1.13,1.14,1.15
372.83,5.14,3.98,5.15,4.00,-4.00,-3.78,-3.32,1.14,1.15,1.15
376.56,5.09,3.93,5.09,3.94,-3.94,-3.72,-3.28,1.15,1.16,1.15
380.33,5.05,3.89,5.04,3.87,-3.87,-3.67,-3.24,1.17,1.17,1.16
384.13,5.00,3.82,4.99,3.81,-3.81,-3.62,-3.20,1.18,1.17,1.18
387.97,4.95,3.76,4.94,3.75,-3.75,-3.56,-3.16,1.19,1.18,1.18
391.85,4.89,3.70,4.89,3.69,-3.69,-3.51,-3.13,1.19,1.19,1.19
395.77,4.84,3.64,4.84,3.64,-3.64,-3.45,-3.10,1.20,1.20,1.20
399.73,4.79,3.58,4.79,3.58,-3.58,-3.40,-3.07,1.20,1.21,1.20
403.72,4.74,3.50,4.75,3.53,-3.53,-3.34,-3.04,1.20,1.22,1.23
407.76,4.70,3.47,4.71,3.48,-3.48,-3.29,-3.02,1.21,1.23,1.23
411.84,4.66,3.42,4.67,3.43,-3.43,-3.23,-2.99,1.22,1.24,1.24
415.96,4.63,3.37,4.63,3.38,-3.38,-3.18,-2.97,1.24,1.25,1.25
420.12,4.59,3.33,4.59,3.33,-3.33,-3.12,-2.95,1.25,1.25,1.25
424.32,4.56,3.30,4.55,3.29,-3.29,-3.07,-2.93,1.27,1.26,1.26
428.56,4.52,3.24,4.51,3.24,-3.24,-3.01,-2.91,1.28,1.27,1.28
432.85,4.48,3.19,4.47,3.19,-3.19,-2.95,-2.89,1.28,1.28,1.29
437.18,4.44,3.15,4.43,3.15,-3.15,-2.90,-2.87,1.29,1.29,1.28
441.55,4.40,3.10,4.39,3.10,-3.10,-2.84,-2.85,1.30,1.30,1.29
445.96,4.36,3.06,4.35,3.05,-3.05,-2.78,-2.83,1.31,1.30,1.30
450.42,4.31,3.00,4.31,2.99,-2.99,-2.73,-2.81,1.31,1.31,1.31
454.93,4.26,2.94,4.26,2.94,-2.94,-2.67,-2.79,1.32,1.32,1.32
459.48,4.22,2.89,4.21,2.88,-2.88,-2.62,-2.76,1.34,1.33,1.33
464.07,4.18,2.83,4.16,2.82,-2.82,-2.56,-2.74,1.36,1.34,1.34
468.71,4.13,2.77,4.11,2.76,-2.76,-2.50,-2.71,1.37,1.35,1.35
473.40,4.06,2.69,4.05,2.70,-2.70,-2.45,-2.69,1.36,1.36,1.36
478.13,4.00,2.63,4.00,2.63,-2.63,-2.39,-2.66,1.36,1.37,1.37
482.91,3.94,2.56,3.95,2.57,-2.57,-2.33,-2.63,1.37,1.38,1.38
487.74,3.88,2.49,3.90,2.51,-2.51,-2.28,-2.60,1.37,1.39,1.39
492.62,3.83,2.43,3.84,2.44,-2.44,-2.22,-2.56,1.38,1.40,1.40
497.55,3.79,2.38,3.79,2.38,-2.38,-2.16,-2.52,1.40,1.41,1.41
502.52,3.74,2.32,3.74,2.32,-2.32,-2.10,-2.48,1.42,1.42,1.41
507.55,3.69,2.25,3.69,2.26,-2.26,-2.05,-2.44,1.43,1.43,1.43
512.62,3.64,2.19,3.64,2.19,-2.19,-1.99,-2.39,1.44,1.44,1.44
517.75,3.58,2.12,3.58,2.13,-2.13,-1.93,-2.35,1.45,1.46,1.46
522.93,3.55,2.08,3.53,2.07,-2.07,-1.88,-2.29,1.48,1.47,1.47
528.16,3.50,2.02,3.48,2.00,-2.00,-1.82,-2.24,1.49,1.48,1.48
