frequency,raw,error,smoothed,error_smoothed,equalization,parametric_eq,fixed_band_eq,equalized_raw,equalized_smoothed,target
20.00,0.64,-4.90,0.60,-4.97,4.97,4.20,1.87,5.61,5.56,5.54
20.20,0.67,-4.92,0.65,-4.95,4.95,4.24,1.93,5.62,5.60,5.59
20.40,0.71,-4.93,0.71,-4.93,4.93,4.28,1.99,5.64,5.64,5.64
20.61,0.74,-4.93,0.76,-4.91,4.91,4.31,2.05,5.65,5.67,5.66
20.81,0.77,-4.95,0.81,-4.89,4.89,4.35,2.11,5.66,5.70,5.72
21.02,0.81,-4.95,0.86,-4.87,4.87,4.38,2.17,5.68,5.73,5.76
21.23,0.88,-4.90,0.91,-4.84,4.84,4.41,2.24,5.73,5.75,5.78
21.44,0.94,-4.85,0.96,-4.82,4.82,4.44,2.30,5.76,5.78,5.80
21.66,1.01,-4.81,1.00,-4.80,4.80,4.47,2.37,5.81,5.80,5.82
21.87,1.08,-4.74,1.04,-4.78,4.78,4.50,2.44,5.86,5.82,5.83
22.09,1.13,-4.72,1.08,-4.75,4.75,4.52,2.51,5.88,5.83,5.85
22.31,1.15,-4.70,1.12,-4.73,4.73,4.54,2.59,5.88,5.85,5.86
22.54,1.17,-4.69,1.15,-4.70,4.70,4.57,2.67,5.87,5.85,5.86
22.76,1.20,-4.66,1.19,-4.66,4.66,4.59,2.74,5.86,5.86,5.86
22.99,1.22,-4.63,1.22,-4.63,4.63,4.61,2.83,5.85,5.86,5.85
23.22,1.24,-4.61,1.26,-4.60,4.60,4.62,2.91,5.84,5.86,5.85
23.45,1.26,-4.59,1.28,-4.58,4.58,4.64,2.99,5.84,5.86,5.85
23.69,1.28,-4.58,1.30,-4.56,4.56,4.65,3.08,5.84,5.86,5.86
23.92,1.30,-4.55,1.32,-4.54,4.54,4.66,3.17,5.84,5.86,5.86
24.16,1.33,-4.53,1.33,-4.52,4.52,4.67,3.25,5.85,5.86,5.86
24.40,1.36,-4.50,1.35,-4.51,4.51,4.67,3.35,5.87,5.86,5.87
24.65,1.39,-4.47,1.37,-4.48,4.48,4.68,3.44,5.87,5.86,5.86
24.89,1.43,-4.43,1.40,-4.46,4.46,4.68,3.53,5.89,5.86,5.86
25.14,1.44,-4.42,1.42,-4.44,4.44,4.68,3.62,5.88,5.86,5.86
25.39,1.44,-4.43,1.44,-4.42,4.42,4.68,3.72,5.86,5.86,5.87
25.65,1.45,-4.42,1.47,-4.39,4.39,4.67,3.81,5.84,5.86,5.87
25.91,1.45,-4.41,1.49,-4.37,4.37,4.67,3.91,5.82,5.86,5.86
26.16,1.48,-4.37,1.51,-4.34,4.34,4.66,4.00,5.83,5.86,5.86
26.43,1.53,-4.33,1.54,-4.32,4.32,4.65,4.10,5.85,5.86,5.86
26.69,1.57,-4.29,1.56,-4.29,4.29,4.64,4.19,5.86,5.85,5.86
26.96,1.62,-4.24,1.59,-4.26,4.26,4.62,4.28,5.88,5.85,5.86
27.23,1.64,-4.22,1.62,-4.23,4.23,4.61,4.37,5.87,5.85,5.86
27.50,1.66,-4.20,1.65,-4.20,4.20,4.59,4.46,5.86,5.85,5.86
27.77,1.67,-4.18,1.68,-4.16,4.16,4.57,4.54,5.83,5.85,5.85
28.05,1.69,-4.16,1.72,-4.13,4.13,4.55,4.62,5.82,5.85,5.85
28.33,1.73,-4.11,1.75,-4.09,4.09,4.52,4.70,5.82,5.84,5.84
28.62,1.77,-4.07,1.79,-4.06,4.06,4.50,4.77,5.82,5.84,5.84
28.90,1.82,-4.03,1.82,-4.03,4.03,4.47,4.84,5.85,5.84,5.85
29.19,1.85,-3.99,1.84,-4.00,4.00,4.44,4.90,5.85,5.84,5.84
29.48,1.89,-3.95,1.86,-3.97,3.97,4.41,4.95,5.87,5.84,5.85
29.78,1.92,-3.92,1.89,-3.95,3.95,4.38,5.00,5.87,5.84,5.84
30.08,1.95,-3.90,1.91,-3.92,3.92,4.34,5.04,5.87,5.84,5.85
30.38,1.95,-3.89,1.94,-3.90,3.90,4.31,5.07,5.85,5.83,5.84
30.68,1.96,-3.88,1.96,-3.87,3.87,4.27,5.10,5.83,5.83,5.84
30.99,1.96,-3.88,1.98,-3.85,3.85,4.23,5.12,5.81,5.83,5.84
31.30,1.97,-3.86,1.99,-3.84,3.84,4.20,5.13,5.81,5.83,5.83
31.61,1.98,-3.85,2.00,-3.82,3.82,4.16,5.13,5.80,5.83,5.83
31.93,1.99,-3.84,2.01,-3.81,3.81,4.11,5.12,5.80,5.82,5.83
32.24,2.02,-3.79,2.02,-3.80,3.80,4.07,5.11,5.82,5.82,5.82
32.57,2.05,-3.77,2.03,-3.78,3.78,4.03,5.09,5.83,5.81,5.82
32.89,2.09,-3.73,2.04,-3.77,3.77,3.99,5.06,5.86,5.81,5.82
33.22,2.09,-3.72,2.05,-3.75,3.75,3.94,5.03,5.84,5.81,5.81
33.55,2.07,-3.74,2.07,-3.73,3.73,3.90,4.99,5.80,5.80,5.81
33.89,2.06,-3.74,2.09,-3.70,3.70,3.85,4.94,5.76,5.80,5.80
34.23,2.08,-3.72,2.12,-3.67,3.67,3.80,4.89,5.75,5.79,5.80
34.57,2.11,-3.68,2.14,-3.65,3.65,3.76,4.83,5.76,5.79,5.79
34.92,2.15,-3.64,2.16,-3.62,3.62,3.71,4.77,5.77,5.78,5.79
35.27,2.17,-3.61,2.19,-3.59,3.59,3.66,4.70,5.76,5.78,5.78
35.62,2.19,-3.59,2.21,-3.57,3.57,3.61,4.64,5.76,5.78,5.78
35.97,2.21,-3.56,2.23,-3.54,3.54,3.56,4.57,5.75,5.78,5.78
36.33,2.27,-3.50,2.25,-3.52,3.52,3.52,4.50,5.79,5.77,5.78
36.70,2.33,-3.44,2.27,-3.50,3.50,3.47,4.42,5.83,5.77,5.77
37.06,2.38,-3.39,2.29,-3.48,3.48,3.42,4.35,5.86,5.77,5.77
37.43,2.35,-3.43,2.31,-3.46,3.46,3.37,4.27,5.81,5.77,5.78
37.81,2.32,-3.46,2.33,-3.44,3.44,3.32,4.20,5.76,5.77,5.78
38.19,2.32,-3.45,2.34,-3.43,3.43,3.27,4.12,5.75,5.77,5.77
38.57,2.34,-3.44,2.36,-3.42,3.42,3.22,4.05,5.76,5.77,5.78
38.95,2.37,-3.42,2.37,-3.40,3.40,3.17,3.98,5.77,5.78,5.79
39.34,2.37,-3.41,2.39,-3.39,3.39,3.12,3.91,5.76,5.78,5.78
39.74,2.37,-3.41,2.40,-3.38,3.38,3.07,3.84,5.75,5.78,5.78
40.14,2.38,-3.40,2.41,-3.37,3.37,3.02,3.77,5.75,5.77,5.78
40.54,2.40,-3.38,2.42,-3.36,3.36,2.97,3.70,5.76,5.77,5.78
40.94,2.42,-3.35,2.43,-3.34,3.34,2.92,3.64,5.76,5.77,5.77
41.35,2.45,-3.32,2.44,-3.32,3.32,2.88,3.57,5.77,5.76,5.77
41.76,2.48,-3.28,2.46,-3.30,3.30,2.83,3.51,5.78,5.76,5.76
42.18,2.50,-3.26,2.47,-3.27,3.27,2.78,3.46,5.77,5.75,5.76
42.60,2.51,-3.24,2.49,-3.25,3.25,2.73,3.40,5.76,5.74,5.75
43.03,2.52,-3.22,2.50,-3.23,3.23,2.68,3.35,5.75,5.73,5.74
43.46,2.51,-3.22,2.51,-3.20,3.20,2.64,3.30,5.71,5.71,5.73
43.90,2.49,-3.22,2.52,-3.18,3.18,2.59,3.25,5.67,5.70,5.71
44.33,2.51,-3.17,2.54,-3.16,3.16,2.54,3.20,5.67,5.69,5.69
44.78,2.54,-3.13,2.54,-3.13,3.13,2.50,3.16,5.67,5.68,5.67
45.23,2.55,-3.11,2.55,-3.12,3.12,2.45,3.12,5.67,5.66,5.66
45.68,2.56,-3.09,2.55,-3.10,3.10,2.41,3.08,5.66,5.65,5.65
46.13,2.57,-3.06,2.56,-3.08,3.08,2.36,3.05,5.65,5.64,5.63
46.60,2.57,-3.06,2.56,-3.06,3.06,2.32,3.01,5.63,5.62,5.63
47.06,2.57,-3.04,2.56,-3.05,3.05,2.27,2.98,5.62,5.61,5.61
47.53,2.57,-3.03,2.56,-3.03,3.03,2.23,2.95,5.60,5.59,5.60
48.01,2.57,-3.03,2.56,-3.01,3.01,2.18,2.93,5.58,5.58,5.60
48.49,2.57,-3.01,2.57,-3.00,3.00,2.14,2.90,5.57,5.56,5.58
48.97,2.57,-2.99,2.57,-2.98,2.98,2.10,2.88,5.55,5.55,5.56
49.46,2.57,-2.97,2.58,-2.96,2.96,2.06,2.86,5.53,5.54,5.54
49.96,2.57,-2.95,2.58,-2.94,2.94,2.02,2.84,5.51,5.52,5.52
50.46,2.57,-2.94,2.59,-2.92,2.92,1.97,2.82,5.49,5.51,5.51
50.96,2.56,-2.94,2.60,-2.90,2.90,1.93,2.81,5.46,5.50,5.50
51.47,2.59,-2.89,2.61,-2.88,2.88,1.89,2.79,5.47,5.48,5.48
51.99,2.62,-2.85,2.62,-2.85,2.85,1.85,2.78,5.47,5.47,5.47
52.51,2.64,-2.82,2.63,-2.83,2.83,1.81,2.77,5.47,5.46,5.46
53.03,2.66,-2.80,2.64,-2.81,2.81,1.78,2.76,5.47,5.45,5.46
53.56,2.67,-2.77,2.65,-2.79,2.79,1.74,2.75,5.46,5.43,5.44
54.10,2.67,-2.76,2.66,-2.77,2.77,1.70,2.73,5.44,5.42,5.43
54.64,2.67,-2.74,2.66,-2.75,2.75,1.66,2.72,5.42,5.41,5.41
55.18,2.67,-2.74,2.66,-2.74,2.74,1.62,2.71,5.41,5.40,5.41
55.74,2.67,-2.72,2.67,-2.73,2.73,1.59,2.70,5.40,5.39,5.39
56.29,2.67,-2.71,2.66,-2.71,2.71,1.55,2.69,5.38,5.38,5.38
56.86,2.67,-2.70,2.67,-2.70,2.70,1.52,2.67,5.37,5.36,5.37
57.42,2.67,-2.67,2.67,-2.68,2.68,1.48,2.66,5.35,5.35,5.34
58.00,2.67,-2.66,2.67,-2.66,2.66,1.44,2.64,5.33,5.33,5.33
58.58,2.67,-2.65,2.68,-2.63,2.63,1.41,2.63,5.30,5.31,5.32
59.16,2.66,-2.64,2.68,-2.60,2.60,1.38,2.61,5.26,5.28,5.30
59.76,2.63,-2.65,2.69,-2.56,2.56,1.34,2.59,5.19,5.25,5.28
60.35,2.66,-2.57,2.70,-2.52,2.52,1.31,2.56,5.18,5.22,5.24
60.96,2.72,-2.48,2.72,-2.47,2.47,1.27,2.54,5.19,5.19,5.20
61.57,2.72,-2.44,2.73,-2.43,2.43,1.24,2.51,5.15,5.15,5.16
62.18,2.74,-2.37,2.74,-2.38,2.38,1.21,2.48,5.12,5.11,5.12
62.80,2.80,-2.27,2.74,-2.33,2.33,1.18,2.44,5.13,5.07,5.07
63.43,2.80,-2.23,2.75,-2.28,2.28,1.15,2.41,5.08,5.03,5.03
64.07,2.77,-2.21,2.76,-2.23,2.23,1.11,2.37,5.00,4.99,4.98
64.71,2.77,-2.17,2.76,-2.18,2.18,1.08,2.33,4.95,4.94,4.94
65.35,2.77,-2.12,2.76,-2.13,2.13,1.05,2.29,4.90,4.89,4.89
66.01,2.78,-2.07,2.76,-2.09,2.09,1.02,2.24,4.87,4.85,4.85
66.67,2.75,-2.05,2.76,-2.04,2.04,0.99,2.19,4.79,4.80,4.80
67.33,2.73,-2.02,2.76,-2.00,2.00,0.96,2.14,4.73,4.75,4.75
68.01,2.72,-1.99,2.75,-1.96,1.96,0.93,2.09,4.68,4.70,4.71
68.69,2.72,-1.94,2.74,-1.91,1.91,0.90,2.03,4.63,4.65,4.66
69.37,2.72,-1.88,2.73,-1.87,1.87,0.87,1.98,4.59,4.60,4.60
70.07,2.72,-1.84,2.72,-1.83,1.83,0.84,1.92,4.55,4.55,4.56
70.77,2.72,-1.79,2.72,-1.78,1.78,0.82,1.86,4.50,4.50,4.51
71.48,2.72,-1.74,2.71,-1.73,1.73,0.79,1.80,4.45,4.44,4.46
72.19,2.72,-1.67,2.71,-1.68,1.68,0.76,1.74,4.40,4.39,4.39
72.91,2.72,-1.61,2.70,-1.63,1.63,0.73,1.68,4.35,4.33,4.33
73.64,2.72,-1.56,2.69,-1.59,1.59,0.70,1.61,4.31,4.27,4.28
74.38,2.70,-1.52,2.68,-1.54,1.54,0.68,1.55,4.24,4.22,4.22
75.12,2.66,-1.50,2.68,-1.49,1.49,0.65,1.48,4.15,4.16,4.16
75.87,2.66,-1.43,2.67,-1.43,1.43,0.62,1.42,4.09,4.11,4.10
76.63,2.67,-1.38,2.67,-1.38,1.38,0.59,1.35,4.05,4.05,4.05
77.40,2.67,-1.33,2.67,-1.33,1.33,0.57,1.29,4.00,4.00,4.00
78.17,2.67,-1.27,2.68,-1.27,1.27,0.54,1.22,3.94,3.94,3.94
78.95,2.67,-1.23,2.68,-1.21,1.21,0.51,1.16,3.88,3.89,3.89
79.74,2.63,-1.22,2.69,-1.15,1.15,0.49,1.09,3.78,3.84,3.84
80.54,2.63,-1.16,2.70,-1.09,1.09,0.46,1.03,3.72,3.80,3.80
81.35,2.70,-1.05,2.72,-1.03,1.03,0.43,0.96,3.73,3.75,3.75
82.16,2.81,-0.89,2.74,-0.96,0.96,0.41,0.90,3.77,3.70,3.70
82.98,2.76,-0.90,2.75,-0.90,0.90,0.38,0.83,3.66,3.65,3.66
83.81,2.79,-0.82,2.77,-0.84,0.84,0.36,0.77,3.63,3.60,3.61
84.65,2.81,-0.75,2.78,-0.78,0.78,0.33,0.71,3.59,3.56,3.56
85.50,2.82,-0.70,2.79,-0.72,0.72,0.30,0.64,3.54,3.51,3.52
86.35,2.82,-0.65,2.80,-0.66,0.66,0.28,0.58,3.48,3.46,3.47
87.22,2.82,-0.60,2.80,-0.60,0.60,0.25,0.52,3.42,3.41,3.42
88.09,2.82,-0.55,2.82,-0.54,0.54,0.23,0.45,3.36,3.36,3.37
88.97,2.82,-0.49,2.83,-0.48,0.48,0.20,0.39,3.30,3.31,3.31
89.86,2.82,-0.44,2.83,-0.42,0.42,0.17,0.33,3.24,3.26,3.26
90.76,2.82,-0.39,2.84,-0.37,0.37,0.15,0.27,3.19,3.21,3.21
91.66,2.79,-0.37,2.84,-0.31,0.31,0.12,0.21,3.10,3.16,3.16
92.58,2.78,-0.32,2.85,-0.25,0.25,0.10,0.14,3.03,3.10,3.10
93.51,2.83,-0.22,2.86,-0.19,0.19,0.07,0.08,3.02,3.05,3.05
94.44,2.88,-0.13,2.87,-0.14,0.14,0.05,0.02,3.02,3.00,3.01
95.39,2.89,-0.07,2.87,-0.08,0.08,0.02,-0.04,2.97,2.95,2.96
96.34,2.93,0.02,2.88,-0.03,0.03,-0.01,-0.10,2.96,2.91,2.91
97.30,2.95,0.09,2.88,0.02,-0.02,-0.03,-0.16,2.93,2.86,2.86
98.28,2.91,0.10,2.88,0.07,-0.07,-0.06,-0.21,2.84,2.81,2.81
99.26,2.89,0.12,2.88,0.11,-0.11,-0.09,-0.27,2.78,2.76,2.77
100.25,2.87,0.15,2.87,0.16,-0.16,-0.11,-0.33,2.71,2.71,2.72
101.25,2.85,0.18,2.87,0.20,-0.20,-0.14,-0.39,2.65,2.67,2.67
102.27,2.84,0.22,2.86,0.24,-0.24,-0.17,-0.45,2.60,2.62,2.62
103.29,2.83,0.26,2.84,0.27,-0.27,-0.19,-0.50,2.56,2.57,2.57
104.32,2.81,0.28,2.82,0.30,-0.30,-0.22,-0.56,2.51,2.52,2.53
105.37,2.79,0.31,2.80,0.33,-0.33,-0.25,-0.61,2.46,2.47,2.48
106.42,2.76,0.33,2.78,0.36,-0.36,-0.28,-0.67,2.40,2.42,2.43
107.48,2.76,0.39,2.76,0.39,-0.39,-0.30,-0.72,2.37,2.36,2.37
108.56,2.77,0.45,2.74,0.43,-0.43,-0.33,-0.77,2.34,2.31,2.32
109.64,2.75,0.48,2.73,0.47,-0.47,-0.36,-0.82,2.28,2.26,2.27
110.74,2.73,0.52,2.71,0.50,-0.50,-0.39,-0.87,2.23,2.21,2.21
111.85,2.71,0.54,2.70,0.55,-0.55,-0.42,-0.92,2.16,2.16,2.17
112.97,2.70,0.59,2.70,0.59,-0.59,-0.45,-0.97,2.11,2.11,2.11
114.10,2.69,0.63,2.70,0.64,-0.64,-0.48,-1.01,2.05,2.06,2.06
115.24,2.69,0.68,2.71,0.70,-0.70,-0.51,-1.06,1.99,2.01,2.01
116.39,2.68,0.72,2.73,0.76,-0.76,-0.54,-1.10,1.92,1.97,1.96
117.55,2.69,0.77,2.74,0.82,-0.82,-0.57,-1.14,1.88,1.92,1.92
118.73,2.73,0.85,2.75,0.87,-0.87,-0.60,-1.18,1.86,1.88,1.88
119.92,2.73,0.88,2.77,0.92,-0.92,-0.63,-1.21,1.81,1.85,1.85
121.12,2.73,0.92,2.78,0.97,-0.97,-0.66,-1.25,1.76,1.81,1.81
122.33,2.85,1.07,2.80,1.03,-1.03,-0.69,-1.28,1.82,1.78,1.78
123.55,2.92,1.17,2.82,1.08,-1.08,-0.73,-1.31,1.84,1.74,1.75
124.79,2.90,1.18,2.84,1.13,-1.13,-0.76,-1.33,1.77,1.71,1.72
126.03,2.90,1.21,2.85,1.17,-1.17,-0.79,-1.36,1.73,1.68,1.69
127.29,2.90,1.23,2.86,1.21,-1.21,-0.83,-1.38,1.69,1.65,1.67
128.57,2.86,1.23,2.87,1.25,-1.25,-0.86,-1.40,1.61,1.62,1.63
129.85,2.81,1.21,2.87,1.28,-1.28,-0.90,-1.42,1.53,1.59,1.60
131.15,2.85,1.28,2.87,1.30,-1.30,-0.93,-1.43,1.55,1.57,1.57
132.46,2.87,1.33,2.86,1.32,-1.32,-0.97,-1.45,1.55,1.54,1.54
133.79,2.85,1.34,2.85,1.34,-1.34,-1.00,-1.46,1.51,1.51,1.51
135.12,2.87,1.39,2.84,1.36,-1.36,-1.04,-1.47,1.51,1.48,1.48
136.48,2.81,1.35,2.82,1.37,-1.37,-1.07,-1.48,1.44,1.45,1.46
137.84,2.79,1.37,2.81,1.38,-1.38,-1.11,-1.49,1.41,1.43,1.42
139.22,2.79,1.40,2.81,1.41,-1.41,-1.15,-1.50,1.38,1.40,1.39
140.61,2.79,1.43,2.80,1.43,-1.43,-1.19,-1.51,1.36,1.37,1.36
142.02,2.79,1.45,2.79,1.46,-1.46,-1.23,-1.51,1.33,1.34,1.34
143.44,2.79,1.48,2.79,1.49,-1.49,-1.26,-1.52,1.30,1.30,1.31
144.87,2.79,1.52,2.80,1.54,-1.54,-1.30,-1.52,1.25,1.26,1.27
146.32,2.79,1.56,2.80,1.58,-1.58,-1.34,-1.53,1.21,1.22,1.23
147.78,2.79,1.59,2.80,1.63,-1.63,-1.38,-1.53,1.16,1.17,1.20
149.26,2.79,1.64,2.80,1.68,-1.68,-1.42,-1.53,1.11,1.12,1.15
150.75,2.79,1.70,2.80,1.74,-1.74,-1.46,-1.54,1.05,1.06,1.09
152.26,2.79,1.77,2.79,1.80,-1.80,-1.51,-1.54,0.99,1.00,1.02
153.78,2.79,1.84,2.79,1.86,-1.86,-1.55,-1.55,0.93,0.93,0.95
155.32,2.79,1.91,2.78,1.92,-1.92,-1.59,-1.56,0.87,0.86,0.88
156.88,2.83,2.03,2.76,1.97,-1.97,-1.63,-1.56,0.86,0.79,0.80
158.44,2.84,2.12,2.74,2.02,-2.02,-1.67,-1.57,0.82,0.72,0.72
160.03,2.77,2.13,2.72,2.06,-2.06,-1.72,-1.58,0.71,0.65,0.64
161.63,2.66,2.09,2.69,2.11,-2.11,-1.76,-1.59,0.55,0.59,0.57
163.24,2.60,2.09,2.67,2.14,-2.14,-1.80,-1.60,0.46,0.53,0.51
164.88,2.62,2.16,2.64,2.17,-2.17,-1.84,-1.61,0.45,0.47,0.46
166.53,2.63,2.22,2.62,2.20,-2.20,-1.89,-1.62,0.43,0.42,0.41
168.19,2.60,2.23,2.60,2.22,-2.22,-1.93,-1.64,0.38,0.38,0.37
169.87,2.57,2.24,2.58,2.24,-2.24,-1.97,-1.65,0.33,0.35,0.33
171.57,2.56,2.25,2.57,2.25,-2.25,-2.01,-1.67,0.31,0.32,0.31
173.29,2.51,2.21,2.56,2.26,-2.26,-2.05,-1.69,0.25,0.30,0.30
175.02,2.49,2.20,2.56,2.27,-2.27,-2.10,-1.71,0.22,0.29,0.29
176.77,2.57,2.29,2.56,2.28,-2.28,-2.14,-1.73,0.29,0.28,0.28
178.54,2.60,2.33,2.58,2.30,-2.30,-2.18,-1.75,0.30,0.27,0.27
180.32,2.60,2.32,2.59,2.32,-2.32,-2.22,-1.77,0.28,0.27,0.28
182.13,2.61,2.32,2.60,2.34,-2.34,-2.25,-1.80,0.27,0.26,0.29
183.95,2.62,2.34,2.61,2.35,-2.35,-2.29,-1.83,0.27,0.26,0.28
185.79,2.63,2.35,2.62,2.37,-2.37,-2.33,-1.85,0.26,0.25,0.28
187.65,2.64,2.38,2.63,2.39,-2.39,-2.37,-1.88,0.25,0.24,0.26
189.52,2.66,2.41,2.65,2.41,-2.41,-2.40,-1.91,0.25,0.23,0.25
191.42,2.67,2.44,2.66,2.44,-2.44,-2.43,-1.95,0.23,0.22,0.23
193.33,2.68,2.47,2.67,2.46,-2.46,-2.47,-1.98,0.22,0.20,0.21
195.27,2.70,2.51,2.67,2.48,-2.48,-2.50,-2.01,0.22,0.19,0.19
197.22,2.69,2.52,2.67,2.50,-2.50,-2.53,-2.05,0.19,0.17,0.17
199.19,2.64,2.49,2.68,2.53,-2.53,-2.55,-2.08,0.11,0.15,0.15
201.18,2.62,2.49,2.68,2.55,-2.55,-2.58,-2.12,0.07,0.13,0.13
203.19,2.67,2.56,2.69,2.58,-2.58,-2.60,-2.16,0.09,0.11,0.11
205.23,2.69,2.60,2.68,2.60,-2.60,-2.63,-2.19,0.09,0.09,0.09
207.28,2.69,2.61,2.68,2.61,-2.61,-2.65,-2.23,0.08,0.07,0.08
209.35,2.69,2.63,2.67,2.63,-2.63,-2.66,-2.27,0.06,0.05,0.06
211.44,2.68,2.65,2.66,2.63,-2.63,-2.68,-2.31,0.05,0.03,0.03
213.56,2.68,2.66,2.65,2.64,-2.64,-2.69,-2.34,0.04,0.02,0.02
215.69,2.68,2.67,2.65,2.65,-2.65,-2.70,-2.38,0.03,0.00,0.01
217.85,2.67,2.67,2.65,2.66,-2.66,-2.71,-2.42,0.01,-0.01,-0.00
220.03,2.64,2.65,2.65,2.67,-2.67,-2.72,-2.45,-0.03,-0.02,-0.01
222.23,2.62,2.66,2.64,2.67,-2.67,-2.72,-2.48,-0.05,-0.02,-0.04
224.45,2.58,2.61,2.63,2.66,-2.66,-2.73,-2.52,-0.08,-0.03,-0.03
226.70,2.57,2.60,2.62,2.64,-2.64,-2.73,-2.55,-0.07,-0.03,-0.03
228.96,2.57,2.59,2.60,2.62,-2.62,-2.72,-2.57,-0.05,-0.02,-0.02
231.25,2.58,2.59,2.58,2.60,-2.60,-2.72,-2.60,-0.02,-0.01,-0.01
233.57,2.60,2.60,2.57,2.57,-2.57,-2.71,-2.62,0.03,-0.00,-0.00
235.90,2.66,2.65,2.55,2.54,-2.54,-2.70,-2.64,0.12,0.01,0.01
238.26,2.64,2.62,2.55,2.52,-2.52,-2.69,-2.66,0.12,0.03,0.02
240.64,2.55,2.50,2.54,2.49,-2.49,-2.67,-2.67,0.06,0.05,0.05
243.05,2.49,2.41,2.54,2.48,-2.48,-2.66,-2.68,0.01,0.07,0.08
245.48,2.48,2.38,2.55,2.46,-2.46,-2.64,-2.68,0.02,0.09,0.10
247.93,2.49,2.36,2.55,2.44,-2.44,-2.62,-2.69,0.05,0.12,0.13
250.41,2.46,2.31,2.55,2.41,-2.41,-2.60,-2.68,0.05,0.14,0.15
252.92,2.47,2.29,2.55,2.39,-2.39,-2.57,-2.68,0.08,0.16,0.18
255.45,2.57,2.37,2.54,2.36,-2.36,-2.55,-2.67,0.21,0.19,0.20
258.00,2.60,2.38,2.54,2.32,-2.32,-2.52,-2.66,0.28,0.21,0.22
260.58,2.60,2.36,2.53,2.29,-2.29,-2.49,-2.64,0.31,0.24,0.24
263.19,2.61,2.34,2.52,2.26,-2.26,-2.46,-2.62,0.35,0.26,0.27
265.82,2.61,2.32,2.52,2.23,-2.23,-2.43,-2.60,0.38,0.29,0.29
268.48,2.56,2.25,2.52,2.21,-2.21,-2.40,-2.57,0.35,0.31,0.31
271.16,2.49,2.15,2.52,2.18,-2.18,-2.36,-2.54,0.31,0.34,0.34
273.87,2.44,2.08,2.51,2.15,-2.15,-2.33,-2.51,0.29,0.36,0.36
276.61,2.44,2.05,2.50,2.11,-2.11,-2.29,-2.48,0.33,0.39,0.39
279.38,2.44,2.02,2.49,2.07,-2.07,-2.26,-2.44,0.37,0.41,0.42
282.17,2.44,2.00,2.47,2.03,-2.03,-2.22,-2.40,0.41,0.44,0.44
284.99,2.45,1.97,2.45,1.98,-1.98,-2.18,-2.36,0.47,0.47,0.48
287.84,2.46,1.96,2.44,1.94,-1.94,-2.15,-2.32,0.52,0.50,0.50
290.72,2.47,1.94,2.44,1.91,-1.91,-2.11,-2.28,0.56,0.53,0.53
293.63,2.44,1.88,2.43,1.87,-1.87,-2.07,-2.23,0.57,0.56,0.56
296.57,2.44,1.85,2.44,1.85,-1.85,-2.03,-2.19,0.59,0.59,0.59
299.53,2.46,1.84,2.45,1.83,-1.83,-1.99,-2.15,0.63,0.61,0.62
302.53,2.45,1.81,2.45,1.81,-1.81,-1.95,-2.10,0.64,0.64,0.64
305.55,2.43,1.75,2.46,1.79,-1.79,-1.91,-2.06,0.64,0.67,0.68
308.61,2.44,1.74,2.46,1.77,-1.77,-1.88,-2.01,0.67,0.69,0.70
311.69,2.44,1.71,2.46,1.75,-1.75,-1.84,-1.97,0.69,0.72,0.73
314.81,2.45,1.70,2.46,1.72,-1.72,-1.80,-1.92,0.73,0.74,0.75
317.96,2.45,1.68,2.45,1.69,-1.69,-1.76,-1.88,0.76,0.76,0.77
321.14,2.46,1.68,2.44,1.66,-1.66,-1.72,-1.84,0.80,0.78,0.78
324.35,2.49,1.69,2.43,1.63,-1.63,-1.68,-1.80,0.86,0.79,0.80
327.59,2.47,1.66,2.41,1.60,-1.60,-1.65,-1.75,0.87,0.81,0.81
330.87,2.42,1.60,2.40,1.57,-1.57,-1.61,-1.71,0.85,0.82,0.82
334.18,2.39,1.55,2.38,1.54,-1.54,-1.57,-1.68,0.85,0.83,0.84
337.52,2.36,1.51,2.36,1.52,-1.52,-1.54,-1.64,0.84,0.84,0.85
340.90,2.33,1.47,2.34,1.49,-1.49,-1.50,-1.60,0.84,0.85,0.86
344.30,2.30,1.43,2.32,1.46,-1.46,-1.46,-1.57,0.84,0.86,0.87
347.75,2.23,1.36,2.30,1.43,-1.43,-1.43,-1.53,0.80,0.86,0.87
351.23,2.20,1.32,2.27,1.40,-1.40,-1.39,-1.50,0.80,0.87,0.88
354.74,2.23,1.36,2.25,1.38,-1.38,-1.36,-1.47,0.85,0.87,0.87
358.28,2.25,1.37,2.24,1.36,-1.36,-1.33,-1.43,0.89,0.88,0.88
361.87,2.26,1.38,2.22,1.35,-1.35,-1.29,-1.41,0.91,0.88,0.88
365.49,2.26,1.37,2.21,1.34,-1.34,-1.26,-1.38,0.92,0.88,0.89
369.14,2.19,1.31,2.21,1.33,-1.33,-1.23,-1.35,0.86,0.88,0.88
372.83,2.17,1.29,2.20,1.32,-1.32,-1.20,-1.32,0.85,0.88,0.88
376.56,2.18,1.31,2.19,1.32,-1.32,-1.17,-1.30,0.86,0.87,0.87
380.33,2.19,1.31,2.18,1.31,-1.31,-1.13,-1.27,0.88,0.87,0.88
384.13,2.18,1.30,2.17,1.30,-1.30,-1.10,-1.25,0.88,0.87,0.88
387.97,2.16,1.29,2.16,1.29,-1.29,-1.07,-1.23,0.87,0.86,0.87
391.85,2.16,1.30,2.14,1.28,-1.28,-1.05,-1.21,0.88,0.86,0.86
395.77,2.16,1.29,2.12,1.27,-1.27,-1.02,-1.19,0.89,0.85,0.87
399.73,2.11,1.25,2.09,1.25,-1.25,-0.99,-1.17,0.86,0.85,0.86
403.72,2.06,1.20,2.07,1.23,-1.23,-0.96,-1.15,0.83,0.84,0.86
407.76,2.05,1.21,2.04,1.21,-1.21,-0.93,-1.13,0.84,0.84,0.84
411.84,2.01,1.17,2.02,1.19,-1.19,-0.91,-1.12,0.82,0.83,0.84
415.96,1.99,1.15,2.00,1.16,-1.16,-0.88,-1.10,0.83,0.83,0.84
420.12,1.98,1.14,1.98,1.14,-1.14,-0.85,-1.08,0.84,0.84,0.84
424.32,1.98,1.14,1.96,1.11,-1.11,-0.83,-1.07,0.87,0.84,0.84
428.56,1.97,1.12,1.95,1.09,-1.09,-0.80,-1.05,0.88,0.85,0.85
432.85,1.93,1.07,1.94,1.07,-1.07,-0.78,-1.04,0.86,0.87,0.86
437.18,1.87,1.00,1.94,1.05,-1.05,-0.75,-1.02,0.82,0.89,0.87
441.55,1.87,0.96,1.95,1.03,-1.03,-0.73,-1.01,0.84,0.91,0.91
445.96,1.92,0.98,1.97,1.02,-1.02,-0.71,-1.00,0.90,0.95,0.94
450.42,1.98,1.01,1.99,1.01,-1.01,-0.68,-0.98,0.97,0.98,0.97
454.93,2.02,1.00,2.01,0.99,-0.99,-0.66,-0.97,1.03,1.02,1.02
459.48,2.03,0.97,2.03,0.96,-0.96,-0.64,-0.95,1.07,1.07,1.06
464.07,2.04,0.93,2.05,0.94,-0.94,-0.62,-0.94,1.10,1.11,1.11
468.71,2.08,0.91,2.08,0.92,-0.92,-0.60,-0.92,1.16,1.16,1.17
473.40,2.15,0.94,2.10,0.89,-0.89,-0.57,-0.90,1.26,1.21,1.21
478.13,2.17,0.90,2.12,0.86,-0.86,-0.55,-0.89,1.31,1.26,1.27
482.91,2.19,0.88,2.14,0.84,-0.84,-0.53,-0.87,1.35,1.30,1.31
487.74,2.21,0.86,2.16,0.82,-0.82,-0.51,-0.85,1.39,1.34,1.35
492.62,2.15,0.75,2.17,0.79,-0.79,-0.49,-0.83,1.36,1.38,1.40
497.55,2.12,0.70,2.17,0.76,-0.76,-0.47,-0.81,1.36,1.41,1.42
502.52,2.12,0.67,2.17,0.73,-0.73,-0.45,-0.79,1.39,1.43,1.45
507.55,2.13,0.67,2.16,0.71,-0.71,-0.43,-0.77,1.42,1.45,1.46
512.62,2.13,0.66,2.14,0.69,-0.69,-0.41,-0.75,1.44,1.45,1.47
517.75,2.11,0.63,2.12,0.66,-0.66,-0.39,-0.72,1.45,1.45,1.48
522.93,2.10,0.63,2.08,0.64,-0.64,-0.37,-0.70,1.46,1.44,1.47
528.16,2.09,0.65,2.03,0.61,-0.61,-0.35,-0.67,1.48,1.42,1.44
533.44,2.05,0.64,1.98,0.59,-0.59,-0.34,-0.65,1.46,1.39,1.41
538.77,1.99,0.61,1.92,0.56,-0.56,-0.32,-0.62,1.43,1.35,1.38
544.16,1.86,0.53,1.86,0.54,-0.54,-0.30,-0.59,1.32,1.31,1.33
549.60,1.81,0.53,1.79,0.53,-0.53,-0.28,-0.56,1.28,1.26,1.28
555.10,1.74,0.52,1.73,0.52,-0.52,-0.26,-0.53,1.22,1.21,1.22
560.65,1.67,0.50,1.66,0.50,-0.50,-0.24,-0.50,1.17,1.16,1.17
