frequency,raw,error,smoothed,error_smoothed,equalization,parametric_eq,fixed_band_eq,equalized_raw,equalized_smoothed,target
20.00,10.42,-0.09,10.43,-0.08,0.08,-0.21,-0.17,10.50,10.51,10.51
20.20,10.47,-0.03,10.48,-0.02,0.02,-0.21,-0.17,10.49,10.50,10.50
20.40,10.51,0.02,10.52,0.03,-0.03,-0.22,-0.17,10.48,10.49,10.49
20.61,10.56,0.08,10.56,0.09,-0.09,-0.22,-0.18,10.48,10.48,10.48
20.81,10.60,0.14,10.60,0.13,-0.13,-0.22,-0.18,10.47,10.47,10.46
21.02,10.63,0.18,10.63,0.18,-0.18,-0.23,-0.19,10.46,10.46,10.45
21.23,10.67,0.23,10.66,0.22,-0.22,-0.23,-0.19,10.45,10.45,10.44
21.44,10.70,0.25,10.69,0.26,-0.26,-0.24,-0.20,10.45,10.44,10.45
21.66,10.72,0.29,10.72,0.29,-0.29,-0.24,-0.20,10.43,10.43,10.43
21.87,10.75,0.32,10.74,0.32,-0.32,-0.25,-0.21,10.43,10.42,10.43
22.09,10.76,0.35,10.76,0.35,-0.35,-0.25,-0.21,10.42,10.41,10.41
22.31,10.78,0.38,10.77,0.37,-0.37,-0.26,-0.22,10.42,10.40,10.40
22.54,10.79,0.40,10.78,0.38,-0.38,-0.26,-0.22,10.41,10.40,10.39
22.76,10.80,0.41,10.79,0.40,-0.40,-0.27,-0.23,10.41,10.39,10.39
22.99,10.79,0.41,10.79,0.40,-0.40,-0.27,-0.23,10.39,10.39,10.38
23.22,10.78,0.41,10.79,0.41,-0.41,-0.28,-0.24,10.37,10.38,10.37
23.45,10.78,0.40,10.79,0.42,-0.42,-0.28,-0.24,10.37,10.37,10.38
23.69,10.77,0.40,10.79,0.42,-0.42,-0.29,-0.25,10.36,10.37,10.37
23.92,10.77,0.41,10.79,0.42,-0.42,-0.29,-0.25,10.35,10.37,10.36
24.16,10.77,0.40,10.78,0.42,-0.42,-0.30,-0.26,10.35,10.36,10.37
24.40,10.77,0.40,10.78,0.42,-0.42,-0.31,-0.27,10.36,10.36,10.37
24.65,10.77,0.41,10.78,0.42,-0.42,-0.31,-0.27,10.36,10.36,10.36
24.89,10.77,0.41,10.77,0.42,-0.42,-0.32,-0.28,10.36,10.36,10.36
25.14,10.77,0.42,10.77,0.42,-0.42,-0.32,-0.29,10.36,10.36,10.35
25.39,10.77,0.42,10.77,0.42,-0.42,-0.33,-0.29,10.36,10.35,10.35
25.65,10.77,0.42,10.77,0.42,-0.42,-0.34,-0.30,10.35,10.35,10.35
25.91,10.77,0.42,10.77,0.42,-0.42,-0.34,-0.31,10.35,10.35,10.35
26.16,10.77,0.41,10.77,0.42,-0.42,-0.35,-0.32,10.35,10.35,10.36
26.43,10.77,0.42,10.77,0.42,-0.42,-0.36,-0.32,10.35,10.35,10.35
26.69,10.77,0.42,10.77,0.42,-0.42,-0.36,-0.33,10.35,10.35,10.35
26.96,10.77,0.42,10.77,0.42,-0.42,-0.37,-0.34,10.35,10.35,10.35
27.23,10.77,0.42,10.77,0.42,-0.42,-0.38,-0.35,10.35,10.35,10.35
27.50,10.77,0.42,10.77,0.42,-0.42,-0.38,-0.35,10.36,10.36,10.35
27.77,10.77,0.41,10.77,0.42,-0.42,-0.39,-0.36,10.36,10.36,10.36
28.05,10.77,0.42,10.77,0.41,-0.41,-0.40,-0.37,10.36,10.36,10.35
28.33,10.77,0.41,10.77,0.41,-0.41,-0.41,-0.38,10.36,10.36,10.36
28.62,10.77,0.41,10.77,0.41,-0.41,-0.41,-0.39,10.36,10.36,10.36
28.90,10.77,0.40,10.77,0.41,-0.41,-0.42,-0.39,10.36,10.36,10.37
29.19,10.77,0.40,10.77,0.41,-0.41,-0.43,-0.40,10.36,10.36,10.37
29.48,10.77,0.41,10.77,0.41,-0.41,-0.44,-0.41,10.36,10.36,10.36
29.78,10.77,0.41,10.77,0.42,-0.42,-0.45,-0.42,10.36,10.36,10.36
30.08,10.77,0.41,10.77,0.42,-0.42,-0.46,-0.43,10.35,10.35,10.36
30.38,10.77,0.43,10.77,0.42,-0.42,-0.46,-0.44,10.35,10.35,10.34
30.68,10.77,0.43,10.77,0.43,-0.43,-0.47,-0.44,10.35,10.35,10.34
30.99,10.77,0.43,10.77,0.43,-0.43,-0.48,-0.45,10.34,10.34,10.34
31.30,10.77,0.43,10.77,0.44,-0.44,-0.49,-0.46,10.34,10.34,10.34
31.61,10.77,0.44,10.77,0.45,-0.45,-0.50,-0.47,10.33,10.33,10.33
31.93,10.77,0.46,10.77,0.45,-0.45,-0.51,-0.48,10.32,10.32,10.31
32.24,10.77,0.45,10.77,0.46,-0.46,-0.52,-0.49,10.31,10.31,10.32
32.57,10.77,0.47,10.77,0.47,-0.47,-0.53,-0.50,10.31,10.31,10.30
32.89,10.77,0.47,10.77,0.47,-0.47,-0.54,-0.51,10.30,10.30,10.30
33.22,10.77,0.48,10.77,0.48,-0.48,-0.55,-0.52,10.29,10.29,10.29
33.55,10.77,0.48,10.77,0.49,-0.49,-0.56,-0.53,10.29,10.29,10.29
33.89,10.77,0.49,10.77,0.49,-0.49,-0.57,-0.54,10.28,10.28,10.28
34.23,10.77,0.51,10.77,0.50,-0.50,-0.58,-0.55,10.27,10.27,10.26
34.57,10.77,0.51,10.77,0.51,-0.51,-0.59,-0.56,10.26,10.26,10.26
34.92,10.77,0.53,10.77,0.52,-0.52,-0.60,-0.57,10.25,10.25,10.24
35.27,10.77,0.51,10.77,0.53,-0.53,-0.61,-0.58,10.24,10.24,10.26
35.62,10.77,0.54,10.77,0.54,-0.54,-0.63,-0.59,10.23,10.23,10.23
35.97,10.77,0.54,10.77,0.55,-0.55,-0.64,-0.60,10.22,10.22,10.23
36.33,10.77,0.56,10.77,0.57,-0.57,-0.65,-0.61,10.21,10.20,10.21
36.70,10.77,0.58,10.77,0.58,-0.58,-0.66,-0.62,10.19,10.19,10.19
37.06,10.77,0.60,10.77,0.60,-0.60,-0.67,-0.63,10.17,10.17,10.17
37.43,10.77,0.62,10.78,0.62,-0.62,-0.69,-0.65,10.15,10.15,10.15
37.81,10.77,0.63,10.78,0.65,-0.65,-0.70,-0.66,10.13,10.13,10.14
38.19,10.77,0.66,10.78,0.67,-0.67,-0.71,-0.67,10.10,10.12,10.11
38.57,10.77,0.68,10.79,0.69,-0.69,-0.72,-0.69,10.08,10.09,10.09
38.95,10.77,0.69,10.79,0.72,-0.72,-0.74,-0.70,10.06,10.07,10.08
39.34,10.78,0.73,10.79,0.74,-0.74,-0.75,-0.72,10.04,10.05,10.05
39.74,10.79,0.77,10.79,0.76,-0.76,-0.76,-0.73,10.03,10.03,10.02
40.14,10.80,0.80,10.79,0.78,-0.78,-0.78,-0.75,10.02,10.01,10.00
40.54,10.80,0.82,10.78,0.80,-0.80,-0.79,-0.77,10.00,9.98,9.98
40.94,10.79,0.84,10.78,0.82,-0.82,-0.81,-0.78,9.98,9.96,9.95
41.35,10.78,0.84,10.76,0.83,-0.83,-0.82,-0.80,9.96,9.94,9.94
41.76,10.76,0.85,10.75,0.83,-0.83,-0.84,-0.82,9.93,9.92,9.91
42.18,10.74,0.84,10.73,0.84,-0.84,-0.85,-0.84,9.91,9.89,9.90
42.60,10.71,0.84,10.71,0.84,-0.84,-0.87,-0.86,9.87,9.87,9.87
43.03,10.68,0.83,10.68,0.84,-0.84,-0.88,-0.88,9.84,9.84,9.85
43.46,10.65,0.84,10.66,0.84,-0.84,-0.90,-0.90,9.82,9.82,9.81
43.90,10.62,0.83,10.63,0.83,-0.83,-0.91,-0.92,9.79,9.79,9.79
44.33,10.59,0.83,10.59,0.83,-0.83,-0.93,-0.95,9.76,9.77,9.76
44.78,10.56,0.82,10.56,0.83,-0.83,-0.95,-0.97,9.74,9.74,9.74
45.23,10.53,0.81,10.54,0.83,-0.83,-0.96,-0.99,9.70,9.70,9.72
45.68,10.50,0.83,10.51,0.84,-0.84,-0.98,-1.02,9.66,9.67,9.67
46.13,10.48,0.84,10.49,0.85,-0.85,-1.00,-1.04,9.63,9.64,9.64
46.60,10.46,0.86,10.47,0.87,-0.87,-1.01,-1.07,9.59,9.60,9.60
47.06,10.44,0.87,10.46,0.90,-0.90,-1.03,-1.10,9.54,9.56,9.57
47.53,10.43,0.90,10.45,0.93,-0.93,-1.05,-1.12,9.50,9.52,9.53
48.01,10.42,0.94,10.45,0.97,-0.97,-1.07,-1.15,9.46,9.48,9.48
48.49,10.43,0.99,10.45,1.00,-1.00,-1.09,-1.18,9.43,9.44,9.44
48.97,10.43,1.04,10.45,1.05,-1.05,-1.11,-1.21,9.39,9.40,9.39
49.46,10.44,1.08,10.45,1.09,-1.09,-1.12,-1.24,9.35,9.36,9.36
49.96,10.45,1.15,10.45,1.14,-1.14,-1.14,-1.27,9.32,9.32,9.30
50.46,10.46,1.19,10.46,1.18,-1.18,-1.16,-1.30,9.28,9.27,9.27
50.96,10.47,1.24,10.46,1.23,-1.23,-1.18,-1.33,9.25,9.23,9.23
51.47,10.47,1.28,10.46,1.27,-1.27,-1.20,-1.36,9.21,9.19,9.19
51.99,10.47,1.33,10.45,1.30,-1.30,-1.22,-1.39,9.17,9.15,9.14
52.51,10.46,1.35,10.44,1.34,-1.34,-1.24,-1.42,9.13,9.11,9.11
53.03,10.44,1.36,10.43,1.37,-1.37,-1.27,-1.45,9.08,9.06,9.08
53.56,10.42,1.39,10.42,1.39,-1.39,-1.29,-1.49,9.03,9.02,9.03
54.10,10.40,1.42,10.39,1.41,-1.41,-1.31,-1.52,8.99,8.99,8.98
54.64,10.37,1.43,10.37,1.42,-1.42,-1.33,-1.55,8.95,8.95,8.94
55.18,10.35,1.45,10.34,1.44,-1.44,-1.35,-1.58,8.92,8.91,8.90
55.74,10.31,1.46,10.31,1.44,-1.44,-1.37,-1.61,8.87,8.87,8.85
56.29,10.28,1.45,10.29,1.45,-1.45,-1.40,-1.64,8.83,8.83,8.83
56.86,10.25,1.46,10.26,1.47,-1.47,-1.42,-1.67,8.79,8.79,8.79
57.42,10.22,1.48,10.23,1.48,-1.48,-1.44,-1.69,8.74,8.75,8.74
58.00,10.19,1.49,10.21,1.50,-1.50,-1.47,-1.72,8.69,8.71,8.70
58.58,10.17,1.50,10.19,1.53,-1.53,-1.49,-1.75,8.64,8.66,8.67
59.16,10.14,1.50,10.18,1.56,-1.56,-1.51,-1.77,8.58,8.62,8.64
59.76,10.13,1.54,10.16,1.59,-1.59,-1.54,-1.79,8.54,8.57,8.59
60.35,10.13,1.59,10.15,1.62,-1.62,-1.56,-1.82,8.51,8.52,8.54
60.96,10.13,1.65,10.13,1.66,-1.66,-1.59,-1.84,8.47,8.47,8.48
61.57,10.12,1.70,10.12,1.70,-1.70,-1.61,-1.86,8.42,8.42,8.42
62.18,10.12,1.76,10.11,1.74,-1.74,-1.64,-1.88,8.38,8.37,8.36
62.80,10.12,1.82,10.10,1.78,-1.78,-1.66,-1.89,8.34,8.32,8.30
63.43,10.11,1.86,10.08,1.82,-1.82,-1.69,-1.91,8.29,8.26,8.25
64.07,10.09,1.89,10.07,1.86,-1.86,-1.72,-1.92,8.23,8.21,8.20
64.71,10.06,1.91,10.05,1.90,-1.90,-1.74,-1.94,8.16,8.15,8.15
65.35,10.03,1.94,10.03,1.94,-1.94,-1.77,-1.95,8.10,8.10,8.09
66.01,10.00,1.96,10.01,1.97,-1.97,-1.80,-1.96,8.03,8.04,8.04
66.67,9.97,1.97,9.99,2.00,-2.00,-1.82,-1.97,7.98,7.99,8.00
67.33,9.95,2.02,9.96,2.03,-2.03,-1.85,-1.98,7.93,7.93,7.93
68.01,9.92,2.04,9.93,2.05,-2.05,-1.88,-1.99,7.87,7.88,7.88
68.69,9.90,2.07,9.90,2.08,-2.08,-1.91,-1.99,7.83,7.82,7.83
69.37,9.87,2.09,9.87,2.10,-2.10,-1.93,-2.00,7.77,7.77,7.78
70.07,9.84,2.12,9.84,2.13,-2.13,-1.96,-2.01,7.71,7.71,7.72
70.77,9.81,2.16,9.81,2.16,-2.16,-1.99,-2.01,7.66,7.65,7.65
71.48,9.78,2.18,9.78,2.19,-2.19,-2.02,-2.02,7.60,7.60,7.60
72.19,9.75,2.21,9.76,2.22,-2.22,-2.05,-2.03,7.53,7.54,7.54
72.91,9.72,2.25,9.73,2.25,-2.25,-2.08,-2.03,7.47,7.48,7.47
73.64,9.69,2.27,9.71,2.28,-2.28,-2.11,-2.04,7.41,7.43,7.42
74.38,9.67,2.31,9.68,2.31,-2.31,-2.14,-2.05,7.36,7.37,7.36
75.12,9.65,2.34,9.65,2.34,-2.34,-2.17,-2.06,7.31,7.32,7.31
75.87,9.63,2.37,9.63,2.37,-2.37,-2.20,-2.07,7.27,7.26,7.26
76.63,9.60,2.40,9.60,2.39,-2.39,-2.23,-2.08,7.21,7.21,7.20
77.40,9.58,2.42,9.57,2.42,-2.42,-2.26,-2.09,7.17,7.16,7.16
78.17,9.56,2.46,9.55,2.44,-2.44,-2.29,-2.10,7.12,7.11,7.10
78.95,9.53,2.47,9.52,2.47,-2.47,-2.32,-2.12,7.07,7.06,7.06
79.74,9.50,2.49,9.50,2.49,-2.49,-2.35,-2.13,7.01,7.01,7.01
80.54,9.47,2.51,9.48,2.52,-2.52,-2.38,-2.15,6.96,6.96,6.96
81.35,9.43,2.53,9.45,2.54,-2.54,-2.41,-2.17,6.89,6.91,6.90
82.16,9.40,2.53,9.43,2.57,-2.57,-2.44,-2.19,6.84,6.86,6.87
82.98,9.38,2.57,9.40,2.59,-2.59,-2.47,-2.21,6.79,6.81,6.81
83.81,9.36,2.60,9.37,2.62,-2.62,-2.50,-2.23,6.75,6.75,6.76
84.65,9.34,2.64,9.34,2.64,-2.64,-2.53,-2.25,6.70,6.70,6.70
85.50,9.32,2.68,9.31,2.66,-2.66,-2.57,-2.28,6.66,6.65,6.64
86.35,9.30,2.71,9.28,2.69,-2.69,-2.60,-2.31,6.62,6.59,6.59
87.22,9.26,2.72,9.25,2.71,-2.71,-2.63,-2.34,6.55,6.54,6.54
88.09,9.23,2.75,9.22,2.74,-2.74,-2.66,-2.37,6.50,6.48,6.48
88.97,9.19,2.77,9.19,2.76,-2.76,-2.69,-2.41,6.43,6.43,6.42
89.86,9.14,2.77,9.16,2.79,-2.79,-2.72,-2.44,6.35,6.37,6.37
90.76,9.10,2.79,9.13,2.82,-2.82,-2.75,-2.48,6.29,6.31,6.31
91.66,9.07,2.83,9.09,2.85,-2.85,-2.78,-2.52,6.23,6.25,6.24
92.58,9.04,2.85,9.06,2.87,-2.87,-2.81,-2.56,6.17,6.19,6.19
93.51,9.02,2.88,9.02,2.90,-2.90,-2.85,-2.60,6.13,6.13,6.14
94.44,8.99,2.91,8.99,2.92,-2.92,-2.88,-2.65,6.07,6.07,6.08
95.39,8.96,2.95,8.95,2.94,-2.94,-2.91,-2.69,6.02,6.01,6.01
96.34,8.93,2.99,8.91,2.97,-2.97,-2.94,-2.74,5.96,5.94,5.94
97.30,8.88,3.00,8.88,3.00,-3.00,-2.97,-2.79,5.89,5.88,5.88
98.28,8.84,3.03,8.84,3.02,-3.02,-3.00,-2.84,5.82,5.82,5.81
99.26,8.80,3.05,8.81,3.05,-3.05,-3.03,-2.89,5.76,5.76,5.75
100.25,8.76,3.07,8.77,3.07,-3.07,-3.06,-2.95,5.69,5.70,5.69
101.25,8.72,3.08,8.73,3.09,-3.09,-3.09,-3.00,5.63,5.64,5.64
102.27,8.68,3.10,8.69,3.11,-3.11,-3.12,-3.05,5.58,5.58,5.58
103.29,8.64,3.12,8.65,3.12,-3.12,-3.14,-3.11,5.52,5.53,5.52
104.32,8.59,3.12,8.60,3.13,-3.13,-3.17,-3.16,5.46,5.47,5.47
105.37,8.56,3.15,8.56,3.14,-3.14,-3.20,-3.22,5.42,5.41,5.41
106.42,8.53,3.17,8.51,3.16,-3.16,-3.23,-3.27,5.38,5.36,5.36
107.48,8.48,3.18,8.47,3.17,-3.17,-3.26,-3.33,5.32,5.30,5.30
108.56,8.43,3.18,8.42,3.18,-3.18,-3.28,-3.38,5.25,5.24,5.25
109.64,8.37,3.18,8.37,3.19,-3.19,-3.31,-3.44,5.18,5.18,5.19
110.74,8.32,3.19,8.33,3.20,-3.20,-3.34,-3.49,5.12,5.13,5.13
111.85,8.26,3.19,8.28,3.21,-3.21,-3.36,-3.54,5.05,5.07,5.07
112.97,8.21,3.19,8.23,3.22,-3.22,-3.39,-3.59,4.99,5.01,5.02
114.10,8.17,3.21,8.18,3.23,-3.23,-3.41,-3.63,4.94,4.95,4.96
115.24,8.13,3.25,8.13,3.24,-3.24,-3.44,-3.67,4.89,4.89,4.88
116.39,8.09,3.27,8.08,3.25,-3.25,-3.46,-3.71,4.84,4.83,4.82
117.55,8.04,3.28,8.04,3.26,-3.26,-3.48,-3.75,4.78,4.78,4.76
118.73,7.99,3.29,7.99,3.27,-3.27,-3.50,-3.78,4.72,4.72,4.70
119.92,7.94,3.28,7.95,3.28,-3.28,-3.53,-3.81,4.66,4.66,4.66
121.12,7.89,3.28,7.90,3.30,-3.30,-3.55,-3.83,4.60,4.61,4.61
122.33,7.85,3.30,7.86,3.31,-3.31,-3.57,-3.85,4.54,4.55,4.55
123.55,7.81,3.31,7.82,3.33,-3.33,-3.59,-3.87,4.48,4.49,4.50
124.79,7.77,3.32,7.78,3.34,-3.34,-3.60,-3.88,4.43,4.44,4.45
126.03,7.74,3.35,7.74,3.36,-3.36,-3.62,-3.89,4.39,4.38,4.39
127.29,7.70,3.36,7.70,3.37,-3.37,-3.64,-3.89,4.34,4.33,4.34
128.57,7.66,3.39,7.66,3.38,-3.38,-3.66,-3.89,4.28,4.28,4.27
129.85,7.62,3.40,7.62,3.40,-3.40,-3.67,-3.89,4.23,4.22,4.22
131.15,7.59,3.43,7.58,3.41,-3.41,-3.69,-3.88,4.18,4.17,4.16
132.46,7.55,3.44,7.54,3.43,-3.43,-3.70,-3.86,4.12,4.11,4.11
133.79,7.51,3.46,7.51,3.45,-3.45,-3.71,-3.84,4.06,4.06,4.05
135.12,7.46,3.46,7.47,3.47,-3.47,-3.73,-3.82,3.99,4.00,4.00
136.48,7.41,3.46,7.44,3.49,-3.49,-3.74,-3.80,3.93,3.95,3.95
137.84,7.37,3.47,7.40,3.51,-3.51,-3.75,-3.77,3.87,3.90,3.90
139.22,7.35,3.51,7.37,3.52,-3.52,-3.76,-3.75,3.83,3.85,3.84
140.61,7.33,3.53,7.34,3.54,-3.54,-3.77,-3.72,3.80,3.80,3.80
142.02,7.31,3.57,7.30,3.55,-3.55,-3.77,-3.68,3.76,3.75,3.74
143.44,7.29,3.59,7.28,3.57,-3.57,-3.78,-3.65,3.72,3.70,3.70
144.87,7.26,3.60,7.25,3.59,-3.59,-3.79,-3.62,3.68,3.66,3.66
146.32,7.22,3.61,7.22,3.60,-3.60,-3.79,-3.58,3.62,3.61,3.61
147.78,7.18,3.61,7.19,3.62,-3.62,-3.79,-3.55,3.56,3.57,3.57
149.26,7.14,3.62,7.16,3.64,-3.64,-3.80,-3.51,3.50,3.53,3.52
150.75,7.12,3.64,7.14,3.66,-3.66,-3.80,-3.48,3.47,3.48,3.48
152.26,7.10,3.66,7.11,3.67,-3.67,-3.80,-3.44,3.43,3.44,3.44
153.78,7.07,3.67,7.07,3.68,-3.68,-3.80,-3.41,3.40,3.40,3.40
155.32,7.04,3.68,7.04,3.68,-3.68,-3.80,-3.37,3.36,3.35,3.36
156.88,7.01,3.70,7.00,3.69,-3.69,-3.79,-3.34,3.32,3.31,3.31
158.44,6.97,3.71,6.96,3.69,-3.69,-3.79,-3.31,3.28,3.26,3.26
160.03,6.93,3.71,6.92,3.70,-3.70,-3.79,-3.29,3.24,3.22,3.22
161.63,6.89,3.71,6.88,3.70,-3.70,-3.78,-3.26,3.19,3.17,3.18
163.24,6.84,3.71,6.84,3.71,-3.71,-3.77,-3.24,3.14,3.13,3.13
164.88,6.78,3.70,6.79,3.71,-3.71,-3.77,-3.21,3.08,3.08,3.08
166.53,6.72,3.69,6.74,3.71,-3.71,-3.76,-3.19,3.02,3.04,3.03
168.19,6.67,3.67,6.69,3.70,-3.70,-3.75,-3.18,2.97,2.99,3.00
169.87,6.62,3.68,6.64,3.70,-3.70,-3.74,-3.16,2.93,2.94,2.94
171.57,6.58,3.69,6.59,3.69,-3.69,-3.73,-3.15,2.89,2.89,2.89
173.29,6.55,3.70,6.53,3.69,-3.69,-3.71,-3.14,2.87,2.85,2.85
175.02,6.50,3.70,6.48,3.68,-3.68,-3.70,-3.13,2.82,2.80,2.80
176.77,6.44,3.69,6.43,3.68,-3.68,-3.68,-3.12,2.77,2.75,2.75
178.54,6.38,3.67,6.38,3.67,-3.67,-3.67,-3.12,2.71,2.71,2.71
180.32,6.32,3.67,6.33,3.67,-3.67,-3.65,-3.12,2.65,2.66,2.65
182.13,6.26,3.64,6.29,3.67,-3.67,-3.64,-3.12,2.59,2.62,2.62
183.95,6.21,3.64,6.24,3.67,-3.67,-3.62,-3.12,2.54,2.57,2.57
185.79,6.18,3.66,6.20,3.67,-3.67,-3.60,-3.13,2.51,2.52,2.52
187.65,6.15,3.67,6.15,3.67,-3.67,-3.58,-3.14,2.48,2.48,2.48
189.52,6.11,3.67,6.10,3.67,-3.67,-3.56,-3.15,2.45,2.44,2.44
191.42,6.06,3.66,6.06,3.67,-3.67,-3.54,-3.16,2.40,2.39,2.40
193.33,6.01,3.65,6.02,3.66,-3.66,-3.51,-3.18,2.35,2.35,2.36
195.27,5.97,3.66,5.98,3.66,-3.66,-3.49,-3.19,2.31,2.31,2.31
197.22,5.93,3.67,5.94,3.66,-3.66,-3.47,-3.21,2.27,2.27,2.26
199.19,5.90,3.67,5.90,3.66,-3.66,-3.44,-3.23,2.24,2.24,2.23
201.18,5.86,3.67,5.86,3.65,-3.65,-3.42,-3.25,2.21,2.20,2.19
203.19,5.81,3.65,5.81,3.65,-3.65,-3.39,-3.28,2.17,2.17,2.16
205.23,5.76,3.62,5.77,3.63,-3.63,-3.37,-3.30,2.13,2.13,2.14
207.28,5.71,3.60,5.72,3.62,-3.62,-3.34,-3.32,2.09,2.10,2.11
209.35,5.67,3.60,5.67,3.60,-3.60,-3.31,-3.35,2.07,2.07,2.07
211.44,5.63,3.59,5.62,3.58,-3.58,-3.28,-3.37,2.05,2.04,2.04
213.56,5.59,3.57,5.58,3.56,-3.56,-3.25,-3.40,2.03,2.01,2.02
215.69,5.54,3.55,5.53,3.54,-3.54,-3.22,-3.42,2.00,1.98,1.99
217.85,5.47,3.51,5.47,3.51,-3.51,-3.19,-3.45,1.96,1.96,1.96
220.03,5.41,3.48,5.42,3.49,-3.49,-3.16,-3.47,1.93,1.94,1.93
222.23,5.35,3.45,5.37,3.46,-3.46,-3.13,-3.49,1.90,1.91,1.90
224.45,5.30,3.41,5.31,3.43,-3.43,-3.10,-3.51,1.88,1.89,1.89
226.70,5.25,3.39,5.26,3.40,-3.40,-3.07,-3.52,1.86,1.87,1.86
228.96,5.21,3.36,5.21,3.36,-3.36,-3.03,-3.54,1.85,1.85,1.85
231.25,5.16,3.33,5.15,3.33,-3.33,-3.00,-3.55,1.84,1.83,1.83
233.57,5.10,3.29,5.10,3.29,-3.29,-2.97,-3.56,1.82,1.81,1.81
235.90,5.04,3.24,5.04,3.25,-3.25,-2.93,-3.56,1.80,1.80,1.80
238.26,4.98,3.21,4.99,3.21,-3.21,-2.90,-3.56,1.78,1.78,1.77
240.64,4.93,3.15,4.94,3.17,-3.17,-2.86,-3.55,1.77,1.77,1.78
243.05,4.89,3.13,4.89,3.12,-3.12,-2.83,-3.55,1.77,1.76,1.76
245.48,4.84,3.09,4.84,3.08,-3.08,-2.79,-3.53,1.76,1.76,1.75
247.93,4.78,3.04,4.79,3.04,-3.04,-2.76,-3.51,1.75,1.75,1.74
250.41,4.73,2.98,4.73,2.99,-2.99,-2.72,-3.49,1.74,1.74,1.75
252.92,4.67,2.93,4.68,2.95,-2.95,-2.68,-3.46,1.73,1.74,1.74
255.45,4.62,2.89,4.64,2.90,-2.90,-2.65,-3.43,1.72,1.73,1.73
258.00,4.58,2.85,4.59,2.86,-2.86,-2.61,-3.39,1.72,1.73,1.73
260.58,4.54,2.81,4.54,2.82,-2.82,-2.57,-3.35,1.73,1.73,1.73
263.19,4.50,2.77,4.49,2.77,-2.77,-2.54,-3.30,1.73,1.72,1.73
265.82,4.44,2.72,4.45,2.73,-2.73,-2.50,-3.25,1.72,1.72,1.72
268.48,4.39,2.67,4.40,2.68,-2.68,-2.46,-3.19,1.71,1.72,1.72
271.16,4.34,2.62,4.35,2.63,-2.63,-2.42,-3.13,1.71,1.72,1.72
273.87,4.30,2.58,4.30,2.59,-2.59,-2.38,-3.07,1.72,1.71,1.72
276.61,4.27,2.55,4.25,2.54,-2.54,-2.35,-3.00,1.73,1.71,1.72
279.38,4.22,2.52,4.21,2.49,-2.49,-2.31,-2.93,1.73,1.71,1.70
282.17,4.16,2.46,4.16,2.44,-2.44,-2.27,-2.86,1.72,1.71,1.70
284.99,4.10,2.39,4.11,2.39,-2.39,-2.23,-2.78,1.71,1.71,1.71
287.84,4.04,2.32,4.06,2.34,-2.34,-2.19,-2.70,1.70,1.72,1.72
290.72,3.99,2.28,4.01,2.29,-2.29,-2.15,-2.62,1.71,1.72,1.71
293.63,3.94,2.22,3.96,2.24,-2.24,-2.11,-2.54,1.71,1.72,1.72
296.57,3.91,2.18,3.91,2.19,-2.19,-2.07,-2.46,1.73,1.73,1.73
299.53,3.87,2.14,3.87,2.14,-2.14,-2.03,-2.38,1.74,1.73,1.73
302.53,3.82,2.07,3.82,2.08,-2.08,-1.99,-2.29,1.74,1.74,1.75
305.55,3.77,2.03,3.77,2.03,-2.03,-1.95,-2.21,1.74,1.74,1.74
308.61,3.72,1.97,3.73,1.98,-1.98,-1.92,-2.12,1.74,1.75,1.75
311.69,3.67,1.91,3.69,1.93,-1.93,-1.88,-2.04,1.74,1.76,1.76
314.81,3.64,1.88,3.65,1.88,-1.88,-1.84,-1.95,1.76,1.77,1.76
317.96,3.61,1.84,3.61,1.84,-1.84,-1.80,-1.87,1.78,1.77,1.77
321.14,3.57,1.79,3.57,1.79,-1.79,-1.75,-1.78,1.79,1.78,1.78
324.35,3.52,1.74,3.52,1.74,-1.74,-1.71,-1.70,1.79,1.79,1.78
327.59,3.47,1.66,3.48,1.68,-1.68,-1.67,-1.61,1.79,1.80,1.81
330.87,3.43,1.63,3.43,1.63,-1.63,-1.63,-1.53,1.80,1.80,1.80
334.18,3.39,1.58,3.38,1.57,-1.57,-1.59,-1.45,1.82,1.81,1.81
337.52,3.35,1.54,3.33,1.52,-1.52,-1.55,-1.37,1.84,1.82,1.81
340.90,3.30,1.47,3.28,1.46,-1.46,-1.51,-1.28,1.85,1.83,1.83
344.30,3.23,1.39,3.23,1.40,-1.40,-1.47,-1.20,1.84,1.83,1.84
347.75,3.17,1.33,3.17,1.33,-1.33,-1.43,-1.12,1.84,1.84,1.84
351.23,3.11,1.27,3.12,1.27,-1.27,-1.39,-1.04,1.85,1.85,1.84
354.74,3.05,1.18,3.06,1.20,-1.20,-1.35,-0.97,1.85,1.86,1.87
358.28,2.99,1.13,3.00,1.14,-1.14,-1.30,-0.89,1.86,1.87,1.86
361.87,2.94,1.07,2.94,1.07,-1.07,-1.26,-0.81,1.87,1.87,1.87
365.49,2.88,1.00,2.88,1.00,-1.00,-1.22,-0.73,1.88,1.88,1.88
369.14,2.82,0.92,2.83,0.94,-0.94,-1.18,-0.66,1.89,1.89,1.90
372.83,2.76,0.86,2.77,0.87,-0.87,-1.14,-0.58,1.89,1.90,1.90
376.56,2.70,0.80,2.71,0.81,-0.81,-1.09,-0.51,1.90,1.91,1.90
380.33,2.65,0.74,2.66,0.74,-0.74,-1.05,-0.44,1.91,1.92,1.91
384.13,2.60,0.67,2.61,0.68,-0.68,-1.01,-0.36,1.92,1.93,1.93
387.97,2.56,0.63,2.56,0.62,-0.62,-0.96,-0.29,1.94,1.93,1.93
391.85,2.50,0.56,2.51,0.56,-0.56,-0.92,-0.22,1.94,1.94,1.94
395.77,2.45,0.50,2.46,0.50,-0.50,-0.87,-0.15,1.95,1.95,1.95
399.73,2.40,0.44,2.41,0.44,-0.44,-0.83,-0.08,1.96,1.97,1.96
403.72,2.36,0.37,2.36,0.38,-0.38,-0.78,-0.01,1.98,1.97,1.99
407.76,2.31,0.33,2.31,0.33,-0.33,-0.74,0.05,1.99,1.98,1.98
411.84,2.27,0.28,2.26,0.27,-0.27,-0.69,0.12,2.01,1.99,1.99
415.96,2.21,0.20,2.21,0.21,-0.21,-0.65,0.19,2.00,2.00,2.01
420.12,2.16,0.15,2.16,0.15,-0.15,-0.60,0.25,2.01,2.01,2.01
424.32,2.10,0.08,2.11,0.09,-0.09,-0.55,0.32,2.01,2.02,2.02
428.56,2.05,0.01,2.06,0.03,-0.03,-0.50,0.38,2.02,2.03,2.04
432.85,2.01,-0.04,2.01,-0.03,0.03,-0.46,0.44,2.04,2.04,2.05
437.18,1.97,-0.07,1.96,-0.09,0.09,-0.41,0.50,2.06,2.05,2.04
441.55,1.92,-0.13,1.91,-0.14,0.14,-0.36,0.56,2.07,2.06,2.05
445.96,1.86,-0.20,1.86,-0.20,0.20,-0.31,0.61,2.07,2.07,2.06
450.42,1.80,-0.27,1.81,-0.26,0.26,-0.26,0.67,2.07,2.07,2.07
454.93,1.74,-0.34,1.76,-0.32,0.32,-0.20,0.72,2.07,2.08,2.08
459.48,1.70,-0.39,1.71,-0.38,0.38,-0.15,0.78,2.09,2.09,2.09
464.07,1.66,-0.45,1.66,-0.44,0.44,-0.10,0.83,2.10,2.10,2.11
468.71,1.62,-0.50,1.61,-0.50,0.50,-0.04,0.87,2.12,2.11,2.12
473.40,1.57,-0.55,1.56,-0.56,0.56,0.01,0.92,2.13,2.12,2.12
478.13,1.52,-0.61,1.51,-0.62,0.62,0.07,0.96,2.14,2.13,2.13
482.91,1.46,-0.68,1.47,-0.68,0.68,0.12,1.00,2.14,2.14,2.14
487.74,1.41,-0.74,1.42,-0.73,0.73,0.18,1.04,2.15,2.15,2.15
492.62,1.36,-0.80,1.37,-0.79,0.79,0.24,1.08,2.16,2.17,2.16
497.55,1.32,-0.85,1.33,-0.85,0.85,0.30,1.11,2.17,2.18,2.17
502.52,1.28,-0.90,1.28,-0.90,0.90,0.36,1.15,2.19,2.19,2.18
507.55,1.24,-0.96,1.24,-0.96,0.96,0.42,1.18,2.20,2.20,2.20
