frequency,raw,error,smoothed,error_smoothed,equalization,parametric_eq,fixed_band_eq,equalized_raw,equalized_smoothed,target
20.00,9.42,-2.43,9.42,-2.43,2.43,2.13,0.46,11.85,11.85,11.85
20.20,9.46,-2.38,9.46,-2.38,2.38,2.11,0.48,11.84,11.84,11.84
20.40,9.50,-2.33,9.50,-2.33,2.33,2.09,0.50,11.83,11.83,11.83
20.61,9.54,-2.29,9.54,-2.29,2.29,2.06,0.51,11.82,11.82,11.83
20.81,9.58,-2.23,9.58,-2.23,2.24,2.04,0.53,11.82,11.82,11.81
21.02,9.62,-2.19,9.62,-2.19,2.19,2.02,0.55,11.81,11.81,11.81
21.23,9.67,-2.13,9.67,-2.14,2.14,1.99,0.57,11.81,11.81,11.80
21.44,9.71,-2.10,9.71,-2.09,2.09,1.96,0.59,11.80,11.80,11.81
21.66,9.76,-2.04,9.76,-2.04,2.04,1.93,0.60,11.80,11.80,11.80
21.87,9.80,-1.99,9.80,-1.99,1.99,1.90,0.62,11.79,11.79,11.79
22.09,9.85,-1.93,9.85,-1.94,1.94,1.88,0.65,11.79,11.78,11.78
22.31,9.89,-1.89,9.89,-1.88,1.88,1.84,0.67,11.77,11.78,11.78
22.54,9.94,-1.83,9.93,-1.83,1.83,1.81,0.69,11.77,11.76,11.77
22.76,9.98,-1.78,9.98,-1.78,1.77,1.78,0.71,11.75,11.75,11.76
22.99,10.03,-1.72,10.03,-1.72,1.72,1.75,0.73,11.74,11.75,11.75
23.22,10.09,-1.65,10.08,-1.66,1.66,1.71,0.76,11.75,11.74,11.74
23.45,10.14,-1.61,10.14,-1.60,1.60,1.68,0.78,11.74,11.74,11.75
23.69,10.20,-1.54,10.20,-1.54,1.54,1.65,0.81,11.74,11.74,11.74
23.92,10.26,-1.48,10.25,-1.49,1.48,1.61,0.83,11.74,11.74,11.74
24.16,10.31,-1.44,10.31,-1.44,1.43,1.58,0.86,11.74,11.74,11.75
24.40,10.36,-1.40,10.36,-1.39,1.39,1.54,0.88,11.75,11.76,11.76
24.65,10.41,-1.35,10.41,-1.35,1.36,1.50,0.91,11.77,11.78,11.76
24.89,10.46,-1.30,10.45,-1.31,1.35,1.47,0.93,11.81,11.80,11.76
25.14,10.46,-1.29,10.46,-1.30,1.34,1.43,0.96,11.80,11.80,11.75
25.39,10.44,-1.31,10.44,-1.31,1.33,1.39,0.98,11.77,11.77,11.75
25.65,10.41,-1.34,10.40,-1.35,1.32,1.35,1.01,11.73,11.72,11.75
25.91,10.38,-1.38,10.39,-1.36,1.30,1.32,1.04,11.68,11.70,11.76
26.16,10.41,-1.36,10.42,-1.35,1.29,1.28,1.06,11.70,11.70,11.77
26.43,10.48,-1.29,10.48,-1.29,1.27,1.24,1.09,11.74,11.74,11.77
26.69,10.55,-1.22,10.55,-1.22,1.24,1.20,1.11,11.79,11.79,11.77
26.96,10.62,-1.14,10.60,-1.16,1.21,1.16,1.13,11.83,11.81,11.76
27.23,10.64,-1.12,10.64,-1.12,1.17,1.12,1.15,11.81,11.81,11.76
27.50,10.65,-1.11,10.65,-1.12,1.13,1.08,1.17,11.78,11.78,11.76
27.77,10.65,-1.12,10.65,-1.11,1.09,1.04,1.19,11.74,11.75,11.77
28.05,10.67,-1.10,10.68,-1.08,1.06,1.01,1.21,11.72,11.73,11.77
28.33,10.72,-1.03,10.71,-1.04,1.01,0.97,1.23,11.73,11.73,11.75
28.62,10.77,-0.98,10.76,-0.99,0.97,0.93,1.24,11.74,11.73,11.75
28.90,10.81,-0.95,10.82,-0.94,0.92,0.89,1.25,11.73,11.74,11.76
29.19,10.88,-0.88,10.88,-0.87,0.87,0.85,1.26,11.75,11.75,11.76
29.48,10.96,-0.79,10.96,-0.79,0.82,0.81,1.26,11.78,11.78,11.75
29.78,11.03,-0.72,11.03,-0.73,0.78,0.77,1.27,11.80,11.80,11.75
30.08,11.08,-0.68,11.06,-0.69,0.74,0.73,1.27,11.82,11.80,11.76
30.38,11.06,-0.69,11.06,-0.69,0.71,0.69,1.26,11.76,11.76,11.75
30.68,11.04,-0.69,11.04,-0.70,0.67,0.65,1.26,11.71,11.71,11.73
30.99,11.01,-0.72,11.03,-0.70,0.64,0.61,1.25,11.65,11.67,11.73
31.30,11.06,-0.66,11.06,-0.66,0.61,0.58,1.24,11.67,11.67,11.72
31.61,11.11,-0.60,11.11,-0.61,0.59,0.54,1.22,11.70,11.69,11.71
31.93,11.17,-0.53,11.16,-0.54,0.57,0.50,1.20,11.73,11.72,11.70
32.24,11.19,-0.51,11.19,-0.50,0.54,0.46,1.18,11.73,11.74,11.70
32.57,11.21,-0.47,11.21,-0.47,0.52,0.42,1.15,11.73,11.73,11.68
32.89,11.22,-0.46,11.22,-0.46,0.49,0.38,1.13,11.71,11.71,11.68
33.22,11.22,-0.46,11.21,-0.47,0.46,0.34,1.09,11.68,11.67,11.68
33.55,11.20,-0.47,11.19,-0.48,0.43,0.30,1.06,11.63,11.62,11.67
33.89,11.18,-0.50,11.20,-0.47,0.40,0.27,1.02,11.57,11.60,11.68
34.23,11.24,-0.42,11.26,-0.41,0.36,0.23,0.98,11.60,11.62,11.66
34.57,11.35,-0.31,11.34,-0.32,0.33,0.19,0.94,11.68,11.67,11.66
34.92,11.45,-0.20,11.42,-0.23,0.29,0.15,0.89,11.74,11.72,11.65
35.27,11.47,-0.19,11.46,-0.19,0.26,0.11,0.85,11.73,11.72,11.66
35.62,11.45,-0.19,11.46,-0.19,0.23,0.07,0.80,11.67,11.68,11.64
35.97,11.43,-0.21,11.44,-0.20,0.19,0.04,0.75,11.62,11.63,11.64
36.33,11.43,-0.19,11.42,-0.20,0.16,-0.00,0.69,11.59,11.59,11.62
36.70,11.43,-0.18,11.43,-0.18,0.14,-0.04,0.64,11.56,11.56,11.61
37.06,11.44,-0.15,11.45,-0.14,0.10,-0.08,0.58,11.54,11.55,11.59
37.43,11.49,-0.08,11.49,-0.08,0.06,-0.12,0.53,11.55,11.55,11.57
37.81,11.54,-0.01,11.53,-0.01,0.02,-0.16,0.47,11.55,11.55,11.55
38.19,11.58,0.06,11.58,0.06,-0.04,-0.19,0.41,11.54,11.54,11.52
38.57,11.61,0.11,11.61,0.12,-0.09,-0.23,0.35,11.51,11.52,11.50
38.95,11.64,0.17,11.63,0.17,-0.15,-0.27,0.29,11.49,11.49,11.47
39.34,11.64,0.21,11.64,0.20,-0.19,-0.31,0.23,11.45,11.45,11.43
39.74,11.64,0.23,11.64,0.23,-0.23,-0.35,0.17,11.41,11.42,11.41
40.14,11.64,0.26,11.64,0.26,-0.26,-0.38,0.11,11.38,11.38,11.38
40.54,11.64,0.28,11.64,0.28,-0.28,-0.42,0.05,11.36,11.36,11.36
40.94,11.64,0.31,11.64,0.31,-0.31,-0.46,-0.02,11.33,11.33,11.33
41.35,11.64,0.33,11.64,0.33,-0.35,-0.50,-0.08,11.29,11.29,11.31
41.76,11.64,0.37,11.64,0.37,-0.39,-0.54,-0.14,11.25,11.26,11.27
42.18,11.66,0.41,11.66,0.41,-0.44,-0.57,-0.21,11.22,11.23,11.25
42.60,11.70,0.47,11.70,0.47,-0.49,-0.61,-0.27,11.21,11.21,11.23
43.03,11.74,0.54,11.74,0.54,-0.54,-0.65,-0.34,11.20,11.20,11.20
43.46,11.79,0.62,11.79,0.61,-0.60,-0.69,-0.40,11.19,11.19,11.17
43.90,11.83,0.68,11.82,0.68,-0.65,-0.73,-0.47,11.18,11.17,11.15
44.33,11.84,0.73,11.84,0.72,-0.70,-0.77,-0.53,11.14,11.14,11.11
44.78,11.84,0.76,11.84,0.75,-0.75,-0.81,-0.60,11.09,11.09,11.08
45.23,11.84,0.77,11.84,0.79,-0.79,-0.84,-0.67,11.05,11.05,11.07
45.68,11.84,0.82,11.84,0.82,-0.83,-0.88,-0.73,11.01,11.01,11.02
46.13,11.84,0.86,11.84,0.85,-0.86,-0.92,-0.80,10.98,10.98,10.98
46.60,11.84,0.89,11.84,0.89,-0.89,-0.96,-0.87,10.94,10.94,10.95
47.06,11.84,0.93,11.84,0.93,-0.93,-1.00,-0.93,10.91,10.91,10.91
47.53,11.84,0.96,11.84,0.97,-0.97,-1.04,-1.00,10.87,10.87,10.88
48.01,11.84,1.02,11.84,1.02,-1.01,-1.08,-1.07,10.82,10.82,10.82
48.49,11.84,1.07,11.84,1.06,-1.06,-1.12,-1.14,10.78,10.78,10.77
48.97,11.84,1.11,11.84,1.11,-1.10,-1.16,-1.20,10.74,10.74,10.73
49.46,11.84,1.15,11.84,1.16,-1.15,-1.20,-1.27,10.68,10.68,10.69
49.96,11.84,1.22,11.83,1.21,-1.21,-1.24,-1.34,10.63,10.62,10.62
50.46,11.84,1.26,11.84,1.26,-1.27,-1.28,-1.41,10.56,10.56,10.58
50.96,11.84,1.30,11.85,1.31,-1.34,-1.32,-1.48,10.50,10.51,10.54
51.47,11.88,1.38,11.88,1.38,-1.40,-1.36,-1.55,10.48,10.48,10.50
51.99,11.92,1.47,11.93,1.47,-1.46,-1.40,-1.61,10.45,10.46,10.45
52.51,11.97,1.56,11.97,1.55,-1.52,-1.44,-1.68,10.44,10.44,10.41
53.03,12.01,1.63,11.98,1.61,-1.58,-1.48,-1.75,10.43,10.40,10.38
53.56,11.97,1.65,11.97,1.65,-1.64,-1.53,-1.82,10.33,10.34,10.32
54.10,11.94,1.67,11.95,1.68,-1.69,-1.57,-1.88,10.25,10.27,10.27
54.64,11.94,1.71,11.94,1.72,-1.74,-1.61,-1.95,10.20,10.20,10.23
55.18,11.94,1.77,11.94,1.76,-1.78,-1.65,-2.01,10.16,10.16,10.17
55.74,11.94,1.82,11.94,1.81,-1.81,-1.69,-2.07,10.12,10.12,10.12
56.29,11.94,1.85,11.94,1.86,-1.85,-1.74,-2.13,10.09,10.09,10.09
56.86,11.94,1.89,11.94,1.90,-1.89,-1.78,-2.19,10.05,10.05,10.05
57.42,11.94,1.95,11.94,1.94,-1.93,-1.82,-2.25,10.01,10.01,9.99
58.00,11.94,1.98,11.94,1.98,-1.97,-1.87,-2.31,9.97,9.97,9.96
58.58,11.94,2.01,11.94,2.01,-2.01,-1.91,-2.36,9.92,9.92,9.93
59.16,11.94,2.05,11.94,2.05,-2.06,-1.95,-2.41,9.88,9.88,9.89
59.76,11.94,2.09,11.94,2.10,-2.11,-2.00,-2.46,9.83,9.83,9.85
60.35,11.94,2.16,11.94,2.15,-2.16,-2.04,-2.51,9.78,9.78,9.78
60.96,11.94,2.21,11.94,2.21,-2.22,-2.09,-2.55,9.72,9.72,9.73
61.57,11.94,2.28,11.94,2.28,-2.28,-2.13,-2.59,9.66,9.66,9.66
62.18,11.94,2.35,11.94,2.35,-2.34,-2.17,-2.63,9.60,9.60,9.59
62.80,11.94,2.41,11.94,2.41,-2.40,-2.22,-2.67,9.54,9.54,9.53
63.43,11.94,2.47,11.94,2.47,-2.47,-2.27,-2.71,9.47,9.47,9.47
64.07,11.94,2.52,11.94,2.52,-2.53,-2.31,-2.74,9.41,9.41,9.42
64.71,11.94,2.58,11.94,2.58,-2.59,-2.36,-2.77,9.35,9.35,9.36
65.35,11.94,2.64,11.94,2.64,-2.64,-2.40,-2.80,9.30,9.30,9.30
66.01,11.94,2.70,11.94,2.69,-2.69,-2.45,-2.82,9.25,9.25,9.24
66.67,11.94,2.74,11.95,2.76,-2.73,-2.50,-2.85,9.21,9.22,9.20
67.33,11.94,2.82,11.93,2.81,-2.77,-2.54,-2.87,9.17,9.16,9.12
68.01,11.94,2.87,11.89,2.82,-2.82,-2.59,-2.89,9.12,9.07,9.07
68.69,11.80,2.80,11.84,2.84,-2.86,-2.64,-2.91,8.94,8.98,9.00
69.37,11.78,2.83,11.81,2.87,-2.91,-2.69,-2.93,8.87,8.90,8.95
70.07,11.84,2.96,11.81,2.92,-2.96,-2.73,-2.95,8.88,8.85,8.88
70.77,11.84,3.02,11.83,3.02,-3.02,-2.78,-2.96,8.82,8.82,8.82
71.48,11.84,3.09,11.84,3.10,-3.08,-2.83,-2.98,8.76,8.77,8.75
72.19,11.84,3.16,11.84,3.16,-3.15,-2.88,-3.00,8.69,8.69,8.68
72.91,11.84,3.22,11.84,3.22,-3.22,-2.93,-3.02,8.62,8.62,8.62
73.64,11.84,3.29,11.84,3.29,-3.29,-2.98,-3.03,8.54,8.54,8.55
74.38,11.84,3.35,11.84,3.35,-3.36,-3.03,-3.05,8.48,8.48,8.49
75.12,11.84,3.42,11.84,3.41,-3.41,-3.08,-3.07,8.42,8.43,8.42
75.87,11.84,3.46,11.84,3.47,-3.46,-3.13,-3.09,8.38,8.39,8.38
76.63,11.84,3.53,11.84,3.52,-3.49,-3.18,-3.11,8.35,8.34,8.31
77.40,11.82,3.56,11.81,3.55,-3.52,-3.23,-3.14,8.29,8.29,8.26
78.17,11.77,3.57,11.77,3.56,-3.55,-3.28,-3.16,8.22,8.22,8.20
78.95,11.71,3.55,11.71,3.56,-3.57,-3.33,-3.19,8.14,8.14,8.16
79.74,11.66,3.56,11.67,3.57,-3.60,-3.38,-3.21,8.06,8.07,8.10
80.54,11.64,3.60,11.64,3.60,-3.63,-3.43,-3.24,8.01,8.01,8.04
81.35,11.64,3.65,11.63,3.65,-3.67,-3.48,-3.28,7.97,7.96,7.99
82.16,11.64,3.70,11.63,3.70,-3.71,-3.53,-3.31,7.93,7.92,7.94
82.98,11.63,3.75,11.63,3.75,-3.75,-3.58,-3.35,7.88,7.88,7.88
83.81,11.63,3.81,11.64,3.82,-3.79,-3.63,-3.39,7.84,7.85,7.82
84.65,11.64,3.88,11.64,3.89,-3.83,-3.68,-3.43,7.81,7.81,7.76
85.50,11.64,3.95,11.60,3.91,-3.87,-3.74,-3.47,7.77,7.73,7.69
86.35,11.56,3.93,11.54,3.91,-3.92,-3.79,-3.52,7.64,7.62,7.63
87.22,11.43,3.85,11.50,3.92,-3.98,-3.84,-3.57,7.45,7.52,7.58
88.09,11.48,3.97,11.48,3.97,-4.04,-3.89,-3.62,7.44,7.44,7.51
88.97,11.54,4.08,11.50,4.05,-4.10,-3.94,-3.68,7.44,7.40,7.46
89.86,11.54,4.16,11.54,4.15,-4.15,-4.00,-3.74,7.39,7.38,7.38
90.76,11.54,4.22,11.57,4.25,-4.20,-4.05,-3.80,7.34,7.37,7.32
91.66,11.57,4.32,11.59,4.34,-4.25,-4.10,-3.86,7.32,7.35,7.25
92.58,11.63,4.44,11.57,4.38,-4.29,-4.15,-3.93,7.33,7.27,7.19
93.51,11.52,4.40,11.48,4.36,-4.34,-4.21,-4.00,7.17,7.13,7.12
94.44,11.31,4.26,11.37,4.33,-4.39,-4.26,-4.07,6.92,6.98,7.05
95.39,11.26,4.29,11.30,4.33,-4.43,-4.31,-4.15,6.83,6.86,6.97
96.34,11.32,4.43,11.28,4.39,-4.47,-4.36,-4.22,6.85,6.82,6.89
97.30,11.33,4.52,11.32,4.51,-4.50,-4.41,-4.30,6.83,6.82,6.81
98.28,11.32,4.60,11.33,4.61,-4.54,-4.47,-4.38,6.78,6.79,6.72
99.26,11.31,4.68,11.31,4.68,-4.60,-4.52,-4.47,6.71,6.71,6.63
100.25,11.28,4.73,11.24,4.69,-4.68,-4.57,-4.55,6.60,6.56,6.55
101.25,11.17,4.69,11.16,4.69,-4.75,-4.62,-4.64,6.42,6.41,6.48
102.27,11.04,4.65,11.11,4.71,-4.80,-4.67,-4.73,6.24,6.30,6.39
103.29,11.10,4.79,11.12,4.80,-4.83,-4.72,-4.81,6.26,6.28,6.31
104.32,11.18,4.94,11.16,4.92,-4.86,-4.77,-4.90,6.32,6.30,6.24
105.37,11.21,5.05,11.16,5.00,-4.88,-4.82,-4.99,6.33,6.28,6.16
106.42,11.06,4.99,11.04,4.97,-4.91,-4.87,-5.08,6.15,6.13,6.07
107.48,10.87,4.89,10.89,4.90,-4.94,-4.92,-5.17,5.93,5.95,5.98
108.56,10.72,4.80,10.77,4.87,-4.96,-4.97,-5.26,5.76,5.81,5.92
109.64,10.74,4.91,10.74,4.91,-4.97,-5.02,-5.35,5.76,5.77,5.83
110.74,10.78,5.03,10.74,4.99,-4.99,-5.07,-5.43,5.79,5.75,5.75
111.85,10.76,5.08,10.74,5.06,-5.01,-5.12,-5.51,5.75,5.72,5.68
112.97,10.66,5.05,10.68,5.07,-5.04,-5.17,-5.59,5.62,5.63,5.61
114.10,10.61,5.07,10.61,5.07,-5.08,-5.21,-5.67,5.53,5.53,5.54
115.24,10.55,5.09,10.56,5.10,-5.12,-5.26,-5.74,5.43,5.44,5.46
116.39,10.55,5.17,10.57,5.18,-5.17,-5.31,-5.81,5.38,5.40,5.38
117.55,10.56,5.24,10.55,5.24,-5.21,-5.35,-5.87,5.35,5.34,5.32
118.73,10.56,5.32,10.49,5.24,-5.25,-5.40,-5.92,5.31,5.24,5.24
119.92,10.39,5.21,10.42,5.24,-5.29,-5.44,-5.97,5.10,5.13,5.18
121.12,10.33,5.20,10.41,5.29,-5.32,-5.49,-6.02,5.01,5.09,5.13
122.33,10.44,5.38,10.46,5.40,-5.36,-5.53,-6.05,5.08,5.10,5.06
123.55,10.58,5.57,10.47,5.46,-5.40,-5.57,-6.08,5.18,5.07,5.01
124.79,10.49,5.54,10.41,5.47,-5.43,-5.61,-6.11,5.06,4.98,4.95
126.03,10.17,5.29,10.33,5.44,-5.48,-5.65,-6.12,4.69,4.84,4.88
127.29,10.26,5.44,10.26,5.44,-5.53,-5.69,-6.13,4.73,4.73,4.82
128.57,10.32,5.56,10.27,5.51,-5.56,-5.73,-6.14,4.75,4.70,4.76
129.85,10.32,5.63,10.33,5.63,-5.58,-5.77,-6.13,4.74,4.74,4.69
131.15,10.31,5.68,10.30,5.67,-5.59,-5.81,-6.12,4.72,4.70,4.63
132.46,10.25,5.68,10.25,5.68,-5.62,-5.84,-6.11,4.63,4.63,4.57
133.79,10.17,5.66,10.20,5.69,-5.66,-5.88,-6.08,4.51,4.54,4.51
135.12,10.13,5.68,10.09,5.63,-5.70,-5.91,-6.06,4.43,4.39,4.45
136.48,10.05,5.64,10.01,5.61,-5.72,-5.95,-6.03,4.33,4.29,4.41
137.84,9.89,5.54,10.01,5.66,-5.73,-5.98,-5.99,4.16,4.28,4.35
139.22,10.04,5.77,10.07,5.79,-5.74,-6.01,-5.95,4.30,4.33,4.27
140.61,10.20,5.97,10.10,5.87,-5.77,-6.04,-5.91,4.43,4.33,4.23
142.02,10.14,5.97,10.04,5.87,-5.80,-6.06,-5.87,4.34,4.23,4.17
143.44,9.80,5.70,9.89,5.78,-5.83,-6.09,-5.82,3.97,4.07,4.10
144.87,9.71,5.66,9.80,5.75,-5.85,-6.12,-5.78,3.86,3.96,4.05
146.32,9.83,5.83,9.83,5.84,-5.86,-6.14,-5.73,3.97,3.97,4.00
147.78,9.97,6.03,9.88,5.94,-5.87,-6.16,-5.68,4.10,4.01,3.94
149.26,9.90,6.01,9.82,5.93,-5.89,-6.18,-5.63,4.01,3.93,3.89
150.75,9.61,5.79,9.69,5.86,-5.91,-6.20,-5.59,3.70,3.78,3.82
152.26,9.54,5.76,9.61,5.84,-5.92,-6.22,-5.54,3.62,3.69,3.78
153.78,9.63,5.91,9.64,5.92,-5.93,-6.24,-5.50,3.70,3.72,3.72
155.32,9.76,6.09,9.67,6.01,-5.93,-6.26,-5.46,3.83,3.74,3.67
156.88,9.71,6.10,9.63,6.02,-5.93,-6.27,-5.42,3.78,3.70,3.61
158.44,9.40,5.85,9.52,5.97,-5.94,-6.28,-5.38,3.46,3.58,3.55
160.03,9.40,5.91,9.37,5.88,-5.95,-6.29,-5.35,3.44,3.41,3.49
161.63,9.32,5.89,9.27,5.84,-5.96,-6.30,-5.32,3.35,3.30,3.43
163.24,9.21,5.85,9.31,5.95,-5.97,-6.31,-5.29,3.24,3.34,3.36
164.88,9.30,5.99,9.35,6.05,-5.98,-6.32,-5.27,3.32,3.37,3.31
166.53,9.49,6.25,9.31,6.06,-6.00,-6.32,-5.24,3.49,3.31,3.24
168.19,9.26,6.07,9.22,6.03,-6.03,-6.32,-5.23,3.23,3.19,3.19
169.87,8.94,5.81,9.12,6.00,-6.06,-6.32,-5.21,2.88,3.06,3.13
171.57,9.05,5.99,9.08,6.02,-6.08,-6.32,-5.21,2.96,3.00,3.06
173.29,9.23,6.23,9.14,6.14,-6.10,-6.32,-5.20,3.13,3.04,3.00
175.02,9.21,6.26,9.13,6.18,-6.10,-6.32,-5.20,3.11,3.03,2.95
176.77,9.02,6.12,9.02,6.13,-6.10,-6.31,-5.20,2.92,2.92,2.90
178.54,8.77,5.93,8.93,6.09,-6.10,-6.31,-5.21,2.67,2.83,2.84
180.32,8.90,6.12,8.84,6.06,-6.11,-6.30,-5.22,2.79,2.74,2.78
182.13,8.94,6.20,8.78,6.04,-6.09,-6.29,-5.23,2.84,2.68,2.74
183.95,8.63,5.94,8.80,6.11,-6.07,-6.28,-5.25,2.56,2.73,2.69
185.79,8.69,6.05,8.74,6.10,-6.05,-6.26,-5.27,2.63,2.69,2.64
187.65,8.86,6.26,8.65,6.05,-6.05,-6.25,-5.30,2.81,2.60,2.60
189.52,8.55,6.00,8.61,6.05,-6.06,-6.23,-5.33,2.49,2.55,2.55
191.42,8.42,5.90,8.53,6.02,-6.07,-6.21,-5.36,2.35,2.47,2.52
193.33,8.53,6.06,8.48,6.02,-6.08,-6.19,-5.40,2.45,2.40,2.47
195.27,8.56,6.14,8.52,6.09,-6.09,-6.17,-5.44,2.47,2.42,2.42
197.22,8.52,6.15,8.52,6.15,-6.10,-6.15,-5.48,2.42,2.42,2.37
199.19,8.45,6.11,8.47,6.14,-6.12,-6.13,-5.53,2.33,2.36,2.34
201.18,8.43,6.14,8.43,6.14,-6.13,-6.10,-5.58,2.30,2.30,2.29
203.19,8.40,6.14,8.39,6.13,-6.13,-6.07,-5.63,2.27,2.26,2.26
205.23,8.36,6.14,8.35,6.13,-6.12,-6.04,-5.68,2.24,2.23,2.22
207.28,8.28,6.09,8.29,6.10,-6.10,-6.01,-5.73,2.18,2.19,2.19
209.35,8.22,6.07,8.22,6.07,-6.06,-5.98,-5.79,2.16,2.15,2.15
211.44,8.15,6.05,8.17,6.06,-6.03,-5.95,-5.84,2.12,2.13,2.10
213.56,8.08,6.01,8.05,5.98,-6.01,-5.92,-5.90,2.07,2.04,2.07
215.69,8.03,6.00,7.96,5.93,-5.98,-5.88,-5.95,2.04,1.97,2.03
217.85,7.76,5.76,7.94,5.95,-5.96,-5.85,-6.01,1.80,1.98,2.00
220.03,7.95,6.00,7.89,5.93,-5.94,-5.81,-6.06,2.01,1.96,1.95
222.23,8.00,6.07,7.81,5.88,-5.90,-5.77,-6.11,2.09,1.90,1.93
224.45,7.65,5.75,7.84,5.94,-5.87,-5.73,-6.15,1.78,1.97,1.90
226.70,7.67,5.80,7.76,5.88,-5.83,-5.69,-6.20,1.84,1.93,1.87
228.96,7.92,6.07,7.64,5.79,-5.80,-5.65,-6.24,2.12,1.84,1.85
231.25,7.50,5.66,7.62,5.78,-5.77,-5.60,-6.27,1.73,1.84,1.84
233.57,7.39,5.58,7.53,5.72,-5.75,-5.56,-6.30,1.64,1.79,1.81
235.90,7.59,5.79,7.42,5.62,-5.73,-5.51,-6.32,1.86,1.69,1.80
238.26,7.44,5.66,7.44,5.65,-5.71,-5.47,-6.34,1.73,1.73,1.78
240.64,7.37,5.58,7.49,5.70,-5.68,-5.42,-6.35,1.69,1.81,1.79
243.05,7.49,5.71,7.49,5.72,-5.66,-5.37,-6.35,1.83,1.83,1.78
245.48,7.62,5.86,7.46,5.69,-5.65,-5.32,-6.34,1.97,1.81,1.76
247.93,7.39,5.64,7.42,5.66,-5.61,-5.27,-6.33,1.77,1.81,1.75
250.41,7.17,5.41,7.35,5.59,-5.58,-5.22,-6.30,1.59,1.76,1.76
252.92,7.38,5.62,7.23,5.48,-5.54,-5.17,-6.27,1.83,1.68,1.76
255.45,7.23,5.49,7.20,5.45,-5.48,-5.12,-6.23,1.75,1.72,1.74
258.00,7.04,5.31,7.20,5.47,-5.41,-5.06,-6.19,1.63,1.79,1.73
260.58,7.16,5.44,7.05,5.34,-5.35,-5.01,-6.13,1.80,1.70,1.72
263.19,7.09,5.38,6.98,5.27,-5.29,-4.96,-6.07,1.80,1.68,1.71
265.82,6.73,5.04,6.97,5.27,-5.24,-4.90,-5.99,1.49,1.73,1.69
268.48,6.93,5.24,6.85,5.17,-5.19,-4.85,-5.92,1.74,1.66,1.69
271.16,6.95,5.28,6.76,5.09,-5.13,-4.79,-5.83,1.81,1.63,1.67
273.87,6.57,4.91,6.78,5.13,-5.08,-4.73,-5.74,1.49,1.70,1.66
276.61,6.67,5.03,6.68,5.05,-5.04,-4.68,-5.65,1.63,1.64,1.64
279.38,6.79,5.18,6.58,4.96,-5.00,-4.62,-5.55,1.79,1.58,1.61
282.17,6.45,4.84,6.58,4.97,-4.96,-4.56,-5.45,1.49,1.62,1.61
284.99,6.43,4.82,6.49,4.89,-4.91,-4.50,-5.34,1.51,1.58,1.61
287.84,6.54,4.93,6.43,4.83,-4.87,-4.45,-5.23,1.67,1.57,1.61
290.72,6.42,4.83,6.49,4.89,-4.81,-4.39,-5.12,1.60,1.67,1.59
293.63,6.43,4.83,6.40,4.81,-4.76,-4.33,-5.01,1.67,1.64,1.60
296.57,6.40,4.80,6.27,4.68,-4.70,-4.27,-4.89,1.70,1.57,1.60
299.53,6.03,4.44,6.24,4.65,-4.64,-4.21,-4.78,1.39,1.60,1.59
302.53,6.17,4.57,6.15,4.56,-4.57,-4.15,-4.66,1.59,1.58,1.60
305.55,6.27,4.68,6.06,4.47,-4.51,-4.09,-4.55,1.76,1.55,1.59
308.61,5.90,4.30,6.07,4.47,-4.44,-4.03,-4.43,1.46,1.63,1.60
311.69,5.92,4.34,5.97,4.39,-4.38,-3.96,-4.32,1.54,1.60,1.58
314.81,6.04,4.45,5.85,4.27,-4.33,-3.90,-4.21,1.71,1.53,1.59
317.96,5.79,4.22,5.88,4.31,-4.29,-3.84,-4.10,1.50,1.59,1.57
321.14,5.72,4.14,5.83,4.25,-4.25,-3.78,-3.99,1.46,1.57,1.58
324.35,5.94,4.37,5.73,4.15,-4.21,-3.72,-3.88,1.73,1.52,1.57
327.59,5.63,4.05,5.73,4.15,-4.15,-3.65,-3.77,1.48,1.58,1.58
330.87,5.61,4.04,5.72,4.15,-4.08,-3.59,-3.67,1.53,1.64,1.57
334.18,5.75,4.19,5.63,4.06,-4.00,-3.53,-3.57,1.75,1.63,1.56
337.52,5.62,4.05,5.55,3.99,-3.93,-3.47,-3.47,1.69,1.63,1.57
340.90,5.34,3.78,5.41,3.84,-3.85,-3.40,-3.37,1.49,1.56,1.56
344.30,5.20,3.63,5.24,3.67,-3.78,-3.34,-3.28,1.42,1.46,1.57
347.75,5.19,3.61,5.17,3.60,-3.70,-3.28,-3.19,1.48,1.46,1.58
351.23,5.16,3.60,5.17,3.60,-3.62,-3.22,-3.10,1.53,1.55,1.56
354.74,5.18,3.60,5.14,3.57,-3.54,-3.15,-3.01,1.64,1.60,1.58
358.28,5.12,3.54,5.13,3.56,-3.46,-3.09,-2.92,1.65,1.67,1.58
361.87,5.01,3.43,5.07,3.48,-3.39,-3.03,-2.84,1.62,1.67,1.58
365.49,5.07,3.48,4.92,3.33,-3.33,-2.96,-2.76,1.74,1.59,1.59
369.14,4.75,3.15,4.83,3.23,-3.26,-2.90,-2.68,1.49,1.56,1.60
372.83,4.63,3.02,4.76,3.16,-3.19,-2.84,-2.61,1.43,1.57,1.61
376.56,4.82,3.22,4.65,3.04,-3.12,-2.77,-2.53,1.70,1.53,1.60
380.33,4.65,3.05,4.63,3.02,-3.05,-2.71,-2.46,1.60,1.58,1.60
384.13,4.44,2.83,4.62,3.01,-2.98,-2.64,-2.39,1.46,1.64,1.61
387.97,4.63,3.02,4.55,2.94,-2.93,-2.58,-2.32,1.69,1.61,1.61
391.85,4.61,3.01,4.50,2.90,-2.89,-2.52,-2.26,1.72,1.61,1.60
395.77,4.37,2.78,4.45,2.86,-2.83,-2.45,-2.19,1.54,1.63,1.59
399.73,4.29,2.70,4.33,2.73,-2.75,-2.39,-2.13,1.54,1.57,1.59
403.72,4.31,2.71,4.26,2.67,-2.67,-2.32,-2.07,1.64,1.59,1.60
407.76,4.18,2.60,4.22,2.64,-2.58,-2.26,-2.01,1.60,1.65,1.58
411.84,4.18,2.61,4.09,2.52,-2.49,-2.20,-1.95,1.69,1.61,1.57
415.96,3.94,2.37,3.92,2.36,-2.40,-2.13,-1.90,1.54,1.53,1.57
420.12,3.71,2.15,3.80,2.24,-2.31,-2.07,-1.84,1.40,1.49,1.56
424.32,3.72,2.15,3.74,2.17,-2.23,-2.00,-1.79,1.48,1.51,1.57
428.56,3.79,2.20,3.74,2.16,-2.17,-1.94,-1.73,1.62,1.57,1.59
432.85,3.79,2.18,3.73,2.12,-2.10,-1.88,-1.68,1.69,1.63,1.61
437.18,3.63,2.01,3.66,2.04,-2.02,-1.81,-1.63,1.61,1.64,1.62
441.55,3.56,1.91,3.62,1.97,-1.94,-1.75,-1.58,1.62,1.68,1.65
445.96,3.60,1.91,3.61,1.92,-1.86,-1.68,-1.53,1.74,1.75,1.69
450.42,3.66,1.93,3.57,1.84,-1.78,-1.62,-1.48,1.87,1.79,1.73
454.93,3.53,1.75,3.48,1.70,-1.71,-1.55,-1.43,1.82,1.77,1.78
459.48,3.29,1.45,3.39,1.55,-1.63,-1.49,-1.38,1.66,1.76,1.84
464.07,3.30,1.39,3.34,1.44,-1.55,-1.42,-1.33,1.74,1.79,1.91
468.71,3.46,1.50,3.40,1.44,-1.48,-1.36,-1.28,1.98,1.92,1.96
473.40,3.48,1.46,3.47,1.45,-1.41,-1.29,-1.23,2.07,2.07,2.02
478.13,3.53,1.45,3.52,1.44,-1.34,-1.22,-1.18,2.19,2.18,2.08
482.91,3.43,1.30,3.46,1.34,-1.28,-1.16,-1.13,2.15,2.18,2.13
487.74,3.46,1.30,3.37,1.21,-1.23,-1.09,-1.08,2.23,2.15,2.16
492.62,3.24,1.04,3.31,1.11,-1.16,-1.03,-1.03,2.08,2.15,2.20
