frequency,raw,error,smoothed,error_smoothed,equalization,parametric_eq,fixed_band_eq,equalized_raw,equalized_smoothed,target
20.00,6.35,1.91,6.35,1.88,-1.88,-1.70,-1.12,4.47,4.46,4.44
20.20,6.38,1.89,6.38,1.88,-1.88,-1.72,-1.15,4.50,4.50,4.49
20.40,6.42,1.88,6.42,1.88,-1.88,-1.74,-1.19,4.54,4.54,4.54
20.61,6.45,1.88,6.45,1.88,-1.88,-1.77,-1.22,4.57,4.57,4.57
20.81,6.49,1.87,6.48,1.88,-1.88,-1.79,-1.26,4.61,4.60,4.62
21.02,6.52,1.86,6.51,1.88,-1.88,-1.81,-1.29,4.64,4.63,4.66
21.23,6.54,1.86,6.54,1.89,-1.89,-1.83,-1.33,4.65,4.66,4.68
21.44,6.56,1.86,6.57,1.89,-1.89,-1.86,-1.37,4.67,4.68,4.70
21.66,6.58,1.86,6.60,1.90,-1.90,-1.88,-1.41,4.68,4.70,4.72
21.87,6.60,1.87,6.63,1.91,-1.91,-1.90,-1.45,4.69,4.72,4.73
22.09,6.63,1.88,6.66,1.93,-1.93,-1.92,-1.49,4.70,4.73,4.75
22.31,6.68,1.92,6.69,1.94,-1.94,-1.94,-1.53,4.74,4.75,4.76
22.54,6.73,1.97,6.71,1.96,-1.96,-1.97,-1.57,4.77,4.75,4.76
22.76,6.78,2.02,6.74,1.98,-1.98,-1.99,-1.62,4.80,4.76,4.76
22.99,6.83,2.08,6.77,2.01,-2.01,-2.01,-1.66,4.82,4.76,4.75
23.22,6.83,2.08,6.79,2.03,-2.03,-2.03,-1.71,4.80,4.76,4.75
23.45,6.82,2.07,6.82,2.06,-2.06,-2.06,-1.76,4.76,4.76,4.75
23.69,6.82,2.06,6.84,2.08,-2.08,-2.08,-1.81,4.74,4.76,4.76
23.92,6.81,2.05,6.87,2.11,-2.11,-2.10,-1.86,4.70,4.76,4.76
24.16,6.84,2.08,6.89,2.13,-2.13,-2.12,-1.91,4.71,4.76,4.76
24.40,6.89,2.12,6.91,2.15,-2.15,-2.15,-1.96,4.74,4.76,4.77
24.65,6.93,2.17,6.93,2.17,-2.17,-2.17,-2.01,4.76,4.76,4.76
24.89,6.98,2.22,6.94,2.18,-2.18,-2.19,-2.06,4.80,4.76,4.76
25.14,7.00,2.24,6.96,2.20,-2.20,-2.21,-2.11,4.80,4.76,4.76
25.39,7.00,2.23,6.98,2.22,-2.22,-2.24,-2.16,4.78,4.76,4.77
25.65,7.01,2.24,7.00,2.24,-2.24,-2.26,-2.22,4.77,4.76,4.77
25.91,7.01,2.25,7.03,2.27,-2.27,-2.28,-2.27,4.74,4.76,4.76
26.16,7.03,2.27,7.06,2.30,-2.30,-2.30,-2.32,4.73,4.76,4.76
26.43,7.05,2.29,7.08,2.32,-2.32,-2.32,-2.38,4.73,4.76,4.76
26.69,7.08,2.32,7.10,2.34,-2.34,-2.35,-2.43,4.74,4.76,4.76
26.96,7.11,2.35,7.11,2.36,-2.36,-2.37,-2.48,4.75,4.75,4.76
27.23,7.13,2.37,7.12,2.37,-2.37,-2.39,-2.53,4.76,4.75,4.76
27.50,7.16,2.40,7.14,2.38,-2.38,-2.41,-2.58,4.77,4.75,4.76
27.77,7.19,2.44,7.15,2.40,-2.40,-2.43,-2.62,4.79,4.75,4.75
28.05,7.21,2.46,7.17,2.42,-2.42,-2.45,-2.67,4.79,4.75,4.75
28.33,7.20,2.46,7.19,2.45,-2.45,-2.47,-2.71,4.75,4.75,4.74
28.62,7.20,2.46,7.22,2.47,-2.47,-2.49,-2.76,4.73,4.74,4.74
28.90,7.19,2.44,7.24,2.50,-2.50,-2.51,-2.80,4.69,4.74,4.75
29.19,7.21,2.47,7.26,2.52,-2.52,-2.54,-2.83,4.69,4.74,4.74
29.48,7.25,2.50,7.28,2.54,-2.54,-2.56,-2.87,4.71,4.74,4.75
29.78,7.28,2.54,7.30,2.56,-2.56,-2.58,-2.90,4.72,4.74,4.74
30.08,7.32,2.57,7.32,2.58,-2.58,-2.60,-2.93,4.74,4.74,4.75
30.38,7.36,2.62,7.33,2.60,-2.60,-2.62,-2.95,4.76,4.74,4.74
30.68,7.39,2.65,7.35,2.61,-2.61,-2.63,-2.97,4.78,4.73,4.74
30.99,7.43,2.69,7.36,2.63,-2.63,-2.65,-2.99,4.80,4.73,4.74
31.30,7.42,2.69,7.38,2.65,-2.65,-2.67,-3.01,4.77,4.73,4.73
31.61,7.42,2.69,7.40,2.67,-2.67,-2.69,-3.02,4.75,4.73,4.73
31.93,7.41,2.68,7.41,2.69,-2.69,-2.71,-3.03,4.72,4.72,4.73
32.24,7.41,2.69,7.42,2.70,-2.70,-2.73,-3.03,4.71,4.72,4.72
32.57,7.40,2.68,7.43,2.72,-2.72,-2.75,-3.03,4.68,4.72,4.72
32.89,7.39,2.67,7.44,2.73,-2.73,-2.76,-3.03,4.66,4.71,4.72
33.22,7.42,2.71,7.46,2.75,-2.75,-2.78,-3.03,4.67,4.71,4.71
33.55,7.46,2.75,7.47,2.77,-2.77,-2.80,-3.02,4.69,4.70,4.71
33.89,7.50,2.80,7.48,2.79,-2.79,-2.82,-3.01,4.71,4.70,4.70
34.23,7.51,2.81,7.50,2.80,-2.80,-2.83,-3.00,4.71,4.69,4.70
34.57,7.51,2.82,7.51,2.82,-2.82,-2.85,-2.99,4.69,4.69,4.69
34.92,7.51,2.82,7.52,2.84,-2.84,-2.87,-2.98,4.67,4.68,4.69
35.27,7.54,2.86,7.54,2.86,-2.86,-2.88,-2.96,4.68,4.68,4.68
35.62,7.58,2.90,7.56,2.88,-2.88,-2.90,-2.94,4.70,4.68,4.68
35.97,7.62,2.94,7.57,2.90,-2.90,-2.91,-2.93,4.72,4.68,4.68
36.33,7.62,2.94,7.59,2.92,-2.92,-2.93,-2.91,4.70,4.67,4.68
36.70,7.61,2.94,7.61,2.93,-2.93,-2.94,-2.89,4.68,4.67,4.67
37.06,7.61,2.94,7.62,2.94,-2.94,-2.96,-2.87,4.67,4.67,4.67
37.43,7.60,2.92,7.63,2.96,-2.96,-2.97,-2.85,4.64,4.67,4.68
37.81,7.59,2.91,7.64,2.97,-2.97,-2.99,-2.83,4.62,4.67,4.68
38.19,7.61,2.94,7.65,2.98,-2.98,-3.00,-2.81,4.63,4.67,4.67
38.57,7.66,2.98,7.66,2.99,-2.99,-3.01,-2.79,4.67,4.68,4.68
38.95,7.70,3.01,7.67,3.00,-3.00,-3.03,-2.78,4.70,4.68,4.69
39.34,7.71,3.03,7.68,3.00,-3.00,-3.04,-2.76,4.71,4.68,4.68
39.74,7.71,3.03,7.69,3.01,-3.01,-3.05,-2.75,4.70,4.68,4.68
40.14,7.71,3.03,7.69,3.02,-3.02,-3.07,-2.73,4.69,4.68,4.68
40.54,7.71,3.03,7.70,3.03,-3.03,-3.08,-2.72,4.68,4.67,4.68
40.94,7.71,3.04,7.71,3.04,-3.04,-3.09,-2.71,4.67,4.67,4.67
41.35,7.71,3.04,7.71,3.05,-3.05,-3.10,-2.70,4.66,4.66,4.67
41.76,7.71,3.05,7.72,3.06,-3.06,-3.11,-2.69,4.65,4.66,4.66
42.18,7.71,3.05,7.72,3.07,-3.07,-3.12,-2.69,4.64,4.65,4.66
42.60,7.71,3.06,7.72,3.08,-3.08,-3.13,-2.68,4.63,4.64,4.65
43.03,7.71,3.07,7.71,3.09,-3.09,-3.14,-2.68,4.62,4.63,4.64
43.46,7.71,3.08,7.71,3.10,-3.10,-3.16,-2.68,4.61,4.62,4.63
43.90,7.71,3.10,7.71,3.11,-3.11,-3.17,-2.68,4.60,4.60,4.61
44.33,7.71,3.12,7.71,3.12,-3.12,-3.18,-2.69,4.59,4.59,4.59
44.78,7.71,3.14,7.71,3.13,-3.13,-3.19,-2.69,4.58,4.58,4.57
45.23,7.71,3.15,7.71,3.14,-3.14,-3.19,-2.70,4.57,4.57,4.56
45.68,7.71,3.16,7.71,3.16,-3.16,-3.20,-2.71,4.55,4.55,4.55
46.13,7.71,3.18,7.71,3.17,-3.17,-3.21,-2.72,4.54,4.54,4.53
46.60,7.71,3.18,7.71,3.19,-3.19,-3.22,-2.73,4.52,4.52,4.53
47.06,7.71,3.20,7.71,3.20,-3.20,-3.23,-2.75,4.51,4.51,4.51
47.53,7.71,3.21,7.71,3.22,-3.22,-3.24,-2.77,4.49,4.49,4.50
48.01,7.71,3.21,7.71,3.23,-3.23,-3.25,-2.79,4.48,4.48,4.50
48.49,7.71,3.23,7.71,3.24,-3.24,-3.26,-2.81,4.47,4.47,4.48
48.97,7.71,3.25,7.71,3.26,-3.26,-3.27,-2.83,4.45,4.45,4.46
49.46,7.71,3.27,7.71,3.27,-3.27,-3.27,-2.86,4.44,4.44,4.44
49.96,7.71,3.29,7.71,3.28,-3.28,-3.28,-2.88,4.43,4.43,4.42
50.46,7.71,3.30,7.71,3.30,-3.30,-3.29,-2.91,4.41,4.41,4.41
50.96,7.71,3.31,7.71,3.31,-3.31,-3.30,-2.94,4.40,4.40,4.40
51.47,7.71,3.33,7.71,3.32,-3.32,-3.31,-2.97,4.39,4.39,4.38
51.99,7.71,3.34,7.71,3.34,-3.34,-3.32,-3.00,4.37,4.37,4.37
52.51,7.71,3.35,7.71,3.35,-3.35,-3.32,-3.03,4.36,4.36,4.36
53.03,7.71,3.35,7.71,3.36,-3.36,-3.33,-3.06,4.35,4.35,4.36
53.56,7.71,3.37,7.71,3.38,-3.38,-3.34,-3.10,4.33,4.33,4.34
54.10,7.71,3.38,7.71,3.39,-3.39,-3.35,-3.13,4.32,4.32,4.33
54.64,7.71,3.40,7.71,3.40,-3.40,-3.36,-3.16,4.31,4.31,4.31
55.18,7.71,3.40,7.72,3.41,-3.41,-3.37,-3.20,4.30,4.30,4.31
55.74,7.71,3.42,7.72,3.43,-3.43,-3.37,-3.23,4.28,4.29,4.29
56.29,7.71,3.43,7.72,3.44,-3.44,-3.38,-3.27,4.27,4.28,4.28
56.86,7.71,3.44,7.71,3.45,-3.45,-3.39,-3.30,4.26,4.26,4.27
57.42,7.71,3.47,7.71,3.47,-3.47,-3.40,-3.33,4.24,4.25,4.24
58.00,7.71,3.48,7.71,3.48,-3.48,-3.41,-3.36,4.23,4.23,4.23
58.58,7.71,3.49,7.71,3.50,-3.50,-3.42,-3.40,4.21,4.21,4.22
59.16,7.71,3.51,7.70,3.52,-3.52,-3.43,-3.43,4.19,4.18,4.20
59.76,7.72,3.54,7.69,3.54,-3.54,-3.44,-3.45,4.18,4.15,4.18
60.35,7.69,3.55,7.68,3.55,-3.55,-3.45,-3.48,4.14,4.12,4.14
60.96,7.64,3.54,7.66,3.57,-3.57,-3.46,-3.51,4.07,4.09,4.10
61.57,7.62,3.56,7.64,3.59,-3.59,-3.47,-3.53,4.03,4.05,4.06
62.18,7.61,3.59,7.62,3.60,-3.60,-3.48,-3.56,4.01,4.02,4.02
62.80,7.61,3.64,7.58,3.61,-3.61,-3.49,-3.58,4.00,3.97,3.97
63.43,7.58,3.65,7.54,3.61,-3.61,-3.50,-3.60,3.97,3.93,3.93
64.07,7.52,3.64,7.50,3.61,-3.61,-3.51,-3.62,3.91,3.89,3.88
64.71,7.46,3.62,7.45,3.61,-3.61,-3.53,-3.63,3.85,3.84,3.84
65.35,7.42,3.62,7.40,3.60,-3.60,-3.54,-3.65,3.82,3.80,3.80
66.01,7.41,3.66,7.35,3.61,-3.61,-3.55,-3.66,3.80,3.75,3.75
66.67,7.34,3.64,7.31,3.61,-3.61,-3.56,-3.68,3.73,3.70,3.70
67.33,7.28,3.63,7.28,3.62,-3.62,-3.58,-3.69,3.66,3.65,3.65
68.01,7.21,3.60,7.25,3.64,-3.64,-3.59,-3.70,3.57,3.60,3.61
68.69,7.14,3.58,7.23,3.67,-3.67,-3.61,-3.71,3.47,3.55,3.56
69.37,7.11,3.60,7.21,3.71,-3.71,-3.62,-3.72,3.40,3.50,3.51
70.07,7.12,3.66,7.21,3.76,-3.76,-3.64,-3.73,3.36,3.45,3.46
70.77,7.19,3.78,7.21,3.82,-3.82,-3.66,-3.75,3.37,3.40,3.41
71.48,7.21,3.85,7.23,3.88,-3.88,-3.67,-3.76,3.33,3.34,3.36
72.19,7.23,3.94,7.25,3.96,-3.96,-3.69,-3.77,3.27,3.29,3.29
72.91,7.30,4.07,7.28,4.05,-4.05,-3.71,-3.78,3.25,3.23,3.23
73.64,7.31,4.13,7.31,4.13,-4.13,-3.73,-3.80,3.18,3.17,3.18
74.38,7.35,4.23,7.34,4.22,-4.22,-3.75,-3.81,3.13,3.12,3.12
75.12,7.41,4.35,7.37,4.31,-4.31,-3.77,-3.83,3.10,3.06,3.06
75.87,7.41,4.41,7.40,4.39,-4.39,-3.79,-3.85,3.02,3.01,3.00
76.63,7.41,4.46,7.42,4.47,-4.47,-3.81,-3.87,2.94,2.95,2.95
77.40,7.41,4.51,7.42,4.52,-4.52,-3.83,-3.89,2.89,2.90,2.90
78.17,7.41,4.57,7.40,4.56,-4.56,-3.86,-3.91,2.85,2.85,2.84
78.95,7.41,4.61,7.37,4.57,-4.57,-3.88,-3.94,2.84,2.79,2.80
79.74,7.36,4.61,7.32,4.57,-4.57,-3.91,-3.97,2.79,2.74,2.75
80.54,7.30,4.60,7.25,4.55,-4.55,-3.93,-4.00,2.75,2.70,2.70
81.35,7.20,4.55,7.17,4.52,-4.52,-3.96,-4.04,2.68,2.65,2.65
82.16,7.05,4.45,7.07,4.47,-4.47,-3.99,-4.07,2.58,2.60,2.60
82.98,7.01,4.45,6.95,4.40,-4.40,-4.01,-4.11,2.61,2.55,2.56
83.81,6.86,4.35,6.82,4.31,-4.31,-4.04,-4.16,2.55,2.51,2.51
84.65,6.65,4.19,6.67,4.21,-4.21,-4.07,-4.20,2.44,2.46,2.46
85.50,6.47,4.05,6.50,4.09,-4.09,-4.10,-4.25,2.38,2.41,2.42
86.35,6.31,3.94,6.31,3.95,-3.95,-4.14,-4.31,2.36,2.36,2.37
87.22,6.14,3.82,6.11,3.80,-3.80,-4.17,-4.36,2.34,2.31,2.32
88.09,5.97,3.70,5.90,3.64,-3.64,-4.20,-4.42,2.33,2.26,2.27
88.97,5.78,3.57,5.69,3.48,-3.48,-4.24,-4.48,2.30,2.21,2.21
89.86,5.55,3.39,5.46,3.31,-3.31,-4.27,-4.55,2.24,2.16,2.16
90.76,5.31,3.20,5.25,3.14,-3.14,-4.31,-4.62,2.17,2.11,2.11
91.66,5.07,3.01,5.04,2.99,-2.99,-4.35,-4.69,2.08,2.06,2.06
92.58,4.88,2.88,4.86,2.85,-2.85,-4.39,-4.77,2.03,2.01,2.00
93.51,4.72,2.77,4.72,2.76,-2.76,-4.43,-4.84,1.96,1.96,1.95
94.44,4.56,2.65,4.61,2.71,-2.71,-4.47,-4.93,1.85,1.90,1.91
95.39,4.43,2.57,4.54,2.69,-2.69,-4.51,-5.01,1.74,1.85,1.86
96.34,4.34,2.53,4.52,2.72,-2.72,-4.56,-5.10,1.62,1.81,1.81
97.30,4.29,2.53,4.55,2.79,-2.79,-4.60,-5.19,1.50,1.76,1.76
98.28,4.38,2.67,4.62,2.91,-2.91,-4.65,-5.28,1.47,1.71,1.71
99.26,4.53,2.86,4.74,3.08,-3.08,-4.69,-5.38,1.45,1.66,1.67
100.25,4.78,3.16,4.90,3.28,-3.28,-4.74,-5.48,1.50,1.61,1.62
101.25,5.03,3.47,5.09,3.52,-3.52,-4.79,-5.58,1.51,1.57,1.57
102.27,5.43,3.91,5.30,3.79,-3.79,-4.84,-5.68,1.64,1.52,1.52
103.29,5.66,4.19,5.53,4.06,-4.06,-4.89,-5.78,1.60,1.47,1.47
104.32,5.88,4.45,5.76,4.34,-4.34,-4.95,-5.88,1.54,1.42,1.43
105.37,6.12,4.74,6.00,4.63,-4.63,-5.00,-5.99,1.49,1.37,1.38
106.42,6.39,5.06,6.23,4.91,-4.91,-5.06,-6.09,1.48,1.32,1.33
107.48,6.55,5.28,6.44,5.17,-5.17,-5.11,-6.19,1.38,1.27,1.27
108.56,6.71,5.49,6.62,5.41,-5.41,-5.17,-6.30,1.30,1.21,1.22
109.64,6.86,5.69,6.78,5.62,-5.62,-5.23,-6.40,1.24,1.16,1.17
110.74,6.95,5.84,6.92,5.81,-5.81,-5.29,-6.50,1.14,1.11,1.11
111.85,7.03,5.96,7.03,5.98,-5.98,-5.35,-6.59,1.05,1.06,1.07
112.97,7.07,6.06,7.13,6.12,-6.12,-5.42,-6.68,0.95,1.01,1.01
114.10,7.16,6.20,7.21,6.25,-6.25,-5.48,-6.77,0.91,0.96,0.96
115.24,7.29,6.38,7.29,6.38,-6.38,-5.54,-6.85,0.91,0.91,0.91
116.39,7.32,6.46,7.36,6.49,-6.49,-5.61,-6.93,0.83,0.87,0.86
117.55,7.34,6.52,7.42,6.59,-6.59,-5.68,-7.00,0.75,0.83,0.82
118.73,7.41,6.63,7.47,6.68,-6.68,-5.75,-7.07,0.73,0.79,0.78
119.92,7.54,6.79,7.52,6.77,-6.77,-5.82,-7.13,0.77,0.75,0.75
121.12,7.59,6.88,7.56,6.85,-6.85,-5.89,-7.18,0.74,0.71,0.71
122.33,7.64,6.96,7.60,6.92,-6.92,-5.96,-7.22,0.72,0.68,0.68
123.55,7.68,7.03,7.64,6.99,-6.99,-6.03,-7.26,0.69,0.64,0.65
124.79,7.68,7.06,7.67,7.06,-7.06,-6.11,-7.28,0.62,0.61,0.62
126.03,7.69,7.10,7.69,7.11,-7.11,-6.18,-7.30,0.58,0.58,0.59
127.29,7.74,7.17,7.71,7.16,-7.16,-6.26,-7.31,0.58,0.55,0.57
128.57,7.74,7.21,7.72,7.20,-7.20,-6.34,-7.32,0.54,0.52,0.53
129.85,7.71,7.21,7.73,7.24,-7.24,-6.41,-7.31,0.47,0.50,0.50
131.15,7.71,7.24,7.74,7.27,-7.27,-6.49,-7.30,0.44,0.47,0.47
132.46,7.72,7.28,7.74,7.30,-7.30,-6.57,-7.28,0.42,0.44,0.44
133.79,7.72,7.31,7.74,7.33,-7.33,-6.65,-7.25,0.39,0.41,0.41
135.12,7.73,7.35,7.74,7.35,-7.35,-6.73,-7.22,0.38,0.38,0.38
136.48,7.73,7.37,7.74,7.38,-7.38,-6.81,-7.18,0.35,0.36,0.36
137.84,7.73,7.41,7.74,7.41,-7.41,-6.89,-7.14,0.32,0.33,0.32
139.22,7.73,7.44,7.74,7.44,-7.44,-6.97,-7.09,0.29,0.30,0.29
140.61,7.74,7.48,7.75,7.48,-7.48,-7.06,-7.04,0.26,0.27,0.26
142.02,7.74,7.50,7.75,7.52,-7.52,-7.14,-6.99,0.22,0.24,0.24
143.44,7.74,7.53,7.76,7.56,-7.56,-7.22,-6.94,0.18,0.20,0.21
144.87,7.74,7.57,7.77,7.61,-7.61,-7.30,-6.88,0.13,0.16,0.17
146.32,7.74,7.61,7.77,7.65,-7.65,-7.38,-6.83,0.09,0.12,0.13
147.78,7.74,7.64,7.76,7.69,-7.69,-7.46,-6.77,0.05,0.07,0.10
149.26,7.74,7.69,7.73,7.72,-7.72,-7.54,-6.72,0.02,0.02,0.05
150.75,7.74,7.75,7.69,7.73,-7.73,-7.61,-6.67,0.01,-0.04,-0.01
152.26,7.71,7.79,7.63,7.73,-7.73,-7.69,-6.61,-0.02,-0.10,-0.08
153.78,7.65,7.80,7.56,7.73,-7.73,-7.77,-6.56,-0.08,-0.17,-0.15
155.32,7.64,7.86,7.49,7.73,-7.73,-7.84,-6.52,-0.09,-0.24,-0.22
156.88,7.59,7.89,7.42,7.73,-7.73,-7.91,-6.47,-0.14,-0.31,-0.30
158.44,7.44,7.82,7.35,7.73,-7.73,-7.98,-6.43,-0.29,-0.38,-0.38
160.03,7.27,7.73,7.29,7.74,-7.74,-8.05,-6.39,-0.47,-0.45,-0.46
161.63,7.13,7.66,7.25,7.76,-7.76,-8.12,-6.36,-0.63,-0.51,-0.53
163.24,7.03,7.62,7.21,7.78,-7.78,-8.18,-6.33,-0.75,-0.57,-0.59
164.88,6.94,7.58,7.18,7.81,-7.81,-8.24,-6.30,-0.87,-0.63,-0.64
166.53,6.92,7.61,7.16,7.84,-7.84,-8.30,-6.28,-0.92,-0.68,-0.69
168.19,7.00,7.73,7.15,7.87,-7.87,-8.35,-6.26,-0.87,-0.72,-0.73
169.87,7.13,7.90,7.15,7.90,-7.90,-8.40,-6.24,-0.77,-0.75,-0.77
171.57,7.27,8.06,7.16,7.94,-7.94,-8.44,-6.24,-0.67,-0.78,-0.79
173.29,7.31,8.11,7.18,7.98,-7.98,-8.49,-6.23,-0.67,-0.80,-0.80
175.02,7.36,8.17,7.22,8.02,-8.02,-8.52,-6.23,-0.66,-0.81,-0.81
176.77,7.39,8.21,7.26,8.08,-8.08,-8.56,-6.24,-0.69,-0.82,-0.82
178.54,7.39,8.22,7.30,8.13,-8.13,-8.58,-6.25,-0.74,-0.83,-0.83
180.32,7.36,8.18,7.34,8.17,-8.17,-8.61,-6.26,-0.81,-0.83,-0.82
182.13,7.32,8.13,7.36,8.20,-8.20,-8.63,-6.28,-0.88,-0.84,-0.81
183.95,7.31,8.13,7.38,8.22,-8.22,-8.64,-6.30,-0.91,-0.84,-0.82
185.79,7.32,8.14,7.37,8.22,-8.22,-8.65,-6.33,-0.90,-0.85,-0.82
187.65,7.34,8.18,7.36,8.22,-8.22,-8.65,-6.36,-0.88,-0.86,-0.84
189.52,7.35,8.20,7.34,8.21,-8.21,-8.65,-6.40,-0.86,-0.87,-0.85
191.42,7.36,8.23,7.32,8.20,-8.20,-8.64,-6.44,-0.84,-0.88,-0.87
193.33,7.34,8.23,7.31,8.21,-8.21,-8.62,-6.48,-0.87,-0.89,-0.89
195.27,7.31,8.22,7.30,8.22,-8.22,-8.60,-6.53,-0.91,-0.91,-0.91
197.22,7.31,8.24,7.30,8.23,-8.23,-8.58,-6.59,-0.92,-0.93,-0.93
199.19,7.26,8.21,7.29,8.24,-8.24,-8.55,-6.64,-0.98,-0.95,-0.95
201.18,7.22,8.19,7.29,8.26,-8.26,-8.51,-6.70,-1.04,-0.97,-0.97
203.19,7.23,8.22,7.28,8.27,-8.27,-8.47,-6.76,-1.04,-0.99,-0.99
205.23,7.23,8.24,7.26,8.27,-8.27,-8.42,-6.83,-1.04,-1.01,-1.01
207.28,7.23,8.25,7.24,8.27,-8.27,-8.37,-6.89,-1.04,-1.03,-1.02
209.35,7.23,8.27,7.21,8.26,-8.26,-8.31,-6.96,-1.03,-1.05,-1.04
211.44,7.23,8.30,7.18,8.25,-8.25,-8.25,-7.03,-1.02,-1.07,-1.07
213.56,7.22,8.30,7.15,8.23,-8.23,-8.19,-7.09,-1.01,-1.08,-1.08
215.69,7.14,8.23,7.11,8.21,-8.21,-8.12,-7.16,-1.07,-1.10,-1.09
217.85,7.09,8.19,7.07,8.18,-8.18,-8.04,-7.23,-1.09,-1.11,-1.10
220.03,7.04,8.15,7.02,8.14,-8.14,-7.96,-7.29,-1.10,-1.12,-1.11
222.23,6.99,8.13,6.97,8.10,-8.10,-7.88,-7.35,-1.11,-1.12,-1.14
224.45,6.88,8.01,6.91,8.04,-8.04,-7.80,-7.41,-1.16,-1.13,-1.13
226.70,6.81,7.94,6.84,7.97,-7.97,-7.71,-7.47,-1.16,-1.13,-1.13
228.96,6.72,7.84,6.77,7.89,-7.89,-7.62,-7.51,-1.17,-1.12,-1.12
231.25,6.67,7.78,6.69,7.81,-7.81,-7.52,-7.56,-1.14,-1.11,-1.11
233.57,6.63,7.73,6.62,7.72,-7.72,-7.43,-7.59,-1.09,-1.10,-1.10
235.90,6.56,7.65,6.54,7.62,-7.62,-7.33,-7.62,-1.06,-1.09,-1.09
238.26,6.48,7.56,6.46,7.53,-7.53,-7.23,-7.64,-1.05,-1.07,-1.08
240.64,6.37,7.42,6.38,7.43,-7.43,-7.12,-7.65,-1.06,-1.05,-1.05
243.05,6.31,7.33,6.30,7.33,-7.33,-7.02,-7.65,-1.02,-1.03,-1.02
245.48,6.22,7.22,6.22,7.22,-7.22,-6.91,-7.65,-1.00,-1.01,-1.00
247.93,6.08,7.05,6.14,7.12,-7.12,-6.80,-7.63,-1.04,-0.98,-0.97
250.41,6.06,7.01,6.06,7.02,-7.02,-6.69,-7.60,-0.96,-0.96,-0.95
252.92,6.01,6.93,5.97,6.91,-6.91,-6.58,-7.56,-0.90,-0.94,-0.92
255.45,5.85,6.75,5.88,6.79,-6.79,-6.47,-7.51,-0.94,-0.91,-0.90
258.00,5.79,6.67,5.79,6.67,-6.67,-6.35,-7.45,-0.88,-0.89,-0.88
260.58,5.71,6.57,5.70,6.56,-6.56,-6.24,-7.38,-0.85,-0.86,-0.86
263.19,5.61,6.44,5.62,6.46,-6.46,-6.12,-7.30,-0.85,-0.84,-0.83
265.82,5.52,6.33,5.54,6.35,-6.35,-6.01,-7.21,-0.83,-0.81,-0.81
268.48,5.46,6.25,5.45,6.24,-6.24,-5.89,-7.11,-0.78,-0.79,-0.79
271.16,5.37,6.13,5.36,6.12,-6.12,-5.77,-7.00,-0.75,-0.76,-0.76
273.87,5.26,6.00,5.27,6.01,-6.01,-5.66,-6.89,-0.75,-0.74,-0.74
276.61,5.15,5.86,5.18,5.89,-5.89,-5.54,-6.77,-0.74,-0.71,-0.71
279.38,5.01,5.69,5.08,5.76,-5.76,-5.42,-6.65,-0.75,-0.69,-0.68
282.17,4.99,5.65,4.98,5.63,-5.63,-5.30,-6.52,-0.64,-0.66,-0.66
284.99,4.97,5.59,4.88,5.51,-5.51,-5.18,-6.39,-0.54,-0.63,-0.62
287.84,4.86,5.46,4.77,5.37,-5.37,-5.06,-6.25,-0.51,-0.60,-0.60
290.72,4.69,5.26,4.66,5.23,-5.23,-4.93,-6.11,-0.54,-0.57,-0.57
293.63,4.46,5.00,4.54,5.08,-5.08,-4.81,-5.97,-0.62,-0.54,-0.54
296.57,4.34,4.85,4.41,4.92,-4.92,-4.69,-5.83,-0.58,-0.51,-0.51
299.53,4.29,4.77,4.28,4.76,-4.76,-4.57,-5.68,-0.47,-0.48,-0.48
302.53,4.19,4.65,4.15,4.60,-4.60,-4.44,-5.54,-0.41,-0.46,-0.46
305.55,4.01,4.43,4.01,4.44,-4.44,-4.32,-5.40,-0.43,-0.43,-0.42
308.61,3.87,4.27,3.87,4.28,-4.28,-4.19,-5.25,-0.41,-0.41,-0.40
311.69,3.77,4.14,3.73,4.11,-4.11,-4.07,-5.11,-0.34,-0.38,-0.37
314.81,3.60,3.95,3.57,3.93,-3.93,-3.94,-4.97,-0.33,-0.36,-0.35
317.96,3.38,3.71,3.41,3.75,-3.75,-3.81,-4.83,-0.37,-0.34,-0.33
321.14,3.24,3.56,3.26,3.58,-3.58,-3.69,-4.69,-0.34,-0.32,-0.32
324.35,3.10,3.40,3.12,3.42,-3.42,-3.56,-4.56,-0.32,-0.30,-0.30
327.59,3.00,3.29,2.97,3.26,-3.26,-3.43,-4.43,-0.26,-0.29,-0.29
330.87,2.86,3.14,2.82,3.09,-3.09,-3.30,-4.30,-0.23,-0.28,-0.28
334.18,2.69,2.95,2.66,2.92,-2.92,-3.17,-4.17,-0.23,-0.26,-0.26
337.52,2.53,2.78,2.51,2.77,-2.77,-3.04,-4.04,-0.24,-0.25,-0.25
340.90,2.38,2.62,2.38,2.63,-2.63,-2.91,-3.92,-0.25,-0.25,-0.24
344.30,2.20,2.43,2.25,2.49,-2.49,-2.79,-3.79,-0.29,-0.24,-0.23
347.75,2.04,2.27,2.13,2.36,-2.36,-2.66,-3.68,-0.32,-0.23,-0.23
351.23,1.97,2.19,2.02,2.25,-2.25,-2.54,-3.56,-0.28,-0.23,-0.22
354.74,1.95,2.18,1.91,2.14,-2.14,-2.42,-3.45,-0.19,-0.23,-0.23
358.28,1.84,2.06,1.82,2.04,-2.04,-2.30,-3.33,-0.20,-0.22,-0.22
361.87,1.73,1.95,1.73,1.95,-1.95,-2.18,-3.23,-0.22,-0.22,-0.22
365.49,1.60,1.81,1.66,1.88,-1.88,-2.07,-3.12,-0.28,-0.22,-0.21
369.14,1.58,1.80,1.60,1.82,-1.82,-1.96,-3.02,-0.24,-0.22,-0.22
372.83,1.59,1.81,1.56,1.78,-1.78,-1.86,-2.92,-0.19,-0.22,-0.22
376.56,1.53,1.76,1.52,1.75,-1.75,-1.77,-2.82,-0.22,-0.23,-0.23
380.33,1.46,1.68,1.50,1.72,-1.72,-1.68,-2.72,-0.26,-0.23,-0.22
384.13,1.40,1.62,1.48,1.71,-1.71,-1.60,-2.63,-0.31,-0.23,-0.22
387.97,1.40,1.63,1.45,1.69,-1.69,-1.52,-2.53,-0.29,-0.24,-0.23
391.85,1.41,1.65,1.43,1.67,-1.67,-1.46,-2.45,-0.26,-0.24,-0.24
395.77,1.42,1.65,1.40,1.65,-1.65,-1.40,-2.36,-0.23,-0.25,-0.23
399.73,1.43,1.67,1.37,1.62,-1.62,-1.35,-2.27,-0.19,-0.25,-0.24
403.72,1.43,1.67,1.33,1.58,-1.58,-1.31,-2.19,-0.16,-0.26,-0.24
407.76,1.35,1.61,1.28,1.54,-1.54,-1.27,-2.11,-0.19,-0.26,-0.26
411.84,1.31,1.57,1.22,1.48,-1.48,-1.24,-2.03,-0.17,-0.26,-0.26
415.96,1.24,1.50,1.16,1.43,-1.43,-1.22,-1.95,-0.19,-0.26,-0.26
420.12,1.19,1.45,1.11,1.38,-1.38,-1.20,-1.88,-0.18,-0.26,-0.26
424.32,1.06,1.32,1.06,1.31,-1.31,-1.19,-1.81,-0.25,-0.26,-0.26
428.56,0.98,1.23,1.00,1.25,-1.25,-1.18,-1.74,-0.27,-0.25,-0.25
432.85,0.88,1.12,0.94,1.17,-1.17,-1.18,-1.67,-0.29,-0.23,-0.24
437.18,0.77,1.00,0.89,1.10,-1.10,-1.17,-1.60,-0.33,-0.21,-0.23
441.55,0.71,0.90,0.85,1.04,-1.04,-1.17,-1.54,-0.33,-0.18,-0.19
445.96,0.73,0.89,0.83,0.98,-0.98,-1.17,-1.47,-0.25,-0.15,-0.16
450.42,0.81,0.94,0.81,0.93,-0.93,-1.18,-1.41,-0.11,-0.12,-0.13
454.93,0.87,0.95,0.81,0.88,-0.88,-1.18,-1.36,-0.01,-0.08,-0.08
459.48,0.88,0.92,0.82,0.85,-0.85,-1.18,-1.30,0.03,-0.03,-0.04
464.07,0.86,0.85,0.84,0.83,-0.83,-1.18,-1.24,0.03,0.01,0.01
468.71,0.84,0.77,0.88,0.82,-0.82,-1.18,-1.19,0.02,0.06,0.07
473.40,0.93,0.82,0.94,0.83,-0.83,-1.18,-1.14,0.10,0.11,0.11
478.13,1.03,0.86,1.00,0.85,-0.85,-1.18,-1.09,0.18,0.16,0.17
482.91,1.09,0.88,1.07,0.87,-0.87,-1.18,-1.05,0.22,0.20,0.21
487.74,1.13,0.88,1.15,0.91,-0.91,-1.18,-1.00,0.22,0.25,0.25
492.62,1.17,0.87,1.23,0.95,-0.95,-1.18,-0.96,0.22,0.28,0.30
497.55,1.24,0.92,1.30,0.99,-0.99,-1.17,-0.92,0.25,0.31,0.32
502.52,1.38,1.03,1.38,1.05,-1.05,-1.17,-0.88,0.33,0.33,0.35
507.55,1.47,1.11,1.46,1.12,-1.12,-1.16,-0.84,0.35,0.35,0.36
512.62,1.54,1.17,1.55,1.19,-1.19,-1.16,-0.81,0.35,0.36,0.37
517.75,1.64,1.26,1.62,1.26,-1.26,-1.15,-0.77,0.38,0.35,0.38
