frequency,raw,error,smoothed,error_smoothed,equalization,parametric_eq,fixed_band_eq,equalized_raw,equalized_smoothed,target
20.00,0.40,-7.08,0.39,-7.11,7.11,6.49,2.00,7.51,7.50,7.48
20.20,0.45,-7.03,0.44,-7.05,7.05,6.45,2.06,7.50,7.49,7.48
20.40,0.49,-6.99,0.50,-6.99,6.99,6.40,2.12,7.47,7.48,7.48
20.61,0.55,-6.93,0.55,-6.92,6.92,6.35,2.18,7.47,7.47,7.47
20.81,0.60,-6.88,0.60,-6.86,6.86,6.31,2.25,7.46,7.46,7.47
21.02,0.65,-6.83,0.65,-6.80,6.80,6.26,2.31,7.44,7.45,7.47
21.23,0.71,-6.75,0.71,-6.73,6.73,6.21,2.38,7.44,7.44,7.45
21.44,0.77,-6.67,0.76,-6.66,6.66,6.16,2.45,7.43,7.42,7.44
21.66,0.82,-6.61,0.82,-6.59,6.59,6.12,2.53,7.41,7.41,7.42
21.87,0.87,-6.53,0.87,-6.53,6.53,6.07,2.60,7.39,7.39,7.40
22.09,0.93,-6.46,0.92,-6.45,6.45,6.02,2.68,7.38,7.38,7.39
22.31,0.98,-6.38,0.98,-6.38,6.38,5.97,2.76,7.36,7.36,7.36
22.54,1.03,-6.31,1.03,-6.31,6.31,5.92,2.84,7.33,7.34,7.34
22.76,1.09,-6.23,1.09,-6.23,6.23,5.87,2.92,7.32,7.32,7.32
22.99,1.15,-6.14,1.14,-6.15,6.15,5.82,3.01,7.30,7.29,7.29
23.22,1.20,-6.06,1.20,-6.07,6.07,5.77,3.10,7.27,7.27,7.26
23.45,1.26,-5.98,1.26,-5.99,5.99,5.72,3.19,7.25,7.25,7.24
23.69,1.31,-5.92,1.31,-5.92,5.92,5.67,3.28,7.22,7.23,7.23
23.92,1.37,-5.84,1.37,-5.84,5.84,5.62,3.37,7.21,7.21,7.21
24.16,1.43,-5.77,1.42,-5.77,5.77,5.57,3.46,7.19,7.19,7.19
24.40,1.48,-5.69,1.48,-5.69,5.69,5.52,3.56,7.17,7.17,7.17
24.65,1.54,-5.62,1.54,-5.61,5.61,5.47,3.66,7.15,7.15,7.15
24.89,1.59,-5.54,1.59,-5.54,5.54,5.42,3.76,7.13,7.13,7.13
25.14,1.65,-5.47,1.65,-5.47,5.47,5.37,3.85,7.11,7.12,7.12
25.39,1.71,-5.39,1.70,-5.39,5.39,5.31,3.95,7.10,7.10,7.10
25.65,1.76,-5.33,1.76,-5.32,5.32,5.26,4.05,7.08,7.08,7.09
25.91,1.82,-5.24,1.82,-5.25,5.25,5.21,4.15,7.07,7.07,7.06
26.16,1.87,-5.18,1.87,-5.18,5.18,5.16,4.25,7.05,7.05,7.05
26.43,1.93,-5.11,1.93,-5.11,5.11,5.11,4.35,7.03,7.03,7.04
26.69,1.99,-5.03,1.98,-5.04,5.04,5.06,4.45,7.02,7.02,7.01
26.96,2.04,-4.97,2.04,-4.96,4.96,5.01,4.54,7.00,7.00,7.00
27.23,2.10,-4.89,2.09,-4.90,4.90,4.95,4.64,6.99,6.99,6.99
27.50,2.14,-4.84,2.15,-4.83,4.83,4.90,4.73,6.96,6.97,6.98
27.77,2.20,-4.76,2.20,-4.76,4.76,4.85,4.82,6.96,6.96,6.96
28.05,2.26,-4.69,2.25,-4.69,4.69,4.80,4.90,6.95,6.94,6.95
28.33,2.30,-4.63,2.30,-4.63,4.63,4.75,4.98,6.92,6.93,6.92
28.62,2.36,-4.56,2.36,-4.56,4.56,4.70,5.05,6.92,6.92,6.91
28.90,2.41,-4.49,2.41,-4.49,4.49,4.65,5.12,6.90,6.90,6.90
29.19,2.46,-4.42,2.46,-4.43,4.43,4.59,5.18,6.89,6.89,6.88
29.48,2.51,-4.37,2.51,-4.37,4.37,4.54,5.24,6.87,6.88,6.88
29.78,2.56,-4.31,2.56,-4.30,4.30,4.49,5.28,6.86,6.86,6.87
30.08,2.61,-4.25,2.61,-4.24,4.24,4.44,5.32,6.85,6.85,6.85
30.38,2.65,-4.18,2.65,-4.18,4.18,4.39,5.36,6.83,6.83,6.83
30.68,2.71,-4.11,2.70,-4.12,4.12,4.34,5.38,6.83,6.82,6.82
30.99,2.75,-4.05,2.74,-4.06,4.06,4.28,5.39,6.81,6.80,6.80
31.30,2.79,-4.00,2.78,-4.00,4.00,4.23,5.40,6.79,6.78,6.78
31.61,2.83,-3.94,2.82,-3.94,3.94,4.18,5.40,6.77,6.76,6.77
31.93,2.86,-3.89,2.86,-3.89,3.89,4.13,5.39,6.74,6.75,6.75
32.24,2.89,-3.83,2.90,-3.83,3.83,4.08,5.37,6.72,6.73,6.72
32.57,2.93,-3.78,2.93,-3.78,3.78,4.03,5.34,6.70,6.71,6.70
32.89,2.96,-3.73,2.96,-3.72,3.72,3.98,5.30,6.68,6.68,6.69
33.22,3.00,-3.66,3.00,-3.67,3.67,3.93,5.26,6.67,6.66,6.66
33.55,3.03,-3.62,3.03,-3.61,3.61,3.88,5.21,6.64,6.64,6.64
33.89,3.06,-3.56,3.06,-3.56,3.56,3.83,5.15,6.62,6.62,6.62
34.23,3.09,-3.51,3.09,-3.51,3.51,3.78,5.09,6.60,6.60,6.60
34.57,3.12,-3.46,3.12,-3.46,3.46,3.72,5.02,6.58,6.58,6.57
34.92,3.15,-3.40,3.14,-3.41,3.41,3.67,4.95,6.56,6.56,6.55
35.27,3.17,-3.37,3.17,-3.36,3.36,3.62,4.87,6.53,6.54,6.54
35.62,3.20,-3.32,3.20,-3.32,3.32,3.57,4.79,6.51,6.51,6.51
35.97,3.22,-3.27,3.22,-3.27,3.27,3.52,4.70,6.49,6.49,6.49
36.33,3.25,-3.23,3.25,-3.22,3.22,3.47,4.61,6.47,6.47,6.48
36.70,3.27,-3.18,3.27,-3.18,3.18,3.43,4.53,6.45,6.45,6.45
37.06,3.30,-3.13,3.29,-3.14,3.14,3.38,4.43,6.43,6.43,6.43
37.43,3.32,-3.09,3.31,-3.09,3.09,3.33,4.34,6.41,6.41,6.41
37.81,3.34,-3.05,3.33,-3.05,3.05,3.28,4.25,6.39,6.38,6.39
38.19,3.36,-3.00,3.35,-3.01,3.01,3.23,4.16,6.37,6.36,6.36
38.57,3.37,-2.98,3.37,-2.97,2.97,3.18,4.07,6.34,6.34,6.35
38.95,3.39,-2.93,3.39,-2.93,2.93,3.13,3.97,6.32,6.32,6.32
39.34,3.41,-2.89,3.41,-2.89,2.89,3.08,3.88,6.30,6.30,6.29
39.74,3.42,-2.85,3.42,-2.86,2.86,3.03,3.79,6.28,6.28,6.27
40.14,3.44,-2.83,3.44,-2.82,2.82,2.99,3.71,6.26,6.26,6.26
40.54,3.45,-2.79,3.45,-2.79,2.79,2.94,3.62,6.24,6.24,6.24
40.94,3.47,-2.75,3.46,-2.76,2.76,2.89,3.53,6.23,6.22,6.22
41.35,3.47,-2.72,3.47,-2.73,2.73,2.84,3.45,6.20,6.20,6.19
41.76,3.49,-2.70,3.48,-2.70,2.70,2.79,3.37,6.19,6.18,6.18
42.18,3.50,-2.67,3.49,-2.67,2.67,2.75,3.29,6.17,6.16,6.17
42.60,3.50,-2.64,3.50,-2.64,2.64,2.70,3.21,6.14,6.14,6.14
43.03,3.51,-2.62,3.51,-2.61,2.61,2.65,3.13,6.12,6.12,6.13
43.46,3.51,-2.60,3.51,-2.59,2.59,2.61,3.06,6.09,6.10,6.10
43.90,3.52,-2.56,3.52,-2.56,2.56,2.56,2.99,6.08,6.08,6.07
44.33,3.53,-2.53,3.52,-2.54,2.54,2.51,2.92,6.06,6.06,6.06
44.78,3.52,-2.52,3.53,-2.51,2.51,2.47,2.85,6.03,6.04,6.04
45.23,3.53,-2.48,3.53,-2.49,2.49,2.42,2.79,6.02,6.02,6.01
45.68,3.53,-2.46,3.53,-2.46,2.46,2.37,2.73,5.99,6.00,5.99
46.13,3.54,-2.43,3.53,-2.44,2.44,2.33,2.67,5.98,5.97,5.97
46.60,3.54,-2.42,3.53,-2.42,2.42,2.28,2.61,5.96,5.95,5.96
47.06,3.54,-2.40,3.53,-2.39,2.39,2.24,2.55,5.93,5.93,5.93
47.53,3.54,-2.37,3.53,-2.37,2.37,2.19,2.50,5.91,5.90,5.91
48.01,3.54,-2.36,3.53,-2.35,2.35,2.15,2.45,5.89,5.88,5.90
48.49,3.53,-2.34,3.53,-2.33,2.33,2.10,2.40,5.85,5.86,5.87
48.97,3.53,-2.31,3.53,-2.30,2.30,2.06,2.35,5.83,5.83,5.83
49.46,3.53,-2.27,3.53,-2.28,2.28,2.01,2.30,5.81,5.81,5.80
49.96,3.53,-2.24,3.53,-2.26,2.26,1.97,2.26,5.78,5.79,5.77
50.46,3.53,-2.24,3.53,-2.23,2.23,1.92,2.21,5.76,5.76,5.76
50.96,3.53,-2.21,3.53,-2.20,2.20,1.88,2.17,5.73,5.73,5.74
51.47,3.53,-2.17,3.53,-2.18,2.18,1.83,2.13,5.70,5.71,5.70
51.99,3.53,-2.15,3.53,-2.15,2.15,1.79,2.09,5.68,5.68,5.68
52.51,3.54,-2.12,3.54,-2.12,2.12,1.75,2.05,5.66,5.65,5.66
53.03,3.54,-2.10,3.54,-2.09,2.09,1.70,2.01,5.63,5.63,5.63
53.56,3.55,-2.06,3.54,-2.06,2.06,1.66,1.98,5.61,5.60,5.61
54.10,3.56,-2.02,3.55,-2.03,2.03,1.61,1.94,5.58,5.57,5.58
54.64,3.55,-2.00,3.55,-1.99,1.99,1.57,1.90,5.54,5.55,5.55
55.18,3.56,-1.96,3.56,-1.96,1.96,1.53,1.87,5.52,5.52,5.52
55.74,3.57,-1.92,3.57,-1.93,1.93,1.48,1.83,5.50,5.49,5.49
56.29,3.57,-1.90,3.57,-1.89,1.89,1.44,1.80,5.46,5.47,5.47
56.86,3.58,-1.86,3.58,-1.86,1.86,1.40,1.76,5.44,5.44,5.44
57.42,3.59,-1.82,3.59,-1.82,1.82,1.36,1.73,5.41,5.41,5.40
58.00,3.60,-1.78,3.59,-1.79,1.79,1.31,1.69,5.38,5.38,5.38
58.58,3.60,-1.75,3.60,-1.75,1.75,1.27,1.65,5.35,5.35,5.35
59.16,3.62,-1.71,3.61,-1.71,1.71,1.23,1.62,5.33,5.32,5.32
59.76,3.62,-1.68,3.62,-1.67,1.67,1.19,1.58,5.29,5.29,5.30
60.35,3.63,-1.63,3.63,-1.63,1.63,1.14,1.54,5.26,5.26,5.26
60.96,3.64,-1.61,3.64,-1.59,1.59,1.10,1.50,5.23,5.23,5.25
61.57,3.65,-1.55,3.65,-1.55,1.55,1.06,1.46,5.20,5.20,5.20
62.18,3.66,-1.50,3.66,-1.51,1.51,1.02,1.42,5.17,5.17,5.16
62.80,3.67,-1.46,3.67,-1.47,1.47,0.97,1.38,5.14,5.13,5.13
63.43,3.68,-1.41,3.67,-1.43,1.43,0.93,1.33,5.10,5.10,5.09
64.07,3.68,-1.38,3.68,-1.39,1.39,0.89,1.29,5.07,5.07,5.06
64.71,3.70,-1.34,3.69,-1.35,1.35,0.85,1.24,5.04,5.04,5.04
65.35,3.70,-1.31,3.70,-1.31,1.31,0.81,1.19,5.00,5.01,5.00
66.01,3.71,-1.27,3.71,-1.27,1.27,0.76,1.14,4.97,4.98,4.98
66.67,3.73,-1.22,3.72,-1.22,1.22,0.72,1.09,4.95,4.95,4.95
67.33,3.74,-1.18,3.73,-1.18,1.18,0.68,1.04,4.92,4.92,4.92
68.01,3.74,-1.15,3.74,-1.14,1.14,0.64,0.99,4.88,4.89,4.88
68.69,3.76,-1.10,3.75,-1.10,1.10,0.59,0.94,4.86,4.85,4.86
69.37,3.76,-1.06,3.76,-1.06,1.06,0.55,0.88,4.82,4.82,4.82
70.07,3.77,-1.02,3.77,-1.02,1.02,0.51,0.83,4.79,4.79,4.79
70.77,3.78,-0.98,3.78,-0.97,0.97,0.47,0.77,4.75,4.75,4.76
71.48,3.80,-0.92,3.79,-0.93,0.93,0.43,0.71,4.72,4.72,4.72
72.19,3.80,-0.89,3.80,-0.88,0.88,0.38,0.66,4.68,4.68,4.69
72.91,3.81,-0.84,3.81,-0.83,0.83,0.34,0.60,4.64,4.64,4.64
73.64,3.82,-0.78,3.82,-0.79,0.79,0.30,0.54,4.60,4.60,4.60
74.38,3.82,-0.75,3.82,-0.74,0.74,0.26,0.48,4.55,4.56,4.56
75.12,3.84,-0.67,3.83,-0.69,0.69,0.21,0.42,4.52,4.52,4.51
75.87,3.84,-0.63,3.84,-0.63,0.63,0.17,0.36,4.47,4.47,4.47
76.63,3.85,-0.58,3.85,-0.58,0.58,0.13,0.29,4.43,4.43,4.43
77.40,3.85,-0.54,3.85,-0.53,0.53,0.09,0.23,4.38,4.38,4.38
78.17,3.86,-0.47,3.86,-0.47,0.47,0.04,0.17,4.33,4.33,4.32
78.95,3.87,-0.42,3.86,-0.42,0.42,-0.00,0.11,4.29,4.29,4.29
79.74,3.87,-0.37,3.87,-0.37,0.37,-0.04,0.04,4.23,4.24,4.24
80.54,3.87,-0.32,3.88,-0.31,0.31,-0.09,-0.02,4.18,4.18,4.19
81.35,3.89,-0.25,3.88,-0.25,0.25,-0.13,-0.09,4.14,4.13,4.13
82.16,3.89,-0.19,3.88,-0.20,0.20,-0.18,-0.15,4.08,4.08,4.08
82.98,3.89,-0.15,3.89,-0.14,0.14,-0.22,-0.22,4.03,4.03,4.03
83.81,3.90,-0.07,3.89,-0.08,0.08,-0.26,-0.28,3.98,3.97,3.97
84.65,3.89,-0.02,3.89,-0.02,0.02,-0.31,-0.35,3.91,3.92,3.91
85.50,3.90,0.04,3.89,0.04,-0.04,-0.35,-0.42,3.86,3.86,3.86
86.35,3.90,0.10,3.90,0.09,-0.09,-0.40,-0.48,3.80,3.80,3.80
87.22,3.90,0.15,3.90,0.15,-0.15,-0.44,-0.55,3.74,3.74,3.74
88.09,3.90,0.22,3.90,0.21,-0.21,-0.49,-0.62,3.68,3.68,3.68
88.97,3.90,0.27,3.90,0.27,-0.27,-0.53,-0.69,3.62,3.63,3.63
89.86,3.90,0.33,3.90,0.33,-0.33,-0.58,-0.76,3.56,3.57,3.57
90.76,3.90,0.40,3.90,0.39,-0.39,-0.63,-0.83,3.50,3.51,3.50
91.66,3.90,0.45,3.90,0.46,-0.46,-0.67,-0.90,3.44,3.44,3.44
92.58,3.90,0.53,3.90,0.52,-0.52,-0.72,-0.97,3.38,3.38,3.37
93.51,3.90,0.57,3.90,0.58,-0.58,-0.77,-1.04,3.32,3.32,3.33
94.44,3.91,0.65,3.90,0.65,-0.65,-0.81,-1.11,3.26,3.25,3.26
95.39,3.91,0.71,3.90,0.71,-0.71,-0.86,-1.18,3.19,3.19,3.20
96.34,3.90,0.78,3.90,0.78,-0.78,-0.91,-1.26,3.12,3.12,3.12
97.30,3.90,0.84,3.90,0.85,-0.85,-0.96,-1.33,3.05,3.05,3.05
98.28,3.91,0.92,3.90,0.92,-0.92,-1.01,-1.40,2.99,2.98,2.99
99.26,3.90,0.99,3.90,0.99,-0.99,-1.05,-1.48,2.91,2.91,2.91
100.25,3.91,1.06,3.90,1.06,-1.06,-1.10,-1.55,2.85,2.84,2.84
101.25,3.90,1.12,3.90,1.13,-1.13,-1.15,-1.62,2.77,2.77,2.78
102.27,3.90,1.20,3.90,1.20,-1.20,-1.20,-1.70,2.70,2.70,2.70
103.29,3.90,1.28,3.90,1.27,-1.27,-1.25,-1.77,2.63,2.63,2.62
104.32,3.90,1.34,3.90,1.34,-1.34,-1.30,-1.84,2.56,2.55,2.55
105.37,3.90,1.41,3.89,1.41,-1.41,-1.36,-1.92,2.48,2.48,2.49
106.42,3.89,1.48,3.89,1.49,-1.49,-1.41,-1.99,2.40,2.40,2.41
107.48,3.89,1.56,3.89,1.56,-1.56,-1.46,-2.06,2.33,2.33,2.33
108.56,3.89,1.64,3.89,1.64,-1.64,-1.51,-2.13,2.25,2.25,2.25
109.64,3.89,1.71,3.89,1.71,-1.71,-1.56,-2.20,2.18,2.17,2.17
110.74,3.89,1.78,3.88,1.79,-1.79,-1.62,-2.26,2.10,2.10,2.11
111.85,3.88,1.85,3.88,1.86,-1.86,-1.67,-2.33,2.02,2.02,2.03
112.97,3.88,1.94,3.88,1.94,-1.94,-1.72,-2.39,1.94,1.94,1.93
114.10,3.87,2.00,3.88,2.01,-2.01,-1.78,-2.45,1.86,1.86,1.87
115.24,3.88,2.09,3.87,2.08,-2.08,-1.83,-2.51,1.79,1.79,1.79
116.39,3.88,2.17,3.87,2.16,-2.16,-1.89,-2.56,1.72,1.71,1.70
117.55,3.87,2.24,3.87,2.23,-2.23,-1.94,-2.62,1.64,1.64,1.63
118.73,3.86,2.30,3.86,2.30,-2.30,-2.00,-2.67,1.56,1.56,1.55
119.92,3.86,2.37,3.86,2.37,-2.37,-2.05,-2.71,1.49,1.49,1.49
121.12,3.86,2.44,3.86,2.44,-2.44,-2.11,-2.75,1.42,1.42,1.42
122.33,3.85,2.51,3.85,2.51,-2.51,-2.16,-2.79,1.34,1.34,1.34
123.55,3.85,2.57,3.85,2.58,-2.58,-2.22,-2.83,1.27,1.27,1.28
124.79,3.85,2.64,3.85,2.64,-2.64,-2.28,-2.86,1.21,1.20,1.21
126.03,3.84,2.69,3.84,2.71,-2.71,-2.33,-2.89,1.13,1.14,1.15
127.29,3.84,2.76,3.84,2.77,-2.77,-2.39,-2.91,1.07,1.07,1.08
128.57,3.84,2.84,3.84,2.83,-2.83,-2.45,-2.93,1.01,1.00,1.00
129.85,3.84,2.90,3.83,2.89,-2.89,-2.50,-2.95,0.95,0.94,0.94
131.15,3.83,2.95,3.83,2.95,-2.95,-2.56,-2.97,0.88,0.88,0.88
132.46,3.83,3.02,3.83,3.01,-3.01,-2.62,-2.98,0.82,0.82,0.81
133.79,3.83,3.06,3.82,3.06,-3.06,-2.68,-2.99,0.76,0.76,0.76
135.12,3.82,3.12,3.82,3.11,-3.11,-2.73,-2.99,0.70,0.71,0.70
136.48,3.82,3.16,3.82,3.16,-3.16,-2.79,-3.00,0.65,0.65,0.65
137.84,3.81,3.20,3.82,3.21,-3.21,-2.85,-3.00,0.60,0.60,0.61
139.22,3.82,3.27,3.81,3.26,-3.26,-2.91,-3.00,0.56,0.56,0.55
140.61,3.81,3.31,3.81,3.30,-3.30,-2.96,-3.00,0.51,0.51,0.49
142.02,3.81,3.33,3.81,3.34,-3.34,-3.02,-3.00,0.47,0.47,0.47
143.44,3.80,3.37,3.80,3.38,-3.38,-3.08,-2.99,0.42,0.43,0.43
144.87,3.80,3.41,3.80,3.41,-3.41,-3.14,-2.99,0.39,0.39,0.38
146.32,3.80,3.45,3.79,3.45,-3.45,-3.19,-2.98,0.35,0.35,0.34
147.78,3.79,3.47,3.79,3.48,-3.48,-3.25,-2.98,0.31,0.31,0.32
149.26,3.79,3.51,3.79,3.51,-3.51,-3.30,-2.98,0.28,0.27,0.28
150.75,3.78,3.54,3.78,3.54,-3.54,-3.36,-2.97,0.24,0.24,0.24
152.26,3.78,3.58,3.77,3.57,-3.57,-3.41,-2.97,0.20,0.20,0.20
153.78,3.77,3.60,3.77,3.60,-3.60,-3.46,-2.97,0.17,0.17,0.17
155.32,3.77,3.63,3.76,3.63,-3.63,-3.52,-2.97,0.14,0.13,0.14
156.88,3.76,3.65,3.75,3.66,-3.66,-3.57,-2.97,0.10,0.10,0.10
158.44,3.74,3.67,3.75,3.68,-3.68,-3.62,-2.97,0.06,0.06,0.06
160.03,3.74,3.71,3.74,3.71,-3.71,-3.67,-2.97,0.03,0.03,0.02
161.63,3.72,3.73,3.73,3.73,-3.73,-3.72,-2.98,-0.01,-0.00,-0.01
163.24,3.72,3.76,3.71,3.75,-3.75,-3.76,-2.99,-0.04,-0.04,-0.04
164.88,3.71,3.78,3.70,3.78,-3.78,-3.81,-3.00,-0.07,-0.08,-0.07
166.53,3.70,3.80,3.69,3.80,-3.80,-3.85,-3.01,-0.10,-0.11,-0.10
168.19,3.68,3.83,3.68,3.82,-3.82,-3.90,-3.02,-0.15,-0.15,-0.15
169.87,3.66,3.84,3.66,3.85,-3.85,-3.94,-3.04,-0.19,-0.18,-0.18
171.57,3.65,3.86,3.65,3.87,-3.87,-3.98,-3.06,-0.22,-0.22,-0.22
173.29,3.63,3.88,3.63,3.89,-3.89,-4.02,-3.08,-0.27,-0.26,-0.25
175.02,3.62,3.91,3.62,3.92,-3.92,-4.05,-3.10,-0.30,-0.30,-0.29
176.77,3.60,3.94,3.60,3.94,-3.94,-4.09,-3.13,-0.34,-0.34,-0.34
178.54,3.59,3.97,3.58,3.96,-3.96,-4.12,-3.16,-0.37,-0.38,-0.38
180.32,3.57,3.99,3.56,3.98,-3.98,-4.15,-3.19,-0.41,-0.42,-0.42
182.13,3.55,4.00,3.54,4.00,-4.00,-4.18,-3.22,-0.46,-0.46,-0.46
183.95,3.52,4.02,3.53,4.02,-4.02,-4.20,-3.26,-0.51,-0.50,-0.50
185.79,3.51,4.05,3.50,4.04,-4.04,-4.23,-3.30,-0.53,-0.54,-0.54
187.65,3.49,4.07,3.48,4.06,-4.06,-4.25,-3.34,-0.57,-0.57,-0.58
189.52,3.46,4.08,3.46,4.07,-4.07,-4.27,-3.38,-0.62,-0.61,-0.62
191.42,3.45,4.10,3.44,4.09,-4.09,-4.28,-3.43,-0.64,-0.65,-0.65
193.33,3.42,4.09,3.41,4.10,-4.10,-4.30,-3.47,-0.68,-0.68,-0.68
195.27,3.39,4.10,3.39,4.11,-4.11,-4.31,-3.52,-0.72,-0.72,-0.71
197.22,3.36,4.10,3.36,4.11,-4.11,-4.32,-3.57,-0.75,-0.75,-0.74
199.19,3.34,4.13,3.34,4.11,-4.11,-4.32,-3.62,-0.78,-0.78,-0.79
201.18,3.32,4.13,3.31,4.12,-4.12,-4.32,-3.68,-0.80,-0.81,-0.81
203.19,3.29,4.12,3.28,4.12,-4.12,-4.32,-3.73,-0.83,-0.83,-0.83
205.23,3.26,4.12,3.26,4.12,-4.12,-4.32,-3.79,-0.86,-0.86,-0.86
207.28,3.24,4.11,3.23,4.12,-4.12,-4.32,-3.85,-0.88,-0.88,-0.87
209.35,3.21,4.11,3.21,4.11,-4.11,-4.31,-3.90,-0.91,-0.91,-0.91
211.44,3.19,4.12,3.18,4.11,-4.11,-4.30,-3.96,-0.92,-0.93,-0.93
213.56,3.16,4.11,3.16,4.11,-4.11,-4.29,-4.01,-0.95,-0.95,-0.95
215.69,3.13,4.08,3.14,4.10,-4.10,-4.27,-4.07,-0.98,-0.96,-0.96
217.85,3.11,4.08,3.12,4.10,-4.10,-4.26,-4.12,-0.99,-0.98,-0.97
220.03,3.10,4.09,3.11,4.10,-4.10,-4.24,-4.17,-1.00,-0.99,-1.00
222.23,3.09,4.10,3.09,4.09,-4.09,-4.21,-4.22,-1.00,-1.00,-1.01
224.45,3.07,4.07,3.07,4.08,-4.08,-4.19,-4.27,-1.01,-1.01,-1.00
226.70,3.06,4.08,3.06,4.07,-4.07,-4.16,-4.31,-1.02,-1.01,-1.02
228.96,3.05,4.07,3.05,4.06,-4.06,-4.13,-4.35,-1.02,-1.02,-1.02
231.25,3.04,4.05,3.04,4.05,-4.05,-4.10,-4.39,-1.02,-1.02,-1.01
233.57,3.03,4.03,3.02,4.04,-4.04,-4.07,-4.42,-1.01,-1.01,-1.01
235.90,3.02,4.03,3.01,4.02,-4.02,-4.03,-4.44,-1.00,-1.01,-1.01
238.26,3.01,4.02,3.00,4.00,-4.00,-3.99,-4.46,-0.99,-1.00,-1.01
240.64,2.99,3.98,2.98,3.97,-3.97,-3.96,-4.48,-0.98,-0.99,-0.99
243.05,2.98,3.96,2.96,3.94,-3.94,-3.91,-4.49,-0.97,-0.98,-0.98
245.48,2.95,3.91,2.95,3.91,-3.91,-3.87,-4.49,-0.96,-0.96,-0.96
247.93,2.93,3.88,2.93,3.88,-3.88,-3.83,-4.48,-0.95,-0.95,-0.95
250.41,2.91,3.85,2.91,3.84,-3.84,-3.78,-4.47,-0.93,-0.93,-0.94
252.92,2.89,3.80,2.88,3.80,-3.80,-3.74,-4.45,-0.91,-0.91,-0.91
255.45,2.86,3.75,2.86,3.76,-3.76,-3.69,-4.43,-0.90,-0.89,-0.89
258.00,2.83,3.69,2.84,3.71,-3.71,-3.64,-4.40,-0.88,-0.87,-0.87
260.58,2.82,3.67,2.81,3.67,-3.67,-3.59,-4.36,-0.85,-0.85,-0.85
263.19,2.79,3.62,2.79,3.62,-3.62,-3.53,-4.32,-0.83,-0.83,-0.83
265.82,2.77,3.58,2.77,3.58,-3.58,-3.48,-4.27,-0.81,-0.81,-0.81
268.48,2.75,3.54,2.75,3.53,-3.53,-3.43,-4.21,-0.79,-0.79,-0.79
271.16,2.73,3.48,2.73,3.49,-3.49,-3.37,-4.15,-0.76,-0.76,-0.75
273.87,2.70,3.44,2.71,3.45,-3.45,-3.32,-4.09,-0.75,-0.74,-0.74
276.61,2.69,3.40,2.69,3.40,-3.40,-3.26,-4.02,-0.72,-0.72,-0.71
279.38,2.67,3.36,2.67,3.36,-3.36,-3.21,-3.94,-0.69,-0.69,-0.69
282.17,2.65,3.32,2.65,3.32,-3.32,-3.15,-3.87,-0.67,-0.67,-0.67
284.99,2.63,3.27,2.64,3.28,-3.28,-3.09,-3.79,-0.65,-0.64,-0.65
287.84,2.62,3.24,2.62,3.24,-3.24,-3.03,-3.71,-0.62,-0.62,-0.62
290.72,2.61,3.19,2.60,3.19,-3.19,-2.98,-3.62,-0.59,-0.59,-0.59
293.63,2.59,3.16,2.59,3.15,-3.15,-2.92,-3.54,-0.56,-0.56,-0.57
296.57,2.58,3.12,2.57,3.11,-3.11,-2.86,-3.45,-0.53,-0.53,-0.54
299.53,2.56,3.07,2.56,3.06,-3.06,-2.80,-3.36,-0.51,-0.51,-0.51
302.53,2.55,3.03,2.54,3.02,-3.02,-2.74,-3.27,-0.47,-0.48,-0.49
305.55,2.53,2.97,2.53,2.97,-2.97,-2.68,-3.18,-0.45,-0.44,-0.44
308.61,2.52,2.93,2.51,2.93,-2.93,-2.62,-3.09,-0.41,-0.41,-0.42
311.69,2.50,2.88,2.50,2.88,-2.88,-2.56,-3.01,-0.38,-0.38,-0.38
314.81,2.49,2.83,2.48,2.83,-2.83,-2.50,-2.92,-0.35,-0.35,-0.34
317.96,2.46,2.78,2.46,2.79,-2.79,-2.45,-2.83,-0.33,-0.32,-0.32
321.14,2.45,2.74,2.45,2.74,-2.74,-2.39,-2.74,-0.29,-0.29,-0.29
324.35,2.43,2.69,2.43,2.69,-2.69,-2.33,-2.66,-0.26,-0.26,-0.26
327.59,2.41,2.64,2.41,2.64,-2.64,-2.27,-2.57,-0.24,-0.23,-0.23
330.87,2.39,2.59,2.39,2.60,-2.60,-2.21,-2.49,-0.21,-0.21,-0.20
334.18,2.37,2.55,2.37,2.55,-2.55,-2.15,-2.41,-0.18,-0.18,-0.18
337.52,2.36,2.52,2.35,2.51,-2.51,-2.10,-2.33,-0.15,-0.16,-0.16
340.90,2.33,2.46,2.33,2.46,-2.46,-2.04,-2.25,-0.14,-0.13,-0.13
344.30,2.31,2.42,2.31,2.42,-2.42,-1.98,-2.17,-0.11,-0.11,-0.11
347.75,2.29,2.37,2.28,2.37,-2.37,-1.92,-2.09,-0.09,-0.09,-0.09
351.23,2.27,2.34,2.26,2.33,-2.33,-1.87,-2.02,-0.06,-0.07,-0.07
354.74,2.25,2.30,2.24,2.29,-2.29,-1.81,-1.95,-0.04,-0.05,-0.05
358.28,2.21,2.24,2.21,2.24,-2.24,-1.75,-1.87,-0.04,-0.03,-0.03
361.87,2.19,2.20,2.19,2.20,-2.20,-1.70,-1.80,-0.01,-0.01,-0.02
365.49,2.16,2.15,2.16,2.16,-2.16,-1.64,-1.74,-0.00,0.01,0.01
369.14,2.14,2.12,2.14,2.12,-2.12,-1.59,-1.67,0.02,0.02,0.02
372.83,2.11,2.07,2.12,2.07,-2.07,-1.53,-1.60,0.03,0.04,0.04
376.56,2.10,2.04,2.10,2.03,-2.03,-1.48,-1.54,0.06,0.06,0.06
380.33,2.07,1.98,2.08,1.99,-1.99,-1.42,-1.48,0.07,0.08,0.08
384.13,2.06,1.96,2.06,1.96,-1.96,-1.37,-1.41,0.10,0.10,0.10
387.97,2.04,1.92,2.04,1.92,-1.92,-1.31,-1.35,0.12,0.12,0.12
391.85,2.02,1.88,2.02,1.88,-1.88,-1.26,-1.30,0.14,0.14,0.14
395.77,2.01,1.84,2.01,1.84,-1.84,-1.21,-1.24,0.16,0.16,0.17
399.73,2.00,1.81,1.99,1.81,-1.81,-1.16,-1.18,0.19,0.18,0.19
403.72,1.98,1.77,1.98,1.78,-1.78,-1.10,-1.13,0.20,0.20,0.20
407.76,1.97,1.75,1.97,1.74,-1.74,-1.05,-1.07,0.22,0.22,0.22
411.84,1.95,1.70,1.96,1.71,-1.71,-1.00,-1.02,0.24,0.25,0.25
415.96,1.95,1.68,1.95,1.68,-1.68,-0.95,-0.97,0.27,0.27,0.27
420.12,1.94,1.65,1.94,1.65,-1.65,-0.90,-0.92,0.29,0.29,0.29
424.32,1.93,1.61,1.93,1.62,-1.62,-0.85,-0.87,0.31,0.31,0.32
428.56,1.92,1.58,1.92,1.58,-1.58,-0.80,-0.82,0.34,0.34,0.34
432.85,1.91,1.55,1.91,1.55,-1.55,-0.75,-0.78,0.36,0.36,0.35
437.18,1.90,1.51,1.90,1.52,-1.52,-0.70,-0.73,0.38,0.38,0.38
441.55,1.90,1.49,1.89,1.48,-1.48,-0.65,-0.68,0.42,0.41,0.41
445.96,1.88,1.45,1.88,1.45,-1.45,-0.60,-0.64,0.43,0.43,0.43
450.42,1.87,1.42,1.87,1.41,-1.41,-0.55,-0.60,0.46,0.46,0.45
454.93,1.85,1.36,1.86,1.37,-1.37,-0.50,-0.55,0.47,0.49,0.49
459.48,1.84,1.33,1.85,1.34,-1.34,-0.45,-0.51,0.50,0.51,0.51
464.07,1.82,1.28,1.84,1.29,-1.29,-0.40,-0.47,0.52,0.54,0.54
468.71,1.80,1.22,1.82,1.25,-1.25,-0.35,-0.43,0.55,0.57,0.58
473.40,1.78,1.18,1.80,1.20,-1.20,-0.31,-0.39,0.58,0.60,0.60
478.13,1.76,1.13,1.77,1.14,-1.14,-0.26,-0.35,0.62,0.63,0.63
482.91,1.72,1.06,1.73,1.07,-1.07,-0.21,-0.31,0.64,0.65,0.65
487.74,1.69,1.00,1.68,0.99,-0.99,-0.17,-0.28,0.69,0.68,0.68
492.62,1.65,0.93,1.61,0.90,-0.90,-0.12,-0.24,0.75,0.71,0.71
497.55,1.59,0.86,1.53,0.79,-0.79,-0.07,-0.20,0.79,0.74,0.73
502.52,1.50,0.73,1.44,0.67,-0.67,-0.02,-0.17,0.82,0.77,0.77
507.55,1.41,0.62,1.33,0.54,-0.54,0.02,-0.13,0.87,0.79,0.79
512.62,1.28,0.46,1.21,0.39,-0.39,0.07,-0.10,0.89,0.82,0.82
517.75,1.14,0.29,1.09,0.24,-0.24,0.11,-0.06,0.90,0.85,0.85
522.93,0.98,0.10,0.95,0.08,-0.08,0.16,-0.03,0.90,0.88,0.88
528.16,0.82,-0.08,0.81,-0.09,0.09,0.21,0.00,0.91,0.90,0.90
533.44,0.65,-0.28,0.68,-0.25,0.25,0.25,0.04,0.90,0.93,0.93
538.77,0.49,-0.47,0.54,-0.42,0.42,0.30,0.07,0.90,0.96,0.96
