frequency,raw,error,smoothed,error_smoothed,equalization,parametric_eq,fixed_band_eq,equalized_raw,equalized_smoothed,target
20.00,5.50,0.90,5.51,0.88,-0.88,-1.16,-1.11,4.62,4.63,4.60
20.20,5.56,0.96,5.56,0.94,-0.94,-1.19,-1.14,4.62,4.62,4.60
20.40,5.60,1.00,5.61,1.00,-1.00,-1.22,-1.17,4.60,4.61,4.60
20.61,5.66,1.06,5.66,1.06,-1.06,-1.25,-1.21,4.60,4.60,4.60
20.81,5.71,1.11,5.71,1.12,-1.12,-1.29,-1.24,4.60,4.59,4.60
21.02,5.75,1.15,5.75,1.18,-1.18,-1.32,-1.27,4.58,4.58,4.60
21.23,5.80,1.22,5.80,1.23,-1.23,-1.36,-1.31,4.57,4.56,4.58
21.44,5.84,1.27,5.84,1.29,-1.29,-1.40,-1.35,4.55,4.55,4.57
21.66,5.88,1.33,5.89,1.35,-1.35,-1.44,-1.39,4.53,4.54,4.55
21.87,5.92,1.40,5.93,1.41,-1.41,-1.48,-1.43,4.51,4.52,4.53
22.09,5.97,1.46,5.97,1.47,-1.47,-1.52,-1.47,4.51,4.51,4.52
22.31,6.01,1.53,6.01,1.53,-1.53,-1.56,-1.51,4.49,4.49,4.49
22.54,6.04,1.58,6.05,1.59,-1.59,-1.61,-1.55,4.45,4.47,4.47
22.76,6.09,1.65,6.09,1.65,-1.65,-1.66,-1.59,4.44,4.44,4.45
22.99,6.13,1.72,6.13,1.71,-1.71,-1.70,-1.64,4.42,4.42,4.41
23.22,6.16,1.78,6.17,1.77,-1.77,-1.75,-1.69,4.39,4.40,4.38
23.45,6.21,1.85,6.20,1.83,-1.83,-1.81,-1.73,4.39,4.38,4.36
23.69,6.24,1.89,6.24,1.88,-1.88,-1.86,-1.78,4.36,4.36,4.35
23.92,6.28,1.95,6.27,1.94,-1.94,-1.91,-1.83,4.35,4.34,4.33
24.16,6.31,1.99,6.30,1.99,-1.99,-1.97,-1.88,4.33,4.32,4.32
24.40,6.33,2.03,6.33,2.03,-2.03,-2.03,-1.93,4.30,4.30,4.30
24.65,6.36,2.08,6.36,2.08,-2.08,-2.09,-1.98,4.28,4.28,4.28
24.89,6.38,2.12,6.38,2.13,-2.13,-2.15,-2.03,4.26,4.26,4.26
25.14,6.40,2.16,6.41,2.17,-2.17,-2.21,-2.08,4.24,4.24,4.25
25.39,6.42,2.20,6.43,2.21,-2.21,-2.27,-2.13,4.22,4.23,4.23
25.65,6.45,2.24,6.45,2.24,-2.24,-2.33,-2.19,4.21,4.21,4.22
25.91,6.47,2.29,6.47,2.28,-2.28,-2.39,-2.24,4.19,4.19,4.18
26.16,6.49,2.32,6.49,2.32,-2.32,-2.46,-2.29,4.18,4.18,4.17
26.43,6.51,2.35,6.51,2.35,-2.35,-2.52,-2.34,4.16,4.16,4.16
26.69,6.53,2.39,6.53,2.39,-2.39,-2.58,-2.40,4.14,4.14,4.14
26.96,6.55,2.42,6.55,2.42,-2.42,-2.64,-2.45,4.13,4.13,4.13
27.23,6.57,2.45,6.57,2.46,-2.46,-2.70,-2.50,4.12,4.11,4.12
27.50,6.58,2.48,6.59,2.49,-2.49,-2.75,-2.55,4.10,4.10,4.11
27.77,6.60,2.52,6.60,2.52,-2.52,-2.80,-2.60,4.09,4.09,4.08
28.05,6.62,2.55,6.62,2.55,-2.55,-2.85,-2.64,4.08,4.07,4.07
28.33,6.63,2.58,6.63,2.57,-2.57,-2.90,-2.69,4.06,4.06,4.05
28.62,6.65,2.61,6.64,2.60,-2.60,-2.94,-2.73,4.05,4.04,4.04
28.90,6.65,2.62,6.66,2.62,-2.62,-2.98,-2.77,4.03,4.03,4.03
29.19,6.66,2.66,6.67,2.65,-2.65,-3.01,-2.81,4.01,4.02,4.01
29.48,6.68,2.68,6.68,2.67,-2.67,-3.04,-2.85,4.01,4.00,4.00
29.78,6.68,2.69,6.69,2.70,-2.70,-3.06,-2.88,3.98,3.99,3.99
30.08,6.69,2.71,6.69,2.72,-2.72,-3.07,-2.91,3.97,3.97,3.98
30.38,6.69,2.73,6.70,2.74,-2.74,-3.09,-2.94,3.95,3.96,3.96
30.68,6.71,2.77,6.71,2.77,-2.77,-3.09,-2.97,3.94,3.94,3.95
30.99,6.72,2.80,6.72,2.79,-2.79,-3.09,-2.99,3.93,3.93,3.92
31.30,6.72,2.81,6.72,2.81,-2.81,-3.09,-3.01,3.91,3.91,3.91
31.61,6.73,2.83,6.73,2.84,-2.84,-3.09,-3.02,3.90,3.89,3.90
31.93,6.73,2.86,6.73,2.86,-2.86,-3.08,-3.04,3.87,3.87,3.88
32.24,6.73,2.89,6.74,2.89,-2.89,-3.07,-3.05,3.85,3.85,3.84
32.57,6.74,2.91,6.74,2.91,-2.91,-3.06,-3.05,3.83,3.83,3.83
32.89,6.74,2.92,6.75,2.94,-2.94,-3.04,-3.06,3.81,3.81,3.82
33.22,6.75,2.97,6.75,2.96,-2.96,-3.02,-3.06,3.79,3.79,3.78
33.55,6.75,2.98,6.75,2.99,-2.99,-3.01,-3.06,3.77,3.77,3.77
33.89,6.75,3.00,6.76,3.01,-3.01,-2.99,-3.06,3.74,3.75,3.75
34.23,6.75,3.03,6.76,3.03,-3.03,-2.97,-3.05,3.72,3.73,3.73
34.57,6.76,3.06,6.76,3.06,-3.06,-2.96,-3.05,3.71,3.70,3.70
34.92,6.76,3.08,6.76,3.08,-3.08,-2.94,-3.04,3.68,3.68,3.68
35.27,6.76,3.10,6.76,3.10,-3.10,-2.93,-3.03,3.66,3.66,3.66
35.62,6.76,3.12,6.76,3.12,-3.12,-2.91,-3.02,3.65,3.64,3.64
35.97,6.75,3.14,6.76,3.14,-3.14,-2.90,-3.01,3.62,3.62,3.62
36.33,6.75,3.15,6.75,3.15,-3.15,-2.89,-3.00,3.60,3.60,3.60
36.70,6.74,3.16,6.74,3.17,-3.17,-2.88,-2.99,3.57,3.58,3.58
37.06,6.74,3.19,6.74,3.18,-3.18,-2.88,-2.98,3.56,3.55,3.55
37.43,6.73,3.19,6.73,3.19,-3.19,-2.87,-2.97,3.54,3.53,3.54
37.81,6.71,3.20,6.72,3.20,-3.20,-2.87,-2.96,3.51,3.51,3.51
38.19,6.70,3.21,6.70,3.21,-3.21,-2.87,-2.95,3.49,3.49,3.49
38.57,6.68,3.21,6.69,3.22,-3.22,-2.87,-2.94,3.46,3.47,3.47
38.95,6.67,3.23,6.67,3.22,-3.22,-2.87,-2.94,3.45,3.45,3.45
39.34,6.65,3.23,6.65,3.22,-3.22,-2.87,-2.93,3.43,3.43,3.42
39.74,6.63,3.24,6.63,3.22,-3.22,-2.88,-2.93,3.41,3.41,3.40
40.14,6.60,3.21,6.61,3.22,-3.22,-2.89,-2.92,3.38,3.39,3.39
40.54,6.58,3.22,6.58,3.22,-3.22,-2.90,-2.92,3.37,3.37,3.36
40.94,6.56,3.22,6.56,3.21,-3.21,-2.91,-2.92,3.35,3.35,3.35
41.35,6.53,3.21,6.53,3.20,-3.20,-2.92,-2.93,3.33,3.33,3.32
41.76,6.50,3.19,6.50,3.19,-3.19,-2.94,-2.93,3.31,3.31,3.31
42.18,6.47,3.18,6.47,3.19,-3.19,-2.95,-2.94,3.29,3.29,3.29
42.60,6.44,3.18,6.44,3.17,-3.17,-2.97,-2.95,3.27,3.27,3.27
43.03,6.40,3.14,6.41,3.16,-3.16,-2.99,-2.96,3.24,3.24,3.26
43.46,6.37,3.14,6.38,3.15,-3.15,-3.01,-2.97,3.22,3.22,3.23
43.90,6.35,3.15,6.34,3.14,-3.14,-3.03,-2.99,3.21,3.21,3.20
44.33,6.31,3.13,6.31,3.12,-3.12,-3.05,-3.00,3.19,3.19,3.18
44.78,6.27,3.11,6.28,3.11,-3.11,-3.08,-3.02,3.16,3.17,3.16
45.23,6.24,3.11,6.24,3.10,-3.10,-3.10,-3.04,3.14,3.14,3.13
45.68,6.20,3.09,6.21,3.09,-3.09,-3.13,-3.07,3.12,3.12,3.11
46.13,6.18,3.09,6.18,3.08,-3.08,-3.16,-3.09,3.11,3.10,3.09
46.60,6.15,3.07,6.14,3.07,-3.07,-3.19,-3.12,3.09,3.08,3.08
47.06,6.11,3.05,6.11,3.06,-3.06,-3.22,-3.15,3.05,3.05,3.06
47.53,6.08,3.04,6.08,3.05,-3.05,-3.25,-3.18,3.03,3.03,3.04
48.01,6.05,3.03,6.06,3.05,-3.05,-3.28,-3.22,3.00,3.01,3.03
48.49,6.03,3.04,6.03,3.04,-3.04,-3.32,-3.26,2.99,2.98,2.99
48.97,6.00,3.04,6.00,3.04,-3.04,-3.35,-3.29,2.96,2.96,2.96
49.46,5.98,3.05,5.98,3.05,-3.05,-3.39,-3.33,2.93,2.94,2.93
49.96,5.96,3.07,5.97,3.05,-3.05,-3.43,-3.38,2.91,2.91,2.89
50.46,5.95,3.06,5.95,3.06,-3.06,-3.46,-3.42,2.89,2.89,2.89
50.96,5.94,3.08,5.94,3.08,-3.08,-3.50,-3.46,2.86,2.86,2.86
51.47,5.93,3.10,5.93,3.10,-3.10,-3.54,-3.51,2.83,2.84,2.83
51.99,5.92,3.12,5.93,3.12,-3.12,-3.58,-3.56,2.80,2.81,2.80
52.51,5.92,3.14,5.93,3.15,-3.15,-3.62,-3.60,2.77,2.78,2.79
53.03,5.93,3.17,5.94,3.18,-3.18,-3.67,-3.65,2.75,2.75,2.76
53.56,5.94,3.21,5.95,3.22,-3.22,-3.71,-3.70,2.72,2.73,2.73
54.10,5.96,3.26,5.96,3.26,-3.26,-3.75,-3.75,2.71,2.70,2.70
54.64,5.97,3.30,5.97,3.30,-3.30,-3.80,-3.80,2.67,2.67,2.67
55.18,5.99,3.35,5.99,3.35,-3.35,-3.84,-3.85,2.65,2.65,2.65
55.74,6.02,3.41,6.02,3.40,-3.40,-3.89,-3.90,2.63,2.62,2.62
56.29,6.04,3.45,6.04,3.45,-3.45,-3.94,-3.95,2.59,2.59,2.59
56.86,6.07,3.51,6.07,3.51,-3.51,-3.98,-3.99,2.57,2.57,2.56
57.42,6.10,3.57,6.10,3.57,-3.57,-4.03,-4.04,2.54,2.54,2.53
58.00,6.13,3.62,6.14,3.63,-3.63,-4.08,-4.08,2.50,2.51,2.51
58.58,6.17,3.70,6.17,3.70,-3.70,-4.13,-4.13,2.48,2.48,2.47
59.16,6.21,3.76,6.21,3.76,-3.76,-4.18,-4.17,2.45,2.45,2.45
59.76,6.24,3.82,6.25,3.83,-3.83,-4.23,-4.21,2.41,2.42,2.42
60.35,6.29,3.90,6.29,3.90,-3.90,-4.28,-4.24,2.39,2.38,2.39
60.96,6.32,3.95,6.33,3.98,-3.98,-4.33,-4.28,2.34,2.35,2.37
61.57,6.37,4.05,6.37,4.05,-4.05,-4.39,-4.31,2.32,2.32,2.32
62.18,6.42,4.14,6.42,4.12,-4.12,-4.44,-4.34,2.30,2.29,2.29
62.80,6.46,4.21,6.46,4.20,-4.20,-4.49,-4.37,2.26,2.26,2.26
63.43,6.50,4.29,6.50,4.27,-4.27,-4.55,-4.39,2.23,2.23,2.22
64.07,6.54,4.36,6.54,4.34,-4.34,-4.60,-4.42,2.20,2.20,2.19
64.71,6.58,4.42,6.58,4.42,-4.42,-4.66,-4.44,2.17,2.17,2.16
65.35,6.62,4.49,6.62,4.48,-4.48,-4.71,-4.46,2.14,2.14,2.13
66.01,6.65,4.54,6.66,4.55,-4.55,-4.77,-4.47,2.10,2.10,2.11
66.67,6.69,4.62,6.69,4.62,-4.62,-4.82,-4.49,2.07,2.07,2.07
67.33,6.73,4.69,6.72,4.68,-4.68,-4.88,-4.50,2.05,2.04,2.05
68.01,6.75,4.74,6.75,4.74,-4.74,-4.94,-4.51,2.01,2.01,2.01
68.69,6.78,4.80,6.78,4.80,-4.80,-5.00,-4.52,1.98,1.98,1.98
69.37,6.80,4.86,6.80,4.85,-4.85,-5.05,-4.53,1.95,1.95,1.95
70.07,6.82,4.91,6.82,4.91,-4.91,-5.11,-4.54,1.91,1.92,1.92
70.77,6.84,4.96,6.84,4.96,-4.96,-5.17,-4.55,1.88,1.88,1.89
71.48,6.86,5.02,6.85,5.01,-5.01,-5.23,-4.56,1.85,1.84,1.84
72.19,6.86,5.05,6.87,5.06,-5.06,-5.29,-4.58,1.80,1.81,1.81
72.91,6.87,5.10,6.87,5.10,-5.10,-5.35,-4.59,1.77,1.77,1.77
73.64,6.87,5.15,6.88,5.15,-5.15,-5.41,-4.60,1.72,1.73,1.73
74.38,6.87,5.18,6.88,5.19,-5.19,-5.47,-4.61,1.68,1.69,1.69
75.12,6.88,5.25,6.87,5.23,-5.23,-5.53,-4.63,1.65,1.64,1.63
75.87,6.87,5.28,6.87,5.27,-5.27,-5.59,-4.65,1.60,1.60,1.60
76.63,6.86,5.30,6.86,5.30,-5.30,-5.65,-4.66,1.56,1.55,1.56
77.40,6.84,5.33,6.85,5.34,-5.34,-5.71,-4.69,1.50,1.51,1.51
78.17,6.83,5.38,6.83,5.37,-5.37,-5.77,-4.71,1.46,1.46,1.45
78.95,6.81,5.39,6.81,5.40,-5.40,-5.83,-4.74,1.41,1.41,1.42
79.74,6.79,5.43,6.79,5.43,-5.43,-5.89,-4.77,1.36,1.36,1.37
80.54,6.76,5.45,6.77,5.46,-5.46,-5.95,-4.80,1.30,1.31,1.31
81.35,6.75,5.49,6.75,5.49,-5.49,-6.01,-4.83,1.27,1.26,1.26
82.16,6.72,5.52,6.72,5.51,-5.51,-6.07,-4.87,1.21,1.21,1.21
82.98,6.69,5.53,6.69,5.53,-5.53,-6.13,-4.92,1.16,1.15,1.16
83.81,6.66,5.57,6.66,5.56,-5.56,-6.19,-4.96,1.11,1.10,1.09
84.65,6.61,5.58,6.62,5.58,-5.58,-6.24,-5.01,1.03,1.04,1.04
85.50,6.58,5.59,6.59,5.60,-5.60,-6.30,-5.06,0.98,0.99,0.99
86.35,6.55,5.62,6.55,5.62,-5.62,-6.36,-5.12,0.93,0.93,0.93
87.22,6.51,5.64,6.51,5.64,-5.64,-6.42,-5.18,0.87,0.87,0.87
88.09,6.48,5.67,6.47,5.66,-5.66,-6.48,-5.25,0.82,0.81,0.81
88.97,6.43,5.67,6.43,5.68,-5.68,-6.53,-5.32,0.75,0.75,0.76
89.86,6.39,5.70,6.39,5.70,-5.70,-6.59,-5.39,0.69,0.69,0.70
90.76,6.35,5.73,6.35,5.72,-5.72,-6.65,-5.47,0.63,0.63,0.62
91.66,6.31,5.74,6.31,5.74,-5.74,-6.70,-5.55,0.57,0.57,0.57
92.58,6.27,5.78,6.27,5.77,-5.77,-6.75,-5.63,0.51,0.51,0.50
93.51,6.23,5.78,6.24,5.79,-5.79,-6.81,-5.72,0.44,0.44,0.45
94.44,6.20,5.82,6.20,5.82,-5.82,-6.86,-5.81,0.38,0.38,0.39
95.39,6.16,5.84,6.16,5.85,-5.85,-6.91,-5.91,0.31,0.31,0.32
96.34,6.12,5.88,6.13,5.88,-5.88,-6.96,-6.01,0.24,0.25,0.25
97.30,6.09,5.91,6.09,5.91,-5.91,-7.01,-6.11,0.18,0.18,0.18
98.28,6.06,5.95,6.06,5.95,-5.95,-7.06,-6.22,0.12,0.11,0.11
99.26,6.02,5.99,6.03,5.99,-5.99,-7.11,-6.32,0.04,0.04,0.04
100.25,5.99,6.02,6.00,6.03,-6.03,-7.16,-6.44,-0.04,-0.03,-0.03
101.25,5.97,6.07,5.97,6.07,-6.07,-7.20,-6.55,-0.10,-0.10,-0.10
102.27,5.94,6.12,5.94,6.12,-6.12,-7.25,-6.66,-0.17,-0.17,-0.18
103.29,5.92,6.18,5.92,6.17,-6.17,-7.29,-6.78,-0.24,-0.25,-0.25
104.32,5.89,6.21,5.90,6.22,-6.22,-7.33,-6.90,-0.32,-0.32,-0.32
105.37,5.88,6.27,5.88,6.27,-6.27,-7.37,-7.02,-0.39,-0.39,-0.39
106.42,5.85,6.32,5.86,6.33,-6.33,-7.41,-7.14,-0.48,-0.47,-0.47
107.48,5.84,6.39,5.84,6.39,-6.39,-7.45,-7.26,-0.55,-0.54,-0.54
108.56,5.82,6.44,5.83,6.45,-6.45,-7.49,-7.38,-0.63,-0.62,-0.62
109.64,5.81,6.51,5.81,6.51,-6.51,-7.52,-7.49,-0.70,-0.70,-0.70
110.74,5.80,6.57,5.80,6.58,-6.58,-7.55,-7.60,-0.78,-0.78,-0.77
111.85,5.79,6.64,5.79,6.65,-6.65,-7.59,-7.71,-0.85,-0.85,-0.84
112.97,5.78,6.72,5.78,6.72,-6.72,-7.62,-7.82,-0.93,-0.93,-0.94
114.10,5.77,6.78,5.77,6.78,-6.78,-7.64,-7.92,-1.01,-1.01,-1.01
115.24,5.77,6.86,5.77,6.85,-6.85,-7.67,-8.01,-1.08,-1.08,-1.08
116.39,5.76,6.93,5.76,6.92,-6.92,-7.69,-8.10,-1.16,-1.16,-1.17
117.55,5.75,7.00,5.75,6.99,-6.99,-7.72,-8.17,-1.24,-1.24,-1.24
118.73,5.74,7.06,5.74,7.06,-7.06,-7.74,-8.24,-1.31,-1.31,-1.32
119.92,5.74,7.13,5.74,7.12,-7.12,-7.76,-8.30,-1.38,-1.39,-1.38
121.12,5.73,7.19,5.73,7.19,-7.19,-7.77,-8.35,-1.46,-1.46,-1.46
122.33,5.72,7.25,5.72,7.25,-7.25,-7.79,-8.39,-1.53,-1.53,-1.53
123.55,5.71,7.31,5.71,7.32,-7.32,-7.80,-8.42,-1.60,-1.60,-1.59
124.79,5.70,7.37,5.70,7.37,-7.37,-7.81,-8.44,-1.67,-1.67,-1.67
126.03,5.69,7.42,5.69,7.43,-7.43,-7.82,-8.45,-1.74,-1.74,-1.73
127.29,5.68,7.48,5.68,7.49,-7.49,-7.83,-8.44,-1.81,-1.80,-1.80
128.57,5.67,7.55,5.67,7.54,-7.54,-7.84,-8.43,-1.87,-1.87,-1.88
129.85,5.66,7.60,5.66,7.59,-7.59,-7.84,-8.40,-1.93,-1.93,-1.94
131.15,5.65,7.65,5.65,7.64,-7.64,-7.85,-8.36,-1.99,-1.99,-2.00
132.46,5.63,7.70,5.63,7.69,-7.69,-7.85,-8.32,-2.06,-2.05,-2.06
133.79,5.62,7.73,5.62,7.73,-7.73,-7.85,-8.26,-2.11,-2.11,-2.11
135.12,5.60,7.78,5.60,7.77,-7.77,-7.84,-8.20,-2.17,-2.17,-2.18
136.48,5.58,7.80,5.58,7.80,-7.80,-7.84,-8.13,-2.22,-2.22,-2.22
137.84,5.56,7.83,5.56,7.83,-7.83,-7.83,-8.05,-2.27,-2.27,-2.26
139.22,5.54,7.87,5.54,7.86,-7.86,-7.83,-7.97,-2.32,-2.32,-2.33
140.61,5.52,7.90,5.52,7.88,-7.88,-7.82,-7.88,-2.36,-2.36,-2.38
142.02,5.49,7.89,5.49,7.90,-7.90,-7.81,-7.79,-2.41,-2.41,-2.40
143.44,5.46,7.90,5.47,7.91,-7.91,-7.80,-7.70,-2.45,-2.45,-2.44
144.87,5.44,7.93,5.44,7.93,-7.93,-7.78,-7.61,-2.48,-2.49,-2.49
146.32,5.41,7.94,5.41,7.94,-7.94,-7.77,-7.51,-2.52,-2.53,-2.53
147.78,5.38,7.94,5.38,7.94,-7.94,-7.75,-7.41,-2.56,-2.56,-2.56
149.26,5.35,7.94,5.35,7.95,-7.95,-7.74,-7.32,-2.60,-2.60,-2.59
150.75,5.31,7.95,5.32,7.95,-7.95,-7.72,-7.22,-2.64,-2.64,-2.64
152.26,5.28,7.95,5.28,7.95,-7.95,-7.70,-7.13,-2.67,-2.67,-2.67
153.78,5.24,7.95,5.25,7.95,-7.95,-7.68,-7.04,-2.71,-2.71,-2.71
155.32,5.21,7.95,5.21,7.95,-7.95,-7.66,-6.95,-2.74,-2.74,-2.74
156.88,5.17,7.94,5.17,7.95,-7.95,-7.64,-6.86,-2.78,-2.78,-2.77
158.44,5.13,7.94,5.14,7.95,-7.95,-7.62,-6.78,-2.81,-2.81,-2.81
160.03,5.09,7.94,5.09,7.94,-7.94,-7.60,-6.69,-2.85,-2.84,-2.85
161.63,5.05,7.94,5.05,7.93,-7.93,-7.58,-6.62,-2.88,-2.88,-2.89
163.24,5.01,7.93,5.01,7.92,-7.92,-7.55,-6.55,-2.91,-2.91,-2.92
164.88,4.96,7.90,4.96,7.91,-7.91,-7.53,-6.48,-2.95,-2.95,-2.94
166.53,4.92,7.90,4.92,7.90,-7.90,-7.51,-6.41,-2.98,-2.98,-2.98
168.19,4.87,7.90,4.87,7.89,-7.89,-7.49,-6.35,-3.02,-3.02,-3.02
169.87,4.81,7.87,4.82,7.87,-7.87,-7.46,-6.30,-3.06,-3.06,-3.06
171.57,4.76,7.85,4.76,7.86,-7.86,-7.44,-6.24,-3.10,-3.09,-3.09
173.29,4.70,7.82,4.71,7.84,-7.84,-7.42,-6.20,-3.14,-3.13,-3.12
175.02,4.65,7.82,4.65,7.82,-7.82,-7.40,-6.15,-3.17,-3.17,-3.16
176.77,4.59,7.81,4.59,7.80,-7.80,-7.38,-6.12,-3.21,-3.21,-3.21
178.54,4.53,7.78,4.53,7.78,-7.78,-7.36,-6.08,-3.24,-3.25,-3.25
180.32,4.46,7.75,4.46,7.75,-7.75,-7.33,-6.06,-3.29,-3.29,-3.29
182.13,4.39,7.72,4.39,7.72,-7.72,-7.31,-6.03,-3.33,-3.33,-3.33
183.95,4.31,7.69,4.32,7.69,-7.69,-7.29,-6.01,-3.38,-3.37,-3.38
185.79,4.25,7.66,4.25,7.66,-7.66,-7.27,-6.00,-3.40,-3.41,-3.41
187.65,4.17,7.63,4.17,7.62,-7.62,-7.25,-5.99,-3.45,-3.45,-3.46
189.52,4.08,7.57,4.09,7.58,-7.58,-7.23,-5.98,-3.49,-3.49,-3.49
191.42,4.01,7.54,4.01,7.53,-7.53,-7.22,-5.98,-3.52,-3.52,-3.53
193.33,3.93,7.48,3.93,7.48,-7.48,-7.20,-5.98,-3.55,-3.56,-3.55
195.27,3.84,7.42,3.84,7.43,-7.43,-7.18,-5.99,-3.59,-3.59,-3.58
197.22,3.75,7.37,3.75,7.37,-7.37,-7.16,-5.99,-3.62,-3.62,-3.61
199.19,3.66,7.33,3.66,7.31,-7.31,-7.14,-6.01,-3.65,-3.65,-3.66
201.18,3.58,7.27,3.57,7.25,-7.25,-7.12,-6.02,-3.67,-3.68,-3.68
203.19,3.48,7.19,3.48,7.19,-7.19,-7.09,-6.04,-3.71,-3.71,-3.70
205.23,3.38,7.12,3.39,7.12,-7.12,-7.07,-6.06,-3.74,-3.73,-3.73
207.28,3.30,7.04,3.30,7.05,-7.05,-7.04,-6.08,-3.75,-3.76,-3.74
209.35,3.20,6.98,3.20,6.98,-6.98,-7.02,-6.10,-3.78,-3.78,-3.78
211.44,3.11,6.92,3.11,6.91,-6.91,-6.98,-6.12,-3.80,-3.80,-3.81
213.56,3.01,6.84,3.02,6.84,-6.84,-6.95,-6.15,-3.82,-3.82,-3.82
215.69,2.92,6.75,2.92,6.76,-6.76,-6.91,-6.17,-3.84,-3.84,-3.83
217.85,2.83,6.68,2.83,6.68,-6.68,-6.87,-6.20,-3.85,-3.85,-3.84
220.03,2.74,6.61,2.74,6.60,-6.60,-6.83,-6.22,-3.86,-3.86,-3.87
222.23,2.65,6.54,2.65,6.52,-6.52,-6.78,-6.24,-3.87,-3.87,-3.88
224.45,2.56,6.44,2.56,6.44,-6.44,-6.72,-6.26,-3.88,-3.88,-3.88
226.70,2.47,6.36,2.48,6.36,-6.36,-6.66,-6.27,-3.89,-3.89,-3.89
228.96,2.39,6.29,2.39,6.28,-6.28,-6.59,-6.28,-3.89,-3.89,-3.89
231.25,2.30,6.19,2.31,6.20,-6.20,-6.52,-6.29,-3.90,-3.89,-3.89
233.57,2.22,6.10,2.23,6.12,-6.12,-6.44,-6.29,-3.90,-3.89,-3.88
235.90,2.14,6.02,2.16,6.04,-6.04,-6.36,-6.29,-3.90,-3.88,-3.88
238.26,2.08,5.97,2.08,5.96,-5.96,-6.27,-6.28,-3.87,-3.87,-3.88
240.64,2.00,5.87,2.01,5.88,-5.88,-6.17,-6.27,-3.87,-3.86,-3.86
243.05,1.94,5.80,1.94,5.79,-5.79,-6.07,-6.24,-3.85,-3.85,-3.85
245.48,1.87,5.71,1.87,5.71,-5.71,-5.97,-6.22,-3.84,-3.84,-3.83
247.93,1.80,5.63,1.80,5.63,-5.63,-5.86,-6.18,-3.83,-3.82,-3.82
250.41,1.74,5.56,1.74,5.54,-5.54,-5.74,-6.13,-3.80,-3.81,-3.81
252.92,1.68,5.47,1.67,5.46,-5.46,-5.62,-6.08,-3.77,-3.79,-3.78
255.45,1.60,5.36,1.60,5.37,-5.37,-5.50,-6.02,-3.77,-3.77,-3.76
258.00,1.53,5.27,1.53,5.28,-5.28,-5.37,-5.96,-3.75,-3.75,-3.74
260.58,1.47,5.20,1.46,5.19,-5.19,-5.25,-5.88,-3.72,-3.73,-3.73
263.19,1.39,5.10,1.39,5.10,-5.10,-5.12,-5.80,-3.70,-3.70,-3.71
265.82,1.32,5.01,1.32,5.00,-5.00,-4.99,-5.71,-3.68,-3.68,-3.68
268.48,1.24,4.90,1.24,4.90,-4.90,-4.85,-5.62,-3.66,-3.66,-3.66
271.16,1.17,4.80,1.17,4.80,-4.80,-4.72,-5.52,-3.63,-3.64,-3.63
273.87,1.08,4.70,1.09,4.70,-4.70,-4.59,-5.41,-3.62,-3.61,-3.61
276.61,1.00,4.58,1.01,4.60,-4.60,-4.45,-5.30,-3.60,-3.59,-3.58
279.38,0.93,4.50,0.93,4.50,-4.50,-4.32,-5.19,-3.56,-3.57,-3.57
282.17,0.84,4.39,0.85,4.39,-4.39,-4.19,-5.07,-3.55,-3.54,-3.54
284.99,0.76,4.28,0.76,4.28,-4.28,-4.06,-4.95,-3.52,-3.52,-3.52
287.84,0.67,4.17,0.68,4.17,-4.17,-3.93,-4.82,-3.49,-3.49,-3.50
290.72,0.59,4.05,0.59,4.05,-4.05,-3.79,-4.70,-3.46,-3.46,-3.46
293.63,0.50,3.95,0.50,3.94,-3.94,-3.67,-4.57,-3.43,-3.44,-3.45
296.57,0.41,3.82,0.41,3.82,-3.82,-3.54,-4.44,-3.40,-3.41,-3.41
299.53,0.32,3.71,0.32,3.70,-3.70,-3.41,-4.31,-3.37,-3.38,-3.39
302.53,0.22,3.58,0.22,3.57,-3.57,-3.29,-4.17,-3.35,-3.35,-3.36
305.55,0.12,3.44,0.13,3.45,-3.45,-3.16,-4.04,-3.32,-3.32,-3.31
308.61,0.03,3.32,0.03,3.32,-3.32,-3.04,-3.91,-3.29,-3.29,-3.29
311.69,-0.07,3.19,-0.07,3.19,-3.19,-2.92,-3.78,-3.26,-3.26,-3.25
314.81,-0.17,3.05,-0.17,3.06,-3.06,-2.80,-3.64,-3.22,-3.23,-3.22
317.96,-0.27,2.92,-0.27,2.93,-2.93,-2.68,-3.51,-3.19,-3.19,-3.19
321.14,-0.37,2.80,-0.37,2.79,-2.79,-2.57,-3.38,-3.16,-3.16,-3.16
324.35,-0.48,2.66,-0.47,2.66,-2.66,-2.45,-3.26,-3.14,-3.14,-3.14
327.59,-0.58,2.52,-0.58,2.53,-2.53,-2.34,-3.13,-3.11,-3.11,-3.10
330.87,-0.69,2.39,-0.68,2.40,-2.40,-2.23,-3.00,-3.09,-3.08,-3.07
334.18,-0.79,2.27,-0.79,2.27,-2.27,-2.12,-2.88,-3.05,-3.05,-3.06
337.52,-0.89,2.14,-0.89,2.14,-2.14,-2.01,-2.75,-3.02,-3.03,-3.03
340.90,-1.00,2.01,-1.00,2.01,-2.01,-1.90,-2.63,-3.01,-3.01,-3.00
344.30,-1.11,1.88,-1.11,1.88,-1.88,-1.80,-2.51,-2.99,-2.99,-2.99
347.75,-1.21,1.75,-1.21,1.75,-1.75,-1.69,-2.39,-2.96,-2.97,-2.96
351.23,-1.31,1.63,-1.32,1.62,-1.62,-1.59,-2.27,-2.93,-2.94,-2.94
354.74,-1.42,1.51,-1.42,1.50,-1.50,-1.49,-2.16,-2.92,-2.92,-2.92
358.28,-1.53,1.38,-1.53,1.38,-1.38,-1.39,-2.04,-2.91,-2.91,-2.91
361.87,-1.63,1.26,-1.63,1.26,-1.26,-1.29,-1.93,-2.88,-2.89,-2.89
365.49,-1.73,1.13,-1.73,1.14,-1.14,-1.19,-1.82,-2.87,-2.87,-2.86
369.14,-1.83,1.03,-1.82,1.03,-1.03,-1.10,-1.71,-2.86,-2.85,-2.85
372.83,-1.93,0.91,-1.91,0.92,-0.92,-1.00,-1.60,-2.84,-2.83,-2.84
376.56,-2.01,0.81,-2.00,0.81,-0.81,-0.91,-1.49,-2.82,-2.81,-2.82
380.33,-2.10,0.69,-2.08,0.71,-0.71,-0.82,-1.39,-2.81,-2.79,-2.79
384.13,-2.17,0.60,-2.16,0.61,-0.61,-0.73,-1.29,-2.78,-2.77,-2.77
387.97,-2.24,0.52,-2.23,0.52,-0.52,-0.64,-1.18,-2.76,-2.75,-2.75
391.85,-2.31,0.43,-2.30,0.43,-0.43,-0.56,-1.08,-2.74,-2.73,-2.74
395.77,-2.37,0.34,-2.36,0.35,-0.35,-0.47,-0.99,-2.72,-2.71,-2.71
399.73,-2.42,0.27,-2.42,0.27,-0.27,-0.39,-0.89,-2.69,-2.69,-2.69
403.72,-2.47,0.20,-2.48,0.19,-0.19,-0.31,-0.79,-2.66,-2.67,-2.67
407.76,-2.53,0.12,-2.53,0.12,-0.12,-0.23,-0.70,-2.64,-2.65,-2.65
411.84,-2.58,0.04,-2.58,0.04,-0.04,-0.16,-0.61,-2.62,-2.63,-2.62
415.96,-2.62,-0.01,-2.63,-0.03,0.03,-0.08,-0.52,-2.59,-2.60,-2.60
420.12,-2.67,-0.08,-2.68,-0.09,0.09,-0.01,-0.44,-2.57,-2.58,-2.59
424.32,-2.71,-0.15,-2.72,-0.16,0.16,0.06,-0.35,-2.55,-2.56,-2.56
428.56,-2.76,-0.22,-2.76,-0.22,0.22,0.13,-0.27,-2.54,-2.54,-2.54
432.85,-2.80,-0.28,-2.79,-0.28,0.28,0.19,-0.19,-2.52,-2.51,-2.52
437.18,-2.83,-0.34,-2.83,-0.34,0.34,0.25,-0.11,-2.49,-2.49,-2.49
441.55,-2.86,-0.40,-2.86,-0.39,0.39,0.31,-0.04,-2.47,-2.47,-2.46
445.96,-2.89,-0.45,-2.88,-0.44,0.44,0.37,0.03,-2.44,-2.44,-2.44
450.42,-2.90,-0.47,-2.90,-0.49,0.49,0.42,0.10,-2.41,-2.41,-2.42
454.93,-2.92,-0.53,-2.92,-0.53,0.53,0.47,0.16,-2.39,-2.39,-2.38
459.48,-2.93,-0.56,-2.92,-0.56,0.56,0.52,0.22,-2.36,-2.36,-2.36
464.07,-2.93,-0.59,-2.92,-0.59,0.59,0.56,0.27,-2.34,-2.33,-2.34
468.71,-2.93,-0.63,-2.92,-0.61,0.61,0.60,0.32,-2.32,-2.30,-2.30
473.40,-2.92,-0.64,-2.90,-0.63,0.63,0.64,0.37,-2.29,-2.28,-2.28
478.13,-2.89,-0.64,-2.88,-0.63,0.63,0.67,0.41,-2.26,-2.25,-2.25
482.91,-2.87,-0.65,-2.85,-0.63,0.63,0.69,0.45,-2.24,-2.22,-2.22
487.74,-2.83,-0.64,-2.82,-0.62,0.62,0.72,0.48,-2.20,-2.19,-2.19
492.62,-2.79,-0.63,-2.77,-0.61,0.61,0.74,0.51,-2.18,-2.16,-2.16
497.55,-2.74,-0.60,-2.72,-0.59,0.59,0.75,0.54,-2.15,-2.14,-2.14
