frequency,raw,error,smoothed,error_smoothed,equalization,parametric_eq,fixed_band_eq,equalized_raw,equalized_smoothed,target
20.00,4.51,-5.72,4.46,-5.76,5.76,5.52,1.66,10.27,10.23,10.23
20.20,4.55,-5.67,4.52,-5.70,5.70,5.48,1.71,10.25,10.22,10.22
20.40,4.60,-5.62,4.58,-5.64,5.64,5.44,1.76,10.24,10.22,10.22
20.61,4.64,-5.58,4.64,-5.57,5.57,5.40,1.82,10.21,10.21,10.22
20.81,4.69,-5.51,4.70,-5.51,5.51,5.36,1.87,10.20,10.21,10.20
21.02,4.74,-5.46,4.76,-5.45,5.45,5.31,1.93,10.19,10.21,10.20
21.23,4.79,-5.41,4.82,-5.38,5.38,5.27,1.98,10.17,10.21,10.20
21.44,4.84,-5.37,4.88,-5.32,5.32,5.22,2.04,10.16,10.20,10.21
21.66,4.90,-5.30,4.95,-5.26,5.26,5.18,2.10,10.15,10.20,10.20
21.87,4.95,-5.26,5.01,-5.19,5.19,5.13,2.17,10.14,10.20,10.21
22.09,5.02,-5.18,5.07,-5.13,5.13,5.08,2.23,10.15,10.20,10.20
22.31,5.12,-5.09,5.14,-5.06,5.06,5.04,2.30,10.18,10.20,10.21
22.54,5.22,-4.98,5.21,-4.99,4.99,4.99,2.36,10.21,10.20,10.20
22.76,5.32,-4.88,5.29,-4.92,4.92,4.94,2.43,10.24,10.20,10.20
22.99,5.42,-4.78,5.36,-4.85,4.85,4.89,2.51,10.27,10.21,10.20
23.22,5.47,-4.73,5.43,-4.78,4.78,4.84,2.58,10.25,10.21,10.20
23.45,5.53,-4.68,5.50,-4.71,4.71,4.79,2.65,10.24,10.21,10.21
23.69,5.58,-4.63,5.57,-4.65,4.65,4.73,2.73,10.23,10.21,10.21
23.92,5.63,-4.58,5.63,-4.58,4.58,4.68,2.80,10.21,10.21,10.21
24.16,5.69,-4.53,5.69,-4.53,4.53,4.63,2.88,10.22,10.22,10.22
24.40,5.74,-4.49,5.75,-4.47,4.47,4.57,2.96,10.21,10.22,10.23
24.65,5.79,-4.44,5.81,-4.42,4.42,4.52,3.04,10.21,10.22,10.23
24.89,5.85,-4.38,5.86,-4.37,4.37,4.46,3.12,10.22,10.22,10.23
25.14,5.90,-4.32,5.91,-4.31,4.31,4.41,3.20,10.21,10.23,10.22
25.39,5.96,-4.27,5.97,-4.26,4.26,4.35,3.28,10.22,10.23,10.23
25.65,6.02,-4.21,6.03,-4.20,4.20,4.29,3.36,10.22,10.23,10.23
25.91,6.08,-4.14,6.09,-4.13,4.13,4.24,3.44,10.21,10.23,10.22
26.16,6.14,-4.09,6.15,-4.08,4.08,4.18,3.52,10.22,10.23,10.23
26.43,6.20,-4.03,6.20,-4.02,4.02,4.12,3.60,10.22,10.23,10.23
26.69,6.26,-3.97,6.25,-3.97,3.97,4.06,3.68,10.23,10.22,10.23
26.96,6.32,-3.89,6.30,-3.92,3.92,4.00,3.75,10.24,10.22,10.21
27.23,6.38,-3.83,6.35,-3.87,3.87,3.94,3.82,10.24,10.22,10.21
27.50,6.45,-3.76,6.41,-3.81,3.81,3.88,3.89,10.26,10.21,10.21
27.77,6.51,-3.71,6.47,-3.75,3.75,3.82,3.96,10.26,10.21,10.22
28.05,6.56,-3.65,6.52,-3.68,3.68,3.76,4.02,10.24,10.21,10.21
28.33,6.56,-3.64,6.58,-3.63,3.63,3.70,4.08,10.19,10.20,10.20
28.62,6.56,-3.63,6.63,-3.57,3.57,3.64,4.13,10.13,10.20,10.19
28.90,6.56,-3.64,6.68,-3.51,3.51,3.58,4.18,10.07,10.19,10.20
29.19,6.65,-3.54,6.73,-3.45,3.45,3.51,4.22,10.10,10.18,10.19
29.48,6.78,-3.39,6.78,-3.40,3.40,3.45,4.25,10.18,10.18,10.17
29.78,6.91,-3.26,6.83,-3.33,3.33,3.39,4.28,10.24,10.17,10.17
30.08,7.01,-3.16,6.89,-3.27,3.27,3.33,4.30,10.28,10.16,10.17
30.38,7.01,-3.14,6.95,-3.20,3.20,3.26,4.31,10.21,10.15,10.15
30.68,7.01,-3.13,7.01,-3.13,3.13,3.20,4.31,10.14,10.14,10.14
30.99,7.01,-3.12,7.07,-3.06,3.06,3.13,4.31,10.07,10.13,10.13
31.30,7.08,-3.04,7.12,-3.00,3.00,3.07,4.29,10.08,10.12,10.12
31.61,7.15,-2.96,7.18,-2.94,2.94,3.01,4.27,10.08,10.11,10.11
31.93,7.22,-2.87,7.23,-2.88,2.88,2.94,4.24,10.09,10.11,10.09
32.24,7.29,-2.81,7.28,-2.82,2.82,2.88,4.21,10.11,10.10,10.10
32.57,7.36,-2.72,7.32,-2.77,2.77,2.81,4.16,10.13,10.09,10.08
32.89,7.43,-2.65,7.37,-2.72,2.72,2.74,4.11,10.15,10.09,10.08
33.22,7.45,-2.63,7.42,-2.66,2.66,2.68,4.05,10.11,10.08,10.08
33.55,7.46,-2.61,7.47,-2.60,2.60,2.61,3.98,10.06,10.08,10.07
33.89,7.47,-2.61,7.53,-2.54,2.54,2.55,3.91,10.01,10.07,10.08
34.23,7.52,-2.54,7.58,-2.49,2.49,2.48,3.83,10.00,10.07,10.06
34.57,7.60,-2.47,7.64,-2.42,2.42,2.41,3.75,10.02,10.07,10.07
34.92,7.68,-2.38,7.69,-2.37,2.37,2.35,3.66,10.05,10.06,10.06
35.27,7.76,-2.31,7.75,-2.31,2.31,2.28,3.56,10.07,10.05,10.07
35.62,7.84,-2.20,7.80,-2.25,2.25,2.21,3.47,10.09,10.05,10.04
35.97,7.91,-2.13,7.85,-2.19,2.19,2.15,3.37,10.10,10.04,10.04
36.33,7.92,-2.11,7.89,-2.13,2.13,2.08,3.26,10.05,10.02,10.03
36.70,7.92,-2.09,7.93,-2.08,2.08,2.01,3.15,9.99,10.01,10.01
37.06,7.93,-2.06,7.98,-2.01,2.01,1.95,3.04,9.94,9.99,9.99
37.43,8.02,-1.96,8.02,-1.95,1.95,1.88,2.93,9.97,9.97,9.98
37.81,8.11,-1.84,8.05,-1.89,1.89,1.81,2.82,10.00,9.95,9.95
38.19,8.15,-1.78,8.09,-1.83,1.83,1.74,2.71,9.98,9.92,9.93
38.57,8.15,-1.76,8.13,-1.77,1.77,1.68,2.59,9.92,9.90,9.91
38.95,8.15,-1.73,8.16,-1.70,1.70,1.61,2.48,9.85,9.87,9.88
39.34,8.16,-1.67,8.21,-1.63,1.63,1.54,2.36,9.79,9.84,9.83
39.74,8.17,-1.63,8.24,-1.57,1.57,1.47,2.25,9.74,9.81,9.80
40.14,8.21,-1.56,8.28,-1.50,1.50,1.40,2.13,9.71,9.78,9.77
40.54,8.29,-1.46,8.33,-1.43,1.43,1.33,2.02,9.72,9.75,9.75
40.94,8.37,-1.34,8.37,-1.35,1.35,1.27,1.90,9.72,9.72,9.71
41.35,8.44,-1.25,8.42,-1.28,1.28,1.20,1.79,9.72,9.69,9.69
41.76,8.52,-1.14,8.46,-1.21,1.21,1.13,1.68,9.73,9.66,9.66
42.18,8.57,-1.07,8.51,-1.13,1.13,1.06,1.57,9.70,9.64,9.64
42.60,8.59,-1.02,8.55,-1.06,1.06,0.99,1.45,9.65,9.61,9.61
43.03,8.61,-0.97,8.59,-0.99,0.99,0.92,1.34,9.60,9.58,9.58
43.46,8.61,-0.94,8.64,-0.92,0.92,0.85,1.23,9.53,9.55,9.55
43.90,8.61,-0.92,8.68,-0.85,0.85,0.79,1.12,9.45,9.53,9.53
44.33,8.69,-0.80,8.72,-0.77,0.77,0.72,1.01,9.46,9.50,9.49
44.78,8.79,-0.67,8.76,-0.71,0.71,0.65,0.91,9.49,9.47,9.46
45.23,8.84,-0.61,8.79,-0.64,0.64,0.58,0.80,9.48,9.43,9.45
45.68,8.84,-0.56,8.83,-0.58,0.58,0.51,0.69,9.41,9.40,9.40
46.13,8.84,-0.52,8.85,-0.51,0.51,0.44,0.59,9.35,9.37,9.36
46.60,8.84,-0.49,8.88,-0.45,0.45,0.37,0.48,9.29,9.33,9.33
47.06,8.85,-0.45,8.91,-0.38,0.38,0.30,0.38,9.23,9.29,9.30
47.53,8.96,-0.31,8.95,-0.31,0.31,0.23,0.28,9.27,9.25,9.27
48.01,9.06,-0.15,8.98,-0.23,0.23,0.16,0.17,9.29,9.21,9.21
48.49,9.06,-0.11,9.02,-0.16,0.16,0.10,0.07,9.22,9.17,9.17
48.97,9.06,-0.07,9.05,-0.08,0.08,0.03,-0.03,9.14,9.13,9.13
49.46,9.06,-0.03,9.08,-0.01,0.01,-0.04,-0.13,9.07,9.09,9.09
49.96,9.06,0.03,9.10,0.05,-0.05,-0.11,-0.23,9.01,9.05,9.03
50.46,9.08,0.09,9.12,0.12,-0.12,-0.18,-0.32,8.96,9.00,8.99
50.96,9.11,0.15,9.15,0.19,-0.19,-0.25,-0.42,8.92,8.96,8.96
51.47,9.20,0.28,9.19,0.27,-0.27,-0.32,-0.52,8.93,8.91,8.92
51.99,9.29,0.42,9.22,0.35,-0.35,-0.39,-0.61,8.94,8.87,8.87
52.51,9.29,0.46,9.25,0.43,-0.43,-0.46,-0.71,8.86,8.82,8.83
53.03,9.29,0.49,9.27,0.50,-0.50,-0.53,-0.80,8.79,8.77,8.80
53.56,9.29,0.56,9.30,0.57,-0.57,-0.60,-0.89,8.71,8.73,8.73
54.10,9.29,0.61,9.34,0.65,-0.65,-0.67,-0.98,8.63,8.68,8.68
54.64,9.29,0.65,9.37,0.73,-0.73,-0.74,-1.07,8.56,8.64,8.64
55.18,9.33,0.75,9.40,0.80,-0.80,-0.81,-1.16,8.53,8.60,8.58
55.74,9.46,0.93,9.41,0.86,-0.86,-0.88,-1.24,8.60,8.55,8.53
56.29,9.52,1.03,9.43,0.93,-0.93,-0.95,-1.33,8.59,8.51,8.49
56.86,9.52,1.06,9.45,0.99,-0.99,-1.01,-1.41,8.53,8.46,8.46
57.42,9.52,1.12,9.47,1.06,-1.06,-1.08,-1.49,8.46,8.41,8.40
58.00,9.52,1.16,9.50,1.13,-1.13,-1.15,-1.57,8.39,8.37,8.36
58.58,9.52,1.19,9.53,1.21,-1.21,-1.22,-1.64,8.31,8.32,8.33
59.16,9.52,1.22,9.56,1.29,-1.29,-1.29,-1.72,8.23,8.27,8.30
59.76,9.52,1.27,9.58,1.36,-1.36,-1.36,-1.79,8.16,8.22,8.25
60.35,9.52,1.34,9.61,1.44,-1.44,-1.43,-1.85,8.08,8.17,8.18
60.96,9.52,1.39,9.63,1.51,-1.51,-1.50,-1.92,8.01,8.12,8.13
61.57,9.65,1.59,9.65,1.58,-1.58,-1.57,-1.98,8.07,8.06,8.06
62.18,9.75,1.76,9.66,1.65,-1.65,-1.64,-2.04,8.10,8.01,7.99
62.80,9.75,1.81,9.67,1.71,-1.71,-1.71,-2.10,8.04,7.95,7.94
63.43,9.75,1.87,9.68,1.79,-1.79,-1.78,-2.16,7.96,7.89,7.88
64.07,9.75,1.92,9.70,1.87,-1.87,-1.85,-2.21,7.88,7.84,7.83
64.71,9.75,1.97,9.73,1.95,-1.95,-1.92,-2.26,7.80,7.78,7.78
65.35,9.75,2.04,9.75,2.04,-2.04,-1.98,-2.31,7.71,7.71,7.71
66.01,9.75,2.10,9.77,2.12,-2.12,-2.05,-2.35,7.63,7.65,7.65
66.67,9.75,2.15,9.80,2.20,-2.20,-2.12,-2.40,7.55,7.59,7.60
67.33,9.75,2.22,9.82,2.28,-2.28,-2.19,-2.44,7.47,7.53,7.53
68.01,9.75,2.27,9.83,2.36,-2.36,-2.26,-2.48,7.39,7.47,7.48
68.69,9.76,2.35,9.85,2.44,-2.44,-2.33,-2.52,7.32,7.41,7.41
69.37,9.85,2.49,9.86,2.52,-2.52,-2.40,-2.56,7.33,7.35,7.36
70.07,9.98,2.69,9.89,2.60,-2.60,-2.47,-2.60,7.38,7.28,7.29
70.77,9.98,2.75,9.91,2.69,-2.69,-2.54,-2.64,7.29,7.22,7.23
71.48,9.98,2.83,9.93,2.78,-2.78,-2.60,-2.68,7.20,7.15,7.15
72.19,9.98,2.89,9.95,2.86,-2.86,-2.67,-2.72,7.12,7.09,7.09
72.91,9.98,2.95,9.96,2.94,-2.94,-2.74,-2.75,7.04,7.03,7.03
73.64,9.98,3.03,9.98,3.01,-3.01,-2.81,-2.79,6.97,6.97,6.95
74.38,9.98,3.09,9.99,3.08,-3.08,-2.88,-2.83,6.90,6.91,6.89
75.12,9.98,3.15,10.00,3.15,-3.15,-2.95,-2.87,6.83,6.85,6.83
75.87,9.98,3.18,10.00,3.20,-3.20,-3.01,-2.91,6.77,6.79,6.80
76.63,9.98,3.25,9.99,3.26,-3.26,-3.08,-2.95,6.72,6.74,6.73
77.40,9.98,3.30,9.99,3.30,-3.30,-3.15,-3.00,6.68,6.69,6.68
78.17,9.98,3.35,9.98,3.35,-3.35,-3.22,-3.04,6.63,6.63,6.63
78.95,9.98,3.39,9.98,3.39,-3.39,-3.29,-3.09,6.59,6.58,6.59
79.74,9.98,3.45,9.97,3.44,-3.44,-3.35,-3.14,6.54,6.53,6.53
80.54,9.98,3.50,9.96,3.48,-3.48,-3.42,-3.19,6.50,6.48,6.48
81.35,9.98,3.55,9.96,3.54,-3.54,-3.49,-3.24,6.44,6.43,6.43
82.16,9.98,3.59,9.97,3.59,-3.59,-3.56,-3.30,6.39,6.38,6.39
82.98,9.98,3.65,9.98,3.66,-3.66,-3.62,-3.36,6.32,6.32,6.33
83.81,9.98,3.71,9.99,3.73,-3.73,-3.69,-3.42,6.25,6.26,6.27
84.65,9.98,3.77,10.01,3.80,-3.80,-3.76,-3.48,6.18,6.20,6.21
85.50,9.98,3.84,10.02,3.88,-3.88,-3.82,-3.55,6.10,6.14,6.14
86.35,9.98,3.90,10.04,3.96,-3.96,-3.89,-3.61,6.02,6.08,6.08
87.22,9.99,3.97,10.06,4.04,-4.04,-3.96,-3.69,5.95,6.02,6.02
88.09,10.04,4.09,10.08,4.13,-4.13,-4.02,-3.76,5.91,5.96,5.95
88.97,10.19,4.30,10.11,4.22,-4.22,-4.09,-3.84,5.97,5.89,5.89
89.86,10.20,4.38,10.14,4.31,-4.31,-4.15,-3.92,5.89,5.83,5.82
90.76,10.20,4.45,10.16,4.41,-4.41,-4.22,-4.00,5.79,5.76,5.75
91.66,10.20,4.51,10.18,4.49,-4.49,-4.28,-4.08,5.71,5.69,5.69
92.58,10.20,4.57,10.19,4.57,-4.57,-4.35,-4.17,5.63,5.62,5.63
93.51,10.20,4.64,10.20,4.65,-4.65,-4.41,-4.26,5.55,5.55,5.56
94.44,10.20,4.70,10.20,4.71,-4.71,-4.48,-4.36,5.48,5.48,5.50
95.39,10.20,4.78,10.19,4.78,-4.78,-4.54,-4.46,5.42,5.41,5.42
96.34,10.20,4.86,10.17,4.83,-4.83,-4.61,-4.55,5.37,5.34,5.34
97.30,10.20,4.92,10.15,4.88,-4.88,-4.67,-4.66,5.32,5.27,5.28
98.28,10.20,5.01,10.12,4.92,-4.92,-4.73,-4.76,5.28,5.20,5.19
99.26,10.14,5.02,10.09,4.96,-4.96,-4.80,-4.87,5.18,5.14,5.12
100.25,9.98,4.92,10.07,5.00,-5.00,-4.86,-4.97,4.98,5.07,5.06
101.25,9.98,4.98,10.05,5.05,-5.05,-4.92,-5.08,4.93,5.00,5.00
102.27,9.98,5.05,10.03,5.09,-5.09,-4.98,-5.19,4.89,4.94,4.93
103.29,9.98,5.11,10.01,5.14,-5.14,-5.05,-5.31,4.84,4.88,4.87
104.32,9.98,5.16,10.00,5.18,-5.18,-5.11,-5.42,4.80,4.82,4.82
105.37,9.98,5.22,9.98,5.23,-5.23,-5.17,-5.53,4.75,4.76,4.76
106.42,9.98,5.28,9.97,5.27,-5.27,-5.23,-5.64,4.71,4.70,4.70
107.48,9.98,5.35,9.96,5.32,-5.32,-5.29,-5.76,4.66,4.64,4.63
108.56,9.98,5.39,9.96,5.38,-5.38,-5.35,-5.87,4.60,4.58,4.59
109.64,9.98,5.45,9.96,5.44,-5.44,-5.41,-5.98,4.54,4.53,4.53
110.74,9.98,5.51,9.97,5.50,-5.50,-5.47,-6.08,4.48,4.47,4.47
111.85,9.98,5.57,9.98,5.57,-5.57,-5.53,-6.19,4.41,4.41,4.41
112.97,9.98,5.62,9.98,5.63,-5.63,-5.58,-6.29,4.35,4.35,4.36
114.10,9.98,5.68,9.98,5.70,-5.70,-5.64,-6.38,4.28,4.29,4.30
115.24,9.98,5.75,9.99,5.76,-5.76,-5.70,-6.47,4.21,4.23,4.23
116.39,9.98,5.82,10.00,5.83,-5.83,-5.75,-6.56,4.15,4.16,4.16
117.55,9.98,5.88,10.00,5.90,-5.90,-5.81,-6.64,4.08,4.10,4.10
118.73,9.98,5.95,9.99,5.95,-5.95,-5.87,-6.71,4.02,4.04,4.03
119.92,9.98,6.02,9.98,6.01,-6.01,-5.92,-6.78,3.97,3.97,3.96
121.12,9.98,6.07,9.97,6.07,-6.07,-5.97,-6.84,3.91,3.90,3.91
122.33,9.98,6.15,9.95,6.12,-6.12,-6.03,-6.89,3.86,3.84,3.83
123.55,9.98,6.20,9.94,6.17,-6.17,-6.08,-6.93,3.81,3.77,3.78
124.79,9.98,6.27,9.92,6.21,-6.21,-6.13,-6.97,3.77,3.70,3.71
126.03,9.98,6.34,9.89,6.26,-6.26,-6.18,-6.99,3.72,3.64,3.64
127.29,9.90,6.33,9.87,6.30,-6.30,-6.24,-7.01,3.60,3.57,3.57
128.57,9.80,6.29,9.85,6.35,-6.35,-6.29,-7.02,3.45,3.50,3.51
129.85,9.75,6.32,9.84,6.40,-6.40,-6.33,-7.03,3.35,3.44,3.43
131.15,9.75,6.38,9.82,6.45,-6.45,-6.38,-7.02,3.30,3.37,3.37
132.46,9.75,6.45,9.81,6.50,-6.50,-6.43,-7.01,3.25,3.31,3.30
133.79,9.75,6.51,9.78,6.54,-6.54,-6.48,-6.99,3.21,3.25,3.24
135.12,9.75,6.58,9.76,6.58,-6.58,-6.52,-6.97,3.17,3.18,3.17
136.48,9.75,6.62,9.74,6.62,-6.62,-6.57,-6.94,3.13,3.12,3.13
137.84,9.75,6.68,9.72,6.65,-6.65,-6.61,-6.91,3.10,3.06,3.07
139.22,9.75,6.75,9.69,6.69,-6.69,-6.66,-6.87,3.06,3.01,3.00
140.61,9.75,6.80,9.68,6.73,-6.73,-6.70,-6.83,3.02,2.95,2.95
142.02,9.75,6.85,9.67,6.77,-6.77,-6.74,-6.78,2.98,2.90,2.90
143.44,9.74,6.90,9.66,6.82,-6.82,-6.78,-6.74,2.92,2.85,2.84
144.87,9.56,6.76,9.64,6.85,-6.85,-6.82,-6.69,2.71,2.80,2.80
146.32,9.53,6.78,9.62,6.87,-6.87,-6.86,-6.65,2.66,2.75,2.75
147.78,9.52,6.83,9.59,6.89,-6.89,-6.90,-6.60,2.63,2.70,2.69
149.26,9.52,6.87,9.56,6.91,-6.91,-6.94,-6.55,2.61,2.65,2.65
150.75,9.52,6.93,9.53,6.93,-6.93,-6.97,-6.51,2.59,2.60,2.59
152.26,9.52,6.96,9.49,6.95,-6.95,-7.01,-6.47,2.57,2.55,2.56
153.78,9.52,7.02,9.47,6.97,-6.97,-7.04,-6.42,2.55,2.50,2.50
155.32,9.52,7.06,9.45,6.99,-6.99,-7.07,-6.38,2.53,2.45,2.46
156.88,9.50,7.09,9.42,7.01,-7.01,-7.10,-6.35,2.49,2.41,2.41
158.44,9.35,6.99,9.39,7.04,-7.04,-7.13,-6.31,2.31,2.36,2.36
160.03,9.29,6.98,9.37,7.06,-7.06,-7.16,-6.28,2.23,2.31,2.31
161.63,9.29,7.03,9.35,7.09,-7.09,-7.19,-6.26,2.20,2.26,2.26
163.24,9.29,7.09,9.32,7.11,-7.11,-7.22,-6.23,2.18,2.21,2.20
164.88,9.29,7.13,9.29,7.13,-7.13,-7.24,-6.22,2.16,2.16,2.16
166.53,9.29,7.19,9.25,7.14,-7.14,-7.26,-6.20,2.15,2.11,2.10
168.19,9.29,7.22,9.22,7.15,-7.15,-7.29,-6.19,2.14,2.06,2.07
169.87,9.24,7.22,9.18,7.17,-7.17,-7.31,-6.19,2.07,2.01,2.02
171.57,9.10,7.14,9.14,7.18,-7.18,-7.33,-6.18,1.92,1.96,1.96
173.29,9.06,7.15,9.11,7.20,-7.20,-7.35,-6.19,1.86,1.91,1.91
175.02,9.06,7.20,9.08,7.23,-7.23,-7.36,-6.20,1.83,1.86,1.86
176.77,9.06,7.25,9.05,7.25,-7.25,-7.38,-6.21,1.81,1.81,1.81
178.54,9.06,7.30,9.01,7.26,-7.26,-7.39,-6.23,1.80,1.75,1.76
180.32,8.99,7.29,8.97,7.27,-7.27,-7.40,-6.25,1.72,1.70,1.70
182.13,8.89,7.24,8.93,7.27,-7.27,-7.41,-6.27,1.62,1.65,1.65
183.95,8.84,7.24,8.89,7.29,-7.29,-7.42,-6.31,1.55,1.60,1.60
185.79,8.84,7.30,8.85,7.30,-7.30,-7.43,-6.34,1.54,1.55,1.54
187.65,8.84,7.34,8.82,7.32,-7.32,-7.44,-6.38,1.52,1.50,1.50
189.52,8.84,7.39,8.78,7.33,-7.33,-7.44,-6.43,1.51,1.45,1.45
191.42,8.78,7.37,8.75,7.35,-7.35,-7.45,-6.48,1.43,1.40,1.41
193.33,8.66,7.30,8.72,7.36,-7.36,-7.45,-6.53,1.30,1.36,1.36
195.27,8.61,7.30,8.67,7.36,-7.36,-7.45,-6.59,1.25,1.31,1.31
197.22,8.61,7.35,8.63,7.36,-7.36,-7.45,-6.65,1.25,1.27,1.26
199.19,8.61,7.38,8.58,7.35,-7.35,-7.44,-6.71,1.26,1.23,1.23
201.18,8.61,7.43,8.54,7.35,-7.35,-7.44,-6.78,1.26,1.19,1.18
203.19,8.56,7.41,8.49,7.34,-7.34,-7.43,-6.85,1.22,1.15,1.15
205.23,8.44,7.32,8.45,7.34,-7.34,-7.42,-6.92,1.10,1.12,1.12
207.28,8.38,7.29,8.41,7.33,-7.33,-7.41,-7.00,1.05,1.08,1.09
209.35,8.38,7.33,8.37,7.32,-7.32,-7.40,-7.07,1.06,1.05,1.05
211.44,8.38,7.37,8.32,7.31,-7.31,-7.39,-7.15,1.07,1.01,1.01
213.56,8.22,7.24,8.29,7.31,-7.31,-7.37,-7.23,0.91,0.98,0.98
215.69,8.15,7.20,8.26,7.31,-7.31,-7.36,-7.30,0.84,0.95,0.95
217.85,8.15,7.23,8.21,7.30,-7.30,-7.34,-7.38,0.85,0.91,0.92
220.03,8.15,7.27,8.17,7.28,-7.28,-7.32,-7.45,0.87,0.88,0.88
222.23,8.15,7.30,8.12,7.27,-7.27,-7.30,-7.52,0.88,0.85,0.85
224.45,8.15,7.33,8.08,7.26,-7.26,-7.27,-7.59,0.89,0.82,0.82
226.70,8.15,7.36,8.05,7.25,-7.25,-7.25,-7.66,0.90,0.79,0.79
228.96,8.00,7.24,8.01,7.24,-7.24,-7.22,-7.71,0.76,0.76,0.76
231.25,7.94,7.20,7.97,7.23,-7.23,-7.19,-7.77,0.71,0.74,0.74
233.57,7.92,7.21,7.93,7.21,-7.21,-7.17,-7.81,0.71,0.71,0.71
235.90,7.92,7.23,7.88,7.19,-7.19,-7.13,-7.85,0.73,0.69,0.69
238.26,7.81,7.16,7.83,7.17,-7.17,-7.10,-7.88,0.64,0.67,0.65
240.64,7.71,7.06,7.78,7.13,-7.13,-7.07,-7.90,0.58,0.64,0.65
243.05,7.70,7.07,7.72,7.10,-7.10,-7.03,-7.91,0.60,0.62,0.63
245.48,7.70,7.10,7.66,7.06,-7.06,-6.99,-7.91,0.64,0.60,0.60
247.93,7.70,7.12,7.60,7.01,-7.01,-6.95,-7.90,0.69,0.59,0.58
250.41,7.51,6.93,7.53,6.96,-6.96,-6.91,-7.88,0.54,0.57,0.58
252.92,7.47,6.91,7.48,6.93,-6.93,-6.87,-7.85,0.54,0.56,0.56
255.45,7.47,6.93,7.43,6.89,-6.89,-6.83,-7.81,0.58,0.54,0.54
258.00,7.33,6.81,7.37,6.85,-6.85,-6.78,-7.76,0.48,0.53,0.52
260.58,7.24,6.73,7.32,6.80,-6.80,-6.73,-7.70,0.44,0.52,0.51
263.19,7.24,6.74,7.26,6.76,-6.76,-6.69,-7.63,0.48,0.50,0.50
265.82,7.24,6.75,7.21,6.71,-6.71,-6.64,-7.55,0.53,0.50,0.49
268.48,7.19,6.70,7.16,6.67,-6.67,-6.59,-7.46,0.52,0.49,0.49
271.16,7.06,6.57,7.10,6.62,-6.62,-6.53,-7.36,0.44,0.48,0.49
273.87,7.01,6.53,7.04,6.57,-6.57,-6.48,-7.26,0.44,0.47,0.48
276.61,7.01,6.54,6.98,6.51,-6.51,-6.42,-7.15,0.50,0.47,0.47
279.38,7.01,6.56,6.92,6.45,-6.45,-6.37,-7.03,0.56,0.46,0.45
282.17,6.84,6.39,6.85,6.39,-6.39,-6.31,-6.91,0.45,0.46,0.45
284.99,6.78,6.32,6.79,6.34,-6.34,-6.25,-6.79,0.44,0.46,0.46
287.84,6.78,6.32,6.74,6.28,-6.28,-6.19,-6.67,0.50,0.46,0.46
290.72,6.71,6.26,6.68,6.22,-6.22,-6.13,-6.54,0.49,0.46,0.45
293.63,6.58,6.12,6.61,6.16,-6.16,-6.07,-6.41,0.42,0.46,0.46
296.57,6.56,6.10,6.55,6.09,-6.09,-6.00,-6.28,0.47,0.46,0.46
299.53,6.39,5.94,6.48,6.03,-6.03,-5.94,-6.15,0.36,0.46,0.45
302.53,6.33,5.86,6.42,5.97,-5.97,-5.87,-6.02,0.36,0.46,0.47
305.55,6.33,5.87,6.36,5.90,-5.90,-5.81,-5.89,0.43,0.46,0.46
308.61,6.33,5.86,6.29,5.83,-5.83,-5.74,-5.76,0.50,0.46,0.47
311.69,6.33,5.87,6.23,5.77,-5.77,-5.67,-5.63,0.56,0.46,0.46
314.81,6.19,5.72,6.17,5.70,-5.70,-5.60,-5.51,0.49,0.47,0.47
317.96,6.11,5.65,6.10,5.63,-5.63,-5.53,-5.38,0.48,0.47,0.46
321.14,6.09,5.62,6.03,5.56,-5.56,-5.46,-5.26,0.53,0.47,0.47
324.35,5.92,5.46,5.97,5.49,-5.49,-5.38,-5.14,0.43,0.47,0.46
327.59,5.87,5.38,5.91,5.43,-5.43,-5.31,-5.03,0.44,0.48,0.49
330.87,5.87,5.39,5.84,5.35,-5.35,-5.24,-4.91,0.52,0.48,0.48
334.18,5.77,5.29,5.76,5.28,-5.28,-5.16,-4.80,0.49,0.49,0.48
337.52,5.66,5.17,5.68,5.19,-5.19,-5.08,-4.70,0.47,0.49,0.49
340.90,5.64,5.14,5.60,5.10,-5.10,-5.01,-4.59,0.54,0.50,0.50
344.30,5.47,4.96,5.52,5.02,-5.02,-4.93,-4.49,0.45,0.51,0.51
347.75,5.42,4.90,5.44,4.93,-4.93,-4.85,-4.40,0.49,0.51,0.52
351.23,5.42,4.91,5.37,4.84,-4.84,-4.77,-4.30,0.58,0.52,0.51
354.74,5.32,4.78,5.29,4.76,-4.76,-4.69,-4.21,0.56,0.53,0.54
358.28,5.21,4.67,5.22,4.68,-4.68,-4.61,-4.12,0.52,0.54,0.54
361.87,5.19,4.65,5.16,4.61,-4.61,-4.53,-4.04,0.58,0.54,0.54
365.49,5.03,4.48,5.09,4.54,-4.54,-4.45,-3.96,0.49,0.55,0.55
369.14,4.97,4.41,5.02,4.46,-4.46,-4.37,-3.88,0.51,0.55,0.56
372.83,4.96,4.39,4.95,4.39,-4.39,-4.29,-3.81,0.57,0.56,0.57
376.56,4.91,4.35,4.88,4.31,-4.31,-4.21,-3.73,0.60,0.56,0.56
380.33,4.76,4.19,4.81,4.24,-4.24,-4.12,-3.66,0.52,0.57,0.57
384.13,4.73,4.15,4.75,4.18,-4.18,-4.04,-3.60,0.55,0.57,0.58
387.97,4.73,4.15,4.68,4.11,-4.11,-3.96,-3.53,0.62,0.58,0.58
391.85,4.72,4.14,4.62,4.04,-4.04,-3.87,-3.47,0.68,0.58,0.58
395.77,4.57,4.00,4.56,3.97,-3.97,-3.79,-3.41,0.60,0.59,0.57
399.73,4.51,3.93,4.51,3.92,-3.92,-3.70,-3.36,0.59,0.59,0.58
403.72,4.42,3.82,4.45,3.86,-3.86,-3.62,-3.30,0.56,0.60,0.60
407.76,4.31,3.71,4.40,3.80,-3.80,-3.53,-3.25,0.51,0.60,0.60
411.84,4.28,3.67,4.34,3.73,-3.73,-3.45,-3.20,0.55,0.61,0.61
415.96,4.28,3.66,4.29,3.67,-3.67,-3.36,-3.15,0.61,0.62,0.62
420.12,4.28,3.66,4.24,3.61,-3.61,-3.28,-3.10,0.67,0.63,0.62
424.32,4.26,3.62,4.18,3.55,-3.55,-3.19,-3.05,0.71,0.64,0.64
428.56,4.11,3.45,4.12,3.47,-3.47,-3.10,-3.01,0.64,0.65,0.66
432.85,4.05,3.38,4.07,3.41,-3.41,-3.02,-2.96,0.64,0.66,0.67
437.18,4.05,3.37,4.02,3.34,-3.34,-2.93,-2.92,0.71,0.68,0.68
441.55,4.05,3.37,3.97,3.28,-3.28,-2.84,-2.88,0.77,0.69,0.68
445.96,3.89,3.19,3.92,3.22,-3.22,-2.76,-2.83,0.67,0.70,0.70
450.42,3.82,3.11,3.87,3.16,-3.16,-2.67,-2.79,0.66,0.72,0.71
454.93,3.82,3.09,3.81,3.08,-3.08,-2.58,-2.74,0.74,0.73,0.73
459.48,3.77,3.03,3.75,3.01,-3.01,-2.50,-2.70,0.76,0.74,0.74
464.07,3.62,2.86,3.69,2.93,-2.93,-2.41,-2.66,0.69,0.76,0.76
468.71,3.59,2.81,3.62,2.85,-2.85,-2.32,-2.61,0.74,0.77,0.78
473.40,3.59,2.80,3.56,2.77,-2.77,-2.24,-2.56,0.81,0.79,0.79
478.13,3.59,2.78,3.50,2.70,-2.70,-2.15,-2.51,0.89,0.80,0.81
482.91,3.42,2.60,3.43,2.61,-2.61,-2.07,-2.46,0.81,0.82,0.82
487.74,3.37,2.54,3.36,2.52,-2.52,-1.98,-2.41,0.85,0.84,0.83
492.62,3.28,2.43,3.29,2.43,-2.43,-1.89,-2.36,0.85,0.85,0.85
497.55,3.17,2.31,3.22,2.35,-2.35,-1.81,-2.31,0.82,0.87,0.86
502.52,3.14,2.26,3.15,2.26,-2.26,-1.72,-2.25,0.88,0.89,0.88
507.55,3.14,2.23,3.07,2.16,-2.16,-1.64,-2.19,0.98,0.91,0.91
512.62,2.97,2.04,2.99,2.06,-2.06,-1.55,-2.13,0.91,0.93,0.93
517.75,2.91,1.95,2.92,1.97,-1.97,-1.47,-2.07,0.94,0.95,0.96
522.93,2.85,1.87,2.84,1.87,-1.87,-1.38,-2.01,0.98,0.98,0.98
528.16,2.71,1.71,2.76,1.76,-1.76,-1.30,-1.94,0.95,1.00,1.00
533.44,2.68,1.66,2.68,1.66,-1.66,-1.21,-1.87,1.02,1.02,1.02
