frequency,raw,error,smoothed,error_smoothed,equalization,parametric_eq,fixed_band_eq,equalized_raw,equalized_smoothed,target
20.00,4.51,-5.72,4.51,-5.72,5.70,5.48,1.63,10.21,10.21,10.23
20.20,4.55,-5.67,4.55,-5.67,5.67,5.44,1.68,10.22,10.22,10.22
20.40,4.60,-5.62,4.60,-5.62,5.63,5.40,1.73,10.23,10.22,10.22
20.61,4.64,-5.58,4.64,-5.57,5.58,5.35,1.78,10.22,10.23,10.22
20.81,4.69,-5.51,4.69,-5.52,5.54,5.31,1.84,10.23,10.23,10.20
21.02,4.74,-5.46,4.74,-5.47,5.48,5.27,1.89,10.22,10.22,10.20
21.23,4.79,-5.41,4.79,-5.41,5.43,5.23,1.95,10.22,10.22,10.20
21.44,4.84,-5.37,4.84,-5.36,5.36,5.18,2.01,10.20,10.21,10.21
21.66,4.90,-5.30,4.89,-5.31,5.30,5.14,2.07,10.20,10.19,10.20
21.87,4.95,-5.26,4.95,-5.25,5.23,5.09,2.13,10.18,10.18,10.21
22.09,5.02,-5.18,5.03,-5.18,5.15,5.04,2.19,10.17,10.18,10.20
22.31,5.12,-5.09,5.12,-5.09,5.07,5.00,2.25,10.19,10.19,10.21
22.54,5.22,-4.98,5.22,-4.98,4.99,4.95,2.32,10.20,10.21,10.20
22.76,5.32,-4.88,5.32,-4.88,4.90,4.90,2.39,10.22,10.22,10.20
22.99,5.42,-4.78,5.41,-4.79,4.82,4.85,2.46,10.24,10.23,10.20
23.22,5.47,-4.73,5.48,-4.73,4.75,4.80,2.53,10.22,10.23,10.20
23.45,5.53,-4.68,5.53,-4.68,4.68,4.75,2.60,10.21,10.21,10.21
23.69,5.58,-4.63,5.58,-4.63,4.63,4.70,2.67,10.20,10.21,10.21
23.92,5.63,-4.58,5.63,-4.58,4.57,4.64,2.75,10.20,10.21,10.21
24.16,5.69,-4.53,5.69,-4.54,4.53,4.59,2.82,10.22,10.21,10.22
24.40,5.74,-4.49,5.74,-4.49,4.48,4.54,2.90,10.22,10.22,10.23
24.65,5.79,-4.44,5.79,-4.44,4.43,4.49,2.98,10.22,10.22,10.23
24.89,5.85,-4.38,5.85,-4.38,4.38,4.43,3.06,10.23,10.23,10.23
25.14,5.90,-4.32,5.90,-4.33,4.33,4.38,3.14,10.23,10.23,10.22
25.39,5.96,-4.27,5.96,-4.27,4.27,4.32,3.22,10.23,10.23,10.23
25.65,6.02,-4.21,6.02,-4.21,4.21,4.27,3.30,10.23,10.23,10.23
25.91,6.08,-4.14,6.08,-4.15,4.15,4.21,3.37,10.23,10.23,10.22
26.16,6.14,-4.09,6.14,-4.09,4.09,4.15,3.45,10.23,10.23,10.23
26.43,6.20,-4.03,6.20,-4.03,4.02,4.09,3.53,10.22,10.22,10.23
26.69,6.26,-3.97,6.26,-3.97,3.95,4.04,3.60,10.21,10.21,10.23
26.96,6.32,-3.89,6.32,-3.90,3.89,3.98,3.68,10.21,10.21,10.21
27.23,6.38,-3.83,6.38,-3.83,3.83,3.92,3.75,10.21,10.22,10.21
27.50,6.45,-3.76,6.45,-3.76,3.79,3.86,3.81,10.24,10.24,10.21
27.77,6.51,-3.71,6.51,-3.71,3.75,3.80,3.88,10.26,10.26,10.22
28.05,6.56,-3.65,6.55,-3.66,3.70,3.74,3.94,10.26,10.25,10.21
28.33,6.56,-3.64,6.55,-3.65,3.65,3.68,3.99,10.21,10.21,10.20
28.62,6.56,-3.63,6.56,-3.64,3.59,3.62,4.05,10.15,10.15,10.19
28.90,6.56,-3.64,6.58,-3.61,3.53,3.56,4.09,10.09,10.11,10.20
29.19,6.65,-3.54,6.66,-3.53,3.46,3.50,4.13,10.11,10.12,10.19
29.48,6.78,-3.39,6.78,-3.40,3.40,3.43,4.16,10.18,10.18,10.17
29.78,6.91,-3.26,6.90,-3.27,3.33,3.37,4.19,10.24,10.23,10.17
30.08,7.01,-3.16,6.98,-3.18,3.26,3.31,4.21,10.27,10.24,10.17
30.38,7.01,-3.14,7.01,-3.14,3.19,3.24,4.22,10.20,10.20,10.15
30.68,7.01,-3.13,7.02,-3.13,3.12,3.18,4.22,10.13,10.13,10.14
30.99,7.01,-3.12,7.03,-3.10,3.05,3.12,4.22,10.06,10.08,10.13
31.30,7.08,-3.04,7.08,-3.04,2.99,3.05,4.20,10.07,10.07,10.12
31.61,7.15,-2.96,7.14,-2.97,2.93,2.99,4.18,10.08,10.08,10.11
31.93,7.22,-2.87,7.22,-2.88,2.88,2.92,4.15,10.10,10.10,10.09
32.24,7.29,-2.81,7.29,-2.80,2.82,2.86,4.12,10.11,10.12,10.10
32.57,7.36,-2.72,7.36,-2.72,2.76,2.79,4.07,10.12,10.13,10.08
32.89,7.43,-2.65,7.42,-2.67,2.71,2.73,4.02,10.14,10.12,10.08
33.22,7.45,-2.63,7.44,-2.63,2.66,2.66,3.96,10.11,10.10,10.08
33.55,7.46,-2.61,7.46,-2.62,2.61,2.60,3.89,10.06,10.07,10.07
33.89,7.47,-2.61,7.48,-2.59,2.55,2.53,3.82,10.02,10.03,10.08
34.23,7.52,-2.54,7.53,-2.54,2.50,2.46,3.74,10.02,10.02,10.06
34.57,7.60,-2.47,7.59,-2.48,2.44,2.40,3.66,10.04,10.03,10.07
34.92,7.68,-2.38,7.68,-2.39,2.38,2.33,3.57,10.06,10.06,10.06
35.27,7.76,-2.31,7.76,-2.29,2.32,2.26,3.47,10.08,10.09,10.07
35.62,7.84,-2.20,7.84,-2.21,2.26,2.19,3.38,10.09,10.10,10.04
35.97,7.91,-2.13,7.89,-2.15,2.19,2.13,3.28,10.10,10.08,10.04
36.33,7.92,-2.11,7.91,-2.11,2.12,2.06,3.17,10.04,10.03,10.03
36.70,7.92,-2.09,7.93,-2.09,2.05,1.99,3.07,9.97,9.98,10.01
37.06,7.93,-2.06,7.96,-2.04,1.99,1.92,2.96,9.92,9.95,9.99
37.43,8.02,-1.96,8.02,-1.95,1.94,1.85,2.85,9.96,9.96,9.98
37.81,8.11,-1.84,8.09,-1.86,1.89,1.78,2.74,10.00,9.98,9.95
38.19,8.15,-1.78,8.14,-1.79,1.84,1.71,2.62,9.99,9.98,9.93
38.57,8.15,-1.76,8.16,-1.75,1.78,1.64,2.51,9.93,9.94,9.91
38.95,8.15,-1.73,8.15,-1.72,1.72,1.58,2.40,9.87,9.88,9.88
39.34,8.16,-1.67,8.15,-1.68,1.66,1.51,2.28,9.82,9.81,9.83
39.74,8.17,-1.63,8.17,-1.63,1.59,1.44,2.17,9.76,9.76,9.80
40.14,8.21,-1.56,8.22,-1.55,1.51,1.37,2.06,9.72,9.73,9.77
40.54,8.29,-1.46,8.28,-1.46,1.43,1.30,1.94,9.72,9.72,9.75
40.94,8.37,-1.34,8.37,-1.35,1.35,1.23,1.83,9.72,9.72,9.71
41.35,8.44,-1.25,8.45,-1.24,1.27,1.16,1.72,9.71,9.72,9.69
41.76,8.52,-1.14,8.51,-1.15,1.19,1.09,1.61,9.71,9.70,9.66
42.18,8.57,-1.07,8.56,-1.07,1.11,1.02,1.49,9.68,9.68,9.64
42.60,8.59,-1.02,8.59,-1.01,1.04,0.95,1.38,9.63,9.63,9.61
43.03,8.61,-0.97,8.60,-0.98,0.97,0.87,1.27,9.58,9.57,9.58
43.46,8.61,-0.94,8.60,-0.95,0.90,0.80,1.17,9.51,9.51,9.55
43.90,8.61,-0.92,8.64,-0.88,0.84,0.73,1.06,9.45,9.48,9.53
44.33,8.69,-0.80,8.70,-0.80,0.78,0.66,0.95,9.47,9.48,9.49
44.78,8.79,-0.67,8.77,-0.70,0.73,0.59,0.84,9.52,9.50,9.46
45.23,8.84,-0.61,8.83,-0.61,0.66,0.52,0.74,9.50,9.49,9.45
45.68,8.84,-0.56,8.85,-0.56,0.59,0.45,0.63,9.43,9.44,9.40
46.13,8.84,-0.52,8.83,-0.53,0.51,0.38,0.53,9.35,9.35,9.36
46.60,8.84,-0.49,8.84,-0.49,0.44,0.31,0.43,9.28,9.28,9.33
47.06,8.85,-0.45,8.89,-0.41,0.36,0.24,0.32,9.21,9.25,9.30
47.53,8.96,-0.31,8.96,-0.31,0.30,0.16,0.22,9.26,9.25,9.27
48.01,9.06,-0.15,9.02,-0.20,0.23,0.09,0.12,9.29,9.26,9.21
48.49,9.06,-0.11,9.06,-0.11,0.17,0.02,0.02,9.23,9.23,9.17
48.97,9.06,-0.07,9.07,-0.06,0.09,-0.05,-0.08,9.15,9.16,9.13
49.46,9.06,-0.03,9.06,-0.03,0.02,-0.12,-0.18,9.08,9.07,9.09
49.96,9.06,0.03,9.06,0.02,-0.06,-0.19,-0.27,9.00,9.00,9.03
50.46,9.08,0.09,9.08,0.08,-0.14,-0.27,-0.37,8.94,8.94,8.99
50.96,9.11,0.15,9.13,0.18,-0.20,-0.34,-0.46,8.91,8.93,8.96
51.47,9.20,0.28,9.20,0.28,-0.27,-0.41,-0.56,8.93,8.93,8.92
51.99,9.29,0.42,9.26,0.38,-0.34,-0.48,-0.65,8.95,8.92,8.87
52.51,9.29,0.46,9.29,0.46,-0.41,-0.55,-0.75,8.88,8.88,8.83
53.03,9.29,0.49,9.30,0.51,-0.49,-0.62,-0.84,8.80,8.81,8.80
53.56,9.29,0.56,9.29,0.55,-0.57,-0.70,-0.93,8.72,8.72,8.73
54.10,9.29,0.61,9.28,0.59,-0.65,-0.77,-1.02,8.64,8.63,8.68
54.64,9.29,0.65,9.30,0.67,-0.73,-0.84,-1.10,8.56,8.58,8.64
55.18,9.33,0.75,9.36,0.78,-0.80,-0.91,-1.19,8.53,8.56,8.58
55.74,9.46,0.93,9.43,0.90,-0.88,-0.98,-1.27,8.58,8.55,8.53
56.29,9.52,1.03,9.50,1.01,-0.96,-1.05,-1.36,8.56,8.54,8.49
56.86,9.52,1.06,9.53,1.08,-1.02,-1.13,-1.44,8.49,8.50,8.46
57.42,9.52,1.12,9.53,1.12,-1.09,-1.20,-1.51,8.43,8.44,8.40
58.00,9.52,1.16,9.52,1.15,-1.14,-1.27,-1.59,8.38,8.38,8.36
58.58,9.52,1.19,9.52,1.19,-1.19,-1.34,-1.66,8.33,8.33,8.33
59.16,9.52,1.22,9.52,1.23,-1.25,-1.41,-1.74,8.27,8.27,8.30
59.76,9.52,1.27,9.51,1.26,-1.32,-1.48,-1.81,8.20,8.19,8.25
60.35,9.52,1.34,9.52,1.33,-1.39,-1.55,-1.87,8.13,8.12,8.18
60.96,9.52,1.39,9.57,1.44,-1.48,-1.63,-1.94,8.04,8.09,8.13
61.57,9.65,1.59,9.64,1.58,-1.57,-1.70,-2.00,8.08,8.07,8.06
62.18,9.75,1.76,9.71,1.71,-1.66,-1.77,-2.06,8.09,8.05,7.99
62.80,9.75,1.81,9.76,1.82,-1.76,-1.84,-2.11,7.99,8.00,7.94
63.43,9.75,1.87,9.76,1.88,-1.84,-1.91,-2.17,7.90,7.91,7.88
64.07,9.75,1.92,9.75,1.92,-1.92,-1.98,-2.22,7.83,7.83,7.83
64.71,9.75,1.97,9.75,1.98,-1.98,-2.05,-2.27,7.76,7.76,7.78
65.35,9.75,2.04,9.75,2.03,-2.04,-2.12,-2.32,7.71,7.71,7.71
66.01,9.75,2.10,9.75,2.10,-2.09,-2.19,-2.36,7.66,7.66,7.65
66.67,9.75,2.15,9.75,2.15,-2.15,-2.26,-2.41,7.59,7.59,7.60
67.33,9.75,2.22,9.74,2.21,-2.23,-2.33,-2.45,7.52,7.51,7.53
68.01,9.75,2.27,9.74,2.27,-2.32,-2.40,-2.49,7.43,7.42,7.48
68.69,9.76,2.35,9.79,2.38,-2.41,-2.48,-2.53,7.34,7.38,7.41
69.37,9.85,2.49,9.86,2.51,-2.51,-2.55,-2.57,7.34,7.35,7.36
70.07,9.98,2.69,9.93,2.64,-2.61,-2.62,-2.61,7.37,7.32,7.29
70.77,9.98,2.75,9.98,2.76,-2.71,-2.69,-2.65,7.27,7.27,7.23
71.48,9.98,2.83,9.99,2.83,-2.80,-2.75,-2.68,7.18,7.19,7.15
72.19,9.98,2.89,9.98,2.89,-2.89,-2.82,-2.72,7.09,7.09,7.09
72.91,9.98,2.95,9.98,2.96,-2.97,-2.89,-2.76,7.01,7.01,7.03
73.64,9.98,3.03,9.98,3.03,-3.03,-2.96,-2.80,6.95,6.95,6.95
74.38,9.98,3.09,9.98,3.09,-3.09,-3.03,-2.84,6.89,6.89,6.89
75.12,9.98,3.15,9.98,3.14,-3.14,-3.10,-2.88,6.84,6.84,6.83
75.87,9.98,3.18,9.98,3.19,-3.19,-3.17,-2.92,6.79,6.79,6.80
76.63,9.98,3.25,9.98,3.25,-3.25,-3.24,-2.96,6.73,6.73,6.73
77.40,9.98,3.30,9.98,3.29,-3.30,-3.31,-3.00,6.68,6.68,6.68
78.17,9.98,3.35,9.98,3.35,-3.35,-3.38,-3.05,6.63,6.63,6.63
78.95,9.98,3.39,9.98,3.40,-3.40,-3.44,-3.10,6.58,6.58,6.59
79.74,9.98,3.45,9.98,3.45,-3.44,-3.51,-3.15,6.53,6.53,6.53
80.54,9.98,3.50,9.98,3.50,-3.50,-3.58,-3.20,6.48,6.48,6.48
81.35,9.98,3.55,9.98,3.55,-3.54,-3.65,-3.25,6.44,6.44,6.43
82.16,9.98,3.59,9.98,3.60,-3.59,-3.71,-3.30,6.39,6.39,6.39
82.98,9.98,3.65,9.98,3.65,-3.64,-3.78,-3.36,6.34,6.34,6.33
83.81,9.98,3.71,9.98,3.71,-3.70,-3.85,-3.42,6.28,6.28,6.27
84.65,9.98,3.77,9.98,3.77,-3.77,-3.91,-3.49,6.21,6.21,6.21
85.50,9.98,3.84,9.98,3.83,-3.85,-3.98,-3.55,6.13,6.13,6.14
86.35,9.98,3.90,9.97,3.89,-3.94,-4.04,-3.62,6.04,6.03,6.08
87.22,9.99,3.97,10.01,3.99,-4.03,-4.11,-3.69,5.96,5.98,6.02
88.09,10.04,4.09,10.07,4.12,-4.13,-4.18,-3.77,5.91,5.94,5.95
88.97,10.19,4.30,10.14,4.25,-4.23,-4.24,-3.84,5.96,5.91,5.89
89.86,10.20,4.38,10.19,4.37,-4.32,-4.31,-3.92,5.88,5.87,5.82
90.76,10.20,4.45,10.21,4.46,-4.41,-4.37,-4.01,5.79,5.80,5.75
91.66,10.20,4.51,10.20,4.51,-4.50,-4.43,-4.09,5.69,5.70,5.69
92.58,10.20,4.57,10.20,4.57,-4.59,-4.50,-4.18,5.61,5.61,5.63
93.51,10.20,4.64,10.20,4.63,-4.67,-4.56,-4.27,5.53,5.53,5.56
94.44,10.20,4.70,10.20,4.71,-4.74,-4.62,-4.37,5.46,5.46,5.50
95.39,10.20,4.78,10.20,4.78,-4.79,-4.69,-4.46,5.41,5.41,5.42
96.34,10.20,4.86,10.20,4.86,-4.84,-4.75,-4.56,5.36,5.36,5.34
97.30,10.20,4.92,10.21,4.94,-4.89,-4.81,-4.67,5.31,5.33,5.28
98.28,10.20,5.01,10.17,4.98,-4.93,-4.87,-4.77,5.27,5.24,5.19
99.26,10.14,5.02,10.11,4.98,-4.97,-4.93,-4.88,5.17,5.14,5.12
100.25,9.98,4.92,10.04,4.98,-5.00,-4.99,-4.98,4.98,5.03,5.06
101.25,9.98,4.98,9.98,4.99,-5.04,-5.05,-5.09,4.94,4.95,5.00
102.27,9.98,5.05,9.96,5.03,-5.07,-5.11,-5.20,4.91,4.89,4.93
103.29,9.98,5.11,9.98,5.11,-5.11,-5.17,-5.32,4.87,4.87,4.87
104.32,9.98,5.16,9.98,5.16,-5.15,-5.23,-5.43,4.83,4.83,4.82
105.37,9.98,5.22,9.98,5.22,-5.21,-5.29,-5.54,4.77,4.77,4.76
106.42,9.98,5.28,9.98,5.28,-5.27,-5.35,-5.66,4.71,4.71,4.70
107.48,9.98,5.35,9.98,5.34,-5.33,-5.40,-5.77,4.65,4.65,4.63
108.56,9.98,5.39,9.98,5.40,-5.39,-5.46,-5.88,4.59,4.59,4.59
109.64,9.98,5.45,9.98,5.45,-5.45,-5.52,-5.99,4.53,4.53,4.53
110.74,9.98,5.51,9.98,5.51,-5.51,-5.57,-6.09,4.47,4.47,4.47
111.85,9.98,5.57,9.98,5.56,-5.57,-5.63,-6.20,4.41,4.41,4.41
112.97,9.98,5.62,9.98,5.62,-5.63,-5.68,-6.30,4.35,4.35,4.36
114.10,9.98,5.68,9.98,5.68,-5.69,-5.74,-6.39,4.29,4.29,4.30
115.24,9.98,5.75,9.98,5.75,-5.75,-5.79,-6.49,4.23,4.23,4.23
116.39,9.98,5.82,9.98,5.81,-5.81,-5.84,-6.57,4.17,4.17,4.16
117.55,9.98,5.88,9.98,5.88,-5.88,-5.90,-6.65,4.10,4.10,4.10
118.73,9.98,5.95,9.98,5.95,-5.95,-5.95,-6.72,4.03,4.03,4.03
119.92,9.98,6.02,9.98,6.01,-6.02,-6.00,-6.79,3.96,3.96,3.96
121.12,9.98,6.07,9.98,6.08,-6.09,-6.05,-6.85,3.89,3.89,3.91
122.33,9.98,6.15,9.98,6.14,-6.15,-6.10,-6.90,3.83,3.83,3.83
123.55,9.98,6.20,9.99,6.21,-6.19,-6.15,-6.94,3.79,3.79,3.78
124.79,9.98,6.27,9.98,6.28,-6.23,-6.20,-6.98,3.74,3.75,3.71
126.03,9.98,6.34,9.95,6.31,-6.27,-6.24,-7.01,3.71,3.68,3.64
127.29,9.90,6.33,9.89,6.32,-6.31,-6.29,-7.02,3.59,3.58,3.57
128.57,9.80,6.29,9.82,6.32,-6.34,-6.34,-7.03,3.46,3.48,3.51
129.85,9.75,6.32,9.76,6.33,-6.37,-6.38,-7.04,3.38,3.39,3.43
131.15,9.75,6.38,9.74,6.37,-6.41,-6.43,-7.03,3.34,3.33,3.37
132.46,9.75,6.45,9.74,6.45,-6.45,-6.47,-7.02,3.30,3.29,3.30
133.79,9.75,6.51,9.75,6.51,-6.50,-6.51,-7.00,3.24,3.24,3.24
135.12,9.75,6.58,9.75,6.57,-6.57,-6.56,-6.98,3.18,3.18,3.17
136.48,9.75,6.62,9.75,6.63,-6.63,-6.60,-6.95,3.12,3.12,3.13
137.84,9.75,6.68,9.75,6.68,-6.69,-6.64,-6.92,3.06,3.06,3.07
139.22,9.75,6.75,9.75,6.74,-6.74,-6.68,-6.88,3.01,3.01,3.00
140.61,9.75,6.80,9.77,6.82,-6.77,-6.71,-6.84,2.98,3.00,2.95
142.02,9.75,6.85,9.74,6.84,-6.79,-6.75,-6.79,2.96,2.95,2.90
143.44,9.74,6.90,9.68,6.83,-6.81,-6.79,-6.75,2.93,2.87,2.84
144.87,9.56,6.76,9.61,6.81,-6.83,-6.82,-6.70,2.73,2.78,2.80
146.32,9.53,6.78,9.54,6.80,-6.85,-6.86,-6.66,2.68,2.69,2.75
147.78,9.52,6.83,9.51,6.81,-6.87,-6.89,-6.61,2.65,2.63,2.69
149.26,9.52,6.87,9.52,6.87,-6.90,-6.93,-6.56,2.62,2.62,2.65
150.75,9.52,6.93,9.52,6.92,-6.92,-6.96,-6.52,2.60,2.60,2.59
152.26,9.52,6.96,9.52,6.97,-6.95,-6.99,-6.47,2.57,2.57,2.56
153.78,9.52,7.02,9.53,7.03,-6.97,-7.02,-6.43,2.55,2.56,2.50
155.32,9.52,7.06,9.51,7.05,-7.00,-7.05,-6.39,2.52,2.51,2.46
156.88,9.50,7.09,9.45,7.04,-7.02,-7.07,-6.36,2.48,2.43,2.41
158.44,9.35,6.99,9.38,7.02,-7.04,-7.10,-6.32,2.31,2.34,2.36
160.03,9.29,6.98,9.31,7.01,-7.06,-7.13,-6.29,2.23,2.25,2.31
161.63,9.29,7.03,9.28,7.02,-7.08,-7.15,-6.26,2.21,2.19,2.26
163.24,9.29,7.09,9.28,7.08,-7.10,-7.17,-6.24,2.19,2.18,2.20
164.88,9.29,7.13,9.29,7.14,-7.11,-7.20,-6.22,2.18,2.18,2.16
166.53,9.29,7.19,9.30,7.19,-7.13,-7.22,-6.21,2.16,2.17,2.10
168.19,9.29,7.22,9.27,7.21,-7.16,-7.24,-6.20,2.13,2.11,2.07
169.87,9.24,7.22,9.21,7.19,-7.18,-7.25,-6.19,2.06,2.02,2.02
171.57,9.10,7.14,9.13,7.17,-7.20,-7.27,-6.19,1.90,1.93,1.96
173.29,9.06,7.15,9.07,7.16,-7.22,-7.29,-6.19,1.84,1.86,1.91
175.02,9.06,7.20,9.05,7.19,-7.22,-7.30,-6.20,1.84,1.83,1.86
176.77,9.06,7.25,9.06,7.25,-7.23,-7.31,-6.21,1.83,1.84,1.81
178.54,9.06,7.30,9.04,7.28,-7.24,-7.33,-6.23,1.82,1.80,1.76
180.32,8.99,7.29,8.98,7.27,-7.26,-7.34,-6.25,1.73,1.72,1.70
182.13,8.89,7.24,8.91,7.26,-7.28,-7.35,-6.28,1.61,1.63,1.65
183.95,8.84,7.24,8.85,7.26,-7.30,-7.35,-6.31,1.54,1.56,1.60
185.79,8.84,7.30,8.84,7.29,-7.31,-7.36,-6.35,1.53,1.53,1.54
187.65,8.84,7.34,8.84,7.35,-7.31,-7.37,-6.39,1.53,1.53,1.50
189.52,8.84,7.39,8.82,7.37,-7.32,-7.37,-6.43,1.52,1.50,1.45
191.42,8.78,7.37,8.76,7.35,-7.34,-7.37,-6.48,1.44,1.42,1.41
193.33,8.66,7.30,8.69,7.33,-7.35,-7.37,-6.54,1.31,1.33,1.36
195.27,8.61,7.30,8.63,7.31,-7.36,-7.37,-6.59,1.25,1.26,1.31
197.22,8.61,7.35,8.61,7.34,-7.37,-7.37,-6.65,1.24,1.24,1.26
199.19,8.61,7.38,8.61,7.39,-7.37,-7.37,-6.72,1.24,1.25,1.23
201.18,8.61,7.43,8.59,7.41,-7.36,-7.36,-6.79,1.25,1.23,1.18
203.19,8.56,7.41,8.53,7.38,-7.36,-7.36,-6.86,1.20,1.17,1.15
205.23,8.44,7.32,8.46,7.34,-7.35,-7.35,-6.93,1.09,1.11,1.12
207.28,8.38,7.29,8.42,7.33,-7.33,-7.34,-7.00,1.05,1.08,1.09
209.35,8.38,7.33,8.37,7.32,-7.31,-7.33,-7.08,1.07,1.06,1.05
211.44,8.38,7.37,8.32,7.30,-7.29,-7.32,-7.15,1.09,1.02,1.01
213.56,8.22,7.24,8.25,7.27,-7.28,-7.31,-7.23,0.94,0.97,0.98
215.69,8.15,7.20,8.18,7.23,-7.28,-7.29,-7.31,0.87,0.91,0.95
217.85,8.15,7.23,8.14,7.22,-7.28,-7.28,-7.38,0.87,0.86,0.92
220.03,8.15,7.27,8.14,7.26,-7.28,-7.26,-7.46,0.87,0.87,0.88
222.23,8.15,7.30,8.16,7.31,-7.28,-7.24,-7.53,0.87,0.89,0.85
224.45,8.15,7.33,8.15,7.33,-7.28,-7.22,-7.60,0.87,0.87,0.82
226.70,8.15,7.36,8.10,7.31,-7.27,-7.20,-7.66,0.88,0.83,0.79
228.96,8.00,7.24,8.03,7.27,-7.26,-7.18,-7.72,0.74,0.77,0.76
231.25,7.94,7.20,7.97,7.23,-7.25,-7.15,-7.77,0.69,0.72,0.74
233.57,7.92,7.21,7.92,7.21,-7.22,-7.13,-7.81,0.70,0.70,0.71
235.90,7.92,7.23,7.87,7.19,-7.19,-7.10,-7.85,0.73,0.68,0.69
238.26,7.81,7.16,7.81,7.15,-7.16,-7.07,-7.88,0.65,0.65,0.65
240.64,7.71,7.06,7.74,7.10,-7.13,-7.04,-7.90,0.58,0.62,0.65
243.05,7.70,7.07,7.71,7.09,-7.09,-7.01,-7.91,0.60,0.62,0.63
245.48,7.70,7.10,7.68,7.08,-7.06,-6.97,-7.91,0.64,0.63,0.60
247.93,7.70,7.12,7.63,7.05,-7.02,-6.94,-7.91,0.68,0.62,0.58
250.41,7.51,6.93,7.57,7.00,-6.97,-6.90,-7.89,0.53,0.60,0.58
252.92,7.47,6.91,7.49,6.94,-6.93,-6.86,-7.85,0.54,0.56,0.56
255.45,7.47,6.93,7.40,6.86,-6.89,-6.82,-7.81,0.58,0.51,0.54
258.00,7.33,6.81,7.34,6.82,-6.84,-6.78,-7.76,0.49,0.50,0.52
260.58,7.24,6.73,7.28,6.77,-6.79,-6.74,-7.70,0.45,0.49,0.51
263.19,7.24,6.74,7.24,6.74,-6.74,-6.70,-7.63,0.50,0.50,0.50
265.82,7.24,6.75,7.21,6.72,-6.70,-6.65,-7.55,0.54,0.51,0.49
268.48,7.19,6.70,7.16,6.67,-6.66,-6.61,-7.46,0.53,0.50,0.49
271.16,7.06,6.57,7.09,6.60,-6.62,-6.56,-7.36,0.44,0.47,0.49
273.87,7.01,6.53,7.04,6.56,-6.57,-6.51,-7.26,0.44,0.47,0.48
276.61,7.01,6.54,7.00,6.53,-6.53,-6.46,-7.15,0.48,0.47,0.47
279.38,7.01,6.56,6.94,6.49,-6.48,-6.41,-7.04,0.53,0.47,0.45
282.17,6.84,6.39,6.88,6.43,-6.42,-6.36,-6.92,0.42,0.46,0.45
284.99,6.78,6.32,6.82,6.36,-6.35,-6.31,-6.80,0.43,0.46,0.46
287.84,6.78,6.32,6.74,6.28,-6.28,-6.25,-6.67,0.50,0.46,0.46
290.72,6.71,6.26,6.70,6.24,-6.21,-6.19,-6.54,0.50,0.49,0.45
293.63,6.58,6.12,6.62,6.16,-6.14,-6.14,-6.41,0.44,0.48,0.46
296.57,6.56,6.10,6.51,6.05,-6.07,-6.08,-6.28,0.49,0.44,0.46
299.53,6.39,5.94,6.41,5.95,-6.01,-6.02,-6.15,0.38,0.41,0.45
302.53,6.33,5.86,6.36,5.89,-5.95,-5.96,-6.02,0.38,0.41,0.47
305.55,6.33,5.87,6.33,5.87,-5.89,-5.90,-5.89,0.44,0.44,0.46
308.61,6.33,5.86,6.32,5.86,-5.83,-5.83,-5.76,0.50,0.49,0.47
311.69,6.33,5.87,6.28,5.82,-5.77,-5.77,-5.63,0.56,0.51,0.46
314.81,6.19,5.72,6.22,5.76,-5.71,-5.70,-5.51,0.48,0.51,0.47
317.96,6.11,5.65,6.13,5.67,-5.66,-5.64,-5.39,0.45,0.48,0.46
321.14,6.09,5.62,6.03,5.56,-5.59,-5.57,-5.27,0.50,0.44,0.47
324.35,5.92,5.46,5.96,5.49,-5.52,-5.50,-5.15,0.40,0.45,0.46
327.59,5.87,5.38,5.90,5.42,-5.43,-5.43,-5.03,0.44,0.47,0.49
330.87,5.87,5.39,5.82,5.34,-5.34,-5.36,-4.92,0.53,0.48,0.48
334.18,5.77,5.29,5.78,5.29,-5.26,-5.29,-4.81,0.51,0.52,0.48
337.52,5.66,5.17,5.69,5.20,-5.18,-5.22,-4.70,0.48,0.51,0.49
340.90,5.64,5.14,5.58,5.08,-5.10,-5.14,-4.60,0.54,0.48,0.50
344.30,5.47,4.96,5.51,5.00,-5.02,-5.07,-4.50,0.45,0.49,0.51
347.75,5.42,4.90,5.45,4.93,-4.94,-4.99,-4.40,0.48,0.51,0.52
351.23,5.42,4.91,5.37,4.84,-4.85,-4.92,-4.31,0.57,0.52,0.51
354.74,5.32,4.78,5.33,4.79,-4.77,-4.84,-4.22,0.55,0.56,0.54
358.28,5.21,4.67,5.24,4.70,-4.68,-4.76,-4.13,0.53,0.56,0.54
361.87,5.19,4.65,5.14,4.59,-4.60,-4.69,-4.04,0.59,0.54,0.54
365.49,5.03,4.48,5.06,4.51,-4.52,-4.61,-3.96,0.51,0.54,0.55
369.14,4.97,4.41,5.00,4.45,-4.45,-4.53,-3.88,0.52,0.56,0.56
372.83,4.96,4.39,4.93,4.37,-4.38,-4.45,-3.81,0.58,0.55,0.57
376.56,4.91,4.35,4.87,4.30,-4.31,-4.37,-3.74,0.60,0.56,0.56
380.33,4.76,4.19,4.80,4.23,-4.25,-4.28,-3.67,0.51,0.55,0.57
384.13,4.73,4.15,4.76,4.18,-4.19,-4.20,-3.60,0.54,0.57,0.58
387.97,4.73,4.15,4.71,4.13,-4.12,-4.12,-3.54,0.61,0.59,0.58
391.85,4.72,4.14,4.68,4.10,-4.05,-4.03,-3.48,0.67,0.63,0.58
395.77,4.57,4.00,4.61,4.03,-3.98,-3.95,-3.42,0.59,0.63,0.57
399.73,4.51,3.93,4.50,3.92,-3.92,-3.87,-3.36,0.59,0.59,0.58
403.72,4.42,3.82,4.40,3.81,-3.85,-3.78,-3.30,0.57,0.55,0.60
407.76,4.31,3.71,4.33,3.73,-3.79,-3.69,-3.25,0.52,0.55,0.60
411.84,4.28,3.67,4.29,3.68,-3.72,-3.61,-3.20,0.56,0.57,0.61
415.96,4.28,3.66,4.28,3.67,-3.66,-3.52,-3.15,0.62,0.63,0.62
420.12,4.28,3.66,4.27,3.64,-3.60,-3.43,-3.10,0.68,0.67,0.62
424.32,4.26,3.62,4.21,3.57,-3.54,-3.35,-3.06,0.72,0.67,0.64
428.56,4.11,3.45,4.14,3.48,-3.49,-3.26,-3.01,0.62,0.65,0.66
432.85,4.05,3.38,4.09,3.42,-3.43,-3.17,-2.97,0.62,0.66,0.67
437.18,4.05,3.37,4.04,3.36,-3.37,-3.08,-2.92,0.68,0.67,0.68
441.55,4.05,3.37,3.99,3.30,-3.29,-2.99,-2.88,0.76,0.69,0.68
445.96,3.89,3.19,3.92,3.23,-3.21,-2.90,-2.84,0.68,0.71,0.70
450.42,3.82,3.11,3.86,3.15,-3.14,-2.82,-2.79,0.68,0.72,0.71
454.93,3.82,3.09,3.79,3.06,-3.07,-2.73,-2.75,0.75,0.72,0.73
459.48,3.77,3.03,3.73,2.98,-3.00,-2.64,-2.70,0.77,0.73,0.74
464.07,3.62,2.86,3.66,2.90,-2.93,-2.55,-2.66,0.69,0.73,0.76
468.71,3.59,2.81,3.62,2.84,-2.85,-2.46,-2.61,0.74,0.77,0.78
473.40,3.59,2.80,3.57,2.78,-2.77,-2.37,-2.57,0.82,0.80,0.79
478.13,3.59,2.78,3.54,2.73,-2.69,-2.28,-2.52,0.90,0.84,0.81
482.91,3.42,2.60,3.47,2.65,-2.62,-2.19,-2.47,0.80,0.85,0.82
487.74,3.37,2.54,3.36,2.53,-2.54,-2.10,-2.42,0.83,0.83,0.83
492.62,3.28,2.43,3.26,2.41,-2.45,-2.01,-2.37,0.83,0.81,0.85
497.55,3.17,2.31,3.21,2.35,-2.35,-1.92,-2.31,0.82,0.86,0.86
502.52,3.14,2.26,3.14,2.26,-2.26,-1.83,-2.25,0.88,0.89,0.88
507.55,3.14,2.23,3.08,2.17,-2.15,-1.74,-2.20,0.98,0.92,0.91
512.62,2.97,2.04,3.01,2.08,-2.06,-1.65,-2.14,0.91,0.96,0.93
517.75,2.91,1.95,2.91,1.96,-1.96,-1.56,-2.07,0.95,0.95,0.96
522.93,2.85,1.87,2.81,1.83,-1.87,-1.47,-2.01,0.98,0.94,0.98
528.16,2.71,1.71,2.76,1.76,-1.77,-1.38,-1.94,0.94,0.99,1.00
533.44,2.68,1.66,2.69,1.67,-1.66,-1.29,-1.88,1.01,1.02,1.02
