frequency,raw,error,smoothed,error_smoothed,equalization,parametric_eq,fixed_band_eq,equalized_raw,equalized_smoothed,target
20.00,-3.35,-8.35,-3.33,-8.36,8.36,8.08,2.76,5.01,5.02,4.99
20.20,-3.26,-8.31,-3.25,-8.32,8.32,8.03,2.84,5.05,5.06,5.04
20.40,-3.17,-8.26,-3.17,-8.27,8.27,7.98,2.92,5.10,5.10,5.09
20.61,-3.08,-8.21,-3.09,-8.22,8.22,7.93,3.00,5.14,5.13,5.12
20.81,-2.99,-8.16,-3.02,-8.17,8.17,7.87,3.09,5.18,5.16,5.17
21.02,-2.90,-8.11,-2.94,-8.12,8.12,7.82,3.18,5.22,5.18,5.21
21.23,-2.84,-8.07,-2.86,-8.07,8.07,7.76,3.27,5.23,5.21,5.23
21.44,-2.78,-8.03,-2.78,-8.01,8.01,7.70,3.37,5.23,5.23,5.25
21.66,-2.72,-7.99,-2.70,-7.96,7.96,7.64,3.46,5.23,5.25,5.27
21.87,-2.66,-7.94,-2.63,-7.90,7.90,7.57,3.56,5.24,5.27,5.28
22.09,-2.59,-7.89,-2.55,-7.84,7.84,7.51,3.67,5.24,5.29,5.30
22.31,-2.50,-7.81,-2.47,-7.77,7.77,7.44,3.77,5.27,5.30,5.31
22.54,-2.41,-7.72,-2.40,-7.70,7.70,7.37,3.88,5.29,5.30,5.31
22.76,-2.32,-7.63,-2.32,-7.63,7.63,7.30,3.99,5.31,5.31,5.31
22.99,-2.23,-7.53,-2.25,-7.56,7.56,7.24,4.10,5.32,5.31,5.30
23.22,-2.16,-7.46,-2.17,-7.48,7.48,7.17,4.22,5.32,5.31,5.30
23.45,-2.08,-7.38,-2.10,-7.41,7.41,7.10,4.34,5.33,5.31,5.29
23.69,-2.01,-7.32,-2.02,-7.33,7.33,7.02,4.46,5.32,5.31,5.30
23.92,-1.93,-7.23,-1.95,-7.26,7.26,6.95,4.58,5.33,5.31,5.30
24.16,-1.87,-7.18,-1.88,-7.19,7.19,6.88,4.70,5.32,5.31,5.31
24.40,-1.81,-7.13,-1.81,-7.12,7.12,6.81,4.83,5.31,5.31,5.32
24.65,-1.75,-7.06,-1.75,-7.06,7.06,6.74,4.96,5.30,5.31,5.31
24.89,-1.69,-7.00,-1.69,-7.00,7.00,6.67,5.09,5.31,5.31,5.31
25.14,-1.63,-6.94,-1.63,-6.94,6.94,6.60,5.22,5.31,5.31,5.31
25.39,-1.57,-6.89,-1.57,-6.89,6.89,6.53,5.36,5.32,5.31,5.32
25.65,-1.52,-6.84,-1.52,-6.83,6.83,6.46,5.49,5.31,5.31,5.32
25.91,-1.46,-6.77,-1.47,-6.78,6.78,6.39,5.63,5.32,5.31,5.31
26.16,-1.41,-6.71,-1.42,-6.73,6.73,6.32,5.76,5.32,5.31,5.30
26.43,-1.35,-6.66,-1.36,-6.67,6.67,6.25,5.89,5.32,5.31,5.30
26.69,-1.30,-6.60,-1.30,-6.61,6.61,6.19,6.03,5.31,5.31,5.30
26.96,-1.25,-6.56,-1.24,-6.55,6.55,6.12,6.16,5.29,5.30,5.31
27.23,-1.20,-6.51,-1.18,-6.48,6.48,6.05,6.29,5.28,5.30,5.31
27.50,-1.14,-6.45,-1.12,-6.42,6.42,5.99,6.41,5.28,5.30,5.31
27.77,-1.09,-6.39,-1.06,-6.36,6.36,5.93,6.53,5.26,5.30,5.30
28.05,-1.03,-6.33,-1.00,-6.29,6.29,5.86,6.65,5.26,5.30,5.29
28.33,-0.95,-6.23,-0.93,-6.23,6.23,5.80,6.76,5.28,5.29,5.28
28.62,-0.86,-6.14,-0.87,-6.17,6.17,5.74,6.86,5.30,5.29,5.28
28.90,-0.77,-6.06,-0.81,-6.10,6.10,5.68,6.96,5.33,5.29,5.29
29.19,-0.71,-5.99,-0.75,-6.04,6.04,5.62,7.05,5.33,5.29,5.28
29.48,-0.66,-5.96,-0.69,-5.97,5.97,5.57,7.13,5.31,5.29,5.30
29.78,-0.62,-5.91,-0.63,-5.91,5.91,5.51,7.20,5.29,5.28,5.28
30.08,-0.57,-5.86,-0.57,-5.85,5.85,5.45,7.26,5.28,5.28,5.29
30.38,-0.53,-5.81,-0.52,-5.80,5.80,5.40,7.31,5.27,5.28,5.28
30.68,-0.49,-5.77,-0.47,-5.75,5.75,5.35,7.35,5.26,5.28,5.28
30.99,-0.45,-5.73,-0.43,-5.70,5.70,5.30,7.37,5.25,5.28,5.28
31.30,-0.39,-5.67,-0.39,-5.66,5.66,5.25,7.39,5.27,5.27,5.27
31.61,-0.33,-5.60,-0.35,-5.62,5.62,5.20,7.39,5.29,5.27,5.27
31.93,-0.27,-5.54,-0.32,-5.58,5.58,5.15,7.38,5.31,5.27,5.27
32.24,-0.25,-5.51,-0.28,-5.54,5.54,5.10,7.36,5.29,5.26,5.26
32.57,-0.24,-5.50,-0.24,-5.50,5.50,5.06,7.33,5.26,5.26,5.26
32.89,-0.22,-5.48,-0.20,-5.45,5.45,5.01,7.29,5.23,5.25,5.26
33.22,-0.19,-5.44,-0.16,-5.40,5.40,4.97,7.23,5.21,5.25,5.25
33.55,-0.14,-5.38,-0.12,-5.36,5.36,4.93,7.17,5.22,5.24,5.24
33.89,-0.09,-5.32,-0.08,-5.31,5.31,4.89,7.10,5.22,5.24,5.23
34.23,-0.05,-5.29,-0.04,-5.27,5.27,4.85,7.03,5.22,5.23,5.24
34.57,-0.01,-5.23,0.00,-5.22,5.22,4.81,6.94,5.21,5.23,5.22
34.92,0.02,-5.20,0.04,-5.18,5.18,4.77,6.85,5.20,5.22,5.22
35.27,0.08,-5.14,0.08,-5.14,5.14,4.74,6.76,5.22,5.22,5.22
35.62,0.15,-5.06,0.11,-5.10,5.10,4.70,6.66,5.25,5.21,5.21
35.97,0.22,-4.99,0.15,-5.06,5.06,4.67,6.56,5.28,5.21,5.21
36.33,0.22,-4.99,0.19,-5.02,5.02,4.64,6.45,5.24,5.21,5.21
36.70,0.22,-4.98,0.22,-4.99,4.99,4.60,6.34,5.21,5.21,5.20
37.06,0.23,-4.97,0.24,-4.96,4.96,4.57,6.23,5.19,5.21,5.19
37.43,0.26,-4.95,0.26,-4.94,4.94,4.54,6.12,5.20,5.20,5.21
37.81,0.30,-4.91,0.28,-4.92,4.92,4.52,6.02,5.22,5.20,5.20
38.19,0.32,-4.88,0.30,-4.90,4.90,4.49,5.91,5.22,5.20,5.20
38.57,0.32,-4.89,0.32,-4.88,4.88,4.46,5.80,5.20,5.20,5.20
38.95,0.32,-4.89,0.35,-4.86,4.86,4.44,5.69,5.18,5.20,5.21
39.34,0.35,-4.85,0.36,-4.84,4.84,4.41,5.59,5.19,5.20,5.20
39.74,0.39,-4.81,0.39,-4.81,4.81,4.39,5.48,5.20,5.20,5.20
40.14,0.41,-4.79,0.41,-4.79,4.79,4.36,5.38,5.19,5.20,5.20
40.54,0.41,-4.79,0.44,-4.75,4.75,4.34,5.29,5.16,5.19,5.19
40.94,0.41,-4.78,0.47,-4.72,4.72,4.32,5.19,5.13,5.19,5.19
41.35,0.48,-4.70,0.50,-4.68,4.68,4.30,5.10,5.16,5.18,5.18
41.76,0.56,-4.61,0.53,-4.64,4.64,4.27,5.01,5.20,5.17,5.17
42.18,0.61,-4.57,0.56,-4.61,4.61,4.25,4.92,5.22,5.16,5.18
42.60,0.61,-4.55,0.58,-4.57,4.57,4.23,4.84,5.18,5.15,5.16
43.03,0.61,-4.54,0.61,-4.53,4.53,4.21,4.76,5.14,5.14,5.15
43.46,0.65,-4.49,0.64,-4.49,4.49,4.19,4.68,5.14,5.13,5.14
43.90,0.69,-4.42,0.66,-4.45,4.45,4.17,4.61,5.14,5.11,5.11
44.33,0.70,-4.40,0.68,-4.42,4.42,4.16,4.54,5.12,5.10,5.09
44.78,0.70,-4.38,0.70,-4.38,4.38,4.14,4.48,5.08,5.09,5.07
45.23,0.70,-4.37,0.72,-4.35,4.35,4.12,4.41,5.05,5.07,5.06
45.68,0.70,-4.35,0.72,-4.33,4.33,4.10,4.35,5.03,5.05,5.04
46.13,0.71,-4.32,0.73,-4.31,4.31,4.08,4.30,5.02,5.04,5.02
46.60,0.75,-4.27,0.74,-4.28,4.28,4.06,4.24,5.03,5.02,5.02
47.06,0.79,-4.21,0.76,-4.25,4.25,4.04,4.19,5.04,5.00,5.00
47.53,0.80,-4.19,0.77,-4.21,4.21,4.02,4.15,5.01,4.99,4.99
48.01,0.80,-4.19,0.79,-4.18,4.18,4.00,4.10,4.97,4.97,4.99
48.49,0.80,-4.17,0.81,-4.14,4.14,3.98,4.06,4.94,4.95,4.97
48.97,0.80,-4.14,0.83,-4.11,4.11,3.96,4.02,4.91,4.94,4.94
49.46,0.80,-4.12,0.85,-4.07,4.07,3.94,3.99,4.87,4.92,4.92
49.96,0.80,-4.10,0.88,-4.03,4.03,3.92,3.95,4.83,4.91,4.90
50.46,0.89,-4.00,0.90,-3.99,3.99,3.89,3.92,4.88,4.89,4.89
50.96,0.98,-3.90,0.92,-3.96,3.96,3.87,3.89,4.94,4.88,4.88
51.47,0.99,-3.86,0.94,-3.93,3.93,3.85,3.87,4.91,4.86,4.85
51.99,0.99,-3.85,0.95,-3.90,3.90,3.82,3.84,4.88,4.85,4.83
52.51,0.99,-3.84,0.97,-3.86,3.86,3.80,3.82,4.85,4.83,4.83
53.03,0.99,-3.83,0.98,-3.83,3.83,3.77,3.79,4.82,4.81,4.82
53.56,0.99,-3.82,0.99,-3.81,3.81,3.74,3.77,4.79,4.80,4.80
54.10,0.99,-3.80,1.00,-3.79,3.79,3.71,3.75,4.78,4.78,4.79
54.64,0.99,-3.78,0.99,-3.78,3.78,3.68,3.73,4.76,4.77,4.77
55.18,0.99,-3.77,0.99,-3.77,3.77,3.65,3.71,4.75,4.76,4.76
55.74,0.99,-3.75,0.99,-3.76,3.76,3.62,3.69,4.75,4.74,4.74
56.29,0.99,-3.74,0.97,-3.75,3.75,3.59,3.67,4.74,4.72,4.73
56.86,0.99,-3.72,0.97,-3.74,3.74,3.55,3.64,4.73,4.71,4.70
57.42,0.98,-3.69,0.96,-3.72,3.72,3.52,3.62,4.70,4.69,4.67
58.00,0.97,-3.69,0.96,-3.70,3.70,3.48,3.60,4.67,4.66,4.66
58.58,0.92,-3.73,0.96,-3.67,3.67,3.45,3.57,4.59,4.64,4.65
59.16,0.89,-3.73,0.96,-3.64,3.64,3.41,3.54,4.53,4.61,4.62
59.76,0.92,-3.68,0.96,-3.61,3.61,3.37,3.52,4.53,4.58,4.60
60.35,0.96,-3.59,0.96,-3.58,3.58,3.33,3.48,4.53,4.54,4.55
60.96,1.02,-3.50,0.97,-3.54,3.54,3.29,3.45,4.55,4.50,4.51
61.57,1.00,-3.47,0.97,-3.49,3.49,3.25,3.41,4.49,4.46,4.47
62.18,0.99,-3.43,0.97,-3.45,3.45,3.20,3.37,4.43,4.42,4.42
62.80,0.99,-3.38,0.98,-3.40,3.40,3.16,3.33,4.39,4.37,4.37
63.43,0.99,-3.33,0.98,-3.34,3.34,3.12,3.29,4.33,4.33,4.32
64.07,0.99,-3.28,0.99,-3.29,3.29,3.07,3.24,4.28,4.28,4.27
64.71,0.99,-3.23,0.99,-3.23,3.23,3.02,3.19,4.22,4.23,4.22
65.35,0.99,-3.18,1.00,-3.18,3.18,2.98,3.14,4.17,4.17,4.17
66.01,0.99,-3.13,1.00,-3.12,3.12,2.93,3.09,4.11,4.12,4.12
66.67,0.99,-3.08,0.99,-3.07,3.07,2.88,3.03,4.06,4.07,4.06
67.33,0.99,-3.02,0.99,-3.02,3.02,2.83,2.97,4.01,4.01,4.01
68.01,0.99,-2.97,0.99,-2.97,2.97,2.78,2.91,3.96,3.96,3.96
68.69,0.99,-2.92,0.99,-2.91,2.91,2.73,2.85,3.90,3.90,3.91
69.37,0.99,-2.86,0.99,-2.86,2.86,2.68,2.78,3.85,3.85,3.85
70.07,0.99,-2.80,0.99,-2.80,2.80,2.62,2.72,3.79,3.79,3.79
70.77,0.99,-2.75,0.99,-2.74,2.74,2.57,2.65,3.73,3.73,3.74
71.48,0.99,-2.69,0.99,-2.68,2.68,2.52,2.58,3.66,3.66,3.68
72.19,0.99,-2.62,0.99,-2.61,2.61,2.46,2.51,3.60,3.60,3.60
72.91,0.99,-2.55,0.99,-2.55,2.55,2.41,2.44,3.54,3.54,3.54
73.64,0.99,-2.49,0.99,-2.49,2.49,2.36,2.37,3.48,3.48,3.48
74.38,0.99,-2.42,0.99,-2.42,2.42,2.30,2.30,3.41,3.41,3.41
75.12,0.99,-2.36,0.99,-2.36,2.36,2.25,2.23,3.35,3.35,3.35
75.87,0.99,-2.29,0.99,-2.30,2.30,2.19,2.16,3.29,3.29,3.28
76.63,0.99,-2.23,0.99,-2.24,2.24,2.14,2.08,3.23,3.23,3.22
77.40,0.99,-2.17,0.99,-2.18,2.18,2.08,2.01,3.16,3.16,3.16
78.17,0.99,-2.10,0.99,-2.12,2.12,2.03,1.94,3.10,3.10,3.09
78.95,0.99,-2.06,0.99,-2.06,2.06,1.97,1.87,3.05,3.05,3.05
79.74,0.99,-2.00,0.99,-2.00,2.00,1.91,1.80,2.99,2.99,2.99
80.54,0.99,-1.95,0.99,-1.94,1.94,1.86,1.73,2.93,2.93,2.94
81.35,0.99,-1.88,0.99,-1.89,1.89,1.80,1.66,2.88,2.88,2.87
82.16,0.99,-1.83,0.99,-1.83,1.83,1.75,1.60,2.82,2.82,2.82
82.98,0.99,-1.78,0.99,-1.77,1.77,1.69,1.53,2.76,2.76,2.77
83.81,0.99,-1.72,0.99,-1.72,1.72,1.64,1.46,2.71,2.71,2.70
84.65,0.99,-1.66,0.98,-1.67,1.67,1.58,1.40,2.66,2.65,2.65
85.50,0.99,-1.61,0.98,-1.61,1.61,1.53,1.33,2.60,2.59,2.60
86.35,0.99,-1.55,0.98,-1.55,1.55,1.47,1.27,2.54,2.53,2.54
87.22,0.99,-1.49,0.98,-1.49,1.49,1.42,1.20,2.48,2.48,2.48
88.09,0.99,-1.43,0.99,-1.43,1.43,1.36,1.14,2.42,2.42,2.42
88.97,0.99,-1.37,0.99,-1.36,1.36,1.31,1.08,2.35,2.36,2.36
89.86,1.00,-1.30,1.00,-1.30,1.30,1.25,1.02,2.29,2.30,2.30
90.76,1.00,-1.24,1.01,-1.23,1.23,1.20,0.96,2.22,2.24,2.23
91.66,0.97,-1.21,1.02,-1.16,1.16,1.14,0.90,2.13,2.18,2.18
92.58,0.96,-1.15,1.03,-1.09,1.09,1.09,0.84,2.05,2.12,2.11
93.51,1.03,-1.03,1.04,-1.02,1.02,1.03,0.78,2.05,2.06,2.05
94.44,1.10,-0.90,1.05,-0.95,0.95,0.98,0.72,2.05,2.00,2.00
95.39,1.09,-0.85,1.05,-0.89,0.89,0.93,0.66,1.98,1.94,1.94
96.34,1.09,-0.79,1.06,-0.83,0.83,0.87,0.61,1.91,1.88,1.88
97.30,1.09,-0.73,1.06,-0.77,0.77,0.82,0.55,1.85,1.82,1.82
98.28,1.08,-0.69,1.06,-0.70,0.70,0.77,0.50,1.78,1.77,1.77
99.26,1.06,-0.65,1.06,-0.65,0.65,0.71,0.45,1.71,1.71,1.71
100.25,1.04,-0.61,1.05,-0.60,0.60,0.66,0.39,1.64,1.65,1.65
101.25,1.02,-0.58,1.04,-0.55,0.55,0.61,0.34,1.57,1.59,1.59
102.27,1.01,-0.53,1.02,-0.51,0.51,0.56,0.29,1.52,1.53,1.54
103.29,1.00,-0.47,0.99,-0.48,0.48,0.50,0.24,1.48,1.48,1.47
104.32,0.98,-0.44,0.96,-0.46,0.46,0.45,0.19,1.44,1.42,1.42
105.37,0.96,-0.40,0.92,-0.43,0.43,0.40,0.14,1.39,1.36,1.36
106.42,0.93,-0.38,0.89,-0.40,0.40,0.35,0.09,1.33,1.29,1.31
107.48,0.91,-0.33,0.86,-0.37,0.37,0.30,0.04,1.28,1.23,1.24
108.56,0.88,-0.29,0.84,-0.34,0.34,0.25,-0.00,1.21,1.17,1.17
109.64,0.79,-0.32,0.81,-0.30,0.30,0.19,-0.05,1.08,1.11,1.11
110.74,0.72,-0.33,0.80,-0.25,0.25,0.14,-0.09,0.97,1.05,1.05
111.85,0.73,-0.27,0.78,-0.21,0.21,0.09,-0.14,0.93,0.99,1.00
112.97,0.71,-0.21,0.77,-0.16,0.16,0.04,-0.18,0.87,0.93,0.92
114.10,0.68,-0.19,0.76,-0.11,0.11,-0.01,-0.22,0.78,0.87,0.86
115.24,0.74,-0.07,0.76,-0.05,0.05,-0.06,-0.26,0.79,0.81,0.81
116.39,0.79,0.05,0.76,0.00,-0.00,-0.11,-0.30,0.78,0.76,0.74
117.55,0.81,0.11,0.77,0.07,-0.07,-0.16,-0.34,0.74,0.70,0.70
118.73,0.82,0.18,0.78,0.13,-0.13,-0.21,-0.37,0.69,0.65,0.64
119.92,0.83,0.22,0.80,0.20,-0.20,-0.26,-0.41,0.63,0.61,0.61
121.12,0.83,0.27,0.82,0.26,-0.26,-0.31,-0.44,0.57,0.56,0.55
122.33,0.84,0.33,0.84,0.32,-0.32,-0.36,-0.47,0.52,0.51,0.51
123.55,0.85,0.37,0.85,0.38,-0.38,-0.41,-0.51,0.47,0.47,0.48
124.79,0.86,0.42,0.86,0.43,-0.43,-0.46,-0.53,0.43,0.43,0.44
126.03,0.86,0.46,0.86,0.47,-0.47,-0.51,-0.56,0.39,0.39,0.39
127.29,0.87,0.50,0.86,0.51,-0.51,-0.56,-0.59,0.36,0.35,0.36
128.57,0.88,0.56,0.85,0.54,-0.54,-0.61,-0.62,0.34,0.31,0.31
129.85,0.90,0.62,0.85,0.57,-0.57,-0.65,-0.64,0.33,0.28,0.27
131.15,0.86,0.62,0.84,0.61,-0.61,-0.70,-0.66,0.25,0.24,0.24
132.46,0.82,0.62,0.84,0.64,-0.64,-0.75,-0.68,0.18,0.20,0.20
133.79,0.80,0.64,0.83,0.67,-0.67,-0.80,-0.71,0.13,0.16,0.16
135.12,0.80,0.68,0.83,0.70,-0.70,-0.85,-0.73,0.10,0.13,0.12
136.48,0.81,0.72,0.83,0.73,-0.73,-0.89,-0.75,0.07,0.09,0.09
137.84,0.81,0.76,0.82,0.77,-0.77,-0.94,-0.76,0.04,0.05,0.05
139.22,0.81,0.80,0.82,0.80,-0.80,-0.99,-0.78,0.01,0.02,0.00
140.61,0.81,0.85,0.81,0.83,-0.83,-1.03,-0.80,-0.03,-0.02,-0.04
142.02,0.81,0.87,0.81,0.87,-0.87,-1.08,-0.82,-0.06,-0.06,-0.06
143.44,0.81,0.91,0.80,0.90,-0.90,-1.13,-0.83,-0.09,-0.10,-0.10
144.87,0.81,0.96,0.80,0.95,-0.95,-1.17,-0.85,-0.14,-0.15,-0.15
146.32,0.81,1.01,0.80,1.00,-1.00,-1.22,-0.87,-0.19,-0.20,-0.20
147.78,0.81,1.04,0.79,1.05,-1.05,-1.26,-0.88,-0.25,-0.26,-0.23
149.26,0.81,1.10,0.79,1.11,-1.11,-1.31,-0.90,-0.30,-0.32,-0.29
150.75,0.81,1.17,0.77,1.16,-1.16,-1.35,-0.92,-0.35,-0.39,-0.37
152.26,0.74,1.18,0.76,1.22,-1.22,-1.39,-0.94,-0.48,-0.46,-0.44
153.78,0.70,1.21,0.75,1.28,-1.28,-1.44,-0.95,-0.58,-0.53,-0.51
155.32,0.71,1.31,0.73,1.34,-1.34,-1.48,-0.97,-0.63,-0.61,-0.60
156.88,0.72,1.40,0.71,1.40,-1.40,-1.52,-0.99,-0.68,-0.69,-0.68
158.44,0.73,1.50,0.69,1.46,-1.46,-1.56,-1.01,-0.73,-0.76,-0.77
160.03,0.74,1.60,0.68,1.52,-1.52,-1.60,-1.03,-0.78,-0.84,-0.86
161.63,0.66,1.60,0.66,1.57,-1.57,-1.64,-1.05,-0.91,-0.91,-0.94
163.24,0.63,1.63,0.65,1.63,-1.63,-1.68,-1.07,-1.00,-0.98,-1.00
164.88,0.62,1.68,0.64,1.68,-1.68,-1.71,-1.10,-1.06,-1.04,-1.06
166.53,0.61,1.72,0.63,1.73,-1.73,-1.75,-1.12,-1.12,-1.10,-1.12
168.19,0.61,1.77,0.63,1.77,-1.77,-1.78,-1.14,-1.16,-1.14,-1.16
169.87,0.60,1.80,0.63,1.81,-1.81,-1.82,-1.17,-1.22,-1.18,-1.21
171.57,0.59,1.82,0.63,1.85,-1.85,-1.85,-1.20,-1.26,-1.21,-1.23
173.29,0.64,1.89,0.63,1.87,-1.87,-1.88,-1.22,-1.23,-1.24,-1.25
175.02,0.68,1.94,0.63,1.89,-1.89,-1.91,-1.25,-1.22,-1.26,-1.26
176.77,0.67,1.95,0.64,1.92,-1.92,-1.94,-1.28,-1.25,-1.28,-1.28
178.54,0.67,1.96,0.65,1.94,-1.94,-1.97,-1.31,-1.27,-1.29,-1.29
180.32,0.68,1.97,0.67,1.97,-1.97,-2.00,-1.34,-1.29,-1.30,-1.29
182.13,0.68,1.97,0.68,1.99,-1.99,-2.02,-1.38,-1.32,-1.31,-1.29
183.95,0.69,1.99,0.70,2.02,-2.02,-2.05,-1.41,-1.33,-1.32,-1.30
185.79,0.70,2.01,0.72,2.05,-2.05,-2.07,-1.45,-1.35,-1.33,-1.31
187.65,0.72,2.05,0.73,2.08,-2.08,-2.09,-1.48,-1.36,-1.35,-1.34
189.52,0.73,2.08,0.74,2.10,-2.10,-2.11,-1.52,-1.38,-1.36,-1.35
191.42,0.74,2.11,0.75,2.13,-2.13,-2.13,-1.56,-1.39,-1.38,-1.37
193.33,0.76,2.16,0.76,2.15,-2.15,-2.15,-1.60,-1.39,-1.40,-1.40
195.27,0.78,2.20,0.76,2.18,-2.18,-2.16,-1.64,-1.40,-1.42,-1.42
197.22,0.79,2.23,0.77,2.21,-2.21,-2.18,-1.68,-1.42,-1.44,-1.44
199.19,0.80,2.27,0.77,2.24,-2.24,-2.19,-1.72,-1.44,-1.46,-1.47
201.18,0.81,2.30,0.77,2.26,-2.26,-2.20,-1.76,-1.45,-1.49,-1.49
203.19,0.79,2.30,0.77,2.28,-2.28,-2.21,-1.80,-1.49,-1.51,-1.51
205.23,0.74,2.28,0.76,2.30,-2.30,-2.22,-1.84,-1.56,-1.54,-1.54
207.28,0.72,2.27,0.75,2.31,-2.31,-2.22,-1.88,-1.59,-1.56,-1.55
209.35,0.72,2.30,0.73,2.32,-2.32,-2.23,-1.92,-1.60,-1.58,-1.58
211.44,0.72,2.33,0.72,2.32,-2.32,-2.23,-1.96,-1.60,-1.61,-1.61
213.56,0.71,2.33,0.70,2.33,-2.33,-2.23,-2.01,-1.62,-1.62,-1.62
215.69,0.71,2.35,0.69,2.33,-2.33,-2.23,-2.05,-1.62,-1.64,-1.64
217.85,0.70,2.35,0.68,2.33,-2.33,-2.23,-2.08,-1.63,-1.65,-1.65
220.03,0.63,2.30,0.66,2.33,-2.33,-2.23,-2.12,-1.70,-1.67,-1.67
222.23,0.60,2.29,0.65,2.32,-2.32,-2.22,-2.16,-1.72,-1.68,-1.69
224.45,0.60,2.29,0.63,2.31,-2.31,-2.21,-2.19,-1.71,-1.68,-1.69
226.70,0.60,2.29,0.62,2.30,-2.30,-2.21,-2.22,-1.70,-1.68,-1.69
228.96,0.61,2.29,0.60,2.28,-2.28,-2.20,-2.25,-1.67,-1.68,-1.68
231.25,0.61,2.28,0.58,2.25,-2.25,-2.19,-2.28,-1.64,-1.68,-1.68
233.57,0.62,2.29,0.55,2.22,-2.22,-2.18,-2.31,-1.60,-1.67,-1.67
235.90,0.57,2.23,0.53,2.19,-2.19,-2.17,-2.33,-1.62,-1.66,-1.66
238.26,0.56,2.21,0.51,2.15,-2.15,-2.15,-2.35,-1.59,-1.64,-1.65
240.64,0.49,2.12,0.49,2.11,-2.11,-2.14,-2.36,-1.63,-1.62,-1.63
243.05,0.43,2.03,0.47,2.08,-2.08,-2.12,-2.38,-1.65,-1.61,-1.60
245.48,0.41,1.99,0.46,2.04,-2.04,-2.11,-2.38,-1.64,-1.59,-1.58
247.93,0.44,1.99,0.44,2.01,-2.01,-2.09,-2.39,-1.57,-1.56,-1.55
250.41,0.38,1.92,0.43,1.97,-1.97,-2.07,-2.39,-1.59,-1.54,-1.54
252.92,0.38,1.89,0.41,1.93,-1.93,-2.05,-2.39,-1.55,-1.52,-1.51
255.45,0.39,1.88,0.40,1.89,-1.89,-2.03,-2.38,-1.51,-1.50,-1.49
258.00,0.40,1.87,0.38,1.86,-1.86,-2.01,-2.37,-1.46,-1.48,-1.47
260.58,0.40,1.86,0.37,1.83,-1.83,-1.99,-2.36,-1.43,-1.45,-1.46
263.19,0.41,1.83,0.37,1.80,-1.80,-1.97,-2.35,-1.39,-1.43,-1.42
265.82,0.40,1.81,0.38,1.78,-1.78,-1.94,-2.33,-1.38,-1.41,-1.41
268.48,0.40,1.79,0.39,1.77,-1.77,-1.92,-2.30,-1.37,-1.38,-1.39
271.16,0.40,1.76,0.40,1.76,-1.76,-1.90,-2.28,-1.36,-1.36,-1.36
273.87,0.39,1.73,0.41,1.74,-1.74,-1.87,-2.25,-1.36,-1.34,-1.34
276.61,0.39,1.70,0.42,1.73,-1.73,-1.85,-2.22,-1.34,-1.31,-1.31
279.38,0.39,1.67,0.44,1.72,-1.72,-1.82,-2.19,-1.33,-1.29,-1.29
282.17,0.40,1.66,0.45,1.71,-1.71,-1.80,-2.15,-1.31,-1.26,-1.26
284.99,0.43,1.66,0.46,1.69,-1.69,-1.77,-2.12,-1.26,-1.23,-1.23
287.84,0.50,1.71,0.47,1.67,-1.67,-1.75,-2.08,-1.17,-1.20,-1.21
290.72,0.52,1.70,0.48,1.65,-1.65,-1.72,-2.04,-1.13,-1.18,-1.18
293.63,0.53,1.68,0.49,1.64,-1.64,-1.70,-2.00,-1.11,-1.15,-1.15
296.57,0.54,1.66,0.50,1.62,-1.62,-1.67,-1.96,-1.08,-1.12,-1.12
299.53,0.55,1.64,0.50,1.60,-1.60,-1.65,-1.92,-1.05,-1.09,-1.09
302.53,0.52,1.60,0.51,1.58,-1.58,-1.62,-1.88,-1.06,-1.07,-1.08
305.55,0.49,1.52,0.51,1.56,-1.56,-1.59,-1.84,-1.07,-1.04,-1.03
308.61,0.49,1.51,0.52,1.54,-1.54,-1.57,-1.79,-1.05,-1.02,-1.02
311.69,0.49,1.48,0.52,1.51,-1.51,-1.54,-1.75,-1.02,-1.00,-0.99
314.81,0.50,1.46,0.51,1.49,-1.49,-1.52,-1.71,-0.99,-0.98,-0.97
317.96,0.50,1.45,0.51,1.46,-1.46,-1.49,-1.67,-0.97,-0.96,-0.95
321.14,0.50,1.44,0.50,1.44,-1.44,-1.47,-1.63,-0.94,-0.94,-0.94
324.35,0.50,1.43,0.50,1.42,-1.42,-1.44,-1.59,-0.93,-0.92,-0.93
327.59,0.50,1.41,0.50,1.41,-1.41,-1.42,-1.55,-0.91,-0.91,-0.91
330.87,0.50,1.40,0.49,1.39,-1.39,-1.39,-1.52,-0.89,-0.90,-0.90
334.18,0.50,1.39,0.49,1.38,-1.38,-1.37,-1.48,-0.88,-0.89,-0.89
337.52,0.49,1.37,0.49,1.37,-1.37,-1.34,-1.44,-0.88,-0.88,-0.88
340.90,0.49,1.35,0.49,1.36,-1.36,-1.32,-1.41,-0.87,-0.87,-0.86
344.30,0.49,1.34,0.48,1.35,-1.35,-1.29,-1.37,-0.86,-0.86,-0.86
347.75,0.49,1.35,0.48,1.33,-1.33,-1.27,-1.34,-0.85,-0.86,-0.86
351.23,0.49,1.34,0.47,1.32,-1.32,-1.24,-1.31,-0.83,-0.85,-0.85
354.74,0.46,1.31,0.45,1.30,-1.30,-1.22,-1.28,-0.85,-0.85,-0.85
358.28,0.41,1.25,0.44,1.29,-1.29,-1.20,-1.25,-0.88,-0.85,-0.85
361.87,0.41,1.26,0.42,1.27,-1.27,-1.18,-1.22,-0.86,-0.85,-0.85
365.49,0.42,1.26,0.41,1.25,-1.25,-1.15,-1.19,-0.83,-0.85,-0.84
369.14,0.42,1.27,0.39,1.23,-1.23,-1.13,-1.16,-0.82,-0.85,-0.85
372.83,0.39,1.24,0.37,1.22,-1.22,-1.11,-1.14,-0.83,-0.85,-0.85
376.56,0.35,1.20,0.35,1.20,-1.20,-1.09,-1.11,-0.85,-0.85,-0.86
380.33,0.35,1.20,0.33,1.19,-1.19,-1.06,-1.09,-0.84,-0.86,-0.85
384.13,0.30,1.15,0.32,1.18,-1.18,-1.04,-1.06,-0.88,-0.86,-0.85
387.97,0.27,1.13,0.30,1.16,-1.16,-1.02,-1.04,-0.90,-0.86,-0.86
391.85,0.27,1.14,0.29,1.16,-1.16,-1.00,-1.02,-0.89,-0.87,-0.87
395.77,0.27,1.13,0.28,1.15,-1.15,-0.98,-1.00,-0.88,-0.88,-0.87
399.73,0.27,1.15,0.27,1.15,-1.15,-0.96,-0.98,-0.89,-0.88,-0.88
403.72,0.27,1.15,0.27,1.15,-1.15,-0.94,-0.96,-0.89,-0.89,-0.88
407.76,0.26,1.15,0.26,1.15,-1.15,-0.92,-0.94,-0.90,-0.89,-0.89
411.84,0.26,1.15,0.26,1.15,-1.15,-0.90,-0.92,-0.89,-0.89,-0.89
415.96,0.26,1.15,0.25,1.15,-1.15,-0.88,-0.91,-0.89,-0.90,-0.89
420.12,0.26,1.15,0.25,1.15,-1.15,-0.87,-0.89,-0.89,-0.89,-0.89
424.32,0.27,1.16,0.26,1.15,-1.15,-0.85,-0.88,-0.88,-0.89,-0.89
428.56,0.28,1.16,0.27,1.15,-1.15,-0.83,-0.86,-0.87,-0.88,-0.89
432.85,0.29,1.17,0.28,1.14,-1.14,-0.81,-0.85,-0.85,-0.86,-0.88
437.18,0.32,1.19,0.29,1.14,-1.14,-0.79,-0.83,-0.82,-0.84,-0.87
441.55,0.34,1.17,0.31,1.12,-1.12,-0.78,-0.82,-0.79,-0.82,-0.83
445.96,0.26,1.06,0.32,1.11,-1.11,-0.76,-0.80,-0.85,-0.79,-0.80
450.42,0.26,1.03,0.35,1.10,-1.10,-0.74,-0.79,-0.84,-0.75,-0.77
454.93,0.31,1.03,0.37,1.08,-1.08,-0.72,-0.78,-0.77,-0.71,-0.72
459.48,0.38,1.05,0.38,1.05,-1.05,-0.71,-0.76,-0.67,-0.67,-0.67
464.07,0.44,1.06,0.41,1.03,-1.03,-0.69,-0.75,-0.59,-0.62,-0.62
468.71,0.49,1.05,0.44,1.01,-1.01,-0.68,-0.74,-0.52,-0.57,-0.56
473.40,0.48,1.00,0.46,0.98,-0.98,-0.66,-0.73,-0.50,-0.52,-0.53
478.13,0.50,0.96,0.47,0.95,-0.95,-0.64,-0.71,-0.45,-0.48,-0.47
482.91,0.48,0.91,0.49,0.92,-0.92,-0.63,-0.70,-0.44,-0.43,-0.43
487.74,0.48,0.87,0.50,0.89,-0.89,-0.61,-0.69,-0.41,-0.39,-0.39
492.62,0.53,0.87,0.51,0.86,-0.86,-0.60,-0.67,-0.34,-0.35,-0.34
497.55,0.51,0.83,0.51,0.83,-0.83,-0.58,-0.66,-0.32,-0.32,-0.32
502.52,0.46,0.75,0.50,0.80,-0.80,-0.57,-0.65,-0.34,-0.30,-0.29
507.55,0.51,0.79,0.48,0.76,-0.76,-0.55,-0.63,-0.26,-0.29,-0.28
512.62,0.57,0.84,0.45,0.73,-0.73,-0.54,-0.62,-0.16,-0.28,-0.27
517.75,0.42,0.68,0.40,0.69,-0.69,-0.52,-0.61,-0.27,-0.28,-0.26
