frequency,raw,error,smoothed,error_smoothed,equalization,parametric_eq,fixed_band_eq,equalized_raw,equalized_smoothed,target
20.00,-1.93,-10.96,-1.93,-10.96,10.96,10.36,3.67,9.04,9.04,9.03
20.20,-1.81,-10.83,-1.81,-10.83,10.83,10.28,3.78,9.02,9.02,9.02
20.40,-1.70,-10.71,-1.69,-10.70,10.70,10.21,3.88,9.00,9.01,9.01
20.61,-1.58,-10.58,-1.58,-10.58,10.58,10.14,3.99,8.99,8.99,9.00
20.81,-1.47,-10.45,-1.47,-10.45,10.46,10.07,4.09,8.99,8.98,8.98
21.02,-1.37,-10.34,-1.36,-10.34,10.34,9.99,4.21,8.97,8.98,8.97
21.23,-1.26,-10.22,-1.26,-10.23,10.23,9.92,4.32,8.97,8.96,8.96
21.44,-1.16,-10.13,-1.16,-10.12,10.12,9.85,4.44,8.96,8.96,8.97
21.66,-1.07,-10.02,-1.06,-10.02,10.01,9.77,4.56,8.94,8.95,8.95
21.87,-0.97,-9.92,-0.97,-9.91,9.91,9.70,4.69,8.95,8.95,8.95
22.09,-0.88,-9.81,-0.88,-9.81,9.82,9.63,4.82,8.94,8.94,8.93
22.31,-0.79,-9.71,-0.80,-9.72,9.73,9.56,4.95,8.94,8.93,8.92
22.54,-0.73,-9.64,-0.73,-9.64,9.64,9.48,5.09,8.91,8.92,8.91
22.76,-0.66,-9.57,-0.65,-9.56,9.56,9.41,5.23,8.90,8.90,8.91
22.99,-0.58,-9.48,-0.58,-9.48,9.47,9.34,5.37,8.89,8.89,8.90
23.22,-0.50,-9.39,-0.50,-9.40,9.39,9.26,5.52,8.90,8.89,8.89
23.45,-0.43,-9.33,-0.43,-9.32,9.32,9.19,5.67,8.89,8.89,8.90
23.69,-0.35,-9.24,-0.35,-9.24,9.24,9.12,5.82,8.89,8.89,8.89
23.92,-0.27,-9.15,-0.27,-9.16,9.16,9.04,5.98,8.89,8.89,8.88
24.16,-0.19,-9.08,-0.19,-9.08,9.08,8.97,6.14,8.89,8.89,8.89
24.40,-0.12,-9.01,-0.12,-9.00,9.00,8.90,6.30,8.88,8.88,8.89
24.65,-0.05,-8.93,-0.04,-8.93,8.92,8.82,6.47,8.87,8.88,8.88
24.89,0.04,-8.84,0.04,-8.84,8.84,8.75,6.63,8.88,8.88,8.88
25.14,0.11,-8.76,0.11,-8.76,8.76,8.68,6.81,8.88,8.88,8.87
25.39,0.19,-8.68,0.19,-8.68,8.69,8.60,6.98,8.88,8.87,8.87
25.65,0.26,-8.61,0.26,-8.61,8.61,8.53,7.15,8.87,8.87,8.87
25.91,0.34,-8.53,0.34,-8.53,8.53,8.46,7.33,8.87,8.87,8.87
26.16,0.43,-8.45,0.42,-8.45,8.45,8.38,7.51,8.88,8.87,8.88
26.43,0.50,-8.37,0.50,-8.37,8.36,8.31,7.68,8.86,8.87,8.87
26.69,0.58,-8.29,0.59,-8.29,8.29,8.24,7.86,8.87,8.87,8.87
26.96,0.67,-8.20,0.67,-8.20,8.21,8.16,8.03,8.88,8.87,8.87
27.23,0.75,-8.12,0.75,-8.12,8.13,8.09,8.20,8.88,8.88,8.87
27.50,0.83,-8.04,0.83,-8.04,8.05,8.02,8.37,8.88,8.88,8.87
27.77,0.90,-7.98,0.90,-7.97,7.97,7.94,8.54,8.88,8.87,8.88
28.05,0.97,-7.90,0.98,-7.90,7.90,7.87,8.69,8.87,8.87,8.87
28.33,1.05,-7.83,1.05,-7.83,7.83,7.79,8.84,8.88,8.88,8.88
28.62,1.13,-7.75,1.13,-7.75,7.75,7.72,8.98,8.88,8.88,8.88
28.90,1.21,-7.68,1.20,-7.68,7.68,7.65,9.11,8.89,8.88,8.89
29.19,1.27,-7.62,1.28,-7.61,7.61,7.57,9.23,8.88,8.88,8.89
29.48,1.34,-7.54,1.35,-7.54,7.54,7.50,9.33,8.88,8.88,8.88
29.78,1.42,-7.46,1.42,-7.46,7.47,7.43,9.43,8.89,8.88,8.88
30.08,1.49,-7.39,1.49,-7.39,7.39,7.35,9.50,8.88,8.88,8.88
30.38,1.55,-7.31,1.55,-7.32,7.32,7.28,9.56,8.87,8.87,8.86
30.68,1.61,-7.25,1.61,-7.25,7.25,7.20,9.59,8.86,8.86,8.86
30.99,1.68,-7.18,1.68,-7.18,7.18,7.13,9.62,8.86,8.86,8.86
31.30,1.75,-7.11,1.75,-7.11,7.10,7.05,9.61,8.85,8.85,8.86
31.61,1.82,-7.03,1.82,-7.03,7.02,6.98,9.60,8.84,8.84,8.85
31.93,1.89,-6.94,1.89,-6.95,6.95,6.91,9.56,8.84,8.84,8.83
32.24,1.96,-6.88,1.96,-6.87,6.87,6.83,9.51,8.83,8.83,8.84
32.57,2.04,-6.78,2.04,-6.79,6.79,6.76,9.43,8.83,8.83,8.82
32.89,2.11,-6.71,2.12,-6.70,6.71,6.68,9.34,8.82,8.82,8.82
33.22,2.19,-6.62,2.19,-6.62,6.63,6.61,9.23,8.82,8.82,8.81
33.55,2.26,-6.55,2.26,-6.55,6.55,6.53,9.12,8.81,8.81,8.81
33.89,2.32,-6.48,2.33,-6.47,6.47,6.46,8.98,8.79,8.80,8.80
34.23,2.39,-6.39,2.39,-6.39,6.40,6.38,8.84,8.79,8.79,8.78
34.57,2.46,-6.32,2.46,-6.32,6.32,6.31,8.68,8.78,8.78,8.78
34.92,2.53,-6.23,2.53,-6.24,6.25,6.23,8.52,8.78,8.77,8.76
35.27,2.59,-6.19,2.59,-6.17,6.17,6.16,8.34,8.76,8.76,8.78
35.62,2.66,-6.09,2.66,-6.10,6.09,6.08,8.17,8.75,8.75,8.75
35.97,2.73,-6.02,2.73,-6.02,6.01,6.01,7.99,8.74,8.74,8.75
36.33,2.79,-5.94,2.80,-5.93,5.93,5.93,7.80,8.72,8.73,8.73
36.70,2.86,-5.85,2.86,-5.85,5.85,5.86,7.62,8.71,8.71,8.71
37.06,2.93,-5.76,2.93,-5.77,5.77,5.78,7.43,8.70,8.69,8.69
37.43,2.99,-5.68,2.99,-5.68,5.68,5.70,7.24,8.68,8.68,8.67
37.81,3.05,-5.61,3.05,-5.60,5.60,5.63,7.05,8.65,8.65,8.66
38.19,3.12,-5.51,3.12,-5.51,5.51,5.55,6.86,8.63,8.63,8.63
38.57,3.19,-5.42,3.19,-5.43,5.42,5.47,6.67,8.61,8.61,8.61
38.95,3.26,-5.34,3.25,-5.34,5.34,5.40,6.49,8.60,8.59,8.60
39.34,3.31,-5.26,3.32,-5.25,5.25,5.32,6.30,8.56,8.56,8.57
39.74,3.38,-5.16,3.38,-5.16,5.16,5.24,6.12,8.54,8.54,8.54
40.14,3.45,-5.07,3.45,-5.07,5.07,5.17,5.94,8.52,8.52,8.52
40.54,3.53,-4.97,3.53,-4.97,4.98,5.09,5.76,8.51,8.51,8.50
40.94,3.59,-4.88,3.59,-4.88,4.90,5.01,5.59,8.49,8.49,8.47
41.35,3.65,-4.81,3.65,-4.81,4.81,4.93,5.42,8.46,8.46,8.46
41.76,3.70,-4.73,3.70,-4.73,4.73,4.85,5.25,8.43,8.43,8.43
42.18,3.75,-4.67,3.76,-4.66,4.65,4.77,5.09,8.40,8.41,8.42
42.60,3.82,-4.57,3.82,-4.57,4.57,4.69,4.93,8.39,8.39,8.39
43.03,3.88,-4.49,3.88,-4.49,4.49,4.61,4.77,8.37,8.37,8.37
43.46,3.93,-4.40,3.93,-4.40,4.41,4.53,4.61,8.34,8.34,8.33
43.90,3.98,-4.33,3.98,-4.33,4.33,4.45,4.46,8.31,8.31,8.31
44.33,4.03,-4.25,4.03,-4.25,4.25,4.37,4.32,8.28,8.28,8.28
44.78,4.09,-4.17,4.09,-4.17,4.17,4.29,4.17,8.26,8.26,8.26
45.23,4.15,-4.09,4.15,-4.08,4.08,4.21,4.03,8.23,8.23,8.24
45.68,4.21,-3.98,4.20,-3.99,3.99,4.13,3.89,8.20,8.20,8.19
46.13,4.25,-3.91,4.26,-3.90,3.90,4.05,3.75,8.15,8.16,8.16
46.60,4.31,-3.81,4.31,-3.81,3.81,3.97,3.62,8.12,8.12,8.12
47.06,4.37,-3.72,4.37,-3.72,3.71,3.88,3.49,8.08,8.08,8.09
47.53,4.43,-3.62,4.43,-3.61,3.61,3.80,3.36,8.04,8.05,8.05
48.01,4.50,-3.50,4.49,-3.51,3.51,3.72,3.24,8.01,8.01,8.00
48.49,4.55,-3.41,4.55,-3.41,3.41,3.63,3.12,7.96,7.96,7.96
48.97,4.61,-3.30,4.61,-3.30,3.31,3.55,3.00,7.92,7.92,7.91
49.46,4.67,-3.21,4.67,-3.20,3.20,3.46,2.88,7.87,7.87,7.88
49.96,4.73,-3.09,4.73,-3.10,3.10,3.38,2.77,7.83,7.83,7.82
50.46,4.79,-3.00,4.79,-3.00,3.00,3.29,2.66,7.79,7.79,7.79
50.96,4.85,-2.90,4.85,-2.90,2.90,3.20,2.55,7.75,7.75,7.75
51.47,4.91,-2.80,4.91,-2.80,2.80,3.12,2.44,7.71,7.71,7.71
51.99,4.97,-2.69,4.97,-2.70,2.70,3.03,2.33,7.67,7.67,7.66
52.51,5.02,-2.61,5.02,-2.61,2.61,2.94,2.23,7.63,7.63,7.63
53.03,5.08,-2.52,5.08,-2.52,2.51,2.85,2.13,7.60,7.59,7.60
53.56,5.12,-2.43,5.12,-2.43,2.42,2.76,2.03,7.54,7.55,7.55
54.10,5.17,-2.33,5.17,-2.34,2.34,2.67,1.93,7.51,7.50,7.50
54.64,5.21,-2.25,5.21,-2.24,2.25,2.59,1.84,7.46,7.46,7.46
55.18,5.26,-2.16,5.26,-2.16,2.16,2.49,1.74,7.43,7.43,7.42
55.74,5.31,-2.06,5.31,-2.07,2.08,2.40,1.65,7.39,7.39,7.37
56.29,5.35,-2.00,5.35,-1.99,1.99,2.31,1.56,7.34,7.34,7.35
56.86,5.39,-1.92,5.39,-1.91,1.91,2.22,1.47,7.30,7.30,7.31
57.42,5.43,-1.83,5.44,-1.83,1.82,2.13,1.38,7.25,7.26,7.26
58.00,5.49,-1.73,5.49,-1.73,1.73,2.04,1.30,7.22,7.22,7.22
58.58,5.55,-1.64,5.55,-1.64,1.64,1.94,1.21,7.20,7.19,7.19
59.16,5.61,-1.55,5.61,-1.55,1.55,1.85,1.13,7.16,7.16,7.16
59.76,5.66,-1.45,5.66,-1.45,1.45,1.75,1.05,7.11,7.11,7.11
60.35,5.70,-1.36,5.70,-1.36,1.35,1.66,0.97,7.05,7.05,7.06
60.96,5.74,-1.26,5.74,-1.26,1.25,1.57,0.89,6.99,6.99,7.00
61.57,5.79,-1.15,5.79,-1.15,1.14,1.47,0.81,6.93,6.93,6.94
62.18,5.84,-1.04,5.84,-1.04,1.03,1.37,0.73,6.87,6.88,6.88
62.80,5.90,-0.92,5.90,-0.92,0.93,1.28,0.66,6.83,6.83,6.82
63.43,5.96,-0.81,5.96,-0.81,0.82,1.18,0.58,6.78,6.78,6.77
64.07,6.02,-0.70,6.02,-0.70,0.72,1.08,0.51,6.74,6.73,6.72
64.71,6.07,-0.60,6.06,-0.60,0.61,0.99,0.43,6.68,6.68,6.67
65.35,6.10,-0.51,6.10,-0.52,0.52,0.89,0.36,6.62,6.62,6.61
66.01,6.13,-0.43,6.14,-0.43,0.42,0.79,0.29,6.55,6.56,6.56
66.67,6.17,-0.35,6.17,-0.34,0.33,0.69,0.22,6.50,6.50,6.52
67.33,6.22,-0.23,6.22,-0.24,0.23,0.59,0.15,6.46,6.45,6.45
68.01,6.26,-0.14,6.26,-0.14,0.14,0.49,0.07,6.40,6.40,6.40
68.69,6.30,-0.05,6.30,-0.05,0.05,0.40,0.00,6.35,6.35,6.35
69.37,6.34,0.04,6.34,0.05,-0.05,0.30,-0.07,6.29,6.30,6.30
70.07,6.38,0.14,6.38,0.14,-0.14,0.20,-0.14,6.24,6.24,6.24
70.77,6.42,0.25,6.42,0.24,-0.24,0.10,-0.21,6.18,6.18,6.17
71.48,6.45,0.33,6.45,0.34,-0.33,-0.00,-0.28,6.12,6.12,6.12
72.19,6.48,0.42,6.48,0.43,-0.43,-0.10,-0.35,6.05,6.06,6.06
72.91,6.52,0.53,6.52,0.52,-0.52,-0.20,-0.42,6.00,6.00,5.99
73.64,6.55,0.61,6.55,0.61,-0.62,-0.30,-0.49,5.94,5.94,5.94
74.38,6.59,0.71,6.59,0.71,-0.71,-0.40,-0.56,5.88,5.88,5.88
75.12,6.62,0.79,6.63,0.80,-0.80,-0.50,-0.63,5.82,5.82,5.83
75.87,6.67,0.89,6.67,0.89,-0.90,-0.61,-0.70,5.78,5.77,5.78
76.63,6.71,0.99,6.71,0.99,-0.99,-0.71,-0.78,5.73,5.73,5.72
77.40,6.76,1.08,6.76,1.08,-1.07,-0.81,-0.85,5.69,5.68,5.68
78.17,6.79,1.17,6.80,1.17,-1.16,-0.91,-0.92,5.63,5.64,5.62
78.95,6.83,1.25,6.83,1.25,-1.24,-1.01,-1.00,5.59,5.58,5.58
79.74,6.86,1.33,6.86,1.33,-1.33,-1.11,-1.08,5.53,5.53,5.53
80.54,6.88,1.40,6.89,1.41,-1.41,-1.21,-1.15,5.47,5.48,5.48
81.35,6.92,1.50,6.92,1.49,-1.50,-1.31,-1.23,5.42,5.42,5.42
82.16,6.95,1.56,6.95,1.57,-1.58,-1.41,-1.31,5.37,5.37,5.39
82.98,6.99,1.66,6.99,1.66,-1.67,-1.51,-1.39,5.32,5.32,5.33
83.81,7.04,1.76,7.04,1.76,-1.76,-1.61,-1.47,5.28,5.27,5.28
84.65,7.08,1.86,7.08,1.86,-1.86,-1.71,-1.56,5.22,5.22,5.22
85.50,7.12,1.96,7.12,1.96,-1.95,-1.80,-1.64,5.17,5.18,5.16
86.35,7.16,2.05,7.16,2.05,-2.04,-1.90,-1.73,5.12,5.12,5.11
87.22,7.19,2.13,7.19,2.13,-2.12,-2.00,-1.82,5.07,5.07,5.06
88.09,7.21,2.21,7.21,2.21,-2.21,-2.10,-1.91,5.01,5.01,5.00
88.97,7.23,2.29,7.23,2.28,-2.28,-2.20,-2.00,4.95,4.94,4.94
89.86,7.24,2.35,7.24,2.36,-2.36,-2.29,-2.09,4.88,4.88,4.89
90.76,7.26,2.43,7.26,2.43,-2.44,-2.39,-2.19,4.82,4.82,4.83
91.66,7.28,2.52,7.28,2.51,-2.52,-2.48,-2.28,4.77,4.77,4.76
92.58,7.30,2.59,7.30,2.59,-2.59,-2.58,-2.38,4.71,4.71,4.71
93.51,7.33,2.67,7.33,2.67,-2.68,-2.68,-2.48,4.65,4.65,4.66
94.44,7.35,2.75,7.35,2.76,-2.76,-2.77,-2.58,4.59,4.59,4.60
95.39,7.38,2.85,7.38,2.85,-2.85,-2.86,-2.68,4.53,4.53,4.53
96.34,7.40,2.94,7.40,2.94,-2.93,-2.96,-2.79,4.47,4.47,4.46
97.30,7.42,3.02,7.42,3.02,-3.02,-3.05,-2.89,4.40,4.40,4.40
98.28,7.44,3.11,7.44,3.11,-3.11,-3.14,-3.00,4.33,4.33,4.33
99.26,7.47,3.20,7.47,3.20,-3.20,-3.23,-3.10,4.27,4.27,4.27
100.25,7.50,3.29,7.50,3.29,-3.29,-3.32,-3.21,4.21,4.21,4.21
101.25,7.53,3.37,7.53,3.37,-3.38,-3.41,-3.32,4.15,4.15,4.16
102.27,7.56,3.46,7.56,3.46,-3.46,-3.50,-3.43,4.10,4.10,4.10
103.29,7.59,3.55,7.59,3.55,-3.55,-3.59,-3.54,4.04,4.05,4.04
104.32,7.62,3.63,7.62,3.63,-3.63,-3.67,-3.65,4.00,3.99,3.99
105.37,7.64,3.71,7.64,3.71,-3.70,-3.76,-3.76,3.94,3.94,3.93
106.42,7.65,3.77,7.65,3.78,-3.76,-3.84,-3.86,3.89,3.89,3.88
107.48,7.66,3.84,7.66,3.84,-3.83,-3.93,-3.97,3.84,3.83,3.82
108.56,7.66,3.89,7.66,3.89,-3.88,-4.01,-4.08,3.78,3.77,3.77
109.64,7.65,3.94,7.65,3.94,-3.94,-4.09,-4.18,3.71,3.71,3.71
110.74,7.64,3.99,7.64,3.99,-4.00,-4.17,-4.29,3.64,3.64,3.65
111.85,7.64,4.05,7.64,4.05,-4.06,-4.25,-4.39,3.58,3.58,3.59
112.97,7.65,4.11,7.65,4.11,-4.13,-4.33,-4.48,3.52,3.52,3.54
114.10,7.66,4.18,7.66,4.19,-4.20,-4.41,-4.58,3.46,3.46,3.48
115.24,7.68,4.28,7.68,4.28,-4.28,-4.49,-4.67,3.40,3.40,3.40
116.39,7.71,4.37,7.71,4.37,-4.36,-4.56,-4.75,3.35,3.35,3.34
117.55,7.74,4.46,7.74,4.46,-4.45,-4.63,-4.83,3.29,3.29,3.28
118.73,7.77,4.55,7.77,4.54,-4.53,-4.71,-4.91,3.24,3.24,3.22
119.92,7.80,4.62,7.80,4.62,-4.62,-4.78,-4.98,3.18,3.18,3.18
121.12,7.83,4.70,7.83,4.70,-4.71,-4.85,-5.05,3.12,3.12,3.13
122.33,7.86,4.79,7.86,4.79,-4.79,-4.91,-5.11,3.07,3.07,3.07
123.55,7.89,4.87,7.89,4.87,-4.87,-4.98,-5.17,3.02,3.02,3.02
124.79,7.92,4.95,7.92,4.95,-4.95,-5.05,-5.22,2.97,2.96,2.97
126.03,7.94,5.03,7.95,5.03,-5.03,-5.11,-5.26,2.91,2.91,2.91
127.29,7.97,5.11,7.97,5.11,-5.11,-5.17,-5.30,2.86,2.86,2.86
128.57,7.98,5.19,7.98,5.19,-5.18,-5.23,-5.33,2.80,2.80,2.79
129.85,7.99,5.25,7.99,5.26,-5.25,-5.29,-5.36,2.74,2.75,2.74
131.15,8.00,5.32,8.00,5.32,-5.31,-5.35,-5.38,2.69,2.69,2.68
132.46,8.00,5.37,8.00,5.37,-5.36,-5.40,-5.40,2.64,2.63,2.63
133.79,7.99,5.42,7.99,5.42,-5.42,-5.46,-5.41,2.57,2.57,2.57
135.12,7.98,5.46,7.98,5.46,-5.47,-5.51,-5.42,2.51,2.51,2.52
136.48,7.97,5.50,7.97,5.51,-5.51,-5.56,-5.42,2.46,2.46,2.47
137.84,7.97,5.55,7.97,5.55,-5.56,-5.61,-5.43,2.41,2.41,2.42
139.22,7.97,5.61,7.97,5.60,-5.61,-5.66,-5.43,2.36,2.36,2.36
140.61,7.97,5.65,7.97,5.66,-5.65,-5.70,-5.42,2.32,2.32,2.32
142.02,7.97,5.71,7.97,5.70,-5.70,-5.75,-5.42,2.27,2.27,2.26
143.44,7.97,5.75,7.97,5.75,-5.75,-5.79,-5.41,2.22,2.22,2.22
144.87,7.97,5.79,7.97,5.79,-5.79,-5.83,-5.41,2.18,2.18,2.18
146.32,7.97,5.84,7.97,5.84,-5.84,-5.87,-5.40,2.13,2.13,2.13
147.78,7.97,5.88,7.97,5.88,-5.89,-5.91,-5.39,2.08,2.08,2.09
149.26,7.97,5.93,7.97,5.93,-5.93,-5.95,-5.39,2.04,2.04,2.04
150.75,7.98,5.98,7.98,5.98,-5.98,-5.98,-5.39,2.00,2.00,2.00
152.26,7.98,6.02,7.98,6.02,-6.03,-6.02,-5.38,1.95,1.96,1.96
153.78,7.99,6.07,7.99,6.07,-6.07,-6.05,-5.38,1.92,1.92,1.92
155.32,8.00,6.12,8.00,6.12,-6.12,-6.08,-5.38,1.88,1.88,1.88
156.88,8.00,6.17,8.00,6.17,-6.16,-6.12,-5.39,1.84,1.84,1.83
158.44,7.99,6.21,7.99,6.20,-6.20,-6.15,-5.39,1.79,1.79,1.78
160.03,7.97,6.23,7.97,6.23,-6.23,-6.18,-5.40,1.74,1.74,1.74
161.63,7.95,6.25,7.95,6.26,-6.26,-6.21,-5.42,1.69,1.69,1.70
163.24,7.93,6.28,7.93,6.28,-6.28,-6.25,-5.43,1.65,1.65,1.65
164.88,7.91,6.31,7.91,6.31,-6.30,-6.28,-5.45,1.61,1.61,1.60
166.53,7.88,6.33,7.88,6.32,-6.32,-6.31,-5.48,1.56,1.56,1.55
168.19,7.85,6.33,7.85,6.34,-6.34,-6.34,-5.50,1.51,1.51,1.52
169.87,7.81,6.35,7.81,6.35,-6.35,-6.37,-5.53,1.46,1.46,1.46
171.57,7.78,6.37,7.78,6.36,-6.37,-6.41,-5.57,1.41,1.41,1.41
173.29,7.75,6.38,7.75,6.39,-6.38,-6.44,-5.61,1.37,1.37,1.37
175.02,7.72,6.40,7.72,6.40,-6.40,-6.47,-5.66,1.32,1.32,1.32
176.77,7.70,6.43,7.70,6.42,-6.42,-6.51,-5.70,1.28,1.27,1.27
178.54,7.67,6.44,7.67,6.45,-6.45,-6.54,-5.76,1.22,1.22,1.23
180.32,7.65,6.48,7.65,6.47,-6.48,-6.58,-5.81,1.17,1.18,1.17
182.13,7.64,6.50,7.64,6.50,-6.51,-6.61,-5.88,1.13,1.13,1.14
183.95,7.63,6.54,7.63,6.54,-6.55,-6.65,-5.94,1.08,1.08,1.09
185.79,7.63,6.59,7.63,6.58,-6.59,-6.68,-6.01,1.04,1.04,1.04
187.65,7.63,6.63,7.63,6.63,-6.63,-6.72,-6.09,1.00,1.00,1.00
189.52,7.64,6.68,7.64,6.68,-6.68,-6.75,-6.17,0.96,0.96,0.96
191.42,7.65,6.73,7.65,6.73,-6.73,-6.79,-6.25,0.92,0.92,0.92
193.33,7.65,6.77,7.65,6.78,-6.77,-6.82,-6.34,0.88,0.88,0.88
195.27,7.65,6.82,7.65,6.82,-6.82,-6.86,-6.43,0.83,0.83,0.83
197.22,7.65,6.87,7.65,6.86,-6.86,-6.89,-6.52,0.79,0.79,0.78
199.19,7.65,6.90,7.65,6.91,-6.90,-6.92,-6.62,0.75,0.75,0.75
201.18,7.65,6.94,7.65,6.94,-6.93,-6.95,-6.72,0.72,0.72,0.71
203.19,7.65,6.97,7.65,6.97,-6.97,-6.98,-6.82,0.68,0.68,0.68
205.23,7.65,6.99,7.65,7.00,-7.00,-7.01,-6.92,0.65,0.65,0.66
207.28,7.65,7.02,7.65,7.03,-7.03,-7.03,-7.03,0.62,0.62,0.63
209.35,7.65,7.06,7.65,7.06,-7.06,-7.06,-7.14,0.59,0.59,0.59
211.44,7.65,7.09,7.65,7.09,-7.09,-7.08,-7.24,0.56,0.56,0.56
213.56,7.65,7.11,7.65,7.12,-7.12,-7.10,-7.35,0.53,0.53,0.54
215.69,7.65,7.14,7.65,7.14,-7.15,-7.13,-7.46,0.50,0.50,0.51
217.85,7.66,7.18,7.66,7.18,-7.18,-7.14,-7.57,0.48,0.47,0.48
220.03,7.66,7.21,7.66,7.21,-7.21,-7.16,-7.67,0.45,0.45,0.45
222.23,7.67,7.25,7.67,7.24,-7.24,-7.18,-7.77,0.43,0.43,0.42
224.45,7.67,7.26,7.67,7.27,-7.26,-7.19,-7.87,0.41,0.41,0.41
226.70,7.67,7.29,7.67,7.28,-7.28,-7.20,-7.96,0.39,0.39,0.38
228.96,7.66,7.29,7.66,7.29,-7.29,-7.21,-8.04,0.37,0.37,0.37
231.25,7.64,7.29,7.64,7.29,-7.29,-7.22,-8.12,0.35,0.35,0.35
233.57,7.62,7.29,7.62,7.29,-7.29,-7.22,-8.20,0.33,0.33,0.33
235.90,7.60,7.28,7.60,7.28,-7.28,-7.23,-8.26,0.32,0.32,0.32
238.26,7.57,7.28,7.57,7.27,-7.27,-7.23,-8.31,0.30,0.30,0.29
240.64,7.54,7.24,7.54,7.25,-7.25,-7.23,-8.35,0.29,0.29,0.30
243.05,7.51,7.23,7.51,7.23,-7.23,-7.23,-8.39,0.28,0.28,0.28
245.48,7.48,7.21,7.48,7.21,-7.21,-7.22,-8.41,0.27,0.27,0.27
247.93,7.45,7.19,7.45,7.19,-7.19,-7.22,-8.42,0.26,0.26,0.26
250.41,7.43,7.16,7.43,7.17,-7.17,-7.21,-8.42,0.26,0.26,0.27
252.92,7.41,7.15,7.41,7.15,-7.15,-7.20,-8.41,0.26,0.26,0.26
255.45,7.39,7.14,7.39,7.14,-7.13,-7.18,-8.38,0.26,0.26,0.25
258.00,7.37,7.12,7.37,7.12,-7.11,-7.17,-8.34,0.26,0.26,0.25
260.58,7.35,7.10,7.35,7.10,-7.09,-7.15,-8.29,0.26,0.25,0.25
263.19,7.32,7.07,7.32,7.08,-7.07,-7.13,-8.24,0.25,0.25,0.25
265.82,7.30,7.06,7.30,7.05,-7.06,-7.11,-8.17,0.25,0.24,0.24
268.48,7.27,7.03,7.27,7.03,-7.04,-7.09,-8.09,0.23,0.24,0.24
271.16,7.25,7.01,7.25,7.01,-7.02,-7.06,-8.00,0.23,0.23,0.24
273.87,7.23,6.99,7.23,6.99,-7.00,-7.04,-7.91,0.23,0.23,0.24
276.61,7.21,6.97,7.21,6.98,-6.98,-7.01,-7.81,0.23,0.23,0.24
279.38,7.19,6.97,7.19,6.96,-6.96,-6.98,-7.70,0.23,0.23,0.22
282.17,7.17,6.95,7.17,6.94,-6.93,-6.95,-7.59,0.24,0.23,0.22
284.99,7.14,6.91,7.14,6.92,-6.91,-6.91,-7.48,0.24,0.24,0.23
287.84,7.11,6.87,7.11,6.88,-6.87,-6.88,-7.36,0.24,0.24,0.24
290.72,7.08,6.85,7.08,6.84,-6.83,-6.84,-7.24,0.25,0.24,0.23
293.63,7.04,6.80,7.04,6.80,-6.79,-6.80,-7.12,0.25,0.25,0.24
296.57,7.00,6.75,7.00,6.75,-6.75,-6.77,-7.00,0.25,0.25,0.25
299.53,6.96,6.71,6.96,6.70,-6.72,-6.73,-6.88,0.25,0.24,0.25
302.53,6.92,6.65,6.92,6.66,-6.68,-6.68,-6.76,0.24,0.24,0.27
305.55,6.89,6.63,6.89,6.63,-6.64,-6.64,-6.64,0.25,0.25,0.26
308.61,6.87,6.60,6.87,6.60,-6.61,-6.60,-6.52,0.26,0.26,0.27
311.69,6.86,6.58,6.86,6.58,-6.57,-6.56,-6.41,0.29,0.28,0.28
314.81,6.84,6.56,6.84,6.55,-6.54,-6.51,-6.29,0.30,0.30,0.28
317.96,6.81,6.52,6.81,6.52,-6.50,-6.47,-6.18,0.31,0.31,0.29
321.14,6.77,6.47,6.77,6.47,-6.46,-6.42,-6.08,0.31,0.31,0.30
324.35,6.72,6.42,6.72,6.41,-6.42,-6.38,-5.97,0.30,0.30,0.30
327.59,6.68,6.35,6.68,6.36,-6.38,-6.33,-5.87,0.31,0.31,0.33
330.87,6.64,6.32,6.64,6.32,-6.33,-6.28,-5.77,0.31,0.31,0.32
334.18,6.61,6.28,6.61,6.28,-6.28,-6.24,-5.68,0.33,0.33,0.33
337.52,6.57,6.24,6.57,6.24,-6.23,-6.19,-5.59,0.34,0.34,0.33
340.90,6.54,6.19,6.54,6.19,-6.19,-6.14,-5.50,0.35,0.35,0.35
344.30,6.50,6.14,6.50,6.15,-6.15,-6.09,-5.42,0.36,0.36,0.36
347.75,6.46,6.10,6.46,6.10,-6.10,-6.04,-5.34,0.36,0.36,0.36
351.23,6.42,6.06,6.42,6.05,-6.05,-6.00,-5.27,0.37,0.37,0.36
354.74,6.38,5.99,6.38,6.00,-6.00,-5.95,-5.20,0.38,0.38,0.39
358.28,6.34,5.96,6.34,5.95,-5.95,-5.90,-5.13,0.39,0.39,0.38
361.87,6.29,5.90,6.29,5.90,-5.89,-5.85,-5.07,0.40,0.40,0.39
365.49,6.24,5.84,6.24,5.84,-5.84,-5.80,-5.01,0.40,0.40,0.40
369.14,6.19,5.77,6.19,5.78,-5.79,-5.75,-4.96,0.41,0.40,0.42
372.83,6.14,5.72,6.14,5.72,-5.73,-5.70,-4.90,0.41,0.41,0.42
376.56,6.09,5.67,6.10,5.67,-5.68,-5.65,-4.86,0.41,0.42,0.42
380.33,6.06,5.63,6.06,5.63,-5.62,-5.60,-4.81,0.44,0.43,0.43
384.13,6.02,5.57,6.02,5.58,-5.57,-5.54,-4.77,0.45,0.45,0.45
387.97,5.98,5.53,5.98,5.53,-5.51,-5.49,-4.74,0.47,0.47,0.45
391.85,5.93,5.47,5.93,5.47,-5.46,-5.44,-4.70,0.47,0.47,0.46
395.77,5.87,5.40,5.87,5.40,-5.40,-5.39,-4.67,0.47,0.47,0.47
399.73,5.82,5.34,5.82,5.33,-5.35,-5.33,-4.64,0.47,0.47,0.48
403.72,5.77,5.26,5.77,5.28,-5.29,-5.28,-4.62,0.48,0.49,0.51
407.76,5.73,5.23,5.73,5.22,-5.23,-5.23,-4.59,0.50,0.50,0.50
411.84,5.69,5.18,5.69,5.17,-5.17,-5.17,-4.57,0.52,0.52,0.51
415.96,5.64,5.11,5.64,5.12,-5.11,-5.11,-4.55,0.53,0.53,0.53
420.12,5.59,5.06,5.59,5.06,-5.05,-5.06,-4.53,0.54,0.54,0.53
424.32,5.53,4.99,5.54,4.99,-5.00,-5.00,-4.51,0.54,0.54,0.54
428.56,5.49,4.93,5.49,4.93,-4.94,-4.94,-4.50,0.55,0.55,0.56
432.85,5.44,4.87,5.44,4.87,-4.88,-4.88,-4.48,0.56,0.56,0.57
437.18,5.38,4.82,5.39,4.82,-4.82,-4.82,-4.47,0.57,0.57,0.56
441.55,5.33,4.76,5.33,4.76,-4.75,-4.76,-4.45,0.58,0.58,0.57
445.96,5.27,4.69,5.27,4.69,-4.69,-4.70,-4.43,0.58,0.58,0.58
450.42,5.21,4.62,5.22,4.63,-4.62,-4.64,-4.42,0.59,0.59,0.59
454.93,5.16,4.56,5.16,4.56,-4.56,-4.57,-4.40,0.61,0.60,0.60
459.48,5.10,4.49,5.10,4.49,-4.49,-4.51,-4.38,0.61,0.61,0.61
464.07,5.04,4.41,5.04,4.42,-4.42,-4.45,-4.35,0.62,0.62,0.63
468.71,4.98,4.34,4.98,4.34,-4.35,-4.38,-4.33,0.63,0.63,0.64
473.40,4.92,4.28,4.92,4.28,-4.28,-4.31,-4.30,0.64,0.64,0.64
478.13,4.86,4.21,4.86,4.21,-4.21,-4.24,-4.27,0.65,0.65,0.65
482.91,4.81,4.15,4.80,4.14,-4.14,-4.18,-4.24,0.67,0.66,0.66
487.74,4.74,4.07,4.74,4.07,-4.07,-4.11,-4.20,0.67,0.67,0.67
492.62,4.68,4.00,4.68,4.00,-4.00,-4.04,-4.16,0.68,0.68,0.68
497.55,4.62,3.93,4.62,3.93,-3.93,-3.97,-4.11,0.69,0.69,0.69
502.52,4.57,3.87,4.57,3.87,-3.87,-3.90,-4.06,0.71,0.71,0.70
507.55,4.52,3.80,4.52,3.80,-3.80,-3.82,-4.01,0.72,0.72,0.72
512.62,4.46,3.73,4.46,3.73,-3.73,-3.75,-3.95,0.73,0.73,0.73
517.75,4.40,3.65,4.40,3.65,-3.66,-3.68,-3.89,0.74,0.74,0.75
522.93,4.34,3.58,4.35,3.59,-3.59,-3.61,-3.83,0.75,0.76,0.76
528.16,4.29,3.52,4.29,3.52,-3.52,-3.53,-3.76,0.77,0.77,0.77
533.44,4.24,3.46,4.23,3.45,-3.45,-3.46,-3.69,0.80,0.79,0.78
538.77,4.17,3.38,4.17,3.38,-3.37,-3.38,-3.61,0.80,0.80,0.79
544.16,4.10,3.30,4.10,3.30,-3.30,-3.31,-3.54,0.80,0.80,0.80
549.60,4.03,3.22,4.03,3.22,-3.23,-3.23,-3.45,0.80,0.81,0.81
