frequency,raw,error,smoothed,error_smoothed,equalization,parametric_eq,fixed_band_eq,equalized_raw,equalized_smoothed,target
20.00,15.73,4.19,15.67,4.14,-4.14,-4.04,-1.47,11.59,11.53,11.54
20.20,15.68,4.16,15.65,4.12,-4.12,-4.03,-1.51,11.56,11.53,11.53
20.40,15.64,4.12,15.63,4.11,-4.11,-4.02,-1.56,11.53,11.52,11.53
20.61,15.59,4.07,15.61,4.09,-4.09,-4.00,-1.60,11.50,11.52,11.53
20.81,15.54,4.04,15.59,4.08,-4.08,-3.99,-1.65,11.47,11.52,11.50
21.02,15.50,4.00,15.57,4.06,-4.06,-3.98,-1.70,11.44,11.51,11.50
21.23,15.50,4.00,15.55,4.04,-4.04,-3.96,-1.75,11.46,11.51,11.50
21.44,15.50,3.99,15.53,4.03,-4.03,-3.95,-1.80,11.48,11.51,11.51
21.66,15.50,4.00,15.51,4.01,-4.01,-3.93,-1.86,11.49,11.50,11.50
21.87,15.50,3.99,15.49,3.99,-3.99,-3.92,-1.91,11.51,11.50,11.51
22.09,15.50,4.00,15.48,3.97,-3.97,-3.90,-1.97,11.53,11.50,11.50
22.31,15.48,3.97,15.46,3.95,-3.95,-3.89,-2.03,11.53,11.50,11.51
22.54,15.47,3.98,15.44,3.94,-3.94,-3.87,-2.09,11.53,11.50,11.50
22.76,15.46,3.96,15.43,3.93,-3.93,-3.86,-2.15,11.54,11.50,11.51
22.99,15.45,3.95,15.42,3.91,-3.91,-3.84,-2.21,11.54,11.51,11.50
23.22,15.41,3.91,15.41,3.90,-3.90,-3.82,-2.27,11.52,11.51,11.50
23.45,15.37,3.86,15.39,3.88,-3.88,-3.81,-2.34,11.50,11.51,11.51
23.69,15.33,3.82,15.36,3.85,-3.85,-3.79,-2.41,11.48,11.51,11.51
23.92,15.28,3.77,15.33,3.82,-3.82,-3.77,-2.47,11.46,11.51,11.51
24.16,15.27,3.75,15.30,3.79,-3.79,-3.76,-2.54,11.49,11.52,11.52
24.40,15.27,3.75,15.27,3.75,-3.75,-3.74,-2.61,11.52,11.52,11.53
24.65,15.27,3.75,15.24,3.72,-3.72,-3.72,-2.68,11.55,11.52,11.52
24.89,15.27,3.75,15.21,3.69,-3.69,-3.70,-2.76,11.58,11.52,11.52
25.14,15.24,3.72,15.18,3.66,-3.66,-3.68,-2.83,11.58,11.52,11.52
25.39,15.18,3.65,15.16,3.64,-3.64,-3.67,-2.90,11.54,11.52,11.53
25.65,15.12,3.59,15.14,3.62,-3.62,-3.65,-2.97,11.50,11.52,11.53
25.91,15.06,3.55,15.13,3.60,-3.60,-3.63,-3.05,11.46,11.52,11.52
26.16,15.04,3.52,15.11,3.59,-3.59,-3.61,-3.12,11.45,11.52,11.52
26.43,15.04,3.52,15.09,3.57,-3.57,-3.59,-3.19,11.47,11.52,11.52
26.69,15.04,3.52,15.07,3.55,-3.55,-3.57,-3.26,11.49,11.52,11.52
26.96,15.04,3.53,15.04,3.53,-3.53,-3.55,-3.33,11.51,11.51,11.51
27.23,15.04,3.54,15.02,3.51,-3.51,-3.54,-3.40,11.53,11.51,11.50
27.50,15.04,3.54,15.00,3.50,-3.50,-3.52,-3.47,11.55,11.51,11.50
27.77,15.04,3.53,14.99,3.48,-3.48,-3.50,-3.53,11.56,11.50,11.51
28.05,15.03,3.53,14.97,3.47,-3.47,-3.48,-3.59,11.56,11.50,11.50
28.33,14.97,3.48,14.95,3.45,-3.45,-3.46,-3.65,11.52,11.49,11.49
28.62,14.90,3.42,14.92,3.43,-3.43,-3.44,-3.71,11.47,11.49,11.48
28.90,14.84,3.35,14.89,3.41,-3.41,-3.42,-3.76,11.43,11.48,11.49
29.19,14.82,3.35,14.86,3.39,-3.39,-3.40,-3.81,11.43,11.47,11.48
29.48,14.82,3.36,14.83,3.37,-3.37,-3.38,-3.85,11.45,11.46,11.46
29.78,14.82,3.36,14.80,3.34,-3.34,-3.36,-3.89,11.48,11.46,11.46
30.08,14.80,3.35,14.76,3.31,-3.31,-3.34,-3.92,11.49,11.45,11.46
30.38,14.73,3.30,14.72,3.28,-3.28,-3.32,-3.95,11.45,11.44,11.43
30.68,14.66,3.23,14.68,3.26,-3.26,-3.30,-3.97,11.41,11.42,11.43
30.99,14.59,3.18,14.65,3.23,-3.23,-3.28,-3.99,11.36,11.41,11.41
31.30,14.59,3.19,14.61,3.21,-3.21,-3.26,-4.00,11.38,11.40,11.40
31.61,14.59,3.20,14.58,3.19,-3.19,-3.24,-4.01,11.40,11.39,11.40
31.93,14.59,3.22,14.55,3.16,-3.16,-3.22,-4.01,11.43,11.39,11.37
32.24,14.54,3.16,14.51,3.14,-3.14,-3.20,-4.00,11.40,11.38,11.38
32.57,14.47,3.11,14.48,3.11,-3.11,-3.18,-3.99,11.37,11.37,11.36
32.89,14.40,3.04,14.44,3.07,-3.07,-3.16,-3.98,11.33,11.36,11.36
33.22,14.38,3.03,14.40,3.04,-3.04,-3.15,-3.95,11.34,11.36,11.35
33.55,14.37,3.02,14.37,3.01,-3.01,-3.13,-3.93,11.36,11.35,11.35
33.89,14.36,3.01,14.34,2.99,-2.99,-3.11,-3.90,11.37,11.35,11.35
34.23,14.32,2.99,14.31,2.97,-2.97,-3.09,-3.87,11.35,11.34,11.34
34.57,14.27,2.93,14.28,2.94,-2.94,-3.07,-3.83,11.33,11.34,11.34
34.92,14.21,2.88,14.24,2.91,-2.91,-3.05,-3.79,11.30,11.33,11.33
35.27,14.18,2.85,14.20,2.88,-2.88,-3.03,-3.75,11.30,11.32,11.34
35.62,14.16,2.85,14.18,2.86,-2.86,-3.01,-3.70,11.30,11.31,11.31
35.97,14.13,2.83,14.15,2.85,-2.85,-2.99,-3.66,11.28,11.30,11.30
36.33,14.12,2.83,14.12,2.83,-2.83,-2.98,-3.61,11.29,11.29,11.30
36.70,14.11,2.84,14.08,2.81,-2.81,-2.96,-3.56,11.30,11.27,11.27
37.06,14.09,2.84,14.05,2.80,-2.80,-2.94,-3.51,11.29,11.25,11.25
37.43,14.02,2.79,14.01,2.79,-2.79,-2.92,-3.46,11.24,11.23,11.23
37.81,13.95,2.75,13.98,2.78,-2.78,-2.90,-3.41,11.18,11.20,11.20
38.19,13.91,2.73,13.94,2.76,-2.76,-2.89,-3.36,11.15,11.18,11.19
38.57,13.91,2.76,13.90,2.75,-2.75,-2.87,-3.31,11.16,11.15,11.16
38.95,13.91,2.78,13.86,2.74,-2.74,-2.85,-3.26,11.17,11.12,11.13
39.34,13.83,2.75,13.82,2.73,-2.73,-2.84,-3.21,11.10,11.09,11.08
39.74,13.74,2.69,13.78,2.72,-2.72,-2.82,-3.16,11.02,11.06,11.05
40.14,13.68,2.67,13.73,2.70,-2.70,-2.80,-3.11,10.98,11.02,11.02
40.54,13.68,2.70,13.68,2.68,-2.68,-2.79,-3.07,11.00,10.99,10.99
40.94,13.68,2.74,13.62,2.66,-2.66,-2.77,-3.02,11.02,10.96,10.95
41.35,13.60,2.68,13.58,2.65,-2.65,-2.75,-2.98,10.95,10.93,10.92
41.76,13.50,2.61,13.53,2.64,-2.64,-2.74,-2.94,10.87,10.90,10.89
42.18,13.45,2.58,13.49,2.62,-2.62,-2.72,-2.90,10.83,10.86,10.87
42.60,13.45,2.62,13.44,2.61,-2.61,-2.71,-2.86,10.84,10.83,10.84
43.03,13.44,2.64,13.39,2.59,-2.59,-2.69,-2.83,10.85,10.80,10.80
43.46,13.34,2.57,13.35,2.58,-2.58,-2.68,-2.80,10.76,10.77,10.77
43.90,13.24,2.50,13.32,2.57,-2.57,-2.67,-2.77,10.67,10.74,10.74
44.33,13.22,2.51,13.27,2.56,-2.56,-2.65,-2.74,10.66,10.71,10.71
44.78,13.22,2.55,13.23,2.55,-2.55,-2.64,-2.71,10.67,10.68,10.67
45.23,13.21,2.56,13.18,2.54,-2.54,-2.63,-2.68,10.67,10.64,10.66
45.68,13.18,2.57,13.14,2.54,-2.54,-2.61,-2.66,10.64,10.61,10.61
46.13,13.14,2.58,13.10,2.54,-2.54,-2.60,-2.64,10.60,10.57,10.56
46.60,13.06,2.54,13.06,2.53,-2.53,-2.59,-2.62,10.53,10.53,10.53
47.06,12.99,2.50,13.01,2.53,-2.53,-2.58,-2.61,10.46,10.49,10.50
47.53,12.97,2.52,12.97,2.53,-2.53,-2.57,-2.59,10.44,10.44,10.46
48.01,12.95,2.55,12.92,2.52,-2.52,-2.55,-2.58,10.43,10.40,10.40
48.49,12.86,2.51,12.87,2.52,-2.52,-2.54,-2.57,10.35,10.36,10.36
48.97,12.77,2.47,12.82,2.51,-2.51,-2.53,-2.56,10.26,10.31,10.31
49.46,12.77,2.51,12.76,2.49,-2.49,-2.52,-2.55,10.28,10.27,10.26
49.96,12.77,2.57,12.71,2.49,-2.49,-2.51,-2.54,10.28,10.22,10.20
50.46,12.66,2.51,12.65,2.48,-2.48,-2.50,-2.54,10.18,10.17,10.16
50.96,12.55,2.43,12.60,2.48,-2.48,-2.50,-2.54,10.07,10.12,10.12
51.47,12.54,2.47,12.55,2.48,-2.48,-2.49,-2.53,10.06,10.07,10.08
51.99,12.54,2.52,12.51,2.49,-2.49,-2.48,-2.53,10.05,10.02,10.02
52.51,12.42,2.45,12.46,2.49,-2.49,-2.47,-2.53,9.93,9.97,9.97
53.03,12.31,2.38,12.40,2.49,-2.49,-2.46,-2.54,9.83,9.91,9.94
53.56,12.31,2.44,12.34,2.48,-2.48,-2.46,-2.54,9.83,9.86,9.87
54.10,12.31,2.50,12.29,2.48,-2.48,-2.45,-2.54,9.83,9.81,9.81
54.64,12.31,2.55,12.25,2.49,-2.49,-2.44,-2.54,9.83,9.76,9.76
55.18,12.27,2.58,12.19,2.48,-2.48,-2.44,-2.55,9.79,9.71,9.70
55.74,12.14,2.50,12.14,2.48,-2.48,-2.43,-2.55,9.66,9.66,9.64
56.29,12.08,2.49,12.10,2.49,-2.49,-2.43,-2.56,9.59,9.61,9.59
56.86,12.08,2.53,12.05,2.50,-2.50,-2.42,-2.56,9.58,9.56,9.56
57.42,11.98,2.49,12.00,2.50,-2.50,-2.42,-2.56,9.49,9.50,9.49
58.00,11.85,2.41,11.94,2.49,-2.49,-2.42,-2.57,9.36,9.45,9.44
58.58,11.85,2.45,11.89,2.50,-2.50,-2.41,-2.57,9.35,9.39,9.41
59.16,11.85,2.49,11.84,2.51,-2.51,-2.41,-2.57,9.35,9.34,9.37
59.76,11.85,2.54,11.78,2.50,-2.50,-2.41,-2.58,9.35,9.28,9.31
60.35,11.77,2.54,11.72,2.50,-2.50,-2.41,-2.58,9.28,9.22,9.24
60.96,11.64,2.47,11.66,2.50,-2.50,-2.41,-2.58,9.14,9.16,9.17
61.57,11.63,2.53,11.61,2.51,-2.51,-2.41,-2.58,9.12,9.10,9.10
62.18,11.59,2.57,11.56,2.52,-2.52,-2.41,-2.58,9.07,9.04,9.03
62.80,11.44,2.48,11.50,2.53,-2.53,-2.41,-2.57,8.91,8.97,8.96
63.43,11.40,2.51,11.45,2.54,-2.54,-2.41,-2.57,8.86,8.91,8.89
64.07,11.40,2.57,11.40,2.56,-2.56,-2.41,-2.56,8.84,8.84,8.84
64.71,11.36,2.59,11.35,2.57,-2.57,-2.41,-2.56,8.79,8.77,8.78
65.35,11.29,2.59,11.29,2.58,-2.58,-2.41,-2.55,8.71,8.70,8.70
66.01,11.17,2.54,11.23,2.59,-2.59,-2.41,-2.55,8.58,8.63,8.63
66.67,11.17,2.60,11.16,2.60,-2.60,-2.42,-2.54,8.57,8.57,8.57
67.33,11.14,2.65,11.10,2.61,-2.61,-2.42,-2.53,8.54,8.50,8.49
68.01,11.07,2.64,11.04,2.62,-2.62,-2.42,-2.52,8.46,8.42,8.43
68.69,10.98,2.63,10.98,2.63,-2.63,-2.43,-2.51,8.36,8.35,8.35
69.37,10.94,2.65,10.92,2.64,-2.64,-2.43,-2.50,8.30,8.28,8.29
70.07,10.92,2.71,10.86,2.66,-2.66,-2.44,-2.49,8.27,8.21,8.21
70.77,10.76,2.62,10.80,2.67,-2.67,-2.44,-2.48,8.09,8.13,8.14
71.48,10.71,2.65,10.74,2.68,-2.68,-2.45,-2.47,8.03,8.06,8.06
72.19,10.67,2.69,10.67,2.69,-2.69,-2.46,-2.46,7.99,7.99,7.99
72.91,10.51,2.60,10.60,2.69,-2.69,-2.46,-2.45,7.82,7.91,7.91
73.64,10.49,2.67,10.54,2.70,-2.70,-2.47,-2.44,7.80,7.84,7.83
74.38,10.49,2.73,10.48,2.71,-2.71,-2.48,-2.43,7.79,7.77,7.76
75.12,10.48,2.79,10.42,2.71,-2.71,-2.49,-2.43,7.77,7.70,7.69
75.87,10.43,2.79,10.36,2.73,-2.73,-2.50,-2.42,7.71,7.64,7.64
76.63,10.32,2.75,10.31,2.74,-2.74,-2.50,-2.42,7.58,7.57,7.57
77.40,10.24,2.74,10.25,2.74,-2.74,-2.51,-2.41,7.50,7.51,7.50
78.17,10.17,2.73,10.19,2.75,-2.75,-2.52,-2.41,7.43,7.44,7.44
78.95,10.04,2.66,10.14,2.76,-2.76,-2.53,-2.41,7.28,7.38,7.39
79.74,10.03,2.71,10.08,2.76,-2.76,-2.55,-2.41,7.27,7.32,7.32
80.54,10.03,2.77,10.02,2.76,-2.76,-2.56,-2.41,7.27,7.26,7.26
81.35,10.03,2.84,9.95,2.76,-2.76,-2.57,-2.41,7.27,7.19,7.19
82.16,9.98,2.84,9.88,2.76,-2.76,-2.58,-2.42,7.23,7.13,7.14
82.98,9.80,2.73,9.82,2.76,-2.76,-2.59,-2.42,7.04,7.06,7.07
83.81,9.80,2.80,9.76,2.76,-2.76,-2.61,-2.43,7.04,6.99,7.00
84.65,9.65,2.72,9.70,2.78,-2.78,-2.62,-2.44,6.87,6.92,6.93
85.50,9.57,2.73,9.64,2.79,-2.79,-2.63,-2.46,6.78,6.85,6.84
86.35,9.57,2.79,9.58,2.80,-2.80,-2.65,-2.47,6.78,6.78,6.78
87.22,9.52,2.82,9.51,2.81,-2.81,-2.66,-2.49,6.71,6.70,6.70
88.09,9.35,2.73,9.45,2.82,-2.82,-2.68,-2.50,6.53,6.63,6.63
88.97,9.35,2.80,9.38,2.82,-2.82,-2.69,-2.52,6.53,6.55,6.55
89.86,9.35,2.88,9.31,2.83,-2.83,-2.71,-2.54,6.52,6.47,6.47
90.76,9.33,2.94,9.24,2.84,-2.84,-2.72,-2.57,6.49,6.39,6.39
91.66,9.19,2.88,9.17,2.85,-2.85,-2.74,-2.59,6.34,6.31,6.31
92.58,9.12,2.88,9.10,2.87,-2.87,-2.75,-2.62,6.26,6.23,6.24
93.51,9.02,2.86,9.02,2.87,-2.87,-2.77,-2.65,6.15,6.15,6.16
94.44,8.91,2.83,8.96,2.89,-2.89,-2.79,-2.68,6.02,6.07,6.09
95.39,8.89,2.90,8.89,2.90,-2.90,-2.80,-2.71,5.99,5.99,5.99
96.34,8.86,2.96,8.82,2.92,-2.92,-2.82,-2.75,5.95,5.91,5.90
97.30,8.75,2.92,8.76,2.94,-2.94,-2.84,-2.78,5.82,5.82,5.83
98.28,8.66,2.93,8.69,2.95,-2.95,-2.86,-2.82,5.71,5.74,5.73
99.26,8.60,2.95,8.62,2.96,-2.96,-2.87,-2.86,5.65,5.66,5.65
100.25,8.44,2.87,8.55,2.97,-2.97,-2.89,-2.89,5.47,5.58,5.57
101.25,8.44,2.94,8.49,2.99,-2.99,-2.91,-2.93,5.46,5.51,5.50
102.27,8.44,3.02,8.43,3.00,-3.00,-2.93,-2.98,5.44,5.43,5.42
103.29,8.44,3.09,8.38,3.02,-3.02,-2.94,-3.02,5.42,5.35,5.35
104.32,8.39,3.11,8.31,3.03,-3.03,-2.96,-3.06,5.36,5.28,5.28
105.37,8.27,3.06,8.25,3.04,-3.04,-2.98,-3.10,5.23,5.21,5.21
106.42,8.21,3.07,8.18,3.04,-3.04,-3.00,-3.14,5.17,5.14,5.14
107.48,8.11,3.05,8.11,3.05,-3.05,-3.02,-3.19,5.07,5.07,5.06
108.56,7.99,2.99,8.05,3.05,-3.05,-3.04,-3.23,4.94,5.00,5.00
109.64,7.98,3.06,7.97,3.05,-3.05,-3.06,-3.27,4.94,4.93,4.93
110.74,7.97,3.11,7.90,3.05,-3.05,-3.07,-3.31,4.93,4.86,4.86
111.85,7.78,3.00,7.83,3.05,-3.05,-3.09,-3.34,4.73,4.78,4.79
112.97,7.75,3.03,7.75,3.04,-3.04,-3.11,-3.38,4.71,4.71,4.72
114.10,7.71,3.06,7.68,3.04,-3.04,-3.13,-3.41,4.67,4.64,4.65
115.24,7.52,2.96,7.61,3.04,-3.04,-3.15,-3.45,4.48,4.56,4.56
116.39,7.52,3.04,7.54,3.05,-3.05,-3.16,-3.47,4.47,4.49,4.48
117.55,7.51,3.10,7.48,3.07,-3.07,-3.18,-3.50,4.45,4.41,4.41
118.73,7.35,3.03,7.42,3.08,-3.08,-3.20,-3.52,4.27,4.33,4.33
119.92,7.30,3.06,7.36,3.10,-3.10,-3.22,-3.54,4.20,4.26,4.25
121.12,7.30,3.12,7.29,3.11,-3.11,-3.23,-3.56,4.19,4.18,4.18
122.33,7.30,3.21,7.23,3.13,-3.13,-3.25,-3.57,4.17,4.10,4.09
123.55,7.20,3.18,7.17,3.15,-3.15,-3.27,-3.58,4.05,4.02,4.02
124.79,7.08,3.14,7.11,3.17,-3.17,-3.28,-3.59,3.91,3.94,3.95
126.03,7.07,3.20,7.05,3.19,-3.19,-3.30,-3.59,3.88,3.86,3.87
127.29,7.00,3.22,6.98,3.20,-3.20,-3.31,-3.59,3.80,3.78,3.78
128.57,6.89,3.19,6.91,3.21,-3.21,-3.33,-3.58,3.68,3.70,3.70
129.85,6.84,3.22,6.84,3.22,-3.22,-3.34,-3.57,3.63,3.62,3.62
131.15,6.79,3.25,6.77,3.22,-3.22,-3.35,-3.56,3.57,3.55,3.55
132.46,6.66,3.20,6.69,3.22,-3.22,-3.37,-3.54,3.44,3.47,3.46
133.79,6.61,3.22,6.61,3.21,-3.21,-3.38,-3.52,3.40,3.39,3.39
135.12,6.60,3.29,6.53,3.21,-3.21,-3.39,-3.50,3.40,3.32,3.31
136.48,6.44,3.19,6.45,3.20,-3.20,-3.40,-3.48,3.24,3.25,3.25
137.84,6.38,3.20,6.38,3.20,-3.20,-3.42,-3.45,3.18,3.18,3.18
139.22,6.26,3.16,6.30,3.20,-3.20,-3.43,-3.42,3.06,3.11,3.10
140.61,6.17,3.14,6.23,3.19,-3.19,-3.44,-3.39,2.98,3.04,3.04
142.02,6.16,3.19,6.16,3.18,-3.18,-3.44,-3.36,2.98,2.97,2.97
143.44,6.14,3.24,6.09,3.18,-3.18,-3.45,-3.32,2.96,2.91,2.91
144.87,5.97,3.12,6.02,3.18,-3.18,-3.46,-3.29,2.80,2.85,2.85
146.32,5.94,3.15,5.97,3.18,-3.18,-3.47,-3.25,2.76,2.78,2.79
147.78,5.93,3.21,5.93,3.20,-3.20,-3.47,-3.22,2.73,2.72,2.72
149.26,5.93,3.27,5.88,3.22,-3.22,-3.48,-3.18,2.71,2.66,2.66
150.75,5.83,3.24,5.84,3.24,-3.24,-3.48,-3.15,2.59,2.60,2.59
152.26,5.74,3.20,5.81,3.27,-3.27,-3.48,-3.12,2.47,2.54,2.55
153.78,5.70,3.22,5.78,3.30,-3.30,-3.49,-3.08,2.41,2.48,2.48
155.32,5.70,3.27,5.74,3.32,-3.32,-3.49,-3.05,2.39,2.42,2.43
156.88,5.70,3.34,5.69,3.33,-3.33,-3.49,-3.02,2.37,2.36,2.36
158.44,5.70,3.40,5.66,3.35,-3.35,-3.49,-2.99,2.35,2.30,2.30
160.03,5.70,3.46,5.62,3.37,-3.37,-3.49,-2.96,2.33,2.24,2.24
161.63,5.70,3.52,5.58,3.40,-3.40,-3.48,-2.93,2.30,2.18,2.18
163.24,5.56,3.45,5.54,3.41,-3.41,-3.48,-2.91,2.15,2.12,2.12
164.88,5.47,3.41,5.49,3.42,-3.42,-3.48,-2.88,2.05,2.06,2.06
166.53,5.43,3.44,5.44,3.43,-3.43,-3.47,-2.86,2.00,2.01,2.00
168.19,5.31,3.36,5.39,3.45,-3.45,-3.46,-2.84,1.87,1.95,1.95
169.87,5.24,3.35,5.34,3.45,-3.45,-3.46,-2.83,1.79,1.88,1.89
171.57,5.24,3.41,5.27,3.45,-3.45,-3.45,-2.81,1.79,1.82,1.83
173.29,5.24,3.47,5.21,3.45,-3.45,-3.44,-2.80,1.80,1.76,1.77
175.02,5.24,3.53,5.14,3.44,-3.44,-3.43,-2.79,1.80,1.70,1.71
176.77,5.05,3.41,5.07,3.42,-3.42,-3.42,-2.78,1.63,1.64,1.64
178.54,5.02,3.44,5.00,3.42,-3.42,-3.40,-2.77,1.61,1.58,1.59
180.32,4.94,3.42,4.93,3.41,-3.41,-3.39,-2.77,1.53,1.52,1.52
182.13,4.84,3.38,4.87,3.41,-3.41,-3.37,-2.77,1.44,1.46,1.46
183.95,4.79,3.39,4.79,3.39,-3.39,-3.36,-2.77,1.40,1.40,1.41
185.79,4.79,3.46,4.72,3.38,-3.38,-3.34,-2.77,1.41,1.34,1.33
187.65,4.62,3.34,4.65,3.37,-3.37,-3.32,-2.77,1.25,1.28,1.28
189.52,4.56,3.34,4.58,3.35,-3.35,-3.30,-2.78,1.21,1.23,1.23
191.42,4.51,3.34,4.50,3.33,-3.33,-3.28,-2.79,1.18,1.17,1.18
193.33,4.38,3.26,4.43,3.31,-3.31,-3.26,-2.79,1.07,1.12,1.12
195.27,4.33,3.27,4.36,3.30,-3.30,-3.24,-2.81,1.04,1.07,1.06
197.22,4.33,3.32,4.30,3.28,-3.28,-3.22,-2.82,1.05,1.02,1.01
199.19,4.19,3.23,4.23,3.26,-3.26,-3.19,-2.83,0.93,0.97,0.97
201.18,4.10,3.19,4.17,3.24,-3.24,-3.17,-2.85,0.86,0.92,0.91
203.19,4.10,3.23,4.10,3.22,-3.22,-3.14,-2.86,0.89,0.88,0.87
205.23,4.10,3.26,4.02,3.19,-3.19,-3.11,-2.88,0.92,0.84,0.84
207.28,4.02,3.22,3.96,3.16,-3.16,-3.08,-2.90,0.86,0.79,0.80
209.35,3.91,3.16,3.90,3.15,-3.15,-3.06,-2.92,0.76,0.75,0.75
211.44,3.88,3.17,3.83,3.12,-3.12,-3.03,-2.94,0.76,0.71,0.71
213.56,3.72,3.05,3.77,3.10,-3.10,-2.99,-2.95,0.62,0.67,0.68
215.69,3.65,3.01,3.71,3.08,-3.08,-2.96,-2.97,0.57,0.63,0.64
217.85,3.65,3.05,3.65,3.05,-3.05,-2.93,-2.99,0.60,0.60,0.61
220.03,3.56,3.00,3.58,3.02,-3.02,-2.90,-3.00,0.54,0.56,0.56
222.23,3.46,2.95,3.51,2.99,-2.99,-2.86,-3.02,0.47,0.52,0.52
224.45,3.42,2.94,3.45,2.96,-2.96,-2.83,-3.03,0.46,0.49,0.48
226.70,3.42,2.97,3.39,2.93,-2.93,-2.79,-3.04,0.49,0.45,0.45
228.96,3.42,3.00,3.32,2.90,-2.90,-2.75,-3.05,0.52,0.42,0.42
231.25,3.25,2.86,3.27,2.88,-2.88,-2.72,-3.06,0.37,0.39,0.39
233.57,3.19,2.83,3.22,2.86,-2.86,-2.68,-3.06,0.33,0.36,0.36
235.90,3.19,2.86,3.16,2.83,-2.83,-2.64,-3.06,0.36,0.33,0.33
238.26,3.08,2.79,3.10,2.80,-2.80,-2.60,-3.06,0.28,0.30,0.29
240.64,2.98,2.70,3.04,2.77,-2.77,-2.56,-3.05,0.22,0.28,0.28
243.05,2.96,2.71,2.99,2.73,-2.73,-2.52,-3.04,0.23,0.25,0.26
245.48,2.96,2.73,2.93,2.70,-2.70,-2.48,-3.03,0.26,0.23,0.23
247.93,2.96,2.76,2.88,2.67,-2.67,-2.44,-3.01,0.29,0.21,0.20
250.41,2.78,2.59,2.82,2.63,-2.63,-2.39,-2.99,0.15,0.19,0.20
252.92,2.74,2.57,2.76,2.59,-2.59,-2.35,-2.96,0.16,0.17,0.17
255.45,2.74,2.60,2.69,2.54,-2.54,-2.31,-2.93,0.20,0.15,0.15
258.00,2.60,2.47,2.63,2.50,-2.50,-2.26,-2.89,0.10,0.14,0.13
260.58,2.51,2.39,2.57,2.45,-2.45,-2.22,-2.86,0.06,0.12,0.12
263.19,2.51,2.41,2.51,2.40,-2.40,-2.17,-2.81,0.11,0.11,0.11
265.82,2.51,2.42,2.45,2.36,-2.36,-2.13,-2.77,0.15,0.09,0.09
268.48,2.45,2.37,2.39,2.31,-2.31,-2.08,-2.71,0.14,0.08,0.08
271.16,2.32,2.24,2.32,2.25,-2.25,-2.04,-2.66,0.07,0.07,0.08
273.87,2.28,2.21,2.26,2.20,-2.20,-1.99,-2.60,0.08,0.06,0.07
276.61,2.15,2.10,2.21,2.16,-2.16,-1.94,-2.54,-0.00,0.05,0.06
279.38,2.07,2.04,2.16,2.11,-2.11,-1.90,-2.48,-0.04,0.05,0.04
282.17,2.05,2.02,2.10,2.06,-2.06,-1.85,-2.42,-0.00,0.04,0.04
284.99,2.05,2.02,2.05,2.01,-2.01,-1.80,-2.35,0.04,0.04,0.04
287.84,2.05,2.02,2.00,1.97,-1.97,-1.75,-2.28,0.09,0.03,0.04
290.72,1.98,1.95,1.95,1.91,-1.91,-1.71,-2.21,0.07,0.03,0.03
293.63,1.85,1.82,1.89,1.86,-1.86,-1.66,-2.14,-0.01,0.03,0.03
296.57,1.83,1.80,1.83,1.80,-1.80,-1.61,-2.06,0.03,0.03,0.03
299.53,1.83,1.81,1.78,1.76,-1.76,-1.56,-1.99,0.07,0.02,0.02
302.53,1.82,1.79,1.74,1.72,-1.72,-1.51,-1.91,0.10,0.02,0.03
305.55,1.63,1.61,1.70,1.67,-1.67,-1.46,-1.84,-0.04,0.02,0.03
308.61,1.60,1.57,1.66,1.63,-1.63,-1.41,-1.76,-0.03,0.02,0.03
311.69,1.60,1.58,1.61,1.59,-1.59,-1.36,-1.69,0.02,0.02,0.02
314.81,1.60,1.58,1.55,1.53,-1.53,-1.31,-1.61,0.07,0.02,0.03
317.96,1.46,1.44,1.49,1.47,-1.47,-1.26,-1.53,-0.01,0.02,0.02
321.14,1.37,1.35,1.44,1.41,-1.41,-1.21,-1.46,-0.04,0.03,0.02
324.35,1.37,1.36,1.39,1.36,-1.36,-1.16,-1.38,0.01,0.03,0.02
327.59,1.37,1.33,1.34,1.30,-1.30,-1.11,-1.31,0.07,0.03,0.04
330.87,1.37,1.34,1.27,1.24,-1.24,-1.06,-1.23,0.13,0.03,0.04
334.18,1.27,1.24,1.21,1.17,-1.17,-1.02,-1.16,0.10,0.04,0.03
337.52,1.15,1.12,1.15,1.11,-1.11,-0.97,-1.08,0.05,0.04,0.04
340.90,1.14,1.09,1.10,1.05,-1.05,-0.91,-1.01,0.09,0.05,0.05
344.30,0.96,0.91,1.04,0.99,-0.99,-0.86,-0.94,-0.03,0.05,0.06
347.75,0.91,0.85,0.98,0.93,-0.93,-0.81,-0.87,-0.01,0.06,0.06
351.23,0.91,0.86,0.93,0.86,-0.86,-0.76,-0.79,0.05,0.07,0.06
354.74,0.91,0.83,0.88,0.81,-0.81,-0.71,-0.72,0.11,0.07,0.08
358.28,0.80,0.72,0.83,0.75,-0.75,-0.66,-0.65,0.06,0.08,0.08
361.87,0.71,0.63,0.78,0.69,-0.69,-0.61,-0.58,0.02,0.08,0.08
365.49,0.69,0.60,0.73,0.64,-0.64,-0.56,-0.51,0.05,0.09,0.09
369.14,0.69,0.60,0.68,0.59,-0.59,-0.51,-0.44,0.10,0.09,0.10
372.83,0.69,0.59,0.64,0.55,-0.55,-0.46,-0.38,0.14,0.10,0.10
376.56,0.69,0.59,0.61,0.51,-0.51,-0.42,-0.31,0.18,0.10,0.10
380.33,0.59,0.49,0.58,0.47,-0.47,-0.37,-0.24,0.12,0.10,0.11
384.13,0.48,0.37,0.54,0.44,-0.44,-0.32,-0.17,0.05,0.11,0.11
387.97,0.46,0.35,0.49,0.38,-0.38,-0.27,-0.11,0.08,0.11,0.11
391.85,0.46,0.34,0.44,0.33,-0.33,-0.22,-0.04,0.13,0.11,0.12
395.77,0.46,0.36,0.39,0.28,-0.28,-0.17,0.02,0.19,0.12,0.10
399.73,0.40,0.29,0.36,0.23,-0.23,-0.12,0.09,0.17,0.12,0.11
403.72,0.27,0.14,0.32,0.19,-0.19,-0.07,0.15,0.08,0.13,0.13
407.76,0.23,0.11,0.27,0.13,-0.13,-0.02,0.21,0.10,0.13,0.13
411.84,0.23,0.09,0.21,0.07,-0.07,0.03,0.27,0.16,0.14,0.14
415.96,0.23,0.08,0.16,0.01,-0.01,0.08,0.34,0.22,0.15,0.15
420.12,0.05,-0.10,0.11,-0.04,0.04,0.13,0.40,0.10,0.16,0.15
424.32,0.00,-0.17,0.08,-0.09,0.09,0.18,0.46,0.09,0.17,0.17
428.56,0.00,-0.18,0.04,-0.14,0.14,0.23,0.51,0.14,0.18,0.19
432.85,0.00,-0.19,-0.00,-0.19,0.19,0.27,0.57,0.20,0.19,0.19
437.18,0.00,-0.20,-0.05,-0.25,0.25,0.32,0.63,0.25,0.20,0.20
441.55,0.00,-0.21,-0.09,-0.31,0.31,0.37,0.68,0.31,0.21,0.21
445.96,-0.16,-0.39,-0.13,-0.36,0.36,0.42,0.74,0.20,0.23,0.23
450.42,-0.23,-0.46,-0.16,-0.40,0.40,0.47,0.79,0.17,0.24,0.24
454.93,-0.23,-0.48,-0.20,-0.45,0.45,0.52,0.84,0.22,0.25,0.26
459.48,-0.23,-0.49,-0.23,-0.50,0.50,0.56,0.89,0.27,0.27,0.26
464.07,-0.23,-0.51,-0.27,-0.55,0.55,0.61,0.93,0.32,0.28,0.28
468.71,-0.23,-0.53,-0.30,-0.59,0.59,0.66,0.98,0.37,0.29,0.30
473.40,-0.37,-0.68,-0.34,-0.65,0.65,0.71,1.02,0.28,0.31,0.31
478.13,-0.44,-0.77,-0.39,-0.71,0.71,0.75,1.06,0.27,0.32,0.33
482.91,-0.45,-0.78,-0.43,-0.77,0.77,0.80,1.10,0.32,0.34,0.34
487.74,-0.45,-0.80,-0.47,-0.83,0.83,0.85,1.14,0.38,0.36,0.36
492.62,-0.45,-0.82,-0.50,-0.88,0.88,0.89,1.18,0.43,0.37,0.37
497.55,-0.45,-0.83,-0.52,-0.91,0.91,0.94,1.21,0.47,0.39,0.38
