frequency,raw,error,smoothed,error_smoothed,equalization,parametric_eq,fixed_band_eq,equalized_raw,equalized_smoothed,target
20.00,-13.64,-15.11,-13.64,-15.13,15.13,14.38,6.52,1.49,1.49,1.47
20.20,-13.54,-15.10,-13.54,-15.11,15.11,14.46,6.68,1.57,1.57,1.56
20.40,-13.45,-15.09,-13.45,-15.09,15.09,14.54,6.83,1.64,1.64,1.64
20.61,-13.35,-15.06,-13.35,-15.06,15.06,14.60,7.00,1.71,1.71,1.70
20.81,-13.26,-15.05,-13.25,-15.04,15.04,14.67,7.16,1.78,1.78,1.80
21.02,-13.16,-15.03,-13.16,-15.01,15.01,14.72,7.33,1.85,1.85,1.87
21.23,-13.06,-14.99,-13.06,-14.97,14.97,14.77,7.50,1.91,1.91,1.93
21.44,-12.96,-14.95,-12.96,-14.94,14.94,14.81,7.68,1.98,1.97,1.99
21.66,-12.87,-14.91,-12.87,-14.90,14.90,14.85,7.87,2.03,2.03,2.04
21.87,-12.77,-14.86,-12.77,-14.85,14.85,14.88,8.06,2.09,2.08,2.09
22.09,-12.67,-14.81,-12.67,-14.81,14.81,14.90,8.25,2.14,2.14,2.14
22.31,-12.57,-14.76,-12.58,-14.76,14.76,14.91,8.45,2.19,2.19,2.19
22.54,-12.48,-14.71,-12.48,-14.71,14.71,14.92,8.66,2.23,2.23,2.23
22.76,-12.38,-14.65,-12.38,-14.65,14.65,14.92,8.87,2.27,2.27,2.27
22.99,-12.28,-14.58,-12.28,-14.59,14.59,14.91,9.08,2.31,2.31,2.30
23.22,-12.19,-14.53,-12.18,-14.53,14.53,14.90,9.30,2.34,2.35,2.34
23.45,-12.09,-14.47,-12.09,-14.47,14.47,14.88,9.53,2.38,2.39,2.38
23.69,-11.99,-14.41,-11.99,-14.41,14.41,14.85,9.77,2.42,2.42,2.42
23.92,-11.89,-14.35,-11.89,-14.35,14.35,14.82,10.01,2.46,2.46,2.46
24.16,-11.79,-14.29,-11.79,-14.28,14.28,14.78,10.26,2.49,2.49,2.51
24.40,-11.69,-14.22,-11.69,-14.22,14.22,14.74,10.51,2.53,2.53,2.53
24.65,-11.59,-14.15,-11.59,-14.15,14.15,14.69,10.77,2.56,2.56,2.56
24.89,-11.49,-14.08,-11.49,-14.09,14.09,14.63,11.04,2.60,2.60,2.59
25.14,-11.39,-14.02,-11.39,-14.02,14.02,14.57,11.31,2.63,2.63,2.63
25.39,-11.29,-13.95,-11.29,-13.96,13.96,14.51,11.59,2.67,2.66,2.66
25.65,-11.20,-13.90,-11.19,-13.89,13.89,14.44,11.88,2.69,2.69,2.70
25.91,-11.10,-13.82,-11.10,-13.82,13.82,14.36,12.17,2.72,2.72,2.72
26.16,-11.00,-13.75,-11.00,-13.75,13.75,14.29,12.47,2.76,2.76,2.75
26.43,-10.90,-13.69,-10.90,-13.69,13.69,14.21,12.77,2.78,2.78,2.78
26.69,-10.80,-13.61,-10.80,-13.62,13.62,14.12,13.08,2.82,2.81,2.81
26.96,-10.71,-13.55,-10.71,-13.55,13.55,14.04,13.39,2.84,2.84,2.84
27.23,-10.61,-13.49,-10.61,-13.48,13.48,13.95,13.70,2.87,2.87,2.88
27.50,-10.51,-13.42,-10.51,-13.42,13.42,13.86,14.01,2.91,2.90,2.91
27.77,-10.42,-13.35,-10.42,-13.35,13.35,13.77,14.32,2.93,2.93,2.93
28.05,-10.32,-13.29,-10.32,-13.29,13.29,13.67,14.63,2.97,2.96,2.97
28.33,-10.23,-13.21,-10.23,-13.22,13.22,13.58,14.93,2.99,2.99,2.99
28.62,-10.14,-13.15,-10.13,-13.16,13.16,13.48,15.23,3.01,3.02,3.01
28.90,-10.04,-13.09,-10.04,-13.09,13.09,13.39,15.51,3.05,3.05,3.05
29.19,-9.95,-13.02,-9.95,-13.03,13.03,13.29,15.77,3.08,3.08,3.07
29.48,-9.85,-12.97,-9.85,-12.96,12.96,13.19,16.01,3.11,3.11,3.12
29.78,-9.76,-12.90,-9.76,-12.90,12.90,13.09,16.22,3.13,3.13,3.14
30.08,-9.67,-12.84,-9.67,-12.83,12.83,12.99,16.41,3.16,3.16,3.16
30.38,-9.58,-12.77,-9.58,-12.77,12.77,12.90,16.56,3.19,3.19,3.19
30.68,-9.49,-12.71,-9.49,-12.70,12.70,12.80,16.67,3.21,3.22,3.22
30.99,-9.39,-12.63,-9.40,-12.64,12.64,12.70,16.74,3.25,3.24,3.24
31.30,-9.31,-12.58,-9.31,-12.58,12.58,12.60,16.77,3.27,3.27,3.26
31.61,-9.22,-12.51,-9.22,-12.51,12.51,12.51,16.75,3.29,3.29,3.29
31.93,-9.13,-12.44,-9.14,-12.45,12.45,12.41,16.70,3.32,3.31,3.31
32.24,-9.05,-12.38,-9.05,-12.39,12.39,12.32,16.60,3.34,3.34,3.33
32.57,-8.97,-12.33,-8.97,-12.32,12.32,12.22,16.48,3.35,3.36,3.35
32.89,-8.89,-12.27,-8.89,-12.26,12.26,12.13,16.31,3.37,3.38,3.38
33.22,-8.80,-12.20,-8.80,-12.20,12.20,12.04,16.13,3.40,3.39,3.40
33.55,-8.72,-12.13,-8.72,-12.13,12.13,11.95,15.91,3.41,3.41,3.42
33.89,-8.64,-12.06,-8.64,-12.06,12.06,11.86,15.69,3.42,3.43,3.42
34.23,-8.56,-12.01,-8.56,-12.00,12.00,11.77,15.44,3.44,3.44,3.45
34.57,-8.48,-11.94,-8.48,-11.93,11.93,11.69,15.19,3.45,3.45,3.46
34.92,-8.40,-11.86,-8.40,-11.86,11.86,11.60,14.93,3.46,3.46,3.46
35.27,-8.32,-11.80,-8.32,-11.79,11.79,11.52,14.67,3.47,3.47,3.48
35.62,-8.24,-11.71,-8.24,-11.72,11.72,11.44,14.40,3.48,3.48,3.47
35.97,-8.16,-11.64,-8.16,-11.65,11.65,11.36,14.14,3.49,3.49,3.48
36.33,-8.08,-11.57,-8.08,-11.57,11.57,11.28,13.88,3.49,3.49,3.50
36.70,-8.00,-11.49,-8.01,-11.50,11.50,11.20,13.62,3.50,3.49,3.49
37.06,-7.93,-11.42,-7.93,-11.42,11.42,11.12,13.37,3.49,3.49,3.49
37.43,-7.86,-11.35,-7.86,-11.35,11.35,11.05,13.12,3.49,3.49,3.49
37.81,-7.79,-11.28,-7.78,-11.27,11.27,10.98,12.88,3.48,3.49,3.49
38.19,-7.71,-11.19,-7.71,-11.19,11.19,10.91,12.65,3.48,3.48,3.48
38.57,-7.64,-11.13,-7.64,-11.12,11.12,10.84,12.42,3.48,3.48,3.49
38.95,-7.56,-11.04,-7.56,-11.04,11.04,10.77,12.20,3.48,3.48,3.48
39.34,-7.49,-10.95,-7.49,-10.96,10.96,10.70,11.99,3.47,3.47,3.47
39.74,-7.42,-10.88,-7.42,-10.89,10.89,10.64,11.79,3.47,3.47,3.46
40.14,-7.36,-10.81,-7.36,-10.81,10.81,10.58,11.59,3.45,3.46,3.45
40.54,-7.29,-10.74,-7.29,-10.74,10.74,10.52,11.41,3.45,3.45,3.45
40.94,-7.22,-10.66,-7.22,-10.66,10.66,10.46,11.23,3.44,3.44,3.44
41.35,-7.15,-10.58,-7.15,-10.58,10.58,10.40,11.05,3.43,3.43,3.43
41.76,-7.08,-10.50,-7.08,-10.50,10.50,10.34,10.89,3.42,3.42,3.43
42.18,-7.01,-10.43,-7.02,-10.43,10.43,10.29,10.73,3.42,3.41,3.42
42.60,-6.95,-10.35,-6.95,-10.35,10.35,10.23,10.58,3.40,3.40,3.40
43.03,-6.89,-10.29,-6.88,-10.27,10.27,10.18,10.44,3.38,3.39,3.40
43.46,-6.82,-10.20,-6.82,-10.20,10.20,10.13,10.30,3.38,3.38,3.38
43.90,-6.76,-10.13,-6.75,-10.12,10.12,10.08,10.17,3.36,3.36,3.37
44.33,-6.69,-10.04,-6.69,-10.04,10.04,10.03,10.05,3.35,3.35,3.35
44.78,-6.62,-9.96,-6.63,-9.97,9.97,9.98,9.94,3.35,3.34,3.34
45.23,-6.56,-9.88,-6.56,-9.89,9.89,9.93,9.83,3.33,3.33,3.32
45.68,-6.50,-9.81,-6.50,-9.82,9.82,9.89,9.73,3.32,3.32,3.31
46.13,-6.44,-9.74,-6.44,-9.74,9.74,9.84,9.63,3.30,3.30,3.30
46.60,-6.38,-9.68,-6.38,-9.67,9.67,9.80,9.54,3.29,3.29,3.30
47.06,-6.32,-9.60,-6.32,-9.60,9.60,9.75,9.46,3.28,3.28,3.28
47.53,-6.26,-9.53,-6.26,-9.53,9.53,9.71,9.38,3.27,3.27,3.27
48.01,-6.20,-9.47,-6.20,-9.46,9.46,9.67,9.31,3.26,3.26,3.27
48.49,-6.14,-9.40,-6.14,-9.39,9.39,9.62,9.24,3.25,3.25,3.26
48.97,-6.08,-9.32,-6.09,-9.33,9.33,9.58,9.18,3.25,3.24,3.25
49.46,-6.03,-9.25,-6.03,-9.26,9.26,9.54,9.13,3.23,3.24,3.22
49.96,-5.97,-9.18,-5.97,-9.20,9.20,9.50,9.07,3.23,3.23,3.21
50.46,-5.92,-9.13,-5.91,-9.14,9.14,9.45,9.02,3.22,3.22,3.21
50.96,-5.86,-9.08,-5.86,-9.07,9.07,9.41,8.98,3.21,3.22,3.22
51.47,-5.81,-9.01,-5.80,-9.01,9.01,9.37,8.94,3.20,3.21,3.20
51.99,-5.75,-8.95,-5.75,-8.95,8.95,9.32,8.90,3.20,3.20,3.20
52.51,-5.70,-8.90,-5.70,-8.89,8.89,9.28,8.87,3.19,3.19,3.20
53.03,-5.65,-8.84,-5.64,-8.83,8.83,9.23,8.83,3.18,3.19,3.19
53.56,-5.58,-8.77,-5.59,-8.77,8.77,9.19,8.80,3.19,3.18,3.19
54.10,-5.52,-8.70,-5.54,-8.71,8.71,9.14,8.77,3.19,3.17,3.18
54.64,-5.49,-8.65,-5.49,-8.65,8.65,9.09,8.74,3.15,3.16,3.16
55.18,-5.44,-8.59,-5.44,-8.58,8.58,9.04,8.71,3.14,3.15,3.15
55.74,-5.39,-8.52,-5.39,-8.52,8.52,8.99,8.68,3.13,3.13,3.13
56.29,-5.34,-8.46,-5.34,-8.45,8.45,8.94,8.65,3.11,3.12,3.12
56.86,-5.29,-8.39,-5.29,-8.39,8.39,8.88,8.62,3.10,3.10,3.10
57.42,-5.24,-8.31,-5.24,-8.32,8.32,8.83,8.59,3.08,3.08,3.07
58.00,-5.19,-8.25,-5.19,-8.25,8.25,8.77,8.55,3.06,3.06,3.06
58.58,-5.14,-8.18,-5.14,-8.18,8.18,8.71,8.51,3.04,3.04,3.04
59.16,-5.09,-8.11,-5.10,-8.11,8.11,8.65,8.47,3.02,3.01,3.02
59.76,-5.05,-8.05,-5.05,-8.03,8.03,8.58,8.43,2.98,2.98,3.00
60.35,-5.01,-7.97,-5.00,-7.96,7.96,8.52,8.38,2.95,2.96,2.96
60.96,-4.96,-7.91,-4.96,-7.88,7.88,8.45,8.32,2.92,2.93,2.95
61.57,-4.91,-7.81,-4.91,-7.81,7.81,8.38,8.26,2.90,2.90,2.90
62.18,-4.87,-7.73,-4.87,-7.74,7.74,8.31,8.20,2.87,2.87,2.86
62.80,-4.82,-7.66,-4.82,-7.67,7.67,8.24,8.13,2.85,2.84,2.84
63.43,-4.78,-7.58,-4.78,-7.60,7.60,8.17,8.05,2.82,2.82,2.80
64.07,-4.73,-7.51,-4.74,-7.53,7.53,8.09,7.97,2.80,2.79,2.78
64.71,-4.68,-7.44,-4.69,-7.46,7.46,8.01,7.89,2.78,2.77,2.76
65.35,-4.64,-7.37,-4.65,-7.40,7.40,7.93,7.80,2.76,2.75,2.74
66.01,-4.61,-7.33,-4.61,-7.33,7.33,7.85,7.71,2.72,2.72,2.72
66.67,-4.57,-7.28,-4.56,-7.27,7.27,7.77,7.61,2.70,2.71,2.71
67.33,-4.53,-7.22,-4.52,-7.21,7.21,7.69,7.51,2.68,2.69,2.69
68.01,-4.49,-7.17,-4.48,-7.15,7.15,7.60,7.40,2.66,2.67,2.67
68.69,-4.44,-7.10,-4.44,-7.10,7.10,7.51,7.29,2.66,2.66,2.66
69.37,-4.40,-7.05,-4.40,-7.04,7.04,7.43,7.18,2.64,2.65,2.65
70.07,-4.36,-6.99,-4.36,-6.99,6.99,7.34,7.07,2.63,2.63,2.63
70.77,-4.31,-6.94,-4.32,-6.93,6.93,7.25,6.95,2.62,2.62,2.63
71.48,-4.27,-6.88,-4.28,-6.88,6.88,7.16,6.84,2.61,2.60,2.61
72.19,-4.22,-6.81,-4.24,-6.82,6.82,7.08,6.72,2.60,2.58,2.59
72.91,-4.18,-6.75,-4.19,-6.76,6.76,6.99,6.60,2.58,2.57,2.57
73.64,-4.15,-6.70,-4.15,-6.70,6.70,6.90,6.48,2.55,2.55,2.55
74.38,-4.12,-6.65,-4.11,-6.64,6.64,6.81,6.37,2.52,2.53,2.53
75.12,-4.09,-6.60,-4.08,-6.58,6.58,6.72,6.25,2.49,2.51,2.51
75.87,-4.05,-6.54,-4.04,-6.53,6.53,6.63,6.14,2.48,2.49,2.49
76.63,-4.01,-6.48,-4.00,-6.47,6.47,6.55,6.02,2.46,2.47,2.47
77.40,-3.97,-6.41,-3.96,-6.41,6.41,6.46,5.91,2.44,2.45,2.44
78.17,-3.92,-6.33,-3.93,-6.36,6.36,6.38,5.80,2.44,2.43,2.41
78.95,-3.88,-6.29,-3.89,-6.30,6.30,6.29,5.69,2.42,2.41,2.41
79.74,-3.85,-6.24,-3.86,-6.25,6.25,6.21,5.59,2.40,2.39,2.39
80.54,-3.82,-6.19,-3.83,-6.20,6.20,6.13,5.48,2.38,2.38,2.37
81.35,-3.79,-6.14,-3.79,-6.15,6.15,6.06,5.38,2.36,2.36,2.35
82.16,-3.75,-6.09,-3.76,-6.11,6.11,5.98,5.28,2.36,2.35,2.34
82.98,-3.72,-6.05,-3.72,-6.06,6.06,5.91,5.19,2.34,2.34,2.33
83.81,-3.70,-6.02,-3.69,-6.02,6.02,5.84,5.10,2.32,2.32,2.32
84.65,-3.67,-5.97,-3.66,-5.97,5.97,5.77,5.01,2.30,2.31,2.30
85.50,-3.65,-5.95,-3.63,-5.93,5.93,5.71,4.92,2.28,2.30,2.30
86.35,-3.61,-5.90,-3.60,-5.89,5.89,5.65,4.84,2.28,2.29,2.29
87.22,-3.57,-5.84,-3.57,-5.85,5.85,5.59,4.76,2.28,2.28,2.27
88.09,-3.53,-5.79,-3.54,-5.80,5.80,5.53,4.68,2.27,2.26,2.26
88.97,-3.49,-5.74,-3.51,-5.75,5.75,5.48,4.61,2.26,2.24,2.25
89.86,-3.46,-5.69,-3.47,-5.69,5.69,5.44,4.54,2.23,2.22,2.23
90.76,-3.43,-5.63,-3.44,-5.63,5.63,5.39,4.47,2.20,2.20,2.20
91.66,-3.41,-5.58,-3.40,-5.57,5.57,5.35,4.41,2.16,2.17,2.17
92.58,-3.38,-5.51,-3.36,-5.49,5.49,5.31,4.35,2.11,2.13,2.13
93.51,-3.35,-5.46,-3.32,-5.42,5.42,5.27,4.29,2.07,2.09,2.11
94.44,-3.31,-5.37,-3.29,-5.34,5.34,5.23,4.24,2.03,2.05,2.06
95.39,-3.26,-5.28,-3.25,-5.25,5.25,5.19,4.18,1.99,2.00,2.02
96.34,-3.21,-5.17,-3.22,-5.17,5.17,5.15,4.13,1.96,1.95,1.96
97.30,-3.16,-5.05,-3.18,-5.08,5.08,5.10,4.09,1.92,1.89,1.89
98.28,-3.12,-4.96,-3.15,-4.98,4.98,5.05,4.04,1.86,1.83,1.84
99.26,-3.09,-4.86,-3.11,-4.89,4.89,5.00,4.00,1.80,1.77,1.77
100.25,-3.06,-4.76,-3.08,-4.78,4.78,4.93,3.96,1.72,1.71,1.70
101.25,-3.04,-4.68,-3.04,-4.68,4.68,4.86,3.92,1.64,1.64,1.64
102.27,-3.02,-4.59,-3.01,-4.58,4.58,4.77,3.88,1.56,1.57,1.57
103.29,-3.00,-4.49,-2.98,-4.48,4.48,4.68,3.85,1.48,1.50,1.49
104.32,-2.98,-4.41,-2.94,-4.37,4.37,4.58,3.81,1.39,1.43,1.43
105.37,-2.93,-4.29,-2.91,-4.27,4.27,4.47,3.78,1.34,1.36,1.36
106.42,-2.88,-4.17,-2.88,-4.17,4.17,4.36,3.75,1.29,1.29,1.29
107.48,-2.84,-4.06,-2.85,-4.08,4.08,4.24,3.72,1.24,1.22,1.22
108.56,-2.80,-3.95,-2.82,-3.98,3.98,4.12,3.69,1.18,1.15,1.15
109.64,-2.77,-3.85,-2.79,-3.88,3.88,4.00,3.66,1.11,1.09,1.08
110.74,-2.75,-3.78,-2.75,-3.78,3.78,3.88,3.63,1.03,1.02,1.03
111.85,-2.73,-3.70,-2.72,-3.68,3.68,3.76,3.60,0.95,0.96,0.97
112.97,-2.70,-3.59,-2.68,-3.58,3.58,3.65,3.57,0.88,0.90,0.89
114.10,-2.66,-3.51,-2.65,-3.49,3.49,3.53,3.54,0.83,0.84,0.85
115.24,-2.62,-3.40,-2.61,-3.40,3.40,3.42,3.51,0.78,0.79,0.78
116.39,-2.59,-3.31,-2.58,-3.32,3.32,3.31,3.48,0.73,0.74,0.72
117.55,-2.55,-3.23,-2.55,-3.24,3.24,3.20,3.44,0.69,0.69,0.68
118.73,-2.51,-3.13,-2.52,-3.16,3.16,3.10,3.41,0.65,0.64,0.62
119.92,-2.46,-3.05,-2.49,-3.08,3.08,3.00,3.37,0.62,0.59,0.59
121.12,-2.44,-2.99,-2.46,-3.01,3.01,2.91,3.33,0.57,0.55,0.55
122.33,-2.42,-2.92,-2.43,-2.93,2.93,2.82,3.29,0.51,0.51,0.50
123.55,-2.40,-2.87,-2.40,-2.86,2.86,2.73,3.25,0.46,0.46,0.47
124.79,-2.37,-2.80,-2.37,-2.79,2.79,2.64,3.20,0.42,0.43,0.43
126.03,-2.34,-2.74,-2.34,-2.72,2.72,2.56,3.15,0.38,0.39,0.40
127.29,-2.33,-2.69,-2.31,-2.66,2.66,2.47,3.10,0.33,0.35,0.36
128.57,-2.30,-2.61,-2.28,-2.59,2.59,2.39,3.05,0.29,0.31,0.31
129.85,-2.25,-2.53,-2.26,-2.53,2.53,2.32,3.00,0.28,0.27,0.28
131.15,-2.22,-2.46,-2.23,-2.47,2.47,2.24,2.94,0.25,0.24,0.24
132.46,-2.20,-2.39,-2.21,-2.40,2.40,2.17,2.88,0.20,0.20,0.19
133.79,-2.17,-2.33,-2.18,-2.34,2.34,2.10,2.82,0.17,0.16,0.16
135.12,-2.15,-2.27,-2.15,-2.27,2.27,2.03,2.76,0.12,0.12,0.12
136.48,-2.13,-2.21,-2.12,-2.20,2.20,1.96,2.69,0.07,0.08,0.08
137.84,-2.09,-2.13,-2.09,-2.13,2.13,1.90,2.63,0.04,0.04,0.04
139.22,-2.07,-2.06,-2.07,-2.06,2.06,1.83,2.56,-0.01,-0.00,-0.01
140.61,-2.05,-1.99,-2.04,-1.99,1.99,1.77,2.49,-0.06,-0.05,-0.06
142.02,-2.01,-1.92,-2.01,-1.92,1.92,1.71,2.42,-0.09,-0.09,-0.09
143.44,-1.99,-1.86,-1.98,-1.85,1.85,1.65,2.35,-0.14,-0.13,-0.13
144.87,-1.95,-1.77,-1.95,-1.78,1.78,1.59,2.27,-0.17,-0.18,-0.18
146.32,-1.92,-1.70,-1.92,-1.70,1.70,1.53,2.20,-0.22,-0.22,-0.22
147.78,-1.89,-1.63,-1.89,-1.62,1.62,1.47,2.13,-0.27,-0.27,-0.26
149.26,-1.86,-1.55,-1.86,-1.54,1.54,1.41,2.05,-0.31,-0.31,-0.31
150.75,-1.83,-1.47,-1.83,-1.46,1.46,1.36,1.98,-0.37,-0.36,-0.36
152.26,-1.81,-1.40,-1.79,-1.38,1.38,1.30,1.90,-0.43,-0.41,-0.41
153.78,-1.78,-1.33,-1.76,-1.31,1.31,1.25,1.83,-0.47,-0.46,-0.45
155.32,-1.75,-1.25,-1.74,-1.23,1.23,1.19,1.75,-0.52,-0.51,-0.50
156.88,-1.70,-1.15,-1.71,-1.16,1.16,1.14,1.68,-0.54,-0.56,-0.55
158.44,-1.68,-1.07,-1.69,-1.09,1.09,1.09,1.60,-0.59,-0.61,-0.61
160.03,-1.65,-0.99,-1.68,-1.02,1.02,1.03,1.53,-0.63,-0.66,-0.66
161.63,-1.63,-0.92,-1.66,-0.96,0.96,0.98,1.45,-0.67,-0.71,-0.71
163.24,-1.62,-0.86,-1.65,-0.89,0.89,0.93,1.38,-0.73,-0.76,-0.76
164.88,-1.61,-0.80,-1.64,-0.83,0.83,0.88,1.30,-0.78,-0.81,-0.81
166.53,-1.62,-0.77,-1.63,-0.78,0.78,0.83,1.23,-0.84,-0.85,-0.85
168.19,-1.63,-0.73,-1.62,-0.72,0.72,0.78,1.16,-0.91,-0.90,-0.90
169.87,-1.63,-0.69,-1.61,-0.66,0.66,0.73,1.08,-0.97,-0.94,-0.94
171.57,-1.63,-0.64,-1.59,-0.61,0.61,0.68,1.01,-1.02,-0.99,-0.99
173.29,-1.62,-0.59,-1.58,-0.55,0.55,0.64,0.94,-1.07,-1.03,-1.03
175.02,-1.58,-0.51,-1.56,-0.49,0.49,0.59,0.87,-1.09,-1.07,-1.07
176.77,-1.56,-0.45,-1.54,-0.44,0.44,0.54,0.80,-1.12,-1.11,-1.11
178.54,-1.54,-0.39,-1.52,-0.38,0.38,0.49,0.73,-1.16,-1.14,-1.15
180.32,-1.50,-0.32,-1.49,-0.32,0.32,0.44,0.66,-1.18,-1.17,-1.18
182.13,-1.47,-0.27,-1.46,-0.26,0.26,0.40,0.59,-1.21,-1.20,-1.20
183.95,-1.42,-0.19,-1.43,-0.21,0.21,0.35,0.52,-1.21,-1.23,-1.23
185.79,-1.39,-0.13,-1.41,-0.15,0.15,0.31,0.45,-1.24,-1.26,-1.26
187.65,-1.37,-0.09,-1.38,-0.10,0.10,0.26,0.38,-1.27,-1.28,-1.28
189.52,-1.34,-0.04,-1.36,-0.06,0.06,0.21,0.31,-1.28,-1.30,-1.30
191.42,-1.32,0.00,-1.34,-0.02,0.02,0.17,0.24,-1.30,-1.32,-1.32
193.33,-1.30,0.03,-1.33,0.01,-0.01,0.12,0.18,-1.31,-1.34,-1.33
195.27,-1.28,0.07,-1.32,0.04,-0.04,0.08,0.11,-1.32,-1.36,-1.35
197.22,-1.28,0.09,-1.31,0.07,-0.07,0.04,0.04,-1.35,-1.37,-1.37
199.19,-1.29,0.11,-1.30,0.09,-0.09,-0.01,-0.02,-1.38,-1.39,-1.40
201.18,-1.30,0.11,-1.30,0.11,-0.11,-0.05,-0.08,-1.41,-1.41,-1.41
203.19,-1.32,0.10,-1.29,0.13,-0.13,-0.09,-0.15,-1.45,-1.42,-1.42
205.23,-1.31,0.13,-1.28,0.16,-0.16,-0.14,-0.21,-1.47,-1.44,-1.44
207.28,-1.30,0.15,-1.27,0.18,-0.18,-0.18,-0.27,-1.48,-1.45,-1.45
209.35,-1.29,0.18,-1.26,0.21,-0.21,-0.22,-0.33,-1.50,-1.47,-1.47
211.44,-1.27,0.22,-1.24,0.24,-0.24,-0.26,-0.39,-1.51,-1.48,-1.49
213.56,-1.24,0.26,-1.22,0.28,-0.28,-0.30,-0.45,-1.52,-1.50,-1.50
215.69,-1.20,0.31,-1.19,0.32,-0.32,-0.34,-0.51,-1.52,-1.51,-1.51
217.85,-1.16,0.37,-1.17,0.36,-0.36,-0.38,-0.57,-1.52,-1.53,-1.53
220.03,-1.14,0.41,-1.14,0.41,-0.41,-0.42,-0.62,-1.55,-1.54,-1.55
222.23,-1.11,0.46,-1.11,0.45,-0.45,-0.45,-0.67,-1.56,-1.56,-1.57
224.45,-1.07,0.50,-1.08,0.50,-0.50,-0.49,-0.72,-1.57,-1.58,-1.57
226.70,-1.03,0.56,-1.05,0.54,-0.54,-0.52,-0.77,-1.57,-1.59,-1.59
228.96,-1.00,0.60,-1.03,0.58,-0.58,-0.56,-0.81,-1.58,-1.61,-1.60
231.25,-0.98,0.63,-1.02,0.61,-0.61,-0.59,-0.86,-1.59,-1.63,-1.61
233.57,-0.96,0.68,-1.00,0.64,-0.64,-0.62,-0.90,-1.60,-1.65,-1.64
235.90,-0.96,0.70,-0.99,0.67,-0.67,-0.66,-0.94,-1.63,-1.66,-1.66
238.26,-0.97,0.71,-0.98,0.70,-0.70,-0.69,-0.97,-1.67,-1.68,-1.68
240.64,-0.98,0.72,-0.97,0.72,-0.72,-0.71,-1.00,-1.70,-1.69,-1.70
243.05,-0.99,0.72,-0.96,0.75,-0.75,-0.74,-1.03,-1.74,-1.71,-1.71
245.48,-0.98,0.74,-0.94,0.77,-0.77,-0.77,-1.06,-1.75,-1.72,-1.72
247.93,-0.96,0.77,-0.93,0.79,-0.79,-0.79,-1.08,-1.75,-1.73,-1.73
250.41,-0.94,0.81,-0.92,0.82,-0.82,-0.82,-1.10,-1.76,-1.73,-1.75
252.92,-0.91,0.83,-0.90,0.84,-0.84,-0.84,-1.11,-1.75,-1.74,-1.74
255.45,-0.89,0.85,-0.87,0.86,-0.86,-0.86,-1.13,-1.75,-1.74,-1.74
258.00,-0.86,0.88,-0.85,0.89,-0.89,-0.88,-1.13,-1.75,-1.73,-1.74
260.58,-0.82,0.91,-0.82,0.91,-0.91,-0.89,-1.14,-1.73,-1.73,-1.73
263.19,-0.79,0.93,-0.79,0.93,-0.93,-0.91,-1.14,-1.72,-1.72,-1.72
265.82,-0.75,0.97,-0.76,0.95,-0.95,-0.93,-1.15,-1.70,-1.71,-1.72
268.48,-0.72,0.98,-0.73,0.97,-0.97,-0.94,-1.14,-1.69,-1.70,-1.70
271.16,-0.70,0.98,-0.71,0.98,-0.98,-0.95,-1.14,-1.68,-1.69,-1.68
273.87,-0.66,1.01,-0.69,0.98,-0.98,-0.96,-1.13,-1.64,-1.68,-1.67
276.61,-0.64,1.01,-0.68,0.98,-0.98,-0.97,-1.12,-1.62,-1.66,-1.65
279.38,-0.63,1.01,-0.67,0.98,-0.98,-0.97,-1.11,-1.61,-1.65,-1.64
282.17,-0.63,1.00,-0.66,0.97,-0.97,-0.98,-1.10,-1.60,-1.63,-1.63
284.99,-0.64,0.98,-0.65,0.97,-0.97,-0.98,-1.09,-1.61,-1.62,-1.62
287.84,-0.66,0.94,-0.64,0.96,-0.96,-0.99,-1.07,-1.62,-1.60,-1.60
290.72,-0.67,0.91,-0.64,0.94,-0.94,-0.99,-1.05,-1.61,-1.58,-1.58
293.63,-0.67,0.90,-0.63,0.94,-0.94,-0.99,-1.04,-1.61,-1.57,-1.57
296.57,-0.65,0.90,-0.62,0.93,-0.93,-0.98,-1.02,-1.58,-1.55,-1.55
299.53,-0.63,0.90,-0.61,0.92,-0.92,-0.98,-1.00,-1.55,-1.53,-1.53
302.53,-0.61,0.92,-0.59,0.92,-0.92,-0.98,-0.98,-1.53,-1.51,-1.53
305.55,-0.58,0.91,-0.57,0.92,-0.92,-0.97,-0.96,-1.50,-1.49,-1.49
308.61,-0.55,0.93,-0.55,0.92,-0.92,-0.97,-0.94,-1.47,-1.47,-1.48
311.69,-0.52,0.93,-0.52,0.93,-0.93,-0.96,-0.91,-1.45,-1.45,-1.45
314.81,-0.49,0.92,-0.49,0.94,-0.94,-0.95,-0.89,-1.43,-1.43,-1.41
317.96,-0.46,0.94,-0.46,0.95,-0.95,-0.95,-0.87,-1.41,-1.41,-1.40
321.14,-0.42,0.96,-0.43,0.96,-0.96,-0.94,-0.85,-1.38,-1.38,-1.38
324.35,-0.39,0.97,-0.40,0.96,-0.96,-0.93,-0.83,-1.35,-1.36,-1.36
327.59,-0.36,0.98,-0.38,0.96,-0.96,-0.92,-0.81,-1.32,-1.34,-1.34
330.87,-0.34,0.98,-0.36,0.96,-0.96,-0.91,-0.79,-1.30,-1.32,-1.32
334.18,-0.32,0.97,-0.34,0.95,-0.95,-0.90,-0.77,-1.27,-1.29,-1.29
337.52,-0.30,0.98,-0.33,0.94,-0.94,-0.88,-0.75,-1.24,-1.27,-1.28
340.90,-0.30,0.95,-0.32,0.93,-0.93,-0.87,-0.73,-1.23,-1.25,-1.25
344.30,-0.31,0.91,-0.31,0.91,-0.91,-0.86,-0.72,-1.22,-1.23,-1.22
347.75,-0.32,0.89,-0.31,0.89,-0.89,-0.85,-0.70,-1.21,-1.20,-1.21
351.23,-0.32,0.86,-0.31,0.87,-0.87,-0.83,-0.68,-1.19,-1.18,-1.18
354.74,-0.32,0.83,-0.31,0.85,-0.85,-0.82,-0.67,-1.17,-1.15,-1.15
358.28,-0.32,0.81,-0.31,0.82,-0.82,-0.81,-0.65,-1.14,-1.13,-1.13
361.87,-0.32,0.79,-0.31,0.79,-0.79,-0.80,-0.64,-1.11,-1.11,-1.11
365.49,-0.32,0.76,-0.32,0.77,-0.77,-0.78,-0.62,-1.09,-1.08,-1.08
369.14,-0.32,0.75,-0.32,0.74,-0.74,-0.77,-0.61,-1.06,-1.06,-1.07
372.83,-0.32,0.72,-0.32,0.72,-0.72,-0.76,-0.59,-1.04,-1.04,-1.04
376.56,-0.32,0.70,-0.32,0.69,-0.69,-0.75,-0.58,-1.01,-1.02,-1.02
380.33,-0.32,0.67,-0.32,0.68,-0.68,-0.73,-0.57,-1.00,-1.00,-0.99
384.13,-0.32,0.66,-0.32,0.66,-0.66,-0.72,-0.56,-0.98,-0.98,-0.98
387.97,-0.32,0.64,-0.32,0.64,-0.64,-0.71,-0.55,-0.96,-0.96,-0.96
391.85,-0.32,0.63,-0.32,0.63,-0.63,-0.70,-0.54,-0.95,-0.95,-0.95
395.77,-0.32,0.60,-0.32,0.61,-0.61,-0.68,-0.53,-0.93,-0.93,-0.92
399.73,-0.32,0.59,-0.32,0.60,-0.60,-0.67,-0.52,-0.92,-0.92,-0.91
403.72,-0.32,0.60,-0.32,0.60,-0.60,-0.66,-0.51,-0.92,-0.92,-0.92
407.76,-0.32,0.59,-0.32,0.59,-0.59,-0.65,-0.50,-0.91,-0.91,-0.91
411.84,-0.32,0.58,-0.32,0.58,-0.58,-0.64,-0.50,-0.90,-0.90,-0.90
415.96,-0.32,0.58,-0.32,0.58,-0.58,-0.63,-0.49,-0.90,-0.90,-0.90
420.12,-0.32,0.58,-0.32,0.58,-0.58,-0.62,-0.48,-0.90,-0.90,-0.90
424.32,-0.32,0.58,-0.32,0.58,-0.58,-0.61,-0.48,-0.90,-0.90,-0.90
428.56,-0.32,0.58,-0.32,0.59,-0.59,-0.60,-0.47,-0.91,-0.91,-0.90
432.85,-0.32,0.59,-0.32,0.59,-0.59,-0.59,-0.47,-0.91,-0.91,-0.91
437.18,-0.32,0.60,-0.32,0.59,-0.59,-0.58,-0.46,-0.91,-0.91,-0.92
441.55,-0.32,0.60,-0.32,0.60,-0.60,-0.57,-0.46,-0.92,-0.92,-0.92
445.96,-0.32,0.61,-0.32,0.60,-0.60,-0.56,-0.45,-0.92,-0.92,-0.93
