frequency,raw,error,smoothed,error_smoothed,equalization,parametric_eq,fixed_band_eq,equalized_raw,equalized_smoothed,target
20.00,2.24,-2.34,2.21,-2.41,2.41,2.36,0.43,4.65,4.61,4.58
20.20,2.28,-2.35,2.27,-2.38,2.38,2.34,0.44,4.66,4.65,4.63
20.40,2.32,-2.36,2.33,-2.36,2.36,2.33,0.46,4.68,4.69,4.68
20.61,2.36,-2.35,2.38,-2.33,2.33,2.31,0.48,4.69,4.72,4.71
20.81,2.40,-2.36,2.44,-2.30,2.30,2.29,0.49,4.70,4.75,4.76
21.02,2.45,-2.35,2.50,-2.27,2.27,2.26,0.51,4.72,4.77,4.80
21.23,2.54,-2.28,2.56,-2.24,2.24,2.24,0.53,4.78,4.80,4.82
21.44,2.63,-2.21,2.62,-2.20,2.20,2.21,0.54,4.83,4.82,4.84
21.66,2.72,-2.14,2.68,-2.16,2.16,2.18,0.56,4.88,4.84,4.86
21.87,2.81,-2.06,2.74,-2.12,2.12,2.15,0.58,4.93,4.86,4.87
22.09,2.87,-2.02,2.80,-2.08,2.08,2.11,0.60,4.95,4.88,4.89
22.31,2.88,-2.02,2.86,-2.03,2.03,2.07,0.62,4.91,4.89,4.90
22.54,2.90,-2.00,2.92,-1.97,1.97,2.03,0.64,4.87,4.89,4.90
22.76,2.91,-1.99,2.99,-1.91,1.91,2.00,0.66,4.82,4.90,4.90
22.99,2.93,-1.96,3.05,-1.85,1.85,1.95,0.68,4.78,4.90,4.89
23.22,3.03,-1.85,3.11,-1.79,1.79,1.91,0.71,4.82,4.90,4.89
23.45,3.14,-1.74,3.16,-1.74,1.74,1.87,0.73,4.88,4.90,4.88
23.69,3.24,-1.65,3.21,-1.69,1.69,1.83,0.75,4.93,4.90,4.89
23.92,3.35,-1.54,3.26,-1.64,1.64,1.78,0.78,4.99,4.90,4.89
24.16,3.39,-1.51,3.30,-1.60,1.60,1.74,0.80,4.99,4.90,4.90
24.40,3.41,-1.50,3.35,-1.55,1.55,1.69,0.82,4.96,4.90,4.91
24.65,3.43,-1.47,3.40,-1.50,1.50,1.65,0.85,4.93,4.90,4.90
24.89,3.45,-1.45,3.45,-1.45,1.45,1.60,0.87,4.90,4.90,4.90
25.14,3.47,-1.43,3.50,-1.40,1.40,1.56,0.90,4.87,4.90,4.90
25.39,3.50,-1.41,3.55,-1.36,1.36,1.52,0.92,4.86,4.90,4.91
25.65,3.53,-1.38,3.58,-1.32,1.32,1.47,0.95,4.85,4.90,4.91
25.91,3.55,-1.34,3.61,-1.29,1.29,1.43,0.97,4.84,4.90,4.90
26.16,3.60,-1.29,3.63,-1.27,1.27,1.38,1.00,4.87,4.90,4.89
26.43,3.66,-1.23,3.66,-1.24,1.24,1.34,1.02,4.90,4.90,4.89
26.69,3.73,-1.16,3.69,-1.21,1.21,1.30,1.04,4.94,4.90,4.89
26.96,3.79,-1.11,3.72,-1.17,1.17,1.26,1.07,4.96,4.89,4.90
27.23,3.80,-1.10,3.75,-1.14,1.14,1.21,1.09,4.94,4.89,4.90
27.50,3.79,-1.11,3.77,-1.11,1.11,1.17,1.11,4.90,4.89,4.90
27.77,3.78,-1.10,3.80,-1.09,1.09,1.13,1.13,4.87,4.89,4.89
28.05,3.79,-1.09,3.83,-1.06,1.06,1.09,1.15,4.85,4.88,4.88
28.33,3.83,-1.04,3.85,-1.03,1.03,1.05,1.16,4.86,4.88,4.87
28.62,3.87,-1.00,3.88,-1.00,1.00,1.02,1.18,4.87,4.88,4.87
28.90,3.91,-0.97,3.91,-0.97,0.97,0.98,1.19,4.88,4.88,4.88
29.19,3.93,-0.94,3.94,-0.94,0.94,0.94,1.20,4.87,4.88,4.87
29.48,3.94,-0.94,3.97,-0.91,0.91,0.91,1.21,4.85,4.88,4.89
29.78,3.96,-0.91,3.99,-0.88,0.88,0.87,1.22,4.84,4.87,4.87
30.08,3.98,-0.90,4.01,-0.86,0.86,0.84,1.23,4.84,4.87,4.88
30.38,4.03,-0.84,4.04,-0.83,0.83,0.80,1.23,4.86,4.87,4.87
30.68,4.09,-0.78,4.06,-0.81,0.81,0.77,1.23,4.90,4.87,4.87
30.99,4.14,-0.72,4.08,-0.79,0.79,0.74,1.23,4.93,4.87,4.86
31.30,4.15,-0.71,4.10,-0.76,0.76,0.70,1.23,4.91,4.86,4.86
31.61,4.17,-0.69,4.12,-0.74,0.74,0.67,1.22,4.91,4.86,4.86
31.93,4.19,-0.67,4.13,-0.72,0.72,0.64,1.21,4.91,4.86,4.86
32.24,4.17,-0.67,4.15,-0.70,0.70,0.61,1.20,4.87,4.85,4.84
32.57,4.13,-0.72,4.18,-0.67,0.67,0.58,1.18,4.80,4.85,4.85
32.89,4.10,-0.75,4.20,-0.64,0.64,0.55,1.17,4.74,4.84,4.85
33.22,4.13,-0.70,4.23,-0.61,0.61,0.52,1.15,4.74,4.84,4.84
33.55,4.20,-0.63,4.25,-0.58,0.58,0.49,1.13,4.78,4.83,4.83
33.89,4.27,-0.55,4.28,-0.55,0.55,0.47,1.10,4.82,4.83,4.82
34.23,4.31,-0.52,4.30,-0.52,0.52,0.44,1.08,4.83,4.82,4.83
34.57,4.35,-0.46,4.33,-0.49,0.49,0.41,1.05,4.84,4.82,4.81
34.92,4.38,-0.43,4.36,-0.45,0.45,0.38,1.02,4.83,4.81,4.81
35.27,4.42,-0.39,4.39,-0.42,0.42,0.36,0.99,4.84,4.81,4.81
35.62,4.45,-0.35,4.41,-0.39,0.39,0.33,0.96,4.84,4.80,4.80
35.97,4.49,-0.31,4.44,-0.36,0.36,0.31,0.93,4.85,4.80,4.80
36.33,4.49,-0.31,4.46,-0.34,0.34,0.28,0.89,4.83,4.80,4.80
36.70,4.49,-0.30,4.47,-0.32,0.32,0.26,0.86,4.81,4.80,4.79
37.06,4.49,-0.29,4.48,-0.31,0.31,0.23,0.82,4.80,4.80,4.78
37.43,4.49,-0.31,4.49,-0.30,0.30,0.21,0.78,4.79,4.79,4.80
37.81,4.49,-0.30,4.50,-0.29,0.29,0.19,0.74,4.78,4.79,4.79
38.19,4.49,-0.30,4.51,-0.28,0.28,0.16,0.71,4.77,4.79,4.79
38.57,4.49,-0.30,4.53,-0.27,0.27,0.14,0.67,4.76,4.79,4.79
38.95,4.49,-0.31,4.54,-0.25,0.25,0.12,0.63,4.74,4.79,4.80
39.34,4.51,-0.28,4.56,-0.24,0.24,0.10,0.59,4.75,4.79,4.79
39.74,4.53,-0.26,4.57,-0.22,0.22,0.07,0.55,4.75,4.79,4.79
40.14,4.57,-0.22,4.59,-0.20,0.20,0.05,0.51,4.77,4.79,4.79
40.54,4.63,-0.15,4.61,-0.18,0.18,0.03,0.47,4.81,4.78,4.78
40.94,4.68,-0.10,4.63,-0.15,0.15,0.01,0.43,4.83,4.78,4.78
41.35,4.69,-0.08,4.64,-0.13,0.13,-0.01,0.39,4.82,4.77,4.77
41.76,4.69,-0.07,4.66,-0.10,0.10,-0.03,0.35,4.79,4.76,4.76
42.18,4.69,-0.07,4.67,-0.08,0.08,-0.06,0.31,4.77,4.75,4.77
42.60,4.69,-0.06,4.69,-0.05,0.05,-0.08,0.27,4.75,4.74,4.75
43.03,4.69,-0.05,4.70,-0.03,0.03,-0.10,0.23,4.72,4.73,4.74
43.46,4.69,-0.04,4.70,-0.01,0.01,-0.12,0.19,4.70,4.72,4.73
43.90,4.69,-0.01,4.70,-0.01,0.01,-0.14,0.15,4.70,4.70,4.70
44.33,4.69,0.01,4.69,0.00,-0.00,-0.16,0.11,4.69,4.69,4.68
44.78,4.69,0.03,4.69,0.01,-0.01,-0.18,0.07,4.68,4.67,4.66
45.23,4.69,0.04,4.68,0.02,-0.02,-0.20,0.04,4.67,4.66,4.65
45.68,4.69,0.06,4.68,0.04,-0.04,-0.22,-0.00,4.65,4.64,4.63
46.13,4.69,0.08,4.68,0.06,-0.06,-0.24,-0.04,4.64,4.63,4.61
46.60,4.69,0.08,4.69,0.07,-0.07,-0.26,-0.08,4.62,4.61,4.61
47.06,4.69,0.10,4.69,0.10,-0.10,-0.28,-0.12,4.60,4.59,4.59
47.53,4.65,0.07,4.69,0.12,-0.12,-0.30,-0.16,4.53,4.58,4.58
48.01,4.61,0.03,4.71,0.15,-0.15,-0.33,-0.19,4.46,4.56,4.58
48.49,4.70,0.15,4.72,0.18,-0.18,-0.35,-0.23,4.52,4.54,4.56
48.97,4.79,0.26,4.74,0.21,-0.21,-0.37,-0.27,4.58,4.53,4.53
49.46,4.79,0.28,4.76,0.25,-0.25,-0.39,-0.31,4.54,4.51,4.51
49.96,4.79,0.31,4.78,0.29,-0.29,-0.41,-0.34,4.51,4.50,4.49
50.46,4.79,0.31,4.80,0.32,-0.32,-0.43,-0.38,4.47,4.48,4.48
50.96,4.79,0.33,4.82,0.36,-0.36,-0.45,-0.42,4.43,4.47,4.47
51.47,4.83,0.39,4.84,0.39,-0.39,-0.47,-0.46,4.44,4.45,4.44
51.99,4.87,0.45,4.86,0.43,-0.43,-0.49,-0.49,4.44,4.43,4.42
52.51,4.92,0.50,4.88,0.46,-0.46,-0.51,-0.53,4.46,4.42,4.42
53.03,4.96,0.55,4.89,0.49,-0.49,-0.53,-0.57,4.47,4.40,4.41
53.56,4.92,0.53,4.90,0.51,-0.51,-0.56,-0.60,4.41,4.39,4.39
54.10,4.89,0.52,4.90,0.52,-0.52,-0.58,-0.64,4.37,4.37,4.37
54.64,4.89,0.53,4.90,0.54,-0.54,-0.60,-0.68,4.35,4.36,4.36
55.18,4.89,0.54,4.90,0.56,-0.56,-0.62,-0.71,4.33,4.35,4.35
55.74,4.89,0.56,4.91,0.57,-0.57,-0.64,-0.75,4.32,4.33,4.33
56.29,4.89,0.58,4.91,0.59,-0.59,-0.67,-0.78,4.30,4.31,4.32
56.86,4.89,0.60,4.90,0.61,-0.61,-0.69,-0.82,4.28,4.30,4.29
57.42,4.89,0.63,4.90,0.62,-0.62,-0.71,-0.85,4.27,4.28,4.26
58.00,4.89,0.64,4.89,0.64,-0.64,-0.73,-0.89,4.25,4.25,4.25
58.58,4.89,0.66,4.89,0.66,-0.66,-0.76,-0.92,4.23,4.23,4.24
59.16,4.89,0.68,4.89,0.69,-0.69,-0.78,-0.95,4.20,4.20,4.21
59.76,4.89,0.71,4.89,0.72,-0.72,-0.81,-0.99,4.17,4.16,4.19
60.35,4.89,0.75,4.89,0.76,-0.76,-0.83,-1.02,4.13,4.13,4.14
60.96,4.89,0.79,4.89,0.80,-0.80,-0.85,-1.05,4.09,4.09,4.10
61.57,4.89,0.84,4.89,0.84,-0.84,-0.88,-1.08,4.05,4.05,4.06
62.18,4.89,0.88,4.89,0.88,-0.88,-0.90,-1.11,4.01,4.01,4.01
62.80,4.89,0.93,4.89,0.93,-0.93,-0.93,-1.14,3.96,3.96,3.96
63.43,4.89,0.98,4.89,0.98,-0.98,-0.95,-1.17,3.92,3.92,3.91
64.07,4.89,1.03,4.89,1.02,-1.02,-0.98,-1.20,3.87,3.87,3.86
64.71,4.89,1.09,4.89,1.08,-1.08,-1.00,-1.23,3.82,3.82,3.81
65.35,4.89,1.13,4.89,1.13,-1.13,-1.03,-1.26,3.76,3.76,3.76
66.01,4.89,1.18,4.89,1.18,-1.18,-1.06,-1.29,3.71,3.71,3.71
66.67,4.89,1.24,4.89,1.23,-1.23,-1.08,-1.32,3.66,3.66,3.65
67.33,4.89,1.29,4.89,1.29,-1.29,-1.11,-1.35,3.60,3.60,3.60
68.01,4.89,1.34,4.89,1.34,-1.34,-1.14,-1.38,3.55,3.55,3.55
68.69,4.89,1.40,4.89,1.40,-1.40,-1.17,-1.41,3.49,3.49,3.50
69.37,4.89,1.45,4.90,1.47,-1.47,-1.20,-1.44,3.42,3.43,3.44
70.07,4.89,1.51,4.91,1.53,-1.53,-1.22,-1.47,3.36,3.38,3.38
70.77,4.89,1.56,4.91,1.60,-1.60,-1.25,-1.50,3.30,3.32,3.33
71.48,4.89,1.62,4.91,1.65,-1.65,-1.28,-1.53,3.24,3.25,3.27
72.19,4.89,1.70,4.90,1.71,-1.71,-1.31,-1.56,3.18,3.19,3.19
72.91,4.89,1.76,4.89,1.76,-1.76,-1.34,-1.59,3.13,3.13,3.13
73.64,4.89,1.82,4.87,1.81,-1.81,-1.38,-1.63,3.09,3.07,3.07
74.38,4.89,1.89,4.86,1.85,-1.85,-1.41,-1.66,3.04,3.00,3.00
75.12,4.90,1.97,4.84,1.90,-1.90,-1.44,-1.70,3.00,2.94,2.94
75.87,4.96,2.09,4.83,1.95,-1.95,-1.47,-1.73,3.01,2.88,2.87
76.63,4.84,2.03,4.81,1.99,-1.99,-1.50,-1.77,2.85,2.82,2.81
77.40,4.71,1.96,4.78,2.03,-2.03,-1.54,-1.81,2.69,2.75,2.75
78.17,4.62,1.94,4.76,2.06,-2.06,-1.57,-1.85,2.56,2.69,2.68
78.95,4.69,2.05,4.74,2.10,-2.10,-1.60,-1.89,2.59,2.64,2.64
79.74,4.69,2.11,4.71,2.14,-2.14,-1.64,-1.93,2.55,2.58,2.58
80.54,4.69,2.17,4.69,2.17,-2.17,-1.67,-1.98,2.53,2.52,2.53
81.35,4.69,2.23,4.66,2.20,-2.20,-1.71,-2.02,2.49,2.46,2.46
82.16,4.69,2.28,4.64,2.23,-2.23,-1.75,-2.07,2.46,2.41,2.41
82.98,4.69,2.33,4.63,2.27,-2.27,-1.78,-2.12,2.42,2.35,2.36
83.81,4.58,2.29,4.62,2.32,-2.32,-1.82,-2.17,2.26,2.30,2.29
84.65,4.58,2.34,4.62,2.38,-2.38,-1.86,-2.22,2.21,2.24,2.24
85.50,4.61,2.42,4.62,2.44,-2.44,-1.90,-2.28,2.17,2.18,2.19
86.35,4.66,2.53,4.63,2.51,-2.51,-1.94,-2.33,2.15,2.12,2.13
87.22,4.65,2.58,4.64,2.57,-2.57,-1.97,-2.39,2.08,2.07,2.07
88.09,4.50,2.49,4.64,2.63,-2.63,-2.01,-2.45,1.87,2.01,2.01
88.97,4.62,2.67,4.65,2.70,-2.70,-2.06,-2.51,1.92,1.95,1.95
89.86,4.68,2.79,4.65,2.76,-2.76,-2.10,-2.58,1.92,1.89,1.89
90.76,4.69,2.87,4.65,2.82,-2.82,-2.14,-2.64,1.87,1.83,1.82
91.66,4.70,2.93,4.66,2.89,-2.89,-2.18,-2.71,1.81,1.77,1.77
92.58,4.70,3.00,4.67,2.96,-2.96,-2.22,-2.78,1.74,1.71,1.70
93.51,4.70,3.06,4.68,3.03,-3.03,-2.27,-2.85,1.67,1.65,1.64
94.44,4.70,3.11,4.69,3.10,-3.10,-2.31,-2.93,1.60,1.59,1.59
95.39,4.70,3.17,4.70,3.17,-3.17,-2.36,-3.00,1.53,1.53,1.53
96.34,4.69,3.22,4.70,3.23,-3.23,-2.40,-3.08,1.46,1.47,1.47
97.30,4.67,3.26,4.71,3.29,-3.29,-2.45,-3.16,1.38,1.41,1.41
98.28,4.63,3.28,4.71,3.35,-3.35,-2.50,-3.23,1.28,1.36,1.35
99.26,4.62,3.32,4.70,3.40,-3.40,-2.54,-3.32,1.22,1.30,1.30
100.25,4.72,3.48,4.69,3.45,-3.45,-2.59,-3.40,1.27,1.24,1.24
101.25,4.73,3.55,4.69,3.50,-3.50,-2.64,-3.48,1.23,1.18,1.18
102.27,4.72,3.59,4.67,3.55,-3.55,-2.69,-3.56,1.17,1.12,1.13
103.29,4.70,3.64,4.64,3.58,-3.58,-2.74,-3.65,1.12,1.07,1.06
104.32,4.68,3.67,4.62,3.62,-3.62,-2.79,-3.73,1.06,1.01,1.01
105.37,4.60,3.65,4.60,3.66,-3.66,-2.84,-3.81,0.94,0.95,0.95
106.42,4.48,3.59,4.57,3.69,-3.69,-2.89,-3.90,0.79,0.88,0.90
107.48,4.51,3.68,4.53,3.71,-3.71,-2.94,-3.98,0.80,0.82,0.83
108.56,4.55,3.79,4.47,3.71,-3.71,-3.00,-4.06,0.84,0.76,0.76
109.64,4.43,3.73,4.42,3.72,-3.72,-3.05,-4.14,0.71,0.70,0.70
110.74,4.35,3.72,4.35,3.72,-3.72,-3.11,-4.21,0.63,0.64,0.63
111.85,4.31,3.72,4.29,3.71,-3.71,-3.16,-4.29,0.60,0.58,0.59
112.97,4.15,3.64,4.22,3.70,-3.70,-3.22,-4.36,0.45,0.52,0.51
114.10,4.16,3.71,4.14,3.68,-3.68,-3.27,-4.43,0.48,0.46,0.45
115.24,4.23,3.83,4.07,3.67,-3.67,-3.33,-4.49,0.56,0.40,0.40
116.39,4.02,3.69,4.00,3.65,-3.65,-3.38,-4.55,0.37,0.35,0.33
117.55,3.83,3.54,3.93,3.63,-3.63,-3.44,-4.61,0.20,0.29,0.29
118.73,3.76,3.53,3.87,3.62,-3.62,-3.50,-4.66,0.14,0.24,0.23
119.92,3.80,3.60,3.81,3.62,-3.62,-3.56,-4.70,0.18,0.20,0.20
121.12,3.87,3.73,3.78,3.63,-3.63,-3.62,-4.74,0.24,0.15,0.14
122.33,3.77,3.67,3.75,3.64,-3.64,-3.68,-4.78,0.13,0.10,0.10
123.55,3.63,3.56,3.72,3.65,-3.65,-3.74,-4.80,-0.02,0.06,0.07
124.79,3.55,3.53,3.70,3.68,-3.68,-3.80,-4.82,-0.12,0.02,0.03
126.03,3.65,3.67,3.69,3.71,-3.71,-3.86,-4.84,-0.06,-0.02,-0.02
127.29,3.66,3.71,3.69,3.74,-3.74,-3.92,-4.85,-0.08,-0.06,-0.05
128.57,3.67,3.77,3.69,3.79,-3.79,-3.98,-4.85,-0.12,-0.10,-0.10
129.85,3.76,3.90,3.71,3.84,-3.84,-4.04,-4.85,-0.08,-0.13,-0.14
131.15,3.92,4.09,3.74,3.91,-3.91,-4.10,-4.84,0.01,-0.17,-0.17
132.46,3.83,4.04,3.76,3.97,-3.97,-4.16,-4.83,-0.14,-0.21,-0.21
133.79,3.75,4.00,3.78,4.03,-4.03,-4.22,-4.81,-0.28,-0.25,-0.25
135.12,3.67,3.97,3.80,4.09,-4.09,-4.28,-4.79,-0.41,-0.28,-0.29
136.48,3.82,4.14,3.83,4.15,-4.15,-4.35,-4.76,-0.33,-0.32,-0.32
137.84,3.90,4.26,3.87,4.22,-4.22,-4.41,-4.73,-0.32,-0.36,-0.36
139.22,3.91,4.32,3.89,4.29,-4.29,-4.47,-4.70,-0.38,-0.39,-0.41
140.61,3.91,4.36,3.91,4.34,-4.34,-4.53,-4.67,-0.43,-0.43,-0.45
142.02,3.91,4.38,3.93,4.41,-4.41,-4.59,-4.63,-0.50,-0.47,-0.47
143.44,3.95,4.46,3.96,4.47,-4.47,-4.65,-4.59,-0.52,-0.52,-0.51
144.87,4.10,4.66,3.98,4.55,-4.55,-4.71,-4.55,-0.45,-0.56,-0.56
146.32,3.99,4.60,4.02,4.63,-4.63,-4.77,-4.51,-0.64,-0.61,-0.61
147.78,3.88,4.53,4.05,4.72,-4.72,-4.83,-4.46,-0.84,-0.67,-0.64
149.26,4.02,4.72,4.08,4.81,-4.81,-4.88,-4.42,-0.79,-0.73,-0.70
150.75,4.11,4.89,4.10,4.90,-4.90,-4.94,-4.38,-0.79,-0.80,-0.78
152.26,4.11,4.96,4.10,4.97,-4.97,-5.00,-4.34,-0.86,-0.87,-0.85
153.78,4.11,5.04,4.09,5.04,-5.04,-5.05,-4.30,-0.92,-0.94,-0.92
155.32,4.11,5.12,4.06,5.08,-5.08,-5.10,-4.26,-0.97,-1.02,-1.01
156.88,4.11,5.20,4.00,5.10,-5.10,-5.16,-4.22,-0.99,-1.10,-1.09
158.44,4.11,5.29,3.96,5.13,-5.13,-5.21,-4.19,-1.02,-1.18,-1.18
160.03,4.11,5.38,3.91,5.16,-5.16,-5.26,-4.16,-1.05,-1.25,-1.27
161.63,3.90,5.25,3.87,5.19,-5.19,-5.30,-4.13,-1.29,-1.32,-1.35
163.24,3.81,5.23,3.82,5.21,-5.21,-5.35,-4.10,-1.40,-1.39,-1.41
164.88,3.76,5.23,3.76,5.22,-5.22,-5.39,-4.07,-1.46,-1.45,-1.47
166.53,3.62,5.15,3.70,5.21,-5.21,-5.44,-4.05,-1.59,-1.51,-1.53
168.19,3.43,5.00,3.65,5.20,-5.20,-5.48,-4.03,-1.77,-1.55,-1.57
169.87,3.38,5.00,3.61,5.20,-5.20,-5.51,-4.01,-1.82,-1.59,-1.62
171.57,3.33,4.97,3.58,5.21,-5.21,-5.55,-4.00,-1.88,-1.62,-1.64
173.29,3.61,5.27,3.57,5.22,-5.22,-5.58,-3.99,-1.61,-1.65,-1.66
175.02,3.83,5.50,3.56,5.23,-5.23,-5.61,-3.98,-1.40,-1.67,-1.67
176.77,3.71,5.40,3.57,5.26,-5.26,-5.64,-3.98,-1.55,-1.69,-1.69
178.54,3.54,5.24,3.60,5.30,-5.30,-5.66,-3.98,-1.76,-1.70,-1.70
180.32,3.50,5.20,3.65,5.36,-5.36,-5.68,-3.98,-1.86,-1.71,-1.70
182.13,3.65,5.35,3.68,5.40,-5.40,-5.70,-3.98,-1.75,-1.72,-1.70
183.95,3.78,5.50,3.71,5.44,-5.44,-5.71,-3.99,-1.66,-1.73,-1.71
185.79,3.79,5.51,3.75,5.49,-5.49,-5.72,-4.00,-1.70,-1.74,-1.72
187.65,3.81,5.56,3.77,5.53,-5.53,-5.73,-4.02,-1.72,-1.76,-1.75
189.52,3.82,5.58,3.79,5.56,-5.56,-5.74,-4.03,-1.74,-1.77,-1.76
191.42,3.83,5.62,3.79,5.58,-5.58,-5.74,-4.05,-1.75,-1.79,-1.78
193.33,3.85,5.66,3.79,5.60,-5.60,-5.73,-4.08,-1.75,-1.81,-1.81
195.27,3.87,5.70,3.80,5.63,-5.63,-5.72,-4.10,-1.76,-1.83,-1.83
197.22,3.83,5.68,3.82,5.67,-5.67,-5.71,-4.13,-1.84,-1.85,-1.85
199.19,3.70,5.58,3.82,5.70,-5.70,-5.70,-4.15,-2.00,-1.87,-1.88
201.18,3.65,5.55,3.82,5.72,-5.72,-5.68,-4.18,-2.06,-1.90,-1.90
203.19,3.74,5.66,3.80,5.72,-5.72,-5.65,-4.22,-1.98,-1.92,-1.92
205.23,3.81,5.76,3.77,5.72,-5.72,-5.63,-4.25,-1.91,-1.95,-1.95
207.28,3.81,5.77,3.76,5.73,-5.73,-5.59,-4.28,-1.92,-1.97,-1.96
209.35,3.80,5.79,3.74,5.74,-5.74,-5.56,-4.32,-1.94,-1.99,-1.99
211.44,3.79,5.82,3.72,5.73,-5.73,-5.52,-4.35,-1.94,-2.02,-2.03
213.56,3.72,5.75,3.70,5.73,-5.73,-5.47,-4.38,-2.01,-2.03,-2.03
215.69,3.66,5.71,3.67,5.72,-5.72,-5.42,-4.41,-2.06,-2.05,-2.05
217.85,3.59,5.65,3.65,5.71,-5.71,-5.37,-4.44,-2.12,-2.06,-2.06
220.03,3.59,5.67,3.62,5.70,-5.70,-5.32,-4.47,-2.11,-2.08,-2.08
222.23,3.58,5.68,3.59,5.68,-5.68,-5.25,-4.50,-2.10,-2.09,-2.10
224.45,3.51,5.61,3.55,5.64,-5.64,-5.19,-4.52,-2.13,-2.09,-2.10
226.70,3.46,5.56,3.50,5.59,-5.59,-5.12,-4.54,-2.13,-2.09,-2.10
228.96,3.48,5.57,3.44,5.53,-5.53,-5.05,-4.56,-2.05,-2.09,-2.09
231.25,3.37,5.46,3.38,5.47,-5.47,-4.97,-4.57,-2.10,-2.09,-2.09
233.57,3.30,5.38,3.31,5.39,-5.39,-4.89,-4.57,-2.09,-2.08,-2.08
235.90,3.30,5.37,3.24,5.30,-5.30,-4.81,-4.57,-2.00,-2.07,-2.07
238.26,3.13,5.19,3.15,5.21,-5.21,-4.72,-4.57,-2.08,-2.05,-2.06
240.64,3.09,5.13,3.06,5.10,-5.10,-4.63,-4.55,-2.00,-2.03,-2.04
243.05,3.01,5.02,2.95,4.97,-4.97,-4.53,-4.53,-1.96,-2.02,-2.01
245.48,2.86,4.85,2.83,4.83,-4.83,-4.44,-4.51,-1.97,-2.00,-1.99
247.93,2.73,4.69,2.70,4.67,-4.67,-4.33,-4.47,-1.94,-1.97,-1.96
250.41,2.55,4.50,2.56,4.51,-4.51,-4.23,-4.43,-1.96,-1.95,-1.95
252.92,2.44,4.36,2.41,4.34,-4.34,-4.12,-4.38,-1.90,-1.93,-1.92
255.45,2.26,4.16,2.25,4.16,-4.16,-4.01,-4.32,-1.90,-1.91,-1.90
258.00,2.07,3.95,2.11,4.00,-4.00,-3.89,-4.25,-1.93,-1.89,-1.88
260.58,1.92,3.79,1.95,3.82,-3.82,-3.77,-4.18,-1.90,-1.86,-1.87
263.19,1.77,3.61,1.79,3.63,-3.63,-3.65,-4.10,-1.86,-1.84,-1.83
265.82,1.58,3.40,1.63,3.45,-3.45,-3.53,-4.01,-1.87,-1.82,-1.82
268.48,1.41,3.21,1.46,3.26,-3.26,-3.40,-3.91,-1.84,-1.79,-1.80
271.16,1.24,3.01,1.29,3.06,-3.06,-3.27,-3.81,-1.82,-1.77,-1.77
273.87,1.14,2.89,1.10,2.85,-2.85,-3.13,-3.71,-1.71,-1.75,-1.75
276.61,1.02,2.74,0.93,2.65,-2.65,-3.00,-3.59,-1.63,-1.72,-1.72
279.38,0.79,2.49,0.75,2.45,-2.45,-2.86,-3.48,-1.66,-1.70,-1.70
282.17,0.72,2.39,0.58,2.25,-2.25,-2.71,-3.35,-1.52,-1.67,-1.67
284.99,0.57,2.21,0.41,2.05,-2.05,-2.57,-3.23,-1.48,-1.64,-1.64
287.84,0.20,1.82,0.26,1.88,-1.88,-2.42,-3.10,-1.68,-1.62,-1.62
290.72,0.06,1.65,0.13,1.72,-1.72,-2.26,-2.97,-1.66,-1.59,-1.59
293.63,-0.04,1.53,0.01,1.57,-1.57,-2.11,-2.83,-1.61,-1.56,-1.56
296.57,-0.29,1.24,-0.09,1.44,-1.44,-1.95,-2.69,-1.73,-1.53,-1.53
299.53,-0.44,1.07,-0.18,1.32,-1.32,-1.78,-2.55,-1.76,-1.50,-1.50
302.53,-0.45,1.04,-0.27,1.20,-1.20,-1.62,-2.41,-1.65,-1.48,-1.49
305.55,-0.33,1.11,-0.36,1.09,-1.09,-1.45,-2.27,-1.42,-1.45,-1.44
308.61,-0.55,0.88,-0.44,0.99,-0.99,-1.27,-2.12,-1.54,-1.43,-1.43
311.69,-0.53,0.87,-0.51,0.90,-0.90,-1.10,-1.98,-1.43,-1.41,-1.40
314.81,-0.41,0.97,-0.59,0.80,-0.80,-0.92,-1.83,-1.21,-1.39,-1.38
317.96,-0.46,0.90,-0.67,0.69,-0.69,-0.73,-1.68,-1.15,-1.37,-1.36
321.14,-0.61,0.74,-0.77,0.58,-0.58,-0.55,-1.53,-1.19,-1.35,-1.35
324.35,-0.82,0.52,-0.89,0.45,-0.45,-0.36,-1.39,-1.26,-1.33,-1.34
327.59,-0.95,0.37,-1.03,0.29,-0.29,-0.16,-1.24,-1.24,-1.32,-1.32
330.87,-1.14,0.17,-1.18,0.13,-0.13,0.03,-1.09,-1.27,-1.31,-1.31
334.18,-1.44,-0.14,-1.38,-0.08,0.08,0.23,-0.94,-1.35,-1.30,-1.30
337.52,-1.57,-0.28,-1.62,-0.33,0.33,0.43,-0.79,-1.24,-1.29,-1.29
340.90,-1.78,-0.51,-1.87,-0.59,0.59,0.64,-0.64,-1.19,-1.28,-1.27
344.30,-2.05,-0.78,-2.11,-0.83,0.83,0.85,-0.50,-1.22,-1.27,-1.27
347.75,-2.36,-1.09,-2.36,-1.09,1.09,1.05,-0.35,-1.27,-1.27,-1.27
351.23,-2.67,-1.41,-2.62,-1.35,1.35,1.26,-0.20,-1.32,-1.26,-1.26
354.74,-2.89,-1.63,-2.86,-1.60,1.60,1.48,-0.05,-1.29,-1.26,-1.26
358.28,-3.09,-1.83,-3.08,-1.83,1.83,1.69,0.10,-1.26,-1.26,-1.26
361.87,-3.38,-2.12,-3.30,-2.04,2.04,1.90,0.25,-1.34,-1.26,-1.26
365.49,-3.66,-2.41,-3.49,-2.24,2.24,2.11,0.39,-1.42,-1.26,-1.25
369.14,-3.94,-2.68,-3.67,-2.42,2.42,2.32,0.54,-1.52,-1.26,-1.26
372.83,-3.96,-2.69,-3.84,-2.58,2.58,2.52,0.69,-1.38,-1.26,-1.26
376.56,-3.91,-2.64,-4.00,-2.74,2.74,2.72,0.84,-1.17,-1.26,-1.27
380.33,-4.02,-2.76,-4.15,-2.88,2.88,2.92,0.99,-1.14,-1.27,-1.26
384.13,-4.25,-2.99,-4.29,-3.02,3.02,3.11,1.14,-1.23,-1.27,-1.26
387.97,-4.43,-3.16,-4.42,-3.14,3.14,3.29,1.28,-1.29,-1.27,-1.27
391.85,-4.49,-3.21,-4.54,-3.27,3.27,3.46,1.43,-1.22,-1.28,-1.28
395.77,-4.56,-3.28,-4.68,-3.39,3.39,3.62,1.58,-1.17,-1.29,-1.28
399.73,-4.68,-3.39,-4.81,-3.52,3.52,3.76,1.72,-1.16,-1.29,-1.29
403.72,-4.82,-3.53,-4.94,-3.64,3.64,3.90,1.87,-1.18,-1.30,-1.29
407.76,-5.02,-3.72,-5.08,-3.78,3.78,4.01,2.01,-1.24,-1.30,-1.30
411.84,-5.19,-3.89,-5.23,-3.92,3.92,4.11,2.15,-1.26,-1.30,-1.30
415.96,-5.41,-4.11,-5.37,-4.06,4.06,4.20,2.29,-1.35,-1.31,-1.30
420.12,-5.52,-4.22,-5.47,-4.17,4.17,4.26,2.43,-1.35,-1.30,-1.30
424.32,-5.56,-4.25,-5.54,-4.24,4.24,4.31,2.56,-1.32,-1.30,-1.31
428.56,-5.62,-4.32,-5.58,-4.29,4.29,4.34,2.70,-1.33,-1.29,-1.30
432.85,-5.71,-4.42,-5.59,-4.31,4.31,4.35,2.83,-1.39,-1.27,-1.29
437.18,-5.80,-4.52,-5.58,-4.33,4.33,4.35,2.95,-1.47,-1.25,-1.28
441.55,-5.73,-4.49,-5.53,-4.30,4.30,4.33,3.07,-1.43,-1.23,-1.24
445.96,-5.62,-4.41,-5.44,-4.25,4.25,4.29,3.19,-1.37,-1.20,-1.21
450.42,-5.55,-4.37,-5.34,-4.17,4.17,4.24,3.30,-1.37,-1.16,-1.18
454.93,-5.21,-4.08,-5.20,-4.08,4.08,4.18,3.40,-1.13,-1.12,-1.13
459.48,-4.86,-3.78,-5.06,-3.99,3.99,4.10,3.50,-0.87,-1.08,-1.08
464.07,-4.74,-3.70,-4.93,-3.90,3.90,4.02,3.59,-0.84,-1.03,-1.03
468.71,-4.70,-3.72,-4.81,-3.83,3.83,3.93,3.68,-0.87,-0.98,-0.98
473.40,-4.49,-3.55,-4.68,-3.75,3.75,3.83,3.75,-0.74,-0.93,-0.94
478.13,-4.43,-3.55,-4.54,-3.65,3.65,3.72,3.82,-0.78,-0.89,-0.88
482.91,-4.34,-3.50,-4.41,-3.57,3.57,3.61,3.88,-0.77,-0.84,-0.84
487.74,-4.16,-3.36,-4.32,-3.52,3.52,3.50,3.93,-0.64,-0.80,-0.80
492.62,-4.22,-3.47,-4.24,-3.48,3.48,3.39,3.97,-0.74,-0.76,-0.75
497.55,-4.23,-3.50,-4.16,-3.43,3.43,3.27,4.00,-0.80,-0.73,-0.73
502.52,-4.15,-3.45,-4.07,-3.35,3.35,3.16,4.01,-0.79,-0.71,-0.70
507.55,-4.25,-3.56,-4.00,-3.30,3.30,3.04,4.02,-0.95,-0.70,-0.69
