frequency,raw,error,smoothed,error_smoothed,equalization,parametric_eq,fixed_band_eq,equalized_raw,equalized_smoothed,target
20.00,-8.49,-12.18,-8.51,-12.20,12.10,12.16,3.91,3.61,3.59,3.69
20.20,-8.31,-12.05,-8.30,-12.04,12.01,12.11,4.01,3.69,3.70,3.74
20.40,-8.13,-11.92,-8.12,-11.90,11.92,12.05,4.12,3.78,3.80,3.79
20.61,-7.96,-11.77,-7.94,-11.77,11.82,11.99,4.23,3.87,3.88,3.82
20.81,-7.77,-11.64,-7.77,-11.64,11.73,11.92,4.35,3.96,3.96,3.87
21.02,-7.61,-11.52,-7.64,-11.54,11.64,11.85,4.47,4.03,4.00,3.91
21.23,-7.55,-11.48,-7.55,-11.48,11.55,11.78,4.59,3.99,4.00,3.93
21.44,-7.50,-11.45,-7.50,-11.45,11.46,11.70,4.71,3.95,3.96,3.95
21.66,-7.46,-11.42,-7.46,-11.43,11.39,11.62,4.84,3.93,3.93,3.97
21.87,-7.40,-11.38,-7.39,-11.38,11.31,11.54,4.97,3.91,3.92,3.98
22.09,-7.31,-11.31,-7.30,-11.29,11.22,11.45,5.11,3.91,3.92,4.00
22.31,-7.16,-11.17,-7.17,-11.17,11.13,11.36,5.25,3.96,3.96,4.01
22.54,-7.02,-11.02,-7.01,-11.02,11.02,11.27,5.39,4.01,4.01,4.01
22.76,-6.86,-10.87,-6.86,-10.87,10.91,11.18,5.54,4.05,4.05,4.01
22.99,-6.71,-10.71,-6.73,-10.73,10.80,11.08,5.69,4.08,4.06,4.00
23.22,-6.63,-10.63,-6.63,-10.63,10.68,10.98,5.84,4.05,4.05,4.00
23.45,-6.55,-10.55,-6.55,-10.55,10.57,10.88,6.00,4.01,4.01,4.00
23.69,-6.48,-10.48,-6.48,-10.48,10.45,10.78,6.16,3.98,3.97,4.01
23.92,-6.39,-10.40,-6.38,-10.39,10.34,10.68,6.33,3.95,3.96,4.01
24.16,-6.27,-10.28,-6.27,-10.28,10.23,10.58,6.50,3.96,3.96,4.01
24.40,-6.12,-10.14,-6.13,-10.14,10.12,10.47,6.67,3.99,3.99,4.02
24.65,-5.98,-9.98,-5.97,-9.98,9.99,10.36,6.85,4.02,4.02,4.01
24.89,-5.82,-9.83,-5.83,-9.84,9.87,10.25,7.03,4.05,4.04,4.01
25.14,-5.70,-9.71,-5.71,-9.72,9.74,10.14,7.21,4.04,4.04,4.01
25.39,-5.59,-9.61,-5.59,-9.61,9.62,10.03,7.40,4.02,4.02,4.02
25.65,-5.50,-9.51,-5.49,-9.50,9.50,9.92,7.58,4.00,4.01,4.02
25.91,-5.39,-9.39,-5.39,-9.40,9.39,9.81,7.77,4.01,4.01,4.01
26.16,-5.28,-9.29,-5.29,-9.30,9.30,9.70,7.96,4.01,4.01,4.01
26.43,-5.20,-9.20,-5.19,-9.20,9.21,9.58,8.15,4.02,4.02,4.01
26.69,-5.10,-9.11,-5.10,-9.11,9.13,9.47,8.34,4.03,4.03,4.01
26.96,-5.02,-9.02,-5.02,-9.03,9.04,9.36,8.53,4.03,4.02,4.01
27.23,-4.94,-8.94,-4.94,-8.94,8.94,9.24,8.71,4.01,4.00,4.01
27.50,-4.86,-8.86,-4.86,-8.87,8.83,9.13,8.89,3.97,3.96,4.01
27.77,-4.77,-8.77,-4.77,-8.77,8.70,9.01,9.07,3.93,3.93,4.00
28.05,-4.67,-8.67,-4.65,-8.64,8.58,8.89,9.24,3.90,3.93,4.00
28.33,-4.48,-8.47,-4.48,-8.47,8.46,8.78,9.40,3.98,3.98,3.99
28.62,-4.30,-8.28,-4.29,-8.28,8.35,8.66,9.56,4.05,4.05,3.99
28.90,-4.10,-8.10,-4.14,-8.13,8.24,8.55,9.70,4.13,4.10,4.00
29.19,-4.03,-8.02,-4.05,-8.04,8.13,8.43,9.83,4.10,4.08,3.99
29.48,-4.02,-8.02,-4.02,-8.01,8.03,8.31,9.94,4.00,4.01,4.00
29.78,-4.00,-7.99,-4.00,-7.99,7.92,8.20,10.04,3.92,3.93,3.99
30.08,-3.96,-7.95,-3.92,-7.91,7.82,8.08,10.12,3.86,3.89,4.00
30.38,-3.79,-7.77,-3.80,-7.79,7.71,7.96,10.17,3.92,3.91,3.99
30.68,-3.62,-7.61,-3.64,-7.62,7.59,7.85,10.21,3.96,3.95,3.99
30.99,-3.47,-7.45,-3.47,-7.45,7.46,7.73,10.23,4.00,4.00,3.99
31.30,-3.32,-7.29,-3.31,-7.29,7.34,7.62,10.22,4.02,4.03,3.98
31.61,-3.18,-7.15,-3.16,-7.14,7.21,7.50,10.19,4.03,4.05,3.98
31.93,-3.03,-7.00,-3.05,-7.02,7.09,7.39,10.14,4.06,4.04,3.98
32.24,-2.96,-6.93,-2.98,-6.95,6.99,7.27,10.07,4.02,4.01,3.97
32.57,-2.93,-6.90,-2.93,-6.89,6.89,7.16,9.98,3.95,3.96,3.97
32.89,-2.89,-6.86,-2.88,-6.84,6.79,7.04,9.87,3.89,3.91,3.97
33.22,-2.79,-6.75,-2.79,-6.75,6.68,6.93,9.74,3.89,3.89,3.96
33.55,-2.66,-6.62,-2.67,-6.63,6.57,6.81,9.59,3.91,3.90,3.96
33.89,-2.53,-6.48,-2.53,-6.48,6.45,6.70,9.43,3.92,3.92,3.95
34.23,-2.39,-6.33,-2.38,-6.32,6.33,6.59,9.26,3.94,3.95,3.95
34.57,-2.22,-6.16,-2.22,-6.16,6.20,6.47,9.08,3.98,3.98,3.94
34.92,-2.07,-6.00,-2.09,-6.02,6.08,6.36,8.88,4.01,3.99,3.94
35.27,-1.98,-5.90,-1.98,-5.91,5.97,6.25,8.68,3.99,3.99,3.93
35.62,-1.91,-5.84,-1.90,-5.83,5.86,6.13,8.48,3.94,3.95,3.93
35.97,-1.84,-5.77,-1.85,-5.77,5.76,6.02,8.27,3.91,3.91,3.93
36.33,-1.78,-5.71,-1.79,-5.71,5.66,5.91,8.05,3.88,3.87,3.93
36.70,-1.72,-5.63,-1.71,-5.63,5.57,5.80,7.83,3.86,3.86,3.92
37.06,-1.62,-5.54,-1.60,-5.52,5.49,5.69,7.62,3.87,3.89,3.92
37.43,-1.46,-5.39,-1.46,-5.38,5.41,5.58,7.40,3.94,3.95,3.93
37.81,-1.30,-5.23,-1.33,-5.25,5.32,5.47,7.18,4.01,3.99,3.93
38.19,-1.22,-5.13,-1.25,-5.17,5.22,5.36,6.96,4.01,3.98,3.92
38.57,-1.20,-5.13,-1.20,-5.12,5.13,5.25,6.74,3.92,3.93,3.93
38.95,-1.18,-5.12,-1.14,-5.07,5.02,5.14,6.53,3.84,3.88,3.94
39.34,-1.05,-4.98,-1.06,-4.99,4.92,5.03,6.32,3.87,3.87,3.93
39.74,-0.92,-4.84,-0.93,-4.86,4.83,4.92,6.10,3.91,3.90,3.93
40.14,-0.79,-4.71,-0.79,-4.71,4.73,4.81,5.90,3.94,3.94,3.93
40.54,-0.67,-4.59,-0.67,-4.59,4.62,4.70,5.69,3.96,3.96,3.93
40.94,-0.55,-4.47,-0.56,-4.48,4.51,4.59,5.49,3.95,3.95,3.92
41.35,-0.46,-4.38,-0.47,-4.38,4.39,4.49,5.29,3.92,3.92,3.92
41.76,-0.38,-4.29,-0.38,-4.29,4.27,4.38,5.09,3.88,3.89,3.91
42.18,-0.28,-4.19,-0.27,-4.17,4.15,4.27,4.90,3.87,3.88,3.91
42.60,-0.15,-4.05,-0.16,-4.05,4.04,4.16,4.71,3.89,3.88,3.90
43.03,-0.02,-3.91,-0.04,-3.93,3.94,4.06,4.52,3.91,3.89,3.89
43.46,0.06,-3.82,0.06,-3.81,3.84,3.95,4.34,3.89,3.90,3.88
43.90,0.14,-3.71,0.15,-3.71,3.73,3.85,4.16,3.88,3.88,3.86
44.33,0.23,-3.61,0.23,-3.61,3.63,3.74,3.98,3.85,3.86,3.84
44.78,0.31,-3.50,0.30,-3.52,3.52,3.64,3.80,3.83,3.82,3.82
45.23,0.37,-3.43,0.36,-3.45,3.41,3.53,3.63,3.79,3.77,3.81
45.68,0.42,-3.38,0.43,-3.36,3.31,3.43,3.46,3.73,3.74,3.80
46.13,0.51,-3.27,0.55,-3.23,3.22,3.32,3.29,3.72,3.77,3.78
46.60,0.69,-3.08,0.69,-3.08,3.12,3.22,3.13,3.81,3.81,3.78
47.06,0.87,-2.89,0.80,-2.96,3.02,3.11,2.97,3.88,3.82,3.76
47.53,0.88,-2.87,0.88,-2.88,2.90,3.01,2.81,3.78,3.78,3.75
48.01,0.88,-2.87,0.92,-2.82,2.79,2.91,2.65,3.66,3.71,3.75
48.49,0.98,-2.74,0.98,-2.75,2.68,2.80,2.49,3.66,3.66,3.73
48.97,1.10,-2.61,1.10,-2.61,2.58,2.70,2.34,3.67,3.68,3.71
49.46,1.24,-2.45,1.23,-2.45,2.48,2.60,2.19,3.71,3.71,3.69
49.96,1.36,-2.30,1.35,-2.32,2.37,2.50,2.05,3.74,3.72,3.67
50.46,1.43,-2.22,1.44,-2.22,2.27,2.39,1.90,3.70,3.70,3.66
50.96,1.50,-2.15,1.48,-2.16,2.15,2.29,1.76,3.64,3.63,3.65
51.47,1.55,-2.08,1.54,-2.09,2.03,2.19,1.62,3.58,3.57,3.63
51.99,1.59,-2.02,1.66,-1.96,1.92,2.09,1.48,3.51,3.58,3.62
52.51,1.79,-1.81,1.79,-1.82,1.82,1.99,1.34,3.61,3.61,3.61
53.03,1.99,-1.62,1.90,-1.70,1.72,1.89,1.21,3.71,3.62,3.61
53.56,1.99,-1.60,2.00,-1.58,1.62,1.79,1.08,3.61,3.63,3.59
54.10,2.02,-1.56,2.09,-1.49,1.52,1.69,0.95,3.54,3.61,3.58
54.64,2.17,-1.38,2.14,-1.42,1.42,1.59,0.83,3.59,3.56,3.56
55.18,2.27,-1.29,2.20,-1.35,1.33,1.49,0.70,3.59,3.52,3.56
55.74,2.22,-1.32,2.28,-1.26,1.24,1.39,0.58,3.46,3.52,3.54
56.29,2.31,-1.22,2.35,-1.17,1.16,1.29,0.47,3.47,3.52,3.53
56.86,2.50,-1.01,2.44,-1.07,1.08,1.19,0.35,3.58,3.52,3.52
57.42,2.56,-0.93,2.54,-0.96,0.99,1.09,0.24,3.54,3.53,3.49
58.00,2.57,-0.91,2.59,-0.88,0.89,0.99,0.14,3.46,3.49,3.48
58.58,2.64,-0.83,2.64,-0.82,0.79,0.89,0.03,3.43,3.43,3.47
59.16,2.72,-0.73,2.72,-0.72,0.69,0.79,-0.07,3.41,3.42,3.45
59.76,2.83,-0.59,2.83,-0.60,0.59,0.70,-0.17,3.42,3.41,3.43
60.35,2.93,-0.46,2.91,-0.47,0.48,0.60,-0.26,3.41,3.40,3.39
60.96,2.99,-0.36,2.99,-0.36,0.38,0.50,-0.35,3.36,3.37,3.35
61.57,3.05,-0.26,3.05,-0.26,0.27,0.40,-0.44,3.32,3.32,3.31
62.18,3.11,-0.16,3.10,-0.16,0.16,0.31,-0.52,3.27,3.27,3.27
62.80,3.17,-0.05,3.18,-0.04,0.05,0.21,-0.60,3.22,3.23,3.22
63.43,3.24,0.06,3.23,0.05,-0.05,0.11,-0.68,3.18,3.17,3.18
64.07,3.30,0.18,3.26,0.13,-0.16,0.02,-0.75,3.15,3.11,3.13
64.71,3.29,0.20,3.34,0.25,-0.26,-0.08,-0.82,3.03,3.08,3.09
65.35,3.38,0.33,3.41,0.37,-0.37,-0.17,-0.89,3.01,3.05,3.05
66.01,3.56,0.57,3.48,0.48,-0.48,-0.27,-0.96,3.09,3.00,3.00
66.67,3.54,0.59,3.56,0.61,-0.59,-0.36,-1.02,2.94,2.96,2.95
67.33,3.58,0.68,3.61,0.71,-0.71,-0.46,-1.08,2.86,2.89,2.90
68.01,3.67,0.81,3.65,0.80,-0.83,-0.55,-1.14,2.83,2.82,2.86
68.69,3.75,0.94,3.74,0.93,-0.95,-0.65,-1.19,2.79,2.79,2.81
69.37,3.83,1.07,3.83,1.08,-1.06,-0.74,-1.25,2.77,2.77,2.76
70.07,3.90,1.19,3.91,1.21,-1.17,-0.83,-1.30,2.73,2.75,2.71
70.77,4.01,1.35,3.96,1.31,-1.27,-0.93,-1.35,2.73,2.69,2.66
71.48,4.00,1.39,3.99,1.39,-1.38,-1.02,-1.41,2.61,2.60,2.61
72.19,3.97,1.43,4.00,1.46,-1.49,-1.11,-1.46,2.47,2.51,2.54
72.91,4.03,1.55,4.03,1.55,-1.60,-1.20,-1.51,2.43,2.43,2.48
73.64,4.10,1.67,4.09,1.67,-1.69,-1.30,-1.55,2.41,2.40,2.43
74.38,4.17,1.80,4.17,1.80,-1.78,-1.39,-1.60,2.38,2.38,2.37
75.12,4.23,1.92,4.23,1.92,-1.88,-1.48,-1.65,2.35,2.35,2.31
75.87,4.28,2.03,4.26,2.01,-1.98,-1.57,-1.70,2.30,2.29,2.25
76.63,4.29,2.09,4.27,2.07,-2.08,-1.66,-1.75,2.21,2.19,2.20
77.40,4.27,2.12,4.28,2.14,-2.18,-1.75,-1.81,2.09,2.10,2.15
78.17,4.28,2.19,4.32,2.23,-2.26,-1.84,-1.86,2.01,2.06,2.09
78.95,4.42,2.37,4.40,2.35,-2.35,-1.92,-1.91,2.07,2.05,2.05
79.74,4.50,2.50,4.46,2.47,-2.43,-2.01,-1.97,2.07,2.03,2.00
80.54,4.50,2.55,4.49,2.54,-2.51,-2.10,-2.02,1.98,1.97,1.95
81.35,4.48,2.58,4.49,2.59,-2.60,-2.19,-2.08,1.88,1.89,1.90
82.16,4.47,2.62,4.50,2.65,-2.68,-2.27,-2.14,1.78,1.82,1.85
82.98,4.59,2.78,4.54,2.74,-2.77,-2.36,-2.20,1.82,1.78,1.81
83.81,4.59,2.83,4.60,2.85,-2.84,-2.44,-2.26,1.74,1.76,1.76
84.65,4.66,2.95,4.66,2.95,-2.92,-2.53,-2.33,1.73,1.73,1.71
85.50,4.70,3.03,4.66,3.00,-3.01,-2.61,-2.40,1.69,1.66,1.67
86.35,4.69,3.07,4.70,3.08,-3.09,-2.69,-2.46,1.60,1.61,1.62
87.22,4.69,3.12,4.73,3.16,-3.17,-2.78,-2.54,1.52,1.56,1.57
88.09,4.80,3.28,4.76,3.24,-3.24,-2.86,-2.61,1.55,1.52,1.52
88.97,4.80,3.34,4.79,3.33,-3.31,-2.94,-2.69,1.49,1.48,1.46
89.86,4.80,3.39,4.81,3.40,-3.37,-3.02,-2.76,1.43,1.44,1.41
90.76,4.80,3.44,4.80,3.44,-3.43,-3.10,-2.84,1.36,1.37,1.36
91.66,4.80,3.49,4.79,3.48,-3.49,-3.17,-2.93,1.30,1.29,1.31
92.58,4.79,3.54,4.78,3.53,-3.56,-3.25,-3.01,1.23,1.22,1.25
93.51,4.78,3.58,4.80,3.60,-3.62,-3.33,-3.10,1.15,1.17,1.20
94.44,4.83,3.67,4.83,3.68,-3.69,-3.40,-3.19,1.13,1.14,1.16
95.39,4.89,3.78,4.86,3.75,-3.76,-3.47,-3.28,1.12,1.10,1.11
96.34,4.90,3.84,4.89,3.84,-3.83,-3.55,-3.37,1.06,1.06,1.06
97.30,4.90,3.89,4.92,3.91,-3.90,-3.62,-3.46,0.99,1.02,1.01
98.28,4.95,3.99,4.94,3.98,-3.97,-3.69,-3.56,0.98,0.98,0.96
99.26,4.99,4.07,4.96,4.05,-4.03,-3.76,-3.66,0.96,0.93,0.92
100.25,4.96,4.09,4.96,4.09,-4.08,-3.83,-3.76,0.88,0.88,0.87
101.25,4.93,4.11,4.94,4.12,-4.12,-3.89,-3.86,0.81,0.82,0.82
102.27,4.92,4.15,4.91,4.15,-4.16,-3.96,-3.96,0.76,0.76,0.77
103.29,4.91,4.19,4.90,4.18,-4.19,-4.02,-4.06,0.71,0.71,0.72
104.32,4.89,4.21,4.89,4.21,-4.22,-4.09,-4.16,0.66,0.66,0.68
105.37,4.87,4.24,4.86,4.24,-4.25,-4.15,-4.26,0.62,0.62,0.63
106.42,4.84,4.26,4.84,4.26,-4.27,-4.21,-4.36,0.57,0.57,0.58
107.48,4.82,4.30,4.82,4.30,-4.29,-4.27,-4.46,0.53,0.54,0.52
108.56,4.80,4.33,4.80,4.33,-4.30,-4.32,-4.56,0.49,0.49,0.47
109.64,4.79,4.37,4.76,4.34,-4.32,-4.38,-4.65,0.46,0.43,0.42
110.74,4.70,4.34,4.70,4.34,-4.35,-4.43,-4.75,0.35,0.36,0.36
111.85,4.64,4.32,4.65,4.34,-4.37,-4.48,-4.84,0.26,0.28,0.32
112.97,4.63,4.37,4.62,4.36,-4.40,-4.53,-4.92,0.22,0.22,0.26
114.10,4.62,4.41,4.61,4.41,-4.43,-4.58,-5.01,0.19,0.19,0.21
115.24,4.62,4.46,4.61,4.46,-4.45,-4.63,-5.08,0.16,0.16,0.16
116.39,4.62,4.51,4.62,4.51,-4.49,-4.67,-5.16,0.13,0.14,0.11
117.55,4.62,4.55,4.62,4.55,-4.52,-4.72,-5.22,0.10,0.10,0.07
118.73,4.63,4.60,4.59,4.57,-4.55,-4.76,-5.28,0.07,0.04,0.03
119.92,4.56,4.56,4.56,4.57,-4.58,-4.80,-5.34,-0.03,-0.02,-0.00
121.12,4.52,4.56,4.54,4.58,-4.60,-4.84,-5.38,-0.09,-0.06,-0.04
122.33,4.54,4.61,4.54,4.62,-4.62,-4.87,-5.42,-0.09,-0.08,-0.07
123.55,4.57,4.67,4.55,4.65,-4.64,-4.90,-5.45,-0.07,-0.09,-0.10
124.79,4.57,4.70,4.54,4.67,-4.65,-4.94,-5.48,-0.09,-0.12,-0.13
126.03,4.48,4.64,4.51,4.67,-4.67,-4.97,-5.49,-0.20,-0.17,-0.16
127.29,4.48,4.66,4.48,4.67,-4.69,-4.99,-5.50,-0.22,-0.21,-0.18
128.57,4.48,4.70,4.47,4.69,-4.71,-5.02,-5.50,-0.23,-0.23,-0.22
129.85,4.49,4.74,4.47,4.72,-4.72,-5.05,-5.49,-0.23,-0.24,-0.25
131.15,4.47,4.75,4.46,4.74,-4.72,-5.07,-5.48,-0.26,-0.26,-0.28
132.46,4.42,4.73,4.44,4.75,-4.73,-5.09,-5.46,-0.32,-0.30,-0.31
133.79,4.42,4.76,4.40,4.74,-4.74,-5.11,-5.43,-0.33,-0.34,-0.34
135.12,4.37,4.74,4.36,4.73,-4.75,-5.12,-5.40,-0.39,-0.39,-0.37
136.48,4.33,4.72,4.33,4.73,-4.76,-5.14,-5.36,-0.43,-0.42,-0.39
137.84,4.31,4.74,4.32,4.75,-4.76,-5.15,-5.32,-0.45,-0.43,-0.43
139.22,4.32,4.78,4.31,4.77,-4.75,-5.16,-5.27,-0.44,-0.45,-0.46
140.61,4.32,4.81,4.29,4.78,-4.75,-5.17,-5.22,-0.43,-0.46,-0.49
142.02,4.23,4.74,4.26,4.77,-4.75,-5.17,-5.17,-0.53,-0.49,-0.51
143.44,4.22,4.76,4.21,4.76,-4.76,-5.18,-5.11,-0.54,-0.55,-0.54
144.87,4.19,4.77,4.17,4.75,-4.77,-5.18,-5.06,-0.59,-0.60,-0.58
146.32,4.14,4.76,4.15,4.76,-4.79,-5.18,-5.00,-0.66,-0.65,-0.62
147.78,4.12,4.77,4.12,4.78,-4.81,-5.18,-4.94,-0.70,-0.69,-0.65
149.26,4.12,4.82,4.11,4.82,-4.83,-5.18,-4.88,-0.72,-0.72,-0.70
150.75,4.12,4.88,4.12,4.89,-4.86,-5.17,-4.82,-0.75,-0.74,-0.76
152.26,4.12,4.95,4.11,4.94,-4.90,-5.16,-4.76,-0.78,-0.78,-0.83
153.78,4.11,5.01,4.07,4.97,-4.94,-5.16,-4.70,-0.84,-0.88,-0.90
155.32,3.99,4.96,4.00,4.98,-4.99,-5.15,-4.65,-1.01,-0.99,-0.97
156.88,3.92,4.97,3.94,5.00,-5.04,-5.13,-4.59,-1.13,-1.10,-1.05
158.44,3.92,5.05,3.91,5.04,-5.09,-5.12,-4.54,-1.18,-1.18,-1.13
160.03,3.92,5.13,3.91,5.12,-5.14,-5.11,-4.49,-1.22,-1.23,-1.21
161.63,3.92,5.20,3.92,5.20,-5.17,-5.09,-4.44,-1.26,-1.26,-1.28
163.24,3.91,5.25,3.91,5.25,-5.20,-5.07,-4.39,-1.30,-1.30,-1.34
164.88,3.89,5.28,3.87,5.27,-5.23,-5.05,-4.35,-1.34,-1.36,-1.39
166.53,3.82,5.26,3.81,5.25,-5.24,-5.03,-4.31,-1.43,-1.43,-1.44
168.19,3.74,5.22,3.75,5.24,-5.24,-5.01,-4.27,-1.51,-1.49,-1.48
169.87,3.69,5.21,3.70,5.22,-5.23,-4.99,-4.24,-1.54,-1.53,-1.52
171.57,3.67,5.21,3.65,5.19,-5.20,-4.96,-4.21,-1.53,-1.55,-1.54
173.29,3.61,5.16,3.60,5.15,-5.16,-4.94,-4.18,-1.55,-1.56,-1.55
175.02,3.54,5.10,3.55,5.11,-5.11,-4.91,-4.15,-1.57,-1.56,-1.56
176.77,3.48,5.05,3.49,5.07,-5.06,-4.88,-4.13,-1.58,-1.56,-1.57
178.54,3.47,5.05,3.44,5.02,-5.00,-4.85,-4.11,-1.54,-1.56,-1.58
180.32,3.40,4.97,3.40,4.97,-4.96,-4.82,-4.10,-1.56,-1.56,-1.57
182.13,3.34,4.90,3.34,4.91,-4.92,-4.79,-4.09,-1.58,-1.58,-1.56
183.95,3.29,4.86,3.27,4.84,-4.88,-4.76,-4.08,-1.60,-1.61,-1.57
185.79,3.23,4.80,3.23,4.81,-4.86,-4.72,-4.07,-1.63,-1.62,-1.57
187.65,3.20,4.79,3.22,4.81,-4.83,-4.69,-4.07,-1.64,-1.61,-1.59
189.52,3.24,4.84,3.22,4.83,-4.82,-4.66,-4.07,-1.58,-1.60,-1.60
191.42,3.24,4.86,3.21,4.84,-4.80,-4.62,-4.07,-1.57,-1.59,-1.62
193.33,3.19,4.83,3.18,4.83,-4.79,-4.58,-4.08,-1.61,-1.61,-1.64
195.27,3.12,4.78,3.13,4.79,-4.78,-4.55,-4.09,-1.66,-1.65,-1.66
197.22,3.08,4.76,3.08,4.77,-4.77,-4.51,-4.10,-1.69,-1.69,-1.68
199.19,3.05,4.75,3.04,4.74,-4.75,-4.47,-4.11,-1.71,-1.72,-1.70
201.18,3.01,4.73,2.99,4.72,-4.73,-4.43,-4.13,-1.73,-1.74,-1.72
203.19,2.94,4.68,2.95,4.69,-4.71,-4.39,-4.14,-1.77,-1.76,-1.74
205.23,2.91,4.67,2.92,4.68,-4.69,-4.35,-4.16,-1.78,-1.77,-1.76
207.28,2.91,4.68,2.90,4.67,-4.67,-4.31,-4.18,-1.76,-1.77,-1.77
209.35,2.89,4.68,2.87,4.66,-4.64,-4.27,-4.20,-1.76,-1.78,-1.79
211.44,2.82,4.64,2.81,4.63,-4.62,-4.23,-4.22,-1.80,-1.80,-1.82
213.56,2.75,4.58,2.76,4.59,-4.59,-4.19,-4.25,-1.84,-1.83,-1.83
215.69,2.70,4.54,2.71,4.55,-4.56,-4.14,-4.27,-1.86,-1.85,-1.84
217.85,2.69,4.54,2.66,4.52,-4.52,-4.10,-4.29,-1.84,-1.86,-1.85
220.03,2.62,4.48,2.61,4.48,-4.48,-4.06,-4.31,-1.87,-1.87,-1.86
222.23,2.55,4.44,2.55,4.43,-4.44,-4.02,-4.33,-1.90,-1.89,-1.89
224.45,2.49,4.37,2.50,4.39,-4.40,-3.97,-4.35,-1.92,-1.90,-1.88
226.70,2.48,4.36,2.48,4.36,-4.36,-3.93,-4.36,-1.89,-1.88,-1.88
228.96,2.49,4.36,2.46,4.33,-4.32,-3.89,-4.38,-1.84,-1.86,-1.87
231.25,2.43,4.29,2.43,4.29,-4.28,-3.84,-4.39,-1.86,-1.85,-1.86
233.57,2.39,4.24,2.38,4.24,-4.24,-3.80,-4.39,-1.85,-1.86,-1.85
235.90,2.32,4.16,2.34,4.19,-4.19,-3.76,-4.40,-1.88,-1.85,-1.84
238.26,2.33,4.16,2.32,4.14,-4.14,-3.71,-4.40,-1.82,-1.83,-1.83
240.64,2.31,4.11,2.29,4.09,-4.09,-3.67,-4.39,-1.79,-1.80,-1.80
243.05,2.27,4.04,2.27,4.04,-4.03,-3.63,-4.38,-1.77,-1.77,-1.77
245.48,2.22,3.97,2.23,3.98,-3.98,-3.58,-4.37,-1.76,-1.74,-1.75
247.93,2.21,3.93,2.20,3.93,-3.92,-3.54,-4.35,-1.72,-1.72,-1.72
250.41,2.19,3.89,2.17,3.87,-3.88,-3.50,-4.33,-1.69,-1.70,-1.70
252.92,2.14,3.81,2.13,3.81,-3.83,-3.45,-4.30,-1.69,-1.69,-1.67
255.45,2.09,3.74,2.09,3.75,-3.78,-3.41,-4.27,-1.69,-1.68,-1.65
258.00,2.07,3.70,2.07,3.70,-3.72,-3.37,-4.23,-1.66,-1.65,-1.63
260.58,2.07,3.68,2.08,3.69,-3.67,-3.32,-4.18,-1.61,-1.59,-1.61
263.19,2.08,3.66,2.07,3.66,-3.62,-3.28,-4.14,-1.54,-1.54,-1.58
265.82,2.09,3.65,2.03,3.59,-3.56,-3.24,-4.08,-1.48,-1.53,-1.56
268.48,1.94,3.48,1.96,3.50,-3.50,-3.20,-4.03,-1.57,-1.54,-1.54
271.16,1.86,3.37,1.89,3.41,-3.44,-3.16,-3.97,-1.58,-1.54,-1.51
273.87,1.86,3.35,1.86,3.35,-3.37,-3.11,-3.90,-1.51,-1.51,-1.49
276.61,1.87,3.33,1.85,3.31,-3.30,-3.07,-3.84,-1.43,-1.45,-1.46
279.38,1.85,3.28,1.80,3.23,-3.22,-3.03,-3.77,-1.38,-1.43,-1.43
282.17,1.71,3.12,1.73,3.14,-3.15,-2.99,-3.69,-1.45,-1.42,-1.41
284.99,1.65,3.02,1.69,3.07,-3.08,-2.95,-3.62,-1.44,-1.39,-1.37
287.84,1.69,3.04,1.67,3.02,-3.02,-2.91,-3.54,-1.34,-1.36,-1.35
290.72,1.70,3.02,1.66,2.98,-2.96,-2.87,-3.46,-1.26,-1.30,-1.32
293.63,1.61,2.90,1.62,2.91,-2.90,-2.83,-3.38,-1.30,-1.28,-1.29
296.57,1.56,2.82,1.56,2.82,-2.84,-2.79,-3.30,-1.29,-1.28,-1.26
299.53,1.51,2.74,1.53,2.77,-2.79,-2.75,-3.22,-1.29,-1.26,-1.23
302.53,1.53,2.74,1.53,2.73,-2.74,-2.71,-3.14,-1.21,-1.21,-1.21
305.55,1.56,2.73,1.52,2.69,-2.68,-2.67,-3.06,-1.13,-1.17,-1.17
308.61,1.49,2.64,1.50,2.65,-2.63,-2.63,-2.98,-1.14,-1.13,-1.15
311.69,1.45,2.57,1.46,2.59,-2.57,-2.59,-2.90,-1.12,-1.11,-1.12
314.81,1.43,2.53,1.41,2.52,-2.52,-2.56,-2.82,-1.09,-1.11,-1.10
317.96,1.38,2.46,1.36,2.45,-2.46,-2.52,-2.74,-1.09,-1.10,-1.08
321.14,1.31,2.38,1.32,2.39,-2.40,-2.48,-2.66,-1.10,-1.08,-1.07
324.35,1.27,2.32,1.28,2.33,-2.34,-2.44,-2.59,-1.08,-1.06,-1.05
327.59,1.26,2.30,1.24,2.29,-2.28,-2.41,-2.51,-1.02,-1.04,-1.04
330.87,1.22,2.25,1.21,2.24,-2.22,-2.37,-2.44,-1.01,-1.01,-1.03
334.18,1.16,2.17,1.16,2.17,-2.17,-2.34,-2.36,-1.01,-1.01,-1.01
337.52,1.10,2.10,1.11,2.11,-2.12,-2.30,-2.29,-1.02,-1.01,-1.00
340.90,1.06,2.05,1.05,2.05,-2.06,-2.27,-2.22,-1.01,-1.01,-0.99
344.30,1.03,2.01,1.01,2.00,-2.01,-2.23,-2.15,-0.99,-1.00,-0.98
347.75,0.97,1.95,0.98,1.97,-1.96,-2.20,-2.08,-0.99,-0.97,-0.98
351.23,0.95,1.92,0.95,1.92,-1.91,-2.16,-2.02,-0.96,-0.96,-0.97
354.74,0.93,1.91,0.89,1.87,-1.86,-2.13,-1.95,-0.93,-0.97,-0.98
358.28,0.83,1.80,0.84,1.82,-1.82,-2.10,-1.89,-0.99,-0.97,-0.97
361.87,0.77,1.74,0.79,1.76,-1.78,-2.06,-1.83,-1.01,-0.99,-0.97
365.49,0.77,1.73,0.73,1.70,-1.73,-2.03,-1.77,-0.97,-1.00,-0.96
369.14,0.70,1.67,0.71,1.69,-1.69,-2.00,-1.71,-0.99,-0.97,-0.97
372.83,0.68,1.65,0.69,1.67,-1.64,-1.97,-1.65,-0.97,-0.95,-0.97
376.56,0.69,1.67,0.65,1.62,-1.60,-1.94,-1.59,-0.92,-0.96,-0.98
380.33,0.61,1.58,0.60,1.58,-1.56,-1.91,-1.54,-0.96,-0.96,-0.97
384.13,0.52,1.49,0.55,1.53,-1.53,-1.88,-1.49,-1.01,-0.98,-0.97
387.97,0.51,1.49,0.49,1.47,-1.50,-1.85,-1.43,-0.99,-1.01,-0.98
391.85,0.46,1.45,0.45,1.44,-1.46,-1.82,-1.38,-1.01,-1.01,-0.99
395.77,0.42,1.40,0.43,1.42,-1.43,-1.79,-1.33,-1.01,-0.99,-0.98
399.73,0.41,1.40,0.41,1.40,-1.39,-1.76,-1.29,-0.99,-0.98,-0.99
403.72,0.40,1.39,0.38,1.38,-1.36,-1.73,-1.24,-0.96,-0.98,-0.99
407.76,0.34,1.35,0.33,1.34,-1.32,-1.70,-1.19,-0.98,-0.99,-1.01
411.84,0.27,1.28,0.28,1.29,-1.28,-1.67,-1.15,-1.01,-1.00,-1.01
415.96,0.21,1.22,0.22,1.24,-1.23,-1.65,-1.11,-1.03,-1.01,-1.01
420.12,0.20,1.21,0.18,1.19,-1.19,-1.62,-1.07,-0.99,-1.01,-1.01
424.32,0.14,1.15,0.13,1.14,-1.15,-1.59,-1.02,-1.01,-1.02,-1.01
428.56,0.09,1.09,0.09,1.09,-1.11,-1.57,-0.99,-1.03,-1.03,-1.00
432.85,0.05,1.04,0.06,1.05,-1.08,-1.54,-0.95,-1.04,-1.03,-0.99
437.18,0.06,1.04,0.06,1.03,-1.06,-1.51,-0.91,-1.00,-1.00,-0.98
441.55,0.09,1.03,0.09,1.04,-1.03,-1.49,-0.87,-0.95,-0.95,-0.94
445.96,0.14,1.05,0.13,1.04,-1.01,-1.46,-0.84,-0.88,-0.89,-0.91
450.42,0.16,1.04,0.15,1.02,-0.99,-1.44,-0.81,-0.84,-0.85,-0.88
454.93,0.16,0.99,0.15,0.99,-0.97,-1.42,-0.78,-0.82,-0.82,-0.83
459.48,0.14,0.93,0.15,0.94,-0.95,-1.39,-0.74,-0.82,-0.80,-0.79
464.07,0.17,0.91,0.16,0.90,-0.92,-1.37,-0.72,-0.76,-0.76,-0.74
468.71,0.19,0.87,0.18,0.87,-0.88,-1.35,-0.69,-0.70,-0.71,-0.68
473.40,0.20,0.84,0.22,0.85,-0.84,-1.32,-0.66,-0.64,-0.62,-0.64
478.13,0.24,0.82,0.24,0.83,-0.79,-1.30,-0.63,-0.56,-0.56,-0.58
482.91,0.29,0.83,0.23,0.78,-0.75,-1.28,-0.61,-0.47,-0.52,-0.54
487.74,0.20,0.70,0.22,0.71,-0.72,-1.26,-0.59,-0.52,-0.50,-0.50
492.62,0.17,0.62,0.19,0.65,-0.68,-1.24,-0.56,-0.52,-0.49,-0.45
497.55,0.19,0.62,0.18,0.61,-0.65,-1.22,-0.54,-0.47,-0.47,-0.43
