frequency,raw,error,smoothed,error_smoothed,equalization,parametric_eq,fixed_band_eq,equalized_raw,equalized_smoothed,target
20.00,4.76,-2.16,4.74,-2.18,2.18,2.76,0.50,6.95,6.93,6.93
20.20,4.77,-2.14,4.76,-2.15,2.15,2.74,0.52,6.93,6.92,6.92
20.40,4.79,-2.11,4.78,-2.12,2.12,2.72,0.53,6.91,6.90,6.91
20.61,4.80,-2.09,4.81,-2.09,2.09,2.70,0.55,6.89,6.89,6.90
20.81,4.82,-2.05,4.83,-2.05,2.05,2.68,0.56,6.88,6.88,6.88
21.02,4.84,-2.02,4.85,-2.02,2.02,2.66,0.58,6.86,6.87,6.87
21.23,4.87,-1.98,4.88,-1.98,1.98,2.63,0.60,6.85,6.86,6.86
21.44,4.89,-1.97,4.91,-1.94,1.94,2.61,0.62,6.84,6.85,6.87
21.66,4.92,-1.92,4.94,-1.91,1.91,2.58,0.63,6.83,6.84,6.85
21.87,4.95,-1.89,4.97,-1.87,1.87,2.55,0.65,6.82,6.83,6.85
22.09,4.98,-1.84,5.00,-1.83,1.83,2.53,0.67,6.81,6.83,6.83
22.31,5.02,-1.79,5.03,-1.79,1.79,2.50,0.69,6.81,6.82,6.82
22.54,5.07,-1.73,5.07,-1.74,1.74,2.47,0.71,6.81,6.81,6.81
22.76,5.11,-1.69,5.11,-1.70,1.70,2.44,0.73,6.81,6.81,6.81
22.99,5.16,-1.63,5.15,-1.65,1.65,2.41,0.76,6.81,6.80,6.80
23.22,5.20,-1.58,5.19,-1.60,1.60,2.37,0.78,6.81,6.80,6.79
23.45,5.24,-1.55,5.23,-1.56,1.56,2.34,0.80,6.80,6.79,6.80
23.69,5.28,-1.50,5.28,-1.51,1.51,2.31,0.82,6.79,6.79,6.79
23.92,5.32,-1.45,5.32,-1.46,1.46,2.28,0.84,6.78,6.78,6.78
24.16,5.36,-1.42,5.37,-1.41,1.41,2.24,0.87,6.78,6.78,6.79
24.40,5.39,-1.39,5.41,-1.37,1.37,2.21,0.89,6.76,6.78,6.79
24.65,5.43,-1.34,5.45,-1.33,1.33,2.17,0.92,6.76,6.78,6.78
24.89,5.47,-1.30,5.49,-1.29,1.29,2.14,0.94,6.76,6.77,6.78
25.14,5.52,-1.24,5.52,-1.25,1.25,2.11,0.96,6.77,6.77,6.77
25.39,5.56,-1.20,5.56,-1.21,1.21,2.07,0.99,6.78,6.77,6.77
25.65,5.61,-1.15,5.59,-1.18,1.18,2.04,1.01,6.79,6.77,6.77
25.91,5.64,-1.12,5.62,-1.14,1.14,2.00,1.03,6.79,6.77,6.77
26.16,5.67,-1.10,5.65,-1.11,1.11,1.97,1.06,6.79,6.77,6.78
26.43,5.69,-1.07,5.68,-1.09,1.09,1.93,1.08,6.78,6.77,6.77
26.69,5.71,-1.05,5.70,-1.06,1.06,1.89,1.10,6.78,6.77,6.77
26.96,5.72,-1.04,5.73,-1.04,1.04,1.86,1.12,6.77,6.77,6.77
27.23,5.74,-1.02,5.75,-1.02,1.02,1.82,1.14,6.77,6.77,6.77
27.50,5.75,-1.01,5.77,-1.01,1.01,1.79,1.16,6.76,6.77,6.77
27.77,5.77,-1.00,5.78,-0.99,0.99,1.76,1.18,6.76,6.77,6.78
28.05,5.80,-0.96,5.80,-0.97,0.97,1.72,1.20,6.78,6.78,6.77
28.33,5.82,-0.95,5.82,-0.95,0.95,1.69,1.21,6.78,6.78,6.78
28.62,5.83,-0.94,5.84,-0.94,0.94,1.65,1.23,6.77,6.78,6.78
28.90,5.85,-0.93,5.86,-0.91,0.91,1.62,1.24,6.77,6.78,6.79
29.19,5.87,-0.91,5.89,-0.89,0.89,1.58,1.25,6.76,6.78,6.79
29.48,5.90,-0.87,5.92,-0.86,0.86,1.55,1.26,6.76,6.78,6.78
29.78,5.93,-0.84,5.94,-0.83,0.83,1.52,1.26,6.76,6.77,6.78
30.08,5.96,-0.81,5.97,-0.80,0.80,1.49,1.27,6.76,6.77,6.78
30.38,5.99,-0.76,6.00,-0.77,0.77,1.45,1.27,6.76,6.77,6.76
30.68,6.02,-0.73,6.02,-0.74,0.74,1.42,1.27,6.76,6.76,6.76
30.99,6.05,-0.70,6.04,-0.71,0.71,1.39,1.26,6.77,6.76,6.76
31.30,6.07,-0.68,6.06,-0.69,0.69,1.36,1.26,6.76,6.75,6.76
31.61,6.09,-0.65,6.08,-0.67,0.67,1.33,1.25,6.76,6.74,6.75
31.93,6.11,-0.61,6.09,-0.65,0.65,1.30,1.23,6.76,6.74,6.73
32.24,6.12,-0.61,6.09,-0.63,0.63,1.26,1.22,6.76,6.73,6.74
32.57,6.13,-0.58,6.10,-0.62,0.62,1.23,1.20,6.76,6.72,6.72
32.89,6.12,-0.59,6.10,-0.61,0.61,1.20,1.18,6.74,6.72,6.72
33.22,6.11,-0.59,6.10,-0.61,0.61,1.18,1.16,6.72,6.71,6.71
33.55,6.09,-0.61,6.11,-0.60,0.60,1.15,1.14,6.69,6.70,6.71
33.89,6.08,-0.61,6.11,-0.59,0.59,1.12,1.11,6.67,6.70,6.70
34.23,6.08,-0.59,6.11,-0.57,0.57,1.09,1.08,6.66,6.69,6.68
34.57,6.09,-0.58,6.12,-0.55,0.55,1.06,1.05,6.65,6.68,6.68
34.92,6.10,-0.55,6.14,-0.53,0.53,1.03,1.02,6.63,6.67,6.66
35.27,6.12,-0.55,6.15,-0.51,0.51,1.01,0.99,6.63,6.66,6.68
35.62,6.15,-0.49,6.17,-0.47,0.47,0.98,0.95,6.63,6.65,6.65
35.97,6.18,-0.46,6.20,-0.44,0.44,0.95,0.92,6.62,6.63,6.65
36.33,6.21,-0.41,6.22,-0.40,0.40,0.93,0.88,6.61,6.62,6.63
36.70,6.25,-0.35,6.25,-0.36,0.36,0.90,0.84,6.61,6.61,6.61
37.06,6.29,-0.29,6.27,-0.31,0.31,0.88,0.80,6.61,6.59,6.59
37.43,6.31,-0.25,6.30,-0.27,0.27,0.85,0.76,6.59,6.57,6.57
37.81,6.34,-0.21,6.32,-0.23,0.23,0.83,0.72,6.58,6.55,6.56
38.19,6.35,-0.17,6.33,-0.20,0.20,0.80,0.68,6.55,6.53,6.53
38.57,6.35,-0.15,6.34,-0.17,0.17,0.78,0.64,6.53,6.51,6.51
38.95,6.35,-0.14,6.34,-0.15,0.15,0.75,0.60,6.51,6.49,6.50
39.34,6.35,-0.11,6.33,-0.14,0.14,0.73,0.56,6.49,6.47,6.47
39.74,6.33,-0.10,6.31,-0.13,0.13,0.71,0.52,6.46,6.44,6.44
40.14,6.31,-0.10,6.29,-0.13,0.13,0.68,0.48,6.44,6.42,6.42
40.54,6.28,-0.11,6.27,-0.13,0.13,0.66,0.43,6.41,6.40,6.40
40.94,6.24,-0.12,6.24,-0.13,0.13,0.64,0.39,6.38,6.38,6.37
41.35,6.21,-0.14,6.22,-0.14,0.14,0.62,0.35,6.35,6.35,6.36
41.76,6.17,-0.15,6.19,-0.14,0.14,0.59,0.31,6.31,6.33,6.33
42.18,6.14,-0.17,6.17,-0.14,0.14,0.57,0.26,6.28,6.31,6.32
42.60,6.12,-0.16,6.15,-0.14,0.14,0.55,0.22,6.26,6.28,6.29
43.03,6.10,-0.16,6.13,-0.13,0.13,0.53,0.18,6.23,6.26,6.27
43.46,6.09,-0.13,6.11,-0.12,0.12,0.51,0.14,6.21,6.24,6.23
43.90,6.08,-0.12,6.10,-0.11,0.11,0.49,0.10,6.19,6.21,6.21
44.33,6.08,-0.09,6.09,-0.09,0.09,0.47,0.05,6.17,6.18,6.18
44.78,6.09,-0.06,6.09,-0.06,0.06,0.45,0.01,6.16,6.15,6.16
45.23,6.10,-0.03,6.09,-0.03,0.03,0.43,-0.03,6.14,6.12,6.14
45.68,6.10,0.02,6.09,0.00,-0.00,0.41,-0.07,6.10,6.09,6.09
46.13,6.10,0.05,6.09,0.04,-0.04,0.39,-0.11,6.06,6.05,6.06
46.60,6.10,0.09,6.09,0.08,-0.08,0.37,-0.15,6.03,6.02,6.02
47.06,6.10,0.12,6.10,0.12,-0.12,0.35,-0.19,5.98,5.98,5.99
47.53,6.10,0.16,6.10,0.16,-0.16,0.33,-0.23,5.94,5.94,5.95
48.01,6.10,0.21,6.10,0.21,-0.21,0.32,-0.28,5.90,5.90,5.90
48.49,6.10,0.25,6.11,0.25,-0.25,0.30,-0.32,5.85,5.86,5.86
48.97,6.10,0.30,6.11,0.30,-0.30,0.28,-0.36,5.81,5.82,5.81
49.46,6.10,0.33,6.12,0.34,-0.34,0.26,-0.40,5.76,5.77,5.78
49.96,6.10,0.39,6.12,0.39,-0.39,0.24,-0.44,5.72,5.73,5.72
50.46,6.10,0.42,6.12,0.43,-0.43,0.23,-0.48,5.67,5.69,5.69
50.96,6.11,0.47,6.12,0.47,-0.47,0.21,-0.52,5.64,5.65,5.65
51.47,6.12,0.52,6.12,0.52,-0.52,0.19,-0.56,5.61,5.61,5.61
51.99,6.13,0.58,6.12,0.55,-0.55,0.17,-0.60,5.58,5.56,5.56
52.51,6.13,0.61,6.11,0.59,-0.59,0.16,-0.63,5.54,5.52,5.53
53.03,6.12,0.63,6.10,0.62,-0.62,0.14,-0.67,5.50,5.48,5.50
53.56,6.11,0.67,6.09,0.65,-0.65,0.12,-0.71,5.46,5.44,5.45
54.10,6.09,0.70,6.08,0.68,-0.68,0.11,-0.75,5.42,5.40,5.40
54.64,6.07,0.72,6.06,0.70,-0.70,0.09,-0.78,5.38,5.36,5.36
55.18,6.04,0.73,6.04,0.72,-0.72,0.08,-0.82,5.33,5.32,5.32
55.74,6.01,0.75,6.02,0.73,-0.73,0.06,-0.85,5.28,5.29,5.27
56.29,5.98,0.74,5.99,0.75,-0.75,0.04,-0.89,5.24,5.25,5.25
56.86,5.95,0.75,5.97,0.76,-0.76,0.03,-0.92,5.19,5.21,5.21
57.42,5.92,0.77,5.94,0.77,-0.77,0.01,-0.95,5.15,5.17,5.16
58.00,5.90,0.79,5.91,0.79,-0.79,-0.00,-0.98,5.12,5.12,5.12
58.58,5.87,0.79,5.88,0.80,-0.80,-0.02,-1.01,5.07,5.08,5.09
59.16,5.85,0.80,5.86,0.82,-0.82,-0.03,-1.04,5.03,5.03,5.06
59.76,5.83,0.83,5.83,0.85,-0.85,-0.05,-1.06,4.99,4.99,5.01
60.35,5.81,0.86,5.81,0.87,-0.87,-0.06,-1.09,4.94,4.94,4.96
60.96,5.78,0.89,5.79,0.90,-0.90,-0.08,-1.11,4.89,4.89,4.90
61.57,5.76,0.93,5.76,0.93,-0.93,-0.09,-1.13,4.84,4.84,4.84
62.18,5.73,0.96,5.74,0.96,-0.96,-0.11,-1.15,4.77,4.79,4.78
62.80,5.71,1.00,5.72,0.99,-0.99,-0.12,-1.17,4.72,4.73,4.72
63.43,5.70,1.04,5.70,1.02,-1.02,-0.14,-1.19,4.68,4.68,4.67
64.07,5.68,1.07,5.68,1.05,-1.05,-0.15,-1.20,4.63,4.62,4.62
64.71,5.65,1.09,5.65,1.08,-1.08,-0.17,-1.22,4.57,4.57,4.57
65.35,5.63,1.13,5.63,1.11,-1.11,-0.18,-1.23,4.52,4.51,4.51
66.01,5.61,1.16,5.60,1.14,-1.14,-0.20,-1.24,4.48,4.46,4.46
66.67,5.58,1.17,5.57,1.16,-1.16,-0.21,-1.25,4.42,4.40,4.42
67.33,5.55,1.21,5.54,1.19,-1.19,-0.23,-1.26,4.36,4.35,4.35
68.01,5.51,1.22,5.51,1.22,-1.22,-0.24,-1.27,4.30,4.29,4.30
68.69,5.48,1.24,5.48,1.24,-1.24,-0.25,-1.28,4.24,4.24,4.25
69.37,5.44,1.25,5.45,1.27,-1.27,-0.27,-1.28,4.17,4.18,4.20
70.07,5.40,1.27,5.42,1.29,-1.29,-0.28,-1.29,4.11,4.13,4.14
70.77,5.36,1.30,5.39,1.32,-1.32,-0.30,-1.29,4.04,4.07,4.07
71.48,5.33,1.32,5.36,1.35,-1.35,-0.31,-1.30,3.99,4.01,4.02
72.19,5.31,1.36,5.32,1.37,-1.37,-0.32,-1.30,3.94,3.95,3.96
72.91,5.30,1.42,5.29,1.39,-1.39,-0.34,-1.31,3.91,3.90,3.89
73.64,5.28,1.45,5.26,1.42,-1.42,-0.35,-1.31,3.87,3.84,3.84
74.38,5.25,1.48,5.23,1.44,-1.44,-0.37,-1.32,3.81,3.79,3.78
75.12,5.21,1.49,5.20,1.47,-1.47,-0.38,-1.32,3.75,3.73,3.73
75.87,5.17,1.50,5.17,1.49,-1.49,-0.39,-1.33,3.68,3.68,3.68
76.63,5.13,1.52,5.14,1.51,-1.51,-0.41,-1.34,3.62,3.63,3.62
77.40,5.09,1.52,5.11,1.53,-1.53,-0.42,-1.34,3.56,3.57,3.58
78.17,5.05,1.54,5.08,1.55,-1.55,-0.43,-1.35,3.50,3.52,3.52
78.95,5.02,1.55,5.04,1.57,-1.57,-0.45,-1.36,3.45,3.47,3.48
79.74,5.00,1.58,5.01,1.59,-1.59,-0.46,-1.36,3.42,3.42,3.43
80.54,4.97,1.60,4.97,1.60,-1.60,-0.48,-1.37,3.37,3.37,3.38
81.35,4.95,1.64,4.94,1.61,-1.61,-0.49,-1.38,3.34,3.32,3.32
82.16,4.91,1.63,4.90,1.63,-1.63,-0.50,-1.39,3.29,3.27,3.29
82.98,4.87,1.65,4.86,1.64,-1.64,-0.52,-1.41,3.23,3.22,3.23
83.81,4.83,1.66,4.83,1.66,-1.66,-0.53,-1.42,3.18,3.17,3.18
84.65,4.79,1.68,4.79,1.67,-1.67,-0.54,-1.43,3.12,3.12,3.12
85.50,4.75,1.70,4.75,1.69,-1.69,-0.56,-1.45,3.06,3.06,3.06
86.35,4.71,1.71,4.71,1.70,-1.70,-0.57,-1.47,3.01,3.01,3.01
87.22,4.66,1.71,4.67,1.72,-1.72,-0.58,-1.48,2.95,2.95,2.96
88.09,4.62,1.73,4.63,1.73,-1.73,-0.59,-1.50,2.89,2.90,2.90
88.97,4.58,1.75,4.58,1.74,-1.74,-0.61,-1.52,2.84,2.84,2.84
89.86,4.54,1.76,4.54,1.76,-1.76,-0.62,-1.54,2.79,2.78,2.79
90.76,4.49,1.77,4.50,1.77,-1.77,-0.63,-1.56,2.72,2.72,2.73
91.66,4.45,1.80,4.45,1.79,-1.79,-0.65,-1.59,2.66,2.66,2.66
92.58,4.41,1.81,4.41,1.81,-1.81,-0.66,-1.61,2.61,2.60,2.61
93.51,4.37,1.82,4.37,1.83,-1.83,-0.67,-1.64,2.55,2.54,2.56
94.44,4.32,1.83,4.33,1.85,-1.85,-0.69,-1.66,2.48,2.48,2.50
95.39,4.28,1.86,4.29,1.87,-1.87,-0.70,-1.69,2.42,2.42,2.43
96.34,4.24,1.89,4.25,1.89,-1.89,-0.71,-1.72,2.35,2.36,2.36
97.30,4.20,1.91,4.21,1.91,-1.91,-0.73,-1.75,2.29,2.30,2.30
98.28,4.17,1.95,4.17,1.93,-1.93,-0.74,-1.78,2.24,2.24,2.23
99.26,4.13,1.97,4.13,1.96,-1.96,-0.75,-1.81,2.18,2.18,2.17
100.25,4.09,1.99,4.10,1.98,-1.98,-0.76,-1.84,2.11,2.12,2.11
101.25,4.05,2.00,4.06,2.00,-2.00,-0.78,-1.88,2.05,2.06,2.06
102.27,4.01,2.02,4.02,2.02,-2.02,-0.79,-1.91,2.00,2.00,2.00
103.29,3.97,2.04,3.97,2.03,-2.03,-0.80,-1.94,1.94,1.94,1.94
104.32,3.93,2.05,3.93,2.05,-2.05,-0.81,-1.98,1.88,1.88,1.89
105.37,3.90,2.08,3.89,2.06,-2.06,-0.83,-2.01,1.84,1.83,1.83
106.42,3.86,2.09,3.85,2.07,-2.07,-0.84,-2.04,1.79,1.77,1.78
107.48,3.81,2.10,3.80,2.09,-2.09,-0.85,-2.08,1.73,1.72,1.72
108.56,3.76,2.10,3.75,2.10,-2.10,-0.86,-2.11,1.67,1.66,1.67
109.64,3.70,2.10,3.70,2.10,-2.10,-0.88,-2.14,1.60,1.60,1.61
110.74,3.64,2.10,3.65,2.11,-2.11,-0.89,-2.17,1.53,1.54,1.55
111.85,3.58,2.10,3.60,2.12,-2.12,-0.90,-2.20,1.47,1.48,1.49
112.97,3.54,2.11,3.55,2.12,-2.12,-0.91,-2.23,1.42,1.42,1.44
114.10,3.50,2.13,3.50,2.13,-2.13,-0.93,-2.26,1.37,1.37,1.38
115.24,3.45,2.16,3.44,2.13,-2.13,-0.94,-2.28,1.32,1.31,1.30
116.39,3.39,2.16,3.39,2.14,-2.14,-0.95,-2.31,1.26,1.25,1.24
117.55,3.33,2.16,3.33,2.14,-2.14,-0.96,-2.33,1.19,1.19,1.18
118.73,3.27,2.16,3.28,2.15,-2.15,-0.97,-2.35,1.13,1.13,1.12
119.92,3.21,2.14,3.23,2.15,-2.15,-0.99,-2.36,1.06,1.08,1.08
121.12,3.17,2.15,3.18,2.16,-2.16,-1.00,-2.38,1.01,1.02,1.03
122.33,3.13,2.17,3.13,2.17,-2.17,-1.01,-2.39,0.97,0.97,0.97
123.55,3.08,2.17,3.08,2.17,-2.17,-1.02,-2.40,0.91,0.91,0.92
124.79,3.03,2.17,3.03,2.18,-2.18,-1.03,-2.41,0.85,0.85,0.87
126.03,2.98,2.18,2.99,2.19,-2.19,-1.04,-2.41,0.80,0.80,0.81
127.29,2.93,2.18,2.94,2.19,-2.19,-1.06,-2.41,0.74,0.75,0.76
128.57,2.89,2.21,2.89,2.20,-2.20,-1.07,-2.41,0.69,0.69,0.69
129.85,2.85,2.22,2.84,2.21,-2.21,-1.08,-2.41,0.65,0.64,0.64
131.15,2.80,2.23,2.80,2.22,-2.22,-1.09,-2.40,0.59,0.58,0.58
132.46,2.75,2.23,2.75,2.22,-2.22,-1.10,-2.39,0.53,0.53,0.53
133.79,2.69,2.23,2.70,2.23,-2.23,-1.11,-2.38,0.47,0.47,0.47
135.12,2.64,2.23,2.65,2.23,-2.23,-1.12,-2.36,0.41,0.42,0.42
136.48,2.59,2.23,2.60,2.23,-2.23,-1.14,-2.35,0.36,0.37,0.37
137.84,2.55,2.24,2.54,2.23,-2.23,-1.15,-2.33,0.32,0.31,0.32
139.22,2.50,2.25,2.49,2.23,-2.23,-1.16,-2.31,0.28,0.26,0.26
140.61,2.44,2.23,2.43,2.22,-2.22,-1.17,-2.29,0.22,0.21,0.22
142.02,2.38,2.23,2.38,2.21,-2.21,-1.18,-2.27,0.17,0.17,0.16
143.44,2.31,2.20,2.32,2.20,-2.20,-1.19,-2.25,0.11,0.12,0.12
144.87,2.26,2.19,2.27,2.20,-2.20,-1.20,-2.23,0.07,0.07,0.08
146.32,2.21,2.19,2.22,2.19,-2.19,-1.21,-2.21,0.03,0.03,0.03
147.78,2.15,2.17,2.16,2.18,-2.18,-1.22,-2.18,-0.02,-0.01,-0.01
149.26,2.10,2.17,2.11,2.17,-2.17,-1.23,-2.16,-0.06,-0.06,-0.06
150.75,2.05,2.16,2.05,2.15,-2.15,-1.24,-2.14,-0.10,-0.10,-0.10
152.26,1.99,2.14,1.99,2.14,-2.14,-1.25,-2.12,-0.15,-0.15,-0.14
153.78,1.94,2.13,1.94,2.13,-2.13,-1.26,-2.09,-0.18,-0.19,-0.18
155.32,1.89,2.12,1.89,2.12,-2.12,-1.27,-2.07,-0.22,-0.23,-0.22
156.88,1.84,2.12,1.83,2.11,-2.11,-1.28,-2.05,-0.26,-0.28,-0.27
158.44,1.79,2.12,1.78,2.10,-2.10,-1.29,-2.03,-0.31,-0.32,-0.32
160.03,1.73,2.10,1.73,2.09,-2.09,-1.30,-2.01,-0.36,-0.36,-0.36
161.63,1.67,2.08,1.68,2.08,-2.08,-1.31,-1.99,-0.41,-0.41,-0.40
163.24,1.60,2.06,1.62,2.08,-2.08,-1.32,-1.98,-0.48,-0.45,-0.45
164.88,1.55,2.06,1.57,2.07,-2.07,-1.33,-1.96,-0.52,-0.50,-0.50
166.53,1.51,2.07,1.52,2.07,-2.07,-1.34,-1.95,-0.56,-0.55,-0.55
168.19,1.48,2.07,1.47,2.07,-2.07,-1.35,-1.93,-0.58,-0.59,-0.58
169.87,1.43,2.08,1.42,2.06,-2.06,-1.36,-1.92,-0.63,-0.64,-0.64
171.57,1.38,2.08,1.37,2.06,-2.06,-1.37,-1.91,-0.68,-0.69,-0.69
173.29,1.33,2.07,1.33,2.06,-2.06,-1.38,-1.90,-0.73,-0.74,-0.73
175.02,1.28,2.07,1.28,2.07,-2.07,-1.39,-1.89,-0.78,-0.78,-0.78
176.77,1.24,2.08,1.24,2.07,-2.07,-1.40,-1.89,-0.83,-0.83,-0.83
178.54,1.20,2.08,1.21,2.08,-2.08,-1.41,-1.88,-0.88,-0.88,-0.87
180.32,1.16,2.10,1.17,2.09,-2.09,-1.42,-1.88,-0.93,-0.92,-0.93
182.13,1.12,2.09,1.14,2.11,-2.11,-1.42,-1.88,-0.98,-0.97,-0.96
183.95,1.08,2.10,1.10,2.12,-2.12,-1.43,-1.88,-1.04,-1.01,-1.01
185.79,1.05,2.12,1.07,2.13,-2.13,-1.44,-1.88,-1.08,-1.06,-1.06
187.65,1.03,2.14,1.04,2.14,-2.14,-1.45,-1.88,-1.11,-1.11,-1.10
189.52,1.02,2.17,1.01,2.15,-2.15,-1.46,-1.89,-1.13,-1.15,-1.14
191.42,1.00,2.19,0.98,2.17,-2.17,-1.47,-1.89,-1.17,-1.19,-1.18
193.33,0.97,2.20,0.95,2.18,-2.18,-1.47,-1.90,-1.21,-1.23,-1.22
195.27,0.93,2.21,0.93,2.20,-2.20,-1.48,-1.90,-1.26,-1.27,-1.27
197.22,0.90,2.23,0.90,2.21,-2.21,-1.49,-1.91,-1.31,-1.31,-1.32
199.19,0.86,2.22,0.88,2.22,-2.22,-1.50,-1.92,-1.36,-1.35,-1.35
201.18,0.83,2.23,0.85,2.23,-2.23,-1.51,-1.93,-1.40,-1.38,-1.39
203.19,0.80,2.23,0.83,2.24,-2.24,-1.51,-1.95,-1.44,-1.42,-1.42
205.23,0.78,2.23,0.80,2.25,-2.25,-1.52,-1.96,-1.46,-1.45,-1.44
207.28,0.77,2.25,0.77,2.25,-2.25,-1.53,-1.97,-1.48,-1.48,-1.47
209.35,0.75,2.27,0.73,2.25,-2.25,-1.54,-1.98,-1.49,-1.51,-1.51
211.44,0.72,2.27,0.70,2.24,-2.24,-1.54,-2.00,-1.52,-1.54,-1.54
213.56,0.69,2.26,0.66,2.24,-2.24,-1.55,-2.01,-1.54,-1.57,-1.56
215.69,0.65,2.25,0.63,2.23,-2.23,-1.56,-2.03,-1.58,-1.60,-1.59
217.85,0.60,2.23,0.60,2.23,-2.23,-1.56,-2.04,-1.62,-1.62,-1.62
220.03,0.56,2.22,0.57,2.22,-2.22,-1.57,-2.05,-1.66,-1.65,-1.65
222.23,0.52,2.21,0.54,2.21,-2.21,-1.58,-2.07,-1.69,-1.67,-1.68
224.45,0.48,2.18,0.51,2.20,-2.20,-1.59,-2.08,-1.72,-1.70,-1.69
226.70,0.45,2.18,0.48,2.19,-2.19,-1.59,-2.09,-1.74,-1.72,-1.72
228.96,0.42,2.16,0.44,2.18,-2.18,-1.60,-2.10,-1.76,-1.74,-1.73
231.25,0.40,2.16,0.41,2.17,-2.17,-1.60,-2.12,-1.76,-1.76,-1.75
233.57,0.39,2.17,0.38,2.15,-2.15,-1.61,-2.12,-1.76,-1.77,-1.77
235.90,0.37,2.16,0.35,2.14,-2.14,-1.62,-2.13,-1.77,-1.79,-1.78
238.26,0.34,2.16,0.33,2.13,-2.13,-1.62,-2.14,-1.78,-1.80,-1.81
240.64,0.31,2.12,0.30,2.11,-2.11,-1.63,-2.14,-1.80,-1.81,-1.80
243.05,0.28,2.11,0.28,2.10,-2.10,-1.64,-2.15,-1.81,-1.82,-1.82
245.48,0.25,2.09,0.25,2.08,-2.08,-1.64,-2.15,-1.83,-1.83,-1.83
247.93,0.22,2.07,0.23,2.06,-2.06,-1.65,-2.15,-1.84,-1.84,-1.84
250.41,0.19,2.03,0.20,2.04,-2.04,-1.65,-2.15,-1.85,-1.84,-1.83
252.92,0.16,2.01,0.17,2.02,-2.02,-1.66,-2.14,-1.85,-1.85,-1.84
255.45,0.14,2.00,0.14,1.99,-1.99,-1.66,-2.14,-1.85,-1.85,-1.85
258.00,0.12,1.98,0.11,1.97,-1.97,-1.67,-2.13,-1.84,-1.85,-1.85
260.58,0.09,1.95,0.08,1.94,-1.94,-1.67,-2.12,-1.85,-1.86,-1.85
263.19,0.06,1.92,0.05,1.92,-1.92,-1.68,-2.11,-1.85,-1.86,-1.85
265.82,0.03,1.90,0.03,1.89,-1.89,-1.68,-2.10,-1.86,-1.86,-1.86
268.48,0.00,1.87,0.01,1.87,-1.87,-1.69,-2.09,-1.87,-1.87,-1.86
271.16,-0.02,1.85,-0.01,1.86,-1.86,-1.69,-2.07,-1.88,-1.87,-1.86
273.87,-0.04,1.83,-0.03,1.84,-1.84,-1.70,-2.06,-1.88,-1.87,-1.86
276.61,-0.06,1.81,-0.04,1.83,-1.83,-1.70,-2.04,-1.89,-1.87,-1.86
279.38,-0.07,1.82,-0.05,1.82,-1.82,-1.71,-2.02,-1.89,-1.87,-1.88
282.17,-0.08,1.81,-0.06,1.81,-1.81,-1.71,-2.00,-1.89,-1.87,-1.88
284.99,-0.08,1.80,-0.07,1.80,-1.80,-1.72,-1.98,-1.88,-1.87,-1.87
287.84,-0.07,1.80,-0.07,1.80,-1.80,-1.72,-1.96,-1.86,-1.87,-1.86
290.72,-0.07,1.81,-0.07,1.79,-1.79,-1.73,-1.95,-1.86,-1.86,-1.87
293.63,-0.06,1.81,-0.07,1.79,-1.79,-1.73,-1.93,-1.85,-1.86,-1.86
296.57,-0.06,1.80,-0.07,1.79,-1.79,-1.73,-1.91,-1.85,-1.86,-1.85
299.53,-0.06,1.80,-0.07,1.79,-1.79,-1.74,-1.89,-1.84,-1.85,-1.85
302.53,-0.06,1.78,-0.06,1.78,-1.78,-1.74,-1.87,-1.84,-1.85,-1.83
305.55,-0.06,1.79,-0.06,1.78,-1.78,-1.75,-1.85,-1.84,-1.84,-1.84
308.61,-0.06,1.78,-0.06,1.78,-1.78,-1.75,-1.83,-1.83,-1.83,-1.83
311.69,-0.06,1.77,-0.06,1.77,-1.77,-1.75,-1.81,-1.83,-1.83,-1.82
314.81,-0.06,1.77,-0.06,1.76,-1.76,-1.76,-1.80,-1.82,-1.82,-1.82
317.96,-0.06,1.76,-0.06,1.76,-1.76,-1.76,-1.78,-1.81,-1.81,-1.81
321.14,-0.06,1.75,-0.06,1.75,-1.75,-1.76,-1.77,-1.80,-1.80,-1.80
324.35,-0.06,1.75,-0.06,1.74,-1.74,-1.77,-1.75,-1.80,-1.80,-1.80
327.59,-0.06,1.72,-0.06,1.73,-1.73,-1.77,-1.74,-1.79,-1.79,-1.77
330.87,-0.06,1.73,-0.06,1.73,-1.73,-1.77,-1.73,-1.78,-1.78,-1.78
334.18,-0.06,1.72,-0.06,1.72,-1.72,-1.78,-1.72,-1.78,-1.77,-1.77
337.52,-0.06,1.72,-0.06,1.71,-1.71,-1.78,-1.71,-1.77,-1.77,-1.77
340.90,-0.06,1.70,-0.06,1.70,-1.70,-1.78,-1.70,-1.76,-1.76,-1.75
344.30,-0.06,1.69,-0.06,1.69,-1.69,-1.78,-1.69,-1.75,-1.75,-1.74
347.75,-0.06,1.69,-0.06,1.68,-1.68,-1.79,-1.69,-1.74,-1.74,-1.74
351.23,-0.06,1.69,-0.06,1.67,-1.67,-1.79,-1.68,-1.73,-1.73,-1.74
354.74,-0.06,1.66,-0.07,1.66,-1.66,-1.79,-1.68,-1.72,-1.73,-1.71
358.28,-0.06,1.67,-0.07,1.65,-1.65,-1.79,-1.68,-1.71,-1.72,-1.72
361.87,-0.06,1.66,-0.07,1.64,-1.64,-1.80,-1.68,-1.70,-1.71,-1.71
365.49,-0.07,1.64,-0.07,1.63,-1.63,-1.80,-1.68,-1.70,-1.70,-1.70
369.14,-0.08,1.61,-0.07,1.62,-1.62,-1.80,-1.68,-1.70,-1.69,-1.68
372.83,-0.08,1.61,-0.07,1.62,-1.62,-1.80,-1.69,-1.70,-1.69,-1.68
376.56,-0.08,1.61,-0.06,1.62,-1.62,-1.80,-1.69,-1.69,-1.68,-1.68
380.33,-0.07,1.61,-0.05,1.62,-1.62,-1.81,-1.70,-1.68,-1.67,-1.67
384.13,-0.06,1.60,-0.04,1.62,-1.62,-1.81,-1.70,-1.68,-1.66,-1.65
387.97,-0.04,1.62,-0.02,1.63,-1.63,-1.81,-1.71,-1.66,-1.65,-1.65
391.85,-0.02,1.63,-0.00,1.64,-1.64,-1.81,-1.72,-1.65,-1.64,-1.64
395.77,0.01,1.65,0.02,1.65,-1.65,-1.81,-1.73,-1.64,-1.63,-1.63
399.73,0.04,1.67,0.05,1.66,-1.66,-1.81,-1.74,-1.62,-1.62,-1.62
403.72,0.07,1.67,0.07,1.68,-1.68,-1.82,-1.75,-1.61,-1.61,-1.59
407.76,0.10,1.71,0.10,1.70,-1.70,-1.82,-1.76,-1.60,-1.60,-1.60
411.84,0.13,1.73,0.13,1.72,-1.72,-1.82,-1.78,-1.59,-1.59,-1.59
415.96,0.16,1.74,0.16,1.74,-1.74,-1.82,-1.79,-1.58,-1.58,-1.57
420.12,0.19,1.77,0.18,1.76,-1.76,-1.82,-1.80,-1.56,-1.57,-1.57
424.32,0.22,1.79,0.20,1.77,-1.77,-1.82,-1.82,-1.54,-1.56,-1.56
428.56,0.24,1.79,0.22,1.77,-1.77,-1.82,-1.83,-1.53,-1.55,-1.54
432.85,0.26,1.80,0.24,1.78,-1.78,-1.82,-1.84,-1.52,-1.54,-1.53
437.18,0.27,1.82,0.25,1.78,-1.78,-1.82,-1.86,-1.51,-1.54,-1.54
441.55,0.28,1.82,0.26,1.78,-1.78,-1.82,-1.87,-1.50,-1.53,-1.53
445.96,0.27,1.80,0.26,1.78,-1.78,-1.82,-1.88,-1.51,-1.52,-1.52
450.42,0.26,1.78,0.27,1.78,-1.78,-1.82,-1.89,-1.52,-1.51,-1.51
454.93,0.26,1.77,0.28,1.78,-1.78,-1.82,-1.91,-1.52,-1.50,-1.50
459.48,0.26,1.76,0.29,1.78,-1.78,-1.82,-1.92,-1.52,-1.49,-1.49
464.07,0.27,1.75,0.30,1.79,-1.79,-1.82,-1.92,-1.51,-1.48,-1.47
468.71,0.29,1.76,0.32,1.79,-1.79,-1.82,-1.93,-1.50,-1.47,-1.46
473.40,0.31,1.78,0.33,1.80,-1.80,-1.82,-1.94,-1.48,-1.46,-1.46
478.13,0.34,1.80,0.35,1.81,-1.81,-1.82,-1.94,-1.46,-1.45,-1.45
482.91,0.37,1.82,0.38,1.82,-1.82,-1.82,-1.95,-1.45,-1.44,-1.44
487.74,0.40,1.84,0.40,1.83,-1.83,-1.82,-1.95,-1.43,-1.43,-1.43
492.62,0.43,1.86,0.43,1.85,-1.85,-1.82,-1.95,-1.42,-1.42,-1.42
497.55,0.46,1.88,0.46,1.87,-1.87,-1.82,-1.94,-1.41,-1.41,-1.41
502.52,0.49,1.90,0.49,1.89,-1.89,-1.82,-1.94,-1.39,-1.40,-1.40
507.55,0.52,1.91,0.52,1.90,-1.90,-1.81,-1.93,-1.38,-1.38,-1.38
512.62,0.55,1.93,0.54,1.91,-1.91,-1.81,-1.92,-1.36,-1.37,-1.37
517.75,0.57,1.93,0.56,1.92,-1.92,-1.81,-1.91,-1.35,-1.36,-1.35
