frequency,raw,error,smoothed,error_smoothed,equalization,parametric_eq,fixed_band_eq,equalized_raw,equalized_smoothed,target
20.00,-7.29,-9.70,-7.34,-9.77,9.77,8.99,3.55,2.48,2.43,2.41
20.20,-7.25,-9.70,-7.27,-9.73,9.73,9.02,3.65,2.48,2.46,2.45
20.40,-7.20,-9.68,-7.20,-9.68,9.68,9.06,3.75,2.48,2.48,2.48
20.61,-7.16,-9.67,-7.13,-9.64,9.64,9.09,3.85,2.48,2.51,2.51
20.81,-7.11,-9.66,-7.06,-9.59,9.59,9.11,3.96,2.48,2.53,2.55
21.02,-7.06,-9.65,-6.99,-9.54,9.54,9.13,4.07,2.48,2.56,2.59
21.23,-6.96,-9.56,-6.92,-9.50,9.50,9.15,4.18,2.54,2.58,2.60
21.44,-6.86,-9.47,-6.85,-9.45,9.45,9.17,4.29,2.59,2.60,2.62
21.66,-6.77,-9.41,-6.78,-9.39,9.39,9.18,4.41,2.62,2.62,2.64
21.87,-6.67,-9.31,-6.71,-9.34,9.34,9.18,4.54,2.67,2.64,2.65
22.09,-6.58,-9.24,-6.64,-9.29,9.29,9.18,4.66,2.71,2.65,2.66
22.31,-6.52,-9.17,-6.57,-9.23,9.23,9.18,4.79,2.71,2.66,2.66
22.54,-6.46,-9.13,-6.50,-9.17,9.17,9.17,4.92,2.71,2.67,2.67
22.76,-6.40,-9.08,-6.43,-9.11,9.11,9.16,5.06,2.71,2.68,2.68
22.99,-6.33,-9.01,-6.36,-9.05,9.05,9.15,5.20,2.72,2.69,2.68
23.22,-6.29,-8.98,-6.29,-8.99,8.99,9.13,5.34,2.70,2.70,2.69
23.45,-6.25,-8.95,-6.22,-8.92,8.92,9.10,5.49,2.67,2.70,2.70
23.69,-6.21,-8.92,-6.16,-8.86,8.86,9.08,5.64,2.65,2.71,2.71
23.92,-6.16,-8.87,-6.09,-8.80,8.80,9.04,5.79,2.64,2.71,2.72
24.16,-6.08,-8.80,-6.02,-8.74,8.74,9.01,5.95,2.66,2.72,2.73
24.40,-5.98,-8.71,-5.95,-8.67,8.67,8.97,6.11,2.69,2.72,2.74
24.65,-5.88,-8.61,-5.88,-8.60,8.60,8.93,6.27,2.72,2.72,2.73
24.89,-5.77,-8.49,-5.81,-8.53,8.53,8.88,6.44,2.76,2.72,2.73
25.14,-5.69,-8.41,-5.73,-8.46,8.46,8.83,6.60,2.77,2.72,2.73
25.39,-5.63,-8.35,-5.66,-8.38,8.38,8.78,6.77,2.75,2.73,2.73
25.65,-5.56,-8.29,-5.58,-8.31,8.31,8.73,6.94,2.75,2.73,2.73
25.91,-5.49,-8.20,-5.51,-8.23,8.23,8.67,7.11,2.74,2.72,2.71
26.16,-5.43,-8.14,-5.44,-8.16,8.16,8.61,7.28,2.73,2.72,2.72
26.43,-5.37,-8.09,-5.37,-8.09,8.09,8.54,7.46,2.72,2.72,2.72
26.69,-5.31,-8.03,-5.30,-8.02,8.02,8.48,7.63,2.71,2.71,2.72
26.96,-5.25,-7.97,-5.24,-7.95,7.95,8.41,7.80,2.70,2.71,2.72
27.23,-5.19,-7.91,-5.18,-7.89,7.89,8.34,7.96,2.70,2.71,2.72
27.50,-5.13,-7.85,-5.12,-7.83,7.83,8.27,8.12,2.70,2.71,2.72
27.77,-5.08,-7.78,-5.06,-7.77,7.77,8.19,8.28,2.69,2.71,2.71
28.05,-5.02,-7.73,-5.00,-7.71,7.71,8.11,8.43,2.69,2.70,2.71
28.33,-4.95,-7.64,-4.94,-7.64,7.64,8.04,8.58,2.69,2.70,2.69
28.62,-4.88,-7.58,-4.87,-7.57,7.57,7.96,8.72,2.69,2.70,2.70
28.90,-4.81,-7.51,-4.81,-7.51,7.51,7.88,8.84,2.70,2.70,2.70
29.19,-4.75,-7.44,-4.75,-7.45,7.45,7.80,8.96,2.70,2.69,2.69
29.48,-4.69,-7.39,-4.70,-7.39,7.39,7.71,9.06,2.70,2.69,2.70
29.78,-4.63,-7.33,-4.64,-7.33,7.33,7.63,9.15,2.70,2.69,2.70
30.08,-4.57,-7.27,-4.59,-7.27,7.27,7.54,9.23,2.70,2.68,2.70
30.38,-4.51,-7.19,-4.54,-7.22,7.22,7.46,9.29,2.71,2.68,2.68
30.68,-4.46,-7.14,-4.49,-7.16,7.16,7.37,9.33,2.70,2.67,2.68
30.99,-4.40,-7.07,-4.44,-7.10,7.10,7.29,9.36,2.70,2.67,2.67
31.30,-4.38,-7.05,-4.38,-7.05,7.05,7.20,9.37,2.67,2.66,2.67
31.61,-4.36,-7.03,-4.33,-6.99,6.99,7.11,9.36,2.63,2.66,2.67
31.93,-4.34,-6.99,-4.27,-6.93,6.93,7.02,9.34,2.59,2.65,2.65
32.24,-4.27,-6.90,-4.22,-6.86,6.86,6.94,9.30,2.60,2.65,2.64
32.57,-4.20,-6.84,-4.16,-6.80,6.80,6.85,9.25,2.60,2.64,2.64
32.89,-4.12,-6.76,-4.10,-6.73,6.73,6.76,9.17,2.61,2.64,2.64
33.22,-4.05,-6.69,-4.04,-6.67,6.67,6.67,9.09,2.62,2.63,2.64
33.55,-3.97,-6.59,-3.98,-6.61,6.61,6.58,8.99,2.64,2.63,2.63
33.89,-3.90,-6.53,-3.93,-6.55,6.55,6.50,8.89,2.65,2.62,2.63
34.23,-3.83,-6.46,-3.88,-6.50,6.50,6.41,8.77,2.67,2.62,2.63
34.57,-3.78,-6.40,-3.83,-6.45,6.45,6.32,8.64,2.67,2.61,2.62
34.92,-3.72,-6.33,-3.79,-6.39,6.39,6.23,8.51,2.67,2.61,2.61
35.27,-3.69,-6.30,-3.74,-6.34,6.34,6.15,8.37,2.65,2.60,2.61
35.62,-3.67,-6.27,-3.69,-6.29,6.29,6.06,8.22,2.62,2.60,2.60
35.97,-3.65,-6.24,-3.64,-6.23,6.23,5.97,8.07,2.58,2.59,2.59
36.33,-3.64,-6.23,-3.60,-6.19,6.19,5.89,7.92,2.55,2.58,2.59
36.70,-3.63,-6.22,-3.56,-6.14,6.14,5.80,7.77,2.51,2.58,2.59
37.06,-3.61,-6.17,-3.52,-6.09,6.09,5.72,7.62,2.48,2.57,2.57
37.43,-3.53,-6.09,-3.48,-6.04,6.04,5.64,7.46,2.51,2.56,2.57
37.81,-3.46,-6.02,-3.43,-5.99,5.99,5.55,7.31,2.53,2.56,2.56
38.19,-3.38,-5.93,-3.39,-5.94,5.94,5.47,7.16,2.56,2.55,2.55
38.57,-3.29,-5.84,-3.34,-5.88,5.88,5.39,7.01,2.59,2.54,2.55
38.95,-3.20,-5.74,-3.29,-5.83,5.83,5.31,6.86,2.63,2.54,2.54
39.34,-3.19,-5.72,-3.23,-5.76,5.76,5.23,6.71,2.57,2.53,2.53
39.74,-3.19,-5.70,-3.17,-5.70,5.70,5.15,6.57,2.51,2.52,2.51
40.14,-3.16,-5.68,-3.11,-5.63,5.63,5.07,6.43,2.47,2.52,2.52
40.54,-3.07,-5.58,-3.06,-5.56,5.56,4.99,6.30,2.49,2.51,2.51
40.94,-2.98,-5.49,-3.01,-5.50,5.50,4.91,6.16,2.52,2.49,2.51
41.35,-2.97,-5.46,-2.97,-5.45,5.45,4.83,6.04,2.48,2.48,2.49
41.76,-2.96,-5.43,-2.93,-5.39,5.39,4.76,5.91,2.43,2.46,2.47
42.18,-2.92,-5.37,-2.89,-5.33,5.33,4.68,5.79,2.41,2.44,2.46
42.60,-2.83,-5.25,-2.85,-5.27,5.27,4.61,5.67,2.44,2.42,2.43
43.03,-2.74,-5.16,-2.82,-5.21,5.21,4.53,5.56,2.47,2.39,2.42
43.46,-2.74,-5.13,-2.78,-5.15,5.15,4.46,5.45,2.41,2.37,2.39
43.90,-2.74,-5.08,-2.74,-5.08,5.08,4.39,5.35,2.34,2.34,2.34
44.33,-2.74,-5.05,-2.71,-5.02,5.02,4.31,5.25,2.28,2.31,2.31
44.78,-2.74,-5.02,-2.67,-4.96,4.96,4.24,5.15,2.22,2.29,2.28
45.23,-2.69,-4.94,-2.63,-4.89,4.89,4.17,5.05,2.20,2.26,2.25
45.68,-2.58,-4.80,-2.60,-4.83,4.83,4.10,4.97,2.25,2.23,2.22
46.13,-2.51,-4.71,-2.55,-4.77,4.77,4.04,4.88,2.26,2.21,2.20
46.60,-2.51,-4.70,-2.52,-4.71,4.71,3.97,4.80,2.20,2.19,2.19
47.06,-2.51,-4.68,-2.49,-4.67,4.67,3.90,4.72,2.16,2.18,2.17
47.53,-2.48,-4.65,-2.46,-4.63,4.63,3.83,4.64,2.15,2.17,2.17
48.01,-2.46,-4.63,-2.43,-4.59,4.59,3.77,4.57,2.13,2.16,2.17
48.49,-2.37,-4.52,-2.40,-4.55,4.55,3.70,4.50,2.18,2.15,2.15
48.97,-2.28,-4.42,-2.36,-4.51,4.51,3.64,4.44,2.23,2.15,2.14
49.46,-2.28,-4.41,-2.33,-4.47,4.47,3.58,4.38,2.19,2.15,2.13
49.96,-2.28,-4.41,-2.30,-4.44,4.44,3.51,4.32,2.16,2.14,2.13
50.46,-2.28,-4.42,-2.28,-4.42,4.42,3.45,4.26,2.14,2.14,2.14
50.96,-2.28,-4.43,-2.25,-4.38,4.38,3.39,4.21,2.10,2.13,2.15
51.47,-2.28,-4.42,-2.22,-4.34,4.34,3.33,4.15,2.06,2.12,2.14
51.99,-2.28,-4.40,-2.18,-4.28,4.28,3.27,4.10,2.00,2.10,2.12
52.51,-2.16,-4.27,-2.15,-4.23,4.23,3.21,4.06,2.07,2.08,2.11
53.03,-2.05,-4.13,-2.12,-4.18,4.18,3.15,4.01,2.13,2.06,2.08
53.56,-2.05,-4.10,-2.09,-4.12,4.12,3.10,3.96,2.07,2.03,2.05
54.10,-2.05,-4.06,-2.05,-4.05,4.05,3.04,3.92,2.00,1.99,2.01
54.64,-2.05,-4.01,-2.01,-3.96,3.96,2.98,3.88,1.91,1.95,1.96
55.18,-2.01,-3.91,-1.96,-3.87,3.87,2.93,3.83,1.86,1.91,1.91
55.74,-1.88,-3.74,-1.91,-3.77,3.77,2.87,3.79,1.89,1.86,1.86
56.29,-1.82,-3.63,-1.86,-3.67,3.67,2.82,3.75,1.85,1.80,1.81
56.86,-1.82,-3.57,-1.82,-3.56,3.56,2.76,3.71,1.74,1.75,1.75
57.42,-1.82,-3.50,-1.77,-3.46,3.46,2.71,3.67,1.64,1.69,1.68
58.00,-1.82,-3.44,-1.74,-3.36,3.36,2.66,3.62,1.54,1.62,1.62
58.58,-1.69,-3.25,-1.70,-3.27,3.27,2.61,3.58,1.58,1.56,1.56
59.16,-1.60,-3.11,-1.67,-3.17,3.17,2.56,3.54,1.57,1.50,1.51
59.76,-1.60,-3.05,-1.63,-3.07,3.07,2.51,3.49,1.47,1.44,1.45
60.35,-1.60,-2.98,-1.60,-2.97,2.97,2.46,3.44,1.37,1.38,1.38
60.96,-1.60,-2.93,-1.57,-2.88,2.88,2.41,3.40,1.28,1.32,1.33
61.57,-1.60,-2.86,-1.56,-2.81,2.81,2.36,3.35,1.21,1.26,1.26
62.18,-1.60,-2.79,-1.56,-2.76,2.76,2.31,3.29,1.16,1.20,1.19
62.80,-1.60,-2.75,-1.58,-2.73,2.73,2.26,3.24,1.13,1.15,1.15
63.43,-1.60,-2.69,-1.62,-2.71,2.71,2.22,3.19,1.11,1.10,1.09
64.07,-1.60,-2.65,-1.68,-2.72,2.72,2.17,3.13,1.12,1.05,1.05
64.71,-1.63,-2.63,-1.76,-2.76,2.76,2.12,3.07,1.13,1.00,1.00
65.35,-1.70,-2.65,-1.86,-2.82,2.82,2.08,3.01,1.12,0.96,0.95
66.01,-1.82,-2.74,-1.98,-2.89,2.89,2.03,2.95,1.08,0.92,0.92
66.67,-1.93,-2.81,-2.09,-2.97,2.97,1.99,2.88,1.04,0.88,0.88
67.33,-2.12,-2.97,-2.20,-3.05,3.05,1.94,2.82,0.93,0.85,0.85
68.01,-2.38,-3.19,-2.31,-3.13,3.13,1.90,2.75,0.75,0.81,0.82
68.69,-2.48,-3.27,-2.41,-3.19,3.19,1.86,2.68,0.71,0.78,0.79
69.37,-2.61,-3.36,-2.48,-3.24,3.24,1.82,2.61,0.62,0.75,0.75
70.07,-2.74,-3.46,-2.53,-3.25,3.25,1.77,2.54,0.51,0.72,0.72
70.77,-2.74,-3.45,-2.56,-3.25,3.25,1.73,2.47,0.51,0.69,0.71
71.48,-2.74,-3.41,-2.56,-3.22,3.22,1.69,2.40,0.48,0.66,0.67
72.19,-2.69,-3.34,-2.52,-3.15,3.15,1.65,2.32,0.46,0.63,0.65
72.91,-2.53,-3.13,-2.45,-3.05,3.05,1.61,2.25,0.53,0.60,0.61
73.64,-2.36,-2.94,-2.35,-2.92,2.92,1.57,2.18,0.56,0.57,0.58
74.38,-2.22,-2.77,-2.23,-2.77,2.77,1.53,2.10,0.55,0.54,0.55
75.12,-2.07,-2.58,-2.10,-2.61,2.61,1.49,2.03,0.54,0.51,0.52
75.87,-1.80,-2.28,-1.95,-2.43,2.43,1.45,1.95,0.63,0.48,0.49
76.63,-1.66,-2.12,-1.80,-2.26,2.26,1.41,1.88,0.60,0.46,0.46
77.40,-1.57,-2.00,-1.65,-2.08,2.08,1.38,1.81,0.51,0.43,0.43
78.17,-1.50,-1.90,-1.51,-1.92,1.92,1.34,1.73,0.42,0.41,0.40
78.95,-1.38,-1.76,-1.39,-1.78,1.78,1.30,1.66,0.40,0.39,0.39
79.74,-1.20,-1.57,-1.29,-1.66,1.66,1.26,1.59,0.46,0.37,0.37
80.54,-1.14,-1.49,-1.21,-1.56,1.56,1.22,1.51,0.42,0.35,0.35
81.35,-1.14,-1.47,-1.13,-1.47,1.47,1.19,1.44,0.33,0.34,0.33
82.16,-1.12,-1.45,-1.07,-1.40,1.40,1.15,1.37,0.28,0.33,0.33
82.98,-1.04,-1.37,-1.01,-1.34,1.34,1.11,1.30,0.30,0.32,0.33
83.81,-0.93,-1.25,-0.97,-1.29,1.29,1.08,1.23,0.36,0.32,0.32
84.65,-0.91,-1.22,-0.94,-1.26,1.26,1.04,1.16,0.35,0.32,0.31
85.50,-0.91,-1.23,-0.90,-1.22,1.22,1.01,1.09,0.31,0.32,0.32
86.35,-0.91,-1.23,-0.86,-1.18,1.18,0.97,1.02,0.27,0.32,0.32
87.22,-0.90,-1.22,-0.82,-1.14,1.14,0.94,0.95,0.24,0.32,0.32
88.09,-0.84,-1.16,-0.79,-1.11,1.11,0.90,0.88,0.27,0.32,0.32
88.97,-0.69,-1.03,-0.75,-1.07,1.07,0.86,0.82,0.38,0.32,0.34
89.86,-0.68,-1.02,-0.71,-1.03,1.03,0.83,0.75,0.35,0.32,0.34
90.76,-0.68,-1.00,-0.67,-0.99,0.99,0.79,0.68,0.31,0.32,0.32
91.66,-0.68,-1.01,-0.64,-0.95,0.95,0.76,0.62,0.27,0.31,0.33
92.58,-0.68,-0.98,-0.60,-0.91,0.91,0.72,0.55,0.23,0.30,0.30
93.51,-0.58,-0.89,-0.58,-0.87,0.87,0.69,0.49,0.29,0.29,0.31
94.44,-0.48,-0.77,-0.55,-0.84,0.84,0.65,0.43,0.36,0.28,0.29
95.39,-0.46,-0.74,-0.53,-0.80,0.80,0.62,0.36,0.34,0.27,0.28
96.34,-0.46,-0.70,-0.51,-0.76,0.76,0.58,0.30,0.30,0.25,0.24
97.30,-0.46,-0.68,-0.49,-0.72,0.72,0.55,0.24,0.26,0.23,0.22
98.28,-0.46,-0.66,-0.47,-0.67,0.67,0.51,0.17,0.21,0.20,0.20
99.26,-0.46,-0.63,-0.46,-0.62,0.62,0.48,0.11,0.16,0.17,0.17
100.25,-0.46,-0.60,-0.43,-0.57,0.57,0.44,0.05,0.11,0.14,0.14
101.25,-0.46,-0.57,-0.41,-0.51,0.51,0.41,-0.01,0.05,0.10,0.11
102.27,-0.46,-0.53,-0.38,-0.44,0.44,0.37,-0.07,-0.02,0.06,0.07
103.29,-0.46,-0.48,-0.36,-0.38,0.38,0.34,-0.13,-0.08,0.02,0.02
104.32,-0.41,-0.39,-0.35,-0.32,0.32,0.30,-0.18,-0.09,-0.03,-0.02
105.37,-0.29,-0.22,-0.33,-0.25,0.25,0.26,-0.24,-0.04,-0.09,-0.07
106.42,-0.23,-0.11,-0.31,-0.17,0.17,0.23,-0.30,-0.06,-0.14,-0.12
107.48,-0.23,-0.04,-0.29,-0.08,0.08,0.19,-0.35,-0.15,-0.21,-0.19
108.56,-0.23,0.04,-0.27,0.00,-0.00,0.15,-0.40,-0.23,-0.27,-0.27
109.64,-0.23,0.11,-0.25,0.09,-0.09,0.12,-0.46,-0.32,-0.34,-0.34
110.74,-0.23,0.17,-0.24,0.18,-0.18,0.08,-0.51,-0.41,-0.41,-0.40
111.85,-0.23,0.24,-0.23,0.26,-0.26,0.04,-0.56,-0.49,-0.49,-0.47
112.97,-0.23,0.33,-0.22,0.34,-0.34,0.00,-0.61,-0.57,-0.56,-0.56
114.10,-0.23,0.39,-0.21,0.42,-0.42,-0.04,-0.65,-0.65,-0.63,-0.62
115.24,-0.23,0.47,-0.21,0.49,-0.49,-0.08,-0.70,-0.72,-0.70,-0.70
116.39,-0.23,0.55,-0.22,0.55,-0.55,-0.12,-0.74,-0.78,-0.77,-0.78
117.55,-0.23,0.61,-0.23,0.60,-0.60,-0.16,-0.78,-0.83,-0.83,-0.84
118.73,-0.23,0.68,-0.23,0.66,-0.66,-0.20,-0.82,-0.89,-0.89,-0.91
119.92,-0.23,0.72,-0.23,0.71,-0.71,-0.24,-0.86,-0.94,-0.94,-0.95
121.12,-0.23,0.78,-0.23,0.76,-0.76,-0.28,-0.89,-0.99,-0.99,-1.01
122.33,-0.23,0.82,-0.23,0.81,-0.81,-0.32,-0.93,-1.04,-1.04,-1.05
123.55,-0.23,0.84,-0.23,0.85,-0.85,-0.37,-0.96,-1.08,-1.08,-1.07
124.79,-0.23,0.88,-0.23,0.89,-0.89,-0.41,-0.98,-1.12,-1.12,-1.11
126.03,-0.23,0.92,-0.23,0.93,-0.93,-0.46,-1.01,-1.16,-1.16,-1.15
127.29,-0.23,0.95,-0.23,0.96,-0.96,-0.50,-1.03,-1.19,-1.19,-1.18
128.57,-0.23,0.99,-0.23,0.99,-0.99,-0.55,-1.06,-1.22,-1.22,-1.22
129.85,-0.23,1.02,-0.23,1.03,-1.03,-0.59,-1.08,-1.26,-1.26,-1.25
131.15,-0.23,1.05,-0.23,1.06,-1.06,-0.64,-1.09,-1.29,-1.29,-1.28
132.46,-0.23,1.08,-0.23,1.09,-1.09,-0.69,-1.11,-1.32,-1.32,-1.31
133.79,-0.23,1.11,-0.23,1.12,-1.12,-0.74,-1.12,-1.35,-1.35,-1.34
135.12,-0.23,1.16,-0.23,1.16,-1.16,-0.79,-1.14,-1.39,-1.39,-1.39
136.48,-0.23,1.19,-0.23,1.19,-1.19,-0.84,-1.15,-1.42,-1.42,-1.42
137.84,-0.23,1.22,-0.22,1.23,-1.23,-0.89,-1.16,-1.46,-1.46,-1.45
139.22,-0.23,1.27,-0.21,1.28,-1.28,-0.94,-1.17,-1.51,-1.49,-1.50
140.61,-0.23,1.32,-0.21,1.32,-1.32,-0.99,-1.18,-1.55,-1.53,-1.55
142.02,-0.23,1.34,-0.21,1.36,-1.36,-1.04,-1.18,-1.59,-1.57,-1.57
143.44,-0.23,1.38,-0.22,1.40,-1.40,-1.10,-1.19,-1.63,-1.62,-1.61
144.87,-0.23,1.42,-0.23,1.44,-1.44,-1.15,-1.19,-1.67,-1.67,-1.65
146.32,-0.23,1.47,-0.24,1.48,-1.48,-1.21,-1.20,-1.71,-1.72,-1.70
147.78,-0.23,1.51,-0.25,1.53,-1.53,-1.26,-1.21,-1.76,-1.78,-1.74
149.26,-0.23,1.58,-0.27,1.58,-1.58,-1.32,-1.21,-1.81,-1.85,-1.81
150.75,-0.23,1.66,-0.30,1.61,-1.61,-1.37,-1.22,-1.84,-1.91,-1.89
152.26,-0.24,1.72,-0.33,1.65,-1.65,-1.43,-1.22,-1.89,-1.98,-1.96
153.78,-0.38,1.65,-0.37,1.69,-1.69,-1.49,-1.23,-2.07,-2.05,-2.03
155.32,-0.45,1.68,-0.40,1.72,-1.72,-1.54,-1.23,-2.17,-2.12,-2.13
156.88,-0.46,1.74,-0.43,1.77,-1.77,-1.60,-1.24,-2.23,-2.20,-2.20
158.44,-0.46,1.81,-0.46,1.81,-1.81,-1.66,-1.25,-2.27,-2.27,-2.27
160.03,-0.46,1.89,-0.48,1.85,-1.85,-1.71,-1.25,-2.31,-2.33,-2.35
161.63,-0.46,1.95,-0.50,1.89,-1.89,-1.77,-1.26,-2.35,-2.39,-2.41
163.24,-0.60,1.86,-0.52,1.92,-1.92,-1.82,-1.27,-2.52,-2.44,-2.46
164.88,-0.68,1.82,-0.53,1.96,-1.96,-1.88,-1.28,-2.64,-2.49,-2.50
166.53,-0.64,1.90,-0.54,1.99,-1.99,-1.93,-1.30,-2.63,-2.52,-2.54
168.19,-0.53,2.04,-0.53,2.01,-2.01,-1.98,-1.31,-2.54,-2.55,-2.57
169.87,-0.46,2.12,-0.53,2.04,-2.04,-2.03,-1.32,-2.50,-2.57,-2.58
171.57,-0.46,2.13,-0.51,2.06,-2.06,-2.08,-1.34,-2.52,-2.58,-2.59
173.29,-0.46,2.13,-0.50,2.08,-2.08,-2.12,-1.35,-2.54,-2.58,-2.59
175.02,-0.46,2.11,-0.49,2.09,-2.09,-2.17,-1.37,-2.55,-2.59,-2.57
176.77,-0.46,2.12,-0.49,2.10,-2.10,-2.21,-1.39,-2.56,-2.59,-2.58
178.54,-0.46,2.11,-0.47,2.11,-2.11,-2.25,-1.41,-2.57,-2.59,-2.57
180.32,-0.46,2.10,-0.46,2.13,-2.13,-2.28,-1.43,-2.59,-2.59,-2.56
182.13,-0.46,2.10,-0.45,2.14,-2.14,-2.32,-1.45,-2.60,-2.59,-2.56
183.95,-0.46,2.10,-0.44,2.15,-2.15,-2.34,-1.47,-2.61,-2.59,-2.56
185.79,-0.46,2.11,-0.45,2.15,-2.15,-2.37,-1.49,-2.61,-2.60,-2.57
187.65,-0.46,2.13,-0.46,2.15,-2.15,-2.39,-1.52,-2.61,-2.60,-2.59
189.52,-0.46,2.15,-0.46,2.15,-2.15,-2.41,-1.55,-2.61,-2.61,-2.61
191.42,-0.46,2.17,-0.45,2.17,-2.17,-2.43,-1.57,-2.63,-2.63,-2.63
193.33,-0.46,2.19,-0.44,2.20,-2.20,-2.44,-1.60,-2.66,-2.64,-2.65
195.27,-0.46,2.19,-0.44,2.22,-2.22,-2.44,-1.63,-2.68,-2.66,-2.65
197.22,-0.46,2.21,-0.45,2.23,-2.23,-2.45,-1.66,-2.69,-2.68,-2.67
199.19,-0.46,2.25,-0.45,2.25,-2.25,-2.45,-1.69,-2.71,-2.70,-2.71
201.18,-0.46,2.25,-0.46,2.25,-2.25,-2.44,-1.72,-2.71,-2.72,-2.71
203.19,-0.46,2.27,-0.48,2.26,-2.26,-2.43,-1.75,-2.72,-2.74,-2.73
205.23,-0.46,2.30,-0.48,2.27,-2.27,-2.42,-1.78,-2.73,-2.75,-2.76
207.28,-0.46,2.30,-0.49,2.28,-2.28,-2.41,-1.82,-2.74,-2.77,-2.76
209.35,-0.46,2.32,-0.50,2.29,-2.29,-2.39,-1.85,-2.75,-2.79,-2.78
211.44,-0.46,2.35,-0.52,2.28,-2.28,-2.37,-1.88,-2.74,-2.80,-2.81
213.56,-0.61,2.20,-0.55,2.26,-2.26,-2.34,-1.91,-2.87,-2.82,-2.81
215.69,-0.68,2.13,-0.59,2.24,-2.24,-2.31,-1.94,-2.92,-2.83,-2.81
217.85,-0.68,2.16,-0.64,2.20,-2.20,-2.29,-1.97,-2.88,-2.84,-2.84
220.03,-0.68,2.17,-0.70,2.15,-2.15,-2.25,-2.00,-2.83,-2.85,-2.85
222.23,-0.68,2.19,-0.76,2.10,-2.10,-2.22,-2.03,-2.78,-2.86,-2.87
224.45,-0.68,2.19,-0.80,2.07,-2.07,-2.19,-2.05,-2.75,-2.87,-2.87
226.70,-0.68,2.19,-0.84,2.03,-2.03,-2.15,-2.08,-2.71,-2.88,-2.87
228.96,-0.84,2.04,-0.89,2.00,-2.00,-2.11,-2.10,-2.84,-2.89,-2.88
231.25,-1.07,1.81,-0.93,1.97,-1.97,-2.07,-2.12,-3.04,-2.89,-2.88
233.57,-1.14,1.75,-0.96,1.93,-1.93,-2.04,-2.14,-3.07,-2.89,-2.89
235.90,-1.14,1.76,-0.99,1.90,-1.90,-2.00,-2.16,-3.04,-2.90,-2.90
238.26,-1.14,1.76,-1.01,1.88,-1.88,-1.96,-2.17,-3.02,-2.90,-2.90
240.64,-1.14,1.76,-1.04,1.85,-1.85,-1.92,-2.18,-2.99,-2.90,-2.90
243.05,-0.98,1.91,-1.07,1.82,-1.82,-1.88,-2.19,-2.80,-2.89,-2.89
245.48,-0.91,1.97,-1.09,1.80,-1.80,-1.84,-2.20,-2.71,-2.89,-2.88
247.93,-0.91,1.96,-1.11,1.78,-1.78,-1.80,-2.20,-2.69,-2.88,-2.87
250.41,-1.10,1.78,-1.11,1.76,-1.76,-1.76,-2.20,-2.86,-2.88,-2.88
252.92,-1.14,1.73,-1.11,1.76,-1.76,-1.72,-2.20,-2.90,-2.87,-2.87
255.45,-1.14,1.70,-1.11,1.76,-1.76,-1.68,-2.19,-2.90,-2.86,-2.84
258.00,-1.14,1.70,-1.10,1.75,-1.75,-1.64,-2.18,-2.89,-2.85,-2.84
260.58,-1.14,1.70,-1.10,1.74,-1.74,-1.60,-2.17,-2.88,-2.84,-2.84
263.19,-1.14,1.68,-1.11,1.71,-1.71,-1.57,-2.15,-2.85,-2.83,-2.82
265.82,-1.14,1.68,-1.13,1.69,-1.69,-1.53,-2.13,-2.83,-2.81,-2.82
268.48,-1.14,1.65,-1.14,1.66,-1.66,-1.50,-2.11,-2.80,-2.80,-2.79
271.16,-1.14,1.64,-1.15,1.62,-1.62,-1.46,-2.09,-2.76,-2.78,-2.78
273.87,-1.14,1.63,-1.16,1.60,-1.60,-1.43,-2.06,-2.74,-2.76,-2.77
276.61,-1.14,1.59,-1.15,1.59,-1.59,-1.40,-2.03,-2.73,-2.74,-2.73
279.38,-1.14,1.58,-1.14,1.57,-1.57,-1.36,-2.00,-2.71,-2.71,-2.72
282.17,-1.14,1.55,-1.14,1.55,-1.55,-1.33,-1.97,-2.69,-2.69,-2.69
284.99,-1.14,1.52,-1.14,1.53,-1.53,-1.30,-1.94,-2.67,-2.67,-2.66
287.84,-1.14,1.50,-1.14,1.50,-1.50,-1.28,-1.90,-2.64,-2.64,-2.64
290.72,-1.14,1.46,-1.15,1.46,-1.46,-1.25,-1.87,-2.60,-2.61,-2.60
293.63,-1.14,1.44,-1.16,1.43,-1.43,-1.22,-1.83,-2.57,-2.58,-2.58
296.57,-1.14,1.41,-1.15,1.41,-1.41,-1.20,-1.80,-2.55,-2.56,-2.55
299.53,-1.14,1.38,-1.14,1.39,-1.39,-1.17,-1.76,-2.53,-2.53,-2.52
302.53,-1.14,1.37,-1.13,1.38,-1.38,-1.15,-1.72,-2.52,-2.51,-2.51
305.55,-1.14,1.33,-1.12,1.37,-1.37,-1.12,-1.69,-2.51,-2.49,-2.47
308.61,-1.14,1.31,-1.11,1.36,-1.36,-1.10,-1.65,-2.50,-2.47,-2.45
311.69,-1.14,1.30,-1.11,1.34,-1.34,-1.08,-1.61,-2.48,-2.45,-2.44
314.81,-1.14,1.27,-1.10,1.34,-1.34,-1.06,-1.58,-2.48,-2.44,-2.41
317.96,-1.14,1.27,-1.10,1.33,-1.33,-1.04,-1.54,-2.47,-2.43,-2.41
321.14,-1.13,1.29,-1.10,1.32,-1.32,-1.02,-1.50,-2.45,-2.42,-2.42
324.35,-0.96,1.45,-1.10,1.31,-1.31,-1.01,-1.47,-2.27,-2.41,-2.41
327.59,-0.94,1.46,-1.10,1.30,-1.30,-0.99,-1.44,-2.24,-2.40,-2.40
330.87,-1.09,1.30,-1.10,1.29,-1.29,-0.97,-1.40,-2.38,-2.39,-2.39
334.18,-1.14,1.25,-1.10,1.28,-1.28,-0.96,-1.37,-2.42,-2.38,-2.39
337.52,-1.14,1.24,-1.10,1.26,-1.26,-0.94,-1.34,-2.40,-2.37,-2.38
340.90,-1.14,1.21,-1.11,1.25,-1.25,-0.93,-1.31,-2.39,-2.35,-2.35
344.30,-1.14,1.20,-1.11,1.23,-1.23,-0.91,-1.28,-2.37,-2.34,-2.34
347.75,-1.14,1.19,-1.13,1.20,-1.20,-0.90,-1.25,-2.34,-2.32,-2.33
351.23,-1.14,1.16,-1.14,1.16,-1.16,-0.89,-1.22,-2.30,-2.30,-2.30
354.74,-1.14,1.14,-1.15,1.13,-1.13,-0.88,-1.19,-2.27,-2.28,-2.28
358.28,-1.14,1.11,-1.16,1.10,-1.10,-0.87,-1.17,-2.24,-2.26,-2.25
361.87,-1.14,1.09,-1.16,1.07,-1.07,-0.86,-1.14,-2.21,-2.23,-2.23
365.49,-1.14,1.07,-1.15,1.06,-1.06,-0.85,-1.12,-2.20,-2.21,-2.21
369.14,-1.14,1.05,-1.13,1.06,-1.06,-0.84,-1.09,-2.20,-2.19,-2.19
372.83,-1.14,1.02,-1.11,1.06,-1.06,-0.83,-1.07,-2.20,-2.17,-2.16
376.56,-1.14,1.00,-1.09,1.06,-1.06,-0.82,-1.05,-2.20,-2.15,-2.14
380.33,-1.14,0.97,-1.07,1.06,-1.06,-0.81,-1.03,-2.20,-2.13,-2.11
384.13,-1.14,0.95,-1.04,1.07,-1.07,-0.81,-1.01,-2.21,-2.11,-2.09
387.97,-0.99,1.09,-1.02,1.07,-1.07,-0.80,-0.99,-2.06,-2.09,-2.08
391.85,-0.92,1.16,-1.00,1.08,-1.08,-0.80,-0.97,-2.00,-2.08,-2.08
395.77,-0.91,1.16,-0.98,1.09,-1.09,-0.79,-0.95,-2.00,-2.07,-2.07
399.73,-0.91,1.15,-0.96,1.10,-1.10,-0.79,-0.94,-2.01,-2.06,-2.06
403.72,-0.91,1.14,-0.94,1.11,-1.11,-0.78,-0.92,-2.02,-2.05,-2.05
407.76,-0.91,1.13,-0.92,1.12,-1.12,-0.78,-0.91,-2.03,-2.04,-2.04
411.84,-0.91,1.12,-0.91,1.13,-1.13,-0.77,-0.89,-2.04,-2.04,-2.03
415.96,-0.91,1.11,-0.89,1.14,-1.14,-0.77,-0.88,-2.05,-2.04,-2.02
420.12,-0.91,1.11,-0.88,1.15,-1.15,-0.77,-0.86,-2.06,-2.03,-2.02
424.32,-0.91,1.11,-0.87,1.16,-1.16,-0.77,-0.85,-2.07,-2.03,-2.02
428.56,-0.91,1.11,-0.88,1.15,-1.15,-0.76,-0.84,-2.06,-2.03,-2.02
432.85,-0.91,1.12,-0.89,1.13,-1.13,-0.76,-0.83,-2.04,-2.02,-2.03
437.18,-0.91,1.11,-0.91,1.11,-1.11,-0.76,-0.82,-2.02,-2.02,-2.02
441.55,-0.91,1.10,-0.92,1.09,-1.09,-0.76,-0.80,-2.00,-2.01,-2.01
445.96,-0.91,1.10,-0.94,1.07,-1.07,-0.76,-0.79,-1.98,-2.01,-2.01
450.42,-0.91,1.09,-0.96,1.04,-1.04,-0.76,-0.78,-1.95,-2.00,-2.00
454.93,-0.91,1.08,-0.98,1.01,-1.01,-0.76,-0.77,-1.92,-1.99,-1.99
459.48,-0.91,1.07,-0.99,0.99,-0.99,-0.76,-0.76,-1.90,-1.98,-1.98
464.07,-1.01,0.95,-1.00,0.96,-0.96,-0.76,-0.75,-1.97,-1.96,-1.96
468.71,-1.11,0.83,-1.02,0.92,-0.92,-0.76,-0.74,-2.03,-1.94,-1.94
