frequency,raw,error,smoothed,error_smoothed,equalization,parametric_eq,fixed_band_eq,equalized_raw,equalized_smoothed,target
20.00,-7.29,-9.70,-7.28,-9.69,9.73,9.41,3.55,2.44,2.45,2.41
20.20,-7.25,-9.70,-7.25,-9.69,9.71,9.44,3.65,2.46,2.46,2.45
20.40,-7.20,-9.68,-7.21,-9.69,9.68,9.47,3.75,2.48,2.47,2.48
20.61,-7.16,-9.67,-7.16,-9.67,9.65,9.48,3.86,2.49,2.49,2.51
20.81,-7.11,-9.66,-7.11,-9.66,9.62,9.49,3.96,2.51,2.51,2.55
21.02,-7.06,-9.65,-7.05,-9.62,9.58,9.50,4.07,2.52,2.53,2.59
21.23,-6.96,-9.56,-6.96,-9.56,9.53,9.49,4.19,2.57,2.57,2.60
21.44,-6.86,-9.47,-6.87,-9.49,9.48,9.48,4.30,2.62,2.61,2.62
21.66,-6.77,-9.41,-6.76,-9.40,9.41,9.46,4.42,2.64,2.64,2.64
21.87,-6.67,-9.31,-6.67,-9.32,9.33,9.44,4.54,2.66,2.66,2.65
22.09,-6.58,-9.24,-6.59,-9.24,9.26,9.41,4.67,2.68,2.67,2.66
22.31,-6.52,-9.17,-6.52,-9.18,9.19,9.37,4.80,2.67,2.67,2.66
22.54,-6.46,-9.13,-6.45,-9.12,9.13,9.33,4.93,2.67,2.67,2.67
22.76,-6.40,-9.08,-6.40,-9.07,9.08,9.28,5.07,2.68,2.68,2.68
22.99,-6.33,-9.01,-6.34,-9.02,9.03,9.23,5.21,2.70,2.69,2.68
23.22,-6.29,-8.98,-6.29,-8.98,8.99,9.17,5.35,2.70,2.70,2.69
23.45,-6.25,-8.95,-6.25,-8.95,8.95,9.11,5.50,2.70,2.70,2.70
23.69,-6.21,-8.92,-6.21,-8.92,8.89,9.04,5.65,2.68,2.68,2.71
23.92,-6.16,-8.87,-6.15,-8.87,8.83,8.97,5.80,2.68,2.68,2.72
24.16,-6.08,-8.80,-6.08,-8.80,8.77,8.89,5.96,2.69,2.69,2.73
24.40,-5.98,-8.71,-5.98,-8.71,8.69,8.82,6.12,2.72,2.71,2.74
24.65,-5.88,-8.61,-5.88,-8.60,8.61,8.74,6.28,2.73,2.74,2.73
24.89,-5.77,-8.49,-5.78,-8.51,8.53,8.65,6.44,2.76,2.75,2.73
25.14,-5.69,-8.41,-5.69,-8.42,8.44,8.57,6.61,2.75,2.75,2.73
25.39,-5.63,-8.35,-5.62,-8.35,8.36,8.48,6.78,2.73,2.74,2.73
25.65,-5.56,-8.29,-5.56,-8.28,8.28,8.39,6.95,2.72,2.72,2.73
25.91,-5.49,-8.20,-5.49,-8.21,8.21,8.31,7.12,2.72,2.71,2.71
26.16,-5.43,-8.14,-5.43,-8.14,8.14,8.22,7.29,2.72,2.71,2.72
26.43,-5.37,-8.09,-5.37,-8.08,8.08,8.13,7.46,2.71,2.71,2.72
26.69,-5.31,-8.03,-5.31,-8.03,8.03,8.04,7.63,2.72,2.71,2.72
26.96,-5.25,-7.97,-5.25,-7.97,7.97,7.95,7.80,2.71,2.72,2.72
27.23,-5.19,-7.91,-5.19,-7.91,7.90,7.86,7.97,2.71,2.71,2.72
27.50,-5.13,-7.85,-5.13,-7.85,7.84,7.77,8.13,2.71,2.71,2.72
27.77,-5.08,-7.78,-5.08,-7.78,7.78,7.68,8.29,2.70,2.70,2.71
28.05,-5.02,-7.73,-5.02,-7.72,7.71,7.59,8.44,2.69,2.70,2.71
28.33,-4.95,-7.64,-4.95,-7.65,7.65,7.50,8.59,2.70,2.70,2.69
28.62,-4.88,-7.58,-4.88,-7.57,7.58,7.42,8.72,2.70,2.70,2.70
28.90,-4.81,-7.51,-4.81,-7.50,7.51,7.33,8.85,2.70,2.70,2.70
29.19,-4.75,-7.44,-4.75,-7.44,7.44,7.25,8.97,2.69,2.69,2.69
29.48,-4.69,-7.39,-4.69,-7.38,7.38,7.16,9.07,2.69,2.69,2.70
29.78,-4.63,-7.33,-4.63,-7.32,7.31,7.08,9.16,2.68,2.68,2.70
30.08,-4.57,-7.27,-4.57,-7.26,7.26,7.01,9.24,2.68,2.68,2.70
30.38,-4.51,-7.19,-4.51,-7.19,7.20,6.93,9.30,2.69,2.69,2.68
30.68,-4.46,-7.14,-4.46,-7.13,7.15,6.85,9.34,2.69,2.70,2.68
30.99,-4.40,-7.07,-4.41,-7.08,7.10,6.78,9.37,2.70,2.69,2.67
31.30,-4.38,-7.05,-4.38,-7.05,7.05,6.71,9.38,2.67,2.67,2.67
31.61,-4.36,-7.03,-4.36,-7.02,7.00,6.64,9.37,2.64,2.64,2.67
31.93,-4.34,-6.99,-4.33,-6.98,6.95,6.57,9.35,2.61,2.62,2.65
32.24,-4.27,-6.90,-4.27,-6.91,6.89,6.50,9.31,2.62,2.62,2.64
32.57,-4.20,-6.84,-4.20,-6.84,6.83,6.44,9.25,2.63,2.62,2.64
32.89,-4.12,-6.76,-4.12,-6.76,6.76,6.38,9.18,2.64,2.63,2.64
33.22,-4.05,-6.69,-4.05,-6.68,6.68,6.32,9.10,2.63,2.64,2.64
33.55,-3.97,-6.59,-3.97,-6.60,6.60,6.26,9.00,2.64,2.63,2.63
33.89,-3.90,-6.53,-3.90,-6.53,6.53,6.21,8.89,2.63,2.63,2.63
34.23,-3.83,-6.46,-3.83,-6.45,6.46,6.15,8.77,2.63,2.63,2.63
34.57,-3.78,-6.40,-3.77,-6.39,6.40,6.10,8.65,2.62,2.63,2.62
34.92,-3.72,-6.33,-3.73,-6.34,6.35,6.05,8.51,2.63,2.63,2.61
35.27,-3.69,-6.30,-3.69,-6.29,6.32,6.01,8.37,2.62,2.62,2.61
35.62,-3.67,-6.27,-3.67,-6.26,6.28,5.96,8.23,2.61,2.62,2.60
35.97,-3.65,-6.24,-3.65,-6.24,6.25,5.92,8.08,2.60,2.60,2.59
36.33,-3.64,-6.23,-3.65,-6.23,6.22,5.87,7.93,2.58,2.57,2.59
36.70,-3.63,-6.22,-3.63,-6.21,6.17,5.83,7.77,2.54,2.55,2.59
37.06,-3.61,-6.17,-3.59,-6.17,6.12,5.79,7.62,2.51,2.53,2.57
37.43,-3.53,-6.09,-3.54,-6.10,6.07,5.76,7.47,2.54,2.53,2.57
37.81,-3.46,-6.02,-3.46,-6.02,6.00,5.72,7.31,2.54,2.54,2.56
38.19,-3.38,-5.93,-3.37,-5.92,5.94,5.68,7.16,2.56,2.57,2.55
38.57,-3.29,-5.84,-3.29,-5.83,5.87,5.65,7.01,2.58,2.58,2.55
38.95,-3.20,-5.74,-3.23,-5.76,5.80,5.61,6.86,2.60,2.57,2.54
39.34,-3.19,-5.72,-3.20,-5.72,5.73,5.58,6.72,2.54,2.54,2.53
39.74,-3.19,-5.70,-3.18,-5.69,5.68,5.55,6.58,2.49,2.50,2.51
40.14,-3.16,-5.68,-3.14,-5.65,5.62,5.52,6.44,2.46,2.49,2.52
40.54,-3.07,-5.58,-3.07,-5.58,5.57,5.48,6.30,2.50,2.50,2.51
40.94,-2.98,-5.49,-3.01,-5.51,5.52,5.45,6.17,2.54,2.51,2.51
41.35,-2.97,-5.46,-2.97,-5.46,5.46,5.42,6.04,2.49,2.49,2.49
41.76,-2.96,-5.43,-2.95,-5.42,5.40,5.39,5.91,2.44,2.45,2.47
42.18,-2.92,-5.37,-2.90,-5.35,5.33,5.35,5.79,2.41,2.43,2.46
42.60,-2.83,-5.25,-2.83,-5.26,5.27,5.32,5.68,2.44,2.44,2.43
43.03,-2.74,-5.16,-2.77,-5.18,5.21,5.28,5.56,2.47,2.44,2.42
43.46,-2.74,-5.13,-2.74,-5.11,5.15,5.25,5.45,2.41,2.42,2.39
43.90,-2.74,-5.08,-2.74,-5.08,5.08,5.21,5.35,2.34,2.35,2.34
44.33,-2.74,-5.05,-2.75,-5.05,5.01,5.17,5.25,2.27,2.27,2.31
44.78,-2.74,-5.02,-2.72,-5.00,4.95,5.13,5.15,2.21,2.23,2.28
45.23,-2.69,-4.94,-2.67,-4.91,4.89,5.08,5.06,2.20,2.23,2.25
45.68,-2.58,-4.80,-2.60,-4.82,4.84,5.04,4.97,2.26,2.24,2.22
46.13,-2.51,-4.71,-2.54,-4.73,4.78,4.99,4.88,2.27,2.25,2.20
46.60,-2.51,-4.70,-2.50,-4.68,4.72,4.94,4.80,2.21,2.22,2.19
47.06,-2.51,-4.68,-2.50,-4.67,4.66,4.89,4.72,2.15,2.16,2.17
47.53,-2.48,-4.65,-2.49,-4.65,4.60,4.84,4.65,2.12,2.11,2.17
48.01,-2.46,-4.63,-2.43,-4.59,4.55,4.78,4.57,2.09,2.12,2.17
48.49,-2.37,-4.52,-2.37,-4.52,4.52,4.72,4.50,2.15,2.15,2.15
48.97,-2.28,-4.42,-2.31,-4.45,4.49,4.66,4.44,2.21,2.18,2.14
49.46,-2.28,-4.41,-2.28,-4.40,4.47,4.60,4.38,2.19,2.20,2.13
49.96,-2.28,-4.41,-2.27,-4.40,4.45,4.54,4.32,2.17,2.17,2.13
50.46,-2.28,-4.42,-2.28,-4.42,4.41,4.47,4.26,2.13,2.13,2.14
50.96,-2.28,-4.43,-2.29,-4.43,4.38,4.40,4.21,2.10,2.09,2.15
51.47,-2.28,-4.42,-2.28,-4.42,4.35,4.34,4.15,2.07,2.07,2.14
51.99,-2.28,-4.40,-2.24,-4.36,4.32,4.26,4.10,2.04,2.08,2.12
52.51,-2.16,-4.27,-2.16,-4.27,4.27,4.19,4.05,2.11,2.11,2.11
53.03,-2.05,-4.13,-2.09,-4.17,4.21,4.12,4.01,2.16,2.12,2.08
53.56,-2.05,-4.10,-2.05,-4.09,4.13,4.04,3.96,2.08,2.08,2.05
54.10,-2.05,-4.06,-2.05,-4.05,4.05,3.97,3.92,2.00,2.00,2.01
54.64,-2.05,-4.01,-2.04,-3.99,3.96,3.89,3.87,1.91,1.92,1.96
55.18,-2.01,-3.91,-1.98,-3.88,3.87,3.81,3.83,1.86,1.89,1.91
55.74,-1.88,-3.74,-1.91,-3.76,3.77,3.73,3.79,1.89,1.87,1.86
56.29,-1.82,-3.63,-1.84,-3.64,3.68,3.65,3.75,1.86,1.83,1.81
56.86,-1.82,-3.57,-1.82,-3.57,3.57,3.58,3.70,1.75,1.75,1.75
57.42,-1.82,-3.50,-1.82,-3.50,3.47,3.50,3.66,1.65,1.65,1.68
58.00,-1.82,-3.44,-1.77,-3.39,3.36,3.42,3.62,1.54,1.58,1.62
58.58,-1.69,-3.25,-1.70,-3.26,3.26,3.34,3.58,1.57,1.55,1.56
59.16,-1.60,-3.11,-1.64,-3.14,3.16,3.26,3.53,1.56,1.53,1.51
59.76,-1.60,-3.05,-1.59,-3.04,3.07,3.18,3.49,1.47,1.48,1.45
60.35,-1.60,-2.98,-1.59,-2.98,2.99,3.10,3.44,1.39,1.40,1.38
60.96,-1.60,-2.93,-1.60,-2.92,2.91,3.03,3.39,1.31,1.31,1.33
61.57,-1.60,-2.86,-1.60,-2.86,2.83,2.95,3.34,1.23,1.23,1.26
62.18,-1.60,-2.79,-1.60,-2.80,2.76,2.87,3.29,1.16,1.16,1.19
62.80,-1.60,-2.75,-1.60,-2.74,2.71,2.80,3.23,1.11,1.11,1.15
63.43,-1.60,-2.69,-1.59,-2.68,2.68,2.72,3.18,1.08,1.08,1.09
64.07,-1.60,-2.65,-1.60,-2.64,2.66,2.65,3.12,1.06,1.06,1.05
64.71,-1.63,-2.63,-1.64,-2.63,2.67,2.58,3.06,1.04,1.03,1.00
65.35,-1.70,-2.65,-1.70,-2.65,2.71,2.51,3.00,1.01,1.01,0.95
66.01,-1.82,-2.74,-1.80,-2.71,2.78,2.44,2.94,0.97,0.98,0.92
66.67,-1.93,-2.81,-1.96,-2.84,2.88,2.37,2.88,0.95,0.92,0.88
67.33,-2.12,-2.97,-2.14,-2.99,3.00,2.30,2.81,0.88,0.86,0.85
68.01,-2.38,-3.19,-2.32,-3.14,3.13,2.23,2.74,0.75,0.81,0.82
68.69,-2.48,-3.27,-2.50,-3.28,3.24,2.17,2.68,0.76,0.74,0.79
69.37,-2.61,-3.36,-2.63,-3.38,3.34,2.10,2.61,0.73,0.71,0.75
70.07,-2.74,-3.46,-2.70,-3.43,3.39,2.04,2.54,0.65,0.69,0.72
70.77,-2.74,-3.45,-2.76,-3.46,3.40,1.97,2.46,0.66,0.64,0.71
71.48,-2.74,-3.41,-2.74,-3.41,3.36,1.91,2.39,0.62,0.61,0.67
72.19,-2.69,-3.34,-2.66,-3.30,3.26,1.85,2.32,0.57,0.60,0.65
72.91,-2.53,-3.13,-2.54,-3.14,3.12,1.79,2.25,0.59,0.59,0.61
73.64,-2.36,-2.94,-2.39,-2.97,2.95,1.73,2.17,0.59,0.56,0.58
74.38,-2.22,-2.77,-2.21,-2.75,2.77,1.67,2.10,0.55,0.56,0.55
75.12,-2.07,-2.58,-2.02,-2.54,2.57,1.62,2.02,0.50,0.55,0.52
75.87,-1.80,-2.28,-1.84,-2.32,2.37,1.56,1.95,0.57,0.53,0.49
76.63,-1.66,-2.12,-1.68,-2.14,2.18,1.51,1.88,0.52,0.50,0.46
77.40,-1.57,-2.00,-1.57,-1.99,2.01,1.45,1.80,0.44,0.44,0.43
78.17,-1.50,-1.90,-1.47,-1.87,1.86,1.40,1.73,0.36,0.39,0.40
78.95,-1.38,-1.76,-1.35,-1.73,1.73,1.35,1.66,0.35,0.38,0.39
79.74,-1.20,-1.57,-1.24,-1.60,1.62,1.30,1.58,0.42,0.38,0.37
80.54,-1.14,-1.49,-1.16,-1.51,1.53,1.24,1.51,0.39,0.37,0.35
81.35,-1.14,-1.47,-1.13,-1.46,1.45,1.19,1.44,0.31,0.33,0.33
82.16,-1.12,-1.45,-1.09,-1.42,1.39,1.15,1.37,0.27,0.30,0.33
82.98,-1.04,-1.37,-1.03,-1.35,1.34,1.10,1.30,0.30,0.31,0.33
83.81,-0.93,-1.25,-0.96,-1.28,1.30,1.05,1.23,0.37,0.34,0.32
84.65,-0.91,-1.22,-0.92,-1.23,1.26,1.00,1.16,0.35,0.35,0.31
85.50,-0.91,-1.23,-0.91,-1.22,1.22,0.96,1.09,0.31,0.32,0.32
86.35,-0.91,-1.23,-0.92,-1.23,1.19,0.91,1.02,0.28,0.27,0.32
87.22,-0.90,-1.22,-0.88,-1.19,1.15,0.87,0.95,0.25,0.28,0.32
88.09,-0.84,-1.16,-0.81,-1.13,1.12,0.82,0.89,0.28,0.31,0.32
88.97,-0.69,-1.03,-0.74,-1.07,1.09,0.78,0.82,0.40,0.36,0.34
89.86,-0.68,-1.02,-0.68,-1.02,1.06,0.74,0.75,0.38,0.37,0.34
90.76,-0.68,-1.00,-0.68,-1.00,1.01,0.69,0.69,0.33,0.34,0.32
91.66,-0.68,-1.01,-0.68,-1.00,0.96,0.65,0.62,0.28,0.28,0.33
92.58,-0.68,-0.98,-0.64,-0.95,0.91,0.61,0.56,0.23,0.26,0.30
93.51,-0.58,-0.89,-0.58,-0.88,0.86,0.57,0.50,0.28,0.28,0.31
94.44,-0.48,-0.77,-0.51,-0.80,0.81,0.53,0.43,0.33,0.30,0.29
95.39,-0.46,-0.74,-0.46,-0.73,0.77,0.49,0.37,0.31,0.31,0.28
96.34,-0.46,-0.70,-0.45,-0.69,0.73,0.45,0.31,0.27,0.28,0.24
97.30,-0.46,-0.68,-0.46,-0.68,0.69,0.41,0.24,0.23,0.23,0.22
98.28,-0.46,-0.66,-0.46,-0.65,0.66,0.37,0.18,0.20,0.20,0.20
99.26,-0.46,-0.63,-0.46,-0.63,0.63,0.33,0.12,0.17,0.17,0.17
100.25,-0.46,-0.60,-0.46,-0.60,0.59,0.29,0.06,0.13,0.13,0.14
101.25,-0.46,-0.57,-0.46,-0.57,0.55,0.25,0.00,0.09,0.08,0.11
102.27,-0.46,-0.53,-0.47,-0.53,0.49,0.21,-0.06,0.03,0.02,0.07
103.29,-0.46,-0.48,-0.44,-0.46,0.42,0.17,-0.11,-0.04,-0.02,0.02
104.32,-0.41,-0.39,-0.38,-0.36,0.34,0.14,-0.17,-0.07,-0.05,-0.02
105.37,-0.29,-0.22,-0.31,-0.24,0.25,0.10,-0.23,-0.04,-0.06,-0.07
106.42,-0.23,-0.11,-0.25,-0.12,0.16,0.06,-0.28,-0.07,-0.09,-0.12
107.48,-0.23,-0.04,-0.22,-0.02,0.07,0.02,-0.34,-0.16,-0.16,-0.19
108.56,-0.23,0.04,-0.22,0.04,-0.02,-0.02,-0.39,-0.25,-0.25,-0.27
109.64,-0.23,0.11,-0.23,0.11,-0.11,-0.06,-0.44,-0.34,-0.34,-0.34
110.74,-0.23,0.17,-0.23,0.18,-0.19,-0.09,-0.49,-0.42,-0.42,-0.40
111.85,-0.23,0.24,-0.23,0.25,-0.27,-0.13,-0.54,-0.50,-0.50,-0.47
112.97,-0.23,0.33,-0.23,0.32,-0.34,-0.17,-0.59,-0.57,-0.57,-0.56
114.10,-0.23,0.39,-0.23,0.40,-0.41,-0.21,-0.64,-0.64,-0.64,-0.62
115.24,-0.23,0.47,-0.23,0.48,-0.48,-0.25,-0.68,-0.71,-0.71,-0.70
116.39,-0.23,0.55,-0.23,0.55,-0.55,-0.29,-0.72,-0.78,-0.78,-0.78
117.55,-0.23,0.61,-0.23,0.62,-0.61,-0.33,-0.76,-0.84,-0.84,-0.84
118.73,-0.23,0.68,-0.23,0.68,-0.67,-0.37,-0.80,-0.90,-0.90,-0.91
119.92,-0.23,0.72,-0.23,0.73,-0.72,-0.41,-0.84,-0.95,-0.95,-0.95
121.12,-0.23,0.78,-0.23,0.78,-0.77,-0.45,-0.87,-1.00,-1.00,-1.01
122.33,-0.23,0.82,-0.23,0.82,-0.82,-0.49,-0.91,-1.05,-1.05,-1.05
123.55,-0.23,0.84,-0.23,0.85,-0.86,-0.53,-0.94,-1.09,-1.09,-1.07
124.79,-0.23,0.88,-0.23,0.88,-0.89,-0.57,-0.96,-1.12,-1.12,-1.11
126.03,-0.23,0.92,-0.23,0.92,-0.92,-0.62,-0.99,-1.15,-1.15,-1.15
127.29,-0.23,0.95,-0.23,0.96,-0.96,-0.66,-1.02,-1.19,-1.19,-1.18
128.57,-0.23,0.99,-0.23,0.99,-0.99,-0.70,-1.04,-1.22,-1.22,-1.22
129.85,-0.23,1.02,-0.23,1.02,-1.02,-0.75,-1.06,-1.25,-1.25,-1.25
131.15,-0.23,1.05,-0.23,1.05,-1.05,-0.79,-1.08,-1.28,-1.28,-1.28
132.46,-0.23,1.08,-0.23,1.09,-1.09,-0.84,-1.09,-1.32,-1.32,-1.31
133.79,-0.23,1.11,-0.23,1.12,-1.12,-0.89,-1.11,-1.35,-1.35,-1.34
135.12,-0.23,1.16,-0.23,1.16,-1.16,-0.93,-1.12,-1.39,-1.39,-1.39
136.48,-0.23,1.19,-0.23,1.19,-1.20,-0.98,-1.13,-1.43,-1.43,-1.42
137.84,-0.23,1.22,-0.23,1.23,-1.23,-1.03,-1.14,-1.46,-1.46,-1.45
139.22,-0.23,1.27,-0.23,1.27,-1.27,-1.08,-1.15,-1.50,-1.50,-1.50
140.61,-0.23,1.32,-0.23,1.31,-1.31,-1.13,-1.16,-1.54,-1.54,-1.55
142.02,-0.23,1.34,-0.23,1.35,-1.35,-1.18,-1.17,-1.58,-1.58,-1.57
143.44,-0.23,1.38,-0.23,1.39,-1.39,-1.23,-1.17,-1.62,-1.62,-1.61
144.87,-0.23,1.42,-0.23,1.42,-1.44,-1.29,-1.18,-1.67,-1.67,-1.65
146.32,-0.23,1.47,-0.23,1.47,-1.49,-1.34,-1.19,-1.72,-1.72,-1.70
147.78,-0.23,1.51,-0.23,1.52,-1.53,-1.40,-1.19,-1.76,-1.76,-1.74
149.26,-0.23,1.58,-0.22,1.60,-1.57,-1.45,-1.20,-1.80,-1.79,-1.81
150.75,-0.23,1.66,-0.23,1.65,-1.61,-1.51,-1.20,-1.84,-1.85,-1.89
152.26,-0.24,1.72,-0.29,1.68,-1.66,-1.56,-1.21,-1.90,-1.95,-1.96
153.78,-0.38,1.65,-0.36,1.69,-1.71,-1.62,-1.22,-2.09,-2.06,-2.03
155.32,-0.45,1.68,-0.42,1.70,-1.75,-1.67,-1.22,-2.20,-2.17,-2.13
156.88,-0.46,1.74,-0.47,1.74,-1.77,-1.73,-1.23,-2.23,-2.24,-2.20
158.44,-0.46,1.81,-0.45,1.83,-1.80,-1.78,-1.24,-2.26,-2.25,-2.27
160.03,-0.46,1.89,-0.46,1.89,-1.82,-1.84,-1.25,-2.28,-2.28,-2.35
161.63,-0.46,1.95,-0.51,1.90,-1.86,-1.89,-1.26,-2.32,-2.37,-2.41
163.24,-0.60,1.86,-0.59,1.88,-1.90,-1.94,-1.27,-2.50,-2.49,-2.46
164.88,-0.68,1.82,-0.63,1.87,-1.95,-1.99,-1.28,-2.63,-2.58,-2.50
166.53,-0.64,1.90,-0.62,1.92,-1.99,-2.04,-1.29,-2.63,-2.61,-2.54
168.19,-0.53,2.04,-0.55,2.02,-2.02,-2.08,-1.30,-2.55,-2.58,-2.57
169.87,-0.46,2.12,-0.48,2.10,-2.05,-2.12,-1.32,-2.51,-2.54,-2.58
171.57,-0.46,2.13,-0.45,2.14,-2.08,-2.16,-1.33,-2.54,-2.53,-2.59
173.29,-0.46,2.13,-0.45,2.14,-2.10,-2.20,-1.35,-2.56,-2.56,-2.59
175.02,-0.46,2.11,-0.46,2.13,-2.12,-2.23,-1.37,-2.58,-2.58,-2.57
176.77,-0.46,2.12,-0.46,2.12,-2.13,-2.26,-1.39,-2.59,-2.59,-2.58
178.54,-0.46,2.11,-0.46,2.11,-2.13,-2.28,-1.41,-2.59,-2.59,-2.57
180.32,-0.46,2.10,-0.46,2.11,-2.12,-2.30,-1.43,-2.58,-2.58,-2.56
182.13,-0.46,2.10,-0.46,2.10,-2.11,-2.31,-1.45,-2.57,-2.57,-2.56
183.95,-0.46,2.10,-0.46,2.11,-2.12,-2.32,-1.47,-2.58,-2.58,-2.56
185.79,-0.46,2.11,-0.46,2.12,-2.12,-2.33,-1.50,-2.58,-2.58,-2.57
187.65,-0.46,2.13,-0.46,2.13,-2.13,-2.33,-1.52,-2.59,-2.59,-2.59
189.52,-0.46,2.15,-0.46,2.16,-2.15,-2.32,-1.55,-2.61,-2.61,-2.61
191.42,-0.46,2.17,-0.46,2.17,-2.17,-2.32,-1.58,-2.63,-2.63,-2.63
193.33,-0.46,2.19,-0.46,2.19,-2.18,-2.31,-1.61,-2.64,-2.64,-2.65
195.27,-0.46,2.19,-0.46,2.20,-2.20,-2.29,-1.64,-2.66,-2.66,-2.65
197.22,-0.46,2.21,-0.46,2.22,-2.23,-2.28,-1.67,-2.69,-2.69,-2.67
199.19,-0.46,2.25,-0.46,2.24,-2.25,-2.26,-1.70,-2.71,-2.71,-2.71
201.18,-0.46,2.25,-0.46,2.26,-2.27,-2.24,-1.73,-2.73,-2.73,-2.71
203.19,-0.46,2.27,-0.46,2.28,-2.29,-2.21,-1.76,-2.75,-2.75,-2.73
205.23,-0.46,2.30,-0.46,2.29,-2.29,-2.19,-1.79,-2.75,-2.75,-2.76
207.28,-0.46,2.30,-0.45,2.33,-2.29,-2.16,-1.83,-2.75,-2.73,-2.76
209.35,-0.46,2.32,-0.46,2.33,-2.27,-2.14,-1.86,-2.73,-2.73,-2.78
211.44,-0.46,2.35,-0.51,2.29,-2.26,-2.11,-1.89,-2.72,-2.78,-2.81
213.56,-0.61,2.20,-0.58,2.23,-2.26,-2.09,-1.92,-2.87,-2.84,-2.81
215.69,-0.68,2.13,-0.65,2.18,-2.25,-2.06,-1.95,-2.93,-2.90,-2.81
217.85,-0.68,2.16,-0.69,2.15,-2.23,-2.03,-1.98,-2.91,-2.92,-2.84
220.03,-0.68,2.17,-0.69,2.17,-2.20,-2.00,-2.01,-2.88,-2.89,-2.85
222.23,-0.68,2.19,-0.66,2.20,-2.15,-1.98,-2.04,-2.83,-2.81,-2.87
224.45,-0.68,2.19,-0.67,2.21,-2.09,-1.95,-2.07,-2.77,-2.76,-2.87
226.70,-0.68,2.19,-0.74,2.14,-2.03,-1.93,-2.09,-2.71,-2.77,-2.87
228.96,-0.84,2.04,-0.87,2.01,-1.98,-1.90,-2.12,-2.82,-2.84,-2.88
231.25,-1.07,1.81,-1.01,1.88,-1.93,-1.88,-2.14,-3.00,-2.94,-2.88
233.57,-1.14,1.75,-1.12,1.77,-1.89,-1.86,-2.16,-3.03,-3.01,-2.89
235.90,-1.14,1.76,-1.17,1.73,-1.86,-1.83,-2.18,-3.00,-3.03,-2.90
238.26,-1.14,1.76,-1.15,1.76,-1.83,-1.81,-2.19,-2.97,-2.98,-2.90
240.64,-1.14,1.76,-1.08,1.82,-1.82,-1.79,-2.20,-2.96,-2.90,-2.90
243.05,-0.98,1.91,-0.99,1.90,-1.82,-1.77,-2.21,-2.80,-2.81,-2.89
245.48,-0.91,1.97,-0.95,1.94,-1.82,-1.75,-2.21,-2.73,-2.77,-2.88
247.93,-0.91,1.96,-0.96,1.92,-1.83,-1.74,-2.22,-2.74,-2.79,-2.87
250.41,-1.10,1.78,-1.04,1.83,-1.82,-1.72,-2.22,-2.92,-2.87,-2.88
252.92,-1.14,1.73,-1.12,1.75,-1.80,-1.70,-2.21,-2.94,-2.92,-2.87
255.45,-1.14,1.70,-1.16,1.70,-1.77,-1.68,-2.21,-2.91,-2.93,-2.84
258.00,-1.14,1.70,-1.14,1.70,-1.74,-1.67,-2.19,-2.88,-2.88,-2.84
260.58,-1.14,1.70,-1.14,1.70,-1.70,-1.65,-2.18,-2.84,-2.84,-2.84
263.19,-1.14,1.68,-1.14,1.69,-1.68,-1.64,-2.17,-2.82,-2.82,-2.82
265.82,-1.14,1.68,-1.14,1.68,-1.66,-1.63,-2.15,-2.80,-2.80,-2.82
268.48,-1.14,1.65,-1.14,1.66,-1.65,-1.61,-2.12,-2.79,-2.79,-2.79
271.16,-1.14,1.64,-1.14,1.64,-1.64,-1.60,-2.10,-2.78,-2.78,-2.78
273.87,-1.14,1.63,-1.14,1.62,-1.63,-1.59,-2.07,-2.77,-2.77,-2.77
276.61,-1.14,1.59,-1.14,1.61,-1.60,-1.57,-2.05,-2.74,-2.74,-2.73
279.38,-1.14,1.58,-1.14,1.58,-1.58,-1.56,-2.01,-2.72,-2.72,-2.72
282.17,-1.14,1.55,-1.14,1.55,-1.55,-1.55,-1.98,-2.69,-2.69,-2.69
284.99,-1.14,1.52,-1.14,1.53,-1.53,-1.54,-1.95,-2.67,-2.67,-2.66
287.84,-1.14,1.50,-1.14,1.50,-1.50,-1.53,-1.91,-2.64,-2.64,-2.64
290.72,-1.14,1.46,-1.14,1.47,-1.47,-1.52,-1.88,-2.61,-2.61,-2.60
293.63,-1.14,1.44,-1.14,1.44,-1.44,-1.51,-1.84,-2.58,-2.58,-2.58
296.57,-1.14,1.41,-1.14,1.41,-1.41,-1.49,-1.81,-2.55,-2.55,-2.55
299.53,-1.14,1.38,-1.14,1.39,-1.38,-1.48,-1.77,-2.52,-2.52,-2.52
302.53,-1.14,1.37,-1.14,1.36,-1.35,-1.47,-1.73,-2.49,-2.49,-2.51
305.55,-1.14,1.33,-1.14,1.34,-1.33,-1.46,-1.69,-2.47,-2.47,-2.47
308.61,-1.14,1.31,-1.14,1.32,-1.32,-1.45,-1.65,-2.46,-2.46,-2.45
311.69,-1.14,1.30,-1.14,1.29,-1.32,-1.44,-1.62,-2.46,-2.47,-2.44
314.81,-1.14,1.27,-1.16,1.27,-1.33,-1.43,-1.58,-2.47,-2.49,-2.41
317.96,-1.14,1.27,-1.13,1.29,-1.33,-1.42,-1.54,-2.47,-2.46,-2.41
321.14,-1.13,1.29,-1.06,1.35,-1.33,-1.41,-1.51,-2.46,-2.40,-2.42
324.35,-0.96,1.45,-1.01,1.40,-1.33,-1.40,-1.47,-2.29,-2.35,-2.41
327.59,-0.94,1.46,-1.01,1.40,-1.33,-1.39,-1.43,-2.27,-2.33,-2.40
330.87,-1.09,1.30,-1.04,1.36,-1.32,-1.37,-1.40,-2.41,-2.36,-2.39
334.18,-1.14,1.25,-1.11,1.28,-1.30,-1.36,-1.37,-2.44,-2.42,-2.39
337.52,-1.14,1.24,-1.15,1.23,-1.28,-1.35,-1.33,-2.42,-2.43,-2.38
340.90,-1.14,1.21,-1.14,1.22,-1.25,-1.34,-1.30,-2.39,-2.39,-2.35
344.30,-1.14,1.20,-1.14,1.21,-1.21,-1.33,-1.27,-2.35,-2.35,-2.34
347.75,-1.14,1.19,-1.14,1.19,-1.18,-1.31,-1.24,-2.32,-2.32,-2.33
351.23,-1.14,1.16,-1.14,1.17,-1.16,-1.30,-1.21,-2.30,-2.30,-2.30
354.74,-1.14,1.14,-1.14,1.14,-1.14,-1.29,-1.18,-2.28,-2.28,-2.28
358.28,-1.14,1.11,-1.14,1.12,-1.11,-1.27,-1.15,-2.25,-2.25,-2.25
361.87,-1.14,1.09,-1.14,1.10,-1.09,-1.26,-1.13,-2.23,-2.23,-2.23
365.49,-1.14,1.07,-1.14,1.07,-1.06,-1.25,-1.10,-2.20,-2.20,-2.21
369.14,-1.14,1.05,-1.14,1.05,-1.03,-1.23,-1.08,-2.17,-2.17,-2.19
372.83,-1.14,1.02,-1.14,1.03,-1.02,-1.22,-1.05,-2.16,-2.16,-2.16
376.56,-1.14,1.00,-1.15,0.99,-1.03,-1.20,-1.03,-2.17,-2.18,-2.14
380.33,-1.14,0.97,-1.14,0.98,-1.04,-1.19,-1.01,-2.18,-2.18,-2.11
384.13,-1.14,0.95,-1.09,1.01,-1.05,-1.17,-0.99,-2.19,-2.14,-2.09
387.97,-0.99,1.09,-1.02,1.07,-1.07,-1.15,-0.97,-2.06,-2.09,-2.08
391.85,-0.92,1.16,-0.95,1.13,-1.09,-1.13,-0.95,-2.01,-2.04,-2.08
395.77,-0.91,1.16,-0.90,1.17,-1.11,-1.12,-0.93,-2.02,-2.01,-2.07
399.73,-0.91,1.15,-0.90,1.16,-1.13,-1.10,-0.91,-2.04,-2.03,-2.06
403.72,-0.91,1.14,-0.91,1.15,-1.14,-1.08,-0.90,-2.05,-2.05,-2.05
407.76,-0.91,1.13,-0.91,1.13,-1.15,-1.06,-0.88,-2.06,-2.06,-2.04
411.84,-0.91,1.12,-0.91,1.12,-1.14,-1.04,-0.86,-2.05,-2.05,-2.03
415.96,-0.91,1.11,-0.91,1.12,-1.13,-1.02,-0.85,-2.04,-2.04,-2.02
420.12,-0.91,1.11,-0.91,1.11,-1.12,-1.00,-0.83,-2.03,-2.03,-2.02
424.32,-0.91,1.11,-0.91,1.11,-1.12,-0.98,-0.82,-2.03,-2.03,-2.02
428.56,-0.91,1.11,-0.91,1.12,-1.12,-0.96,-0.81,-2.03,-2.03,-2.02
432.85,-0.91,1.12,-0.91,1.12,-1.12,-0.94,-0.80,-2.03,-2.03,-2.03
437.18,-0.91,1.11,-0.91,1.11,-1.12,-0.91,-0.78,-2.03,-2.03,-2.02
441.55,-0.91,1.10,-0.91,1.11,-1.12,-0.89,-0.77,-2.03,-2.03,-2.01
445.96,-0.91,1.10,-0.91,1.10,-1.11,-0.87,-0.76,-2.02,-2.02,-2.01
450.42,-0.91,1.09,-0.90,1.10,-1.08,-0.85,-0.75,-1.99,-1.98,-2.00
454.93,-0.91,1.08,-0.91,1.09,-1.04,-0.82,-0.74,-1.95,-1.95,-1.99
459.48,-0.91,1.07,-0.95,1.04,-1.00,-0.80,-0.73,-1.91,-1.94,-1.98
464.07,-1.01,0.95,-1.01,0.95,-0.95,-0.78,-0.72,-1.96,-1.96,-1.96
468.71,-1.11,0.83,-1.08,0.87,-0.89,-0.75,-0.71,-2.00,-1.98,-1.94
