frequency,raw,error,smoothed,error_smoothed,equalization,parametric_eq,fixed_band_eq,equalized_raw,equalized_smoothed,target
20.00,12.56,5.25,12.56,5.23,-5.23,-4.51,-2.48,7.33,7.33,7.31
20.20,12.59,5.24,12.59,5.22,-5.22,-4.57,-2.55,7.37,7.36,7.35
20.40,12.61,5.22,12.61,5.22,-5.22,-4.63,-2.62,7.39,7.40,7.39
20.61,12.64,5.22,12.64,5.22,-5.22,-4.69,-2.70,7.42,7.42,7.42
20.81,12.67,5.21,12.67,5.22,-5.22,-4.75,-2.77,7.45,7.45,7.46
21.02,12.69,5.19,12.69,5.22,-5.22,-4.81,-2.85,7.47,7.48,7.50
21.23,12.72,5.20,12.72,5.22,-5.22,-4.87,-2.93,7.50,7.50,7.52
21.44,12.74,5.20,12.74,5.22,-5.22,-4.93,-3.02,7.52,7.52,7.54
21.66,12.77,5.21,12.77,5.22,-5.22,-4.99,-3.11,7.55,7.55,7.56
21.87,12.80,5.23,12.79,5.23,-5.23,-5.05,-3.19,7.57,7.57,7.57
22.09,12.82,5.23,12.82,5.23,-5.23,-5.10,-3.29,7.59,7.58,7.59
22.31,12.84,5.24,12.84,5.24,-5.24,-5.16,-3.38,7.60,7.60,7.60
22.54,12.86,5.25,12.87,5.25,-5.25,-5.21,-3.47,7.61,7.61,7.61
22.76,12.89,5.27,12.89,5.27,-5.27,-5.27,-3.57,7.62,7.62,7.62
22.99,12.91,5.29,12.91,5.28,-5.28,-5.32,-3.67,7.63,7.63,7.62
23.22,12.93,5.30,12.93,5.30,-5.30,-5.37,-3.78,7.63,7.64,7.63
23.45,12.96,5.32,12.96,5.31,-5.31,-5.41,-3.88,7.65,7.65,7.64
23.69,12.98,5.33,12.98,5.32,-5.32,-5.46,-3.99,7.66,7.66,7.65
23.92,13.00,5.34,13.00,5.33,-5.33,-5.50,-4.10,7.67,7.67,7.66
24.16,13.02,5.34,13.02,5.34,-5.34,-5.54,-4.21,7.68,7.68,7.68
24.40,13.04,5.34,13.04,5.36,-5.36,-5.58,-4.32,7.68,7.68,7.70
24.65,13.06,5.37,13.06,5.37,-5.37,-5.62,-4.44,7.69,7.69,7.69
24.89,13.08,5.38,13.08,5.37,-5.37,-5.65,-4.55,7.71,7.70,7.70
25.14,13.10,5.39,13.10,5.38,-5.38,-5.68,-4.67,7.72,7.71,7.71
25.39,13.11,5.39,13.11,5.39,-5.39,-5.71,-4.78,7.72,7.73,7.72
25.65,13.13,5.39,13.13,5.39,-5.39,-5.74,-4.90,7.74,7.74,7.74
25.91,13.14,5.40,13.14,5.40,-5.40,-5.76,-5.02,7.74,7.75,7.74
26.16,13.16,5.41,13.16,5.40,-5.40,-5.78,-5.14,7.76,7.76,7.75
26.43,13.17,5.41,13.17,5.41,-5.41,-5.80,-5.25,7.76,7.76,7.76
26.69,13.18,5.41,13.18,5.41,-5.41,-5.81,-5.37,7.77,7.77,7.77
26.96,13.20,5.41,13.20,5.42,-5.42,-5.82,-5.48,7.78,7.78,7.79
27.23,13.21,5.41,13.21,5.42,-5.42,-5.83,-5.59,7.79,7.79,7.80
27.50,13.22,5.42,13.22,5.42,-5.42,-5.83,-5.69,7.80,7.80,7.80
27.77,13.23,5.43,13.23,5.42,-5.42,-5.83,-5.80,7.81,7.81,7.80
28.05,13.24,5.42,13.24,5.42,-5.42,-5.83,-5.89,7.82,7.82,7.82
28.33,13.25,5.43,13.25,5.42,-5.42,-5.82,-5.99,7.83,7.83,7.82
28.62,13.25,5.42,13.25,5.42,-5.42,-5.81,-6.07,7.83,7.83,7.83
28.90,13.26,5.42,13.26,5.42,-5.42,-5.80,-6.15,7.84,7.84,7.84
29.19,13.26,5.42,13.27,5.42,-5.42,-5.78,-6.22,7.84,7.85,7.84
29.48,13.27,5.40,13.27,5.42,-5.42,-5.76,-6.29,7.85,7.86,7.87
29.78,13.28,5.42,13.28,5.41,-5.41,-5.73,-6.34,7.87,7.86,7.86
30.08,13.28,5.41,13.28,5.41,-5.41,-5.71,-6.38,7.87,7.87,7.87
30.38,13.28,5.41,13.28,5.41,-5.41,-5.68,-6.42,7.87,7.88,7.87
30.68,13.29,5.40,13.28,5.40,-5.40,-5.64,-6.44,7.89,7.88,7.89
30.99,13.29,5.40,13.28,5.39,-5.39,-5.60,-6.45,7.90,7.89,7.89
31.30,13.28,5.39,13.28,5.38,-5.38,-5.56,-6.45,7.90,7.90,7.89
31.61,13.28,5.38,13.28,5.38,-5.38,-5.52,-6.44,7.90,7.91,7.90
31.93,13.27,5.36,13.28,5.37,-5.37,-5.47,-6.42,7.90,7.91,7.91
32.24,13.27,5.36,13.28,5.36,-5.36,-5.42,-6.39,7.91,7.92,7.91
32.57,13.26,5.33,13.27,5.34,-5.34,-5.37,-6.35,7.92,7.93,7.93
32.89,13.26,5.33,13.26,5.33,-5.33,-5.32,-6.30,7.93,7.93,7.93
33.22,13.25,5.31,13.25,5.31,-5.31,-5.26,-6.24,7.94,7.94,7.94
33.55,13.24,5.29,13.24,5.29,-5.29,-5.21,-6.17,7.95,7.95,7.95
33.89,13.23,5.27,13.23,5.27,-5.27,-5.15,-6.09,7.96,7.96,7.96
34.23,13.22,5.26,13.21,5.25,-5.25,-5.08,-6.01,7.97,7.96,7.96
34.57,13.20,5.23,13.19,5.22,-5.22,-5.02,-5.92,7.98,7.97,7.97
34.92,13.17,5.20,13.17,5.19,-5.19,-4.95,-5.82,7.98,7.97,7.97
35.27,13.15,5.17,13.14,5.16,-5.16,-4.89,-5.72,7.99,7.98,7.98
35.62,13.11,5.13,13.11,5.13,-5.13,-4.82,-5.61,7.98,7.98,7.98
35.97,13.08,5.10,13.08,5.10,-5.10,-4.75,-5.50,7.98,7.98,7.98
36.33,13.05,5.06,13.05,5.06,-5.06,-4.68,-5.38,7.99,7.99,7.99
36.70,13.01,5.03,13.01,5.02,-5.02,-4.61,-5.27,7.99,7.99,7.98
37.06,12.97,4.98,12.97,4.98,-4.98,-4.54,-5.15,7.99,7.99,7.99
37.43,12.92,4.93,12.93,4.94,-4.94,-4.46,-5.03,7.98,7.99,7.99
37.81,12.87,4.88,12.88,4.89,-4.89,-4.39,-4.91,7.98,7.99,7.99
38.19,12.83,4.84,12.83,4.85,-4.85,-4.32,-4.78,7.98,7.98,7.99
38.57,12.78,4.80,12.78,4.80,-4.80,-4.24,-4.66,7.98,7.98,7.98
38.95,12.73,4.75,12.72,4.74,-4.74,-4.17,-4.54,7.99,7.98,7.98
39.34,12.66,4.69,12.66,4.69,-4.69,-4.10,-4.42,7.97,7.98,7.97
39.74,12.60,4.63,12.60,4.63,-4.63,-4.02,-4.30,7.97,7.98,7.97
40.14,12.54,4.57,12.54,4.56,-4.56,-3.95,-4.18,7.98,7.97,7.97
40.54,12.46,4.49,12.47,4.49,-4.49,-3.88,-4.07,7.97,7.97,7.97
40.94,12.39,4.43,12.39,4.42,-4.42,-3.80,-3.95,7.97,7.97,7.96
41.35,12.31,4.35,12.31,4.35,-4.35,-3.73,-3.84,7.96,7.96,7.96
41.76,12.23,4.27,12.23,4.27,-4.27,-3.66,-3.72,7.96,7.96,7.96
42.18,12.15,4.19,12.14,4.18,-4.18,-3.59,-3.61,7.97,7.96,7.96
42.60,12.05,4.09,12.05,4.09,-4.09,-3.52,-3.50,7.96,7.96,7.96
43.03,11.95,3.99,11.95,4.00,-4.00,-3.45,-3.40,7.95,7.95,7.96
43.46,11.85,3.89,11.84,3.89,-3.89,-3.38,-3.29,7.96,7.95,7.96
43.90,11.74,3.80,11.73,3.79,-3.79,-3.31,-3.19,7.95,7.95,7.94
44.33,11.63,3.69,11.62,3.68,-3.68,-3.25,-3.09,7.95,7.95,7.94
44.78,11.50,3.57,11.50,3.56,-3.56,-3.18,-2.99,7.94,7.94,7.93
45.23,11.38,3.45,11.38,3.44,-3.44,-3.12,-2.89,7.94,7.94,7.93
45.68,11.25,3.32,11.25,3.31,-3.31,-3.05,-2.80,7.94,7.93,7.93
46.13,11.12,3.20,11.11,3.18,-3.18,-2.99,-2.71,7.93,7.93,7.92
46.60,10.98,3.05,10.98,3.05,-3.05,-2.93,-2.62,7.93,7.92,7.93
47.06,10.84,2.92,10.84,2.92,-2.92,-2.87,-2.53,7.92,7.92,7.92
47.53,10.69,2.78,10.69,2.78,-2.78,-2.81,-2.45,7.90,7.91,7.91
48.01,10.55,2.63,10.55,2.65,-2.65,-2.76,-2.36,7.90,7.90,7.92
48.49,10.40,2.50,10.40,2.51,-2.51,-2.70,-2.28,7.89,7.89,7.90
48.97,10.26,2.38,10.25,2.37,-2.37,-2.65,-2.20,7.89,7.88,7.88
49.46,10.11,2.24,10.10,2.23,-2.23,-2.60,-2.13,7.88,7.87,7.87
49.96,9.96,2.11,9.95,2.09,-2.09,-2.55,-2.05,7.87,7.86,7.85
50.46,9.82,1.97,9.81,1.96,-1.96,-2.50,-1.98,7.86,7.84,7.85
50.96,9.67,1.84,9.66,1.83,-1.83,-2.45,-1.91,7.84,7.83,7.83
51.47,9.53,1.73,9.52,1.71,-1.71,-2.41,-1.85,7.82,7.81,7.80
51.99,9.38,1.59,9.39,1.59,-1.59,-2.36,-1.78,7.79,7.80,7.79
52.51,9.25,1.47,9.26,1.48,-1.48,-2.32,-1.72,7.77,7.78,7.78
53.03,9.12,1.36,9.14,1.38,-1.38,-2.28,-1.67,7.74,7.76,7.76
53.56,9.02,1.27,9.03,1.29,-1.29,-2.25,-1.61,7.73,7.74,7.75
54.10,8.91,1.19,8.92,1.20,-1.20,-2.21,-1.56,7.71,7.72,7.72
54.64,8.82,1.11,8.83,1.13,-1.13,-2.18,-1.51,7.69,7.70,7.71
55.18,8.74,1.06,8.75,1.06,-1.06,-2.15,-1.47,7.68,7.69,7.68
55.74,8.66,1.01,8.68,1.01,-1.01,-2.12,-1.43,7.65,7.67,7.65
56.29,8.61,0.96,8.62,0.97,-0.97,-2.09,-1.39,7.64,7.64,7.65
56.86,8.56,0.94,8.57,0.95,-0.95,-2.06,-1.36,7.61,7.62,7.62
57.42,8.53,0.94,8.54,0.94,-0.94,-2.04,-1.33,7.59,7.60,7.59
58.00,8.50,0.93,8.51,0.94,-0.94,-2.02,-1.30,7.56,7.58,7.57
58.58,8.49,0.94,8.50,0.95,-0.95,-2.00,-1.28,7.54,7.55,7.55
59.16,8.48,0.95,8.49,0.97,-0.97,-1.99,-1.27,7.51,7.52,7.53
59.76,8.49,0.98,8.50,1.00,-1.00,-1.97,-1.26,7.49,7.50,7.51
60.35,8.50,1.02,8.50,1.04,-1.04,-1.96,-1.25,7.46,7.47,7.48
60.96,8.52,1.07,8.52,1.08,-1.08,-1.95,-1.25,7.44,7.44,7.45
61.57,8.54,1.14,8.54,1.13,-1.13,-1.94,-1.26,7.41,7.40,7.40
62.18,8.57,1.21,8.56,1.19,-1.19,-1.94,-1.27,7.38,7.37,7.36
62.80,8.59,1.25,8.58,1.24,-1.24,-1.94,-1.28,7.35,7.33,7.34
63.43,8.62,1.33,8.60,1.30,-1.30,-1.94,-1.30,7.32,7.30,7.29
64.07,8.64,1.39,8.63,1.36,-1.36,-1.94,-1.33,7.28,7.26,7.25
64.71,8.65,1.43,8.65,1.42,-1.42,-1.95,-1.36,7.23,7.22,7.22
65.35,8.67,1.49,8.66,1.48,-1.48,-1.96,-1.40,7.19,7.18,7.18
66.01,8.69,1.55,8.68,1.54,-1.54,-1.97,-1.44,7.15,7.14,7.14
66.67,8.71,1.60,8.69,1.59,-1.59,-1.99,-1.49,7.12,7.11,7.11
67.33,8.72,1.65,8.70,1.64,-1.64,-2.00,-1.54,7.08,7.07,7.07
68.01,8.73,1.70,8.71,1.69,-1.69,-2.02,-1.59,7.04,7.03,7.03
68.69,8.74,1.75,8.72,1.73,-1.73,-2.05,-1.66,7.01,6.99,6.99
69.37,8.74,1.79,8.73,1.78,-1.78,-2.07,-1.72,6.96,6.95,6.95
70.07,8.75,1.84,8.74,1.83,-1.83,-2.10,-1.79,6.92,6.91,6.91
70.77,8.75,1.88,8.75,1.88,-1.88,-2.14,-1.86,6.87,6.87,6.87
71.48,8.76,1.92,8.77,1.93,-1.93,-2.17,-1.94,6.83,6.84,6.84
72.19,8.78,1.99,8.79,1.99,-1.99,-2.21,-2.02,6.79,6.80,6.79
72.91,8.80,2.04,8.81,2.05,-2.05,-2.26,-2.11,6.75,6.76,6.76
73.64,8.83,2.11,8.84,2.12,-2.12,-2.31,-2.20,6.71,6.72,6.72
74.38,8.88,2.19,8.89,2.20,-2.20,-2.36,-2.29,6.68,6.69,6.69
75.12,8.93,2.28,8.94,2.28,-2.28,-2.41,-2.38,6.65,6.66,6.65
75.87,8.99,2.37,9.00,2.37,-2.37,-2.47,-2.48,6.62,6.62,6.62
76.63,9.06,2.47,9.07,2.48,-2.48,-2.53,-2.58,6.59,6.59,6.59
77.40,9.13,2.57,9.15,2.59,-2.59,-2.60,-2.69,6.54,6.56,6.56
78.17,9.22,2.69,9.24,2.71,-2.71,-2.67,-2.79,6.51,6.53,6.53
78.95,9.33,2.83,9.34,2.84,-2.84,-2.74,-2.90,6.49,6.51,6.50
79.74,9.45,2.97,9.46,2.98,-2.98,-2.82,-3.02,6.47,6.48,6.48
80.54,9.58,3.12,9.58,3.13,-3.13,-2.91,-3.13,6.45,6.45,6.46
81.35,9.71,3.28,9.71,3.28,-3.28,-2.99,-3.25,6.43,6.43,6.43
82.16,9.85,3.45,9.85,3.45,-3.45,-3.09,-3.37,6.40,6.41,6.40
82.98,9.99,3.60,10.00,3.62,-3.62,-3.18,-3.50,6.37,6.38,6.39
83.81,10.15,3.79,10.16,3.79,-3.79,-3.29,-3.62,6.36,6.36,6.36
84.65,10.31,3.98,10.32,3.98,-3.98,-3.40,-3.75,6.34,6.34,6.33
85.50,10.47,4.15,10.48,4.16,-4.16,-3.51,-3.89,6.31,6.32,6.32
86.35,10.64,4.34,10.65,4.35,-4.35,-3.63,-4.02,6.30,6.30,6.30
87.22,10.82,4.54,10.81,4.53,-4.53,-3.75,-4.16,6.29,6.28,6.28
88.09,10.99,4.73,10.98,4.71,-4.71,-3.88,-4.30,6.28,6.26,6.26
88.97,11.15,4.91,11.14,4.90,-4.90,-4.01,-4.45,6.25,6.24,6.24
89.86,11.32,5.09,11.30,5.08,-5.08,-4.15,-4.60,6.24,6.22,6.23
90.76,11.48,5.28,11.46,5.26,-5.26,-4.30,-4.75,6.22,6.21,6.20
91.66,11.63,5.45,11.62,5.44,-5.44,-4.45,-4.90,6.20,6.19,6.18
92.58,11.78,5.62,11.78,5.61,-5.61,-4.61,-5.06,6.17,6.17,6.16
93.51,11.92,5.77,11.92,5.78,-5.78,-4.77,-5.22,6.14,6.15,6.15
94.44,12.06,5.93,12.06,5.94,-5.94,-4.94,-5.38,6.12,6.12,6.13
95.39,12.19,6.08,12.19,6.09,-6.09,-5.12,-5.55,6.10,6.10,6.11
96.34,12.32,6.24,12.32,6.24,-6.24,-5.30,-5.72,6.08,6.08,6.08
97.30,12.45,6.40,12.44,6.38,-6.38,-5.49,-5.89,6.07,6.05,6.05
98.28,12.56,6.54,12.55,6.52,-6.52,-5.69,-6.06,6.04,6.03,6.02
99.26,12.68,6.68,12.66,6.66,-6.66,-5.89,-6.24,6.02,6.00,6.00
100.25,12.78,6.81,12.76,6.79,-6.79,-6.09,-6.42,5.99,5.97,5.97
101.25,12.87,6.93,12.86,6.91,-6.91,-6.30,-6.60,5.96,5.94,5.94
102.27,12.95,7.05,12.95,7.04,-7.04,-6.52,-6.78,5.91,5.91,5.90
103.29,13.00,7.13,13.04,7.16,-7.16,-6.74,-6.96,5.84,5.87,5.87
104.32,13.07,7.23,13.12,7.28,-7.28,-6.96,-7.14,5.79,5.83,5.84
105.37,13.17,7.37,13.19,7.40,-7.40,-7.19,-7.33,5.77,5.79,5.80
106.42,13.25,7.50,13.26,7.51,-7.51,-7.42,-7.51,5.74,5.75,5.75
107.48,13.33,7.61,13.33,7.62,-7.62,-7.65,-7.69,5.71,5.71,5.72
108.56,13.40,7.74,13.39,7.73,-7.73,-7.87,-7.86,5.67,5.66,5.66
109.64,13.46,7.85,13.44,7.83,-7.83,-8.10,-8.04,5.63,5.61,5.61
110.74,13.51,7.95,13.49,7.93,-7.93,-8.31,-8.20,5.58,5.56,5.56
111.85,13.55,8.04,13.53,8.03,-8.03,-8.53,-8.37,5.52,5.50,5.51
112.97,13.57,8.13,13.57,8.13,-8.13,-8.73,-8.52,5.44,5.44,5.44
114.10,13.59,8.20,13.60,8.22,-8.22,-8.92,-8.66,5.37,5.39,5.39
115.24,13.62,8.29,13.63,8.30,-8.30,-9.09,-8.80,5.32,5.33,5.33
116.39,13.63,8.37,13.65,8.38,-8.38,-9.24,-8.92,5.25,5.27,5.26
117.55,13.65,8.45,13.65,8.44,-8.44,-9.37,-9.02,5.21,5.21,5.20
118.73,13.65,8.51,13.65,8.50,-8.50,-9.48,-9.12,5.15,5.15,5.14
119.92,13.64,8.55,13.64,8.55,-8.55,-9.55,-9.19,5.09,5.09,5.09
121.12,13.62,8.59,13.63,8.59,-8.59,-9.60,-9.24,5.03,5.04,5.03
122.33,13.60,8.62,13.60,8.62,-8.62,-9.62,-9.28,4.98,4.98,4.98
123.55,13.57,8.64,13.56,8.64,-8.64,-9.60,-9.29,4.93,4.93,4.93
124.79,13.52,8.64,13.52,8.64,-8.64,-9.56,-9.28,4.88,4.88,4.88
126.03,13.46,8.63,13.46,8.63,-8.63,-9.48,-9.25,4.83,4.83,4.83
127.29,13.41,8.63,13.39,8.62,-8.62,-9.38,-9.20,4.79,4.78,4.78
128.57,13.34,8.62,13.31,8.58,-8.58,-9.25,-9.13,4.76,4.73,4.72
129.85,13.23,8.55,13.22,8.54,-8.54,-9.10,-9.03,4.69,4.68,4.68
131.15,13.10,8.47,13.11,8.47,-8.47,-8.93,-8.92,4.63,4.64,4.63
132.46,13.01,8.42,12.99,8.40,-8.40,-8.74,-8.79,4.61,4.59,4.59
133.79,12.87,8.32,12.86,8.31,-8.31,-8.55,-8.64,4.56,4.55,4.55
135.12,12.68,8.17,12.72,8.21,-8.21,-8.34,-8.48,4.47,4.51,4.51
136.48,12.57,8.10,12.56,8.10,-8.10,-8.12,-8.30,4.47,4.47,4.47
137.84,12.40,7.97,12.40,7.97,-7.97,-7.91,-8.12,4.43,4.43,4.43
139.22,12.26,7.88,12.22,7.83,-7.83,-7.69,-7.92,4.43,4.39,4.38
140.61,12.09,7.75,12.04,7.69,-7.69,-7.48,-7.71,4.40,4.35,4.34
142.02,11.81,7.49,11.85,7.53,-7.53,-7.27,-7.49,4.28,4.32,4.32
143.44,11.66,7.38,11.65,7.37,-7.37,-7.06,-7.27,4.29,4.28,4.28
144.87,11.41,7.17,11.45,7.21,-7.21,-6.86,-7.05,4.20,4.24,4.24
146.32,11.23,7.03,11.23,7.03,-7.03,-6.68,-6.82,4.20,4.20,4.20
147.78,10.99,6.82,11.01,6.85,-6.85,-6.50,-6.58,4.14,4.16,4.17
149.26,10.79,6.65,10.79,6.66,-6.66,-6.33,-6.35,4.13,4.12,4.14
150.75,10.54,6.46,10.55,6.47,-6.47,-6.17,-6.11,4.07,4.08,4.08
152.26,10.34,6.30,10.32,6.27,-6.27,-6.03,-5.87,4.07,4.04,4.04
153.78,10.07,6.06,10.08,6.08,-6.08,-5.89,-5.64,3.99,4.00,4.01
155.32,9.86,5.91,9.83,5.87,-5.87,-5.75,-5.40,3.99,3.96,3.95
156.88,9.57,5.65,9.59,5.67,-5.67,-5.62,-5.16,3.90,3.92,3.92
158.44,9.36,5.49,9.34,5.47,-5.47,-5.48,-4.93,3.89,3.87,3.87
160.03,9.02,5.20,9.08,5.25,-5.25,-5.34,-4.70,3.77,3.83,3.82
161.63,8.80,5.03,8.81,5.03,-5.03,-5.19,-4.46,3.77,3.78,3.77
163.24,8.58,4.85,8.54,4.80,-4.80,-5.01,-4.23,3.77,3.73,3.73
164.88,8.25,4.56,8.27,4.58,-4.58,-4.81,-4.00,3.67,3.69,3.69
166.53,8.00,4.36,8.00,4.36,-4.36,-4.59,-3.77,3.64,3.64,3.64
168.19,7.77,4.18,7.72,4.13,-4.13,-4.34,-3.55,3.64,3.59,3.59
169.87,7.41,3.87,7.43,3.89,-3.89,-4.08,-3.32,3.52,3.54,3.54
171.57,7.14,3.64,7.14,3.65,-3.65,-3.79,-3.10,3.49,3.49,3.50
173.29,6.89,3.45,6.85,3.41,-3.41,-3.50,-2.88,3.48,3.44,3.44
175.02,6.49,3.10,6.56,3.17,-3.17,-3.19,-2.66,3.32,3.39,3.39
176.77,6.22,2.89,6.26,2.92,-2.92,-2.89,-2.44,3.30,3.33,3.33
178.54,5.96,2.68,5.95,2.67,-2.67,-2.58,-2.23,3.29,3.28,3.28
180.32,5.69,2.47,5.64,2.42,-2.42,-2.28,-2.01,3.27,3.22,3.22
182.13,5.41,2.24,5.33,2.16,-2.16,-1.99,-1.80,3.25,3.17,3.17
183.95,4.99,1.88,5.02,1.91,-1.91,-1.71,-1.59,3.09,3.11,3.11
185.79,4.68,1.62,4.70,1.64,-1.64,-1.43,-1.38,3.04,3.06,3.06
187.65,4.38,1.39,4.38,1.38,-1.38,-1.16,-1.17,3.00,3.00,2.99
189.52,4.08,1.14,4.07,1.12,-1.12,-0.91,-0.96,2.96,2.95,2.94
191.42,3.77,0.88,3.75,0.86,-0.86,-0.66,-0.76,2.91,2.89,2.89
193.33,3.44,0.60,3.44,0.60,-0.60,-0.41,-0.55,2.84,2.84,2.84
195.27,3.12,0.33,3.13,0.35,-0.35,-0.18,-0.35,2.77,2.79,2.79
197.22,2.80,0.07,2.82,0.08,-0.08,0.05,-0.15,2.72,2.74,2.73
199.19,2.51,-0.17,2.51,-0.18,0.18,0.27,0.05,2.69,2.69,2.68
201.18,2.22,-0.41,2.21,-0.43,0.43,0.49,0.25,2.65,2.64,2.63
203.19,1.93,-0.67,1.92,-0.67,0.67,0.71,0.44,2.60,2.59,2.60
205.23,1.64,-0.90,1.65,-0.90,0.90,0.91,0.63,2.54,2.55,2.54
207.28,1.37,-1.15,1.37,-1.13,1.13,1.12,0.83,2.50,2.50,2.52
209.35,1.11,-1.35,1.11,-1.35,1.35,1.32,1.01,2.46,2.46,2.46
211.44,0.86,-1.55,0.86,-1.56,1.56,1.51,1.20,2.42,2.42,2.41
213.56,0.60,-1.77,0.62,-1.76,1.76,1.70,1.38,2.36,2.38,2.37
215.69,0.36,-1.99,0.39,-1.95,1.95,1.88,1.55,2.31,2.34,2.35
217.85,0.13,-2.18,0.18,-2.13,2.13,2.06,1.73,2.26,2.31,2.31
220.03,-0.01,-2.28,-0.03,-2.30,2.30,2.23,1.89,2.29,2.28,2.27
222.23,-0.18,-2.42,-0.21,-2.46,2.46,2.39,2.05,2.28,2.25,2.24
224.45,-0.37,-2.59,-0.39,-2.60,2.60,2.54,2.21,2.23,2.22,2.22
226.70,-0.55,-2.74,-0.54,-2.73,2.73,2.69,2.36,2.18,2.19,2.19
228.96,-0.71,-2.87,-0.68,-2.85,2.85,2.82,2.50,2.14,2.17,2.16
231.25,-0.81,-2.96,-0.81,-2.96,2.96,2.94,2.64,2.15,2.15,2.15
233.57,-0.93,-3.06,-0.92,-3.06,3.06,3.05,2.76,2.13,2.13,2.13
235.90,-1.04,-3.16,-1.02,-3.14,3.14,3.15,2.88,2.10,2.12,2.12
238.26,-1.10,-3.21,-1.10,-3.21,3.21,3.23,2.99,2.11,2.11,2.11
240.64,-1.18,-3.28,-1.16,-3.27,3.27,3.29,3.09,2.08,2.10,2.10
243.05,-1.22,-3.32,-1.22,-3.31,3.31,3.35,3.18,2.09,2.10,2.10
245.48,-1.26,-3.35,-1.26,-3.35,3.35,3.39,3.26,2.09,2.09,2.09
247.93,-1.29,-3.38,-1.28,-3.38,3.38,3.42,3.33,2.09,2.09,2.09
250.41,-1.30,-3.39,-1.29,-3.39,3.39,3.43,3.39,2.09,2.10,2.09
252.92,-1.30,-3.40,-1.29,-3.39,3.39,3.44,3.44,2.09,2.10,2.10
255.45,-1.28,-3.39,-1.28,-3.39,3.39,3.44,3.48,2.11,2.11,2.11
258.00,-1.27,-3.39,-1.27,-3.38,3.38,3.42,3.51,2.11,2.12,2.12
260.58,-1.24,-3.36,-1.25,-3.37,3.37,3.40,3.53,2.13,2.13,2.12
263.19,-1.22,-3.35,-1.22,-3.35,3.35,3.38,3.54,2.13,2.14,2.13
265.82,-1.17,-3.31,-1.18,-3.33,3.33,3.35,3.54,2.16,2.15,2.14
268.48,-1.13,-3.29,-1.14,-3.30,3.30,3.31,3.53,2.17,2.16,2.16
271.16,-1.09,-3.27,-1.11,-3.28,3.28,3.28,3.52,2.19,2.17,2.18
273.87,-1.04,-3.22,-1.06,-3.25,3.25,3.24,3.49,2.21,2.19,2.18
276.61,-1.01,-3.22,-1.02,-3.22,3.22,3.20,3.47,2.21,2.20,2.21
279.38,-0.97,-3.18,-0.97,-3.18,3.18,3.16,3.43,2.21,2.21,2.21
282.17,-0.93,-3.16,-0.92,-3.15,3.15,3.12,3.39,2.22,2.23,2.23
284.99,-0.89,-3.13,-0.88,-3.12,3.12,3.08,3.35,2.23,2.24,2.24
287.84,-0.82,-3.07,-0.83,-3.08,3.08,3.04,3.30,2.26,2.25,2.25
290.72,-0.78,-3.04,-0.78,-3.05,3.05,3.00,3.25,2.27,2.27,2.26
293.63,-0.74,-3.02,-0.73,-3.01,3.01,2.97,3.20,2.27,2.28,2.28
296.57,-0.69,-2.99,-0.68,-2.98,2.98,2.93,3.14,2.29,2.29,2.30
299.53,-0.63,-2.93,-0.63,-2.94,2.94,2.89,3.08,2.31,2.31,2.30
302.53,-0.58,-2.89,-0.59,-2.91,2.91,2.86,3.02,2.33,2.32,2.31
305.55,-0.54,-2.87,-0.54,-2.87,2.87,2.83,2.96,2.33,2.33,2.33
308.61,-0.49,-2.83,-0.49,-2.83,2.83,2.80,2.90,2.34,2.34,2.34
311.69,-0.44,-2.79,-0.45,-2.80,2.80,2.77,2.84,2.36,2.35,2.35
314.81,-0.40,-2.78,-0.40,-2.77,2.77,2.74,2.78,2.37,2.36,2.38
317.96,-0.36,-2.73,-0.36,-2.73,2.73,2.71,2.72,2.37,2.37,2.37
321.14,-0.31,-2.69,-0.33,-2.70,2.70,2.68,2.66,2.39,2.38,2.38
324.35,-0.27,-2.65,-0.28,-2.67,2.67,2.65,2.60,2.40,2.39,2.38
327.59,-0.23,-2.62,-0.24,-2.63,2.63,2.63,2.54,2.40,2.39,2.39
330.87,-0.21,-2.60,-0.20,-2.60,2.60,2.60,2.48,2.39,2.39,2.39
334.18,-0.18,-2.57,-0.16,-2.56,2.56,2.58,2.43,2.38,2.40,2.39
337.52,-0.14,-2.54,-0.12,-2.52,2.52,2.55,2.38,2.38,2.40,2.40
340.90,-0.11,-2.51,-0.08,-2.48,2.48,2.52,2.32,2.37,2.40,2.40
344.30,-0.06,-2.46,-0.05,-2.44,2.44,2.50,2.27,2.39,2.40,2.40
347.75,-0.02,-2.42,-0.01,-2.41,2.41,2.47,2.23,2.39,2.40,2.40
351.23,0.04,-2.36,0.03,-2.37,2.37,2.45,2.18,2.41,2.40,2.40
354.74,0.08,-2.32,0.07,-2.33,2.33,2.42,2.13,2.41,2.39,2.40
358.28,0.14,-2.24,0.10,-2.28,2.28,2.40,2.09,2.42,2.39,2.38
361.87,0.16,-2.22,0.14,-2.24,2.24,2.37,2.05,2.40,2.38,2.38
365.49,0.19,-2.19,0.18,-2.20,2.20,2.34,2.01,2.39,2.38,2.38
369.14,0.21,-2.16,0.21,-2.16,2.16,2.31,1.97,2.37,2.37,2.37
372.83,0.23,-2.14,0.25,-2.12,2.12,2.29,1.94,2.35,2.37,2.37
376.56,0.27,-2.09,0.28,-2.08,2.08,2.26,1.90,2.35,2.36,2.36
380.33,0.30,-2.05,0.31,-2.04,2.04,2.23,1.87,2.34,2.35,2.35
384.13,0.34,-2.00,0.34,-2.00,2.00,2.20,1.84,2.34,2.34,2.34
387.97,0.37,-1.96,0.37,-1.96,1.96,2.17,1.81,2.33,2.34,2.33
391.85,0.41,-1.91,0.40,-1.93,1.93,2.13,1.78,2.34,2.33,2.32
395.77,0.43,-1.90,0.43,-1.89,1.89,2.10,1.76,2.32,2.32,2.33
399.73,0.45,-1.87,0.46,-1.85,1.85,2.07,1.74,2.30,2.32,2.32
403.72,0.48,-1.83,0.50,-1.81,1.81,2.03,1.71,2.29,2.31,2.31
407.76,0.52,-1.78,0.52,-1.78,1.78,2.00,1.69,2.30,2.31,2.30
411.84,0.55,-1.76,0.55,-1.75,1.75,1.96,1.67,2.30,2.30,2.31
415.96,0.58,-1.71,0.57,-1.72,1.72,1.93,1.66,2.30,2.30,2.29
420.12,0.61,-1.68,0.59,-1.70,1.70,1.89,1.64,2.31,2.29,2.29
424.32,0.63,-1.66,0.61,-1.68,1.68,1.86,1.63,2.31,2.29,2.29
428.56,0.64,-1.64,0.62,-1.67,1.67,1.82,1.61,2.31,2.29,2.28
432.85,0.65,-1.63,0.63,-1.66,1.66,1.79,1.60,2.31,2.29,2.28
437.18,0.65,-1.63,0.64,-1.65,1.65,1.75,1.59,2.30,2.29,2.28
441.55,0.64,-1.65,0.64,-1.64,1.64,1.72,1.58,2.28,2.28,2.29
445.96,0.64,-1.65,0.65,-1.64,1.64,1.68,1.57,2.28,2.29,2.29
450.42,0.63,-1.65,0.65,-1.64,1.64,1.65,1.56,2.27,2.29,2.28
454.93,0.63,-1.66,0.64,-1.65,1.65,1.62,1.55,2.28,2.29,2.29
459.48,0.63,-1.66,0.64,-1.65,1.65,1.59,1.54,2.28,2.29,2.29
464.07,0.63,-1.67,0.64,-1.66,1.66,1.56,1.54,2.29,2.30,2.30
468.71,0.63,-1.68,0.63,-1.67,1.67,1.54,1.53,2.30,2.30,2.31
473.40,0.63,-1.67,0.63,-1.68,1.68,1.51,1.53,2.31,2.31,2.30
478.13,0.63,-1.68,0.63,-1.68,1.68,1.50,1.52,2.31,2.31,2.31
482.91,0.63,-1.68,0.63,-1.69,1.69,1.48,1.52,2.32,2.32,2.31
487.74,0.63,-1.69,0.63,-1.69,1.69,1.47,1.51,2.32,2.32,2.32
492.62,0.63,-1.70,0.63,-1.70,1.70,1.46,1.51,2.33,2.33,2.33
497.55,0.63,-1.70,0.63,-1.71,1.71,1.45,1.51,2.34,2.33,2.33
502.52,0.63,-1.71,0.62,-1.71,1.71,1.45,1.51,2.34,2.34,2.34
507.55,0.63,-1.71,0.62,-1.72,1.72,1.45,1.50,2.35,2.34,2.34
512.62,0.63,-1.71,0.62,-1.73,1.73,1.45,1.50,2.36,2.34,2.34
517.75,0.63,-1.72,0.62,-1.73,1.73,1.46,1.50,2.36,2.35,2.35
