frequency,raw,error,smoothed,error_smoothed,equalization,parametric_eq,fixed_band_eq,equalized_raw,equalized_smoothed,target
20.00,12.67,2.07,12.67,2.07,-2.07,-2.19,-1.30,10.60,10.60,10.60
20.20,12.69,2.10,12.69,2.10,-2.10,-2.20,-1.34,10.59,10.59,10.59
20.40,12.70,2.12,12.70,2.13,-2.13,-2.22,-1.38,10.57,10.58,10.58
20.61,12.72,2.15,12.72,2.15,-2.15,-2.23,-1.42,10.57,10.57,10.57
20.81,12.74,2.19,12.74,2.19,-2.18,-2.24,-1.46,10.56,10.55,10.55
21.02,12.75,2.21,12.75,2.21,-2.21,-2.26,-1.50,10.54,10.54,10.54
21.23,12.77,2.24,12.77,2.24,-2.24,-2.27,-1.54,10.53,10.53,10.53
21.44,12.79,2.25,12.79,2.26,-2.26,-2.29,-1.58,10.53,10.53,10.54
21.66,12.81,2.29,12.81,2.29,-2.29,-2.30,-1.63,10.52,10.52,10.52
21.87,12.83,2.31,12.83,2.32,-2.32,-2.32,-1.68,10.51,10.51,10.52
22.09,12.85,2.35,12.85,2.35,-2.35,-2.33,-1.72,10.50,10.50,10.50
22.31,12.87,2.38,12.87,2.38,-2.37,-2.35,-1.77,10.50,10.49,10.49
22.54,12.88,2.40,12.88,2.40,-2.40,-2.36,-1.82,10.48,10.48,10.48
22.76,12.90,2.42,12.90,2.43,-2.43,-2.38,-1.87,10.47,10.47,10.48
22.99,12.92,2.45,12.92,2.45,-2.45,-2.40,-1.92,10.47,10.47,10.47
23.22,12.94,2.48,12.94,2.48,-2.47,-2.41,-1.98,10.47,10.47,10.46
23.45,12.96,2.49,12.96,2.50,-2.50,-2.43,-2.03,10.46,10.46,10.47
23.69,12.98,2.52,12.98,2.52,-2.52,-2.45,-2.09,10.46,10.46,10.46
23.92,12.99,2.54,12.99,2.54,-2.54,-2.46,-2.14,10.45,10.46,10.45
24.16,13.01,2.55,13.01,2.56,-2.56,-2.48,-2.20,10.45,10.45,10.46
24.40,13.03,2.57,13.03,2.57,-2.58,-2.50,-2.26,10.45,10.45,10.46
24.65,13.05,2.60,13.05,2.59,-2.60,-2.52,-2.32,10.45,10.45,10.45
24.89,13.06,2.61,13.06,2.62,-2.62,-2.53,-2.38,10.44,10.45,10.45
25.14,13.08,2.64,13.08,2.64,-2.64,-2.55,-2.44,10.44,10.45,10.44
25.39,13.10,2.66,13.10,2.66,-2.66,-2.57,-2.50,10.44,10.44,10.44
25.65,13.12,2.68,13.12,2.68,-2.68,-2.59,-2.57,10.44,10.44,10.44
25.91,13.13,2.69,13.13,2.69,-2.70,-2.61,-2.63,10.44,10.44,10.44
26.16,13.15,2.70,13.15,2.71,-2.71,-2.63,-2.69,10.44,10.44,10.45
26.43,13.17,2.73,13.17,2.73,-2.73,-2.65,-2.75,10.44,10.44,10.44
26.69,13.19,2.75,13.19,2.75,-2.75,-2.67,-2.81,10.44,10.44,10.44
26.96,13.21,2.77,13.21,2.77,-2.77,-2.69,-2.87,10.44,10.44,10.44
27.23,13.22,2.78,13.23,2.78,-2.78,-2.71,-2.94,10.44,10.44,10.44
27.50,13.24,2.80,13.24,2.80,-2.80,-2.73,-2.99,10.44,10.44,10.44
27.77,13.26,2.81,13.26,2.81,-2.81,-2.75,-3.05,10.45,10.45,10.45
28.05,13.27,2.83,13.27,2.83,-2.83,-2.78,-3.11,10.45,10.45,10.44
28.33,13.29,2.84,13.29,2.84,-2.84,-2.80,-3.16,10.45,10.45,10.45
28.62,13.30,2.85,13.30,2.85,-2.85,-2.82,-3.22,10.45,10.45,10.45
28.90,13.32,2.86,13.32,2.86,-2.87,-2.84,-3.27,10.45,10.45,10.46
29.19,13.33,2.87,13.33,2.88,-2.88,-2.87,-3.32,10.45,10.45,10.46
29.48,13.35,2.90,13.35,2.90,-2.90,-2.89,-3.36,10.45,10.45,10.45
29.78,13.37,2.92,13.37,2.92,-2.92,-2.91,-3.41,10.45,10.45,10.45
30.08,13.38,2.93,13.38,2.94,-2.94,-2.94,-3.44,10.44,10.45,10.45
30.38,13.40,2.97,13.40,2.96,-2.96,-2.96,-3.48,10.44,10.44,10.43
30.68,13.41,2.98,13.41,2.98,-2.97,-2.99,-3.51,10.44,10.44,10.43
30.99,13.42,2.99,13.42,2.99,-2.99,-3.01,-3.54,10.43,10.43,10.43
31.30,13.43,3.00,13.43,3.01,-3.01,-3.04,-3.57,10.42,10.42,10.43
31.61,13.44,3.02,13.44,3.02,-3.03,-3.06,-3.59,10.41,10.41,10.42
31.93,13.45,3.05,13.45,3.04,-3.04,-3.09,-3.61,10.41,10.41,10.40
32.24,13.46,3.05,13.46,3.06,-3.06,-3.11,-3.63,10.40,10.40,10.41
32.57,13.47,3.08,13.47,3.08,-3.08,-3.14,-3.64,10.40,10.39,10.39
32.89,13.48,3.09,13.48,3.09,-3.10,-3.17,-3.66,10.39,10.39,10.39
33.22,13.49,3.11,13.49,3.11,-3.12,-3.20,-3.66,10.38,10.38,10.38
33.55,13.51,3.13,13.51,3.13,-3.14,-3.22,-3.67,10.38,10.37,10.38
33.89,13.52,3.15,13.52,3.16,-3.16,-3.25,-3.67,10.36,10.37,10.37
34.23,13.54,3.19,13.54,3.19,-3.18,-3.28,-3.67,10.36,10.36,10.35
34.57,13.55,3.20,13.55,3.21,-3.20,-3.31,-3.67,10.35,10.35,10.35
34.92,13.57,3.24,13.57,3.23,-3.23,-3.34,-3.67,10.35,10.34,10.33
35.27,13.58,3.23,13.58,3.25,-3.25,-3.37,-3.67,10.33,10.33,10.35
35.62,13.60,3.28,13.60,3.27,-3.28,-3.40,-3.66,10.32,10.32,10.32
35.97,13.62,3.30,13.62,3.30,-3.31,-3.43,-3.66,10.31,10.31,10.32
36.33,13.64,3.34,13.64,3.34,-3.34,-3.46,-3.66,10.30,10.30,10.30
36.70,13.66,3.38,13.66,3.38,-3.38,-3.49,-3.65,10.28,10.28,10.28
37.06,13.67,3.41,13.68,3.42,-3.42,-3.52,-3.65,10.26,10.26,10.26
37.43,13.70,3.46,13.70,3.46,-3.45,-3.55,-3.64,10.25,10.24,10.24
37.81,13.72,3.49,13.72,3.50,-3.50,-3.58,-3.64,10.23,10.22,10.23
38.19,13.74,3.54,13.74,3.54,-3.54,-3.61,-3.64,10.20,10.20,10.20
38.57,13.76,3.58,13.76,3.58,-3.58,-3.64,-3.64,10.18,10.18,10.18
38.95,13.78,3.61,13.78,3.62,-3.62,-3.68,-3.64,10.16,10.16,10.17
39.34,13.80,3.66,13.80,3.66,-3.67,-3.71,-3.64,10.14,10.14,10.14
39.74,13.82,3.71,13.82,3.71,-3.71,-3.74,-3.65,10.11,10.11,10.11
40.14,13.84,3.75,13.84,3.75,-3.75,-3.78,-3.65,10.09,10.09,10.09
40.54,13.86,3.79,13.86,3.79,-3.79,-3.81,-3.66,10.07,10.07,10.07
40.94,13.88,3.84,13.88,3.83,-3.83,-3.85,-3.67,10.05,10.05,10.04
41.35,13.89,3.86,13.90,3.87,-3.87,-3.88,-3.69,10.02,10.02,10.03
41.76,13.91,3.91,13.91,3.91,-3.91,-3.91,-3.70,10.00,10.00,10.00
42.18,13.93,3.94,13.93,3.94,-3.94,-3.95,-3.72,9.99,9.98,9.99
42.60,13.94,3.98,13.94,3.98,-3.98,-3.99,-3.74,9.96,9.96,9.96
43.03,13.95,4.01,13.95,4.01,-4.01,-4.02,-3.76,9.94,9.94,9.94
43.46,13.95,4.05,13.95,4.05,-4.05,-4.06,-3.79,9.90,9.91,9.90
43.90,13.96,4.08,13.96,4.09,-4.08,-4.09,-3.82,9.88,9.88,9.88
44.33,13.97,4.12,13.97,4.12,-4.12,-4.13,-3.85,9.85,9.85,9.85
44.78,13.98,4.15,13.98,4.15,-4.15,-4.17,-3.89,9.83,9.82,9.83
45.23,13.98,4.17,13.98,4.18,-4.19,-4.21,-3.93,9.79,9.79,9.81
45.68,13.99,4.23,13.99,4.23,-4.23,-4.24,-3.97,9.76,9.76,9.76
46.13,14.00,4.27,14.00,4.27,-4.27,-4.28,-4.01,9.73,9.73,9.73
46.60,14.01,4.32,14.01,4.32,-4.32,-4.32,-4.06,9.70,9.70,9.69
47.06,14.02,4.36,14.02,4.36,-4.36,-4.36,-4.11,9.66,9.66,9.66
47.53,14.02,4.40,14.02,4.40,-4.41,-4.40,-4.16,9.62,9.62,9.62
48.01,14.02,4.45,14.02,4.45,-4.45,-4.44,-4.21,9.57,9.57,9.57
48.49,14.02,4.49,14.02,4.49,-4.49,-4.48,-4.27,9.53,9.53,9.53
48.97,14.02,4.54,14.02,4.54,-4.53,-4.51,-4.33,9.49,9.49,9.48
49.46,14.02,4.57,14.02,4.58,-4.57,-4.55,-4.39,9.45,9.44,9.45
49.96,14.01,4.62,14.01,4.62,-4.61,-4.59,-4.45,9.40,9.40,9.39
50.46,14.01,4.65,14.01,4.65,-4.65,-4.64,-4.52,9.36,9.36,9.36
50.96,14.00,4.68,14.00,4.69,-4.69,-4.68,-4.58,9.31,9.32,9.32
51.47,14.00,4.72,14.00,4.72,-4.73,-4.72,-4.65,9.28,9.28,9.28
51.99,14.00,4.77,14.00,4.76,-4.76,-4.76,-4.72,9.24,9.24,9.23
52.51,14.00,4.80,14.00,4.80,-4.80,-4.80,-4.79,9.20,9.20,9.20
53.03,14.00,4.83,14.00,4.84,-4.84,-4.84,-4.86,9.16,9.16,9.17
53.56,14.00,4.88,14.00,4.88,-4.89,-4.88,-4.93,9.12,9.12,9.12
54.10,14.00,4.93,14.00,4.93,-4.93,-4.92,-5.01,9.07,9.07,9.07
54.64,14.00,4.97,14.00,4.97,-4.97,-4.97,-5.08,9.03,9.03,9.03
55.18,14.00,5.01,14.00,5.01,-5.01,-5.01,-5.15,8.99,8.99,8.99
55.74,14.00,5.06,14.00,5.05,-5.05,-5.05,-5.21,8.95,8.95,8.94
56.29,14.00,5.08,14.00,5.09,-5.09,-5.09,-5.28,8.91,8.91,8.92
56.86,14.00,5.12,14.00,5.13,-5.13,-5.14,-5.35,8.87,8.87,8.88
57.42,14.00,5.17,14.00,5.17,-5.16,-5.18,-5.41,8.84,8.84,8.83
58.00,14.00,5.21,14.00,5.21,-5.20,-5.22,-5.47,8.80,8.80,8.79
58.58,14.00,5.24,14.00,5.24,-5.24,-5.27,-5.53,8.76,8.76,8.76
59.16,14.00,5.27,14.00,5.28,-5.29,-5.31,-5.58,8.72,8.72,8.73
59.76,14.00,5.32,14.00,5.32,-5.33,-5.35,-5.63,8.67,8.67,8.68
60.35,14.00,5.37,14.00,5.37,-5.38,-5.40,-5.68,8.62,8.62,8.63
60.96,14.00,5.43,14.00,5.43,-5.43,-5.44,-5.72,8.57,8.57,8.57
61.57,14.00,5.49,14.00,5.49,-5.49,-5.49,-5.76,8.51,8.51,8.51
62.18,14.00,5.55,14.00,5.55,-5.54,-5.53,-5.79,8.46,8.46,8.45
62.80,14.00,5.61,14.00,5.61,-5.60,-5.57,-5.82,8.40,8.40,8.39
63.43,14.00,5.66,14.00,5.66,-5.66,-5.62,-5.84,8.34,8.34,8.34
64.07,14.00,5.71,14.00,5.71,-5.72,-5.66,-5.87,8.29,8.28,8.29
64.71,14.00,5.76,14.00,5.77,-5.77,-5.71,-5.88,8.23,8.23,8.24
65.35,14.00,5.82,14.00,5.82,-5.83,-5.75,-5.89,8.17,8.18,8.18
66.01,14.01,5.88,14.01,5.88,-5.88,-5.79,-5.90,8.13,8.13,8.13
66.67,14.02,5.93,14.02,5.94,-5.94,-5.84,-5.91,8.08,8.08,8.09
67.33,14.02,6.00,14.02,6.00,-5.99,-5.88,-5.91,8.03,8.03,8.02
68.01,14.02,6.05,14.02,6.05,-6.04,-5.93,-5.91,7.98,7.98,7.97
68.69,14.01,6.09,14.02,6.10,-6.10,-5.97,-5.91,7.91,7.92,7.92
69.37,14.01,6.14,14.01,6.14,-6.15,-6.02,-5.90,7.86,7.86,7.87
70.07,14.00,6.19,14.00,6.19,-6.19,-6.06,-5.90,7.81,7.81,7.81
70.77,13.98,6.24,13.99,6.24,-6.24,-6.10,-5.89,7.74,7.75,7.74
71.48,13.97,6.28,13.97,6.28,-6.28,-6.15,-5.88,7.69,7.69,7.69
72.19,13.94,6.31,13.94,6.32,-6.32,-6.19,-5.87,7.62,7.63,7.63
72.91,13.92,6.36,13.92,6.36,-6.35,-6.24,-5.87,7.57,7.57,7.56
73.64,13.90,6.39,13.90,6.39,-6.39,-6.28,-5.86,7.51,7.51,7.51
74.38,13.87,6.42,13.87,6.42,-6.42,-6.32,-5.85,7.45,7.45,7.45
75.12,13.85,6.45,13.85,6.45,-6.45,-6.37,-5.85,7.40,7.40,7.40
75.87,13.82,6.47,13.82,6.48,-6.48,-6.41,-5.85,7.34,7.35,7.35
76.63,13.80,6.51,13.80,6.50,-6.50,-6.45,-5.85,7.30,7.29,7.29
77.40,13.77,6.52,13.77,6.53,-6.53,-6.50,-5.85,7.24,7.24,7.25
78.17,13.75,6.56,13.75,6.56,-6.56,-6.54,-5.85,7.19,7.19,7.19
78.95,13.73,6.58,13.73,6.59,-6.59,-6.58,-5.86,7.14,7.14,7.15
79.74,13.72,6.62,13.72,6.62,-6.62,-6.63,-5.87,7.10,7.10,7.10
80.54,13.71,6.66,13.71,6.66,-6.66,-6.67,-5.89,7.05,7.05,7.05
81.35,13.69,6.70,13.69,6.70,-6.69,-6.71,-5.91,7.00,7.00,6.99
82.16,13.68,6.72,13.68,6.73,-6.73,-6.75,-5.93,6.95,6.95,6.96
82.98,13.66,6.76,13.66,6.76,-6.77,-6.80,-5.95,6.89,6.89,6.90
83.81,13.64,6.79,13.65,6.80,-6.80,-6.84,-5.98,6.84,6.84,6.85
84.65,13.63,6.84,13.63,6.84,-6.84,-6.88,-6.02,6.79,6.79,6.79
85.50,13.62,6.89,13.62,6.88,-6.88,-6.92,-6.06,6.74,6.74,6.73
86.35,13.60,6.92,13.60,6.92,-6.91,-6.96,-6.10,6.69,6.69,6.68
87.22,13.57,6.94,13.58,6.95,-6.94,-7.00,-6.15,6.63,6.63,6.63
88.09,13.55,6.98,13.54,6.97,-6.98,-7.04,-6.20,6.58,6.57,6.57
88.97,13.51,7.00,13.51,7.00,-7.00,-7.08,-6.26,6.51,6.51,6.51
89.86,13.48,7.02,13.49,7.03,-7.03,-7.13,-6.32,6.45,6.46,6.46
90.76,13.46,7.06,13.46,7.06,-7.06,-7.17,-6.39,6.40,6.40,6.40
91.66,13.43,7.10,13.43,7.09,-7.08,-7.21,-6.45,6.35,6.35,6.33
92.58,13.40,7.12,13.40,7.12,-7.12,-7.24,-6.53,6.28,6.28,6.28
93.51,13.37,7.14,13.37,7.15,-7.16,-7.28,-6.61,6.21,6.22,6.23
94.44,13.35,7.18,13.35,7.19,-7.20,-7.32,-6.69,6.15,6.15,6.17
95.39,13.34,7.24,13.34,7.24,-7.26,-7.36,-6.78,6.09,6.08,6.10
96.34,13.33,7.30,13.33,7.30,-7.31,-7.40,-6.88,6.02,6.02,6.03
97.30,13.33,7.36,13.34,7.37,-7.38,-7.44,-6.97,5.96,5.96,5.97
98.28,13.35,7.45,13.35,7.45,-7.44,-7.48,-7.07,5.91,5.91,5.90
99.26,13.36,7.52,13.36,7.52,-7.51,-7.51,-7.17,5.85,5.85,5.84
100.25,13.37,7.59,13.37,7.58,-7.57,-7.55,-7.28,5.80,5.79,5.78
101.25,13.36,7.63,13.36,7.64,-7.63,-7.59,-7.39,5.73,5.73,5.73
102.27,13.35,7.68,13.35,7.69,-7.68,-7.62,-7.50,5.67,5.67,5.67
103.29,13.34,7.73,13.34,7.73,-7.73,-7.66,-7.62,5.61,5.61,5.61
104.32,13.33,7.77,13.33,7.77,-7.76,-7.70,-7.74,5.57,5.56,5.56
105.37,13.30,7.80,13.30,7.80,-7.79,-7.73,-7.85,5.51,5.51,5.50
106.42,13.27,7.82,13.27,7.83,-7.82,-7.77,-7.97,5.45,5.45,5.45
107.48,13.24,7.85,13.24,7.85,-7.84,-7.80,-8.09,5.40,5.39,5.39
108.56,13.20,7.86,13.20,7.86,-7.87,-7.84,-8.21,5.33,5.33,5.34
109.64,13.16,7.88,13.16,7.89,-7.89,-7.87,-8.32,5.27,5.27,5.28
110.74,13.13,7.91,13.13,7.91,-7.92,-7.91,-8.44,5.21,5.21,5.22
111.85,13.10,7.94,13.10,7.94,-7.95,-7.94,-8.55,5.15,5.15,5.16
112.97,13.08,7.97,13.08,7.97,-7.98,-7.97,-8.65,5.10,5.09,5.11
114.10,13.06,8.01,13.06,8.01,-8.02,-8.01,-8.76,5.04,5.04,5.05
115.24,13.03,8.06,13.04,8.06,-8.06,-8.04,-8.85,4.97,4.98,4.97
116.39,13.02,8.11,13.02,8.11,-8.10,-8.07,-8.95,4.92,4.92,4.91
117.55,13.00,8.15,13.00,8.15,-8.14,-8.10,-9.03,4.86,4.86,4.85
118.73,12.98,8.19,12.98,8.18,-8.17,-8.13,-9.11,4.81,4.81,4.79
119.92,12.95,8.20,12.95,8.21,-8.21,-8.17,-9.17,4.74,4.75,4.75
121.12,12.93,8.23,12.93,8.23,-8.24,-8.20,-9.23,4.69,4.69,4.70
122.33,12.90,8.26,12.90,8.26,-8.27,-8.23,-9.27,4.63,4.64,4.64
123.55,12.88,8.29,12.88,8.29,-8.29,-8.26,-9.31,4.59,4.59,4.59
124.79,12.85,8.31,12.85,8.31,-8.32,-8.29,-9.33,4.53,4.53,4.54
126.03,12.82,8.34,12.82,8.34,-8.34,-8.31,-9.35,4.48,4.48,4.48
127.29,12.79,8.36,12.79,8.37,-8.36,-8.34,-9.36,4.43,4.43,4.43
128.57,12.76,8.40,12.76,8.39,-8.38,-8.37,-9.35,4.38,4.37,4.36
129.85,12.72,8.41,12.72,8.41,-8.41,-8.40,-9.33,4.32,4.31,4.31
131.15,12.67,8.42,12.68,8.43,-8.43,-8.42,-9.31,4.24,4.25,4.25
132.46,12.64,8.44,12.64,8.44,-8.45,-8.45,-9.28,4.19,4.19,4.20
133.79,12.60,8.46,12.60,8.46,-8.47,-8.48,-9.24,4.13,4.13,4.14
135.12,12.57,8.48,12.57,8.48,-8.49,-8.50,-9.19,4.08,4.08,4.09
136.48,12.55,8.51,12.55,8.51,-8.52,-8.53,-9.13,4.03,4.03,4.04
137.84,12.52,8.53,12.53,8.54,-8.54,-8.55,-9.07,3.98,3.99,3.99
139.22,12.51,8.58,12.50,8.57,-8.56,-8.57,-9.01,3.95,3.94,3.93
140.61,12.48,8.59,12.47,8.59,-8.58,-8.60,-8.93,3.90,3.89,3.89
142.02,12.43,8.60,12.44,8.61,-8.60,-8.62,-8.86,3.83,3.85,3.83
143.44,12.41,8.62,12.41,8.62,-8.61,-8.64,-8.79,3.80,3.79,3.79
144.87,12.37,8.62,12.37,8.62,-8.63,-8.66,-8.71,3.75,3.74,3.75
146.32,12.33,8.63,12.33,8.63,-8.64,-8.68,-8.64,3.69,3.70,3.70
147.78,12.29,8.63,12.30,8.64,-8.65,-8.70,-8.56,3.64,3.65,3.66
149.26,12.27,8.66,12.27,8.66,-8.66,-8.72,-8.48,3.61,3.61,3.61
150.75,12.24,8.67,12.24,8.67,-8.67,-8.74,-8.41,3.57,3.57,3.57
152.26,12.22,8.69,12.22,8.69,-8.69,-8.75,-8.34,3.53,3.53,3.53
153.78,12.19,8.70,12.19,8.70,-8.70,-8.77,-8.27,3.49,3.49,3.49
155.32,12.17,8.72,12.17,8.72,-8.72,-8.78,-8.21,3.45,3.45,3.45
156.88,12.14,8.74,12.14,8.74,-8.73,-8.80,-8.14,3.41,3.41,3.40
158.44,12.11,8.76,12.11,8.75,-8.75,-8.81,-8.09,3.36,3.36,3.35
160.03,12.07,8.76,12.07,8.77,-8.77,-8.82,-8.03,3.30,3.31,3.31
161.63,12.04,8.77,12.04,8.78,-8.79,-8.84,-7.99,3.26,3.26,3.27
163.24,12.01,8.79,12.01,8.79,-8.80,-8.85,-7.94,3.21,3.21,3.22
164.88,11.98,8.81,11.99,8.81,-8.82,-8.86,-7.90,3.16,3.17,3.17
166.53,11.96,8.84,11.96,8.84,-8.83,-8.87,-7.87,3.13,3.13,3.12
168.19,11.94,8.85,11.93,8.86,-8.85,-8.87,-7.84,3.09,3.09,3.09
169.87,11.90,8.87,11.90,8.87,-8.86,-8.88,-7.81,3.04,3.04,3.03
171.57,11.85,8.87,11.85,8.87,-8.86,-8.89,-7.80,2.99,2.99,2.98
173.29,11.81,8.87,11.80,8.87,-8.87,-8.89,-7.79,2.94,2.93,2.94
175.02,11.74,8.85,11.75,8.86,-8.87,-8.89,-7.78,2.87,2.88,2.89
176.77,11.70,8.86,11.70,8.86,-8.86,-8.90,-7.78,2.84,2.84,2.84
178.54,11.65,8.85,11.65,8.86,-8.85,-8.90,-7.79,2.80,2.80,2.80
180.32,11.60,8.86,11.60,8.85,-8.84,-8.90,-7.80,2.76,2.76,2.74
182.13,11.55,8.84,11.54,8.83,-8.83,-8.90,-7.82,2.72,2.70,2.71
183.95,11.46,8.80,11.48,8.82,-8.83,-8.90,-7.84,2.63,2.65,2.66
185.79,11.42,8.81,11.42,8.81,-8.82,-8.90,-7.87,2.60,2.60,2.61
187.65,11.38,8.81,11.38,8.81,-8.81,-8.89,-7.90,2.57,2.56,2.57
189.52,11.34,8.81,11.34,8.81,-8.81,-8.89,-7.94,2.53,2.53,2.53
191.42,11.29,8.80,11.29,8.81,-8.81,-8.88,-7.98,2.49,2.49,2.49
193.33,11.25,8.80,11.25,8.80,-8.80,-8.87,-8.03,2.45,2.45,2.45
195.27,11.20,8.80,11.20,8.80,-8.80,-8.87,-8.09,2.40,2.40,2.40
197.22,11.15,8.80,11.15,8.80,-8.79,-8.86,-8.15,2.36,2.36,2.35
199.19,11.10,8.78,11.10,8.79,-8.78,-8.85,-8.21,2.32,2.32,2.32
201.18,11.06,8.78,11.06,8.78,-8.77,-8.83,-8.28,2.29,2.28,2.28
203.19,11.01,8.76,11.01,8.76,-8.76,-8.82,-8.34,2.25,2.25,2.25
205.23,10.97,8.74,10.97,8.74,-8.75,-8.81,-8.42,2.22,2.21,2.23
207.28,10.92,8.72,10.93,8.73,-8.74,-8.79,-8.50,2.18,2.19,2.20
209.35,10.89,8.73,10.89,8.73,-8.73,-8.77,-8.57,2.16,2.16,2.16
211.44,10.86,8.73,10.86,8.73,-8.72,-8.76,-8.65,2.14,2.14,2.13
213.56,10.82,8.71,10.82,8.71,-8.71,-8.74,-8.74,2.12,2.11,2.11
215.69,10.78,8.70,10.78,8.70,-8.69,-8.72,-8.82,2.09,2.08,2.08
217.85,10.72,8.67,10.73,8.68,-8.68,-8.69,-8.90,2.04,2.05,2.05
220.03,10.69,8.67,10.69,8.67,-8.67,-8.67,-8.98,2.02,2.02,2.02
222.23,10.65,8.66,10.65,8.65,-8.66,-8.65,-9.05,1.99,1.99,1.99
224.45,10.61,8.63,10.61,8.64,-8.65,-8.62,-9.13,1.96,1.96,1.98
226.70,10.57,8.62,10.58,8.63,-8.64,-8.60,-9.19,1.94,1.94,1.95
228.96,10.56,8.62,10.56,8.62,-8.63,-8.57,-9.26,1.94,1.93,1.94
231.25,10.54,8.62,10.54,8.62,-8.61,-8.54,-9.31,1.93,1.92,1.92
233.57,10.52,8.62,10.52,8.62,-8.60,-8.51,-9.36,1.92,1.91,1.90
235.90,10.48,8.59,10.48,8.60,-8.59,-8.48,-9.40,1.89,1.89,1.89
238.26,10.45,8.59,10.45,8.58,-8.58,-8.45,-9.44,1.87,1.87,1.86
240.64,10.41,8.54,10.42,8.56,-8.56,-8.41,-9.46,1.85,1.85,1.87
243.05,10.39,8.54,10.39,8.54,-8.54,-8.38,-9.47,1.85,1.84,1.85
245.48,10.36,8.52,10.36,8.52,-8.52,-8.34,-9.47,1.84,1.84,1.84
247.93,10.33,8.50,10.33,8.50,-8.50,-8.31,-9.46,1.83,1.84,1.83
250.41,10.31,8.47,10.30,8.47,-8.47,-8.27,-9.43,1.84,1.83,1.84
252.92,10.26,8.43,10.27,8.44,-8.44,-8.23,-9.40,1.82,1.83,1.83
255.45,10.23,8.41,10.23,8.41,-8.40,-8.19,-9.35,1.83,1.83,1.82
258.00,10.19,8.37,10.19,8.37,-8.36,-8.15,-9.29,1.83,1.83,1.82
260.58,10.13,8.31,10.13,8.32,-8.31,-8.10,-9.22,1.82,1.82,1.82
263.19,10.08,8.26,10.07,8.26,-8.26,-8.06,-9.14,1.82,1.82,1.82
265.82,10.00,8.19,10.01,8.20,-8.20,-8.01,-9.05,1.80,1.81,1.81
268.48,9.95,8.14,9.95,8.14,-8.15,-7.97,-8.95,1.81,1.80,1.81
271.16,9.90,8.09,9.89,8.08,-8.09,-7.92,-8.84,1.81,1.80,1.81
273.87,9.81,8.00,9.82,8.02,-8.03,-7.87,-8.73,1.79,1.80,1.81
276.61,9.76,7.95,9.76,7.96,-7.96,-7.83,-8.60,1.80,1.80,1.81
279.38,9.70,7.91,9.70,7.90,-7.90,-7.78,-8.48,1.80,1.80,1.79
282.17,9.64,7.85,9.64,7.84,-7.83,-7.72,-8.34,1.81,1.81,1.79
284.99,9.57,7.77,9.57,7.77,-7.76,-7.67,-8.21,1.81,1.81,1.80
287.84,9.49,7.68,9.49,7.69,-7.69,-7.62,-8.07,1.80,1.80,1.81
290.72,9.41,7.61,9.41,7.61,-7.62,-7.57,-7.93,1.79,1.80,1.80
293.63,9.34,7.53,9.34,7.54,-7.54,-7.51,-7.79,1.80,1.80,1.81
296.57,9.28,7.46,9.28,7.46,-7.47,-7.46,-7.64,1.82,1.82,1.82
299.53,9.22,7.40,9.22,7.39,-7.39,-7.40,-7.50,1.83,1.82,1.82
302.53,9.15,7.31,9.15,7.32,-7.32,-7.34,-7.36,1.83,1.83,1.84
305.55,9.07,7.24,9.08,7.24,-7.25,-7.28,-7.22,1.82,1.83,1.83
308.61,9.01,7.17,9.02,7.18,-7.18,-7.22,-7.08,1.83,1.83,1.84
311.69,8.96,7.11,8.96,7.12,-7.11,-7.16,-6.95,1.85,1.85,1.85
314.81,8.91,7.06,8.90,7.05,-7.04,-7.10,-6.82,1.87,1.86,1.85
317.96,8.84,6.98,8.84,6.98,-6.97,-7.04,-6.69,1.87,1.87,1.86
321.14,8.76,6.89,8.77,6.90,-6.89,-6.98,-6.56,1.87,1.87,1.87
324.35,8.69,6.82,8.69,6.81,-6.82,-6.92,-6.44,1.87,1.87,1.87
327.59,8.62,6.72,8.62,6.74,-6.74,-6.85,-6.32,1.88,1.88,1.90
330.87,8.56,6.67,8.55,6.66,-6.66,-6.79,-6.20,1.90,1.89,1.89
334.18,8.48,6.58,8.48,6.58,-6.58,-6.72,-6.09,1.90,1.90,1.90
337.52,8.40,6.50,8.41,6.51,-6.50,-6.66,-5.98,1.90,1.91,1.90
340.90,8.35,6.43,8.34,6.43,-6.43,-6.59,-5.88,1.93,1.92,1.92
344.30,8.28,6.35,8.28,6.35,-6.35,-6.52,-5.78,1.93,1.93,1.93
347.75,8.20,6.27,8.20,6.27,-6.27,-6.45,-5.68,1.93,1.93,1.93
351.23,8.12,6.19,8.12,6.18,-6.19,-6.38,-5.59,1.93,1.93,1.93
354.74,8.05,6.09,8.05,6.11,-6.11,-6.31,-5.50,1.94,1.94,1.96
358.28,7.98,6.03,7.99,6.03,-6.03,-6.24,-5.42,1.95,1.95,1.95
361.87,7.93,5.97,7.92,5.96,-5.96,-6.17,-5.34,1.97,1.96,1.96
365.49,7.85,5.88,7.85,5.88,-5.88,-6.10,-5.27,1.97,1.97,1.97
369.14,7.78,5.79,7.78,5.80,-5.80,-6.03,-5.20,1.98,1.98,1.99
372.83,7.71,5.72,7.71,5.73,-5.73,-5.95,-5.13,1.98,1.99,1.99
376.56,7.65,5.66,7.65,5.65,-5.65,-5.88,-5.07,2.00,2.00,1.99
380.33,7.58,5.58,7.58,5.58,-5.57,-5.80,-5.01,2.01,2.01,2.00
384.13,7.51,5.49,7.51,5.50,-5.50,-5.73,-4.95,2.01,2.01,2.02
387.97,7.44,5.42,7.44,5.42,-5.42,-5.65,-4.90,2.02,2.02,2.02
391.85,7.37,5.34,7.37,5.35,-5.35,-5.58,-4.85,2.03,2.03,2.03
395.77,7.31,5.27,7.31,5.27,-5.27,-5.50,-4.80,2.04,2.04,2.04
399.73,7.25,5.20,7.25,5.19,-5.20,-5.42,-4.76,2.06,2.05,2.05
403.72,7.19,5.11,7.19,5.12,-5.12,-5.35,-4.72,2.07,2.07,2.08
407.76,7.12,5.05,7.13,5.05,-5.05,-5.27,-4.68,2.07,2.08,2.07
411.84,7.06,4.98,7.06,4.98,-4.98,-5.19,-4.64,2.09,2.08,2.08
415.96,7.00,4.90,7.00,4.91,-4.91,-5.11,-4.61,2.10,2.09,2.10
420.12,6.93,4.83,6.94,4.84,-4.84,-5.03,-4.57,2.09,2.10,2.10
424.32,6.88,4.77,6.88,4.76,-4.77,-4.95,-4.54,2.11,2.11,2.11
428.56,6.83,4.70,6.83,4.70,-4.71,-4.87,-4.51,2.12,2.12,2.13
432.85,6.77,4.63,6.77,4.64,-4.64,-4.79,-4.48,2.13,2.13,2.14
437.18,6.72,4.59,6.72,4.58,-4.58,-4.71,-4.45,2.14,2.14,2.13
441.55,6.66,4.52,6.66,4.52,-4.52,-4.63,-4.42,2.14,2.14,2.14
445.96,6.60,4.45,6.60,4.46,-4.45,-4.54,-4.38,2.15,2.15,2.15
450.42,6.55,4.39,6.55,4.39,-4.39,-4.46,-4.35,2.16,2.16,2.16
454.93,6.50,4.33,6.50,4.33,-4.33,-4.38,-4.32,2.18,2.17,2.17
459.48,6.45,4.27,6.45,4.26,-4.26,-4.29,-4.28,2.19,2.19,2.18
464.07,6.39,4.19,6.39,4.19,-4.20,-4.21,-4.24,2.19,2.19,2.20
468.71,6.33,4.12,6.33,4.13,-4.13,-4.13,-4.20,2.20,2.20,2.21
473.40,6.27,4.06,6.28,4.06,-4.07,-4.04,-4.16,2.20,2.20,2.21
478.13,6.23,4.01,6.23,4.01,-4.01,-3.96,-4.12,2.22,2.22,2.22
482.91,6.18,3.95,6.18,3.95,-3.95,-3.87,-4.07,2.23,2.23,2.23
