frequency,raw,error,smoothed,error_smoothed,equalization,parametric_eq,fixed_band_eq,equalized_raw,equalized_smoothed,target
20.00,12.67,0.38,12.67,0.38,-0.38,-0.67,-0.48,12.29,12.29,12.29
20.20,12.69,0.41,12.69,0.41,-0.41,-0.68,-0.50,12.28,12.28,12.28
20.40,12.70,0.43,12.70,0.44,-0.44,-0.69,-0.51,12.26,12.27,12.27
20.61,12.72,0.46,12.72,0.47,-0.47,-0.71,-0.53,12.25,12.25,12.26
20.81,12.74,0.50,12.74,0.50,-0.50,-0.72,-0.54,12.24,12.24,12.24
21.02,12.75,0.53,12.76,0.53,-0.53,-0.73,-0.56,12.22,12.23,12.23
21.23,12.77,0.56,12.78,0.55,-0.55,-0.75,-0.57,12.22,12.22,12.21
21.44,12.79,0.57,12.79,0.58,-0.58,-0.76,-0.59,12.21,12.21,12.22
21.66,12.81,0.61,12.81,0.61,-0.61,-0.77,-0.61,12.20,12.20,12.20
21.87,12.83,0.63,12.83,0.64,-0.64,-0.79,-0.62,12.19,12.19,12.20
22.09,12.85,0.67,12.85,0.66,-0.66,-0.80,-0.64,12.19,12.18,12.18
22.31,12.87,0.69,12.87,0.69,-0.69,-0.82,-0.66,12.18,12.18,12.18
22.54,12.88,0.71,12.88,0.71,-0.71,-0.83,-0.68,12.17,12.17,12.17
22.76,12.90,0.73,12.90,0.74,-0.74,-0.85,-0.70,12.16,12.16,12.17
22.99,12.92,0.76,12.92,0.76,-0.76,-0.86,-0.72,12.16,12.16,12.16
23.22,12.94,0.80,12.94,0.79,-0.79,-0.88,-0.74,12.15,12.15,12.15
23.45,12.96,0.81,12.96,0.81,-0.81,-0.89,-0.76,12.15,12.15,12.15
23.69,12.98,0.84,12.98,0.83,-0.83,-0.91,-0.78,12.15,12.14,12.14
23.92,12.99,0.86,12.99,0.86,-0.86,-0.93,-0.80,12.14,12.14,12.13
24.16,13.01,0.87,13.01,0.88,-0.88,-0.94,-0.83,12.14,12.14,12.14
24.40,13.03,0.89,13.03,0.90,-0.90,-0.96,-0.85,12.13,12.13,12.14
24.65,13.05,0.91,13.05,0.92,-0.92,-0.98,-0.87,12.13,12.13,12.14
24.89,13.06,0.93,13.06,0.94,-0.94,-0.99,-0.90,12.12,12.13,12.13
25.14,13.08,0.96,13.08,0.96,-0.96,-1.01,-0.92,12.12,12.13,12.12
25.39,13.10,0.98,13.10,0.98,-0.98,-1.03,-0.95,12.12,12.12,12.12
25.65,13.12,1.00,13.12,1.00,-1.00,-1.05,-0.97,12.13,12.12,12.12
25.91,13.13,1.01,13.14,1.01,-1.01,-1.07,-1.00,12.12,12.12,12.12
26.16,13.15,1.03,13.15,1.03,-1.03,-1.09,-1.02,12.12,12.12,12.13
26.43,13.17,1.05,13.17,1.05,-1.05,-1.11,-1.05,12.12,12.12,12.12
26.69,13.19,1.07,13.19,1.07,-1.07,-1.12,-1.08,12.12,12.12,12.12
26.96,13.21,1.09,13.21,1.09,-1.09,-1.14,-1.10,12.12,12.12,12.12
27.23,13.22,1.10,13.22,1.10,-1.10,-1.16,-1.13,12.12,12.12,12.12
27.50,13.24,1.13,13.24,1.12,-1.12,-1.18,-1.16,12.12,12.12,12.11
27.77,13.26,1.14,13.26,1.13,-1.13,-1.21,-1.18,12.13,12.12,12.12
28.05,13.27,1.15,13.27,1.15,-1.15,-1.23,-1.21,12.12,12.12,12.12
28.33,13.29,1.16,13.29,1.17,-1.17,-1.25,-1.24,12.12,12.12,12.13
28.62,13.30,1.18,13.31,1.18,-1.18,-1.27,-1.26,12.12,12.12,12.12
28.90,13.32,1.19,13.32,1.20,-1.20,-1.29,-1.29,12.12,12.12,12.13
29.19,13.33,1.20,13.34,1.22,-1.22,-1.31,-1.32,12.11,12.12,12.13
29.48,13.35,1.23,13.35,1.23,-1.23,-1.34,-1.34,12.12,12.12,12.12
29.78,13.37,1.25,13.37,1.25,-1.25,-1.36,-1.37,12.12,12.12,12.12
30.08,13.38,1.26,13.38,1.27,-1.27,-1.38,-1.39,12.11,12.11,12.12
30.38,13.40,1.30,13.39,1.28,-1.28,-1.40,-1.42,12.12,12.11,12.10
30.68,13.41,1.31,13.40,1.30,-1.30,-1.43,-1.44,12.11,12.10,12.10
30.99,13.42,1.32,13.42,1.32,-1.32,-1.45,-1.46,12.10,12.10,12.10
31.30,13.43,1.34,13.43,1.34,-1.34,-1.48,-1.49,12.09,12.09,12.09
31.61,13.44,1.35,13.44,1.36,-1.36,-1.50,-1.51,12.08,12.08,12.09
31.93,13.45,1.39,13.45,1.38,-1.38,-1.53,-1.53,12.07,12.07,12.06
32.24,13.46,1.39,13.46,1.40,-1.40,-1.55,-1.55,12.06,12.07,12.07
32.57,13.47,1.42,13.47,1.42,-1.42,-1.58,-1.58,12.05,12.06,12.05
32.89,13.48,1.43,13.48,1.43,-1.43,-1.60,-1.60,12.05,12.05,12.05
33.22,13.49,1.45,13.50,1.45,-1.45,-1.63,-1.62,12.04,12.04,12.04
33.55,13.51,1.47,13.51,1.48,-1.48,-1.66,-1.64,12.04,12.03,12.04
33.89,13.52,1.50,13.52,1.50,-1.50,-1.68,-1.66,12.02,12.03,12.02
34.23,13.54,1.53,13.54,1.52,-1.52,-1.71,-1.68,12.02,12.02,12.01
34.57,13.55,1.55,13.55,1.55,-1.55,-1.74,-1.70,12.00,12.01,12.00
34.92,13.57,1.59,13.57,1.57,-1.57,-1.77,-1.72,12.00,11.99,11.99
35.27,13.58,1.58,13.59,1.60,-1.60,-1.80,-1.74,11.98,11.98,12.00
35.62,13.60,1.63,13.60,1.63,-1.63,-1.83,-1.76,11.97,11.97,11.97
35.97,13.62,1.66,13.62,1.67,-1.67,-1.86,-1.79,11.96,11.96,11.97
36.33,13.64,1.69,13.64,1.70,-1.70,-1.89,-1.81,11.94,11.94,11.95
36.70,13.66,1.74,13.66,1.74,-1.74,-1.92,-1.83,11.92,11.92,11.92
37.06,13.67,1.77,13.68,1.78,-1.78,-1.95,-1.85,11.90,11.90,11.90
37.43,13.70,1.82,13.70,1.81,-1.81,-1.98,-1.88,11.89,11.88,11.88
37.81,13.72,1.85,13.72,1.86,-1.86,-2.01,-1.90,11.87,11.86,11.87
38.19,13.74,1.90,13.74,1.90,-1.90,-2.04,-1.93,11.84,11.84,11.84
38.57,13.76,1.94,13.76,1.94,-1.94,-2.07,-1.96,11.82,11.82,11.82
38.95,13.78,1.98,13.78,1.99,-1.99,-2.10,-1.98,11.79,11.80,11.80
39.34,13.80,2.03,13.80,2.03,-2.03,-2.14,-2.01,11.77,11.77,11.77
39.74,13.82,2.08,13.82,2.08,-2.08,-2.17,-2.04,11.74,11.75,11.74
40.14,13.84,2.12,13.84,2.12,-2.12,-2.20,-2.08,11.72,11.72,11.72
40.54,13.86,2.16,13.86,2.16,-2.16,-2.24,-2.11,11.70,11.70,11.70
40.94,13.88,2.21,13.88,2.21,-2.21,-2.27,-2.14,11.68,11.67,11.67
41.35,13.89,2.25,13.89,2.25,-2.25,-2.31,-2.18,11.64,11.65,11.65
41.76,13.91,2.30,13.91,2.29,-2.29,-2.34,-2.22,11.63,11.62,11.61
42.18,13.93,2.33,13.92,2.33,-2.33,-2.38,-2.26,11.61,11.60,11.60
42.60,13.94,2.37,13.93,2.36,-2.36,-2.41,-2.30,11.58,11.57,11.57
43.03,13.95,2.41,13.95,2.40,-2.40,-2.45,-2.34,11.55,11.54,11.54
43.46,13.95,2.44,13.96,2.44,-2.44,-2.48,-2.39,11.51,11.51,11.51
43.90,13.96,2.48,13.97,2.48,-2.48,-2.52,-2.43,11.48,11.48,11.49
44.33,13.97,2.52,13.98,2.52,-2.52,-2.56,-2.48,11.45,11.45,11.45
44.78,13.98,2.56,13.98,2.56,-2.56,-2.60,-2.53,11.42,11.42,11.42
45.23,13.98,2.58,13.99,2.60,-2.60,-2.63,-2.58,11.38,11.39,11.40
45.68,13.99,2.64,14.00,2.65,-2.65,-2.67,-2.64,11.34,11.35,11.35
46.13,14.00,2.69,14.00,2.69,-2.69,-2.71,-2.69,11.31,11.31,11.31
46.60,14.01,2.73,14.01,2.73,-2.73,-2.75,-2.75,11.28,11.27,11.28
47.06,14.02,2.78,14.01,2.78,-2.78,-2.79,-2.80,11.24,11.23,11.24
47.53,14.02,2.82,14.01,2.83,-2.83,-2.83,-2.86,11.19,11.19,11.20
48.01,14.02,2.88,14.02,2.87,-2.87,-2.87,-2.93,11.15,11.14,11.14
48.49,14.02,2.92,14.02,2.92,-2.92,-2.91,-2.99,11.10,11.10,11.10
48.97,14.02,2.97,14.02,2.96,-2.96,-2.95,-3.05,11.06,11.05,11.05
49.46,14.02,3.02,14.02,3.01,-3.01,-2.99,-3.12,11.01,11.01,11.00
49.96,14.01,3.07,14.01,3.06,-3.06,-3.04,-3.19,10.96,10.96,10.94
50.46,14.01,3.10,14.01,3.10,-3.10,-3.08,-3.25,10.91,10.91,10.91
50.96,14.00,3.14,14.01,3.15,-3.15,-3.12,-3.32,10.86,10.86,10.86
51.47,14.00,3.18,14.01,3.19,-3.19,-3.16,-3.39,10.81,10.82,10.82
51.99,14.00,3.24,14.00,3.23,-3.23,-3.21,-3.46,10.77,10.77,10.76
52.51,14.00,3.27,14.00,3.28,-3.28,-3.25,-3.53,10.72,10.72,10.73
53.03,14.00,3.31,14.00,3.33,-3.33,-3.29,-3.60,10.68,10.68,10.69
53.56,14.00,3.36,14.00,3.37,-3.37,-3.34,-3.68,10.63,10.63,10.64
54.10,14.00,3.42,14.00,3.42,-3.42,-3.38,-3.75,10.59,10.58,10.58
54.64,14.00,3.46,14.00,3.46,-3.46,-3.43,-3.82,10.54,10.54,10.54
55.18,14.00,3.51,14.00,3.50,-3.50,-3.47,-3.88,10.50,10.50,10.49
55.74,14.00,3.57,14.00,3.55,-3.55,-3.52,-3.95,10.45,10.45,10.44
56.29,14.00,3.60,14.00,3.59,-3.59,-3.56,-4.02,10.41,10.41,10.40
56.86,14.00,3.64,14.00,3.64,-3.64,-3.61,-4.08,10.36,10.36,10.36
57.42,14.00,3.70,14.00,3.69,-3.69,-3.66,-4.15,10.31,10.31,10.30
58.00,14.00,3.75,14.00,3.74,-3.74,-3.70,-4.21,10.26,10.26,10.26
58.58,14.00,3.78,14.00,3.79,-3.79,-3.75,-4.26,10.21,10.21,10.22
59.16,14.00,3.82,14.00,3.84,-3.84,-3.80,-4.32,10.16,10.16,10.18
59.76,14.00,3.87,14.00,3.89,-3.89,-3.85,-4.37,10.11,10.10,10.13
60.35,14.00,3.93,14.00,3.95,-3.95,-3.89,-4.42,10.05,10.05,10.07
60.96,14.00,4.00,14.00,4.01,-4.01,-3.94,-4.47,9.99,9.99,10.01
61.57,14.00,4.07,14.00,4.07,-4.07,-3.99,-4.51,9.93,9.93,9.93
62.18,14.00,4.13,14.00,4.13,-4.13,-4.04,-4.55,9.87,9.87,9.87
62.80,14.00,4.20,14.00,4.19,-4.19,-4.09,-4.58,9.81,9.81,9.80
63.43,14.00,4.27,14.01,4.26,-4.26,-4.14,-4.61,9.75,9.75,9.73
64.07,14.00,4.32,14.01,4.32,-4.32,-4.19,-4.64,9.68,9.69,9.68
64.71,14.00,4.38,14.01,4.39,-4.39,-4.24,-4.67,9.61,9.62,9.62
65.35,14.00,4.44,14.01,4.45,-4.45,-4.29,-4.69,9.55,9.56,9.56
66.01,14.01,4.52,14.01,4.52,-4.52,-4.34,-4.71,9.49,9.50,9.49
66.67,14.02,4.58,14.02,4.58,-4.58,-4.39,-4.73,9.44,9.43,9.44
67.33,14.02,4.65,14.01,4.65,-4.65,-4.44,-4.74,9.38,9.37,9.37
68.01,14.02,4.71,14.01,4.71,-4.71,-4.49,-4.75,9.31,9.30,9.31
68.69,14.01,4.77,14.01,4.77,-4.77,-4.55,-4.76,9.25,9.24,9.24
69.37,14.01,4.83,14.00,4.82,-4.82,-4.60,-4.77,9.19,9.17,9.18
70.07,14.00,4.89,13.99,4.88,-4.88,-4.65,-4.78,9.12,9.11,9.12
70.77,13.98,4.94,13.98,4.93,-4.93,-4.70,-4.79,9.05,9.04,9.04
71.48,13.97,4.99,13.96,4.98,-4.98,-4.76,-4.80,8.99,8.98,8.98
72.19,13.94,5.03,13.94,5.03,-5.03,-4.81,-4.81,8.91,8.91,8.91
72.91,13.92,5.09,13.92,5.08,-5.08,-4.86,-4.81,8.84,8.84,8.83
73.64,13.90,5.13,13.90,5.12,-5.12,-4.91,-4.82,8.78,8.77,8.77
74.38,13.87,5.17,13.87,5.17,-5.17,-4.97,-4.83,8.71,8.71,8.70
75.12,13.85,5.21,13.85,5.21,-5.21,-5.02,-4.84,8.64,8.64,8.64
75.87,13.82,5.24,13.83,5.25,-5.25,-5.07,-4.86,8.57,8.58,8.58
76.63,13.80,5.29,13.80,5.29,-5.29,-5.13,-4.87,8.51,8.52,8.51
77.40,13.77,5.32,13.78,5.33,-5.33,-5.18,-4.89,8.44,8.45,8.46
78.17,13.75,5.37,13.76,5.37,-5.37,-5.24,-4.91,8.38,8.39,8.38
78.95,13.73,5.39,13.74,5.41,-5.41,-5.29,-4.93,8.32,8.33,8.34
79.74,13.72,5.45,13.73,5.46,-5.46,-5.34,-4.96,8.26,8.27,8.27
80.54,13.71,5.50,13.71,5.50,-5.50,-5.40,-4.98,8.21,8.21,8.21
81.35,13.69,5.55,13.69,5.55,-5.55,-5.45,-5.01,8.14,8.15,8.14
82.16,13.68,5.59,13.68,5.59,-5.59,-5.51,-5.05,8.09,8.08,8.09
82.98,13.66,5.64,13.66,5.64,-5.64,-5.56,-5.09,8.02,8.02,8.02
83.81,13.64,5.68,13.64,5.69,-5.69,-5.62,-5.13,7.95,7.96,7.96
84.65,13.63,5.74,13.63,5.73,-5.73,-5.67,-5.17,7.90,7.89,7.89
85.50,13.62,5.80,13.61,5.78,-5.78,-5.73,-5.22,7.84,7.83,7.82
86.35,13.60,5.84,13.58,5.82,-5.82,-5.78,-5.28,7.78,7.76,7.76
87.22,13.57,5.88,13.56,5.86,-5.86,-5.83,-5.33,7.71,7.70,7.69
88.09,13.55,5.92,13.53,5.91,-5.91,-5.89,-5.39,7.65,7.63,7.63
88.97,13.51,5.95,13.51,5.95,-5.95,-5.94,-5.46,7.56,7.56,7.56
89.86,13.48,5.99,13.48,5.99,-5.99,-6.00,-5.53,7.49,7.49,7.49
90.76,13.46,6.04,13.45,6.04,-6.04,-6.05,-5.60,7.43,7.42,7.42
91.66,13.43,6.09,13.43,6.09,-6.09,-6.11,-5.68,7.35,7.35,7.34
92.58,13.40,6.12,13.41,6.14,-6.14,-6.16,-5.76,7.26,7.27,7.28
93.51,13.37,6.16,13.39,6.19,-6.19,-6.22,-5.84,7.18,7.20,7.21
94.44,13.35,6.21,13.38,6.25,-6.25,-6.27,-5.93,7.10,7.13,7.14
95.39,13.34,6.29,13.37,6.32,-6.32,-6.33,-6.03,7.03,7.05,7.06
96.34,13.33,6.35,13.36,6.38,-6.38,-6.38,-6.12,6.95,6.98,6.98
97.30,13.33,6.42,13.36,6.45,-6.45,-6.43,-6.22,6.88,6.91,6.91
98.28,13.35,6.53,13.35,6.52,-6.52,-6.49,-6.32,6.83,6.83,6.82
99.26,13.36,6.61,13.35,6.59,-6.59,-6.54,-6.43,6.77,6.76,6.75
100.25,13.37,6.70,13.34,6.66,-6.66,-6.59,-6.54,6.71,6.69,6.68
101.25,13.36,6.75,13.34,6.72,-6.72,-6.65,-6.65,6.64,6.62,6.61
102.27,13.35,6.81,13.33,6.78,-6.78,-6.70,-6.76,6.57,6.55,6.55
103.29,13.34,6.87,13.32,6.84,-6.84,-6.75,-6.88,6.50,6.48,6.47
104.32,13.33,6.93,13.30,6.90,-6.90,-6.81,-7.00,6.43,6.41,6.40
105.37,13.30,6.96,13.28,6.95,-6.95,-6.86,-7.11,6.35,6.34,6.34
106.42,13.27,7.00,13.26,6.99,-6.99,-6.91,-7.23,6.28,6.27,6.27
107.48,13.24,7.04,13.24,7.04,-7.04,-6.96,-7.35,6.20,6.20,6.20
108.56,13.20,7.07,13.21,7.08,-7.08,-7.01,-7.47,6.12,6.13,6.13
109.64,13.16,7.09,13.18,7.12,-7.12,-7.06,-7.58,6.04,6.06,6.07
110.74,13.13,7.14,13.15,7.16,-7.16,-7.12,-7.70,5.97,5.99,5.99
111.85,13.10,7.18,13.12,7.21,-7.21,-7.17,-7.81,5.90,5.92,5.92
112.97,13.08,7.23,13.09,7.25,-7.25,-7.22,-7.91,5.83,5.84,5.85
114.10,13.06,7.28,13.07,7.29,-7.29,-7.27,-8.02,5.77,5.77,5.78
115.24,13.03,7.33,13.04,7.34,-7.34,-7.31,-8.11,5.69,5.70,5.70
116.39,13.02,7.40,13.02,7.38,-7.38,-7.36,-8.20,5.64,5.63,5.62
117.55,13.00,7.45,13.00,7.43,-7.43,-7.41,-8.29,5.57,5.56,5.55
118.73,12.98,7.50,12.97,7.48,-7.48,-7.46,-8.36,5.50,5.49,5.48
119.92,12.95,7.53,12.95,7.53,-7.53,-7.51,-8.43,5.42,5.42,5.42
121.12,12.93,7.58,12.93,7.57,-7.57,-7.55,-8.49,5.36,5.35,5.36
122.33,12.90,7.62,12.90,7.62,-7.62,-7.60,-8.54,5.29,5.28,5.29
123.55,12.88,7.65,12.87,7.66,-7.66,-7.65,-8.58,5.22,5.22,5.23
124.79,12.85,7.69,12.84,7.69,-7.69,-7.69,-8.61,5.16,5.15,5.16
126.03,12.82,7.73,12.81,7.73,-7.73,-7.73,-8.64,5.09,5.08,5.09
127.29,12.79,7.77,12.78,7.77,-7.77,-7.78,-8.65,5.02,5.01,5.02
128.57,12.76,7.81,12.75,7.80,-7.80,-7.82,-8.65,4.96,4.95,4.95
129.85,12.72,7.84,12.72,7.84,-7.84,-7.86,-8.64,4.88,4.88,4.88
131.15,12.67,7.86,12.69,7.87,-7.87,-7.91,-8.63,4.80,4.81,4.81
132.46,12.64,7.90,12.65,7.91,-7.91,-7.95,-8.61,4.73,4.74,4.74
133.79,12.60,7.93,12.62,7.94,-7.94,-7.99,-8.57,4.66,4.68,4.67
135.12,12.57,7.96,12.59,7.98,-7.98,-8.03,-8.54,4.59,4.61,4.61
136.48,12.55,8.00,12.56,8.01,-8.01,-8.07,-8.49,4.54,4.55,4.55
137.84,12.52,8.04,12.52,8.04,-8.04,-8.10,-8.44,4.48,4.48,4.48
139.22,12.51,8.10,12.49,8.07,-8.07,-8.14,-8.39,4.44,4.42,4.41
140.61,12.48,8.12,12.46,8.10,-8.10,-8.18,-8.33,4.38,4.36,4.36
142.02,12.43,8.14,12.43,8.13,-8.13,-8.21,-8.27,4.30,4.30,4.29
143.44,12.41,8.17,12.40,8.16,-8.16,-8.25,-8.21,4.25,4.24,4.24
144.87,12.37,8.19,12.37,8.19,-8.19,-8.28,-8.15,4.18,4.18,4.18
146.32,12.33,8.21,12.34,8.22,-8.22,-8.31,-8.09,4.12,4.13,4.12
147.78,12.29,8.22,12.31,8.24,-8.24,-8.35,-8.02,4.05,4.07,4.07
149.26,12.27,8.26,12.28,8.27,-8.27,-8.38,-7.96,4.00,4.01,4.01
150.75,12.24,8.29,12.25,8.29,-8.29,-8.41,-7.90,3.95,3.96,3.96
152.26,12.22,8.31,12.22,8.31,-8.31,-8.43,-7.84,3.91,3.90,3.91
153.78,12.19,8.34,12.19,8.34,-8.34,-8.46,-7.79,3.85,3.85,3.85
155.32,12.17,8.37,12.16,8.37,-8.37,-8.49,-7.73,3.81,3.80,3.80
156.88,12.14,8.39,12.13,8.39,-8.39,-8.51,-7.69,3.75,3.74,3.75
158.44,12.11,8.43,12.11,8.42,-8.42,-8.54,-7.64,3.69,3.69,3.68
160.03,12.07,8.44,12.08,8.45,-8.45,-8.56,-7.60,3.62,3.63,3.63
161.63,12.04,8.47,12.05,8.48,-8.48,-8.58,-7.56,3.56,3.57,3.58
163.24,12.01,8.49,12.02,8.50,-8.50,-8.61,-7.53,3.51,3.52,3.52
164.88,11.98,8.52,11.99,8.53,-8.53,-8.63,-7.50,3.45,3.46,3.46
166.53,11.96,8.56,11.96,8.55,-8.55,-8.64,-7.48,3.41,3.40,3.40
168.19,11.94,8.59,11.92,8.57,-8.57,-8.66,-7.46,3.37,3.35,3.35
169.87,11.90,8.61,11.88,8.59,-8.59,-8.68,-7.45,3.31,3.29,3.29
171.57,11.85,8.62,11.84,8.60,-8.60,-8.69,-7.44,3.25,3.23,3.23
173.29,11.81,8.63,11.79,8.62,-8.62,-8.71,-7.44,3.20,3.18,3.18
175.02,11.74,8.62,11.75,8.63,-8.63,-8.72,-7.44,3.11,3.12,3.12
176.77,11.70,8.64,11.70,8.63,-8.63,-8.73,-7.45,3.07,3.06,3.06
178.54,11.65,8.64,11.65,8.64,-8.64,-8.74,-7.47,3.01,3.01,3.01
180.32,11.60,8.66,11.60,8.65,-8.65,-8.75,-7.49,2.96,2.95,2.94
182.13,11.55,8.65,11.55,8.65,-8.65,-8.76,-7.51,2.90,2.90,2.90
183.95,11.46,8.61,11.49,8.65,-8.65,-8.76,-7.54,2.81,2.84,2.85
185.79,11.42,8.64,11.44,8.65,-8.65,-8.77,-7.58,2.77,2.79,2.79
187.65,11.38,8.65,11.39,8.65,-8.65,-8.77,-7.62,2.73,2.74,2.74
189.52,11.34,8.65,11.34,8.65,-8.65,-8.77,-7.67,2.69,2.68,2.69
191.42,11.29,8.65,11.29,8.65,-8.65,-8.77,-7.72,2.64,2.63,2.64
193.33,11.25,8.66,11.24,8.65,-8.65,-8.77,-7.78,2.60,2.59,2.59
195.27,11.20,8.67,11.19,8.66,-8.66,-8.77,-7.84,2.55,2.54,2.54
197.22,11.15,8.67,11.15,8.65,-8.65,-8.76,-7.91,2.50,2.49,2.48
199.19,11.10,8.65,11.10,8.65,-8.65,-8.76,-7.98,2.45,2.45,2.45
201.18,11.06,8.67,11.06,8.65,-8.65,-8.75,-8.05,2.41,2.41,2.39
203.19,11.01,8.65,11.02,8.65,-8.65,-8.74,-8.13,2.36,2.37,2.36
205.23,10.97,8.64,10.98,8.65,-8.65,-8.73,-8.21,2.32,2.33,2.33
207.28,10.92,8.63,10.93,8.64,-8.64,-8.72,-8.29,2.28,2.29,2.29
209.35,10.89,8.64,10.89,8.64,-8.64,-8.71,-8.38,2.25,2.25,2.25
211.44,10.86,8.65,10.85,8.63,-8.63,-8.70,-8.47,2.23,2.21,2.22
213.56,10.82,8.63,10.81,8.63,-8.63,-8.68,-8.55,2.20,2.18,2.19
215.69,10.78,8.63,10.77,8.62,-8.62,-8.67,-8.64,2.16,2.15,2.15
217.85,10.72,8.60,10.73,8.62,-8.62,-8.65,-8.73,2.10,2.12,2.12
220.03,10.69,8.61,10.70,8.61,-8.61,-8.63,-8.81,2.08,2.08,2.08
222.23,10.65,8.60,10.66,8.61,-8.61,-8.61,-8.90,2.05,2.06,2.05
224.45,10.61,8.59,10.63,8.60,-8.60,-8.59,-8.98,2.01,2.03,2.03
226.70,10.57,8.58,10.60,8.60,-8.60,-8.56,-9.05,1.97,2.00,1.99
228.96,10.56,8.58,10.56,8.59,-8.59,-8.54,-9.12,1.97,1.97,1.98
231.25,10.54,8.59,10.53,8.58,-8.58,-8.51,-9.18,1.96,1.95,1.95
233.57,10.52,8.59,10.51,8.57,-8.57,-8.49,-9.24,1.95,1.93,1.93
235.90,10.48,8.57,10.48,8.57,-8.57,-8.46,-9.29,1.92,1.91,1.91
238.26,10.45,8.57,10.45,8.56,-8.56,-8.43,-9.32,1.89,1.89,1.88
240.64,10.41,8.53,10.42,8.54,-8.54,-8.40,-9.35,1.87,1.88,1.88
243.05,10.39,8.52,10.40,8.53,-8.53,-8.36,-9.37,1.86,1.87,1.87
245.48,10.36,8.51,10.37,8.51,-8.51,-8.33,-9.37,1.85,1.85,1.85
247.93,10.33,8.50,10.33,8.49,-8.49,-8.29,-9.37,1.84,1.84,1.83
250.41,10.31,8.47,10.30,8.46,-8.46,-8.26,-9.35,1.85,1.84,1.84
252.92,10.26,8.43,10.26,8.43,-8.43,-8.22,-9.32,1.83,1.83,1.83
255.45,10.23,8.41,10.21,8.39,-8.39,-8.18,-9.28,1.84,1.82,1.82
258.00,10.19,8.38,10.17,8.36,-8.36,-8.14,-9.22,1.83,1.81,1.81
260.58,10.13,8.32,10.12,8.31,-8.31,-8.10,-9.16,1.82,1.81,1.81
263.19,10.08,8.27,10.07,8.27,-8.27,-8.06,-9.08,1.81,1.80,1.81
265.82,10.00,8.21,10.01,8.22,-8.22,-8.01,-8.99,1.78,1.79,1.79
268.48,9.95,8.16,9.96,8.17,-8.17,-7.97,-8.90,1.78,1.79,1.79
271.16,9.90,8.11,9.89,8.11,-8.11,-7.92,-8.80,1.79,1.78,1.79
273.87,9.81,8.03,9.83,8.05,-8.05,-7.88,-8.68,1.76,1.78,1.78
276.61,9.76,7.98,9.76,7.99,-7.99,-7.83,-8.57,1.77,1.77,1.78
279.38,9.70,7.94,9.70,7.93,-7.93,-7.78,-8.44,1.78,1.77,1.76
282.17,9.64,7.88,9.63,7.86,-7.86,-7.73,-8.32,1.78,1.77,1.76
284.99,9.57,7.80,9.56,7.79,-7.79,-7.68,-8.18,1.78,1.77,1.77
287.84,9.49,7.72,9.49,7.72,-7.72,-7.62,-8.05,1.77,1.77,1.77
290.72,9.41,7.65,9.42,7.66,-7.66,-7.57,-7.91,1.76,1.77,1.76
293.63,9.34,7.57,9.36,7.59,-7.59,-7.52,-7.78,1.75,1.77,1.77
296.57,9.28,7.51,9.29,7.52,-7.52,-7.46,-7.64,1.76,1.77,1.77
299.53,9.22,7.45,9.22,7.45,-7.45,-7.40,-7.50,1.77,1.77,1.77
302.53,9.15,7.37,9.16,7.38,-7.38,-7.35,-7.37,1.77,1.78,1.79
305.55,9.07,7.29,9.09,7.31,-7.31,-7.29,-7.23,1.76,1.78,1.78
308.61,9.01,7.22,9.02,7.23,-7.23,-7.23,-7.10,1.78,1.79,1.79
311.69,8.96,7.17,8.96,7.16,-7.16,-7.17,-6.97,1.80,1.79,1.79
314.81,8.91,7.11,8.89,7.09,-7.09,-7.11,-6.84,1.82,1.80,1.80
317.96,8.84,7.04,8.82,7.02,-7.02,-7.05,-6.71,1.82,1.80,1.80
321.14,8.76,6.95,8.76,6.95,-6.95,-6.98,-6.59,1.81,1.81,1.81
324.35,8.69,6.88,8.69,6.87,-6.87,-6.92,-6.48,1.82,1.82,1.81
327.59,8.62,6.79,8.62,6.80,-6.80,-6.86,-6.36,1.82,1.82,1.83
330.87,8.56,6.73,8.55,6.73,-6.73,-6.79,-6.25,1.84,1.83,1.83
334.18,8.48,6.65,8.48,6.65,-6.65,-6.73,-6.14,1.83,1.83,1.83
337.52,8.40,6.56,8.41,6.57,-6.57,-6.66,-6.04,1.83,1.84,1.84
340.90,8.35,6.50,8.34,6.50,-6.50,-6.59,-5.94,1.86,1.85,1.85
344.30,8.28,6.42,8.27,6.42,-6.42,-6.53,-5.85,1.86,1.85,1.86
347.75,8.20,6.34,8.20,6.34,-6.34,-6.46,-5.76,1.86,1.86,1.86
351.23,8.12,6.26,8.13,6.26,-6.26,-6.39,-5.68,1.86,1.87,1.86
354.74,8.05,6.17,8.06,6.19,-6.19,-6.32,-5.59,1.87,1.87,1.88
358.28,7.98,6.10,7.99,6.11,-6.11,-6.25,-5.52,1.87,1.88,1.88
361.87,7.93,6.05,7.92,6.03,-6.03,-6.18,-5.45,1.90,1.89,1.89
365.49,7.85,5.96,7.85,5.96,-5.96,-6.10,-5.38,1.89,1.89,1.89
369.14,7.78,5.87,7.78,5.88,-5.88,-6.03,-5.31,1.90,1.90,1.91
372.83,7.71,5.80,7.71,5.80,-5.80,-5.96,-5.25,1.91,1.91,1.91
376.56,7.65,5.74,7.65,5.73,-5.73,-5.88,-5.19,1.92,1.92,1.91
380.33,7.58,5.66,7.58,5.65,-5.65,-5.81,-5.14,1.93,1.93,1.92
384.13,7.51,5.58,7.51,5.58,-5.58,-5.74,-5.09,1.93,1.93,1.93
387.97,7.44,5.50,7.44,5.50,-5.50,-5.66,-5.05,1.94,1.94,1.94
391.85,7.37,5.42,7.38,5.43,-5.43,-5.59,-5.00,1.94,1.95,1.95
395.77,7.31,5.35,7.31,5.35,-5.35,-5.51,-4.96,1.96,1.96,1.96
399.73,7.25,5.29,7.25,5.28,-5.28,-5.43,-4.93,1.97,1.97,1.96
403.72,7.19,5.20,7.18,5.21,-5.21,-5.35,-4.89,1.99,1.98,1.99
407.76,7.12,5.13,7.12,5.13,-5.13,-5.28,-4.86,1.99,1.99,1.99
411.84,7.06,5.06,7.06,5.06,-5.06,-5.20,-4.83,2.00,2.00,2.00
415.96,7.00,4.99,7.00,5.00,-5.00,-5.12,-4.80,2.00,2.01,2.01
420.12,6.93,4.92,6.94,4.93,-4.93,-5.04,-4.77,2.00,2.01,2.01
424.32,6.88,4.86,6.89,4.86,-4.86,-4.96,-4.75,2.02,2.02,2.02
428.56,6.83,4.79,6.83,4.80,-4.80,-4.88,-4.72,2.03,2.03,2.04
432.85,6.77,4.73,6.77,4.73,-4.73,-4.80,-4.70,2.04,2.04,2.05
437.18,6.72,4.68,6.71,4.67,-4.67,-4.72,-4.68,2.05,2.05,2.04
441.55,6.66,4.61,6.66,4.60,-4.60,-4.64,-4.65,2.06,2.06,2.05
445.96,6.60,4.54,6.60,4.54,-4.54,-4.56,-4.62,2.06,2.06,2.06
450.42,6.55,4.48,6.55,4.48,-4.48,-4.48,-4.60,2.07,2.07,2.07
454.93,6.50,4.42,6.50,4.42,-4.42,-4.39,-4.57,2.09,2.08,2.08
459.48,6.45,4.37,6.44,4.35,-4.35,-4.31,-4.54,2.10,2.09,2.09
464.07,6.39,4.29,6.39,4.29,-4.29,-4.23,-4.51,2.10,2.10,2.10
468.71,6.33,4.22,6.34,4.23,-4.23,-4.15,-4.47,2.10,2.11,2.11
473.40,6.27,4.15,6.29,4.17,-4.17,-4.06,-4.43,2.10,2.12,2.12
