frequency,raw,error,smoothed,error_smoothed,equalization,parametric_eq,fixed_band_eq,equalized_raw,equalized_smoothed,target
20.00,13.89,3.59,13.79,3.48,-3.48,-3.62,-1.06,10.41,10.31,10.31
20.20,13.83,3.54,13.78,3.48,-3.48,-3.60,-1.09,10.35,10.30,10.30
20.40,13.77,3.49,13.76,3.47,-3.47,-3.57,-1.12,10.30,10.29,10.29
20.61,13.71,3.43,13.75,3.47,-3.47,-3.55,-1.15,10.25,10.28,10.29
20.81,13.65,3.39,13.73,3.46,-3.46,-3.52,-1.19,10.19,10.27,10.27
21.02,13.59,3.33,13.71,3.45,-3.45,-3.50,-1.23,10.14,10.26,10.27
21.23,13.62,3.37,13.70,3.44,-3.44,-3.47,-1.26,10.18,10.26,10.26
21.44,13.64,3.38,13.68,3.43,-3.43,-3.44,-1.30,10.22,10.25,10.27
21.66,13.66,3.41,13.66,3.41,-3.41,-3.41,-1.34,10.25,10.24,10.26
21.87,13.69,3.45,13.64,3.40,-3.40,-3.38,-1.38,10.29,10.24,10.25
22.09,13.68,3.45,13.61,3.38,-3.38,-3.36,-1.42,10.30,10.23,10.24
22.31,13.63,3.40,13.59,3.37,-3.37,-3.33,-1.46,10.27,10.23,10.24
22.54,13.58,3.36,13.58,3.36,-3.36,-3.30,-1.51,10.22,10.22,10.23
22.76,13.52,3.31,13.57,3.35,-3.35,-3.27,-1.55,10.17,10.22,10.22
22.99,13.47,3.27,13.54,3.33,-3.33,-3.24,-1.60,10.14,10.21,10.21
23.22,13.48,3.29,13.52,3.31,-3.31,-3.21,-1.65,10.18,10.21,10.20
23.45,13.48,3.28,13.49,3.28,-3.28,-3.18,-1.69,10.20,10.21,10.21
23.69,13.49,3.30,13.45,3.25,-3.25,-3.15,-1.74,10.25,10.20,10.20
23.92,13.50,3.31,13.42,3.22,-3.22,-3.12,-1.79,10.29,10.20,10.20
24.16,13.45,3.25,13.39,3.18,-3.18,-3.09,-1.84,10.27,10.20,10.21
24.40,13.37,3.16,13.36,3.15,-3.15,-3.06,-1.89,10.22,10.20,10.22
24.65,13.28,3.07,13.33,3.13,-3.13,-3.03,-1.95,10.16,10.21,10.22
24.89,13.20,2.99,13.31,3.10,-3.10,-3.00,-2.00,10.10,10.21,10.22
25.14,13.18,2.98,13.28,3.07,-3.07,-2.97,-2.05,10.11,10.21,10.21
25.39,13.19,2.99,13.24,3.02,-3.02,-2.94,-2.11,10.17,10.21,10.21
25.65,13.20,3.00,13.18,2.97,-2.97,-2.91,-2.16,10.24,10.22,10.21
25.91,13.21,3.00,13.12,2.91,-2.91,-2.88,-2.21,10.31,10.22,10.22
26.16,13.17,2.95,13.07,2.85,-2.85,-2.85,-2.27,10.32,10.22,10.23
26.43,13.11,2.89,13.02,2.80,-2.80,-2.82,-2.32,10.31,10.22,10.23
26.69,13.04,2.82,12.99,2.77,-2.77,-2.80,-2.37,10.27,10.22,10.23
26.96,12.98,2.77,12.96,2.74,-2.74,-2.77,-2.42,10.24,10.22,10.22
27.23,12.89,2.68,12.93,2.71,-2.71,-2.74,-2.47,10.19,10.22,10.22
27.50,12.79,2.58,12.88,2.67,-2.67,-2.71,-2.52,10.13,10.22,10.22
27.77,12.69,2.47,12.84,2.62,-2.62,-2.68,-2.57,10.07,10.22,10.23
28.05,12.63,2.41,12.80,2.58,-2.58,-2.65,-2.61,10.05,10.22,10.23
28.33,12.71,2.51,12.77,2.55,-2.55,-2.63,-2.66,10.16,10.22,10.21
28.62,12.80,2.60,12.75,2.53,-2.53,-2.60,-2.70,10.27,10.22,10.21
28.90,12.88,2.67,12.72,2.51,-2.51,-2.57,-2.74,10.38,10.21,10.22
29.19,12.83,2.62,12.70,2.49,-2.49,-2.55,-2.77,10.35,10.21,10.22
29.48,12.71,2.51,12.67,2.46,-2.46,-2.52,-2.80,10.25,10.21,10.21
29.78,12.58,2.38,12.65,2.45,-2.45,-2.49,-2.83,10.14,10.20,10.21
30.08,12.51,2.30,12.64,2.44,-2.44,-2.47,-2.86,10.07,10.20,10.22
30.38,12.58,2.38,12.64,2.44,-2.44,-2.44,-2.88,10.14,10.19,10.21
30.68,12.65,2.47,12.62,2.44,-2.44,-2.42,-2.89,10.22,10.19,10.19
30.99,12.73,2.55,12.60,2.42,-2.42,-2.39,-2.91,10.31,10.18,10.19
31.30,12.61,2.44,12.57,2.39,-2.39,-2.37,-2.92,10.23,10.18,10.18
31.61,12.48,2.32,12.52,2.35,-2.35,-2.35,-2.92,10.13,10.17,10.17
31.93,12.36,2.20,12.47,2.31,-2.31,-2.32,-2.92,10.04,10.16,10.16
32.24,12.37,2.22,12.43,2.28,-2.28,-2.30,-2.92,10.10,10.15,10.16
32.57,12.43,2.30,12.40,2.25,-2.25,-2.28,-2.91,10.18,10.15,10.14
32.89,12.50,2.37,12.36,2.22,-2.22,-2.26,-2.90,10.29,10.14,10.14
33.22,12.43,2.30,12.32,2.18,-2.18,-2.24,-2.89,10.25,10.14,10.14
33.55,12.29,2.17,12.27,2.14,-2.14,-2.21,-2.87,10.15,10.13,10.13
33.89,12.15,2.02,12.21,2.09,-2.09,-2.19,-2.85,10.07,10.13,10.14
34.23,12.09,1.98,12.17,2.04,-2.04,-2.17,-2.83,10.05,10.12,10.12
34.57,12.08,1.97,12.13,2.01,-2.01,-2.16,-2.80,10.07,10.12,10.12
34.92,12.06,1.96,12.10,1.99,-1.99,-2.14,-2.78,10.07,10.11,10.11
35.27,12.03,1.92,12.07,1.96,-1.96,-2.12,-2.75,10.07,10.11,10.12
35.62,12.00,1.91,12.03,1.94,-1.94,-2.10,-2.71,10.07,10.10,10.10
35.97,11.96,1.87,11.99,1.90,-1.90,-2.08,-2.68,10.06,10.09,10.10
36.33,11.96,1.89,11.95,1.88,-1.88,-2.07,-2.65,10.08,10.07,10.08
36.70,11.95,1.89,11.93,1.87,-1.87,-2.05,-2.61,10.08,10.06,10.07
37.06,11.94,1.90,11.90,1.86,-1.86,-2.03,-2.58,10.08,10.04,10.05
37.43,11.91,1.89,11.87,1.85,-1.85,-2.02,-2.54,10.06,10.02,10.03
37.81,11.88,1.88,11.84,1.84,-1.84,-2.00,-2.50,10.04,10.00,10.01
38.19,11.83,1.86,11.81,1.83,-1.83,-1.99,-2.47,10.00,9.98,9.98
38.57,11.76,1.81,11.77,1.82,-1.82,-1.97,-2.43,9.94,9.95,9.96
38.95,11.70,1.78,11.74,1.81,-1.81,-1.96,-2.39,9.89,9.93,9.92
39.34,11.69,1.81,11.70,1.81,-1.81,-1.95,-2.36,9.89,9.90,9.89
39.74,11.70,1.84,11.67,1.80,-1.80,-1.94,-2.32,9.90,9.87,9.87
40.14,11.66,1.83,11.63,1.79,-1.79,-1.92,-2.29,9.87,9.84,9.84
40.54,11.53,1.72,11.59,1.78,-1.78,-1.91,-2.26,9.76,9.82,9.82
40.94,11.40,1.62,11.55,1.76,-1.76,-1.90,-2.23,9.64,9.79,9.79
41.35,11.46,1.70,11.50,1.74,-1.74,-1.89,-2.20,9.72,9.76,9.77
41.76,11.55,1.83,11.47,1.73,-1.73,-1.88,-2.17,9.82,9.74,9.73
42.18,11.56,1.86,11.44,1.73,-1.73,-1.87,-2.14,9.83,9.71,9.71
42.60,11.45,1.77,11.41,1.73,-1.73,-1.86,-2.11,9.72,9.68,9.69
43.03,11.36,1.71,11.39,1.73,-1.73,-1.86,-2.09,9.63,9.66,9.66
43.46,11.32,1.70,11.35,1.73,-1.73,-1.85,-2.06,9.60,9.63,9.63
43.90,11.29,1.69,11.31,1.71,-1.71,-1.84,-2.04,9.58,9.60,9.61
44.33,11.24,1.68,11.28,1.71,-1.71,-1.84,-2.02,9.54,9.57,9.57
44.78,11.19,1.66,11.25,1.71,-1.71,-1.83,-2.00,9.49,9.54,9.54
45.23,11.19,1.67,11.22,1.71,-1.71,-1.82,-1.98,9.48,9.51,9.53
45.68,11.24,1.77,11.18,1.71,-1.71,-1.82,-1.97,9.53,9.47,9.48
46.13,11.25,1.82,11.14,1.70,-1.70,-1.81,-1.95,9.55,9.44,9.44
46.60,11.14,1.74,11.10,1.70,-1.70,-1.81,-1.94,9.45,9.40,9.41
47.06,11.03,1.67,11.06,1.70,-1.70,-1.81,-1.93,9.33,9.36,9.37
47.53,10.97,1.64,11.02,1.70,-1.70,-1.81,-1.92,9.27,9.32,9.34
48.01,10.91,1.64,10.99,1.71,-1.71,-1.80,-1.91,9.20,9.27,9.28
48.49,10.93,1.71,10.95,1.72,-1.72,-1.80,-1.90,9.21,9.23,9.23
48.97,10.96,1.78,10.92,1.73,-1.73,-1.80,-1.89,9.23,9.19,9.19
49.46,10.91,1.77,10.88,1.74,-1.74,-1.80,-1.89,9.17,9.14,9.15
49.96,10.86,1.79,10.84,1.75,-1.75,-1.80,-1.89,9.11,9.10,9.08
50.46,10.80,1.77,10.81,1.76,-1.76,-1.80,-1.88,9.05,9.05,9.04
50.96,10.73,1.74,10.77,1.77,-1.77,-1.80,-1.88,8.97,9.00,9.00
51.47,10.69,1.74,10.73,1.78,-1.78,-1.80,-1.88,8.91,8.96,8.96
51.99,10.65,1.75,10.70,1.79,-1.79,-1.81,-1.88,8.86,8.91,8.91
52.51,10.70,1.84,10.67,1.81,-1.81,-1.81,-1.89,8.89,8.86,8.87
53.03,10.73,1.90,10.64,1.83,-1.83,-1.81,-1.89,8.91,8.81,8.84
53.56,10.63,1.86,10.61,1.84,-1.84,-1.82,-1.89,8.79,8.77,8.78
54.10,10.55,1.83,10.58,1.86,-1.86,-1.82,-1.90,8.70,8.73,8.73
54.64,10.54,1.86,10.55,1.86,-1.86,-1.83,-1.90,8.68,8.68,8.69
55.18,10.52,1.90,10.51,1.88,-1.88,-1.83,-1.91,8.65,8.64,8.63
55.74,10.45,1.88,10.48,1.88,-1.88,-1.84,-1.91,8.57,8.60,8.58
56.29,10.40,1.86,10.45,1.89,-1.89,-1.84,-1.92,8.51,8.56,8.55
56.86,10.36,1.86,10.41,1.90,-1.90,-1.85,-1.93,8.46,8.51,8.51
57.42,10.38,1.94,10.37,1.90,-1.90,-1.86,-1.94,8.48,8.47,8.45
58.00,10.43,2.02,10.33,1.91,-1.91,-1.87,-1.94,8.52,8.42,8.42
58.58,10.37,1.99,10.29,1.92,-1.92,-1.88,-1.95,8.45,8.37,8.39
59.16,10.29,1.95,10.26,1.94,-1.94,-1.89,-1.96,8.35,8.32,8.35
59.76,10.16,1.86,10.24,1.96,-1.96,-1.90,-1.97,8.20,8.27,8.31
60.35,10.12,1.89,10.21,1.98,-1.98,-1.91,-1.97,8.14,8.22,8.24
60.96,10.14,1.96,10.17,2.00,-2.00,-1.92,-1.98,8.14,8.17,8.19
61.57,10.09,1.98,10.13,2.01,-2.01,-1.93,-1.99,8.08,8.12,8.12
62.18,10.05,2.01,10.09,2.04,-2.04,-1.94,-2.00,8.02,8.06,8.05
62.80,10.06,2.08,10.06,2.06,-2.06,-1.96,-2.01,8.01,8.00,7.98
63.43,10.08,2.16,10.02,2.08,-2.08,-1.97,-2.01,8.00,7.94,7.93
64.07,10.09,2.22,9.98,2.10,-2.10,-1.98,-2.02,7.99,7.88,7.88
64.71,9.99,2.18,9.95,2.13,-2.13,-2.00,-2.03,7.87,7.82,7.82
65.35,9.91,2.16,9.92,2.16,-2.16,-2.01,-2.03,7.75,7.76,7.76
66.01,9.85,2.16,9.89,2.19,-2.19,-2.03,-2.04,7.67,7.70,7.70
66.67,9.78,2.13,9.85,2.21,-2.21,-2.05,-2.05,7.57,7.64,7.66
67.33,9.75,2.18,9.81,2.23,-2.23,-2.06,-2.06,7.52,7.58,7.58
68.01,9.75,2.23,9.77,2.25,-2.25,-2.08,-2.06,7.50,7.52,7.53
68.69,9.78,2.33,9.73,2.27,-2.27,-2.10,-2.07,7.51,7.46,7.46
69.37,9.74,2.34,9.69,2.29,-2.29,-2.12,-2.08,7.45,7.39,7.40
70.07,9.65,2.32,9.65,2.31,-2.31,-2.14,-2.09,7.34,7.33,7.34
70.77,9.61,2.34,9.61,2.34,-2.34,-2.15,-2.10,7.27,7.27,7.28
71.48,9.56,2.36,9.58,2.37,-2.37,-2.18,-2.11,7.19,7.20,7.21
72.19,9.50,2.37,9.55,2.41,-2.41,-2.20,-2.12,7.09,7.14,7.14
72.91,9.46,2.39,9.52,2.44,-2.44,-2.22,-2.13,7.02,7.08,7.08
73.64,9.45,2.45,9.49,2.47,-2.47,-2.24,-2.15,6.98,7.01,7.01
74.38,9.46,2.52,9.45,2.50,-2.50,-2.26,-2.16,6.96,6.95,6.95
75.12,9.46,2.59,9.41,2.52,-2.52,-2.28,-2.18,6.94,6.89,6.88
75.87,9.41,2.58,9.37,2.54,-2.54,-2.31,-2.19,6.87,6.83,6.83
76.63,9.37,2.61,9.34,2.56,-2.56,-2.33,-2.21,6.81,6.78,6.77
77.40,9.33,2.62,9.31,2.59,-2.59,-2.36,-2.23,6.74,6.72,6.72
78.17,9.28,2.63,9.28,2.62,-2.62,-2.38,-2.25,6.67,6.66,6.66
78.95,9.22,2.61,9.24,2.64,-2.64,-2.41,-2.27,6.59,6.61,6.62
79.74,9.17,2.62,9.20,2.65,-2.65,-2.43,-2.30,6.52,6.55,6.56
80.54,9.15,2.66,9.17,2.67,-2.67,-2.46,-2.32,6.48,6.50,6.50
81.35,9.12,2.68,9.13,2.69,-2.69,-2.49,-2.35,6.44,6.44,6.45
82.16,9.06,2.67,9.09,2.70,-2.70,-2.52,-2.38,6.36,6.39,6.40
82.98,9.04,2.71,9.04,2.71,-2.71,-2.55,-2.41,6.33,6.33,6.34
83.81,9.04,2.77,9.01,2.74,-2.74,-2.57,-2.44,6.31,6.27,6.28
84.65,9.03,2.82,8.98,2.77,-2.77,-2.60,-2.48,6.27,6.21,6.22
85.50,8.94,2.80,8.95,2.80,-2.80,-2.63,-2.51,6.15,6.15,6.15
86.35,8.85,2.77,8.92,2.82,-2.82,-2.66,-2.55,6.03,6.09,6.09
87.22,8.84,2.81,8.89,2.85,-2.85,-2.70,-2.59,5.99,6.03,6.04
88.09,8.85,2.89,8.86,2.88,-2.88,-2.73,-2.64,5.97,5.97,5.97
88.97,8.85,2.94,8.83,2.92,-2.92,-2.76,-2.68,5.94,5.91,5.92
89.86,8.79,2.96,8.79,2.95,-2.95,-2.79,-2.73,5.84,5.84,5.84
90.76,8.76,2.99,8.76,2.99,-2.99,-2.82,-2.77,5.78,5.78,5.78
91.66,8.75,3.05,8.73,3.03,-3.03,-2.86,-2.82,5.73,5.71,5.71
92.58,8.75,3.11,8.70,3.06,-3.06,-2.89,-2.88,5.69,5.64,5.65
93.51,8.68,3.11,8.67,3.10,-3.10,-2.93,-2.93,5.58,5.57,5.58
94.44,8.59,3.09,8.64,3.14,-3.14,-2.96,-2.99,5.45,5.49,5.51
95.39,8.55,3.13,8.61,3.19,-3.19,-3.00,-3.04,5.36,5.42,5.43
96.34,8.54,3.20,8.57,3.23,-3.23,-3.03,-3.10,5.31,5.34,5.35
97.30,8.54,3.28,8.52,3.26,-3.26,-3.07,-3.16,5.28,5.26,5.27
98.28,8.51,3.34,8.47,3.29,-3.29,-3.11,-3.23,5.22,5.18,5.18
99.26,8.43,3.35,8.42,3.32,-3.32,-3.14,-3.29,5.11,5.10,5.09
100.25,8.39,3.39,8.37,3.35,-3.35,-3.18,-3.35,5.04,5.02,5.01
101.25,8.34,3.41,8.32,3.38,-3.38,-3.22,-3.42,4.96,4.93,4.93
102.27,8.26,3.42,8.26,3.41,-3.41,-3.26,-3.49,4.85,4.85,4.85
103.29,8.22,3.46,8.21,3.44,-3.44,-3.29,-3.55,4.78,4.77,4.77
104.32,8.17,3.48,8.16,3.48,-3.48,-3.33,-3.62,4.69,4.69,4.70
105.37,8.08,3.47,8.11,3.51,-3.51,-3.37,-3.69,4.58,4.61,4.62
106.42,7.99,3.47,8.06,3.53,-3.53,-3.41,-3.76,4.46,4.53,4.53
107.48,7.96,3.53,7.99,3.55,-3.55,-3.45,-3.82,4.42,4.45,4.44
108.56,7.94,3.57,7.94,3.57,-3.57,-3.49,-3.89,4.37,4.37,4.38
109.64,7.92,3.64,7.89,3.60,-3.60,-3.53,-3.95,4.32,4.29,4.29
110.74,7.87,3.67,7.84,3.63,-3.63,-3.57,-4.02,4.24,4.21,4.21
111.85,7.79,3.66,7.80,3.66,-3.66,-3.61,-4.08,4.13,4.14,4.14
112.97,7.77,3.71,7.75,3.69,-3.69,-3.65,-4.14,4.08,4.06,4.07
114.10,7.72,3.73,7.71,3.73,-3.73,-3.70,-4.20,4.00,3.99,4.00
115.24,7.65,3.74,7.67,3.76,-3.76,-3.74,-4.25,3.89,3.92,3.92
116.39,7.59,3.76,7.64,3.79,-3.79,-3.78,-4.30,3.80,3.85,3.84
117.55,7.56,3.79,7.60,3.82,-3.82,-3.82,-4.35,3.74,3.78,3.78
118.73,7.57,3.88,7.57,3.85,-3.85,-3.86,-4.39,3.72,3.71,3.70
119.92,7.58,3.95,7.53,3.89,-3.89,-3.90,-4.43,3.70,3.65,3.64
121.12,7.52,3.94,7.50,3.92,-3.92,-3.94,-4.47,3.60,3.58,3.59
122.33,7.46,3.95,7.47,3.96,-3.96,-3.99,-4.50,3.51,3.52,3.52
123.55,7.41,3.95,7.45,3.99,-3.99,-4.03,-4.52,3.42,3.45,3.47
124.79,7.41,4.01,7.42,4.03,-4.03,-4.07,-4.54,3.38,3.39,3.41
126.03,7.41,4.08,7.40,4.07,-4.07,-4.11,-4.56,3.34,3.33,3.34
127.29,7.36,4.09,7.38,4.11,-4.11,-4.15,-4.57,3.26,3.27,3.28
128.57,7.32,4.11,7.35,4.14,-4.14,-4.19,-4.58,3.18,3.21,3.22
129.85,7.33,4.19,7.32,4.17,-4.17,-4.23,-4.58,3.16,3.15,3.15
131.15,7.34,4.26,7.30,4.21,-4.21,-4.27,-4.58,3.13,3.09,3.09
132.46,7.30,4.28,7.27,4.24,-4.24,-4.31,-4.57,3.06,3.03,3.03
133.79,7.25,4.29,7.24,4.27,-4.27,-4.35,-4.57,2.98,2.97,2.97
135.12,7.20,4.30,7.22,4.30,-4.30,-4.39,-4.55,2.90,2.91,2.91
136.48,7.16,4.30,7.19,4.33,-4.33,-4.43,-4.54,2.83,2.85,2.87
137.84,7.15,4.35,7.15,4.36,-4.36,-4.47,-4.52,2.79,2.79,2.81
139.22,7.12,4.40,7.12,4.39,-4.39,-4.51,-4.50,2.74,2.74,2.73
140.61,7.06,4.38,7.09,4.41,-4.41,-4.55,-4.48,2.66,2.68,2.69
142.02,7.05,4.43,7.05,4.43,-4.43,-4.58,-4.45,2.63,2.62,2.63
143.44,7.07,4.52,7.01,4.44,-4.44,-4.62,-4.43,2.63,2.57,2.56
144.87,7.00,4.50,6.97,4.46,-4.46,-4.66,-4.40,2.54,2.51,2.51
146.32,6.89,4.44,6.93,4.48,-4.48,-4.69,-4.38,2.41,2.46,2.46
147.78,6.84,4.45,6.90,4.50,-4.50,-4.73,-4.35,2.35,2.40,2.40
149.26,6.85,4.51,6.85,4.51,-4.51,-4.76,-4.33,2.34,2.34,2.35
150.75,6.86,4.59,6.82,4.54,-4.54,-4.79,-4.30,2.33,2.29,2.28
152.26,6.80,4.57,6.79,4.57,-4.57,-4.83,-4.28,2.24,2.23,2.24
153.78,6.74,4.57,6.76,4.59,-4.59,-4.86,-4.26,2.16,2.17,2.18
155.32,6.69,4.57,6.72,4.60,-4.60,-4.89,-4.24,2.09,2.12,2.13
156.88,6.66,4.60,6.69,4.63,-4.63,-4.92,-4.22,2.04,2.06,2.07
158.44,6.66,4.66,6.65,4.65,-4.65,-4.94,-4.20,2.01,2.00,2.01
160.03,6.62,4.68,6.61,4.67,-4.67,-4.97,-4.19,1.95,1.94,1.95
161.63,6.53,4.65,6.58,4.70,-4.70,-5.00,-4.17,1.84,1.88,1.89
163.24,6.53,4.72,6.54,4.72,-4.72,-5.02,-4.16,1.81,1.82,1.82
164.88,6.56,4.80,6.49,4.73,-4.73,-5.04,-4.16,1.83,1.76,1.77
166.53,6.58,4.89,6.45,4.75,-4.75,-5.07,-4.15,1.83,1.70,1.70
168.19,6.41,4.77,6.41,4.77,-4.77,-5.09,-4.15,1.65,1.64,1.65
169.87,6.29,4.71,6.37,4.79,-4.79,-5.11,-4.16,1.50,1.58,1.59
171.57,6.31,4.80,6.33,4.81,-4.81,-5.13,-4.16,1.50,1.52,1.52
173.29,6.30,4.85,6.29,4.83,-4.83,-5.14,-4.17,1.47,1.46,1.46
175.02,6.23,4.83,6.25,4.84,-4.84,-5.16,-4.18,1.39,1.41,1.41
176.77,6.18,4.83,6.21,4.86,-4.86,-5.17,-4.20,1.32,1.35,1.36
178.54,6.12,4.83,6.18,4.88,-4.88,-5.18,-4.21,1.24,1.30,1.30
180.32,6.11,4.88,6.15,4.90,-4.90,-5.20,-4.24,1.21,1.25,1.24
182.13,6.12,4.93,6.11,4.92,-4.92,-5.20,-4.26,1.21,1.20,1.20
183.95,6.13,4.99,6.08,4.94,-4.94,-5.21,-4.29,1.20,1.15,1.15
185.79,6.08,4.99,6.06,4.96,-4.96,-5.22,-4.32,1.12,1.10,1.10
187.65,6.04,4.99,6.04,4.99,-4.99,-5.22,-4.35,1.06,1.05,1.06
189.52,5.98,4.98,6.02,5.01,-5.01,-5.23,-4.39,0.97,1.01,1.01
191.42,5.98,5.01,5.99,5.03,-5.03,-5.23,-4.43,0.95,0.96,0.98
193.33,5.99,5.07,5.97,5.05,-5.05,-5.23,-4.47,0.94,0.92,0.93
195.27,5.96,5.09,5.94,5.06,-5.06,-5.23,-4.52,0.90,0.88,0.88
197.22,5.92,5.10,5.91,5.07,-5.07,-5.22,-4.56,0.85,0.84,0.83
199.19,5.86,5.07,5.87,5.08,-5.08,-5.22,-4.61,0.78,0.79,0.80
201.18,5.84,5.10,5.84,5.09,-5.09,-5.21,-4.66,0.76,0.75,0.75
203.19,5.79,5.08,5.80,5.09,-5.09,-5.20,-4.72,0.70,0.71,0.72
205.23,5.74,5.07,5.76,5.08,-5.08,-5.19,-4.77,0.66,0.67,0.68
207.28,5.77,5.13,5.72,5.09,-5.09,-5.18,-4.83,0.69,0.63,0.65
209.35,5.72,5.12,5.68,5.09,-5.09,-5.17,-4.88,0.63,0.59,0.61
211.44,5.63,5.08,5.64,5.09,-5.09,-5.15,-4.94,0.54,0.56,0.56
213.56,5.51,4.99,5.60,5.08,-5.08,-5.14,-5.00,0.43,0.52,0.53
215.69,5.49,5.01,5.55,5.07,-5.07,-5.12,-5.05,0.42,0.48,0.49
217.85,5.57,5.12,5.51,5.06,-5.06,-5.10,-5.11,0.51,0.45,0.46
220.03,5.51,5.11,5.47,5.05,-5.05,-5.08,-5.16,0.46,0.42,0.41
222.23,5.44,5.06,5.43,5.04,-5.04,-5.06,-5.21,0.40,0.39,0.39
224.45,5.32,4.97,5.38,5.02,-5.02,-5.03,-5.26,0.31,0.36,0.36
226.70,5.31,4.99,5.33,5.00,-5.00,-5.01,-5.30,0.32,0.33,0.33
228.96,5.38,5.08,5.29,4.98,-4.98,-4.98,-5.35,0.40,0.31,0.31
231.25,5.27,4.98,5.25,4.96,-4.96,-4.95,-5.38,0.31,0.29,0.30
233.57,5.21,4.95,5.22,4.95,-4.95,-4.93,-5.41,0.27,0.27,0.27
235.90,5.13,4.88,5.19,4.93,-4.93,-4.89,-5.44,0.20,0.26,0.26
238.26,5.16,4.93,5.16,4.91,-4.91,-4.86,-5.46,0.25,0.25,0.24
240.64,5.11,4.87,5.13,4.90,-4.90,-4.83,-5.48,0.22,0.24,0.25
243.05,5.03,4.80,5.10,4.87,-4.87,-4.80,-5.49,0.16,0.23,0.24
245.48,4.98,4.77,5.07,4.85,-4.85,-4.76,-5.49,0.13,0.22,0.22
247.93,5.04,4.84,5.04,4.83,-4.83,-4.73,-5.48,0.22,0.21,0.21
250.41,5.11,4.90,5.01,4.81,-4.81,-4.69,-5.47,0.31,0.21,0.22
252.92,5.05,4.84,4.98,4.78,-4.78,-4.65,-5.45,0.27,0.20,0.22
255.45,4.98,4.79,4.95,4.76,-4.76,-4.61,-5.42,0.22,0.19,0.20
258.00,4.90,4.72,4.93,4.75,-4.75,-4.57,-5.39,0.16,0.18,0.19
260.58,4.93,4.76,4.90,4.72,-4.72,-4.53,-5.35,0.21,0.17,0.18
263.19,4.88,4.72,4.86,4.70,-4.70,-4.49,-5.30,0.18,0.16,0.17
265.82,4.81,4.67,4.82,4.67,-4.67,-4.45,-5.25,0.14,0.15,0.15
268.48,4.68,4.54,4.78,4.65,-4.65,-4.40,-5.19,0.04,0.13,0.15
271.16,4.66,4.54,4.74,4.61,-4.61,-4.36,-5.13,0.05,0.12,0.13
273.87,4.74,4.63,4.69,4.58,-4.58,-4.31,-5.06,0.17,0.11,0.12
276.61,4.72,4.63,4.64,4.54,-4.54,-4.27,-4.99,0.18,0.10,0.10
279.38,4.61,4.55,4.60,4.51,-4.51,-4.22,-4.91,0.11,0.09,0.07
282.17,4.53,4.47,4.55,4.47,-4.47,-4.18,-4.83,0.06,0.08,0.07
284.99,4.48,4.42,4.51,4.44,-4.44,-4.13,-4.75,0.04,0.07,0.07
287.84,4.41,4.35,4.47,4.41,-4.41,-4.08,-4.66,0.01,0.06,0.07
290.72,4.42,4.38,4.43,4.37,-4.37,-4.03,-4.57,0.05,0.06,0.05
293.63,4.39,4.34,4.39,4.33,-4.33,-3.99,-4.49,0.06,0.05,0.06
296.57,4.36,4.31,4.35,4.30,-4.30,-3.94,-4.40,0.07,0.05,0.06
299.53,4.28,4.24,4.31,4.26,-4.26,-3.89,-4.31,0.02,0.05,0.05
302.53,4.29,4.24,4.26,4.21,-4.21,-3.84,-4.22,0.08,0.04,0.06
305.55,4.28,4.24,4.21,4.17,-4.17,-3.79,-4.13,0.12,0.04,0.05
308.61,4.11,4.06,4.17,4.13,-4.13,-3.74,-4.04,-0.01,0.04,0.06
311.69,4.08,4.05,4.13,4.09,-4.09,-3.69,-3.95,-0.01,0.04,0.04
314.81,4.12,4.08,4.09,4.05,-4.05,-3.64,-3.86,0.07,0.04,0.05
317.96,4.07,4.05,4.05,4.01,-4.01,-3.59,-3.77,0.06,0.03,0.03
321.14,3.99,3.96,4.00,3.97,-3.97,-3.54,-3.69,0.02,0.03,0.04
324.35,3.88,3.86,3.95,3.92,-3.92,-3.49,-3.61,-0.04,0.03,0.03
327.59,3.90,3.87,3.90,3.88,-3.88,-3.44,-3.53,0.03,0.03,0.04
330.87,3.87,3.85,3.85,3.83,-3.83,-3.39,-3.45,0.05,0.03,0.03
334.18,3.81,3.80,3.79,3.77,-3.77,-3.34,-3.37,0.04,0.02,0.02
337.52,3.74,3.72,3.74,3.71,-3.71,-3.29,-3.29,0.03,0.02,0.03
340.90,3.70,3.69,3.68,3.66,-3.66,-3.24,-3.22,0.04,0.02,0.02
344.30,3.64,3.62,3.63,3.61,-3.61,-3.18,-3.15,0.03,0.03,0.03
347.75,3.62,3.59,3.58,3.55,-3.55,-3.13,-3.08,0.07,0.03,0.04
351.23,3.53,3.52,3.52,3.49,-3.49,-3.08,-3.02,0.05,0.03,0.02
354.74,3.41,3.38,3.46,3.43,-3.43,-3.03,-2.95,-0.01,0.04,0.04
358.28,3.40,3.37,3.41,3.37,-3.37,-2.98,-2.89,0.03,0.04,0.04
361.87,3.35,3.32,3.36,3.32,-3.32,-2.93,-2.83,0.03,0.04,0.04
365.49,3.21,3.17,3.31,3.26,-3.26,-2.88,-2.78,-0.05,0.05,0.05
369.14,3.22,3.17,3.25,3.20,-3.20,-2.83,-2.72,0.02,0.05,0.06
372.83,3.24,3.18,3.21,3.15,-3.15,-2.78,-2.67,0.09,0.05,0.07
376.56,3.17,3.12,3.15,3.10,-3.10,-2.73,-2.62,0.07,0.06,0.06
380.33,3.12,3.07,3.10,3.05,-3.05,-2.68,-2.57,0.08,0.06,0.06
384.13,3.06,3.00,3.05,3.00,-3.00,-2.63,-2.53,0.07,0.05,0.07
387.97,2.99,2.93,3.00,2.94,-2.94,-2.58,-2.48,0.05,0.05,0.07
391.85,2.96,2.91,2.94,2.89,-2.89,-2.53,-2.44,0.07,0.05,0.06
395.77,2.94,2.90,2.88,2.83,-2.83,-2.48,-2.40,0.11,0.04,0.05
399.73,2.83,2.79,2.82,2.78,-2.78,-2.43,-2.36,0.06,0.04,0.05
403.72,2.75,2.70,2.76,2.72,-2.72,-2.38,-2.32,0.03,0.03,0.06
407.76,2.74,2.71,2.70,2.67,-2.67,-2.34,-2.29,0.08,0.03,0.04
411.84,2.63,2.61,2.64,2.61,-2.61,-2.29,-2.25,0.02,0.03,0.03
415.96,2.55,2.53,2.58,2.56,-2.56,-2.24,-2.22,-0.01,0.03,0.03
420.12,2.52,2.51,2.54,2.51,-2.51,-2.19,-2.19,0.02,0.03,0.02
424.32,2.45,2.43,2.50,2.46,-2.46,-2.14,-2.15,-0.00,0.04,0.03
428.56,2.39,2.35,2.46,2.41,-2.41,-2.10,-2.12,-0.02,0.05,0.05
432.85,2.37,2.31,2.44,2.37,-2.37,-2.05,-2.09,0.01,0.07,0.07
437.18,2.40,2.33,2.42,2.32,-2.32,-2.00,-2.06,0.08,0.10,0.08
441.55,2.42,2.32,2.41,2.28,-2.28,-1.95,-2.03,0.14,0.13,0.11
445.96,2.39,2.25,2.41,2.25,-2.25,-1.91,-2.00,0.15,0.16,0.15
450.42,2.43,2.25,2.41,2.21,-2.21,-1.86,-1.97,0.23,0.21,0.19
454.93,2.45,2.22,2.42,2.16,-2.16,-1.81,-1.94,0.29,0.25,0.24
459.48,2.38,2.09,2.42,2.12,-2.12,-1.76,-1.91,0.26,0.30,0.30
464.07,2.41,2.05,2.43,2.07,-2.07,-1.72,-1.88,0.34,0.36,0.37
468.71,2.46,2.05,2.43,2.02,-2.02,-1.67,-1.85,0.44,0.41,0.42
473.40,2.47,2.00,2.44,1.97,-1.97,-1.63,-1.82,0.50,0.47,0.48
478.13,2.47,1.94,2.43,1.91,-1.91,-1.58,-1.79,0.56,0.52,0.54
482.91,2.43,1.85,2.42,1.85,-1.85,-1.53,-1.75,0.58,0.57,0.59
487.74,2.41,1.80,2.40,1.79,-1.79,-1.49,-1.71,0.63,0.61,0.62
492.62,2.36,1.71,2.38,1.72,-1.72,-1.44,-1.68,0.64,0.65,0.66
497.55,2.33,1.64,2.34,1.66,-1.66,-1.39,-1.64,0.68,0.69,0.70
502.52,2.28,1.57,2.30,1.59,-1.59,-1.35,-1.60,0.70,0.71,0.72
507.55,2.24,1.50,2.25,1.52,-1.52,-1.30,-1.56,0.72,0.73,0.75
