frequency,raw,error,smoothed,error_smoothed,equalization,parametric_eq,fixed_band_eq,equalized_raw,equalized_smoothed,target
20.00,3.82,-4.05,3.81,-4.06,4.06,3.99,1.66,7.88,7.87,7.87
20.20,3.82,-4.04,3.81,-4.05,4.05,3.99,1.71,7.87,7.86,7.86
20.40,3.82,-4.03,3.81,-4.04,4.04,3.99,1.76,7.86,7.85,7.85
20.61,3.82,-4.03,3.81,-4.03,4.03,3.99,1.82,7.85,7.84,7.85
20.81,3.82,-4.01,3.82,-4.02,4.02,3.99,1.87,7.84,7.83,7.83
21.02,3.82,-4.01,3.82,-4.01,4.01,3.99,1.93,7.83,7.83,7.83
21.23,3.82,-4.00,3.83,-3.99,3.99,3.99,1.99,7.81,7.82,7.82
21.44,3.82,-4.01,3.83,-3.98,3.98,3.99,2.05,7.80,7.81,7.83
21.66,3.82,-4.00,3.84,-3.97,3.97,3.99,2.11,7.79,7.80,7.82
21.87,3.82,-3.99,3.85,-3.95,3.95,3.98,2.18,7.77,7.80,7.81
22.09,3.83,-3.97,3.86,-3.94,3.94,3.98,2.24,7.77,7.79,7.80
22.31,3.85,-3.95,3.87,-3.92,3.92,3.98,2.31,7.77,7.79,7.80
22.54,3.87,-3.92,3.89,-3.90,3.90,3.97,2.38,7.77,7.78,7.79
22.76,3.90,-3.88,3.90,-3.88,3.88,3.97,2.45,7.78,7.78,7.78
22.99,3.92,-3.85,3.92,-3.86,3.86,3.96,2.52,7.78,7.78,7.77
23.22,3.94,-3.82,3.94,-3.83,3.83,3.95,2.60,7.77,7.77,7.76
23.45,3.97,-3.80,3.96,-3.81,3.81,3.94,2.67,7.78,7.77,7.77
23.69,3.99,-3.77,3.97,-3.79,3.79,3.94,2.75,7.78,7.77,7.76
23.92,4.01,-3.75,3.99,-3.78,3.78,3.93,2.83,7.79,7.76,7.76
24.16,4.02,-3.75,4.00,-3.76,3.76,3.92,2.91,7.78,7.76,7.77
24.40,4.02,-3.76,4.01,-3.75,3.75,3.91,2.99,7.78,7.77,7.78
24.65,4.02,-3.76,4.02,-3.75,3.75,3.90,3.08,7.77,7.77,7.78
24.89,4.02,-3.76,4.02,-3.75,3.75,3.89,3.16,7.77,7.77,7.78
25.14,4.02,-3.75,4.03,-3.74,3.74,3.88,3.25,7.77,7.77,7.77
25.39,4.02,-3.75,4.03,-3.75,3.75,3.87,3.33,7.77,7.77,7.77
25.65,4.02,-3.75,4.03,-3.75,3.75,3.86,3.42,7.77,7.78,7.77
25.91,4.02,-3.76,4.03,-3.75,3.75,3.85,3.50,7.77,7.78,7.78
26.16,4.02,-3.77,4.02,-3.76,3.76,3.84,3.59,7.78,7.78,7.79
26.43,4.02,-3.77,4.02,-3.76,3.76,3.83,3.67,7.78,7.78,7.79
26.69,4.02,-3.77,4.02,-3.76,3.76,3.81,3.76,7.78,7.78,7.79
26.96,4.02,-3.76,4.02,-3.76,3.76,3.80,3.84,7.78,7.78,7.78
27.23,4.02,-3.76,4.02,-3.76,3.76,3.79,3.92,7.78,7.78,7.78
27.50,4.02,-3.76,4.02,-3.76,3.76,3.78,4.00,7.78,7.78,7.78
27.77,4.02,-3.77,4.02,-3.76,3.76,3.77,4.07,7.78,7.78,7.79
28.05,4.02,-3.77,4.02,-3.76,3.76,3.75,4.14,7.78,7.78,7.79
28.33,4.02,-3.75,4.03,-3.75,3.75,3.74,4.21,7.77,7.78,7.77
28.62,4.02,-3.75,4.04,-3.74,3.74,3.73,4.28,7.76,7.78,7.77
28.90,4.02,-3.76,4.05,-3.73,3.73,3.72,4.34,7.75,7.78,7.78
29.19,4.04,-3.74,4.05,-3.72,3.72,3.71,4.39,7.76,7.77,7.78
29.48,4.06,-3.71,4.06,-3.71,3.71,3.69,4.44,7.77,7.77,7.77
29.78,4.08,-3.69,4.07,-3.69,3.69,3.68,4.48,7.77,7.77,7.77
30.08,4.10,-3.68,4.08,-3.68,3.68,3.67,4.52,7.78,7.76,7.78
30.38,4.11,-3.66,4.09,-3.66,3.66,3.66,4.55,7.77,7.76,7.77
30.68,4.11,-3.64,4.10,-3.65,3.65,3.65,4.57,7.76,7.75,7.75
30.99,4.12,-3.63,4.11,-3.63,3.63,3.64,4.59,7.76,7.74,7.75
31.30,4.12,-3.62,4.11,-3.62,3.62,3.62,4.60,7.74,7.74,7.74
31.61,4.12,-3.61,4.12,-3.61,3.61,3.61,4.60,7.73,7.73,7.73
31.93,4.12,-3.60,4.12,-3.60,3.60,3.60,4.59,7.72,7.72,7.72
32.24,4.12,-3.60,4.13,-3.59,3.59,3.59,4.58,7.71,7.72,7.72
32.57,4.12,-3.58,4.13,-3.58,3.58,3.58,4.56,7.71,7.71,7.70
32.89,4.12,-3.58,4.12,-3.58,3.58,3.57,4.54,7.70,7.70,7.70
33.22,4.12,-3.58,4.12,-3.58,3.58,3.56,4.51,7.70,7.70,7.70
33.55,4.12,-3.57,4.12,-3.57,3.57,3.55,4.47,7.69,7.69,7.69
33.89,4.12,-3.58,4.12,-3.57,3.57,3.54,4.43,7.69,7.69,7.70
34.23,4.12,-3.56,4.12,-3.56,3.56,3.53,4.38,7.68,7.68,7.68
34.57,4.12,-3.56,4.12,-3.56,3.56,3.51,4.33,7.68,7.68,7.68
34.92,4.12,-3.55,4.12,-3.55,3.55,3.50,4.27,7.67,7.67,7.67
35.27,4.12,-3.56,4.12,-3.55,3.55,3.49,4.21,7.67,7.67,7.68
35.62,4.12,-3.54,4.12,-3.54,3.54,3.48,4.15,7.66,7.66,7.66
35.97,4.12,-3.54,4.12,-3.53,3.53,3.47,4.08,7.65,7.65,7.66
36.33,4.12,-3.52,4.12,-3.51,3.51,3.46,4.02,7.63,7.63,7.64
36.70,4.12,-3.51,4.12,-3.50,3.50,3.45,3.95,7.62,7.62,7.63
37.06,4.12,-3.49,4.12,-3.48,3.48,3.44,3.88,7.60,7.60,7.61
37.43,4.12,-3.47,4.12,-3.46,3.46,3.42,3.81,7.58,7.58,7.59
37.81,4.12,-3.45,4.12,-3.44,3.44,3.41,3.74,7.56,7.56,7.57
38.19,4.12,-3.42,4.12,-3.42,3.42,3.40,3.67,7.54,7.54,7.54
38.57,4.12,-3.40,4.12,-3.39,3.39,3.39,3.60,7.51,7.51,7.52
38.95,4.12,-3.37,4.12,-3.37,3.37,3.37,3.53,7.49,7.49,7.49
39.34,4.12,-3.33,4.12,-3.34,3.34,3.36,3.47,7.46,7.46,7.45
39.74,4.12,-3.31,4.12,-3.31,3.31,3.34,3.40,7.43,7.43,7.43
40.14,4.12,-3.28,4.12,-3.28,3.28,3.33,3.33,7.41,7.41,7.40
40.54,4.12,-3.26,4.12,-3.26,3.26,3.31,3.27,7.38,7.38,7.38
40.94,4.12,-3.23,4.12,-3.23,3.23,3.30,3.21,7.35,7.35,7.35
41.35,4.12,-3.21,4.13,-3.20,3.20,3.28,3.15,7.32,7.32,7.33
41.76,4.12,-3.17,4.13,-3.17,3.17,3.26,3.09,7.29,7.30,7.29
42.18,4.12,-3.15,4.13,-3.14,3.14,3.24,3.03,7.26,7.27,7.27
42.60,4.12,-3.13,4.12,-3.12,3.12,3.22,2.98,7.24,7.24,7.25
43.03,4.12,-3.10,4.12,-3.09,3.09,3.20,2.93,7.21,7.22,7.22
43.46,4.12,-3.07,4.12,-3.07,3.07,3.17,2.88,7.19,7.19,7.19
43.90,4.12,-3.05,4.11,-3.05,3.05,3.15,2.83,7.17,7.16,7.17
44.33,4.12,-3.01,4.10,-3.03,3.03,3.13,2.79,7.15,7.13,7.13
44.78,4.12,-2.98,4.09,-3.01,3.01,3.10,2.74,7.13,7.10,7.10
45.23,4.10,-2.99,4.08,-2.99,2.99,3.07,2.70,7.10,7.07,7.09
45.68,4.05,-2.99,4.06,-2.98,2.98,3.04,2.66,7.03,7.04,7.04
46.13,4.02,-2.98,4.04,-2.96,2.96,3.02,2.63,6.98,7.00,7.00
46.60,4.03,-2.94,4.03,-2.94,2.94,2.98,2.59,6.97,6.96,6.97
47.06,4.03,-2.90,4.01,-2.91,2.91,2.95,2.56,6.94,6.92,6.93
47.53,3.99,-2.91,3.99,-2.89,2.89,2.92,2.53,6.88,6.88,6.90
48.01,3.95,-2.89,3.97,-2.86,2.86,2.89,2.50,6.81,6.84,6.84
48.49,3.94,-2.85,3.96,-2.83,2.83,2.85,2.47,6.77,6.79,6.79
48.97,3.92,-2.83,3.94,-2.80,2.80,2.82,2.45,6.72,6.75,6.75
49.46,3.92,-2.79,3.93,-2.77,2.77,2.78,2.43,6.69,6.70,6.71
49.96,3.92,-2.72,3.93,-2.73,2.73,2.74,2.40,6.65,6.66,6.64
50.46,3.92,-2.68,3.92,-2.69,2.69,2.70,2.38,6.61,6.61,6.60
50.96,3.92,-2.64,3.92,-2.64,2.64,2.66,2.37,6.57,6.56,6.56
51.47,3.92,-2.60,3.92,-2.60,2.60,2.62,2.35,6.52,6.52,6.52
51.99,3.92,-2.55,3.91,-2.56,2.56,2.58,2.33,6.48,6.47,6.47
52.51,3.92,-2.51,3.92,-2.51,2.51,2.54,2.32,6.43,6.42,6.43
53.03,3.92,-2.48,3.92,-2.45,2.45,2.50,2.30,6.37,6.38,6.40
53.56,3.92,-2.42,3.93,-2.40,2.40,2.45,2.29,6.32,6.33,6.34
54.10,3.92,-2.37,3.93,-2.36,2.36,2.41,2.27,6.28,6.29,6.29
54.64,3.92,-2.33,3.93,-2.31,2.31,2.36,2.26,6.23,6.24,6.25
55.18,3.92,-2.27,3.93,-2.27,2.27,2.32,2.25,6.19,6.20,6.19
55.74,3.92,-2.22,3.92,-2.24,2.24,2.27,2.23,6.16,6.16,6.14
56.29,3.92,-2.19,3.91,-2.21,2.21,2.23,2.22,6.13,6.12,6.11
56.86,3.92,-2.15,3.90,-2.17,2.17,2.18,2.20,6.09,6.07,6.07
57.42,3.92,-2.09,3.88,-2.14,2.14,2.14,2.19,6.06,6.03,6.01
58.00,3.92,-2.06,3.87,-2.11,2.11,2.09,2.17,6.03,5.98,5.98
58.58,3.86,-2.09,3.85,-2.08,2.08,2.04,2.15,5.94,5.93,5.95
59.16,3.82,-2.09,3.83,-2.05,2.05,2.00,2.14,5.87,5.88,5.91
59.76,3.82,-2.05,3.81,-2.02,2.02,1.95,2.12,5.84,5.83,5.87
60.35,3.78,-2.02,3.79,-1.99,1.99,1.91,2.09,5.77,5.78,5.80
60.96,3.72,-2.03,3.78,-1.96,1.96,1.86,2.07,5.68,5.73,5.75
61.57,3.72,-1.96,3.76,-1.92,1.92,1.81,2.04,5.64,5.68,5.68
62.18,3.72,-1.89,3.75,-1.87,1.87,1.77,2.02,5.59,5.62,5.61
62.80,3.72,-1.83,3.74,-1.82,1.82,1.72,1.99,5.54,5.56,5.55
63.43,3.72,-1.77,3.73,-1.77,1.77,1.68,1.96,5.49,5.50,5.49
64.07,3.72,-1.72,3.72,-1.72,1.72,1.63,1.92,5.44,5.44,5.44
64.71,3.72,-1.66,3.72,-1.67,1.67,1.59,1.89,5.39,5.38,5.38
65.35,3.72,-1.60,3.71,-1.61,1.61,1.54,1.85,5.34,5.32,5.32
66.01,3.72,-1.54,3.70,-1.56,1.56,1.50,1.81,5.29,5.26,5.26
66.67,3.72,-1.50,3.68,-1.52,1.52,1.45,1.77,5.24,5.20,5.22
67.33,3.72,-1.42,3.67,-1.47,1.47,1.41,1.73,5.19,5.14,5.14
68.01,3.71,-1.38,3.66,-1.42,1.42,1.37,1.69,5.13,5.08,5.09
68.69,3.65,-1.37,3.64,-1.38,1.38,1.32,1.64,5.03,5.02,5.02
69.37,3.60,-1.37,3.62,-1.33,1.33,1.28,1.59,4.93,4.96,4.97
70.07,3.58,-1.32,3.61,-1.29,1.29,1.24,1.55,4.87,4.89,4.90
70.77,3.53,-1.31,3.59,-1.24,1.24,1.20,1.50,4.77,4.83,4.84
71.48,3.52,-1.25,3.57,-1.19,1.19,1.15,1.45,4.71,4.76,4.77
72.19,3.52,-1.18,3.55,-1.15,1.15,1.11,1.39,4.67,4.70,4.70
72.91,3.52,-1.12,3.53,-1.10,1.10,1.07,1.34,4.62,4.64,4.64
73.64,3.52,-1.05,3.51,-1.06,1.06,1.03,1.29,4.58,4.57,4.57
74.38,3.52,-0.99,3.49,-1.02,1.02,0.99,1.24,4.54,4.51,4.51
75.12,3.52,-0.92,3.48,-0.98,0.98,0.95,1.18,4.50,4.45,4.44
75.87,3.52,-0.88,3.46,-0.93,0.93,0.91,1.13,4.45,4.39,4.40
76.63,3.46,-0.87,3.45,-0.88,0.88,0.87,1.07,4.34,4.34,4.33
77.40,3.42,-0.86,3.44,-0.84,0.84,0.83,1.02,4.26,4.28,4.28
78.17,3.42,-0.80,3.42,-0.80,0.80,0.79,0.96,4.22,4.22,4.22
78.95,3.42,-0.76,3.40,-0.77,0.77,0.76,0.91,4.19,4.17,4.18
79.74,3.35,-0.77,3.38,-0.73,0.73,0.72,0.86,4.08,4.11,4.12
80.54,3.32,-0.74,3.36,-0.70,0.70,0.68,0.80,4.02,4.06,4.06
81.35,3.32,-0.69,3.34,-0.66,0.66,0.64,0.75,3.99,4.00,4.01
82.16,3.32,-0.64,3.32,-0.63,0.63,0.61,0.69,3.95,3.95,3.96
82.98,3.32,-0.58,3.29,-0.60,0.60,0.57,0.64,3.92,3.89,3.90
83.81,3.29,-0.55,3.27,-0.56,0.56,0.53,0.58,3.85,3.83,3.84
84.65,3.24,-0.54,3.26,-0.52,0.52,0.49,0.53,3.76,3.77,3.78
85.50,3.22,-0.49,3.24,-0.48,0.48,0.46,0.48,3.70,3.72,3.71
86.35,3.22,-0.43,3.21,-0.44,0.44,0.42,0.42,3.66,3.66,3.65
87.22,3.22,-0.38,3.19,-0.40,0.40,0.39,0.37,3.62,3.59,3.60
88.09,3.21,-0.32,3.18,-0.36,0.36,0.35,0.32,3.57,3.53,3.53
88.97,3.12,-0.36,3.16,-0.31,0.31,0.31,0.26,3.43,3.47,3.48
89.86,3.12,-0.28,3.15,-0.26,0.26,0.28,0.21,3.38,3.41,3.40
90.76,3.12,-0.22,3.13,-0.21,0.21,0.24,0.16,3.33,3.34,3.34
91.66,3.11,-0.16,3.10,-0.17,0.17,0.21,0.10,3.28,3.27,3.27
92.58,3.06,-0.15,3.08,-0.12,0.12,0.17,0.05,3.18,3.20,3.21
93.51,3.02,-0.12,3.05,-0.08,0.08,0.14,-0.00,3.10,3.13,3.14
94.44,3.02,-0.05,3.02,-0.03,0.03,0.10,-0.05,3.05,3.05,3.07
95.39,3.02,0.03,2.99,0.02,-0.02,0.07,-0.10,3.00,2.98,2.99
96.34,3.02,0.11,2.97,0.07,-0.07,0.03,-0.16,2.96,2.90,2.91
97.30,2.99,0.16,2.94,0.12,-0.12,-0.00,-0.21,2.87,2.82,2.83
98.28,2.92,0.18,2.91,0.17,-0.17,-0.04,-0.26,2.75,2.74,2.74
99.26,2.85,0.20,2.88,0.22,-0.22,-0.07,-0.31,2.63,2.66,2.65
100.25,2.77,0.20,2.84,0.26,-0.26,-0.11,-0.36,2.51,2.58,2.57
101.25,2.75,0.25,2.79,0.30,-0.30,-0.14,-0.41,2.45,2.50,2.50
102.27,2.74,0.33,2.75,0.34,-0.34,-0.18,-0.46,2.40,2.41,2.41
103.29,2.73,0.40,2.71,0.38,-0.38,-0.21,-0.51,2.35,2.33,2.33
104.32,2.71,0.45,2.67,0.42,-0.42,-0.25,-0.56,2.29,2.25,2.26
105.37,2.68,0.50,2.62,0.45,-0.45,-0.28,-0.60,2.23,2.17,2.18
106.42,2.61,0.52,2.57,0.48,-0.48,-0.32,-0.65,2.13,2.09,2.09
107.48,2.52,0.52,2.52,0.52,-0.52,-0.35,-0.70,2.00,2.01,2.00
108.56,2.44,0.50,2.48,0.55,-0.55,-0.39,-0.74,1.89,1.93,1.94
109.64,2.39,0.54,2.44,0.59,-0.59,-0.42,-0.79,1.81,1.85,1.85
110.74,2.37,0.60,2.40,0.63,-0.63,-0.46,-0.83,1.75,1.77,1.77
111.85,2.35,0.65,2.36,0.67,-0.67,-0.49,-0.87,1.68,1.70,1.70
112.97,2.34,0.71,2.32,0.70,-0.70,-0.53,-0.91,1.64,1.62,1.63
114.10,2.32,0.76,2.28,0.73,-0.73,-0.56,-0.95,1.59,1.55,1.56
115.24,2.23,0.75,2.24,0.76,-0.76,-0.60,-0.99,1.47,1.48,1.48
116.39,2.17,0.77,2.21,0.80,-0.80,-0.64,-1.03,1.37,1.41,1.40
117.55,2.14,0.80,2.18,0.84,-0.84,-0.67,-1.06,1.30,1.34,1.34
118.73,2.15,0.89,2.16,0.88,-0.88,-0.71,-1.10,1.27,1.27,1.26
119.92,2.15,0.95,2.14,0.93,-0.93,-0.75,-1.13,1.22,1.21,1.20
121.12,2.16,1.01,2.12,0.98,-0.98,-0.78,-1.16,1.18,1.14,1.15
122.33,2.14,1.06,2.10,1.02,-1.02,-0.82,-1.19,1.12,1.08,1.08
123.55,2.06,1.03,2.07,1.05,-1.05,-0.86,-1.21,1.01,1.02,1.03
124.79,1.99,1.02,2.04,1.09,-1.09,-0.89,-1.24,0.90,0.95,0.97
126.03,1.99,1.09,2.02,1.13,-1.13,-0.93,-1.26,0.86,0.89,0.90
127.29,2.00,1.16,2.01,1.18,-1.18,-0.97,-1.28,0.83,0.83,0.84
128.57,2.00,1.22,1.99,1.21,-1.21,-1.00,-1.30,0.79,0.77,0.78
129.85,2.01,1.30,1.96,1.25,-1.25,-1.04,-1.31,0.76,0.71,0.71
131.15,2.00,1.35,1.93,1.28,-1.28,-1.08,-1.33,0.72,0.65,0.65
132.46,1.88,1.29,1.90,1.31,-1.31,-1.12,-1.34,0.57,0.59,0.59
133.79,1.82,1.29,1.87,1.34,-1.34,-1.15,-1.35,0.48,0.53,0.53
135.12,1.82,1.35,1.84,1.37,-1.37,-1.19,-1.36,0.45,0.47,0.47
136.48,1.83,1.40,1.82,1.40,-1.40,-1.23,-1.37,0.43,0.41,0.43
137.84,1.83,1.46,1.79,1.43,-1.43,-1.27,-1.38,0.40,0.36,0.37
139.22,1.77,1.48,1.75,1.46,-1.46,-1.31,-1.39,0.31,0.30,0.29
140.61,1.70,1.45,1.72,1.48,-1.48,-1.34,-1.39,0.22,0.24,0.25
142.02,1.63,1.44,1.68,1.50,-1.50,-1.38,-1.40,0.13,0.18,0.19
143.44,1.63,1.51,1.65,1.52,-1.52,-1.42,-1.40,0.11,0.13,0.12
144.87,1.63,1.56,1.62,1.55,-1.55,-1.46,-1.41,0.08,0.07,0.07
146.32,1.63,1.61,1.59,1.57,-1.57,-1.49,-1.41,0.06,0.02,0.02
147.78,1.58,1.62,1.56,1.60,-1.60,-1.53,-1.42,-0.02,-0.04,-0.04
149.26,1.52,1.61,1.53,1.62,-1.62,-1.57,-1.42,-0.10,-0.10,-0.09
150.75,1.44,1.60,1.49,1.65,-1.65,-1.60,-1.43,-0.20,-0.15,-0.16
152.26,1.43,1.63,1.46,1.67,-1.67,-1.64,-1.43,-0.24,-0.21,-0.20
153.78,1.43,1.69,1.43,1.70,-1.70,-1.68,-1.44,-0.27,-0.27,-0.26
155.32,1.43,1.74,1.41,1.73,-1.73,-1.71,-1.44,-0.30,-0.32,-0.31
156.88,1.43,1.80,1.38,1.76,-1.76,-1.75,-1.45,-0.33,-0.38,-0.37
158.44,1.36,1.79,1.35,1.79,-1.79,-1.78,-1.46,-0.43,-0.44,-0.43
160.03,1.27,1.76,1.31,1.81,-1.81,-1.81,-1.47,-0.54,-0.50,-0.49
161.63,1.24,1.79,1.27,1.83,-1.83,-1.85,-1.48,-0.59,-0.56,-0.55
163.24,1.23,1.85,1.23,1.85,-1.85,-1.88,-1.49,-0.62,-0.62,-0.62
164.88,1.23,1.90,1.20,1.87,-1.87,-1.91,-1.50,-0.64,-0.68,-0.67
166.53,1.21,1.95,1.16,1.90,-1.90,-1.94,-1.51,-0.69,-0.74,-0.74
168.19,1.15,1.94,1.12,1.92,-1.92,-1.97,-1.53,-0.77,-0.80,-0.79
169.87,1.08,1.93,1.08,1.93,-1.93,-2.00,-1.54,-0.85,-0.86,-0.85
171.57,1.01,1.93,1.03,1.95,-1.95,-2.03,-1.56,-0.94,-0.92,-0.92
173.29,0.99,1.97,0.99,1.97,-1.97,-2.06,-1.58,-0.98,-0.98,-0.98
175.02,0.92,1.95,0.96,1.99,-1.99,-2.08,-1.59,-1.07,-1.03,-1.03
176.77,0.88,1.96,0.92,2.01,-2.01,-2.11,-1.61,-1.13,-1.09,-1.08
178.54,0.88,2.02,0.89,2.03,-2.03,-2.13,-1.64,-1.15,-1.14,-1.14
180.32,0.85,2.05,0.85,2.04,-2.04,-2.15,-1.66,-1.19,-1.19,-1.20
182.13,0.81,2.05,0.81,2.05,-2.05,-2.18,-1.68,-1.24,-1.24,-1.24
183.95,0.80,2.09,0.78,2.07,-2.07,-2.20,-1.71,-1.27,-1.29,-1.29
185.79,0.76,2.10,0.76,2.10,-2.10,-2.21,-1.74,-1.34,-1.34,-1.34
187.65,0.74,2.12,0.73,2.12,-2.12,-2.23,-1.76,-1.38,-1.39,-1.38
189.52,0.74,2.17,0.71,2.14,-2.14,-2.25,-1.79,-1.40,-1.43,-1.43
191.42,0.68,2.14,0.69,2.16,-2.16,-2.26,-1.82,-1.48,-1.48,-1.46
193.33,0.63,2.14,0.66,2.18,-2.18,-2.27,-1.85,-1.55,-1.52,-1.51
195.27,0.60,2.16,0.64,2.20,-2.20,-2.28,-1.89,-1.60,-1.56,-1.56
197.22,0.60,2.21,0.62,2.22,-2.22,-2.29,-1.92,-1.62,-1.60,-1.61
199.19,0.61,2.25,0.59,2.24,-2.24,-2.30,-1.95,-1.63,-1.64,-1.64
201.18,0.62,2.31,0.57,2.25,-2.25,-2.31,-1.99,-1.63,-1.68,-1.69
203.19,0.57,2.29,0.54,2.27,-2.27,-2.31,-2.02,-1.70,-1.73,-1.72
205.23,0.51,2.27,0.51,2.28,-2.28,-2.31,-2.06,-1.77,-1.77,-1.76
207.28,0.45,2.24,0.48,2.29,-2.29,-2.31,-2.09,-1.83,-1.81,-1.79
209.35,0.42,2.25,0.45,2.29,-2.29,-2.31,-2.13,-1.87,-1.84,-1.83
211.44,0.42,2.30,0.41,2.29,-2.29,-2.31,-2.16,-1.87,-1.88,-1.88
213.56,0.42,2.33,0.38,2.30,-2.30,-2.31,-2.20,-1.88,-1.92,-1.91
215.69,0.39,2.34,0.35,2.30,-2.30,-2.30,-2.23,-1.91,-1.95,-1.95
217.85,0.32,2.30,0.30,2.29,-2.29,-2.29,-2.27,-1.97,-1.99,-1.98
220.03,0.24,2.27,0.26,2.28,-2.28,-2.28,-2.30,-2.04,-2.02,-2.03
222.23,0.20,2.25,0.22,2.27,-2.27,-2.27,-2.33,-2.07,-2.05,-2.05
224.45,0.18,2.26,0.18,2.26,-2.26,-2.26,-2.36,-2.08,-2.08,-2.08
226.70,0.11,2.22,0.15,2.26,-2.26,-2.25,-2.39,-2.15,-2.10,-2.11
228.96,0.10,2.23,0.12,2.25,-2.25,-2.23,-2.41,-2.15,-2.13,-2.13
231.25,0.11,2.25,0.10,2.24,-2.24,-2.22,-2.43,-2.13,-2.15,-2.14
233.57,0.08,2.25,0.07,2.23,-2.23,-2.20,-2.45,-2.15,-2.16,-2.17
235.90,0.03,2.21,0.04,2.22,-2.22,-2.18,-2.47,-2.19,-2.18,-2.18
238.26,-0.03,2.17,0.02,2.21,-2.21,-2.16,-2.48,-2.24,-2.19,-2.20
240.64,-0.03,2.16,0.01,2.21,-2.21,-2.14,-2.49,-2.24,-2.20,-2.19
243.05,-0.02,2.18,-0.01,2.20,-2.20,-2.12,-2.50,-2.22,-2.21,-2.20
245.48,0.00,2.22,-0.02,2.20,-2.20,-2.09,-2.51,-2.20,-2.22,-2.22
247.93,0.02,2.25,-0.04,2.18,-2.18,-2.07,-2.51,-2.16,-2.23,-2.23
250.41,-0.04,2.18,-0.06,2.17,-2.17,-2.04,-2.50,-2.21,-2.23,-2.22
252.92,-0.09,2.13,-0.08,2.16,-2.16,-2.02,-2.49,-2.25,-2.24,-2.22
255.45,-0.12,2.12,-0.10,2.15,-2.15,-1.99,-2.48,-2.26,-2.25,-2.24
258.00,-0.12,2.13,-0.13,2.13,-2.13,-1.96,-2.47,-2.25,-2.26,-2.25
260.58,-0.11,2.15,-0.15,2.12,-2.12,-1.94,-2.45,-2.23,-2.27,-2.26
263.19,-0.12,2.15,-0.18,2.10,-2.10,-1.91,-2.43,-2.22,-2.28,-2.27
265.82,-0.22,2.07,-0.21,2.08,-2.08,-1.88,-2.40,-2.30,-2.29,-2.29
268.48,-0.30,1.99,-0.25,2.06,-2.06,-1.85,-2.38,-2.36,-2.30,-2.29
271.16,-0.32,1.99,-0.28,2.04,-2.04,-1.82,-2.34,-2.35,-2.32,-2.31
273.87,-0.32,2.00,-0.31,2.01,-2.01,-1.79,-2.31,-2.33,-2.33,-2.32
276.61,-0.33,2.01,-0.35,2.00,-2.00,-1.76,-2.27,-2.32,-2.34,-2.34
279.38,-0.35,2.02,-0.37,1.98,-1.98,-1.73,-2.24,-2.33,-2.35,-2.37
282.17,-0.40,1.97,-0.40,1.96,-1.96,-1.70,-2.20,-2.36,-2.36,-2.37
284.99,-0.47,1.90,-0.43,1.94,-1.94,-1.67,-2.15,-2.41,-2.37,-2.37
287.84,-0.51,1.86,-0.46,1.91,-1.91,-1.64,-2.11,-2.42,-2.37,-2.37
290.72,-0.50,1.89,-0.49,1.89,-1.89,-1.60,-2.07,-2.39,-2.38,-2.39
293.63,-0.49,1.89,-0.52,1.87,-1.87,-1.57,-2.02,-2.36,-2.39,-2.38
296.57,-0.48,1.90,-0.54,1.85,-1.85,-1.54,-1.97,-2.33,-2.39,-2.38
299.53,-0.54,1.85,-0.55,1.84,-1.84,-1.51,-1.93,-2.38,-2.39,-2.39
302.53,-0.58,1.80,-0.58,1.82,-1.82,-1.48,-1.88,-2.40,-2.39,-2.38
305.55,-0.63,1.76,-0.60,1.79,-1.79,-1.45,-1.83,-2.42,-2.40,-2.39
308.61,-0.63,1.75,-0.63,1.77,-1.77,-1.42,-1.78,-2.39,-2.40,-2.38
311.69,-0.68,1.72,-0.66,1.74,-1.74,-1.39,-1.73,-2.42,-2.40,-2.40
314.81,-0.71,1.68,-0.68,1.72,-1.72,-1.36,-1.69,-2.43,-2.40,-2.39
317.96,-0.72,1.69,-0.70,1.70,-1.70,-1.33,-1.64,-2.42,-2.40,-2.41
321.14,-0.72,1.68,-0.73,1.67,-1.67,-1.30,-1.59,-2.39,-2.41,-2.40
324.35,-0.72,1.69,-0.76,1.64,-1.64,-1.27,-1.55,-2.36,-2.41,-2.41
327.59,-0.72,1.68,-0.80,1.61,-1.61,-1.24,-1.50,-2.33,-2.41,-2.40
330.87,-0.83,1.58,-0.83,1.59,-1.59,-1.21,-1.46,-2.41,-2.41,-2.41
334.18,-0.92,1.50,-0.86,1.56,-1.56,-1.18,-1.41,-2.48,-2.41,-2.42
337.52,-0.93,1.48,-0.89,1.53,-1.53,-1.15,-1.37,-2.46,-2.42,-2.41
340.90,-0.93,1.49,-0.92,1.49,-1.49,-1.12,-1.33,-2.42,-2.41,-2.42
344.30,-0.93,1.48,-0.96,1.46,-1.46,-1.09,-1.28,-2.39,-2.41,-2.41
347.75,-0.93,1.47,-0.99,1.42,-1.42,-1.06,-1.24,-2.35,-2.41,-2.40
351.23,-0.99,1.43,-1.02,1.39,-1.39,-1.04,-1.20,-2.38,-2.41,-2.42
354.74,-1.09,1.31,-1.04,1.36,-1.36,-1.01,-1.16,-2.45,-2.40,-2.40
358.28,-1.12,1.28,-1.07,1.33,-1.33,-0.98,-1.13,-2.45,-2.40,-2.40
361.87,-1.12,1.28,-1.10,1.29,-1.29,-0.96,-1.09,-2.41,-2.40,-2.40
365.49,-1.11,1.28,-1.13,1.27,-1.27,-0.93,-1.05,-2.38,-2.39,-2.39
369.14,-1.18,1.20,-1.14,1.24,-1.24,-0.90,-1.02,-2.42,-2.39,-2.38
372.83,-1.20,1.17,-1.17,1.22,-1.22,-0.88,-0.98,-2.42,-2.38,-2.37
376.56,-1.19,1.19,-1.20,1.18,-1.18,-0.85,-0.95,-2.37,-2.38,-2.38
380.33,-1.18,1.20,-1.23,1.16,-1.16,-0.83,-0.92,-2.33,-2.38,-2.38
384.13,-1.20,1.17,-1.25,1.13,-1.13,-0.80,-0.89,-2.33,-2.38,-2.37
387.97,-1.25,1.12,-1.28,1.11,-1.11,-0.78,-0.86,-2.36,-2.39,-2.37
391.85,-1.30,1.08,-1.30,1.09,-1.09,-0.75,-0.83,-2.39,-2.39,-2.38
395.77,-1.35,1.04,-1.32,1.07,-1.07,-0.73,-0.80,-2.42,-2.39,-2.39
399.73,-1.37,1.02,-1.36,1.04,-1.04,-0.71,-0.77,-2.41,-2.40,-2.39
403.72,-1.37,1.01,-1.39,1.01,-1.01,-0.68,-0.74,-2.38,-2.40,-2.38
407.76,-1.42,0.98,-1.43,0.98,-0.98,-0.66,-0.71,-2.40,-2.41,-2.40
411.84,-1.48,0.93,-1.46,0.95,-0.95,-0.64,-0.69,-2.43,-2.41,-2.41
415.96,-1.48,0.93,-1.49,0.92,-0.92,-0.62,-0.66,-2.40,-2.41,-2.41
420.12,-1.46,0.96,-1.51,0.90,-0.90,-0.59,-0.64,-2.35,-2.41,-2.42
424.32,-1.52,0.89,-1.53,0.87,-0.87,-0.57,-0.61,-2.39,-2.40,-2.41
428.56,-1.55,0.84,-1.53,0.85,-0.85,-0.55,-0.59,-2.40,-2.39,-2.39
432.85,-1.57,0.80,-1.53,0.83,-0.83,-0.53,-0.57,-2.40,-2.37,-2.37
437.18,-1.62,0.74,-1.53,0.81,-0.81,-0.51,-0.55,-2.43,-2.34,-2.36
441.55,-1.60,0.73,-1.52,0.79,-0.79,-0.49,-0.53,-2.39,-2.31,-2.33
445.96,-1.55,0.74,-1.50,0.77,-0.77,-0.47,-0.51,-2.32,-2.27,-2.29
450.42,-1.49,0.76,-1.48,0.75,-0.75,-0.45,-0.49,-2.24,-2.23,-2.25
454.93,-1.43,0.77,-1.46,0.73,-0.73,-0.43,-0.47,-2.16,-2.18,-2.20
459.48,-1.37,0.77,-1.43,0.70,-0.70,-0.41,-0.45,-2.07,-2.13,-2.14
464.07,-1.36,0.71,-1.41,0.67,-0.67,-0.39,-0.43,-2.03,-2.08,-2.07
468.71,-1.35,0.67,-1.38,0.65,-0.65,-0.37,-0.41,-2.00,-2.03,-2.02
473.40,-1.31,0.65,-1.34,0.63,-0.63,-0.36,-0.40,-1.94,-1.97,-1.96
478.13,-1.33,0.57,-1.31,0.61,-0.61,-0.34,-0.38,-1.94,-1.92,-1.90
482.91,-1.29,0.56,-1.28,0.59,-0.59,-0.32,-0.37,-1.88,-1.87,-1.85
487.74,-1.25,0.57,-1.26,0.57,-0.57,-0.30,-0.35,-1.82,-1.82,-1.82
492.62,-1.28,0.50,-1.25,0.54,-0.54,-0.28,-0.34,-1.82,-1.78,-1.78
497.55,-1.31,0.43,-1.25,0.51,-0.51,-0.27,-0.33,-1.82,-1.75,-1.74
502.52,-1.28,0.44,-1.25,0.48,-0.48,-0.25,-0.31,-1.75,-1.72,-1.72
507.55,-1.25,0.44,-1.26,0.45,-0.45,-0.23,-0.30,-1.70,-1.71,-1.69
512.62,-1.23,0.45,-1.27,0.43,-0.43,-0.22,-0.29,-1.66,-1.69,-1.68
