frequency,raw,error,smoothed,error_smoothed,equalization,parametric_eq,fixed_band_eq,equalized_raw,equalized_smoothed,target
20.00,-4.76,-12.99,-4.78,-13.01,13.01,12.74,5.10,8.24,8.23,8.23
20.20,-4.68,-12.90,-4.70,-12.92,12.92,12.71,5.23,8.23,8.22,8.22
20.40,-4.61,-12.82,-4.62,-12.83,12.83,12.69,5.36,8.22,8.21,8.20
20.61,-4.53,-12.74,-4.54,-12.74,12.74,12.66,5.50,8.21,8.20,8.20
20.81,-4.46,-12.64,-4.47,-12.66,12.66,12.63,5.64,8.20,8.19,8.18
21.02,-4.38,-12.56,-4.39,-12.58,12.58,12.60,5.78,8.19,8.18,8.18
21.23,-4.32,-12.49,-4.32,-12.50,12.50,12.57,5.93,8.17,8.17,8.17
21.44,-4.26,-12.44,-4.25,-12.42,12.42,12.53,6.08,8.16,8.17,8.18
21.66,-4.20,-12.37,-4.18,-12.34,12.34,12.49,6.24,8.14,8.16,8.17
21.87,-4.14,-12.30,-4.12,-12.27,12.27,12.45,6.40,8.13,8.15,8.16
22.09,-4.08,-12.23,-4.05,-12.20,12.20,12.41,6.56,8.12,8.15,8.15
22.31,-4.02,-12.17,-3.99,-12.13,12.13,12.37,6.73,8.11,8.14,8.15
22.54,-3.97,-12.11,-3.92,-12.06,12.06,12.33,6.90,8.08,8.14,8.14
22.76,-3.92,-12.06,-3.86,-12.00,12.00,12.28,7.08,8.07,8.13,8.13
22.99,-3.86,-11.99,-3.82,-11.94,11.94,12.24,7.26,8.08,8.13,8.12
23.22,-3.76,-11.87,-3.77,-11.89,11.89,12.19,7.44,8.13,8.12,8.11
23.45,-3.65,-11.77,-3.72,-11.84,11.84,12.14,7.63,8.19,8.12,8.12
23.69,-3.54,-11.65,-3.66,-11.78,11.78,12.09,7.83,8.23,8.12,8.11
23.92,-3.43,-11.54,-3.59,-11.71,11.71,12.03,8.03,8.28,8.12,8.11
24.16,-3.43,-11.55,-3.52,-11.64,11.64,11.98,8.23,8.21,8.12,8.12
24.40,-3.47,-11.60,-3.45,-11.57,11.57,11.93,8.44,8.10,8.12,8.12
24.65,-3.51,-11.64,-3.38,-11.50,11.50,11.87,8.66,7.99,8.12,8.12
24.89,-3.55,-11.67,-3.31,-11.43,11.43,11.82,8.87,7.88,8.12,8.12
25.14,-3.46,-11.58,-3.25,-11.37,11.37,11.76,9.09,7.91,8.12,8.12
25.39,-3.28,-11.40,-3.19,-11.31,11.31,11.70,9.32,8.03,8.12,8.12
25.65,-3.09,-11.21,-3.14,-11.27,11.27,11.64,9.55,8.18,8.12,8.12
25.91,-2.92,-11.04,-3.10,-11.23,11.23,11.58,9.78,8.31,8.12,8.12
26.16,-2.85,-10.98,-3.06,-11.18,11.18,11.52,10.01,8.33,8.13,8.13
26.43,-2.85,-10.98,-3.00,-11.13,11.13,11.46,10.24,8.28,8.13,8.13
26.69,-2.86,-10.99,-2.94,-11.07,11.07,11.40,10.48,8.21,8.13,8.13
26.96,-2.87,-11.00,-2.88,-11.00,11.00,11.34,10.71,8.13,8.12,8.13
27.23,-2.86,-10.99,-2.81,-10.93,10.93,11.28,10.95,8.07,8.12,8.12
27.50,-2.85,-10.97,-2.75,-10.87,10.87,11.21,11.18,8.02,8.12,8.12
27.77,-2.84,-10.97,-2.70,-10.82,10.82,11.15,11.41,7.98,8.12,8.13
28.05,-2.81,-10.94,-2.65,-10.77,10.77,11.09,11.63,7.96,8.12,8.13
28.33,-2.67,-10.78,-2.60,-10.72,10.72,11.02,11.84,8.05,8.12,8.11
28.62,-2.54,-10.65,-2.55,-10.67,10.67,10.96,12.04,8.12,8.12,8.11
28.90,-2.41,-10.53,-2.49,-10.61,10.61,10.89,12.24,8.19,8.12,8.12
29.19,-2.34,-10.46,-2.43,-10.54,10.54,10.83,12.41,8.20,8.11,8.11
29.48,-2.32,-10.43,-2.36,-10.47,10.47,10.76,12.57,8.15,8.11,8.11
29.78,-2.29,-10.40,-2.30,-10.40,10.40,10.70,12.71,8.11,8.11,8.11
30.08,-2.25,-10.37,-2.24,-10.34,10.34,10.63,12.83,8.09,8.10,8.11
30.38,-2.16,-10.26,-2.19,-10.28,10.28,10.56,12.93,8.12,8.09,8.10
30.68,-2.08,-10.17,-2.14,-10.23,10.23,10.50,13.00,8.15,8.09,8.09
30.99,-1.99,-10.08,-2.11,-10.19,10.19,10.43,13.05,8.20,8.08,8.08
31.30,-2.03,-10.10,-2.09,-10.16,10.16,10.36,13.07,8.13,8.07,8.07
31.61,-2.06,-10.13,-2.07,-10.13,10.13,10.30,13.06,8.07,8.06,8.06
31.93,-2.10,-10.15,-2.04,-10.10,10.10,10.23,13.03,8.00,8.06,8.05
32.24,-2.07,-10.12,-2.01,-10.06,10.06,10.16,12.97,7.99,8.05,8.05
32.57,-2.01,-10.04,-1.96,-10.00,10.00,10.10,12.88,7.99,8.04,8.03
32.89,-1.95,-9.98,-1.90,-9.93,9.93,10.03,12.77,7.98,8.03,8.03
33.22,-1.91,-9.93,-1.84,-9.86,9.86,9.96,12.65,7.95,8.03,8.02
33.55,-1.87,-9.89,-1.79,-9.81,9.81,9.89,12.50,7.93,8.02,8.02
33.89,-1.83,-9.85,-1.74,-9.75,9.75,9.83,12.34,7.92,8.01,8.02
34.23,-1.72,-9.73,-1.69,-9.70,9.70,9.76,12.17,7.97,8.01,8.00
34.57,-1.57,-9.57,-1.63,-9.63,9.63,9.69,11.98,8.06,8.00,8.00
34.92,-1.42,-9.42,-1.56,-9.56,9.56,9.62,11.79,8.14,7.99,7.99
35.27,-1.34,-9.34,-1.49,-9.48,9.48,9.55,11.59,8.13,7.99,8.00
35.62,-1.29,-9.27,-1.41,-9.39,9.39,9.49,11.38,8.10,7.98,7.98
35.97,-1.24,-9.22,-1.34,-9.31,9.31,9.42,11.18,8.06,7.96,7.97
36.33,-1.30,-9.26,-1.29,-9.24,9.24,9.35,10.97,7.94,7.95,7.95
36.70,-1.36,-9.30,-1.25,-9.18,9.18,9.28,10.76,7.82,7.93,7.94
37.06,-1.38,-9.30,-1.19,-9.10,9.10,9.21,10.55,7.72,7.91,7.92
37.43,-1.23,-9.12,-1.11,-9.01,9.01,9.14,10.34,7.78,7.89,7.89
37.81,-1.08,-8.96,-1.05,-8.92,8.92,9.08,10.13,7.83,7.87,7.87
38.19,-0.96,-8.81,-1.00,-8.84,8.84,9.01,9.93,7.88,7.84,7.84
38.57,-0.88,-8.70,-0.96,-8.77,8.77,8.94,9.73,7.89,7.82,7.82
38.95,-0.80,-8.59,-0.91,-8.70,8.70,8.87,9.53,7.90,7.79,7.79
39.34,-0.84,-8.59,-0.87,-8.62,8.62,8.80,9.34,7.78,7.76,7.75
39.74,-0.90,-8.63,-0.81,-8.54,8.54,8.73,9.16,7.64,7.73,7.73
40.14,-0.86,-8.56,-0.76,-8.46,8.46,8.66,8.98,7.59,7.70,7.70
40.54,-0.61,-8.28,-0.70,-8.37,8.37,8.59,8.80,7.75,7.67,7.67
40.94,-0.36,-8.00,-0.65,-8.29,8.29,8.52,8.63,7.92,7.64,7.63
41.35,-0.50,-8.12,-0.61,-8.22,8.22,8.45,8.46,7.71,7.61,7.61
41.76,-0.70,-8.27,-0.58,-8.16,8.16,8.38,8.30,7.45,7.58,7.57
42.18,-0.75,-8.30,-0.55,-8.10,8.10,8.31,8.15,7.35,7.55,7.55
42.60,-0.60,-8.13,-0.51,-8.03,8.03,8.24,8.00,7.43,7.52,7.52
43.03,-0.47,-7.96,-0.47,-7.96,7.96,8.17,7.85,7.49,7.49,7.49
43.46,-0.41,-7.87,-0.43,-7.89,7.89,8.09,7.71,7.48,7.46,7.46
43.90,-0.35,-7.79,-0.38,-7.82,7.82,8.02,7.58,7.46,7.43,7.43
44.33,-0.32,-7.72,-0.34,-7.74,7.74,7.95,7.45,7.42,7.40,7.40
44.78,-0.29,-7.65,-0.30,-7.67,7.67,7.88,7.33,7.37,7.37,7.36
45.23,-0.25,-7.60,-0.27,-7.60,7.60,7.80,7.21,7.34,7.33,7.35
45.68,-0.20,-7.50,-0.22,-7.51,7.51,7.73,7.09,7.31,7.29,7.30
46.13,-0.16,-7.41,-0.16,-7.41,7.41,7.66,6.99,7.25,7.25,7.25
46.60,-0.11,-7.33,-0.10,-7.31,7.31,7.58,6.88,7.20,7.21,7.21
47.06,-0.06,-7.24,-0.05,-7.22,7.22,7.51,6.78,7.15,7.17,7.17
47.53,-0.02,-7.16,-0.01,-7.13,7.13,7.43,6.69,7.11,7.12,7.14
48.01,0.03,-7.05,0.02,-7.06,7.06,7.35,6.59,7.08,7.07,7.08
48.49,0.08,-6.95,0.04,-6.99,6.99,7.28,6.51,7.06,7.03,7.03
48.97,0.14,-6.84,0.08,-6.90,6.90,7.20,6.42,7.04,6.98,6.97
49.46,0.14,-6.79,0.12,-6.81,6.81,7.12,6.34,6.94,6.93,6.93
49.96,0.14,-6.72,0.17,-6.71,6.71,7.05,6.27,6.85,6.88,6.86
50.46,0.19,-6.63,0.21,-6.61,6.61,6.97,6.19,6.80,6.83,6.82
50.96,0.24,-6.53,0.27,-6.51,6.51,6.89,6.12,6.75,6.78,6.77
51.47,0.29,-6.44,0.30,-6.43,6.43,6.81,6.06,6.71,6.72,6.73
51.99,0.34,-6.33,0.31,-6.36,6.36,6.73,5.99,6.70,6.67,6.67
52.51,0.27,-6.35,0.34,-6.28,6.28,6.65,5.93,6.55,6.62,6.62
53.03,0.22,-6.37,0.38,-6.19,6.19,6.57,5.87,6.41,6.57,6.59
53.56,0.49,-6.04,0.42,-6.09,6.09,6.48,5.81,6.58,6.52,6.53
54.10,0.69,-5.78,0.47,-6.00,6.00,6.40,5.75,6.69,6.47,6.47
54.64,0.60,-5.82,0.50,-5.92,5.92,6.32,5.70,6.52,6.42,6.42
55.18,0.54,-5.82,0.53,-5.84,5.84,6.23,5.64,6.38,6.37,6.35
55.74,0.54,-5.76,0.56,-5.76,5.76,6.15,5.58,6.30,6.32,6.30
56.29,0.48,-5.78,0.58,-5.69,5.69,6.06,5.53,6.17,6.27,6.26
56.86,0.35,-5.87,0.61,-5.61,5.61,5.98,5.47,5.96,6.22,6.21
57.42,0.59,-5.56,0.65,-5.51,5.51,5.89,5.41,6.10,6.17,6.15
58.00,0.96,-5.16,0.68,-5.43,5.43,5.80,5.36,6.39,6.12,6.11
58.58,0.88,-5.20,0.71,-5.35,5.35,5.72,5.30,6.23,6.06,6.07
59.16,0.77,-5.26,0.73,-5.27,5.27,5.63,5.23,6.04,6.00,6.03
59.76,0.59,-5.39,0.74,-5.20,5.20,5.54,5.17,5.79,5.95,5.98
60.35,0.63,-5.28,0.77,-5.12,5.12,5.45,5.11,5.75,5.89,5.90
60.96,0.83,-5.02,0.81,-5.02,5.02,5.36,5.04,5.84,5.83,5.84
61.57,0.84,-4.93,0.86,-4.91,4.91,5.27,4.97,5.75,5.77,5.77
62.18,0.90,-4.80,0.89,-4.82,4.82,5.18,4.89,5.71,5.70,5.69
62.80,1.10,-4.52,0.89,-4.74,4.74,5.09,4.82,5.84,5.64,5.62
63.43,0.97,-4.58,0.91,-4.66,4.66,4.99,4.74,5.63,5.57,5.55
64.07,0.74,-4.75,0.92,-4.59,4.59,4.90,4.66,5.32,5.50,5.49
64.71,0.95,-4.48,0.93,-4.50,4.50,4.81,4.57,5.45,5.43,5.42
65.35,1.04,-4.33,0.98,-4.39,4.39,4.71,4.48,5.42,5.36,5.36
66.01,1.04,-4.25,1.02,-4.27,4.27,4.62,4.39,5.31,5.29,5.29
66.67,1.04,-4.20,1.06,-4.16,4.16,4.52,4.30,5.20,5.22,5.24
67.33,1.04,-4.12,1.08,-4.07,4.07,4.43,4.21,5.11,5.15,5.15
68.01,1.04,-4.05,1.09,-3.99,3.99,4.33,4.11,5.03,5.08,5.09
68.69,0.90,-4.11,1.10,-3.91,3.91,4.23,4.01,4.81,5.01,5.01
69.37,1.07,-3.88,1.12,-3.82,3.82,4.14,3.91,4.89,4.94,4.95
70.07,1.43,-3.45,1.14,-3.73,3.73,4.04,3.80,5.16,4.87,4.87
70.77,1.29,-3.51,1.17,-3.62,3.62,3.94,3.70,4.91,4.80,4.80
71.48,1.24,-3.49,1.19,-3.53,3.53,3.84,3.59,4.77,4.72,4.73
72.19,1.24,-3.41,1.19,-3.46,3.46,3.75,3.49,4.70,4.65,4.64
72.91,1.24,-3.33,1.21,-3.37,3.37,3.65,3.38,4.60,4.57,4.57
73.64,1.17,-3.33,1.24,-3.26,3.26,3.55,3.27,4.42,4.50,4.49
74.38,1.13,-3.30,1.27,-3.16,3.16,3.45,3.16,4.29,4.43,4.43
75.12,1.15,-3.20,1.29,-3.07,3.07,3.35,3.05,4.22,4.36,4.35
75.87,1.31,-2.98,1.31,-2.98,2.98,3.25,2.94,4.29,4.29,4.29
76.63,1.34,-2.88,1.33,-2.90,2.90,3.15,2.83,4.23,4.22,4.22
77.40,1.34,-2.82,1.33,-2.82,2.82,3.05,2.72,4.16,4.15,4.15
78.17,1.34,-2.74,1.34,-2.74,2.74,2.95,2.61,4.08,4.09,4.08
78.95,1.34,-2.68,1.38,-2.64,2.64,2.85,2.51,3.98,4.02,4.02
79.74,1.54,-2.42,1.41,-2.54,2.54,2.75,2.40,4.08,3.95,3.96
80.54,1.61,-2.28,1.44,-2.45,2.45,2.65,2.29,4.05,3.89,3.89
81.35,1.48,-2.34,1.47,-2.35,2.35,2.55,2.19,3.82,3.82,3.82
82.16,1.29,-2.47,1.50,-2.26,2.26,2.45,2.08,3.54,3.75,3.76
82.98,1.52,-2.17,1.50,-2.18,2.18,2.35,1.97,3.70,3.68,3.69
83.81,1.54,-2.08,1.51,-2.11,2.11,2.25,1.87,3.65,3.62,3.62
84.65,1.54,-2.01,1.51,-2.04,2.04,2.15,1.77,3.58,3.55,3.55
85.50,1.54,-1.92,1.51,-1.96,1.96,2.05,1.66,3.50,3.47,3.46
86.35,1.54,-1.86,1.52,-1.88,1.88,1.95,1.56,3.42,3.40,3.40
87.22,1.54,-1.79,1.53,-1.80,1.80,1.85,1.46,3.34,3.33,3.33
88.09,1.54,-1.72,1.53,-1.72,1.72,1.75,1.36,3.26,3.26,3.25
88.97,1.55,-1.64,1.53,-1.65,1.65,1.65,1.26,3.19,3.18,3.19
89.86,1.51,-1.59,1.55,-1.55,1.55,1.56,1.16,3.06,3.10,3.10
90.76,1.40,-1.63,1.58,-1.45,1.45,1.46,1.06,2.84,3.03,3.03
91.66,1.52,-1.42,1.59,-1.36,1.36,1.36,0.97,2.87,2.94,2.94
92.58,1.63,-1.24,1.58,-1.28,1.28,1.26,0.87,2.91,2.86,2.87
93.51,1.65,-1.14,1.58,-1.20,1.20,1.17,0.77,2.85,2.78,2.79
94.44,1.65,-1.06,1.58,-1.11,1.11,1.07,0.68,2.75,2.69,2.70
95.39,1.65,-0.96,1.59,-1.01,1.01,0.97,0.58,2.66,2.60,2.61
96.34,1.65,-0.87,1.60,-0.92,0.92,0.88,0.49,2.56,2.51,2.52
97.30,1.64,-0.79,1.61,-0.82,0.82,0.78,0.40,2.46,2.42,2.43
98.28,1.63,-0.70,1.61,-0.72,0.72,0.69,0.31,2.35,2.33,2.33
99.26,1.60,-0.63,1.61,-0.62,0.62,0.59,0.21,2.22,2.24,2.23
100.25,1.52,-0.62,1.62,-0.53,0.53,0.50,0.12,2.04,2.14,2.13
101.25,1.47,-0.58,1.61,-0.43,0.43,0.41,0.03,1.90,2.05,2.05
102.27,1.59,-0.37,1.60,-0.36,0.36,0.31,-0.06,1.94,1.95,1.95
103.29,1.63,-0.23,1.58,-0.28,0.28,0.22,-0.15,1.90,1.86,1.86
104.32,1.64,-0.13,1.58,-0.19,0.19,0.13,-0.23,1.83,1.77,1.77
105.37,1.61,-0.07,1.57,-0.10,0.10,0.04,-0.32,1.71,1.67,1.68
106.42,1.59,0.01,1.55,-0.03,0.03,-0.05,-0.40,1.61,1.58,1.58
107.48,1.57,0.09,1.53,0.05,-0.05,-0.14,-0.49,1.52,1.49,1.48
108.56,1.54,0.14,1.52,0.12,-0.12,-0.23,-0.57,1.41,1.39,1.40
109.64,1.52,0.21,1.50,0.20,-0.20,-0.31,-0.65,1.32,1.30,1.31
110.74,1.50,0.29,1.50,0.28,-0.28,-0.40,-0.73,1.22,1.21,1.21
111.85,1.48,0.35,1.49,0.37,-0.37,-0.49,-0.81,1.11,1.12,1.13
112.97,1.47,0.43,1.48,0.44,-0.44,-0.57,-0.89,1.02,1.04,1.04
114.10,1.47,0.51,1.47,0.52,-0.52,-0.66,-0.96,0.95,0.95,0.96
115.24,1.45,0.58,1.47,0.60,-0.60,-0.74,-1.03,0.85,0.87,0.86
116.39,1.37,0.60,1.47,0.69,-0.69,-0.82,-1.10,0.68,0.78,0.77
117.55,1.33,0.63,1.48,0.78,-0.78,-0.91,-1.17,0.55,0.70,0.70
118.73,1.49,0.88,1.49,0.87,-0.87,-0.99,-1.24,0.62,0.62,0.61
119.92,1.58,1.04,1.51,0.97,-0.97,-1.07,-1.30,0.61,0.55,0.53
121.12,1.59,1.11,1.53,1.06,-1.06,-1.15,-1.36,0.53,0.47,0.47
122.33,1.60,1.21,1.55,1.16,-1.16,-1.23,-1.42,0.44,0.39,0.39
123.55,1.61,1.28,1.56,1.25,-1.25,-1.30,-1.48,0.36,0.32,0.32
124.79,1.61,1.35,1.59,1.34,-1.34,-1.38,-1.53,0.26,0.24,0.25
126.03,1.62,1.44,1.61,1.45,-1.45,-1.46,-1.58,0.17,0.17,0.18
127.29,1.63,1.53,1.64,1.54,-1.54,-1.53,-1.63,0.09,0.09,0.10
128.57,1.63,1.60,1.65,1.63,-1.63,-1.61,-1.68,-0.00,0.02,0.02
129.85,1.64,1.69,1.67,1.72,-1.72,-1.68,-1.72,-0.08,-0.05,-0.05
131.15,1.65,1.77,1.67,1.79,-1.79,-1.75,-1.76,-0.15,-0.12,-0.13
132.46,1.65,1.85,1.67,1.86,-1.86,-1.82,-1.80,-0.21,-0.19,-0.20
133.79,1.65,1.92,1.65,1.92,-1.92,-1.89,-1.84,-0.27,-0.27,-0.27
135.12,1.66,2.00,1.64,1.98,-1.98,-1.96,-1.88,-0.32,-0.34,-0.34
136.48,1.70,2.10,1.63,2.04,-2.04,-2.03,-1.92,-0.35,-0.41,-0.40
137.84,1.77,2.24,1.62,2.10,-2.10,-2.10,-1.95,-0.34,-0.48,-0.47
139.22,1.65,2.21,1.62,2.17,-2.17,-2.17,-1.98,-0.52,-0.55,-0.56
140.61,1.57,2.18,1.61,2.23,-2.23,-2.23,-2.02,-0.66,-0.62,-0.62
142.02,1.57,2.26,1.60,2.29,-2.29,-2.30,-2.05,-0.72,-0.69,-0.69
143.44,1.57,2.33,1.60,2.36,-2.36,-2.36,-2.08,-0.79,-0.76,-0.77
144.87,1.57,2.40,1.60,2.43,-2.43,-2.42,-2.11,-0.86,-0.83,-0.83
146.32,1.50,2.39,1.61,2.50,-2.50,-2.49,-2.15,-1.00,-0.89,-0.89
147.78,1.47,2.43,1.61,2.57,-2.57,-2.55,-2.18,-1.10,-0.96,-0.96
149.26,1.60,2.63,1.61,2.64,-2.64,-2.61,-2.21,-1.04,-1.03,-1.03
150.75,1.67,2.78,1.61,2.71,-2.71,-2.67,-2.25,-1.04,-1.10,-1.11
152.26,1.67,2.83,1.61,2.78,-2.78,-2.72,-2.28,-1.11,-1.17,-1.16
153.78,1.67,2.90,1.62,2.85,-2.85,-2.78,-2.32,-1.18,-1.23,-1.23
155.32,1.67,2.96,1.63,2.93,-2.93,-2.84,-2.35,-1.26,-1.30,-1.29
156.88,1.71,3.07,1.63,3.00,-3.00,-2.89,-2.39,-1.30,-1.37,-1.37
158.44,1.72,3.16,1.63,3.07,-3.07,-2.95,-2.43,-1.35,-1.44,-1.44
160.03,1.61,3.12,1.62,3.13,-3.13,-3.00,-2.47,-1.53,-1.51,-1.51
161.63,1.58,3.15,1.62,3.20,-3.20,-3.05,-2.52,-1.62,-1.58,-1.58
163.24,1.57,3.22,1.61,3.27,-3.27,-3.10,-2.56,-1.70,-1.65,-1.65
164.88,1.56,3.28,1.60,3.33,-3.33,-3.15,-2.61,-1.77,-1.72,-1.72
166.53,1.56,3.35,1.58,3.37,-3.37,-3.20,-2.66,-1.82,-1.79,-1.80
168.19,1.55,3.41,1.56,3.43,-3.43,-3.25,-2.71,-1.88,-1.86,-1.86
169.87,1.54,3.47,1.55,3.48,-3.48,-3.30,-2.76,-1.94,-1.93,-1.93
171.57,1.54,3.54,1.53,3.54,-3.54,-3.34,-2.82,-2.00,-2.00,-2.00
173.29,1.53,3.60,1.52,3.59,-3.59,-3.39,-2.88,-2.06,-2.07,-2.07
175.02,1.53,3.66,1.51,3.64,-3.64,-3.43,-2.94,-2.11,-2.13,-2.13
176.77,1.52,3.72,1.50,3.70,-3.70,-3.47,-3.00,-2.18,-2.20,-2.20
178.54,1.57,3.83,1.50,3.76,-3.76,-3.52,-3.07,-2.19,-2.26,-2.26
180.32,1.53,3.86,1.50,3.82,-3.82,-3.56,-3.13,-2.29,-2.32,-2.33
182.13,1.46,3.84,1.50,3.88,-3.88,-3.60,-3.20,-2.42,-2.38,-2.38
183.95,1.44,3.87,1.50,3.94,-3.94,-3.64,-3.28,-2.50,-2.44,-2.44
185.79,1.45,3.94,1.50,3.99,-3.99,-3.68,-3.35,-2.54,-2.50,-2.50
187.65,1.47,4.01,1.49,4.04,-4.04,-3.71,-3.43,-2.58,-2.55,-2.55
189.52,1.48,4.08,1.49,4.09,-4.09,-3.75,-3.51,-2.62,-2.60,-2.61
191.42,1.49,4.13,1.49,4.14,-4.14,-3.79,-3.59,-2.66,-2.66,-2.64
193.33,1.51,4.21,1.49,4.19,-4.19,-3.82,-3.67,-2.69,-2.71,-2.70
195.27,1.55,4.30,1.49,4.25,-4.25,-3.85,-3.76,-2.70,-2.76,-2.76
197.22,1.56,4.37,1.49,4.30,-4.30,-3.89,-3.85,-2.74,-2.81,-2.81
199.19,1.49,4.34,1.50,4.35,-4.35,-3.92,-3.94,-2.86,-2.85,-2.86
201.18,1.46,4.37,1.50,4.40,-4.40,-3.95,-4.03,-2.94,-2.90,-2.91
203.19,1.46,4.41,1.49,4.44,-4.44,-3.98,-4.12,-2.98,-2.95,-2.95
205.23,1.46,4.45,1.48,4.48,-4.48,-4.01,-4.21,-3.02,-3.00,-2.99
207.28,1.46,4.49,1.46,4.50,-4.50,-4.04,-4.30,-3.04,-3.04,-3.03
209.35,1.46,4.54,1.44,4.52,-4.52,-4.06,-4.39,-3.07,-3.09,-3.08
211.44,1.47,4.60,1.42,4.55,-4.55,-4.09,-4.49,-3.08,-3.13,-3.13
213.56,1.48,4.64,1.40,4.57,-4.57,-4.12,-4.58,-3.09,-3.17,-3.16
215.69,1.43,4.64,1.37,4.59,-4.59,-4.14,-4.67,-3.16,-3.21,-3.21
217.85,1.36,4.60,1.35,4.60,-4.60,-4.17,-4.76,-3.24,-3.25,-3.25
220.03,1.26,4.56,1.32,4.61,-4.61,-4.19,-4.84,-3.36,-3.29,-3.30
222.23,1.23,4.56,1.30,4.63,-4.63,-4.21,-4.93,-3.40,-3.33,-3.33
224.45,1.24,4.61,1.28,4.64,-4.64,-4.23,-5.01,-3.40,-3.36,-3.37
226.70,1.24,4.64,1.26,4.65,-4.65,-4.25,-5.08,-3.42,-3.39,-3.40
228.96,1.25,4.67,1.25,4.67,-4.67,-4.27,-5.16,-3.42,-3.42,-3.42
231.25,1.27,4.71,1.24,4.68,-4.68,-4.29,-5.22,-3.41,-3.44,-3.44
233.57,1.27,4.74,1.22,4.69,-4.69,-4.31,-5.28,-3.42,-3.47,-3.47
235.90,1.18,4.67,1.22,4.70,-4.70,-4.32,-5.34,-3.53,-3.48,-3.49
238.26,1.19,4.70,1.22,4.72,-4.72,-4.34,-5.39,-3.53,-3.50,-3.51
240.64,1.21,4.72,1.23,4.74,-4.74,-4.35,-5.43,-3.54,-3.52,-3.51
243.05,1.22,4.74,1.24,4.76,-4.76,-4.37,-5.47,-3.55,-3.53,-3.53
245.48,1.24,4.78,1.24,4.78,-4.78,-4.38,-5.49,-3.55,-3.54,-3.54
247.93,1.27,4.83,1.24,4.79,-4.79,-4.39,-5.51,-3.53,-3.55,-3.56
250.41,1.29,4.84,1.24,4.80,-4.80,-4.41,-5.52,-3.51,-3.56,-3.55
252.92,1.24,4.80,1.23,4.80,-4.80,-4.42,-5.53,-3.56,-3.57,-3.56
255.45,1.22,4.80,1.21,4.80,-4.80,-4.43,-5.52,-3.58,-3.59,-3.58
258.00,1.22,4.81,1.20,4.80,-4.80,-4.44,-5.51,-3.58,-3.60,-3.59
260.58,1.23,4.83,1.18,4.80,-4.80,-4.45,-5.49,-3.57,-3.61,-3.60
263.19,1.22,4.83,1.17,4.80,-4.80,-4.45,-5.47,-3.58,-3.63,-3.62
265.82,1.15,4.79,1.15,4.80,-4.80,-4.46,-5.43,-3.65,-3.64,-3.64
268.48,1.13,4.78,1.13,4.79,-4.79,-4.47,-5.39,-3.66,-3.66,-3.65
271.16,1.09,4.76,1.11,4.78,-4.78,-4.47,-5.35,-3.70,-3.67,-3.67
273.87,1.02,4.70,1.09,4.77,-4.77,-4.48,-5.30,-3.76,-3.69,-3.68
276.61,1.02,4.72,1.06,4.76,-4.76,-4.48,-5.24,-3.75,-3.70,-3.70
279.38,1.02,4.75,1.04,4.76,-4.76,-4.48,-5.19,-3.74,-3.71,-3.74
282.17,1.02,4.75,1.02,4.75,-4.75,-4.48,-5.12,-3.73,-3.73,-3.74
284.99,1.02,4.76,1.01,4.74,-4.74,-4.49,-5.06,-3.72,-3.74,-3.75
287.84,1.03,4.77,0.99,4.73,-4.73,-4.49,-4.99,-3.70,-3.75,-3.74
290.72,1.04,4.80,0.97,4.73,-4.73,-4.49,-4.92,-3.69,-3.75,-3.76
293.63,0.97,4.73,0.96,4.72,-4.72,-4.49,-4.85,-3.75,-3.76,-3.76
296.57,0.93,4.69,0.95,4.71,-4.71,-4.48,-4.78,-3.78,-3.77,-3.76
299.53,0.89,4.66,0.93,4.70,-4.70,-4.48,-4.70,-3.81,-3.77,-3.77
302.53,0.89,4.65,0.91,4.69,-4.69,-4.48,-4.63,-3.80,-3.78,-3.77
305.55,0.90,4.67,0.90,4.68,-4.68,-4.48,-4.56,-3.78,-3.78,-3.77
308.61,0.91,4.68,0.88,4.66,-4.66,-4.47,-4.49,-3.75,-3.78,-3.77
311.69,0.86,4.65,0.86,4.64,-4.64,-4.47,-4.42,-3.79,-3.79,-3.79
314.81,0.83,4.61,0.83,4.63,-4.63,-4.46,-4.35,-3.80,-3.79,-3.79
317.96,0.82,4.62,0.81,4.60,-4.60,-4.45,-4.29,-3.79,-3.79,-3.80
321.14,0.81,4.61,0.78,4.58,-4.58,-4.45,-4.22,-3.77,-3.80,-3.80
324.35,0.74,4.54,0.76,4.56,-4.56,-4.44,-4.16,-3.82,-3.80,-3.80
327.59,0.72,4.52,0.74,4.54,-4.54,-4.43,-4.10,-3.83,-3.81,-3.80
330.87,0.72,4.52,0.72,4.53,-4.53,-4.42,-4.04,-3.81,-3.81,-3.81
334.18,0.72,4.54,0.69,4.50,-4.50,-4.41,-3.99,-3.79,-3.81,-3.82
337.52,0.69,4.50,0.66,4.48,-4.48,-4.40,-3.93,-3.79,-3.82,-3.82
340.90,0.63,4.45,0.63,4.45,-4.45,-4.39,-3.88,-3.82,-3.82,-3.82
344.30,0.61,4.42,0.60,4.42,-4.42,-4.38,-3.84,-3.81,-3.82,-3.82
347.75,0.55,4.36,0.57,4.39,-4.39,-4.36,-3.79,-3.84,-3.81,-3.81
351.23,0.51,4.33,0.55,4.36,-4.36,-4.35,-3.75,-3.85,-3.81,-3.83
354.74,0.52,4.33,0.52,4.33,-4.33,-4.34,-3.71,-3.82,-3.81,-3.81
358.28,0.52,4.33,0.50,4.31,-4.31,-4.32,-3.68,-3.79,-3.81,-3.81
361.87,0.51,4.32,0.47,4.28,-4.28,-4.31,-3.64,-3.77,-3.81,-3.81
365.49,0.45,4.25,0.44,4.25,-4.25,-4.29,-3.62,-3.80,-3.80,-3.80
369.14,0.40,4.19,0.41,4.21,-4.21,-4.27,-3.59,-3.82,-3.80,-3.79
372.83,0.36,4.15,0.39,4.18,-4.18,-4.26,-3.56,-3.83,-3.80,-3.79
376.56,0.35,4.14,0.37,4.16,-4.16,-4.24,-3.54,-3.81,-3.80,-3.79
380.33,0.36,4.15,0.35,4.14,-4.14,-4.22,-3.52,-3.78,-3.80,-3.80
384.13,0.37,4.16,0.32,4.12,-4.12,-4.20,-3.51,-3.75,-3.80,-3.79
387.97,0.32,4.11,0.29,4.09,-4.09,-4.18,-3.50,-3.77,-3.80,-3.79
391.85,0.26,4.05,0.26,4.06,-4.06,-4.16,-3.48,-3.81,-3.80,-3.79
395.77,0.20,4.00,0.23,4.04,-4.04,-4.14,-3.48,-3.84,-3.81,-3.81
399.73,0.18,3.99,0.19,4.01,-4.01,-4.12,-3.47,-3.83,-3.82,-3.81
403.72,0.17,3.97,0.16,3.98,-3.98,-4.09,-3.46,-3.82,-3.82,-3.80
407.76,0.17,3.99,0.14,3.96,-3.96,-4.07,-3.46,-3.79,-3.83,-3.82
411.84,0.17,3.99,0.11,3.94,-3.94,-4.05,-3.46,-3.77,-3.83,-3.83
415.96,0.10,3.93,0.08,3.91,-3.91,-4.02,-3.46,-3.81,-3.83,-3.83
420.12,0.02,3.86,0.05,3.88,-3.88,-4.00,-3.46,-3.86,-3.83,-3.84
424.32,-0.02,3.81,0.02,3.84,-3.84,-3.97,-3.46,-3.86,-3.82,-3.83
428.56,-0.02,3.79,-0.00,3.81,-3.81,-3.95,-3.47,-3.83,-3.81,-3.82
432.85,-0.01,3.79,-0.01,3.78,-3.78,-3.92,-3.47,-3.79,-3.79,-3.80
437.18,-0.02,3.77,-0.01,3.75,-3.75,-3.89,-3.47,-3.77,-3.76,-3.79
441.55,-0.03,3.72,-0.01,3.72,-3.72,-3.86,-3.48,-3.75,-3.73,-3.75
445.96,-0.00,3.71,-0.01,3.69,-3.69,-3.84,-3.48,-3.69,-3.70,-3.71
450.42,-0.02,3.65,-0.00,3.65,-3.65,-3.81,-3.48,-3.68,-3.66,-3.67
454.93,-0.03,3.59,0.01,3.62,-3.62,-3.78,-3.48,-3.65,-3.61,-3.63
459.48,-0.02,3.55,0.03,3.59,-3.59,-3.75,-3.48,-3.61,-3.56,-3.57
464.07,0.03,3.53,0.05,3.56,-3.56,-3.71,-3.48,-3.53,-3.51,-3.50
468.71,0.08,3.53,0.07,3.53,-3.53,-3.68,-3.48,-3.45,-3.45,-3.45
473.40,0.15,3.54,0.10,3.50,-3.50,-3.65,-3.48,-3.35,-3.40,-3.39
478.13,0.19,3.52,0.12,3.46,-3.46,-3.62,-3.47,-3.28,-3.35,-3.33
482.91,0.17,3.45,0.14,3.43,-3.43,-3.58,-3.46,-3.27,-3.30,-3.28
487.74,0.15,3.39,0.15,3.40,-3.40,-3.55,-3.45,-3.25,-3.25,-3.25
