frequency,raw,error,smoothed,error_smoothed,equalization,parametric_eq,fixed_band_eq,equalized_raw,equalized_smoothed,target
20.00,-4.76,-11.30,-4.76,-11.30,11.29,11.04,4.39,6.53,6.53,6.53
20.20,-4.68,-11.21,-4.68,-11.21,11.21,11.00,4.51,6.52,6.52,6.52
20.40,-4.61,-11.13,-4.61,-11.12,11.12,10.96,4.62,6.51,6.52,6.51
20.61,-4.53,-11.05,-4.53,-11.04,11.04,10.92,4.74,6.51,6.51,6.51
20.81,-4.46,-10.96,-4.46,-10.96,10.97,10.88,4.87,6.51,6.51,6.49
21.02,-4.38,-10.88,-4.39,-10.88,10.89,10.83,5.00,6.51,6.50,6.49
21.23,-4.32,-10.81,-4.32,-10.81,10.82,10.79,5.13,6.50,6.50,6.48
21.44,-4.26,-10.76,-4.26,-10.75,10.75,10.75,5.26,6.49,6.49,6.49
21.66,-4.20,-10.69,-4.20,-10.68,10.68,10.70,5.40,6.48,6.48,6.48
21.87,-4.14,-10.62,-4.14,-10.62,10.62,10.65,5.54,6.48,6.48,6.47
22.09,-4.08,-10.55,-4.08,-10.55,10.56,10.60,5.69,6.48,6.48,6.46
22.31,-4.02,-10.49,-4.03,-10.49,10.49,10.55,5.84,6.47,6.47,6.46
22.54,-3.97,-10.43,-3.98,-10.43,10.42,10.50,5.99,6.44,6.44,6.45
22.76,-3.92,-10.37,-3.92,-10.36,10.33,10.45,6.15,6.41,6.41,6.44
22.99,-3.86,-10.30,-3.85,-10.29,10.24,10.40,6.31,6.37,6.39,6.43
23.22,-3.76,-10.19,-3.76,-10.19,10.15,10.35,6.48,6.39,6.39,6.42
23.45,-3.65,-10.09,-3.65,-10.07,10.09,10.30,6.65,6.44,6.44,6.43
23.69,-3.54,-9.97,-3.53,-9.96,10.04,10.25,6.82,6.49,6.50,6.42
23.92,-3.43,-9.86,-3.46,-9.89,10.00,10.19,7.00,6.57,6.54,6.42
24.16,-3.43,-9.87,-3.44,-9.87,9.97,10.14,7.18,6.53,6.53,6.43
24.40,-3.47,-9.92,-3.47,-9.91,9.93,10.08,7.37,6.45,6.45,6.44
24.65,-3.51,-9.96,-3.52,-9.97,9.87,10.03,7.55,6.36,6.35,6.44
24.89,-3.55,-9.99,-3.52,-9.96,9.81,9.97,7.74,6.26,6.30,6.44
25.14,-3.46,-9.89,-3.44,-9.88,9.75,9.91,7.94,6.29,6.31,6.43
25.39,-3.28,-9.71,-3.28,-9.72,9.67,9.86,8.14,6.39,6.39,6.43
25.65,-3.09,-9.53,-3.09,-9.53,9.59,9.80,8.33,6.49,6.49,6.43
25.91,-2.92,-9.36,-2.94,-9.39,9.50,9.74,8.53,6.58,6.56,6.44
26.16,-2.85,-9.31,-2.86,-9.32,9.42,9.68,8.74,6.57,6.56,6.45
26.43,-2.85,-9.31,-2.84,-9.30,9.36,9.63,8.94,6.50,6.51,6.45
26.69,-2.86,-9.32,-2.86,-9.31,9.32,9.57,9.14,6.46,6.46,6.45
26.96,-2.87,-9.32,-2.87,-9.31,9.30,9.51,9.34,6.43,6.43,6.44
27.23,-2.86,-9.31,-2.87,-9.31,9.28,9.45,9.53,6.42,6.42,6.44
27.50,-2.85,-9.30,-2.87,-9.31,9.26,9.39,9.73,6.41,6.40,6.44
27.77,-2.84,-9.30,-2.84,-9.29,9.22,9.33,9.92,6.38,6.38,6.45
28.05,-2.81,-9.27,-2.78,-9.23,9.16,9.27,10.10,6.35,6.38,6.45
28.33,-2.67,-9.11,-2.68,-9.12,9.10,9.20,10.27,6.43,6.42,6.43
28.62,-2.54,-8.98,-2.55,-8.98,9.02,9.14,10.44,6.48,6.48,6.43
28.90,-2.41,-8.86,-2.43,-8.87,8.94,9.08,10.59,6.53,6.51,6.44
29.19,-2.34,-8.79,-2.36,-8.79,8.85,9.02,10.73,6.51,6.50,6.44
29.48,-2.32,-8.76,-2.32,-8.76,8.76,8.96,10.85,6.44,6.45,6.43
29.78,-2.29,-8.73,-2.29,-8.73,8.68,8.89,10.96,6.39,6.39,6.43
30.08,-2.25,-8.70,-2.24,-8.68,8.62,8.83,11.05,6.37,6.38,6.44
30.38,-2.16,-8.60,-2.16,-8.59,8.57,8.77,11.11,6.41,6.42,6.43
30.68,-2.08,-8.50,-2.08,-8.50,8.54,8.71,11.16,6.46,6.46,6.41
30.99,-1.99,-8.41,-2.03,-8.44,8.51,8.64,11.19,6.52,6.48,6.41
31.30,-2.03,-8.44,-2.03,-8.43,8.48,8.58,11.20,6.45,6.45,6.40
31.61,-2.06,-8.46,-2.06,-8.46,8.45,8.51,11.18,6.39,6.39,6.39
31.93,-2.10,-8.49,-2.08,-8.47,8.42,8.45,11.14,6.32,6.34,6.38
32.24,-2.07,-8.46,-2.06,-8.44,8.40,8.38,11.08,6.33,6.34,6.38
32.57,-2.01,-8.38,-2.02,-8.39,8.38,8.32,11.01,6.37,6.36,6.36
32.89,-1.95,-8.32,-1.96,-8.32,8.35,8.25,10.91,6.39,6.39,6.36
33.22,-1.91,-8.28,-1.92,-8.28,8.29,8.19,10.80,6.38,6.37,6.36
33.55,-1.87,-8.23,-1.88,-8.24,8.21,8.12,10.67,6.34,6.33,6.35
33.89,-1.83,-8.20,-1.81,-8.17,8.11,8.06,10.53,6.28,6.29,6.36
34.23,-1.72,-8.07,-1.71,-8.06,8.01,7.99,10.38,6.28,6.30,6.34
34.57,-1.57,-7.92,-1.58,-7.92,7.91,7.93,10.22,6.34,6.34,6.34
34.92,-1.42,-7.76,-1.45,-7.78,7.83,7.86,10.05,6.41,6.39,6.33
35.27,-1.34,-7.69,-1.34,-7.67,7.77,7.79,9.87,6.42,6.43,6.34
35.62,-1.29,-7.62,-1.28,-7.61,7.71,7.73,9.69,6.42,6.43,6.32
35.97,-1.24,-7.57,-1.28,-7.60,7.66,7.66,9.50,6.41,6.38,6.32
36.33,-1.30,-7.61,-1.32,-7.62,7.60,7.59,9.32,6.30,6.29,6.30
36.70,-1.36,-7.66,-1.35,-7.64,7.54,7.52,9.13,6.18,6.19,6.29
37.06,-1.38,-7.65,-1.33,-7.61,7.48,7.46,8.94,6.10,6.14,6.27
37.43,-1.23,-7.48,-1.24,-7.49,7.41,7.39,8.75,6.18,6.17,6.25
37.81,-1.08,-7.32,-1.10,-7.34,7.35,7.32,8.57,6.26,6.24,6.23
38.19,-0.96,-7.17,-0.96,-7.17,7.27,7.25,8.38,6.30,6.30,6.20
38.57,-0.88,-7.07,-0.87,-7.05,7.16,7.18,8.20,6.28,6.29,6.18
38.95,-0.80,-6.96,-0.84,-6.99,7.04,7.11,8.02,6.24,6.20,6.15
39.34,-0.84,-6.96,-0.87,-6.99,6.93,7.04,7.84,6.08,6.06,6.11
39.74,-0.90,-7.00,-0.87,-6.96,6.84,6.97,7.67,5.93,5.96,6.09
40.14,-0.86,-6.93,-0.77,-6.83,6.77,6.90,7.50,5.91,6.00,6.06
40.54,-0.61,-6.66,-0.61,-6.65,6.72,6.83,7.34,6.11,6.12,6.04
40.94,-0.36,-6.38,-0.51,-6.52,6.68,6.76,7.18,6.31,6.17,6.01
41.35,-0.50,-6.50,-0.53,-6.52,6.62,6.69,7.02,6.12,6.09,5.99
41.76,-0.70,-6.66,-0.63,-6.59,6.55,6.62,6.87,5.85,5.93,5.95
42.18,-0.75,-6.69,-0.69,-6.62,6.49,6.55,6.72,5.74,5.80,5.93
42.60,-0.60,-6.51,-0.63,-6.54,6.43,6.48,6.58,5.83,5.80,5.91
43.03,-0.47,-6.36,-0.51,-6.39,6.37,6.41,6.44,5.90,5.87,5.88
43.46,-0.41,-6.27,-0.41,-6.26,6.32,6.34,6.31,5.90,5.91,5.85
43.90,-0.35,-6.19,-0.36,-6.18,6.24,6.27,6.18,5.89,5.89,5.83
44.33,-0.32,-6.12,-0.32,-6.12,6.15,6.19,6.05,5.83,5.83,5.79
44.78,-0.29,-6.06,-0.29,-6.06,6.06,6.12,5.93,5.77,5.77,5.76
45.23,-0.25,-6.01,-0.25,-5.99,5.97,6.05,5.81,5.72,5.72,5.75
45.68,-0.20,-5.91,-0.21,-5.92,5.90,5.98,5.70,5.69,5.69,5.70
46.13,-0.16,-5.83,-0.16,-5.83,5.82,5.90,5.59,5.66,5.66,5.66
46.60,-0.11,-5.75,-0.11,-5.74,5.74,5.83,5.49,5.63,5.63,5.63
47.06,-0.06,-5.66,-0.07,-5.66,5.66,5.76,5.38,5.59,5.59,5.59
47.53,-0.02,-5.59,-0.02,-5.57,5.57,5.68,5.29,5.55,5.55,5.56
48.01,0.03,-5.48,0.03,-5.47,5.48,5.61,5.19,5.51,5.52,5.50
48.49,0.08,-5.38,0.08,-5.38,5.39,5.53,5.10,5.47,5.48,5.45
48.97,0.14,-5.28,0.12,-5.30,5.30,5.46,5.01,5.44,5.42,5.41
49.46,0.14,-5.24,0.14,-5.23,5.22,5.38,4.93,5.36,5.36,5.37
49.96,0.14,-5.17,0.16,-5.16,5.15,5.31,4.85,5.29,5.31,5.30
50.46,0.19,-5.08,0.19,-5.08,5.08,5.23,4.77,5.27,5.27,5.26
50.96,0.24,-4.99,0.24,-4.98,5.01,5.16,4.70,5.25,5.25,5.22
51.47,0.29,-4.90,0.29,-4.89,4.93,5.08,4.62,5.21,5.22,5.18
51.99,0.34,-4.80,0.27,-4.87,4.83,5.01,4.55,5.16,5.10,5.13
52.51,0.27,-4.83,0.27,-4.83,4.72,4.93,4.48,4.99,4.99,5.09
53.03,0.22,-4.85,0.35,-4.70,4.64,4.85,4.42,4.85,4.99,5.06
53.56,0.49,-4.52,0.46,-4.55,4.56,4.78,4.35,5.05,5.02,5.00
54.10,0.69,-4.27,0.57,-4.39,4.50,4.70,4.29,5.18,5.07,4.95
54.64,0.60,-4.32,0.63,-4.28,4.43,4.62,4.23,5.03,5.06,4.91
55.18,0.54,-4.32,0.59,-4.27,4.34,4.55,4.16,4.88,4.93,4.85
55.74,0.54,-4.27,0.48,-4.33,4.24,4.47,4.10,4.78,4.73,4.80
56.29,0.48,-4.30,0.43,-4.34,4.16,4.39,4.04,4.64,4.59,4.77
56.86,0.35,-4.39,0.50,-4.23,4.10,4.31,3.98,4.45,4.60,4.73
57.42,0.59,-4.08,0.64,-4.05,4.06,4.23,3.92,4.65,4.70,4.67
58.00,0.96,-3.69,0.80,-3.85,4.01,4.16,3.86,4.96,4.80,4.64
58.58,0.88,-3.74,0.86,-3.75,3.93,4.08,3.80,4.81,4.79,4.61
59.16,0.77,-3.81,0.77,-3.81,3.84,4.00,3.74,4.61,4.61,4.57
59.76,0.59,-3.95,0.67,-3.86,3.74,3.92,3.67,4.33,4.41,4.53
60.35,0.63,-3.84,0.67,-3.80,3.65,3.84,3.61,4.28,4.32,4.46
60.96,0.83,-3.59,0.73,-3.68,3.58,3.76,3.55,4.40,4.31,4.41
61.57,0.84,-3.51,0.87,-3.47,3.51,3.68,3.48,4.35,4.38,4.34
62.18,0.90,-3.38,0.98,-3.30,3.44,3.60,3.41,4.34,4.42,4.27
62.80,1.10,-3.12,0.95,-3.26,3.34,3.52,3.34,4.44,4.29,4.21
63.43,0.97,-3.19,0.93,-3.22,3.23,3.44,3.27,4.20,4.16,4.15
64.07,0.74,-3.37,0.91,-3.19,3.13,3.36,3.20,3.87,4.05,4.10
64.71,0.95,-3.10,0.91,-3.14,3.06,3.28,3.12,4.01,3.97,4.04
65.35,1.04,-2.95,0.98,-3.01,3.01,3.20,3.05,4.05,3.98,3.98
66.01,1.04,-2.89,1.05,-2.88,2.95,3.12,2.97,3.99,4.01,3.92
66.67,1.04,-2.85,1.06,-2.81,2.88,3.04,2.89,3.92,3.94,3.88
67.33,1.04,-2.77,1.01,-2.80,2.78,2.96,2.81,3.82,3.79,3.80
68.01,1.04,-2.72,0.97,-2.79,2.67,2.88,2.73,3.71,3.64,3.75
68.69,0.90,-2.79,1.03,-2.66,2.57,2.80,2.65,3.46,3.60,3.68
69.37,1.07,-2.56,1.14,-2.49,2.47,2.71,2.56,3.54,3.61,3.63
70.07,1.43,-2.14,1.24,-2.33,2.38,2.63,2.48,3.81,3.62,3.56
70.77,1.29,-2.22,1.32,-2.19,2.31,2.55,2.39,3.59,3.62,3.50
71.48,1.24,-2.20,1.30,-2.13,2.23,2.47,2.31,3.46,3.53,3.43
72.19,1.24,-2.13,1.23,-2.14,2.14,2.39,2.22,3.38,3.37,3.36
72.91,1.24,-2.07,1.21,-2.10,2.07,2.31,2.13,3.30,3.27,3.30
73.64,1.17,-2.07,1.16,-2.07,2.01,2.23,2.04,3.18,3.17,3.23
74.38,1.13,-2.05,1.16,-2.02,1.96,2.14,1.96,3.08,3.11,3.17
75.12,1.15,-1.96,1.19,-1.92,1.89,2.06,1.87,3.04,3.08,3.10
75.87,1.31,-1.76,1.26,-1.80,1.81,1.98,1.78,3.12,3.07,3.06
76.63,1.34,-1.66,1.32,-1.68,1.71,1.90,1.69,3.05,3.03,2.99
77.40,1.34,-1.61,1.33,-1.61,1.61,1.82,1.60,2.94,2.94,2.94
78.17,1.34,-1.55,1.34,-1.55,1.51,1.73,1.51,2.85,2.86,2.88
78.95,1.34,-1.50,1.42,-1.42,1.43,1.65,1.42,2.77,2.85,2.84
79.74,1.54,-1.25,1.51,-1.28,1.34,1.57,1.33,2.88,2.85,2.78
80.54,1.61,-1.12,1.50,-1.23,1.27,1.49,1.25,2.88,2.77,2.72
81.35,1.48,-1.20,1.48,-1.19,1.20,1.41,1.16,2.68,2.68,2.67
82.16,1.29,-1.34,1.44,-1.18,1.13,1.33,1.07,2.41,2.57,2.62
82.98,1.52,-1.05,1.44,-1.12,1.05,1.24,0.98,2.57,2.50,2.56
83.81,1.54,-0.97,1.50,-1.00,0.98,1.16,0.89,2.52,2.48,2.50
84.65,1.54,-0.91,1.56,-0.88,0.92,1.08,0.81,2.46,2.48,2.44
85.50,1.54,-0.84,1.54,-0.84,0.86,1.00,0.72,2.40,2.40,2.37
86.35,1.54,-0.78,1.54,-0.78,0.80,0.92,0.63,2.34,2.34,2.31
87.22,1.54,-0.73,1.54,-0.72,0.74,0.84,0.55,2.28,2.28,2.26
88.09,1.54,-0.66,1.55,-0.65,0.68,0.76,0.46,2.21,2.22,2.19
88.97,1.55,-0.60,1.51,-0.62,0.61,0.68,0.37,2.16,2.12,2.14
89.86,1.51,-0.56,1.48,-0.59,0.54,0.60,0.29,2.05,2.02,2.06
90.76,1.40,-0.61,1.48,-0.52,0.47,0.52,0.20,1.87,1.95,2.00
91.66,1.52,-0.42,1.52,-0.42,0.38,0.43,0.12,1.90,1.90,1.93
92.58,1.63,-0.25,1.58,-0.29,0.29,0.35,0.03,1.92,1.87,1.87
93.51,1.65,-0.16,1.65,-0.16,0.20,0.27,-0.05,1.85,1.85,1.80
94.44,1.65,-0.09,1.66,-0.07,0.11,0.20,-0.14,1.75,1.77,1.73
95.39,1.65,-0.01,1.65,-0.01,0.02,0.12,-0.23,1.67,1.67,1.65
96.34,1.65,0.07,1.65,0.07,-0.06,0.04,-0.31,1.59,1.59,1.57
97.30,1.64,0.14,1.64,0.15,-0.13,-0.04,-0.40,1.51,1.51,1.49
98.28,1.63,0.22,1.62,0.22,-0.20,-0.12,-0.48,1.43,1.42,1.40
99.26,1.60,0.28,1.57,0.25,-0.27,-0.20,-0.56,1.33,1.30,1.31
100.25,1.52,0.28,1.53,0.29,-0.34,-0.28,-0.65,1.17,1.19,1.23
101.25,1.47,0.30,1.53,0.37,-0.42,-0.36,-0.73,1.05,1.10,1.16
102.27,1.59,0.51,1.56,0.48,-0.50,-0.43,-0.82,1.08,1.06,1.07
103.29,1.63,0.63,1.61,0.61,-0.59,-0.51,-0.90,1.04,1.02,0.99
104.32,1.64,0.71,1.63,0.71,-0.67,-0.59,-0.98,0.97,0.97,0.92
105.37,1.61,0.76,1.62,0.78,-0.75,-0.66,-1.06,0.86,0.87,0.84
106.42,1.59,0.83,1.59,0.83,-0.82,-0.74,-1.14,0.76,0.77,0.75
107.48,1.57,0.90,1.56,0.89,-0.90,-0.82,-1.22,0.67,0.67,0.66
108.56,1.54,0.93,1.54,0.95,-0.96,-0.89,-1.30,0.58,0.58,0.60
109.64,1.52,1.00,1.52,1.00,-1.01,-0.97,-1.38,0.50,0.50,0.51
110.74,1.50,1.06,1.50,1.06,-1.06,-1.04,-1.45,0.44,0.44,0.43
111.85,1.48,1.11,1.48,1.12,-1.10,-1.11,-1.52,0.38,0.38,0.36
112.97,1.47,1.17,1.48,1.18,-1.15,-1.19,-1.60,0.31,0.32,0.29
114.10,1.47,1.24,1.46,1.24,-1.22,-1.26,-1.67,0.25,0.24,0.22
115.24,1.45,1.30,1.41,1.26,-1.29,-1.33,-1.73,0.16,0.12,0.14
116.39,1.37,1.30,1.38,1.31,-1.37,-1.41,-1.80,-0.00,0.01,0.06
117.55,1.33,1.32,1.40,1.40,-1.46,-1.48,-1.86,-0.13,-0.06,0.00
118.73,1.49,1.56,1.46,1.53,-1.55,-1.55,-1.92,-0.06,-0.09,-0.08
119.92,1.58,1.71,1.54,1.67,-1.64,-1.62,-1.98,-0.06,-0.10,-0.14
121.12,1.59,1.77,1.60,1.79,-1.73,-1.69,-2.03,-0.14,-0.13,-0.19
122.33,1.60,1.85,1.60,1.85,-1.82,-1.76,-2.09,-0.22,-0.22,-0.26
123.55,1.61,1.91,1.60,1.91,-1.91,-1.83,-2.13,-0.30,-0.31,-0.31
124.79,1.61,1.97,1.61,1.98,-1.99,-1.90,-2.18,-0.39,-0.38,-0.37
126.03,1.62,2.05,1.62,2.05,-2.06,-1.97,-2.22,-0.45,-0.45,-0.44
127.29,1.63,2.12,1.62,2.12,-2.13,-2.03,-2.27,-0.50,-0.50,-0.50
128.57,1.63,2.18,1.63,2.19,-2.19,-2.10,-2.30,-0.56,-0.56,-0.56
129.85,1.64,2.26,1.64,2.26,-2.26,-2.17,-2.34,-0.62,-0.62,-0.63
131.15,1.65,2.33,1.64,2.33,-2.34,-2.23,-2.37,-0.69,-0.69,-0.69
132.46,1.65,2.39,1.64,2.39,-2.41,-2.30,-2.40,-0.76,-0.76,-0.75
133.79,1.65,2.45,1.65,2.45,-2.47,-2.36,-2.43,-0.83,-0.83,-0.81
135.12,1.66,2.52,1.68,2.54,-2.53,-2.42,-2.46,-0.88,-0.85,-0.87
136.48,1.70,2.60,1.71,2.62,-2.59,-2.49,-2.48,-0.89,-0.88,-0.91
137.84,1.77,2.73,1.70,2.67,-2.63,-2.55,-2.50,-0.86,-0.93,-0.97
139.22,1.65,2.69,1.66,2.69,-2.67,-2.61,-2.53,-1.02,-1.01,-1.05
140.61,1.57,2.65,1.61,2.70,-2.70,-2.67,-2.55,-1.13,-1.09,-1.09
142.02,1.57,2.71,1.57,2.72,-2.73,-2.73,-2.57,-1.17,-1.17,-1.15
143.44,1.57,2.78,1.56,2.77,-2.77,-2.79,-2.59,-1.21,-1.21,-1.22
144.87,1.57,2.83,1.53,2.80,-2.82,-2.85,-2.61,-1.25,-1.29,-1.27
146.32,1.50,2.81,1.51,2.83,-2.87,-2.91,-2.63,-1.37,-1.36,-1.32
147.78,1.47,2.84,1.53,2.90,-2.94,-2.96,-2.65,-1.47,-1.41,-1.38
149.26,1.60,3.02,1.57,3.00,-3.02,-3.02,-2.67,-1.42,-1.44,-1.43
150.75,1.67,3.16,1.64,3.12,-3.10,-3.07,-2.69,-1.43,-1.47,-1.50
152.26,1.67,3.20,1.67,3.21,-3.18,-3.13,-2.71,-1.51,-1.51,-1.54
153.78,1.67,3.26,1.68,3.27,-3.25,-3.18,-2.73,-1.59,-1.58,-1.60
155.32,1.67,3.31,1.69,3.34,-3.32,-3.23,-2.76,-1.65,-1.63,-1.65
156.88,1.71,3.41,1.70,3.40,-3.38,-3.29,-2.78,-1.67,-1.68,-1.71
158.44,1.72,3.48,1.68,3.44,-3.43,-3.34,-2.81,-1.71,-1.75,-1.77
160.03,1.61,3.43,1.64,3.47,-3.46,-3.39,-2.84,-1.86,-1.83,-1.83
161.63,1.58,3.46,1.59,3.48,-3.50,-3.44,-2.87,-1.92,-1.91,-1.89
163.24,1.57,3.52,1.56,3.51,-3.54,-3.48,-2.90,-1.97,-1.98,-1.96
164.88,1.56,3.56,1.56,3.57,-3.58,-3.53,-2.94,-2.02,-2.02,-2.01
166.53,1.56,3.63,1.55,3.62,-3.62,-3.58,-2.98,-2.07,-2.07,-2.08
168.19,1.55,3.67,1.55,3.68,-3.67,-3.62,-3.02,-2.13,-2.13,-2.13
169.87,1.54,3.72,1.54,3.73,-3.73,-3.67,-3.06,-2.19,-2.19,-2.19
171.57,1.54,3.79,1.53,3.79,-3.79,-3.71,-3.10,-2.25,-2.26,-2.26
173.29,1.53,3.84,1.52,3.84,-3.85,-3.75,-3.15,-2.32,-2.32,-2.32
175.02,1.53,3.89,1.53,3.90,-3.90,-3.80,-3.20,-2.37,-2.37,-2.37
176.77,1.52,3.93,1.54,3.96,-3.94,-3.84,-3.25,-2.42,-2.40,-2.42
178.54,1.57,4.04,1.54,4.01,-3.98,-3.88,-3.31,-2.42,-2.45,-2.48
180.32,1.53,4.06,1.51,4.04,-4.02,-3.92,-3.37,-2.49,-2.51,-2.54
182.13,1.46,4.03,1.48,4.06,-4.06,-3.95,-3.43,-2.60,-2.58,-2.58
183.95,1.44,4.06,1.45,4.07,-4.10,-3.99,-3.49,-2.67,-2.66,-2.63
185.79,1.45,4.12,1.44,4.12,-4.15,-4.03,-3.55,-2.70,-2.70,-2.68
187.65,1.47,4.18,1.46,4.18,-4.20,-4.06,-3.62,-2.73,-2.74,-2.72
189.52,1.48,4.24,1.47,4.23,-4.25,-4.10,-3.69,-2.77,-2.77,-2.77
191.42,1.49,4.28,1.49,4.29,-4.30,-4.13,-3.77,-2.81,-2.81,-2.80
193.33,1.51,4.35,1.52,4.37,-4.35,-4.16,-3.84,-2.84,-2.83,-2.85
195.27,1.55,4.44,1.54,4.43,-4.40,-4.19,-3.92,-2.85,-2.86,-2.90
197.22,1.56,4.50,1.53,4.47,-4.44,-4.22,-3.99,-2.88,-2.91,-2.95
199.19,1.49,4.46,1.50,4.49,-4.47,-4.25,-4.07,-2.99,-2.97,-2.98
201.18,1.46,4.48,1.47,4.49,-4.51,-4.28,-4.16,-3.05,-3.04,-3.03
203.19,1.46,4.51,1.45,4.51,-4.55,-4.31,-4.24,-3.09,-3.09,-3.06
205.23,1.46,4.55,1.45,4.55,-4.58,-4.33,-4.32,-3.12,-3.13,-3.10
207.28,1.46,4.58,1.46,4.59,-4.61,-4.36,-4.41,-3.15,-3.15,-3.13
209.35,1.46,4.62,1.47,4.64,-4.63,-4.38,-4.49,-3.17,-3.16,-3.17
211.44,1.47,4.68,1.47,4.68,-4.64,-4.40,-4.57,-3.18,-3.17,-3.22
213.56,1.48,4.72,1.46,4.71,-4.66,-4.43,-4.66,-3.18,-3.19,-3.25
215.69,1.43,4.71,1.42,4.71,-4.67,-4.45,-4.74,-3.24,-3.25,-3.29
217.85,1.36,4.67,1.35,4.67,-4.67,-4.47,-4.82,-3.31,-3.32,-3.32
220.03,1.26,4.62,1.28,4.64,-4.68,-4.49,-4.90,-3.42,-3.40,-3.37
222.23,1.23,4.61,1.24,4.63,-4.68,-4.50,-4.98,-3.45,-3.44,-3.39
224.45,1.24,4.65,1.22,4.64,-4.68,-4.52,-5.05,-3.44,-3.46,-3.42
226.70,1.24,4.68,1.24,4.68,-4.68,-4.54,-5.12,-3.44,-3.44,-3.45
228.96,1.25,4.71,1.26,4.72,-4.69,-4.55,-5.19,-3.44,-3.43,-3.47
231.25,1.27,4.74,1.26,4.74,-4.70,-4.56,-5.25,-3.43,-3.44,-3.48
233.57,1.27,4.77,1.24,4.74,-4.72,-4.58,-5.30,-3.45,-3.48,-3.51
235.90,1.18,4.69,1.21,4.73,-4.74,-4.59,-5.35,-3.56,-3.52,-3.52
238.26,1.19,4.72,1.19,4.72,-4.75,-4.60,-5.40,-3.57,-3.56,-3.54
240.64,1.21,4.73,1.19,4.73,-4.76,-4.61,-5.43,-3.56,-3.57,-3.53
243.05,1.22,4.75,1.22,4.76,-4.77,-4.62,-5.46,-3.55,-3.55,-3.54
245.48,1.24,4.79,1.25,4.80,-4.78,-4.63,-5.48,-3.54,-3.53,-3.56
247.93,1.27,4.83,1.26,4.82,-4.79,-4.63,-5.50,-3.53,-3.53,-3.57
250.41,1.29,4.84,1.26,4.82,-4.81,-4.64,-5.51,-3.52,-3.54,-3.56
252.92,1.24,4.79,1.25,4.81,-4.82,-4.64,-5.51,-3.58,-3.57,-3.56
255.45,1.22,4.79,1.23,4.80,-4.82,-4.65,-5.50,-3.60,-3.59,-3.58
258.00,1.22,4.80,1.22,4.81,-4.82,-4.65,-5.49,-3.60,-3.59,-3.59
260.58,1.23,4.82,1.22,4.82,-4.80,-4.65,-5.46,-3.57,-3.58,-3.60
263.19,1.22,4.82,1.20,4.81,-4.78,-4.65,-5.44,-3.57,-3.58,-3.61
265.82,1.15,4.77,1.17,4.79,-4.77,-4.65,-5.40,-3.62,-3.59,-3.63
268.48,1.13,4.75,1.12,4.75,-4.75,-4.65,-5.36,-3.62,-3.63,-3.63
271.16,1.09,4.73,1.07,4.71,-4.74,-4.65,-5.31,-3.65,-3.67,-3.65
273.87,1.02,4.67,1.04,4.70,-4.73,-4.65,-5.26,-3.71,-3.69,-3.66
276.61,1.02,4.69,1.02,4.70,-4.73,-4.65,-5.20,-3.71,-3.71,-3.68
279.38,1.02,4.72,1.01,4.71,-4.72,-4.64,-5.14,-3.70,-3.71,-3.71
282.17,1.02,4.72,1.02,4.72,-4.72,-4.64,-5.08,-3.70,-3.70,-3.71
284.99,1.02,4.72,1.03,4.74,-4.71,-4.63,-5.01,-3.69,-3.68,-3.71
287.84,1.03,4.73,1.03,4.74,-4.71,-4.62,-4.95,-3.68,-3.68,-3.71
290.72,1.04,4.76,1.01,4.73,-4.70,-4.62,-4.88,-3.66,-3.69,-3.73
293.63,0.97,4.68,0.98,4.70,-4.69,-4.61,-4.80,-3.72,-3.71,-3.72
296.57,0.93,4.64,0.93,4.65,-4.67,-4.60,-4.73,-3.74,-3.74,-3.72
299.53,0.89,4.61,0.90,4.62,-4.65,-4.59,-4.66,-3.77,-3.76,-3.73
302.53,0.89,4.60,0.89,4.61,-4.63,-4.58,-4.59,-3.75,-3.74,-3.72
305.55,0.90,4.62,0.89,4.62,-4.61,-4.57,-4.51,-3.72,-3.72,-3.73
308.61,0.91,4.62,0.89,4.61,-4.60,-4.55,-4.44,-3.69,-3.71,-3.72
311.69,0.86,4.59,0.87,4.59,-4.58,-4.54,-4.37,-3.72,-3.71,-3.74
314.81,0.83,4.55,0.84,4.58,-4.56,-4.53,-4.30,-3.73,-3.72,-3.73
317.96,0.82,4.56,0.81,4.55,-4.55,-4.51,-4.24,-3.73,-3.74,-3.75
321.14,0.81,4.54,0.78,4.52,-4.53,-4.50,-4.17,-3.73,-3.75,-3.74
324.35,0.74,4.48,0.75,4.49,-4.51,-4.48,-4.11,-3.78,-3.76,-3.75
327.59,0.72,4.45,0.73,4.47,-4.49,-4.46,-4.05,-3.77,-3.76,-3.74
330.87,0.72,4.46,0.72,4.46,-4.46,-4.45,-3.99,-3.74,-3.75,-3.75
334.18,0.72,4.47,0.70,4.45,-4.43,-4.43,-3.93,-3.72,-3.73,-3.76
337.52,0.69,4.43,0.68,4.44,-4.40,-4.41,-3.88,-3.72,-3.72,-3.75
340.90,0.63,4.38,0.64,4.39,-4.38,-4.39,-3.83,-3.75,-3.74,-3.76
344.30,0.61,4.35,0.59,4.34,-4.35,-4.37,-3.78,-3.75,-3.76,-3.75
347.75,0.55,4.28,0.55,4.30,-4.33,-4.35,-3.74,-3.78,-3.78,-3.74
351.23,0.51,4.26,0.53,4.27,-4.29,-4.33,-3.70,-3.79,-3.77,-3.76
354.74,0.52,4.25,0.52,4.26,-4.26,-4.30,-3.66,-3.74,-3.74,-3.74
358.28,0.52,4.25,0.51,4.25,-4.22,-4.28,-3.62,-3.70,-3.71,-3.74
361.87,0.51,4.24,0.49,4.22,-4.19,-4.26,-3.59,-3.68,-3.70,-3.74
365.49,0.45,4.17,0.45,4.17,-4.17,-4.23,-3.56,-3.72,-3.72,-3.73
369.14,0.40,4.11,0.40,4.12,-4.14,-4.21,-3.53,-3.75,-3.74,-3.72
372.83,0.36,4.06,0.36,4.08,-4.12,-4.19,-3.50,-3.76,-3.75,-3.71
376.56,0.35,4.06,0.36,4.07,-4.09,-4.16,-3.48,-3.74,-3.73,-3.72
380.33,0.36,4.07,0.36,4.07,-4.05,-4.13,-3.46,-3.69,-3.69,-3.72
384.13,0.37,4.07,0.35,4.06,-4.02,-4.11,-3.44,-3.65,-3.67,-3.71
387.97,0.32,4.02,0.31,4.02,-4.00,-4.08,-3.43,-3.68,-3.68,-3.71
391.85,0.26,3.97,0.26,3.98,-3.98,-4.05,-3.42,-3.72,-3.72,-3.72
395.77,0.20,3.92,0.21,3.93,-3.96,-4.03,-3.41,-3.76,-3.75,-3.73
399.73,0.18,3.90,0.18,3.90,-3.94,-4.00,-3.40,-3.76,-3.76,-3.73
403.72,0.17,3.88,0.17,3.90,-3.91,-3.97,-3.39,-3.74,-3.74,-3.72
407.76,0.17,3.90,0.17,3.90,-3.88,-3.94,-3.39,-3.71,-3.71,-3.74
411.84,0.17,3.91,0.14,3.89,-3.85,-3.91,-3.38,-3.68,-3.70,-3.75
415.96,0.10,3.84,0.09,3.84,-3.82,-3.88,-3.38,-3.72,-3.73,-3.75
420.12,0.02,3.77,0.03,3.78,-3.79,-3.85,-3.38,-3.77,-3.76,-3.76
424.32,-0.02,3.72,-0.01,3.73,-3.76,-3.82,-3.38,-3.79,-3.78,-3.75
428.56,-0.02,3.70,-0.02,3.71,-3.73,-3.79,-3.38,-3.76,-3.76,-3.73
432.85,-0.01,3.69,-0.03,3.69,-3.70,-3.76,-3.38,-3.71,-3.72,-3.71
437.18,-0.02,3.67,-0.02,3.67,-3.65,-3.72,-3.39,-3.68,-3.67,-3.70
441.55,-0.03,3.63,-0.02,3.65,-3.62,-3.69,-3.39,-3.65,-3.63,-3.67
445.96,-0.00,3.62,-0.02,3.61,-3.58,-3.66,-3.39,-3.59,-3.60,-3.63
450.42,-0.02,3.56,-0.03,3.56,-3.56,-3.63,-3.39,-3.58,-3.58,-3.59
454.93,-0.03,3.50,-0.02,3.51,-3.53,-3.59,-3.39,-3.56,-3.55,-3.54
459.48,-0.02,3.45,-0.01,3.46,-3.50,-3.56,-3.39,-3.52,-3.51,-3.48
464.07,0.03,3.43,0.03,3.44,-3.47,-3.53,-3.39,-3.44,-3.44,-3.41
468.71,0.08,3.43,0.09,3.44,-3.44,-3.49,-3.38,-3.36,-3.35,-3.36
473.40,0.15,3.44,0.14,3.43,-3.40,-3.46,-3.38,-3.26,-3.26,-3.30
478.13,0.19,3.42,0.17,3.41,-3.37,-3.42,-3.37,-3.19,-3.21,-3.24
482.91,0.17,3.35,0.17,3.36,-3.34,-3.39,-3.36,-3.18,-3.17,-3.19
487.74,0.15,3.30,0.15,3.30,-3.31,-3.35,-3.35,-3.16,-3.16,-3.16
492.62,0.14,3.25,0.15,3.26,-3.28,-3.32,-3.34,-3.14,-3.13,-3.12
497.55,0.15,3.22,0.15,3.23,-3.24,-3.28,-3.32,-3.10,-3.10,-3.08
