frequency,raw,error,smoothed,error_smoothed,equalization,parametric_eq,fixed_band_eq,equalized_raw,equalized_smoothed,target
20.00,-6.65,-8.84,-6.55,-8.78,8.78,8.30,3.64,2.13,2.23,2.20
20.20,-6.56,-8.80,-6.50,-8.76,8.76,8.33,3.74,2.21,2.26,2.25
20.40,-6.47,-8.76,-6.45,-8.75,8.75,8.36,3.85,2.28,2.30,2.30
20.61,-6.38,-8.70,-6.40,-8.73,8.73,8.39,3.95,2.35,2.33,2.32
20.81,-6.29,-8.66,-6.35,-8.71,8.71,8.41,4.06,2.43,2.36,2.38
21.02,-6.21,-8.62,-6.31,-8.70,8.70,8.44,4.17,2.49,2.39,2.41
21.23,-6.19,-8.62,-6.27,-8.68,8.68,8.46,4.28,2.49,2.41,2.43
21.44,-6.18,-8.63,-6.23,-8.66,8.66,8.48,4.40,2.49,2.43,2.45
21.66,-6.16,-8.63,-6.19,-8.65,8.65,8.49,4.52,2.49,2.45,2.47
21.87,-6.15,-8.63,-6.16,-8.63,8.63,8.51,4.65,2.49,2.47,2.48
22.09,-6.14,-8.64,-6.13,-8.62,8.62,8.52,4.78,2.48,2.49,2.50
22.31,-6.13,-8.64,-6.10,-8.60,8.60,8.53,4.91,2.47,2.50,2.51
22.54,-6.12,-8.63,-6.08,-8.59,8.59,8.54,5.04,2.47,2.51,2.51
22.76,-6.12,-8.63,-6.07,-8.58,8.58,8.55,5.18,2.46,2.51,2.51
22.99,-6.11,-8.61,-6.06,-8.57,8.57,8.55,5.32,2.47,2.51,2.50
23.22,-6.07,-8.57,-6.05,-8.56,8.56,8.55,5.47,2.49,2.51,2.50
23.45,-6.03,-8.52,-6.03,-8.55,8.55,8.55,5.61,2.52,2.51,2.50
23.69,-5.98,-8.48,-6.01,-8.52,8.52,8.55,5.77,2.54,2.51,2.51
23.92,-5.94,-8.44,-5.98,-8.49,8.49,8.55,5.92,2.56,2.51,2.51
24.16,-5.92,-8.43,-5.95,-8.46,8.46,8.54,6.08,2.54,2.51,2.51
24.40,-5.93,-8.45,-5.92,-8.43,8.43,8.54,6.24,2.50,2.51,2.52
24.65,-5.92,-8.43,-5.89,-8.40,8.40,8.53,6.41,2.49,2.51,2.51
24.89,-5.92,-8.43,-5.87,-8.38,8.38,8.52,6.57,2.46,2.51,2.51
25.14,-5.89,-8.40,-5.84,-8.35,8.35,8.51,6.74,2.47,2.51,2.51
25.39,-5.82,-8.34,-5.82,-8.33,8.33,8.49,6.91,2.51,2.51,2.52
25.65,-5.77,-8.29,-5.79,-8.31,8.31,8.48,7.09,2.54,2.51,2.52
25.91,-5.71,-8.22,-5.77,-8.28,8.28,8.46,7.26,2.58,2.51,2.51
26.16,-5.69,-8.19,-5.75,-8.26,8.26,8.44,7.44,2.57,2.51,2.51
26.43,-5.70,-8.20,-5.72,-8.23,8.23,8.42,7.61,2.53,2.51,2.51
26.69,-5.71,-8.21,-5.69,-8.20,8.20,8.40,7.79,2.49,2.51,2.50
26.96,-5.73,-8.24,-5.66,-8.17,8.17,8.38,7.96,2.44,2.50,2.51
27.23,-5.69,-8.20,-5.64,-8.14,8.14,8.35,8.13,2.45,2.50,2.51
27.50,-5.65,-8.16,-5.62,-8.12,8.12,8.33,8.30,2.47,2.50,2.51
27.77,-5.61,-8.10,-5.60,-8.10,8.10,8.30,8.47,2.49,2.50,2.50
28.05,-5.57,-8.06,-5.59,-8.08,8.08,8.27,8.63,2.52,2.50,2.50
28.33,-5.54,-8.02,-5.57,-8.07,8.07,8.24,8.78,2.53,2.50,2.49
28.62,-5.51,-7.99,-5.56,-8.05,8.05,8.22,8.93,2.54,2.49,2.48
28.90,-5.48,-7.97,-5.54,-8.03,8.03,8.19,9.06,2.55,2.49,2.49
29.19,-5.49,-7.97,-5.52,-8.01,8.01,8.15,9.19,2.52,2.49,2.48
29.48,-5.51,-8.01,-5.49,-7.98,7.98,8.12,9.31,2.47,2.49,2.50
29.78,-5.53,-8.01,-5.47,-7.95,7.95,8.09,9.42,2.43,2.49,2.49
30.08,-5.54,-8.03,-5.45,-7.93,7.93,8.06,9.51,2.39,2.48,2.49
30.38,-5.48,-7.96,-5.43,-7.91,7.91,8.02,9.59,2.43,2.48,2.48
30.68,-5.43,-7.91,-5.41,-7.89,7.89,7.99,9.65,2.47,2.48,2.48
30.99,-5.38,-7.86,-5.41,-7.88,7.88,7.96,9.71,2.51,2.48,2.48
31.30,-5.37,-7.84,-5.40,-7.87,7.87,7.92,9.74,2.51,2.48,2.48
31.61,-5.35,-7.82,-5.39,-7.86,7.86,7.89,9.76,2.52,2.47,2.47
31.93,-5.34,-7.81,-5.38,-7.85,7.85,7.85,9.77,2.51,2.47,2.47
32.24,-5.34,-7.79,-5.37,-7.84,7.84,7.82,9.76,2.50,2.46,2.46
32.57,-5.33,-7.79,-5.36,-7.82,7.82,7.79,9.73,2.49,2.46,2.46
32.89,-5.33,-7.79,-5.34,-7.80,7.80,7.75,9.70,2.47,2.45,2.46
33.22,-5.35,-7.80,-5.33,-7.78,7.78,7.72,9.65,2.44,2.45,2.45
33.55,-5.37,-7.81,-5.32,-7.77,7.77,7.68,9.59,2.40,2.44,2.45
33.89,-5.40,-7.83,-5.32,-7.76,7.76,7.65,9.51,2.36,2.44,2.43
34.23,-5.38,-7.82,-5.31,-7.75,7.75,7.62,9.43,2.37,2.43,2.44
34.57,-5.33,-7.75,-5.31,-7.73,7.73,7.58,9.35,2.41,2.43,2.43
34.92,-5.29,-7.71,-5.30,-7.72,7.72,7.55,9.25,2.43,2.42,2.42
35.27,-5.26,-7.68,-5.29,-7.70,7.70,7.52,9.15,2.45,2.42,2.42
35.62,-5.25,-7.66,-5.27,-7.69,7.69,7.49,9.05,2.44,2.42,2.41
35.97,-5.23,-7.64,-5.26,-7.68,7.68,7.46,8.94,2.45,2.41,2.41
36.33,-5.23,-7.64,-5.25,-7.66,7.66,7.43,8.83,2.44,2.41,2.42
36.70,-5.23,-7.63,-5.24,-7.65,7.65,7.40,8.72,2.42,2.41,2.40
37.06,-5.23,-7.62,-5.23,-7.64,7.64,7.37,8.61,2.41,2.41,2.40
37.43,-5.23,-7.64,-5.22,-7.63,7.63,7.35,8.50,2.40,2.41,2.41
37.81,-5.23,-7.63,-5.22,-7.62,7.62,7.32,8.40,2.40,2.41,2.41
38.19,-5.23,-7.63,-5.22,-7.62,7.62,7.30,8.29,2.40,2.41,2.40
38.57,-5.23,-7.63,-5.22,-7.63,7.63,7.27,8.19,2.40,2.41,2.41
38.95,-5.23,-7.64,-5.22,-7.63,7.63,7.25,8.09,2.40,2.40,2.41
39.34,-5.23,-7.63,-5.22,-7.63,7.63,7.23,7.99,2.40,2.40,2.41
39.74,-5.23,-7.63,-5.23,-7.63,7.63,7.21,7.89,2.40,2.40,2.40
40.14,-5.23,-7.63,-5.23,-7.63,7.63,7.19,7.81,2.40,2.40,2.40
40.54,-5.23,-7.62,-5.23,-7.62,7.62,7.17,7.72,2.40,2.40,2.40
40.94,-5.23,-7.62,-5.23,-7.62,7.62,7.16,7.64,2.39,2.39,2.39
41.35,-5.23,-7.61,-5.23,-7.61,7.61,7.14,7.57,2.39,2.39,2.38
41.76,-5.23,-7.60,-5.23,-7.60,7.60,7.13,7.49,2.38,2.38,2.38
42.18,-5.23,-7.60,-5.23,-7.59,7.59,7.12,7.43,2.37,2.37,2.38
42.60,-5.23,-7.59,-5.23,-7.58,7.58,7.11,7.37,2.36,2.36,2.36
43.03,-5.23,-7.58,-5.23,-7.57,7.57,7.10,7.31,2.34,2.34,2.35
43.46,-5.23,-7.57,-5.23,-7.56,7.56,7.09,7.27,2.33,2.33,2.34
43.90,-5.23,-7.54,-5.23,-7.54,7.54,7.09,7.22,2.32,2.32,2.32
44.33,-5.23,-7.52,-5.23,-7.53,7.53,7.08,7.18,2.30,2.30,2.30
44.78,-5.23,-7.50,-5.23,-7.52,7.52,7.08,7.15,2.29,2.29,2.28
45.23,-5.23,-7.49,-5.23,-7.50,7.50,7.08,7.12,2.27,2.27,2.27
45.68,-5.23,-7.47,-5.23,-7.48,7.48,7.08,7.10,2.26,2.26,2.25
46.13,-5.23,-7.45,-5.22,-7.46,7.46,7.08,7.08,2.24,2.24,2.23
46.60,-5.23,-7.45,-5.22,-7.44,7.44,7.09,7.07,2.22,2.22,2.23
47.06,-5.23,-7.43,-5.22,-7.42,7.42,7.09,7.06,2.20,2.21,2.20
47.53,-5.22,-7.41,-5.22,-7.41,7.41,7.10,7.06,2.19,2.19,2.19
48.01,-5.22,-7.41,-5.21,-7.39,7.39,7.11,7.06,2.17,2.17,2.19
48.49,-5.21,-7.38,-5.21,-7.36,7.36,7.12,7.07,2.16,2.16,2.17
48.97,-5.21,-7.35,-5.20,-7.34,7.34,7.13,7.08,2.14,2.14,2.14
49.46,-5.19,-7.31,-5.19,-7.32,7.32,7.14,7.09,2.13,2.13,2.12
49.96,-5.17,-7.26,-5.18,-7.29,7.29,7.15,7.11,2.13,2.11,2.10
50.46,-5.17,-7.26,-5.17,-7.27,7.27,7.16,7.13,2.10,2.09,2.09
50.96,-5.18,-7.26,-5.16,-7.24,7.24,7.17,7.16,2.06,2.08,2.08
51.47,-5.18,-7.23,-5.15,-7.21,7.21,7.19,7.18,2.03,2.06,2.05
51.99,-5.18,-7.21,-5.14,-7.18,7.18,7.20,7.21,2.01,2.05,2.04
52.51,-5.14,-7.17,-5.13,-7.16,7.16,7.21,7.24,2.02,2.03,2.03
53.03,-5.10,-7.12,-5.12,-7.14,7.14,7.23,7.28,2.04,2.02,2.02
53.56,-5.10,-7.10,-5.12,-7.12,7.12,7.24,7.31,2.02,2.00,2.01
54.10,-5.11,-7.09,-5.12,-7.11,7.11,7.25,7.34,2.00,1.99,1.99
54.64,-5.11,-7.08,-5.12,-7.10,7.10,7.26,7.38,1.99,1.97,1.97
55.18,-5.11,-7.07,-5.13,-7.09,7.09,7.27,7.41,1.98,1.96,1.96
55.74,-5.09,-7.03,-5.14,-7.08,7.08,7.28,7.44,2.00,1.94,1.94
56.29,-5.11,-7.04,-5.15,-7.07,7.07,7.29,7.47,1.97,1.93,1.93
56.86,-5.16,-7.06,-5.16,-7.07,7.07,7.29,7.49,1.91,1.91,1.91
57.42,-5.19,-7.06,-5.17,-7.06,7.06,7.29,7.51,1.87,1.89,1.87
58.00,-5.20,-7.06,-5.18,-7.05,7.05,7.29,7.52,1.85,1.87,1.86
58.58,-5.25,-7.09,-5.20,-7.04,7.04,7.28,7.53,1.79,1.84,1.85
59.16,-5.27,-7.09,-5.21,-7.02,7.02,7.27,7.54,1.75,1.81,1.82
59.76,-5.24,-7.04,-5.22,-7.00,7.00,7.26,7.54,1.76,1.78,1.80
60.35,-5.23,-6.98,-5.22,-6.96,6.96,7.24,7.53,1.74,1.74,1.75
60.96,-5.23,-6.94,-5.22,-6.93,6.93,7.22,7.51,1.70,1.70,1.72
61.57,-5.23,-6.90,-5.22,-6.89,6.89,7.20,7.48,1.66,1.66,1.67
62.18,-5.23,-6.85,-5.23,-6.85,6.85,7.17,7.45,1.62,1.62,1.62
62.80,-5.23,-6.80,-5.23,-6.80,6.80,7.13,7.41,1.58,1.58,1.57
63.43,-5.23,-6.75,-5.23,-6.76,6.76,7.09,7.36,1.53,1.53,1.52
64.07,-5.23,-6.70,-5.24,-6.72,6.72,7.05,7.30,1.49,1.48,1.47
64.71,-5.22,-6.63,-5.25,-6.68,6.68,7.00,7.23,1.46,1.43,1.42
65.35,-5.22,-6.59,-5.26,-6.63,6.63,6.94,7.16,1.42,1.38,1.37
66.01,-5.23,-6.55,-5.27,-6.59,6.59,6.88,7.08,1.37,1.32,1.32
66.67,-5.26,-6.52,-5.29,-6.56,6.56,6.82,6.99,1.31,1.27,1.27
67.33,-5.31,-6.52,-5.31,-6.53,6.53,6.75,6.90,1.22,1.22,1.21
68.01,-5.37,-6.53,-5.34,-6.50,6.50,6.68,6.80,1.13,1.16,1.16
68.69,-5.42,-6.52,-5.36,-6.46,6.46,6.60,6.69,1.05,1.10,1.11
69.37,-5.44,-6.49,-5.39,-6.43,6.43,6.52,6.58,1.00,1.05,1.05
70.07,-5.43,-6.42,-5.41,-6.40,6.40,6.43,6.46,0.97,0.99,0.99
70.77,-5.43,-6.37,-5.43,-6.36,6.36,6.35,6.35,0.93,0.93,0.94
71.48,-5.43,-6.31,-5.46,-6.33,6.33,6.26,6.23,0.90,0.87,0.88
72.19,-5.44,-6.24,-5.49,-6.29,6.29,6.16,6.10,0.85,0.80,0.81
72.91,-5.54,-6.28,-5.51,-6.25,6.25,6.07,5.98,0.71,0.74,0.74
73.64,-5.53,-6.21,-5.53,-6.21,6.21,5.97,5.85,0.68,0.68,0.68
74.38,-5.53,-6.14,-5.55,-6.16,6.16,5.87,5.73,0.63,0.62,0.61
75.12,-5.54,-6.08,-5.56,-6.12,6.12,5.77,5.60,0.58,0.55,0.55
75.87,-5.59,-6.07,-5.58,-6.07,6.07,5.66,5.47,0.48,0.49,0.48
76.63,-5.58,-6.00,-5.59,-6.02,6.02,5.56,5.35,0.44,0.43,0.42
77.40,-5.57,-5.93,-5.60,-5.97,5.97,5.46,5.22,0.40,0.37,0.36
78.17,-5.60,-5.89,-5.61,-5.92,5.92,5.35,5.10,0.32,0.31,0.29
78.95,-5.68,-5.93,-5.60,-5.85,5.85,5.25,4.98,0.17,0.25,0.25
79.74,-5.61,-5.80,-5.59,-5.78,5.78,5.15,4.86,0.17,0.19,0.19
80.54,-5.58,-5.71,-5.57,-5.70,5.70,5.04,4.74,0.12,0.13,0.14
81.35,-5.57,-5.64,-5.54,-5.62,5.62,4.94,4.63,0.05,0.08,0.07
82.16,-5.56,-5.58,-5.51,-5.53,5.53,4.83,4.51,-0.03,0.02,0.02
82.98,-5.51,-5.48,-5.47,-5.44,5.44,4.73,4.40,-0.07,-0.03,-0.03
83.81,-5.43,-5.33,-5.43,-5.34,5.34,4.63,4.30,-0.09,-0.09,-0.09
84.65,-5.39,-5.24,-5.38,-5.23,5.23,4.53,4.19,-0.16,-0.15,-0.15
85.50,-5.28,-5.08,-5.33,-5.12,5.12,4.43,4.09,-0.16,-0.21,-0.20
86.35,-5.18,-4.92,-5.27,-5.00,5.00,4.34,3.99,-0.17,-0.26,-0.26
87.22,-5.15,-4.83,-5.19,-4.87,4.87,4.24,3.89,-0.27,-0.32,-0.32
88.09,-5.13,-4.75,-5.12,-4.74,4.74,4.14,3.80,-0.39,-0.38,-0.38
88.97,-5.10,-4.66,-5.05,-4.61,4.61,4.05,3.71,-0.49,-0.44,-0.44
89.86,-5.02,-4.52,-4.98,-4.48,4.48,3.96,3.62,-0.54,-0.50,-0.50
90.76,-4.92,-4.35,-4.90,-4.34,4.34,3.87,3.53,-0.58,-0.56,-0.56
91.66,-4.85,-4.23,-4.83,-4.21,4.21,3.78,3.45,-0.64,-0.62,-0.62
92.58,-4.78,-4.09,-4.76,-4.08,4.08,3.69,3.37,-0.70,-0.68,-0.69
93.51,-4.73,-3.98,-4.69,-3.95,3.95,3.61,3.29,-0.78,-0.74,-0.74
94.44,-4.62,-3.82,-4.61,-3.81,3.81,3.52,3.22,-0.80,-0.80,-0.80
95.39,-4.46,-3.60,-4.55,-3.69,3.69,3.44,3.14,-0.77,-0.86,-0.85
96.34,-4.41,-3.49,-4.48,-3.57,3.57,3.36,3.07,-0.84,-0.92,-0.92
97.30,-4.41,-3.43,-4.42,-3.45,3.45,3.28,3.00,-0.96,-0.97,-0.98
98.28,-4.37,-3.33,-4.36,-3.33,3.33,3.20,2.94,-1.04,-1.03,-1.03
99.26,-4.31,-3.22,-4.31,-3.22,3.22,3.13,2.88,-1.09,-1.09,-1.09
100.25,-4.26,-3.11,-4.27,-3.12,3.12,3.05,2.81,-1.14,-1.15,-1.15
101.25,-4.20,-2.99,-4.22,-3.01,3.01,2.98,2.75,-1.18,-1.21,-1.20
102.27,-4.18,-2.92,-4.17,-2.91,2.91,2.91,2.70,-1.27,-1.26,-1.26
103.29,-4.11,-2.78,-4.12,-2.80,2.80,2.84,2.64,-1.31,-1.32,-1.33
104.32,-4.09,-2.71,-4.08,-2.70,2.70,2.77,2.59,-1.39,-1.38,-1.38
105.37,-4.14,-2.70,-4.04,-2.60,2.60,2.70,2.54,-1.54,-1.44,-1.43
106.42,-4.08,-2.58,-4.00,-2.50,2.50,2.64,2.49,-1.58,-1.50,-1.49
107.48,-3.95,-2.39,-3.96,-2.39,2.39,2.57,2.44,-1.55,-1.56,-1.56
108.56,-3.97,-2.34,-3.92,-2.29,2.29,2.51,2.39,-1.67,-1.63,-1.63
109.64,-3.95,-2.26,-3.88,-2.20,2.20,2.45,2.34,-1.75,-1.69,-1.69
110.74,-3.74,-1.98,-3.86,-2.11,2.11,2.39,2.30,-1.63,-1.75,-1.75
111.85,-3.73,-1.93,-3.83,-2.02,2.02,2.33,2.25,-1.71,-1.81,-1.80
112.97,-3.79,-1.91,-3.80,-1.93,1.93,2.27,2.21,-1.85,-1.87,-1.88
114.10,-3.79,-1.85,-3.79,-1.86,1.86,2.21,2.17,-1.93,-1.93,-1.93
115.24,-3.76,-1.77,-3.77,-1.79,1.79,2.16,2.12,-1.97,-1.99,-1.99
116.39,-3.76,-1.70,-3.77,-1.73,1.73,2.10,2.08,-2.03,-2.04,-2.06
117.55,-3.78,-1.68,-3.77,-1.68,1.68,2.05,2.04,-2.10,-2.09,-2.10
118.73,-3.80,-1.64,-3.78,-1.64,1.64,2.00,2.00,-2.16,-2.14,-2.16
119.92,-3.83,-1.64,-3.80,-1.61,1.61,1.95,1.96,-2.22,-2.19,-2.19
121.12,-3.82,-1.57,-3.81,-1.57,1.57,1.90,1.92,-2.24,-2.24,-2.24
122.33,-3.83,-1.54,-3.84,-1.55,1.55,1.85,1.88,-2.27,-2.28,-2.29
123.55,-3.84,-1.52,-3.87,-1.54,1.54,1.80,1.84,-2.30,-2.33,-2.32
124.79,-3.89,-1.52,-3.89,-1.52,1.52,1.75,1.80,-2.37,-2.37,-2.36
126.03,-3.94,-1.53,-3.91,-1.50,1.50,1.70,1.76,-2.44,-2.41,-2.40
127.29,-3.97,-1.53,-3.93,-1.49,1.49,1.66,1.72,-2.48,-2.45,-2.43
128.57,-3.98,-1.49,-3.96,-1.47,1.47,1.61,1.68,-2.50,-2.48,-2.48
129.85,-3.97,-1.44,-3.98,-1.46,1.46,1.57,1.64,-2.51,-2.52,-2.52
131.15,-3.95,-1.39,-4.00,-1.44,1.44,1.52,1.60,-2.51,-2.56,-2.56
132.46,-3.97,-1.37,-4.01,-1.42,1.42,1.48,1.56,-2.55,-2.60,-2.60
133.79,-4.08,-1.44,-4.03,-1.40,1.40,1.44,1.52,-2.68,-2.64,-2.64
135.12,-4.10,-1.42,-4.05,-1.38,1.38,1.39,1.48,-2.72,-2.67,-2.68
136.48,-4.09,-1.38,-4.06,-1.35,1.35,1.35,1.44,-2.73,-2.71,-2.71
137.84,-4.10,-1.35,-4.08,-1.33,1.33,1.31,1.40,-2.77,-2.74,-2.75
139.22,-4.10,-1.30,-4.09,-1.31,1.31,1.27,1.36,-2.79,-2.78,-2.79
140.61,-4.09,-1.25,-4.11,-1.29,1.29,1.23,1.32,-2.80,-2.82,-2.84
142.02,-4.13,-1.27,-4.13,-1.27,1.27,1.19,1.28,-2.86,-2.86,-2.86
143.44,-4.08,-1.18,-4.14,-1.24,1.24,1.14,1.24,-2.84,-2.90,-2.90
144.87,-4.10,-1.15,-4.16,-1.21,1.21,1.10,1.20,-2.88,-2.95,-2.95
146.32,-4.16,-1.16,-4.18,-1.17,1.17,1.06,1.16,-2.98,-3.00,-2.99
147.78,-4.19,-1.15,-4.18,-1.12,1.12,1.02,1.12,-3.07,-3.06,-3.03
149.26,-4.20,-1.11,-4.18,-1.06,1.06,0.98,1.08,-3.13,-3.12,-3.09
150.75,-4.27,-1.10,-4.20,-1.01,1.01,0.94,1.04,-3.25,-3.19,-3.16
152.26,-4.29,-1.05,-4.22,-0.96,0.96,0.90,1.01,-3.32,-3.26,-3.24
153.78,-4.25,-0.94,-4.24,-0.90,0.90,0.86,0.97,-3.34,-3.33,-3.31
155.32,-4.24,-0.84,-4.24,-0.84,0.84,0.82,0.93,-3.40,-3.41,-3.39
156.88,-4.21,-0.73,-4.25,-0.76,0.76,0.77,0.89,-3.45,-3.48,-3.48
158.44,-4.19,-0.62,-4.24,-0.68,0.68,0.73,0.85,-3.51,-3.56,-3.57
160.03,-4.26,-0.60,-4.24,-0.60,0.60,0.69,0.82,-3.65,-3.64,-3.66
161.63,-4.18,-0.44,-4.23,-0.52,0.52,0.64,0.78,-3.65,-3.71,-3.73
163.24,-4.22,-0.42,-4.22,-0.44,0.44,0.60,0.74,-3.78,-3.78,-3.80
164.88,-4.34,-0.48,-4.21,-0.37,0.37,0.55,0.70,-3.97,-3.84,-3.86
166.53,-4.29,-0.37,-4.19,-0.30,0.30,0.50,0.67,-3.99,-3.90,-3.91
168.19,-4.18,-0.22,-4.18,-0.24,0.24,0.46,0.63,-3.94,-3.94,-3.96
169.87,-4.09,-0.08,-4.17,-0.19,0.19,0.41,0.60,-3.90,-3.98,-4.00
171.57,-4.08,-0.05,-4.16,-0.14,0.14,0.36,0.56,-3.93,-4.01,-4.03
173.29,-4.10,-0.05,-4.14,-0.11,0.11,0.30,0.53,-3.99,-4.04,-4.05
175.02,-4.15,-0.09,-4.13,-0.07,0.07,0.25,0.49,-4.07,-4.06,-4.06
176.77,-4.14,-0.06,-4.12,-0.04,0.04,0.19,0.46,-4.09,-4.07,-4.08
178.54,-4.10,-0.01,-4.10,-0.01,0.01,0.14,0.42,-4.08,-4.09,-4.09
180.32,-4.09,0.00,-4.09,0.01,-0.01,0.08,0.39,-4.10,-4.10,-4.09
182.13,-4.08,0.01,-4.07,0.04,-0.04,0.02,0.35,-4.12,-4.11,-4.09
183.95,-4.07,0.03,-4.05,0.07,-0.07,-0.04,0.32,-4.14,-4.12,-4.10
185.79,-4.06,0.05,-4.04,0.09,-0.09,-0.10,0.29,-4.15,-4.13,-4.11
187.65,-4.04,0.10,-4.04,0.11,-0.11,-0.15,0.25,-4.14,-4.14,-4.13
189.52,-4.03,0.12,-4.02,0.14,-0.14,-0.21,0.22,-4.16,-4.16,-4.15
191.42,-4.02,0.15,-4.01,0.17,-0.17,-0.26,0.19,-4.19,-4.18,-4.17
193.33,-4.00,0.20,-3.99,0.20,-0.20,-0.31,0.15,-4.20,-4.20,-4.20
195.27,-3.99,0.23,-3.98,0.23,-0.23,-0.35,0.12,-4.22,-4.22,-4.22
197.22,-3.97,0.27,-3.98,0.26,-0.26,-0.39,0.09,-4.23,-4.24,-4.24
199.19,-3.96,0.31,-3.98,0.29,-0.29,-0.42,0.06,-4.24,-4.26,-4.27
201.18,-3.95,0.34,-3.97,0.31,-0.31,-0.44,0.03,-4.26,-4.29,-4.29
203.19,-3.95,0.36,-3.97,0.34,-0.34,-0.46,-0.01,-4.29,-4.31,-4.31
205.23,-3.95,0.39,-3.98,0.36,-0.36,-0.47,-0.04,-4.31,-4.34,-4.34
207.28,-3.95,0.40,-3.98,0.38,-0.38,-0.47,-0.07,-4.33,-4.36,-4.35
209.35,-3.97,0.41,-3.99,0.40,-0.40,-0.47,-0.10,-4.36,-4.38,-4.38
211.44,-4.06,0.36,-3.99,0.41,-0.41,-0.46,-0.13,-4.47,-4.40,-4.41
213.56,-4.06,0.36,-4.00,0.42,-0.42,-0.44,-0.15,-4.48,-4.42,-4.42
215.69,-4.01,0.43,-4.01,0.43,-0.43,-0.43,-0.18,-4.44,-4.44,-4.44
217.85,-4.01,0.44,-4.01,0.44,-0.44,-0.41,-0.21,-4.45,-4.45,-4.45
220.03,-4.02,0.45,-4.02,0.45,-0.45,-0.39,-0.24,-4.46,-4.46,-4.47
222.23,-4.02,0.47,-4.02,0.45,-0.45,-0.36,-0.26,-4.47,-4.47,-4.49
224.45,-4.02,0.47,-4.02,0.46,-0.46,-0.34,-0.29,-4.47,-4.48,-4.48
226.70,-4.02,0.47,-4.02,0.46,-0.46,-0.32,-0.31,-4.48,-4.48,-4.49
228.96,-4.01,0.47,-4.01,0.47,-0.47,-0.30,-0.33,-4.47,-4.48,-4.48
231.25,-4.01,0.47,-4.00,0.47,-0.47,-0.29,-0.35,-4.48,-4.47,-4.47
233.57,-4.00,0.47,-3.99,0.48,-0.48,-0.27,-0.37,-4.48,-4.46,-4.47
235.90,-3.98,0.48,-3.97,0.48,-0.48,-0.25,-0.39,-4.46,-4.45,-4.46
238.26,-3.97,0.48,-3.96,0.48,-0.48,-0.24,-0.41,-4.45,-4.44,-4.45
240.64,-3.95,0.48,-3.94,0.48,-0.48,-0.23,-0.42,-4.43,-4.42,-4.43
243.05,-3.94,0.46,-3.93,0.48,-0.48,-0.22,-0.44,-4.41,-4.40,-4.40
245.48,-3.92,0.46,-3.91,0.48,-0.48,-0.21,-0.45,-4.39,-4.38,-4.38
247.93,-3.89,0.46,-3.89,0.47,-0.47,-0.20,-0.46,-4.36,-4.36,-4.35
250.41,-3.87,0.47,-3.88,0.47,-0.47,-0.20,-0.47,-4.33,-4.34,-4.34
252.92,-3.86,0.45,-3.87,0.45,-0.45,-0.19,-0.48,-4.31,-4.32,-4.31
255.45,-3.84,0.45,-3.86,0.44,-0.44,-0.19,-0.49,-4.27,-4.30,-4.29
258.00,-3.83,0.44,-3.86,0.42,-0.42,-0.19,-0.49,-4.24,-4.27,-4.27
260.58,-3.83,0.43,-3.85,0.40,-0.40,-0.19,-0.50,-4.23,-4.25,-4.25
263.19,-3.83,0.40,-3.85,0.38,-0.38,-0.19,-0.50,-4.21,-4.23,-4.22
265.82,-3.83,0.38,-3.84,0.36,-0.36,-0.19,-0.50,-4.19,-4.20,-4.21
268.48,-3.83,0.36,-3.84,0.35,-0.35,-0.19,-0.50,-4.17,-4.18,-4.19
271.16,-3.84,0.32,-3.83,0.32,-0.32,-0.20,-0.50,-4.16,-4.16,-4.15
273.87,-3.88,0.26,-3.83,0.30,-0.30,-0.20,-0.50,-4.18,-4.13,-4.14
276.61,-3.93,0.18,-3.83,0.28,-0.28,-0.21,-0.50,-4.21,-4.11,-4.11
279.38,-3.87,0.22,-3.82,0.26,-0.26,-0.21,-0.49,-4.13,-4.08,-4.08
282.17,-3.80,0.26,-3.82,0.24,-0.24,-0.22,-0.49,-4.04,-4.06,-4.06
284.99,-3.78,0.25,-3.81,0.22,-0.22,-0.22,-0.48,-3.99,-4.03,-4.03
287.84,-3.77,0.24,-3.80,0.20,-0.20,-0.23,-0.47,-3.96,-4.00,-4.01
290.72,-3.76,0.22,-3.80,0.18,-0.18,-0.24,-0.47,-3.93,-3.97,-3.98
293.63,-3.79,0.16,-3.79,0.16,-0.16,-0.24,-0.46,-3.95,-3.95,-3.95
296.57,-3.79,0.13,-3.78,0.14,-0.14,-0.25,-0.45,-3.93,-3.92,-3.92
299.53,-3.78,0.11,-3.77,0.13,-0.13,-0.26,-0.44,-3.90,-3.89,-3.89
302.53,-3.76,0.12,-3.75,0.11,-0.11,-0.27,-0.43,-3.87,-3.87,-3.88
305.55,-3.75,0.08,-3.74,0.10,-0.10,-0.28,-0.42,-3.85,-3.84,-3.83
308.61,-3.74,0.08,-3.73,0.09,-0.09,-0.29,-0.41,-3.82,-3.82,-3.82
311.69,-3.74,0.05,-3.73,0.07,-0.07,-0.30,-0.40,-3.80,-3.80,-3.79
314.81,-3.73,0.04,-3.73,0.05,-0.05,-0.31,-0.39,-3.78,-3.77,-3.76
317.96,-3.73,0.02,-3.72,0.04,-0.04,-0.32,-0.38,-3.76,-3.75,-3.75
321.14,-3.73,0.01,-3.71,0.02,-0.02,-0.33,-0.38,-3.75,-3.74,-3.74
324.35,-3.69,0.04,-3.71,0.01,-0.01,-0.34,-0.37,-3.70,-3.72,-3.72
327.59,-3.68,0.03,-3.71,0.00,-0.00,-0.35,-0.36,-3.68,-3.71,-3.71
330.87,-3.68,0.02,-3.70,-0.00,0.00,-0.36,-0.35,-3.67,-3.69,-3.70
334.18,-3.69,-0.00,-3.69,-0.01,0.01,-0.38,-0.34,-3.68,-3.68,-3.68
337.52,-3.69,-0.01,-3.68,-0.01,0.01,-0.39,-0.33,-3.68,-3.67,-3.68
340.90,-3.69,-0.03,-3.68,-0.01,0.01,-0.40,-0.32,-3.68,-3.67,-3.66
344.30,-3.69,-0.03,-3.68,-0.02,0.02,-0.41,-0.31,-3.67,-3.66,-3.65
347.75,-3.69,-0.03,-3.68,-0.02,0.02,-0.42,-0.30,-3.67,-3.66,-3.66
351.23,-3.69,-0.04,-3.67,-0.02,0.02,-0.44,-0.29,-3.66,-3.65,-3.65
354.74,-3.69,-0.04,-3.67,-0.02,0.02,-0.45,-0.28,-3.66,-3.65,-3.65
358.28,-3.68,-0.03,-3.67,-0.02,0.02,-0.46,-0.28,-3.65,-3.64,-3.64
361.87,-3.63,0.02,-3.66,-0.02,0.02,-0.48,-0.27,-3.61,-3.64,-3.65
365.49,-3.56,0.08,-3.65,-0.01,0.01,-0.49,-0.26,-3.55,-3.64,-3.64
369.14,-3.64,0.01,-3.65,-0.00,0.00,-0.50,-0.25,-3.64,-3.64,-3.65
372.83,-3.71,-0.06,-3.63,0.01,-0.01,-0.52,-0.25,-3.72,-3.65,-3.65
376.56,-3.72,-0.06,-3.62,0.03,-0.03,-0.53,-0.24,-3.75,-3.65,-3.65
380.33,-3.61,0.04,-3.60,0.05,-0.05,-0.55,-0.23,-3.66,-3.65,-3.65
384.13,-3.58,0.07,-3.59,0.07,-0.07,-0.56,-0.23,-3.64,-3.66,-3.65
387.97,-3.58,0.08,-3.58,0.08,-0.08,-0.57,-0.22,-3.66,-3.66,-3.66
391.85,-3.56,0.11,-3.57,0.10,-0.10,-0.59,-0.22,-3.65,-3.67,-3.67
395.77,-3.52,0.15,-3.56,0.11,-0.11,-0.60,-0.21,-3.63,-3.67,-3.66
399.73,-3.52,0.16,-3.55,0.13,-0.13,-0.62,-0.21,-3.65,-3.68,-3.67
403.72,-3.53,0.15,-3.54,0.14,-0.14,-0.64,-0.20,-3.67,-3.68,-3.68
407.76,-3.50,0.19,-3.52,0.17,-0.17,-0.65,-0.20,-3.66,-3.69,-3.69
411.84,-3.48,0.21,-3.50,0.19,-0.19,-0.67,-0.20,-3.67,-3.69,-3.69
415.96,-3.49,0.20,-3.48,0.21,-0.21,-0.68,-0.20,-3.70,-3.69,-3.69
420.12,-3.48,0.21,-3.46,0.23,-0.23,-0.70,-0.19,-3.71,-3.69,-3.69
424.32,-3.49,0.21,-3.44,0.25,-0.25,-0.72,-0.19,-3.73,-3.69,-3.69
428.56,-3.47,0.22,-3.42,0.26,-0.26,-0.73,-0.19,-3.73,-3.68,-3.68
432.85,-3.42,0.26,-3.39,0.28,-0.28,-0.75,-0.19,-3.69,-3.66,-3.67
437.18,-3.33,0.34,-3.35,0.29,-0.29,-0.77,-0.19,-3.62,-3.64,-3.67
441.55,-3.29,0.34,-3.30,0.32,-0.32,-0.78,-0.19,-3.60,-3.62,-3.63
445.96,-3.25,0.35,-3.24,0.34,-0.34,-0.80,-0.20,-3.59,-3.58,-3.60
450.42,-3.19,0.38,-3.18,0.37,-0.37,-0.82,-0.20,-3.56,-3.55,-3.57
454.93,-3.15,0.37,-3.11,0.40,-0.40,-0.84,-0.20,-3.54,-3.51,-3.52
459.48,-3.07,0.40,-3.04,0.42,-0.42,-0.85,-0.21,-3.49,-3.46,-3.47
464.07,-2.97,0.45,-2.97,0.45,-0.45,-0.87,-0.22,-3.41,-3.42,-3.42
468.71,-2.95,0.42,-2.90,0.47,-0.47,-0.89,-0.22,-3.42,-3.37,-3.36
