frequency,raw,error,smoothed,error_smoothed,equalization,parametric_eq,fixed_band_eq,equalized_raw,equalized_smoothed,target
20.00,-18.95,-24.58,-18.95,-24.58,24.58,18.98,6.04,5.63,5.63,5.63
20.20,-18.79,-24.46,-18.80,-24.46,24.47,18.96,6.19,5.68,5.67,5.67
20.40,-18.64,-24.35,-18.64,-24.35,24.35,18.93,6.34,5.71,5.71,5.71
20.61,-18.48,-24.22,-18.48,-24.23,24.22,18.91,6.49,5.74,5.74,5.74
20.81,-18.32,-24.10,-18.32,-24.10,24.10,18.89,6.65,5.78,5.78,5.78
21.02,-18.16,-23.98,-18.16,-23.97,23.97,18.86,6.82,5.81,5.81,5.82
21.23,-18.00,-23.84,-18.00,-23.84,23.84,18.84,6.98,5.84,5.84,5.84
21.44,-17.84,-23.70,-17.84,-23.70,23.70,18.81,7.16,5.86,5.86,5.86
21.66,-17.68,-23.56,-17.68,-23.56,23.56,18.79,7.33,5.88,5.88,5.88
21.87,-17.52,-23.41,-17.52,-23.41,23.42,18.76,7.51,5.90,5.90,5.89
22.09,-17.36,-23.27,-17.36,-23.27,23.27,18.73,7.70,5.91,5.91,5.91
22.31,-17.20,-23.12,-17.20,-23.12,23.12,18.70,7.89,5.92,5.92,5.92
22.54,-17.04,-22.97,-17.04,-22.97,22.97,18.67,8.09,5.92,5.93,5.93
22.76,-16.88,-22.82,-16.88,-22.82,22.82,18.64,8.29,5.93,5.93,5.94
22.99,-16.72,-22.66,-16.72,-22.66,22.66,18.61,8.49,5.94,5.94,5.94
23.22,-16.55,-22.50,-16.56,-22.51,22.51,18.58,8.71,5.96,5.95,5.95
23.45,-16.39,-22.35,-16.39,-22.35,22.35,18.55,8.92,5.96,5.96,5.96
23.69,-16.22,-22.19,-16.22,-22.19,22.20,18.52,9.15,5.97,5.97,5.97
23.92,-16.05,-22.03,-16.05,-22.04,22.04,18.49,9.38,5.99,5.99,5.98
24.16,-15.89,-21.89,-15.89,-21.89,21.88,18.45,9.61,5.99,6.00,6.00
24.40,-15.72,-21.74,-15.72,-21.73,21.73,18.42,9.85,6.01,6.01,6.02
24.65,-15.56,-21.57,-15.56,-21.58,21.57,18.38,10.10,6.01,6.01,6.01
24.89,-15.39,-21.41,-15.39,-21.41,21.42,18.35,10.35,6.03,6.03,6.02
25.14,-15.23,-21.26,-15.23,-21.26,21.26,18.31,10.61,6.03,6.03,6.03
25.39,-15.06,-21.10,-15.06,-21.11,21.10,18.27,10.87,6.05,6.04,6.04
25.65,-14.90,-20.96,-14.90,-20.95,20.95,18.23,11.14,6.05,6.05,6.06
25.91,-14.73,-20.79,-14.73,-20.79,20.79,18.19,11.41,6.06,6.06,6.06
26.16,-14.56,-20.63,-14.56,-20.63,20.64,18.15,11.68,6.08,6.07,6.07
26.43,-14.39,-20.47,-14.40,-20.47,20.48,18.11,11.96,6.09,6.08,6.08
26.69,-14.23,-20.32,-14.23,-20.32,20.32,18.06,12.24,6.09,6.09,6.09
26.96,-14.06,-20.17,-14.06,-20.17,20.16,18.02,12.52,6.10,6.10,6.11
27.23,-13.89,-20.01,-13.89,-20.01,20.00,17.97,12.81,6.11,6.11,6.12
27.50,-13.72,-19.84,-13.73,-19.85,19.84,17.93,13.09,6.12,6.12,6.12
27.77,-13.56,-19.68,-13.56,-19.68,19.69,17.88,13.37,6.13,6.13,6.12
28.05,-13.39,-19.53,-13.39,-19.52,19.53,17.83,13.64,6.14,6.14,6.14
28.33,-13.22,-19.36,-13.22,-19.37,19.37,17.78,13.91,6.15,6.14,6.14
28.62,-13.05,-19.20,-13.06,-19.20,19.21,17.73,14.17,6.15,6.15,6.15
28.90,-12.89,-19.05,-12.89,-19.05,19.05,17.67,14.41,6.16,6.16,6.16
29.19,-12.72,-18.88,-12.72,-18.89,18.89,17.62,14.65,6.17,6.17,6.16
29.48,-12.55,-18.74,-12.55,-18.73,18.73,17.56,14.86,6.18,6.18,6.19
29.78,-12.39,-18.57,-12.39,-18.57,18.57,17.50,15.06,6.18,6.19,6.18
30.08,-12.22,-18.41,-12.22,-18.42,18.42,17.44,15.22,6.19,6.19,6.19
30.38,-12.06,-18.25,-12.07,-18.26,18.26,17.38,15.37,6.20,6.20,6.19
30.68,-11.90,-18.11,-11.91,-18.11,18.11,17.32,15.47,6.21,6.20,6.21
30.99,-11.75,-17.96,-11.75,-17.95,17.95,17.26,15.56,6.20,6.21,6.21
31.30,-11.58,-17.79,-11.59,-17.80,17.80,17.19,15.61,6.21,6.21,6.21
31.61,-11.42,-17.64,-11.42,-17.64,17.64,17.12,15.63,6.22,6.22,6.22
31.93,-11.26,-17.49,-11.26,-17.49,17.49,17.05,15.61,6.23,6.23,6.23
32.24,-11.10,-17.33,-11.10,-17.34,17.34,16.98,15.58,6.24,6.24,6.23
32.57,-10.94,-17.19,-10.94,-17.18,17.19,16.91,15.50,6.24,6.25,6.25
32.89,-10.78,-17.03,-10.78,-17.03,17.04,16.83,15.41,6.26,6.25,6.25
33.22,-10.62,-16.88,-10.62,-16.89,16.88,16.76,15.28,6.26,6.26,6.26
33.55,-10.47,-16.74,-10.47,-16.74,16.73,16.68,15.15,6.26,6.27,6.27
33.89,-10.31,-16.59,-10.31,-16.59,16.58,16.59,14.99,6.27,6.27,6.28
34.23,-10.15,-16.43,-10.15,-16.43,16.43,16.51,14.83,6.28,6.28,6.28
34.57,-9.99,-16.28,-9.99,-16.28,16.28,16.42,14.64,6.29,6.29,6.29
34.92,-9.83,-16.12,-9.84,-16.13,16.13,16.33,14.46,6.30,6.30,6.29
35.27,-9.68,-15.98,-9.68,-15.98,15.98,16.24,14.27,6.30,6.30,6.30
35.62,-9.53,-15.83,-9.53,-15.83,15.83,16.15,14.07,6.30,6.30,6.30
35.97,-9.38,-15.68,-9.38,-15.68,15.68,16.05,13.87,6.30,6.30,6.30
36.33,-9.23,-15.54,-9.23,-15.53,15.53,15.95,13.68,6.30,6.30,6.31
36.70,-9.08,-15.38,-9.08,-15.38,15.38,15.84,13.48,6.30,6.30,6.30
37.06,-8.92,-15.23,-8.92,-15.23,15.23,15.74,13.29,6.31,6.31,6.31
37.43,-8.77,-15.08,-8.77,-15.08,15.08,15.63,13.11,6.31,6.31,6.31
37.81,-8.62,-14.93,-8.62,-14.93,14.93,15.51,12.92,6.31,6.31,6.31
38.19,-8.47,-14.78,-8.47,-14.78,14.78,15.39,12.75,6.31,6.31,6.31
38.57,-8.33,-14.63,-8.33,-14.63,14.63,15.27,12.58,6.30,6.30,6.30
38.95,-8.19,-14.49,-8.19,-14.49,14.49,15.15,12.42,6.30,6.30,6.30
39.34,-8.05,-14.34,-8.05,-14.34,14.35,15.02,12.26,6.30,6.30,6.29
39.74,-7.91,-14.20,-7.91,-14.20,14.20,14.88,12.11,6.29,6.29,6.29
40.14,-7.77,-14.06,-7.78,-14.06,14.07,14.74,11.97,6.29,6.29,6.29
40.54,-7.64,-13.93,-7.64,-13.93,13.93,14.60,11.83,6.29,6.29,6.29
40.94,-7.51,-13.79,-7.51,-13.79,13.79,14.45,11.71,6.28,6.28,6.28
41.35,-7.38,-13.66,-7.38,-13.66,13.66,14.30,11.59,6.28,6.28,6.28
41.76,-7.24,-13.52,-7.24,-13.52,13.52,14.14,11.48,6.28,6.28,6.28
42.18,-7.11,-13.39,-7.11,-13.39,13.39,13.98,11.37,6.28,6.28,6.28
42.60,-6.98,-13.26,-6.98,-13.26,13.26,13.81,11.28,6.28,6.28,6.28
43.03,-6.84,-13.12,-6.84,-13.12,13.12,13.64,11.19,6.28,6.27,6.28
43.46,-6.71,-12.99,-6.71,-12.99,12.98,13.47,11.11,6.27,6.27,6.28
43.90,-6.58,-12.84,-6.58,-12.85,12.84,13.29,11.04,6.26,6.26,6.26
44.33,-6.45,-12.71,-6.45,-12.71,12.71,13.11,10.97,6.26,6.26,6.26
44.78,-6.31,-12.56,-6.31,-12.56,12.57,12.92,10.92,6.26,6.26,6.25
45.23,-6.17,-12.42,-6.17,-12.42,12.43,12.73,10.87,6.26,6.26,6.25
45.68,-6.04,-12.29,-6.04,-12.29,12.30,12.54,10.82,6.26,6.26,6.25
46.13,-5.91,-12.15,-5.92,-12.16,12.16,12.35,10.79,6.25,6.25,6.24
46.60,-5.79,-12.04,-5.79,-12.03,12.03,12.17,10.76,6.23,6.24,6.25
47.06,-5.66,-11.90,-5.66,-11.90,11.89,11.98,10.74,6.23,6.23,6.24
47.53,-5.52,-11.75,-5.53,-11.76,11.76,11.80,10.72,6.23,6.23,6.23
48.01,-5.39,-11.63,-5.39,-11.62,11.62,11.63,10.72,6.23,6.23,6.24
48.49,-5.26,-11.48,-5.26,-11.48,11.48,11.46,10.71,6.22,6.22,6.22
48.97,-5.13,-11.33,-5.13,-11.34,11.34,11.29,10.72,6.21,6.21,6.20
49.46,-5.00,-11.19,-5.01,-11.19,11.20,11.14,10.73,6.20,6.19,6.19
49.96,-4.88,-11.05,-4.88,-11.06,11.06,10.99,10.74,6.17,6.18,6.17
50.46,-4.76,-10.93,-4.76,-10.92,10.92,10.85,10.76,6.16,6.16,6.17
50.96,-4.63,-10.78,-4.63,-10.78,10.78,10.72,10.78,6.15,6.15,6.15
51.47,-4.51,-10.63,-4.51,-10.64,10.64,10.59,10.81,6.13,6.13,6.12
51.99,-4.39,-10.50,-4.39,-10.50,10.51,10.47,10.84,6.12,6.11,6.11
52.51,-4.28,-10.38,-4.28,-10.38,10.37,10.35,10.87,6.09,6.09,6.10
53.03,-4.16,-10.24,-4.16,-10.25,10.24,10.23,10.91,6.08,6.08,6.08
53.56,-4.05,-10.12,-4.05,-10.11,10.11,10.12,10.95,6.06,6.06,6.07
54.10,-3.93,-9.97,-3.93,-9.98,9.98,10.00,10.99,6.05,6.05,6.04
54.64,-3.82,-9.85,-3.83,-9.85,9.85,9.89,11.02,6.03,6.03,6.03
55.18,-3.72,-9.72,-3.72,-9.72,9.72,9.77,11.06,6.00,6.00,6.00
55.74,-3.62,-9.59,-3.62,-9.60,9.60,9.66,11.09,5.98,5.98,5.97
56.29,-3.52,-9.49,-3.52,-9.48,9.48,9.54,11.12,5.96,5.96,5.97
56.86,-3.42,-9.36,-3.42,-9.36,9.36,9.43,11.15,5.94,5.94,5.94
57.42,-3.32,-9.23,-3.32,-9.24,9.25,9.31,11.17,5.93,5.92,5.91
58.00,-3.23,-9.12,-3.24,-9.12,9.14,9.19,11.19,5.90,5.90,5.89
58.58,-3.15,-9.02,-3.15,-9.02,9.03,9.08,11.19,5.87,5.87,5.87
59.16,-3.08,-8.93,-3.07,-8.92,8.92,8.96,11.19,5.84,5.84,5.85
59.76,-2.99,-8.82,-2.99,-8.82,8.81,8.84,11.18,5.82,5.82,5.83
60.35,-2.90,-8.70,-2.91,-8.71,8.70,8.73,11.16,5.80,5.79,5.80
60.96,-2.83,-8.60,-2.83,-8.59,8.59,8.61,11.13,5.76,5.76,5.77
61.57,-2.76,-8.48,-2.76,-8.48,8.48,8.50,11.09,5.72,5.73,5.72
62.18,-2.69,-8.37,-2.69,-8.38,8.37,8.39,11.04,5.68,5.69,5.68
62.80,-2.61,-8.27,-2.61,-8.26,8.26,8.28,10.97,5.65,5.65,5.66
63.43,-2.54,-8.15,-2.54,-8.15,8.16,8.17,10.89,5.62,5.62,5.61
64.07,-2.47,-8.04,-2.47,-8.05,8.05,8.06,10.80,5.58,5.58,5.57
64.71,-2.40,-7.94,-2.40,-7.94,7.95,7.96,10.70,5.55,5.54,5.54
65.35,-2.34,-7.84,-2.34,-7.84,7.84,7.85,10.59,5.50,5.50,5.50
66.01,-2.28,-7.74,-2.28,-7.75,7.74,7.75,10.46,5.46,5.46,5.46
66.67,-2.22,-7.65,-2.22,-7.65,7.64,7.65,10.33,5.42,5.42,5.43
67.33,-2.16,-7.55,-2.16,-7.55,7.54,7.54,10.18,5.38,5.38,5.39
68.01,-2.09,-7.44,-2.09,-7.44,7.44,7.43,10.03,5.35,5.35,5.35
68.69,-2.02,-7.33,-2.02,-7.33,7.34,7.33,9.88,5.32,5.32,5.31
69.37,-1.96,-7.23,-1.96,-7.23,7.24,7.21,9.71,5.28,5.28,5.27
70.07,-1.90,-7.13,-1.90,-7.14,7.14,7.10,9.54,5.24,5.23,5.23
70.77,-1.85,-7.04,-1.85,-7.04,7.04,6.98,9.37,5.19,5.19,5.19
71.48,-1.79,-6.95,-1.79,-6.95,6.94,6.87,9.19,5.15,5.15,5.16
72.19,-1.73,-6.84,-1.73,-6.85,6.84,6.75,9.01,5.11,5.11,5.11
72.91,-1.67,-6.75,-1.67,-6.75,6.74,6.64,8.83,5.07,5.08,5.08
73.64,-1.60,-6.64,-1.61,-6.65,6.65,6.52,8.65,5.05,5.04,5.04
74.38,-1.54,-6.55,-1.54,-6.55,6.56,6.42,8.47,5.02,5.01,5.01
75.12,-1.49,-6.46,-1.49,-6.46,6.47,6.31,8.29,4.97,4.98,4.97
75.87,-1.43,-6.37,-1.43,-6.37,6.38,6.21,8.11,4.95,4.94,4.94
76.63,-1.38,-6.29,-1.38,-6.29,6.29,6.11,7.93,4.91,4.91,4.91
77.40,-1.33,-6.21,-1.33,-6.21,6.21,6.03,7.75,4.88,4.88,4.88
78.17,-1.28,-6.13,-1.28,-6.13,6.13,5.94,7.57,4.84,4.85,4.85
78.95,-1.22,-6.04,-1.22,-6.05,6.04,5.86,7.40,4.82,4.82,4.82
79.74,-1.17,-5.97,-1.17,-5.97,5.97,5.79,7.23,4.79,4.80,4.80
80.54,-1.11,-5.89,-1.11,-5.89,5.89,5.73,7.07,4.78,4.77,4.78
81.35,-1.06,-5.81,-1.06,-5.81,5.81,5.66,6.90,4.75,4.75,4.75
82.16,-1.01,-5.73,-1.01,-5.74,5.74,5.61,6.74,4.72,4.73,4.72
82.98,-0.96,-5.67,-0.96,-5.66,5.67,5.55,6.59,4.70,4.71,4.71
83.81,-0.91,-5.59,-0.91,-5.59,5.60,5.50,6.44,4.69,4.69,4.68
84.65,-0.87,-5.52,-0.87,-5.53,5.54,5.46,6.29,4.67,4.67,4.65
85.50,-0.84,-5.48,-0.84,-5.48,5.48,5.42,6.15,4.64,4.64,4.64
86.35,-0.81,-5.43,-0.81,-5.43,5.43,5.38,6.00,4.62,4.62,4.62
87.22,-0.78,-5.38,-0.78,-5.38,5.38,5.34,5.87,4.60,4.60,4.60
88.09,-0.75,-5.33,-0.75,-5.33,5.33,5.30,5.74,4.58,4.58,4.58
88.97,-0.72,-5.28,-0.72,-5.29,5.28,5.27,5.61,4.56,4.56,4.56
89.86,-0.69,-5.24,-0.69,-5.23,5.23,5.24,5.48,4.54,4.54,4.55
90.76,-0.66,-5.18,-0.66,-5.18,5.18,5.21,5.36,4.52,4.52,4.52
91.66,-0.62,-5.12,-0.62,-5.13,5.13,5.18,5.24,4.51,4.50,4.50
92.58,-0.59,-5.07,-0.59,-5.07,5.08,5.15,5.13,4.48,4.49,4.48
93.51,-0.55,-5.02,-0.55,-5.02,5.02,5.12,5.02,4.47,4.47,4.47
94.44,-0.52,-4.97,-0.52,-4.97,4.97,5.09,4.92,4.45,4.45,4.45
95.39,-0.49,-4.92,-0.49,-4.92,4.92,5.06,4.81,4.42,4.42,4.43
96.34,-0.47,-4.87,-0.47,-4.87,4.86,5.03,4.71,4.39,4.39,4.40
97.30,-0.44,-4.81,-0.44,-4.81,4.81,5.00,4.62,4.37,4.37,4.37
98.28,-0.41,-4.75,-0.41,-4.76,4.76,4.97,4.52,4.35,4.35,4.34
99.26,-0.38,-4.70,-0.39,-4.70,4.71,4.94,4.43,4.33,4.32,4.32
100.25,-0.37,-4.66,-0.37,-4.66,4.66,4.90,4.35,4.29,4.30,4.29
101.25,-0.35,-4.61,-0.35,-4.61,4.62,4.87,4.26,4.27,4.27,4.26
102.27,-0.34,-4.56,-0.34,-4.57,4.57,4.84,4.18,4.23,4.23,4.22
103.29,-0.33,-4.52,-0.33,-4.53,4.53,4.80,4.10,4.20,4.20,4.19
104.32,-0.33,-4.49,-0.33,-4.48,4.48,4.77,4.03,4.15,4.15,4.16
105.37,-0.32,-4.44,-0.32,-4.44,4.43,4.73,3.95,4.11,4.11,4.12
106.42,-0.31,-4.38,-0.31,-4.39,4.37,4.69,3.88,4.06,4.06,4.07
107.48,-0.29,-4.33,-0.29,-4.32,4.31,4.65,3.81,4.02,4.02,4.04
108.56,-0.26,-4.24,-0.26,-4.25,4.24,4.61,3.75,3.98,3.97,3.98
109.64,-0.23,-4.16,-0.23,-4.16,4.16,4.57,3.68,3.93,3.93,3.93
110.74,-0.19,-4.07,-0.19,-4.07,4.07,4.53,3.62,3.88,3.88,3.88
111.85,-0.15,-3.98,-0.16,-3.98,3.98,4.48,3.56,3.83,3.83,3.83
112.97,-0.12,-3.88,-0.12,-3.89,3.89,4.44,3.50,3.77,3.77,3.76
114.10,-0.09,-3.80,-0.09,-3.80,3.80,4.39,3.44,3.71,3.71,3.71
115.24,-0.06,-3.71,-0.06,-3.71,3.71,4.35,3.38,3.65,3.64,3.65
116.39,-0.04,-3.62,-0.04,-3.62,3.63,4.30,3.33,3.58,3.59,3.58
117.55,-0.02,-3.54,-0.02,-3.54,3.55,4.25,3.27,3.53,3.53,3.52
118.73,-0.00,-3.46,-0.00,-3.47,3.48,4.20,3.22,3.48,3.47,3.46
119.92,0.01,-3.40,0.00,-3.40,3.41,4.15,3.17,3.42,3.42,3.41
121.12,-0.00,-3.35,0.00,-3.35,3.35,4.10,3.11,3.35,3.36,3.35
122.33,-0.00,-3.30,-0.00,-3.30,3.30,4.05,3.06,3.30,3.30,3.30
123.55,-0.00,-3.25,-0.01,-3.25,3.25,3.99,3.01,3.25,3.24,3.25
124.79,-0.01,-3.21,-0.01,-3.21,3.20,3.94,2.96,3.19,3.19,3.20
126.03,-0.01,-3.16,-0.01,-3.16,3.15,3.88,2.91,3.14,3.14,3.15
127.29,-0.01,-3.11,-0.01,-3.11,3.11,3.83,2.87,3.09,3.09,3.10
128.57,-0.01,-3.05,-0.01,-3.06,3.06,3.77,2.82,3.05,3.05,3.04
129.85,-0.01,-3.01,-0.01,-3.01,3.01,3.72,2.77,3.00,3.00,3.00
131.15,-0.01,-2.96,-0.01,-2.96,2.97,3.66,2.72,2.96,2.96,2.95
132.46,-0.01,-2.92,-0.01,-2.92,2.92,3.60,2.68,2.91,2.91,2.91
133.79,-0.01,-2.88,-0.01,-2.88,2.88,3.54,2.63,2.87,2.87,2.87
135.12,-0.01,-2.84,-0.01,-2.84,2.84,3.49,2.58,2.83,2.83,2.83
136.48,-0.01,-2.80,-0.01,-2.80,2.80,3.43,2.54,2.79,2.79,2.79
137.84,-0.01,-2.76,-0.01,-2.76,2.76,3.37,2.50,2.75,2.75,2.75
139.22,-0.01,-2.71,-0.01,-2.72,2.72,3.31,2.45,2.71,2.71,2.70
140.61,-0.01,-2.67,-0.01,-2.68,2.68,3.25,2.41,2.67,2.67,2.66
142.02,-0.01,-2.65,-0.01,-2.64,2.65,3.19,2.37,2.63,2.63,2.64
143.44,-0.01,-2.61,-0.01,-2.61,2.61,3.13,2.32,2.60,2.60,2.60
144.87,-0.01,-2.57,-0.01,-2.57,2.57,3.08,2.28,2.56,2.56,2.56
146.32,-0.01,-2.53,-0.01,-2.54,2.53,3.02,2.24,2.52,2.52,2.52
147.78,-0.01,-2.50,-0.01,-2.50,2.50,2.96,2.20,2.49,2.49,2.49
149.26,-0.01,-2.47,-0.01,-2.46,2.46,2.90,2.17,2.45,2.45,2.46
150.75,-0.01,-2.41,-0.01,-2.42,2.42,2.84,2.13,2.41,2.41,2.40
152.26,-0.01,-2.37,-0.01,-2.37,2.38,2.78,2.09,2.37,2.37,2.36
153.78,-0.01,-2.34,-0.01,-2.33,2.33,2.73,2.06,2.32,2.32,2.33
155.32,-0.01,-2.28,-0.01,-2.29,2.29,2.67,2.02,2.28,2.28,2.27
156.88,-0.01,-2.25,-0.01,-2.25,2.24,2.61,1.99,2.23,2.23,2.24
158.44,-0.01,-2.20,-0.01,-2.20,2.20,2.56,1.96,2.18,2.18,2.19
160.03,-0.01,-2.15,-0.01,-2.15,2.15,2.50,1.93,2.14,2.14,2.14
161.63,-0.01,-2.10,-0.01,-2.10,2.10,2.45,1.90,2.09,2.09,2.09
163.24,-0.00,-2.05,-0.00,-2.05,2.05,2.39,1.87,2.05,2.05,2.05
164.88,0.01,-2.00,0.01,-2.00,2.00,2.34,1.84,2.01,2.01,2.01
166.53,0.01,-1.95,0.01,-1.95,1.96,2.28,1.81,1.97,1.97,1.96
168.19,-0.00,-1.91,0.00,-1.91,1.92,2.23,1.79,1.92,1.92,1.91
169.87,-0.01,-1.87,-0.01,-1.88,1.88,2.18,1.76,1.87,1.87,1.86
171.57,-0.03,-1.85,-0.03,-1.85,1.84,2.13,1.74,1.81,1.81,1.82
173.29,-0.05,-1.81,-0.05,-1.82,1.81,2.08,1.71,1.76,1.75,1.76
175.02,-0.08,-1.79,-0.08,-1.79,1.78,2.03,1.69,1.70,1.70,1.71
176.77,-0.10,-1.75,-0.10,-1.75,1.75,1.98,1.67,1.65,1.65,1.65
178.54,-0.12,-1.72,-0.12,-1.72,1.73,1.93,1.65,1.61,1.61,1.60
180.32,-0.16,-1.70,-0.16,-1.70,1.72,1.89,1.63,1.56,1.56,1.54
182.13,-0.20,-1.69,-0.21,-1.70,1.71,1.84,1.62,1.51,1.50,1.49
183.95,-0.28,-1.71,-0.27,-1.70,1.70,1.80,1.60,1.42,1.43,1.43
185.79,-0.32,-1.70,-0.33,-1.70,1.70,1.76,1.59,1.38,1.37,1.38
187.65,-0.38,-1.69,-0.38,-1.70,1.69,1.71,1.57,1.31,1.31,1.31
189.52,-0.43,-1.69,-0.43,-1.69,1.69,1.67,1.56,1.26,1.26,1.26
191.42,-0.48,-1.69,-0.48,-1.69,1.68,1.63,1.54,1.20,1.20,1.21
193.33,-0.52,-1.68,-0.52,-1.68,1.67,1.59,1.53,1.15,1.15,1.16
195.27,-0.56,-1.67,-0.56,-1.66,1.66,1.56,1.52,1.09,1.10,1.11
197.22,-0.58,-1.63,-0.58,-1.63,1.64,1.52,1.51,1.06,1.06,1.05
199.19,-0.60,-1.60,-0.60,-1.61,1.62,1.48,1.50,1.02,1.01,1.00
201.18,-0.62,-1.57,-0.63,-1.58,1.59,1.45,1.49,0.97,0.97,0.95
203.19,-0.65,-1.57,-0.65,-1.56,1.56,1.42,1.49,0.91,0.91,0.92
205.23,-0.67,-1.53,-0.67,-1.54,1.53,1.38,1.48,0.86,0.86,0.86
207.28,-0.68,-1.52,-0.68,-1.51,1.49,1.35,1.47,0.81,0.81,0.84
209.35,-0.68,-1.46,-0.68,-1.46,1.45,1.32,1.47,0.77,0.77,0.78
211.44,-0.68,-1.41,-0.68,-1.42,1.42,1.30,1.46,0.73,0.74,0.73
213.56,-0.67,-1.36,-0.67,-1.37,1.38,1.27,1.45,0.70,0.70,0.69
215.69,-0.66,-1.33,-0.67,-1.33,1.33,1.24,1.45,0.67,0.67,0.67
217.85,-0.66,-1.29,-0.66,-1.29,1.29,1.22,1.44,0.63,0.63,0.63
220.03,-0.66,-1.25,-0.66,-1.26,1.26,1.19,1.44,0.60,0.60,0.59
222.23,-0.66,-1.22,-0.66,-1.22,1.22,1.17,1.43,0.56,0.56,0.56
224.45,-0.66,-1.20,-0.66,-1.20,1.19,1.15,1.43,0.53,0.53,0.54
226.70,-0.66,-1.17,-0.66,-1.17,1.17,1.13,1.42,0.51,0.51,0.51
228.96,-0.66,-1.14,-0.66,-1.15,1.15,1.11,1.42,0.49,0.49,0.48
231.25,-0.66,-1.13,-0.66,-1.13,1.13,1.09,1.41,0.47,0.47,0.47
233.57,-0.66,-1.11,-0.66,-1.11,1.11,1.08,1.40,0.45,0.45,0.45
235.90,-0.66,-1.10,-0.66,-1.10,1.10,1.06,1.40,0.44,0.44,0.44
238.26,-0.66,-1.09,-0.66,-1.09,1.09,1.05,1.39,0.43,0.43,0.43
240.64,-0.66,-1.08,-0.66,-1.08,1.08,1.03,1.38,0.42,0.42,0.42
243.05,-0.66,-1.08,-0.66,-1.08,1.08,1.02,1.38,0.42,0.42,0.42
245.48,-0.66,-1.07,-0.66,-1.07,1.07,1.01,1.37,0.41,0.41,0.41
247.93,-0.66,-1.07,-0.66,-1.07,1.07,1.00,1.36,0.41,0.41,0.41
250.41,-0.66,-1.07,-0.66,-1.07,1.08,0.99,1.35,0.42,0.42,0.41
252.92,-0.66,-1.08,-0.66,-1.08,1.08,0.98,1.34,0.42,0.42,0.42
255.45,-0.66,-1.09,-0.66,-1.09,1.09,0.97,1.32,0.42,0.42,0.43
258.00,-0.66,-1.10,-0.66,-1.10,1.09,0.97,1.31,0.43,0.43,0.44
260.58,-0.66,-1.10,-0.66,-1.10,1.10,0.96,1.30,0.44,0.44,0.44
263.19,-0.66,-1.11,-0.66,-1.11,1.12,0.95,1.29,0.45,0.45,0.45
265.82,-0.66,-1.12,-0.66,-1.13,1.13,0.95,1.27,0.47,0.47,0.46
268.48,-0.66,-1.14,-0.66,-1.14,1.14,0.95,1.26,0.48,0.48,0.48
271.16,-0.66,-1.16,-0.66,-1.16,1.15,0.95,1.24,0.49,0.49,0.50
273.87,-0.66,-1.16,-0.66,-1.17,1.17,0.94,1.23,0.51,0.51,0.50
276.61,-0.66,-1.19,-0.66,-1.18,1.18,0.94,1.21,0.52,0.52,0.53
279.38,-0.66,-1.19,-0.66,-1.20,1.20,0.94,1.20,0.53,0.53,0.53
282.17,-0.66,-1.21,-0.66,-1.21,1.21,0.94,1.18,0.55,0.55,0.55
284.99,-0.66,-1.22,-0.66,-1.22,1.22,0.95,1.16,0.56,0.56,0.56
287.84,-0.66,-1.23,-0.66,-1.23,1.23,0.95,1.15,0.57,0.57,0.57
290.72,-0.66,-1.24,-0.66,-1.25,1.25,0.95,1.13,0.58,0.58,0.58
293.63,-0.66,-1.26,-0.66,-1.26,1.26,0.95,1.11,0.60,0.60,0.60
296.57,-0.66,-1.28,-0.66,-1.27,1.27,0.96,1.10,0.61,0.61,0.62
299.53,-0.66,-1.28,-0.66,-1.29,1.29,0.96,1.08,0.62,0.62,0.62
302.53,-0.66,-1.29,-0.66,-1.30,1.30,0.97,1.06,0.64,0.64,0.63
305.55,-0.66,-1.31,-0.66,-1.31,1.31,0.97,1.05,0.65,0.65,0.65
308.61,-0.66,-1.32,-0.66,-1.32,1.32,0.98,1.03,0.66,0.66,0.66
311.69,-0.66,-1.33,-0.66,-1.34,1.33,0.99,1.02,0.67,0.67,0.67
314.81,-0.66,-1.36,-0.66,-1.35,1.34,1.00,1.00,0.68,0.68,0.70
317.96,-0.66,-1.35,-0.66,-1.36,1.35,1.00,0.99,0.69,0.69,0.69
321.14,-0.66,-1.36,-0.66,-1.36,1.36,1.01,0.97,0.70,0.70,0.70
324.35,-0.66,-1.36,-0.66,-1.36,1.37,1.02,0.96,0.70,0.70,0.70
327.59,-0.66,-1.37,-0.66,-1.37,1.37,1.03,0.95,0.71,0.71,0.71
330.87,-0.66,-1.37,-0.66,-1.37,1.37,1.04,0.93,0.71,0.71,0.71
334.18,-0.66,-1.37,-0.66,-1.38,1.38,1.05,0.92,0.72,0.72,0.71
337.52,-0.66,-1.38,-0.66,-1.38,1.38,1.06,0.91,0.72,0.72,0.72
340.90,-0.66,-1.38,-0.66,-1.38,1.39,1.07,0.90,0.73,0.73,0.72
344.30,-0.66,-1.38,-0.67,-1.39,1.39,1.08,0.89,0.73,0.73,0.72
347.75,-0.67,-1.39,-0.67,-1.39,1.39,1.09,0.88,0.72,0.72,0.72
351.23,-0.68,-1.40,-0.68,-1.40,1.39,1.10,0.87,0.71,0.71,0.72
354.74,-0.68,-1.40,-0.68,-1.40,1.39,1.11,0.86,0.71,0.71,0.72
358.28,-0.68,-1.38,-0.68,-1.39,1.38,1.12,0.85,0.70,0.70,0.70
361.87,-0.67,-1.37,-0.67,-1.37,1.37,1.13,0.85,0.70,0.70,0.70
365.49,-0.65,-1.35,-0.65,-1.35,1.35,1.14,0.84,0.70,0.69,0.70
369.14,-0.63,-1.32,-0.63,-1.33,1.32,1.15,0.83,0.69,0.69,0.69
372.83,-0.61,-1.30,-0.61,-1.29,1.29,1.16,0.83,0.68,0.68,0.69
376.56,-0.57,-1.25,-0.58,-1.26,1.25,1.17,0.82,0.68,0.68,0.68
380.33,-0.55,-1.22,-0.55,-1.22,1.21,1.18,0.82,0.66,0.67,0.67
384.13,-0.51,-1.17,-0.51,-1.17,1.17,1.20,0.81,0.66,0.66,0.66
387.97,-0.48,-1.13,-0.48,-1.13,1.13,1.21,0.81,0.65,0.65,0.65
391.85,-0.44,-1.08,-0.44,-1.09,1.09,1.22,0.81,0.65,0.65,0.64
395.77,-0.41,-1.06,-0.41,-1.05,1.05,1.23,0.80,0.64,0.64,0.65
399.73,-0.38,-1.02,-0.38,-1.02,1.02,1.24,0.80,0.64,0.64,0.64
403.72,-0.36,-0.99,-0.36,-0.99,0.99,1.25,0.80,0.63,0.63,0.63
407.76,-0.34,-0.96,-0.34,-0.96,0.97,1.26,0.80,0.63,0.63,0.62
411.84,-0.32,-0.95,-0.32,-0.94,0.95,1.27,0.80,0.63,0.63,0.63
415.96,-0.31,-0.92,-0.32,-0.93,0.94,1.27,0.80,0.63,0.62,0.61
420.12,-0.32,-0.93,-0.32,-0.93,0.93,1.28,0.80,0.61,0.62,0.61
424.32,-0.33,-0.94,-0.33,-0.93,0.93,1.29,0.80,0.60,0.60,0.61
428.56,-0.33,-0.93,-0.34,-0.94,0.93,1.30,0.80,0.60,0.60,0.60
432.85,-0.34,-0.94,-0.34,-0.94,0.93,1.31,0.80,0.59,0.60,0.60
437.18,-0.34,-0.94,-0.34,-0.94,0.94,1.31,0.80,0.60,0.60,0.60
441.55,-0.34,-0.95,-0.34,-0.95,0.94,1.32,0.80,0.60,0.60,0.61
445.96,-0.34,-0.95,-0.34,-0.95,0.95,1.33,0.81,0.61,0.61,0.61
450.42,-0.34,-0.94,-0.34,-0.95,0.95,1.33,0.81,0.61,0.61,0.60
454.93,-0.34,-0.95,-0.34,-0.95,0.95,1.34,0.81,0.61,0.61,0.61
459.48,-0.34,-0.95,-0.34,-0.95,0.96,1.34,0.81,0.61,0.61,0.61
464.07,-0.34,-0.96,-0.34,-0.96,0.96,1.35,0.81,0.62,0.62,0.62
468.71,-0.34,-0.97,-0.34,-0.96,0.96,1.35,0.81,0.62,0.62,0.63
