frequency,raw,error,smoothed,error_smoothed,equalization,parametric_eq,fixed_band_eq,equalized_raw,equalized_smoothed,target
20.00,-17.38,-20.22,-17.50,-20.37,20.37,19.76,9.06,2.98,2.87,2.84
20.20,-17.30,-20.19,-17.36,-20.27,20.27,20.00,9.24,2.96,2.90,2.89
20.40,-17.23,-20.17,-17.23,-20.17,20.17,20.21,9.42,2.94,2.94,2.94
20.61,-17.16,-20.12,-17.10,-20.07,20.07,20.39,9.61,2.92,2.97,2.97
20.81,-17.07,-20.09,-16.97,-19.97,19.97,20.55,9.80,2.90,3.00,3.02
21.02,-16.98,-20.04,-16.85,-19.88,19.88,20.67,10.00,2.89,3.03,3.06
21.23,-16.81,-19.89,-16.72,-19.78,19.78,20.75,10.20,2.97,3.06,3.08
21.44,-16.64,-19.74,-16.60,-19.68,19.68,20.80,10.41,3.04,3.08,3.10
21.66,-16.48,-19.60,-16.49,-19.59,19.59,20.81,10.62,3.11,3.10,3.12
21.87,-16.30,-19.43,-16.37,-19.49,19.49,20.79,10.84,3.19,3.12,3.13
22.09,-16.16,-19.31,-16.26,-19.40,19.40,20.73,11.06,3.23,3.14,3.15
22.31,-16.08,-19.24,-16.16,-19.30,19.30,20.64,11.29,3.22,3.15,3.16
22.54,-16.00,-19.15,-16.04,-19.20,19.20,20.52,11.53,3.20,3.16,3.16
22.76,-15.91,-19.07,-15.94,-19.10,19.10,20.38,11.77,3.18,3.16,3.16
22.99,-15.82,-18.97,-15.84,-19.00,19.00,20.22,12.02,3.17,3.16,3.15
23.22,-15.75,-18.90,-15.74,-18.90,18.90,20.04,12.28,3.15,3.16,3.15
23.45,-15.67,-18.82,-15.65,-18.82,18.82,19.84,12.55,3.14,3.16,3.15
23.69,-15.61,-18.76,-15.57,-18.73,18.73,19.64,12.82,3.13,3.16,3.16
23.92,-15.52,-18.68,-15.49,-18.65,18.65,19.43,13.10,3.13,3.16,3.16
24.16,-15.43,-18.59,-15.40,-18.56,18.56,19.22,13.39,3.13,3.16,3.16
24.40,-15.34,-18.51,-15.32,-18.48,18.48,19.00,13.70,3.14,3.16,3.17
24.65,-15.25,-18.40,-15.23,-18.39,18.39,18.78,14.00,3.15,3.16,3.16
24.89,-15.14,-18.30,-15.14,-18.30,18.30,18.56,14.33,3.16,3.16,3.16
25.14,-15.04,-18.20,-15.05,-18.21,18.21,18.35,14.66,3.17,3.16,3.16
25.39,-14.92,-18.09,-14.95,-18.11,18.11,18.13,15.00,3.19,3.16,3.17
25.65,-14.82,-17.98,-14.84,-18.00,18.00,17.93,15.35,3.19,3.16,3.17
25.91,-14.71,-17.87,-14.73,-17.89,17.89,17.72,15.72,3.18,3.16,3.16
26.16,-14.61,-17.77,-14.61,-17.77,17.77,17.53,16.09,3.16,3.16,3.16
26.43,-14.53,-17.68,-14.50,-17.66,17.66,17.33,16.48,3.13,3.16,3.16
26.69,-14.44,-17.60,-14.39,-17.55,17.55,17.15,16.88,3.11,3.16,3.16
26.96,-14.36,-17.51,-14.29,-17.44,17.44,16.97,17.30,3.09,3.16,3.16
27.23,-14.21,-17.37,-14.18,-17.33,17.33,16.80,17.73,3.13,3.15,3.16
27.50,-14.05,-17.20,-14.07,-17.23,17.23,16.63,18.16,3.18,3.15,3.16
27.77,-13.88,-17.03,-13.97,-17.12,17.12,16.47,18.61,3.24,3.15,3.15
28.05,-13.74,-16.89,-13.86,-17.01,17.01,16.32,19.07,3.26,3.15,3.15
28.33,-13.69,-16.83,-13.74,-16.89,16.89,16.17,19.54,3.20,3.15,3.14
28.62,-13.65,-16.78,-13.63,-16.77,16.77,16.03,20.00,3.13,3.15,3.14
28.90,-13.59,-16.74,-13.52,-16.66,16.66,15.90,20.46,3.07,3.15,3.15
29.19,-13.48,-16.62,-13.41,-16.56,16.56,15.77,20.92,3.07,3.14,3.14
29.48,-13.35,-16.50,-13.31,-16.45,16.45,15.65,21.35,3.10,3.14,3.15
29.78,-13.23,-16.36,-13.21,-16.35,16.35,15.54,21.75,3.12,3.14,3.14
30.08,-13.10,-16.25,-13.10,-16.24,16.24,15.43,22.10,3.14,3.14,3.15
30.38,-12.97,-16.11,-12.99,-16.12,16.12,15.32,22.40,3.16,3.14,3.14
30.68,-12.83,-15.97,-12.88,-16.02,16.02,15.23,22.62,3.19,3.14,3.14
30.99,-12.71,-15.84,-12.80,-15.93,15.93,15.13,22.75,3.22,3.13,3.14
31.30,-12.67,-15.79,-12.71,-15.84,15.84,15.05,22.79,3.18,3.13,3.13
31.61,-12.62,-15.75,-12.60,-15.73,15.73,14.97,22.74,3.11,3.13,3.13
31.93,-12.60,-15.72,-12.48,-15.61,15.61,14.89,22.59,3.02,3.13,3.13
32.24,-12.43,-15.55,-12.36,-15.48,15.48,14.81,22.36,3.05,3.12,3.12
32.57,-12.25,-15.36,-12.26,-15.38,15.38,14.75,22.06,3.13,3.12,3.12
32.89,-12.05,-15.17,-12.18,-15.29,15.29,14.68,21.71,3.24,3.11,3.12
33.22,-12.02,-15.13,-12.10,-15.21,15.21,14.62,21.32,3.19,3.11,3.11
33.55,-12.07,-15.17,-12.02,-15.12,15.12,14.56,20.91,3.06,3.10,3.11
33.89,-12.11,-15.21,-11.93,-15.03,15.03,14.51,20.48,2.91,3.10,3.10
34.23,-11.93,-15.02,-11.83,-14.92,14.92,14.45,20.04,3.00,3.10,3.10
34.57,-11.61,-14.70,-11.72,-14.81,14.81,14.40,19.60,3.19,3.09,3.09
34.92,-11.32,-14.41,-11.61,-14.69,14.69,14.35,19.16,3.37,3.09,3.09
35.27,-11.37,-14.45,-11.51,-14.59,14.59,14.30,18.74,3.22,3.08,3.08
35.62,-11.54,-14.62,-11.43,-14.51,14.51,14.26,18.32,2.96,3.08,3.08
35.97,-11.71,-14.79,-11.35,-14.43,14.43,14.21,17.91,2.72,3.08,3.08
36.33,-11.42,-14.50,-11.27,-14.35,14.35,14.17,17.52,2.93,3.08,3.08
36.70,-11.10,-14.17,-11.18,-14.26,14.26,14.12,17.14,3.16,3.08,3.07
37.06,-10.82,-13.89,-11.08,-14.16,14.16,14.07,16.77,3.33,3.08,3.07
37.43,-10.81,-13.89,-10.98,-14.06,14.06,14.02,16.42,3.25,3.08,3.08
37.81,-10.80,-13.88,-10.89,-13.96,13.96,13.97,16.07,3.16,3.08,3.08
38.19,-10.80,-13.87,-10.79,-13.86,13.86,13.92,15.75,3.06,3.08,3.07
38.57,-10.81,-13.89,-10.68,-13.75,13.75,13.86,15.43,2.94,3.08,3.08
38.95,-10.81,-13.90,-10.56,-13.64,13.64,13.80,15.12,2.83,3.08,3.09
39.34,-10.58,-13.66,-10.43,-13.51,13.51,13.74,14.83,2.93,3.08,3.08
39.74,-10.34,-13.41,-10.31,-13.39,13.39,13.67,14.55,3.06,3.08,3.08
40.14,-10.14,-13.22,-10.21,-13.29,13.29,13.60,14.28,3.15,3.08,3.08
40.54,-10.07,-13.14,-10.13,-13.20,13.20,13.52,14.02,3.14,3.08,3.08
40.94,-9.98,-13.05,-10.02,-13.09,13.09,13.44,13.76,3.11,3.07,3.07
41.35,-9.80,-12.87,-9.90,-12.97,12.97,13.35,13.52,3.16,3.07,3.07
41.76,-9.59,-12.65,-9.79,-12.85,12.85,13.26,13.29,3.25,3.06,3.06
42.18,-9.53,-12.58,-9.69,-12.74,12.74,13.16,13.07,3.22,3.05,3.06
42.60,-9.64,-12.68,-9.58,-12.62,12.62,13.06,12.85,2.99,3.04,3.05
43.03,-9.71,-12.75,-9.47,-12.50,12.50,12.94,12.64,2.78,3.03,3.04
43.46,-9.51,-12.54,-9.37,-12.39,12.39,12.83,12.44,2.88,3.02,3.03
43.90,-9.33,-12.34,-9.30,-12.31,12.31,12.70,12.25,2.98,3.01,3.01
44.33,-9.12,-12.11,-9.21,-12.20,12.20,12.57,12.06,3.08,2.99,2.99
44.78,-8.93,-11.89,-9.09,-12.07,12.07,12.44,11.89,3.15,2.98,2.97
45.23,-8.91,-11.87,-8.98,-11.95,11.95,12.30,11.72,3.04,2.97,2.96
45.68,-9.09,-12.04,-8.89,-11.84,11.84,12.16,11.55,2.75,2.95,2.95
46.13,-9.09,-12.02,-8.80,-11.74,11.74,12.01,11.39,2.65,2.94,2.93
46.60,-8.69,-11.62,-8.72,-11.65,11.65,11.85,11.24,2.96,2.93,2.93
47.06,-8.33,-11.24,-8.60,-11.51,11.51,11.69,11.09,3.18,2.91,2.91
47.53,-8.39,-11.29,-8.46,-11.36,11.36,11.53,10.95,2.96,2.90,2.90
48.01,-8.45,-11.35,-8.34,-11.22,11.22,11.37,10.81,2.77,2.88,2.90
48.49,-8.20,-11.07,-8.24,-11.11,11.11,11.20,10.68,2.91,2.87,2.88
48.97,-7.93,-10.78,-8.15,-11.01,11.01,11.03,10.55,3.08,2.85,2.86
49.46,-8.07,-10.90,-8.07,-10.91,10.91,10.85,10.43,2.84,2.84,2.84
49.96,-8.23,-11.05,-7.97,-10.80,10.80,10.68,10.31,2.56,2.83,2.82
50.46,-8.06,-10.86,-7.86,-10.67,10.67,10.50,10.20,2.62,2.81,2.81
50.96,-7.84,-10.64,-7.76,-10.56,10.56,10.33,10.09,2.71,2.80,2.80
51.47,-7.51,-10.29,-7.67,-10.46,10.46,10.15,9.98,2.95,2.79,2.78
51.99,-7.19,-9.96,-7.60,-10.38,10.38,9.97,9.88,3.19,2.77,2.77
52.51,-7.39,-10.15,-7.52,-10.28,10.28,9.79,9.78,2.88,2.76,2.76
53.03,-7.59,-10.35,-7.41,-10.16,10.16,9.62,9.68,2.57,2.75,2.76
53.56,-7.49,-10.23,-7.32,-10.06,10.06,9.44,9.58,2.57,2.74,2.74
54.10,-7.38,-10.10,-7.24,-9.97,9.97,9.26,9.49,2.59,2.73,2.73
54.64,-7.13,-9.83,-7.15,-9.87,9.87,9.09,9.39,2.74,2.72,2.71
55.18,-6.94,-9.65,-7.02,-9.73,9.73,8.92,9.30,2.78,2.71,2.71
55.74,-6.93,-9.62,-6.90,-9.59,9.59,8.74,9.21,2.66,2.69,2.69
56.29,-6.84,-9.52,-6.81,-9.49,9.49,8.57,9.12,2.65,2.68,2.68
56.86,-6.70,-9.36,-6.73,-9.40,9.40,8.40,9.02,2.70,2.67,2.67
57.42,-6.61,-9.25,-6.65,-9.30,9.30,8.24,8.93,2.68,2.65,2.64
58.00,-6.56,-9.19,-6.54,-9.17,9.17,8.07,8.84,2.60,2.63,2.63
58.58,-6.45,-9.07,-6.40,-9.01,9.01,7.91,8.74,2.55,2.61,2.62
59.16,-6.31,-8.91,-6.28,-8.86,8.86,7.74,8.65,2.55,2.58,2.60
59.76,-6.11,-8.68,-6.17,-8.73,8.73,7.59,8.55,2.62,2.56,2.58
60.35,-5.94,-8.48,-6.08,-8.60,8.60,7.43,8.45,2.66,2.53,2.54
60.96,-5.84,-8.33,-5.99,-8.48,8.48,7.27,8.35,2.65,2.49,2.50
61.57,-5.98,-8.44,-5.89,-8.35,8.35,7.12,8.24,2.37,2.46,2.46
62.18,-6.02,-8.44,-5.80,-8.21,8.21,6.97,8.13,2.19,2.42,2.42
62.80,-5.74,-8.11,-5.71,-8.08,8.08,6.82,8.02,2.34,2.38,2.37
63.43,-5.55,-7.88,-5.62,-7.96,7.96,6.68,7.91,2.40,2.33,2.33
64.07,-5.42,-7.69,-5.53,-7.82,7.82,6.54,7.79,2.41,2.29,2.28
64.71,-5.42,-7.66,-5.45,-7.69,7.69,6.40,7.68,2.27,2.24,2.24
65.35,-5.38,-7.58,-5.35,-7.55,7.55,6.26,7.55,2.17,2.20,2.20
66.01,-5.29,-7.44,-5.28,-7.43,7.43,6.12,7.43,2.14,2.15,2.15
66.67,-5.22,-7.32,-5.23,-7.33,7.33,5.99,7.30,2.10,2.10,2.10
67.33,-5.15,-7.20,-5.16,-7.21,7.21,5.86,7.17,2.06,2.06,2.05
68.01,-5.06,-7.07,-5.05,-7.05,7.05,5.73,7.04,1.99,2.01,2.01
68.69,-4.96,-6.92,-4.94,-6.89,6.89,5.60,6.91,1.93,1.96,1.96
69.37,-4.86,-6.77,-4.85,-6.76,6.76,5.48,6.78,1.89,1.90,1.91
70.07,-4.76,-6.62,-4.79,-6.64,6.64,5.36,6.64,1.88,1.85,1.86
70.77,-4.67,-6.48,-4.70,-6.50,6.50,5.24,6.50,1.83,1.80,1.81
71.48,-4.58,-6.33,-4.62,-6.36,6.36,5.12,6.37,1.79,1.74,1.76
72.19,-4.56,-6.24,-4.53,-6.22,6.22,5.01,6.23,1.66,1.69,1.69
72.91,-4.72,-6.35,-4.43,-6.06,6.06,4.89,6.09,1.34,1.63,1.63
73.64,-4.35,-5.93,-4.31,-5.88,5.88,4.78,5.95,1.53,1.58,1.58
74.38,-3.99,-5.50,-4.22,-5.74,5.74,4.67,5.81,1.76,1.52,1.52
75.12,-3.80,-5.25,-4.15,-5.61,5.61,4.57,5.67,1.82,1.46,1.46
75.87,-4.25,-5.65,-4.06,-5.47,5.47,4.46,5.53,1.21,1.41,1.40
76.63,-4.16,-5.51,-3.95,-5.31,5.31,4.36,5.40,1.14,1.35,1.35
77.40,-3.89,-5.19,-3.84,-5.14,5.14,4.26,5.26,1.24,1.30,1.30
78.17,-3.66,-4.90,-3.73,-4.98,4.98,4.16,5.12,1.32,1.25,1.24
78.95,-3.73,-4.93,-3.68,-4.88,4.88,4.06,4.99,1.14,1.20,1.20
79.74,-3.54,-4.69,-3.60,-4.74,4.74,3.96,4.85,1.20,1.15,1.15
80.54,-3.31,-4.41,-3.52,-4.61,4.61,3.87,4.72,1.30,1.10,1.10
81.35,-3.45,-4.50,-3.48,-4.53,4.53,3.78,4.59,1.08,1.05,1.05
82.16,-3.83,-4.83,-3.45,-4.45,4.45,3.69,4.46,0.62,1.00,1.00
82.98,-3.19,-4.15,-3.39,-4.35,4.35,3.60,4.33,1.15,0.96,0.96
83.81,-2.99,-3.90,-3.34,-4.25,4.25,3.51,4.20,1.25,0.91,0.91
84.65,-3.09,-3.95,-3.28,-4.14,4.14,3.42,4.07,1.04,0.86,0.86
85.50,-3.27,-4.09,-3.21,-4.02,4.02,3.34,3.95,0.75,0.81,0.82
86.35,-3.51,-4.28,-3.17,-3.93,3.93,3.26,3.83,0.41,0.76,0.77
87.22,-3.53,-4.25,-3.14,-3.85,3.85,3.17,3.70,0.31,0.71,0.72
88.09,-2.80,-3.47,-3.09,-3.75,3.75,3.09,3.58,0.95,0.66,0.67
88.97,-3.17,-3.78,-3.05,-3.66,3.66,3.01,3.46,0.49,0.61,0.61
89.86,-3.22,-3.78,-3.00,-3.56,3.56,2.94,3.35,0.33,0.56,0.56
90.76,-2.54,-3.05,-2.92,-3.43,3.43,2.86,3.23,0.90,0.51,0.51
91.66,-2.82,-3.27,-2.84,-3.30,3.30,2.78,3.12,0.49,0.46,0.46
92.58,-3.00,-3.40,-2.82,-3.23,3.23,2.71,3.00,0.22,0.41,0.40
93.51,-2.53,-2.87,-2.77,-3.13,3.13,2.64,2.89,0.60,0.36,0.35
94.44,-2.46,-2.76,-2.72,-3.03,3.03,2.56,2.78,0.57,0.31,0.31
95.39,-2.91,-3.17,-2.64,-2.90,2.90,2.49,2.67,-0.01,0.26,0.26
96.34,-2.77,-2.98,-2.55,-2.76,2.76,2.42,2.56,-0.01,0.21,0.21
97.30,-2.43,-2.59,-2.50,-2.66,2.66,2.35,2.46,0.23,0.16,0.16
98.28,-2.42,-2.53,-2.48,-2.60,2.60,2.29,2.35,0.17,0.11,0.11
99.26,-2.35,-2.42,-2.43,-2.49,2.49,2.22,2.25,0.14,0.07,0.07
100.25,-2.34,-2.36,-2.38,-2.40,2.40,2.15,2.14,0.06,0.02,0.02
101.25,-2.40,-2.36,-2.35,-2.31,2.31,2.08,2.04,-0.08,-0.03,-0.03
102.27,-2.64,-2.56,-2.30,-2.22,2.22,2.02,1.94,-0.43,-0.08,-0.08
103.29,-2.39,-2.26,-2.28,-2.16,2.16,1.96,1.85,-0.24,-0.13,-0.13
104.32,-2.08,-1.91,-2.29,-2.11,2.11,1.89,1.75,0.03,-0.18,-0.17
105.37,-1.79,-1.56,-2.27,-2.04,2.04,1.83,1.65,0.25,-0.23,-0.22
106.42,-2.01,-1.74,-2.23,-1.95,1.95,1.77,1.56,-0.06,-0.28,-0.27
107.48,-2.44,-2.11,-2.23,-1.90,1.90,1.70,1.47,-0.55,-0.33,-0.33
108.56,-2.32,-1.94,-2.21,-1.82,1.82,1.64,1.38,-0.50,-0.38,-0.38
109.64,-2.13,-1.70,-2.18,-1.74,1.74,1.58,1.29,-0.39,-0.44,-0.43
110.74,-2.03,-1.54,-2.15,-1.67,1.67,1.52,1.20,-0.37,-0.49,-0.49
111.85,-2.26,-1.73,-2.11,-1.57,1.57,1.46,1.12,-0.69,-0.54,-0.53
112.97,-2.55,-1.96,-2.08,-1.49,1.49,1.40,1.04,-1.06,-0.59,-0.59
114.10,-2.21,-1.56,-2.03,-1.39,1.39,1.34,0.96,-0.81,-0.64,-0.64
115.24,-1.90,-1.20,-2.00,-1.31,1.31,1.28,0.88,-0.58,-0.68,-0.69
116.39,-1.83,-1.09,-1.96,-1.23,1.23,1.22,0.81,-0.61,-0.73,-0.74
117.55,-1.76,-0.98,-1.92,-1.15,1.15,1.16,0.73,-0.61,-0.77,-0.78
118.73,-1.70,-0.88,-1.85,-1.04,1.04,1.11,0.66,-0.66,-0.81,-0.82
119.92,-1.68,-0.83,-1.78,-0.93,0.93,1.05,0.60,-0.76,-0.85,-0.85
121.12,-1.87,-0.98,-1.72,-0.83,0.83,0.99,0.53,-1.04,-0.89,-0.89
122.33,-1.65,-0.72,-1.67,-0.75,0.75,0.93,0.47,-0.89,-0.92,-0.92
123.55,-1.55,-0.60,-1.62,-0.67,0.67,0.87,0.41,-0.88,-0.95,-0.95
124.79,-1.60,-0.62,-1.56,-0.57,0.57,0.81,0.35,-1.03,-0.98,-0.98
126.03,-1.39,-0.38,-1.51,-0.50,0.50,0.76,0.30,-0.90,-1.01,-1.01
127.29,-1.54,-0.51,-1.51,-0.46,0.46,0.70,0.25,-1.08,-1.04,-1.03
128.57,-1.65,-0.58,-1.49,-0.42,0.42,0.64,0.20,-1.24,-1.07,-1.07
129.85,-1.67,-0.57,-1.45,-0.35,0.35,0.58,0.15,-1.33,-1.10,-1.10
131.15,-1.22,-0.09,-1.41,-0.28,0.28,0.52,0.11,-0.94,-1.13,-1.13
132.46,-1.21,-0.05,-1.38,-0.22,0.22,0.46,0.07,-0.99,-1.16,-1.16
133.79,-1.30,-0.11,-1.35,-0.16,0.16,0.40,0.03,-1.14,-1.19,-1.19
135.12,-1.51,-0.29,-1.31,-0.10,0.10,0.34,-0.01,-1.42,-1.22,-1.22
136.48,-1.25,-0.00,-1.29,-0.04,0.04,0.28,-0.05,-1.20,-1.24,-1.24
137.84,-1.14,0.14,-1.24,0.03,-0.03,0.22,-0.08,-1.17,-1.27,-1.28
139.22,-1.30,0.01,-1.20,0.10,-0.10,0.16,-0.11,-1.41,-1.30,-1.31
140.61,-1.24,0.10,-1.17,0.16,-0.16,0.10,-0.15,-1.40,-1.33,-1.34
142.02,-1.01,0.36,-1.13,0.23,-0.23,0.04,-0.18,-1.24,-1.36,-1.36
143.44,-1.04,0.35,-1.10,0.30,-0.30,-0.02,-0.21,-1.34,-1.40,-1.39
144.87,-1.22,0.21,-1.08,0.36,-0.36,-0.09,-0.23,-1.58,-1.43,-1.43
146.32,-1.11,0.36,-1.06,0.42,-0.42,-0.15,-0.26,-1.53,-1.48,-1.47
147.78,-0.93,0.57,-1.01,0.51,-0.51,-0.21,-0.29,-1.45,-1.53,-1.50
149.26,-0.90,0.65,-0.98,0.60,-0.60,-0.28,-0.32,-1.50,-1.58,-1.55
150.75,-0.90,0.71,-0.96,0.68,-0.68,-0.34,-0.34,-1.58,-1.64,-1.61
152.26,-0.90,0.78,-0.97,0.73,-0.73,-0.41,-0.37,-1.64,-1.70,-1.68
153.78,-1.03,0.72,-0.95,0.82,-0.82,-0.48,-0.40,-1.86,-1.77,-1.75
155.32,-1.05,0.77,-0.91,0.93,-0.93,-0.54,-0.42,-1.98,-1.84,-1.82
156.88,-0.85,1.06,-0.88,1.02,-1.02,-0.61,-0.45,-1.87,-1.91,-1.90
158.44,-0.80,1.18,-0.86,1.12,-1.12,-0.68,-0.48,-1.92,-1.98,-1.98
160.03,-0.79,1.27,-0.83,1.22,-1.22,-0.75,-0.51,-2.01,-2.04,-2.06
161.63,-0.79,1.34,-0.81,1.30,-1.30,-0.81,-0.54,-2.09,-2.11,-2.13
163.24,-0.91,1.29,-0.82,1.35,-1.35,-0.88,-0.56,-2.26,-2.17,-2.19
164.88,-1.03,1.21,-0.82,1.41,-1.41,-0.95,-0.59,-2.44,-2.23,-2.24
166.53,-0.83,1.47,-0.81,1.46,-1.46,-1.02,-0.63,-2.29,-2.27,-2.29
168.19,-0.65,1.68,-0.81,1.51,-1.51,-1.09,-0.66,-2.16,-2.31,-2.33
169.87,-0.50,1.87,-0.79,1.55,-1.55,-1.16,-0.69,-2.06,-2.35,-2.37
171.57,-0.66,1.73,-0.78,1.59,-1.59,-1.23,-0.72,-2.26,-2.37,-2.39
173.29,-0.79,1.61,-0.79,1.61,-1.61,-1.30,-0.76,-2.40,-2.39,-2.40
175.02,-0.84,1.57,-0.80,1.61,-1.61,-1.37,-0.79,-2.45,-2.41,-2.41
176.77,-1.01,1.41,-0.79,1.62,-1.62,-1.43,-0.83,-2.64,-2.42,-2.42
178.54,-0.93,1.50,-0.78,1.64,-1.64,-1.50,-0.87,-2.57,-2.42,-2.43
180.32,-0.79,1.63,-0.77,1.66,-1.66,-1.57,-0.90,-2.45,-2.43,-2.42
182.13,-0.73,1.68,-0.76,1.68,-1.68,-1.63,-0.94,-2.41,-2.43,-2.41
183.95,-0.72,1.70,-0.75,1.69,-1.69,-1.69,-0.98,-2.41,-2.44,-2.42
185.79,-0.71,1.71,-0.76,1.68,-1.68,-1.75,-1.03,-2.40,-2.45,-2.42
187.65,-0.69,1.75,-0.75,1.70,-1.70,-1.81,-1.07,-2.40,-2.46,-2.44
189.52,-0.74,1.71,-0.72,1.74,-1.74,-1.87,-1.11,-2.49,-2.46,-2.45
191.42,-0.72,1.75,-0.67,1.80,-1.80,-1.92,-1.16,-2.53,-2.48,-2.47
193.33,-0.63,1.86,-0.65,1.84,-1.84,-1.97,-1.20,-2.48,-2.49,-2.49
195.27,-0.62,1.89,-0.63,1.88,-1.88,-2.02,-1.25,-2.50,-2.51,-2.51
197.22,-0.62,1.91,-0.62,1.91,-1.91,-2.06,-1.29,-2.53,-2.53,-2.53
199.19,-0.61,1.94,-0.62,1.92,-1.92,-2.10,-1.34,-2.54,-2.55,-2.55
201.18,-0.60,1.97,-0.63,1.94,-1.94,-2.13,-1.39,-2.54,-2.57,-2.57
203.19,-0.60,1.99,-0.63,1.96,-1.96,-2.16,-1.43,-2.56,-2.59,-2.59
205.23,-0.55,2.06,-0.62,1.99,-1.99,-2.19,-1.48,-2.54,-2.61,-2.61
207.28,-0.48,2.14,-0.62,2.01,-2.01,-2.21,-1.53,-2.50,-2.63,-2.62
209.35,-0.58,2.06,-0.61,2.03,-2.03,-2.23,-1.58,-2.62,-2.65,-2.64
211.44,-0.77,1.90,-0.62,2.05,-2.05,-2.25,-1.62,-2.83,-2.67,-2.67
213.56,-0.83,1.85,-0.62,2.06,-2.06,-2.26,-1.67,-2.89,-2.68,-2.68
215.69,-0.65,2.04,-0.64,2.06,-2.06,-2.26,-1.72,-2.71,-2.69,-2.69
217.85,-0.61,2.09,-0.65,2.06,-2.06,-2.26,-1.76,-2.67,-2.71,-2.70
220.03,-0.61,2.10,-0.65,2.07,-2.07,-2.26,-1.80,-2.68,-2.72,-2.71
222.23,-0.61,2.13,-0.65,2.07,-2.07,-2.25,-1.84,-2.68,-2.72,-2.74
224.45,-0.55,2.18,-0.66,2.07,-2.07,-2.24,-1.88,-2.62,-2.72,-2.73
226.70,-0.56,2.17,-0.66,2.06,-2.06,-2.22,-1.92,-2.63,-2.72,-2.73
228.96,-0.71,2.01,-0.66,2.06,-2.06,-2.20,-1.96,-2.77,-2.72,-2.72
231.25,-0.71,2.00,-0.65,2.06,-2.06,-2.18,-1.99,-2.77,-2.71,-2.71
233.57,-0.70,2.00,-0.64,2.06,-2.06,-2.15,-2.02,-2.76,-2.70,-2.70
235.90,-0.68,2.01,-0.63,2.05,-2.05,-2.12,-2.05,-2.74,-2.68,-2.69
238.26,-0.67,2.01,-0.64,2.03,-2.03,-2.09,-2.07,-2.70,-2.67,-2.68
240.64,-0.61,2.04,-0.65,1.99,-1.99,-2.06,-2.09,-2.61,-2.65,-2.65
243.05,-0.58,2.04,-0.66,1.97,-1.97,-2.02,-2.11,-2.55,-2.63,-2.62
245.48,-0.66,1.94,-0.66,1.94,-1.94,-1.98,-2.12,-2.61,-2.60,-2.60
247.93,-0.69,1.88,-0.67,1.91,-1.91,-1.95,-2.13,-2.61,-2.58,-2.57
250.41,-0.65,1.90,-0.67,1.88,-1.88,-1.91,-2.14,-2.54,-2.56,-2.55
252.92,-0.60,1.92,-0.68,1.85,-1.85,-1.86,-2.14,-2.46,-2.53,-2.52
255.45,-0.68,1.82,-0.68,1.83,-1.83,-1.82,-2.14,-2.51,-2.51,-2.50
258.00,-0.73,1.75,-0.69,1.79,-1.79,-1.78,-2.13,-2.53,-2.48,-2.48
260.58,-0.73,1.73,-0.71,1.75,-1.75,-1.74,-2.13,-2.48,-2.46,-2.46
263.19,-0.72,1.71,-0.73,1.70,-1.70,-1.70,-2.11,-2.43,-2.43,-2.43
265.82,-0.69,1.72,-0.75,1.66,-1.66,-1.65,-2.10,-2.35,-2.41,-2.41
268.48,-0.75,1.64,-0.78,1.61,-1.61,-1.61,-2.08,-2.36,-2.39,-2.39
271.16,-0.82,1.54,-0.80,1.56,-1.56,-1.57,-2.06,-2.39,-2.36,-2.36
273.87,-0.84,1.50,-0.81,1.52,-1.52,-1.53,-2.03,-2.37,-2.34,-2.34
276.61,-0.84,1.47,-0.83,1.48,-1.48,-1.49,-2.01,-2.32,-2.31,-2.31
279.38,-0.84,1.44,-0.86,1.43,-1.43,-1.45,-1.98,-2.27,-2.28,-2.28
282.17,-0.83,1.43,-0.87,1.38,-1.38,-1.41,-1.95,-2.22,-2.26,-2.26
284.99,-0.84,1.38,-0.88,1.35,-1.35,-1.37,-1.91,-2.19,-2.23,-2.22
287.84,-0.92,1.28,-0.88,1.31,-1.31,-1.33,-1.88,-2.24,-2.20,-2.20
290.72,-0.92,1.25,-0.89,1.28,-1.28,-1.30,-1.84,-2.20,-2.17,-2.17
293.63,-0.90,1.24,-0.89,1.25,-1.25,-1.26,-1.81,-2.16,-2.14,-2.14
296.57,-0.89,1.22,-0.88,1.23,-1.23,-1.23,-1.77,-2.13,-2.11,-2.11
299.53,-0.88,1.20,-0.86,1.22,-1.22,-1.19,-1.73,-2.11,-2.08,-2.08
302.53,-0.87,1.19,-0.84,1.21,-1.21,-1.16,-1.69,-2.09,-2.05,-2.06
305.55,-0.86,1.16,-0.83,1.20,-1.20,-1.13,-1.65,-2.06,-2.03,-2.02
308.61,-0.85,1.15,-0.82,1.19,-1.19,-1.10,-1.61,-2.04,-2.00,-2.00
311.69,-0.75,1.22,-0.81,1.17,-1.17,-1.07,-1.57,-1.93,-1.98,-1.97
314.81,-0.74,1.21,-0.80,1.16,-1.16,-1.04,-1.54,-1.91,-1.96,-1.95
317.96,-0.73,1.20,-0.79,1.15,-1.15,-1.01,-1.50,-1.88,-1.94,-1.93
321.14,-0.73,1.19,-0.78,1.14,-1.14,-0.98,-1.46,-1.87,-1.92,-1.92
324.35,-0.73,1.17,-0.78,1.12,-1.12,-0.95,-1.42,-1.86,-1.90,-1.90
327.59,-0.74,1.15,-0.78,1.11,-1.11,-0.93,-1.38,-1.85,-1.89,-1.89
330.87,-0.78,1.10,-0.78,1.10,-1.10,-0.90,-1.35,-1.88,-1.87,-1.88
334.18,-0.83,1.03,-0.78,1.08,-1.08,-0.88,-1.31,-1.92,-1.86,-1.86
337.52,-0.84,1.01,-0.79,1.06,-1.06,-0.86,-1.28,-1.91,-1.85,-1.85
340.90,-0.84,1.00,-0.80,1.04,-1.04,-0.84,-1.24,-1.89,-1.84,-1.84
344.30,-0.84,0.99,-0.82,1.02,-1.02,-0.82,-1.21,-1.86,-1.84,-1.83
347.75,-0.84,0.99,-0.84,0.99,-0.99,-0.80,-1.18,-1.83,-1.83,-1.83
351.23,-0.84,0.98,-0.86,0.97,-0.97,-0.78,-1.15,-1.81,-1.83,-1.82
354.74,-0.84,0.99,-0.87,0.95,-0.95,-0.76,-1.12,-1.79,-1.82,-1.83
358.28,-0.84,0.98,-0.89,0.93,-0.93,-0.74,-1.09,-1.78,-1.82,-1.82
361.87,-0.84,0.98,-0.90,0.92,-0.92,-0.72,-1.06,-1.76,-1.82,-1.82
365.49,-0.91,0.90,-0.92,0.90,-0.90,-0.71,-1.04,-1.81,-1.82,-1.81
369.14,-0.95,0.87,-0.93,0.89,-0.89,-0.69,-1.01,-1.84,-1.82,-1.82
372.83,-1.00,0.82,-0.94,0.88,-0.88,-0.68,-0.98,-1.88,-1.82,-1.82
376.56,-1.00,0.83,-0.96,0.86,-0.86,-0.66,-0.96,-1.87,-1.82,-1.83
380.33,-0.99,0.83,-0.98,0.84,-0.84,-0.65,-0.94,-1.84,-1.83,-1.82
384.13,-0.99,0.83,-1.01,0.82,-0.82,-0.64,-0.91,-1.82,-1.83,-1.82
387.97,-0.98,0.85,-1.03,0.80,-0.80,-0.62,-0.89,-1.79,-1.83,-1.83
391.85,-1.03,0.81,-1.06,0.78,-0.78,-0.61,-0.87,-1.82,-1.84,-1.84
395.77,-1.07,0.76,-1.08,0.77,-0.77,-0.60,-0.85,-1.84,-1.84,-1.83
399.73,-1.08,0.76,-1.10,0.75,-0.75,-0.59,-0.83,-1.83,-1.85,-1.84
403.72,-1.08,0.76,-1.12,0.74,-0.74,-0.58,-0.81,-1.82,-1.86,-1.84
407.76,-1.08,0.78,-1.13,0.73,-0.73,-0.57,-0.80,-1.82,-1.86,-1.86
411.84,-1.16,0.70,-1.14,0.72,-0.72,-0.56,-0.78,-1.89,-1.86,-1.86
415.96,-1.19,0.67,-1.15,0.71,-0.71,-0.55,-0.76,-1.91,-1.86,-1.86
420.12,-1.19,0.67,-1.16,0.70,-0.70,-0.54,-0.75,-1.90,-1.86,-1.86
424.32,-1.18,0.68,-1.16,0.69,-0.69,-0.54,-0.73,-1.88,-1.85,-1.86
428.56,-1.17,0.68,-1.16,0.68,-0.68,-0.53,-0.72,-1.86,-1.84,-1.85
