frequency,raw,error,smoothed,error_smoothed,equalization,parametric_eq,fixed_band_eq,equalized_raw,equalized_smoothed,target
20.00,-19.75,-19.61,-19.75,-19.61,19.61,17.23,5.73,-0.14,-0.14,-0.13
20.20,-19.61,-19.52,-19.60,-19.52,19.52,17.18,5.88,-0.09,-0.09,-0.08
20.40,-19.46,-19.43,-19.46,-19.43,19.43,17.13,6.02,-0.04,-0.04,-0.03
20.61,-19.33,-19.32,-19.32,-19.33,19.33,17.08,6.17,0.01,0.01,-0.00
20.81,-19.18,-19.23,-19.18,-19.23,19.24,17.03,6.32,0.05,0.05,0.05
21.02,-19.05,-19.13,-19.05,-19.13,19.13,16.97,6.48,0.09,0.09,0.09
21.23,-18.92,-19.02,-18.92,-19.03,19.03,16.92,6.63,0.11,0.11,0.11
21.44,-18.79,-18.92,-18.79,-18.92,18.92,16.86,6.80,0.13,0.13,0.13
21.66,-18.67,-18.81,-18.66,-18.81,18.81,16.81,6.97,0.14,0.15,0.15
21.87,-18.53,-18.69,-18.54,-18.70,18.70,16.75,7.14,0.16,0.16,0.16
22.09,-18.40,-18.58,-18.40,-18.58,18.58,16.69,7.32,0.17,0.17,0.18
22.31,-18.27,-18.46,-18.27,-18.46,18.45,16.63,7.51,0.18,0.18,0.19
22.54,-18.14,-18.32,-18.14,-18.33,18.32,16.57,7.69,0.18,0.18,0.19
22.76,-18.00,-18.19,-18.01,-18.19,18.19,16.51,7.89,0.18,0.18,0.19
22.99,-17.88,-18.05,-17.87,-18.05,18.05,16.45,8.08,0.17,0.18,0.18
23.22,-17.73,-17.90,-17.72,-17.90,17.90,16.39,8.29,0.18,0.18,0.18
23.45,-17.56,-17.74,-17.57,-17.75,17.75,16.32,8.49,0.19,0.18,0.18
23.69,-17.42,-17.60,-17.42,-17.60,17.60,16.26,8.71,0.18,0.18,0.19
23.92,-17.26,-17.45,-17.26,-17.45,17.44,16.19,8.93,0.18,0.18,0.19
24.16,-17.10,-17.29,-17.10,-17.29,17.28,16.12,9.15,0.18,0.18,0.19
24.40,-16.94,-17.14,-16.94,-17.13,17.13,16.06,9.38,0.18,0.19,0.20
24.65,-16.78,-16.96,-16.78,-16.96,16.97,15.99,9.62,0.20,0.20,0.19
24.89,-16.61,-16.80,-16.62,-16.81,16.83,15.92,9.86,0.21,0.21,0.19
25.14,-16.47,-16.66,-16.47,-16.66,16.68,15.85,10.10,0.21,0.21,0.19
25.39,-16.34,-16.54,-16.35,-16.54,16.55,15.77,10.35,0.20,0.20,0.20
25.65,-16.23,-16.42,-16.22,-16.42,16.41,15.70,10.61,0.19,0.19,0.20
25.91,-16.11,-16.29,-16.10,-16.29,16.28,15.62,10.87,0.18,0.18,0.19
26.16,-15.97,-16.16,-15.98,-16.16,16.16,15.55,11.13,0.19,0.18,0.19
26.43,-15.85,-16.03,-15.85,-16.04,16.03,15.47,11.40,0.19,0.18,0.19
26.69,-15.73,-15.91,-15.72,-15.91,15.91,15.39,11.66,0.18,0.18,0.19
26.96,-15.60,-15.78,-15.60,-15.78,15.78,15.31,11.93,0.18,0.18,0.19
27.23,-15.47,-15.65,-15.46,-15.65,15.65,15.23,12.20,0.18,0.18,0.19
27.50,-15.33,-15.51,-15.33,-15.51,15.51,15.15,12.47,0.19,0.18,0.19
27.77,-15.19,-15.37,-15.19,-15.37,15.38,15.07,12.73,0.18,0.18,0.18
28.05,-15.05,-15.23,-15.06,-15.23,15.24,14.98,12.99,0.18,0.18,0.18
28.33,-14.92,-15.09,-14.93,-15.10,15.10,14.90,13.24,0.17,0.17,0.17
28.62,-14.79,-14.95,-14.79,-14.96,14.95,14.81,13.49,0.16,0.16,0.17
28.90,-14.65,-14.83,-14.65,-14.82,14.80,14.72,13.72,0.15,0.16,0.18
29.19,-14.50,-14.66,-14.49,-14.67,14.66,14.63,13.94,0.16,0.16,0.17
29.48,-14.33,-14.51,-14.34,-14.51,14.51,14.54,14.13,0.18,0.18,0.18
29.78,-14.18,-14.34,-14.18,-14.35,14.37,14.45,14.31,0.19,0.19,0.17
30.08,-14.03,-14.20,-14.03,-14.20,14.22,14.35,14.45,0.19,0.19,0.18
30.38,-13.90,-14.06,-13.90,-14.07,14.07,14.26,14.59,0.17,0.17,0.17
30.68,-13.77,-13.93,-13.77,-13.93,13.91,14.16,14.67,0.15,0.15,0.17
30.99,-13.64,-13.80,-13.63,-13.79,13.77,14.06,14.75,0.13,0.14,0.17
31.30,-13.48,-13.63,-13.47,-13.63,13.62,13.96,14.77,0.15,0.15,0.16
31.61,-13.32,-13.47,-13.32,-13.47,13.49,13.86,14.78,0.17,0.17,0.16
31.93,-13.16,-13.31,-13.17,-13.32,13.36,13.76,14.74,0.20,0.19,0.16
32.24,-13.04,-13.19,-13.05,-13.20,13.23,13.65,14.69,0.19,0.18,0.15
32.57,-12.95,-13.09,-12.95,-13.09,13.11,13.55,14.59,0.16,0.16,0.15
32.89,-12.85,-13.00,-12.85,-12.99,12.98,13.44,14.48,0.13,0.14,0.15
33.22,-12.74,-12.88,-12.74,-12.88,12.86,13.33,14.33,0.11,0.12,0.14
33.55,-12.61,-12.75,-12.62,-12.76,12.73,13.22,14.18,0.12,0.11,0.14
33.89,-12.50,-12.62,-12.49,-12.62,12.59,13.11,14.00,0.10,0.11,0.13
34.23,-12.35,-12.47,-12.34,-12.46,12.45,13.00,13.81,0.10,0.11,0.13
34.57,-12.18,-12.29,-12.18,-12.30,12.29,12.89,13.61,0.12,0.11,0.12
34.92,-12.02,-12.13,-12.02,-12.13,12.13,12.77,13.40,0.12,0.12,0.12
35.27,-11.86,-11.96,-11.85,-11.96,11.97,12.65,13.19,0.12,0.12,0.11
35.62,-11.69,-11.79,-11.69,-11.80,11.82,12.54,12.97,0.13,0.13,0.11
35.97,-11.52,-11.63,-11.54,-11.64,11.66,12.42,12.75,0.14,0.13,0.11
36.33,-11.40,-11.51,-11.40,-11.50,11.52,12.30,12.52,0.11,0.12,0.11
36.70,-11.28,-11.37,-11.27,-11.37,11.37,12.17,12.30,0.10,0.10,0.10
37.06,-11.15,-11.25,-11.15,-11.25,11.23,12.05,12.09,0.08,0.08,0.10
37.43,-11.01,-11.12,-11.02,-11.12,11.10,11.92,11.87,0.09,0.08,0.11
37.81,-10.89,-10.99,-10.88,-10.98,10.97,11.80,11.66,0.08,0.09,0.11
38.19,-10.74,-10.83,-10.73,-10.84,10.84,11.67,11.45,0.10,0.11,0.10
38.57,-10.59,-10.69,-10.58,-10.69,10.71,11.54,11.25,0.12,0.12,0.11
38.95,-10.43,-10.55,-10.45,-10.56,10.58,11.41,11.06,0.14,0.13,0.12
39.34,-10.32,-10.43,-10.33,-10.44,10.45,11.28,10.87,0.12,0.12,0.11
39.74,-10.23,-10.33,-10.22,-10.33,10.32,11.15,10.69,0.09,0.10,0.11
40.14,-10.11,-10.21,-10.10,-10.20,10.19,11.01,10.51,0.08,0.09,0.11
40.54,-9.97,-10.07,-9.97,-10.07,10.06,10.88,10.34,0.09,0.09,0.11
40.94,-9.82,-9.92,-9.83,-9.93,9.94,10.74,10.18,0.11,0.10,0.10
41.35,-9.71,-9.80,-9.71,-9.80,9.81,10.61,10.02,0.11,0.11,0.10
41.76,-9.59,-9.68,-9.59,-9.68,9.69,10.47,9.87,0.09,0.10,0.09
42.18,-9.47,-9.56,-9.47,-9.56,9.56,10.33,9.73,0.09,0.09,0.09
42.60,-9.35,-9.43,-9.35,-9.43,9.43,10.19,9.59,0.08,0.08,0.08
43.03,-9.24,-9.30,-9.24,-9.31,9.30,10.05,9.46,0.06,0.06,0.07
43.46,-9.13,-9.18,-9.13,-9.18,9.17,9.91,9.34,0.04,0.04,0.06
43.90,-9.03,-9.06,-9.01,-9.05,9.04,9.77,9.22,0.01,0.02,0.04
44.33,-8.89,-8.91,-8.90,-8.91,8.91,9.63,9.11,0.01,0.01,0.02
44.78,-8.77,-8.76,-8.77,-8.77,8.78,9.49,9.01,0.01,0.01,-0.00
45.23,-8.65,-8.63,-8.64,-8.63,8.65,9.35,8.91,0.01,0.01,-0.01
45.68,-8.53,-8.50,-8.53,-8.50,8.53,9.21,8.82,0.00,0.00,-0.02
46.13,-8.42,-8.38,-8.44,-8.40,8.41,9.07,8.73,-0.02,-0.03,-0.04
46.60,-8.35,-8.30,-8.34,-8.29,8.28,8.93,8.65,-0.07,-0.06,-0.04
47.06,-8.26,-8.20,-8.24,-8.18,8.15,8.79,8.57,-0.11,-0.09,-0.06
47.53,-8.11,-8.04,-8.12,-8.05,8.03,8.65,8.50,-0.09,-0.09,-0.07
48.01,-7.98,-7.90,-7.99,-7.91,7.89,8.51,8.44,-0.08,-0.10,-0.07
48.49,-7.86,-7.76,-7.86,-7.76,7.76,8.37,8.38,-0.10,-0.10,-0.09
48.97,-7.74,-7.63,-7.73,-7.62,7.62,8.23,8.32,-0.12,-0.11,-0.11
49.46,-7.61,-7.48,-7.62,-7.48,7.49,8.10,8.27,-0.13,-0.13,-0.13
49.96,-7.50,-7.34,-7.50,-7.35,7.36,7.96,8.23,-0.13,-0.13,-0.15
50.46,-7.40,-7.23,-7.39,-7.23,7.25,7.83,8.18,-0.15,-0.14,-0.16
50.96,-7.30,-7.12,-7.31,-7.14,7.15,7.70,8.14,-0.14,-0.16,-0.17
51.47,-7.26,-7.06,-7.25,-7.06,7.07,7.57,8.11,-0.19,-0.19,-0.19
51.99,-7.22,-7.01,-7.20,-6.99,7.00,7.44,8.07,-0.22,-0.20,-0.20
52.51,-7.15,-6.93,-7.15,-6.94,6.94,7.31,8.04,-0.21,-0.21,-0.21
53.03,-7.09,-6.87,-7.11,-6.89,6.89,7.19,8.01,-0.20,-0.22,-0.21
53.56,-7.09,-6.85,-7.08,-6.85,6.85,7.07,7.98,-0.24,-0.23,-0.23
54.10,-7.08,-6.83,-7.05,-6.81,6.81,6.95,7.95,-0.27,-0.25,-0.24
54.64,-7.03,-6.76,-7.03,-6.77,6.76,6.83,7.93,-0.27,-0.27,-0.26
55.18,-6.99,-6.72,-7.00,-6.73,6.71,6.72,7.90,-0.27,-0.29,-0.26
55.74,-6.99,-6.70,-6.97,-6.69,6.67,6.60,7.87,-0.32,-0.31,-0.28
56.29,-6.96,-6.66,-6.94,-6.65,6.62,6.49,7.84,-0.33,-0.32,-0.29
56.86,-6.90,-6.59,-6.89,-6.58,6.59,6.39,7.81,-0.31,-0.30,-0.30
57.42,-6.85,-6.51,-6.84,-6.51,6.56,6.28,7.77,-0.29,-0.28,-0.33
58.00,-6.79,-6.44,-6.84,-6.50,6.54,6.18,7.74,-0.25,-0.31,-0.34
58.58,-6.90,-6.54,-6.87,-6.52,6.54,6.08,7.70,-0.36,-0.34,-0.35
59.16,-6.97,-6.59,-6.91,-6.54,6.55,5.99,7.65,-0.42,-0.36,-0.37
59.76,-6.94,-6.54,-6.98,-6.58,6.58,5.89,7.60,-0.36,-0.40,-0.39
60.35,-7.01,-6.57,-7.03,-6.60,6.61,5.80,7.55,-0.39,-0.42,-0.43
60.96,-7.13,-6.66,-7.10,-6.63,6.66,5.72,7.48,-0.48,-0.45,-0.47
61.57,-7.21,-6.69,-7.21,-6.69,6.70,5.63,7.42,-0.51,-0.51,-0.51
62.18,-7.27,-6.71,-7.28,-6.73,6.72,5.55,7.35,-0.55,-0.57,-0.55
62.80,-7.35,-6.74,-7.33,-6.73,6.71,5.47,7.27,-0.64,-0.62,-0.60
63.43,-7.35,-6.70,-7.35,-6.70,6.66,5.39,7.18,-0.69,-0.69,-0.64
64.07,-7.32,-6.62,-7.33,-6.64,6.56,5.31,7.09,-0.75,-0.76,-0.69
64.71,-7.27,-6.53,-7.26,-6.53,6.43,5.24,7.00,-0.83,-0.83,-0.73
65.35,-7.14,-6.37,-7.13,-6.36,6.28,5.16,6.89,-0.87,-0.86,-0.77
66.01,-6.99,-6.16,-6.95,-6.13,6.11,5.09,6.78,-0.88,-0.84,-0.82
66.67,-6.73,-5.85,-6.75,-5.88,5.94,5.02,6.67,-0.78,-0.81,-0.87
67.33,-6.58,-5.65,-6.60,-5.68,5.79,4.96,6.55,-0.78,-0.81,-0.92
68.01,-6.53,-5.56,-6.53,-5.56,5.67,4.89,6.43,-0.85,-0.86,-0.96
68.69,-6.56,-5.54,-6.55,-5.53,5.59,4.82,6.30,-0.96,-0.96,-1.01
69.37,-6.61,-5.54,-6.60,-5.53,5.56,4.76,6.17,-1.05,-1.04,-1.06
70.07,-6.68,-5.56,-6.66,-5.55,5.56,4.70,6.04,-1.12,-1.10,-1.11
70.77,-6.73,-5.56,-6.75,-5.59,5.59,4.63,5.90,-1.14,-1.16,-1.16
71.48,-6.85,-5.64,-6.88,-5.66,5.63,4.57,5.76,-1.22,-1.25,-1.21
72.19,-7.02,-5.73,-7.00,-5.72,5.68,4.51,5.62,-1.34,-1.33,-1.28
72.91,-7.15,-5.80,-7.09,-5.75,5.71,4.45,5.48,-1.44,-1.38,-1.34
73.64,-7.11,-5.71,-7.13,-5.73,5.72,4.38,5.34,-1.39,-1.41,-1.39
74.38,-7.11,-5.65,-7.15,-5.69,5.71,4.32,5.19,-1.40,-1.44,-1.45
75.12,-7.18,-5.66,-7.16,-5.65,5.67,4.26,5.05,-1.51,-1.49,-1.51
75.87,-7.19,-5.61,-7.17,-5.60,5.59,4.20,4.91,-1.60,-1.59,-1.57
76.63,-7.15,-5.52,-7.14,-5.51,5.47,4.13,4.76,-1.68,-1.67,-1.62
77.40,-7.05,-5.37,-7.05,-5.37,5.31,4.07,4.62,-1.73,-1.74,-1.67
78.17,-6.90,-5.17,-6.92,-5.19,5.14,4.00,4.48,-1.76,-1.78,-1.73
78.95,-6.77,-5.00,-6.75,-4.97,4.95,3.94,4.34,-1.82,-1.80,-1.77
79.74,-6.56,-4.74,-6.55,-4.73,4.76,3.87,4.20,-1.81,-1.80,-1.82
80.54,-6.34,-4.46,-6.36,-4.48,4.55,3.80,4.06,-1.78,-1.81,-1.87
81.35,-6.18,-4.25,-6.20,-4.28,4.35,3.74,3.92,-1.83,-1.85,-1.92
82.16,-6.10,-4.12,-6.10,-4.13,4.16,3.67,3.79,-1.94,-1.94,-1.97
82.98,-6.04,-4.02,-6.01,-3.99,3.99,3.59,3.65,-2.05,-2.02,-2.01
83.81,-5.93,-3.86,-5.91,-3.84,3.83,3.52,3.52,-2.10,-2.08,-2.06
84.65,-5.78,-3.66,-5.80,-3.69,3.68,3.45,3.39,-2.09,-2.11,-2.11
85.50,-5.68,-3.52,-5.69,-3.53,3.54,3.37,3.26,-2.14,-2.15,-2.15
86.35,-5.62,-3.41,-5.61,-3.41,3.39,3.30,3.14,-2.23,-2.23,-2.20
87.22,-5.55,-3.29,-5.53,-3.27,3.23,3.22,3.01,-2.32,-2.30,-2.25
88.09,-5.45,-3.14,-5.43,-3.13,3.06,3.14,2.89,-2.38,-2.37,-2.30
88.97,-5.28,-2.91,-5.31,-2.95,2.91,3.05,2.77,-2.36,-2.40,-2.36
89.86,-5.23,-2.81,-5.17,-2.76,2.79,2.97,2.65,-2.44,-2.39,-2.41
90.76,-5.05,-2.58,-5.06,-2.59,2.68,2.88,2.53,-2.36,-2.38,-2.46
91.66,-4.97,-2.45,-5.01,-2.49,2.61,2.79,2.42,-2.36,-2.40,-2.51
92.58,-5.02,-2.44,-5.02,-2.45,2.55,2.70,2.30,-2.47,-2.47,-2.57
93.51,-5.11,-2.48,-5.09,-2.47,2.50,2.61,2.19,-2.60,-2.59,-2.62
94.44,-5.18,-2.51,-5.17,-2.50,2.46,2.52,2.08,-2.72,-2.71,-2.66
95.39,-5.22,-2.50,-5.22,-2.51,2.40,2.42,1.97,-2.81,-2.81,-2.71
96.34,-5.22,-2.45,-5.20,-2.44,2.33,2.32,1.87,-2.89,-2.88,-2.76
97.30,-5.14,-2.33,-5.13,-2.32,2.22,2.22,1.76,-2.92,-2.91,-2.81
98.28,-4.99,-2.12,-5.00,-2.14,2.09,2.11,1.66,-2.90,-2.91,-2.86
99.26,-4.83,-1.92,-4.81,-1.91,1.92,2.01,1.56,-2.90,-2.89,-2.90
100.25,-4.63,-1.67,-4.63,-1.68,1.74,1.90,1.46,-2.89,-2.90,-2.95
101.25,-4.46,-1.45,-4.48,-1.48,1.54,1.79,1.36,-2.91,-2.94,-3.00
102.27,-4.38,-1.32,-4.37,-1.31,1.36,1.68,1.26,-3.02,-3.01,-3.05
103.29,-4.29,-1.18,-4.28,-1.18,1.19,1.56,1.16,-3.09,-3.09,-3.10
104.32,-4.20,-1.05,-4.19,-1.04,1.04,1.44,1.07,-3.15,-3.15,-3.14
105.37,-4.11,-0.91,-4.11,-0.92,0.91,1.33,0.98,-3.19,-3.20,-3.19
106.42,-4.03,-0.78,-4.05,-0.80,0.80,1.21,0.89,-3.23,-3.25,-3.24
107.48,-4.03,-0.72,-3.99,-0.69,0.69,1.08,0.80,-3.33,-3.30,-3.30
108.56,-3.95,-0.59,-3.96,-0.61,0.59,0.96,0.71,-3.35,-3.37,-3.35
109.64,-3.90,-0.49,-3.92,-0.51,0.50,0.84,0.62,-3.40,-3.43,-3.40
110.74,-3.92,-0.45,-3.86,-0.40,0.40,0.71,0.54,-3.51,-3.46,-3.46
111.85,-3.79,-0.28,-3.81,-0.30,0.31,0.59,0.46,-3.47,-3.50,-3.50
112.97,-3.74,-0.17,-3.77,-0.21,0.22,0.47,0.38,-3.51,-3.55,-3.56
114.10,-3.75,-0.13,-3.73,-0.12,0.13,0.35,0.30,-3.62,-3.60,-3.61
115.24,-3.74,-0.07,-3.72,-0.05,0.03,0.23,0.22,-3.70,-3.68,-3.66
116.39,-3.68,0.04,-3.68,0.04,-0.06,0.11,0.14,-3.74,-3.74,-3.71
117.55,-3.61,0.15,-3.62,0.14,-0.16,-0.00,0.07,-3.77,-3.78,-3.75
118.73,-3.55,0.25,-3.55,0.25,-0.25,-0.11,0.00,-3.80,-3.80,-3.79
119.92,-3.49,0.34,-3.48,0.35,-0.34,-0.22,-0.07,-3.83,-3.82,-3.82
121.12,-3.41,0.46,-3.41,0.45,-0.43,-0.32,-0.14,-3.83,-3.83,-3.86
122.33,-3.35,0.55,-3.35,0.54,-0.51,-0.41,-0.20,-3.85,-3.86,-3.89
123.55,-3.31,0.62,-3.31,0.61,-0.58,-0.50,-0.26,-3.89,-3.90,-3.92
124.79,-3.30,0.66,-3.30,0.65,-0.66,-0.59,-0.32,-3.96,-3.96,-3.95
126.03,-3.30,0.69,-3.28,0.70,-0.73,-0.67,-0.38,-4.03,-4.02,-3.98
127.29,-3.26,0.75,-3.25,0.76,-0.80,-0.74,-0.44,-4.06,-4.06,-4.00
128.57,-3.21,0.84,-3.20,0.84,-0.87,-0.81,-0.50,-4.07,-4.07,-4.04
129.85,-3.14,0.94,-3.13,0.94,-0.93,-0.88,-0.55,-4.06,-4.06,-4.07
131.15,-3.07,1.04,-3.08,1.02,-0.98,-0.94,-0.60,-4.05,-4.07,-4.10
132.46,-3.06,1.08,-3.05,1.08,-1.04,-1.00,-0.65,-4.09,-4.09,-4.13
133.79,-3.06,1.11,-3.05,1.12,-1.09,-1.06,-0.70,-4.14,-4.13,-4.16
135.12,-3.05,1.15,-3.05,1.14,-1.14,-1.11,-0.75,-4.19,-4.19,-4.19
136.48,-3.05,1.17,-3.05,1.17,-1.20,-1.17,-0.80,-4.24,-4.25,-4.21
137.84,-3.05,1.21,-3.05,1.20,-1.25,-1.22,-0.84,-4.29,-4.30,-4.25
139.22,-3.05,1.24,-3.02,1.26,-1.30,-1.27,-0.89,-4.34,-4.32,-4.28
140.61,-2.99,1.33,-2.96,1.35,-1.35,-1.33,-0.93,-4.33,-4.31,-4.31
142.02,-2.86,1.48,-2.90,1.44,-1.41,-1.38,-0.98,-4.27,-4.31,-4.33
143.44,-2.85,1.52,-2.85,1.52,-1.48,-1.43,-1.02,-4.33,-4.33,-4.36
144.87,-2.84,1.57,-2.83,1.57,-1.56,-1.48,-1.07,-4.39,-4.39,-4.40
146.32,-2.84,1.61,-2.83,1.60,-1.64,-1.53,-1.11,-4.47,-4.47,-4.44
147.78,-2.84,1.64,-2.81,1.67,-1.72,-1.59,-1.15,-4.55,-4.52,-4.47
149.26,-2.76,1.77,-2.77,1.76,-1.79,-1.64,-1.20,-4.55,-4.56,-4.52
150.75,-2.73,1.86,-2.73,1.85,-1.86,-1.69,-1.24,-4.58,-4.59,-4.58
152.26,-2.72,1.94,-2.72,1.94,-1.91,-1.75,-1.29,-4.63,-4.63,-4.65
153.78,-2.74,1.99,-2.74,1.98,-1.95,-1.80,-1.33,-4.68,-4.69,-4.72
155.32,-2.81,1.99,-2.80,2.00,-1.95,-1.86,-1.38,-4.76,-4.75,-4.79
156.88,-2.88,2.00,-2.87,2.01,-1.92,-1.92,-1.43,-4.80,-4.79,-4.87
158.44,-2.98,1.98,-2.98,1.97,-1.88,-1.97,-1.48,-4.85,-4.86,-4.95
160.03,-3.10,1.94,-3.14,1.89,-1.84,-2.03,-1.53,-4.93,-4.97,-5.03
161.63,-3.34,1.77,-3.33,1.77,-1.81,-2.09,-1.58,-5.15,-5.14,-5.10
163.24,-3.50,1.67,-3.48,1.68,-1.82,-2.14,-1.63,-5.31,-5.30,-5.16
164.88,-3.58,1.64,-3.54,1.68,-1.86,-2.20,-1.68,-5.44,-5.40,-5.21
166.53,-3.47,1.80,-3.47,1.79,-1.93,-2.26,-1.74,-5.40,-5.40,-5.26
168.19,-3.30,2.01,-3.30,2.01,-2.04,-2.31,-1.80,-5.33,-5.34,-5.30
169.87,-3.11,2.24,-3.09,2.25,-2.17,-2.37,-1.85,-5.27,-5.26,-5.34
171.57,-2.89,2.48,-2.93,2.43,-2.31,-2.43,-1.92,-5.20,-5.24,-5.36
173.29,-2.80,2.58,-2.82,2.56,-2.46,-2.48,-1.98,-5.26,-5.28,-5.37
175.02,-2.79,2.60,-2.75,2.64,-2.60,-2.54,-2.04,-5.39,-5.35,-5.38
176.77,-2.71,2.69,-2.70,2.70,-2.71,-2.59,-2.11,-5.42,-5.41,-5.39
178.54,-2.62,2.79,-2.64,2.76,-2.79,-2.65,-2.17,-5.40,-5.42,-5.40
180.32,-2.58,2.82,-2.56,2.83,-2.84,-2.70,-2.24,-5.41,-5.40,-5.39
182.13,-2.52,2.87,-2.51,2.88,-2.88,-2.75,-2.31,-5.39,-5.39,-5.38
183.95,-2.47,2.93,-2.48,2.91,-2.91,-2.80,-2.38,-5.38,-5.39,-5.39
185.79,-2.46,2.94,-2.45,2.95,-2.95,-2.85,-2.46,-5.40,-5.40,-5.39
187.65,-2.44,2.98,-2.43,2.98,-2.98,-2.90,-2.53,-5.42,-5.41,-5.41
189.52,-2.42,3.01,-2.42,3.00,-3.01,-2.95,-2.61,-5.43,-5.43,-5.42
191.42,-2.41,3.04,-2.40,3.04,-3.04,-3.00,-2.69,-5.45,-5.45,-5.44
193.33,-2.40,3.07,-2.39,3.07,-3.07,-3.05,-2.77,-5.46,-5.46,-5.46
195.27,-2.38,3.11,-2.38,3.11,-3.10,-3.09,-2.85,-5.47,-5.48,-5.48
197.22,-2.37,3.14,-2.37,3.14,-3.13,-3.14,-2.93,-5.50,-5.50,-5.50
199.19,-2.36,3.17,-2.36,3.16,-3.17,-3.18,-3.02,-5.52,-5.53,-5.52
201.18,-2.36,3.19,-2.35,3.19,-3.21,-3.22,-3.10,-5.56,-5.56,-5.54
203.19,-2.35,3.22,-2.33,3.24,-3.25,-3.26,-3.19,-5.60,-5.58,-5.56
205.23,-2.29,3.30,-2.30,3.28,-3.30,-3.30,-3.27,-5.58,-5.59,-5.58
207.28,-2.24,3.36,-2.25,3.35,-3.34,-3.34,-3.36,-5.58,-5.60,-5.59
209.35,-2.24,3.38,-2.21,3.41,-3.39,-3.38,-3.44,-5.63,-5.60,-5.61
211.44,-2.17,3.48,-2.18,3.46,-3.45,-3.41,-3.53,-5.61,-5.63,-5.64
213.56,-2.15,3.51,-2.16,3.50,-3.49,-3.45,-3.61,-5.64,-5.65,-5.65
215.69,-2.15,3.52,-2.13,3.53,-3.53,-3.48,-3.70,-5.68,-5.66,-5.66
217.85,-2.12,3.56,-2.11,3.57,-3.56,-3.51,-3.78,-5.68,-5.67,-5.67
220.03,-2.08,3.61,-2.08,3.61,-3.59,-3.54,-3.86,-5.67,-5.68,-5.68
222.23,-2.06,3.66,-2.06,3.64,-3.62,-3.57,-3.94,-5.67,-5.68,-5.71
224.45,-2.06,3.65,-2.06,3.65,-3.65,-3.60,-4.01,-5.70,-5.71,-5.70
226.70,-2.06,3.65,-2.05,3.65,-3.68,-3.62,-4.08,-5.74,-5.73,-5.70
228.96,-2.05,3.65,-2.03,3.67,-3.71,-3.65,-4.15,-5.76,-5.74,-5.69
231.25,-1.97,3.72,-1.97,3.72,-3.74,-3.67,-4.22,-5.71,-5.71,-5.68
233.57,-1.90,3.78,-1.90,3.78,-3.77,-3.69,-4.28,-5.66,-5.67,-5.67
235.90,-1.83,3.84,-1.84,3.83,-3.79,-3.71,-4.33,-5.61,-5.63,-5.66
238.26,-1.81,3.85,-1.80,3.84,-3.81,-3.73,-4.38,-5.61,-5.61,-5.65
240.64,-1.79,3.84,-1.78,3.84,-3.82,-3.75,-4.42,-5.61,-5.61,-5.62
243.05,-1.78,3.82,-1.77,3.83,-3.83,-3.77,-4.46,-5.60,-5.60,-5.59
245.48,-1.76,3.82,-1.75,3.82,-3.83,-3.78,-4.50,-5.58,-5.58,-5.57
247.93,-1.73,3.82,-1.73,3.82,-3.83,-3.80,-4.52,-5.55,-5.55,-5.54
250.41,-1.71,3.82,-1.71,3.81,-3.82,-3.81,-4.54,-5.53,-5.54,-5.52
252.92,-1.70,3.80,-1.69,3.80,-3.82,-3.82,-4.56,-5.51,-5.51,-5.49
255.45,-1.69,3.79,-1.66,3.81,-3.82,-3.83,-4.57,-5.51,-5.48,-5.47
258.00,-1.62,3.84,-1.63,3.83,-3.83,-3.84,-4.57,-5.44,-5.45,-5.45
260.58,-1.57,3.87,-1.59,3.84,-3.84,-3.85,-4.57,-5.40,-5.42,-5.43
263.19,-1.57,3.84,-1.55,3.86,-3.85,-3.86,-4.56,-5.41,-5.40,-5.40
265.82,-1.53,3.86,-1.52,3.86,-3.86,-3.86,-4.54,-5.39,-5.39,-5.38
268.48,-1.49,3.88,-1.50,3.86,-3.87,-3.87,-4.53,-5.36,-5.37,-5.36
271.16,-1.48,3.86,-1.46,3.88,-3.87,-3.87,-4.50,-5.35,-5.33,-5.33
273.87,-1.44,3.88,-1.43,3.88,-3.87,-3.87,-4.47,-5.30,-5.29,-5.31
276.61,-1.39,3.90,-1.40,3.88,-3.86,-3.87,-4.44,-5.25,-5.26,-5.28
279.38,-1.38,3.88,-1.38,3.88,-3.86,-3.87,-4.41,-5.23,-5.23,-5.25
282.17,-1.38,3.86,-1.37,3.85,-3.86,-3.87,-4.37,-5.24,-5.23,-5.23
284.99,-1.37,3.83,-1.38,3.82,-3.87,-3.87,-4.33,-5.23,-5.25,-5.19
287.84,-1.37,3.81,-1.34,3.83,-3.88,-3.87,-4.29,-5.24,-5.22,-5.17
290.72,-1.32,3.83,-1.28,3.86,-3.88,-3.87,-4.25,-5.20,-5.16,-5.14
293.63,-1.16,3.96,-1.20,3.91,-3.89,-3.86,-4.21,-5.05,-5.09,-5.11
296.57,-1.13,3.96,-1.14,3.95,-3.90,-3.86,-4.16,-5.02,-5.03,-5.08
299.53,-1.12,3.94,-1.10,3.95,-3.91,-3.86,-4.12,-5.02,-5.01,-5.05
302.53,-1.11,3.93,-1.10,3.92,-3.91,-3.85,-4.08,-5.02,-5.02,-5.03
305.55,-1.10,3.90,-1.10,3.90,-3.92,-3.85,-4.03,-5.02,-5.02,-4.99
308.61,-1.09,3.89,-1.09,3.89,-3.92,-3.84,-3.99,-5.01,-5.01,-4.97
311.69,-1.08,3.87,-1.05,3.89,-3.92,-3.83,-3.95,-4.99,-4.97,-4.94
314.81,-1.01,3.92,-1.01,3.91,-3.91,-3.83,-3.91,-4.92,-4.93,-4.92
317.96,-0.97,3.94,-0.98,3.92,-3.91,-3.82,-3.87,-4.87,-4.89,-4.90
321.14,-0.97,3.93,-0.96,3.93,-3.90,-3.81,-3.84,-4.87,-4.86,-4.89
324.35,-0.97,3.91,-0.96,3.91,-3.90,-3.81,-3.80,-4.86,-4.86,-4.87
327.59,-0.97,3.90,-0.97,3.89,-3.89,-3.80,-3.77,-4.86,-4.86,-4.86
330.87,-0.98,3.88,-0.97,3.88,-3.88,-3.79,-3.74,-4.86,-4.85,-4.85
334.18,-0.98,3.86,-0.97,3.86,-3.87,-3.79,-3.72,-4.84,-4.84,-4.83
337.52,-0.98,3.85,-0.98,3.85,-3.85,-3.78,-3.69,-4.83,-4.83,-4.82
340.90,-0.98,3.84,-0.98,3.84,-3.84,-3.77,-3.67,-4.82,-4.82,-4.81
344.30,-0.98,3.83,-0.98,3.83,-3.84,-3.77,-3.65,-4.81,-4.81,-4.80
347.75,-0.98,3.83,-0.98,3.82,-3.83,-3.76,-3.63,-4.81,-4.81,-4.80
351.23,-0.98,3.82,-0.97,3.82,-3.83,-3.76,-3.62,-4.80,-4.80,-4.79
354.74,-0.98,3.83,-0.97,3.83,-3.83,-3.75,-3.61,-4.80,-4.80,-4.80
358.28,-0.97,3.83,-0.97,3.83,-3.82,-3.75,-3.60,-4.78,-4.78,-4.79
361.87,-0.97,3.83,-0.96,3.83,-3.81,-3.75,-3.60,-4.77,-4.77,-4.79
365.49,-0.96,3.83,-0.97,3.82,-3.80,-3.75,-3.59,-4.75,-4.77,-4.78
369.14,-0.99,3.81,-0.99,3.80,-3.79,-3.74,-3.59,-4.78,-4.78,-4.79
372.83,-1.04,3.76,-1.02,3.78,-3.79,-3.74,-3.60,-4.82,-4.80,-4.79
376.56,-1.04,3.77,-1.04,3.76,-3.79,-3.74,-3.60,-4.82,-4.82,-4.80
380.33,-1.03,3.77,-1.04,3.76,-3.80,-3.75,-3.61,-4.82,-4.83,-4.79
384.13,-1.03,3.77,-1.01,3.79,-3.81,-3.75,-3.62,-4.83,-4.82,-4.79
387.97,-1.00,3.81,-0.98,3.82,-3.82,-3.75,-3.64,-4.82,-4.80,-4.80
391.85,-0.93,3.89,-0.94,3.86,-3.85,-3.76,-3.65,-4.77,-4.79,-4.81
395.77,-0.91,3.90,-0.92,3.89,-3.87,-3.76,-3.67,-4.78,-4.79,-4.80
399.73,-0.92,3.90,-0.91,3.91,-3.89,-3.77,-3.69,-4.81,-4.80,-4.81
403.72,-0.92,3.90,-0.91,3.91,-3.91,-3.77,-3.71,-4.82,-4.82,-4.81
407.76,-0.92,3.92,-0.92,3.91,-3.91,-3.78,-3.73,-4.83,-4.83,-4.83
411.84,-0.92,3.92,-0.91,3.92,-3.90,-3.79,-3.76,-4.82,-4.82,-4.83
415.96,-0.93,3.91,-0.92,3.91,-3.89,-3.80,-3.79,-4.81,-4.81,-4.83
420.12,-0.93,3.91,-0.95,3.88,-3.87,-3.81,-3.81,-4.80,-4.82,-4.83
