frequency,raw,error,smoothed,error_smoothed,equalization,parametric_eq,fixed_band_eq,equalized_raw,equalized_smoothed,target
20.00,-6.06,-10.96,-6.15,-11.07,11.07,10.06,3.86,5.01,4.92,4.90
20.20,-6.05,-10.98,-6.09,-11.03,11.03,10.14,3.97,4.98,4.94,4.93
20.40,-6.02,-10.97,-6.02,-10.98,10.98,10.22,4.08,4.97,4.96,4.96
20.61,-5.98,-10.96,-5.95,-10.94,10.94,10.30,4.19,4.96,4.98,4.98
20.81,-5.95,-10.95,-5.88,-10.88,10.88,10.37,4.30,4.94,5.00,5.01
21.02,-5.88,-10.92,-5.81,-10.83,10.83,10.42,4.42,4.95,5.01,5.04
21.23,-5.80,-10.85,-5.74,-10.77,10.77,10.47,4.54,4.97,5.03,5.05
21.44,-5.72,-10.77,-5.66,-10.71,10.71,10.52,4.66,4.99,5.04,5.06
21.66,-5.61,-10.68,-5.58,-10.64,10.64,10.55,4.79,5.03,5.05,5.07
21.87,-5.50,-10.56,-5.50,-10.57,10.57,10.57,4.92,5.07,5.06,5.07
22.09,-5.42,-10.49,-5.42,-10.49,10.49,10.59,5.05,5.08,5.07,5.08
22.31,-5.33,-10.40,-5.34,-10.41,10.41,10.59,5.19,5.09,5.08,5.08
22.54,-5.22,-10.30,-5.24,-10.32,10.32,10.59,5.33,5.10,5.08,5.08
22.76,-5.14,-10.21,-5.14,-10.22,10.22,10.58,5.47,5.08,5.08,5.08
22.99,-5.05,-10.12,-5.04,-10.12,10.12,10.55,5.62,5.07,5.08,5.07
23.22,-4.94,-10.01,-4.94,-10.02,10.02,10.52,5.77,5.08,5.07,5.07
23.45,-4.83,-9.89,-4.85,-9.92,9.92,10.48,5.92,5.10,5.07,5.07
23.69,-4.77,-9.84,-4.76,-9.83,9.83,10.44,6.08,5.06,5.07,5.07
23.92,-4.66,-9.72,-4.67,-9.74,9.74,10.38,6.24,5.08,5.07,5.07
24.16,-4.60,-9.66,-4.58,-9.65,9.65,10.32,6.41,5.05,5.07,5.07
24.40,-4.49,-9.55,-4.50,-9.56,9.56,10.25,6.58,5.08,5.06,5.07
24.65,-4.42,-9.48,-4.41,-9.47,9.47,10.17,6.75,5.06,5.06,5.06
24.89,-4.32,-9.37,-4.33,-9.39,9.39,10.09,6.92,5.07,5.06,5.06
25.14,-4.26,-9.31,-4.25,-9.31,9.31,10.00,7.10,5.05,5.06,5.06
25.39,-4.17,-9.22,-4.17,-9.22,9.22,9.91,7.28,5.06,5.06,5.06
25.65,-4.09,-9.15,-4.09,-9.14,9.14,9.81,7.46,5.05,5.05,5.06
25.91,-4.02,-9.07,-4.01,-9.06,9.06,9.71,7.64,5.04,5.05,5.05
26.16,-3.93,-8.97,-3.93,-8.98,8.98,9.60,7.82,5.05,5.05,5.05
26.43,-3.85,-8.90,-3.85,-8.89,8.89,9.50,8.00,5.04,5.05,5.05
26.69,-3.78,-8.83,-3.77,-8.81,8.81,9.38,8.18,5.04,5.04,5.05
26.96,-3.70,-8.75,-3.69,-8.73,8.73,9.27,8.36,5.03,5.04,5.05
27.23,-3.62,-8.66,-3.62,-8.66,8.66,9.16,8.54,5.04,5.04,5.04
27.50,-3.54,-8.58,-3.54,-8.58,8.58,9.04,8.71,5.04,5.03,5.04
27.77,-3.46,-8.48,-3.47,-8.50,8.50,8.92,8.88,5.04,5.03,5.03
28.05,-3.39,-8.41,-3.40,-8.42,8.42,8.81,9.05,5.04,5.03,5.03
28.33,-3.32,-8.33,-3.33,-8.35,8.35,8.69,9.20,5.03,5.02,5.02
28.62,-3.25,-8.27,-3.26,-8.27,8.27,8.57,9.35,5.03,5.02,5.02
28.90,-3.18,-8.19,-3.19,-8.20,8.20,8.45,9.49,5.02,5.01,5.02
29.19,-3.12,-8.13,-3.12,-8.13,8.13,8.33,9.62,5.01,5.01,5.01
29.48,-3.07,-8.07,-3.05,-8.05,8.05,8.22,9.73,4.99,5.00,5.01
29.78,-2.99,-7.99,-2.98,-7.98,7.98,8.10,9.83,4.99,5.00,5.00
30.08,-2.93,-7.93,-2.92,-7.91,7.91,7.98,9.92,4.98,4.99,5.00
30.38,-2.86,-7.85,-2.85,-7.84,7.84,7.87,9.99,4.98,4.99,4.99
30.68,-2.78,-7.77,-2.78,-7.77,7.77,7.76,10.04,4.99,4.98,4.99
30.99,-2.73,-7.71,-2.71,-7.69,7.69,7.65,10.07,4.96,4.98,4.98
31.30,-2.65,-7.62,-2.65,-7.62,7.62,7.54,10.09,4.97,4.97,4.97
31.61,-2.57,-7.54,-2.58,-7.55,7.55,7.43,10.09,4.98,4.97,4.97
31.93,-2.53,-7.49,-2.52,-7.48,7.48,7.33,10.07,4.95,4.96,4.96
32.24,-2.44,-7.38,-2.45,-7.41,7.41,7.23,10.03,4.97,4.95,4.95
32.57,-2.39,-7.34,-2.39,-7.34,7.34,7.12,9.98,4.95,4.95,4.95
32.89,-2.34,-7.27,-2.33,-7.27,7.27,7.03,9.91,4.93,4.94,4.94
33.22,-2.26,-7.18,-2.27,-7.20,7.20,6.93,9.83,4.94,4.93,4.93
33.55,-2.20,-7.12,-2.21,-7.13,7.13,6.84,9.73,4.94,4.92,4.93
33.89,-2.15,-7.07,-2.16,-7.07,7.07,6.75,9.62,4.92,4.91,4.92
34.23,-2.11,-7.02,-2.10,-7.01,7.01,6.66,9.51,4.90,4.91,4.91
34.57,-2.06,-6.96,-2.05,-6.94,6.94,6.57,9.38,4.88,4.90,4.90
34.92,-2.00,-6.89,-1.99,-6.88,6.88,6.49,9.24,4.88,4.89,4.89
35.27,-1.95,-6.83,-1.94,-6.82,6.82,6.41,9.10,4.87,4.88,4.88
35.62,-1.89,-6.76,-1.89,-6.76,6.76,6.33,8.96,4.87,4.87,4.87
35.97,-1.85,-6.70,-1.84,-6.70,6.70,6.26,8.81,4.85,4.86,4.86
36.33,-1.79,-6.63,-1.79,-6.64,6.64,6.19,8.65,4.85,4.85,4.85
36.70,-1.73,-6.57,-1.74,-6.58,6.58,6.12,8.50,4.85,4.84,4.84
37.06,-1.70,-6.52,-1.69,-6.52,6.52,6.06,8.34,4.82,4.83,4.83
37.43,-1.64,-6.45,-1.64,-6.46,6.46,5.99,8.19,4.82,4.82,4.82
37.81,-1.59,-6.40,-1.60,-6.40,6.40,5.93,8.03,4.81,4.81,4.81
38.19,-1.55,-6.35,-1.55,-6.34,6.34,5.88,7.88,4.79,4.79,4.80
38.57,-1.50,-6.29,-1.50,-6.28,6.28,5.83,7.73,4.78,4.78,4.79
38.95,-1.45,-6.22,-1.45,-6.22,6.22,5.78,7.58,4.78,4.77,4.78
39.34,-1.41,-6.16,-1.40,-6.16,6.16,5.73,7.43,4.76,4.76,4.76
39.74,-1.36,-6.11,-1.35,-6.11,6.11,5.69,7.29,4.75,4.75,4.75
40.14,-1.31,-6.05,-1.30,-6.05,6.05,5.65,7.15,4.74,4.74,4.74
40.54,-1.27,-6.00,-1.25,-5.99,5.99,5.61,7.02,4.72,4.73,4.73
40.94,-1.22,-5.93,-1.21,-5.93,5.93,5.58,6.89,4.71,4.72,4.72
41.35,-1.17,-5.87,-1.16,-5.86,5.86,5.55,6.76,4.70,4.71,4.71
41.76,-1.10,-5.79,-1.11,-5.80,5.80,5.52,6.63,4.70,4.70,4.70
42.18,-1.04,-5.72,-1.06,-5.74,5.74,5.50,6.52,4.70,4.68,4.69
42.60,-1.01,-5.68,-1.01,-5.68,5.68,5.48,6.40,4.67,4.67,4.68
43.03,-0.96,-5.63,-0.96,-5.62,5.62,5.46,6.29,4.66,4.66,4.67
43.46,-0.92,-5.57,-0.91,-5.56,5.56,5.45,6.18,4.64,4.64,4.65
43.90,-0.89,-5.52,-0.87,-5.50,5.50,5.44,6.08,4.61,4.63,4.63
44.33,-0.83,-5.43,-0.83,-5.44,5.44,5.43,5.99,4.62,4.61,4.61
44.78,-0.80,-5.39,-0.80,-5.39,5.39,5.42,5.89,4.59,4.60,4.59
45.23,-0.75,-5.32,-0.76,-5.34,5.34,5.42,5.80,4.59,4.58,4.57
45.68,-0.73,-5.29,-0.73,-5.29,5.29,5.42,5.72,4.57,4.56,4.56
46.13,-0.69,-5.22,-0.71,-5.25,5.25,5.42,5.64,4.56,4.54,4.54
46.60,-0.68,-5.21,-0.69,-5.21,5.21,5.42,5.56,4.53,4.52,4.53
47.06,-0.65,-5.16,-0.67,-5.17,5.17,5.42,5.49,4.52,4.50,4.51
47.53,-0.64,-5.13,-0.65,-5.13,5.13,5.42,5.42,4.49,4.48,4.49
48.01,-0.64,-5.12,-0.63,-5.09,5.09,5.42,5.36,4.45,4.46,4.48
48.49,-0.64,-5.09,-0.62,-5.05,5.05,5.42,5.30,4.42,4.44,4.45
48.97,-0.64,-5.05,-0.60,-5.02,5.02,5.42,5.24,4.38,4.42,4.42
49.46,-0.59,-4.98,-0.59,-4.99,4.99,5.41,5.18,4.40,4.39,4.39
49.96,-0.59,-4.95,-0.59,-4.96,4.96,5.41,5.13,4.37,4.37,4.36
50.46,-0.59,-4.93,-0.58,-4.92,4.92,5.40,5.08,4.34,4.34,4.34
50.96,-0.59,-4.91,-0.57,-4.89,4.89,5.38,5.04,4.30,4.32,4.32
51.47,-0.59,-4.88,-0.57,-4.86,4.86,5.37,4.99,4.28,4.29,4.29
51.99,-0.55,-4.82,-0.57,-4.83,4.83,5.34,4.95,4.29,4.27,4.27
52.51,-0.54,-4.79,-0.56,-4.81,4.81,5.31,4.91,4.27,4.24,4.25
53.03,-0.54,-4.77,-0.57,-4.79,4.79,5.28,4.88,4.25,4.22,4.23
53.56,-0.54,-4.74,-0.57,-4.76,4.76,5.24,4.84,4.23,4.20,4.20
54.10,-0.59,-4.76,-0.57,-4.75,4.75,5.19,4.80,4.16,4.17,4.18
54.64,-0.59,-4.74,-0.58,-4.73,4.73,5.14,4.77,4.14,4.15,4.15
55.18,-0.59,-4.71,-0.59,-4.72,4.72,5.08,4.73,4.13,4.13,4.13
55.74,-0.59,-4.69,-0.60,-4.70,4.70,5.01,4.70,4.11,4.11,4.10
56.29,-0.60,-4.68,-0.60,-4.69,4.69,4.94,4.66,4.09,4.08,4.08
56.86,-0.64,-4.70,-0.61,-4.67,4.67,4.86,4.63,4.03,4.06,4.06
57.42,-0.64,-4.67,-0.62,-4.66,4.66,4.77,4.59,4.02,4.04,4.03
58.00,-0.64,-4.65,-0.63,-4.64,4.64,4.68,4.55,4.00,4.01,4.01
58.58,-0.64,-4.63,-0.63,-4.62,4.62,4.59,4.52,3.98,3.98,3.99
59.16,-0.63,-4.59,-0.63,-4.59,4.59,4.49,4.47,3.96,3.96,3.97
59.76,-0.61,-4.56,-0.62,-4.56,4.56,4.39,4.43,3.95,3.93,3.95
60.35,-0.61,-4.52,-0.61,-4.52,4.52,4.29,4.39,3.91,3.91,3.92
60.96,-0.59,-4.48,-0.60,-4.48,4.48,4.19,4.34,3.89,3.88,3.89
61.57,-0.59,-4.44,-0.58,-4.43,4.43,4.08,4.29,3.84,3.85,3.85
62.18,-0.59,-4.40,-0.55,-4.37,4.37,3.97,4.24,3.79,3.82,3.82
62.80,-0.54,-4.32,-0.52,-4.31,4.31,3.86,4.18,3.77,3.79,3.79
63.43,-0.51,-4.26,-0.48,-4.25,4.25,3.76,4.12,3.74,3.77,3.76
64.07,-0.45,-4.18,-0.44,-4.18,4.18,3.65,4.06,3.73,3.74,3.73
64.71,-0.41,-4.12,-0.40,-4.11,4.11,3.54,4.00,3.70,3.71,3.71
65.35,-0.35,-4.02,-0.36,-4.03,4.03,3.44,3.93,3.68,3.68,3.68
66.01,-0.31,-3.96,-0.31,-3.96,3.96,3.33,3.86,3.65,3.65,3.65
66.67,-0.26,-3.88,-0.27,-3.88,3.88,3.23,3.79,3.62,3.62,3.62
67.33,-0.21,-3.79,-0.22,-3.81,3.81,3.13,3.71,3.60,3.59,3.59
68.01,-0.17,-3.73,-0.18,-3.73,3.73,3.03,3.63,3.56,3.56,3.56
68.69,-0.12,-3.65,-0.13,-3.66,3.66,2.93,3.55,3.54,3.53,3.53
69.37,-0.09,-3.58,-0.10,-3.59,3.59,2.84,3.47,3.51,3.50,3.50
70.07,-0.05,-3.52,-0.07,-3.53,3.53,2.75,3.39,3.48,3.47,3.47
70.77,-0.03,-3.47,-0.04,-3.47,3.47,2.66,3.31,3.44,3.43,3.44
71.48,0.01,-3.40,-0.02,-3.42,3.42,2.57,3.22,3.43,3.40,3.41
72.19,0.02,-3.35,0.00,-3.36,3.36,2.48,3.13,3.39,3.37,3.37
72.91,0.02,-3.31,0.02,-3.31,3.31,2.40,3.05,3.34,3.33,3.34
73.64,0.02,-3.27,0.04,-3.26,3.26,2.32,2.96,3.29,3.30,3.30
74.38,0.06,-3.21,0.05,-3.22,3.22,2.24,2.87,3.28,3.27,3.27
75.12,0.06,-3.17,0.06,-3.17,3.17,2.16,2.79,3.23,3.24,3.23
75.87,0.06,-3.13,0.08,-3.13,3.13,2.08,2.70,3.19,3.20,3.20
76.63,0.06,-3.10,0.09,-3.08,3.08,2.01,2.61,3.14,3.17,3.17
77.40,0.11,-3.03,0.11,-3.02,3.02,1.94,2.52,3.14,3.13,3.14
78.17,0.11,-2.98,0.13,-2.97,2.97,1.87,2.44,3.08,3.10,3.10
78.95,0.16,-2.90,0.15,-2.91,2.91,1.80,2.35,3.07,3.07,3.07
79.74,0.16,-2.87,0.18,-2.85,2.85,1.74,2.26,3.01,3.03,3.04
80.54,0.20,-2.80,0.21,-2.79,2.79,1.67,2.18,2.99,3.00,3.00
81.35,0.23,-2.74,0.24,-2.72,2.72,1.61,2.09,2.95,2.96,2.97
82.16,0.27,-2.66,0.28,-2.65,2.65,1.55,2.01,2.92,2.93,2.93
82.98,0.31,-2.58,0.32,-2.58,2.58,1.49,1.93,2.89,2.90,2.90
83.81,0.37,-2.48,0.35,-2.50,2.50,1.43,1.85,2.88,2.86,2.86
84.65,0.40,-2.42,0.39,-2.43,2.43,1.37,1.77,2.83,2.82,2.82
85.50,0.44,-2.35,0.43,-2.35,2.35,1.31,1.69,2.79,2.78,2.79
86.35,0.48,-2.27,0.47,-2.27,2.27,1.26,1.61,2.76,2.75,2.75
87.22,0.51,-2.20,0.51,-2.20,2.20,1.21,1.53,2.71,2.71,2.71
88.09,0.55,-2.12,0.55,-2.12,2.12,1.15,1.45,2.67,2.67,2.67
88.97,0.58,-2.05,0.59,-2.04,2.04,1.10,1.38,2.62,2.63,2.63
89.86,0.62,-1.97,0.62,-1.96,1.96,1.05,1.30,2.58,2.58,2.59
90.76,0.66,-1.88,0.66,-1.88,1.88,1.00,1.23,2.54,2.54,2.54
91.66,0.69,-1.80,0.69,-1.80,1.80,0.95,1.16,2.50,2.50,2.50
92.58,0.72,-1.73,0.73,-1.73,1.73,0.91,1.09,2.45,2.45,2.45
93.51,0.76,-1.65,0.76,-1.65,1.65,0.86,1.01,2.41,2.41,2.41
94.44,0.79,-1.58,0.80,-1.57,1.57,0.81,0.94,2.36,2.36,2.37
95.39,0.82,-1.50,0.83,-1.49,1.49,0.77,0.87,2.31,2.31,2.32
96.34,0.86,-1.41,0.86,-1.41,1.41,0.72,0.81,2.27,2.27,2.27
97.30,0.88,-1.33,0.90,-1.32,1.32,0.68,0.74,2.21,2.22,2.22
98.28,0.93,-1.24,0.93,-1.25,1.25,0.63,0.67,2.18,2.17,2.17
99.26,0.95,-1.18,0.96,-1.17,1.17,0.59,0.61,2.12,2.13,2.13
100.25,1.00,-1.08,0.99,-1.09,1.09,0.55,0.54,2.09,2.08,2.08
101.25,1.00,-1.02,1.01,-1.02,1.02,0.50,0.48,2.02,2.03,2.03
102.27,1.04,-0.94,1.04,-0.94,0.94,0.46,0.41,1.99,1.98,1.98
103.29,1.09,-0.84,1.06,-0.87,0.87,0.42,0.35,1.96,1.93,1.93
104.32,1.09,-0.80,1.08,-0.80,0.80,0.38,0.29,1.89,1.88,1.89
105.37,1.09,-0.75,1.11,-0.73,0.73,0.33,0.23,1.82,1.84,1.84
106.42,1.14,-0.65,1.12,-0.66,0.66,0.29,0.17,1.81,1.79,1.79
107.48,1.14,-0.59,1.14,-0.59,0.59,0.25,0.11,1.74,1.74,1.74
108.56,1.14,-0.55,1.16,-0.53,0.53,0.21,0.06,1.67,1.69,1.69
109.64,1.18,-0.45,1.17,-0.46,0.46,0.17,0.00,1.64,1.63,1.64
110.74,1.18,-0.41,1.19,-0.39,0.39,0.13,-0.05,1.57,1.58,1.59
111.85,1.18,-0.36,1.21,-0.32,0.32,0.09,-0.11,1.51,1.53,1.54
112.97,1.23,-0.25,1.22,-0.26,0.26,0.05,-0.16,1.49,1.48,1.48
114.10,1.23,-0.20,1.24,-0.19,0.19,0.01,-0.21,1.42,1.42,1.43
115.24,1.25,-0.12,1.26,-0.12,0.12,-0.03,-0.26,1.37,1.37,1.37
116.39,1.28,-0.04,1.27,-0.04,0.04,-0.07,-0.31,1.33,1.32,1.32
117.55,1.28,0.03,1.30,0.03,-0.03,-0.12,-0.35,1.25,1.27,1.26
118.73,1.32,0.11,1.31,0.10,-0.10,-0.16,-0.40,1.22,1.21,1.21
119.92,1.32,0.16,1.34,0.18,-0.18,-0.20,-0.44,1.15,1.16,1.16
121.12,1.37,0.26,1.36,0.25,-0.25,-0.24,-0.48,1.12,1.11,1.11
122.33,1.37,0.31,1.38,0.32,-0.32,-0.28,-0.52,1.05,1.06,1.06
123.55,1.39,0.38,1.40,0.40,-0.40,-0.32,-0.56,1.00,1.00,1.01
124.79,1.42,0.46,1.42,0.47,-0.47,-0.37,-0.60,0.95,0.95,0.96
126.03,1.46,0.55,1.44,0.54,-0.54,-0.41,-0.63,0.92,0.90,0.91
127.29,1.46,0.61,1.46,0.61,-0.61,-0.45,-0.67,0.85,0.85,0.86
128.57,1.48,0.68,1.49,0.69,-0.69,-0.50,-0.70,0.80,0.80,0.80
129.85,1.51,0.76,1.51,0.76,-0.76,-0.54,-0.73,0.76,0.75,0.75
131.15,1.51,0.81,1.53,0.83,-0.83,-0.58,-0.76,0.68,0.70,0.70
132.46,1.56,0.91,1.55,0.90,-0.90,-0.63,-0.78,0.66,0.65,0.65
133.79,1.56,0.95,1.57,0.97,-0.97,-0.67,-0.81,0.60,0.61,0.61
135.12,1.60,1.04,1.59,1.03,-1.03,-0.72,-0.84,0.57,0.56,0.56
136.48,1.60,1.08,1.61,1.10,-1.10,-0.77,-0.86,0.51,0.51,0.52
137.84,1.64,1.17,1.63,1.16,-1.16,-0.81,-0.88,0.48,0.47,0.47
139.22,1.65,1.23,1.65,1.22,-1.22,-0.86,-0.91,0.43,0.43,0.42
140.61,1.65,1.27,1.67,1.28,-1.28,-0.91,-0.93,0.37,0.39,0.38
142.02,1.70,1.35,1.69,1.35,-1.35,-0.96,-0.95,0.36,0.35,0.35
143.44,1.70,1.39,1.71,1.41,-1.41,-1.00,-0.97,0.30,0.31,0.31
144.87,1.73,1.46,1.73,1.46,-1.46,-1.05,-0.99,0.27,0.27,0.27
146.32,1.74,1.51,1.75,1.52,-1.52,-1.10,-1.02,0.22,0.23,0.23
147.78,1.75,1.56,1.77,1.58,-1.58,-1.16,-1.04,0.17,0.19,0.20
149.26,1.79,1.63,1.79,1.64,-1.64,-1.21,-1.06,0.15,0.15,0.16
150.75,1.81,1.70,1.80,1.69,-1.69,-1.26,-1.08,0.12,0.11,0.12
152.26,1.84,1.76,1.82,1.74,-1.74,-1.31,-1.10,0.10,0.07,0.08
153.78,1.84,1.80,1.83,1.80,-1.80,-1.36,-1.12,0.05,0.04,0.04
155.32,1.84,1.84,1.85,1.85,-1.85,-1.42,-1.15,-0.01,-0.00,-0.00
156.88,1.86,1.90,1.86,1.90,-1.90,-1.47,-1.17,-0.04,-0.04,-0.04
158.44,1.88,1.96,1.87,1.95,-1.95,-1.52,-1.20,-0.07,-0.08,-0.08
160.03,1.88,2.00,1.88,2.00,-2.00,-1.58,-1.22,-0.12,-0.12,-0.12
161.63,1.88,2.04,1.89,2.05,-2.05,-1.63,-1.25,-0.17,-0.16,-0.16
163.24,1.88,2.08,1.90,2.10,-2.10,-1.69,-1.28,-0.22,-0.20,-0.20
164.88,1.88,2.11,1.91,2.14,-2.14,-1.74,-1.31,-0.26,-0.24,-0.23
166.53,1.88,2.15,1.91,2.18,-2.18,-1.80,-1.34,-0.30,-0.28,-0.27
168.19,1.93,2.24,1.91,2.23,-2.23,-1.86,-1.37,-0.29,-0.31,-0.31
169.87,1.93,2.28,1.91,2.27,-2.27,-1.91,-1.40,-0.33,-0.35,-0.35
171.57,1.93,2.32,1.91,2.30,-2.30,-1.97,-1.43,-0.37,-0.39,-0.39
173.29,1.93,2.35,1.91,2.34,-2.34,-2.02,-1.47,-0.41,-0.43,-0.42
175.02,1.93,2.39,1.91,2.38,-2.38,-2.08,-1.50,-0.45,-0.47,-0.46
176.77,1.90,2.40,1.91,2.41,-2.41,-2.13,-1.54,-0.51,-0.50,-0.50
178.54,1.88,2.42,1.90,2.44,-2.44,-2.18,-1.58,-0.56,-0.54,-0.54
180.32,1.88,2.46,1.90,2.47,-2.47,-2.24,-1.62,-0.59,-0.58,-0.58
182.13,1.88,2.49,1.89,2.50,-2.50,-2.29,-1.66,-0.62,-0.61,-0.61
183.95,1.88,2.53,1.88,2.53,-2.53,-2.34,-1.70,-0.65,-0.65,-0.65
185.79,1.88,2.56,1.87,2.56,-2.56,-2.39,-1.75,-0.67,-0.69,-0.68
187.65,1.84,2.56,1.85,2.57,-2.57,-2.44,-1.79,-0.73,-0.72,-0.72
189.52,1.84,2.59,1.84,2.60,-2.60,-2.48,-1.84,-0.75,-0.75,-0.75
191.42,1.84,2.62,1.83,2.62,-2.62,-2.53,-1.89,-0.78,-0.78,-0.78
193.33,1.84,2.65,1.82,2.64,-2.64,-2.57,-1.94,-0.80,-0.82,-0.81
195.27,1.79,2.63,1.81,2.66,-2.66,-2.61,-1.99,-0.86,-0.84,-0.84
197.22,1.79,2.66,1.80,2.67,-2.67,-2.65,-2.04,-0.88,-0.87,-0.87
199.19,1.79,2.69,1.79,2.69,-2.69,-2.69,-2.09,-0.90,-0.90,-0.90
201.18,1.79,2.71,1.78,2.70,-2.70,-2.72,-2.14,-0.91,-0.92,-0.92
203.19,1.75,2.69,1.77,2.71,-2.71,-2.75,-2.19,-0.96,-0.94,-0.94
205.23,1.74,2.70,1.75,2.71,-2.71,-2.78,-2.24,-0.97,-0.96,-0.96
207.28,1.74,2.71,1.74,2.72,-2.72,-2.80,-2.29,-0.98,-0.98,-0.97
209.35,1.74,2.73,1.73,2.72,-2.72,-2.82,-2.34,-0.98,-0.99,-0.99
211.44,1.71,2.72,1.71,2.72,-2.72,-2.84,-2.40,-1.01,-1.01,-1.01
213.56,1.70,2.72,1.69,2.71,-2.71,-2.86,-2.45,-1.01,-1.02,-1.02
215.69,1.68,2.70,1.67,2.70,-2.70,-2.87,-2.50,-1.02,-1.03,-1.02
217.85,1.65,2.68,1.66,2.69,-2.69,-2.88,-2.54,-1.04,-1.04,-1.03
220.03,1.64,2.68,1.63,2.67,-2.67,-2.88,-2.59,-1.03,-1.04,-1.04
222.23,1.60,2.65,1.60,2.65,-2.65,-2.88,-2.63,-1.05,-1.05,-1.05
224.45,1.59,2.64,1.58,2.63,-2.63,-2.88,-2.68,-1.03,-1.05,-1.05
226.70,1.56,2.61,1.55,2.60,-2.60,-2.87,-2.72,-1.04,-1.05,-1.05
228.96,1.53,2.58,1.52,2.57,-2.57,-2.86,-2.75,-1.04,-1.05,-1.05
231.25,1.50,2.54,1.50,2.55,-2.55,-2.85,-2.79,-1.04,-1.05,-1.04
233.57,1.46,2.50,1.47,2.52,-2.52,-2.83,-2.82,-1.05,-1.04,-1.04
235.90,1.44,2.48,1.45,2.49,-2.49,-2.81,-2.84,-1.05,-1.04,-1.04
238.26,1.42,2.45,1.43,2.46,-2.46,-2.79,-2.87,-1.04,-1.03,-1.03
240.64,1.38,2.40,1.41,2.44,-2.44,-2.77,-2.88,-1.05,-1.02,-1.02
243.05,1.37,2.38,1.40,2.41,-2.41,-2.74,-2.90,-1.04,-1.01,-1.01
245.48,1.37,2.37,1.39,2.39,-2.39,-2.71,-2.91,-1.02,-1.00,-1.00
247.93,1.37,2.36,1.38,2.37,-2.37,-2.67,-2.91,-0.99,-0.99,-0.99
250.41,1.37,2.35,1.37,2.35,-2.35,-2.64,-2.91,-0.97,-0.98,-0.98
252.92,1.37,2.33,1.36,2.33,-2.33,-2.60,-2.91,-0.95,-0.96,-0.96
255.45,1.37,2.31,1.36,2.31,-2.31,-2.57,-2.90,-0.94,-0.95,-0.94
258.00,1.37,2.30,1.36,2.29,-2.29,-2.53,-2.88,-0.92,-0.93,-0.93
260.58,1.37,2.28,1.36,2.27,-2.27,-2.48,-2.86,-0.90,-0.91,-0.91
263.19,1.37,2.26,1.36,2.26,-2.26,-2.44,-2.84,-0.88,-0.89,-0.89
265.82,1.37,2.24,1.37,2.24,-2.24,-2.40,-2.81,-0.87,-0.87,-0.87
268.48,1.37,2.22,1.37,2.23,-2.23,-2.35,-2.78,-0.85,-0.85,-0.85
271.16,1.35,2.18,1.37,2.21,-2.21,-2.31,-2.75,-0.85,-0.83,-0.83
273.87,1.35,2.16,1.37,2.19,-2.19,-2.26,-2.71,-0.83,-0.81,-0.81
276.61,1.37,2.16,1.37,2.16,-2.16,-2.22,-2.67,-0.79,-0.79,-0.79
279.38,1.37,2.14,1.37,2.14,-2.14,-2.17,-2.62,-0.77,-0.77,-0.77
282.17,1.37,2.12,1.37,2.12,-2.12,-2.12,-2.57,-0.75,-0.76,-0.75
284.99,1.37,2.10,1.36,2.10,-2.10,-2.08,-2.52,-0.73,-0.73,-0.73
287.84,1.37,2.08,1.36,2.07,-2.07,-2.03,-2.47,-0.70,-0.71,-0.71
290.72,1.37,2.06,1.36,2.05,-2.05,-1.98,-2.42,-0.68,-0.69,-0.69
293.63,1.36,2.03,1.35,2.02,-2.02,-1.94,-2.37,-0.66,-0.67,-0.67
296.57,1.32,1.97,1.35,2.00,-2.00,-1.89,-2.31,-0.67,-0.65,-0.65
299.53,1.32,1.95,1.34,1.97,-1.97,-1.85,-2.25,-0.64,-0.63,-0.63
302.53,1.32,1.93,1.33,1.94,-1.94,-1.80,-2.20,-0.61,-0.60,-0.61
305.55,1.32,1.90,1.32,1.90,-1.90,-1.76,-2.14,-0.58,-0.58,-0.58
308.61,1.32,1.88,1.31,1.87,-1.87,-1.71,-2.08,-0.55,-0.56,-0.56
311.69,1.29,1.82,1.30,1.83,-1.83,-1.67,-2.03,-0.54,-0.54,-0.53
314.81,1.28,1.78,1.28,1.79,-1.79,-1.62,-1.97,-0.51,-0.51,-0.50
317.96,1.28,1.76,1.27,1.76,-1.76,-1.58,-1.91,-0.48,-0.49,-0.48
321.14,1.26,1.72,1.25,1.72,-1.72,-1.54,-1.86,-0.46,-0.47,-0.46
324.35,1.23,1.67,1.23,1.68,-1.68,-1.50,-1.80,-0.45,-0.44,-0.44
327.59,1.23,1.65,1.22,1.64,-1.64,-1.46,-1.75,-0.41,-0.42,-0.42
330.87,1.18,1.58,1.20,1.60,-1.60,-1.42,-1.69,-0.41,-0.40,-0.40
334.18,1.18,1.56,1.17,1.55,-1.55,-1.38,-1.64,-0.37,-0.38,-0.38
337.52,1.16,1.52,1.15,1.51,-1.51,-1.34,-1.59,-0.35,-0.36,-0.36
340.90,1.14,1.48,1.14,1.48,-1.48,-1.31,-1.54,-0.33,-0.34,-0.34
344.30,1.10,1.42,1.12,1.44,-1.44,-1.27,-1.49,-0.34,-0.32,-0.32
347.75,1.09,1.39,1.10,1.40,-1.40,-1.23,-1.44,-0.31,-0.30,-0.30
351.23,1.08,1.36,1.08,1.37,-1.37,-1.20,-1.39,-0.29,-0.28,-0.28
354.74,1.04,1.30,1.07,1.34,-1.34,-1.17,-1.35,-0.30,-0.27,-0.26
358.28,1.04,1.29,1.06,1.31,-1.31,-1.13,-1.30,-0.27,-0.25,-0.25
361.87,1.04,1.27,1.05,1.28,-1.28,-1.10,-1.26,-0.24,-0.23,-0.23
365.49,1.04,1.25,1.04,1.26,-1.26,-1.07,-1.21,-0.21,-0.22,-0.21
369.14,1.04,1.24,1.03,1.23,-1.23,-1.04,-1.17,-0.19,-0.20,-0.20
372.83,1.04,1.22,1.02,1.21,-1.21,-1.01,-1.13,-0.16,-0.18,-0.18
376.56,1.03,1.20,1.02,1.19,-1.19,-0.98,-1.09,-0.16,-0.17,-0.17
380.33,1.00,1.15,1.01,1.17,-1.17,-0.95,-1.05,-0.17,-0.16,-0.15
384.13,1.00,1.14,1.01,1.15,-1.15,-0.92,-1.02,-0.15,-0.14,-0.14
387.97,1.00,1.13,1.00,1.13,-1.13,-0.89,-0.98,-0.13,-0.13,-0.13
391.85,1.00,1.12,0.99,1.11,-1.11,-0.86,-0.94,-0.11,-0.12,-0.12
395.77,0.99,1.09,0.98,1.09,-1.09,-0.84,-0.91,-0.10,-0.11,-0.10
399.73,0.95,1.04,0.97,1.07,-1.07,-0.81,-0.87,-0.12,-0.10,-0.09
403.72,0.95,1.03,0.97,1.05,-1.05,-0.78,-0.84,-0.10,-0.08,-0.08
407.76,0.95,1.02,0.95,1.03,-1.03,-0.76,-0.81,-0.08,-0.07,-0.07
411.84,0.95,1.01,0.94,1.01,-1.01,-0.74,-0.78,-0.06,-0.06,-0.06
415.96,0.95,1.00,0.93,0.99,-0.99,-0.71,-0.75,-0.03,-0.05,-0.05
420.12,0.90,0.94,0.92,0.96,-0.96,-0.69,-0.72,-0.06,-0.04,-0.04
424.32,0.90,0.93,0.91,0.94,-0.94,-0.66,-0.69,-0.04,-0.03,-0.03
428.56,0.90,0.92,0.89,0.91,-0.91,-0.64,-0.66,-0.01,-0.02,-0.02
432.85,0.90,0.91,0.88,0.89,-0.89,-0.62,-0.63,0.01,-0.01,-0.01
437.18,0.86,0.86,0.87,0.86,-0.86,-0.60,-0.61,-0.00,0.00,-0.00
441.55,0.86,0.84,0.85,0.84,-0.84,-0.58,-0.58,0.03,0.01,0.02
445.96,0.82,0.79,0.83,0.81,-0.81,-0.56,-0.56,0.01,0.03,0.03
450.42,0.81,0.77,0.82,0.78,-0.78,-0.53,-0.53,0.04,0.04,0.04
454.93,0.81,0.75,0.80,0.74,-0.74,-0.51,-0.51,0.07,0.05,0.06
459.48,0.76,0.69,0.78,0.71,-0.71,-0.49,-0.48,0.05,0.07,0.07
464.07,0.76,0.68,0.76,0.68,-0.68,-0.47,-0.46,0.08,0.08,0.08
468.71,0.76,0.66,0.75,0.65,-0.65,-0.46,-0.44,0.11,0.10,0.10
473.40,0.72,0.61,0.73,0.62,-0.62,-0.44,-0.42,0.10,0.11,0.11
478.13,0.72,0.59,0.72,0.59,-0.59,-0.42,-0.39,0.13,0.13,0.13
482.91,0.71,0.57,0.70,0.56,-0.56,-0.40,-0.37,0.15,0.14,0.14
487.74,0.67,0.51,0.70,0.54,-0.54,-0.38,-0.35,0.13,0.16,0.16
492.62,0.67,0.49,0.69,0.52,-0.52,-0.36,-0.33,0.16,0.17,0.18
497.55,0.67,0.48,0.68,0.49,-0.49,-0.34,-0.31,0.18,0.19,0.19
502.52,0.67,0.46,0.68,0.47,-0.47,-0.32,-0.29,0.20,0.21,0.21
