frequency,raw,error,smoothed,error_smoothed,equalization,parametric_eq,fixed_band_eq,equalized_raw,equalized_smoothed,target
20.00,17.09,8.21,17.09,8.21,-8.21,-8.48,-4.21,8.88,8.88,8.88
20.20,17.11,8.24,17.11,8.24,-8.24,-8.49,-4.32,8.87,8.87,8.87
20.40,17.14,8.28,17.13,8.28,-8.28,-8.51,-4.44,8.86,8.86,8.86
20.61,17.16,8.31,17.16,8.31,-8.31,-8.52,-4.56,8.84,8.85,8.85
20.81,17.19,8.36,17.19,8.35,-8.35,-8.53,-4.68,8.84,8.84,8.83
21.02,17.21,8.39,17.21,8.39,-8.38,-8.54,-4.80,8.83,8.83,8.82
21.23,17.24,8.43,17.23,8.42,-8.42,-8.55,-4.93,8.82,8.82,8.81
21.44,17.26,8.44,17.26,8.45,-8.45,-8.56,-5.07,8.81,8.81,8.82
21.66,17.28,8.48,17.28,8.48,-8.48,-8.57,-5.20,8.80,8.80,8.80
21.87,17.31,8.51,17.30,8.51,-8.51,-8.59,-5.34,8.79,8.79,8.80
22.09,17.33,8.55,17.33,8.55,-8.55,-8.60,-5.48,8.78,8.78,8.78
22.31,17.35,8.58,17.35,8.58,-8.58,-8.61,-5.63,8.77,8.77,8.77
22.54,17.38,8.62,17.37,8.61,-8.61,-8.62,-5.78,8.77,8.76,8.76
22.76,17.40,8.64,17.40,8.64,-8.64,-8.64,-5.94,8.76,8.76,8.76
22.99,17.43,8.68,17.43,8.68,-8.67,-8.65,-6.10,8.75,8.75,8.75
23.22,17.45,8.71,17.45,8.70,-8.70,-8.66,-6.26,8.75,8.75,8.74
23.45,17.48,8.73,17.48,8.73,-8.73,-8.68,-6.43,8.75,8.75,8.75
23.69,17.50,8.76,17.50,8.76,-8.76,-8.69,-6.60,8.74,8.74,8.74
23.92,17.52,8.79,17.52,8.78,-8.78,-8.71,-6.77,8.74,8.74,8.73
24.16,17.54,8.80,17.54,8.81,-8.81,-8.72,-6.95,8.73,8.73,8.74
24.40,17.57,8.83,17.56,8.83,-8.83,-8.73,-7.13,8.74,8.73,8.74
24.65,17.59,8.86,17.59,8.85,-8.86,-8.75,-7.32,8.73,8.73,8.73
24.89,17.61,8.88,17.61,8.88,-8.88,-8.76,-7.51,8.73,8.73,8.73
25.14,17.63,8.91,17.63,8.91,-8.91,-8.78,-7.70,8.72,8.73,8.72
25.39,17.66,8.94,17.65,8.93,-8.93,-8.79,-7.89,8.73,8.72,8.72
25.65,17.68,8.96,17.68,8.96,-8.95,-8.81,-8.09,8.72,8.72,8.72
25.91,17.70,8.98,17.70,8.98,-8.98,-8.83,-8.28,8.72,8.72,8.72
26.16,17.72,8.99,17.72,8.99,-9.00,-8.84,-8.48,8.72,8.72,8.73
26.43,17.74,9.02,17.74,9.01,-9.02,-8.86,-8.68,8.72,8.72,8.72
26.69,17.76,9.04,17.76,9.04,-9.04,-8.88,-8.88,8.72,8.72,8.72
26.96,17.78,9.06,17.78,9.06,-9.06,-8.89,-9.08,8.72,8.72,8.72
27.23,17.80,9.08,17.80,9.08,-9.07,-8.91,-9.27,8.72,8.72,8.72
27.50,17.82,9.10,17.81,9.09,-9.09,-8.93,-9.47,8.73,8.72,8.72
27.77,17.83,9.10,17.83,9.11,-9.11,-8.94,-9.66,8.72,8.72,8.73
28.05,17.85,9.13,17.85,9.12,-9.12,-8.96,-9.84,8.73,8.73,8.72
28.33,17.87,9.14,17.87,9.14,-9.14,-8.98,-10.02,8.73,8.73,8.73
28.62,17.89,9.16,17.89,9.15,-9.15,-9.00,-10.19,8.74,8.73,8.73
28.90,17.90,9.16,17.90,9.16,-9.17,-9.02,-10.35,8.73,8.73,8.74
29.19,17.92,9.18,17.92,9.18,-9.18,-9.04,-10.51,8.73,8.73,8.74
29.48,17.93,9.20,17.93,9.19,-9.20,-9.06,-10.65,8.73,8.73,8.73
29.78,17.95,9.22,17.95,9.22,-9.21,-9.08,-10.78,8.73,8.73,8.73
30.08,17.96,9.23,17.96,9.23,-9.23,-9.10,-10.89,8.73,8.73,8.73
30.38,17.97,9.26,17.97,9.25,-9.25,-9.11,-11.00,8.72,8.72,8.71
30.68,17.98,9.27,17.98,9.27,-9.26,-9.14,-11.08,8.71,8.71,8.71
30.99,17.99,9.28,17.99,9.28,-9.28,-9.16,-11.15,8.71,8.71,8.71
31.30,18.00,9.29,18.00,9.29,-9.30,-9.18,-11.20,8.70,8.70,8.71
31.61,18.01,9.31,18.01,9.31,-9.31,-9.20,-11.25,8.69,8.70,8.70
31.93,18.03,9.35,18.02,9.33,-9.33,-9.22,-11.26,8.70,8.69,8.68
32.24,18.03,9.34,18.03,9.35,-9.35,-9.24,-11.27,8.68,8.69,8.69
32.57,18.04,9.37,18.04,9.36,-9.36,-9.26,-11.26,8.68,8.68,8.67
32.89,18.05,9.38,18.04,9.37,-9.38,-9.28,-11.24,8.67,8.67,8.67
33.22,18.05,9.39,18.05,9.39,-9.39,-9.31,-11.21,8.66,8.66,8.66
33.55,18.06,9.40,18.06,9.40,-9.40,-9.33,-11.16,8.65,8.65,8.66
33.89,18.07,9.42,18.06,9.42,-9.42,-9.35,-11.10,8.65,8.65,8.65
34.23,18.07,9.44,18.07,9.43,-9.43,-9.37,-11.04,8.64,8.64,8.63
34.57,18.07,9.44,18.07,9.44,-9.44,-9.40,-10.97,8.63,8.63,8.63
34.92,18.07,9.46,18.07,9.45,-9.45,-9.42,-10.89,8.62,8.62,8.61
35.27,18.07,9.44,18.07,9.45,-9.46,-9.45,-10.80,8.61,8.61,8.63
35.62,18.08,9.48,18.07,9.47,-9.47,-9.47,-10.72,8.61,8.60,8.60
35.97,18.08,9.48,18.08,9.48,-9.49,-9.49,-10.63,8.59,8.59,8.60
36.33,18.08,9.50,18.08,9.50,-9.50,-9.52,-10.54,8.58,8.58,8.58
36.70,18.08,9.52,18.08,9.52,-9.52,-9.54,-10.45,8.56,8.56,8.56
37.06,18.08,9.54,18.08,9.54,-9.54,-9.57,-10.36,8.54,8.54,8.54
37.43,18.08,9.56,18.08,9.56,-9.56,-9.59,-10.27,8.52,8.53,8.52
37.81,18.09,9.58,18.08,9.58,-9.58,-9.62,-10.18,8.51,8.51,8.51
38.19,18.09,9.61,18.08,9.60,-9.60,-9.64,-10.10,8.49,8.49,8.48
38.57,18.08,9.62,18.08,9.62,-9.62,-9.67,-10.02,8.46,8.47,8.46
38.95,18.08,9.63,18.08,9.64,-9.64,-9.70,-9.94,8.44,8.44,8.45
39.34,18.08,9.66,18.07,9.65,-9.66,-9.72,-9.87,8.42,8.42,8.42
39.74,18.07,9.68,18.07,9.67,-9.68,-9.75,-9.81,8.39,8.39,8.39
40.14,18.07,9.70,18.06,9.70,-9.69,-9.78,-9.75,8.37,8.37,8.37
40.54,18.06,9.71,18.06,9.71,-9.71,-9.80,-9.69,8.35,8.35,8.35
40.94,18.06,9.74,18.06,9.73,-9.73,-9.83,-9.64,8.33,8.33,8.32
41.35,18.06,9.75,18.05,9.75,-9.75,-9.86,-9.60,8.31,8.31,8.31
41.76,18.05,9.77,18.05,9.76,-9.76,-9.88,-9.56,8.29,8.29,8.28
42.18,18.04,9.77,18.04,9.77,-9.78,-9.91,-9.53,8.26,8.26,8.27
42.60,18.03,9.79,18.03,9.79,-9.79,-9.94,-9.51,8.24,8.24,8.24
43.03,18.02,9.80,18.02,9.80,-9.81,-9.97,-9.49,8.21,8.21,8.22
43.46,18.01,9.83,18.01,9.82,-9.82,-10.00,-9.48,8.19,8.19,8.18
43.90,18.00,9.84,18.00,9.84,-9.83,-10.02,-9.48,8.16,8.16,8.16
44.33,17.99,9.86,17.99,9.85,-9.85,-10.05,-9.48,8.14,8.14,8.13
44.78,17.98,9.87,17.97,9.86,-9.86,-10.08,-9.50,8.11,8.11,8.11
45.23,17.96,9.87,17.96,9.88,-9.88,-10.11,-9.51,8.08,8.08,8.09
45.68,17.94,9.90,17.94,9.89,-9.90,-10.14,-9.54,8.04,8.04,8.04
46.13,17.93,9.92,17.92,9.92,-9.92,-10.17,-9.57,8.01,8.01,8.01
46.60,17.91,9.94,17.91,9.94,-9.94,-10.19,-9.60,7.97,7.97,7.97
47.06,17.90,9.96,17.89,9.96,-9.96,-10.22,-9.65,7.94,7.94,7.94
47.53,17.88,9.98,17.88,9.98,-9.98,-10.25,-9.70,7.89,7.89,7.90
48.01,17.86,10.01,17.86,10.01,-10.01,-10.28,-9.75,7.85,7.85,7.85
48.49,17.85,10.04,17.84,10.04,-10.04,-10.31,-9.82,7.81,7.81,7.81
48.97,17.83,10.07,17.83,10.07,-10.06,-10.34,-9.88,7.76,7.77,7.76
49.46,17.82,10.09,17.82,10.09,-10.09,-10.37,-9.96,7.73,7.73,7.73
49.96,17.80,10.13,17.80,10.12,-10.12,-10.40,-10.04,7.68,7.68,7.67
50.46,17.79,10.15,17.78,10.15,-10.14,-10.42,-10.12,7.64,7.64,7.64
50.96,17.77,10.17,17.77,10.17,-10.17,-10.45,-10.21,7.60,7.60,7.60
51.47,17.76,10.20,17.76,10.20,-10.20,-10.48,-10.30,7.56,7.56,7.56
51.99,17.75,10.24,17.75,10.23,-10.23,-10.51,-10.40,7.52,7.52,7.51
52.51,17.74,10.26,17.74,10.26,-10.26,-10.54,-10.50,7.47,7.48,7.48
53.03,17.74,10.29,17.73,10.29,-10.30,-10.56,-10.60,7.44,7.44,7.45
53.56,17.73,10.33,17.73,10.33,-10.33,-10.59,-10.70,7.40,7.40,7.40
54.10,17.73,10.38,17.73,10.37,-10.37,-10.62,-10.80,7.36,7.36,7.35
54.64,17.72,10.41,17.72,10.41,-10.41,-10.65,-10.91,7.31,7.31,7.31
55.18,17.72,10.45,17.71,10.45,-10.45,-10.67,-11.01,7.27,7.27,7.27
55.74,17.71,10.49,17.71,10.48,-10.48,-10.70,-11.11,7.23,7.23,7.22
56.29,17.71,10.51,17.71,10.52,-10.52,-10.73,-11.20,7.19,7.19,7.20
56.86,17.71,10.55,17.71,10.55,-10.55,-10.75,-11.30,7.16,7.16,7.16
57.42,17.71,10.60,17.70,10.59,-10.58,-10.78,-11.38,7.13,7.12,7.11
58.00,17.70,10.63,17.70,10.62,-10.61,-10.80,-11.47,7.09,7.09,7.07
58.58,17.68,10.64,17.68,10.64,-10.64,-10.83,-11.54,7.04,7.04,7.04
59.16,17.67,10.66,17.66,10.66,-10.67,-10.85,-11.61,6.99,6.99,7.01
59.76,17.65,10.69,17.65,10.69,-10.71,-10.88,-11.66,6.94,6.94,6.96
60.35,17.64,10.73,17.64,10.73,-10.74,-10.90,-11.71,6.90,6.90,6.91
60.96,17.63,10.78,17.62,10.77,-10.78,-10.93,-11.74,6.85,6.85,6.85
61.57,17.61,10.82,17.61,10.82,-10.81,-10.95,-11.77,6.80,6.80,6.79
62.18,17.59,10.86,17.58,10.86,-10.84,-10.97,-11.78,6.74,6.74,6.73
62.80,17.56,10.89,17.56,10.89,-10.88,-10.99,-11.78,6.68,6.68,6.67
63.43,17.53,10.91,17.53,10.91,-10.90,-11.01,-11.76,6.62,6.63,6.62
64.07,17.51,10.94,17.50,10.93,-10.93,-11.03,-11.74,6.58,6.57,6.57
64.71,17.47,10.95,17.47,10.95,-10.95,-11.05,-11.70,6.52,6.51,6.52
65.35,17.43,10.97,17.43,10.97,-10.97,-11.07,-11.65,6.45,6.46,6.46
66.01,17.40,10.99,17.40,10.98,-10.99,-11.09,-11.59,6.40,6.40,6.41
66.67,17.37,11.00,17.37,11.01,-11.01,-11.11,-11.53,6.35,6.36,6.37
67.33,17.35,11.05,17.35,11.04,-11.04,-11.12,-11.45,6.31,6.31,6.30
68.01,17.32,11.07,17.32,11.06,-11.06,-11.14,-11.37,6.26,6.26,6.25
68.69,17.29,11.09,17.29,11.09,-11.09,-11.15,-11.28,6.20,6.20,6.20
69.37,17.25,11.10,17.25,11.11,-11.11,-11.17,-11.18,6.13,6.14,6.15
70.07,17.23,11.14,17.22,11.14,-11.14,-11.18,-11.08,6.09,6.08,6.09
70.77,17.20,11.18,17.20,11.17,-11.17,-11.19,-10.98,6.03,6.03,6.02
71.48,17.17,11.20,17.17,11.20,-11.20,-11.21,-10.88,5.97,5.97,5.97
72.19,17.14,11.23,17.13,11.23,-11.23,-11.22,-10.77,5.91,5.91,5.91
72.91,17.10,11.26,17.10,11.25,-11.25,-11.23,-10.67,5.84,5.85,5.84
73.64,17.07,11.28,17.07,11.28,-11.28,-11.23,-10.56,5.79,5.79,5.79
74.38,17.04,11.31,17.04,11.31,-11.30,-11.24,-10.46,5.74,5.74,5.73
75.12,17.01,11.33,17.01,11.33,-11.32,-11.25,-10.36,5.68,5.68,5.68
75.87,16.98,11.35,16.97,11.35,-11.35,-11.25,-10.26,5.63,5.63,5.63
76.63,16.94,11.37,16.94,11.36,-11.37,-11.26,-10.17,5.57,5.57,5.57
77.40,16.90,11.37,16.90,11.38,-11.38,-11.26,-10.08,5.51,5.52,5.53
78.17,16.87,11.40,16.87,11.40,-11.40,-11.26,-9.99,5.47,5.47,5.47
78.95,16.85,11.42,16.84,11.41,-11.42,-11.26,-9.91,5.43,5.43,5.43
79.74,16.82,11.44,16.82,11.44,-11.43,-11.26,-9.83,5.39,5.39,5.38
80.54,16.78,11.45,16.78,11.45,-11.44,-11.26,-9.76,5.34,5.34,5.33
81.35,16.74,11.47,16.74,11.46,-11.45,-11.26,-9.70,5.29,5.29,5.27
82.16,16.69,11.45,16.69,11.46,-11.46,-11.25,-9.64,5.23,5.23,5.24
82.98,16.64,11.46,16.64,11.46,-11.46,-11.25,-9.58,5.18,5.18,5.18
83.81,16.59,11.46,16.59,11.46,-11.46,-11.24,-9.54,5.12,5.12,5.13
84.65,16.53,11.46,16.53,11.46,-11.46,-11.23,-9.50,5.06,5.07,5.07
85.50,16.48,11.47,16.48,11.46,-11.46,-11.22,-9.47,5.02,5.02,5.01
86.35,16.42,11.46,16.42,11.46,-11.46,-11.21,-9.44,4.96,4.96,4.96
87.22,16.36,11.45,16.36,11.45,-11.45,-11.20,-9.42,4.91,4.91,4.91
88.09,16.30,11.45,16.29,11.44,-11.44,-11.19,-9.40,4.86,4.85,4.85
88.97,16.23,11.44,16.23,11.43,-11.43,-11.17,-9.40,4.80,4.80,4.79
89.86,16.15,11.41,16.15,11.42,-11.41,-11.16,-9.40,4.73,4.74,4.74
90.76,16.08,11.40,16.07,11.40,-11.40,-11.14,-9.41,4.68,4.68,4.68
91.66,16.00,11.39,16.00,11.38,-11.38,-11.12,-9.42,4.61,4.61,4.61
92.58,15.92,11.36,15.92,11.36,-11.37,-11.10,-9.44,4.55,4.56,4.56
93.51,15.85,11.34,15.85,11.34,-11.35,-11.08,-9.46,4.50,4.50,4.51
94.44,15.78,11.33,15.77,11.33,-11.33,-11.05,-9.50,4.44,4.44,4.45
95.39,15.70,11.32,15.70,11.31,-11.31,-11.03,-9.54,4.39,4.38,4.38
96.34,15.61,11.30,15.61,11.30,-11.29,-11.00,-9.58,4.32,4.32,4.31
97.30,15.52,11.27,15.52,11.27,-11.26,-10.97,-9.63,4.26,4.26,4.25
98.28,15.43,11.25,15.43,11.25,-11.23,-10.94,-9.69,4.19,4.20,4.18
99.26,15.34,11.22,15.33,11.21,-11.21,-10.91,-9.75,4.13,4.12,4.12
100.25,15.23,11.17,15.22,11.16,-11.18,-10.88,-9.82,4.05,4.05,4.06
101.25,15.12,11.11,15.13,11.12,-11.15,-10.84,-9.89,3.97,3.98,4.01
102.27,15.04,11.09,15.05,11.10,-11.12,-10.81,-9.97,3.92,3.93,3.95
103.29,14.99,11.10,14.98,11.08,-11.08,-10.77,-10.05,3.90,3.89,3.89
104.32,14.92,11.08,14.90,11.06,-11.05,-10.73,-10.13,3.87,3.85,3.84
105.37,14.80,11.02,14.81,11.03,-11.01,-10.69,-10.21,3.79,3.80,3.78
106.42,14.70,10.97,14.70,10.97,-10.96,-10.65,-10.30,3.74,3.74,3.73
107.48,14.59,10.92,14.58,10.91,-10.90,-10.60,-10.39,3.69,3.68,3.67
108.56,14.46,10.84,14.46,10.84,-10.84,-10.56,-10.48,3.62,3.62,3.62
109.64,14.33,10.77,14.33,10.77,-10.77,-10.51,-10.56,3.56,3.56,3.56
110.74,14.20,10.70,14.19,10.69,-10.70,-10.46,-10.65,3.50,3.50,3.50
111.85,14.06,10.62,14.06,10.61,-10.63,-10.41,-10.73,3.43,3.43,3.44
112.97,13.92,10.53,13.92,10.53,-10.56,-10.36,-10.80,3.36,3.36,3.39
114.10,13.79,10.46,13.79,10.47,-10.50,-10.31,-10.88,3.29,3.30,3.33
115.24,13.67,10.42,13.68,10.43,-10.43,-10.25,-10.94,3.24,3.25,3.25
116.39,13.59,10.40,13.58,10.39,-10.36,-10.20,-11.00,3.23,3.22,3.19
117.55,13.48,10.35,13.46,10.34,-10.29,-10.14,-11.05,3.19,3.17,3.13
118.73,13.33,10.26,13.32,10.24,-10.22,-10.08,-11.09,3.11,3.10,3.07
119.92,13.16,10.13,13.16,10.14,-10.15,-10.02,-11.11,3.01,3.01,3.03
121.12,13.00,10.02,13.03,10.05,-10.08,-9.96,-11.13,2.92,2.95,2.98
122.33,12.92,10.00,12.91,9.98,-10.00,-9.90,-11.12,2.92,2.91,2.92
123.55,12.81,9.94,12.78,9.91,-9.92,-9.83,-11.12,2.89,2.86,2.87
124.79,12.65,9.83,12.66,9.84,-9.84,-9.77,-11.08,2.81,2.82,2.82
126.03,12.50,9.74,12.53,9.76,-9.76,-9.70,-11.05,2.74,2.76,2.76
127.29,12.41,9.70,12.40,9.69,-9.68,-9.63,-10.99,2.72,2.71,2.71
128.57,12.29,9.65,12.26,9.62,-9.60,-9.56,-10.92,2.68,2.66,2.64
129.85,12.12,9.53,12.12,9.53,-9.52,-9.49,-10.84,2.60,2.60,2.59
131.15,11.94,9.41,11.97,9.44,-9.43,-9.42,-10.75,2.50,2.54,2.53
132.46,11.84,9.36,11.81,9.34,-9.35,-9.35,-10.63,2.49,2.47,2.48
133.79,11.69,9.27,11.67,9.25,-9.26,-9.28,-10.52,2.43,2.41,2.42
135.12,11.50,9.13,11.53,9.16,-9.17,-9.20,-10.39,2.33,2.36,2.37
136.48,11.40,9.08,11.38,9.07,-9.08,-9.12,-10.25,2.32,2.31,2.32
137.84,11.25,8.98,11.27,9.00,-8.99,-9.05,-10.11,2.26,2.28,2.27
139.22,11.15,8.94,11.13,8.92,-8.89,-8.97,-9.96,2.25,2.24,2.21
140.61,11.01,8.84,10.98,8.82,-8.80,-8.89,-9.80,2.21,2.18,2.17
142.02,10.79,8.68,10.83,8.71,-8.71,-8.81,-9.64,2.08,2.12,2.11
143.44,10.69,8.62,10.68,8.60,-8.62,-8.73,-9.47,2.07,2.06,2.07
144.87,10.53,8.50,10.53,8.51,-8.53,-8.65,-9.31,2.00,2.01,2.03
146.32,10.42,8.44,10.41,8.43,-8.43,-8.57,-9.14,1.99,1.98,1.98
147.78,10.26,8.32,10.27,8.33,-8.34,-8.49,-8.97,1.92,1.93,1.94
149.26,10.15,8.26,10.14,8.25,-8.24,-8.40,-8.81,1.91,1.90,1.89
150.75,10.00,8.15,10.00,8.15,-8.14,-8.32,-8.64,1.86,1.86,1.85
152.26,9.88,8.07,9.87,8.06,-8.04,-8.24,-8.48,1.84,1.82,1.81
153.78,9.70,7.93,9.71,7.94,-7.94,-8.15,-8.31,1.76,1.78,1.77
155.32,9.58,7.85,9.57,7.84,-7.83,-8.07,-8.15,1.74,1.73,1.73
156.88,9.40,7.72,9.40,7.72,-7.73,-7.98,-8.00,1.67,1.67,1.68
158.44,9.26,7.63,9.24,7.61,-7.62,-7.90,-7.84,1.64,1.62,1.63
160.03,9.07,7.48,9.10,7.51,-7.52,-7.81,-7.69,1.55,1.58,1.59
161.63,8.96,7.41,8.96,7.41,-7.42,-7.73,-7.55,1.54,1.54,1.55
163.24,8.85,7.35,8.82,7.32,-7.32,-7.64,-7.41,1.53,1.50,1.50
164.88,8.67,7.22,8.69,7.24,-7.22,-7.56,-7.27,1.44,1.47,1.45
166.53,8.54,7.14,8.55,7.14,-7.13,-7.47,-7.14,1.41,1.42,1.40
168.19,8.43,7.06,8.40,7.04,-7.04,-7.39,-7.01,1.39,1.36,1.37
169.87,8.26,6.95,8.27,6.96,-6.96,-7.30,-6.89,1.30,1.32,1.31
171.57,8.13,6.87,8.14,6.87,-6.87,-7.21,-6.77,1.25,1.26,1.26
173.29,8.02,6.80,8.00,6.78,-6.79,-7.13,-6.65,1.23,1.21,1.22
175.02,7.87,6.70,7.88,6.71,-6.71,-7.04,-6.55,1.15,1.16,1.17
176.77,7.75,6.63,7.76,6.63,-6.64,-6.96,-6.44,1.11,1.12,1.12
178.54,7.65,6.57,7.64,6.57,-6.56,-6.87,-6.34,1.08,1.08,1.08
180.32,7.54,6.52,7.54,6.51,-6.49,-6.79,-6.24,1.04,1.04,1.02
182.13,7.44,6.45,7.42,6.44,-6.43,-6.70,-6.16,1.01,1.00,0.99
183.95,7.30,6.36,7.31,6.37,-6.36,-6.62,-6.07,0.93,0.94,0.94
185.79,7.19,6.30,7.19,6.30,-6.31,-6.54,-5.99,0.88,0.89,0.89
187.65,7.09,6.24,7.09,6.24,-6.25,-6.45,-5.91,0.83,0.84,0.85
189.52,7.01,6.20,7.00,6.19,-6.21,-6.37,-5.83,0.80,0.80,0.81
191.42,6.93,6.16,6.92,6.15,-6.16,-6.29,-5.76,0.77,0.76,0.77
193.33,6.84,6.11,6.84,6.12,-6.12,-6.20,-5.70,0.72,0.72,0.73
195.27,6.77,6.09,6.77,6.09,-6.08,-6.12,-5.64,0.68,0.68,0.68
197.22,6.70,6.07,6.70,6.06,-6.05,-6.04,-5.58,0.65,0.65,0.63
199.19,6.63,6.03,6.62,6.03,-6.02,-5.96,-5.52,0.61,0.61,0.60
201.18,6.55,5.99,6.55,5.99,-5.98,-5.88,-5.47,0.57,0.57,0.56
203.19,6.47,5.94,6.47,5.94,-5.94,-5.80,-5.42,0.53,0.53,0.53
205.23,6.40,5.89,6.40,5.89,-5.90,-5.72,-5.38,0.50,0.50,0.51
207.28,6.33,5.85,6.33,5.85,-5.85,-5.64,-5.33,0.47,0.47,0.48
209.35,6.26,5.82,6.26,5.81,-5.81,-5.56,-5.29,0.45,0.45,0.44
211.44,6.18,5.77,6.18,5.77,-5.76,-5.49,-5.25,0.41,0.42,0.41
213.56,6.11,5.72,6.10,5.71,-5.72,-5.41,-5.21,0.39,0.38,0.39
215.69,6.02,5.66,6.02,5.66,-5.67,-5.33,-5.18,0.35,0.35,0.36
217.85,5.93,5.60,5.94,5.61,-5.61,-5.26,-5.14,0.32,0.33,0.33
220.03,5.87,5.57,5.86,5.56,-5.56,-5.18,-5.11,0.31,0.31,0.30
222.23,5.79,5.52,5.78,5.51,-5.50,-5.11,-5.07,0.29,0.29,0.27
224.45,5.70,5.44,5.69,5.44,-5.43,-5.03,-5.04,0.26,0.26,0.26
226.70,5.60,5.37,5.60,5.36,-5.37,-4.96,-5.01,0.23,0.23,0.23
228.96,5.50,5.28,5.51,5.30,-5.30,-4.89,-4.97,0.19,0.21,0.22
231.25,5.44,5.24,5.43,5.23,-5.24,-4.82,-4.94,0.20,0.19,0.20
233.57,5.36,5.18,5.34,5.16,-5.17,-4.75,-4.90,0.19,0.18,0.18
235.90,5.24,5.07,5.26,5.09,-5.09,-4.68,-4.86,0.14,0.16,0.17
238.26,5.18,5.04,5.17,5.02,-5.02,-4.61,-4.82,0.16,0.16,0.14
240.64,5.09,4.94,5.09,4.95,-4.94,-4.54,-4.78,0.15,0.15,0.15
243.05,5.02,4.89,5.00,4.87,-4.86,-4.47,-4.74,0.16,0.14,0.13
245.48,4.91,4.79,4.90,4.78,-4.78,-4.40,-4.69,0.13,0.13,0.12
247.93,4.78,4.67,4.80,4.69,-4.69,-4.33,-4.65,0.09,0.11,0.11
250.41,4.72,4.60,4.70,4.59,-4.61,-4.27,-4.60,0.11,0.10,0.12
252.92,4.62,4.51,4.62,4.51,-4.52,-4.20,-4.55,0.10,0.10,0.11
255.45,4.54,4.44,4.54,4.44,-4.43,-4.13,-4.49,0.10,0.11,0.10
258.00,4.46,4.36,4.45,4.35,-4.35,-4.07,-4.43,0.11,0.11,0.10
260.58,4.37,4.27,4.37,4.27,-4.27,-4.01,-4.37,0.10,0.11,0.10
263.19,4.29,4.19,4.28,4.19,-4.19,-3.94,-4.31,0.10,0.10,0.10
265.82,4.20,4.11,4.20,4.11,-4.11,-3.88,-4.25,0.09,0.09,0.09
268.48,4.12,4.03,4.12,4.03,-4.04,-3.82,-4.18,0.08,0.08,0.09
271.16,4.06,3.97,4.05,3.96,-3.96,-3.76,-4.11,0.09,0.08,0.09
273.87,3.97,3.88,3.98,3.89,-3.89,-3.70,-4.05,0.08,0.08,0.09
276.61,3.91,3.82,3.91,3.82,-3.82,-3.64,-3.97,0.09,0.09,0.09
279.38,3.84,3.77,3.84,3.76,-3.75,-3.58,-3.90,0.09,0.09,0.07
282.17,3.77,3.70,3.77,3.69,-3.68,-3.52,-3.83,0.09,0.09,0.07
284.99,3.70,3.62,3.69,3.61,-3.61,-3.46,-3.76,0.09,0.08,0.08
287.84,3.61,3.52,3.62,3.54,-3.54,-3.40,-3.68,0.07,0.08,0.09
290.72,3.55,3.47,3.55,3.46,-3.47,-3.35,-3.61,0.08,0.08,0.08
293.63,3.50,3.41,3.49,3.40,-3.40,-3.29,-3.53,0.10,0.09,0.09
296.57,3.43,3.33,3.43,3.33,-3.33,-3.24,-3.46,0.10,0.10,0.10
299.53,3.37,3.27,3.37,3.26,-3.26,-3.18,-3.38,0.11,0.11,0.10
302.53,3.31,3.19,3.31,3.20,-3.19,-3.13,-3.31,0.11,0.11,0.12
305.55,3.25,3.14,3.24,3.13,-3.13,-3.07,-3.24,0.12,0.11,0.11
308.61,3.18,3.06,3.18,3.06,-3.07,-3.02,-3.16,0.11,0.11,0.12
311.69,3.12,2.99,3.13,3.00,-3.00,-2.97,-3.09,0.11,0.12,0.13
314.81,3.08,2.95,3.08,2.94,-2.94,-2.92,-3.02,0.14,0.14,0.13
317.96,3.04,2.90,3.03,2.89,-2.88,-2.87,-2.95,0.16,0.15,0.14
321.14,2.98,2.83,2.98,2.83,-2.82,-2.81,-2.89,0.16,0.16,0.15
324.35,2.92,2.77,2.92,2.76,-2.76,-2.76,-2.82,0.15,0.16,0.15
327.59,2.87,2.69,2.87,2.70,-2.71,-2.71,-2.75,0.16,0.16,0.18
330.87,2.82,2.65,2.82,2.64,-2.65,-2.67,-2.69,0.17,0.17,0.17
334.18,2.77,2.59,2.77,2.59,-2.59,-2.62,-2.63,0.17,0.18,0.18
337.52,2.73,2.55,2.73,2.54,-2.54,-2.57,-2.57,0.19,0.19,0.18
340.90,2.69,2.49,2.68,2.49,-2.48,-2.52,-2.51,0.20,0.20,0.20
344.30,2.64,2.43,2.64,2.44,-2.43,-2.48,-2.45,0.20,0.21,0.21
347.75,2.60,2.39,2.59,2.38,-2.38,-2.43,-2.40,0.22,0.21,0.21
351.23,2.55,2.34,2.55,2.33,-2.33,-2.38,-2.34,0.22,0.22,0.21
354.74,2.51,2.27,2.51,2.28,-2.28,-2.34,-2.29,0.23,0.23,0.24
358.28,2.47,2.24,2.46,2.23,-2.23,-2.29,-2.24,0.24,0.23,0.23
361.87,2.42,2.18,2.42,2.18,-2.18,-2.25,-2.19,0.24,0.24,0.24
365.49,2.38,2.13,2.38,2.13,-2.13,-2.21,-2.14,0.24,0.25,0.25
369.14,2.35,2.08,2.34,2.08,-2.09,-2.16,-2.10,0.26,0.26,0.27
372.83,2.31,2.04,2.31,2.04,-2.04,-2.12,-2.05,0.27,0.27,0.27
376.56,2.27,2.00,2.27,1.99,-1.99,-2.08,-2.01,0.28,0.28,0.27
380.33,2.23,1.95,2.23,1.95,-1.94,-2.03,-1.97,0.29,0.29,0.28
384.13,2.19,1.89,2.18,1.89,-1.88,-1.99,-1.93,0.31,0.30,0.30
387.97,2.14,1.84,2.14,1.83,-1.83,-1.95,-1.89,0.31,0.31,0.30
391.85,2.09,1.78,2.09,1.78,-1.78,-1.91,-1.85,0.31,0.31,0.31
395.77,2.04,1.72,2.04,1.72,-1.72,-1.87,-1.82,0.31,0.31,0.32
399.73,2.00,1.67,2.00,1.66,-1.67,-1.83,-1.78,0.33,0.32,0.33
403.72,1.96,1.60,1.96,1.62,-1.62,-1.79,-1.75,0.33,0.34,0.36
407.76,1.94,1.59,1.94,1.58,-1.58,-1.75,-1.71,0.36,0.36,0.35
411.84,1.92,1.56,1.91,1.55,-1.54,-1.71,-1.68,0.38,0.37,0.36
415.96,1.89,1.51,1.89,1.52,-1.51,-1.67,-1.65,0.38,0.38,0.38
420.12,1.86,1.48,1.86,1.48,-1.48,-1.64,-1.62,0.38,0.38,0.38
424.32,1.84,1.45,1.84,1.45,-1.46,-1.60,-1.59,0.38,0.38,0.39
428.56,1.84,1.43,1.84,1.43,-1.44,-1.56,-1.56,0.39,0.39,0.41
432.85,1.84,1.42,1.83,1.42,-1.43,-1.52,-1.54,0.41,0.40,0.42
437.18,1.83,1.42,1.83,1.42,-1.41,-1.49,-1.51,0.41,0.42,0.41
441.55,1.83,1.41,1.83,1.41,-1.40,-1.45,-1.48,0.43,0.43,0.42
445.96,1.83,1.40,1.82,1.39,-1.38,-1.42,-1.45,0.45,0.45,0.43
450.42,1.81,1.37,1.81,1.37,-1.35,-1.38,-1.43,0.45,0.45,0.44
454.93,1.79,1.34,1.78,1.33,-1.32,-1.34,-1.40,0.46,0.46,0.45
459.48,1.75,1.29,1.76,1.29,-1.29,-1.31,-1.37,0.46,0.47,0.46
464.07,1.73,1.25,1.72,1.24,-1.25,-1.27,-1.34,0.48,0.47,0.48
468.71,1.69,1.20,1.69,1.20,-1.21,-1.24,-1.32,0.48,0.48,0.49
