frequency,raw,error,smoothed,error_smoothed,equalization,parametric_eq,fixed_band_eq,equalized_raw,equalized_smoothed,target
20.00,-0.90,-4.62,-0.89,-4.63,4.63,3.21,1.08,3.73,3.74,3.72
20.20,-0.73,-4.49,-0.72,-4.49,4.49,3.12,1.11,3.76,3.77,3.76
20.40,-0.56,-4.35,-0.56,-4.36,4.36,3.02,1.14,3.79,3.80,3.79
20.61,-0.40,-4.22,-0.40,-4.22,4.22,2.93,1.18,3.83,3.82,3.82
20.81,-0.21,-4.07,-0.24,-4.09,4.09,2.85,1.21,3.88,3.85,3.86
21.02,-0.05,-3.95,-0.09,-3.97,3.97,2.77,1.25,3.91,3.87,3.90
21.23,0.07,-3.84,0.05,-3.84,3.84,2.70,1.28,3.91,3.89,3.91
21.44,0.18,-3.75,0.19,-3.72,3.72,2.63,1.32,3.90,3.91,3.93
21.66,0.29,-3.65,0.33,-3.60,3.60,2.56,1.36,3.90,3.93,3.95
21.87,0.41,-3.55,0.46,-3.49,3.49,2.50,1.40,3.90,3.95,3.96
22.09,0.54,-3.44,0.59,-3.38,3.38,2.45,1.44,3.92,3.97,3.98
22.31,0.69,-3.29,0.71,-3.27,3.27,2.39,1.49,3.96,3.98,3.98
22.54,0.83,-3.15,0.82,-3.17,3.17,2.34,1.53,4.00,3.99,3.98
22.76,0.99,-3.01,0.93,-3.07,3.07,2.30,1.58,4.05,4.00,3.99
22.99,1.14,-2.86,1.04,-2.97,2.97,2.26,1.62,4.10,4.01,3.99
23.22,1.20,-2.81,1.15,-2.87,2.87,2.22,1.67,4.06,4.01,4.00
23.45,1.26,-2.76,1.25,-2.77,2.77,2.19,1.72,4.03,4.02,4.01
23.69,1.31,-2.72,1.34,-2.68,2.68,2.15,1.77,3.98,4.02,4.02
23.92,1.36,-2.67,1.43,-2.59,2.59,2.13,1.82,3.95,4.03,4.03
24.16,1.45,-2.59,1.52,-2.51,2.51,2.10,1.87,3.96,4.03,4.04
24.40,1.56,-2.49,1.59,-2.44,2.44,2.08,1.92,4.00,4.03,4.05
24.65,1.67,-2.37,1.66,-2.37,2.37,2.06,1.97,4.04,4.03,4.04
24.89,1.78,-2.26,1.72,-2.32,2.32,2.04,2.02,4.09,4.04,4.04
25.14,1.84,-2.20,1.78,-2.26,2.26,2.02,2.08,4.10,4.04,4.04
25.39,1.87,-2.17,1.83,-2.21,2.21,2.01,2.13,4.08,4.04,4.03
25.65,1.89,-2.15,1.88,-2.16,2.16,1.99,2.18,4.05,4.04,4.03
25.91,1.91,-2.12,1.92,-2.11,2.11,1.98,2.24,4.02,4.03,4.02
26.16,1.94,-2.09,1.96,-2.07,2.07,1.97,2.29,4.01,4.03,4.03
26.43,1.98,-2.05,1.99,-2.04,2.04,1.96,2.35,4.01,4.03,4.03
26.69,2.02,-2.01,2.02,-2.01,2.01,1.96,2.40,4.02,4.03,4.03
26.96,2.05,-1.98,2.03,-1.99,1.99,1.95,2.45,4.04,4.02,4.03
27.23,2.06,-1.97,2.04,-1.98,1.98,1.95,2.50,4.03,4.02,4.03
27.50,2.06,-1.97,2.05,-1.97,1.97,1.94,2.55,4.03,4.02,4.02
27.77,2.06,-1.96,2.05,-1.96,1.96,1.94,2.60,4.02,4.02,4.01
28.05,2.06,-1.95,2.06,-1.95,1.95,1.94,2.64,4.01,4.01,4.01
28.33,2.06,-1.94,2.07,-1.94,1.94,1.94,2.69,4.00,4.01,4.00
28.62,2.06,-1.95,2.08,-1.93,1.93,1.94,2.73,3.98,4.01,4.01
28.90,2.06,-1.95,2.08,-1.92,1.92,1.94,2.77,3.98,4.01,4.01
29.19,2.06,-1.94,2.08,-1.93,1.93,1.94,2.80,3.98,4.00,3.99
29.48,2.06,-1.95,2.07,-1.93,1.93,1.94,2.83,3.99,4.00,4.00
29.78,2.06,-1.94,2.05,-1.94,1.94,1.95,2.86,4.00,3.99,4.00
30.08,2.06,-1.94,2.04,-1.95,1.95,1.95,2.89,4.01,3.99,4.00
30.38,2.06,-1.93,2.02,-1.97,1.97,1.95,2.91,4.02,3.98,3.99
30.68,2.06,-1.93,2.00,-1.98,1.98,1.96,2.93,4.03,3.98,3.98
30.99,2.06,-1.92,1.98,-1.99,1.99,1.96,2.94,4.05,3.97,3.97
31.30,1.99,-1.98,1.96,-2.01,2.01,1.96,2.95,4.00,3.97,3.97
31.61,1.92,-2.05,1.94,-2.02,2.02,1.97,2.96,3.94,3.96,3.97
31.93,1.85,-2.11,1.93,-2.03,2.03,1.97,2.96,3.88,3.96,3.95
32.24,1.83,-2.12,1.91,-2.04,2.04,1.98,2.96,3.87,3.95,3.94
32.57,1.84,-2.10,1.89,-2.05,2.05,1.98,2.95,3.89,3.95,3.94
32.89,1.85,-2.09,1.87,-2.07,2.07,1.99,2.94,3.91,3.94,3.94
33.22,1.85,-2.09,1.85,-2.09,2.09,2.00,2.93,3.93,3.93,3.93
33.55,1.84,-2.09,1.82,-2.10,2.10,2.00,2.92,3.94,3.93,3.93
33.89,1.83,-2.10,1.80,-2.12,2.12,2.01,2.90,3.95,3.92,3.93
34.23,1.83,-2.10,1.78,-2.14,2.14,2.01,2.88,3.96,3.92,3.92
34.57,1.83,-2.08,1.76,-2.15,2.15,2.02,2.86,3.98,3.91,3.91
34.92,1.83,-2.08,1.74,-2.16,2.16,2.02,2.83,3.99,3.91,3.91
35.27,1.77,-2.14,1.73,-2.17,2.17,2.03,2.80,3.93,3.90,3.90
35.62,1.69,-2.20,1.72,-2.17,2.17,2.04,2.78,3.86,3.89,3.89
35.97,1.62,-2.27,1.70,-2.18,2.18,2.04,2.75,3.80,3.89,3.88
36.33,1.61,-2.27,1.68,-2.20,2.20,2.05,2.72,3.80,3.88,3.88
36.70,1.61,-2.27,1.66,-2.21,2.21,2.05,2.69,3.82,3.87,3.88
37.06,1.61,-2.25,1.64,-2.23,2.23,2.06,2.65,3.83,3.86,3.86
37.43,1.61,-2.25,1.62,-2.24,2.24,2.07,2.62,3.84,3.86,3.86
37.81,1.61,-2.25,1.60,-2.25,2.25,2.07,2.59,3.86,3.85,3.85
38.19,1.61,-2.23,1.57,-2.27,2.27,2.08,2.56,3.88,3.84,3.84
38.57,1.61,-2.22,1.54,-2.29,2.29,2.08,2.53,3.90,3.83,3.83
38.95,1.61,-2.22,1.52,-2.31,2.31,2.09,2.50,3.91,3.83,3.83
39.34,1.53,-2.28,1.49,-2.32,2.32,2.10,2.47,3.85,3.82,3.81
39.74,1.44,-2.36,1.47,-2.34,2.34,2.10,2.45,3.78,3.81,3.79
40.14,1.38,-2.42,1.43,-2.37,2.37,2.11,2.42,3.75,3.80,3.80
40.54,1.38,-2.41,1.38,-2.41,2.41,2.11,2.40,3.78,3.79,3.79
40.94,1.38,-2.41,1.33,-2.44,2.44,2.12,2.37,3.82,3.77,3.78
41.35,1.30,-2.47,1.28,-2.48,2.48,2.12,2.35,3.77,3.76,3.77
41.76,1.20,-2.55,1.23,-2.50,2.50,2.13,2.33,3.70,3.74,3.75
42.18,1.15,-2.59,1.19,-2.53,2.53,2.14,2.31,3.68,3.72,3.73
42.60,1.15,-2.56,1.14,-2.56,2.56,2.14,2.29,3.70,3.69,3.70
43.03,1.14,-2.55,1.09,-2.58,2.58,2.15,2.28,3.72,3.67,3.69
43.46,1.04,-2.62,1.04,-2.60,2.60,2.15,2.27,3.64,3.64,3.66
43.90,0.94,-2.67,0.99,-2.62,2.62,2.16,2.25,3.55,3.61,3.61
44.33,0.92,-2.66,0.96,-2.63,2.63,2.16,2.24,3.54,3.58,3.58
44.78,0.92,-2.62,0.92,-2.63,2.63,2.17,2.24,3.55,3.55,3.54
45.23,0.91,-2.61,0.88,-2.64,2.64,2.18,2.23,3.55,3.53,3.51
45.68,0.88,-2.60,0.84,-2.66,2.66,2.18,2.23,3.53,3.50,3.48
46.13,0.84,-2.63,0.81,-2.67,2.67,2.19,2.22,3.50,3.48,3.46
46.60,0.76,-2.69,0.77,-2.68,2.68,2.19,2.22,3.44,3.46,3.45
47.06,0.69,-2.74,0.73,-2.70,2.70,2.20,2.22,3.39,3.44,3.43
47.53,0.69,-2.73,0.70,-2.73,2.73,2.20,2.23,3.41,3.42,3.42
48.01,0.69,-2.73,0.66,-2.75,2.75,2.21,2.23,3.44,3.41,3.41
48.49,0.69,-2.72,0.63,-2.77,2.77,2.22,2.24,3.46,3.40,3.40
48.97,0.69,-2.70,0.60,-2.80,2.80,2.22,2.24,3.48,3.40,3.39
49.46,0.59,-2.79,0.57,-2.82,2.82,2.23,2.25,3.41,3.39,3.38
49.96,0.48,-2.90,0.54,-2.84,2.84,2.23,2.26,3.32,3.39,3.37
50.46,0.47,-2.91,0.52,-2.86,2.86,2.24,2.27,3.33,3.38,3.38
50.96,0.47,-2.92,0.50,-2.87,2.87,2.24,2.28,3.33,3.37,3.38
51.47,0.47,-2.90,0.49,-2.87,2.87,2.24,2.29,3.33,3.35,3.37
51.99,0.47,-2.89,0.48,-2.86,2.86,2.25,2.31,3.33,3.34,3.35
52.51,0.47,-2.87,0.47,-2.85,2.85,2.25,2.32,3.31,3.31,3.33
53.03,0.47,-2.84,0.46,-2.83,2.83,2.26,2.33,3.29,3.29,3.31
53.56,0.47,-2.80,0.45,-2.80,2.80,2.26,2.34,3.27,3.25,3.27
54.10,0.47,-2.76,0.45,-2.77,2.77,2.26,2.36,3.23,3.21,3.22
54.64,0.47,-2.71,0.45,-2.72,2.72,2.26,2.37,3.19,3.17,3.17
55.18,0.47,-2.66,0.46,-2.66,2.66,2.26,2.38,3.13,3.12,3.12
55.74,0.47,-2.60,0.47,-2.60,2.60,2.26,2.39,3.07,3.07,3.06
56.29,0.47,-2.55,0.47,-2.55,2.55,2.26,2.40,3.01,3.01,3.01
56.86,0.47,-2.49,0.47,-2.48,2.48,2.26,2.40,2.95,2.95,2.95
57.42,0.47,-2.41,0.47,-2.42,2.42,2.26,2.41,2.89,2.89,2.88
58.00,0.47,-2.35,0.47,-2.36,2.36,2.26,2.41,2.82,2.82,2.82
58.58,0.47,-2.29,0.47,-2.29,2.29,2.26,2.41,2.76,2.76,2.75
59.16,0.47,-2.23,0.47,-2.22,2.22,2.25,2.41,2.69,2.69,2.70
59.76,0.47,-2.17,0.47,-2.16,2.16,2.25,2.41,2.62,2.62,2.63
60.35,0.47,-2.09,0.47,-2.09,2.09,2.24,2.40,2.56,2.56,2.56
60.96,0.47,-2.03,0.47,-2.03,2.03,2.23,2.39,2.49,2.49,2.50
61.57,0.47,-1.96,0.47,-1.96,1.96,2.22,2.38,2.43,2.43,2.42
62.18,0.47,-1.89,0.47,-1.90,1.90,2.21,2.36,2.37,2.37,2.35
62.80,0.47,-1.84,0.47,-1.84,1.84,2.20,2.35,2.31,2.31,2.30
63.43,0.47,-1.78,0.47,-1.79,1.79,2.19,2.32,2.25,2.25,2.24
64.07,0.47,-1.73,0.47,-1.73,1.73,2.17,2.30,2.20,2.20,2.19
64.71,0.47,-1.68,0.47,-1.68,1.68,2.15,2.27,2.15,2.15,2.14
65.35,0.47,-1.62,0.47,-1.63,1.63,2.14,2.24,2.10,2.10,2.09
66.01,0.47,-1.58,0.47,-1.58,1.58,2.12,2.20,2.05,2.05,2.05
66.67,0.47,-1.54,0.47,-1.54,1.54,2.09,2.17,2.01,2.01,2.00
67.33,0.47,-1.50,0.47,-1.50,1.50,2.07,2.13,1.97,1.97,1.97
68.01,0.47,-1.46,0.47,-1.46,1.46,2.04,2.08,1.93,1.93,1.93
68.69,0.47,-1.43,0.47,-1.43,1.43,2.02,2.04,1.89,1.89,1.89
69.37,0.47,-1.39,0.47,-1.39,1.39,1.99,1.99,1.85,1.85,1.85
70.07,0.47,-1.35,0.47,-1.35,1.35,1.96,1.94,1.81,1.82,1.81
70.77,0.47,-1.33,0.48,-1.30,1.30,1.93,1.89,1.77,1.78,1.79
71.48,0.47,-1.29,0.48,-1.26,1.26,1.89,1.84,1.73,1.74,1.75
72.19,0.47,-1.25,0.48,-1.23,1.23,1.86,1.79,1.69,1.71,1.72
72.91,0.47,-1.21,0.48,-1.20,1.20,1.82,1.74,1.66,1.67,1.68
73.64,0.47,-1.18,0.46,-1.17,1.17,1.78,1.68,1.64,1.64,1.64
74.38,0.47,-1.14,0.45,-1.15,1.15,1.74,1.62,1.61,1.60,1.61
75.12,0.47,-1.10,0.43,-1.13,1.13,1.69,1.57,1.59,1.56,1.56
75.87,0.47,-1.06,0.42,-1.11,1.11,1.65,1.51,1.58,1.53,1.52
76.63,0.47,-1.02,0.39,-1.10,1.10,1.60,1.45,1.56,1.49,1.49
77.40,0.44,-1.02,0.37,-1.09,1.09,1.56,1.40,1.52,1.46,1.46
78.17,0.37,-1.05,0.35,-1.08,1.08,1.51,1.34,1.44,1.43,1.42
78.95,0.25,-1.15,0.33,-1.07,1.07,1.46,1.28,1.32,1.40,1.40
79.74,0.24,-1.14,0.31,-1.07,1.07,1.40,1.22,1.30,1.37,1.37
80.54,0.24,-1.11,0.29,-1.06,1.06,1.35,1.17,1.30,1.35,1.34
81.35,0.24,-1.08,0.27,-1.06,1.06,1.30,1.11,1.30,1.33,1.32
82.16,0.24,-1.07,0.25,-1.06,1.06,1.24,1.05,1.30,1.31,1.30
82.98,0.24,-1.06,0.24,-1.06,1.06,1.19,1.00,1.30,1.30,1.30
83.81,0.24,-1.05,0.23,-1.06,1.06,1.13,0.94,1.29,1.29,1.28
84.65,0.24,-1.03,0.22,-1.05,1.05,1.07,0.89,1.29,1.27,1.26
85.50,0.24,-1.03,0.22,-1.05,1.05,1.01,0.83,1.28,1.27,1.27
86.35,0.24,-1.02,0.22,-1.04,1.04,0.95,0.78,1.27,1.26,1.26
87.22,0.24,-1.01,0.23,-1.02,1.02,0.89,0.73,1.26,1.25,1.25
88.09,0.24,-1.00,0.24,-1.01,1.01,0.83,0.68,1.24,1.24,1.24
88.97,0.24,-1.01,0.24,-1.00,1.00,0.77,0.62,1.23,1.23,1.25
89.86,0.24,-1.00,0.24,-0.99,0.99,0.71,0.57,1.22,1.22,1.23
90.76,0.24,-0.98,0.24,-0.98,0.98,0.64,0.52,1.21,1.21,1.21
91.66,0.24,-0.97,0.24,-0.96,0.96,0.58,0.47,1.20,1.20,1.21
92.58,0.24,-0.94,0.24,-0.94,0.94,0.52,0.42,1.18,1.18,1.17
93.51,0.24,-0.93,0.24,-0.92,0.92,0.46,0.37,1.16,1.16,1.17
94.44,0.24,-0.91,0.24,-0.90,0.90,0.39,0.32,1.14,1.14,1.15
95.39,0.24,-0.88,0.24,-0.88,0.88,0.33,0.27,1.11,1.11,1.12
96.34,0.24,-0.84,0.24,-0.85,0.85,0.27,0.23,1.08,1.08,1.07
97.30,0.24,-0.81,0.24,-0.82,0.82,0.21,0.18,1.05,1.05,1.05
98.28,0.24,-0.78,0.24,-0.78,0.78,0.15,0.13,1.02,1.02,1.01
99.26,0.24,-0.74,0.24,-0.74,0.74,0.08,0.08,0.98,0.98,0.97
100.25,0.24,-0.70,0.24,-0.70,0.70,0.02,0.04,0.94,0.94,0.94
101.25,0.24,-0.65,0.24,-0.65,0.65,-0.04,-0.01,0.89,0.89,0.89
102.27,0.24,-0.61,0.24,-0.60,0.60,-0.10,-0.05,0.84,0.84,0.84
103.29,0.24,-0.55,0.24,-0.55,0.55,-0.16,-0.10,0.79,0.79,0.79
104.32,0.24,-0.50,0.24,-0.49,0.49,-0.22,-0.14,0.73,0.73,0.74
105.37,0.24,-0.44,0.24,-0.43,0.43,-0.28,-0.18,0.66,0.66,0.68
106.42,0.24,-0.38,0.24,-0.36,0.36,-0.34,-0.23,0.59,0.59,0.61
107.48,0.24,-0.30,0.24,-0.29,0.29,-0.39,-0.27,0.52,0.52,0.53
108.56,0.24,-0.21,0.24,-0.21,0.21,-0.45,-0.31,0.45,0.45,0.45
109.64,0.24,-0.13,0.24,-0.13,0.13,-0.51,-0.35,0.37,0.37,0.37
110.74,0.24,-0.06,0.24,-0.05,0.05,-0.56,-0.40,0.29,0.29,0.29
111.85,0.24,0.02,0.24,0.03,-0.03,-0.62,-0.44,0.20,0.20,0.21
112.97,0.24,0.12,0.24,0.11,-0.11,-0.67,-0.48,0.12,0.12,0.12
114.10,0.24,0.20,0.24,0.20,-0.20,-0.73,-0.52,0.04,0.04,0.04
115.24,0.24,0.28,0.23,0.27,-0.27,-0.78,-0.56,-0.04,-0.04,-0.05
116.39,0.24,0.37,0.22,0.34,-0.34,-0.83,-0.59,-0.10,-0.12,-0.13
117.55,0.24,0.44,0.22,0.41,-0.41,-0.89,-0.63,-0.17,-0.19,-0.21
118.73,0.24,0.52,0.22,0.48,-0.48,-0.94,-0.67,-0.24,-0.26,-0.28
119.92,0.24,0.57,0.22,0.55,-0.55,-0.99,-0.70,-0.31,-0.32,-0.34
121.12,0.24,0.64,0.23,0.61,-0.61,-1.04,-0.74,-0.38,-0.38,-0.40
122.33,0.24,0.69,0.25,0.68,-0.68,-1.09,-0.77,-0.45,-0.44,-0.45
123.55,0.24,0.72,0.26,0.75,-0.75,-1.13,-0.81,-0.52,-0.49,-0.49
124.79,0.24,0.77,0.28,0.82,-0.82,-1.18,-0.84,-0.58,-0.54,-0.54
126.03,0.24,0.82,0.30,0.88,-0.88,-1.23,-0.87,-0.65,-0.58,-0.58
127.29,0.24,0.86,0.32,0.95,-0.95,-1.27,-0.91,-0.71,-0.63,-0.62
128.57,0.29,0.96,0.34,1.01,-1.01,-1.32,-0.94,-0.73,-0.67,-0.67
129.85,0.45,1.15,0.37,1.08,-1.08,-1.36,-0.97,-0.63,-0.71,-0.71
131.15,0.47,1.21,0.39,1.14,-1.14,-1.41,-1.00,-0.68,-0.75,-0.75
132.46,0.47,1.26,0.41,1.21,-1.21,-1.45,-1.03,-0.74,-0.80,-0.79
133.79,0.47,1.30,0.43,1.27,-1.27,-1.49,-1.06,-0.80,-0.84,-0.83
135.12,0.47,1.35,0.45,1.33,-1.33,-1.53,-1.09,-0.86,-0.88,-0.89
136.48,0.47,1.39,0.46,1.38,-1.38,-1.57,-1.12,-0.92,-0.92,-0.92
137.84,0.47,1.43,0.47,1.44,-1.44,-1.61,-1.15,-0.97,-0.97,-0.97
139.22,0.47,1.50,0.48,1.49,-1.49,-1.65,-1.18,-1.03,-1.01,-1.03
140.61,0.47,1.55,0.49,1.55,-1.55,-1.69,-1.21,-1.08,-1.06,-1.08
142.02,0.47,1.58,0.49,1.60,-1.60,-1.73,-1.24,-1.14,-1.11,-1.11
143.44,0.47,1.63,0.49,1.66,-1.66,-1.77,-1.27,-1.19,-1.17,-1.16
144.87,0.47,1.68,0.49,1.71,-1.71,-1.80,-1.30,-1.24,-1.22,-1.21
146.32,0.47,1.74,0.49,1.78,-1.78,-1.84,-1.33,-1.31,-1.29,-1.27
147.78,0.47,1.78,0.49,1.84,-1.84,-1.87,-1.37,-1.38,-1.35,-1.32
149.26,0.47,1.86,0.47,1.90,-1.90,-1.91,-1.40,-1.43,-1.43,-1.39
150.75,0.47,1.95,0.45,1.95,-1.95,-1.94,-1.43,-1.48,-1.50,-1.48
152.26,0.47,2.02,0.42,2.00,-2.00,-1.97,-1.47,-1.53,-1.58,-1.55
153.78,0.47,2.10,0.39,2.05,-2.05,-2.01,-1.50,-1.58,-1.65,-1.64
155.32,0.47,2.21,0.36,2.09,-2.09,-2.04,-1.54,-1.62,-1.73,-1.74
156.88,0.45,2.27,0.32,2.13,-2.13,-2.07,-1.58,-1.69,-1.81,-1.82
158.44,0.30,2.20,0.29,2.18,-2.18,-2.10,-1.61,-1.89,-1.89,-1.90
160.03,0.24,2.22,0.27,2.23,-2.23,-2.13,-1.65,-1.99,-1.96,-1.98
161.63,0.24,2.29,0.25,2.28,-2.28,-2.16,-1.70,-2.04,-2.03,-2.05
163.24,0.10,2.20,0.24,2.33,-2.33,-2.19,-1.74,-2.23,-2.09,-2.11
164.88,0.01,2.16,0.24,2.37,-2.37,-2.22,-1.78,-2.37,-2.14,-2.15
166.53,0.19,2.39,0.24,2.42,-2.42,-2.25,-1.83,-2.23,-2.18,-2.20
168.19,0.24,2.47,0.25,2.46,-2.46,-2.27,-1.87,-2.22,-2.21,-2.23
169.87,0.24,2.49,0.25,2.49,-2.49,-2.30,-1.92,-2.25,-2.23,-2.26
171.57,0.24,2.51,0.27,2.52,-2.52,-2.33,-1.97,-2.28,-2.25,-2.27
173.29,0.38,2.65,0.29,2.56,-2.56,-2.35,-2.02,-2.18,-2.26,-2.27
175.02,0.47,2.73,0.33,2.60,-2.60,-2.38,-2.08,-2.14,-2.27,-2.26
176.77,0.47,2.74,0.37,2.66,-2.66,-2.40,-2.13,-2.19,-2.28,-2.27
178.54,0.47,2.74,0.42,2.70,-2.70,-2.42,-2.19,-2.24,-2.29,-2.27
180.32,0.47,2.74,0.46,2.75,-2.75,-2.45,-2.25,-2.28,-2.29,-2.27
182.13,0.47,2.74,0.50,2.80,-2.80,-2.47,-2.31,-2.33,-2.30,-2.27
183.95,0.47,2.74,0.53,2.84,-2.84,-2.49,-2.37,-2.37,-2.31,-2.28
185.79,0.47,2.76,0.55,2.87,-2.87,-2.52,-2.43,-2.40,-2.32,-2.29
187.65,0.47,2.79,0.58,2.91,-2.91,-2.54,-2.50,-2.44,-2.33,-2.32
189.52,0.64,2.98,0.60,2.94,-2.94,-2.56,-2.56,-2.31,-2.34,-2.34
191.42,0.69,3.05,0.62,2.98,-2.98,-2.58,-2.63,-2.29,-2.36,-2.37
193.33,0.69,3.08,0.63,3.01,-3.01,-2.60,-2.70,-2.33,-2.38,-2.39
195.27,0.69,3.09,0.64,3.05,-3.05,-2.62,-2.77,-2.36,-2.41,-2.40
197.22,0.69,3.11,0.66,3.09,-3.09,-2.64,-2.84,-2.40,-2.43,-2.42
199.19,0.69,3.15,0.68,3.13,-3.13,-2.66,-2.91,-2.44,-2.45,-2.47
201.18,0.69,3.16,0.69,3.16,-3.16,-2.68,-2.98,-2.48,-2.47,-2.48
203.19,0.69,3.18,0.70,3.20,-3.20,-2.70,-3.06,-2.51,-2.50,-2.50
205.23,0.69,3.21,0.69,3.21,-3.21,-2.71,-3.13,-2.53,-2.52,-2.52
207.28,0.69,3.22,0.69,3.23,-3.23,-2.73,-3.21,-2.54,-2.54,-2.53
209.35,0.69,3.25,0.68,3.24,-3.24,-2.75,-3.28,-2.55,-2.56,-2.56
211.44,0.69,3.27,0.67,3.25,-3.25,-2.77,-3.36,-2.56,-2.58,-2.59
213.56,0.69,3.28,0.68,3.27,-3.27,-2.78,-3.43,-2.59,-2.59,-2.59
215.69,0.69,3.29,0.69,3.30,-3.30,-2.80,-3.50,-2.61,-2.61,-2.60
217.85,0.69,3.31,0.70,3.33,-3.33,-2.81,-3.58,-2.64,-2.63,-2.63
220.03,0.69,3.33,0.71,3.35,-3.35,-2.83,-3.65,-2.67,-2.64,-2.64
222.23,0.69,3.35,0.72,3.38,-3.38,-2.84,-3.72,-2.69,-2.66,-2.67
224.45,0.69,3.36,0.74,3.41,-3.41,-2.86,-3.78,-2.72,-2.67,-2.67
226.70,0.69,3.36,0.77,3.44,-3.44,-2.87,-3.85,-2.76,-2.68,-2.67
228.96,0.85,3.53,0.80,3.48,-3.48,-2.89,-3.91,-2.64,-2.69,-2.69
231.25,0.90,3.59,0.83,3.53,-3.53,-2.90,-3.97,-2.63,-2.70,-2.69
233.57,0.92,3.62,0.86,3.56,-3.56,-2.91,-4.02,-2.64,-2.70,-2.70
235.90,0.92,3.63,0.89,3.59,-3.59,-2.93,-4.07,-2.68,-2.70,-2.71
238.26,0.92,3.63,0.92,3.63,-3.63,-2.94,-4.12,-2.72,-2.71,-2.71
240.64,0.92,3.63,0.96,3.67,-3.67,-2.95,-4.16,-2.75,-2.71,-2.72
243.05,0.93,3.63,1.00,3.70,-3.70,-2.97,-4.20,-2.78,-2.71,-2.71
245.48,1.09,3.79,1.03,3.73,-3.73,-2.98,-4.23,-2.65,-2.71,-2.71
247.93,1.15,3.84,1.06,3.77,-3.77,-2.99,-4.26,-2.62,-2.70,-2.70
250.41,1.15,3.85,1.10,3.80,-3.80,-3.00,-4.29,-2.66,-2.70,-2.71
252.92,1.15,3.84,1.15,3.85,-3.85,-3.01,-4.30,-2.70,-2.69,-2.69
255.45,1.15,3.82,1.21,3.90,-3.90,-3.02,-4.32,-2.75,-2.69,-2.67
258.00,1.15,3.82,1.27,3.95,-3.95,-3.03,-4.33,-2.80,-2.68,-2.67
260.58,1.29,3.96,1.33,4.00,-4.00,-3.04,-4.33,-2.71,-2.67,-2.67
263.19,1.37,4.02,1.39,4.04,-4.04,-3.05,-4.33,-2.68,-2.66,-2.66
265.82,1.38,4.03,1.43,4.08,-4.08,-3.06,-4.33,-2.70,-2.65,-2.66
268.48,1.43,4.06,1.48,4.11,-4.11,-3.07,-4.33,-2.68,-2.63,-2.63
271.16,1.56,4.18,1.52,4.13,-4.13,-3.08,-4.32,-2.58,-2.61,-2.62
273.87,1.69,4.29,1.56,4.15,-4.15,-3.09,-4.30,-2.47,-2.60,-2.61
276.61,1.81,4.38,1.60,4.18,-4.18,-3.10,-4.29,-2.37,-2.58,-2.57
279.38,1.83,4.39,1.64,4.20,-4.20,-3.11,-4.27,-2.37,-2.55,-2.56
282.17,1.67,4.20,1.68,4.21,-4.21,-3.12,-4.25,-2.55,-2.53,-2.54
284.99,1.61,4.12,1.71,4.22,-4.22,-3.13,-4.23,-2.62,-2.51,-2.51
287.84,1.61,4.09,1.74,4.22,-4.22,-3.14,-4.20,-2.61,-2.48,-2.49
290.72,1.61,4.06,1.75,4.21,-4.21,-3.14,-4.18,-2.60,-2.45,-2.45
293.63,1.72,4.14,1.76,4.19,-4.19,-3.15,-4.16,-2.48,-2.43,-2.43
296.57,1.82,4.22,1.77,4.17,-4.17,-3.16,-4.14,-2.35,-2.40,-2.40
299.53,1.83,4.20,1.77,4.15,-4.15,-3.17,-4.11,-2.32,-2.38,-2.38
302.53,1.83,4.19,1.77,4.12,-4.12,-3.17,-4.09,-2.30,-2.36,-2.36
305.55,1.83,4.15,1.77,4.11,-4.11,-3.18,-4.07,-2.29,-2.34,-2.33
308.61,1.83,4.14,1.79,4.11,-4.11,-3.19,-4.05,-2.29,-2.32,-2.31
311.69,1.83,4.12,1.82,4.12,-4.12,-3.19,-4.03,-2.30,-2.31,-2.29
314.81,1.83,4.10,1.84,4.14,-4.14,-3.20,-4.02,-2.31,-2.30,-2.27
317.96,1.83,4.10,1.86,4.15,-4.15,-3.20,-4.00,-2.32,-2.28,-2.27
321.14,1.83,4.10,1.89,4.16,-4.16,-3.21,-3.99,-2.33,-2.27,-2.28
324.35,1.83,4.10,1.91,4.17,-4.17,-3.22,-3.98,-2.35,-2.27,-2.27
327.59,1.87,4.13,1.93,4.19,-4.19,-3.22,-3.97,-2.32,-2.26,-2.26
330.87,2.01,4.26,1.96,4.21,-4.21,-3.23,-3.97,-2.20,-2.25,-2.26
334.18,2.06,4.31,2.00,4.24,-4.24,-3.23,-3.97,-2.18,-2.24,-2.25
337.52,2.06,4.30,2.03,4.26,-4.26,-3.24,-3.97,-2.20,-2.23,-2.24
340.90,2.06,4.27,2.07,4.28,-4.28,-3.24,-3.97,-2.22,-2.21,-2.22
344.30,2.06,4.26,2.10,4.30,-4.30,-3.25,-3.98,-2.24,-2.20,-2.21
347.75,2.12,4.31,2.14,4.32,-4.32,-3.25,-3.99,-2.20,-2.18,-2.19
351.23,2.25,4.41,2.18,4.34,-4.34,-3.25,-4.00,-2.09,-2.16,-2.16
354.74,2.29,4.43,2.22,4.36,-4.36,-3.26,-4.02,-2.07,-2.14,-2.15
358.28,2.29,4.41,2.25,4.37,-4.37,-3.26,-4.04,-2.08,-2.12,-2.12
361.87,2.29,4.39,2.28,4.37,-4.37,-3.26,-4.06,-2.09,-2.10,-2.10
365.49,2.29,4.36,2.30,4.38,-4.38,-3.27,-4.09,-2.09,-2.08,-2.07
369.14,2.29,4.34,2.33,4.38,-4.38,-3.27,-4.12,-2.09,-2.05,-2.06
372.83,2.29,4.31,2.36,4.40,-4.40,-3.27,-4.15,-2.11,-2.03,-2.03
376.56,2.34,4.35,2.39,4.41,-4.41,-3.28,-4.18,-2.07,-2.01,-2.01
380.33,2.49,4.47,2.42,4.42,-4.42,-3.28,-4.22,-1.93,-1.99,-1.98
384.13,2.52,4.48,2.46,4.44,-4.44,-3.28,-4.26,-1.92,-1.98,-1.96
387.97,2.52,4.47,2.50,4.46,-4.46,-3.29,-4.31,-1.94,-1.96,-1.96
391.85,2.52,4.46,2.53,4.48,-4.48,-3.29,-4.35,-1.97,-1.95,-1.95
395.77,2.52,4.45,2.58,4.52,-4.52,-3.29,-4.40,-2.00,-1.94,-1.94
399.73,2.58,4.51,2.63,4.56,-4.56,-3.29,-4.45,-1.98,-1.93,-1.93
403.72,2.71,4.63,2.68,4.60,-4.60,-3.29,-4.50,-1.90,-1.92,-1.92
407.76,2.75,4.66,2.72,4.64,-4.64,-3.29,-4.55,-1.89,-1.91,-1.91
411.84,2.75,4.65,2.76,4.67,-4.67,-3.30,-4.61,-1.92,-1.91,-1.90
415.96,2.75,4.64,2.80,4.71,-4.71,-3.30,-4.66,-1.96,-1.91,-1.90
420.12,2.92,4.81,2.84,4.74,-4.74,-3.30,-4.72,-1.82,-1.90,-1.90
424.32,2.97,4.86,2.87,4.77,-4.77,-3.30,-4.77,-1.81,-1.90,-1.90
428.56,2.97,4.87,2.91,4.81,-4.81,-3.30,-4.83,-1.85,-1.90,-1.90
432.85,2.97,4.87,2.96,4.85,-4.85,-3.30,-4.88,-1.88,-1.89,-1.90
437.18,2.97,4.86,3.00,4.88,-4.88,-3.30,-4.94,-1.92,-1.89,-1.89
441.55,2.97,4.85,3.03,4.91,-4.91,-3.30,-4.99,-1.95,-1.89,-1.88
445.96,2.97,4.85,3.06,4.93,-4.93,-3.30,-5.04,-1.97,-1.88,-1.88
450.42,2.97,4.84,3.08,4.95,-4.95,-3.30,-5.08,-1.98,-1.87,-1.87
454.93,3.15,5.01,3.10,4.97,-4.97,-3.30,-5.13,-1.82,-1.86,-1.87
459.48,3.20,5.05,3.13,4.98,-4.98,-3.30,-5.16,-1.78,-1.85,-1.86
464.07,3.20,5.03,3.14,4.98,-4.98,-3.30,-5.20,-1.78,-1.83,-1.84
468.71,3.20,5.01,3.15,4.97,-4.97,-3.30,-5.23,-1.78,-1.82,-1.82
473.40,3.20,5.01,3.17,4.97,-4.97,-3.30,-5.25,-1.77,-1.80,-1.81
478.13,3.20,4.98,3.19,4.96,-4.96,-3.30,-5.27,-1.77,-1.78,-1.78
482.91,3.20,4.96,3.20,4.95,-4.95,-3.29,-5.28,-1.76,-1.75,-1.76
487.74,3.20,4.93,3.21,4.94,-4.94,-3.29,-5.29,-1.74,-1.73,-1.73
492.62,3.20,4.90,3.21,4.92,-4.92,-3.29,-5.29,-1.73,-1.71,-1.70
497.55,3.20,4.88,3.21,4.90,-4.90,-3.29,-5.28,-1.70,-1.68,-1.68
502.52,3.20,4.85,3.21,4.87,-4.87,-3.29,-5.27,-1.67,-1.66,-1.65
507.55,3.20,4.83,3.20,4.83,-4.83,-3.28,-5.25,-1.64,-1.63,-1.63
512.62,3.20,4.80,3.20,4.81,-4.81,-3.28,-5.22,-1.61,-1.61,-1.60
517.75,3.20,4.78,3.20,4.78,-4.78,-3.28,-5.18,-1.59,-1.59,-1.58
