frequency,raw,error,smoothed,error_smoothed,equalization,parametric_eq,fixed_band_eq,equalized_raw,equalized_smoothed,target
20.00,10.01,0.58,10.01,0.58,-0.58,-0.68,-0.56,9.43,9.43,9.43
20.20,10.03,0.61,10.03,0.61,-0.61,-0.70,-0.58,9.42,9.42,9.42
20.40,10.05,0.64,10.05,0.64,-0.64,-0.71,-0.59,9.41,9.41,9.41
20.61,10.07,0.67,10.07,0.67,-0.67,-0.73,-0.61,9.40,9.40,9.40
20.81,10.08,0.70,10.08,0.70,-0.70,-0.75,-0.63,9.38,9.39,9.38
21.02,10.10,0.73,10.10,0.73,-0.73,-0.76,-0.64,9.38,9.38,9.37
21.23,10.12,0.76,10.12,0.75,-0.75,-0.78,-0.66,9.37,9.37,9.36
21.44,10.14,0.77,10.14,0.78,-0.78,-0.80,-0.68,9.36,9.36,9.37
21.66,10.16,0.81,10.16,0.80,-0.81,-0.82,-0.70,9.35,9.35,9.35
21.87,10.18,0.83,10.18,0.84,-0.84,-0.84,-0.72,9.34,9.34,9.35
22.09,10.20,0.87,10.20,0.87,-0.87,-0.86,-0.73,9.34,9.34,9.33
22.31,10.22,0.90,10.22,0.89,-0.89,-0.88,-0.75,9.33,9.33,9.32
22.54,10.23,0.92,10.23,0.92,-0.92,-0.90,-0.77,9.31,9.32,9.31
22.76,10.25,0.94,10.25,0.95,-0.95,-0.92,-0.79,9.31,9.31,9.31
22.99,10.27,0.97,10.27,0.97,-0.97,-0.94,-0.82,9.30,9.30,9.30
23.22,10.29,1.00,10.29,0.99,-0.99,-0.96,-0.84,9.30,9.30,9.29
23.45,10.31,1.01,10.31,1.02,-1.01,-0.98,-0.86,9.30,9.30,9.30
23.69,10.33,1.04,10.33,1.04,-1.04,-1.00,-0.88,9.30,9.29,9.29
23.92,10.34,1.06,10.35,1.05,-1.06,-1.02,-0.90,9.29,9.29,9.28
24.16,10.36,1.07,10.36,1.08,-1.08,-1.04,-0.93,9.28,9.29,9.29
24.40,10.38,1.09,10.38,1.09,-1.10,-1.06,-0.95,9.29,9.28,9.29
24.65,10.40,1.12,10.40,1.11,-1.12,-1.08,-0.98,9.29,9.28,9.28
24.89,10.41,1.13,10.41,1.14,-1.13,-1.10,-1.00,9.28,9.28,9.28
25.14,10.43,1.16,10.43,1.16,-1.15,-1.12,-1.02,9.28,9.28,9.27
25.39,10.44,1.17,10.44,1.17,-1.17,-1.14,-1.05,9.27,9.27,9.27
25.65,10.46,1.19,10.46,1.19,-1.19,-1.16,-1.07,9.27,9.27,9.27
25.91,10.47,1.20,10.47,1.20,-1.20,-1.18,-1.10,9.27,9.27,9.27
26.16,10.49,1.21,10.49,1.22,-1.22,-1.19,-1.12,9.27,9.27,9.28
26.43,10.51,1.24,10.51,1.23,-1.24,-1.21,-1.15,9.27,9.27,9.27
26.69,10.52,1.25,10.52,1.25,-1.25,-1.23,-1.17,9.27,9.27,9.27
26.96,10.54,1.27,10.54,1.27,-1.27,-1.24,-1.20,9.28,9.27,9.27
27.23,10.55,1.28,10.55,1.28,-1.28,-1.26,-1.22,9.27,9.28,9.27
27.50,10.57,1.30,10.57,1.30,-1.29,-1.27,-1.24,9.28,9.28,9.27
27.77,10.58,1.30,10.58,1.31,-1.30,-1.28,-1.27,9.28,9.28,9.28
28.05,10.59,1.32,10.59,1.31,-1.31,-1.30,-1.29,9.28,9.28,9.27
28.33,10.60,1.32,10.60,1.32,-1.32,-1.31,-1.31,9.28,9.28,9.28
28.62,10.61,1.33,10.61,1.33,-1.33,-1.32,-1.33,9.28,9.28,9.28
28.90,10.63,1.34,10.63,1.34,-1.34,-1.33,-1.35,9.29,9.29,9.29
29.19,10.64,1.35,10.64,1.35,-1.36,-1.34,-1.37,9.29,9.29,9.29
29.48,10.65,1.37,10.65,1.36,-1.37,-1.35,-1.39,9.28,9.28,9.28
29.78,10.66,1.38,10.66,1.38,-1.38,-1.36,-1.41,9.28,9.28,9.28
30.08,10.67,1.39,10.67,1.40,-1.40,-1.37,-1.42,9.27,9.28,9.28
30.38,10.69,1.43,10.69,1.42,-1.42,-1.38,-1.44,9.27,9.27,9.26
30.68,10.70,1.44,10.70,1.44,-1.43,-1.39,-1.45,9.27,9.27,9.26
30.99,10.71,1.45,10.71,1.45,-1.45,-1.39,-1.46,9.26,9.26,9.26
31.30,10.72,1.46,10.72,1.47,-1.47,-1.40,-1.47,9.25,9.26,9.26
31.61,10.73,1.48,10.73,1.48,-1.48,-1.41,-1.48,9.25,9.25,9.25
31.93,10.74,1.51,10.74,1.50,-1.49,-1.42,-1.49,9.25,9.25,9.23
32.24,10.74,1.50,10.74,1.51,-1.50,-1.43,-1.50,9.24,9.24,9.24
32.57,10.74,1.52,10.74,1.52,-1.52,-1.44,-1.50,9.23,9.23,9.22
32.89,10.74,1.52,10.74,1.52,-1.53,-1.45,-1.51,9.22,9.22,9.22
33.22,10.74,1.53,10.74,1.53,-1.54,-1.46,-1.51,9.21,9.21,9.21
33.55,10.75,1.54,10.75,1.54,-1.54,-1.47,-1.52,9.21,9.21,9.21
33.89,10.75,1.55,10.75,1.55,-1.55,-1.48,-1.52,9.20,9.20,9.20
34.23,10.75,1.57,10.75,1.56,-1.56,-1.49,-1.52,9.20,9.19,9.18
34.57,10.74,1.56,10.74,1.57,-1.56,-1.50,-1.53,9.18,9.18,9.18
34.92,10.74,1.58,10.74,1.57,-1.57,-1.51,-1.53,9.18,9.17,9.16
35.27,10.73,1.55,10.73,1.57,-1.57,-1.53,-1.53,9.16,9.16,9.18
35.62,10.73,1.58,10.73,1.57,-1.57,-1.54,-1.53,9.16,9.16,9.15
35.97,10.72,1.57,10.72,1.57,-1.58,-1.55,-1.53,9.15,9.14,9.15
36.33,10.71,1.58,10.71,1.58,-1.58,-1.57,-1.53,9.13,9.13,9.13
36.70,10.69,1.58,10.70,1.58,-1.58,-1.58,-1.53,9.11,9.12,9.11
37.06,10.68,1.59,10.68,1.59,-1.58,-1.59,-1.53,9.10,9.10,9.09
37.43,10.66,1.59,10.66,1.59,-1.58,-1.61,-1.53,9.08,9.08,9.07
37.81,10.64,1.58,10.64,1.59,-1.59,-1.63,-1.54,9.05,9.05,9.06
38.19,10.62,1.59,10.62,1.59,-1.59,-1.64,-1.54,9.03,9.03,9.03
38.57,10.61,1.60,10.61,1.59,-1.60,-1.66,-1.54,9.01,9.01,9.01
38.95,10.60,1.60,10.60,1.61,-1.61,-1.67,-1.55,8.99,8.99,9.00
39.34,10.59,1.62,10.59,1.62,-1.62,-1.69,-1.55,8.97,8.97,8.97
39.74,10.58,1.64,10.58,1.63,-1.63,-1.71,-1.56,8.95,8.95,8.94
40.14,10.57,1.65,10.57,1.65,-1.64,-1.73,-1.57,8.93,8.93,8.92
40.54,10.55,1.65,10.55,1.66,-1.65,-1.75,-1.57,8.90,8.90,8.90
40.94,10.54,1.67,10.54,1.67,-1.66,-1.76,-1.58,8.88,8.88,8.87
41.35,10.53,1.67,10.53,1.67,-1.68,-1.78,-1.59,8.86,8.85,8.86
41.76,10.52,1.69,10.52,1.69,-1.69,-1.80,-1.60,8.83,8.83,8.83
42.18,10.51,1.69,10.51,1.69,-1.70,-1.82,-1.62,8.81,8.81,8.82
42.60,10.50,1.71,10.50,1.71,-1.71,-1.84,-1.63,8.79,8.79,8.79
43.03,10.49,1.72,10.49,1.72,-1.72,-1.86,-1.65,8.77,8.77,8.77
43.46,10.47,1.74,10.47,1.73,-1.73,-1.89,-1.66,8.74,8.74,8.73
43.90,10.45,1.74,10.46,1.75,-1.74,-1.91,-1.68,8.71,8.71,8.71
44.33,10.44,1.76,10.44,1.76,-1.76,-1.93,-1.70,8.69,8.69,8.68
44.78,10.43,1.77,10.43,1.77,-1.77,-1.95,-1.72,8.66,8.66,8.66
45.23,10.41,1.77,10.41,1.78,-1.78,-1.97,-1.74,8.63,8.63,8.64
45.68,10.39,1.80,10.39,1.79,-1.80,-2.00,-1.76,8.60,8.60,8.59
46.13,10.37,1.81,10.37,1.81,-1.81,-2.02,-1.79,8.56,8.56,8.56
46.60,10.36,1.84,10.36,1.83,-1.83,-2.04,-1.81,8.53,8.53,8.52
47.06,10.34,1.85,10.34,1.85,-1.85,-2.07,-1.84,8.49,8.49,8.49
47.53,10.32,1.87,10.32,1.87,-1.88,-2.09,-1.87,8.44,8.44,8.45
48.01,10.30,1.90,10.30,1.90,-1.91,-2.11,-1.90,8.39,8.40,8.40
48.49,10.29,1.93,10.29,1.93,-1.94,-2.14,-1.93,8.35,8.35,8.36
48.97,10.28,1.97,10.28,1.97,-1.97,-2.16,-1.96,8.31,8.31,8.31
49.46,10.28,2.00,10.28,2.01,-2.00,-2.19,-1.99,8.28,8.27,8.28
49.96,10.27,2.05,10.27,2.04,-2.04,-2.21,-2.02,8.24,8.24,8.22
50.46,10.26,2.07,10.26,2.07,-2.07,-2.23,-2.06,8.20,8.20,8.19
50.96,10.25,2.10,10.25,2.10,-2.09,-2.26,-2.09,8.16,8.16,8.15
51.47,10.23,2.12,10.23,2.12,-2.12,-2.28,-2.12,8.12,8.12,8.11
51.99,10.21,2.15,10.21,2.14,-2.14,-2.31,-2.16,8.07,8.07,8.06
52.51,10.18,2.15,10.18,2.15,-2.16,-2.34,-2.19,8.03,8.03,8.03
53.03,10.16,2.16,10.16,2.17,-2.17,-2.36,-2.23,7.99,7.99,8.00
53.56,10.13,2.18,10.13,2.18,-2.19,-2.39,-2.27,7.94,7.95,7.95
54.10,10.11,2.21,10.11,2.20,-2.20,-2.41,-2.30,7.91,7.90,7.90
54.64,10.08,2.22,10.08,2.22,-2.22,-2.44,-2.34,7.86,7.86,7.86
55.18,10.05,2.23,10.06,2.24,-2.23,-2.46,-2.37,7.82,7.82,7.82
55.74,10.03,2.26,10.03,2.25,-2.25,-2.49,-2.41,7.78,7.78,7.77
56.29,10.01,2.26,10.01,2.27,-2.26,-2.52,-2.44,7.75,7.75,7.75
56.86,9.99,2.28,9.99,2.28,-2.28,-2.54,-2.47,7.71,7.71,7.71
57.42,9.96,2.30,9.96,2.30,-2.29,-2.57,-2.50,7.67,7.67,7.66
58.00,9.93,2.31,9.93,2.31,-2.30,-2.59,-2.53,7.63,7.63,7.62
58.58,9.91,2.32,9.91,2.32,-2.32,-2.62,-2.56,7.59,7.59,7.59
59.16,9.88,2.32,9.88,2.33,-2.34,-2.65,-2.59,7.54,7.55,7.56
59.76,9.86,2.35,9.86,2.35,-2.36,-2.67,-2.61,7.50,7.50,7.51
60.35,9.84,2.38,9.84,2.38,-2.38,-2.70,-2.63,7.46,7.45,7.46
60.96,9.81,2.41,9.81,2.41,-2.41,-2.72,-2.65,7.40,7.40,7.40
61.57,9.78,2.44,9.78,2.44,-2.44,-2.75,-2.67,7.34,7.34,7.34
62.18,9.75,2.47,9.75,2.47,-2.47,-2.77,-2.69,7.28,7.29,7.28
62.80,9.73,2.51,9.73,2.50,-2.50,-2.80,-2.70,7.24,7.23,7.22
63.43,9.70,2.53,9.70,2.53,-2.52,-2.83,-2.71,7.18,7.18,7.17
64.07,9.67,2.55,9.67,2.55,-2.55,-2.85,-2.72,7.13,7.12,7.12
64.71,9.63,2.56,9.63,2.57,-2.57,-2.88,-2.73,7.06,7.07,7.07
65.35,9.60,2.59,9.60,2.59,-2.59,-2.90,-2.74,7.01,7.02,7.01
66.01,9.57,2.61,9.57,2.61,-2.61,-2.93,-2.74,6.96,6.96,6.96
66.67,9.54,2.62,9.54,2.63,-2.63,-2.95,-2.75,6.91,6.91,6.92
67.33,9.50,2.65,9.51,2.65,-2.65,-2.97,-2.75,6.85,6.85,6.85
68.01,9.47,2.67,9.47,2.67,-2.68,-3.00,-2.75,6.80,6.80,6.80
68.69,9.45,2.70,9.45,2.70,-2.70,-3.02,-2.75,6.75,6.75,6.75
69.37,9.42,2.72,9.42,2.73,-2.73,-3.05,-2.74,6.69,6.70,6.70
70.07,9.40,2.76,9.40,2.76,-2.76,-3.07,-2.74,6.65,6.64,6.64
70.77,9.36,2.79,9.36,2.78,-2.78,-3.09,-2.74,6.58,6.58,6.57
71.48,9.33,2.81,9.33,2.81,-2.81,-3.12,-2.73,6.52,6.52,6.52
72.19,9.29,2.83,9.29,2.83,-2.83,-3.14,-2.73,6.46,6.46,6.46
72.91,9.25,2.86,9.25,2.85,-2.85,-3.16,-2.73,6.40,6.40,6.39
73.64,9.21,2.87,9.21,2.87,-2.87,-3.18,-2.73,6.34,6.34,6.34
74.38,9.17,2.89,9.17,2.89,-2.89,-3.21,-2.72,6.28,6.28,6.28
75.12,9.13,2.90,9.13,2.90,-2.90,-3.23,-2.72,6.23,6.23,6.23
75.87,9.10,2.92,9.10,2.92,-2.92,-3.25,-2.72,6.19,6.18,6.18
76.63,9.06,2.94,9.06,2.94,-2.93,-3.27,-2.72,6.13,6.13,6.12
77.40,9.02,2.94,9.02,2.94,-2.94,-3.29,-2.72,6.08,6.08,6.08
78.17,8.98,2.96,8.98,2.95,-2.96,-3.31,-2.72,6.03,6.02,6.02
78.95,8.93,2.95,8.94,2.96,-2.97,-3.33,-2.73,5.96,5.97,5.98
79.74,8.91,2.98,8.91,2.98,-2.99,-3.35,-2.73,5.92,5.92,5.93
80.54,8.89,3.01,8.89,3.01,-3.01,-3.37,-2.74,5.88,5.87,5.88
81.35,8.87,3.05,8.87,3.04,-3.04,-3.38,-2.75,5.83,5.84,5.82
82.16,8.85,3.06,8.85,3.07,-3.06,-3.40,-2.76,5.79,5.79,5.79
82.98,8.83,3.10,8.83,3.09,-3.09,-3.42,-2.77,5.74,5.74,5.73
83.81,8.80,3.12,8.80,3.12,-3.11,-3.44,-2.79,5.69,5.68,5.68
84.65,8.76,3.14,8.77,3.15,-3.14,-3.45,-2.81,5.62,5.63,5.62
85.50,8.73,3.17,8.73,3.17,-3.17,-3.47,-2.83,5.57,5.57,5.56
86.35,8.70,3.19,8.70,3.19,-3.19,-3.48,-2.85,5.51,5.51,5.51
87.22,8.67,3.21,8.67,3.21,-3.22,-3.50,-2.87,5.45,5.45,5.46
88.09,8.64,3.24,8.64,3.24,-3.25,-3.51,-2.90,5.40,5.40,5.40
88.97,8.62,3.28,8.62,3.27,-3.27,-3.53,-2.92,5.35,5.34,5.34
89.86,8.59,3.30,8.59,3.31,-3.30,-3.54,-2.95,5.29,5.29,5.29
90.76,8.57,3.34,8.57,3.34,-3.34,-3.55,-2.99,5.24,5.23,5.23
91.66,8.54,3.38,8.54,3.37,-3.37,-3.56,-3.02,5.17,5.17,5.16
92.58,8.52,3.41,8.52,3.41,-3.41,-3.58,-3.06,5.11,5.11,5.11
93.51,8.50,3.44,8.50,3.44,-3.45,-3.59,-3.10,5.05,5.05,5.06
94.44,8.48,3.48,8.48,3.48,-3.49,-3.60,-3.14,4.99,4.99,5.00
95.39,8.46,3.53,8.46,3.53,-3.53,-3.61,-3.18,4.93,4.93,4.93
96.34,8.44,3.58,8.44,3.58,-3.58,-3.62,-3.23,4.86,4.86,4.86
97.30,8.42,3.62,8.43,3.63,-3.63,-3.63,-3.27,4.80,4.80,4.80
98.28,8.41,3.68,8.41,3.68,-3.67,-3.64,-3.32,4.74,4.74,4.73
99.26,8.40,3.73,8.40,3.72,-3.72,-3.64,-3.37,4.68,4.67,4.67
100.25,8.38,3.77,8.38,3.77,-3.77,-3.65,-3.42,4.61,4.61,4.61
101.25,8.36,3.80,8.37,3.81,-3.81,-3.66,-3.47,4.55,4.55,4.56
102.27,8.35,3.85,8.35,3.85,-3.85,-3.66,-3.53,4.50,4.50,4.50
103.29,8.33,3.89,8.33,3.89,-3.88,-3.67,-3.58,4.45,4.45,4.44
104.32,8.31,3.92,8.30,3.91,-3.90,-3.68,-3.64,4.41,4.40,4.39
105.37,8.26,3.93,8.26,3.93,-3.92,-3.68,-3.69,4.34,4.34,4.33
106.42,8.21,3.93,8.22,3.94,-3.94,-3.69,-3.75,4.27,4.28,4.28
107.48,8.17,3.95,8.17,3.94,-3.95,-3.69,-3.80,4.23,4.22,4.22
108.56,8.12,3.95,8.12,3.95,-3.95,-3.69,-3.86,4.17,4.17,4.17
109.64,8.07,3.96,8.07,3.96,-3.95,-3.70,-3.91,4.12,4.12,4.11
110.74,8.01,3.96,8.01,3.96,-3.96,-3.70,-3.96,4.05,4.05,4.05
111.85,7.95,3.96,7.95,3.96,-3.97,-3.70,-4.01,3.98,3.98,3.99
112.97,7.89,3.95,7.90,3.96,-3.98,-3.70,-4.06,3.91,3.92,3.94
114.10,7.85,3.97,7.85,3.97,-3.99,-3.71,-4.11,3.86,3.86,3.88
115.24,7.80,4.00,7.81,4.00,-3.99,-3.71,-4.15,3.81,3.82,3.80
116.39,7.77,4.03,7.77,4.03,-4.00,-3.71,-4.19,3.77,3.77,3.74
117.55,7.72,4.04,7.71,4.03,-4.00,-3.71,-4.23,3.72,3.71,3.68
118.73,7.64,4.02,7.64,4.01,-4.01,-3.71,-4.26,3.64,3.64,3.62
119.92,7.56,3.98,7.57,3.99,-4.01,-3.71,-4.29,3.56,3.56,3.58
121.12,7.50,3.97,7.51,3.99,-4.00,-3.71,-4.31,3.50,3.51,3.53
122.33,7.47,4.00,7.47,3.99,-4.00,-3.71,-4.34,3.47,3.47,3.47
123.55,7.43,4.01,7.42,4.00,-3.99,-3.71,-4.35,3.44,3.43,3.42
124.79,7.36,3.99,7.37,4.00,-3.99,-3.71,-4.36,3.37,3.37,3.37
126.03,7.30,3.99,7.31,3.99,-4.00,-3.70,-4.37,3.31,3.31,3.31
127.29,7.25,3.99,7.25,3.99,-4.00,-3.70,-4.37,3.25,3.25,3.26
128.57,7.20,4.01,7.20,4.00,-4.01,-3.70,-4.37,3.20,3.19,3.19
129.85,7.15,4.01,7.15,4.01,-4.01,-3.70,-4.37,3.14,3.14,3.14
131.15,7.10,4.02,7.10,4.02,-4.01,-3.70,-4.36,3.09,3.09,3.08
132.46,7.06,4.03,7.05,4.02,-4.02,-3.70,-4.34,3.04,3.03,3.03
133.79,6.99,4.02,6.99,4.02,-4.02,-3.70,-4.33,2.97,2.97,2.97
135.12,6.93,4.01,6.94,4.02,-4.03,-3.69,-4.30,2.91,2.91,2.92
136.48,6.89,4.02,6.89,4.02,-4.03,-3.69,-4.28,2.87,2.86,2.87
137.84,6.84,4.02,6.85,4.03,-4.02,-3.69,-4.25,2.82,2.82,2.82
139.22,6.80,4.04,6.79,4.03,-4.02,-3.69,-4.23,2.78,2.78,2.76
140.61,6.74,4.02,6.74,4.02,-4.01,-3.69,-4.19,2.73,2.72,2.72
142.02,6.66,4.00,6.68,4.01,-4.01,-3.69,-4.16,2.66,2.67,2.66
143.44,6.62,4.00,6.61,3.99,-4.00,-3.69,-4.13,2.63,2.62,2.62
144.87,6.55,3.97,6.55,3.98,-3.98,-3.69,-4.09,2.57,2.57,2.58
146.32,6.50,3.97,6.50,3.97,-3.97,-3.69,-4.06,2.53,2.53,2.53
147.78,6.44,3.95,6.44,3.95,-3.95,-3.69,-4.03,2.49,2.49,2.49
149.26,6.39,3.95,6.38,3.94,-3.93,-3.69,-3.99,2.46,2.45,2.44
150.75,6.31,3.91,6.32,3.92,-3.92,-3.69,-3.96,2.40,2.40,2.40
152.26,6.26,3.90,6.26,3.90,-3.90,-3.69,-3.92,2.36,2.36,2.36
153.78,6.19,3.87,6.19,3.87,-3.88,-3.70,-3.89,2.31,2.32,2.32
155.32,6.14,3.86,6.14,3.86,-3.86,-3.70,-3.86,2.28,2.28,2.28
156.88,6.07,3.84,6.07,3.84,-3.84,-3.70,-3.83,2.23,2.23,2.23
158.44,6.02,3.84,6.01,3.82,-3.82,-3.71,-3.80,2.20,2.18,2.18
160.03,5.93,3.79,5.94,3.80,-3.81,-3.72,-3.78,2.12,2.13,2.14
161.63,5.88,3.78,5.89,3.79,-3.80,-3.72,-3.76,2.09,2.09,2.10
163.24,5.84,3.79,5.83,3.78,-3.78,-3.73,-3.74,2.06,2.05,2.05
164.88,5.78,3.78,5.78,3.78,-3.77,-3.74,-3.72,2.01,2.01,2.00
166.53,5.72,3.77,5.73,3.77,-3.76,-3.75,-3.70,1.96,1.97,1.95
168.19,5.67,3.75,5.66,3.75,-3.75,-3.76,-3.69,1.93,1.91,1.92
169.87,5.59,3.73,5.60,3.74,-3.73,-3.77,-3.68,1.86,1.87,1.86
171.57,5.53,3.72,5.54,3.72,-3.72,-3.78,-3.67,1.81,1.81,1.81
173.29,5.49,3.72,5.48,3.71,-3.72,-3.79,-3.66,1.78,1.76,1.77
175.02,5.42,3.70,5.43,3.71,-3.71,-3.81,-3.66,1.71,1.72,1.72
176.77,5.38,3.71,5.38,3.71,-3.71,-3.82,-3.66,1.68,1.67,1.67
178.54,5.33,3.70,5.33,3.71,-3.71,-3.84,-3.67,1.62,1.62,1.63
180.32,5.29,3.72,5.29,3.71,-3.71,-3.86,-3.67,1.58,1.58,1.57
182.13,5.26,3.72,5.26,3.72,-3.73,-3.88,-3.68,1.54,1.53,1.54
183.95,5.23,3.74,5.23,3.74,-3.74,-3.90,-3.69,1.49,1.49,1.49
185.79,5.21,3.77,5.21,3.77,-3.77,-3.92,-3.71,1.45,1.45,1.44
187.65,5.20,3.80,5.20,3.80,-3.80,-3.94,-3.72,1.41,1.40,1.40
189.52,5.18,3.82,5.19,3.82,-3.83,-3.96,-3.74,1.35,1.35,1.36
191.42,5.18,3.86,5.18,3.86,-3.87,-3.99,-3.77,1.31,1.31,1.32
193.33,5.18,3.90,5.18,3.91,-3.91,-4.01,-3.79,1.27,1.27,1.28
195.27,5.19,3.96,5.19,3.96,-3.96,-4.04,-3.82,1.24,1.24,1.23
197.22,5.20,4.02,5.20,4.01,-4.00,-4.06,-3.85,1.20,1.20,1.18
199.19,5.20,4.05,5.20,4.06,-4.04,-4.09,-3.88,1.16,1.16,1.15
201.18,5.20,4.09,5.20,4.09,-4.08,-4.12,-3.91,1.12,1.12,1.11
203.19,5.20,4.12,5.20,4.12,-4.11,-4.15,-3.94,1.09,1.09,1.08
205.23,5.20,4.14,5.20,4.14,-4.15,-4.18,-3.98,1.05,1.05,1.06
207.28,5.20,4.17,5.20,4.17,-4.18,-4.20,-4.01,1.02,1.02,1.03
209.35,5.20,4.21,5.20,4.20,-4.21,-4.23,-4.05,0.99,0.99,0.99
211.44,5.20,4.24,5.20,4.24,-4.24,-4.26,-4.09,0.96,0.96,0.96
213.56,5.20,4.26,5.21,4.27,-4.27,-4.28,-4.12,0.93,0.93,0.94
215.69,5.21,4.30,5.21,4.30,-4.31,-4.31,-4.16,0.90,0.90,0.91
217.85,5.22,4.34,5.22,4.34,-4.34,-4.33,-4.20,0.88,0.88,0.88
220.03,5.22,4.37,5.22,4.37,-4.36,-4.35,-4.23,0.86,0.86,0.85
222.23,5.22,4.40,5.22,4.40,-4.39,-4.37,-4.26,0.84,0.84,0.82
224.45,5.22,4.41,5.22,4.41,-4.40,-4.39,-4.29,0.82,0.81,0.81
226.70,5.20,4.42,5.20,4.42,-4.42,-4.40,-4.32,0.79,0.79,0.78
228.96,5.18,4.41,5.18,4.41,-4.42,-4.41,-4.35,0.76,0.76,0.77
231.25,5.16,4.41,5.16,4.41,-4.42,-4.42,-4.37,0.74,0.74,0.75
233.57,5.14,4.41,5.14,4.41,-4.41,-4.42,-4.39,0.73,0.73,0.73
235.90,5.12,4.40,5.12,4.40,-4.40,-4.42,-4.40,0.73,0.72,0.72
238.26,5.09,4.40,5.09,4.38,-4.37,-4.41,-4.41,0.72,0.71,0.69
240.64,5.04,4.34,5.05,4.35,-4.34,-4.40,-4.41,0.70,0.70,0.70
243.05,5.00,4.32,5.00,4.32,-4.31,-4.39,-4.41,0.69,0.69,0.68
245.48,4.94,4.27,4.94,4.27,-4.27,-4.37,-4.41,0.67,0.67,0.67
247.93,4.88,4.22,4.89,4.22,-4.22,-4.34,-4.40,0.66,0.67,0.66
250.41,4.84,4.17,4.83,4.17,-4.17,-4.31,-4.38,0.67,0.66,0.67
252.92,4.77,4.11,4.78,4.12,-4.12,-4.28,-4.36,0.65,0.65,0.66
255.45,4.72,4.07,4.73,4.07,-4.08,-4.24,-4.33,0.65,0.65,0.65
258.00,4.68,4.03,4.67,4.02,-4.03,-4.20,-4.30,0.66,0.65,0.65
260.58,4.62,3.97,4.63,3.98,-3.98,-4.15,-4.26,0.65,0.65,0.65
263.19,4.58,3.93,4.58,3.93,-3.93,-4.10,-4.22,0.66,0.65,0.65
265.82,4.52,3.88,4.53,3.88,-3.88,-4.04,-4.17,0.65,0.65,0.64
268.48,4.48,3.84,4.48,3.84,-3.83,-3.98,-4.12,0.65,0.65,0.64
271.16,4.43,3.79,4.42,3.78,-3.78,-3.92,-4.06,0.65,0.64,0.64
273.87,4.35,3.71,4.36,3.72,-3.73,-3.86,-4.00,0.62,0.63,0.64
276.61,4.30,3.66,4.30,3.67,-3.68,-3.79,-3.93,0.62,0.62,0.64
279.38,4.25,3.63,4.26,3.63,-3.63,-3.73,-3.87,0.62,0.63,0.62
282.17,4.22,3.60,4.22,3.59,-3.58,-3.66,-3.80,0.65,0.64,0.62
284.99,4.18,3.55,4.17,3.54,-3.52,-3.59,-3.72,0.66,0.65,0.63
287.84,4.10,3.46,4.11,3.47,-3.47,-3.52,-3.65,0.64,0.64,0.64
290.72,4.04,3.41,4.04,3.40,-3.41,-3.45,-3.57,0.63,0.63,0.63
293.63,3.98,3.34,3.98,3.34,-3.35,-3.38,-3.49,0.63,0.63,0.64
296.57,3.93,3.28,3.93,3.29,-3.30,-3.31,-3.42,0.63,0.64,0.65
299.53,3.89,3.24,3.89,3.23,-3.24,-3.24,-3.34,0.65,0.65,0.65
302.53,3.85,3.18,3.85,3.19,-3.18,-3.17,-3.26,0.67,0.67,0.67
305.55,3.81,3.15,3.81,3.14,-3.13,-3.10,-3.18,0.68,0.68,0.66
308.61,3.75,3.08,3.75,3.08,-3.08,-3.04,-3.10,0.67,0.68,0.67
311.69,3.70,3.02,3.70,3.03,-3.03,-2.97,-3.02,0.68,0.68,0.68
314.81,3.65,2.97,3.65,2.97,-2.97,-2.91,-2.94,0.68,0.68,0.68
317.96,3.61,2.92,3.61,2.92,-2.92,-2.85,-2.87,0.69,0.69,0.69
321.14,3.56,2.86,3.56,2.86,-2.86,-2.79,-2.79,0.70,0.70,0.70
324.35,3.52,2.82,3.52,2.81,-2.81,-2.73,-2.71,0.72,0.71,0.70
327.59,3.47,2.74,3.47,2.75,-2.75,-2.67,-2.64,0.72,0.72,0.73
330.87,3.42,2.70,3.42,2.70,-2.70,-2.62,-2.57,0.72,0.72,0.72
334.18,3.37,2.64,3.37,2.64,-2.64,-2.57,-2.50,0.73,0.73,0.73
337.52,3.32,2.59,3.32,2.59,-2.59,-2.52,-2.43,0.73,0.74,0.73
340.90,3.28,2.53,3.28,2.53,-2.54,-2.47,-2.36,0.75,0.75,0.75
344.30,3.24,2.48,3.24,2.49,-2.48,-2.43,-2.29,0.76,0.76,0.76
347.75,3.20,2.44,3.20,2.43,-2.43,-2.38,-2.23,0.77,0.77,0.76
351.23,3.15,2.39,3.15,2.38,-2.38,-2.34,-2.17,0.77,0.77,0.76
354.74,3.11,2.32,3.11,2.33,-2.33,-2.30,-2.10,0.78,0.78,0.79
358.28,3.06,2.28,3.07,2.28,-2.28,-2.26,-2.04,0.78,0.79,0.78
361.87,3.02,2.23,3.03,2.23,-2.23,-2.23,-1.99,0.79,0.80,0.79
365.49,2.99,2.19,2.98,2.18,-2.18,-2.19,-1.93,0.82,0.81,0.80
369.14,2.94,2.12,2.94,2.13,-2.13,-2.15,-1.87,0.82,0.82,0.82
372.83,2.89,2.07,2.90,2.08,-2.08,-2.11,-1.82,0.81,0.82,0.82
376.56,2.85,2.03,2.85,2.02,-2.03,-2.07,-1.77,0.82,0.82,0.82
380.33,2.81,1.98,2.81,1.98,-1.99,-2.03,-1.72,0.82,0.83,0.83
384.13,2.78,1.93,2.78,1.94,-1.94,-1.98,-1.67,0.84,0.84,0.85
387.97,2.75,1.90,2.75,1.90,-1.90,-1.94,-1.62,0.86,0.86,0.85
391.85,2.72,1.86,2.72,1.86,-1.85,-1.89,-1.58,0.87,0.87,0.86
395.77,2.69,1.82,2.69,1.82,-1.80,-1.84,-1.53,0.89,0.89,0.87
399.73,2.65,1.77,2.65,1.76,-1.75,-1.78,-1.49,0.90,0.90,0.88
403.72,2.60,1.69,2.60,1.70,-1.70,-1.73,-1.45,0.90,0.90,0.91
407.76,2.55,1.65,2.55,1.64,-1.65,-1.67,-1.40,0.90,0.90,0.90
411.84,2.50,1.59,2.51,1.59,-1.61,-1.62,-1.36,0.90,0.90,0.91
415.96,2.47,1.54,2.47,1.55,-1.56,-1.56,-1.33,0.91,0.91,0.93
420.12,2.44,1.51,2.44,1.51,-1.51,-1.50,-1.29,0.93,0.93,0.93
424.32,2.42,1.48,2.42,1.47,-1.47,-1.45,-1.25,0.96,0.95,0.94
428.56,2.39,1.43,2.39,1.43,-1.42,-1.39,-1.21,0.97,0.97,0.96
432.85,2.35,1.38,2.35,1.39,-1.37,-1.34,-1.18,0.98,0.98,0.97
437.18,2.30,1.34,2.30,1.33,-1.33,-1.29,-1.14,0.98,0.98,0.96
441.55,2.25,1.28,2.25,1.28,-1.28,-1.24,-1.11,0.97,0.97,0.97
445.96,2.20,1.22,2.20,1.22,-1.23,-1.19,-1.08,0.97,0.97,0.98
450.42,2.16,1.17,2.16,1.17,-1.18,-1.14,-1.04,0.98,0.98,0.99
454.93,2.13,1.13,2.13,1.13,-1.14,-1.09,-1.01,0.99,0.99,1.00
459.48,2.10,1.09,2.11,1.09,-1.10,-1.04,-0.98,1.00,1.01,1.01
464.07,2.08,1.05,2.09,1.06,-1.06,-1.00,-0.95,1.03,1.03,1.03
468.71,2.07,1.03,2.06,1.02,-1.01,-0.96,-0.91,1.06,1.05,1.04
473.40,2.03,0.99,2.03,0.99,-0.97,-0.91,-0.88,1.06,1.06,1.04
478.13,1.99,0.94,1.99,0.94,-0.93,-0.87,-0.85,1.06,1.06,1.05
482.91,1.95,0.89,1.95,0.89,-0.89,-0.83,-0.82,1.07,1.06,1.06
487.74,1.90,0.83,1.91,0.83,-0.84,-0.79,-0.79,1.06,1.06,1.07
492.62,1.87,0.79,1.87,0.79,-0.80,-0.75,-0.76,1.07,1.07,1.08
497.55,1.83,0.74,1.83,0.74,-0.76,-0.71,-0.72,1.08,1.08,1.09
502.52,1.81,0.71,1.81,0.71,-0.71,-0.68,-0.69,1.10,1.10,1.10
507.55,1.79,0.67,1.79,0.67,-0.67,-0.64,-0.66,1.12,1.12,1.12
512.62,1.78,0.65,1.77,0.64,-0.63,-0.60,-0.63,1.15,1.14,1.13
517.75,1.74,0.59,1.75,0.60,-0.59,-0.57,-0.60,1.16,1.16,1.15
522.93,1.71,0.55,1.71,0.55,-0.54,-0.53,-0.56,1.17,1.17,1.16
528.16,1.67,0.50,1.67,0.49,-0.49,-0.49,-0.53,1.18,1.17,1.17
