frequency,raw,error,smoothed,error_smoothed,equalization,parametric_eq,fixed_band_eq,equalized_raw,equalized_smoothed,target
20.00,-10.28,-14.91,-10.34,-15.00,15.00,14.37,5.44,4.72,4.66,4.63
20.20,-10.19,-14.87,-10.23,-14.93,14.93,14.47,5.57,4.74,4.70,4.68
20.40,-10.10,-14.83,-10.12,-14.85,14.85,14.56,5.71,4.75,4.73,4.73
20.61,-10.02,-14.78,-10.00,-14.76,14.76,14.63,5.85,4.74,4.77,4.76
20.81,-9.93,-14.74,-9.88,-14.68,14.68,14.68,5.99,4.75,4.80,4.81
21.02,-9.84,-14.69,-9.76,-14.59,14.59,14.72,6.14,4.74,4.82,4.85
21.23,-9.70,-14.57,-9.64,-14.49,14.49,14.74,6.29,4.79,4.85,4.87
21.44,-9.56,-14.45,-9.52,-14.39,14.39,14.74,6.45,4.83,4.87,4.89
21.66,-9.42,-14.33,-9.39,-14.29,14.29,14.73,6.61,4.86,4.89,4.91
21.87,-9.28,-14.20,-9.27,-14.18,14.18,14.70,6.78,4.90,4.91,4.92
22.09,-9.13,-14.07,-9.14,-14.07,14.07,14.65,6.95,4.94,4.93,4.94
22.31,-8.97,-13.92,-9.01,-13.95,13.95,14.60,7.12,4.98,4.94,4.95
22.54,-8.80,-13.75,-8.88,-13.82,13.82,14.52,7.30,5.02,4.95,4.95
22.76,-8.64,-13.59,-8.73,-13.68,13.68,14.44,7.48,5.04,4.95,4.95
22.99,-8.48,-13.42,-8.58,-13.54,13.54,14.35,7.67,5.05,4.95,4.94
23.22,-8.41,-13.35,-8.43,-13.39,13.39,14.24,7.87,4.98,4.95,4.94
23.45,-8.34,-13.28,-8.29,-13.25,13.25,14.13,8.07,4.91,4.95,4.94
23.69,-8.27,-13.22,-8.17,-13.12,13.12,14.01,8.27,4.85,4.95,4.95
23.92,-8.20,-13.15,-8.05,-13.00,13.00,13.89,8.48,4.80,4.95,4.95
24.16,-8.04,-12.99,-7.93,-12.89,12.89,13.76,8.69,4.85,4.95,4.95
24.40,-7.82,-12.78,-7.82,-12.77,12.77,13.63,8.91,4.95,4.95,4.96
24.65,-7.61,-12.56,-7.70,-12.66,12.66,13.49,9.14,5.04,4.95,4.95
24.89,-7.40,-12.35,-7.59,-12.54,12.54,13.35,9.37,5.14,4.95,4.95
25.14,-7.31,-12.26,-7.47,-12.43,12.43,13.21,9.60,5.12,4.95,4.95
25.39,-7.30,-12.26,-7.36,-12.31,12.31,13.07,9.84,5.01,4.95,4.96
25.65,-7.30,-12.26,-7.24,-12.20,12.20,12.93,10.08,4.90,4.96,4.96
25.91,-7.29,-12.24,-7.13,-12.08,12.08,12.80,10.32,4.79,4.95,4.95
26.16,-7.17,-12.12,-7.02,-11.97,11.97,12.66,10.57,4.81,4.95,4.95
26.43,-6.99,-11.95,-6.93,-11.88,11.88,12.52,10.83,4.89,4.95,4.95
26.69,-6.81,-11.76,-6.85,-11.80,11.80,12.39,11.08,4.99,4.95,4.95
26.96,-6.63,-11.58,-6.77,-11.72,11.72,12.25,11.33,5.09,4.95,4.95
27.23,-6.56,-11.51,-6.69,-11.64,11.64,12.12,11.58,5.08,4.95,4.95
27.50,-6.51,-11.46,-6.60,-11.54,11.54,11.99,11.84,5.03,4.95,4.95
27.77,-6.46,-11.40,-6.49,-11.43,11.43,11.87,12.08,4.97,4.94,4.94
28.05,-6.41,-11.35,-6.37,-11.31,11.31,11.75,12.32,4.90,4.94,4.94
28.33,-6.34,-11.27,-6.24,-11.18,11.18,11.63,12.56,4.84,4.94,4.93
28.62,-6.27,-11.20,-6.12,-11.06,11.06,11.51,12.78,4.79,4.94,4.93
28.90,-6.19,-11.13,-6.01,-10.95,10.95,11.39,12.99,4.76,4.94,4.94
29.19,-6.02,-10.95,-5.90,-10.84,10.84,11.28,13.18,4.82,4.94,4.93
29.48,-5.79,-10.73,-5.80,-10.73,10.73,11.17,13.36,4.94,4.93,4.94
29.78,-5.55,-10.48,-5.69,-10.63,10.63,11.06,13.51,5.07,4.93,4.93
30.08,-5.37,-10.32,-5.58,-10.52,10.52,10.96,13.64,5.14,4.93,4.94
30.38,-5.33,-10.26,-5.47,-10.40,10.40,10.86,13.74,5.07,4.93,4.93
30.68,-5.30,-10.23,-5.36,-10.28,10.28,10.76,13.80,4.98,4.93,4.93
30.99,-5.26,-10.19,-5.24,-10.17,10.17,10.66,13.84,4.91,4.93,4.93
31.30,-5.17,-10.09,-5.13,-10.05,10.05,10.56,13.85,4.88,4.92,4.92
31.61,-5.07,-9.99,-5.03,-9.95,9.95,10.46,13.82,4.88,4.92,4.92
31.93,-4.97,-9.89,-4.93,-9.85,9.85,10.37,13.76,4.88,4.92,4.92
32.24,-4.88,-9.79,-4.84,-9.76,9.76,10.27,13.68,4.88,4.91,4.91
32.57,-4.78,-9.69,-4.75,-9.66,9.66,10.18,13.56,4.88,4.91,4.91
32.89,-4.69,-9.60,-4.67,-9.57,9.57,10.08,13.42,4.88,4.91,4.91
33.22,-4.58,-9.48,-4.57,-9.47,9.47,9.99,13.25,4.89,4.90,4.90
33.55,-4.46,-9.36,-4.47,-9.37,9.37,9.90,13.06,4.91,4.90,4.90
33.89,-4.34,-9.23,-4.36,-9.25,9.25,9.80,12.86,4.91,4.89,4.89
34.23,-4.24,-9.13,-4.26,-9.15,9.15,9.71,12.64,4.91,4.89,4.89
34.57,-4.16,-9.04,-4.16,-9.04,9.04,9.61,12.42,4.88,4.88,4.88
34.92,-4.07,-8.95,-4.07,-8.95,8.95,9.51,12.18,4.87,4.88,4.88
35.27,-3.94,-8.81,-3.96,-8.84,8.84,9.41,11.94,4.89,4.88,4.87
35.62,-3.80,-8.67,-3.84,-8.72,8.72,9.31,11.69,4.91,4.87,4.87
35.97,-3.66,-8.53,-3.73,-8.60,8.60,9.21,11.44,4.94,4.87,4.87
36.33,-3.62,-8.49,-3.62,-8.49,8.49,9.11,11.19,4.87,4.87,4.87
36.70,-3.58,-8.44,-3.52,-8.39,8.39,9.00,10.94,4.81,4.87,4.86
37.06,-3.53,-8.39,-3.42,-8.29,8.29,8.90,10.69,4.76,4.87,4.86
37.43,-3.39,-8.26,-3.32,-8.19,8.19,8.79,10.44,4.80,4.87,4.87
37.81,-3.25,-8.12,-3.22,-8.09,8.09,8.68,10.19,4.84,4.87,4.87
38.19,-3.09,-7.95,-3.12,-7.99,7.99,8.56,9.95,4.89,4.87,4.86
38.57,-2.90,-7.77,-3.01,-7.88,7.88,8.45,9.72,4.98,4.87,4.87
38.95,-2.71,-7.59,-2.91,-7.78,7.78,8.33,9.49,5.07,4.87,4.88
39.34,-2.75,-7.62,-2.81,-7.68,7.68,8.21,9.26,4.93,4.87,4.87
39.74,-2.81,-7.68,-2.71,-7.58,7.58,8.09,9.04,4.77,4.87,4.87
40.14,-2.78,-7.65,-2.60,-7.48,7.48,7.97,8.82,4.69,4.87,4.87
40.54,-2.57,-7.44,-2.50,-7.37,7.37,7.85,8.61,4.79,4.87,4.87
40.94,-2.37,-7.23,-2.40,-7.26,7.26,7.72,8.40,4.89,4.86,4.86
41.35,-2.27,-7.13,-2.30,-7.16,7.16,7.60,8.20,4.89,4.86,4.86
41.76,-2.18,-7.03,-2.20,-7.06,7.06,7.47,8.00,4.87,4.85,4.85
42.18,-2.09,-6.94,-2.11,-6.96,6.96,7.34,7.81,4.87,4.84,4.85
42.60,-2.01,-6.85,-2.03,-6.87,6.87,7.21,7.62,4.86,4.83,4.84
43.03,-1.93,-6.76,-1.96,-6.78,6.78,7.08,7.44,4.85,4.82,4.83
43.46,-1.85,-6.67,-1.86,-6.67,6.67,6.95,7.26,4.82,4.81,4.82
43.90,-1.76,-6.56,-1.75,-6.55,6.55,6.83,7.09,4.79,4.80,4.80
44.33,-1.68,-6.46,-1.67,-6.46,6.46,6.70,6.92,4.78,4.79,4.78
44.78,-1.59,-6.35,-1.62,-6.40,6.40,6.57,6.76,4.80,4.77,4.76
45.23,-1.51,-6.26,-1.56,-6.32,6.32,6.44,6.60,4.81,4.76,4.75
45.68,-1.44,-6.18,-1.48,-6.23,6.23,6.31,6.45,4.79,4.75,4.74
46.13,-1.39,-6.11,-1.40,-6.13,6.13,6.19,6.30,4.74,4.73,4.72
46.60,-1.38,-6.10,-1.32,-6.03,6.03,6.06,6.15,4.65,4.72,4.72
47.06,-1.35,-6.05,-1.23,-5.93,5.93,5.93,6.01,4.58,4.70,4.70
47.53,-1.16,-5.85,-1.14,-5.83,5.83,5.81,5.88,4.67,4.69,4.69
48.01,-0.98,-5.67,-1.07,-5.74,5.74,5.69,5.74,4.76,4.67,4.69
48.49,-1.08,-5.75,-0.99,-5.65,5.65,5.57,5.61,4.57,4.66,4.67
48.97,-1.17,-5.82,-0.90,-5.55,5.55,5.45,5.49,4.38,4.65,4.65
49.46,-0.79,-5.42,-0.80,-5.43,5.43,5.33,5.36,4.64,4.63,4.63
49.96,-0.38,-4.99,-0.71,-5.33,5.33,5.21,5.24,4.95,4.62,4.61
50.46,-0.47,-5.07,-0.63,-5.24,5.24,5.10,5.13,4.76,4.61,4.60
50.96,-0.61,-5.20,-0.55,-5.14,5.14,4.99,5.01,4.53,4.59,4.59
51.47,-0.51,-5.08,-0.47,-5.05,5.05,4.88,4.90,4.53,4.58,4.57
51.99,-0.39,-4.95,-0.39,-4.95,4.95,4.77,4.80,4.56,4.57,4.56
52.51,-0.38,-4.93,-0.31,-4.86,4.86,4.66,4.69,4.48,4.55,4.55
53.03,-0.36,-4.91,-0.24,-4.78,4.78,4.55,4.59,4.42,4.54,4.55
53.56,-0.08,-4.61,-0.18,-4.71,4.71,4.45,4.49,4.62,4.53,4.53
54.10,0.11,-4.41,-0.11,-4.63,4.63,4.35,4.39,4.74,4.52,4.52
54.64,-0.12,-4.62,-0.06,-4.56,4.56,4.25,4.30,4.44,4.51,4.50
55.18,-0.21,-4.71,-0.04,-4.54,4.54,4.15,4.21,4.33,4.50,4.50
55.74,-0.02,-4.50,-0.02,-4.51,4.51,4.05,4.12,4.49,4.49,4.48
56.29,0.10,-4.37,0.04,-4.44,4.44,3.96,4.03,4.54,4.47,4.47
56.86,0.16,-4.30,0.10,-4.36,4.36,3.87,3.94,4.52,4.46,4.46
57.42,0.21,-4.22,0.15,-4.29,4.29,3.77,3.86,4.50,4.44,4.43
58.00,0.27,-4.15,0.18,-4.25,4.25,3.69,3.77,4.51,4.42,4.42
58.58,0.16,-4.25,0.21,-4.19,4.19,3.60,3.69,4.35,4.40,4.41
59.16,0.12,-4.27,0.25,-4.13,4.13,3.51,3.61,4.25,4.38,4.39
59.76,0.28,-4.09,0.29,-4.06,4.06,3.43,3.53,4.33,4.35,4.37
60.35,0.28,-4.05,0.34,-3.97,3.97,3.35,3.45,4.25,4.32,4.33
60.96,0.18,-4.11,0.40,-3.89,3.89,3.26,3.38,4.07,4.29,4.29
61.57,0.51,-3.74,0.43,-3.82,3.82,3.19,3.30,4.32,4.25,4.25
62.18,0.73,-3.48,0.47,-3.74,3.74,3.11,3.23,4.47,4.21,4.21
62.80,0.61,-3.55,0.53,-3.64,3.64,3.03,3.15,4.25,4.17,4.16
63.43,0.48,-3.64,0.57,-3.55,3.55,2.96,3.08,4.03,4.13,4.12
64.07,0.41,-3.66,0.61,-3.47,3.47,2.88,3.01,3.88,4.08,4.07
64.71,0.80,-3.23,0.66,-3.38,3.38,2.81,2.94,4.18,4.04,4.03
65.35,0.90,-3.09,0.72,-3.27,3.27,2.74,2.87,4.17,3.99,3.99
66.01,0.77,-3.17,0.78,-3.16,3.16,2.67,2.80,3.93,3.94,3.94
66.67,0.64,-3.25,0.82,-3.07,3.07,2.61,2.73,3.71,3.89,3.89
67.33,0.71,-3.13,0.86,-2.99,2.99,2.54,2.66,3.70,3.85,3.84
68.01,0.97,-2.83,0.89,-2.91,2.91,2.47,2.60,3.88,3.80,3.80
68.69,1.08,-2.67,0.91,-2.84,2.84,2.41,2.53,3.92,3.75,3.75
69.37,0.99,-2.71,0.95,-2.75,2.75,2.35,2.47,3.73,3.70,3.70
70.07,0.79,-2.86,1.01,-2.64,2.64,2.29,2.40,3.43,3.65,3.65
70.77,1.01,-2.59,1.05,-2.54,2.54,2.23,2.34,3.55,3.59,3.60
71.48,1.20,-2.35,1.07,-2.47,2.47,2.17,2.27,3.66,3.54,3.55
72.19,1.28,-2.20,1.08,-2.40,2.40,2.11,2.21,3.68,3.48,3.48
72.91,1.07,-2.35,1.11,-2.32,2.32,2.05,2.15,3.39,3.42,3.42
73.64,1.00,-2.37,1.15,-2.22,2.22,2.00,2.09,3.22,3.37,3.37
74.38,1.09,-2.22,1.18,-2.13,2.13,1.94,2.03,3.22,3.31,3.31
75.12,1.28,-1.97,1.20,-2.06,2.06,1.89,1.97,3.34,3.26,3.25
75.87,1.28,-1.91,1.20,-2.00,2.00,1.84,1.91,3.28,3.20,3.19
76.63,1.28,-1.86,1.22,-1.93,1.93,1.79,1.85,3.21,3.15,3.14
77.40,1.21,-1.88,1.24,-1.85,1.85,1.73,1.79,3.06,3.09,3.09
78.17,1.12,-1.91,1.26,-1.78,1.78,1.68,1.74,2.90,3.04,3.03
78.95,1.22,-1.77,1.26,-1.72,1.72,1.63,1.68,2.94,2.99,2.99
79.74,1.34,-1.60,1.28,-1.66,1.66,1.59,1.62,3.00,2.94,2.94
80.54,1.38,-1.51,1.30,-1.59,1.59,1.54,1.57,2.97,2.89,2.89
81.35,1.38,-1.46,1.34,-1.51,1.51,1.49,1.51,2.89,2.84,2.84
82.16,1.37,-1.42,1.36,-1.44,1.44,1.45,1.46,2.81,2.79,2.79
82.98,1.29,-1.46,1.37,-1.38,1.38,1.40,1.41,2.67,2.75,2.75
83.81,1.25,-1.45,1.38,-1.32,1.32,1.36,1.35,2.57,2.70,2.70
84.65,1.40,-1.25,1.40,-1.25,1.25,1.31,1.30,2.65,2.65,2.65
85.50,1.48,-1.13,1.42,-1.18,1.18,1.27,1.25,2.66,2.60,2.61
86.35,1.48,-1.08,1.44,-1.11,1.11,1.22,1.20,2.59,2.55,2.56
87.22,1.48,-1.03,1.46,-1.05,1.05,1.18,1.15,2.53,2.50,2.51
88.09,1.48,-0.98,1.46,-1.00,1.00,1.14,1.10,2.47,2.45,2.46
88.97,1.48,-0.92,1.46,-0.95,0.95,1.10,1.05,2.43,2.40,2.40
89.86,1.48,-0.87,1.47,-0.89,0.89,1.06,1.00,2.36,2.35,2.35
90.76,1.48,-0.82,1.49,-0.81,0.81,1.02,0.95,2.29,2.30,2.30
91.66,1.48,-0.77,1.51,-0.75,0.75,0.98,0.90,2.22,2.25,2.25
92.58,1.49,-0.70,1.52,-0.68,0.68,0.94,0.85,2.17,2.20,2.19
93.51,1.48,-0.66,1.51,-0.63,0.63,0.90,0.81,2.11,2.15,2.14
94.44,1.48,-0.62,1.50,-0.60,0.60,0.86,0.76,2.08,2.10,2.10
95.39,1.48,-0.57,1.49,-0.56,0.56,0.83,0.71,2.04,2.05,2.05
96.34,1.48,-0.52,1.48,-0.52,0.52,0.79,0.67,2.00,2.00,2.00
97.30,1.47,-0.48,1.46,-0.49,0.49,0.75,0.62,1.96,1.95,1.95
98.28,1.51,-0.39,1.45,-0.45,0.45,0.72,0.57,1.96,1.90,1.90
99.26,1.59,-0.27,1.44,-0.42,0.42,0.68,0.53,2.01,1.86,1.86
100.25,1.51,-0.30,1.42,-0.39,0.39,0.64,0.48,1.89,1.81,1.81
101.25,1.31,-0.45,1.40,-0.36,0.36,0.61,0.44,1.67,1.76,1.76
102.27,1.30,-0.41,1.37,-0.34,0.34,0.57,0.40,1.64,1.71,1.71
103.29,1.29,-0.37,1.34,-0.33,0.33,0.54,0.35,1.62,1.66,1.66
104.32,1.27,-0.35,1.30,-0.32,0.32,0.51,0.31,1.59,1.61,1.62
105.37,1.25,-0.32,1.26,-0.31,0.31,0.47,0.27,1.56,1.56,1.57
106.42,1.22,-0.30,1.22,-0.29,0.29,0.44,0.23,1.51,1.51,1.52
107.48,1.24,-0.22,1.19,-0.27,0.27,0.40,0.19,1.51,1.46,1.46
108.56,1.27,-0.14,1.16,-0.25,0.25,0.37,0.15,1.52,1.41,1.41
109.64,1.13,-0.23,1.13,-0.23,0.23,0.34,0.12,1.36,1.36,1.36
110.74,1.04,-0.26,1.10,-0.20,0.20,0.31,0.08,1.24,1.30,1.30
111.85,1.01,-0.25,1.09,-0.16,0.16,0.28,0.04,1.17,1.25,1.26
112.97,1.01,-0.19,1.07,-0.13,0.13,0.24,0.01,1.14,1.20,1.20
114.10,1.00,-0.15,1.04,-0.11,0.11,0.21,-0.02,1.11,1.15,1.15
115.24,1.01,-0.09,1.01,-0.10,0.10,0.18,-0.05,1.11,1.11,1.10
116.39,1.07,0.02,0.99,-0.07,0.07,0.15,-0.08,1.14,1.06,1.05
117.55,1.10,0.09,0.97,-0.05,0.05,0.12,-0.11,1.15,1.02,1.01
118.73,0.98,0.01,0.95,-0.03,0.03,0.09,-0.14,1.00,0.98,0.97
119.92,0.91,-0.03,0.94,-0.00,0.00,0.06,-0.16,0.91,0.94,0.94
121.12,0.92,0.02,0.93,0.02,-0.02,0.03,-0.19,0.90,0.91,0.90
122.33,0.91,0.04,0.92,0.05,-0.05,0.01,-0.21,0.86,0.87,0.87
123.55,0.83,-0.01,0.91,0.07,-0.07,-0.02,-0.23,0.76,0.84,0.84
124.79,0.76,-0.05,0.88,0.08,-0.08,-0.05,-0.24,0.68,0.81,0.81
126.03,0.84,0.06,0.86,0.08,-0.08,-0.08,-0.26,0.76,0.78,0.78
127.29,0.91,0.15,0.83,0.08,-0.08,-0.11,-0.27,0.83,0.75,0.76
128.57,0.94,0.22,0.79,0.07,-0.07,-0.13,-0.28,0.87,0.72,0.72
129.85,0.81,0.12,0.76,0.07,-0.07,-0.16,-0.29,0.74,0.69,0.69
131.15,0.77,0.11,0.74,0.08,-0.08,-0.18,-0.30,0.69,0.66,0.66
132.46,0.73,0.10,0.73,0.10,-0.10,-0.21,-0.31,0.63,0.63,0.63
133.79,0.69,0.09,0.71,0.11,-0.11,-0.23,-0.31,0.58,0.60,0.60
135.12,0.64,0.07,0.70,0.12,-0.12,-0.26,-0.32,0.52,0.58,0.57
136.48,0.60,0.05,0.68,0.13,-0.13,-0.28,-0.32,0.47,0.55,0.55
137.84,0.59,0.08,0.65,0.13,-0.13,-0.30,-0.32,0.46,0.52,0.51
139.22,0.59,0.11,0.63,0.14,-0.14,-0.32,-0.32,0.45,0.49,0.48
140.61,0.60,0.15,0.60,0.14,-0.14,-0.35,-0.32,0.46,0.46,0.45
142.02,0.60,0.17,0.58,0.15,-0.15,-0.37,-0.31,0.45,0.43,0.43
143.44,0.66,0.26,0.55,0.16,-0.16,-0.39,-0.31,0.50,0.40,0.40
144.87,0.63,0.27,0.54,0.18,-0.18,-0.40,-0.30,0.45,0.36,0.36
146.32,0.54,0.22,0.52,0.20,-0.20,-0.42,-0.30,0.33,0.31,0.32
147.78,0.49,0.20,0.50,0.23,-0.23,-0.44,-0.29,0.26,0.26,0.29
149.26,0.48,0.24,0.48,0.27,-0.27,-0.46,-0.29,0.21,0.21,0.24
150.75,0.39,0.21,0.46,0.31,-0.31,-0.47,-0.28,0.08,0.15,0.18
152.26,0.40,0.29,0.44,0.35,-0.35,-0.49,-0.27,0.05,0.09,0.11
153.78,0.45,0.41,0.41,0.39,-0.39,-0.50,-0.27,0.06,0.03,0.04
155.32,0.35,0.38,0.38,0.42,-0.42,-0.51,-0.26,-0.07,-0.04,-0.03
156.88,0.30,0.41,0.34,0.46,-0.46,-0.53,-0.25,-0.16,-0.11,-0.11
158.44,0.30,0.49,0.31,0.49,-0.49,-0.54,-0.24,-0.20,-0.18,-0.19
160.03,0.30,0.57,0.28,0.53,-0.53,-0.55,-0.24,-0.24,-0.25,-0.27
161.63,0.29,0.63,0.26,0.58,-0.58,-0.56,-0.23,-0.29,-0.32,-0.34
163.24,0.29,0.69,0.24,0.62,-0.62,-0.56,-0.22,-0.33,-0.38,-0.40
164.88,0.27,0.72,0.22,0.65,-0.65,-0.57,-0.21,-0.38,-0.43,-0.45
166.53,0.20,0.70,0.19,0.67,-0.67,-0.58,-0.21,-0.47,-0.48,-0.50
168.19,0.12,0.66,0.16,0.68,-0.68,-0.58,-0.20,-0.56,-0.52,-0.54
169.87,0.07,0.65,0.13,0.68,-0.68,-0.58,-0.19,-0.61,-0.56,-0.58
171.57,0.06,0.66,0.10,0.68,-0.68,-0.59,-0.19,-0.62,-0.58,-0.60
173.29,0.07,0.68,0.07,0.67,-0.67,-0.59,-0.18,-0.60,-0.60,-0.61
175.02,0.11,0.73,0.04,0.65,-0.65,-0.59,-0.17,-0.55,-0.61,-0.62
176.77,0.05,0.68,0.01,0.63,-0.63,-0.59,-0.17,-0.58,-0.62,-0.63
178.54,-0.03,0.61,-0.02,0.61,-0.61,-0.58,-0.16,-0.64,-0.63,-0.64
180.32,-0.05,0.58,-0.05,0.59,-0.59,-0.58,-0.16,-0.64,-0.64,-0.63
182.13,-0.06,0.56,-0.07,0.58,-0.58,-0.57,-0.15,-0.64,-0.64,-0.62
183.95,-0.14,0.49,-0.08,0.57,-0.57,-0.57,-0.15,-0.71,-0.65,-0.63
185.79,-0.13,0.50,-0.10,0.56,-0.56,-0.56,-0.14,-0.69,-0.65,-0.63
187.65,-0.09,0.56,-0.11,0.55,-0.55,-0.55,-0.14,-0.64,-0.66,-0.65
189.52,-0.16,0.50,-0.13,0.54,-0.54,-0.55,-0.14,-0.70,-0.67,-0.66
191.42,-0.18,0.50,-0.14,0.54,-0.54,-0.54,-0.13,-0.72,-0.68,-0.68
193.33,-0.17,0.53,-0.16,0.54,-0.54,-0.53,-0.13,-0.71,-0.70,-0.70
195.27,-0.15,0.57,-0.17,0.54,-0.54,-0.51,-0.13,-0.69,-0.72,-0.72
197.22,-0.13,0.61,-0.19,0.54,-0.54,-0.50,-0.12,-0.68,-0.74,-0.74
199.19,-0.15,0.61,-0.21,0.54,-0.54,-0.49,-0.12,-0.70,-0.75,-0.76
201.18,-0.21,0.57,-0.24,0.54,-0.54,-0.47,-0.12,-0.75,-0.78,-0.78
203.19,-0.28,0.52,-0.26,0.53,-0.53,-0.46,-0.12,-0.81,-0.80,-0.80
205.23,-0.31,0.51,-0.29,0.53,-0.53,-0.44,-0.11,-0.84,-0.82,-0.82
207.28,-0.31,0.52,-0.32,0.52,-0.52,-0.42,-0.11,-0.83,-0.84,-0.83
209.35,-0.30,0.55,-0.35,0.51,-0.51,-0.41,-0.11,-0.81,-0.86,-0.85
211.44,-0.30,0.58,-0.38,0.50,-0.50,-0.39,-0.11,-0.80,-0.87,-0.88
213.56,-0.46,0.43,-0.41,0.48,-0.48,-0.37,-0.10,-0.94,-0.89,-0.89
215.69,-0.54,0.36,-0.44,0.46,-0.46,-0.35,-0.10,-1.00,-0.90,-0.90
217.85,-0.53,0.38,-0.48,0.44,-0.44,-0.33,-0.10,-0.97,-0.91,-0.91
220.03,-0.53,0.39,-0.51,0.41,-0.41,-0.31,-0.09,-0.94,-0.92,-0.92
222.23,-0.53,0.42,-0.54,0.39,-0.39,-0.29,-0.09,-0.92,-0.93,-0.95
224.45,-0.51,0.43,-0.56,0.37,-0.37,-0.26,-0.09,-0.88,-0.93,-0.94
226.70,-0.52,0.42,-0.59,0.34,-0.34,-0.24,-0.09,-0.86,-0.93,-0.94
228.96,-0.63,0.30,-0.62,0.31,-0.31,-0.22,-0.08,-0.94,-0.93,-0.93
231.25,-0.62,0.30,-0.65,0.27,-0.27,-0.20,-0.08,-0.89,-0.92,-0.92
233.57,-0.64,0.27,-0.67,0.24,-0.24,-0.17,-0.07,-0.88,-0.91,-0.91
235.90,-0.70,0.20,-0.68,0.21,-0.21,-0.15,-0.07,-0.91,-0.89,-0.90
238.26,-0.72,0.17,-0.68,0.19,-0.19,-0.12,-0.06,-0.91,-0.88,-0.89
240.64,-0.76,0.10,-0.70,0.16,-0.16,-0.10,-0.06,-0.92,-0.86,-0.86
243.05,-0.74,0.09,-0.72,0.12,-0.12,-0.08,-0.05,-0.86,-0.84,-0.83
245.48,-0.72,0.09,-0.73,0.08,-0.08,-0.05,-0.04,-0.80,-0.81,-0.81
247.93,-0.77,0.01,-0.75,0.04,-0.04,-0.02,-0.04,-0.81,-0.79,-0.78
250.41,-0.79,-0.03,-0.78,-0.01,0.01,0.00,-0.03,-0.78,-0.77,-0.76
252.92,-0.77,-0.04,-0.80,-0.06,0.06,0.03,-0.02,-0.71,-0.74,-0.73
255.45,-0.76,-0.05,-0.82,-0.11,0.11,0.05,-0.01,-0.66,-0.72,-0.71
258.00,-0.75,-0.06,-0.85,-0.16,0.16,0.08,0.00,-0.59,-0.69,-0.69
260.58,-0.80,-0.13,-0.88,-0.21,0.21,0.10,0.01,-0.59,-0.67,-0.67
263.19,-0.85,-0.21,-0.89,-0.25,0.25,0.13,0.02,-0.60,-0.64,-0.64
265.82,-0.93,-0.31,-0.91,-0.29,0.29,0.16,0.03,-0.64,-0.62,-0.62
268.48,-0.95,-0.35,-0.93,-0.33,0.33,0.18,0.05,-0.62,-0.59,-0.60
271.16,-0.99,-0.42,-0.94,-0.37,0.37,0.21,0.06,-0.62,-0.57,-0.57
273.87,-1.06,-0.51,-0.95,-0.40,0.40,0.24,0.07,-0.66,-0.54,-0.55
276.61,-1.06,-0.54,-0.95,-0.43,0.43,0.26,0.09,-0.63,-0.52,-0.52
279.38,-1.00,-0.51,-0.95,-0.45,0.45,0.29,0.10,-0.55,-0.49,-0.49
282.17,-0.96,-0.49,-0.94,-0.48,0.48,0.31,0.12,-0.49,-0.46,-0.47
284.99,-0.90,-0.47,-0.93,-0.49,0.49,0.34,0.13,-0.41,-0.43,-0.43
287.84,-0.82,-0.41,-0.91,-0.50,0.50,0.37,0.15,-0.32,-0.41,-0.41
290.72,-0.81,-0.43,-0.87,-0.50,0.50,0.39,0.16,-0.31,-0.38,-0.38
293.63,-0.88,-0.53,-0.84,-0.50,0.50,0.42,0.18,-0.38,-0.35,-0.35
296.57,-0.82,-0.50,-0.82,-0.50,0.50,0.45,0.20,-0.32,-0.32,-0.32
299.53,-0.75,-0.46,-0.80,-0.51,0.51,0.47,0.22,-0.24,-0.29,-0.29
302.53,-0.77,-0.50,-0.78,-0.52,0.52,0.50,0.23,-0.25,-0.26,-0.27
305.55,-0.77,-0.54,-0.77,-0.53,0.53,0.52,0.25,-0.24,-0.24,-0.23
308.61,-0.76,-0.55,-0.76,-0.55,0.55,0.55,0.27,-0.21,-0.21,-0.21
311.69,-0.76,-0.58,-0.77,-0.58,0.58,0.57,0.29,-0.18,-0.19,-0.18
314.81,-0.75,-0.59,-0.79,-0.62,0.62,0.60,0.31,-0.13,-0.17,-0.16
317.96,-0.75,-0.61,-0.80,-0.66,0.66,0.62,0.33,-0.10,-0.15,-0.14
321.14,-0.77,-0.64,-0.81,-0.69,0.69,0.65,0.35,-0.08,-0.13,-0.13
324.35,-0.90,-0.79,-0.82,-0.71,0.71,0.67,0.37,-0.19,-0.11,-0.11
327.59,-0.91,-0.81,-0.83,-0.74,0.74,0.70,0.39,-0.18,-0.10,-0.10
330.87,-0.87,-0.78,-0.86,-0.77,0.77,0.72,0.42,-0.10,-0.08,-0.09
334.18,-0.86,-0.79,-0.89,-0.82,0.82,0.75,0.44,-0.05,-0.07,-0.07
337.52,-0.86,-0.80,-0.91,-0.85,0.85,0.77,0.46,-0.01,-0.06,-0.06
340.90,-1.00,-0.95,-0.94,-0.89,0.89,0.79,0.48,-0.11,-0.05,-0.05
344.30,-1.04,-1.00,-0.97,-0.93,0.93,0.82,0.51,-0.11,-0.05,-0.04
347.75,-0.92,-0.88,-1.01,-0.97,0.97,0.84,0.53,0.04,-0.04,-0.04
351.23,-0.89,-0.86,-1.03,-0.99,0.99,0.86,0.56,0.10,-0.03,-0.03
354.74,-1.01,-0.97,-1.04,-1.01,1.01,0.89,0.58,0.00,-0.03,-0.04
358.28,-1.05,-1.02,-1.05,-1.03,1.03,0.91,0.61,-0.03,-0.03,-0.03
361.87,-1.14,-1.11,-1.06,-1.04,1.04,0.93,0.63,-0.10,-0.03,-0.03
365.49,-1.23,-1.21,-1.08,-1.06,1.06,0.95,0.66,-0.18,-0.03,-0.02
369.14,-1.16,-1.13,-1.10,-1.07,1.07,0.97,0.69,-0.09,-0.03,-0.03
372.83,-1.13,-1.10,-1.11,-1.08,1.08,0.99,0.71,-0.05,-0.03,-0.03
376.56,-1.12,-1.08,-1.12,-1.09,1.09,1.01,0.74,-0.03,-0.03,-0.04
380.33,-1.11,-1.08,-1.13,-1.10,1.10,1.03,0.77,-0.02,-0.03,-0.03
384.13,-1.08,-1.05,-1.14,-1.11,1.11,1.05,0.80,0.02,-0.04,-0.03
387.97,-1.02,-0.98,-1.16,-1.12,1.12,1.07,0.83,0.10,-0.04,-0.04
391.85,-1.10,-1.05,-1.17,-1.12,1.12,1.09,0.85,0.02,-0.05,-0.05
395.77,-1.18,-1.14,-1.16,-1.11,1.11,1.11,0.88,-0.07,-0.05,-0.04
399.73,-1.20,-1.15,-1.16,-1.10,1.10,1.12,0.91,-0.10,-0.06,-0.05
403.72,-1.20,-1.15,-1.16,-1.10,1.10,1.14,0.94,-0.10,-0.06,-0.05
407.76,-1.20,-1.13,-1.18,-1.11,1.11,1.16,0.97,-0.09,-0.07,-0.07
411.84,-1.21,-1.14,-1.20,-1.13,1.13,1.17,1.00,-0.08,-0.07,-0.07
415.96,-1.21,-1.14,-1.21,-1.14,1.14,1.19,1.03,-0.07,-0.07,-0.07
420.12,-1.21,-1.14,-1.21,-1.15,1.15,1.21,1.06,-0.07,-0.07,-0.07
424.32,-1.20,-1.13,-1.21,-1.15,1.15,1.22,1.09,-0.05,-0.06,-0.07
428.56,-1.19,-1.13,-1.21,-1.16,1.16,1.23,1.12,-0.03,-0.05,-0.06
432.85,-1.18,-1.13,-1.20,-1.16,1.16,1.25,1.14,-0.02,-0.04,-0.05
437.18,-1.15,-1.11,-1.18,-1.16,1.16,1.26,1.17,0.01,-0.02,-0.04
441.55,-1.22,-1.22,-1.14,-1.15,1.15,1.27,1.20,-0.07,0.01,0.00
445.96,-1.26,-1.29,-1.11,-1.15,1.15,1.28,1.22,-0.11,0.04,0.03
450.42,-1.14,-1.20,-1.09,-1.16,1.16,1.29,1.25,0.02,0.08,0.06
454.93,-1.02,-1.13,-1.06,-1.18,1.18,1.30,1.27,0.16,0.12,0.11
459.48,-0.90,-1.05,-1.03,-1.19,1.19,1.31,1.29,0.29,0.16,0.15
464.07,-0.97,-1.17,-1.00,-1.21,1.21,1.32,1.31,0.23,0.21,0.20
468.71,-0.98,-1.24,-0.97,-1.22,1.22,1.33,1.33,0.24,0.26,0.26
473.40,-0.92,-1.22,-0.93,-1.24,1.24,1.34,1.35,0.32,0.30,0.30
478.13,-0.87,-1.23,-0.90,-1.25,1.25,1.35,1.37,0.38,0.35,0.36
482.91,-0.82,-1.22,-0.87,-1.27,1.27,1.35,1.38,0.45,0.40,0.40
487.74,-0.80,-1.24,-0.84,-1.28,1.28,1.36,1.40,0.48,0.44,0.44
