frequency,raw,error,smoothed,error_smoothed,equalization,parametric_eq,fixed_band_eq,equalized_raw,equalized_smoothed,target
20.00,0.65,-4.77,0.65,-4.77,4.77,4.26,1.47,5.43,5.43,5.43
20.20,0.69,-4.72,0.69,-4.72,4.72,4.26,1.51,5.41,5.41,5.42
20.40,0.73,-4.67,0.73,-4.67,4.67,4.26,1.56,5.40,5.40,5.41
20.61,0.77,-4.62,0.78,-4.62,4.62,4.26,1.60,5.39,5.39,5.40
20.81,0.82,-4.55,0.82,-4.56,4.56,4.26,1.65,5.39,5.38,5.38
21.02,0.86,-4.50,0.87,-4.50,4.51,4.25,1.70,5.37,5.38,5.37
21.23,0.91,-4.44,0.91,-4.45,4.46,4.24,1.75,5.37,5.37,5.36
21.44,0.95,-4.41,0.95,-4.40,4.40,4.23,1.80,5.36,5.36,5.37
21.66,0.99,-4.35,1.00,-4.35,4.35,4.22,1.86,5.34,5.35,5.35
21.87,1.04,-4.30,1.04,-4.30,4.29,4.21,1.91,5.34,5.33,5.35
22.09,1.08,-4.24,1.09,-4.24,4.24,4.20,1.97,5.32,5.32,5.33
22.31,1.13,-4.18,1.13,-4.18,4.18,4.18,2.03,5.32,5.32,5.32
22.54,1.18,-4.12,1.18,-4.13,4.13,4.16,2.09,5.31,5.31,5.31
22.76,1.23,-4.07,1.23,-4.07,4.07,4.14,2.15,5.30,5.30,5.31
22.99,1.28,-4.01,1.28,-4.01,4.02,4.12,2.21,5.30,5.30,5.30
23.22,1.33,-3.95,1.33,-3.96,3.97,4.10,2.28,5.30,5.30,5.29
23.45,1.38,-3.91,1.38,-3.91,3.92,4.07,2.34,5.30,5.30,5.30
23.69,1.41,-3.87,1.42,-3.87,3.87,4.05,2.41,5.29,5.29,5.29
23.92,1.45,-3.82,1.45,-3.83,3.83,4.02,2.48,5.29,5.28,5.28
24.16,1.48,-3.80,1.49,-3.80,3.79,3.99,2.55,5.27,5.28,5.29
24.40,1.52,-3.76,1.52,-3.76,3.75,3.96,2.62,5.28,5.28,5.29
24.65,1.56,-3.71,1.56,-3.72,3.71,3.93,2.69,5.28,5.27,5.28
24.89,1.60,-3.67,1.60,-3.67,3.67,3.89,2.76,5.28,5.27,5.28
25.14,1.63,-3.63,1.64,-3.63,3.63,3.86,2.83,5.26,5.27,5.27
25.39,1.67,-3.59,1.67,-3.59,3.59,3.82,2.91,5.26,5.26,5.27
25.65,1.71,-3.55,1.72,-3.55,3.55,3.79,2.98,5.26,5.26,5.27
25.91,1.76,-3.50,1.76,-3.51,3.51,3.75,3.05,5.27,5.27,5.27
26.16,1.80,-3.47,1.80,-3.47,3.47,3.71,3.12,5.28,5.28,5.28
26.43,1.84,-3.42,1.84,-3.43,3.44,3.68,3.20,5.28,5.28,5.27
26.69,1.86,-3.40,1.87,-3.40,3.41,3.64,3.27,5.27,5.27,5.27
26.96,1.89,-3.37,1.89,-3.37,3.38,3.60,3.33,5.27,5.27,5.27
27.23,1.91,-3.35,1.91,-3.35,3.34,3.55,3.40,5.26,5.26,5.27
27.50,1.94,-3.32,1.95,-3.32,3.31,3.51,3.47,5.25,5.26,5.27
27.77,1.98,-3.29,1.98,-3.29,3.28,3.47,3.53,5.26,5.26,5.28
28.05,2.02,-3.24,2.02,-3.25,3.25,3.43,3.59,5.27,5.27,5.27
28.33,2.06,-3.21,2.06,-3.21,3.21,3.39,3.64,5.28,5.28,5.28
28.62,2.10,-3.17,2.10,-3.18,3.18,3.34,3.70,5.28,5.28,5.28
28.90,2.14,-3.14,2.14,-3.14,3.15,3.30,3.74,5.29,5.29,5.29
29.19,2.17,-3.11,2.17,-3.11,3.11,3.26,3.79,5.29,5.29,5.29
29.48,2.20,-3.07,2.20,-3.08,3.08,3.21,3.83,5.28,5.28,5.28
29.78,2.22,-3.05,2.22,-3.05,3.05,3.17,3.86,5.28,5.28,5.28
30.08,2.24,-3.03,2.24,-3.02,3.03,3.12,3.89,5.27,5.27,5.28
30.38,2.26,-2.99,2.26,-3.00,3.00,3.08,3.91,5.26,5.26,5.26
30.68,2.28,-2.97,2.28,-2.98,2.97,3.04,3.92,5.26,5.26,5.26
30.99,2.30,-2.95,2.30,-2.95,2.95,2.99,3.93,5.25,5.25,5.26
31.30,2.32,-2.93,2.32,-2.93,2.93,2.95,3.93,5.25,5.25,5.26
31.61,2.34,-2.90,2.34,-2.90,2.90,2.90,3.93,5.24,5.25,5.25
31.93,2.36,-2.86,2.36,-2.87,2.88,2.86,3.92,5.24,5.24,5.23
32.24,2.38,-2.85,2.38,-2.85,2.85,2.81,3.90,5.24,5.23,5.24
32.57,2.39,-2.82,2.40,-2.82,2.83,2.77,3.88,5.22,5.22,5.22
32.89,2.41,-2.80,2.41,-2.80,2.80,2.73,3.85,5.21,5.21,5.22
33.22,2.43,-2.77,2.44,-2.77,2.77,2.68,3.82,5.20,5.20,5.21
33.55,2.46,-2.74,2.46,-2.74,2.73,2.64,3.78,5.20,5.19,5.21
33.89,2.49,-2.70,2.49,-2.70,2.70,2.60,3.74,5.19,5.19,5.20
34.23,2.52,-2.65,2.52,-2.66,2.66,2.56,3.69,5.18,5.18,5.18
34.57,2.55,-2.62,2.55,-2.62,2.62,2.51,3.64,5.18,5.18,5.18
34.92,2.58,-2.57,2.58,-2.58,2.59,2.47,3.58,5.17,5.17,5.16
35.27,2.61,-2.56,2.61,-2.55,2.55,2.43,3.52,5.16,5.16,5.18
35.62,2.64,-2.50,2.64,-2.51,2.51,2.39,3.46,5.16,5.15,5.15
35.97,2.66,-2.48,2.66,-2.48,2.48,2.35,3.40,5.14,5.14,5.15
36.33,2.67,-2.45,2.68,-2.45,2.45,2.31,3.33,5.13,5.13,5.13
36.70,2.68,-2.42,2.69,-2.42,2.43,2.27,3.27,5.11,5.11,5.11
37.06,2.69,-2.39,2.69,-2.40,2.40,2.23,3.20,5.10,5.10,5.09
37.43,2.69,-2.37,2.69,-2.38,2.38,2.19,3.13,5.08,5.07,5.07
37.81,2.68,-2.37,2.68,-2.36,2.37,2.15,3.06,5.05,5.05,5.06
38.19,2.67,-2.35,2.68,-2.35,2.35,2.11,2.99,5.02,5.02,5.03
38.57,2.67,-2.33,2.67,-2.34,2.33,2.07,2.92,5.00,5.00,5.01
38.95,2.67,-2.32,2.67,-2.32,2.31,2.03,2.85,4.98,4.98,5.00
39.34,2.67,-2.29,2.67,-2.29,2.29,2.00,2.78,4.96,4.96,4.97
39.74,2.67,-2.26,2.67,-2.27,2.27,1.96,2.71,4.94,4.94,4.94
40.14,2.67,-2.24,2.67,-2.24,2.25,1.92,2.65,4.92,4.92,4.92
40.54,2.67,-2.22,2.67,-2.22,2.22,1.89,2.58,4.90,4.90,4.90
40.94,2.67,-2.19,2.67,-2.20,2.20,1.85,2.52,4.88,4.88,4.87
41.35,2.67,-2.18,2.67,-2.18,2.18,1.82,2.45,4.85,4.85,4.86
41.76,2.67,-2.15,2.67,-2.16,2.16,1.78,2.39,4.83,4.83,4.83
42.18,2.67,-2.14,2.67,-2.14,2.13,1.75,2.33,4.81,4.81,4.82
42.60,2.67,-2.11,2.67,-2.11,2.11,1.72,2.27,4.78,4.78,4.79
43.03,2.67,-2.09,2.67,-2.09,2.09,1.68,2.21,4.76,4.76,4.77
43.46,2.67,-2.05,2.67,-2.06,2.06,1.65,2.16,4.74,4.74,4.73
43.90,2.67,-2.03,2.67,-2.03,2.04,1.62,2.10,4.71,4.71,4.71
44.33,2.67,-2.00,2.67,-2.01,2.01,1.59,2.05,4.68,4.68,4.68
44.78,2.67,-1.98,2.67,-1.98,1.98,1.55,2.00,4.65,4.65,4.66
45.23,2.67,-1.96,2.67,-1.95,1.95,1.52,1.95,4.62,4.62,4.64
45.68,2.67,-1.91,2.67,-1.92,1.92,1.49,1.90,4.59,4.59,4.59
46.13,2.67,-1.88,2.67,-1.88,1.88,1.46,1.86,4.56,4.56,4.56
46.60,2.67,-1.84,2.67,-1.85,1.85,1.43,1.81,4.52,4.52,4.52
47.06,2.67,-1.81,2.67,-1.81,1.81,1.40,1.77,4.48,4.48,4.49
47.53,2.67,-1.77,2.67,-1.77,1.76,1.38,1.73,4.44,4.44,4.45
48.01,2.67,-1.72,2.67,-1.73,1.72,1.35,1.69,4.39,4.39,4.40
48.49,2.67,-1.68,2.68,-1.68,1.67,1.32,1.65,4.35,4.35,4.36
48.97,2.68,-1.62,2.68,-1.63,1.63,1.29,1.61,4.31,4.31,4.31
49.46,2.69,-1.58,2.69,-1.58,1.58,1.26,1.58,4.28,4.27,4.28
49.96,2.69,-1.52,2.69,-1.53,1.54,1.24,1.54,4.24,4.23,4.22
50.46,2.68,-1.50,2.68,-1.50,1.51,1.21,1.51,4.19,4.19,4.19
50.96,2.67,-1.47,2.67,-1.47,1.48,1.19,1.48,4.15,4.15,4.15
51.47,2.65,-1.45,2.65,-1.45,1.45,1.16,1.44,4.11,4.11,4.11
51.99,2.63,-1.42,2.63,-1.43,1.44,1.13,1.41,4.07,4.07,4.06
52.51,2.60,-1.42,2.60,-1.42,1.42,1.11,1.39,4.02,4.02,4.03
53.03,2.57,-1.42,2.57,-1.41,1.41,1.09,1.36,3.98,3.98,4.00
53.56,2.54,-1.40,2.54,-1.40,1.40,1.06,1.33,3.94,3.94,3.95
54.10,2.51,-1.38,2.51,-1.39,1.39,1.04,1.30,3.90,3.90,3.90
54.64,2.48,-1.37,2.48,-1.37,1.38,1.01,1.28,3.86,3.86,3.86
55.18,2.45,-1.36,2.45,-1.36,1.37,0.99,1.25,3.82,3.82,3.82
55.74,2.42,-1.34,2.42,-1.35,1.35,0.97,1.23,3.77,3.78,3.77
56.29,2.40,-1.34,2.40,-1.34,1.33,0.95,1.20,3.74,3.73,3.75
56.86,2.37,-1.33,2.38,-1.32,1.32,0.92,1.18,3.69,3.69,3.71
57.42,2.36,-1.29,2.36,-1.30,1.29,0.90,1.15,3.66,3.66,3.66
58.00,2.35,-1.26,2.35,-1.27,1.27,0.88,1.13,3.62,3.62,3.62
58.58,2.35,-1.23,2.35,-1.24,1.24,0.86,1.11,3.59,3.59,3.59
59.16,2.34,-1.21,2.34,-1.21,1.20,0.84,1.08,3.55,3.55,3.56
59.76,2.33,-1.17,2.33,-1.17,1.16,0.82,1.06,3.50,3.50,3.51
60.35,2.32,-1.13,2.32,-1.13,1.13,0.80,1.04,3.45,3.45,3.46
60.96,2.31,-1.08,2.31,-1.09,1.09,0.78,1.01,3.40,3.40,3.40
61.57,2.29,-1.04,2.29,-1.04,1.05,0.76,0.99,3.35,3.35,3.34
62.18,2.27,-1.00,2.27,-1.00,1.02,0.74,0.97,3.29,3.29,3.28
62.80,2.24,-0.97,2.24,-0.98,0.98,0.72,0.94,3.22,3.22,3.22
63.43,2.21,-0.95,2.21,-0.95,0.95,0.70,0.92,3.16,3.16,3.17
64.07,2.18,-0.93,2.19,-0.93,0.92,0.68,0.90,3.10,3.11,3.12
64.71,2.16,-0.90,2.16,-0.90,0.90,0.66,0.87,3.06,3.06,3.07
65.35,2.14,-0.86,2.14,-0.87,0.87,0.64,0.85,3.02,3.01,3.01
66.01,2.11,-0.84,2.11,-0.85,0.85,0.63,0.82,2.97,2.97,2.96
66.67,2.08,-0.83,2.08,-0.82,0.83,0.61,0.80,2.92,2.91,2.92
67.33,2.04,-0.80,2.05,-0.81,0.81,0.59,0.77,2.85,2.86,2.85
68.01,2.01,-0.78,2.01,-0.79,0.79,0.57,0.75,2.80,2.80,2.80
68.69,1.97,-0.77,1.97,-0.77,0.76,0.55,0.72,2.74,2.74,2.75
69.37,1.94,-0.75,1.94,-0.75,0.73,0.54,0.70,2.68,2.68,2.70
70.07,1.91,-0.72,1.91,-0.72,0.70,0.52,0.67,2.62,2.62,2.64
70.77,1.89,-0.67,1.89,-0.68,0.67,0.50,0.65,2.56,2.56,2.57
71.48,1.87,-0.64,1.88,-0.64,0.64,0.49,0.62,2.51,2.51,2.52
72.19,1.86,-0.59,1.86,-0.59,0.60,0.47,0.59,2.47,2.46,2.46
72.91,1.83,-0.55,1.83,-0.56,0.57,0.45,0.57,2.41,2.41,2.39
73.64,1.80,-0.53,1.80,-0.53,0.55,0.44,0.54,2.35,2.35,2.34
74.38,1.76,-0.51,1.76,-0.52,0.53,0.42,0.52,2.29,2.29,2.28
75.12,1.71,-0.51,1.72,-0.51,0.51,0.41,0.49,2.22,2.23,2.23
75.87,1.67,-0.50,1.67,-0.50,0.49,0.39,0.46,2.17,2.17,2.18
76.63,1.63,-0.48,1.63,-0.49,0.48,0.37,0.44,2.11,2.11,2.12
77.40,1.59,-0.48,1.60,-0.47,0.46,0.36,0.41,2.06,2.06,2.08
78.17,1.56,-0.45,1.57,-0.46,0.45,0.34,0.38,2.01,2.01,2.02
78.95,1.54,-0.43,1.54,-0.43,0.43,0.33,0.36,1.97,1.97,1.98
79.74,1.52,-0.40,1.52,-0.40,0.41,0.31,0.33,1.93,1.93,1.93
80.54,1.50,-0.37,1.50,-0.37,0.39,0.30,0.31,1.89,1.89,1.88
81.35,1.47,-0.34,1.47,-0.35,0.37,0.28,0.28,1.84,1.84,1.82
82.16,1.43,-0.35,1.43,-0.34,0.35,0.27,0.26,1.78,1.78,1.79
82.98,1.39,-0.33,1.39,-0.33,0.33,0.25,0.23,1.72,1.72,1.73
83.81,1.35,-0.32,1.35,-0.32,0.31,0.24,0.20,1.66,1.66,1.68
84.65,1.31,-0.30,1.31,-0.30,0.29,0.22,0.18,1.60,1.61,1.62
85.50,1.28,-0.27,1.28,-0.28,0.27,0.21,0.15,1.55,1.55,1.56
86.35,1.25,-0.25,1.26,-0.25,0.25,0.19,0.13,1.50,1.50,1.51
87.22,1.23,-0.22,1.23,-0.22,0.22,0.18,0.10,1.46,1.45,1.46
88.09,1.20,-0.19,1.20,-0.19,0.20,0.16,0.08,1.40,1.40,1.40
88.97,1.17,-0.16,1.18,-0.17,0.18,0.15,0.05,1.35,1.35,1.34
89.86,1.14,-0.14,1.14,-0.14,0.16,0.13,0.03,1.30,1.29,1.29
90.76,1.09,-0.13,1.09,-0.13,0.14,0.12,0.00,1.23,1.23,1.23
91.66,1.04,-0.11,1.05,-0.12,0.12,0.10,-0.02,1.16,1.16,1.16
92.58,1.00,-0.10,1.00,-0.10,0.10,0.09,-0.05,1.10,1.10,1.11
93.51,0.96,-0.09,0.96,-0.09,0.07,0.07,-0.08,1.04,1.04,1.06
94.44,0.93,-0.06,0.93,-0.06,0.05,0.06,-0.10,0.98,0.98,1.00
95.39,0.89,-0.03,0.90,-0.03,0.02,0.04,-0.13,0.92,0.92,0.93
96.34,0.86,0.01,0.86,0.00,-0.00,0.03,-0.15,0.86,0.86,0.86
97.30,0.83,0.04,0.83,0.04,-0.03,0.01,-0.18,0.81,0.81,0.80
98.28,0.79,0.07,0.79,0.07,-0.05,-0.00,-0.20,0.74,0.74,0.73
99.26,0.75,0.09,0.75,0.08,-0.07,-0.02,-0.23,0.68,0.68,0.67
100.25,0.70,0.10,0.70,0.10,-0.10,-0.03,-0.25,0.61,0.61,0.61
101.25,0.66,0.11,0.66,0.11,-0.12,-0.05,-0.28,0.54,0.54,0.56
102.27,0.61,0.12,0.62,0.13,-0.14,-0.06,-0.30,0.47,0.48,0.50
103.29,0.59,0.16,0.59,0.15,-0.16,-0.08,-0.33,0.43,0.43,0.44
104.32,0.56,0.18,0.56,0.18,-0.18,-0.10,-0.35,0.38,0.38,0.39
105.37,0.53,0.21,0.53,0.21,-0.20,-0.11,-0.37,0.33,0.34,0.33
106.42,0.50,0.23,0.50,0.23,-0.22,-0.13,-0.40,0.28,0.29,0.28
107.48,0.47,0.26,0.47,0.25,-0.24,-0.14,-0.42,0.23,0.23,0.22
108.56,0.43,0.27,0.43,0.27,-0.26,-0.16,-0.44,0.18,0.17,0.17
109.64,0.38,0.28,0.38,0.28,-0.28,-0.18,-0.47,0.10,0.11,0.11
110.74,0.33,0.29,0.34,0.29,-0.30,-0.19,-0.49,0.03,0.04,0.05
111.85,0.30,0.32,0.30,0.31,-0.33,-0.21,-0.51,-0.02,-0.03,-0.01
112.97,0.26,0.33,0.27,0.34,-0.35,-0.23,-0.53,-0.09,-0.09,-0.06
114.10,0.24,0.37,0.24,0.37,-0.38,-0.24,-0.55,-0.14,-0.14,-0.12
115.24,0.22,0.43,0.22,0.42,-0.41,-0.26,-0.57,-0.19,-0.19,-0.20
116.39,0.19,0.46,0.19,0.46,-0.44,-0.28,-0.59,-0.24,-0.24,-0.26
117.55,0.16,0.49,0.16,0.49,-0.46,-0.30,-0.60,-0.30,-0.30,-0.32
118.73,0.12,0.51,0.12,0.50,-0.49,-0.31,-0.62,-0.36,-0.36,-0.38
119.92,0.07,0.50,0.08,0.50,-0.51,-0.33,-0.64,-0.43,-0.43,-0.42
121.12,0.03,0.51,0.03,0.51,-0.52,-0.35,-0.65,-0.49,-0.49,-0.47
122.33,-0.01,0.53,-0.00,0.52,-0.54,-0.37,-0.66,-0.55,-0.55,-0.53
123.55,-0.04,0.55,-0.04,0.55,-0.56,-0.39,-0.68,-0.59,-0.59,-0.58
124.79,-0.07,0.57,-0.07,0.57,-0.58,-0.41,-0.69,-0.64,-0.64,-0.63
126.03,-0.10,0.60,-0.10,0.60,-0.60,-0.43,-0.70,-0.69,-0.69,-0.69
127.29,-0.13,0.62,-0.13,0.62,-0.62,-0.45,-0.71,-0.74,-0.74,-0.74
128.57,-0.16,0.66,-0.16,0.65,-0.64,-0.47,-0.71,-0.79,-0.79,-0.81
129.85,-0.20,0.67,-0.20,0.67,-0.65,-0.49,-0.72,-0.85,-0.85,-0.86
131.15,-0.25,0.68,-0.25,0.68,-0.67,-0.51,-0.73,-0.92,-0.92,-0.92
132.46,-0.30,0.68,-0.29,0.68,-0.69,-0.53,-0.73,-0.98,-0.98,-0.97
133.79,-0.34,0.70,-0.34,0.69,-0.70,-0.55,-0.74,-1.04,-1.04,-1.03
135.12,-0.38,0.71,-0.37,0.71,-0.72,-0.57,-0.74,-1.10,-1.10,-1.08
136.48,-0.41,0.73,-0.40,0.73,-0.74,-0.59,-0.74,-1.15,-1.15,-1.13
137.84,-0.43,0.76,-0.43,0.76,-0.76,-0.61,-0.74,-1.19,-1.19,-1.18
139.22,-0.46,0.79,-0.45,0.79,-0.78,-0.63,-0.75,-1.23,-1.23,-1.24
140.61,-0.48,0.81,-0.48,0.81,-0.79,-0.66,-0.75,-1.27,-1.27,-1.28
142.02,-0.52,0.83,-0.52,0.82,-0.81,-0.68,-0.75,-1.32,-1.32,-1.34
143.44,-0.56,0.83,-0.55,0.83,-0.82,-0.70,-0.75,-1.38,-1.38,-1.38
144.87,-0.60,0.83,-0.60,0.83,-0.83,-0.72,-0.75,-1.43,-1.43,-1.42
146.32,-0.64,0.84,-0.64,0.83,-0.85,-0.74,-0.75,-1.48,-1.49,-1.47
147.78,-0.68,0.84,-0.67,0.84,-0.86,-0.77,-0.75,-1.54,-1.53,-1.51
149.26,-0.71,0.86,-0.70,0.86,-0.87,-0.79,-0.75,-1.58,-1.57,-1.56
150.75,-0.72,0.89,-0.72,0.88,-0.88,-0.81,-0.75,-1.60,-1.60,-1.60
152.26,-0.74,0.91,-0.74,0.90,-0.89,-0.84,-0.75,-1.63,-1.63,-1.64
153.78,-0.77,0.92,-0.77,0.92,-0.91,-0.86,-0.75,-1.67,-1.67,-1.68
155.32,-0.80,0.93,-0.80,0.93,-0.92,-0.88,-0.75,-1.71,-1.72,-1.72
156.88,-0.85,0.93,-0.84,0.93,-0.92,-0.90,-0.75,-1.77,-1.77,-1.77
158.44,-0.89,0.94,-0.89,0.93,-0.93,-0.93,-0.75,-1.81,-1.82,-1.82
160.03,-0.94,0.93,-0.94,0.93,-0.93,-0.95,-0.75,-1.87,-1.87,-1.86
161.63,-0.98,0.93,-0.98,0.93,-0.94,-0.97,-0.75,-1.92,-1.92,-1.90
163.24,-1.02,0.94,-1.02,0.94,-0.95,-0.99,-0.76,-1.97,-1.97,-1.95
164.88,-1.05,0.96,-1.05,0.95,-0.97,-1.01,-0.76,-2.01,-2.01,-2.00
166.53,-1.08,0.98,-1.07,0.98,-0.98,-1.04,-0.76,-2.06,-2.05,-2.05
168.19,-1.09,1.00,-1.09,1.01,-1.00,-1.06,-0.77,-2.09,-2.09,-2.08
169.87,-1.11,1.04,-1.11,1.03,-1.02,-1.08,-0.77,-2.13,-2.13,-2.14
171.57,-1.14,1.06,-1.14,1.05,-1.04,-1.10,-0.78,-2.17,-2.17,-2.19
173.29,-1.18,1.06,-1.18,1.06,-1.05,-1.12,-0.78,-2.23,-2.23,-2.23
175.02,-1.22,1.07,-1.22,1.07,-1.07,-1.14,-0.79,-2.28,-2.28,-2.28
176.77,-1.26,1.08,-1.25,1.08,-1.08,-1.15,-0.80,-2.34,-2.34,-2.33
178.54,-1.29,1.09,-1.29,1.09,-1.10,-1.17,-0.81,-2.38,-2.39,-2.37
180.32,-1.33,1.11,-1.33,1.10,-1.11,-1.19,-0.81,-2.44,-2.44,-2.43
182.13,-1.36,1.11,-1.35,1.12,-1.13,-1.20,-0.82,-2.49,-2.48,-2.46
183.95,-1.38,1.14,-1.37,1.15,-1.15,-1.22,-0.83,-2.52,-2.52,-2.51
185.79,-1.38,1.19,-1.39,1.17,-1.16,-1.23,-0.84,-2.54,-2.55,-2.56
187.65,-1.41,1.20,-1.41,1.20,-1.18,-1.24,-0.86,-2.59,-2.59,-2.60
189.52,-1.44,1.21,-1.44,1.21,-1.20,-1.25,-0.87,-2.63,-2.63,-2.64
191.42,-1.48,1.21,-1.48,1.21,-1.21,-1.26,-0.88,-2.68,-2.68,-2.68
193.33,-1.52,1.21,-1.52,1.21,-1.21,-1.27,-0.89,-2.73,-2.73,-2.72
195.27,-1.56,1.22,-1.56,1.22,-1.22,-1.28,-0.91,-2.77,-2.77,-2.77
197.22,-1.60,1.23,-1.60,1.22,-1.22,-1.29,-0.92,-2.82,-2.82,-2.82
199.19,-1.64,1.22,-1.64,1.22,-1.22,-1.29,-0.93,-2.86,-2.86,-2.85
201.18,-1.68,1.22,-1.68,1.22,-1.22,-1.30,-0.95,-2.90,-2.90,-2.89
203.19,-1.71,1.22,-1.70,1.22,-1.23,-1.30,-0.96,-2.94,-2.93,-2.92
205.23,-1.73,1.22,-1.72,1.22,-1.23,-1.30,-0.98,-2.96,-2.96,-2.94
207.28,-1.74,1.24,-1.74,1.24,-1.24,-1.30,-0.99,-2.97,-2.98,-2.97
209.35,-1.76,1.26,-1.76,1.25,-1.24,-1.30,-1.01,-3.00,-3.00,-3.01
211.44,-1.79,1.26,-1.78,1.26,-1.24,-1.29,-1.02,-3.03,-3.03,-3.04
213.56,-1.82,1.25,-1.82,1.25,-1.24,-1.29,-1.04,-3.06,-3.06,-3.06
215.69,-1.85,1.25,-1.85,1.24,-1.24,-1.28,-1.05,-3.09,-3.09,-3.09
217.85,-1.89,1.24,-1.89,1.24,-1.24,-1.28,-1.06,-3.13,-3.13,-3.12
220.03,-1.93,1.23,-1.92,1.23,-1.23,-1.27,-1.08,-3.16,-3.16,-3.15
222.23,-1.96,1.23,-1.96,1.22,-1.23,-1.26,-1.09,-3.18,-3.18,-3.18
224.45,-1.99,1.21,-1.98,1.22,-1.22,-1.25,-1.10,-3.21,-3.20,-3.19
226.70,-2.01,1.22,-2.01,1.21,-1.21,-1.23,-1.11,-3.22,-3.22,-3.22
228.96,-2.03,1.21,-2.03,1.21,-1.21,-1.22,-1.12,-3.23,-3.24,-3.23
231.25,-2.06,1.20,-2.05,1.20,-1.20,-1.21,-1.13,-3.26,-3.26,-3.25
233.57,-2.08,1.20,-2.08,1.20,-1.20,-1.19,-1.14,-3.27,-3.27,-3.27
235.90,-2.10,1.19,-2.10,1.19,-1.19,-1.17,-1.15,-3.29,-3.29,-3.28
238.26,-2.12,1.20,-2.12,1.18,-1.18,-1.16,-1.15,-3.29,-3.30,-3.31
240.64,-2.15,1.16,-2.14,1.17,-1.16,-1.14,-1.16,-3.31,-3.31,-3.30
243.05,-2.17,1.16,-2.17,1.16,-1.15,-1.12,-1.16,-3.32,-3.32,-3.32
245.48,-2.20,1.14,-2.20,1.13,-1.13,-1.10,-1.16,-3.33,-3.33,-3.33
247.93,-2.23,1.12,-2.23,1.11,-1.12,-1.08,-1.16,-3.34,-3.34,-3.34
250.41,-2.26,1.08,-2.25,1.09,-1.09,-1.06,-1.15,-3.35,-3.35,-3.33
252.92,-2.28,1.07,-2.28,1.07,-1.07,-1.04,-1.15,-3.35,-3.35,-3.34
255.45,-2.30,1.06,-2.30,1.05,-1.05,-1.02,-1.14,-3.35,-3.35,-3.35
258.00,-2.32,1.04,-2.32,1.03,-1.03,-1.00,-1.14,-3.34,-3.35,-3.35
260.58,-2.35,1.01,-2.35,1.01,-1.00,-0.97,-1.13,-3.35,-3.35,-3.35
263.19,-2.38,0.98,-2.38,0.98,-0.98,-0.95,-1.12,-3.36,-3.36,-3.35
265.82,-2.41,0.96,-2.41,0.95,-0.96,-0.93,-1.10,-3.37,-3.37,-3.36
268.48,-2.44,0.93,-2.43,0.93,-0.94,-0.90,-1.09,-3.37,-3.37,-3.36
271.16,-2.46,0.91,-2.45,0.91,-0.92,-0.88,-1.07,-3.38,-3.37,-3.36
273.87,-2.47,0.90,-2.47,0.89,-0.90,-0.86,-1.06,-3.37,-3.37,-3.36
276.61,-2.49,0.88,-2.49,0.88,-0.88,-0.83,-1.04,-3.37,-3.37,-3.36
279.38,-2.51,0.88,-2.51,0.87,-0.86,-0.81,-1.02,-3.37,-3.37,-3.38
282.17,-2.53,0.86,-2.53,0.85,-0.85,-0.79,-1.00,-3.37,-3.37,-3.38
284.99,-2.55,0.83,-2.55,0.83,-0.83,-0.76,-0.98,-3.37,-3.37,-3.37
287.84,-2.57,0.80,-2.57,0.80,-0.81,-0.74,-0.96,-3.37,-3.37,-3.36
290.72,-2.59,0.79,-2.59,0.78,-0.78,-0.72,-0.94,-3.37,-3.37,-3.37
293.63,-2.61,0.76,-2.61,0.76,-0.75,-0.69,-0.92,-3.36,-3.36,-3.36
296.57,-2.63,0.73,-2.63,0.73,-0.72,-0.67,-0.89,-3.35,-3.35,-3.35
299.53,-2.66,0.70,-2.66,0.69,-0.69,-0.65,-0.87,-3.35,-3.35,-3.35
302.53,-2.69,0.65,-2.69,0.66,-0.66,-0.62,-0.85,-3.34,-3.34,-3.33
305.55,-2.72,0.63,-2.72,0.62,-0.62,-0.60,-0.82,-3.34,-3.34,-3.34
308.61,-2.75,0.59,-2.75,0.58,-0.58,-0.58,-0.80,-3.33,-3.33,-3.33
311.69,-2.78,0.55,-2.78,0.55,-0.55,-0.55,-0.77,-3.33,-3.33,-3.32
314.81,-2.81,0.52,-2.81,0.51,-0.52,-0.53,-0.75,-3.32,-3.32,-3.32
317.96,-2.83,0.49,-2.83,0.49,-0.49,-0.51,-0.73,-3.31,-3.31,-3.31
321.14,-2.85,0.46,-2.85,0.46,-0.46,-0.49,-0.70,-3.31,-3.31,-3.30
324.35,-2.86,0.45,-2.86,0.44,-0.44,-0.47,-0.68,-3.30,-3.30,-3.30
327.59,-2.87,0.41,-2.87,0.42,-0.43,-0.44,-0.66,-3.30,-3.30,-3.27
330.87,-2.87,0.42,-2.86,0.42,-0.42,-0.42,-0.63,-3.29,-3.29,-3.28
334.18,-2.86,0.42,-2.86,0.42,-0.42,-0.40,-0.61,-3.28,-3.28,-3.27
337.52,-2.85,0.43,-2.85,0.42,-0.42,-0.38,-0.59,-3.27,-3.27,-3.27
340.90,-2.84,0.42,-2.83,0.42,-0.42,-0.36,-0.57,-3.26,-3.25,-3.25
344.30,-2.83,0.42,-2.83,0.43,-0.42,-0.34,-0.54,-3.24,-3.24,-3.24
347.75,-2.82,0.43,-2.82,0.42,-0.41,-0.32,-0.52,-3.23,-3.24,-3.24
351.23,-2.83,0.42,-2.82,0.41,-0.40,-0.30,-0.50,-3.23,-3.23,-3.24
354.74,-2.84,0.38,-2.83,0.39,-0.39,-0.28,-0.48,-3.22,-3.22,-3.21
358.28,-2.85,0.38,-2.85,0.37,-0.37,-0.26,-0.46,-3.21,-3.22,-3.22
361.87,-2.87,0.35,-2.87,0.34,-0.34,-0.24,-0.44,-3.21,-3.21,-3.21
365.49,-2.90,0.31,-2.89,0.31,-0.31,-0.22,-0.42,-3.21,-3.20,-3.20
369.14,-2.92,0.27,-2.92,0.27,-0.28,-0.20,-0.40,-3.19,-3.19,-3.18
372.83,-2.95,0.24,-2.95,0.24,-0.24,-0.18,-0.38,-3.19,-3.18,-3.18
376.56,-2.98,0.21,-2.98,0.20,-0.20,-0.17,-0.36,-3.18,-3.18,-3.18
380.33,-3.01,0.17,-3.01,0.16,-0.16,-0.15,-0.35,-3.17,-3.17,-3.17
384.13,-3.05,0.11,-3.04,0.12,-0.12,-0.13,-0.33,-3.17,-3.16,-3.15
387.97,-3.08,0.08,-3.07,0.08,-0.08,-0.12,-0.31,-3.16,-3.15,-3.15
391.85,-3.10,0.05,-3.10,0.04,-0.04,-0.10,-0.29,-3.14,-3.14,-3.14
395.77,-3.13,0.01,-3.12,0.01,-0.00,-0.09,-0.28,-3.13,-3.13,-3.13
399.73,-3.15,-0.02,-3.15,-0.03,0.03,-0.07,-0.26,-3.12,-3.11,-3.12
403.72,-3.17,-0.07,-3.17,-0.06,0.06,-0.06,-0.25,-3.10,-3.11,-3.09
407.76,-3.19,-0.08,-3.19,-0.09,0.09,-0.05,-0.23,-3.10,-3.10,-3.10
411.84,-3.21,-0.11,-3.21,-0.12,0.11,-0.03,-0.22,-3.10,-3.10,-3.09
415.96,-3.22,-0.14,-3.21,-0.13,0.12,-0.02,-0.20,-3.09,-3.09,-3.07
420.12,-3.21,-0.13,-3.21,-0.14,0.13,-0.01,-0.19,-3.07,-3.08,-3.07
424.32,-3.20,-0.13,-3.20,-0.14,0.13,-0.00,-0.18,-3.06,-3.06,-3.06
428.56,-3.18,-0.13,-3.18,-0.13,0.13,0.01,-0.17,-3.05,-3.05,-3.04
432.85,-3.16,-0.12,-3.16,-0.12,0.12,0.01,-0.16,-3.04,-3.04,-3.03
437.18,-3.14,-0.09,-3.14,-0.10,0.10,0.02,-0.14,-3.04,-3.04,-3.04
441.55,-3.12,-0.08,-3.11,-0.08,0.08,0.02,-0.14,-3.03,-3.03,-3.03
445.96,-3.09,-0.06,-3.09,-0.06,0.06,0.03,-0.13,-3.02,-3.02,-3.02
450.42,-3.06,-0.04,-3.06,-0.04,0.04,0.03,-0.12,-3.01,-3.01,-3.01
454.93,-3.03,-0.02,-3.03,-0.02,0.02,0.03,-0.11,-3.00,-3.00,-3.00
459.48,-3.00,-0.00,-3.00,-0.01,0.01,0.03,-0.11,-2.99,-2.99,-2.99
464.07,-2.97,0.01,-2.97,0.01,-0.01,0.03,-0.10,-2.98,-2.98,-2.97
468.71,-2.94,0.03,-2.94,0.03,-0.03,0.03,-0.10,-2.96,-2.97,-2.96
473.40,-2.92,0.05,-2.92,0.04,-0.04,0.02,-0.10,-2.96,-2.96,-2.96
478.13,-2.90,0.06,-2.90,0.06,-0.06,0.01,-0.10,-2.95,-2.95,-2.95
482.91,-2.88,0.07,-2.88,0.07,-0.07,0.01,-0.10,-2.94,-2.95,-2.94
487.74,-2.87,0.07,-2.86,0.07,-0.08,-0.00,-0.10,-2.94,-2.94,-2.93
492.62,-2.84,0.09,-2.84,0.08,-0.08,-0.01,-0.10,-2.92,-2.92,-2.92
497.55,-2.82,0.10,-2.82,0.09,-0.08,-0.03,-0.10,-2.90,-2.91,-2.91
