frequency,raw,error,smoothed,error_smoothed,equalization,parametric_eq,fixed_band_eq,equalized_raw,equalized_smoothed,target
20.00,0.65,-6.46,0.64,-6.48,6.48,6.24,2.28,7.13,7.12,7.12
20.20,0.69,-6.41,0.69,-6.42,6.42,6.24,2.34,7.11,7.11,7.11
20.40,0.73,-6.36,0.73,-6.36,6.36,6.23,2.41,7.09,7.09,7.09
20.61,0.77,-6.31,0.78,-6.30,6.30,6.22,2.48,7.07,7.08,7.08
20.81,0.82,-6.24,0.82,-6.24,6.24,6.21,2.55,7.07,7.07,7.06
21.02,0.86,-6.19,0.87,-6.19,6.19,6.19,2.62,7.05,7.06,7.05
21.23,0.91,-6.13,0.92,-6.13,6.13,6.17,2.70,7.05,7.05,7.04
21.44,0.95,-6.10,0.96,-6.08,6.08,6.15,2.77,7.03,7.04,7.05
21.66,0.99,-6.04,1.01,-6.02,6.02,6.12,2.85,7.02,7.03,7.03
21.87,1.04,-5.98,1.05,-5.97,5.97,6.09,2.93,7.01,7.02,7.03
22.09,1.08,-5.92,1.10,-5.92,5.92,6.06,3.02,7.00,7.01,7.01
22.31,1.13,-5.87,1.14,-5.86,5.86,6.02,3.10,7.00,7.00,7.01
22.54,1.18,-5.81,1.19,-5.81,5.81,5.98,3.19,6.99,7.00,7.00
22.76,1.23,-5.76,1.23,-5.76,5.76,5.94,3.28,6.99,6.99,6.99
22.99,1.28,-5.70,1.28,-5.71,5.71,5.90,3.38,6.99,6.99,6.98
23.22,1.33,-5.64,1.32,-5.66,5.66,5.85,3.47,6.99,6.98,6.97
23.45,1.38,-5.60,1.36,-5.61,5.61,5.80,3.57,7.00,6.98,6.98
23.69,1.41,-5.56,1.41,-5.57,5.57,5.75,3.67,6.98,6.97,6.97
23.92,1.45,-5.50,1.45,-5.52,5.52,5.70,3.77,6.97,6.97,6.96
24.16,1.48,-5.48,1.49,-5.47,5.47,5.65,3.87,6.96,6.96,6.97
24.40,1.52,-5.44,1.53,-5.43,5.43,5.60,3.98,6.95,6.96,6.96
24.65,1.56,-5.40,1.57,-5.39,5.39,5.55,4.08,6.95,6.96,6.96
24.89,1.60,-5.36,1.61,-5.35,5.35,5.49,4.19,6.95,6.96,6.96
25.14,1.63,-5.32,1.65,-5.31,5.31,5.43,4.30,6.94,6.95,6.95
25.39,1.67,-5.27,1.68,-5.27,5.27,5.38,4.41,6.94,6.95,6.95
25.65,1.71,-5.23,1.72,-5.23,5.23,5.32,4.52,6.95,6.95,6.95
25.91,1.76,-5.18,1.75,-5.20,5.20,5.26,4.63,6.96,6.95,6.94
26.16,1.80,-5.15,1.79,-5.16,5.16,5.21,4.74,6.97,6.95,6.95
26.43,1.84,-5.11,1.82,-5.13,5.13,5.15,4.84,6.97,6.95,6.95
26.69,1.86,-5.09,1.86,-5.09,5.09,5.09,4.95,6.95,6.95,6.95
26.96,1.89,-5.05,1.89,-5.05,5.05,5.03,5.06,6.95,6.95,6.95
27.23,1.91,-5.03,1.93,-5.02,5.02,4.98,5.16,6.93,6.95,6.94
27.50,1.94,-5.00,1.97,-4.98,4.98,4.92,5.26,6.93,6.95,6.94
27.77,1.98,-4.96,2.00,-4.95,4.95,4.87,5.36,6.93,6.95,6.95
28.05,2.02,-4.92,2.03,-4.92,4.92,4.81,5.45,6.94,6.95,6.95
28.33,2.06,-4.89,2.07,-4.88,4.88,4.76,5.54,6.95,6.95,6.95
28.62,2.10,-4.85,2.10,-4.85,4.85,4.70,5.62,6.96,6.95,6.95
28.90,2.14,-4.81,2.13,-4.82,4.82,4.65,5.69,6.97,6.95,6.96
29.19,2.17,-4.78,2.16,-4.79,4.79,4.60,5.76,6.96,6.95,6.95
29.48,2.20,-4.75,2.19,-4.76,4.76,4.54,5.82,6.96,6.95,6.95
29.78,2.22,-4.72,2.21,-4.73,4.73,4.49,5.88,6.95,6.94,6.95
30.08,2.24,-4.70,2.24,-4.70,4.70,4.45,5.92,6.94,6.94,6.94
30.38,2.26,-4.67,2.26,-4.67,4.67,4.40,5.96,6.93,6.94,6.93
30.68,2.28,-4.64,2.29,-4.65,4.65,4.35,5.99,6.93,6.93,6.93
30.99,2.30,-4.62,2.30,-4.62,4.62,4.31,6.00,6.92,6.92,6.92
31.30,2.32,-4.60,2.32,-4.59,4.59,4.26,6.01,6.92,6.92,6.92
31.61,2.34,-4.57,2.34,-4.57,4.57,4.22,6.01,6.91,6.91,6.91
31.93,2.36,-4.53,2.36,-4.54,4.54,4.18,6.00,6.90,6.90,6.89
32.24,2.38,-4.51,2.38,-4.51,4.51,4.14,5.98,6.90,6.89,6.90
32.57,2.39,-4.49,2.40,-4.48,4.48,4.10,5.95,6.88,6.89,6.88
32.89,2.41,-4.46,2.43,-4.45,4.45,4.06,5.91,6.86,6.88,6.88
33.22,2.43,-4.44,2.45,-4.42,4.42,4.02,5.87,6.85,6.87,6.87
33.55,2.46,-4.40,2.48,-4.38,4.38,3.99,5.82,6.85,6.86,6.87
33.89,2.49,-4.36,2.50,-4.35,4.35,3.96,5.76,6.84,6.85,6.85
34.23,2.52,-4.31,2.53,-4.31,4.31,3.92,5.69,6.84,6.84,6.83
34.57,2.55,-4.28,2.56,-4.28,4.28,3.89,5.62,6.83,6.83,6.83
34.92,2.58,-4.23,2.58,-4.24,4.24,3.87,5.54,6.82,6.82,6.81
35.27,2.61,-4.21,2.60,-4.21,4.21,3.84,5.46,6.82,6.81,6.83
35.62,2.64,-4.16,2.62,-4.17,4.17,3.81,5.38,6.82,6.80,6.80
35.97,2.66,-4.13,2.64,-4.14,4.14,3.79,5.29,6.80,6.78,6.79
36.33,2.67,-4.10,2.66,-4.11,4.11,3.76,5.20,6.78,6.77,6.77
36.70,2.68,-4.06,2.67,-4.08,4.08,3.74,5.11,6.76,6.75,6.75
37.06,2.69,-4.04,2.68,-4.05,4.05,3.72,5.02,6.75,6.73,6.73
37.43,2.69,-4.02,2.68,-4.03,4.03,3.70,4.93,6.72,6.71,6.71
37.81,2.68,-4.01,2.69,-4.00,4.00,3.68,4.83,6.69,6.69,6.69
38.19,2.67,-3.99,2.69,-3.98,3.98,3.67,4.74,6.66,6.67,6.66
38.57,2.67,-3.97,2.69,-3.96,3.96,3.65,4.65,6.63,6.65,6.65
38.95,2.67,-3.95,2.68,-3.94,3.94,3.63,4.56,6.61,6.62,6.63
39.34,2.67,-3.92,2.68,-3.92,3.92,3.62,4.47,6.59,6.60,6.60
39.74,2.67,-3.89,2.68,-3.90,3.90,3.61,4.38,6.57,6.57,6.57
40.14,2.67,-3.87,2.68,-3.87,3.87,3.59,4.30,6.55,6.55,6.55
40.54,2.67,-3.85,2.67,-3.85,3.85,3.58,4.21,6.52,6.52,6.53
40.94,2.67,-3.82,2.67,-3.83,3.83,3.57,4.13,6.50,6.50,6.49
41.35,2.67,-3.80,2.67,-3.80,3.80,3.55,4.05,6.48,6.47,6.47
41.76,2.67,-3.77,2.67,-3.78,3.78,3.54,3.97,6.45,6.45,6.44
42.18,2.67,-3.75,2.67,-3.75,3.75,3.53,3.90,6.42,6.42,6.43
42.60,2.67,-3.72,2.67,-3.72,3.72,3.52,3.83,6.40,6.40,6.39
43.03,2.67,-3.70,2.67,-3.70,3.70,3.51,3.76,6.37,6.37,6.37
43.46,2.67,-3.66,2.67,-3.67,3.67,3.49,3.69,6.34,6.34,6.34
43.90,2.67,-3.64,2.67,-3.64,3.64,3.48,3.63,6.31,6.31,6.31
44.33,2.67,-3.60,2.67,-3.61,3.61,3.46,3.57,6.28,6.28,6.28
44.78,2.67,-3.58,2.67,-3.58,3.58,3.45,3.51,6.25,6.25,6.25
45.23,2.67,-3.55,2.67,-3.54,3.54,3.43,3.45,6.21,6.21,6.23
45.68,2.67,-3.51,2.67,-3.50,3.50,3.42,3.40,6.18,6.18,6.18
46.13,2.67,-3.47,2.68,-3.46,3.46,3.40,3.35,6.14,6.14,6.14
46.60,2.67,-3.43,2.68,-3.42,3.42,3.38,3.30,6.09,6.10,6.10
47.06,2.67,-3.39,2.68,-3.38,3.38,3.36,3.26,6.05,6.06,6.06
47.53,2.67,-3.35,2.68,-3.33,3.33,3.33,3.22,6.00,6.01,6.03
48.01,2.67,-3.29,2.69,-3.28,3.28,3.31,3.18,5.96,5.97,5.97
48.49,2.67,-3.25,2.69,-3.24,3.24,3.28,3.14,5.91,5.93,5.93
48.97,2.68,-3.19,2.69,-3.19,3.19,3.26,3.11,5.88,5.88,5.87
49.46,2.69,-3.14,2.68,-3.15,3.15,3.23,3.07,5.84,5.83,5.83
49.96,2.69,-3.08,2.68,-3.11,3.11,3.20,3.04,5.80,5.79,5.77
50.46,2.68,-3.05,2.67,-3.07,3.07,3.16,3.01,5.76,5.74,5.74
50.96,2.67,-3.02,2.65,-3.04,3.04,3.13,2.99,5.71,5.69,5.69
51.47,2.65,-2.99,2.64,-3.01,3.01,3.09,2.96,5.66,5.64,5.65
51.99,2.63,-2.96,2.62,-2.98,2.98,3.05,2.94,5.61,5.60,5.59
52.51,2.60,-2.95,2.60,-2.95,2.95,3.01,2.91,5.56,5.55,5.55
53.03,2.57,-2.94,2.57,-2.93,2.93,2.97,2.89,5.51,5.50,5.52
53.56,2.54,-2.92,2.54,-2.91,2.91,2.93,2.87,5.46,5.46,5.47
54.10,2.51,-2.89,2.52,-2.89,2.89,2.89,2.85,5.41,5.41,5.41
54.64,2.48,-2.88,2.49,-2.88,2.88,2.84,2.83,5.36,5.37,5.37
55.18,2.45,-2.86,2.46,-2.86,2.86,2.79,2.81,5.31,5.32,5.31
55.74,2.42,-2.84,2.44,-2.84,2.84,2.75,2.79,5.26,5.28,5.26
56.29,2.40,-2.83,2.42,-2.81,2.81,2.70,2.77,5.22,5.23,5.23
56.86,2.37,-2.81,2.40,-2.79,2.79,2.65,2.75,5.16,5.19,5.18
57.42,2.36,-2.77,2.38,-2.76,2.76,2.60,2.73,5.12,5.14,5.13
58.00,2.35,-2.73,2.37,-2.72,2.72,2.55,2.71,5.08,5.09,5.08
58.58,2.35,-2.69,2.35,-2.69,2.69,2.50,2.69,5.04,5.04,5.04
59.16,2.34,-2.66,2.34,-2.65,2.65,2.45,2.67,4.99,4.99,5.01
59.76,2.33,-2.62,2.32,-2.61,2.61,2.40,2.65,4.94,4.93,4.96
60.35,2.32,-2.57,2.31,-2.57,2.57,2.35,2.62,4.89,4.88,4.89
60.96,2.31,-2.52,2.30,-2.52,2.52,2.30,2.59,4.84,4.82,4.83
61.57,2.29,-2.47,2.28,-2.48,2.48,2.25,2.57,4.78,4.76,4.76
62.18,2.27,-2.42,2.26,-2.44,2.44,2.20,2.54,4.71,4.70,4.69
62.80,2.24,-2.39,2.24,-2.40,2.40,2.15,2.51,4.64,4.64,4.63
63.43,2.21,-2.35,2.22,-2.36,2.36,2.10,2.47,4.57,4.58,4.56
64.07,2.18,-2.32,2.19,-2.32,2.32,2.05,2.44,4.51,4.51,4.50
64.71,2.16,-2.28,2.16,-2.29,2.29,2.00,2.40,4.45,4.45,4.44
65.35,2.14,-2.24,2.13,-2.25,2.25,1.96,2.37,4.40,4.39,4.38
66.01,2.11,-2.21,2.10,-2.22,2.22,1.91,2.33,4.33,4.32,4.32
66.67,2.08,-2.18,2.07,-2.18,2.18,1.86,2.29,4.27,4.26,4.27
67.33,2.04,-2.15,2.05,-2.15,2.15,1.82,2.24,4.19,4.20,4.19
68.01,2.01,-2.12,2.02,-2.11,2.11,1.77,2.20,4.13,4.13,4.14
68.69,1.97,-2.10,1.99,-2.08,2.08,1.73,2.16,4.05,4.07,4.07
69.37,1.94,-2.07,1.96,-2.04,2.04,1.68,2.11,3.98,4.00,4.01
70.07,1.91,-2.03,1.93,-2.00,2.00,1.64,2.07,3.92,3.94,3.94
70.77,1.89,-1.98,1.90,-1.97,1.97,1.60,2.02,3.86,3.87,3.87
71.48,1.87,-1.94,1.87,-1.93,1.93,1.56,1.97,3.80,3.80,3.81
72.19,1.86,-1.87,1.84,-1.90,1.90,1.52,1.92,3.76,3.73,3.73
72.91,1.83,-1.83,1.81,-1.86,1.86,1.48,1.88,3.69,3.67,3.66
73.64,1.80,-1.79,1.78,-1.83,1.83,1.44,1.83,3.63,3.60,3.59
74.38,1.76,-1.76,1.75,-1.79,1.79,1.40,1.78,3.55,3.54,3.53
75.12,1.71,-1.75,1.72,-1.76,1.76,1.36,1.73,3.47,3.47,3.47
75.87,1.67,-1.73,1.68,-1.72,1.72,1.33,1.68,3.40,3.41,3.41
76.63,1.63,-1.70,1.65,-1.69,1.69,1.29,1.63,3.32,3.34,3.34
77.40,1.59,-1.69,1.62,-1.66,1.66,1.25,1.58,3.25,3.28,3.28
78.17,1.56,-1.65,1.59,-1.63,1.63,1.22,1.54,3.20,3.22,3.21
78.95,1.54,-1.62,1.55,-1.61,1.61,1.19,1.49,3.15,3.16,3.16
79.74,1.52,-1.57,1.52,-1.58,1.58,1.15,1.44,3.10,3.10,3.10
80.54,1.50,-1.54,1.48,-1.55,1.55,1.12,1.40,3.06,3.03,3.04
81.35,1.47,-1.50,1.45,-1.52,1.52,1.09,1.35,3.00,2.97,2.97
82.16,1.43,-1.49,1.42,-1.49,1.49,1.06,1.31,2.92,2.91,2.92
82.98,1.39,-1.46,1.39,-1.46,1.46,1.03,1.26,2.85,2.85,2.85
83.81,1.35,-1.44,1.36,-1.42,1.42,1.00,1.22,2.78,2.78,2.79
84.65,1.31,-1.40,1.33,-1.39,1.39,0.97,1.18,2.70,2.72,2.72
85.50,1.28,-1.37,1.30,-1.36,1.36,0.94,1.13,2.64,2.66,2.65
86.35,1.25,-1.33,1.26,-1.32,1.32,0.91,1.09,2.58,2.59,2.59
87.22,1.23,-1.29,1.23,-1.29,1.29,0.89,1.05,2.53,2.52,2.52
88.09,1.20,-1.25,1.19,-1.26,1.26,0.86,1.01,2.47,2.45,2.45
88.97,1.17,-1.21,1.16,-1.23,1.23,0.83,0.97,2.40,2.39,2.39
89.86,1.14,-1.17,1.12,-1.20,1.20,0.81,0.93,2.34,2.32,2.32
90.76,1.09,-1.16,1.09,-1.16,1.16,0.78,0.90,2.25,2.25,2.25
91.66,1.04,-1.13,1.05,-1.12,1.12,0.76,0.86,2.17,2.17,2.17
92.58,1.00,-1.11,1.01,-1.09,1.09,0.73,0.82,2.09,2.10,2.11
93.51,0.96,-1.07,0.98,-1.05,1.05,0.71,0.79,2.01,2.03,2.04
94.44,0.93,-1.03,0.94,-1.02,1.02,0.68,0.75,1.95,1.96,1.96
95.39,0.89,-0.99,0.90,-0.98,0.98,0.66,0.72,1.88,1.88,1.88
96.34,0.86,-0.95,0.86,-0.95,0.95,0.64,0.68,1.81,1.81,1.81
97.30,0.83,-0.90,0.82,-0.91,0.91,0.61,0.65,1.75,1.73,1.74
98.28,0.79,-0.86,0.78,-0.88,0.88,0.59,0.62,1.67,1.66,1.65
99.26,0.75,-0.82,0.75,-0.84,0.84,0.57,0.59,1.59,1.59,1.58
100.25,0.70,-0.80,0.71,-0.81,0.81,0.55,0.55,1.51,1.52,1.50
101.25,0.66,-0.77,0.67,-0.77,0.77,0.53,0.52,1.43,1.44,1.44
102.27,0.61,-0.76,0.64,-0.73,0.73,0.51,0.49,1.35,1.37,1.37
103.29,0.59,-0.70,0.60,-0.70,0.70,0.49,0.46,1.30,1.30,1.30
104.32,0.56,-0.67,0.56,-0.67,0.67,0.46,0.44,1.23,1.23,1.23
105.37,0.53,-0.63,0.52,-0.64,0.64,0.44,0.41,1.17,1.16,1.17
106.42,0.50,-0.60,0.49,-0.61,0.61,0.42,0.38,1.11,1.10,1.10
107.48,0.47,-0.55,0.45,-0.57,0.57,0.40,0.35,1.04,1.03,1.03
108.56,0.43,-0.53,0.42,-0.54,0.54,0.38,0.32,0.97,0.96,0.96
109.64,0.38,-0.51,0.39,-0.50,0.50,0.36,0.30,0.88,0.89,0.90
110.74,0.33,-0.49,0.35,-0.46,0.46,0.34,0.27,0.79,0.81,0.82
111.85,0.30,-0.44,0.32,-0.42,0.42,0.32,0.25,0.73,0.74,0.75
112.97,0.26,-0.42,0.28,-0.39,0.39,0.31,0.22,0.65,0.67,0.68
114.10,0.24,-0.36,0.25,-0.35,0.35,0.29,0.20,0.59,0.60,0.61
115.24,0.22,-0.30,0.21,-0.32,0.32,0.27,0.18,0.54,0.53,0.52
116.39,0.19,-0.26,0.18,-0.28,0.28,0.25,0.15,0.48,0.46,0.45
117.55,0.16,-0.21,0.14,-0.25,0.25,0.23,0.13,0.41,0.39,0.38
118.73,0.12,-0.18,0.11,-0.21,0.21,0.21,0.11,0.33,0.32,0.31
119.92,0.07,-0.17,0.08,-0.17,0.17,0.19,0.09,0.25,0.25,0.24
121.12,0.03,-0.15,0.04,-0.14,0.14,0.17,0.07,0.17,0.18,0.18
122.33,-0.01,-0.12,0.01,-0.10,0.10,0.15,0.05,0.09,0.11,0.11
123.55,-0.04,-0.09,-0.03,-0.07,0.07,0.13,0.03,0.03,0.04,0.05
124.79,-0.07,-0.05,-0.06,-0.04,0.04,0.11,0.01,-0.03,-0.02,-0.02
126.03,-0.10,-0.01,-0.10,-0.01,0.01,0.09,-0.01,-0.09,-0.09,-0.08
127.29,-0.13,0.02,-0.14,0.02,-0.02,0.07,-0.02,-0.15,-0.16,-0.15
128.57,-0.16,0.07,-0.18,0.05,-0.05,0.05,-0.04,-0.20,-0.23,-0.23
129.85,-0.20,0.09,-0.21,0.08,-0.08,0.03,-0.06,-0.28,-0.29,-0.29
131.15,-0.25,0.12,-0.25,0.11,-0.11,0.01,-0.07,-0.36,-0.36,-0.37
132.46,-0.30,0.13,-0.28,0.14,-0.14,-0.01,-0.09,-0.44,-0.43,-0.43
133.79,-0.34,0.16,-0.32,0.18,-0.18,-0.03,-0.10,-0.51,-0.50,-0.50
135.12,-0.38,0.19,-0.36,0.21,-0.21,-0.05,-0.12,-0.58,-0.56,-0.56
136.48,-0.41,0.22,-0.39,0.23,-0.23,-0.08,-0.13,-0.64,-0.63,-0.62
137.84,-0.43,0.26,-0.43,0.26,-0.26,-0.10,-0.15,-0.69,-0.69,-0.69
139.22,-0.46,0.30,-0.46,0.29,-0.29,-0.12,-0.16,-0.75,-0.75,-0.76
140.61,-0.48,0.34,-0.50,0.32,-0.32,-0.14,-0.18,-0.79,-0.81,-0.82
142.02,-0.52,0.36,-0.53,0.34,-0.34,-0.17,-0.19,-0.86,-0.87,-0.88
143.44,-0.56,0.38,-0.56,0.37,-0.37,-0.19,-0.20,-0.93,-0.93,-0.94
144.87,-0.60,0.39,-0.59,0.40,-0.40,-0.21,-0.22,-1.00,-0.99,-0.99
146.32,-0.64,0.41,-0.62,0.43,-0.43,-0.24,-0.23,-1.06,-1.05,-1.05
147.78,-0.68,0.42,-0.65,0.45,-0.45,-0.26,-0.24,-1.13,-1.10,-1.10
149.26,-0.71,0.45,-0.68,0.47,-0.47,-0.29,-0.26,-1.18,-1.16,-1.16
150.75,-0.72,0.50,-0.72,0.49,-0.49,-0.31,-0.27,-1.21,-1.21,-1.22
152.26,-0.74,0.53,-0.76,0.51,-0.51,-0.34,-0.28,-1.25,-1.27,-1.26
153.78,-0.77,0.55,-0.79,0.53,-0.53,-0.37,-0.30,-1.30,-1.32,-1.32
155.32,-0.80,0.58,-0.83,0.55,-0.55,-0.40,-0.31,-1.35,-1.38,-1.37
156.88,-0.85,0.58,-0.86,0.57,-0.57,-0.42,-0.33,-1.42,-1.43,-1.43
158.44,-0.89,0.60,-0.89,0.59,-0.59,-0.45,-0.34,-1.48,-1.49,-1.49
160.03,-0.94,0.60,-0.92,0.62,-0.62,-0.48,-0.36,-1.56,-1.54,-1.54
161.63,-0.98,0.62,-0.96,0.64,-0.64,-0.51,-0.37,-1.62,-1.60,-1.60
163.24,-1.02,0.64,-0.99,0.66,-0.66,-0.54,-0.39,-1.68,-1.65,-1.65
164.88,-1.05,0.66,-1.02,0.69,-0.69,-0.57,-0.40,-1.73,-1.71,-1.71
166.53,-1.08,0.70,-1.06,0.71,-0.71,-0.61,-0.42,-1.78,-1.77,-1.78
168.19,-1.09,0.73,-1.10,0.73,-0.73,-0.64,-0.44,-1.81,-1.83,-1.82
169.87,-1.11,0.77,-1.13,0.75,-0.75,-0.67,-0.46,-1.86,-1.88,-1.88
171.57,-1.14,0.81,-1.16,0.78,-0.78,-0.70,-0.47,-1.91,-1.94,-1.94
173.29,-1.18,0.82,-1.19,0.81,-0.81,-0.74,-0.49,-1.98,-2.00,-1.99
175.02,-1.22,0.83,-1.22,0.83,-0.83,-0.77,-0.51,-2.05,-2.05,-2.05
176.77,-1.26,0.85,-1.25,0.86,-0.86,-0.80,-0.53,-2.12,-2.11,-2.11
178.54,-1.29,0.88,-1.27,0.89,-0.89,-0.84,-0.55,-2.18,-2.17,-2.16
180.32,-1.33,0.90,-1.30,0.92,-0.92,-0.87,-0.57,-2.25,-2.22,-2.23
182.13,-1.36,0.92,-1.33,0.94,-0.94,-0.91,-0.59,-2.30,-2.28,-2.27
183.95,-1.38,0.95,-1.36,0.97,-0.97,-0.94,-0.61,-2.34,-2.33,-2.33
185.79,-1.38,1.01,-1.40,0.99,-0.99,-0.97,-0.63,-2.36,-2.38,-2.39
187.65,-1.41,1.03,-1.43,1.01,-1.01,-1.00,-0.65,-2.41,-2.44,-2.44
189.52,-1.44,1.05,-1.47,1.02,-1.02,-1.03,-0.68,-2.46,-2.49,-2.49
191.42,-1.48,1.06,-1.50,1.04,-1.04,-1.06,-0.70,-2.52,-2.54,-2.53
193.33,-1.52,1.06,-1.53,1.06,-1.06,-1.09,-0.72,-2.58,-2.59,-2.58
195.27,-1.56,1.08,-1.56,1.08,-1.08,-1.12,-0.74,-2.63,-2.63,-2.64
197.22,-1.60,1.09,-1.59,1.09,-1.09,-1.15,-0.77,-2.69,-2.68,-2.69
199.19,-1.64,1.09,-1.62,1.11,-1.11,-1.17,-0.79,-2.74,-2.72,-2.73
201.18,-1.68,1.10,-1.65,1.12,-1.12,-1.19,-0.81,-2.79,-2.77,-2.78
203.19,-1.71,1.10,-1.68,1.13,-1.13,-1.21,-0.84,-2.83,-2.81,-2.81
205.23,-1.73,1.11,-1.71,1.13,-1.13,-1.23,-0.86,-2.86,-2.85,-2.84
207.28,-1.74,1.14,-1.75,1.14,-1.14,-1.24,-0.89,-2.88,-2.89,-2.88
209.35,-1.76,1.16,-1.78,1.15,-1.15,-1.25,-0.91,-2.90,-2.92,-2.92
211.44,-1.79,1.17,-1.81,1.15,-1.15,-1.26,-0.93,-2.94,-2.96,-2.96
213.56,-1.82,1.17,-1.84,1.16,-1.16,-1.27,-0.95,-2.97,-2.99,-2.98
215.69,-1.85,1.17,-1.86,1.16,-1.16,-1.27,-0.98,-3.01,-3.03,-3.02
217.85,-1.89,1.17,-1.89,1.17,-1.17,-1.27,-1.00,-3.05,-3.06,-3.06
220.03,-1.93,1.16,-1.92,1.17,-1.17,-1.27,-1.02,-3.10,-3.09,-3.09
222.23,-1.96,1.17,-1.94,1.17,-1.17,-1.26,-1.04,-3.13,-3.12,-3.12
224.45,-1.99,1.16,-1.97,1.18,-1.18,-1.25,-1.06,-3.16,-3.15,-3.15
226.70,-2.01,1.17,-2.00,1.18,-1.18,-1.24,-1.08,-3.18,-3.17,-3.18
228.96,-2.03,1.16,-2.03,1.17,-1.17,-1.23,-1.09,-3.20,-3.20,-3.19
231.25,-2.06,1.17,-2.05,1.17,-1.17,-1.21,-1.11,-3.23,-3.22,-3.22
233.57,-2.08,1.17,-2.08,1.16,-1.16,-1.20,-1.12,-3.24,-3.24,-3.24
235.90,-2.10,1.16,-2.10,1.16,-1.16,-1.18,-1.13,-3.25,-3.26,-3.26
238.26,-2.12,1.17,-2.13,1.15,-1.15,-1.16,-1.15,-3.27,-3.28,-3.29
240.64,-2.15,1.14,-2.15,1.14,-1.14,-1.14,-1.15,-3.29,-3.29,-3.29
243.05,-2.17,1.14,-2.17,1.13,-1.13,-1.12,-1.16,-3.30,-3.31,-3.31
245.48,-2.20,1.13,-2.20,1.12,-1.12,-1.10,-1.17,-3.32,-3.32,-3.32
247.93,-2.23,1.11,-2.22,1.10,-1.10,-1.07,-1.17,-3.33,-3.33,-3.34
250.41,-2.26,1.08,-2.25,1.09,-1.09,-1.05,-1.17,-3.34,-3.34,-3.33
252.92,-2.28,1.06,-2.28,1.07,-1.07,-1.03,-1.17,-3.35,-3.35,-3.34
255.45,-2.30,1.06,-2.30,1.05,-1.05,-1.00,-1.17,-3.35,-3.35,-3.35
258.00,-2.32,1.04,-2.33,1.03,-1.03,-0.98,-1.16,-3.35,-3.36,-3.36
260.58,-2.35,1.02,-2.35,1.02,-1.02,-0.95,-1.16,-3.36,-3.37,-3.36
263.19,-2.38,0.99,-2.38,1.00,-1.00,-0.93,-1.15,-3.37,-3.37,-3.37
265.82,-2.41,0.97,-2.40,0.98,-0.98,-0.91,-1.14,-3.39,-3.38,-3.38
268.48,-2.44,0.94,-2.42,0.96,-0.96,-0.88,-1.13,-3.40,-3.39,-3.38
271.16,-2.46,0.93,-2.44,0.95,-0.95,-0.86,-1.11,-3.40,-3.39,-3.38
273.87,-2.47,0.93,-2.47,0.93,-0.93,-0.84,-1.10,-3.40,-3.39,-3.39
276.61,-2.49,0.91,-2.49,0.91,-0.91,-0.82,-1.08,-3.40,-3.40,-3.39
279.38,-2.51,0.91,-2.51,0.90,-0.90,-0.80,-1.06,-3.40,-3.40,-3.42
282.17,-2.53,0.89,-2.53,0.88,-0.88,-0.78,-1.05,-3.40,-3.40,-3.42
284.99,-2.55,0.86,-2.55,0.86,-0.86,-0.76,-1.03,-3.40,-3.41,-3.41
287.84,-2.57,0.84,-2.57,0.84,-0.84,-0.74,-1.01,-3.40,-3.41,-3.40
290.72,-2.59,0.83,-2.59,0.81,-0.81,-0.72,-0.98,-3.40,-3.41,-3.41
293.63,-2.61,0.80,-2.62,0.79,-0.79,-0.70,-0.96,-3.39,-3.41,-3.40
296.57,-2.63,0.77,-2.64,0.76,-0.76,-0.68,-0.94,-3.39,-3.40,-3.40
299.53,-2.66,0.74,-2.67,0.73,-0.73,-0.67,-0.92,-3.39,-3.40,-3.40
302.53,-2.69,0.70,-2.70,0.70,-0.70,-0.65,-0.90,-3.38,-3.40,-3.39
305.55,-2.72,0.68,-2.72,0.67,-0.67,-0.63,-0.87,-3.38,-3.39,-3.39
308.61,-2.75,0.64,-2.75,0.64,-0.64,-0.62,-0.85,-3.38,-3.39,-3.38
311.69,-2.78,0.60,-2.77,0.61,-0.61,-0.60,-0.83,-3.38,-3.38,-3.38
314.81,-2.81,0.57,-2.79,0.58,-0.58,-0.59,-0.80,-3.39,-3.37,-3.38
317.96,-2.83,0.55,-2.81,0.56,-0.56,-0.57,-0.78,-3.39,-3.37,-3.37
321.14,-2.85,0.51,-2.82,0.54,-0.54,-0.56,-0.76,-3.39,-3.36,-3.36
324.35,-2.86,0.51,-2.83,0.52,-0.52,-0.54,-0.73,-3.38,-3.36,-3.36
327.59,-2.87,0.47,-2.84,0.51,-0.51,-0.53,-0.71,-3.38,-3.35,-3.34
330.87,-2.87,0.48,-2.84,0.50,-0.50,-0.52,-0.69,-3.37,-3.35,-3.35
334.18,-2.86,0.48,-2.85,0.49,-0.49,-0.50,-0.67,-3.35,-3.34,-3.34
337.52,-2.85,0.49,-2.84,0.49,-0.49,-0.49,-0.64,-3.33,-3.33,-3.34
340.90,-2.84,0.48,-2.84,0.48,-0.48,-0.48,-0.62,-3.32,-3.32,-3.32
344.30,-2.83,0.49,-2.84,0.48,-0.48,-0.46,-0.60,-3.30,-3.32,-3.32
347.75,-2.82,0.49,-2.84,0.47,-0.47,-0.45,-0.58,-3.29,-3.31,-3.31
351.23,-2.83,0.49,-2.85,0.46,-0.46,-0.43,-0.56,-3.28,-3.31,-3.32
354.74,-2.84,0.45,-2.85,0.44,-0.44,-0.42,-0.54,-3.28,-3.30,-3.29
358.28,-2.85,0.45,-2.87,0.43,-0.43,-0.41,-0.52,-3.27,-3.29,-3.29
361.87,-2.87,0.42,-2.88,0.41,-0.41,-0.39,-0.50,-3.27,-3.29,-3.29
365.49,-2.90,0.38,-2.90,0.38,-0.38,-0.38,-0.48,-3.28,-3.28,-3.28
369.14,-2.92,0.35,-2.92,0.35,-0.35,-0.36,-0.47,-3.27,-3.27,-3.26
372.83,-2.95,0.31,-2.95,0.32,-0.32,-0.34,-0.45,-3.26,-3.26,-3.26
376.56,-2.98,0.28,-2.98,0.28,-0.28,-0.33,-0.43,-3.25,-3.26,-3.26
380.33,-3.01,0.25,-3.01,0.24,-0.24,-0.31,-0.41,-3.25,-3.25,-3.25
384.13,-3.05,0.19,-3.04,0.20,-0.20,-0.29,-0.40,-3.25,-3.24,-3.24
387.97,-3.08,0.15,-3.07,0.16,-0.16,-0.27,-0.38,-3.24,-3.23,-3.23
391.85,-3.10,0.13,-3.10,0.12,-0.12,-0.25,-0.37,-3.22,-3.22,-3.22
395.77,-3.13,0.09,-3.13,0.09,-0.09,-0.23,-0.35,-3.21,-3.21,-3.22
399.73,-3.15,0.06,-3.15,0.05,-0.05,-0.21,-0.34,-3.20,-3.20,-3.21
403.72,-3.17,0.02,-3.17,0.03,-0.03,-0.19,-0.32,-3.19,-3.19,-3.18
407.76,-3.19,-0.00,-3.18,0.00,-0.00,-0.17,-0.31,-3.19,-3.18,-3.18
411.84,-3.21,-0.03,-3.19,-0.01,0.01,-0.14,-0.30,-3.19,-3.18,-3.18
415.96,-3.22,-0.06,-3.19,-0.03,0.03,-0.12,-0.28,-3.19,-3.17,-3.16
420.12,-3.21,-0.05,-3.19,-0.03,0.03,-0.10,-0.27,-3.17,-3.16,-3.16
424.32,-3.20,-0.04,-3.18,-0.03,0.03,-0.07,-0.26,-3.16,-3.15,-3.15
428.56,-3.18,-0.04,-3.17,-0.03,0.03,-0.05,-0.25,-3.15,-3.14,-3.14
432.85,-3.16,-0.03,-3.16,-0.02,0.02,-0.03,-0.24,-3.13,-3.13,-3.13
437.18,-3.14,-0.01,-3.14,-0.01,0.01,-0.01,-0.23,-3.13,-3.13,-3.13
441.55,-3.12,0.00,-3.11,0.00,-0.00,0.01,-0.23,-3.12,-3.12,-3.12
445.96,-3.09,0.03,-3.09,0.02,-0.02,0.03,-0.22,-3.11,-3.11,-3.11
450.42,-3.06,0.05,-3.06,0.04,-0.04,0.04,-0.21,-3.10,-3.10,-3.10
454.93,-3.03,0.07,-3.03,0.06,-0.06,0.05,-0.21,-3.09,-3.09,-3.10
459.48,-3.00,0.09,-3.00,0.08,-0.08,0.05,-0.20,-3.08,-3.08,-3.09
464.07,-2.97,0.10,-2.98,0.10,-0.10,0.05,-0.20,-3.07,-3.07,-3.07
468.71,-2.94,0.12,-2.95,0.12,-0.12,0.05,-0.20,-3.05,-3.07,-3.06
473.40,-2.92,0.14,-2.93,0.13,-0.13,0.04,-0.20,-3.05,-3.06,-3.05
478.13,-2.90,0.15,-2.91,0.14,-0.14,0.02,-0.20,-3.04,-3.05,-3.04
482.91,-2.88,0.16,-2.89,0.15,-0.15,0.00,-0.20,-3.03,-3.04,-3.03
487.74,-2.87,0.16,-2.87,0.16,-0.16,-0.02,-0.20,-3.02,-3.02,-3.03
492.62,-2.84,0.18,-2.85,0.17,-0.17,-0.05,-0.20,-3.00,-3.01,-3.02
497.55,-2.82,0.19,-2.83,0.17,-0.17,-0.09,-0.21,-2.99,-3.00,-3.01
502.52,-2.81,0.19,-2.81,0.18,-0.18,-0.12,-0.21,-2.99,-2.99,-3.00
