frequency,raw,error,smoothed,error_smoothed,equalization,parametric_eq,fixed_band_eq,equalized_raw,equalized_smoothed,target
20.00,10.98,1.05,10.99,1.06,-1.06,-0.36,-0.42,9.92,9.93,9.93
20.20,10.98,1.06,10.99,1.06,-1.06,-0.37,-0.43,9.91,9.92,9.92
20.40,10.98,1.07,10.98,1.07,-1.07,-0.38,-0.44,9.91,9.91,9.91
20.61,10.98,1.07,10.98,1.08,-1.08,-0.38,-0.46,9.90,9.90,9.91
20.81,10.98,1.09,10.97,1.08,-1.08,-0.39,-0.47,9.90,9.89,9.89
21.02,10.98,1.09,10.97,1.08,-1.08,-0.40,-0.48,9.89,9.89,9.89
21.23,10.98,1.10,10.96,1.09,-1.09,-0.41,-0.49,9.89,9.88,9.88
21.44,10.98,1.09,10.96,1.09,-1.09,-0.41,-0.51,9.89,9.87,9.89
21.66,10.98,1.10,10.95,1.09,-1.09,-0.42,-0.52,9.89,9.86,9.87
21.87,10.98,1.11,10.95,1.09,-1.09,-0.43,-0.53,9.89,9.86,9.86
22.09,10.97,1.11,10.94,1.09,-1.09,-0.44,-0.55,9.88,9.85,9.85
22.31,10.95,1.09,10.93,1.09,-1.09,-0.45,-0.56,9.86,9.85,9.85
22.54,10.93,1.09,10.92,1.08,-1.08,-0.45,-0.58,9.84,9.84,9.84
22.76,10.90,1.06,10.91,1.08,-1.08,-0.46,-0.59,9.82,9.84,9.84
22.99,10.88,1.05,10.91,1.07,-1.07,-0.47,-0.61,9.80,9.83,9.83
23.22,10.88,1.06,10.90,1.07,-1.07,-0.48,-0.62,9.81,9.83,9.82
23.45,10.88,1.05,10.88,1.05,-1.05,-0.49,-0.64,9.82,9.82,9.83
23.69,10.88,1.06,10.85,1.03,-1.03,-0.50,-0.66,9.85,9.82,9.81
23.92,10.88,1.06,10.82,1.00,-1.00,-0.51,-0.68,9.88,9.82,9.81
24.16,10.88,1.05,10.79,0.97,-0.97,-0.52,-0.69,9.91,9.82,9.82
24.40,10.88,1.05,10.80,0.98,-0.98,-0.53,-0.71,9.89,9.82,9.83
24.65,10.88,1.05,10.86,1.04,-1.04,-0.54,-0.73,9.84,9.82,9.83
24.89,10.88,1.05,10.94,1.12,-1.12,-0.55,-0.75,9.76,9.82,9.83
25.14,10.88,1.05,11.04,1.21,-1.21,-0.56,-0.77,9.67,9.82,9.82
25.39,10.88,1.05,11.11,1.29,-1.29,-0.57,-0.78,9.59,9.83,9.82
25.65,10.88,1.06,11.18,1.35,-1.35,-0.58,-0.80,9.53,9.83,9.82
25.91,10.88,1.05,11.23,1.40,-1.40,-0.59,-0.82,9.48,9.83,9.83
26.16,11.10,1.26,11.27,1.44,-1.44,-0.60,-0.84,9.67,9.83,9.84
26.43,11.41,1.58,11.29,1.46,-1.46,-0.61,-0.86,9.95,9.83,9.83
26.69,11.76,1.92,11.30,1.47,-1.47,-0.62,-0.88,10.29,9.83,9.83
26.96,12.09,2.26,11.29,1.46,-1.46,-0.64,-0.90,10.63,9.83,9.83
27.23,11.84,2.01,11.26,1.43,-1.43,-0.65,-0.92,10.41,9.83,9.83
27.50,11.46,1.63,11.20,1.37,-1.37,-0.66,-0.94,10.09,9.83,9.83
27.77,11.08,1.25,11.13,1.31,-1.31,-0.67,-0.96,9.78,9.83,9.83
28.05,10.78,0.95,11.10,1.28,-1.28,-0.69,-0.98,9.50,9.83,9.83
28.33,10.78,0.96,11.10,1.27,-1.27,-0.70,-0.99,9.50,9.83,9.82
28.62,10.78,0.96,11.11,1.28,-1.28,-0.71,-1.01,9.49,9.82,9.81
28.90,10.78,0.95,11.10,1.28,-1.28,-0.72,-1.03,9.49,9.82,9.82
29.19,10.78,0.96,11.08,1.26,-1.26,-0.74,-1.05,9.52,9.82,9.82
29.48,10.78,0.96,11.04,1.23,-1.23,-0.75,-1.06,9.55,9.81,9.82
29.78,10.78,0.96,11.02,1.21,-1.21,-0.77,-1.08,9.57,9.81,9.81
30.08,10.87,1.06,11.02,1.22,-1.22,-0.78,-1.10,9.66,9.80,9.82
30.38,11.23,1.43,11.06,1.26,-1.26,-0.79,-1.11,9.97,9.80,9.81
30.68,11.63,1.83,11.09,1.30,-1.30,-0.81,-1.12,10.33,9.79,9.79
30.99,12.00,2.21,11.10,1.31,-1.31,-0.82,-1.14,10.69,9.78,9.79
31.30,11.63,1.86,11.08,1.31,-1.31,-0.84,-1.15,10.32,9.78,9.77
31.61,11.20,1.43,11.06,1.29,-1.29,-0.85,-1.16,9.90,9.77,9.77
31.93,10.79,1.04,11.05,1.29,-1.29,-0.87,-1.18,9.50,9.76,9.75
32.24,10.68,0.93,11.04,1.29,-1.29,-0.89,-1.19,9.39,9.75,9.75
32.57,10.68,0.94,11.04,1.30,-1.30,-0.90,-1.20,9.38,9.75,9.74
32.89,10.68,0.95,11.04,1.30,-1.30,-0.92,-1.21,9.37,9.74,9.73
33.22,10.68,0.95,11.02,1.29,-1.29,-0.93,-1.22,9.38,9.73,9.73
33.55,10.68,0.96,10.96,1.23,-1.23,-0.95,-1.23,9.45,9.73,9.72
33.89,10.68,0.95,10.85,1.13,-1.13,-0.97,-1.24,9.55,9.72,9.72
34.23,10.82,1.11,10.74,1.02,-1.02,-0.99,-1.24,9.79,9.71,9.71
34.57,11.02,1.31,10.63,0.92,-0.92,-1.00,-1.25,10.09,9.71,9.70
34.92,11.21,1.52,10.56,0.86,-0.86,-1.02,-1.26,10.36,9.70,9.70
35.27,11.11,1.41,10.50,0.81,-0.81,-1.04,-1.27,10.30,9.69,9.70
35.62,10.90,1.21,10.45,0.77,-0.77,-1.06,-1.28,10.13,9.68,9.68
35.97,10.68,1.00,10.39,0.72,-0.72,-1.08,-1.29,9.96,9.67,9.68
36.33,10.22,0.56,10.32,0.67,-0.67,-1.10,-1.30,9.55,9.65,9.66
36.70,9.76,0.12,10.27,0.63,-0.63,-1.12,-1.30,9.13,9.64,9.64
37.06,9.40,-0.23,10.23,0.61,-0.61,-1.14,-1.31,8.79,9.62,9.62
37.43,9.57,-0.03,10.20,0.61,-0.61,-1.16,-1.32,8.96,9.60,9.60
37.81,9.74,0.16,10.20,0.63,-0.63,-1.18,-1.33,9.11,9.57,9.58
38.19,9.99,0.44,10.23,0.68,-0.68,-1.20,-1.35,9.31,9.55,9.55
38.57,10.36,0.84,10.28,0.76,-0.76,-1.22,-1.36,9.60,9.52,9.52
38.95,10.71,1.22,10.30,0.81,-0.81,-1.24,-1.37,9.90,9.49,9.49
39.34,10.69,1.23,10.31,0.85,-0.85,-1.26,-1.38,9.84,9.46,9.45
39.74,10.62,1.19,10.32,0.89,-0.89,-1.29,-1.40,9.73,9.43,9.43
40.14,10.61,1.21,10.35,0.94,-0.94,-1.31,-1.41,9.66,9.40,9.40
40.54,10.70,1.33,10.39,1.01,-1.01,-1.33,-1.43,9.68,9.37,9.37
40.94,10.79,1.45,10.43,1.09,-1.09,-1.35,-1.44,9.70,9.34,9.34
41.35,10.70,1.38,10.45,1.14,-1.14,-1.38,-1.46,9.56,9.31,9.32
41.76,10.57,1.30,10.42,1.14,-1.14,-1.40,-1.48,9.43,9.28,9.27
42.18,10.26,1.01,10.38,1.12,-1.12,-1.43,-1.50,9.14,9.26,9.25
42.60,9.71,0.48,10.34,1.11,-1.11,-1.45,-1.52,8.60,9.23,9.23
43.03,9.25,0.05,10.30,1.11,-1.11,-1.47,-1.54,8.14,9.20,9.20
43.46,9.80,0.64,10.30,1.13,-1.13,-1.50,-1.57,8.67,9.17,9.16
43.90,10.33,1.19,10.32,1.19,-1.19,-1.53,-1.59,9.14,9.14,9.14
44.33,10.63,1.53,10.35,1.25,-1.25,-1.55,-1.62,9.38,9.10,9.10
44.78,10.83,1.77,10.37,1.30,-1.30,-1.58,-1.64,9.53,9.07,9.07
45.23,10.81,1.76,10.39,1.36,-1.36,-1.60,-1.67,9.45,9.03,9.05
45.68,10.56,1.55,10.42,1.43,-1.43,-1.63,-1.70,9.13,9.00,9.00
46.13,10.42,1.46,10.45,1.50,-1.50,-1.66,-1.73,8.92,8.96,8.96
46.60,10.56,1.65,10.48,1.57,-1.57,-1.69,-1.76,9.00,8.92,8.92
47.06,10.69,1.81,10.54,1.67,-1.67,-1.71,-1.79,9.02,8.87,8.88
47.53,10.64,1.80,10.60,1.78,-1.78,-1.74,-1.83,8.86,8.83,8.84
48.01,10.58,1.80,10.58,1.80,-1.80,-1.77,-1.86,8.78,8.78,8.78
48.49,10.43,1.70,10.49,1.76,-1.76,-1.80,-1.90,8.67,8.73,8.73
48.97,10.29,1.61,10.46,1.78,-1.78,-1.83,-1.93,8.51,8.68,8.68
49.46,10.28,1.64,10.47,1.83,-1.83,-1.86,-1.97,8.44,8.63,8.64
49.96,10.28,1.71,10.48,1.90,-1.90,-1.89,-2.01,8.38,8.58,8.56
50.46,10.32,1.80,10.49,1.96,-1.96,-1.92,-2.05,8.36,8.53,8.52
50.96,10.37,1.89,10.48,2.00,-2.00,-1.95,-2.09,8.37,8.48,8.48
51.47,10.63,2.20,10.47,2.04,-2.04,-1.99,-2.13,8.58,8.43,8.43
51.99,10.89,2.52,10.49,2.11,-2.11,-2.02,-2.17,8.78,8.38,8.37
52.51,10.53,2.20,10.50,2.18,-2.18,-2.05,-2.21,8.35,8.32,8.33
53.03,10.20,1.91,10.51,2.24,-2.24,-2.08,-2.25,7.96,8.27,8.29
53.56,10.75,2.52,10.49,2.27,-2.27,-2.12,-2.29,8.48,8.22,8.23
54.10,11.08,2.91,10.48,2.31,-2.31,-2.15,-2.34,8.77,8.17,8.17
54.64,10.48,2.36,10.51,2.38,-2.38,-2.18,-2.38,8.10,8.12,8.12
55.18,10.07,2.01,10.53,2.46,-2.46,-2.22,-2.42,7.61,8.07,8.06
55.74,10.07,2.06,10.54,2.51,-2.51,-2.25,-2.46,7.55,8.03,8.01
56.29,10.31,2.34,10.48,2.50,-2.50,-2.29,-2.50,7.81,7.98,7.96
56.86,10.76,2.84,10.38,2.45,-2.45,-2.32,-2.54,8.31,7.92,7.92
57.42,10.54,2.69,10.27,2.40,-2.40,-2.36,-2.58,8.14,7.87,7.85
58.00,10.10,2.28,10.22,2.40,-2.40,-2.40,-2.62,7.70,7.82,7.82
58.58,10.05,2.27,10.18,2.42,-2.42,-2.43,-2.66,7.63,7.76,7.78
59.16,10.16,2.43,10.11,2.40,-2.40,-2.47,-2.69,7.76,7.71,7.73
59.76,10.65,2.97,10.04,2.39,-2.39,-2.51,-2.73,8.26,7.65,7.68
60.35,10.50,2.89,10.03,2.44,-2.44,-2.55,-2.76,8.07,7.59,7.61
60.96,9.91,2.36,10.07,2.53,-2.53,-2.59,-2.79,7.38,7.53,7.55
61.57,9.34,1.87,10.06,2.59,-2.59,-2.62,-2.82,6.75,7.47,7.47
62.18,9.12,1.72,10.01,2.60,-2.60,-2.66,-2.85,6.52,7.41,7.40
62.80,9.75,2.43,9.92,2.58,-2.58,-2.70,-2.88,7.17,7.34,7.32
63.43,10.17,2.91,9.91,2.64,-2.64,-2.74,-2.90,7.53,7.27,7.26
64.07,10.42,3.23,9.94,2.73,-2.73,-2.78,-2.93,7.69,7.21,7.20
64.71,9.91,2.78,9.95,2.81,-2.81,-2.83,-2.95,7.09,7.14,7.13
65.35,9.97,2.90,9.90,2.84,-2.84,-2.87,-2.97,7.13,7.07,7.07
66.01,10.49,3.50,9.90,2.90,-2.90,-2.91,-2.99,7.59,7.00,7.00
66.67,10.11,3.16,9.90,2.98,-2.98,-2.95,-3.01,7.13,6.93,6.94
67.33,9.79,2.94,9.92,3.06,-3.06,-2.99,-3.03,6.74,6.86,6.86
68.01,9.57,2.77,9.95,3.16,-3.16,-3.04,-3.04,6.40,6.79,6.79
68.69,9.60,2.88,10.00,3.28,-3.28,-3.08,-3.06,6.31,6.72,6.72
69.37,9.98,3.32,10.00,3.35,-3.35,-3.12,-3.08,6.63,6.65,6.66
70.07,10.49,3.92,9.93,3.36,-3.36,-3.17,-3.09,7.14,6.57,6.58
70.77,9.72,3.21,9.91,3.41,-3.41,-3.21,-3.11,6.31,6.50,6.51
71.48,9.53,3.09,9.93,3.50,-3.50,-3.26,-3.13,6.03,6.43,6.43
72.19,9.77,3.42,9.96,3.61,-3.61,-3.30,-3.15,6.16,6.35,6.35
72.91,10.38,4.11,9.94,3.66,-3.66,-3.35,-3.16,6.72,6.28,6.27
73.64,9.76,3.56,9.89,3.69,-3.69,-3.39,-3.18,6.07,6.21,6.20
74.38,9.74,3.61,9.89,3.75,-3.75,-3.44,-3.20,5.98,6.13,6.13
75.12,10.34,4.28,9.90,3.84,-3.84,-3.48,-3.22,6.50,6.06,6.05
75.87,10.33,4.34,9.86,3.87,-3.87,-3.53,-3.25,6.46,5.99,5.99
76.63,9.66,3.74,9.80,3.88,-3.88,-3.58,-3.27,5.78,5.93,5.92
77.40,9.57,3.71,9.76,3.90,-3.90,-3.63,-3.30,5.66,5.86,5.86
78.17,9.98,4.19,9.75,3.95,-3.95,-3.67,-3.32,6.02,5.79,5.78
78.95,9.74,4.01,9.75,4.03,-4.03,-3.72,-3.35,5.71,5.72,5.73
79.74,9.31,3.64,9.66,4.01,-4.01,-3.77,-3.39,5.30,5.66,5.66
80.54,9.17,3.57,9.57,3.97,-3.97,-3.82,-3.42,5.19,5.59,5.59
81.35,9.37,3.84,9.53,4.01,-4.01,-3.87,-3.46,5.36,5.52,5.53
82.16,9.77,4.30,9.55,4.09,-4.09,-3.92,-3.49,5.68,5.46,5.47
82.98,9.87,4.48,9.52,4.13,-4.13,-3.96,-3.54,5.75,5.39,5.40
83.81,9.22,3.89,9.47,4.15,-4.15,-4.01,-3.58,5.07,5.32,5.32
84.65,9.66,4.41,9.45,4.20,-4.20,-4.06,-3.63,5.46,5.25,5.25
85.50,9.67,4.50,9.41,4.23,-4.23,-4.11,-3.68,5.43,5.18,5.17
86.35,9.23,4.12,9.36,4.26,-4.26,-4.16,-3.73,4.97,5.11,5.10
87.22,8.97,3.93,9.33,4.29,-4.29,-4.21,-3.78,4.68,5.03,5.04
88.09,9.05,4.09,9.29,4.33,-4.33,-4.26,-3.84,4.71,4.96,4.96
88.97,9.82,4.93,9.26,4.38,-4.38,-4.32,-3.90,5.45,4.89,4.89
89.86,9.86,5.05,9.23,4.43,-4.43,-4.37,-3.97,5.43,4.81,4.80
90.76,9.07,4.34,9.16,4.43,-4.43,-4.42,-4.03,4.64,4.73,4.73
91.66,8.78,4.13,9.08,4.43,-4.43,-4.47,-4.10,4.35,4.65,4.64
92.58,8.71,4.13,9.05,4.49,-4.49,-4.52,-4.18,4.22,4.57,4.57
93.51,8.67,4.18,9.05,4.57,-4.57,-4.57,-4.25,4.10,4.48,4.49
94.44,8.94,4.53,9.00,4.60,-4.60,-4.62,-4.33,4.33,4.40,4.41
95.39,9.31,5.00,9.01,4.70,-4.70,-4.67,-4.41,4.62,4.31,4.32
96.34,9.10,4.87,9.03,4.81,-4.81,-4.72,-4.49,4.29,4.22,4.22
97.30,8.74,4.61,8.99,4.86,-4.86,-4.78,-4.58,3.88,4.13,4.13
98.28,9.17,5.14,8.91,4.87,-4.87,-4.83,-4.67,4.30,4.04,4.04
99.26,9.06,5.12,8.89,4.94,-4.94,-4.88,-4.76,4.11,3.94,3.93
100.25,8.55,4.71,8.91,5.06,-5.06,-4.93,-4.85,3.48,3.85,3.84
101.25,8.98,5.22,8.88,5.13,-5.13,-4.98,-4.94,3.85,3.75,3.75
102.27,9.13,5.47,8.83,5.17,-5.17,-5.03,-5.03,3.95,3.66,3.66
103.29,8.81,5.24,8.77,5.20,-5.20,-5.08,-5.13,3.60,3.56,3.56
104.32,8.73,5.25,8.66,5.19,-5.19,-5.13,-5.23,3.54,3.47,3.48
105.37,8.83,5.44,8.55,5.17,-5.17,-5.18,-5.32,3.65,3.38,3.38
106.42,8.30,5.01,8.46,5.18,-5.18,-5.23,-5.42,3.12,3.28,3.29
107.48,8.08,4.90,8.37,5.17,-5.17,-5.29,-5.51,2.90,3.19,3.18
108.56,8.43,5.32,8.29,5.19,-5.19,-5.34,-5.61,3.24,3.10,3.10
109.64,8.66,5.65,8.20,5.19,-5.19,-5.38,-5.70,3.47,3.01,3.01
110.74,7.69,4.77,8.13,5.22,-5.22,-5.43,-5.79,2.47,2.92,2.91
111.85,7.39,4.56,8.09,5.26,-5.26,-5.48,-5.88,2.13,2.83,2.83
112.97,8.36,5.62,8.04,5.30,-5.30,-5.53,-5.97,3.07,2.74,2.75
114.10,8.01,5.35,7.99,5.34,-5.34,-5.58,-6.05,2.67,2.65,2.66
115.24,7.76,5.19,7.97,5.40,-5.40,-5.63,-6.13,2.36,2.57,2.57
116.39,8.15,5.67,8.00,5.51,-5.51,-5.68,-6.20,2.64,2.49,2.47
117.55,7.96,5.55,8.02,5.62,-5.62,-5.72,-6.26,2.34,2.41,2.40
118.73,7.76,5.45,8.00,5.67,-5.67,-5.77,-6.33,2.09,2.33,2.31
119.92,8.28,6.05,7.93,5.68,-5.68,-5.82,-6.38,2.60,2.25,2.24
121.12,8.08,5.90,7.88,5.71,-5.71,-5.86,-6.43,2.37,2.17,2.18
122.33,7.93,5.83,7.85,5.75,-5.75,-5.91,-6.47,2.18,2.10,2.10
123.55,8.07,6.04,7.86,5.84,-5.84,-5.95,-6.50,2.22,2.02,2.03
124.79,7.98,6.02,7.80,5.85,-5.85,-5.99,-6.53,2.12,1.95,1.96
126.03,7.45,5.57,7.69,5.82,-5.82,-6.04,-6.55,1.63,1.87,1.88
127.29,7.90,6.09,7.67,5.87,-5.87,-6.08,-6.56,2.02,1.80,1.80
128.57,7.96,6.23,7.63,5.90,-5.90,-6.12,-6.57,2.05,1.73,1.73
129.85,6.91,5.25,7.56,5.90,-5.90,-6.16,-6.57,1.00,1.66,1.65
131.15,6.67,5.09,7.56,5.98,-5.98,-6.20,-6.56,0.69,1.58,1.58
132.46,7.59,6.08,7.54,6.03,-6.03,-6.24,-6.55,1.56,1.51,1.51
133.79,7.82,6.38,7.46,6.02,-6.02,-6.28,-6.52,1.80,1.44,1.43
135.12,7.45,6.08,7.41,6.04,-6.04,-6.32,-6.50,1.40,1.37,1.36
136.48,7.62,6.31,7.37,6.08,-6.08,-6.35,-6.47,1.54,1.29,1.30
137.84,7.22,5.98,7.32,6.10,-6.10,-6.39,-6.44,1.12,1.22,1.23
139.22,7.44,6.29,7.30,6.15,-6.15,-6.42,-6.40,1.29,1.15,1.15
140.61,7.70,6.61,7.31,6.22,-6.22,-6.45,-6.36,1.47,1.08,1.09
142.02,7.25,6.23,7.27,6.26,-6.26,-6.49,-6.31,0.99,1.01,1.01
143.44,7.32,6.38,7.27,6.32,-6.32,-6.52,-6.27,1.00,0.95,0.94
144.87,7.46,6.58,7.24,6.37,-6.37,-6.55,-6.22,1.09,0.88,0.88
146.32,6.59,5.77,7.16,6.34,-6.34,-6.57,-6.18,0.24,0.81,0.81
147.78,6.52,5.77,7.06,6.31,-6.31,-6.60,-6.13,0.21,0.74,0.74
149.26,7.13,6.45,6.98,6.31,-6.31,-6.63,-6.09,0.82,0.68,0.67
150.75,7.13,6.53,6.92,6.31,-6.31,-6.65,-6.04,0.81,0.61,0.60
152.26,6.95,6.41,6.85,6.31,-6.31,-6.68,-6.00,0.63,0.54,0.54
153.78,7.19,6.71,6.83,6.36,-6.36,-6.70,-5.96,0.82,0.47,0.47
155.32,6.97,6.56,6.81,6.41,-6.41,-6.72,-5.92,0.56,0.40,0.41
156.88,6.54,6.20,6.77,6.44,-6.44,-6.74,-5.88,0.10,0.33,0.34
158.44,6.45,6.18,6.72,6.46,-6.46,-6.76,-5.85,-0.01,0.26,0.27
160.03,6.39,6.19,6.67,6.48,-6.48,-6.77,-5.82,-0.10,0.19,0.20
161.63,6.79,6.66,6.63,6.51,-6.51,-6.79,-5.79,0.27,0.12,0.13
163.24,6.75,6.70,6.60,6.55,-6.55,-6.80,-5.76,0.21,0.05,0.05
164.88,6.32,6.33,6.52,6.54,-6.54,-6.81,-5.74,-0.22,-0.02,-0.02
166.53,6.60,6.69,6.44,6.53,-6.53,-6.82,-5.73,0.07,-0.09,-0.09
168.19,6.80,6.95,6.40,6.56,-6.56,-6.83,-5.71,0.24,-0.16,-0.15
169.87,6.74,6.97,6.36,6.58,-6.58,-6.84,-5.71,0.16,-0.23,-0.23
171.57,6.17,6.46,6.29,6.58,-6.58,-6.85,-5.70,-0.42,-0.30,-0.30
173.29,5.65,6.01,6.25,6.61,-6.61,-6.85,-5.70,-0.96,-0.36,-0.37
175.02,5.87,6.29,6.22,6.65,-6.65,-6.85,-5.71,-0.78,-0.43,-0.43
176.77,6.42,6.91,6.16,6.65,-6.65,-6.85,-5.71,-0.23,-0.49,-0.49
178.54,6.06,6.62,6.08,6.64,-6.64,-6.85,-5.73,-0.58,-0.56,-0.56
180.32,6.04,6.66,6.04,6.66,-6.66,-6.85,-5.74,-0.62,-0.62,-0.63
182.13,6.25,6.92,6.01,6.69,-6.69,-6.85,-5.76,-0.44,-0.68,-0.68
183.95,6.11,6.84,5.97,6.70,-6.70,-6.84,-5.79,-0.59,-0.73,-0.73
185.79,5.80,6.59,5.90,6.69,-6.69,-6.84,-5.82,-0.90,-0.79,-0.79
187.65,5.69,6.53,5.85,6.70,-6.70,-6.83,-5.85,-1.01,-0.85,-0.84
189.52,5.68,6.58,5.82,6.71,-6.71,-6.82,-5.89,-1.04,-0.90,-0.90
191.42,6.00,6.94,5.82,6.77,-6.77,-6.81,-5.93,-0.77,-0.95,-0.94
193.33,5.92,6.91,5.81,6.82,-6.82,-6.80,-5.98,-0.90,-1.00,-1.00
195.27,5.65,6.70,5.76,6.81,-6.81,-6.78,-6.03,-1.16,-1.05,-1.05
197.22,5.86,6.96,5.69,6.79,-6.79,-6.77,-6.08,-0.93,-1.10,-1.11
199.19,5.89,7.04,5.64,6.79,-6.79,-6.75,-6.14,-0.90,-1.15,-1.15
201.18,5.26,6.46,5.59,6.79,-6.79,-6.73,-6.20,-1.53,-1.20,-1.20
203.19,5.25,6.49,5.56,6.80,-6.80,-6.71,-6.26,-1.55,-1.24,-1.25
205.23,5.62,6.90,5.53,6.82,-6.82,-6.69,-6.32,-1.21,-1.29,-1.29
207.28,5.42,6.74,5.50,6.83,-6.83,-6.67,-6.38,-1.42,-1.34,-1.33
209.35,5.50,6.87,5.42,6.80,-6.80,-6.64,-6.45,-1.31,-1.38,-1.37
211.44,5.81,7.23,5.34,6.77,-6.77,-6.62,-6.52,-0.96,-1.43,-1.42
213.56,5.46,6.92,5.30,6.77,-6.77,-6.59,-6.58,-1.31,-1.47,-1.46
215.69,4.94,6.44,5.25,6.76,-6.76,-6.57,-6.65,-1.83,-1.51,-1.51
217.85,4.97,6.51,5.18,6.73,-6.73,-6.54,-6.71,-1.77,-1.55,-1.54
220.03,5.15,6.74,5.10,6.69,-6.69,-6.51,-6.78,-1.54,-1.59,-1.60
222.23,5.34,6.97,5.05,6.67,-6.67,-6.48,-6.84,-1.34,-1.62,-1.63
224.45,5.08,6.74,5.03,6.68,-6.68,-6.44,-6.90,-1.61,-1.65,-1.66
226.70,4.77,6.46,4.97,6.65,-6.65,-6.41,-6.95,-1.89,-1.69,-1.70
228.96,4.70,6.41,4.89,6.61,-6.61,-6.37,-7.00,-1.91,-1.71,-1.72
231.25,4.75,6.48,4.85,6.59,-6.59,-6.34,-7.05,-1.84,-1.74,-1.74
233.57,5.03,6.79,4.78,6.54,-6.54,-6.30,-7.09,-1.51,-1.76,-1.77
235.90,4.96,6.74,4.72,6.50,-6.50,-6.26,-7.12,-1.54,-1.78,-1.79
238.26,4.29,6.09,4.72,6.51,-6.51,-6.23,-7.15,-2.23,-1.80,-1.81
240.64,4.50,6.30,4.70,6.51,-6.51,-6.19,-7.17,-2.01,-1.81,-1.80
243.05,4.81,6.63,4.64,6.46,-6.46,-6.15,-7.18,-1.66,-1.82,-1.82
245.48,4.88,6.71,4.58,6.42,-6.42,-6.10,-7.18,-1.54,-1.84,-1.84
247.93,4.66,6.51,4.53,6.38,-6.38,-6.06,-7.17,-1.72,-1.85,-1.85
250.41,4.44,6.29,4.50,6.36,-6.36,-6.02,-7.15,-1.92,-1.86,-1.85
252.92,4.35,6.20,4.45,6.32,-6.32,-5.97,-7.13,-1.98,-1.87,-1.86
255.45,4.31,6.19,4.37,6.25,-6.25,-5.93,-7.10,-1.95,-1.88,-1.88
258.00,4.25,6.13,4.28,6.18,-6.18,-5.89,-7.05,-1.93,-1.89,-1.88
260.58,4.40,6.29,4.23,6.14,-6.14,-5.84,-7.00,-1.74,-1.91,-1.90
263.19,4.49,6.40,4.20,6.12,-6.12,-5.79,-6.94,-1.64,-1.92,-1.91
265.82,3.93,5.86,4.17,6.11,-6.11,-5.75,-6.87,-2.18,-1.94,-1.93
268.48,3.99,5.93,4.07,6.03,-6.03,-5.70,-6.80,-2.04,-1.95,-1.95
271.16,3.97,5.93,4.01,5.97,-5.97,-5.65,-6.72,-2.01,-1.97,-1.97
273.87,3.90,5.88,3.98,5.96,-5.96,-5.60,-6.63,-2.06,-1.98,-1.98
276.61,3.82,5.82,3.93,5.92,-5.92,-5.55,-6.54,-2.11,-2.00,-2.00
279.38,3.75,5.78,3.86,5.87,-5.87,-5.50,-6.44,-2.13,-2.01,-2.03
282.17,3.80,5.83,3.82,5.84,-5.84,-5.45,-6.34,-2.04,-2.02,-2.03
284.99,4.05,6.09,3.77,5.80,-5.80,-5.40,-6.24,-1.76,-2.03,-2.04
287.84,4.09,6.13,3.72,5.77,-5.77,-5.35,-6.13,-1.68,-2.04,-2.04
290.72,3.63,5.69,3.68,5.73,-5.73,-5.30,-6.02,-2.10,-2.05,-2.06
293.63,3.48,5.53,3.64,5.70,-5.70,-5.25,-5.91,-2.22,-2.06,-2.06
296.57,3.46,5.51,3.62,5.68,-5.68,-5.20,-5.80,-2.23,-2.06,-2.06
299.53,3.74,5.80,3.56,5.63,-5.63,-5.15,-5.69,-1.89,-2.07,-2.06
302.53,3.43,5.49,3.49,5.56,-5.56,-5.10,-5.58,-2.13,-2.07,-2.06
305.55,3.06,5.13,3.44,5.51,-5.51,-5.04,-5.47,-2.45,-2.07,-2.07
308.61,3.49,5.55,3.40,5.47,-5.47,-4.99,-5.36,-1.99,-2.08,-2.07
311.69,3.63,5.71,3.32,5.40,-5.40,-4.94,-5.26,-1.77,-2.08,-2.08
314.81,3.34,5.42,3.23,5.31,-5.31,-4.89,-5.15,-1.98,-2.09,-2.08
317.96,3.17,5.26,3.15,5.24,-5.24,-4.83,-5.05,-2.08,-2.09,-2.10
321.14,3.12,5.21,3.12,5.22,-5.22,-4.78,-4.95,-2.10,-2.09,-2.09
324.35,3.00,5.10,3.10,5.20,-5.20,-4.73,-4.85,-2.21,-2.10,-2.10
327.59,2.93,5.02,3.05,5.15,-5.15,-4.67,-4.75,-2.22,-2.10,-2.10
330.87,2.84,4.94,2.98,5.08,-5.08,-4.62,-4.66,-2.25,-2.11,-2.10
334.18,2.93,5.04,2.90,5.01,-5.01,-4.57,-4.57,-2.08,-2.11,-2.12
337.52,3.12,5.23,2.83,4.94,-4.94,-4.51,-4.48,-1.83,-2.11,-2.11
340.90,2.74,4.85,2.78,4.89,-4.89,-4.46,-4.39,-2.15,-2.11,-2.12
344.30,2.40,4.51,2.71,4.82,-4.82,-4.41,-4.31,-2.42,-2.11,-2.11
347.75,2.76,4.86,2.64,4.75,-4.75,-4.36,-4.23,-1.99,-2.11,-2.11
351.23,2.89,5.01,2.58,4.69,-4.69,-4.30,-4.16,-1.80,-2.11,-2.12
354.74,2.71,4.81,2.53,4.63,-4.63,-4.25,-4.08,-1.93,-2.11,-2.10
358.28,2.30,4.40,2.48,4.58,-4.58,-4.20,-4.01,-2.28,-2.10,-2.11
361.87,2.18,4.28,2.43,4.53,-4.53,-4.14,-3.95,-2.35,-2.10,-2.10
365.49,2.29,4.38,2.37,4.47,-4.47,-4.09,-3.88,-2.18,-2.10,-2.10
369.14,2.26,4.35,2.31,4.40,-4.40,-4.04,-3.82,-2.14,-2.09,-2.09
372.83,2.31,4.39,2.24,4.33,-4.33,-3.99,-3.76,-2.02,-2.09,-2.08
376.56,2.45,4.53,2.17,4.26,-4.26,-3.93,-3.71,-1.81,-2.09,-2.09
380.33,2.05,4.14,2.11,4.20,-4.20,-3.88,-3.66,-2.15,-2.09,-2.09
384.13,1.76,3.84,2.05,4.14,-4.14,-3.83,-3.61,-2.39,-2.09,-2.08
387.97,2.08,4.16,1.98,4.08,-4.08,-3.78,-3.56,-2.00,-2.10,-2.09
391.85,2.21,4.30,1.92,4.02,-4.02,-3.73,-3.52,-1.81,-2.10,-2.09
395.77,1.93,4.03,1.87,3.98,-3.98,-3.68,-3.48,-2.05,-2.10,-2.10
399.73,1.77,3.87,1.84,3.95,-3.95,-3.62,-3.44,-2.19,-2.11,-2.10
403.72,1.69,3.78,1.77,3.89,-3.89,-3.57,-3.40,-2.20,-2.12,-2.10
407.76,1.63,3.75,1.68,3.80,-3.80,-3.52,-3.36,-2.18,-2.12,-2.12
411.84,1.57,3.69,1.63,3.75,-3.75,-3.47,-3.33,-2.19,-2.12,-2.12
415.96,1.49,3.61,1.56,3.69,-3.69,-3.42,-3.30,-2.20,-2.13,-2.12
420.12,1.54,3.67,1.49,3.61,-3.61,-3.37,-3.26,-2.07,-2.12,-2.14
424.32,1.73,3.85,1.44,3.55,-3.55,-3.32,-3.24,-1.83,-2.12,-2.13
428.56,1.44,3.55,1.40,3.50,-3.50,-3.27,-3.21,-2.06,-2.10,-2.11
432.85,1.13,3.22,1.34,3.43,-3.43,-3.22,-3.18,-2.30,-2.08,-2.09
437.18,1.39,3.47,1.32,3.38,-3.38,-3.17,-3.15,-1.99,-2.06,-2.08
441.55,1.37,3.41,1.31,3.34,-3.34,-3.12,-3.12,-1.98,-2.03,-2.05
445.96,1.02,3.02,1.31,3.30,-3.30,-3.07,-3.10,-2.28,-1.99,-2.01
450.42,1.26,3.23,1.30,3.25,-3.25,-3.02,-3.07,-1.99,-1.95,-1.97
454.93,1.42,3.34,1.28,3.19,-3.19,-2.97,-3.04,-1.77,-1.90,-1.92
459.48,1.02,2.88,1.27,3.13,-3.13,-2.92,-3.02,-2.11,-1.85,-1.86
464.07,1.15,2.94,1.26,3.06,-3.06,-2.88,-2.99,-1.92,-1.80,-1.79
468.71,1.50,3.24,1.25,3.00,-3.00,-2.83,-2.96,-1.50,-1.75,-1.75
473.40,1.54,3.22,1.24,2.94,-2.94,-2.78,-2.93,-1.40,-1.69,-1.69
478.13,1.29,2.91,1.25,2.90,-2.90,-2.73,-2.90,-1.61,-1.64,-1.63
482.91,1.23,2.81,1.25,2.85,-2.85,-2.68,-2.87,-1.62,-1.59,-1.58
487.74,1.20,2.74,1.23,2.77,-2.77,-2.64,-2.83,-1.58,-1.55,-1.54
492.62,1.17,2.67,1.20,2.71,-2.71,-2.59,-2.79,-1.54,-1.51,-1.50
497.55,1.15,2.61,1.17,2.65,-2.65,-2.54,-2.76,-1.50,-1.47,-1.46
