frequency,raw,error,smoothed,error_smoothed,equalization,parametric_eq,fixed_band_eq,equalized_raw,equalized_smoothed,target
20.00,-6.55,-8.54,-6.51,-8.53,8.53,8.44,2.75,1.98,2.02,2.00
20.20,-6.45,-8.49,-6.43,-8.49,8.49,8.40,2.83,2.04,2.06,2.05
20.40,-6.35,-8.44,-6.35,-8.45,8.45,8.36,2.91,2.10,2.10,2.10
20.61,-6.26,-8.38,-6.27,-8.40,8.40,8.32,3.00,2.14,2.13,2.13
20.81,-6.16,-8.33,-6.19,-8.35,8.35,8.27,3.08,2.20,2.16,2.18
21.02,-6.06,-8.27,-6.11,-8.30,8.30,8.23,3.17,2.24,2.19,2.22
21.23,-6.00,-8.23,-6.03,-8.24,8.24,8.18,3.27,2.25,2.22,2.24
21.44,-5.94,-8.19,-5.95,-8.19,8.19,8.14,3.36,2.25,2.24,2.26
21.66,-5.88,-8.15,-5.87,-8.13,8.13,8.09,3.46,2.25,2.26,2.28
21.87,-5.81,-8.10,-5.79,-8.07,8.07,8.04,3.56,2.25,2.28,2.29
22.09,-5.74,-8.04,-5.71,-8.00,8.00,7.99,3.66,2.27,2.29,2.31
22.31,-5.64,-7.96,-5.63,-7.93,7.93,7.94,3.77,2.29,2.31,2.32
22.54,-5.56,-7.87,-5.55,-7.86,7.86,7.89,3.87,2.30,2.31,2.32
22.76,-5.47,-7.78,-5.47,-7.79,7.79,7.84,3.99,2.32,2.32,2.32
22.99,-5.38,-7.68,-5.39,-7.71,7.71,7.78,4.10,2.34,2.32,2.31
23.22,-5.30,-7.60,-5.31,-7.63,7.63,7.73,4.22,2.34,2.32,2.31
23.45,-5.22,-7.52,-5.23,-7.55,7.55,7.67,4.34,2.33,2.32,2.31
23.69,-5.15,-7.46,-5.14,-7.46,7.46,7.62,4.46,2.31,2.32,2.32
23.92,-5.07,-7.38,-5.05,-7.37,7.37,7.56,4.58,2.31,2.32,2.32
24.16,-4.98,-7.29,-4.96,-7.28,7.28,7.50,4.71,2.30,2.32,2.32
24.40,-4.88,-7.21,-4.87,-7.19,7.19,7.44,4.84,2.30,2.32,2.33
24.65,-4.81,-7.12,-4.78,-7.10,7.10,7.38,4.97,2.29,2.32,2.32
24.89,-4.71,-7.03,-4.70,-7.01,7.01,7.32,5.11,2.30,2.32,2.32
25.14,-4.62,-6.94,-4.61,-6.93,6.93,7.26,5.24,2.30,2.32,2.32
25.39,-4.52,-6.85,-4.53,-6.85,6.85,7.20,5.38,2.32,2.32,2.33
25.65,-4.44,-6.76,-4.45,-6.77,6.77,7.13,5.52,2.33,2.32,2.33
25.91,-4.34,-6.65,-4.37,-6.69,6.69,7.07,5.66,2.36,2.32,2.32
26.16,-4.27,-6.58,-4.30,-6.62,6.62,7.01,5.79,2.36,2.32,2.32
26.43,-4.22,-6.53,-4.24,-6.56,6.56,6.94,5.93,2.34,2.32,2.32
26.69,-4.16,-6.47,-4.18,-6.50,6.50,6.88,6.07,2.34,2.32,2.32
26.96,-4.11,-6.42,-4.13,-6.45,6.45,6.81,6.20,2.34,2.31,2.32
27.23,-4.07,-6.38,-4.09,-6.40,6.40,6.75,6.34,2.33,2.31,2.32
27.50,-4.03,-6.34,-4.05,-6.36,6.36,6.68,6.47,2.33,2.31,2.32
27.77,-4.00,-6.30,-4.01,-6.32,6.32,6.61,6.59,2.33,2.31,2.31
28.05,-3.96,-6.26,-3.97,-6.28,6.28,6.55,6.71,2.32,2.31,2.31
28.33,-3.93,-6.22,-3.92,-6.22,6.22,6.48,6.83,2.30,2.31,2.30
28.62,-3.90,-6.19,-3.86,-6.17,6.17,6.41,6.93,2.27,2.30,2.30
28.90,-3.86,-6.16,-3.79,-6.10,6.10,6.34,7.03,2.24,2.30,2.31
29.19,-3.80,-6.09,-3.72,-6.02,6.02,6.28,7.12,2.23,2.30,2.30
29.48,-3.73,-6.03,-3.64,-5.94,5.94,6.21,7.21,2.21,2.30,2.31
29.78,-3.65,-5.94,-3.56,-5.85,5.85,6.14,7.28,2.21,2.30,2.30
30.08,-3.56,-5.86,-3.48,-5.77,5.77,6.07,7.33,2.22,2.30,2.31
30.38,-3.40,-5.69,-3.40,-5.69,5.69,6.00,7.38,2.29,2.30,2.30
30.68,-3.24,-5.53,-3.32,-5.61,5.61,5.93,7.42,2.37,2.29,2.30
30.99,-3.08,-5.37,-3.24,-5.53,5.53,5.86,7.44,2.45,2.29,2.30
31.30,-3.03,-5.31,-3.15,-5.44,5.44,5.79,7.44,2.42,2.29,2.29
31.61,-2.98,-5.26,-3.07,-5.36,5.36,5.72,7.44,2.38,2.29,2.29
31.93,-2.93,-5.21,-2.99,-5.27,5.27,5.66,7.42,2.35,2.28,2.29
32.24,-2.92,-5.19,-2.91,-5.19,5.19,5.59,7.39,2.28,2.28,2.28
32.57,-2.92,-5.19,-2.85,-5.12,5.12,5.52,7.34,2.21,2.28,2.28
32.89,-2.92,-5.19,-2.78,-5.05,5.05,5.45,7.29,2.14,2.27,2.28
33.22,-2.84,-5.10,-2.73,-4.99,4.99,5.38,7.22,2.16,2.27,2.27
33.55,-2.71,-4.98,-2.68,-4.94,4.94,5.31,7.14,2.22,2.26,2.27
33.89,-2.60,-4.85,-2.63,-4.89,4.89,5.24,7.05,2.29,2.26,2.26
34.23,-2.52,-4.77,-2.58,-4.83,4.83,5.17,6.95,2.31,2.25,2.26
34.57,-2.46,-4.70,-2.51,-4.76,4.76,5.10,6.85,2.30,2.25,2.25
34.92,-2.40,-4.64,-2.43,-4.67,4.67,5.03,6.74,2.27,2.24,2.25
35.27,-2.36,-4.59,-2.35,-4.59,4.59,4.96,6.62,2.23,2.24,2.24
35.62,-2.32,-4.55,-2.27,-4.51,4.51,4.89,6.50,2.20,2.24,2.24
35.97,-2.27,-4.50,-2.20,-4.44,4.44,4.82,6.37,2.17,2.24,2.24
36.33,-2.19,-4.42,-2.12,-4.35,4.35,4.75,6.24,2.17,2.23,2.24
36.70,-2.10,-4.32,-2.04,-4.27,4.27,4.68,6.11,2.18,2.23,2.23
37.06,-2.00,-4.23,-1.99,-4.22,4.22,4.61,5.98,2.22,2.23,2.23
37.43,-1.87,-4.11,-1.95,-4.19,4.19,4.55,5.84,2.31,2.23,2.24
37.81,-1.75,-3.98,-1.92,-4.15,4.15,4.48,5.71,2.41,2.23,2.24
38.19,-1.73,-3.95,-1.87,-4.10,4.10,4.41,5.58,2.38,2.23,2.23
38.57,-1.80,-4.03,-1.81,-4.05,4.05,4.34,5.44,2.25,2.24,2.24
38.95,-1.87,-4.11,-1.78,-4.01,4.01,4.27,5.31,2.15,2.24,2.25
39.34,-1.77,-4.01,-1.75,-3.99,3.99,4.21,5.18,2.21,2.24,2.24
39.74,-1.67,-3.90,-1.72,-3.96,3.96,4.14,5.05,2.29,2.24,2.24
40.14,-1.64,-3.87,-1.68,-3.92,3.92,4.07,4.92,2.28,2.24,2.24
40.54,-1.77,-4.00,-1.65,-3.88,3.88,4.00,4.80,2.12,2.23,2.24
40.94,-1.90,-4.12,-1.63,-3.86,3.86,3.94,4.68,1.97,2.23,2.23
41.35,-1.69,-3.91,-1.62,-3.84,3.84,3.87,4.56,2.16,2.22,2.23
41.76,-1.43,-3.64,-1.59,-3.80,3.80,3.81,4.44,2.38,2.22,2.22
42.18,-1.35,-3.56,-1.54,-3.75,3.75,3.74,4.32,2.40,2.21,2.22
42.60,-1.51,-3.71,-1.49,-3.69,3.69,3.67,4.21,2.19,2.20,2.21
43.03,-1.64,-3.83,-1.45,-3.64,3.64,3.61,4.10,2.00,2.19,2.20
43.46,-1.42,-3.60,-1.40,-3.58,3.58,3.54,4.00,2.16,2.18,2.19
43.90,-1.19,-3.36,-1.37,-3.53,3.53,3.48,3.90,2.34,2.16,2.17
44.33,-1.26,-3.40,-1.32,-3.48,3.48,3.42,3.80,2.22,2.15,2.15
44.78,-1.43,-3.55,-1.28,-3.42,3.42,3.35,3.70,1.99,2.14,2.13
45.23,-1.38,-3.49,-1.23,-3.36,3.36,3.29,3.61,1.98,2.13,2.12
45.68,-1.12,-3.22,-1.20,-3.31,3.31,3.23,3.52,2.19,2.11,2.11
46.13,-0.98,-3.06,-1.18,-3.28,3.28,3.16,3.43,2.30,2.10,2.09
46.60,-1.12,-3.21,-1.15,-3.24,3.24,3.10,3.34,2.11,2.08,2.09
47.06,-1.24,-3.30,-1.11,-3.18,3.18,3.04,3.26,1.95,2.07,2.07
47.53,-1.13,-3.18,-1.07,-3.12,3.12,2.98,3.18,2.00,2.05,2.06
48.01,-1.01,-3.06,-1.04,-3.07,3.07,2.92,3.11,2.07,2.04,2.06
48.49,-1.01,-3.04,-1.02,-3.04,3.04,2.86,3.03,2.03,2.03,2.04
48.97,-1.01,-3.02,-0.99,-3.00,3.00,2.80,2.96,1.99,2.01,2.02
49.46,-0.96,-2.95,-0.94,-2.94,2.94,2.74,2.89,1.98,2.00,2.00
49.96,-0.91,-2.88,-0.90,-2.88,2.88,2.68,2.82,1.98,1.99,1.98
50.46,-0.87,-2.83,-0.87,-2.84,2.84,2.62,2.76,1.97,1.97,1.97
50.96,-0.82,-2.77,-0.83,-2.79,2.79,2.56,2.69,1.98,1.96,1.96
51.47,-0.82,-2.75,-0.81,-2.75,2.75,2.50,2.63,1.94,1.95,1.94
51.99,-0.81,-2.73,-0.79,-2.72,2.72,2.44,2.57,1.91,1.93,1.93
52.51,-0.75,-2.66,-0.76,-2.68,2.68,2.38,2.52,1.93,1.92,1.92
53.03,-0.69,-2.60,-0.74,-2.64,2.64,2.33,2.46,1.96,1.91,1.92
53.56,-0.66,-2.55,-0.71,-2.60,2.60,2.27,2.41,1.95,1.89,1.90
54.10,-0.63,-2.51,-0.67,-2.55,2.55,2.22,2.35,1.93,1.88,1.89
54.64,-0.63,-2.49,-0.63,-2.50,2.50,2.16,2.30,1.88,1.87,1.87
55.18,-0.63,-2.49,-0.60,-2.47,2.47,2.10,2.25,1.84,1.86,1.87
55.74,-0.63,-2.47,-0.59,-2.44,2.44,2.05,2.20,1.82,1.85,1.85
56.29,-0.69,-2.52,-0.57,-2.41,2.41,2.00,2.15,1.73,1.84,1.84
56.86,-0.79,-2.61,-0.56,-2.39,2.39,1.94,2.10,1.60,1.83,1.83
57.42,-0.55,-2.35,-0.55,-2.36,2.36,1.89,2.06,1.81,1.81,1.80
58.00,-0.22,-2.00,-0.53,-2.32,2.32,1.84,2.01,2.10,1.79,1.79
58.58,-0.34,-2.11,-0.50,-2.27,2.27,1.78,1.96,1.93,1.77,1.78
59.16,-0.43,-2.18,-0.47,-2.22,2.22,1.73,1.92,1.79,1.74,1.76
59.76,-0.43,-2.16,-0.44,-2.15,2.15,1.68,1.87,1.72,1.71,1.74
60.35,-0.51,-2.20,-0.40,-2.09,2.09,1.63,1.82,1.58,1.68,1.70
60.96,-0.64,-2.29,-0.38,-2.03,2.03,1.58,1.78,1.39,1.65,1.66
61.57,-0.47,-2.08,-0.36,-1.97,1.97,1.53,1.73,1.50,1.61,1.62
62.18,-0.34,-1.91,-0.33,-1.91,1.91,1.48,1.69,1.57,1.58,1.58
62.80,-0.34,-1.86,-0.31,-1.85,1.85,1.43,1.64,1.51,1.53,1.53
63.43,-0.21,-1.69,-0.30,-1.79,1.79,1.38,1.59,1.58,1.49,1.49
64.07,-0.04,-1.47,-0.30,-1.74,1.74,1.33,1.55,1.71,1.45,1.44
64.71,-0.18,-1.57,-0.29,-1.69,1.69,1.29,1.50,1.51,1.40,1.40
65.35,-0.24,-1.59,-0.25,-1.61,1.61,1.24,1.45,1.37,1.36,1.36
66.01,-0.24,-1.54,-0.22,-1.53,1.53,1.19,1.40,1.29,1.31,1.31
66.67,-0.38,-1.63,-0.19,-1.45,1.45,1.15,1.36,1.08,1.26,1.26
67.33,-0.34,-1.55,-0.17,-1.39,1.39,1.10,1.31,1.04,1.21,1.21
68.01,-0.15,-1.31,-0.17,-1.34,1.34,1.06,1.26,1.19,1.16,1.17
68.69,-0.15,-1.26,-0.19,-1.30,1.30,1.01,1.21,1.15,1.11,1.12
69.37,-0.15,-1.21,-0.19,-1.26,1.26,0.97,1.16,1.11,1.06,1.07
70.07,-0.15,-1.16,-0.20,-1.21,1.21,0.92,1.11,1.06,1.01,1.02
70.77,-0.15,-1.11,-0.20,-1.16,1.16,0.88,1.06,1.01,0.96,0.97
71.48,-0.15,-1.06,-0.19,-1.09,1.09,0.84,1.01,0.95,0.90,0.92
72.19,-0.15,-0.99,-0.17,-1.02,1.02,0.80,0.96,0.87,0.85,0.85
72.91,-0.15,-0.93,-0.15,-0.94,0.94,0.75,0.91,0.80,0.79,0.79
73.64,-0.22,-0.95,-0.14,-0.87,0.87,0.71,0.86,0.66,0.73,0.74
74.38,-0.27,-0.94,-0.12,-0.80,0.80,0.67,0.81,0.54,0.68,0.68
75.12,-0.25,-0.86,-0.12,-0.74,0.74,0.63,0.76,0.50,0.62,0.62
75.87,-0.08,-0.63,-0.12,-0.69,0.69,0.59,0.71,0.61,0.57,0.56
76.63,-0.05,-0.55,-0.11,-0.62,0.62,0.55,0.66,0.58,0.51,0.51
77.40,-0.05,-0.50,-0.10,-0.56,0.56,0.51,0.61,0.51,0.46,0.46
78.17,-0.05,-0.44,-0.09,-0.50,0.50,0.48,0.56,0.45,0.41,0.40
78.95,-0.05,-0.40,-0.08,-0.44,0.44,0.44,0.51,0.39,0.35,0.36
79.74,-0.05,-0.35,-0.06,-0.37,0.37,0.40,0.46,0.32,0.30,0.31
80.54,-0.05,-0.30,-0.04,-0.30,0.30,0.36,0.41,0.25,0.26,0.26
81.35,-0.05,-0.25,-0.03,-0.23,0.23,0.33,0.36,0.19,0.21,0.21
82.16,-0.05,-0.20,-0.01,-0.17,0.17,0.29,0.31,0.13,0.16,0.16
82.98,-0.05,-0.16,-0.01,-0.12,0.12,0.26,0.26,0.08,0.11,0.12
83.81,-0.05,-0.11,-0.02,-0.08,0.08,0.22,0.21,0.04,0.07,0.07
84.65,-0.05,-0.06,-0.03,-0.05,0.05,0.19,0.16,0.00,0.02,0.02
85.50,-0.05,-0.02,-0.04,-0.00,0.00,0.15,0.11,-0.04,-0.03,-0.02
86.35,-0.03,0.05,-0.04,0.04,-0.04,0.12,0.06,-0.07,-0.08,-0.07
87.22,0.04,0.17,-0.05,0.08,-0.08,0.09,0.00,-0.04,-0.13,-0.12
88.09,0.11,0.29,-0.06,0.12,-0.12,0.05,-0.05,-0.01,-0.18,-0.17
88.97,-0.11,0.13,-0.06,0.17,-0.17,0.02,-0.10,-0.27,-0.23,-0.23
89.86,-0.14,0.15,-0.07,0.21,-0.21,-0.01,-0.15,-0.34,-0.28,-0.28
90.76,-0.14,0.20,-0.08,0.25,-0.25,-0.04,-0.20,-0.39,-0.33,-0.33
91.66,-0.14,0.25,-0.09,0.29,-0.29,-0.07,-0.25,-0.43,-0.38,-0.38
92.58,-0.14,0.31,-0.11,0.33,-0.33,-0.10,-0.30,-0.46,-0.43,-0.44
93.51,-0.14,0.36,-0.12,0.37,-0.37,-0.13,-0.36,-0.50,-0.48,-0.49
94.44,-0.14,0.40,-0.13,0.40,-0.40,-0.16,-0.41,-0.54,-0.54,-0.53
95.39,-0.14,0.45,-0.15,0.43,-0.43,-0.19,-0.46,-0.57,-0.59,-0.58
96.34,-0.14,0.50,-0.17,0.46,-0.46,-0.22,-0.51,-0.60,-0.63,-0.63
97.30,-0.15,0.54,-0.18,0.50,-0.50,-0.25,-0.57,-0.65,-0.68,-0.68
98.28,-0.16,0.58,-0.18,0.55,-0.55,-0.28,-0.62,-0.70,-0.73,-0.73
99.26,-0.17,0.61,-0.18,0.60,-0.60,-0.31,-0.67,-0.77,-0.78,-0.77
100.25,-0.19,0.64,-0.18,0.65,-0.65,-0.33,-0.72,-0.83,-0.83,-0.82
101.25,-0.21,0.67,-0.19,0.68,-0.68,-0.36,-0.78,-0.89,-0.87,-0.87
102.27,-0.22,0.71,-0.19,0.74,-0.74,-0.39,-0.83,-0.95,-0.92,-0.92
103.29,-0.23,0.75,-0.18,0.79,-0.79,-0.41,-0.88,-1.02,-0.97,-0.97
104.32,-0.23,0.79,-0.17,0.85,-0.85,-0.44,-0.93,-1.08,-1.02,-1.01
105.37,-0.20,0.87,-0.17,0.91,-0.91,-0.46,-0.98,-1.10,-1.07,-1.06
106.42,-0.17,0.95,-0.15,0.97,-0.97,-0.49,-1.03,-1.14,-1.12,-1.11
107.48,-0.14,1.04,-0.15,1.03,-1.03,-0.51,-1.08,-1.16,-1.17,-1.17
108.56,-0.16,1.07,-0.15,1.07,-1.07,-0.54,-1.13,-1.23,-1.23,-1.22
109.64,-0.18,1.10,-0.18,1.10,-1.10,-0.56,-1.18,-1.28,-1.28,-1.27
110.74,-0.20,1.14,-0.21,1.12,-1.12,-0.58,-1.22,-1.32,-1.33,-1.33
111.85,-0.14,1.24,-0.24,1.14,-1.14,-0.61,-1.27,-1.28,-1.38,-1.37
112.97,-0.07,1.37,-0.27,1.16,-1.16,-0.63,-1.31,-1.22,-1.43,-1.43
114.10,-0.23,1.26,-0.31,1.17,-1.17,-0.65,-1.35,-1.40,-1.48,-1.48
115.24,-0.34,1.20,-0.35,1.17,-1.17,-0.67,-1.39,-1.51,-1.53,-1.53
116.39,-0.39,1.20,-0.40,1.17,-1.17,-0.69,-1.43,-1.56,-1.57,-1.58
117.55,-0.45,1.18,-0.45,1.17,-1.17,-0.72,-1.47,-1.62,-1.61,-1.62
118.73,-0.68,0.99,-0.49,1.16,-1.16,-0.74,-1.50,-1.84,-1.65,-1.66
119.92,-0.75,0.95,-0.53,1.16,-1.16,-0.76,-1.53,-1.91,-1.69,-1.69
121.12,-0.73,1.01,-0.56,1.16,-1.16,-0.78,-1.56,-1.89,-1.73,-1.73
122.33,-0.58,1.19,-0.59,1.17,-1.17,-0.80,-1.59,-1.75,-1.76,-1.76
123.55,-0.53,1.27,-0.63,1.17,-1.17,-0.82,-1.61,-1.70,-1.80,-1.79
124.79,-0.57,1.26,-0.65,1.17,-1.17,-0.84,-1.64,-1.74,-1.83,-1.82
126.03,-0.64,1.22,-0.67,1.19,-1.19,-0.85,-1.66,-1.83,-1.86,-1.85
127.29,-0.65,1.23,-0.67,1.22,-1.22,-0.87,-1.67,-1.86,-1.89,-1.87
128.57,-0.65,1.27,-0.67,1.24,-1.24,-0.89,-1.69,-1.89,-1.92,-1.91
129.85,-0.64,1.31,-0.67,1.27,-1.27,-0.91,-1.70,-1.91,-1.94,-1.94
131.15,-0.63,1.35,-0.66,1.31,-1.31,-0.93,-1.71,-1.94,-1.97,-1.97
132.46,-0.63,1.38,-0.64,1.36,-1.36,-0.94,-1.72,-1.99,-2.00,-2.00
133.79,-0.63,1.41,-0.64,1.39,-1.39,-0.96,-1.73,-2.02,-2.03,-2.03
135.12,-0.71,1.36,-0.64,1.42,-1.42,-0.98,-1.73,-2.13,-2.06,-2.06
136.48,-0.74,1.35,-0.63,1.45,-1.45,-0.99,-1.74,-2.19,-2.08,-2.08
137.84,-0.62,1.51,-0.61,1.50,-1.50,-1.01,-1.74,-2.12,-2.11,-2.12
139.22,-0.58,1.58,-0.58,1.56,-1.56,-1.02,-1.74,-2.13,-2.14,-2.15
140.61,-0.62,1.57,-0.54,1.63,-1.63,-1.04,-1.74,-2.24,-2.17,-2.18
142.02,-0.49,1.72,-0.50,1.70,-1.70,-1.06,-1.74,-2.19,-2.20,-2.20
143.44,-0.44,1.80,-0.45,1.79,-1.79,-1.07,-1.73,-2.23,-2.24,-2.23
144.87,-0.39,1.89,-0.39,1.89,-1.89,-1.08,-1.73,-2.28,-2.28,-2.27
146.32,-0.34,1.98,-0.32,2.00,-2.00,-1.10,-1.73,-2.34,-2.32,-2.31
147.78,-0.38,1.97,-0.26,2.11,-2.11,-1.11,-1.73,-2.48,-2.37,-2.34
149.26,-0.29,2.11,-0.22,2.21,-2.21,-1.13,-1.72,-2.49,-2.42,-2.39
150.75,-0.17,2.29,-0.18,2.30,-2.30,-1.14,-1.72,-2.47,-2.48,-2.45
152.26,-0.14,2.39,-0.15,2.39,-2.39,-1.15,-1.72,-2.53,-2.54,-2.52
153.78,-0.11,2.49,-0.15,2.46,-2.46,-1.17,-1.72,-2.57,-2.61,-2.59
155.32,-0.05,2.62,-0.17,2.51,-2.51,-1.18,-1.71,-2.56,-2.68,-2.66
156.88,-0.07,2.68,-0.22,2.53,-2.53,-1.19,-1.71,-2.60,-2.75,-2.74
158.44,-0.12,2.71,-0.30,2.52,-2.52,-1.20,-1.71,-2.64,-2.82,-2.82
160.03,-0.22,2.69,-0.41,2.48,-2.48,-1.22,-1.71,-2.69,-2.89,-2.90
161.63,-0.45,2.53,-0.53,2.42,-2.42,-1.23,-1.72,-2.87,-2.95,-2.97
163.24,-0.66,2.38,-0.65,2.36,-2.36,-1.24,-1.72,-3.02,-3.01,-3.03
164.88,-0.75,2.34,-0.76,2.31,-2.31,-1.25,-1.72,-3.05,-3.07,-3.08
166.53,-0.80,2.34,-0.87,2.24,-2.24,-1.26,-1.73,-3.04,-3.12,-3.13
168.19,-0.98,2.20,-0.98,2.18,-2.18,-1.27,-1.74,-3.16,-3.16,-3.17
169.87,-1.30,1.92,-1.07,2.12,-2.12,-1.28,-1.74,-3.42,-3.19,-3.21
171.57,-1.47,1.77,-1.14,2.08,-2.08,-1.29,-1.75,-3.54,-3.22,-3.23
173.29,-1.45,1.80,-1.18,2.05,-2.05,-1.30,-1.77,-3.50,-3.23,-3.24
175.02,-1.43,1.83,-1.20,2.05,-2.05,-1.31,-1.78,-3.47,-3.25,-3.25
176.77,-1.37,1.90,-1.19,2.07,-2.07,-1.32,-1.79,-3.44,-3.26,-3.26
178.54,-1.04,2.24,-1.15,2.12,-2.12,-1.33,-1.81,-3.16,-3.27,-3.27
180.32,-0.87,2.40,-1.08,2.19,-2.19,-1.34,-1.82,-3.06,-3.27,-3.26
182.13,-0.84,2.42,-1.01,2.27,-2.27,-1.35,-1.84,-3.11,-3.28,-3.25
183.95,-0.86,2.41,-0.93,2.35,-2.35,-1.36,-1.86,-3.21,-3.28,-3.26
185.79,-0.86,2.41,-0.84,2.45,-2.45,-1.37,-1.88,-3.31,-3.29,-3.26
187.65,-0.74,2.55,-0.73,2.56,-2.56,-1.38,-1.91,-3.30,-3.30,-3.28
189.52,-0.64,2.66,-0.63,2.67,-2.67,-1.38,-1.93,-3.31,-3.31,-3.29
191.42,-0.52,2.80,-0.56,2.76,-2.76,-1.39,-1.95,-3.28,-3.32,-3.31
193.33,-0.47,2.87,-0.51,2.83,-2.83,-1.40,-1.98,-3.29,-3.33,-3.33
195.27,-0.46,2.90,-0.47,2.88,-2.88,-1.41,-2.01,-3.33,-3.35,-3.35
197.22,-0.44,2.94,-0.45,2.92,-2.92,-1.41,-2.04,-3.36,-3.37,-3.37
199.19,-0.43,2.97,-0.44,2.95,-2.95,-1.42,-2.06,-3.37,-3.39,-3.39
201.18,-0.42,3.00,-0.43,2.98,-2.98,-1.43,-2.09,-3.40,-3.41,-3.41
203.19,-0.40,3.04,-0.42,3.01,-3.01,-1.43,-2.13,-3.41,-3.43,-3.43
205.23,-0.36,3.10,-0.42,3.04,-3.04,-1.44,-2.16,-3.39,-3.45,-3.45
207.28,-0.42,3.05,-0.42,3.05,-3.05,-1.44,-2.19,-3.47,-3.47,-3.46
209.35,-0.50,2.99,-0.44,3.05,-3.05,-1.45,-2.22,-3.55,-3.49,-3.48
211.44,-0.52,3.00,-0.46,3.05,-3.05,-1.46,-2.25,-3.57,-3.51,-3.51
213.56,-0.52,3.01,-0.48,3.05,-3.05,-1.46,-2.28,-3.56,-3.52,-3.52
215.69,-0.49,3.05,-0.49,3.04,-3.04,-1.47,-2.31,-3.53,-3.54,-3.53
217.85,-0.48,3.07,-0.52,3.03,-3.03,-1.47,-2.34,-3.51,-3.55,-3.54
220.03,-0.58,2.98,-0.54,3.01,-3.01,-1.47,-2.37,-3.59,-3.56,-3.55
222.23,-0.63,2.96,-0.58,2.99,-2.99,-1.48,-2.40,-3.61,-3.56,-3.58
224.45,-0.62,2.96,-0.61,2.95,-2.95,-1.48,-2.42,-3.57,-3.57,-3.57
226.70,-0.60,2.98,-0.65,2.92,-2.92,-1.49,-2.45,-3.51,-3.57,-3.57
228.96,-0.60,2.97,-0.68,2.88,-2.88,-1.49,-2.47,-3.48,-3.56,-3.56
231.25,-0.65,2.91,-0.71,2.85,-2.85,-1.49,-2.49,-3.49,-3.55,-3.55
233.57,-0.73,2.82,-0.73,2.81,-2.81,-1.50,-2.51,-3.53,-3.54,-3.54
235.90,-0.79,2.75,-0.76,2.77,-2.77,-1.50,-2.52,-3.55,-3.53,-3.53
238.26,-0.85,2.68,-0.79,2.72,-2.72,-1.50,-2.53,-3.57,-3.51,-3.52
240.64,-0.88,2.62,-0.82,2.68,-2.68,-1.50,-2.54,-3.55,-3.49,-3.49
243.05,-0.91,2.56,-0.84,2.63,-2.63,-1.50,-2.55,-3.54,-3.47,-3.46
245.48,-0.92,2.53,-0.85,2.59,-2.59,-1.50,-2.55,-3.51,-3.45,-3.44
247.93,-0.89,2.53,-0.87,2.55,-2.55,-1.51,-2.55,-3.44,-3.42,-3.41
250.41,-0.87,2.53,-0.89,2.51,-2.51,-1.51,-2.55,-3.37,-3.40,-3.39
252.92,-0.85,2.52,-0.91,2.46,-2.46,-1.51,-2.54,-3.31,-3.38,-3.36
255.45,-0.92,2.43,-0.94,2.41,-2.41,-1.51,-2.53,-3.33,-3.35,-3.34
258.00,-0.93,2.40,-0.95,2.37,-2.37,-1.50,-2.51,-3.30,-3.33,-3.32
260.58,-0.93,2.38,-0.97,2.33,-2.33,-1.50,-2.49,-3.26,-3.30,-3.30
263.19,-0.97,2.31,-0.99,2.29,-2.29,-1.50,-2.47,-3.26,-3.28,-3.27
265.82,-1.02,2.24,-1.01,2.24,-2.24,-1.50,-2.45,-3.26,-3.25,-3.25
268.48,-1.02,2.22,-1.04,2.19,-2.19,-1.50,-2.42,-3.21,-3.23,-3.23
271.16,-1.08,2.13,-1.07,2.13,-2.13,-1.49,-2.39,-3.21,-3.20,-3.20
273.87,-1.13,2.06,-1.11,2.07,-2.07,-1.49,-2.36,-3.20,-3.18,-3.18
276.61,-1.22,1.94,-1.15,2.00,-2.00,-1.48,-2.32,-3.22,-3.15,-3.15
279.38,-1.23,1.90,-1.19,1.93,-1.93,-1.48,-2.28,-3.16,-3.12,-3.12
282.17,-1.22,1.89,-1.23,1.86,-1.86,-1.47,-2.25,-3.08,-3.10,-3.10
284.99,-1.22,1.85,-1.27,1.80,-1.80,-1.47,-2.21,-3.01,-3.07,-3.06
287.84,-1.30,1.75,-1.31,1.73,-1.73,-1.46,-2.16,-3.02,-3.04,-3.04
290.72,-1.38,1.64,-1.35,1.66,-1.66,-1.45,-2.12,-3.03,-3.01,-3.01
293.63,-1.38,1.61,-1.39,1.59,-1.59,-1.44,-2.08,-2.97,-2.98,-2.98
296.57,-1.40,1.56,-1.43,1.52,-1.52,-1.43,-2.03,-2.92,-2.95,-2.95
299.53,-1.51,1.42,-1.47,1.45,-1.45,-1.42,-1.99,-2.96,-2.92,-2.92
302.53,-1.54,1.37,-1.51,1.39,-1.39,-1.40,-1.94,-2.93,-2.90,-2.90
305.55,-1.58,1.29,-1.54,1.33,-1.33,-1.39,-1.90,-2.90,-2.87,-2.86
308.61,-1.61,1.24,-1.58,1.26,-1.26,-1.37,-1.85,-2.87,-2.85,-2.84
311.69,-1.61,1.21,-1.63,1.20,-1.20,-1.35,-1.81,-2.80,-2.82,-2.81
314.81,-1.65,1.15,-1.67,1.13,-1.13,-1.33,-1.76,-2.77,-2.80,-2.79
317.96,-1.69,1.09,-1.72,1.06,-1.06,-1.31,-1.72,-2.75,-2.78,-2.77
321.14,-1.75,1.02,-1.76,1.00,-1.00,-1.29,-1.67,-2.75,-2.76,-2.76
324.35,-1.79,0.96,-1.80,0.94,-0.94,-1.26,-1.63,-2.73,-2.74,-2.74
327.59,-1.88,0.86,-1.85,0.88,-0.88,-1.23,-1.58,-2.76,-2.73,-2.73
330.87,-1.89,0.84,-1.90,0.82,-0.82,-1.20,-1.54,-2.71,-2.72,-2.72
334.18,-1.93,0.78,-1.94,0.76,-0.76,-1.16,-1.50,-2.69,-2.70,-2.70
337.52,-1.98,0.72,-2.00,0.70,-0.70,-1.12,-1.46,-2.68,-2.69,-2.69
340.90,-2.05,0.64,-2.05,0.64,-0.64,-1.08,-1.42,-2.69,-2.69,-2.68
344.30,-2.09,0.59,-2.09,0.59,-0.59,-1.04,-1.38,-2.67,-2.68,-2.67
347.75,-2.16,0.52,-2.14,0.53,-0.53,-0.99,-1.34,-2.69,-2.67,-2.67
351.23,-2.19,0.48,-2.18,0.49,-0.49,-0.93,-1.31,-2.68,-2.67,-2.66
354.74,-2.22,0.46,-2.21,0.45,-0.45,-0.87,-1.27,-2.67,-2.67,-2.67
358.28,-2.27,0.40,-2.25,0.42,-0.42,-0.81,-1.24,-2.68,-2.66,-2.66
361.87,-2.33,0.34,-2.28,0.38,-0.38,-0.74,-1.20,-2.71,-2.66,-2.66
365.49,-2.36,0.30,-2.31,0.35,-0.35,-0.67,-1.17,-2.71,-2.66,-2.65
369.14,-2.35,0.32,-2.34,0.32,-0.32,-0.60,-1.14,-2.67,-2.66,-2.66
372.83,-2.35,0.32,-2.37,0.29,-0.29,-0.52,-1.11,-2.64,-2.66,-2.66
376.56,-2.34,0.34,-2.40,0.27,-0.27,-0.45,-1.08,-2.60,-2.66,-2.67
380.33,-2.35,0.32,-2.42,0.25,-0.25,-0.37,-1.05,-2.59,-2.67,-2.66
384.13,-2.40,0.27,-2.44,0.23,-0.23,-0.30,-1.02,-2.63,-2.67,-2.66
387.97,-2.41,0.27,-2.45,0.23,-0.23,-0.23,-0.99,-2.63,-2.68,-2.67
391.85,-2.45,0.24,-2.45,0.23,-0.23,-0.17,-0.96,-2.67,-2.68,-2.68
395.77,-2.50,0.18,-2.45,0.23,-0.23,-0.12,-0.94,-2.73,-2.69,-2.67
399.73,-2.51,0.18,-2.45,0.24,-0.24,-0.09,-0.92,-2.75,-2.69,-2.68
403.72,-2.51,0.18,-2.44,0.25,-0.25,-0.07,-0.89,-2.76,-2.70,-2.68
407.76,-2.50,0.21,-2.43,0.27,-0.27,-0.07,-0.87,-2.77,-2.70,-2.70
411.84,-2.44,0.27,-2.42,0.28,-0.28,-0.08,-0.85,-2.72,-2.70,-2.70
415.96,-2.42,0.29,-2.39,0.31,-0.31,-0.11,-0.83,-2.73,-2.70,-2.70
420.12,-2.30,0.41,-2.36,0.34,-0.34,-0.16,-0.81,-2.64,-2.70,-2.70
424.32,-2.23,0.48,-2.31,0.38,-0.38,-0.21,-0.79,-2.61,-2.70,-2.70
428.56,-2.21,0.49,-2.25,0.43,-0.43,-0.28,-0.77,-2.64,-2.69,-2.69
432.85,-2.20,0.49,-2.18,0.49,-0.49,-0.36,-0.75,-2.68,-2.67,-2.68
437.18,-2.17,0.51,-2.11,0.54,-0.54,-0.43,-0.74,-2.71,-2.65,-2.67
441.55,-2.10,0.54,-2.02,0.60,-0.60,-0.51,-0.72,-2.70,-2.62,-2.63
445.96,-2.00,0.61,-1.94,0.65,-0.65,-0.60,-0.71,-2.65,-2.59,-2.60
450.42,-1.89,0.69,-1.86,0.70,-0.70,-0.67,-0.70,-2.59,-2.56,-2.57
454.93,-1.80,0.73,-1.77,0.75,-0.75,-0.75,-0.68,-2.55,-2.52,-2.52
459.48,-1.64,0.85,-1.68,0.80,-0.80,-0.82,-0.67,-2.43,-2.47,-2.48
464.07,-1.57,0.87,-1.58,0.85,-0.85,-0.89,-0.66,-2.42,-2.43,-2.43
