frequency,raw,error,smoothed,error_smoothed,equalization,parametric_eq,fixed_band_eq,equalized_raw,equalized_smoothed,target
20.00,-16.19,-16.37,-15.74,-15.95,15.95,12.89,3.97,-0.24,0.21,0.19
20.20,-15.97,-16.19,-15.74,-15.97,15.97,12.75,4.07,0.01,0.24,0.23
20.40,-15.74,-16.00,-15.70,-15.96,15.96,12.62,4.18,0.22,0.26,0.26
20.61,-15.54,-15.83,-15.62,-15.91,15.91,12.48,4.29,0.37,0.29,0.29
20.81,-15.31,-15.64,-15.51,-15.83,15.83,12.35,4.41,0.51,0.32,0.33
21.02,-15.10,-15.46,-15.37,-15.71,15.71,12.21,4.52,0.61,0.34,0.37
21.23,-14.89,-15.26,-15.19,-15.55,15.55,12.08,4.64,0.66,0.36,0.38
21.44,-14.66,-15.06,-14.97,-15.35,15.35,11.94,4.77,0.69,0.38,0.40
21.66,-14.46,-14.88,-14.72,-15.12,15.12,11.80,4.90,0.66,0.40,0.42
21.87,-14.23,-14.66,-14.44,-14.85,14.85,11.67,5.03,0.62,0.42,0.43
22.09,-14.00,-14.44,-14.12,-14.55,14.55,11.53,5.16,0.55,0.43,0.44
22.31,-13.73,-14.17,-13.76,-14.21,14.21,11.40,5.30,0.48,0.45,0.44
22.54,-13.46,-13.91,-13.43,-13.88,13.88,11.26,5.44,0.42,0.46,0.45
22.76,-13.18,-13.64,-13.04,-13.50,13.50,11.13,5.59,0.32,0.46,0.46
22.99,-12.92,-13.37,-12.59,-13.06,13.06,10.99,5.74,0.15,0.47,0.46
23.22,-12.32,-12.78,-12.10,-12.57,12.57,10.86,5.89,0.26,0.48,0.47
23.45,-11.70,-12.18,-11.54,-12.03,12.03,10.72,6.05,0.32,0.48,0.48
23.69,-11.10,-11.58,-10.93,-11.42,11.42,10.59,6.21,0.33,0.49,0.49
23.92,-10.47,-10.96,-10.28,-10.77,10.77,10.46,6.37,0.30,0.49,0.50
24.16,-9.70,-10.21,-9.58,-10.08,10.08,10.33,6.54,0.38,0.50,0.51
24.40,-8.85,-9.37,-8.86,-9.36,9.36,10.19,6.71,0.51,0.50,0.52
24.65,-8.04,-8.55,-8.12,-8.62,8.62,10.06,6.89,0.58,0.50,0.51
24.89,-7.18,-7.69,-7.37,-7.88,7.88,9.93,7.07,0.70,0.51,0.51
25.14,-6.42,-6.92,-6.62,-7.13,7.13,9.80,7.25,0.71,0.51,0.51
25.39,-5.69,-6.20,-5.86,-6.36,6.36,9.67,7.43,0.67,0.51,0.51
25.65,-4.99,-5.50,-5.10,-5.61,5.61,9.54,7.62,0.62,0.51,0.51
25.91,-4.28,-4.77,-4.38,-4.88,4.88,9.41,7.80,0.60,0.50,0.49
26.16,-3.64,-4.13,-3.65,-4.15,4.15,9.29,7.99,0.51,0.50,0.50
26.43,-3.09,-3.59,-2.92,-3.42,3.42,9.16,8.18,0.32,0.50,0.50
26.69,-2.52,-3.01,-2.22,-2.72,2.72,9.03,8.37,0.20,0.50,0.50
26.96,-1.96,-2.46,-1.58,-2.07,2.07,8.90,8.56,0.11,0.49,0.50
27.23,-1.35,-1.85,-1.00,-1.49,1.49,8.78,8.74,0.14,0.49,0.50
27.50,-0.72,-1.22,-0.50,-0.98,0.98,8.65,8.92,0.27,0.49,0.50
27.77,-0.09,-0.58,-0.08,-0.57,0.57,8.53,9.10,0.48,0.49,0.49
28.05,0.47,-0.02,0.23,-0.26,0.26,8.40,9.26,0.72,0.49,0.49
28.33,0.74,0.27,0.43,-0.06,0.06,8.28,9.42,0.79,0.48,0.47
28.62,1.00,0.52,0.51,0.03,-0.03,8.16,9.57,0.97,0.48,0.48
28.90,1.27,0.80,0.46,-0.02,0.02,8.03,9.70,1.29,0.48,0.48
29.19,0.95,0.49,0.30,-0.18,0.18,7.91,9.82,1.13,0.48,0.47
29.48,0.34,-0.14,0.01,-0.46,0.46,7.79,9.92,0.80,0.47,0.48
29.78,-0.27,-0.75,-0.39,-0.86,0.86,7.67,10.00,0.59,0.47,0.48
30.08,-0.92,-1.39,-0.90,-1.37,1.37,7.55,10.06,0.45,0.46,0.48
30.38,-1.66,-2.11,-1.51,-1.97,1.97,7.42,10.10,0.31,0.46,0.46
30.68,-2.41,-2.86,-2.18,-2.63,2.63,7.30,10.11,0.23,0.45,0.46
30.99,-3.14,-3.58,-2.90,-3.35,3.35,7.18,10.09,0.21,0.45,0.45
31.30,-3.84,-4.28,-3.63,-4.07,4.07,7.06,10.05,0.23,0.45,0.45
31.61,-4.54,-4.99,-4.35,-4.79,4.79,6.94,9.98,0.24,0.44,0.45
31.93,-5.25,-5.67,-5.05,-5.48,5.48,6.82,9.88,0.24,0.43,0.43
32.24,-5.85,-6.27,-5.70,-6.13,6.13,6.70,9.76,0.28,0.43,0.42
32.57,-6.39,-6.81,-6.29,-6.72,6.72,6.59,9.61,0.33,0.42,0.42
32.89,-6.96,-7.38,-6.84,-7.26,7.26,6.47,9.44,0.30,0.42,0.42
33.22,-7.40,-7.81,-7.34,-7.76,7.76,6.35,9.25,0.36,0.41,0.42
33.55,-7.79,-8.20,-7.81,-8.22,8.22,6.23,9.04,0.43,0.41,0.41
33.89,-8.17,-8.57,-8.22,-8.63,8.63,6.11,8.82,0.46,0.40,0.41
34.23,-8.48,-8.89,-8.59,-8.99,8.99,5.99,8.58,0.50,0.40,0.41
34.57,-8.78,-9.17,-8.90,-9.30,9.30,5.88,8.32,0.52,0.39,0.40
34.92,-9.06,-9.45,-9.16,-9.55,9.55,5.76,8.06,0.48,0.39,0.39
35.27,-9.31,-9.70,-9.36,-9.74,9.74,5.64,7.79,0.43,0.38,0.39
35.62,-9.55,-9.93,-9.51,-9.89,9.89,5.52,7.51,0.33,0.38,0.38
35.97,-9.79,-10.15,-9.60,-9.98,9.98,5.40,7.22,0.19,0.37,0.37
36.33,-9.80,-10.16,-9.65,-10.02,10.02,5.28,6.93,0.22,0.37,0.37
36.70,-9.79,-10.15,-9.65,-10.01,10.01,5.17,6.64,0.22,0.36,0.37
37.06,-9.72,-10.07,-9.58,-9.93,9.93,5.05,6.34,0.21,0.35,0.35
37.43,-9.46,-9.81,-9.45,-9.80,9.80,4.93,6.05,0.33,0.35,0.35
37.81,-9.21,-9.54,-9.26,-9.59,9.59,4.81,5.75,0.39,0.34,0.34
38.19,-8.95,-9.28,-9.00,-9.33,9.33,4.69,5.45,0.38,0.33,0.33
38.57,-8.67,-8.99,-8.68,-9.01,9.01,4.57,5.15,0.34,0.33,0.33
38.95,-8.39,-8.71,-8.31,-8.63,8.63,4.45,4.86,0.24,0.32,0.32
39.34,-8.01,-8.32,-7.90,-8.22,8.22,4.33,4.56,0.20,0.31,0.31
39.74,-7.62,-7.91,-7.45,-7.76,7.76,4.21,4.27,0.14,0.31,0.29
40.14,-7.15,-7.45,-6.97,-7.27,7.27,4.09,3.97,0.12,0.30,0.30
40.54,-6.53,-6.82,-6.49,-6.78,6.78,3.96,3.68,0.24,0.29,0.29
40.94,-5.91,-6.20,-6.01,-6.28,6.28,3.84,3.39,0.37,0.27,0.29
41.35,-5.43,-5.70,-5.54,-5.80,5.80,3.72,3.10,0.37,0.26,0.27
41.76,-4.98,-5.23,-5.10,-5.34,5.34,3.60,2.81,0.36,0.24,0.25
42.18,-4.53,-4.77,-4.68,-4.90,4.90,3.47,2.52,0.36,0.22,0.24
42.60,-4.11,-4.32,-4.27,-4.47,4.47,3.35,2.24,0.36,0.20,0.21
43.03,-3.70,-3.89,-3.90,-4.07,4.07,3.22,1.95,0.38,0.17,0.20
43.46,-3.37,-3.53,-3.55,-3.70,3.70,3.09,1.67,0.34,0.15,0.17
43.90,-3.05,-3.17,-3.24,-3.36,3.36,2.96,1.39,0.31,0.12,0.12
44.33,-2.90,-2.98,-2.96,-3.06,3.06,2.83,1.10,0.16,0.09,0.09
44.78,-2.80,-2.85,-2.72,-2.79,2.79,2.70,0.82,-0.01,0.07,0.06
45.23,-2.65,-2.67,-2.49,-2.54,2.54,2.57,0.54,-0.11,0.04,0.03
45.68,-2.45,-2.44,-2.28,-2.30,2.30,2.44,0.26,-0.15,0.02,-0.00
46.13,-2.23,-2.21,-2.08,-2.07,2.07,2.30,-0.02,-0.16,-0.01,-0.02
46.60,-2.02,-1.99,-1.89,-1.87,1.87,2.17,-0.30,-0.15,-0.02,-0.03
47.06,-1.80,-1.74,-1.72,-1.68,1.68,2.03,-0.58,-0.12,-0.04,-0.05
47.53,-1.56,-1.50,-1.55,-1.49,1.49,1.89,-0.86,-0.06,-0.05,-0.05
48.01,-1.33,-1.27,-1.38,-1.32,1.32,1.75,-1.14,-0.00,-0.06,-0.05
48.49,-1.18,-1.10,-1.23,-1.16,1.16,1.61,-1.42,-0.02,-0.07,-0.07
48.97,-1.03,-0.94,-1.08,-1.01,1.01,1.47,-1.70,-0.02,-0.07,-0.08
49.46,-0.87,-0.77,-0.93,-0.86,0.86,1.32,-1.97,-0.01,-0.07,-0.09
49.96,-0.70,-0.60,-0.80,-0.73,0.73,1.17,-2.25,0.03,-0.08,-0.09
50.46,-0.67,-0.58,-0.70,-0.62,0.62,1.02,-2.53,-0.05,-0.08,-0.08
50.96,-0.65,-0.57,-0.61,-0.52,0.52,0.87,-2.80,-0.13,-0.09,-0.07
51.47,-0.56,-0.47,-0.54,-0.44,0.44,0.71,-3.07,-0.12,-0.10,-0.08
51.99,-0.47,-0.36,-0.49,-0.38,0.38,0.55,-3.35,-0.09,-0.12,-0.10
52.51,-0.47,-0.35,-0.46,-0.33,0.33,0.39,-3.62,-0.14,-0.14,-0.11
53.03,-0.47,-0.32,-0.45,-0.29,0.29,0.23,-3.88,-0.17,-0.16,-0.14
53.56,-0.47,-0.29,-0.46,-0.26,0.26,0.06,-4.14,-0.20,-0.19,-0.17
54.10,-0.47,-0.25,-0.47,-0.24,0.24,-0.11,-4.40,-0.22,-0.23,-0.21
54.64,-0.47,-0.20,-0.50,-0.23,0.23,-0.28,-4.66,-0.24,-0.27,-0.26
55.18,-0.47,-0.15,-0.52,-0.21,0.21,-0.46,-4.90,-0.25,-0.31,-0.31
55.74,-0.47,-0.10,-0.55,-0.19,0.19,-0.64,-5.14,-0.28,-0.36,-0.36
56.29,-0.53,-0.11,-0.57,-0.16,0.16,-0.83,-5.37,-0.37,-0.42,-0.41
56.86,-0.66,-0.18,-0.60,-0.13,0.13,-1.02,-5.60,-0.52,-0.47,-0.47
57.42,-0.69,-0.14,-0.64,-0.10,0.10,-1.21,-5.81,-0.58,-0.53,-0.54
58.00,-0.69,-0.08,-0.66,-0.07,0.07,-1.41,-6.01,-0.62,-0.59,-0.60
58.58,-0.69,-0.02,-0.68,-0.03,0.03,-1.62,-6.19,-0.66,-0.66,-0.66
59.16,-0.69,0.03,-0.69,0.03,-0.03,-1.82,-6.36,-0.71,-0.72,-0.71
59.76,-0.69,0.09,-0.69,0.09,-0.09,-2.04,-6.52,-0.78,-0.78,-0.77
60.35,-0.61,0.24,-0.68,0.17,-0.17,-2.26,-6.66,-0.77,-0.84,-0.84
60.96,-0.48,0.42,-0.63,0.27,-0.27,-2.49,-6.78,-0.74,-0.90,-0.89
61.57,-0.47,0.50,-0.56,0.40,-0.40,-2.72,-6.89,-0.87,-0.96,-0.96
62.18,-0.43,0.61,-0.43,0.58,-0.58,-2.96,-6.97,-1.01,-1.02,-1.03
62.80,-0.28,0.80,-0.25,0.82,-0.82,-3.21,-7.04,-1.09,-1.07,-1.07
63.43,-0.10,1.04,-0.02,1.10,-1.10,-3.47,-7.09,-1.20,-1.12,-1.13
64.07,0.12,1.30,0.27,1.44,-1.44,-3.74,-7.12,-1.31,-1.17,-1.17
64.71,0.46,1.69,0.61,1.83,-1.83,-4.01,-7.13,-1.36,-1.22,-1.22
65.35,0.84,2.11,1.02,2.28,-2.28,-4.30,-7.12,-1.44,-1.26,-1.27
66.01,1.24,2.55,1.50,2.80,-2.80,-4.59,-7.10,-1.56,-1.30,-1.30
66.67,1.87,3.21,2.05,3.39,-3.39,-4.90,-7.06,-1.52,-1.34,-1.34
67.33,2.57,3.94,2.66,4.04,-4.04,-5.22,-7.01,-1.47,-1.37,-1.37
68.01,3.30,4.70,3.33,4.74,-4.74,-5.55,-6.95,-1.44,-1.41,-1.40
68.69,4.06,5.49,4.05,5.49,-5.49,-5.89,-6.88,-1.42,-1.44,-1.43
69.37,4.81,6.28,4.80,6.27,-6.27,-6.26,-6.79,-1.46,-1.47,-1.47
70.07,5.53,7.04,5.58,7.08,-7.08,-6.63,-6.70,-1.54,-1.50,-1.50
70.77,6.38,7.90,6.37,7.90,-7.90,-7.03,-6.60,-1.52,-1.53,-1.51
71.48,7.24,8.79,7.17,8.73,-8.73,-7.44,-6.50,-1.49,-1.56,-1.55
72.19,8.11,9.68,7.95,9.54,-9.54,-7.88,-6.39,-1.43,-1.59,-1.57
72.91,8.92,10.53,8.70,10.32,-10.32,-8.34,-6.28,-1.40,-1.62,-1.61
73.64,9.58,11.22,9.42,11.07,-11.07,-8.82,-6.16,-1.50,-1.65,-1.64
74.38,10.22,11.90,10.11,11.79,-11.79,-9.33,-6.04,-1.56,-1.68,-1.67
75.12,10.87,12.57,10.77,12.47,-12.47,-9.88,-5.93,-1.61,-1.71,-1.70
75.87,11.49,13.22,11.41,13.15,-13.15,-10.45,-5.81,-1.66,-1.73,-1.73
76.63,12.13,13.89,12.04,13.80,-13.80,-11.07,-5.69,-1.68,-1.76,-1.76
77.40,12.69,14.49,12.65,14.44,-14.44,-11.72,-5.58,-1.75,-1.79,-1.79
78.17,13.19,15.01,13.26,15.07,-15.07,-12.42,-5.46,-1.88,-1.81,-1.82
78.95,13.64,15.47,13.86,15.69,-15.69,-13.18,-5.35,-2.06,-1.83,-1.83
79.74,14.08,15.93,14.46,16.32,-16.32,-13.98,-5.24,-2.24,-1.85,-1.85
80.54,14.62,16.49,15.05,16.92,-16.92,-14.85,-5.13,-2.31,-1.87,-1.87
81.35,15.22,17.11,15.62,17.50,-17.50,-15.76,-5.02,-2.27,-1.88,-1.89
82.16,15.87,17.77,16.14,18.02,-18.02,-16.72,-4.92,-2.15,-1.89,-1.89
82.98,16.49,18.38,16.58,18.48,-18.48,-17.70,-4.82,-1.99,-1.89,-1.89
83.81,17.00,18.91,16.94,18.84,-18.84,-18.64,-4.72,-1.83,-1.90,-1.90
84.65,17.37,19.29,17.19,19.09,-19.09,-19.44,-4.63,-1.72,-1.90,-1.91
85.50,17.69,19.60,17.31,19.22,-19.22,-19.97,-4.54,-1.52,-1.90,-1.90
86.35,17.96,19.87,17.31,19.21,-19.21,-20.11,-4.45,-1.25,-1.90,-1.90
87.22,18.00,19.91,17.18,19.08,-19.08,-19.80,-4.37,-1.08,-1.90,-1.90
88.09,17.58,19.49,16.93,18.83,-18.83,-19.14,-4.28,-1.24,-1.90,-1.90
88.97,16.92,18.81,16.55,18.45,-18.45,-18.26,-4.21,-1.52,-1.90,-1.88
89.86,16.21,18.09,16.04,17.94,-17.94,-17.28,-4.13,-1.74,-1.90,-1.88
90.76,15.42,17.32,15.42,17.33,-17.33,-16.28,-4.06,-1.91,-1.90,-1.90
91.66,14.52,16.41,14.72,16.62,-16.62,-15.31,-4.00,-2.11,-1.91,-1.89
92.58,13.61,15.54,13.95,15.86,-15.86,-14.39,-3.93,-2.25,-1.91,-1.92
93.51,12.70,14.61,13.15,15.07,-15.07,-13.52,-3.87,-2.37,-1.92,-1.91
94.44,11.88,13.82,12.33,14.26,-14.26,-12.71,-3.82,-2.38,-1.94,-1.93
95.39,11.22,13.16,11.50,13.46,-13.46,-11.95,-3.76,-2.24,-1.95,-1.94
96.34,10.59,12.58,10.69,12.67,-12.67,-11.24,-3.71,-2.07,-1.97,-1.98
97.30,9.93,11.93,9.93,11.92,-11.92,-10.57,-3.66,-1.99,-1.99,-2.00
98.28,9.22,11.24,9.21,11.23,-11.23,-9.94,-3.61,-2.01,-2.02,-2.02
99.26,8.48,10.54,8.54,10.59,-10.59,-9.34,-3.57,-2.10,-2.05,-2.05
100.25,7.85,9.94,7.90,9.98,-9.98,-8.78,-3.53,-2.13,-2.08,-2.08
101.25,7.32,9.43,7.30,9.42,-9.42,-8.24,-3.49,-2.09,-2.12,-2.11
102.27,6.79,8.94,6.73,8.88,-8.88,-7.73,-3.45,-2.10,-2.16,-2.15
103.29,6.20,8.41,6.17,8.37,-8.37,-7.23,-3.41,-2.17,-2.20,-2.20
104.32,5.61,7.86,5.63,7.88,-7.88,-6.76,-3.38,-2.27,-2.25,-2.24
105.37,5.03,7.32,5.09,7.39,-7.39,-6.31,-3.34,-2.37,-2.31,-2.29
106.42,4.47,6.82,4.55,6.91,-6.91,-5.87,-3.31,-2.44,-2.36,-2.34
107.48,4.00,6.42,4.03,6.45,-6.45,-5.44,-3.28,-2.45,-2.43,-2.41
108.56,3.54,6.04,3.51,6.00,-6.00,-5.03,-3.24,-2.45,-2.49,-2.49
109.64,3.09,5.66,3.00,5.56,-5.56,-4.63,-3.21,-2.47,-2.56,-2.56
110.74,2.60,5.23,2.50,5.13,-5.13,-4.24,-3.18,-2.53,-2.63,-2.62
111.85,2.08,4.78,2.01,4.71,-4.71,-3.86,-3.15,-2.63,-2.71,-2.69
112.97,1.57,4.35,1.52,4.30,-4.30,-3.48,-3.11,-2.73,-2.78,-2.78
114.10,1.05,3.89,1.05,3.90,-3.90,-3.11,-3.08,-2.85,-2.85,-2.84
115.24,0.53,3.45,0.59,3.51,-3.51,-2.75,-3.04,-2.98,-2.92,-2.92
116.39,0.06,3.07,0.13,3.12,-3.12,-2.39,-3.00,-3.05,-2.98,-3.00
117.55,-0.42,2.65,-0.34,2.71,-2.71,-2.03,-2.96,-3.13,-3.05,-3.06
118.73,-0.86,2.28,-0.80,2.30,-2.30,-1.68,-2.92,-3.16,-3.11,-3.13
119.92,-1.34,1.83,-1.27,1.89,-1.89,-1.33,-2.88,-3.24,-3.16,-3.17
121.12,-1.64,1.60,-1.73,1.48,-1.48,-0.98,-2.83,-3.11,-3.21,-3.23
122.33,-2.03,1.25,-2.19,1.07,-1.07,-0.63,-2.78,-3.09,-3.26,-3.27
123.55,-2.43,0.87,-2.64,0.66,-0.66,-0.28,-2.73,-3.08,-3.30,-3.29
124.79,-2.87,0.46,-3.07,0.27,-0.27,0.06,-2.67,-3.15,-3.34,-3.33
126.03,-3.33,0.05,-3.45,-0.08,0.08,0.41,-2.62,-3.25,-3.38,-3.37
127.29,-3.83,-0.42,-3.78,-0.37,0.37,0.76,-2.55,-3.46,-3.41,-3.40
128.57,-4.30,-0.86,-4.04,-0.59,0.59,1.11,-2.49,-3.71,-3.44,-3.44
129.85,-4.67,-1.19,-4.25,-0.78,0.78,1.47,-2.42,-3.89,-3.48,-3.47
131.15,-4.86,-1.35,-4.43,-0.92,0.92,1.82,-2.35,-3.94,-3.51,-3.50
132.46,-5.12,-1.58,-4.58,-1.04,1.04,2.18,-2.28,-4.08,-3.54,-3.53
133.79,-5.39,-1.82,-4.71,-1.14,1.14,2.53,-2.20,-4.25,-3.57,-3.56
135.12,-5.47,-1.85,-4.86,-1.25,1.25,2.89,-2.12,-4.21,-3.60,-3.61
136.48,-5.42,-1.77,-5.07,-1.43,1.43,3.25,-2.04,-3.98,-3.64,-3.64
137.84,-5.24,-1.56,-5.45,-1.77,1.77,3.60,-1.95,-3.47,-3.67,-3.67
139.22,-5.27,-1.54,-6.07,-2.36,2.36,3.95,-1.87,-2.91,-3.71,-3.72
140.61,-5.48,-1.70,-6.89,-3.14,3.14,4.30,-1.78,-2.34,-3.75,-3.77
142.02,-6.09,-2.30,-7.85,-4.05,4.05,4.64,-1.69,-2.04,-3.79,-3.79
143.44,-7.10,-3.27,-8.86,-5.03,5.03,4.97,-1.59,-2.08,-3.84,-3.83
144.87,-8.15,-4.27,-9.86,-5.98,5.98,5.29,-1.50,-2.17,-3.89,-3.87
146.32,-9.49,-5.56,-10.80,-6.86,6.86,5.59,-1.40,-2.63,-3.94,-3.92
147.78,-10.95,-6.99,-11.62,-7.62,7.62,5.88,-1.30,-3.33,-4.00,-3.96
149.26,-13.02,-8.99,-12.30,-8.24,8.24,6.14,-1.20,-4.78,-4.06,-4.03
150.75,-15.19,-11.08,-12.83,-8.70,8.70,6.37,-1.10,-6.50,-4.13,-4.11
152.26,-16.86,-12.67,-13.18,-8.98,8.98,6.57,-1.00,-7.88,-4.20,-4.18
153.78,-17.27,-13.02,-13.35,-9.08,9.08,6.73,-0.90,-8.19,-4.27,-4.25
155.32,-15.75,-11.40,-13.31,-8.97,8.97,6.85,-0.79,-6.78,-4.34,-4.35
156.88,-13.91,-9.49,-13.08,-8.66,8.66,6.94,-0.69,-5.25,-4.42,-4.42
158.44,-12.01,-7.52,-12.65,-8.17,8.17,6.99,-0.59,-3.85,-4.49,-4.49
160.03,-10.54,-5.96,-12.08,-7.53,7.53,6.99,-0.48,-3.01,-4.55,-4.57
161.63,-9.56,-4.92,-11.41,-6.80,6.80,6.96,-0.37,-2.76,-4.61,-4.63
163.24,-8.81,-4.13,-10.67,-6.01,6.01,6.89,-0.27,-2.81,-4.66,-4.68
164.88,-8.31,-3.58,-9.92,-5.21,5.21,6.80,-0.16,-3.09,-4.71,-4.72
166.53,-8.23,-3.46,-9.21,-4.47,4.47,6.67,-0.05,-3.76,-4.74,-4.76
168.19,-8.22,-3.42,-8.63,-3.86,3.86,6.53,0.06,-4.35,-4.77,-4.79
169.87,-8.27,-3.46,-8.27,-3.49,3.49,6.36,0.17,-4.78,-4.78,-4.80
171.57,-8.41,-3.59,-8.17,-3.37,3.37,6.18,0.28,-5.03,-4.80,-4.81
173.29,-8.58,-3.76,-8.29,-3.49,3.49,5.99,0.39,-5.09,-4.80,-4.81
175.02,-8.81,-4.01,-8.51,-3.70,3.70,5.79,0.50,-5.11,-4.81,-4.79
176.77,-9.08,-4.27,-8.76,-3.96,3.96,5.58,0.61,-5.12,-4.81,-4.80
178.54,-9.29,-4.49,-9.01,-4.21,4.21,5.38,0.72,-5.08,-4.81,-4.79
180.32,-9.43,-4.64,-9.25,-4.44,4.44,5.17,0.83,-4.99,-4.81,-4.78
182.13,-9.53,-4.74,-9.46,-4.65,4.65,4.96,0.95,-4.88,-4.81,-4.78
183.95,-9.67,-4.88,-9.63,-4.82,4.82,4.76,1.06,-4.84,-4.81,-4.78
185.79,-9.80,-5.00,-9.76,-4.95,4.95,4.56,1.18,-4.85,-4.81,-4.79
187.65,-9.98,-5.16,-9.87,-5.05,5.05,4.37,1.29,-4.93,-4.82,-4.81
189.52,-10.04,-5.20,-9.95,-5.12,5.12,4.18,1.41,-4.92,-4.83,-4.83
191.42,-10.04,-5.18,-10.00,-5.16,5.16,3.99,1.52,-4.88,-4.85,-4.85
193.33,-10.04,-5.16,-10.03,-5.17,5.17,3.82,1.64,-4.87,-4.86,-4.87
195.27,-10.04,-5.16,-10.02,-5.14,5.14,3.65,1.75,-4.89,-4.88,-4.87
197.22,-10.04,-5.14,-10.00,-5.11,5.11,3.48,1.87,-4.93,-4.90,-4.89
199.19,-10.03,-5.09,-9.97,-5.06,5.06,3.32,1.98,-4.97,-4.92,-4.93
201.18,-9.90,-4.96,-9.93,-5.00,5.00,3.17,2.10,-4.90,-4.94,-4.93
203.19,-9.81,-4.85,-9.89,-4.93,4.93,3.02,2.21,-4.87,-4.95,-4.95
205.23,-9.81,-4.82,-9.83,-4.86,4.86,2.88,2.33,-4.95,-4.97,-4.98
207.28,-9.73,-4.74,-9.77,-4.78,4.78,2.74,2.44,-4.95,-4.99,-4.98
209.35,-9.61,-4.60,-9.70,-4.69,4.69,2.61,2.55,-4.92,-5.01,-5.00
211.44,-9.58,-4.54,-9.62,-4.60,4.60,2.49,2.66,-4.98,-5.02,-5.03
213.56,-9.43,-4.39,-9.53,-4.50,4.50,2.37,2.76,-4.93,-5.03,-5.03
215.69,-9.36,-4.32,-9.43,-4.39,4.39,2.26,2.87,-4.97,-5.05,-5.03
217.85,-9.35,-4.28,-9.32,-4.26,4.26,2.15,2.97,-5.09,-5.06,-5.06
220.03,-9.26,-4.18,-9.19,-4.12,4.12,2.04,3.07,-5.14,-5.07,-5.07
222.23,-9.16,-4.06,-9.04,-3.96,3.96,1.94,3.16,-5.20,-5.08,-5.09
224.45,-9.02,-3.92,-8.87,-3.78,3.78,1.85,3.24,-5.24,-5.09,-5.09
226.70,-8.78,-3.68,-8.68,-3.58,3.58,1.75,3.33,-5.20,-5.10,-5.09
228.96,-8.51,-3.40,-8.45,-3.35,3.35,1.67,3.40,-5.16,-5.11,-5.10
231.25,-8.25,-3.14,-8.21,-3.10,3.10,1.58,3.47,-5.14,-5.11,-5.10
233.57,-8.00,-2.88,-7.96,-2.85,2.85,1.50,3.54,-5.15,-5.11,-5.11
235.90,-7.73,-2.60,-7.68,-2.57,2.57,1.42,3.59,-5.16,-5.11,-5.12
238.26,-7.42,-2.29,-7.40,-2.29,2.29,1.35,3.64,-5.13,-5.12,-5.12
240.64,-7.11,-1.98,-7.11,-1.99,1.99,1.27,3.68,-5.11,-5.11,-5.12
243.05,-6.76,-1.64,-6.80,-1.69,1.69,1.20,3.71,-5.06,-5.11,-5.11
245.48,-6.46,-1.35,-6.51,-1.40,1.40,1.14,3.73,-5.05,-5.11,-5.10
247.93,-6.20,-1.10,-6.23,-1.13,1.13,1.07,3.74,-5.07,-5.10,-5.09
250.41,-5.93,-0.82,-5.97,-0.87,0.87,1.01,3.74,-5.05,-5.10,-5.10
252.92,-5.67,-0.57,-5.73,-0.64,0.64,0.95,3.73,-5.02,-5.09,-5.09
255.45,-5.51,-0.44,-5.52,-0.44,0.44,0.90,3.72,-5.06,-5.08,-5.06
258.00,-5.34,-0.27,-5.34,-0.27,0.27,0.84,3.69,-5.07,-5.07,-5.06
260.58,-5.11,-0.04,-5.18,-0.12,0.12,0.79,3.66,-4.98,-5.06,-5.06
263.19,-5.02,0.03,-5.05,-0.01,0.01,0.74,3.61,-5.01,-5.05,-5.04
265.82,-4.82,0.23,-4.95,0.08,-0.08,0.69,3.56,-4.90,-5.03,-5.04
268.48,-4.80,0.22,-4.87,0.14,-0.14,0.64,3.50,-4.94,-5.02,-5.01
271.16,-4.80,0.21,-4.82,0.18,-0.18,0.59,3.44,-4.97,-5.00,-5.00
273.87,-4.80,0.20,-4.78,0.20,-0.20,0.55,3.36,-4.99,-4.98,-4.99
276.61,-4.80,0.16,-4.76,0.20,-0.20,0.50,3.28,-5.00,-4.96,-4.95
279.38,-4.80,0.15,-4.75,0.19,-0.19,0.46,3.20,-4.98,-4.93,-4.94
282.17,-4.80,0.12,-4.75,0.16,-0.16,0.42,3.11,-4.96,-4.91,-4.91
284.99,-4.80,0.09,-4.74,0.14,-0.14,0.38,3.01,-4.94,-4.88,-4.88
287.84,-4.80,0.07,-4.75,0.11,-0.11,0.34,2.91,-4.91,-4.86,-4.86
290.72,-4.80,0.03,-4.77,0.06,-0.06,0.30,2.81,-4.86,-4.83,-4.82
293.63,-4.80,0.01,-4.78,0.02,-0.02,0.26,2.70,-4.81,-4.80,-4.80
296.57,-4.80,-0.02,-4.80,-0.03,0.03,0.23,2.59,-4.77,-4.77,-4.77
299.53,-4.80,-0.05,-4.82,-0.07,0.07,0.19,2.48,-4.73,-4.75,-4.74
302.53,-4.80,-0.06,-4.84,-0.11,0.11,0.16,2.37,-4.68,-4.73,-4.73
305.55,-4.80,-0.10,-4.86,-0.15,0.15,0.12,2.25,-4.65,-4.71,-4.69
308.61,-4.80,-0.12,-4.87,-0.18,0.18,0.09,2.13,-4.61,-4.69,-4.67
311.69,-4.80,-0.13,-4.88,-0.21,0.21,0.06,2.02,-4.59,-4.67,-4.66
314.81,-4.80,-0.16,-4.87,-0.21,0.21,0.03,1.90,-4.58,-4.66,-4.63
317.96,-4.94,-0.30,-4.85,-0.21,0.21,-0.01,1.78,-4.73,-4.65,-4.63
321.14,-5.01,-0.36,-4.82,-0.19,0.19,-0.04,1.66,-4.82,-4.64,-4.64
324.35,-4.85,-0.21,-4.78,-0.15,0.15,-0.07,1.54,-4.70,-4.63,-4.63
327.59,-4.80,-0.17,-4.72,-0.10,0.10,-0.10,1.42,-4.70,-4.62,-4.62
330.87,-4.80,-0.18,-4.64,-0.03,0.03,-0.12,1.31,-4.76,-4.61,-4.61
334.18,-4.69,-0.07,-4.54,0.05,-0.05,-0.15,1.19,-4.74,-4.60,-4.61
337.52,-4.46,0.15,-4.43,0.15,-0.15,-0.18,1.07,-4.61,-4.59,-4.60
340.90,-4.36,0.22,-4.32,0.25,-0.25,-0.21,0.95,-4.61,-4.57,-4.57
344.30,-4.16,0.41,-4.21,0.35,-0.35,-0.24,0.84,-4.51,-4.56,-4.56
347.75,-4.05,0.51,-4.11,0.43,-0.43,-0.27,0.72,-4.47,-4.54,-4.55
351.23,-3.92,0.61,-4.03,0.49,-0.49,-0.29,0.60,-4.41,-4.52,-4.52
354.74,-3.88,0.63,-3.96,0.54,-0.54,-0.32,0.49,-4.42,-4.50,-4.50
358.28,-3.77,0.71,-3.91,0.57,-0.57,-0.35,0.37,-4.33,-4.48,-4.47
361.87,-3.68,0.78,-3.88,0.58,-0.58,-0.37,0.26,-4.25,-4.45,-4.45
365.49,-3.66,0.78,-3.85,0.58,-0.58,-0.40,0.14,-4.23,-4.43,-4.43
369.14,-3.68,0.74,-3.83,0.58,-0.58,-0.43,0.03,-4.25,-4.41,-4.41
372.83,-3.82,0.57,-3.82,0.56,-0.56,-0.45,-0.09,-4.38,-4.39,-4.38
376.56,-3.94,0.43,-3.83,0.54,-0.54,-0.48,-0.20,-4.47,-4.37,-4.36
380.33,-4.08,0.26,-3.83,0.52,-0.52,-0.51,-0.31,-4.60,-4.35,-4.33
384.13,-4.11,0.21,-3.83,0.50,-0.50,-0.53,-0.42,-4.61,-4.33,-4.31
387.97,-3.96,0.35,-3.81,0.50,-0.50,-0.56,-0.53,-4.46,-4.31,-4.30
391.85,-3.88,0.43,-3.79,0.51,-0.51,-0.58,-0.64,-4.38,-4.30,-4.30
395.77,-3.72,0.58,-3.75,0.53,-0.53,-0.61,-0.75,-4.25,-4.29,-4.29
399.73,-3.66,0.63,-3.70,0.57,-0.57,-0.64,-0.86,-4.23,-4.28,-4.28
403.72,-3.57,0.71,-3.63,0.63,-0.63,-0.66,-0.97,-4.20,-4.27,-4.27
407.76,-3.46,0.81,-3.56,0.71,-0.71,-0.69,-1.07,-4.16,-4.26,-4.26
411.84,-3.43,0.83,-3.46,0.79,-0.79,-0.71,-1.18,-4.22,-4.26,-4.25
415.96,-3.43,0.82,-3.36,0.89,-0.89,-0.74,-1.28,-4.32,-4.25,-4.24
420.12,-3.25,1.00,-3.26,0.99,-0.99,-0.77,-1.39,-4.24,-4.25,-4.24
424.32,-3.18,1.07,-3.16,1.09,-1.09,-0.79,-1.49,-4.26,-4.25,-4.24
428.56,-3.03,1.22,-3.07,1.17,-1.17,-0.82,-1.59,-4.20,-4.25,-4.24
432.85,-2.97,1.29,-3.00,1.25,-1.25,-0.85,-1.68,-4.21,-4.24,-4.25
437.18,-2.87,1.38,-2.91,1.33,-1.33,-0.87,-1.78,-4.19,-4.24,-4.24
