frequency,raw,error,smoothed,error_smoothed,equalization,parametric_eq,fixed_band_eq,equalized_raw,equalized_smoothed,target
20.00,-17.88,-21.31,-17.88,-21.33,21.33,20.47,8.89,3.45,3.45,3.43
20.20,-17.74,-21.21,-17.74,-21.22,21.22,20.67,9.06,3.48,3.48,3.47
20.40,-17.59,-21.10,-17.60,-21.11,21.11,20.83,9.24,3.52,3.51,3.51
20.61,-17.46,-20.99,-17.46,-20.99,20.99,20.94,9.42,3.54,3.54,3.53
20.81,-17.31,-20.89,-17.31,-20.88,20.88,21.01,9.61,3.56,3.56,3.57
21.02,-17.17,-20.79,-17.17,-20.76,20.76,21.02,9.80,3.58,3.59,3.61
21.23,-17.02,-20.66,-17.02,-20.64,20.64,20.99,9.99,3.61,3.61,3.63
21.44,-16.88,-20.53,-16.88,-20.51,20.51,20.91,10.20,3.63,3.63,3.65
21.66,-16.74,-20.41,-16.73,-20.39,20.39,20.80,10.40,3.65,3.66,3.67
21.87,-16.58,-20.26,-16.59,-20.26,20.26,20.64,10.61,3.68,3.67,3.68
22.09,-16.44,-20.14,-16.44,-20.13,20.13,20.46,10.83,3.69,3.69,3.70
22.31,-16.29,-20.00,-16.29,-20.00,20.00,20.25,11.05,3.71,3.71,3.71
22.54,-16.15,-19.87,-16.15,-19.87,19.87,20.02,11.28,3.72,3.72,3.72
22.76,-15.99,-19.72,-16.00,-19.73,19.73,19.78,11.52,3.74,3.73,3.73
22.99,-15.85,-19.58,-15.85,-19.59,19.59,19.53,11.76,3.73,3.74,3.73
23.22,-15.70,-19.44,-15.70,-19.45,19.45,19.27,12.01,3.74,3.75,3.74
23.45,-15.55,-19.30,-15.55,-19.31,19.31,19.01,12.26,3.75,3.75,3.75
23.69,-15.41,-19.16,-15.40,-19.17,19.17,18.75,12.53,3.76,3.76,3.76
23.92,-15.25,-19.02,-15.25,-19.03,19.03,18.50,12.80,3.77,3.77,3.77
24.16,-15.10,-18.89,-15.10,-18.89,18.89,18.24,13.08,3.78,3.78,3.78
24.40,-14.95,-18.75,-14.95,-18.74,18.74,17.99,13.36,3.79,3.79,3.80
24.65,-14.80,-18.61,-14.80,-18.60,18.60,17.75,13.66,3.80,3.80,3.80
24.89,-14.65,-18.46,-14.65,-18.46,18.46,17.52,13.97,3.81,3.81,3.81
25.14,-14.50,-18.32,-14.50,-18.32,18.32,17.29,14.28,3.82,3.82,3.82
25.39,-14.35,-18.18,-14.35,-18.18,18.18,17.07,14.61,3.83,3.83,3.83
25.65,-14.20,-18.05,-14.20,-18.04,18.04,16.86,14.94,3.84,3.84,3.85
25.91,-14.06,-17.90,-14.05,-17.90,17.90,16.66,15.29,3.85,3.85,3.85
26.16,-13.90,-17.76,-13.90,-17.76,17.76,16.47,15.64,3.86,3.86,3.86
26.43,-13.76,-17.62,-13.75,-17.62,17.62,16.28,16.01,3.87,3.87,3.86
26.69,-13.60,-17.48,-13.60,-17.48,17.48,16.10,16.39,3.88,3.88,3.87
26.96,-13.46,-17.35,-13.45,-17.34,17.34,15.94,16.78,3.88,3.89,3.89
27.23,-13.31,-17.21,-13.30,-17.20,17.20,15.78,17.18,3.89,3.89,3.90
27.50,-13.15,-17.06,-13.15,-17.06,17.06,15.63,17.58,3.90,3.90,3.91
27.77,-13.00,-16.91,-13.00,-16.92,16.92,15.48,18.00,3.92,3.91,3.91
28.05,-12.85,-16.78,-12.86,-16.78,16.78,15.35,18.42,3.92,3.92,3.93
28.33,-12.71,-16.64,-12.71,-16.64,16.64,15.22,18.84,3.92,3.93,3.92
28.62,-12.57,-16.50,-12.56,-16.50,16.50,15.10,19.26,3.93,3.94,3.93
28.90,-12.41,-16.35,-12.42,-16.36,16.36,14.99,19.68,3.95,3.94,3.94
29.19,-12.26,-16.20,-12.27,-16.22,16.22,14.88,20.08,3.96,3.95,3.94
29.48,-12.12,-16.09,-12.13,-16.08,16.08,14.78,20.47,3.96,3.96,3.97
29.78,-11.98,-15.94,-11.98,-15.94,15.94,14.69,20.82,3.97,3.96,3.97
30.08,-11.83,-15.80,-11.84,-15.80,15.80,14.60,21.13,3.98,3.97,3.97
30.38,-11.70,-15.67,-11.69,-15.67,15.67,14.51,21.39,3.97,3.98,3.97
30.68,-11.55,-15.54,-11.55,-15.53,15.53,14.44,21.58,3.98,3.98,3.99
30.99,-11.42,-15.40,-11.40,-15.39,15.39,14.36,21.70,3.98,3.99,3.99
31.30,-11.27,-15.26,-11.26,-15.26,15.26,14.29,21.74,3.99,4.00,3.99
31.61,-11.12,-15.13,-11.12,-15.12,15.12,14.23,21.69,4.00,4.00,4.00
31.93,-10.98,-14.99,-10.97,-14.98,14.98,14.17,21.57,4.01,4.01,4.01
32.24,-10.83,-14.84,-10.83,-14.85,14.85,14.11,21.37,4.02,4.02,4.01
32.57,-10.69,-14.71,-10.69,-14.71,14.71,14.05,21.11,4.03,4.02,4.02
32.89,-10.54,-14.57,-10.55,-14.58,14.58,14.00,20.80,4.04,4.03,4.03
33.22,-10.40,-14.44,-10.41,-14.44,14.44,13.94,20.44,4.04,4.04,4.04
33.55,-10.26,-14.31,-10.27,-14.31,14.31,13.89,20.06,4.05,4.04,4.04
33.89,-10.12,-14.18,-10.13,-14.18,14.18,13.84,19.66,4.05,4.05,4.05
34.23,-9.99,-14.05,-9.99,-14.04,14.04,13.79,19.25,4.05,4.05,4.06
34.57,-9.86,-13.93,-9.86,-13.92,13.92,13.73,18.83,4.05,4.06,4.06
34.92,-9.73,-13.79,-9.72,-13.79,13.79,13.67,18.41,4.06,4.06,4.06
35.27,-9.60,-13.66,-9.59,-13.66,13.66,13.62,17.99,4.06,4.07,4.07
35.62,-9.45,-13.53,-9.46,-13.53,13.53,13.55,17.58,4.08,4.07,4.07
35.97,-9.32,-13.39,-9.34,-13.41,13.41,13.49,17.18,4.09,4.07,4.07
36.33,-9.20,-13.28,-9.21,-13.28,13.28,13.42,16.79,4.08,4.07,4.07
36.70,-9.08,-13.16,-9.09,-13.16,13.16,13.34,16.40,4.08,4.07,4.07
37.06,-8.96,-13.04,-8.96,-13.04,13.04,13.26,16.03,4.08,4.07,4.08
37.43,-8.84,-12.92,-8.84,-12.92,12.92,13.17,15.67,4.07,4.07,4.08
37.81,-8.72,-12.80,-8.72,-12.79,12.79,13.08,15.32,4.07,4.07,4.08
38.19,-8.60,-12.68,-8.60,-12.67,12.67,12.98,14.98,4.07,4.07,4.07
38.57,-8.49,-12.56,-8.48,-12.55,12.55,12.87,14.65,4.06,4.06,4.07
38.95,-8.37,-12.43,-8.37,-12.43,12.43,12.76,14.33,4.06,4.06,4.06
39.34,-8.25,-12.31,-8.25,-12.31,12.31,12.64,14.03,4.06,4.06,4.05
39.74,-8.13,-12.18,-8.13,-12.19,12.19,12.51,13.73,4.05,4.06,4.05
40.14,-8.02,-12.07,-8.02,-12.07,12.07,12.38,13.44,4.05,4.05,4.05
40.54,-7.89,-11.94,-7.90,-11.94,11.94,12.24,13.16,4.05,4.05,4.05
40.94,-7.77,-11.81,-7.78,-11.82,11.82,12.09,12.88,4.05,4.04,4.04
41.35,-7.65,-11.69,-7.66,-11.70,11.70,11.94,12.62,4.04,4.04,4.03
41.76,-7.54,-11.58,-7.54,-11.57,11.57,11.78,12.36,4.03,4.03,4.03
42.18,-7.42,-11.46,-7.42,-11.45,11.45,11.61,12.11,4.02,4.03,4.04
42.60,-7.29,-11.32,-7.30,-11.32,11.32,11.44,11.87,4.03,4.03,4.03
43.03,-7.17,-11.20,-7.17,-11.19,11.19,11.27,11.64,4.02,4.02,4.03
43.46,-7.05,-11.08,-7.05,-11.07,11.07,11.09,11.41,4.01,4.02,4.02
43.90,-6.93,-10.94,-6.93,-10.94,10.94,10.91,11.19,4.00,4.01,4.00
44.33,-6.80,-10.81,-6.80,-10.81,10.81,10.73,10.97,4.01,4.01,4.01
44.78,-6.67,-10.67,-6.67,-10.68,10.68,10.54,10.76,4.00,4.00,4.00
45.23,-6.55,-10.54,-6.55,-10.55,10.55,10.35,10.56,3.99,4.00,3.99
45.68,-6.42,-10.41,-6.42,-10.41,10.41,10.17,10.36,3.99,3.99,3.99
46.13,-6.29,-10.27,-6.29,-10.28,10.28,9.98,10.17,3.99,3.99,3.98
46.60,-6.16,-10.15,-6.16,-10.14,10.14,9.79,9.98,3.98,3.98,3.98
47.06,-6.02,-10.00,-6.03,-10.00,10.00,9.60,9.80,3.98,3.97,3.97
47.53,-5.90,-9.86,-5.91,-9.87,9.87,9.41,9.62,3.96,3.96,3.96
48.01,-5.77,-9.74,-5.78,-9.72,9.72,9.22,9.45,3.95,3.95,3.97
48.49,-5.64,-9.59,-5.65,-9.58,9.58,9.03,9.28,3.94,3.94,3.95
48.97,-5.52,-9.45,-5.52,-9.44,9.44,8.84,9.11,3.92,3.93,3.92
49.46,-5.39,-9.30,-5.39,-9.30,9.30,8.66,8.95,3.91,3.91,3.91
49.96,-5.26,-9.15,-5.26,-9.16,9.16,8.48,8.80,3.89,3.90,3.89
50.46,-5.13,-9.02,-5.13,-9.01,9.01,8.29,8.64,3.88,3.88,3.88
50.96,-5.00,-8.87,-5.01,-8.87,8.87,8.12,8.49,3.86,3.86,3.87
51.47,-4.88,-8.72,-4.88,-8.73,8.73,7.94,8.35,3.84,3.84,3.83
51.99,-4.75,-8.57,-4.76,-8.58,8.58,7.76,8.20,3.83,3.82,3.82
52.51,-4.63,-8.44,-4.64,-8.44,8.44,7.59,8.06,3.81,3.80,3.81
53.03,-4.50,-8.29,-4.52,-8.30,8.30,7.42,7.92,3.80,3.78,3.78
53.56,-4.39,-8.16,-4.40,-8.16,8.16,7.26,7.79,3.77,3.76,3.77
54.10,-4.28,-8.02,-4.29,-8.02,8.02,7.09,7.66,3.74,3.74,3.74
54.64,-4.17,-7.89,-4.17,-7.89,7.89,6.93,7.53,3.72,3.71,3.72
55.18,-4.06,-7.75,-4.06,-7.76,7.76,6.78,7.40,3.69,3.69,3.69
55.74,-3.95,-7.61,-3.96,-7.63,7.63,6.62,7.27,3.67,3.67,3.66
56.29,-3.85,-7.50,-3.85,-7.50,7.50,6.47,7.15,3.64,3.64,3.65
56.86,-3.75,-7.37,-3.75,-7.37,7.37,6.32,7.03,3.61,3.62,3.62
57.42,-3.64,-7.23,-3.64,-7.24,7.24,6.17,6.91,3.60,3.59,3.58
58.00,-3.54,-7.10,-3.55,-7.11,7.11,6.03,6.79,3.57,3.57,3.56
58.58,-3.45,-6.99,-3.45,-6.98,6.98,5.89,6.67,3.53,3.54,3.54
59.16,-3.35,-6.87,-3.35,-6.85,6.85,5.75,6.56,3.50,3.51,3.51
59.76,-3.25,-6.74,-3.25,-6.72,6.72,5.62,6.44,3.47,3.47,3.49
60.35,-3.15,-6.60,-3.16,-6.60,6.60,5.48,6.33,3.44,3.44,3.45
60.96,-3.05,-6.47,-3.06,-6.47,6.47,5.36,6.21,3.41,3.40,3.41
61.57,-2.96,-6.33,-2.97,-6.34,6.34,5.23,6.10,3.37,3.37,3.37
62.18,-2.87,-6.19,-2.88,-6.21,6.21,5.10,5.99,3.33,3.33,3.32
62.80,-2.79,-6.08,-2.79,-6.07,6.07,4.98,5.88,3.28,3.29,3.29
63.43,-2.70,-5.94,-2.69,-5.94,5.94,4.86,5.77,3.24,3.25,3.24
64.07,-2.61,-5.81,-2.60,-5.81,5.81,4.75,5.66,3.20,3.21,3.20
64.71,-2.51,-5.67,-2.51,-5.68,5.68,4.63,5.56,3.16,3.16,3.16
65.35,-2.42,-5.54,-2.43,-5.54,5.54,4.52,5.45,3.12,3.12,3.11
66.01,-2.34,-5.41,-2.34,-5.41,5.41,4.41,5.34,3.07,3.07,3.07
66.67,-2.25,-5.29,-2.25,-5.28,5.28,4.31,5.24,3.03,3.03,3.04
67.33,-2.17,-5.16,-2.17,-5.16,5.16,4.20,5.13,2.98,2.98,2.99
68.01,-2.09,-5.04,-2.09,-5.03,5.03,4.10,5.03,2.93,2.94,2.94
68.69,-2.00,-4.90,-2.01,-4.90,4.90,4.00,4.92,2.90,2.89,2.90
69.37,-1.92,-4.77,-1.93,-4.78,4.78,3.90,4.82,2.86,2.85,2.85
70.07,-1.84,-4.64,-1.85,-4.66,4.66,3.80,4.72,2.81,2.80,2.80
70.77,-1.77,-4.53,-1.78,-4.54,4.54,3.71,4.62,2.76,2.76,2.76
71.48,-1.71,-4.43,-1.71,-4.42,4.42,3.62,4.52,2.71,2.71,2.72
72.19,-1.64,-4.31,-1.64,-4.31,4.31,3.53,4.42,2.67,2.67,2.67
72.91,-1.57,-4.20,-1.57,-4.20,4.20,3.44,4.32,2.62,2.63,2.62
73.64,-1.51,-4.09,-1.51,-4.09,4.09,3.35,4.22,2.58,2.58,2.58
74.38,-1.45,-4.00,-1.45,-3.99,3.99,3.27,4.12,2.54,2.54,2.54
75.12,-1.38,-3.88,-1.39,-3.89,3.89,3.18,4.02,2.51,2.50,2.50
75.87,-1.33,-3.79,-1.34,-3.80,3.80,3.10,3.93,2.47,2.46,2.46
76.63,-1.28,-3.71,-1.29,-3.71,3.71,3.02,3.83,2.43,2.42,2.42
77.40,-1.23,-3.62,-1.24,-3.63,3.63,2.94,3.74,2.39,2.38,2.38
78.17,-1.18,-3.53,-1.19,-3.54,3.54,2.86,3.65,2.36,2.35,2.34
78.95,-1.14,-3.46,-1.15,-3.46,3.46,2.79,3.55,2.32,2.31,2.31
79.74,-1.10,-3.38,-1.11,-3.39,3.39,2.71,3.46,2.28,2.28,2.28
80.54,-1.07,-3.32,-1.07,-3.31,3.31,2.64,3.37,2.24,2.24,2.25
81.35,-1.04,-3.26,-1.03,-3.24,3.24,2.57,3.28,2.20,2.21,2.21
82.16,-1.00,-3.18,-0.99,-3.17,3.17,2.50,3.19,2.16,2.18,2.18
82.98,-0.96,-3.12,-0.95,-3.10,3.10,2.43,3.10,2.14,2.15,2.15
83.81,-0.92,-3.04,-0.92,-3.04,3.04,2.36,3.02,2.11,2.12,2.12
84.65,-0.88,-2.96,-0.88,-2.97,2.97,2.30,2.93,2.09,2.09,2.08
85.50,-0.85,-2.91,-0.85,-2.91,2.91,2.23,2.84,2.06,2.06,2.06
86.35,-0.81,-2.85,-0.82,-2.85,2.85,2.17,2.76,2.04,2.03,2.03
87.22,-0.77,-2.78,-0.79,-2.79,2.79,2.10,2.67,2.02,2.00,2.00
88.09,-0.74,-2.72,-0.76,-2.73,2.73,2.04,2.59,1.99,1.98,1.97
88.97,-0.70,-2.65,-0.73,-2.68,2.68,1.98,2.51,1.97,1.95,1.95
89.86,-0.69,-2.62,-0.70,-2.62,2.62,1.92,2.43,1.93,1.92,1.93
90.76,-0.67,-2.56,-0.67,-2.57,2.57,1.86,2.34,1.89,1.89,1.89
91.66,-0.66,-2.53,-0.65,-2.52,2.52,1.80,2.26,1.85,1.87,1.86
92.58,-0.63,-2.46,-0.63,-2.46,2.46,1.74,2.18,1.83,1.84,1.83
93.51,-0.60,-2.42,-0.60,-2.41,2.41,1.69,2.10,1.81,1.81,1.82
94.44,-0.58,-2.36,-0.58,-2.36,2.36,1.63,2.02,1.77,1.78,1.78
95.39,-0.55,-2.31,-0.56,-2.30,2.30,1.58,1.95,1.75,1.74,1.75
96.34,-0.52,-2.23,-0.53,-2.24,2.24,1.52,1.87,1.72,1.71,1.71
97.30,-0.50,-2.18,-0.50,-2.18,2.18,1.47,1.79,1.68,1.68,1.67
98.28,-0.48,-2.12,-0.47,-2.11,2.11,1.42,1.72,1.63,1.64,1.64
99.26,-0.45,-2.05,-0.44,-2.04,2.04,1.36,1.64,1.59,1.60,1.60
100.25,-0.42,-1.99,-0.40,-1.96,1.96,1.31,1.57,1.54,1.56,1.56
101.25,-0.36,-1.89,-0.36,-1.88,1.88,1.26,1.49,1.52,1.52,1.53
102.27,-0.31,-1.79,-0.31,-1.79,1.79,1.21,1.42,1.48,1.48,1.48
103.29,-0.28,-1.71,-0.27,-1.71,1.71,1.16,1.34,1.42,1.43,1.43
104.32,-0.24,-1.64,-0.23,-1.61,1.61,1.11,1.27,1.37,1.39,1.39
105.37,-0.19,-1.54,-0.18,-1.52,1.52,1.06,1.20,1.33,1.34,1.34
106.42,-0.13,-1.42,-0.14,-1.42,1.42,1.01,1.13,1.29,1.28,1.29
107.48,-0.08,-1.32,-0.10,-1.33,1.33,0.97,1.06,1.24,1.23,1.24
108.56,-0.03,-1.21,-0.06,-1.23,1.23,0.92,0.99,1.19,1.17,1.17
109.64,-0.00,-1.12,-0.02,-1.13,1.13,0.87,0.92,1.13,1.11,1.11
110.74,0.02,-1.04,0.01,-1.04,1.04,0.82,0.86,1.05,1.05,1.06
111.85,0.05,-0.94,0.04,-0.94,0.94,0.78,0.79,0.99,0.98,0.99
112.97,0.07,-0.85,0.06,-0.86,0.86,0.73,0.73,0.92,0.92,0.91
114.10,0.08,-0.78,0.08,-0.77,0.77,0.69,0.66,0.85,0.85,0.86
115.24,0.10,-0.68,0.09,-0.69,0.69,0.64,0.60,0.79,0.78,0.78
116.39,0.10,-0.61,0.10,-0.62,0.62,0.60,0.54,0.71,0.71,0.70
117.55,0.10,-0.54,0.10,-0.55,0.55,0.55,0.48,0.65,0.64,0.64
118.73,0.09,-0.48,0.09,-0.49,0.49,0.51,0.42,0.57,0.58,0.56
119.92,0.08,-0.43,0.08,-0.43,0.43,0.46,0.37,0.51,0.51,0.51
121.12,0.07,-0.37,0.06,-0.38,0.38,0.42,0.31,0.45,0.44,0.44
122.33,0.06,-0.32,0.04,-0.34,0.34,0.37,0.26,0.39,0.38,0.37
123.55,0.03,-0.29,0.01,-0.30,0.30,0.33,0.21,0.33,0.31,0.32
124.79,-0.00,-0.26,-0.02,-0.27,0.27,0.28,0.16,0.27,0.25,0.26
126.03,-0.04,-0.24,-0.05,-0.24,0.24,0.24,0.11,0.20,0.19,0.20
127.29,-0.06,-0.20,-0.09,-0.22,0.22,0.20,0.06,0.15,0.13,0.14
128.57,-0.09,-0.16,-0.12,-0.19,0.19,0.15,0.01,0.10,0.08,0.07
129.85,-0.14,-0.16,-0.15,-0.17,0.17,0.11,-0.03,0.03,0.02,0.02
131.15,-0.19,-0.15,-0.18,-0.14,0.14,0.07,-0.07,-0.05,-0.04,-0.04
132.46,-0.22,-0.13,-0.20,-0.12,0.12,0.02,-0.12,-0.11,-0.09,-0.09
133.79,-0.25,-0.12,-0.22,-0.08,0.08,-0.02,-0.16,-0.17,-0.14,-0.14
135.12,-0.26,-0.07,-0.23,-0.04,0.04,-0.07,-0.20,-0.22,-0.19,-0.19
136.48,-0.26,-0.03,-0.24,0.00,-0.00,-0.11,-0.24,-0.27,-0.24,-0.24
137.84,-0.25,0.04,-0.23,0.06,-0.06,-0.15,-0.28,-0.31,-0.29,-0.29
139.22,-0.24,0.10,-0.22,0.12,-0.12,-0.20,-0.32,-0.36,-0.34,-0.34
140.61,-0.21,0.18,-0.19,0.19,-0.19,-0.24,-0.35,-0.40,-0.38,-0.40
142.02,-0.16,0.26,-0.16,0.27,-0.27,-0.29,-0.39,-0.43,-0.43,-0.43
143.44,-0.13,0.33,-0.12,0.35,-0.35,-0.33,-0.43,-0.49,-0.47,-0.47
144.87,-0.08,0.43,-0.07,0.44,-0.44,-0.38,-0.47,-0.53,-0.52,-0.52
146.32,-0.03,0.53,-0.02,0.54,-0.54,-0.42,-0.50,-0.58,-0.57,-0.57
147.78,0.04,0.64,0.03,0.64,-0.64,-0.47,-0.54,-0.60,-0.61,-0.60
149.26,0.09,0.74,0.08,0.74,-0.74,-0.51,-0.58,-0.66,-0.66,-0.65
150.75,0.15,0.86,0.13,0.84,-0.84,-0.56,-0.61,-0.69,-0.71,-0.71
152.26,0.20,0.96,0.18,0.94,-0.94,-0.60,-0.65,-0.74,-0.76,-0.76
153.78,0.25,1.05,0.23,1.03,-1.03,-0.65,-0.69,-0.79,-0.81,-0.80
155.32,0.29,1.15,0.27,1.12,-1.12,-0.70,-0.73,-0.84,-0.86,-0.86
156.88,0.33,1.23,0.30,1.21,-1.21,-0.74,-0.77,-0.88,-0.91,-0.91
158.44,0.34,1.29,0.33,1.29,-1.29,-0.79,-0.81,-0.96,-0.96,-0.96
160.03,0.37,1.38,0.36,1.37,-1.37,-0.84,-0.85,-1.01,-1.01,-1.02
161.63,0.39,1.46,0.38,1.45,-1.45,-0.89,-0.89,-1.06,-1.06,-1.07
163.24,0.40,1.52,0.40,1.51,-1.51,-0.93,-0.94,-1.12,-1.12,-1.12
164.88,0.41,1.58,0.41,1.58,-1.58,-0.98,-0.98,-1.17,-1.17,-1.17
166.53,0.41,1.63,0.42,1.64,-1.64,-1.03,-1.03,-1.24,-1.23,-1.22
168.19,0.41,1.69,0.42,1.70,-1.70,-1.08,-1.08,-1.29,-1.28,-1.28
169.87,0.41,1.74,0.42,1.76,-1.76,-1.13,-1.12,-1.35,-1.34,-1.33
171.57,0.41,1.79,0.41,1.81,-1.81,-1.18,-1.17,-1.40,-1.39,-1.39
173.29,0.41,1.85,0.41,1.86,-1.86,-1.23,-1.22,-1.45,-1.45,-1.45
175.02,0.41,1.91,0.40,1.91,-1.91,-1.28,-1.28,-1.50,-1.51,-1.50
176.77,0.40,1.97,0.38,1.95,-1.95,-1.33,-1.33,-1.55,-1.57,-1.57
178.54,0.38,2.01,0.36,1.99,-1.99,-1.38,-1.38,-1.61,-1.63,-1.63
180.32,0.36,2.04,0.34,2.03,-2.03,-1.43,-1.44,-1.67,-1.69,-1.69
182.13,0.34,2.08,0.32,2.07,-2.07,-1.49,-1.50,-1.73,-1.75,-1.75
183.95,0.30,2.11,0.29,2.10,-2.10,-1.54,-1.56,-1.81,-1.81,-1.81
185.79,0.26,2.13,0.26,2.14,-2.14,-1.59,-1.62,-1.88,-1.87,-1.87
187.65,0.24,2.18,0.24,2.17,-2.17,-1.64,-1.68,-1.93,-1.93,-1.94
189.52,0.20,2.20,0.21,2.20,-2.20,-1.70,-1.74,-2.01,-1.99,-2.00
191.42,0.17,2.22,0.18,2.23,-2.23,-1.75,-1.80,-2.07,-2.05,-2.05
193.33,0.14,2.24,0.16,2.27,-2.27,-1.80,-1.87,-2.13,-2.11,-2.11
195.27,0.12,2.27,0.14,2.30,-2.30,-1.86,-1.93,-2.19,-2.17,-2.16
197.22,0.10,2.32,0.12,2.33,-2.33,-1.91,-2.00,-2.24,-2.22,-2.22
199.19,0.08,2.36,0.09,2.37,-2.37,-1.97,-2.07,-2.29,-2.27,-2.28
201.18,0.07,2.40,0.07,2.40,-2.40,-2.02,-2.13,-2.33,-2.33,-2.33
203.19,0.06,2.43,0.05,2.43,-2.43,-2.07,-2.20,-2.37,-2.38,-2.37
205.23,0.05,2.48,0.03,2.45,-2.45,-2.13,-2.27,-2.41,-2.43,-2.43
207.28,0.04,2.49,0.00,2.48,-2.48,-2.18,-2.34,-2.44,-2.47,-2.46
209.35,0.02,2.53,-0.02,2.49,-2.49,-2.24,-2.41,-2.48,-2.52,-2.52
211.44,-0.01,2.56,-0.05,2.51,-2.51,-2.29,-2.48,-2.53,-2.56,-2.57
213.56,-0.04,2.57,-0.08,2.53,-2.53,-2.34,-2.54,-2.57,-2.61,-2.61
215.69,-0.09,2.54,-0.10,2.55,-2.55,-2.40,-2.61,-2.64,-2.65,-2.64
217.85,-0.14,2.54,-0.12,2.56,-2.56,-2.45,-2.68,-2.70,-2.68,-2.68
220.03,-0.16,2.56,-0.14,2.58,-2.58,-2.50,-2.74,-2.74,-2.72,-2.73
222.23,-0.18,2.58,-0.16,2.59,-2.59,-2.55,-2.80,-2.78,-2.75,-2.76
224.45,-0.20,2.58,-0.17,2.62,-2.62,-2.60,-2.86,-2.82,-2.78,-2.79
226.70,-0.20,2.61,-0.17,2.64,-2.64,-2.65,-2.92,-2.84,-2.81,-2.81
228.96,-0.20,2.64,-0.17,2.67,-2.67,-2.70,-2.98,-2.87,-2.84,-2.84
231.25,-0.18,2.67,-0.16,2.70,-2.70,-2.75,-3.03,-2.89,-2.86,-2.85
233.57,-0.16,2.71,-0.14,2.74,-2.74,-2.80,-3.08,-2.90,-2.88,-2.88
235.90,-0.12,2.77,-0.12,2.77,-2.77,-2.84,-3.12,-2.90,-2.89,-2.90
238.26,-0.09,2.82,-0.10,2.81,-2.81,-2.89,-3.16,-2.90,-2.91,-2.91
240.64,-0.05,2.87,-0.07,2.85,-2.85,-2.93,-3.20,-2.90,-2.92,-2.92
243.05,-0.01,2.91,-0.04,2.88,-2.88,-2.97,-3.23,-2.89,-2.92,-2.92
245.48,0.02,2.95,-0.02,2.91,-2.91,-3.01,-3.26,-2.89,-2.93,-2.93
247.93,0.05,2.98,0.00,2.93,-2.93,-3.05,-3.29,-2.89,-2.93,-2.93
250.41,0.06,3.00,0.02,2.95,-2.95,-3.09,-3.31,-2.90,-2.93,-2.94
252.92,0.07,3.00,0.04,2.97,-2.97,-3.12,-3.32,-2.90,-2.93,-2.93
255.45,0.07,2.98,0.06,2.98,-2.98,-3.15,-3.33,-2.92,-2.93,-2.92
258.00,0.07,2.98,0.08,2.99,-2.99,-3.18,-3.34,-2.93,-2.92,-2.92
260.58,0.07,2.98,0.09,3.00,-3.00,-3.21,-3.34,-2.94,-2.91,-2.92
263.19,0.08,2.98,0.11,3.01,-3.01,-3.24,-3.34,-2.93,-2.90,-2.90
265.82,0.10,3.00,0.13,3.02,-3.02,-3.26,-3.33,-2.92,-2.89,-2.90
268.48,0.12,2.99,0.15,3.03,-3.03,-3.29,-3.32,-2.91,-2.88,-2.88
271.16,0.15,3.01,0.17,3.04,-3.04,-3.31,-3.31,-2.90,-2.87,-2.86
273.87,0.20,3.06,0.20,3.06,-3.06,-3.32,-3.29,-2.86,-2.86,-2.86
276.61,0.23,3.06,0.22,3.07,-3.07,-3.34,-3.28,-2.85,-2.85,-2.84
279.38,0.25,3.08,0.25,3.09,-3.09,-3.35,-3.26,-2.84,-2.83,-2.83
282.17,0.29,3.11,0.28,3.10,-3.10,-3.36,-3.23,-2.82,-2.82,-2.82
284.99,0.32,3.12,0.31,3.12,-3.12,-3.37,-3.21,-2.80,-2.81,-2.81
287.84,0.36,3.16,0.33,3.13,-3.13,-3.37,-3.18,-2.77,-2.80,-2.80
290.72,0.38,3.16,0.35,3.14,-3.14,-3.38,-3.16,-2.76,-2.78,-2.79
293.63,0.40,3.17,0.37,3.14,-3.14,-3.38,-3.13,-2.75,-2.77,-2.77
296.57,0.41,3.16,0.38,3.14,-3.14,-3.37,-3.10,-2.74,-2.76,-2.76
299.53,0.41,3.16,0.39,3.14,-3.14,-3.37,-3.08,-2.74,-2.75,-2.75
302.53,0.41,3.15,0.40,3.14,-3.14,-3.36,-3.05,-2.73,-2.74,-2.75
305.55,0.40,3.12,0.40,3.13,-3.13,-3.35,-3.02,-2.73,-2.73,-2.72
308.61,0.39,3.10,0.40,3.12,-3.12,-3.34,-3.00,-2.73,-2.72,-2.72
311.69,0.39,3.10,0.40,3.11,-3.11,-3.33,-2.97,-2.72,-2.71,-2.71
314.81,0.39,3.07,0.40,3.10,-3.10,-3.32,-2.95,-2.71,-2.70,-2.68
317.96,0.39,3.07,0.39,3.08,-3.08,-3.30,-2.92,-2.70,-2.69,-2.69
321.14,0.39,3.07,0.39,3.08,-3.08,-3.28,-2.90,-2.69,-2.68,-2.68
324.35,0.39,3.07,0.39,3.07,-3.07,-3.26,-2.88,-2.68,-2.68,-2.69
327.59,0.39,3.05,0.39,3.07,-3.07,-3.24,-2.86,-2.68,-2.67,-2.67
330.87,0.39,3.06,0.39,3.06,-3.06,-3.22,-2.85,-2.68,-2.67,-2.67
334.18,0.39,3.06,0.40,3.06,-3.06,-3.20,-2.83,-2.68,-2.67,-2.67
337.52,0.39,3.05,0.40,3.07,-3.07,-3.17,-2.82,-2.68,-2.67,-2.67
340.90,0.40,3.06,0.40,3.07,-3.07,-3.15,-2.81,-2.67,-2.67,-2.66
344.30,0.40,3.06,0.40,3.07,-3.07,-3.12,-2.80,-2.67,-2.67,-2.66
347.75,0.41,3.07,0.40,3.07,-3.07,-3.09,-2.80,-2.66,-2.67,-2.67
351.23,0.41,3.08,0.39,3.06,-3.06,-3.06,-2.80,-2.66,-2.67,-2.67
354.74,0.41,3.08,0.38,3.06,-3.06,-3.04,-2.79,-2.65,-2.68,-2.67
358.28,0.39,3.07,0.37,3.05,-3.05,-3.01,-2.80,-2.67,-2.68,-2.68
361.87,0.38,3.06,0.36,3.04,-3.04,-2.98,-2.80,-2.67,-2.69,-2.69
365.49,0.35,3.03,0.34,3.03,-3.03,-2.95,-2.81,-2.69,-2.69,-2.69
369.14,0.33,3.03,0.32,3.02,-3.02,-2.92,-2.81,-2.69,-2.70,-2.70
372.83,0.30,3.00,0.30,3.00,-3.00,-2.89,-2.82,-2.71,-2.71,-2.70
376.56,0.26,2.97,0.27,2.98,-2.98,-2.86,-2.83,-2.73,-2.71,-2.71
380.33,0.24,2.95,0.24,2.96,-2.96,-2.83,-2.85,-2.72,-2.72,-2.72
384.13,0.21,2.93,0.21,2.94,-2.94,-2.80,-2.87,-2.73,-2.73,-2.73
387.97,0.18,2.92,0.17,2.91,-2.91,-2.77,-2.88,-2.73,-2.74,-2.74
391.85,0.15,2.90,0.14,2.88,-2.88,-2.75,-2.90,-2.74,-2.74,-2.75
395.77,0.11,2.85,0.11,2.86,-2.86,-2.72,-2.92,-2.75,-2.75,-2.74
399.73,0.08,2.83,0.07,2.83,-2.83,-2.69,-2.95,-2.75,-2.76,-2.76
403.72,0.04,2.80,0.04,2.80,-2.80,-2.67,-2.97,-2.77,-2.76,-2.77
407.76,-0.00,2.77,0.01,2.78,-2.78,-2.64,-3.00,-2.78,-2.77,-2.78
411.84,-0.03,2.74,-0.03,2.75,-2.75,-2.62,-3.02,-2.78,-2.77,-2.77
415.96,-0.05,2.73,-0.06,2.72,-2.72,-2.59,-3.05,-2.77,-2.78,-2.78
420.12,-0.08,2.70,-0.09,2.69,-2.69,-2.57,-3.08,-2.78,-2.78,-2.78
424.32,-0.11,2.67,-0.12,2.67,-2.67,-2.55,-3.11,-2.78,-2.79,-2.78
428.56,-0.14,2.65,-0.15,2.64,-2.64,-2.53,-3.14,-2.78,-2.79,-2.79
432.85,-0.17,2.62,-0.18,2.61,-2.61,-2.51,-3.16,-2.79,-2.79,-2.80
437.18,-0.20,2.59,-0.20,2.59,-2.59,-2.49,-3.19,-2.79,-2.79,-2.80
441.55,-0.22,2.56,-0.22,2.57,-2.57,-2.47,-3.22,-2.79,-2.79,-2.79
445.96,-0.24,2.55,-0.24,2.55,-2.55,-2.46,-3.25,-2.79,-2.79,-2.79
450.42,-0.27,2.53,-0.26,2.53,-2.53,-2.44,-3.27,-2.81,-2.79,-2.80
