frequency,raw,error,smoothed,error_smoothed,equalization,parametric_eq,fixed_band_eq,equalized_raw,equalized_smoothed,target
20.00,-17.88,-20.17,-17.88,-20.17,20.17,17.64,5.68,2.29,2.29,2.29
20.20,-17.74,-20.07,-17.74,-20.07,20.07,17.60,5.82,2.33,2.33,2.33
20.40,-17.59,-19.96,-17.60,-19.97,19.97,17.55,5.96,2.38,2.37,2.37
20.61,-17.46,-19.85,-17.46,-19.86,19.86,17.51,6.11,2.41,2.41,2.40
20.81,-17.31,-19.75,-17.31,-19.75,19.75,17.46,6.26,2.44,2.44,2.44
21.02,-17.17,-19.65,-17.17,-19.64,19.64,17.41,6.41,2.46,2.47,2.48
21.23,-17.02,-19.52,-17.03,-19.53,19.52,17.36,6.57,2.50,2.49,2.50
21.44,-16.88,-19.40,-16.88,-19.40,19.40,17.31,6.74,2.52,2.52,2.52
21.66,-16.74,-19.27,-16.73,-19.27,19.27,17.26,6.90,2.54,2.54,2.54
21.87,-16.58,-19.13,-16.59,-19.14,19.14,17.21,7.08,2.56,2.55,2.55
22.09,-16.44,-19.01,-16.44,-19.01,19.01,17.16,7.25,2.57,2.57,2.57
22.31,-16.29,-18.87,-16.29,-18.87,18.87,17.11,7.43,2.58,2.58,2.58
22.54,-16.15,-18.73,-16.14,-18.73,18.73,17.06,7.62,2.59,2.59,2.59
22.76,-15.99,-18.59,-16.00,-18.59,18.59,17.00,7.81,2.60,2.60,2.60
22.99,-15.85,-18.45,-15.85,-18.45,18.45,16.94,8.00,2.60,2.60,2.60
23.22,-15.70,-18.31,-15.70,-18.31,18.32,16.89,8.21,2.61,2.61,2.61
23.45,-15.55,-18.17,-15.56,-18.17,18.18,16.83,8.41,2.62,2.62,2.62
23.69,-15.41,-18.03,-15.40,-18.03,18.04,16.77,8.63,2.63,2.63,2.63
23.92,-15.25,-17.89,-15.25,-17.90,17.90,16.71,8.84,2.64,2.64,2.64
24.16,-15.10,-17.76,-15.10,-17.76,17.76,16.65,9.07,2.65,2.65,2.66
24.40,-14.95,-17.63,-14.95,-17.62,17.62,16.59,9.29,2.67,2.66,2.68
24.65,-14.80,-17.47,-14.80,-17.48,17.48,16.53,9.53,2.67,2.67,2.67
24.89,-14.65,-17.33,-14.65,-17.33,17.34,16.46,9.76,2.69,2.68,2.68
25.14,-14.50,-17.19,-14.50,-17.19,17.20,16.40,10.01,2.69,2.69,2.69
25.39,-14.35,-17.05,-14.35,-17.05,17.05,16.33,10.25,2.70,2.70,2.70
25.65,-14.20,-16.92,-14.20,-16.92,16.91,16.26,10.51,2.71,2.71,2.72
25.91,-14.06,-16.78,-14.05,-16.78,16.78,16.20,10.76,2.72,2.72,2.72
26.16,-13.90,-16.63,-13.90,-16.63,16.64,16.13,11.02,2.73,2.73,2.73
26.43,-13.76,-16.49,-13.75,-16.49,16.50,16.05,11.29,2.74,2.74,2.74
26.69,-13.60,-16.35,-13.60,-16.36,16.36,15.98,11.55,2.75,2.75,2.75
26.96,-13.46,-16.22,-13.46,-16.22,16.22,15.91,11.82,2.76,2.76,2.77
27.23,-13.31,-16.08,-13.30,-16.08,16.07,15.83,12.08,2.77,2.77,2.78
27.50,-13.15,-15.93,-13.15,-15.93,15.93,15.76,12.35,2.78,2.78,2.78
27.77,-13.00,-15.78,-13.00,-15.79,15.79,15.68,12.61,2.79,2.79,2.78
28.05,-12.85,-15.65,-12.86,-15.65,15.65,15.60,12.87,2.80,2.80,2.80
28.33,-12.71,-15.51,-12.71,-15.51,15.51,15.52,13.11,2.80,2.80,2.80
28.62,-12.57,-15.37,-12.56,-15.37,15.37,15.44,13.36,2.80,2.81,2.81
28.90,-12.41,-15.23,-12.42,-15.23,15.23,15.36,13.58,2.82,2.82,2.82
29.19,-12.26,-15.08,-12.27,-15.09,15.09,15.28,13.79,2.83,2.83,2.82
29.48,-12.12,-14.97,-12.12,-14.96,14.96,15.19,13.98,2.83,2.84,2.85
29.78,-11.98,-14.81,-11.97,-14.82,14.82,15.10,14.16,2.85,2.85,2.84
30.08,-11.83,-14.67,-11.83,-14.68,14.68,15.01,14.30,2.86,2.85,2.85
30.38,-11.70,-14.54,-11.69,-14.55,14.55,14.93,14.43,2.85,2.86,2.85
30.68,-11.55,-14.42,-11.55,-14.42,14.41,14.83,14.51,2.86,2.86,2.87
30.99,-11.42,-14.28,-11.41,-14.28,14.27,14.74,14.58,2.86,2.86,2.87
31.30,-11.27,-14.13,-11.27,-14.14,14.14,14.65,14.60,2.87,2.87,2.87
31.61,-11.12,-14.00,-11.12,-14.00,14.00,14.55,14.60,2.88,2.88,2.88
31.93,-10.98,-13.86,-10.98,-13.86,13.86,14.45,14.55,2.89,2.89,2.89
32.24,-10.83,-13.72,-10.83,-13.73,13.73,14.35,14.49,2.90,2.90,2.89
32.57,-10.69,-13.59,-10.69,-13.59,13.59,14.25,14.39,2.91,2.91,2.91
32.89,-10.54,-13.45,-10.54,-13.45,13.46,14.15,14.27,2.91,2.91,2.91
33.22,-10.40,-13.32,-10.40,-13.32,13.32,14.05,14.12,2.92,2.92,2.92
33.55,-10.26,-13.19,-10.26,-13.19,13.19,13.94,13.96,2.93,2.93,2.93
33.89,-10.12,-13.06,-10.13,-13.06,13.06,13.83,13.77,2.94,2.94,2.94
34.23,-9.99,-12.93,-9.99,-12.93,12.93,13.72,13.58,2.94,2.94,2.94
34.57,-9.86,-12.81,-9.86,-12.81,12.80,13.61,13.36,2.94,2.94,2.95
34.92,-9.73,-12.67,-9.73,-12.68,12.67,13.50,13.15,2.95,2.95,2.95
35.27,-9.60,-12.55,-9.59,-12.55,12.55,13.39,12.92,2.95,2.96,2.96
35.62,-9.45,-12.41,-9.46,-12.42,12.42,13.27,12.70,2.97,2.96,2.96
35.97,-9.32,-12.28,-9.33,-12.29,12.29,13.15,12.46,2.97,2.97,2.96
36.33,-9.20,-12.17,-9.20,-12.16,12.17,13.03,12.23,2.97,2.97,2.97
36.70,-9.08,-12.04,-9.08,-12.05,12.05,12.91,12.00,2.96,2.97,2.96
37.06,-8.96,-11.93,-8.96,-11.93,11.93,12.79,11.78,2.97,2.97,2.97
37.43,-8.84,-11.81,-8.84,-11.81,11.81,12.66,11.55,2.97,2.97,2.97
37.81,-8.72,-11.69,-8.72,-11.69,11.69,12.53,11.33,2.97,2.97,2.97
38.19,-8.60,-11.57,-8.61,-11.57,11.57,12.40,11.11,2.97,2.96,2.97
38.57,-8.49,-11.45,-8.49,-11.45,11.45,12.27,10.90,2.96,2.96,2.96
38.95,-8.37,-11.33,-8.37,-11.33,11.33,12.14,10.70,2.96,2.96,2.96
39.34,-8.25,-11.20,-8.25,-11.21,11.21,12.00,10.49,2.95,2.95,2.95
39.74,-8.13,-11.08,-8.13,-11.08,11.08,11.87,10.30,2.95,2.95,2.95
40.14,-8.02,-10.96,-8.01,-10.96,10.96,11.73,10.11,2.95,2.95,2.95
40.54,-7.89,-10.84,-7.89,-10.84,10.84,11.59,9.93,2.95,2.95,2.95
40.94,-7.77,-10.71,-7.77,-10.72,10.72,11.44,9.75,2.95,2.95,2.94
41.35,-7.65,-10.59,-7.66,-10.60,10.60,11.30,9.58,2.95,2.94,2.94
41.76,-7.54,-10.48,-7.54,-10.48,10.48,11.15,9.42,2.94,2.94,2.94
42.18,-7.42,-10.36,-7.42,-10.36,10.36,11.00,9.26,2.93,2.94,2.94
42.60,-7.29,-10.23,-7.30,-10.24,10.23,10.85,9.11,2.94,2.94,2.94
43.03,-7.17,-10.11,-7.17,-10.11,10.11,10.70,8.97,2.93,2.93,2.94
43.46,-7.05,-9.99,-7.05,-9.99,9.98,10.55,8.83,2.93,2.93,2.94
43.90,-6.93,-9.85,-6.93,-9.86,9.85,10.39,8.69,2.92,2.92,2.92
44.33,-6.80,-9.72,-6.80,-9.72,9.72,10.24,8.57,2.92,2.92,2.92
44.78,-6.67,-9.58,-6.68,-9.59,9.59,10.08,8.45,2.92,2.92,2.91
45.23,-6.55,-9.46,-6.55,-9.46,9.46,9.92,8.33,2.91,2.91,2.91
45.68,-6.42,-9.33,-6.42,-9.33,9.33,9.76,8.22,2.91,2.91,2.91
46.13,-6.29,-9.19,-6.29,-9.20,9.20,9.59,8.12,2.91,2.90,2.90
46.60,-6.16,-9.07,-6.16,-9.06,9.06,9.43,8.02,2.90,2.90,2.91
47.06,-6.02,-8.92,-6.03,-8.93,8.93,9.26,7.92,2.91,2.90,2.90
47.53,-5.90,-8.79,-5.90,-8.80,8.80,9.09,7.83,2.89,2.90,2.89
48.01,-5.77,-8.67,-5.77,-8.66,8.66,8.93,7.75,2.89,2.89,2.90
48.49,-5.64,-8.52,-5.65,-8.53,8.52,8.76,7.67,2.88,2.87,2.88
48.97,-5.52,-8.38,-5.52,-8.38,8.38,8.59,7.60,2.86,2.86,2.86
49.46,-5.39,-8.24,-5.39,-8.24,8.24,8.42,7.52,2.85,2.85,2.85
49.96,-5.26,-8.09,-5.26,-8.10,8.10,8.25,7.46,2.83,2.83,2.83
50.46,-5.13,-7.96,-5.13,-7.96,7.95,8.08,7.39,2.82,2.82,2.83
50.96,-5.00,-7.81,-5.01,-7.81,7.81,7.90,7.33,2.81,2.81,2.81
51.47,-4.88,-7.66,-4.88,-7.67,7.67,7.73,7.28,2.79,2.79,2.78
51.99,-4.75,-7.52,-4.76,-7.52,7.53,7.56,7.22,2.77,2.77,2.77
52.51,-4.63,-7.39,-4.63,-7.39,7.39,7.39,7.17,2.76,2.76,2.76
53.03,-4.50,-7.24,-4.51,-7.25,7.25,7.22,7.12,2.75,2.74,2.74
53.56,-4.39,-7.12,-4.39,-7.12,7.12,7.05,7.07,2.72,2.72,2.73
54.10,-4.28,-6.98,-4.28,-6.99,6.99,6.88,7.02,2.70,2.70,2.70
54.64,-4.17,-6.86,-4.17,-6.85,6.85,6.71,6.98,2.68,2.68,2.69
55.18,-4.06,-6.72,-4.06,-6.72,6.72,6.54,6.93,2.66,2.66,2.66
55.74,-3.95,-6.58,-3.96,-6.60,6.60,6.38,6.88,2.64,2.64,2.63
56.29,-3.85,-6.48,-3.85,-6.47,6.47,6.21,6.84,2.62,2.62,2.63
56.86,-3.75,-6.35,-3.75,-6.35,6.35,6.05,6.79,2.59,2.60,2.60
57.42,-3.64,-6.21,-3.65,-6.22,6.22,5.89,6.74,2.58,2.58,2.57
58.00,-3.54,-6.09,-3.55,-6.10,6.10,5.74,6.69,2.56,2.55,2.55
58.58,-3.45,-5.98,-3.45,-5.98,5.98,5.58,6.63,2.53,2.53,2.53
59.16,-3.35,-5.86,-3.35,-5.86,5.86,5.43,6.58,2.50,2.50,2.51
59.76,-3.25,-5.74,-3.25,-5.74,5.73,5.28,6.52,2.48,2.48,2.49
60.35,-3.15,-5.61,-3.15,-5.61,5.61,5.14,6.46,2.45,2.45,2.46
60.96,-3.05,-5.48,-3.06,-5.48,5.48,5.00,6.39,2.43,2.43,2.43
61.57,-2.96,-5.34,-2.96,-5.35,5.35,4.86,6.33,2.39,2.39,2.38
62.18,-2.87,-5.21,-2.88,-5.22,5.23,4.72,6.25,2.35,2.35,2.34
62.80,-2.79,-5.11,-2.79,-5.10,5.10,4.59,6.18,2.30,2.31,2.32
63.43,-2.70,-4.97,-2.70,-4.97,4.97,4.47,6.09,2.27,2.27,2.27
64.07,-2.61,-4.84,-2.61,-4.85,4.84,4.35,6.01,2.23,2.23,2.23
64.71,-2.51,-4.71,-2.52,-4.71,4.72,4.23,5.92,2.20,2.20,2.20
65.35,-2.42,-4.58,-2.43,-4.59,4.59,4.11,5.83,2.17,2.16,2.16
66.01,-2.34,-4.46,-2.34,-4.46,4.47,4.00,5.73,2.12,2.13,2.12
66.67,-2.25,-4.34,-2.26,-4.34,4.34,3.90,5.63,2.09,2.08,2.09
67.33,-2.17,-4.22,-2.17,-4.22,4.22,3.80,5.53,2.04,2.04,2.05
68.01,-2.09,-4.10,-2.09,-4.10,4.09,3.70,5.43,2.00,2.00,2.01
68.69,-2.00,-3.97,-2.01,-3.97,3.97,3.61,5.32,1.97,1.97,1.97
69.37,-1.92,-3.85,-1.92,-3.85,3.86,3.52,5.21,1.93,1.94,1.93
70.07,-1.84,-3.73,-1.85,-3.74,3.74,3.43,5.09,1.90,1.90,1.89
70.77,-1.77,-3.62,-1.78,-3.63,3.63,3.35,4.98,1.86,1.85,1.85
71.48,-1.71,-3.53,-1.71,-3.52,3.52,3.27,4.86,1.81,1.81,1.82
72.19,-1.64,-3.41,-1.64,-3.42,3.41,3.20,4.75,1.77,1.77,1.77
72.91,-1.57,-3.31,-1.58,-3.32,3.31,3.13,4.63,1.74,1.73,1.74
73.64,-1.51,-3.21,-1.51,-3.21,3.21,3.06,4.51,1.70,1.70,1.70
74.38,-1.45,-3.12,-1.45,-3.11,3.12,2.99,4.39,1.66,1.67,1.67
75.12,-1.38,-3.01,-1.39,-3.02,3.02,2.93,4.27,1.64,1.63,1.63
75.87,-1.33,-2.93,-1.33,-2.93,2.93,2.87,4.15,1.60,1.60,1.60
76.63,-1.28,-2.85,-1.28,-2.85,2.85,2.81,4.03,1.57,1.57,1.57
77.40,-1.23,-2.77,-1.23,-2.77,2.77,2.75,3.92,1.54,1.54,1.54
78.17,-1.18,-2.69,-1.19,-2.69,2.70,2.70,3.80,1.52,1.51,1.51
78.95,-1.14,-2.62,-1.14,-2.63,2.63,2.64,3.68,1.49,1.49,1.48
79.74,-1.10,-2.56,-1.11,-2.57,2.57,2.59,3.57,1.46,1.46,1.46
80.54,-1.07,-2.51,-1.07,-2.51,2.50,2.54,3.45,1.43,1.43,1.44
81.35,-1.04,-2.45,-1.04,-2.45,2.44,2.49,3.34,1.40,1.40,1.41
82.16,-1.00,-2.38,-1.00,-2.39,2.38,2.44,3.23,1.38,1.38,1.38
82.98,-0.96,-2.33,-0.96,-2.32,2.32,2.40,3.12,1.36,1.36,1.37
83.81,-0.92,-2.26,-0.92,-2.26,2.26,2.35,3.01,1.34,1.34,1.34
84.65,-0.88,-2.19,-0.89,-2.20,2.20,2.30,2.91,1.32,1.32,1.31
85.50,-0.85,-2.15,-0.85,-2.14,2.15,2.26,2.80,1.29,1.30,1.30
86.35,-0.81,-2.09,-0.81,-2.09,2.09,2.21,2.70,1.28,1.28,1.28
87.22,-0.77,-2.03,-0.78,-2.03,2.04,2.17,2.60,1.26,1.26,1.26
88.09,-0.74,-1.98,-0.74,-1.98,1.99,2.12,2.49,1.24,1.25,1.24
88.97,-0.70,-1.92,-0.71,-1.93,1.94,2.07,2.40,1.24,1.23,1.22
89.86,-0.69,-1.90,-0.69,-1.89,1.90,2.03,2.30,1.20,1.21,1.21
90.76,-0.67,-1.85,-0.68,-1.86,1.86,1.98,2.20,1.18,1.18,1.18
91.66,-0.66,-1.82,-0.66,-1.82,1.81,1.94,2.11,1.15,1.16,1.16
92.58,-0.63,-1.77,-0.63,-1.78,1.77,1.89,2.02,1.14,1.14,1.14
93.51,-0.60,-1.73,-0.61,-1.74,1.73,1.84,1.92,1.13,1.12,1.13
94.44,-0.58,-1.69,-0.58,-1.69,1.69,1.79,1.83,1.10,1.11,1.11
95.39,-0.55,-1.64,-0.55,-1.64,1.64,1.74,1.75,1.09,1.09,1.09
96.34,-0.52,-1.58,-0.53,-1.59,1.59,1.70,1.66,1.07,1.06,1.06
97.30,-0.50,-1.53,-0.50,-1.53,1.54,1.65,1.57,1.04,1.03,1.03
98.28,-0.48,-1.48,-0.48,-1.49,1.48,1.59,1.49,1.00,1.00,1.00
99.26,-0.45,-1.43,-0.45,-1.43,1.42,1.54,1.41,0.97,0.97,0.98
100.25,-0.42,-1.37,-0.41,-1.36,1.36,1.49,1.32,0.93,0.94,0.95
101.25,-0.36,-1.28,-0.37,-1.28,1.29,1.44,1.24,0.92,0.92,0.92
102.27,-0.31,-1.19,-0.32,-1.21,1.21,1.39,1.16,0.90,0.89,0.88
103.29,-0.28,-1.13,-0.28,-1.13,1.13,1.33,1.09,0.85,0.85,0.85
104.32,-0.24,-1.06,-0.24,-1.05,1.05,1.28,1.01,0.80,0.81,0.82
105.37,-0.19,-0.97,-0.19,-0.97,0.96,1.22,0.94,0.76,0.77,0.78
106.42,-0.13,-0.86,-0.14,-0.87,0.87,1.17,0.86,0.73,0.73,0.73
107.48,-0.08,-0.78,-0.08,-0.77,0.78,1.11,0.79,0.70,0.70,0.70
108.56,-0.03,-0.67,-0.04,-0.68,0.69,1.05,0.72,0.66,0.65,0.64
109.64,-0.00,-0.59,-0.01,-0.60,0.60,0.99,0.65,0.60,0.60,0.59
110.74,0.02,-0.52,0.02,-0.51,0.52,0.93,0.58,0.53,0.54,0.54
111.85,0.05,-0.44,0.04,-0.44,0.43,0.87,0.51,0.48,0.48,0.49
112.97,0.07,-0.35,0.06,-0.36,0.36,0.81,0.45,0.42,0.42,0.42
114.10,0.08,-0.29,0.08,-0.29,0.28,0.75,0.38,0.36,0.36,0.37
115.24,0.10,-0.21,0.09,-0.21,0.21,0.69,0.32,0.31,0.31,0.31
116.39,0.10,-0.14,0.10,-0.15,0.15,0.63,0.26,0.25,0.25,0.24
117.55,0.10,-0.08,0.10,-0.08,0.09,0.57,0.20,0.19,0.18,0.18
118.73,0.09,-0.03,0.09,-0.03,0.04,0.50,0.14,0.12,0.12,0.12
119.92,0.08,0.01,0.08,0.01,-0.01,0.44,0.09,0.06,0.07,0.07
121.12,0.07,0.06,0.07,0.06,-0.05,0.38,0.03,0.01,0.01,0.01
122.33,0.06,0.10,0.05,0.09,-0.09,0.31,-0.02,-0.03,-0.04,-0.04
123.55,0.03,0.12,0.03,0.12,-0.12,0.25,-0.07,-0.09,-0.09,-0.09
124.79,-0.00,0.14,-0.00,0.14,-0.14,0.18,-0.12,-0.14,-0.15,-0.14
126.03,-0.04,0.15,-0.04,0.16,-0.16,0.12,-0.17,-0.20,-0.19,-0.19
127.29,-0.06,0.18,-0.07,0.18,-0.17,0.05,-0.21,-0.23,-0.24,-0.24
128.57,-0.09,0.21,-0.10,0.19,-0.18,-0.01,-0.26,-0.27,-0.28,-0.30
129.85,-0.14,0.20,-0.14,0.20,-0.19,-0.08,-0.30,-0.33,-0.33,-0.34
131.15,-0.19,0.20,-0.19,0.20,-0.20,-0.14,-0.34,-0.39,-0.39,-0.39
132.46,-0.22,0.21,-0.23,0.20,-0.21,-0.21,-0.38,-0.44,-0.44,-0.43
133.79,-0.25,0.22,-0.25,0.22,-0.23,-0.28,-0.43,-0.49,-0.49,-0.47
135.12,-0.26,0.25,-0.26,0.25,-0.26,-0.34,-0.46,-0.52,-0.52,-0.51
136.48,-0.26,0.29,-0.27,0.29,-0.30,-0.41,-0.50,-0.56,-0.56,-0.55
137.84,-0.25,0.34,-0.26,0.34,-0.34,-0.47,-0.54,-0.59,-0.60,-0.59
139.22,-0.24,0.40,-0.24,0.40,-0.40,-0.54,-0.58,-0.64,-0.63,-0.64
140.61,-0.21,0.47,-0.21,0.46,-0.46,-0.61,-0.61,-0.67,-0.67,-0.68
142.02,-0.16,0.54,-0.17,0.54,-0.53,-0.67,-0.65,-0.70,-0.71,-0.70
143.44,-0.13,0.61,-0.13,0.61,-0.61,-0.74,-0.68,-0.75,-0.75,-0.74
144.87,-0.08,0.70,-0.08,0.70,-0.70,-0.80,-0.72,-0.78,-0.78,-0.78
146.32,-0.03,0.79,-0.03,0.79,-0.79,-0.87,-0.75,-0.83,-0.82,-0.82
147.78,0.04,0.89,0.03,0.88,-0.89,-0.93,-0.79,-0.85,-0.86,-0.85
149.26,0.09,0.97,0.09,0.98,-0.98,-0.99,-0.82,-0.89,-0.89,-0.88
150.75,0.15,1.09,0.15,1.08,-1.08,-1.06,-0.86,-0.93,-0.93,-0.94
152.26,0.20,1.18,0.20,1.17,-1.17,-1.12,-0.90,-0.97,-0.97,-0.98
153.78,0.25,1.26,0.25,1.27,-1.26,-1.18,-0.93,-1.01,-1.01,-1.01
155.32,0.29,1.36,0.29,1.35,-1.34,-1.24,-0.97,-1.06,-1.06,-1.07
156.88,0.33,1.43,0.32,1.42,-1.42,-1.31,-1.01,-1.10,-1.11,-1.10
158.44,0.34,1.49,0.34,1.50,-1.50,-1.37,-1.05,-1.16,-1.15,-1.15
160.03,0.37,1.57,0.37,1.57,-1.56,-1.43,-1.08,-1.20,-1.20,-1.20
161.63,0.39,1.64,0.38,1.63,-1.63,-1.48,-1.13,-1.24,-1.24,-1.25
163.24,0.40,1.69,0.40,1.69,-1.68,-1.54,-1.17,-1.29,-1.29,-1.29
164.88,0.41,1.74,0.40,1.74,-1.74,-1.60,-1.21,-1.33,-1.33,-1.33
166.53,0.41,1.79,0.41,1.79,-1.79,-1.66,-1.25,-1.38,-1.38,-1.38
168.19,0.41,1.84,0.41,1.84,-1.84,-1.71,-1.30,-1.44,-1.44,-1.43
169.87,0.41,1.89,0.41,1.88,-1.89,-1.77,-1.34,-1.49,-1.49,-1.48
171.57,0.41,1.93,0.41,1.93,-1.94,-1.82,-1.39,-1.54,-1.53,-1.52
173.29,0.41,1.99,0.41,1.99,-1.99,-1.88,-1.44,-1.58,-1.58,-1.58
175.02,0.41,2.04,0.40,2.04,-2.03,-1.93,-1.49,-1.63,-1.63,-1.63
176.77,0.40,2.09,0.39,2.08,-2.08,-1.98,-1.54,-1.68,-1.68,-1.69
178.54,0.38,2.12,0.38,2.12,-2.11,-2.03,-1.59,-1.74,-1.74,-1.74
180.32,0.36,2.16,0.36,2.16,-2.15,-2.08,-1.64,-1.79,-1.79,-1.80
182.13,0.34,2.19,0.33,2.18,-2.18,-2.13,-1.70,-1.84,-1.85,-1.85
183.95,0.30,2.21,0.30,2.21,-2.21,-2.18,-1.76,-1.91,-1.91,-1.91
185.79,0.26,2.22,0.26,2.23,-2.23,-2.23,-1.81,-1.98,-1.97,-1.96
187.65,0.24,2.27,0.23,2.25,-2.25,-2.27,-1.87,-2.02,-2.03,-2.03
189.52,0.20,2.28,0.20,2.28,-2.28,-2.32,-1.93,-2.08,-2.08,-2.08
191.42,0.17,2.30,0.17,2.30,-2.30,-2.36,-1.99,-2.14,-2.13,-2.13
193.33,0.14,2.32,0.14,2.32,-2.33,-2.40,-2.06,-2.19,-2.19,-2.18
195.27,0.12,2.35,0.11,2.35,-2.36,-2.44,-2.12,-2.24,-2.24,-2.23
197.22,0.10,2.39,0.09,2.38,-2.39,-2.48,-2.18,-2.29,-2.29,-2.29
199.19,0.08,2.42,0.08,2.42,-2.42,-2.52,-2.25,-2.34,-2.34,-2.34
201.18,0.07,2.46,0.07,2.45,-2.45,-2.56,-2.31,-2.39,-2.39,-2.39
203.19,0.06,2.48,0.06,2.48,-2.49,-2.60,-2.38,-2.43,-2.43,-2.42
205.23,0.05,2.53,0.05,2.52,-2.52,-2.64,-2.45,-2.47,-2.47,-2.48
207.28,0.04,2.54,0.03,2.55,-2.54,-2.67,-2.51,-2.51,-2.51,-2.50
209.35,0.02,2.58,0.02,2.58,-2.56,-2.70,-2.58,-2.54,-2.54,-2.56
211.44,-0.01,2.60,-0.01,2.59,-2.57,-2.74,-2.64,-2.59,-2.58,-2.61
213.56,-0.04,2.61,-0.05,2.59,-2.58,-2.77,-2.71,-2.62,-2.63,-2.65
215.69,-0.09,2.58,-0.09,2.59,-2.59,-2.80,-2.77,-2.68,-2.68,-2.67
217.85,-0.14,2.57,-0.13,2.58,-2.59,-2.83,-2.84,-2.73,-2.72,-2.71
220.03,-0.16,2.59,-0.17,2.58,-2.59,-2.86,-2.90,-2.76,-2.76,-2.75
222.23,-0.18,2.60,-0.19,2.59,-2.60,-2.89,-2.96,-2.78,-2.79,-2.78
224.45,-0.20,2.60,-0.20,2.61,-2.61,-2.91,-3.02,-2.81,-2.81,-2.80
226.70,-0.20,2.63,-0.21,2.63,-2.63,-2.94,-3.07,-2.83,-2.84,-2.83
228.96,-0.20,2.66,-0.20,2.65,-2.66,-2.96,-3.12,-2.86,-2.86,-2.86
231.25,-0.18,2.69,-0.18,2.69,-2.69,-2.99,-3.17,-2.88,-2.88,-2.87
233.57,-0.16,2.73,-0.16,2.73,-2.73,-3.01,-3.22,-2.90,-2.89,-2.89
235.90,-0.12,2.78,-0.13,2.77,-2.78,-3.03,-3.26,-2.90,-2.91,-2.90
238.26,-0.09,2.82,-0.09,2.82,-2.82,-3.05,-3.30,-2.92,-2.91,-2.91
240.64,-0.05,2.87,-0.05,2.87,-2.87,-3.07,-3.33,-2.92,-2.92,-2.92
243.05,-0.01,2.91,-0.02,2.91,-2.90,-3.09,-3.36,-2.92,-2.92,-2.92
245.48,0.02,2.95,0.02,2.95,-2.93,-3.11,-3.39,-2.92,-2.92,-2.93
247.93,0.05,2.98,0.04,2.97,-2.96,-3.13,-3.41,-2.91,-2.91,-2.93
250.41,0.06,2.99,0.06,2.99,-2.97,-3.14,-3.43,-2.91,-2.91,-2.93
252.92,0.07,2.99,0.07,2.99,-2.98,-3.16,-3.44,-2.91,-2.91,-2.92
255.45,0.07,2.98,0.07,2.98,-2.98,-3.17,-3.45,-2.91,-2.91,-2.91
258.00,0.07,2.97,0.07,2.97,-2.98,-3.19,-3.45,-2.91,-2.91,-2.90
260.58,0.07,2.97,0.07,2.97,-2.98,-3.20,-3.45,-2.91,-2.91,-2.90
263.19,0.08,2.97,0.08,2.97,-2.98,-3.21,-3.44,-2.90,-2.90,-2.89
265.82,0.10,2.98,0.09,2.97,-2.98,-3.22,-3.43,-2.88,-2.89,-2.88
268.48,0.12,2.98,0.12,2.98,-2.99,-3.23,-3.42,-2.87,-2.87,-2.86
271.16,0.15,2.99,0.15,3.00,-3.00,-3.24,-3.40,-2.86,-2.85,-2.84
273.87,0.20,3.04,0.19,3.02,-3.02,-3.25,-3.39,-2.82,-2.83,-2.84
276.61,0.23,3.04,0.22,3.04,-3.04,-3.26,-3.36,-2.81,-2.82,-2.81
279.38,0.25,3.06,0.25,3.06,-3.06,-3.27,-3.34,-2.82,-2.81,-2.81
282.17,0.29,3.08,0.28,3.08,-3.08,-3.28,-3.31,-2.80,-2.80,-2.79
284.99,0.32,3.10,0.32,3.10,-3.10,-3.28,-3.29,-2.79,-2.78,-2.78
287.84,0.36,3.13,0.35,3.12,-3.12,-3.29,-3.26,-2.76,-2.76,-2.77
290.72,0.38,3.14,0.38,3.13,-3.13,-3.30,-3.23,-2.75,-2.75,-2.76
293.63,0.40,3.14,0.40,3.14,-3.13,-3.30,-3.19,-2.73,-2.73,-2.74
296.57,0.41,3.13,0.40,3.13,-3.13,-3.31,-3.16,-2.72,-2.72,-2.72
299.53,0.41,3.13,0.41,3.12,-3.12,-3.31,-3.13,-2.71,-2.71,-2.72
302.53,0.41,3.12,0.40,3.11,-3.11,-3.31,-3.10,-2.70,-2.70,-2.71
305.55,0.40,3.09,0.40,3.09,-3.09,-3.32,-3.07,-2.70,-2.70,-2.69
308.61,0.39,3.07,0.39,3.07,-3.08,-3.32,-3.04,-2.69,-2.69,-2.68
311.69,0.39,3.06,0.39,3.05,-3.06,-3.32,-3.01,-2.67,-2.67,-2.67
314.81,0.39,3.03,0.39,3.04,-3.05,-3.32,-2.98,-2.66,-2.66,-2.64
317.96,0.39,3.04,0.39,3.03,-3.04,-3.32,-2.95,-2.65,-2.65,-2.65
321.14,0.39,3.03,0.39,3.03,-3.03,-3.33,-2.93,-2.64,-2.64,-2.64
324.35,0.39,3.03,0.39,3.03,-3.02,-3.33,-2.90,-2.63,-2.63,-2.64
327.59,0.39,3.02,0.39,3.02,-3.02,-3.33,-2.88,-2.63,-2.63,-2.63
330.87,0.39,3.02,0.39,3.02,-3.02,-3.33,-2.86,-2.63,-2.63,-2.63
334.18,0.39,3.02,0.39,3.01,-3.02,-3.33,-2.84,-2.63,-2.63,-2.63
337.52,0.39,3.01,0.39,3.01,-3.02,-3.33,-2.83,-2.63,-2.63,-2.62
340.90,0.40,3.02,0.39,3.01,-3.02,-3.32,-2.81,-2.62,-2.63,-2.62
344.30,0.40,3.02,0.40,3.02,-3.02,-3.32,-2.80,-2.63,-2.62,-2.62
347.75,0.41,3.03,0.41,3.02,-3.03,-3.32,-2.79,-2.62,-2.62,-2.62
351.23,0.41,3.03,0.41,3.03,-3.03,-3.32,-2.78,-2.62,-2.62,-2.62
354.74,0.41,3.03,0.40,3.03,-3.02,-3.32,-2.77,-2.62,-2.62,-2.62
358.28,0.39,3.03,0.39,3.02,-3.02,-3.32,-2.77,-2.63,-2.63,-2.64
361.87,0.38,3.02,0.37,3.01,-3.00,-3.31,-2.77,-2.63,-2.63,-2.64
365.49,0.35,2.99,0.35,3.00,-2.99,-3.31,-2.77,-2.64,-2.64,-2.64
369.14,0.33,2.98,0.32,2.97,-2.97,-3.31,-2.77,-2.65,-2.65,-2.65
372.83,0.30,2.95,0.29,2.95,-2.95,-3.30,-2.78,-2.66,-2.66,-2.65
376.56,0.26,2.92,0.26,2.93,-2.93,-3.30,-2.78,-2.68,-2.67,-2.66
380.33,0.24,2.91,0.23,2.90,-2.91,-3.30,-2.79,-2.67,-2.68,-2.67
384.13,0.21,2.89,0.21,2.89,-2.88,-3.29,-2.80,-2.68,-2.68,-2.68
387.97,0.18,2.87,0.18,2.87,-2.86,-3.29,-2.82,-2.68,-2.68,-2.69
391.85,0.15,2.85,0.14,2.84,-2.83,-3.29,-2.83,-2.69,-2.69,-2.70
395.77,0.11,2.80,0.11,2.81,-2.80,-3.28,-2.85,-2.70,-2.69,-2.69
399.73,0.08,2.78,0.07,2.78,-2.78,-3.28,-2.86,-2.70,-2.70,-2.70
403.72,0.04,2.75,0.03,2.74,-2.75,-3.27,-2.88,-2.71,-2.72,-2.71
407.76,-0.00,2.72,0.00,2.72,-2.72,-3.27,-2.90,-2.73,-2.72,-2.72
411.84,-0.03,2.68,-0.03,2.69,-2.69,-3.27,-2.92,-2.73,-2.73,-2.71
415.96,-0.05,2.68,-0.06,2.67,-2.67,-3.26,-2.95,-2.72,-2.73,-2.73
420.12,-0.08,2.65,-0.08,2.65,-2.64,-3.26,-2.97,-2.73,-2.73,-2.73
424.32,-0.11,2.62,-0.11,2.62,-2.62,-3.25,-2.99,-2.73,-2.73,-2.73
428.56,-0.14,2.60,-0.14,2.59,-2.59,-3.25,-3.02,-2.73,-2.73,-2.74
432.85,-0.17,2.57,-0.17,2.57,-2.56,-3.24,-3.04,-2.74,-2.74,-2.74
437.18,-0.20,2.54,-0.20,2.54,-2.54,-3.24,-3.06,-2.74,-2.74,-2.74
441.55,-0.22,2.51,-0.23,2.51,-2.51,-3.23,-3.09,-2.74,-2.74,-2.73
445.96,-0.24,2.49,-0.25,2.48,-2.49,-3.23,-3.11,-2.73,-2.74,-2.73
450.42,-0.27,2.47,-0.27,2.47,-2.47,-3.22,-3.13,-2.74,-2.74,-2.74
454.93,-0.28,2.45,-0.28,2.45,-2.45,-3.22,-3.15,-2.74,-2.73,-2.73
