frequency,raw,error,smoothed,error_smoothed,equalization,parametric_eq,fixed_band_eq,equalized_raw,equalized_smoothed,target
20.00,-1.84,-8.38,-1.84,-8.40,8.40,8.02,1.70,6.56,6.56,6.53
20.20,-1.65,-8.28,-1.65,-8.29,8.29,7.94,1.75,6.63,6.63,6.62
20.40,-1.46,-8.16,-1.46,-8.17,8.17,7.86,1.81,6.71,6.71,6.70
20.61,-1.28,-8.05,-1.27,-8.05,8.05,7.78,1.86,6.78,6.78,6.77
20.81,-1.08,-7.94,-1.09,-7.93,7.93,7.69,1.92,6.85,6.85,6.86
21.02,-0.89,-7.84,-0.90,-7.81,7.81,7.61,1.98,6.92,6.91,6.94
21.23,-0.70,-7.71,-0.71,-7.69,7.69,7.52,2.04,6.98,6.98,7.00
21.44,-0.52,-7.58,-0.52,-7.56,7.56,7.42,2.10,7.04,7.04,7.06
21.66,-0.34,-7.45,-0.33,-7.43,7.43,7.33,2.17,7.09,7.10,7.11
21.87,-0.14,-7.30,-0.14,-7.29,7.29,7.23,2.24,7.15,7.15,7.16
22.09,0.05,-7.16,0.05,-7.16,7.16,7.13,2.30,7.21,7.21,7.21
22.31,0.24,-7.02,0.24,-7.02,7.02,7.03,2.38,7.26,7.26,7.26
22.54,0.42,-6.88,0.43,-6.88,6.88,6.92,2.45,7.30,7.30,7.30
22.76,0.62,-6.72,0.62,-6.73,6.73,6.82,2.52,7.35,7.35,7.34
22.99,0.81,-6.57,0.80,-6.58,6.58,6.71,2.60,7.39,7.38,7.37
23.22,1.00,-6.42,0.99,-6.43,6.43,6.60,2.67,7.43,7.42,7.41
23.45,1.19,-6.26,1.18,-6.28,6.28,6.49,2.75,7.47,7.46,7.45
23.69,1.36,-6.13,1.37,-6.13,6.13,6.37,2.83,7.49,7.50,7.49
23.92,1.56,-5.97,1.56,-5.97,5.97,6.25,2.92,7.53,7.53,7.53
24.16,1.75,-5.83,1.75,-5.82,5.82,6.14,3.00,7.57,7.57,7.58
24.40,1.93,-5.68,1.93,-5.67,5.67,6.02,3.08,7.60,7.60,7.61
24.65,2.11,-5.52,2.12,-5.51,5.51,5.89,3.17,7.63,7.64,7.63
24.89,2.31,-5.35,2.31,-5.36,5.36,5.77,3.25,7.67,7.67,7.66
25.14,2.50,-5.20,2.49,-5.21,5.21,5.64,3.34,7.71,7.70,7.70
25.39,2.68,-5.05,2.68,-5.06,5.06,5.52,3.42,7.74,7.74,7.73
25.65,2.87,-4.91,2.86,-4.90,4.90,5.39,3.51,7.77,7.77,7.77
25.91,3.04,-4.75,3.05,-4.75,4.75,5.26,3.59,7.79,7.80,7.79
26.16,3.24,-4.58,3.23,-4.60,4.60,5.12,3.67,7.84,7.83,7.82
26.43,3.41,-4.45,3.41,-4.44,4.44,4.99,3.75,7.86,7.86,7.86
26.69,3.60,-4.30,3.60,-4.29,4.29,4.86,3.83,7.89,7.89,7.89
26.96,3.77,-4.15,3.78,-4.14,4.14,4.72,3.91,7.91,7.92,7.92
27.23,3.95,-4.00,3.96,-3.99,3.99,4.58,3.98,7.94,7.95,7.95
27.50,4.14,-3.85,4.14,-3.84,3.84,4.44,4.05,7.97,7.98,7.98
27.77,4.32,-3.68,4.32,-3.69,3.69,4.30,4.11,8.01,8.01,8.00
28.05,4.50,-3.54,4.50,-3.54,3.54,4.16,4.16,8.04,8.04,8.04
28.33,4.67,-3.39,4.67,-3.40,3.40,4.02,4.21,8.07,8.07,8.06
28.62,4.84,-3.25,4.84,-3.26,3.26,3.88,4.26,8.10,8.10,8.09
28.90,5.02,-3.11,5.01,-3.12,3.12,3.73,4.29,8.13,8.13,8.13
29.19,5.19,-2.97,5.18,-2.98,2.98,3.59,4.32,8.16,8.16,8.15
29.48,5.36,-2.84,5.35,-2.84,2.84,3.44,4.33,8.20,8.19,8.20
29.78,5.51,-2.70,5.51,-2.70,2.70,3.29,4.34,8.22,8.21,8.21
30.08,5.68,-2.56,5.67,-2.57,2.57,3.14,4.33,8.25,8.24,8.24
30.38,5.83,-2.44,5.83,-2.44,2.44,2.99,4.32,8.28,8.27,8.27
30.68,5.98,-2.33,5.98,-2.31,2.31,2.84,4.29,8.29,8.30,8.30
30.99,6.12,-2.20,6.13,-2.19,2.19,2.69,4.25,8.31,8.32,8.32
31.30,6.27,-2.07,6.28,-2.07,2.07,2.54,4.20,8.34,8.35,8.34
31.61,6.43,-1.95,6.43,-1.94,1.94,2.39,4.13,8.37,8.37,8.37
31.93,6.57,-1.82,6.57,-1.82,1.82,2.24,4.06,8.40,8.40,8.39
32.24,6.72,-1.69,6.71,-1.70,1.70,2.08,3.97,8.42,8.42,8.41
32.57,6.85,-1.59,6.85,-1.58,1.58,1.93,3.87,8.44,8.44,8.44
32.89,7.00,-1.46,6.99,-1.47,1.47,1.78,3.75,8.46,8.46,8.46
33.22,7.14,-1.35,7.13,-1.35,1.35,1.62,3.63,8.49,8.48,8.48
33.55,7.27,-1.23,7.26,-1.23,1.23,1.46,3.50,8.50,8.50,8.50
33.89,7.40,-1.12,7.40,-1.12,1.12,1.31,3.36,8.51,8.51,8.51
34.23,7.53,-1.01,7.53,-1.00,1.00,1.15,3.20,8.52,8.53,8.53
34.57,7.66,-0.89,7.66,-0.88,0.88,1.00,3.04,8.54,8.54,8.54
34.92,7.79,-0.76,7.79,-0.76,0.76,0.84,2.87,8.56,8.55,8.55
35.27,7.91,-0.66,7.92,-0.65,0.65,0.68,2.70,8.56,8.56,8.57
35.62,8.05,-0.52,8.04,-0.53,0.53,0.52,2.52,8.57,8.57,8.56
35.97,8.17,-0.40,8.17,-0.41,0.41,0.37,2.33,8.57,8.58,8.57
36.33,8.30,-0.29,8.29,-0.29,0.29,0.21,2.14,8.58,8.58,8.59
36.70,8.43,-0.16,8.42,-0.16,0.16,0.05,1.94,8.59,8.58,8.58
37.06,8.55,-0.03,8.54,-0.04,0.04,-0.11,1.74,8.59,8.58,8.58
37.43,8.67,0.09,8.67,0.08,-0.08,-0.27,1.53,8.58,8.58,8.58
37.81,8.80,0.21,8.79,0.21,-0.21,-0.43,1.33,8.58,8.58,8.58
38.19,8.92,0.33,8.92,0.34,-0.34,-0.59,1.11,8.58,8.58,8.58
38.57,9.05,0.46,9.05,0.47,-0.47,-0.74,0.90,8.57,8.58,8.58
38.95,9.18,0.60,9.18,0.60,-0.60,-0.90,0.69,8.57,8.57,8.58
39.34,9.31,0.75,9.31,0.74,-0.74,-1.06,0.47,8.57,8.57,8.56
39.74,9.44,0.87,9.44,0.88,-0.88,-1.22,0.25,8.56,8.57,8.56
40.14,9.56,1.01,9.57,1.02,-1.02,-1.38,0.03,8.55,8.56,8.55
40.54,9.70,1.15,9.71,1.16,-1.16,-1.54,-0.20,8.55,8.55,8.55
40.94,9.85,1.31,9.85,1.30,-1.30,-1.70,-0.42,8.55,8.55,8.54
41.35,9.99,1.44,9.99,1.45,-1.45,-1.86,-0.65,8.54,8.54,8.54
41.76,10.14,1.61,10.13,1.60,-1.60,-2.01,-0.87,8.54,8.53,8.53
42.18,10.28,1.76,10.27,1.75,-1.75,-2.17,-1.10,8.52,8.52,8.52
42.60,10.43,1.92,10.42,1.91,-1.91,-2.33,-1.33,8.52,8.51,8.51
43.03,10.57,2.05,10.57,2.07,-2.07,-2.49,-1.56,8.50,8.50,8.51
43.46,10.72,2.21,10.72,2.23,-2.23,-2.64,-1.80,8.49,8.49,8.50
43.90,10.85,2.37,10.87,2.39,-2.39,-2.80,-2.03,8.47,8.48,8.48
44.33,11.02,2.56,11.02,2.55,-2.55,-2.96,-2.27,8.47,8.47,8.46
44.78,11.18,2.72,11.18,2.71,-2.71,-3.11,-2.50,8.46,8.46,8.45
45.23,11.33,2.89,11.33,2.88,-2.88,-3.27,-2.74,8.45,8.45,8.44
45.68,11.50,3.06,11.49,3.05,-3.05,-3.42,-2.98,8.44,8.44,8.43
46.13,11.66,3.24,11.65,3.22,-3.22,-3.58,-3.22,8.43,8.43,8.42
46.60,11.81,3.39,11.82,3.40,-3.40,-3.73,-3.46,8.42,8.42,8.42
47.06,11.98,3.57,11.98,3.58,-3.58,-3.88,-3.71,8.40,8.41,8.41
47.53,12.15,3.75,12.15,3.75,-3.75,-4.04,-3.95,8.39,8.40,8.40
48.01,12.32,3.91,12.32,3.93,-3.93,-4.19,-4.20,8.38,8.39,8.40
48.49,12.50,4.10,12.50,4.11,-4.11,-4.34,-4.45,8.38,8.38,8.39
48.97,12.68,4.30,12.68,4.30,-4.30,-4.49,-4.70,8.38,8.38,8.38
49.46,12.86,4.50,12.85,4.48,-4.48,-4.64,-4.95,8.38,8.37,8.36
49.96,13.03,4.67,13.03,4.66,-4.66,-4.79,-5.21,8.36,8.37,8.35
50.46,13.21,4.85,13.21,4.85,-4.85,-4.94,-5.46,8.37,8.37,8.36
50.96,13.40,5.03,13.39,5.03,-5.03,-5.08,-5.71,8.37,8.36,8.36
51.47,13.58,5.22,13.58,5.22,-5.22,-5.23,-5.97,8.36,8.36,8.35
51.99,13.75,5.40,13.76,5.41,-5.41,-5.37,-6.22,8.35,8.35,8.35
52.51,13.94,5.59,13.95,5.60,-5.60,-5.52,-6.47,8.35,8.35,8.35
53.03,14.14,5.78,14.13,5.79,-5.79,-5.66,-6.73,8.35,8.34,8.35
53.56,14.32,5.96,14.31,5.98,-5.98,-5.80,-6.97,8.34,8.34,8.35
54.10,14.48,6.14,14.50,6.16,-6.16,-5.94,-7.22,8.32,8.33,8.34
54.64,14.68,6.34,14.68,6.35,-6.35,-6.08,-7.46,8.32,8.33,8.33
55.18,14.86,6.54,14.86,6.54,-6.54,-6.22,-7.70,8.32,8.32,8.32
55.74,15.03,6.73,15.04,6.73,-6.73,-6.35,-7.93,8.30,8.31,8.30
56.29,15.22,6.92,15.22,6.92,-6.92,-6.49,-8.16,8.30,8.30,8.30
56.86,15.39,7.11,15.39,7.10,-7.10,-6.62,-8.38,8.29,8.28,8.28
57.42,15.56,7.30,15.56,7.29,-7.29,-6.75,-8.59,8.27,8.27,8.26
58.00,15.73,7.47,15.72,7.47,-7.47,-6.88,-8.78,8.26,8.25,8.25
58.58,15.89,7.65,15.88,7.65,-7.65,-7.01,-8.97,8.24,8.23,8.23
59.16,16.04,7.82,16.03,7.82,-7.82,-7.13,-9.14,8.22,8.21,8.22
59.76,16.19,7.98,16.18,7.99,-7.99,-7.26,-9.30,8.19,8.19,8.20
60.35,16.33,8.16,16.32,8.16,-8.16,-7.38,-9.44,8.17,8.16,8.17
60.96,16.47,8.30,16.45,8.31,-8.31,-7.50,-9.56,8.15,8.14,8.16
61.57,16.59,8.47,16.58,8.46,-8.46,-7.62,-9.67,8.12,8.12,8.11
62.18,16.70,8.61,16.70,8.61,-8.61,-7.73,-9.76,8.09,8.09,8.08
62.80,16.81,8.74,16.81,8.74,-8.74,-7.85,-9.83,8.06,8.07,8.07
63.43,16.91,8.87,16.92,8.87,-8.87,-7.96,-9.89,8.04,8.05,8.03
64.07,17.02,9.00,17.02,8.99,-8.99,-8.07,-9.92,8.03,8.03,8.01
64.71,17.12,9.11,17.11,9.10,-9.10,-8.17,-9.94,8.02,8.01,8.00
65.35,17.20,9.21,17.19,9.20,-9.20,-8.28,-9.95,8.00,7.99,7.98
66.01,17.28,9.30,17.27,9.29,-9.29,-8.38,-9.94,7.98,7.98,7.97
66.67,17.35,9.38,17.34,9.38,-9.38,-8.48,-9.91,7.97,7.96,7.96
67.33,17.41,9.45,17.40,9.45,-9.45,-8.58,-9.88,7.95,7.95,7.95
68.01,17.47,9.52,17.46,9.52,-9.52,-8.67,-9.83,7.95,7.94,7.94
68.69,17.53,9.59,17.51,9.58,-9.58,-8.76,-9.77,7.95,7.94,7.93
69.37,17.57,9.63,17.56,9.63,-9.63,-8.85,-9.71,7.93,7.93,7.93
70.07,17.60,9.67,17.60,9.68,-9.68,-8.93,-9.64,7.91,7.92,7.92
70.77,17.64,9.71,17.64,9.73,-9.73,-9.02,-9.56,7.91,7.91,7.92
71.48,17.67,9.75,17.67,9.77,-9.77,-9.10,-9.48,7.90,7.90,7.91
72.19,17.70,9.80,17.70,9.81,-9.81,-9.17,-9.39,7.89,7.89,7.89
72.91,17.72,9.82,17.72,9.84,-9.84,-9.25,-9.31,7.87,7.88,7.89
73.64,17.73,9.85,17.74,9.88,-9.88,-9.32,-9.22,7.85,7.87,7.87
74.38,17.75,9.88,17.76,9.90,-9.90,-9.39,-9.14,7.84,7.86,7.86
75.12,17.77,9.92,17.77,9.93,-9.93,-9.45,-9.05,7.84,7.84,7.84
75.87,17.79,9.95,17.78,9.95,-9.95,-9.51,-8.97,7.84,7.83,7.83
76.63,17.80,9.97,17.79,9.97,-9.97,-9.57,-8.89,7.83,7.82,7.82
77.40,17.81,10.00,17.79,9.98,-9.98,-9.62,-8.82,7.82,7.81,7.80
78.17,17.81,10.02,17.79,9.99,-9.99,-9.68,-8.74,7.81,7.79,7.78
78.95,17.80,10.01,17.78,10.00,-10.00,-9.73,-8.68,7.80,7.78,7.78
79.74,17.79,10.01,17.77,10.00,-10.00,-9.77,-8.61,7.78,7.77,7.77
80.54,17.76,9.99,17.76,10.00,-10.00,-9.81,-8.55,7.76,7.77,7.76
81.35,17.74,9.98,17.75,9.99,-9.99,-9.85,-8.50,7.75,7.76,7.75
82.16,17.72,9.97,17.73,9.98,-9.98,-9.89,-8.45,7.74,7.75,7.74
82.98,17.70,9.94,17.71,9.96,-9.96,-9.92,-8.41,7.73,7.75,7.75
83.81,17.68,9.93,17.69,9.94,-9.94,-9.95,-8.37,7.73,7.75,7.74
84.65,17.67,9.93,17.66,9.92,-9.92,-9.98,-8.34,7.75,7.74,7.73
85.50,17.64,9.89,17.63,9.89,-9.89,-10.00,-8.31,7.74,7.74,7.74
86.35,17.61,9.86,17.60,9.86,-9.86,-10.02,-8.29,7.74,7.74,7.74
87.22,17.57,9.83,17.57,9.84,-9.84,-10.04,-8.28,7.73,7.73,7.73
88.09,17.55,9.81,17.53,9.81,-9.81,-10.06,-8.27,7.74,7.73,7.73
88.97,17.51,9.78,17.50,9.78,-9.78,-10.07,-8.27,7.72,7.72,7.72
89.86,17.47,9.75,17.46,9.75,-9.75,-10.08,-8.27,7.71,7.70,7.71
90.76,17.41,9.71,17.42,9.73,-9.73,-10.08,-8.29,7.68,7.69,7.69
91.66,17.36,9.68,17.37,9.70,-9.70,-10.08,-8.30,7.66,7.67,7.67
92.58,17.31,9.66,17.31,9.67,-9.67,-10.08,-8.32,7.64,7.64,7.64
93.51,17.26,9.63,17.25,9.64,-9.64,-10.08,-8.35,7.62,7.61,7.62
94.44,17.20,9.60,17.19,9.61,-9.61,-10.08,-8.39,7.58,7.58,7.59
95.39,17.15,9.59,17.13,9.59,-9.59,-10.07,-8.43,7.56,7.54,7.55
96.34,17.09,9.57,17.06,9.57,-9.57,-10.06,-8.47,7.52,7.50,7.51
97.30,17.02,9.56,17.00,9.55,-9.55,-10.05,-8.53,7.47,7.45,7.45
98.28,16.94,9.53,16.93,9.53,-9.53,-10.03,-8.58,7.41,7.40,7.40
99.26,16.85,9.49,16.86,9.51,-9.51,-10.01,-8.64,7.34,7.35,7.35
100.25,16.76,9.46,16.79,9.49,-9.49,-9.99,-8.71,7.26,7.29,7.29
101.25,16.68,9.44,16.71,9.48,-9.48,-9.97,-8.78,7.20,7.24,7.23
102.27,16.60,9.42,16.64,9.46,-9.46,-9.94,-8.85,7.14,7.18,7.17
103.29,16.56,9.44,16.56,9.44,-9.44,-9.92,-8.92,7.11,7.12,7.11
104.32,16.51,9.44,16.48,9.42,-9.42,-9.89,-9.00,7.09,7.06,7.06
105.37,16.43,9.43,16.40,9.40,-9.40,-9.86,-9.08,7.03,7.00,6.99
106.42,16.34,9.40,16.31,9.38,-9.38,-9.82,-9.16,6.96,6.94,6.93
107.48,16.25,9.36,16.24,9.36,-9.36,-9.79,-9.25,6.89,6.88,6.88
108.56,16.17,9.34,16.16,9.34,-9.34,-9.75,-9.33,6.83,6.82,6.82
109.64,16.09,9.32,16.08,9.31,-9.31,-9.71,-9.41,6.77,6.77,6.76
110.74,15.99,9.27,16.00,9.29,-9.29,-9.67,-9.49,6.70,6.71,6.71
111.85,15.89,9.21,15.92,9.26,-9.26,-9.63,-9.56,6.63,6.66,6.67
112.97,15.81,9.20,15.83,9.22,-9.22,-9.58,-9.63,6.58,6.61,6.60
114.10,15.73,9.16,15.75,9.19,-9.19,-9.54,-9.70,6.54,6.56,6.56
115.24,15.64,9.12,15.66,9.14,-9.14,-9.49,-9.76,6.49,6.52,6.51
116.39,15.60,9.13,15.57,9.10,-9.10,-9.44,-9.81,6.50,6.47,6.46
117.55,15.54,9.11,15.49,9.06,-9.06,-9.39,-9.86,6.48,6.43,6.42
118.73,15.43,9.04,15.40,9.01,-9.01,-9.33,-9.89,6.42,6.39,6.38
119.92,15.31,8.95,15.32,8.96,-8.96,-9.28,-9.91,6.34,6.36,6.35
121.12,15.21,8.88,15.23,8.91,-8.91,-9.22,-9.93,6.29,6.32,6.32
122.33,15.16,8.86,15.15,8.86,-8.86,-9.17,-9.93,6.30,6.29,6.29
123.55,15.08,8.81,15.06,8.80,-8.80,-9.11,-9.92,6.27,6.26,6.26
124.79,14.97,8.73,14.98,8.74,-8.74,-9.05,-9.89,6.22,6.23,6.23
126.03,14.86,8.64,14.89,8.68,-8.68,-8.99,-9.86,6.17,6.20,6.21
127.29,14.81,8.62,14.80,8.62,-8.62,-8.93,-9.81,6.18,6.17,6.18
128.57,14.73,8.58,14.71,8.56,-8.56,-8.86,-9.74,6.16,6.15,6.14
129.85,14.61,8.48,14.61,8.50,-8.50,-8.80,-9.67,6.11,6.12,6.12
131.15,14.50,8.40,14.52,8.43,-8.43,-8.73,-9.58,6.06,6.09,6.09
132.46,14.45,8.39,14.43,8.37,-8.37,-8.67,-9.49,6.08,6.06,6.05
133.79,14.35,8.31,14.33,8.31,-8.31,-8.60,-9.38,6.04,6.03,6.03
135.12,14.22,8.21,14.24,8.24,-8.24,-8.53,-9.26,5.98,6.00,6.00
136.48,14.16,8.18,14.13,8.17,-8.17,-8.46,-9.14,5.99,5.97,5.97
137.84,14.05,8.10,14.03,8.10,-8.10,-8.39,-9.01,5.95,5.93,5.94
139.22,13.96,8.06,13.93,8.03,-8.03,-8.32,-8.87,5.93,5.90,5.89
140.61,13.85,7.98,13.82,7.96,-7.96,-8.24,-8.73,5.89,5.87,5.86
142.02,13.70,7.85,13.72,7.88,-7.88,-8.17,-8.58,5.82,5.83,5.84
143.44,13.61,7.80,13.61,7.81,-7.81,-8.09,-8.43,5.80,5.80,5.80
144.87,13.48,7.71,13.50,7.74,-7.74,-8.02,-8.28,5.74,5.76,5.76
146.32,13.39,7.66,13.39,7.66,-7.66,-7.94,-8.12,5.72,5.73,5.72
147.78,13.27,7.57,13.28,7.59,-7.59,-7.86,-7.97,5.68,5.69,5.69
149.26,13.18,7.51,13.17,7.52,-7.52,-7.78,-7.82,5.66,5.65,5.66
150.75,13.06,7.44,13.06,7.45,-7.45,-7.70,-7.66,5.61,5.61,5.61
152.26,12.97,7.39,12.95,7.38,-7.38,-7.62,-7.51,5.59,5.57,5.57
153.78,12.84,7.29,12.85,7.31,-7.31,-7.54,-7.36,5.52,5.53,5.54
155.32,12.75,7.25,12.74,7.25,-7.25,-7.46,-7.22,5.50,5.49,5.49
156.88,12.63,7.16,12.63,7.19,-7.19,-7.38,-7.07,5.44,5.45,5.46
158.44,12.54,7.13,12.53,7.12,-7.12,-7.30,-6.93,5.41,5.40,5.40
160.03,12.40,7.03,12.42,7.06,-7.06,-7.21,-6.80,5.34,5.36,5.36
161.63,12.32,7.00,12.31,6.99,-6.99,-7.13,-6.66,5.33,5.32,5.31
163.24,12.23,6.95,12.20,6.92,-6.92,-7.04,-6.53,5.30,5.28,5.27
164.88,12.09,6.85,12.09,6.86,-6.86,-6.95,-6.41,5.23,5.23,5.23
166.53,12.00,6.80,11.98,6.79,-6.79,-6.87,-6.28,5.20,5.19,5.19
168.19,11.90,6.74,11.88,6.72,-6.72,-6.78,-6.17,5.17,5.15,5.15
169.87,11.76,6.64,11.77,6.66,-6.66,-6.69,-6.05,5.10,5.11,5.11
171.57,11.66,6.57,11.66,6.59,-6.59,-6.60,-5.94,5.07,5.07,5.08
173.29,11.57,6.52,11.55,6.51,-6.51,-6.51,-5.84,5.05,5.04,5.04
175.02,11.42,6.41,11.45,6.44,-6.44,-6.42,-5.74,4.97,5.01,5.00
176.77,11.33,6.35,11.34,6.37,-6.37,-6.33,-5.64,4.96,4.98,4.97
178.54,11.24,6.29,11.24,6.29,-6.29,-6.23,-5.55,4.94,4.95,4.94
180.32,11.15,6.23,11.14,6.22,-6.22,-6.14,-5.47,4.93,4.92,4.91
182.13,11.06,6.16,11.04,6.14,-6.14,-6.05,-5.38,4.92,4.90,4.89
183.95,10.93,6.05,10.94,6.06,-6.06,-5.95,-5.30,4.86,4.87,4.87
185.79,10.83,5.97,10.84,5.98,-5.98,-5.86,-5.23,4.84,4.85,4.85
187.65,10.74,5.90,10.74,5.90,-5.90,-5.76,-5.16,4.83,4.83,4.83
189.52,10.64,5.81,10.64,5.82,-5.82,-5.67,-5.09,4.82,4.82,4.82
191.42,10.55,5.74,10.54,5.74,-5.74,-5.57,-5.03,4.81,4.80,4.80
193.33,10.45,5.65,10.44,5.65,-5.65,-5.47,-4.97,4.80,4.79,4.79
195.27,10.34,5.55,10.34,5.56,-5.56,-5.37,-4.91,4.77,4.77,4.78
197.22,10.23,5.46,10.23,5.47,-5.47,-5.27,-4.85,4.76,4.76,4.76
199.19,10.13,5.38,10.12,5.37,-5.37,-5.17,-4.80,4.76,4.75,4.74
201.18,10.02,5.28,10.01,5.28,-5.28,-5.07,-4.75,4.74,4.74,4.73
203.19,9.91,5.17,9.90,5.18,-5.18,-4.97,-4.71,4.73,4.72,4.73
205.23,9.80,5.08,9.80,5.09,-5.09,-4.87,-4.66,4.71,4.71,4.71
207.28,9.70,4.98,9.69,4.98,-4.98,-4.76,-4.62,4.71,4.70,4.71
209.35,9.58,4.88,9.57,4.88,-4.88,-4.66,-4.57,4.69,4.69,4.69
211.44,9.46,4.78,9.46,4.78,-4.78,-4.56,-4.53,4.67,4.68,4.67
213.56,9.34,4.67,9.34,4.68,-4.68,-4.45,-4.49,4.66,4.67,4.66
215.69,9.22,4.55,9.23,4.57,-4.57,-4.34,-4.45,4.64,4.66,4.66
217.85,9.09,4.44,9.11,4.47,-4.47,-4.24,-4.41,4.62,4.64,4.64
220.03,9.01,4.37,8.99,4.36,-4.36,-4.13,-4.37,4.65,4.63,4.63
222.23,8.90,4.28,8.87,4.26,-4.26,-4.02,-4.32,4.64,4.62,4.61
224.45,8.77,4.15,8.75,4.15,-4.15,-3.91,-4.27,4.62,4.60,4.61
226.70,8.64,4.04,8.63,4.04,-4.04,-3.80,-4.23,4.59,4.59,4.59
228.96,8.49,3.90,8.51,3.94,-3.94,-3.69,-4.17,4.55,4.58,4.58
231.25,8.40,3.82,8.39,3.83,-3.83,-3.58,-4.12,4.57,4.56,4.57
233.57,8.27,3.71,8.26,3.72,-3.72,-3.47,-4.06,4.55,4.55,4.55
235.90,8.13,3.58,8.14,3.61,-3.61,-3.36,-4.00,4.52,4.53,4.54
238.26,8.03,3.50,8.02,3.50,-3.50,-3.24,-3.93,4.53,4.52,4.52
240.64,7.89,3.38,7.89,3.39,-3.39,-3.13,-3.85,4.50,4.51,4.50
243.05,7.78,3.28,7.76,3.27,-3.27,-3.01,-3.77,4.51,4.50,4.49
245.48,7.64,3.15,7.63,3.14,-3.14,-2.90,-3.69,4.49,4.49,4.48
247.93,7.48,3.00,7.50,3.02,-3.02,-2.78,-3.60,4.45,4.48,4.47
250.41,7.38,2.91,7.37,2.89,-2.89,-2.66,-3.50,4.48,4.48,4.46
252.92,7.24,2.76,7.23,2.76,-2.76,-2.54,-3.40,4.48,4.47,4.47
255.45,7.12,2.64,7.10,2.62,-2.62,-2.42,-3.29,4.50,4.48,4.47
258.00,7.00,2.51,6.96,2.48,-2.48,-2.30,-3.18,4.52,4.48,4.48
260.58,6.84,2.35,6.82,2.34,-2.34,-2.18,-3.05,4.50,4.49,4.48
263.19,6.70,2.20,6.69,2.19,-2.19,-2.06,-2.93,4.50,4.50,4.49
265.82,6.53,2.02,6.55,2.05,-2.05,-1.94,-2.79,4.48,4.51,4.50
268.48,6.41,1.88,6.42,1.90,-1.90,-1.81,-2.65,4.51,4.52,4.52
271.16,6.29,1.74,6.29,1.75,-1.75,-1.69,-2.51,4.54,4.53,4.54
273.87,6.12,1.56,6.15,1.60,-1.60,-1.56,-2.36,4.51,4.55,4.55
276.61,6.00,1.41,6.03,1.46,-1.46,-1.44,-2.20,4.54,4.57,4.58
279.38,5.89,1.30,5.90,1.32,-1.32,-1.31,-2.04,4.57,4.58,4.58
282.17,5.78,1.17,5.77,1.17,-1.17,-1.18,-1.88,4.60,4.60,4.60
284.99,5.68,1.06,5.64,1.03,-1.03,-1.05,-1.71,4.64,4.61,4.61
287.84,5.53,0.89,5.52,0.89,-0.89,-0.92,-1.54,4.63,4.63,4.63
290.72,5.41,0.75,5.40,0.76,-0.76,-0.79,-1.37,4.65,4.65,4.65
293.63,5.29,0.62,5.29,0.62,-0.62,-0.66,-1.19,4.67,4.67,4.66
296.57,5.17,0.47,5.17,0.48,-0.48,-0.52,-1.01,4.69,4.69,4.69
299.53,5.05,0.34,5.05,0.34,-0.34,-0.39,-0.82,4.70,4.71,4.70
302.53,4.93,0.21,4.93,0.20,-0.20,-0.25,-0.64,4.73,4.73,4.71
305.55,4.82,0.07,4.81,0.06,-0.06,-0.12,-0.45,4.76,4.75,4.74
308.61,4.69,-0.08,4.68,-0.09,0.09,0.02,-0.26,4.77,4.77,4.76
311.69,4.55,-0.25,4.56,-0.23,0.23,0.16,-0.07,4.78,4.79,4.79
314.81,4.46,-0.38,4.44,-0.38,0.38,0.30,0.12,4.83,4.81,4.83
317.96,4.33,-0.52,4.31,-0.52,0.52,0.44,0.32,4.85,4.83,4.84
321.14,4.20,-0.67,4.19,-0.67,0.67,0.58,0.52,4.86,4.86,4.86
324.35,4.06,-0.83,4.07,-0.81,0.81,0.73,0.71,4.87,4.88,4.88
327.59,3.93,-0.98,3.95,-0.96,0.96,0.87,0.91,4.88,4.90,4.90
330.87,3.82,-1.11,3.82,-1.11,1.11,1.02,1.12,4.92,4.93,4.92
334.18,3.69,-1.27,3.70,-1.26,1.26,1.16,1.32,4.94,4.95,4.95
337.52,3.57,-1.41,3.57,-1.40,1.40,1.31,1.52,4.97,4.98,4.97
340.90,3.47,-1.53,3.45,-1.55,1.55,1.46,1.73,5.02,5.00,4.99
344.30,3.34,-1.69,3.33,-1.70,1.70,1.61,1.94,5.03,5.02,5.02
347.75,3.22,-1.83,3.20,-1.84,1.84,1.76,2.15,5.06,5.05,5.04
351.23,3.08,-2.00,3.08,-1.99,1.99,1.92,2.36,5.07,5.07,5.07
354.74,2.97,-2.14,2.96,-2.14,2.14,2.07,2.57,5.10,5.09,5.10
358.28,2.84,-2.28,2.84,-2.28,2.28,2.23,2.79,5.12,5.12,5.11
361.87,2.72,-2.43,2.72,-2.42,2.42,2.38,3.00,5.14,5.14,5.14
365.49,2.58,-2.60,2.60,-2.56,2.56,2.54,3.22,5.14,5.17,5.17
369.14,2.47,-2.72,2.48,-2.71,2.71,2.70,3.44,5.17,5.19,5.18
372.83,2.37,-2.85,2.37,-2.84,2.84,2.86,3.67,5.21,5.21,5.21
376.56,2.24,-3.00,2.25,-2.98,2.98,3.02,3.89,5.22,5.24,5.23
380.33,2.12,-3.15,2.14,-3.12,3.12,3.19,4.12,5.23,5.26,5.26
384.13,2.01,-3.27,2.02,-3.25,3.25,3.35,4.34,5.26,5.27,5.27
387.97,1.91,-3.39,1.90,-3.39,3.39,3.52,4.57,5.30,5.29,5.29
391.85,1.79,-3.52,1.78,-3.53,3.53,3.69,4.81,5.31,5.31,5.30
395.77,1.67,-3.67,1.65,-3.67,3.67,3.85,5.04,5.33,5.32,5.33
399.73,1.54,-3.81,1.52,-3.81,3.81,4.02,5.27,5.35,5.33,5.34
403.72,1.40,-3.95,1.38,-3.96,3.96,4.19,5.51,5.35,5.34,5.34
407.76,1.26,-4.10,1.24,-4.11,4.11,4.37,5.74,5.36,5.35,5.35
411.84,1.11,-4.26,1.09,-4.26,4.26,4.54,5.98,5.37,5.35,5.36
415.96,0.94,-4.42,0.93,-4.43,4.43,4.71,6.22,5.36,5.35,5.35
420.12,0.76,-4.60,0.76,-4.60,4.60,4.89,6.45,5.35,5.35,5.35
424.32,0.57,-4.79,0.57,-4.78,4.78,5.06,6.69,5.34,5.35,5.35
428.56,0.40,-4.96,0.38,-4.97,4.97,5.24,6.92,5.36,5.35,5.35
432.85,0.21,-5.14,0.18,-5.17,5.17,5.42,7.15,5.37,5.35,5.34
437.18,-0.01,-5.36,-0.03,-5.37,5.37,5.60,7.38,5.36,5.34,5.34
441.55,-0.21,-5.56,-0.24,-5.58,5.58,5.78,7.60,5.37,5.34,5.34
445.96,-0.43,-5.77,-0.46,-5.80,5.80,5.96,7.82,5.36,5.34,5.33
450.42,-0.67,-6.01,-0.68,-6.02,6.02,6.14,8.03,5.34,5.33,5.33
454.93,-0.89,-6.23,-0.91,-6.24,6.24,6.32,8.23,5.35,5.33,5.33
459.48,-1.16,-6.49,-1.13,-6.46,6.46,6.50,8.42,5.30,5.33,5.32
464.07,-1.39,-6.73,-1.36,-6.69,6.69,6.68,8.60,5.29,5.33,5.33
468.71,-1.59,-6.93,-1.58,-6.91,6.91,6.86,8.77,5.32,5.33,5.33
473.40,-1.83,-7.16,-1.81,-7.13,7.13,7.04,8.92,5.30,5.33,5.32
478.13,-2.03,-7.37,-2.02,-7.35,7.35,7.22,9.06,5.32,5.33,5.33
482.91,-2.23,-7.56,-2.24,-7.57,7.57,7.39,9.19,5.33,5.33,5.32
487.74,-2.44,-7.78,-2.44,-7.77,7.77,7.57,9.29,5.33,5.33,5.33
492.62,-2.64,-7.99,-2.64,-7.98,7.98,7.75,9.38,5.33,5.33,5.34
497.55,-2.83,-8.17,-2.83,-8.17,8.17,7.92,9.45,5.34,5.34,5.33
502.52,-3.02,-8.37,-3.02,-8.36,8.36,8.09,9.51,5.33,5.34,5.34
507.55,-3.19,-8.54,-3.19,-8.54,8.54,8.26,9.54,5.35,5.35,5.34
512.62,-3.36,-8.72,-3.36,-8.71,8.71,8.42,9.56,5.35,5.35,5.35
517.75,-3.53,-8.90,-3.52,-8.88,8.88,8.58,9.56,5.35,5.36,5.36
522.93,-3.68,-9.06,-3.68,-9.05,9.05,8.74,9.54,5.37,5.37,5.37
