frequency,raw,error,smoothed,error_smoothed,equalization,parametric_eq,fixed_band_eq,equalized_raw,equalized_smoothed,target
20.00,-0.94,-6.94,-0.92,-6.95,6.95,5.90,1.06,6.01,6.03,6.00
20.20,-0.73,-6.73,-0.73,-6.74,6.74,5.82,1.10,6.02,6.02,6.00
20.40,-0.54,-6.54,-0.53,-6.54,6.54,5.73,1.13,6.00,6.01,6.00
20.61,-0.34,-6.35,-0.34,-6.34,6.34,5.64,1.17,6.00,6.00,6.00
20.81,-0.15,-6.15,-0.16,-6.15,6.15,5.55,1.21,6.00,5.99,6.00
21.02,0.02,-5.98,0.02,-5.96,5.96,5.45,1.25,5.98,5.98,6.00
21.23,0.21,-5.77,0.19,-5.77,5.77,5.36,1.29,5.98,5.97,5.98
21.44,0.37,-5.60,0.36,-5.59,5.59,5.27,1.33,5.96,5.95,5.97
21.66,0.53,-5.42,0.53,-5.41,5.41,5.17,1.38,5.94,5.94,5.95
21.87,0.68,-5.25,0.69,-5.24,5.24,5.08,1.42,5.92,5.92,5.93
22.09,0.84,-5.08,0.84,-5.07,5.07,4.98,1.47,5.91,5.91,5.92
22.31,0.99,-4.89,0.99,-4.90,4.90,4.88,1.52,5.89,5.89,5.89
22.54,1.13,-4.74,1.13,-4.74,4.74,4.78,1.57,5.86,5.87,5.87
22.76,1.27,-4.57,1.27,-4.58,4.58,4.69,1.62,5.85,5.84,5.85
22.99,1.40,-4.42,1.40,-4.42,4.42,4.59,1.67,5.82,5.82,5.82
23.22,1.53,-4.25,1.53,-4.27,4.27,4.49,1.72,5.80,5.80,5.79
23.45,1.66,-4.10,1.65,-4.12,4.12,4.39,1.78,5.78,5.78,5.76
23.69,1.77,-3.98,1.78,-3.98,3.98,4.29,1.83,5.75,5.76,5.75
23.92,1.89,-3.84,1.89,-3.84,3.84,4.19,1.89,5.74,5.74,5.73
24.16,2.01,-3.71,2.01,-3.71,3.71,4.09,1.94,5.72,5.72,5.72
24.40,2.11,-3.59,2.12,-3.58,3.58,3.98,2.00,5.69,5.70,5.70
24.65,2.22,-3.46,2.23,-3.45,3.45,3.88,2.06,5.67,5.68,5.68
24.89,2.32,-3.34,2.33,-3.33,3.33,3.78,2.12,5.65,5.66,5.66
25.14,2.43,-3.22,2.43,-3.21,3.21,3.68,2.18,5.64,5.64,5.65
25.39,2.53,-3.09,2.53,-3.10,3.10,3.57,2.24,5.63,5.63,5.63
25.65,2.63,-2.99,2.63,-2.98,2.98,3.47,2.29,5.61,5.61,5.62
25.91,2.72,-2.87,2.72,-2.87,2.87,3.37,2.35,5.59,5.59,5.59
26.16,2.81,-2.76,2.81,-2.77,2.77,3.26,2.41,5.58,5.58,5.57
26.43,2.90,-2.66,2.90,-2.66,2.66,3.16,2.47,5.56,5.56,5.56
26.69,2.99,-2.55,2.98,-2.56,2.56,3.05,2.52,5.55,5.55,5.54
26.96,3.07,-2.46,3.07,-2.46,2.46,2.95,2.57,5.53,5.53,5.53
27.23,3.15,-2.37,3.15,-2.37,2.37,2.84,2.62,5.52,5.51,5.52
27.50,3.22,-2.29,3.22,-2.28,2.28,2.74,2.67,5.50,5.50,5.51
27.77,3.29,-2.19,3.30,-2.19,2.19,2.63,2.71,5.48,5.49,5.49
28.05,3.37,-2.10,3.37,-2.10,2.10,2.53,2.75,5.47,5.47,5.47
28.33,3.44,-2.01,3.44,-2.02,2.02,2.42,2.79,5.46,5.46,5.45
28.62,3.51,-1.93,3.51,-1.93,1.93,2.32,2.82,5.44,5.44,5.44
28.90,3.57,-1.86,3.58,-1.86,1.86,2.21,2.85,5.43,5.43,5.43
29.19,3.63,-1.78,3.64,-1.78,1.78,2.10,2.87,5.41,5.42,5.41
29.48,3.70,-1.70,3.70,-1.70,1.70,2.00,2.88,5.40,5.40,5.41
29.78,3.77,-1.62,3.76,-1.63,1.63,1.89,2.89,5.40,5.39,5.39
30.08,3.83,-1.55,3.82,-1.55,1.55,1.79,2.89,5.38,5.37,5.38
30.38,3.88,-1.48,3.88,-1.48,1.48,1.68,2.88,5.36,5.36,5.36
30.68,3.94,-1.41,3.94,-1.41,1.41,1.57,2.87,5.35,5.34,5.35
30.99,3.99,-1.33,3.99,-1.34,1.34,1.47,2.85,5.33,5.33,5.32
31.30,4.04,-1.27,4.04,-1.27,1.27,1.36,2.82,5.31,5.31,5.31
31.61,4.10,-1.20,4.09,-1.20,1.20,1.26,2.78,5.30,5.29,5.30
31.93,4.14,-1.14,4.14,-1.13,1.13,1.15,2.74,5.27,5.27,5.28
32.24,4.18,-1.06,4.19,-1.07,1.07,1.05,2.68,5.25,5.25,5.24
32.57,4.23,-1.00,4.23,-1.00,1.00,0.94,2.62,5.23,5.23,5.23
32.89,4.28,-0.94,4.28,-0.93,0.93,0.84,2.55,5.21,5.21,5.22
33.22,4.33,-0.85,4.32,-0.87,0.87,0.73,2.48,5.20,5.19,5.19
33.55,4.37,-0.80,4.37,-0.80,0.80,0.63,2.40,5.17,5.17,5.17
33.89,4.41,-0.74,4.41,-0.74,0.74,0.52,2.31,5.15,5.15,5.15
34.23,4.45,-0.68,4.46,-0.67,0.67,0.42,2.21,5.12,5.13,5.13
34.57,4.50,-0.60,4.50,-0.60,0.60,0.31,2.11,5.10,5.11,5.10
34.92,4.55,-0.53,4.55,-0.53,0.53,0.21,2.01,5.08,5.08,5.08
35.27,4.59,-0.47,4.60,-0.47,0.47,0.11,1.90,5.06,5.06,5.07
35.62,4.64,-0.40,4.64,-0.40,0.40,0.00,1.78,5.04,5.04,5.04
35.97,4.69,-0.33,4.69,-0.33,0.33,-0.10,1.66,5.02,5.02,5.02
36.33,4.75,-0.25,4.74,-0.25,0.25,-0.20,1.54,5.01,5.00,5.00
36.70,4.79,-0.19,4.80,-0.18,0.18,-0.31,1.41,4.97,4.98,4.98
37.06,4.85,-0.10,4.85,-0.11,0.11,-0.41,1.28,4.96,4.96,4.95
37.43,4.91,-0.03,4.90,-0.03,0.03,-0.51,1.15,4.94,4.93,4.94
37.81,4.96,0.05,4.96,0.05,-0.05,-0.61,1.01,4.91,4.91,4.91
38.19,5.02,0.13,5.02,0.13,-0.13,-0.71,0.88,4.89,4.89,4.89
38.57,5.08,0.21,5.08,0.21,-0.21,-0.81,0.74,4.87,4.87,4.87
38.95,5.14,0.29,5.14,0.30,-0.30,-0.91,0.60,4.85,4.85,4.85
39.34,5.21,0.39,5.21,0.38,-0.38,-1.02,0.46,4.83,4.83,4.82
39.74,5.27,0.47,5.28,0.47,-0.47,-1.12,0.31,4.80,4.81,4.80
40.14,5.34,0.55,5.35,0.56,-0.56,-1.21,0.17,4.78,4.79,4.79
40.54,5.41,0.65,5.42,0.65,-0.65,-1.31,0.03,4.76,4.77,4.76
40.94,5.50,0.75,5.49,0.75,-0.75,-1.41,-0.12,4.75,4.75,4.75
41.35,5.57,0.85,5.57,0.84,-0.84,-1.51,-0.27,4.73,4.73,4.72
41.76,5.65,0.94,5.65,0.95,-0.95,-1.61,-0.42,4.71,4.71,4.71
42.18,5.74,1.05,5.74,1.05,-1.05,-1.71,-0.56,4.69,4.69,4.69
42.60,5.82,1.15,5.82,1.16,-1.16,-1.80,-0.71,4.66,4.67,4.67
43.03,5.91,1.25,5.91,1.27,-1.27,-1.90,-0.86,4.64,4.65,4.66
43.46,6.00,1.37,6.01,1.38,-1.38,-1.99,-1.02,4.62,4.63,4.63
43.90,6.10,1.50,6.10,1.50,-1.50,-2.09,-1.17,4.60,4.61,4.60
44.33,6.20,1.62,6.20,1.61,-1.61,-2.19,-1.32,4.59,4.59,4.58
44.78,6.29,1.73,6.30,1.73,-1.73,-2.28,-1.47,4.56,4.57,4.56
45.23,6.40,1.87,6.40,1.86,-1.86,-2.37,-1.63,4.54,4.54,4.53
45.68,6.50,1.99,6.50,1.98,-1.98,-2.47,-1.78,4.52,4.52,4.51
46.13,6.61,2.12,6.61,2.11,-2.11,-2.56,-1.94,4.50,4.50,4.49
46.60,6.72,2.24,6.71,2.24,-2.24,-2.65,-2.10,4.48,4.48,4.48
47.06,6.82,2.36,6.82,2.37,-2.37,-2.74,-2.25,4.45,4.46,4.46
47.53,6.93,2.49,6.93,2.50,-2.50,-2.83,-2.41,4.43,4.43,4.44
48.01,7.04,2.61,7.04,2.63,-2.63,-2.93,-2.57,4.41,4.41,4.43
48.49,7.15,2.76,7.15,2.76,-2.76,-3.02,-2.73,4.39,4.39,4.40
48.97,7.26,2.90,7.26,2.90,-2.90,-3.10,-2.89,4.36,4.36,4.36
49.46,7.37,3.04,7.37,3.03,-3.03,-3.19,-3.05,4.34,4.34,4.33
49.96,7.48,3.19,7.48,3.17,-3.17,-3.28,-3.21,4.31,4.31,4.29
50.46,7.59,3.30,7.59,3.30,-3.30,-3.37,-3.37,4.29,4.29,4.29
50.96,7.70,3.44,7.70,3.44,-3.44,-3.46,-3.53,4.26,4.26,4.27
51.47,7.81,3.58,7.81,3.58,-3.58,-3.54,-3.69,4.24,4.24,4.23
51.99,7.92,3.72,7.92,3.71,-3.71,-3.63,-3.85,4.21,4.21,4.20
52.51,8.03,3.84,8.03,3.85,-3.85,-3.71,-4.00,4.18,4.18,4.19
53.03,8.13,3.97,8.13,3.98,-3.98,-3.80,-4.16,4.15,4.16,4.16
53.56,8.24,4.11,8.24,4.11,-4.11,-3.88,-4.31,4.13,4.13,4.13
54.10,8.35,4.25,8.34,4.24,-4.24,-3.96,-4.47,4.11,4.10,4.10
54.64,8.44,4.36,8.45,4.37,-4.37,-4.04,-4.62,4.07,4.08,4.08
55.18,8.54,4.50,8.55,4.50,-4.50,-4.13,-4.76,4.04,4.05,4.05
55.74,8.64,4.62,8.64,4.62,-4.62,-4.21,-4.90,4.02,4.02,4.02
56.29,8.73,4.74,8.74,4.74,-4.74,-4.29,-5.04,3.99,3.99,4.00
56.86,8.83,4.87,8.83,4.86,-4.86,-4.37,-5.17,3.97,3.97,3.96
57.42,8.91,4.98,8.91,4.97,-4.97,-4.44,-5.30,3.94,3.94,3.93
58.00,9.00,5.09,8.99,5.09,-5.09,-4.52,-5.42,3.91,3.91,3.91
58.58,9.07,5.20,9.07,5.19,-5.19,-4.60,-5.54,3.88,3.88,3.87
59.16,9.15,5.30,9.14,5.29,-5.29,-4.67,-5.64,3.86,3.85,3.85
59.76,9.21,5.39,9.21,5.39,-5.39,-4.75,-5.74,3.82,3.82,3.83
60.35,9.27,5.48,9.27,5.48,-5.48,-4.82,-5.84,3.79,3.79,3.79
60.96,9.32,5.55,9.32,5.57,-5.57,-4.90,-5.92,3.75,3.76,3.77
61.57,9.37,5.65,9.37,5.64,-5.64,-4.97,-6.00,3.73,3.72,3.73
62.18,9.41,5.72,9.41,5.72,-5.72,-5.04,-6.06,3.69,3.69,3.69
62.80,9.45,5.79,9.44,5.78,-5.78,-5.11,-6.12,3.67,3.66,3.66
63.43,9.48,5.86,9.47,5.84,-5.84,-5.19,-6.17,3.64,3.63,3.62
64.07,9.49,5.90,9.49,5.89,-5.89,-5.25,-6.21,3.60,3.60,3.59
64.71,9.51,5.95,9.51,5.94,-5.94,-5.32,-6.25,3.57,3.57,3.56
65.35,9.52,5.99,9.52,5.98,-5.98,-5.39,-6.27,3.54,3.54,3.53
66.01,9.52,6.01,9.52,6.02,-6.02,-5.46,-6.29,3.50,3.51,3.51
66.67,9.52,6.05,9.52,6.05,-6.05,-5.52,-6.30,3.47,3.47,3.47
67.33,9.52,6.07,9.51,6.07,-6.07,-5.59,-6.31,3.45,3.44,3.45
68.01,9.50,6.09,9.50,6.09,-6.09,-5.65,-6.31,3.41,3.41,3.41
68.69,9.49,6.11,9.49,6.11,-6.11,-5.72,-6.30,3.38,3.38,3.38
69.37,9.47,6.12,9.47,6.12,-6.12,-5.78,-6.29,3.35,3.35,3.35
70.07,9.45,6.13,9.45,6.13,-6.13,-5.84,-6.28,3.32,3.32,3.32
70.77,9.42,6.13,9.42,6.14,-6.14,-5.90,-6.26,3.28,3.28,3.29
71.48,9.40,6.16,9.40,6.15,-6.15,-5.96,-6.24,3.25,3.24,3.25
72.19,9.36,6.15,9.37,6.16,-6.16,-6.02,-6.22,3.20,3.21,3.21
72.91,9.34,6.17,9.34,6.17,-6.17,-6.08,-6.20,3.17,3.17,3.17
73.64,9.30,6.17,9.30,6.18,-6.18,-6.14,-6.18,3.12,3.13,3.13
74.38,9.26,6.17,9.27,6.18,-6.18,-6.19,-6.15,3.08,3.09,3.09
75.12,9.24,6.21,9.24,6.19,-6.19,-6.25,-6.13,3.05,3.04,3.03
75.87,9.20,6.20,9.21,6.21,-6.21,-6.30,-6.11,3.00,3.00,3.00
76.63,9.17,6.21,9.17,6.22,-6.22,-6.35,-6.09,2.95,2.96,2.96
77.40,9.14,6.23,9.14,6.23,-6.23,-6.41,-6.07,2.91,2.91,2.91
78.17,9.11,6.26,9.11,6.25,-6.25,-6.46,-6.06,2.86,2.86,2.85
78.95,9.08,6.26,9.08,6.27,-6.27,-6.51,-6.05,2.81,2.81,2.82
79.74,9.05,6.28,9.05,6.29,-6.29,-6.56,-6.04,2.76,2.76,2.77
80.54,9.02,6.31,9.03,6.31,-6.31,-6.61,-6.03,2.71,2.71,2.71
81.35,9.00,6.34,9.00,6.34,-6.34,-6.65,-6.03,2.66,2.66,2.66
82.16,8.97,6.36,8.97,6.37,-6.37,-6.70,-6.03,2.60,2.61,2.61
82.98,8.95,6.39,8.95,6.40,-6.40,-6.74,-6.03,2.55,2.55,2.56
83.81,8.93,6.44,8.93,6.43,-6.43,-6.79,-6.04,2.50,2.50,2.49
84.65,8.90,6.46,8.90,6.46,-6.46,-6.83,-6.05,2.44,2.44,2.44
85.50,8.88,6.49,8.88,6.50,-6.50,-6.87,-6.07,2.38,2.39,2.39
86.35,8.86,6.53,8.86,6.53,-6.53,-6.91,-6.09,2.33,2.33,2.33
87.22,8.84,6.57,8.84,6.57,-6.57,-6.95,-6.12,2.27,2.27,2.27
88.09,8.83,6.62,8.82,6.61,-6.61,-6.99,-6.15,2.22,2.21,2.21
88.97,8.80,6.64,8.81,6.65,-6.65,-7.03,-6.19,2.15,2.15,2.16
89.86,8.79,6.69,8.79,6.69,-6.69,-7.07,-6.23,2.10,2.09,2.10
90.76,8.77,6.75,8.77,6.74,-6.74,-7.10,-6.27,2.03,2.03,2.02
91.66,8.75,6.78,8.75,6.78,-6.78,-7.14,-6.32,1.97,1.97,1.97
92.58,8.73,6.83,8.74,6.83,-6.83,-7.17,-6.38,1.90,1.91,1.90
93.51,8.71,6.86,8.72,6.87,-6.87,-7.21,-6.44,1.84,1.85,1.85
94.44,8.71,6.92,8.70,6.92,-6.92,-7.24,-6.50,1.79,1.78,1.79
95.39,8.69,6.97,8.69,6.97,-6.97,-7.27,-6.57,1.72,1.71,1.72
96.34,8.67,7.02,8.67,7.02,-7.02,-7.30,-6.64,1.65,1.65,1.65
97.30,8.65,7.07,8.65,7.07,-7.07,-7.32,-6.72,1.58,1.58,1.58
98.28,8.64,7.13,8.64,7.13,-7.13,-7.35,-6.80,1.52,1.51,1.51
99.26,8.62,7.18,8.62,7.18,-7.18,-7.38,-6.88,1.44,1.44,1.44
100.25,8.60,7.23,8.60,7.23,-7.23,-7.40,-6.97,1.37,1.37,1.37
101.25,8.58,7.28,8.59,7.29,-7.29,-7.43,-7.06,1.30,1.30,1.30
102.27,8.57,7.35,8.57,7.34,-7.34,-7.45,-7.15,1.23,1.23,1.23
103.29,8.55,7.40,8.55,7.39,-7.39,-7.47,-7.24,1.16,1.16,1.15
104.32,8.53,7.45,8.53,7.45,-7.45,-7.49,-7.34,1.08,1.08,1.08
105.37,8.51,7.50,8.51,7.50,-7.50,-7.51,-7.43,1.01,1.01,1.01
106.42,8.48,7.55,8.49,7.56,-7.56,-7.53,-7.53,0.93,0.93,0.93
107.48,8.46,7.60,8.46,7.61,-7.61,-7.55,-7.63,0.85,0.86,0.86
108.56,8.44,7.66,8.44,7.66,-7.66,-7.56,-7.73,0.78,0.78,0.78
109.64,8.41,7.71,8.41,7.71,-7.71,-7.58,-7.82,0.70,0.70,0.70
110.74,8.39,7.76,8.39,7.76,-7.76,-7.59,-7.92,0.63,0.62,0.63
111.85,8.36,7.80,8.36,7.81,-7.81,-7.61,-8.01,0.55,0.55,0.56
112.97,8.32,7.86,8.33,7.86,-7.86,-7.62,-8.09,0.46,0.47,0.46
114.10,8.28,7.89,8.29,7.90,-7.90,-7.63,-8.18,0.38,0.39,0.39
115.24,8.26,7.94,8.25,7.94,-7.94,-7.64,-8.25,0.32,0.32,0.32
116.39,8.22,7.99,8.21,7.97,-7.97,-7.65,-8.32,0.25,0.24,0.23
117.55,8.17,8.01,8.17,8.00,-8.00,-7.65,-8.39,0.17,0.16,0.16
118.73,8.12,8.04,8.12,8.03,-8.03,-7.66,-8.44,0.09,0.09,0.08
119.92,8.07,8.05,8.07,8.05,-8.05,-7.67,-8.49,0.02,0.02,0.02
121.12,8.02,8.08,8.02,8.07,-8.07,-7.67,-8.52,-0.05,-0.06,-0.06
122.33,7.96,8.09,7.96,8.09,-8.09,-7.67,-8.55,-0.13,-0.13,-0.13
123.55,7.90,8.09,7.90,8.10,-8.10,-7.67,-8.57,-0.20,-0.20,-0.19
124.79,7.83,8.10,7.83,8.10,-8.10,-7.68,-8.57,-0.27,-0.27,-0.27
126.03,7.76,8.09,7.77,8.10,-8.10,-7.68,-8.57,-0.34,-0.34,-0.33
127.29,7.69,8.09,7.69,8.10,-8.10,-7.67,-8.56,-0.41,-0.40,-0.40
128.57,7.62,8.10,7.62,8.09,-8.09,-7.67,-8.53,-0.46,-0.47,-0.48
129.85,7.54,8.08,7.54,8.07,-8.07,-7.67,-8.50,-0.53,-0.53,-0.54
131.15,7.46,8.06,7.46,8.05,-8.05,-7.66,-8.45,-0.59,-0.59,-0.59
132.46,7.38,8.04,7.37,8.03,-8.03,-7.66,-8.40,-0.64,-0.65,-0.66
133.79,7.29,8.00,7.28,8.00,-8.00,-7.65,-8.34,-0.70,-0.71,-0.71
135.12,7.19,7.96,7.19,7.96,-7.96,-7.64,-8.27,-0.77,-0.77,-0.77
136.48,7.10,7.92,7.10,7.92,-7.92,-7.64,-8.19,-0.82,-0.82,-0.82
137.84,7.00,7.86,7.01,7.87,-7.87,-7.63,-8.11,-0.87,-0.87,-0.86
139.22,6.91,7.84,6.91,7.83,-7.83,-7.61,-8.03,-0.92,-0.92,-0.93
140.61,6.81,7.79,6.81,7.77,-7.77,-7.60,-7.93,-0.96,-0.96,-0.98
142.02,6.71,7.71,6.71,7.72,-7.72,-7.59,-7.84,-1.01,-1.01,-1.00
143.44,6.61,7.65,6.61,7.66,-7.66,-7.58,-7.74,-1.05,-1.05,-1.04
144.87,6.50,7.59,6.51,7.60,-7.60,-7.56,-7.65,-1.10,-1.09,-1.09
146.32,6.41,7.54,6.41,7.53,-7.53,-7.54,-7.55,-1.12,-1.12,-1.13
147.78,6.31,7.47,6.31,7.47,-7.47,-7.53,-7.45,-1.16,-1.16,-1.16
149.26,6.21,7.40,6.21,7.41,-7.41,-7.51,-7.35,-1.20,-1.20,-1.19
150.75,6.10,7.34,6.11,7.34,-7.34,-7.49,-7.25,-1.24,-1.23,-1.24
152.26,6.00,7.27,6.01,7.28,-7.28,-7.47,-7.15,-1.28,-1.27,-1.27
153.78,5.91,7.22,5.91,7.21,-7.21,-7.45,-7.06,-1.30,-1.31,-1.30
155.32,5.81,7.15,5.81,7.15,-7.15,-7.43,-6.97,-1.34,-1.34,-1.34
156.88,5.71,7.08,5.71,7.08,-7.08,-7.40,-6.88,-1.37,-1.37,-1.37
158.44,5.61,7.02,5.61,7.02,-7.02,-7.38,-6.79,-1.41,-1.41,-1.41
160.03,5.52,6.97,5.52,6.96,-6.96,-7.35,-6.71,-1.44,-1.44,-1.45
161.63,5.42,6.91,5.43,6.91,-6.91,-7.33,-6.63,-1.48,-1.48,-1.49
163.24,5.33,6.85,5.34,6.85,-6.85,-7.30,-6.56,-1.52,-1.51,-1.51
164.88,5.25,6.79,5.25,6.80,-6.80,-7.27,-6.48,-1.54,-1.55,-1.54
166.53,5.16,6.74,5.16,6.74,-6.74,-7.25,-6.42,-1.58,-1.58,-1.58
168.19,5.08,6.70,5.08,6.70,-6.70,-7.22,-6.36,-1.62,-1.62,-1.62
169.87,4.99,6.65,5.00,6.65,-6.65,-7.18,-6.30,-1.66,-1.66,-1.66
171.57,4.92,6.61,4.91,6.61,-6.61,-7.15,-6.24,-1.69,-1.69,-1.69
173.29,4.83,6.55,4.84,6.57,-6.57,-7.12,-6.19,-1.74,-1.73,-1.72
175.02,4.76,6.52,4.76,6.53,-6.53,-7.09,-6.15,-1.77,-1.77,-1.76
176.77,4.69,6.50,4.69,6.50,-6.50,-7.05,-6.11,-1.81,-1.81,-1.81
178.54,4.62,6.47,4.62,6.47,-6.47,-7.02,-6.08,-1.85,-1.85,-1.85
180.32,4.55,6.44,4.55,6.44,-6.44,-6.98,-6.05,-1.89,-1.89,-1.89
182.13,4.48,6.41,4.49,6.42,-6.42,-6.95,-6.02,-1.94,-1.93,-1.93
183.95,4.42,6.40,4.42,6.39,-6.39,-6.91,-6.00,-1.97,-1.97,-1.97
185.79,4.36,6.37,4.36,6.37,-6.37,-6.87,-5.98,-2.01,-2.01,-2.01
187.65,4.30,6.36,4.30,6.35,-6.35,-6.83,-5.97,-2.05,-2.05,-2.06
189.52,4.24,6.33,4.25,6.33,-6.33,-6.79,-5.96,-2.09,-2.08,-2.09
191.42,4.20,6.33,4.19,6.31,-6.31,-6.75,-5.96,-2.11,-2.12,-2.12
193.33,4.14,6.29,4.14,6.30,-6.30,-6.71,-5.96,-2.15,-2.16,-2.15
195.27,4.09,6.27,4.09,6.28,-6.28,-6.66,-5.96,-2.19,-2.19,-2.18
197.22,4.04,6.25,4.04,6.26,-6.26,-6.62,-5.97,-2.22,-2.22,-2.21
199.19,3.99,6.25,3.99,6.24,-6.24,-6.58,-5.98,-2.25,-2.25,-2.26
201.18,3.95,6.23,3.95,6.23,-6.23,-6.53,-5.99,-2.28,-2.28,-2.28
203.19,3.90,6.20,3.91,6.21,-6.21,-6.49,-6.00,-2.31,-2.31,-2.30
205.23,3.86,6.19,3.87,6.20,-6.20,-6.44,-6.02,-2.34,-2.33,-2.33
207.28,3.83,6.17,3.83,6.18,-6.18,-6.39,-6.04,-2.35,-2.36,-2.34
209.35,3.79,6.17,3.79,6.17,-6.17,-6.35,-6.06,-2.38,-2.38,-2.38
211.44,3.75,6.16,3.75,6.15,-6.15,-6.30,-6.09,-2.40,-2.40,-2.41
213.56,3.71,6.13,3.72,6.13,-6.13,-6.25,-6.11,-2.42,-2.42,-2.42
215.69,3.68,6.11,3.68,6.12,-6.12,-6.20,-6.13,-2.44,-2.44,-2.43
217.85,3.64,6.08,3.65,6.10,-6.10,-6.15,-6.16,-2.46,-2.45,-2.44
220.03,3.62,6.09,3.62,6.08,-6.08,-6.10,-6.18,-2.46,-2.46,-2.47
222.23,3.59,6.07,3.59,6.06,-6.06,-6.05,-6.20,-2.47,-2.47,-2.48
224.45,3.56,6.04,3.56,6.04,-6.04,-5.99,-6.22,-2.47,-2.48,-2.48
226.70,3.52,6.01,3.52,6.01,-6.01,-5.94,-6.23,-2.49,-2.49,-2.49
228.96,3.50,5.99,3.49,5.98,-5.98,-5.89,-6.25,-2.48,-2.49,-2.49
231.25,3.46,5.95,3.46,5.95,-5.95,-5.83,-6.26,-2.49,-2.49,-2.49
233.57,3.43,5.91,3.43,5.92,-5.92,-5.78,-6.26,-2.49,-2.49,-2.48
235.90,3.40,5.88,3.40,5.88,-5.88,-5.72,-6.26,-2.48,-2.48,-2.48
238.26,3.37,5.85,3.37,5.84,-5.84,-5.67,-6.26,-2.47,-2.47,-2.48
240.64,3.33,5.79,3.33,5.80,-5.80,-5.61,-6.25,-2.47,-2.46,-2.46
243.05,3.31,5.76,3.30,5.75,-5.75,-5.55,-6.23,-2.44,-2.45,-2.45
245.48,3.26,5.69,3.27,5.70,-5.70,-5.50,-6.21,-2.44,-2.44,-2.43
247.93,3.23,5.65,3.23,5.65,-5.65,-5.44,-6.18,-2.42,-2.42,-2.42
250.41,3.20,5.61,3.20,5.60,-5.60,-5.38,-6.14,-2.40,-2.40,-2.41
252.92,3.16,5.54,3.16,5.55,-5.55,-5.32,-6.10,-2.39,-2.39,-2.38
255.45,3.12,5.48,3.12,5.49,-5.49,-5.26,-6.05,-2.37,-2.37,-2.36
258.00,3.08,5.42,3.09,5.43,-5.43,-5.20,-5.99,-2.35,-2.35,-2.34
260.58,3.05,5.38,3.05,5.37,-5.37,-5.14,-5.93,-2.32,-2.33,-2.33
263.19,3.00,5.31,3.01,5.31,-5.31,-5.08,-5.86,-2.31,-2.30,-2.31
265.82,2.97,5.25,2.97,5.25,-5.25,-5.02,-5.79,-2.28,-2.28,-2.28
268.48,2.93,5.19,2.93,5.19,-5.19,-4.96,-5.71,-2.25,-2.26,-2.26
271.16,2.89,5.12,2.88,5.12,-5.12,-4.89,-5.62,-2.23,-2.24,-2.23
273.87,2.84,5.05,2.84,5.05,-5.05,-4.83,-5.53,-2.21,-2.21,-2.21
276.61,2.80,4.98,2.79,4.98,-4.98,-4.77,-5.44,-2.18,-2.19,-2.18
279.38,2.76,4.93,2.75,4.91,-4.91,-4.71,-5.34,-2.15,-2.17,-2.17
282.17,2.70,4.84,2.70,4.84,-4.84,-4.64,-5.24,-2.14,-2.14,-2.14
284.99,2.65,4.77,2.65,4.77,-4.77,-4.58,-5.13,-2.12,-2.12,-2.12
287.84,2.60,4.70,2.60,4.69,-4.69,-4.52,-5.03,-2.09,-2.09,-2.09
290.72,2.56,4.62,2.55,4.62,-4.62,-4.45,-4.92,-2.06,-2.06,-2.06
293.63,2.51,4.56,2.51,4.54,-4.54,-4.39,-4.81,-2.03,-2.04,-2.04
296.57,2.46,4.47,2.46,4.47,-4.47,-4.32,-4.70,-2.00,-2.01,-2.01
299.53,2.41,4.40,2.41,4.39,-4.39,-4.26,-4.59,-1.98,-1.98,-1.98
302.53,2.36,4.32,2.37,4.31,-4.31,-4.19,-4.48,-1.95,-1.95,-1.96
305.55,2.31,4.22,2.32,4.24,-4.24,-4.12,-4.37,-1.93,-1.92,-1.91
308.61,2.28,4.17,2.28,4.17,-4.17,-4.06,-4.26,-1.89,-1.89,-1.89
311.69,2.24,4.09,2.24,4.10,-4.10,-3.99,-4.15,-1.86,-1.86,-1.85
314.81,2.21,4.03,2.21,4.03,-4.03,-3.93,-4.04,-1.82,-1.82,-1.82
317.96,2.17,3.96,2.18,3.97,-3.97,-3.86,-3.94,-1.80,-1.79,-1.79
321.14,2.15,3.91,2.15,3.92,-3.92,-3.79,-3.83,-1.76,-1.76,-1.76
324.35,2.12,3.86,2.13,3.86,-3.86,-3.73,-3.73,-1.74,-1.74,-1.74
327.59,2.10,3.80,2.11,3.82,-3.82,-3.66,-3.63,-1.72,-1.71,-1.70
330.87,2.08,3.75,2.10,3.78,-3.78,-3.59,-3.53,-1.70,-1.68,-1.67
334.18,2.07,3.73,2.09,3.74,-3.74,-3.52,-3.43,-1.67,-1.65,-1.66
337.52,2.07,3.70,2.08,3.71,-3.71,-3.46,-3.34,-1.64,-1.63,-1.63
340.90,2.06,3.66,2.07,3.68,-3.68,-3.39,-3.24,-1.62,-1.61,-1.60
344.30,2.06,3.65,2.07,3.65,-3.65,-3.32,-3.15,-1.59,-1.59,-1.59
347.75,2.07,3.63,2.06,3.62,-3.62,-3.25,-3.06,-1.55,-1.56,-1.56
351.23,2.08,3.62,2.05,3.60,-3.60,-3.19,-2.98,-1.52,-1.54,-1.54
354.74,2.07,3.59,2.04,3.57,-3.57,-3.12,-2.89,-1.50,-1.52,-1.52
358.28,2.05,3.56,2.03,3.54,-3.54,-3.05,-2.81,-1.48,-1.50,-1.51
361.87,2.03,3.52,2.02,3.50,-3.50,-2.98,-2.73,-1.47,-1.49,-1.49
365.49,2.00,3.46,2.00,3.47,-3.47,-2.91,-2.65,-1.46,-1.47,-1.46
369.14,1.98,3.43,1.98,3.43,-3.43,-2.85,-2.58,-1.45,-1.45,-1.45
372.83,1.95,3.39,1.95,3.38,-3.38,-2.78,-2.50,-1.43,-1.43,-1.44
376.56,1.93,3.35,1.93,3.34,-3.34,-2.71,-2.43,-1.41,-1.41,-1.42
380.33,1.89,3.28,1.90,3.29,-3.29,-2.64,-2.36,-1.40,-1.39,-1.39
384.13,1.86,3.23,1.86,3.24,-3.24,-2.58,-2.29,-1.38,-1.37,-1.37
387.97,1.82,3.17,1.83,3.18,-3.18,-2.51,-2.23,-1.36,-1.35,-1.35
391.85,1.79,3.13,1.80,3.13,-3.13,-2.44,-2.16,-1.34,-1.33,-1.33
395.77,1.76,3.07,1.76,3.08,-3.08,-2.37,-2.10,-1.31,-1.31,-1.31
399.73,1.73,3.02,1.73,3.02,-3.02,-2.30,-2.04,-1.29,-1.29,-1.29
403.72,1.70,2.97,1.70,2.97,-2.97,-2.24,-1.98,-1.27,-1.27,-1.27
407.76,1.66,2.91,1.66,2.91,-2.91,-2.17,-1.92,-1.25,-1.25,-1.25
411.84,1.62,2.84,1.63,2.86,-2.86,-2.10,-1.86,-1.23,-1.23,-1.22
415.96,1.60,2.80,1.60,2.80,-2.80,-2.04,-1.81,-1.20,-1.20,-1.20
420.12,1.56,2.75,1.56,2.74,-2.74,-1.97,-1.75,-1.18,-1.18,-1.18
424.32,1.53,2.69,1.53,2.69,-2.69,-1.90,-1.70,-1.15,-1.16,-1.16
428.56,1.49,2.63,1.49,2.63,-2.63,-1.84,-1.65,-1.14,-1.14,-1.14
432.85,1.45,2.57,1.45,2.57,-2.57,-1.77,-1.60,-1.12,-1.11,-1.12
437.18,1.41,2.50,1.42,2.51,-2.51,-1.70,-1.55,-1.10,-1.09,-1.09
441.55,1.38,2.44,1.38,2.44,-2.44,-1.64,-1.50,-1.06,-1.06,-1.06
445.96,1.33,2.37,1.34,2.38,-2.38,-1.57,-1.45,-1.05,-1.04,-1.04
450.42,1.29,2.31,1.30,2.31,-2.31,-1.51,-1.41,-1.02,-1.01,-1.02
454.93,1.25,2.23,1.26,2.24,-2.24,-1.44,-1.36,-0.99,-0.99,-0.98
459.48,1.21,2.17,1.21,2.17,-2.17,-1.38,-1.31,-0.96,-0.96,-0.96
464.07,1.16,2.10,1.16,2.10,-2.10,-1.31,-1.27,-0.93,-0.93,-0.93
468.71,1.11,2.01,1.11,2.02,-2.02,-1.25,-1.22,-0.91,-0.90,-0.90
473.40,1.06,1.94,1.06,1.93,-1.93,-1.18,-1.18,-0.87,-0.88,-0.88
478.13,1.00,1.85,1.00,1.84,-1.84,-1.12,-1.13,-0.84,-0.85,-0.85
482.91,0.93,1.75,0.93,1.75,-1.75,-1.06,-1.08,-0.82,-0.82,-0.82
487.74,0.87,1.66,0.86,1.65,-1.65,-0.99,-1.04,-0.78,-0.79,-0.79
492.62,0.80,1.56,0.78,1.55,-1.55,-0.93,-0.99,-0.75,-0.76,-0.76
497.55,0.71,1.45,0.70,1.44,-1.44,-0.87,-0.95,-0.72,-0.73,-0.74
502.52,0.62,1.32,0.61,1.32,-1.32,-0.80,-0.90,-0.70,-0.71,-0.70
507.55,0.52,1.20,0.51,1.19,-1.19,-0.74,-0.86,-0.67,-0.68,-0.68
512.62,0.41,1.06,0.41,1.06,-1.06,-0.68,-0.81,-0.65,-0.65,-0.65
