frequency,raw,error,smoothed,error_smoothed,equalization,parametric_eq,fixed_band_eq,equalized_raw,equalized_smoothed,target
20.00,16.16,9.25,16.16,9.23,-9.23,-8.78,-4.01,6.93,6.93,6.91
20.20,16.14,9.23,16.14,9.21,-9.21,-8.80,-4.12,6.93,6.92,6.91
20.40,16.11,9.20,16.12,9.20,-9.20,-8.82,-4.24,6.91,6.92,6.91
20.61,16.09,9.18,16.09,9.19,-9.19,-8.84,-4.35,6.90,6.91,6.91
20.81,16.07,9.16,16.07,9.17,-9.17,-8.86,-4.47,6.90,6.90,6.91
21.02,16.05,9.14,16.05,9.16,-9.16,-8.88,-4.59,6.89,6.88,6.91
21.23,16.03,9.14,16.02,9.15,-9.15,-8.90,-4.72,6.88,6.87,6.89
21.44,16.00,9.12,16.00,9.14,-9.14,-8.91,-4.85,6.86,6.86,6.88
21.66,15.97,9.11,15.97,9.13,-9.13,-8.93,-4.98,6.84,6.84,6.86
21.87,15.94,9.11,15.95,9.12,-9.12,-8.95,-5.12,6.82,6.83,6.84
22.09,15.92,9.10,15.92,9.11,-9.11,-8.96,-5.26,6.81,6.81,6.82
22.31,15.89,9.10,15.89,9.10,-9.10,-8.97,-5.41,6.79,6.80,6.79
22.54,15.86,9.09,15.87,9.09,-9.09,-8.98,-5.55,6.77,6.77,6.77
22.76,15.84,9.09,15.84,9.09,-9.09,-9.00,-5.71,6.75,6.75,6.75
22.99,15.81,9.09,15.81,9.08,-9.08,-9.00,-5.86,6.73,6.73,6.72
23.22,15.78,9.09,15.78,9.08,-9.08,-9.01,-6.02,6.70,6.71,6.69
23.45,15.76,9.09,15.75,9.07,-9.07,-9.02,-6.19,6.69,6.68,6.67
23.69,15.73,9.07,15.72,9.06,-9.06,-9.03,-6.36,6.67,6.66,6.66
23.92,15.70,9.06,15.70,9.05,-9.05,-9.03,-6.53,6.65,6.64,6.64
24.16,15.67,9.04,15.67,9.04,-9.04,-9.04,-6.71,6.63,6.62,6.63
24.40,15.63,9.02,15.64,9.03,-9.03,-9.04,-6.89,6.60,6.60,6.61
24.65,15.60,9.01,15.61,9.02,-9.02,-9.05,-7.07,6.58,6.58,6.59
24.89,15.57,9.00,15.58,9.01,-9.01,-9.05,-7.26,6.56,6.57,6.57
25.14,15.54,8.99,15.54,8.99,-8.99,-9.05,-7.45,6.55,6.55,6.55
25.39,15.51,8.98,15.51,8.98,-8.98,-9.05,-7.64,6.53,6.53,6.53
25.65,15.48,8.96,15.48,8.96,-8.96,-9.05,-7.83,6.52,6.52,6.52
25.91,15.45,8.96,15.45,8.95,-8.95,-9.04,-8.03,6.50,6.50,6.49
26.16,15.42,8.94,15.42,8.93,-8.93,-9.04,-8.23,6.49,6.48,6.48
26.43,15.38,8.91,15.38,8.91,-8.91,-9.04,-8.43,6.47,6.47,6.47
26.69,15.35,8.90,15.35,8.90,-8.90,-9.03,-8.62,6.45,6.45,6.45
26.96,15.32,8.88,15.32,8.88,-8.88,-9.02,-8.82,6.44,6.44,6.44
27.23,15.28,8.86,15.28,8.86,-8.86,-9.02,-9.02,6.42,6.42,6.42
27.50,15.24,8.83,15.25,8.84,-8.84,-9.01,-9.21,6.40,6.41,6.41
27.77,15.21,8.82,15.21,8.82,-8.82,-9.00,-9.40,6.39,6.39,6.39
28.05,15.18,8.80,15.18,8.80,-8.80,-8.99,-9.58,6.38,6.38,6.38
28.33,15.14,8.78,15.14,8.78,-8.78,-8.98,-9.76,6.36,6.36,6.36
28.62,15.11,8.76,15.10,8.75,-8.75,-8.97,-9.93,6.36,6.35,6.35
28.90,15.06,8.73,15.07,8.73,-8.73,-8.95,-10.08,6.33,6.34,6.34
29.19,15.02,8.71,15.03,8.71,-8.71,-8.94,-10.23,6.31,6.32,6.31
29.48,14.99,8.68,14.99,8.68,-8.68,-8.93,-10.36,6.31,6.31,6.31
29.78,14.96,8.66,14.96,8.66,-8.66,-8.91,-10.48,6.30,6.30,6.30
30.08,14.92,8.63,14.92,8.64,-8.64,-8.89,-10.59,6.29,6.28,6.29
30.38,14.87,8.61,14.88,8.61,-8.61,-8.88,-10.68,6.26,6.26,6.27
30.68,14.84,8.59,14.83,8.59,-8.59,-8.86,-10.75,6.26,6.25,6.25
30.99,14.80,8.57,14.79,8.56,-8.56,-8.84,-10.80,6.24,6.23,6.23
31.30,14.75,8.53,14.75,8.53,-8.53,-8.82,-10.84,6.22,6.22,6.22
31.61,14.71,8.50,14.70,8.51,-8.51,-8.80,-10.85,6.21,6.20,6.21
31.93,14.66,8.48,14.66,8.48,-8.48,-8.78,-10.85,6.18,6.18,6.18
32.24,14.61,8.46,14.61,8.45,-8.45,-8.76,-10.83,6.16,6.16,6.15
32.57,14.56,8.42,14.57,8.43,-8.43,-8.74,-10.79,6.14,6.14,6.14
32.89,14.51,8.39,14.52,8.40,-8.40,-8.71,-10.74,6.11,6.12,6.12
33.22,14.47,8.38,14.47,8.37,-8.37,-8.69,-10.67,6.10,6.10,6.09
33.55,14.42,8.34,14.42,8.35,-8.35,-8.67,-10.59,6.07,6.08,6.08
33.89,14.37,8.31,14.37,8.32,-8.32,-8.64,-10.50,6.05,6.06,6.06
34.23,14.32,8.29,14.32,8.29,-8.29,-8.61,-10.40,6.03,6.03,6.03
34.57,14.28,8.27,14.28,8.26,-8.26,-8.59,-10.29,6.02,6.01,6.01
34.92,14.23,8.25,14.23,8.24,-8.24,-8.56,-10.17,5.99,5.99,5.99
35.27,14.18,8.21,14.18,8.21,-8.21,-8.53,-10.05,5.97,5.97,5.97
35.62,14.14,8.19,14.14,8.19,-8.19,-8.51,-9.92,5.95,5.95,5.95
35.97,14.09,8.17,14.09,8.16,-8.16,-8.48,-9.80,5.93,5.93,5.92
36.33,14.04,8.13,14.04,8.14,-8.14,-8.45,-9.66,5.90,5.90,5.91
36.70,13.99,8.11,14.00,8.11,-8.11,-8.42,-9.53,5.88,5.88,5.88
37.06,13.95,8.09,13.95,8.09,-8.09,-8.39,-9.40,5.86,5.86,5.86
37.43,13.91,8.06,13.91,8.07,-8.07,-8.36,-9.27,5.84,5.84,5.85
37.81,13.86,8.04,13.86,8.04,-8.04,-8.33,-9.15,5.82,5.82,5.82
38.19,13.82,8.03,13.82,8.02,-8.02,-8.30,-9.02,5.80,5.80,5.80
38.57,13.77,7.99,13.77,8.00,-8.00,-8.27,-8.90,5.77,5.78,5.78
38.95,13.73,7.98,13.73,7.97,-7.97,-8.24,-8.78,5.76,5.75,5.75
39.34,13.68,7.95,13.68,7.95,-7.95,-8.20,-8.67,5.73,5.73,5.73
39.74,13.64,7.94,13.64,7.93,-7.93,-8.17,-8.56,5.71,5.71,5.70
40.14,13.60,7.90,13.60,7.91,-7.91,-8.14,-8.46,5.70,5.69,5.70
40.54,13.55,7.88,13.56,7.88,-7.88,-8.11,-8.36,5.67,5.67,5.67
40.94,13.52,7.87,13.52,7.86,-7.86,-8.07,-8.27,5.66,5.65,5.65
41.35,13.47,7.84,13.48,7.84,-7.84,-8.04,-8.18,5.63,5.63,5.63
41.76,13.44,7.82,13.44,7.82,-7.82,-8.01,-8.10,5.62,5.61,5.62
42.18,13.40,7.80,13.40,7.81,-7.81,-7.97,-8.02,5.59,5.59,5.60
42.60,13.36,7.79,13.36,7.79,-7.79,-7.94,-7.95,5.57,5.57,5.57
43.03,13.32,7.76,13.32,7.77,-7.77,-7.91,-7.88,5.55,5.55,5.57
43.46,13.29,7.75,13.29,7.76,-7.76,-7.87,-7.82,5.53,5.53,5.54
43.90,13.26,7.75,13.25,7.74,-7.74,-7.84,-7.77,5.52,5.51,5.51
44.33,13.22,7.73,13.22,7.73,-7.73,-7.81,-7.72,5.49,5.49,5.49
44.78,13.18,7.71,13.19,7.71,-7.71,-7.77,-7.68,5.47,5.47,5.47
45.23,13.15,7.71,13.15,7.70,-7.70,-7.74,-7.65,5.45,5.45,5.44
45.68,13.11,7.69,13.12,7.69,-7.69,-7.71,-7.62,5.42,5.43,5.42
46.13,13.09,7.69,13.09,7.68,-7.68,-7.68,-7.59,5.41,5.41,5.40
46.60,13.06,7.67,13.06,7.67,-7.67,-7.64,-7.57,5.39,5.38,5.39
47.06,13.03,7.66,13.03,7.67,-7.67,-7.61,-7.56,5.36,5.36,5.37
47.53,13.00,7.65,13.00,7.66,-7.66,-7.58,-7.55,5.34,5.34,5.35
48.01,12.97,7.64,12.97,7.65,-7.65,-7.54,-7.55,5.32,5.32,5.33
48.49,12.94,7.64,12.94,7.65,-7.65,-7.51,-7.55,5.29,5.29,5.30
48.97,12.91,7.64,12.91,7.64,-7.64,-7.48,-7.55,5.27,5.27,5.27
49.46,12.88,7.65,12.88,7.64,-7.64,-7.45,-7.56,5.24,5.24,5.23
49.96,12.85,7.65,12.86,7.64,-7.64,-7.42,-7.58,5.22,5.22,5.20
50.46,12.83,7.63,12.83,7.63,-7.63,-7.39,-7.60,5.20,5.19,5.20
50.96,12.80,7.63,12.80,7.63,-7.63,-7.36,-7.62,5.17,5.17,5.17
51.47,12.77,7.63,12.77,7.63,-7.63,-7.33,-7.64,5.14,5.14,5.14
51.99,12.75,7.64,12.75,7.63,-7.63,-7.30,-7.67,5.12,5.12,5.11
52.51,12.72,7.63,12.72,7.63,-7.63,-7.27,-7.70,5.09,5.09,5.09
53.03,12.70,7.63,12.70,7.64,-7.64,-7.24,-7.74,5.06,5.06,5.07
53.56,12.67,7.63,12.67,7.64,-7.64,-7.21,-7.77,5.03,5.03,5.04
54.10,12.66,7.65,12.65,7.64,-7.64,-7.19,-7.81,5.02,5.01,5.01
54.64,12.62,7.64,12.63,7.64,-7.64,-7.16,-7.84,4.98,4.98,4.98
55.18,12.60,7.65,12.60,7.65,-7.65,-7.14,-7.88,4.95,4.96,4.95
55.74,12.58,7.66,12.58,7.65,-7.65,-7.11,-7.91,4.93,4.93,4.92
56.29,12.55,7.65,12.55,7.66,-7.66,-7.09,-7.95,4.90,4.90,4.90
56.86,12.53,7.66,12.53,7.66,-7.66,-7.06,-7.98,4.87,4.87,4.87
57.42,12.51,7.67,12.51,7.66,-7.66,-7.04,-8.01,4.85,4.84,4.84
58.00,12.48,7.67,12.48,7.67,-7.67,-7.02,-8.04,4.81,4.81,4.82
58.58,12.46,7.68,12.46,7.68,-7.68,-7.00,-8.06,4.79,4.78,4.78
59.16,12.44,7.68,12.44,7.68,-7.68,-6.98,-8.08,4.76,4.75,4.76
59.76,12.41,7.68,12.41,7.69,-7.69,-6.96,-8.10,4.72,4.72,4.73
60.35,12.39,7.69,12.38,7.69,-7.69,-6.94,-8.11,4.70,4.69,4.70
60.96,12.35,7.67,12.36,7.70,-7.70,-6.93,-8.11,4.65,4.66,4.68
61.57,12.33,7.70,12.33,7.70,-7.70,-6.91,-8.12,4.63,4.63,4.63
62.18,12.31,7.72,12.31,7.71,-7.71,-6.90,-8.11,4.60,4.60,4.59
62.80,12.28,7.72,12.28,7.71,-7.71,-6.89,-8.10,4.57,4.57,4.56
63.43,12.25,7.73,12.25,7.71,-7.71,-6.87,-8.08,4.54,4.54,4.52
64.07,12.22,7.73,12.22,7.72,-7.72,-6.86,-8.06,4.50,4.51,4.49
64.71,12.19,7.72,12.19,7.72,-7.72,-6.85,-8.03,4.47,4.47,4.47
65.35,12.16,7.72,12.16,7.72,-7.72,-6.85,-8.00,4.44,4.44,4.44
66.01,12.13,7.72,12.13,7.72,-7.72,-6.84,-7.96,4.41,4.41,4.41
66.67,12.10,7.72,12.10,7.72,-7.72,-6.84,-7.92,4.38,4.38,4.38
67.33,12.07,7.72,12.07,7.72,-7.72,-6.83,-7.87,4.35,4.35,4.35
68.01,12.03,7.71,12.04,7.72,-7.72,-6.83,-7.82,4.31,4.32,4.32
68.69,12.00,7.71,12.00,7.71,-7.71,-6.83,-7.77,4.29,4.29,4.29
69.37,11.96,7.71,11.97,7.71,-7.71,-6.83,-7.71,4.25,4.26,4.25
70.07,11.93,7.71,11.93,7.71,-7.71,-6.84,-7.66,4.22,4.22,4.22
70.77,11.90,7.71,11.90,7.71,-7.71,-6.84,-7.60,4.19,4.19,4.19
71.48,11.86,7.71,11.86,7.71,-7.71,-6.85,-7.54,4.15,4.15,4.15
72.19,11.82,7.70,11.82,7.71,-7.71,-6.86,-7.48,4.11,4.11,4.12
72.91,11.79,7.71,11.79,7.71,-7.71,-6.87,-7.42,4.08,4.07,4.08
73.64,11.75,7.72,11.75,7.71,-7.71,-6.88,-7.36,4.04,4.03,4.03
74.38,11.70,7.70,11.71,7.71,-7.71,-6.90,-7.30,3.99,3.99,4.00
75.12,11.67,7.73,11.66,7.71,-7.71,-6.91,-7.25,3.96,3.95,3.94
75.87,11.62,7.72,11.62,7.72,-7.72,-6.93,-7.19,3.90,3.91,3.90
76.63,11.58,7.71,11.58,7.72,-7.72,-6.95,-7.14,3.86,3.86,3.87
77.40,11.53,7.71,11.54,7.72,-7.72,-6.98,-7.09,3.81,3.82,3.82
78.17,11.49,7.73,11.49,7.72,-7.72,-7.00,-7.05,3.77,3.77,3.76
78.95,11.45,7.72,11.44,7.72,-7.72,-7.03,-7.00,3.73,3.72,3.73
79.74,11.39,7.72,11.40,7.73,-7.73,-7.06,-6.97,3.66,3.67,3.67
80.54,11.34,7.72,11.35,7.73,-7.73,-7.09,-6.93,3.61,3.62,3.62
81.35,11.30,7.73,11.30,7.73,-7.73,-7.12,-6.90,3.57,3.57,3.57
82.16,11.25,7.74,11.25,7.73,-7.73,-7.16,-6.88,3.52,3.51,3.51
82.98,11.20,7.73,11.20,7.73,-7.73,-7.20,-6.85,3.47,3.46,3.47
83.81,11.15,7.75,11.14,7.74,-7.74,-7.24,-6.84,3.41,3.41,3.40
84.65,11.08,7.74,11.09,7.74,-7.74,-7.28,-6.83,3.34,3.35,3.34
85.50,11.03,7.74,11.03,7.74,-7.74,-7.32,-6.82,3.29,3.29,3.30
86.35,10.97,7.73,10.97,7.74,-7.74,-7.37,-6.82,3.23,3.24,3.24
87.22,10.91,7.73,10.91,7.74,-7.74,-7.41,-6.82,3.18,3.18,3.18
88.09,10.86,7.74,10.85,7.74,-7.74,-7.46,-6.83,3.13,3.12,3.12
88.97,10.79,7.73,10.79,7.73,-7.73,-7.51,-6.84,3.06,3.06,3.06
89.86,10.73,7.73,10.73,7.73,-7.73,-7.56,-6.86,3.00,3.00,3.00
90.76,10.67,7.74,10.67,7.73,-7.73,-7.61,-6.88,2.94,2.94,2.93
91.66,10.60,7.72,10.60,7.72,-7.72,-7.67,-6.91,2.88,2.88,2.88
92.58,10.53,7.73,10.54,7.72,-7.72,-7.72,-6.94,2.81,2.82,2.80
93.51,10.46,7.70,10.47,7.72,-7.72,-7.77,-6.98,2.74,2.75,2.76
94.44,10.41,7.72,10.40,7.71,-7.71,-7.83,-7.02,2.70,2.69,2.69
95.39,10.33,7.70,10.33,7.71,-7.71,-7.88,-7.07,2.62,2.62,2.63
96.34,10.26,7.71,10.26,7.71,-7.71,-7.93,-7.12,2.55,2.55,2.55
97.30,10.19,7.70,10.19,7.70,-7.70,-7.99,-7.18,2.49,2.49,2.49
98.28,10.12,7.70,10.12,7.70,-7.70,-8.04,-7.24,2.42,2.42,2.42
99.26,10.04,7.70,10.05,7.70,-7.70,-8.08,-7.30,2.34,2.35,2.34
100.25,9.97,7.69,9.97,7.69,-7.69,-8.13,-7.37,2.28,2.28,2.28
101.25,9.90,7.69,9.89,7.69,-7.69,-8.17,-7.44,2.21,2.21,2.21
102.27,9.82,7.69,9.82,7.68,-7.68,-8.21,-7.51,2.14,2.14,2.13
103.29,9.74,7.69,9.74,7.68,-7.68,-8.25,-7.58,2.06,2.06,2.05
104.32,9.66,7.67,9.66,7.67,-7.67,-8.28,-7.66,1.99,1.99,1.99
105.37,9.58,7.66,9.58,7.66,-7.66,-8.31,-7.74,1.92,1.91,1.92
106.42,9.49,7.65,9.50,7.66,-7.66,-8.33,-7.81,1.83,1.84,1.84
107.48,9.41,7.65,9.41,7.65,-7.65,-8.35,-7.89,1.76,1.76,1.76
108.56,9.33,7.65,9.33,7.64,-7.64,-8.36,-7.97,1.69,1.69,1.69
109.64,9.24,7.63,9.24,7.64,-7.64,-8.36,-8.04,1.60,1.61,1.61
110.74,9.16,7.62,9.16,7.63,-7.63,-8.36,-8.12,1.53,1.53,1.54
111.85,9.07,7.61,9.07,7.62,-7.62,-8.35,-8.19,1.45,1.45,1.46
112.97,8.98,7.61,8.98,7.61,-7.61,-8.33,-8.25,1.37,1.38,1.37
114.10,8.89,7.59,8.89,7.60,-7.60,-8.31,-8.31,1.30,1.30,1.30
115.24,8.81,7.59,8.80,7.58,-7.58,-8.28,-8.36,1.23,1.22,1.22
116.39,8.72,7.58,8.71,7.57,-7.57,-8.24,-8.41,1.15,1.15,1.14
117.55,8.62,7.56,8.62,7.55,-7.55,-8.19,-8.45,1.07,1.07,1.06
118.73,8.53,7.54,8.53,7.54,-7.54,-8.14,-8.47,0.99,1.00,0.99
119.92,8.44,7.52,8.44,7.52,-7.52,-8.08,-8.49,0.92,0.92,0.92
121.12,8.34,7.49,8.35,7.50,-7.50,-8.02,-8.50,0.84,0.85,0.85
122.33,8.25,7.47,8.25,7.48,-7.48,-7.95,-8.50,0.77,0.78,0.78
123.55,8.16,7.45,8.16,7.45,-7.45,-7.88,-8.48,0.71,0.71,0.71
124.79,8.06,7.42,8.06,7.43,-7.43,-7.80,-8.46,0.63,0.64,0.64
126.03,7.96,7.38,7.97,7.40,-7.40,-7.71,-8.42,0.56,0.57,0.58
127.29,7.87,7.36,7.87,7.37,-7.37,-7.63,-8.37,0.50,0.50,0.51
128.57,7.77,7.34,7.77,7.33,-7.33,-7.54,-8.30,0.44,0.44,0.43
129.85,7.68,7.31,7.67,7.29,-7.29,-7.44,-8.23,0.39,0.37,0.37
131.15,7.57,7.26,7.57,7.25,-7.25,-7.35,-8.14,0.32,0.31,0.31
132.46,7.47,7.23,7.46,7.21,-7.21,-7.25,-8.05,0.26,0.25,0.24
133.79,7.36,7.16,7.36,7.16,-7.16,-7.16,-7.94,0.20,0.19,0.20
135.12,7.25,7.12,7.25,7.11,-7.11,-7.06,-7.83,0.14,0.14,0.13
136.48,7.14,7.05,7.14,7.05,-7.05,-6.96,-7.71,0.09,0.09,0.09
137.84,7.02,6.98,7.03,6.99,-6.99,-6.87,-7.58,0.03,0.04,0.04
139.22,6.92,6.94,6.92,6.93,-6.93,-6.77,-7.44,-0.01,-0.01,-0.02
140.61,6.80,6.87,6.80,6.86,-6.86,-6.68,-7.30,-0.06,-0.06,-0.07
142.02,6.69,6.78,6.69,6.79,-6.79,-6.59,-7.15,-0.10,-0.10,-0.09
143.44,6.57,6.70,6.57,6.71,-6.71,-6.50,-7.00,-0.14,-0.14,-0.13
144.87,6.45,6.63,6.46,6.64,-6.64,-6.41,-6.85,-0.19,-0.18,-0.18
146.32,6.34,6.56,6.34,6.56,-6.56,-6.33,-6.70,-0.22,-0.22,-0.22
147.78,6.22,6.47,6.23,6.48,-6.48,-6.24,-6.54,-0.26,-0.26,-0.25
149.26,6.11,6.40,6.11,6.40,-6.40,-6.17,-6.38,-0.29,-0.29,-0.28
150.75,5.99,6.32,5.99,6.32,-6.32,-6.09,-6.22,-0.33,-0.33,-0.33
152.26,5.87,6.24,5.88,6.24,-6.24,-6.02,-6.07,-0.37,-0.36,-0.36
153.78,5.76,6.16,5.76,6.16,-6.16,-5.95,-5.91,-0.40,-0.40,-0.40
155.32,5.65,6.08,5.65,6.08,-6.08,-5.88,-5.76,-0.43,-0.43,-0.43
156.88,5.53,5.99,5.53,6.00,-6.00,-5.82,-5.60,-0.47,-0.47,-0.46
158.44,5.41,5.91,5.41,5.92,-5.92,-5.75,-5.45,-0.51,-0.50,-0.50
160.03,5.30,5.84,5.30,5.83,-5.83,-5.69,-5.30,-0.53,-0.54,-0.54
161.63,5.17,5.75,5.18,5.75,-5.75,-5.63,-5.15,-0.58,-0.57,-0.58
163.24,5.06,5.67,5.06,5.66,-5.66,-5.57,-5.01,-0.60,-0.61,-0.61
164.88,4.94,5.58,4.94,5.58,-5.58,-5.52,-4.86,-0.64,-0.64,-0.64
166.53,4.82,5.49,4.82,5.49,-5.49,-5.46,-4.72,-0.67,-0.68,-0.67
168.19,4.69,5.41,4.69,5.41,-5.41,-5.39,-4.59,-0.71,-0.71,-0.72
169.87,4.57,5.32,4.57,5.32,-5.32,-5.33,-4.45,-0.75,-0.75,-0.75
171.57,4.44,5.22,4.44,5.23,-5.23,-5.26,-4.32,-0.79,-0.79,-0.78
173.29,4.31,5.13,4.31,5.14,-5.14,-5.19,-4.19,-0.83,-0.83,-0.81
175.02,4.18,5.04,4.18,5.04,-5.04,-5.12,-4.07,-0.86,-0.87,-0.86
176.77,4.05,4.96,4.05,4.95,-4.95,-5.04,-3.94,-0.90,-0.90,-0.91
178.54,3.91,4.86,3.91,4.85,-4.85,-4.95,-3.82,-0.94,-0.94,-0.95
180.32,3.77,4.75,3.77,4.75,-4.75,-4.86,-3.71,-0.98,-0.98,-0.98
182.13,3.63,4.65,3.63,4.65,-4.65,-4.76,-3.59,-1.02,-1.02,-1.02
183.95,3.48,4.55,3.49,4.55,-4.55,-4.66,-3.48,-1.07,-1.06,-1.07
185.79,3.34,4.45,3.34,4.44,-4.44,-4.55,-3.37,-1.10,-1.10,-1.10
187.65,3.20,4.35,3.19,4.33,-4.33,-4.43,-3.26,-1.13,-1.14,-1.15
189.52,3.04,4.23,3.04,4.22,-4.22,-4.31,-3.16,-1.18,-1.18,-1.18
191.42,2.89,4.11,2.89,4.10,-4.10,-4.18,-3.06,-1.21,-1.21,-1.22
193.33,2.74,3.98,2.73,3.98,-3.98,-4.05,-2.96,-1.24,-1.25,-1.24
195.27,2.58,3.86,2.57,3.86,-3.86,-3.92,-2.86,-1.27,-1.28,-1.27
197.22,2.42,3.73,2.41,3.73,-3.73,-3.78,-2.77,-1.31,-1.31,-1.31
199.19,2.26,3.62,2.25,3.60,-3.60,-3.65,-2.68,-1.34,-1.34,-1.36
201.18,2.11,3.49,2.09,3.46,-3.46,-3.51,-2.59,-1.35,-1.37,-1.38
203.19,1.94,3.34,1.93,3.33,-3.33,-3.37,-2.50,-1.39,-1.40,-1.40
205.23,1.78,3.21,1.78,3.20,-3.20,-3.23,-2.42,-1.42,-1.42,-1.43
207.28,1.62,3.05,1.62,3.07,-3.07,-3.09,-2.33,-1.45,-1.45,-1.43
209.35,1.46,2.93,1.47,2.94,-2.94,-2.96,-2.25,-1.48,-1.47,-1.47
211.44,1.32,2.82,1.33,2.82,-2.82,-2.82,-2.17,-1.50,-1.49,-1.50
213.56,1.17,2.69,1.19,2.71,-2.71,-2.69,-2.10,-1.54,-1.51,-1.52
215.69,1.04,2.56,1.06,2.59,-2.59,-2.56,-2.02,-1.55,-1.53,-1.52
217.85,0.91,2.45,0.94,2.49,-2.49,-2.43,-1.94,-1.58,-1.54,-1.54
220.03,0.80,2.36,0.83,2.38,-2.38,-2.30,-1.87,-1.58,-1.56,-1.56
222.23,0.70,2.28,0.72,2.28,-2.28,-2.18,-1.80,-1.58,-1.57,-1.58
224.45,0.61,2.18,0.62,2.19,-2.19,-2.06,-1.73,-1.58,-1.57,-1.57
226.70,0.52,2.11,0.52,2.10,-2.10,-1.94,-1.66,-1.58,-1.58,-1.58
228.96,0.44,2.03,0.43,2.01,-2.01,-1.83,-1.59,-1.57,-1.58,-1.59
231.25,0.35,1.93,0.34,1.92,-1.92,-1.71,-1.53,-1.57,-1.58,-1.58
233.57,0.27,1.84,0.25,1.83,-1.83,-1.60,-1.46,-1.56,-1.58,-1.57
235.90,0.18,1.75,0.17,1.74,-1.74,-1.50,-1.40,-1.56,-1.57,-1.57
238.26,0.10,1.68,0.09,1.66,-1.66,-1.39,-1.33,-1.56,-1.57,-1.58
240.64,0.01,1.57,0.01,1.56,-1.56,-1.29,-1.27,-1.55,-1.56,-1.56
243.05,-0.07,1.48,-0.07,1.47,-1.47,-1.19,-1.21,-1.54,-1.54,-1.55
245.48,-0.16,1.37,-0.16,1.37,-1.37,-1.09,-1.15,-1.53,-1.53,-1.53
247.93,-0.25,1.27,-0.24,1.27,-1.27,-0.99,-1.09,-1.52,-1.52,-1.52
250.41,-0.33,1.18,-0.33,1.17,-1.17,-0.90,-1.03,-1.50,-1.50,-1.51
252.92,-0.41,1.07,-0.42,1.06,-1.06,-0.80,-0.97,-1.47,-1.48,-1.48
255.45,-0.51,0.95,-0.51,0.95,-0.95,-0.71,-0.91,-1.46,-1.46,-1.45
258.00,-0.59,0.84,-0.60,0.85,-0.85,-0.62,-0.85,-1.43,-1.44,-1.43
260.58,-0.68,0.74,-0.69,0.73,-0.73,-0.53,-0.79,-1.41,-1.42,-1.42
263.19,-0.77,0.63,-0.78,0.62,-0.62,-0.45,-0.74,-1.39,-1.40,-1.40
265.82,-0.86,0.52,-0.87,0.51,-0.51,-0.36,-0.68,-1.37,-1.37,-1.38
268.48,-0.96,0.39,-0.96,0.39,-0.39,-0.28,-0.62,-1.35,-1.35,-1.35
271.16,-1.05,0.27,-1.05,0.28,-0.28,-0.20,-0.57,-1.33,-1.33,-1.32
273.87,-1.15,0.16,-1.14,0.16,-0.16,-0.11,-0.51,-1.31,-1.31,-1.31
276.61,-1.24,0.03,-1.24,0.05,-0.05,-0.03,-0.45,-1.29,-1.28,-1.27
279.38,-1.33,-0.07,-1.33,-0.07,0.07,0.04,-0.40,-1.26,-1.26,-1.26
282.17,-1.42,-0.18,-1.42,-0.18,0.18,0.12,-0.34,-1.24,-1.24,-1.24
284.99,-1.51,-0.30,-1.51,-0.30,0.30,0.20,-0.29,-1.21,-1.21,-1.21
287.84,-1.60,-0.41,-1.59,-0.41,0.41,0.28,-0.23,-1.19,-1.18,-1.19
290.72,-1.68,-0.53,-1.68,-0.52,0.52,0.35,-0.17,-1.16,-1.16,-1.15
293.63,-1.76,-0.62,-1.76,-0.63,0.63,0.43,-0.12,-1.13,-1.13,-1.14
296.57,-1.84,-0.74,-1.84,-0.74,0.74,0.50,-0.06,-1.10,-1.10,-1.10
299.53,-1.92,-0.84,-1.92,-0.85,0.85,0.57,-0.00,-1.07,-1.07,-1.08
302.53,-2.00,-0.95,-1.99,-0.95,0.95,0.65,0.06,-1.05,-1.04,-1.05
305.55,-2.07,-1.06,-2.06,-1.05,1.05,0.72,0.11,-1.02,-1.01,-1.01
308.61,-2.13,-1.15,-2.13,-1.15,1.15,0.79,0.17,-0.98,-0.98,-0.98
311.69,-2.20,-1.25,-2.20,-1.25,1.25,0.86,0.23,-0.95,-0.95,-0.95
314.81,-2.26,-1.35,-2.26,-1.34,1.34,0.93,0.29,-0.92,-0.92,-0.91
317.96,-2.32,-1.44,-2.32,-1.43,1.43,1.00,0.35,-0.89,-0.89,-0.88
321.14,-2.37,-1.51,-2.38,-1.52,1.52,1.07,0.41,-0.85,-0.86,-0.86
324.35,-2.43,-1.60,-2.43,-1.60,1.60,1.14,0.47,-0.83,-0.83,-0.83
327.59,-2.48,-1.69,-2.48,-1.68,1.68,1.20,0.53,-0.80,-0.80,-0.79
330.87,-2.53,-1.76,-2.53,-1.76,1.76,1.27,0.60,-0.77,-0.77,-0.77
334.18,-2.58,-1.83,-2.58,-1.83,1.83,1.34,0.66,-0.75,-0.75,-0.75
337.52,-2.61,-1.89,-2.62,-1.90,1.90,1.40,0.73,-0.71,-0.72,-0.72
340.90,-2.65,-1.95,-2.66,-1.96,1.96,1.47,0.79,-0.69,-0.70,-0.70
344.30,-2.70,-2.02,-2.70,-2.02,2.02,1.53,0.86,-0.68,-0.68,-0.68
347.75,-2.73,-2.08,-2.73,-2.07,2.07,1.59,0.92,-0.66,-0.66,-0.65
351.23,-2.76,-2.12,-2.76,-2.12,2.12,1.65,0.99,-0.64,-0.64,-0.63
354.74,-2.79,-2.17,-2.78,-2.16,2.16,1.72,1.06,-0.63,-0.62,-0.62
358.28,-2.81,-2.21,-2.80,-2.20,2.20,1.78,1.13,-0.61,-0.60,-0.60
361.87,-2.82,-2.24,-2.81,-2.23,2.23,1.83,1.20,-0.59,-0.58,-0.58
365.49,-2.83,-2.27,-2.82,-2.26,2.26,1.89,1.28,-0.57,-0.56,-0.55
369.14,-2.83,-2.28,-2.83,-2.28,2.28,1.95,1.35,-0.55,-0.54,-0.55
372.83,-2.83,-2.30,-2.83,-2.30,2.30,2.01,1.42,-0.52,-0.52,-0.53
376.56,-2.82,-2.31,-2.82,-2.32,2.32,2.06,1.50,-0.50,-0.50,-0.51
380.33,-2.82,-2.34,-2.82,-2.33,2.33,2.11,1.57,-0.49,-0.48,-0.48
384.13,-2.80,-2.34,-2.81,-2.34,2.34,2.17,1.65,-0.46,-0.47,-0.46
387.97,-2.79,-2.34,-2.79,-2.35,2.35,2.22,1.73,-0.44,-0.45,-0.45
391.85,-2.77,-2.34,-2.77,-2.35,2.35,2.27,1.80,-0.42,-0.42,-0.43
395.77,-2.76,-2.36,-2.76,-2.35,2.35,2.32,1.88,-0.41,-0.40,-0.40
399.73,-2.73,-2.35,-2.73,-2.35,2.35,2.36,1.96,-0.38,-0.38,-0.38
403.72,-2.71,-2.35,-2.71,-2.35,2.35,2.41,2.04,-0.36,-0.36,-0.36
407.76,-2.69,-2.35,-2.69,-2.35,2.35,2.45,2.12,-0.34,-0.34,-0.34
411.84,-2.67,-2.35,-2.66,-2.34,2.34,2.49,2.20,-0.33,-0.32,-0.32
415.96,-2.63,-2.33,-2.63,-2.33,2.33,2.53,2.27,-0.29,-0.30,-0.30
420.12,-2.61,-2.33,-2.60,-2.33,2.33,2.57,2.35,-0.28,-0.28,-0.28
424.32,-2.58,-2.33,-2.57,-2.32,2.32,2.61,2.43,-0.26,-0.25,-0.25
428.56,-2.55,-2.32,-2.55,-2.32,2.32,2.64,2.50,-0.23,-0.23,-0.23
432.85,-2.52,-2.31,-2.52,-2.31,2.31,2.67,2.58,-0.21,-0.21,-0.21
437.18,-2.49,-2.31,-2.49,-2.31,2.31,2.70,2.65,-0.18,-0.18,-0.18
441.55,-2.45,-2.30,-2.46,-2.31,2.31,2.73,2.72,-0.14,-0.16,-0.15
445.96,-2.42,-2.28,-2.44,-2.31,2.31,2.76,2.78,-0.11,-0.13,-0.13
450.42,-2.40,-2.28,-2.41,-2.31,2.31,2.78,2.85,-0.09,-0.11,-0.12
454.93,-2.39,-2.31,-2.39,-2.31,2.31,2.80,2.91,-0.08,-0.08,-0.08
459.48,-2.37,-2.31,-2.37,-2.31,2.31,2.82,2.96,-0.06,-0.05,-0.06
464.07,-2.35,-2.32,-2.34,-2.32,2.32,2.84,3.02,-0.03,-0.03,-0.03
468.71,-2.33,-2.34,-2.32,-2.32,2.32,2.85,3.07,-0.00,0.00,0.01
473.40,-2.31,-2.34,-2.30,-2.33,2.33,2.87,3.11,0.02,0.03,0.03
478.13,-2.29,-2.35,-2.28,-2.34,2.34,2.88,3.15,0.05,0.06,0.06
