frequency,raw,error,smoothed,error_smoothed,equalization,parametric_eq,fixed_band_eq,equalized_raw,equalized_smoothed,target
20.00,-2.24,-4.92,-2.16,-4.87,4.87,4.17,2.08,2.63,2.71,2.68
20.20,-2.15,-4.88,-2.11,-4.85,4.85,4.23,2.14,2.70,2.74,2.73
20.40,-2.07,-4.85,-2.06,-4.83,4.83,4.28,2.20,2.76,2.78,2.78
20.61,-1.98,-4.79,-2.01,-4.82,4.82,4.33,2.26,2.84,2.81,2.81
20.81,-1.90,-4.76,-1.96,-4.81,4.81,4.38,2.33,2.91,2.84,2.86
21.02,-1.82,-4.72,-1.92,-4.79,4.79,4.43,2.40,2.97,2.87,2.90
21.23,-1.82,-4.74,-1.89,-4.78,4.78,4.48,2.46,2.96,2.89,2.91
21.44,-1.82,-4.76,-1.85,-4.77,4.77,4.52,2.53,2.95,2.92,2.93
21.66,-1.82,-4.77,-1.82,-4.76,4.76,4.57,2.61,2.94,2.94,2.95
21.87,-1.82,-4.78,-1.80,-4.75,4.75,4.61,2.68,2.93,2.95,2.96
22.09,-1.81,-4.79,-1.77,-4.74,4.74,4.64,2.76,2.93,2.97,2.98
22.31,-1.79,-4.78,-1.75,-4.74,4.74,4.68,2.84,2.94,2.98,2.99
22.54,-1.77,-4.76,-1.75,-4.73,4.73,4.71,2.92,2.96,2.99,2.99
22.76,-1.74,-4.73,-1.74,-4.74,4.74,4.74,3.00,2.99,2.99,2.99
22.99,-1.72,-4.70,-1.74,-4.74,4.74,4.77,3.08,3.02,2.99,2.98
23.22,-1.72,-4.70,-1.74,-4.74,4.74,4.79,3.17,3.02,2.99,2.98
23.45,-1.72,-4.70,-1.74,-4.74,4.74,4.81,3.26,3.01,2.99,2.98
23.69,-1.72,-4.71,-1.73,-4.73,4.73,4.83,3.35,3.01,2.99,2.99
23.92,-1.72,-4.71,-1.73,-4.72,4.72,4.84,3.44,3.00,2.99,2.99
24.16,-1.72,-4.72,-1.72,-4.71,4.71,4.85,3.53,2.99,2.99,3.00
24.40,-1.72,-4.73,-1.71,-4.70,4.70,4.86,3.63,2.98,2.99,3.00
24.65,-1.72,-4.72,-1.70,-4.69,4.69,4.86,3.72,2.97,2.99,2.99
24.89,-1.72,-4.71,-1.69,-4.68,4.68,4.86,3.82,2.96,2.99,2.99
25.14,-1.71,-4.70,-1.68,-4.67,4.67,4.86,3.92,2.96,2.99,2.99
25.39,-1.68,-4.68,-1.66,-4.66,4.66,4.86,4.01,2.98,3.00,3.00
25.65,-1.65,-4.65,-1.64,-4.64,4.64,4.85,4.11,2.99,3.00,3.00
25.91,-1.63,-4.62,-1.63,-4.62,4.62,4.84,4.21,2.99,3.00,2.99
26.16,-1.60,-4.59,-1.61,-4.60,4.60,4.82,4.31,3.00,2.99,2.99
26.43,-1.58,-4.57,-1.59,-4.58,4.58,4.81,4.40,3.00,2.99,2.99
26.69,-1.55,-4.54,-1.57,-4.56,4.56,4.79,4.50,3.01,2.99,2.99
26.96,-1.52,-4.52,-1.56,-4.54,4.54,4.76,4.59,3.02,2.99,2.99
27.23,-1.52,-4.51,-1.54,-4.53,4.53,4.74,4.69,3.00,2.98,2.99
27.50,-1.52,-4.51,-1.53,-4.51,4.51,4.71,4.78,2.99,2.98,2.99
27.77,-1.52,-4.50,-1.52,-4.50,4.50,4.69,4.86,2.98,2.98,2.98
28.05,-1.52,-4.50,-1.51,-4.49,4.49,4.66,4.95,2.97,2.98,2.98
28.33,-1.52,-4.49,-1.52,-4.49,4.49,4.62,5.02,2.97,2.98,2.97
28.62,-1.52,-4.49,-1.52,-4.50,4.50,4.59,5.10,2.98,2.97,2.96
28.90,-1.52,-4.49,-1.53,-4.50,4.50,4.56,5.17,2.98,2.97,2.97
29.19,-1.52,-4.48,-1.53,-4.50,4.50,4.52,5.23,2.98,2.97,2.96
29.48,-1.52,-4.50,-1.53,-4.50,4.50,4.48,5.29,2.98,2.97,2.98
29.78,-1.52,-4.49,-1.53,-4.50,4.50,4.45,5.34,2.98,2.97,2.97
30.08,-1.52,-4.50,-1.53,-4.49,4.49,4.41,5.38,2.97,2.96,2.98
30.38,-1.54,-4.50,-1.52,-4.48,4.48,4.37,5.42,2.94,2.96,2.96
30.68,-1.56,-4.52,-1.51,-4.47,4.47,4.33,5.45,2.91,2.96,2.96
30.99,-1.58,-4.54,-1.50,-4.46,4.46,4.29,5.47,2.88,2.96,2.96
31.30,-1.53,-4.49,-1.49,-4.45,4.45,4.25,5.49,2.92,2.96,2.96
31.61,-1.48,-4.43,-1.48,-4.44,4.44,4.21,5.49,2.96,2.95,2.95
31.93,-1.43,-4.38,-1.47,-4.42,4.42,4.18,5.49,2.99,2.95,2.95
32.24,-1.42,-4.36,-1.46,-4.41,4.41,4.14,5.48,2.99,2.95,2.94
32.57,-1.42,-4.37,-1.45,-4.39,4.39,4.10,5.47,2.97,2.94,2.95
32.89,-1.42,-4.36,-1.44,-4.38,4.38,4.06,5.45,2.96,2.93,2.94
33.22,-1.42,-4.35,-1.43,-4.36,4.36,4.03,5.42,2.94,2.93,2.93
33.55,-1.42,-4.35,-1.42,-4.35,4.35,3.99,5.39,2.93,2.92,2.93
33.89,-1.42,-4.33,-1.42,-4.34,4.34,3.96,5.35,2.91,2.92,2.91
34.23,-1.42,-4.34,-1.41,-4.33,4.33,3.93,5.30,2.90,2.91,2.92
34.57,-1.42,-4.33,-1.41,-4.32,4.32,3.90,5.25,2.90,2.91,2.91
34.92,-1.42,-4.32,-1.41,-4.32,4.32,3.87,5.20,2.90,2.90,2.90
35.27,-1.42,-4.32,-1.42,-4.32,4.32,3.84,5.15,2.90,2.90,2.90
35.62,-1.42,-4.32,-1.42,-4.32,4.32,3.81,5.09,2.90,2.90,2.90
35.97,-1.42,-4.31,-1.42,-4.32,4.32,3.79,5.03,2.89,2.89,2.89
36.33,-1.42,-4.32,-1.42,-4.31,4.31,3.77,4.97,2.89,2.89,2.90
36.70,-1.42,-4.30,-1.42,-4.31,4.31,3.75,4.90,2.89,2.89,2.88
37.06,-1.42,-4.30,-1.42,-4.31,4.31,3.73,4.84,2.89,2.89,2.88
37.43,-1.42,-4.31,-1.42,-4.31,4.31,3.71,4.78,2.89,2.89,2.89
37.81,-1.42,-4.31,-1.42,-4.31,4.31,3.70,4.72,2.89,2.89,2.89
38.19,-1.42,-4.30,-1.42,-4.31,4.31,3.69,4.65,2.89,2.89,2.88
38.57,-1.42,-4.31,-1.42,-4.31,4.31,3.68,4.59,2.89,2.89,2.89
38.95,-1.42,-4.31,-1.42,-4.31,4.31,3.67,4.53,2.89,2.89,2.89
39.34,-1.42,-4.31,-1.42,-4.31,4.31,3.67,4.47,2.88,2.88,2.89
39.74,-1.42,-4.30,-1.42,-4.30,4.30,3.67,4.42,2.88,2.88,2.88
40.14,-1.42,-4.30,-1.42,-4.30,4.30,3.67,4.36,2.88,2.88,2.88
40.54,-1.42,-4.30,-1.42,-4.30,4.30,3.67,4.31,2.88,2.88,2.88
40.94,-1.42,-4.29,-1.42,-4.29,4.29,3.68,4.26,2.87,2.87,2.87
41.35,-1.42,-4.28,-1.42,-4.29,4.29,3.69,4.21,2.87,2.87,2.86
41.76,-1.42,-4.28,-1.42,-4.28,4.28,3.70,4.17,2.86,2.86,2.86
42.18,-1.42,-4.28,-1.42,-4.27,4.27,3.71,4.13,2.85,2.85,2.86
42.60,-1.42,-4.26,-1.42,-4.26,4.26,3.73,4.09,2.84,2.84,2.84
43.03,-1.42,-4.25,-1.42,-4.24,4.24,3.75,4.05,2.82,2.82,2.83
43.46,-1.42,-4.25,-1.42,-4.24,4.24,3.77,4.02,2.81,2.81,2.82
43.90,-1.42,-4.22,-1.43,-4.23,4.23,3.80,3.99,2.81,2.80,2.80
44.33,-1.42,-4.20,-1.42,-4.21,4.21,3.82,3.97,2.79,2.78,2.78
44.78,-1.42,-4.18,-1.40,-4.17,4.17,3.85,3.94,2.75,2.77,2.76
45.23,-1.42,-4.17,-1.39,-4.15,4.15,3.88,3.92,2.73,2.75,2.75
45.68,-1.42,-4.15,-1.39,-4.13,4.13,3.92,3.91,2.71,2.74,2.73
46.13,-1.42,-4.13,-1.40,-4.12,4.12,3.95,3.89,2.70,2.72,2.71
46.60,-1.42,-4.13,-1.40,-4.11,4.11,3.98,3.88,2.69,2.70,2.71
47.06,-1.42,-4.11,-1.42,-4.10,4.10,4.02,3.87,2.68,2.69,2.69
47.53,-1.42,-4.09,-1.43,-4.10,4.10,4.05,3.87,2.68,2.67,2.67
48.01,-1.42,-4.09,-1.45,-4.10,4.10,4.09,3.86,2.68,2.65,2.67
48.49,-1.34,-3.99,-1.46,-4.10,4.10,4.12,3.86,2.76,2.64,2.65
48.97,-1.25,-3.88,-1.48,-4.11,4.11,4.15,3.87,2.85,2.62,2.63
49.46,-1.47,-4.07,-1.50,-4.11,4.11,4.18,3.87,2.64,2.61,2.60
49.96,-1.70,-4.28,-1.53,-4.12,4.12,4.21,3.88,2.42,2.59,2.58
50.46,-1.67,-4.25,-1.54,-4.12,4.12,4.23,3.88,2.45,2.58,2.57
50.96,-1.62,-4.18,-1.56,-4.12,4.12,4.25,3.89,2.50,2.56,2.56
51.47,-1.62,-4.16,-1.59,-4.13,4.13,4.26,3.90,2.51,2.54,2.53
51.99,-1.62,-4.14,-1.63,-4.15,4.15,4.27,3.92,2.53,2.53,2.52
52.51,-1.62,-4.13,-1.65,-4.16,4.16,4.27,3.93,2.54,2.51,2.51
53.03,-1.62,-4.13,-1.66,-4.16,4.16,4.27,3.94,2.53,2.50,2.50
53.56,-1.62,-4.11,-1.66,-4.14,4.14,4.25,3.95,2.52,2.48,2.49
54.10,-1.62,-4.09,-1.66,-4.12,4.12,4.24,3.97,2.50,2.47,2.47
54.64,-1.62,-4.07,-1.64,-4.09,4.09,4.21,3.98,2.47,2.45,2.45
55.18,-1.62,-4.06,-1.60,-4.04,4.04,4.18,3.99,2.42,2.44,2.44
55.74,-1.62,-4.04,-1.57,-4.00,4.00,4.14,4.00,2.38,2.43,2.42
56.29,-1.67,-4.08,-1.56,-3.97,3.97,4.09,4.01,2.29,2.41,2.41
56.86,-1.77,-4.16,-1.54,-3.93,3.93,4.04,4.02,2.16,2.39,2.39
57.42,-1.56,-3.91,-1.52,-3.89,3.89,3.98,4.02,2.33,2.37,2.36
58.00,-1.24,-3.58,-1.49,-3.84,3.84,3.91,4.02,2.60,2.35,2.34
58.58,-1.34,-3.67,-1.47,-3.79,3.79,3.84,4.02,2.45,2.32,2.33
59.16,-1.42,-3.73,-1.46,-3.75,3.75,3.77,4.01,2.33,2.29,2.30
59.76,-1.42,-3.70,-1.45,-3.71,3.71,3.69,4.00,2.29,2.26,2.28
60.35,-1.42,-3.65,-1.44,-3.66,3.66,3.60,3.99,2.24,2.22,2.23
60.96,-1.42,-3.62,-1.43,-3.61,3.61,3.52,3.97,2.19,2.19,2.20
61.57,-1.42,-3.57,-1.42,-3.56,3.56,3.43,3.95,2.14,2.15,2.15
62.18,-1.42,-3.52,-1.41,-3.51,3.51,3.34,3.92,2.09,2.10,2.10
62.80,-1.42,-3.47,-1.40,-3.46,3.46,3.25,3.89,2.04,2.06,2.05
63.43,-1.42,-3.42,-1.40,-3.41,3.41,3.16,3.85,1.99,2.01,2.00
64.07,-1.43,-3.38,-1.41,-3.37,3.37,3.07,3.81,1.94,1.96,1.95
64.71,-1.55,-3.45,-1.41,-3.32,3.32,2.97,3.76,1.77,1.91,1.90
65.35,-1.50,-3.36,-1.39,-3.24,3.24,2.88,3.71,1.75,1.86,1.86
66.01,-1.32,-3.12,-1.37,-3.18,3.18,2.79,3.65,1.86,1.80,1.80
66.67,-1.32,-3.07,-1.37,-3.12,3.12,2.70,3.59,1.80,1.75,1.75
67.33,-1.32,-3.01,-1.37,-3.06,3.06,2.62,3.53,1.74,1.70,1.69
68.01,-1.32,-2.97,-1.37,-3.01,3.01,2.53,3.46,1.69,1.64,1.65
68.69,-1.32,-2.91,-1.37,-2.96,2.96,2.45,3.39,1.64,1.59,1.59
69.37,-1.32,-2.85,-1.38,-2.91,2.91,2.36,3.31,1.59,1.53,1.53
70.07,-1.32,-2.79,-1.39,-2.86,2.86,2.28,3.24,1.54,1.47,1.47
70.77,-1.36,-2.78,-1.39,-2.80,2.80,2.20,3.16,1.44,1.41,1.42
71.48,-1.41,-2.77,-1.39,-2.73,2.73,2.13,3.07,1.32,1.35,1.36
72.19,-1.47,-2.76,-1.39,-2.68,2.68,2.05,2.99,1.20,1.29,1.29
72.91,-1.51,-2.74,-1.42,-2.64,2.64,1.98,2.91,1.13,1.22,1.22
73.64,-1.52,-2.68,-1.45,-2.61,2.61,1.91,2.82,1.09,1.16,1.16
74.38,-1.52,-2.62,-1.48,-2.58,2.58,1.84,2.73,1.05,1.10,1.10
75.12,-1.52,-2.55,-1.50,-2.54,2.54,1.78,2.64,1.02,1.03,1.03
75.87,-1.52,-2.48,-1.53,-2.50,2.50,1.71,2.55,0.98,0.97,0.96
76.63,-1.49,-2.39,-1.55,-2.46,2.46,1.65,2.46,0.97,0.91,0.90
77.40,-1.43,-2.28,-1.58,-2.43,2.43,1.59,2.37,1.00,0.85,0.84
78.17,-1.41,-2.19,-1.61,-2.40,2.40,1.53,2.28,0.99,0.79,0.77
78.95,-1.61,-2.35,-1.63,-2.36,2.36,1.48,2.19,0.75,0.73,0.73
79.74,-1.81,-2.48,-1.65,-2.32,2.32,1.42,2.11,0.51,0.67,0.67
80.54,-1.83,-2.45,-1.68,-2.29,2.29,1.37,2.02,0.46,0.62,0.62
81.35,-1.77,-2.33,-1.71,-2.27,2.27,1.31,1.93,0.50,0.56,0.56
82.16,-1.72,-2.22,-1.75,-2.25,2.25,1.26,1.84,0.53,0.50,0.50
82.98,-1.72,-2.18,-1.79,-2.24,2.24,1.22,1.76,0.51,0.45,0.45
83.81,-1.80,-2.19,-1.83,-2.22,2.22,1.17,1.67,0.42,0.39,0.39
84.65,-1.85,-2.18,-1.86,-2.19,2.19,1.12,1.58,0.34,0.33,0.33
85.50,-1.89,-2.17,-1.88,-2.16,2.16,1.08,1.50,0.27,0.28,0.28
86.35,-1.87,-2.09,-1.90,-2.12,2.12,1.03,1.42,0.25,0.22,0.22
87.22,-1.80,-1.97,-1.92,-2.08,2.08,0.99,1.33,0.28,0.16,0.16
88.09,-1.91,-2.01,-1.92,-2.02,2.02,0.95,1.25,0.11,0.10,0.10
88.97,-2.02,-2.06,-1.92,-1.96,1.96,0.91,1.17,-0.06,0.04,0.04
89.86,-2.00,-1.98,-1.92,-1.90,1.90,0.87,1.09,-0.10,-0.02,-0.02
90.76,-1.94,-1.86,-1.91,-1.83,1.83,0.83,1.01,-0.11,-0.08,-0.08
91.66,-1.86,-1.73,-1.88,-1.74,1.74,0.79,0.94,-0.12,-0.14,-0.13
92.58,-1.80,-1.59,-1.83,-1.63,1.63,0.75,0.86,-0.17,-0.20,-0.21
93.51,-1.74,-1.48,-1.77,-1.51,1.51,0.72,0.78,-0.23,-0.26,-0.26
94.44,-1.75,-1.43,-1.69,-1.37,1.37,0.68,0.71,-0.38,-0.32,-0.32
95.39,-1.78,-1.41,-1.61,-1.23,1.23,0.64,0.63,-0.55,-0.38,-0.37
96.34,-1.64,-1.20,-1.52,-1.08,1.08,0.61,0.56,-0.56,-0.44,-0.44
97.30,-1.45,-0.96,-1.41,-0.92,0.92,0.57,0.49,-0.53,-0.49,-0.49
98.28,-1.30,-0.75,-1.30,-0.75,0.75,0.54,0.42,-0.55,-0.55,-0.55
99.26,-1.13,-0.52,-1.20,-0.59,0.59,0.51,0.35,-0.54,-0.61,-0.61
100.25,-1.03,-0.37,-1.11,-0.45,0.45,0.47,0.28,-0.58,-0.67,-0.67
101.25,-0.96,-0.24,-1.05,-0.32,0.32,0.44,0.21,-0.64,-0.72,-0.72
102.27,-0.91,-0.13,-0.98,-0.19,0.19,0.41,0.14,-0.72,-0.78,-0.78
103.29,-0.85,-0.00,-0.90,-0.06,0.06,0.38,0.08,-0.79,-0.84,-0.85
104.32,-0.80,0.09,-0.85,0.05,-0.05,0.34,0.01,-0.85,-0.90,-0.90
105.37,-0.78,0.17,-0.81,0.15,-0.15,0.31,-0.05,-0.93,-0.96,-0.95
106.42,-0.77,0.24,-0.80,0.22,-0.22,0.28,-0.12,-0.99,-1.02,-1.01
107.48,-0.79,0.29,-0.84,0.25,-0.25,0.25,-0.18,-1.04,-1.08,-1.08
108.56,-0.89,0.26,-0.88,0.26,-0.26,0.22,-0.24,-1.16,-1.15,-1.15
109.64,-1.03,0.17,-0.92,0.29,-0.29,0.18,-0.30,-1.32,-1.21,-1.20
110.74,-1.02,0.25,-0.97,0.30,-0.30,0.15,-0.35,-1.32,-1.27,-1.27
111.85,-0.97,0.35,-1.04,0.30,-0.30,0.12,-0.41,-1.27,-1.33,-1.32
112.97,-0.87,0.52,-1.11,0.28,-0.28,0.09,-0.46,-1.15,-1.39,-1.40
114.10,-1.09,0.36,-1.18,0.27,-0.27,0.05,-0.51,-1.36,-1.45,-1.45
115.24,-1.34,0.17,-1.24,0.26,-0.26,0.02,-0.56,-1.60,-1.50,-1.51
116.39,-1.45,0.12,-1.30,0.26,-0.26,-0.01,-0.60,-1.71,-1.56,-1.57
117.55,-1.55,0.07,-1.35,0.26,-0.26,-0.05,-0.65,-1.81,-1.61,-1.62
118.73,-1.52,0.15,-1.42,0.25,-0.25,-0.08,-0.69,-1.77,-1.66,-1.67
119.92,-1.27,0.44,-1.47,0.24,-0.24,-0.12,-0.73,-1.51,-1.71,-1.71
121.12,-1.39,0.37,-1.49,0.26,-0.26,-0.15,-0.76,-1.65,-1.76,-1.76
122.33,-1.66,0.15,-1.51,0.29,-0.29,-0.19,-0.80,-1.95,-1.80,-1.81
123.55,-1.71,0.13,-1.53,0.32,-0.32,-0.22,-0.83,-2.03,-1.84,-1.84
124.79,-1.50,0.38,-1.54,0.34,-0.34,-0.26,-0.86,-1.84,-1.89,-1.88
126.03,-1.36,0.56,-1.55,0.38,-0.38,-0.30,-0.88,-1.74,-1.92,-1.92
127.29,-1.48,0.47,-1.53,0.44,-0.44,-0.34,-0.91,-1.92,-1.96,-1.95
128.57,-1.53,0.47,-1.51,0.49,-0.49,-0.38,-0.93,-2.02,-2.00,-2.00
129.85,-1.61,0.43,-1.50,0.54,-0.54,-0.42,-0.95,-2.15,-2.04,-2.04
131.15,-1.67,0.41,-1.49,0.59,-0.59,-0.46,-0.96,-2.26,-2.08,-2.08
132.46,-1.27,0.85,-1.47,0.64,-0.64,-0.50,-0.98,-1.91,-2.12,-2.12
133.79,-1.17,0.98,-1.45,0.71,-0.71,-0.55,-0.99,-1.88,-2.15,-2.15
135.12,-1.42,0.78,-1.40,0.79,-0.79,-0.59,-1.00,-2.21,-2.19,-2.20
136.48,-1.44,0.78,-1.34,0.89,-0.89,-0.64,-1.01,-2.33,-2.23,-2.23
137.84,-1.48,0.79,-1.29,0.97,-0.97,-0.69,-1.01,-2.45,-2.26,-2.27
139.22,-1.35,0.96,-1.24,1.06,-1.06,-0.74,-1.02,-2.41,-2.30,-2.31
140.61,-1.25,1.10,-1.19,1.15,-1.15,-0.79,-1.02,-2.40,-2.34,-2.35
142.02,-1.22,1.15,-1.12,1.26,-1.26,-0.84,-1.02,-2.48,-2.38,-2.38
143.44,-1.04,1.37,-1.06,1.36,-1.36,-0.89,-1.03,-2.40,-2.42,-2.42
144.87,-0.90,1.56,-1.00,1.47,-1.47,-0.95,-1.03,-2.37,-2.47,-2.47
146.32,-0.89,1.62,-0.96,1.56,-1.56,-1.00,-1.03,-2.45,-2.52,-2.51
147.78,-0.89,1.66,-0.94,1.64,-1.64,-1.06,-1.02,-2.53,-2.58,-2.55
149.26,-0.88,1.73,-0.91,1.73,-1.73,-1.12,-1.02,-2.61,-2.64,-2.61
150.75,-0.82,1.86,-0.89,1.82,-1.82,-1.18,-1.02,-2.64,-2.71,-2.68
152.26,-0.84,1.92,-0.91,1.87,-1.87,-1.24,-1.02,-2.71,-2.78,-2.76
153.78,-0.96,1.87,-0.95,1.90,-1.90,-1.30,-1.02,-2.86,-2.85,-2.83
155.32,-0.99,1.92,-1.03,1.90,-1.90,-1.36,-1.02,-2.89,-2.93,-2.91
156.88,-1.03,1.96,-1.13,1.87,-1.87,-1.43,-1.02,-2.90,-3.00,-2.99
158.44,-1.13,1.95,-1.26,1.82,-1.82,-1.49,-1.02,-2.95,-3.08,-3.09
160.03,-1.25,1.92,-1.41,1.75,-1.75,-1.55,-1.02,-3.00,-3.16,-3.17
161.63,-1.49,1.76,-1.56,1.67,-1.67,-1.61,-1.02,-3.16,-3.23,-3.25
163.24,-1.66,1.66,-1.69,1.61,-1.61,-1.68,-1.02,-3.27,-3.30,-3.32
164.88,-1.83,1.55,-1.81,1.55,-1.55,-1.74,-1.02,-3.38,-3.36,-3.38
166.53,-1.99,1.44,-1.91,1.50,-1.50,-1.79,-1.02,-3.49,-3.41,-3.43
168.19,-2.11,1.37,-2.00,1.46,-1.46,-1.85,-1.02,-3.57,-3.46,-3.48
169.87,-2.24,1.28,-2.05,1.45,-1.45,-1.90,-1.03,-3.69,-3.50,-3.52
171.57,-2.36,1.18,-2.07,1.46,-1.46,-1.96,-1.03,-3.82,-3.53,-3.54
173.29,-2.36,1.21,-2.08,1.48,-1.48,-2.00,-1.04,-3.84,-3.56,-3.57
175.02,-2.25,1.33,-2.06,1.51,-1.51,-2.04,-1.04,-3.76,-3.58,-3.58
176.77,-2.10,1.50,-2.02,1.57,-1.57,-2.08,-1.05,-3.67,-3.59,-3.60
178.54,-1.86,1.75,-1.97,1.63,-1.63,-2.12,-1.06,-3.50,-3.60,-3.61
180.32,-1.73,1.88,-1.90,1.72,-1.72,-2.14,-1.07,-3.45,-3.62,-3.61
182.13,-1.67,1.93,-1.82,1.80,-1.80,-2.16,-1.08,-3.47,-3.63,-3.60
183.95,-1.63,1.99,-1.76,1.88,-1.88,-2.18,-1.09,-3.51,-3.64,-3.62
185.79,-1.52,2.11,-1.70,1.95,-1.95,-2.19,-1.10,-3.47,-3.65,-3.63
187.65,-1.52,2.13,-1.65,2.01,-2.01,-2.19,-1.11,-3.53,-3.66,-3.65
189.52,-1.57,2.10,-1.63,2.05,-2.05,-2.18,-1.13,-3.62,-3.68,-3.67
191.42,-1.62,2.07,-1.63,2.07,-2.07,-2.17,-1.14,-3.69,-3.69,-3.69
193.33,-1.66,2.05,-1.65,2.06,-2.06,-2.16,-1.15,-3.72,-3.71,-3.71
195.27,-1.71,2.03,-1.69,2.04,-2.04,-2.14,-1.17,-3.76,-3.74,-3.74
197.22,-1.73,2.03,-1.74,2.02,-2.02,-2.11,-1.19,-3.75,-3.76,-3.76
199.19,-1.76,2.03,-1.79,1.99,-1.99,-2.08,-1.20,-3.75,-3.78,-3.79
201.18,-1.87,1.94,-1.83,1.97,-1.97,-2.04,-1.22,-3.85,-3.81,-3.81
203.19,-1.97,1.86,-1.87,1.96,-1.96,-2.00,-1.24,-3.93,-3.83,-3.83
205.23,-2.00,1.86,-1.90,1.95,-1.95,-1.96,-1.26,-3.96,-3.86,-3.86
207.28,-2.00,1.87,-1.93,1.95,-1.95,-1.91,-1.27,-3.95,-3.88,-3.87
209.35,-2.05,1.84,-1.94,1.96,-1.96,-1.86,-1.29,-4.01,-3.90,-3.89
211.44,-2.01,1.92,-1.95,1.97,-1.97,-1.82,-1.31,-3.98,-3.92,-3.93
213.56,-1.93,2.01,-1.96,1.98,-1.98,-1.76,-1.33,-3.91,-3.94,-3.94
215.69,-1.91,2.04,-1.96,1.99,-1.99,-1.71,-1.34,-3.90,-3.96,-3.95
217.85,-1.92,2.05,-1.97,2.00,-2.00,-1.66,-1.36,-3.92,-3.97,-3.97
220.03,-1.92,2.06,-1.98,2.00,-2.00,-1.61,-1.38,-3.92,-3.98,-3.98
222.23,-1.93,2.08,-1.99,2.00,-2.00,-1.56,-1.39,-3.93,-3.99,-4.01
224.45,-1.99,2.01,-2.01,1.99,-1.99,-1.51,-1.41,-3.98,-4.00,-4.00
226.70,-2.02,1.99,-2.04,1.96,-1.96,-1.46,-1.42,-3.98,-4.00,-4.01
228.96,-2.03,1.97,-2.08,1.92,-1.92,-1.41,-1.43,-3.95,-4.00,-4.00
231.25,-2.09,1.90,-2.13,1.87,-1.87,-1.36,-1.44,-3.96,-3.99,-3.99
233.57,-2.16,1.82,-2.18,1.81,-1.81,-1.32,-1.45,-3.97,-3.98,-3.98
235.90,-2.28,1.70,-2.24,1.73,-1.73,-1.27,-1.46,-4.01,-3.97,-3.98
238.26,-2.29,1.68,-2.31,1.65,-1.65,-1.23,-1.47,-3.94,-3.96,-3.97
240.64,-2.38,1.57,-2.36,1.58,-1.58,-1.18,-1.47,-3.96,-3.94,-3.95
243.05,-2.46,1.46,-2.42,1.51,-1.51,-1.14,-1.48,-3.97,-3.92,-3.92
245.48,-2.50,1.40,-2.47,1.43,-1.43,-1.10,-1.48,-3.93,-3.90,-3.90
247.93,-2.57,1.30,-2.52,1.36,-1.36,-1.07,-1.47,-3.93,-3.88,-3.87
250.41,-2.61,1.25,-2.58,1.28,-1.28,-1.03,-1.47,-3.89,-3.86,-3.86
252.92,-2.67,1.16,-2.62,1.22,-1.22,-1.00,-1.46,-3.89,-3.84,-3.83
255.45,-2.65,1.16,-2.66,1.15,-1.15,-0.96,-1.46,-3.80,-3.82,-3.81
258.00,-2.67,1.11,-2.70,1.09,-1.09,-0.93,-1.45,-3.76,-3.79,-3.79
260.58,-2.73,1.04,-2.74,1.02,-1.02,-0.90,-1.43,-3.76,-3.77,-3.77
263.19,-2.74,1.00,-2.79,0.96,-0.96,-0.87,-1.42,-3.70,-3.75,-3.74
265.82,-2.74,0.99,-2.83,0.89,-0.89,-0.85,-1.40,-3.63,-3.72,-3.73
268.48,-2.86,0.85,-2.86,0.84,-0.84,-0.82,-1.39,-3.70,-3.70,-3.71
271.16,-2.93,0.74,-2.90,0.78,-0.78,-0.80,-1.37,-3.71,-3.68,-3.67
273.87,-2.95,0.71,-2.94,0.72,-0.72,-0.77,-1.34,-3.67,-3.65,-3.66
276.61,-2.95,0.68,-2.97,0.66,-0.66,-0.75,-1.32,-3.61,-3.63,-3.63
279.38,-2.97,0.63,-3.01,0.59,-0.59,-0.73,-1.30,-3.57,-3.60,-3.60
282.17,-3.09,0.49,-3.04,0.53,-0.53,-0.71,-1.27,-3.62,-3.58,-3.58
284.99,-3.14,0.40,-3.08,0.47,-0.47,-0.69,-1.25,-3.61,-3.55,-3.54
287.84,-3.14,0.39,-3.10,0.42,-0.42,-0.67,-1.22,-3.56,-3.52,-3.53
290.72,-3.13,0.36,-3.12,0.37,-0.37,-0.65,-1.19,-3.50,-3.49,-3.50
293.63,-3.11,0.36,-3.14,0.33,-0.33,-0.64,-1.16,-3.44,-3.47,-3.47
296.57,-3.10,0.33,-3.15,0.29,-0.29,-0.62,-1.13,-3.39,-3.44,-3.44
299.53,-3.17,0.24,-3.15,0.26,-0.26,-0.61,-1.10,-3.43,-3.41,-3.41
302.53,-3.18,0.21,-3.16,0.23,-0.23,-0.59,-1.07,-3.41,-3.39,-3.40
305.55,-3.17,0.18,-3.17,0.19,-0.19,-0.58,-1.04,-3.36,-3.36,-3.35
308.61,-3.16,0.17,-3.18,0.16,-0.16,-0.57,-1.01,-3.32,-3.34,-3.33
311.69,-3.15,0.16,-3.18,0.14,-0.14,-0.56,-0.98,-3.29,-3.31,-3.31
314.81,-3.11,0.17,-3.17,0.13,-0.13,-0.55,-0.95,-3.24,-3.29,-3.28
317.96,-3.13,0.14,-3.16,0.12,-0.12,-0.54,-0.92,-3.25,-3.27,-3.27
321.14,-3.15,0.11,-3.14,0.12,-0.12,-0.53,-0.89,-3.27,-3.26,-3.26
324.35,-3.15,0.09,-3.12,0.12,-0.12,-0.52,-0.86,-3.27,-3.24,-3.24
327.59,-3.15,0.08,-3.09,0.14,-0.14,-0.51,-0.83,-3.29,-3.23,-3.23
330.87,-3.15,0.07,-3.06,0.15,-0.15,-0.50,-0.80,-3.30,-3.21,-3.22
334.18,-3.15,0.05,-3.04,0.16,-0.16,-0.49,-0.78,-3.32,-3.20,-3.20
337.52,-3.08,0.12,-3.02,0.17,-0.17,-0.49,-0.75,-3.25,-3.19,-3.20
340.90,-2.99,0.19,-3.01,0.17,-0.17,-0.48,-0.72,-3.16,-3.19,-3.18
344.30,-2.91,0.26,-3.00,0.18,-0.18,-0.48,-0.69,-3.09,-3.18,-3.17
347.75,-2.88,0.29,-3.00,0.17,-0.17,-0.47,-0.66,-3.05,-3.17,-3.17
351.23,-2.86,0.31,-3.01,0.16,-0.16,-0.47,-0.64,-3.02,-3.17,-3.17
354.74,-2.89,0.28,-3.02,0.15,-0.15,-0.46,-0.61,-3.04,-3.17,-3.17
358.28,-2.97,0.19,-3.02,0.14,-0.14,-0.46,-0.59,-3.11,-3.16,-3.16
361.87,-3.04,0.12,-3.04,0.12,-0.12,-0.45,-0.56,-3.16,-3.16,-3.16
365.49,-3.14,0.02,-3.06,0.10,-0.10,-0.45,-0.53,-3.24,-3.16,-3.16
369.14,-3.19,-0.02,-3.08,0.08,-0.08,-0.45,-0.51,-3.27,-3.16,-3.17
372.83,-3.18,-0.01,-3.10,0.06,-0.06,-0.45,-0.49,-3.24,-3.17,-3.17
376.56,-3.14,0.03,-3.13,0.04,-0.04,-0.44,-0.46,-3.18,-3.17,-3.17
380.33,-3.16,0.00,-3.15,0.02,-0.02,-0.44,-0.44,-3.18,-3.17,-3.16
384.13,-3.27,-0.10,-3.17,0.01,-0.01,-0.44,-0.42,-3.28,-3.18,-3.17
387.97,-3.20,-0.02,-3.17,0.01,-0.01,-0.44,-0.40,-3.21,-3.18,-3.18
391.85,-3.02,0.17,-3.16,0.03,-0.03,-0.44,-0.38,-3.05,-3.19,-3.19
395.77,-3.11,0.07,-3.13,0.06,-0.06,-0.44,-0.35,-3.17,-3.19,-3.18
399.73,-3.20,-0.01,-3.10,0.10,-0.10,-0.44,-0.33,-3.30,-3.20,-3.19
403.72,-3.06,0.13,-3.08,0.13,-0.13,-0.44,-0.32,-3.19,-3.20,-3.19
407.76,-2.99,0.22,-3.05,0.16,-0.16,-0.44,-0.30,-3.15,-3.21,-3.21
411.84,-3.00,0.21,-3.03,0.18,-0.18,-0.44,-0.28,-3.18,-3.21,-3.21
415.96,-3.00,0.21,-3.00,0.21,-0.21,-0.45,-0.26,-3.21,-3.21,-3.21
420.12,-3.00,0.21,-2.98,0.23,-0.23,-0.45,-0.24,-3.23,-3.21,-3.21
424.32,-2.91,0.30,-2.95,0.26,-0.26,-0.45,-0.23,-3.17,-3.21,-3.21
428.56,-2.80,0.40,-2.90,0.29,-0.29,-0.45,-0.21,-3.09,-3.20,-3.20
432.85,-2.79,0.40,-2.86,0.32,-0.32,-0.46,-0.20,-3.11,-3.18,-3.19
437.18,-2.85,0.33,-2.81,0.35,-0.35,-0.46,-0.19,-3.20,-3.16,-3.18
441.55,-2.90,0.25,-2.74,0.39,-0.39,-0.46,-0.18,-3.29,-3.13,-3.15
445.96,-2.87,0.25,-2.68,0.43,-0.43,-0.47,-0.17,-3.30,-3.10,-3.12
450.42,-2.64,0.45,-2.61,0.45,-0.45,-0.47,-0.16,-3.09,-3.07,-3.09
454.93,-2.55,0.49,-2.53,0.49,-0.49,-0.47,-0.15,-3.04,-3.03,-3.04
459.48,-2.49,0.50,-2.45,0.53,-0.53,-0.48,-0.14,-3.02,-2.98,-2.99
464.07,-2.43,0.51,-2.38,0.55,-0.55,-0.48,-0.14,-2.99,-2.94,-2.94
