frequency,raw,error,smoothed,error_smoothed,equalization,parametric_eq,fixed_band_eq,equalized_raw,equalized_smoothed,target
20.00,11.49,2.19,11.49,2.16,-2.16,-1.51,-1.15,9.33,9.32,9.30
20.20,11.53,2.19,11.53,2.18,-2.18,-1.56,-1.19,9.35,9.35,9.34
20.40,11.58,2.20,11.58,2.20,-2.20,-1.60,-1.22,9.39,9.38,9.38
20.61,11.62,2.21,11.63,2.21,-2.21,-1.65,-1.25,9.41,9.41,9.41
20.81,11.67,2.22,11.67,2.23,-2.23,-1.69,-1.29,9.44,9.44,9.45
21.02,11.71,2.22,11.72,2.25,-2.25,-1.74,-1.32,9.46,9.46,9.49
21.23,11.76,2.25,11.76,2.27,-2.27,-1.79,-1.36,9.49,9.49,9.51
21.44,11.80,2.27,11.80,2.29,-2.29,-1.84,-1.40,9.51,9.51,9.53
21.66,11.84,2.29,11.85,2.32,-2.32,-1.88,-1.44,9.53,9.53,9.55
21.87,11.89,2.34,11.89,2.34,-2.34,-1.93,-1.48,9.55,9.55,9.56
22.09,11.93,2.36,11.93,2.36,-2.36,-1.98,-1.52,9.57,9.57,9.58
22.31,11.97,2.39,11.97,2.39,-2.39,-2.02,-1.56,9.59,9.58,9.59
22.54,12.01,2.42,12.01,2.42,-2.42,-2.07,-1.61,9.59,9.59,9.59
22.76,12.05,2.45,12.05,2.45,-2.45,-2.12,-1.65,9.61,9.60,9.60
22.99,12.09,2.49,12.09,2.48,-2.48,-2.16,-1.70,9.62,9.61,9.60
23.22,12.13,2.52,12.13,2.51,-2.51,-2.20,-1.74,9.63,9.62,9.61
23.45,12.16,2.54,12.17,2.54,-2.54,-2.24,-1.79,9.63,9.63,9.62
23.69,12.20,2.57,12.20,2.56,-2.56,-2.28,-1.84,9.64,9.64,9.63
23.92,12.24,2.60,12.24,2.59,-2.59,-2.32,-1.89,9.65,9.65,9.64
24.16,12.27,2.61,12.28,2.62,-2.62,-2.35,-1.94,9.65,9.66,9.66
24.40,12.31,2.63,12.32,2.65,-2.65,-2.38,-1.99,9.66,9.67,9.68
24.65,12.35,2.67,12.35,2.68,-2.68,-2.41,-2.04,9.67,9.67,9.68
24.89,12.38,2.70,12.39,2.70,-2.70,-2.44,-2.09,9.68,9.69,9.69
25.14,12.42,2.73,12.42,2.73,-2.73,-2.47,-2.14,9.69,9.70,9.70
25.39,12.46,2.76,12.46,2.75,-2.75,-2.49,-2.20,9.71,9.71,9.70
25.65,12.49,2.77,12.49,2.78,-2.78,-2.52,-2.25,9.72,9.72,9.72
25.91,12.53,2.81,12.53,2.80,-2.80,-2.54,-2.30,9.73,9.73,9.72
26.16,12.56,2.83,12.56,2.82,-2.82,-2.56,-2.36,9.74,9.74,9.73
26.43,12.59,2.85,12.59,2.85,-2.85,-2.57,-2.41,9.75,9.74,9.74
26.69,12.62,2.87,12.62,2.87,-2.87,-2.59,-2.47,9.75,9.75,9.75
26.96,12.65,2.88,12.65,2.89,-2.89,-2.61,-2.52,9.76,9.76,9.77
27.23,12.67,2.90,12.68,2.91,-2.91,-2.62,-2.57,9.76,9.77,9.78
27.50,12.70,2.92,12.71,2.93,-2.93,-2.64,-2.62,9.77,9.78,9.78
27.77,12.73,2.95,12.74,2.95,-2.95,-2.65,-2.67,9.78,9.79,9.78
28.05,12.75,2.95,12.76,2.97,-2.97,-2.66,-2.72,9.79,9.80,9.80
28.33,12.78,2.98,12.79,2.98,-2.98,-2.68,-2.77,9.80,9.80,9.80
28.62,12.80,2.99,12.81,3.00,-3.00,-2.69,-2.82,9.80,9.81,9.81
28.90,12.82,3.01,12.83,3.01,-3.01,-2.71,-2.86,9.81,9.82,9.82
29.19,12.84,3.03,12.84,3.02,-3.02,-2.72,-2.90,9.82,9.83,9.81
29.48,12.86,3.02,12.86,3.02,-3.02,-2.74,-2.94,9.84,9.83,9.84
29.78,12.88,3.04,12.87,3.03,-3.03,-2.75,-2.98,9.85,9.84,9.84
30.08,12.90,3.05,12.87,3.03,-3.03,-2.77,-3.02,9.87,9.84,9.85
30.38,12.89,3.05,12.87,3.02,-3.02,-2.79,-3.05,9.87,9.85,9.85
30.68,12.88,3.02,12.87,3.01,-3.01,-2.80,-3.08,9.87,9.86,9.86
30.99,12.87,3.01,12.87,3.00,-3.00,-2.82,-3.11,9.87,9.86,9.86
31.30,12.86,2.99,12.86,2.99,-2.99,-2.84,-3.14,9.88,9.87,9.87
31.61,12.84,2.96,12.85,2.97,-2.97,-2.86,-3.16,9.87,9.88,9.88
31.93,12.82,2.94,12.83,2.95,-2.95,-2.89,-3.18,9.88,9.89,9.88
32.24,12.81,2.93,12.82,2.92,-2.92,-2.91,-3.20,9.89,9.89,9.88
32.57,12.80,2.90,12.80,2.90,-2.90,-2.93,-3.21,9.90,9.90,9.90
32.89,12.78,2.88,12.78,2.88,-2.88,-2.95,-3.23,9.90,9.91,9.91
33.22,12.77,2.86,12.77,2.86,-2.86,-2.98,-3.24,9.91,9.91,9.91
33.55,12.76,2.84,12.76,2.84,-2.84,-3.01,-3.25,9.92,9.92,9.92
33.89,12.74,2.82,12.75,2.83,-2.83,-3.03,-3.25,9.92,9.92,9.93
34.23,12.74,2.81,12.74,2.82,-2.82,-3.06,-3.26,9.93,9.93,9.93
34.57,12.73,2.79,12.74,2.81,-2.81,-3.09,-3.27,9.92,9.93,9.94
34.92,12.73,2.80,12.74,2.81,-2.81,-3.12,-3.27,9.93,9.94,9.94
35.27,12.74,2.80,12.75,2.81,-2.81,-3.15,-3.27,9.93,9.94,9.94
35.62,12.75,2.80,12.76,2.81,-2.81,-3.18,-3.28,9.94,9.95,9.95
35.97,12.77,2.83,12.77,2.83,-2.83,-3.21,-3.28,9.95,9.95,9.94
36.33,12.79,2.84,12.79,2.84,-2.84,-3.24,-3.28,9.95,9.95,9.95
36.70,12.81,2.87,12.81,2.86,-2.86,-3.28,-3.28,9.95,9.95,9.95
37.06,12.83,2.88,12.84,2.89,-2.89,-3.31,-3.29,9.94,9.95,9.95
37.43,12.86,2.91,12.86,2.92,-2.92,-3.35,-3.29,9.95,9.95,9.96
37.81,12.89,2.94,12.89,2.95,-2.95,-3.38,-3.30,9.94,9.95,9.95
38.19,12.93,2.99,12.92,2.98,-2.98,-3.42,-3.30,9.95,9.94,9.95
38.57,12.96,3.02,12.96,3.02,-3.02,-3.46,-3.31,9.95,9.94,9.94
38.95,12.99,3.06,12.99,3.05,-3.05,-3.50,-3.32,9.94,9.94,9.94
39.34,13.02,3.09,13.02,3.09,-3.09,-3.53,-3.33,9.93,9.93,9.93
39.74,13.06,3.14,13.06,3.13,-3.13,-3.57,-3.34,9.94,9.93,9.92
40.14,13.09,3.16,13.09,3.16,-3.16,-3.61,-3.35,9.93,9.93,9.93
40.54,13.12,3.20,13.12,3.20,-3.20,-3.65,-3.37,9.92,9.92,9.92
40.94,13.16,3.25,13.16,3.24,-3.24,-3.70,-3.39,9.92,9.92,9.91
41.35,13.19,3.28,13.19,3.28,-3.28,-3.74,-3.40,9.91,9.91,9.91
41.76,13.23,3.32,13.23,3.32,-3.32,-3.78,-3.43,9.91,9.91,9.91
42.18,13.26,3.35,13.27,3.36,-3.36,-3.82,-3.45,9.90,9.90,9.91
42.60,13.30,3.40,13.30,3.40,-3.40,-3.87,-3.48,9.90,9.90,9.90
43.03,13.33,3.43,13.34,3.44,-3.44,-3.91,-3.51,9.89,9.90,9.91
43.46,13.37,3.47,13.37,3.48,-3.48,-3.96,-3.54,9.89,9.89,9.90
43.90,13.40,3.52,13.40,3.52,-3.52,-4.00,-3.58,9.88,9.89,9.88
44.33,13.44,3.56,13.44,3.56,-3.56,-4.05,-3.61,9.89,9.88,9.88
44.78,13.47,3.60,13.47,3.59,-3.59,-4.10,-3.65,9.88,9.88,9.87
45.23,13.51,3.65,13.50,3.63,-3.63,-4.14,-3.69,9.88,9.87,9.86
45.68,13.54,3.68,13.54,3.67,-3.67,-4.19,-3.74,9.87,9.87,9.86
46.13,13.57,3.72,13.57,3.71,-3.71,-4.24,-3.79,9.86,9.86,9.85
46.60,13.60,3.74,13.60,3.75,-3.75,-4.29,-3.84,9.85,9.85,9.86
47.06,13.62,3.77,13.63,3.79,-3.79,-4.34,-3.89,9.84,9.84,9.85
47.53,13.65,3.81,13.66,3.82,-3.82,-4.39,-3.95,9.83,9.83,9.84
48.01,13.68,3.84,13.69,3.86,-3.86,-4.44,-4.00,9.82,9.82,9.84
48.49,13.71,3.89,13.71,3.90,-3.90,-4.49,-4.06,9.81,9.81,9.82
48.97,13.74,3.94,13.74,3.94,-3.94,-4.54,-4.13,9.81,9.80,9.80
49.46,13.77,3.99,13.76,3.97,-3.97,-4.59,-4.19,9.80,9.79,9.79
49.96,13.80,4.04,13.78,4.01,-4.01,-4.64,-4.26,9.79,9.77,9.76
50.46,13.81,4.05,13.81,4.05,-4.05,-4.69,-4.32,9.76,9.76,9.76
50.96,13.83,4.09,13.83,4.09,-4.09,-4.75,-4.39,9.74,9.74,9.74
51.47,13.85,4.14,13.85,4.14,-4.14,-4.80,-4.46,9.72,9.72,9.71
51.99,13.87,4.18,13.88,4.18,-4.18,-4.85,-4.54,9.69,9.70,9.69
52.51,13.90,4.22,13.91,4.23,-4.23,-4.91,-4.61,9.67,9.68,9.68
53.03,13.92,4.26,13.93,4.28,-4.28,-4.96,-4.68,9.65,9.66,9.66
53.56,13.95,4.31,13.96,4.33,-4.33,-5.01,-4.76,9.62,9.63,9.64
54.10,13.98,4.37,13.99,4.38,-4.38,-5.07,-4.83,9.60,9.61,9.61
54.64,14.01,4.42,14.02,4.43,-4.43,-5.12,-4.90,9.58,9.59,9.59
55.18,14.04,4.48,14.05,4.48,-4.48,-5.18,-4.98,9.56,9.57,9.56
55.74,14.08,4.55,14.08,4.54,-4.54,-5.23,-5.05,9.54,9.54,9.53
56.29,14.12,4.60,14.12,4.60,-4.60,-5.29,-5.12,9.53,9.52,9.52
56.86,14.16,4.67,14.15,4.65,-4.65,-5.35,-5.19,9.51,9.49,9.49
57.42,14.20,4.74,14.18,4.71,-4.71,-5.40,-5.26,9.49,9.47,9.46
58.00,14.23,4.80,14.22,4.78,-4.78,-5.46,-5.32,9.45,9.44,9.44
58.58,14.26,4.85,14.25,4.84,-4.84,-5.52,-5.38,9.42,9.41,9.41
59.16,14.29,4.90,14.29,4.91,-4.91,-5.57,-5.44,9.38,9.38,9.39
59.76,14.31,4.95,14.33,4.98,-4.98,-5.63,-5.50,9.33,9.35,9.36
60.35,14.34,5.02,14.36,5.05,-5.05,-5.69,-5.55,9.29,9.31,9.33
60.96,14.38,5.09,14.40,5.12,-5.12,-5.75,-5.60,9.26,9.28,9.29
61.57,14.42,5.18,14.44,5.19,-5.19,-5.80,-5.64,9.23,9.24,9.24
62.18,14.46,5.27,14.47,5.27,-5.27,-5.86,-5.68,9.19,9.20,9.19
62.80,14.51,5.35,14.50,5.34,-5.34,-5.92,-5.72,9.17,9.16,9.16
63.43,14.55,5.44,14.54,5.42,-5.42,-5.98,-5.75,9.14,9.12,9.11
64.07,14.58,5.51,14.57,5.49,-5.49,-6.04,-5.78,9.09,9.08,9.07
64.71,14.62,5.59,14.60,5.56,-5.56,-6.09,-5.80,9.06,9.04,9.03
65.35,14.64,5.65,14.63,5.64,-5.64,-6.15,-5.83,9.00,8.99,8.99
66.01,14.67,5.73,14.66,5.71,-5.71,-6.21,-5.85,8.96,8.95,8.95
66.67,14.69,5.78,14.69,5.78,-5.78,-6.27,-5.86,8.91,8.90,8.91
67.33,14.71,5.85,14.71,5.85,-5.85,-6.33,-5.87,8.86,8.86,8.87
68.01,14.73,5.91,14.73,5.92,-5.92,-6.38,-5.88,8.81,8.81,8.82
68.69,14.75,5.98,14.76,5.99,-5.99,-6.44,-5.89,8.77,8.77,8.77
69.37,14.77,6.05,14.78,6.05,-6.05,-6.50,-5.90,8.72,8.72,8.72
70.07,14.78,6.11,14.80,6.12,-6.12,-6.56,-5.91,8.66,8.68,8.67
70.77,14.81,6.18,14.82,6.19,-6.19,-6.61,-5.91,8.63,8.63,8.63
71.48,14.84,6.25,14.84,6.25,-6.25,-6.67,-5.92,8.59,8.59,8.59
72.19,14.87,6.33,14.87,6.32,-6.32,-6.73,-5.92,8.55,8.54,8.54
72.91,14.90,6.40,14.90,6.39,-6.39,-6.79,-5.93,8.51,8.50,8.50
73.64,14.92,6.47,14.92,6.47,-6.47,-6.84,-5.94,8.46,8.46,8.45
74.38,14.95,6.53,14.95,6.54,-6.54,-6.90,-5.95,8.41,8.42,8.42
75.12,14.98,6.61,14.98,6.61,-6.61,-6.95,-5.95,8.37,8.37,8.37
75.87,15.01,6.68,15.02,6.68,-6.68,-7.01,-5.97,8.33,8.34,8.33
76.63,15.05,6.75,15.05,6.75,-6.75,-7.06,-5.98,8.30,8.30,8.30
77.40,15.09,6.83,15.09,6.83,-6.83,-7.12,-6.00,8.26,8.26,8.26
78.17,15.12,6.90,15.13,6.90,-6.90,-7.17,-6.02,8.22,8.22,8.22
78.95,15.16,6.98,15.16,6.98,-6.98,-7.23,-6.04,8.18,8.19,8.19
79.74,15.20,7.05,15.20,7.05,-7.05,-7.28,-6.07,8.15,8.15,8.15
80.54,15.24,7.12,15.24,7.12,-7.12,-7.33,-6.10,8.12,8.12,8.12
81.35,15.28,7.19,15.29,7.20,-7.20,-7.38,-6.13,8.08,8.09,8.09
82.16,15.32,7.27,15.33,7.27,-7.27,-7.43,-6.17,8.05,8.05,8.05
82.98,15.37,7.34,15.37,7.35,-7.35,-7.49,-6.21,8.02,8.02,8.03
83.81,15.42,7.43,15.42,7.42,-7.42,-7.54,-6.26,8.00,7.99,7.99
84.65,15.46,7.51,15.46,7.50,-7.50,-7.58,-6.31,7.97,7.96,7.95
85.50,15.50,7.57,15.50,7.57,-7.57,-7.63,-6.36,7.93,7.93,7.94
86.35,15.54,7.63,15.54,7.64,-7.64,-7.68,-6.42,7.90,7.91,7.91
87.22,15.58,7.70,15.59,7.71,-7.71,-7.73,-6.49,7.88,7.88,7.88
88.09,15.62,7.77,15.62,7.77,-7.77,-7.77,-6.56,7.85,7.85,7.85
88.97,15.67,7.85,15.66,7.84,-7.84,-7.82,-6.63,7.83,7.82,7.83
89.86,15.70,7.90,15.70,7.90,-7.90,-7.86,-6.71,7.80,7.80,7.80
90.76,15.74,7.98,15.73,7.97,-7.97,-7.90,-6.80,7.78,7.77,7.76
91.66,15.77,8.03,15.77,8.03,-8.03,-7.94,-6.89,7.75,7.74,7.74
92.58,15.79,8.09,15.79,8.08,-8.08,-7.98,-6.98,7.71,7.71,7.70
93.51,15.81,8.12,15.82,8.14,-8.14,-8.02,-7.08,7.67,7.68,7.69
94.44,15.83,8.18,15.84,8.19,-8.19,-8.06,-7.18,7.64,7.65,7.66
95.39,15.86,8.23,15.86,8.24,-8.24,-8.10,-7.29,7.62,7.62,7.63
96.34,15.88,8.30,15.87,8.29,-8.29,-8.13,-7.40,7.59,7.59,7.58
97.30,15.89,8.34,15.89,8.33,-8.33,-8.16,-7.52,7.56,7.55,7.55
98.28,15.90,8.39,15.89,8.38,-8.38,-8.20,-7.64,7.52,7.52,7.51
99.26,15.91,8.44,15.90,8.42,-8.42,-8.23,-7.77,7.49,7.48,7.47
100.25,15.90,8.46,15.89,8.46,-8.46,-8.26,-7.90,7.45,7.44,7.44
101.25,15.88,8.48,15.89,8.49,-8.49,-8.28,-8.03,7.39,7.40,7.40
102.27,15.87,8.52,15.88,8.53,-8.53,-8.31,-8.16,7.35,7.36,7.35
103.29,15.86,8.56,15.87,8.56,-8.56,-8.33,-8.30,7.30,7.31,7.31
104.32,15.84,8.57,15.85,8.59,-8.59,-8.35,-8.44,7.25,7.26,7.27
105.37,15.82,8.60,15.82,8.61,-8.61,-8.37,-8.58,7.21,7.21,7.22
106.42,15.80,8.64,15.79,8.64,-8.64,-8.39,-8.72,7.17,7.16,7.16
107.48,15.78,8.67,15.76,8.66,-8.66,-8.41,-8.86,7.12,7.10,7.11
108.56,15.74,8.70,15.73,8.68,-8.68,-8.42,-9.00,7.06,7.05,7.05
109.64,15.69,8.70,15.69,8.70,-8.70,-8.44,-9.14,6.99,6.99,6.99
110.74,15.65,8.72,15.65,8.72,-8.72,-8.45,-9.27,6.93,6.92,6.93
111.85,15.61,8.75,15.60,8.75,-8.75,-8.45,-9.40,6.87,6.86,6.86
112.97,15.54,8.75,15.56,8.77,-8.77,-8.46,-9.52,6.77,6.79,6.79
114.10,15.48,8.75,15.51,8.78,-8.78,-8.46,-9.64,6.70,6.72,6.73
115.24,15.42,8.77,15.45,8.80,-8.80,-8.47,-9.74,6.62,6.66,6.65
116.39,15.40,8.82,15.40,8.81,-8.81,-8.47,-9.84,6.59,6.59,6.58
117.55,15.35,8.84,15.34,8.83,-8.83,-8.46,-9.93,6.53,6.52,6.51
118.73,15.28,8.84,15.28,8.83,-8.83,-8.46,-10.00,6.45,6.45,6.44
119.92,15.22,8.84,15.22,8.84,-8.84,-8.45,-10.06,6.38,6.38,6.38
121.12,15.15,8.84,15.16,8.84,-8.84,-8.44,-10.10,6.31,6.32,6.31
122.33,15.10,8.85,15.09,8.83,-8.83,-8.43,-10.12,6.27,6.25,6.25
123.55,15.03,8.84,15.01,8.82,-8.82,-8.41,-10.13,6.21,6.19,6.19
124.79,14.94,8.81,14.93,8.81,-8.81,-8.40,-10.12,6.14,6.13,6.13
126.03,14.84,8.77,14.85,8.79,-8.79,-8.38,-10.10,6.06,6.07,6.07
127.29,14.78,8.77,14.77,8.76,-8.76,-8.36,-10.06,6.02,6.01,6.01
128.57,14.70,8.76,14.68,8.73,-8.73,-8.33,-9.99,5.97,5.95,5.94
129.85,14.58,8.69,14.58,8.69,-8.69,-8.30,-9.92,5.89,5.89,5.89
131.15,14.46,8.63,14.48,8.64,-8.64,-8.28,-9.82,5.82,5.84,5.83
132.46,14.38,8.60,14.38,8.60,-8.60,-8.24,-9.71,5.79,5.79,5.79
133.79,14.26,8.52,14.27,8.54,-8.54,-8.21,-9.59,5.72,5.73,5.74
135.12,14.14,8.46,14.17,8.48,-8.48,-8.17,-9.46,5.66,5.68,5.68
136.48,14.07,8.43,14.05,8.42,-8.42,-8.13,-9.31,5.65,5.63,5.64
137.84,13.94,8.36,13.94,8.36,-8.36,-8.09,-9.15,5.59,5.59,5.58
139.22,13.84,8.31,13.83,8.29,-8.29,-8.05,-8.99,5.55,5.54,5.53
140.61,13.72,8.24,13.71,8.22,-8.22,-8.00,-8.82,5.50,5.49,5.48
142.02,13.56,8.11,13.59,8.14,-8.14,-7.95,-8.64,5.42,5.45,5.45
143.44,13.47,8.06,13.47,8.07,-8.07,-7.90,-8.46,5.40,5.40,5.41
144.87,13.32,7.96,13.35,7.99,-7.99,-7.84,-8.28,5.33,5.35,5.36
146.32,13.22,7.91,13.22,7.91,-7.91,-7.79,-8.09,5.31,5.31,5.31
147.78,13.08,7.81,13.08,7.82,-7.82,-7.73,-7.90,5.26,5.26,5.27
149.26,12.97,7.75,12.95,7.74,-7.74,-7.67,-7.72,5.24,5.21,5.23
150.75,12.82,7.66,12.81,7.64,-7.64,-7.60,-7.53,5.18,5.17,5.16
152.26,12.70,7.59,12.66,7.55,-7.55,-7.53,-7.34,5.15,5.12,5.12
153.78,12.52,7.45,12.52,7.45,-7.45,-7.47,-7.15,5.07,5.07,5.07
155.32,12.39,7.38,12.37,7.35,-7.35,-7.39,-6.97,5.04,5.02,5.01
156.88,12.20,7.23,12.22,7.26,-7.26,-7.32,-6.79,4.95,4.97,4.97
158.44,12.07,7.15,12.07,7.15,-7.15,-7.25,-6.61,4.92,4.91,4.92
160.03,11.86,7.00,11.91,7.05,-7.05,-7.17,-6.43,4.81,4.86,4.86
161.63,11.73,6.93,11.75,6.94,-6.94,-7.09,-6.26,4.79,4.81,4.80
163.24,11.60,6.85,11.59,6.83,-6.83,-7.00,-6.09,4.77,4.76,4.75
164.88,11.42,6.72,11.43,6.72,-6.72,-6.92,-5.92,4.70,4.70,4.71
166.53,11.28,6.63,11.26,6.62,-6.62,-6.83,-5.76,4.67,4.65,4.65
168.19,11.14,6.55,11.10,6.51,-6.51,-6.74,-5.60,4.63,4.60,4.60
169.87,10.91,6.37,10.94,6.40,-6.40,-6.65,-5.44,4.51,4.54,4.54
171.57,10.76,6.27,10.78,6.29,-6.29,-6.56,-5.29,4.47,4.48,4.49
173.29,10.63,6.21,10.61,6.19,-6.19,-6.46,-5.14,4.44,4.42,4.43
175.02,10.41,6.04,10.45,6.09,-6.09,-6.36,-4.99,4.33,4.36,4.38
176.77,10.27,5.97,10.29,5.98,-5.98,-6.26,-4.85,4.29,4.31,4.30
178.54,10.13,5.89,10.12,5.88,-5.88,-6.16,-4.71,4.26,4.25,4.25
180.32,9.98,5.79,9.95,5.77,-5.77,-6.06,-4.57,4.21,4.19,4.19
182.13,9.82,5.69,9.79,5.66,-5.66,-5.95,-4.44,4.16,4.12,4.13
183.95,9.59,5.53,9.62,5.56,-5.56,-5.85,-4.31,4.03,4.06,4.06
185.79,9.43,5.43,9.45,5.45,-5.45,-5.74,-4.19,3.98,4.00,4.01
187.65,9.28,5.35,9.29,5.35,-5.35,-5.63,-4.07,3.94,3.94,3.93
189.52,9.13,5.26,9.12,5.24,-5.24,-5.51,-3.95,3.89,3.88,3.88
191.42,8.96,5.14,8.95,5.13,-5.13,-5.40,-3.83,3.84,3.82,3.82
193.33,8.78,5.01,8.78,5.01,-5.01,-5.28,-3.72,3.77,3.77,3.77
195.27,8.60,4.89,8.61,4.90,-4.90,-5.16,-3.61,3.70,3.71,3.72
197.22,8.43,4.78,8.43,4.78,-4.78,-5.04,-3.50,3.65,3.66,3.66
199.19,8.26,4.67,8.25,4.65,-4.65,-4.92,-3.40,3.61,3.60,3.59
201.18,8.10,4.56,8.08,4.53,-4.53,-4.80,-3.29,3.57,3.55,3.54
203.19,7.92,4.42,7.90,4.41,-4.41,-4.67,-3.19,3.52,3.50,3.50
205.23,7.73,4.29,7.73,4.28,-4.28,-4.55,-3.10,3.45,3.45,3.45
207.28,7.54,4.13,7.55,4.15,-4.15,-4.42,-3.00,3.39,3.40,3.42
209.35,7.36,4.00,7.37,4.02,-4.02,-4.29,-2.91,3.34,3.36,3.36
211.44,7.19,3.89,7.20,3.88,-3.88,-4.16,-2.82,3.31,3.31,3.30
213.56,7.02,3.76,7.02,3.75,-3.75,-4.02,-2.73,3.27,3.27,3.26
215.69,6.84,3.60,6.84,3.61,-3.61,-3.89,-2.64,3.23,3.23,3.24
217.85,6.63,3.44,6.66,3.47,-3.47,-3.75,-2.55,3.16,3.19,3.19
220.03,6.50,3.35,6.49,3.33,-3.33,-3.61,-2.47,3.17,3.16,3.15
222.23,6.35,3.24,6.32,3.19,-3.19,-3.47,-2.39,3.16,3.12,3.11
224.45,6.16,3.07,6.15,3.06,-3.06,-3.33,-2.31,3.11,3.09,3.09
226.70,5.98,2.92,5.98,2.92,-2.92,-3.19,-2.23,3.06,3.06,3.07
228.96,5.79,2.76,5.82,2.78,-2.78,-3.05,-2.15,3.01,3.04,3.03
231.25,5.67,2.65,5.66,2.65,-2.65,-2.91,-2.07,3.03,3.02,3.02
233.57,5.50,2.50,5.51,2.51,-2.51,-2.76,-1.99,2.99,3.00,3.00
235.90,5.32,2.34,5.36,2.38,-2.38,-2.61,-1.92,2.95,2.98,2.98
238.26,5.21,2.25,5.22,2.25,-2.25,-2.47,-1.84,2.96,2.97,2.97
240.64,5.07,2.12,5.08,2.12,-2.12,-2.32,-1.77,2.95,2.96,2.95
243.05,4.97,2.02,4.95,2.00,-2.00,-2.17,-1.70,2.98,2.95,2.95
245.48,4.83,1.89,4.82,1.87,-1.87,-2.02,-1.62,2.96,2.95,2.94
247.93,4.66,1.72,4.69,1.75,-1.75,-1.87,-1.55,2.91,2.94,2.94
250.41,4.56,1.63,4.58,1.64,-1.64,-1.71,-1.48,2.92,2.94,2.93
252.92,4.44,1.50,4.47,1.52,-1.52,-1.56,-1.41,2.92,2.95,2.95
255.45,4.36,1.41,4.36,1.41,-1.41,-1.41,-1.34,2.95,2.95,2.96
258.00,4.28,1.32,4.26,1.30,-1.30,-1.26,-1.27,2.98,2.96,2.96
260.58,4.16,1.20,4.16,1.19,-1.19,-1.10,-1.20,2.97,2.96,2.96
263.19,4.07,1.10,4.06,1.09,-1.09,-0.95,-1.12,2.98,2.97,2.97
265.82,3.95,0.98,3.96,0.98,-0.98,-0.79,-1.05,2.97,2.98,2.97
268.48,3.86,0.86,3.87,0.88,-0.88,-0.64,-0.98,2.98,2.99,3.00
271.16,3.77,0.76,3.78,0.77,-0.77,-0.49,-0.91,3.00,3.00,3.01
273.87,3.67,0.66,3.69,0.67,-0.67,-0.33,-0.84,3.00,3.02,3.01
276.61,3.59,0.55,3.60,0.57,-0.57,-0.18,-0.77,3.02,3.03,3.04
279.38,3.49,0.45,3.50,0.46,-0.46,-0.03,-0.70,3.04,3.04,3.04
282.17,3.40,0.35,3.39,0.34,-0.34,0.12,-0.63,3.06,3.05,3.05
284.99,3.31,0.24,3.28,0.22,-0.22,0.27,-0.56,3.09,3.06,3.07
287.84,3.18,0.11,3.17,0.10,-0.10,0.42,-0.49,3.09,3.08,3.07
290.72,3.08,-0.01,3.06,-0.03,0.03,0.57,-0.41,3.11,3.09,3.09
293.63,2.96,-0.14,2.94,-0.16,0.16,0.72,-0.34,3.12,3.10,3.10
296.57,2.82,-0.30,2.81,-0.30,0.30,0.86,-0.27,3.12,3.11,3.12
299.53,2.68,-0.44,2.68,-0.45,0.45,1.00,-0.20,3.13,3.13,3.12
302.53,2.53,-0.60,2.54,-0.60,0.60,1.14,-0.12,3.13,3.14,3.13
305.55,2.38,-0.77,2.39,-0.76,0.76,1.28,-0.05,3.14,3.15,3.15
308.61,2.22,-0.94,2.24,-0.92,0.92,1.41,0.03,3.14,3.16,3.16
311.69,2.07,-1.09,2.08,-1.09,1.09,1.54,0.10,3.16,3.17,3.16
314.81,1.94,-1.25,1.91,-1.27,1.27,1.67,0.18,3.21,3.18,3.19
317.96,1.77,-1.42,1.74,-1.45,1.45,1.79,0.25,3.22,3.18,3.19
321.14,1.57,-1.62,1.56,-1.63,1.63,1.91,0.33,3.20,3.19,3.19
324.35,1.38,-1.81,1.38,-1.82,1.82,2.03,0.41,3.20,3.20,3.19
327.59,1.19,-2.02,1.19,-2.01,2.01,2.14,0.48,3.20,3.20,3.21
330.87,1.04,-2.16,1.01,-2.19,2.19,2.24,0.56,3.24,3.21,3.20
334.18,0.85,-2.35,0.82,-2.38,2.38,2.35,0.64,3.23,3.21,3.20
337.52,0.64,-2.57,0.64,-2.57,2.57,2.44,0.72,3.21,3.21,3.21
340.90,0.46,-2.75,0.46,-2.75,2.75,2.54,0.81,3.21,3.21,3.21
344.30,0.27,-2.94,0.28,-2.92,2.92,2.62,0.89,3.19,3.21,3.21
347.75,0.12,-3.09,0.12,-3.09,3.09,2.70,0.97,3.21,3.21,3.21
351.23,-0.05,-3.25,-0.04,-3.24,3.24,2.78,1.06,3.20,3.20,3.21
354.74,-0.19,-3.39,-0.18,-3.38,3.38,2.85,1.14,3.19,3.20,3.20
358.28,-0.33,-3.52,-0.31,-3.50,3.50,2.92,1.23,3.18,3.19,3.19
361.87,-0.45,-3.64,-0.42,-3.61,3.61,2.98,1.32,3.16,3.19,3.19
365.49,-0.55,-3.73,-0.51,-3.70,3.70,3.03,1.41,3.15,3.18,3.19
369.14,-0.63,-3.80,-0.59,-3.77,3.77,3.08,1.50,3.14,3.18,3.17
372.83,-0.67,-3.84,-0.65,-3.82,3.82,3.13,1.59,3.15,3.17,3.17
376.56,-0.71,-3.87,-0.68,-3.84,3.84,3.17,1.68,3.13,3.16,3.16
380.33,-0.72,-3.88,-0.70,-3.85,3.85,3.20,1.77,3.13,3.15,3.16
384.13,-0.71,-3.85,-0.69,-3.84,3.84,3.23,1.86,3.13,3.15,3.15
387.97,-0.70,-3.83,-0.68,-3.82,3.82,3.26,1.96,3.12,3.14,3.13
391.85,-0.65,-3.77,-0.64,-3.78,3.78,3.28,2.05,3.13,3.13,3.12
395.77,-0.60,-3.73,-0.60,-3.72,3.72,3.29,2.15,3.12,3.12,3.13
399.73,-0.54,-3.66,-0.54,-3.66,3.66,3.30,2.25,3.12,3.12,3.12
403.72,-0.47,-3.58,-0.47,-3.58,3.58,3.31,2.34,3.12,3.11,3.11
407.76,-0.39,-3.49,-0.40,-3.51,3.51,3.32,2.44,3.12,3.11,3.10
411.84,-0.31,-3.41,-0.32,-3.42,3.42,3.32,2.53,3.11,3.10,3.11
415.96,-0.23,-3.32,-0.24,-3.34,3.34,3.32,2.63,3.11,3.09,3.09
420.12,-0.15,-3.24,-0.16,-3.25,3.25,3.31,2.72,3.10,3.09,3.09
424.32,-0.06,-3.15,-0.07,-3.16,3.16,3.31,2.82,3.10,3.09,3.09
428.56,0.00,-3.08,0.01,-3.08,3.08,3.30,2.91,3.08,3.08,3.08
432.85,0.08,-3.00,0.09,-2.99,2.99,3.29,3.00,3.08,3.08,3.08
437.18,0.16,-2.92,0.16,-2.92,2.92,3.27,3.09,3.08,3.08,3.08
441.55,0.22,-2.87,0.23,-2.85,2.85,3.26,3.18,3.07,3.08,3.09
445.96,0.29,-2.79,0.29,-2.79,2.79,3.24,3.26,3.08,3.08,3.09
450.42,0.36,-2.71,0.34,-2.74,2.74,3.22,3.34,3.10,3.08,3.08
454.93,0.42,-2.66,0.39,-2.70,2.70,3.21,3.42,3.12,3.09,3.08
459.48,0.46,-2.62,0.43,-2.66,2.66,3.19,3.49,3.12,3.09,3.08
464.07,0.48,-2.61,0.46,-2.63,2.63,3.17,3.56,3.12,3.09,3.09
468.71,0.49,-2.61,0.48,-2.62,2.62,3.15,3.63,3.11,3.10,3.10
473.40,0.51,-2.59,0.49,-2.61,2.61,3.13,3.69,3.12,3.10,3.10
478.13,0.50,-2.61,0.50,-2.61,2.61,3.11,3.74,3.11,3.11,3.11
482.91,0.48,-2.63,0.50,-2.62,2.62,3.09,3.79,3.10,3.11,3.11
487.74,0.47,-2.65,0.48,-2.63,2.63,3.07,3.84,3.10,3.12,3.12
492.62,0.46,-2.67,0.47,-2.65,2.65,3.05,3.87,3.12,3.12,3.13
497.55,0.45,-2.68,0.45,-2.68,2.68,3.03,3.91,3.13,3.13,3.13
502.52,0.43,-2.71,0.42,-2.71,2.71,3.02,3.93,3.14,3.13,3.14
507.55,0.40,-2.73,0.39,-2.74,2.74,3.00,3.95,3.14,3.14,3.14
