frequency,raw,error,smoothed,error_smoothed,equalization,parametric_eq,fixed_band_eq,equalized_raw,equalized_smoothed,target
20.00,-19.15,-18.99,-19.15,-19.01,19.01,19.55,7.25,-0.14,-0.14,-0.16
20.20,-18.99,-18.92,-18.99,-18.93,18.93,19.42,7.41,-0.06,-0.06,-0.08
20.40,-18.83,-18.84,-18.83,-18.84,18.84,19.29,7.58,0.01,0.01,0.00
20.61,-18.67,-18.75,-18.67,-18.75,18.75,19.16,7.75,0.08,0.08,0.07
20.81,-18.51,-18.67,-18.51,-18.66,18.66,19.03,7.92,0.15,0.15,0.16
21.02,-18.34,-18.58,-18.35,-18.56,18.56,18.90,8.10,0.22,0.22,0.24
21.23,-18.18,-18.48,-18.19,-18.46,18.46,18.77,8.28,0.28,0.28,0.30
21.44,-18.02,-18.38,-18.02,-18.36,18.36,18.64,8.47,0.34,0.34,0.36
21.66,-17.86,-18.27,-17.86,-18.26,18.26,18.51,8.66,0.40,0.40,0.41
21.87,-17.70,-18.16,-17.70,-18.15,18.15,18.38,8.86,0.45,0.45,0.46
22.09,-17.54,-18.05,-17.54,-18.04,18.04,18.25,9.06,0.50,0.51,0.51
22.31,-17.38,-17.94,-17.38,-17.93,17.93,18.13,9.27,0.55,0.56,0.56
22.54,-17.21,-17.81,-17.21,-17.81,17.81,18.00,9.48,0.60,0.60,0.60
22.76,-17.05,-17.69,-17.05,-17.69,17.69,17.87,9.70,0.64,0.64,0.64
22.99,-16.89,-17.56,-16.89,-17.57,17.57,17.75,9.93,0.68,0.68,0.67
23.22,-16.72,-17.43,-16.73,-17.44,17.44,17.62,10.16,0.72,0.72,0.71
23.45,-16.56,-17.31,-16.56,-17.32,17.32,17.50,10.40,0.76,0.76,0.75
23.69,-16.40,-17.19,-16.40,-17.19,17.19,17.37,10.65,0.79,0.79,0.78
23.92,-16.23,-17.05,-16.23,-17.06,17.06,17.25,10.90,0.83,0.83,0.82
24.16,-16.07,-16.94,-16.07,-16.93,16.93,17.12,11.16,0.86,0.86,0.87
24.40,-15.91,-16.81,-15.91,-16.80,16.80,17.00,11.43,0.89,0.90,0.90
24.65,-15.74,-16.67,-15.74,-16.67,16.67,16.87,11.70,0.93,0.93,0.93
24.89,-15.58,-16.54,-15.58,-16.54,16.54,16.75,11.98,0.96,0.96,0.96
25.14,-15.42,-16.42,-15.42,-16.41,16.41,16.62,12.27,0.99,1.00,1.00
25.39,-15.25,-16.28,-15.25,-16.28,16.28,16.50,12.57,1.03,1.03,1.03
25.65,-15.09,-16.16,-15.09,-16.15,16.15,16.37,12.88,1.06,1.06,1.07
25.91,-14.92,-16.01,-14.93,-16.02,16.02,16.24,13.19,1.10,1.09,1.09
26.16,-14.76,-15.88,-14.76,-15.89,15.89,16.12,13.52,1.13,1.12,1.12
26.43,-14.60,-15.76,-14.60,-15.75,15.75,15.99,13.85,1.15,1.15,1.15
26.69,-14.44,-15.62,-14.44,-15.62,15.62,15.87,14.18,1.18,1.18,1.18
26.96,-14.28,-15.49,-14.28,-15.49,15.49,15.74,14.52,1.20,1.21,1.21
27.23,-14.11,-15.36,-14.11,-15.36,15.36,15.61,14.87,1.24,1.24,1.25
27.50,-13.95,-15.23,-13.95,-15.22,15.22,15.48,15.22,1.27,1.27,1.28
27.77,-13.79,-15.09,-13.79,-15.09,15.09,15.36,15.58,1.30,1.30,1.30
28.05,-13.63,-14.97,-13.63,-14.96,14.96,15.23,15.93,1.33,1.33,1.34
28.33,-13.47,-14.82,-13.47,-14.83,14.83,15.10,16.28,1.36,1.36,1.35
28.62,-13.31,-14.70,-13.31,-14.70,14.70,14.97,16.62,1.39,1.39,1.38
28.90,-13.15,-14.57,-13.16,-14.58,14.58,14.84,16.95,1.42,1.42,1.42
29.19,-13.00,-14.44,-13.00,-14.45,14.45,14.71,17.26,1.45,1.45,1.44
29.48,-12.84,-14.33,-12.85,-14.32,14.32,14.58,17.56,1.48,1.48,1.49
29.78,-12.69,-14.20,-12.69,-14.20,14.20,14.45,17.82,1.50,1.50,1.50
30.08,-12.53,-14.07,-12.54,-14.07,14.07,14.32,18.04,1.54,1.53,1.53
30.38,-12.39,-13.95,-12.39,-13.95,13.95,14.19,18.23,1.56,1.56,1.56
30.68,-12.24,-13.83,-12.25,-13.83,13.83,14.05,18.36,1.59,1.58,1.59
30.99,-12.10,-13.71,-12.10,-13.71,13.71,13.92,18.44,1.61,1.61,1.61
31.30,-11.96,-13.60,-11.96,-13.59,13.59,13.79,18.47,1.63,1.64,1.63
31.61,-11.81,-13.47,-11.82,-13.48,13.48,13.66,18.44,1.66,1.66,1.66
31.93,-11.67,-13.35,-11.68,-13.36,13.36,13.52,18.35,1.68,1.68,1.68
32.24,-11.54,-13.24,-11.54,-13.24,13.24,13.39,18.21,1.70,1.70,1.70
32.57,-11.40,-13.13,-11.40,-13.12,13.12,13.26,18.03,1.72,1.73,1.72
32.89,-11.26,-13.01,-11.26,-13.01,13.01,13.12,17.81,1.74,1.74,1.75
33.22,-11.13,-12.90,-11.13,-12.89,12.89,12.99,17.55,1.76,1.76,1.77
33.55,-10.99,-12.77,-10.99,-12.77,12.77,12.86,17.27,1.78,1.78,1.78
33.89,-10.85,-12.64,-10.86,-12.65,12.65,12.72,16.96,1.80,1.80,1.79
34.23,-10.72,-12.54,-10.72,-12.53,12.53,12.59,16.65,1.81,1.81,1.82
34.57,-10.59,-12.42,-10.59,-12.41,12.41,12.45,16.32,1.82,1.82,1.82
34.92,-10.45,-12.28,-10.46,-12.29,12.29,12.32,15.99,1.84,1.83,1.83
35.27,-10.32,-12.17,-10.33,-12.17,12.17,12.19,15.65,1.85,1.84,1.85
35.62,-10.20,-12.05,-10.20,-12.05,12.05,12.05,15.32,1.84,1.85,1.84
35.97,-10.07,-11.92,-10.07,-11.92,11.92,11.92,14.99,1.85,1.85,1.85
36.33,-9.94,-11.80,-9.94,-11.79,11.79,11.79,14.67,1.85,1.86,1.86
36.70,-9.81,-11.67,-9.81,-11.66,11.66,11.65,14.35,1.85,1.86,1.86
37.06,-9.68,-11.54,-9.68,-11.53,11.53,11.52,14.03,1.85,1.86,1.86
37.43,-9.55,-11.41,-9.55,-11.41,11.41,11.39,13.73,1.86,1.86,1.86
37.81,-9.42,-11.28,-9.42,-11.28,11.28,11.26,13.43,1.85,1.86,1.86
38.19,-9.29,-11.14,-9.29,-11.14,11.14,11.12,13.14,1.85,1.85,1.85
38.57,-9.16,-11.02,-9.17,-11.01,11.01,10.99,12.86,1.85,1.85,1.86
38.95,-9.03,-10.88,-9.04,-10.88,10.88,10.86,12.59,1.85,1.84,1.85
39.34,-8.91,-10.74,-8.91,-10.75,10.75,10.73,12.33,1.84,1.84,1.83
39.74,-8.78,-10.61,-8.79,-10.62,10.62,10.60,12.07,1.84,1.83,1.83
40.14,-8.66,-10.48,-8.67,-10.49,10.49,10.47,11.82,1.83,1.83,1.82
40.54,-8.54,-10.36,-8.55,-10.36,10.36,10.34,11.58,1.82,1.82,1.82
40.94,-8.43,-10.24,-8.42,-10.24,10.24,10.21,11.35,1.80,1.81,1.81
41.35,-8.31,-10.11,-8.30,-10.11,10.11,10.08,11.13,1.79,1.80,1.80
41.76,-8.19,-9.98,-8.19,-9.98,9.98,9.96,10.91,1.79,1.79,1.79
42.18,-8.07,-9.86,-8.07,-9.85,9.85,9.83,10.70,1.78,1.78,1.79
42.60,-7.95,-9.72,-7.95,-9.72,9.72,9.70,10.50,1.77,1.77,1.77
43.03,-7.83,-9.60,-7.83,-9.59,9.59,9.58,10.31,1.76,1.76,1.77
43.46,-7.71,-9.46,-7.72,-9.46,9.46,9.45,10.12,1.75,1.74,1.75
43.90,-7.60,-9.34,-7.60,-9.33,9.33,9.33,9.94,1.73,1.73,1.73
44.33,-7.48,-9.20,-7.49,-9.21,9.21,9.21,9.76,1.73,1.72,1.71
44.78,-7.37,-9.08,-7.37,-9.08,9.08,9.09,9.59,1.71,1.71,1.71
45.23,-7.25,-8.94,-7.26,-8.96,8.96,8.96,9.43,1.70,1.70,1.69
45.68,-7.14,-8.82,-7.14,-8.83,8.83,8.84,9.27,1.69,1.68,1.68
46.13,-7.03,-8.70,-7.03,-8.70,8.70,8.72,9.12,1.67,1.67,1.67
46.60,-6.92,-8.59,-6.92,-8.58,8.58,8.61,8.97,1.66,1.66,1.66
47.06,-6.82,-8.47,-6.81,-8.46,8.46,8.49,8.83,1.64,1.65,1.65
47.53,-6.71,-8.35,-6.70,-8.34,8.34,8.37,8.69,1.63,1.64,1.64
48.01,-6.60,-8.24,-6.60,-8.22,8.22,8.25,8.56,1.62,1.63,1.64
48.49,-6.49,-8.12,-6.49,-8.11,8.11,8.14,8.44,1.62,1.62,1.63
48.97,-6.38,-7.99,-6.38,-8.00,8.00,8.03,8.31,1.61,1.61,1.61
49.46,-6.27,-7.86,-6.28,-7.88,7.88,7.91,8.19,1.61,1.60,1.59
49.96,-6.17,-7.75,-6.18,-7.77,7.77,7.80,8.08,1.60,1.60,1.58
50.46,-6.07,-7.65,-6.07,-7.67,7.67,7.69,7.97,1.59,1.59,1.58
50.96,-5.97,-7.56,-5.97,-7.56,7.56,7.58,7.86,1.59,1.58,1.59
51.47,-5.87,-7.44,-5.87,-7.45,7.45,7.47,7.76,1.58,1.58,1.57
51.99,-5.77,-7.34,-5.78,-7.34,7.34,7.36,7.66,1.57,1.57,1.57
52.51,-5.68,-7.25,-5.68,-7.24,7.24,7.25,7.56,1.56,1.56,1.57
53.03,-5.58,-7.14,-5.58,-7.14,7.14,7.15,7.47,1.55,1.55,1.56
53.56,-5.49,-7.05,-5.49,-7.03,7.03,7.04,7.37,1.54,1.55,1.55
54.10,-5.39,-6.94,-5.39,-6.93,6.93,6.94,7.28,1.54,1.54,1.55
54.64,-5.30,-6.83,-5.30,-6.83,6.83,6.83,7.20,1.52,1.53,1.53
55.18,-5.21,-6.73,-5.21,-6.72,6.72,6.73,7.11,1.51,1.52,1.52
55.74,-5.12,-6.62,-5.12,-6.62,6.62,6.63,7.02,1.50,1.50,1.50
56.29,-5.03,-6.52,-5.03,-6.52,6.52,6.53,6.94,1.48,1.49,1.49
56.86,-4.93,-6.40,-4.94,-6.41,6.41,6.43,6.85,1.48,1.47,1.47
57.42,-4.85,-6.29,-4.86,-6.31,6.31,6.33,6.77,1.45,1.45,1.44
58.00,-4.76,-6.19,-4.77,-6.20,6.20,6.24,6.69,1.44,1.43,1.43
58.58,-4.68,-6.09,-4.69,-6.09,6.09,6.14,6.60,1.41,1.40,1.41
59.16,-4.60,-5.99,-4.60,-5.98,5.98,6.05,6.52,1.38,1.38,1.39
59.76,-4.52,-5.89,-4.52,-5.87,5.87,5.95,6.44,1.35,1.35,1.37
60.35,-4.45,-5.78,-4.44,-5.77,5.77,5.86,6.35,1.32,1.32,1.33
60.96,-4.38,-5.70,-4.37,-5.66,5.66,5.77,6.27,1.28,1.30,1.31
61.57,-4.30,-5.57,-4.29,-5.56,5.56,5.68,6.18,1.26,1.27,1.27
62.18,-4.22,-5.45,-4.22,-5.46,5.46,5.59,6.10,1.24,1.24,1.23
62.80,-4.14,-5.35,-4.15,-5.36,5.36,5.50,6.01,1.22,1.21,1.21
63.43,-4.07,-5.24,-4.08,-5.27,5.27,5.41,5.92,1.19,1.19,1.17
64.07,-4.00,-5.15,-4.01,-5.17,5.17,5.33,5.83,1.17,1.16,1.15
64.71,-3.94,-5.07,-3.95,-5.08,5.08,5.24,5.74,1.14,1.14,1.13
65.35,-3.88,-4.99,-3.88,-4.99,4.99,5.15,5.65,1.11,1.11,1.10
66.01,-3.82,-4.91,-3.82,-4.91,4.91,5.07,5.55,1.09,1.09,1.09
66.67,-3.76,-4.84,-3.76,-4.83,4.83,4.99,5.46,1.07,1.07,1.08
67.33,-3.70,-4.76,-3.70,-4.76,4.76,4.91,5.36,1.05,1.06,1.06
68.01,-3.64,-4.69,-3.64,-4.68,4.68,4.83,5.27,1.04,1.04,1.04
68.69,-3.58,-4.61,-3.58,-4.61,4.61,4.75,5.17,1.03,1.03,1.03
69.37,-3.52,-4.54,-3.53,-4.55,4.55,4.67,5.07,1.02,1.02,1.02
70.07,-3.47,-4.47,-3.48,-4.48,4.48,4.59,4.97,1.01,1.00,1.00
70.77,-3.42,-4.42,-3.43,-4.41,4.41,4.52,4.88,0.99,0.99,1.00
71.48,-3.37,-4.35,-3.38,-4.34,4.34,4.44,4.78,0.97,0.97,0.98
72.19,-3.33,-4.29,-3.33,-4.28,4.28,4.37,4.68,0.95,0.95,0.96
72.91,-3.29,-4.23,-3.28,-4.21,4.21,4.29,4.58,0.92,0.94,0.94
73.64,-3.23,-4.15,-3.23,-4.14,4.14,4.22,4.49,0.91,0.92,0.92
74.38,-3.18,-4.08,-3.18,-4.08,4.08,4.15,4.39,0.90,0.90,0.90
75.12,-3.13,-4.01,-3.14,-4.01,4.01,4.08,4.30,0.88,0.88,0.88
75.87,-3.10,-3.96,-3.09,-3.95,3.95,4.01,4.20,0.85,0.86,0.86
76.63,-3.05,-3.89,-3.05,-3.88,3.88,3.94,4.11,0.83,0.84,0.84
77.40,-3.01,-3.82,-3.01,-3.82,3.82,3.87,4.01,0.81,0.82,0.81
78.17,-2.96,-3.74,-2.96,-3.76,3.76,3.80,3.92,0.80,0.80,0.78
78.95,-2.92,-3.70,-2.93,-3.70,3.70,3.74,3.83,0.78,0.78,0.78
79.74,-2.89,-3.65,-2.89,-3.65,3.65,3.67,3.74,0.76,0.76,0.76
80.54,-2.85,-3.59,-2.85,-3.60,3.60,3.61,3.65,0.75,0.74,0.74
81.35,-2.82,-3.54,-2.82,-3.55,3.55,3.54,3.57,0.73,0.73,0.72
82.16,-2.79,-3.50,-2.80,-3.51,3.51,3.48,3.48,0.72,0.72,0.71
82.98,-2.76,-3.46,-2.77,-3.48,3.48,3.42,3.40,0.71,0.70,0.70
83.81,-2.74,-3.43,-2.75,-3.44,3.44,3.36,3.32,0.70,0.69,0.69
84.65,-2.73,-3.40,-2.73,-3.41,3.41,3.30,3.23,0.68,0.68,0.67
85.50,-2.72,-3.39,-2.72,-3.39,3.39,3.24,3.16,0.67,0.67,0.67
86.35,-2.70,-3.36,-2.71,-3.36,3.36,3.18,3.08,0.66,0.66,0.66
87.22,-2.69,-3.33,-2.70,-3.34,3.34,3.12,3.00,0.65,0.64,0.64
88.09,-2.68,-3.31,-2.69,-3.32,3.32,3.07,2.93,0.64,0.63,0.63
88.97,-2.68,-3.30,-2.69,-3.30,3.30,3.01,2.85,0.62,0.61,0.62
89.86,-2.69,-3.29,-2.69,-3.28,3.28,2.95,2.78,0.59,0.59,0.60
90.76,-2.70,-3.27,-2.69,-3.25,3.25,2.90,2.71,0.55,0.56,0.57
91.66,-2.70,-3.24,-2.69,-3.23,3.23,2.85,2.64,0.52,0.54,0.54
92.58,-2.70,-3.20,-2.69,-3.20,3.20,2.79,2.57,0.49,0.50,0.50
93.51,-2.70,-3.18,-2.70,-3.16,3.16,2.74,2.51,0.46,0.46,0.47
94.44,-2.70,-3.13,-2.70,-3.12,3.12,2.69,2.44,0.42,0.42,0.43
95.39,-2.70,-3.09,-2.71,-3.08,3.08,2.64,2.38,0.38,0.37,0.38
96.34,-2.70,-3.03,-2.71,-3.03,3.03,2.59,2.32,0.33,0.32,0.33
97.30,-2.70,-2.96,-2.72,-2.98,2.98,2.54,2.26,0.28,0.26,0.26
98.28,-2.71,-2.92,-2.72,-2.92,2.92,2.49,2.20,0.21,0.20,0.21
99.26,-2.71,-2.85,-2.71,-2.85,2.85,2.45,2.14,0.14,0.14,0.14
100.25,-2.72,-2.79,-2.71,-2.78,2.78,2.40,2.08,0.06,0.07,0.07
101.25,-2.73,-2.74,-2.70,-2.71,2.71,2.35,2.03,-0.02,0.01,0.00
102.27,-2.72,-2.66,-2.70,-2.64,2.64,2.31,1.97,-0.09,-0.06,-0.06
103.29,-2.71,-2.57,-2.69,-2.56,2.56,2.26,1.92,-0.16,-0.13,-0.14
104.32,-2.69,-2.49,-2.68,-2.48,2.48,2.22,1.87,-0.22,-0.20,-0.20
105.37,-2.67,-2.40,-2.67,-2.39,2.39,2.18,1.82,-0.28,-0.27,-0.28
106.42,-2.65,-2.31,-2.65,-2.31,2.31,2.13,1.77,-0.34,-0.34,-0.34
107.48,-2.63,-2.22,-2.64,-2.23,2.23,2.09,1.72,-0.40,-0.41,-0.41
108.56,-2.61,-2.13,-2.63,-2.15,2.15,2.05,1.68,-0.46,-0.48,-0.48
109.64,-2.60,-2.06,-2.62,-2.08,2.08,2.01,1.63,-0.53,-0.54,-0.55
110.74,-2.60,-2.00,-2.61,-2.00,2.00,1.97,1.59,-0.60,-0.61,-0.60
111.85,-2.59,-1.93,-2.61,-1.94,1.94,1.93,1.55,-0.65,-0.67,-0.66
112.97,-2.60,-1.86,-2.61,-1.88,1.88,1.89,1.50,-0.72,-0.73,-0.74
114.10,-2.60,-1.82,-2.61,-1.83,1.83,1.85,1.46,-0.78,-0.79,-0.78
115.24,-2.61,-1.76,-2.62,-1.78,1.78,1.81,1.43,-0.83,-0.84,-0.85
116.39,-2.62,-1.72,-2.63,-1.74,1.74,1.78,1.39,-0.88,-0.90,-0.91
117.55,-2.63,-1.68,-2.64,-1.70,1.70,1.74,1.35,-0.93,-0.95,-0.95
118.73,-2.65,-1.64,-2.66,-1.66,1.66,1.70,1.32,-0.99,-0.99,-1.01
119.92,-2.68,-1.64,-2.67,-1.63,1.63,1.67,1.29,-1.05,-1.04,-1.04
121.12,-2.70,-1.62,-2.68,-1.60,1.60,1.63,1.25,-1.11,-1.08,-1.09
122.33,-2.71,-1.58,-2.69,-1.56,1.56,1.60,1.22,-1.15,-1.13,-1.13
123.55,-2.73,-1.57,-2.70,-1.53,1.53,1.57,1.20,-1.20,-1.17,-1.16
124.79,-2.72,-1.52,-2.71,-1.50,1.50,1.53,1.17,-1.22,-1.21,-1.20
126.03,-2.71,-1.48,-2.71,-1.47,1.47,1.50,1.14,-1.24,-1.24,-1.23
127.29,-2.71,-1.44,-2.71,-1.43,1.43,1.47,1.12,-1.28,-1.28,-1.28
128.57,-2.70,-1.38,-2.71,-1.40,1.40,1.44,1.09,-1.31,-1.32,-1.33
129.85,-2.70,-1.35,-2.71,-1.36,1.36,1.41,1.07,-1.35,-1.36,-1.35
131.15,-2.70,-1.31,-2.71,-1.31,1.31,1.38,1.05,-1.39,-1.40,-1.39
132.46,-2.70,-1.26,-2.70,-1.27,1.27,1.35,1.03,-1.43,-1.43,-1.44
133.79,-2.70,-1.23,-2.70,-1.22,1.22,1.32,1.01,-1.48,-1.47,-1.47
135.12,-2.70,-1.19,-2.69,-1.18,1.18,1.29,1.00,-1.52,-1.51,-1.51
136.48,-2.70,-1.15,-2.69,-1.13,1.13,1.26,0.98,-1.57,-1.55,-1.55
137.84,-2.70,-1.11,-2.69,-1.09,1.09,1.23,0.96,-1.61,-1.59,-1.59
139.22,-2.69,-1.05,-2.69,-1.05,1.05,1.21,0.95,-1.64,-1.64,-1.64
140.61,-2.68,-0.99,-2.69,-1.01,1.01,1.18,0.94,-1.67,-1.68,-1.69
142.02,-2.68,-0.96,-2.70,-0.98,0.98,1.16,0.93,-1.70,-1.72,-1.72
143.44,-2.69,-0.93,-2.71,-0.95,0.95,1.13,0.91,-1.75,-1.76,-1.76
144.87,-2.70,-0.89,-2.72,-0.92,0.92,1.11,0.90,-1.79,-1.81,-1.81
146.32,-2.72,-0.87,-2.74,-0.89,0.89,1.08,0.89,-1.83,-1.85,-1.86
147.78,-2.75,-0.86,-2.76,-0.86,0.86,1.06,0.89,-1.89,-1.90,-1.89
149.26,-2.77,-0.83,-2.78,-0.84,0.84,1.03,0.88,-1.93,-1.94,-1.94
150.75,-2.80,-0.81,-2.81,-0.81,0.81,1.01,0.87,-1.99,-1.99,-2.00
152.26,-2.84,-0.80,-2.83,-0.79,0.79,0.99,0.86,-2.05,-2.04,-2.04
153.78,-2.87,-0.79,-2.86,-0.77,0.77,0.97,0.86,-2.10,-2.09,-2.08
155.32,-2.90,-0.77,-2.89,-0.75,0.75,0.94,0.85,-2.15,-2.14,-2.14
156.88,-2.94,-0.76,-2.92,-0.73,0.73,0.92,0.85,-2.21,-2.19,-2.18
158.44,-2.96,-0.72,-2.95,-0.71,0.71,0.90,0.84,-2.25,-2.24,-2.24
160.03,-2.98,-0.69,-2.97,-0.68,0.68,0.88,0.84,-2.30,-2.29,-2.29
161.63,-3.00,-0.66,-3.00,-0.66,0.66,0.86,0.84,-2.34,-2.34,-2.35
163.24,-3.02,-0.63,-3.03,-0.64,0.64,0.85,0.84,-2.38,-2.39,-2.39
164.88,-3.05,-0.61,-3.05,-0.61,0.61,0.83,0.83,-2.44,-2.44,-2.44
166.53,-3.07,-0.59,-3.07,-0.59,0.59,0.81,0.83,-2.48,-2.48,-2.49
168.19,-3.08,-0.55,-3.10,-0.57,0.57,0.79,0.83,-2.51,-2.53,-2.53
169.87,-3.11,-0.54,-3.12,-0.54,0.54,0.78,0.83,-2.57,-2.58,-2.57
171.57,-3.13,-0.51,-3.15,-0.53,0.53,0.76,0.83,-2.61,-2.62,-2.62
173.29,-3.16,-0.50,-3.17,-0.51,0.51,0.74,0.83,-2.65,-2.66,-2.66
175.02,-3.20,-0.50,-3.19,-0.49,0.49,0.73,0.83,-2.71,-2.70,-2.70
176.77,-3.23,-0.49,-3.22,-0.48,0.48,0.71,0.83,-2.75,-2.74,-2.74
178.54,-3.25,-0.47,-3.24,-0.47,0.47,0.70,0.83,-2.78,-2.77,-2.78
180.32,-3.27,-0.46,-3.27,-0.47,0.47,0.69,0.84,-2.81,-2.80,-2.81
182.13,-3.29,-0.46,-3.29,-0.46,0.46,0.67,0.84,-2.83,-2.83,-2.84
183.95,-3.32,-0.46,-3.32,-0.46,0.46,0.66,0.84,-2.86,-2.86,-2.86
185.79,-3.35,-0.46,-3.34,-0.46,0.46,0.65,0.85,-2.90,-2.89,-2.89
187.65,-3.37,-0.46,-3.37,-0.46,0.46,0.64,0.85,-2.91,-2.91,-2.91
189.52,-3.39,-0.46,-3.39,-0.46,0.46,0.63,0.85,-2.93,-2.93,-2.93
191.42,-3.41,-0.46,-3.42,-0.46,0.46,0.62,0.86,-2.95,-2.95,-2.95
193.33,-3.43,-0.47,-3.44,-0.47,0.47,0.61,0.86,-2.96,-2.97,-2.97
195.27,-3.45,-0.47,-3.46,-0.48,0.48,0.60,0.87,-2.98,-2.99,-2.98
197.22,-3.48,-0.48,-3.49,-0.49,0.49,0.59,0.87,-3.00,-3.01,-3.00
199.19,-3.52,-0.49,-3.52,-0.50,0.50,0.58,0.88,-3.02,-3.02,-3.03
201.18,-3.55,-0.51,-3.55,-0.51,0.51,0.58,0.88,-3.04,-3.04,-3.04
203.19,-3.57,-0.52,-3.57,-0.52,0.52,0.57,0.89,-3.05,-3.05,-3.05
205.23,-3.60,-0.53,-3.60,-0.53,0.53,0.57,0.90,-3.07,-3.07,-3.07
207.28,-3.63,-0.55,-3.63,-0.54,0.54,0.56,0.90,-3.09,-3.09,-3.08
209.35,-3.66,-0.57,-3.66,-0.56,0.56,0.56,0.91,-3.10,-3.10,-3.10
211.44,-3.69,-0.57,-3.69,-0.57,0.57,0.55,0.92,-3.12,-3.12,-3.12
213.56,-3.72,-0.59,-3.72,-0.59,0.59,0.55,0.92,-3.13,-3.13,-3.13
215.69,-3.76,-0.63,-3.75,-0.61,0.61,0.55,0.93,-3.15,-3.15,-3.14
217.85,-3.78,-0.62,-3.79,-0.63,0.63,0.55,0.94,-3.16,-3.16,-3.16
220.03,-3.80,-0.62,-3.82,-0.64,0.64,0.55,0.94,-3.16,-3.18,-3.18
222.23,-3.82,-0.62,-3.85,-0.66,0.66,0.55,0.95,-3.17,-3.19,-3.20
224.45,-3.86,-0.66,-3.87,-0.67,0.67,0.55,0.96,-3.19,-3.21,-3.21
226.70,-3.90,-0.68,-3.90,-0.67,0.67,0.55,0.96,-3.23,-3.23,-3.22
228.96,-3.93,-0.70,-3.92,-0.68,0.68,0.55,0.97,-3.25,-3.24,-3.23
231.25,-3.95,-0.71,-3.94,-0.68,0.68,0.56,0.98,-3.27,-3.26,-3.25
233.57,-3.98,-0.71,-3.95,-0.68,0.68,0.56,0.98,-3.30,-3.28,-3.27
235.90,-4.01,-0.72,-3.97,-0.68,0.68,0.57,0.99,-3.34,-3.29,-3.29
238.26,-4.01,-0.70,-3.98,-0.67,0.67,0.57,0.99,-3.34,-3.31,-3.31
240.64,-4.01,-0.68,-3.99,-0.67,0.67,0.58,1.00,-3.35,-3.32,-3.33
243.05,-4.00,-0.66,-4.00,-0.66,0.66,0.59,1.00,-3.34,-3.34,-3.34
245.48,-3.99,-0.64,-4.01,-0.66,0.66,0.60,1.00,-3.33,-3.35,-3.35
247.93,-3.99,-0.63,-4.02,-0.67,0.67,0.61,1.01,-3.33,-3.36,-3.36
250.41,-4.00,-0.62,-4.03,-0.67,0.67,0.62,1.01,-3.33,-3.36,-3.38
252.92,-4.02,-0.65,-4.05,-0.68,0.68,0.63,1.01,-3.34,-3.37,-3.37
255.45,-4.04,-0.67,-4.07,-0.70,0.70,0.64,1.01,-3.34,-3.37,-3.37
258.00,-4.07,-0.70,-4.09,-0.72,0.72,0.66,1.01,-3.35,-3.37,-3.37
260.58,-4.10,-0.74,-4.11,-0.75,0.75,0.67,1.01,-3.35,-3.36,-3.37
263.19,-4.13,-0.78,-4.14,-0.79,0.79,0.69,1.01,-3.34,-3.35,-3.35
265.82,-4.18,-0.83,-4.17,-0.83,0.83,0.71,1.01,-3.35,-3.34,-3.35
268.48,-4.20,-0.87,-4.20,-0.87,0.87,0.73,1.01,-3.33,-3.33,-3.33
271.16,-4.23,-0.92,-4.23,-0.91,0.91,0.75,1.01,-3.32,-3.32,-3.32
273.87,-4.27,-0.97,-4.26,-0.95,0.95,0.77,1.01,-3.32,-3.31,-3.30
276.61,-4.30,-1.02,-4.28,-0.99,0.99,0.79,1.01,-3.31,-3.29,-3.28
279.38,-4.32,-1.05,-4.30,-1.02,1.02,0.81,1.01,-3.30,-3.28,-3.28
282.17,-4.33,-1.07,-4.32,-1.05,1.05,0.84,1.01,-3.28,-3.26,-3.26
284.99,-4.35,-1.10,-4.33,-1.08,1.08,0.86,1.00,-3.27,-3.25,-3.25
287.84,-4.35,-1.12,-4.34,-1.10,1.10,0.89,1.00,-3.25,-3.23,-3.23
290.72,-4.34,-1.13,-4.34,-1.13,1.13,0.92,1.00,-3.21,-3.21,-3.21
293.63,-4.33,-1.13,-4.34,-1.15,1.15,0.94,1.00,-3.18,-3.20,-3.20
296.57,-4.33,-1.15,-4.34,-1.17,1.17,0.97,1.00,-3.17,-3.18,-3.18
299.53,-4.33,-1.17,-4.34,-1.18,1.18,1.00,1.00,-3.15,-3.16,-3.16
302.53,-4.33,-1.17,-4.34,-1.20,1.20,1.04,1.00,-3.13,-3.14,-3.16
305.55,-4.33,-1.21,-4.34,-1.22,1.22,1.07,1.00,-3.12,-3.12,-3.12
308.61,-4.33,-1.23,-4.34,-1.23,1.23,1.10,1.00,-3.10,-3.10,-3.11
311.69,-4.33,-1.25,-4.33,-1.25,1.25,1.14,1.00,-3.08,-3.08,-3.08
314.81,-4.33,-1.29,-4.33,-1.27,1.27,1.17,1.01,-3.06,-3.06,-3.04
317.96,-4.33,-1.30,-4.33,-1.29,1.29,1.21,1.01,-3.04,-3.04,-3.03
321.14,-4.33,-1.32,-4.33,-1.31,1.31,1.24,1.01,-3.02,-3.02,-3.01
324.35,-4.33,-1.34,-4.33,-1.34,1.34,1.28,1.02,-2.99,-2.99,-3.00
327.59,-4.33,-1.36,-4.33,-1.36,1.36,1.32,1.02,-2.97,-2.97,-2.97
330.87,-4.33,-1.38,-4.33,-1.38,1.38,1.36,1.03,-2.95,-2.95,-2.95
334.18,-4.33,-1.41,-4.33,-1.41,1.41,1.39,1.04,-2.92,-2.92,-2.93
337.52,-4.33,-1.42,-4.33,-1.43,1.43,1.43,1.04,-2.90,-2.90,-2.91
340.90,-4.33,-1.45,-4.33,-1.45,1.45,1.47,1.05,-2.88,-2.88,-2.88
344.30,-4.33,-1.48,-4.33,-1.48,1.48,1.51,1.06,-2.86,-2.86,-2.85
347.75,-4.33,-1.49,-4.33,-1.50,1.50,1.55,1.07,-2.83,-2.83,-2.84
351.23,-4.33,-1.52,-4.33,-1.52,1.52,1.58,1.08,-2.81,-2.81,-2.81
354.74,-4.33,-1.55,-4.33,-1.55,1.55,1.62,1.10,-2.79,-2.79,-2.78
358.28,-4.33,-1.57,-4.33,-1.57,1.57,1.66,1.11,-2.76,-2.76,-2.76
361.87,-4.33,-1.59,-4.33,-1.59,1.59,1.69,1.12,-2.74,-2.74,-2.74
365.49,-4.33,-1.62,-4.33,-1.62,1.62,1.72,1.14,-2.71,-2.71,-2.71
369.14,-4.33,-1.63,-4.33,-1.64,1.64,1.75,1.15,-2.69,-2.69,-2.70
372.83,-4.33,-1.66,-4.33,-1.66,1.66,1.78,1.17,-2.67,-2.67,-2.67
376.56,-4.33,-1.68,-4.33,-1.68,1.68,1.81,1.19,-2.65,-2.65,-2.66
380.33,-4.33,-1.71,-4.33,-1.70,1.70,1.84,1.20,-2.63,-2.63,-2.62
384.13,-4.33,-1.72,-4.33,-1.72,1.72,1.86,1.22,-2.61,-2.61,-2.61
387.97,-4.33,-1.74,-4.33,-1.74,1.74,1.88,1.24,-2.59,-2.59,-2.59
391.85,-4.33,-1.75,-4.33,-1.75,1.75,1.90,1.26,-2.58,-2.58,-2.58
395.77,-4.33,-1.78,-4.33,-1.77,1.77,1.91,1.28,-2.56,-2.57,-2.55
399.73,-4.33,-1.79,-4.34,-1.78,1.78,1.93,1.30,-2.55,-2.55,-2.55
403.72,-4.33,-1.78,-4.34,-1.79,1.79,1.94,1.32,-2.54,-2.55,-2.55
407.76,-4.33,-1.79,-4.34,-1.80,1.80,1.94,1.34,-2.53,-2.54,-2.54
411.84,-4.33,-1.80,-4.34,-1.81,1.81,1.94,1.36,-2.52,-2.54,-2.53
415.96,-4.33,-1.80,-4.35,-1.81,1.81,1.94,1.37,-2.52,-2.53,-2.53
420.12,-4.34,-1.81,-4.34,-1.81,1.81,1.93,1.39,-2.53,-2.53,-2.53
424.32,-4.35,-1.82,-4.34,-1.80,1.80,1.92,1.41,-2.55,-2.54,-2.53
428.56,-4.35,-1.82,-4.33,-1.80,1.80,1.91,1.43,-2.56,-2.54,-2.54
432.85,-4.34,-1.80,-4.33,-1.79,1.79,1.89,1.45,-2.56,-2.54,-2.55
437.18,-4.33,-1.78,-4.32,-1.77,1.77,1.87,1.46,-2.56,-2.55,-2.55
441.55,-4.32,-1.77,-4.30,-1.75,1.75,1.84,1.48,-2.57,-2.55,-2.55
445.96,-4.30,-1.74,-4.28,-1.73,1.73,1.81,1.49,-2.57,-2.55,-2.56
