frequency,raw,error,smoothed,error_smoothed,equalization,parametric_eq,fixed_band_eq,equalized_raw,equalized_smoothed,target
20.00,2.37,-3.49,2.36,-3.51,3.51,3.22,1.35,5.88,5.86,5.86
20.20,2.35,-3.50,2.35,-3.51,3.51,3.22,1.39,5.86,5.85,5.85
20.40,2.34,-3.50,2.34,-3.50,3.50,3.22,1.43,5.84,5.84,5.84
20.61,2.33,-3.50,2.33,-3.49,3.49,3.23,1.47,5.83,5.83,5.83
20.81,2.32,-3.49,2.33,-3.49,3.49,3.23,1.52,5.81,5.82,5.81
21.02,2.32,-3.48,2.33,-3.48,3.48,3.23,1.56,5.80,5.81,5.80
21.23,2.32,-3.47,2.33,-3.46,3.46,3.24,1.61,5.79,5.80,5.79
21.44,2.32,-3.48,2.34,-3.45,3.45,3.24,1.66,5.77,5.79,5.80
21.66,2.33,-3.45,2.34,-3.43,3.43,3.24,1.71,5.77,5.78,5.78
21.87,2.34,-3.44,2.35,-3.41,3.41,3.24,1.76,5.76,5.77,5.78
22.09,2.35,-3.41,2.37,-3.39,3.39,3.24,1.81,5.75,5.76,5.76
22.31,2.37,-3.38,2.38,-3.37,3.37,3.24,1.86,5.75,5.75,5.75
22.54,2.39,-3.35,2.40,-3.34,3.34,3.24,1.92,5.74,5.75,5.74
22.76,2.42,-3.32,2.43,-3.31,3.31,3.24,1.97,5.74,5.74,5.74
22.99,2.45,-3.28,2.46,-3.28,3.28,3.24,2.03,5.73,5.74,5.73
23.22,2.48,-3.24,2.48,-3.25,3.25,3.24,2.09,5.73,5.73,5.72
23.45,2.51,-3.22,2.51,-3.21,3.21,3.24,2.15,5.72,5.73,5.73
23.69,2.54,-3.18,2.54,-3.18,3.18,3.24,2.21,5.72,5.72,5.72
23.92,2.57,-3.14,2.57,-3.15,3.15,3.23,2.27,5.72,5.72,5.71
24.16,2.60,-3.12,2.60,-3.12,3.12,3.23,2.33,5.72,5.71,5.72
24.40,2.62,-3.10,2.62,-3.09,3.09,3.23,2.40,5.72,5.71,5.72
24.65,2.65,-3.06,2.64,-3.07,3.07,3.22,2.46,5.73,5.71,5.71
24.89,2.67,-3.04,2.65,-3.05,3.05,3.22,2.53,5.73,5.71,5.71
25.14,2.68,-3.02,2.67,-3.04,3.04,3.21,2.59,5.72,5.71,5.70
25.39,2.69,-3.01,2.67,-3.03,3.03,3.21,2.66,5.72,5.70,5.70
25.65,2.69,-3.01,2.68,-3.02,3.02,3.20,2.72,5.72,5.70,5.70
25.91,2.68,-3.02,2.69,-3.02,3.02,3.19,2.79,5.70,5.70,5.70
26.16,2.67,-3.04,2.69,-3.01,3.01,3.19,2.85,5.69,5.70,5.71
26.43,2.67,-3.03,2.69,-3.01,3.01,3.18,2.91,5.69,5.70,5.70
26.69,2.67,-3.03,2.69,-3.02,3.02,3.17,2.98,5.69,5.70,5.70
26.96,2.67,-3.03,2.68,-3.02,3.02,3.16,3.04,5.69,5.70,5.70
27.23,2.67,-3.03,2.68,-3.03,3.03,3.15,3.10,5.70,5.70,5.70
27.50,2.67,-3.03,2.67,-3.04,3.04,3.14,3.16,5.71,5.71,5.70
27.77,2.67,-3.04,2.66,-3.05,3.05,3.13,3.21,5.72,5.71,5.71
28.05,2.67,-3.03,2.66,-3.05,3.05,3.12,3.26,5.72,5.71,5.70
28.33,2.67,-3.04,2.65,-3.06,3.06,3.11,3.31,5.73,5.71,5.71
28.62,2.66,-3.05,2.65,-3.06,3.06,3.10,3.36,5.72,5.71,5.71
28.90,2.65,-3.07,2.65,-3.06,3.06,3.09,3.40,5.71,5.71,5.72
29.19,2.64,-3.08,2.66,-3.05,3.05,3.07,3.44,5.70,5.71,5.72
29.48,2.64,-3.07,2.66,-3.05,3.05,3.06,3.47,5.69,5.71,5.71
29.78,2.65,-3.06,2.67,-3.04,3.04,3.05,3.50,5.69,5.71,5.71
30.08,2.66,-3.05,2.68,-3.03,3.03,3.03,3.52,5.69,5.70,5.71
30.38,2.67,-3.02,2.69,-3.01,3.01,3.02,3.54,5.68,5.70,5.69
30.68,2.70,-2.99,2.71,-2.99,2.99,3.00,3.55,5.69,5.70,5.69
30.99,2.72,-2.97,2.73,-2.96,2.96,2.99,3.56,5.68,5.69,5.69
31.30,2.75,-2.94,2.76,-2.93,2.93,2.97,3.56,5.68,5.69,5.69
31.61,2.78,-2.90,2.78,-2.89,2.89,2.95,3.56,5.68,5.68,5.68
31.93,2.81,-2.85,2.81,-2.86,2.86,2.94,3.55,5.67,5.67,5.66
32.24,2.84,-2.83,2.84,-2.82,2.82,2.92,3.53,5.66,5.66,5.67
32.57,2.87,-2.78,2.87,-2.78,2.78,2.90,3.51,5.66,5.66,5.65
32.89,2.90,-2.75,2.90,-2.75,2.75,2.88,3.49,5.65,5.65,5.65
33.22,2.93,-2.71,2.93,-2.72,2.72,2.86,3.46,5.65,5.64,5.64
33.55,2.95,-2.69,2.95,-2.69,2.69,2.84,3.42,5.64,5.64,5.64
33.89,2.98,-2.65,2.97,-2.66,2.66,2.82,3.38,5.65,5.63,5.63
34.23,2.99,-2.62,2.98,-2.64,2.64,2.80,3.34,5.63,5.62,5.61
34.57,3.01,-2.60,2.99,-2.62,2.62,2.78,3.29,5.63,5.61,5.61
34.92,3.01,-2.58,3.00,-2.60,2.60,2.76,3.24,5.62,5.60,5.59
35.27,3.01,-2.60,3.01,-2.59,2.59,2.73,3.19,5.60,5.59,5.61
35.62,3.01,-2.57,3.01,-2.57,2.57,2.71,3.13,5.59,5.58,5.58
35.97,3.00,-2.58,3.01,-2.56,2.56,2.69,3.08,5.56,5.57,5.58
36.33,2.99,-2.57,3.01,-2.55,2.55,2.66,3.02,5.54,5.55,5.56
36.70,2.99,-2.55,3.01,-2.53,2.53,2.64,2.96,5.53,5.54,5.54
37.06,2.99,-2.53,3.00,-2.52,2.52,2.61,2.90,5.51,5.52,5.52
37.43,2.99,-2.51,3.00,-2.50,2.50,2.59,2.83,5.50,5.50,5.50
37.81,2.99,-2.50,3.00,-2.49,2.49,2.56,2.77,5.48,5.48,5.49
38.19,2.99,-2.47,2.99,-2.47,2.47,2.53,2.71,5.46,5.47,5.46
38.57,2.99,-2.45,2.99,-2.45,2.45,2.51,2.64,5.44,5.44,5.44
38.95,2.99,-2.44,2.99,-2.43,2.43,2.48,2.58,5.42,5.42,5.43
39.34,2.99,-2.41,2.99,-2.41,2.41,2.45,2.52,5.40,5.40,5.40
39.74,2.99,-2.38,2.99,-2.39,2.39,2.42,2.46,5.38,5.38,5.37
40.14,2.99,-2.36,2.99,-2.36,2.36,2.39,2.39,5.36,5.36,5.35
40.54,2.99,-2.34,2.99,-2.34,2.34,2.36,2.33,5.33,5.33,5.33
40.94,2.99,-2.31,2.99,-2.32,2.32,2.33,2.27,5.31,5.31,5.30
41.35,2.99,-2.30,2.99,-2.30,2.30,2.30,2.22,5.29,5.29,5.29
41.76,2.99,-2.27,2.99,-2.27,2.27,2.27,2.16,5.27,5.27,5.26
42.18,2.99,-2.26,2.99,-2.25,2.25,2.24,2.10,5.24,5.24,5.25
42.60,2.99,-2.23,2.99,-2.23,2.23,2.21,2.05,5.22,5.22,5.22
43.03,2.99,-2.21,2.99,-2.20,2.20,2.17,2.00,5.19,5.19,5.20
43.46,2.99,-2.17,2.99,-2.18,2.18,2.14,1.94,5.17,5.17,5.16
43.90,2.99,-2.15,2.99,-2.15,2.15,2.11,1.89,5.14,5.14,5.14
44.33,2.99,-2.12,2.99,-2.12,2.12,2.07,1.84,5.12,5.12,5.11
44.78,2.99,-2.10,2.99,-2.09,2.09,2.04,1.80,5.09,5.09,5.09
45.23,2.99,-2.08,2.99,-2.06,2.06,2.00,1.75,5.06,5.06,5.07
45.68,2.99,-2.03,2.99,-2.03,2.03,1.97,1.71,5.02,5.02,5.02
46.13,2.99,-2.00,2.99,-1.99,1.99,1.93,1.66,4.99,4.99,4.99
46.60,2.99,-1.96,2.99,-1.96,1.96,1.89,1.62,4.95,4.95,4.95
47.06,2.99,-1.93,2.99,-1.92,1.92,1.86,1.58,4.91,4.91,4.92
47.53,2.99,-1.89,2.99,-1.88,1.88,1.82,1.54,4.87,4.87,4.88
48.01,2.99,-1.84,2.99,-1.84,1.84,1.78,1.50,4.83,4.83,4.83
48.49,2.99,-1.80,2.99,-1.80,1.80,1.74,1.47,4.79,4.79,4.79
48.97,2.99,-1.75,2.99,-1.76,1.76,1.70,1.43,4.75,4.75,4.74
49.46,2.99,-1.72,2.99,-1.72,1.72,1.66,1.40,4.71,4.71,4.71
49.96,2.99,-1.66,2.99,-1.67,1.67,1.62,1.36,4.67,4.67,4.65
50.46,2.99,-1.63,2.99,-1.63,1.63,1.58,1.33,4.62,4.62,4.62
50.96,2.99,-1.59,2.99,-1.59,1.59,1.54,1.30,4.58,4.58,4.58
51.47,2.99,-1.55,2.99,-1.55,1.55,1.50,1.27,4.54,4.54,4.54
51.99,2.99,-1.50,2.99,-1.51,1.51,1.46,1.24,4.50,4.50,4.49
52.51,2.99,-1.47,2.99,-1.46,1.46,1.42,1.21,4.46,4.46,4.46
53.03,2.99,-1.44,2.99,-1.42,1.42,1.38,1.18,4.41,4.41,4.43
53.56,2.99,-1.39,2.99,-1.38,1.38,1.33,1.15,4.37,4.37,4.38
54.10,2.99,-1.34,2.99,-1.34,1.34,1.29,1.13,4.34,4.34,4.33
54.64,2.99,-1.30,2.99,-1.30,1.30,1.25,1.10,4.30,4.30,4.29
55.18,2.99,-1.26,2.99,-1.27,1.27,1.20,1.07,4.26,4.26,4.25
55.74,2.99,-1.21,2.99,-1.23,1.23,1.16,1.04,4.22,4.22,4.20
56.29,2.99,-1.19,2.99,-1.19,1.19,1.12,1.02,4.18,4.18,4.18
56.86,2.99,-1.15,2.99,-1.15,1.15,1.07,0.99,4.14,4.14,4.14
57.42,2.99,-1.10,2.99,-1.11,1.11,1.03,0.96,4.10,4.10,4.09
58.00,2.99,-1.06,2.99,-1.06,1.06,0.98,0.94,4.06,4.06,4.05
58.58,2.99,-1.03,2.99,-1.02,1.02,0.93,0.91,4.01,4.01,4.02
59.16,2.99,-1.00,2.99,-0.97,0.97,0.89,0.88,3.97,3.97,3.99
59.76,2.99,-0.95,2.99,-0.93,0.93,0.84,0.85,3.92,3.92,3.94
60.35,2.99,-0.90,2.99,-0.88,0.88,0.80,0.82,3.87,3.87,3.89
60.96,2.99,-0.84,2.99,-0.83,0.83,0.75,0.79,3.82,3.82,3.83
61.57,2.99,-0.78,2.99,-0.78,0.78,0.70,0.76,3.77,3.77,3.77
62.18,2.99,-0.72,2.99,-0.73,0.73,0.65,0.73,3.72,3.72,3.71
62.80,2.99,-0.66,2.99,-0.67,0.67,0.61,0.69,3.67,3.67,3.65
63.43,2.99,-0.61,2.99,-0.62,0.62,0.56,0.66,3.61,3.61,3.60
64.07,2.99,-0.56,2.99,-0.57,0.57,0.51,0.63,3.56,3.56,3.55
64.71,2.99,-0.51,2.99,-0.51,0.51,0.46,0.59,3.50,3.50,3.50
65.35,2.99,-0.45,2.99,-0.46,0.46,0.41,0.55,3.45,3.45,3.44
66.01,2.99,-0.40,2.99,-0.40,0.40,0.37,0.52,3.39,3.39,3.39
66.67,2.99,-0.36,2.99,-0.35,0.35,0.32,0.48,3.34,3.34,3.35
67.33,2.99,-0.29,2.99,-0.29,0.29,0.27,0.44,3.28,3.28,3.28
68.01,2.99,-0.24,2.99,-0.23,0.23,0.22,0.40,3.23,3.23,3.23
68.69,2.99,-0.19,3.00,-0.18,0.18,0.17,0.36,3.17,3.17,3.18
69.37,2.99,-0.14,3.00,-0.12,0.12,0.12,0.32,3.11,3.12,3.13
70.07,2.99,-0.08,3.00,-0.06,0.06,0.07,0.27,3.05,3.06,3.07
70.77,2.99,-0.01,3.01,0.00,-0.00,0.02,0.23,2.99,3.00,3.00
71.48,2.99,0.04,3.01,0.06,-0.06,-0.03,0.18,2.93,2.95,2.95
72.19,3.00,0.11,3.01,0.12,-0.12,-0.08,0.14,2.88,2.89,2.89
72.91,3.01,0.19,3.01,0.17,-0.17,-0.13,0.09,2.84,2.83,2.82
73.64,3.01,0.24,3.00,0.23,-0.23,-0.18,0.05,2.78,2.78,2.77
74.38,3.01,0.30,3.00,0.28,-0.28,-0.23,0.00,2.74,2.72,2.71
75.12,3.00,0.34,2.99,0.32,-0.32,-0.28,-0.05,2.68,2.67,2.66
75.87,2.99,0.38,2.98,0.36,-0.36,-0.33,-0.10,2.63,2.61,2.61
76.63,2.97,0.42,2.96,0.40,-0.40,-0.38,-0.14,2.57,2.56,2.55
77.40,2.95,0.44,2.94,0.43,-0.43,-0.43,-0.19,2.52,2.51,2.51
78.17,2.92,0.47,2.92,0.46,-0.46,-0.48,-0.24,2.46,2.46,2.45
78.95,2.89,0.48,2.89,0.48,-0.48,-0.54,-0.29,2.41,2.41,2.41
79.74,2.86,0.50,2.86,0.51,-0.51,-0.59,-0.35,2.36,2.36,2.36
80.54,2.83,0.52,2.83,0.53,-0.53,-0.64,-0.40,2.31,2.31,2.31
81.35,2.80,0.55,2.80,0.54,-0.54,-0.69,-0.45,2.26,2.26,2.25
82.16,2.77,0.55,2.77,0.57,-0.57,-0.74,-0.50,2.21,2.21,2.22
82.98,2.74,0.58,2.75,0.59,-0.59,-0.79,-0.56,2.15,2.16,2.16
83.81,2.71,0.60,2.72,0.62,-0.62,-0.84,-0.61,2.09,2.10,2.11
84.65,2.69,0.64,2.70,0.65,-0.65,-0.89,-0.67,2.04,2.05,2.05
85.50,2.67,0.68,2.69,0.69,-0.69,-0.94,-0.72,1.98,2.00,1.99
86.35,2.65,0.71,2.67,0.73,-0.73,-0.99,-0.78,1.92,1.94,1.94
87.22,2.64,0.75,2.67,0.78,-0.78,-1.04,-0.83,1.87,1.89,1.89
88.09,2.64,0.81,2.66,0.83,-0.83,-1.09,-0.89,1.82,1.83,1.83
88.97,2.65,0.88,2.65,0.88,-0.88,-1.14,-0.95,1.77,1.78,1.77
89.86,2.66,0.94,2.65,0.93,-0.93,-1.19,-1.01,1.73,1.72,1.72
90.76,2.66,1.00,2.65,0.99,-0.99,-1.24,-1.07,1.67,1.66,1.66
91.66,2.67,1.08,2.66,1.06,-1.06,-1.29,-1.13,1.62,1.60,1.59
92.58,2.67,1.13,2.66,1.12,-1.12,-1.34,-1.19,1.55,1.54,1.54
93.51,2.67,1.18,2.67,1.19,-1.19,-1.39,-1.25,1.48,1.48,1.49
94.44,2.67,1.24,2.67,1.26,-1.26,-1.44,-1.31,1.42,1.42,1.43
95.39,2.67,1.31,2.68,1.32,-1.32,-1.48,-1.38,1.35,1.36,1.36
96.34,2.67,1.38,2.68,1.39,-1.39,-1.53,-1.44,1.28,1.29,1.29
97.30,2.67,1.44,2.69,1.46,-1.46,-1.58,-1.51,1.22,1.23,1.23
98.28,2.67,1.51,2.69,1.52,-1.52,-1.63,-1.57,1.16,1.17,1.16
99.26,2.68,1.58,2.69,1.58,-1.58,-1.68,-1.64,1.11,1.11,1.10
100.25,2.69,1.65,2.69,1.63,-1.63,-1.73,-1.70,1.06,1.05,1.04
101.25,2.69,1.70,2.68,1.69,-1.69,-1.77,-1.77,1.00,0.99,0.99
102.27,2.69,1.76,2.67,1.74,-1.74,-1.82,-1.83,0.95,0.93,0.93
103.29,2.67,1.80,2.66,1.79,-1.79,-1.87,-1.90,0.89,0.88,0.87
104.32,2.66,1.84,2.65,1.83,-1.83,-1.91,-1.96,0.83,0.82,0.82
105.37,2.64,1.88,2.63,1.87,-1.87,-1.96,-2.03,0.78,0.76,0.76
106.42,2.61,1.90,2.61,1.90,-1.90,-2.01,-2.09,0.71,0.71,0.71
107.48,2.59,1.94,2.59,1.94,-1.94,-2.05,-2.16,0.66,0.65,0.65
108.56,2.56,1.96,2.56,1.97,-1.97,-2.10,-2.22,0.60,0.59,0.60
109.64,2.53,1.99,2.53,1.99,-1.99,-2.14,-2.28,0.54,0.53,0.54
110.74,2.50,2.02,2.50,2.02,-2.02,-2.19,-2.34,0.48,0.48,0.48
111.85,2.46,2.04,2.47,2.05,-2.05,-2.23,-2.40,0.41,0.42,0.42
112.97,2.43,2.06,2.44,2.09,-2.09,-2.28,-2.46,0.35,0.36,0.37
114.10,2.41,2.10,2.42,2.12,-2.12,-2.32,-2.52,0.29,0.30,0.31
115.24,2.38,2.15,2.40,2.16,-2.16,-2.36,-2.57,0.22,0.24,0.23
116.39,2.36,2.19,2.39,2.20,-2.20,-2.41,-2.62,0.16,0.18,0.17
117.55,2.34,2.23,2.37,2.25,-2.25,-2.45,-2.67,0.10,0.13,0.11
118.73,2.33,2.28,2.36,2.29,-2.29,-2.49,-2.72,0.04,0.07,0.05
119.92,2.33,2.32,2.36,2.34,-2.34,-2.53,-2.76,-0.01,0.01,0.01
121.12,2.34,2.38,2.35,2.39,-2.39,-2.57,-2.80,-0.05,-0.04,-0.04
122.33,2.35,2.45,2.34,2.44,-2.44,-2.62,-2.84,-0.09,-0.10,-0.10
123.55,2.35,2.50,2.33,2.48,-2.48,-2.66,-2.88,-0.13,-0.16,-0.15
124.79,2.35,2.55,2.32,2.53,-2.53,-2.70,-2.91,-0.17,-0.21,-0.20
126.03,2.33,2.59,2.30,2.57,-2.57,-2.74,-2.94,-0.23,-0.27,-0.26
127.29,2.31,2.62,2.28,2.60,-2.60,-2.78,-2.97,-0.29,-0.32,-0.31
128.57,2.28,2.66,2.26,2.63,-2.63,-2.82,-2.99,-0.35,-0.37,-0.38
129.85,2.26,2.69,2.24,2.67,-2.67,-2.85,-3.01,-0.40,-0.43,-0.43
131.15,2.22,2.71,2.21,2.69,-2.69,-2.89,-3.03,-0.47,-0.48,-0.49
132.46,2.18,2.72,2.18,2.72,-2.72,-2.93,-3.05,-0.54,-0.54,-0.54
133.79,2.14,2.74,2.16,2.75,-2.75,-2.97,-3.06,-0.61,-0.59,-0.60
135.12,2.11,2.76,2.13,2.78,-2.78,-3.00,-3.07,-0.67,-0.65,-0.65
136.48,2.08,2.78,2.11,2.81,-2.81,-3.04,-3.08,-0.73,-0.70,-0.70
137.84,2.07,2.82,2.10,2.85,-2.85,-3.08,-3.09,-0.78,-0.75,-0.75
139.22,2.06,2.87,2.09,2.89,-2.89,-3.11,-3.10,-0.83,-0.80,-0.81
140.61,2.06,2.91,2.09,2.94,-2.94,-3.15,-3.10,-0.88,-0.85,-0.85
142.02,2.07,2.98,2.10,2.99,-2.99,-3.18,-3.11,-0.92,-0.90,-0.91
143.44,2.08,3.03,2.11,3.05,-3.05,-3.22,-3.11,-0.97,-0.95,-0.95
144.87,2.11,3.10,2.13,3.12,-3.12,-3.25,-3.12,-1.01,-0.99,-0.99
146.32,2.14,3.18,2.15,3.19,-3.19,-3.28,-3.12,-1.05,-1.04,-1.04
147.78,2.18,3.26,2.18,3.26,-3.26,-3.31,-3.12,-1.08,-1.08,-1.08
149.26,2.22,3.35,2.21,3.33,-3.33,-3.35,-3.13,-1.11,-1.12,-1.13
150.75,2.25,3.42,2.24,3.41,-3.41,-3.38,-3.14,-1.15,-1.17,-1.17
152.26,2.28,3.49,2.27,3.48,-3.48,-3.41,-3.14,-1.19,-1.21,-1.21
153.78,2.31,3.56,2.29,3.55,-3.55,-3.44,-3.15,-1.23,-1.25,-1.25
155.32,2.33,3.62,2.31,3.61,-3.61,-3.47,-3.16,-1.28,-1.30,-1.29
156.88,2.35,3.69,2.33,3.67,-3.67,-3.50,-3.17,-1.32,-1.34,-1.34
158.44,2.36,3.75,2.34,3.73,-3.73,-3.53,-3.18,-1.37,-1.38,-1.39
160.03,2.36,3.79,2.35,3.78,-3.78,-3.56,-3.20,-1.42,-1.43,-1.43
161.63,2.36,3.83,2.36,3.83,-3.83,-3.59,-3.22,-1.47,-1.47,-1.47
163.24,2.36,3.88,2.36,3.88,-3.88,-3.61,-3.24,-1.52,-1.52,-1.52
164.88,2.35,3.92,2.36,3.93,-3.93,-3.64,-3.26,-1.57,-1.57,-1.57
166.53,2.34,3.96,2.36,3.97,-3.97,-3.67,-3.28,-1.63,-1.61,-1.62
168.19,2.34,3.99,2.36,4.02,-4.02,-3.69,-3.31,-1.67,-1.66,-1.65
169.87,2.34,4.05,2.35,4.06,-4.06,-3.72,-3.33,-1.72,-1.71,-1.71
171.57,2.34,4.10,2.35,4.10,-4.10,-3.74,-3.37,-1.76,-1.76,-1.76
173.29,2.34,4.14,2.34,4.15,-4.15,-3.77,-3.40,-1.80,-1.80,-1.80
175.02,2.34,4.19,2.34,4.19,-4.19,-3.79,-3.44,-1.85,-1.85,-1.85
176.77,2.34,4.24,2.34,4.24,-4.24,-3.82,-3.47,-1.89,-1.90,-1.90
178.54,2.34,4.28,2.34,4.29,-4.29,-3.84,-3.52,-1.94,-1.94,-1.94
180.32,2.34,4.34,2.34,4.33,-4.33,-3.86,-3.56,-1.99,-1.99,-2.00
182.13,2.34,4.37,2.35,4.38,-4.38,-3.88,-3.61,-2.04,-2.03,-2.03
183.95,2.34,4.42,2.35,4.43,-4.43,-3.91,-3.66,-2.09,-2.08,-2.08
185.79,2.34,4.47,2.36,4.48,-4.48,-3.93,-3.71,-2.14,-2.13,-2.13
187.65,2.34,4.51,2.36,4.53,-4.53,-3.95,-3.76,-2.19,-2.17,-2.17
189.52,2.35,4.56,2.36,4.57,-4.57,-3.97,-3.82,-2.22,-2.21,-2.21
191.42,2.36,4.61,2.36,4.62,-4.62,-3.99,-3.88,-2.25,-2.26,-2.25
193.33,2.36,4.65,2.36,4.65,-4.65,-4.01,-3.94,-2.29,-2.30,-2.29
195.27,2.36,4.70,2.35,4.69,-4.69,-4.02,-4.01,-2.32,-2.34,-2.34
197.22,2.36,4.75,2.34,4.72,-4.72,-4.04,-4.07,-2.35,-2.37,-2.39
199.19,2.34,4.76,2.33,4.74,-4.74,-4.06,-4.14,-2.40,-2.41,-2.42
201.18,2.33,4.79,2.31,4.76,-4.76,-4.08,-4.21,-2.43,-2.45,-2.46
203.19,2.31,4.80,2.30,4.78,-4.78,-4.09,-4.28,-2.47,-2.48,-2.49
205.23,2.28,4.79,2.28,4.79,-4.79,-4.11,-4.35,-2.51,-2.52,-2.51
207.28,2.25,4.79,2.25,4.80,-4.80,-4.12,-4.43,-2.55,-2.55,-2.54
209.35,2.22,4.80,2.23,4.81,-4.81,-4.14,-4.50,-2.59,-2.58,-2.58
211.44,2.19,4.80,2.20,4.81,-4.81,-4.15,-4.57,-2.62,-2.61,-2.61
213.56,2.16,4.79,2.18,4.81,-4.81,-4.17,-4.64,-2.65,-2.64,-2.63
215.69,2.13,4.79,2.15,4.82,-4.82,-4.18,-4.71,-2.68,-2.67,-2.66
217.85,2.11,4.80,2.12,4.81,-4.81,-4.19,-4.79,-2.70,-2.69,-2.69
220.03,2.09,4.81,2.10,4.81,-4.81,-4.20,-4.85,-2.72,-2.71,-2.72
222.23,2.07,4.82,2.08,4.82,-4.82,-4.22,-4.92,-2.74,-2.74,-2.75
224.45,2.05,4.81,2.05,4.82,-4.82,-4.23,-4.98,-2.76,-2.76,-2.76
226.70,2.03,4.82,2.03,4.82,-4.82,-4.24,-5.04,-2.78,-2.78,-2.79
228.96,2.01,4.81,2.01,4.82,-4.82,-4.25,-5.10,-2.80,-2.80,-2.80
231.25,1.99,4.81,1.99,4.81,-4.81,-4.26,-5.15,-2.82,-2.82,-2.82
233.57,1.97,4.81,1.97,4.81,-4.81,-4.27,-5.20,-2.83,-2.84,-2.84
235.90,1.95,4.80,1.94,4.80,-4.80,-4.28,-5.24,-2.84,-2.85,-2.85
238.26,1.93,4.81,1.92,4.79,-4.79,-4.28,-5.28,-2.85,-2.87,-2.88
240.64,1.91,4.78,1.90,4.77,-4.77,-4.29,-5.31,-2.86,-2.88,-2.87
243.05,1.88,4.77,1.87,4.76,-4.76,-4.30,-5.33,-2.88,-2.89,-2.89
245.48,1.85,4.75,1.85,4.74,-4.74,-4.31,-5.35,-2.89,-2.89,-2.90
247.93,1.82,4.73,1.83,4.73,-4.73,-4.31,-5.36,-2.91,-2.90,-2.91
250.41,1.79,4.69,1.81,4.71,-4.71,-4.32,-5.36,-2.92,-2.91,-2.90
252.92,1.76,4.67,1.78,4.70,-4.70,-4.32,-5.36,-2.93,-2.91,-2.91
255.45,1.74,4.66,1.76,4.68,-4.68,-4.33,-5.35,-2.94,-2.92,-2.92
258.00,1.73,4.65,1.74,4.67,-4.67,-4.33,-5.33,-2.93,-2.92,-2.92
260.58,1.72,4.64,1.73,4.65,-4.65,-4.33,-5.30,-2.93,-2.92,-2.92
263.19,1.70,4.62,1.71,4.63,-4.63,-4.34,-5.27,-2.93,-2.93,-2.92
265.82,1.69,4.62,1.69,4.62,-4.62,-4.34,-5.24,-2.92,-2.93,-2.93
268.48,1.67,4.60,1.67,4.60,-4.60,-4.34,-5.20,-2.93,-2.93,-2.93
271.16,1.66,4.59,1.65,4.58,-4.58,-4.35,-5.15,-2.92,-2.93,-2.93
273.87,1.64,4.57,1.63,4.56,-4.56,-4.35,-5.10,-2.92,-2.94,-2.93
276.61,1.62,4.55,1.60,4.54,-4.54,-4.35,-5.04,-2.92,-2.94,-2.93
279.38,1.59,4.54,1.58,4.52,-4.52,-4.35,-4.98,-2.92,-2.94,-2.95
282.17,1.56,4.51,1.55,4.49,-4.49,-4.35,-4.92,-2.93,-2.94,-2.95
284.99,1.53,4.47,1.53,4.46,-4.46,-4.35,-4.86,-2.93,-2.94,-2.94
287.84,1.50,4.43,1.50,4.44,-4.44,-4.35,-4.79,-2.93,-2.93,-2.93
290.72,1.47,4.41,1.48,4.41,-4.41,-4.34,-4.72,-2.94,-2.93,-2.94
293.63,1.44,4.37,1.46,4.39,-4.39,-4.34,-4.65,-2.94,-2.93,-2.93
296.57,1.41,4.33,1.44,4.36,-4.36,-4.34,-4.58,-2.95,-2.92,-2.92
299.53,1.39,4.31,1.42,4.34,-4.34,-4.34,-4.51,-2.95,-2.92,-2.92
302.53,1.38,4.28,1.41,4.32,-4.32,-4.33,-4.44,-2.94,-2.91,-2.90
305.55,1.37,4.28,1.39,4.30,-4.30,-4.33,-4.37,-2.93,-2.91,-2.91
308.61,1.37,4.27,1.38,4.28,-4.28,-4.33,-4.30,-2.91,-2.90,-2.90
311.69,1.37,4.26,1.37,4.26,-4.26,-4.32,-4.23,-2.89,-2.89,-2.89
314.81,1.37,4.26,1.36,4.24,-4.24,-4.32,-4.16,-2.87,-2.88,-2.89
317.96,1.36,4.24,1.34,4.22,-4.22,-4.31,-4.10,-2.86,-2.88,-2.88
321.14,1.35,4.22,1.33,4.20,-4.20,-4.30,-4.03,-2.85,-2.87,-2.87
324.35,1.33,4.20,1.31,4.17,-4.17,-4.30,-3.97,-2.84,-2.86,-2.87
327.59,1.31,4.15,1.29,4.15,-4.15,-4.29,-3.91,-2.83,-2.85,-2.84
330.87,1.28,4.13,1.27,4.12,-4.12,-4.28,-3.86,-2.83,-2.85,-2.85
334.18,1.25,4.09,1.24,4.08,-4.08,-4.28,-3.80,-2.83,-2.84,-2.84
337.52,1.22,4.06,1.22,4.05,-4.05,-4.27,-3.75,-2.83,-2.83,-2.84
340.90,1.19,4.01,1.19,4.01,-4.01,-4.26,-3.70,-2.82,-2.82,-2.82
344.30,1.15,3.96,1.16,3.98,-3.98,-4.25,-3.65,-2.82,-2.82,-2.81
347.75,1.12,3.93,1.14,3.94,-3.94,-4.24,-3.61,-2.82,-2.81,-2.81
351.23,1.10,3.91,1.11,3.91,-3.91,-4.23,-3.57,-2.81,-2.80,-2.81
354.74,1.07,3.85,1.10,3.89,-3.89,-4.22,-3.53,-2.81,-2.79,-2.78
358.28,1.05,3.84,1.08,3.86,-3.86,-4.21,-3.49,-2.81,-2.78,-2.79
361.87,1.04,3.82,1.07,3.85,-3.85,-4.20,-3.46,-2.80,-2.78,-2.78
365.49,1.03,3.80,1.06,3.83,-3.83,-4.19,-3.43,-2.80,-2.77,-2.77
369.14,1.03,3.78,1.05,3.81,-3.81,-4.18,-3.40,-2.78,-2.76,-2.75
372.83,1.04,3.79,1.05,3.80,-3.80,-4.16,-3.37,-2.75,-2.75,-2.75
376.56,1.05,3.80,1.04,3.78,-3.78,-4.15,-3.35,-2.73,-2.74,-2.75
380.33,1.06,3.80,1.03,3.77,-3.77,-4.14,-3.33,-2.70,-2.73,-2.74
384.13,1.05,3.77,1.03,3.75,-3.75,-4.12,-3.31,-2.70,-2.72,-2.72
387.97,1.04,3.76,1.01,3.73,-3.73,-4.11,-3.30,-2.69,-2.72,-2.72
391.85,1.02,3.73,1.00,3.71,-3.71,-4.09,-3.28,-2.68,-2.70,-2.71
395.77,0.99,3.69,0.98,3.68,-3.68,-4.08,-3.27,-2.69,-2.70,-2.70
399.73,0.97,3.66,0.96,3.65,-3.65,-4.07,-3.26,-2.67,-2.68,-2.69
403.72,0.94,3.60,0.94,3.61,-3.61,-4.05,-3.26,-2.67,-2.67,-2.66
407.76,0.91,3.58,0.91,3.58,-3.58,-4.03,-3.25,-2.66,-2.67,-2.67
411.84,0.88,3.54,0.88,3.54,-3.54,-4.02,-3.25,-2.65,-2.66,-2.66
415.96,0.84,3.48,0.85,3.50,-3.50,-4.00,-3.24,-2.65,-2.65,-2.64
420.12,0.81,3.45,0.82,3.46,-3.46,-3.98,-3.24,-2.65,-2.64,-2.64
424.32,0.79,3.42,0.80,3.42,-3.42,-3.97,-3.24,-2.63,-2.63,-2.63
428.56,0.76,3.37,0.77,3.39,-3.39,-3.95,-3.24,-2.63,-2.62,-2.61
432.85,0.74,3.34,0.76,3.37,-3.37,-3.93,-3.24,-2.62,-2.61,-2.60
437.18,0.72,3.33,0.74,3.34,-3.34,-3.91,-3.25,-2.62,-2.60,-2.61
441.55,0.71,3.31,0.73,3.33,-3.33,-3.89,-3.25,-2.61,-2.59,-2.60
445.96,0.70,3.29,0.73,3.31,-3.31,-3.88,-3.25,-2.61,-2.58,-2.59
450.42,0.70,3.28,0.72,3.30,-3.30,-3.86,-3.25,-2.60,-2.58,-2.58
454.93,0.70,3.27,0.72,3.29,-3.29,-3.84,-3.25,-2.59,-2.57,-2.57
459.48,0.72,3.28,0.72,3.28,-3.28,-3.82,-3.25,-2.56,-2.56,-2.56
464.07,0.73,3.27,0.72,3.27,-3.27,-3.80,-3.25,-2.54,-2.55,-2.54
468.71,0.74,3.27,0.72,3.26,-3.26,-3.78,-3.25,-2.52,-2.54,-2.53
473.40,0.74,3.27,0.72,3.25,-3.25,-3.75,-3.24,-2.51,-2.53,-2.53
478.13,0.74,3.26,0.72,3.24,-3.24,-3.73,-3.24,-2.49,-2.52,-2.52
482.91,0.73,3.24,0.71,3.22,-3.22,-3.71,-3.23,-2.49,-2.51,-2.51
487.74,0.71,3.21,0.70,3.20,-3.20,-3.69,-3.22,-2.48,-2.50,-2.50
492.62,0.69,3.18,0.68,3.17,-3.17,-3.67,-3.21,-2.48,-2.48,-2.49
497.55,0.67,3.15,0.67,3.14,-3.14,-3.65,-3.20,-2.47,-2.47,-2.48
502.52,0.64,3.11,0.64,3.10,-3.10,-3.62,-3.18,-2.46,-2.46,-2.47
507.55,0.62,3.07,0.62,3.07,-3.07,-3.60,-3.16,-2.44,-2.45,-2.45
512.62,0.59,3.03,0.59,3.02,-3.02,-3.58,-3.14,-2.43,-2.44,-2.44
517.75,0.55,2.97,0.56,2.98,-2.98,-3.55,-3.12,-2.43,-2.43,-2.42
