frequency,raw,error,smoothed,error_smoothed,equalization,parametric_eq,fixed_band_eq,equalized_raw,equalized_smoothed,target
20.00,2.35,-1.20,2.35,-1.20,1.17,1.91,-0.07,3.53,3.52,3.55
20.20,2.41,-1.19,2.41,-1.18,1.18,1.86,-0.07,3.59,3.59,3.60
20.40,2.47,-1.18,2.48,-1.17,1.18,1.80,-0.07,3.65,3.65,3.65
20.61,2.53,-1.15,2.53,-1.15,1.17,1.74,-0.08,3.70,3.70,3.68
20.81,2.59,-1.14,2.59,-1.14,1.16,1.67,-0.08,3.75,3.75,3.73
21.02,2.64,-1.13,2.64,-1.12,1.14,1.60,-0.08,3.78,3.78,3.77
21.23,2.69,-1.10,2.69,-1.10,1.11,1.52,-0.08,3.80,3.80,3.79
21.44,2.73,-1.08,2.73,-1.08,1.08,1.45,-0.08,3.81,3.81,3.81
21.66,2.78,-1.05,2.78,-1.05,1.04,1.37,-0.09,3.82,3.82,3.83
21.87,2.82,-1.01,2.83,-1.01,0.99,1.29,-0.09,3.82,3.82,3.84
22.09,2.88,-0.97,2.89,-0.96,0.93,1.21,-0.09,3.82,3.83,3.86
22.31,2.97,-0.89,2.97,-0.90,0.87,1.14,-0.09,3.85,3.84,3.87
22.54,3.05,-0.82,3.06,-0.81,0.81,1.06,-0.10,3.86,3.87,3.87
22.76,3.13,-0.73,3.14,-0.73,0.75,0.99,-0.10,3.89,3.89,3.87
22.99,3.22,-0.64,3.20,-0.66,0.70,0.92,-0.10,3.92,3.90,3.86
23.22,3.24,-0.62,3.25,-0.61,0.65,0.86,-0.10,3.89,3.89,3.86
23.45,3.27,-0.59,3.27,-0.59,0.60,0.79,-0.11,3.87,3.87,3.86
23.69,3.29,-0.58,3.29,-0.57,0.56,0.73,-0.11,3.85,3.85,3.87
23.92,3.31,-0.56,3.32,-0.55,0.52,0.67,-0.11,3.83,3.84,3.87
24.16,3.35,-0.52,3.35,-0.52,0.49,0.61,-0.11,3.84,3.84,3.87
24.40,3.40,-0.47,3.40,-0.47,0.46,0.56,-0.12,3.87,3.86,3.88
24.65,3.44,-0.43,3.45,-0.42,0.44,0.50,-0.12,3.88,3.89,3.87
24.89,3.49,-0.38,3.49,-0.38,0.41,0.46,-0.13,3.91,3.90,3.87
25.14,3.51,-0.36,3.51,-0.36,0.39,0.41,-0.13,3.90,3.90,3.87
25.39,3.52,-0.36,3.52,-0.35,0.36,0.36,-0.13,3.89,3.89,3.88
25.65,3.52,-0.36,3.52,-0.35,0.34,0.32,-0.14,3.86,3.86,3.88
25.91,3.53,-0.34,3.54,-0.33,0.32,0.28,-0.14,3.85,3.85,3.87
26.16,3.56,-0.30,3.57,-0.30,0.29,0.24,-0.15,3.85,3.85,3.87
26.43,3.61,-0.26,3.61,-0.26,0.25,0.20,-0.15,3.86,3.86,3.87
26.69,3.66,-0.21,3.66,-0.21,0.20,0.16,-0.16,3.87,3.86,3.87
26.96,3.71,-0.16,3.72,-0.15,0.15,0.13,-0.16,3.86,3.86,3.87
27.23,3.78,-0.09,3.78,-0.08,0.08,0.10,-0.17,3.86,3.86,3.87
27.50,3.86,-0.01,3.86,-0.01,-0.00,0.06,-0.17,3.86,3.86,3.87
27.77,3.93,0.08,3.93,0.07,-0.08,0.03,-0.18,3.85,3.85,3.86
28.05,4.00,0.14,4.01,0.15,-0.16,0.00,-0.19,3.85,3.85,3.86
28.33,4.08,0.23,4.09,0.23,-0.23,-0.03,-0.19,3.86,3.86,3.85
28.62,4.16,0.31,4.16,0.31,-0.29,-0.05,-0.20,3.88,3.88,3.85
28.90,4.23,0.37,4.22,0.37,-0.34,-0.08,-0.21,3.89,3.88,3.86
29.19,4.26,0.41,4.26,0.41,-0.38,-0.11,-0.22,3.88,3.88,3.85
29.48,4.27,0.41,4.28,0.42,-0.42,-0.13,-0.23,3.85,3.85,3.86
29.78,4.28,0.43,4.28,0.43,-0.45,-0.16,-0.24,3.83,3.84,3.85
30.08,4.29,0.43,4.30,0.45,-0.47,-0.18,-0.25,3.82,3.83,3.86
30.38,4.33,0.48,4.33,0.48,-0.48,-0.21,-0.26,3.85,3.85,3.85
30.68,4.36,0.51,4.36,0.51,-0.50,-0.23,-0.27,3.86,3.86,3.85
30.99,4.40,0.55,4.39,0.55,-0.53,-0.25,-0.28,3.87,3.86,3.85
31.30,4.41,0.57,4.41,0.56,-0.57,-0.27,-0.29,3.84,3.84,3.84
31.61,4.42,0.58,4.42,0.58,-0.62,-0.29,-0.30,3.80,3.80,3.84
31.93,4.43,0.59,4.45,0.61,-0.66,-0.32,-0.32,3.77,3.79,3.84
32.24,4.50,0.68,4.52,0.69,-0.70,-0.34,-0.33,3.80,3.82,3.83
32.57,4.60,0.77,4.60,0.78,-0.74,-0.36,-0.34,3.86,3.87,3.83
32.89,4.70,0.87,4.67,0.85,-0.78,-0.38,-0.36,3.93,3.90,3.83
33.22,4.70,0.88,4.69,0.87,-0.82,-0.40,-0.37,3.88,3.87,3.82
33.55,4.66,0.84,4.67,0.85,-0.87,-0.42,-0.39,3.80,3.80,3.82
33.89,4.62,0.81,4.65,0.84,-0.90,-0.44,-0.41,3.72,3.75,3.81
34.23,4.67,0.86,4.69,0.88,-0.93,-0.46,-0.42,3.74,3.75,3.81
34.57,4.76,0.96,4.76,0.96,-0.96,-0.48,-0.44,3.81,3.80,3.80
34.92,4.85,1.05,4.82,1.03,-0.98,-0.50,-0.46,3.87,3.84,3.80
35.27,4.85,1.06,4.84,1.05,-1.01,-0.52,-0.48,3.84,3.83,3.79
35.62,4.83,1.04,4.84,1.05,-1.04,-0.54,-0.50,3.79,3.79,3.79
35.97,4.80,1.01,4.83,1.04,-1.07,-0.56,-0.52,3.73,3.76,3.79
36.33,4.85,1.07,4.86,1.08,-1.09,-0.58,-0.54,3.76,3.77,3.79
36.70,4.91,1.13,4.90,1.12,-1.11,-0.60,-0.56,3.80,3.79,3.78
37.06,4.96,1.18,4.94,1.15,-1.14,-0.62,-0.58,3.83,3.80,3.78
37.43,4.94,1.15,4.94,1.16,-1.17,-0.64,-0.60,3.77,3.77,3.79
37.81,4.93,1.14,4.95,1.17,-1.21,-0.66,-0.63,3.73,3.74,3.79
38.19,4.97,1.19,5.00,1.21,-1.25,-0.68,-0.65,3.73,3.75,3.78
38.57,5.07,1.28,5.07,1.28,-1.28,-0.70,-0.67,3.79,3.79,3.79
38.95,5.17,1.37,5.14,1.35,-1.31,-0.72,-0.70,3.86,3.83,3.80
39.34,5.17,1.38,5.17,1.38,-1.34,-0.74,-0.72,3.84,3.84,3.79
39.74,5.16,1.37,5.17,1.38,-1.36,-0.76,-0.75,3.81,3.82,3.79
40.14,5.15,1.36,5.16,1.37,-1.37,-0.78,-0.77,3.78,3.78,3.79
40.54,5.15,1.36,5.15,1.37,-1.38,-0.80,-0.80,3.78,3.78,3.79
40.94,5.15,1.37,5.15,1.37,-1.37,-0.82,-0.83,3.78,3.78,3.78
41.35,5.15,1.37,5.15,1.38,-1.37,-0.84,-0.86,3.78,3.79,3.78
41.76,5.15,1.38,5.15,1.38,-1.38,-0.86,-0.89,3.78,3.78,3.77
42.18,5.15,1.38,5.14,1.38,-1.40,-0.89,-0.92,3.75,3.74,3.77
42.60,5.14,1.38,5.15,1.39,-1.44,-0.91,-0.95,3.71,3.71,3.76
43.03,5.15,1.40,5.18,1.43,-1.48,-0.93,-0.98,3.67,3.70,3.75
43.46,5.24,1.50,5.24,1.50,-1.52,-0.95,-1.01,3.72,3.72,3.74
43.90,5.33,1.61,5.32,1.60,-1.57,-0.98,-1.04,3.76,3.75,3.72
44.33,5.37,1.67,5.38,1.68,-1.61,-1.00,-1.08,3.76,3.77,3.70
44.78,5.40,1.72,5.39,1.71,-1.65,-1.02,-1.11,3.75,3.74,3.68
45.23,5.38,1.71,5.37,1.71,-1.69,-1.04,-1.15,3.69,3.68,3.67
45.68,5.34,1.68,5.35,1.69,-1.72,-1.07,-1.18,3.62,3.63,3.66
46.13,5.31,1.67,5.34,1.70,-1.75,-1.09,-1.22,3.57,3.60,3.64
46.60,5.37,1.73,5.36,1.73,-1.76,-1.12,-1.25,3.61,3.60,3.64
47.06,5.41,1.79,5.40,1.78,-1.78,-1.14,-1.29,3.63,3.62,3.62
47.53,5.43,1.82,5.43,1.82,-1.80,-1.17,-1.33,3.63,3.63,3.61
48.01,5.44,1.83,5.44,1.84,-1.82,-1.19,-1.37,3.62,3.62,3.61
48.49,5.44,1.85,5.44,1.86,-1.85,-1.22,-1.41,3.59,3.59,3.59
48.97,5.44,1.87,5.44,1.87,-1.88,-1.24,-1.45,3.57,3.57,3.57
49.46,5.44,1.89,5.44,1.89,-1.89,-1.27,-1.49,3.55,3.55,3.55
49.96,5.44,1.91,5.44,1.91,-1.91,-1.30,-1.53,3.54,3.54,3.53
50.46,5.44,1.92,5.44,1.93,-1.92,-1.32,-1.57,3.52,3.52,3.52
50.96,5.44,1.93,5.44,1.94,-1.93,-1.35,-1.62,3.51,3.51,3.51
51.47,5.44,1.95,5.44,1.95,-1.95,-1.38,-1.66,3.49,3.49,3.49
51.99,5.43,1.95,5.44,1.96,-1.98,-1.40,-1.70,3.46,3.46,3.48
52.51,5.45,1.98,5.45,1.98,-2.00,-1.43,-1.74,3.45,3.45,3.47
53.03,5.46,1.99,5.48,2.01,-2.02,-1.46,-1.79,3.44,3.45,3.47
53.56,5.51,2.06,5.51,2.06,-2.05,-1.49,-1.83,3.46,3.46,3.45
54.10,5.54,2.10,5.53,2.09,-2.08,-1.52,-1.87,3.47,3.46,3.44
54.64,5.54,2.12,5.55,2.12,-2.10,-1.55,-1.91,3.44,3.44,3.42
55.18,5.54,2.12,5.55,2.13,-2.13,-1.58,-1.95,3.41,3.42,3.42
55.74,5.54,2.14,5.54,2.14,-2.15,-1.61,-1.99,3.39,3.39,3.40
56.29,5.54,2.15,5.54,2.15,-2.17,-1.64,-2.03,3.38,3.38,3.39
56.86,5.54,2.16,5.54,2.17,-2.18,-1.67,-2.07,3.36,3.37,3.38
57.42,5.54,2.19,5.54,2.19,-2.19,-1.71,-2.11,3.36,3.36,3.35
58.00,5.54,2.20,5.54,2.20,-2.19,-1.74,-2.15,3.36,3.35,3.34
58.58,5.52,2.19,5.53,2.20,-2.18,-1.77,-2.18,3.34,3.34,3.33
59.16,5.50,2.19,5.50,2.19,-2.17,-1.80,-2.22,3.33,3.33,3.31
59.76,5.46,2.17,5.46,2.18,-2.17,-1.84,-2.25,3.30,3.30,3.29
60.35,5.41,2.16,5.41,2.16,-2.16,-1.87,-2.28,3.25,3.25,3.25
60.96,5.36,2.15,5.36,2.15,-2.16,-1.90,-2.31,3.20,3.20,3.21
61.57,5.31,2.14,5.31,2.14,-2.18,-1.94,-2.33,3.14,3.13,3.17
62.18,5.27,2.14,5.27,2.15,-2.19,-1.97,-2.36,3.08,3.08,3.13
62.80,5.25,2.17,5.27,2.19,-2.22,-2.01,-2.38,3.03,3.05,3.08
63.43,5.29,2.25,5.30,2.26,-2.25,-2.04,-2.40,3.04,3.05,3.04
64.07,5.34,2.35,5.32,2.33,-2.29,-2.08,-2.42,3.06,3.04,2.99
64.71,5.33,2.38,5.32,2.37,-2.33,-2.12,-2.44,3.01,2.99,2.95
65.35,5.29,2.38,5.29,2.39,-2.38,-2.15,-2.46,2.92,2.92,2.91
66.01,5.23,2.37,5.26,2.40,-2.43,-2.19,-2.47,2.81,2.83,2.86
66.67,5.24,2.43,5.24,2.43,-2.47,-2.23,-2.48,2.77,2.77,2.81
67.33,5.25,2.49,5.24,2.48,-2.51,-2.26,-2.50,2.75,2.73,2.76
68.01,5.25,2.53,5.25,2.54,-2.54,-2.30,-2.51,2.72,2.72,2.72
68.69,5.25,2.58,5.27,2.60,-2.56,-2.34,-2.52,2.69,2.71,2.67
69.37,5.26,2.64,5.26,2.64,-2.59,-2.38,-2.53,2.67,2.66,2.62
70.07,5.26,2.69,5.21,2.64,-2.62,-2.41,-2.54,2.64,2.59,2.57
70.77,5.12,2.60,5.15,2.63,-2.65,-2.45,-2.55,2.47,2.50,2.52
71.48,5.06,2.59,5.09,2.63,-2.67,-2.49,-2.56,2.39,2.42,2.47
72.19,5.05,2.65,5.06,2.65,-2.69,-2.53,-2.57,2.36,2.37,2.40
72.91,5.07,2.73,5.04,2.70,-2.70,-2.57,-2.57,2.37,2.34,2.34
73.64,5.00,2.71,5.00,2.72,-2.71,-2.61,-2.58,2.30,2.30,2.29
74.38,4.93,2.70,4.95,2.73,-2.71,-2.65,-2.60,2.23,2.25,2.23
75.12,4.88,2.71,4.89,2.72,-2.70,-2.69,-2.61,2.18,2.19,2.17
75.87,4.83,2.72,4.81,2.70,-2.68,-2.73,-2.62,2.15,2.13,2.11
76.63,4.72,2.66,4.72,2.66,-2.66,-2.77,-2.63,2.07,2.06,2.06
77.40,4.60,2.59,4.61,2.61,-2.62,-2.80,-2.65,1.99,2.00,2.01
78.17,4.49,2.54,4.50,2.54,-2.56,-2.84,-2.66,1.93,1.93,1.95
78.95,4.39,2.48,4.38,2.48,-2.50,-2.88,-2.68,1.90,1.89,1.91
79.74,4.26,2.40,4.27,2.42,-2.41,-2.92,-2.70,1.85,1.86,1.86
80.54,4.15,2.34,4.16,2.35,-2.32,-2.96,-2.72,1.84,1.85,1.81
81.35,4.03,2.27,4.02,2.27,-2.21,-3.00,-2.75,1.83,1.82,1.76
82.16,3.88,2.17,3.85,2.14,-2.09,-3.04,-2.77,1.79,1.76,1.71
82.98,3.65,1.98,3.66,1.99,-1.97,-3.08,-2.80,1.68,1.68,1.67
83.81,3.44,1.82,3.48,1.86,-1.87,-3.11,-2.83,1.57,1.60,1.62
84.65,3.33,1.76,3.33,1.76,-1.80,-3.15,-2.86,1.53,1.53,1.57
85.50,3.25,1.72,3.22,1.69,-1.76,-3.19,-2.89,1.49,1.45,1.53
86.35,3.14,1.66,3.15,1.67,-1.75,-3.23,-2.93,1.39,1.40,1.48
87.22,3.09,1.66,3.14,1.71,-1.78,-3.26,-2.97,1.32,1.37,1.43
88.09,3.20,1.82,3.21,1.84,-1.84,-3.30,-3.01,1.37,1.38,1.38
88.97,3.35,2.03,3.32,1.99,-1.93,-3.33,-3.05,1.42,1.39,1.32
89.86,3.43,2.16,3.40,2.13,-2.05,-3.37,-3.10,1.39,1.35,1.27
90.76,3.42,2.20,3.44,2.22,-2.18,-3.40,-3.14,1.24,1.25,1.22
91.66,3.45,2.29,3.48,2.31,-2.34,-3.43,-3.19,1.12,1.14,1.17
92.58,3.55,2.44,3.57,2.45,-2.50,-3.47,-3.25,1.05,1.06,1.11
93.51,3.71,2.65,3.70,2.64,-2.68,-3.50,-3.30,1.03,1.02,1.06
94.44,3.86,2.84,3.85,2.84,-2.86,-3.53,-3.36,1.01,0.99,1.02
95.39,3.99,3.02,4.00,3.03,-3.04,-3.56,-3.42,0.96,0.96,0.97
96.34,4.14,3.22,4.15,3.23,-3.22,-3.59,-3.48,0.92,0.93,0.92
97.30,4.30,3.44,4.31,3.44,-3.40,-3.62,-3.54,0.91,0.91,0.87
98.28,4.45,3.63,4.45,3.63,-3.57,-3.65,-3.60,0.88,0.88,0.82
99.26,4.57,3.79,4.54,3.77,-3.73,-3.67,-3.67,0.85,0.82,0.78
100.25,4.59,3.86,4.60,3.87,-3.87,-3.70,-3.74,0.72,0.73,0.73
101.25,4.62,3.94,4.64,3.96,-4.00,-3.72,-3.80,0.62,0.64,0.68
102.27,4.68,4.05,4.71,4.08,-4.13,-3.75,-3.87,0.56,0.58,0.63
103.29,4.80,4.22,4.79,4.21,-4.24,-3.77,-3.94,0.57,0.56,0.58
104.32,4.90,4.36,4.87,4.34,-4.34,-3.79,-4.01,0.56,0.53,0.54
105.37,4.92,4.43,4.94,4.45,-4.43,-3.81,-4.08,0.49,0.51,0.49
106.42,4.96,4.52,4.98,4.54,-4.51,-3.83,-4.15,0.45,0.46,0.44
107.48,5.01,4.63,4.98,4.60,-4.58,-3.85,-4.22,0.43,0.40,0.38
108.56,4.97,4.64,4.98,4.65,-4.63,-3.87,-4.29,0.34,0.35,0.33
109.64,4.93,4.65,4.95,4.68,-4.66,-3.89,-4.36,0.27,0.29,0.28
110.74,4.91,4.69,4.91,4.69,-4.67,-3.90,-4.42,0.24,0.24,0.22
111.85,4.87,4.69,4.85,4.67,-4.68,-3.91,-4.48,0.19,0.16,0.18
112.97,4.78,4.66,4.78,4.66,-4.69,-3.93,-4.54,0.10,0.09,0.12
114.10,4.66,4.59,4.71,4.64,-4.69,-3.94,-4.60,-0.03,0.02,0.07
115.24,4.68,4.66,4.67,4.66,-4.69,-3.95,-4.65,-0.01,-0.02,0.02
116.39,4.66,4.69,4.64,4.67,-4.69,-3.96,-4.70,-0.03,-0.05,-0.03
117.55,4.62,4.69,4.62,4.69,-4.68,-3.97,-4.74,-0.06,-0.06,-0.07
118.73,4.52,4.63,4.57,4.68,-4.65,-3.98,-4.78,-0.13,-0.08,-0.11
119.92,4.54,4.68,4.50,4.65,-4.60,-3.99,-4.81,-0.06,-0.10,-0.14
121.12,4.41,4.59,4.42,4.59,-4.53,-4.00,-4.84,-0.12,-0.12,-0.18
122.33,4.28,4.49,4.28,4.49,-4.44,-4.00,-4.86,-0.16,-0.16,-0.21
123.55,4.11,4.35,4.10,4.34,-4.33,-4.01,-4.87,-0.21,-0.23,-0.24
124.79,3.89,4.17,3.93,4.20,-4.21,-4.01,-4.88,-0.31,-0.28,-0.27
126.03,3.76,4.06,3.75,4.04,-4.08,-4.02,-4.88,-0.32,-0.33,-0.30
127.29,3.60,3.92,3.59,3.92,-3.96,-4.02,-4.88,-0.36,-0.37,-0.32
128.57,3.45,3.81,3.48,3.84,-3.87,-4.03,-4.87,-0.42,-0.38,-0.36
129.85,3.39,3.78,3.40,3.79,-3.80,-4.03,-4.85,-0.41,-0.41,-0.39
131.15,3.36,3.78,3.33,3.75,-3.77,-4.04,-4.83,-0.41,-0.45,-0.42
132.46,3.28,3.73,3.29,3.74,-3.77,-4.04,-4.80,-0.49,-0.48,-0.45
133.79,3.23,3.71,3.27,3.75,-3.78,-4.04,-4.77,-0.55,-0.51,-0.48
135.12,3.30,3.81,3.30,3.81,-3.81,-4.05,-4.73,-0.51,-0.51,-0.51
136.48,3.35,3.88,3.35,3.89,-3.84,-4.05,-4.69,-0.49,-0.49,-0.53
137.84,3.42,3.99,3.38,3.95,-3.87,-4.06,-4.65,-0.45,-0.49,-0.57
139.22,3.36,3.96,3.37,3.97,-3.91,-4.07,-4.60,-0.55,-0.54,-0.60
140.61,3.31,3.94,3.33,3.96,-3.96,-4.07,-4.55,-0.65,-0.63,-0.63
142.02,3.32,3.97,3.31,3.97,-4.02,-4.08,-4.49,-0.70,-0.71,-0.65
143.44,3.32,4.00,3.35,4.03,-4.09,-4.09,-4.44,-0.77,-0.75,-0.68
144.87,3.40,4.12,3.40,4.11,-4.18,-4.10,-4.38,-0.77,-0.78,-0.72
146.32,3.49,4.25,3.47,4.22,-4.27,-4.12,-4.32,-0.78,-0.80,-0.76
147.78,3.52,4.31,3.57,4.36,-4.37,-4.13,-4.26,-0.85,-0.80,-0.79
149.26,3.66,4.50,3.65,4.50,-4.48,-4.15,-4.20,-0.81,-0.82,-0.84
150.75,3.74,4.64,3.72,4.62,-4.57,-4.17,-4.14,-0.83,-0.85,-0.90
152.26,3.73,4.70,3.73,4.70,-4.64,-4.19,-4.08,-0.91,-0.91,-0.97
153.78,3.68,4.72,3.68,4.72,-4.67,-4.21,-4.02,-0.99,-1.00,-1.04
155.32,3.56,4.67,3.58,4.70,-4.66,-4.23,-3.97,-1.10,-1.08,-1.11
156.88,3.47,4.66,3.47,4.66,-4.61,-4.26,-3.91,-1.13,-1.14,-1.19
158.44,3.33,4.60,3.32,4.60,-4.53,-4.29,-3.86,-1.20,-1.21,-1.27
160.03,3.16,4.51,3.15,4.50,-4.46,-4.32,-3.80,-1.29,-1.31,-1.35
161.63,2.95,4.37,2.94,4.36,-4.40,-4.36,-3.75,-1.45,-1.46,-1.42
163.24,2.75,4.23,2.77,4.25,-4.38,-4.40,-3.70,-1.62,-1.61,-1.48
164.88,2.65,4.18,2.69,4.23,-4.39,-4.44,-3.65,-1.74,-1.70,-1.53
166.53,2.73,4.31,2.73,4.31,-4.44,-4.48,-3.61,-1.70,-1.70,-1.58
168.19,2.86,4.48,2.85,4.47,-4.51,-4.53,-3.57,-1.65,-1.66,-1.62
169.87,3.01,4.67,3.00,4.66,-4.60,-4.58,-3.53,-1.59,-1.60,-1.66
171.57,3.11,4.79,3.13,4.81,-4.70,-4.63,-3.49,-1.59,-1.58,-1.68
173.29,3.22,4.91,3.20,4.90,-4.80,-4.68,-3.45,-1.58,-1.59,-1.69
175.02,3.25,4.95,3.23,4.94,-4.87,-4.73,-3.42,-1.62,-1.64,-1.70
176.77,3.20,4.91,3.23,4.94,-4.90,-4.78,-3.39,-1.70,-1.67,-1.71
178.54,3.19,4.91,3.19,4.90,-4.90,-4.83,-3.37,-1.71,-1.71,-1.72
180.32,3.16,4.87,3.16,4.87,-4.88,-4.87,-3.34,-1.72,-1.72,-1.71
182.13,3.11,4.81,3.12,4.83,-4.85,-4.92,-3.32,-1.74,-1.73,-1.70
183.95,3.10,4.81,3.07,4.77,-4.83,-4.96,-3.30,-1.72,-1.76,-1.71
185.79,3.00,4.71,3.04,4.75,-4.80,-4.99,-3.28,-1.80,-1.76,-1.71
187.65,3.01,4.74,3.04,4.77,-4.79,-5.01,-3.27,-1.78,-1.75,-1.73
189.52,3.08,4.82,3.04,4.79,-4.79,-5.03,-3.26,-1.71,-1.75,-1.74
191.42,3.07,4.83,3.06,4.82,-4.80,-5.03,-3.25,-1.73,-1.74,-1.76
193.33,3.02,4.80,3.05,4.83,-4.81,-5.03,-3.24,-1.78,-1.76,-1.78
195.27,3.01,4.81,3.01,4.81,-4.81,-5.01,-3.24,-1.80,-1.80,-1.80
197.22,2.99,4.81,2.99,4.81,-4.81,-4.98,-3.23,-1.82,-1.82,-1.82
199.19,2.96,4.80,2.97,4.81,-4.80,-4.94,-3.23,-1.83,-1.83,-1.84
201.18,2.93,4.79,2.92,4.79,-4.77,-4.89,-3.23,-1.84,-1.85,-1.86
203.19,2.86,4.74,2.86,4.74,-4.74,-4.82,-3.23,-1.87,-1.87,-1.88
205.23,2.78,4.68,2.78,4.68,-4.69,-4.75,-3.24,-1.91,-1.90,-1.90
207.28,2.70,4.61,2.71,4.62,-4.63,-4.66,-3.24,-1.93,-1.92,-1.91
209.35,2.62,4.55,2.63,4.57,-4.57,-4.57,-3.25,-1.95,-1.93,-1.93
211.44,2.57,4.53,2.56,4.51,-4.49,-4.46,-3.25,-1.92,-1.94,-1.96
213.56,2.46,4.43,2.45,4.43,-4.42,-4.36,-3.26,-1.95,-1.96,-1.97
215.69,2.35,4.33,2.34,4.32,-4.33,-4.24,-3.26,-1.98,-1.99,-1.98
217.85,2.20,4.19,2.25,4.24,-4.25,-4.13,-3.27,-2.05,-2.00,-1.99
220.03,2.16,4.16,2.15,4.16,-4.17,-4.01,-3.27,-2.01,-2.02,-2.00
222.23,2.11,4.14,2.05,4.07,-4.09,-3.89,-3.28,-1.98,-2.04,-2.03
224.45,1.93,3.95,1.98,4.00,-4.00,-3.77,-3.28,-2.07,-2.03,-2.02
226.70,1.86,3.88,1.90,3.92,-3.92,-3.65,-3.29,-2.06,-2.02,-2.02
228.96,1.87,3.88,1.84,3.85,-3.84,-3.54,-3.29,-1.97,-2.00,-2.01
231.25,1.80,3.80,1.79,3.80,-3.76,-3.42,-3.29,-1.96,-1.97,-2.00
233.57,1.71,3.70,1.70,3.70,-3.69,-3.31,-3.28,-1.98,-1.99,-1.99
235.90,1.61,3.59,1.61,3.59,-3.63,-3.20,-3.28,-2.01,-2.02,-1.98
238.26,1.50,3.47,1.56,3.53,-3.56,-3.09,-3.27,-2.06,-2.00,-1.97
240.64,1.54,3.48,1.53,3.48,-3.49,-2.99,-3.26,-1.95,-1.96,-1.94
243.05,1.57,3.48,1.50,3.42,-3.41,-2.89,-3.25,-1.84,-1.91,-1.91
245.48,1.44,3.33,1.49,3.38,-3.33,-2.79,-3.23,-1.89,-1.85,-1.89
247.93,1.39,3.25,1.44,3.30,-3.26,-2.69,-3.21,-1.86,-1.82,-1.86
250.41,1.42,3.26,1.35,3.19,-3.18,-2.60,-3.19,-1.76,-1.83,-1.84
252.92,1.28,3.09,1.26,3.08,-3.10,-2.51,-3.16,-1.81,-1.83,-1.81
255.45,1.11,2.90,1.17,2.97,-3.00,-2.43,-3.13,-1.89,-1.83,-1.79
258.00,1.07,2.84,1.10,2.87,-2.91,-2.34,-3.09,-1.83,-1.81,-1.77
260.58,1.10,2.85,1.06,2.81,-2.81,-2.26,-3.06,-1.71,-1.75,-1.75
263.19,1.03,2.75,1.01,2.73,-2.71,-2.18,-3.02,-1.67,-1.70,-1.72
265.82,0.91,2.61,0.91,2.61,-2.60,-2.11,-2.97,-1.68,-1.68,-1.70
268.48,0.77,2.45,0.82,2.49,-2.48,-2.03,-2.93,-1.71,-1.67,-1.68
271.16,0.72,2.37,0.73,2.38,-2.37,-1.96,-2.88,-1.65,-1.64,-1.65
273.87,0.69,2.32,0.64,2.27,-2.25,-1.89,-2.83,-1.56,-1.61,-1.63
276.61,0.52,2.12,0.54,2.14,-2.14,-1.82,-2.77,-1.61,-1.60,-1.60
279.38,0.41,1.98,0.41,1.98,-2.02,-1.75,-2.72,-1.61,-1.61,-1.57
282.17,0.27,1.82,0.30,1.84,-1.91,-1.68,-2.66,-1.64,-1.61,-1.55
284.99,0.23,1.74,0.25,1.77,-1.80,-1.62,-2.60,-1.56,-1.55,-1.51
287.84,0.21,1.70,0.21,1.70,-1.68,-1.55,-2.54,-1.47,-1.47,-1.49
290.72,0.20,1.66,0.16,1.62,-1.56,-1.48,-2.48,-1.36,-1.40,-1.46
293.63,0.05,1.48,0.06,1.49,-1.44,-1.41,-2.42,-1.38,-1.37,-1.43
296.57,-0.09,1.31,-0.06,1.34,-1.31,-1.34,-2.35,-1.40,-1.37,-1.40
299.53,-0.19,1.18,-0.21,1.17,-1.18,-1.27,-2.29,-1.37,-1.39,-1.37
302.53,-0.32,1.03,-0.32,1.03,-1.05,-1.20,-2.23,-1.37,-1.37,-1.35
305.55,-0.45,0.86,-0.42,0.89,-0.92,-1.12,-2.16,-1.37,-1.35,-1.31
308.61,-0.50,0.79,-0.52,0.77,-0.80,-1.04,-2.10,-1.30,-1.32,-1.29
311.69,-0.62,0.64,-0.60,0.66,-0.69,-0.95,-2.04,-1.31,-1.29,-1.26
314.81,-0.67,0.57,-0.68,0.57,-0.59,-0.86,-1.97,-1.25,-1.26,-1.24
317.96,-0.75,0.47,-0.74,0.48,-0.48,-0.76,-1.91,-1.23,-1.22,-1.22
321.14,-0.81,0.40,-0.79,0.42,-0.38,-0.65,-1.85,-1.18,-1.17,-1.21
324.35,-0.85,0.34,-0.87,0.33,-0.26,-0.54,-1.79,-1.11,-1.13,-1.19
327.59,-0.96,0.22,-0.98,0.20,-0.15,-0.41,-1.73,-1.10,-1.13,-1.18
330.87,-1.14,0.03,-1.13,0.04,-0.03,-0.27,-1.66,-1.17,-1.15,-1.17
334.18,-1.29,-0.14,-1.27,-0.11,0.09,-0.12,-1.61,-1.20,-1.17,-1.15
337.52,-1.40,-0.26,-1.39,-0.25,0.21,0.03,-1.55,-1.19,-1.18,-1.14
340.90,-1.46,-0.33,-1.50,-0.37,0.32,0.19,-1.49,-1.13,-1.17,-1.13
344.30,-1.59,-0.47,-1.55,-0.42,0.43,0.33,-1.43,-1.16,-1.12,-1.12
347.75,-1.62,-0.50,-1.59,-0.47,0.50,0.47,-1.38,-1.12,-1.09,-1.12
351.23,-1.56,-0.45,-1.65,-0.53,0.54,0.57,-1.32,-1.02,-1.11,-1.11
354.74,-1.70,-0.58,-1.69,-0.57,0.55,0.63,-1.27,-1.14,-1.14,-1.12
358.28,-1.77,-0.66,-1.70,-0.59,0.54,0.64,-1.21,-1.23,-1.16,-1.11
361.87,-1.68,-0.57,-1.67,-0.56,0.50,0.61,-1.16,-1.17,-1.16,-1.11
365.49,-1.52,-0.42,-1.57,-0.46,0.45,0.54,-1.11,-1.07,-1.12,-1.10
369.14,-1.46,-0.35,-1.46,-0.35,0.38,0.45,-1.06,-1.08,-1.08,-1.11
372.83,-1.39,-0.28,-1.38,-0.27,0.29,0.34,-1.01,-1.10,-1.09,-1.11
376.56,-1.31,-0.19,-1.30,-0.19,0.19,0.23,-0.96,-1.12,-1.11,-1.12
380.33,-1.21,-0.10,-1.20,-0.08,0.08,0.13,-0.92,-1.12,-1.11,-1.11
384.13,-1.09,0.02,-1.10,0.01,-0.02,0.03,-0.87,-1.11,-1.12,-1.11
387.97,-1.00,0.12,-1.01,0.11,-0.11,-0.05,-0.82,-1.11,-1.12,-1.12
391.85,-0.96,0.17,-0.92,0.21,-0.19,-0.13,-0.78,-1.14,-1.10,-1.13
395.77,-0.83,0.29,-0.85,0.28,-0.26,-0.19,-0.73,-1.08,-1.10,-1.12
399.73,-0.78,0.35,-0.80,0.33,-0.32,-0.24,-0.69,-1.10,-1.12,-1.13
403.72,-0.78,0.35,-0.76,0.37,-0.37,-0.29,-0.65,-1.15,-1.14,-1.13
407.76,-0.77,0.38,-0.74,0.41,-0.42,-0.32,-0.61,-1.18,-1.16,-1.15
411.84,-0.70,0.45,-0.72,0.43,-0.45,-0.36,-0.57,-1.14,-1.17,-1.15
415.96,-0.68,0.47,-0.69,0.47,-0.46,-0.38,-0.53,-1.14,-1.15,-1.15
420.12,-0.69,0.46,-0.66,0.50,-0.47,-0.40,-0.49,-1.16,-1.13,-1.15
424.32,-0.63,0.52,-0.65,0.50,-0.48,-0.42,-0.45,-1.10,-1.13,-1.15
428.56,-0.64,0.50,-0.65,0.50,-0.48,-0.43,-0.42,-1.12,-1.13,-1.14
432.85,-0.66,0.47,-0.64,0.49,-0.49,-0.44,-0.38,-1.15,-1.13,-1.13
437.18,-0.64,0.48,-0.64,0.48,-0.51,-0.45,-0.35,-1.15,-1.15,-1.12
441.55,-0.60,0.48,-0.61,0.48,-0.53,-0.46,-0.32,-1.13,-1.14,-1.08
445.96,-0.56,0.49,-0.54,0.51,-0.56,-0.46,-0.29,-1.11,-1.10,-1.05
450.42,-0.47,0.55,-0.44,0.58,-0.59,-0.47,-0.26,-1.05,-1.02,-1.02
454.93,-0.30,0.67,-0.34,0.64,-0.61,-0.47,-0.23,-0.91,-0.95,-0.97
459.48,-0.23,0.70,-0.25,0.68,-0.63,-0.47,-0.20,-0.86,-0.88,-0.93
464.07,-0.22,0.66,-0.19,0.69,-0.65,-0.47,-0.17,-0.86,-0.84,-0.88
468.71,-0.17,0.65,-0.15,0.68,-0.66,-0.47,-0.15,-0.82,-0.80,-0.82
473.40,-0.11,0.67,-0.11,0.67,-0.66,-0.47,-0.13,-0.76,-0.76,-0.78
478.13,-0.05,0.67,-0.10,0.63,-0.65,-0.47,-0.11,-0.69,-0.75,-0.72
482.91,-0.11,0.57,-0.10,0.58,-0.63,-0.47,-0.09,-0.73,-0.72,-0.68
487.74,-0.14,0.50,-0.06,0.57,-0.60,-0.46,-0.07,-0.74,-0.67,-0.64
492.62,-0.01,0.58,-0.02,0.58,-0.58,-0.46,-0.05,-0.59,-0.60,-0.59
497.55,0.09,0.66,0.02,0.58,-0.56,-0.46,-0.04,-0.47,-0.54,-0.57
