frequency,raw,error,smoothed,error_smoothed,equalization,parametric_eq,fixed_band_eq,equalized_raw,equalized_smoothed,target
20.00,2.35,-1.20,2.33,-1.24,1.24,1.27,-0.07,3.60,3.58,3.55
20.20,2.41,-1.19,2.40,-1.22,1.22,1.28,-0.07,3.63,3.61,3.60
20.40,2.47,-1.18,2.46,-1.19,1.19,1.28,-0.08,3.66,3.65,3.65
20.61,2.53,-1.15,2.53,-1.16,1.16,1.28,-0.08,3.69,3.68,3.68
20.81,2.59,-1.14,2.59,-1.13,1.13,1.27,-0.08,3.72,3.71,3.73
21.02,2.64,-1.13,2.65,-1.09,1.09,1.26,-0.08,3.74,3.74,3.77
21.23,2.69,-1.10,2.71,-1.06,1.06,1.24,-0.08,3.75,3.77,3.79
21.44,2.73,-1.08,2.77,-1.03,1.03,1.21,-0.09,3.76,3.79,3.81
21.66,2.78,-1.05,2.82,-0.99,0.99,1.18,-0.09,3.77,3.81,3.83
21.87,2.82,-1.01,2.88,-0.95,0.95,1.15,-0.09,3.78,3.83,3.84
22.09,2.88,-0.97,2.93,-0.91,0.91,1.11,-0.09,3.80,3.85,3.86
22.31,2.97,-0.89,2.99,-0.87,0.87,1.07,-0.10,3.85,3.86,3.87
22.54,3.05,-0.82,3.04,-0.82,0.82,1.02,-0.10,3.87,3.87,3.87
22.76,3.13,-0.73,3.10,-0.77,0.77,0.98,-0.10,3.90,3.87,3.87
22.99,3.22,-0.64,3.15,-0.72,0.72,0.93,-0.10,3.94,3.87,3.86
23.22,3.24,-0.62,3.21,-0.67,0.67,0.88,-0.11,3.91,3.87,3.86
23.45,3.27,-0.59,3.26,-0.62,0.62,0.83,-0.11,3.89,3.87,3.86
23.69,3.29,-0.58,3.30,-0.57,0.57,0.78,-0.11,3.86,3.87,3.87
23.92,3.31,-0.56,3.34,-0.53,0.53,0.74,-0.11,3.84,3.87,3.87
24.16,3.35,-0.52,3.38,-0.50,0.50,0.69,-0.12,3.85,3.87,3.87
24.40,3.40,-0.47,3.41,-0.47,0.47,0.64,-0.12,3.87,3.87,3.88
24.65,3.44,-0.43,3.43,-0.44,0.44,0.59,-0.12,3.88,3.87,3.87
24.89,3.49,-0.38,3.45,-0.42,0.42,0.55,-0.13,3.91,3.87,3.87
25.14,3.51,-0.36,3.48,-0.40,0.40,0.50,-0.13,3.91,3.87,3.87
25.39,3.52,-0.36,3.50,-0.37,0.37,0.46,-0.14,3.90,3.87,3.88
25.65,3.52,-0.36,3.53,-0.34,0.34,0.42,-0.14,3.87,3.87,3.88
25.91,3.53,-0.34,3.56,-0.31,0.31,0.38,-0.14,3.84,3.87,3.87
26.16,3.56,-0.30,3.61,-0.27,0.27,0.34,-0.15,3.83,3.87,3.87
26.43,3.61,-0.26,3.65,-0.22,0.22,0.30,-0.15,3.83,3.87,3.87
26.69,3.66,-0.21,3.70,-0.16,0.16,0.26,-0.16,3.83,3.87,3.87
26.96,3.71,-0.16,3.76,-0.11,0.11,0.23,-0.16,3.82,3.87,3.87
27.23,3.78,-0.09,3.81,-0.05,0.05,0.19,-0.17,3.83,3.86,3.87
27.50,3.86,-0.01,3.87,0.01,-0.01,0.16,-0.18,3.85,3.86,3.87
27.77,3.93,0.08,3.93,0.07,-0.07,0.13,-0.18,3.86,3.86,3.86
28.05,4.00,0.14,3.99,0.13,-0.13,0.09,-0.19,3.87,3.86,3.86
28.33,4.08,0.23,4.05,0.20,-0.20,0.06,-0.20,3.89,3.86,3.85
28.62,4.16,0.31,4.11,0.26,-0.26,0.03,-0.20,3.91,3.86,3.85
28.90,4.23,0.37,4.16,0.31,-0.31,0.01,-0.21,3.92,3.86,3.86
29.19,4.26,0.41,4.21,0.35,-0.35,-0.02,-0.22,3.91,3.85,3.85
29.48,4.27,0.41,4.24,0.39,-0.39,-0.05,-0.23,3.88,3.85,3.86
29.78,4.28,0.43,4.28,0.43,-0.43,-0.08,-0.24,3.85,3.85,3.85
30.08,4.29,0.43,4.32,0.47,-0.47,-0.10,-0.25,3.82,3.85,3.86
30.38,4.33,0.48,4.36,0.51,-0.51,-0.13,-0.26,3.82,3.85,3.85
30.68,4.36,0.51,4.39,0.54,-0.54,-0.15,-0.27,3.82,3.85,3.85
30.99,4.40,0.55,4.41,0.57,-0.57,-0.18,-0.28,3.83,3.85,3.85
31.30,4.41,0.57,4.44,0.59,-0.59,-0.20,-0.29,3.82,3.84,3.84
31.61,4.42,0.58,4.46,0.62,-0.62,-0.23,-0.31,3.80,3.84,3.84
31.93,4.43,0.59,4.49,0.66,-0.66,-0.25,-0.32,3.78,3.84,3.84
32.24,4.50,0.68,4.53,0.70,-0.70,-0.27,-0.33,3.81,3.83,3.83
32.57,4.60,0.77,4.57,0.74,-0.74,-0.29,-0.35,3.86,3.83,3.83
32.89,4.70,0.87,4.60,0.78,-0.78,-0.32,-0.36,3.93,3.82,3.83
33.22,4.70,0.88,4.63,0.81,-0.81,-0.34,-0.38,3.89,3.82,3.82
33.55,4.66,0.84,4.67,0.85,-0.85,-0.36,-0.39,3.81,3.81,3.82
33.89,4.62,0.81,4.70,0.89,-0.89,-0.38,-0.41,3.73,3.81,3.81
34.23,4.67,0.86,4.73,0.93,-0.93,-0.40,-0.43,3.75,3.81,3.81
34.57,4.76,0.96,4.76,0.96,-0.96,-0.42,-0.44,3.81,3.80,3.80
34.92,4.85,1.05,4.78,0.98,-0.98,-0.45,-0.46,3.87,3.80,3.80
35.27,4.85,1.06,4.80,1.01,-1.01,-0.47,-0.48,3.84,3.79,3.79
35.62,4.83,1.04,4.83,1.04,-1.04,-0.49,-0.50,3.79,3.79,3.79
35.97,4.80,1.01,4.85,1.06,-1.06,-0.51,-0.52,3.74,3.79,3.79
36.33,4.85,1.07,4.88,1.09,-1.09,-0.53,-0.54,3.76,3.79,3.79
36.70,4.91,1.13,4.91,1.12,-1.12,-0.55,-0.56,3.79,3.79,3.78
37.06,4.96,1.18,4.95,1.16,-1.16,-0.57,-0.58,3.80,3.79,3.78
37.43,4.94,1.15,4.98,1.19,-1.19,-0.59,-0.61,3.75,3.79,3.79
37.81,4.93,1.14,5.01,1.23,-1.23,-0.61,-0.63,3.71,3.79,3.79
38.19,4.97,1.19,5.04,1.25,-1.25,-0.63,-0.65,3.72,3.79,3.78
38.57,5.07,1.28,5.06,1.27,-1.27,-0.65,-0.68,3.80,3.79,3.79
38.95,5.17,1.37,5.07,1.29,-1.29,-0.68,-0.70,3.89,3.79,3.80
39.34,5.17,1.38,5.09,1.30,-1.30,-0.70,-0.73,3.87,3.79,3.79
39.74,5.16,1.37,5.11,1.32,-1.32,-0.72,-0.75,3.84,3.79,3.79
40.14,5.15,1.36,5.12,1.34,-1.34,-0.74,-0.78,3.82,3.79,3.79
40.54,5.15,1.36,5.14,1.35,-1.35,-0.76,-0.80,3.80,3.79,3.79
40.94,5.15,1.37,5.16,1.38,-1.38,-0.78,-0.83,3.78,3.78,3.78
41.35,5.15,1.37,5.18,1.40,-1.40,-0.81,-0.86,3.75,3.78,3.78
41.76,5.15,1.38,5.20,1.43,-1.43,-0.83,-0.89,3.72,3.77,3.77
42.18,5.15,1.38,5.21,1.45,-1.45,-0.85,-0.92,3.70,3.76,3.77
42.60,5.14,1.38,5.22,1.47,-1.47,-0.87,-0.95,3.67,3.75,3.76
43.03,5.15,1.40,5.23,1.49,-1.49,-0.90,-0.98,3.66,3.74,3.75
43.46,5.24,1.50,5.25,1.52,-1.52,-0.92,-1.01,3.72,3.73,3.74
43.90,5.33,1.61,5.27,1.55,-1.55,-0.94,-1.05,3.78,3.72,3.72
44.33,5.37,1.67,5.29,1.59,-1.59,-0.97,-1.08,3.78,3.70,3.70
44.78,5.40,1.72,5.32,1.63,-1.63,-0.99,-1.11,3.78,3.69,3.68
45.23,5.38,1.71,5.34,1.66,-1.66,-1.01,-1.15,3.72,3.68,3.67
45.68,5.34,1.68,5.36,1.70,-1.70,-1.04,-1.18,3.64,3.66,3.66
46.13,5.31,1.67,5.38,1.73,-1.73,-1.06,-1.22,3.58,3.65,3.64
46.60,5.37,1.73,5.40,1.77,-1.77,-1.09,-1.26,3.61,3.64,3.64
47.06,5.41,1.79,5.42,1.80,-1.80,-1.11,-1.30,3.62,3.62,3.62
47.53,5.43,1.82,5.43,1.82,-1.82,-1.14,-1.33,3.61,3.61,3.61
48.01,5.44,1.83,5.43,1.84,-1.84,-1.16,-1.37,3.61,3.59,3.61
48.49,5.44,1.85,5.42,1.85,-1.85,-1.19,-1.41,3.60,3.58,3.59
48.97,5.44,1.87,5.42,1.86,-1.86,-1.22,-1.45,3.58,3.56,3.57
49.46,5.44,1.89,5.43,1.88,-1.88,-1.24,-1.49,3.57,3.55,3.55
49.96,5.44,1.91,5.44,1.90,-1.90,-1.27,-1.54,3.54,3.54,3.53
50.46,5.44,1.92,5.45,1.92,-1.92,-1.30,-1.58,3.52,3.52,3.52
50.96,5.44,1.93,5.46,1.95,-1.95,-1.32,-1.62,3.49,3.51,3.51
51.47,5.44,1.95,5.47,1.97,-1.97,-1.35,-1.66,3.47,3.50,3.49
51.99,5.43,1.95,5.47,1.99,-1.99,-1.38,-1.70,3.45,3.48,3.48
52.51,5.45,1.98,5.48,2.01,-2.01,-1.41,-1.75,3.44,3.47,3.47
53.03,5.46,1.99,5.49,2.03,-2.03,-1.44,-1.79,3.43,3.46,3.47
53.56,5.51,2.06,5.50,2.06,-2.06,-1.47,-1.83,3.46,3.45,3.45
54.10,5.54,2.10,5.52,2.08,-2.08,-1.50,-1.87,3.46,3.44,3.44
54.64,5.54,2.12,5.53,2.10,-2.10,-1.53,-1.92,3.44,3.43,3.42
55.18,5.54,2.12,5.54,2.12,-2.12,-1.56,-1.96,3.42,3.42,3.42
55.74,5.54,2.14,5.54,2.14,-2.14,-1.59,-2.00,3.40,3.40,3.40
56.29,5.54,2.15,5.55,2.15,-2.15,-1.62,-2.04,3.39,3.39,3.39
56.86,5.54,2.16,5.54,2.16,-2.16,-1.65,-2.08,3.38,3.38,3.38
57.42,5.54,2.19,5.52,2.16,-2.16,-1.68,-2.11,3.38,3.36,3.35
58.00,5.54,2.20,5.50,2.16,-2.16,-1.72,-2.15,3.38,3.34,3.34
58.58,5.52,2.19,5.48,2.17,-2.17,-1.75,-2.19,3.36,3.32,3.33
59.16,5.50,2.19,5.47,2.17,-2.17,-1.78,-2.22,3.33,3.29,3.31
59.76,5.46,2.17,5.44,2.17,-2.17,-1.82,-2.25,3.29,3.27,3.29
60.35,5.41,2.16,5.42,2.18,-2.18,-1.85,-2.28,3.23,3.24,3.25
60.96,5.36,2.15,5.39,2.19,-2.19,-1.88,-2.31,3.17,3.20,3.21
61.57,5.31,2.14,5.37,2.20,-2.20,-1.92,-2.34,3.11,3.17,3.17
62.18,5.27,2.14,5.34,2.22,-2.22,-1.95,-2.36,3.06,3.13,3.13
62.80,5.25,2.17,5.32,2.23,-2.23,-1.99,-2.38,3.02,3.09,3.08
63.43,5.29,2.25,5.31,2.27,-2.27,-2.02,-2.41,3.03,3.04,3.04
64.07,5.34,2.35,5.30,2.30,-2.30,-2.06,-2.42,3.04,3.00,2.99
64.71,5.33,2.38,5.29,2.33,-2.33,-2.10,-2.44,3.00,2.95,2.95
65.35,5.29,2.38,5.28,2.37,-2.37,-2.13,-2.46,2.92,2.91,2.91
66.01,5.23,2.37,5.27,2.41,-2.41,-2.17,-2.47,2.82,2.86,2.86
66.67,5.24,2.43,5.26,2.45,-2.45,-2.21,-2.49,2.79,2.81,2.81
67.33,5.25,2.49,5.26,2.49,-2.49,-2.25,-2.50,2.76,2.77,2.76
68.01,5.25,2.53,5.25,2.53,-2.53,-2.28,-2.51,2.72,2.72,2.72
68.69,5.25,2.58,5.23,2.57,-2.57,-2.32,-2.52,2.68,2.67,2.67
69.37,5.26,2.64,5.22,2.60,-2.60,-2.36,-2.53,2.66,2.61,2.62
70.07,5.26,2.69,5.20,2.63,-2.63,-2.40,-2.54,2.63,2.56,2.57
70.77,5.12,2.60,5.16,2.66,-2.66,-2.44,-2.55,2.47,2.51,2.52
71.48,5.06,2.59,5.13,2.68,-2.68,-2.47,-2.56,2.39,2.45,2.47
72.19,5.05,2.65,5.09,2.69,-2.69,-2.51,-2.57,2.36,2.40,2.40
72.91,5.07,2.73,5.05,2.71,-2.71,-2.55,-2.58,2.37,2.34,2.34
73.64,5.00,2.71,5.00,2.71,-2.71,-2.59,-2.59,2.29,2.29,2.29
74.38,4.93,2.70,4.94,2.71,-2.71,-2.63,-2.60,2.23,2.23,2.23
75.12,4.88,2.71,4.87,2.70,-2.70,-2.67,-2.61,2.19,2.17,2.17
75.87,4.83,2.72,4.79,2.67,-2.67,-2.71,-2.62,2.16,2.12,2.11
76.63,4.72,2.66,4.70,2.63,-2.63,-2.75,-2.64,2.09,2.06,2.06
77.40,4.60,2.59,4.60,2.59,-2.59,-2.79,-2.65,2.02,2.01,2.01
78.17,4.49,2.54,4.48,2.53,-2.53,-2.83,-2.67,1.97,1.96,1.95
78.95,4.39,2.48,4.36,2.45,-2.45,-2.87,-2.69,1.94,1.91,1.91
79.74,4.26,2.40,4.21,2.35,-2.35,-2.91,-2.71,1.91,1.86,1.86
80.54,4.15,2.34,4.06,2.25,-2.25,-2.95,-2.73,1.90,1.81,1.81
81.35,4.03,2.27,3.91,2.15,-2.15,-2.98,-2.75,1.88,1.76,1.76
82.16,3.88,2.17,3.78,2.07,-2.07,-3.02,-2.78,1.81,1.71,1.71
82.98,3.65,1.98,3.66,1.99,-1.99,-3.06,-2.80,1.66,1.67,1.67
83.81,3.44,1.82,3.54,1.92,-1.92,-3.10,-2.83,1.52,1.62,1.62
84.65,3.33,1.76,3.44,1.87,-1.87,-3.14,-2.86,1.46,1.57,1.57
85.50,3.25,1.72,3.36,1.84,-1.84,-3.17,-2.90,1.41,1.52,1.53
86.35,3.14,1.66,3.31,1.83,-1.83,-3.21,-2.93,1.31,1.47,1.48
87.22,3.09,1.66,3.27,1.85,-1.85,-3.25,-2.97,1.25,1.42,1.43
88.09,3.20,1.82,3.26,1.89,-1.89,-3.28,-3.01,1.32,1.37,1.38
88.97,3.35,2.03,3.28,1.96,-1.96,-3.32,-3.05,1.40,1.32,1.32
89.86,3.43,2.16,3.33,2.06,-2.06,-3.35,-3.10,1.38,1.27,1.27
90.76,3.42,2.20,3.40,2.18,-2.18,-3.39,-3.15,1.24,1.22,1.22
91.66,3.45,2.29,3.51,2.34,-2.34,-3.42,-3.20,1.12,1.17,1.17
92.58,3.55,2.44,3.62,2.50,-2.50,-3.45,-3.25,1.05,1.12,1.11
93.51,3.71,2.65,3.74,2.68,-2.68,-3.49,-3.30,1.04,1.07,1.06
94.44,3.86,2.84,3.87,2.85,-2.85,-3.52,-3.36,1.01,1.02,1.02
95.39,3.99,3.02,4.00,3.03,-3.03,-3.55,-3.42,0.96,0.97,0.97
96.34,4.14,3.22,4.12,3.20,-3.20,-3.58,-3.48,0.94,0.92,0.92
97.30,4.30,3.44,4.24,3.37,-3.37,-3.61,-3.54,0.93,0.87,0.87
98.28,4.45,3.63,4.36,3.54,-3.54,-3.63,-3.61,0.92,0.82,0.82
99.26,4.57,3.79,4.47,3.69,-3.69,-3.66,-3.67,0.88,0.78,0.78
100.25,4.59,3.86,4.57,3.85,-3.85,-3.69,-3.74,0.75,0.73,0.73
101.25,4.62,3.94,4.68,4.00,-4.00,-3.71,-3.81,0.62,0.68,0.68
102.27,4.68,4.05,4.77,4.14,-4.14,-3.74,-3.88,0.55,0.63,0.63
103.29,4.80,4.22,4.83,4.25,-4.25,-3.76,-3.94,0.56,0.58,0.58
104.32,4.90,4.36,4.87,4.34,-4.34,-3.78,-4.01,0.56,0.53,0.54
105.37,4.92,4.43,4.90,4.42,-4.42,-3.80,-4.08,0.50,0.48,0.49
106.42,4.96,4.52,4.92,4.49,-4.49,-3.82,-4.15,0.47,0.43,0.44
107.48,5.01,4.63,4.93,4.55,-4.55,-3.84,-4.22,0.46,0.38,0.38
108.56,4.97,4.64,4.92,4.60,-4.60,-3.86,-4.29,0.38,0.33,0.33
109.64,4.93,4.65,4.91,4.64,-4.64,-3.87,-4.36,0.29,0.27,0.28
110.74,4.91,4.69,4.90,4.68,-4.68,-3.89,-4.42,0.23,0.22,0.22
111.85,4.87,4.69,4.89,4.72,-4.72,-3.90,-4.48,0.16,0.17,0.18
112.97,4.78,4.66,4.86,4.74,-4.74,-3.92,-4.54,0.05,0.12,0.12
114.10,4.66,4.59,4.81,4.74,-4.74,-3.93,-4.60,-0.07,0.07,0.07
115.24,4.68,4.66,4.75,4.72,-4.72,-3.94,-4.65,-0.04,0.03,0.02
116.39,4.66,4.69,4.67,4.69,-4.69,-3.95,-4.69,-0.03,-0.02,-0.03
117.55,4.62,4.69,4.59,4.65,-4.65,-3.96,-4.74,-0.03,-0.06,-0.07
118.73,4.52,4.63,4.49,4.59,-4.59,-3.97,-4.77,-0.07,-0.10,-0.11
119.92,4.54,4.68,4.39,4.53,-4.53,-3.98,-4.81,0.02,-0.14,-0.14
121.12,4.41,4.59,4.28,4.45,-4.45,-3.98,-4.83,-0.04,-0.18,-0.18
122.33,4.28,4.49,4.16,4.37,-4.37,-3.99,-4.85,-0.08,-0.21,-0.21
123.55,4.11,4.35,4.03,4.27,-4.27,-4.00,-4.87,-0.16,-0.24,-0.24
124.79,3.89,4.17,3.92,4.19,-4.19,-4.00,-4.88,-0.30,-0.27,-0.27
126.03,3.76,4.06,3.81,4.11,-4.11,-4.01,-4.88,-0.35,-0.30,-0.30
127.29,3.60,3.92,3.70,4.04,-4.04,-4.01,-4.87,-0.44,-0.33,-0.32
128.57,3.45,3.81,3.60,3.96,-3.96,-4.02,-4.86,-0.51,-0.36,-0.36
129.85,3.39,3.78,3.51,3.90,-3.90,-4.02,-4.85,-0.51,-0.39,-0.39
131.15,3.36,3.78,3.42,3.85,-3.85,-4.03,-4.83,-0.48,-0.42,-0.42
132.46,3.28,3.73,3.36,3.81,-3.81,-4.03,-4.80,-0.53,-0.45,-0.45
133.79,3.23,3.71,3.30,3.78,-3.78,-4.04,-4.77,-0.55,-0.48,-0.48
135.12,3.30,3.81,3.27,3.78,-3.78,-4.04,-4.73,-0.48,-0.50,-0.51
136.48,3.35,3.88,3.27,3.80,-3.80,-4.05,-4.69,-0.45,-0.53,-0.53
137.84,3.42,3.99,3.28,3.84,-3.84,-4.05,-4.64,-0.42,-0.56,-0.57
139.22,3.36,3.96,3.32,3.91,-3.91,-4.06,-4.59,-0.54,-0.59,-0.60
140.61,3.31,3.94,3.36,3.98,-3.98,-4.07,-4.54,-0.67,-0.62,-0.63
142.02,3.32,3.97,3.41,4.06,-4.06,-4.08,-4.49,-0.74,-0.65,-0.65
143.44,3.32,4.00,3.46,4.15,-4.15,-4.09,-4.43,-0.83,-0.69,-0.68
144.87,3.40,4.12,3.51,4.24,-4.24,-4.10,-4.37,-0.84,-0.72,-0.72
146.32,3.49,4.25,3.56,4.33,-4.33,-4.11,-4.32,-0.83,-0.77,-0.76
147.78,3.52,4.31,3.58,4.40,-4.40,-4.12,-4.26,-0.88,-0.82,-0.79
149.26,3.66,4.50,3.58,4.45,-4.45,-4.14,-4.20,-0.79,-0.87,-0.84
150.75,3.74,4.64,3.55,4.48,-4.48,-4.16,-4.14,-0.74,-0.93,-0.90
152.26,3.73,4.70,3.50,4.49,-4.49,-4.18,-4.08,-0.76,-0.99,-0.97
153.78,3.68,4.72,3.45,4.50,-4.50,-4.20,-4.02,-0.82,-1.06,-1.04
155.32,3.56,4.67,3.39,4.51,-4.51,-4.23,-3.96,-0.95,-1.13,-1.11
156.88,3.47,4.66,3.32,4.52,-4.52,-4.26,-3.90,-1.04,-1.20,-1.19
158.44,3.33,4.60,3.26,4.52,-4.52,-4.29,-3.85,-1.19,-1.27,-1.27
160.03,3.16,4.51,3.19,4.53,-4.53,-4.32,-3.80,-1.37,-1.33,-1.35
161.63,2.95,4.37,3.13,4.53,-4.53,-4.36,-3.74,-1.58,-1.40,-1.42
163.24,2.75,4.23,3.08,4.54,-4.54,-4.39,-3.70,-1.79,-1.46,-1.48
164.88,2.65,4.18,3.03,4.55,-4.55,-4.44,-3.65,-1.90,-1.52,-1.53
166.53,2.73,4.31,3.00,4.57,-4.57,-4.48,-3.60,-1.83,-1.56,-1.58
168.19,2.86,4.48,2.98,4.59,-4.59,-4.53,-3.56,-1.72,-1.60,-1.62
169.87,3.01,4.67,2.98,4.61,-4.61,-4.57,-3.52,-1.60,-1.64,-1.66
171.57,3.11,4.79,2.98,4.65,-4.65,-4.62,-3.48,-1.53,-1.66,-1.68
173.29,3.22,4.91,3.01,4.69,-4.69,-4.67,-3.45,-1.47,-1.68,-1.69
175.02,3.25,4.95,3.04,4.73,-4.73,-4.72,-3.42,-1.48,-1.70,-1.70
176.77,3.20,4.91,3.07,4.78,-4.78,-4.77,-3.39,-1.57,-1.71,-1.71
178.54,3.19,4.91,3.11,4.82,-4.82,-4.82,-3.36,-1.63,-1.71,-1.72
180.32,3.16,4.87,3.14,4.86,-4.86,-4.87,-3.34,-1.69,-1.72,-1.71
182.13,3.11,4.81,3.16,4.88,-4.88,-4.91,-3.31,-1.77,-1.72,-1.70
183.95,3.10,4.81,3.16,4.89,-4.89,-4.95,-3.30,-1.79,-1.73,-1.71
185.79,3.00,4.71,3.14,4.88,-4.88,-4.98,-3.28,-1.88,-1.74,-1.71
187.65,3.01,4.74,3.12,4.86,-4.86,-5.01,-3.27,-1.85,-1.75,-1.73
189.52,3.08,4.82,3.08,4.84,-4.84,-5.02,-3.25,-1.76,-1.75,-1.74
191.42,3.07,4.83,3.05,4.82,-4.82,-5.03,-3.24,-1.75,-1.77,-1.76
193.33,3.02,4.80,3.02,4.81,-4.81,-5.02,-3.24,-1.78,-1.78,-1.78
195.27,3.01,4.81,3.00,4.80,-4.80,-5.01,-3.23,-1.79,-1.80,-1.80
197.22,2.99,4.81,2.97,4.79,-4.79,-4.98,-3.23,-1.79,-1.82,-1.82
199.19,2.96,4.80,2.93,4.76,-4.76,-4.94,-3.23,-1.80,-1.84,-1.84
201.18,2.93,4.79,2.89,4.74,-4.74,-4.88,-3.23,-1.81,-1.86,-1.86
203.19,2.86,4.74,2.84,4.71,-4.71,-4.82,-3.23,-1.85,-1.88,-1.88
205.23,2.78,4.68,2.77,4.67,-4.67,-4.74,-3.23,-1.89,-1.90,-1.90
207.28,2.70,4.61,2.70,4.62,-4.62,-4.66,-3.24,-1.92,-1.92,-1.91
209.35,2.62,4.55,2.62,4.56,-4.56,-4.56,-3.24,-1.93,-1.94,-1.93
211.44,2.57,4.53,2.53,4.49,-4.49,-4.46,-3.25,-1.92,-1.96,-1.96
213.56,2.46,4.43,2.45,4.42,-4.42,-4.35,-3.25,-1.96,-1.97,-1.97
215.69,2.35,4.33,2.36,4.34,-4.34,-4.24,-3.26,-1.99,-1.98,-1.98
217.85,2.20,4.19,2.26,4.26,-4.26,-4.12,-3.27,-2.05,-2.00,-1.99
220.03,2.16,4.16,2.17,4.18,-4.18,-4.01,-3.27,-2.01,-2.00,-2.00
222.23,2.11,4.14,2.08,4.09,-4.09,-3.89,-3.28,-1.98,-2.01,-2.03
224.45,1.93,3.95,1.99,4.01,-4.01,-3.77,-3.28,-2.08,-2.01,-2.02
226.70,1.86,3.88,1.92,3.93,-3.93,-3.65,-3.28,-2.07,-2.01,-2.02
228.96,1.87,3.88,1.85,3.86,-3.86,-3.53,-3.28,-1.99,-2.01,-2.01
231.25,1.80,3.80,1.79,3.79,-3.79,-3.42,-3.28,-1.98,-2.00,-2.00
233.57,1.71,3.70,1.72,3.71,-3.71,-3.30,-3.28,-1.99,-1.99,-1.99
235.90,1.61,3.59,1.65,3.63,-3.63,-3.19,-3.28,-2.01,-1.97,-1.98
238.26,1.50,3.47,1.60,3.56,-3.56,-3.09,-3.27,-2.05,-1.96,-1.97
240.64,1.54,3.48,1.55,3.49,-3.49,-2.98,-3.26,-1.94,-1.94,-1.94
243.05,1.57,3.48,1.49,3.41,-3.41,-2.88,-3.24,-1.84,-1.92,-1.91
245.48,1.44,3.33,1.43,3.33,-3.33,-2.78,-3.23,-1.88,-1.89,-1.89
247.93,1.39,3.25,1.38,3.25,-3.25,-2.69,-3.21,-1.86,-1.87,-1.86
250.41,1.42,3.26,1.33,3.18,-3.18,-2.59,-3.18,-1.75,-1.85,-1.84
252.92,1.28,3.09,1.27,3.09,-3.09,-2.50,-3.16,-1.81,-1.82,-1.81
255.45,1.11,2.90,1.20,3.00,-3.00,-2.42,-3.13,-1.88,-1.80,-1.79
258.00,1.07,2.84,1.13,2.90,-2.90,-2.33,-3.09,-1.83,-1.77,-1.77
260.58,1.10,2.85,1.05,2.80,-2.80,-2.25,-3.05,-1.69,-1.75,-1.75
263.19,1.03,2.75,0.97,2.70,-2.70,-2.17,-3.01,-1.66,-1.72,-1.72
265.82,0.91,2.61,0.89,2.59,-2.59,-2.09,-2.97,-1.68,-1.70,-1.70
268.48,0.77,2.45,0.80,2.48,-2.48,-2.02,-2.93,-1.71,-1.68,-1.68
271.16,0.72,2.37,0.72,2.37,-2.37,-1.94,-2.88,-1.65,-1.65,-1.65
273.87,0.69,2.32,0.64,2.27,-2.27,-1.87,-2.83,-1.57,-1.63,-1.63
276.61,0.52,2.12,0.55,2.15,-2.15,-1.80,-2.77,-1.63,-1.60,-1.60
279.38,0.41,1.98,0.46,2.03,-2.03,-1.72,-2.72,-1.62,-1.57,-1.57
282.17,0.27,1.82,0.37,1.92,-1.92,-1.65,-2.66,-1.65,-1.55,-1.55
284.99,0.23,1.74,0.28,1.80,-1.80,-1.58,-2.60,-1.57,-1.52,-1.51
287.84,0.21,1.70,0.18,1.67,-1.67,-1.51,-2.54,-1.45,-1.49,-1.49
290.72,0.20,1.66,0.08,1.53,-1.53,-1.44,-2.48,-1.33,-1.46,-1.46
293.63,0.05,1.48,-0.02,1.41,-1.41,-1.36,-2.42,-1.36,-1.43,-1.43
296.57,-0.09,1.31,-0.10,1.30,-1.30,-1.29,-2.35,-1.38,-1.40,-1.40
299.53,-0.19,1.18,-0.19,1.18,-1.18,-1.21,-2.29,-1.37,-1.37,-1.37
302.53,-0.32,1.03,-0.28,1.07,-1.07,-1.13,-2.23,-1.38,-1.34,-1.35
305.55,-0.45,0.86,-0.37,0.95,-0.95,-1.04,-2.16,-1.40,-1.32,-1.31
308.61,-0.50,0.79,-0.46,0.84,-0.84,-0.95,-2.10,-1.33,-1.29,-1.29
311.69,-0.62,0.64,-0.55,0.72,-0.72,-0.85,-2.04,-1.33,-1.27,-1.26
314.81,-0.67,0.57,-0.66,0.59,-0.59,-0.75,-1.97,-1.26,-1.25,-1.24
317.96,-0.75,0.47,-0.77,0.46,-0.46,-0.64,-1.91,-1.21,-1.23,-1.22
321.14,-0.81,0.40,-0.87,0.34,-0.34,-0.51,-1.85,-1.15,-1.21,-1.21
324.35,-0.85,0.34,-0.98,0.22,-0.22,-0.38,-1.79,-1.06,-1.19,-1.19
327.59,-0.96,0.22,-1.08,0.10,-0.10,-0.24,-1.73,-1.06,-1.18,-1.18
330.87,-1.14,0.03,-1.18,-0.02,0.02,-0.10,-1.66,-1.12,-1.16,-1.17
334.18,-1.29,-0.14,-1.28,-0.12,0.12,0.05,-1.61,-1.16,-1.15,-1.15
337.52,-1.40,-0.26,-1.36,-0.22,0.22,0.20,-1.55,-1.18,-1.14,-1.14
340.90,-1.46,-0.33,-1.44,-0.30,0.30,0.33,-1.49,-1.15,-1.13,-1.13
344.30,-1.59,-0.47,-1.51,-0.38,0.38,0.44,-1.43,-1.21,-1.13,-1.12
347.75,-1.62,-0.50,-1.56,-0.44,0.44,0.51,-1.38,-1.18,-1.12,-1.12
351.23,-1.56,-0.45,-1.59,-0.48,0.48,0.55,-1.32,-1.08,-1.12,-1.11
354.74,-1.70,-0.58,-1.61,-0.50,0.50,0.54,-1.27,-1.20,-1.11,-1.12
358.28,-1.77,-0.66,-1.61,-0.50,0.50,0.49,-1.21,-1.27,-1.11,-1.11
361.87,-1.68,-0.57,-1.58,-0.47,0.47,0.42,-1.16,-1.21,-1.11,-1.11
365.49,-1.52,-0.42,-1.53,-0.42,0.42,0.32,-1.11,-1.10,-1.11,-1.10
369.14,-1.46,-0.35,-1.46,-0.36,0.36,0.23,-1.06,-1.10,-1.11,-1.11
372.83,-1.39,-0.28,-1.39,-0.28,0.28,0.13,-1.01,-1.11,-1.11,-1.11
376.56,-1.31,-0.19,-1.31,-0.20,0.20,0.04,-0.96,-1.11,-1.11,-1.12
380.33,-1.21,-0.10,-1.23,-0.11,0.11,-0.05,-0.92,-1.10,-1.12,-1.11
384.13,-1.09,0.02,-1.14,-0.02,0.02,-0.12,-0.87,-1.07,-1.12,-1.11
387.97,-1.00,0.12,-1.06,0.07,-0.07,-0.19,-0.82,-1.07,-1.12,-1.12
391.85,-0.96,0.17,-0.98,0.15,-0.15,-0.24,-0.78,-1.11,-1.13,-1.13
395.77,-0.83,0.29,-0.90,0.24,-0.24,-0.29,-0.74,-1.06,-1.13,-1.12
399.73,-0.78,0.35,-0.84,0.30,-0.30,-0.33,-0.69,-1.08,-1.14,-1.13
403.72,-0.78,0.35,-0.80,0.35,-0.35,-0.36,-0.65,-1.13,-1.15,-1.13
407.76,-0.77,0.38,-0.77,0.38,-0.38,-0.39,-0.61,-1.15,-1.15,-1.15
411.84,-0.70,0.45,-0.74,0.42,-0.42,-0.41,-0.57,-1.11,-1.15,-1.15
415.96,-0.68,0.47,-0.71,0.45,-0.45,-0.43,-0.53,-1.12,-1.15,-1.15
420.12,-0.69,0.46,-0.68,0.47,-0.47,-0.44,-0.49,-1.16,-1.15,-1.15
424.32,-0.63,0.52,-0.65,0.49,-0.49,-0.46,-0.46,-1.12,-1.14,-1.15
428.56,-0.64,0.50,-0.63,0.51,-0.51,-0.47,-0.42,-1.15,-1.13,-1.14
432.85,-0.66,0.47,-0.59,0.53,-0.53,-0.47,-0.39,-1.19,-1.12,-1.13
437.18,-0.64,0.48,-0.54,0.55,-0.55,-0.48,-0.35,-1.19,-1.10,-1.12
441.55,-0.60,0.48,-0.51,0.56,-0.56,-0.48,-0.32,-1.16,-1.07,-1.08
445.96,-0.56,0.49,-0.47,0.57,-0.57,-0.49,-0.29,-1.13,-1.04,-1.05
450.42,-0.47,0.55,-0.42,0.59,-0.59,-0.49,-0.26,-1.06,-1.00,-1.02
454.93,-0.30,0.67,-0.36,0.60,-0.60,-0.49,-0.23,-0.90,-0.96,-0.97
459.48,-0.23,0.70,-0.31,0.61,-0.61,-0.49,-0.20,-0.84,-0.92,-0.93
464.07,-0.22,0.66,-0.25,0.62,-0.62,-0.49,-0.18,-0.84,-0.87,-0.88
468.71,-0.17,0.65,-0.20,0.63,-0.63,-0.49,-0.15,-0.80,-0.83,-0.82
473.40,-0.11,0.67,-0.15,0.63,-0.63,-0.48,-0.13,-0.74,-0.78,-0.78
478.13,-0.05,0.67,-0.10,0.63,-0.63,-0.48,-0.11,-0.68,-0.73,-0.72
482.91,-0.11,0.57,-0.06,0.63,-0.63,-0.48,-0.09,-0.74,-0.68,-0.68
487.74,-0.14,0.50,-0.03,0.61,-0.61,-0.48,-0.07,-0.75,-0.64,-0.64
492.62,-0.01,0.58,-0.02,0.59,-0.59,-0.47,-0.06,-0.60,-0.61,-0.59
497.55,0.09,0.66,-0.01,0.57,-0.57,-0.47,-0.04,-0.47,-0.58,-0.57
