frequency,raw,error,smoothed,error_smoothed,equalization,parametric_eq,fixed_band_eq,equalized_raw,equalized_smoothed,target
20.00,-0.63,-6.66,-0.64,-6.66,6.62,6.38,2.74,5.99,5.98,6.03
20.20,-0.59,-6.61,-0.58,-6.60,6.59,6.37,2.82,6.00,6.00,6.02
20.40,-0.54,-6.55,-0.54,-6.55,6.56,6.37,2.90,6.02,6.02,6.01
20.61,-0.50,-6.51,-0.50,-6.50,6.52,6.37,2.98,6.02,6.03,6.01
20.81,-0.46,-6.45,-0.46,-6.45,6.49,6.36,3.07,6.03,6.03,5.99
21.02,-0.42,-6.41,-0.43,-6.42,6.46,6.36,3.15,6.04,6.03,5.99
21.23,-0.42,-6.40,-0.42,-6.40,6.43,6.35,3.24,6.01,6.01,5.98
21.44,-0.42,-6.41,-0.42,-6.40,6.40,6.34,3.34,5.98,5.98,5.99
21.66,-0.42,-6.40,-0.42,-6.40,6.38,6.34,3.43,5.96,5.96,5.98
21.87,-0.42,-6.39,-0.42,-6.39,6.35,6.33,3.53,5.93,5.94,5.97
22.09,-0.40,-6.36,-0.40,-6.36,6.32,6.32,3.63,5.92,5.93,5.96
22.31,-0.36,-6.32,-0.36,-6.31,6.29,6.31,3.73,5.93,5.93,5.96
22.54,-0.31,-6.26,-0.31,-6.26,6.26,6.31,3.84,5.95,5.95,5.95
22.76,-0.27,-6.21,-0.27,-6.20,6.23,6.30,3.95,5.96,5.96,5.94
22.99,-0.22,-6.15,-0.23,-6.16,6.20,6.29,4.06,5.97,5.96,5.93
23.22,-0.22,-6.14,-0.22,-6.14,6.17,6.28,4.17,5.95,5.95,5.92
23.45,-0.22,-6.15,-0.22,-6.14,6.15,6.27,4.29,5.93,5.93,5.93
23.69,-0.22,-6.14,-0.22,-6.14,6.14,6.25,4.41,5.91,5.91,5.92
23.92,-0.22,-6.14,-0.22,-6.14,6.13,6.24,4.53,5.90,5.91,5.92
24.16,-0.21,-6.14,-0.20,-6.13,6.12,6.23,4.66,5.91,5.91,5.93
24.40,-0.18,-6.12,-0.19,-6.12,6.11,6.22,4.78,5.92,5.92,5.94
24.65,-0.16,-6.10,-0.16,-6.10,6.09,6.20,4.91,5.93,5.93,5.94
24.89,-0.14,-6.08,-0.14,-6.07,6.07,6.19,5.04,5.93,5.93,5.94
25.14,-0.11,-6.04,-0.11,-6.04,6.05,6.17,5.17,5.94,5.93,5.93
25.39,-0.09,-6.02,-0.09,-6.02,6.02,6.16,5.30,5.93,5.93,5.93
25.65,-0.06,-5.99,-0.06,-5.99,5.99,6.14,5.44,5.93,5.93,5.93
25.91,-0.03,-5.97,-0.03,-5.97,5.97,6.13,5.57,5.93,5.93,5.94
26.16,-0.00,-5.95,-0.00,-5.95,5.94,6.11,5.70,5.94,5.94,5.95
26.43,0.02,-5.93,0.03,-5.92,5.92,6.09,5.83,5.94,5.94,5.95
26.69,0.05,-5.90,0.05,-5.89,5.90,6.07,5.97,5.95,5.95,5.95
26.96,0.08,-5.86,0.07,-5.87,5.88,6.06,6.10,5.96,5.95,5.94
27.23,0.08,-5.86,0.08,-5.86,5.88,6.04,6.22,5.95,5.96,5.94
27.50,0.08,-5.86,0.08,-5.86,5.87,6.02,6.34,5.95,5.95,5.94
27.77,0.08,-5.87,0.08,-5.86,5.87,6.00,6.46,5.95,5.95,5.95
28.05,0.08,-5.87,0.08,-5.86,5.87,5.98,6.58,5.95,5.94,5.95
28.33,0.07,-5.86,0.07,-5.87,5.86,5.96,6.69,5.93,5.93,5.93
28.62,0.07,-5.86,0.06,-5.87,5.84,5.93,6.79,5.91,5.91,5.93
28.90,0.06,-5.88,0.07,-5.86,5.82,5.91,6.88,5.88,5.90,5.94
29.19,0.10,-5.84,0.11,-5.82,5.80,5.89,6.97,5.90,5.90,5.94
29.48,0.17,-5.76,0.17,-5.77,5.77,5.87,7.04,5.93,5.93,5.93
29.78,0.23,-5.70,0.23,-5.71,5.73,5.84,7.11,5.96,5.96,5.93
30.08,0.28,-5.66,0.27,-5.66,5.70,5.82,7.17,5.98,5.97,5.94
30.38,0.28,-5.65,0.28,-5.64,5.67,5.79,7.21,5.95,5.95,5.93
30.68,0.28,-5.63,0.28,-5.63,5.64,5.77,7.24,5.92,5.92,5.91
30.99,0.28,-5.63,0.28,-5.62,5.61,5.74,7.26,5.89,5.89,5.91
31.30,0.29,-5.61,0.29,-5.61,5.59,5.72,7.27,5.88,5.88,5.90
31.61,0.30,-5.59,0.30,-5.59,5.57,5.69,7.27,5.87,5.87,5.89
31.93,0.32,-5.56,0.32,-5.56,5.56,5.67,7.25,5.88,5.87,5.88
32.24,0.33,-5.55,0.33,-5.54,5.55,5.64,7.23,5.87,5.88,5.88
32.57,0.35,-5.51,0.35,-5.51,5.53,5.61,7.19,5.88,5.89,5.86
32.89,0.37,-5.49,0.36,-5.49,5.52,5.58,7.14,5.89,5.88,5.86
33.22,0.37,-5.49,0.36,-5.49,5.51,5.55,7.08,5.88,5.87,5.86
33.55,0.36,-5.49,0.35,-5.50,5.49,5.52,7.01,5.85,5.84,5.85
33.89,0.34,-5.52,0.35,-5.49,5.46,5.49,6.93,5.80,5.82,5.86
34.23,0.37,-5.47,0.37,-5.47,5.43,5.46,6.85,5.80,5.81,5.84
34.57,0.42,-5.42,0.41,-5.43,5.40,5.43,6.76,5.82,5.81,5.84
34.92,0.47,-5.36,0.47,-5.36,5.36,5.40,6.66,5.83,5.83,5.83
35.27,0.52,-5.32,0.52,-5.31,5.32,5.37,6.56,5.84,5.85,5.84
35.62,0.57,-5.25,0.57,-5.25,5.28,5.34,6.45,5.85,5.85,5.82
35.97,0.62,-5.20,0.60,-5.21,5.24,5.31,6.34,5.86,5.85,5.82
36.33,0.61,-5.19,0.61,-5.19,5.21,5.27,6.23,5.82,5.82,5.80
36.70,0.59,-5.20,0.60,-5.19,5.19,5.24,6.11,5.78,5.79,5.79
37.06,0.58,-5.19,0.58,-5.19,5.17,5.21,6.00,5.75,5.75,5.77
37.43,0.58,-5.17,0.58,-5.17,5.16,5.17,5.88,5.73,5.73,5.75
37.81,0.58,-5.15,0.58,-5.15,5.14,5.14,5.77,5.72,5.72,5.73
38.19,0.58,-5.12,0.58,-5.12,5.12,5.10,5.65,5.70,5.70,5.70
38.57,0.58,-5.10,0.58,-5.10,5.09,5.07,5.54,5.67,5.67,5.68
38.95,0.58,-5.07,0.58,-5.06,5.06,5.03,5.42,5.63,5.64,5.65
39.34,0.59,-5.02,0.59,-5.02,5.02,4.99,5.31,5.61,5.61,5.61
39.74,0.61,-4.98,0.61,-4.98,4.98,4.96,5.20,5.59,5.59,5.59
40.14,0.63,-4.93,0.63,-4.93,4.94,4.92,5.10,5.57,5.57,5.56
40.54,0.65,-4.89,0.65,-4.88,4.90,4.88,4.99,5.55,5.55,5.54
40.94,0.68,-4.83,0.66,-4.84,4.85,4.84,4.89,5.53,5.52,5.51
41.35,0.67,-4.82,0.67,-4.82,4.81,4.80,4.79,5.48,5.47,5.49
41.76,0.66,-4.79,0.67,-4.78,4.76,4.77,4.70,5.42,5.43,5.45
42.18,0.68,-4.75,0.69,-4.74,4.72,4.73,4.60,5.40,5.41,5.43
42.60,0.73,-4.68,0.73,-4.67,4.68,4.69,4.51,5.41,5.41,5.41
43.03,0.78,-4.60,0.76,-4.62,4.64,4.65,4.43,5.42,5.40,5.38
43.46,0.78,-4.57,0.78,-4.57,4.59,4.60,4.35,5.37,5.38,5.35
43.90,0.78,-4.55,0.78,-4.54,4.54,4.56,4.27,5.32,5.32,5.33
44.33,0.78,-4.51,0.77,-4.52,4.49,4.52,4.19,5.27,5.26,5.29
44.78,0.78,-4.48,0.79,-4.47,4.44,4.48,4.12,5.22,5.23,5.26
45.23,0.82,-4.43,0.83,-4.40,4.39,4.44,4.05,5.21,5.22,5.25
45.68,0.89,-4.31,0.88,-4.32,4.34,4.39,3.98,5.23,5.22,5.20
46.13,0.93,-4.23,0.91,-4.26,4.29,4.35,3.92,5.22,5.20,5.16
46.60,0.90,-4.23,0.91,-4.22,4.25,4.30,3.86,5.15,5.15,5.13
47.06,0.88,-4.21,0.89,-4.20,4.20,4.26,3.80,5.08,5.09,5.09
47.53,0.88,-4.18,0.88,-4.17,4.15,4.21,3.75,5.03,5.03,5.06
48.01,0.88,-4.12,0.88,-4.12,4.11,4.17,3.70,4.99,4.99,5.00
48.49,0.88,-4.07,0.88,-4.08,4.07,4.12,3.65,4.95,4.95,4.95
48.97,0.88,-4.03,0.88,-4.03,4.03,4.08,3.60,4.91,4.91,4.91
49.46,0.88,-3.99,0.88,-3.98,3.99,4.03,3.56,4.87,4.87,4.87
49.96,0.88,-3.92,0.88,-3.93,3.94,3.98,3.52,4.82,4.81,4.80
50.46,0.88,-3.88,0.88,-3.88,3.88,3.93,3.48,4.76,4.76,4.76
50.96,0.88,-3.84,0.88,-3.83,3.82,3.88,3.44,4.70,4.71,4.72
51.47,0.90,-3.78,0.90,-3.77,3.76,3.84,3.41,4.66,4.66,4.68
51.99,0.93,-3.70,0.92,-3.71,3.69,3.79,3.37,4.62,4.62,4.63
52.51,0.96,-3.63,0.96,-3.63,3.62,3.73,3.34,4.58,4.58,4.59
53.03,0.99,-3.57,1.00,-3.55,3.55,3.68,3.31,4.54,4.55,4.56
53.56,1.04,-3.46,1.04,-3.46,3.47,3.63,3.28,4.51,4.51,4.50
54.10,1.08,-3.37,1.07,-3.39,3.40,3.58,3.25,4.48,4.47,4.45
54.64,1.08,-3.33,1.08,-3.32,3.34,3.53,3.22,4.42,4.42,4.41
55.18,1.08,-3.27,1.08,-3.27,3.28,3.47,3.19,4.36,4.37,4.35
55.74,1.08,-3.22,1.08,-3.23,3.23,3.42,3.16,4.31,4.31,4.30
56.29,1.08,-3.19,1.08,-3.18,3.19,3.37,3.13,4.27,4.27,4.27
56.86,1.08,-3.15,1.08,-3.14,3.14,3.31,3.10,4.22,4.22,4.23
57.42,1.08,-3.09,1.08,-3.10,3.09,3.26,3.07,4.17,4.17,4.17
58.00,1.08,-3.06,1.07,-3.07,3.04,3.20,3.04,4.12,4.11,4.14
58.58,1.08,-3.03,1.09,-3.01,2.98,3.14,3.01,4.06,4.07,4.11
59.16,1.11,-2.96,1.14,-2.93,2.92,3.08,2.97,4.03,4.06,4.07
59.76,1.22,-2.81,1.18,-2.84,2.85,3.03,2.93,4.07,4.03,4.03
60.35,1.23,-2.73,1.21,-2.76,2.79,2.97,2.89,4.01,3.99,3.96
60.96,1.18,-2.73,1.21,-2.70,2.72,2.91,2.85,3.90,3.92,3.91
61.57,1.18,-2.66,1.18,-2.65,2.65,2.85,2.81,3.83,3.83,3.84
62.18,1.18,-2.59,1.17,-2.60,2.59,2.79,2.76,3.77,3.76,3.77
62.80,1.18,-2.53,1.18,-2.53,2.53,2.73,2.71,3.70,3.70,3.71
63.43,1.18,-2.47,1.18,-2.47,2.47,2.66,2.66,3.65,3.65,3.65
64.07,1.18,-2.42,1.18,-2.41,2.41,2.60,2.60,3.59,3.59,3.60
64.71,1.18,-2.36,1.18,-2.36,2.36,2.54,2.55,3.54,3.54,3.54
65.35,1.18,-2.30,1.18,-2.30,2.31,2.47,2.49,3.49,3.49,3.48
66.01,1.18,-2.24,1.18,-2.24,2.26,2.41,2.42,3.44,3.44,3.42
66.67,1.18,-2.20,1.18,-2.18,2.21,2.34,2.36,3.38,3.39,3.38
67.33,1.18,-2.12,1.17,-2.13,2.13,2.28,2.29,3.31,3.31,3.30
68.01,1.18,-2.07,1.15,-2.10,2.05,2.21,2.22,3.23,3.20,3.25
68.69,1.12,-2.06,1.15,-2.03,1.96,2.15,2.15,3.08,3.11,3.18
69.37,1.17,-1.96,1.20,-1.92,1.86,2.08,2.08,3.03,3.07,3.13
70.07,1.30,-1.76,1.29,-1.77,1.76,2.01,2.00,3.06,3.06,3.06
70.77,1.43,-1.57,1.39,-1.61,1.67,1.94,1.92,3.09,3.05,3.00
71.48,1.44,-1.49,1.43,-1.50,1.57,1.87,1.85,3.01,3.00,2.93
72.19,1.41,-1.45,1.42,-1.44,1.48,1.80,1.77,2.88,2.90,2.86
72.91,1.39,-1.41,1.40,-1.40,1.39,1.73,1.68,2.78,2.79,2.80
73.64,1.39,-1.34,1.39,-1.34,1.32,1.66,1.60,2.71,2.70,2.73
74.38,1.39,-1.28,1.39,-1.28,1.26,1.59,1.52,2.65,2.64,2.67
75.12,1.39,-1.21,1.39,-1.22,1.21,1.52,1.44,2.60,2.60,2.60
75.87,1.39,-1.17,1.39,-1.16,1.16,1.44,1.35,2.55,2.55,2.56
76.63,1.39,-1.10,1.39,-1.10,1.11,1.37,1.27,2.49,2.49,2.49
77.40,1.39,-1.05,1.39,-1.05,1.05,1.30,1.18,2.44,2.44,2.44
78.17,1.39,-0.99,1.39,-0.99,1.00,1.22,1.10,2.39,2.39,2.38
78.95,1.39,-0.95,1.39,-0.94,0.95,1.15,1.01,2.34,2.34,2.34
79.74,1.39,-0.89,1.39,-0.89,0.90,1.07,0.93,2.29,2.29,2.28
80.54,1.39,-0.83,1.39,-0.83,0.84,1.00,0.84,2.23,2.23,2.22
81.35,1.39,-0.78,1.39,-0.78,0.77,0.92,0.75,2.16,2.16,2.17
82.16,1.39,-0.73,1.38,-0.73,0.70,0.84,0.67,2.09,2.08,2.12
82.98,1.39,-0.67,1.39,-0.67,0.63,0.77,0.58,2.01,2.01,2.06
83.81,1.39,-0.61,1.43,-0.57,0.55,0.69,0.50,1.94,1.98,2.00
84.65,1.49,-0.45,1.48,-0.45,0.47,0.61,0.41,1.96,1.95,1.94
85.50,1.55,-0.32,1.52,-0.35,0.40,0.54,0.33,1.95,1.92,1.87
86.35,1.54,-0.27,1.53,-0.28,0.32,0.46,0.24,1.86,1.86,1.81
87.22,1.49,-0.27,1.51,-0.24,0.25,0.38,0.15,1.74,1.76,1.76
88.09,1.49,-0.20,1.49,-0.20,0.18,0.30,0.07,1.67,1.67,1.69
88.97,1.49,-0.15,1.48,-0.15,0.12,0.23,-0.02,1.61,1.60,1.64
89.86,1.49,-0.07,1.49,-0.07,0.06,0.15,-0.10,1.55,1.55,1.56
90.76,1.49,-0.01,1.49,-0.01,0.02,0.07,-0.19,1.51,1.51,1.50
91.66,1.49,0.06,1.49,0.06,-0.03,-0.01,-0.27,1.45,1.46,1.43
92.58,1.49,0.12,1.49,0.13,-0.10,-0.09,-0.36,1.39,1.39,1.37
93.51,1.49,0.19,1.47,0.17,-0.18,-0.17,-0.45,1.31,1.29,1.30
94.44,1.45,0.22,1.43,0.21,-0.26,-0.24,-0.53,1.19,1.17,1.23
95.39,1.39,0.24,1.44,0.29,-0.35,-0.32,-0.62,1.04,1.09,1.15
96.34,1.45,0.38,1.47,0.40,-0.44,-0.40,-0.70,1.01,1.04,1.07
97.30,1.58,0.59,1.53,0.54,-0.53,-0.48,-0.79,1.05,1.00,0.99
98.28,1.57,0.67,1.57,0.67,-0.62,-0.56,-0.87,0.95,0.95,0.90
99.26,1.56,0.75,1.57,0.76,-0.71,-0.64,-0.96,0.85,0.86,0.81
100.25,1.54,0.81,1.54,0.81,-0.80,-0.71,-1.05,0.74,0.74,0.73
101.25,1.52,0.86,1.52,0.88,-0.88,-0.79,-1.13,0.64,0.64,0.66
102.27,1.51,0.94,1.51,0.94,-0.95,-0.87,-1.21,0.56,0.56,0.57
103.29,1.50,1.01,1.50,1.00,-1.01,-0.95,-1.30,0.48,0.48,0.49
104.32,1.48,1.06,1.48,1.07,-1.07,-1.02,-1.38,0.41,0.41,0.42
105.37,1.46,1.12,1.46,1.13,-1.12,-1.10,-1.46,0.34,0.34,0.34
106.42,1.43,1.18,1.43,1.18,-1.17,-1.18,-1.55,0.26,0.26,0.25
107.48,1.41,1.25,1.41,1.24,-1.23,-1.25,-1.63,0.18,0.18,0.16
108.56,1.38,1.28,1.38,1.30,-1.29,-1.33,-1.71,0.09,0.09,0.10
109.64,1.36,1.35,1.36,1.35,-1.36,-1.40,-1.78,-0.00,-0.00,0.01
110.74,1.34,1.41,1.32,1.39,-1.44,-1.48,-1.86,-0.10,-0.12,-0.07
111.85,1.32,1.46,1.33,1.47,-1.52,-1.55,-1.94,-0.20,-0.19,-0.14
112.97,1.32,1.53,1.38,1.59,-1.60,-1.63,-2.01,-0.28,-0.23,-0.21
114.10,1.48,1.76,1.43,1.71,-1.69,-1.70,-2.08,-0.21,-0.26,-0.28
115.24,1.49,1.85,1.46,1.82,-1.77,-1.77,-2.15,-0.28,-0.31,-0.36
116.39,1.44,1.88,1.46,1.90,-1.86,-1.84,-2.22,-0.42,-0.40,-0.44
117.55,1.41,1.91,1.43,1.94,-1.94,-1.92,-2.28,-0.53,-0.51,-0.50
118.73,1.42,2.00,1.41,1.99,-2.01,-1.99,-2.34,-0.59,-0.60,-0.58
119.92,1.43,2.07,1.42,2.06,-2.08,-2.06,-2.40,-0.65,-0.66,-0.64
121.12,1.43,2.12,1.43,2.13,-2.14,-2.13,-2.45,-0.71,-0.71,-0.69
122.33,1.44,2.20,1.44,2.20,-2.20,-2.20,-2.51,-0.76,-0.76,-0.76
123.55,1.45,2.26,1.45,2.26,-2.26,-2.27,-2.56,-0.81,-0.82,-0.81
124.79,1.46,2.33,1.46,2.33,-2.33,-2.34,-2.60,-0.87,-0.88,-0.87
126.03,1.46,2.40,1.46,2.40,-2.40,-2.40,-2.65,-0.94,-0.94,-0.94
127.29,1.47,2.47,1.47,2.47,-2.47,-2.47,-2.69,-1.00,-1.00,-1.00
128.57,1.48,2.54,1.48,2.54,-2.54,-2.54,-2.73,-1.06,-1.07,-1.06
129.85,1.48,2.61,1.48,2.61,-2.61,-2.60,-2.76,-1.13,-1.13,-1.13
131.15,1.49,2.68,1.49,2.68,-2.68,-2.67,-2.79,-1.19,-1.19,-1.19
132.46,1.49,2.74,1.49,2.75,-2.74,-2.73,-2.82,-1.25,-1.25,-1.25
133.79,1.50,2.81,1.50,2.81,-2.80,-2.80,-2.85,-1.31,-1.31,-1.31
135.12,1.50,2.87,1.50,2.86,-2.87,-2.86,-2.88,-1.37,-1.37,-1.37
136.48,1.50,2.91,1.50,2.93,-2.93,-2.92,-2.90,-1.43,-1.43,-1.41
137.84,1.51,2.98,1.51,2.99,-2.99,-2.98,-2.92,-1.48,-1.48,-1.47
139.22,1.51,3.06,1.51,3.05,-3.05,-3.04,-2.94,-1.54,-1.54,-1.55
140.61,1.51,3.10,1.51,3.11,-3.11,-3.10,-2.97,-1.60,-1.60,-1.59
142.02,1.51,3.16,1.51,3.17,-3.16,-3.16,-2.98,-1.66,-1.66,-1.65
143.44,1.51,3.23,1.51,3.22,-3.22,-3.22,-3.00,-1.71,-1.71,-1.72
144.87,1.51,3.28,1.51,3.28,-3.28,-3.28,-3.02,-1.77,-1.77,-1.77
146.32,1.51,3.33,1.51,3.34,-3.34,-3.34,-3.04,-1.83,-1.83,-1.82
147.78,1.51,3.39,1.51,3.39,-3.39,-3.39,-3.06,-1.88,-1.88,-1.88
149.26,1.51,3.44,1.51,3.45,-3.45,-3.45,-3.08,-1.94,-1.94,-1.93
150.75,1.51,3.51,1.51,3.50,-3.50,-3.50,-3.10,-1.99,-1.99,-2.00
152.26,1.51,3.55,1.51,3.56,-3.56,-3.56,-3.12,-2.05,-2.05,-2.04
153.78,1.51,3.61,1.51,3.61,-3.61,-3.61,-3.15,-2.10,-2.10,-2.10
155.32,1.51,3.66,1.51,3.66,-3.67,-3.66,-3.17,-2.16,-2.16,-2.15
156.88,1.51,3.72,1.51,3.72,-3.73,-3.71,-3.20,-2.22,-2.22,-2.21
158.44,1.51,3.78,1.51,3.78,-3.78,-3.76,-3.23,-2.28,-2.28,-2.27
160.03,1.51,3.84,1.51,3.84,-3.84,-3.81,-3.26,-2.33,-2.33,-2.33
161.63,1.51,3.90,1.51,3.90,-3.90,-3.86,-3.29,-2.39,-2.39,-2.39
163.24,1.51,3.97,1.51,3.96,-3.96,-3.91,-3.32,-2.45,-2.45,-2.46
164.88,1.50,4.01,1.50,4.02,-4.02,-3.96,-3.36,-2.52,-2.52,-2.51
166.53,1.50,4.08,1.50,4.07,-4.08,-4.00,-3.40,-2.58,-2.59,-2.58
168.19,1.49,4.12,1.49,4.12,-4.15,-4.05,-3.44,-2.66,-2.66,-2.63
169.87,1.49,4.18,1.48,4.18,-4.20,-4.09,-3.49,-2.72,-2.72,-2.69
171.57,1.48,4.24,1.50,4.26,-4.25,-4.14,-3.54,-2.78,-2.76,-2.76
173.29,1.50,4.32,1.52,4.34,-4.30,-4.18,-3.59,-2.80,-2.78,-2.82
175.02,1.56,4.43,1.51,4.39,-4.34,-4.22,-3.64,-2.78,-2.83,-2.87
176.77,1.50,4.42,1.48,4.41,-4.38,-4.26,-3.70,-2.88,-2.90,-2.92
178.54,1.39,4.37,1.43,4.41,-4.42,-4.30,-3.75,-3.03,-2.99,-2.98
180.32,1.37,4.41,1.37,4.41,-4.45,-4.34,-3.82,-3.08,-3.08,-3.04
182.13,1.37,4.45,1.36,4.45,-4.49,-4.38,-3.88,-3.12,-3.13,-3.08
183.95,1.38,4.51,1.38,4.51,-4.53,-4.42,-3.95,-3.15,-3.15,-3.13
185.79,1.40,4.58,1.40,4.58,-4.57,-4.46,-4.02,-3.17,-3.18,-3.18
187.65,1.41,4.63,1.41,4.64,-4.62,-4.49,-4.09,-3.21,-3.21,-3.22
189.52,1.43,4.70,1.43,4.69,-4.68,-4.53,-4.17,-3.25,-3.26,-3.27
191.42,1.44,4.74,1.44,4.75,-4.75,-4.56,-4.25,-3.31,-3.31,-3.30
193.33,1.45,4.80,1.45,4.81,-4.81,-4.60,-4.33,-3.36,-3.36,-3.35
195.27,1.47,4.87,1.47,4.87,-4.87,-4.63,-4.41,-3.40,-3.41,-3.40
197.22,1.48,4.93,1.48,4.93,-4.93,-4.66,-4.49,-3.45,-3.45,-3.45
199.19,1.49,4.97,1.49,4.98,-4.98,-4.70,-4.58,-3.49,-3.49,-3.48
201.18,1.50,5.03,1.50,5.03,-5.02,-4.73,-4.67,-3.52,-3.52,-3.53
203.19,1.50,5.06,1.51,5.07,-5.05,-4.76,-4.76,-3.55,-3.55,-3.56
205.23,1.51,5.11,1.52,5.12,-5.08,-4.78,-4.85,-3.57,-3.56,-3.60
207.28,1.51,5.14,1.49,5.13,-5.09,-4.81,-4.94,-3.59,-3.61,-3.63
209.35,1.47,5.14,1.44,5.11,-5.11,-4.84,-5.04,-3.64,-3.68,-3.67
211.44,1.34,5.06,1.39,5.10,-5.14,-4.87,-5.13,-3.80,-3.75,-3.72
213.56,1.34,5.09,1.36,5.11,-5.16,-4.89,-5.22,-3.82,-3.81,-3.75
215.69,1.38,5.17,1.36,5.15,-5.19,-4.92,-5.31,-3.81,-3.84,-3.79
217.85,1.39,5.21,1.38,5.21,-5.22,-4.94,-5.40,-3.83,-3.84,-3.82
220.03,1.39,5.26,1.40,5.26,-5.24,-4.97,-5.49,-3.86,-3.85,-3.87
222.23,1.39,5.28,1.43,5.32,-5.27,-4.99,-5.57,-3.88,-3.84,-3.89
224.45,1.46,5.38,1.42,5.35,-5.30,-5.01,-5.66,-3.84,-3.87,-3.92
226.70,1.45,5.40,1.40,5.34,-5.32,-5.03,-5.73,-3.87,-3.92,-3.95
228.96,1.29,5.26,1.35,5.32,-5.33,-5.05,-5.81,-4.04,-3.98,-3.97
231.25,1.30,5.28,1.31,5.30,-5.34,-5.07,-5.88,-4.04,-4.03,-3.98
233.57,1.31,5.32,1.29,5.30,-5.34,-5.09,-5.94,-4.03,-4.05,-4.01
235.90,1.32,5.34,1.32,5.34,-5.35,-5.11,-6.00,-4.03,-4.03,-4.02
238.26,1.33,5.37,1.33,5.37,-5.36,-5.12,-6.05,-4.03,-4.03,-4.04
240.64,1.35,5.38,1.34,5.38,-5.38,-5.14,-6.09,-4.03,-4.03,-4.03
243.05,1.36,5.40,1.36,5.41,-5.41,-5.16,-6.13,-4.05,-4.05,-4.04
245.48,1.38,5.44,1.38,5.44,-5.45,-5.17,-6.16,-4.07,-4.07,-4.06
247.93,1.41,5.48,1.40,5.47,-5.49,-5.18,-6.18,-4.08,-4.08,-4.07
250.41,1.43,5.49,1.42,5.49,-5.52,-5.20,-6.19,-4.09,-4.09,-4.06
252.92,1.45,5.51,1.46,5.53,-5.53,-5.21,-6.19,-4.08,-4.07,-4.06
255.45,1.47,5.55,1.49,5.57,-5.52,-5.22,-6.19,-4.05,-4.03,-4.08
258.00,1.53,5.62,1.50,5.59,-5.51,-5.23,-6.18,-3.98,-4.01,-4.09
260.58,1.47,5.57,1.45,5.55,-5.50,-5.24,-6.16,-4.03,-4.05,-4.10
263.19,1.37,5.48,1.36,5.47,-5.48,-5.25,-6.13,-4.11,-4.12,-4.11
265.82,1.22,5.35,1.27,5.40,-5.45,-5.26,-6.10,-4.23,-4.18,-4.13
268.48,1.22,5.35,1.23,5.37,-5.44,-5.27,-6.06,-4.22,-4.21,-4.13
271.16,1.26,5.41,1.23,5.38,-5.42,-5.28,-6.02,-4.17,-4.19,-4.15
273.87,1.26,5.42,1.26,5.42,-5.43,-5.28,-5.97,-4.17,-4.17,-4.16
276.61,1.26,5.44,1.26,5.45,-5.44,-5.29,-5.91,-4.18,-4.18,-4.18
279.38,1.26,5.47,1.26,5.46,-5.46,-5.29,-5.85,-4.20,-4.21,-4.21
282.17,1.26,5.47,1.27,5.49,-5.48,-5.30,-5.79,-4.22,-4.21,-4.21
284.99,1.30,5.51,1.32,5.54,-5.50,-5.30,-5.73,-4.20,-4.18,-4.21
287.84,1.36,5.57,1.33,5.55,-5.50,-5.30,-5.66,-4.15,-4.17,-4.21
290.72,1.37,5.60,1.32,5.54,-5.51,-5.30,-5.59,-4.14,-4.19,-4.23
293.63,1.22,5.44,1.27,5.50,-5.50,-5.31,-5.52,-4.28,-4.23,-4.22
296.57,1.21,5.43,1.22,5.45,-5.50,-5.31,-5.45,-4.29,-4.28,-4.22
299.53,1.22,5.45,1.21,5.43,-5.49,-5.31,-5.38,-4.27,-4.29,-4.23
302.53,1.24,5.46,1.24,5.46,-5.48,-5.30,-5.31,-4.24,-4.24,-4.22
305.55,1.25,5.48,1.25,5.48,-5.46,-5.30,-5.25,-4.21,-4.21,-4.23
308.61,1.26,5.48,1.26,5.49,-5.44,-5.30,-5.18,-4.18,-4.18,-4.22
311.69,1.25,5.49,1.23,5.47,-5.42,-5.30,-5.11,-4.18,-4.19,-4.24
314.81,1.19,5.42,1.19,5.43,-5.41,-5.29,-5.05,-4.22,-4.22,-4.23
317.96,1.12,5.37,1.13,5.38,-5.39,-5.29,-4.99,-4.27,-4.26,-4.25
321.14,1.08,5.32,1.09,5.33,-5.37,-5.28,-4.93,-4.29,-4.28,-4.24
324.35,1.07,5.32,1.07,5.32,-5.36,-5.28,-4.87,-4.29,-4.29,-4.25
327.59,1.07,5.31,1.06,5.31,-5.35,-5.27,-4.82,-4.28,-4.29,-4.24
330.87,1.06,5.31,1.06,5.31,-5.33,-5.26,-4.77,-4.27,-4.27,-4.25
334.18,1.06,5.32,1.08,5.33,-5.32,-5.26,-4.72,-4.26,-4.24,-4.26
337.52,1.09,5.34,1.09,5.35,-5.30,-5.25,-4.67,-4.21,-4.21,-4.25
340.90,1.11,5.37,1.09,5.34,-5.28,-5.24,-4.63,-4.17,-4.19,-4.26
344.30,1.05,5.30,1.05,5.30,-5.26,-5.23,-4.60,-4.21,-4.21,-4.25
347.75,0.98,5.22,0.96,5.21,-5.23,-5.22,-4.56,-4.25,-4.27,-4.24
351.23,0.87,5.13,0.89,5.14,-5.19,-5.20,-4.53,-4.32,-4.30,-4.26
354.74,0.82,5.06,0.87,5.12,-5.15,-5.19,-4.50,-4.33,-4.28,-4.24
358.28,0.89,5.13,0.86,5.11,-5.11,-5.18,-4.48,-4.22,-4.25,-4.24
361.87,0.91,5.15,0.86,5.10,-5.08,-5.17,-4.46,-4.17,-4.22,-4.24
365.49,0.81,5.04,0.84,5.07,-5.06,-5.15,-4.44,-4.25,-4.22,-4.23
369.14,0.78,5.00,0.80,5.02,-5.05,-5.14,-4.43,-4.27,-4.25,-4.22
372.83,0.79,5.00,0.78,5.00,-5.04,-5.12,-4.42,-4.25,-4.26,-4.21
376.56,0.80,5.02,0.81,5.02,-5.03,-5.10,-4.41,-4.23,-4.22,-4.22
380.33,0.82,5.04,0.82,5.04,-5.00,-5.09,-4.41,-4.18,-4.18,-4.22
384.13,0.84,5.05,0.82,5.04,-4.98,-5.07,-4.41,-4.14,-4.16,-4.21
387.97,0.78,4.99,0.77,4.99,-4.95,-5.05,-4.41,-4.18,-4.18,-4.21
391.85,0.71,4.93,0.70,4.92,-4.93,-5.03,-4.42,-4.23,-4.23,-4.22
395.77,0.61,4.84,0.63,4.86,-4.91,-5.01,-4.42,-4.30,-4.28,-4.23
399.73,0.59,4.82,0.61,4.84,-4.89,-4.99,-4.43,-4.30,-4.28,-4.23
403.72,0.62,4.84,0.62,4.85,-4.86,-4.97,-4.45,-4.24,-4.25,-4.22
407.76,0.65,4.89,0.62,4.86,-4.84,-4.95,-4.46,-4.19,-4.22,-4.24
411.84,0.61,4.86,0.59,4.84,-4.82,-4.93,-4.48,-4.21,-4.23,-4.25
415.96,0.53,4.78,0.56,4.81,-4.80,-4.90,-4.49,-4.27,-4.25,-4.25
420.12,0.51,4.77,0.53,4.78,-4.78,-4.88,-4.51,-4.27,-4.26,-4.26
424.32,0.53,4.78,0.52,4.76,-4.76,-4.86,-4.53,-4.23,-4.24,-4.25
428.56,0.52,4.75,0.50,4.74,-4.72,-4.83,-4.55,-4.20,-4.22,-4.23
432.85,0.47,4.68,0.46,4.68,-4.68,-4.80,-4.57,-4.21,-4.21,-4.21
437.18,0.41,4.61,0.43,4.63,-4.64,-4.78,-4.59,-4.23,-4.20,-4.20
441.55,0.41,4.58,0.42,4.59,-4.60,-4.75,-4.61,-4.19,-4.19,-4.17
445.96,0.45,4.58,0.42,4.56,-4.57,-4.72,-4.63,-4.12,-4.15,-4.13
450.42,0.43,4.52,0.44,4.53,-4.55,-4.70,-4.64,-4.12,-4.11,-4.09
454.93,0.46,4.50,0.47,4.51,-4.52,-4.67,-4.66,-4.06,-4.05,-4.04
459.48,0.52,4.50,0.52,4.50,-4.50,-4.64,-4.67,-3.98,-3.98,-3.98
464.07,0.58,4.49,0.57,4.49,-4.48,-4.61,-4.68,-3.90,-3.91,-3.91
468.71,0.63,4.49,0.62,4.47,-4.46,-4.58,-4.68,-3.83,-3.85,-3.86
473.40,0.64,4.44,0.65,4.45,-4.44,-4.54,-4.69,-3.80,-3.79,-3.80
478.13,0.66,4.40,0.67,4.42,-4.40,-4.51,-4.69,-3.74,-3.74,-3.74
482.91,0.70,4.39,0.68,4.38,-4.37,-4.48,-4.68,-3.67,-3.69,-3.69
487.74,0.67,4.33,0.68,4.33,-4.33,-4.45,-4.67,-3.66,-3.65,-3.66
492.62,0.67,4.29,0.66,4.28,-4.29,-4.41,-4.66,-3.62,-3.63,-3.62
497.55,0.63,4.21,0.64,4.23,-4.24,-4.38,-4.64,-3.61,-3.61,-3.58
502.52,0.62,4.18,0.64,4.19,-4.21,-4.35,-4.62,-3.59,-3.57,-3.56
507.55,0.64,4.17,0.62,4.16,-4.17,-4.31,-4.59,-3.53,-3.55,-3.53
512.62,0.63,4.15,0.62,4.14,-4.14,-4.27,-4.56,-3.51,-3.53,-3.52
