frequency,raw,error,smoothed,error_smoothed,equalization,parametric_eq,fixed_band_eq,equalized_raw,equalized_smoothed,target
20.00,-46.00,-41.26,-46.00,-41.28,41.28,0.00,18.64,-4.72,-4.72,-4.74
20.20,-45.86,-41.21,-45.86,-41.22,41.22,0.00,18.87,-4.64,-4.64,-4.65
20.40,-45.71,-41.14,-45.72,-41.15,41.15,0.00,19.11,-4.56,-4.57,-4.57
20.61,-45.57,-41.07,-45.57,-41.07,41.07,0.00,19.36,-4.50,-4.50,-4.51
20.81,-45.42,-41.01,-45.43,-41.00,41.00,0.00,19.61,-4.42,-4.43,-4.41
21.02,-45.28,-40.95,-45.28,-40.92,40.92,0.00,19.86,-4.37,-4.36,-4.34
21.23,-45.13,-40.86,-45.13,-40.83,40.83,0.00,20.13,-4.30,-4.30,-4.28
21.44,-44.98,-40.76,-44.98,-40.74,40.74,0.00,20.40,-4.24,-4.24,-4.22
21.66,-44.83,-40.67,-44.83,-40.65,40.65,0.00,20.67,-4.18,-4.18,-4.17
21.87,-44.68,-40.56,-44.68,-40.55,40.55,0.00,20.96,-4.13,-4.13,-4.12
22.09,-44.52,-40.45,-44.53,-40.45,40.45,0.00,21.25,-4.07,-4.07,-4.07
22.31,-44.37,-40.35,-44.37,-40.35,40.35,0.00,21.55,-4.02,-4.02,-4.02
22.54,-44.22,-40.24,-44.22,-40.24,40.24,0.00,21.86,-3.98,-3.98,-3.98
22.76,-44.06,-40.12,-44.06,-40.12,40.12,0.00,22.17,-3.94,-3.94,-3.94
22.99,-43.91,-40.00,-43.90,-40.01,40.01,0.00,22.50,-3.91,-3.90,-3.91
23.22,-43.75,-39.88,-43.75,-39.89,39.89,0.00,22.83,-3.87,-3.86,-3.87
23.45,-43.58,-39.75,-43.59,-39.76,39.76,0.00,23.18,-3.82,-3.82,-3.83
23.69,-43.42,-39.63,-43.43,-39.64,39.64,0.00,23.54,-3.79,-3.79,-3.79
23.92,-43.26,-39.51,-43.26,-39.51,39.51,0.00,23.91,-3.75,-3.75,-3.75
24.16,-43.10,-39.40,-43.10,-39.39,39.39,0.00,24.30,-3.71,-3.72,-3.70
24.40,-42.94,-39.26,-42.94,-39.26,39.26,0.00,24.70,-3.68,-3.68,-3.68
24.65,-42.77,-39.13,-42.77,-39.13,39.13,0.00,25.12,-3.65,-3.65,-3.65
24.89,-42.61,-38.99,-42.61,-39.00,39.00,0.00,25.55,-3.61,-3.61,-3.62
25.14,-42.44,-38.86,-42.44,-38.86,38.86,0.00,26.00,-3.58,-3.58,-3.58
25.39,-42.28,-38.73,-42.28,-38.73,38.73,0.00,26.47,-3.55,-3.55,-3.55
25.65,-42.11,-38.60,-42.11,-38.59,38.59,0.00,26.97,-3.52,-3.52,-3.51
25.91,-41.94,-38.45,-41.94,-38.46,38.46,0.00,27.49,-3.49,-3.48,-3.49
26.16,-41.77,-38.31,-41.77,-38.32,38.32,0.00,28.04,-3.45,-3.45,-3.46
26.43,-41.60,-38.18,-41.60,-38.18,38.18,0.00,28.63,-3.43,-3.42,-3.42
26.69,-41.43,-38.04,-41.43,-38.04,38.04,0.00,29.25,-3.40,-3.40,-3.40
26.96,-41.26,-37.90,-41.26,-37.89,37.89,0.00,29.91,-3.37,-3.37,-3.37
27.23,-41.08,-37.76,-41.09,-37.75,37.75,0.00,30.62,-3.33,-3.34,-3.33
27.50,-40.91,-37.61,-40.91,-37.61,37.61,0.00,31.40,-3.31,-3.31,-3.30
27.77,-40.73,-37.45,-40.74,-37.46,37.46,0.00,32.24,-3.27,-3.28,-3.28
28.05,-40.56,-37.32,-40.56,-37.32,37.32,0.00,33.17,-3.25,-3.25,-3.24
28.33,-40.38,-37.16,-40.38,-37.17,37.17,0.00,34.22,-3.21,-3.22,-3.22
28.62,-40.20,-37.01,-40.20,-37.02,37.02,0.00,35.41,-3.19,-3.19,-3.20
28.90,-40.02,-36.86,-40.02,-36.87,36.87,0.00,36.81,-3.15,-3.16,-3.16
29.19,-39.84,-36.70,-39.84,-36.71,36.71,0.00,38.54,-3.13,-3.13,-3.14
29.48,-39.66,-36.57,-39.66,-36.55,36.55,0.00,40.85,-3.11,-3.10,-3.09
29.78,-39.48,-36.41,-39.47,-36.40,36.40,0.00,44.57,-3.09,-3.07,-3.07
30.08,-39.29,-36.25,-39.28,-36.24,36.24,0.00,,-3.06,-3.05,-3.05
30.38,-39.10,-36.09,-39.10,-36.07,36.07,0.00,,-3.03,-3.02,-3.02
30.68,-38.90,-35.91,-38.90,-35.91,35.91,0.00,,-2.99,-2.99,-2.99
30.99,-38.71,-35.74,-38.71,-35.75,35.75,0.00,,-2.97,-2.97,-2.97
31.30,-38.51,-35.57,-38.52,-35.58,35.58,0.00,,-2.94,-2.94,-2.94
31.61,-38.32,-35.41,-38.33,-35.41,35.41,0.00,,-2.91,-2.92,-2.92
31.93,-38.13,-35.23,-38.13,-35.24,35.24,0.00,,-2.90,-2.90,-2.90
32.24,-37.93,-35.05,-37.94,-35.06,35.06,0.00,,-2.86,-2.87,-2.88
32.57,-37.74,-34.89,-37.74,-34.89,34.89,0.00,56.51,-2.85,-2.85,-2.86
32.89,-37.54,-34.71,-37.55,-34.71,34.71,0.00,44.63,-2.83,-2.83,-2.83
33.22,-37.35,-34.54,-37.35,-34.54,34.54,0.00,41.41,-2.81,-2.81,-2.81
33.55,-37.16,-34.37,-37.16,-34.36,34.36,0.00,39.39,-2.80,-2.80,-2.79
33.89,-36.96,-34.17,-36.96,-34.18,34.18,0.00,37.88,-2.78,-2.78,-2.79
34.23,-36.77,-34.01,-36.77,-34.00,34.00,0.00,36.68,-2.77,-2.77,-2.76
34.57,-36.58,-33.83,-36.58,-33.82,33.82,0.00,35.68,-2.76,-2.76,-2.75
34.92,-36.39,-33.65,-36.39,-33.64,33.64,0.00,34.82,-2.75,-2.75,-2.75
35.27,-36.19,-33.46,-36.19,-33.46,33.46,0.00,34.07,-2.74,-2.74,-2.73
35.62,-36.00,-33.27,-36.00,-33.27,33.27,0.00,33.41,-2.73,-2.73,-2.74
35.97,-35.80,-33.07,-35.81,-33.09,33.09,0.00,32.82,-2.71,-2.72,-2.73
36.33,-35.61,-32.90,-35.62,-32.90,32.90,0.00,32.28,-2.71,-2.72,-2.71
36.70,-35.43,-32.71,-35.43,-32.71,32.71,0.00,31.80,-2.72,-2.72,-2.72
37.06,-35.24,-32.52,-35.24,-32.52,32.52,0.00,31.36,-2.72,-2.72,-2.72
37.43,-35.05,-32.33,-35.05,-32.33,32.33,0.00,30.96,-2.72,-2.72,-2.72
37.81,-34.86,-32.14,-34.86,-32.14,32.14,0.00,30.59,-2.72,-2.72,-2.72
38.19,-34.67,-31.95,-34.67,-31.95,31.95,0.00,30.26,-2.73,-2.73,-2.73
38.57,-34.49,-31.77,-34.49,-31.76,31.76,0.00,29.95,-2.74,-2.73,-2.72
38.95,-34.30,-31.57,-34.30,-31.57,31.57,0.00,29.66,-2.73,-2.73,-2.73
39.34,-34.12,-31.38,-34.12,-31.38,31.38,0.00,29.40,-2.74,-2.74,-2.74
39.74,-33.93,-31.18,-33.94,-31.19,31.19,0.00,29.16,-2.74,-2.74,-2.75
40.14,-33.75,-31.00,-33.76,-31.01,31.01,0.00,28.94,-2.75,-2.75,-2.76
40.54,-33.57,-30.81,-33.58,-30.82,30.82,0.00,28.74,-2.75,-2.76,-2.76
40.94,-33.40,-30.63,-33.40,-30.63,30.63,0.00,28.55,-2.77,-2.77,-2.77
41.35,-33.22,-30.44,-33.23,-30.45,30.45,0.00,28.39,-2.77,-2.78,-2.78
41.76,-33.06,-30.28,-33.06,-30.27,30.27,0.00,28.23,-2.79,-2.79,-2.78
42.18,-32.89,-30.10,-32.89,-30.09,30.09,0.00,28.10,-2.80,-2.80,-2.79
42.60,-32.72,-29.91,-32.72,-29.91,29.91,0.00,27.98,-2.81,-2.81,-2.81
43.03,-32.55,-29.74,-32.55,-29.73,29.73,0.00,27.87,-2.82,-2.82,-2.81
43.46,-32.39,-29.57,-32.39,-29.56,29.56,0.00,27.77,-2.83,-2.83,-2.83
43.90,-32.23,-29.39,-32.23,-29.39,29.39,0.00,27.69,-2.85,-2.84,-2.84
44.33,-32.07,-29.21,-32.08,-29.22,29.22,0.00,27.62,-2.85,-2.86,-2.86
44.78,-31.92,-29.05,-31.92,-29.05,29.05,0.00,27.56,-2.87,-2.87,-2.87
45.23,-31.76,-28.87,-31.77,-28.89,28.89,0.00,27.52,-2.88,-2.88,-2.89
45.68,-31.61,-28.71,-31.62,-28.72,28.72,0.00,27.49,-2.89,-2.89,-2.90
46.13,-31.46,-28.55,-31.47,-28.56,28.56,0.00,27.47,-2.90,-2.91,-2.91
46.60,-31.31,-28.40,-31.32,-28.40,28.40,0.00,27.46,-2.91,-2.92,-2.91
47.06,-31.16,-28.24,-31.17,-28.24,28.24,0.00,27.46,-2.92,-2.93,-2.93
47.53,-31.02,-28.08,-31.02,-28.08,28.08,0.00,27.47,-2.94,-2.94,-2.94
48.01,-30.88,-27.94,-30.88,-27.93,27.93,0.00,27.49,-2.96,-2.95,-2.94
48.49,-30.73,-27.78,-30.73,-27.77,27.77,0.00,27.52,-2.97,-2.96,-2.95
48.97,-30.58,-27.62,-30.58,-27.61,27.61,0.00,27.57,-2.97,-2.97,-2.96
49.46,-30.43,-27.44,-30.42,-27.45,27.45,0.00,27.62,-2.98,-2.97,-2.99
49.96,-30.27,-27.27,-30.27,-27.29,27.29,0.00,27.69,-2.99,-2.98,-3.00
50.46,-30.11,-27.12,-30.11,-27.12,27.12,0.00,27.76,-2.99,-2.99,-3.00
50.96,-29.95,-26.96,-29.95,-26.95,26.95,0.00,27.84,-3.00,-2.99,-2.99
51.47,-29.79,-26.79,-29.78,-26.78,26.78,0.00,27.94,-3.01,-3.00,-3.01
51.99,-29.62,-26.61,-29.61,-26.61,26.61,0.00,28.04,-3.02,-3.01,-3.01
52.51,-29.44,-26.43,-29.44,-26.43,26.43,0.00,28.15,-3.02,-3.02,-3.01
53.03,-29.26,-26.25,-29.27,-26.24,26.24,0.00,28.26,-3.02,-3.02,-3.02
53.56,-29.08,-26.06,-29.08,-26.05,26.05,0.00,28.38,-3.03,-3.03,-3.02
54.10,-28.90,-25.87,-28.90,-25.86,25.86,0.00,28.51,-3.04,-3.04,-3.03
54.64,-28.71,-25.66,-28.71,-25.66,25.66,0.00,28.64,-3.05,-3.05,-3.05
55.18,-28.52,-25.46,-28.52,-25.46,25.46,0.00,28.77,-3.06,-3.06,-3.06
55.74,-28.33,-25.25,-28.32,-25.25,25.25,0.00,28.91,-3.08,-3.07,-3.08
56.29,-28.13,-25.04,-28.13,-25.03,25.03,0.00,29.04,-3.10,-3.09,-3.09
56.86,-27.93,-24.82,-27.93,-24.82,24.82,0.00,29.16,-3.12,-3.11,-3.11
57.42,-27.73,-24.60,-27.72,-24.60,24.60,0.00,29.28,-3.14,-3.13,-3.13
58.00,-27.52,-24.37,-27.52,-24.37,24.37,0.00,29.38,-3.15,-3.15,-3.15
58.58,-27.31,-24.14,-27.31,-24.14,24.14,0.00,29.47,-3.17,-3.17,-3.17
59.16,-27.10,-23.91,-27.11,-23.91,23.91,0.00,29.54,-3.19,-3.20,-3.19
59.76,-26.89,-23.68,-26.90,-23.68,23.68,0.00,29.59,-3.22,-3.23,-3.21
60.35,-26.69,-23.44,-26.70,-23.44,23.44,0.00,29.61,-3.25,-3.25,-3.25
60.96,-26.49,-23.23,-26.49,-23.21,23.21,0.00,29.60,-3.28,-3.28,-3.26
61.57,-26.29,-22.98,-26.29,-22.98,22.98,0.00,29.56,-3.31,-3.31,-3.31
62.18,-26.09,-22.74,-26.09,-22.75,22.75,0.00,29.48,-3.34,-3.34,-3.35
62.80,-25.88,-22.51,-25.89,-22.52,22.52,0.00,29.37,-3.36,-3.37,-3.37
63.43,-25.69,-22.28,-25.69,-22.30,22.30,0.00,29.22,-3.39,-3.39,-3.41
64.07,-25.49,-22.06,-25.50,-22.08,22.08,0.00,29.04,-3.41,-3.42,-3.43
64.71,-25.30,-21.85,-25.31,-21.87,21.87,0.00,28.82,-3.44,-3.44,-3.45
65.35,-25.12,-21.65,-25.12,-21.66,21.66,0.00,28.58,-3.46,-3.46,-3.47
66.01,-24.93,-21.44,-24.93,-21.45,21.45,0.00,28.31,-3.48,-3.48,-3.49
66.67,-24.74,-21.24,-24.75,-21.24,21.24,0.00,28.01,-3.50,-3.50,-3.50
67.33,-24.56,-21.04,-24.56,-21.04,21.04,0.00,27.70,-3.52,-3.52,-3.52
68.01,-24.39,-20.86,-24.38,-20.85,20.85,0.00,27.37,-3.54,-3.54,-3.53
68.69,-24.21,-20.66,-24.20,-20.66,20.66,0.00,27.03,-3.56,-3.55,-3.55
69.37,-24.04,-20.48,-24.03,-20.47,20.47,0.00,26.68,-3.57,-3.56,-3.56
70.07,-23.86,-20.28,-23.86,-20.28,20.28,0.00,26.32,-3.58,-3.58,-3.58
70.77,-23.69,-20.11,-23.69,-20.09,20.09,0.00,25.97,-3.60,-3.59,-3.58
71.48,-23.51,-19.91,-23.52,-19.91,19.91,0.00,25.61,-3.60,-3.61,-3.60
72.19,-23.34,-19.72,-23.35,-19.73,19.73,0.00,25.25,-3.62,-3.63,-3.62
72.91,-23.18,-19.54,-23.19,-19.54,19.54,0.00,24.90,-3.64,-3.64,-3.64
73.64,-23.02,-19.36,-23.03,-19.37,19.37,0.00,24.55,-3.65,-3.66,-3.66
74.38,-22.86,-19.19,-22.87,-19.19,19.19,0.00,24.21,-3.67,-3.68,-3.68
75.12,-22.72,-19.02,-22.72,-19.02,19.02,0.00,23.87,-3.71,-3.70,-3.70
75.87,-22.57,-18.85,-22.56,-18.84,18.84,0.00,23.54,-3.73,-3.72,-3.72
76.63,-22.42,-18.68,-22.42,-18.68,18.68,0.00,23.21,-3.75,-3.74,-3.74
77.40,-22.27,-18.51,-22.27,-18.51,18.51,0.00,22.90,-3.76,-3.76,-3.77
78.17,-22.13,-18.34,-22.13,-18.35,18.35,0.00,22.59,-3.78,-3.78,-3.80
78.95,-21.99,-18.19,-21.99,-18.19,18.19,0.00,22.29,-3.80,-3.80,-3.80
79.74,-21.86,-18.04,-21.86,-18.04,18.04,0.00,22.00,-3.82,-3.82,-3.82
80.54,-21.73,-17.89,-21.73,-17.89,17.89,0.00,21.71,-3.84,-3.83,-3.84
81.35,-21.60,-17.75,-21.60,-17.75,17.75,0.00,21.44,-3.85,-3.85,-3.86
82.16,-21.47,-17.60,-21.47,-17.61,17.61,0.00,21.17,-3.86,-3.86,-3.87
82.98,-21.34,-17.47,-21.35,-17.47,17.47,0.00,20.91,-3.87,-3.87,-3.88
83.81,-21.23,-17.34,-21.23,-17.34,17.34,0.00,20.66,-3.89,-3.89,-3.89
84.65,-21.11,-17.20,-21.11,-17.21,17.21,0.00,20.42,-3.90,-3.90,-3.91
85.50,-20.99,-17.08,-21.00,-17.09,17.09,0.00,20.19,-3.90,-3.91,-3.91
86.35,-20.88,-16.96,-20.89,-16.97,16.97,0.00,19.96,-3.91,-3.92,-3.92
87.22,-20.79,-16.86,-20.79,-16.85,16.85,0.00,19.74,-3.94,-3.93,-3.94
88.09,-20.69,-16.75,-20.69,-16.74,16.74,0.00,19.54,-3.95,-3.95,-3.95
88.97,-20.59,-16.63,-20.59,-16.63,16.63,0.00,19.33,-3.97,-3.97,-3.96
89.86,-20.50,-16.52,-20.50,-16.51,16.51,0.00,19.14,-3.99,-3.99,-3.98
90.76,-20.40,-16.39,-20.41,-16.40,16.40,0.00,18.95,-4.00,-4.01,-4.01
91.66,-20.31,-16.28,-20.33,-16.29,16.29,0.00,18.77,-4.03,-4.04,-4.04
92.58,-20.24,-16.16,-20.25,-16.17,16.17,0.00,18.60,-4.07,-4.08,-4.08
93.51,-20.17,-16.07,-20.16,-16.05,16.05,0.00,18.44,-4.12,-4.12,-4.10
94.44,-20.10,-15.95,-20.09,-15.93,15.93,0.00,18.28,-4.17,-4.16,-4.15
95.39,-20.03,-15.84,-20.01,-15.81,15.81,0.00,18.13,-4.22,-4.21,-4.19
96.34,-19.95,-15.70,-19.94,-15.68,15.68,0.00,17.98,-4.27,-4.26,-4.25
97.30,-19.88,-15.57,-19.88,-15.56,15.56,0.00,17.84,-4.32,-4.31,-4.32
98.28,-19.80,-15.43,-19.81,-15.44,15.44,0.00,17.71,-4.37,-4.37,-4.37
99.26,-19.74,-15.30,-19.75,-15.31,15.31,0.00,17.58,-4.43,-4.44,-4.44
100.25,-19.68,-15.18,-19.69,-15.19,15.19,0.00,17.46,-4.50,-4.50,-4.51
101.25,-19.61,-15.04,-19.63,-15.06,15.06,0.00,17.34,-4.55,-4.57,-4.57
102.27,-19.55,-14.91,-19.58,-14.94,14.94,0.00,17.22,-4.62,-4.64,-4.64
103.29,-19.52,-14.80,-19.52,-14.81,14.81,0.00,17.11,-4.71,-4.71,-4.72
104.32,-19.48,-14.71,-19.46,-14.68,14.68,0.00,17.01,-4.80,-4.78,-4.78
105.37,-19.42,-14.57,-19.41,-14.56,14.56,0.00,16.91,-4.86,-4.85,-4.85
106.42,-19.37,-14.45,-19.36,-14.44,14.44,0.00,16.81,-4.93,-4.92,-4.92
107.48,-19.32,-14.33,-19.31,-14.32,14.32,0.00,16.71,-5.00,-4.99,-4.99
108.56,-19.27,-14.21,-19.26,-14.20,14.20,0.00,16.62,-5.07,-5.05,-5.06
109.64,-19.21,-14.09,-19.21,-14.09,14.09,0.00,16.52,-5.12,-5.12,-5.12
110.74,-19.15,-13.97,-19.16,-13.98,13.98,0.00,16.43,-5.17,-5.19,-5.18
111.85,-19.10,-13.86,-19.12,-13.87,13.87,0.00,16.34,-5.23,-5.25,-5.24
112.97,-19.05,-13.74,-19.07,-13.76,13.76,0.00,16.24,-5.29,-5.31,-5.32
114.10,-19.01,-13.65,-19.02,-13.66,13.66,0.00,16.15,-5.36,-5.37,-5.36
115.24,-18.97,-13.54,-18.98,-13.55,13.55,0.00,16.05,-5.42,-5.42,-5.43
116.39,-18.94,-13.46,-18.93,-13.46,13.46,0.00,15.95,-5.49,-5.47,-5.48
117.55,-18.90,-13.37,-18.89,-13.36,13.36,0.00,15.85,-5.54,-5.52,-5.53
118.73,-18.85,-13.27,-18.84,-13.27,13.27,0.00,15.75,-5.58,-5.57,-5.59
119.92,-18.79,-13.17,-18.80,-13.18,13.18,0.00,15.64,-5.61,-5.62,-5.62
121.12,-18.75,-13.09,-18.76,-13.10,13.10,0.00,15.53,-5.66,-5.66,-5.66
122.33,-18.72,-13.01,-18.71,-13.01,13.01,0.00,15.42,-5.71,-5.70,-5.71
123.55,-18.68,-12.94,-18.67,-12.93,12.93,0.00,15.30,-5.76,-5.75,-5.74
124.79,-18.63,-12.85,-18.63,-12.84,12.84,0.00,15.17,-5.79,-5.78,-5.78
126.03,-18.57,-12.76,-18.58,-12.76,12.76,0.00,15.04,-5.81,-5.82,-5.81
127.29,-18.54,-12.69,-18.54,-12.68,12.68,0.00,14.91,-5.87,-5.86,-5.85
128.57,-18.50,-12.60,-18.49,-12.59,12.59,0.00,14.77,-5.91,-5.90,-5.90
129.85,-18.45,-12.52,-18.45,-12.51,12.51,0.00,14.62,-5.94,-5.94,-5.93
131.15,-18.39,-12.42,-18.40,-12.43,12.43,0.00,14.47,-5.96,-5.97,-5.97
132.46,-18.35,-12.33,-18.36,-12.35,12.35,0.00,14.32,-6.00,-6.01,-6.02
133.79,-18.31,-12.27,-18.32,-12.27,12.27,0.00,14.16,-6.05,-6.05,-6.05
135.12,-18.26,-12.17,-18.27,-12.18,12.18,0.00,14.01,-6.08,-6.09,-6.09
136.48,-18.23,-12.11,-18.23,-12.10,12.10,0.00,13.84,-6.13,-6.13,-6.13
137.84,-18.19,-12.02,-18.19,-12.01,12.01,0.00,13.68,-6.18,-6.17,-6.17
139.22,-18.17,-11.95,-18.15,-11.93,11.93,0.00,13.51,-6.24,-6.21,-6.22
140.61,-18.13,-11.87,-18.10,-11.85,11.85,0.00,13.34,-6.28,-6.26,-6.26
142.02,-18.06,-11.77,-18.06,-11.76,11.76,0.00,13.18,-6.30,-6.30,-6.30
143.44,-18.02,-11.69,-18.03,-11.68,11.68,0.00,13.01,-6.34,-6.34,-6.34
144.87,-17.98,-11.60,-17.99,-11.61,11.61,0.00,12.84,-6.38,-6.39,-6.39
146.32,-17.94,-11.51,-17.96,-11.53,11.53,0.00,12.67,-6.41,-6.43,-6.43
147.78,-17.91,-11.44,-17.93,-11.45,11.45,0.00,12.51,-6.46,-6.48,-6.47
149.26,-17.89,-11.37,-17.90,-11.38,11.38,0.00,12.34,-6.52,-6.52,-6.52
150.75,-17.86,-11.29,-17.87,-11.30,11.30,0.00,12.18,-6.56,-6.57,-6.57
152.26,-17.84,-11.22,-17.85,-11.23,11.23,0.00,12.02,-6.61,-6.62,-6.62
153.78,-17.81,-11.15,-17.83,-11.16,11.16,0.00,11.86,-6.65,-6.67,-6.66
155.32,-17.80,-11.09,-17.81,-11.09,11.09,0.00,11.71,-6.71,-6.72,-6.71
156.88,-17.79,-11.04,-17.79,-11.03,11.03,0.00,11.56,-6.77,-6.77,-6.76
158.44,-17.78,-10.97,-17.78,-10.96,10.96,0.00,11.41,-6.82,-6.82,-6.82
160.03,-17.76,-10.90,-17.76,-10.89,10.89,0.00,11.27,-6.87,-6.87,-6.87
161.63,-17.75,-10.83,-17.74,-10.82,10.82,0.00,11.13,-6.93,-6.92,-6.92
163.24,-17.74,-10.77,-17.72,-10.75,10.75,0.00,10.99,-6.99,-6.97,-6.97
164.88,-17.71,-10.69,-17.69,-10.68,10.68,0.00,10.86,-7.03,-7.01,-7.02
166.53,-17.69,-10.63,-17.67,-10.60,10.60,0.00,10.74,-7.09,-7.06,-7.06
168.19,-17.66,-10.55,-17.64,-10.53,10.53,0.00,10.62,-7.13,-7.11,-7.11
169.87,-17.62,-10.47,-17.62,-10.46,10.46,0.00,10.50,-7.16,-7.15,-7.15
171.57,-17.59,-10.40,-17.59,-10.40,10.40,0.00,10.39,-7.20,-7.20,-7.20
173.29,-17.55,-10.31,-17.57,-10.33,10.33,0.00,10.28,-7.22,-7.24,-7.24
175.02,-17.51,-10.23,-17.55,-10.27,10.27,0.00,10.18,-7.24,-7.28,-7.28
176.77,-17.49,-10.17,-17.53,-10.21,10.21,0.00,10.08,-7.28,-7.32,-7.32
178.54,-17.48,-10.12,-17.51,-10.16,10.16,0.00,9.99,-7.32,-7.35,-7.36
180.32,-17.47,-10.08,-17.49,-10.11,10.11,0.00,9.90,-7.37,-7.38,-7.39
182.13,-17.46,-10.05,-17.47,-10.06,10.06,0.00,9.82,-7.41,-7.41,-7.41
183.95,-17.45,-10.01,-17.45,-10.01,10.01,0.00,9.74,-7.44,-7.44,-7.44
185.79,-17.45,-9.98,-17.43,-9.97,9.97,0.00,9.66,-7.49,-7.46,-7.47
187.65,-17.43,-9.94,-17.41,-9.93,9.93,0.00,9.59,-7.51,-7.49,-7.49
189.52,-17.42,-9.91,-17.40,-9.89,9.89,0.00,9.53,-7.53,-7.51,-7.51
191.42,-17.40,-9.87,-17.38,-9.85,9.85,0.00,9.47,-7.55,-7.53,-7.53
193.33,-17.37,-9.83,-17.36,-9.81,9.81,0.00,9.41,-7.56,-7.55,-7.54
195.27,-17.33,-9.77,-17.34,-9.77,9.77,0.00,9.36,-7.56,-7.57,-7.56
197.22,-17.30,-9.72,-17.31,-9.73,9.73,0.00,9.31,-7.57,-7.58,-7.58
199.19,-17.27,-9.66,-17.28,-9.68,9.68,0.00,9.26,-7.59,-7.60,-7.61
201.18,-17.25,-9.63,-17.25,-9.64,9.64,0.00,9.22,-7.61,-7.62,-7.62
203.19,-17.23,-9.60,-17.22,-9.59,9.59,0.00,9.18,-7.64,-7.63,-7.63
205.23,-17.20,-9.55,-17.19,-9.55,9.55,0.00,9.15,-7.66,-7.65,-7.65
207.28,-17.16,-9.50,-17.16,-9.50,9.50,0.00,9.12,-7.66,-7.66,-7.66
209.35,-17.13,-9.46,-17.13,-9.46,9.46,0.00,9.08,-7.68,-7.68,-7.67
211.44,-17.09,-9.39,-17.11,-9.41,9.41,0.00,9.06,-7.68,-7.69,-7.70
213.56,-17.06,-9.35,-17.08,-9.37,9.37,0.00,9.03,-7.69,-7.71,-7.71
215.69,-17.03,-9.32,-17.05,-9.33,9.33,0.00,9.00,-7.71,-7.72,-7.71
217.85,-17.01,-9.27,-17.02,-9.28,9.28,0.00,8.98,-7.73,-7.74,-7.74
220.03,-16.99,-9.24,-16.99,-9.23,9.23,0.00,8.95,-7.76,-7.75,-7.76
222.23,-16.97,-9.19,-16.96,-9.19,9.19,0.00,8.93,-7.78,-7.77,-7.78
224.45,-16.95,-9.17,-16.92,-9.14,9.14,0.00,8.90,-7.81,-7.79,-7.78
226.70,-16.91,-9.11,-16.89,-9.09,9.09,0.00,8.87,-7.82,-7.80,-7.80
228.96,-16.87,-9.06,-16.86,-9.04,9.04,0.00,8.84,-7.83,-7.82,-7.81
231.25,-16.84,-9.02,-16.83,-9.00,9.00,0.00,8.81,-7.85,-7.84,-7.82
233.57,-16.79,-8.95,-16.80,-8.95,8.95,0.00,8.78,-7.84,-7.85,-7.85
235.90,-16.74,-8.87,-16.77,-8.90,8.90,0.00,8.75,-7.84,-7.87,-7.87
238.26,-16.72,-8.83,-16.74,-8.85,8.85,0.00,8.71,-7.87,-7.89,-7.89
240.64,-16.69,-8.78,-16.71,-8.81,8.81,0.00,8.66,-7.89,-7.90,-7.91
243.05,-16.67,-8.75,-16.67,-8.76,8.76,0.00,8.62,-7.92,-7.91,-7.92
245.48,-16.65,-8.72,-16.64,-8.71,8.71,0.00,8.57,-7.94,-7.93,-7.93
247.93,-16.62,-8.68,-16.60,-8.67,8.67,0.00,8.51,-7.95,-7.94,-7.94
250.41,-16.59,-8.63,-16.57,-8.63,8.63,0.00,8.46,-7.96,-7.94,-7.96
252.92,-16.54,-8.59,-16.54,-8.59,8.59,0.00,8.39,-7.95,-7.95,-7.95
255.45,-16.51,-8.56,-16.50,-8.56,8.56,0.00,8.33,-7.95,-7.95,-7.95
258.00,-16.47,-8.53,-16.47,-8.53,8.53,0.00,8.25,-7.94,-7.94,-7.95
260.58,-16.42,-8.48,-16.44,-8.50,8.50,0.00,8.18,-7.92,-7.94,-7.94
263.19,-16.38,-8.45,-16.41,-8.48,8.48,0.00,8.10,-7.90,-7.93,-7.93
265.82,-16.35,-8.42,-16.37,-8.45,8.45,0.00,8.02,-7.90,-7.92,-7.93
268.48,-16.33,-8.43,-16.34,-8.43,8.43,0.00,7.93,-7.90,-7.91,-7.91
271.16,-16.32,-8.43,-16.30,-8.40,8.40,0.00,7.84,-7.92,-7.90,-7.89
273.87,-16.27,-8.39,-16.27,-8.38,8.38,0.00,7.75,-7.89,-7.88,-7.88
276.61,-16.24,-8.38,-16.23,-8.36,8.36,0.00,7.66,-7.88,-7.87,-7.86
279.38,-16.20,-8.35,-16.20,-8.34,8.34,0.00,7.56,-7.86,-7.86,-7.85
282.17,-16.16,-8.32,-16.16,-8.32,8.32,0.00,7.47,-7.84,-7.84,-7.84
284.99,-16.12,-8.30,-16.12,-8.29,8.29,0.00,7.37,-7.83,-7.83,-7.83
287.84,-16.06,-8.25,-16.08,-8.27,8.27,0.00,7.28,-7.79,-7.81,-7.81
290.72,-16.01,-8.23,-16.04,-8.24,8.24,0.00,7.18,-7.77,-7.79,-7.79
293.63,-15.98,-8.20,-15.99,-8.21,8.21,0.00,7.08,-7.77,-7.78,-7.78
296.57,-15.94,-8.19,-15.93,-8.18,8.18,0.00,6.99,-7.76,-7.76,-7.76
299.53,-15.90,-8.16,-15.88,-8.14,8.14,0.00,6.89,-7.76,-7.74,-7.74
302.53,-15.83,-8.10,-15.81,-8.09,8.09,0.00,6.80,-7.74,-7.72,-7.74
305.55,-15.76,-8.06,-15.75,-8.05,8.05,0.00,6.71,-7.71,-7.70,-7.70
308.61,-15.68,-8.00,-15.68,-8.00,8.00,0.00,6.62,-7.69,-7.68,-7.68
311.69,-15.60,-7.94,-15.60,-7.94,7.94,0.00,6.53,-7.66,-7.66,-7.66
314.81,-15.53,-7.91,-15.52,-7.89,7.89,0.00,6.45,-7.65,-7.64,-7.62
317.96,-15.44,-7.84,-15.44,-7.82,7.82,0.00,6.37,-7.62,-7.62,-7.61
321.14,-15.35,-7.76,-15.35,-7.76,7.76,0.00,6.29,-7.59,-7.59,-7.59
324.35,-15.25,-7.68,-15.26,-7.69,7.69,0.00,6.21,-7.56,-7.57,-7.57
327.59,-15.14,-7.59,-15.16,-7.61,7.61,0.00,6.14,-7.53,-7.55,-7.55
330.87,-15.06,-7.53,-15.06,-7.54,7.54,0.00,6.07,-7.53,-7.53,-7.53
334.18,-14.95,-7.45,-14.96,-7.46,7.46,0.00,6.01,-7.50,-7.50,-7.50
337.52,-14.84,-7.35,-14.85,-7.38,7.38,0.00,5.95,-7.47,-7.48,-7.49
340.90,-14.75,-7.29,-14.75,-7.29,7.29,0.00,5.89,-7.46,-7.46,-7.46
344.30,-14.64,-7.21,-14.63,-7.20,7.20,0.00,5.83,-7.44,-7.43,-7.43
347.75,-14.53,-7.12,-14.52,-7.10,7.10,0.00,5.78,-7.43,-7.41,-7.42
351.23,-14.40,-7.01,-14.39,-7.01,7.01,0.00,5.74,-7.40,-7.39,-7.39
354.74,-14.29,-6.93,-14.27,-6.91,6.91,0.00,5.70,-7.39,-7.36,-7.36
