frequency,raw,error,smoothed,error_smoothed,equalization,parametric_eq,fixed_band_eq,equalized_raw,equalized_smoothed,target
20.00,16.66,8.98,16.67,8.97,-8.97,-8.93,-4.14,7.69,7.70,7.68
20.20,16.64,8.96,16.64,8.95,-8.95,-8.91,-4.25,7.69,7.69,7.68
20.40,16.61,8.93,16.61,8.93,-8.93,-8.89,-4.37,7.68,7.68,7.68
20.61,16.59,8.91,16.59,8.91,-8.91,-8.87,-4.48,7.68,7.67,7.68
20.81,16.57,8.89,16.56,8.90,-8.90,-8.85,-4.60,7.67,7.66,7.68
21.02,16.54,8.86,16.54,8.88,-8.88,-8.83,-4.72,7.66,7.65,7.68
21.23,16.52,8.86,16.51,8.87,-8.87,-8.81,-4.85,7.65,7.64,7.66
21.44,16.49,8.84,16.49,8.86,-8.86,-8.79,-4.98,7.63,7.63,7.65
21.66,16.47,8.84,16.46,8.85,-8.85,-8.77,-5.11,7.62,7.61,7.63
21.87,16.44,8.83,16.44,8.84,-8.84,-8.76,-5.25,7.60,7.60,7.61
22.09,16.42,8.82,16.41,8.83,-8.83,-8.74,-5.39,7.59,7.58,7.60
22.31,16.39,8.82,16.39,8.82,-8.82,-8.73,-5.54,7.57,7.57,7.57
22.54,16.36,8.81,16.36,8.82,-8.82,-8.71,-5.68,7.54,7.55,7.55
22.76,16.34,8.81,16.34,8.82,-8.82,-8.70,-5.84,7.52,7.52,7.53
22.99,16.32,8.82,16.32,8.82,-8.82,-8.68,-5.99,7.50,7.50,7.50
23.22,16.29,8.82,16.29,8.82,-8.82,-8.67,-6.15,7.47,7.48,7.47
23.45,16.27,8.83,16.27,8.82,-8.82,-8.66,-6.31,7.45,7.45,7.44
23.69,16.25,8.82,16.25,8.82,-8.82,-8.65,-6.48,7.43,7.43,7.43
23.92,16.23,8.82,16.23,8.82,-8.82,-8.63,-6.65,7.41,7.41,7.41
24.16,16.22,8.82,16.21,8.82,-8.82,-8.62,-6.83,7.40,7.39,7.40
24.40,16.19,8.81,16.19,8.82,-8.82,-8.61,-7.00,7.37,7.37,7.38
24.65,16.17,8.81,16.17,8.82,-8.82,-8.60,-7.19,7.35,7.35,7.36
24.89,16.15,8.81,16.15,8.82,-8.82,-8.59,-7.37,7.33,7.34,7.34
25.14,16.14,8.81,16.14,8.82,-8.82,-8.58,-7.56,7.32,7.32,7.33
25.39,16.12,8.81,16.12,8.81,-8.81,-8.57,-7.74,7.30,7.30,7.31
25.65,16.10,8.80,16.10,8.81,-8.81,-8.57,-7.94,7.29,7.29,7.30
25.91,16.09,8.82,16.08,8.81,-8.81,-8.56,-8.13,7.28,7.27,7.27
26.16,16.07,8.81,16.06,8.81,-8.81,-8.55,-8.32,7.26,7.26,7.26
26.43,16.05,8.80,16.05,8.80,-8.80,-8.54,-8.51,7.24,7.24,7.25
26.69,16.03,8.81,16.03,8.80,-8.80,-8.54,-8.71,7.23,7.23,7.22
26.96,16.01,8.80,16.01,8.80,-8.80,-8.53,-8.90,7.21,7.21,7.21
27.23,15.99,8.79,15.99,8.80,-8.80,-8.53,-9.09,7.19,7.20,7.20
27.50,15.97,8.78,15.97,8.79,-8.79,-8.52,-9.27,7.17,7.18,7.19
27.77,15.95,8.78,15.96,8.79,-8.79,-8.51,-9.46,7.16,7.17,7.17
28.05,15.94,8.78,15.94,8.78,-8.78,-8.51,-9.63,7.16,7.15,7.16
28.33,15.92,8.78,15.92,8.78,-8.78,-8.50,-9.80,7.14,7.14,7.14
28.62,15.90,8.77,15.90,8.77,-8.77,-8.50,-9.96,7.13,7.13,7.13
28.90,15.88,8.77,15.88,8.76,-8.76,-8.49,-10.11,7.12,7.11,7.11
29.19,15.85,8.76,15.85,8.75,-8.75,-8.49,-10.25,7.09,7.10,7.09
29.48,15.84,8.75,15.83,8.75,-8.75,-8.49,-10.38,7.09,7.09,7.09
29.78,15.81,8.73,15.81,8.74,-8.74,-8.48,-10.49,7.07,7.07,7.08
30.08,15.79,8.72,15.78,8.73,-8.73,-8.48,-10.59,7.06,7.06,7.07
30.38,15.76,8.71,15.76,8.72,-8.72,-8.48,-10.67,7.04,7.04,7.05
30.68,15.73,8.69,15.73,8.70,-8.70,-8.47,-10.74,7.02,7.03,7.04
30.99,15.71,8.70,15.71,8.69,-8.69,-8.47,-10.78,7.02,7.01,7.01
31.30,15.68,8.68,15.68,8.68,-8.68,-8.46,-10.81,7.00,7.00,7.00
31.61,15.65,8.66,15.65,8.67,-8.67,-8.46,-10.83,6.98,6.98,6.99
31.93,15.62,8.65,15.62,8.66,-8.66,-8.46,-10.82,6.96,6.96,6.97
32.24,15.58,8.64,15.58,8.64,-8.64,-8.45,-10.80,6.94,6.94,6.94
32.57,15.55,8.63,15.55,8.63,-8.63,-8.45,-10.76,6.92,6.92,6.92
32.89,15.51,8.60,15.52,8.61,-8.61,-8.45,-10.71,6.89,6.90,6.91
33.22,15.48,8.60,15.48,8.60,-8.60,-8.44,-10.64,6.88,6.88,6.88
33.55,15.45,8.58,15.44,8.58,-8.58,-8.44,-10.56,6.87,6.86,6.87
33.89,15.41,8.57,15.40,8.56,-8.56,-8.44,-10.47,6.85,6.84,6.84
34.23,15.37,8.55,15.36,8.54,-8.54,-8.43,-10.37,6.83,6.82,6.82
34.57,15.33,8.53,15.32,8.52,-8.52,-8.43,-10.26,6.81,6.80,6.80
34.92,15.29,8.51,15.27,8.50,-8.50,-8.43,-10.15,6.79,6.78,6.78
35.27,15.24,8.48,15.23,8.47,-8.47,-8.42,-10.03,6.76,6.76,6.76
35.62,15.19,8.45,15.19,8.45,-8.45,-8.42,-9.90,6.74,6.74,6.74
35.97,15.14,8.42,15.15,8.43,-8.43,-8.42,-9.78,6.70,6.72,6.72
36.33,15.10,8.40,15.11,8.42,-8.42,-8.41,-9.65,6.68,6.70,6.70
36.70,15.06,8.38,15.08,8.40,-8.40,-8.41,-9.52,6.66,6.67,6.68
37.06,15.03,8.37,15.04,8.39,-8.39,-8.40,-9.39,6.64,6.65,6.66
37.43,15.00,8.36,15.01,8.37,-8.37,-8.40,-9.26,6.62,6.63,6.64
37.81,14.97,8.35,14.98,8.37,-8.37,-8.39,-9.14,6.60,6.61,6.62
38.19,14.96,8.37,14.95,8.36,-8.36,-8.39,-9.01,6.60,6.59,6.59
38.57,14.93,8.35,14.93,8.36,-8.36,-8.38,-8.89,6.57,6.57,6.58
38.95,14.91,8.36,14.90,8.35,-8.35,-8.37,-8.78,6.56,6.55,6.55
39.34,14.89,8.36,14.89,8.35,-8.35,-8.37,-8.66,6.54,6.53,6.53
39.74,14.87,8.36,14.87,8.35,-8.35,-8.36,-8.55,6.51,6.51,6.51
40.14,14.85,8.35,14.85,8.36,-8.36,-8.36,-8.45,6.49,6.49,6.50
40.54,14.83,8.35,14.84,8.36,-8.36,-8.35,-8.35,6.47,6.48,6.48
40.94,14.82,8.36,14.82,8.36,-8.36,-8.34,-8.26,6.46,6.46,6.46
41.35,14.80,8.37,14.80,8.36,-8.36,-8.33,-8.17,6.43,6.44,6.43
41.76,14.79,8.36,14.79,8.37,-8.37,-8.33,-8.09,6.42,6.42,6.43
42.18,14.77,8.36,14.77,8.37,-8.37,-8.32,-8.01,6.40,6.40,6.41
42.60,14.75,8.36,14.75,8.36,-8.36,-8.31,-7.94,6.38,6.38,6.39
43.03,14.73,8.35,14.72,8.36,-8.36,-8.30,-7.87,6.37,6.36,6.38
43.46,14.71,8.36,14.70,8.36,-8.36,-8.29,-7.81,6.35,6.34,6.35
43.90,14.69,8.36,14.68,8.35,-8.35,-8.28,-7.75,6.34,6.33,6.33
44.33,14.66,8.35,14.65,8.34,-8.34,-8.27,-7.70,6.32,6.31,6.31
44.78,14.62,8.33,14.62,8.33,-8.33,-8.26,-7.66,6.29,6.29,6.29
45.23,14.59,8.33,14.59,8.31,-8.31,-8.25,-7.62,6.27,6.27,6.26
45.68,14.55,8.31,14.55,8.30,-8.30,-8.24,-7.59,6.25,6.25,6.24
46.13,14.52,8.29,14.51,8.28,-8.28,-8.23,-7.56,6.24,6.23,6.23
46.60,14.48,8.26,14.48,8.27,-8.27,-8.21,-7.54,6.21,6.21,6.22
47.06,14.44,8.24,14.44,8.25,-8.25,-8.20,-7.52,6.19,6.19,6.20
47.53,14.40,8.22,14.40,8.23,-8.23,-8.19,-7.51,6.17,6.17,6.18
48.01,14.36,8.19,14.36,8.21,-8.21,-8.17,-7.50,6.15,6.15,6.17
48.49,14.31,8.17,14.32,8.19,-8.19,-8.16,-7.50,6.12,6.13,6.14
48.97,14.27,8.16,14.28,8.17,-8.17,-8.15,-7.50,6.09,6.11,6.11
49.46,14.23,8.15,14.24,8.16,-8.16,-8.13,-7.51,6.07,6.08,6.08
49.96,14.19,8.14,14.20,8.14,-8.14,-8.12,-7.52,6.05,6.06,6.05
50.46,14.17,8.13,14.17,8.13,-8.13,-8.10,-7.53,6.04,6.04,6.04
50.96,14.13,8.11,14.13,8.11,-8.11,-8.09,-7.55,6.02,6.02,6.02
51.47,14.09,8.10,14.09,8.10,-8.10,-8.07,-7.57,5.99,5.99,5.99
51.99,14.05,8.08,14.05,8.08,-8.08,-8.06,-7.60,5.97,5.97,5.97
52.51,14.01,8.06,14.00,8.06,-8.06,-8.04,-7.62,5.95,5.94,5.95
53.03,13.97,8.04,13.96,8.04,-8.04,-8.02,-7.65,5.93,5.92,5.93
53.56,13.93,8.03,13.91,8.02,-8.02,-8.01,-7.68,5.91,5.89,5.90
54.10,13.89,8.01,13.87,7.99,-7.99,-7.99,-7.71,5.90,5.87,5.88
54.64,13.82,7.97,13.81,7.97,-7.97,-7.97,-7.74,5.85,5.85,5.85
55.18,13.77,7.94,13.76,7.94,-7.94,-7.95,-7.78,5.83,5.83,5.83
55.74,13.71,7.91,13.71,7.91,-7.91,-7.94,-7.81,5.80,5.80,5.80
56.29,13.64,7.86,13.65,7.87,-7.87,-7.92,-7.84,5.77,5.78,5.78
56.86,13.59,7.84,13.59,7.84,-7.84,-7.90,-7.87,5.75,5.75,5.75
57.42,13.53,7.80,13.54,7.81,-7.81,-7.88,-7.89,5.72,5.73,5.73
58.00,13.48,7.77,13.48,7.77,-7.77,-7.86,-7.92,5.70,5.70,5.71
58.58,13.42,7.74,13.42,7.74,-7.74,-7.84,-7.94,5.68,5.68,5.68
59.16,13.37,7.71,13.36,7.71,-7.71,-7.82,-7.96,5.66,5.65,5.66
59.76,13.31,7.67,13.31,7.68,-7.68,-7.80,-7.97,5.63,5.63,5.64
60.35,13.26,7.65,13.25,7.65,-7.65,-7.78,-7.98,5.60,5.60,5.61
60.96,13.20,7.61,13.20,7.63,-7.63,-7.76,-7.99,5.57,5.57,5.59
61.57,13.15,7.60,13.15,7.61,-7.61,-7.74,-7.99,5.54,5.55,5.55
62.18,13.10,7.58,13.10,7.58,-7.58,-7.72,-7.98,5.51,5.52,5.52
62.80,13.05,7.56,13.06,7.56,-7.56,-7.70,-7.97,5.48,5.49,5.49
63.43,13.00,7.54,13.01,7.54,-7.54,-7.68,-7.95,5.45,5.47,5.46
64.07,12.96,7.53,12.97,7.53,-7.53,-7.66,-7.93,5.43,5.44,5.43
64.71,12.93,7.52,12.93,7.51,-7.51,-7.64,-7.91,5.42,5.41,5.41
65.35,12.89,7.50,12.88,7.50,-7.50,-7.62,-7.88,5.39,5.39,5.39
66.01,12.84,7.47,12.84,7.48,-7.48,-7.60,-7.85,5.36,5.36,5.37
66.67,12.81,7.47,12.81,7.47,-7.47,-7.58,-7.81,5.34,5.34,5.34
67.33,12.77,7.45,12.77,7.45,-7.45,-7.56,-7.77,5.31,5.31,5.32
68.01,12.73,7.44,12.73,7.44,-7.44,-7.54,-7.72,5.29,5.29,5.29
68.69,12.69,7.42,12.69,7.43,-7.43,-7.52,-7.67,5.26,5.26,5.27
69.37,12.65,7.41,12.65,7.41,-7.41,-7.50,-7.62,5.24,5.24,5.24
70.07,12.61,7.40,12.60,7.39,-7.39,-7.48,-7.57,5.21,5.21,5.21
70.77,12.57,7.38,12.56,7.38,-7.38,-7.46,-7.52,5.19,5.18,5.19
71.48,12.53,7.37,12.51,7.36,-7.36,-7.44,-7.47,5.17,5.15,5.16
72.19,12.47,7.34,12.47,7.34,-7.34,-7.42,-7.42,5.12,5.12,5.13
72.91,12.43,7.34,12.42,7.33,-7.33,-7.40,-7.36,5.10,5.09,5.09
73.64,12.37,7.31,12.37,7.31,-7.31,-7.38,-7.31,5.06,5.06,5.06
74.38,12.31,7.28,12.31,7.29,-7.29,-7.36,-7.26,5.01,5.02,5.03
75.12,12.26,7.28,12.26,7.28,-7.28,-7.34,-7.21,4.98,4.99,4.98
75.87,12.21,7.26,12.21,7.26,-7.26,-7.33,-7.17,4.95,4.95,4.95
76.63,12.15,7.23,12.15,7.24,-7.24,-7.31,-7.12,4.90,4.91,4.92
77.40,12.10,7.22,12.10,7.23,-7.23,-7.29,-7.08,4.87,4.87,4.88
78.17,12.05,7.23,12.05,7.21,-7.21,-7.27,-7.05,4.83,4.83,4.82
78.95,12.00,7.20,11.99,7.20,-7.20,-7.26,-7.01,4.80,4.79,4.80
79.74,11.94,7.18,11.94,7.19,-7.19,-7.24,-6.98,4.74,4.75,4.76
80.54,11.89,7.18,11.89,7.19,-7.19,-7.23,-6.96,4.70,4.71,4.71
81.35,11.84,7.17,11.84,7.18,-7.18,-7.21,-6.93,4.66,4.66,4.67
82.16,11.79,7.17,11.79,7.18,-7.18,-7.20,-6.92,4.61,4.62,4.62
82.98,11.74,7.16,11.75,7.17,-7.17,-7.18,-6.90,4.57,4.57,4.58
83.81,11.70,7.18,11.70,7.17,-7.17,-7.17,-6.90,4.53,4.53,4.52
84.65,11.65,7.17,11.65,7.17,-7.17,-7.16,-6.89,4.48,4.48,4.48
85.50,11.61,7.17,11.60,7.17,-7.17,-7.15,-6.89,4.44,4.43,4.44
86.35,11.57,7.18,11.55,7.17,-7.17,-7.14,-6.90,4.40,4.38,4.39
87.22,11.52,7.18,11.51,7.17,-7.17,-7.13,-6.91,4.35,4.34,4.34
88.09,11.47,7.19,11.46,7.18,-7.18,-7.12,-6.93,4.29,4.28,4.28
88.97,11.42,7.18,11.42,7.18,-7.18,-7.11,-6.95,4.23,4.23,4.24
89.86,11.37,7.18,11.37,7.19,-7.19,-7.10,-6.98,4.18,4.18,4.19
90.76,11.33,7.20,11.33,7.20,-7.20,-7.10,-7.01,4.13,4.13,4.13
91.66,11.28,7.20,11.29,7.21,-7.21,-7.09,-7.04,4.07,4.08,4.08
92.58,11.24,7.22,11.25,7.22,-7.22,-7.09,-7.09,4.01,4.03,4.02
93.51,11.21,7.23,11.21,7.24,-7.24,-7.08,-7.13,3.97,3.97,3.98
94.44,11.19,7.26,11.18,7.26,-7.26,-7.08,-7.18,3.93,3.92,3.93
95.39,11.15,7.28,11.14,7.28,-7.28,-7.08,-7.24,3.87,3.86,3.87
96.34,11.11,7.31,11.11,7.31,-7.31,-7.08,-7.30,3.80,3.80,3.80
97.30,11.08,7.33,11.08,7.34,-7.34,-7.08,-7.36,3.74,3.74,3.75
98.28,11.05,7.36,11.06,7.37,-7.37,-7.08,-7.43,3.68,3.69,3.69
99.26,11.02,7.40,11.03,7.41,-7.41,-7.08,-7.51,3.61,3.62,3.62
100.25,11.01,7.44,11.01,7.45,-7.45,-7.09,-7.58,3.56,3.56,3.57
101.25,10.99,7.48,10.99,7.49,-7.49,-7.09,-7.66,3.50,3.50,3.51
102.27,10.97,7.53,10.97,7.53,-7.53,-7.10,-7.74,3.44,3.44,3.44
103.29,10.96,7.59,10.95,7.57,-7.57,-7.11,-7.83,3.38,3.38,3.37
104.32,10.94,7.62,10.93,7.62,-7.62,-7.12,-7.91,3.32,3.31,3.32
105.37,10.92,7.66,10.91,7.67,-7.67,-7.13,-8.00,3.25,3.25,3.26
106.42,10.90,7.71,10.90,7.71,-7.71,-7.14,-8.09,3.19,3.18,3.19
107.48,10.88,7.76,10.88,7.76,-7.76,-7.16,-8.18,3.12,3.12,3.12
108.56,10.86,7.81,10.86,7.81,-7.81,-7.17,-8.27,3.05,3.05,3.05
109.64,10.84,7.85,10.84,7.86,-7.86,-7.19,-8.36,2.98,2.98,2.99
110.74,10.82,7.89,10.82,7.90,-7.90,-7.21,-8.44,2.92,2.92,2.93
111.85,10.79,7.93,10.80,7.95,-7.95,-7.23,-8.52,2.84,2.85,2.86
112.97,10.77,7.99,10.77,7.99,-7.99,-7.25,-8.60,2.78,2.78,2.78
114.10,10.74,8.02,10.74,8.02,-8.02,-7.27,-8.68,2.72,2.71,2.72
115.24,10.72,8.07,10.70,8.06,-8.06,-7.30,-8.75,2.66,2.65,2.65
116.39,10.68,8.10,10.67,8.09,-8.09,-7.32,-8.81,2.59,2.58,2.58
117.55,10.64,8.13,10.63,8.11,-8.11,-7.35,-8.86,2.53,2.52,2.51
118.73,10.60,8.15,10.58,8.13,-8.13,-7.38,-8.91,2.47,2.45,2.45
119.92,10.55,8.16,10.54,8.15,-8.15,-7.41,-8.95,2.40,2.39,2.39
121.12,10.49,8.16,10.49,8.16,-8.16,-7.44,-8.98,2.33,2.33,2.33
122.33,10.43,8.17,10.43,8.17,-8.17,-7.47,-9.00,2.26,2.26,2.26
123.55,10.38,8.17,10.38,8.18,-8.18,-7.51,-9.01,2.20,2.20,2.21
124.79,10.32,8.17,10.32,8.18,-8.18,-7.54,-9.01,2.14,2.14,2.15
126.03,10.26,8.16,10.26,8.18,-8.18,-7.58,-9.00,2.08,2.09,2.10
127.29,10.20,8.16,10.20,8.17,-8.17,-7.62,-8.97,2.03,2.03,2.04
128.57,10.13,8.16,10.14,8.17,-8.17,-7.66,-8.94,1.96,1.97,1.97
129.85,10.08,8.16,10.08,8.16,-8.16,-7.70,-8.90,1.92,1.92,1.92
131.15,10.02,8.15,10.02,8.15,-8.15,-7.74,-8.85,1.87,1.87,1.87
132.46,9.96,8.15,9.96,8.15,-8.15,-7.78,-8.79,1.81,1.81,1.81
133.79,9.91,8.14,9.91,8.14,-8.14,-7.82,-8.72,1.77,1.77,1.77
135.12,9.85,8.14,9.85,8.13,-8.13,-7.86,-8.64,1.72,1.72,1.71
136.48,9.79,8.11,9.80,8.12,-8.12,-7.90,-8.56,1.67,1.68,1.68
137.84,9.73,8.09,9.75,8.11,-8.11,-7.95,-8.47,1.62,1.63,1.64
139.22,9.69,8.10,9.69,8.10,-8.10,-7.99,-8.38,1.59,1.59,1.59
140.61,9.64,8.09,9.64,8.09,-8.09,-8.03,-8.28,1.55,1.56,1.55
142.02,9.60,8.07,9.59,8.07,-8.07,-8.07,-8.18,1.53,1.52,1.53
143.44,9.55,8.05,9.54,8.05,-8.05,-8.11,-8.07,1.50,1.49,1.50
144.87,9.51,8.05,9.49,8.03,-8.03,-8.15,-7.97,1.47,1.46,1.46
146.32,9.46,8.03,9.45,8.02,-8.02,-8.19,-7.86,1.44,1.43,1.43
147.78,9.40,7.99,9.40,8.00,-8.00,-8.22,-7.76,1.40,1.40,1.41
149.26,9.35,7.97,9.35,7.98,-7.98,-8.26,-7.65,1.37,1.37,1.38
150.75,9.30,7.96,9.30,7.96,-7.96,-8.29,-7.55,1.34,1.34,1.34
152.26,9.25,7.93,9.25,7.94,-7.94,-8.32,-7.45,1.31,1.31,1.32
153.78,9.20,7.91,9.21,7.92,-7.92,-8.34,-7.34,1.28,1.29,1.29
155.32,9.16,7.89,9.16,7.90,-7.90,-8.37,-7.25,1.26,1.26,1.27
156.88,9.11,7.87,9.11,7.88,-7.88,-8.39,-7.15,1.23,1.23,1.24
158.44,9.06,7.85,9.06,7.86,-7.86,-8.40,-7.06,1.20,1.21,1.21
160.03,9.02,7.84,9.02,7.84,-7.84,-8.41,-6.97,1.18,1.18,1.18
161.63,8.97,7.82,8.97,7.82,-7.82,-8.42,-6.88,1.15,1.15,1.15
163.24,8.93,7.81,8.92,7.80,-7.80,-8.42,-6.80,1.13,1.12,1.12
164.88,8.88,7.78,8.88,7.78,-7.78,-8.42,-6.73,1.10,1.10,1.10
166.53,8.83,7.75,8.83,7.76,-7.76,-8.41,-6.66,1.06,1.07,1.08
168.19,8.78,7.74,8.79,7.75,-7.75,-8.39,-6.59,1.03,1.04,1.04
169.87,8.73,7.72,8.74,7.73,-7.73,-8.37,-6.52,1.00,1.01,1.01
171.57,8.69,7.71,8.69,7.71,-7.71,-8.35,-6.47,0.98,0.97,0.98
173.29,8.63,7.67,8.64,7.69,-7.69,-8.32,-6.41,0.93,0.94,0.96
175.02,8.59,7.67,8.58,7.67,-7.67,-8.28,-6.36,0.92,0.91,0.92
176.77,8.53,7.65,8.52,7.65,-7.65,-8.24,-6.32,0.88,0.87,0.88
178.54,8.48,7.64,8.46,7.62,-7.62,-8.19,-6.28,0.86,0.84,0.84
180.32,8.42,7.61,8.40,7.59,-7.59,-8.13,-6.24,0.83,0.81,0.81
182.13,8.36,7.58,8.33,7.56,-7.56,-8.07,-6.21,0.80,0.77,0.78
183.95,8.29,7.55,8.27,7.53,-7.53,-8.01,-6.19,0.76,0.74,0.74
185.79,8.21,7.51,8.20,7.49,-7.49,-7.94,-6.16,0.71,0.70,0.70
187.65,8.13,7.47,8.13,7.46,-7.46,-7.86,-6.15,0.67,0.67,0.66
189.52,8.05,7.42,8.06,7.42,-7.42,-7.78,-6.14,0.63,0.64,0.63
191.42,7.98,7.37,7.99,7.39,-7.39,-7.70,-6.13,0.59,0.61,0.61
193.33,7.91,7.32,7.93,7.36,-7.36,-7.61,-6.12,0.55,0.58,0.59
195.27,7.85,7.29,7.87,7.32,-7.32,-7.52,-6.12,0.53,0.55,0.56
197.22,7.79,7.26,7.81,7.29,-7.29,-7.42,-6.12,0.50,0.52,0.53
199.19,7.74,7.26,7.76,7.26,-7.26,-7.32,-6.13,0.48,0.50,0.48
201.18,7.70,7.23,7.71,7.24,-7.24,-7.22,-6.14,0.46,0.47,0.47
203.19,7.66,7.21,7.66,7.22,-7.22,-7.12,-6.15,0.44,0.45,0.45
205.23,7.62,7.19,7.62,7.20,-7.20,-7.01,-6.16,0.42,0.43,0.43
207.28,7.60,7.18,7.58,7.18,-7.18,-6.90,-6.18,0.42,0.41,0.42
209.35,7.56,7.17,7.55,7.16,-7.16,-6.79,-6.20,0.39,0.39,0.39
211.44,7.52,7.15,7.52,7.15,-7.15,-6.68,-6.21,0.37,0.37,0.37
213.56,7.48,7.13,7.48,7.13,-7.13,-6.57,-6.23,0.35,0.35,0.35
215.69,7.45,7.10,7.45,7.11,-7.11,-6.46,-6.25,0.34,0.34,0.35
217.85,7.41,7.07,7.42,7.09,-7.09,-6.35,-6.27,0.32,0.33,0.34
220.03,7.38,7.07,7.38,7.06,-7.06,-6.23,-6.29,0.31,0.32,0.31
222.23,7.35,7.05,7.34,7.03,-7.03,-6.12,-6.31,0.31,0.31,0.30
224.45,7.31,7.00,7.30,7.00,-7.00,-6.01,-6.32,0.31,0.31,0.31
226.70,7.26,6.96,7.26,6.96,-6.96,-5.89,-6.33,0.30,0.30,0.30
228.96,7.22,6.92,7.22,6.91,-6.91,-5.78,-6.34,0.30,0.30,0.30
231.25,7.16,6.85,7.16,6.86,-6.86,-5.67,-6.35,0.30,0.30,0.31
233.57,7.10,6.78,7.11,6.80,-6.80,-5.56,-6.35,0.30,0.31,0.32
235.90,7.03,6.71,7.04,6.73,-6.73,-5.45,-6.35,0.30,0.32,0.32
238.26,6.97,6.65,6.97,6.64,-6.64,-5.34,-6.34,0.33,0.33,0.32
240.64,6.90,6.56,6.89,6.55,-6.55,-5.23,-6.32,0.35,0.34,0.34
243.05,6.83,6.47,6.80,6.44,-6.44,-5.12,-6.30,0.39,0.35,0.36
245.48,6.71,6.33,6.69,6.32,-6.32,-5.02,-6.27,0.39,0.37,0.38
247.93,6.60,6.21,6.58,6.19,-6.19,-4.91,-6.24,0.41,0.39,0.39
250.41,6.49,6.09,6.45,6.04,-6.04,-4.81,-6.20,0.45,0.41,0.40
252.92,6.35,5.91,6.31,5.88,-5.88,-4.71,-6.15,0.47,0.43,0.44
255.45,6.19,5.73,6.16,5.71,-5.71,-4.61,-6.09,0.48,0.45,0.46
258.00,6.03,5.55,6.00,5.53,-5.53,-4.51,-6.03,0.50,0.47,0.48
260.58,5.87,5.37,5.83,5.34,-5.34,-4.41,-5.96,0.53,0.49,0.50
263.19,5.68,5.16,5.66,5.15,-5.15,-4.32,-5.88,0.53,0.52,0.52
265.82,5.50,4.96,5.49,4.95,-4.95,-4.23,-5.80,0.55,0.54,0.54
268.48,5.31,4.74,5.32,4.76,-4.76,-4.13,-5.72,0.55,0.57,0.57
271.16,5.14,4.54,5.16,4.57,-4.57,-4.04,-5.62,0.57,0.59,0.60
273.87,4.97,4.35,5.00,4.39,-4.39,-3.96,-5.53,0.58,0.61,0.62
276.61,4.82,4.17,4.86,4.22,-4.22,-3.87,-5.42,0.60,0.64,0.65
279.38,4.69,4.02,4.72,4.06,-4.06,-3.78,-5.32,0.63,0.66,0.67
282.17,4.57,3.88,4.61,3.92,-3.92,-3.70,-5.21,0.65,0.69,0.69
284.99,4.46,3.74,4.51,3.79,-3.79,-3.62,-5.10,0.67,0.72,0.72
287.84,4.38,3.64,4.42,3.68,-3.68,-3.54,-4.98,0.70,0.74,0.74
290.72,4.33,3.55,4.35,3.58,-3.58,-3.46,-4.87,0.75,0.77,0.78
293.63,4.28,3.48,4.30,3.50,-3.50,-3.38,-4.75,0.78,0.80,0.80
296.57,4.24,3.41,4.26,3.43,-3.43,-3.31,-4.63,0.81,0.83,0.83
299.53,4.21,3.35,4.23,3.36,-3.36,-3.23,-4.51,0.84,0.86,0.86
302.53,4.20,3.32,4.20,3.31,-3.31,-3.16,-4.39,0.89,0.89,0.88
305.55,4.20,3.27,4.18,3.26,-3.26,-3.09,-4.28,0.94,0.92,0.93
308.61,4.20,3.24,4.17,3.21,-3.21,-3.02,-4.16,0.99,0.96,0.96
311.69,4.19,3.19,4.15,3.16,-3.16,-2.95,-4.04,1.02,0.99,1.00
314.81,4.17,3.14,4.14,3.12,-3.12,-2.88,-3.92,1.05,1.02,1.03
317.96,4.14,3.08,4.12,3.07,-3.07,-2.82,-3.81,1.07,1.05,1.06
321.14,4.12,3.03,4.10,3.02,-3.02,-2.75,-3.69,1.10,1.08,1.09
324.35,4.08,2.97,4.07,2.96,-2.96,-2.69,-3.58,1.12,1.11,1.11
327.59,4.05,2.90,4.04,2.90,-2.90,-2.63,-3.47,1.15,1.14,1.15
330.87,4.00,2.82,4.00,2.83,-2.83,-2.57,-3.36,1.17,1.17,1.18
334.18,3.95,2.75,3.96,2.76,-2.76,-2.51,-3.25,1.19,1.20,1.20
337.52,3.92,2.70,3.91,2.68,-2.68,-2.45,-3.14,1.24,1.22,1.22
340.90,3.86,2.61,3.85,2.60,-2.60,-2.39,-3.04,1.25,1.24,1.25
344.30,3.80,2.53,3.79,2.52,-2.52,-2.34,-2.94,1.28,1.27,1.27
347.75,3.73,2.43,3.73,2.44,-2.44,-2.28,-2.84,1.29,1.29,1.30
351.23,3.67,2.35,3.66,2.35,-2.35,-2.23,-2.74,1.31,1.31,1.32
354.74,3.59,2.26,3.60,2.27,-2.27,-2.18,-2.64,1.32,1.33,1.33
358.28,3.52,2.17,3.52,2.18,-2.18,-2.13,-2.55,1.34,1.35,1.35
361.87,3.46,2.09,3.45,2.08,-2.08,-2.08,-2.45,1.38,1.37,1.37
365.49,3.39,1.99,3.38,1.99,-1.99,-2.03,-2.36,1.40,1.39,1.40
369.14,3.31,1.90,3.31,1.90,-1.90,-1.98,-2.27,1.41,1.41,1.41
372.83,3.23,1.81,3.23,1.80,-1.80,-1.93,-2.19,1.43,1.43,1.42
376.56,3.16,1.72,3.16,1.71,-1.71,-1.88,-2.10,1.45,1.45,1.44
380.33,3.09,1.62,3.09,1.62,-1.62,-1.84,-2.02,1.47,1.47,1.47
384.13,3.02,1.53,3.02,1.53,-1.53,-1.79,-1.94,1.49,1.49,1.49
387.97,2.94,1.43,2.95,1.45,-1.45,-1.75,-1.86,1.49,1.51,1.51
391.85,2.87,1.34,2.89,1.36,-1.36,-1.71,-1.78,1.51,1.53,1.53
395.77,2.82,1.26,2.83,1.28,-1.28,-1.66,-1.70,1.54,1.55,1.56
399.73,2.77,1.19,2.77,1.20,-1.20,-1.62,-1.63,1.57,1.57,1.58
403.72,2.72,1.13,2.72,1.13,-1.13,-1.58,-1.55,1.59,1.59,1.59
407.76,2.67,1.06,2.67,1.06,-1.06,-1.54,-1.48,1.61,1.61,1.61
411.84,2.62,0.98,2.62,0.99,-0.99,-1.50,-1.41,1.63,1.64,1.64
415.96,2.59,0.93,2.58,0.92,-0.92,-1.46,-1.34,1.67,1.66,1.66
420.12,2.54,0.86,2.54,0.86,-0.86,-1.42,-1.27,1.68,1.68,1.68
424.32,2.51,0.80,2.51,0.81,-0.81,-1.39,-1.21,1.70,1.70,1.71
428.56,2.48,0.75,2.48,0.75,-0.75,-1.35,-1.14,1.73,1.73,1.73
432.85,2.45,0.70,2.45,0.70,-0.70,-1.31,-1.08,1.75,1.75,1.75
437.18,2.42,0.64,2.42,0.65,-0.65,-1.28,-1.01,1.77,1.77,1.78
441.55,2.40,0.59,2.40,0.60,-0.60,-1.24,-0.95,1.80,1.80,1.81
445.96,2.37,0.54,2.37,0.55,-0.55,-1.21,-0.89,1.82,1.82,1.83
450.42,2.36,0.52,2.35,0.50,-0.50,-1.17,-0.83,1.86,1.85,1.84
454.93,2.34,0.46,2.33,0.46,-0.46,-1.14,-0.78,1.88,1.88,1.88
459.48,2.32,0.42,2.32,0.41,-0.41,-1.10,-0.72,1.91,1.90,1.90
464.07,2.30,0.37,2.30,0.37,-0.37,-1.07,-0.66,1.93,1.93,1.93
468.71,2.29,0.32,2.29,0.33,-0.33,-1.04,-0.61,1.96,1.96,1.97
473.40,2.28,0.29,2.27,0.29,-0.29,-1.01,-0.56,1.99,1.99,1.99
478.13,2.26,0.24,2.26,0.25,-0.25,-0.97,-0.50,2.01,2.02,2.02
482.91,2.25,0.20,2.25,0.21,-0.21,-0.94,-0.45,2.04,2.05,2.05
487.74,2.25,0.17,2.25,0.17,-0.17,-0.91,-0.40,2.08,2.07,2.08
492.62,2.25,0.14,2.24,0.14,-0.14,-0.88,-0.35,2.11,2.10,2.11
497.55,2.25,0.12,2.24,0.11,-0.11,-0.85,-0.31,2.14,2.13,2.13
502.52,2.24,0.07,2.24,0.08,-0.08,-0.82,-0.26,2.16,2.16,2.17
507.55,2.24,0.05,2.24,0.06,-0.06,-0.79,-0.21,2.18,2.19,2.19
512.62,2.24,0.02,2.25,0.03,-0.03,-0.76,-0.17,2.21,2.22,2.22
