frequency,raw,error,smoothed,error_smoothed,equalization,parametric_eq,fixed_band_eq,equalized_raw,equalized_smoothed,target
20.00,16.66,7.85,16.67,7.83,-7.83,-7.68,-3.51,8.83,8.83,8.81
20.20,16.64,7.83,16.64,7.81,-7.81,-7.68,-3.61,8.83,8.83,8.81
20.40,16.61,7.80,16.61,7.80,-7.80,-7.69,-3.71,8.81,8.82,8.81
20.61,16.59,7.78,16.59,7.78,-7.78,-7.69,-3.81,8.81,8.81,8.81
20.81,16.57,7.76,16.56,7.76,-7.76,-7.69,-3.92,8.80,8.80,8.81
21.02,16.54,7.73,16.54,7.75,-7.75,-7.69,-4.02,8.79,8.79,8.81
21.23,16.52,7.73,16.51,7.74,-7.74,-7.70,-4.13,8.78,8.77,8.79
21.44,16.49,7.71,16.49,7.73,-7.73,-7.70,-4.25,8.76,8.76,8.78
21.66,16.47,7.71,16.46,7.72,-7.72,-7.70,-4.36,8.75,8.75,8.76
21.87,16.44,7.70,16.44,7.71,-7.71,-7.70,-4.48,8.73,8.73,8.74
22.09,16.42,7.69,16.41,7.70,-7.70,-7.70,-4.61,8.72,8.71,8.73
22.31,16.39,7.69,16.39,7.69,-7.69,-7.70,-4.73,8.70,8.70,8.70
22.54,16.36,7.68,16.36,7.69,-7.69,-7.70,-4.86,8.67,8.68,8.68
22.76,16.34,7.68,16.34,7.69,-7.69,-7.70,-5.00,8.65,8.65,8.65
22.99,16.32,7.69,16.32,7.69,-7.69,-7.70,-5.13,8.63,8.63,8.62
23.22,16.29,7.69,16.29,7.69,-7.69,-7.70,-5.27,8.60,8.61,8.59
23.45,16.27,7.70,16.27,7.69,-7.69,-7.70,-5.42,8.58,8.59,8.57
23.69,16.25,7.69,16.25,7.68,-7.68,-7.70,-5.56,8.56,8.57,8.56
23.92,16.23,7.69,16.23,7.68,-7.68,-7.70,-5.71,8.54,8.54,8.54
24.16,16.22,7.69,16.21,7.69,-7.69,-7.70,-5.86,8.53,8.52,8.53
24.40,16.19,7.68,16.19,7.69,-7.69,-7.70,-6.02,8.50,8.51,8.51
24.65,16.17,7.68,16.17,7.69,-7.69,-7.70,-6.18,8.48,8.49,8.49
24.89,16.15,7.68,16.15,7.69,-7.69,-7.69,-6.34,8.46,8.47,8.47
25.14,16.14,7.68,16.14,7.68,-7.68,-7.69,-6.50,8.45,8.45,8.46
25.39,16.12,7.68,16.12,7.68,-7.68,-7.69,-6.66,8.44,8.43,8.44
25.65,16.10,7.67,16.10,7.68,-7.68,-7.69,-6.83,8.42,8.42,8.42
25.91,16.09,7.69,16.08,7.68,-7.68,-7.69,-6.99,8.41,8.40,8.39
26.16,16.07,7.69,16.06,7.68,-7.68,-7.68,-7.16,8.39,8.39,8.38
26.43,16.05,7.68,16.05,7.68,-7.68,-7.68,-7.32,8.37,8.37,8.37
26.69,16.03,7.68,16.03,7.67,-7.67,-7.68,-7.49,8.35,8.35,8.35
26.96,16.01,7.67,16.01,7.67,-7.67,-7.67,-7.65,8.34,8.34,8.34
27.23,15.99,7.66,15.99,7.67,-7.67,-7.67,-7.81,8.32,8.32,8.33
27.50,15.97,7.65,15.97,7.67,-7.67,-7.67,-7.97,8.30,8.31,8.32
27.77,15.95,7.65,15.96,7.66,-7.66,-7.66,-8.13,8.29,8.29,8.29
28.05,15.94,7.66,15.94,7.66,-7.66,-7.66,-8.27,8.28,8.28,8.28
28.33,15.92,7.66,15.92,7.65,-7.65,-7.66,-8.42,8.27,8.27,8.26
28.62,15.90,7.65,15.90,7.64,-7.64,-7.65,-8.55,8.26,8.25,8.25
28.90,15.88,7.64,15.88,7.63,-7.63,-7.65,-8.68,8.24,8.24,8.24
29.19,15.85,7.63,15.85,7.63,-7.63,-7.64,-8.80,8.22,8.23,8.22
29.48,15.84,7.62,15.83,7.62,-7.62,-7.64,-8.90,8.22,8.21,8.21
29.78,15.81,7.61,15.81,7.61,-7.61,-7.63,-9.00,8.20,8.20,8.20
30.08,15.79,7.60,15.78,7.60,-7.60,-7.63,-9.08,8.19,8.18,8.19
30.38,15.76,7.59,15.76,7.59,-7.59,-7.62,-9.15,8.17,8.17,8.17
30.68,15.73,7.57,15.73,7.58,-7.58,-7.62,-9.21,8.15,8.15,8.16
30.99,15.71,7.58,15.71,7.57,-7.57,-7.61,-9.25,8.14,8.14,8.13
31.30,15.68,7.56,15.68,7.56,-7.56,-7.60,-9.28,8.12,8.12,8.12
31.61,15.65,7.54,15.65,7.55,-7.55,-7.60,-9.29,8.10,8.10,8.11
31.93,15.62,7.53,15.62,7.53,-7.53,-7.59,-9.29,8.08,8.08,8.09
32.24,15.58,7.53,15.58,7.52,-7.52,-7.58,-9.28,8.06,8.06,8.05
32.57,15.55,7.51,15.55,7.51,-7.51,-7.58,-9.25,8.04,8.04,8.04
32.89,15.51,7.48,15.52,7.50,-7.50,-7.57,-9.21,8.01,8.02,8.03
33.22,15.48,7.48,15.48,7.48,-7.48,-7.56,-9.16,8.00,8.00,7.99
33.55,15.45,7.47,15.44,7.46,-7.46,-7.56,-9.10,7.99,7.98,7.98
33.89,15.41,7.45,15.40,7.44,-7.44,-7.55,-9.03,7.97,7.96,7.96
34.23,15.37,7.43,15.36,7.42,-7.42,-7.54,-8.95,7.95,7.94,7.93
34.57,15.33,7.42,15.32,7.40,-7.40,-7.53,-8.87,7.93,7.91,7.91
34.92,15.29,7.40,15.27,7.38,-7.38,-7.52,-8.77,7.91,7.89,7.89
35.27,15.24,7.37,15.23,7.36,-7.36,-7.52,-8.68,7.88,7.87,7.87
35.62,15.19,7.34,15.19,7.34,-7.34,-7.51,-8.57,7.85,7.85,7.85
35.97,15.14,7.31,15.15,7.32,-7.32,-7.50,-8.47,7.82,7.83,7.83
36.33,15.10,7.29,15.11,7.31,-7.31,-7.49,-8.36,7.79,7.81,7.81
36.70,15.06,7.27,15.08,7.29,-7.29,-7.48,-8.25,7.77,7.79,7.79
37.06,15.03,7.27,15.04,7.28,-7.28,-7.47,-8.14,7.75,7.76,7.76
37.43,15.00,7.25,15.01,7.27,-7.27,-7.46,-8.04,7.73,7.74,7.75
37.81,14.97,7.25,14.98,7.26,-7.26,-7.45,-7.93,7.71,7.72,7.72
38.19,14.96,7.26,14.95,7.25,-7.25,-7.44,-7.82,7.71,7.70,7.70
38.57,14.93,7.25,14.93,7.25,-7.25,-7.43,-7.72,7.68,7.68,7.68
38.95,14.91,7.25,14.90,7.25,-7.25,-7.42,-7.62,7.66,7.66,7.66
39.34,14.89,7.26,14.89,7.25,-7.25,-7.41,-7.52,7.64,7.64,7.63
39.74,14.87,7.26,14.87,7.25,-7.25,-7.40,-7.43,7.62,7.62,7.60
40.14,14.85,7.25,14.85,7.26,-7.26,-7.39,-7.34,7.59,7.60,7.60
40.54,14.83,7.26,14.84,7.26,-7.26,-7.38,-7.25,7.57,7.58,7.57
40.94,14.82,7.26,14.82,7.26,-7.26,-7.37,-7.17,7.55,7.56,7.56
41.35,14.80,7.27,14.80,7.27,-7.27,-7.36,-7.09,7.53,7.54,7.53
41.76,14.79,7.27,14.79,7.27,-7.27,-7.35,-7.02,7.52,7.52,7.52
42.18,14.77,7.26,14.77,7.27,-7.27,-7.33,-6.95,7.50,7.50,7.50
42.60,14.75,7.27,14.75,7.27,-7.27,-7.32,-6.88,7.48,7.47,7.48
43.03,14.73,7.26,14.72,7.27,-7.27,-7.31,-6.82,7.46,7.45,7.47
43.46,14.71,7.27,14.70,7.27,-7.27,-7.30,-6.77,7.44,7.43,7.44
43.90,14.69,7.28,14.68,7.26,-7.26,-7.29,-6.72,7.43,7.41,7.41
44.33,14.66,7.27,14.65,7.25,-7.25,-7.28,-6.67,7.40,7.40,7.39
44.78,14.62,7.25,14.62,7.24,-7.24,-7.26,-6.63,7.37,7.37,7.37
45.23,14.59,7.25,14.59,7.23,-7.23,-7.25,-6.60,7.36,7.35,7.34
45.68,14.55,7.23,14.55,7.22,-7.22,-7.24,-6.57,7.33,7.33,7.32
46.13,14.52,7.22,14.51,7.20,-7.20,-7.23,-6.54,7.31,7.31,7.30
46.60,14.48,7.19,14.48,7.19,-7.19,-7.21,-6.52,7.29,7.29,7.29
47.06,14.44,7.17,14.44,7.17,-7.17,-7.20,-6.50,7.26,7.26,7.27
47.53,14.40,7.15,14.40,7.16,-7.16,-7.19,-6.49,7.24,7.24,7.25
48.01,14.36,7.12,14.36,7.14,-7.14,-7.17,-6.49,7.22,7.22,7.24
48.49,14.31,7.11,14.32,7.12,-7.12,-7.16,-6.48,7.18,7.19,7.20
48.97,14.27,7.10,14.28,7.11,-7.11,-7.15,-6.48,7.16,7.17,7.17
49.46,14.23,7.09,14.24,7.10,-7.10,-7.14,-6.49,7.13,7.15,7.14
49.96,14.19,7.09,14.20,7.08,-7.08,-7.12,-6.49,7.11,7.12,7.10
50.46,14.17,7.07,14.17,7.07,-7.07,-7.11,-6.51,7.10,7.10,7.10
50.96,14.13,7.05,14.13,7.06,-7.06,-7.09,-6.52,7.07,7.07,7.07
51.47,14.09,7.05,14.09,7.04,-7.04,-7.08,-6.54,7.04,7.04,7.04
51.99,14.05,7.04,14.05,7.03,-7.03,-7.07,-6.56,7.02,7.02,7.01
52.51,14.01,7.01,14.00,7.01,-7.01,-7.05,-6.58,7.00,6.99,7.00
53.03,13.97,7.00,13.96,7.00,-7.00,-7.04,-6.60,6.97,6.96,6.97
53.56,13.93,6.99,13.91,6.98,-6.98,-7.03,-6.63,6.95,6.94,6.94
54.10,13.89,6.98,13.87,6.95,-6.95,-7.01,-6.65,6.93,6.91,6.91
54.64,13.82,6.93,13.81,6.93,-6.93,-7.00,-6.68,6.89,6.88,6.88
55.18,13.77,6.91,13.76,6.90,-6.90,-6.99,-6.71,6.86,6.86,6.85
55.74,13.71,6.88,13.71,6.88,-6.88,-6.97,-6.74,6.83,6.83,6.82
56.29,13.64,6.83,13.65,6.85,-6.85,-6.96,-6.76,6.79,6.80,6.80
56.86,13.59,6.82,13.59,6.82,-6.82,-6.94,-6.79,6.77,6.77,6.77
57.42,13.53,6.79,13.54,6.79,-6.79,-6.93,-6.81,6.74,6.75,6.74
58.00,13.48,6.76,13.48,6.76,-6.76,-6.92,-6.83,6.72,6.72,6.72
58.58,13.42,6.74,13.42,6.73,-6.73,-6.90,-6.85,6.68,6.69,6.68
59.16,13.37,6.71,13.36,6.71,-6.71,-6.89,-6.87,6.66,6.66,6.66
59.76,13.31,6.67,13.31,6.68,-6.68,-6.88,-6.88,6.63,6.63,6.63
60.35,13.26,6.66,13.25,6.66,-6.66,-6.86,-6.90,6.60,6.59,6.60
60.96,13.20,6.62,13.20,6.64,-6.64,-6.85,-6.90,6.56,6.56,6.58
61.57,13.15,6.61,13.15,6.62,-6.62,-6.84,-6.91,6.53,6.53,6.53
62.18,13.10,6.60,13.10,6.60,-6.60,-6.82,-6.90,6.50,6.50,6.50
62.80,13.05,6.58,13.06,6.59,-6.59,-6.81,-6.90,6.46,6.47,6.47
63.43,13.00,6.57,13.01,6.57,-6.57,-6.80,-6.89,6.43,6.44,6.43
64.07,12.96,6.56,12.97,6.56,-6.56,-6.78,-6.88,6.40,6.41,6.40
64.71,12.93,6.56,12.93,6.55,-6.55,-6.77,-6.86,6.38,6.38,6.37
65.35,12.89,6.55,12.88,6.54,-6.54,-6.76,-6.84,6.35,6.34,6.34
66.01,12.84,6.52,12.84,6.53,-6.53,-6.75,-6.82,6.31,6.31,6.32
66.67,12.81,6.53,12.81,6.52,-6.52,-6.73,-6.79,6.29,6.28,6.28
67.33,12.77,6.51,12.77,6.51,-6.51,-6.72,-6.76,6.25,6.25,6.26
68.01,12.73,6.51,12.73,6.51,-6.51,-6.71,-6.73,6.22,6.22,6.22
68.69,12.69,6.50,12.69,6.50,-6.50,-6.70,-6.70,6.19,6.19,6.19
69.37,12.65,6.49,12.65,6.49,-6.49,-6.69,-6.66,6.16,6.16,6.15
70.07,12.61,6.48,12.60,6.48,-6.48,-6.68,-6.62,6.13,6.12,6.13
70.77,12.57,6.47,12.56,6.47,-6.47,-6.67,-6.59,6.10,6.09,6.10
71.48,12.53,6.47,12.51,6.46,-6.46,-6.66,-6.55,6.07,6.05,6.05
72.19,12.47,6.45,12.47,6.45,-6.45,-6.65,-6.51,6.02,6.02,6.02
72.91,12.43,6.45,12.42,6.44,-6.44,-6.64,-6.48,5.99,5.98,5.98
73.64,12.37,6.43,12.37,6.43,-6.43,-6.63,-6.44,5.94,5.94,5.93
74.38,12.31,6.41,12.31,6.42,-6.42,-6.62,-6.41,5.89,5.90,5.90
75.12,12.26,6.41,12.26,6.41,-6.41,-6.61,-6.37,5.85,5.85,5.84
75.87,12.21,6.40,12.21,6.40,-6.40,-6.61,-6.34,5.81,5.81,5.81
76.63,12.15,6.38,12.15,6.39,-6.39,-6.60,-6.31,5.76,5.76,5.77
77.40,12.10,6.38,12.10,6.38,-6.38,-6.59,-6.29,5.72,5.72,5.72
78.17,12.05,6.39,12.05,6.38,-6.38,-6.59,-6.27,5.67,5.67,5.66
78.95,12.00,6.37,11.99,6.37,-6.37,-6.58,-6.25,5.63,5.62,5.63
79.74,11.94,6.36,11.94,6.37,-6.37,-6.58,-6.23,5.57,5.57,5.58
80.54,11.89,6.37,11.89,6.37,-6.37,-6.57,-6.22,5.52,5.52,5.52
81.35,11.84,6.37,11.84,6.37,-6.37,-6.57,-6.21,5.47,5.47,5.47
82.16,11.79,6.37,11.79,6.38,-6.38,-6.56,-6.21,5.41,5.42,5.41
82.98,11.74,6.37,11.75,6.38,-6.38,-6.56,-6.21,5.36,5.36,5.37
83.81,11.70,6.40,11.70,6.39,-6.39,-6.56,-6.21,5.31,5.31,5.30
84.65,11.65,6.40,11.65,6.40,-6.40,-6.56,-6.22,5.25,5.25,5.25
85.50,11.61,6.41,11.60,6.41,-6.41,-6.56,-6.24,5.20,5.19,5.20
86.35,11.57,6.43,11.55,6.42,-6.42,-6.56,-6.25,5.15,5.14,5.14
87.22,11.52,6.44,11.51,6.43,-6.43,-6.56,-6.28,5.09,5.08,5.08
88.09,11.47,6.45,11.46,6.44,-6.44,-6.56,-6.30,5.03,5.02,5.02
88.97,11.42,6.45,11.42,6.46,-6.46,-6.56,-6.33,4.96,4.96,4.97
89.86,11.37,6.46,11.37,6.47,-6.47,-6.57,-6.37,4.90,4.90,4.91
90.76,11.33,6.50,11.33,6.49,-6.49,-6.57,-6.41,4.84,4.84,4.83
91.66,11.28,6.50,11.29,6.51,-6.51,-6.58,-6.46,4.77,4.78,4.78
92.58,11.24,6.53,11.25,6.53,-6.53,-6.58,-6.51,4.71,4.72,4.71
93.51,11.21,6.55,11.21,6.56,-6.56,-6.59,-6.56,4.65,4.65,4.66
94.44,11.19,6.59,11.18,6.59,-6.59,-6.60,-6.62,4.60,4.59,4.60
95.39,11.15,6.62,11.14,6.62,-6.62,-6.61,-6.68,4.53,4.52,4.53
96.34,11.11,6.65,11.11,6.65,-6.65,-6.62,-6.75,4.45,4.46,4.46
97.30,11.08,6.69,11.08,6.69,-6.69,-6.63,-6.82,4.38,4.39,4.39
98.28,11.05,6.73,11.06,6.74,-6.74,-6.64,-6.90,4.31,4.32,4.32
99.26,11.02,6.77,11.03,6.78,-6.78,-6.65,-6.98,4.24,4.25,4.25
100.25,11.01,6.83,11.01,6.83,-6.83,-6.67,-7.06,4.18,4.18,4.18
101.25,10.99,6.88,10.99,6.88,-6.88,-6.69,-7.14,4.11,4.11,4.11
102.27,10.97,6.93,10.97,6.93,-6.93,-6.70,-7.23,4.03,4.04,4.03
103.29,10.96,7.00,10.95,6.99,-6.99,-6.72,-7.32,3.97,3.96,3.96
104.32,10.94,7.05,10.93,7.04,-7.04,-6.74,-7.41,3.90,3.89,3.89
105.37,10.92,7.10,10.91,7.10,-7.10,-6.76,-7.50,3.82,3.82,3.82
106.42,10.90,7.16,10.90,7.16,-7.16,-6.79,-7.59,3.74,3.74,3.74
107.48,10.88,7.21,10.88,7.22,-7.22,-6.81,-7.69,3.66,3.66,3.67
108.56,10.86,7.27,10.86,7.27,-7.27,-6.83,-7.78,3.58,3.59,3.59
109.64,10.84,7.33,10.84,7.33,-7.33,-6.86,-7.87,3.51,3.51,3.51
110.74,10.82,7.38,10.82,7.39,-7.39,-6.89,-7.96,3.43,3.43,3.44
111.85,10.79,7.42,10.80,7.44,-7.44,-6.92,-8.04,3.35,3.36,3.37
112.97,10.77,7.50,10.77,7.49,-7.49,-6.95,-8.12,3.28,3.28,3.27
114.10,10.74,7.54,10.74,7.54,-7.54,-6.98,-8.20,3.20,3.20,3.20
115.24,10.72,7.59,10.70,7.58,-7.58,-7.01,-8.27,3.14,3.12,3.13
116.39,10.68,7.64,10.67,7.62,-7.62,-7.05,-8.34,3.06,3.05,3.04
117.55,10.64,7.67,10.63,7.65,-7.65,-7.08,-8.40,2.98,2.97,2.96
118.73,10.60,7.71,10.58,7.69,-7.69,-7.12,-8.45,2.91,2.90,2.89
119.92,10.55,7.72,10.54,7.71,-7.71,-7.16,-8.49,2.84,2.82,2.83
121.12,10.49,7.74,10.49,7.73,-7.73,-7.20,-8.53,2.75,2.75,2.75
122.33,10.43,7.75,10.43,7.75,-7.75,-7.24,-8.55,2.67,2.68,2.68
123.55,10.38,7.76,10.38,7.77,-7.77,-7.28,-8.56,2.61,2.61,2.62
124.79,10.32,7.78,10.32,7.78,-7.78,-7.33,-8.57,2.54,2.54,2.54
126.03,10.26,7.78,10.26,7.79,-7.79,-7.37,-8.56,2.47,2.47,2.48
127.29,10.20,7.79,10.20,7.80,-7.80,-7.42,-8.55,2.40,2.40,2.41
128.57,10.13,7.80,10.14,7.80,-7.80,-7.46,-8.52,2.33,2.34,2.33
129.85,10.08,7.81,10.08,7.80,-7.80,-7.51,-8.49,2.28,2.28,2.27
131.15,10.02,7.80,10.02,7.80,-7.80,-7.56,-8.44,2.21,2.22,2.21
132.46,9.96,7.81,9.96,7.81,-7.81,-7.60,-8.39,2.15,2.16,2.15
133.79,9.91,7.81,9.91,7.81,-7.81,-7.65,-8.33,2.10,2.10,2.10
135.12,9.85,7.81,9.85,7.81,-7.81,-7.70,-8.26,2.04,2.04,2.03
136.48,9.79,7.80,9.80,7.81,-7.81,-7.75,-8.19,1.98,1.99,1.99
137.84,9.73,7.78,9.75,7.81,-7.81,-7.80,-8.11,1.92,1.94,1.95
139.22,9.69,7.81,9.69,7.80,-7.80,-7.85,-8.02,1.89,1.89,1.88
140.61,9.64,7.81,9.64,7.80,-7.80,-7.90,-7.93,1.84,1.85,1.83
142.02,9.60,7.79,9.59,7.79,-7.79,-7.94,-7.84,1.81,1.80,1.81
143.44,9.55,7.78,9.54,7.78,-7.78,-7.99,-7.75,1.77,1.76,1.77
144.87,9.51,7.79,9.49,7.77,-7.77,-8.03,-7.65,1.74,1.72,1.72
146.32,9.46,7.78,9.45,7.76,-7.76,-8.08,-7.55,1.70,1.68,1.68
147.78,9.40,7.74,9.40,7.75,-7.75,-8.12,-7.46,1.65,1.65,1.65
149.26,9.35,7.73,9.35,7.74,-7.74,-8.16,-7.36,1.61,1.61,1.62
150.75,9.30,7.73,9.30,7.73,-7.73,-8.20,-7.26,1.57,1.57,1.57
152.26,9.25,7.71,9.25,7.72,-7.72,-8.23,-7.17,1.53,1.54,1.54
153.78,9.20,7.69,9.21,7.70,-7.70,-8.26,-7.08,1.49,1.50,1.50
155.32,9.16,7.69,9.16,7.69,-7.69,-8.29,-6.99,1.47,1.47,1.47
156.88,9.11,7.67,9.11,7.68,-7.68,-8.32,-6.90,1.43,1.43,1.44
158.44,9.06,7.66,9.06,7.66,-7.66,-8.34,-6.82,1.39,1.40,1.40
160.03,9.02,7.66,9.02,7.65,-7.65,-8.35,-6.74,1.37,1.37,1.36
161.63,8.97,7.65,8.97,7.64,-7.64,-8.37,-6.66,1.33,1.33,1.32
163.24,8.93,7.63,8.92,7.63,-7.63,-8.37,-6.59,1.30,1.30,1.29
164.88,8.88,7.61,8.88,7.62,-7.62,-8.37,-6.52,1.26,1.26,1.27
166.53,8.83,7.60,8.83,7.61,-7.61,-8.37,-6.45,1.22,1.23,1.23
168.19,8.78,7.59,8.79,7.60,-7.60,-8.36,-6.39,1.18,1.19,1.19
169.87,8.73,7.58,8.74,7.59,-7.59,-8.35,-6.34,1.14,1.15,1.15
171.57,8.69,7.57,8.69,7.57,-7.57,-8.33,-6.28,1.12,1.11,1.12
173.29,8.63,7.54,8.64,7.56,-7.56,-8.30,-6.24,1.07,1.08,1.09
175.02,8.59,7.54,8.58,7.54,-7.54,-8.27,-6.20,1.04,1.04,1.05
176.77,8.53,7.53,8.52,7.53,-7.53,-8.23,-6.16,1.00,1.00,1.00
178.54,8.48,7.52,8.46,7.50,-7.50,-8.19,-6.13,0.98,0.96,0.96
180.32,8.42,7.50,8.40,7.48,-7.48,-8.14,-6.10,0.94,0.92,0.92
182.13,8.36,7.48,8.33,7.45,-7.45,-8.09,-6.07,0.90,0.88,0.88
183.95,8.29,7.45,8.27,7.43,-7.43,-8.03,-6.05,0.86,0.84,0.83
185.79,8.21,7.41,8.20,7.40,-7.40,-7.96,-6.04,0.81,0.80,0.80
187.65,8.13,7.38,8.13,7.37,-7.37,-7.89,-6.03,0.76,0.76,0.75
189.52,8.05,7.33,8.06,7.34,-7.34,-7.82,-6.02,0.71,0.72,0.72
191.42,7.98,7.29,7.99,7.31,-7.31,-7.74,-6.02,0.67,0.69,0.68
193.33,7.91,7.25,7.93,7.28,-7.28,-7.66,-6.02,0.63,0.65,0.66
195.27,7.85,7.22,7.87,7.25,-7.25,-7.57,-6.03,0.60,0.62,0.63
197.22,7.79,7.19,7.81,7.22,-7.22,-7.48,-6.03,0.57,0.59,0.60
199.19,7.74,7.19,7.76,7.20,-7.20,-7.38,-6.05,0.54,0.56,0.55
201.18,7.70,7.17,7.71,7.18,-7.18,-7.29,-6.06,0.52,0.53,0.53
203.19,7.66,7.15,7.66,7.16,-7.16,-7.19,-6.08,0.50,0.50,0.51
205.23,7.62,7.14,7.62,7.14,-7.14,-7.08,-6.10,0.47,0.48,0.48
207.28,7.60,7.13,7.58,7.13,-7.13,-6.98,-6.12,0.47,0.45,0.47
209.35,7.56,7.13,7.55,7.12,-7.12,-6.87,-6.14,0.44,0.43,0.43
211.44,7.52,7.12,7.52,7.11,-7.11,-6.76,-6.17,0.41,0.41,0.40
213.56,7.48,7.09,7.48,7.09,-7.09,-6.65,-6.19,0.38,0.39,0.39
215.69,7.45,7.07,7.45,7.08,-7.08,-6.54,-6.22,0.37,0.37,0.38
217.85,7.41,7.04,7.42,7.06,-7.06,-6.43,-6.24,0.35,0.36,0.36
220.03,7.38,7.04,7.38,7.04,-7.04,-6.32,-6.26,0.34,0.35,0.34
222.23,7.35,7.02,7.34,7.01,-7.01,-6.21,-6.29,0.34,0.34,0.33
224.45,7.31,6.98,7.30,6.98,-6.98,-6.10,-6.30,0.33,0.33,0.33
226.70,7.26,6.94,7.26,6.94,-6.94,-5.99,-6.32,0.32,0.32,0.32
228.96,7.22,6.90,7.22,6.90,-6.90,-5.88,-6.33,0.32,0.32,0.31
231.25,7.16,6.84,7.16,6.84,-6.84,-5.76,-6.34,0.31,0.32,0.32
233.57,7.10,6.77,7.11,6.78,-6.78,-5.65,-6.35,0.31,0.32,0.33
235.90,7.03,6.70,7.04,6.71,-6.71,-5.55,-6.35,0.31,0.33,0.33
238.26,6.97,6.64,6.97,6.64,-6.64,-5.44,-6.34,0.33,0.34,0.33
240.64,6.90,6.55,6.89,6.54,-6.54,-5.33,-6.33,0.35,0.35,0.35
243.05,6.83,6.47,6.80,6.44,-6.44,-5.22,-6.31,0.39,0.36,0.36
245.48,6.71,6.33,6.69,6.32,-6.32,-5.12,-6.29,0.39,0.37,0.37
247.93,6.60,6.21,6.58,6.19,-6.19,-5.01,-6.26,0.41,0.39,0.39
250.41,6.49,6.09,6.45,6.04,-6.04,-4.91,-6.22,0.44,0.40,0.40
252.92,6.35,5.92,6.31,5.89,-5.89,-4.81,-6.17,0.46,0.42,0.43
255.45,6.19,5.74,6.16,5.72,-5.72,-4.71,-6.12,0.47,0.44,0.45
258.00,6.03,5.56,6.00,5.54,-5.54,-4.61,-6.06,0.49,0.46,0.47
260.58,5.87,5.39,5.83,5.35,-5.35,-4.52,-5.99,0.52,0.48,0.48
263.19,5.68,5.18,5.66,5.16,-5.16,-4.42,-5.92,0.52,0.51,0.50
265.82,5.50,4.97,5.49,4.97,-4.97,-4.33,-5.84,0.53,0.53,0.53
268.48,5.31,4.76,5.32,4.77,-4.77,-4.23,-5.75,0.53,0.55,0.55
271.16,5.14,4.56,5.16,4.59,-4.59,-4.14,-5.66,0.55,0.57,0.58
273.87,4.97,4.37,5.00,4.41,-4.41,-4.06,-5.56,0.56,0.60,0.59
276.61,4.82,4.19,4.86,4.24,-4.24,-3.97,-5.46,0.58,0.62,0.63
279.38,4.69,4.05,4.72,4.08,-4.08,-3.88,-5.36,0.61,0.64,0.64
282.17,4.57,3.90,4.61,3.94,-3.94,-3.80,-5.25,0.63,0.67,0.67
284.99,4.46,3.77,4.51,3.82,-3.82,-3.72,-5.14,0.64,0.69,0.69
287.84,4.38,3.66,4.42,3.70,-3.70,-3.63,-5.02,0.67,0.72,0.71
290.72,4.33,3.58,4.35,3.61,-3.61,-3.55,-4.91,0.72,0.75,0.75
293.63,4.28,3.51,4.30,3.53,-3.53,-3.48,-4.79,0.75,0.77,0.76
296.57,4.24,3.44,4.26,3.46,-3.46,-3.40,-4.67,0.78,0.80,0.80
299.53,4.21,3.38,4.23,3.40,-3.40,-3.32,-4.55,0.81,0.83,0.82
302.53,4.20,3.35,4.20,3.34,-3.34,-3.25,-4.43,0.86,0.86,0.85
305.55,4.20,3.30,4.18,3.29,-3.29,-3.18,-4.31,0.91,0.89,0.89
308.61,4.20,3.28,4.17,3.25,-3.25,-3.11,-4.19,0.95,0.92,0.92
311.69,4.19,3.23,4.15,3.20,-3.20,-3.04,-4.08,0.99,0.95,0.96
314.81,4.17,3.18,4.14,3.15,-3.15,-2.97,-3.96,1.01,0.98,0.99
317.96,4.14,3.12,4.12,3.11,-3.11,-2.90,-3.84,1.03,1.01,1.02
321.14,4.12,3.07,4.10,3.05,-3.05,-2.84,-3.73,1.06,1.04,1.04
324.35,4.08,3.01,4.07,3.00,-3.00,-2.78,-3.62,1.08,1.07,1.07
327.59,4.05,2.94,4.04,2.94,-2.94,-2.71,-3.50,1.11,1.10,1.11
330.87,4.00,2.86,4.00,2.87,-2.87,-2.65,-3.39,1.13,1.13,1.13
334.18,3.95,2.80,3.96,2.80,-2.80,-2.59,-3.29,1.15,1.15,1.15
337.52,3.92,2.74,3.91,2.73,-2.73,-2.53,-3.18,1.19,1.18,1.18
340.90,3.86,2.65,3.85,2.65,-2.65,-2.47,-3.08,1.21,1.20,1.21
344.30,3.80,2.58,3.79,2.57,-2.57,-2.42,-2.97,1.23,1.22,1.22
347.75,3.73,2.48,3.73,2.48,-2.48,-2.36,-2.87,1.24,1.24,1.25
351.23,3.67,2.40,3.66,2.40,-2.40,-2.31,-2.77,1.27,1.26,1.27
354.74,3.59,2.30,3.60,2.31,-2.31,-2.25,-2.68,1.28,1.28,1.28
358.28,3.52,2.22,3.52,2.22,-2.22,-2.20,-2.58,1.30,1.30,1.30
361.87,3.46,2.14,3.45,2.13,-2.13,-2.15,-2.49,1.33,1.32,1.32
365.49,3.39,2.04,3.38,2.04,-2.04,-2.10,-2.40,1.35,1.34,1.35
369.14,3.31,1.95,3.31,1.94,-1.94,-2.05,-2.31,1.36,1.36,1.36
372.83,3.23,1.85,3.23,1.85,-1.85,-2.00,-2.23,1.38,1.38,1.37
376.56,3.16,1.77,3.16,1.76,-1.76,-1.96,-2.14,1.40,1.40,1.39
380.33,3.09,1.67,3.09,1.67,-1.67,-1.91,-2.06,1.42,1.42,1.42
384.13,3.02,1.58,3.02,1.58,-1.58,-1.86,-1.98,1.44,1.44,1.44
387.97,2.94,1.48,2.95,1.50,-1.50,-1.82,-1.90,1.44,1.46,1.46
391.85,2.87,1.39,2.89,1.41,-1.41,-1.77,-1.82,1.46,1.48,1.47
395.77,2.82,1.32,2.83,1.33,-1.33,-1.73,-1.74,1.49,1.50,1.50
399.73,2.77,1.25,2.77,1.25,-1.25,-1.69,-1.67,1.52,1.52,1.52
403.72,2.72,1.18,2.72,1.18,-1.18,-1.65,-1.60,1.54,1.54,1.54
407.76,2.67,1.11,2.67,1.11,-1.11,-1.60,-1.52,1.56,1.56,1.56
411.84,2.62,1.03,2.62,1.04,-1.04,-1.56,-1.46,1.58,1.58,1.59
415.96,2.59,0.98,2.58,0.98,-0.98,-1.52,-1.39,1.61,1.61,1.61
420.12,2.54,0.91,2.54,0.92,-0.92,-1.49,-1.32,1.62,1.63,1.62
424.32,2.51,0.86,2.51,0.86,-0.86,-1.45,-1.25,1.65,1.65,1.65
428.56,2.48,0.81,2.48,0.81,-0.81,-1.41,-1.19,1.67,1.67,1.67
432.85,2.45,0.76,2.45,0.75,-0.75,-1.37,-1.13,1.70,1.70,1.69
437.18,2.42,0.70,2.42,0.70,-0.70,-1.34,-1.06,1.72,1.72,1.72
441.55,2.40,0.65,2.40,0.65,-0.65,-1.30,-1.00,1.75,1.74,1.75
445.96,2.37,0.60,2.37,0.60,-0.60,-1.26,-0.94,1.77,1.77,1.77
450.42,2.36,0.57,2.35,0.56,-0.56,-1.23,-0.89,1.80,1.80,1.79
454.93,2.34,0.51,2.33,0.51,-0.51,-1.19,-0.83,1.83,1.82,1.83
459.48,2.32,0.47,2.32,0.47,-0.47,-1.16,-0.77,1.85,1.85,1.84
464.07,2.30,0.42,2.30,0.42,-0.42,-1.13,-0.72,1.88,1.88,1.87
468.71,2.29,0.38,2.29,0.38,-0.38,-1.09,-0.67,1.91,1.90,1.91
473.40,2.28,0.35,2.27,0.34,-0.34,-1.06,-0.61,1.94,1.93,1.93
478.13,2.26,0.30,2.26,0.30,-0.30,-1.03,-0.56,1.96,1.96,1.96
482.91,2.25,0.26,2.25,0.26,-0.26,-0.99,-0.51,1.99,1.99,1.99
487.74,2.25,0.23,2.25,0.23,-0.23,-0.96,-0.46,2.02,2.02,2.02
492.62,2.25,0.20,2.24,0.20,-0.20,-0.93,-0.41,2.05,2.05,2.05
497.55,2.25,0.18,2.24,0.17,-0.17,-0.90,-0.36,2.08,2.07,2.07
502.52,2.24,0.13,2.24,0.14,-0.14,-0.87,-0.32,2.10,2.10,2.11
507.55,2.24,0.11,2.24,0.12,-0.12,-0.84,-0.27,2.12,2.13,2.13
512.62,2.24,0.08,2.25,0.09,-0.09,-0.81,-0.23,2.15,2.16,2.16
