frequency,raw,error,smoothed,error_smoothed,equalization,parametric_eq,fixed_band_eq,equalized_raw,equalized_smoothed,target
20.00,2.23,-0.09,2.22,-0.12,0.12,0.01,-0.04,2.35,2.34,2.32
20.20,2.25,-0.11,2.25,-0.13,0.13,0.01,-0.04,2.38,2.37,2.36
20.40,2.28,-0.12,2.27,-0.13,0.13,0.01,-0.04,2.41,2.40,2.40
20.61,2.30,-0.13,2.30,-0.13,0.13,0.01,-0.04,2.43,2.43,2.43
20.81,2.33,-0.14,2.33,-0.13,0.13,0.01,-0.05,2.46,2.46,2.47
21.02,2.35,-0.16,2.36,-0.13,0.13,0.01,-0.05,2.48,2.48,2.51
21.23,2.38,-0.15,2.39,-0.12,0.12,0.01,-0.05,2.50,2.51,2.53
21.44,2.41,-0.14,2.42,-0.12,0.12,0.01,-0.05,2.53,2.53,2.55
21.66,2.44,-0.13,2.44,-0.11,0.11,0.01,-0.06,2.55,2.55,2.57
21.87,2.47,-0.11,2.47,-0.10,0.10,0.01,-0.06,2.57,2.57,2.58
22.09,2.49,-0.11,2.50,-0.09,0.09,0.01,-0.06,2.58,2.59,2.60
22.31,2.52,-0.09,2.53,-0.08,0.08,0.01,-0.07,2.60,2.61,2.61
22.54,2.56,-0.06,2.56,-0.06,0.06,0.01,-0.07,2.62,2.62,2.62
22.76,2.59,-0.04,2.59,-0.04,0.04,0.01,-0.07,2.63,2.63,2.63
22.99,2.63,0.00,2.63,-0.01,0.01,0.01,-0.08,2.64,2.64,2.63
23.22,2.67,0.03,2.66,0.01,-0.01,0.01,-0.08,2.66,2.65,2.64
23.45,2.70,0.05,2.69,0.03,-0.03,0.01,-0.09,2.67,2.66,2.65
23.69,2.72,0.06,2.72,0.05,-0.05,0.01,-0.09,2.67,2.67,2.66
23.92,2.74,0.07,2.75,0.08,-0.08,0.01,-0.09,2.66,2.67,2.67
24.16,2.77,0.08,2.78,0.10,-0.10,0.01,-0.10,2.67,2.68,2.69
24.40,2.80,0.09,2.81,0.12,-0.12,0.01,-0.10,2.68,2.69,2.71
24.65,2.83,0.13,2.84,0.13,-0.13,0.01,-0.11,2.70,2.70,2.70
24.89,2.85,0.14,2.86,0.14,-0.14,0.01,-0.11,2.71,2.71,2.71
25.14,2.88,0.16,2.87,0.15,-0.15,0.01,-0.11,2.73,2.72,2.72
25.39,2.90,0.17,2.89,0.15,-0.15,0.01,-0.12,2.75,2.73,2.73
25.65,2.92,0.17,2.90,0.15,-0.15,0.01,-0.12,2.77,2.74,2.75
25.91,2.93,0.18,2.90,0.15,-0.15,0.01,-0.13,2.78,2.75,2.75
26.16,2.94,0.18,2.91,0.15,-0.15,0.01,-0.13,2.79,2.76,2.76
26.43,2.94,0.17,2.91,0.14,-0.14,0.02,-0.13,2.80,2.77,2.77
26.69,2.93,0.15,2.92,0.14,-0.14,0.02,-0.14,2.79,2.78,2.78
26.96,2.91,0.11,2.92,0.13,-0.13,0.02,-0.14,2.78,2.79,2.80
27.23,2.90,0.09,2.92,0.12,-0.12,0.02,-0.15,2.78,2.80,2.81
27.50,2.90,0.09,2.92,0.12,-0.12,0.02,-0.15,2.78,2.81,2.81
27.77,2.90,0.09,2.93,0.11,-0.11,0.02,-0.15,2.79,2.82,2.81
28.05,2.91,0.08,2.94,0.11,-0.11,0.02,-0.16,2.80,2.83,2.83
28.33,2.93,0.10,2.95,0.12,-0.12,0.02,-0.16,2.81,2.83,2.83
28.62,2.95,0.11,2.97,0.12,-0.12,0.02,-0.16,2.83,2.84,2.84
28.90,2.98,0.13,2.99,0.14,-0.14,0.02,-0.16,2.84,2.85,2.85
29.19,3.01,0.16,3.01,0.15,-0.15,0.02,-0.17,2.86,2.86,2.85
29.48,3.04,0.16,3.04,0.17,-0.17,0.02,-0.17,2.87,2.86,2.88
29.78,3.07,0.20,3.07,0.20,-0.20,0.02,-0.17,2.87,2.87,2.87
30.08,3.10,0.22,3.10,0.22,-0.22,0.02,-0.17,2.88,2.88,2.88
30.38,3.13,0.25,3.13,0.25,-0.25,0.02,-0.17,2.88,2.88,2.88
30.68,3.16,0.26,3.16,0.26,-0.26,0.02,-0.17,2.90,2.89,2.90
30.99,3.19,0.29,3.18,0.28,-0.28,0.02,-0.17,2.91,2.90,2.90
31.30,3.21,0.31,3.20,0.30,-0.30,0.02,-0.17,2.91,2.91,2.90
31.61,3.23,0.32,3.22,0.31,-0.31,0.02,-0.17,2.92,2.91,2.91
31.93,3.25,0.33,3.23,0.31,-0.31,0.03,-0.16,2.94,2.92,2.92
32.24,3.26,0.34,3.24,0.32,-0.32,0.03,-0.16,2.94,2.93,2.92
32.57,3.27,0.33,3.25,0.31,-0.31,0.03,-0.16,2.96,2.93,2.94
32.89,3.27,0.33,3.25,0.31,-0.31,0.03,-0.15,2.96,2.94,2.94
33.22,3.26,0.31,3.26,0.31,-0.31,0.03,-0.15,2.95,2.95,2.95
33.55,3.25,0.29,3.26,0.30,-0.30,0.03,-0.14,2.95,2.96,2.96
33.89,3.24,0.27,3.26,0.30,-0.30,0.03,-0.14,2.94,2.96,2.97
34.23,3.24,0.27,3.26,0.29,-0.29,0.03,-0.13,2.95,2.97,2.97
34.57,3.24,0.26,3.26,0.29,-0.29,0.03,-0.13,2.95,2.98,2.98
34.92,3.24,0.26,3.26,0.28,-0.28,0.03,-0.12,2.96,2.98,2.98
35.27,3.24,0.25,3.26,0.28,-0.28,0.03,-0.11,2.96,2.99,2.99
35.62,3.25,0.26,3.26,0.27,-0.27,0.03,-0.11,2.98,2.99,2.99
35.97,3.26,0.27,3.26,0.26,-0.26,0.04,-0.10,3.00,2.99,2.99
36.33,3.27,0.27,3.25,0.26,-0.26,0.04,-0.09,3.01,2.99,3.00
36.70,3.27,0.28,3.25,0.25,-0.25,0.04,-0.08,3.02,3.00,2.99
37.06,3.26,0.26,3.24,0.24,-0.24,0.04,-0.07,3.02,3.00,3.00
37.43,3.25,0.25,3.23,0.23,-0.23,0.04,-0.07,3.01,2.99,3.00
37.81,3.23,0.23,3.22,0.22,-0.22,0.04,-0.06,3.01,2.99,3.00
38.19,3.21,0.21,3.20,0.21,-0.21,0.04,-0.05,3.00,2.99,3.00
38.57,3.18,0.19,3.18,0.19,-0.19,0.04,-0.04,2.99,2.99,2.99
38.95,3.15,0.16,3.16,0.17,-0.17,0.05,-0.03,2.98,2.99,2.99
39.34,3.12,0.14,3.13,0.15,-0.15,0.05,-0.02,2.97,2.99,2.98
39.74,3.09,0.11,3.11,0.12,-0.12,0.05,-0.01,2.97,2.98,2.98
40.14,3.07,0.09,3.07,0.09,-0.09,0.05,0.00,2.98,2.98,2.98
40.54,3.05,0.07,3.04,0.06,-0.06,0.05,0.01,2.99,2.98,2.98
40.94,3.02,0.05,3.01,0.04,-0.04,0.05,0.02,2.98,2.98,2.97
41.35,2.99,0.02,2.98,0.01,-0.01,0.05,0.03,2.98,2.97,2.97
41.76,2.96,-0.01,2.95,-0.02,0.02,0.06,0.04,2.98,2.97,2.97
42.18,2.92,-0.05,2.92,-0.05,0.05,0.06,0.05,2.97,2.97,2.97
42.60,2.88,-0.09,2.89,-0.07,0.07,0.06,0.07,2.95,2.96,2.97
43.03,2.85,-0.12,2.86,-0.10,0.10,0.06,0.08,2.95,2.96,2.97
43.46,2.82,-0.15,2.83,-0.13,0.13,0.06,0.09,2.95,2.96,2.97
43.90,2.79,-0.16,2.80,-0.16,0.16,0.07,0.10,2.95,2.96,2.95
44.33,2.77,-0.18,2.77,-0.19,0.19,0.07,0.11,2.96,2.95,2.95
44.78,2.75,-0.19,2.73,-0.22,0.22,0.07,0.12,2.97,2.95,2.94
45.23,2.72,-0.22,2.71,-0.24,0.24,0.07,0.13,2.96,2.95,2.94
45.68,2.69,-0.25,2.68,-0.26,0.26,0.07,0.14,2.95,2.94,2.94
46.13,2.66,-0.27,2.66,-0.28,0.28,0.08,0.16,2.94,2.94,2.93
46.60,2.63,-0.31,2.64,-0.29,0.29,0.08,0.17,2.92,2.93,2.94
47.06,2.61,-0.32,2.62,-0.30,0.30,0.08,0.18,2.91,2.93,2.93
47.53,2.59,-0.33,2.61,-0.31,0.31,0.08,0.19,2.90,2.92,2.92
48.01,2.58,-0.35,2.60,-0.31,0.31,0.09,0.20,2.89,2.91,2.93
48.49,2.57,-0.34,2.59,-0.31,0.31,0.09,0.22,2.88,2.90,2.91
48.97,2.57,-0.32,2.58,-0.31,0.31,0.09,0.23,2.88,2.89,2.89
49.46,2.58,-0.30,2.58,-0.30,0.30,0.10,0.24,2.88,2.88,2.88
49.96,2.59,-0.27,2.58,-0.29,0.29,0.10,0.25,2.88,2.87,2.86
50.46,2.59,-0.27,2.58,-0.27,0.27,0.10,0.26,2.86,2.85,2.86
50.96,2.59,-0.25,2.59,-0.25,0.25,0.11,0.28,2.84,2.84,2.84
51.47,2.59,-0.22,2.59,-0.23,0.23,0.11,0.29,2.82,2.82,2.81
51.99,2.59,-0.21,2.60,-0.21,0.21,0.12,0.30,2.80,2.80,2.80
52.51,2.59,-0.20,2.60,-0.18,0.18,0.12,0.31,2.77,2.79,2.79
53.03,2.60,-0.17,2.61,-0.16,0.16,0.12,0.32,2.76,2.77,2.77
53.56,2.61,-0.15,2.61,-0.14,0.14,0.13,0.34,2.75,2.75,2.76
54.10,2.62,-0.11,2.61,-0.12,0.12,0.13,0.35,2.74,2.73,2.73
54.64,2.62,-0.10,2.61,-0.10,0.10,0.14,0.36,2.72,2.71,2.72
55.18,2.61,-0.08,2.60,-0.09,0.09,0.14,0.37,2.70,2.69,2.69
55.74,2.60,-0.06,2.59,-0.08,0.08,0.15,0.38,2.68,2.67,2.66
56.29,2.59,-0.07,2.58,-0.07,0.07,0.15,0.39,2.66,2.65,2.66
56.86,2.57,-0.06,2.57,-0.06,0.06,0.16,0.40,2.63,2.63,2.63
57.42,2.55,-0.05,2.55,-0.06,0.06,0.17,0.41,2.61,2.61,2.60
58.00,2.53,-0.05,2.53,-0.06,0.06,0.17,0.42,2.59,2.59,2.58
58.58,2.51,-0.05,2.50,-0.06,0.06,0.18,0.43,2.57,2.56,2.56
59.16,2.47,-0.07,2.47,-0.06,0.06,0.19,0.44,2.53,2.53,2.54
59.76,2.43,-0.09,2.43,-0.07,0.07,0.20,0.44,2.50,2.50,2.52
60.35,2.39,-0.10,2.39,-0.08,0.08,0.20,0.45,2.47,2.47,2.49
60.96,2.35,-0.11,2.35,-0.09,0.09,0.21,0.46,2.44,2.44,2.46
61.57,2.31,-0.10,2.31,-0.10,0.10,0.22,0.46,2.41,2.41,2.41
62.18,2.26,-0.11,2.26,-0.11,0.11,0.23,0.47,2.37,2.38,2.37
62.80,2.21,-0.14,2.21,-0.13,0.13,0.24,0.47,2.34,2.34,2.35
63.43,2.16,-0.14,2.16,-0.15,0.15,0.25,0.47,2.31,2.31,2.30
64.07,2.11,-0.15,2.10,-0.17,0.17,0.26,0.48,2.28,2.27,2.26
64.71,2.04,-0.19,2.04,-0.19,0.19,0.27,0.48,2.23,2.23,2.23
65.35,1.98,-0.21,1.98,-0.21,0.21,0.28,0.48,2.19,2.19,2.19
66.01,1.92,-0.23,1.92,-0.24,0.24,0.30,0.48,2.16,2.15,2.15
66.67,1.86,-0.26,1.85,-0.26,0.26,0.31,0.49,2.12,2.11,2.12
67.33,1.79,-0.29,1.78,-0.29,0.29,0.32,0.49,2.08,2.07,2.08
68.01,1.71,-0.33,1.71,-0.33,0.33,0.34,0.49,2.04,2.04,2.04
68.69,1.63,-0.37,1.63,-0.37,0.37,0.36,0.49,2.00,2.00,2.00
69.37,1.55,-0.41,1.55,-0.41,0.41,0.37,0.49,1.96,1.96,1.96
70.07,1.48,-0.44,1.47,-0.45,0.45,0.39,0.48,1.93,1.92,1.92
70.77,1.40,-0.48,1.39,-0.49,0.49,0.41,0.48,1.89,1.88,1.88
71.48,1.33,-0.52,1.32,-0.52,0.52,0.43,0.48,1.85,1.84,1.85
72.19,1.25,-0.55,1.25,-0.56,0.56,0.45,0.48,1.81,1.80,1.80
72.91,1.17,-0.60,1.17,-0.59,0.59,0.47,0.48,1.76,1.77,1.77
73.64,1.08,-0.65,1.10,-0.63,0.63,0.49,0.48,1.71,1.73,1.73
74.38,1.01,-0.69,1.04,-0.66,0.66,0.52,0.48,1.67,1.70,1.70
75.12,0.95,-0.71,0.97,-0.69,0.69,0.54,0.48,1.64,1.66,1.66
75.87,0.90,-0.73,0.92,-0.72,0.72,0.57,0.47,1.62,1.63,1.63
76.63,0.86,-0.74,0.86,-0.74,0.74,0.59,0.47,1.60,1.60,1.60
77.40,0.82,-0.75,0.81,-0.76,0.76,0.62,0.47,1.58,1.57,1.57
78.17,0.78,-0.76,0.77,-0.78,0.78,0.65,0.47,1.56,1.54,1.54
78.95,0.73,-0.78,0.72,-0.79,0.79,0.68,0.47,1.52,1.51,1.51
79.74,0.68,-0.81,0.69,-0.80,0.80,0.71,0.47,1.48,1.49,1.49
80.54,0.64,-0.83,0.65,-0.81,0.81,0.75,0.47,1.45,1.46,1.47
81.35,0.60,-0.84,0.62,-0.82,0.82,0.78,0.47,1.42,1.44,1.44
82.16,0.58,-0.83,0.58,-0.83,0.83,0.81,0.47,1.41,1.41,1.41
82.98,0.55,-0.85,0.55,-0.84,0.84,0.85,0.47,1.39,1.39,1.40
83.81,0.52,-0.85,0.51,-0.86,0.86,0.88,0.47,1.38,1.37,1.37
84.65,0.49,-0.85,0.47,-0.88,0.88,0.91,0.48,1.37,1.35,1.34
85.50,0.45,-0.88,0.43,-0.89,0.89,0.95,0.48,1.34,1.33,1.33
86.35,0.42,-0.89,0.39,-0.92,0.92,0.98,0.48,1.34,1.31,1.31
87.22,0.38,-0.91,0.35,-0.94,0.94,1.01,0.48,1.32,1.29,1.29
88.09,0.33,-0.94,0.31,-0.96,0.96,1.04,0.49,1.29,1.27,1.27
88.97,0.28,-0.97,0.28,-0.97,0.97,1.06,0.49,1.25,1.25,1.25
89.86,0.23,-1.01,0.24,-0.99,0.99,1.09,0.50,1.22,1.23,1.24
90.76,0.18,-1.03,0.20,-1.01,1.01,1.11,0.50,1.19,1.21,1.21
91.66,0.14,-1.05,0.17,-1.03,1.03,1.12,0.51,1.17,1.19,1.19
92.58,0.11,-1.06,0.14,-1.04,1.04,1.13,0.51,1.15,1.17,1.17
93.51,0.08,-1.08,0.11,-1.05,1.05,1.14,0.52,1.13,1.15,1.16
94.44,0.07,-1.07,0.08,-1.05,1.05,1.14,0.52,1.12,1.13,1.14
95.39,0.05,-1.07,0.06,-1.05,1.05,1.14,0.53,1.10,1.11,1.12
96.34,0.04,-1.05,0.03,-1.05,1.05,1.14,0.54,1.09,1.09,1.09
97.30,0.03,-1.03,0.01,-1.05,1.05,1.13,0.54,1.08,1.06,1.06
98.28,0.01,-1.02,-0.00,-1.04,1.04,1.11,0.55,1.05,1.04,1.03
99.26,-0.02,-1.03,-0.02,-1.03,1.03,1.09,0.56,1.01,1.01,1.01
100.25,-0.04,-1.02,-0.04,-1.02,1.02,1.07,0.57,0.98,0.98,0.98
101.25,-0.05,-1.00,-0.06,-1.01,1.01,1.04,0.57,0.96,0.95,0.95
102.27,-0.07,-0.98,-0.08,-1.00,1.00,1.01,0.58,0.93,0.92,0.91
103.29,-0.09,-0.97,-0.11,-0.99,0.99,0.98,0.59,0.90,0.88,0.88
104.32,-0.12,-0.97,-0.13,-0.97,0.97,0.95,0.60,0.85,0.84,0.85
105.37,-0.15,-0.96,-0.16,-0.96,0.96,0.91,0.61,0.81,0.80,0.81
106.42,-0.18,-0.94,-0.19,-0.95,0.95,0.88,0.61,0.77,0.76,0.76
107.48,-0.21,-0.94,-0.21,-0.93,0.93,0.84,0.62,0.72,0.71,0.73
108.56,-0.24,-0.91,-0.24,-0.91,0.91,0.81,0.63,0.67,0.67,0.67
109.64,-0.27,-0.89,-0.26,-0.88,0.88,0.77,0.64,0.61,0.62,0.62
110.74,-0.29,-0.86,-0.28,-0.84,0.84,0.74,0.64,0.55,0.56,0.57
111.85,-0.31,-0.83,-0.30,-0.81,0.81,0.70,0.65,0.50,0.51,0.52
112.97,-0.33,-0.78,-0.31,-0.76,0.76,0.67,0.65,0.43,0.45,0.45
114.10,-0.34,-0.74,-0.32,-0.72,0.72,0.63,0.66,0.38,0.39,0.40
115.24,-0.35,-0.69,-0.33,-0.66,0.66,0.60,0.66,0.31,0.34,0.34
116.39,-0.35,-0.62,-0.33,-0.61,0.61,0.57,0.66,0.26,0.28,0.27
117.55,-0.34,-0.55,-0.33,-0.55,0.55,0.54,0.66,0.21,0.22,0.21
118.73,-0.33,-0.48,-0.33,-0.49,0.49,0.51,0.66,0.16,0.16,0.15
119.92,-0.32,-0.42,-0.33,-0.43,0.43,0.48,0.66,0.11,0.10,0.10
121.12,-0.31,-0.35,-0.32,-0.37,0.37,0.46,0.66,0.06,0.05,0.04
122.33,-0.31,-0.30,-0.32,-0.31,0.31,0.43,0.66,-0.00,-0.01,-0.01
123.55,-0.30,-0.24,-0.32,-0.25,0.25,0.41,0.65,-0.05,-0.06,-0.06
124.79,-0.30,-0.19,-0.32,-0.20,0.20,0.38,0.65,-0.10,-0.12,-0.11
126.03,-0.31,-0.15,-0.32,-0.16,0.16,0.36,0.64,-0.15,-0.17,-0.16
127.29,-0.33,-0.12,-0.33,-0.11,0.11,0.34,0.63,-0.22,-0.22,-0.21
128.57,-0.35,-0.08,-0.34,-0.08,0.08,0.32,0.63,-0.27,-0.26,-0.27
129.85,-0.36,-0.05,-0.36,-0.05,0.05,0.30,0.62,-0.31,-0.31,-0.31
131.15,-0.38,-0.02,-0.38,-0.03,0.03,0.28,0.60,-0.35,-0.35,-0.36
132.46,-0.40,0.00,-0.41,-0.01,0.01,0.26,0.59,-0.39,-0.40,-0.40
133.79,-0.43,0.01,-0.44,0.00,-0.00,0.24,0.58,-0.43,-0.44,-0.44
135.12,-0.47,0.01,-0.47,0.01,-0.01,0.23,0.56,-0.48,-0.48,-0.48
136.48,-0.51,0.01,-0.51,0.01,-0.01,0.21,0.55,-0.52,-0.52,-0.52
137.84,-0.55,0.01,-0.56,0.01,-0.01,0.20,0.53,-0.56,-0.56,-0.56
139.22,-0.59,0.02,-0.60,0.00,-0.00,0.18,0.51,-0.59,-0.60,-0.61
140.61,-0.65,0.00,-0.65,-0.01,0.01,0.17,0.49,-0.64,-0.64,-0.65
142.02,-0.71,-0.04,-0.70,-0.02,0.02,0.15,0.47,-0.69,-0.68,-0.67
143.44,-0.76,-0.05,-0.76,-0.04,0.04,0.14,0.45,-0.72,-0.71,-0.71
144.87,-0.82,-0.07,-0.81,-0.06,0.06,0.13,0.43,-0.76,-0.75,-0.75
146.32,-0.87,-0.08,-0.87,-0.09,0.09,0.11,0.41,-0.78,-0.79,-0.79
147.78,-0.93,-0.11,-0.93,-0.11,0.11,0.10,0.39,-0.82,-0.83,-0.82
149.26,-0.99,-0.14,-1.00,-0.13,0.13,0.09,0.37,-0.86,-0.87,-0.85
150.75,-1.06,-0.15,-1.06,-0.15,0.15,0.08,0.34,-0.91,-0.91,-0.91
152.26,-1.12,-0.17,-1.12,-0.17,0.17,0.07,0.32,-0.95,-0.95,-0.95
153.78,-1.19,-0.21,-1.18,-0.19,0.19,0.06,0.30,-1.00,-0.99,-0.98
155.32,-1.25,-0.21,-1.25,-0.21,0.21,0.05,0.27,-1.04,-1.03,-1.04
156.88,-1.31,-0.24,-1.31,-0.23,0.23,0.04,0.25,-1.08,-1.08,-1.07
158.44,-1.37,-0.25,-1.37,-0.25,0.25,0.03,0.23,-1.12,-1.12,-1.12
160.03,-1.43,-0.26,-1.43,-0.26,0.26,0.02,0.20,-1.17,-1.17,-1.17
161.63,-1.48,-0.26,-1.49,-0.28,0.28,0.01,0.18,-1.20,-1.21,-1.22
163.24,-1.54,-0.28,-1.54,-0.29,0.29,-0.00,0.15,-1.25,-1.26,-1.26
164.88,-1.60,-0.30,-1.60,-0.29,0.29,-0.01,0.13,-1.31,-1.31,-1.30
166.53,-1.65,-0.30,-1.65,-0.29,0.29,-0.02,0.11,-1.36,-1.35,-1.35
168.19,-1.70,-0.30,-1.69,-0.29,0.29,-0.03,0.08,-1.41,-1.40,-1.40
169.87,-1.74,-0.29,-1.74,-0.29,0.29,-0.04,0.06,-1.45,-1.45,-1.45
171.57,-1.78,-0.29,-1.78,-0.28,0.28,-0.05,0.03,-1.50,-1.50,-1.49
173.29,-1.82,-0.27,-1.82,-0.26,0.26,-0.06,0.01,-1.56,-1.55,-1.55
175.02,-1.85,-0.25,-1.85,-0.24,0.24,-0.07,-0.01,-1.61,-1.61,-1.60
176.77,-1.88,-0.22,-1.87,-0.21,0.21,-0.07,-0.04,-1.67,-1.66,-1.66
178.54,-1.90,-0.19,-1.89,-0.18,0.18,-0.08,-0.06,-1.72,-1.71,-1.71
180.32,-1.92,-0.15,-1.91,-0.14,0.14,-0.09,-0.09,-1.78,-1.77,-1.77
182.13,-1.94,-0.12,-1.92,-0.10,0.10,-0.10,-0.11,-1.84,-1.82,-1.82
183.95,-1.95,-0.07,-1.93,-0.05,0.05,-0.11,-0.14,-1.90,-1.88,-1.88
185.79,-1.96,-0.03,-1.94,-0.00,0.00,-0.12,-0.16,-1.96,-1.94,-1.93
187.65,-1.95,0.05,-1.94,0.05,-0.05,-0.13,-0.18,-2.00,-1.99,-2.00
189.52,-1.95,0.10,-1.95,0.10,-0.10,-0.14,-0.21,-2.05,-2.05,-2.05
191.42,-1.94,0.16,-1.95,0.15,-0.15,-0.14,-0.23,-2.09,-2.10,-2.10
193.33,-1.94,0.21,-1.96,0.19,-0.19,-0.15,-0.26,-2.13,-2.15,-2.15
195.27,-1.94,0.26,-1.97,0.24,-0.24,-0.16,-0.28,-2.18,-2.21,-2.20
197.22,-1.96,0.30,-1.98,0.28,-0.28,-0.17,-0.31,-2.24,-2.26,-2.26
199.19,-1.98,0.33,-1.99,0.32,-0.32,-0.18,-0.33,-2.30,-2.31,-2.31
201.18,-2.01,0.35,-2.01,0.35,-0.35,-0.19,-0.35,-2.36,-2.35,-2.36
203.19,-2.03,0.36,-2.03,0.37,-0.37,-0.20,-0.38,-2.40,-2.40,-2.39
205.23,-2.05,0.40,-2.06,0.39,-0.39,-0.21,-0.40,-2.44,-2.45,-2.45
207.28,-2.08,0.39,-2.09,0.40,-0.40,-0.22,-0.42,-2.48,-2.49,-2.47
209.35,-2.11,0.42,-2.13,0.40,-0.40,-0.23,-0.45,-2.51,-2.53,-2.53
211.44,-2.15,0.43,-2.17,0.40,-0.40,-0.24,-0.47,-2.55,-2.57,-2.58
213.56,-2.20,0.42,-2.21,0.40,-0.40,-0.25,-0.49,-2.60,-2.61,-2.62
215.69,-2.24,0.40,-2.26,0.39,-0.39,-0.26,-0.52,-2.63,-2.65,-2.64
217.85,-2.29,0.39,-2.30,0.38,-0.38,-0.27,-0.54,-2.67,-2.68,-2.68
220.03,-2.34,0.38,-2.34,0.37,-0.37,-0.28,-0.56,-2.71,-2.72,-2.72
222.23,-2.40,0.35,-2.38,0.36,-0.36,-0.29,-0.58,-2.76,-2.75,-2.75
224.45,-2.45,0.32,-2.42,0.35,-0.35,-0.30,-0.60,-2.80,-2.77,-2.77
226.70,-2.48,0.32,-2.45,0.35,-0.35,-0.32,-0.62,-2.83,-2.80,-2.80
228.96,-2.51,0.32,-2.48,0.34,-0.34,-0.33,-0.64,-2.85,-2.82,-2.83
231.25,-2.52,0.32,-2.51,0.34,-0.34,-0.34,-0.66,-2.86,-2.84,-2.84
233.57,-2.52,0.34,-2.52,0.34,-0.34,-0.35,-0.68,-2.86,-2.86,-2.86
235.90,-2.52,0.35,-2.53,0.34,-0.34,-0.37,-0.70,-2.86,-2.87,-2.87
238.26,-2.52,0.36,-2.52,0.36,-0.36,-0.38,-0.71,-2.88,-2.88,-2.88
240.64,-2.52,0.37,-2.51,0.38,-0.38,-0.39,-0.73,-2.90,-2.89,-2.89
243.05,-2.51,0.38,-2.49,0.40,-0.40,-0.41,-0.74,-2.91,-2.90,-2.89
245.48,-2.50,0.40,-2.47,0.43,-0.43,-0.42,-0.76,-2.93,-2.90,-2.90
247.93,-2.46,0.44,-2.44,0.46,-0.46,-0.44,-0.77,-2.92,-2.90,-2.90
250.41,-2.42,0.48,-2.41,0.49,-0.49,-0.45,-0.78,-2.91,-2.90,-2.90
252.92,-2.37,0.52,-2.37,0.52,-0.52,-0.47,-0.80,-2.89,-2.89,-2.89
255.45,-2.32,0.56,-2.33,0.55,-0.55,-0.49,-0.81,-2.87,-2.88,-2.88
258.00,-2.27,0.60,-2.29,0.58,-0.58,-0.50,-0.82,-2.85,-2.88,-2.87
260.58,-2.22,0.65,-2.25,0.61,-0.61,-0.52,-0.83,-2.83,-2.87,-2.87
263.19,-2.19,0.67,-2.21,0.64,-0.64,-0.54,-0.83,-2.83,-2.86,-2.86
265.82,-2.16,0.69,-2.17,0.68,-0.68,-0.56,-0.84,-2.84,-2.85,-2.85
268.48,-2.12,0.71,-2.13,0.71,-0.71,-0.58,-0.85,-2.83,-2.83,-2.83
271.16,-2.08,0.73,-2.08,0.74,-0.74,-0.60,-0.85,-2.82,-2.82,-2.81
273.87,-2.04,0.77,-2.04,0.77,-0.77,-0.62,-0.86,-2.81,-2.81,-2.81
276.61,-2.01,0.77,-2.00,0.80,-0.80,-0.65,-0.87,-2.81,-2.79,-2.78
279.38,-1.97,0.81,-1.95,0.82,-0.82,-0.67,-0.87,-2.79,-2.78,-2.78
282.17,-1.93,0.83,-1.91,0.85,-0.85,-0.69,-0.88,-2.78,-2.77,-2.76
284.99,-1.88,0.87,-1.87,0.88,-0.88,-0.72,-0.88,-2.76,-2.75,-2.75
287.84,-1.83,0.91,-1.83,0.91,-0.91,-0.74,-0.89,-2.74,-2.74,-2.74
290.72,-1.78,0.95,-1.78,0.94,-0.94,-0.77,-0.89,-2.72,-2.72,-2.73
293.63,-1.72,0.99,-1.73,0.98,-0.98,-0.80,-0.90,-2.70,-2.71,-2.71
296.57,-1.68,1.01,-1.69,1.01,-1.01,-0.83,-0.90,-2.69,-2.70,-2.69
299.53,-1.63,1.06,-1.64,1.04,-1.04,-0.86,-0.90,-2.67,-2.69,-2.69
302.53,-1.59,1.09,-1.59,1.08,-1.08,-0.89,-0.91,-2.67,-2.67,-2.68
305.55,-1.55,1.11,-1.55,1.11,-1.11,-0.92,-0.92,-2.66,-2.66,-2.66
308.61,-1.51,1.14,-1.50,1.15,-1.15,-0.96,-0.92,-2.66,-2.65,-2.65
311.69,-1.46,1.18,-1.45,1.19,-1.19,-0.99,-0.93,-2.65,-2.64,-2.64
314.81,-1.41,1.20,-1.41,1.22,-1.22,-1.03,-0.93,-2.63,-2.63,-2.61
317.96,-1.37,1.25,-1.37,1.26,-1.26,-1.07,-0.94,-2.63,-2.62,-2.62
321.14,-1.32,1.29,-1.32,1.29,-1.29,-1.11,-0.95,-2.61,-2.61,-2.61
324.35,-1.29,1.32,-1.28,1.32,-1.32,-1.14,-0.96,-2.61,-2.61,-2.61
327.59,-1.25,1.35,-1.24,1.36,-1.36,-1.18,-0.97,-2.61,-2.60,-2.60
330.87,-1.20,1.40,-1.20,1.39,-1.39,-1.23,-0.98,-2.59,-2.60,-2.60
334.18,-1.16,1.44,-1.17,1.43,-1.43,-1.27,-0.99,-2.59,-2.59,-2.60
337.52,-1.12,1.47,-1.13,1.46,-1.46,-1.31,-1.00,-2.58,-2.59,-2.59
340.90,-1.09,1.50,-1.10,1.49,-1.49,-1.35,-1.01,-2.58,-2.59,-2.59
344.30,-1.07,1.52,-1.07,1.52,-1.52,-1.40,-1.02,-2.59,-2.59,-2.59
347.75,-1.05,1.54,-1.04,1.55,-1.55,-1.44,-1.04,-2.60,-2.59,-2.59
351.23,-1.03,1.56,-1.02,1.58,-1.58,-1.48,-1.05,-2.61,-2.60,-2.59
354.74,-1.00,1.59,-1.00,1.60,-1.60,-1.52,-1.07,-2.60,-2.60,-2.59
358.28,-0.98,1.63,-0.99,1.62,-1.62,-1.56,-1.08,-2.60,-2.60,-2.61
361.87,-0.96,1.65,-0.98,1.63,-1.63,-1.60,-1.10,-2.59,-2.61,-2.61
365.49,-0.95,1.66,-0.97,1.65,-1.65,-1.64,-1.12,-2.60,-2.61,-2.61
369.14,-0.95,1.67,-0.96,1.66,-1.66,-1.67,-1.13,-2.61,-2.62,-2.62
372.83,-0.95,1.67,-0.96,1.67,-1.67,-1.71,-1.15,-2.62,-2.63,-2.62
376.56,-0.96,1.67,-0.96,1.68,-1.68,-1.74,-1.17,-2.64,-2.63,-2.63
380.33,-0.97,1.67,-0.96,1.68,-1.68,-1.76,-1.19,-2.65,-2.64,-2.64
384.13,-0.97,1.68,-0.96,1.69,-1.69,-1.79,-1.22,-2.66,-2.65,-2.65
387.97,-0.97,1.69,-0.96,1.70,-1.70,-1.81,-1.24,-2.67,-2.65,-2.66
391.85,-0.97,1.70,-0.96,1.70,-1.70,-1.82,-1.26,-2.67,-2.66,-2.67
395.77,-0.97,1.69,-0.97,1.70,-1.70,-1.83,-1.28,-2.67,-2.67,-2.66
399.73,-0.97,1.70,-0.97,1.71,-1.71,-1.84,-1.31,-2.68,-2.68,-2.67
403.72,-0.97,1.71,-0.97,1.71,-1.71,-1.84,-1.33,-2.68,-2.68,-2.68
407.76,-0.97,1.72,-0.97,1.72,-1.72,-1.84,-1.36,-2.69,-2.69,-2.69
411.84,-0.97,1.71,-0.97,1.72,-1.72,-1.84,-1.38,-2.69,-2.69,-2.68
415.96,-0.97,1.73,-0.97,1.73,-1.73,-1.83,-1.41,-2.70,-2.70,-2.70
420.12,-0.97,1.73,-0.97,1.73,-1.73,-1.82,-1.43,-2.70,-2.70,-2.70
424.32,-0.97,1.73,-0.97,1.73,-1.73,-1.81,-1.46,-2.70,-2.70,-2.70
428.56,-0.97,1.74,-0.97,1.73,-1.73,-1.80,-1.49,-2.70,-2.70,-2.71
432.85,-0.97,1.74,-0.97,1.74,-1.74,-1.78,-1.51,-2.71,-2.71,-2.71
437.18,-0.97,1.74,-0.97,1.74,-1.74,-1.77,-1.54,-2.71,-2.71,-2.71
441.55,-0.97,1.73,-0.97,1.74,-1.74,-1.75,-1.56,-2.71,-2.71,-2.70
445.96,-0.97,1.73,-0.97,1.74,-1.74,-1.73,-1.59,-2.71,-2.71,-2.70
450.42,-0.97,1.74,-0.97,1.73,-1.73,-1.71,-1.61,-2.70,-2.70,-2.71
454.93,-0.97,1.73,-0.97,1.73,-1.73,-1.69,-1.64,-2.70,-2.70,-2.70
459.48,-0.97,1.73,-0.97,1.73,-1.73,-1.67,-1.66,-2.70,-2.70,-2.70
464.07,-0.97,1.72,-0.97,1.72,-1.72,-1.65,-1.68,-2.69,-2.69,-2.69
468.71,-0.97,1.71,-0.97,1.72,-1.72,-1.64,-1.70,-2.69,-2.69,-2.68
473.40,-0.97,1.72,-0.97,1.72,-1.72,-1.62,-1.72,-2.69,-2.69,-2.69
478.13,-0.97,1.71,-0.97,1.71,-1.71,-1.60,-1.74,-2.68,-2.68,-2.68
482.91,-0.97,1.71,-0.97,1.70,-1.70,-1.59,-1.76,-2.67,-2.67,-2.68
487.74,-0.97,1.70,-0.97,1.70,-1.70,-1.58,-1.78,-2.67,-2.67,-2.67
492.62,-0.97,1.69,-0.97,1.70,-1.70,-1.56,-1.79,-2.67,-2.67,-2.66
497.55,-0.97,1.69,-0.97,1.69,-1.69,-1.55,-1.80,-2.66,-2.66,-2.66
