frequency,raw,error,smoothed,error_smoothed,equalization,parametric_eq,fixed_band_eq,equalized_raw,equalized_smoothed,target
20.00,10.04,1.42,10.04,1.41,-1.42,-1.71,-1.65,8.62,8.62,8.62
20.20,10.03,1.42,10.03,1.42,-1.42,-1.75,-1.69,8.61,8.61,8.61
20.40,10.03,1.43,10.03,1.43,-1.43,-1.78,-1.74,8.60,8.60,8.60
20.61,10.03,1.44,10.03,1.44,-1.44,-1.81,-1.79,8.59,8.59,8.59
20.81,10.04,1.47,10.04,1.46,-1.45,-1.85,-1.84,8.59,8.58,8.57
21.02,10.05,1.49,10.05,1.48,-1.48,-1.88,-1.89,8.57,8.57,8.56
21.23,10.07,1.52,10.07,1.51,-1.50,-1.92,-1.94,8.57,8.56,8.55
21.44,10.09,1.53,10.09,1.53,-1.54,-1.96,-1.99,8.55,8.55,8.56
21.66,10.12,1.57,10.12,1.57,-1.58,-1.99,-2.05,8.54,8.54,8.54
21.87,10.15,1.61,10.15,1.61,-1.62,-2.03,-2.11,8.53,8.53,8.54
22.09,10.19,1.67,10.19,1.67,-1.67,-2.07,-2.16,8.52,8.53,8.52
22.31,10.24,1.73,10.24,1.72,-1.72,-2.11,-2.22,8.52,8.52,8.51
22.54,10.30,1.79,10.29,1.79,-1.79,-2.15,-2.28,8.51,8.51,8.50
22.76,10.35,1.85,10.35,1.85,-1.85,-2.19,-2.35,8.50,8.50,8.50
22.99,10.41,1.92,10.42,1.92,-1.93,-2.23,-2.41,8.48,8.49,8.49
23.22,10.49,2.01,10.49,2.00,-2.00,-2.28,-2.48,8.49,8.49,8.48
23.45,10.57,2.08,10.57,2.08,-2.08,-2.32,-2.54,8.49,8.49,8.49
23.69,10.65,2.16,10.65,2.16,-2.16,-2.37,-2.61,8.49,8.49,8.48
23.92,10.72,2.25,10.72,2.24,-2.24,-2.41,-2.68,8.48,8.49,8.47
24.16,10.80,2.32,10.80,2.32,-2.32,-2.46,-2.76,8.48,8.48,8.48
24.40,10.88,2.40,10.88,2.40,-2.40,-2.50,-2.83,8.48,8.48,8.48
24.65,10.96,2.48,10.96,2.48,-2.48,-2.55,-2.90,8.48,8.47,8.47
24.89,11.03,2.56,11.03,2.56,-2.56,-2.60,-2.98,8.47,8.47,8.47
25.14,11.10,2.64,11.11,2.64,-2.64,-2.65,-3.05,8.46,8.47,8.46
25.39,11.19,2.73,11.19,2.72,-2.72,-2.70,-3.13,8.47,8.47,8.46
25.65,11.27,2.80,11.27,2.80,-2.80,-2.75,-3.21,8.47,8.47,8.46
25.91,11.34,2.87,11.34,2.88,-2.88,-2.81,-3.28,8.46,8.47,8.46
26.16,11.42,2.95,11.42,2.95,-2.96,-2.86,-3.36,8.46,8.46,8.47
26.43,11.50,3.03,11.50,3.03,-3.04,-2.92,-3.44,8.46,8.46,8.46
26.69,11.58,3.12,11.58,3.11,-3.11,-2.97,-3.51,8.47,8.47,8.46
26.96,11.66,3.19,11.66,3.19,-3.19,-3.03,-3.59,8.47,8.47,8.46
27.23,11.73,3.26,11.73,3.26,-3.26,-3.09,-3.67,8.47,8.47,8.46
27.50,11.80,3.34,11.80,3.33,-3.33,-3.14,-3.74,8.47,8.47,8.46
27.77,11.87,3.40,11.87,3.40,-3.40,-3.20,-3.81,8.47,8.47,8.47
28.05,11.94,3.48,11.94,3.47,-3.47,-3.27,-3.89,8.47,8.47,8.46
28.33,12.01,3.54,12.01,3.54,-3.53,-3.33,-3.96,8.48,8.48,8.47
28.62,12.08,3.60,12.08,3.60,-3.60,-3.39,-4.02,8.48,8.48,8.47
28.90,12.14,3.66,12.14,3.66,-3.67,-3.46,-4.09,8.47,8.47,8.48
29.19,12.21,3.73,12.21,3.73,-3.74,-3.52,-4.15,8.47,8.47,8.48
29.48,12.28,3.81,12.28,3.80,-3.81,-3.59,-4.21,8.47,8.47,8.47
29.78,12.35,3.87,12.35,3.88,-3.88,-3.66,-4.26,8.47,8.47,8.47
30.08,12.43,3.95,12.43,3.96,-3.95,-3.72,-4.32,8.48,8.48,8.47
30.38,12.50,4.04,12.49,4.03,-4.02,-3.79,-4.36,8.47,8.47,8.45
30.68,12.56,4.11,12.56,4.10,-4.10,-3.86,-4.41,8.46,8.46,8.45
30.99,12.61,4.15,12.62,4.16,-4.17,-3.94,-4.45,8.44,8.45,8.45
31.30,12.68,4.22,12.68,4.23,-4.24,-4.01,-4.49,8.44,8.44,8.45
31.61,12.75,4.31,12.75,4.30,-4.30,-4.08,-4.52,8.45,8.44,8.44
31.93,12.81,4.38,12.81,4.37,-4.37,-4.15,-4.55,8.44,8.44,8.42
32.24,12.86,4.43,12.86,4.43,-4.43,-4.23,-4.57,8.43,8.43,8.43
32.57,12.91,4.49,12.91,4.49,-4.49,-4.30,-4.60,8.42,8.42,8.41
32.89,12.96,4.55,12.96,4.55,-4.55,-4.38,-4.62,8.41,8.41,8.41
33.22,13.02,4.62,13.02,4.61,-4.62,-4.46,-4.63,8.40,8.40,8.40
33.55,13.07,4.67,13.07,4.67,-4.68,-4.53,-4.65,8.39,8.39,8.40
33.89,13.13,4.74,13.13,4.74,-4.74,-4.61,-4.66,8.39,8.39,8.39
34.23,13.19,4.81,13.19,4.81,-4.80,-4.69,-4.67,8.39,8.39,8.37
34.57,13.25,4.88,13.25,4.88,-4.86,-4.76,-4.67,8.39,8.39,8.37
34.92,13.30,4.94,13.30,4.94,-4.92,-4.84,-4.68,8.38,8.38,8.35
35.27,13.35,4.97,13.34,4.98,-4.98,-4.92,-4.69,8.37,8.36,8.37
35.62,13.38,5.04,13.38,5.03,-5.04,-4.99,-4.69,8.34,8.34,8.34
35.97,13.42,5.08,13.42,5.08,-5.10,-5.07,-4.70,8.32,8.33,8.34
36.33,13.47,5.15,13.47,5.15,-5.16,-5.14,-4.70,8.31,8.31,8.32
36.70,13.52,5.21,13.52,5.21,-5.22,-5.22,-4.71,8.30,8.30,8.30
37.06,13.57,5.29,13.57,5.28,-5.28,-5.29,-4.72,8.29,8.29,8.28
37.43,13.62,5.36,13.62,5.35,-5.34,-5.36,-4.72,8.28,8.27,8.26
37.81,13.66,5.41,13.66,5.41,-5.41,-5.43,-4.73,8.25,8.25,8.25
38.19,13.70,5.47,13.70,5.47,-5.47,-5.50,-4.74,8.23,8.23,8.22
38.57,13.74,5.54,13.74,5.53,-5.53,-5.56,-4.76,8.21,8.21,8.20
38.95,13.78,5.59,13.78,5.59,-5.59,-5.63,-4.77,8.19,8.19,8.19
39.34,13.81,5.65,13.81,5.65,-5.65,-5.69,-4.79,8.17,8.17,8.16
39.74,13.84,5.71,13.84,5.70,-5.70,-5.75,-4.81,8.14,8.14,8.13
40.14,13.86,5.74,13.86,5.75,-5.75,-5.80,-4.84,8.11,8.11,8.11
40.54,13.88,5.79,13.88,5.79,-5.79,-5.86,-4.87,8.08,8.09,8.09
40.94,13.91,5.85,13.91,5.84,-5.84,-5.91,-4.90,8.07,8.07,8.06
41.35,13.93,5.88,13.93,5.88,-5.88,-5.96,-4.93,8.05,8.05,8.05
41.76,13.95,5.93,13.95,5.92,-5.92,-6.01,-4.97,8.03,8.03,8.02
42.18,13.96,5.95,13.96,5.95,-5.95,-6.06,-5.01,8.01,8.01,8.01
42.60,13.97,5.99,13.97,5.98,-5.97,-6.10,-5.06,8.00,8.00,7.98
43.03,13.97,6.01,13.97,6.01,-5.99,-6.15,-5.11,7.98,7.97,7.96
43.46,13.96,6.04,13.96,6.03,-6.01,-6.19,-5.16,7.95,7.94,7.92
43.90,13.94,6.04,13.94,6.04,-6.04,-6.23,-5.22,7.90,7.90,7.90
44.33,13.92,6.05,13.93,6.05,-6.06,-6.26,-5.28,7.86,7.86,7.87
44.78,13.92,6.07,13.92,6.07,-6.09,-6.30,-5.34,7.83,7.83,7.85
45.23,13.93,6.10,13.93,6.11,-6.13,-6.33,-5.41,7.80,7.80,7.83
45.68,13.95,6.16,13.95,6.16,-6.17,-6.36,-5.48,7.78,7.78,7.78
46.13,13.98,6.23,13.98,6.22,-6.22,-6.39,-5.56,7.76,7.76,7.75
46.60,14.00,6.28,14.00,6.28,-6.27,-6.42,-5.64,7.72,7.72,7.72
47.06,14.02,6.34,14.02,6.34,-6.34,-6.45,-5.73,7.68,7.69,7.68
47.53,14.04,6.40,14.04,6.40,-6.40,-6.48,-5.82,7.64,7.64,7.64
48.01,14.06,6.47,14.06,6.46,-6.46,-6.51,-5.91,7.60,7.60,7.59
48.49,14.07,6.52,14.07,6.51,-6.51,-6.53,-6.00,7.56,7.56,7.55
48.97,14.07,6.57,14.07,6.57,-6.56,-6.56,-6.10,7.51,7.51,7.50
49.46,14.08,6.61,14.08,6.61,-6.61,-6.59,-6.20,7.47,7.47,7.47
49.96,14.08,6.66,14.08,6.66,-6.65,-6.61,-6.31,7.43,7.43,7.42
50.46,14.08,6.70,14.08,6.69,-6.69,-6.64,-6.42,7.39,7.38,7.38
50.96,14.07,6.73,14.07,6.73,-6.73,-6.66,-6.53,7.34,7.35,7.34
51.47,14.06,6.76,14.06,6.76,-6.75,-6.69,-6.64,7.31,7.31,7.30
51.99,14.05,6.80,14.05,6.78,-6.78,-6.71,-6.75,7.27,7.27,7.26
52.51,14.03,6.81,14.03,6.81,-6.80,-6.74,-6.86,7.23,7.23,7.22
53.03,14.01,6.82,14.01,6.82,-6.82,-6.76,-6.98,7.19,7.19,7.19
53.56,13.99,6.85,13.99,6.84,-6.84,-6.79,-7.09,7.15,7.14,7.14
54.10,13.96,6.87,13.96,6.86,-6.87,-6.81,-7.20,7.09,7.09,7.09
54.64,13.94,6.89,13.94,6.89,-6.90,-6.84,-7.32,7.04,7.04,7.05
55.18,13.93,6.92,13.93,6.92,-6.94,-6.87,-7.43,6.99,7.00,7.01
55.74,13.93,6.96,13.93,6.96,-6.97,-6.89,-7.53,6.96,6.96,6.97
56.29,13.95,7.01,13.95,7.01,-7.01,-6.92,-7.63,6.94,6.94,6.94
56.86,13.96,7.05,13.96,7.06,-7.05,-6.94,-7.73,6.91,6.91,6.90
57.42,13.97,7.12,13.96,7.11,-7.09,-6.97,-7.83,6.88,6.88,6.85
58.00,13.96,7.15,13.96,7.14,-7.12,-7.00,-7.91,6.84,6.84,6.81
58.58,13.94,7.16,13.95,7.16,-7.15,-7.03,-7.99,6.79,6.79,6.78
59.16,13.93,7.18,13.92,7.18,-7.19,-7.05,-8.06,6.74,6.74,6.75
59.76,13.90,7.20,13.90,7.20,-7.22,-7.08,-8.13,6.68,6.69,6.70
60.35,13.88,7.23,13.88,7.23,-7.24,-7.11,-8.18,6.64,6.64,6.65
60.96,13.86,7.27,13.86,7.27,-7.27,-7.13,-8.23,6.59,6.59,6.59
61.57,13.84,7.31,13.84,7.30,-7.30,-7.16,-8.26,6.54,6.54,6.53
62.18,13.81,7.34,13.81,7.33,-7.32,-7.19,-8.29,6.49,6.49,6.47
62.80,13.77,7.36,13.77,7.35,-7.34,-7.21,-8.30,6.43,6.43,6.41
63.43,13.73,7.37,13.73,7.37,-7.36,-7.24,-8.31,6.37,6.37,6.36
64.07,13.69,7.38,13.69,7.37,-7.38,-7.27,-8.30,6.31,6.31,6.31
64.71,13.64,7.38,13.64,7.38,-7.39,-7.29,-8.29,6.25,6.26,6.26
65.35,13.60,7.40,13.60,7.39,-7.40,-7.32,-8.26,6.20,6.20,6.20
66.01,13.56,7.41,13.56,7.40,-7.41,-7.34,-8.23,6.15,6.15,6.15
66.67,13.52,7.41,13.52,7.42,-7.42,-7.37,-8.19,6.10,6.11,6.11
67.33,13.48,7.44,13.48,7.43,-7.43,-7.39,-8.14,6.05,6.05,6.04
68.01,13.44,7.45,13.44,7.44,-7.44,-7.42,-8.08,6.00,5.99,5.99
68.69,13.39,7.45,13.40,7.45,-7.46,-7.44,-8.02,5.93,5.94,5.94
69.37,13.36,7.47,13.36,7.47,-7.47,-7.46,-7.95,5.89,5.89,5.89
70.07,13.33,7.50,13.32,7.49,-7.49,-7.48,-7.88,5.84,5.83,5.83
70.77,13.28,7.52,13.28,7.51,-7.50,-7.50,-7.80,5.78,5.78,5.76
71.48,13.23,7.52,13.23,7.52,-7.51,-7.52,-7.73,5.72,5.72,5.71
72.19,13.18,7.53,13.18,7.53,-7.53,-7.54,-7.65,5.65,5.65,5.65
72.91,13.12,7.54,13.12,7.53,-7.54,-7.56,-7.57,5.58,5.59,5.58
73.64,13.07,7.54,13.07,7.54,-7.54,-7.57,-7.48,5.53,5.53,5.53
74.38,13.02,7.55,13.02,7.55,-7.55,-7.59,-7.40,5.47,5.47,5.47
75.12,12.98,7.56,12.98,7.56,-7.56,-7.60,-7.32,5.42,5.43,5.42
75.87,12.94,7.57,12.94,7.56,-7.56,-7.62,-7.24,5.38,5.38,5.37
76.63,12.89,7.58,12.89,7.57,-7.56,-7.63,-7.17,5.33,5.33,5.31
77.40,12.83,7.56,12.83,7.57,-7.56,-7.64,-7.09,5.27,5.27,5.27
78.17,12.78,7.57,12.78,7.56,-7.56,-7.65,-7.02,5.22,5.22,5.21
78.95,12.73,7.56,12.73,7.56,-7.56,-7.66,-6.95,5.17,5.17,5.17
79.74,12.68,7.56,12.68,7.56,-7.56,-7.67,-6.89,5.12,5.12,5.12
80.54,12.63,7.56,12.63,7.56,-7.55,-7.67,-6.82,5.08,5.08,5.07
81.35,12.58,7.57,12.58,7.56,-7.55,-7.68,-6.77,5.03,5.03,5.01
82.16,12.53,7.55,12.53,7.55,-7.55,-7.68,-6.71,4.98,4.98,4.98
82.98,12.47,7.55,12.47,7.55,-7.55,-7.68,-6.66,4.92,4.92,4.92
83.81,12.42,7.55,12.42,7.54,-7.55,-7.68,-6.62,4.87,4.87,4.87
84.65,12.36,7.55,12.36,7.55,-7.55,-7.68,-6.58,4.81,4.81,4.81
85.50,12.31,7.56,12.31,7.55,-7.55,-7.68,-6.54,4.76,4.76,4.75
86.35,12.26,7.56,12.26,7.56,-7.56,-7.67,-6.51,4.70,4.71,4.70
87.22,12.22,7.57,12.21,7.56,-7.56,-7.67,-6.49,4.66,4.66,4.65
88.09,12.16,7.57,12.16,7.56,-7.56,-7.66,-6.47,4.60,4.60,4.59
88.97,12.10,7.57,12.10,7.56,-7.56,-7.65,-6.45,4.54,4.54,4.53
89.86,12.03,7.55,12.04,7.56,-7.56,-7.64,-6.44,4.47,4.48,4.48
90.76,11.98,7.56,11.98,7.56,-7.56,-7.63,-6.43,4.42,4.42,4.42
91.66,11.92,7.57,11.92,7.56,-7.55,-7.61,-6.43,4.37,4.37,4.35
92.58,11.86,7.56,11.85,7.55,-7.54,-7.60,-6.44,4.32,4.31,4.30
93.51,11.78,7.53,11.78,7.53,-7.54,-7.58,-6.44,4.24,4.25,4.25
94.44,11.71,7.52,11.71,7.52,-7.53,-7.56,-6.46,4.18,4.18,4.19
95.39,11.64,7.52,11.64,7.51,-7.52,-7.54,-6.47,4.12,4.11,4.12
96.34,11.56,7.51,11.57,7.51,-7.51,-7.52,-6.49,4.05,4.05,4.05
97.30,11.50,7.51,11.49,7.50,-7.50,-7.50,-6.52,4.00,3.99,3.99
98.28,11.42,7.50,11.42,7.49,-7.48,-7.48,-6.55,3.94,3.94,3.92
99.26,11.34,7.48,11.34,7.48,-7.47,-7.45,-6.58,3.87,3.88,3.86
100.25,11.26,7.46,11.26,7.45,-7.45,-7.42,-6.61,3.81,3.81,3.80
101.25,11.17,7.42,11.17,7.42,-7.42,-7.40,-6.65,3.75,3.75,3.75
102.27,11.07,7.38,11.08,7.38,-7.39,-7.37,-6.69,3.68,3.69,3.69
103.29,10.99,7.36,10.99,7.35,-7.35,-7.33,-6.74,3.64,3.63,3.63
104.32,10.90,7.32,10.90,7.31,-7.31,-7.30,-6.78,3.59,3.58,3.58
105.37,10.80,7.28,10.80,7.27,-7.27,-7.27,-6.83,3.53,3.53,3.52
106.42,10.70,7.23,10.70,7.23,-7.23,-7.23,-6.88,3.47,3.47,3.47
107.48,10.60,7.19,10.60,7.18,-7.18,-7.20,-6.92,3.42,3.42,3.41
108.56,10.50,7.14,10.50,7.14,-7.13,-7.16,-6.97,3.37,3.37,3.36
109.64,10.39,7.09,10.39,7.09,-7.08,-7.12,-7.02,3.31,3.31,3.30
110.74,10.28,7.04,10.28,7.03,-7.03,-7.08,-7.06,3.25,3.25,3.24
111.85,10.16,6.98,10.16,6.97,-6.97,-7.04,-7.10,3.19,3.19,3.18
112.97,10.04,6.91,10.04,6.91,-6.92,-7.00,-7.14,3.12,3.12,3.13
114.10,9.92,6.85,9.92,6.85,-6.87,-6.96,-7.18,3.05,3.06,3.07
115.24,9.81,6.82,9.81,6.81,-6.82,-6.91,-7.21,3.00,2.99,2.99
116.39,9.70,6.77,9.70,6.77,-6.77,-6.87,-7.24,2.94,2.94,2.93
117.55,9.60,6.73,9.60,6.73,-6.72,-6.82,-7.26,2.88,2.88,2.87
118.73,9.50,6.69,9.50,6.67,-6.67,-6.78,-7.28,2.83,2.83,2.81
119.92,9.39,6.62,9.40,6.63,-6.62,-6.73,-7.29,2.77,2.77,2.77
121.12,9.30,6.58,9.30,6.58,-6.58,-6.68,-7.29,2.72,2.72,2.72
122.33,9.20,6.54,9.20,6.53,-6.54,-6.63,-7.28,2.67,2.66,2.66
123.55,9.10,6.49,9.10,6.49,-6.49,-6.58,-7.27,2.61,2.61,2.61
124.79,9.01,6.45,9.01,6.44,-6.45,-6.53,-7.25,2.56,2.56,2.56
126.03,8.91,6.41,8.91,6.40,-6.41,-6.48,-7.22,2.50,2.50,2.50
127.29,8.81,6.36,8.81,6.36,-6.36,-6.43,-7.18,2.45,2.45,2.45
128.57,8.72,6.34,8.71,6.32,-6.32,-6.38,-7.13,2.40,2.39,2.38
129.85,8.61,6.28,8.61,6.28,-6.28,-6.32,-7.08,2.33,2.34,2.33
131.15,8.51,6.24,8.51,6.24,-6.23,-6.27,-7.02,2.28,2.28,2.27
132.46,8.41,6.19,8.40,6.18,-6.18,-6.22,-6.95,2.23,2.23,2.22
133.79,8.29,6.13,8.29,6.13,-6.12,-6.16,-6.87,2.17,2.17,2.16
135.12,8.18,6.07,8.18,6.07,-6.07,-6.11,-6.79,2.11,2.12,2.11
136.48,8.07,6.01,8.07,6.01,-6.01,-6.05,-6.70,2.06,2.06,2.06
137.84,7.96,5.95,7.96,5.95,-5.95,-6.00,-6.61,2.01,2.01,2.01
139.22,7.85,5.90,7.85,5.89,-5.90,-5.94,-6.51,1.95,1.95,1.95
140.61,7.74,5.83,7.75,5.84,-5.84,-5.89,-6.41,1.90,1.91,1.91
142.02,7.65,5.80,7.65,5.78,-5.79,-5.83,-6.31,1.86,1.86,1.85
143.44,7.55,5.74,7.55,5.73,-5.73,-5.78,-6.20,1.82,1.82,1.81
144.87,7.45,5.68,7.45,5.68,-5.68,-5.72,-6.10,1.77,1.77,1.77
146.32,7.36,5.64,7.35,5.62,-5.62,-5.66,-5.99,1.74,1.73,1.72
147.78,7.25,5.57,7.25,5.57,-5.57,-5.61,-5.88,1.68,1.68,1.68
149.26,7.15,5.52,7.16,5.52,-5.51,-5.55,-5.77,1.64,1.64,1.63
150.75,7.06,5.47,7.05,5.46,-5.46,-5.49,-5.66,1.60,1.60,1.59
152.26,6.96,5.41,6.96,5.40,-5.40,-5.43,-5.55,1.56,1.55,1.55
153.78,6.85,5.34,6.86,5.34,-5.35,-5.38,-5.44,1.50,1.51,1.51
155.32,6.76,5.29,6.76,5.29,-5.29,-5.32,-5.34,1.47,1.47,1.47
156.88,6.66,5.24,6.66,5.23,-5.23,-5.26,-5.23,1.43,1.42,1.42
158.44,6.56,5.19,6.56,5.18,-5.18,-5.21,-5.13,1.38,1.38,1.37
160.03,6.46,5.13,6.46,5.13,-5.12,-5.15,-5.03,1.34,1.34,1.33
161.63,6.36,5.07,6.36,5.07,-5.07,-5.09,-4.93,1.29,1.29,1.29
163.24,6.26,5.02,6.26,5.02,-5.02,-5.04,-4.83,1.24,1.24,1.24
164.88,6.16,4.97,6.16,4.96,-4.96,-4.98,-4.74,1.20,1.20,1.19
166.53,6.06,4.92,6.06,4.91,-4.91,-4.92,-4.65,1.15,1.15,1.14
168.19,5.96,4.85,5.96,4.86,-4.86,-4.87,-4.56,1.10,1.10,1.11
169.87,5.86,4.81,5.86,4.80,-4.81,-4.81,-4.48,1.05,1.05,1.05
171.57,5.77,4.77,5.76,4.75,-4.76,-4.75,-4.39,1.01,1.01,1.00
173.29,5.66,4.70,5.67,4.71,-4.71,-4.70,-4.32,0.95,0.96,0.96
175.02,5.57,4.66,5.57,4.65,-4.65,-4.64,-4.24,0.92,0.92,0.91
176.77,5.47,4.61,5.47,4.60,-4.60,-4.59,-4.17,0.87,0.87,0.86
178.54,5.36,4.54,5.37,4.55,-4.54,-4.53,-4.10,0.82,0.82,0.82
180.32,5.26,4.50,5.26,4.48,-4.48,-4.48,-4.03,0.78,0.78,0.76
182.13,5.15,4.42,5.15,4.42,-4.42,-4.42,-3.97,0.73,0.73,0.73
183.95,5.03,4.35,5.04,4.35,-4.35,-4.37,-3.91,0.68,0.69,0.68
185.79,4.92,4.29,4.92,4.28,-4.28,-4.31,-3.85,0.64,0.64,0.63
187.65,4.81,4.22,4.80,4.21,-4.21,-4.26,-3.80,0.60,0.60,0.59
189.52,4.69,4.14,4.69,4.13,-4.14,-4.21,-3.75,0.55,0.55,0.55
191.42,4.56,4.05,4.57,4.05,-4.06,-4.15,-3.70,0.50,0.50,0.51
193.33,4.45,3.98,4.45,3.98,-3.99,-4.10,-3.65,0.46,0.46,0.47
195.27,4.35,3.93,4.34,3.92,-3.92,-4.05,-3.61,0.43,0.42,0.42
197.22,4.23,3.86,4.24,3.86,-3.85,-3.99,-3.57,0.38,0.39,0.37
199.19,4.13,3.79,4.13,3.79,-3.78,-3.94,-3.53,0.35,0.35,0.34
201.18,4.03,3.73,4.02,3.72,-3.71,-3.89,-3.49,0.32,0.32,0.30
203.19,3.92,3.65,3.92,3.64,-3.64,-3.84,-3.46,0.28,0.28,0.27
205.23,3.82,3.57,3.82,3.57,-3.57,-3.79,-3.43,0.25,0.24,0.25
207.28,3.72,3.50,3.72,3.50,-3.51,-3.74,-3.40,0.21,0.21,0.22
209.35,3.62,3.44,3.63,3.44,-3.44,-3.69,-3.37,0.18,0.18,0.18
211.44,3.54,3.39,3.54,3.38,-3.38,-3.64,-3.34,0.16,0.16,0.15
213.56,3.45,3.32,3.45,3.32,-3.32,-3.59,-3.31,0.13,0.13,0.13
215.69,3.37,3.27,3.37,3.27,-3.26,-3.54,-3.29,0.11,0.11,0.10
217.85,3.29,3.22,3.28,3.21,-3.21,-3.49,-3.27,0.08,0.08,0.07
220.03,3.20,3.16,3.20,3.16,-3.15,-3.44,-3.24,0.05,0.05,0.04
222.23,3.12,3.11,3.12,3.10,-3.10,-3.40,-3.22,0.02,0.02,0.01
224.45,3.05,3.05,3.05,3.05,-3.06,-3.35,-3.20,-0.01,-0.01,0.00
226.70,2.98,3.01,2.98,3.00,-3.01,-3.30,-3.17,-0.03,-0.02,-0.03
228.96,2.92,2.96,2.92,2.96,-2.96,-3.26,-3.15,-0.04,-0.04,-0.04
231.25,2.87,2.93,2.86,2.92,-2.92,-3.21,-3.13,-0.05,-0.05,-0.06
233.57,2.81,2.89,2.81,2.88,-2.88,-3.16,-3.10,-0.07,-0.07,-0.08
235.90,2.74,2.83,2.75,2.84,-2.83,-3.12,-3.08,-0.09,-0.09,-0.09
238.26,2.69,2.81,2.69,2.79,-2.80,-3.07,-3.05,-0.11,-0.10,-0.12
240.64,2.64,2.75,2.64,2.75,-2.76,-3.03,-3.03,-0.12,-0.12,-0.11
243.05,2.60,2.73,2.60,2.72,-2.72,-2.99,-3.00,-0.12,-0.12,-0.13
245.48,2.55,2.69,2.55,2.68,-2.68,-2.94,-2.97,-0.13,-0.13,-0.14
247.93,2.51,2.66,2.51,2.65,-2.65,-2.90,-2.94,-0.14,-0.14,-0.15
250.41,2.47,2.61,2.47,2.61,-2.62,-2.86,-2.91,-0.15,-0.15,-0.14
252.92,2.44,2.59,2.44,2.59,-2.59,-2.82,-2.88,-0.15,-0.15,-0.15
255.45,2.41,2.57,2.41,2.56,-2.56,-2.77,-2.84,-0.15,-0.16,-0.16
258.00,2.38,2.54,2.38,2.54,-2.54,-2.73,-2.81,-0.16,-0.15,-0.16
260.58,2.36,2.52,2.36,2.51,-2.51,-2.69,-2.77,-0.15,-0.15,-0.16
263.19,2.33,2.49,2.33,2.49,-2.48,-2.65,-2.73,-0.15,-0.15,-0.16
265.82,2.29,2.46,2.29,2.45,-2.44,-2.61,-2.70,-0.15,-0.15,-0.17
268.48,2.25,2.42,2.25,2.42,-2.41,-2.57,-2.65,-0.16,-0.16,-0.17
271.16,2.21,2.38,2.21,2.37,-2.38,-2.53,-2.61,-0.17,-0.17,-0.17
273.87,2.17,2.34,2.17,2.33,-2.35,-2.50,-2.57,-0.18,-0.18,-0.17
276.61,2.13,2.30,2.13,2.31,-2.32,-2.46,-2.53,-0.19,-0.18,-0.17
279.38,2.10,2.29,2.10,2.28,-2.28,-2.42,-2.48,-0.18,-0.18,-0.19
282.17,2.08,2.27,2.08,2.26,-2.25,-2.38,-2.44,-0.17,-0.17,-0.19
284.99,2.06,2.24,2.06,2.23,-2.22,-2.35,-2.39,-0.16,-0.17,-0.18
287.84,2.03,2.20,2.03,2.20,-2.20,-2.31,-2.35,-0.17,-0.17,-0.17
290.72,2.00,2.18,2.00,2.17,-2.17,-2.27,-2.30,-0.17,-0.16,-0.18
293.63,1.98,2.15,1.98,2.14,-2.14,-2.24,-2.26,-0.16,-0.16,-0.17
296.57,1.96,2.12,1.96,2.12,-2.12,-2.20,-2.21,-0.16,-0.16,-0.16
299.53,1.94,2.10,1.94,2.09,-2.10,-2.17,-2.17,-0.16,-0.16,-0.16
302.53,1.93,2.07,1.93,2.08,-2.09,-2.13,-2.12,-0.16,-0.16,-0.14
305.55,1.93,2.08,1.93,2.07,-2.08,-2.10,-2.08,-0.15,-0.15,-0.15
308.61,1.93,2.07,1.94,2.07,-2.08,-2.07,-2.04,-0.15,-0.14,-0.14
311.69,1.95,2.08,1.95,2.08,-2.07,-2.03,-1.99,-0.12,-0.13,-0.13
314.81,1.96,2.09,1.96,2.08,-2.07,-2.00,-1.95,-0.11,-0.11,-0.13
317.96,1.97,2.09,1.97,2.08,-2.06,-1.97,-1.91,-0.09,-0.10,-0.12
321.14,1.96,2.07,1.96,2.06,-2.05,-1.94,-1.87,-0.09,-0.09,-0.11
324.35,1.94,2.05,1.94,2.04,-2.04,-1.91,-1.83,-0.10,-0.09,-0.11
327.59,1.92,2.00,1.92,2.01,-2.01,-1.87,-1.79,-0.09,-0.09,-0.08
330.87,1.90,1.99,1.90,1.98,-1.98,-1.84,-1.76,-0.08,-0.08,-0.09
334.18,1.87,1.95,1.87,1.95,-1.95,-1.81,-1.72,-0.08,-0.08,-0.08
337.52,1.84,1.92,1.84,1.91,-1.91,-1.78,-1.69,-0.07,-0.07,-0.08
340.90,1.81,1.87,1.81,1.87,-1.87,-1.75,-1.65,-0.06,-0.06,-0.06
344.30,1.78,1.83,1.78,1.83,-1.83,-1.73,-1.62,-0.05,-0.05,-0.05
347.75,1.75,1.80,1.75,1.79,-1.79,-1.70,-1.59,-0.04,-0.04,-0.05
351.23,1.71,1.76,1.72,1.75,-1.75,-1.67,-1.56,-0.04,-0.04,-0.05
354.74,1.69,1.71,1.69,1.72,-1.72,-1.64,-1.53,-0.03,-0.03,-0.02
358.28,1.66,1.69,1.66,1.68,-1.68,-1.61,-1.50,-0.02,-0.02,-0.03
361.87,1.64,1.66,1.64,1.65,-1.65,-1.58,-1.47,-0.01,-0.01,-0.02
365.49,1.62,1.63,1.62,1.62,-1.63,-1.56,-1.45,-0.01,-0.01,-0.01
369.14,1.61,1.60,1.61,1.60,-1.61,-1.53,-1.42,-0.00,-0.00,0.01
372.83,1.60,1.59,1.60,1.59,-1.60,-1.50,-1.40,0.00,0.01,0.01
376.56,1.60,1.59,1.60,1.58,-1.58,-1.48,-1.37,0.02,0.02,0.01
380.33,1.61,1.59,1.61,1.58,-1.58,-1.45,-1.35,0.03,0.03,0.02
384.13,1.61,1.57,1.61,1.58,-1.57,-1.43,-1.33,0.04,0.04,0.04
387.97,1.62,1.58,1.62,1.57,-1.56,-1.40,-1.31,0.06,0.05,0.04
391.85,1.62,1.57,1.62,1.56,-1.56,-1.38,-1.29,0.06,0.06,0.05
395.77,1.62,1.56,1.62,1.55,-1.56,-1.35,-1.27,0.06,0.06,0.06
399.73,1.62,1.55,1.62,1.54,-1.55,-1.33,-1.25,0.07,0.07,0.07
403.72,1.63,1.53,1.63,1.54,-1.55,-1.30,-1.24,0.08,0.08,0.10
407.76,1.64,1.55,1.64,1.53,-1.54,-1.28,-1.22,0.10,0.10,0.09
411.84,1.64,1.54,1.64,1.53,-1.53,-1.25,-1.20,0.11,0.12,0.10
415.96,1.64,1.52,1.64,1.53,-1.51,-1.23,-1.19,0.13,0.13,0.12
420.12,1.64,1.52,1.63,1.51,-1.50,-1.21,-1.17,0.14,0.14,0.12
424.32,1.62,1.49,1.62,1.48,-1.48,-1.18,-1.16,0.14,0.14,0.13
428.56,1.60,1.45,1.60,1.45,-1.46,-1.16,-1.15,0.14,0.15,0.15
432.85,1.58,1.42,1.58,1.42,-1.43,-1.14,-1.13,0.15,0.15,0.16
437.18,1.56,1.41,1.56,1.39,-1.39,-1.12,-1.12,0.17,0.16,0.15
441.55,1.53,1.37,1.53,1.37,-1.36,-1.09,-1.10,0.17,0.17,0.16
445.96,1.50,1.33,1.50,1.33,-1.32,-1.07,-1.09,0.18,0.18,0.17
450.42,1.47,1.29,1.47,1.28,-1.28,-1.05,-1.08,0.19,0.19,0.18
454.93,1.43,1.24,1.43,1.24,-1.24,-1.03,-1.06,0.19,0.19,0.19
459.48,1.40,1.20,1.40,1.19,-1.20,-1.00,-1.05,0.20,0.20,0.20
464.07,1.38,1.16,1.38,1.16,-1.17,-0.98,-1.03,0.21,0.21,0.22
468.71,1.36,1.13,1.36,1.13,-1.13,-0.96,-1.02,0.23,0.22,0.23
473.40,1.34,1.11,1.34,1.10,-1.10,-0.94,-1.00,0.24,0.24,0.23
478.13,1.32,1.08,1.32,1.08,-1.08,-0.92,-0.99,0.24,0.25,0.24
482.91,1.31,1.06,1.31,1.05,-1.05,-0.89,-0.97,0.26,0.26,0.25
487.74,1.29,1.03,1.29,1.03,-1.03,-0.87,-0.95,0.26,0.26,0.26
492.62,1.28,1.01,1.28,1.00,-1.00,-0.85,-0.94,0.28,0.27,0.27
497.55,1.26,0.98,1.26,0.98,-0.98,-0.83,-0.92,0.28,0.29,0.28
502.52,1.25,0.96,1.25,0.95,-0.94,-0.80,-0.90,0.31,0.30,0.29
