frequency,raw,error,smoothed,error_smoothed,equalization,parametric_eq,fixed_band_eq,equalized_raw,equalized_smoothed,target
20.00,-1.76,-7.43,-1.75,-7.43,7.43,7.29,2.15,5.67,5.67,5.67
20.20,-1.68,-7.34,-1.68,-7.34,7.34,7.25,2.21,5.66,5.66,5.66
20.40,-1.60,-7.25,-1.60,-7.25,7.25,7.21,2.28,5.65,5.65,5.65
20.61,-1.53,-7.17,-1.53,-7.16,7.16,7.16,2.35,5.63,5.64,5.64
20.81,-1.45,-7.07,-1.45,-7.07,7.07,7.11,2.42,5.62,5.62,5.62
21.02,-1.37,-6.98,-1.37,-6.99,6.99,7.06,2.49,5.62,5.61,5.61
21.23,-1.30,-6.90,-1.30,-6.90,6.90,7.01,2.57,5.60,5.60,5.60
21.44,-1.22,-6.83,-1.22,-6.82,6.82,6.96,2.64,5.60,5.59,5.61
21.66,-1.15,-6.74,-1.15,-6.73,6.73,6.90,2.72,5.58,5.59,5.59
21.87,-1.07,-6.66,-1.07,-6.65,6.65,6.85,2.81,5.58,5.58,5.59
22.09,-1.00,-6.57,-1.00,-6.57,6.57,6.79,2.89,5.57,5.57,5.57
22.31,-0.92,-6.48,-0.93,-6.49,6.49,6.73,2.98,5.57,5.56,5.56
22.54,-0.86,-6.41,-0.85,-6.41,6.41,6.67,3.07,5.55,5.56,5.55
22.76,-0.79,-6.34,-0.78,-6.33,6.33,6.61,3.16,5.54,5.55,5.55
22.99,-0.71,-6.25,-0.71,-6.25,6.25,6.54,3.25,5.54,5.54,5.54
23.22,-0.64,-6.17,-0.64,-6.18,6.18,6.48,3.35,5.54,5.54,5.53
23.45,-0.57,-6.11,-0.57,-6.10,6.10,6.41,3.45,5.53,5.53,5.54
23.69,-0.50,-6.03,-0.49,-6.02,6.02,6.35,3.55,5.52,5.53,5.53
23.92,-0.43,-5.95,-0.42,-5.95,5.95,6.28,3.65,5.52,5.52,5.52
24.16,-0.35,-5.88,-0.35,-5.88,5.88,6.21,3.75,5.53,5.52,5.53
24.40,-0.28,-5.81,-0.29,-5.80,5.80,6.14,3.86,5.53,5.52,5.53
24.65,-0.21,-5.73,-0.22,-5.73,5.73,6.07,3.97,5.52,5.52,5.52
24.89,-0.14,-5.66,-0.15,-5.66,5.66,6.00,4.08,5.52,5.52,5.52
25.14,-0.08,-5.59,-0.08,-5.59,5.59,5.93,4.19,5.51,5.51,5.51
25.39,-0.01,-5.52,-0.01,-5.52,5.52,5.86,4.30,5.52,5.51,5.51
25.65,0.05,-5.46,0.06,-5.46,5.46,5.79,4.41,5.51,5.51,5.51
25.91,0.12,-5.39,0.12,-5.39,5.39,5.71,4.52,5.51,5.51,5.51
26.16,0.19,-5.33,0.19,-5.32,5.32,5.64,4.63,5.51,5.51,5.52
26.43,0.25,-5.26,0.26,-5.25,5.25,5.57,4.74,5.50,5.51,5.51
26.69,0.32,-5.19,0.32,-5.19,5.19,5.49,4.85,5.51,5.51,5.51
26.96,0.39,-5.12,0.39,-5.12,5.12,5.42,4.95,5.51,5.51,5.51
27.23,0.46,-5.05,0.46,-5.05,5.05,5.34,5.05,5.51,5.51,5.51
27.50,0.52,-4.99,0.53,-4.99,4.99,5.26,5.15,5.51,5.51,5.51
27.77,0.59,-4.93,0.60,-4.92,4.92,5.19,5.25,5.51,5.52,5.52
28.05,0.67,-4.84,0.66,-4.85,4.85,5.11,5.34,5.53,5.52,5.51
28.33,0.73,-4.79,0.73,-4.79,4.79,5.04,5.42,5.52,5.52,5.52
28.62,0.80,-4.72,0.80,-4.72,4.72,4.96,5.50,5.52,5.52,5.52
28.90,0.86,-4.67,0.87,-4.65,4.65,4.88,5.57,5.51,5.52,5.53
29.19,0.94,-4.59,0.93,-4.58,4.58,4.80,5.63,5.52,5.52,5.53
29.48,1.01,-4.51,1.00,-4.52,4.52,4.73,5.69,5.53,5.52,5.52
29.78,1.07,-4.45,1.07,-4.45,4.45,4.65,5.73,5.52,5.52,5.52
30.08,1.14,-4.38,1.13,-4.38,4.38,4.57,5.77,5.52,5.51,5.52
30.38,1.19,-4.31,1.20,-4.31,4.31,4.50,5.79,5.50,5.51,5.50
30.68,1.26,-4.24,1.27,-4.24,4.24,4.42,5.80,5.50,5.50,5.50
30.99,1.33,-4.17,1.33,-4.17,4.17,4.34,5.80,5.50,5.50,5.50
31.30,1.40,-4.10,1.39,-4.10,4.10,4.26,5.79,5.50,5.49,5.50
31.61,1.45,-4.04,1.46,-4.03,4.03,4.19,5.77,5.48,5.49,5.49
31.93,1.51,-3.96,1.52,-3.96,3.96,4.11,5.73,5.47,5.48,5.47
32.24,1.58,-3.90,1.58,-3.89,3.89,4.03,5.69,5.47,5.47,5.48
32.57,1.65,-3.81,1.64,-3.82,3.82,3.95,5.63,5.47,5.46,5.46
32.89,1.71,-3.75,1.70,-3.75,3.75,3.88,5.56,5.47,5.46,5.46
33.22,1.77,-3.68,1.77,-3.69,3.69,3.80,5.49,5.46,5.45,5.45
33.55,1.82,-3.63,1.82,-3.62,3.62,3.72,5.40,5.44,5.45,5.45
33.89,1.88,-3.56,1.88,-3.55,3.55,3.64,5.31,5.43,5.44,5.44
34.23,1.94,-3.48,1.94,-3.49,3.49,3.57,5.20,5.43,5.43,5.42
34.57,2.00,-3.42,2.00,-3.42,3.42,3.49,5.09,5.42,5.42,5.42
34.92,2.06,-3.34,2.05,-3.36,3.36,3.41,4.98,5.42,5.41,5.40
35.27,2.11,-3.31,2.11,-3.29,3.29,3.34,4.86,5.40,5.40,5.42
35.62,2.16,-3.23,2.16,-3.23,3.23,3.26,4.73,5.39,5.39,5.39
35.97,2.22,-3.17,2.22,-3.16,3.16,3.18,4.60,5.38,5.38,5.39
36.33,2.27,-3.10,2.27,-3.09,3.09,3.11,4.46,5.36,5.36,5.37
36.70,2.32,-3.03,2.32,-3.02,3.02,3.03,4.33,5.34,5.35,5.35
37.06,2.38,-2.95,2.38,-2.95,2.95,2.95,4.19,5.33,5.33,5.33
37.43,2.43,-2.88,2.43,-2.88,2.88,2.88,4.05,5.31,5.31,5.31
37.81,2.48,-2.82,2.48,-2.81,2.81,2.80,3.91,5.29,5.29,5.30
38.19,2.53,-2.74,2.54,-2.74,2.74,2.73,3.77,5.27,5.27,5.27
38.57,2.58,-2.67,2.59,-2.66,2.66,2.65,3.63,5.25,5.25,5.25
38.95,2.64,-2.60,2.64,-2.59,2.59,2.58,3.48,5.23,5.23,5.24
39.34,2.69,-2.52,2.69,-2.51,2.51,2.50,3.34,5.20,5.21,5.21
39.74,2.75,-2.43,2.75,-2.44,2.44,2.43,3.20,5.19,5.19,5.18
40.14,2.81,-2.35,2.80,-2.36,2.36,2.35,3.06,5.17,5.16,5.16
40.54,2.86,-2.28,2.86,-2.28,2.28,2.27,2.92,5.14,5.14,5.14
40.94,2.90,-2.21,2.91,-2.21,2.21,2.20,2.78,5.11,5.12,5.11
41.35,2.95,-2.15,2.96,-2.13,2.13,2.12,2.65,5.08,5.10,5.10
41.76,3.01,-2.06,3.02,-2.06,2.06,2.05,2.51,5.07,5.07,5.07
42.18,3.07,-1.99,3.07,-1.98,1.98,1.98,2.38,5.05,5.05,5.06
42.60,3.13,-1.90,3.12,-1.90,1.90,1.90,2.25,5.04,5.03,5.03
43.03,3.19,-1.82,3.17,-1.83,1.83,1.83,2.12,5.02,5.00,5.01
43.46,3.23,-1.74,3.22,-1.76,1.76,1.75,1.99,4.99,4.98,4.97
43.90,3.27,-1.68,3.27,-1.68,1.68,1.68,1.86,4.95,4.95,4.95
44.33,3.31,-1.61,3.32,-1.61,1.61,1.60,1.74,4.92,4.92,4.92
44.78,3.37,-1.53,3.37,-1.53,1.53,1.53,1.61,4.90,4.89,4.90
45.23,3.42,-1.46,3.42,-1.45,1.45,1.45,1.49,4.87,4.86,4.88
45.68,3.46,-1.37,3.46,-1.37,1.37,1.38,1.37,4.83,4.83,4.83
46.13,3.50,-1.30,3.51,-1.28,1.28,1.30,1.25,4.79,4.79,4.80
46.60,3.54,-1.22,3.56,-1.20,1.20,1.23,1.13,4.74,4.76,4.76
47.06,3.59,-1.14,3.60,-1.12,1.12,1.15,1.01,4.71,4.72,4.73
47.53,3.64,-1.05,3.65,-1.03,1.03,1.08,0.90,4.67,4.68,4.69
48.01,3.71,-0.93,3.70,-0.94,0.94,1.00,0.79,4.65,4.64,4.64
48.49,3.76,-0.84,3.75,-0.85,0.85,0.93,0.67,4.61,4.60,4.60
48.97,3.81,-0.74,3.80,-0.76,0.76,0.86,0.56,4.57,4.56,4.55
49.46,3.85,-0.67,3.86,-0.66,0.66,0.78,0.45,4.51,4.52,4.52
49.96,3.89,-0.57,3.91,-0.57,0.57,0.70,0.34,4.46,4.47,4.46
50.46,3.94,-0.49,3.96,-0.47,0.47,0.63,0.24,4.41,4.43,4.43
50.96,4.00,-0.39,4.01,-0.38,0.38,0.55,0.13,4.38,4.39,4.39
51.47,4.06,-0.29,4.06,-0.29,0.29,0.48,0.03,4.35,4.35,4.35
51.99,4.12,-0.18,4.11,-0.20,0.20,0.40,-0.08,4.32,4.31,4.30
52.51,4.17,-0.10,4.16,-0.11,0.11,0.33,-0.18,4.28,4.26,4.27
53.03,4.22,-0.02,4.20,-0.02,0.02,0.25,-0.28,4.24,4.22,4.24
53.56,4.26,0.07,4.24,0.06,-0.06,0.17,-0.38,4.20,4.18,4.19
54.10,4.30,0.16,4.29,0.14,-0.14,0.10,-0.47,4.16,4.14,4.14
54.64,4.33,0.23,4.33,0.22,-0.22,0.02,-0.57,4.11,4.10,4.10
55.18,4.36,0.30,4.37,0.30,-0.30,-0.06,-0.66,4.06,4.07,4.06
55.74,4.40,0.39,4.41,0.38,-0.38,-0.13,-0.75,4.02,4.03,4.01
56.29,4.43,0.44,4.44,0.45,-0.45,-0.21,-0.84,3.98,3.99,3.99
56.86,4.46,0.51,4.47,0.52,-0.52,-0.29,-0.93,3.94,3.95,3.95
57.42,4.50,0.60,4.50,0.59,-0.59,-0.37,-1.02,3.91,3.91,3.90
58.00,4.54,0.68,4.53,0.67,-0.67,-0.45,-1.10,3.87,3.86,3.86
58.58,4.57,0.74,4.56,0.74,-0.74,-0.53,-1.18,3.83,3.82,3.83
59.16,4.61,0.81,4.59,0.82,-0.82,-0.61,-1.26,3.79,3.77,3.80
59.76,4.63,0.88,4.63,0.90,-0.90,-0.68,-1.34,3.73,3.73,3.75
60.35,4.66,0.96,4.66,0.98,-0.98,-0.77,-1.42,3.68,3.68,3.70
60.96,4.68,1.04,4.70,1.07,-1.07,-0.85,-1.49,3.61,3.63,3.64
61.57,4.71,1.13,4.73,1.15,-1.15,-0.93,-1.56,3.56,3.58,3.58
62.18,4.74,1.22,4.77,1.24,-1.24,-1.01,-1.63,3.50,3.53,3.52
62.80,4.79,1.33,4.80,1.33,-1.33,-1.09,-1.69,3.46,3.47,3.46
63.43,4.83,1.42,4.83,1.41,-1.41,-1.17,-1.76,3.42,3.42,3.41
64.07,4.88,1.52,4.86,1.50,-1.50,-1.26,-1.82,3.38,3.37,3.36
64.71,4.92,1.61,4.90,1.59,-1.59,-1.34,-1.88,3.34,3.31,3.31
65.35,4.96,1.71,4.93,1.67,-1.67,-1.42,-1.94,3.29,3.26,3.25
66.01,4.98,1.78,4.96,1.76,-1.76,-1.51,-1.99,3.22,3.20,3.20
66.67,5.00,1.84,5.00,1.85,-1.85,-1.59,-2.05,3.15,3.15,3.16
67.33,5.02,1.93,5.03,1.94,-1.94,-1.68,-2.10,3.08,3.09,3.09
68.01,5.04,2.00,5.06,2.03,-2.03,-1.77,-2.15,3.01,3.04,3.04
68.69,5.07,2.08,5.10,2.11,-2.11,-1.85,-2.21,2.96,2.98,2.99
69.37,5.11,2.17,5.13,2.20,-2.20,-1.94,-2.26,2.91,2.93,2.94
70.07,5.15,2.27,5.16,2.29,-2.29,-2.03,-2.31,2.86,2.87,2.88
70.77,5.19,2.38,5.19,2.37,-2.37,-2.12,-2.36,2.82,2.81,2.81
71.48,5.22,2.46,5.21,2.46,-2.46,-2.21,-2.41,2.76,2.75,2.76
72.19,5.26,2.56,5.24,2.55,-2.55,-2.30,-2.46,2.71,2.70,2.70
72.91,5.28,2.65,5.27,2.63,-2.63,-2.39,-2.51,2.65,2.64,2.63
73.64,5.31,2.73,5.30,2.72,-2.72,-2.48,-2.56,2.59,2.58,2.58
74.38,5.34,2.82,5.33,2.80,-2.80,-2.57,-2.61,2.54,2.53,2.52
75.12,5.36,2.89,5.36,2.88,-2.88,-2.66,-2.66,2.48,2.47,2.47
75.87,5.38,2.96,5.38,2.96,-2.96,-2.75,-2.71,2.42,2.42,2.42
76.63,5.40,3.04,5.41,3.04,-3.04,-2.85,-2.77,2.36,2.37,2.36
77.40,5.42,3.10,5.43,3.11,-3.11,-2.94,-2.82,2.31,2.32,2.32
78.17,5.44,3.18,5.45,3.18,-3.18,-3.03,-2.88,2.26,2.27,2.26
78.95,5.47,3.25,5.47,3.25,-3.25,-3.13,-2.94,2.22,2.22,2.22
79.74,5.49,3.32,5.49,3.33,-3.33,-3.22,-3.00,2.16,2.17,2.17
80.54,5.52,3.40,5.51,3.40,-3.40,-3.32,-3.07,2.12,2.12,2.12
81.35,5.54,3.48,5.54,3.47,-3.47,-3.41,-3.13,2.07,2.07,2.06
82.16,5.55,3.52,5.56,3.55,-3.55,-3.50,-3.20,2.01,2.02,2.03
82.98,5.57,3.60,5.58,3.62,-3.62,-3.60,-3.27,1.95,1.96,1.97
83.81,5.60,3.68,5.61,3.70,-3.70,-3.69,-3.34,1.90,1.91,1.92
84.65,5.63,3.77,5.63,3.77,-3.77,-3.79,-3.42,1.86,1.86,1.86
85.50,5.66,3.86,5.66,3.85,-3.85,-3.88,-3.49,1.81,1.81,1.80
86.35,5.69,3.94,5.68,3.93,-3.93,-3.98,-3.57,1.76,1.75,1.75
87.22,5.71,4.01,5.70,4.01,-4.01,-4.07,-3.66,1.70,1.70,1.70
88.09,5.73,4.09,5.72,4.08,-4.08,-4.16,-3.74,1.65,1.64,1.64
88.97,5.75,4.17,5.75,4.16,-4.16,-4.25,-3.83,1.59,1.58,1.58
89.86,5.77,4.24,5.77,4.24,-4.24,-4.35,-3.92,1.53,1.53,1.53
90.76,5.79,4.32,5.79,4.33,-4.33,-4.44,-4.02,1.46,1.47,1.47
91.66,5.82,4.42,5.82,4.41,-4.41,-4.53,-4.11,1.41,1.41,1.40
92.58,5.84,4.49,5.84,4.50,-4.50,-4.61,-4.21,1.34,1.35,1.35
93.51,5.86,4.56,5.87,4.58,-4.58,-4.70,-4.32,1.28,1.29,1.30
94.44,5.88,4.64,5.89,4.67,-4.67,-4.79,-4.42,1.21,1.22,1.24
95.39,5.91,4.74,5.92,4.76,-4.76,-4.87,-4.53,1.15,1.16,1.17
96.34,5.93,4.83,5.95,4.84,-4.84,-4.96,-4.64,1.09,1.10,1.10
97.30,5.96,4.92,5.97,4.93,-4.93,-5.04,-4.75,1.03,1.04,1.04
98.28,6.00,5.03,6.00,5.02,-5.02,-5.12,-4.87,0.98,0.98,0.97
99.26,6.03,5.12,6.03,5.11,-5.11,-5.20,-4.99,0.92,0.92,0.91
100.25,6.05,5.20,6.05,5.19,-5.19,-5.28,-5.11,0.86,0.86,0.85
101.25,6.08,5.28,6.07,5.27,-5.27,-5.35,-5.23,0.81,0.80,0.80
102.27,6.10,5.36,6.09,5.35,-5.35,-5.43,-5.35,0.75,0.74,0.74
103.29,6.12,5.44,6.10,5.42,-5.42,-5.50,-5.47,0.70,0.68,0.68
104.32,6.13,5.50,6.12,5.49,-5.49,-5.57,-5.60,0.64,0.63,0.63
105.37,6.14,5.57,6.13,5.55,-5.55,-5.64,-5.72,0.59,0.57,0.57
106.42,6.14,5.62,6.13,5.62,-5.62,-5.70,-5.85,0.52,0.51,0.52
107.48,6.14,5.68,6.14,5.68,-5.68,-5.77,-5.97,0.46,0.46,0.46
108.56,6.13,5.72,6.14,5.74,-5.74,-5.83,-6.09,0.39,0.40,0.41
109.64,6.12,5.77,6.14,5.79,-5.79,-5.89,-6.21,0.33,0.34,0.35
110.74,6.12,5.83,6.13,5.85,-5.85,-5.95,-6.33,0.27,0.28,0.29
111.85,6.12,5.89,6.13,5.91,-5.91,-6.01,-6.45,0.21,0.22,0.23
112.97,6.12,5.94,6.13,5.96,-5.96,-6.06,-6.56,0.16,0.17,0.18
114.10,6.12,6.00,6.12,6.02,-6.02,-6.12,-6.67,0.10,0.11,0.12
115.24,6.12,6.08,6.12,6.07,-6.07,-6.17,-6.77,0.05,0.05,0.04
116.39,6.12,6.14,6.11,6.12,-6.12,-6.22,-6.87,-0.00,-0.01,-0.02
117.55,6.12,6.20,6.11,6.17,-6.17,-6.28,-6.97,-0.05,-0.07,-0.08
118.73,6.12,6.26,6.11,6.23,-6.23,-6.32,-7.05,-0.11,-0.12,-0.14
119.92,6.12,6.30,6.10,6.28,-6.28,-6.37,-7.13,-0.16,-0.18,-0.18
121.12,6.11,6.34,6.10,6.34,-6.34,-6.42,-7.21,-0.23,-0.24,-0.23
122.33,6.10,6.39,6.11,6.40,-6.40,-6.47,-7.27,-0.30,-0.29,-0.29
123.55,6.10,6.44,6.11,6.46,-6.46,-6.52,-7.33,-0.36,-0.35,-0.34
124.79,6.10,6.49,6.12,6.52,-6.52,-6.56,-7.38,-0.42,-0.40,-0.39
126.03,6.11,6.56,6.13,6.58,-6.58,-6.61,-7.42,-0.47,-0.46,-0.45
127.29,6.12,6.62,6.14,6.65,-6.65,-6.65,-7.46,-0.53,-0.51,-0.50
128.57,6.14,6.71,6.15,6.72,-6.72,-6.70,-7.49,-0.58,-0.57,-0.57
129.85,6.16,6.78,6.17,6.79,-6.79,-6.74,-7.51,-0.63,-0.62,-0.62
131.15,6.19,6.87,6.20,6.87,-6.87,-6.79,-7.52,-0.68,-0.68,-0.68
132.46,6.22,6.95,6.22,6.95,-6.95,-6.83,-7.53,-0.73,-0.73,-0.73
133.79,6.25,7.04,6.25,7.04,-7.04,-6.87,-7.53,-0.79,-0.79,-0.79
135.12,6.28,7.12,6.28,7.12,-7.12,-6.92,-7.52,-0.84,-0.84,-0.84
136.48,6.31,7.20,6.31,7.20,-7.20,-6.96,-7.51,-0.89,-0.89,-0.89
137.84,6.34,7.28,6.34,7.28,-7.28,-7.01,-7.50,-0.94,-0.94,-0.94
139.22,6.37,7.37,6.37,7.36,-7.36,-7.05,-7.48,-0.99,-1.00,-1.00
140.61,6.40,7.44,6.39,7.43,-7.43,-7.10,-7.46,-1.03,-1.04,-1.04
142.02,6.42,7.52,6.41,7.50,-7.50,-7.14,-7.44,-1.08,-1.09,-1.10
143.44,6.44,7.58,6.43,7.56,-7.56,-7.19,-7.42,-1.12,-1.14,-1.14
144.87,6.46,7.64,6.44,7.62,-7.62,-7.24,-7.39,-1.16,-1.18,-1.18
146.32,6.46,7.69,6.45,7.68,-7.68,-7.28,-7.37,-1.22,-1.23,-1.23
147.78,6.47,7.74,6.45,7.73,-7.73,-7.33,-7.34,-1.26,-1.27,-1.27
149.26,6.46,7.78,6.46,7.77,-7.77,-7.38,-7.32,-1.31,-1.32,-1.32
150.75,6.45,7.81,6.46,7.82,-7.82,-7.43,-7.30,-1.37,-1.36,-1.36
152.26,6.45,7.85,6.46,7.86,-7.86,-7.48,-7.28,-1.41,-1.40,-1.40
153.78,6.44,7.88,6.46,7.90,-7.90,-7.53,-7.26,-1.46,-1.45,-1.44
155.32,6.44,7.92,6.45,7.94,-7.94,-7.58,-7.25,-1.50,-1.49,-1.48
156.88,6.44,7.97,6.45,7.98,-7.98,-7.63,-7.24,-1.54,-1.53,-1.53
158.44,6.44,8.02,6.45,8.02,-8.02,-7.68,-7.23,-1.58,-1.58,-1.58
160.03,6.44,8.06,6.44,8.07,-8.07,-7.73,-7.23,-1.62,-1.62,-1.62
161.63,6.44,8.10,6.44,8.11,-8.11,-7.78,-7.23,-1.67,-1.67,-1.66
163.24,6.44,8.15,6.44,8.15,-8.15,-7.83,-7.23,-1.71,-1.71,-1.71
164.88,6.44,8.20,6.44,8.20,-8.20,-7.88,-7.24,-1.76,-1.76,-1.76
166.53,6.44,8.25,6.44,8.24,-8.24,-7.94,-7.26,-1.80,-1.81,-1.81
168.19,6.44,8.28,6.44,8.29,-8.29,-7.99,-7.28,-1.85,-1.85,-1.84
169.87,6.44,8.34,6.44,8.34,-8.34,-8.04,-7.30,-1.90,-1.90,-1.90
171.57,6.44,8.39,6.44,8.39,-8.39,-8.10,-7.33,-1.95,-1.95,-1.95
173.29,6.44,8.43,6.44,8.44,-8.44,-8.15,-7.37,-2.00,-2.00,-1.99
175.02,6.44,8.48,6.44,8.48,-8.48,-8.21,-7.41,-2.04,-2.04,-2.04
176.77,6.44,8.53,6.44,8.53,-8.53,-8.26,-7.45,-2.09,-2.09,-2.09
178.54,6.44,8.57,6.44,8.58,-8.58,-8.32,-7.50,-2.13,-2.13,-2.13
180.32,6.44,8.63,6.44,8.62,-8.62,-8.37,-7.56,-2.18,-2.18,-2.19
182.13,6.44,8.66,6.44,8.67,-8.67,-8.42,-7.62,-2.23,-2.23,-2.22
183.95,6.44,8.71,6.44,8.71,-8.71,-8.48,-7.69,-2.27,-2.27,-2.27
185.79,6.44,8.76,6.44,8.76,-8.76,-8.53,-7.77,-2.32,-2.32,-2.32
187.65,6.44,8.80,6.44,8.80,-8.80,-8.59,-7.85,-2.36,-2.36,-2.36
189.52,6.44,8.84,6.44,8.85,-8.85,-8.64,-7.93,-2.41,-2.41,-2.40
191.42,6.44,8.88,6.44,8.89,-8.89,-8.70,-8.02,-2.45,-2.45,-2.44
193.33,6.44,8.92,6.44,8.93,-8.93,-8.75,-8.11,-2.49,-2.49,-2.48
195.27,6.44,8.97,6.44,8.97,-8.97,-8.81,-8.21,-2.53,-2.53,-2.53
197.22,6.44,9.02,6.44,9.01,-9.01,-8.86,-8.32,-2.57,-2.57,-2.58
199.19,6.44,9.05,6.44,9.04,-9.04,-8.91,-8.43,-2.60,-2.60,-2.61
201.18,6.44,9.09,6.44,9.08,-9.08,-8.97,-8.54,-2.64,-2.64,-2.65
203.19,6.44,9.12,6.44,9.12,-9.12,-9.02,-8.66,-2.68,-2.68,-2.68
205.23,6.44,9.14,6.44,9.15,-9.15,-9.07,-8.78,-2.71,-2.71,-2.70
207.28,6.44,9.17,6.44,9.18,-9.18,-9.12,-8.90,-2.74,-2.74,-2.73
209.35,6.44,9.21,6.44,9.21,-9.21,-9.17,-9.02,-2.77,-2.77,-2.77
211.44,6.44,9.24,6.44,9.24,-9.24,-9.22,-9.15,-2.80,-2.80,-2.80
213.56,6.44,9.26,6.44,9.27,-9.27,-9.27,-9.27,-2.83,-2.83,-2.82
215.69,6.44,9.29,6.44,9.30,-9.30,-9.32,-9.40,-2.86,-2.86,-2.85
217.85,6.44,9.32,6.44,9.32,-9.32,-9.37,-9.53,-2.88,-2.88,-2.88
220.03,6.44,9.35,6.44,9.35,-9.35,-9.41,-9.65,-2.90,-2.91,-2.91
222.23,6.44,9.38,6.44,9.37,-9.37,-9.46,-9.77,-2.93,-2.93,-2.94
224.45,6.44,9.39,6.44,9.39,-9.39,-9.50,-9.89,-2.95,-2.95,-2.95
226.70,6.44,9.42,6.44,9.42,-9.42,-9.55,-10.00,-2.98,-2.98,-2.98
228.96,6.44,9.43,6.44,9.44,-9.44,-9.59,-10.11,-3.00,-3.00,-2.99
231.25,6.44,9.45,6.45,9.46,-9.46,-9.63,-10.21,-3.02,-3.01,-3.01
233.57,6.44,9.47,6.45,9.48,-9.48,-9.67,-10.30,-3.04,-3.03,-3.03
235.90,6.44,9.48,6.46,9.50,-9.50,-9.71,-10.39,-3.06,-3.04,-3.04
238.26,6.44,9.51,6.46,9.52,-9.52,-9.75,-10.46,-3.08,-3.06,-3.07
240.64,6.45,9.51,6.46,9.53,-9.53,-9.78,-10.52,-3.08,-3.07,-3.06
243.05,6.46,9.54,6.46,9.54,-9.54,-9.81,-10.57,-3.08,-3.08,-3.08
245.48,6.47,9.56,6.46,9.54,-9.54,-9.85,-10.60,-3.07,-3.09,-3.09
247.93,6.47,9.57,6.45,9.54,-9.54,-9.88,-10.62,-3.07,-3.09,-3.10
250.41,6.46,9.55,6.44,9.54,-9.54,-9.91,-10.63,-3.08,-3.10,-3.09
252.92,6.45,9.55,6.43,9.53,-9.53,-9.93,-10.62,-3.08,-3.10,-3.10
255.45,6.43,9.54,6.41,9.52,-9.52,-9.96,-10.60,-3.09,-3.11,-3.11
258.00,6.40,9.51,6.40,9.51,-9.51,-9.98,-10.57,-3.11,-3.11,-3.11
260.58,6.38,9.49,6.37,9.49,-9.49,-10.00,-10.53,-3.11,-3.12,-3.11
263.19,6.35,9.46,6.35,9.47,-9.47,-10.02,-10.47,-3.12,-3.12,-3.11
265.82,6.32,9.44,6.32,9.45,-9.45,-10.04,-10.40,-3.12,-3.12,-3.12
268.48,6.29,9.41,6.30,9.42,-9.42,-10.05,-10.32,-3.13,-3.12,-3.12
271.16,6.26,9.38,6.27,9.40,-9.40,-10.07,-10.23,-3.13,-3.13,-3.12
273.87,6.23,9.35,6.24,9.37,-9.37,-10.08,-10.14,-3.14,-3.13,-3.12
276.61,6.20,9.32,6.22,9.35,-9.35,-10.09,-10.03,-3.14,-3.13,-3.12
279.38,6.18,9.32,6.19,9.32,-9.32,-10.09,-9.93,-3.14,-3.13,-3.14
282.17,6.16,9.30,6.17,9.30,-9.30,-10.10,-9.81,-3.14,-3.13,-3.14
284.99,6.14,9.27,6.15,9.28,-9.28,-10.10,-9.70,-3.14,-3.13,-3.13
287.84,6.13,9.25,6.13,9.26,-9.26,-10.10,-9.58,-3.13,-3.13,-3.12
290.72,6.11,9.24,6.11,9.24,-9.24,-10.10,-9.46,-3.13,-3.12,-3.13
293.63,6.10,9.22,6.10,9.22,-9.22,-10.09,-9.34,-3.12,-3.12,-3.12
296.57,6.08,9.19,6.08,9.19,-9.19,-10.09,-9.22,-3.11,-3.12,-3.11
299.53,6.07,9.18,6.05,9.17,-9.17,-10.08,-9.10,-3.09,-3.11,-3.11
302.53,6.05,9.14,6.03,9.14,-9.14,-10.07,-8.99,-3.09,-3.10,-3.09
305.55,6.03,9.13,6.01,9.11,-9.11,-10.05,-8.87,-3.08,-3.10,-3.10
308.61,6.00,9.09,5.99,9.08,-9.08,-10.04,-8.76,-3.08,-3.09,-3.09
311.69,5.97,9.05,5.96,9.05,-9.05,-10.02,-8.66,-3.08,-3.08,-3.08
314.81,5.94,9.02,5.94,9.02,-9.02,-10.00,-8.55,-3.07,-3.08,-3.08
317.96,5.91,8.98,5.92,8.99,-8.99,-9.98,-8.45,-3.08,-3.07,-3.07
321.14,5.88,8.94,5.90,8.96,-8.96,-9.95,-8.36,-3.08,-3.06,-3.06
324.35,5.85,8.91,5.88,8.93,-8.93,-9.93,-8.27,-3.08,-3.05,-3.06
327.59,5.83,8.86,5.86,8.90,-8.90,-9.90,-8.19,-3.07,-3.05,-3.03
330.87,5.82,8.86,5.84,8.88,-8.88,-9.87,-8.11,-3.06,-3.04,-3.04
334.18,5.81,8.84,5.82,8.86,-8.86,-9.83,-8.03,-3.05,-3.03,-3.03
337.52,5.80,8.83,5.81,8.83,-8.83,-9.80,-7.96,-3.03,-3.02,-3.03
340.90,5.80,8.81,5.79,8.81,-8.81,-9.76,-7.90,-3.01,-3.01,-3.01
344.30,5.79,8.79,5.78,8.79,-8.79,-9.72,-7.84,-2.99,-3.01,-3.00
347.75,5.78,8.78,5.76,8.76,-8.76,-9.68,-7.79,-2.98,-3.00,-3.00
351.23,5.77,8.77,5.75,8.74,-8.74,-9.64,-7.75,-2.97,-2.99,-3.00
354.74,5.75,8.72,5.73,8.71,-8.71,-9.60,-7.71,-2.96,-2.98,-2.97
358.28,5.72,8.70,5.71,8.68,-8.68,-9.55,-7.67,-2.96,-2.98,-2.98
361.87,5.69,8.66,5.69,8.66,-8.66,-9.50,-7.65,-2.97,-2.97,-2.97
365.49,5.66,8.62,5.66,8.63,-8.63,-9.45,-7.62,-2.96,-2.96,-2.96
369.14,5.63,8.57,5.64,8.59,-8.59,-9.40,-7.61,-2.96,-2.95,-2.94
372.83,5.60,8.54,5.61,8.56,-8.56,-9.35,-7.60,-2.96,-2.94,-2.94
376.56,5.58,8.52,5.59,8.52,-8.52,-9.29,-7.59,-2.94,-2.93,-2.94
380.33,5.55,8.48,5.56,8.49,-8.49,-9.24,-7.59,-2.94,-2.93,-2.93
384.13,5.53,8.44,5.54,8.45,-8.45,-9.18,-7.59,-2.92,-2.92,-2.91
387.97,5.51,8.42,5.51,8.42,-8.42,-9.12,-7.60,-2.91,-2.91,-2.91
391.85,5.49,8.39,5.49,8.38,-8.38,-9.06,-7.61,-2.89,-2.90,-2.90
395.77,5.46,8.35,5.47,8.35,-8.35,-9.00,-7.63,-2.89,-2.89,-2.89
399.73,5.44,8.32,5.45,8.32,-8.32,-8.94,-7.65,-2.88,-2.88,-2.88
403.72,5.42,8.27,5.43,8.29,-8.29,-8.88,-7.68,-2.87,-2.87,-2.85
407.76,5.40,8.26,5.40,8.26,-8.26,-8.81,-7.71,-2.86,-2.86,-2.86
411.84,5.38,8.23,5.38,8.23,-8.23,-8.75,-7.74,-2.85,-2.85,-2.85
415.96,5.36,8.19,5.36,8.20,-8.20,-8.68,-7.77,-2.83,-2.84,-2.83
420.12,5.34,8.17,5.33,8.16,-8.16,-8.62,-7.81,-2.82,-2.83,-2.83
424.32,5.31,8.13,5.30,8.12,-8.12,-8.55,-7.85,-2.81,-2.82,-2.82
428.56,5.29,8.09,5.28,8.09,-8.09,-8.48,-7.88,-2.80,-2.81,-2.80
432.85,5.26,8.05,5.25,8.05,-8.05,-8.41,-7.92,-2.79,-2.80,-2.79
437.18,5.23,8.03,5.22,8.01,-8.01,-8.34,-7.96,-2.78,-2.79,-2.80
441.55,5.19,7.98,5.19,7.98,-7.98,-8.27,-8.00,-2.79,-2.78,-2.79
445.96,5.15,7.93,5.16,7.94,-7.94,-8.19,-8.03,-2.79,-2.78,-2.78
450.42,5.11,7.88,5.13,7.90,-7.90,-8.12,-8.07,-2.79,-2.77,-2.77
454.93,5.08,7.84,5.10,7.86,-7.86,-8.05,-8.10,-2.78,-2.76,-2.76
459.48,5.05,7.80,5.07,7.82,-7.82,-7.98,-8.12,-2.77,-2.75,-2.75
464.07,5.03,7.76,5.03,7.78,-7.78,-7.90,-8.14,-2.74,-2.74,-2.73
468.71,5.01,7.73,5.00,7.73,-7.73,-7.83,-8.16,-2.72,-2.73,-2.72
473.40,4.98,7.70,4.97,7.69,-7.69,-7.75,-8.17,-2.71,-2.72,-2.72
478.13,4.95,7.66,4.93,7.64,-7.64,-7.68,-8.17,-2.69,-2.71,-2.71
482.91,4.91,7.61,4.89,7.60,-7.60,-7.60,-8.16,-2.68,-2.70,-2.70
487.74,4.86,7.55,4.86,7.55,-7.55,-7.52,-8.15,-2.69,-2.69,-2.69
492.62,4.82,7.50,4.83,7.50,-7.50,-7.45,-8.13,-2.68,-2.68,-2.68
497.55,4.78,7.45,4.79,7.46,-7.46,-7.37,-8.10,-2.67,-2.67,-2.67
502.52,4.74,7.40,4.75,7.41,-7.41,-7.29,-8.06,-2.66,-2.65,-2.66
507.55,4.70,7.34,4.71,7.35,-7.35,-7.22,-8.01,-2.65,-2.64,-2.64
