frequency,raw,error,smoothed,error_smoothed,equalization,parametric_eq,fixed_band_eq,equalized_raw,equalized_smoothed,target
20.00,-25.59,-28.87,-25.59,-28.87,28.87,28.71,14.83,3.27,3.27,3.27
20.20,-25.49,-28.80,-25.49,-28.79,28.79,28.71,15.02,3.30,3.30,3.30
20.40,-25.38,-28.71,-25.39,-28.72,28.72,28.69,15.22,3.34,3.33,3.33
20.61,-25.28,-28.64,-25.28,-28.64,28.64,28.66,15.42,3.36,3.36,3.35
20.81,-25.18,-28.56,-25.18,-28.56,28.56,28.61,15.62,3.38,3.38,3.38
21.02,-25.07,-28.49,-25.08,-28.48,28.48,28.56,15.83,3.41,3.40,3.41
21.23,-24.97,-28.40,-24.97,-28.40,28.39,28.50,16.04,3.42,3.42,3.42
21.44,-24.87,-28.30,-24.87,-28.30,28.30,28.44,16.26,3.43,3.43,3.43
21.66,-24.76,-28.21,-24.77,-28.21,28.21,28.36,16.48,3.44,3.44,3.44
21.87,-24.66,-28.10,-24.66,-28.11,28.11,28.28,16.71,3.45,3.45,3.44
22.09,-24.56,-28.01,-24.56,-28.01,28.01,28.19,16.95,3.45,3.45,3.45
22.31,-24.46,-27.91,-24.46,-27.91,27.91,28.10,17.19,3.45,3.45,3.45
22.54,-24.35,-27.81,-24.36,-27.81,27.81,28.00,17.44,3.45,3.45,3.45
22.76,-24.25,-27.70,-24.25,-27.70,27.70,27.90,17.69,3.45,3.45,3.45
22.99,-24.15,-27.60,-24.15,-27.59,27.60,27.79,17.96,3.45,3.45,3.44
23.22,-24.04,-27.49,-24.05,-27.49,27.49,27.68,18.23,3.45,3.45,3.44
23.45,-23.94,-27.38,-23.94,-27.38,27.39,27.57,18.50,3.45,3.45,3.44
23.69,-23.84,-27.29,-23.84,-27.28,27.28,27.46,18.79,3.44,3.44,3.44
23.92,-23.73,-27.17,-23.74,-27.18,27.18,27.34,19.09,3.45,3.44,3.44
24.16,-23.63,-27.07,-23.63,-27.07,27.07,27.22,19.40,3.44,3.44,3.44
24.40,-23.53,-26.97,-23.53,-26.97,26.97,27.10,19.72,3.44,3.44,3.44
24.65,-23.42,-26.86,-23.43,-26.86,26.86,26.98,20.05,3.44,3.44,3.43
24.89,-23.32,-26.75,-23.32,-26.75,26.76,26.86,20.39,3.43,3.43,3.43
25.14,-23.22,-26.65,-23.22,-26.65,26.65,26.73,20.74,3.43,3.43,3.43
25.39,-23.11,-26.54,-23.11,-26.55,26.55,26.61,21.12,3.44,3.43,3.43
25.65,-23.01,-26.45,-23.01,-26.44,26.45,26.48,21.50,3.44,3.44,3.43
25.91,-22.91,-26.34,-22.91,-26.34,26.35,26.35,21.91,3.44,3.44,3.42
26.16,-22.81,-26.23,-22.81,-26.23,26.25,26.22,22.33,3.44,3.44,3.42
26.43,-22.70,-26.13,-22.72,-26.14,26.15,26.09,22.77,3.44,3.43,3.42
26.69,-22.62,-26.05,-22.62,-26.05,26.03,25.96,23.24,3.41,3.41,3.42
26.96,-22.52,-25.95,-22.51,-25.94,25.90,25.82,23.73,3.38,3.39,3.42
27.23,-22.39,-25.81,-22.38,-25.80,25.76,25.69,24.24,3.37,3.38,3.41
27.50,-22.21,-25.63,-22.22,-25.63,25.61,25.55,24.79,3.40,3.39,3.41
27.77,-22.04,-25.44,-22.04,-25.45,25.45,25.41,25.36,3.41,3.41,3.40
28.05,-21.85,-25.25,-21.86,-25.26,25.27,25.27,25.97,3.42,3.42,3.40
28.33,-21.68,-25.07,-21.68,-25.07,25.09,25.13,26.61,3.41,3.42,3.39
28.62,-21.50,-24.89,-21.50,-24.89,24.91,24.99,27.29,3.41,3.41,3.39
28.90,-21.33,-24.72,-21.33,-24.72,24.72,24.84,28.00,3.39,3.39,3.39
29.19,-21.15,-24.53,-21.15,-24.53,24.53,24.69,28.75,3.38,3.39,3.38
29.48,-20.97,-24.35,-20.98,-24.36,24.35,24.54,29.52,3.38,3.38,3.38
29.78,-20.79,-24.17,-20.79,-24.17,24.17,24.39,30.29,3.38,3.38,3.37
30.08,-20.63,-24.00,-20.62,-23.99,23.99,24.23,31.05,3.36,3.37,3.37
30.38,-20.43,-23.79,-20.44,-23.81,23.80,24.07,31.73,3.38,3.36,3.36
30.68,-20.26,-23.63,-20.26,-23.62,23.61,23.91,32.27,3.35,3.35,3.36
30.99,-20.08,-23.44,-20.07,-23.43,23.42,23.75,32.60,3.33,3.34,3.35
31.30,-19.87,-23.22,-19.89,-23.24,23.23,23.58,32.65,3.35,3.33,3.34
31.61,-19.71,-23.06,-19.70,-23.04,23.04,23.41,32.41,3.32,3.34,3.34
31.93,-19.51,-22.84,-19.51,-22.84,22.85,23.24,31.92,3.35,3.35,3.33
32.24,-19.32,-22.64,-19.33,-22.66,22.67,23.07,31.25,3.35,3.35,3.32
32.57,-19.15,-22.48,-19.15,-22.47,22.50,22.89,30.47,3.34,3.35,3.32
32.89,-19.00,-22.31,-19.00,-22.31,22.33,22.71,29.65,3.32,3.33,3.31
33.22,-18.84,-22.14,-18.85,-22.16,22.15,22.52,28.82,3.31,3.30,3.30
33.55,-18.70,-22.00,-18.70,-22.00,21.98,22.34,28.00,3.28,3.28,3.30
33.89,-18.54,-21.84,-18.54,-21.83,21.80,22.15,27.21,3.26,3.27,3.29
34.23,-18.36,-21.65,-18.36,-21.64,21.62,21.95,26.45,3.26,3.26,3.28
34.57,-18.16,-21.43,-18.16,-21.44,21.43,21.76,25.73,3.27,3.27,3.27
34.92,-17.95,-21.22,-17.97,-21.23,21.24,21.56,25.05,3.28,3.27,3.26
35.27,-17.77,-21.03,-17.77,-21.02,21.03,21.36,24.40,3.26,3.26,3.25
35.62,-17.58,-20.83,-17.57,-20.82,20.82,21.15,23.78,3.24,3.25,3.24
35.97,-17.37,-20.60,-17.38,-20.61,20.61,20.95,23.19,3.24,3.23,3.23
36.33,-17.18,-20.40,-17.18,-20.40,20.40,20.74,22.62,3.22,3.23,3.22
36.70,-16.98,-20.20,-16.98,-20.19,20.20,20.53,22.08,3.21,3.22,3.21
37.06,-16.78,-19.98,-16.79,-19.99,19.99,20.31,21.56,3.21,3.20,3.20
37.43,-16.59,-19.78,-16.59,-19.78,19.78,20.10,21.06,3.19,3.20,3.19
37.81,-16.39,-19.58,-16.39,-19.58,19.58,19.88,20.58,3.18,3.18,3.18
38.19,-16.19,-19.37,-16.20,-19.38,19.37,19.65,20.12,3.18,3.17,3.17
38.57,-16.01,-19.18,-16.00,-19.17,19.16,19.43,19.67,3.15,3.16,3.16
38.95,-15.81,-18.96,-15.81,-18.96,18.95,19.21,19.24,3.14,3.15,3.15
39.34,-15.60,-18.73,-15.61,-18.74,18.74,18.98,18.82,3.14,3.14,3.13
39.74,-15.40,-18.53,-15.41,-18.53,18.53,18.75,18.41,3.13,3.12,3.12
40.14,-15.21,-18.33,-15.21,-18.32,18.32,18.52,18.02,3.10,3.11,3.11
40.54,-15.01,-18.12,-15.01,-18.11,18.11,18.29,17.63,3.09,3.10,3.10
40.94,-14.80,-17.89,-14.80,-17.90,17.89,18.05,17.25,3.09,3.09,3.09
41.35,-14.59,-17.67,-14.59,-17.68,17.68,17.82,16.88,3.09,3.09,3.08
41.76,-14.39,-17.46,-14.39,-17.46,17.47,17.58,16.52,3.08,3.08,3.07
42.18,-14.19,-17.25,-14.19,-17.26,17.26,17.34,16.17,3.07,3.07,3.06
42.60,-14.00,-17.05,-14.00,-17.05,17.06,17.10,15.82,3.06,3.05,3.05
43.03,-13.81,-16.86,-13.81,-16.85,16.85,16.86,15.48,3.04,3.04,3.04
43.46,-13.63,-16.65,-13.63,-16.65,16.65,16.62,15.14,3.02,3.02,3.02
43.90,-13.44,-16.45,-13.45,-16.45,16.45,16.37,14.81,3.01,3.01,3.00
44.33,-13.26,-16.24,-13.26,-16.25,16.25,16.13,14.48,2.99,2.99,2.98
44.78,-13.09,-16.06,-13.09,-16.05,16.05,15.88,14.16,2.96,2.97,2.96
45.23,-12.89,-15.84,-12.91,-15.85,15.85,15.64,13.84,2.95,2.94,2.94
45.68,-12.73,-15.67,-12.72,-15.65,15.64,15.39,13.53,2.91,2.92,2.93
46.13,-12.52,-15.43,-12.52,-15.44,15.43,15.14,13.22,2.91,2.91,2.91
46.60,-12.31,-15.22,-12.31,-15.21,15.21,14.89,12.91,2.90,2.90,2.90
47.06,-12.09,-14.97,-12.10,-14.98,14.99,14.64,12.60,2.90,2.89,2.88
47.53,-11.88,-14.74,-11.88,-14.75,14.75,14.39,12.30,2.87,2.87,2.86
48.01,-11.67,-14.53,-11.67,-14.52,14.51,14.14,12.00,2.83,2.84,2.85
48.49,-11.45,-14.28,-11.45,-14.27,14.25,13.89,11.71,2.80,2.80,2.82
48.97,-11.22,-14.01,-11.22,-14.01,14.00,13.64,11.41,2.77,2.78,2.79
49.46,-10.97,-13.73,-10.97,-13.74,13.73,13.38,11.12,2.76,2.76,2.76
49.96,-10.72,-13.46,-10.72,-13.46,13.47,13.13,10.83,2.75,2.75,2.73
50.46,-10.47,-13.19,-10.47,-13.19,13.21,12.87,10.55,2.73,2.73,2.71
50.96,-10.23,-12.92,-10.24,-12.93,12.94,12.61,10.26,2.71,2.71,2.69
51.47,-10.00,-12.66,-10.00,-12.67,12.68,12.36,9.98,2.68,2.68,2.66
51.99,-9.78,-12.43,-9.78,-12.42,12.43,12.10,9.70,2.64,2.65,2.64
52.51,-9.54,-12.17,-9.55,-12.17,12.17,11.84,9.43,2.63,2.62,2.62
53.03,-9.31,-11.92,-9.32,-11.92,11.91,11.58,9.15,2.60,2.60,2.60
53.56,-9.08,-11.65,-9.08,-11.66,11.65,11.31,8.89,2.56,2.56,2.57
54.10,-8.84,-11.40,-8.84,-11.39,11.37,11.05,8.62,2.53,2.53,2.55
54.64,-8.58,-11.11,-8.58,-11.11,11.08,10.79,8.36,2.50,2.50,2.52
55.18,-8.30,-10.80,-8.30,-10.80,10.79,10.52,8.10,2.49,2.49,2.50
55.74,-8.00,-10.48,-8.01,-10.48,10.48,10.26,7.85,2.48,2.48,2.47
56.29,-7.70,-10.15,-7.71,-10.16,10.18,9.99,7.60,2.47,2.47,2.45
56.86,-7.42,-9.86,-7.41,-9.84,9.86,9.72,7.35,2.44,2.45,2.43
57.42,-7.12,-9.52,-7.13,-9.53,9.54,9.45,7.11,2.42,2.42,2.40
58.00,-6.83,-9.22,-6.84,-9.22,9.22,9.17,6.88,2.39,2.39,2.38
58.58,-6.55,-8.92,-6.55,-8.91,8.90,8.90,6.65,2.35,2.36,2.36
59.16,-6.25,-8.59,-6.26,-8.60,8.59,8.63,6.43,2.34,2.33,2.34
59.76,-5.96,-8.29,-5.96,-8.28,8.27,8.35,6.22,2.30,2.31,2.32
60.35,-5.65,-7.94,-5.65,-7.95,7.95,8.07,6.01,2.29,2.29,2.29
60.96,-5.35,-7.62,-5.36,-7.62,7.62,7.79,5.81,2.27,2.26,2.26
61.57,-5.06,-7.29,-5.07,-7.29,7.30,7.50,5.61,2.24,2.24,2.22
62.18,-4.79,-6.98,-4.78,-6.98,6.98,7.22,5.43,2.19,2.20,2.19
62.80,-4.49,-6.65,-4.49,-6.66,6.66,6.93,5.25,2.17,2.16,2.16
63.43,-4.21,-6.34,-4.21,-6.34,6.34,6.64,5.07,2.13,2.13,2.13
64.07,-3.91,-6.02,-3.92,-6.02,6.03,6.35,4.90,2.11,2.11,2.10
64.71,-3.64,-5.73,-3.63,-5.71,5.71,6.06,4.74,2.07,2.08,2.08
65.35,-3.33,-5.38,-3.35,-5.40,5.40,5.76,4.59,2.07,2.05,2.05
66.01,-3.07,-5.10,-3.07,-5.09,5.09,5.46,4.44,2.01,2.02,2.02
66.67,-2.79,-4.79,-2.78,-4.78,4.78,5.16,4.30,1.98,1.99,1.99
67.33,-2.49,-4.45,-2.50,-4.47,4.46,4.85,4.16,1.97,1.96,1.96
68.01,-2.22,-4.16,-2.22,-4.15,4.15,4.54,4.02,1.93,1.94,1.93
68.69,-1.93,-3.84,-1.94,-3.84,3.84,4.23,3.89,1.91,1.91,1.90
69.37,-1.65,-3.52,-1.65,-3.53,3.53,3.92,3.77,1.88,1.88,1.87
70.07,-1.38,-3.23,-1.37,-3.21,3.21,3.60,3.64,1.83,1.84,1.84
70.77,-1.07,-2.89,-1.09,-2.90,2.90,3.28,3.52,1.83,1.81,1.81
71.48,-0.81,-2.60,-0.81,-2.59,2.58,2.96,3.40,1.77,1.77,1.78
72.19,-0.52,-2.26,-0.52,-2.26,2.26,2.63,3.29,1.74,1.74,1.74
72.91,-0.23,-1.94,-0.23,-1.94,1.93,2.30,3.17,1.70,1.71,1.71
73.64,0.08,-1.59,0.07,-1.61,1.61,1.97,3.05,1.69,1.68,1.67
74.38,0.37,-1.28,0.37,-1.27,1.28,1.63,2.94,1.65,1.65,1.64
75.12,0.65,-0.95,0.66,-0.95,0.95,1.29,2.82,1.60,1.61,1.60
75.87,0.96,-0.61,0.95,-0.62,0.62,0.95,2.71,1.58,1.58,1.57
76.63,1.25,-0.29,1.25,-0.29,0.29,0.61,2.59,1.54,1.54,1.54
77.40,1.55,0.03,1.54,0.03,-0.03,0.26,2.47,1.51,1.51,1.51
78.17,1.83,0.36,1.83,0.36,-0.36,-0.09,2.35,1.46,1.47,1.47
78.95,2.13,0.69,2.13,0.69,-0.69,-0.44,2.22,1.44,1.44,1.44
79.74,2.43,1.02,2.43,1.02,-1.02,-0.79,2.10,1.41,1.41,1.41
80.54,2.73,1.36,2.72,1.35,-1.35,-1.14,1.97,1.38,1.37,1.37
81.35,3.02,1.67,3.02,1.68,-1.68,-1.49,1.84,1.34,1.34,1.34
82.16,3.31,2.01,3.31,2.01,-2.00,-1.84,1.70,1.30,1.31,1.30
82.98,3.61,2.34,3.60,2.33,-2.33,-2.19,1.57,1.28,1.27,1.27
83.81,3.88,2.65,3.88,2.65,-2.65,-2.53,1.43,1.23,1.23,1.23
84.65,4.15,2.95,4.15,2.95,-2.96,-2.87,1.28,1.19,1.19,1.19
85.50,4.42,3.25,4.42,3.26,-3.26,-3.20,1.13,1.15,1.16,1.16
86.35,4.69,3.57,4.68,3.56,-3.56,-3.52,0.98,1.12,1.12,1.12
87.22,4.95,3.86,4.94,3.85,-3.86,-3.83,0.82,1.09,1.08,1.08
88.09,5.17,4.12,5.18,4.14,-4.14,-4.13,0.66,1.03,1.04,1.04
88.97,5.42,4.41,5.41,4.41,-4.42,-4.41,0.50,1.00,0.99,1.00
89.86,5.63,4.66,5.63,4.67,-4.68,-4.68,0.33,0.95,0.95,0.96
90.76,5.84,4.92,5.84,4.92,-4.92,-4.92,0.16,0.92,0.92,0.91
91.66,6.02,5.15,6.02,5.15,-5.14,-5.14,-0.02,0.87,0.88,0.87
92.58,6.19,5.36,6.18,5.36,-5.35,-5.34,-0.20,0.84,0.84,0.82
93.51,6.32,5.53,6.32,5.53,-5.52,-5.51,-0.39,0.79,0.79,0.78
94.44,6.42,5.67,6.42,5.68,-5.67,-5.65,-0.58,0.75,0.75,0.74
95.39,6.49,5.79,6.49,5.80,-5.79,-5.77,-0.77,0.70,0.70,0.69
96.34,6.54,5.89,6.53,5.89,-5.88,-5.86,-0.97,0.65,0.65,0.64
97.30,6.55,5.95,6.54,5.95,-5.94,-5.91,-1.17,0.60,0.60,0.59
98.28,6.53,5.98,6.53,5.98,-5.98,-5.94,-1.38,0.55,0.55,0.54
99.26,6.48,5.97,6.49,5.99,-5.98,-5.95,-1.59,0.49,0.50,0.50
100.25,6.43,5.97,6.42,5.97,-5.97,-5.92,-1.80,0.46,0.45,0.45
101.25,6.34,5.93,6.33,5.93,-5.93,-5.88,-2.01,0.41,0.40,0.40
102.27,6.22,5.86,6.23,5.88,-5.87,-5.82,-2.23,0.34,0.36,0.35
103.29,6.12,5.81,6.10,5.80,-5.80,-5.73,-2.45,0.32,0.30,0.30
104.32,5.97,5.70,5.97,5.71,-5.72,-5.64,-2.66,0.25,0.25,0.26
105.37,5.82,5.61,5.83,5.61,-5.62,-5.53,-2.88,0.20,0.21,0.21
106.42,5.68,5.51,5.67,5.51,-5.51,-5.40,-3.10,0.17,0.16,0.16
107.48,5.51,5.39,5.51,5.39,-5.40,-5.27,-3.32,0.11,0.11,0.11
108.56,5.34,5.27,5.34,5.28,-5.27,-5.14,-3.54,0.06,0.07,0.06
109.64,5.16,5.14,5.17,5.15,-5.15,-5.00,-3.75,0.01,0.02,0.01
110.74,5.00,5.03,4.98,5.02,-5.02,-4.85,-3.96,-0.02,-0.04,-0.04
111.85,4.79,4.88,4.79,4.88,-4.88,-4.70,-4.17,-0.09,-0.09,-0.09
112.97,4.58,4.73,4.60,4.74,-4.74,-4.55,-4.36,-0.17,-0.15,-0.15
114.10,4.41,4.61,4.40,4.60,-4.60,-4.40,-4.55,-0.19,-0.20,-0.20
115.24,4.22,4.48,4.21,4.46,-4.46,-4.25,-4.73,-0.24,-0.25,-0.26
116.39,4.01,4.31,4.01,4.32,-4.32,-4.11,-4.90,-0.31,-0.31,-0.31
117.55,3.80,4.16,3.81,4.17,-4.17,-3.96,-5.06,-0.38,-0.36,-0.37
118.73,3.62,4.03,3.61,4.03,-4.03,-3.82,-5.20,-0.41,-0.42,-0.42
119.92,3.43,3.90,3.42,3.89,-3.89,-3.68,-5.32,-0.46,-0.47,-0.47
121.12,3.23,3.75,3.23,3.75,-3.75,-3.54,-5.43,-0.52,-0.52,-0.52
122.33,3.04,3.61,3.04,3.61,-3.61,-3.40,-5.52,-0.58,-0.57,-0.57
123.55,2.87,3.48,2.86,3.48,-3.48,-3.27,-5.60,-0.62,-0.62,-0.62
124.79,2.69,3.36,2.69,3.35,-3.36,-3.14,-5.65,-0.67,-0.67,-0.67
126.03,2.51,3.22,2.51,3.23,-3.24,-3.02,-5.69,-0.73,-0.72,-0.72
127.29,2.35,3.11,2.34,3.11,-3.12,-2.90,-5.70,-0.77,-0.77,-0.77
128.57,2.18,3.01,2.18,3.00,-3.00,-2.78,-5.70,-0.82,-0.83,-0.83
129.85,2.02,2.89,2.02,2.89,-2.89,-2.66,-5.68,-0.87,-0.87,-0.88
131.15,1.85,2.77,1.86,2.79,-2.78,-2.55,-5.64,-0.93,-0.92,-0.93
132.46,1.72,2.69,1.70,2.68,-2.67,-2.45,-5.59,-0.96,-0.97,-0.98
133.79,1.55,2.57,1.55,2.57,-2.57,-2.34,-5.52,-1.02,-1.02,-1.02
135.12,1.39,2.45,1.39,2.46,-2.46,-2.24,-5.43,-1.07,-1.07,-1.07
136.48,1.23,2.34,1.24,2.35,-2.36,-2.15,-5.34,-1.13,-1.12,-1.11
137.84,1.10,2.25,1.09,2.25,-2.25,-2.05,-5.23,-1.15,-1.16,-1.16
139.22,0.95,2.15,0.95,2.15,-2.14,-1.96,-5.12,-1.20,-1.20,-1.21
140.61,0.81,2.05,0.80,2.05,-2.04,-1.87,-5.00,-1.23,-1.23,-1.25
142.02,0.66,1.93,0.66,1.94,-1.93,-1.79,-4.87,-1.28,-1.27,-1.28
143.44,0.52,1.83,0.52,1.84,-1.83,-1.71,-4.73,-1.32,-1.31,-1.32
144.87,0.39,1.74,0.38,1.73,-1.74,-1.63,-4.60,-1.35,-1.36,-1.36
146.32,0.24,1.63,0.24,1.64,-1.64,-1.55,-4.46,-1.40,-1.40,-1.40
147.78,0.12,1.54,0.12,1.55,-1.56,-1.48,-4.31,-1.44,-1.44,-1.43
149.26,-0.00,1.46,-0.00,1.47,-1.48,-1.41,-4.17,-1.48,-1.48,-1.47
150.75,-0.10,1.40,-0.10,1.40,-1.41,-1.34,-4.03,-1.51,-1.51,-1.51
152.26,-0.20,1.34,-0.20,1.35,-1.35,-1.28,-3.88,-1.55,-1.55,-1.55
153.78,-0.28,1.30,-0.29,1.30,-1.30,-1.22,-3.74,-1.58,-1.59,-1.59
155.32,-0.37,1.25,-0.37,1.26,-1.26,-1.15,-3.60,-1.63,-1.63,-1.63
156.88,-0.44,1.22,-0.44,1.23,-1.23,-1.10,-3.45,-1.67,-1.66,-1.67
158.44,-0.49,1.21,-0.50,1.20,-1.21,-1.04,-3.32,-1.70,-1.71,-1.71
160.03,-0.56,1.18,-0.56,1.19,-1.19,-0.99,-3.18,-1.76,-1.75,-1.75
161.63,-0.61,1.17,-0.61,1.18,-1.19,-0.93,-3.04,-1.80,-1.79,-1.79
163.24,-0.64,1.18,-0.64,1.18,-1.19,-0.88,-2.91,-1.83,-1.83,-1.83
164.88,-0.67,1.18,-0.67,1.19,-1.19,-0.84,-2.78,-1.87,-1.87,-1.86
166.53,-0.69,1.20,-0.70,1.20,-1.20,-0.79,-2.66,-1.89,-1.90,-1.90
168.19,-0.73,1.20,-0.72,1.22,-1.21,-0.74,-2.53,-1.94,-1.93,-1.94
169.87,-0.74,1.23,-0.75,1.22,-1.21,-0.70,-2.41,-1.95,-1.97,-1.98
171.57,-0.79,1.22,-0.79,1.22,-1.21,-0.66,-2.30,-2.00,-2.00,-2.02
173.29,-0.84,1.20,-0.83,1.22,-1.21,-0.62,-2.18,-2.05,-2.04,-2.05
175.02,-0.88,1.20,-0.89,1.19,-1.19,-0.58,-2.07,-2.08,-2.09,-2.09
176.77,-0.95,1.17,-0.95,1.18,-1.18,-0.54,-1.96,-2.13,-2.13,-2.13
178.54,-1.02,1.14,-1.01,1.15,-1.15,-0.51,-1.86,-2.17,-2.17,-2.17
180.32,-1.07,1.13,-1.08,1.12,-1.12,-0.47,-1.75,-2.20,-2.21,-2.21
182.13,-1.15,1.08,-1.15,1.09,-1.10,-0.44,-1.65,-2.25,-2.24,-2.24
183.95,-1.21,1.06,-1.21,1.06,-1.07,-0.41,-1.55,-2.28,-2.28,-2.28
185.79,-1.27,1.03,-1.27,1.04,-1.04,-0.38,-1.46,-2.31,-2.31,-2.31
187.65,-1.33,1.01,-1.33,1.01,-1.01,-0.35,-1.37,-2.34,-2.35,-2.35
189.52,-1.39,0.98,-1.39,0.98,-0.99,-0.32,-1.28,-2.38,-2.38,-2.38
191.42,-1.45,0.95,-1.45,0.96,-0.97,-0.29,-1.19,-2.42,-2.41,-2.41
193.33,-1.49,0.94,-1.49,0.94,-0.95,-0.27,-1.10,-2.44,-2.44,-2.44
195.27,-1.53,0.93,-1.54,0.93,-0.93,-0.24,-1.02,-2.47,-2.47,-2.47
197.22,-1.58,0.91,-1.58,0.92,-0.92,-0.22,-0.94,-2.50,-2.49,-2.50
199.19,-1.61,0.91,-1.62,0.91,-0.90,-0.19,-0.86,-2.51,-2.52,-2.53
201.18,-1.66,0.88,-1.66,0.89,-0.89,-0.17,-0.79,-2.55,-2.54,-2.55
203.19,-1.69,0.87,-1.70,0.87,-0.87,-0.15,-0.71,-2.56,-2.57,-2.57
205.23,-1.73,0.85,-1.73,0.85,-0.85,-0.13,-0.64,-2.58,-2.58,-2.59
207.28,-1.77,0.82,-1.77,0.83,-0.83,-0.11,-0.57,-2.60,-2.60,-2.60
209.35,-1.80,0.81,-1.81,0.81,-0.81,-0.09,-0.50,-2.61,-2.62,-2.62
211.44,-1.86,0.77,-1.85,0.78,-0.78,-0.07,-0.44,-2.64,-2.63,-2.64
213.56,-1.88,0.76,-1.89,0.76,-0.75,-0.05,-0.38,-2.64,-2.64,-2.65
215.69,-1.92,0.72,-1.93,0.72,-0.73,-0.03,-0.31,-2.65,-2.66,-2.65
217.85,-1.97,0.68,-1.96,0.69,-0.70,-0.02,-0.25,-2.67,-2.66,-2.66
220.03,-2.00,0.66,-2.00,0.66,-0.67,-0.00,-0.20,-2.67,-2.67,-2.67
222.23,-2.03,0.64,-2.03,0.64,-0.64,0.02,-0.14,-2.67,-2.68,-2.68
224.45,-2.06,0.61,-2.06,0.62,-0.61,0.03,-0.09,-2.67,-2.67,-2.68
226.70,-2.09,0.58,-2.09,0.58,-0.58,0.05,-0.04,-2.68,-2.68,-2.68
228.96,-2.12,0.55,-2.12,0.55,-0.55,0.06,0.01,-2.68,-2.67,-2.68
231.25,-2.15,0.51,-2.15,0.52,-0.52,0.08,0.06,-2.67,-2.67,-2.67
233.57,-2.16,0.50,-2.18,0.49,-0.49,0.09,0.11,-2.65,-2.67,-2.67
235.90,-2.21,0.45,-2.20,0.46,-0.46,0.10,0.15,-2.67,-2.66,-2.67
238.26,-2.24,0.41,-2.24,0.42,-0.42,0.12,0.19,-2.66,-2.66,-2.66
240.64,-2.25,0.39,-2.26,0.39,-0.39,0.13,0.24,-2.64,-2.65,-2.65
243.05,-2.29,0.34,-2.29,0.35,-0.35,0.14,0.27,-2.65,-2.64,-2.64
245.48,-2.30,0.32,-2.31,0.32,-0.32,0.15,0.31,-2.62,-2.63,-2.63
247.93,-2.34,0.27,-2.34,0.28,-0.28,0.17,0.35,-2.63,-2.62,-2.62
250.41,-2.35,0.25,-2.35,0.25,-0.25,0.18,0.38,-2.60,-2.60,-2.61
252.92,-2.38,0.20,-2.38,0.21,-0.21,0.19,0.41,-2.60,-2.59,-2.59
255.45,-2.38,0.18,-2.39,0.18,-0.18,0.20,0.44,-2.56,-2.57,-2.57
258.00,-2.42,0.13,-2.41,0.14,-0.14,0.21,0.47,-2.57,-2.55,-2.56
260.58,-2.42,0.11,-2.43,0.11,-0.11,0.22,0.49,-2.53,-2.54,-2.54
263.19,-2.45,0.06,-2.45,0.07,-0.07,0.23,0.52,-2.52,-2.52,-2.52
265.82,-2.47,0.02,-2.47,0.03,-0.03,0.25,0.54,-2.50,-2.50,-2.50
268.48,-2.49,-0.02,-2.50,-0.02,0.02,0.26,0.57,-2.47,-2.48,-2.48
271.16,-2.52,-0.07,-2.52,-0.06,0.07,0.27,0.59,-2.46,-2.45,-2.46
273.87,-2.55,-0.12,-2.55,-0.12,0.12,0.28,0.61,-2.43,-2.43,-2.44
276.61,-2.58,-0.17,-2.59,-0.17,0.17,0.29,0.63,-2.41,-2.41,-2.42
279.38,-2.63,-0.24,-2.62,-0.23,0.24,0.30,0.65,-2.40,-2.39,-2.40
282.17,-2.66,-0.29,-2.67,-0.29,0.30,0.31,0.66,-2.36,-2.37,-2.38
284.99,-2.71,-0.36,-2.72,-0.36,0.36,0.32,0.68,-2.35,-2.35,-2.36
287.84,-2.77,-0.44,-2.77,-0.43,0.43,0.33,0.70,-2.35,-2.34,-2.34
290.72,-2.81,-0.50,-2.82,-0.50,0.49,0.35,0.71,-2.32,-2.33,-2.32
293.63,-2.86,-0.57,-2.86,-0.56,0.55,0.36,0.73,-2.31,-2.31,-2.30
296.57,-2.89,-0.62,-2.89,-0.61,0.61,0.37,0.74,-2.29,-2.28,-2.28
299.53,-2.90,-0.65,-2.91,-0.65,0.66,0.38,0.76,-2.24,-2.25,-2.26
302.53,-2.94,-0.71,-2.93,-0.70,0.71,0.39,0.77,-2.24,-2.23,-2.24
305.55,-2.94,-0.74,-2.96,-0.75,0.75,0.40,0.79,-2.19,-2.21,-2.21
308.61,-2.99,-0.81,-2.98,-0.80,0.79,0.42,0.80,-2.20,-2.19,-2.19
311.69,-2.99,-0.84,-2.99,-0.83,0.83,0.43,0.82,-2.17,-2.16,-2.16
314.81,-2.99,-0.87,-2.99,-0.86,0.86,0.44,0.83,-2.13,-2.13,-2.13
317.96,-2.99,-0.89,-3.00,-0.89,0.90,0.46,0.85,-2.10,-2.10,-2.11
321.14,-3.00,-0.92,-3.01,-0.92,0.93,0.47,0.87,-2.08,-2.08,-2.09
324.35,-3.03,-0.97,-3.02,-0.95,0.95,0.48,0.88,-2.08,-2.07,-2.07
327.59,-3.03,-0.99,-3.03,-0.98,0.98,0.50,0.90,-2.05,-2.05,-2.05
330.87,-3.03,-1.01,-3.04,-1.01,1.00,0.51,0.91,-2.03,-2.03,-2.03
334.18,-3.03,-1.03,-3.03,-1.03,1.03,0.53,0.93,-2.01,-2.01,-2.01
337.52,-3.03,-1.05,-3.03,-1.05,1.05,0.55,0.95,-1.98,-1.98,-1.99
340.90,-3.03,-1.07,-3.03,-1.07,1.07,0.56,0.97,-1.96,-1.96,-1.97
344.30,-3.03,-1.09,-3.03,-1.09,1.09,0.58,0.99,-1.94,-1.94,-1.95
347.75,-3.03,-1.11,-3.03,-1.11,1.11,0.60,1.01,-1.93,-1.93,-1.93
351.23,-3.03,-1.13,-3.03,-1.12,1.12,0.62,1.03,-1.91,-1.91,-1.91
354.74,-3.03,-1.15,-3.03,-1.14,1.14,0.63,1.05,-1.89,-1.89,-1.89
358.28,-3.03,-1.16,-3.03,-1.16,1.16,0.65,1.07,-1.87,-1.87,-1.88
361.87,-3.03,-1.18,-3.03,-1.18,1.18,0.67,1.09,-1.86,-1.86,-1.86
365.49,-3.03,-1.20,-3.03,-1.19,1.19,0.70,1.12,-1.84,-1.84,-1.84
369.14,-3.03,-1.21,-3.03,-1.21,1.20,0.72,1.14,-1.83,-1.83,-1.83
372.83,-3.03,-1.23,-3.03,-1.22,1.22,0.74,1.16,-1.82,-1.81,-1.81
376.56,-3.01,-1.22,-3.02,-1.23,1.23,0.76,1.19,-1.79,-1.79,-1.80
380.33,-3.01,-1.24,-3.01,-1.23,1.24,0.79,1.22,-1.78,-1.78,-1.78
384.13,-3.01,-1.25,-3.00,-1.24,1.24,0.81,1.24,-1.77,-1.76,-1.77
387.97,-2.99,-1.24,-3.00,-1.24,1.25,0.84,1.27,-1.74,-1.75,-1.76
391.85,-2.99,-1.25,-3.00,-1.25,1.25,0.87,1.29,-1.74,-1.75,-1.75
395.77,-2.99,-1.27,-2.99,-1.26,1.25,0.90,1.32,-1.75,-1.74,-1.73
399.73,-2.98,-1.27,-2.97,-1.25,1.24,0.92,1.35,-1.74,-1.73,-1.72
403.72,-2.94,-1.24,-2.95,-1.24,1.23,0.95,1.38,-1.71,-1.71,-1.71
407.76,-2.90,-1.21,-2.91,-1.21,1.22,0.98,1.40,-1.68,-1.69,-1.70
411.84,-2.89,-1.21,-2.89,-1.20,1.21,1.02,1.43,-1.68,-1.68,-1.69
415.96,-2.86,-1.19,-2.87,-1.19,1.20,1.05,1.46,-1.67,-1.67,-1.68
420.12,-2.86,-1.20,-2.85,-1.18,1.18,1.08,1.49,-1.68,-1.66,-1.67
424.32,-2.81,-1.16,-2.83,-1.17,1.17,1.11,1.51,-1.64,-1.65,-1.66
428.56,-2.81,-1.17,-2.82,-1.17,1.17,1.15,1.54,-1.64,-1.65,-1.65
432.85,-2.81,-1.18,-2.80,-1.17,1.17,1.18,1.56,-1.64,-1.63,-1.64
437.18,-2.80,-1.18,-2.80,-1.17,1.17,1.22,1.59,-1.63,-1.63,-1.63
