frequency,raw,error,smoothed,error_smoothed,equalization,parametric_eq,fixed_band_eq,equalized_raw,equalized_smoothed,target
20.00,-25.59,-30.00,-25.59,-30.02,30.02,29.72,16.75,4.43,4.43,4.41
20.20,-25.49,-29.93,-25.49,-29.94,29.94,29.76,16.94,4.45,4.45,4.44
20.40,-25.38,-29.85,-25.39,-29.86,29.86,29.79,17.14,4.48,4.47,4.47
20.61,-25.28,-29.77,-25.28,-29.77,29.77,29.80,17.34,4.49,4.49,4.49
20.81,-25.18,-29.70,-25.18,-29.69,29.69,29.79,17.55,4.51,4.51,4.52
21.02,-25.07,-29.62,-25.08,-29.60,29.60,29.77,17.76,4.53,4.52,4.55
21.23,-24.97,-29.53,-24.97,-29.51,29.51,29.73,17.98,4.54,4.54,4.56
21.44,-24.87,-29.44,-24.87,-29.42,29.42,29.69,18.20,4.55,4.55,4.57
21.66,-24.76,-29.34,-24.77,-29.33,29.33,29.63,18.43,4.56,4.56,4.58
21.87,-24.66,-29.24,-24.66,-29.23,29.23,29.56,18.66,4.57,4.57,4.57
22.09,-24.56,-29.15,-24.56,-29.14,29.14,29.48,18.90,4.58,4.58,4.58
22.31,-24.46,-29.04,-24.46,-29.04,29.04,29.39,19.15,4.58,4.58,4.58
22.54,-24.35,-28.94,-24.35,-28.94,28.94,29.29,19.40,4.58,4.58,4.58
22.76,-24.25,-28.83,-24.25,-28.83,28.83,29.19,19.66,4.58,4.58,4.58
22.99,-24.15,-28.72,-24.15,-28.73,28.73,29.08,19.93,4.58,4.58,4.57
23.22,-24.04,-28.61,-24.04,-28.62,28.62,28.96,20.21,4.58,4.58,4.57
23.45,-23.94,-28.51,-23.94,-28.52,28.52,28.84,20.50,4.58,4.58,4.57
23.69,-23.84,-28.41,-23.84,-28.41,28.41,28.72,20.80,4.57,4.58,4.57
23.92,-23.73,-28.30,-23.73,-28.31,28.31,28.60,21.10,4.58,4.57,4.57
24.16,-23.63,-28.21,-23.63,-28.20,28.20,28.47,21.42,4.57,4.57,4.58
24.40,-23.53,-28.11,-23.53,-28.10,28.10,28.34,21.76,4.57,4.57,4.58
24.65,-23.42,-27.99,-23.43,-28.00,28.00,28.21,22.10,4.57,4.57,4.57
24.89,-23.32,-27.89,-23.33,-27.90,27.90,28.08,22.46,4.58,4.56,4.56
25.14,-23.22,-27.78,-23.24,-27.80,27.80,27.94,22.84,4.58,4.56,4.56
25.39,-23.11,-27.67,-23.14,-27.70,27.70,27.81,23.23,4.59,4.56,4.56
25.65,-23.01,-27.57,-23.04,-27.60,27.60,27.67,23.65,4.59,4.56,4.56
25.91,-22.91,-27.46,-22.93,-27.49,27.49,27.53,24.08,4.58,4.56,4.55
26.16,-22.81,-27.36,-22.82,-27.38,27.38,27.40,24.54,4.57,4.55,4.55
26.43,-22.70,-27.25,-22.71,-27.26,27.26,27.26,25.03,4.55,4.55,4.55
26.69,-22.62,-27.17,-22.59,-27.13,27.13,27.12,25.55,4.51,4.55,4.55
26.96,-22.52,-27.07,-22.45,-27.00,27.00,26.98,26.10,4.47,4.54,4.55
27.23,-22.39,-26.94,-22.32,-26.86,26.86,26.84,26.69,4.46,4.54,4.54
27.50,-22.21,-26.76,-22.17,-26.71,26.71,26.70,27.33,4.50,4.54,4.54
27.77,-22.04,-26.57,-22.02,-26.55,26.55,26.56,28.02,4.51,4.53,4.53
28.05,-21.85,-26.38,-21.86,-26.39,26.39,26.41,28.77,4.54,4.53,4.53
28.33,-21.68,-26.20,-21.70,-26.22,26.22,26.27,29.60,4.54,4.52,4.52
28.62,-21.50,-26.01,-21.53,-26.05,26.05,26.12,30.52,4.55,4.52,4.52
28.90,-21.33,-25.85,-21.35,-25.87,25.87,25.98,31.56,4.54,4.51,4.51
29.19,-21.15,-25.65,-21.17,-25.68,25.68,25.83,32.75,4.53,4.51,4.50
29.48,-20.97,-25.48,-20.98,-25.49,25.49,25.68,34.14,4.52,4.50,4.51
29.78,-20.79,-25.29,-20.80,-25.29,25.29,25.53,35.82,4.50,4.50,4.50
30.08,-20.63,-25.12,-20.61,-25.10,25.10,25.37,37.94,4.47,4.49,4.50
30.38,-20.43,-24.91,-20.42,-24.91,24.91,25.22,40.82,4.48,4.49,4.48
30.68,-20.26,-24.74,-20.24,-24.72,24.72,25.06,45.54,4.46,4.48,4.48
30.99,-20.08,-24.55,-20.06,-24.54,24.54,24.90,,4.45,4.47,4.47
31.30,-19.87,-24.34,-19.89,-24.36,24.36,24.74,,4.48,4.47,4.47
31.61,-19.71,-24.18,-19.71,-24.18,24.18,24.57,50.83,4.46,4.46,4.47
31.93,-19.51,-23.96,-19.54,-23.99,23.99,24.40,42.85,4.49,4.45,4.45
32.24,-19.32,-23.76,-19.37,-23.81,23.81,24.23,39.15,4.49,4.45,4.44
32.57,-19.15,-23.59,-19.19,-23.63,23.63,24.06,36.61,4.48,4.44,4.44
32.89,-19.00,-23.44,-19.02,-23.45,23.45,23.88,34.66,4.45,4.43,4.43
33.22,-18.84,-23.26,-18.85,-23.27,23.27,23.70,33.05,4.43,4.42,4.42
33.55,-18.70,-23.12,-18.67,-23.09,23.09,23.52,31.69,4.39,4.41,4.42
33.89,-18.54,-22.95,-18.50,-22.90,22.90,23.33,30.51,4.36,4.41,4.40
34.23,-18.36,-22.76,-18.32,-22.71,22.71,23.14,29.45,4.35,4.40,4.40
34.57,-18.16,-22.55,-18.14,-22.52,22.52,22.95,28.50,4.36,4.39,4.39
34.92,-17.95,-22.33,-17.95,-22.33,22.33,22.75,27.64,4.38,4.38,4.37
35.27,-17.77,-22.15,-17.77,-22.14,22.14,22.55,26.84,4.36,4.37,4.37
35.62,-17.58,-21.94,-17.58,-21.94,21.94,22.35,26.11,4.36,4.36,4.36
35.97,-17.37,-21.71,-17.39,-21.74,21.74,22.15,25.42,4.37,4.35,4.34
36.33,-17.18,-21.52,-17.19,-21.53,21.53,21.94,24.77,4.35,4.34,4.34
36.70,-16.98,-21.31,-16.99,-21.32,21.32,21.73,24.16,4.33,4.32,4.32
37.06,-16.78,-21.09,-16.80,-21.11,21.11,21.51,23.58,4.33,4.31,4.31
37.43,-16.59,-20.89,-16.60,-20.90,20.90,21.30,23.03,4.31,4.30,4.30
37.81,-16.39,-20.68,-16.40,-20.68,20.68,21.08,22.50,4.29,4.29,4.29
38.19,-16.19,-20.47,-16.20,-20.47,20.47,20.86,21.99,4.28,4.28,4.27
38.57,-16.01,-20.28,-16.00,-20.26,20.26,20.63,21.50,4.25,4.26,4.27
38.95,-15.81,-20.06,-15.80,-20.05,20.05,20.40,21.04,4.24,4.25,4.25
39.34,-15.60,-19.84,-15.60,-19.84,19.84,20.17,20.58,4.24,4.24,4.24
39.74,-15.40,-19.63,-15.40,-19.63,19.63,19.94,20.14,4.22,4.23,4.22
40.14,-15.21,-19.43,-15.20,-19.42,19.42,19.71,19.71,4.20,4.22,4.22
40.54,-15.01,-19.21,-15.00,-19.20,19.20,19.47,19.30,4.19,4.21,4.20
40.94,-14.80,-18.99,-14.80,-18.99,18.99,19.24,18.89,4.19,4.19,4.19
41.35,-14.59,-18.77,-14.60,-18.78,18.78,19.00,18.50,4.19,4.18,4.18
41.76,-14.39,-18.56,-14.41,-18.57,18.57,18.75,18.11,4.18,4.17,4.17
42.18,-14.19,-18.35,-14.21,-18.37,18.37,18.51,17.73,4.18,4.15,4.16
42.60,-14.00,-18.14,-14.02,-18.16,18.16,18.27,17.36,4.16,4.14,4.14
43.03,-13.81,-17.95,-13.83,-17.95,17.95,18.02,16.99,4.14,4.12,4.13
43.46,-13.63,-17.75,-13.64,-17.75,17.75,17.77,16.63,4.12,4.11,4.12
43.90,-13.44,-17.53,-13.46,-17.55,17.55,17.52,16.28,4.10,4.09,4.09
44.33,-13.26,-17.33,-13.27,-17.34,17.34,17.27,15.93,4.08,4.07,4.07
44.78,-13.09,-17.14,-13.08,-17.14,17.14,17.02,15.58,4.04,4.06,4.05
45.23,-12.89,-16.92,-12.89,-16.93,16.93,16.77,15.24,4.03,4.04,4.03
45.68,-12.73,-16.74,-12.70,-16.72,16.72,16.52,14.90,3.98,4.02,4.01
46.13,-12.52,-16.51,-12.50,-16.50,16.50,16.26,14.57,3.98,4.00,3.99
46.60,-12.31,-16.29,-12.30,-16.27,16.27,16.01,14.23,3.96,3.97,3.98
47.06,-12.09,-16.05,-12.09,-16.04,16.04,15.75,13.90,3.95,3.95,3.96
47.53,-11.88,-15.82,-11.87,-15.80,15.80,15.49,13.58,3.92,3.93,3.94
48.01,-11.67,-15.60,-11.65,-15.56,15.56,15.23,13.25,3.89,3.90,3.92
48.49,-11.45,-15.34,-11.43,-15.31,15.31,14.97,12.93,3.86,3.88,3.89
48.97,-11.22,-15.08,-11.20,-15.06,15.06,14.71,12.61,3.84,3.86,3.86
49.46,-10.97,-14.80,-10.97,-14.81,14.81,14.45,12.30,3.83,3.83,3.82
49.96,-10.72,-14.51,-10.74,-14.55,14.55,14.19,11.98,3.82,3.81,3.79
50.46,-10.47,-14.25,-10.51,-14.29,14.29,13.93,11.67,3.82,3.78,3.78
50.96,-10.23,-13.98,-10.28,-14.03,14.03,13.66,11.36,3.80,3.75,3.75
51.47,-10.00,-13.72,-10.04,-13.76,13.76,13.40,11.05,3.76,3.72,3.72
51.99,-9.78,-13.47,-9.80,-13.50,13.50,13.13,10.75,3.71,3.70,3.69
52.51,-9.54,-13.22,-9.55,-13.22,13.22,12.87,10.45,3.68,3.67,3.67
53.03,-9.31,-12.96,-9.30,-12.95,12.95,12.60,10.15,3.63,3.64,3.65
53.56,-9.08,-12.70,-9.05,-12.66,12.66,12.33,9.86,3.58,3.61,3.62
54.10,-8.84,-12.43,-8.79,-12.38,12.38,12.06,9.56,3.54,3.59,3.59
54.64,-8.58,-12.14,-8.53,-12.09,12.09,11.79,9.28,3.51,3.56,3.56
55.18,-8.30,-11.83,-8.27,-11.80,11.80,11.52,9.00,3.50,3.53,3.53
55.74,-8.00,-11.51,-7.99,-11.50,11.50,11.25,8.72,3.50,3.51,3.50
56.29,-7.70,-11.18,-7.72,-11.20,11.20,10.98,8.45,3.50,3.48,3.48
56.86,-7.42,-10.87,-7.43,-10.89,10.89,10.70,8.18,3.46,3.45,3.45
57.42,-7.12,-10.54,-7.14,-10.57,10.57,10.43,7.92,3.45,3.43,3.42
58.00,-6.83,-10.23,-6.85,-10.24,10.24,10.15,7.67,3.41,3.40,3.39
58.58,-6.55,-9.92,-6.55,-9.92,9.92,9.87,7.42,3.37,3.37,3.37
59.16,-6.25,-9.60,-6.25,-9.59,9.59,9.59,7.18,3.34,3.34,3.35
59.76,-5.96,-9.29,-5.96,-9.26,9.26,9.31,6.95,3.30,3.31,3.32
60.35,-5.65,-8.94,-5.66,-8.94,8.94,9.02,6.73,3.29,3.28,3.28
60.96,-5.35,-8.61,-5.37,-8.61,8.61,8.74,6.51,3.26,3.25,3.26
61.57,-5.06,-8.27,-5.08,-8.29,8.29,8.45,6.31,3.23,3.21,3.21
62.18,-4.79,-7.96,-4.79,-7.97,7.97,8.16,6.11,3.18,3.18,3.17
62.80,-4.49,-7.63,-4.50,-7.64,7.64,7.87,5.92,3.15,3.15,3.14
63.43,-4.21,-7.31,-4.21,-7.32,7.32,7.58,5.74,3.11,3.11,3.10
64.07,-3.91,-6.99,-3.92,-7.00,7.00,7.29,5.57,3.09,3.08,3.07
64.71,-3.64,-6.68,-3.63,-6.68,6.68,6.99,5.41,3.03,3.04,3.04
65.35,-3.33,-6.34,-3.35,-6.36,6.36,6.69,5.25,3.03,3.01,3.01
66.01,-3.07,-6.05,-3.07,-6.04,6.04,6.39,5.10,2.97,2.97,2.97
66.67,-2.79,-5.73,-2.79,-5.72,5.72,6.09,4.96,2.93,2.94,2.94
67.33,-2.49,-5.39,-2.50,-5.40,5.40,5.78,4.82,2.91,2.90,2.90
68.01,-2.22,-5.09,-2.22,-5.09,5.09,5.47,4.69,2.86,2.87,2.87
68.69,-1.93,-4.76,-1.94,-4.77,4.77,5.16,4.57,2.83,2.83,2.83
69.37,-1.65,-4.44,-1.65,-4.45,4.45,4.85,4.45,2.80,2.79,2.79
70.07,-1.38,-4.14,-1.37,-4.12,4.12,4.53,4.33,2.74,2.75,2.75
70.77,-1.07,-3.80,-1.08,-3.80,3.80,4.21,4.21,2.73,2.72,2.72
71.48,-0.81,-3.49,-0.80,-3.47,3.47,3.89,4.10,2.66,2.68,2.68
72.19,-0.52,-3.16,-0.51,-3.15,3.15,3.56,3.99,2.62,2.64,2.64
72.91,-0.23,-2.83,-0.22,-2.82,2.82,3.24,3.88,2.59,2.60,2.60
73.64,0.08,-2.47,0.07,-2.48,2.48,2.91,3.78,2.56,2.56,2.55
74.38,0.37,-2.15,0.36,-2.15,2.15,2.57,3.67,2.52,2.52,2.52
75.12,0.65,-1.82,0.66,-1.82,1.82,2.24,3.56,2.47,2.48,2.47
75.87,0.96,-1.47,0.95,-1.48,1.48,1.90,3.45,2.44,2.44,2.43
76.63,1.25,-1.15,1.25,-1.15,1.15,1.56,3.34,2.39,2.40,2.40
77.40,1.55,-0.81,1.55,-0.81,0.81,1.22,3.23,2.36,2.35,2.36
78.17,1.83,-0.48,1.84,-0.47,0.47,0.87,3.11,2.30,2.31,2.31
78.95,2.13,-0.15,2.14,-0.13,0.13,0.53,2.99,2.26,2.27,2.28
79.74,2.43,0.20,2.44,0.21,-0.21,0.18,2.87,2.22,2.23,2.23
80.54,2.73,0.54,2.73,0.54,-0.54,-0.17,2.75,2.18,2.19,2.19
81.35,3.02,0.87,3.02,0.88,-0.88,-0.52,2.62,2.14,2.15,2.15
82.16,3.31,1.21,3.31,1.21,-1.21,-0.86,2.49,2.10,2.10,2.10
82.98,3.61,1.54,3.60,1.54,-1.54,-1.21,2.36,2.07,2.06,2.07
83.81,3.88,1.87,3.88,1.87,-1.87,-1.55,2.22,2.01,2.01,2.01
84.65,4.15,2.19,4.16,2.19,-2.19,-1.89,2.08,1.96,1.97,1.96
85.50,4.42,2.49,4.43,2.51,-2.51,-2.22,1.93,1.91,1.92,1.92
86.35,4.69,2.81,4.70,2.82,-2.82,-2.54,1.78,1.87,1.87,1.88
87.22,4.95,3.12,4.95,3.13,-3.13,-2.86,1.62,1.82,1.83,1.83
88.09,5.17,3.39,5.20,3.42,-3.42,-3.17,1.46,1.75,1.78,1.78
88.97,5.42,3.68,5.42,3.70,-3.70,-3.46,1.29,1.72,1.73,1.73
89.86,5.63,3.95,5.64,3.96,-3.96,-3.74,1.12,1.67,1.68,1.68
90.76,5.84,4.22,5.83,4.21,-4.21,-4.00,0.95,1.63,1.62,1.62
91.66,6.02,4.44,6.00,4.43,-4.43,-4.24,0.77,1.59,1.57,1.58
92.58,6.19,4.67,6.15,4.63,-4.63,-4.46,0.58,1.55,1.52,1.51
93.51,6.32,4.85,6.28,4.82,-4.82,-4.66,0.39,1.50,1.46,1.47
94.44,6.42,5.00,6.38,4.97,-4.97,-4.84,0.19,1.45,1.41,1.41
95.39,6.49,5.13,6.45,5.10,-5.10,-4.99,-0.01,1.39,1.35,1.36
96.34,6.54,5.24,6.50,5.20,-5.20,-5.11,-0.21,1.34,1.30,1.29
97.30,6.55,5.31,6.51,5.28,-5.28,-5.21,-0.42,1.27,1.24,1.24
98.28,6.53,5.35,6.51,5.32,-5.32,-5.28,-0.64,1.20,1.18,1.18
99.26,6.48,5.35,6.47,5.35,-5.35,-5.32,-0.85,1.13,1.12,1.12
100.25,6.43,5.36,6.41,5.35,-5.35,-5.34,-1.08,1.08,1.07,1.07
101.25,6.34,5.33,6.33,5.32,-5.32,-5.33,-1.30,1.01,1.01,1.01
102.27,6.22,5.27,6.23,5.28,-5.28,-5.31,-1.53,0.94,0.95,0.95
103.29,6.12,5.23,6.12,5.22,-5.22,-5.26,-1.76,0.90,0.89,0.88
104.32,5.97,5.13,5.98,5.15,-5.15,-5.20,-1.99,0.82,0.83,0.84
105.37,5.82,5.04,5.84,5.06,-5.06,-5.12,-2.23,0.76,0.78,0.78
106.42,5.68,4.96,5.68,4.97,-4.97,-5.03,-2.46,0.71,0.72,0.72
107.48,5.51,4.84,5.52,4.86,-4.86,-4.93,-2.70,0.65,0.66,0.66
108.56,5.34,4.74,5.34,4.75,-4.75,-4.81,-2.93,0.59,0.60,0.59
109.64,5.16,4.62,5.16,4.63,-4.63,-4.69,-3.16,0.53,0.54,0.54
110.74,5.00,4.52,4.98,4.51,-4.51,-4.57,-3.39,0.49,0.47,0.48
111.85,4.79,4.37,4.79,4.38,-4.38,-4.44,-3.61,0.41,0.41,0.42
112.97,4.58,4.23,4.60,4.25,-4.25,-4.31,-3.82,0.33,0.35,0.35
114.10,4.41,4.12,4.40,4.12,-4.12,-4.17,-4.03,0.29,0.29,0.29
115.24,4.22,4.00,4.21,3.98,-3.98,-4.04,-4.23,0.24,0.22,0.22
116.39,4.01,3.85,4.01,3.85,-3.85,-3.90,-4.41,0.16,0.16,0.16
117.55,3.80,3.71,3.82,3.72,-3.72,-3.77,-4.59,0.08,0.10,0.09
118.73,3.62,3.59,3.62,3.59,-3.59,-3.63,-4.74,0.03,0.04,0.03
119.92,3.43,3.46,3.43,3.46,-3.46,-3.50,-4.88,-0.03,-0.03,-0.03
121.12,3.23,3.32,3.24,3.33,-3.33,-3.37,-5.01,-0.10,-0.09,-0.09
122.33,3.04,3.19,3.06,3.21,-3.21,-3.24,-5.11,-0.17,-0.15,-0.15
123.55,2.87,3.08,2.87,3.09,-3.09,-3.11,-5.19,-0.22,-0.22,-0.21
124.79,2.69,2.96,2.69,2.97,-2.97,-2.99,-5.26,-0.28,-0.28,-0.27
126.03,2.51,2.84,2.52,2.85,-2.85,-2.87,-5.30,-0.35,-0.34,-0.33
127.29,2.35,2.74,2.35,2.74,-2.74,-2.76,-5.32,-0.40,-0.40,-0.39
128.57,2.18,2.64,2.18,2.64,-2.64,-2.64,-5.32,-0.46,-0.46,-0.46
129.85,2.02,2.54,2.02,2.53,-2.53,-2.53,-5.30,-0.51,-0.52,-0.52
131.15,1.85,2.43,1.86,2.43,-2.43,-2.42,-5.27,-0.58,-0.57,-0.58
132.46,1.72,2.35,1.70,2.33,-2.33,-2.32,-5.21,-0.61,-0.63,-0.64
133.79,1.55,2.23,1.54,2.23,-2.23,-2.22,-5.14,-0.68,-0.69,-0.68
135.12,1.39,2.14,1.39,2.13,-2.13,-2.12,-5.05,-0.74,-0.74,-0.75
136.48,1.23,2.02,1.24,2.03,-2.03,-2.03,-4.96,-0.80,-0.80,-0.79
137.84,1.10,1.95,1.08,1.93,-1.93,-1.94,-4.85,-0.84,-0.85,-0.85
139.22,0.95,1.86,0.94,1.84,-1.84,-1.85,-4.73,-0.89,-0.90,-0.91
140.61,0.81,1.77,0.79,1.74,-1.74,-1.76,-4.61,-0.93,-0.95,-0.96
142.02,0.66,1.65,0.65,1.65,-1.65,-1.68,-4.47,-0.99,-1.00,-0.99
143.44,0.52,1.56,0.51,1.56,-1.56,-1.60,-4.34,-1.04,-1.05,-1.04
144.87,0.39,1.48,0.38,1.47,-1.47,-1.52,-4.20,-1.08,-1.09,-1.09
146.32,0.24,1.38,0.25,1.39,-1.39,-1.45,-4.05,-1.15,-1.14,-1.14
147.78,0.12,1.30,0.13,1.32,-1.32,-1.38,-3.91,-1.20,-1.19,-1.18
149.26,-0.00,1.22,0.01,1.25,-1.25,-1.31,-3.77,-1.25,-1.23,-1.23
150.75,-0.10,1.18,-0.09,1.19,-1.19,-1.24,-3.62,-1.29,-1.28,-1.28
152.26,-0.20,1.12,-0.19,1.14,-1.14,-1.18,-3.48,-1.34,-1.33,-1.33
153.78,-0.28,1.09,-0.28,1.10,-1.10,-1.12,-3.33,-1.38,-1.37,-1.37
155.32,-0.37,1.05,-0.36,1.06,-1.06,-1.06,-3.19,-1.44,-1.42,-1.42
156.88,-0.44,1.02,-0.43,1.04,-1.04,-1.00,-3.06,-1.48,-1.47,-1.46
158.44,-0.49,1.02,-0.49,1.03,-1.03,-0.95,-2.92,-1.52,-1.51,-1.51
160.03,-0.56,1.00,-0.54,1.02,-1.02,-0.89,-2.79,-1.58,-1.56,-1.56
161.63,-0.61,1.00,-0.59,1.02,-1.02,-0.84,-2.66,-1.63,-1.61,-1.61
163.24,-0.64,1.02,-0.63,1.02,-1.02,-0.79,-2.53,-1.67,-1.65,-1.66
164.88,-0.67,1.02,-0.67,1.03,-1.03,-0.75,-2.41,-1.70,-1.70,-1.70
166.53,-0.69,1.05,-0.70,1.04,-1.04,-0.70,-2.29,-1.73,-1.74,-1.74
168.19,-0.73,1.05,-0.74,1.04,-1.04,-0.66,-2.17,-1.78,-1.79,-1.79
169.87,-0.74,1.09,-0.78,1.05,-1.05,-0.62,-2.06,-1.79,-1.83,-1.83
171.57,-0.79,1.08,-0.82,1.05,-1.05,-0.58,-1.95,-1.84,-1.88,-1.87
173.29,-0.84,1.07,-0.87,1.05,-1.05,-0.54,-1.84,-1.89,-1.92,-1.92
175.02,-0.88,1.07,-0.92,1.05,-1.05,-0.50,-1.74,-1.93,-1.96,-1.96
176.77,-0.95,1.05,-0.97,1.04,-1.04,-0.46,-1.64,-1.99,-2.01,-2.01
178.54,-1.02,1.03,-1.02,1.03,-1.03,-0.43,-1.54,-2.05,-2.05,-2.06
180.32,-1.07,1.02,-1.08,1.01,-1.01,-0.40,-1.45,-2.09,-2.09,-2.09
182.13,-1.15,0.98,-1.14,0.99,-0.99,-0.36,-1.36,-2.15,-2.14,-2.13
183.95,-1.21,0.97,-1.20,0.98,-0.98,-0.33,-1.28,-2.19,-2.18,-2.18
185.79,-1.27,0.94,-1.26,0.96,-0.96,-0.30,-1.19,-2.23,-2.22,-2.22
187.65,-1.33,0.93,-1.32,0.94,-0.94,-0.28,-1.11,-2.27,-2.26,-2.26
189.52,-1.39,0.90,-1.38,0.92,-0.92,-0.25,-1.03,-2.31,-2.29,-2.30
191.42,-1.45,0.88,-1.43,0.90,-0.90,-0.22,-0.96,-2.35,-2.33,-2.33
193.33,-1.49,0.87,-1.48,0.88,-0.88,-0.20,-0.89,-2.37,-2.37,-2.36
195.27,-1.53,0.86,-1.53,0.87,-0.87,-0.17,-0.82,-2.40,-2.40,-2.39
197.22,-1.58,0.84,-1.58,0.85,-0.85,-0.15,-0.75,-2.43,-2.43,-2.43
199.19,-1.61,0.86,-1.62,0.84,-0.84,-0.13,-0.69,-2.45,-2.46,-2.47
201.18,-1.66,0.83,-1.66,0.82,-0.82,-0.10,-0.63,-2.48,-2.48,-2.49
203.19,-1.69,0.82,-1.70,0.81,-0.81,-0.08,-0.57,-2.50,-2.51,-2.51
205.23,-1.73,0.80,-1.74,0.79,-0.79,-0.06,-0.51,-2.52,-2.53,-2.54
207.28,-1.77,0.77,-1.78,0.78,-0.78,-0.04,-0.46,-2.55,-2.55,-2.55
209.35,-1.80,0.77,-1.82,0.76,-0.76,-0.02,-0.40,-2.56,-2.57,-2.57
211.44,-1.86,0.74,-1.85,0.74,-0.74,-0.01,-0.35,-2.60,-2.59,-2.60
213.56,-1.88,0.72,-1.89,0.72,-0.72,0.01,-0.31,-2.60,-2.61,-2.61
215.69,-1.92,0.69,-1.93,0.69,-0.69,0.03,-0.26,-2.62,-2.62,-2.61
217.85,-1.97,0.66,-1.96,0.67,-0.67,0.05,-0.21,-2.64,-2.63,-2.63
220.03,-2.00,0.64,-1.99,0.64,-0.64,0.06,-0.17,-2.65,-2.64,-2.64
222.23,-2.03,0.63,-2.03,0.62,-0.62,0.08,-0.13,-2.65,-2.65,-2.66
224.45,-2.06,0.59,-2.06,0.59,-0.59,0.09,-0.09,-2.65,-2.65,-2.65
226.70,-2.09,0.56,-2.09,0.56,-0.56,0.11,-0.05,-2.66,-2.66,-2.66
228.96,-2.12,0.54,-2.12,0.54,-0.54,0.12,-0.01,-2.66,-2.66,-2.66
231.25,-2.15,0.50,-2.15,0.51,-0.51,0.13,0.02,-2.66,-2.66,-2.65
233.57,-2.16,0.49,-2.18,0.48,-0.48,0.15,0.06,-2.64,-2.66,-2.65
235.90,-2.21,0.44,-2.21,0.45,-0.45,0.16,0.09,-2.66,-2.66,-2.66
238.26,-2.24,0.41,-2.23,0.42,-0.42,0.17,0.12,-2.66,-2.65,-2.66
240.64,-2.25,0.39,-2.26,0.39,-0.39,0.18,0.15,-2.64,-2.65,-2.65
243.05,-2.29,0.35,-2.28,0.36,-0.36,0.20,0.18,-2.65,-2.64,-2.64
245.48,-2.30,0.33,-2.31,0.32,-0.32,0.21,0.21,-2.63,-2.63,-2.63
247.93,-2.34,0.28,-2.33,0.29,-0.29,0.22,0.24,-2.63,-2.62,-2.62
250.41,-2.35,0.26,-2.35,0.26,-0.26,0.23,0.27,-2.61,-2.61,-2.62
252.92,-2.38,0.21,-2.37,0.23,-0.23,0.24,0.29,-2.61,-2.59,-2.60
255.45,-2.38,0.19,-2.39,0.19,-0.19,0.25,0.32,-2.57,-2.58,-2.58
258.00,-2.42,0.14,-2.41,0.16,-0.16,0.26,0.34,-2.58,-2.57,-2.56
260.58,-2.42,0.13,-2.43,0.12,-0.12,0.27,0.37,-2.54,-2.55,-2.55
263.19,-2.45,0.08,-2.45,0.08,-0.08,0.28,0.39,-2.53,-2.53,-2.53
265.82,-2.47,0.04,-2.48,0.04,-0.04,0.30,0.41,-2.51,-2.51,-2.52
268.48,-2.49,0.00,-2.51,-0.01,0.01,0.31,0.44,-2.48,-2.50,-2.49
271.16,-2.52,-0.05,-2.54,-0.06,0.06,0.32,0.46,-2.46,-2.48,-2.47
273.87,-2.55,-0.09,-2.57,-0.11,0.11,0.33,0.48,-2.44,-2.46,-2.46
276.61,-2.58,-0.15,-2.60,-0.16,0.16,0.34,0.50,-2.42,-2.44,-2.43
279.38,-2.63,-0.21,-2.64,-0.22,0.22,0.35,0.52,-2.41,-2.42,-2.42
282.17,-2.66,-0.26,-2.68,-0.28,0.28,0.36,0.54,-2.39,-2.41,-2.41
284.99,-2.71,-0.33,-2.72,-0.34,0.34,0.37,0.56,-2.38,-2.39,-2.38
287.84,-2.77,-0.40,-2.76,-0.39,0.39,0.38,0.58,-2.38,-2.37,-2.37
290.72,-2.81,-0.47,-2.80,-0.45,0.45,0.39,0.60,-2.36,-2.35,-2.34
293.63,-2.86,-0.53,-2.83,-0.51,0.51,0.40,0.62,-2.35,-2.33,-2.33
296.57,-2.89,-0.59,-2.87,-0.56,0.56,0.41,0.64,-2.33,-2.30,-2.30
299.53,-2.90,-0.61,-2.90,-0.62,0.62,0.42,0.66,-2.29,-2.28,-2.29
302.53,-2.94,-0.67,-2.93,-0.67,0.67,0.43,0.68,-2.28,-2.26,-2.27
305.55,-2.94,-0.70,-2.95,-0.71,0.71,0.44,0.69,-2.23,-2.24,-2.24
308.61,-2.99,-0.77,-2.97,-0.75,0.75,0.46,0.71,-2.24,-2.22,-2.22
311.69,-2.99,-0.80,-2.99,-0.79,0.79,0.47,0.73,-2.20,-2.20,-2.20
314.81,-2.99,-0.83,-3.00,-0.83,0.83,0.48,0.75,-2.17,-2.17,-2.16
317.96,-2.99,-0.85,-3.01,-0.86,0.86,0.49,0.77,-2.13,-2.15,-2.14
321.14,-3.00,-0.87,-3.02,-0.89,0.89,0.51,0.79,-2.12,-2.13,-2.13
324.35,-3.03,-0.92,-3.02,-0.91,0.91,0.52,0.81,-2.12,-2.11,-2.11
327.59,-3.03,-0.95,-3.03,-0.94,0.94,0.53,0.83,-2.09,-2.09,-2.09
330.87,-3.03,-0.96,-3.03,-0.96,0.96,0.55,0.85,-2.07,-2.07,-2.07
334.18,-3.03,-0.98,-3.03,-0.99,0.99,0.56,0.87,-2.05,-2.05,-2.05
337.52,-3.03,-1.00,-3.03,-1.01,1.01,0.57,0.89,-2.03,-2.03,-2.03
340.90,-3.03,-1.02,-3.04,-1.03,1.03,0.59,0.91,-2.01,-2.01,-2.01
344.30,-3.03,-1.04,-3.04,-1.04,1.04,0.60,0.93,-1.99,-1.99,-1.99
347.75,-3.03,-1.06,-3.04,-1.06,1.06,0.62,0.96,-1.97,-1.97,-1.97
351.23,-3.03,-1.08,-3.04,-1.08,1.08,0.64,0.98,-1.95,-1.96,-1.96
354.74,-3.03,-1.09,-3.04,-1.10,1.10,0.65,1.00,-1.93,-1.94,-1.94
358.28,-3.03,-1.11,-3.03,-1.11,1.11,0.67,1.02,-1.92,-1.92,-1.92
361.87,-3.03,-1.13,-3.03,-1.13,1.13,0.69,1.05,-1.90,-1.90,-1.90
365.49,-3.03,-1.15,-3.03,-1.14,1.14,0.71,1.07,-1.89,-1.89,-1.89
369.14,-3.03,-1.16,-3.03,-1.16,1.16,0.73,1.09,-1.88,-1.87,-1.88
372.83,-3.03,-1.17,-3.03,-1.17,1.17,0.75,1.12,-1.86,-1.86,-1.86
376.56,-3.01,-1.16,-3.02,-1.18,1.18,0.77,1.14,-1.84,-1.85,-1.85
380.33,-3.01,-1.19,-3.02,-1.18,1.18,0.79,1.17,-1.83,-1.83,-1.82
384.13,-3.01,-1.20,-3.01,-1.19,1.19,0.81,1.19,-1.82,-1.82,-1.82
387.97,-2.99,-1.19,-3.00,-1.19,1.19,0.83,1.22,-1.80,-1.81,-1.81
391.85,-2.99,-1.19,-2.98,-1.19,1.19,0.86,1.25,-1.80,-1.79,-1.80
395.77,-2.99,-1.21,-2.97,-1.18,1.18,0.88,1.27,-1.81,-1.78,-1.78
399.73,-2.98,-1.21,-2.95,-1.18,1.18,0.91,1.30,-1.80,-1.77,-1.77
403.72,-2.94,-1.18,-2.93,-1.17,1.17,0.93,1.32,-1.77,-1.76,-1.76
407.76,-2.90,-1.15,-2.91,-1.16,1.16,0.96,1.35,-1.74,-1.75,-1.75
411.84,-2.89,-1.16,-2.90,-1.16,1.16,0.98,1.38,-1.74,-1.74,-1.74
415.96,-2.86,-1.13,-2.88,-1.15,1.15,1.01,1.40,-1.71,-1.73,-1.73
420.12,-2.86,-1.14,-2.86,-1.14,1.14,1.04,1.43,-1.72,-1.72,-1.72
424.32,-2.81,-1.10,-2.84,-1.13,1.13,1.06,1.45,-1.68,-1.71,-1.71
428.56,-2.81,-1.11,-2.82,-1.12,1.12,1.09,1.47,-1.69,-1.70,-1.70
432.85,-2.81,-1.12,-2.80,-1.11,1.11,1.12,1.50,-1.70,-1.69,-1.69
437.18,-2.80,-1.12,-2.79,-1.11,1.11,1.15,1.52,-1.69,-1.68,-1.68
