frequency,raw,error,smoothed,error_smoothed,equalization,parametric_eq,fixed_band_eq,equalized_raw,equalized_smoothed,target
20.00,-22.64,-21.64,-22.64,-21.67,21.67,20.60,9.00,-0.98,-0.98,-1.00
20.20,-22.48,-21.57,-22.48,-21.58,21.58,20.82,9.17,-0.90,-0.90,-0.91
20.40,-22.32,-21.49,-22.33,-21.50,21.50,21.01,9.35,-0.82,-0.83,-0.83
20.61,-22.17,-21.40,-22.17,-21.41,21.41,21.19,9.53,-0.76,-0.75,-0.76
20.81,-22.00,-21.33,-22.01,-21.32,21.32,21.34,9.72,-0.68,-0.69,-0.67
21.02,-21.84,-21.25,-21.84,-21.23,21.23,21.47,9.91,-0.62,-0.62,-0.59
21.23,-21.68,-21.15,-21.68,-21.13,21.13,21.57,10.11,-0.56,-0.55,-0.53
21.44,-21.52,-21.05,-21.52,-21.03,21.03,21.64,10.31,-0.49,-0.49,-0.47
21.66,-21.37,-20.94,-21.36,-20.93,20.93,21.68,10.51,-0.44,-0.43,-0.42
21.87,-21.19,-20.82,-21.20,-20.82,20.82,21.69,10.72,-0.37,-0.38,-0.37
22.09,-21.03,-20.71,-21.03,-20.71,20.71,21.67,10.94,-0.32,-0.33,-0.32
22.31,-20.87,-20.60,-20.87,-20.60,20.60,21.63,11.16,-0.27,-0.27,-0.27
22.54,-20.71,-20.47,-20.71,-20.48,20.48,21.56,11.39,-0.23,-0.23,-0.23
22.76,-20.54,-20.35,-20.54,-20.36,20.36,21.47,11.62,-0.19,-0.19,-0.19
22.99,-20.39,-20.22,-20.38,-20.23,20.23,21.36,11.86,-0.15,-0.15,-0.16
23.22,-20.22,-20.09,-20.22,-20.10,20.10,21.24,12.11,-0.11,-0.11,-0.12
23.45,-20.05,-19.97,-20.05,-19.98,19.98,21.09,12.36,-0.08,-0.07,-0.08
23.69,-19.89,-19.84,-19.88,-19.85,19.85,20.94,12.62,-0.04,-0.04,-0.04
23.92,-19.71,-19.71,-19.72,-19.72,19.72,20.77,12.89,0.00,-0.00,-0.00
24.16,-19.55,-19.60,-19.55,-19.59,19.59,20.60,13.16,0.03,0.03,0.05
24.40,-19.38,-19.46,-19.39,-19.45,19.45,20.42,13.44,0.07,0.07,0.08
24.65,-19.23,-19.32,-19.22,-19.32,19.32,20.23,13.73,0.10,0.10,0.10
24.89,-19.05,-19.18,-19.05,-19.19,19.19,20.05,14.03,0.14,0.14,0.13
25.14,-18.88,-19.05,-18.89,-19.06,19.06,19.86,14.34,0.17,0.17,0.17
25.39,-18.72,-18.92,-18.72,-18.92,18.92,19.67,14.65,0.20,0.20,0.20
25.65,-18.56,-18.79,-18.55,-18.79,18.79,19.48,14.98,0.23,0.23,0.24
25.91,-18.39,-18.65,-18.39,-18.65,18.65,19.30,15.31,0.26,0.26,0.26
26.16,-18.21,-18.50,-18.22,-18.52,18.52,19.11,15.65,0.30,0.30,0.29
26.43,-18.06,-18.38,-18.05,-18.38,18.38,18.93,15.99,0.32,0.32,0.33
26.69,-17.88,-18.24,-17.89,-18.24,18.24,18.75,16.35,0.36,0.35,0.36
26.96,-17.73,-18.11,-17.72,-18.11,18.11,18.57,16.71,0.38,0.38,0.39
27.23,-17.56,-17.97,-17.55,-17.97,17.97,18.40,17.08,0.41,0.42,0.42
27.50,-17.39,-17.83,-17.39,-17.83,17.83,18.23,17.45,0.45,0.45,0.45
27.77,-17.22,-17.69,-17.22,-17.70,17.70,18.07,17.83,0.47,0.48,0.47
28.05,-17.05,-17.56,-17.05,-17.56,17.56,17.91,18.20,0.51,0.51,0.51
28.33,-16.89,-17.42,-16.89,-17.43,17.43,17.75,18.58,0.53,0.54,0.53
28.62,-16.73,-17.29,-16.72,-17.29,17.29,17.60,18.94,0.56,0.57,0.56
28.90,-16.56,-17.16,-16.56,-17.16,17.16,17.45,19.30,0.59,0.60,0.60
29.19,-16.39,-17.01,-16.40,-17.02,17.02,17.31,19.63,0.63,0.62,0.62
29.48,-16.23,-16.90,-16.24,-16.89,16.89,17.17,19.95,0.66,0.65,0.67
29.78,-16.07,-16.74,-16.08,-16.76,16.76,17.03,20.23,0.69,0.68,0.68
30.08,-15.91,-16.61,-15.92,-16.63,16.63,16.90,20.47,0.72,0.71,0.71
30.38,-15.76,-16.49,-15.76,-16.50,16.50,16.77,20.67,0.74,0.74,0.74
30.68,-15.60,-16.37,-15.60,-16.36,16.36,16.64,20.81,0.76,0.76,0.77
30.99,-15.46,-16.24,-15.44,-16.23,16.23,16.51,20.89,0.78,0.79,0.79
31.30,-15.30,-16.10,-15.29,-16.10,16.10,16.39,20.90,0.80,0.81,0.81
31.61,-15.14,-15.97,-15.13,-15.97,15.97,16.27,20.86,0.83,0.84,0.84
31.93,-14.99,-15.84,-14.98,-15.84,15.84,16.16,20.75,0.85,0.86,0.86
32.24,-14.82,-15.70,-14.82,-15.71,15.71,16.04,20.59,0.88,0.88,0.88
32.57,-14.67,-15.57,-14.67,-15.57,15.57,15.93,20.38,0.91,0.91,0.91
32.89,-14.50,-15.43,-14.51,-15.44,15.44,15.82,20.13,0.94,0.93,0.93
33.22,-14.35,-15.30,-14.36,-15.31,15.31,15.71,19.84,0.95,0.95,0.95
33.55,-14.20,-15.17,-14.21,-15.17,15.17,15.60,19.53,0.97,0.96,0.97
33.89,-14.05,-15.03,-14.05,-15.03,15.03,15.49,19.20,0.98,0.98,0.98
34.23,-13.91,-14.90,-13.90,-14.90,14.90,15.39,18.85,0.99,0.99,1.00
34.57,-13.75,-14.76,-13.75,-14.76,14.76,15.28,18.50,1.00,1.01,1.01
34.92,-13.62,-14.63,-13.60,-14.62,14.62,15.17,18.15,1.00,1.02,1.02
35.27,-13.46,-14.49,-13.45,-14.48,14.48,15.07,17.79,1.02,1.03,1.04
35.62,-13.31,-14.33,-13.30,-14.34,14.34,14.96,17.44,1.04,1.04,1.03
35.97,-13.15,-14.19,-13.16,-14.20,14.20,14.86,17.09,1.05,1.04,1.04
36.33,-13.01,-14.07,-13.01,-14.06,14.06,14.75,16.75,1.05,1.05,1.06
36.70,-12.87,-13.91,-12.87,-13.92,13.92,14.64,16.41,1.05,1.05,1.05
37.06,-12.72,-13.77,-12.72,-13.78,13.78,14.53,16.08,1.05,1.05,1.05
37.43,-12.58,-13.63,-12.58,-13.63,13.63,14.42,15.76,1.05,1.05,1.05
37.81,-12.44,-13.49,-12.44,-13.49,13.49,14.31,15.45,1.05,1.05,1.05
38.19,-12.31,-13.35,-12.30,-13.35,13.35,14.20,15.15,1.04,1.05,1.05
38.57,-12.16,-13.21,-12.17,-13.21,13.21,14.09,14.86,1.05,1.04,1.05
38.95,-12.03,-13.08,-12.03,-13.07,13.07,13.97,14.57,1.04,1.04,1.05
39.34,-11.90,-12.93,-11.90,-12.94,12.94,13.85,14.30,1.03,1.04,1.03
39.74,-11.78,-12.80,-11.77,-12.81,12.81,13.73,14.03,1.03,1.03,1.03
40.14,-11.65,-12.66,-11.65,-12.68,12.68,13.61,13.77,1.03,1.03,1.02
40.54,-11.53,-12.54,-11.53,-12.55,12.55,13.49,13.52,1.02,1.02,1.02
40.94,-11.40,-12.41,-11.41,-12.42,12.42,13.36,13.28,1.02,1.01,1.01
41.35,-11.28,-12.29,-11.29,-12.30,12.30,13.23,13.05,1.01,1.01,1.01
41.76,-11.17,-12.17,-11.18,-12.18,12.18,13.11,12.82,1.00,1.00,1.00
42.18,-11.07,-12.06,-11.07,-12.06,12.06,12.97,12.60,0.98,0.99,0.99
42.60,-10.96,-11.94,-10.97,-11.94,11.94,12.84,12.39,0.98,0.98,0.98
43.03,-10.86,-11.84,-10.86,-11.83,11.83,12.70,12.18,0.97,0.97,0.98
43.46,-10.76,-11.73,-10.76,-11.72,11.72,12.57,11.98,0.96,0.96,0.97
43.90,-10.67,-11.61,-10.67,-11.62,11.62,12.43,11.79,0.95,0.95,0.95
44.33,-10.57,-11.50,-10.58,-11.51,11.51,12.29,11.60,0.94,0.94,0.93
44.78,-10.49,-11.40,-10.48,-11.41,11.41,12.14,11.42,0.93,0.93,0.92
45.23,-10.40,-11.30,-10.40,-11.31,11.31,12.00,11.25,0.92,0.92,0.91
45.68,-10.31,-11.20,-10.31,-11.21,11.21,11.86,11.08,0.91,0.90,0.90
46.13,-10.22,-11.11,-10.22,-11.12,11.12,11.71,10.92,0.90,0.89,0.89
46.60,-10.14,-11.02,-10.14,-11.03,11.03,11.56,10.76,0.89,0.88,0.89
47.06,-10.05,-10.93,-10.06,-10.93,10.93,11.41,10.61,0.88,0.87,0.88
47.53,-9.97,-10.84,-9.98,-10.84,10.84,11.26,10.46,0.87,0.87,0.87
48.01,-9.90,-10.77,-9.89,-10.75,10.75,11.11,10.32,0.85,0.86,0.87
48.49,-9.82,-10.67,-9.81,-10.66,10.66,10.96,10.18,0.85,0.85,0.86
48.97,-9.72,-10.57,-9.73,-10.57,10.57,10.81,10.05,0.85,0.85,0.85
49.46,-9.64,-10.47,-9.65,-10.49,10.49,10.66,9.92,0.84,0.84,0.83
49.96,-9.57,-10.38,-9.56,-10.40,10.40,10.51,9.79,0.83,0.84,0.82
50.46,-9.48,-10.30,-9.48,-10.31,10.31,10.36,9.67,0.83,0.83,0.83
50.96,-9.39,-10.22,-9.39,-10.22,10.22,10.20,9.55,0.82,0.83,0.83
51.47,-9.29,-10.11,-9.30,-10.12,10.12,10.05,9.43,0.83,0.83,0.82
51.99,-9.21,-10.02,-9.21,-10.03,10.03,9.90,9.32,0.82,0.82,0.82
52.51,-9.12,-9.93,-9.11,-9.93,9.93,9.75,9.21,0.81,0.82,0.82
53.03,-9.01,-9.83,-9.02,-9.83,9.83,9.60,9.10,0.81,0.81,0.82
53.56,-8.92,-9.74,-8.92,-9.72,9.72,9.45,9.00,0.80,0.81,0.82
54.10,-8.83,-9.63,-8.82,-9.62,9.62,9.30,8.90,0.79,0.80,0.81
54.64,-8.72,-9.51,-8.71,-9.51,9.51,9.15,8.79,0.79,0.79,0.80
55.18,-8.60,-9.39,-8.60,-9.39,9.39,9.01,8.69,0.79,0.79,0.79
55.74,-8.50,-9.26,-8.49,-9.27,9.27,8.86,8.60,0.77,0.78,0.77
56.29,-8.38,-9.15,-8.38,-9.14,9.14,8.71,8.50,0.76,0.76,0.77
56.86,-8.27,-9.01,-8.26,-9.01,9.01,8.57,8.40,0.74,0.75,0.75
57.42,-8.14,-8.87,-8.14,-8.87,8.87,8.43,8.30,0.73,0.74,0.73
58.00,-8.02,-8.74,-8.02,-8.73,8.73,8.29,8.21,0.71,0.72,0.72
58.58,-7.89,-8.59,-7.89,-8.59,8.59,8.14,8.11,0.70,0.70,0.70
59.16,-7.76,-8.45,-7.77,-8.45,8.45,8.01,8.01,0.68,0.68,0.69
59.76,-7.64,-8.30,-7.64,-8.30,8.30,7.87,7.91,0.66,0.65,0.67
60.35,-7.51,-8.15,-7.52,-8.15,8.15,7.73,7.81,0.64,0.63,0.64
60.96,-7.39,-8.01,-7.39,-8.00,8.00,7.60,7.71,0.62,0.61,0.63
61.57,-7.27,-7.84,-7.27,-7.85,7.85,7.46,7.61,0.59,0.58,0.58
62.18,-7.14,-7.69,-7.15,-7.71,7.71,7.33,7.51,0.56,0.56,0.55
62.80,-7.03,-7.57,-7.02,-7.56,7.56,7.20,7.41,0.53,0.54,0.54
63.43,-6.90,-7.40,-6.90,-7.42,7.42,7.07,7.30,0.51,0.51,0.50
64.07,-6.79,-7.26,-6.78,-7.28,7.28,6.95,7.19,0.49,0.49,0.48
64.71,-6.67,-7.13,-6.67,-7.14,7.14,6.82,7.09,0.48,0.47,0.47
65.35,-6.54,-6.99,-6.55,-7.01,7.01,6.70,6.98,0.47,0.46,0.45
66.01,-6.44,-6.88,-6.44,-6.88,6.88,6.58,6.87,0.44,0.44,0.44
66.67,-6.34,-6.76,-6.33,-6.76,6.76,6.46,6.75,0.43,0.43,0.43
67.33,-6.22,-6.64,-6.22,-6.64,6.64,6.34,6.64,0.42,0.42,0.42
68.01,-6.11,-6.52,-6.12,-6.53,6.53,6.22,6.53,0.42,0.41,0.41
68.69,-6.01,-6.41,-6.02,-6.42,6.42,6.10,6.41,0.41,0.40,0.40
69.37,-5.91,-6.31,-5.92,-6.32,6.32,5.99,6.30,0.40,0.39,0.40
70.07,-5.82,-6.21,-5.83,-6.21,6.21,5.88,6.18,0.39,0.39,0.39
70.77,-5.73,-6.12,-5.74,-6.12,6.12,5.77,6.07,0.38,0.38,0.39
71.48,-5.65,-6.02,-5.65,-6.02,6.02,5.66,5.95,0.37,0.37,0.38
72.19,-5.55,-5.91,-5.56,-5.92,5.92,5.55,5.84,0.36,0.36,0.36
72.91,-5.47,-5.83,-5.48,-5.82,5.82,5.44,5.72,0.35,0.35,0.36
73.64,-5.40,-5.74,-5.39,-5.73,5.73,5.34,5.61,0.32,0.34,0.34
74.38,-5.32,-5.65,-5.31,-5.63,5.63,5.24,5.49,0.31,0.32,0.33
75.12,-5.24,-5.55,-5.23,-5.55,5.55,5.13,5.38,0.30,0.31,0.31
75.87,-5.16,-5.46,-5.16,-5.46,5.46,5.03,5.27,0.29,0.30,0.30
76.63,-5.08,-5.37,-5.08,-5.37,5.37,4.94,5.15,0.28,0.28,0.29
77.40,-5.00,-5.27,-5.01,-5.28,5.28,4.84,5.04,0.28,0.27,0.27
78.17,-4.92,-5.17,-4.94,-5.20,5.20,4.74,4.93,0.27,0.26,0.25
78.95,-4.85,-5.10,-4.87,-5.12,5.12,4.65,4.83,0.26,0.25,0.25
79.74,-4.80,-5.04,-4.80,-5.04,5.04,4.56,4.72,0.24,0.24,0.24
80.54,-4.74,-4.97,-4.74,-4.97,4.97,4.46,4.61,0.22,0.23,0.23
81.35,-4.67,-4.89,-4.67,-4.90,4.90,4.37,4.51,0.22,0.23,0.22
82.16,-4.61,-4.82,-4.61,-4.83,4.83,4.29,4.41,0.22,0.22,0.21
82.98,-4.55,-4.77,-4.56,-4.77,4.77,4.20,4.31,0.22,0.22,0.22
83.81,-4.48,-4.69,-4.50,-4.71,4.71,4.11,4.21,0.23,0.21,0.21
84.65,-4.43,-4.63,-4.44,-4.66,4.66,4.03,4.11,0.22,0.21,0.20
85.50,-4.39,-4.60,-4.39,-4.60,4.60,3.95,4.01,0.21,0.21,0.21
86.35,-4.34,-4.55,-4.34,-4.55,4.55,3.86,3.92,0.20,0.20,0.21
87.22,-4.30,-4.50,-4.29,-4.49,4.49,3.78,3.83,0.19,0.20,0.20
88.09,-4.25,-4.45,-4.25,-4.44,4.44,3.70,3.73,0.18,0.19,0.20
88.97,-4.20,-4.39,-4.20,-4.38,4.38,3.62,3.64,0.18,0.18,0.19
89.86,-4.15,-4.33,-4.15,-4.32,4.32,3.55,3.56,0.17,0.17,0.18
90.76,-4.09,-4.25,-4.11,-4.26,4.26,3.47,3.47,0.17,0.15,0.16
91.66,-4.05,-4.19,-4.06,-4.20,4.20,3.39,3.38,0.14,0.13,0.14
92.58,-4.01,-4.12,-4.02,-4.13,4.13,3.32,3.30,0.11,0.11,0.11
93.51,-3.98,-4.07,-3.97,-4.05,4.05,3.25,3.22,0.07,0.08,0.09
94.44,-3.94,-4.00,-3.93,-3.98,3.98,3.18,3.14,0.03,0.05,0.06
95.39,-3.89,-3.91,-3.89,-3.89,3.89,3.10,3.06,-0.00,0.01,0.02
96.34,-3.84,-3.82,-3.84,-3.81,3.81,3.03,2.98,-0.04,-0.04,-0.02
97.30,-3.79,-3.71,-3.80,-3.72,3.72,2.97,2.90,-0.07,-0.08,-0.08
98.28,-3.75,-3.62,-3.76,-3.63,3.63,2.90,2.83,-0.12,-0.13,-0.13
99.26,-3.72,-3.54,-3.72,-3.54,3.54,2.83,2.76,-0.18,-0.18,-0.18
100.25,-3.67,-3.43,-3.69,-3.45,3.45,2.76,2.68,-0.23,-0.24,-0.24
101.25,-3.63,-3.33,-3.65,-3.35,3.35,2.70,2.61,-0.29,-0.30,-0.30
102.27,-3.58,-3.22,-3.61,-3.25,3.25,2.63,2.54,-0.34,-0.36,-0.36
103.29,-3.56,-3.14,-3.56,-3.15,3.15,2.57,2.47,-0.42,-0.42,-0.42
104.32,-3.53,-3.06,-3.52,-3.04,3.04,2.51,2.41,-0.49,-0.48,-0.47
105.37,-3.49,-2.95,-3.47,-2.94,2.94,2.44,2.34,-0.56,-0.54,-0.54
106.42,-3.44,-2.84,-3.43,-2.83,2.83,2.38,2.27,-0.61,-0.60,-0.60
107.48,-3.40,-2.75,-3.38,-2.73,2.73,2.32,2.21,-0.67,-0.65,-0.65
108.56,-3.35,-2.64,-3.34,-2.63,2.63,2.26,2.15,-0.73,-0.71,-0.71
109.64,-3.29,-2.52,-3.29,-2.52,2.52,2.20,2.08,-0.77,-0.77,-0.77
110.74,-3.23,-2.41,-3.24,-2.42,2.42,2.14,2.02,-0.82,-0.82,-0.82
111.85,-3.17,-2.31,-3.19,-2.32,2.32,2.08,1.96,-0.86,-0.87,-0.86
112.97,-3.12,-2.19,-3.14,-2.22,2.22,2.02,1.91,-0.91,-0.93,-0.93
114.10,-3.07,-2.10,-3.09,-2.12,2.12,1.97,1.85,-0.95,-0.97,-0.97
115.24,-3.02,-2.00,-3.04,-2.02,2.02,1.91,1.79,-1.00,-1.02,-1.02
116.39,-3.00,-1.93,-2.99,-1.93,1.93,1.85,1.74,-1.08,-1.06,-1.07
117.55,-2.96,-1.85,-2.94,-1.84,1.84,1.80,1.68,-1.12,-1.10,-1.11
118.73,-2.90,-1.75,-2.89,-1.76,1.76,1.74,1.63,-1.15,-1.14,-1.15
119.92,-2.84,-1.66,-2.85,-1.67,1.67,1.68,1.58,-1.17,-1.18,-1.18
121.12,-2.80,-1.59,-2.81,-1.60,1.60,1.63,1.52,-1.21,-1.21,-1.21
122.33,-2.77,-1.53,-2.77,-1.53,1.53,1.57,1.47,-1.25,-1.24,-1.24
123.55,-2.73,-1.46,-2.73,-1.46,1.46,1.52,1.42,-1.28,-1.27,-1.27
124.79,-2.67,-1.37,-2.69,-1.39,1.39,1.47,1.38,-1.29,-1.30,-1.30
126.03,-2.62,-1.30,-2.65,-1.32,1.32,1.41,1.33,-1.30,-1.33,-1.32
127.29,-2.60,-1.25,-2.62,-1.26,1.26,1.36,1.28,-1.35,-1.36,-1.35
128.57,-2.57,-1.18,-2.58,-1.19,1.19,1.30,1.23,-1.38,-1.39,-1.39
129.85,-2.55,-1.14,-2.54,-1.13,1.13,1.25,1.19,-1.43,-1.42,-1.41
131.15,-2.52,-1.08,-2.51,-1.06,1.06,1.20,1.14,-1.46,-1.44,-1.44
132.46,-2.49,-1.01,-2.48,-1.00,1.00,1.14,1.10,-1.49,-1.47,-1.48
133.79,-2.45,-0.95,-2.44,-0.94,0.94,1.09,1.06,-1.52,-1.50,-1.50
135.12,-2.40,-0.87,-2.41,-0.87,0.87,1.03,1.01,-1.53,-1.54,-1.53
136.48,-2.37,-0.81,-2.37,-0.81,0.81,0.98,0.97,-1.57,-1.57,-1.56
137.84,-2.33,-0.74,-2.34,-0.74,0.74,0.93,0.93,-1.59,-1.60,-1.59
139.22,-2.31,-0.67,-2.31,-0.68,0.68,0.87,0.89,-1.64,-1.63,-1.64
140.61,-2.28,-0.61,-2.28,-0.61,0.61,0.82,0.85,-1.67,-1.67,-1.67
142.02,-2.24,-0.55,-2.24,-0.54,0.54,0.76,0.81,-1.70,-1.70,-1.69
143.44,-2.22,-0.49,-2.21,-0.48,0.48,0.71,0.77,-1.74,-1.73,-1.73
144.87,-2.18,-0.41,-2.19,-0.42,0.42,0.65,0.73,-1.76,-1.77,-1.77
146.32,-2.16,-0.35,-2.17,-0.37,0.37,0.60,0.69,-1.80,-1.80,-1.81
147.78,-2.13,-0.29,-2.16,-0.31,0.31,0.54,0.65,-1.82,-1.84,-1.84
149.26,-2.12,-0.25,-2.14,-0.26,0.26,0.49,0.61,-1.86,-1.88,-1.87
150.75,-2.10,-0.18,-2.14,-0.22,0.22,0.43,0.57,-1.89,-1.92,-1.92
152.26,-2.10,-0.14,-2.13,-0.17,0.17,0.37,0.53,-1.93,-1.96,-1.96
153.78,-2.10,-0.11,-2.13,-0.13,0.13,0.32,0.49,-1.98,-2.00,-1.99
155.32,-2.11,-0.07,-2.12,-0.08,0.08,0.26,0.45,-2.03,-2.04,-2.04
156.88,-2.13,-0.06,-2.12,-0.04,0.04,0.20,0.41,-2.10,-2.09,-2.07
158.44,-2.14,-0.01,-2.12,0.01,-0.01,0.14,0.37,-2.15,-2.13,-2.13
160.03,-2.14,0.03,-2.11,0.06,-0.06,0.09,0.33,-2.20,-2.17,-2.17
161.63,-2.13,0.09,-2.11,0.11,-0.11,0.03,0.29,-2.24,-2.21,-2.22
163.24,-2.12,0.14,-2.09,0.16,-0.16,-0.03,0.25,-2.29,-2.26,-2.26
164.88,-2.09,0.21,-2.08,0.22,-0.22,-0.09,0.21,-2.32,-2.30,-2.30
166.53,-2.07,0.27,-2.06,0.28,-0.28,-0.15,0.17,-2.36,-2.34,-2.34
168.19,-2.04,0.34,-2.03,0.35,-0.35,-0.21,0.13,-2.39,-2.38,-2.38
169.87,-2.00,0.42,-2.00,0.42,-0.42,-0.27,0.09,-2.42,-2.42,-2.42
171.57,-1.97,0.48,-1.97,0.48,-0.48,-0.33,0.05,-2.46,-2.46,-2.45
173.29,-1.94,0.55,-1.94,0.55,-0.55,-0.39,0.00,-2.49,-2.49,-2.49
175.02,-1.90,0.63,-1.92,0.61,-0.61,-0.45,-0.04,-2.52,-2.53,-2.53
176.77,-1.86,0.70,-1.89,0.67,-0.67,-0.51,-0.08,-2.53,-2.56,-2.56
178.54,-1.84,0.75,-1.87,0.72,-0.72,-0.57,-0.12,-2.56,-2.59,-2.59
180.32,-1.82,0.80,-1.85,0.76,-0.76,-0.63,-0.17,-2.59,-2.61,-2.62
182.13,-1.80,0.84,-1.83,0.80,-0.80,-0.69,-0.21,-2.61,-2.64,-2.64
183.95,-1.78,0.88,-1.82,0.84,-0.84,-0.75,-0.26,-2.62,-2.66,-2.66
185.79,-1.79,0.89,-1.81,0.87,-0.87,-0.80,-0.30,-2.67,-2.68,-2.68
187.65,-1.79,0.91,-1.80,0.90,-0.90,-0.86,-0.35,-2.69,-2.70,-2.70
189.52,-1.80,0.91,-1.79,0.93,-0.93,-0.91,-0.39,-2.73,-2.72,-2.71
191.42,-1.80,0.93,-1.78,0.95,-0.95,-0.97,-0.44,-2.76,-2.73,-2.73
193.33,-1.79,0.95,-1.76,0.98,-0.98,-1.02,-0.49,-2.78,-2.75,-2.74
195.27,-1.78,0.97,-1.74,1.01,-1.01,-1.06,-0.53,-2.80,-2.76,-2.75
197.22,-1.75,1.02,-1.72,1.05,-1.05,-1.11,-0.58,-2.80,-2.77,-2.77
199.19,-1.72,1.07,-1.70,1.09,-1.09,-1.15,-0.63,-2.81,-2.78,-2.79
201.18,-1.69,1.11,-1.67,1.12,-1.12,-1.19,-0.67,-2.82,-2.80,-2.80
203.19,-1.66,1.14,-1.64,1.17,-1.17,-1.23,-0.72,-2.83,-2.81,-2.80
205.23,-1.62,1.20,-1.61,1.21,-1.21,-1.26,-0.77,-2.83,-2.82,-2.82
207.28,-1.57,1.25,-1.59,1.24,-1.24,-1.29,-0.81,-2.82,-2.83,-2.82
209.35,-1.53,1.31,-1.57,1.28,-1.28,-1.32,-0.86,-2.81,-2.84,-2.84
211.44,-1.51,1.35,-1.55,1.31,-1.31,-1.34,-0.90,-2.82,-2.86,-2.86
213.56,-1.49,1.38,-1.54,1.33,-1.33,-1.36,-0.95,-2.82,-2.87,-2.87
215.69,-1.49,1.38,-1.53,1.35,-1.35,-1.37,-0.99,-2.84,-2.88,-2.87
217.85,-1.50,1.39,-1.53,1.36,-1.36,-1.38,-1.03,-2.86,-2.89,-2.89
220.03,-1.51,1.39,-1.54,1.36,-1.36,-1.39,-1.07,-2.87,-2.90,-2.90
222.23,-1.54,1.38,-1.56,1.36,-1.36,-1.40,-1.11,-2.90,-2.91,-2.92
224.45,-1.58,1.34,-1.58,1.35,-1.35,-1.40,-1.15,-2.93,-2.93,-2.92
226.70,-1.62,1.32,-1.61,1.34,-1.34,-1.39,-1.19,-2.96,-2.94,-2.94
228.96,-1.67,1.28,-1.64,1.32,-1.32,-1.39,-1.22,-3.00,-2.96,-2.95
231.25,-1.69,1.27,-1.67,1.30,-1.30,-1.38,-1.25,-3.00,-2.97,-2.96
233.57,-1.71,1.27,-1.70,1.28,-1.28,-1.37,-1.28,-3.00,-2.99,-2.98
235.90,-1.74,1.25,-1.74,1.26,-1.26,-1.35,-1.31,-3.01,-3.00,-2.99
238.26,-1.76,1.25,-1.77,1.24,-1.24,-1.33,-1.33,-3.01,-3.01,-3.01
240.64,-1.80,1.23,-1.80,1.22,-1.22,-1.31,-1.36,-3.03,-3.03,-3.03
243.05,-1.83,1.21,-1.84,1.20,-1.20,-1.29,-1.37,-3.04,-3.04,-3.04
245.48,-1.86,1.19,-1.87,1.18,-1.18,-1.27,-1.39,-3.04,-3.05,-3.05
247.93,-1.89,1.17,-1.90,1.16,-1.16,-1.25,-1.40,-3.05,-3.05,-3.06
250.41,-1.91,1.16,-1.93,1.13,-1.13,-1.22,-1.41,-3.05,-3.06,-3.07
252.92,-1.95,1.11,-1.96,1.10,-1.10,-1.20,-1.42,-3.06,-3.06,-3.06
255.45,-1.97,1.09,-1.99,1.07,-1.07,-1.17,-1.42,-3.04,-3.06,-3.06
258.00,-2.00,1.05,-2.02,1.03,-1.03,-1.14,-1.42,-3.04,-3.05,-3.05
260.58,-2.04,1.01,-2.05,1.00,-1.00,-1.12,-1.42,-3.04,-3.05,-3.05
263.19,-2.06,0.98,-2.07,0.96,-0.96,-1.09,-1.42,-3.03,-3.04,-3.04
265.82,-2.10,0.93,-2.10,0.93,-0.93,-1.06,-1.41,-3.03,-3.03,-3.03
268.48,-2.12,0.89,-2.11,0.90,-0.90,-1.04,-1.40,-3.02,-3.01,-3.01
271.16,-2.13,0.86,-2.13,0.87,-0.87,-1.01,-1.39,-3.01,-3.00,-2.99
273.87,-2.15,0.83,-2.14,0.85,-0.85,-0.98,-1.37,-3.00,-2.98,-2.98
276.61,-2.16,0.79,-2.14,0.83,-0.83,-0.96,-1.36,-2.99,-2.97,-2.95
279.38,-2.15,0.80,-2.14,0.81,-0.81,-0.93,-1.34,-2.97,-2.95,-2.95
282.17,-2.14,0.79,-2.13,0.81,-0.81,-0.91,-1.32,-2.95,-2.94,-2.93
284.99,-2.13,0.79,-2.12,0.80,-0.80,-0.88,-1.29,-2.94,-2.92,-2.92
287.84,-2.10,0.80,-2.10,0.80,-0.80,-0.86,-1.27,-2.91,-2.90,-2.90
290.72,-2.07,0.81,-2.08,0.81,-0.81,-0.84,-1.25,-2.88,-2.88,-2.88
293.63,-2.04,0.83,-2.05,0.82,-0.82,-0.81,-1.22,-2.86,-2.87,-2.87
296.57,-2.01,0.83,-2.02,0.83,-0.83,-0.79,-1.20,-2.84,-2.85,-2.84
299.53,-1.98,0.85,-1.98,0.84,-0.84,-0.77,-1.17,-2.83,-2.83,-2.83
302.53,-1.95,0.87,-1.95,0.86,-0.86,-0.75,-1.14,-2.81,-2.81,-2.82
305.55,-1.91,0.88,-1.92,0.87,-0.87,-0.74,-1.11,-2.78,-2.79,-2.79
308.61,-1.88,0.89,-1.89,0.88,-0.88,-0.72,-1.09,-2.76,-2.77,-2.77
311.69,-1.85,0.89,-1.87,0.88,-0.88,-0.70,-1.06,-2.73,-2.74,-2.74
314.81,-1.83,0.87,-1.85,0.88,-0.88,-0.69,-1.03,-2.71,-2.72,-2.70
317.96,-1.81,0.88,-1.83,0.87,-0.87,-0.67,-1.00,-2.68,-2.70,-2.69
321.14,-1.79,0.88,-1.82,0.86,-0.86,-0.66,-0.98,-2.65,-2.68,-2.67
324.35,-1.77,0.88,-1.81,0.84,-0.84,-0.64,-0.95,-2.62,-2.65,-2.65
327.59,-1.77,0.86,-1.81,0.82,-0.82,-0.63,-0.92,-2.60,-2.63,-2.63
330.87,-1.78,0.83,-1.80,0.80,-0.80,-0.62,-0.89,-2.59,-2.61,-2.61
334.18,-1.79,0.79,-1.80,0.78,-0.78,-0.60,-0.87,-2.58,-2.58,-2.58
337.52,-1.82,0.74,-1.80,0.76,-0.76,-0.59,-0.84,-2.59,-2.56,-2.56
340.90,-1.82,0.72,-1.79,0.74,-0.74,-0.58,-0.82,-2.57,-2.54,-2.54
344.30,-1.81,0.70,-1.79,0.73,-0.73,-0.57,-0.79,-2.54,-2.51,-2.51
347.75,-1.80,0.69,-1.78,0.71,-0.71,-0.57,-0.77,-2.52,-2.49,-2.49
351.23,-1.79,0.67,-1.76,0.70,-0.70,-0.56,-0.75,-2.50,-2.46,-2.46
354.74,-1.76,0.67,-1.75,0.69,-0.69,-0.55,-0.72,-2.46,-2.44,-2.43
358.28,-1.73,0.69,-1.73,0.69,-0.69,-0.54,-0.70,-2.42,-2.42,-2.42
361.87,-1.70,0.69,-1.70,0.69,-0.69,-0.54,-0.68,-2.39,-2.39,-2.39
365.49,-1.67,0.69,-1.67,0.69,-0.69,-0.53,-0.66,-2.37,-2.37,-2.36
369.14,-1.63,0.72,-1.64,0.70,-0.70,-0.53,-0.64,-2.34,-2.34,-2.35
372.83,-1.60,0.72,-1.61,0.71,-0.71,-0.52,-0.62,-2.32,-2.32,-2.32
376.56,-1.56,0.74,-1.58,0.72,-0.72,-0.52,-0.60,-2.28,-2.30,-2.30
380.33,-1.54,0.73,-1.55,0.73,-0.73,-0.51,-0.58,-2.27,-2.28,-2.27
384.13,-1.51,0.75,-1.53,0.73,-0.73,-0.51,-0.57,-2.25,-2.26,-2.26
387.97,-1.49,0.75,-1.51,0.73,-0.73,-0.51,-0.55,-2.23,-2.24,-2.24
391.85,-1.47,0.76,-1.49,0.74,-0.74,-0.51,-0.53,-2.21,-2.23,-2.23
395.77,-1.45,0.75,-1.48,0.73,-0.73,-0.50,-0.52,-2.19,-2.21,-2.20
399.73,-1.45,0.74,-1.47,0.73,-0.73,-0.50,-0.50,-2.19,-2.20,-2.19
403.72,-1.45,0.74,-1.46,0.73,-0.73,-0.50,-0.49,-2.18,-2.19,-2.19
407.76,-1.46,0.72,-1.46,0.73,-0.73,-0.50,-0.48,-2.19,-2.19,-2.18
411.84,-1.47,0.70,-1.46,0.72,-0.72,-0.50,-0.46,-2.20,-2.18,-2.17
415.96,-1.47,0.71,-1.46,0.72,-0.72,-0.50,-0.45,-2.19,-2.18,-2.18
420.12,-1.47,0.71,-1.46,0.72,-0.72,-0.50,-0.44,-2.19,-2.18,-2.18
424.32,-1.47,0.71,-1.47,0.72,-0.72,-0.50,-0.43,-2.19,-2.18,-2.18
