frequency,raw,error,smoothed,error_smoothed,equalization,parametric_eq,fixed_band_eq,equalized_raw,equalized_smoothed,target
20.00,-10.33,-10.85,-10.33,-10.88,10.88,10.11,3.90,0.55,0.55,0.52
20.20,-10.22,-10.83,-10.22,-10.85,10.85,10.17,4.01,0.62,0.62,0.61
20.40,-10.11,-10.80,-10.11,-10.81,10.81,10.22,4.12,0.70,0.69,0.69
20.61,-10.01,-10.76,-10.00,-10.77,10.77,10.27,4.23,0.76,0.77,0.76
20.81,-9.89,-10.74,-9.89,-10.72,10.72,10.31,4.34,0.83,0.83,0.85
21.02,-9.78,-10.71,-9.78,-10.68,10.68,10.34,4.46,0.90,0.90,0.93
21.23,-9.67,-10.66,-9.67,-10.63,10.63,10.37,4.58,0.96,0.96,0.99
21.44,-9.55,-10.60,-9.56,-10.58,10.58,10.39,4.71,1.03,1.02,1.05
21.66,-9.44,-10.54,-9.44,-10.53,10.53,10.40,4.83,1.08,1.08,1.09
21.87,-9.33,-10.48,-9.33,-10.47,10.47,10.41,4.97,1.14,1.14,1.15
22.09,-9.21,-10.41,-9.22,-10.41,10.41,10.41,5.10,1.20,1.19,1.19
22.31,-9.10,-10.35,-9.11,-10.35,10.35,10.40,5.24,1.25,1.24,1.24
22.54,-8.99,-10.28,-8.99,-10.28,10.28,10.38,5.38,1.28,1.28,1.28
22.76,-8.88,-10.20,-8.88,-10.21,10.21,10.36,5.53,1.32,1.33,1.32
22.99,-8.77,-10.12,-8.77,-10.13,10.13,10.33,5.68,1.36,1.36,1.35
23.22,-8.65,-10.04,-8.65,-10.05,10.05,10.30,5.83,1.40,1.40,1.39
23.45,-8.54,-9.97,-8.54,-9.98,9.98,10.26,5.99,1.43,1.44,1.43
23.69,-8.43,-9.89,-8.42,-9.90,9.90,10.21,6.15,1.47,1.48,1.47
23.92,-8.31,-9.82,-8.31,-9.82,9.82,10.15,6.31,1.51,1.51,1.51
24.16,-8.19,-9.75,-8.19,-9.74,9.74,10.09,6.48,1.55,1.55,1.56
24.40,-8.08,-9.67,-8.08,-9.66,9.66,10.02,6.65,1.58,1.58,1.59
24.65,-7.96,-9.58,-7.97,-9.58,9.58,9.95,6.82,1.62,1.61,1.62
24.89,-7.85,-9.50,-7.85,-9.50,9.50,9.88,7.00,1.65,1.65,1.65
25.14,-7.73,-9.42,-7.74,-9.42,9.42,9.80,7.18,1.69,1.68,1.68
25.39,-7.62,-9.33,-7.62,-9.34,9.34,9.71,7.36,1.72,1.71,1.71
25.65,-7.51,-9.26,-7.51,-9.26,9.26,9.62,7.54,1.74,1.75,1.75
25.91,-7.40,-9.17,-7.40,-9.17,9.17,9.53,7.73,1.78,1.78,1.77
26.16,-7.28,-9.08,-7.28,-9.09,9.09,9.43,7.91,1.81,1.81,1.80
26.43,-7.17,-9.01,-7.17,-9.01,9.01,9.33,8.10,1.83,1.84,1.84
26.69,-7.06,-8.93,-7.06,-8.92,8.92,9.23,8.28,1.86,1.87,1.87
26.96,-6.95,-8.85,-6.95,-8.84,8.84,9.13,8.47,1.89,1.90,1.90
27.23,-6.83,-8.77,-6.83,-8.76,8.76,9.02,8.65,1.92,1.93,1.93
27.50,-6.72,-8.69,-6.72,-8.68,8.68,8.91,8.82,1.95,1.96,1.96
27.77,-6.60,-8.58,-6.61,-8.59,8.59,8.80,9.00,1.99,1.99,1.98
28.05,-6.49,-8.51,-6.49,-8.51,8.51,8.69,9.16,2.02,2.02,2.02
28.33,-6.38,-8.42,-6.38,-8.43,8.43,8.58,9.32,2.05,2.05,2.04
28.62,-6.27,-8.34,-6.27,-8.35,8.35,8.47,9.47,2.07,2.07,2.07
28.90,-6.16,-8.27,-6.16,-8.27,8.27,8.35,9.61,2.11,2.10,2.10
29.19,-6.05,-8.18,-6.05,-8.19,8.19,8.24,9.74,2.13,2.13,2.12
29.48,-5.94,-8.11,-5.95,-8.11,8.11,8.12,9.85,2.17,2.16,2.17
29.78,-5.83,-8.02,-5.84,-8.03,8.03,8.01,9.95,2.20,2.19,2.19
30.08,-5.73,-7.95,-5.74,-7.95,7.95,7.89,10.03,2.22,2.21,2.22
30.38,-5.63,-7.88,-5.63,-7.88,7.88,7.78,10.09,2.24,2.24,2.24
30.68,-5.53,-7.81,-5.53,-7.80,7.80,7.66,10.14,2.27,2.27,2.27
30.99,-5.43,-7.72,-5.43,-7.73,7.73,7.55,10.16,2.29,2.29,2.29
31.30,-5.33,-7.65,-5.33,-7.65,7.65,7.44,10.17,2.32,2.32,2.32
31.61,-5.23,-7.58,-5.23,-7.58,7.58,7.32,10.16,2.34,2.34,2.35
31.93,-5.13,-7.50,-5.14,-7.50,7.50,7.21,10.12,2.37,2.37,2.36
32.24,-5.04,-7.42,-5.04,-7.43,7.43,7.10,10.07,2.39,2.39,2.38
32.57,-4.94,-7.35,-4.94,-7.35,7.35,6.99,9.99,2.41,2.41,2.41
32.89,-4.84,-7.28,-4.84,-7.27,7.27,6.88,9.90,2.43,2.43,2.43
33.22,-4.74,-7.19,-4.75,-7.19,7.19,6.77,9.80,2.45,2.45,2.45
33.55,-4.65,-7.12,-4.65,-7.11,7.11,6.66,9.68,2.46,2.46,2.47
33.89,-4.55,-7.03,-4.55,-7.03,7.03,6.55,9.54,2.48,2.48,2.47
34.23,-4.46,-6.96,-4.46,-6.95,6.95,6.45,9.40,2.49,2.49,2.50
34.57,-4.36,-6.87,-4.36,-6.87,6.87,6.34,9.24,2.50,2.51,2.51
34.92,-4.26,-6.78,-4.26,-6.78,6.78,6.24,9.08,2.52,2.52,2.51
35.27,-4.16,-6.69,-4.17,-6.69,6.69,6.14,8.91,2.53,2.52,2.53
35.62,-4.07,-6.60,-4.07,-6.61,6.61,6.03,8.73,2.53,2.53,2.53
35.97,-3.97,-6.50,-3.98,-6.52,6.52,5.93,8.55,2.55,2.54,2.53
36.33,-3.88,-6.43,-3.89,-6.43,6.43,5.83,8.37,2.55,2.54,2.55
36.70,-3.79,-6.34,-3.79,-6.34,6.34,5.74,8.18,2.54,2.54,2.54
37.06,-3.70,-6.24,-3.70,-6.24,6.24,5.64,7.99,2.54,2.54,2.54
37.43,-3.61,-6.16,-3.61,-6.15,6.15,5.54,7.81,2.54,2.54,2.54
37.81,-3.52,-6.06,-3.52,-6.06,6.06,5.45,7.62,2.53,2.54,2.54
38.19,-3.42,-5.96,-3.42,-5.96,5.96,5.36,7.43,2.54,2.54,2.53
38.57,-3.33,-5.87,-3.33,-5.87,5.87,5.27,7.25,2.53,2.53,2.54
38.95,-3.24,-5.78,-3.24,-5.77,5.77,5.18,7.07,2.53,2.53,2.53
39.34,-3.15,-5.67,-3.15,-5.68,5.68,5.09,6.89,2.52,2.52,2.52
39.74,-3.06,-5.58,-3.06,-5.58,5.58,5.00,6.71,2.52,2.52,2.51
40.14,-2.97,-5.48,-2.97,-5.48,5.48,4.91,6.53,2.51,2.51,2.51
40.54,-2.88,-5.38,-2.88,-5.39,5.39,4.83,6.36,2.50,2.50,2.50
40.94,-2.79,-5.28,-2.80,-5.29,5.29,4.74,6.19,2.50,2.49,2.49
41.35,-2.71,-5.20,-2.71,-5.19,5.19,4.66,6.03,2.48,2.49,2.49
41.76,-2.62,-5.10,-2.62,-5.10,5.10,4.58,5.87,2.48,2.47,2.48
42.18,-2.53,-5.00,-2.54,-5.00,5.00,4.50,5.71,2.47,2.46,2.47
42.60,-2.45,-4.91,-2.45,-4.91,4.91,4.42,5.55,2.45,2.45,2.45
43.03,-2.36,-4.82,-2.37,-4.81,4.81,4.34,5.40,2.45,2.44,2.45
43.46,-2.28,-4.72,-2.28,-4.71,4.71,4.27,5.26,2.43,2.43,2.44
43.90,-2.20,-4.62,-2.20,-4.62,4.62,4.19,5.11,2.41,2.42,2.42
44.33,-2.12,-4.52,-2.12,-4.52,4.52,4.12,4.97,2.40,2.41,2.40
44.78,-2.03,-4.42,-2.03,-4.43,4.43,4.04,4.84,2.39,2.39,2.39
45.23,-1.95,-4.32,-1.95,-4.33,4.33,3.97,4.71,2.38,2.38,2.37
45.68,-1.87,-4.23,-1.87,-4.24,4.24,3.90,4.58,2.36,2.37,2.36
46.13,-1.79,-4.14,-1.78,-4.14,4.14,3.83,4.45,2.35,2.36,2.35
46.60,-1.70,-4.05,-1.70,-4.05,4.05,3.76,4.33,2.34,2.34,2.35
47.06,-1.62,-3.96,-1.62,-3.95,3.95,3.69,4.21,2.33,2.33,2.34
47.53,-1.53,-3.86,-1.54,-3.86,3.86,3.63,4.09,2.32,2.32,2.33
48.01,-1.45,-3.78,-1.46,-3.77,3.77,3.56,3.98,2.31,2.31,2.32
48.49,-1.37,-3.68,-1.37,-3.68,3.68,3.50,3.87,2.30,2.30,2.31
48.97,-1.29,-3.59,-1.30,-3.59,3.59,3.43,3.76,2.30,2.30,2.30
49.46,-1.22,-3.50,-1.22,-3.51,3.51,3.37,3.66,2.28,2.29,2.27
49.96,-1.14,-3.40,-1.14,-3.43,3.43,3.31,3.56,2.28,2.28,2.26
50.46,-1.06,-3.33,-1.07,-3.35,3.35,3.25,3.46,2.28,2.27,2.27
50.96,-0.99,-3.26,-1.00,-3.27,3.27,3.19,3.36,2.27,2.27,2.27
51.47,-0.92,-3.18,-0.93,-3.19,3.19,3.13,3.27,2.27,2.26,2.26
51.99,-0.86,-3.11,-0.86,-3.12,3.12,3.08,3.18,2.25,2.25,2.25
52.51,-0.80,-3.06,-0.80,-3.05,3.05,3.02,3.09,2.24,2.25,2.25
53.03,-0.74,-2.99,-0.74,-2.98,2.98,2.97,3.00,2.23,2.24,2.25
53.56,-0.68,-2.92,-0.68,-2.91,2.91,2.91,2.92,2.23,2.23,2.24
54.10,-0.62,-2.85,-0.62,-2.84,2.84,2.86,2.84,2.22,2.22,2.23
54.64,-0.57,-2.78,-0.57,-2.78,2.78,2.80,2.76,2.21,2.21,2.21
55.18,-0.51,-2.71,-0.52,-2.72,2.72,2.75,2.68,2.20,2.20,2.20
55.74,-0.46,-2.65,-0.47,-2.65,2.65,2.70,2.61,2.19,2.19,2.18
56.29,-0.42,-2.59,-0.42,-2.59,2.59,2.65,2.53,2.17,2.17,2.17
56.86,-0.37,-2.52,-0.37,-2.53,2.53,2.60,2.46,2.15,2.15,2.15
57.42,-0.33,-2.46,-0.33,-2.46,2.46,2.56,2.39,2.13,2.13,2.13
58.00,-0.29,-2.41,-0.29,-2.40,2.40,2.51,2.33,2.11,2.11,2.11
58.58,-0.25,-2.34,-0.25,-2.34,2.34,2.46,2.26,2.09,2.09,2.09
59.16,-0.21,-2.29,-0.22,-2.28,2.28,2.42,2.20,2.07,2.06,2.08
59.76,-0.17,-2.22,-0.18,-2.22,2.22,2.37,2.13,2.05,2.04,2.05
60.35,-0.15,-2.17,-0.15,-2.16,2.16,2.33,2.07,2.01,2.01,2.02
60.96,-0.12,-2.12,-0.13,-2.11,2.11,2.28,2.02,1.98,1.98,2.00
61.57,-0.10,-2.05,-0.10,-2.05,2.05,2.24,1.96,1.95,1.95,1.95
62.18,-0.07,-1.99,-0.08,-2.00,2.00,2.20,1.90,1.93,1.92,1.91
62.80,-0.06,-1.96,-0.06,-1.96,1.96,2.16,1.85,1.89,1.90,1.89
63.43,-0.04,-1.90,-0.04,-1.91,1.91,2.12,1.80,1.87,1.87,1.85
64.07,-0.02,-1.86,-0.02,-1.87,1.87,2.08,1.74,1.85,1.84,1.83
64.71,-0.01,-1.82,-0.01,-1.83,1.83,2.04,1.69,1.82,1.82,1.81
65.35,-0.00,-1.79,0.00,-1.80,1.80,2.00,1.65,1.79,1.80,1.79
66.01,0.01,-1.77,0.01,-1.77,1.77,1.96,1.60,1.77,1.78,1.77
66.67,0.02,-1.74,0.02,-1.74,1.74,1.92,1.55,1.76,1.76,1.76
67.33,0.03,-1.72,0.03,-1.72,1.72,1.89,1.51,1.74,1.74,1.74
68.01,0.04,-1.69,0.03,-1.70,1.70,1.85,1.46,1.73,1.73,1.73
68.69,0.05,-1.66,0.04,-1.68,1.68,1.82,1.42,1.72,1.71,1.71
69.37,0.05,-1.66,0.04,-1.66,1.66,1.78,1.38,1.71,1.70,1.70
70.07,0.05,-1.64,0.04,-1.65,1.65,1.75,1.34,1.69,1.68,1.68
70.77,0.04,-1.65,0.04,-1.63,1.63,1.71,1.30,1.67,1.67,1.68
71.48,0.04,-1.62,0.04,-1.62,1.62,1.68,1.26,1.65,1.65,1.66
72.19,0.03,-1.61,0.04,-1.60,1.60,1.65,1.22,1.63,1.64,1.64
72.91,0.03,-1.60,0.04,-1.58,1.58,1.62,1.18,1.61,1.62,1.63
73.64,0.03,-1.57,0.03,-1.57,1.57,1.59,1.14,1.59,1.60,1.60
74.38,0.03,-1.56,0.03,-1.55,1.55,1.56,1.11,1.58,1.58,1.59
75.12,0.03,-1.53,0.03,-1.53,1.53,1.53,1.07,1.56,1.56,1.56
75.87,0.03,-1.52,0.03,-1.51,1.51,1.50,1.04,1.54,1.54,1.54
76.63,0.03,-1.50,0.03,-1.49,1.49,1.47,1.00,1.52,1.52,1.53
77.40,0.03,-1.47,0.03,-1.47,1.47,1.44,0.97,1.50,1.50,1.50
78.17,0.03,-1.44,0.03,-1.46,1.46,1.41,0.94,1.48,1.48,1.47
78.95,0.03,-1.44,0.03,-1.44,1.44,1.38,0.90,1.46,1.46,1.47
79.74,0.03,-1.42,0.03,-1.42,1.42,1.36,0.87,1.44,1.44,1.44
80.54,0.03,-1.39,0.03,-1.40,1.40,1.33,0.84,1.43,1.43,1.42
81.35,0.03,-1.38,0.03,-1.39,1.39,1.30,0.81,1.41,1.41,1.41
82.16,0.03,-1.36,0.03,-1.37,1.37,1.28,0.78,1.40,1.40,1.39
82.98,0.03,-1.36,0.03,-1.36,1.36,1.25,0.75,1.39,1.39,1.39
83.81,0.03,-1.34,0.03,-1.35,1.35,1.23,0.72,1.38,1.38,1.37
84.65,0.03,-1.33,0.03,-1.34,1.34,1.20,0.69,1.36,1.36,1.35
85.50,0.03,-1.33,0.03,-1.33,1.33,1.18,0.66,1.35,1.35,1.35
86.35,0.03,-1.32,0.03,-1.31,1.31,1.16,0.63,1.34,1.34,1.35
87.22,0.03,-1.30,0.03,-1.30,1.30,1.13,0.60,1.33,1.33,1.33
88.09,0.03,-1.29,0.03,-1.29,1.29,1.11,0.57,1.31,1.31,1.32
88.97,0.03,-1.28,0.03,-1.27,1.27,1.09,0.54,1.29,1.29,1.30
89.86,0.03,-1.26,0.03,-1.25,1.25,1.07,0.51,1.27,1.27,1.28
90.76,0.03,-1.22,0.03,-1.22,1.22,1.05,0.49,1.25,1.25,1.25
91.66,0.03,-1.20,0.03,-1.19,1.19,1.03,0.46,1.22,1.22,1.23
92.58,0.03,-1.16,0.03,-1.16,1.16,1.00,0.43,1.19,1.19,1.18
93.51,0.03,-1.13,0.03,-1.12,1.12,0.98,0.40,1.15,1.15,1.16
94.44,0.03,-1.09,0.03,-1.08,1.08,0.96,0.38,1.10,1.10,1.11
95.39,0.03,-1.04,0.03,-1.03,1.03,0.94,0.35,1.05,1.06,1.07
96.34,0.03,-0.99,0.03,-0.97,0.97,0.93,0.32,1.00,1.00,1.01
97.30,0.03,-0.92,0.03,-0.92,0.92,0.91,0.29,0.94,0.95,0.95
98.28,0.03,-0.86,0.03,-0.85,0.85,0.89,0.27,0.88,0.89,0.89
99.26,0.03,-0.80,0.03,-0.79,0.79,0.87,0.24,0.82,0.82,0.82
100.25,0.03,-0.73,0.04,-0.72,0.72,0.85,0.22,0.75,0.76,0.76
101.25,0.04,-0.65,0.03,-0.66,0.66,0.83,0.19,0.69,0.69,0.69
102.27,0.04,-0.58,0.03,-0.59,0.59,0.82,0.16,0.63,0.62,0.62
103.29,0.04,-0.51,0.03,-0.52,0.52,0.80,0.14,0.56,0.55,0.54
104.32,0.04,-0.45,0.02,-0.46,0.46,0.78,0.11,0.50,0.48,0.49
105.37,0.03,-0.38,0.02,-0.40,0.40,0.77,0.09,0.42,0.41,0.41
106.42,0.02,-0.32,0.01,-0.34,0.34,0.75,0.07,0.35,0.34,0.34
107.48,0.01,-0.27,-0.00,-0.28,0.28,0.73,0.04,0.28,0.27,0.27
108.56,-0.01,-0.22,-0.01,-0.22,0.22,0.72,0.02,0.21,0.21,0.20
109.64,-0.03,-0.17,-0.03,-0.17,0.17,0.70,-0.00,0.13,0.14,0.14
110.74,-0.04,-0.12,-0.04,-0.12,0.12,0.69,-0.03,0.07,0.08,0.08
111.85,-0.07,-0.10,-0.06,-0.07,0.07,0.67,-0.05,-0.00,0.01,0.02
112.97,-0.08,-0.03,-0.07,-0.03,0.03,0.66,-0.07,-0.06,-0.05,-0.05
114.10,-0.09,0.01,-0.09,0.02,-0.02,0.65,-0.09,-0.11,-0.10,-0.10
115.24,-0.10,0.06,-0.11,0.05,-0.05,0.63,-0.11,-0.16,-0.16,-0.17
116.39,-0.11,0.11,-0.12,0.09,-0.09,0.62,-0.13,-0.20,-0.21,-0.22
117.55,-0.13,0.13,-0.14,0.13,-0.13,0.60,-0.14,-0.26,-0.26,-0.27
118.73,-0.14,0.18,-0.15,0.16,-0.16,0.59,-0.16,-0.30,-0.31,-0.32
119.92,-0.17,0.18,-0.16,0.19,-0.19,0.58,-0.18,-0.37,-0.36,-0.36
121.12,-0.18,0.22,-0.18,0.22,-0.22,0.56,-0.19,-0.41,-0.40,-0.40
122.33,-0.19,0.25,-0.19,0.25,-0.25,0.55,-0.21,-0.44,-0.44,-0.44
123.55,-0.20,0.27,-0.21,0.28,-0.28,0.54,-0.22,-0.48,-0.48,-0.48
124.79,-0.22,0.30,-0.22,0.30,-0.30,0.53,-0.23,-0.53,-0.52,-0.52
126.03,-0.23,0.32,-0.23,0.33,-0.33,0.52,-0.25,-0.56,-0.56,-0.55
127.29,-0.24,0.35,-0.25,0.35,-0.35,0.50,-0.26,-0.60,-0.60,-0.59
128.57,-0.25,0.39,-0.26,0.38,-0.38,0.49,-0.27,-0.63,-0.64,-0.64
129.85,-0.27,0.40,-0.27,0.40,-0.40,0.48,-0.27,-0.67,-0.67,-0.67
131.15,-0.29,0.42,-0.29,0.43,-0.43,0.47,-0.28,-0.72,-0.71,-0.71
132.46,-0.30,0.45,-0.30,0.45,-0.45,0.46,-0.29,-0.75,-0.75,-0.76
133.79,-0.32,0.46,-0.31,0.48,-0.48,0.45,-0.30,-0.80,-0.79,-0.78
135.12,-0.33,0.50,-0.33,0.50,-0.50,0.44,-0.30,-0.83,-0.83,-0.83
136.48,-0.34,0.52,-0.35,0.52,-0.52,0.43,-0.31,-0.87,-0.87,-0.86
137.84,-0.35,0.55,-0.36,0.55,-0.55,0.42,-0.31,-0.90,-0.91,-0.91
139.22,-0.36,0.60,-0.38,0.57,-0.57,0.40,-0.32,-0.93,-0.95,-0.96
140.61,-0.39,0.61,-0.40,0.59,-0.59,0.39,-0.32,-0.99,-0.99,-1.00
142.02,-0.43,0.60,-0.42,0.61,-0.61,0.38,-0.32,-1.05,-1.04,-1.03
143.44,-0.44,0.63,-0.44,0.64,-0.64,0.38,-0.32,-1.08,-1.08,-1.07
144.87,-0.48,0.64,-0.47,0.66,-0.66,0.37,-0.33,-1.14,-1.12,-1.12
146.32,-0.49,0.68,-0.49,0.68,-0.68,0.36,-0.33,-1.17,-1.17,-1.17
147.78,-0.52,0.69,-0.52,0.69,-0.69,0.35,-0.33,-1.22,-1.21,-1.21
149.26,-0.54,0.71,-0.55,0.71,-0.71,0.34,-0.33,-1.25,-1.26,-1.26
150.75,-0.57,0.74,-0.58,0.73,-0.73,0.33,-0.33,-1.30,-1.31,-1.31
152.26,-0.60,0.75,-0.61,0.74,-0.74,0.32,-0.34,-1.35,-1.36,-1.36
153.78,-0.63,0.77,-0.65,0.76,-0.76,0.31,-0.34,-1.39,-1.41,-1.40
155.32,-0.67,0.78,-0.68,0.78,-0.78,0.30,-0.34,-1.45,-1.45,-1.45
156.88,-0.71,0.78,-0.71,0.79,-0.79,0.29,-0.34,-1.51,-1.50,-1.49
158.44,-0.73,0.82,-0.74,0.81,-0.81,0.29,-0.34,-1.54,-1.55,-1.55
160.03,-0.79,0.81,-0.78,0.83,-0.83,0.28,-0.35,-1.62,-1.60,-1.60
161.63,-0.82,0.84,-0.81,0.84,-0.84,0.27,-0.35,-1.67,-1.65,-1.66
163.24,-0.85,0.86,-0.84,0.86,-0.86,0.26,-0.35,-1.72,-1.70,-1.71
164.88,-0.88,0.87,-0.87,0.88,-0.88,0.25,-0.36,-1.76,-1.75,-1.76
166.53,-0.90,0.90,-0.90,0.90,-0.90,0.25,-0.36,-1.80,-1.80,-1.80
168.19,-0.92,0.92,-0.93,0.92,-0.92,0.24,-0.36,-1.84,-1.85,-1.85
169.87,-0.96,0.93,-0.96,0.94,-0.94,0.23,-0.37,-1.90,-1.89,-1.89
171.57,-0.98,0.95,-0.98,0.95,-0.95,0.22,-0.37,-1.94,-1.94,-1.93
173.29,-1.00,0.97,-1.01,0.97,-0.97,0.22,-0.38,-1.97,-1.98,-1.98
175.02,-1.03,0.98,-1.04,0.98,-0.98,0.21,-0.38,-2.01,-2.02,-2.02
176.77,-1.05,1.00,-1.06,0.99,-0.99,0.20,-0.39,-2.04,-2.05,-2.06
178.54,-1.07,1.02,-1.09,1.00,-1.00,0.20,-0.40,-2.07,-2.09,-2.10
180.32,-1.09,1.03,-1.11,1.01,-1.01,0.19,-0.40,-2.10,-2.12,-2.12
182.13,-1.12,1.03,-1.14,1.01,-1.01,0.18,-0.41,-2.14,-2.15,-2.15
183.95,-1.16,1.02,-1.16,1.02,-1.02,0.18,-0.42,-2.18,-2.18,-2.18
185.79,-1.19,1.01,-1.18,1.02,-1.02,0.17,-0.42,-2.22,-2.20,-2.21
187.65,-1.21,1.02,-1.20,1.03,-1.03,0.16,-0.43,-2.24,-2.23,-2.23
189.52,-1.23,1.01,-1.21,1.04,-1.04,0.16,-0.44,-2.27,-2.25,-2.25
191.42,-1.24,1.03,-1.23,1.04,-1.04,0.15,-0.45,-2.28,-2.27,-2.27
193.33,-1.26,1.02,-1.24,1.05,-1.05,0.15,-0.46,-2.31,-2.29,-2.28
195.27,-1.27,1.02,-1.25,1.05,-1.05,0.14,-0.47,-2.32,-2.31,-2.29
197.22,-1.27,1.04,-1.27,1.05,-1.05,0.13,-0.48,-2.33,-2.32,-2.32
199.19,-1.27,1.07,-1.28,1.06,-1.06,0.13,-0.49,-2.33,-2.34,-2.35
201.18,-1.27,1.08,-1.30,1.06,-1.06,0.12,-0.50,-2.33,-2.35,-2.36
203.19,-1.28,1.08,-1.31,1.06,-1.06,0.12,-0.50,-2.34,-2.37,-2.37
205.23,-1.30,1.08,-1.33,1.05,-1.05,0.11,-0.51,-2.36,-2.39,-2.39
207.28,-1.33,1.06,-1.35,1.05,-1.05,0.11,-0.52,-2.38,-2.40,-2.39
209.35,-1.36,1.05,-1.38,1.04,-1.04,0.10,-0.53,-2.40,-2.42,-2.41
211.44,-1.39,1.05,-1.40,1.03,-1.03,0.10,-0.54,-2.42,-2.43,-2.44
213.56,-1.42,1.02,-1.43,1.02,-1.02,0.09,-0.55,-2.44,-2.45,-2.45
215.69,-1.46,0.99,-1.45,1.01,-1.01,0.09,-0.56,-2.47,-2.46,-2.45
217.85,-1.50,0.98,-1.48,1.00,-1.00,0.09,-0.57,-2.50,-2.48,-2.48
220.03,-1.52,0.97,-1.50,0.99,-0.99,0.08,-0.58,-2.51,-2.49,-2.49
222.23,-1.55,0.96,-1.53,0.98,-0.98,0.08,-0.59,-2.53,-2.51,-2.52
224.45,-1.57,0.95,-1.55,0.98,-0.98,0.07,-0.59,-2.55,-2.52,-2.52
226.70,-1.59,0.94,-1.56,0.98,-0.98,0.07,-0.60,-2.57,-2.54,-2.54
228.96,-1.59,0.96,-1.58,0.98,-0.98,0.07,-0.60,-2.57,-2.56,-2.55
231.25,-1.59,0.97,-1.59,0.98,-0.98,0.06,-0.61,-2.57,-2.58,-2.56
233.57,-1.59,0.99,-1.61,0.98,-0.98,0.06,-0.61,-2.58,-2.59,-2.58
235.90,-1.60,1.00,-1.62,0.99,-0.99,0.06,-0.61,-2.59,-2.61,-2.61
238.26,-1.61,1.01,-1.63,0.99,-0.99,0.06,-0.61,-2.60,-2.62,-2.63
240.64,-1.63,1.01,-1.65,0.99,-0.99,0.06,-0.61,-2.62,-2.64,-2.65
243.05,-1.65,1.00,-1.67,0.98,-0.98,0.05,-0.61,-2.64,-2.65,-2.66
245.48,-1.68,0.98,-1.69,0.97,-0.97,0.05,-0.61,-2.66,-2.66,-2.67
247.93,-1.72,0.95,-1.71,0.96,-0.96,0.05,-0.61,-2.68,-2.67,-2.68
250.41,-1.74,0.95,-1.74,0.94,-0.94,0.05,-0.60,-2.68,-2.68,-2.70
252.92,-1.77,0.91,-1.77,0.91,-0.91,0.05,-0.60,-2.68,-2.68,-2.69
255.45,-1.79,0.89,-1.81,0.88,-0.88,0.05,-0.59,-2.67,-2.68,-2.69
258.00,-1.83,0.85,-1.84,0.84,-0.84,0.05,-0.58,-2.68,-2.68,-2.68
260.58,-1.88,0.80,-1.87,0.80,-0.80,0.05,-0.57,-2.69,-2.68,-2.68
263.19,-1.92,0.75,-1.91,0.76,-0.76,0.05,-0.56,-2.68,-2.67,-2.67
265.82,-1.97,0.69,-1.95,0.71,-0.71,0.06,-0.54,-2.69,-2.66,-2.67
268.48,-1.99,0.65,-1.99,0.66,-0.66,0.06,-0.53,-2.66,-2.65,-2.64
271.16,-2.03,0.60,-2.03,0.61,-0.61,0.06,-0.51,-2.64,-2.64,-2.63
273.87,-2.07,0.55,-2.07,0.55,-0.55,0.07,-0.50,-2.63,-2.62,-2.62
276.61,-2.10,0.49,-2.11,0.50,-0.50,0.07,-0.48,-2.60,-2.61,-2.59
279.38,-2.14,0.45,-2.16,0.44,-0.44,0.08,-0.46,-2.58,-2.59,-2.59
282.17,-2.18,0.39,-2.21,0.37,-0.37,0.08,-0.44,-2.56,-2.58,-2.58
284.99,-2.23,0.33,-2.26,0.31,-0.31,0.09,-0.42,-2.54,-2.56,-2.56
287.84,-2.31,0.24,-2.31,0.24,-0.24,0.10,-0.40,-2.55,-2.55,-2.55
290.72,-2.36,0.16,-2.36,0.17,-0.17,0.11,-0.38,-2.53,-2.53,-2.52
293.63,-2.42,0.10,-2.42,0.10,-0.10,0.12,-0.36,-2.52,-2.51,-2.52
296.57,-2.48,0.01,-2.47,0.02,-0.02,0.14,-0.33,-2.50,-2.49,-2.49
299.53,-2.54,-0.06,-2.54,-0.06,0.06,0.15,-0.31,-2.48,-2.48,-2.48
302.53,-2.60,-0.13,-2.60,-0.14,0.14,0.17,-0.29,-2.46,-2.46,-2.47
305.55,-2.66,-0.22,-2.67,-0.23,0.23,0.19,-0.26,-2.44,-2.44,-2.44
308.61,-2.72,-0.30,-2.73,-0.32,0.32,0.21,-0.24,-2.41,-2.42,-2.42
311.69,-2.79,-0.40,-2.80,-0.41,0.41,0.23,-0.21,-2.39,-2.40,-2.40
314.81,-2.85,-0.49,-2.87,-0.49,0.49,0.26,-0.19,-2.36,-2.38,-2.36
317.96,-2.92,-0.58,-2.93,-0.58,0.58,0.29,-0.16,-2.34,-2.35,-2.34
321.14,-2.99,-0.66,-3.00,-0.67,0.67,0.32,-0.14,-2.33,-2.33,-2.33
324.35,-3.06,-0.75,-3.06,-0.75,0.75,0.36,-0.11,-2.31,-2.31,-2.31
327.59,-3.14,-0.86,-3.13,-0.84,0.84,0.40,-0.08,-2.30,-2.29,-2.29
330.87,-3.20,-0.93,-3.19,-0.92,0.92,0.44,-0.06,-2.28,-2.26,-2.27
334.18,-3.26,-1.02,-3.24,-1.00,1.00,0.49,-0.03,-2.26,-2.24,-2.24
337.52,-3.32,-1.10,-3.30,-1.08,1.08,0.55,-0.00,-2.24,-2.22,-2.22
340.90,-3.36,-1.17,-3.35,-1.16,1.16,0.61,0.02,-2.21,-2.20,-2.20
344.30,-3.40,-1.23,-3.40,-1.23,1.23,0.68,0.05,-2.17,-2.17,-2.17
347.75,-3.44,-1.29,-3.45,-1.30,1.30,0.76,0.08,-2.14,-2.15,-2.15
351.23,-3.49,-1.37,-3.50,-1.37,1.37,0.84,0.11,-2.12,-2.13,-2.13
354.74,-3.53,-1.43,-3.54,-1.44,1.44,0.94,0.13,-2.09,-2.10,-2.10
358.28,-3.56,-1.48,-3.59,-1.51,1.51,1.04,0.16,-2.06,-2.08,-2.08
361.87,-3.60,-1.55,-3.62,-1.57,1.57,1.15,0.19,-2.03,-2.05,-2.05
365.49,-3.64,-1.62,-3.66,-1.63,1.63,1.26,0.22,-2.01,-2.03,-2.03
369.14,-3.69,-1.68,-3.70,-1.69,1.69,1.39,0.25,-2.00,-2.01,-2.02
372.83,-3.73,-1.74,-3.73,-1.74,1.74,1.52,0.27,-1.99,-1.99,-1.99
376.56,-3.76,-1.79,-3.75,-1.79,1.79,1.65,0.30,-1.97,-1.96,-1.97
380.33,-3.78,-1.85,-3.78,-1.83,1.83,1.78,0.33,-1.95,-1.94,-1.93
384.13,-3.80,-1.88,-3.79,-1.87,1.87,1.90,0.36,-1.94,-1.93,-1.93
387.97,-3.81,-1.91,-3.80,-1.89,1.89,2.02,0.39,-1.92,-1.91,-1.91
391.85,-3.81,-1.91,-3.81,-1.91,1.91,2.11,0.41,-1.90,-1.89,-1.90
395.77,-3.81,-1.94,-3.80,-1.92,1.92,2.18,0.44,-1.89,-1.88,-1.87
399.73,-3.80,-1.94,-3.79,-1.92,1.92,2.23,0.47,-1.88,-1.87,-1.86
403.72,-3.79,-1.93,-3.77,-1.91,1.91,2.23,0.50,-1.89,-1.86,-1.86
407.76,-3.75,-1.90,-3.74,-1.89,1.89,2.21,0.52,-1.87,-1.86,-1.85
411.84,-3.70,-1.86,-3.71,-1.86,1.86,2.15,0.55,-1.85,-1.85,-1.85
415.96,-3.66,-1.82,-3.67,-1.82,1.82,2.06,0.58,-1.85,-1.85,-1.85
420.12,-3.60,-1.75,-3.62,-1.77,1.77,1.95,0.60,-1.83,-1.85,-1.85
424.32,-3.55,-1.70,-3.57,-1.72,1.72,1.81,0.62,-1.84,-1.85,-1.85
428.56,-3.50,-1.65,-3.51,-1.66,1.66,1.67,0.65,-1.85,-1.85,-1.85
432.85,-3.44,-1.58,-3.45,-1.59,1.59,1.51,0.67,-1.86,-1.86,-1.86
437.18,-3.36,-1.50,-3.37,-1.51,1.51,1.36,0.69,-1.85,-1.86,-1.86
441.55,-3.30,-1.44,-3.29,-1.43,1.43,1.21,0.71,-1.88,-1.87,-1.86
445.96,-3.22,-1.35,-3.21,-1.34,1.34,1.06,0.73,-1.88,-1.87,-1.88
450.42,-3.14,-1.27,-3.12,-1.25,1.25,0.92,0.74,-1.90,-1.87,-1.88
454.93,-3.05,-1.18,-3.03,-1.15,1.15,0.79,0.76,-1.90,-1.88,-1.88
459.48,-2.93,-1.04,-2.93,-1.05,1.05,0.66,0.77,-1.88,-1.88,-1.89
464.07,-2.84,-0.96,-2.82,-0.94,0.94,0.55,0.78,-1.90,-1.88,-1.88
468.71,-2.72,-0.84,-2.72,-0.84,0.84,0.44,0.79,-1.89,-1.88,-1.88
473.40,-2.59,-0.71,-2.61,-0.73,0.73,0.34,0.79,-1.86,-1.88,-1.88
478.13,-2.47,-0.60,-2.50,-0.62,0.62,0.25,0.79,-1.86,-1.88,-1.87
482.91,-2.36,-0.48,-2.38,-0.51,0.51,0.16,0.79,-1.86,-1.88,-1.88
