frequency,raw,error,smoothed,error_smoothed,equalization,parametric_eq,fixed_band_eq,equalized_raw,equalized_smoothed,target
20.00,-3.06,-7.87,-3.05,-7.88,7.88,6.75,2.70,4.82,4.83,4.81
20.20,-3.01,-7.82,-3.00,-7.83,7.83,6.85,2.78,4.82,4.83,4.81
20.40,-2.97,-7.78,-2.96,-7.78,7.78,6.93,2.86,4.80,4.82,4.81
20.61,-2.91,-7.72,-2.91,-7.72,7.72,7.02,2.94,4.81,4.81,4.81
20.81,-2.86,-7.67,-2.87,-7.67,7.67,7.10,3.02,4.81,4.80,4.81
21.02,-2.82,-7.63,-2.83,-7.62,7.62,7.17,3.11,4.80,4.79,4.81
21.23,-2.77,-7.56,-2.79,-7.56,7.56,7.24,3.20,4.79,4.77,4.79
21.44,-2.74,-7.52,-2.75,-7.51,7.51,7.30,3.29,4.77,4.76,4.78
21.66,-2.71,-7.47,-2.72,-7.46,7.46,7.36,3.39,4.75,4.75,4.76
21.87,-2.68,-7.42,-2.68,-7.41,7.41,7.41,3.48,4.73,4.73,4.74
22.09,-2.64,-7.37,-2.65,-7.36,7.36,7.45,3.59,4.72,4.71,4.73
22.31,-2.62,-7.32,-2.62,-7.31,7.31,7.49,3.69,4.69,4.70,4.70
22.54,-2.59,-7.27,-2.59,-7.26,7.26,7.52,3.79,4.67,4.68,4.68
22.76,-2.56,-7.21,-2.56,-7.21,7.21,7.54,3.90,4.65,4.65,4.65
22.99,-2.54,-7.16,-2.54,-7.17,7.17,7.55,4.01,4.62,4.63,4.62
23.22,-2.51,-7.10,-2.51,-7.12,7.12,7.56,4.13,4.61,4.61,4.59
23.45,-2.48,-7.05,-2.49,-7.07,7.07,7.56,4.25,4.59,4.59,4.57
23.69,-2.46,-7.02,-2.46,-7.03,7.03,7.55,4.36,4.57,4.56,4.56
23.92,-2.43,-6.97,-2.44,-6.98,6.98,7.53,4.49,4.55,4.54,4.54
24.16,-2.41,-6.94,-2.41,-6.94,6.94,7.50,4.61,4.53,4.52,4.53
24.40,-2.39,-6.90,-2.39,-6.89,6.89,7.47,4.74,4.50,4.50,4.51
24.65,-2.37,-6.86,-2.36,-6.85,6.85,7.43,4.86,4.48,4.49,4.49
24.89,-2.34,-6.81,-2.34,-6.80,6.80,7.38,4.99,4.46,4.47,4.47
25.14,-2.31,-6.77,-2.31,-6.76,6.76,7.33,5.12,4.45,4.45,4.46
25.39,-2.28,-6.72,-2.28,-6.71,6.71,7.26,5.26,4.43,4.43,4.43
25.65,-2.25,-6.67,-2.24,-6.66,6.66,7.20,5.39,4.41,4.42,4.42
25.91,-2.22,-6.61,-2.21,-6.61,6.61,7.12,5.52,4.39,4.40,4.39
26.16,-2.18,-6.56,-2.17,-6.56,6.56,7.05,5.66,4.38,4.39,4.38
26.43,-2.14,-6.51,-2.13,-6.50,6.50,6.96,5.79,4.36,4.37,4.37
26.69,-2.10,-6.45,-2.09,-6.45,6.45,6.87,5.92,4.35,4.35,4.35
26.96,-2.06,-6.40,-2.05,-6.39,6.39,6.78,6.05,4.33,4.34,4.34
27.23,-2.01,-6.34,-2.01,-6.34,6.34,6.69,6.17,4.32,4.32,4.33
27.50,-1.97,-6.29,-1.98,-6.28,6.28,6.59,6.30,4.31,4.31,4.31
27.77,-1.93,-6.22,-1.94,-6.23,6.23,6.49,6.42,4.30,4.29,4.29
28.05,-1.88,-6.16,-1.91,-6.19,6.19,6.39,6.53,4.30,4.28,4.28
28.33,-1.85,-6.11,-1.87,-6.14,6.14,6.28,6.64,4.29,4.27,4.26
28.62,-1.82,-6.07,-1.84,-6.09,6.09,6.17,6.74,4.27,4.25,4.25
28.90,-1.80,-6.04,-1.81,-6.05,6.05,6.07,6.83,4.25,4.24,4.24
29.19,-1.78,-6.00,-1.78,-6.01,6.01,5.96,6.92,4.23,4.23,4.21
29.48,-1.75,-5.96,-1.75,-5.96,5.96,5.85,6.99,4.21,4.21,4.21
29.78,-1.73,-5.93,-1.73,-5.92,5.92,5.74,7.05,4.19,4.20,4.20
30.08,-1.71,-5.90,-1.70,-5.88,5.88,5.63,7.11,4.17,4.18,4.19
30.38,-1.69,-5.86,-1.67,-5.83,5.83,5.52,7.15,4.14,4.17,4.17
30.68,-1.65,-5.81,-1.64,-5.79,5.79,5.41,7.18,4.13,4.15,4.15
30.99,-1.61,-5.74,-1.60,-5.74,5.74,5.30,7.19,4.13,4.13,4.13
31.30,-1.57,-5.69,-1.57,-5.68,5.68,5.19,7.20,4.11,4.12,4.12
31.61,-1.52,-5.63,-1.53,-5.63,5.63,5.08,7.19,4.11,4.10,4.11
31.93,-1.48,-5.57,-1.49,-5.57,5.57,4.97,7.16,4.09,4.08,4.09
32.24,-1.44,-5.49,-1.44,-5.50,5.50,4.87,7.13,4.06,4.06,4.05
32.57,-1.39,-5.43,-1.40,-5.44,5.44,4.76,7.08,4.05,4.04,4.04
32.89,-1.34,-5.37,-1.35,-5.37,5.37,4.66,7.02,4.03,4.02,4.03
33.22,-1.29,-5.28,-1.30,-5.30,5.30,4.56,6.95,4.01,4.00,3.99
33.55,-1.25,-5.23,-1.24,-5.22,5.22,4.46,6.87,3.97,3.98,3.98
33.89,-1.19,-5.15,-1.19,-5.15,5.15,4.36,6.78,3.96,3.96,3.96
34.23,-1.14,-5.08,-1.14,-5.07,5.07,4.26,6.68,3.93,3.94,3.93
34.57,-1.08,-4.99,-1.08,-4.99,4.99,4.16,6.57,3.91,3.91,3.91
34.92,-1.02,-4.91,-1.02,-4.91,4.91,4.07,6.46,3.89,3.89,3.89
35.27,-0.96,-4.83,-0.96,-4.83,4.83,3.98,6.34,3.87,3.87,3.87
35.62,-0.90,-4.75,-0.89,-4.74,4.74,3.88,6.22,3.84,3.85,3.85
35.97,-0.84,-4.66,-0.83,-4.66,4.66,3.79,6.09,3.82,3.83,3.82
36.33,-0.76,-4.57,-0.76,-4.57,4.57,3.71,5.96,3.81,3.81,3.81
36.70,-0.70,-4.49,-0.70,-4.48,4.48,3.62,5.83,3.78,3.78,3.79
37.06,-0.63,-4.39,-0.63,-4.39,4.39,3.53,5.70,3.76,3.76,3.76
37.43,-0.56,-4.31,-0.56,-4.30,4.30,3.45,5.56,3.74,3.74,3.75
37.81,-0.49,-4.21,-0.49,-4.21,4.21,3.37,5.43,3.72,3.72,3.72
38.19,-0.42,-4.12,-0.43,-4.13,4.13,3.29,5.29,3.70,3.70,3.70
38.57,-0.36,-4.04,-0.36,-4.04,4.04,3.21,5.15,3.68,3.68,3.68
38.95,-0.29,-3.95,-0.30,-3.95,3.95,3.13,5.02,3.66,3.66,3.66
39.34,-0.23,-3.86,-0.24,-3.87,3.87,3.06,4.89,3.64,3.64,3.63
39.74,-0.17,-3.78,-0.18,-3.79,3.79,2.98,4.76,3.62,3.62,3.60
40.14,-0.11,-3.71,-0.12,-3.71,3.71,2.91,4.63,3.60,3.60,3.60
40.54,-0.06,-3.63,-0.06,-3.64,3.64,2.84,4.50,3.58,3.58,3.57
40.94,-0.01,-3.57,-0.01,-3.57,3.57,2.77,4.37,3.56,3.56,3.55
41.35,0.04,-3.49,0.04,-3.49,3.49,2.70,4.25,3.53,3.54,3.53
41.76,0.09,-3.43,0.09,-3.42,3.42,2.64,4.13,3.51,3.51,3.52
42.18,0.14,-3.36,0.14,-3.36,3.36,2.57,4.01,3.49,3.49,3.50
42.60,0.18,-3.30,0.19,-3.29,3.29,2.51,3.89,3.47,3.47,3.47
43.03,0.23,-3.24,0.23,-3.22,3.22,2.44,3.78,3.45,3.45,3.47
43.46,0.27,-3.17,0.28,-3.16,3.16,2.38,3.67,3.43,3.43,3.44
43.90,0.32,-3.09,0.32,-3.09,3.09,2.32,3.56,3.41,3.41,3.41
44.33,0.37,-3.02,0.36,-3.03,3.03,2.26,3.46,3.40,3.39,3.39
44.78,0.40,-2.97,0.40,-2.97,2.97,2.21,3.35,3.37,3.37,3.37
45.23,0.45,-2.89,0.44,-2.91,2.91,2.15,3.25,3.36,3.35,3.34
45.68,0.48,-2.84,0.48,-2.85,2.85,2.09,3.16,3.33,3.33,3.32
46.13,0.53,-2.77,0.52,-2.79,2.79,2.04,3.06,3.32,3.31,3.30
46.60,0.56,-2.73,0.56,-2.73,2.73,1.99,2.97,3.28,3.29,3.29
47.06,0.60,-2.67,0.60,-2.67,2.67,1.93,2.88,3.27,3.26,3.27
47.53,0.63,-2.62,0.63,-2.61,2.61,1.88,2.79,3.24,3.24,3.25
48.01,0.67,-2.57,0.67,-2.55,2.55,1.83,2.71,3.22,3.22,3.24
48.49,0.70,-2.50,0.70,-2.50,2.50,1.78,2.63,3.19,3.19,3.20
48.97,0.73,-2.44,0.73,-2.44,2.44,1.74,2.55,3.17,3.17,3.17
49.46,0.76,-2.38,0.76,-2.39,2.39,1.69,2.47,3.15,3.15,3.14
49.96,0.79,-2.31,0.79,-2.33,2.33,1.64,2.39,3.12,3.12,3.10
50.46,0.82,-2.28,0.82,-2.28,2.28,1.60,2.32,3.10,3.10,3.10
50.96,0.85,-2.22,0.85,-2.22,2.22,1.55,2.25,3.07,3.07,3.07
51.47,0.88,-2.16,0.87,-2.17,2.17,1.51,2.17,3.05,3.04,3.04
51.99,0.90,-2.11,0.90,-2.11,2.11,1.47,2.11,3.01,3.02,3.01
52.51,0.93,-2.07,0.93,-2.06,2.06,1.42,2.04,2.99,2.99,3.00
53.03,0.95,-2.02,0.95,-2.01,2.01,1.38,1.97,2.96,2.96,2.97
53.56,0.98,-1.96,0.98,-1.96,1.96,1.34,1.91,2.93,2.94,2.94
54.10,1.01,-1.90,1.01,-1.90,1.90,1.30,1.85,2.91,2.91,2.91
54.64,1.03,-1.85,1.03,-1.85,1.85,1.26,1.79,2.88,2.88,2.88
55.18,1.06,-1.79,1.06,-1.80,1.80,1.22,1.73,2.86,2.86,2.85
55.74,1.08,-1.75,1.08,-1.75,1.75,1.19,1.67,2.83,2.83,2.82
56.29,1.10,-1.70,1.10,-1.70,1.70,1.15,1.61,2.80,2.80,2.80
56.86,1.13,-1.64,1.13,-1.65,1.65,1.11,1.56,2.78,2.77,2.77
57.42,1.15,-1.59,1.15,-1.60,1.60,1.07,1.50,2.75,2.75,2.74
58.00,1.17,-1.55,1.17,-1.55,1.55,1.04,1.45,2.71,2.72,2.72
58.58,1.19,-1.49,1.19,-1.49,1.49,1.00,1.40,2.68,2.69,2.68
59.16,1.22,-1.44,1.21,-1.44,1.44,0.97,1.34,2.66,2.66,2.66
59.76,1.23,-1.40,1.23,-1.39,1.39,0.93,1.29,2.62,2.62,2.63
60.35,1.25,-1.35,1.25,-1.35,1.35,0.90,1.24,2.60,2.59,2.60
60.96,1.26,-1.32,1.27,-1.30,1.30,0.87,1.19,2.56,2.56,2.58
61.57,1.28,-1.25,1.28,-1.25,1.25,0.83,1.14,2.53,2.53,2.53
62.18,1.30,-1.20,1.30,-1.20,1.20,0.80,1.09,2.50,2.50,2.49
62.80,1.32,-1.15,1.31,-1.16,1.16,0.77,1.04,2.48,2.47,2.47
63.43,1.33,-1.10,1.33,-1.11,1.11,0.74,1.00,2.44,2.44,2.43
64.07,1.33,-1.07,1.34,-1.07,1.07,0.71,0.95,2.40,2.41,2.39
64.71,1.35,-1.02,1.35,-1.03,1.03,0.67,0.90,2.37,2.37,2.37
65.35,1.36,-0.98,1.36,-0.98,0.98,0.64,0.85,2.34,2.34,2.34
66.01,1.37,-0.95,1.37,-0.94,0.94,0.61,0.81,2.31,2.31,2.32
66.67,1.38,-0.90,1.38,-0.90,0.90,0.58,0.76,2.28,2.28,2.28
67.33,1.39,-0.87,1.38,-0.87,0.87,0.55,0.71,2.26,2.25,2.26
68.01,1.39,-0.83,1.39,-0.83,0.83,0.52,0.67,2.22,2.22,2.22
68.69,1.40,-0.79,1.40,-0.79,0.79,0.49,0.62,2.19,2.19,2.19
69.37,1.40,-0.76,1.40,-0.76,0.76,0.46,0.57,2.16,2.16,2.15
70.07,1.40,-0.73,1.40,-0.72,0.72,0.43,0.53,2.12,2.12,2.12
70.77,1.41,-0.69,1.41,-0.68,0.68,0.40,0.48,2.09,2.09,2.09
71.48,1.41,-0.64,1.41,-0.64,0.64,0.37,0.43,2.05,2.05,2.05
72.19,1.41,-0.61,1.41,-0.61,0.61,0.34,0.39,2.01,2.01,2.02
72.91,1.41,-0.57,1.41,-0.57,0.57,0.31,0.34,1.98,1.98,1.98
73.64,1.41,-0.52,1.41,-0.53,0.53,0.29,0.30,1.94,1.94,1.93
74.38,1.40,-0.50,1.41,-0.49,0.49,0.26,0.25,1.89,1.89,1.90
75.12,1.41,-0.43,1.40,-0.45,0.45,0.23,0.20,1.86,1.85,1.84
75.87,1.40,-0.41,1.40,-0.41,0.41,0.20,0.15,1.81,1.81,1.81
76.63,1.40,-0.37,1.40,-0.36,0.36,0.17,0.11,1.76,1.76,1.77
77.40,1.39,-0.33,1.40,-0.32,0.32,0.14,0.06,1.71,1.72,1.72
78.17,1.39,-0.27,1.39,-0.28,0.28,0.11,0.01,1.67,1.67,1.66
78.95,1.39,-0.24,1.38,-0.24,0.24,0.08,-0.04,1.63,1.62,1.63
79.74,1.38,-0.20,1.38,-0.19,0.19,0.05,-0.08,1.57,1.57,1.58
80.54,1.37,-0.15,1.37,-0.15,0.15,0.02,-0.13,1.52,1.52,1.52
81.35,1.37,-0.10,1.36,-0.11,0.11,-0.01,-0.18,1.47,1.47,1.47
82.16,1.36,-0.06,1.35,-0.06,0.06,-0.04,-0.23,1.42,1.42,1.41
82.98,1.35,-0.02,1.35,-0.02,0.02,-0.07,-0.28,1.37,1.36,1.37
83.81,1.34,0.04,1.34,0.03,-0.03,-0.10,-0.33,1.31,1.31,1.30
84.65,1.32,0.07,1.33,0.07,-0.07,-0.13,-0.38,1.24,1.25,1.24
85.50,1.31,0.11,1.31,0.12,-0.12,-0.16,-0.43,1.19,1.19,1.20
86.35,1.30,0.16,1.30,0.17,-0.17,-0.19,-0.49,1.13,1.14,1.14
87.22,1.29,0.21,1.29,0.21,-0.21,-0.22,-0.54,1.08,1.08,1.08
88.09,1.28,0.26,1.28,0.26,-0.26,-0.26,-0.59,1.02,1.02,1.02
88.97,1.27,0.30,1.27,0.31,-0.31,-0.29,-0.64,0.96,0.96,0.97
89.86,1.26,0.35,1.26,0.35,-0.35,-0.32,-0.70,0.91,0.90,0.90
90.76,1.24,0.41,1.24,0.40,-0.40,-0.35,-0.75,0.84,0.84,0.83
91.66,1.23,0.45,1.23,0.45,-0.45,-0.39,-0.81,0.78,0.78,0.78
92.58,1.22,0.51,1.22,0.50,-0.50,-0.42,-0.87,0.72,0.72,0.71
93.51,1.20,0.54,1.21,0.55,-0.55,-0.46,-0.92,0.65,0.65,0.66
94.44,1.20,0.60,1.19,0.60,-0.60,-0.49,-0.98,0.59,0.59,0.60
95.39,1.18,0.65,1.18,0.66,-0.66,-0.53,-1.04,0.52,0.52,0.53
96.34,1.17,0.71,1.17,0.71,-0.71,-0.56,-1.09,0.46,0.46,0.45
97.30,1.15,0.76,1.15,0.76,-0.76,-0.60,-1.15,0.38,0.39,0.39
98.28,1.14,0.82,1.14,0.82,-0.82,-0.64,-1.21,0.32,0.32,0.32
99.26,1.12,0.87,1.12,0.87,-0.87,-0.67,-1.27,0.24,0.25,0.25
100.25,1.11,0.93,1.11,0.93,-0.93,-0.71,-1.33,0.18,0.18,0.18
101.25,1.10,0.99,1.10,0.99,-0.99,-0.75,-1.39,0.11,0.11,0.11
102.27,1.08,1.05,1.08,1.04,-1.04,-0.79,-1.45,0.04,0.04,0.03
103.29,1.07,1.11,1.06,1.10,-1.10,-0.83,-1.51,-0.03,-0.04,-0.04
104.32,1.05,1.16,1.05,1.16,-1.16,-0.87,-1.56,-0.11,-0.11,-0.11
105.37,1.04,1.22,1.03,1.22,-1.22,-0.92,-1.62,-0.18,-0.19,-0.18
106.42,1.01,1.27,1.02,1.28,-1.28,-0.96,-1.68,-0.27,-0.26,-0.26
107.48,1.00,1.33,1.00,1.34,-1.34,-1.00,-1.74,-0.34,-0.34,-0.34
108.56,0.98,1.39,0.98,1.40,-1.40,-1.05,-1.79,-0.42,-0.41,-0.41
109.64,0.97,1.46,0.97,1.46,-1.46,-1.09,-1.84,-0.49,-0.49,-0.49
110.74,0.95,1.51,0.95,1.52,-1.52,-1.14,-1.90,-0.57,-0.57,-0.56
111.85,0.93,1.56,0.93,1.58,-1.58,-1.19,-1.95,-0.65,-0.65,-0.63
112.97,0.91,1.64,0.91,1.63,-1.63,-1.23,-1.99,-0.72,-0.72,-0.73
114.10,0.89,1.69,0.89,1.69,-1.69,-1.28,-2.04,-0.80,-0.80,-0.80
115.24,0.87,1.74,0.87,1.74,-1.74,-1.33,-2.08,-0.88,-0.88,-0.87
116.39,0.85,1.81,0.85,1.80,-1.80,-1.38,-2.12,-0.95,-0.95,-0.96
117.55,0.83,1.86,0.82,1.85,-1.85,-1.43,-2.16,-1.02,-1.03,-1.04
118.73,0.80,1.91,0.80,1.90,-1.90,-1.49,-2.20,-1.10,-1.10,-1.11
119.92,0.78,1.95,0.77,1.95,-1.95,-1.54,-2.23,-1.17,-1.18,-1.18
121.12,0.75,2.00,0.74,1.99,-1.99,-1.59,-2.26,-1.24,-1.25,-1.25
122.33,0.72,2.04,0.72,2.04,-2.04,-1.65,-2.28,-1.32,-1.32,-1.32
123.55,0.69,2.07,0.69,2.08,-2.08,-1.70,-2.30,-1.39,-1.39,-1.39
124.79,0.66,2.12,0.66,2.12,-2.12,-1.76,-2.32,-1.46,-1.46,-1.46
126.03,0.63,2.15,0.63,2.16,-2.16,-1.81,-2.33,-1.53,-1.53,-1.52
127.29,0.60,2.19,0.60,2.20,-2.20,-1.87,-2.34,-1.60,-1.60,-1.59
128.57,0.57,2.24,0.58,2.24,-2.24,-1.92,-2.35,-1.67,-1.66,-1.67
129.85,0.55,2.28,0.55,2.27,-2.27,-1.98,-2.35,-1.73,-1.72,-1.73
131.15,0.52,2.31,0.52,2.31,-2.31,-2.04,-2.35,-1.79,-1.79,-1.79
132.46,0.50,2.35,0.50,2.34,-2.34,-2.09,-2.35,-1.84,-1.85,-1.85
133.79,0.47,2.37,0.47,2.38,-2.38,-2.15,-2.34,-1.91,-1.90,-1.90
135.12,0.45,2.42,0.45,2.41,-2.41,-2.21,-2.34,-1.96,-1.96,-1.97
136.48,0.42,2.43,0.42,2.44,-2.44,-2.26,-2.32,-2.02,-2.01,-2.01
137.84,0.40,2.45,0.40,2.46,-2.46,-2.32,-2.31,-2.06,-2.06,-2.06
139.22,0.38,2.50,0.37,2.48,-2.48,-2.37,-2.29,-2.10,-2.11,-2.12
140.61,0.35,2.52,0.35,2.50,-2.50,-2.42,-2.28,-2.15,-2.15,-2.17
142.02,0.33,2.52,0.32,2.52,-2.52,-2.47,-2.26,-2.19,-2.20,-2.19
143.44,0.30,2.53,0.30,2.53,-2.53,-2.52,-2.24,-2.23,-2.24,-2.23
144.87,0.27,2.55,0.27,2.55,-2.55,-2.57,-2.22,-2.28,-2.28,-2.28
146.32,0.25,2.57,0.24,2.56,-2.56,-2.62,-2.19,-2.31,-2.32,-2.32
147.78,0.21,2.56,0.21,2.56,-2.56,-2.66,-2.17,-2.35,-2.35,-2.35
149.26,0.18,2.56,0.18,2.57,-2.57,-2.70,-2.15,-2.39,-2.39,-2.38
150.75,0.14,2.57,0.14,2.57,-2.57,-2.74,-2.12,-2.43,-2.43,-2.43
152.26,0.11,2.57,0.11,2.57,-2.57,-2.78,-2.10,-2.46,-2.46,-2.46
153.78,0.08,2.58,0.08,2.57,-2.57,-2.81,-2.08,-2.50,-2.50,-2.50
155.32,0.05,2.58,0.04,2.57,-2.57,-2.84,-2.06,-2.53,-2.53,-2.53
156.88,0.01,2.57,0.01,2.58,-2.58,-2.86,-2.03,-2.57,-2.57,-2.56
158.44,-0.03,2.57,-0.02,2.58,-2.58,-2.89,-2.01,-2.61,-2.60,-2.60
160.03,-0.06,2.58,-0.06,2.58,-2.58,-2.90,-1.99,-2.64,-2.64,-2.64
161.63,-0.10,2.58,-0.09,2.58,-2.58,-2.92,-1.97,-2.68,-2.67,-2.68
163.24,-0.13,2.58,-0.12,2.58,-2.58,-2.93,-1.96,-2.71,-2.70,-2.71
164.88,-0.15,2.58,-0.15,2.59,-2.59,-2.93,-1.94,-2.74,-2.74,-2.73
166.53,-0.19,2.58,-0.19,2.59,-2.59,-2.94,-1.92,-2.78,-2.78,-2.77
168.19,-0.22,2.59,-0.22,2.59,-2.59,-2.93,-1.91,-2.81,-2.81,-2.81
169.87,-0.25,2.60,-0.25,2.60,-2.60,-2.93,-1.90,-2.85,-2.85,-2.85
171.57,-0.28,2.60,-0.29,2.60,-2.60,-2.92,-1.89,-2.88,-2.89,-2.88
173.29,-0.32,2.59,-0.32,2.61,-2.61,-2.90,-1.88,-2.93,-2.93,-2.91
175.02,-0.35,2.60,-0.35,2.61,-2.61,-2.88,-1.87,-2.96,-2.96,-2.95
176.77,-0.39,2.61,-0.39,2.61,-2.61,-2.86,-1.86,-3.01,-3.00,-3.00
178.54,-0.42,2.62,-0.43,2.62,-2.62,-2.83,-1.86,-3.04,-3.04,-3.04
180.32,-0.46,2.62,-0.47,2.62,-2.62,-2.80,-1.86,-3.08,-3.08,-3.08
182.13,-0.51,2.61,-0.51,2.62,-2.62,-2.77,-1.85,-3.13,-3.12,-3.12
183.95,-0.55,2.62,-0.55,2.61,-2.61,-2.74,-1.85,-3.17,-3.16,-3.17
185.79,-0.59,2.61,-0.59,2.61,-2.61,-2.70,-1.85,-3.20,-3.20,-3.20
187.65,-0.64,2.61,-0.64,2.60,-2.60,-2.66,-1.86,-3.24,-3.24,-3.25
189.52,-0.69,2.59,-0.69,2.59,-2.59,-2.61,-1.86,-3.28,-3.28,-3.28
191.42,-0.73,2.59,-0.74,2.57,-2.57,-2.57,-1.87,-3.31,-3.31,-3.32
193.33,-0.79,2.55,-0.79,2.56,-2.56,-2.52,-1.87,-3.35,-3.35,-3.34
195.27,-0.84,2.53,-0.85,2.53,-2.53,-2.47,-1.88,-3.38,-3.38,-3.37
197.22,-0.91,2.49,-0.91,2.51,-2.51,-2.42,-1.89,-3.42,-3.41,-3.40
199.19,-0.96,2.49,-0.97,2.47,-2.47,-2.37,-1.90,-3.43,-3.44,-3.46
201.18,-1.02,2.45,-1.04,2.44,-2.44,-2.32,-1.91,-3.46,-3.47,-3.48
203.19,-1.10,2.39,-1.11,2.39,-2.39,-2.26,-1.92,-3.49,-3.50,-3.50
205.23,-1.17,2.35,-1.18,2.34,-2.34,-2.21,-1.93,-3.51,-3.52,-3.52
207.28,-1.24,2.29,-1.26,2.29,-2.29,-2.15,-1.94,-3.53,-3.55,-3.53
209.35,-1.32,2.25,-1.34,2.23,-2.23,-2.10,-1.95,-3.55,-3.57,-3.57
211.44,-1.39,2.21,-1.42,2.17,-2.17,-2.04,-1.97,-3.56,-3.59,-3.60
213.56,-1.48,2.13,-1.50,2.11,-2.11,-1.99,-1.98,-3.59,-3.61,-3.61
215.69,-1.57,2.05,-1.58,2.05,-2.05,-1.93,-1.99,-3.62,-3.63,-3.62
217.85,-1.66,1.98,-1.65,1.99,-1.99,-1.88,-2.00,-3.65,-3.64,-3.64
220.03,-1.73,1.93,-1.72,1.93,-1.93,-1.83,-2.01,-3.66,-3.65,-3.66
222.23,-1.80,1.87,-1.78,1.88,-1.88,-1.77,-2.02,-3.68,-3.66,-3.68
224.45,-1.87,1.80,-1.84,1.84,-1.84,-1.72,-2.02,-3.71,-3.67,-3.67
226.70,-1.92,1.76,-1.88,1.80,-1.80,-1.67,-2.03,-3.72,-3.68,-3.68
228.96,-1.95,1.74,-1.91,1.77,-1.77,-1.62,-2.03,-3.72,-3.68,-3.69
231.25,-1.97,1.71,-1.93,1.75,-1.75,-1.57,-2.03,-3.72,-3.68,-3.68
233.57,-1.98,1.69,-1.94,1.73,-1.73,-1.51,-2.03,-3.71,-3.68,-3.67
235.90,-1.97,1.70,-1.95,1.72,-1.72,-1.47,-2.03,-3.69,-3.67,-3.67
238.26,-1.95,1.72,-1.95,1.72,-1.72,-1.42,-2.02,-3.67,-3.66,-3.67
240.64,-1.93,1.72,-1.94,1.72,-1.72,-1.37,-2.02,-3.65,-3.66,-3.66
243.05,-1.90,1.74,-1.93,1.72,-1.72,-1.32,-2.00,-3.62,-3.64,-3.65
245.48,-1.89,1.73,-1.92,1.71,-1.71,-1.28,-1.99,-3.60,-3.63,-3.63
247.93,-1.88,1.73,-1.90,1.71,-1.71,-1.23,-1.97,-3.59,-3.61,-3.62
250.41,-1.86,1.74,-1.90,1.70,-1.70,-1.19,-1.95,-3.56,-3.60,-3.60
252.92,-1.86,1.71,-1.89,1.69,-1.69,-1.14,-1.92,-3.55,-3.58,-3.57
255.45,-1.88,1.67,-1.89,1.67,-1.67,-1.10,-1.89,-3.55,-3.56,-3.55
258.00,-1.89,1.64,-1.90,1.64,-1.64,-1.06,-1.86,-3.53,-3.54,-3.53
260.58,-1.90,1.62,-1.91,1.61,-1.61,-1.02,-1.83,-3.51,-3.52,-3.52
263.19,-1.93,1.57,-1.93,1.57,-1.57,-0.98,-1.79,-3.50,-3.50,-3.50
265.82,-1.95,1.52,-1.95,1.52,-1.52,-0.94,-1.75,-3.47,-3.47,-3.48
268.48,-1.98,1.47,-1.98,1.47,-1.47,-0.90,-1.70,-3.45,-3.45,-3.45
271.16,-2.01,1.41,-2.01,1.42,-1.42,-0.86,-1.65,-3.43,-3.43,-3.42
273.87,-2.05,1.36,-2.04,1.37,-1.37,-0.83,-1.60,-3.42,-3.41,-3.41
276.61,-2.08,1.29,-2.07,1.31,-1.31,-0.79,-1.55,-3.39,-3.38,-3.37
279.38,-2.11,1.25,-2.11,1.25,-1.25,-0.75,-1.50,-3.36,-3.36,-3.36
282.17,-2.15,1.18,-2.15,1.19,-1.19,-0.72,-1.44,-3.34,-3.33,-3.34
284.99,-2.19,1.12,-2.19,1.12,-1.12,-0.69,-1.38,-3.31,-3.31,-3.31
287.84,-2.23,1.06,-2.23,1.06,-1.06,-0.65,-1.32,-3.29,-3.28,-3.29
290.72,-2.27,0.98,-2.27,0.99,-0.99,-0.62,-1.26,-3.26,-3.26,-3.25
293.63,-2.31,0.93,-2.31,0.91,-0.91,-0.59,-1.19,-3.23,-3.23,-3.24
296.57,-2.36,0.84,-2.36,0.84,-0.84,-0.56,-1.13,-3.20,-3.20,-3.20
299.53,-2.41,0.77,-2.41,0.76,-0.76,-0.53,-1.06,-3.17,-3.17,-3.18
302.53,-2.46,0.69,-2.46,0.68,-0.68,-0.50,-1.00,-3.14,-3.14,-3.15
305.55,-2.52,0.59,-2.52,0.59,-0.59,-0.47,-0.93,-3.11,-3.11,-3.11
308.61,-2.57,0.51,-2.58,0.50,-0.50,-0.44,-0.86,-3.07,-3.08,-3.08
311.69,-2.64,0.40,-2.64,0.40,-0.40,-0.41,-0.79,-3.05,-3.05,-3.04
314.81,-2.70,0.31,-2.71,0.30,-0.30,-0.38,-0.72,-3.00,-3.02,-3.01
317.96,-2.77,0.21,-2.79,0.20,-0.20,-0.35,-0.65,-2.97,-2.99,-2.98
321.14,-2.84,0.12,-2.87,0.09,-0.09,-0.32,-0.58,-2.93,-2.96,-2.96
324.35,-2.92,0.01,-2.95,-0.03,0.03,-0.30,-0.51,-2.89,-2.93,-2.93
327.59,-3.01,-0.12,-3.04,-0.14,0.14,-0.27,-0.43,-2.87,-2.90,-2.89
330.87,-3.10,-0.23,-3.13,-0.25,0.25,-0.24,-0.36,-2.85,-2.87,-2.87
334.18,-3.19,-0.34,-3.21,-0.37,0.37,-0.22,-0.29,-2.83,-2.85,-2.85
337.52,-3.28,-0.46,-3.29,-0.47,0.47,-0.19,-0.22,-2.81,-2.82,-2.82
340.90,-3.37,-0.58,-3.36,-0.56,0.56,-0.17,-0.15,-2.81,-2.80,-2.80
344.30,-3.45,-0.67,-3.43,-0.65,0.65,-0.14,-0.07,-2.80,-2.78,-2.78
347.75,-3.52,-0.77,-3.48,-0.72,0.72,-0.12,-0.00,-2.80,-2.76,-2.75
351.23,-3.56,-0.83,-3.51,-0.78,0.78,-0.09,0.07,-2.78,-2.74,-2.73
354.74,-3.60,-0.88,-3.54,-0.82,0.82,-0.07,0.14,-2.78,-2.72,-2.72
358.28,-3.60,-0.90,-3.54,-0.85,0.85,-0.04,0.22,-2.75,-2.70,-2.70
361.87,-3.58,-0.90,-3.54,-0.86,0.86,-0.02,0.29,-2.72,-2.68,-2.68
365.49,-3.55,-0.90,-3.51,-0.85,0.85,0.01,0.36,-2.70,-2.66,-2.65
369.14,-3.50,-0.86,-3.48,-0.84,0.84,0.03,0.43,-2.66,-2.64,-2.65
372.83,-3.43,-0.80,-3.43,-0.81,0.81,0.05,0.51,-2.62,-2.62,-2.63
376.56,-3.36,-0.75,-3.38,-0.77,0.77,0.08,0.58,-2.59,-2.60,-2.61
380.33,-3.30,-0.72,-3.32,-0.73,0.73,0.10,0.65,-2.57,-2.58,-2.58
384.13,-3.22,-0.66,-3.25,-0.69,0.69,0.12,0.73,-2.53,-2.56,-2.56
387.97,-3.16,-0.62,-3.19,-0.65,0.65,0.15,0.80,-2.51,-2.54,-2.54
391.85,-3.10,-0.57,-3.13,-0.61,0.61,0.17,0.87,-2.49,-2.52,-2.53
395.77,-3.05,-0.55,-3.08,-0.57,0.57,0.19,0.94,-2.48,-2.50,-2.50
399.73,-3.00,-0.52,-3.03,-0.54,0.54,0.22,1.02,-2.46,-2.48,-2.48
403.72,-2.96,-0.50,-2.98,-0.52,0.52,0.24,1.09,-2.44,-2.46,-2.46
407.76,-2.94,-0.50,-2.95,-0.51,0.51,0.27,1.16,-2.43,-2.44,-2.44
411.84,-2.92,-0.51,-2.92,-0.50,0.50,0.29,1.23,-2.42,-2.42,-2.41
415.96,-2.89,-0.50,-2.90,-0.50,0.50,0.31,1.30,-2.39,-2.40,-2.40
420.12,-2.88,-0.50,-2.88,-0.50,0.50,0.34,1.37,-2.38,-2.37,-2.38
424.32,-2.87,-0.52,-2.87,-0.51,0.51,0.36,1.43,-2.36,-2.35,-2.35
428.56,-2.86,-0.53,-2.86,-0.53,0.53,0.39,1.50,-2.33,-2.33,-2.33
432.85,-2.86,-0.55,-2.86,-0.55,0.55,0.41,1.56,-2.31,-2.31,-2.31
437.18,-2.86,-0.58,-2.85,-0.57,0.57,0.44,1.62,-2.29,-2.28,-2.28
441.55,-2.85,-0.60,-2.86,-0.60,0.60,0.46,1.68,-2.25,-2.26,-2.25
445.96,-2.86,-0.63,-2.86,-0.63,0.63,0.49,1.74,-2.23,-2.23,-2.23
450.42,-2.86,-0.65,-2.87,-0.66,0.66,0.52,1.79,-2.20,-2.20,-2.21
454.93,-2.88,-0.71,-2.87,-0.70,0.70,0.54,1.84,-2.18,-2.18,-2.18
459.48,-2.88,-0.72,-2.88,-0.73,0.73,0.57,1.89,-2.15,-2.15,-2.16
464.07,-2.90,-0.77,-2.89,-0.77,0.77,0.60,1.93,-2.13,-2.12,-2.13
468.71,-2.91,-0.82,-2.91,-0.81,0.81,0.63,1.97,-2.10,-2.10,-2.09
473.40,-2.92,-0.85,-2.92,-0.85,0.85,0.65,2.01,-2.07,-2.07,-2.07
478.13,-2.93,-0.89,-2.93,-0.89,0.89,0.68,2.04,-2.04,-2.04,-2.04
482.91,-2.95,-0.94,-2.95,-0.93,0.93,0.72,2.07,-2.02,-2.01,-2.01
487.74,-2.96,-0.98,-2.96,-0.98,0.98,0.75,2.09,-1.98,-1.98,-1.98
