frequency,raw,error,smoothed,error_smoothed,equalization,parametric_eq,fixed_band_eq,equalized_raw,equalized_smoothed,target
20.00,-3.06,-6.74,-3.05,-6.75,6.75,6.32,2.21,3.69,3.70,3.68
20.20,-3.01,-6.69,-3.00,-6.69,6.69,6.36,2.27,3.68,3.69,3.68
20.40,-2.97,-6.65,-2.96,-6.64,6.64,6.38,2.34,3.67,3.68,3.68
20.61,-2.91,-6.59,-2.91,-6.59,6.59,6.41,2.41,3.68,3.67,3.68
20.81,-2.86,-6.54,-2.87,-6.54,6.54,6.43,2.48,3.68,3.66,3.68
21.02,-2.82,-6.50,-2.83,-6.48,6.48,6.44,2.55,3.66,3.65,3.68
21.23,-2.77,-6.43,-2.79,-6.43,6.43,6.45,2.63,3.66,3.64,3.66
21.44,-2.74,-6.39,-2.75,-6.38,6.38,6.46,2.70,3.64,3.63,3.65
21.66,-2.71,-6.34,-2.72,-6.33,6.33,6.46,2.78,3.62,3.61,3.63
21.87,-2.68,-6.29,-2.68,-6.28,6.28,6.46,2.86,3.60,3.60,3.61
22.09,-2.64,-6.24,-2.65,-6.23,6.23,6.45,2.95,3.59,3.58,3.60
22.31,-2.62,-6.19,-2.62,-6.18,6.18,6.44,3.03,3.56,3.57,3.57
22.54,-2.59,-6.14,-2.59,-6.13,6.13,6.43,3.12,3.54,3.54,3.55
22.76,-2.56,-6.09,-2.56,-6.08,6.08,6.41,3.21,3.52,3.52,3.53
22.99,-2.54,-6.04,-2.54,-6.03,6.03,6.39,3.30,3.49,3.50,3.50
23.22,-2.51,-5.98,-2.51,-5.99,5.99,6.36,3.40,3.48,3.48,3.47
23.45,-2.48,-5.92,-2.49,-5.94,5.94,6.33,3.50,3.46,3.45,3.44
23.69,-2.46,-5.89,-2.46,-5.90,5.90,6.30,3.59,3.43,3.43,3.43
23.92,-2.43,-5.84,-2.44,-5.85,5.85,6.26,3.70,3.42,3.41,3.41
24.16,-2.41,-5.81,-2.41,-5.81,5.81,6.22,3.80,3.40,3.39,3.40
24.40,-2.39,-5.77,-2.39,-5.76,5.76,6.17,3.90,3.37,3.37,3.38
24.65,-2.37,-5.73,-2.36,-5.72,5.72,6.12,4.01,3.35,3.35,3.36
24.89,-2.34,-5.68,-2.34,-5.67,5.67,6.07,4.11,3.33,3.34,3.34
25.14,-2.31,-5.64,-2.31,-5.63,5.63,6.02,4.22,3.32,3.32,3.33
25.39,-2.28,-5.59,-2.28,-5.58,5.58,5.96,4.33,3.30,3.30,3.31
25.65,-2.25,-5.55,-2.24,-5.53,5.53,5.90,4.44,3.28,3.29,3.30
25.91,-2.22,-5.49,-2.21,-5.48,5.48,5.84,4.54,3.26,3.27,3.27
26.16,-2.18,-5.44,-2.17,-5.43,5.43,5.78,4.65,3.25,3.26,3.26
26.43,-2.14,-5.39,-2.13,-5.37,5.37,5.71,4.76,3.23,3.24,3.25
26.69,-2.10,-5.32,-2.09,-5.32,5.32,5.64,4.86,3.22,3.23,3.22
26.96,-2.06,-5.27,-2.05,-5.26,5.26,5.57,4.97,3.20,3.21,3.21
27.23,-2.01,-5.21,-2.01,-5.21,5.21,5.50,5.07,3.20,3.19,3.20
27.50,-1.97,-5.16,-1.98,-5.16,5.16,5.43,5.17,3.18,3.18,3.19
27.77,-1.93,-5.10,-1.94,-5.11,5.11,5.35,5.26,3.18,3.17,3.17
28.05,-1.88,-5.04,-1.91,-5.06,5.06,5.28,5.35,3.18,3.15,3.16
28.33,-1.85,-4.99,-1.87,-5.01,5.01,5.20,5.43,3.16,3.14,3.14
28.62,-1.82,-4.95,-1.84,-4.97,4.97,5.13,5.51,3.15,3.12,3.13
28.90,-1.80,-4.91,-1.81,-4.92,4.92,5.05,5.58,3.12,3.11,3.11
29.19,-1.78,-4.87,-1.78,-4.88,4.88,4.97,5.65,3.10,3.10,3.09
29.48,-1.75,-4.84,-1.75,-4.84,4.84,4.89,5.70,3.09,3.09,3.09
29.78,-1.73,-4.81,-1.73,-4.80,4.80,4.81,5.75,3.07,3.07,3.08
30.08,-1.71,-4.78,-1.70,-4.75,4.75,4.74,5.79,3.04,3.06,3.07
30.38,-1.69,-4.74,-1.67,-4.71,4.71,4.66,5.82,3.02,3.04,3.05
30.68,-1.65,-4.69,-1.64,-4.66,4.66,4.58,5.84,3.01,3.03,3.04
30.99,-1.61,-4.62,-1.60,-4.61,4.61,4.50,5.84,3.00,3.01,3.01
31.30,-1.57,-4.57,-1.57,-4.56,4.56,4.42,5.84,2.99,3.00,3.00
31.61,-1.52,-4.51,-1.53,-4.51,4.51,4.34,5.83,2.99,2.98,2.99
31.93,-1.48,-4.45,-1.49,-4.45,4.45,4.26,5.81,2.96,2.96,2.97
32.24,-1.44,-4.38,-1.44,-4.38,4.38,4.18,5.77,2.94,2.94,2.94
32.57,-1.39,-4.31,-1.40,-4.32,4.32,4.11,5.73,2.93,2.92,2.92
32.89,-1.34,-4.25,-1.35,-4.25,4.25,4.03,5.68,2.91,2.90,2.91
33.22,-1.29,-4.17,-1.30,-4.18,4.18,3.95,5.62,2.89,2.88,2.88
33.55,-1.25,-4.12,-1.24,-4.10,4.10,3.88,5.55,2.85,2.86,2.87
33.89,-1.19,-4.03,-1.19,-4.03,4.03,3.80,5.47,2.84,2.84,2.84
34.23,-1.14,-3.96,-1.14,-3.95,3.95,3.73,5.39,2.81,2.82,2.82
34.57,-1.08,-3.88,-1.08,-3.88,3.88,3.65,5.29,2.80,2.80,2.80
34.92,-1.02,-3.80,-1.02,-3.80,3.80,3.58,5.20,2.78,2.78,2.78
35.27,-0.96,-3.72,-0.96,-3.71,3.71,3.51,5.10,2.75,2.76,2.76
35.62,-0.90,-3.64,-0.89,-3.63,3.63,3.44,4.99,2.73,2.74,2.74
35.97,-0.84,-3.56,-0.83,-3.55,3.55,3.36,4.88,2.71,2.72,2.72
36.33,-0.76,-3.46,-0.76,-3.46,3.46,3.29,4.77,2.70,2.69,2.70
36.70,-0.70,-3.38,-0.70,-3.37,3.37,3.22,4.65,2.67,2.67,2.68
37.06,-0.63,-3.29,-0.63,-3.28,3.28,3.16,4.53,2.65,2.65,2.66
37.43,-0.56,-3.20,-0.56,-3.19,3.19,3.09,4.41,2.63,2.63,2.64
37.81,-0.49,-3.11,-0.49,-3.11,3.11,3.02,4.29,2.61,2.61,2.62
38.19,-0.42,-3.01,-0.43,-3.02,3.02,2.95,4.17,2.60,2.59,2.59
38.57,-0.36,-2.94,-0.36,-2.93,2.93,2.89,4.05,2.57,2.57,2.58
38.95,-0.29,-2.84,-0.30,-2.85,2.85,2.82,3.93,2.56,2.55,2.55
39.34,-0.23,-2.76,-0.24,-2.77,2.77,2.76,3.81,2.54,2.53,2.53
39.74,-0.17,-2.68,-0.18,-2.69,2.69,2.70,3.69,2.52,2.51,2.51
40.14,-0.11,-2.61,-0.12,-2.61,2.61,2.63,3.57,2.50,2.49,2.50
40.54,-0.06,-2.54,-0.06,-2.54,2.54,2.57,3.46,2.48,2.48,2.48
40.94,-0.01,-2.47,-0.01,-2.47,2.47,2.51,3.34,2.46,2.46,2.46
41.35,0.04,-2.39,0.04,-2.40,2.40,2.45,3.23,2.44,2.44,2.43
41.76,0.09,-2.34,0.09,-2.33,2.33,2.39,3.12,2.42,2.42,2.43
42.18,0.14,-2.27,0.14,-2.26,2.26,2.34,3.00,2.40,2.40,2.41
42.60,0.18,-2.21,0.19,-2.20,2.20,2.28,2.90,2.38,2.38,2.39
43.03,0.23,-2.15,0.23,-2.13,2.13,2.22,2.79,2.36,2.36,2.38
43.46,0.27,-2.08,0.28,-2.07,2.07,2.16,2.68,2.34,2.34,2.35
43.90,0.32,-2.01,0.32,-2.01,2.01,2.11,2.58,2.33,2.33,2.33
44.33,0.37,-1.94,0.36,-1.95,1.95,2.05,2.48,2.32,2.31,2.31
44.78,0.40,-1.89,0.40,-1.89,1.89,2.00,2.38,2.28,2.29,2.29
45.23,0.45,-1.81,0.44,-1.83,1.83,1.95,2.28,2.27,2.27,2.26
45.68,0.48,-1.76,0.48,-1.77,1.77,1.89,2.19,2.25,2.25,2.24
46.13,0.53,-1.70,0.52,-1.71,1.71,1.84,2.09,2.24,2.23,2.23
46.60,0.56,-1.66,0.56,-1.65,1.65,1.79,2.00,2.21,2.21,2.22
47.06,0.60,-1.60,0.60,-1.59,1.59,1.74,1.91,2.19,2.19,2.20
47.53,0.63,-1.55,0.63,-1.54,1.54,1.69,1.82,2.17,2.17,2.18
48.01,0.67,-1.50,0.67,-1.48,1.48,1.64,1.73,2.15,2.15,2.17
48.49,0.70,-1.44,0.70,-1.43,1.43,1.59,1.65,2.13,2.13,2.14
48.97,0.73,-1.38,0.73,-1.38,1.38,1.54,1.57,2.11,2.11,2.11
49.46,0.76,-1.32,0.76,-1.32,1.32,1.50,1.48,2.08,2.08,2.08
49.96,0.79,-1.26,0.79,-1.27,1.27,1.45,1.40,2.06,2.06,2.05
50.46,0.82,-1.22,0.82,-1.22,1.22,1.40,1.32,2.04,2.04,2.04
50.96,0.85,-1.17,0.85,-1.17,1.17,1.36,1.25,2.02,2.02,2.02
51.47,0.88,-1.11,0.87,-1.12,1.12,1.31,1.17,2.00,1.99,1.99
51.99,0.90,-1.07,0.90,-1.06,1.06,1.27,1.10,1.96,1.97,1.97
52.51,0.93,-1.02,0.93,-1.01,1.01,1.22,1.03,1.94,1.94,1.95
53.03,0.95,-0.98,0.95,-0.96,0.96,1.18,0.96,1.91,1.92,1.93
53.56,0.98,-0.92,0.98,-0.91,0.91,1.13,0.89,1.89,1.89,1.90
54.10,1.01,-0.87,1.01,-0.87,0.87,1.09,0.82,1.87,1.87,1.88
54.64,1.03,-0.82,1.03,-0.82,0.82,1.05,0.75,1.85,1.85,1.85
55.18,1.06,-0.77,1.06,-0.77,0.77,1.00,0.69,1.83,1.83,1.83
55.74,1.08,-0.72,1.08,-0.72,0.72,0.96,0.63,1.80,1.80,1.80
56.29,1.10,-0.68,1.10,-0.67,0.67,0.92,0.56,1.77,1.78,1.78
56.86,1.13,-0.62,1.13,-0.63,0.63,0.88,0.50,1.76,1.75,1.75
57.42,1.15,-0.58,1.15,-0.58,0.58,0.83,0.45,1.73,1.73,1.73
58.00,1.17,-0.54,1.17,-0.53,0.53,0.79,0.39,1.70,1.70,1.71
58.58,1.19,-0.49,1.19,-0.49,0.49,0.75,0.33,1.68,1.68,1.68
59.16,1.22,-0.44,1.21,-0.44,0.44,0.71,0.28,1.66,1.65,1.66
59.76,1.23,-0.41,1.23,-0.40,0.40,0.67,0.23,1.62,1.63,1.64
60.35,1.25,-0.36,1.25,-0.35,0.35,0.63,0.18,1.60,1.60,1.61
60.96,1.26,-0.33,1.27,-0.31,0.31,0.59,0.13,1.57,1.57,1.59
61.57,1.28,-0.27,1.28,-0.26,0.26,0.55,0.08,1.54,1.55,1.55
62.18,1.30,-0.22,1.30,-0.22,0.22,0.51,0.04,1.52,1.52,1.52
62.80,1.32,-0.17,1.31,-0.18,0.18,0.47,-0.01,1.50,1.49,1.49
63.43,1.33,-0.13,1.33,-0.14,0.14,0.43,-0.05,1.47,1.47,1.46
64.07,1.33,-0.10,1.34,-0.10,0.10,0.39,-0.09,1.43,1.44,1.43
64.71,1.35,-0.06,1.35,-0.06,0.06,0.35,-0.13,1.41,1.41,1.41
65.35,1.36,-0.03,1.36,-0.03,0.03,0.31,-0.17,1.39,1.39,1.39
66.01,1.37,0.00,1.37,0.01,-0.01,0.27,-0.21,1.36,1.36,1.37
66.67,1.38,0.04,1.38,0.04,-0.04,0.23,-0.25,1.34,1.34,1.34
67.33,1.39,0.07,1.38,0.07,-0.07,0.19,-0.28,1.32,1.31,1.32
68.01,1.39,0.10,1.39,0.10,-0.10,0.15,-0.32,1.28,1.29,1.29
68.69,1.40,0.13,1.40,0.13,-0.13,0.12,-0.35,1.26,1.26,1.27
69.37,1.40,0.16,1.40,0.16,-0.16,0.08,-0.38,1.23,1.24,1.24
70.07,1.40,0.19,1.40,0.19,-0.19,0.04,-0.42,1.21,1.21,1.21
70.77,1.41,0.22,1.41,0.23,-0.23,-0.00,-0.45,1.18,1.18,1.19
71.48,1.41,0.25,1.41,0.26,-0.26,-0.04,-0.48,1.15,1.15,1.16
72.19,1.41,0.28,1.41,0.29,-0.29,-0.08,-0.51,1.12,1.12,1.13
72.91,1.41,0.32,1.41,0.32,-0.32,-0.12,-0.54,1.09,1.09,1.09
73.64,1.41,0.35,1.41,0.35,-0.35,-0.16,-0.57,1.06,1.05,1.06
74.38,1.40,0.37,1.41,0.39,-0.39,-0.20,-0.60,1.01,1.02,1.03
75.12,1.41,0.43,1.40,0.42,-0.42,-0.24,-0.63,0.99,0.99,0.98
75.87,1.40,0.45,1.40,0.45,-0.45,-0.29,-0.67,0.95,0.95,0.95
76.63,1.40,0.48,1.40,0.49,-0.49,-0.33,-0.70,0.91,0.91,0.92
77.40,1.39,0.51,1.40,0.52,-0.52,-0.37,-0.73,0.87,0.87,0.88
78.17,1.39,0.57,1.39,0.56,-0.56,-0.41,-0.76,0.83,0.83,0.82
78.95,1.39,0.59,1.38,0.59,-0.59,-0.45,-0.79,0.80,0.79,0.80
79.74,1.38,0.62,1.38,0.63,-0.63,-0.49,-0.83,0.75,0.75,0.76
80.54,1.37,0.66,1.37,0.66,-0.66,-0.54,-0.86,0.70,0.71,0.71
81.35,1.37,0.70,1.36,0.70,-0.70,-0.58,-0.90,0.67,0.66,0.67
82.16,1.36,0.74,1.35,0.74,-0.74,-0.62,-0.93,0.62,0.62,0.62
82.98,1.35,0.77,1.35,0.77,-0.77,-0.66,-0.97,0.58,0.57,0.58
83.81,1.34,0.82,1.34,0.81,-0.81,-0.71,-1.01,0.53,0.53,0.52
84.65,1.32,0.84,1.33,0.85,-0.85,-0.75,-1.04,0.47,0.48,0.48
85.50,1.31,0.87,1.31,0.88,-0.88,-0.80,-1.08,0.43,0.43,0.44
86.35,1.30,0.91,1.30,0.92,-0.92,-0.84,-1.12,0.38,0.38,0.39
87.22,1.29,0.95,1.29,0.96,-0.96,-0.89,-1.17,0.33,0.33,0.34
88.09,1.28,1.00,1.28,1.00,-1.00,-0.93,-1.21,0.28,0.28,0.28
88.97,1.27,1.03,1.27,1.03,-1.03,-0.98,-1.25,0.24,0.23,0.24
89.86,1.26,1.07,1.26,1.07,-1.07,-1.02,-1.29,0.19,0.18,0.19
90.76,1.24,1.11,1.24,1.11,-1.11,-1.07,-1.34,0.13,0.13,0.13
91.66,1.23,1.15,1.23,1.15,-1.15,-1.12,-1.39,0.08,0.08,0.08
92.58,1.22,1.20,1.22,1.19,-1.19,-1.17,-1.43,0.03,0.03,0.02
93.51,1.20,1.22,1.21,1.23,-1.23,-1.21,-1.48,-0.03,-0.03,-0.02
94.44,1.20,1.27,1.19,1.28,-1.28,-1.26,-1.53,-0.08,-0.09,-0.07
95.39,1.18,1.31,1.18,1.32,-1.32,-1.31,-1.58,-0.14,-0.14,-0.13
96.34,1.17,1.37,1.17,1.37,-1.37,-1.36,-1.63,-0.20,-0.20,-0.20
97.30,1.15,1.40,1.15,1.41,-1.41,-1.41,-1.68,-0.26,-0.26,-0.25
98.28,1.14,1.45,1.14,1.45,-1.45,-1.46,-1.74,-0.31,-0.32,-0.31
99.26,1.12,1.50,1.12,1.50,-1.50,-1.51,-1.79,-0.38,-0.38,-0.38
100.25,1.11,1.54,1.11,1.55,-1.55,-1.56,-1.84,-0.44,-0.44,-0.43
101.25,1.10,1.59,1.10,1.59,-1.59,-1.61,-1.90,-0.49,-0.50,-0.49
102.27,1.08,1.64,1.08,1.64,-1.64,-1.66,-1.95,-0.56,-0.56,-0.56
103.29,1.07,1.70,1.06,1.69,-1.69,-1.71,-2.01,-0.62,-0.62,-0.63
104.32,1.05,1.73,1.05,1.74,-1.74,-1.76,-2.06,-0.69,-0.69,-0.68
105.37,1.04,1.78,1.03,1.78,-1.78,-1.81,-2.11,-0.75,-0.75,-0.74
106.42,1.01,1.82,1.02,1.83,-1.83,-1.86,-2.17,-0.83,-0.82,-0.81
107.48,1.00,1.88,1.00,1.88,-1.88,-1.91,-2.22,-0.88,-0.88,-0.88
108.56,0.98,1.93,0.98,1.93,-1.93,-1.96,-2.27,-0.95,-0.95,-0.95
109.64,0.97,1.98,0.97,1.98,-1.98,-2.01,-2.32,-1.01,-1.02,-1.01
110.74,0.95,2.02,0.95,2.03,-2.03,-2.06,-2.37,-1.08,-1.08,-1.07
111.85,0.93,2.07,0.93,2.08,-2.08,-2.11,-2.41,-1.15,-1.15,-1.14
112.97,0.91,2.13,0.91,2.13,-2.13,-2.16,-2.46,-1.22,-1.22,-1.22
114.10,0.89,2.17,0.89,2.18,-2.18,-2.21,-2.50,-1.29,-1.29,-1.28
115.24,0.87,2.22,0.87,2.22,-2.22,-2.26,-2.54,-1.35,-1.35,-1.35
116.39,0.85,2.27,0.85,2.26,-2.26,-2.31,-2.58,-1.42,-1.42,-1.42
117.55,0.83,2.32,0.82,2.31,-2.31,-2.35,-2.61,-1.48,-1.48,-1.49
118.73,0.80,2.35,0.80,2.35,-2.35,-2.40,-2.64,-1.55,-1.55,-1.55
119.92,0.78,2.39,0.77,2.38,-2.38,-2.44,-2.67,-1.60,-1.61,-1.61
121.12,0.75,2.42,0.74,2.42,-2.42,-2.49,-2.69,-1.67,-1.67,-1.67
122.33,0.72,2.46,0.72,2.45,-2.45,-2.53,-2.71,-1.74,-1.74,-1.74
123.55,0.69,2.48,0.69,2.49,-2.49,-2.57,-2.73,-1.80,-1.80,-1.79
124.79,0.66,2.51,0.66,2.52,-2.52,-2.61,-2.74,-1.86,-1.86,-1.85
126.03,0.63,2.53,0.63,2.55,-2.55,-2.65,-2.75,-1.92,-1.92,-1.90
127.29,0.60,2.56,0.60,2.58,-2.58,-2.69,-2.75,-1.98,-1.97,-1.96
128.57,0.57,2.60,0.58,2.61,-2.61,-2.72,-2.75,-2.04,-2.03,-2.03
129.85,0.55,2.63,0.55,2.63,-2.63,-2.75,-2.75,-2.08,-2.08,-2.08
131.15,0.52,2.65,0.52,2.66,-2.66,-2.79,-2.74,-2.14,-2.13,-2.13
132.46,0.50,2.69,0.50,2.68,-2.68,-2.81,-2.73,-2.19,-2.19,-2.19
133.79,0.47,2.70,0.47,2.71,-2.71,-2.84,-2.72,-2.24,-2.23,-2.23
135.12,0.45,2.74,0.45,2.73,-2.73,-2.87,-2.70,-2.28,-2.28,-2.29
136.48,0.42,2.74,0.42,2.75,-2.75,-2.89,-2.68,-2.33,-2.32,-2.32
137.84,0.40,2.76,0.40,2.77,-2.77,-2.91,-2.66,-2.37,-2.37,-2.36
139.22,0.38,2.79,0.37,2.78,-2.78,-2.93,-2.64,-2.40,-2.41,-2.41
140.61,0.35,2.80,0.35,2.79,-2.79,-2.94,-2.61,-2.44,-2.44,-2.45
142.02,0.33,2.80,0.32,2.80,-2.80,-2.95,-2.58,-2.47,-2.48,-2.47
143.44,0.30,2.80,0.30,2.81,-2.81,-2.96,-2.55,-2.51,-2.51,-2.50
144.87,0.27,2.81,0.27,2.81,-2.81,-2.97,-2.52,-2.54,-2.54,-2.54
146.32,0.25,2.82,0.24,2.81,-2.81,-2.97,-2.49,-2.56,-2.57,-2.57
147.78,0.21,2.80,0.21,2.81,-2.81,-2.97,-2.46,-2.60,-2.60,-2.59
149.26,0.18,2.80,0.18,2.81,-2.81,-2.97,-2.43,-2.63,-2.63,-2.62
150.75,0.14,2.80,0.14,2.80,-2.80,-2.97,-2.40,-2.66,-2.66,-2.66
152.26,0.11,2.79,0.11,2.80,-2.80,-2.96,-2.36,-2.69,-2.69,-2.68
153.78,0.08,2.79,0.08,2.79,-2.79,-2.95,-2.33,-2.71,-2.71,-2.71
155.32,0.05,2.78,0.04,2.78,-2.78,-2.94,-2.30,-2.73,-2.74,-2.73
156.88,0.01,2.77,0.01,2.78,-2.78,-2.93,-2.27,-2.77,-2.77,-2.76
158.44,-0.03,2.76,-0.02,2.77,-2.77,-2.91,-2.24,-2.80,-2.79,-2.79
160.03,-0.06,2.76,-0.06,2.76,-2.76,-2.89,-2.21,-2.82,-2.82,-2.82
161.63,-0.10,2.75,-0.09,2.76,-2.76,-2.87,-2.19,-2.86,-2.85,-2.85
163.24,-0.13,2.75,-0.12,2.75,-2.75,-2.85,-2.16,-2.88,-2.88,-2.88
164.88,-0.15,2.75,-0.15,2.75,-2.75,-2.82,-2.14,-2.90,-2.91,-2.90
166.53,-0.19,2.73,-0.19,2.75,-2.75,-2.80,-2.11,-2.94,-2.93,-2.92
168.19,-0.22,2.74,-0.22,2.74,-2.74,-2.77,-2.09,-2.96,-2.96,-2.96
169.87,-0.25,2.74,-0.25,2.74,-2.74,-2.74,-2.07,-2.99,-2.99,-2.99
171.57,-0.28,2.74,-0.29,2.74,-2.74,-2.71,-2.05,-3.02,-3.03,-3.02
173.29,-0.32,2.72,-0.32,2.74,-2.74,-2.67,-2.03,-3.06,-3.06,-3.04
175.02,-0.35,2.73,-0.35,2.74,-2.74,-2.64,-2.02,-3.09,-3.09,-3.08
176.77,-0.39,2.73,-0.39,2.74,-2.74,-2.60,-2.01,-3.13,-3.13,-3.12
178.54,-0.42,2.74,-0.43,2.73,-2.73,-2.57,-1.99,-3.15,-3.16,-3.16
180.32,-0.46,2.73,-0.47,2.73,-2.73,-2.53,-1.98,-3.19,-3.19,-3.19
182.13,-0.51,2.71,-0.51,2.72,-2.72,-2.49,-1.97,-3.23,-3.23,-3.22
183.95,-0.55,2.71,-0.55,2.72,-2.72,-2.45,-1.97,-3.27,-3.26,-3.26
185.79,-0.59,2.71,-0.59,2.71,-2.71,-2.41,-1.96,-3.30,-3.30,-3.30
187.65,-0.64,2.70,-0.64,2.69,-2.69,-2.37,-1.96,-3.33,-3.33,-3.34
189.52,-0.69,2.68,-0.69,2.68,-2.68,-2.33,-1.95,-3.37,-3.36,-3.37
191.42,-0.73,2.66,-0.74,2.66,-2.66,-2.29,-1.95,-3.39,-3.39,-3.39
193.33,-0.79,2.62,-0.79,2.64,-2.64,-2.25,-1.95,-3.43,-3.43,-3.41
195.27,-0.84,2.60,-0.85,2.61,-2.61,-2.21,-1.95,-3.45,-3.45,-3.44
197.22,-0.91,2.56,-0.91,2.57,-2.57,-2.16,-1.96,-3.49,-3.48,-3.47
199.19,-0.96,2.56,-0.97,2.54,-2.54,-2.12,-1.96,-3.50,-3.51,-3.52
201.18,-1.02,2.51,-1.04,2.50,-2.50,-2.08,-1.96,-3.52,-3.53,-3.53
203.19,-1.10,2.45,-1.11,2.45,-2.45,-2.04,-1.97,-3.55,-3.55,-3.55
205.23,-1.17,2.40,-1.18,2.39,-2.39,-2.00,-1.97,-3.57,-3.58,-3.57
207.28,-1.24,2.34,-1.26,2.34,-2.34,-1.96,-1.98,-3.58,-3.60,-3.58
209.35,-1.32,2.29,-1.34,2.28,-2.28,-1.91,-1.98,-3.60,-3.62,-3.61
211.44,-1.39,2.24,-1.42,2.21,-2.21,-1.87,-1.99,-3.60,-3.63,-3.63
213.56,-1.48,2.17,-1.50,2.15,-2.15,-1.83,-2.00,-3.63,-3.65,-3.65
215.69,-1.57,2.08,-1.58,2.08,-2.08,-1.79,-2.00,-3.65,-3.66,-3.65
217.85,-1.66,2.00,-1.65,2.02,-2.02,-1.75,-2.01,-3.68,-3.67,-3.66
220.03,-1.73,1.96,-1.72,1.96,-1.96,-1.71,-2.01,-3.69,-3.68,-3.69
222.23,-1.80,1.90,-1.78,1.91,-1.91,-1.68,-2.02,-3.71,-3.69,-3.70
224.45,-1.87,1.82,-1.84,1.86,-1.86,-1.64,-2.02,-3.73,-3.70,-3.69
226.70,-1.92,1.78,-1.88,1.82,-1.82,-1.60,-2.02,-3.74,-3.70,-3.70
228.96,-1.95,1.75,-1.91,1.79,-1.79,-1.56,-2.02,-3.74,-3.70,-3.70
231.25,-1.97,1.72,-1.93,1.77,-1.77,-1.52,-2.02,-3.74,-3.70,-3.69
233.57,-1.98,1.70,-1.94,1.75,-1.75,-1.49,-2.01,-3.73,-3.69,-3.68
235.90,-1.97,1.71,-1.95,1.73,-1.73,-1.45,-2.00,-3.71,-3.68,-3.68
238.26,-1.95,1.73,-1.95,1.73,-1.73,-1.42,-1.99,-3.68,-3.67,-3.68
240.64,-1.93,1.73,-1.94,1.72,-1.72,-1.38,-1.98,-3.65,-3.66,-3.66
243.05,-1.90,1.74,-1.93,1.72,-1.72,-1.35,-1.97,-3.62,-3.65,-3.64
245.48,-1.89,1.73,-1.92,1.71,-1.71,-1.31,-1.95,-3.60,-3.63,-3.62
247.93,-1.88,1.73,-1.90,1.71,-1.71,-1.28,-1.93,-3.59,-3.61,-3.61
250.41,-1.86,1.74,-1.90,1.70,-1.70,-1.25,-1.90,-3.56,-3.59,-3.60
252.92,-1.86,1.70,-1.89,1.68,-1.68,-1.22,-1.88,-3.54,-3.57,-3.56
255.45,-1.88,1.66,-1.89,1.66,-1.66,-1.19,-1.84,-3.54,-3.55,-3.54
258.00,-1.89,1.63,-1.90,1.63,-1.63,-1.15,-1.81,-3.52,-3.53,-3.52
260.58,-1.90,1.60,-1.91,1.60,-1.60,-1.12,-1.77,-3.50,-3.51,-3.50
263.19,-1.93,1.55,-1.93,1.55,-1.55,-1.09,-1.73,-3.48,-3.48,-3.48
265.82,-1.95,1.51,-1.95,1.51,-1.51,-1.06,-1.69,-3.46,-3.46,-3.46
268.48,-1.98,1.45,-1.98,1.46,-1.46,-1.04,-1.65,-3.44,-3.43,-3.43
271.16,-2.01,1.39,-2.01,1.40,-1.40,-1.01,-1.60,-3.41,-3.41,-3.40
273.87,-2.05,1.33,-2.04,1.35,-1.35,-0.98,-1.55,-3.40,-3.39,-3.38
276.61,-2.08,1.27,-2.07,1.29,-1.29,-0.95,-1.49,-3.37,-3.36,-3.35
279.38,-2.11,1.22,-2.11,1.23,-1.23,-0.92,-1.44,-3.34,-3.34,-3.33
282.17,-2.15,1.16,-2.15,1.16,-1.16,-0.90,-1.38,-3.32,-3.31,-3.31
284.99,-2.19,1.09,-2.19,1.10,-1.10,-0.87,-1.32,-3.29,-3.28,-3.28
287.84,-2.23,1.03,-2.23,1.03,-1.03,-0.85,-1.26,-3.26,-3.26,-3.26
290.72,-2.27,0.95,-2.27,0.96,-0.96,-0.82,-1.20,-3.23,-3.23,-3.22
293.63,-2.31,0.89,-2.31,0.89,-0.89,-0.79,-1.13,-3.20,-3.20,-3.20
296.57,-2.36,0.81,-2.36,0.81,-0.81,-0.77,-1.07,-3.17,-3.17,-3.17
299.53,-2.41,0.73,-2.41,0.73,-0.73,-0.75,-1.00,-3.14,-3.14,-3.14
302.53,-2.46,0.66,-2.46,0.65,-0.65,-0.72,-0.94,-3.11,-3.11,-3.12
305.55,-2.52,0.55,-2.52,0.56,-0.56,-0.70,-0.87,-3.08,-3.08,-3.07
308.61,-2.57,0.47,-2.58,0.47,-0.47,-0.67,-0.80,-3.04,-3.04,-3.04
311.69,-2.64,0.36,-2.64,0.37,-0.37,-0.65,-0.73,-3.01,-3.01,-3.00
314.81,-2.70,0.27,-2.71,0.27,-0.27,-0.63,-0.66,-2.97,-2.98,-2.97
317.96,-2.77,0.17,-2.79,0.16,-0.16,-0.61,-0.59,-2.93,-2.95,-2.94
321.14,-2.84,0.07,-2.87,0.05,-0.05,-0.58,-0.52,-2.89,-2.92,-2.91
324.35,-2.92,-0.03,-2.95,-0.07,0.07,-0.56,-0.45,-2.85,-2.89,-2.89
327.59,-3.01,-0.16,-3.04,-0.18,0.18,-0.54,-0.38,-2.83,-2.86,-2.85
330.87,-3.10,-0.28,-3.13,-0.30,0.30,-0.52,-0.31,-2.81,-2.83,-2.82
334.18,-3.19,-0.39,-3.21,-0.41,0.41,-0.50,-0.23,-2.78,-2.80,-2.80
337.52,-3.28,-0.50,-3.29,-0.51,0.51,-0.47,-0.16,-2.77,-2.78,-2.78
340.90,-3.37,-0.62,-3.36,-0.61,0.61,-0.45,-0.09,-2.76,-2.76,-2.75
344.30,-3.45,-0.72,-3.43,-0.69,0.69,-0.43,-0.02,-2.76,-2.73,-2.73
347.75,-3.52,-0.82,-3.48,-0.76,0.76,-0.41,0.05,-2.76,-2.71,-2.70
351.23,-3.56,-0.88,-3.51,-0.82,0.82,-0.39,0.13,-2.74,-2.69,-2.68
354.74,-3.60,-0.93,-3.54,-0.87,0.87,-0.37,0.20,-2.74,-2.67,-2.67
358.28,-3.60,-0.95,-3.54,-0.89,0.89,-0.35,0.27,-2.71,-2.65,-2.65
361.87,-3.58,-0.95,-3.54,-0.90,0.90,-0.33,0.35,-2.68,-2.63,-2.63
365.49,-3.55,-0.95,-3.51,-0.90,0.90,-0.31,0.42,-2.65,-2.61,-2.60
369.14,-3.50,-0.91,-3.48,-0.88,0.88,-0.29,0.49,-2.62,-2.59,-2.59
372.83,-3.43,-0.85,-3.43,-0.86,0.86,-0.27,0.57,-2.57,-2.57,-2.58
376.56,-3.36,-0.80,-3.38,-0.82,0.82,-0.24,0.64,-2.54,-2.55,-2.56
380.33,-3.30,-0.77,-3.32,-0.78,0.78,-0.22,0.71,-2.52,-2.53,-2.53
384.13,-3.22,-0.71,-3.25,-0.74,0.74,-0.20,0.79,-2.48,-2.51,-2.51
387.97,-3.16,-0.67,-3.19,-0.70,0.70,-0.18,0.86,-2.46,-2.49,-2.49
391.85,-3.10,-0.63,-3.13,-0.66,0.66,-0.16,0.93,-2.44,-2.47,-2.47
395.77,-3.05,-0.61,-3.08,-0.62,0.62,-0.14,1.01,-2.43,-2.45,-2.44
399.73,-3.00,-0.58,-3.03,-0.60,0.60,-0.11,1.08,-2.41,-2.43,-2.42
403.72,-2.96,-0.55,-2.98,-0.58,0.58,-0.09,1.15,-2.39,-2.41,-2.41
407.76,-2.94,-0.55,-2.95,-0.56,0.56,-0.07,1.22,-2.38,-2.39,-2.39
411.84,-2.92,-0.56,-2.92,-0.55,0.55,-0.05,1.30,-2.37,-2.36,-2.36
415.96,-2.89,-0.55,-2.90,-0.55,0.55,-0.02,1.37,-2.34,-2.34,-2.34
420.12,-2.88,-0.56,-2.88,-0.56,0.56,0.00,1.43,-2.32,-2.32,-2.32
424.32,-2.87,-0.58,-2.87,-0.57,0.57,0.03,1.50,-2.30,-2.30,-2.29
428.56,-2.86,-0.59,-2.86,-0.58,0.58,0.05,1.57,-2.28,-2.27,-2.27
432.85,-2.86,-0.61,-2.86,-0.60,0.60,0.08,1.63,-2.26,-2.25,-2.25
437.18,-2.86,-0.64,-2.85,-0.63,0.63,0.10,1.69,-2.23,-2.23,-2.22
441.55,-2.85,-0.66,-2.86,-0.65,0.65,0.13,1.75,-2.20,-2.20,-2.19
445.96,-2.86,-0.69,-2.86,-0.69,0.69,0.16,1.81,-2.18,-2.18,-2.17
450.42,-2.86,-0.70,-2.87,-0.72,0.72,0.19,1.87,-2.14,-2.15,-2.16
454.93,-2.88,-0.76,-2.87,-0.75,0.75,0.22,1.92,-2.13,-2.12,-2.12
459.48,-2.88,-0.78,-2.88,-0.79,0.79,0.25,1.97,-2.09,-2.10,-2.10
464.07,-2.90,-0.83,-2.89,-0.83,0.83,0.28,2.01,-2.08,-2.07,-2.07
468.71,-2.91,-0.88,-2.91,-0.86,0.86,0.32,2.05,-2.05,-2.04,-2.03
473.40,-2.92,-0.91,-2.92,-0.90,0.90,0.35,2.09,-2.02,-2.01,-2.01
478.13,-2.93,-0.95,-2.93,-0.95,0.95,0.39,2.12,-1.98,-1.98,-1.98
482.91,-2.95,-1.00,-2.95,-0.99,0.99,0.42,2.15,-1.96,-1.96,-1.95
