frequency,raw,error,smoothed,error_smoothed,equalization,parametric_eq,fixed_band_eq,equalized_raw,equalized_smoothed,target
20.00,14.84,2.77,14.84,2.74,-2.74,-2.10,-1.24,12.10,12.09,12.07
20.20,14.82,2.75,14.81,2.72,-2.72,-2.15,-1.27,12.09,12.09,12.07
20.40,14.78,2.71,14.79,2.71,-2.71,-2.20,-1.31,12.07,12.08,12.07
20.61,14.76,2.69,14.76,2.69,-2.69,-2.26,-1.35,12.07,12.07,12.07
20.81,14.74,2.67,14.74,2.68,-2.68,-2.31,-1.39,12.06,12.06,12.07
21.02,14.71,2.64,14.71,2.67,-2.67,-2.36,-1.43,12.04,12.05,12.07
21.23,14.70,2.65,14.69,2.66,-2.66,-2.42,-1.47,12.04,12.03,12.05
21.44,14.67,2.63,14.67,2.65,-2.65,-2.47,-1.51,12.02,12.02,12.04
21.66,14.65,2.63,14.65,2.64,-2.64,-2.52,-1.56,12.01,12.01,12.02
21.87,14.62,2.62,14.63,2.64,-2.64,-2.57,-1.60,11.98,11.99,12.00
22.09,14.61,2.62,14.61,2.63,-2.63,-2.62,-1.65,11.97,11.97,11.99
22.31,14.59,2.63,14.59,2.63,-2.63,-2.66,-1.70,11.96,11.96,11.96
22.54,14.57,2.63,14.57,2.64,-2.64,-2.71,-1.75,11.93,11.94,11.94
22.76,14.56,2.64,14.56,2.64,-2.64,-2.75,-1.80,11.92,11.91,11.91
22.99,14.54,2.65,14.54,2.65,-2.65,-2.79,-1.85,11.89,11.89,11.88
23.22,14.52,2.67,14.52,2.66,-2.66,-2.82,-1.90,11.86,11.87,11.85
23.45,14.51,2.68,14.51,2.66,-2.66,-2.85,-1.96,11.85,11.85,11.83
23.69,14.50,2.68,14.49,2.67,-2.67,-2.88,-2.01,11.83,11.83,11.82
23.92,14.49,2.69,14.48,2.68,-2.68,-2.90,-2.07,11.81,11.80,11.80
24.16,14.47,2.68,14.47,2.68,-2.68,-2.92,-2.12,11.79,11.78,11.79
24.40,14.45,2.68,14.45,2.69,-2.69,-2.94,-2.18,11.76,11.76,11.77
24.65,14.44,2.69,14.44,2.69,-2.69,-2.95,-2.24,11.74,11.75,11.75
24.89,14.43,2.70,14.43,2.70,-2.70,-2.95,-2.30,11.73,11.73,11.73
25.14,14.42,2.70,14.42,2.70,-2.70,-2.96,-2.36,11.71,11.71,11.72
25.39,14.40,2.70,14.40,2.71,-2.71,-2.96,-2.42,11.69,11.69,11.70
25.65,14.39,2.70,14.39,2.71,-2.71,-2.95,-2.48,11.67,11.68,11.68
25.91,14.38,2.73,14.38,2.72,-2.72,-2.94,-2.54,11.66,11.66,11.65
26.16,14.37,2.73,14.37,2.73,-2.73,-2.93,-2.60,11.64,11.65,11.64
26.43,14.36,2.73,14.36,2.73,-2.73,-2.92,-2.66,11.63,11.63,11.63
26.69,14.36,2.75,14.35,2.74,-2.74,-2.91,-2.72,11.62,11.61,11.61
26.96,14.35,2.75,14.34,2.75,-2.75,-2.89,-2.78,11.60,11.60,11.60
27.23,14.34,2.75,14.33,2.75,-2.75,-2.87,-2.84,11.59,11.58,11.59
27.50,14.32,2.74,14.33,2.76,-2.76,-2.85,-2.89,11.56,11.57,11.58
27.77,14.32,2.77,14.32,2.76,-2.76,-2.83,-2.94,11.56,11.55,11.55
28.05,14.31,2.77,14.31,2.77,-2.77,-2.81,-3.00,11.54,11.54,11.54
28.33,14.30,2.78,14.30,2.77,-2.77,-2.79,-3.05,11.53,11.53,11.52
28.62,14.29,2.78,14.29,2.78,-2.78,-2.77,-3.09,11.51,11.51,11.51
28.90,14.28,2.78,14.28,2.78,-2.78,-2.75,-3.14,11.50,11.50,11.50
29.19,14.27,2.79,14.27,2.79,-2.79,-2.73,-3.18,11.48,11.49,11.48
29.48,14.26,2.79,14.26,2.79,-2.79,-2.71,-3.22,11.47,11.47,11.47
29.78,14.25,2.79,14.25,2.79,-2.79,-2.69,-3.25,11.45,11.46,11.46
30.08,14.25,2.80,14.24,2.80,-2.80,-2.67,-3.28,11.45,11.44,11.45
30.38,14.23,2.80,14.23,2.80,-2.80,-2.66,-3.31,11.43,11.43,11.43
30.68,14.22,2.80,14.22,2.81,-2.81,-2.64,-3.33,11.41,11.41,11.42
30.99,14.22,2.83,14.20,2.81,-2.81,-2.63,-3.34,11.41,11.40,11.39
31.30,14.19,2.81,14.19,2.81,-2.81,-2.61,-3.36,11.38,11.38,11.38
31.61,14.18,2.81,14.17,2.81,-2.81,-2.60,-3.37,11.37,11.36,11.37
31.93,14.16,2.81,14.16,2.81,-2.81,-2.59,-3.37,11.35,11.34,11.35
32.24,14.13,2.82,14.14,2.82,-2.82,-2.58,-3.37,11.31,11.32,11.31
32.57,14.12,2.82,14.12,2.82,-2.82,-2.57,-3.37,11.30,11.30,11.30
32.89,14.10,2.81,14.10,2.82,-2.82,-2.57,-3.36,11.28,11.28,11.29
33.22,14.08,2.82,14.08,2.82,-2.82,-2.56,-3.35,11.26,11.26,11.25
33.55,14.06,2.82,14.06,2.82,-2.82,-2.56,-3.33,11.23,11.24,11.24
33.89,14.04,2.82,14.04,2.83,-2.83,-2.56,-3.32,11.21,11.22,11.22
34.23,14.02,2.82,14.02,2.83,-2.83,-2.55,-3.29,11.19,11.20,11.19
34.57,14.01,2.84,14.00,2.83,-2.83,-2.55,-3.27,11.18,11.17,11.17
34.92,13.99,2.84,13.99,2.83,-2.83,-2.56,-3.24,11.16,11.15,11.15
35.27,13.97,2.84,13.97,2.83,-2.83,-2.56,-3.22,11.13,11.13,11.13
35.62,13.95,2.84,13.95,2.84,-2.84,-2.56,-3.19,11.11,11.11,11.11
35.97,13.93,2.84,13.93,2.84,-2.84,-2.57,-3.16,11.09,11.09,11.09
36.33,13.91,2.84,13.91,2.84,-2.84,-2.57,-3.12,11.07,11.07,11.07
36.70,13.88,2.83,13.89,2.84,-2.84,-2.58,-3.09,11.04,11.04,11.05
37.06,13.87,2.85,13.87,2.84,-2.84,-2.59,-3.06,11.03,11.02,11.02
37.43,13.85,2.84,13.85,2.84,-2.84,-2.60,-3.02,11.00,11.00,11.01
37.81,13.82,2.84,13.82,2.84,-2.84,-2.61,-2.99,10.97,10.98,10.98
38.19,13.81,2.85,13.80,2.84,-2.84,-2.62,-2.96,10.96,10.96,10.96
38.57,13.78,2.84,13.78,2.84,-2.84,-2.63,-2.93,10.93,10.94,10.94
38.95,13.76,2.84,13.76,2.84,-2.84,-2.64,-2.89,10.91,10.92,10.92
39.34,13.74,2.85,13.74,2.84,-2.84,-2.66,-2.86,10.89,10.90,10.89
39.74,13.72,2.85,13.72,2.84,-2.84,-2.67,-2.83,10.88,10.88,10.86
40.14,13.70,2.84,13.70,2.84,-2.84,-2.69,-2.80,10.86,10.86,10.86
40.54,13.68,2.85,13.68,2.84,-2.84,-2.70,-2.78,10.84,10.84,10.83
40.94,13.66,2.84,13.66,2.84,-2.84,-2.72,-2.75,10.82,10.82,10.82
41.35,13.63,2.84,13.63,2.84,-2.84,-2.74,-2.73,10.79,10.80,10.79
41.76,13.62,2.84,13.61,2.84,-2.84,-2.76,-2.70,10.78,10.78,10.78
42.18,13.59,2.83,13.59,2.84,-2.84,-2.77,-2.68,10.75,10.76,10.76
42.60,13.57,2.83,13.57,2.84,-2.84,-2.79,-2.66,10.73,10.73,10.74
43.03,13.55,2.82,13.55,2.84,-2.84,-2.81,-2.65,10.71,10.71,10.73
43.46,13.53,2.83,13.53,2.83,-2.83,-2.84,-2.63,10.69,10.69,10.70
43.90,13.51,2.84,13.51,2.83,-2.83,-2.86,-2.62,10.68,10.67,10.67
44.33,13.49,2.84,13.49,2.83,-2.83,-2.88,-2.61,10.66,10.66,10.65
44.78,13.46,2.83,13.46,2.83,-2.83,-2.90,-2.60,10.63,10.63,10.63
45.23,13.44,2.84,13.44,2.83,-2.83,-2.92,-2.59,10.61,10.61,10.60
45.68,13.42,2.84,13.42,2.83,-2.83,-2.95,-2.58,10.59,10.59,10.58
46.13,13.40,2.84,13.40,2.83,-2.83,-2.97,-2.58,10.57,10.57,10.56
46.60,13.38,2.83,13.38,2.83,-2.83,-3.00,-2.58,10.55,10.55,10.55
47.06,13.36,2.83,13.35,2.83,-2.83,-3.02,-2.58,10.53,10.52,10.53
47.53,13.33,2.82,13.33,2.83,-2.83,-3.05,-2.58,10.50,10.50,10.51
48.01,13.31,2.81,13.31,2.83,-2.83,-3.07,-2.58,10.48,10.48,10.50
48.49,13.29,2.83,13.28,2.83,-2.83,-3.10,-2.59,10.46,10.45,10.46
48.97,13.26,2.83,13.26,2.83,-2.83,-3.13,-2.60,10.43,10.43,10.43
49.46,13.24,2.84,13.24,2.83,-2.83,-3.15,-2.60,10.41,10.41,10.40
49.96,13.21,2.85,13.22,2.83,-2.83,-3.18,-2.62,10.37,10.38,10.36
50.46,13.20,2.84,13.19,2.84,-2.84,-3.21,-2.63,10.36,10.36,10.36
50.96,13.17,2.84,13.17,2.84,-2.84,-3.24,-2.64,10.33,10.33,10.33
51.47,13.15,2.85,13.15,2.84,-2.84,-3.26,-2.65,10.31,10.30,10.30
51.99,13.12,2.85,13.12,2.85,-2.85,-3.29,-2.67,10.27,10.28,10.27
52.51,13.10,2.84,13.10,2.85,-2.85,-3.32,-2.69,10.25,10.25,10.26
53.03,13.08,2.85,13.08,2.86,-2.86,-3.35,-2.70,10.22,10.22,10.23
53.56,13.06,2.86,13.06,2.86,-2.86,-3.38,-2.72,10.20,10.20,10.20
54.10,13.04,2.87,13.03,2.86,-2.86,-3.41,-2.74,10.18,10.17,10.17
54.64,13.01,2.86,13.01,2.87,-2.87,-3.44,-2.76,10.14,10.14,10.14
55.18,12.99,2.87,12.99,2.87,-2.87,-3.47,-2.78,10.12,10.12,10.11
55.74,12.97,2.88,12.97,2.88,-2.88,-3.50,-2.80,10.09,10.09,10.08
56.29,12.94,2.88,12.94,2.88,-2.88,-3.53,-2.82,10.06,10.06,10.06
56.86,12.92,2.89,12.92,2.89,-2.89,-3.56,-2.84,10.03,10.03,10.03
57.42,12.90,2.90,12.90,2.89,-2.89,-3.59,-2.86,10.01,10.01,10.00
58.00,12.88,2.90,12.87,2.90,-2.90,-3.62,-2.88,9.98,9.98,9.98
58.58,12.85,2.91,12.85,2.91,-2.91,-3.65,-2.90,9.94,9.95,9.94
59.16,12.83,2.91,12.83,2.91,-2.91,-3.68,-2.92,9.92,9.92,9.92
59.76,12.80,2.91,12.81,2.92,-2.92,-3.72,-2.94,9.88,9.89,9.89
60.35,12.79,2.93,12.78,2.93,-2.93,-3.75,-2.95,9.86,9.85,9.86
60.96,12.76,2.92,12.76,2.94,-2.94,-3.78,-2.97,9.82,9.82,9.84
61.57,12.74,2.95,12.74,2.95,-2.95,-3.81,-2.98,9.79,9.79,9.79
62.18,12.72,2.96,12.72,2.95,-2.95,-3.84,-3.00,9.76,9.76,9.76
62.80,12.70,2.97,12.69,2.96,-2.96,-3.87,-3.01,9.73,9.73,9.73
63.43,12.67,2.98,12.67,2.97,-2.97,-3.91,-3.02,9.70,9.70,9.69
64.07,12.65,2.99,12.65,2.98,-2.98,-3.94,-3.03,9.67,9.67,9.66
64.71,12.63,3.00,12.63,2.99,-2.99,-3.97,-3.04,9.64,9.64,9.63
65.35,12.60,3.00,12.61,3.00,-3.00,-4.00,-3.05,9.60,9.60,9.60
66.01,12.58,3.00,12.58,3.01,-3.01,-4.03,-3.06,9.57,9.57,9.58
66.67,12.56,3.02,12.56,3.02,-3.02,-4.07,-3.07,9.54,9.54,9.54
67.33,12.55,3.03,12.54,3.03,-3.03,-4.10,-3.08,9.52,9.51,9.52
68.01,12.52,3.04,12.52,3.04,-3.04,-4.13,-3.09,9.48,9.48,9.48
68.69,12.50,3.05,12.50,3.05,-3.05,-4.16,-3.09,9.45,9.45,9.45
69.37,12.48,3.06,12.48,3.06,-3.06,-4.20,-3.10,9.42,9.42,9.41
70.07,12.46,3.07,12.46,3.08,-3.08,-4.23,-3.11,9.38,9.38,9.39
70.77,12.44,3.08,12.44,3.09,-3.09,-4.26,-3.12,9.35,9.35,9.36
71.48,12.42,3.11,12.42,3.11,-3.11,-4.29,-3.12,9.31,9.31,9.31
72.19,12.40,3.12,12.40,3.13,-3.13,-4.32,-3.13,9.27,9.28,9.28
72.91,12.39,3.15,12.38,3.14,-3.14,-4.35,-3.14,9.24,9.24,9.24
73.64,12.36,3.16,12.36,3.16,-3.16,-4.39,-3.15,9.19,9.20,9.19
74.38,12.34,3.18,12.34,3.19,-3.19,-4.42,-3.17,9.15,9.16,9.16
75.12,12.33,3.23,12.32,3.21,-3.21,-4.45,-3.18,9.12,9.11,9.10
75.87,12.31,3.24,12.30,3.23,-3.23,-4.48,-3.19,9.07,9.07,9.07
76.63,12.28,3.25,12.28,3.26,-3.26,-4.51,-3.21,9.02,9.02,9.03
77.40,12.26,3.28,12.26,3.29,-3.29,-4.54,-3.23,8.97,8.98,8.98
78.17,12.24,3.32,12.24,3.32,-3.32,-4.58,-3.25,8.92,8.93,8.92
78.95,12.23,3.34,12.23,3.34,-3.34,-4.61,-3.27,8.88,8.88,8.89
79.74,12.21,3.37,12.21,3.37,-3.37,-4.64,-3.29,8.83,8.83,8.84
80.54,12.18,3.40,12.19,3.41,-3.41,-4.67,-3.32,8.77,8.78,8.78
81.35,12.17,3.44,12.17,3.44,-3.44,-4.70,-3.35,8.73,8.73,8.73
82.16,12.15,3.47,12.15,3.47,-3.47,-4.73,-3.38,8.68,8.68,8.67
82.98,12.13,3.50,12.13,3.50,-3.50,-4.76,-3.41,8.63,8.62,8.63
83.81,12.11,3.55,12.11,3.54,-3.54,-4.79,-3.45,8.57,8.57,8.56
84.65,12.08,3.57,12.09,3.57,-3.57,-4.82,-3.49,8.50,8.51,8.51
85.50,12.07,3.61,12.07,3.61,-3.61,-4.85,-3.53,8.46,8.45,8.46
86.35,12.05,3.65,12.04,3.65,-3.65,-4.88,-3.57,8.40,8.40,8.40
87.22,12.02,3.68,12.02,3.68,-3.68,-4.91,-3.62,8.34,8.34,8.34
88.09,12.01,3.73,12.00,3.72,-3.72,-4.94,-3.67,8.29,8.28,8.28
88.97,11.98,3.75,11.98,3.76,-3.76,-4.97,-3.72,8.22,8.22,8.23
89.86,11.96,3.79,11.96,3.80,-3.80,-4.99,-3.77,8.16,8.16,8.17
90.76,11.94,3.85,11.94,3.84,-3.84,-5.02,-3.83,8.10,8.10,8.09
91.66,11.92,3.88,11.92,3.88,-3.88,-5.05,-3.89,8.04,8.04,8.04
92.58,11.90,3.93,11.90,3.92,-3.92,-5.08,-3.95,7.98,7.98,7.97
93.51,11.88,3.96,11.88,3.97,-3.97,-5.11,-4.02,7.91,7.91,7.92
94.44,11.86,4.00,11.86,4.01,-4.01,-5.13,-4.09,7.85,7.85,7.86
95.39,11.84,4.05,11.84,4.06,-4.06,-5.16,-4.16,7.78,7.78,7.79
96.34,11.82,4.10,11.82,4.10,-4.10,-5.19,-4.23,7.72,7.72,7.72
97.30,11.80,4.15,11.80,4.15,-4.15,-5.21,-4.31,7.65,7.65,7.65
98.28,11.78,4.20,11.78,4.20,-4.20,-5.24,-4.38,7.58,7.58,7.58
99.26,11.76,4.25,11.76,4.25,-4.25,-5.27,-4.46,7.51,7.51,7.51
100.25,11.74,4.30,11.74,4.30,-4.30,-5.29,-4.54,7.44,7.44,7.44
101.25,11.72,4.35,11.72,4.35,-4.35,-5.32,-4.63,7.37,7.37,7.37
102.27,11.70,4.40,11.70,4.40,-4.40,-5.34,-4.71,7.30,7.30,7.29
103.29,11.68,4.46,11.68,4.45,-4.45,-5.37,-4.80,7.23,7.22,7.22
104.32,11.66,4.51,11.66,4.51,-4.51,-5.39,-4.88,7.15,7.15,7.15
105.37,11.64,4.56,11.64,4.56,-4.56,-5.41,-4.97,7.08,7.08,7.08
106.42,11.61,4.61,11.62,4.62,-4.62,-5.44,-5.05,6.99,7.00,7.00
107.48,11.60,4.67,11.60,4.67,-4.67,-5.46,-5.14,6.92,6.92,6.93
108.56,11.58,4.73,11.58,4.73,-4.73,-5.48,-5.22,6.85,6.85,6.85
109.64,11.56,4.79,11.56,4.79,-4.79,-5.51,-5.31,6.77,6.77,6.77
110.74,11.54,4.84,11.54,4.85,-4.85,-5.53,-5.39,6.69,6.69,6.70
111.85,11.53,4.90,11.53,4.91,-4.91,-5.55,-5.47,6.62,6.62,6.63
112.97,11.51,4.98,11.51,4.97,-4.97,-5.57,-5.54,6.54,6.54,6.53
114.10,11.49,5.03,11.49,5.03,-5.03,-5.59,-5.62,6.46,6.46,6.46
115.24,11.48,5.09,11.47,5.09,-5.09,-5.62,-5.69,6.39,6.38,6.39
116.39,11.46,5.16,11.46,5.15,-5.15,-5.64,-5.75,6.31,6.31,6.30
117.55,11.44,5.21,11.44,5.21,-5.21,-5.66,-5.81,6.23,6.23,6.22
118.73,11.42,5.27,11.42,5.26,-5.26,-5.68,-5.87,6.15,6.16,6.15
119.92,11.41,5.32,11.41,5.32,-5.32,-5.69,-5.92,6.09,6.08,6.09
121.12,11.39,5.38,11.39,5.38,-5.38,-5.71,-5.96,6.01,6.01,6.01
122.33,11.37,5.43,11.37,5.43,-5.43,-5.73,-6.00,5.93,5.94,5.94
123.55,11.36,5.48,11.36,5.49,-5.49,-5.75,-6.04,5.87,5.87,5.88
124.79,11.34,5.54,11.34,5.54,-5.54,-5.77,-6.06,5.80,5.80,5.80
126.03,11.33,5.59,11.33,5.60,-5.60,-5.79,-6.08,5.73,5.73,5.74
127.29,11.31,5.64,11.31,5.65,-5.65,-5.80,-6.10,5.66,5.66,5.67
128.57,11.30,5.71,11.30,5.70,-5.70,-5.82,-6.10,5.60,5.60,5.59
129.85,11.29,5.76,11.29,5.75,-5.75,-5.83,-6.11,5.54,5.54,5.53
131.15,11.27,5.79,11.27,5.80,-5.80,-5.85,-6.10,5.47,5.48,5.47
132.46,11.26,5.85,11.26,5.84,-5.84,-5.86,-6.09,5.42,5.42,5.41
133.79,11.25,5.89,11.24,5.89,-5.89,-5.88,-6.08,5.36,5.36,5.36
135.12,11.23,5.93,11.23,5.93,-5.93,-5.89,-6.06,5.30,5.30,5.29
136.48,11.22,5.97,11.22,5.97,-5.97,-5.91,-6.04,5.25,5.25,5.25
137.84,11.20,5.99,11.20,6.00,-6.00,-5.92,-6.02,5.20,5.20,5.21
139.22,11.19,6.05,11.19,6.04,-6.04,-5.93,-5.99,5.15,5.15,5.14
140.61,11.18,6.09,11.17,6.07,-6.07,-5.95,-5.96,5.11,5.11,5.09
142.02,11.16,6.09,11.16,6.10,-6.10,-5.96,-5.92,5.06,5.06,5.07
143.44,11.15,6.12,11.15,6.12,-6.12,-5.97,-5.89,5.03,5.02,5.03
144.87,11.13,6.15,11.13,6.15,-6.15,-5.98,-5.86,4.98,4.98,4.98
146.32,11.12,6.18,11.12,6.17,-6.17,-5.99,-5.82,4.94,4.94,4.94
147.78,11.11,6.20,11.10,6.20,-6.20,-6.00,-5.79,4.91,4.91,4.91
149.26,11.10,6.22,11.09,6.22,-6.22,-6.01,-5.75,4.88,4.87,4.88
150.75,11.07,6.24,11.08,6.25,-6.25,-6.02,-5.72,4.82,4.83,4.83
152.26,11.06,6.26,11.07,6.27,-6.27,-6.03,-5.69,4.79,4.80,4.80
153.78,11.05,6.29,11.05,6.29,-6.29,-6.04,-5.66,4.76,4.76,4.76
155.32,11.04,6.31,11.04,6.31,-6.31,-6.04,-5.63,4.73,4.73,4.73
156.88,11.03,6.33,11.03,6.34,-6.34,-6.05,-5.61,4.69,4.69,4.70
158.44,11.02,6.36,11.02,6.36,-6.36,-6.06,-5.58,4.66,4.66,4.66
160.03,11.01,6.39,11.00,6.38,-6.38,-6.06,-5.56,4.63,4.63,4.62
161.63,10.99,6.41,10.99,6.40,-6.40,-6.07,-5.55,4.59,4.59,4.58
163.24,10.98,6.43,10.98,6.42,-6.42,-6.08,-5.54,4.56,4.56,4.55
164.88,10.97,6.44,10.96,6.44,-6.44,-6.08,-5.53,4.53,4.52,4.53
166.53,10.95,6.46,10.94,6.46,-6.46,-6.08,-5.52,4.49,4.49,4.49
168.19,10.93,6.48,10.93,6.48,-6.48,-6.09,-5.52,4.45,4.45,4.45
169.87,10.91,6.50,10.91,6.49,-6.49,-6.09,-5.52,4.42,4.41,4.41
171.57,10.89,6.51,10.88,6.51,-6.51,-6.09,-5.53,4.38,4.37,4.38
173.29,10.86,6.51,10.86,6.53,-6.53,-6.09,-5.54,4.33,4.34,4.35
175.02,10.84,6.53,10.84,6.54,-6.54,-6.10,-5.55,4.30,4.30,4.31
176.77,10.82,6.56,10.82,6.56,-6.56,-6.10,-5.57,4.26,4.26,4.26
178.54,10.79,6.57,10.79,6.57,-6.57,-6.10,-5.60,4.22,4.22,4.22
180.32,10.77,6.59,10.77,6.59,-6.59,-6.10,-5.63,4.18,4.18,4.18
182.13,10.74,6.60,10.74,6.61,-6.61,-6.10,-5.66,4.13,4.14,4.14
183.95,10.71,6.62,10.72,6.62,-6.62,-6.09,-5.69,4.09,4.10,4.09
185.79,10.70,6.64,10.70,6.64,-6.64,-6.09,-5.74,4.06,4.06,4.06
187.65,10.67,6.66,10.68,6.65,-6.65,-6.09,-5.78,4.01,4.02,4.01
189.52,10.64,6.66,10.65,6.67,-6.67,-6.09,-5.83,3.97,3.98,3.98
191.42,10.63,6.69,10.63,6.68,-6.68,-6.08,-5.88,3.95,3.95,3.94
193.33,10.61,6.69,10.61,6.70,-6.70,-6.08,-5.94,3.91,3.91,3.92
195.27,10.59,6.70,10.59,6.71,-6.71,-6.07,-6.00,3.88,3.88,3.89
197.22,10.57,6.71,10.56,6.72,-6.72,-6.07,-6.06,3.85,3.85,3.86
199.19,10.55,6.74,10.54,6.72,-6.72,-6.06,-6.12,3.83,3.82,3.81
201.18,10.53,6.74,10.52,6.73,-6.73,-6.06,-6.19,3.80,3.79,3.79
203.19,10.49,6.72,10.49,6.73,-6.73,-6.05,-6.26,3.76,3.76,3.77
205.23,10.47,6.73,10.46,6.73,-6.73,-6.04,-6.34,3.74,3.74,3.74
207.28,10.44,6.71,10.44,6.72,-6.72,-6.03,-6.41,3.72,3.71,3.73
209.35,10.41,6.72,10.41,6.72,-6.72,-6.02,-6.48,3.69,3.69,3.69
211.44,10.38,6.72,10.38,6.71,-6.71,-6.01,-6.56,3.67,3.67,3.66
213.56,10.35,6.70,10.34,6.69,-6.69,-6.00,-6.63,3.66,3.65,3.65
215.69,10.31,6.67,10.31,6.68,-6.68,-5.99,-6.71,3.63,3.63,3.64
217.85,10.27,6.64,10.28,6.66,-6.66,-5.98,-6.78,3.61,3.62,3.62
220.03,10.24,6.64,10.24,6.64,-6.64,-5.97,-6.85,3.60,3.61,3.60
222.23,10.21,6.62,10.21,6.61,-6.61,-5.95,-6.92,3.60,3.60,3.59
224.45,10.18,6.59,10.17,6.59,-6.59,-5.94,-6.99,3.59,3.59,3.59
226.70,10.14,6.56,10.14,6.56,-6.56,-5.93,-7.05,3.58,3.58,3.58
228.96,10.11,6.53,10.11,6.53,-6.53,-5.91,-7.10,3.58,3.58,3.57
231.25,10.07,6.49,10.08,6.50,-6.50,-5.89,-7.15,3.57,3.58,3.58
233.57,10.04,6.45,10.05,6.46,-6.46,-5.88,-7.19,3.58,3.58,3.59
235.90,10.01,6.42,10.02,6.43,-6.43,-5.86,-7.23,3.58,3.59,3.59
238.26,9.99,6.40,9.99,6.39,-6.39,-5.84,-7.26,3.60,3.60,3.59
240.64,9.96,6.35,9.96,6.35,-6.35,-5.82,-7.27,3.60,3.61,3.61
243.05,9.94,6.32,9.93,6.32,-6.32,-5.81,-7.28,3.62,3.62,3.62
245.48,9.90,6.26,9.91,6.28,-6.28,-5.79,-7.28,3.62,3.63,3.63
247.93,9.88,6.23,9.88,6.23,-6.23,-5.76,-7.27,3.64,3.65,3.65
250.41,9.86,6.20,9.86,6.19,-6.19,-5.74,-7.24,3.67,3.66,3.66
252.92,9.84,6.15,9.83,6.15,-6.15,-5.72,-7.21,3.69,3.68,3.69
255.45,9.80,6.09,9.81,6.11,-6.11,-5.70,-7.17,3.69,3.70,3.71
258.00,9.79,6.06,9.79,6.07,-6.07,-5.67,-7.11,3.72,3.72,3.73
260.58,9.77,6.03,9.76,6.02,-6.02,-5.65,-7.05,3.75,3.74,3.74
263.19,9.74,5.98,9.74,5.97,-5.97,-5.62,-6.98,3.77,3.77,3.76
265.82,9.72,5.93,9.71,5.93,-5.93,-5.60,-6.89,3.79,3.79,3.79
268.48,9.69,5.88,9.69,5.88,-5.88,-5.57,-6.80,3.81,3.81,3.81
271.16,9.67,5.83,9.67,5.83,-5.83,-5.54,-6.70,3.84,3.83,3.84
273.87,9.64,5.78,9.64,5.79,-5.79,-5.51,-6.60,3.85,3.86,3.85
276.61,9.62,5.73,9.61,5.74,-5.74,-5.48,-6.49,3.88,3.88,3.89
279.38,9.59,5.69,9.59,5.69,-5.69,-5.45,-6.37,3.90,3.90,3.90
282.17,9.56,5.63,9.56,5.64,-5.64,-5.42,-6.25,3.92,3.93,3.93
284.99,9.53,5.58,9.53,5.58,-5.58,-5.39,-6.12,3.95,3.95,3.95
287.84,9.50,5.52,9.51,5.53,-5.53,-5.35,-5.99,3.97,3.98,3.97
290.72,9.48,5.47,9.48,5.47,-5.47,-5.32,-5.86,4.01,4.01,4.01
293.63,9.45,5.43,9.45,5.41,-5.41,-5.29,-5.73,4.04,4.03,4.02
296.57,9.42,5.36,9.42,5.35,-5.35,-5.25,-5.59,4.06,4.06,4.06
299.53,9.39,5.31,9.38,5.29,-5.29,-5.21,-5.46,4.09,4.09,4.08
302.53,9.35,5.24,9.35,5.23,-5.23,-5.17,-5.32,4.12,4.12,4.11
305.55,9.32,5.16,9.32,5.17,-5.17,-5.13,-5.19,4.15,4.15,4.15
308.61,9.29,5.11,9.28,5.10,-5.10,-5.09,-5.05,4.19,4.18,4.18
311.69,9.25,5.03,9.25,5.04,-5.04,-5.05,-4.92,4.21,4.21,4.22
314.81,9.22,4.97,9.21,4.97,-4.97,-5.01,-4.79,4.25,4.24,4.25
317.96,9.17,4.89,9.18,4.90,-4.90,-4.97,-4.65,4.27,4.27,4.28
321.14,9.14,4.83,9.14,4.84,-4.84,-4.92,-4.53,4.30,4.30,4.30
324.35,9.10,4.77,9.10,4.77,-4.77,-4.88,-4.40,4.33,4.33,4.33
327.59,9.06,4.69,9.06,4.70,-4.70,-4.83,-4.27,4.36,4.36,4.37
330.87,9.02,4.62,9.02,4.63,-4.63,-4.78,-4.15,4.39,4.39,4.39
334.18,8.98,4.57,8.98,4.56,-4.56,-4.74,-4.03,4.41,4.41,4.41
337.52,8.94,4.50,8.94,4.50,-4.50,-4.69,-3.91,4.44,4.44,4.44
340.90,8.90,4.43,8.89,4.43,-4.43,-4.63,-3.80,4.47,4.46,4.47
344.30,8.85,4.37,8.85,4.36,-4.36,-4.58,-3.69,4.49,4.48,4.48
347.75,8.80,4.29,8.80,4.30,-4.30,-4.53,-3.58,4.50,4.50,4.51
351.23,8.76,4.23,8.75,4.23,-4.23,-4.47,-3.47,4.53,4.52,4.53
354.74,8.71,4.16,8.70,4.16,-4.16,-4.42,-3.37,4.55,4.54,4.54
358.28,8.66,4.10,8.65,4.09,-4.09,-4.36,-3.26,4.57,4.56,4.56
361.87,8.61,4.03,8.61,4.02,-4.02,-4.30,-3.16,4.59,4.58,4.58
365.49,8.55,3.94,8.56,3.95,-3.95,-4.24,-3.07,4.60,4.60,4.61
369.14,8.50,3.88,8.50,3.88,-3.88,-4.18,-2.97,4.61,4.62,4.62
372.83,8.45,3.82,8.45,3.81,-3.81,-4.12,-2.88,4.63,4.64,4.63
376.56,8.41,3.76,8.40,3.75,-3.75,-4.05,-2.79,4.66,4.66,4.65
380.33,8.35,3.67,8.35,3.68,-3.68,-3.99,-2.71,4.67,4.68,4.68
384.13,8.31,3.61,8.31,3.61,-3.61,-3.92,-2.62,4.70,4.70,4.70
387.97,8.26,3.54,8.26,3.54,-3.54,-3.85,-2.54,4.72,4.72,4.72
391.85,8.21,3.47,8.21,3.48,-3.48,-3.78,-2.46,4.73,4.74,4.73
395.77,8.17,3.41,8.17,3.41,-3.41,-3.71,-2.38,4.76,4.76,4.76
399.73,8.13,3.35,8.13,3.35,-3.35,-3.63,-2.30,4.78,4.78,4.78
403.72,8.08,3.28,8.09,3.29,-3.29,-3.56,-2.23,4.79,4.80,4.80
407.76,8.04,3.22,8.05,3.23,-3.23,-3.48,-2.15,4.81,4.82,4.82
411.84,8.00,3.15,8.02,3.17,-3.17,-3.40,-2.08,4.83,4.84,4.85
415.96,7.97,3.10,7.98,3.12,-3.12,-3.32,-2.01,4.85,4.87,4.87
420.12,7.94,3.05,7.95,3.06,-3.06,-3.24,-1.94,4.88,4.89,4.88
424.32,7.90,2.99,7.91,3.00,-3.00,-3.15,-1.87,4.90,4.91,4.91
428.56,7.87,2.94,7.87,2.94,-2.94,-3.07,-1.80,4.93,4.93,4.93
432.85,7.83,2.88,7.83,2.87,-2.87,-2.98,-1.74,4.96,4.96,4.95
437.18,7.80,2.82,7.78,2.80,-2.80,-2.89,-1.67,5.00,4.98,4.98
441.55,7.76,2.75,7.73,2.73,-2.73,-2.80,-1.61,5.03,5.00,5.01
445.96,7.71,2.68,7.68,2.65,-2.65,-2.70,-1.54,5.06,5.03,5.03
450.42,7.64,2.59,7.62,2.56,-2.56,-2.60,-1.47,5.07,5.06,5.05
454.93,7.57,2.48,7.56,2.48,-2.48,-2.50,-1.41,5.09,5.08,5.09
459.48,7.50,2.39,7.49,2.38,-2.38,-2.40,-1.34,5.12,5.11,5.10
464.07,7.41,2.28,7.42,2.28,-2.28,-2.30,-1.28,5.13,5.14,5.13
468.71,7.33,2.16,7.35,2.18,-2.18,-2.19,-1.21,5.15,5.16,5.17
473.40,7.25,2.06,7.27,2.08,-2.08,-2.08,-1.14,5.17,5.19,5.19
478.13,7.17,1.95,7.19,1.96,-1.96,-1.97,-1.07,5.21,5.22,5.22
