frequency,raw,error,smoothed,error_smoothed,equalization,parametric_eq,fixed_band_eq,equalized_raw,equalized_smoothed,target
20.00,1.55,-7.39,1.56,-7.38,7.38,6.81,3.20,8.93,8.95,8.94
20.20,1.60,-7.34,1.60,-7.34,7.34,6.86,3.29,8.94,8.94,8.94
20.40,1.64,-7.30,1.64,-7.30,7.30,6.91,3.39,8.94,8.94,8.94
20.61,1.68,-7.26,1.68,-7.26,7.26,6.95,3.48,8.94,8.94,8.94
20.81,1.72,-7.21,1.71,-7.23,7.23,6.99,3.58,8.95,8.94,8.93
21.02,1.75,-7.18,1.74,-7.19,7.19,7.03,3.68,8.94,8.93,8.93
21.23,1.77,-7.16,1.77,-7.16,7.16,7.07,3.78,8.93,8.93,8.93
21.44,1.79,-7.15,1.79,-7.13,7.13,7.10,3.89,8.92,8.93,8.94
21.66,1.82,-7.11,1.82,-7.11,7.11,7.12,4.00,8.93,8.92,8.93
21.87,1.84,-7.09,1.84,-7.08,7.08,7.15,4.11,8.92,8.92,8.93
22.09,1.86,-7.06,1.86,-7.06,7.06,7.16,4.23,8.92,8.92,8.92
22.31,1.87,-7.04,1.87,-7.04,7.04,7.18,4.35,8.91,8.91,8.91
22.54,1.89,-7.01,1.89,-7.02,7.02,7.19,4.47,8.91,8.91,8.90
22.76,1.90,-7.00,1.89,-7.01,7.01,7.20,4.59,8.91,8.90,8.90
22.99,1.91,-6.99,1.90,-7.00,7.00,7.20,4.72,8.90,8.90,8.90
23.22,1.92,-6.97,1.91,-6.98,6.98,7.21,4.85,8.90,8.89,8.89
23.45,1.92,-6.97,1.91,-6.97,6.97,7.20,4.99,8.89,8.88,8.89
23.69,1.92,-6.96,1.92,-6.96,6.96,7.20,5.13,8.88,8.88,8.88
23.92,1.92,-6.95,1.92,-6.95,6.95,7.19,5.27,8.87,8.87,8.87
24.16,1.92,-6.94,1.92,-6.94,6.94,7.18,5.41,8.86,8.87,8.86
24.40,1.91,-6.95,1.93,-6.94,6.94,7.16,5.56,8.85,8.86,8.86
24.65,1.91,-6.95,1.93,-6.93,6.93,7.14,5.70,8.84,8.86,8.86
24.89,1.92,-6.94,1.94,-6.92,6.92,7.12,5.85,8.84,8.86,8.86
25.14,1.94,-6.92,1.94,-6.91,6.91,7.10,6.01,8.85,8.85,8.86
25.39,1.95,-6.90,1.95,-6.90,6.90,7.07,6.16,8.85,8.85,8.85
25.65,1.96,-6.88,1.95,-6.89,6.89,7.05,6.31,8.85,8.85,8.84
25.91,1.97,-6.87,1.96,-6.88,6.88,7.02,6.47,8.85,8.85,8.84
26.16,1.98,-6.87,1.98,-6.87,6.87,6.99,6.63,8.85,8.85,8.85
26.43,1.99,-6.86,1.99,-6.86,6.86,6.95,6.78,8.85,8.85,8.85
26.69,2.00,-6.85,2.00,-6.84,6.84,6.92,6.94,8.84,8.85,8.85
26.96,2.01,-6.83,2.02,-6.83,6.83,6.89,7.09,8.84,8.84,8.84
27.23,2.02,-6.82,2.03,-6.81,6.81,6.85,7.24,8.83,8.84,8.84
27.50,2.03,-6.81,2.04,-6.80,6.80,6.82,7.38,8.83,8.84,8.84
27.77,2.05,-6.80,2.05,-6.78,6.78,6.78,7.53,8.83,8.84,8.85
28.05,2.07,-6.76,2.06,-6.77,6.77,6.74,7.66,8.84,8.83,8.83
28.33,2.08,-6.75,2.07,-6.76,6.76,6.71,7.79,8.84,8.83,8.83
28.62,2.09,-6.73,2.07,-6.75,6.75,6.67,7.92,8.84,8.82,8.82
28.90,2.09,-6.74,2.08,-6.74,6.74,6.63,8.03,8.83,8.82,8.82
29.19,2.10,-6.71,2.08,-6.73,6.73,6.60,8.13,8.83,8.81,8.81
29.48,2.09,-6.71,2.08,-6.73,6.73,6.56,8.23,8.82,8.80,8.80
29.78,2.09,-6.71,2.08,-6.72,6.72,6.53,8.31,8.81,8.80,8.80
30.08,2.07,-6.72,2.07,-6.72,6.72,6.50,8.37,8.79,8.79,8.79
30.38,2.06,-6.72,2.07,-6.71,6.71,6.47,8.43,8.77,8.79,8.78
30.68,2.06,-6.71,2.07,-6.71,6.71,6.44,8.47,8.77,8.78,8.77
30.99,2.06,-6.71,2.07,-6.70,6.70,6.41,8.49,8.76,8.78,8.77
31.30,2.06,-6.71,2.08,-6.70,6.70,6.38,8.50,8.76,8.77,8.77
31.61,2.06,-6.70,2.08,-6.69,6.69,6.36,8.50,8.75,8.77,8.76
31.93,2.07,-6.69,2.09,-6.68,6.68,6.33,8.47,8.75,8.76,8.76
32.24,2.09,-6.67,2.10,-6.66,6.66,6.31,8.44,8.75,8.76,8.76
32.57,2.10,-6.65,2.11,-6.65,6.65,6.29,8.39,8.75,8.76,8.75
32.89,2.12,-6.63,2.12,-6.63,6.63,6.28,8.33,8.75,8.75,8.75
33.22,2.14,-6.61,2.13,-6.61,6.61,6.26,8.25,8.75,8.74,8.75
33.55,2.15,-6.59,2.14,-6.59,6.59,6.25,8.16,8.74,8.74,8.74
33.89,2.17,-6.56,2.15,-6.57,6.57,6.24,8.07,8.74,8.73,8.73
34.23,2.18,-6.53,2.16,-6.55,6.55,6.23,7.96,8.73,8.71,8.71
34.57,2.19,-6.52,2.17,-6.53,6.53,6.22,7.84,8.72,8.70,8.71
34.92,2.19,-6.49,2.18,-6.50,6.50,6.21,7.72,8.69,8.68,8.68
35.27,2.19,-6.48,2.19,-6.47,6.47,6.21,7.59,8.66,8.66,8.67
35.62,2.19,-6.45,2.19,-6.44,6.44,6.21,7.46,8.63,8.64,8.64
35.97,2.19,-6.43,2.20,-6.41,6.41,6.21,7.32,8.60,8.61,8.62
36.33,2.19,-6.40,2.20,-6.38,6.38,6.21,7.18,8.57,8.59,8.59
36.70,2.20,-6.36,2.21,-6.35,6.35,6.21,7.04,8.55,8.56,8.56
37.06,2.21,-6.32,2.21,-6.31,6.31,6.21,6.90,8.52,8.53,8.53
37.43,2.21,-6.28,2.22,-6.28,6.28,6.21,6.75,8.49,8.49,8.49
37.81,2.23,-6.23,2.22,-6.24,6.24,6.21,6.61,8.47,8.46,8.46
38.19,2.23,-6.19,2.23,-6.20,6.20,6.22,6.47,8.43,8.43,8.42
38.57,2.24,-6.15,2.24,-6.16,6.16,6.22,6.32,8.40,8.40,8.39
38.95,2.25,-6.11,2.25,-6.12,6.12,6.21,6.18,8.37,8.36,8.36
39.34,2.26,-6.06,2.26,-6.08,6.08,6.21,6.04,8.34,8.33,8.32
39.74,2.27,-6.02,2.27,-6.03,6.03,6.20,5.91,8.30,8.30,8.29
40.14,2.28,-5.98,2.28,-5.99,5.99,6.19,5.77,8.27,8.27,8.26
40.54,2.28,-5.96,2.29,-5.95,5.95,6.18,5.64,8.23,8.24,8.24
40.94,2.30,-5.91,2.30,-5.91,5.91,6.16,5.51,8.21,8.21,8.21
41.35,2.32,-5.86,2.31,-5.87,5.87,6.14,5.39,8.19,8.18,8.18
41.76,2.33,-5.82,2.33,-5.83,5.83,6.11,5.26,8.16,8.16,8.15
42.18,2.34,-5.80,2.34,-5.79,5.79,6.08,5.15,8.12,8.13,8.13
42.60,2.35,-5.75,2.36,-5.74,5.74,6.04,5.03,8.09,8.10,8.10
43.03,2.38,-5.69,2.38,-5.70,5.70,6.00,4.92,8.08,8.07,8.07
43.46,2.40,-5.64,2.40,-5.65,5.65,5.95,4.81,8.05,8.05,8.04
43.90,2.42,-5.60,2.42,-5.60,5.60,5.89,4.71,8.02,8.02,8.02
44.33,2.44,-5.54,2.44,-5.55,5.55,5.83,4.60,7.99,7.99,7.98
44.78,2.46,-5.50,2.46,-5.50,5.50,5.76,4.51,7.96,7.96,7.96
45.23,2.48,-5.46,2.48,-5.44,5.44,5.69,4.41,7.92,7.93,7.94
45.68,2.51,-5.39,2.51,-5.38,5.38,5.61,4.32,7.89,7.89,7.90
46.13,2.54,-5.31,2.53,-5.32,5.32,5.52,4.23,7.86,7.86,7.85
46.60,2.56,-5.26,2.56,-5.26,5.26,5.43,4.15,7.82,7.82,7.82
47.06,2.59,-5.19,2.58,-5.19,5.19,5.34,4.07,7.78,7.77,7.78
47.53,2.61,-5.13,2.61,-5.12,5.12,5.25,3.99,7.73,7.73,7.74
48.01,2.64,-5.04,2.64,-5.05,5.05,5.15,3.91,7.69,7.69,7.68
48.49,2.66,-4.98,2.67,-4.97,4.97,5.04,3.84,7.63,7.64,7.64
48.97,2.69,-4.90,2.70,-4.89,4.89,4.94,3.77,7.58,7.59,7.59
49.46,2.73,-4.82,2.73,-4.81,4.81,4.83,3.70,7.54,7.54,7.55
49.96,2.76,-4.72,2.76,-4.73,4.73,4.73,3.64,7.49,7.49,7.48
50.46,2.79,-4.64,2.80,-4.64,4.64,4.62,3.58,7.43,7.44,7.43
50.96,2.83,-4.55,2.83,-4.55,4.55,4.51,3.52,7.38,7.39,7.38
51.47,2.87,-4.46,2.87,-4.47,4.47,4.41,3.46,7.34,7.34,7.33
51.99,2.91,-4.37,2.91,-4.37,4.37,4.30,3.41,7.28,7.28,7.28
52.51,2.96,-4.27,2.95,-4.28,4.28,4.19,3.35,7.24,7.23,7.23
53.03,2.99,-4.20,2.99,-4.19,4.19,4.09,3.30,7.18,7.18,7.19
53.56,3.03,-4.10,3.03,-4.09,4.09,3.98,3.25,7.12,7.13,7.13
54.10,3.08,-4.00,3.08,-4.00,4.00,3.88,3.21,7.08,7.07,7.07
54.64,3.12,-3.90,3.12,-3.91,3.91,3.78,3.16,7.03,7.02,7.02
55.18,3.16,-3.80,3.16,-3.81,3.81,3.68,3.12,6.98,6.97,6.96
55.74,3.20,-3.71,3.20,-3.72,3.72,3.59,3.07,6.92,6.93,6.91
56.29,3.25,-3.62,3.25,-3.63,3.63,3.49,3.03,6.88,6.88,6.87
56.86,3.29,-3.53,3.29,-3.54,3.54,3.40,2.99,6.83,6.82,6.82
57.42,3.33,-3.43,3.33,-3.44,3.44,3.31,2.95,6.77,6.77,6.76
58.00,3.38,-3.33,3.38,-3.34,3.34,3.22,2.90,6.72,6.72,6.71
58.58,3.42,-3.25,3.42,-3.24,3.24,3.14,2.86,6.66,6.66,6.67
59.16,3.45,-3.17,3.46,-3.14,3.14,3.06,2.82,6.59,6.60,6.62
59.76,3.50,-3.07,3.50,-3.04,3.04,2.97,2.78,6.54,6.54,6.57
60.35,3.54,-2.96,3.54,-2.94,2.94,2.90,2.74,6.48,6.48,6.50
60.96,3.59,-2.85,3.58,-2.84,2.84,2.82,2.70,6.43,6.42,6.44
61.57,3.63,-2.73,3.62,-2.73,2.73,2.75,2.66,6.36,6.36,6.36
62.18,3.66,-2.62,3.66,-2.63,2.63,2.67,2.62,6.29,6.29,6.28
62.80,3.70,-2.52,3.70,-2.53,2.53,2.60,2.58,6.23,6.23,6.22
63.43,3.74,-2.40,3.74,-2.43,2.43,2.54,2.54,6.17,6.16,6.14
64.07,3.77,-2.31,3.77,-2.33,2.33,2.47,2.49,6.10,6.10,6.08
64.71,3.81,-2.21,3.80,-2.23,2.23,2.41,2.45,6.04,6.03,6.02
65.35,3.83,-2.13,3.84,-2.13,2.13,2.34,2.41,5.96,5.96,5.96
66.01,3.87,-2.03,3.87,-2.03,2.03,2.28,2.36,5.90,5.90,5.90
66.67,3.90,-1.95,3.89,-1.94,1.94,2.23,2.32,5.84,5.83,5.85
67.33,3.91,-1.86,3.92,-1.85,1.85,2.17,2.27,5.76,5.77,5.77
68.01,3.94,-1.77,3.94,-1.76,1.76,2.12,2.23,5.70,5.70,5.71
68.69,3.96,-1.68,3.96,-1.68,1.68,2.06,2.18,5.64,5.64,5.64
69.37,3.98,-1.60,3.98,-1.59,1.59,2.01,2.14,5.57,5.57,5.58
70.07,4.00,-1.52,4.00,-1.51,1.51,1.96,2.09,5.51,5.51,5.52
70.77,4.01,-1.44,4.01,-1.43,1.43,1.91,2.05,5.44,5.44,5.45
71.48,4.03,-1.35,4.02,-1.35,1.35,1.87,2.00,5.38,5.37,5.38
72.19,4.03,-1.27,4.03,-1.27,1.27,1.82,1.96,5.30,5.31,5.30
72.91,4.04,-1.20,4.04,-1.20,1.20,1.78,1.91,5.24,5.24,5.24
73.64,4.04,-1.12,4.04,-1.13,1.13,1.73,1.87,5.17,5.17,5.16
74.38,4.04,-1.05,4.04,-1.06,1.06,1.69,1.83,5.10,5.10,5.09
75.12,4.04,-0.98,4.04,-0.99,0.99,1.65,1.78,5.03,5.04,5.02
75.87,4.04,-0.93,4.04,-0.93,0.93,1.61,1.74,4.97,4.97,4.97
76.63,4.04,-0.86,4.03,-0.87,0.87,1.58,1.69,4.91,4.91,4.90
77.40,4.03,-0.81,4.03,-0.81,0.81,1.54,1.65,4.84,4.84,4.84
78.17,4.02,-0.75,4.01,-0.76,0.76,1.50,1.61,4.78,4.78,4.77
78.95,4.00,-0.72,4.00,-0.71,0.71,1.47,1.57,4.71,4.71,4.72
79.74,3.99,-0.67,3.98,-0.67,0.67,1.43,1.53,4.66,4.65,4.66
80.54,3.96,-0.63,3.97,-0.62,0.62,1.40,1.49,4.58,4.59,4.59
81.35,3.94,-0.59,3.94,-0.58,0.58,1.37,1.45,4.52,4.53,4.53
82.16,3.92,-0.55,3.92,-0.54,0.54,1.34,1.41,4.46,4.46,4.47
82.98,3.89,-0.51,3.89,-0.51,0.51,1.31,1.37,4.40,4.40,4.40
83.81,3.86,-0.48,3.86,-0.48,0.48,1.28,1.34,4.34,4.34,4.34
84.65,3.83,-0.43,3.83,-0.44,0.44,1.25,1.30,4.27,4.27,4.26
85.50,3.79,-0.41,3.79,-0.42,0.42,1.22,1.27,4.21,4.21,4.20
86.35,3.76,-0.38,3.75,-0.39,0.39,1.20,1.23,4.15,4.14,4.14
87.22,3.71,-0.37,3.71,-0.37,0.37,1.17,1.20,4.08,4.08,4.08
88.09,3.67,-0.34,3.67,-0.34,0.34,1.15,1.17,4.01,4.01,4.01
88.97,3.62,-0.32,3.62,-0.32,0.32,1.12,1.13,3.94,3.94,3.94
89.86,3.58,-0.30,3.57,-0.30,0.30,1.10,1.10,3.88,3.88,3.88
90.76,3.52,-0.29,3.52,-0.28,0.28,1.08,1.07,3.80,3.81,3.81
91.66,3.47,-0.27,3.47,-0.26,0.26,1.06,1.04,3.73,3.73,3.74
92.58,3.41,-0.26,3.42,-0.25,0.25,1.03,1.01,3.66,3.66,3.67
93.51,3.36,-0.23,3.36,-0.23,0.23,1.01,0.98,3.59,3.59,3.59
94.44,3.30,-0.22,3.30,-0.21,0.21,0.99,0.96,3.51,3.51,3.52
95.39,3.24,-0.20,3.24,-0.19,0.19,0.97,0.93,3.43,3.43,3.44
96.34,3.17,-0.19,3.17,-0.18,0.18,0.95,0.90,3.35,3.35,3.36
97.30,3.11,-0.17,3.11,-0.17,0.17,0.94,0.88,3.27,3.28,3.28
98.28,3.05,-0.14,3.04,-0.15,0.15,0.92,0.85,3.20,3.20,3.19
99.26,2.97,-0.14,2.98,-0.14,0.14,0.90,0.83,3.11,3.12,3.10
100.25,2.91,-0.12,2.91,-0.14,0.14,0.88,0.80,3.05,3.04,3.03
101.25,2.83,-0.13,2.83,-0.13,0.13,0.87,0.78,2.96,2.96,2.96
102.27,2.76,-0.12,2.76,-0.13,0.13,0.85,0.76,2.89,2.89,2.88
103.29,2.69,-0.12,2.69,-0.13,0.13,0.84,0.73,2.82,2.81,2.81
104.32,2.61,-0.13,2.61,-0.13,0.13,0.82,0.71,2.74,2.74,2.74
105.37,2.53,-0.13,2.53,-0.13,0.13,0.81,0.69,2.66,2.67,2.66
106.42,2.45,-0.15,2.45,-0.14,0.14,0.80,0.67,2.59,2.59,2.60
107.48,2.37,-0.14,2.37,-0.15,0.15,0.78,0.65,2.52,2.52,2.51
108.56,2.28,-0.17,2.28,-0.16,0.16,0.77,0.64,2.44,2.45,2.45
109.64,2.20,-0.18,2.20,-0.18,0.18,0.76,0.62,2.38,2.38,2.38
110.74,2.11,-0.20,2.11,-0.19,0.19,0.75,0.60,2.30,2.30,2.31
111.85,2.03,-0.20,2.02,-0.21,0.21,0.74,0.58,2.24,2.23,2.23
112.97,1.94,-0.22,1.93,-0.22,0.22,0.73,0.57,2.16,2.15,2.16
114.10,1.84,-0.24,1.84,-0.24,0.24,0.72,0.55,2.08,2.07,2.08
115.24,1.74,-0.26,1.74,-0.25,0.25,0.71,0.54,1.99,2.00,2.00
116.39,1.65,-0.26,1.65,-0.27,0.27,0.70,0.52,1.92,1.92,1.91
117.55,1.55,-0.29,1.55,-0.28,0.28,0.69,0.51,1.83,1.84,1.84
118.73,1.45,-0.29,1.46,-0.30,0.30,0.68,0.50,1.75,1.75,1.74
119.92,1.35,-0.31,1.36,-0.31,0.31,0.68,0.49,1.66,1.67,1.66
121.12,1.25,-0.34,1.26,-0.33,0.33,0.67,0.47,1.58,1.59,1.59
122.33,1.15,-0.35,1.16,-0.34,0.34,0.67,0.46,1.49,1.50,1.50
123.55,1.06,-0.36,1.06,-0.36,0.36,0.66,0.45,1.42,1.41,1.42
124.79,0.96,-0.38,0.95,-0.37,0.37,0.66,0.45,1.33,1.33,1.34
126.03,0.85,-0.40,0.85,-0.39,0.39,0.65,0.44,1.24,1.24,1.25
127.29,0.75,-0.41,0.74,-0.41,0.41,0.65,0.43,1.16,1.16,1.16
128.57,0.65,-0.42,0.64,-0.43,0.43,0.65,0.42,1.09,1.07,1.07
129.85,0.53,-0.46,0.53,-0.46,0.46,0.65,0.42,0.99,0.99,0.99
131.15,0.43,-0.47,0.42,-0.49,0.49,0.65,0.41,0.92,0.91,0.90
132.46,0.31,-0.51,0.31,-0.52,0.52,0.65,0.41,0.83,0.83,0.82
133.79,0.20,-0.55,0.20,-0.55,0.55,0.65,0.40,0.75,0.75,0.75
135.12,0.09,-0.58,0.09,-0.59,0.59,0.65,0.40,0.68,0.68,0.67
136.48,-0.03,-0.63,-0.03,-0.63,0.63,0.66,0.40,0.60,0.60,0.61
137.84,-0.14,-0.68,-0.14,-0.68,0.68,0.66,0.40,0.54,0.53,0.54
139.22,-0.25,-0.71,-0.26,-0.72,0.72,0.67,0.39,0.47,0.47,0.46
140.61,-0.38,-0.78,-0.37,-0.77,0.77,0.68,0.39,0.39,0.40,0.40
142.02,-0.48,-0.82,-0.49,-0.83,0.83,0.69,0.39,0.35,0.34,0.34
143.44,-0.60,-0.87,-0.61,-0.88,0.88,0.70,0.39,0.28,0.27,0.27
144.87,-0.72,-0.94,-0.72,-0.94,0.94,0.71,0.39,0.22,0.21,0.22
146.32,-0.84,-1.00,-0.84,-0.99,0.99,0.72,0.39,0.15,0.15,0.16
147.78,-0.95,-1.05,-0.95,-1.04,1.04,0.74,0.40,0.09,0.10,0.10
149.26,-1.06,-1.10,-1.06,-1.10,1.10,0.76,0.40,0.04,0.04,0.04
150.75,-1.17,-1.14,-1.17,-1.15,1.15,0.78,0.40,-0.02,-0.02,-0.03
152.26,-1.27,-1.19,-1.27,-1.19,1.19,0.80,0.40,-0.08,-0.08,-0.08
153.78,-1.38,-1.24,-1.38,-1.23,1.23,0.83,0.41,-0.15,-0.14,-0.14
155.32,-1.47,-1.27,-1.48,-1.27,1.27,0.86,0.41,-0.20,-0.20,-0.20
156.88,-1.57,-1.31,-1.57,-1.31,1.31,0.89,0.42,-0.26,-0.26,-0.26
158.44,-1.66,-1.34,-1.66,-1.33,1.33,0.92,0.42,-0.33,-0.32,-0.32
160.03,-1.74,-1.36,-1.74,-1.35,1.35,0.96,0.42,-0.39,-0.39,-0.38
161.63,-1.83,-1.39,-1.81,-1.37,1.37,1.00,0.43,-0.46,-0.45,-0.44
163.24,-1.90,-1.38,-1.88,-1.37,1.37,1.04,0.44,-0.53,-0.51,-0.52
164.88,-1.96,-1.39,-1.95,-1.37,1.37,1.09,0.44,-0.59,-0.57,-0.57
166.53,-2.01,-1.37,-2.00,-1.37,1.37,1.13,0.45,-0.64,-0.63,-0.64
168.19,-2.07,-1.38,-2.05,-1.36,1.36,1.18,0.46,-0.71,-0.70,-0.69
169.87,-2.11,-1.36,-2.10,-1.34,1.34,1.23,0.46,-0.77,-0.76,-0.75
171.57,-2.15,-1.32,-2.15,-1.33,1.33,1.27,0.47,-0.82,-0.82,-0.83
173.29,-2.18,-1.30,-2.19,-1.31,1.31,1.31,0.48,-0.87,-0.88,-0.89
175.02,-2.22,-1.28,-2.22,-1.28,1.28,1.35,0.49,-0.94,-0.94,-0.94
176.77,-2.25,-1.25,-2.26,-1.26,1.26,1.38,0.49,-0.99,-1.00,-1.00
178.54,-2.28,-1.22,-2.30,-1.24,1.24,1.41,0.50,-1.04,-1.06,-1.06
180.32,-2.32,-1.20,-2.33,-1.21,1.21,1.42,0.51,-1.11,-1.12,-1.12
182.13,-2.36,-1.18,-2.37,-1.19,1.19,1.43,0.52,-1.17,-1.18,-1.18
183.95,-2.40,-1.17,-2.41,-1.17,1.17,1.42,0.53,-1.23,-1.23,-1.23
185.79,-2.44,-1.15,-2.45,-1.16,1.16,1.40,0.54,-1.28,-1.29,-1.29
187.65,-2.48,-1.14,-2.49,-1.14,1.14,1.37,0.55,-1.34,-1.35,-1.34
189.52,-2.53,-1.13,-2.53,-1.12,1.12,1.34,0.56,-1.41,-1.40,-1.40
191.42,-2.57,-1.11,-2.57,-1.11,1.11,1.30,0.57,-1.46,-1.46,-1.46
193.33,-2.61,-1.10,-2.61,-1.10,1.10,1.25,0.59,-1.51,-1.51,-1.51
195.27,-2.66,-1.09,-2.65,-1.09,1.09,1.19,0.60,-1.57,-1.56,-1.57
197.22,-2.69,-1.07,-2.70,-1.08,1.08,1.14,0.61,-1.61,-1.61,-1.62
199.19,-2.74,-1.07,-2.74,-1.07,1.07,1.08,0.62,-1.67,-1.66,-1.67
201.18,-2.78,-1.06,-2.78,-1.06,1.06,1.03,0.63,-1.72,-1.71,-1.72
203.19,-2.81,-1.05,-2.81,-1.05,1.05,0.97,0.64,-1.76,-1.76,-1.76
205.23,-2.85,-1.05,-2.85,-1.04,1.04,0.92,0.66,-1.81,-1.81,-1.80
207.28,-2.88,-1.04,-2.88,-1.03,1.03,0.87,0.67,-1.85,-1.85,-1.84
209.35,-2.92,-1.03,-2.91,-1.02,1.02,0.82,0.68,-1.90,-1.89,-1.89
211.44,-2.94,-1.01,-2.94,-1.00,1.00,0.77,0.69,-1.94,-1.94,-1.93
213.56,-2.97,-0.99,-2.97,-0.99,0.99,0.73,0.70,-1.98,-1.97,-1.98
215.69,-2.99,-0.98,-2.99,-0.98,0.98,0.69,0.71,-2.01,-2.01,-2.01
217.85,-3.01,-0.96,-3.01,-0.96,0.96,0.65,0.72,-2.05,-2.05,-2.05
220.03,-3.03,-0.94,-3.03,-0.94,0.94,0.61,0.73,-2.09,-2.09,-2.09
222.23,-3.04,-0.91,-3.04,-0.92,0.92,0.58,0.74,-2.12,-2.12,-2.13
224.45,-3.05,-0.89,-3.05,-0.90,0.90,0.55,0.75,-2.15,-2.16,-2.16
226.70,-3.07,-0.88,-3.06,-0.87,0.87,0.52,0.75,-2.20,-2.19,-2.19
228.96,-3.07,-0.86,-3.07,-0.85,0.85,0.50,0.76,-2.22,-2.22,-2.21
231.25,-3.07,-0.83,-3.07,-0.82,0.82,0.47,0.77,-2.25,-2.25,-2.24
233.57,-3.08,-0.81,-3.08,-0.80,0.80,0.45,0.77,-2.28,-2.28,-2.27
235.90,-3.08,-0.77,-3.08,-0.77,0.77,0.43,0.77,-2.31,-2.31,-2.31
238.26,-3.07,-0.73,-3.07,-0.74,0.74,0.41,0.78,-2.33,-2.33,-2.34
240.64,-3.07,-0.72,-3.07,-0.71,0.71,0.39,0.78,-2.36,-2.36,-2.35
243.05,-3.06,-0.68,-3.06,-0.69,0.69,0.37,0.78,-2.37,-2.38,-2.38
245.48,-3.06,-0.65,-3.06,-0.66,0.66,0.36,0.77,-2.40,-2.40,-2.41
247.93,-3.05,-0.62,-3.05,-0.63,0.63,0.34,0.77,-2.42,-2.42,-2.43
250.41,-3.03,-0.59,-3.04,-0.60,0.60,0.33,0.77,-2.43,-2.44,-2.44
252.92,-3.03,-0.58,-3.02,-0.57,0.57,0.31,0.76,-2.46,-2.46,-2.45
255.45,-3.01,-0.53,-3.01,-0.53,0.53,0.30,0.75,-2.48,-2.48,-2.48
258.00,-3.00,-0.51,-3.00,-0.50,0.50,0.29,0.74,-2.50,-2.50,-2.49
260.58,-2.98,-0.48,-2.98,-0.47,0.47,0.28,0.73,-2.51,-2.51,-2.50
263.19,-2.96,-0.43,-2.96,-0.44,0.44,0.27,0.72,-2.52,-2.53,-2.53
265.82,-2.94,-0.40,-2.95,-0.40,0.40,0.26,0.71,-2.54,-2.54,-2.54
268.48,-2.93,-0.38,-2.93,-0.37,0.37,0.25,0.69,-2.56,-2.56,-2.55
271.16,-2.91,-0.34,-2.91,-0.34,0.34,0.24,0.68,-2.57,-2.57,-2.57
273.87,-2.90,-0.31,-2.89,-0.30,0.30,0.23,0.66,-2.60,-2.59,-2.59
276.61,-2.87,-0.26,-2.87,-0.27,0.27,0.22,0.65,-2.60,-2.60,-2.61
279.38,-2.86,-0.23,-2.85,-0.24,0.24,0.21,0.63,-2.62,-2.62,-2.63
282.17,-2.83,-0.19,-2.83,-0.20,0.20,0.21,0.61,-2.63,-2.63,-2.64
284.99,-2.81,-0.17,-2.81,-0.17,0.17,0.20,0.59,-2.64,-2.64,-2.64
287.84,-2.80,-0.15,-2.79,-0.14,0.14,0.19,0.57,-2.66,-2.66,-2.65
290.72,-2.77,-0.09,-2.77,-0.11,0.11,0.19,0.55,-2.66,-2.67,-2.68
293.63,-2.75,-0.08,-2.75,-0.08,0.08,0.18,0.52,-2.67,-2.68,-2.68
296.57,-2.73,-0.05,-2.73,-0.05,0.05,0.18,0.50,-2.68,-2.69,-2.68
299.53,-2.71,-0.02,-2.71,-0.02,0.02,0.17,0.48,-2.69,-2.69,-2.69
302.53,-2.69,0.01,-2.69,0.01,-0.01,0.16,0.45,-2.70,-2.70,-2.70
305.55,-2.67,0.04,-2.67,0.04,-0.04,0.16,0.43,-2.71,-2.71,-2.71
308.61,-2.65,0.06,-2.65,0.06,-0.06,0.15,0.41,-2.71,-2.71,-2.71
311.69,-2.63,0.09,-2.63,0.09,-0.09,0.15,0.38,-2.72,-2.72,-2.72
314.81,-2.61,0.12,-2.61,0.11,-0.11,0.14,0.36,-2.72,-2.73,-2.73
317.96,-2.59,0.14,-2.59,0.14,-0.14,0.14,0.33,-2.73,-2.73,-2.73
321.14,-2.57,0.16,-2.57,0.16,-0.16,0.14,0.31,-2.73,-2.73,-2.73
324.35,-2.56,0.19,-2.56,0.18,-0.18,0.13,0.28,-2.74,-2.74,-2.75
327.59,-2.54,0.19,-2.54,0.20,-0.20,0.13,0.26,-2.74,-2.74,-2.73
330.87,-2.52,0.22,-2.52,0.22,-0.22,0.12,0.24,-2.74,-2.74,-2.74
334.18,-2.50,0.25,-2.50,0.24,-0.24,0.12,0.21,-2.74,-2.75,-2.75
337.52,-2.49,0.26,-2.49,0.26,-0.26,0.12,0.19,-2.75,-2.75,-2.75
340.90,-2.47,0.28,-2.47,0.28,-0.28,0.11,0.16,-2.75,-2.75,-2.75
344.30,-2.46,0.29,-2.46,0.29,-0.29,0.11,0.14,-2.75,-2.75,-2.75
347.75,-2.44,0.30,-2.44,0.31,-0.31,0.11,0.11,-2.75,-2.75,-2.74
351.23,-2.42,0.34,-2.43,0.32,-0.32,0.10,0.09,-2.75,-2.75,-2.76
354.74,-2.41,0.33,-2.41,0.34,-0.34,0.10,0.06,-2.75,-2.75,-2.74
358.28,-2.40,0.36,-2.40,0.35,-0.35,0.10,0.04,-2.75,-2.75,-2.76
361.87,-2.38,0.37,-2.39,0.36,-0.36,0.09,0.01,-2.74,-2.75,-2.75
365.49,-2.38,0.37,-2.38,0.38,-0.38,0.09,-0.01,-2.76,-2.75,-2.75
369.14,-2.37,0.38,-2.37,0.39,-0.39,0.09,-0.04,-2.76,-2.75,-2.75
372.83,-2.35,0.40,-2.36,0.40,-0.40,0.09,-0.06,-2.75,-2.75,-2.75
376.56,-2.35,0.40,-2.35,0.41,-0.41,0.08,-0.08,-2.76,-2.75,-2.75
380.33,-2.34,0.42,-2.34,0.41,-0.41,0.08,-0.11,-2.75,-2.75,-2.76
384.13,-2.33,0.43,-2.34,0.42,-0.42,0.08,-0.13,-2.75,-2.76,-2.76
387.97,-2.33,0.42,-2.33,0.43,-0.43,0.08,-0.16,-2.76,-2.76,-2.75
391.85,-2.33,0.43,-2.32,0.43,-0.43,0.07,-0.18,-2.76,-2.76,-2.76
395.77,-2.32,0.44,-2.32,0.44,-0.44,0.07,-0.20,-2.76,-2.76,-2.76
399.73,-2.32,0.44,-2.32,0.44,-0.44,0.07,-0.23,-2.76,-2.76,-2.76
403.72,-2.31,0.44,-2.31,0.44,-0.44,0.07,-0.25,-2.75,-2.76,-2.75
407.76,-2.31,0.45,-2.31,0.45,-0.45,0.07,-0.27,-2.76,-2.76,-2.76
411.84,-2.31,0.45,-2.31,0.45,-0.45,0.06,-0.30,-2.76,-2.76,-2.76
415.96,-2.30,0.45,-2.31,0.45,-0.45,0.06,-0.32,-2.75,-2.76,-2.75
420.12,-2.31,0.45,-2.31,0.46,-0.46,0.06,-0.34,-2.77,-2.76,-2.76
424.32,-2.30,0.47,-2.30,0.46,-0.46,0.06,-0.36,-2.76,-2.76,-2.77
428.56,-2.30,0.46,-2.30,0.46,-0.46,0.06,-0.38,-2.76,-2.76,-2.76
432.85,-2.30,0.46,-2.30,0.47,-0.47,0.05,-0.40,-2.77,-2.77,-2.76
437.18,-2.30,0.47,-2.29,0.47,-0.47,0.05,-0.42,-2.77,-2.77,-2.77
441.55,-2.29,0.48,-2.29,0.48,-0.48,0.05,-0.44,-2.77,-2.77,-2.77
445.96,-2.29,0.49,-2.28,0.49,-0.49,0.05,-0.46,-2.78,-2.77,-2.78
450.42,-2.28,0.50,-2.28,0.50,-0.50,0.05,-0.48,-2.78,-2.77,-2.78
454.93,-2.27,0.51,-2.27,0.51,-0.51,0.04,-0.49,-2.78,-2.77,-2.78
459.48,-2.27,0.51,-2.26,0.52,-0.52,0.04,-0.51,-2.79,-2.78,-2.78
464.07,-2.25,0.52,-2.25,0.53,-0.53,0.04,-0.52,-2.78,-2.78,-2.77
468.71,-2.24,0.53,-2.23,0.54,-0.54,0.04,-0.54,-2.78,-2.78,-2.77
473.40,-2.22,0.55,-2.22,0.55,-0.55,0.04,-0.55,-2.77,-2.78,-2.77
478.13,-2.21,0.57,-2.21,0.57,-0.57,0.04,-0.56,-2.78,-2.78,-2.78
482.91,-2.19,0.59,-2.19,0.58,-0.58,0.03,-0.57,-2.77,-2.77,-2.78
487.74,-2.18,0.59,-2.18,0.59,-0.59,0.03,-0.58,-2.77,-2.77,-2.77
492.62,-2.17,0.60,-2.17,0.60,-0.60,0.03,-0.59,-2.77,-2.77,-2.77
497.55,-2.15,0.62,-2.16,0.61,-0.61,0.03,-0.59,-2.76,-2.77,-2.77
502.52,-2.15,0.62,-2.15,0.62,-0.62,0.03,-0.60,-2.77,-2.77,-2.77
507.55,-2.14,0.62,-2.14,0.62,-0.62,0.03,-0.60,-2.76,-2.76,-2.76
512.62,-2.13,0.63,-2.13,0.63,-0.63,0.03,-0.60,-2.76,-2.76,-2.76
517.75,-2.12,0.62,-2.13,0.63,-0.63,0.02,-0.60,-2.75,-2.75,-2.74
