frequency,raw,error,smoothed,error_smoothed,equalization,parametric_eq,fixed_band_eq,equalized_raw,equalized_smoothed,target
20.00,-3.11,-5.96,-3.11,-5.96,5.95,6.52,2.11,2.84,2.84,2.85
20.20,-3.11,-6.01,-3.11,-6.01,6.01,6.49,2.17,2.90,2.90,2.90
20.40,-3.12,-6.07,-3.12,-6.06,6.06,6.46,2.24,2.95,2.95,2.95
20.61,-3.12,-6.10,-3.12,-6.11,6.12,6.44,2.31,3.00,2.99,2.98
20.81,-3.13,-6.16,-3.13,-6.15,6.16,6.41,2.38,3.03,3.03,3.03
21.02,-3.13,-6.20,-3.13,-6.19,6.20,6.38,2.45,3.07,3.07,3.07
21.23,-3.14,-6.23,-3.14,-6.23,6.23,6.35,2.52,3.10,3.09,3.09
21.44,-3.15,-6.26,-3.15,-6.26,6.26,6.32,2.60,3.11,3.11,3.11
21.66,-3.16,-6.29,-3.16,-6.29,6.29,6.30,2.67,3.13,3.13,3.13
21.87,-3.17,-6.31,-3.17,-6.31,6.31,6.27,2.75,3.14,3.14,3.14
22.09,-3.17,-6.33,-3.17,-6.33,6.33,6.23,2.83,3.16,3.16,3.16
22.31,-3.17,-6.34,-3.17,-6.33,6.33,6.20,2.92,3.16,3.16,3.17
22.54,-3.16,-6.33,-3.17,-6.34,6.33,6.17,3.00,3.17,3.16,3.17
22.76,-3.16,-6.33,-3.16,-6.33,6.32,6.14,3.09,3.16,3.16,3.17
22.99,-3.15,-6.31,-3.14,-6.30,6.30,6.10,3.18,3.15,3.16,3.16
23.22,-3.11,-6.27,-3.11,-6.27,6.27,6.07,3.28,3.16,3.16,3.16
23.45,-3.07,-6.23,-3.07,-6.23,6.24,6.03,3.37,3.17,3.17,3.16
23.69,-3.03,-6.20,-3.03,-6.19,6.20,6.00,3.47,3.17,3.17,3.17
23.92,-2.99,-6.16,-2.99,-6.16,6.16,5.96,3.57,3.17,3.17,3.17
24.16,-2.94,-6.11,-2.94,-6.11,6.11,5.92,3.67,3.17,3.17,3.17
24.40,-2.90,-6.08,-2.89,-6.07,6.06,5.88,3.77,3.17,3.17,3.18
24.65,-2.84,-6.01,-2.84,-6.02,6.02,5.84,3.87,3.18,3.17,3.17
24.89,-2.80,-5.97,-2.80,-5.97,5.97,5.80,3.98,3.17,3.18,3.17
25.14,-2.75,-5.92,-2.75,-5.92,5.93,5.76,4.08,3.18,3.18,3.17
25.39,-2.71,-5.89,-2.71,-5.88,5.89,5.72,4.19,3.18,3.18,3.18
25.65,-2.67,-5.85,-2.67,-5.84,5.85,5.67,4.30,3.18,3.18,3.18
25.91,-2.63,-5.80,-2.63,-5.80,5.81,5.62,4.41,3.18,3.18,3.17
26.16,-2.59,-5.76,-2.59,-5.76,5.78,5.58,4.51,3.19,3.18,3.17
26.43,-2.56,-5.73,-2.56,-5.73,5.73,5.53,4.62,3.17,3.17,3.17
26.69,-2.52,-5.69,-2.53,-5.69,5.69,5.48,4.72,3.17,3.16,3.17
26.96,-2.49,-5.66,-2.48,-5.65,5.63,5.42,4.83,3.14,3.15,3.17
27.23,-2.41,-5.58,-2.41,-5.58,5.56,5.37,4.93,3.15,3.15,3.17
27.50,-2.32,-5.49,-2.33,-5.49,5.47,5.32,5.03,3.15,3.15,3.17
27.77,-2.23,-5.39,-2.23,-5.39,5.38,5.26,5.12,3.15,3.15,3.16
28.05,-2.13,-5.29,-2.12,-5.28,5.28,5.20,5.21,3.15,3.15,3.16
28.33,-2.01,-5.16,-2.01,-5.16,5.17,5.14,5.30,3.16,3.16,3.15
28.62,-1.89,-5.04,-1.89,-5.04,5.06,5.08,5.38,3.17,3.17,3.15
28.90,-1.77,-4.93,-1.77,-4.93,4.95,5.02,5.45,3.18,3.18,3.16
29.19,-1.67,-4.82,-1.67,-4.83,4.85,4.95,5.52,3.18,3.17,3.15
29.48,-1.59,-4.75,-1.58,-4.74,4.74,4.89,5.58,3.16,3.16,3.16
29.78,-1.50,-4.65,-1.50,-4.65,4.65,4.82,5.64,3.15,3.15,3.15
30.08,-1.41,-4.57,-1.41,-4.56,4.55,4.76,5.68,3.14,3.14,3.16
30.38,-1.31,-4.46,-1.31,-4.47,4.45,4.69,5.72,3.14,3.13,3.15
30.68,-1.22,-4.37,-1.22,-4.37,4.35,4.62,5.74,3.13,3.13,3.15
30.99,-1.12,-4.27,-1.12,-4.27,4.25,4.55,5.76,3.13,3.13,3.15
31.30,-1.02,-4.16,-1.02,-4.16,4.16,4.48,5.77,3.14,3.14,3.14
31.61,-0.93,-4.07,-0.92,-4.06,4.08,4.41,5.77,3.15,3.15,3.14
31.93,-0.83,-3.97,-0.84,-3.98,4.01,4.35,5.76,3.18,3.16,3.14
32.24,-0.79,-3.92,-0.79,-3.92,3.95,4.28,5.75,3.16,3.16,3.13
32.57,-0.76,-3.89,-0.75,-3.88,3.91,4.21,5.72,3.15,3.15,3.13
32.89,-0.74,-3.87,-0.74,-3.87,3.88,4.14,5.68,3.14,3.14,3.13
33.22,-0.74,-3.86,-0.74,-3.86,3.86,4.08,5.64,3.12,3.12,3.12
33.55,-0.75,-3.87,-0.74,-3.86,3.85,4.01,5.59,3.10,3.10,3.12
33.89,-0.75,-3.86,-0.74,-3.86,3.84,3.95,5.53,3.09,3.09,3.11
34.23,-0.73,-3.84,-0.73,-3.84,3.82,3.89,5.47,3.09,3.09,3.11
34.57,-0.71,-3.81,-0.71,-3.81,3.80,3.83,5.40,3.09,3.09,3.10
34.92,-0.68,-3.78,-0.68,-3.77,3.77,3.77,5.33,3.09,3.09,3.10
35.27,-0.64,-3.73,-0.63,-3.73,3.73,3.72,5.25,3.09,3.10,3.09
35.62,-0.58,-3.67,-0.58,-3.67,3.69,3.66,5.16,3.11,3.11,3.09
35.97,-0.52,-3.61,-0.53,-3.62,3.63,3.61,5.08,3.11,3.10,3.09
36.33,-0.48,-3.57,-0.49,-3.57,3.56,3.56,4.99,3.09,3.08,3.09
36.70,-0.44,-3.52,-0.43,-3.52,3.49,3.52,4.90,3.05,3.06,3.08
37.06,-0.38,-3.46,-0.36,-3.44,3.41,3.47,4.81,3.03,3.05,3.08
37.43,-0.25,-3.34,-0.25,-3.34,3.32,3.43,4.72,3.07,3.06,3.09
37.81,-0.13,-3.22,-0.14,-3.23,3.23,3.39,4.63,3.10,3.09,3.09
38.19,-0.03,-3.11,-0.03,-3.12,3.13,3.35,4.53,3.10,3.10,3.08
38.57,0.05,-3.04,0.06,-3.03,3.04,3.31,4.44,3.09,3.10,3.09
38.95,0.14,-2.96,0.14,-2.95,2.96,3.27,4.35,3.11,3.10,3.10
39.34,0.20,-2.89,0.21,-2.88,2.90,3.24,4.26,3.10,3.11,3.09
39.74,0.27,-2.82,0.26,-2.83,2.85,3.21,4.17,3.12,3.12,3.09
40.14,0.30,-2.79,0.29,-2.80,2.83,3.17,4.09,3.13,3.11,3.09
40.54,0.28,-2.81,0.29,-2.80,2.81,3.14,4.00,3.09,3.10,3.09
40.94,0.26,-2.82,0.27,-2.81,2.81,3.11,3.92,3.07,3.08,3.08
41.35,0.25,-2.83,0.25,-2.83,2.82,3.08,3.84,3.07,3.07,3.08
41.76,0.23,-2.84,0.23,-2.84,2.83,3.05,3.76,3.06,3.06,3.07
42.18,0.22,-2.85,0.22,-2.85,2.84,3.02,3.68,3.06,3.05,3.07
42.60,0.20,-2.86,0.20,-2.86,2.85,3.00,3.61,3.05,3.05,3.06
43.03,0.19,-2.86,0.19,-2.86,2.85,2.97,3.53,3.04,3.04,3.05
43.46,0.19,-2.85,0.19,-2.85,2.85,2.94,3.47,3.04,3.03,3.04
43.90,0.18,-2.84,0.18,-2.83,2.84,2.91,3.40,3.02,3.02,3.02
44.33,0.18,-2.82,0.18,-2.82,2.83,2.89,3.34,3.01,3.01,3.00
44.78,0.18,-2.80,0.18,-2.81,2.82,2.86,3.27,3.00,2.99,2.98
45.23,0.17,-2.80,0.17,-2.80,2.80,2.83,3.22,2.97,2.97,2.97
45.68,0.17,-2.79,0.17,-2.79,2.78,2.81,3.16,2.95,2.95,2.96
46.13,0.17,-2.77,0.18,-2.77,2.75,2.78,3.11,2.92,2.93,2.94
46.60,0.20,-2.74,0.20,-2.74,2.73,2.76,3.05,2.93,2.92,2.94
47.06,0.22,-2.70,0.22,-2.70,2.70,2.73,3.00,2.92,2.92,2.92
47.53,0.24,-2.67,0.25,-2.67,2.68,2.71,2.96,2.92,2.92,2.91
48.01,0.27,-2.64,0.26,-2.64,2.65,2.68,2.91,2.92,2.91,2.91
48.49,0.27,-2.62,0.27,-2.62,2.62,2.66,2.87,2.89,2.89,2.89
48.97,0.27,-2.60,0.27,-2.60,2.60,2.63,2.83,2.87,2.87,2.87
49.46,0.27,-2.58,0.28,-2.57,2.57,2.61,2.79,2.85,2.85,2.85
49.96,0.28,-2.55,0.28,-2.56,2.56,2.59,2.76,2.84,2.84,2.83
50.46,0.28,-2.54,0.28,-2.54,2.55,2.57,2.72,2.83,2.82,2.82
50.96,0.27,-2.54,0.27,-2.53,2.54,2.54,2.69,2.81,2.81,2.81
51.47,0.26,-2.53,0.27,-2.53,2.53,2.52,2.66,2.79,2.79,2.79
51.99,0.26,-2.52,0.26,-2.52,2.52,2.50,2.63,2.78,2.78,2.78
52.51,0.25,-2.52,0.25,-2.52,2.52,2.48,2.60,2.77,2.77,2.77
53.03,0.24,-2.53,0.25,-2.52,2.51,2.46,2.57,2.76,2.76,2.77
53.56,0.24,-2.51,0.24,-2.51,2.51,2.45,2.55,2.75,2.75,2.75
54.10,0.23,-2.51,0.23,-2.51,2.51,2.43,2.52,2.74,2.74,2.74
54.64,0.22,-2.50,0.23,-2.50,2.51,2.41,2.50,2.73,2.73,2.72
55.18,0.22,-2.50,0.22,-2.50,2.50,2.40,2.47,2.72,2.71,2.72
55.74,0.21,-2.49,0.21,-2.49,2.49,2.38,2.45,2.70,2.70,2.70
56.29,0.20,-2.49,0.20,-2.49,2.48,2.37,2.42,2.68,2.68,2.69
56.86,0.19,-2.49,0.20,-2.48,2.47,2.36,2.40,2.66,2.67,2.68
57.42,0.20,-2.45,0.20,-2.46,2.46,2.35,2.37,2.66,2.66,2.65
58.00,0.20,-2.44,0.21,-2.43,2.45,2.34,2.35,2.65,2.66,2.64
58.58,0.21,-2.42,0.20,-2.42,2.44,2.33,2.32,2.65,2.64,2.63
59.16,0.20,-2.41,0.19,-2.42,2.42,2.32,2.29,2.62,2.61,2.61
59.76,0.15,-2.44,0.17,-2.42,2.41,2.31,2.26,2.56,2.57,2.59
60.35,0.14,-2.41,0.15,-2.40,2.39,2.31,2.23,2.53,2.54,2.55
60.96,0.14,-2.37,0.13,-2.38,2.38,2.30,2.20,2.52,2.51,2.51
61.57,0.12,-2.35,0.12,-2.35,2.37,2.29,2.17,2.49,2.49,2.47
62.18,0.10,-2.33,0.10,-2.33,2.35,2.28,2.14,2.45,2.45,2.43
62.80,0.06,-2.32,0.06,-2.32,2.33,2.27,2.11,2.39,2.39,2.38
63.43,0.03,-2.31,0.03,-2.31,2.30,2.25,2.07,2.33,2.33,2.34
64.07,0.00,-2.29,0.01,-2.28,2.27,2.23,2.03,2.27,2.27,2.29
64.71,0.00,-2.25,0.00,-2.25,2.23,2.21,2.00,2.23,2.23,2.25
65.35,0.01,-2.20,0.01,-2.20,2.18,2.19,1.96,2.19,2.19,2.21
66.01,0.02,-2.14,0.03,-2.13,2.13,2.16,1.91,2.15,2.16,2.16
66.67,0.05,-2.06,0.05,-2.07,2.08,2.13,1.87,2.13,2.12,2.11
67.33,0.06,-2.00,0.06,-2.00,2.02,2.10,1.83,2.08,2.08,2.06
68.01,0.07,-1.95,0.07,-1.95,1.96,2.06,1.78,2.03,2.03,2.02
68.69,0.07,-1.90,0.07,-1.90,1.90,2.01,1.74,1.97,1.97,1.97
69.37,0.07,-1.85,0.07,-1.85,1.84,1.97,1.69,1.91,1.92,1.92
70.07,0.07,-1.80,0.07,-1.80,1.79,1.92,1.64,1.86,1.86,1.87
70.77,0.07,-1.75,0.07,-1.75,1.74,1.87,1.59,1.81,1.81,1.82
71.48,0.07,-1.70,0.07,-1.70,1.69,1.82,1.55,1.76,1.76,1.77
72.19,0.06,-1.64,0.06,-1.64,1.65,1.76,1.50,1.71,1.71,1.70
72.91,0.04,-1.60,0.05,-1.59,1.61,1.71,1.45,1.65,1.66,1.64
73.64,0.04,-1.55,0.03,-1.56,1.56,1.65,1.40,1.61,1.59,1.59
74.38,0.01,-1.52,0.00,-1.52,1.52,1.60,1.34,1.54,1.53,1.53
75.12,-0.04,-1.51,-0.02,-1.49,1.48,1.54,1.29,1.45,1.46,1.47
75.87,-0.04,-1.45,-0.05,-1.46,1.45,1.49,1.24,1.41,1.40,1.41
76.63,-0.06,-1.42,-0.06,-1.42,1.41,1.43,1.19,1.35,1.35,1.36
77.40,-0.07,-1.38,-0.06,-1.37,1.37,1.38,1.14,1.30,1.31,1.31
78.17,-0.06,-1.31,-0.07,-1.33,1.33,1.33,1.09,1.27,1.26,1.25
78.95,-0.08,-1.29,-0.08,-1.28,1.29,1.28,1.04,1.21,1.21,1.21
79.74,-0.09,-1.25,-0.09,-1.25,1.24,1.23,0.99,1.16,1.16,1.16
80.54,-0.10,-1.21,-0.10,-1.21,1.20,1.18,0.94,1.10,1.10,1.11
81.35,-0.10,-1.16,-0.10,-1.16,1.15,1.13,0.89,1.05,1.05,1.06
82.16,-0.09,-1.10,-0.09,-1.10,1.10,1.09,0.84,1.01,1.01,1.01
82.98,-0.08,-1.05,-0.08,-1.04,1.05,1.04,0.79,0.97,0.97,0.97
83.81,-0.07,-0.99,-0.07,-0.99,1.00,1.00,0.74,0.93,0.93,0.92
84.65,-0.06,-0.93,-0.06,-0.94,0.94,0.95,0.70,0.88,0.88,0.87
85.50,-0.06,-0.89,-0.06,-0.89,0.88,0.91,0.65,0.83,0.82,0.83
86.35,-0.06,-0.84,-0.06,-0.84,0.83,0.87,0.60,0.77,0.77,0.78
87.22,-0.06,-0.79,-0.05,-0.78,0.77,0.83,0.55,0.71,0.72,0.73
88.09,-0.03,-0.71,-0.04,-0.71,0.71,0.79,0.51,0.68,0.68,0.68
88.97,-0.02,-0.64,-0.02,-0.65,0.65,0.75,0.46,0.63,0.63,0.62
89.86,-0.02,-0.59,-0.02,-0.59,0.60,0.71,0.41,0.58,0.58,0.57
90.76,-0.02,-0.54,-0.02,-0.54,0.54,0.67,0.37,0.52,0.52,0.52
91.66,-0.02,-0.49,-0.02,-0.48,0.48,0.63,0.32,0.46,0.46,0.47
92.58,-0.02,-0.43,-0.02,-0.43,0.43,0.59,0.28,0.41,0.41,0.41
93.51,-0.02,-0.38,-0.02,-0.38,0.38,0.55,0.23,0.36,0.36,0.36
94.44,-0.02,-0.34,-0.02,-0.33,0.33,0.52,0.19,0.31,0.31,0.32
95.39,-0.02,-0.29,-0.02,-0.29,0.28,0.48,0.14,0.27,0.27,0.27
96.34,-0.02,-0.24,-0.02,-0.24,0.24,0.44,0.10,0.23,0.22,0.22
97.30,-0.03,-0.20,-0.03,-0.20,0.21,0.41,0.06,0.18,0.18,0.17
98.28,-0.04,-0.16,-0.04,-0.16,0.18,0.37,0.01,0.14,0.14,0.12
99.26,-0.06,-0.14,-0.06,-0.14,0.15,0.33,-0.03,0.09,0.08,0.08
100.25,-0.09,-0.12,-0.09,-0.12,0.12,0.30,-0.07,0.03,0.03,0.03
101.25,-0.14,-0.12,-0.13,-0.11,0.10,0.26,-0.11,-0.04,-0.03,-0.02
102.27,-0.15,-0.08,-0.15,-0.08,0.07,0.23,-0.15,-0.08,-0.08,-0.07
103.29,-0.17,-0.05,-0.17,-0.05,0.05,0.19,-0.20,-0.12,-0.12,-0.12
104.32,-0.18,-0.02,-0.18,-0.02,0.02,0.15,-0.24,-0.16,-0.16,-0.16
105.37,-0.20,0.01,-0.20,0.01,-0.01,0.12,-0.28,-0.21,-0.21,-0.21
106.42,-0.22,0.04,-0.22,0.04,-0.04,0.08,-0.32,-0.26,-0.26,-0.26
107.48,-0.24,0.08,-0.24,0.08,-0.07,0.04,-0.36,-0.31,-0.31,-0.32
108.56,-0.26,0.11,-0.26,0.11,-0.11,0.01,-0.39,-0.37,-0.37,-0.37
109.64,-0.28,0.14,-0.28,0.14,-0.14,-0.03,-0.43,-0.42,-0.42,-0.42
110.74,-0.30,0.18,-0.30,0.17,-0.18,-0.06,-0.47,-0.48,-0.48,-0.48
111.85,-0.32,0.20,-0.32,0.21,-0.22,-0.10,-0.51,-0.54,-0.53,-0.52
112.97,-0.33,0.25,-0.33,0.25,-0.25,-0.14,-0.54,-0.58,-0.58,-0.58
114.10,-0.34,0.29,-0.34,0.29,-0.29,-0.18,-0.58,-0.63,-0.63,-0.63
115.24,-0.34,0.34,-0.34,0.34,-0.33,-0.21,-0.61,-0.67,-0.67,-0.68
116.39,-0.34,0.39,-0.34,0.38,-0.37,-0.25,-0.64,-0.71,-0.72,-0.73
117.55,-0.35,0.42,-0.35,0.42,-0.42,-0.29,-0.67,-0.77,-0.77,-0.77
118.73,-0.36,0.45,-0.35,0.45,-0.46,-0.33,-0.70,-0.82,-0.82,-0.81
119.92,-0.36,0.48,-0.35,0.50,-0.51,-0.37,-0.73,-0.87,-0.86,-0.84
121.12,-0.32,0.56,-0.33,0.55,-0.56,-0.41,-0.76,-0.87,-0.89,-0.88
122.33,-0.31,0.60,-0.31,0.60,-0.60,-0.45,-0.79,-0.91,-0.91,-0.91
123.55,-0.30,0.64,-0.29,0.65,-0.65,-0.49,-0.81,-0.95,-0.94,-0.94
124.79,-0.27,0.70,-0.27,0.70,-0.69,-0.53,-0.84,-0.96,-0.96,-0.97
126.03,-0.25,0.75,-0.25,0.75,-0.74,-0.57,-0.86,-0.98,-0.99,-1.00
127.29,-0.24,0.78,-0.24,0.79,-0.77,-0.61,-0.88,-1.01,-1.01,-1.02
128.57,-0.24,0.82,-0.24,0.82,-0.81,-0.65,-0.91,-1.05,-1.05,-1.06
129.85,-0.25,0.84,-0.25,0.84,-0.84,-0.69,-0.93,-1.09,-1.09,-1.09
131.15,-0.26,0.86,-0.26,0.86,-0.87,-0.73,-0.94,-1.13,-1.13,-1.12
132.46,-0.26,0.89,-0.26,0.89,-0.90,-0.78,-0.96,-1.16,-1.16,-1.15
133.79,-0.27,0.91,-0.26,0.92,-0.93,-0.82,-0.98,-1.20,-1.19,-1.18
135.12,-0.25,0.96,-0.25,0.96,-0.96,-0.86,-1.00,-1.21,-1.21,-1.21
136.48,-0.24,0.99,-0.24,0.99,-0.99,-0.91,-1.01,-1.22,-1.23,-1.23
137.84,-0.24,1.03,-0.25,1.02,-1.01,-0.95,-1.03,-1.25,-1.26,-1.27
139.22,-0.26,1.04,-0.25,1.05,-1.04,-1.00,-1.04,-1.30,-1.30,-1.30
140.61,-0.27,1.06,-0.25,1.07,-1.07,-1.05,-1.06,-1.34,-1.33,-1.33
142.02,-0.24,1.11,-0.25,1.10,-1.10,-1.09,-1.07,-1.34,-1.35,-1.35
143.44,-0.24,1.14,-0.25,1.14,-1.13,-1.14,-1.09,-1.37,-1.38,-1.38
144.87,-0.25,1.17,-0.25,1.17,-1.17,-1.19,-1.10,-1.42,-1.42,-1.42
146.32,-0.27,1.19,-0.26,1.19,-1.21,-1.23,-1.11,-1.48,-1.47,-1.46
147.78,-0.27,1.22,-0.26,1.24,-1.25,-1.28,-1.13,-1.52,-1.51,-1.49
149.26,-0.25,1.29,-0.25,1.29,-1.30,-1.33,-1.14,-1.54,-1.55,-1.54
150.75,-0.24,1.36,-0.25,1.35,-1.35,-1.38,-1.16,-1.59,-1.60,-1.60
152.26,-0.26,1.41,-0.26,1.41,-1.40,-1.43,-1.17,-1.66,-1.66,-1.67
153.78,-0.28,1.46,-0.27,1.46,-1.46,-1.48,-1.19,-1.74,-1.73,-1.74
155.32,-0.30,1.51,-0.29,1.52,-1.52,-1.53,-1.21,-1.82,-1.81,-1.81
156.88,-0.30,1.59,-0.31,1.58,-1.59,-1.58,-1.22,-1.88,-1.90,-1.89
158.44,-0.33,1.64,-0.33,1.65,-1.65,-1.62,-1.24,-1.98,-1.98,-1.97
160.03,-0.34,1.71,-0.34,1.71,-1.72,-1.67,-1.26,-2.06,-2.06,-2.05
161.63,-0.34,1.78,-0.34,1.78,-1.79,-1.72,-1.28,-2.13,-2.13,-2.12
163.24,-0.33,1.85,-0.33,1.85,-1.86,-1.77,-1.30,-2.18,-2.18,-2.18
164.88,-0.31,1.92,-0.31,1.92,-1.92,-1.82,-1.33,-2.23,-2.23,-2.23
166.53,-0.29,1.99,-0.29,1.99,-1.98,-1.87,-1.35,-2.27,-2.27,-2.28
168.19,-0.27,2.05,-0.27,2.05,-2.04,-1.92,-1.37,-2.31,-2.31,-2.32
169.87,-0.26,2.10,-0.27,2.09,-2.08,-1.97,-1.40,-2.34,-2.35,-2.36
171.57,-0.27,2.11,-0.26,2.12,-2.12,-2.01,-1.43,-2.39,-2.38,-2.38
173.29,-0.26,2.13,-0.24,2.15,-2.15,-2.06,-1.45,-2.41,-2.39,-2.39
175.02,-0.21,2.19,-0.23,2.17,-2.17,-2.10,-1.48,-2.37,-2.40,-2.40
176.77,-0.22,2.19,-0.22,2.19,-2.18,-2.15,-1.51,-2.40,-2.40,-2.41
178.54,-0.22,2.20,-0.22,2.19,-2.19,-2.19,-1.54,-2.41,-2.41,-2.42
180.32,-0.23,2.18,-0.22,2.19,-2.20,-2.23,-1.58,-2.42,-2.42,-2.41
182.13,-0.22,2.18,-0.22,2.19,-2.21,-2.27,-1.61,-2.43,-2.42,-2.40
183.95,-0.20,2.21,-0.20,2.20,-2.22,-2.31,-1.65,-2.42,-2.42,-2.41
185.79,-0.19,2.22,-0.19,2.23,-2.24,-2.35,-1.68,-2.42,-2.42,-2.41
187.65,-0.17,2.26,-0.17,2.25,-2.26,-2.38,-1.72,-2.43,-2.43,-2.43
189.52,-0.16,2.28,-0.16,2.28,-2.28,-2.41,-1.76,-2.44,-2.44,-2.44
191.42,-0.15,2.31,-0.14,2.32,-2.32,-2.44,-1.80,-2.47,-2.46,-2.46
193.33,-0.13,2.35,-0.13,2.35,-2.35,-2.47,-1.84,-2.48,-2.48,-2.48
195.27,-0.11,2.39,-0.11,2.39,-2.39,-2.50,-1.88,-2.50,-2.50,-2.50
197.22,-0.10,2.42,-0.10,2.42,-2.42,-2.52,-1.92,-2.52,-2.52,-2.52
199.19,-0.09,2.45,-0.09,2.45,-2.45,-2.54,-1.96,-2.54,-2.54,-2.54
201.18,-0.08,2.48,-0.08,2.48,-2.48,-2.56,-2.01,-2.56,-2.56,-2.56
203.19,-0.08,2.50,-0.07,2.51,-2.50,-2.58,-2.05,-2.58,-2.58,-2.58
205.23,-0.07,2.53,-0.07,2.53,-2.52,-2.59,-2.10,-2.59,-2.59,-2.60
207.28,-0.07,2.54,-0.07,2.54,-2.54,-2.60,-2.14,-2.60,-2.61,-2.61
209.35,-0.08,2.55,-0.08,2.55,-2.54,-2.61,-2.18,-2.62,-2.63,-2.63
211.44,-0.11,2.55,-0.10,2.56,-2.55,-2.62,-2.23,-2.66,-2.65,-2.66
213.56,-0.11,2.56,-0.12,2.56,-2.56,-2.62,-2.27,-2.67,-2.67,-2.67
215.69,-0.13,2.55,-0.13,2.55,-2.56,-2.62,-2.31,-2.69,-2.69,-2.68
217.85,-0.15,2.54,-0.14,2.55,-2.56,-2.62,-2.36,-2.71,-2.71,-2.69
220.03,-0.16,2.54,-0.16,2.55,-2.56,-2.61,-2.40,-2.72,-2.71,-2.70
222.23,-0.16,2.57,-0.16,2.56,-2.55,-2.61,-2.43,-2.71,-2.71,-2.73
224.45,-0.16,2.56,-0.16,2.57,-2.54,-2.60,-2.47,-2.70,-2.70,-2.72
226.70,-0.16,2.56,-0.17,2.55,-2.53,-2.59,-2.51,-2.69,-2.70,-2.72
228.96,-0.19,2.52,-0.19,2.52,-2.52,-2.57,-2.54,-2.71,-2.71,-2.71
231.25,-0.22,2.48,-0.21,2.49,-2.51,-2.56,-2.57,-2.73,-2.72,-2.70
233.57,-0.22,2.47,-0.22,2.48,-2.50,-2.54,-2.60,-2.72,-2.72,-2.69
235.90,-0.20,2.48,-0.20,2.48,-2.49,-2.52,-2.62,-2.69,-2.69,-2.68
238.26,-0.19,2.48,-0.18,2.48,-2.48,-2.50,-2.65,-2.67,-2.66,-2.67
240.64,-0.16,2.48,-0.17,2.48,-2.47,-2.48,-2.67,-2.63,-2.63,-2.64
243.05,-0.15,2.46,-0.14,2.47,-2.46,-2.46,-2.68,-2.61,-2.60,-2.61
245.48,-0.13,2.46,-0.12,2.46,-2.45,-2.44,-2.69,-2.58,-2.58,-2.59
247.93,-0.10,2.46,-0.11,2.45,-2.45,-2.41,-2.70,-2.55,-2.56,-2.56
250.41,-0.11,2.43,-0.10,2.43,-2.44,-2.39,-2.70,-2.55,-2.55,-2.54
252.92,-0.10,2.41,-0.10,2.42,-2.43,-2.36,-2.71,-2.53,-2.53,-2.51
255.45,-0.09,2.40,-0.08,2.41,-2.42,-2.34,-2.70,-2.51,-2.50,-2.49
258.00,-0.06,2.41,-0.06,2.41,-2.40,-2.31,-2.70,-2.46,-2.46,-2.47
260.58,-0.04,2.41,-0.05,2.40,-2.38,-2.28,-2.69,-2.42,-2.43,-2.45
263.19,-0.04,2.38,-0.04,2.38,-2.36,-2.25,-2.67,-2.40,-2.41,-2.42
265.82,-0.06,2.34,-0.06,2.34,-2.34,-2.23,-2.66,-2.40,-2.40,-2.40
268.48,-0.08,2.30,-0.07,2.31,-2.31,-2.20,-2.64,-2.39,-2.39,-2.38
271.16,-0.08,2.27,-0.08,2.27,-2.29,-2.17,-2.61,-2.37,-2.37,-2.35
273.87,-0.08,2.25,-0.08,2.24,-2.26,-2.14,-2.59,-2.34,-2.34,-2.33
276.61,-0.08,2.22,-0.07,2.23,-2.23,-2.12,-2.56,-2.31,-2.31,-2.30
279.38,-0.07,2.20,-0.06,2.21,-2.20,-2.09,-2.53,-2.27,-2.27,-2.27
282.17,-0.05,2.20,-0.06,2.19,-2.18,-2.06,-2.50,-2.23,-2.24,-2.25
284.99,-0.05,2.16,-0.06,2.16,-2.16,-2.04,-2.47,-2.21,-2.21,-2.21
287.84,-0.07,2.12,-0.06,2.13,-2.13,-2.01,-2.43,-2.20,-2.19,-2.19
290.72,-0.06,2.10,-0.05,2.11,-2.11,-1.99,-2.40,-2.17,-2.16,-2.16
293.63,-0.04,2.09,-0.05,2.08,-2.08,-1.96,-2.36,-2.12,-2.13,-2.13
296.57,-0.03,2.07,-0.05,2.06,-2.05,-1.94,-2.32,-2.08,-2.10,-2.10
299.53,-0.07,2.00,-0.05,2.02,-2.02,-1.91,-2.29,-2.09,-2.07,-2.07
302.53,-0.06,1.99,-0.06,1.98,-1.99,-1.89,-2.25,-2.05,-2.05,-2.05
305.55,-0.06,1.95,-0.06,1.95,-1.96,-1.87,-2.21,-2.02,-2.02,-2.01
308.61,-0.06,1.93,-0.05,1.93,-1.93,-1.85,-2.17,-1.99,-1.99,-1.99
311.69,-0.05,1.91,-0.06,1.90,-1.90,-1.83,-2.14,-1.95,-1.96,-1.96
314.81,-0.07,1.87,-0.06,1.88,-1.87,-1.81,-2.10,-1.94,-1.93,-1.94
317.96,-0.08,1.84,-0.08,1.85,-1.84,-1.79,-2.07,-1.92,-1.91,-1.92
321.14,-0.08,1.83,-0.10,1.81,-1.81,-1.77,-2.03,-1.89,-1.91,-1.91
324.35,-0.13,1.76,-0.12,1.78,-1.78,-1.75,-2.00,-1.91,-1.90,-1.89
327.59,-0.14,1.74,-0.14,1.74,-1.76,-1.73,-1.97,-1.90,-1.89,-1.88
330.87,-0.15,1.72,-0.15,1.72,-1.73,-1.71,-1.94,-1.88,-1.88,-1.87
334.18,-0.15,1.70,-0.15,1.71,-1.70,-1.70,-1.90,-1.85,-1.85,-1.85
337.52,-0.15,1.69,-0.16,1.68,-1.67,-1.68,-1.88,-1.82,-1.83,-1.84
340.90,-0.17,1.66,-0.17,1.66,-1.64,-1.67,-1.85,-1.81,-1.82,-1.83
344.30,-0.21,1.61,-0.20,1.63,-1.62,-1.65,-1.82,-1.83,-1.81,-1.82
347.75,-0.22,1.60,-0.22,1.59,-1.59,-1.64,-1.80,-1.81,-1.81,-1.82
351.23,-0.25,1.56,-0.25,1.56,-1.57,-1.63,-1.77,-1.81,-1.82,-1.81
354.74,-0.28,1.54,-0.28,1.54,-1.55,-1.61,-1.75,-1.82,-1.82,-1.82
358.28,-0.31,1.50,-0.30,1.51,-1.53,-1.60,-1.73,-1.84,-1.83,-1.81
361.87,-0.31,1.50,-0.31,1.50,-1.51,-1.59,-1.71,-1.82,-1.82,-1.81
365.49,-0.30,1.50,-0.30,1.50,-1.51,-1.58,-1.69,-1.81,-1.81,-1.80
369.14,-0.30,1.51,-0.30,1.51,-1.51,-1.57,-1.68,-1.80,-1.80,-1.81
372.83,-0.29,1.52,-0.30,1.52,-1.51,-1.56,-1.66,-1.80,-1.80,-1.81
376.56,-0.30,1.52,-0.30,1.51,-1.51,-1.55,-1.65,-1.81,-1.81,-1.82
380.33,-0.31,1.50,-0.30,1.51,-1.52,-1.54,-1.63,-1.83,-1.82,-1.81
384.13,-0.31,1.50,-0.31,1.51,-1.52,-1.54,-1.62,-1.82,-1.82,-1.81
387.97,-0.30,1.52,-0.30,1.51,-1.51,-1.53,-1.61,-1.81,-1.81,-1.82
391.85,-0.31,1.52,-0.31,1.52,-1.50,-1.52,-1.60,-1.81,-1.80,-1.83
395.77,-0.32,1.50,-0.33,1.50,-1.48,-1.52,-1.59,-1.80,-1.81,-1.82
399.73,-0.36,1.47,-0.36,1.47,-1.46,-1.51,-1.59,-1.82,-1.82,-1.83
403.72,-0.41,1.42,-0.40,1.44,-1.44,-1.51,-1.58,-1.85,-1.84,-1.83
407.76,-0.44,1.41,-0.44,1.41,-1.41,-1.50,-1.58,-1.85,-1.85,-1.85
411.84,-0.46,1.39,-0.47,1.38,-1.39,-1.50,-1.57,-1.85,-1.86,-1.85
415.96,-0.49,1.36,-0.49,1.36,-1.37,-1.49,-1.57,-1.86,-1.86,-1.85
420.12,-0.51,1.34,-0.51,1.34,-1.35,-1.49,-1.56,-1.86,-1.86,-1.85
424.32,-0.52,1.33,-0.52,1.33,-1.34,-1.48,-1.56,-1.86,-1.85,-1.85
428.56,-0.51,1.33,-0.51,1.34,-1.33,-1.48,-1.56,-1.84,-1.83,-1.84
432.85,-0.49,1.34,-0.49,1.34,-1.33,-1.48,-1.56,-1.82,-1.82,-1.83
437.18,-0.46,1.36,-0.47,1.34,-1.34,-1.47,-1.56,-1.79,-1.81,-1.82
441.55,-0.46,1.32,-0.45,1.34,-1.35,-1.47,-1.56,-1.81,-1.80,-1.78
445.96,-0.41,1.34,-0.40,1.35,-1.37,-1.47,-1.56,-1.78,-1.77,-1.75
450.42,-0.34,1.38,-0.34,1.38,-1.40,-1.47,-1.55,-1.74,-1.74,-1.72
454.93,-0.24,1.43,-0.25,1.43,-1.43,-1.47,-1.55,-1.67,-1.68,-1.67
459.48,-0.16,1.47,-0.15,1.47,-1.47,-1.46,-1.55,-1.63,-1.62,-1.63
464.07,-0.06,1.52,-0.06,1.51,-1.50,-1.46,-1.55,-1.56,-1.56,-1.58
468.71,0.02,1.54,0.02,1.55,-1.53,-1.46,-1.55,-1.51,-1.51,-1.52
473.40,0.09,1.57,0.10,1.57,-1.56,-1.46,-1.54,-1.47,-1.46,-1.48
478.13,0.17,1.59,0.16,1.59,-1.58,-1.46,-1.54,-1.41,-1.42,-1.42
