frequency,raw,error,smoothed,error_smoothed,equalization,parametric_eq,fixed_band_eq,equalized_raw,equalized_smoothed,target
20.00,11.36,-0.41,11.36,-0.42,0.41,-0.79,-0.69,11.77,11.77,11.77
20.20,11.42,-0.34,11.42,-0.35,0.35,-0.80,-0.71,11.76,11.76,11.76
20.40,11.47,-0.28,11.47,-0.28,0.28,-0.82,-0.72,11.75,11.75,11.75
20.61,11.53,-0.22,11.53,-0.21,0.21,-0.83,-0.74,11.74,11.74,11.74
20.81,11.59,-0.13,11.59,-0.14,0.14,-0.85,-0.76,11.73,11.73,11.72
21.02,11.65,-0.06,11.65,-0.07,0.08,-0.86,-0.78,11.73,11.72,11.71
21.23,11.70,-0.00,11.70,-0.01,0.01,-0.88,-0.80,11.71,11.71,11.70
21.44,11.76,0.05,11.76,0.05,-0.06,-0.90,-0.82,11.70,11.70,11.71
21.66,11.81,0.11,11.81,0.11,-0.12,-0.92,-0.84,11.69,11.69,11.69
21.87,11.87,0.18,11.87,0.18,-0.18,-0.93,-0.86,11.68,11.68,11.69
22.09,11.92,0.25,11.92,0.25,-0.25,-0.95,-0.88,11.67,11.67,11.67
22.31,11.98,0.32,11.98,0.31,-0.31,-0.97,-0.90,11.67,11.67,11.66
22.54,12.04,0.38,12.04,0.38,-0.38,-0.99,-0.92,11.66,11.66,11.65
22.76,12.09,0.44,12.09,0.44,-0.44,-1.01,-0.94,11.65,11.65,11.65
22.99,12.15,0.51,12.15,0.50,-0.50,-1.02,-0.97,11.65,11.64,11.64
23.22,12.20,0.57,12.20,0.56,-0.56,-1.04,-0.99,11.63,11.64,11.63
23.45,12.26,0.62,12.26,0.62,-0.62,-1.06,-1.02,11.64,11.64,11.64
23.69,12.32,0.68,12.31,0.68,-0.68,-1.08,-1.04,11.64,11.63,11.63
23.92,12.37,0.75,12.37,0.74,-0.74,-1.10,-1.07,11.63,11.63,11.62
24.16,12.42,0.79,12.42,0.79,-0.79,-1.12,-1.09,11.63,11.63,11.63
24.40,12.48,0.85,12.48,0.85,-0.85,-1.15,-1.12,11.63,11.63,11.63
24.65,12.53,0.91,12.53,0.90,-0.91,-1.17,-1.14,11.62,11.62,11.62
24.89,12.58,0.96,12.58,0.96,-0.96,-1.19,-1.17,11.62,11.62,11.62
25.14,12.63,1.02,12.63,1.01,-1.01,-1.21,-1.20,11.62,11.62,11.61
25.39,12.68,1.07,12.68,1.07,-1.07,-1.23,-1.23,11.61,11.62,11.61
25.65,12.74,1.13,12.74,1.12,-1.12,-1.26,-1.26,11.62,11.62,11.61
25.91,12.79,1.17,12.79,1.17,-1.17,-1.28,-1.28,11.61,11.62,11.61
26.16,12.84,1.22,12.84,1.22,-1.22,-1.30,-1.31,11.61,11.61,11.62
26.43,12.89,1.27,12.89,1.27,-1.28,-1.33,-1.34,11.61,11.61,11.61
26.69,12.94,1.33,12.94,1.32,-1.33,-1.35,-1.37,11.61,11.61,11.61
26.96,12.99,1.37,12.99,1.38,-1.37,-1.38,-1.40,11.61,11.61,11.61
27.23,13.04,1.42,13.04,1.42,-1.42,-1.40,-1.43,11.62,11.62,11.61
27.50,13.09,1.48,13.09,1.47,-1.47,-1.43,-1.46,11.62,11.62,11.61
27.77,13.13,1.51,13.13,1.51,-1.51,-1.46,-1.49,11.62,11.62,11.62
28.05,13.18,1.57,13.18,1.56,-1.56,-1.48,-1.52,11.62,11.62,11.61
28.33,13.22,1.60,13.22,1.60,-1.60,-1.51,-1.55,11.62,11.62,11.62
28.62,13.27,1.64,13.27,1.64,-1.64,-1.54,-1.57,11.62,11.62,11.62
28.90,13.31,1.68,13.31,1.68,-1.69,-1.57,-1.60,11.62,11.62,11.63
29.19,13.36,1.73,13.36,1.73,-1.73,-1.59,-1.63,11.63,11.62,11.63
29.48,13.40,1.78,13.40,1.77,-1.77,-1.62,-1.66,11.62,11.63,11.62
29.78,13.45,1.83,13.45,1.82,-1.82,-1.65,-1.69,11.63,11.63,11.62
30.08,13.49,1.86,13.48,1.87,-1.86,-1.68,-1.71,11.63,11.63,11.62
30.38,13.51,1.90,13.51,1.90,-1.90,-1.71,-1.74,11.61,11.62,11.60
30.68,13.54,1.94,13.54,1.93,-1.93,-1.74,-1.76,11.60,11.61,11.60
30.99,13.57,1.97,13.57,1.96,-1.97,-1.77,-1.79,11.60,11.60,11.60
31.30,13.60,2.00,13.60,2.00,-2.01,-1.81,-1.81,11.59,11.59,11.60
31.61,13.63,2.04,13.63,2.04,-2.04,-1.84,-1.84,11.59,11.59,11.59
31.93,13.66,2.08,13.66,2.08,-2.08,-1.87,-1.86,11.58,11.58,11.57
32.24,13.69,2.11,13.69,2.11,-2.11,-1.90,-1.88,11.58,11.58,11.58
32.57,13.72,2.16,13.72,2.15,-2.15,-1.94,-1.91,11.57,11.57,11.56
32.89,13.75,2.19,13.75,2.19,-2.19,-1.97,-1.93,11.56,11.56,11.56
33.22,13.78,2.23,13.78,2.22,-2.23,-2.01,-1.95,11.55,11.55,11.55
33.55,13.81,2.26,13.81,2.26,-2.26,-2.04,-1.98,11.55,11.55,11.55
33.89,13.84,2.30,13.84,2.30,-2.30,-2.08,-2.00,11.54,11.54,11.54
34.23,13.87,2.35,13.87,2.34,-2.33,-2.11,-2.02,11.53,11.53,11.52
34.57,13.90,2.38,13.90,2.38,-2.37,-2.15,-2.04,11.53,11.53,11.52
34.92,13.92,2.42,13.92,2.41,-2.40,-2.19,-2.07,11.51,11.52,11.50
35.27,13.95,2.43,13.95,2.44,-2.44,-2.23,-2.09,11.51,11.51,11.52
35.62,13.97,2.48,13.97,2.47,-2.47,-2.26,-2.12,11.50,11.50,11.49
35.97,13.99,2.50,13.99,2.50,-2.51,-2.30,-2.14,11.48,11.48,11.49
36.33,14.01,2.54,14.01,2.54,-2.54,-2.34,-2.17,11.47,11.47,11.47
36.70,14.03,2.58,14.03,2.58,-2.57,-2.38,-2.19,11.46,11.46,11.45
37.06,14.05,2.62,14.04,2.61,-2.61,-2.42,-2.22,11.44,11.44,11.43
37.43,14.06,2.65,14.06,2.64,-2.64,-2.46,-2.25,11.42,11.42,11.41
37.81,14.07,2.67,14.07,2.68,-2.68,-2.50,-2.28,11.39,11.39,11.40
38.19,14.09,2.72,14.09,2.71,-2.72,-2.55,-2.31,11.37,11.37,11.37
38.57,14.11,2.76,14.11,2.75,-2.75,-2.59,-2.34,11.36,11.35,11.35
38.95,14.13,2.79,14.13,2.79,-2.79,-2.63,-2.38,11.34,11.33,11.34
39.34,14.14,2.83,14.14,2.83,-2.83,-2.68,-2.41,11.31,11.31,11.31
39.74,14.16,2.88,14.16,2.87,-2.87,-2.72,-2.45,11.29,11.29,11.28
40.14,14.18,2.92,14.17,2.91,-2.91,-2.76,-2.49,11.27,11.26,11.26
40.54,14.19,2.95,14.19,2.95,-2.95,-2.81,-2.53,11.24,11.24,11.24
40.94,14.21,3.00,14.21,2.99,-2.99,-2.85,-2.58,11.22,11.22,11.21
41.35,14.23,3.03,14.23,3.03,-3.03,-2.90,-2.62,11.20,11.20,11.20
41.76,14.25,3.08,14.25,3.07,-3.07,-2.95,-2.67,11.18,11.18,11.17
42.18,14.27,3.11,14.27,3.11,-3.11,-2.99,-2.72,11.16,11.16,11.16
42.60,14.28,3.15,14.28,3.15,-3.15,-3.04,-2.77,11.13,11.13,11.13
43.03,14.30,3.19,14.30,3.19,-3.19,-3.09,-2.82,11.11,11.11,11.11
43.46,14.31,3.24,14.31,3.23,-3.23,-3.14,-2.88,11.08,11.08,11.07
43.90,14.33,3.28,14.33,3.28,-3.27,-3.18,-2.93,11.06,11.05,11.05
44.33,14.34,3.32,14.34,3.31,-3.32,-3.23,-2.99,11.02,11.03,11.02
44.78,14.36,3.36,14.36,3.36,-3.36,-3.28,-3.05,11.00,11.00,11.00
45.23,14.38,3.40,14.38,3.40,-3.41,-3.33,-3.12,10.97,10.97,10.98
45.68,14.40,3.47,14.40,3.46,-3.46,-3.38,-3.18,10.94,10.94,10.93
46.13,14.41,3.51,14.41,3.51,-3.51,-3.43,-3.25,10.90,10.90,10.90
46.60,14.43,3.56,14.43,3.56,-3.56,-3.48,-3.32,10.87,10.87,10.86
47.06,14.44,3.61,14.44,3.61,-3.61,-3.53,-3.40,10.83,10.83,10.83
47.53,14.46,3.67,14.46,3.67,-3.67,-3.59,-3.47,10.79,10.79,10.79
48.01,14.47,3.73,14.47,3.72,-3.72,-3.64,-3.55,10.75,10.75,10.74
48.49,14.48,3.78,14.48,3.78,-3.78,-3.69,-3.62,10.70,10.70,10.70
48.97,14.49,3.84,14.49,3.83,-3.83,-3.74,-3.70,10.66,10.66,10.65
49.46,14.50,3.88,14.50,3.89,-3.89,-3.79,-3.79,10.61,10.61,10.62
49.96,14.52,3.96,14.52,3.94,-3.94,-3.85,-3.87,10.57,10.57,10.56
50.46,14.53,4.00,14.53,4.00,-4.00,-3.90,-3.95,10.53,10.53,10.53
50.96,14.55,4.06,14.55,4.06,-4.05,-3.95,-4.04,10.49,10.49,10.49
51.47,14.56,4.11,14.56,4.11,-4.11,-4.01,-4.12,10.45,10.45,10.45
51.99,14.58,4.17,14.58,4.16,-4.16,-4.06,-4.21,10.42,10.41,10.40
52.51,14.59,4.22,14.59,4.21,-4.22,-4.11,-4.30,10.37,10.37,10.37
53.03,14.60,4.26,14.60,4.26,-4.27,-4.17,-4.38,10.33,10.33,10.34
53.56,14.61,4.32,14.61,4.31,-4.32,-4.22,-4.47,10.29,10.29,10.29
54.10,14.61,4.37,14.61,4.36,-4.37,-4.28,-4.56,10.24,10.25,10.24
54.64,14.62,4.42,14.62,4.42,-4.41,-4.33,-4.64,10.21,10.21,10.20
55.18,14.62,4.46,14.62,4.46,-4.45,-4.38,-4.72,10.17,10.17,10.16
55.74,14.62,4.51,14.62,4.50,-4.49,-4.44,-4.80,10.13,10.13,10.11
56.29,14.62,4.53,14.62,4.53,-4.52,-4.49,-4.88,10.09,10.09,10.09
56.86,14.61,4.56,14.61,4.56,-4.56,-4.55,-4.96,10.05,10.05,10.05
57.42,14.60,4.60,14.60,4.59,-4.59,-4.60,-5.03,10.01,10.01,10.00
58.00,14.59,4.63,14.59,4.62,-4.62,-4.65,-5.10,9.96,9.97,9.96
58.58,14.59,4.66,14.59,4.66,-4.66,-4.71,-5.17,9.93,9.93,9.93
59.16,14.59,4.69,14.59,4.69,-4.71,-4.76,-5.23,9.88,9.88,9.90
59.76,14.60,4.75,14.59,4.74,-4.76,-4.81,-5.29,9.84,9.84,9.85
60.35,14.60,4.80,14.60,4.80,-4.81,-4.86,-5.34,9.79,9.79,9.80
60.96,14.61,4.87,14.61,4.87,-4.87,-4.92,-5.39,9.74,9.74,9.74
61.57,14.62,4.94,14.61,4.93,-4.92,-4.97,-5.43,9.69,9.69,9.68
62.18,14.62,5.00,14.62,4.99,-4.98,-5.02,-5.47,9.64,9.63,9.62
62.80,14.61,5.05,14.61,5.05,-5.04,-5.07,-5.50,9.57,9.58,9.56
63.43,14.61,5.10,14.61,5.09,-5.09,-5.12,-5.53,9.52,9.52,9.51
64.07,14.60,5.14,14.60,5.14,-5.13,-5.17,-5.55,9.46,9.46,9.46
64.71,14.59,5.18,14.59,5.18,-5.18,-5.22,-5.57,9.41,9.41,9.41
65.35,14.57,5.22,14.57,5.21,-5.21,-5.27,-5.58,9.36,9.36,9.35
66.01,14.55,5.25,14.55,5.24,-5.25,-5.32,-5.59,9.30,9.30,9.30
66.67,14.53,5.27,14.53,5.28,-5.28,-5.37,-5.60,9.25,9.25,9.26
67.33,14.51,5.32,14.51,5.31,-5.31,-5.42,-5.60,9.20,9.20,9.19
68.01,14.49,5.35,14.49,5.34,-5.34,-5.46,-5.60,9.15,9.15,9.14
68.69,14.47,5.38,14.47,5.37,-5.37,-5.51,-5.59,9.10,9.09,9.09
69.37,14.44,5.40,14.44,5.40,-5.41,-5.56,-5.58,9.03,9.04,9.04
70.07,14.42,5.44,14.42,5.44,-5.44,-5.60,-5.57,8.98,8.98,8.98
70.77,14.40,5.49,14.39,5.47,-5.47,-5.65,-5.56,8.92,8.92,8.91
71.48,14.37,5.51,14.37,5.51,-5.51,-5.69,-5.55,8.86,8.86,8.86
72.19,14.34,5.54,14.34,5.54,-5.55,-5.74,-5.54,8.79,8.80,8.80
72.91,14.32,5.59,14.32,5.58,-5.58,-5.78,-5.52,8.74,8.74,8.73
73.64,14.31,5.63,14.30,5.62,-5.62,-5.82,-5.51,8.69,8.68,8.68
74.38,14.29,5.67,14.29,5.66,-5.66,-5.86,-5.50,8.63,8.63,8.62
75.12,14.27,5.70,14.27,5.70,-5.70,-5.90,-5.49,8.57,8.57,8.57
75.87,14.26,5.74,14.26,5.74,-5.74,-5.94,-5.48,8.52,8.52,8.52
76.63,14.25,5.79,14.25,5.78,-5.78,-5.98,-5.47,8.46,8.46,8.46
77.40,14.25,5.83,14.24,5.83,-5.83,-6.02,-5.47,8.42,8.41,8.42
78.17,14.24,5.88,14.24,5.87,-5.88,-6.06,-5.46,8.36,8.36,8.36
78.95,14.25,5.93,14.25,5.93,-5.94,-6.10,-5.46,8.31,8.31,8.32
79.74,14.26,5.99,14.26,5.99,-5.99,-6.13,-5.47,8.27,8.27,8.27
80.54,14.28,6.06,14.27,6.05,-6.05,-6.17,-5.47,8.23,8.23,8.22
81.35,14.28,6.12,14.28,6.11,-6.10,-6.20,-5.48,8.17,8.18,8.16
82.16,14.29,6.16,14.29,6.16,-6.16,-6.24,-5.50,8.13,8.13,8.13
82.98,14.29,6.22,14.29,6.21,-6.21,-6.27,-5.51,8.08,8.08,8.07
83.81,14.28,6.26,14.28,6.26,-6.26,-6.30,-5.53,8.02,8.02,8.02
84.65,14.27,6.31,14.27,6.30,-6.30,-6.34,-5.56,7.97,7.97,7.96
85.50,14.25,6.35,14.25,6.34,-6.34,-6.37,-5.59,7.91,7.91,7.90
86.35,14.23,6.38,14.23,6.38,-6.37,-6.40,-5.62,7.85,7.86,7.85
87.22,14.21,6.41,14.21,6.41,-6.41,-6.43,-5.66,7.80,7.80,7.80
88.09,14.19,6.45,14.18,6.44,-6.44,-6.46,-5.70,7.75,7.75,7.74
88.97,14.15,6.47,14.15,6.46,-6.46,-6.49,-5.74,7.68,7.69,7.68
89.86,14.12,6.49,14.12,6.49,-6.49,-6.52,-5.79,7.63,7.63,7.63
90.76,14.09,6.52,14.09,6.52,-6.52,-6.55,-5.85,7.57,7.57,7.57
91.66,14.06,6.56,14.06,6.55,-6.55,-6.58,-5.90,7.51,7.51,7.50
92.58,14.04,6.59,14.04,6.58,-6.59,-6.60,-5.97,7.45,7.45,7.45
93.51,14.01,6.61,14.02,6.62,-6.62,-6.63,-6.03,7.39,7.39,7.40
94.44,14.00,6.66,14.00,6.66,-6.66,-6.66,-6.10,7.34,7.33,7.34
95.39,13.98,6.71,13.97,6.70,-6.70,-6.69,-6.18,7.28,7.27,7.27
96.34,13.95,6.75,13.95,6.75,-6.74,-6.71,-6.26,7.20,7.21,7.20
97.30,13.93,6.79,13.93,6.79,-6.79,-6.74,-6.34,7.14,7.14,7.14
98.28,13.91,6.84,13.91,6.83,-6.83,-6.76,-6.43,7.08,7.08,7.07
99.26,13.89,6.88,13.89,6.88,-6.87,-6.79,-6.51,7.02,7.02,7.01
100.25,13.87,6.92,13.87,6.91,-6.91,-6.81,-6.61,6.96,6.96,6.95
101.25,13.85,6.95,13.85,6.95,-6.95,-6.84,-6.70,6.90,6.90,6.90
102.27,13.82,6.98,13.82,6.98,-6.98,-6.86,-6.80,6.84,6.84,6.84
103.29,13.80,7.02,13.80,7.01,-7.01,-6.89,-6.90,6.79,6.79,6.78
104.32,13.78,7.05,13.77,7.04,-7.04,-6.91,-7.00,6.73,6.73,6.73
105.37,13.75,7.08,13.75,7.07,-7.07,-6.94,-7.10,6.67,6.68,6.67
106.42,13.72,7.10,13.72,7.10,-7.10,-6.96,-7.20,6.62,6.62,6.62
107.48,13.70,7.14,13.70,7.13,-7.13,-6.99,-7.30,6.57,6.57,6.56
108.56,13.67,7.16,13.67,7.16,-7.15,-7.01,-7.40,6.52,6.52,6.51
109.64,13.64,7.19,13.64,7.19,-7.18,-7.04,-7.50,6.46,6.46,6.45
110.74,13.61,7.22,13.60,7.21,-7.21,-7.06,-7.60,6.39,6.39,6.39
111.85,13.57,7.24,13.57,7.23,-7.25,-7.09,-7.70,6.32,6.32,6.33
112.97,13.54,7.26,13.54,7.26,-7.28,-7.11,-7.79,6.25,6.26,6.28
114.10,13.52,7.30,13.52,7.31,-7.32,-7.14,-7.88,6.20,6.20,6.22
115.24,13.51,7.37,13.51,7.35,-7.35,-7.16,-7.96,6.16,6.15,6.14
116.39,13.49,7.41,13.49,7.40,-7.38,-7.19,-8.04,6.11,6.10,6.08
117.55,13.46,7.44,13.46,7.44,-7.41,-7.21,-8.11,6.05,6.05,6.02
118.73,13.42,7.46,13.42,7.45,-7.43,-7.24,-8.17,5.99,5.98,5.96
119.92,13.37,7.45,13.37,7.45,-7.45,-7.26,-8.23,5.92,5.92,5.92
121.12,13.32,7.45,13.33,7.46,-7.46,-7.29,-8.28,5.86,5.87,5.87
122.33,13.29,7.48,13.28,7.46,-7.47,-7.31,-8.32,5.82,5.81,5.81
123.55,13.24,7.48,13.23,7.47,-7.49,-7.34,-8.35,5.75,5.75,5.76
124.79,13.19,7.48,13.19,7.48,-7.50,-7.36,-8.37,5.69,5.69,5.71
126.03,13.15,7.50,13.16,7.50,-7.52,-7.39,-8.38,5.63,5.64,5.65
127.29,13.14,7.54,13.14,7.54,-7.54,-7.42,-8.38,5.60,5.60,5.60
128.57,13.12,7.59,13.11,7.57,-7.56,-7.44,-8.38,5.56,5.55,5.53
129.85,13.08,7.60,13.08,7.60,-7.58,-7.47,-8.36,5.50,5.50,5.48
131.15,13.03,7.61,13.03,7.61,-7.60,-7.49,-8.34,5.43,5.44,5.42
132.46,12.99,7.62,12.98,7.61,-7.62,-7.52,-8.31,5.37,5.37,5.37
133.79,12.94,7.63,12.94,7.63,-7.63,-7.55,-8.27,5.30,5.31,5.31
135.12,12.90,7.64,12.90,7.64,-7.65,-7.57,-8.23,5.25,5.25,5.26
136.48,12.87,7.66,12.86,7.65,-7.66,-7.60,-8.18,5.21,5.20,5.21
137.84,12.83,7.67,12.83,7.67,-7.67,-7.63,-8.13,5.15,5.16,5.16
139.22,12.80,7.70,12.80,7.69,-7.68,-7.65,-8.07,5.12,5.12,5.10
140.61,12.77,7.71,12.76,7.70,-7.69,-7.68,-8.01,5.08,5.07,5.06
142.02,12.71,7.71,12.71,7.71,-7.69,-7.70,-7.94,5.01,5.02,5.00
143.44,12.67,7.71,12.67,7.70,-7.69,-7.73,-7.88,4.97,4.97,4.96
144.87,12.61,7.69,12.61,7.69,-7.69,-7.75,-7.81,4.92,4.92,4.92
146.32,12.57,7.70,12.56,7.69,-7.69,-7.78,-7.74,4.88,4.87,4.87
147.78,12.51,7.68,12.51,7.68,-7.69,-7.80,-7.67,4.82,4.82,4.83
149.26,12.47,7.69,12.47,7.68,-7.69,-7.83,-7.61,4.78,4.78,4.78
150.75,12.43,7.69,12.43,7.69,-7.70,-7.85,-7.54,4.73,4.73,4.74
152.26,12.41,7.71,12.41,7.71,-7.71,-7.88,-7.48,4.70,4.70,4.70
153.78,12.39,7.73,12.39,7.73,-7.73,-7.90,-7.42,4.66,4.66,4.66
155.32,12.38,7.76,12.37,7.76,-7.75,-7.92,-7.36,4.63,4.63,4.62
156.88,12.35,7.78,12.35,7.78,-7.77,-7.94,-7.30,4.58,4.58,4.57
158.44,12.34,7.82,12.33,7.80,-7.80,-7.96,-7.25,4.54,4.53,4.52
160.03,12.30,7.82,12.31,7.82,-7.82,-7.98,-7.20,4.48,4.48,4.48
161.63,12.28,7.84,12.28,7.84,-7.85,-8.00,-7.16,4.43,4.43,4.44
163.24,12.27,7.88,12.26,7.87,-7.87,-8.02,-7.12,4.40,4.39,4.39
164.88,12.24,7.90,12.24,7.90,-7.89,-8.04,-7.09,4.35,4.35,4.34
166.53,12.22,7.93,12.22,7.92,-7.91,-8.06,-7.06,4.31,4.31,4.29
168.19,12.20,7.94,12.19,7.94,-7.93,-8.07,-7.03,4.27,4.26,4.26
169.87,12.16,7.96,12.16,7.96,-7.95,-8.09,-7.01,4.20,4.21,4.20
171.57,12.13,7.98,12.13,7.97,-7.97,-8.10,-7.00,4.15,4.15,4.15
173.29,12.10,7.99,12.10,7.99,-7.99,-8.12,-6.99,4.10,4.10,4.11
175.02,12.07,8.01,12.07,8.01,-8.01,-8.13,-6.98,4.05,4.06,4.06
176.77,12.05,8.04,12.05,8.03,-8.04,-8.14,-6.99,4.01,4.01,4.01
178.54,12.03,8.06,12.03,8.06,-8.06,-8.14,-6.99,3.97,3.97,3.97
180.32,12.01,8.10,12.01,8.09,-8.08,-8.15,-7.00,3.92,3.92,3.91
182.13,11.99,8.11,11.98,8.11,-8.11,-8.16,-7.02,3.88,3.87,3.88
183.95,11.96,8.13,11.96,8.13,-8.14,-8.16,-7.04,3.82,3.83,3.83
185.79,11.94,8.16,11.94,8.15,-8.16,-8.16,-7.07,3.78,3.78,3.78
187.65,11.93,8.19,11.93,8.18,-8.18,-8.16,-7.10,3.75,3.74,3.74
189.52,11.91,8.21,11.91,8.21,-8.20,-8.16,-7.14,3.71,3.71,3.70
191.42,11.89,8.23,11.88,8.22,-8.22,-8.16,-7.18,3.67,3.66,3.66
193.33,11.85,8.23,11.85,8.23,-8.23,-8.16,-7.22,3.62,3.62,3.62
195.27,11.81,8.24,11.81,8.24,-8.24,-8.15,-7.27,3.57,3.58,3.57
197.22,11.77,8.25,11.77,8.24,-8.23,-8.14,-7.33,3.53,3.54,3.52
199.19,11.73,8.24,11.73,8.24,-8.23,-8.13,-7.39,3.50,3.50,3.49
201.18,11.68,8.23,11.68,8.22,-8.21,-8.12,-7.45,3.46,3.46,3.45
203.19,11.62,8.20,11.62,8.19,-8.20,-8.10,-7.51,3.42,3.42,3.42
205.23,11.56,8.16,11.56,8.17,-8.17,-8.09,-7.58,3.38,3.39,3.40
207.28,11.51,8.14,11.51,8.14,-8.15,-8.07,-7.65,3.36,3.36,3.37
209.35,11.46,8.13,11.46,8.12,-8.12,-8.05,-7.72,3.34,3.34,3.33
211.44,11.40,8.10,11.40,8.09,-8.09,-8.02,-7.79,3.31,3.31,3.30
213.56,11.34,8.06,11.34,8.06,-8.05,-8.00,-7.86,3.28,3.28,3.28
215.69,11.27,8.02,11.27,8.02,-8.02,-7.97,-7.94,3.25,3.25,3.25
217.85,11.20,7.98,11.20,7.98,-7.98,-7.94,-8.01,3.22,3.22,3.22
220.03,11.14,7.95,11.14,7.94,-7.94,-7.91,-8.08,3.20,3.20,3.19
222.23,11.08,7.92,11.07,7.90,-7.90,-7.88,-8.14,3.18,3.17,3.16
224.45,11.00,7.85,11.00,7.85,-7.85,-7.84,-8.21,3.15,3.15,3.15
226.70,10.93,7.81,10.93,7.80,-7.81,-7.80,-8.27,3.12,3.12,3.12
228.96,10.86,7.75,10.86,7.75,-7.76,-7.77,-8.32,3.10,3.10,3.11
231.25,10.81,7.72,10.80,7.71,-7.72,-7.72,-8.37,3.09,3.09,3.09
233.57,10.75,7.68,10.74,7.67,-7.67,-7.68,-8.40,3.07,3.07,3.07
235.90,10.68,7.62,10.68,7.63,-7.63,-7.63,-8.44,3.05,3.05,3.06
238.26,10.63,7.60,10.63,7.59,-7.59,-7.59,-8.46,3.04,3.04,3.03
240.64,10.58,7.54,10.58,7.55,-7.54,-7.54,-8.47,3.04,3.04,3.04
243.05,10.54,7.52,10.53,7.51,-7.50,-7.49,-8.47,3.04,3.03,3.02
245.48,10.48,7.47,10.47,7.46,-7.45,-7.43,-8.46,3.03,3.02,3.01
247.93,10.40,7.40,10.41,7.40,-7.40,-7.38,-8.44,3.00,3.01,3.00
250.41,10.35,7.34,10.35,7.34,-7.35,-7.32,-8.41,3.00,3.00,3.01
252.92,10.29,7.29,10.29,7.29,-7.29,-7.26,-8.36,3.00,3.00,3.00
255.45,10.24,7.25,10.24,7.24,-7.23,-7.20,-8.30,3.01,3.00,2.99
258.00,10.18,7.19,10.17,7.18,-7.17,-7.14,-8.24,3.01,3.00,2.99
260.58,10.10,7.11,10.10,7.11,-7.11,-7.08,-8.16,2.99,3.00,2.99
263.19,10.03,7.04,10.03,7.04,-7.04,-7.01,-8.07,2.99,2.98,2.99
265.82,9.95,6.97,9.96,6.97,-6.97,-6.95,-7.96,2.97,2.98,2.98
268.48,9.89,6.91,9.89,6.91,-6.91,-6.88,-7.85,2.98,2.98,2.98
271.16,9.84,6.86,9.82,6.84,-6.84,-6.81,-7.74,3.00,2.98,2.98
273.87,9.75,6.77,9.75,6.77,-6.78,-6.74,-7.61,2.97,2.98,2.98
276.61,9.68,6.70,9.68,6.71,-6.71,-6.67,-7.48,2.97,2.97,2.98
279.38,9.61,6.65,9.61,6.65,-6.65,-6.60,-7.34,2.96,2.97,2.96
282.17,9.56,6.60,9.55,6.59,-6.58,-6.52,-7.20,2.98,2.97,2.96
284.99,9.50,6.53,9.49,6.52,-6.51,-6.45,-7.05,2.99,2.98,2.97
287.84,9.42,6.44,9.42,6.45,-6.44,-6.37,-6.90,2.98,2.98,2.98
290.72,9.35,6.38,9.35,6.37,-6.37,-6.30,-6.74,2.98,2.98,2.97
293.63,9.28,6.30,9.27,6.29,-6.29,-6.22,-6.59,2.98,2.98,2.98
296.57,9.20,6.21,9.20,6.21,-6.21,-6.14,-6.43,2.98,2.99,2.99
299.53,9.13,6.14,9.13,6.13,-6.13,-6.06,-6.27,2.99,3.00,2.99
302.53,9.06,6.05,9.05,6.05,-6.05,-5.98,-6.12,3.01,3.00,3.01
305.55,8.98,5.98,8.97,5.97,-5.97,-5.90,-5.96,3.01,3.01,3.00
308.61,8.89,5.88,8.89,5.88,-5.88,-5.82,-5.80,3.01,3.01,3.01
311.69,8.81,5.79,8.81,5.80,-5.79,-5.74,-5.65,3.02,3.02,3.02
314.81,8.74,5.72,8.73,5.71,-5.70,-5.66,-5.49,3.04,3.03,3.02
317.96,8.65,5.62,8.65,5.62,-5.61,-5.57,-5.34,3.04,3.04,3.03
321.14,8.56,5.52,8.56,5.51,-5.51,-5.49,-5.19,3.04,3.04,3.04
324.35,8.46,5.42,8.47,5.42,-5.42,-5.40,-5.05,3.04,3.05,3.04
327.59,8.38,5.31,8.38,5.32,-5.32,-5.32,-4.90,3.06,3.06,3.07
330.87,8.31,5.25,8.29,5.23,-5.23,-5.24,-4.76,3.08,3.06,3.06
334.18,8.21,5.14,8.21,5.14,-5.14,-5.15,-4.62,3.07,3.07,3.07
337.52,8.11,5.04,8.12,5.05,-5.05,-5.06,-4.49,3.06,3.08,3.07
340.90,8.05,4.96,8.04,4.95,-4.96,-4.98,-4.35,3.09,3.08,3.09
344.30,7.98,4.88,7.97,4.88,-4.88,-4.89,-4.22,3.10,3.09,3.10
347.75,7.90,4.80,7.90,4.80,-4.80,-4.81,-4.09,3.10,3.11,3.10
351.23,7.83,4.73,7.83,4.72,-4.72,-4.72,-3.97,3.11,3.11,3.10
354.74,7.76,4.63,7.76,4.64,-4.64,-4.63,-3.85,3.12,3.12,3.13
358.28,7.69,4.57,7.68,4.56,-4.55,-4.54,-3.73,3.13,3.13,3.12
361.87,7.61,4.48,7.61,4.47,-4.47,-4.46,-3.61,3.14,3.14,3.13
365.49,7.53,4.39,7.54,4.39,-4.39,-4.37,-3.50,3.14,3.15,3.14
369.14,7.46,4.30,7.46,4.30,-4.30,-4.28,-3.39,3.16,3.16,3.16
372.83,7.39,4.23,7.37,4.21,-4.21,-4.19,-3.28,3.18,3.16,3.16
376.56,7.28,4.12,7.29,4.12,-4.12,-4.10,-3.18,3.16,3.17,3.16
380.33,7.20,4.03,7.20,4.03,-4.03,-4.02,-3.08,3.17,3.18,3.17
384.13,7.13,3.94,7.12,3.93,-3.93,-3.93,-2.98,3.19,3.19,3.19
387.97,7.04,3.85,7.04,3.84,-3.84,-3.84,-2.88,3.20,3.20,3.19
391.85,6.95,3.75,6.95,3.75,-3.74,-3.75,-2.79,3.20,3.20,3.20
395.77,6.86,3.65,6.86,3.65,-3.65,-3.66,-2.69,3.21,3.21,3.21
399.73,6.78,3.56,6.78,3.55,-3.56,-3.57,-2.60,3.22,3.23,3.22
403.72,6.71,3.46,6.70,3.46,-3.46,-3.48,-2.51,3.25,3.24,3.25
407.76,6.62,3.38,6.62,3.37,-3.37,-3.39,-2.43,3.25,3.25,3.24
411.84,6.53,3.28,6.54,3.28,-3.28,-3.30,-2.34,3.25,3.26,3.25
415.96,6.46,3.19,6.45,3.19,-3.19,-3.20,-2.26,3.27,3.27,3.27
420.12,6.38,3.11,6.37,3.10,-3.10,-3.11,-2.18,3.28,3.28,3.27
424.32,6.29,3.01,6.30,3.01,-3.01,-3.02,-2.10,3.28,3.29,3.28
428.56,6.22,2.92,6.22,2.92,-2.92,-2.93,-2.03,3.30,3.29,3.30
432.85,6.14,2.83,6.13,2.83,-2.83,-2.84,-1.95,3.31,3.30,3.31
437.18,6.05,2.75,6.05,2.74,-2.74,-2.74,-1.88,3.31,3.31,3.30
441.55,5.97,2.66,5.96,2.65,-2.64,-2.65,-1.80,3.32,3.32,3.31
445.96,5.88,2.56,5.88,2.56,-2.55,-2.56,-1.73,3.33,3.33,3.32
450.42,5.78,2.45,5.79,2.45,-2.45,-2.46,-1.66,3.33,3.34,3.33
454.93,5.70,2.36,5.69,2.34,-2.35,-2.37,-1.59,3.35,3.34,3.34
459.48,5.59,2.24,5.60,2.24,-2.24,-2.27,-1.52,3.35,3.35,3.35
464.07,5.50,2.13,5.50,2.13,-2.14,-2.18,-1.46,3.36,3.37,3.37
468.71,5.42,2.04,5.41,2.03,-2.03,-2.08,-1.39,3.39,3.38,3.38
473.40,5.31,1.93,5.31,1.92,-1.92,-1.98,-1.33,3.39,3.39,3.38
