frequency,raw,error,smoothed,error_smoothed,equalization,parametric_eq,fixed_band_eq,equalized_raw,equalized_smoothed,target
20.00,-3.68,-2.00,-3.69,-2.00,2.00,2.32,1.09,-1.68,-1.68,-1.69
20.20,-3.64,-2.05,-3.64,-2.04,2.04,2.32,1.12,-1.60,-1.60,-1.60
20.40,-3.59,-2.08,-3.60,-2.08,2.08,2.32,1.15,-1.51,-1.51,-1.51
20.61,-3.56,-2.11,-3.55,-2.12,2.12,2.32,1.19,-1.44,-1.43,-1.45
20.81,-3.50,-2.15,-3.51,-2.15,2.15,2.32,1.22,-1.36,-1.36,-1.35
21.02,-3.46,-2.19,-3.46,-2.18,2.17,2.32,1.26,-1.29,-1.29,-1.28
21.23,-3.41,-2.20,-3.42,-2.21,2.20,2.32,1.30,-1.22,-1.22,-1.22
21.44,-3.37,-2.22,-3.37,-2.22,2.22,2.32,1.34,-1.16,-1.16,-1.15
21.66,-3.34,-2.23,-3.33,-2.23,2.23,2.32,1.37,-1.11,-1.10,-1.11
21.87,-3.28,-2.23,-3.29,-2.23,2.24,2.32,1.42,-1.05,-1.05,-1.05
22.09,-3.24,-2.24,-3.25,-2.24,2.24,2.32,1.46,-1.00,-1.00,-1.00
22.31,-3.20,-2.25,-3.20,-2.25,2.24,2.31,1.50,-0.96,-0.96,-0.95
22.54,-3.17,-2.25,-3.16,-2.25,2.24,2.31,1.54,-0.92,-0.92,-0.92
22.76,-3.11,-2.24,-3.12,-2.24,2.24,2.31,1.59,-0.88,-0.88,-0.88
22.99,-3.07,-2.23,-3.08,-2.23,2.24,2.31,1.64,-0.84,-0.84,-0.85
23.22,-3.03,-2.23,-3.03,-2.23,2.24,2.31,1.68,-0.80,-0.80,-0.81
23.45,-2.99,-2.23,-2.99,-2.23,2.24,2.31,1.73,-0.76,-0.76,-0.77
23.69,-2.96,-2.23,-2.96,-2.23,2.23,2.31,1.78,-0.72,-0.72,-0.73
23.92,-2.91,-2.23,-2.92,-2.24,2.23,2.31,1.83,-0.68,-0.69,-0.68
24.16,-2.88,-2.25,-2.88,-2.24,2.23,2.31,1.88,-0.65,-0.65,-0.64
24.40,-2.84,-2.24,-2.84,-2.23,2.23,2.31,1.93,-0.61,-0.62,-0.61
24.65,-2.80,-2.22,-2.81,-2.23,2.23,2.31,1.99,-0.58,-0.58,-0.59
24.89,-2.77,-2.22,-2.77,-2.22,2.22,2.31,2.04,-0.55,-0.55,-0.55
25.14,-2.73,-2.22,-2.73,-2.22,2.22,2.31,2.09,-0.51,-0.51,-0.51
25.39,-2.69,-2.21,-2.70,-2.22,2.21,2.31,2.15,-0.48,-0.48,-0.48
25.65,-2.66,-2.22,-2.66,-2.21,2.21,2.31,2.20,-0.46,-0.45,-0.45
25.91,-2.63,-2.20,-2.63,-2.20,2.21,2.31,2.26,-0.42,-0.42,-0.43
26.16,-2.59,-2.20,-2.59,-2.20,2.20,2.31,2.31,-0.39,-0.39,-0.39
26.43,-2.56,-2.20,-2.56,-2.20,2.20,2.31,2.36,-0.36,-0.36,-0.36
26.69,-2.52,-2.20,-2.52,-2.20,2.20,2.31,2.41,-0.33,-0.33,-0.33
26.96,-2.49,-2.20,-2.49,-2.20,2.19,2.31,2.47,-0.30,-0.30,-0.30
27.23,-2.46,-2.19,-2.46,-2.19,2.19,2.31,2.52,-0.26,-0.27,-0.27
27.50,-2.42,-2.19,-2.43,-2.19,2.19,2.31,2.57,-0.24,-0.24,-0.24
27.77,-2.39,-2.18,-2.40,-2.19,2.19,2.31,2.61,-0.20,-0.21,-0.21
28.05,-2.37,-2.20,-2.37,-2.19,2.19,2.31,2.66,-0.18,-0.18,-0.18
28.33,-2.34,-2.19,-2.34,-2.19,2.19,2.30,2.70,-0.15,-0.15,-0.16
28.62,-2.32,-2.19,-2.32,-2.19,2.20,2.30,2.74,-0.12,-0.12,-0.13
28.90,-2.29,-2.21,-2.29,-2.20,2.20,2.30,2.78,-0.09,-0.09,-0.09
29.19,-2.26,-2.20,-2.27,-2.21,2.21,2.30,2.82,-0.06,-0.06,-0.07
29.48,-2.24,-2.23,-2.25,-2.22,2.21,2.30,2.85,-0.03,-0.03,-0.02
29.78,-2.22,-2.22,-2.22,-2.22,2.22,2.30,2.88,-0.00,0.00,-0.01
30.08,-2.20,-2.23,-2.20,-2.23,2.23,2.30,2.90,0.03,0.03,0.02
30.38,-2.18,-2.24,-2.19,-2.24,2.24,2.30,2.93,0.06,0.06,0.05
30.68,-2.17,-2.26,-2.17,-2.25,2.26,2.30,2.94,0.08,0.08,0.08
30.99,-2.16,-2.27,-2.16,-2.27,2.27,2.30,2.96,0.10,0.10,0.10
31.30,-2.15,-2.28,-2.15,-2.28,2.28,2.30,2.96,0.13,0.13,0.12
31.61,-2.14,-2.30,-2.15,-2.30,2.30,2.30,2.97,0.15,0.15,0.15
31.93,-2.13,-2.31,-2.14,-2.31,2.31,2.30,2.97,0.18,0.18,0.17
32.24,-2.13,-2.33,-2.13,-2.33,2.33,2.29,2.97,0.20,0.20,0.20
32.57,-2.12,-2.35,-2.12,-2.35,2.35,2.29,2.96,0.22,0.22,0.22
32.89,-2.11,-2.36,-2.12,-2.36,2.36,2.29,2.95,0.25,0.24,0.24
33.22,-2.11,-2.38,-2.11,-2.38,2.38,2.29,2.94,0.26,0.26,0.26
33.55,-2.11,-2.40,-2.11,-2.40,2.39,2.29,2.92,0.28,0.28,0.28
33.89,-2.11,-2.41,-2.11,-2.41,2.41,2.29,2.90,0.29,0.29,0.29
34.23,-2.11,-2.43,-2.11,-2.42,2.42,2.29,2.88,0.31,0.31,0.31
34.57,-2.10,-2.43,-2.11,-2.43,2.43,2.29,2.85,0.33,0.33,0.32
34.92,-2.10,-2.44,-2.11,-2.44,2.45,2.29,2.83,0.34,0.34,0.33
35.27,-2.10,-2.46,-2.11,-2.45,2.46,2.28,2.80,0.35,0.35,0.35
35.62,-2.11,-2.46,-2.11,-2.46,2.46,2.28,2.77,0.35,0.35,0.34
35.97,-2.11,-2.47,-2.11,-2.47,2.47,2.28,2.73,0.35,0.35,0.35
36.33,-2.11,-2.49,-2.12,-2.48,2.47,2.28,2.70,0.36,0.36,0.37
36.70,-2.11,-2.48,-2.11,-2.48,2.48,2.28,2.67,0.37,0.37,0.36
37.06,-2.11,-2.48,-2.12,-2.48,2.49,2.28,2.63,0.37,0.37,0.36
37.43,-2.11,-2.48,-2.12,-2.48,2.49,2.27,2.60,0.37,0.37,0.36
37.81,-2.12,-2.49,-2.12,-2.49,2.49,2.27,2.56,0.37,0.37,0.36
38.19,-2.12,-2.49,-2.13,-2.49,2.49,2.27,2.53,0.37,0.37,0.36
38.57,-2.13,-2.50,-2.14,-2.50,2.49,2.27,2.49,0.36,0.36,0.36
38.95,-2.14,-2.51,-2.14,-2.50,2.49,2.27,2.46,0.35,0.35,0.36
39.34,-2.14,-2.49,-2.15,-2.50,2.49,2.27,2.43,0.35,0.35,0.34
39.74,-2.14,-2.49,-2.15,-2.49,2.49,2.26,2.39,0.34,0.34,0.34
40.14,-2.14,-2.48,-2.14,-2.48,2.49,2.26,2.36,0.34,0.34,0.33
40.54,-2.14,-2.48,-2.14,-2.48,2.48,2.26,2.33,0.33,0.33,0.33
40.94,-2.14,-2.47,-2.14,-2.47,2.47,2.26,2.30,0.33,0.33,0.32
41.35,-2.14,-2.47,-2.14,-2.47,2.47,2.25,2.28,0.32,0.32,0.32
41.76,-2.14,-2.46,-2.14,-2.46,2.46,2.25,2.25,0.31,0.31,0.31
42.18,-2.14,-2.45,-2.14,-2.45,2.45,2.25,2.23,0.31,0.31,0.30
42.60,-2.14,-2.44,-2.14,-2.44,2.44,2.25,2.20,0.30,0.30,0.29
43.03,-2.14,-2.44,-2.14,-2.44,2.43,2.24,2.18,0.29,0.29,0.29
43.46,-2.14,-2.43,-2.14,-2.43,2.42,2.24,2.16,0.28,0.28,0.28
43.90,-2.14,-2.41,-2.14,-2.41,2.41,2.24,2.14,0.26,0.26,0.26
44.33,-2.14,-2.39,-2.14,-2.39,2.40,2.23,2.13,0.25,0.25,0.24
44.78,-2.14,-2.38,-2.14,-2.38,2.38,2.23,2.11,0.24,0.24,0.23
45.23,-2.14,-2.37,-2.14,-2.37,2.37,2.23,2.10,0.23,0.23,0.22
45.68,-2.14,-2.36,-2.14,-2.36,2.36,2.22,2.09,0.22,0.22,0.21
46.13,-2.14,-2.35,-2.14,-2.35,2.35,2.22,2.08,0.21,0.21,0.20
46.60,-2.14,-2.35,-2.14,-2.34,2.35,2.22,2.07,0.20,0.20,0.20
47.06,-2.14,-2.34,-2.14,-2.34,2.34,2.21,2.06,0.19,0.19,0.19
47.53,-2.14,-2.33,-2.14,-2.33,2.33,2.21,2.06,0.18,0.18,0.18
48.01,-2.14,-2.33,-2.14,-2.33,2.32,2.21,2.06,0.18,0.18,0.18
48.49,-2.14,-2.32,-2.14,-2.32,2.31,2.20,2.05,0.17,0.17,0.17
48.97,-2.14,-2.31,-2.14,-2.30,2.31,2.20,2.05,0.16,0.16,0.16
49.46,-2.14,-2.29,-2.14,-2.29,2.30,2.19,2.05,0.15,0.15,0.14
49.96,-2.14,-2.28,-2.14,-2.29,2.29,2.19,2.06,0.15,0.15,0.13
50.46,-2.14,-2.29,-2.14,-2.28,2.29,2.18,2.06,0.14,0.14,0.14
50.96,-2.14,-2.29,-2.14,-2.28,2.28,2.18,2.06,0.14,0.14,0.14
51.47,-2.14,-2.28,-2.14,-2.28,2.28,2.17,2.07,0.14,0.14,0.13
51.99,-2.14,-2.28,-2.14,-2.28,2.28,2.17,2.07,0.14,0.14,0.13
52.51,-2.14,-2.28,-2.14,-2.28,2.28,2.16,2.08,0.13,0.13,0.13
53.03,-2.14,-2.28,-2.14,-2.28,2.28,2.16,2.08,0.13,0.13,0.13
53.56,-2.14,-2.28,-2.14,-2.28,2.27,2.15,2.09,0.13,0.13,0.13
54.10,-2.14,-2.27,-2.14,-2.27,2.27,2.14,2.10,0.12,0.12,0.12
54.64,-2.14,-2.26,-2.14,-2.26,2.26,2.14,2.10,0.11,0.11,0.11
55.18,-2.14,-2.25,-2.14,-2.25,2.25,2.13,2.11,0.10,0.10,0.10
55.74,-2.14,-2.23,-2.14,-2.24,2.24,2.12,2.11,0.09,0.09,0.08
56.29,-2.14,-2.23,-2.14,-2.22,2.22,2.12,2.12,0.08,0.08,0.08
56.86,-2.14,-2.21,-2.14,-2.21,2.21,2.11,2.12,0.07,0.07,0.06
57.42,-2.14,-2.19,-2.14,-2.19,2.20,2.10,2.13,0.05,0.05,0.04
58.00,-2.14,-2.18,-2.14,-2.18,2.18,2.09,2.13,0.04,0.04,0.03
58.58,-2.14,-2.16,-2.14,-2.16,2.16,2.09,2.13,0.02,0.02,0.01
59.16,-2.14,-2.15,-2.14,-2.15,2.14,2.08,2.13,-0.00,-0.00,0.00
59.76,-2.14,-2.13,-2.14,-2.13,2.12,2.07,2.13,-0.02,-0.02,-0.02
60.35,-2.14,-2.10,-2.14,-2.11,2.10,2.06,2.12,-0.05,-0.05,-0.05
60.96,-2.14,-2.09,-2.14,-2.08,2.07,2.05,2.12,-0.07,-0.07,-0.06
61.57,-2.14,-2.04,-2.14,-2.05,2.05,2.04,2.11,-0.10,-0.10,-0.11
62.18,-2.14,-2.01,-2.14,-2.02,2.02,2.03,2.10,-0.13,-0.13,-0.14
62.80,-2.14,-2.00,-2.14,-1.99,1.99,2.02,2.09,-0.15,-0.15,-0.15
63.43,-2.14,-1.96,-2.14,-1.96,1.97,2.01,2.08,-0.18,-0.18,-0.19
64.07,-2.14,-1.94,-2.14,-1.94,1.95,2.00,2.06,-0.20,-0.20,-0.21
64.71,-2.14,-1.93,-2.14,-1.92,1.93,1.99,2.04,-0.22,-0.22,-0.22
65.35,-2.14,-1.91,-2.14,-1.91,1.91,1.98,2.02,-0.23,-0.23,-0.24
66.01,-2.14,-1.90,-2.14,-1.90,1.90,1.97,2.00,-0.25,-0.25,-0.25
66.67,-2.14,-1.89,-2.14,-1.89,1.89,1.96,1.98,-0.26,-0.26,-0.26
67.33,-2.14,-1.88,-2.14,-1.88,1.88,1.94,1.95,-0.27,-0.27,-0.27
68.01,-2.14,-1.87,-2.14,-1.87,1.87,1.93,1.93,-0.27,-0.27,-0.28
68.69,-2.14,-1.86,-2.14,-1.86,1.86,1.92,1.90,-0.28,-0.28,-0.29
69.37,-2.14,-1.86,-2.14,-1.86,1.86,1.91,1.87,-0.29,-0.29,-0.29
70.07,-2.14,-1.85,-2.14,-1.85,1.85,1.89,1.84,-0.29,-0.29,-0.30
70.77,-2.14,-1.85,-2.14,-1.85,1.84,1.88,1.81,-0.30,-0.30,-0.30
71.48,-2.14,-1.84,-2.15,-1.84,1.83,1.86,1.78,-0.31,-0.31,-0.31
72.19,-2.14,-1.82,-2.14,-1.83,1.82,1.85,1.75,-0.32,-0.32,-0.33
72.91,-2.14,-1.82,-2.14,-1.81,1.81,1.83,1.72,-0.34,-0.34,-0.33
73.64,-2.13,-1.79,-2.14,-1.79,1.79,1.82,1.69,-0.35,-0.35,-0.35
74.38,-2.13,-1.78,-2.13,-1.77,1.77,1.80,1.65,-0.36,-0.36,-0.36
75.12,-2.12,-1.75,-2.12,-1.75,1.75,1.79,1.62,-0.37,-0.37,-0.38
75.87,-2.11,-1.73,-2.12,-1.74,1.74,1.77,1.59,-0.38,-0.38,-0.39
76.63,-2.12,-1.73,-2.12,-1.72,1.73,1.75,1.55,-0.40,-0.39,-0.40
77.40,-2.12,-1.71,-2.13,-1.71,1.72,1.73,1.52,-0.41,-0.41,-0.42
78.17,-2.13,-1.70,-2.14,-1.71,1.71,1.72,1.49,-0.42,-0.42,-0.44
78.95,-2.15,-1.72,-2.15,-1.71,1.71,1.70,1.46,-0.44,-0.44,-0.44
79.74,-2.16,-1.72,-2.17,-1.72,1.72,1.68,1.43,-0.44,-0.45,-0.45
80.54,-2.19,-1.74,-2.19,-1.73,1.73,1.66,1.40,-0.46,-0.46,-0.46
81.35,-2.21,-1.75,-2.21,-1.75,1.75,1.64,1.37,-0.46,-0.46,-0.47
82.16,-2.23,-1.76,-2.24,-1.77,1.77,1.62,1.34,-0.46,-0.47,-0.48
82.98,-2.26,-1.80,-2.27,-1.79,1.79,1.60,1.31,-0.47,-0.47,-0.47
83.81,-2.29,-1.82,-2.29,-1.82,1.82,1.58,1.28,-0.48,-0.47,-0.48
84.65,-2.32,-1.84,-2.32,-1.84,1.85,1.56,1.26,-0.48,-0.48,-0.49
85.50,-2.34,-1.87,-2.35,-1.87,1.87,1.54,1.23,-0.47,-0.48,-0.48
86.35,-2.37,-1.90,-2.37,-1.90,1.90,1.52,1.21,-0.48,-0.48,-0.48
87.22,-2.40,-1.92,-2.40,-1.92,1.92,1.50,1.18,-0.48,-0.48,-0.49
88.09,-2.42,-1.94,-2.43,-1.94,1.94,1.47,1.16,-0.48,-0.49,-0.49
88.97,-2.45,-1.96,-2.45,-1.96,1.95,1.45,1.14,-0.50,-0.50,-0.50
89.86,-2.47,-1.97,-2.47,-1.97,1.96,1.43,1.12,-0.52,-0.52,-0.51
90.76,-2.48,-1.96,-2.49,-1.96,1.95,1.40,1.10,-0.53,-0.54,-0.53
91.66,-2.49,-1.95,-2.49,-1.94,1.94,1.38,1.08,-0.56,-0.55,-0.55
92.58,-2.48,-1.91,-2.49,-1.92,1.91,1.36,1.06,-0.57,-0.57,-0.58
93.51,-2.47,-1.88,-2.48,-1.88,1.88,1.33,1.04,-0.59,-0.60,-0.60
94.44,-2.47,-1.85,-2.47,-1.84,1.85,1.31,1.02,-0.63,-0.63,-0.63
95.39,-2.46,-1.80,-2.47,-1.80,1.80,1.28,1.01,-0.66,-0.66,-0.67
96.34,-2.46,-1.76,-2.47,-1.75,1.76,1.26,0.99,-0.71,-0.71,-0.71
97.30,-2.46,-1.70,-2.46,-1.70,1.71,1.23,0.98,-0.76,-0.76,-0.77
98.28,-2.46,-1.65,-2.47,-1.65,1.66,1.21,0.96,-0.81,-0.81,-0.82
99.26,-2.46,-1.60,-2.47,-1.60,1.60,1.18,0.95,-0.86,-0.86,-0.87
100.25,-2.47,-1.55,-2.47,-1.55,1.55,1.15,0.94,-0.93,-0.92,-0.93
101.25,-2.47,-1.49,-2.48,-1.49,1.49,1.13,0.92,-0.98,-0.99,-0.99
102.27,-2.48,-1.44,-2.48,-1.44,1.43,1.10,0.91,-1.05,-1.05,-1.05
103.29,-2.47,-1.37,-2.48,-1.38,1.37,1.08,0.90,-1.10,-1.11,-1.11
104.32,-2.47,-1.32,-2.47,-1.31,1.31,1.05,0.89,-1.17,-1.17,-1.16
105.37,-2.46,-1.24,-2.46,-1.24,1.24,1.02,0.88,-1.22,-1.22,-1.23
106.42,-2.45,-1.17,-2.46,-1.18,1.18,0.99,0.87,-1.28,-1.28,-1.29
107.48,-2.44,-1.11,-2.44,-1.10,1.11,0.97,0.86,-1.34,-1.34,-1.34
108.56,-2.43,-1.04,-2.44,-1.04,1.04,0.94,0.85,-1.40,-1.40,-1.40
109.64,-2.42,-0.97,-2.43,-0.98,0.97,0.91,0.84,-1.45,-1.46,-1.46
110.74,-2.41,-0.91,-2.41,-0.91,0.90,0.89,0.83,-1.51,-1.51,-1.51
111.85,-2.39,-0.85,-2.39,-0.84,0.83,0.86,0.82,-1.56,-1.56,-1.55
112.97,-2.37,-0.76,-2.38,-0.77,0.77,0.83,0.81,-1.60,-1.61,-1.62
114.10,-2.36,-0.71,-2.37,-0.71,0.71,0.80,0.80,-1.65,-1.65,-1.66
115.24,-2.36,-0.66,-2.36,-0.65,0.66,0.77,0.79,-1.71,-1.70,-1.71
116.39,-2.35,-0.60,-2.36,-0.60,0.61,0.75,0.78,-1.74,-1.75,-1.76
117.55,-2.35,-0.56,-2.36,-0.56,0.57,0.72,0.77,-1.78,-1.79,-1.80
118.73,-2.36,-0.53,-2.36,-0.53,0.54,0.69,0.76,-1.83,-1.83,-1.84
119.92,-2.37,-0.51,-2.37,-0.51,0.51,0.66,0.75,-1.86,-1.86,-1.87
121.12,-2.38,-0.49,-2.39,-0.49,0.49,0.63,0.74,-1.90,-1.90,-1.90
122.33,-2.39,-0.47,-2.40,-0.47,0.47,0.61,0.72,-1.93,-1.93,-1.93
123.55,-2.41,-0.46,-2.41,-0.46,0.45,0.58,0.71,-1.96,-1.96,-1.96
124.79,-2.42,-0.44,-2.42,-0.44,0.44,0.55,0.70,-1.99,-1.99,-1.99
126.03,-2.43,-0.43,-2.43,-0.42,0.42,0.52,0.68,-2.01,-2.01,-2.01
127.29,-2.43,-0.40,-2.44,-0.40,0.40,0.49,0.67,-2.03,-2.03,-2.04
128.57,-2.44,-0.37,-2.45,-0.38,0.39,0.47,0.65,-2.06,-2.06,-2.08
129.85,-2.46,-0.37,-2.46,-0.36,0.36,0.44,0.64,-2.10,-2.10,-2.10
131.15,-2.47,-0.35,-2.47,-0.34,0.34,0.41,0.62,-2.13,-2.13,-2.13
132.46,-2.48,-0.32,-2.48,-0.32,0.31,0.38,0.60,-2.17,-2.17,-2.17
133.79,-2.47,-0.29,-2.48,-0.29,0.29,0.35,0.59,-2.19,-2.19,-2.19
135.12,-2.47,-0.26,-2.47,-0.26,0.26,0.32,0.57,-2.22,-2.22,-2.22
136.48,-2.46,-0.22,-2.47,-0.22,0.22,0.30,0.55,-2.24,-2.24,-2.25
137.84,-2.46,-0.19,-2.47,-0.18,0.19,0.27,0.53,-2.28,-2.28,-2.28
139.22,-2.46,-0.14,-2.46,-0.15,0.15,0.24,0.51,-2.31,-2.31,-2.33
140.61,-2.46,-0.11,-2.47,-0.12,0.11,0.21,0.49,-2.35,-2.35,-2.36
142.02,-2.46,-0.09,-2.46,-0.08,0.07,0.18,0.47,-2.39,-2.39,-2.38
143.44,-2.46,-0.05,-2.46,-0.04,0.03,0.15,0.45,-2.43,-2.42,-2.42
144.87,-2.44,0.01,-2.45,0.00,-0.00,0.12,0.43,-2.45,-2.45,-2.46
146.32,-2.44,0.05,-2.44,0.05,-0.04,0.09,0.40,-2.48,-2.48,-2.50
147.78,-2.44,0.08,-2.45,0.08,-0.07,0.06,0.38,-2.52,-2.52,-2.53
149.26,-2.45,0.10,-2.46,0.11,-0.10,0.03,0.36,-2.56,-2.56,-2.56
150.75,-2.47,0.13,-2.47,0.13,-0.13,0.01,0.34,-2.60,-2.60,-2.61
152.26,-2.48,0.16,-2.49,0.15,-0.15,-0.02,0.31,-2.63,-2.64,-2.65
153.78,-2.51,0.16,-2.52,0.16,-0.16,-0.05,0.29,-2.68,-2.68,-2.68
155.32,-2.54,0.18,-2.54,0.18,-0.18,-0.08,0.27,-2.72,-2.72,-2.73
156.88,-2.58,0.17,-2.58,0.18,-0.19,-0.11,0.25,-2.77,-2.77,-2.76
158.44,-2.60,0.21,-2.61,0.20,-0.20,-0.14,0.22,-2.81,-2.81,-2.82
160.03,-2.65,0.20,-2.65,0.21,-0.21,-0.17,0.20,-2.87,-2.86,-2.86
161.63,-2.67,0.23,-2.68,0.23,-0.22,-0.20,0.18,-2.90,-2.90,-2.91
163.24,-2.70,0.24,-2.71,0.23,-0.23,-0.23,0.15,-2.94,-2.94,-2.95
164.88,-2.74,0.24,-2.74,0.25,-0.25,-0.26,0.13,-2.99,-2.98,-2.99
166.53,-2.76,0.26,-2.77,0.26,-0.26,-0.29,0.11,-3.03,-3.03,-3.03
168.19,-2.78,0.28,-2.79,0.28,-0.28,-0.32,0.08,-3.07,-3.07,-3.07
169.87,-2.80,0.30,-2.80,0.30,-0.31,-0.35,0.06,-3.11,-3.11,-3.11
171.57,-2.81,0.32,-2.81,0.33,-0.34,-0.38,0.04,-3.15,-3.15,-3.14
173.29,-2.81,0.36,-2.81,0.36,-0.37,-0.41,0.01,-3.19,-3.18,-3.18
175.02,-2.80,0.41,-2.81,0.41,-0.40,-0.44,-0.01,-3.21,-3.21,-3.22
176.77,-2.79,0.45,-2.80,0.45,-0.44,-0.46,-0.03,-3.23,-3.24,-3.25
178.54,-2.79,0.48,-2.79,0.48,-0.47,-0.49,-0.06,-3.27,-3.27,-3.28
180.32,-2.79,0.51,-2.79,0.51,-0.50,-0.51,-0.08,-3.30,-3.30,-3.31
182.13,-2.79,0.53,-2.79,0.53,-0.53,-0.54,-0.11,-3.32,-3.32,-3.33
183.95,-2.79,0.55,-2.79,0.55,-0.55,-0.56,-0.13,-3.35,-3.35,-3.35
185.79,-2.79,0.57,-2.79,0.57,-0.57,-0.58,-0.15,-3.37,-3.37,-3.37
187.65,-2.79,0.59,-2.79,0.59,-0.59,-0.60,-0.18,-3.38,-3.38,-3.39
189.52,-2.79,0.60,-2.80,0.60,-0.61,-0.61,-0.20,-3.40,-3.40,-3.40
191.42,-2.79,0.62,-2.80,0.62,-0.63,-0.63,-0.22,-3.42,-3.42,-3.42
193.33,-2.79,0.63,-2.79,0.63,-0.65,-0.64,-0.25,-3.44,-3.44,-3.43
195.27,-2.78,0.65,-2.78,0.66,-0.66,-0.65,-0.27,-3.45,-3.44,-3.44
197.22,-2.76,0.69,-2.77,0.69,-0.68,-0.66,-0.30,-3.44,-3.45,-3.46
199.19,-2.76,0.71,-2.77,0.70,-0.69,-0.67,-0.32,-3.45,-3.46,-3.48
201.18,-2.77,0.71,-2.77,0.71,-0.70,-0.67,-0.34,-3.47,-3.47,-3.49
203.19,-2.79,0.69,-2.79,0.70,-0.70,-0.68,-0.37,-3.49,-3.49,-3.49
205.23,-2.80,0.70,-2.81,0.69,-0.70,-0.68,-0.39,-3.50,-3.50,-3.51
207.28,-2.82,0.68,-2.82,0.69,-0.69,-0.68,-0.41,-3.52,-3.51,-3.51
209.35,-2.84,0.68,-2.84,0.68,-0.68,-0.68,-0.43,-3.53,-3.53,-3.53
211.44,-2.86,0.68,-2.87,0.67,-0.67,-0.67,-0.46,-3.54,-3.54,-3.55
213.56,-2.89,0.66,-2.89,0.66,-0.66,-0.67,-0.48,-3.56,-3.56,-3.56
215.69,-2.91,0.64,-2.91,0.65,-0.66,-0.66,-0.50,-3.57,-3.57,-3.56
217.85,-2.92,0.65,-2.93,0.65,-0.65,-0.65,-0.52,-3.58,-3.58,-3.58
220.03,-2.93,0.65,-2.94,0.65,-0.64,-0.65,-0.54,-3.58,-3.58,-3.59
222.23,-2.95,0.65,-2.95,0.65,-0.64,-0.64,-0.56,-3.59,-3.59,-3.61
224.45,-2.96,0.64,-2.97,0.64,-0.64,-0.63,-0.58,-3.60,-3.61,-3.61
226.70,-2.99,0.63,-2.99,0.63,-0.64,-0.62,-0.59,-3.63,-3.62,-3.63
228.96,-3.00,0.63,-3.00,0.63,-0.64,-0.61,-0.61,-3.64,-3.64,-3.64
231.25,-3.01,0.63,-3.02,0.63,-0.64,-0.59,-0.62,-3.66,-3.66,-3.65
233.57,-3.02,0.64,-3.02,0.64,-0.65,-0.58,-0.64,-3.68,-3.67,-3.67
235.90,-3.03,0.64,-3.03,0.65,-0.66,-0.57,-0.65,-3.69,-3.68,-3.68
238.26,-3.02,0.67,-3.03,0.67,-0.66,-0.56,-0.66,-3.69,-3.69,-3.70
240.64,-3.03,0.68,-3.03,0.68,-0.66,-0.55,-0.67,-3.70,-3.70,-3.72
243.05,-3.04,0.68,-3.05,0.68,-0.66,-0.54,-0.68,-3.71,-3.71,-3.73
245.48,-3.06,0.67,-3.07,0.67,-0.65,-0.53,-0.69,-3.72,-3.72,-3.74
247.93,-3.10,0.64,-3.10,0.65,-0.64,-0.52,-0.69,-3.75,-3.74,-3.75
250.41,-3.12,0.63,-3.13,0.62,-0.62,-0.51,-0.70,-3.75,-3.75,-3.76
252.92,-3.15,0.59,-3.15,0.60,-0.61,-0.50,-0.70,-3.76,-3.76,-3.75
255.45,-3.17,0.57,-3.17,0.57,-0.59,-0.49,-0.70,-3.76,-3.76,-3.75
258.00,-3.18,0.55,-3.19,0.55,-0.57,-0.48,-0.70,-3.75,-3.75,-3.74
260.58,-3.19,0.54,-3.19,0.55,-0.55,-0.47,-0.70,-3.74,-3.73,-3.74
263.19,-3.18,0.54,-3.19,0.54,-0.53,-0.46,-0.70,-3.71,-3.72,-3.73
265.82,-3.18,0.53,-3.19,0.52,-0.51,-0.45,-0.69,-3.70,-3.70,-3.72
268.48,-3.19,0.50,-3.19,0.51,-0.50,-0.45,-0.69,-3.70,-3.69,-3.70
271.16,-3.18,0.49,-3.19,0.49,-0.49,-0.44,-0.68,-3.67,-3.68,-3.68
273.87,-3.18,0.48,-3.19,0.47,-0.48,-0.43,-0.67,-3.66,-3.67,-3.67
276.61,-3.18,0.45,-3.18,0.46,-0.47,-0.43,-0.66,-3.66,-3.65,-3.64
279.38,-3.17,0.46,-3.18,0.45,-0.46,-0.42,-0.65,-3.64,-3.64,-3.64
282.17,-3.16,0.45,-3.17,0.45,-0.46,-0.42,-0.64,-3.62,-3.62,-3.62
284.99,-3.15,0.45,-3.15,0.45,-0.45,-0.41,-0.63,-3.61,-3.60,-3.61
287.84,-3.13,0.45,-3.13,0.45,-0.45,-0.41,-0.62,-3.58,-3.58,-3.59
290.72,-3.11,0.45,-3.12,0.45,-0.45,-0.40,-0.60,-3.56,-3.56,-3.57
293.63,-3.10,0.45,-3.11,0.44,-0.44,-0.40,-0.59,-3.54,-3.54,-3.56
296.57,-3.10,0.42,-3.10,0.43,-0.42,-0.40,-0.58,-3.53,-3.53,-3.53
299.53,-3.10,0.41,-3.10,0.41,-0.41,-0.39,-0.56,-3.51,-3.51,-3.52
302.53,-3.10,0.40,-3.11,0.39,-0.38,-0.39,-0.55,-3.49,-3.49,-3.51
305.55,-3.11,0.36,-3.12,0.37,-0.35,-0.39,-0.53,-3.47,-3.47,-3.48
308.61,-3.12,0.33,-3.12,0.33,-0.33,-0.39,-0.52,-3.45,-3.45,-3.46
311.69,-3.13,0.29,-3.13,0.29,-0.30,-0.39,-0.50,-3.43,-3.43,-3.43
314.81,-3.13,0.25,-3.14,0.26,-0.27,-0.39,-0.49,-3.41,-3.41,-3.39
317.96,-3.13,0.24,-3.13,0.24,-0.25,-0.39,-0.47,-3.38,-3.38,-3.38
321.14,-3.12,0.23,-3.13,0.23,-0.23,-0.38,-0.46,-3.36,-3.36,-3.36
324.35,-3.11,0.22,-3.11,0.22,-0.22,-0.39,-0.44,-3.34,-3.34,-3.34
327.59,-3.09,0.22,-3.10,0.22,-0.22,-0.39,-0.43,-3.31,-3.32,-3.32
330.87,-3.07,0.22,-3.07,0.22,-0.22,-0.39,-0.41,-3.30,-3.29,-3.30
334.18,-3.04,0.22,-3.04,0.23,-0.23,-0.39,-0.40,-3.27,-3.27,-3.27
337.52,-3.00,0.24,-3.01,0.23,-0.23,-0.39,-0.38,-3.24,-3.24,-3.25
340.90,-2.98,0.24,-2.98,0.24,-0.24,-0.39,-0.37,-3.23,-3.22,-3.23
344.30,-2.94,0.25,-2.95,0.25,-0.25,-0.39,-0.35,-3.20,-3.20,-3.20
347.75,-2.91,0.26,-2.92,0.26,-0.26,-0.40,-0.34,-3.17,-3.18,-3.18
351.23,-2.88,0.26,-2.88,0.26,-0.27,-0.40,-0.32,-3.15,-3.15,-3.15
354.74,-2.85,0.26,-2.85,0.27,-0.27,-0.40,-0.31,-3.12,-3.12,-3.12
358.28,-2.82,0.28,-2.83,0.27,-0.27,-0.40,-0.30,-3.09,-3.09,-3.11
361.87,-2.80,0.27,-2.80,0.27,-0.26,-0.41,-0.28,-3.06,-3.06,-3.08
365.49,-2.78,0.26,-2.79,0.26,-0.25,-0.41,-0.27,-3.03,-3.04,-3.05
369.14,-2.78,0.25,-2.79,0.24,-0.23,-0.42,-0.26,-3.02,-3.02,-3.04
372.83,-2.78,0.22,-2.79,0.22,-0.22,-0.42,-0.25,-3.00,-3.00,-3.01
376.56,-2.79,0.19,-2.79,0.20,-0.20,-0.42,-0.23,-3.00,-2.99,-2.99
380.33,-2.78,0.17,-2.79,0.17,-0.19,-0.43,-0.22,-2.97,-2.97,-2.96
384.13,-2.77,0.17,-2.78,0.17,-0.18,-0.44,-0.21,-2.95,-2.95,-2.95
387.97,-2.76,0.16,-2.76,0.17,-0.17,-0.44,-0.20,-2.94,-2.93,-2.93
391.85,-2.73,0.18,-2.74,0.17,-0.18,-0.45,-0.19,-2.91,-2.91,-2.92
395.77,-2.70,0.18,-2.71,0.18,-0.19,-0.45,-0.18,-2.89,-2.90,-2.89
399.73,-2.67,0.20,-2.67,0.21,-0.21,-0.46,-0.17,-2.88,-2.88,-2.88
403.72,-2.64,0.23,-2.64,0.23,-0.23,-0.47,-0.16,-2.87,-2.87,-2.88
407.76,-2.60,0.26,-2.61,0.26,-0.25,-0.47,-0.15,-2.86,-2.86,-2.87
411.84,-2.57,0.28,-2.58,0.29,-0.28,-0.48,-0.14,-2.85,-2.85,-2.86
415.96,-2.55,0.31,-2.55,0.31,-0.30,-0.49,-0.13,-2.86,-2.85,-2.87
420.12,-2.52,0.34,-2.53,0.33,-0.33,-0.50,-0.12,-2.85,-2.86,-2.87
424.32,-2.51,0.35,-2.51,0.35,-0.35,-0.50,-0.12,-2.87,-2.87,-2.87
428.56,-2.49,0.37,-2.49,0.38,-0.38,-0.51,-0.11,-2.87,-2.87,-2.87
432.85,-2.47,0.40,-2.47,0.40,-0.40,-0.52,-0.11,-2.88,-2.87,-2.88
437.18,-2.44,0.43,-2.45,0.42,-0.43,-0.53,-0.10,-2.87,-2.88,-2.88
441.55,-2.43,0.44,-2.43,0.45,-0.45,-0.54,-0.10,-2.89,-2.88,-2.88
445.96,-2.40,0.48,-2.41,0.48,-0.48,-0.55,-0.10,-2.88,-2.88,-2.89
450.42,-2.37,0.51,-2.38,0.51,-0.51,-0.56,-0.10,-2.88,-2.89,-2.89
