frequency,raw,error,smoothed,error_smoothed,equalization,parametric_eq,fixed_band_eq,equalized_raw,equalized_smoothed,target
20.00,-22.40,-20.39,-22.41,-20.42,20.42,20.79,8.65,-1.98,-1.99,-2.01
20.20,-22.24,-20.32,-22.25,-20.34,20.34,20.66,8.83,-1.91,-1.91,-1.92
20.40,-22.08,-20.24,-22.08,-20.25,20.25,20.53,9.01,-1.83,-1.83,-1.84
20.61,-21.93,-20.16,-21.92,-20.16,20.16,20.40,9.19,-1.77,-1.76,-1.77
20.81,-21.76,-20.08,-21.76,-20.07,20.07,20.27,9.38,-1.70,-1.69,-1.68
21.02,-21.59,-19.99,-21.60,-19.97,19.97,20.15,9.57,-1.62,-1.63,-1.60
21.23,-21.43,-19.89,-21.43,-19.87,19.87,20.02,9.77,-1.56,-1.56,-1.54
21.44,-21.27,-19.79,-21.27,-19.77,19.77,19.90,9.97,-1.50,-1.50,-1.48
21.66,-21.12,-19.69,-21.11,-19.67,19.67,19.77,10.17,-1.45,-1.44,-1.43
21.87,-20.94,-19.56,-20.95,-19.56,19.56,19.65,10.39,-1.38,-1.39,-1.38
22.09,-20.78,-19.45,-20.79,-19.45,19.45,19.53,10.61,-1.33,-1.33,-1.33
22.31,-20.62,-19.34,-20.62,-19.34,19.34,19.41,10.83,-1.28,-1.28,-1.28
22.54,-20.47,-19.23,-20.46,-19.22,19.22,19.29,11.06,-1.24,-1.24,-1.24
22.76,-20.30,-19.10,-20.30,-19.10,19.10,19.17,11.30,-1.20,-1.20,-1.20
22.99,-20.15,-18.98,-20.14,-18.98,18.98,19.05,11.54,-1.16,-1.16,-1.17
23.22,-19.99,-18.86,-19.98,-18.86,18.86,18.93,11.79,-1.13,-1.12,-1.13
23.45,-19.81,-18.72,-19.82,-18.74,18.74,18.81,12.05,-1.08,-1.08,-1.09
23.69,-19.66,-18.61,-19.66,-18.61,18.61,18.69,12.31,-1.05,-1.05,-1.05
23.92,-19.49,-18.48,-19.50,-18.49,18.49,18.58,12.58,-1.01,-1.01,-1.01
24.16,-19.33,-18.37,-19.34,-18.36,18.36,18.46,12.86,-0.97,-0.97,-0.96
24.40,-19.17,-18.24,-19.18,-18.24,18.24,18.35,13.15,-0.93,-0.94,-0.93
24.65,-19.03,-18.12,-19.02,-18.11,18.11,18.23,13.44,-0.91,-0.91,-0.91
24.89,-18.86,-17.98,-18.86,-17.99,17.99,18.12,13.75,-0.87,-0.87,-0.88
25.14,-18.70,-17.86,-18.71,-17.87,17.87,18.01,14.06,-0.84,-0.84,-0.84
25.39,-18.55,-17.74,-18.55,-17.74,17.74,17.89,14.39,-0.81,-0.81,-0.81
25.65,-18.40,-17.63,-18.40,-17.62,17.62,17.78,14.72,-0.77,-0.77,-0.77
25.91,-18.25,-17.50,-18.24,-17.50,17.50,17.67,15.06,-0.75,-0.74,-0.75
26.16,-18.08,-17.36,-18.09,-17.38,17.38,17.56,15.42,-0.71,-0.71,-0.72
26.43,-17.94,-17.26,-17.94,-17.25,17.25,17.44,15.78,-0.68,-0.68,-0.68
26.69,-17.78,-17.13,-17.79,-17.13,17.13,17.33,16.15,-0.65,-0.65,-0.65
26.96,-17.64,-17.02,-17.64,-17.01,17.01,17.22,16.53,-0.62,-0.62,-0.62
27.23,-17.50,-16.91,-17.49,-16.89,16.89,17.11,16.92,-0.60,-0.59,-0.59
27.50,-17.35,-16.79,-17.34,-16.78,16.78,17.00,17.31,-0.57,-0.56,-0.56
27.77,-17.19,-16.65,-17.19,-16.66,16.66,16.89,17.71,-0.53,-0.53,-0.54
28.05,-17.04,-16.54,-17.05,-16.54,16.54,16.78,18.11,-0.50,-0.50,-0.50
28.33,-16.90,-16.42,-16.90,-16.43,16.43,16.67,18.52,-0.47,-0.47,-0.48
28.62,-16.77,-16.32,-16.76,-16.32,16.32,16.56,18.92,-0.45,-0.44,-0.45
28.90,-16.62,-16.21,-16.62,-16.21,16.21,16.45,19.31,-0.41,-0.41,-0.41
29.19,-16.48,-16.09,-16.49,-16.10,16.10,16.34,19.68,-0.38,-0.38,-0.39
29.48,-16.34,-16.00,-16.35,-16.00,16.00,16.24,20.03,-0.35,-0.36,-0.34
29.78,-16.21,-15.88,-16.22,-15.89,15.89,16.13,20.36,-0.31,-0.33,-0.33
30.08,-16.08,-15.78,-16.09,-15.79,15.79,16.02,20.64,-0.28,-0.30,-0.30
30.38,-15.97,-15.70,-15.97,-15.70,15.70,15.91,20.87,-0.27,-0.27,-0.27
30.68,-15.84,-15.60,-15.85,-15.60,15.60,15.80,21.04,-0.24,-0.25,-0.24
30.99,-15.74,-15.52,-15.73,-15.51,15.51,15.70,21.14,-0.23,-0.22,-0.22
31.30,-15.62,-15.42,-15.61,-15.42,15.42,15.59,21.18,-0.20,-0.19,-0.20
31.61,-15.50,-15.34,-15.50,-15.33,15.33,15.48,21.14,-0.18,-0.17,-0.17
31.93,-15.40,-15.25,-15.39,-15.24,15.24,15.37,21.04,-0.15,-0.15,-0.15
32.24,-15.28,-15.15,-15.28,-15.15,15.15,15.27,20.87,-0.13,-0.12,-0.13
32.57,-15.18,-15.08,-15.17,-15.07,15.07,15.16,20.65,-0.11,-0.10,-0.10
32.89,-15.06,-14.98,-15.06,-14.98,14.98,15.05,20.38,-0.08,-0.08,-0.08
33.22,-14.95,-14.89,-14.96,-14.90,14.90,14.94,20.07,-0.06,-0.06,-0.06
33.55,-14.85,-14.81,-14.86,-14.81,14.81,14.84,19.74,-0.04,-0.04,-0.04
33.89,-14.75,-14.72,-14.76,-14.73,14.73,14.73,19.39,-0.03,-0.03,-0.03
34.23,-14.66,-14.65,-14.66,-14.64,14.64,14.63,19.02,-0.01,-0.01,-0.01
34.57,-14.55,-14.55,-14.56,-14.56,14.56,14.52,18.65,0.00,-0.00,0.00
34.92,-14.46,-14.47,-14.46,-14.47,14.47,14.41,18.28,0.02,0.01,0.01
35.27,-14.37,-14.40,-14.37,-14.39,14.39,14.31,17.91,0.02,0.02,0.03
35.62,-14.28,-14.30,-14.28,-14.31,14.31,14.20,17.54,0.03,0.03,0.02
35.97,-14.19,-14.22,-14.19,-14.22,14.22,14.09,17.18,0.03,0.03,0.03
36.33,-14.10,-14.15,-14.10,-14.13,14.13,13.99,16.83,0.03,0.04,0.05
36.70,-14.01,-14.05,-14.01,-14.05,14.05,13.88,16.48,0.04,0.04,0.04
37.06,-13.91,-13.95,-13.92,-13.96,13.96,13.78,16.15,0.04,0.04,0.04
37.43,-13.82,-13.86,-13.83,-13.87,13.87,13.67,15.83,0.04,0.04,0.04
37.81,-13.74,-13.78,-13.74,-13.78,13.78,13.57,15.51,0.03,0.04,0.04
38.19,-13.65,-13.69,-13.65,-13.69,13.69,13.46,15.21,0.04,0.04,0.04
38.57,-13.55,-13.60,-13.56,-13.59,13.59,13.36,14.92,0.04,0.04,0.04
38.95,-13.46,-13.50,-13.46,-13.50,13.50,13.25,14.64,0.03,0.03,0.04
39.34,-13.37,-13.39,-13.37,-13.40,13.40,13.15,14.36,0.03,0.03,0.02
39.74,-13.28,-13.30,-13.28,-13.30,13.30,13.04,14.10,0.03,0.02,0.02
40.14,-13.19,-13.20,-13.18,-13.20,13.20,12.94,13.84,0.01,0.02,0.01
40.54,-13.09,-13.10,-13.08,-13.10,13.10,12.83,13.60,0.01,0.01,0.01
40.94,-12.98,-12.98,-12.99,-12.99,12.99,12.73,13.36,0.01,0.00,0.00
41.35,-12.89,-12.89,-12.89,-12.88,12.88,12.62,13.14,-0.01,-0.00,0.00
41.76,-12.79,-12.78,-12.79,-12.77,12.77,12.52,12.92,-0.02,-0.01,-0.01
42.18,-12.68,-12.66,-12.68,-12.66,12.66,12.42,12.71,-0.02,-0.02,-0.02
42.60,-12.58,-12.55,-12.58,-12.55,12.55,12.31,12.50,-0.04,-0.03,-0.03
43.03,-12.47,-12.44,-12.47,-12.43,12.43,12.21,12.31,-0.04,-0.04,-0.03
43.46,-12.36,-12.32,-12.37,-12.32,12.32,12.11,12.12,-0.05,-0.05,-0.04
43.90,-12.26,-12.20,-12.26,-12.20,12.20,12.00,11.94,-0.06,-0.06,-0.06
44.33,-12.14,-12.06,-12.15,-12.08,12.08,11.90,11.76,-0.06,-0.07,-0.08
44.78,-12.04,-11.95,-12.04,-11.96,11.96,11.80,11.60,-0.07,-0.08,-0.09
45.23,-11.94,-11.84,-11.93,-11.84,11.84,11.70,11.44,-0.10,-0.09,-0.10
45.68,-11.83,-11.72,-11.82,-11.72,11.72,11.59,11.28,-0.11,-0.10,-0.11
46.13,-11.71,-11.59,-11.71,-11.59,11.59,11.49,11.13,-0.12,-0.11,-0.12
46.60,-11.60,-11.48,-11.59,-11.47,11.47,11.39,10.99,-0.12,-0.12,-0.12
47.06,-11.48,-11.35,-11.48,-11.35,11.35,11.29,10.85,-0.14,-0.13,-0.13
47.53,-11.36,-11.22,-11.36,-11.22,11.22,11.19,10.72,-0.14,-0.14,-0.14
48.01,-11.26,-11.12,-11.25,-11.10,11.10,11.09,10.60,-0.16,-0.15,-0.14
48.49,-11.14,-10.99,-11.13,-10.97,10.97,10.99,10.48,-0.16,-0.16,-0.15
48.97,-11.01,-10.85,-11.01,-10.85,10.85,10.89,10.36,-0.16,-0.16,-0.16
49.46,-10.89,-10.71,-10.89,-10.73,10.73,10.79,10.25,-0.17,-0.17,-0.18
49.96,-10.78,-10.59,-10.78,-10.60,10.60,10.69,10.14,-0.17,-0.17,-0.19
50.46,-10.66,-10.48,-10.66,-10.48,10.48,10.59,10.04,-0.18,-0.18,-0.18
50.96,-10.54,-10.36,-10.54,-10.36,10.36,10.49,9.94,-0.19,-0.18,-0.18
51.47,-10.42,-10.23,-10.42,-10.24,10.24,10.39,9.84,-0.19,-0.18,-0.19
51.99,-10.30,-10.11,-10.31,-10.12,10.12,10.29,9.75,-0.18,-0.19,-0.19
52.51,-10.19,-10.00,-10.19,-10.00,10.00,10.19,9.66,-0.19,-0.19,-0.19
53.03,-10.07,-9.88,-10.08,-9.88,9.88,10.09,9.57,-0.19,-0.20,-0.19
53.56,-9.96,-9.77,-9.97,-9.76,9.76,10.00,9.49,-0.20,-0.20,-0.19
54.10,-9.86,-9.66,-9.86,-9.65,9.65,9.90,9.41,-0.20,-0.21,-0.20
54.64,-9.75,-9.54,-9.75,-9.54,9.54,9.80,9.33,-0.21,-0.21,-0.21
55.18,-9.64,-9.42,-9.65,-9.43,9.43,9.71,9.25,-0.22,-0.22,-0.22
55.74,-9.55,-9.31,-9.54,-9.31,9.31,9.61,9.17,-0.23,-0.23,-0.24
56.29,-9.45,-9.21,-9.45,-9.20,9.20,9.52,9.10,-0.25,-0.24,-0.24
56.86,-9.36,-9.10,-9.35,-9.09,9.09,9.42,9.02,-0.26,-0.26,-0.26
57.42,-9.25,-8.97,-9.25,-8.98,8.98,9.33,8.95,-0.27,-0.27,-0.28
58.00,-9.15,-8.87,-9.16,-8.87,8.87,9.23,8.87,-0.28,-0.29,-0.29
58.58,-9.06,-8.76,-9.07,-8.76,8.76,9.14,8.80,-0.31,-0.31,-0.31
59.16,-8.98,-8.66,-8.98,-8.65,8.65,9.04,8.72,-0.33,-0.33,-0.32
59.76,-8.90,-8.56,-8.90,-8.54,8.54,8.95,8.64,-0.35,-0.35,-0.34
60.35,-8.81,-8.44,-8.81,-8.44,8.44,8.86,8.57,-0.38,-0.38,-0.37
60.96,-8.74,-8.36,-8.74,-8.33,8.33,8.77,8.49,-0.40,-0.40,-0.38
61.57,-8.66,-8.23,-8.66,-8.23,8.23,8.67,8.41,-0.42,-0.42,-0.43
62.18,-8.58,-8.12,-8.58,-8.14,8.14,8.58,8.33,-0.45,-0.45,-0.46
62.80,-8.50,-8.03,-8.51,-8.04,8.04,8.49,8.25,-0.46,-0.47,-0.47
63.43,-8.43,-7.92,-8.44,-7.95,7.95,8.40,8.16,-0.49,-0.49,-0.51
64.07,-8.37,-7.84,-8.37,-7.86,7.86,8.31,8.08,-0.51,-0.51,-0.53
64.71,-8.31,-7.78,-8.31,-7.77,7.77,8.22,7.99,-0.54,-0.53,-0.54
65.35,-8.25,-7.69,-8.24,-7.69,7.69,8.14,7.90,-0.56,-0.55,-0.56
66.01,-8.19,-7.63,-8.18,-7.61,7.61,8.05,7.81,-0.58,-0.57,-0.57
66.67,-8.12,-7.55,-8.12,-7.54,7.54,7.96,7.72,-0.59,-0.58,-0.58
67.33,-8.06,-7.47,-8.06,-7.47,7.47,7.87,7.63,-0.59,-0.59,-0.59
68.01,-8.00,-7.41,-8.00,-7.40,7.40,7.79,7.54,-0.60,-0.60,-0.60
68.69,-7.93,-7.33,-7.94,-7.34,7.34,7.70,7.44,-0.60,-0.61,-0.61
69.37,-7.87,-7.26,-7.89,-7.28,7.28,7.62,7.35,-0.60,-0.61,-0.61
70.07,-7.82,-7.20,-7.84,-7.21,7.21,7.53,7.26,-0.61,-0.62,-0.62
70.77,-7.77,-7.15,-7.78,-7.15,7.15,7.45,7.16,-0.62,-0.63,-0.62
71.48,-7.73,-7.11,-7.73,-7.09,7.09,7.36,7.07,-0.64,-0.64,-0.63
72.19,-7.68,-7.03,-7.68,-7.03,7.03,7.28,6.98,-0.66,-0.65,-0.65
72.91,-7.64,-6.99,-7.63,-6.97,6.97,7.20,6.89,-0.68,-0.66,-0.65
73.64,-7.58,-6.91,-7.58,-6.91,6.91,7.12,6.80,-0.67,-0.67,-0.67
74.38,-7.54,-6.86,-7.54,-6.85,6.85,7.04,6.71,-0.69,-0.68,-0.68
75.12,-7.49,-6.79,-7.49,-6.79,6.79,6.96,6.62,-0.70,-0.70,-0.70
75.87,-7.45,-6.74,-7.45,-6.74,6.74,6.88,6.54,-0.72,-0.71,-0.71
76.63,-7.40,-6.68,-7.41,-6.68,6.68,6.80,6.46,-0.72,-0.72,-0.72
77.40,-7.36,-6.62,-7.37,-6.63,6.63,6.72,6.37,-0.73,-0.74,-0.74
78.17,-7.32,-6.56,-7.33,-6.59,6.59,6.64,6.30,-0.74,-0.75,-0.76
78.95,-7.28,-6.52,-7.30,-6.54,6.54,6.56,6.22,-0.74,-0.76,-0.76
79.74,-7.26,-6.49,-7.27,-6.50,6.50,6.49,6.15,-0.77,-0.77,-0.77
80.54,-7.22,-6.44,-7.24,-6.46,6.46,6.41,6.07,-0.76,-0.78,-0.78
81.35,-7.19,-6.40,-7.21,-6.43,6.43,6.34,6.01,-0.77,-0.78,-0.79
82.16,-7.17,-6.37,-7.18,-6.40,6.40,6.26,5.94,-0.78,-0.79,-0.80
82.98,-7.16,-6.37,-7.16,-6.37,6.37,6.19,5.88,-0.80,-0.79,-0.79
83.81,-7.14,-6.34,-7.13,-6.34,6.34,6.12,5.82,-0.80,-0.79,-0.80
84.65,-7.12,-6.31,-7.11,-6.31,6.31,6.04,5.76,-0.81,-0.80,-0.81
85.50,-7.10,-6.30,-7.09,-6.29,6.29,5.97,5.71,-0.82,-0.80,-0.80
86.35,-7.07,-6.27,-7.06,-6.26,6.26,5.90,5.66,-0.82,-0.80,-0.80
87.22,-7.03,-6.23,-7.04,-6.23,6.23,5.83,5.61,-0.80,-0.81,-0.81
88.09,-7.01,-6.20,-7.01,-6.20,6.20,5.76,5.57,-0.82,-0.82,-0.81
88.97,-6.98,-6.16,-6.99,-6.16,6.16,5.70,5.53,-0.82,-0.83,-0.82
89.86,-6.95,-6.12,-6.96,-6.12,6.12,5.63,5.49,-0.83,-0.84,-0.83
90.76,-6.93,-6.08,-6.93,-6.08,6.08,5.56,5.45,-0.86,-0.85,-0.85
91.66,-6.91,-6.04,-6.90,-6.03,6.03,5.49,5.42,-0.89,-0.87,-0.87
92.58,-6.88,-5.98,-6.87,-5.97,5.97,5.43,5.39,-0.91,-0.90,-0.90
93.51,-6.84,-5.93,-6.85,-5.92,5.92,5.37,5.37,-0.93,-0.93,-0.92
94.44,-6.82,-5.87,-6.82,-5.86,5.86,5.30,5.35,-0.96,-0.96,-0.95
95.39,-6.79,-5.81,-6.80,-5.80,5.80,5.24,5.33,-0.99,-1.00,-0.99
96.34,-6.77,-5.74,-6.79,-5.74,5.74,5.18,5.31,-1.03,-1.04,-1.03
97.30,-6.75,-5.66,-6.77,-5.68,5.68,5.12,5.29,-1.07,-1.09,-1.09
98.28,-6.74,-5.61,-6.76,-5.62,5.62,5.06,5.28,-1.12,-1.14,-1.14
99.26,-6.73,-5.54,-6.75,-5.56,5.56,5.00,5.27,-1.18,-1.19,-1.19
100.25,-6.73,-5.48,-6.74,-5.49,5.49,4.94,5.26,-1.24,-1.25,-1.25
101.25,-6.73,-5.42,-6.73,-5.43,5.43,4.88,5.26,-1.31,-1.31,-1.31
102.27,-6.74,-5.37,-6.73,-5.37,5.37,4.82,5.26,-1.38,-1.36,-1.37
103.29,-6.75,-5.32,-6.73,-5.30,5.30,4.77,5.25,-1.45,-1.42,-1.43
104.32,-6.75,-5.27,-6.73,-5.24,5.24,4.71,5.25,-1.51,-1.48,-1.48
105.37,-6.75,-5.21,-6.73,-5.19,5.19,4.66,5.25,-1.57,-1.54,-1.55
106.42,-6.74,-5.13,-6.74,-5.13,5.13,4.61,5.26,-1.61,-1.60,-1.61
107.48,-6.73,-5.07,-6.74,-5.08,5.08,4.56,5.26,-1.65,-1.66,-1.66
108.56,-6.73,-5.01,-6.75,-5.04,5.04,4.51,5.26,-1.70,-1.72,-1.72
109.64,-6.74,-4.96,-6.77,-4.99,4.99,4.46,5.26,-1.75,-1.78,-1.78
110.74,-6.75,-4.92,-6.78,-4.95,4.95,4.41,5.27,-1.80,-1.83,-1.83
111.85,-6.78,-4.91,-6.80,-4.92,4.92,4.36,5.27,-1.87,-1.88,-1.87
112.97,-6.81,-4.87,-6.82,-4.89,4.89,4.31,5.27,-1.92,-1.93,-1.94
114.10,-6.84,-4.86,-6.85,-4.87,4.87,4.27,5.27,-1.98,-1.98,-1.98
115.24,-6.87,-4.84,-6.88,-4.85,4.85,4.22,5.27,-2.03,-2.03,-2.03
116.39,-6.90,-4.82,-6.91,-4.84,4.84,4.18,5.27,-2.07,-2.07,-2.08
117.55,-6.93,-4.81,-6.94,-4.83,4.83,4.14,5.27,-2.11,-2.11,-2.12
118.73,-6.96,-4.80,-6.97,-4.82,4.82,4.10,5.26,-2.14,-2.15,-2.16
119.92,-7.01,-4.82,-7.00,-4.81,4.81,4.06,5.26,-2.20,-2.18,-2.19
121.12,-7.03,-4.81,-7.02,-4.80,4.80,4.02,5.25,-2.23,-2.22,-2.22
122.33,-7.05,-4.80,-7.04,-4.79,4.79,3.98,5.23,-2.27,-2.25,-2.25
123.55,-7.07,-4.79,-7.05,-4.77,4.77,3.95,5.22,-2.30,-2.28,-2.28
124.79,-7.09,-4.78,-7.06,-4.75,4.75,3.92,5.20,-2.34,-2.31,-2.31
126.03,-7.10,-4.77,-7.07,-4.73,4.73,3.88,5.18,-2.37,-2.34,-2.33
127.29,-7.10,-4.74,-7.07,-4.71,4.71,3.85,5.16,-2.40,-2.37,-2.36
128.57,-7.09,-4.69,-7.08,-4.68,4.68,3.82,5.13,-2.41,-2.40,-2.40
129.85,-7.06,-4.64,-7.08,-4.66,4.66,3.80,5.10,-2.41,-2.42,-2.42
131.15,-7.05,-4.60,-7.08,-4.63,4.63,3.77,5.07,-2.42,-2.45,-2.45
132.46,-7.05,-4.56,-7.09,-4.61,4.61,3.74,5.04,-2.45,-2.48,-2.49
133.79,-7.06,-4.55,-7.09,-4.58,4.58,3.72,5.00,-2.49,-2.51,-2.51
135.12,-7.07,-4.53,-7.10,-4.56,4.56,3.70,4.96,-2.52,-2.54,-2.54
136.48,-7.09,-4.52,-7.11,-4.54,4.54,3.68,4.92,-2.56,-2.57,-2.57
137.84,-7.12,-4.52,-7.13,-4.52,4.52,3.67,4.88,-2.61,-2.61,-2.60
139.22,-7.14,-4.49,-7.15,-4.51,4.51,3.65,4.84,-2.64,-2.64,-2.65
140.61,-7.17,-4.49,-7.17,-4.50,4.50,3.64,4.80,-2.68,-2.67,-2.68
142.02,-7.21,-4.51,-7.20,-4.49,4.49,3.63,4.76,-2.72,-2.71,-2.70
143.44,-7.23,-4.49,-7.23,-4.49,4.49,3.62,4.72,-2.75,-2.74,-2.74
144.87,-7.26,-4.48,-7.26,-4.49,4.49,3.61,4.67,-2.78,-2.78,-2.78
146.32,-7.29,-4.47,-7.30,-4.48,4.48,3.61,4.63,-2.81,-2.81,-2.82
147.78,-7.32,-4.47,-7.33,-4.48,4.48,3.61,4.59,-2.85,-2.85,-2.85
149.26,-7.36,-4.48,-7.36,-4.47,4.47,3.61,4.55,-2.89,-2.89,-2.88
150.75,-7.41,-4.48,-7.39,-4.47,4.47,3.62,4.51,-2.95,-2.93,-2.93
152.26,-7.44,-4.47,-7.43,-4.46,4.46,3.63,4.47,-2.99,-2.97,-2.97
153.78,-7.47,-4.47,-7.46,-4.45,4.45,3.64,4.43,-3.02,-3.01,-3.00
155.32,-7.49,-4.44,-7.50,-4.45,4.45,3.65,4.40,-3.05,-3.05,-3.05
156.88,-7.53,-4.45,-7.54,-4.45,4.45,3.67,4.36,-3.09,-3.09,-3.08
158.44,-7.56,-4.42,-7.58,-4.45,4.45,3.69,4.33,-3.12,-3.14,-3.14
160.03,-7.62,-4.44,-7.63,-4.45,4.45,3.72,4.30,-3.17,-3.18,-3.18
161.63,-7.65,-4.42,-7.68,-4.45,4.45,3.75,4.28,-3.20,-3.22,-3.23
163.24,-7.69,-4.42,-7.72,-4.46,4.46,3.78,4.25,-3.24,-3.27,-3.27
164.88,-7.76,-4.45,-7.77,-4.46,4.46,3.82,4.23,-3.30,-3.31,-3.31
166.53,-7.82,-4.47,-7.82,-4.47,4.47,3.86,4.21,-3.35,-3.35,-3.35
168.19,-7.87,-4.48,-7.88,-4.49,4.49,3.91,4.20,-3.39,-3.39,-3.39
169.87,-7.95,-4.52,-7.93,-4.50,4.50,3.96,4.19,-3.45,-3.43,-3.43
171.57,-8.01,-4.55,-7.99,-4.52,4.52,4.02,4.18,-3.49,-3.47,-3.46
173.29,-8.05,-4.55,-8.04,-4.54,4.54,4.08,4.17,-3.51,-3.50,-3.50
175.02,-8.10,-4.56,-8.10,-4.56,4.56,4.14,4.17,-3.54,-3.54,-3.54
176.77,-8.14,-4.57,-8.15,-4.59,4.59,4.21,4.17,-3.56,-3.57,-3.57
178.54,-8.19,-4.59,-8.21,-4.61,4.61,4.28,4.17,-3.58,-3.59,-3.60
180.32,-8.24,-4.61,-8.26,-4.64,4.64,4.36,4.17,-3.61,-3.62,-3.63
182.13,-8.29,-4.64,-8.31,-4.66,4.66,4.44,4.18,-3.63,-3.65,-3.65
183.95,-8.37,-4.70,-8.35,-4.68,4.68,4.52,4.19,-3.69,-3.67,-3.67
185.79,-8.41,-4.72,-8.40,-4.71,4.71,4.61,4.21,-3.71,-3.69,-3.69
187.65,-8.45,-4.74,-8.44,-4.73,4.73,4.70,4.22,-3.72,-3.71,-3.71
189.52,-8.49,-4.77,-8.48,-4.76,4.76,4.79,4.24,-3.74,-3.72,-3.72
191.42,-8.52,-4.78,-8.53,-4.79,4.79,4.88,4.26,-3.74,-3.74,-3.74
193.33,-8.56,-4.81,-8.57,-4.81,4.81,4.97,4.29,-3.75,-3.75,-3.75
195.27,-8.60,-4.84,-8.61,-4.84,4.84,5.05,4.31,-3.76,-3.77,-3.76
197.22,-8.63,-4.85,-8.65,-4.87,4.87,5.13,4.34,-3.76,-3.78,-3.78
199.19,-8.66,-4.86,-8.69,-4.90,4.90,5.21,4.37,-3.77,-3.79,-3.80
201.18,-8.71,-4.90,-8.73,-4.92,4.92,5.27,4.40,-3.79,-3.80,-3.81
203.19,-8.76,-4.95,-8.77,-4.95,4.95,5.33,4.43,-3.82,-3.82,-3.81
205.23,-8.80,-4.97,-8.80,-4.97,4.97,5.37,4.47,-3.83,-3.83,-3.83
207.28,-8.85,-5.02,-8.84,-5.00,5.00,5.40,4.50,-3.86,-3.84,-3.83
209.35,-8.88,-5.03,-8.87,-5.02,5.02,5.42,4.54,-3.86,-3.85,-3.85
211.44,-8.90,-5.03,-8.91,-5.05,5.05,5.42,4.57,-3.86,-3.86,-3.87
213.56,-8.93,-5.05,-8.94,-5.07,5.07,5.40,4.61,-3.87,-3.87,-3.88
215.69,-8.97,-5.09,-8.97,-5.08,5.08,5.37,4.64,-3.89,-3.89,-3.88
217.85,-8.99,-5.09,-9.00,-5.10,5.10,5.31,4.67,-3.90,-3.90,-3.90
220.03,-9.01,-5.10,-9.02,-5.11,5.11,5.25,4.71,-3.91,-3.91,-3.91
222.23,-9.03,-5.10,-9.04,-5.12,5.12,5.16,4.73,-3.92,-3.92,-3.93
224.45,-9.04,-5.11,-9.05,-5.12,5.12,5.07,4.76,-3.93,-3.94,-3.93
226.70,-9.07,-5.12,-9.07,-5.11,5.11,4.96,4.78,-3.96,-3.95,-3.95
228.96,-9.07,-5.11,-9.07,-5.11,5.11,4.84,4.80,-3.97,-3.97,-3.96
231.25,-9.06,-5.09,-9.08,-5.09,5.09,4.71,4.82,-3.97,-3.98,-3.97
233.57,-9.05,-5.06,-9.07,-5.08,5.08,4.57,4.83,-3.98,-3.99,-3.99
235.90,-9.04,-5.04,-9.06,-5.05,5.05,4.43,4.83,-3.99,-4.01,-4.00
238.26,-9.02,-5.00,-9.04,-5.02,5.02,4.29,4.83,-4.00,-4.02,-4.02
240.64,-9.00,-4.96,-9.01,-4.98,4.98,4.14,4.82,-4.03,-4.03,-4.04
243.05,-8.98,-4.93,-8.97,-4.92,4.92,4.00,4.81,-4.06,-4.05,-4.05
245.48,-8.93,-4.87,-8.91,-4.86,4.86,3.85,4.79,-4.08,-4.05,-4.06
247.93,-8.86,-4.79,-8.84,-4.78,4.78,3.71,4.76,-4.09,-4.06,-4.07
250.41,-8.80,-4.72,-8.75,-4.69,4.69,3.56,4.73,-4.12,-4.07,-4.08
252.92,-8.67,-4.60,-8.65,-4.58,4.58,3.42,4.68,-4.09,-4.07,-4.07
255.45,-8.56,-4.49,-8.54,-4.47,4.47,3.29,4.64,-4.09,-4.07,-4.07
258.00,-8.45,-4.39,-8.41,-4.35,4.35,3.15,4.58,-4.11,-4.06,-4.06
260.58,-8.29,-4.23,-8.27,-4.21,4.21,3.03,4.52,-4.08,-4.05,-4.06
263.19,-8.14,-4.09,-8.11,-4.07,4.07,2.90,4.45,-4.08,-4.05,-4.05
265.82,-7.93,-3.89,-7.95,-3.91,3.91,2.78,4.37,-4.02,-4.03,-4.04
268.48,-7.76,-3.74,-7.78,-3.75,3.75,2.66,4.29,-4.01,-4.02,-4.02
271.16,-7.60,-3.60,-7.60,-3.59,3.59,2.55,4.21,-4.01,-4.01,-4.00
273.87,-7.39,-3.40,-7.43,-3.43,3.43,2.44,4.12,-3.96,-3.99,-3.99
276.61,-7.22,-3.26,-7.25,-3.28,3.28,2.34,4.02,-3.95,-3.98,-3.96
279.38,-7.07,-3.11,-7.08,-3.12,3.12,2.24,3.92,-3.95,-3.96,-3.96
282.17,-6.91,-2.97,-6.92,-2.98,2.98,2.14,3.81,-3.94,-3.95,-3.94
284.99,-6.76,-2.83,-6.76,-2.84,2.84,2.05,3.71,-3.93,-3.93,-3.93
287.84,-6.56,-2.65,-6.62,-2.71,2.71,1.96,3.60,-3.86,-3.91,-3.91
290.72,-6.44,-2.55,-6.48,-2.59,2.59,1.88,3.48,-3.85,-3.89,-3.89
293.63,-6.33,-2.45,-6.36,-2.48,2.48,1.79,3.37,-3.85,-3.87,-3.88
296.57,-6.23,-2.38,-6.25,-2.39,2.39,1.71,3.25,-3.84,-3.85,-3.85
299.53,-6.14,-2.30,-6.14,-2.31,2.31,1.64,3.13,-3.84,-3.84,-3.84
302.53,-6.05,-2.22,-6.05,-2.23,2.23,1.56,3.01,-3.82,-3.82,-3.83
305.55,-5.95,-2.15,-5.97,-2.17,2.17,1.49,2.89,-3.78,-3.79,-3.80
308.61,-5.87,-2.09,-5.89,-2.12,2.12,1.42,2.77,-3.76,-3.77,-3.78
311.69,-5.80,-2.05,-5.82,-2.07,2.07,1.35,2.64,-3.74,-3.75,-3.75
314.81,-5.75,-2.04,-5.76,-2.03,2.03,1.29,2.52,-3.73,-3.73,-3.71
317.96,-5.70,-2.00,-5.70,-1.99,1.99,1.23,2.40,-3.71,-3.71,-3.70
321.14,-5.64,-1.96,-5.65,-1.96,1.96,1.16,2.28,-3.68,-3.68,-3.68
324.35,-5.59,-1.93,-5.59,-1.93,1.93,1.10,2.16,-3.66,-3.66,-3.66
327.59,-5.54,-1.90,-5.54,-1.90,1.90,1.04,2.04,-3.64,-3.64,-3.64
330.87,-5.49,-1.87,-5.49,-1.87,1.87,0.99,1.92,-3.62,-3.61,-3.62
334.18,-5.43,-1.84,-5.43,-1.84,1.84,0.93,1.80,-3.59,-3.59,-3.59
337.52,-5.37,-1.80,-5.38,-1.81,1.81,0.87,1.68,-3.56,-3.57,-3.57
340.90,-5.31,-1.76,-5.31,-1.77,1.77,0.82,1.56,-3.54,-3.54,-3.55
344.30,-5.24,-1.72,-5.24,-1.72,1.72,0.77,1.44,-3.52,-3.52,-3.52
347.75,-5.18,-1.68,-5.17,-1.67,1.67,0.71,1.33,-3.51,-3.50,-3.50
351.23,-5.09,-1.62,-5.08,-1.61,1.61,0.66,1.21,-3.48,-3.47,-3.47
354.74,-5.02,-1.58,-4.99,-1.54,1.54,0.61,1.09,-3.48,-3.45,-3.44
358.28,-4.91,-1.48,-4.89,-1.47,1.47,0.56,0.98,-3.45,-3.42,-3.43
361.87,-4.81,-1.41,-4.79,-1.39,1.39,0.51,0.87,-3.43,-3.40,-3.40
365.49,-4.67,-1.30,-4.67,-1.30,1.30,0.45,0.75,-3.38,-3.37,-3.37
369.14,-4.55,-1.19,-4.55,-1.20,1.20,0.40,0.64,-3.36,-3.35,-3.36
372.83,-4.42,-1.09,-4.42,-1.10,1.10,0.35,0.53,-3.33,-3.33,-3.33
376.56,-4.27,-0.96,-4.29,-0.98,0.98,0.30,0.42,-3.29,-3.31,-3.31
380.33,-4.13,-0.85,-4.15,-0.87,0.87,0.25,0.31,-3.27,-3.29,-3.28
384.13,-3.99,-0.72,-4.01,-0.74,0.74,0.20,0.20,-3.26,-3.27,-3.27
387.97,-3.85,-0.60,-3.85,-0.60,0.60,0.14,0.10,-3.25,-3.25,-3.25
391.85,-3.70,-0.46,-3.70,-0.47,0.47,0.09,-0.01,-3.24,-3.23,-3.24
395.77,-3.56,-0.35,-3.55,-0.32,0.32,0.03,-0.12,-3.24,-3.22,-3.21
399.73,-3.40,-0.20,-3.39,-0.18,0.18,-0.03,-0.22,-3.22,-3.21,-3.20
403.72,-3.24,-0.04,-3.24,-0.03,0.03,-0.08,-0.33,-3.21,-3.20,-3.20
