frequency,raw,error,smoothed,error_smoothed,equalization,parametric_eq,fixed_band_eq,equalized_raw,equalized_smoothed,target
20.00,-7.63,-16.85,-7.63,-16.85,16.82,16.71,7.26,9.19,9.19,9.22
20.20,-7.54,-16.76,-7.54,-16.76,16.76,16.62,7.42,9.22,9.22,9.22
20.40,-7.46,-16.68,-7.46,-16.68,16.69,16.54,7.58,9.24,9.24,9.22
20.61,-7.39,-16.61,-7.39,-16.61,16.63,16.45,7.75,9.24,9.25,9.22
20.81,-7.32,-16.53,-7.32,-16.54,16.57,16.37,7.92,9.25,9.25,9.21
21.02,-7.27,-16.48,-7.27,-16.48,16.51,16.28,8.10,9.24,9.24,9.21
21.23,-7.22,-16.43,-7.22,-16.43,16.44,16.20,8.28,9.22,9.22,9.21
21.44,-7.17,-16.39,-7.17,-16.38,16.37,16.11,8.46,9.21,9.21,9.22
21.66,-7.11,-16.32,-7.11,-16.33,16.32,16.03,8.65,9.21,9.21,9.21
21.87,-7.05,-16.26,-7.05,-16.26,16.25,15.94,8.84,9.21,9.20,9.21
22.09,-6.99,-16.19,-6.99,-16.19,16.19,15.86,9.04,9.20,9.20,9.20
22.31,-6.92,-16.12,-6.92,-16.12,16.11,15.77,9.25,9.20,9.20,9.20
22.54,-6.84,-16.03,-6.84,-16.04,16.03,15.69,9.46,9.19,9.19,9.19
22.76,-6.76,-15.95,-6.76,-15.95,15.95,15.60,9.67,9.19,9.19,9.19
22.99,-6.68,-15.86,-6.68,-15.86,15.86,15.52,9.89,9.18,9.18,9.18
23.22,-6.59,-15.76,-6.59,-15.77,15.77,15.43,10.12,9.18,9.18,9.17
23.45,-6.51,-15.68,-6.51,-15.68,15.68,15.35,10.35,9.17,9.17,9.17
23.69,-6.42,-15.58,-6.42,-15.58,15.59,15.26,10.59,9.17,9.17,9.16
23.92,-6.33,-15.48,-6.33,-15.49,15.49,15.18,10.84,9.16,9.16,9.15
24.16,-6.24,-15.39,-6.24,-15.39,15.40,15.09,11.09,9.16,9.16,9.15
24.40,-6.15,-15.30,-6.15,-15.30,15.30,15.01,11.35,9.15,9.15,9.15
24.65,-6.06,-15.21,-6.06,-15.21,15.20,14.93,11.61,9.14,9.15,9.15
24.89,-5.96,-15.11,-5.96,-15.11,15.11,14.85,11.89,9.15,9.14,9.15
25.14,-5.87,-15.01,-5.86,-15.01,15.01,14.76,12.17,9.14,9.14,9.14
25.39,-5.77,-14.90,-5.77,-14.90,14.90,14.68,12.45,9.13,9.14,9.13
25.65,-5.66,-14.79,-5.66,-14.80,14.79,14.60,12.74,9.13,9.13,9.13
25.91,-5.56,-14.69,-5.55,-14.69,14.68,14.52,13.04,9.12,9.13,9.13
26.16,-5.44,-14.58,-5.44,-14.58,14.57,14.44,13.34,9.14,9.13,9.14
26.43,-5.33,-14.47,-5.33,-14.47,14.46,14.36,13.65,9.13,9.14,9.14
26.69,-5.22,-14.36,-5.22,-14.36,14.36,14.27,13.97,9.14,9.14,9.14
26.96,-5.11,-14.24,-5.11,-14.25,14.26,14.19,14.28,9.15,9.15,9.13
27.23,-5.02,-14.15,-5.02,-14.16,14.17,14.11,14.60,9.15,9.15,9.13
27.50,-4.94,-14.07,-4.94,-14.07,14.09,14.03,14.92,9.15,9.15,9.13
27.77,-4.87,-14.01,-4.87,-14.01,14.02,13.95,15.24,9.15,9.15,9.14
28.05,-4.81,-13.94,-4.81,-13.94,13.95,13.87,15.56,9.15,9.14,9.13
28.33,-4.77,-13.89,-4.77,-13.89,13.90,13.79,15.86,9.13,9.13,9.12
28.62,-4.73,-13.84,-4.73,-13.85,13.85,13.71,16.16,9.12,9.12,9.11
28.90,-4.69,-13.81,-4.69,-13.80,13.80,13.63,16.45,9.11,9.11,9.12
29.19,-4.64,-13.75,-4.64,-13.75,13.74,13.55,16.71,9.10,9.10,9.11
29.48,-4.60,-13.70,-4.59,-13.70,13.68,13.47,16.96,9.08,9.09,9.10
29.78,-4.53,-13.62,-4.53,-13.63,13.61,13.39,17.17,9.08,9.08,9.09
30.08,-4.46,-13.55,-4.46,-13.55,13.54,13.31,17.35,9.08,9.08,9.09
30.38,-4.38,-13.46,-4.38,-13.46,13.46,13.23,17.49,9.08,9.08,9.08
30.68,-4.29,-13.36,-4.29,-13.37,13.37,13.15,17.59,9.08,9.08,9.07
30.99,-4.20,-13.27,-4.20,-13.27,13.28,13.07,17.65,9.08,9.08,9.07
31.30,-4.11,-13.18,-4.11,-13.18,13.19,12.98,17.66,9.08,9.08,9.07
31.61,-4.03,-13.10,-4.03,-13.10,13.11,12.90,17.62,9.08,9.08,9.07
31.93,-3.95,-13.01,-3.95,-13.02,13.02,12.82,17.54,9.07,9.08,9.06
32.24,-3.87,-12.94,-3.87,-12.94,12.94,12.74,17.41,9.08,9.07,9.07
32.57,-3.80,-12.86,-3.80,-12.86,12.87,12.65,17.25,9.07,9.07,9.06
32.89,-3.73,-12.79,-3.73,-12.79,12.79,12.57,17.06,9.06,9.06,9.06
33.22,-3.66,-12.72,-3.66,-12.72,12.72,12.49,16.83,9.06,9.05,9.06
33.55,-3.60,-12.65,-3.59,-12.64,12.64,12.40,16.59,9.04,9.05,9.05
33.89,-3.52,-12.56,-3.52,-12.56,12.56,12.32,16.32,9.04,9.04,9.04
34.23,-3.45,-12.47,-3.45,-12.48,12.48,12.23,16.04,9.03,9.03,9.02
34.57,-3.38,-12.40,-3.38,-12.40,12.40,12.15,15.75,9.02,9.02,9.02
34.92,-3.31,-12.31,-3.31,-12.31,12.31,12.06,15.46,9.00,9.00,9.00
35.27,-3.24,-12.23,-3.24,-12.23,12.22,11.97,15.16,8.98,8.98,8.99
35.62,-3.16,-12.12,-3.16,-12.13,12.12,11.89,14.86,8.97,8.96,8.96
35.97,-3.09,-12.03,-3.09,-12.03,12.02,11.80,14.56,8.94,8.94,8.94
36.33,-3.01,-11.92,-3.01,-11.92,11.92,11.71,14.27,8.91,8.91,8.91
36.70,-2.93,-11.81,-2.93,-11.81,11.81,11.62,13.98,8.88,8.88,8.88
37.06,-2.85,-11.70,-2.85,-11.70,11.70,11.53,13.69,8.85,8.86,8.85
37.43,-2.77,-11.59,-2.77,-11.59,11.59,11.44,13.41,8.82,8.82,8.82
37.81,-2.68,-11.47,-2.68,-11.48,11.48,11.35,13.14,8.80,8.79,8.79
38.19,-2.61,-11.36,-2.60,-11.36,11.36,11.25,12.87,8.75,8.76,8.75
38.57,-2.52,-11.25,-2.52,-11.25,11.25,11.16,12.61,8.73,8.73,8.73
38.95,-2.44,-11.14,-2.44,-11.14,11.14,11.07,12.36,8.71,8.70,8.70
39.34,-2.37,-11.03,-2.36,-11.03,11.04,10.97,12.11,8.67,8.67,8.66
39.74,-2.29,-10.92,-2.29,-10.93,10.93,10.88,11.87,8.64,8.64,8.63
40.14,-2.21,-10.82,-2.22,-10.83,10.83,10.78,11.64,8.62,8.61,8.61
40.54,-2.15,-10.74,-2.14,-10.73,10.73,10.69,11.41,8.58,8.58,8.59
40.94,-2.07,-10.63,-2.07,-10.63,10.63,10.59,11.20,8.56,8.56,8.56
41.35,-2.00,-10.53,-2.00,-10.53,10.53,10.49,10.99,8.53,8.54,8.53
41.76,-1.92,-10.42,-1.92,-10.43,10.44,10.39,10.78,8.52,8.51,8.50
42.18,-1.85,-10.34,-1.85,-10.34,10.34,10.29,10.59,8.49,8.49,8.49
42.60,-1.79,-10.25,-1.78,-10.25,10.25,10.19,10.40,8.46,8.46,8.46
43.03,-1.72,-10.15,-1.72,-10.16,10.15,10.09,10.21,8.44,8.44,8.43
43.46,-1.65,-10.06,-1.65,-10.06,10.06,9.99,10.04,8.41,8.41,8.41
43.90,-1.58,-9.97,-1.58,-9.97,9.97,9.89,9.86,8.39,8.39,8.39
44.33,-1.52,-9.87,-1.51,-9.88,9.88,9.79,9.70,8.36,8.36,8.35
44.78,-1.45,-9.78,-1.45,-9.79,9.78,9.68,9.54,8.34,8.33,8.33
45.23,-1.38,-9.70,-1.38,-9.69,9.69,9.58,9.39,8.31,8.31,8.32
45.68,-1.32,-9.60,-1.31,-9.59,9.59,9.47,9.24,8.27,8.28,8.28
46.13,-1.24,-9.47,-1.24,-9.49,9.49,9.37,9.09,8.25,8.25,8.23
46.60,-1.18,-9.39,-1.18,-9.39,9.39,9.26,8.96,8.21,8.21,8.21
47.06,-1.11,-9.28,-1.11,-9.28,9.29,9.16,8.82,8.18,8.18,8.17
47.53,-1.05,-9.19,-1.05,-9.18,9.18,9.05,8.70,8.13,8.13,8.14
48.01,-0.98,-9.06,-0.98,-9.07,9.07,8.94,8.57,8.09,8.09,8.08
48.49,-0.91,-8.96,-0.91,-8.96,8.95,8.83,8.45,8.04,8.04,8.05
48.97,-0.84,-8.84,-0.84,-8.84,8.84,8.73,8.34,8.00,8.00,8.00
49.46,-0.77,-8.73,-0.77,-8.72,8.72,8.62,8.23,7.96,7.96,7.96
49.96,-0.70,-8.59,-0.70,-8.60,8.61,8.51,8.12,7.91,7.91,7.89
50.46,-0.64,-8.49,-0.64,-8.49,8.49,8.40,8.02,7.86,7.86,7.85
50.96,-0.57,-8.37,-0.57,-8.38,8.38,8.29,7.92,7.81,7.81,7.80
51.47,-0.51,-8.27,-0.51,-8.27,8.27,8.18,7.82,7.76,7.76,7.76
51.99,-0.44,-8.15,-0.44,-8.16,8.16,8.07,7.73,7.72,7.72,7.71
52.51,-0.37,-8.04,-0.37,-8.05,8.05,7.96,7.63,7.68,7.67,7.67
53.03,-0.31,-7.95,-0.31,-7.94,7.94,7.84,7.55,7.63,7.63,7.64
53.56,-0.25,-7.84,-0.25,-7.84,7.83,7.73,7.46,7.58,7.59,7.59
54.10,-0.18,-7.71,-0.18,-7.72,7.72,7.62,7.37,7.54,7.54,7.53
54.64,-0.13,-7.62,-0.12,-7.61,7.62,7.51,7.29,7.49,7.49,7.49
55.18,-0.06,-7.49,-0.06,-7.50,7.51,7.40,7.20,7.45,7.44,7.43
55.74,-0.01,-7.40,-0.00,-7.40,7.40,7.28,7.12,7.39,7.39,7.39
56.29,0.06,-7.29,0.06,-7.29,7.29,7.17,7.04,7.35,7.35,7.35
56.86,0.12,-7.19,0.12,-7.18,7.18,7.06,6.95,7.30,7.31,7.31
57.42,0.19,-7.06,0.19,-7.07,7.08,6.95,6.87,7.27,7.27,7.25
58.00,0.26,-6.95,0.26,-6.96,6.97,6.83,6.79,7.23,7.23,7.21
58.58,0.32,-6.86,0.32,-6.86,6.86,6.72,6.70,7.18,7.18,7.18
59.16,0.38,-6.76,0.39,-6.76,6.75,6.61,6.62,7.13,7.13,7.14
59.76,0.45,-6.65,0.45,-6.65,6.63,6.49,6.53,7.08,7.08,7.10
60.35,0.52,-6.51,0.52,-6.52,6.51,6.38,6.44,7.03,7.03,7.03
60.96,0.59,-6.39,0.59,-6.39,6.39,6.27,6.35,6.98,6.97,6.98
61.57,0.65,-6.25,0.65,-6.26,6.26,6.15,6.25,6.91,6.92,6.90
62.18,0.71,-6.13,0.71,-6.13,6.14,6.04,6.16,6.85,6.85,6.84
62.80,0.77,-6.01,0.77,-6.01,6.02,5.93,6.06,6.79,6.79,6.78
63.43,0.83,-5.88,0.83,-5.89,5.90,5.82,5.96,6.73,6.73,6.71
64.07,0.88,-5.78,0.88,-5.78,5.78,5.70,5.86,6.66,6.67,6.66
64.71,0.94,-5.67,0.94,-5.67,5.67,5.59,5.75,6.61,6.61,6.61
65.35,0.99,-5.57,0.99,-5.57,5.56,5.48,5.65,6.55,6.56,6.56
66.01,1.05,-5.45,1.05,-5.46,5.45,5.36,5.54,6.50,6.51,6.50
66.67,1.11,-5.35,1.11,-5.35,5.35,5.25,5.42,6.46,6.45,6.46
67.33,1.16,-5.23,1.16,-5.24,5.24,5.14,5.31,6.40,6.40,6.39
68.01,1.21,-5.13,1.21,-5.13,5.13,5.03,5.20,6.34,6.34,6.34
68.69,1.27,-5.01,1.27,-5.02,5.02,4.92,5.08,6.29,6.29,6.28
69.37,1.32,-4.91,1.32,-4.91,4.91,4.81,4.96,6.23,6.23,6.23
70.07,1.38,-4.80,1.38,-4.80,4.79,4.69,4.84,6.18,6.18,6.18
70.77,1.44,-4.68,1.44,-4.69,4.68,4.58,4.72,6.12,6.12,6.12
71.48,1.49,-4.57,1.49,-4.57,4.57,4.47,4.60,6.06,6.06,6.06
72.19,1.54,-4.45,1.55,-4.45,4.45,4.36,4.47,6.00,6.00,5.99
72.91,1.60,-4.34,1.60,-4.34,4.34,4.25,4.35,5.94,5.94,5.94
73.64,1.65,-4.22,1.65,-4.22,4.23,4.14,4.23,5.88,5.88,5.87
74.38,1.70,-4.11,1.70,-4.12,4.12,4.04,4.10,5.82,5.82,5.81
75.12,1.75,-4.01,1.76,-4.01,4.01,3.93,3.98,5.76,5.77,5.76
75.87,1.81,-3.91,1.81,-3.91,3.91,3.82,3.85,5.72,5.71,5.72
76.63,1.86,-3.80,1.86,-3.80,3.80,3.71,3.73,5.66,5.66,5.66
77.40,1.90,-3.70,1.91,-3.70,3.70,3.60,3.61,5.60,5.61,5.60
78.17,1.96,-3.58,1.96,-3.60,3.60,3.50,3.49,5.56,5.55,5.54
78.95,2.00,-3.51,2.00,-3.50,3.50,3.39,3.36,5.50,5.50,5.51
79.74,2.05,-3.40,2.05,-3.40,3.40,3.28,3.24,5.45,5.45,5.45
80.54,2.10,-3.29,2.10,-3.30,3.30,3.18,3.12,5.40,5.40,5.39
81.35,2.15,-3.20,2.15,-3.20,3.20,3.07,3.00,5.35,5.35,5.35
82.16,2.20,-3.10,2.20,-3.10,3.10,2.97,2.88,5.30,5.30,5.30
82.98,2.24,-3.00,2.25,-3.00,3.00,2.86,2.77,5.24,5.25,5.24
83.81,2.29,-2.90,2.29,-2.90,2.90,2.76,2.65,5.20,5.19,5.19
84.65,2.33,-2.80,2.33,-2.80,2.81,2.65,2.53,5.14,5.14,5.13
85.50,2.37,-2.71,2.37,-2.71,2.71,2.55,2.42,5.08,5.09,5.08
86.35,2.42,-2.61,2.42,-2.62,2.62,2.45,2.30,5.04,5.03,5.03
87.22,2.45,-2.53,2.46,-2.53,2.52,2.35,2.19,4.97,4.98,4.98
88.09,2.50,-2.42,2.50,-2.43,2.43,2.25,2.08,4.93,4.92,4.92
88.97,2.53,-2.34,2.54,-2.33,2.33,2.14,1.96,4.86,4.87,4.87
89.86,2.58,-2.23,2.58,-2.23,2.24,2.04,1.85,4.82,4.81,4.81
90.76,2.62,-2.13,2.62,-2.14,2.14,1.94,1.74,4.76,4.76,4.75
91.66,2.66,-2.04,2.66,-2.04,2.04,1.85,1.63,4.70,4.70,4.70
92.58,2.70,-1.94,2.71,-1.94,1.94,1.75,1.52,4.64,4.64,4.64
93.51,2.75,-1.83,2.75,-1.84,1.83,1.65,1.42,4.59,4.58,4.58
94.44,2.79,-1.73,2.79,-1.73,1.73,1.55,1.31,4.52,4.52,4.52
95.39,2.82,-1.63,2.83,-1.63,1.62,1.45,1.20,4.45,4.45,4.45
96.34,2.86,-1.52,2.86,-1.52,1.52,1.36,1.10,4.38,4.38,4.38
97.30,2.90,-1.42,2.90,-1.41,1.41,1.26,0.99,4.31,4.31,4.32
98.28,2.94,-1.29,2.94,-1.30,1.31,1.17,0.89,4.25,4.25,4.23
99.26,2.96,-1.20,2.97,-1.20,1.21,1.07,0.79,4.17,4.18,4.16
100.25,3.01,-1.09,3.00,-1.10,1.10,0.98,0.69,4.12,4.11,4.10
101.25,3.03,-1.01,3.04,-1.00,1.01,0.89,0.59,4.04,4.04,4.04
102.27,3.07,-0.91,3.07,-0.91,0.91,0.79,0.49,3.98,3.98,3.98
103.29,3.10,-0.81,3.10,-0.82,0.81,0.70,0.39,3.92,3.91,3.91
104.32,3.13,-0.73,3.14,-0.73,0.72,0.61,0.29,3.85,3.86,3.86
105.37,3.17,-0.63,3.17,-0.63,0.63,0.52,0.20,3.80,3.80,3.80
106.42,3.20,-0.54,3.20,-0.54,0.54,0.43,0.10,3.74,3.75,3.74
107.48,3.23,-0.44,3.23,-0.45,0.45,0.34,0.01,3.69,3.69,3.67
108.56,3.26,-0.36,3.26,-0.37,0.37,0.26,-0.08,3.63,3.62,3.62
109.64,3.28,-0.29,3.28,-0.28,0.28,0.17,-0.17,3.56,3.56,3.57
110.74,3.31,-0.19,3.31,-0.19,0.19,0.08,-0.26,3.50,3.50,3.50
111.85,3.34,-0.10,3.34,-0.10,0.10,-0.00,-0.35,3.44,3.44,3.44
112.97,3.37,-0.01,3.37,-0.02,0.01,-0.09,-0.43,3.39,3.38,3.38
114.10,3.39,0.07,3.39,0.07,-0.08,-0.17,-0.51,3.32,3.32,3.32
115.24,3.41,0.16,3.42,0.16,-0.17,-0.26,-0.59,3.24,3.25,3.25
116.39,3.44,0.27,3.44,0.26,-0.26,-0.34,-0.66,3.18,3.18,3.17
117.55,3.46,0.35,3.46,0.35,-0.35,-0.42,-0.73,3.11,3.11,3.11
118.73,3.48,0.45,3.48,0.45,-0.44,-0.50,-0.80,3.04,3.04,3.03
119.92,3.50,0.54,3.50,0.53,-0.53,-0.58,-0.87,2.97,2.97,2.96
121.12,3.52,0.62,3.52,0.62,-0.62,-0.66,-0.93,2.90,2.90,2.90
122.33,3.54,0.72,3.54,0.71,-0.71,-0.74,-0.99,2.83,2.83,2.82
123.55,3.56,0.80,3.56,0.80,-0.81,-0.82,-1.05,2.76,2.76,2.76
124.79,3.58,0.89,3.58,0.89,-0.90,-0.89,-1.10,2.68,2.68,2.69
126.03,3.60,0.98,3.60,0.98,-0.99,-0.97,-1.15,2.61,2.61,2.62
127.29,3.62,1.09,3.62,1.08,-1.08,-1.05,-1.20,2.54,2.54,2.53
128.57,3.64,1.18,3.64,1.18,-1.17,-1.12,-1.25,2.47,2.46,2.46
129.85,3.65,1.27,3.66,1.27,-1.26,-1.19,-1.29,2.39,2.39,2.38
131.15,3.67,1.36,3.67,1.35,-1.35,-1.26,-1.33,2.32,2.32,2.31
132.46,3.68,1.44,3.68,1.44,-1.43,-1.34,-1.36,2.25,2.25,2.24
133.79,3.69,1.51,3.69,1.51,-1.51,-1.41,-1.40,2.18,2.18,2.18
135.12,3.70,1.59,3.70,1.58,-1.58,-1.47,-1.43,2.12,2.12,2.11
136.48,3.71,1.64,3.72,1.65,-1.65,-1.54,-1.46,2.06,2.06,2.07
137.84,3.73,1.72,3.72,1.72,-1.72,-1.61,-1.48,2.02,2.01,2.01
139.22,3.73,1.79,3.73,1.78,-1.78,-1.68,-1.51,1.95,1.95,1.94
140.61,3.73,1.83,3.74,1.84,-1.84,-1.74,-1.53,1.89,1.90,1.90
142.02,3.75,1.90,3.74,1.90,-1.90,-1.81,-1.56,1.86,1.85,1.85
143.44,3.75,1.96,3.75,1.95,-1.95,-1.87,-1.58,1.80,1.80,1.79
144.87,3.75,2.00,3.76,2.01,-2.01,-1.93,-1.60,1.74,1.75,1.75
146.32,3.76,2.06,3.76,2.06,-2.06,-1.99,-1.62,1.70,1.70,1.70
147.78,3.77,2.12,3.77,2.11,-2.11,-2.05,-1.64,1.66,1.66,1.65
149.26,3.77,2.16,3.77,2.16,-2.16,-2.11,-1.66,1.61,1.61,1.61
150.75,3.76,2.21,3.77,2.21,-2.21,-2.17,-1.68,1.55,1.56,1.55
152.26,3.77,2.25,3.77,2.25,-2.25,-2.22,-1.71,1.52,1.52,1.52
153.78,3.77,2.31,3.77,2.30,-2.30,-2.28,-1.73,1.47,1.47,1.46
155.32,3.77,2.35,3.77,2.35,-2.35,-2.33,-1.75,1.42,1.42,1.42
156.88,3.76,2.39,3.77,2.40,-2.40,-2.38,-1.78,1.37,1.37,1.37
158.44,3.76,2.44,3.76,2.44,-2.44,-2.43,-1.80,1.32,1.32,1.32
160.03,3.77,2.50,3.76,2.49,-2.49,-2.48,-1.83,1.28,1.27,1.27
161.63,3.75,2.53,3.76,2.54,-2.54,-2.53,-1.85,1.21,1.22,1.22
163.24,3.75,2.60,3.75,2.59,-2.59,-2.58,-1.88,1.16,1.17,1.15
164.88,3.75,2.64,3.75,2.64,-2.63,-2.63,-1.91,1.12,1.11,1.11
166.53,3.74,2.69,3.74,2.68,-2.68,-2.67,-1.94,1.06,1.06,1.05
168.19,3.73,2.72,3.73,2.72,-2.73,-2.72,-1.98,1.01,1.01,1.01
169.87,3.72,2.76,3.72,2.77,-2.77,-2.76,-2.01,0.95,0.95,0.96
171.57,3.71,2.82,3.71,2.81,-2.81,-2.80,-2.05,0.90,0.90,0.89
173.29,3.70,2.86,3.70,2.85,-2.85,-2.84,-2.09,0.85,0.85,0.84
175.02,3.68,2.88,3.68,2.89,-2.88,-2.88,-2.13,0.80,0.80,0.80
176.77,3.67,2.92,3.67,2.92,-2.92,-2.91,-2.17,0.75,0.75,0.75
178.54,3.65,2.95,3.65,2.95,-2.95,-2.95,-2.22,0.70,0.70,0.70
180.32,3.64,3.00,3.63,2.98,-2.98,-2.98,-2.27,0.66,0.65,0.64
182.13,3.61,3.01,3.61,3.01,-3.01,-3.02,-2.31,0.60,0.60,0.60
183.95,3.59,3.03,3.60,3.04,-3.04,-3.05,-2.36,0.55,0.56,0.56
185.79,3.58,3.08,3.58,3.07,-3.07,-3.08,-2.42,0.51,0.51,0.50
187.65,3.56,3.10,3.56,3.10,-3.10,-3.11,-2.47,0.46,0.46,0.46
189.52,3.53,3.12,3.54,3.12,-3.13,-3.13,-2.53,0.41,0.41,0.41
191.42,3.51,3.15,3.51,3.15,-3.15,-3.16,-2.58,0.36,0.36,0.36
193.33,3.49,3.18,3.49,3.18,-3.17,-3.18,-2.64,0.32,0.31,0.31
195.27,3.46,3.20,3.46,3.20,-3.19,-3.20,-2.70,0.27,0.27,0.26
197.22,3.44,3.23,3.44,3.22,-3.21,-3.22,-2.77,0.23,0.22,0.21
199.19,3.40,3.22,3.41,3.23,-3.23,-3.24,-2.83,0.17,0.18,0.18
201.18,3.38,3.25,3.38,3.24,-3.24,-3.26,-2.89,0.14,0.14,0.13
203.19,3.35,3.25,3.35,3.25,-3.25,-3.28,-2.96,0.10,0.10,0.10
205.23,3.32,3.26,3.32,3.26,-3.26,-3.29,-3.02,0.06,0.06,0.06
207.28,3.29,3.26,3.29,3.26,-3.27,-3.31,-3.09,0.03,0.03,0.03
209.35,3.26,3.27,3.26,3.27,-3.27,-3.32,-3.15,-0.01,-0.01,-0.01
211.44,3.23,3.28,3.23,3.27,-3.27,-3.33,-3.22,-0.04,-0.05,-0.05
213.56,3.19,3.28,3.19,3.28,-3.27,-3.34,-3.28,-0.08,-0.08,-0.09
215.69,3.15,3.27,3.16,3.27,-3.27,-3.35,-3.34,-0.12,-0.12,-0.12
217.85,3.12,3.27,3.12,3.27,-3.27,-3.35,-3.40,-0.14,-0.15,-0.15
220.03,3.08,3.27,3.08,3.26,-3.26,-3.36,-3.46,-0.18,-0.18,-0.19
222.23,3.04,3.25,3.04,3.25,-3.25,-3.36,-3.52,-0.21,-0.21,-0.21
224.45,2.99,3.23,2.99,3.23,-3.23,-3.36,-3.57,-0.24,-0.24,-0.24
226.70,2.95,3.22,2.95,3.21,-3.22,-3.36,-3.62,-0.27,-0.26,-0.27
228.96,2.91,3.20,2.91,3.20,-3.20,-3.36,-3.67,-0.29,-0.29,-0.29
231.25,2.87,3.18,2.87,3.18,-3.18,-3.35,-3.71,-0.31,-0.31,-0.31
233.57,2.82,3.16,2.82,3.16,-3.16,-3.35,-3.75,-0.34,-0.34,-0.34
235.90,2.78,3.15,2.78,3.14,-3.14,-3.34,-3.78,-0.36,-0.36,-0.37
238.26,2.73,3.13,2.73,3.12,-3.12,-3.34,-3.81,-0.39,-0.39,-0.40
240.64,2.69,3.09,2.69,3.10,-3.10,-3.33,-3.83,-0.41,-0.41,-0.40
243.05,2.66,3.08,2.66,3.08,-3.08,-3.32,-3.85,-0.42,-0.43,-0.42
245.48,2.62,3.07,2.62,3.07,-3.06,-3.30,-3.86,-0.44,-0.44,-0.45
247.93,2.59,3.06,2.59,3.05,-3.05,-3.29,-3.86,-0.46,-0.46,-0.47
250.41,2.57,3.04,2.57,3.04,-3.04,-3.28,-3.86,-0.47,-0.47,-0.47
252.92,2.54,3.02,2.54,3.02,-3.03,-3.26,-3.85,-0.49,-0.49,-0.48
255.45,2.52,3.02,2.52,3.02,-3.02,-3.24,-3.83,-0.50,-0.50,-0.50
258.00,2.51,3.02,2.51,3.02,-3.02,-3.22,-3.81,-0.51,-0.51,-0.51
260.58,2.50,3.02,2.50,3.02,-3.02,-3.20,-3.78,-0.52,-0.52,-0.52
263.19,2.49,3.03,2.49,3.02,-3.02,-3.18,-3.74,-0.53,-0.53,-0.54
265.82,2.48,3.03,2.48,3.03,-3.03,-3.16,-3.70,-0.55,-0.55,-0.55
268.48,2.47,3.03,2.47,3.03,-3.04,-3.14,-3.66,-0.57,-0.56,-0.56
271.16,2.47,3.05,2.47,3.04,-3.04,-3.11,-3.61,-0.57,-0.58,-0.58
273.87,2.46,3.05,2.46,3.05,-3.05,-3.08,-3.55,-0.59,-0.59,-0.59
276.61,2.45,3.06,2.45,3.06,-3.05,-3.05,-3.49,-0.60,-0.60,-0.61
279.38,2.43,3.06,2.44,3.06,-3.05,-3.03,-3.43,-0.62,-0.61,-0.63
282.17,2.42,3.06,2.42,3.05,-3.04,-3.00,-3.36,-0.62,-0.63,-0.64
284.99,2.40,3.03,2.40,3.04,-3.04,-2.96,-3.29,-0.63,-0.64,-0.63
287.84,2.37,3.01,2.38,3.02,-3.02,-2.93,-3.22,-0.65,-0.65,-0.64
290.72,2.35,3.02,2.35,3.00,-3.00,-2.90,-3.14,-0.65,-0.66,-0.67
293.63,2.32,2.98,2.32,2.99,-2.98,-2.86,-3.07,-0.66,-0.66,-0.66
296.57,2.29,2.96,2.29,2.96,-2.96,-2.83,-2.99,-0.67,-0.67,-0.67
299.53,2.26,2.94,2.26,2.93,-2.93,-2.79,-2.91,-0.67,-0.67,-0.68
302.53,2.22,2.90,2.22,2.90,-2.90,-2.75,-2.83,-0.68,-0.68,-0.68
305.55,2.19,2.88,2.19,2.87,-2.87,-2.71,-2.75,-0.68,-0.69,-0.69
308.61,2.14,2.83,2.15,2.84,-2.84,-2.67,-2.67,-0.70,-0.69,-0.69
311.69,2.11,2.81,2.11,2.81,-2.81,-2.63,-2.59,-0.69,-0.70,-0.70
314.81,2.07,2.77,2.07,2.77,-2.77,-2.59,-2.51,-0.70,-0.70,-0.70
317.96,2.03,2.74,2.03,2.74,-2.73,-2.55,-2.43,-0.70,-0.70,-0.71
321.14,1.99,2.69,1.99,2.69,-2.69,-2.50,-2.35,-0.70,-0.70,-0.70
324.35,1.93,2.65,1.94,2.64,-2.64,-2.46,-2.27,-0.71,-0.71,-0.72
327.59,1.89,2.59,1.89,2.60,-2.60,-2.41,-2.20,-0.71,-0.71,-0.70
330.87,1.84,2.55,1.84,2.55,-2.55,-2.37,-2.12,-0.71,-0.71,-0.71
334.18,1.79,2.51,1.79,2.50,-2.50,-2.32,-2.04,-0.71,-0.71,-0.72
337.52,1.73,2.44,1.73,2.45,-2.44,-2.27,-1.97,-0.71,-0.71,-0.71
340.90,1.68,2.40,1.68,2.39,-2.39,-2.22,-1.90,-0.71,-0.71,-0.72
344.30,1.62,2.33,1.63,2.33,-2.33,-2.17,-1.83,-0.71,-0.71,-0.71
347.75,1.57,2.27,1.57,2.28,-2.28,-2.12,-1.76,-0.71,-0.71,-0.70
351.23,1.52,2.24,1.51,2.22,-2.22,-2.07,-1.69,-0.70,-0.71,-0.72
354.74,1.45,2.15,1.46,2.16,-2.16,-2.02,-1.62,-0.71,-0.70,-0.70
358.28,1.39,2.10,1.40,2.10,-2.10,-1.97,-1.55,-0.71,-0.70,-0.71
361.87,1.34,2.05,1.33,2.04,-2.04,-1.92,-1.49,-0.70,-0.70,-0.71
365.49,1.27,1.98,1.28,1.98,-1.98,-1.87,-1.43,-0.71,-0.70,-0.71
369.14,1.21,1.91,1.21,1.91,-1.91,-1.81,-1.36,-0.70,-0.70,-0.70
372.83,1.15,1.85,1.15,1.85,-1.85,-1.76,-1.30,-0.70,-0.70,-0.70
376.56,1.08,1.79,1.08,1.79,-1.79,-1.71,-1.24,-0.71,-0.71,-0.71
380.33,1.02,1.73,1.02,1.73,-1.73,-1.65,-1.19,-0.71,-0.70,-0.71
384.13,0.96,1.67,0.96,1.66,-1.66,-1.60,-1.13,-0.70,-0.70,-0.71
387.97,0.90,1.60,0.90,1.60,-1.60,-1.54,-1.07,-0.70,-0.70,-0.70
391.85,0.83,1.54,0.84,1.54,-1.54,-1.49,-1.02,-0.71,-0.70,-0.71
395.77,0.77,1.48,0.77,1.48,-1.47,-1.43,-0.97,-0.70,-0.70,-0.71
399.73,0.71,1.42,0.71,1.41,-1.41,-1.37,-0.91,-0.70,-0.70,-0.71
403.72,0.64,1.34,0.64,1.34,-1.35,-1.32,-0.86,-0.71,-0.70,-0.70
407.76,0.58,1.28,0.58,1.28,-1.28,-1.26,-0.81,-0.70,-0.70,-0.70
411.84,0.52,1.22,0.52,1.22,-1.22,-1.20,-0.76,-0.70,-0.70,-0.70
415.96,0.46,1.16,0.46,1.16,-1.16,-1.15,-0.72,-0.70,-0.70,-0.70
420.12,0.39,1.10,0.39,1.10,-1.09,-1.09,-0.67,-0.70,-0.70,-0.71
424.32,0.33,1.04,0.33,1.03,-1.03,-1.03,-0.62,-0.70,-0.70,-0.71
428.56,0.27,0.97,0.27,0.97,-0.97,-0.98,-0.58,-0.70,-0.70,-0.70
432.85,0.21,0.91,0.21,0.91,-0.91,-0.92,-0.54,-0.70,-0.70,-0.70
437.18,0.14,0.85,0.15,0.85,-0.85,-0.86,-0.49,-0.71,-0.71,-0.71
441.55,0.08,0.79,0.08,0.79,-0.79,-0.80,-0.45,-0.71,-0.71,-0.71
445.96,0.02,0.74,0.02,0.73,-0.73,-0.75,-0.41,-0.71,-0.71,-0.72
450.42,-0.05,0.67,-0.05,0.67,-0.67,-0.69,-0.37,-0.71,-0.71,-0.72
454.93,-0.11,0.61,-0.11,0.61,-0.60,-0.63,-0.33,-0.71,-0.71,-0.72
459.48,-0.17,0.55,-0.17,0.54,-0.54,-0.58,-0.29,-0.71,-0.71,-0.72
464.07,-0.23,0.48,-0.23,0.48,-0.48,-0.52,-0.26,-0.71,-0.71,-0.71
468.71,-0.29,0.42,-0.29,0.42,-0.43,-0.46,-0.22,-0.71,-0.71,-0.71
473.40,-0.34,0.37,-0.34,0.36,-0.37,-0.41,-0.19,-0.71,-0.71,-0.71
478.13,-0.40,0.31,-0.39,0.31,-0.32,-0.35,-0.15,-0.72,-0.71,-0.71
482.91,-0.44,0.27,-0.44,0.26,-0.27,-0.29,-0.12,-0.70,-0.71,-0.71
487.74,-0.49,0.22,-0.49,0.22,-0.22,-0.24,-0.09,-0.71,-0.71,-0.71
