frequency,raw,error,smoothed,error_smoothed,equalization,parametric_eq,fixed_band_eq,equalized_raw,equalized_smoothed,target
20.00,1.18,-1.30,1.08,-1.42,1.42,-0.12,0.03,2.60,2.50,2.47
20.20,1.15,-1.38,1.09,-1.45,1.45,-0.12,0.03,2.60,2.54,2.52
20.40,1.12,-1.46,1.09,-1.48,1.48,-0.12,0.04,2.60,2.58,2.57
20.61,1.09,-1.51,1.11,-1.50,1.50,-0.12,0.04,2.59,2.61,2.60
20.81,1.07,-1.59,1.12,-1.52,1.52,-0.13,0.04,2.59,2.64,2.65
21.02,1.04,-1.66,1.14,-1.53,1.53,-0.13,0.04,2.57,2.67,2.69
21.23,1.09,-1.63,1.16,-1.53,1.53,-0.13,0.05,2.62,2.69,2.71
21.44,1.13,-1.61,1.19,-1.53,1.53,-0.13,0.05,2.66,2.72,2.73
21.66,1.17,-1.59,1.22,-1.52,1.52,-0.14,0.05,2.69,2.74,2.75
21.87,1.22,-1.55,1.25,-1.51,1.51,-0.14,0.05,2.73,2.76,2.76
22.09,1.27,-1.52,1.28,-1.49,1.49,-0.14,0.06,2.76,2.77,2.78
22.31,1.33,-1.46,1.32,-1.46,1.46,-0.15,0.06,2.79,2.78,2.79
22.54,1.40,-1.40,1.38,-1.41,1.41,-0.15,0.06,2.81,2.79,2.79
22.76,1.46,-1.34,1.43,-1.36,1.36,-0.15,0.07,2.82,2.79,2.79
22.99,1.53,-1.26,1.48,-1.31,1.31,-0.16,0.07,2.84,2.80,2.78
23.22,1.58,-1.21,1.54,-1.26,1.26,-0.16,0.07,2.84,2.80,2.78
23.45,1.63,-1.16,1.59,-1.20,1.20,-0.16,0.07,2.83,2.80,2.78
23.69,1.68,-1.12,1.65,-1.15,1.15,-0.17,0.08,2.82,2.80,2.79
23.92,1.72,-1.08,1.72,-1.08,1.08,-0.17,0.08,2.80,2.80,2.79
24.16,1.77,-1.03,1.78,-1.02,1.02,-0.17,0.08,2.78,2.80,2.79
24.40,1.81,-0.99,1.85,-0.95,0.95,-0.18,0.09,2.76,2.80,2.80
24.65,1.85,-0.95,1.91,-0.88,0.88,-0.18,0.09,2.73,2.80,2.79
24.89,1.89,-0.90,1.98,-0.82,0.82,-0.19,0.09,2.71,2.80,2.79
25.14,1.98,-0.81,2.05,-0.75,0.75,-0.19,0.10,2.73,2.80,2.79
25.39,2.10,-0.70,2.11,-0.69,0.69,-0.19,0.10,2.79,2.80,2.80
25.65,2.22,-0.59,2.18,-0.62,0.62,-0.20,0.10,2.84,2.80,2.80
25.91,2.34,-0.46,2.24,-0.56,0.56,-0.20,0.10,2.89,2.80,2.79
26.16,2.40,-0.40,2.31,-0.49,0.49,-0.21,0.11,2.88,2.80,2.79
26.43,2.43,-0.37,2.39,-0.41,0.41,-0.21,0.11,2.83,2.79,2.79
26.69,2.46,-0.34,2.47,-0.33,0.33,-0.22,0.11,2.78,2.79,2.79
26.96,2.49,-0.31,2.54,-0.25,0.25,-0.22,0.11,2.74,2.79,2.79
27.23,2.53,-0.27,2.58,-0.21,0.21,-0.23,0.11,2.73,2.79,2.79
27.50,2.59,-0.21,2.61,-0.18,0.18,-0.23,0.11,2.76,2.79,2.79
27.77,2.64,-0.14,2.63,-0.16,0.16,-0.24,0.11,2.80,2.79,2.78
28.05,2.69,-0.10,2.66,-0.13,0.13,-0.25,0.11,2.82,2.79,2.78
28.33,2.76,-0.02,2.70,-0.08,0.08,-0.25,0.11,2.84,2.78,2.77
28.62,2.83,0.05,2.75,-0.03,0.03,-0.26,0.11,2.86,2.78,2.77
28.90,2.91,0.12,2.80,0.02,-0.02,-0.26,0.11,2.89,2.78,2.78
29.19,2.86,0.08,2.83,0.05,-0.05,-0.27,0.11,2.81,2.78,2.77
29.48,2.75,-0.04,2.86,0.08,-0.08,-0.28,0.10,2.67,2.78,2.78
29.78,2.64,-0.13,2.88,0.10,-0.10,-0.28,0.10,2.54,2.78,2.77
30.08,2.62,-0.17,2.90,0.12,-0.12,-0.29,0.10,2.50,2.78,2.78
30.38,2.87,0.10,2.92,0.14,-0.14,-0.30,0.09,2.73,2.77,2.77
30.68,3.14,0.36,2.94,0.17,-0.17,-0.31,0.08,2.97,2.77,2.77
30.99,3.40,0.62,2.97,0.20,-0.20,-0.31,0.08,3.19,2.77,2.77
31.30,3.22,0.46,3.01,0.24,-0.24,-0.32,0.07,2.98,2.77,2.76
31.61,3.01,0.24,3.03,0.27,-0.27,-0.33,0.06,2.74,2.77,2.76
31.93,2.81,0.05,3.05,0.29,-0.29,-0.34,0.05,2.52,2.76,2.76
32.24,2.87,0.12,3.07,0.31,-0.31,-0.35,0.04,2.56,2.76,2.75
32.57,3.02,0.26,3.11,0.36,-0.36,-0.36,0.03,2.66,2.75,2.75
32.89,3.16,0.41,3.17,0.42,-0.42,-0.37,0.01,2.74,2.75,2.75
33.22,3.25,0.50,3.23,0.48,-0.48,-0.38,0.00,2.77,2.75,2.74
33.55,3.31,0.57,3.26,0.52,-0.52,-0.39,-0.01,2.79,2.74,2.74
33.89,3.37,0.63,3.27,0.53,-0.53,-0.40,-0.03,2.83,2.74,2.73
34.23,3.34,0.60,3.29,0.56,-0.56,-0.41,-0.04,2.78,2.73,2.73
34.57,3.26,0.53,3.32,0.60,-0.60,-0.42,-0.06,2.66,2.73,2.72
34.92,3.19,0.47,3.38,0.66,-0.66,-0.44,-0.08,2.53,2.72,2.72
35.27,3.36,0.64,3.44,0.72,-0.72,-0.45,-0.10,2.64,2.72,2.71
35.62,3.61,0.89,3.48,0.77,-0.77,-0.46,-0.12,2.84,2.72,2.71
35.97,3.86,1.14,3.51,0.79,-0.79,-0.48,-0.13,3.06,2.71,2.71
36.33,3.68,0.96,3.52,0.81,-0.81,-0.49,-0.15,2.87,2.71,2.71
36.70,3.47,0.77,3.54,0.83,-0.83,-0.51,-0.18,2.64,2.71,2.70
37.06,3.32,0.62,3.56,0.85,-0.85,-0.52,-0.20,2.47,2.71,2.70
37.43,3.47,0.76,3.59,0.88,-0.88,-0.54,-0.22,2.59,2.71,2.71
37.81,3.61,0.89,3.62,0.91,-0.91,-0.55,-0.24,2.70,2.71,2.71
38.19,3.69,0.98,3.65,0.94,-0.94,-0.57,-0.26,2.75,2.71,2.70
38.57,3.69,0.97,3.68,0.96,-0.96,-0.59,-0.29,2.73,2.71,2.71
38.95,3.69,0.96,3.69,0.98,-0.98,-0.61,-0.31,2.71,2.71,2.72
39.34,3.71,0.99,3.70,0.99,-0.99,-0.63,-0.33,2.72,2.71,2.71
39.74,3.73,1.01,3.71,1.00,-1.00,-0.65,-0.36,2.73,2.71,2.71
40.14,3.77,1.05,3.74,1.03,-1.03,-0.67,-0.38,2.74,2.71,2.71
40.54,3.83,1.11,3.80,1.09,-1.09,-0.70,-0.41,2.74,2.71,2.71
40.94,3.88,1.17,3.85,1.14,-1.14,-0.72,-0.43,2.74,2.71,2.70
41.35,3.85,1.14,3.88,1.18,-1.18,-0.75,-0.46,2.67,2.70,2.70
41.76,3.81,1.11,3.89,1.19,-1.19,-0.77,-0.49,2.62,2.69,2.69
42.18,3.83,1.13,3.89,1.20,-1.20,-0.80,-0.51,2.63,2.69,2.69
42.60,3.91,1.23,3.89,1.22,-1.22,-0.83,-0.54,2.69,2.68,2.68
43.03,3.99,1.31,3.90,1.24,-1.24,-0.86,-0.57,2.75,2.67,2.67
43.46,3.99,1.32,3.92,1.26,-1.26,-0.89,-0.60,2.73,2.65,2.66
43.90,3.99,1.34,3.93,1.28,-1.28,-0.93,-0.63,2.70,2.64,2.64
44.33,3.99,1.36,3.94,1.31,-1.31,-0.96,-0.66,2.68,2.63,2.62
44.78,3.99,1.38,3.95,1.33,-1.33,-1.00,-0.69,2.66,2.62,2.60
45.23,3.93,1.33,3.96,1.35,-1.35,-1.03,-0.72,2.57,2.60,2.59
45.68,3.81,1.22,3.97,1.38,-1.38,-1.07,-0.75,2.43,2.59,2.58
46.13,3.78,1.22,3.98,1.41,-1.41,-1.11,-0.78,2.37,2.58,2.56
46.60,3.95,1.38,3.99,1.43,-1.43,-1.16,-0.81,2.52,2.56,2.56
47.06,4.09,1.54,4.00,1.46,-1.46,-1.20,-0.84,2.63,2.55,2.54
47.53,4.09,1.55,4.02,1.49,-1.49,-1.24,-0.87,2.60,2.53,2.53
48.01,4.09,1.55,4.04,1.52,-1.52,-1.29,-0.91,2.57,2.52,2.53
48.49,4.09,1.57,4.06,1.55,-1.55,-1.33,-0.94,2.53,2.50,2.51
48.97,4.09,1.59,4.07,1.58,-1.58,-1.38,-0.97,2.51,2.49,2.49
49.46,4.09,1.61,4.09,1.62,-1.62,-1.43,-1.01,2.47,2.48,2.47
49.96,4.09,1.63,4.12,1.66,-1.66,-1.47,-1.04,2.43,2.46,2.45
50.46,4.09,1.64,4.15,1.70,-1.70,-1.52,-1.08,2.39,2.45,2.44
50.96,4.09,1.65,4.16,1.72,-1.72,-1.57,-1.11,2.36,2.44,2.43
51.47,4.18,1.76,4.15,1.73,-1.73,-1.61,-1.14,2.45,2.42,2.41
51.99,4.28,1.87,4.12,1.71,-1.71,-1.65,-1.18,2.57,2.41,2.40
52.51,4.13,1.74,4.09,1.69,-1.69,-1.69,-1.21,2.44,2.40,2.39
53.03,3.99,1.59,4.06,1.67,-1.67,-1.73,-1.25,2.32,2.38,2.39
53.56,4.04,1.66,4.02,1.65,-1.65,-1.76,-1.28,2.39,2.37,2.37
54.10,4.08,1.71,3.99,1.62,-1.62,-1.79,-1.32,2.46,2.36,2.36
54.64,4.10,1.75,3.95,1.60,-1.60,-1.81,-1.35,2.50,2.35,2.34
55.18,4.04,1.69,3.92,1.58,-1.58,-1.83,-1.39,2.46,2.34,2.34
55.74,3.82,1.50,3.90,1.56,-1.56,-1.85,-1.42,2.26,2.33,2.32
56.29,3.70,1.38,3.87,1.55,-1.55,-1.86,-1.45,2.14,2.32,2.31
56.86,3.69,1.38,3.85,1.55,-1.55,-1.86,-1.48,2.14,2.30,2.30
57.42,3.72,1.44,3.83,1.54,-1.54,-1.86,-1.51,2.18,2.29,2.27
58.00,3.76,1.49,3.83,1.57,-1.57,-1.86,-1.54,2.19,2.27,2.26
58.58,3.81,1.55,3.86,1.61,-1.61,-1.85,-1.57,2.20,2.24,2.25
59.16,3.87,1.64,3.88,1.66,-1.66,-1.84,-1.60,2.21,2.22,2.23
59.76,3.96,1.74,3.90,1.71,-1.71,-1.82,-1.63,2.25,2.19,2.21
60.35,3.99,1.81,3.92,1.76,-1.76,-1.80,-1.65,2.23,2.16,2.17
60.96,3.99,1.85,3.95,1.82,-1.82,-1.78,-1.68,2.17,2.13,2.13
61.57,3.99,1.89,3.97,1.88,-1.88,-1.75,-1.70,2.11,2.09,2.09
62.18,3.99,1.93,3.99,1.93,-1.93,-1.73,-1.73,2.05,2.05,2.05
62.80,4.01,2.00,3.99,1.98,-1.98,-1.70,-1.75,2.03,2.01,2.00
63.43,4.07,2.10,3.98,2.01,-2.01,-1.67,-1.77,2.06,1.97,1.96
64.07,4.13,2.21,3.96,2.03,-2.03,-1.65,-1.79,2.10,1.93,1.91
64.71,3.98,2.10,3.93,2.05,-2.05,-1.62,-1.80,1.93,1.88,1.87
65.35,3.90,2.06,3.89,2.05,-2.05,-1.60,-1.82,1.85,1.83,1.83
66.01,3.89,2.10,3.84,2.06,-2.06,-1.57,-1.84,1.83,1.79,1.78
66.67,3.69,1.95,3.81,2.07,-2.07,-1.55,-1.85,1.62,1.74,1.73
67.33,3.62,1.94,3.78,2.09,-2.09,-1.52,-1.87,1.53,1.69,1.68
68.01,3.69,2.04,3.75,2.11,-2.11,-1.50,-1.88,1.58,1.64,1.64
68.69,3.69,2.09,3.73,2.14,-2.14,-1.48,-1.89,1.55,1.59,1.59
69.37,3.69,2.14,3.71,2.17,-2.17,-1.46,-1.90,1.52,1.54,1.54
70.07,3.69,2.19,3.70,2.21,-2.21,-1.45,-1.92,1.48,1.49,1.49
70.77,3.69,2.24,3.69,2.26,-2.26,-1.43,-1.93,1.43,1.43,1.44
71.48,3.62,2.22,3.70,2.32,-2.32,-1.42,-1.94,1.30,1.38,1.39
72.19,3.61,2.28,3.71,2.38,-2.38,-1.40,-1.96,1.23,1.32,1.32
72.91,3.82,2.55,3.72,2.45,-2.45,-1.39,-1.97,1.37,1.27,1.26
73.64,3.79,2.57,3.72,2.51,-2.51,-1.38,-1.98,1.28,1.21,1.21
74.38,3.75,2.59,3.73,2.57,-2.57,-1.37,-2.00,1.18,1.16,1.15
75.12,3.73,2.63,3.71,2.61,-2.61,-1.36,-2.01,1.12,1.10,1.09
75.87,3.68,2.64,3.68,2.64,-2.64,-1.35,-2.03,1.04,1.04,1.03
76.63,3.68,2.69,3.64,2.65,-2.65,-1.34,-2.04,1.02,0.99,0.98
77.40,3.61,2.67,3.59,2.65,-2.65,-1.33,-2.06,0.95,0.94,0.93
78.17,3.49,2.61,3.51,2.63,-2.63,-1.32,-2.08,0.86,0.88,0.87
78.95,3.39,2.55,3.42,2.58,-2.58,-1.31,-2.10,0.80,0.83,0.83
79.74,3.34,2.55,3.30,2.52,-2.52,-1.30,-2.12,0.82,0.78,0.78
80.54,3.21,2.47,3.15,2.42,-2.42,-1.29,-2.15,0.79,0.73,0.73
81.35,3.03,2.34,2.97,2.29,-2.29,-1.27,-2.17,0.74,0.69,0.68
82.16,2.85,2.21,2.79,2.16,-2.16,-1.26,-2.20,0.69,0.64,0.63
82.98,2.64,2.04,2.59,2.00,-2.00,-1.24,-2.22,0.64,0.59,0.59
83.81,2.45,1.90,2.37,1.83,-1.83,-1.22,-2.25,0.62,0.54,0.54
84.65,2.19,1.69,2.14,1.65,-1.65,-1.19,-2.28,0.54,0.50,0.49
85.50,1.88,1.43,1.90,1.45,-1.45,-1.15,-2.32,0.43,0.45,0.45
86.35,1.59,1.18,1.64,1.25,-1.25,-1.11,-2.35,0.34,0.40,0.40
87.22,1.37,1.02,1.38,1.04,-1.04,-1.06,-2.39,0.33,0.35,0.35
88.09,1.12,0.81,1.12,0.82,-0.82,-1.00,-2.43,0.30,0.30,0.30
88.97,0.79,0.54,0.86,0.61,-0.61,-0.92,-2.47,0.18,0.25,0.24
89.86,0.61,0.41,0.61,0.42,-0.42,-0.82,-2.51,0.19,0.20,0.19
90.76,0.40,0.25,0.37,0.23,-0.23,-0.71,-2.56,0.17,0.15,0.14
91.66,0.13,0.03,0.15,0.05,-0.05,-0.56,-2.60,0.08,0.09,0.09
92.58,-0.07,-0.11,-0.07,-0.12,0.12,-0.39,-2.65,0.05,0.04,0.03
93.51,-0.25,-0.24,-0.28,-0.27,0.27,-0.19,-2.70,0.02,-0.01,-0.02
94.44,-0.47,-0.42,-0.46,-0.40,0.40,0.05,-2.75,-0.07,-0.06,-0.06
95.39,-0.67,-0.57,-0.62,-0.51,0.51,0.30,-2.80,-0.16,-0.11,-0.11
96.34,-0.74,-0.59,-0.75,-0.59,0.59,0.57,-2.86,-0.15,-0.16,-0.16
97.30,-0.79,-0.59,-0.85,-0.65,0.65,0.82,-2.91,-0.14,-0.20,-0.21
98.28,-0.85,-0.60,-0.92,-0.67,0.67,1.00,-2.97,-0.18,-0.25,-0.26
99.26,-0.95,-0.66,-0.95,-0.65,0.65,1.08,-3.03,-0.30,-0.30,-0.30
100.25,-1.06,-0.72,-0.96,-0.61,0.61,1.02,-3.09,-0.45,-0.35,-0.35
101.25,-1.08,-0.69,-0.92,-0.53,0.53,0.82,-3.15,-0.55,-0.40,-0.40
102.27,-1.02,-0.58,-0.84,-0.40,0.40,0.54,-3.21,-0.62,-0.44,-0.45
103.29,-0.81,-0.32,-0.73,-0.24,0.24,0.20,-3.27,-0.58,-0.49,-0.50
104.32,-0.62,-0.09,-0.59,-0.05,0.05,-0.16,-3.34,-0.57,-0.54,-0.54
105.37,-0.43,0.15,-0.43,0.17,-0.17,-0.50,-3.40,-0.60,-0.59,-0.59
106.42,-0.22,0.41,-0.23,0.41,-0.41,-0.81,-3.46,-0.63,-0.64,-0.64
107.48,-0.01,0.69,-0.01,0.68,-0.68,-1.09,-3.52,-0.69,-0.70,-0.70
108.56,0.28,1.02,0.22,0.97,-0.97,-1.34,-3.58,-0.69,-0.75,-0.75
109.64,0.54,1.34,0.47,1.27,-1.27,-1.56,-3.64,-0.73,-0.80,-0.80
110.74,0.72,1.57,0.74,1.60,-1.60,-1.76,-3.70,-0.88,-0.85,-0.86
111.85,1.11,2.00,1.02,1.92,-1.92,-1.94,-3.75,-0.81,-0.90,-0.90
112.97,1.32,2.27,1.28,2.23,-2.23,-2.10,-3.80,-0.91,-0.95,-0.96
114.10,1.47,2.47,1.53,2.53,-2.53,-2.25,-3.86,-1.06,-1.00,-1.01
115.24,1.68,2.73,1.76,2.81,-2.81,-2.39,-3.90,-1.13,-1.05,-1.06
116.39,2.03,3.13,1.99,3.08,-3.08,-2.52,-3.95,-1.05,-1.09,-1.11
117.55,2.32,3.46,2.20,3.34,-3.34,-2.64,-3.99,-1.02,-1.14,-1.15
118.73,2.48,3.66,2.40,3.58,-3.58,-2.75,-4.02,-1.10,-1.18,-1.19
119.92,2.60,3.81,2.59,3.81,-3.81,-2.86,-4.06,-1.21,-1.21,-1.22
121.12,2.86,4.11,2.78,4.03,-4.03,-2.97,-4.08,-1.17,-1.25,-1.26
122.33,3.00,4.28,2.94,4.23,-4.23,-3.07,-4.11,-1.23,-1.29,-1.29
123.55,3.07,4.38,3.09,4.41,-4.41,-3.18,-4.13,-1.34,-1.32,-1.32
124.79,3.15,4.49,3.22,4.57,-4.57,-3.28,-4.14,-1.42,-1.35,-1.35
126.03,3.30,4.67,3.35,4.72,-4.72,-3.37,-4.15,-1.43,-1.38,-1.38
127.29,3.41,4.80,3.46,4.87,-4.87,-3.47,-4.15,-1.46,-1.41,-1.40
128.57,3.54,4.97,3.56,5.00,-5.00,-3.56,-4.15,-1.46,-1.44,-1.44
129.85,3.67,5.13,3.63,5.10,-5.10,-3.66,-4.15,-1.43,-1.47,-1.47
131.15,3.77,5.26,3.70,5.20,-5.20,-3.75,-4.14,-1.43,-1.49,-1.50
132.46,3.91,5.43,3.78,5.30,-5.30,-3.85,-4.12,-1.39,-1.52,-1.53
133.79,3.88,5.43,3.85,5.41,-5.41,-3.94,-4.10,-1.53,-1.55,-1.56
135.12,3.78,5.36,3.92,5.50,-5.50,-4.03,-4.08,-1.72,-1.58,-1.59
136.48,3.90,5.50,3.98,5.59,-5.59,-4.12,-4.06,-1.69,-1.61,-1.61
137.84,3.99,5.63,4.03,5.66,-5.66,-4.21,-4.03,-1.67,-1.63,-1.65
139.22,4.07,5.74,4.06,5.73,-5.73,-4.30,-4.00,-1.66,-1.66,-1.68
140.61,4.09,5.79,4.10,5.79,-5.79,-4.39,-3.97,-1.70,-1.69,-1.71
142.02,3.98,5.70,4.12,5.85,-5.85,-4.48,-3.93,-1.87,-1.73,-1.73
143.44,4.09,5.84,4.13,5.89,-5.89,-4.56,-3.90,-1.80,-1.76,-1.76
144.87,4.21,6.00,4.14,5.94,-5.94,-4.65,-3.86,-1.73,-1.80,-1.80
146.32,4.21,6.04,4.12,5.97,-5.97,-4.73,-3.82,-1.76,-1.84,-1.84
147.78,4.15,6.01,4.09,5.98,-5.98,-4.81,-3.79,-1.83,-1.89,-1.87
149.26,3.99,5.90,4.02,5.96,-5.96,-4.89,-3.75,-1.98,-1.95,-1.92
150.75,3.79,5.76,3.90,5.91,-5.91,-4.97,-3.71,-2.12,-2.00,-1.98
152.26,3.76,5.80,3.73,5.80,-5.80,-5.04,-3.67,-2.04,-2.07,-2.05
153.78,3.85,5.96,3.52,5.65,-5.65,-5.11,-3.64,-1.80,-2.13,-2.12
155.32,3.65,5.83,3.28,5.48,-5.48,-5.18,-3.60,-1.83,-2.20,-2.19
156.88,3.31,5.58,3.03,5.30,-5.30,-5.24,-3.57,-1.99,-2.27,-2.27
158.44,3.06,5.40,2.79,5.13,-5.13,-5.30,-3.54,-2.08,-2.34,-2.35
160.03,2.77,5.19,2.57,4.98,-4.98,-5.36,-3.51,-2.21,-2.41,-2.43
161.63,2.29,4.78,2.38,4.86,-4.86,-5.41,-3.48,-2.57,-2.47,-2.50
163.24,1.97,4.52,2.23,4.77,-4.77,-5.46,-3.45,-2.80,-2.54,-2.56
164.88,1.61,4.21,2.12,4.71,-4.71,-5.50,-3.43,-3.10,-2.59,-2.61
166.53,1.42,4.07,2.05,4.69,-4.69,-5.54,-3.41,-3.27,-2.64,-2.66
168.19,1.47,4.16,2.02,4.70,-4.70,-5.57,-3.39,-3.23,-2.68,-2.70
169.87,1.63,4.37,2.03,4.74,-4.74,-5.60,-3.37,-3.11,-2.71,-2.74
171.57,1.95,4.70,2.07,4.81,-4.81,-5.62,-3.36,-2.86,-2.74,-2.76
173.29,2.33,5.09,2.16,4.92,-4.92,-5.64,-3.34,-2.59,-2.76,-2.77
175.02,2.67,5.44,2.29,5.06,-5.06,-5.65,-3.33,-2.39,-2.77,-2.78
176.77,2.78,5.56,2.44,5.22,-5.22,-5.65,-3.33,-2.44,-2.78,-2.79
178.54,2.81,5.60,2.60,5.39,-5.39,-5.65,-3.32,-2.58,-2.79,-2.80
180.32,2.87,5.65,2.75,5.54,-5.54,-5.64,-3.32,-2.67,-2.79,-2.79
182.13,2.97,5.74,2.87,5.66,-5.66,-5.63,-3.32,-2.70,-2.80,-2.78
183.95,3.08,5.86,2.95,5.75,-5.75,-5.61,-3.32,-2.67,-2.80,-2.79
185.79,3.04,5.82,2.98,5.79,-5.79,-5.58,-3.33,-2.75,-2.81,-2.79
187.65,3.00,5.80,2.97,5.79,-5.79,-5.55,-3.34,-2.79,-2.82,-2.81
189.52,2.94,5.75,2.93,5.75,-5.75,-5.52,-3.35,-2.82,-2.83,-2.82
191.42,2.90,5.73,2.85,5.69,-5.69,-5.48,-3.36,-2.79,-2.84,-2.84
193.33,2.82,5.67,2.76,5.61,-5.61,-5.43,-3.38,-2.80,-2.86,-2.86
195.27,2.66,5.53,2.66,5.54,-5.54,-5.38,-3.39,-2.88,-2.87,-2.88
197.22,2.47,5.36,2.58,5.47,-5.47,-5.33,-3.41,-3.00,-2.89,-2.90
199.19,2.30,5.21,2.48,5.39,-5.39,-5.27,-3.43,-3.10,-2.91,-2.92
201.18,2.21,5.14,2.38,5.31,-5.31,-5.21,-3.45,-3.10,-2.93,-2.94
203.19,2.20,5.15,2.27,5.22,-5.22,-5.15,-3.48,-3.02,-2.95,-2.96
205.23,2.17,5.14,2.15,5.13,-5.13,-5.08,-3.50,-2.96,-2.97,-2.98
207.28,2.08,5.06,2.04,5.03,-5.03,-5.01,-3.53,-2.96,-2.99,-2.99
209.35,1.96,4.96,1.92,4.93,-4.93,-4.94,-3.55,-2.97,-3.01,-3.01
211.44,1.85,4.88,1.80,4.83,-4.83,-4.87,-3.58,-2.98,-3.03,-3.04
213.56,1.78,4.82,1.68,4.72,-4.72,-4.79,-3.61,-2.95,-3.05,-3.05
215.69,1.64,4.69,1.55,4.61,-4.61,-4.72,-3.63,-2.97,-3.06,-3.06
217.85,1.48,4.54,1.41,4.49,-4.49,-4.64,-3.66,-3.01,-3.07,-3.07
220.03,1.30,4.37,1.28,4.36,-4.36,-4.56,-3.69,-3.06,-3.08,-3.08
222.23,1.14,4.24,1.13,4.22,-4.22,-4.48,-3.71,-3.08,-3.09,-3.11
224.45,1.01,4.10,0.99,4.08,-4.08,-4.40,-3.73,-3.07,-3.09,-3.10
226.70,0.79,3.88,0.85,3.94,-3.94,-4.32,-3.76,-3.15,-3.09,-3.10
228.96,0.65,3.73,0.73,3.81,-3.81,-4.24,-3.77,-3.16,-3.08,-3.09
231.25,0.58,3.65,0.62,3.69,-3.69,-4.16,-3.79,-3.11,-3.08,-3.08
233.57,0.50,3.56,0.52,3.58,-3.58,-4.09,-3.80,-3.08,-3.06,-3.07
235.90,0.33,3.38,0.42,3.47,-3.47,-4.01,-3.82,-3.14,-3.05,-3.06
238.26,0.14,3.18,0.33,3.36,-3.36,-3.93,-3.82,-3.22,-3.03,-3.05
240.64,0.20,3.21,0.26,3.27,-3.27,-3.85,-3.83,-3.08,-3.01,-3.02
243.05,0.25,3.23,0.20,3.20,-3.20,-3.77,-3.83,-2.95,-2.99,-2.99
245.48,0.25,3.21,0.16,3.13,-3.13,-3.70,-3.82,-2.88,-2.97,-2.97
247.93,0.23,3.16,0.12,3.07,-3.07,-3.62,-3.81,-2.84,-2.94,-2.94
250.41,0.17,3.08,0.08,3.01,-3.01,-3.55,-3.80,-2.84,-2.92,-2.92
252.92,0.07,2.95,0.05,2.95,-2.95,-3.48,-3.79,-2.88,-2.90,-2.89
255.45,-0.01,2.85,0.01,2.89,-2.89,-3.40,-3.76,-2.90,-2.87,-2.87
258.00,-0.06,2.78,-0.03,2.82,-2.82,-3.33,-3.74,-2.88,-2.85,-2.85
260.58,-0.13,2.69,-0.07,2.75,-2.75,-3.27,-3.71,-2.88,-2.82,-2.83
263.19,-0.12,2.67,-0.12,2.68,-2.68,-3.20,-3.68,-2.80,-2.80,-2.80
265.82,-0.08,2.69,-0.18,2.60,-2.60,-3.13,-3.64,-2.68,-2.77,-2.78
268.48,-0.19,2.56,-0.24,2.51,-2.51,-3.07,-3.60,-2.70,-2.75,-2.76
271.16,-0.25,2.47,-0.31,2.42,-2.42,-3.00,-3.56,-2.67,-2.73,-2.73
273.87,-0.39,2.31,-0.37,2.33,-2.33,-2.94,-3.51,-2.72,-2.70,-2.71
276.61,-0.44,2.23,-0.43,2.24,-2.24,-2.88,-3.46,-2.68,-2.67,-2.68
279.38,-0.48,2.16,-0.49,2.16,-2.16,-2.82,-3.41,-2.64,-2.65,-2.65
282.17,-0.61,2.01,-0.53,2.09,-2.09,-2.76,-3.36,-2.70,-2.62,-2.63
284.99,-0.60,1.98,-0.58,2.01,-2.01,-2.70,-3.31,-2.61,-2.59,-2.59
287.84,-0.63,1.93,-0.64,1.92,-1.92,-2.65,-3.25,-2.56,-2.56,-2.57
290.72,-0.72,1.81,-0.70,1.84,-1.84,-2.59,-3.19,-2.56,-2.53,-2.54
293.63,-0.76,1.74,-0.75,1.76,-1.76,-2.54,-3.13,-2.52,-2.50,-2.51
296.57,-0.70,1.77,-0.79,1.69,-1.69,-2.49,-3.08,-2.39,-2.47,-2.48
299.53,-0.84,1.60,-0.81,1.64,-1.64,-2.44,-3.02,-2.48,-2.45,-2.45
302.53,-0.88,1.54,-0.83,1.59,-1.59,-2.39,-2.96,-2.47,-2.42,-2.43
305.55,-0.85,1.53,-0.85,1.54,-1.54,-2.34,-2.90,-2.40,-2.39,-2.39
308.61,-0.77,1.59,-0.87,1.50,-1.50,-2.29,-2.84,-2.27,-2.37,-2.37
311.69,-0.88,1.45,-0.88,1.46,-1.46,-2.25,-2.78,-2.34,-2.35,-2.34
314.81,-1.00,1.31,-0.90,1.43,-1.43,-2.21,-2.73,-2.43,-2.32,-2.32
317.96,-1.03,1.26,-0.91,1.40,-1.40,-2.16,-2.67,-2.43,-2.30,-2.30
321.14,-0.89,1.39,-0.91,1.37,-1.37,-2.12,-2.62,-2.26,-2.28,-2.29
324.35,-0.80,1.46,-0.92,1.35,-1.35,-2.08,-2.56,-2.15,-2.27,-2.27
327.59,-0.85,1.40,-0.92,1.33,-1.33,-2.04,-2.51,-2.18,-2.25,-2.26
330.87,-0.93,1.31,-0.93,1.31,-1.31,-2.00,-2.46,-2.24,-2.24,-2.25
334.18,-0.96,1.26,-0.94,1.29,-1.29,-1.97,-2.41,-2.25,-2.23,-2.23
337.52,-0.96,1.25,-0.95,1.27,-1.27,-1.93,-2.36,-2.23,-2.22,-2.22
340.90,-0.96,1.24,-0.96,1.25,-1.25,-1.90,-2.31,-2.21,-2.21,-2.21
344.30,-0.96,1.23,-0.98,1.23,-1.23,-1.86,-2.27,-2.19,-2.20,-2.20
347.75,-0.93,1.26,-0.98,1.21,-1.21,-1.83,-2.22,-2.15,-2.20,-2.20
351.23,-0.94,1.24,-0.99,1.20,-1.20,-1.80,-2.18,-2.14,-2.19,-2.19
354.74,-1.03,1.16,-1.01,1.18,-1.18,-1.77,-2.14,-2.21,-2.19,-2.20
358.28,-1.05,1.13,-1.02,1.16,-1.16,-1.74,-2.10,-2.22,-2.19,-2.19
361.87,-1.05,1.13,-1.03,1.16,-1.16,-1.71,-2.07,-2.21,-2.18,-2.19
365.49,-1.04,1.13,-1.02,1.16,-1.16,-1.68,-2.03,-2.20,-2.18,-2.18
369.14,-1.04,1.14,-1.01,1.17,-1.17,-1.65,-2.00,-2.21,-2.18,-2.19
372.83,-1.03,1.15,-1.00,1.18,-1.18,-1.63,-1.96,-2.21,-2.18,-2.19
376.56,-1.03,1.16,-1.00,1.19,-1.19,-1.60,-1.93,-2.22,-2.19,-2.20
380.33,-1.03,1.15,-0.99,1.20,-1.20,-1.58,-1.90,-2.23,-2.19,-2.19
384.13,-0.95,1.23,-0.98,1.22,-1.22,-1.55,-1.88,-2.17,-2.19,-2.19
387.97,-0.91,1.28,-0.96,1.23,-1.23,-1.53,-1.85,-2.14,-2.20,-2.20
391.85,-0.90,1.30,-0.95,1.25,-1.25,-1.51,-1.82,-2.15,-2.20,-2.21
395.77,-0.90,1.29,-0.94,1.27,-1.27,-1.49,-1.80,-2.17,-2.21,-2.20
399.73,-0.90,1.30,-0.93,1.29,-1.29,-1.47,-1.78,-2.19,-2.21,-2.21
403.72,-0.90,1.30,-0.93,1.29,-1.29,-1.45,-1.76,-2.19,-2.22,-2.21
407.76,-0.90,1.32,-0.92,1.30,-1.30,-1.43,-1.74,-2.20,-2.22,-2.23
411.84,-0.90,1.32,-0.92,1.31,-1.31,-1.41,-1.72,-2.21,-2.23,-2.23
415.96,-0.91,1.31,-0.91,1.32,-1.32,-1.39,-1.70,-2.23,-2.23,-2.23
420.12,-0.90,1.32,-0.89,1.33,-1.33,-1.37,-1.68,-2.23,-2.22,-2.23
424.32,-0.90,1.32,-0.88,1.34,-1.34,-1.36,-1.67,-2.24,-2.22,-2.23
428.56,-0.89,1.32,-0.86,1.35,-1.35,-1.34,-1.65,-2.24,-2.21,-2.22
432.85,-0.88,1.32,-0.83,1.36,-1.36,-1.33,-1.64,-2.24,-2.19,-2.21
437.18,-0.85,1.34,-0.80,1.37,-1.37,-1.31,-1.63,-2.23,-2.17,-2.20
441.55,-0.81,1.34,-0.75,1.39,-1.39,-1.30,-1.61,-2.20,-2.15,-2.16
445.96,-0.72,1.40,-0.70,1.41,-1.41,-1.29,-1.60,-2.13,-2.12,-2.13
450.42,-0.60,1.49,-0.65,1.43,-1.43,-1.27,-1.59,-2.03,-2.08,-2.10
454.93,-0.56,1.48,-0.58,1.45,-1.45,-1.26,-1.58,-2.02,-2.04,-2.05
459.48,-0.50,1.50,-0.52,1.47,-1.47,-1.25,-1.56,-1.98,-1.99,-2.01
464.07,-0.43,1.52,-0.45,1.49,-1.49,-1.24,-1.55,-1.93,-1.95,-1.96
468.71,-0.38,1.51,-0.38,1.52,-1.52,-1.23,-1.54,-1.90,-1.90,-1.90
473.40,-0.32,1.53,-0.31,1.54,-1.54,-1.22,-1.53,-1.86,-1.85,-1.86
478.13,-0.28,1.51,-0.24,1.56,-1.56,-1.21,-1.52,-1.84,-1.80,-1.80
482.91,-0.18,1.57,-0.18,1.58,-1.58,-1.20,-1.51,-1.76,-1.76,-1.76
487.74,-0.09,1.62,-0.11,1.60,-1.60,-1.20,-1.50,-1.70,-1.72,-1.72
