frequency,raw,error,smoothed,error_smoothed,equalization,parametric_eq,fixed_band_eq,equalized_raw,equalized_smoothed,target
20.00,-14.50,-17.96,-14.60,-18.09,18.09,18.19,8.87,3.59,3.48,3.46
20.20,-14.77,-18.27,-14.87,-18.38,18.38,18.34,9.05,3.61,3.51,3.50
20.40,-15.05,-18.59,-15.11,-18.65,18.65,18.47,9.22,3.60,3.54,3.53
20.61,-15.31,-18.88,-15.33,-18.90,18.90,18.61,9.40,3.58,3.57,3.56
20.81,-15.59,-19.19,-15.53,-19.12,19.12,18.74,9.59,3.52,3.59,3.60
21.02,-15.85,-19.49,-15.70,-19.31,19.31,18.86,9.78,3.46,3.62,3.64
21.23,-15.95,-19.60,-15.85,-19.48,19.48,18.98,9.98,3.53,3.64,3.65
21.44,-16.05,-19.72,-15.97,-19.63,19.63,19.09,10.18,3.58,3.66,3.67
21.66,-16.15,-19.84,-16.08,-19.75,19.75,19.20,10.38,3.60,3.68,3.69
21.87,-16.25,-19.95,-16.16,-19.85,19.85,19.29,10.59,3.60,3.69,3.70
22.09,-16.29,-20.01,-16.21,-19.92,19.92,19.38,10.81,3.63,3.71,3.72
22.31,-16.25,-19.97,-16.25,-19.97,19.97,19.46,11.03,3.72,3.72,3.72
22.54,-16.21,-19.94,-16.24,-19.97,19.97,19.52,11.26,3.76,3.73,3.73
22.76,-16.17,-19.91,-16.20,-19.94,19.94,19.58,11.49,3.78,3.74,3.74
22.99,-16.13,-19.87,-16.15,-19.90,19.90,19.63,11.73,3.77,3.75,3.74
23.22,-16.04,-19.79,-16.08,-19.84,19.84,19.67,11.98,3.79,3.75,3.74
23.45,-15.95,-19.70,-15.99,-19.75,19.75,19.69,12.23,3.80,3.76,3.75
23.69,-15.85,-19.61,-15.87,-19.64,19.64,19.70,12.49,3.79,3.76,3.76
23.92,-15.76,-19.53,-15.74,-19.51,19.51,19.70,12.76,3.75,3.77,3.77
24.16,-15.64,-19.42,-15.59,-19.36,19.36,19.69,13.03,3.72,3.77,3.78
24.40,-15.52,-19.31,-15.44,-19.21,19.21,19.67,13.32,3.70,3.77,3.79
24.65,-15.39,-19.17,-15.29,-19.07,19.07,19.63,13.61,3.68,3.78,3.78
24.89,-15.26,-19.04,-15.15,-18.93,18.93,19.58,13.91,3.67,3.78,3.78
25.14,-15.08,-18.85,-15.01,-18.79,18.79,19.53,14.22,3.72,3.78,3.78
25.39,-14.85,-18.62,-14.89,-18.67,18.67,19.46,14.54,3.82,3.78,3.78
25.65,-14.62,-18.40,-14.77,-18.55,18.55,19.38,14.87,3.93,3.78,3.78
25.91,-14.38,-18.15,-14.67,-18.45,18.45,19.28,15.20,4.06,3.78,3.76
26.16,-14.31,-18.08,-14.57,-18.34,18.34,19.18,15.55,4.03,3.77,3.77
26.43,-14.33,-18.10,-14.47,-18.24,18.24,19.08,15.91,3.91,3.77,3.77
26.69,-14.34,-18.11,-14.37,-18.14,18.14,18.96,16.27,3.80,3.77,3.77
26.96,-14.36,-18.13,-14.28,-18.04,18.04,18.83,16.64,3.68,3.77,3.77
27.23,-14.31,-18.08,-14.19,-17.95,17.95,18.70,17.03,3.64,3.76,3.77
27.50,-14.24,-18.01,-14.09,-17.85,17.85,18.56,17.41,3.61,3.76,3.77
27.77,-14.18,-17.93,-14.00,-17.76,17.76,18.42,17.81,3.58,3.76,3.76
28.05,-14.09,-17.84,-13.91,-17.67,17.67,18.27,18.20,3.58,3.76,3.75
28.33,-13.90,-17.64,-13.82,-17.57,17.57,18.11,18.60,3.67,3.75,3.74
28.62,-13.71,-17.46,-13.71,-17.46,17.46,17.95,18.99,3.75,3.75,3.75
28.90,-13.52,-17.27,-13.60,-17.35,17.35,17.79,19.37,3.83,3.75,3.75
29.19,-13.37,-17.11,-13.47,-17.21,17.21,17.62,19.74,3.84,3.74,3.74
29.48,-13.24,-16.98,-13.33,-17.07,17.07,17.46,20.08,3.83,3.74,3.74
29.78,-13.11,-16.85,-13.19,-16.93,16.93,17.29,20.39,3.82,3.74,3.74
30.08,-12.99,-16.73,-13.05,-16.79,16.79,17.11,20.66,3.79,3.73,3.74
30.38,-12.89,-16.62,-12.92,-16.65,16.65,16.94,20.88,3.76,3.73,3.73
30.68,-12.79,-16.52,-12.79,-16.51,16.51,16.77,21.04,3.72,3.72,3.73
30.99,-12.69,-16.41,-12.66,-16.37,16.37,16.59,21.14,3.68,3.72,3.71
31.30,-12.58,-16.29,-12.53,-16.24,16.24,16.41,21.16,3.66,3.71,3.71
31.61,-12.46,-16.17,-12.41,-16.12,16.12,16.24,21.12,3.66,3.71,3.71
31.93,-12.34,-16.04,-12.30,-16.00,16.00,16.06,21.00,3.66,3.70,3.70
32.24,-12.20,-15.88,-12.19,-15.88,15.88,15.88,20.82,3.68,3.69,3.68
32.57,-12.06,-15.74,-12.06,-15.75,15.75,15.71,20.58,3.69,3.69,3.68
32.89,-11.92,-15.60,-11.93,-15.61,15.61,15.53,20.30,3.69,3.68,3.68
33.22,-11.76,-15.43,-11.79,-15.47,15.47,15.36,19.98,3.71,3.68,3.68
33.55,-11.61,-15.28,-11.65,-15.32,15.32,15.18,19.64,3.71,3.67,3.67
33.89,-11.45,-15.12,-11.51,-15.17,15.17,15.01,19.27,3.72,3.66,3.67
34.23,-11.35,-15.02,-11.36,-15.02,15.02,14.83,18.89,3.67,3.66,3.67
34.57,-11.27,-14.92,-11.21,-14.86,14.86,14.66,18.51,3.59,3.65,3.65
34.92,-11.19,-14.84,-11.05,-14.70,14.70,14.49,18.12,3.51,3.65,3.65
35.27,-10.99,-14.64,-10.91,-14.55,14.55,14.32,17.73,3.56,3.64,3.64
35.62,-10.75,-14.38,-10.76,-14.40,14.40,14.15,17.35,3.65,3.64,3.63
35.97,-10.51,-14.14,-10.62,-14.25,14.25,13.98,16.97,3.74,3.63,3.63
36.33,-10.40,-14.02,-10.48,-14.10,14.10,13.82,16.60,3.70,3.62,3.62
36.70,-10.31,-13.93,-10.33,-13.95,13.95,13.65,16.24,3.64,3.61,3.62
37.06,-10.20,-13.80,-10.19,-13.80,13.80,13.49,15.89,3.60,3.61,3.60
37.43,-10.04,-13.64,-10.05,-13.65,13.65,13.33,15.55,3.61,3.60,3.60
37.81,-9.88,-13.47,-9.92,-13.51,13.51,13.16,15.21,3.63,3.59,3.59
38.19,-9.76,-13.34,-9.78,-13.36,13.36,13.00,14.89,3.60,3.58,3.58
38.57,-9.67,-13.24,-9.64,-13.21,13.21,12.85,14.58,3.54,3.58,3.57
38.95,-9.58,-13.15,-9.51,-13.08,13.08,12.69,14.27,3.50,3.57,3.57
39.34,-9.41,-12.96,-9.39,-12.95,12.95,12.53,13.98,3.54,3.56,3.55
39.74,-9.24,-12.78,-9.27,-12.82,12.82,12.38,13.69,3.58,3.55,3.54
40.14,-9.09,-12.63,-9.14,-12.68,12.68,12.22,13.41,3.59,3.54,3.54
40.54,-9.00,-12.53,-9.00,-12.53,12.53,12.07,13.14,3.53,3.53,3.53
40.94,-8.90,-12.43,-8.86,-12.38,12.38,11.92,12.88,3.48,3.52,3.53
41.35,-8.75,-12.26,-8.72,-12.22,12.22,11.77,12.63,3.47,3.50,3.51
41.76,-8.58,-12.07,-8.58,-12.06,12.06,11.62,12.38,3.48,3.48,3.49
42.18,-8.44,-11.91,-8.44,-11.90,11.90,11.48,12.14,3.46,3.46,3.47
42.60,-8.32,-11.77,-8.29,-11.73,11.73,11.33,11.91,3.41,3.44,3.45
43.03,-8.20,-11.63,-8.14,-11.55,11.55,11.19,11.69,3.35,3.41,3.43
43.46,-8.00,-11.40,-8.00,-11.38,11.38,11.04,11.47,3.38,3.38,3.40
43.90,-7.80,-11.15,-7.86,-11.22,11.22,10.90,11.25,3.41,3.35,3.35
44.33,-7.67,-10.99,-7.72,-11.05,11.05,10.76,11.05,3.38,3.33,3.32
44.78,-7.57,-10.85,-7.58,-10.88,10.88,10.62,10.85,3.31,3.30,3.28
45.23,-7.45,-10.71,-7.44,-10.71,10.71,10.48,10.65,3.26,3.27,3.25
45.68,-7.32,-10.54,-7.31,-10.55,10.55,10.35,10.47,3.23,3.24,3.22
46.13,-7.18,-10.38,-7.18,-10.40,10.40,10.21,10.28,3.22,3.22,3.20
46.60,-7.00,-10.19,-7.05,-10.25,10.25,10.08,10.10,3.25,3.20,3.19
47.06,-6.84,-10.01,-6.92,-10.10,10.10,9.94,9.93,3.26,3.18,3.17
47.53,-6.81,-9.97,-6.80,-9.97,9.97,9.81,9.76,3.16,3.17,3.16
48.01,-6.79,-9.95,-6.67,-9.83,9.83,9.68,9.59,3.04,3.15,3.16
48.49,-6.59,-9.74,-6.55,-9.70,9.70,9.55,9.43,3.10,3.15,3.14
48.97,-6.39,-9.52,-6.41,-9.55,9.55,9.42,9.28,3.16,3.14,3.13
49.46,-6.27,-9.39,-6.27,-9.40,9.40,9.29,9.13,3.13,3.14,3.12
49.96,-6.16,-9.28,-6.12,-9.25,9.25,9.17,8.98,3.09,3.13,3.11
50.46,-6.03,-9.15,-5.99,-9.11,9.11,9.04,8.83,3.08,3.12,3.12
50.96,-5.89,-9.01,-5.86,-8.97,8.97,8.92,8.69,3.08,3.11,3.13
51.47,-5.75,-8.86,-5.73,-8.82,8.82,8.79,8.55,3.07,3.10,3.11
51.99,-5.60,-8.70,-5.60,-8.68,8.68,8.67,8.42,3.08,3.08,3.09
52.51,-5.42,-8.50,-5.47,-8.53,8.53,8.55,8.28,3.11,3.06,3.08
53.03,-5.23,-8.28,-5.34,-8.37,8.37,8.43,8.16,3.14,3.03,3.05
53.56,-5.11,-8.12,-5.22,-8.22,8.22,8.31,8.03,3.11,2.99,3.01
54.10,-5.01,-7.98,-5.11,-8.07,8.07,8.19,7.90,3.06,2.96,2.96
54.64,-5.01,-7.93,-5.00,-7.91,7.91,8.07,7.78,2.90,2.91,2.92
55.18,-4.97,-7.83,-4.89,-7.75,7.75,7.96,7.66,2.78,2.87,2.87
55.74,-4.85,-7.66,-4.77,-7.59,7.59,7.84,7.54,2.73,2.81,2.81
56.29,-4.72,-7.47,-4.66,-7.42,7.42,7.72,7.43,2.70,2.75,2.75
56.86,-4.59,-7.28,-4.55,-7.24,7.24,7.61,7.31,2.65,2.69,2.69
57.42,-4.46,-7.08,-4.44,-7.07,7.07,7.50,7.20,2.61,2.63,2.62
58.00,-4.33,-6.89,-4.32,-6.88,6.88,7.39,7.09,2.55,2.56,2.56
58.58,-4.20,-6.70,-4.19,-6.69,6.69,7.28,6.98,2.49,2.50,2.49
59.16,-4.06,-6.50,-4.07,-6.50,6.50,7.17,6.86,2.44,2.43,2.44
59.76,-3.93,-6.31,-3.92,-6.29,6.29,7.06,6.76,2.36,2.37,2.38
60.35,-3.80,-6.10,-3.78,-6.08,6.08,6.95,6.65,2.28,2.30,2.30
60.96,-3.66,-5.90,-3.63,-5.86,5.86,6.84,6.54,2.20,2.24,2.24
61.57,-3.52,-5.69,-3.49,-5.66,5.66,6.73,6.43,2.14,2.17,2.17
62.18,-3.38,-5.48,-3.36,-5.47,5.47,6.63,6.32,2.09,2.11,2.10
62.80,-3.23,-5.28,-3.24,-5.29,5.29,6.52,6.22,2.07,2.05,2.05
63.43,-3.09,-5.08,-3.13,-5.13,5.13,6.42,6.11,2.04,1.99,1.99
64.07,-2.96,-4.90,-3.04,-4.98,4.98,6.32,6.01,2.02,1.94,1.94
64.71,-2.92,-4.80,-2.95,-4.84,4.84,6.21,5.90,1.92,1.89,1.88
65.35,-2.85,-4.68,-2.88,-4.72,4.72,6.11,5.79,1.87,1.84,1.83
66.01,-2.74,-4.53,-2.82,-4.61,4.61,6.01,5.69,1.87,1.79,1.79
66.67,-2.74,-4.48,-2.76,-4.51,4.51,5.91,5.58,1.77,1.75,1.74
67.33,-2.74,-4.45,-2.73,-4.44,4.44,5.81,5.48,1.70,1.71,1.71
68.01,-2.74,-4.41,-2.71,-4.38,4.38,5.72,5.38,1.64,1.67,1.67
68.69,-2.74,-4.37,-2.69,-4.32,4.32,5.62,5.27,1.58,1.63,1.63
69.37,-2.74,-4.34,-2.68,-4.28,4.28,5.52,5.17,1.54,1.60,1.60
70.07,-2.74,-4.30,-2.69,-4.25,4.25,5.43,5.07,1.51,1.56,1.56
70.77,-2.74,-4.28,-2.70,-4.22,4.22,5.33,4.96,1.48,1.52,1.54
71.48,-2.74,-4.24,-2.73,-4.21,4.21,5.24,4.86,1.47,1.49,1.50
72.19,-2.74,-4.20,-2.77,-4.22,4.22,5.14,4.76,1.48,1.45,1.46
72.91,-2.74,-4.16,-2.84,-4.26,4.26,5.05,4.66,1.52,1.42,1.42
73.64,-2.88,-4.27,-2.93,-4.31,4.31,4.96,4.56,1.43,1.38,1.39
74.38,-2.96,-4.31,-3.04,-4.38,4.38,4.87,4.46,1.42,1.34,1.35
75.12,-2.97,-4.27,-3.17,-4.47,4.47,4.78,4.36,1.50,1.30,1.30
75.87,-3.02,-4.29,-3.28,-4.55,4.55,4.69,4.27,1.53,1.27,1.27
76.63,-3.25,-4.48,-3.36,-4.60,4.60,4.60,4.17,1.35,1.24,1.23
77.40,-3.41,-4.61,-3.42,-4.63,4.63,4.51,4.08,1.22,1.20,1.20
78.17,-3.54,-4.70,-3.48,-4.65,4.65,4.43,3.98,1.11,1.17,1.16
78.95,-3.80,-4.94,-3.52,-4.66,4.66,4.34,3.89,0.86,1.14,1.14
79.74,-3.86,-4.98,-3.54,-4.65,4.65,4.25,3.80,0.79,1.12,1.12
80.54,-3.87,-4.95,-3.53,-4.62,4.62,4.17,3.71,0.75,1.09,1.08
81.35,-3.82,-4.88,-3.49,-4.56,4.56,4.08,3.62,0.74,1.07,1.06
82.16,-3.65,-4.70,-3.42,-4.47,4.47,4.00,3.53,0.82,1.05,1.05
82.98,-3.22,-4.26,-3.33,-4.37,4.37,3.92,3.44,1.15,1.04,1.04
83.81,-2.78,-3.80,-3.22,-4.25,4.25,3.84,3.35,1.47,1.03,1.02
84.65,-2.75,-3.76,-3.08,-4.10,4.10,3.76,3.27,1.35,1.02,1.01
85.50,-2.81,-3.82,-2.92,-3.93,3.93,3.68,3.18,1.12,1.01,1.01
86.35,-2.80,-3.80,-2.75,-3.75,3.75,3.60,3.10,0.95,1.00,1.00
87.22,-2.68,-3.67,-2.57,-3.57,3.57,3.52,3.02,0.88,0.99,0.99
88.09,-2.43,-3.41,-2.39,-3.37,3.37,3.44,2.94,0.94,0.98,0.98
88.97,-2.17,-3.16,-2.22,-3.19,3.19,3.36,2.86,1.02,0.98,0.99
89.86,-2.07,-3.05,-2.07,-3.04,3.04,3.28,2.78,0.97,0.97,0.98
90.76,-2.03,-2.98,-1.94,-2.89,2.89,3.21,2.70,0.86,0.95,0.95
91.66,-1.89,-2.84,-1.82,-2.76,2.76,3.13,2.62,0.87,0.94,0.95
92.58,-1.74,-2.66,-1.72,-2.64,2.64,3.06,2.54,0.90,0.92,0.92
93.51,-1.55,-2.46,-1.61,-2.51,2.51,2.99,2.47,0.96,0.90,0.91
94.44,-1.39,-2.28,-1.48,-2.36,2.36,2.91,2.39,0.97,0.88,0.89
95.39,-1.27,-2.13,-1.35,-2.21,2.21,2.84,2.32,0.94,0.85,0.86
96.34,-1.14,-1.96,-1.24,-2.07,2.07,2.77,2.24,0.93,0.83,0.82
97.30,-1.14,-1.93,-1.15,-1.95,1.95,2.70,2.17,0.81,0.80,0.79
98.28,-1.14,-1.89,-1.07,-1.83,1.83,2.63,2.10,0.69,0.76,0.75
99.26,-1.08,-1.80,-1.00,-1.72,1.72,2.56,2.03,0.64,0.72,0.72
100.25,-0.92,-1.60,-0.93,-1.61,1.61,2.49,1.96,0.69,0.68,0.68
101.25,-0.91,-1.54,-0.87,-1.50,1.50,2.42,1.89,0.59,0.63,0.63
102.27,-0.88,-1.47,-0.82,-1.40,1.40,2.35,1.82,0.52,0.58,0.59
103.29,-0.76,-1.29,-0.78,-1.31,1.31,2.29,1.76,0.55,0.53,0.53
104.32,-0.68,-1.16,-0.76,-1.22,1.22,2.22,1.69,0.54,0.47,0.48
105.37,-0.68,-1.10,-0.73,-1.14,1.14,2.15,1.63,0.46,0.40,0.42
106.42,-0.68,-1.03,-0.70,-1.04,1.04,2.09,1.56,0.36,0.34,0.35
107.48,-0.68,-0.96,-0.67,-0.94,0.94,2.03,1.50,0.26,0.27,0.28
108.56,-0.68,-0.87,-0.64,-0.83,0.83,1.96,1.44,0.15,0.19,0.19
109.64,-0.68,-0.79,-0.62,-0.73,0.73,1.90,1.38,0.05,0.11,0.11
110.74,-0.68,-0.71,-0.61,-0.64,0.64,1.84,1.32,-0.04,0.03,0.03
111.85,-0.68,-0.64,-0.62,-0.57,0.57,1.78,1.26,-0.11,-0.05,-0.04
112.97,-0.68,-0.54,-0.64,-0.51,0.51,1.72,1.21,-0.17,-0.14,-0.14
114.10,-0.68,-0.46,-0.69,-0.47,0.47,1.66,1.15,-0.21,-0.22,-0.22
115.24,-0.68,-0.38,-0.75,-0.45,0.45,1.60,1.10,-0.23,-0.30,-0.30
116.39,-0.68,-0.29,-0.80,-0.43,0.43,1.54,1.05,-0.25,-0.37,-0.39
117.55,-0.70,-0.24,-0.87,-0.43,0.43,1.48,1.00,-0.27,-0.45,-0.46
118.73,-0.86,-0.32,-0.95,-0.44,0.44,1.42,0.95,-0.42,-0.51,-0.54
119.92,-0.92,-0.33,-1.04,-0.46,0.46,1.37,0.90,-0.46,-0.58,-0.59
121.12,-1.15,-0.49,-1.14,-0.50,0.50,1.31,0.86,-0.65,-0.64,-0.66
122.33,-1.29,-0.58,-1.23,-0.54,0.54,1.25,0.81,-0.75,-0.70,-0.71
123.55,-1.47,-0.73,-1.33,-0.59,0.59,1.20,0.77,-0.88,-0.75,-0.74
124.79,-1.59,-0.79,-1.43,-0.63,0.63,1.15,0.73,-0.96,-0.80,-0.80
126.03,-1.60,-0.76,-1.52,-0.68,0.68,1.09,0.70,-0.92,-0.84,-0.84
127.29,-1.60,-0.72,-1.61,-0.72,0.72,1.04,0.66,-0.88,-0.89,-0.88
128.57,-1.65,-0.72,-1.68,-0.75,0.75,0.99,0.63,-0.90,-0.93,-0.93
129.85,-1.80,-0.83,-1.74,-0.77,0.77,0.94,0.59,-1.03,-0.97,-0.97
131.15,-1.82,-0.82,-1.78,-0.77,0.77,0.88,0.56,-1.05,-1.01,-1.00
132.46,-1.82,-0.77,-1.80,-0.74,0.74,0.83,0.53,-1.08,-1.05,-1.05
133.79,-1.82,-0.73,-1.81,-0.71,0.71,0.78,0.50,-1.11,-1.10,-1.09
135.12,-1.82,-0.68,-1.82,-0.68,0.68,0.74,0.48,-1.14,-1.14,-1.14
136.48,-1.82,-0.64,-1.83,-0.65,0.65,0.69,0.45,-1.17,-1.18,-1.18
137.84,-1.82,-0.60,-1.84,-0.61,0.61,0.64,0.43,-1.21,-1.23,-1.22
139.22,-1.82,-0.53,-1.85,-0.58,0.58,0.59,0.40,-1.24,-1.27,-1.29
140.61,-1.82,-0.48,-1.87,-0.55,0.55,0.55,0.38,-1.27,-1.32,-1.34
142.02,-1.82,-0.45,-1.89,-0.52,0.52,0.50,0.36,-1.30,-1.37,-1.37
143.44,-1.82,-0.40,-1.90,-0.48,0.48,0.46,0.34,-1.34,-1.42,-1.42
144.87,-1.82,-0.35,-1.91,-0.42,0.42,0.41,0.32,-1.40,-1.48,-1.47
146.32,-1.97,-0.44,-1.91,-0.37,0.37,0.37,0.30,-1.60,-1.54,-1.53
147.78,-2.05,-0.47,-1.92,-0.31,0.31,0.32,0.28,-1.74,-1.61,-1.58
149.26,-2.05,-0.40,-1.93,-0.24,0.24,0.28,0.26,-1.81,-1.68,-1.65
150.75,-2.05,-0.31,-1.94,-0.18,0.18,0.24,0.24,-1.87,-1.76,-1.74
152.26,-2.05,-0.24,-1.97,-0.14,0.14,0.20,0.23,-1.91,-1.83,-1.81
153.78,-2.05,-0.15,-2.02,-0.11,0.11,0.16,0.21,-1.94,-1.91,-1.90
155.32,-2.05,-0.05,-2.09,-0.10,0.10,0.11,0.19,-1.95,-1.99,-2.00
156.88,-2.05,0.03,-2.17,-0.10,0.10,0.08,0.17,-1.95,-2.07,-2.08
158.44,-2.05,0.11,-2.26,-0.12,0.12,0.04,0.16,-1.94,-2.15,-2.16
160.03,-2.11,0.13,-2.36,-0.14,0.14,-0.00,0.14,-1.97,-2.22,-2.24
161.63,-2.25,0.06,-2.45,-0.17,0.17,-0.04,0.12,-2.08,-2.28,-2.31
163.24,-2.44,-0.08,-2.55,-0.21,0.21,-0.08,0.11,-2.23,-2.34,-2.37
164.88,-2.67,-0.26,-2.65,-0.26,0.26,-0.12,0.09,-2.41,-2.39,-2.41
166.53,-2.93,-0.47,-2.76,-0.33,0.33,-0.15,0.07,-2.60,-2.44,-2.46
168.19,-3.12,-0.63,-2.87,-0.40,0.40,-0.19,0.05,-2.72,-2.47,-2.49
169.87,-3.19,-0.67,-2.96,-0.47,0.47,-0.22,0.03,-2.72,-2.49,-2.52
171.57,-3.19,-0.66,-3.05,-0.54,0.54,-0.26,0.02,-2.65,-2.51,-2.53
173.29,-3.19,-0.66,-3.13,-0.60,0.60,-0.29,-0.00,-2.59,-2.52,-2.53
175.02,-3.19,-0.67,-3.18,-0.65,0.65,-0.33,-0.02,-2.54,-2.53,-2.52
176.77,-3.19,-0.66,-3.21,-0.68,0.68,-0.36,-0.04,-2.51,-2.54,-2.53
178.54,-3.19,-0.66,-3.23,-0.69,0.69,-0.39,-0.06,-2.50,-2.54,-2.53
180.32,-3.19,-0.66,-3.24,-0.69,0.69,-0.42,-0.08,-2.50,-2.55,-2.53
182.13,-3.19,-0.66,-3.23,-0.68,0.68,-0.46,-0.10,-2.51,-2.56,-2.53
183.95,-3.19,-0.65,-3.22,-0.66,0.66,-0.49,-0.12,-2.53,-2.56,-2.54
185.79,-3.19,-0.64,-3.22,-0.64,0.64,-0.52,-0.14,-2.55,-2.57,-2.55
187.65,-3.19,-0.61,-3.22,-0.64,0.64,-0.55,-0.16,-2.55,-2.59,-2.58
189.52,-3.19,-0.59,-3.24,-0.64,0.64,-0.58,-0.19,-2.55,-2.60,-2.60
191.42,-3.19,-0.56,-3.26,-0.64,0.64,-0.61,-0.21,-2.55,-2.62,-2.63
193.33,-3.19,-0.54,-3.28,-0.64,0.64,-0.63,-0.23,-2.55,-2.64,-2.65
195.27,-3.29,-0.63,-3.30,-0.64,0.64,-0.66,-0.25,-2.65,-2.66,-2.66
197.22,-3.39,-0.71,-3.32,-0.64,0.64,-0.69,-0.28,-2.75,-2.68,-2.68
199.19,-3.42,-0.70,-3.34,-0.64,0.64,-0.72,-0.30,-2.78,-2.71,-2.72
201.18,-3.42,-0.69,-3.37,-0.63,0.63,-0.74,-0.32,-2.79,-2.73,-2.73
203.19,-3.42,-0.67,-3.39,-0.63,0.63,-0.77,-0.35,-2.79,-2.76,-2.75
205.23,-3.42,-0.64,-3.40,-0.63,0.63,-0.79,-0.37,-2.79,-2.78,-2.78
207.28,-3.42,-0.63,-3.42,-0.62,0.62,-0.82,-0.40,-2.80,-2.80,-2.79
209.35,-3.42,-0.60,-3.43,-0.61,0.61,-0.84,-0.42,-2.81,-2.82,-2.82
211.44,-3.42,-0.57,-3.44,-0.60,0.60,-0.87,-0.44,-2.82,-2.83,-2.85
213.56,-3.42,-0.57,-3.44,-0.59,0.59,-0.89,-0.47,-2.83,-2.85,-2.85
215.69,-3.42,-0.56,-3.45,-0.58,0.58,-0.91,-0.49,-2.84,-2.87,-2.86
217.85,-3.42,-0.54,-3.45,-0.56,0.56,-0.94,-0.52,-2.86,-2.89,-2.88
220.03,-3.42,-0.52,-3.45,-0.55,0.55,-0.96,-0.54,-2.87,-2.90,-2.90
222.23,-3.42,-0.50,-3.45,-0.53,0.53,-0.98,-0.56,-2.89,-2.91,-2.92
224.45,-3.42,-0.49,-3.45,-0.52,0.52,-1.00,-0.59,-2.90,-2.93,-2.93
226.70,-3.42,-0.49,-3.44,-0.51,0.51,-1.02,-0.61,-2.91,-2.94,-2.93
228.96,-3.42,-0.48,-3.43,-0.48,0.48,-1.04,-0.63,-2.94,-2.95,-2.94
231.25,-3.42,-0.47,-3.41,-0.45,0.45,-1.06,-0.65,-2.97,-2.95,-2.95
233.57,-3.42,-0.46,-3.38,-0.42,0.42,-1.08,-0.68,-3.00,-2.96,-2.96
235.90,-3.42,-0.45,-3.34,-0.38,0.38,-1.10,-0.70,-3.04,-2.96,-2.97
238.26,-3.31,-0.34,-3.28,-0.32,0.32,-1.12,-0.72,-2.99,-2.97,-2.97
240.64,-3.21,-0.24,-3.21,-0.24,0.24,-1.14,-0.74,-2.97,-2.97,-2.97
243.05,-3.19,-0.23,-3.12,-0.16,0.16,-1.16,-0.75,-3.03,-2.97,-2.96
245.48,-3.03,-0.07,-3.02,-0.06,0.06,-1.17,-0.77,-2.97,-2.96,-2.96
247.93,-2.96,-0.01,-2.92,0.04,-0.04,-1.19,-0.79,-3.00,-2.96,-2.95
250.41,-2.78,0.18,-2.80,0.16,-0.16,-1.21,-0.81,-2.94,-2.96,-2.96
252.92,-2.69,0.26,-2.67,0.29,-0.29,-1.22,-0.82,-2.98,-2.95,-2.95
255.45,-2.54,0.39,-2.52,0.42,-0.42,-1.24,-0.84,-2.96,-2.95,-2.93
258.00,-2.37,0.56,-2.38,0.56,-0.56,-1.25,-0.85,-2.93,-2.94,-2.93
260.58,-2.14,0.79,-2.22,0.71,-0.71,-1.27,-0.86,-2.85,-2.93,-2.93
263.19,-2.05,0.87,-2.06,0.86,-0.86,-1.28,-0.88,-2.91,-2.92,-2.92
265.82,-1.85,1.06,-1.90,1.00,-1.00,-1.30,-0.89,-2.85,-2.90,-2.91
268.48,-1.77,1.12,-1.75,1.14,-1.14,-1.31,-0.90,-2.91,-2.89,-2.89
271.16,-1.64,1.24,-1.59,1.28,-1.28,-1.32,-0.91,-2.92,-2.87,-2.88
273.87,-1.51,1.35,-1.44,1.41,-1.41,-1.34,-0.92,-2.92,-2.85,-2.86
276.61,-1.26,1.57,-1.29,1.54,-1.54,-1.35,-0.94,-2.80,-2.83,-2.83
279.38,-1.16,1.66,-1.15,1.66,-1.66,-1.36,-0.95,-2.82,-2.81,-2.82
282.17,-0.97,1.82,-1.02,1.77,-1.77,-1.37,-0.96,-2.74,-2.79,-2.79
284.99,-0.86,1.91,-0.89,1.87,-1.87,-1.38,-0.97,-2.73,-2.77,-2.77
287.84,-0.69,2.05,-0.78,1.96,-1.96,-1.40,-0.98,-2.65,-2.74,-2.74
290.72,-0.68,2.03,-0.67,2.04,-2.04,-1.41,-0.99,-2.72,-2.71,-2.71
293.63,-0.57,2.12,-0.56,2.12,-2.12,-1.42,-1.00,-2.69,-2.69,-2.69
296.57,-0.47,2.19,-0.46,2.20,-2.20,-1.43,-1.01,-2.67,-2.66,-2.66
299.53,-0.29,2.35,-0.35,2.29,-2.29,-1.44,-1.02,-2.58,-2.64,-2.63
302.53,-0.23,2.39,-0.26,2.36,-2.36,-1.45,-1.04,-2.59,-2.62,-2.62
305.55,-0.23,2.35,-0.17,2.43,-2.43,-1.46,-1.05,-2.66,-2.60,-2.58
308.61,-0.17,2.40,-0.09,2.49,-2.49,-1.46,-1.06,-2.66,-2.58,-2.57
311.69,-0.02,2.53,-0.00,2.56,-2.56,-1.47,-1.08,-2.58,-2.57,-2.55
314.81,0.00,2.53,0.08,2.63,-2.63,-1.48,-1.09,-2.63,-2.55,-2.53
317.96,0.14,2.67,0.17,2.71,-2.71,-1.49,-1.11,-2.57,-2.54,-2.53
321.14,0.23,2.76,0.26,2.79,-2.79,-1.50,-1.12,-2.56,-2.53,-2.53
324.35,0.41,2.94,0.34,2.87,-2.87,-1.50,-1.14,-2.46,-2.52,-2.53
327.59,0.46,2.98,0.42,2.93,-2.93,-1.51,-1.16,-2.47,-2.51,-2.52
330.87,0.46,2.97,0.48,2.99,-2.99,-1.52,-1.18,-2.53,-2.50,-2.51
334.18,0.46,2.97,0.53,3.02,-3.02,-1.52,-1.20,-2.56,-2.49,-2.51
337.52,0.59,3.09,0.57,3.05,-3.05,-1.53,-1.22,-2.46,-2.48,-2.50
340.90,0.66,3.13,0.59,3.07,-3.07,-1.53,-1.24,-2.41,-2.47,-2.47
344.30,0.68,3.15,0.61,3.06,-3.06,-1.54,-1.27,-2.38,-2.46,-2.47
347.75,0.68,3.13,0.60,3.04,-3.04,-1.54,-1.29,-2.36,-2.44,-2.45
351.23,0.68,3.10,0.58,3.00,-3.00,-1.55,-1.32,-2.32,-2.42,-2.42
354.74,0.58,2.98,0.54,2.94,-2.94,-1.55,-1.34,-2.36,-2.40,-2.40
358.28,0.48,2.86,0.49,2.87,-2.87,-1.56,-1.37,-2.39,-2.38,-2.38
361.87,0.46,2.82,0.44,2.80,-2.80,-1.56,-1.40,-2.34,-2.36,-2.36
365.49,0.29,2.62,0.38,2.72,-2.72,-1.56,-1.43,-2.43,-2.33,-2.33
369.14,0.24,2.55,0.32,2.63,-2.63,-1.57,-1.46,-2.39,-2.31,-2.31
372.83,0.23,2.52,0.24,2.53,-2.53,-1.57,-1.49,-2.30,-2.29,-2.29
376.56,0.23,2.50,0.16,2.43,-2.43,-1.57,-1.53,-2.20,-2.27,-2.27
380.33,0.14,2.38,0.09,2.34,-2.34,-1.58,-1.56,-2.20,-2.25,-2.24
384.13,0.03,2.25,0.04,2.27,-2.27,-1.58,-1.60,-2.24,-2.23,-2.22
387.97,0.00,2.21,0.01,2.23,-2.23,-1.58,-1.63,-2.23,-2.22,-2.21
391.85,0.00,2.20,0.01,2.22,-2.22,-1.58,-1.67,-2.22,-2.21,-2.20
395.77,0.00,2.20,0.03,2.23,-2.23,-1.58,-1.71,-2.23,-2.19,-2.20
399.73,-0.06,2.13,0.07,2.26,-2.26,-1.58,-1.75,-2.32,-2.18,-2.19
403.72,-0.10,2.08,0.11,2.29,-2.29,-1.58,-1.78,-2.39,-2.18,-2.18
407.76,-0.03,2.14,0.17,2.35,-2.35,-1.59,-1.82,-2.38,-2.17,-2.17
411.84,0.13,2.29,0.23,2.40,-2.40,-1.59,-1.86,-2.27,-2.17,-2.16
415.96,0.22,2.37,0.29,2.45,-2.45,-1.59,-1.90,-2.23,-2.16,-2.15
420.12,0.41,2.56,0.35,2.51,-2.51,-1.59,-1.94,-2.10,-2.16,-2.15
424.32,0.64,2.80,0.40,2.56,-2.56,-1.59,-1.98,-1.92,-2.16,-2.16
428.56,0.68,2.84,0.44,2.60,-2.60,-1.59,-2.02,-1.92,-2.16,-2.16
432.85,0.68,2.84,0.46,2.61,-2.61,-1.58,-2.05,-1.93,-2.15,-2.16
437.18,0.58,2.73,0.47,2.62,-2.62,-1.58,-2.09,-2.04,-2.15,-2.15
