frequency,raw,error,smoothed,error_smoothed,equalization,parametric_eq,fixed_band_eq,equalized_raw,equalized_smoothed,target
20.00,19.76,13.42,19.72,13.36,-13.36,-13.62,-6.52,6.41,6.37,6.35
20.20,19.81,13.47,19.79,13.43,-13.43,-13.67,-6.67,6.38,6.36,6.35
20.40,19.84,13.50,19.85,13.50,-13.50,-13.71,-6.83,6.35,6.35,6.34
20.61,19.88,13.54,19.90,13.56,-13.56,-13.75,-6.99,6.32,6.34,6.34
20.81,19.93,13.59,19.95,13.62,-13.62,-13.79,-7.15,6.31,6.33,6.34
21.02,19.97,13.63,20.00,13.68,-13.68,-13.82,-7.32,6.29,6.32,6.34
21.23,20.02,13.70,20.05,13.74,-13.74,-13.85,-7.49,6.28,6.31,6.32
21.44,20.06,13.75,20.08,13.79,-13.79,-13.87,-7.67,6.27,6.29,6.31
21.66,20.11,13.82,20.12,13.84,-13.84,-13.90,-7.85,6.27,6.28,6.29
21.87,20.15,13.88,20.15,13.89,-13.89,-13.92,-8.04,6.26,6.26,6.27
22.09,20.20,13.94,20.18,13.93,-13.93,-13.93,-8.23,6.27,6.25,6.26
22.31,20.22,13.99,20.20,13.97,-13.97,-13.95,-8.43,6.25,6.23,6.23
22.54,20.24,14.03,20.23,14.02,-14.02,-13.96,-8.63,6.22,6.21,6.21
22.76,20.26,14.07,20.25,14.06,-14.06,-13.97,-8.84,6.20,6.19,6.19
22.99,20.26,14.10,20.26,14.10,-14.10,-13.97,-9.05,6.16,6.16,6.16
23.22,20.26,14.13,20.27,14.13,-14.13,-13.97,-9.27,6.13,6.14,6.13
23.45,20.26,14.16,20.27,14.15,-14.15,-13.97,-9.49,6.11,6.12,6.11
23.69,20.25,14.16,20.27,14.17,-14.17,-13.96,-9.72,6.08,6.10,6.10
23.92,20.25,14.18,20.26,14.18,-14.18,-13.95,-9.95,6.07,6.08,6.07
24.16,20.25,14.19,20.25,14.19,-14.19,-13.94,-10.19,6.06,6.06,6.06
24.40,20.23,14.19,20.22,14.18,-14.18,-13.92,-10.44,6.05,6.04,6.04
24.65,20.21,14.19,20.19,14.18,-14.18,-13.90,-10.69,6.04,6.02,6.02
24.89,20.19,14.19,20.16,14.16,-14.16,-13.88,-10.95,6.03,6.00,6.00
25.14,20.15,14.16,20.13,14.14,-14.14,-13.85,-11.21,6.01,5.98,5.99
25.39,20.10,14.13,20.09,14.12,-14.12,-13.83,-11.48,5.98,5.97,5.97
25.65,20.05,14.09,20.04,14.09,-14.09,-13.80,-11.76,5.96,5.95,5.96
25.91,19.99,14.07,20.00,14.06,-14.06,-13.76,-12.04,5.93,5.94,5.93
26.16,19.93,14.02,19.95,14.03,-14.03,-13.73,-12.32,5.90,5.92,5.92
26.43,19.87,13.97,19.90,14.00,-14.00,-13.69,-12.61,5.87,5.90,5.90
26.69,19.82,13.94,19.85,13.97,-13.97,-13.65,-12.90,5.86,5.89,5.88
26.96,19.77,13.90,19.80,13.93,-13.93,-13.60,-13.19,5.84,5.87,5.87
27.23,19.73,13.87,19.75,13.89,-13.89,-13.56,-13.48,5.84,5.86,5.86
27.50,19.68,13.83,19.70,13.86,-13.86,-13.51,-13.77,5.83,5.84,5.85
27.77,19.64,13.81,19.64,13.81,-13.81,-13.46,-14.06,5.83,5.83,5.83
28.05,19.60,13.79,19.59,13.77,-13.77,-13.40,-14.34,5.83,5.81,5.82
28.33,19.54,13.75,19.53,13.73,-13.73,-13.35,-14.62,5.81,5.80,5.79
28.62,19.48,13.70,19.46,13.68,-13.68,-13.29,-14.89,5.81,5.79,5.78
28.90,19.41,13.64,19.39,13.62,-13.62,-13.24,-15.14,5.79,5.77,5.77
29.19,19.33,13.58,19.32,13.56,-13.56,-13.18,-15.38,5.77,5.76,5.75
29.48,19.25,13.50,19.24,13.49,-13.49,-13.12,-15.59,5.76,5.75,5.75
29.78,19.16,13.43,19.15,13.42,-13.42,-13.05,-15.79,5.75,5.73,5.74
30.08,19.06,13.34,19.05,13.34,-13.34,-12.99,-15.95,5.73,5.72,5.72
30.38,18.95,13.25,18.95,13.25,-13.25,-12.92,-16.09,5.70,5.70,5.70
30.68,18.84,13.15,18.85,13.16,-13.16,-12.86,-16.19,5.68,5.68,5.69
30.99,18.73,13.07,18.74,13.07,-13.07,-12.79,-16.26,5.67,5.67,5.67
31.30,18.61,12.96,18.62,12.97,-12.97,-12.72,-16.29,5.64,5.65,5.65
31.61,18.49,12.85,18.50,12.87,-12.87,-12.65,-16.28,5.62,5.63,5.64
31.93,18.37,12.75,18.38,12.77,-12.77,-12.58,-16.24,5.60,5.62,5.62
32.24,18.24,12.65,18.26,12.67,-12.67,-12.51,-16.17,5.57,5.60,5.59
32.57,18.13,12.56,18.13,12.56,-12.56,-12.44,-16.06,5.57,5.58,5.57
32.89,18.00,12.44,18.00,12.45,-12.45,-12.37,-15.93,5.55,5.55,5.56
33.22,17.88,12.35,17.87,12.34,-12.34,-12.30,-15.77,5.54,5.53,5.53
33.55,17.74,12.23,17.73,12.22,-12.22,-12.22,-15.59,5.52,5.51,5.51
33.89,17.61,12.12,17.59,12.10,-12.10,-12.15,-15.39,5.51,5.49,5.49
34.23,17.47,12.00,17.45,11.98,-11.98,-12.08,-15.18,5.49,5.47,5.47
34.57,17.32,11.88,17.30,11.85,-11.85,-12.00,-14.96,5.47,5.45,5.44
34.92,17.17,11.75,17.15,11.73,-11.73,-11.93,-14.73,5.45,5.43,5.42
35.27,17.01,11.61,17.00,11.59,-11.59,-11.85,-14.50,5.42,5.40,5.41
35.62,16.85,11.47,16.84,11.46,-11.46,-11.78,-14.26,5.39,5.38,5.38
35.97,16.69,11.33,16.68,11.32,-11.32,-11.70,-14.03,5.37,5.36,5.36
36.33,16.54,11.20,16.53,11.19,-11.19,-11.63,-13.79,5.35,5.34,5.34
36.70,16.38,11.06,16.37,11.05,-11.05,-11.55,-13.56,5.33,5.32,5.32
37.06,16.24,10.94,16.22,10.92,-10.92,-11.48,-13.33,5.32,5.30,5.30
37.43,16.10,10.82,16.08,10.81,-10.81,-11.40,-13.10,5.29,5.28,5.28
37.81,15.96,10.71,15.96,10.70,-10.70,-11.33,-12.88,5.26,5.25,5.26
38.19,15.84,10.61,15.85,10.62,-10.62,-11.26,-12.67,5.23,5.23,5.23
38.57,15.72,10.51,15.76,10.55,-10.55,-11.18,-12.46,5.17,5.21,5.22
38.95,15.62,10.43,15.69,10.50,-10.50,-11.11,-12.26,5.12,5.19,5.19
39.34,15.55,10.39,15.64,10.47,-10.47,-11.03,-12.06,5.08,5.17,5.16
39.74,15.51,10.37,15.61,10.46,-10.46,-10.96,-11.87,5.05,5.15,5.14
40.14,15.51,10.38,15.60,10.47,-10.47,-10.89,-11.69,5.04,5.13,5.13
40.54,15.53,10.43,15.61,10.50,-10.50,-10.82,-11.51,5.03,5.11,5.11
40.94,15.59,10.50,15.63,10.54,-10.54,-10.74,-11.35,5.06,5.09,5.09
41.35,15.64,10.58,15.65,10.58,-10.58,-10.67,-11.19,5.06,5.07,5.06
41.76,15.71,10.66,15.68,10.63,-10.63,-10.60,-11.03,5.08,5.05,5.05
42.18,15.77,10.73,15.71,10.68,-10.68,-10.53,-10.89,5.09,5.03,5.04
42.60,15.81,10.80,15.73,10.72,-10.72,-10.46,-10.75,5.09,5.01,5.01
43.03,15.83,10.83,15.75,10.76,-10.76,-10.39,-10.62,5.07,4.99,5.00
43.46,15.83,10.86,15.75,10.79,-10.79,-10.32,-10.49,5.04,4.97,4.97
43.90,15.81,10.87,15.75,10.80,-10.80,-10.25,-10.37,5.01,4.95,4.94
44.33,15.76,10.84,15.72,10.79,-10.79,-10.18,-10.26,4.97,4.93,4.92
44.78,15.69,10.79,15.68,10.77,-10.77,-10.12,-10.16,4.92,4.91,4.91
45.23,15.62,10.75,15.62,10.73,-10.73,-10.05,-10.06,4.89,4.89,4.88
45.68,15.53,10.68,15.55,10.68,-10.68,-9.98,-9.97,4.85,4.86,4.86
46.13,15.45,10.62,15.46,10.62,-10.62,-9.92,-9.88,4.83,4.84,4.84
46.60,15.36,10.54,15.37,10.55,-10.55,-9.85,-9.80,4.81,4.82,4.82
47.06,15.26,10.46,15.27,10.47,-10.47,-9.79,-9.72,4.79,4.80,4.80
47.53,15.16,10.38,15.17,10.40,-10.40,-9.72,-9.66,4.77,4.77,4.78
48.01,15.05,10.28,15.07,10.31,-10.31,-9.66,-9.59,4.74,4.75,4.77
48.49,14.94,10.20,14.96,10.23,-10.23,-9.60,-9.54,4.71,4.73,4.74
48.97,14.84,10.14,14.86,10.15,-10.15,-9.53,-9.48,4.69,4.70,4.70
49.46,14.74,10.07,14.75,10.07,-10.07,-9.47,-9.43,4.67,4.68,4.67
49.96,14.64,10.01,14.65,10.00,-10.00,-9.41,-9.39,4.65,4.66,4.64
50.46,14.54,9.91,14.55,9.92,-9.92,-9.35,-9.35,4.62,4.63,4.63
50.96,14.44,9.83,14.45,9.84,-9.84,-9.29,-9.32,4.60,4.60,4.61
51.47,14.34,9.77,14.34,9.76,-9.76,-9.23,-9.29,4.58,4.58,4.57
51.99,14.24,9.70,14.24,9.69,-9.69,-9.18,-9.26,4.55,4.55,4.55
52.51,14.14,9.61,14.13,9.61,-9.61,-9.12,-9.23,4.53,4.52,4.53
53.03,14.04,9.54,14.03,9.53,-9.53,-9.06,-9.21,4.51,4.50,4.50
53.56,13.94,9.47,13.93,9.46,-9.46,-9.01,-9.19,4.48,4.47,4.47
54.10,13.83,9.39,13.83,9.38,-9.38,-8.95,-9.17,4.45,4.44,4.45
54.64,13.72,9.30,13.72,9.30,-9.30,-8.90,-9.15,4.42,4.42,4.42
55.18,13.61,9.22,13.61,9.22,-9.22,-8.84,-9.14,4.39,4.39,4.39
55.74,13.50,9.14,13.50,9.14,-9.14,-8.79,-9.12,4.36,4.36,4.36
56.29,13.38,9.04,13.39,9.06,-9.06,-8.74,-9.10,4.32,4.34,4.34
56.86,13.28,8.98,13.29,8.98,-8.98,-8.69,-9.09,4.30,4.31,4.31
57.42,13.18,8.91,13.18,8.90,-8.90,-8.64,-9.07,4.28,4.28,4.27
58.00,13.09,8.84,13.07,8.82,-8.82,-8.59,-9.05,4.27,4.25,4.25
58.58,12.98,8.76,12.97,8.75,-8.75,-8.54,-9.02,4.23,4.22,4.22
59.16,12.87,8.68,12.87,8.68,-8.68,-8.49,-9.00,4.19,4.19,4.19
59.76,12.74,8.57,12.77,8.61,-8.61,-8.44,-8.97,4.14,4.16,4.17
60.35,12.65,8.52,12.67,8.54,-8.54,-8.39,-8.94,4.11,4.13,4.13
60.96,12.56,8.45,12.57,8.48,-8.48,-8.35,-8.90,4.08,4.10,4.11
61.57,12.48,8.41,12.48,8.42,-8.42,-8.30,-8.87,4.07,4.07,4.07
62.18,12.39,8.36,12.39,8.36,-8.36,-8.26,-8.82,4.03,4.03,4.03
62.80,12.30,8.30,12.31,8.30,-8.30,-8.21,-8.78,4.00,4.00,4.00
63.43,12.22,8.26,12.22,8.25,-8.25,-8.17,-8.72,3.97,3.97,3.96
64.07,12.14,8.21,12.14,8.20,-8.20,-8.13,-8.67,3.94,3.94,3.93
64.71,12.07,8.16,12.06,8.16,-8.16,-8.09,-8.61,3.92,3.91,3.91
65.35,11.99,8.12,11.99,8.11,-8.11,-8.04,-8.55,3.88,3.88,3.87
66.01,11.91,8.06,11.92,8.07,-8.07,-8.00,-8.48,3.84,3.85,3.85
66.67,11.84,8.03,11.85,8.03,-8.03,-7.96,-8.41,3.81,3.82,3.82
67.33,11.77,7.98,11.78,7.99,-7.99,-7.93,-8.34,3.78,3.79,3.79
68.01,11.70,7.95,11.70,7.95,-7.95,-7.89,-8.26,3.75,3.75,3.75
68.69,11.64,7.91,11.64,7.91,-7.91,-7.85,-8.18,3.73,3.72,3.73
69.37,11.57,7.88,11.57,7.88,-7.88,-7.81,-8.11,3.70,3.69,3.69
70.07,11.50,7.84,11.50,7.84,-7.84,-7.78,-8.03,3.66,3.66,3.66
70.77,11.43,7.80,11.43,7.80,-7.80,-7.74,-7.94,3.63,3.62,3.63
71.48,11.36,7.77,11.36,7.77,-7.77,-7.71,-7.86,3.59,3.59,3.59
72.19,11.28,7.73,11.29,7.74,-7.74,-7.67,-7.78,3.54,3.55,3.56
72.91,11.22,7.71,11.22,7.71,-7.71,-7.64,-7.70,3.52,3.51,3.51
73.64,11.15,7.68,11.14,7.67,-7.67,-7.61,-7.62,3.48,3.47,3.47
74.38,11.07,7.64,11.07,7.64,-7.64,-7.58,-7.54,3.43,3.43,3.43
75.12,11.00,7.62,11.00,7.61,-7.61,-7.55,-7.47,3.39,3.39,3.38
75.87,10.92,7.58,10.92,7.58,-7.58,-7.51,-7.39,3.34,3.34,3.34
76.63,10.84,7.54,10.85,7.55,-7.55,-7.49,-7.32,3.29,3.30,3.30
77.40,10.77,7.52,10.78,7.53,-7.53,-7.46,-7.25,3.25,3.25,3.25
78.17,10.70,7.51,10.70,7.50,-7.50,-7.43,-7.19,3.20,3.20,3.19
78.95,10.63,7.47,10.63,7.47,-7.47,-7.40,-7.13,3.16,3.15,3.16
79.74,10.55,7.44,10.55,7.45,-7.45,-7.37,-7.07,3.10,3.10,3.11
80.54,10.47,7.41,10.48,7.43,-7.43,-7.35,-7.01,3.04,3.05,3.06
81.35,10.40,7.40,10.40,7.40,-7.40,-7.32,-6.96,3.00,3.00,3.00
82.16,10.32,7.37,10.33,7.38,-7.38,-7.30,-6.91,2.95,2.95,2.95
82.98,10.24,7.34,10.25,7.35,-7.35,-7.27,-6.87,2.89,2.90,2.90
83.81,10.17,7.33,10.16,7.32,-7.32,-7.25,-6.83,2.85,2.84,2.84
84.65,10.08,7.30,10.08,7.29,-7.29,-7.22,-6.80,2.79,2.79,2.78
85.50,10.01,7.28,9.99,7.26,-7.26,-7.20,-6.77,2.75,2.73,2.73
86.35,9.92,7.25,9.90,7.23,-7.23,-7.18,-6.74,2.69,2.67,2.67
87.22,9.82,7.21,9.81,7.19,-7.19,-7.16,-6.72,2.63,2.61,2.61
88.09,9.72,7.17,9.71,7.16,-7.16,-7.14,-6.71,2.57,2.55,2.55
88.97,9.62,7.12,9.61,7.12,-7.12,-7.12,-6.69,2.50,2.50,2.50
89.86,9.51,7.07,9.51,7.08,-7.08,-7.10,-6.69,2.44,2.44,2.44
90.76,9.41,7.05,9.41,7.04,-7.04,-7.08,-6.68,2.37,2.37,2.37
91.66,9.31,7.00,9.31,7.00,-7.00,-7.06,-6.69,2.31,2.31,2.31
92.58,9.20,6.96,9.21,6.96,-6.96,-7.04,-6.69,2.24,2.25,2.24
93.51,9.11,6.92,9.12,6.93,-6.93,-7.02,-6.70,2.18,2.19,2.19
94.44,9.02,6.89,9.03,6.90,-6.90,-7.01,-6.72,2.12,2.12,2.13
95.39,8.93,6.87,8.94,6.88,-6.88,-6.99,-6.74,2.05,2.06,2.06
96.34,8.84,6.85,8.85,6.86,-6.86,-6.97,-6.76,1.98,1.99,1.99
97.30,8.75,6.83,8.78,6.85,-6.85,-6.96,-6.79,1.90,1.92,1.92
98.28,8.68,6.83,8.70,6.85,-6.85,-6.94,-6.82,1.83,1.85,1.86
99.26,8.62,6.84,8.64,6.85,-6.85,-6.93,-6.85,1.77,1.78,1.78
100.25,8.57,6.86,8.57,6.86,-6.86,-6.91,-6.89,1.71,1.71,1.71
101.25,8.51,6.87,8.51,6.87,-6.87,-6.90,-6.93,1.64,1.64,1.65
102.27,8.46,6.89,8.45,6.88,-6.88,-6.89,-6.97,1.58,1.57,1.57
103.29,8.40,6.91,8.40,6.90,-6.90,-6.88,-7.02,1.50,1.50,1.49
104.32,8.35,6.93,8.35,6.92,-6.92,-6.86,-7.07,1.43,1.42,1.42
105.37,8.31,6.96,8.30,6.95,-6.95,-6.85,-7.11,1.36,1.35,1.35
106.42,8.25,6.97,8.25,6.97,-6.97,-6.84,-7.16,1.28,1.27,1.28
107.48,8.19,6.99,8.20,7.00,-7.00,-6.83,-7.21,1.19,1.20,1.20
108.56,8.14,7.02,8.15,7.03,-7.03,-6.82,-7.26,1.12,1.12,1.12
109.64,8.09,7.05,8.09,7.05,-7.05,-6.81,-7.31,1.04,1.04,1.04
110.74,8.04,7.06,8.04,7.07,-7.07,-6.80,-7.36,0.97,0.97,0.98
111.85,7.98,7.08,7.98,7.09,-7.09,-6.79,-7.41,0.89,0.89,0.90
112.97,7.92,7.12,7.92,7.11,-7.11,-6.78,-7.45,0.81,0.81,0.80
114.10,7.86,7.13,7.86,7.13,-7.13,-6.77,-7.49,0.73,0.73,0.74
115.24,7.81,7.15,7.80,7.14,-7.14,-6.76,-7.53,0.67,0.66,0.66
116.39,7.74,7.17,7.73,7.15,-7.15,-6.75,-7.57,0.60,0.58,0.57
117.55,7.67,7.17,7.66,7.15,-7.15,-6.75,-7.60,0.52,0.51,0.50
118.73,7.59,7.17,7.58,7.15,-7.15,-6.74,-7.62,0.44,0.43,0.42
119.92,7.51,7.15,7.51,7.15,-7.15,-6.73,-7.64,0.36,0.36,0.36
121.12,7.43,7.15,7.43,7.14,-7.14,-6.72,-7.66,0.29,0.28,0.29
122.33,7.34,7.13,7.34,7.13,-7.13,-6.72,-7.66,0.21,0.21,0.21
123.55,7.26,7.11,7.26,7.12,-7.12,-6.71,-7.66,0.14,0.14,0.15
124.79,7.17,7.09,7.17,7.10,-7.10,-6.71,-7.66,0.07,0.07,0.08
126.03,7.08,7.07,7.09,7.08,-7.08,-6.70,-7.65,0.00,0.01,0.02
127.29,7.00,7.06,7.00,7.06,-7.06,-6.69,-7.63,-0.06,-0.06,-0.06
128.57,6.91,7.05,6.91,7.04,-7.04,-6.69,-7.60,-0.13,-0.13,-0.13
129.85,6.83,7.03,6.83,7.02,-7.02,-6.68,-7.57,-0.19,-0.19,-0.19
131.15,6.75,7.00,6.75,7.00,-7.00,-6.68,-7.53,-0.25,-0.25,-0.25
132.46,6.67,6.99,6.68,6.99,-6.99,-6.67,-7.49,-0.32,-0.31,-0.32
133.79,6.59,6.96,6.60,6.97,-6.97,-6.67,-7.44,-0.38,-0.37,-0.37
135.12,6.52,6.95,6.53,6.96,-6.96,-6.66,-7.39,-0.44,-0.42,-0.43
136.48,6.45,6.93,6.47,6.94,-6.94,-6.66,-7.33,-0.49,-0.48,-0.48
137.84,6.38,6.90,6.41,6.93,-6.93,-6.65,-7.27,-0.55,-0.53,-0.52
139.22,6.33,6.92,6.35,6.92,-6.92,-6.65,-7.21,-0.59,-0.57,-0.58
140.61,6.29,6.93,6.29,6.91,-6.91,-6.64,-7.14,-0.62,-0.62,-0.64
142.02,6.25,6.91,6.24,6.90,-6.90,-6.64,-7.07,-0.65,-0.66,-0.66
143.44,6.19,6.89,6.18,6.89,-6.89,-6.64,-7.00,-0.70,-0.70,-0.70
144.87,6.14,6.89,6.13,6.88,-6.88,-6.63,-6.93,-0.73,-0.74,-0.75
146.32,6.09,6.88,6.08,6.86,-6.86,-6.63,-6.86,-0.77,-0.78,-0.79
147.78,6.03,6.84,6.03,6.85,-6.85,-6.62,-6.79,-0.82,-0.82,-0.81
149.26,5.99,6.84,5.98,6.84,-6.84,-6.62,-6.72,-0.85,-0.86,-0.85
150.75,5.93,6.83,5.93,6.82,-6.82,-6.61,-6.65,-0.89,-0.89,-0.89
152.26,5.88,6.81,5.88,6.81,-6.81,-6.61,-6.58,-0.93,-0.93,-0.93
153.78,5.82,6.78,5.83,6.79,-6.79,-6.61,-6.52,-0.97,-0.96,-0.96
155.32,5.77,6.77,5.77,6.77,-6.77,-6.60,-6.46,-1.00,-1.00,-1.00
156.88,5.72,6.75,5.72,6.75,-6.75,-6.60,-6.40,-1.03,-1.03,-1.03
158.44,5.66,6.73,5.66,6.73,-6.73,-6.59,-6.34,-1.07,-1.07,-1.07
160.03,5.61,6.72,5.61,6.71,-6.71,-6.59,-6.29,-1.10,-1.10,-1.11
161.63,5.55,6.70,5.56,6.69,-6.69,-6.58,-6.24,-1.14,-1.14,-1.15
163.24,5.50,6.67,5.50,6.67,-6.67,-6.58,-6.19,-1.17,-1.17,-1.17
164.88,5.45,6.65,5.45,6.66,-6.66,-6.57,-6.15,-1.21,-1.21,-1.20
166.53,5.40,6.64,5.40,6.64,-6.64,-6.57,-6.11,-1.24,-1.24,-1.24
168.19,5.35,6.63,5.35,6.62,-6.62,-6.56,-6.07,-1.27,-1.28,-1.28
169.87,5.29,6.61,5.30,6.61,-6.61,-6.56,-6.04,-1.32,-1.31,-1.31
171.57,5.25,6.60,5.25,6.60,-6.60,-6.55,-6.02,-1.35,-1.35,-1.35
173.29,5.20,6.58,5.20,6.59,-6.59,-6.55,-6.00,-1.39,-1.39,-1.38
175.02,5.15,6.57,5.15,6.58,-6.58,-6.54,-5.98,-1.43,-1.43,-1.42
176.77,5.10,6.57,5.11,6.58,-6.58,-6.53,-5.97,-1.48,-1.47,-1.47
178.54,5.06,6.57,5.06,6.57,-6.57,-6.53,-5.96,-1.51,-1.51,-1.51
180.32,5.01,6.56,5.02,6.57,-6.57,-6.52,-5.95,-1.56,-1.55,-1.55
182.13,4.97,6.56,4.98,6.57,-6.57,-6.51,-5.95,-1.59,-1.59,-1.59
183.95,4.93,6.56,4.93,6.56,-6.56,-6.51,-5.96,-1.63,-1.63,-1.63
185.79,4.90,6.57,4.89,6.56,-6.56,-6.50,-5.97,-1.66,-1.67,-1.67
187.65,4.86,6.58,4.85,6.55,-6.55,-6.49,-5.98,-1.69,-1.71,-1.71
189.52,4.81,6.56,4.80,6.55,-6.55,-6.48,-6.00,-1.74,-1.74,-1.75
191.42,4.77,6.55,4.76,6.54,-6.54,-6.47,-6.02,-1.77,-1.78,-1.78
193.33,4.73,6.54,4.72,6.53,-6.53,-6.46,-6.04,-1.80,-1.81,-1.81
195.27,4.68,6.52,4.68,6.53,-6.53,-6.45,-6.07,-1.84,-1.85,-1.84
197.22,4.63,6.50,4.64,6.52,-6.52,-6.45,-6.10,-1.89,-1.88,-1.87
199.19,4.60,6.52,4.60,6.51,-6.51,-6.44,-6.14,-1.91,-1.91,-1.92
201.18,4.56,6.50,4.56,6.50,-6.50,-6.42,-6.17,-1.94,-1.94,-1.94
203.19,4.51,6.47,4.53,6.49,-6.49,-6.41,-6.21,-1.98,-1.96,-1.96
205.23,4.48,6.47,4.49,6.48,-6.48,-6.40,-6.26,-2.00,-1.99,-1.99
207.28,4.46,6.46,4.46,6.48,-6.48,-6.39,-6.30,-2.02,-2.01,-2.00
209.35,4.43,6.47,4.43,6.47,-6.47,-6.38,-6.34,-2.04,-2.04,-2.04
211.44,4.41,6.47,4.41,6.47,-6.47,-6.37,-6.39,-2.06,-2.06,-2.06
213.56,4.38,6.46,4.38,6.46,-6.46,-6.35,-6.44,-2.08,-2.08,-2.08
215.69,4.36,6.45,4.36,6.46,-6.46,-6.34,-6.48,-2.10,-2.09,-2.09
217.85,4.34,6.44,4.34,6.45,-6.45,-6.32,-6.53,-2.11,-2.11,-2.10
220.03,4.33,6.46,4.33,6.45,-6.45,-6.31,-6.57,-2.12,-2.12,-2.13
222.23,4.32,6.46,4.31,6.44,-6.44,-6.29,-6.61,-2.12,-2.13,-2.14
224.45,4.30,6.44,4.30,6.44,-6.44,-6.28,-6.65,-2.14,-2.14,-2.14
226.70,4.28,6.43,4.29,6.43,-6.43,-6.26,-6.69,-2.15,-2.14,-2.15
228.96,4.27,6.42,4.28,6.42,-6.42,-6.24,-6.72,-2.15,-2.15,-2.15
231.25,4.25,6.40,4.26,6.41,-6.41,-6.23,-6.75,-2.16,-2.15,-2.14
233.57,4.24,6.38,4.25,6.39,-6.39,-6.21,-6.78,-2.15,-2.14,-2.14
235.90,4.23,6.37,4.24,6.38,-6.38,-6.19,-6.80,-2.14,-2.14,-2.14
238.26,4.23,6.37,4.22,6.35,-6.35,-6.17,-6.81,-2.12,-2.13,-2.14
240.64,4.22,6.34,4.21,6.33,-6.33,-6.15,-6.81,-2.11,-2.12,-2.12
243.05,4.21,6.32,4.19,6.30,-6.30,-6.13,-6.81,-2.09,-2.11,-2.11
245.48,4.18,6.27,4.17,6.26,-6.26,-6.11,-6.80,-2.08,-2.09,-2.09
247.93,4.15,6.23,4.15,6.23,-6.23,-6.09,-6.79,-2.07,-2.08,-2.08
250.41,4.13,6.20,4.12,6.19,-6.19,-6.06,-6.76,-2.05,-2.06,-2.07
252.92,4.10,6.14,4.10,6.14,-6.14,-6.04,-6.73,-2.04,-2.04,-2.04
255.45,4.07,6.09,4.08,6.10,-6.10,-6.01,-6.69,-2.03,-2.02,-2.02
258.00,4.04,6.04,4.05,6.06,-6.06,-5.99,-6.64,-2.01,-2.00,-2.00
260.58,4.02,6.01,4.02,6.01,-6.01,-5.96,-6.59,-1.99,-1.98,-1.99
263.19,3.98,5.94,4.00,5.96,-5.96,-5.94,-6.53,-1.98,-1.96,-1.96
265.82,3.96,5.90,3.97,5.91,-5.91,-5.91,-6.46,-1.95,-1.94,-1.94
268.48,3.94,5.86,3.95,5.87,-5.87,-5.88,-6.39,-1.92,-1.92,-1.92
271.16,3.92,5.81,3.92,5.82,-5.82,-5.85,-6.31,-1.90,-1.89,-1.89
273.87,3.89,5.76,3.90,5.77,-5.77,-5.82,-6.22,-1.88,-1.87,-1.87
276.61,3.88,5.72,3.88,5.73,-5.73,-5.79,-6.13,-1.84,-1.85,-1.84
279.38,3.86,5.69,3.85,5.68,-5.68,-5.76,-6.04,-1.82,-1.82,-1.82
282.17,3.83,5.63,3.83,5.63,-5.63,-5.73,-5.94,-1.80,-1.80,-1.80
284.99,3.81,5.59,3.80,5.58,-5.58,-5.69,-5.84,-1.77,-1.78,-1.78
287.84,3.78,5.53,3.78,5.53,-5.53,-5.66,-5.74,-1.74,-1.75,-1.75
290.72,3.76,5.48,3.75,5.47,-5.47,-5.62,-5.63,-1.71,-1.72,-1.72
293.63,3.72,5.42,3.72,5.41,-5.41,-5.59,-5.53,-1.69,-1.69,-1.70
296.57,3.69,5.36,3.69,5.35,-5.35,-5.55,-5.42,-1.66,-1.67,-1.67
299.53,3.65,5.29,3.65,5.29,-5.29,-5.51,-5.31,-1.64,-1.64,-1.64
302.53,3.61,5.23,3.62,5.22,-5.22,-5.47,-5.21,-1.61,-1.61,-1.62
305.55,3.57,5.14,3.58,5.15,-5.15,-5.43,-5.10,-1.58,-1.58,-1.57
308.61,3.54,5.09,3.54,5.08,-5.08,-5.39,-5.00,-1.54,-1.54,-1.55
311.69,3.50,5.01,3.50,5.01,-5.01,-5.35,-4.90,-1.51,-1.51,-1.51
314.81,3.46,4.94,3.46,4.94,-4.94,-5.30,-4.79,-1.48,-1.48,-1.47
317.96,3.41,4.86,3.42,4.87,-4.87,-5.26,-4.69,-1.46,-1.45,-1.45
321.14,3.37,4.79,3.37,4.80,-4.80,-5.21,-4.60,-1.42,-1.42,-1.42
324.35,3.33,4.73,3.33,4.72,-4.72,-5.17,-4.50,-1.39,-1.39,-1.40
327.59,3.29,4.65,3.29,4.65,-4.65,-5.12,-4.41,-1.36,-1.36,-1.36
330.87,3.24,4.57,3.24,4.58,-4.58,-5.07,-4.32,-1.34,-1.34,-1.33
334.18,3.20,4.52,3.20,4.51,-4.51,-5.02,-4.23,-1.31,-1.31,-1.32
337.52,3.16,4.45,3.16,4.45,-4.45,-4.97,-4.14,-1.29,-1.29,-1.29
340.90,3.12,4.38,3.12,4.38,-4.38,-4.92,-4.06,-1.26,-1.27,-1.26
344.30,3.08,4.33,3.08,4.32,-4.32,-4.87,-3.98,-1.24,-1.24,-1.24
347.75,3.03,4.25,3.04,4.26,-4.26,-4.81,-3.90,-1.23,-1.22,-1.22
351.23,3.00,4.20,3.00,4.20,-4.20,-4.76,-3.83,-1.20,-1.20,-1.20
354.74,2.96,4.14,2.96,4.14,-4.14,-4.70,-3.75,-1.18,-1.18,-1.18
358.28,2.91,4.08,2.93,4.09,-4.09,-4.64,-3.69,-1.18,-1.16,-1.16
361.87,2.88,4.03,2.89,4.04,-4.04,-4.59,-3.62,-1.15,-1.14,-1.15
365.49,2.86,3.98,2.86,3.99,-3.99,-4.53,-3.56,-1.12,-1.12,-1.12
369.14,2.83,3.94,2.83,3.94,-3.94,-4.47,-3.50,-1.11,-1.11,-1.11
372.83,2.80,3.89,2.80,3.89,-3.89,-4.41,-3.44,-1.09,-1.09,-1.09
376.56,2.78,3.86,2.77,3.84,-3.84,-4.34,-3.38,-1.06,-1.07,-1.07
380.33,2.75,3.80,2.75,3.80,-3.80,-4.28,-3.33,-1.05,-1.05,-1.05
384.13,2.73,3.76,2.73,3.76,-3.76,-4.21,-3.28,-1.03,-1.03,-1.03
387.97,2.70,3.71,2.71,3.71,-3.71,-4.15,-3.23,-1.01,-1.01,-1.01
391.85,2.67,3.66,2.68,3.67,-3.67,-4.08,-3.19,-1.00,-0.99,-0.99
395.77,2.66,3.63,2.66,3.63,-3.63,-4.01,-3.15,-0.97,-0.97,-0.96
399.73,2.65,3.60,2.65,3.59,-3.59,-3.94,-3.10,-0.94,-0.95,-0.95
403.72,2.63,3.56,2.63,3.55,-3.55,-3.87,-3.07,-0.92,-0.93,-0.93
407.76,2.61,3.52,2.61,3.52,-3.52,-3.80,-3.03,-0.90,-0.91,-0.91
411.84,2.59,3.47,2.59,3.48,-3.48,-3.73,-2.99,-0.88,-0.88,-0.88
415.96,2.58,3.44,2.58,3.44,-3.44,-3.66,-2.96,-0.86,-0.86,-0.86
420.12,2.56,3.40,2.56,3.40,-3.40,-3.59,-2.93,-0.84,-0.84,-0.84
424.32,2.54,3.35,2.54,3.36,-3.36,-3.51,-2.90,-0.82,-0.82,-0.81
428.56,2.52,3.32,2.53,3.32,-3.32,-3.44,-2.87,-0.80,-0.79,-0.79
432.85,2.51,3.29,2.51,3.28,-3.28,-3.36,-2.84,-0.77,-0.77,-0.78
437.18,2.50,3.25,2.50,3.24,-3.24,-3.28,-2.81,-0.74,-0.75,-0.75
441.55,2.49,3.21,2.48,3.20,-3.20,-3.21,-2.78,-0.71,-0.72,-0.72
445.96,2.46,3.16,2.46,3.16,-3.16,-3.13,-2.75,-0.70,-0.70,-0.70
450.42,2.44,3.12,2.44,3.11,-3.11,-3.05,-2.73,-0.67,-0.67,-0.68
454.93,2.42,3.06,2.42,3.07,-3.07,-2.97,-2.70,-0.65,-0.64,-0.64
