frequency,raw,error,smoothed,error_smoothed,equalization,parametric_eq,fixed_band_eq,equalized_raw,equalized_smoothed,target
20.00,-2.90,-7.55,-2.90,-7.55,7.55,6.16,2.74,4.65,4.65,4.65
20.20,-2.86,-7.50,-2.86,-7.50,7.50,6.15,2.82,4.64,4.64,4.64
20.40,-2.81,-7.44,-2.81,-7.44,7.44,6.14,2.90,4.63,4.63,4.63
20.61,-2.77,-7.39,-2.77,-7.39,7.39,6.12,2.98,4.62,4.62,4.62
20.81,-2.73,-7.33,-2.73,-7.33,7.34,6.11,3.07,4.61,4.61,4.60
21.02,-2.69,-7.28,-2.69,-7.28,7.28,6.10,3.16,4.59,4.59,4.59
21.23,-2.64,-7.22,-2.64,-7.23,7.23,6.09,3.25,4.59,4.59,4.58
21.44,-2.60,-7.19,-2.60,-7.18,7.18,6.08,3.34,4.58,4.58,4.59
21.66,-2.55,-7.12,-2.55,-7.13,7.12,6.06,3.43,4.57,4.57,4.57
21.87,-2.51,-7.08,-2.51,-7.07,7.07,6.05,3.53,4.56,4.56,4.57
22.09,-2.46,-7.01,-2.46,-7.01,7.02,6.04,3.63,4.56,4.55,4.55
22.31,-2.42,-6.96,-2.42,-6.96,6.96,6.02,3.74,4.55,4.55,4.54
22.54,-2.38,-6.91,-2.38,-6.91,6.91,6.01,3.84,4.53,4.54,4.53
22.76,-2.33,-6.86,-2.33,-6.86,6.86,6.00,3.96,4.53,4.53,4.53
22.99,-2.29,-6.81,-2.29,-6.81,6.81,5.98,4.07,4.52,4.52,4.52
23.22,-2.25,-6.76,-2.25,-6.77,6.77,5.97,4.18,4.52,4.52,4.51
23.45,-2.21,-6.73,-2.21,-6.72,6.72,5.96,4.30,4.51,4.51,4.52
23.69,-2.17,-6.68,-2.17,-6.68,6.68,5.94,4.42,4.51,4.51,4.51
23.92,-2.12,-6.62,-2.12,-6.63,6.63,5.93,4.54,4.51,4.51,4.50
24.16,-2.08,-6.59,-2.08,-6.59,6.59,5.91,4.67,4.51,4.51,4.51
24.40,-2.04,-6.55,-2.04,-6.55,6.54,5.90,4.79,4.51,4.51,4.51
24.65,-2.00,-6.50,-2.00,-6.50,6.50,5.88,4.92,4.50,4.50,4.50
24.89,-1.96,-6.46,-1.96,-6.46,6.46,5.87,5.05,4.50,4.50,4.50
25.14,-1.92,-6.41,-1.92,-6.41,6.41,5.85,5.18,4.49,4.49,4.49
25.39,-1.88,-6.37,-1.88,-6.37,6.37,5.83,5.32,4.49,4.49,4.49
25.65,-1.84,-6.33,-1.84,-6.33,6.33,5.82,5.45,4.49,4.49,4.49
25.91,-1.79,-6.28,-1.79,-6.29,6.29,5.80,5.58,4.50,4.50,4.49
26.16,-1.75,-6.25,-1.75,-6.25,6.25,5.79,5.72,4.50,4.49,4.50
26.43,-1.72,-6.21,-1.72,-6.21,6.21,5.77,5.85,4.49,4.49,4.49
26.69,-1.68,-6.17,-1.68,-6.17,6.17,5.75,5.98,4.49,4.49,4.49
26.96,-1.64,-6.13,-1.64,-6.13,6.13,5.73,6.11,4.49,4.49,4.49
27.23,-1.60,-6.09,-1.60,-6.09,6.09,5.72,6.24,4.49,4.49,4.49
27.50,-1.56,-6.05,-1.56,-6.05,6.05,5.70,6.37,4.49,4.50,4.49
27.77,-1.52,-6.02,-1.52,-6.01,6.02,5.68,6.49,4.50,4.50,4.50
28.05,-1.48,-5.97,-1.48,-5.98,5.98,5.66,6.60,4.50,4.50,4.49
28.33,-1.45,-5.95,-1.45,-5.95,5.95,5.64,6.71,4.50,4.50,4.50
28.62,-1.41,-5.91,-1.41,-5.91,5.91,5.63,6.82,4.50,4.50,4.50
28.90,-1.37,-5.88,-1.37,-5.88,5.88,5.61,6.91,4.51,4.50,4.51
29.19,-1.34,-5.85,-1.34,-5.85,5.84,5.59,7.00,4.50,4.50,4.51
29.48,-1.31,-5.81,-1.30,-5.81,5.81,5.57,7.07,4.50,4.50,4.50
29.78,-1.27,-5.77,-1.27,-5.77,5.78,5.55,7.15,4.51,4.50,4.50
30.08,-1.24,-5.74,-1.24,-5.74,5.74,5.53,7.20,4.50,4.50,4.50
30.38,-1.22,-5.70,-1.22,-5.71,5.71,5.51,7.25,4.49,4.49,4.48
30.68,-1.20,-5.68,-1.20,-5.68,5.68,5.49,7.28,4.48,4.49,4.48
30.99,-1.17,-5.65,-1.17,-5.65,5.65,5.47,7.31,4.48,4.48,4.48
31.30,-1.15,-5.63,-1.15,-5.63,5.62,5.44,7.31,4.47,4.47,4.48
31.61,-1.13,-5.60,-1.13,-5.60,5.59,5.42,7.31,4.46,4.46,4.47
31.93,-1.11,-5.56,-1.11,-5.57,5.56,5.40,7.29,4.45,4.46,4.45
32.24,-1.08,-5.54,-1.08,-5.53,5.54,5.38,7.27,4.46,4.46,4.46
32.57,-1.05,-5.49,-1.05,-5.50,5.51,5.36,7.23,4.46,4.45,4.44
32.89,-1.03,-5.47,-1.03,-5.47,5.47,5.33,7.18,4.44,4.44,4.44
33.22,-1.01,-5.44,-1.01,-5.44,5.44,5.31,7.12,4.43,4.43,4.43
33.55,-0.99,-5.42,-0.99,-5.42,5.41,5.29,7.05,4.42,4.42,4.43
33.89,-0.97,-5.39,-0.97,-5.38,5.38,5.27,6.97,4.41,4.41,4.42
34.23,-0.94,-5.34,-0.94,-5.35,5.35,5.24,6.89,4.41,4.41,4.40
34.57,-0.91,-5.31,-0.91,-5.31,5.32,5.22,6.79,4.41,4.40,4.40
34.92,-0.89,-5.27,-0.89,-5.28,5.28,5.19,6.69,4.39,4.40,4.38
35.27,-0.86,-5.26,-0.86,-5.25,5.25,5.17,6.59,4.39,4.39,4.40
35.62,-0.84,-5.21,-0.84,-5.22,5.21,5.14,6.48,4.37,4.37,4.37
35.97,-0.81,-5.18,-0.81,-5.18,5.17,5.12,6.36,4.36,4.36,4.37
36.33,-0.79,-5.14,-0.79,-5.14,5.13,5.09,6.25,4.34,4.35,4.35
36.70,-0.76,-5.09,-0.76,-5.09,5.09,5.07,6.13,4.33,4.33,4.33
37.06,-0.74,-5.05,-0.74,-5.05,5.05,5.04,6.01,4.31,4.31,4.31
37.43,-0.71,-5.00,-0.71,-5.00,5.01,5.01,5.89,4.30,4.30,4.29
37.81,-0.68,-4.96,-0.68,-4.96,4.96,4.99,5.77,4.28,4.28,4.28
38.19,-0.66,-4.91,-0.66,-4.91,4.92,4.96,5.65,4.26,4.26,4.25
38.57,-0.64,-4.87,-0.64,-4.88,4.87,4.93,5.53,4.23,4.23,4.23
38.95,-0.62,-4.84,-0.62,-4.83,4.83,4.90,5.41,4.21,4.21,4.22
39.34,-0.60,-4.79,-0.60,-4.79,4.78,4.88,5.29,4.18,4.18,4.19
39.74,-0.57,-4.73,-0.57,-4.74,4.73,4.85,5.18,4.16,4.16,4.16
40.14,-0.54,-4.68,-0.54,-4.68,4.69,4.82,5.06,4.15,4.15,4.14
40.54,-0.52,-4.64,-0.52,-4.64,4.65,4.79,4.95,4.13,4.13,4.12
40.94,-0.50,-4.59,-0.50,-4.60,4.60,4.76,4.85,4.10,4.10,4.09
41.35,-0.49,-4.57,-0.49,-4.56,4.56,4.73,4.74,4.07,4.08,4.08
41.76,-0.47,-4.52,-0.47,-4.52,4.52,4.70,4.64,4.05,4.05,4.05
42.18,-0.45,-4.49,-0.45,-4.49,4.48,4.67,4.54,4.03,4.03,4.04
42.60,-0.44,-4.45,-0.44,-4.45,4.45,4.64,4.44,4.01,4.01,4.01
43.03,-0.43,-4.42,-0.43,-4.42,4.41,4.60,4.35,3.98,3.98,3.99
43.46,-0.42,-4.37,-0.42,-4.37,4.38,4.57,4.26,3.96,3.96,3.95
43.90,-0.40,-4.33,-0.40,-4.33,4.34,4.54,4.17,3.94,3.94,3.93
44.33,-0.39,-4.29,-0.39,-4.30,4.30,4.51,4.09,3.91,3.91,3.90
44.78,-0.38,-4.26,-0.38,-4.26,4.26,4.47,4.01,3.88,3.88,3.88
45.23,-0.38,-4.24,-0.38,-4.23,4.22,4.44,3.93,3.84,3.85,3.86
45.68,-0.37,-4.18,-0.37,-4.19,4.18,4.41,3.86,3.81,3.81,3.81
46.13,-0.36,-4.14,-0.36,-4.14,4.14,4.37,3.79,3.78,3.78,3.78
46.60,-0.35,-4.09,-0.35,-4.09,4.09,4.34,3.72,3.74,3.74,3.74
47.06,-0.34,-4.05,-0.34,-4.04,4.04,4.30,3.65,3.70,3.70,3.71
47.53,-0.32,-3.99,-0.32,-3.99,3.99,4.26,3.59,3.67,3.66,3.67
48.01,-0.30,-3.92,-0.30,-3.93,3.93,4.23,3.53,3.63,3.62,3.62
48.49,-0.29,-3.87,-0.29,-3.87,3.87,4.19,3.47,3.58,3.58,3.58
48.97,-0.27,-3.80,-0.27,-3.81,3.81,4.15,3.42,3.54,3.54,3.53
49.46,-0.26,-3.76,-0.26,-3.75,3.75,4.12,3.37,3.49,3.50,3.50
49.96,-0.24,-3.68,-0.24,-3.69,3.70,4.08,3.32,3.46,3.46,3.44
50.46,-0.23,-3.64,-0.23,-3.64,3.64,4.04,3.27,3.41,3.41,3.41
50.96,-0.21,-3.58,-0.22,-3.58,3.59,4.00,3.22,3.38,3.37,3.37
51.47,-0.21,-3.54,-0.21,-3.54,3.53,3.96,3.18,3.32,3.33,3.33
51.99,-0.20,-3.48,-0.20,-3.49,3.48,3.92,3.13,3.28,3.28,3.28
52.51,-0.18,-3.43,-0.18,-3.43,3.43,3.88,3.09,3.25,3.24,3.25
53.03,-0.16,-3.38,-0.16,-3.37,3.37,3.84,3.05,3.21,3.21,3.22
53.56,-0.14,-3.31,-0.14,-3.31,3.31,3.79,3.01,3.17,3.17,3.17
54.10,-0.13,-3.25,-0.13,-3.25,3.25,3.75,2.98,3.12,3.13,3.12
54.64,-0.11,-3.19,-0.11,-3.19,3.19,3.71,2.94,3.08,3.08,3.08
55.18,-0.09,-3.13,-0.09,-3.13,3.13,3.66,2.90,3.04,3.04,3.04
55.74,-0.07,-3.06,-0.07,-3.07,3.07,3.62,2.86,3.00,3.01,2.99
56.29,-0.05,-3.02,-0.05,-3.02,3.02,3.57,2.83,2.97,2.97,2.97
56.86,-0.04,-2.97,-0.04,-2.96,2.97,3.53,2.79,2.93,2.93,2.93
57.42,-0.03,-2.91,-0.03,-2.91,2.91,3.48,2.75,2.88,2.89,2.88
58.00,-0.01,-2.85,-0.01,-2.86,2.86,3.43,2.72,2.85,2.85,2.84
58.58,-0.00,-2.81,0.00,-2.81,2.81,3.38,2.68,2.81,2.81,2.81
59.16,0.01,-2.77,0.01,-2.76,2.76,3.34,2.64,2.77,2.77,2.78
59.76,0.02,-2.71,0.02,-2.71,2.70,3.29,2.60,2.72,2.72,2.73
60.35,0.02,-2.66,0.02,-2.66,2.65,3.24,2.55,2.67,2.67,2.68
60.96,0.03,-2.59,0.03,-2.60,2.60,3.18,2.51,2.63,2.63,2.62
61.57,0.02,-2.54,0.02,-2.54,2.55,3.13,2.46,2.57,2.57,2.56
62.18,0.02,-2.48,0.02,-2.49,2.50,3.08,2.42,2.52,2.51,2.50
62.80,-0.00,-2.44,0.00,-2.44,2.45,3.03,2.37,2.45,2.45,2.44
63.43,-0.01,-2.40,-0.01,-2.40,2.40,2.97,2.32,2.39,2.39,2.39
64.07,-0.02,-2.36,-0.02,-2.36,2.35,2.92,2.26,2.33,2.33,2.34
64.71,-0.02,-2.31,-0.02,-2.31,2.30,2.86,2.21,2.28,2.28,2.29
65.35,-0.02,-2.25,-0.02,-2.26,2.25,2.81,2.15,2.23,2.23,2.23
66.01,-0.02,-2.20,-0.02,-2.20,2.20,2.75,2.09,2.18,2.18,2.18
66.67,-0.01,-2.15,-0.01,-2.14,2.14,2.69,2.03,2.13,2.13,2.14
67.33,0.00,-2.07,-0.00,-2.08,2.08,2.63,1.97,2.08,2.08,2.07
68.01,0.01,-2.01,0.01,-2.01,2.01,2.58,1.91,2.02,2.02,2.02
68.69,0.03,-1.94,0.03,-1.94,1.94,2.52,1.84,1.97,1.97,1.97
69.37,0.05,-1.87,0.05,-1.87,1.87,2.45,1.78,1.92,1.91,1.92
70.07,0.07,-1.79,0.07,-1.79,1.79,2.39,1.71,1.86,1.86,1.86
70.77,0.09,-1.70,0.09,-1.71,1.70,2.33,1.64,1.79,1.79,1.79
71.48,0.11,-1.63,0.11,-1.62,1.62,2.27,1.57,1.73,1.74,1.74
72.19,0.14,-1.54,0.14,-1.54,1.54,2.20,1.50,1.68,1.68,1.68
72.91,0.17,-1.44,0.17,-1.45,1.45,2.14,1.43,1.62,1.62,1.61
73.64,0.19,-1.37,0.19,-1.36,1.37,2.07,1.36,1.56,1.56,1.56
74.38,0.22,-1.28,0.22,-1.28,1.29,2.00,1.29,1.51,1.51,1.50
75.12,0.24,-1.21,0.24,-1.21,1.21,1.94,1.21,1.45,1.45,1.45
75.87,0.27,-1.13,0.26,-1.13,1.13,1.87,1.14,1.40,1.40,1.40
76.63,0.28,-1.06,0.28,-1.06,1.06,1.80,1.07,1.34,1.35,1.34
77.40,0.30,-1.00,0.30,-0.99,0.99,1.73,0.99,1.29,1.29,1.30
78.17,0.32,-0.92,0.32,-0.93,0.93,1.66,0.92,1.25,1.24,1.24
78.95,0.33,-0.87,0.33,-0.87,0.87,1.59,0.84,1.20,1.20,1.20
79.74,0.34,-0.81,0.34,-0.80,0.81,1.51,0.77,1.15,1.16,1.15
80.54,0.35,-0.75,0.35,-0.75,0.76,1.44,0.69,1.11,1.11,1.10
81.35,0.35,-0.69,0.35,-0.70,0.71,1.37,0.62,1.06,1.06,1.04
82.16,0.34,-0.67,0.34,-0.66,0.66,1.29,0.54,1.00,1.00,1.01
82.98,0.33,-0.62,0.33,-0.62,0.61,1.22,0.47,0.94,0.94,0.95
83.81,0.32,-0.58,0.32,-0.58,0.57,1.14,0.39,0.89,0.89,0.90
84.65,0.32,-0.52,0.32,-0.52,0.52,1.07,0.32,0.84,0.84,0.84
85.50,0.32,-0.46,0.32,-0.47,0.47,0.99,0.24,0.79,0.79,0.78
86.35,0.32,-0.41,0.32,-0.41,0.41,0.91,0.17,0.73,0.73,0.73
87.22,0.32,-0.36,0.32,-0.36,0.36,0.83,0.09,0.68,0.68,0.68
88.09,0.32,-0.30,0.32,-0.30,0.30,0.75,0.02,0.62,0.62,0.62
88.97,0.32,-0.24,0.32,-0.25,0.24,0.67,-0.06,0.56,0.56,0.56
89.86,0.32,-0.19,0.32,-0.19,0.19,0.59,-0.13,0.51,0.51,0.51
90.76,0.32,-0.13,0.32,-0.13,0.13,0.51,-0.21,0.45,0.45,0.45
91.66,0.32,-0.06,0.32,-0.07,0.07,0.43,-0.28,0.39,0.39,0.38
92.58,0.32,-0.01,0.32,-0.01,0.01,0.35,-0.36,0.33,0.33,0.33
93.51,0.32,0.04,0.32,0.04,-0.05,0.27,-0.43,0.27,0.27,0.28
94.44,0.32,0.10,0.32,0.10,-0.11,0.19,-0.51,0.21,0.21,0.22
95.39,0.32,0.17,0.32,0.17,-0.17,0.11,-0.58,0.15,0.15,0.15
96.34,0.32,0.24,0.32,0.24,-0.24,0.03,-0.66,0.08,0.08,0.08
97.30,0.32,0.30,0.32,0.30,-0.30,-0.06,-0.74,0.02,0.02,0.02
98.28,0.32,0.37,0.32,0.37,-0.36,-0.14,-0.81,-0.04,-0.04,-0.05
99.26,0.32,0.43,0.32,0.43,-0.42,-0.22,-0.89,-0.10,-0.10,-0.11
100.25,0.32,0.49,0.32,0.49,-0.48,-0.31,-0.96,-0.16,-0.16,-0.17
101.25,0.32,0.54,0.32,0.54,-0.54,-0.39,-1.04,-0.22,-0.22,-0.22
102.27,0.32,0.60,0.32,0.60,-0.60,-0.47,-1.11,-0.28,-0.28,-0.28
103.29,0.32,0.66,0.32,0.66,-0.66,-0.55,-1.18,-0.34,-0.34,-0.34
104.32,0.32,0.71,0.32,0.71,-0.71,-0.64,-1.26,-0.39,-0.39,-0.39
105.37,0.32,0.77,0.32,0.77,-0.77,-0.72,-1.33,-0.45,-0.45,-0.45
106.42,0.32,0.82,0.32,0.82,-0.82,-0.80,-1.40,-0.50,-0.50,-0.50
107.48,0.32,0.88,0.32,0.88,-0.88,-0.88,-1.47,-0.56,-0.56,-0.56
108.56,0.32,0.93,0.32,0.93,-0.93,-0.96,-1.54,-0.61,-0.61,-0.61
109.64,0.32,0.99,0.32,0.99,-0.99,-1.04,-1.61,-0.67,-0.67,-0.67
110.74,0.32,1.05,0.32,1.05,-1.05,-1.13,-1.67,-0.73,-0.73,-0.73
111.85,0.32,1.11,0.32,1.10,-1.11,-1.21,-1.74,-0.79,-0.79,-0.79
112.97,0.32,1.16,0.32,1.16,-1.17,-1.29,-1.80,-0.85,-0.85,-0.84
114.10,0.32,1.22,0.32,1.23,-1.23,-1.37,-1.86,-0.91,-0.91,-0.90
115.24,0.32,1.30,0.32,1.29,-1.29,-1.44,-1.92,-0.97,-0.97,-0.98
116.39,0.32,1.36,0.32,1.36,-1.35,-1.52,-1.98,-1.03,-1.03,-1.04
117.55,0.32,1.42,0.32,1.42,-1.41,-1.60,-2.03,-1.09,-1.09,-1.10
118.73,0.32,1.48,0.32,1.47,-1.47,-1.68,-2.08,-1.15,-1.15,-1.16
119.92,0.32,1.52,0.32,1.52,-1.52,-1.75,-2.13,-1.20,-1.20,-1.20
121.12,0.32,1.57,0.32,1.57,-1.58,-1.83,-2.17,-1.26,-1.26,-1.25
122.33,0.32,1.63,0.32,1.62,-1.63,-1.90,-2.21,-1.31,-1.31,-1.31
123.55,0.32,1.68,0.32,1.68,-1.68,-1.98,-2.25,-1.36,-1.36,-1.36
124.79,0.32,1.73,0.32,1.73,-1.73,-2.05,-2.29,-1.41,-1.41,-1.41
126.03,0.32,1.79,0.32,1.79,-1.79,-2.12,-2.32,-1.47,-1.47,-1.47
127.29,0.32,1.84,0.32,1.84,-1.85,-2.19,-2.35,-1.53,-1.53,-1.52
128.57,0.32,1.91,0.32,1.90,-1.90,-2.27,-2.37,-1.58,-1.58,-1.59
129.85,0.32,1.96,0.32,1.96,-1.96,-2.33,-2.40,-1.64,-1.64,-1.64
131.15,0.32,2.02,0.32,2.02,-2.02,-2.40,-2.42,-1.70,-1.70,-1.70
132.46,0.32,2.07,0.32,2.07,-2.07,-2.47,-2.43,-1.75,-1.75,-1.75
133.79,0.32,2.13,0.32,2.13,-2.13,-2.54,-2.45,-1.81,-1.81,-1.81
135.12,0.32,2.18,0.32,2.18,-2.18,-2.60,-2.46,-1.86,-1.86,-1.86
136.48,0.32,2.23,0.32,2.23,-2.23,-2.67,-2.47,-1.91,-1.91,-1.91
137.84,0.32,2.28,0.32,2.28,-2.28,-2.73,-2.48,-1.96,-1.96,-1.96
139.22,0.32,2.34,0.32,2.33,-2.33,-2.79,-2.49,-2.01,-2.01,-2.02
140.61,0.32,2.38,0.32,2.39,-2.38,-2.85,-2.50,-2.06,-2.06,-2.06
142.02,0.32,2.44,0.32,2.43,-2.43,-2.91,-2.50,-2.11,-2.11,-2.12
143.44,0.32,2.48,0.32,2.48,-2.47,-2.97,-2.51,-2.15,-2.15,-2.16
144.87,0.32,2.52,0.32,2.52,-2.52,-3.03,-2.51,-2.20,-2.20,-2.20
146.32,0.32,2.57,0.32,2.56,-2.56,-3.09,-2.52,-2.24,-2.24,-2.25
147.78,0.31,2.60,0.31,2.60,-2.60,-3.14,-2.52,-2.29,-2.29,-2.29
149.26,0.30,2.64,0.30,2.64,-2.64,-3.20,-2.52,-2.34,-2.34,-2.34
150.75,0.30,2.68,0.30,2.68,-2.69,-3.25,-2.53,-2.39,-2.38,-2.38
152.26,0.31,2.73,0.31,2.73,-2.74,-3.30,-2.53,-2.43,-2.43,-2.42
153.78,0.33,2.79,0.33,2.78,-2.79,-3.35,-2.54,-2.46,-2.47,-2.46
155.32,0.34,2.84,0.34,2.85,-2.85,-3.40,-2.55,-2.51,-2.51,-2.50
156.88,0.37,2.92,0.37,2.92,-2.92,-3.45,-2.55,-2.55,-2.55,-2.55
158.44,0.39,2.99,0.40,2.99,-2.99,-3.50,-2.56,-2.60,-2.59,-2.60
160.03,0.44,3.08,0.43,3.07,-3.07,-3.55,-2.57,-2.63,-2.64,-2.64
161.63,0.46,3.14,0.46,3.15,-3.15,-3.59,-2.59,-2.69,-2.68,-2.68
163.24,0.49,3.22,0.50,3.23,-3.23,-3.64,-2.60,-2.74,-2.73,-2.73
164.88,0.54,3.32,0.53,3.31,-3.31,-3.68,-2.62,-2.77,-2.78,-2.78
166.53,0.56,3.39,0.56,3.39,-3.38,-3.72,-2.63,-2.82,-2.82,-2.83
168.19,0.59,3.45,0.59,3.46,-3.45,-3.76,-2.65,-2.86,-2.86,-2.86
169.87,0.62,3.54,0.61,3.53,-3.52,-3.80,-2.67,-2.90,-2.91,-2.92
171.57,0.63,3.60,0.63,3.59,-3.59,-3.84,-2.70,-2.96,-2.96,-2.97
173.29,0.64,3.65,0.64,3.66,-3.65,-3.88,-2.72,-3.01,-3.01,-3.01
175.02,0.65,3.71,0.65,3.71,-3.71,-3.92,-2.75,-3.06,-3.06,-3.06
176.77,0.67,3.78,0.67,3.77,-3.77,-3.95,-2.78,-3.10,-3.11,-3.11
178.54,0.68,3.83,0.68,3.83,-3.83,-3.99,-2.81,-3.16,-3.16,-3.15
180.32,0.69,3.90,0.69,3.89,-3.90,-4.02,-2.85,-3.21,-3.21,-3.21
182.13,0.70,3.94,0.71,3.96,-3.97,-4.05,-2.88,-3.27,-3.25,-3.24
183.95,0.74,4.03,0.74,4.03,-4.03,-4.09,-2.92,-3.29,-3.30,-3.29
185.79,0.78,4.12,0.77,4.11,-4.11,-4.12,-2.96,-3.33,-3.33,-3.34
187.65,0.80,4.18,0.81,4.19,-4.18,-4.15,-3.01,-3.38,-3.37,-3.38
189.52,0.84,4.26,0.84,4.26,-4.26,-4.18,-3.05,-3.42,-3.42,-3.42
191.42,0.87,4.33,0.87,4.33,-4.33,-4.21,-3.10,-3.46,-3.46,-3.46
193.33,0.90,4.40,0.90,4.41,-4.41,-4.23,-3.15,-3.51,-3.51,-3.50
195.27,0.93,4.48,0.93,4.48,-4.48,-4.26,-3.20,-3.55,-3.55,-3.55
197.22,0.95,4.55,0.95,4.54,-4.54,-4.29,-3.25,-3.59,-3.59,-3.60
199.19,0.97,4.60,0.97,4.61,-4.59,-4.31,-3.30,-3.62,-3.62,-3.63
201.18,0.99,4.66,0.99,4.66,-4.64,-4.33,-3.36,-3.65,-3.65,-3.67
203.19,1.00,4.70,0.99,4.69,-4.68,-4.36,-3.41,-3.68,-3.69,-3.70
205.23,0.99,4.71,0.99,4.72,-4.71,-4.38,-3.47,-3.72,-3.72,-3.72
207.28,0.98,4.73,0.98,4.74,-4.74,-4.40,-3.53,-3.76,-3.76,-3.75
209.35,0.98,4.77,0.98,4.76,-4.77,-4.42,-3.58,-3.79,-3.79,-3.79
211.44,0.97,4.79,0.97,4.79,-4.80,-4.44,-3.64,-3.83,-3.82,-3.82
213.56,0.97,4.81,0.97,4.81,-4.82,-4.46,-3.70,-3.85,-3.85,-3.84
215.69,0.97,4.84,0.97,4.84,-4.85,-4.48,-3.76,-3.88,-3.88,-3.87
217.85,0.98,4.88,0.98,4.88,-4.88,-4.50,-3.81,-3.90,-3.91,-3.90
220.03,0.98,4.91,0.98,4.91,-4.91,-4.52,-3.87,-3.93,-3.93,-3.93
222.23,0.99,4.95,0.99,4.95,-4.94,-4.54,-3.93,-3.95,-3.95,-3.96
224.45,1.00,4.97,0.99,4.97,-4.96,-4.55,-3.98,-3.96,-3.97,-3.97
226.70,0.99,4.99,0.99,4.99,-4.98,-4.57,-4.03,-3.99,-3.99,-4.00
228.96,0.98,4.99,0.98,4.99,-4.99,-4.58,-4.08,-4.01,-4.01,-4.01
231.25,0.96,4.99,0.96,4.99,-4.99,-4.60,-4.12,-4.03,-4.03,-4.03
233.57,0.94,4.99,0.94,4.99,-4.99,-4.61,-4.17,-4.05,-4.05,-4.05
235.90,0.91,4.97,0.91,4.97,-4.97,-4.63,-4.21,-4.06,-4.06,-4.06
238.26,0.88,4.97,0.88,4.96,-4.96,-4.64,-4.24,-4.08,-4.08,-4.09
240.64,0.85,4.93,0.85,4.94,-4.94,-4.65,-4.27,-4.09,-4.09,-4.08
243.05,0.82,4.92,0.82,4.92,-4.91,-4.66,-4.30,-4.09,-4.10,-4.10
245.48,0.78,4.89,0.78,4.89,-4.89,-4.67,-4.33,-4.11,-4.10,-4.11
247.93,0.74,4.86,0.75,4.86,-4.86,-4.69,-4.35,-4.12,-4.11,-4.12
250.41,0.72,4.83,0.71,4.83,-4.83,-4.70,-4.36,-4.11,-4.12,-4.11
252.92,0.68,4.80,0.69,4.81,-4.81,-4.71,-4.37,-4.13,-4.12,-4.12
255.45,0.66,4.79,0.66,4.79,-4.79,-4.72,-4.38,-4.13,-4.13,-4.13
258.00,0.65,4.78,0.64,4.77,-4.78,-4.72,-4.38,-4.13,-4.13,-4.13
260.58,0.63,4.76,0.63,4.76,-4.77,-4.73,-4.38,-4.14,-4.14,-4.13
263.19,0.63,4.76,0.63,4.76,-4.77,-4.74,-4.37,-4.14,-4.14,-4.13
265.82,0.63,4.77,0.63,4.77,-4.77,-4.75,-4.36,-4.14,-4.14,-4.14
268.48,0.64,4.78,0.64,4.78,-4.78,-4.76,-4.35,-4.14,-4.14,-4.14
271.16,0.65,4.79,0.65,4.78,-4.78,-4.76,-4.34,-4.13,-4.14,-4.14
273.87,0.65,4.79,0.65,4.79,-4.79,-4.77,-4.32,-4.14,-4.14,-4.14
276.61,0.65,4.79,0.65,4.80,-4.79,-4.78,-4.30,-4.14,-4.14,-4.14
279.38,0.65,4.81,0.65,4.80,-4.80,-4.78,-4.28,-4.15,-4.15,-4.16
282.17,0.65,4.81,0.65,4.80,-4.80,-4.79,-4.25,-4.15,-4.15,-4.16
284.99,0.65,4.80,0.65,4.80,-4.80,-4.79,-4.23,-4.15,-4.15,-4.15
287.84,0.65,4.79,0.65,4.80,-4.80,-4.80,-4.20,-4.15,-4.15,-4.14
290.72,0.65,4.80,0.65,4.79,-4.79,-4.80,-4.17,-4.14,-4.14,-4.15
293.63,0.65,4.79,0.65,4.79,-4.79,-4.80,-4.15,-4.14,-4.14,-4.14
296.57,0.65,4.78,0.65,4.78,-4.78,-4.81,-4.12,-4.13,-4.13,-4.13
299.53,0.65,4.78,0.65,4.77,-4.78,-4.81,-4.09,-4.13,-4.13,-4.13
302.53,0.65,4.76,0.65,4.77,-4.77,-4.81,-4.07,-4.12,-4.12,-4.11
305.55,0.65,4.77,0.65,4.76,-4.77,-4.82,-4.04,-4.12,-4.12,-4.12
308.61,0.65,4.76,0.65,4.76,-4.77,-4.82,-4.02,-4.12,-4.11,-4.11
311.69,0.66,4.76,0.66,4.77,-4.76,-4.82,-4.00,-4.10,-4.10,-4.10
314.81,0.67,4.77,0.67,4.76,-4.76,-4.82,-3.98,-4.09,-4.09,-4.10
317.96,0.67,4.76,0.67,4.76,-4.75,-4.82,-3.96,-4.08,-4.08,-4.09
321.14,0.66,4.74,0.66,4.74,-4.74,-4.82,-3.94,-4.08,-4.07,-4.08
324.35,0.65,4.73,0.65,4.72,-4.72,-4.82,-3.93,-4.07,-4.07,-4.08
327.59,0.63,4.68,0.63,4.69,-4.69,-4.82,-3.92,-4.06,-4.06,-4.05
330.87,0.61,4.67,0.61,4.66,-4.66,-4.82,-3.91,-4.05,-4.05,-4.06
334.18,0.58,4.63,0.58,4.63,-4.63,-4.82,-3.90,-4.05,-4.05,-4.05
337.52,0.54,4.59,0.54,4.59,-4.59,-4.82,-3.90,-4.05,-4.04,-4.05
340.90,0.51,4.54,0.51,4.54,-4.55,-4.82,-3.90,-4.04,-4.03,-4.03
344.30,0.48,4.50,0.48,4.50,-4.50,-4.82,-3.90,-4.02,-4.03,-4.02
347.75,0.45,4.47,0.45,4.46,-4.46,-4.82,-3.91,-4.01,-4.02,-4.02
351.23,0.41,4.43,0.41,4.42,-4.42,-4.82,-3.92,-4.01,-4.01,-4.02
354.74,0.38,4.37,0.38,4.38,-4.38,-4.82,-3.93,-4.00,-4.00,-3.99
358.28,0.35,4.35,0.35,4.35,-4.35,-4.82,-3.94,-4.00,-4.00,-4.00
361.87,0.34,4.33,0.33,4.32,-4.32,-4.81,-3.96,-3.98,-3.99,-3.99
365.49,0.31,4.29,0.31,4.29,-4.30,-4.81,-3.98,-3.99,-3.99,-3.98
369.14,0.30,4.26,0.30,4.27,-4.28,-4.81,-4.00,-3.98,-3.98,-3.96
372.83,0.30,4.26,0.30,4.26,-4.27,-4.80,-4.03,-3.97,-3.97,-3.96
376.56,0.31,4.27,0.31,4.26,-4.26,-4.80,-4.06,-3.95,-3.95,-3.96
380.33,0.32,4.27,0.32,4.26,-4.25,-4.80,-4.09,-3.93,-3.94,-3.95
384.13,0.32,4.25,0.32,4.26,-4.25,-4.79,-4.13,-3.93,-3.93,-3.93
387.97,0.32,4.25,0.32,4.25,-4.24,-4.79,-4.16,-3.92,-3.92,-3.93
391.85,0.32,4.24,0.32,4.24,-4.23,-4.78,-4.20,-3.91,-3.91,-3.92
395.77,0.32,4.23,0.32,4.23,-4.22,-4.78,-4.25,-3.90,-3.90,-3.91
399.73,0.32,4.22,0.32,4.21,-4.21,-4.78,-4.29,-3.89,-3.89,-3.90
403.72,0.31,4.18,0.31,4.19,-4.19,-4.77,-4.34,-3.88,-3.88,-3.87
407.76,0.30,4.18,0.30,4.17,-4.18,-4.76,-4.38,-3.88,-3.88,-3.88
411.84,0.30,4.17,0.30,4.17,-4.17,-4.76,-4.43,-3.87,-3.87,-3.87
415.96,0.31,4.16,0.31,4.17,-4.17,-4.75,-4.48,-3.86,-3.86,-3.85
420.12,0.33,4.18,0.33,4.17,-4.17,-4.75,-4.53,-3.84,-3.85,-3.85
424.32,0.35,4.19,0.34,4.18,-4.18,-4.74,-4.58,-3.83,-3.84,-3.84
428.56,0.36,4.18,0.37,4.19,-4.20,-4.73,-4.63,-3.84,-3.83,-3.82
432.85,0.39,4.20,0.39,4.21,-4.22,-4.73,-4.68,-3.83,-3.82,-3.81
437.18,0.43,4.25,0.42,4.24,-4.24,-4.72,-4.73,-3.81,-3.82,-3.82
441.55,0.46,4.27,0.46,4.27,-4.26,-4.71,-4.78,-3.80,-3.80,-3.81
445.96,0.49,4.29,0.49,4.29,-4.29,-4.70,-4.83,-3.80,-3.80,-3.80
450.42,0.53,4.32,0.53,4.32,-4.31,-4.70,-4.87,-3.78,-3.79,-3.79
454.93,0.56,4.34,0.56,4.34,-4.34,-4.69,-4.91,-3.78,-3.78,-3.78
459.48,0.60,4.37,0.59,4.36,-4.36,-4.68,-4.95,-3.76,-3.76,-3.77
464.07,0.62,4.37,0.62,4.37,-4.37,-4.67,-4.99,-3.75,-3.75,-3.75
468.71,0.64,4.38,0.64,4.39,-4.38,-4.66,-5.02,-3.74,-3.74,-3.74
473.40,0.66,4.40,0.66,4.39,-4.39,-4.65,-5.04,-3.73,-3.73,-3.74
478.13,0.67,4.40,0.67,4.40,-4.39,-4.64,-5.07,-3.72,-3.72,-3.73
482.91,0.67,4.39,0.67,4.39,-4.38,-4.63,-5.09,-3.71,-3.71,-3.72
487.74,0.66,4.37,0.66,4.37,-4.37,-4.62,-5.10,-3.71,-3.71,-3.71
492.62,0.65,4.35,0.65,4.35,-4.36,-4.61,-5.11,-3.71,-3.71,-3.70
497.55,0.65,4.34,0.65,4.34,-4.35,-4.60,-5.11,-3.70,-3.70,-3.69
