frequency,raw,error,smoothed,error_smoothed,equalization,parametric_eq,fixed_band_eq,equalized_raw,equalized_smoothed,target
20.00,-1.52,-5.95,-1.42,-5.87,5.87,5.78,1.35,4.35,4.45,4.43
20.20,-1.32,-5.80,-1.26,-5.75,5.75,5.67,1.39,4.43,4.49,4.48
20.40,-1.11,-5.64,-1.10,-5.63,5.63,5.54,1.43,4.52,4.53,4.53
20.61,-0.92,-5.47,-0.95,-5.51,5.51,5.41,1.47,4.59,4.56,4.56
20.81,-0.70,-5.31,-0.80,-5.39,5.39,5.27,1.52,4.69,4.59,4.61
21.02,-0.51,-5.16,-0.65,-5.27,5.27,5.13,1.56,4.76,4.62,4.65
21.23,-0.41,-5.08,-0.50,-5.15,5.15,5.00,1.61,4.73,4.65,4.67
21.44,-0.31,-5.00,-0.36,-5.02,5.02,4.86,1.65,4.71,4.67,4.69
21.66,-0.21,-4.92,-0.21,-4.90,4.90,4.72,1.70,4.69,4.69,4.71
21.87,-0.11,-4.83,-0.07,-4.78,4.78,4.59,1.75,4.67,4.71,4.72
22.09,0.01,-4.73,0.06,-4.66,4.66,4.46,1.80,4.67,4.72,4.74
22.31,0.14,-4.61,0.20,-4.54,4.54,4.34,1.86,4.68,4.74,4.75
22.54,0.28,-4.47,0.32,-4.42,4.42,4.22,1.91,4.69,4.74,4.75
22.76,0.41,-4.34,0.45,-4.30,4.30,4.10,1.96,4.71,4.75,4.75
22.99,0.54,-4.20,0.57,-4.18,4.18,4.00,2.02,4.72,4.75,4.74
23.22,0.69,-4.05,0.69,-4.06,4.06,3.90,2.08,4.75,4.75,4.74
23.45,0.84,-3.90,0.81,-3.94,3.94,3.80,2.14,4.78,4.75,4.74
23.69,0.99,-3.76,0.95,-3.80,3.80,3.71,2.20,4.79,4.75,4.75
23.92,1.14,-3.61,1.08,-3.67,3.67,3.63,2.26,4.81,4.75,4.75
24.16,1.25,-3.50,1.21,-3.54,3.54,3.55,2.32,4.78,4.75,4.75
24.40,1.34,-3.42,1.35,-3.40,3.40,3.48,2.39,4.74,4.75,4.76
24.65,1.43,-3.32,1.49,-3.26,3.26,3.41,2.45,4.68,4.75,4.75
24.89,1.52,-3.23,1.63,-3.12,3.12,3.35,2.52,4.64,4.75,4.75
25.14,1.64,-3.11,1.75,-3.00,3.00,3.29,2.58,4.64,4.75,4.75
25.39,1.78,-2.98,1.85,-2.90,2.90,3.24,2.65,4.68,4.75,4.76
25.65,1.92,-2.84,1.93,-2.82,2.82,3.19,2.72,4.74,4.75,4.76
25.91,2.05,-2.69,1.99,-2.76,2.76,3.15,2.78,4.81,4.75,4.75
26.16,2.15,-2.60,2.03,-2.72,2.72,3.11,2.85,4.87,4.75,4.75
26.43,2.20,-2.55,2.05,-2.70,2.70,3.07,2.92,4.90,4.75,4.75
26.69,2.26,-2.49,2.05,-2.70,2.70,3.04,2.98,4.95,4.75,4.75
26.96,2.32,-2.43,2.05,-2.70,2.70,3.01,3.05,5.01,4.74,4.75
27.23,2.19,-2.56,2.04,-2.70,2.70,2.98,3.11,4.89,4.74,4.75
27.50,2.02,-2.73,2.03,-2.71,2.71,2.96,3.17,4.73,4.74,4.75
27.77,1.86,-2.88,2.02,-2.72,2.72,2.94,3.24,4.57,4.74,4.74
28.05,1.73,-3.01,2.00,-2.74,2.74,2.93,3.29,4.46,4.74,4.74
28.33,1.76,-2.97,1.98,-2.76,2.76,2.91,3.35,4.51,4.74,4.73
28.62,1.79,-2.94,1.96,-2.77,2.77,2.90,3.41,4.56,4.73,4.73
28.90,1.82,-2.92,1.95,-2.78,2.78,2.89,3.46,4.60,4.73,4.74
29.19,1.91,-2.82,1.96,-2.77,2.77,2.88,3.51,4.68,4.73,4.73
29.48,2.02,-2.72,1.98,-2.75,2.75,2.88,3.55,4.77,4.73,4.74
29.78,2.13,-2.60,2.00,-2.72,2.72,2.88,3.59,4.85,4.73,4.73
30.08,2.21,-2.53,2.04,-2.69,2.69,2.88,3.63,4.89,4.73,4.74
30.38,2.18,-2.55,2.08,-2.64,2.64,2.88,3.66,4.82,4.73,4.73
30.68,2.15,-2.58,2.13,-2.60,2.60,2.88,3.69,4.74,4.72,4.73
30.99,2.12,-2.61,2.17,-2.56,2.56,2.88,3.72,4.67,4.72,4.73
31.30,2.17,-2.55,2.19,-2.53,2.53,2.89,3.74,4.69,4.72,4.72
31.61,2.22,-2.50,2.20,-2.52,2.52,2.90,3.75,4.73,4.72,4.72
31.93,2.27,-2.45,2.20,-2.51,2.51,2.91,3.76,4.78,4.71,4.72
32.24,2.23,-2.48,2.19,-2.52,2.52,2.92,3.77,4.75,4.71,4.71
32.57,2.15,-2.56,2.17,-2.54,2.54,2.93,3.77,4.69,4.71,4.71
32.89,2.08,-2.63,2.14,-2.56,2.56,2.94,3.77,4.64,4.70,4.71
33.22,2.07,-2.63,2.11,-2.58,2.58,2.96,3.77,4.65,4.70,4.70
33.55,2.08,-2.62,2.08,-2.61,2.61,2.97,3.76,4.69,4.69,4.70
33.89,2.10,-2.59,2.05,-2.64,2.64,2.99,3.75,4.74,4.69,4.69
34.23,2.05,-2.64,2.01,-2.67,2.67,3.01,3.74,4.72,4.68,4.69
34.57,1.98,-2.70,1.97,-2.71,2.71,3.03,3.72,4.69,4.68,4.68
34.92,1.91,-2.77,1.92,-2.75,2.75,3.05,3.70,4.66,4.67,4.68
35.27,1.86,-2.81,1.87,-2.80,2.80,3.07,3.68,4.66,4.67,4.67
35.62,1.83,-2.84,1.82,-2.85,2.85,3.09,3.66,4.68,4.67,4.67
35.97,1.79,-2.88,1.77,-2.90,2.90,3.11,3.64,4.69,4.67,4.67
36.33,1.72,-2.95,1.72,-2.94,2.94,3.13,3.61,4.66,4.66,4.67
36.70,1.65,-3.01,1.68,-2.98,2.98,3.15,3.59,4.63,4.66,4.66
37.06,1.59,-3.07,1.64,-3.03,3.03,3.18,3.56,4.62,4.66,4.66
37.43,1.58,-3.09,1.59,-3.07,3.07,3.20,3.54,4.65,4.66,4.67
37.81,1.57,-3.10,1.55,-3.11,3.11,3.23,3.52,4.68,4.66,4.67
38.19,1.53,-3.13,1.52,-3.15,3.15,3.25,3.49,4.67,4.66,4.66
38.57,1.45,-3.22,1.48,-3.18,3.18,3.28,3.47,4.63,4.67,4.67
38.95,1.37,-3.31,1.45,-3.22,3.22,3.30,3.45,4.59,4.67,4.68
39.34,1.39,-3.28,1.41,-3.25,3.25,3.33,3.43,4.64,4.67,4.67
39.74,1.43,-3.24,1.37,-3.29,3.29,3.36,3.41,4.72,4.67,4.67
40.14,1.43,-3.24,1.33,-3.33,3.33,3.38,3.40,4.76,4.67,4.67
40.54,1.35,-3.32,1.29,-3.37,3.37,3.41,3.38,4.72,4.66,4.67
40.94,1.28,-3.38,1.25,-3.41,3.41,3.43,3.37,4.69,4.66,4.66
41.35,1.22,-3.44,1.21,-3.45,3.45,3.46,3.36,4.66,4.65,4.66
41.76,1.15,-3.50,1.16,-3.48,3.48,3.49,3.35,4.63,4.65,4.65
42.18,1.10,-3.55,1.12,-3.52,3.52,3.51,3.35,4.61,4.64,4.65
42.60,1.06,-3.58,1.08,-3.55,3.55,3.54,3.34,4.61,4.63,4.64
43.03,1.02,-3.61,1.03,-3.58,3.58,3.57,3.34,4.60,4.62,4.63
43.46,0.96,-3.66,0.99,-3.62,3.62,3.59,3.35,4.58,4.61,4.62
43.90,0.89,-3.71,0.94,-3.66,3.66,3.62,3.35,4.55,4.59,4.60
44.33,0.87,-3.71,0.89,-3.70,3.70,3.64,3.36,4.56,4.58,4.58
44.78,0.86,-3.70,0.84,-3.73,3.73,3.67,3.37,4.59,4.57,4.56
45.23,0.85,-3.70,0.80,-3.75,3.75,3.69,3.38,4.60,4.56,4.55
45.68,0.82,-3.72,0.77,-3.77,3.77,3.72,3.40,4.59,4.54,4.54
46.13,0.77,-3.75,0.73,-3.79,3.79,3.74,3.42,4.56,4.53,4.52
46.60,0.68,-3.84,0.70,-3.82,3.82,3.76,3.44,4.49,4.51,4.52
47.06,0.60,-3.90,0.66,-3.84,3.84,3.79,3.46,4.43,4.50,4.50
47.53,0.61,-3.88,0.63,-3.86,3.86,3.81,3.48,4.46,4.48,4.49
48.01,0.61,-3.88,0.59,-3.88,3.88,3.83,3.51,4.49,4.47,4.49
48.49,0.55,-3.92,0.55,-3.90,3.90,3.85,3.54,4.45,4.45,4.47
48.97,0.49,-3.96,0.51,-3.93,3.93,3.87,3.57,4.42,4.44,4.45
49.46,0.49,-3.94,0.47,-3.96,3.96,3.89,3.61,4.45,4.43,4.43
49.96,0.49,-3.92,0.43,-3.98,3.98,3.90,3.64,4.47,4.42,4.41
50.46,0.43,-3.97,0.39,-4.01,4.01,3.92,3.68,4.44,4.40,4.40
50.96,0.37,-4.02,0.36,-4.03,4.03,3.94,3.72,4.39,4.39,4.39
51.47,0.33,-4.04,0.34,-4.04,4.04,3.95,3.75,4.37,4.38,4.37
51.99,0.30,-4.06,0.31,-4.05,4.05,3.96,3.79,4.35,4.36,4.36
52.51,0.25,-4.10,0.29,-4.06,4.06,3.98,3.83,4.31,4.35,4.35
53.03,0.20,-4.15,0.26,-4.08,4.08,3.99,3.88,4.28,4.34,4.35
53.56,0.20,-4.13,0.23,-4.09,4.09,4.00,3.92,4.29,4.32,4.33
54.10,0.20,-4.12,0.21,-4.11,4.11,4.00,3.96,4.31,4.31,4.32
54.64,0.20,-4.10,0.18,-4.12,4.12,4.01,3.99,4.32,4.30,4.30
55.18,0.19,-4.11,0.15,-4.14,4.14,4.02,4.03,4.33,4.29,4.30
55.74,0.17,-4.11,0.13,-4.15,4.15,4.02,4.07,4.32,4.28,4.28
56.29,0.15,-4.12,0.11,-4.16,4.16,4.03,4.10,4.31,4.27,4.27
56.86,0.12,-4.14,0.08,-4.17,4.17,4.03,4.14,4.29,4.25,4.26
57.42,0.07,-4.16,0.06,-4.18,4.18,4.03,4.16,4.25,4.24,4.23
58.00,0.01,-4.21,0.03,-4.19,4.19,4.03,4.19,4.20,4.22,4.22
58.58,-0.01,-4.22,0.00,-4.19,4.19,4.03,4.21,4.18,4.20,4.21
59.16,-0.04,-4.23,-0.02,-4.20,4.20,4.02,4.23,4.15,4.17,4.19
59.76,-0.07,-4.24,-0.05,-4.20,4.20,4.02,4.25,4.13,4.14,4.17
60.35,-0.08,-4.21,-0.08,-4.20,4.20,4.01,4.26,4.11,4.11,4.13
60.96,-0.08,-4.17,-0.11,-4.19,4.19,4.01,4.26,4.11,4.08,4.09
61.57,-0.13,-4.18,-0.13,-4.17,4.17,4.00,4.26,4.04,4.04,4.05
62.18,-0.16,-4.17,-0.15,-4.15,4.15,3.99,4.26,3.99,4.01,4.01
62.80,-0.18,-4.14,-0.16,-4.12,4.12,3.98,4.25,3.94,3.96,3.96
63.43,-0.18,-4.10,-0.17,-4.09,4.09,3.96,4.24,3.91,3.92,3.92
64.07,-0.18,-4.05,-0.18,-4.05,4.05,3.95,4.22,3.87,3.88,3.87
64.71,-0.18,-4.01,-0.18,-4.01,4.01,3.94,4.19,3.83,3.83,3.83
65.35,-0.18,-3.97,-0.18,-3.97,3.97,3.92,4.16,3.79,3.79,3.79
66.01,-0.18,-3.92,-0.18,-3.92,3.92,3.90,4.13,3.74,3.74,3.74
66.67,-0.18,-3.87,-0.18,-3.87,3.87,3.88,4.09,3.69,3.69,3.69
67.33,-0.18,-3.82,-0.18,-3.82,3.82,3.86,4.05,3.64,3.64,3.64
68.01,-0.18,-3.78,-0.18,-3.78,3.78,3.84,4.01,3.59,3.59,3.60
68.69,-0.18,-3.73,-0.18,-3.73,3.73,3.82,3.96,3.54,3.54,3.55
69.37,-0.18,-3.68,-0.19,-3.68,3.68,3.80,3.91,3.50,3.49,3.50
70.07,-0.18,-3.63,-0.19,-3.63,3.63,3.77,3.85,3.45,3.44,3.45
70.77,-0.18,-3.58,-0.19,-3.58,3.58,3.75,3.80,3.40,3.39,3.40
71.48,-0.18,-3.53,-0.20,-3.53,3.53,3.72,3.74,3.35,3.33,3.35
72.19,-0.18,-3.46,-0.21,-3.48,3.48,3.69,3.68,3.30,3.28,3.28
72.91,-0.20,-3.42,-0.22,-3.44,3.44,3.67,3.62,3.24,3.22,3.22
73.64,-0.25,-3.42,-0.24,-3.40,3.40,3.64,3.56,3.15,3.16,3.17
74.38,-0.28,-3.39,-0.25,-3.36,3.36,3.61,3.49,3.08,3.11,3.11
75.12,-0.28,-3.33,-0.27,-3.32,3.32,3.58,3.43,3.04,3.05,3.05
75.87,-0.28,-3.27,-0.28,-3.28,3.28,3.54,3.37,3.00,3.00,2.99
76.63,-0.28,-3.22,-0.30,-3.24,3.24,3.51,3.31,2.95,2.94,2.94
77.40,-0.29,-3.18,-0.31,-3.20,3.20,3.48,3.24,2.91,2.89,2.89
78.17,-0.32,-3.15,-0.33,-3.16,3.16,3.45,3.18,2.84,2.83,2.83
78.95,-0.37,-3.16,-0.35,-3.13,3.13,3.41,3.12,2.76,2.78,2.79
79.74,-0.40,-3.14,-0.36,-3.10,3.10,3.38,3.07,2.70,2.73,2.74
80.54,-0.39,-3.08,-0.38,-3.07,3.07,3.35,3.01,2.67,2.69,2.69
81.35,-0.37,-3.01,-0.39,-3.03,3.03,3.31,2.95,2.66,2.64,2.64
82.16,-0.37,-2.96,-0.40,-2.99,2.99,3.28,2.90,2.62,2.59,2.59
82.98,-0.37,-2.92,-0.41,-2.95,2.95,3.24,2.85,2.58,2.54,2.55
83.81,-0.42,-2.92,-0.42,-2.92,2.92,3.20,2.80,2.49,2.50,2.50
84.65,-0.46,-2.91,-0.43,-2.87,2.87,3.17,2.75,2.41,2.45,2.45
85.50,-0.47,-2.88,-0.44,-2.83,2.83,3.13,2.70,2.36,2.40,2.41
86.35,-0.47,-2.83,-0.44,-2.79,2.79,3.09,2.65,2.32,2.35,2.36
87.22,-0.47,-2.78,-0.46,-2.75,2.75,3.06,2.61,2.28,2.30,2.31
88.09,-0.47,-2.73,-0.47,-2.72,2.72,3.02,2.57,2.24,2.25,2.26
88.97,-0.46,-2.66,-0.48,-2.68,2.68,2.98,2.53,2.22,2.20,2.20
89.86,-0.46,-2.61,-0.50,-2.65,2.65,2.95,2.49,2.19,2.15,2.15
90.76,-0.46,-2.56,-0.52,-2.62,2.62,2.91,2.46,2.16,2.10,2.10
91.66,-0.49,-2.54,-0.54,-2.59,2.59,2.87,2.42,2.09,2.05,2.05
92.58,-0.53,-2.52,-0.56,-2.55,2.55,2.83,2.39,2.02,2.00,1.99
93.51,-0.60,-2.54,-0.57,-2.52,2.52,2.80,2.36,1.92,1.94,1.94
94.44,-0.64,-2.54,-0.59,-2.48,2.48,2.76,2.33,1.84,1.89,1.90
95.39,-0.65,-2.50,-0.60,-2.45,2.45,2.72,2.31,1.80,1.84,1.85
96.34,-0.66,-2.46,-0.62,-2.41,2.41,2.69,2.28,1.75,1.80,1.80
97.30,-0.66,-2.41,-0.64,-2.39,2.39,2.65,2.26,1.72,1.75,1.75
98.28,-0.67,-2.37,-0.67,-2.36,2.36,2.61,2.24,1.69,1.70,1.70
99.26,-0.69,-2.35,-0.69,-2.35,2.35,2.58,2.22,1.66,1.65,1.66
100.25,-0.70,-2.31,-0.72,-2.33,2.33,2.54,2.20,1.62,1.60,1.61
101.25,-0.72,-2.28,-0.75,-2.31,2.31,2.50,2.18,1.58,1.56,1.56
102.27,-0.73,-2.24,-0.78,-2.29,2.29,2.47,2.16,1.56,1.51,1.51
103.29,-0.75,-2.21,-0.81,-2.27,2.27,2.43,2.15,1.52,1.46,1.46
104.32,-0.77,-2.19,-0.84,-2.25,2.25,2.40,2.13,1.48,1.41,1.42
105.37,-0.83,-2.20,-0.88,-2.24,2.24,2.36,2.12,1.41,1.36,1.37
106.42,-0.95,-2.27,-0.92,-2.22,2.22,2.33,2.11,1.27,1.31,1.32
107.48,-1.03,-2.29,-0.96,-2.21,2.21,2.29,2.10,1.18,1.26,1.26
108.56,-1.05,-2.26,-0.99,-2.20,2.20,2.26,2.08,1.14,1.20,1.21
109.64,-1.05,-2.21,-1.03,-2.18,2.18,2.22,2.07,1.13,1.15,1.16
110.74,-1.04,-2.14,-1.06,-2.16,2.16,2.19,2.06,1.11,1.10,1.10
111.85,-1.10,-2.16,-1.08,-2.13,2.13,2.16,2.05,1.03,1.05,1.06
112.97,-1.12,-2.12,-1.11,-2.10,2.10,2.13,2.04,0.98,1.00,1.00
114.10,-1.13,-2.08,-1.12,-2.07,2.07,2.09,2.02,0.94,0.95,0.95
115.24,-1.13,-2.03,-1.13,-2.03,2.03,2.06,2.01,0.90,0.90,0.90
116.39,-1.13,-1.98,-1.13,-1.99,1.99,2.03,2.00,0.85,0.86,0.85
117.55,-1.12,-1.93,-1.12,-1.94,1.94,2.00,1.98,0.82,0.82,0.81
118.73,-1.12,-1.89,-1.11,-1.89,1.89,1.97,1.96,0.77,0.78,0.77
119.92,-1.11,-1.85,-1.11,-1.85,1.85,1.94,1.95,0.73,0.74,0.74
121.12,-1.10,-1.80,-1.11,-1.81,1.81,1.91,1.93,0.70,0.70,0.70
122.33,-1.10,-1.77,-1.11,-1.77,1.77,1.88,1.91,0.67,0.67,0.67
123.55,-1.09,-1.73,-1.11,-1.74,1.74,1.85,1.89,0.65,0.63,0.64
124.79,-1.08,-1.69,-1.11,-1.71,1.71,1.82,1.87,0.63,0.60,0.61
126.03,-1.07,-1.65,-1.11,-1.69,1.69,1.79,1.84,0.61,0.57,0.58
127.29,-1.08,-1.64,-1.12,-1.67,1.67,1.76,1.82,0.58,0.54,0.56
128.57,-1.12,-1.64,-1.13,-1.65,1.65,1.73,1.79,0.52,0.51,0.52
129.85,-1.15,-1.64,-1.14,-1.63,1.63,1.71,1.76,0.48,0.49,0.49
131.15,-1.15,-1.61,-1.16,-1.61,1.61,1.68,1.73,0.46,0.46,0.46
132.46,-1.16,-1.59,-1.17,-1.60,1.60,1.65,1.70,0.43,0.43,0.43
133.79,-1.22,-1.62,-1.18,-1.58,1.58,1.63,1.67,0.36,0.40,0.40
135.12,-1.23,-1.60,-1.19,-1.57,1.57,1.60,1.64,0.33,0.37,0.37
136.48,-1.23,-1.58,-1.21,-1.55,1.55,1.58,1.60,0.32,0.35,0.35
137.84,-1.22,-1.53,-1.22,-1.53,1.53,1.55,1.57,0.31,0.32,0.31
139.22,-1.22,-1.50,-1.22,-1.51,1.51,1.53,1.53,0.29,0.29,0.28
140.61,-1.22,-1.47,-1.23,-1.49,1.49,1.50,1.49,0.26,0.26,0.25
142.02,-1.22,-1.45,-1.23,-1.46,1.46,1.48,1.45,0.23,0.23,0.23
143.44,-1.22,-1.42,-1.23,-1.42,1.42,1.46,1.41,0.20,0.19,0.20
144.87,-1.22,-1.38,-1.23,-1.38,1.38,1.43,1.37,0.16,0.15,0.16
146.32,-1.22,-1.34,-1.23,-1.34,1.34,1.41,1.33,0.11,0.11,0.12
147.78,-1.22,-1.31,-1.22,-1.28,1.28,1.39,1.29,0.06,0.06,0.09
149.26,-1.22,-1.26,-1.21,-1.21,1.21,1.37,1.25,-0.01,0.01,0.04
150.75,-1.22,-1.20,-1.21,-1.15,1.15,1.35,1.21,-0.07,-0.05,-0.02
152.26,-1.22,-1.13,-1.21,-1.09,1.09,1.33,1.17,-0.13,-0.11,-0.09
153.78,-1.22,-1.06,-1.21,-1.04,1.04,1.31,1.13,-0.19,-0.18,-0.16
155.32,-1.22,-0.99,-1.22,-0.98,0.98,1.29,1.09,-0.25,-0.25,-0.23
156.88,-1.22,-0.91,-1.24,-0.92,0.92,1.27,1.05,-0.30,-0.32,-0.31
158.44,-1.22,-0.83,-1.26,-0.87,0.87,1.25,1.01,-0.36,-0.39,-0.39
160.03,-1.22,-0.75,-1.28,-0.82,0.82,1.23,0.96,-0.40,-0.46,-0.47
161.63,-1.22,-0.68,-1.30,-0.78,0.78,1.21,0.92,-0.45,-0.52,-0.54
163.24,-1.24,-0.64,-1.32,-0.74,0.74,1.19,0.88,-0.51,-0.58,-0.60
164.88,-1.36,-0.71,-1.34,-0.70,0.70,1.18,0.84,-0.66,-0.64,-0.65
166.53,-1.41,-0.71,-1.36,-0.68,0.68,1.16,0.80,-0.74,-0.69,-0.70
168.19,-1.43,-0.69,-1.38,-0.65,0.65,1.14,0.76,-0.78,-0.73,-0.74
169.87,-1.43,-0.65,-1.39,-0.63,0.63,1.13,0.72,-0.80,-0.76,-0.78
171.57,-1.44,-0.64,-1.40,-0.61,0.61,1.11,0.69,-0.83,-0.79,-0.80
173.29,-1.45,-0.64,-1.40,-0.60,0.60,1.10,0.65,-0.86,-0.81,-0.81
175.02,-1.45,-0.63,-1.40,-0.58,0.58,1.08,0.61,-0.87,-0.82,-0.82
176.77,-1.38,-0.55,-1.39,-0.56,0.56,1.07,0.57,-0.82,-0.83,-0.83
178.54,-1.36,-0.52,-1.38,-0.54,0.54,1.05,0.53,-0.82,-0.84,-0.84
180.32,-1.36,-0.53,-1.35,-0.51,0.51,1.04,0.50,-0.85,-0.84,-0.83
182.13,-1.33,-0.51,-1.33,-0.48,0.48,1.02,0.46,-0.85,-0.85,-0.82
183.95,-1.25,-0.42,-1.30,-0.44,0.44,1.01,0.42,-0.81,-0.85,-0.83
185.79,-1.23,-0.40,-1.27,-0.41,0.41,1.00,0.39,-0.82,-0.86,-0.83
187.65,-1.22,-0.37,-1.24,-0.37,0.37,0.99,0.35,-0.85,-0.87,-0.85
189.52,-1.20,-0.34,-1.22,-0.34,0.34,0.97,0.32,-0.86,-0.88,-0.86
191.42,-1.19,-0.31,-1.19,-0.30,0.30,0.96,0.28,-0.89,-0.89,-0.88
193.33,-1.18,-0.28,-1.18,-0.27,0.27,0.95,0.25,-0.91,-0.90,-0.90
195.27,-1.16,-0.24,-1.16,-0.24,0.24,0.94,0.21,-0.92,-0.92,-0.92
197.22,-1.15,-0.21,-1.15,-0.21,0.21,0.93,0.18,-0.94,-0.94,-0.94
199.19,-1.14,-0.18,-1.14,-0.18,0.18,0.92,0.15,-0.96,-0.96,-0.96
201.18,-1.13,-0.15,-1.13,-0.15,0.15,0.91,0.11,-0.98,-0.98,-0.98
203.19,-1.12,-0.12,-1.13,-0.13,0.13,0.90,0.08,-0.99,-1.00,-1.00
205.23,-1.12,-0.10,-1.13,-0.11,0.11,0.89,0.05,-1.01,-1.02,-1.02
207.28,-1.12,-0.09,-1.13,-0.09,0.09,0.88,0.02,-1.04,-1.04,-1.03
209.35,-1.12,-0.07,-1.13,-0.07,0.07,0.87,-0.01,-1.05,-1.06,-1.05
211.44,-1.13,-0.05,-1.14,-0.06,0.06,0.87,-0.04,-1.07,-1.08,-1.08
213.56,-1.13,-0.04,-1.14,-0.05,0.05,0.86,-0.06,-1.09,-1.09,-1.09
215.69,-1.13,-0.03,-1.14,-0.03,0.03,0.85,-0.09,-1.10,-1.11,-1.10
217.85,-1.14,-0.03,-1.14,-0.02,0.02,0.84,-0.11,-1.12,-1.12,-1.11
220.03,-1.14,-0.02,-1.14,-0.01,0.01,0.84,-0.13,-1.13,-1.13,-1.12
222.23,-1.14,0.01,-1.14,-0.00,0.00,0.83,-0.16,-1.14,-1.13,-1.15
224.45,-1.14,0.00,-1.13,0.01,-0.01,0.83,-0.17,-1.15,-1.14,-1.14
226.70,-1.14,0.00,-1.12,0.02,-0.02,0.82,-0.19,-1.16,-1.14,-1.14
228.96,-1.14,-0.01,-1.10,0.03,-0.03,0.82,-0.21,-1.17,-1.13,-1.13
231.25,-1.13,-0.01,-1.09,0.04,-0.04,0.81,-0.22,-1.17,-1.12,-1.12
233.57,-1.08,0.03,-1.07,0.04,-0.04,0.81,-0.23,-1.13,-1.11,-1.11
235.90,-1.01,0.09,-1.05,0.05,-0.05,0.81,-0.24,-1.06,-1.10,-1.10
238.26,-1.00,0.09,-1.03,0.05,-0.05,0.80,-0.25,-1.05,-1.08,-1.09
240.64,-0.98,0.08,-1.01,0.06,-0.06,0.80,-0.25,-1.04,-1.06,-1.06
243.05,-0.97,0.06,-0.98,0.06,-0.06,0.80,-0.25,-1.03,-1.04,-1.03
245.48,-0.95,0.06,-0.96,0.06,-0.06,0.80,-0.25,-1.01,-1.02,-1.01
247.93,-0.92,0.06,-0.93,0.06,-0.06,0.79,-0.25,-0.98,-0.99,-0.98
250.41,-0.90,0.06,-0.91,0.06,-0.06,0.79,-0.24,-0.96,-0.97,-0.96
252.92,-0.88,0.05,-0.88,0.06,-0.06,0.79,-0.23,-0.95,-0.95,-0.93
255.45,-0.87,0.04,-0.86,0.06,-0.06,0.79,-0.22,-0.94,-0.92,-0.91
258.00,-0.86,0.03,-0.84,0.06,-0.06,0.79,-0.21,-0.92,-0.90,-0.89
260.58,-0.85,0.02,-0.82,0.05,-0.05,0.79,-0.19,-0.91,-0.87,-0.87
263.19,-0.78,0.06,-0.80,0.05,-0.05,0.80,-0.17,-0.83,-0.85,-0.84
265.82,-0.76,0.06,-0.78,0.04,-0.04,0.80,-0.15,-0.81,-0.82,-0.82
268.48,-0.77,0.03,-0.76,0.04,-0.04,0.80,-0.12,-0.81,-0.80,-0.80
271.16,-0.75,0.02,-0.74,0.03,-0.03,0.80,-0.09,-0.78,-0.77,-0.77
273.87,-0.68,0.07,-0.72,0.02,-0.02,0.81,-0.06,-0.71,-0.75,-0.75
276.61,-0.68,0.04,-0.71,0.01,-0.01,0.81,-0.03,-0.70,-0.72,-0.72
279.38,-0.68,0.01,-0.69,0.00,-0.00,0.81,0.00,-0.69,-0.70,-0.69
282.17,-0.68,-0.01,-0.68,-0.01,0.01,0.82,0.04,-0.67,-0.67,-0.67
284.99,-0.67,-0.04,-0.67,-0.03,0.03,0.83,0.08,-0.64,-0.64,-0.63
287.84,-0.66,-0.05,-0.66,-0.05,0.05,0.83,0.12,-0.61,-0.61,-0.61
290.72,-0.65,-0.07,-0.65,-0.07,0.07,0.84,0.16,-0.59,-0.58,-0.58
293.63,-0.64,-0.09,-0.63,-0.08,0.08,0.85,0.20,-0.56,-0.55,-0.55
296.57,-0.63,-0.11,-0.61,-0.09,0.09,0.86,0.25,-0.54,-0.52,-0.52
299.53,-0.61,-0.12,-0.60,-0.10,0.10,0.86,0.29,-0.51,-0.49,-0.49
302.53,-0.60,-0.13,-0.58,-0.11,0.11,0.87,0.34,-0.49,-0.47,-0.47
305.55,-0.59,-0.16,-0.56,-0.12,0.12,0.89,0.39,-0.47,-0.44,-0.43
308.61,-0.58,-0.17,-0.55,-0.13,0.13,0.90,0.44,-0.45,-0.42,-0.41
311.69,-0.58,-0.20,-0.53,-0.14,0.14,0.91,0.49,-0.44,-0.39,-0.38
314.81,-0.51,-0.15,-0.52,-0.15,0.15,0.92,0.55,-0.36,-0.37,-0.36
317.96,-0.47,-0.13,-0.52,-0.17,0.17,0.94,0.60,-0.30,-0.35,-0.34
321.14,-0.47,-0.14,-0.52,-0.19,0.19,0.95,0.65,-0.28,-0.33,-0.33
324.35,-0.47,-0.16,-0.53,-0.22,0.22,0.97,0.71,-0.26,-0.31,-0.31
327.59,-0.56,-0.26,-0.55,-0.25,0.25,0.98,0.77,-0.31,-0.30,-0.30
330.87,-0.57,-0.28,-0.58,-0.29,0.29,1.00,0.82,-0.28,-0.29,-0.29
334.18,-0.61,-0.34,-0.62,-0.34,0.34,1.02,0.88,-0.27,-0.28,-0.27
337.52,-0.66,-0.40,-0.67,-0.41,0.41,1.04,0.94,-0.26,-0.26,-0.26
340.90,-0.73,-0.48,-0.73,-0.47,0.47,1.06,1.00,-0.26,-0.26,-0.25
344.30,-0.81,-0.57,-0.80,-0.55,0.55,1.08,1.07,-0.26,-0.25,-0.24
347.75,-0.92,-0.68,-0.90,-0.65,0.65,1.11,1.13,-0.27,-0.24,-0.24
351.23,-1.00,-0.77,-1.00,-0.76,0.76,1.13,1.19,-0.24,-0.24,-0.23
354.74,-1.07,-0.83,-1.12,-0.88,0.88,1.16,1.26,-0.19,-0.24,-0.24
358.28,-1.21,-0.98,-1.24,-1.01,1.01,1.18,1.32,-0.20,-0.23,-0.23
361.87,-1.39,-1.16,-1.38,-1.15,1.15,1.21,1.39,-0.24,-0.23,-0.23
365.49,-1.51,-1.29,-1.53,-1.30,1.30,1.24,1.46,-0.21,-0.23,-0.22
369.14,-1.63,-1.40,-1.69,-1.46,1.46,1.27,1.52,-0.17,-0.23,-0.23
372.83,-1.79,-1.56,-1.86,-1.62,1.62,1.31,1.59,-0.17,-0.23,-0.23
376.56,-1.98,-1.74,-2.02,-1.79,1.79,1.34,1.66,-0.20,-0.24,-0.24
380.33,-2.21,-1.98,-2.19,-1.95,1.95,1.38,1.73,-0.26,-0.24,-0.23
384.13,-2.39,-2.16,-2.36,-2.12,2.12,1.41,1.80,-0.28,-0.24,-0.23
387.97,-2.55,-2.31,-2.52,-2.28,2.28,1.45,1.88,-0.27,-0.25,-0.24
391.85,-2.70,-2.45,-2.69,-2.44,2.44,1.49,1.95,-0.27,-0.25,-0.25
395.77,-2.89,-2.65,-2.85,-2.59,2.59,1.54,2.02,-0.30,-0.26,-0.24
399.73,-3.05,-2.80,-3.00,-2.74,2.74,1.58,2.09,-0.31,-0.26,-0.25
403.72,-3.14,-2.89,-3.14,-2.88,2.88,1.63,2.17,-0.27,-0.27,-0.25
407.76,-3.20,-2.93,-3.27,-3.00,3.00,1.68,2.24,-0.20,-0.27,-0.27
411.84,-3.32,-3.05,-3.38,-3.11,3.11,1.73,2.31,-0.21,-0.27,-0.27
415.96,-3.43,-3.16,-3.47,-3.19,3.19,1.78,2.38,-0.24,-0.27,-0.27
420.12,-3.51,-3.24,-3.52,-3.25,3.25,1.83,2.45,-0.27,-0.27,-0.27
424.32,-3.57,-3.30,-3.54,-3.28,3.28,1.89,2.52,-0.29,-0.27,-0.27
428.56,-3.61,-3.35,-3.54,-3.28,3.28,1.95,2.59,-0.33,-0.26,-0.26
432.85,-3.64,-3.39,-3.50,-3.26,3.26,2.00,2.66,-0.38,-0.24,-0.25
437.18,-3.63,-3.39,-3.43,-3.21,3.21,2.06,2.72,-0.42,-0.22,-0.24
441.55,-3.49,-3.29,-3.34,-3.15,3.15,2.13,2.78,-0.35,-0.20,-0.20
445.96,-3.34,-3.17,-3.24,-3.08,3.08,2.19,2.84,-0.27,-0.16,-0.17
450.42,-3.20,-3.06,-3.14,-3.01,3.01,2.25,2.90,-0.19,-0.13,-0.14
454.93,-3.01,-2.92,-3.02,-2.94,2.94,2.32,2.95,-0.07,-0.09,-0.09
459.48,-2.81,-2.76,-2.90,-2.86,2.86,2.38,3.00,0.05,-0.04,-0.05
464.07,-2.63,-2.63,-2.77,-2.78,2.78,2.45,3.05,0.15,0.00,-0.00
468.71,-2.46,-2.52,-2.65,-2.70,2.70,2.51,3.09,0.23,0.05,0.06
473.40,-2.33,-2.43,-2.53,-2.64,2.64,2.58,3.12,0.30,0.10,0.10
478.13,-2.24,-2.40,-2.44,-2.59,2.59,2.64,3.16,0.35,0.15,0.16
482.91,-2.30,-2.50,-2.36,-2.55,2.55,2.70,3.18,0.25,0.19,0.20
487.74,-2.36,-2.60,-2.28,-2.52,2.52,2.76,3.20,0.16,0.23,0.24
492.62,-2.36,-2.65,-2.22,-2.49,2.49,2.82,3.22,0.13,0.27,0.29
497.55,-2.36,-2.67,-2.18,-2.48,2.48,2.87,3.23,0.11,0.30,0.31
502.52,-2.21,-2.55,-2.15,-2.47,2.47,2.92,3.23,0.26,0.32,0.34
507.55,-2.11,-2.46,-2.14,-2.48,2.48,2.97,3.23,0.37,0.34,0.35
