frequency,raw,error,smoothed,error_smoothed,equalization,parametric_eq,fixed_band_eq,equalized_raw,equalized_smoothed,target
20.00,-1.55,-10.14,-1.55,-10.14,10.14,9.74,4.48,8.60,8.60,8.59
20.20,-1.54,-10.13,-1.53,-10.13,10.13,9.77,4.60,8.59,8.59,8.59
20.40,-1.52,-10.11,-1.52,-10.11,10.11,9.80,4.72,8.59,8.59,8.59
20.61,-1.50,-10.09,-1.50,-10.09,10.09,9.83,4.84,8.59,8.59,8.59
20.81,-1.48,-10.06,-1.48,-10.07,10.07,9.85,4.97,8.59,8.59,8.58
21.02,-1.47,-10.04,-1.47,-10.05,10.05,9.88,5.11,8.58,8.58,8.58
21.23,-1.46,-10.03,-1.45,-10.03,10.03,9.90,5.24,8.57,8.58,8.58
21.44,-1.44,-10.02,-1.43,-10.01,10.01,9.92,5.38,8.57,8.58,8.59
21.66,-1.42,-9.99,-1.42,-9.99,9.99,9.94,5.52,8.57,8.57,8.58
21.87,-1.41,-9.98,-1.40,-9.97,9.97,9.95,5.67,8.56,8.57,8.58
22.09,-1.39,-9.95,-1.38,-9.95,9.95,9.97,5.82,8.56,8.57,8.56
22.31,-1.37,-9.93,-1.37,-9.93,9.93,9.98,5.98,8.56,8.56,8.56
22.54,-1.36,-9.91,-1.35,-9.91,9.91,9.98,6.14,8.55,8.56,8.55
22.76,-1.34,-9.89,-1.34,-9.89,9.89,9.99,6.30,8.55,8.55,8.55
22.99,-1.32,-9.87,-1.32,-9.87,9.87,10.00,6.47,8.55,8.55,8.55
23.22,-1.31,-9.84,-1.30,-9.84,9.84,10.00,6.64,8.54,8.54,8.54
23.45,-1.29,-9.82,-1.29,-9.82,9.82,10.00,6.81,8.54,8.53,8.54
23.69,-1.27,-9.79,-1.27,-9.80,9.80,9.99,6.99,8.53,8.53,8.53
23.92,-1.26,-9.77,-1.26,-9.78,9.78,9.99,7.18,8.52,8.52,8.51
24.16,-1.24,-9.75,-1.24,-9.76,9.76,9.98,7.37,8.52,8.52,8.51
24.40,-1.24,-9.75,-1.23,-9.74,9.74,9.98,7.56,8.50,8.51,8.51
24.65,-1.22,-9.73,-1.21,-9.72,9.72,9.97,7.75,8.51,8.51,8.51
24.89,-1.20,-9.70,-1.20,-9.70,9.70,9.95,7.95,8.51,8.51,8.51
25.14,-1.19,-9.69,-1.18,-9.68,9.68,9.94,8.16,8.50,8.50,8.51
25.39,-1.17,-9.66,-1.17,-9.67,9.67,9.92,8.36,8.50,8.50,8.50
25.65,-1.16,-9.65,-1.15,-9.65,9.65,9.91,8.57,8.50,8.50,8.49
25.91,-1.14,-9.63,-1.14,-9.64,9.64,9.89,8.78,8.50,8.50,8.49
26.16,-1.13,-9.62,-1.12,-9.62,9.62,9.87,8.99,8.50,8.50,8.50
26.43,-1.11,-9.60,-1.11,-9.61,9.61,9.84,9.20,8.50,8.50,8.50
26.69,-1.10,-9.59,-1.10,-9.59,9.59,9.82,9.42,8.49,8.49,8.50
26.96,-1.08,-9.57,-1.08,-9.57,9.57,9.80,9.63,8.50,8.49,8.49
27.23,-1.07,-9.56,-1.07,-9.56,9.56,9.77,9.84,8.49,8.49,8.49
27.50,-1.06,-9.54,-1.05,-9.54,9.54,9.74,10.04,8.48,8.49,8.49
27.77,-1.05,-9.54,-1.04,-9.52,9.52,9.71,10.25,8.48,8.48,8.50
28.05,-1.03,-9.51,-1.03,-9.51,9.51,9.68,10.44,8.48,8.48,8.48
28.33,-1.02,-9.50,-1.01,-9.49,9.49,9.65,10.63,8.47,8.48,8.48
28.62,-1.00,-9.46,-1.00,-9.47,9.47,9.62,10.81,8.47,8.47,8.47
28.90,-0.99,-9.46,-0.99,-9.45,9.45,9.59,10.98,8.47,8.47,8.47
29.19,-0.97,-9.43,-0.97,-9.43,9.43,9.56,11.14,8.47,8.46,8.46
29.48,-0.97,-9.41,-0.96,-9.41,9.41,9.52,11.28,8.45,8.45,8.45
29.78,-0.95,-9.39,-0.95,-9.40,9.40,9.49,11.41,8.45,8.45,8.44
30.08,-0.94,-9.38,-0.94,-9.38,9.38,9.45,11.52,8.44,8.44,8.44
30.38,-0.93,-9.35,-0.92,-9.36,9.36,9.42,11.61,8.43,8.43,8.43
30.68,-0.92,-9.34,-0.91,-9.34,9.34,9.38,11.68,8.43,8.43,8.42
30.99,-0.91,-9.33,-0.90,-9.32,9.32,9.35,11.73,8.42,8.42,8.42
31.30,-0.89,-9.30,-0.89,-9.31,9.31,9.31,11.76,8.42,8.42,8.42
31.61,-0.88,-9.29,-0.88,-9.29,9.29,9.27,11.77,8.42,8.42,8.41
31.93,-0.87,-9.27,-0.86,-9.28,9.28,9.23,11.75,8.41,8.41,8.41
32.24,-0.86,-9.27,-0.85,-9.26,9.26,9.20,11.72,8.41,8.41,8.41
32.57,-0.84,-9.23,-0.84,-9.24,9.24,9.16,11.67,8.41,8.40,8.40
32.89,-0.83,-9.23,-0.83,-9.23,9.23,9.12,11.60,8.40,8.40,8.40
33.22,-0.82,-9.21,-0.82,-9.21,9.21,9.08,11.51,8.39,8.39,8.40
33.55,-0.81,-9.20,-0.80,-9.19,9.19,9.05,11.40,8.38,8.38,8.39
33.89,-0.80,-9.17,-0.79,-9.17,9.17,9.01,11.29,8.37,8.37,8.38
34.23,-0.79,-9.15,-0.78,-9.14,9.14,8.97,11.16,8.36,8.36,8.36
34.57,-0.77,-9.12,-0.77,-9.12,9.12,8.93,11.02,8.35,8.35,8.36
34.92,-0.76,-9.08,-0.76,-9.09,9.09,8.90,10.88,8.34,8.33,8.33
35.27,-0.75,-9.07,-0.75,-9.06,9.06,8.86,10.72,8.32,8.31,8.32
35.62,-0.74,-9.02,-0.74,-9.03,9.03,8.82,10.57,8.29,8.29,8.29
35.97,-0.74,-9.00,-0.73,-8.99,8.99,8.79,10.41,8.26,8.26,8.27
36.33,-0.73,-8.97,-0.72,-8.96,8.96,8.75,10.25,8.23,8.23,8.24
36.70,-0.72,-8.92,-0.71,-8.92,8.92,8.71,10.09,8.20,8.20,8.20
37.06,-0.71,-8.88,-0.70,-8.88,8.88,8.68,9.92,8.17,8.17,8.18
37.43,-0.70,-8.83,-0.69,-8.84,8.84,8.64,9.76,8.14,8.14,8.14
37.81,-0.68,-8.79,-0.68,-8.79,8.79,8.61,9.61,8.12,8.11,8.11
38.19,-0.68,-8.75,-0.67,-8.75,8.75,8.57,9.45,8.08,8.08,8.07
38.57,-0.67,-8.71,-0.66,-8.71,8.71,8.54,9.30,8.04,8.05,8.04
38.95,-0.65,-8.66,-0.65,-8.67,8.67,8.51,9.15,8.02,8.01,8.01
39.34,-0.65,-8.62,-0.64,-8.63,8.63,8.47,9.00,7.98,7.98,7.97
39.74,-0.64,-8.58,-0.63,-8.58,8.58,8.44,8.86,7.95,7.95,7.94
40.14,-0.63,-8.54,-0.62,-8.54,8.54,8.40,8.73,7.92,7.92,7.91
40.54,-0.63,-8.52,-0.61,-8.50,8.50,8.37,8.60,7.88,7.89,7.89
40.94,-0.61,-8.47,-0.61,-8.47,8.47,8.34,8.47,7.86,7.86,7.86
41.35,-0.60,-8.42,-0.60,-8.43,8.43,8.31,8.35,7.83,7.83,7.83
41.76,-0.59,-8.38,-0.59,-8.39,8.39,8.27,8.24,7.81,7.81,7.80
42.18,-0.58,-8.36,-0.58,-8.36,8.36,8.24,8.13,7.78,7.78,7.78
42.60,-0.58,-8.33,-0.57,-8.32,8.32,8.21,8.03,7.75,7.75,7.75
43.03,-0.57,-8.28,-0.57,-8.29,8.29,8.18,7.93,7.72,7.72,7.72
43.46,-0.56,-8.25,-0.56,-8.25,8.25,8.15,7.84,7.70,7.70,7.69
43.90,-0.55,-8.21,-0.55,-8.22,8.22,8.11,7.75,7.67,7.67,7.67
44.33,-0.55,-8.18,-0.54,-8.18,8.18,8.08,7.67,7.64,7.64,7.63
44.78,-0.54,-8.14,-0.54,-8.14,8.14,8.05,7.60,7.61,7.61,7.61
45.23,-0.54,-8.13,-0.53,-8.10,8.10,8.02,7.53,7.57,7.58,7.59
45.68,-0.53,-8.07,-0.52,-8.06,8.06,7.98,7.46,7.54,7.54,7.55
46.13,-0.52,-8.01,-0.51,-8.02,8.02,7.95,7.40,7.50,7.50,7.50
46.60,-0.51,-7.98,-0.51,-7.97,7.97,7.92,7.35,7.47,7.47,7.47
47.06,-0.50,-7.93,-0.50,-7.93,7.93,7.88,7.30,7.43,7.42,7.43
47.53,-0.50,-7.89,-0.49,-7.87,7.87,7.85,7.26,7.38,7.38,7.39
48.01,-0.49,-7.82,-0.49,-7.82,7.82,7.82,7.22,7.34,7.33,7.33
48.49,-0.49,-7.78,-0.48,-7.77,7.77,7.78,7.18,7.28,7.29,7.29
48.97,-0.48,-7.72,-0.47,-7.71,7.71,7.74,7.15,7.24,7.24,7.24
49.46,-0.47,-7.66,-0.47,-7.66,7.66,7.71,7.13,7.19,7.19,7.20
49.96,-0.46,-7.58,-0.46,-7.60,7.60,7.67,7.10,7.15,7.14,7.13
50.46,-0.47,-7.55,-0.46,-7.54,7.54,7.63,7.08,7.08,7.09,7.08
50.96,-0.46,-7.48,-0.45,-7.49,7.49,7.59,7.07,7.03,7.04,7.03
51.47,-0.45,-7.43,-0.44,-7.43,7.43,7.55,7.06,6.98,6.99,6.98
51.99,-0.44,-7.36,-0.44,-7.37,7.37,7.51,7.04,6.94,6.93,6.93
52.51,-0.43,-7.31,-0.43,-7.31,7.31,7.47,7.04,6.89,6.88,6.88
53.03,-0.43,-7.27,-0.43,-7.25,7.25,7.42,7.03,6.83,6.83,6.84
53.56,-0.43,-7.21,-0.42,-7.20,7.20,7.38,7.02,6.77,6.77,6.78
54.10,-0.42,-7.14,-0.42,-7.14,7.14,7.33,7.02,6.73,6.72,6.72
54.64,-0.42,-7.09,-0.41,-7.09,7.09,7.29,7.01,6.67,6.67,6.67
55.18,-0.41,-7.02,-0.41,-7.03,7.03,7.24,7.01,6.63,6.62,6.61
55.74,-0.41,-6.96,-0.41,-6.98,6.98,7.19,7.00,6.58,6.58,6.56
56.29,-0.41,-6.92,-0.40,-6.93,6.93,7.13,6.99,6.52,6.53,6.52
56.86,-0.41,-6.88,-0.40,-6.87,6.87,7.08,6.98,6.47,6.47,6.47
57.42,-0.40,-6.80,-0.40,-6.82,6.82,7.02,6.97,6.42,6.42,6.41
58.00,-0.39,-6.74,-0.39,-6.76,6.76,6.97,6.96,6.37,6.37,6.36
58.58,-0.39,-6.71,-0.39,-6.70,6.70,6.91,6.94,6.31,6.31,6.32
59.16,-0.39,-6.66,-0.38,-6.64,6.64,6.85,6.92,6.25,6.25,6.27
59.76,-0.39,-6.61,-0.38,-6.57,6.57,6.79,6.89,6.19,6.19,6.22
60.35,-0.38,-6.53,-0.38,-6.51,6.51,6.72,6.86,6.13,6.13,6.15
60.96,-0.38,-6.47,-0.37,-6.44,6.44,6.66,6.82,6.07,6.07,6.09
61.57,-0.37,-6.37,-0.37,-6.38,6.38,6.59,6.78,6.01,6.01,6.01
62.18,-0.37,-6.30,-0.36,-6.31,6.31,6.52,6.73,5.94,5.94,5.93
62.80,-0.36,-6.22,-0.36,-6.24,6.24,6.45,6.68,5.88,5.88,5.87
63.43,-0.36,-6.14,-0.35,-6.17,6.17,6.38,6.62,5.81,5.81,5.79
64.07,-0.35,-6.08,-0.35,-6.10,6.10,6.31,6.55,5.75,5.75,5.73
64.71,-0.35,-6.02,-0.35,-6.03,6.03,6.24,6.48,5.68,5.68,5.67
65.35,-0.35,-5.96,-0.34,-5.96,5.96,6.16,6.41,5.61,5.61,5.61
66.01,-0.34,-5.88,-0.34,-5.89,5.89,6.08,6.33,5.55,5.55,5.55
66.67,-0.34,-5.83,-0.34,-5.82,5.82,6.01,6.24,5.48,5.48,5.49
67.33,-0.35,-5.77,-0.34,-5.75,5.75,5.93,6.15,5.41,5.42,5.42
68.01,-0.34,-5.69,-0.33,-5.69,5.69,5.85,6.05,5.35,5.35,5.35
68.69,-0.33,-5.61,-0.33,-5.62,5.62,5.76,5.96,5.29,5.29,5.29
69.37,-0.34,-5.56,-0.33,-5.55,5.55,5.68,5.85,5.22,5.22,5.23
70.07,-0.33,-5.49,-0.33,-5.49,5.49,5.60,5.75,5.16,5.16,5.17
70.77,-0.33,-5.42,-0.33,-5.42,5.42,5.51,5.64,5.09,5.09,5.10
71.48,-0.33,-5.35,-0.32,-5.35,5.35,5.43,5.53,5.02,5.02,5.03
72.19,-0.33,-5.28,-0.32,-5.28,5.28,5.34,5.42,4.95,4.95,4.95
72.91,-0.32,-5.20,-0.32,-5.21,5.21,5.26,5.31,4.89,4.89,4.89
73.64,-0.32,-5.13,-0.32,-5.14,5.14,5.17,5.20,4.82,4.82,4.81
74.38,-0.33,-5.07,-0.32,-5.07,5.07,5.08,5.08,4.74,4.75,4.74
75.12,-0.32,-4.99,-0.32,-5.00,5.00,4.99,4.97,4.69,4.69,4.67
75.87,-0.32,-4.94,-0.32,-4.94,4.94,4.91,4.86,4.62,4.62,4.62
76.63,-0.32,-4.87,-0.32,-4.87,4.87,4.82,4.74,4.56,4.56,4.55
77.40,-0.32,-4.81,-0.32,-4.81,4.81,4.73,4.63,4.49,4.49,4.49
78.17,-0.32,-4.73,-0.32,-4.74,4.74,4.64,4.52,4.43,4.43,4.42
78.95,-0.32,-4.69,-0.31,-4.68,4.68,4.55,4.42,4.36,4.36,4.37
79.74,-0.32,-4.62,-0.31,-4.61,4.61,4.46,4.31,4.30,4.30,4.30
80.54,-0.32,-4.55,-0.31,-4.55,4.55,4.38,4.20,4.24,4.24,4.24
81.35,-0.32,-4.49,-0.31,-4.49,4.49,4.29,4.10,4.17,4.17,4.18
82.16,-0.32,-4.43,-0.31,-4.42,4.42,4.20,4.00,4.11,4.11,4.12
82.98,-0.32,-4.36,-0.31,-4.36,4.36,4.11,3.90,4.05,4.05,4.05
83.81,-0.31,-4.29,-0.31,-4.30,4.30,4.02,3.81,3.99,3.99,3.99
84.65,-0.31,-4.22,-0.31,-4.23,4.23,3.94,3.71,3.93,3.92,3.91
85.50,-0.32,-4.16,-0.31,-4.17,4.17,3.85,3.62,3.85,3.86,3.85
86.35,-0.31,-4.10,-0.31,-4.10,4.10,3.76,3.53,3.80,3.79,3.79
87.22,-0.32,-4.04,-0.31,-4.04,4.04,3.68,3.44,3.72,3.73,3.73
88.09,-0.32,-3.98,-0.31,-3.97,3.97,3.59,3.36,3.66,3.66,3.66
88.97,-0.32,-3.91,-0.31,-3.91,3.91,3.51,3.28,3.59,3.59,3.59
89.86,-0.32,-3.84,-0.32,-3.84,3.84,3.42,3.20,3.53,3.53,3.52
90.76,-0.32,-3.77,-0.32,-3.77,3.77,3.34,3.12,3.46,3.45,3.46
91.66,-0.32,-3.70,-0.32,-3.70,3.70,3.26,3.05,3.39,3.38,3.39
92.58,-0.33,-3.64,-0.32,-3.63,3.63,3.18,2.97,3.31,3.31,3.31
93.51,-0.33,-3.57,-0.32,-3.56,3.56,3.09,2.90,3.23,3.23,3.24
94.44,-0.33,-3.50,-0.33,-3.48,3.48,3.01,2.83,3.16,3.16,3.17
95.39,-0.33,-3.41,-0.33,-3.41,3.41,2.94,2.77,3.08,3.08,3.09
96.34,-0.33,-3.33,-0.33,-3.33,3.33,2.86,2.70,3.01,3.00,3.01
97.30,-0.34,-3.27,-0.33,-3.26,3.26,2.78,2.64,2.92,2.93,2.93
98.28,-0.33,-3.16,-0.33,-3.18,3.18,2.70,2.58,2.85,2.85,2.84
99.26,-0.34,-3.09,-0.33,-3.10,3.10,2.63,2.52,2.77,2.77,2.75
100.25,-0.34,-3.02,-0.34,-3.03,3.03,2.55,2.47,2.69,2.69,2.68
101.25,-0.35,-2.95,-0.34,-2.95,2.95,2.48,2.41,2.61,2.61,2.60
102.27,-0.35,-2.87,-0.34,-2.88,2.88,2.40,2.36,2.53,2.54,2.53
103.29,-0.35,-2.80,-0.34,-2.80,2.80,2.33,2.31,2.46,2.46,2.45
104.32,-0.35,-2.73,-0.35,-2.73,2.73,2.26,2.26,2.39,2.39,2.39
105.37,-0.35,-2.66,-0.35,-2.66,2.66,2.19,2.21,2.32,2.31,2.31
106.42,-0.35,-2.59,-0.35,-2.59,2.59,2.12,2.16,2.25,2.24,2.25
107.48,-0.36,-2.52,-0.35,-2.53,2.53,2.05,2.11,2.17,2.17,2.16
108.56,-0.36,-2.45,-0.36,-2.46,2.46,1.99,2.07,2.10,2.10,2.10
109.64,-0.37,-2.40,-0.36,-2.39,2.39,1.92,2.02,2.02,2.03,2.03
110.74,-0.37,-2.32,-0.36,-2.32,2.32,1.85,1.98,1.95,1.95,1.96
111.85,-0.37,-2.25,-0.37,-2.24,2.24,1.79,1.93,1.88,1.88,1.88
112.97,-0.37,-2.17,-0.37,-2.17,2.17,1.73,1.89,1.80,1.80,1.81
114.10,-0.38,-2.11,-0.38,-2.10,2.10,1.66,1.85,1.72,1.72,1.73
115.24,-0.39,-2.04,-0.38,-2.02,2.02,1.60,1.80,1.64,1.64,1.65
116.39,-0.39,-1.94,-0.38,-1.95,1.95,1.54,1.76,1.56,1.57,1.56
117.55,-0.39,-1.87,-0.39,-1.87,1.87,1.48,1.72,1.49,1.48,1.48
118.73,-0.40,-1.79,-0.39,-1.79,1.79,1.42,1.68,1.40,1.40,1.39
119.92,-0.40,-1.71,-0.40,-1.72,1.72,1.36,1.64,1.32,1.32,1.31
121.12,-0.41,-1.65,-0.40,-1.64,1.64,1.31,1.59,1.23,1.23,1.24
122.33,-0.41,-1.56,-0.41,-1.55,1.55,1.25,1.55,1.15,1.15,1.15
123.55,-0.41,-1.48,-0.41,-1.47,1.47,1.20,1.51,1.07,1.06,1.07
124.79,-0.42,-1.41,-0.42,-1.39,1.39,1.14,1.46,0.98,0.98,0.99
126.03,-0.43,-1.33,-0.42,-1.31,1.31,1.09,1.42,0.89,0.89,0.90
127.29,-0.43,-1.23,-0.43,-1.23,1.23,1.04,1.37,0.81,0.81,0.81
128.57,-0.43,-1.15,-0.43,-1.15,1.15,0.99,1.33,0.73,0.72,0.72
129.85,-0.44,-1.07,-0.44,-1.08,1.08,0.93,1.28,0.64,0.64,0.64
131.15,-0.44,-0.99,-0.44,-1.00,1.00,0.89,1.24,0.56,0.56,0.55
132.46,-0.46,-0.92,-0.45,-0.93,0.93,0.84,1.19,0.47,0.48,0.47
133.79,-0.46,-0.85,-0.45,-0.85,0.85,0.79,1.14,0.40,0.40,0.40
135.12,-0.46,-0.77,-0.46,-0.78,0.78,0.74,1.10,0.33,0.33,0.31
136.48,-0.47,-0.72,-0.46,-0.72,0.72,0.69,1.05,0.25,0.25,0.25
137.84,-0.47,-0.65,-0.47,-0.65,0.65,0.65,1.00,0.19,0.18,0.19
139.22,-0.48,-0.58,-0.48,-0.59,0.59,0.60,0.95,0.12,0.11,0.11
140.61,-0.49,-0.54,-0.48,-0.53,0.53,0.56,0.90,0.05,0.05,0.05
142.02,-0.49,-0.47,-0.49,-0.48,0.48,0.52,0.85,-0.01,-0.01,-0.01
143.44,-0.50,-0.42,-0.50,-0.42,0.42,0.47,0.80,-0.08,-0.08,-0.08
144.87,-0.51,-0.37,-0.50,-0.37,0.37,0.43,0.75,-0.14,-0.14,-0.13
146.32,-0.51,-0.31,-0.51,-0.31,0.31,0.39,0.70,-0.19,-0.20,-0.19
147.78,-0.52,-0.26,-0.52,-0.26,0.26,0.35,0.64,-0.25,-0.26,-0.25
149.26,-0.53,-0.21,-0.52,-0.21,0.21,0.31,0.59,-0.32,-0.31,-0.31
150.75,-0.54,-0.15,-0.53,-0.16,0.16,0.27,0.54,-0.38,-0.37,-0.38
152.26,-0.54,-0.11,-0.54,-0.10,0.10,0.24,0.49,-0.43,-0.43,-0.43
153.78,-0.55,-0.05,-0.55,-0.05,0.05,0.20,0.43,-0.49,-0.49,-0.49
155.32,-0.56,-0.01,-0.55,-0.00,0.00,0.16,0.38,-0.55,-0.55,-0.55
156.88,-0.57,0.04,-0.56,0.05,-0.05,0.13,0.33,-0.62,-0.61,-0.61
158.44,-0.57,0.11,-0.57,0.11,-0.11,0.09,0.27,-0.67,-0.67,-0.67
160.03,-0.58,0.16,-0.58,0.16,-0.16,0.06,0.22,-0.74,-0.74,-0.73
161.63,-0.59,0.20,-0.58,0.21,-0.21,0.02,0.16,-0.80,-0.80,-0.79
163.24,-0.60,0.27,-0.59,0.27,-0.27,-0.01,0.11,-0.86,-0.86,-0.87
164.88,-0.60,0.33,-0.60,0.32,-0.32,-0.05,0.05,-0.92,-0.92,-0.92
166.53,-0.61,0.38,-0.61,0.38,-0.38,-0.08,-0.00,-0.98,-0.98,-0.99
168.19,-0.62,0.43,-0.62,0.43,-0.43,-0.11,-0.06,-1.05,-1.05,-1.04
169.87,-0.63,0.48,-0.63,0.48,-0.48,-0.14,-0.12,-1.11,-1.11,-1.11
171.57,-0.64,0.54,-0.63,0.54,-0.54,-0.17,-0.17,-1.17,-1.17,-1.18
173.29,-0.64,0.60,-0.64,0.59,-0.59,-0.20,-0.23,-1.22,-1.23,-1.24
175.02,-0.66,0.64,-0.65,0.64,-0.64,-0.23,-0.29,-1.29,-1.29,-1.29
176.77,-0.67,0.69,-0.66,0.69,-0.69,-0.26,-0.35,-1.35,-1.35,-1.35
178.54,-0.68,0.73,-0.67,0.74,-0.74,-0.29,-0.40,-1.42,-1.41,-1.41
180.32,-0.68,0.80,-0.68,0.79,-0.79,-0.31,-0.46,-1.47,-1.47,-1.47
182.13,-0.70,0.83,-0.69,0.84,-0.84,-0.34,-0.52,-1.53,-1.53,-1.53
183.95,-0.70,0.88,-0.70,0.89,-0.89,-0.37,-0.58,-1.58,-1.59,-1.58
185.79,-0.71,0.93,-0.71,0.94,-0.94,-0.39,-0.64,-1.64,-1.64,-1.64
187.65,-0.72,0.97,-0.72,0.98,-0.98,-0.42,-0.70,-1.70,-1.70,-1.69
189.52,-0.73,1.02,-0.72,1.03,-1.03,-0.44,-0.76,-1.76,-1.75,-1.75
191.42,-0.74,1.07,-0.73,1.07,-1.07,-0.47,-0.82,-1.81,-1.81,-1.81
193.33,-0.74,1.13,-0.74,1.12,-1.12,-0.49,-0.88,-1.85,-1.86,-1.86
195.27,-0.76,1.16,-0.75,1.16,-1.16,-0.52,-0.94,-1.92,-1.91,-1.92
197.22,-0.76,1.22,-0.76,1.20,-1.20,-0.54,-1.00,-1.96,-1.97,-1.97
199.19,-0.78,1.24,-0.77,1.24,-1.24,-0.56,-1.07,-2.02,-2.02,-2.02
201.18,-0.79,1.29,-0.78,1.28,-1.28,-0.58,-1.13,-2.07,-2.06,-2.07
203.19,-0.79,1.33,-0.79,1.32,-1.32,-0.61,-1.19,-2.11,-2.11,-2.11
205.23,-0.81,1.35,-0.80,1.36,-1.36,-0.63,-1.25,-2.16,-2.16,-2.15
207.28,-0.81,1.39,-0.81,1.39,-1.39,-0.65,-1.31,-2.20,-2.20,-2.19
209.35,-0.83,1.42,-0.82,1.43,-1.43,-0.67,-1.37,-2.25,-2.25,-2.24
211.44,-0.84,1.45,-0.83,1.46,-1.46,-0.69,-1.43,-2.29,-2.29,-2.28
213.56,-0.84,1.49,-0.84,1.49,-1.49,-0.71,-1.48,-2.32,-2.33,-2.33
215.69,-0.85,1.52,-0.85,1.51,-1.51,-0.73,-1.54,-2.36,-2.36,-2.36
217.85,-0.86,1.54,-0.86,1.54,-1.54,-0.75,-1.60,-2.40,-2.40,-2.40
220.03,-0.87,1.58,-0.87,1.57,-1.57,-0.77,-1.65,-2.43,-2.44,-2.44
222.23,-0.89,1.59,-0.88,1.59,-1.59,-0.78,-1.70,-2.48,-2.47,-2.48
224.45,-0.90,1.62,-0.89,1.61,-1.61,-0.80,-1.75,-2.51,-2.51,-2.51
226.70,-0.91,1.64,-0.91,1.64,-1.64,-0.82,-1.80,-2.54,-2.54,-2.54
228.96,-0.92,1.65,-0.92,1.66,-1.66,-0.84,-1.85,-2.57,-2.57,-2.56
231.25,-0.93,1.67,-0.93,1.68,-1.68,-0.85,-1.89,-2.60,-2.60,-2.60
233.57,-0.95,1.68,-0.94,1.69,-1.69,-0.87,-1.93,-2.64,-2.63,-2.63
235.90,-0.96,1.71,-0.95,1.71,-1.71,-0.89,-1.96,-2.66,-2.66,-2.66
238.26,-0.97,1.73,-0.96,1.72,-1.72,-0.90,-2.00,-2.69,-2.68,-2.69
240.64,-0.98,1.73,-0.97,1.73,-1.73,-0.92,-2.03,-2.71,-2.71,-2.70
243.05,-0.98,1.75,-0.99,1.74,-1.74,-0.93,-2.05,-2.72,-2.73,-2.73
245.48,-1.00,1.76,-1.00,1.75,-1.75,-0.95,-2.08,-2.75,-2.75,-2.76
247.93,-1.01,1.78,-1.01,1.76,-1.76,-0.96,-2.09,-2.77,-2.77,-2.78
250.41,-1.02,1.77,-1.02,1.77,-1.77,-0.98,-2.11,-2.79,-2.79,-2.79
252.92,-1.03,1.78,-1.03,1.78,-1.78,-0.99,-2.12,-2.81,-2.81,-2.80
255.45,-1.05,1.78,-1.04,1.79,-1.79,-1.00,-2.13,-2.83,-2.83,-2.83
258.00,-1.06,1.79,-1.05,1.79,-1.79,-1.02,-2.13,-2.85,-2.85,-2.84
260.58,-1.07,1.79,-1.06,1.80,-1.80,-1.03,-2.13,-2.86,-2.86,-2.86
263.19,-1.08,1.80,-1.07,1.80,-1.80,-1.04,-2.13,-2.88,-2.88,-2.88
265.82,-1.09,1.81,-1.09,1.81,-1.81,-1.06,-2.13,-2.89,-2.89,-2.89
268.48,-1.10,1.81,-1.10,1.81,-1.81,-1.07,-2.12,-2.91,-2.91,-2.90
271.16,-1.11,1.82,-1.11,1.82,-1.82,-1.08,-2.11,-2.92,-2.93,-2.93
273.87,-1.13,1.81,-1.12,1.82,-1.82,-1.09,-2.09,-2.94,-2.94,-2.94
276.61,-1.14,1.82,-1.13,1.82,-1.82,-1.10,-2.07,-2.96,-2.95,-2.96
279.38,-1.15,1.83,-1.14,1.82,-1.82,-1.12,-2.06,-2.97,-2.97,-2.98
282.17,-1.16,1.83,-1.16,1.82,-1.82,-1.13,-2.03,-2.98,-2.98,-2.99
284.99,-1.17,1.82,-1.17,1.83,-1.83,-1.14,-2.01,-2.99,-2.99,-2.99
287.84,-1.19,1.81,-1.18,1.83,-1.83,-1.15,-1.99,-3.01,-3.01,-3.00
290.72,-1.19,1.84,-1.19,1.82,-1.82,-1.16,-1.96,-3.01,-3.02,-3.03
293.63,-1.21,1.82,-1.20,1.82,-1.82,-1.17,-1.94,-3.03,-3.03,-3.03
296.57,-1.22,1.82,-1.22,1.82,-1.82,-1.18,-1.91,-3.04,-3.04,-3.03
299.53,-1.23,1.82,-1.23,1.82,-1.82,-1.19,-1.88,-3.04,-3.04,-3.04
302.53,-1.25,1.80,-1.24,1.81,-1.81,-1.20,-1.86,-3.06,-3.05,-3.05
305.55,-1.26,1.80,-1.25,1.81,-1.81,-1.21,-1.83,-3.06,-3.06,-3.06
308.61,-1.27,1.80,-1.26,1.80,-1.80,-1.21,-1.80,-3.07,-3.06,-3.07
311.69,-1.28,1.80,-1.28,1.80,-1.80,-1.22,-1.77,-3.07,-3.07,-3.07
314.81,-1.29,1.79,-1.29,1.79,-1.79,-1.23,-1.75,-3.07,-3.08,-3.08
317.96,-1.30,1.79,-1.30,1.78,-1.78,-1.24,-1.72,-3.08,-3.08,-3.09
321.14,-1.31,1.78,-1.31,1.78,-1.78,-1.25,-1.70,-3.08,-3.09,-3.08
324.35,-1.33,1.77,-1.32,1.77,-1.77,-1.26,-1.67,-3.09,-3.09,-3.10
327.59,-1.34,1.75,-1.33,1.76,-1.76,-1.26,-1.65,-3.09,-3.09,-3.08
330.87,-1.35,1.74,-1.34,1.75,-1.75,-1.27,-1.63,-3.10,-3.09,-3.09
334.18,-1.36,1.75,-1.36,1.74,-1.74,-1.28,-1.60,-3.10,-3.10,-3.10
337.52,-1.37,1.73,-1.37,1.73,-1.73,-1.29,-1.58,-3.10,-3.10,-3.10
340.90,-1.38,1.73,-1.38,1.72,-1.72,-1.29,-1.56,-3.10,-3.10,-3.10
344.30,-1.40,1.70,-1.39,1.71,-1.71,-1.30,-1.55,-3.10,-3.10,-3.10
347.75,-1.41,1.69,-1.40,1.70,-1.70,-1.31,-1.53,-3.10,-3.10,-3.09
351.23,-1.41,1.70,-1.41,1.69,-1.69,-1.31,-1.51,-3.09,-3.10,-3.11
354.74,-1.43,1.67,-1.42,1.68,-1.68,-1.32,-1.50,-3.10,-3.10,-3.09
358.28,-1.44,1.67,-1.43,1.67,-1.67,-1.32,-1.48,-3.10,-3.10,-3.11
361.87,-1.45,1.66,-1.45,1.66,-1.66,-1.33,-1.47,-3.10,-3.10,-3.10
365.49,-1.46,1.65,-1.46,1.65,-1.65,-1.34,-1.46,-3.10,-3.10,-3.10
369.14,-1.48,1.62,-1.47,1.64,-1.64,-1.34,-1.45,-3.11,-3.10,-3.10
372.83,-1.48,1.63,-1.48,1.63,-1.63,-1.35,-1.44,-3.10,-3.10,-3.10
376.56,-1.49,1.62,-1.49,1.61,-1.61,-1.35,-1.43,-3.10,-3.10,-3.10
380.33,-1.50,1.61,-1.50,1.60,-1.60,-1.36,-1.43,-3.10,-3.10,-3.11
384.13,-1.51,1.61,-1.51,1.60,-1.60,-1.36,-1.42,-3.10,-3.11,-3.11
387.97,-1.53,1.58,-1.52,1.58,-1.58,-1.37,-1.42,-3.11,-3.11,-3.10
391.85,-1.54,1.57,-1.53,1.57,-1.57,-1.37,-1.42,-3.11,-3.11,-3.11
395.77,-1.55,1.56,-1.54,1.56,-1.56,-1.38,-1.41,-3.11,-3.11,-3.11
399.73,-1.56,1.56,-1.55,1.55,-1.55,-1.38,-1.41,-3.11,-3.11,-3.11
403.72,-1.57,1.54,-1.56,1.54,-1.54,-1.38,-1.41,-3.11,-3.11,-3.11
407.76,-1.58,1.53,-1.57,1.53,-1.53,-1.39,-1.41,-3.11,-3.11,-3.11
411.84,-1.59,1.52,-1.58,1.53,-1.53,-1.39,-1.41,-3.11,-3.11,-3.11
415.96,-1.59,1.52,-1.59,1.52,-1.52,-1.39,-1.41,-3.10,-3.11,-3.10
420.12,-1.61,1.51,-1.60,1.51,-1.51,-1.40,-1.42,-3.11,-3.11,-3.11
424.32,-1.62,1.50,-1.61,1.50,-1.50,-1.40,-1.42,-3.12,-3.11,-3.12
428.56,-1.63,1.48,-1.62,1.49,-1.49,-1.40,-1.42,-3.12,-3.12,-3.11
432.85,-1.63,1.49,-1.63,1.49,-1.49,-1.41,-1.42,-3.11,-3.12,-3.11
437.18,-1.65,1.48,-1.64,1.48,-1.48,-1.41,-1.43,-3.12,-3.12,-3.12
441.55,-1.65,1.48,-1.65,1.47,-1.47,-1.41,-1.43,-3.12,-3.12,-3.12
445.96,-1.66,1.47,-1.66,1.46,-1.46,-1.41,-1.43,-3.12,-3.12,-3.13
450.42,-1.67,1.46,-1.67,1.45,-1.45,-1.41,-1.43,-3.12,-3.12,-3.13
454.93,-1.68,1.45,-1.68,1.45,-1.45,-1.42,-1.44,-3.12,-3.13,-3.13
459.48,-1.70,1.44,-1.69,1.44,-1.44,-1.42,-1.44,-3.13,-3.13,-3.13
464.07,-1.70,1.43,-1.70,1.43,-1.43,-1.42,-1.44,-3.13,-3.13,-3.12
468.71,-1.71,1.42,-1.70,1.42,-1.42,-1.42,-1.44,-3.13,-3.13,-3.12
473.40,-1.72,1.41,-1.71,1.41,-1.41,-1.42,-1.44,-3.13,-3.13,-3.13
