frequency,raw,error,smoothed,error_smoothed,equalization,parametric_eq,fixed_band_eq,equalized_raw,equalized_smoothed,target
20.00,9.96,-2.22,10.50,-1.69,1.69,1.35,0.27,11.64,12.18,12.18
20.20,10.20,-1.97,10.49,-1.69,1.69,1.36,0.28,11.88,12.17,12.17
20.40,10.43,-1.73,10.49,-1.68,1.68,1.37,0.29,12.11,12.16,12.16
20.61,10.66,-1.50,10.49,-1.67,1.67,1.38,0.30,12.33,12.16,12.16
20.81,10.91,-1.23,10.49,-1.66,1.66,1.38,0.31,12.56,12.15,12.14
21.02,11.10,-1.04,10.50,-1.64,1.64,1.38,0.32,12.74,12.14,12.14
21.23,10.93,-1.20,10.51,-1.62,1.62,1.38,0.34,12.55,12.13,12.13
21.44,10.76,-1.38,10.53,-1.60,1.60,1.38,0.35,12.36,12.12,12.14
21.66,10.60,-1.53,10.55,-1.57,1.57,1.37,0.36,12.17,12.12,12.13
21.87,10.42,-1.70,10.57,-1.54,1.54,1.37,0.37,11.96,12.11,12.12
22.09,10.36,-1.75,10.60,-1.51,1.51,1.35,0.39,11.86,12.11,12.11
22.31,10.44,-1.67,10.63,-1.47,1.47,1.34,0.40,11.91,12.10,12.11
22.54,10.52,-1.58,10.61,-1.49,1.49,1.33,0.42,12.01,12.10,12.10
22.76,10.61,-1.48,10.60,-1.49,1.49,1.31,0.43,12.10,12.09,12.09
22.99,10.69,-1.39,10.62,-1.47,1.47,1.29,0.45,12.15,12.09,12.08
23.22,10.71,-1.36,10.66,-1.42,1.42,1.26,0.46,12.13,12.09,12.07
23.45,10.74,-1.34,10.75,-1.34,1.34,1.24,0.48,12.07,12.08,12.08
23.69,10.76,-1.31,10.87,-1.21,1.21,1.21,0.49,11.98,12.08,12.07
23.92,10.79,-1.28,11.00,-1.08,1.08,1.18,0.51,11.87,12.08,12.07
24.16,10.94,-1.14,11.13,-0.95,0.95,1.15,0.53,11.89,12.08,12.08
24.40,11.15,-0.94,11.22,-0.85,0.85,1.12,0.54,12.00,12.08,12.09
24.65,11.34,-0.75,11.28,-0.80,0.80,1.09,0.56,12.14,12.08,12.09
24.89,11.56,-0.53,11.31,-0.78,0.78,1.06,0.58,12.33,12.08,12.09
25.14,11.65,-0.43,11.33,-0.76,0.76,1.02,0.60,12.40,12.08,12.08
25.39,11.66,-0.42,11.37,-0.71,0.71,0.99,0.61,12.37,12.09,12.08
25.65,11.66,-0.42,11.43,-0.65,0.65,0.95,0.63,12.31,12.09,12.08
25.91,11.67,-0.42,11.51,-0.59,0.59,0.92,0.65,12.25,12.09,12.09
26.16,11.54,-0.56,11.55,-0.54,0.54,0.88,0.66,12.08,12.09,12.10
26.43,11.35,-0.75,11.57,-0.53,0.53,0.84,0.68,11.88,12.09,12.10
26.69,11.16,-0.94,11.55,-0.54,0.54,0.81,0.69,11.70,12.09,12.10
26.96,10.96,-1.13,11.52,-0.57,0.57,0.77,0.71,11.53,12.09,12.09
27.23,11.21,-0.88,11.51,-0.58,0.58,0.73,0.72,11.79,12.09,12.09
27.50,11.56,-0.53,11.51,-0.58,0.58,0.70,0.74,12.15,12.09,12.09
27.77,11.92,-0.18,11.53,-0.57,0.57,0.66,0.75,12.49,12.09,12.10
28.05,12.13,0.03,11.52,-0.57,0.57,0.62,0.76,12.70,12.09,12.10
28.33,11.82,-0.26,11.51,-0.58,0.58,0.59,0.77,12.41,12.09,12.08
28.62,11.52,-0.56,11.49,-0.60,0.60,0.55,0.78,12.12,12.09,12.08
28.90,11.20,-0.89,11.50,-0.59,0.59,0.51,0.78,11.79,12.09,12.09
29.19,11.26,-0.83,11.54,-0.55,0.55,0.48,0.79,11.80,12.09,12.09
29.48,11.51,-0.57,11.60,-0.49,0.49,0.44,0.79,11.99,12.08,12.08
29.78,11.75,-0.33,11.66,-0.42,0.42,0.41,0.79,12.18,12.08,12.08
30.08,11.88,-0.21,11.71,-0.36,0.36,0.38,0.79,12.25,12.07,12.09
30.38,11.67,-0.41,11.74,-0.33,0.33,0.34,0.79,11.99,12.07,12.08
30.68,11.44,-0.62,11.76,-0.30,0.30,0.31,0.78,11.74,12.06,12.06
30.99,11.22,-0.84,11.77,-0.29,0.29,0.28,0.78,11.51,12.06,12.06
31.30,11.60,-0.45,11.79,-0.26,0.26,0.24,0.77,11.86,12.05,12.05
31.61,12.02,-0.02,11.85,-0.20,0.20,0.21,0.75,12.22,12.04,12.04
31.93,12.43,0.40,11.91,-0.13,0.13,0.18,0.74,12.56,12.04,12.03
32.24,12.42,0.39,11.96,-0.07,0.07,0.15,0.72,12.49,12.03,12.03
32.57,12.27,0.26,11.96,-0.07,0.07,0.12,0.71,12.33,12.02,12.01
32.89,12.10,0.09,11.93,-0.09,0.09,0.09,0.68,12.20,12.02,12.01
33.22,11.90,-0.11,11.89,-0.12,0.12,0.06,0.66,12.02,12.01,12.01
33.55,11.67,-0.33,11.88,-0.13,0.13,0.03,0.64,11.80,12.01,12.00
33.89,11.45,-0.56,11.88,-0.12,0.12,0.00,0.61,11.56,12.00,12.01
34.23,11.54,-0.45,11.88,-0.11,0.11,-0.03,0.58,11.66,12.00,11.99
34.57,11.82,-0.17,11.87,-0.12,0.12,-0.05,0.55,11.93,11.99,11.99
34.92,12.08,0.10,11.84,-0.14,0.14,-0.08,0.52,12.23,11.99,11.98
35.27,11.97,-0.02,11.81,-0.17,0.17,-0.11,0.48,12.14,11.98,11.99
35.62,11.72,-0.25,11.78,-0.19,0.19,-0.14,0.45,11.90,11.97,11.97
35.97,11.47,-0.50,11.80,-0.16,0.16,-0.16,0.41,11.63,11.96,11.97
36.33,11.69,-0.26,11.84,-0.11,0.11,-0.19,0.37,11.80,11.95,11.95
36.70,11.94,0.00,11.90,-0.04,0.04,-0.22,0.33,11.98,11.93,11.94
37.06,12.16,0.24,11.93,0.02,-0.02,-0.24,0.29,12.14,11.91,11.92
37.43,12.16,0.26,11.94,0.05,-0.05,-0.27,0.25,12.11,11.89,11.90
37.81,12.16,0.28,11.94,0.06,-0.06,-0.29,0.21,12.09,11.87,11.88
38.19,12.07,0.22,11.92,0.07,-0.07,-0.32,0.17,12.00,11.85,11.85
38.57,11.88,0.05,11.91,0.08,-0.08,-0.34,0.13,11.79,11.83,11.83
38.95,11.69,-0.11,11.91,0.12,-0.12,-0.37,0.08,11.57,11.80,11.80
39.34,11.84,0.08,11.94,0.17,-0.17,-0.40,0.04,11.67,11.77,11.76
39.74,12.02,0.28,11.97,0.23,-0.23,-0.42,-0.01,11.80,11.75,11.74
40.14,12.07,0.36,11.99,0.27,-0.27,-0.45,-0.05,11.80,11.72,11.71
40.54,11.85,0.16,11.98,0.29,-0.29,-0.47,-0.10,11.55,11.69,11.69
40.94,11.61,-0.05,11.97,0.31,-0.31,-0.49,-0.15,11.29,11.66,11.66
41.35,11.83,0.19,11.97,0.34,-0.34,-0.52,-0.19,11.49,11.64,11.64
41.76,12.13,0.53,11.99,0.38,-0.38,-0.54,-0.24,11.75,11.61,11.60
42.18,12.26,0.69,12.01,0.43,-0.43,-0.57,-0.29,11.83,11.58,11.58
42.60,12.20,0.65,12.04,0.49,-0.49,-0.59,-0.34,11.72,11.56,11.56
43.03,12.16,0.63,12.07,0.54,-0.54,-0.62,-0.39,11.62,11.53,11.53
43.46,12.16,0.66,12.11,0.61,-0.61,-0.64,-0.43,11.55,11.50,11.50
43.90,12.16,0.68,12.14,0.67,-0.67,-0.67,-0.48,11.49,11.48,11.48
44.33,12.09,0.65,12.16,0.71,-0.71,-0.69,-0.53,11.38,11.45,11.44
44.78,12.01,0.60,12.16,0.74,-0.74,-0.72,-0.58,11.27,11.42,11.41
45.23,12.01,0.61,12.15,0.77,-0.77,-0.74,-0.63,11.24,11.38,11.40
45.68,12.09,0.74,12.13,0.78,-0.78,-0.76,-0.68,11.32,11.35,11.35
46.13,12.16,0.85,12.10,0.78,-0.78,-0.79,-0.74,11.37,11.31,11.31
46.60,12.18,0.90,12.08,0.81,-0.81,-0.81,-0.79,11.37,11.27,11.28
47.06,12.20,0.96,12.07,0.84,-0.84,-0.84,-0.84,11.36,11.23,11.24
47.53,12.27,1.06,12.06,0.87,-0.87,-0.86,-0.89,11.39,11.19,11.21
48.01,12.33,1.17,12.08,0.93,-0.93,-0.89,-0.94,11.39,11.15,11.15
48.49,11.96,0.86,12.11,1.00,-1.00,-0.91,-1.00,10.96,11.11,11.10
48.97,11.59,0.53,12.13,1.07,-1.07,-0.94,-1.05,10.52,11.06,11.06
49.46,11.83,0.81,12.15,1.13,-1.13,-0.96,-1.10,10.70,11.02,11.02
49.96,12.10,1.15,12.16,1.19,-1.19,-0.99,-1.15,10.92,10.97,10.95
50.46,12.26,1.35,12.16,1.23,-1.23,-1.02,-1.21,11.03,10.92,10.91
50.96,12.41,1.55,12.15,1.27,-1.27,-1.04,-1.26,11.14,10.88,10.87
51.47,12.25,1.42,12.13,1.30,-1.30,-1.07,-1.31,10.94,10.83,10.83
51.99,12.07,1.29,12.12,1.34,-1.34,-1.09,-1.37,10.73,10.78,10.78
52.51,12.26,1.52,12.10,1.37,-1.37,-1.12,-1.42,10.89,10.74,10.74
53.03,12.45,1.74,12.09,1.41,-1.41,-1.15,-1.47,11.04,10.69,10.71
53.56,12.18,1.53,12.10,1.46,-1.46,-1.17,-1.52,10.71,10.64,10.65
54.10,11.95,1.35,12.13,1.53,-1.53,-1.20,-1.57,10.42,10.60,10.60
54.64,11.95,1.39,12.12,1.56,-1.56,-1.23,-1.62,10.38,10.56,10.56
55.18,11.94,1.44,12.07,1.55,-1.55,-1.25,-1.67,10.38,10.51,10.50
55.74,11.91,1.46,12.01,1.54,-1.54,-1.28,-1.72,10.36,10.47,10.45
56.29,11.91,1.49,11.99,1.56,-1.56,-1.31,-1.77,10.34,10.43,10.42
56.86,11.94,1.56,11.98,1.60,-1.60,-1.33,-1.82,10.34,10.39,10.38
57.42,11.98,1.66,11.97,1.63,-1.63,-1.36,-1.86,10.34,10.34,10.32
58.00,12.03,1.74,11.97,1.67,-1.67,-1.39,-1.90,10.35,10.29,10.29
58.58,12.13,1.87,11.96,1.71,-1.71,-1.42,-1.95,10.41,10.25,10.26
59.16,12.13,1.91,11.96,1.77,-1.77,-1.45,-1.99,10.37,10.20,10.22
59.76,11.93,1.75,11.99,1.84,-1.84,-1.48,-2.02,10.09,10.15,10.18
60.35,11.85,1.74,11.99,1.89,-1.89,-1.50,-2.06,9.96,10.10,10.11
60.96,11.86,1.80,11.96,1.92,-1.92,-1.53,-2.09,9.94,10.04,10.06
61.57,12.04,2.05,11.94,1.95,-1.95,-1.56,-2.13,10.09,9.99,9.99
62.18,12.10,2.18,11.93,2.00,-2.00,-1.59,-2.16,10.11,9.93,9.92
62.80,11.84,1.98,11.92,2.04,-2.04,-1.62,-2.18,9.79,9.87,9.86
63.43,11.85,2.05,11.91,2.09,-2.09,-1.65,-2.21,9.76,9.82,9.80
64.07,11.96,2.21,11.89,2.13,-2.13,-1.68,-2.23,9.84,9.76,9.75
64.71,11.89,2.20,11.86,2.16,-2.16,-1.71,-2.25,9.72,9.70,9.69
65.35,11.77,2.15,11.83,2.20,-2.20,-1.74,-2.27,9.58,9.63,9.63
66.01,11.65,2.08,11.82,2.25,-2.25,-1.77,-2.29,9.40,9.57,9.57
66.67,11.65,2.12,11.80,2.29,-2.29,-1.80,-2.31,9.35,9.51,9.53
67.33,11.76,2.31,11.76,2.30,-2.30,-1.83,-2.32,9.45,9.45,9.45
68.01,11.97,2.57,11.69,2.30,-2.30,-1.87,-2.34,9.67,9.39,9.40
68.69,11.86,2.53,11.64,2.31,-2.31,-1.90,-2.35,9.55,9.33,9.33
69.37,11.71,2.44,11.61,2.34,-2.34,-1.93,-2.36,9.38,9.27,9.28
70.07,11.58,2.37,11.58,2.38,-2.38,-1.96,-2.38,9.20,9.21,9.21
70.77,11.48,2.33,11.55,2.41,-2.41,-1.99,-2.39,9.07,9.14,9.15
71.48,11.45,2.37,11.52,2.45,-2.45,-2.03,-2.40,9.00,9.08,9.08
72.19,11.45,2.44,11.51,2.50,-2.50,-2.06,-2.41,8.95,9.01,9.01
72.91,11.44,2.49,11.50,2.55,-2.55,-2.09,-2.42,8.89,8.95,8.95
73.64,11.22,2.34,11.48,2.59,-2.59,-2.13,-2.43,8.62,8.89,8.88
74.38,11.23,2.41,11.46,2.63,-2.63,-2.16,-2.44,8.60,8.83,8.82
75.12,11.48,2.73,11.42,2.66,-2.66,-2.19,-2.45,8.82,8.77,8.75
75.87,11.65,2.95,11.40,2.69,-2.69,-2.23,-2.46,8.97,8.71,8.71
76.63,11.53,2.89,11.40,2.75,-2.75,-2.26,-2.48,8.78,8.65,8.64
77.40,11.45,2.86,11.40,2.81,-2.81,-2.30,-2.49,8.64,8.59,8.59
78.17,11.48,2.95,11.39,2.86,-2.86,-2.33,-2.51,8.62,8.54,8.53
78.95,11.49,3.00,11.37,2.89,-2.89,-2.36,-2.53,8.60,8.48,8.49
79.74,11.31,2.88,11.34,2.91,-2.91,-2.40,-2.55,8.39,8.43,8.43
80.54,11.25,2.88,11.31,2.94,-2.94,-2.43,-2.57,8.30,8.37,8.37
81.35,11.24,2.92,11.28,2.97,-2.97,-2.47,-2.59,8.27,8.32,8.32
82.16,11.21,2.94,11.25,2.99,-2.99,-2.50,-2.61,8.22,8.26,8.27
82.98,11.15,2.94,11.20,3.00,-3.00,-2.54,-2.64,8.15,8.20,8.21
83.81,11.18,3.03,11.15,3.00,-3.00,-2.58,-2.67,8.17,8.15,8.15
84.65,11.18,3.09,11.10,3.02,-3.02,-2.61,-2.70,8.16,8.09,8.09
85.50,11.07,3.05,11.08,3.05,-3.05,-2.65,-2.73,8.02,8.03,8.02
86.35,10.95,2.99,11.05,3.09,-3.09,-2.68,-2.76,7.86,7.97,7.96
87.22,10.95,3.04,11.02,3.12,-3.12,-2.72,-2.80,7.83,7.91,7.91
88.09,10.97,3.13,11.00,3.15,-3.15,-2.76,-2.84,7.81,7.85,7.84
88.97,11.12,3.33,10.98,3.20,-3.20,-2.79,-2.88,7.92,7.78,7.79
89.86,10.97,3.26,10.96,3.24,-3.24,-2.83,-2.92,7.72,7.72,7.71
90.76,10.92,3.27,10.94,3.29,-3.29,-2.87,-2.97,7.63,7.65,7.65
91.66,10.97,3.40,10.91,3.33,-3.33,-2.90,-3.02,7.64,7.58,7.58
92.58,10.89,3.37,10.89,3.37,-3.37,-2.94,-3.06,7.51,7.51,7.52
93.51,10.81,3.36,10.85,3.41,-3.41,-2.98,-3.12,7.39,7.44,7.45
94.44,10.85,3.47,10.82,3.45,-3.45,-3.01,-3.17,7.39,7.37,7.38
95.39,10.81,3.51,10.79,3.50,-3.50,-3.05,-3.23,7.31,7.29,7.30
96.34,10.69,3.47,10.74,3.53,-3.53,-3.09,-3.28,7.15,7.21,7.22
97.30,10.72,3.58,10.69,3.56,-3.56,-3.13,-3.34,7.16,7.13,7.14
98.28,10.72,3.67,10.64,3.59,-3.59,-3.16,-3.40,7.13,7.05,7.05
99.26,10.60,3.64,10.58,3.61,-3.61,-3.20,-3.47,6.99,6.97,6.96
100.25,10.57,3.69,10.53,3.64,-3.64,-3.24,-3.53,6.93,6.89,6.88
101.25,10.43,3.62,10.47,3.66,-3.66,-3.27,-3.59,6.76,6.81,6.81
102.27,10.38,3.66,10.41,3.69,-3.69,-3.31,-3.66,6.69,6.73,6.72
103.29,10.35,3.71,10.35,3.71,-3.71,-3.35,-3.73,6.64,6.64,6.64
104.32,10.30,3.73,10.29,3.73,-3.73,-3.38,-3.79,6.56,6.56,6.57
105.37,10.22,3.73,10.23,3.75,-3.75,-3.42,-3.86,6.47,6.48,6.49
106.42,10.19,3.79,10.17,3.77,-3.77,-3.46,-3.93,6.42,6.40,6.40
107.48,10.14,3.83,10.11,3.79,-3.79,-3.49,-3.99,6.34,6.32,6.31
108.56,10.06,3.81,10.05,3.81,-3.81,-3.53,-4.06,6.24,6.24,6.25
109.64,9.96,3.80,10.00,3.84,-3.84,-3.57,-4.12,6.12,6.16,6.16
110.74,9.92,3.84,9.95,3.87,-3.87,-3.60,-4.19,6.05,6.09,6.08
111.85,9.94,3.93,9.90,3.89,-3.89,-3.64,-4.25,6.04,6.01,6.01
112.97,9.86,3.92,9.85,3.92,-3.92,-3.68,-4.30,5.94,5.93,5.94
114.10,9.77,3.90,9.80,3.94,-3.94,-3.71,-4.36,5.82,5.86,5.87
115.24,9.79,4.00,9.75,3.96,-3.96,-3.75,-4.41,5.82,5.79,5.79
116.39,9.73,4.02,9.70,3.98,-3.98,-3.78,-4.46,5.74,5.72,5.71
117.55,9.69,4.04,9.66,4.01,-4.01,-3.82,-4.50,5.68,5.65,5.65
118.73,9.65,4.08,9.62,4.03,-4.03,-3.85,-4.54,5.61,5.59,5.57
119.92,9.59,4.08,9.58,4.06,-4.06,-3.88,-4.58,5.53,5.52,5.51
121.12,9.53,4.07,9.55,4.09,-4.09,-3.92,-4.61,5.44,5.46,5.46
122.33,9.47,4.08,9.51,4.12,-4.12,-3.95,-4.64,5.35,5.39,5.39
123.55,9.42,4.08,9.47,4.14,-4.14,-3.98,-4.66,5.28,5.33,5.34
124.79,9.41,4.13,9.43,4.16,-4.16,-4.02,-4.67,5.25,5.27,5.28
126.03,9.42,4.21,9.39,4.19,-4.19,-4.05,-4.68,5.23,5.20,5.21
127.29,9.36,4.21,9.36,4.21,-4.21,-4.08,-4.69,5.14,5.14,5.15
128.57,9.33,4.24,9.32,4.23,-4.23,-4.11,-4.69,5.09,5.09,5.09
129.85,9.34,4.32,9.28,4.26,-4.26,-4.14,-4.68,5.08,5.03,5.02
131.15,9.27,4.31,9.24,4.28,-4.28,-4.17,-4.67,4.99,4.97,4.96
132.46,9.21,4.31,9.20,4.30,-4.30,-4.20,-4.65,4.91,4.91,4.90
133.79,9.16,4.32,9.17,4.32,-4.32,-4.23,-4.64,4.84,4.85,4.84
135.12,9.10,4.32,9.12,4.34,-4.34,-4.26,-4.61,4.76,4.79,4.78
136.48,9.07,4.33,9.08,4.35,-4.35,-4.29,-4.59,4.71,4.73,4.74
137.84,9.06,4.38,9.03,4.36,-4.36,-4.31,-4.56,4.69,4.67,4.68
139.22,9.00,4.40,8.98,4.37,-4.37,-4.34,-4.52,4.63,4.61,4.60
140.61,8.95,4.39,8.92,4.37,-4.37,-4.36,-4.49,4.58,4.55,4.56
142.02,8.88,4.38,8.87,4.38,-4.38,-4.39,-4.45,4.50,4.50,4.50
143.44,8.79,4.36,8.82,4.38,-4.38,-4.41,-4.41,4.40,4.44,4.43
144.87,8.76,4.38,8.77,4.38,-4.38,-4.44,-4.37,4.37,4.38,4.38
146.32,8.75,4.42,8.72,4.39,-4.39,-4.46,-4.33,4.35,4.33,4.33
147.78,8.67,4.40,8.67,4.40,-4.40,-4.48,-4.29,4.27,4.27,4.27
149.26,8.59,4.37,8.61,4.40,-4.40,-4.50,-4.25,4.19,4.22,4.22
150.75,8.56,4.41,8.56,4.40,-4.40,-4.52,-4.21,4.15,4.16,4.15
152.26,8.50,4.39,8.51,4.41,-4.41,-4.54,-4.18,4.09,4.10,4.11
153.78,8.46,4.41,8.46,4.41,-4.41,-4.56,-4.14,4.04,4.05,4.05
155.32,8.46,4.46,8.42,4.43,-4.43,-4.58,-4.10,4.03,3.99,4.00
156.88,8.42,4.48,8.38,4.44,-4.44,-4.59,-4.07,3.97,3.93,3.94
158.44,8.30,4.42,8.33,4.45,-4.45,-4.61,-4.03,3.84,3.87,3.88
160.03,8.26,4.44,8.28,4.46,-4.46,-4.62,-4.00,3.79,3.82,3.82
161.63,8.21,4.45,8.23,4.47,-4.47,-4.63,-3.97,3.73,3.76,3.76
163.24,8.16,4.47,8.18,4.49,-4.49,-4.65,-3.95,3.67,3.70,3.69
164.88,8.14,4.50,8.14,4.50,-4.50,-4.66,-3.92,3.63,3.64,3.64
166.53,8.15,4.58,8.09,4.52,-4.52,-4.67,-3.90,3.63,3.58,3.57
168.19,8.08,4.56,8.04,4.52,-4.52,-4.67,-3.89,3.55,3.52,3.52
169.87,8.03,4.57,7.98,4.53,-4.53,-4.68,-3.87,3.50,3.45,3.46
171.57,7.93,4.54,7.93,4.53,-4.53,-4.69,-3.86,3.39,3.40,3.39
173.29,7.82,4.49,7.87,4.53,-4.53,-4.69,-3.85,3.28,3.34,3.33
175.02,7.78,4.50,7.81,4.53,-4.53,-4.70,-3.84,3.25,3.28,3.28
176.77,7.81,4.58,7.75,4.52,-4.52,-4.70,-3.84,3.28,3.23,3.23
178.54,7.73,4.56,7.69,4.52,-4.52,-4.70,-3.84,3.21,3.17,3.17
180.32,7.67,4.56,7.64,4.52,-4.52,-4.70,-3.84,3.14,3.12,3.11
182.13,7.58,4.51,7.59,4.52,-4.52,-4.70,-3.85,3.06,3.07,3.07
183.95,7.47,4.45,7.53,4.51,-4.51,-4.70,-3.86,2.96,3.02,3.02
185.79,7.45,4.48,7.47,4.50,-4.50,-4.69,-3.87,2.95,2.97,2.97
187.65,7.43,4.50,7.42,4.50,-4.50,-4.69,-3.88,2.93,2.93,2.93
189.52,7.38,4.50,7.38,4.50,-4.50,-4.68,-3.90,2.87,2.88,2.88
191.42,7.28,4.43,7.34,4.51,-4.51,-4.67,-3.92,2.77,2.84,2.85
193.33,7.24,4.44,7.30,4.51,-4.51,-4.66,-3.94,2.73,2.79,2.80
195.27,7.33,4.58,7.25,4.50,-4.50,-4.65,-3.96,2.83,2.75,2.75
197.22,7.35,4.65,7.21,4.50,-4.50,-4.64,-3.99,2.85,2.71,2.70
199.19,7.16,4.49,7.17,4.50,-4.50,-4.63,-4.02,2.66,2.67,2.67
201.18,7.06,4.44,7.12,4.49,-4.49,-4.61,-4.05,2.56,2.63,2.62
203.19,7.05,4.46,7.07,4.48,-4.48,-4.60,-4.08,2.56,2.59,2.59
205.23,7.02,4.47,7.02,4.47,-4.47,-4.58,-4.11,2.54,2.55,2.55
207.28,7.08,4.56,6.96,4.45,-4.45,-4.56,-4.15,2.62,2.51,2.52
209.35,6.99,4.51,6.90,4.43,-4.43,-4.54,-4.18,2.55,2.47,2.48
211.44,6.79,4.36,6.85,4.42,-4.42,-4.52,-4.22,2.37,2.43,2.43
213.56,6.76,4.36,6.79,4.39,-4.39,-4.50,-4.25,2.36,2.39,2.40
215.69,6.73,4.37,6.73,4.37,-4.37,-4.48,-4.28,2.36,2.36,2.36
217.85,6.72,4.39,6.66,4.34,-4.34,-4.45,-4.32,2.38,2.32,2.33
220.03,6.54,4.26,6.60,4.30,-4.30,-4.42,-4.35,2.23,2.29,2.28
222.23,6.46,4.20,6.55,4.29,-4.29,-4.40,-4.38,2.17,2.26,2.26
224.45,6.50,4.27,6.50,4.27,-4.27,-4.37,-4.41,2.23,2.23,2.23
226.70,6.46,4.26,6.45,4.24,-4.24,-4.34,-4.43,2.22,2.21,2.20
228.96,6.42,4.24,6.39,4.20,-4.20,-4.30,-4.45,2.21,2.19,2.18
231.25,6.35,4.18,6.33,4.17,-4.17,-4.27,-4.47,2.18,2.17,2.17
233.57,6.32,4.18,6.29,4.14,-4.14,-4.24,-4.49,2.17,2.15,2.14
235.90,6.26,4.13,6.26,4.12,-4.12,-4.20,-4.50,2.13,2.14,2.13
238.26,6.24,4.13,6.21,4.09,-4.09,-4.16,-4.50,2.15,2.12,2.11
240.64,6.10,3.98,6.18,4.07,-4.07,-4.13,-4.50,2.03,2.11,2.12
243.05,6.08,3.97,6.14,4.04,-4.04,-4.09,-4.49,2.04,2.10,2.11
245.48,6.21,4.12,6.09,4.00,-4.00,-4.05,-4.48,2.21,2.10,2.09
247.93,6.08,4.01,6.04,3.95,-3.95,-4.00,-4.47,2.13,2.09,2.08
250.41,5.88,3.79,6.00,3.91,-3.91,-3.96,-4.44,1.96,2.08,2.09
252.92,5.92,3.83,5.94,3.87,-3.87,-3.92,-4.41,2.05,2.07,2.09
255.45,5.96,3.89,5.89,3.82,-3.82,-3.87,-4.38,2.13,2.06,2.07
258.00,5.92,3.86,5.83,3.77,-3.77,-3.83,-4.34,2.14,2.05,2.06
260.58,5.84,3.79,5.77,3.72,-3.72,-3.78,-4.29,2.12,2.05,2.05
263.19,5.71,3.67,5.71,3.67,-3.67,-3.73,-4.23,2.03,2.03,2.04
265.82,5.69,3.67,5.65,3.63,-3.63,-3.68,-4.18,2.06,2.02,2.02
268.48,5.48,3.46,5.59,3.58,-3.58,-3.63,-4.11,1.89,2.01,2.02
271.16,5.43,3.43,5.53,3.53,-3.53,-3.58,-4.05,1.89,2.00,2.00
273.87,5.61,3.62,5.46,3.48,-3.48,-3.53,-3.97,2.13,1.98,1.99
276.61,5.41,3.44,5.41,3.44,-3.44,-3.48,-3.90,1.97,1.97,1.97
279.38,5.21,3.27,5.36,3.39,-3.39,-3.42,-3.82,1.81,1.96,1.94
282.17,5.26,3.32,5.29,3.34,-3.34,-3.37,-3.73,1.92,1.95,1.94
284.99,5.25,3.31,5.24,3.29,-3.29,-3.31,-3.65,1.96,1.95,1.94
287.84,5.21,3.27,5.19,3.25,-3.25,-3.26,-3.56,1.96,1.94,1.94
290.72,5.22,3.30,5.14,3.20,-3.20,-3.20,-3.47,2.01,1.93,1.92
293.63,5.10,3.17,5.10,3.17,-3.17,-3.14,-3.38,1.93,1.93,1.93
296.57,5.05,3.12,5.05,3.12,-3.12,-3.08,-3.28,1.92,1.92,1.93
299.53,4.97,3.05,4.98,3.06,-3.06,-3.02,-3.19,1.90,1.92,1.92
302.53,4.93,3.00,4.92,3.00,-3.00,-2.96,-3.10,1.93,1.92,1.93
305.55,4.89,2.97,4.85,2.93,-2.93,-2.90,-3.00,1.95,1.92,1.92
308.61,4.82,2.89,4.80,2.88,-2.88,-2.84,-2.91,1.93,1.92,1.93
311.69,4.77,2.86,4.75,2.83,-2.83,-2.78,-2.81,1.93,1.91,1.91
314.81,4.71,2.79,4.67,2.76,-2.76,-2.71,-2.72,1.94,1.91,1.92
317.96,4.59,2.69,4.59,2.68,-2.68,-2.65,-2.62,1.90,1.91,1.90
321.14,4.47,2.56,4.52,2.61,-2.61,-2.58,-2.53,1.85,1.91,1.91
324.35,4.48,2.58,4.45,2.55,-2.55,-2.52,-2.44,1.93,1.90,1.90
327.59,4.27,2.36,4.39,2.49,-2.49,-2.45,-2.35,1.78,1.90,1.91
330.87,4.23,2.33,4.32,2.42,-2.42,-2.39,-2.26,1.80,1.90,1.90
334.18,4.40,2.51,4.25,2.35,-2.35,-2.32,-2.17,2.04,1.90,1.89
337.52,4.25,2.35,4.18,2.28,-2.28,-2.26,-2.08,1.97,1.90,1.90
340.90,4.12,2.23,4.10,2.20,-2.20,-2.19,-2.00,1.91,1.90,1.89
344.30,4.10,2.20,4.04,2.14,-2.14,-2.12,-1.91,1.96,1.90,1.90
347.75,3.85,1.94,3.97,2.07,-2.07,-2.05,-1.83,1.78,1.90,1.91
351.23,3.83,1.94,3.91,2.00,-2.00,-1.98,-1.75,1.82,1.91,1.89
354.74,4.00,2.09,3.86,1.95,-1.95,-1.91,-1.67,2.04,1.91,1.91
358.28,3.85,1.94,3.80,1.89,-1.89,-1.84,-1.59,1.96,1.91,1.91
361.87,3.65,1.74,3.73,1.81,-1.81,-1.77,-1.51,1.83,1.92,1.91
365.49,3.61,1.69,3.68,1.76,-1.76,-1.70,-1.43,1.85,1.92,1.92
369.14,3.57,1.64,3.60,1.68,-1.68,-1.63,-1.36,1.89,1.92,1.93
372.83,3.53,1.59,3.52,1.60,-1.60,-1.56,-1.28,1.93,1.93,1.94
376.56,3.50,1.57,3.47,1.54,-1.54,-1.49,-1.21,1.96,1.93,1.93
380.33,3.49,1.56,3.41,1.48,-1.48,-1.42,-1.14,2.01,1.93,1.93
384.13,3.35,1.41,3.34,1.41,-1.41,-1.35,-1.07,1.93,1.93,1.94
387.97,3.38,1.44,3.28,1.35,-1.35,-1.28,-1.00,2.02,1.93,1.94
391.85,3.22,1.29,3.19,1.27,-1.27,-1.21,-0.93,1.94,1.92,1.93
395.77,2.99,1.07,3.11,1.19,-1.19,-1.13,-0.86,1.79,1.92,1.92
399.73,3.07,1.15,3.04,1.12,-1.12,-1.06,-0.80,1.94,1.91,1.92
403.72,3.06,1.13,2.97,1.06,-1.06,-0.99,-0.73,2.00,1.91,1.93
407.76,2.79,0.88,2.88,0.97,-0.97,-0.92,-0.67,1.81,1.90,1.91
411.84,2.84,0.94,2.79,0.88,-0.88,-0.85,-0.60,1.95,1.90,1.90
415.96,2.80,0.90,2.71,0.81,-0.81,-0.77,-0.54,1.99,1.90,1.90
420.12,2.64,0.75,2.65,0.74,-0.74,-0.70,-0.48,1.89,1.90,1.89
424.32,2.55,0.65,2.58,0.67,-0.67,-0.63,-0.42,1.88,1.91,1.90
428.56,2.48,0.56,2.53,0.61,-0.61,-0.55,-0.36,1.87,1.92,1.92
432.85,2.45,0.51,2.49,0.55,-0.55,-0.48,-0.30,1.90,1.94,1.94
437.18,2.41,0.46,2.46,0.49,-0.49,-0.41,-0.24,1.91,1.97,1.95
441.55,2.37,0.39,2.43,0.43,-0.43,-0.34,-0.18,1.94,2.00,1.98
445.96,2.37,0.35,2.40,0.36,-0.36,-0.26,-0.13,2.00,2.04,2.02
450.42,2.34,0.28,2.40,0.32,-0.32,-0.19,-0.07,2.01,2.08,2.06
454.93,2.43,0.32,2.40,0.28,-0.28,-0.12,-0.02,2.15,2.13,2.11
459.48,2.57,0.40,2.39,0.21,-0.21,-0.04,0.04,2.35,2.18,2.17
464.07,2.41,0.17,2.39,0.16,-0.16,0.03,0.09,2.24,2.23,2.24
468.71,2.31,0.02,2.40,0.12,-0.12,0.10,0.14,2.19,2.29,2.29
473.40,2.48,0.13,2.40,0.06,-0.06,0.17,0.20,2.41,2.34,2.35
478.13,2.44,0.03,2.40,0.01,-0.01,0.25,0.25,2.43,2.39,2.41
482.91,2.26,-0.20,2.38,-0.06,0.06,0.32,0.30,2.31,2.44,2.46
487.74,2.40,-0.09,2.36,-0.13,0.13,0.39,0.35,2.52,2.49,2.49
492.62,2.48,-0.05,2.33,-0.20,0.20,0.46,0.40,2.68,2.53,2.53
