frequency,raw,error,smoothed,error_smoothed,equalization,parametric_eq,fixed_band_eq,equalized_raw,equalized_smoothed,target
20.00,-16.93,-19.74,-16.91,-19.74,19.74,15.64,5.46,2.81,2.84,2.81
20.20,-16.69,-19.50,-16.68,-19.51,19.51,16.18,5.59,2.82,2.83,2.81
20.40,-16.47,-19.28,-16.46,-19.28,19.28,16.74,5.73,2.82,2.82,2.81
20.61,-16.23,-19.05,-16.24,-19.05,19.05,17.30,5.87,2.82,2.81,2.81
20.81,-16.00,-18.81,-16.02,-18.82,18.82,17.85,6.01,2.82,2.80,2.81
21.02,-15.78,-18.59,-15.79,-18.59,18.59,18.38,6.15,2.81,2.79,2.81
21.23,-15.55,-18.34,-15.57,-18.35,18.35,18.87,6.30,2.80,2.78,2.79
21.44,-15.34,-18.12,-15.35,-18.12,18.12,19.30,6.46,2.78,2.77,2.78
21.66,-15.13,-17.90,-15.13,-17.89,17.89,19.63,6.62,2.75,2.75,2.77
21.87,-14.92,-17.66,-14.91,-17.65,17.65,19.84,6.78,2.73,2.74,2.74
22.09,-14.70,-17.43,-14.69,-17.41,17.41,19.92,6.95,2.72,2.72,2.73
22.31,-14.48,-17.18,-14.47,-17.18,17.18,19.85,7.12,2.70,2.71,2.70
22.54,-14.27,-16.96,-14.26,-16.94,16.94,19.65,7.30,2.67,2.68,2.69
22.76,-14.05,-16.71,-14.04,-16.70,16.70,19.34,7.48,2.65,2.66,2.66
22.99,-13.83,-16.46,-13.82,-16.46,16.46,18.93,7.66,2.63,2.64,2.64
23.22,-13.61,-16.22,-13.61,-16.22,16.22,18.47,7.86,2.61,2.62,2.61
23.45,-13.39,-15.96,-13.39,-15.98,15.98,17.96,8.05,2.60,2.59,2.57
23.69,-13.17,-15.74,-13.17,-15.75,15.75,17.44,8.26,2.57,2.57,2.57
23.92,-12.95,-15.49,-12.96,-15.51,15.51,16.91,8.46,2.56,2.55,2.54
24.16,-12.73,-15.26,-12.74,-15.27,15.27,16.38,8.68,2.54,2.53,2.53
24.40,-12.52,-15.03,-12.52,-15.03,15.03,15.87,8.89,2.52,2.51,2.51
24.65,-12.31,-14.81,-12.30,-14.80,14.80,15.38,9.12,2.49,2.49,2.50
24.89,-12.09,-14.56,-12.09,-14.56,14.56,14.90,9.35,2.48,2.48,2.47
25.14,-11.88,-14.34,-11.87,-14.33,14.33,14.45,9.58,2.45,2.46,2.46
25.39,-11.66,-14.10,-11.65,-14.09,14.09,14.02,9.82,2.44,2.44,2.44
25.65,-11.44,-13.88,-11.43,-13.86,13.86,13.62,10.07,2.42,2.43,2.44
25.91,-11.22,-13.63,-11.22,-13.63,13.63,13.23,10.32,2.41,2.41,2.41
26.16,-11.00,-13.39,-11.00,-13.40,13.40,12.87,10.57,2.40,2.40,2.39
26.43,-10.78,-13.17,-10.78,-13.16,13.16,12.53,10.83,2.38,2.38,2.39
26.69,-10.56,-12.91,-10.57,-12.93,12.93,12.21,11.09,2.37,2.36,2.35
26.96,-10.35,-12.70,-10.35,-12.70,12.70,11.91,11.36,2.35,2.35,2.35
27.23,-10.13,-12.47,-10.13,-12.47,12.47,11.63,11.62,2.33,2.33,2.34
27.50,-9.92,-12.25,-9.92,-12.23,12.23,11.37,11.89,2.31,2.32,2.33
27.77,-9.70,-12.00,-9.70,-12.00,12.00,11.13,12.15,2.31,2.31,2.30
28.05,-9.48,-11.77,-9.48,-11.77,11.77,10.90,12.41,2.30,2.29,2.29
28.33,-9.27,-11.54,-9.27,-11.55,11.55,10.70,12.66,2.28,2.28,2.27
28.62,-9.05,-11.32,-9.05,-11.32,11.32,10.50,12.90,2.26,2.26,2.27
28.90,-8.84,-11.08,-8.84,-11.09,11.09,10.32,13.13,2.25,2.25,2.24
29.19,-8.63,-10.85,-8.63,-10.86,10.86,10.16,13.34,2.24,2.24,2.22
29.48,-8.41,-10.63,-8.41,-10.64,10.64,10.00,13.53,2.23,2.22,2.22
29.78,-8.20,-10.42,-8.20,-10.41,10.41,9.85,13.70,2.21,2.21,2.22
30.08,-7.99,-10.20,-7.99,-10.19,10.19,9.70,13.84,2.19,2.20,2.21
30.38,-7.78,-9.97,-7.78,-9.96,9.96,9.55,13.95,2.18,2.18,2.19
30.68,-7.56,-9.73,-7.57,-9.73,9.73,9.40,14.02,2.17,2.17,2.17
30.99,-7.35,-9.50,-7.36,-9.51,9.51,9.24,14.05,2.16,2.15,2.15
31.30,-7.14,-9.28,-7.15,-9.28,9.28,9.07,14.04,2.14,2.13,2.14
31.61,-6.93,-9.06,-6.93,-9.05,9.05,8.89,13.99,2.12,2.12,2.13
31.93,-6.73,-8.84,-6.72,-8.82,8.82,8.69,13.90,2.09,2.10,2.11
32.24,-6.52,-8.59,-6.51,-8.59,8.59,8.47,13.77,2.08,2.08,2.07
32.57,-6.31,-8.37,-6.31,-8.37,8.37,8.24,13.61,2.05,2.06,2.06
32.89,-6.10,-8.14,-6.10,-8.14,8.14,8.00,13.41,2.04,2.04,2.04
33.22,-5.89,-7.90,-5.89,-7.91,7.91,7.75,13.18,2.02,2.02,2.01
33.55,-5.68,-7.68,-5.68,-7.68,7.68,7.48,12.92,2.00,2.00,2.00
33.89,-5.47,-7.44,-5.47,-7.45,7.45,7.21,12.65,1.98,1.98,1.98
34.23,-5.26,-7.22,-5.26,-7.22,7.22,6.94,12.35,1.96,1.96,1.96
34.57,-5.05,-6.98,-5.05,-6.99,6.99,6.67,12.04,1.94,1.94,1.93
34.92,-4.85,-6.77,-4.85,-6.76,6.76,6.41,11.72,1.91,1.92,1.92
35.27,-4.64,-6.54,-4.64,-6.54,6.54,6.14,11.39,1.90,1.90,1.90
35.62,-4.44,-6.32,-4.44,-6.31,6.31,5.89,11.06,1.87,1.88,1.88
35.97,-4.24,-6.09,-4.24,-6.09,6.09,5.64,10.72,1.85,1.85,1.85
36.33,-4.03,-5.86,-4.04,-5.87,5.87,5.40,10.39,1.84,1.83,1.83
36.70,-3.84,-5.66,-3.84,-5.65,5.65,5.17,10.05,1.81,1.81,1.82
37.06,-3.64,-5.43,-3.64,-5.43,5.43,4.94,9.71,1.80,1.79,1.79
37.43,-3.44,-5.21,-3.45,-5.22,5.22,4.72,9.38,1.78,1.77,1.77
37.81,-3.26,-5.01,-3.26,-5.01,5.01,4.52,9.04,1.75,1.75,1.76
38.19,-3.06,-4.79,-3.06,-4.80,4.80,4.31,8.71,1.73,1.73,1.73
38.57,-2.88,-4.59,-2.88,-4.58,4.58,4.12,8.39,1.71,1.71,1.72
38.95,-2.69,-4.37,-2.69,-4.38,4.38,3.93,8.06,1.69,1.69,1.68
39.34,-2.51,-4.17,-2.50,-4.17,4.17,3.75,7.74,1.67,1.67,1.66
39.74,-2.32,-3.97,-2.32,-3.97,3.97,3.57,7.43,1.65,1.65,1.65
40.14,-2.14,-3.78,-2.14,-3.77,3.77,3.40,7.12,1.63,1.63,1.64
40.54,-1.97,-3.59,-1.96,-3.57,3.57,3.24,6.81,1.60,1.61,1.62
40.94,-1.78,-3.37,-1.78,-3.37,3.37,3.08,6.51,1.59,1.60,1.59
41.35,-1.61,-3.17,-1.60,-3.18,3.18,2.92,6.21,1.57,1.58,1.56
41.76,-1.42,-2.98,-1.43,-2.99,2.99,2.77,5.91,1.57,1.56,1.56
42.18,-1.26,-2.80,-1.26,-2.80,2.80,2.62,5.61,1.54,1.54,1.54
42.60,-1.09,-2.61,-1.09,-2.61,2.61,2.47,5.32,1.53,1.52,1.52
43.03,-0.93,-2.44,-0.93,-2.43,2.43,2.32,5.04,1.50,1.50,1.51
43.46,-0.77,-2.25,-0.77,-2.26,2.26,2.18,4.75,1.49,1.48,1.48
43.90,-0.61,-2.08,-0.62,-2.08,2.08,2.04,4.47,1.47,1.47,1.47
44.33,-0.46,-1.90,-0.47,-1.92,1.92,1.90,4.19,1.46,1.45,1.44
44.78,-0.33,-1.76,-0.33,-1.76,1.76,1.77,3.91,1.43,1.43,1.43
45.23,-0.19,-1.59,-0.19,-1.60,1.60,1.63,3.64,1.41,1.41,1.40
45.68,-0.06,-1.44,-0.06,-1.45,1.45,1.50,3.37,1.39,1.39,1.38
46.13,0.08,-1.28,0.07,-1.30,1.30,1.36,3.10,1.38,1.37,1.36
46.60,0.20,-1.16,0.19,-1.16,1.16,1.23,2.83,1.35,1.35,1.36
47.06,0.31,-1.02,0.31,-1.02,1.02,1.10,2.56,1.33,1.33,1.33
47.53,0.43,-0.88,0.43,-0.88,0.88,0.97,2.30,1.31,1.31,1.31
48.01,0.54,-0.76,0.54,-0.75,0.75,0.83,2.04,1.29,1.29,1.31
48.49,0.64,-0.64,0.64,-0.62,0.62,0.70,1.77,1.26,1.27,1.28
48.97,0.74,-0.50,0.75,-0.50,0.50,0.57,1.52,1.24,1.24,1.24
49.46,0.84,-0.37,0.85,-0.38,0.38,0.44,1.26,1.22,1.22,1.21
49.96,0.94,-0.25,0.94,-0.26,0.26,0.30,1.01,1.20,1.20,1.19
50.46,1.04,-0.14,1.04,-0.14,0.14,0.17,0.75,1.18,1.18,1.18
50.96,1.13,-0.02,1.13,-0.03,0.03,0.04,0.50,1.16,1.15,1.15
51.47,1.22,0.10,1.22,0.09,-0.09,-0.10,0.26,1.14,1.13,1.12
51.99,1.30,0.19,1.30,0.20,-0.20,-0.23,0.01,1.10,1.11,1.11
52.51,1.39,0.30,1.39,0.31,-0.31,-0.37,-0.23,1.08,1.08,1.09
53.03,1.47,0.41,1.47,0.41,-0.41,-0.50,-0.46,1.06,1.06,1.06
53.56,1.56,0.53,1.55,0.52,-0.52,-0.64,-0.70,1.04,1.03,1.03
54.10,1.64,0.62,1.63,0.62,-0.62,-0.78,-0.92,1.02,1.01,1.02
54.64,1.71,0.73,1.71,0.73,-0.73,-0.91,-1.14,0.98,0.99,0.99
55.18,1.79,0.83,1.79,0.83,-0.83,-1.05,-1.36,0.96,0.96,0.96
55.74,1.87,0.93,1.87,0.93,-0.93,-1.18,-1.57,0.94,0.94,0.94
56.29,1.95,1.04,1.95,1.04,-1.04,-1.32,-1.77,0.92,0.92,0.91
56.86,2.03,1.14,2.03,1.14,-1.14,-1.45,-1.97,0.89,0.89,0.89
57.42,2.12,1.26,2.12,1.25,-1.25,-1.59,-2.15,0.87,0.87,0.86
58.00,2.20,1.36,2.20,1.36,-1.36,-1.72,-2.33,0.84,0.84,0.85
58.58,2.28,1.47,2.29,1.48,-1.48,-1.84,-2.49,0.81,0.82,0.82
59.16,2.38,1.59,2.38,1.59,-1.59,-1.97,-2.65,0.79,0.79,0.79
59.76,2.46,1.68,2.48,1.71,-1.71,-2.09,-2.79,0.75,0.76,0.78
60.35,2.56,1.82,2.58,1.84,-1.84,-2.20,-2.92,0.72,0.74,0.74
60.96,2.66,1.93,2.68,1.97,-1.97,-2.31,-3.04,0.69,0.71,0.73
61.57,2.76,2.07,2.78,2.10,-2.10,-2.42,-3.15,0.66,0.68,0.69
62.18,2.87,2.22,2.89,2.23,-2.23,-2.52,-3.24,0.64,0.66,0.65
62.80,2.98,2.36,2.99,2.36,-2.36,-2.61,-3.32,0.62,0.63,0.62
63.43,3.08,2.49,3.09,2.49,-2.49,-2.69,-3.39,0.59,0.60,0.59
64.07,3.18,2.61,3.20,2.62,-2.62,-2.76,-3.44,0.56,0.58,0.57
64.71,3.29,2.74,3.29,2.74,-2.74,-2.83,-3.49,0.55,0.55,0.55
65.35,3.38,2.86,3.38,2.86,-2.86,-2.88,-3.52,0.52,0.53,0.52
66.01,3.46,2.96,3.46,2.96,-2.96,-2.92,-3.54,0.50,0.50,0.51
66.67,3.54,3.07,3.53,3.06,-3.06,-2.96,-3.55,0.48,0.48,0.48
67.33,3.61,3.16,3.58,3.13,-3.13,-2.98,-3.55,0.48,0.45,0.45
68.01,3.64,3.22,3.62,3.20,-3.20,-3.00,-3.54,0.44,0.43,0.43
68.69,3.67,3.27,3.64,3.24,-3.24,-3.00,-3.52,0.43,0.40,0.41
69.37,3.67,3.30,3.64,3.27,-3.27,-3.00,-3.49,0.40,0.37,0.37
70.07,3.66,3.32,3.62,3.27,-3.27,-2.98,-3.46,0.39,0.35,0.35
70.77,3.62,3.30,3.58,3.26,-3.26,-2.96,-3.42,0.36,0.32,0.33
71.48,3.56,3.27,3.52,3.23,-3.23,-2.93,-3.37,0.33,0.29,0.30
72.19,3.47,3.21,3.45,3.19,-3.19,-2.89,-3.32,0.28,0.26,0.26
72.91,3.37,3.15,3.35,3.12,-3.12,-2.85,-3.27,0.25,0.23,0.22
73.64,3.25,3.06,3.24,3.05,-3.05,-2.80,-3.21,0.20,0.19,0.19
74.38,3.12,2.96,3.12,2.96,-2.96,-2.75,-3.16,0.17,0.16,0.17
75.12,2.98,2.87,2.98,2.86,-2.86,-2.69,-3.10,0.12,0.12,0.11
75.87,2.83,2.74,2.84,2.75,-2.75,-2.64,-3.04,0.08,0.09,0.08
76.63,2.67,2.62,2.69,2.64,-2.64,-2.57,-2.97,0.03,0.05,0.05
77.40,2.52,2.51,2.54,2.53,-2.53,-2.51,-2.91,-0.01,0.01,0.02
78.17,2.36,2.41,2.38,2.41,-2.41,-2.44,-2.85,-0.05,-0.03,-0.05
78.95,2.21,2.27,2.23,2.30,-2.30,-2.38,-2.79,-0.09,-0.07,-0.07
79.74,2.06,2.17,2.08,2.19,-2.19,-2.31,-2.73,-0.13,-0.11,-0.11
80.54,1.92,2.08,1.93,2.09,-2.09,-2.25,-2.67,-0.17,-0.16,-0.16
81.35,1.78,1.98,1.79,1.99,-1.99,-2.18,-2.61,-0.21,-0.20,-0.19
82.16,1.65,1.90,1.66,1.90,-1.90,-2.12,-2.55,-0.25,-0.24,-0.25
82.98,1.52,1.81,1.52,1.81,-1.81,-2.06,-2.49,-0.29,-0.29,-0.29
83.81,1.40,1.75,1.40,1.73,-1.73,-2.00,-2.44,-0.33,-0.33,-0.35
84.65,1.27,1.66,1.28,1.66,-1.66,-1.94,-2.39,-0.39,-0.38,-0.39
85.50,1.16,1.59,1.16,1.60,-1.60,-1.88,-2.34,-0.43,-0.43,-0.42
86.35,1.05,1.53,1.06,1.53,-1.53,-1.83,-2.29,-0.48,-0.48,-0.48
87.22,0.94,1.47,0.95,1.48,-1.48,-1.78,-2.24,-0.54,-0.53,-0.52
88.09,0.85,1.44,0.85,1.43,-1.43,-1.73,-2.20,-0.58,-0.58,-0.58
88.97,0.76,1.39,0.76,1.39,-1.39,-1.68,-2.16,-0.62,-0.63,-0.62
89.86,0.67,1.35,0.67,1.35,-1.35,-1.63,-2.12,-0.68,-0.68,-0.67
90.76,0.58,1.32,0.58,1.31,-1.31,-1.59,-2.08,-0.73,-0.73,-0.73
91.66,0.50,1.29,0.50,1.28,-1.28,-1.55,-2.04,-0.78,-0.78,-0.79
92.58,0.42,1.27,0.42,1.25,-1.25,-1.51,-2.01,-0.83,-0.84,-0.85
93.51,0.34,1.23,0.34,1.23,-1.23,-1.47,-1.98,-0.89,-0.89,-0.88
94.44,0.28,1.22,0.27,1.22,-1.22,-1.44,-1.95,-0.94,-0.95,-0.94
95.39,0.20,1.20,0.20,1.20,-1.20,-1.41,-1.92,-1.00,-1.00,-0.99
96.34,0.13,1.20,0.13,1.19,-1.19,-1.38,-1.90,-1.06,-1.06,-1.07
97.30,0.06,1.18,0.07,1.18,-1.18,-1.35,-1.87,-1.12,-1.12,-1.12
98.28,0.00,1.18,0.00,1.18,-1.18,-1.32,-1.85,-1.18,-1.18,-1.17
99.26,-0.06,1.19,-0.06,1.18,-1.18,-1.30,-1.83,-1.23,-1.24,-1.24
100.25,-0.12,1.18,-0.12,1.18,-1.18,-1.28,-1.81,-1.29,-1.30,-1.30
101.25,-0.18,1.18,-0.18,1.18,-1.18,-1.26,-1.80,-1.36,-1.36,-1.36
102.27,-0.24,1.19,-0.24,1.18,-1.18,-1.25,-1.78,-1.42,-1.42,-1.42
103.29,-0.29,1.21,-0.29,1.19,-1.19,-1.23,-1.77,-1.48,-1.48,-1.49
104.32,-0.35,1.20,-0.35,1.20,-1.20,-1.22,-1.75,-1.55,-1.55,-1.55
105.37,-0.40,1.21,-0.40,1.21,-1.21,-1.21,-1.74,-1.61,-1.61,-1.60
106.42,-0.46,1.22,-0.45,1.22,-1.22,-1.20,-1.73,-1.68,-1.68,-1.67
107.48,-0.51,1.24,-0.50,1.24,-1.24,-1.19,-1.72,-1.75,-1.74,-1.75
108.56,-0.55,1.27,-0.55,1.26,-1.26,-1.19,-1.71,-1.81,-1.81,-1.81
109.64,-0.60,1.28,-0.60,1.28,-1.28,-1.19,-1.70,-1.88,-1.88,-1.88
110.74,-0.65,1.29,-0.65,1.30,-1.30,-1.19,-1.70,-1.95,-1.94,-1.94
111.85,-0.69,1.32,-0.69,1.32,-1.32,-1.19,-1.69,-2.01,-2.01,-2.00
112.97,-0.74,1.35,-0.74,1.34,-1.34,-1.19,-1.68,-2.08,-2.08,-2.08
114.10,-0.79,1.36,-0.78,1.36,-1.36,-1.20,-1.67,-2.15,-2.15,-2.14
115.24,-0.82,1.40,-0.83,1.39,-1.39,-1.20,-1.66,-2.21,-2.21,-2.21
116.39,-0.87,1.42,-0.87,1.41,-1.41,-1.21,-1.65,-2.28,-2.28,-2.28
117.55,-0.91,1.45,-0.91,1.43,-1.43,-1.22,-1.64,-2.34,-2.35,-2.36
118.73,-0.96,1.46,-0.96,1.45,-1.45,-1.23,-1.63,-2.41,-2.41,-2.41
119.92,-1.00,1.48,-1.00,1.48,-1.48,-1.25,-1.62,-2.47,-2.47,-2.47
121.12,-1.04,1.50,-1.04,1.50,-1.50,-1.26,-1.61,-2.54,-2.54,-2.53
122.33,-1.08,1.53,-1.08,1.52,-1.52,-1.28,-1.60,-2.60,-2.60,-2.60
123.55,-1.12,1.54,-1.12,1.54,-1.54,-1.30,-1.58,-2.66,-2.66,-2.66
124.79,-1.16,1.56,-1.16,1.56,-1.56,-1.32,-1.57,-2.72,-2.72,-2.71
126.03,-1.20,1.57,-1.20,1.58,-1.58,-1.34,-1.55,-2.78,-2.78,-2.77
127.29,-1.24,1.59,-1.24,1.60,-1.60,-1.37,-1.54,-2.84,-2.83,-2.83
128.57,-1.28,1.62,-1.28,1.62,-1.62,-1.39,-1.52,-2.89,-2.89,-2.89
129.85,-1.31,1.64,-1.31,1.63,-1.63,-1.42,-1.50,-2.94,-2.94,-2.95
131.15,-1.35,1.65,-1.35,1.65,-1.65,-1.45,-1.48,-3.00,-3.00,-3.00
132.46,-1.38,1.68,-1.39,1.66,-1.66,-1.47,-1.46,-3.04,-3.05,-3.06
133.79,-1.42,1.68,-1.42,1.67,-1.67,-1.50,-1.44,-3.09,-3.10,-3.09
135.12,-1.46,1.70,-1.46,1.68,-1.68,-1.54,-1.42,-3.14,-3.14,-3.16
136.48,-1.50,1.69,-1.50,1.69,-1.69,-1.57,-1.39,-3.19,-3.19,-3.18
137.84,-1.54,1.69,-1.53,1.69,-1.69,-1.60,-1.37,-3.23,-3.23,-3.23
139.22,-1.57,1.71,-1.57,1.70,-1.70,-1.63,-1.35,-3.27,-3.27,-3.27
140.61,-1.61,1.71,-1.61,1.70,-1.70,-1.66,-1.32,-3.31,-3.30,-3.32
142.02,-1.64,1.70,-1.64,1.70,-1.70,-1.70,-1.30,-3.34,-3.34,-3.33
143.44,-1.68,1.69,-1.68,1.69,-1.69,-1.73,-1.27,-3.37,-3.37,-3.36
144.87,-1.72,1.69,-1.72,1.69,-1.69,-1.76,-1.24,-3.41,-3.40,-3.41
146.32,-1.75,1.69,-1.75,1.68,-1.68,-1.79,-1.22,-3.43,-3.43,-3.44
147.78,-1.79,1.67,-1.79,1.67,-1.67,-1.82,-1.19,-3.46,-3.46,-3.46
149.26,-1.82,1.67,-1.82,1.67,-1.67,-1.84,-1.17,-3.49,-3.49,-3.49
150.75,-1.86,1.67,-1.86,1.66,-1.66,-1.87,-1.14,-3.52,-3.52,-3.53
152.26,-1.90,1.65,-1.90,1.65,-1.65,-1.89,-1.12,-3.55,-3.55,-3.55
153.78,-1.93,1.65,-1.93,1.64,-1.64,-1.91,-1.09,-3.57,-3.57,-3.58
155.32,-1.97,1.63,-1.97,1.63,-1.63,-1.92,-1.07,-3.60,-3.60,-3.60
156.88,-2.01,1.62,-2.01,1.62,-1.62,-1.94,-1.04,-3.63,-3.63,-3.62
158.44,-2.05,1.61,-2.04,1.61,-1.61,-1.95,-1.02,-3.66,-3.66,-3.66
160.03,-2.08,1.61,-2.08,1.60,-1.60,-1.95,-1.00,-3.68,-3.68,-3.68
161.63,-2.12,1.60,-2.12,1.59,-1.59,-1.95,-0.98,-3.71,-3.71,-3.71
163.24,-2.16,1.59,-2.16,1.58,-1.58,-1.95,-0.95,-3.74,-3.74,-3.75
164.88,-2.19,1.58,-2.19,1.57,-1.57,-1.94,-0.93,-3.76,-3.77,-3.76
166.53,-2.23,1.56,-2.23,1.56,-1.56,-1.92,-0.91,-3.79,-3.79,-3.78
168.19,-2.27,1.56,-2.27,1.55,-1.55,-1.91,-0.89,-3.82,-3.82,-3.83
169.87,-2.31,1.55,-2.31,1.54,-1.54,-1.88,-0.88,-3.85,-3.85,-3.86
171.57,-2.35,1.54,-2.35,1.54,-1.54,-1.86,-0.86,-3.89,-3.89,-3.89
173.29,-2.39,1.52,-2.39,1.53,-1.53,-1.83,-0.84,-3.92,-3.92,-3.90
175.02,-2.43,1.52,-2.43,1.52,-1.52,-1.79,-0.83,-3.95,-3.95,-3.95
176.77,-2.48,1.51,-2.47,1.51,-1.51,-1.75,-0.81,-3.99,-3.99,-3.99
178.54,-2.52,1.51,-2.52,1.50,-1.50,-1.71,-0.80,-4.02,-4.02,-4.02
180.32,-2.56,1.50,-2.56,1.49,-1.49,-1.66,-0.78,-4.05,-4.05,-4.06
182.13,-2.61,1.48,-2.60,1.49,-1.49,-1.62,-0.77,-4.10,-4.09,-4.08
183.95,-2.65,1.48,-2.65,1.48,-1.48,-1.57,-0.76,-4.13,-4.12,-4.12
185.79,-2.69,1.48,-2.69,1.47,-1.47,-1.51,-0.75,-4.16,-4.16,-4.16
187.65,-2.73,1.48,-2.74,1.45,-1.45,-1.46,-0.73,-4.18,-4.19,-4.20
189.52,-2.79,1.45,-2.78,1.44,-1.44,-1.40,-0.72,-4.23,-4.22,-4.24
191.42,-2.83,1.43,-2.83,1.43,-1.43,-1.34,-0.71,-4.26,-4.26,-4.25
193.33,-2.87,1.41,-2.88,1.41,-1.41,-1.29,-0.70,-4.28,-4.29,-4.28
195.27,-2.92,1.39,-2.92,1.39,-1.39,-1.23,-0.70,-4.31,-4.31,-4.30
197.22,-2.97,1.37,-2.97,1.37,-1.37,-1.17,-0.69,-4.34,-4.34,-4.33
199.19,-3.02,1.37,-3.02,1.35,-1.35,-1.11,-0.68,-4.37,-4.37,-4.39
201.18,-3.06,1.34,-3.07,1.33,-1.33,-1.05,-0.67,-4.38,-4.39,-4.40
203.19,-3.12,1.30,-3.11,1.30,-1.30,-0.99,-0.66,-4.42,-4.41,-4.42
205.23,-3.17,1.27,-3.16,1.27,-1.27,-0.93,-0.65,-4.44,-4.44,-4.43
207.28,-3.21,1.24,-3.21,1.24,-1.24,-0.87,-0.64,-4.45,-4.46,-4.45
209.35,-3.26,1.22,-3.26,1.22,-1.22,-0.81,-0.64,-4.47,-4.48,-4.48
211.44,-3.31,1.19,-3.31,1.19,-1.19,-0.75,-0.63,-4.49,-4.49,-4.50
213.56,-3.36,1.16,-3.36,1.15,-1.15,-0.69,-0.62,-4.51,-4.51,-4.52
215.69,-3.41,1.11,-3.41,1.12,-1.12,-0.64,-0.61,-4.53,-4.52,-4.52
217.85,-3.46,1.07,-3.45,1.08,-1.08,-0.58,-0.60,-4.54,-4.54,-4.53
220.03,-3.50,1.06,-3.50,1.04,-1.04,-0.52,-0.58,-4.54,-4.54,-4.56
222.23,-3.55,1.02,-3.55,1.00,-1.00,-0.47,-0.57,-4.55,-4.55,-4.57
224.45,-3.59,0.97,-3.60,0.96,-0.96,-0.41,-0.56,-4.55,-4.56,-4.56
226.70,-3.64,0.93,-3.64,0.92,-0.92,-0.36,-0.54,-4.56,-4.56,-4.57
228.96,-3.69,0.88,-3.69,0.87,-0.87,-0.31,-0.53,-4.56,-4.56,-4.57
231.25,-3.74,0.82,-3.73,0.82,-0.82,-0.25,-0.51,-4.56,-4.56,-4.56
233.57,-3.78,0.77,-3.78,0.77,-0.77,-0.20,-0.49,-4.55,-4.55,-4.55
235.90,-3.83,0.72,-3.82,0.72,-0.72,-0.15,-0.46,-4.55,-4.54,-4.55
238.26,-3.86,0.69,-3.86,0.67,-0.67,-0.10,-0.44,-4.53,-4.53,-4.55
240.64,-3.91,0.62,-3.91,0.61,-0.61,-0.05,-0.41,-4.52,-4.52,-4.52
243.05,-3.95,0.56,-3.95,0.56,-0.56,0.00,-0.38,-4.51,-4.51,-4.51
245.48,-4.00,0.49,-3.99,0.50,-0.50,0.05,-0.35,-4.50,-4.49,-4.49
247.93,-4.03,0.45,-4.03,0.44,-0.44,0.10,-0.32,-4.47,-4.47,-4.47
250.41,-4.07,0.40,-4.07,0.38,-0.38,0.15,-0.28,-4.45,-4.45,-4.46
252.92,-4.11,0.32,-4.11,0.32,-0.32,0.20,-0.24,-4.43,-4.43,-4.43
255.45,-4.16,0.25,-4.15,0.26,-0.26,0.25,-0.20,-4.42,-4.41,-4.41
258.00,-4.19,0.20,-4.19,0.20,-0.20,0.30,-0.16,-4.39,-4.39,-4.39
260.58,-4.23,0.14,-4.23,0.13,-0.13,0.35,-0.11,-4.36,-4.37,-4.37
263.19,-4.28,0.07,-4.27,0.07,-0.07,0.40,-0.06,-4.35,-4.34,-4.35
265.82,-4.32,0.01,-4.32,0.00,-0.00,0.45,-0.01,-4.32,-4.32,-4.33
268.48,-4.36,-0.06,-4.36,-0.06,0.06,0.50,0.05,-4.30,-4.30,-4.30
271.16,-4.40,-0.13,-4.40,-0.13,0.13,0.55,0.11,-4.27,-4.27,-4.26
273.87,-4.46,-0.21,-4.44,-0.20,0.20,0.60,0.17,-4.26,-4.25,-4.24
276.61,-4.50,-0.28,-4.49,-0.27,0.27,0.65,0.23,-4.23,-4.22,-4.21
279.38,-4.55,-0.35,-4.54,-0.34,0.34,0.70,0.29,-4.21,-4.20,-4.20
282.17,-4.61,-0.43,-4.59,-0.42,0.42,0.75,0.36,-4.19,-4.17,-4.17
284.99,-4.66,-0.51,-4.65,-0.51,0.51,0.80,0.43,-4.15,-4.15,-4.14
287.84,-4.72,-0.59,-4.72,-0.60,0.60,0.85,0.50,-4.12,-4.12,-4.12
290.72,-4.78,-0.69,-4.79,-0.70,0.70,0.91,0.57,-4.08,-4.09,-4.08
293.63,-4.85,-0.78,-4.87,-0.81,0.81,0.96,0.65,-4.04,-4.06,-4.07
296.57,-4.93,-0.89,-4.96,-0.93,0.93,1.02,0.72,-4.00,-4.03,-4.04
299.53,-5.03,-1.02,-5.07,-1.07,1.07,1.07,0.80,-3.96,-4.00,-4.01
302.53,-5.14,-1.15,-5.18,-1.21,1.21,1.13,0.88,-3.93,-3.97,-3.99
305.55,-5.27,-1.33,-5.29,-1.36,1.36,1.19,0.96,-3.91,-3.94,-3.93
308.61,-5.40,-1.49,-5.42,-1.51,1.51,1.25,1.05,-3.89,-3.91,-3.91
311.69,-5.54,-1.67,-5.55,-1.68,1.68,1.31,1.13,-3.86,-3.87,-3.86
314.81,-5.69,-1.85,-5.68,-1.84,1.84,1.37,1.22,-3.85,-3.84,-3.84
317.96,-5.85,-2.04,-5.82,-2.01,2.01,1.43,1.31,-3.84,-3.81,-3.81
321.14,-5.99,-2.21,-5.96,-2.19,2.19,1.49,1.40,-3.80,-3.78,-3.78
324.35,-6.15,-2.39,-6.11,-2.36,2.36,1.56,1.49,-3.79,-3.75,-3.76
327.59,-6.29,-2.57,-6.25,-2.53,2.53,1.63,1.59,-3.76,-3.72,-3.71
330.87,-6.42,-2.73,-6.39,-2.70,2.70,1.69,1.69,-3.72,-3.69,-3.69
334.18,-6.55,-2.88,-6.53,-2.87,2.87,1.76,1.78,-3.68,-3.66,-3.67
337.52,-6.67,-3.02,-6.67,-3.03,3.03,1.83,1.88,-3.64,-3.64,-3.65
340.90,-6.81,-3.19,-6.82,-3.20,3.20,1.91,1.98,-3.61,-3.62,-3.62
344.30,-6.94,-3.34,-6.96,-3.37,3.37,1.98,2.09,-3.57,-3.59,-3.59
347.75,-7.08,-3.51,-7.11,-3.54,3.54,2.06,2.19,-3.54,-3.57,-3.57
351.23,-7.22,-3.67,-7.26,-3.71,3.71,2.13,2.30,-3.51,-3.55,-3.55
354.74,-7.37,-3.83,-7.42,-3.89,3.89,2.21,2.41,-3.48,-3.53,-3.54
358.28,-7.54,-4.02,-7.58,-4.07,4.07,2.29,2.52,-3.47,-3.51,-3.51
361.87,-7.71,-4.21,-7.74,-4.25,4.25,2.38,2.63,-3.46,-3.49,-3.50
365.49,-7.88,-4.41,-7.91,-4.44,4.44,2.46,2.74,-3.44,-3.47,-3.47
369.14,-8.06,-4.60,-8.07,-4.62,4.62,2.55,2.86,-3.44,-3.45,-3.46
372.83,-8.22,-4.77,-8.23,-4.80,4.80,2.63,2.98,-3.42,-3.43,-3.45
376.56,-8.38,-4.95,-8.38,-4.96,4.96,2.72,3.10,-3.41,-3.41,-3.43
380.33,-8.54,-5.14,-8.52,-5.12,5.12,2.81,3.22,-3.42,-3.40,-3.40
384.13,-8.66,-5.28,-8.64,-5.26,5.26,2.90,3.34,-3.40,-3.38,-3.38
387.97,-8.78,-5.42,-8.74,-5.39,5.39,3.00,3.46,-3.39,-3.36,-3.36
391.85,-8.87,-5.53,-8.82,-5.49,5.49,3.09,3.59,-3.38,-3.33,-3.34
395.77,-8.93,-5.62,-8.88,-5.57,5.57,3.19,3.71,-3.36,-3.31,-3.31
399.73,-8.95,-5.66,-8.91,-5.62,5.62,3.28,3.84,-3.33,-3.29,-3.29
403.72,-8.96,-5.68,-8.92,-5.65,5.65,3.38,3.97,-3.31,-3.27,-3.27
407.76,-8.94,-5.68,-8.90,-5.65,5.65,3.47,4.09,-3.29,-3.25,-3.26
411.84,-8.88,-5.65,-8.85,-5.62,5.62,3.57,4.22,-3.26,-3.23,-3.23
415.96,-8.80,-5.59,-8.78,-5.57,5.57,3.66,4.35,-3.23,-3.20,-3.21
420.12,-8.70,-5.51,-8.68,-5.50,5.50,3.75,4.47,-3.20,-3.18,-3.19
424.32,-8.58,-5.42,-8.57,-5.41,5.41,3.85,4.59,-3.17,-3.16,-3.16
428.56,-8.44,-5.30,-8.44,-5.30,5.30,3.93,4.71,-3.14,-3.14,-3.14
432.85,-8.29,-5.17,-8.29,-5.18,5.18,4.02,4.83,-3.11,-3.11,-3.12
437.18,-8.13,-5.04,-8.13,-5.05,5.05,4.11,4.95,-3.08,-3.09,-3.09
441.55,-7.95,-4.89,-7.97,-4.91,4.91,4.19,5.06,-3.04,-3.06,-3.06
445.96,-7.79,-4.75,-7.81,-4.77,4.77,4.27,5.16,-3.02,-3.04,-3.04
450.42,-7.62,-4.59,-7.64,-4.63,4.63,4.34,5.26,-2.99,-3.01,-3.02
454.93,-7.45,-4.46,-7.47,-4.49,4.49,4.40,5.35,-2.96,-2.98,-2.99
