frequency,raw,error,smoothed,error_smoothed,equalization,parametric_eq,fixed_band_eq,equalized_raw,equalized_smoothed,target
20.00,-5.40,-9.73,-5.40,-9.75,9.75,8.94,3.29,4.35,4.35,4.33
20.20,-5.31,-9.68,-5.31,-9.69,9.69,8.91,3.38,4.38,4.38,4.37
20.40,-5.22,-9.62,-5.22,-9.63,9.63,8.87,3.48,4.41,4.41,4.41
20.61,-5.13,-9.57,-5.13,-9.57,9.57,8.84,3.57,4.44,4.44,4.44
20.81,-5.04,-9.51,-5.04,-9.50,9.50,8.80,3.67,4.47,4.47,4.48
21.02,-4.95,-9.46,-4.95,-9.44,9.44,8.76,3.77,4.49,4.49,4.51
21.23,-4.86,-9.39,-4.86,-9.37,9.37,8.73,3.88,4.51,4.51,4.53
21.44,-4.77,-9.32,-4.77,-9.30,9.30,8.69,3.99,4.54,4.54,4.55
21.66,-4.68,-9.25,-4.68,-9.24,9.24,8.65,4.10,4.55,4.56,4.57
21.87,-4.59,-9.17,-4.59,-9.16,9.16,8.61,4.21,4.58,4.58,4.58
22.09,-4.50,-9.10,-4.50,-9.09,9.09,8.57,4.33,4.59,4.59,4.60
22.31,-4.41,-9.02,-4.41,-9.02,9.02,8.53,4.45,4.61,4.61,4.61
22.54,-4.32,-8.94,-4.32,-8.94,8.94,8.49,4.57,4.62,4.62,4.62
22.76,-4.23,-8.86,-4.23,-8.86,8.86,8.45,4.70,4.63,4.63,4.63
22.99,-4.14,-8.77,-4.14,-8.78,8.78,8.41,4.83,4.64,4.64,4.63
23.22,-4.06,-8.70,-4.05,-8.70,8.70,8.37,4.96,4.64,4.65,4.64
23.45,-3.97,-8.62,-3.97,-8.62,8.62,8.33,5.10,4.65,4.66,4.65
23.69,-3.88,-8.54,-3.88,-8.54,8.54,8.28,5.24,4.66,4.67,4.66
23.92,-3.79,-8.45,-3.79,-8.46,8.46,8.24,5.38,4.67,4.67,4.67
24.16,-3.70,-8.38,-3.70,-8.38,8.38,8.20,5.52,4.68,4.68,4.69
24.40,-3.61,-8.31,-3.61,-8.30,8.30,8.15,5.67,4.70,4.69,4.70
24.65,-3.53,-8.23,-3.52,-8.22,8.22,8.11,5.82,4.70,4.70,4.70
24.89,-3.44,-8.15,-3.44,-8.15,8.15,8.06,5.97,4.71,4.71,4.71
25.14,-3.35,-8.07,-3.35,-8.07,8.07,8.02,6.13,4.72,4.72,4.72
25.39,-3.26,-7.99,-3.26,-7.99,7.99,7.97,6.28,4.74,4.73,4.73
25.65,-3.17,-7.92,-3.17,-7.92,7.92,7.93,6.44,4.75,4.74,4.75
25.91,-3.08,-7.83,-3.08,-7.84,7.84,7.88,6.59,4.76,4.75,4.75
26.16,-3.00,-7.76,-3.00,-7.76,7.76,7.83,6.75,4.76,4.76,4.76
26.43,-2.91,-7.68,-2.91,-7.68,7.68,7.78,6.91,4.77,4.77,4.77
26.69,-2.83,-7.60,-2.83,-7.60,7.60,7.74,7.06,4.78,4.78,4.77
26.96,-2.74,-7.53,-2.74,-7.53,7.53,7.69,7.22,4.79,4.79,4.79
27.23,-2.66,-7.46,-2.65,-7.45,7.45,7.64,7.37,4.79,4.80,4.80
27.50,-2.57,-7.38,-2.57,-7.37,7.37,7.59,7.51,4.80,4.80,4.81
27.77,-2.49,-7.30,-2.48,-7.30,7.30,7.54,7.66,4.81,4.81,4.81
28.05,-2.40,-7.23,-2.40,-7.22,7.22,7.49,7.79,4.82,4.82,4.83
28.33,-2.32,-7.14,-2.32,-7.15,7.15,7.44,7.92,4.83,4.83,4.83
28.62,-2.24,-7.07,-2.24,-7.08,7.08,7.39,8.05,4.84,4.84,4.83
28.90,-2.16,-7.00,-2.16,-7.01,7.01,7.34,8.16,4.85,4.85,4.84
29.19,-2.08,-6.92,-2.08,-6.94,6.94,7.28,8.26,4.86,4.85,4.84
29.48,-2.00,-6.87,-2.01,-6.87,6.87,7.23,8.36,4.87,4.86,4.87
29.78,-1.93,-6.80,-1.93,-6.80,6.80,7.18,8.44,4.87,4.86,4.87
30.08,-1.85,-6.73,-1.86,-6.73,6.73,7.12,8.50,4.88,4.87,4.87
30.38,-1.79,-6.66,-1.79,-6.67,6.67,7.07,8.56,4.88,4.88,4.87
30.68,-1.73,-6.62,-1.72,-6.61,6.61,7.02,8.60,4.88,4.88,4.89
30.99,-1.66,-6.55,-1.65,-6.55,6.55,6.96,8.62,4.89,4.89,4.89
31.30,-1.59,-6.49,-1.59,-6.49,6.49,6.91,8.63,4.90,4.90,4.90
31.61,-1.53,-6.43,-1.52,-6.43,6.43,6.85,8.63,4.90,4.91,4.90
31.93,-1.46,-6.37,-1.46,-6.37,6.37,6.80,8.60,4.91,4.91,4.91
32.24,-1.39,-6.30,-1.39,-6.31,6.31,6.74,8.57,4.92,4.92,4.91
32.57,-1.33,-6.25,-1.33,-6.25,6.25,6.68,8.52,4.92,4.93,4.93
32.89,-1.26,-6.19,-1.26,-6.19,6.19,6.63,8.45,4.94,4.93,4.93
33.22,-1.20,-6.14,-1.20,-6.14,6.14,6.57,8.38,4.94,4.94,4.94
33.55,-1.13,-6.07,-1.13,-6.08,6.08,6.51,8.29,4.95,4.94,4.95
33.89,-1.07,-6.02,-1.07,-6.02,6.02,6.46,8.19,4.95,4.95,4.95
34.23,-1.01,-5.97,-1.01,-5.96,5.96,6.40,8.08,4.95,4.96,4.96
34.57,-0.95,-5.92,-0.94,-5.90,5.90,6.34,7.97,4.96,4.96,4.97
34.92,-0.88,-5.84,-0.88,-5.85,5.85,6.28,7.85,4.97,4.97,4.96
35.27,-0.82,-5.79,-0.82,-5.79,5.79,6.22,7.72,4.97,4.97,4.97
35.62,-0.76,-5.73,-0.75,-5.73,5.73,6.16,7.58,4.97,4.97,4.97
35.97,-0.69,-5.66,-0.69,-5.67,5.67,6.10,7.44,4.98,4.98,4.97
36.33,-0.63,-5.60,-0.63,-5.61,5.61,6.04,7.30,4.98,4.98,4.98
36.70,-0.57,-5.54,-0.57,-5.55,5.55,5.98,7.16,4.98,4.98,4.97
37.06,-0.51,-5.49,-0.51,-5.48,5.48,5.92,7.01,4.98,4.98,4.98
37.43,-0.45,-5.43,-0.45,-5.42,5.42,5.86,6.87,4.98,4.97,4.98
37.81,-0.38,-5.36,-0.39,-5.36,5.36,5.80,6.72,4.98,4.97,4.98
38.19,-0.32,-5.29,-0.33,-5.30,5.30,5.73,6.58,4.98,4.97,4.97
38.57,-0.27,-5.24,-0.27,-5.24,5.24,5.67,6.43,4.97,4.97,4.97
38.95,-0.22,-5.18,-0.21,-5.18,5.18,5.61,6.29,4.96,4.96,4.96
39.34,-0.16,-5.11,-0.16,-5.12,5.12,5.55,6.15,4.96,4.96,4.96
39.74,-0.11,-5.06,-0.10,-5.06,5.06,5.48,6.01,4.95,4.96,4.95
40.14,-0.05,-5.00,-0.04,-5.00,5.00,5.42,5.88,4.95,4.95,4.95
40.54,0.01,-4.94,0.01,-4.94,4.94,5.36,5.75,4.95,4.95,4.95
40.94,0.07,-4.87,0.07,-4.88,4.88,5.29,5.62,4.95,4.95,4.94
41.35,0.13,-4.80,0.12,-4.82,4.82,5.23,5.49,4.95,4.94,4.93
41.76,0.19,-4.74,0.18,-4.76,4.76,5.16,5.37,4.95,4.94,4.94
42.18,0.24,-4.70,0.23,-4.70,4.70,5.10,5.25,4.94,4.93,4.94
42.60,0.29,-4.64,0.29,-4.64,4.64,5.03,5.13,4.93,4.93,4.93
43.03,0.33,-4.60,0.35,-4.58,4.58,4.97,5.02,4.91,4.92,4.93
43.46,0.39,-4.53,0.40,-4.52,4.52,4.90,4.91,4.91,4.92,4.92
43.90,0.45,-4.46,0.45,-4.46,4.46,4.83,4.80,4.91,4.91,4.91
44.33,0.50,-4.41,0.51,-4.40,4.40,4.77,4.70,4.90,4.91,4.91
44.78,0.56,-4.34,0.56,-4.35,4.35,4.70,4.60,4.91,4.90,4.90
45.23,0.62,-4.27,0.61,-4.29,4.29,4.64,4.51,4.91,4.90,4.89
45.68,0.67,-4.22,0.66,-4.23,4.23,4.57,4.41,4.90,4.89,4.89
46.13,0.72,-4.16,0.71,-4.18,4.18,4.50,4.33,4.90,4.89,4.88
46.60,0.76,-4.13,0.76,-4.12,4.12,4.43,4.24,4.88,4.88,4.89
47.06,0.81,-4.06,0.81,-4.06,4.06,4.37,4.16,4.87,4.87,4.87
47.53,0.85,-4.01,0.86,-4.00,4.00,4.30,4.08,4.86,4.86,4.86
48.01,0.90,-3.97,0.90,-3.95,3.95,4.23,4.00,4.85,4.85,4.87
48.49,0.94,-3.91,0.95,-3.89,3.89,4.16,3.93,4.83,4.84,4.85
48.97,0.99,-3.83,0.99,-3.84,3.84,4.09,3.86,4.83,4.83,4.83
49.46,1.03,-3.78,1.03,-3.78,3.78,4.02,3.79,4.81,4.81,4.81
49.96,1.08,-3.71,1.08,-3.72,3.72,3.96,3.73,4.80,4.80,4.79
50.46,1.12,-3.66,1.12,-3.66,3.66,3.89,3.66,4.78,4.78,4.78
50.96,1.16,-3.61,1.16,-3.60,3.60,3.82,3.60,4.76,4.76,4.77
51.47,1.20,-3.53,1.21,-3.54,3.54,3.75,3.54,4.74,4.75,4.73
51.99,1.25,-3.47,1.25,-3.48,3.48,3.68,3.49,4.73,4.73,4.72
52.51,1.29,-3.42,1.29,-3.41,3.41,3.61,3.43,4.70,4.70,4.71
53.03,1.32,-3.36,1.33,-3.35,3.35,3.54,3.38,4.67,4.68,4.68
53.56,1.37,-3.30,1.37,-3.29,3.29,3.47,3.33,4.66,4.66,4.67
54.10,1.42,-3.22,1.41,-3.23,3.23,3.40,3.27,4.65,4.64,4.64
54.64,1.45,-3.17,1.45,-3.17,3.17,3.33,3.22,4.62,4.62,4.62
55.18,1.48,-3.11,1.49,-3.11,3.11,3.25,3.17,4.59,4.59,4.59
55.74,1.52,-3.04,1.52,-3.05,3.05,3.18,3.12,4.57,4.57,4.56
56.29,1.56,-2.99,1.56,-2.99,2.99,3.11,3.08,4.55,4.55,4.55
56.86,1.59,-2.93,1.59,-2.93,2.93,3.04,3.03,4.52,4.52,4.52
57.42,1.62,-2.86,1.62,-2.88,2.88,2.97,2.98,4.50,4.50,4.49
58.00,1.65,-2.81,1.65,-2.82,2.82,2.90,2.93,4.47,4.47,4.46
58.58,1.67,-2.77,1.67,-2.77,2.77,2.83,2.88,4.44,4.44,4.44
59.16,1.69,-2.72,1.69,-2.71,2.71,2.75,2.83,4.41,4.41,4.41
59.76,1.71,-2.68,1.71,-2.66,2.66,2.68,2.77,4.37,4.37,4.39
60.35,1.73,-2.62,1.73,-2.61,2.61,2.61,2.72,4.34,4.34,4.35
60.96,1.75,-2.57,1.74,-2.56,2.56,2.54,2.67,4.31,4.30,4.32
61.57,1.76,-2.51,1.75,-2.51,2.51,2.47,2.61,4.27,4.27,4.27
62.18,1.76,-2.46,1.76,-2.47,2.47,2.39,2.55,4.23,4.23,4.22
62.80,1.77,-2.42,1.77,-2.42,2.42,2.32,2.49,4.19,4.19,4.19
63.43,1.77,-2.37,1.78,-2.37,2.37,2.25,2.43,4.14,4.15,4.14
64.07,1.78,-2.32,1.78,-2.33,2.33,2.18,2.37,4.11,4.11,4.10
64.71,1.78,-2.28,1.78,-2.28,2.28,2.10,2.30,4.06,4.06,4.06
65.35,1.78,-2.23,1.78,-2.24,2.24,2.03,2.24,4.02,4.02,4.02
66.01,1.78,-2.19,1.78,-2.20,2.20,1.96,2.17,3.98,3.97,3.97
66.67,1.77,-2.17,1.77,-2.16,2.16,1.88,2.10,3.93,3.93,3.94
67.33,1.77,-2.12,1.77,-2.12,2.12,1.81,2.03,3.89,3.89,3.89
68.01,1.76,-2.08,1.76,-2.08,2.08,1.74,1.96,3.84,3.84,3.85
68.69,1.76,-2.04,1.76,-2.04,2.04,1.66,1.89,3.80,3.80,3.80
69.37,1.76,-1.99,1.75,-2.00,2.00,1.59,1.81,3.76,3.75,3.75
70.07,1.75,-1.95,1.75,-1.96,1.96,1.52,1.74,3.71,3.71,3.70
70.77,1.74,-1.92,1.74,-1.92,1.92,1.44,1.66,3.66,3.66,3.66
71.48,1.74,-1.88,1.74,-1.87,1.87,1.37,1.58,3.62,3.62,3.62
72.19,1.73,-1.84,1.74,-1.83,1.83,1.30,1.50,3.56,3.57,3.57
72.91,1.73,-1.79,1.74,-1.79,1.79,1.22,1.42,3.52,3.53,3.52
73.64,1.74,-1.74,1.74,-1.74,1.74,1.15,1.34,3.48,3.48,3.48
74.38,1.75,-1.69,1.75,-1.69,1.69,1.07,1.26,3.44,3.44,3.44
75.12,1.76,-1.64,1.76,-1.64,1.64,1.00,1.18,3.41,3.40,3.40
75.87,1.77,-1.59,1.77,-1.59,1.59,0.93,1.10,3.36,3.36,3.36
76.63,1.78,-1.54,1.79,-1.54,1.54,0.85,1.02,3.32,3.32,3.32
77.40,1.80,-1.48,1.81,-1.48,1.48,0.78,0.94,3.28,3.29,3.28
78.17,1.82,-1.42,1.83,-1.42,1.42,0.71,0.86,3.24,3.25,3.24
78.95,1.84,-1.37,1.86,-1.35,1.35,0.63,0.77,3.20,3.21,3.21
79.74,1.88,-1.30,1.89,-1.29,1.29,0.56,0.69,3.17,3.18,3.18
80.54,1.92,-1.23,1.92,-1.22,1.22,0.48,0.61,3.14,3.15,3.15
81.35,1.96,-1.15,1.96,-1.15,1.15,0.41,0.53,3.11,3.11,3.11
82.16,2.00,-1.08,2.00,-1.08,1.08,0.34,0.44,3.08,3.08,3.08
82.98,2.05,-1.00,2.04,-1.01,1.01,0.26,0.36,3.06,3.05,3.05
83.81,2.09,-0.93,2.08,-0.94,0.94,0.19,0.28,3.03,3.02,3.02
84.65,2.13,-0.85,2.13,-0.86,0.86,0.11,0.19,2.99,2.99,2.98
85.50,2.17,-0.79,2.17,-0.79,0.79,0.04,0.11,2.96,2.96,2.96
86.35,2.22,-0.71,2.22,-0.72,0.72,-0.03,0.03,2.94,2.93,2.93
87.22,2.27,-0.63,2.26,-0.65,0.65,-0.11,-0.06,2.92,2.91,2.90
88.09,2.31,-0.56,2.30,-0.57,0.57,-0.18,-0.14,2.88,2.88,2.87
88.97,2.36,-0.49,2.35,-0.50,0.50,-0.26,-0.22,2.86,2.85,2.85
89.86,2.39,-0.44,2.39,-0.43,0.43,-0.33,-0.31,2.83,2.82,2.83
90.76,2.43,-0.36,2.43,-0.36,0.36,-0.40,-0.39,2.80,2.79,2.79
91.66,2.47,-0.29,2.47,-0.29,0.29,-0.48,-0.48,2.76,2.77,2.76
92.58,2.51,-0.22,2.52,-0.22,0.22,-0.55,-0.56,2.73,2.74,2.73
93.51,2.57,-0.15,2.57,-0.14,0.14,-0.62,-0.65,2.71,2.71,2.72
94.44,2.61,-0.07,2.62,-0.06,0.06,-0.70,-0.73,2.67,2.68,2.68
95.39,2.66,0.00,2.67,0.02,-0.02,-0.77,-0.82,2.64,2.65,2.66
96.34,2.70,0.09,2.72,0.10,-0.10,-0.84,-0.90,2.60,2.61,2.61
97.30,2.75,0.18,2.76,0.19,-0.19,-0.92,-0.99,2.56,2.58,2.57
98.28,2.80,0.26,2.81,0.27,-0.27,-0.99,-1.07,2.53,2.54,2.54
99.26,2.87,0.37,2.87,0.36,-0.36,-1.06,-1.16,2.51,2.50,2.50
100.25,2.94,0.48,2.92,0.45,-0.45,-1.14,-1.24,2.49,2.47,2.46
101.25,3.01,0.58,2.97,0.55,-0.55,-1.21,-1.33,2.46,2.43,2.43
102.27,3.06,0.68,3.03,0.65,-0.65,-1.28,-1.42,2.42,2.38,2.38
103.29,3.08,0.75,3.08,0.74,-0.74,-1.35,-1.50,2.34,2.34,2.33
104.32,3.10,0.81,3.13,0.85,-0.85,-1.43,-1.58,2.25,2.29,2.29
105.37,3.15,0.90,3.19,0.95,-0.95,-1.50,-1.67,2.20,2.24,2.25
106.42,3.22,1.03,3.24,1.05,-1.05,-1.57,-1.75,2.17,2.19,2.19
107.48,3.29,1.15,3.29,1.16,-1.16,-1.64,-1.84,2.13,2.13,2.14
108.56,3.35,1.28,3.34,1.27,-1.27,-1.71,-1.92,2.08,2.07,2.07
109.64,3.41,1.40,3.39,1.38,-1.38,-1.79,-2.00,2.03,2.01,2.02
110.74,3.45,1.49,3.44,1.49,-1.49,-1.86,-2.08,1.96,1.95,1.96
111.85,3.49,1.60,3.49,1.60,-1.60,-1.93,-2.15,1.89,1.88,1.89
112.97,3.54,1.73,3.54,1.72,-1.72,-2.00,-2.23,1.82,1.82,1.81
114.10,3.59,1.83,3.59,1.84,-1.84,-2.07,-2.31,1.75,1.75,1.76
115.24,3.63,1.95,3.64,1.95,-1.95,-2.14,-2.38,1.68,1.68,1.68
116.39,3.66,2.06,3.68,2.07,-2.07,-2.21,-2.45,1.59,1.61,1.61
117.55,3.70,2.16,3.72,2.18,-2.18,-2.28,-2.52,1.52,1.55,1.54
118.73,3.76,2.30,3.76,2.28,-2.28,-2.35,-2.58,1.48,1.48,1.47
119.92,3.82,2.41,3.80,2.39,-2.39,-2.42,-2.65,1.43,1.41,1.41
121.12,3.86,2.52,3.83,2.49,-2.49,-2.49,-2.71,1.37,1.34,1.34
122.33,3.89,2.62,3.87,2.59,-2.59,-2.56,-2.77,1.30,1.28,1.27
123.55,3.91,2.69,3.91,2.69,-2.69,-2.63,-2.82,1.22,1.21,1.22
124.79,3.94,2.78,3.94,2.79,-2.79,-2.70,-2.87,1.16,1.15,1.16
126.03,3.96,2.86,3.97,2.88,-2.88,-2.77,-2.92,1.08,1.09,1.10
127.29,3.98,2.94,4.00,2.97,-2.97,-2.84,-2.97,1.01,1.03,1.04
128.57,4.01,3.04,4.04,3.06,-3.06,-2.91,-3.02,0.95,0.98,0.97
129.85,4.06,3.14,4.07,3.14,-3.14,-2.98,-3.06,0.92,0.92,0.92
131.15,4.10,3.24,4.09,3.23,-3.23,-3.04,-3.10,0.87,0.87,0.86
132.46,4.12,3.31,4.12,3.31,-3.31,-3.11,-3.14,0.81,0.81,0.81
133.79,4.15,3.39,4.15,3.39,-3.39,-3.18,-3.17,0.76,0.76,0.77
135.12,4.18,3.47,4.18,3.46,-3.46,-3.25,-3.21,0.72,0.71,0.71
136.48,4.20,3.54,4.20,3.54,-3.54,-3.31,-3.24,0.66,0.66,0.66
137.84,4.24,3.63,4.23,3.62,-3.62,-3.38,-3.27,0.62,0.61,0.61
139.22,4.26,3.70,4.25,3.69,-3.69,-3.45,-3.31,0.57,0.57,0.56
140.61,4.28,3.78,4.28,3.76,-3.76,-3.51,-3.34,0.52,0.52,0.51
142.02,4.31,3.84,4.30,3.82,-3.82,-3.58,-3.37,0.49,0.47,0.47
143.44,4.32,3.89,4.32,3.89,-3.89,-3.64,-3.40,0.43,0.43,0.43
144.87,4.34,3.96,4.34,3.96,-3.96,-3.71,-3.43,0.39,0.38,0.38
146.32,4.35,4.01,4.36,4.02,-4.02,-3.77,-3.46,0.33,0.34,0.34
147.78,4.38,4.08,4.38,4.09,-4.09,-3.83,-3.49,0.29,0.29,0.30
149.26,4.39,4.14,4.41,4.17,-4.17,-3.90,-3.52,0.22,0.24,0.25
150.75,4.42,4.23,4.43,4.24,-4.24,-3.96,-3.56,0.18,0.19,0.19
152.26,4.43,4.29,4.46,4.31,-4.31,-4.02,-3.59,0.12,0.14,0.14
153.78,4.46,4.36,4.49,4.39,-4.39,-4.09,-3.63,0.07,0.09,0.10
155.32,4.50,4.46,4.52,4.47,-4.47,-4.15,-3.67,0.03,0.04,0.04
156.88,4.54,4.55,4.54,4.55,-4.55,-4.21,-3.71,-0.01,-0.01,-0.00
158.44,4.57,4.63,4.57,4.63,-4.63,-4.27,-3.75,-0.06,-0.06,-0.06
160.03,4.61,4.73,4.59,4.70,-4.70,-4.33,-3.80,-0.09,-0.11,-0.11
161.63,4.63,4.80,4.61,4.78,-4.78,-4.39,-3.85,-0.15,-0.16,-0.17
163.24,4.65,4.87,4.63,4.85,-4.85,-4.45,-3.90,-0.20,-0.22,-0.22
164.88,4.68,4.95,4.64,4.92,-4.92,-4.51,-3.95,-0.23,-0.27,-0.27
166.53,4.69,5.01,4.66,4.98,-4.98,-4.57,-4.01,-0.29,-0.32,-0.32
168.19,4.70,5.08,4.67,5.04,-5.04,-4.63,-4.07,-0.34,-0.38,-0.38
169.87,4.69,5.12,4.67,5.11,-5.11,-4.68,-4.13,-0.42,-0.43,-0.43
171.57,4.67,5.16,4.68,5.17,-5.17,-4.74,-4.19,-0.50,-0.49,-0.49
173.29,4.66,5.21,4.69,5.23,-5.23,-4.80,-4.26,-0.57,-0.55,-0.55
175.02,4.66,5.26,4.69,5.30,-5.30,-4.85,-4.33,-0.64,-0.61,-0.60
176.77,4.67,5.34,4.70,5.37,-5.37,-4.91,-4.41,-0.70,-0.67,-0.67
178.54,4.69,5.42,4.71,5.44,-5.44,-4.96,-4.49,-0.75,-0.73,-0.73
180.32,4.70,5.49,4.73,5.52,-5.52,-5.02,-4.57,-0.82,-0.79,-0.79
182.13,4.73,5.58,4.75,5.60,-5.60,-5.07,-4.66,-0.87,-0.85,-0.84
183.95,4.77,5.68,4.78,5.69,-5.69,-5.12,-4.75,-0.92,-0.91,-0.91
185.79,4.81,5.78,4.81,5.78,-5.78,-5.17,-4.84,-0.97,-0.97,-0.97
187.65,4.83,5.87,4.84,5.87,-5.87,-5.23,-4.94,-1.04,-1.03,-1.04
189.52,4.86,5.96,4.88,5.97,-5.97,-5.28,-5.04,-1.11,-1.09,-1.10
191.42,4.90,6.05,4.91,6.06,-6.06,-5.33,-5.14,-1.16,-1.15,-1.15
193.33,4.94,6.15,4.94,6.14,-6.14,-5.38,-5.24,-1.20,-1.21,-1.20
195.27,4.98,6.24,4.96,6.22,-6.22,-5.42,-5.35,-1.24,-1.26,-1.26
197.22,5.00,6.32,4.97,6.29,-6.29,-5.47,-5.46,-1.29,-1.32,-1.32
199.19,5.02,6.40,4.98,6.35,-6.35,-5.52,-5.57,-1.33,-1.37,-1.38
201.18,5.02,6.45,4.98,6.41,-6.41,-5.57,-5.69,-1.39,-1.42,-1.43
203.19,5.01,6.48,4.98,6.45,-6.45,-5.61,-5.81,-1.44,-1.48,-1.47
205.23,4.99,6.52,4.96,6.49,-6.49,-5.66,-5.92,-1.50,-1.52,-1.53
207.28,4.95,6.51,4.95,6.52,-6.52,-5.70,-6.04,-1.57,-1.57,-1.56
209.35,4.92,6.54,4.92,6.54,-6.54,-5.74,-6.16,-1.62,-1.62,-1.61
211.44,4.88,6.55,4.89,6.55,-6.55,-5.79,-6.28,-1.67,-1.66,-1.67
213.56,4.85,6.56,4.86,6.56,-6.56,-5.83,-6.40,-1.71,-1.70,-1.71
215.69,4.81,6.55,4.82,6.57,-6.57,-5.87,-6.52,-1.76,-1.74,-1.73
217.85,4.77,6.55,4.79,6.57,-6.57,-5.91,-6.64,-1.80,-1.78,-1.78
220.03,4.75,6.58,4.76,6.58,-6.58,-5.95,-6.75,-1.83,-1.82,-1.83
222.23,4.72,6.58,4.73,6.59,-6.59,-5.99,-6.86,-1.86,-1.85,-1.86
224.45,4.70,6.58,4.71,6.59,-6.59,-6.02,-6.97,-1.89,-1.88,-1.88
226.70,4.67,6.58,4.69,6.60,-6.60,-6.06,-7.07,-1.93,-1.91,-1.91
228.96,4.66,6.60,4.68,6.62,-6.62,-6.10,-7.17,-1.96,-1.94,-1.94
231.25,4.65,6.60,4.67,6.63,-6.63,-6.13,-7.26,-1.98,-1.96,-1.95
233.57,4.66,6.64,4.67,6.64,-6.64,-6.16,-7.34,-1.98,-1.98,-1.98
235.90,4.67,6.67,4.66,6.66,-6.66,-6.20,-7.41,-1.98,-1.99,-2.00
238.26,4.67,6.68,4.66,6.67,-6.67,-6.23,-7.48,-2.00,-2.00,-2.01
240.64,4.68,6.70,4.67,6.68,-6.68,-6.26,-7.54,-2.00,-2.02,-2.02
243.05,4.68,6.70,4.67,6.69,-6.69,-6.29,-7.58,-2.01,-2.02,-2.02
245.48,4.68,6.71,4.67,6.70,-6.70,-6.32,-7.62,-2.02,-2.03,-2.03
247.93,4.68,6.71,4.67,6.70,-6.70,-6.34,-7.64,-2.02,-2.03,-2.03
250.41,4.68,6.72,4.68,6.71,-6.71,-6.37,-7.66,-2.03,-2.03,-2.04
252.92,4.68,6.71,4.68,6.71,-6.71,-6.40,-7.66,-2.03,-2.03,-2.03
255.45,4.68,6.70,4.68,6.71,-6.71,-6.42,-7.66,-2.03,-2.02,-2.02
258.00,4.68,6.70,4.68,6.70,-6.70,-6.44,-7.64,-2.02,-2.02,-2.02
260.58,4.68,6.69,4.68,6.69,-6.69,-6.47,-7.61,-2.01,-2.01,-2.01
263.19,4.68,6.68,4.68,6.68,-6.68,-6.49,-7.58,-2.00,-2.00,-2.00
265.82,4.68,6.68,4.68,6.67,-6.67,-6.51,-7.53,-1.99,-1.99,-2.00
268.48,4.68,6.66,4.68,6.66,-6.66,-6.53,-7.48,-1.98,-1.98,-1.98
271.16,4.68,6.64,4.68,6.65,-6.65,-6.55,-7.42,-1.97,-1.97,-1.96
273.87,4.68,6.64,4.69,6.64,-6.64,-6.56,-7.35,-1.96,-1.96,-1.96
276.61,4.68,6.62,4.69,6.63,-6.63,-6.58,-7.27,-1.95,-1.95,-1.94
279.38,4.68,6.61,4.69,6.62,-6.62,-6.59,-7.19,-1.94,-1.93,-1.93
282.17,4.68,6.60,4.69,6.61,-6.61,-6.61,-7.11,-1.93,-1.92,-1.92
284.99,4.68,6.59,4.69,6.60,-6.60,-6.62,-7.02,-1.92,-1.91,-1.90
287.84,4.69,6.59,4.69,6.59,-6.59,-6.63,-6.93,-1.90,-1.90,-1.90
290.72,4.69,6.58,4.69,6.57,-6.57,-6.64,-6.84,-1.88,-1.88,-1.89
293.63,4.70,6.57,4.68,6.55,-6.55,-6.65,-6.75,-1.85,-1.87,-1.87
296.57,4.69,6.55,4.67,6.53,-6.53,-6.65,-6.65,-1.84,-1.86,-1.86
299.53,4.67,6.52,4.65,6.50,-6.50,-6.66,-6.56,-1.83,-1.85,-1.85
302.53,4.65,6.50,4.64,6.47,-6.47,-6.67,-6.47,-1.82,-1.84,-1.85
305.55,4.63,6.45,4.62,6.45,-6.45,-6.67,-6.38,-1.81,-1.83,-1.82
308.61,4.60,6.42,4.60,6.41,-6.41,-6.67,-6.29,-1.81,-1.82,-1.81
311.69,4.57,6.38,4.57,6.38,-6.38,-6.67,-6.20,-1.81,-1.81,-1.81
314.81,4.54,6.32,4.55,6.34,-6.34,-6.68,-6.11,-1.80,-1.80,-1.78
317.96,4.51,6.30,4.52,6.31,-6.31,-6.67,-6.03,-1.80,-1.79,-1.79
321.14,4.48,6.26,4.49,6.27,-6.27,-6.67,-5.95,-1.79,-1.78,-1.78
324.35,4.45,6.23,4.46,6.24,-6.24,-6.67,-5.87,-1.79,-1.78,-1.78
327.59,4.42,6.19,4.44,6.21,-6.21,-6.66,-5.80,-1.79,-1.77,-1.77
330.87,4.41,6.18,4.41,6.18,-6.18,-6.66,-5.73,-1.77,-1.77,-1.77
334.18,4.38,6.15,4.39,6.16,-6.16,-6.65,-5.66,-1.78,-1.77,-1.77
337.52,4.34,6.11,4.36,6.13,-6.13,-6.64,-5.60,-1.79,-1.76,-1.77
340.90,4.33,6.09,4.34,6.10,-6.10,-6.64,-5.54,-1.77,-1.77,-1.76
344.30,4.30,6.06,4.31,6.08,-6.08,-6.62,-5.49,-1.78,-1.77,-1.76
347.75,4.29,6.06,4.28,6.05,-6.05,-6.61,-5.44,-1.76,-1.77,-1.76
351.23,4.28,6.05,4.25,6.02,-6.02,-6.60,-5.39,-1.74,-1.77,-1.77
354.74,4.25,6.02,4.22,5.99,-5.99,-6.59,-5.35,-1.74,-1.77,-1.77
358.28,4.21,5.99,4.18,5.96,-5.96,-6.57,-5.31,-1.75,-1.78,-1.78
361.87,4.16,5.95,4.14,5.92,-5.92,-6.56,-5.28,-1.76,-1.78,-1.78
365.49,4.10,5.89,4.10,5.89,-5.89,-6.54,-5.25,-1.79,-1.79,-1.79
369.14,4.04,5.84,4.05,5.85,-5.85,-6.52,-5.22,-1.81,-1.80,-1.80
372.83,3.99,5.79,4.01,5.81,-5.81,-6.50,-5.20,-1.82,-1.80,-1.80
376.56,3.95,5.76,3.97,5.78,-5.78,-6.48,-5.18,-1.83,-1.81,-1.81
380.33,3.90,5.72,3.92,5.74,-5.74,-6.46,-5.17,-1.84,-1.82,-1.82
384.13,3.85,5.68,3.87,5.70,-5.70,-6.43,-5.15,-1.85,-1.83,-1.83
387.97,3.81,5.65,3.82,5.66,-5.66,-6.41,-5.15,-1.85,-1.83,-1.84
391.85,3.77,5.62,3.77,5.62,-5.62,-6.39,-5.14,-1.84,-1.84,-1.85
395.77,3.73,5.57,3.73,5.58,-5.58,-6.36,-5.14,-1.85,-1.85,-1.84
399.73,3.69,5.54,3.68,5.54,-5.54,-6.33,-5.14,-1.85,-1.86,-1.85
403.72,3.65,5.52,3.64,5.50,-5.50,-6.30,-5.15,-1.85,-1.86,-1.87
407.76,3.61,5.49,3.59,5.46,-5.46,-6.27,-5.16,-1.85,-1.87,-1.88
411.84,3.55,5.42,3.54,5.42,-5.42,-6.24,-5.16,-1.87,-1.87,-1.87
415.96,3.49,5.37,3.49,5.37,-5.37,-6.21,-5.17,-1.88,-1.88,-1.88
420.12,3.44,5.32,3.45,5.33,-5.33,-6.18,-5.19,-1.89,-1.88,-1.88
424.32,3.40,5.28,3.40,5.29,-5.29,-6.15,-5.20,-1.88,-1.89,-1.88
428.56,3.35,5.24,3.35,5.24,-5.24,-6.11,-5.21,-1.89,-1.89,-1.89
432.85,3.29,5.19,3.30,5.19,-5.19,-6.08,-5.23,-1.90,-1.89,-1.89
437.18,3.25,5.15,3.25,5.14,-5.14,-6.04,-5.24,-1.89,-1.89,-1.90
441.55,3.20,5.09,3.20,5.09,-5.09,-6.00,-5.26,-1.89,-1.89,-1.89
445.96,3.15,5.04,3.15,5.04,-5.04,-5.97,-5.27,-1.89,-1.89,-1.89
450.42,3.11,5.01,3.11,5.00,-5.00,-5.93,-5.28,-1.89,-1.89,-1.90
454.93,3.07,4.96,3.07,4.96,-4.96,-5.89,-5.29,-1.88,-1.89,-1.89
459.48,3.03,4.92,3.03,4.91,-4.91,-5.85,-5.30,-1.88,-1.88,-1.89
464.07,2.99,4.87,2.99,4.87,-4.87,-5.81,-5.31,-1.88,-1.88,-1.88
468.71,2.94,4.81,2.96,4.83,-4.83,-5.76,-5.31,-1.89,-1.88,-1.87
473.40,2.90,4.77,2.92,4.79,-4.79,-5.72,-5.31,-1.89,-1.87,-1.87
478.13,2.88,4.74,2.89,4.76,-4.76,-5.68,-5.31,-1.88,-1.87,-1.86
482.91,2.85,4.71,2.86,4.72,-4.72,-5.63,-5.30,-1.87,-1.86,-1.86
487.74,2.84,4.70,2.83,4.69,-4.69,-5.59,-5.28,-1.85,-1.86,-1.85
492.62,2.82,4.67,2.80,4.65,-4.65,-5.54,-5.27,-1.83,-1.85,-1.85
497.55,2.79,4.64,2.78,4.62,-4.62,-5.50,-5.25,-1.83,-1.85,-1.85
502.52,2.76,4.60,2.75,4.59,-4.59,-5.45,-5.22,-1.83,-1.84,-1.84
507.55,2.72,4.56,2.72,4.56,-4.56,-5.40,-5.19,-1.84,-1.84,-1.84
512.62,2.69,4.53,2.69,4.53,-4.53,-5.35,-5.15,-1.84,-1.84,-1.84
