frequency,raw,error,smoothed,error_smoothed,equalization,parametric_eq,fixed_band_eq,equalized_raw,equalized_smoothed,target
20.00,-5.40,-8.59,-5.40,-8.61,8.61,8.36,2.72,3.21,3.21,3.19
20.20,-5.31,-8.54,-5.31,-8.55,8.55,8.32,2.80,3.24,3.24,3.23
20.40,-5.22,-8.49,-5.22,-8.49,8.49,8.27,2.88,3.28,3.27,3.27
20.61,-5.13,-8.43,-5.13,-8.43,8.43,8.22,2.96,3.30,3.30,3.30
20.81,-5.04,-8.38,-5.04,-8.37,8.37,8.17,3.05,3.33,3.33,3.34
21.02,-4.95,-8.33,-4.95,-8.30,8.30,8.12,3.14,3.36,3.36,3.38
21.23,-4.86,-8.26,-4.86,-8.24,8.24,8.06,3.23,3.38,3.38,3.40
21.44,-4.77,-8.19,-4.77,-8.17,8.17,8.01,3.32,3.40,3.40,3.42
21.66,-4.68,-8.12,-4.68,-8.10,8.10,7.95,3.42,3.42,3.43,3.44
21.87,-4.59,-8.04,-4.59,-8.03,8.03,7.90,3.51,3.45,3.44,3.45
22.09,-4.50,-7.97,-4.50,-7.96,7.96,7.84,3.62,3.46,3.46,3.47
22.31,-4.41,-7.89,-4.41,-7.89,7.89,7.78,3.72,3.48,3.48,3.48
22.54,-4.32,-7.81,-4.32,-7.81,7.81,7.72,3.83,3.49,3.49,3.49
22.76,-4.23,-7.73,-4.23,-7.73,7.73,7.66,3.94,3.51,3.50,3.50
22.99,-4.14,-7.64,-4.14,-7.65,7.65,7.60,4.05,3.51,3.51,3.50
23.22,-4.06,-7.57,-4.05,-7.57,7.57,7.54,4.16,3.51,3.52,3.51
23.45,-3.97,-7.49,-3.97,-7.49,7.49,7.47,4.28,3.53,3.53,3.52
23.69,-3.88,-7.41,-3.88,-7.41,7.41,7.41,4.40,3.53,3.54,3.53
23.92,-3.79,-7.33,-3.79,-7.33,7.33,7.34,4.52,3.55,3.55,3.54
24.16,-3.70,-7.26,-3.70,-7.25,7.25,7.28,4.65,3.56,3.55,3.56
24.40,-3.61,-7.19,-3.61,-7.18,7.18,7.21,4.78,3.57,3.56,3.58
24.65,-3.53,-7.10,-3.52,-7.10,7.10,7.15,4.91,3.57,3.57,3.57
24.89,-3.44,-7.02,-3.44,-7.02,7.02,7.08,5.04,3.58,3.58,3.58
25.14,-3.35,-6.94,-3.35,-6.94,6.94,7.01,5.17,3.59,3.59,3.59
25.39,-3.26,-6.86,-3.26,-6.86,6.86,6.94,5.30,3.61,3.60,3.60
25.65,-3.17,-6.79,-3.17,-6.79,6.79,6.87,5.43,3.62,3.62,3.62
25.91,-3.08,-6.70,-3.08,-6.71,6.71,6.81,5.57,3.63,3.62,3.62
26.16,-3.00,-6.63,-3.00,-6.63,6.63,6.74,5.70,3.63,3.63,3.63
26.43,-2.91,-6.55,-2.91,-6.55,6.55,6.67,5.83,3.64,3.64,3.64
26.69,-2.83,-6.48,-2.83,-6.48,6.48,6.60,5.96,3.65,3.65,3.65
26.96,-2.74,-6.41,-2.74,-6.40,6.40,6.53,6.09,3.66,3.66,3.67
27.23,-2.66,-6.34,-2.65,-6.32,6.32,6.46,6.22,3.66,3.67,3.68
27.50,-2.57,-6.25,-2.57,-6.25,6.25,6.39,6.34,3.68,3.68,3.68
27.77,-2.49,-6.17,-2.48,-6.17,6.17,6.31,6.46,3.68,3.69,3.68
28.05,-2.40,-6.10,-2.40,-6.10,6.10,6.24,6.57,3.70,3.70,3.70
28.33,-2.32,-6.02,-2.32,-6.02,6.02,6.17,6.68,3.71,3.71,3.70
28.62,-2.24,-5.95,-2.24,-5.95,5.95,6.10,6.78,3.71,3.71,3.71
28.90,-2.16,-5.88,-2.16,-5.88,5.88,6.03,6.87,3.72,3.72,3.72
29.19,-2.08,-5.80,-2.08,-5.81,5.81,5.96,6.95,3.73,3.73,3.72
29.48,-2.00,-5.75,-2.01,-5.74,5.74,5.89,7.03,3.75,3.73,3.75
29.78,-1.93,-5.67,-1.93,-5.68,5.68,5.81,7.09,3.75,3.74,3.74
30.08,-1.85,-5.60,-1.86,-5.61,5.61,5.74,7.14,3.76,3.75,3.75
30.38,-1.79,-5.54,-1.79,-5.55,5.55,5.67,7.18,3.76,3.75,3.75
30.68,-1.73,-5.50,-1.72,-5.49,5.49,5.60,7.21,3.76,3.76,3.77
30.99,-1.66,-5.43,-1.65,-5.42,5.42,5.53,7.22,3.76,3.77,3.77
31.30,-1.59,-5.36,-1.59,-5.36,5.36,5.46,7.22,3.77,3.78,3.77
31.61,-1.53,-5.31,-1.52,-5.31,5.31,5.39,7.21,3.78,3.78,3.78
31.93,-1.46,-5.25,-1.46,-5.25,5.25,5.31,7.19,3.79,3.79,3.79
32.24,-1.39,-5.18,-1.39,-5.19,5.19,5.24,7.15,3.80,3.80,3.79
32.57,-1.33,-5.14,-1.33,-5.13,5.13,5.17,7.10,3.80,3.81,3.81
32.89,-1.26,-5.07,-1.26,-5.08,5.08,5.10,7.04,3.82,3.81,3.81
33.22,-1.20,-5.02,-1.20,-5.02,5.02,5.03,6.97,3.82,3.82,3.82
33.55,-1.13,-4.96,-1.13,-4.96,4.96,4.96,6.89,3.83,3.83,3.83
33.89,-1.07,-4.91,-1.07,-4.91,4.91,4.89,6.81,3.84,3.83,3.84
34.23,-1.01,-4.85,-1.01,-4.85,4.85,4.82,6.71,3.84,3.84,3.84
34.57,-0.95,-4.80,-0.94,-4.79,4.79,4.75,6.61,3.84,3.85,3.85
34.92,-0.88,-4.73,-0.88,-4.73,4.73,4.68,6.50,3.85,3.85,3.85
35.27,-0.82,-4.68,-0.82,-4.67,4.67,4.61,6.38,3.85,3.86,3.86
35.62,-0.76,-4.62,-0.75,-4.61,4.61,4.54,6.26,3.86,3.86,3.86
35.97,-0.69,-4.55,-0.69,-4.56,4.56,4.47,6.14,3.87,3.86,3.86
36.33,-0.63,-4.50,-0.63,-4.50,4.50,4.40,6.01,3.87,3.87,3.87
36.70,-0.57,-4.43,-0.57,-4.44,4.44,4.33,5.89,3.87,3.87,3.86
37.06,-0.51,-4.38,-0.51,-4.38,4.38,4.27,5.76,3.87,3.87,3.87
37.43,-0.45,-4.32,-0.45,-4.32,4.32,4.20,5.63,3.87,3.87,3.87
37.81,-0.38,-4.25,-0.39,-4.26,4.26,4.13,5.50,3.88,3.87,3.87
38.19,-0.32,-4.19,-0.33,-4.19,4.19,4.06,5.37,3.87,3.86,3.87
38.57,-0.27,-4.13,-0.27,-4.13,4.13,4.00,5.24,3.86,3.86,3.86
38.95,-0.22,-4.08,-0.21,-4.07,4.07,3.93,5.11,3.85,3.86,3.86
39.34,-0.16,-4.01,-0.16,-4.01,4.01,3.86,4.99,3.85,3.86,3.85
39.74,-0.11,-3.96,-0.10,-3.95,3.95,3.80,4.86,3.84,3.86,3.85
40.14,-0.05,-3.90,-0.04,-3.90,3.90,3.73,4.74,3.85,3.85,3.85
40.54,0.01,-3.84,0.01,-3.84,3.84,3.67,4.62,3.85,3.85,3.85
40.94,0.07,-3.77,0.07,-3.78,3.78,3.60,4.50,3.85,3.85,3.84
41.35,0.13,-3.71,0.12,-3.72,3.72,3.54,4.39,3.85,3.84,3.84
41.76,0.19,-3.65,0.18,-3.66,3.66,3.47,4.28,3.85,3.84,3.84
42.18,0.24,-3.60,0.23,-3.60,3.60,3.41,4.17,3.84,3.84,3.84
42.60,0.29,-3.55,0.29,-3.54,3.54,3.35,4.06,3.84,3.84,3.84
43.03,0.33,-3.51,0.35,-3.49,3.49,3.29,3.96,3.82,3.83,3.84
43.46,0.39,-3.45,0.40,-3.43,3.43,3.22,3.86,3.82,3.83,3.84
43.90,0.45,-3.37,0.45,-3.37,3.37,3.16,3.76,3.82,3.83,3.82
44.33,0.50,-3.32,0.51,-3.32,3.32,3.10,3.66,3.82,3.82,3.82
44.78,0.56,-3.25,0.56,-3.26,3.26,3.04,3.57,3.82,3.82,3.81
45.23,0.62,-3.19,0.61,-3.21,3.21,2.98,3.48,3.83,3.82,3.81
45.68,0.67,-3.14,0.66,-3.15,3.15,2.92,3.40,3.82,3.81,3.81
46.13,0.72,-3.08,0.71,-3.10,3.10,2.86,3.31,3.82,3.81,3.80
46.60,0.76,-3.05,0.76,-3.04,3.04,2.80,3.23,3.81,3.80,3.81
47.06,0.81,-2.99,0.81,-2.99,2.99,2.74,3.15,3.80,3.80,3.80
47.53,0.85,-2.94,0.86,-2.93,2.93,2.69,3.08,3.78,3.79,3.79
48.01,0.90,-2.90,0.90,-2.88,2.88,2.63,3.00,3.78,3.78,3.80
48.49,0.94,-2.84,0.95,-2.83,2.83,2.57,2.93,3.77,3.77,3.78
48.97,0.99,-2.77,0.99,-2.77,2.77,2.52,2.87,3.76,3.76,3.76
49.46,1.03,-2.72,1.03,-2.72,2.72,2.46,2.80,3.75,3.75,3.75
49.96,1.08,-2.65,1.08,-2.66,2.66,2.41,2.74,3.74,3.74,3.73
50.46,1.12,-2.61,1.12,-2.60,2.60,2.36,2.67,3.72,3.72,3.73
50.96,1.16,-2.55,1.16,-2.55,2.55,2.30,2.61,3.71,3.71,3.71
51.47,1.20,-2.48,1.21,-2.49,2.49,2.25,2.56,3.69,3.69,3.68
51.99,1.25,-2.42,1.25,-2.43,2.43,2.20,2.50,3.68,3.68,3.67
52.51,1.29,-2.37,1.29,-2.37,2.37,2.15,2.44,3.66,3.66,3.66
53.03,1.32,-2.32,1.33,-2.31,2.31,2.10,2.39,3.63,3.64,3.64
53.56,1.37,-2.26,1.37,-2.25,2.25,2.05,2.34,3.62,3.62,3.63
54.10,1.42,-2.18,1.41,-2.19,2.19,2.00,2.29,3.61,3.60,3.60
54.64,1.45,-2.14,1.45,-2.13,2.13,1.95,2.24,3.58,3.58,3.59
55.18,1.48,-2.08,1.49,-2.08,2.08,1.91,2.19,3.56,3.56,3.56
55.74,1.52,-2.01,1.52,-2.02,2.02,1.86,2.14,3.54,3.55,3.53
56.29,1.56,-1.97,1.56,-1.97,1.97,1.82,2.09,3.53,3.52,3.53
56.86,1.59,-1.91,1.59,-1.91,1.91,1.77,2.04,3.51,3.50,3.50
57.42,1.62,-1.85,1.62,-1.86,1.86,1.73,1.99,3.48,3.48,3.47
58.00,1.65,-1.80,1.65,-1.81,1.81,1.69,1.94,3.46,3.46,3.45
58.58,1.67,-1.76,1.67,-1.76,1.76,1.65,1.89,3.43,3.43,3.43
59.16,1.69,-1.72,1.69,-1.71,1.71,1.61,1.85,3.40,3.40,3.41
59.76,1.71,-1.68,1.71,-1.66,1.66,1.57,1.80,3.37,3.38,3.39
60.35,1.73,-1.63,1.73,-1.62,1.62,1.53,1.75,3.35,3.35,3.36
60.96,1.75,-1.58,1.74,-1.57,1.57,1.49,1.70,3.32,3.32,3.33
61.57,1.76,-1.52,1.75,-1.53,1.53,1.46,1.64,3.29,3.28,3.28
62.18,1.76,-1.48,1.76,-1.49,1.49,1.42,1.59,3.25,3.25,3.24
62.80,1.77,-1.45,1.77,-1.44,1.44,1.39,1.54,3.21,3.21,3.22
63.43,1.77,-1.40,1.78,-1.40,1.40,1.36,1.49,3.17,3.18,3.17
64.07,1.78,-1.35,1.78,-1.36,1.36,1.32,1.43,3.14,3.14,3.13
64.71,1.78,-1.32,1.78,-1.32,1.32,1.29,1.38,3.10,3.10,3.10
65.35,1.78,-1.28,1.78,-1.28,1.28,1.26,1.32,3.07,3.06,3.06
66.01,1.78,-1.24,1.78,-1.25,1.25,1.23,1.26,3.03,3.02,3.02
66.67,1.77,-1.22,1.77,-1.21,1.21,1.20,1.20,2.98,2.98,2.99
67.33,1.77,-1.18,1.77,-1.18,1.18,1.17,1.14,2.95,2.95,2.95
68.01,1.76,-1.15,1.76,-1.14,1.14,1.15,1.08,2.91,2.91,2.91
68.69,1.76,-1.11,1.76,-1.11,1.11,1.12,1.02,2.87,2.87,2.87
69.37,1.76,-1.07,1.75,-1.08,1.08,1.09,0.96,2.84,2.83,2.83
70.07,1.75,-1.04,1.75,-1.04,1.04,1.06,0.90,2.79,2.79,2.79
70.77,1.74,-1.01,1.74,-1.01,1.01,1.03,0.83,2.75,2.75,2.75
71.48,1.74,-0.98,1.74,-0.97,0.97,1.00,0.77,2.71,2.71,2.72
72.19,1.73,-0.94,1.74,-0.94,0.94,0.97,0.70,2.67,2.68,2.67
72.91,1.73,-0.91,1.74,-0.90,0.90,0.94,0.64,2.63,2.64,2.64
73.64,1.74,-0.86,1.74,-0.86,0.86,0.90,0.57,2.60,2.60,2.60
74.38,1.75,-0.82,1.75,-0.82,0.82,0.86,0.50,2.57,2.57,2.57
75.12,1.76,-0.77,1.76,-0.78,0.78,0.83,0.44,2.54,2.53,2.53
75.87,1.77,-0.73,1.77,-0.73,0.73,0.79,0.37,2.50,2.50,2.50
76.63,1.78,-0.69,1.79,-0.69,0.69,0.74,0.30,2.47,2.47,2.47
77.40,1.80,-0.64,1.81,-0.64,0.64,0.70,0.23,2.44,2.44,2.44
78.17,1.82,-0.59,1.83,-0.58,0.58,0.65,0.16,2.40,2.41,2.41
78.95,1.84,-0.54,1.86,-0.53,0.53,0.59,0.09,2.37,2.39,2.38
79.74,1.88,-0.48,1.89,-0.47,0.47,0.54,0.02,2.35,2.36,2.36
80.54,1.92,-0.42,1.92,-0.41,0.41,0.48,-0.05,2.33,2.33,2.34
81.35,1.96,-0.35,1.96,-0.35,0.35,0.41,-0.12,2.31,2.31,2.31
82.16,2.00,-0.28,2.00,-0.29,0.29,0.35,-0.19,2.29,2.29,2.28
82.98,2.05,-0.22,2.04,-0.22,0.22,0.28,-0.27,2.27,2.26,2.27
83.81,2.09,-0.15,2.08,-0.16,0.16,0.21,-0.34,2.25,2.24,2.24
84.65,2.13,-0.08,2.13,-0.09,0.09,0.13,-0.41,2.22,2.22,2.21
85.50,2.17,-0.03,2.17,-0.03,0.03,0.05,-0.49,2.20,2.20,2.20
86.35,2.22,0.04,2.22,0.04,-0.04,-0.03,-0.56,2.18,2.18,2.18
87.22,2.27,0.11,2.26,0.10,-0.10,-0.11,-0.63,2.17,2.16,2.16
88.09,2.31,0.17,2.30,0.16,-0.16,-0.20,-0.71,2.15,2.14,2.14
88.97,2.36,0.24,2.35,0.22,-0.22,-0.28,-0.79,2.14,2.12,2.12
89.86,2.39,0.28,2.39,0.28,-0.28,-0.37,-0.86,2.11,2.10,2.11
90.76,2.43,0.35,2.43,0.35,-0.35,-0.46,-0.94,2.09,2.09,2.08
91.66,2.47,0.41,2.47,0.41,-0.41,-0.55,-1.02,2.06,2.07,2.06
92.58,2.51,0.47,2.52,0.47,-0.47,-0.64,-1.09,2.04,2.05,2.04
93.51,2.57,0.54,2.57,0.54,-0.54,-0.73,-1.17,2.03,2.03,2.03
94.44,2.61,0.60,2.62,0.62,-0.62,-0.82,-1.25,2.00,2.00,2.01
95.39,2.66,0.67,2.67,0.69,-0.69,-0.91,-1.33,1.97,1.98,1.99
96.34,2.70,0.74,2.72,0.76,-0.76,-1.00,-1.41,1.94,1.96,1.96
97.30,2.75,0.82,2.76,0.83,-0.83,-1.09,-1.49,1.92,1.93,1.93
98.28,2.80,0.90,2.81,0.91,-0.91,-1.18,-1.58,1.89,1.91,1.90
99.26,2.87,0.99,2.87,0.99,-0.99,-1.27,-1.66,1.89,1.88,1.88
100.25,2.94,1.09,2.92,1.07,-1.07,-1.36,-1.74,1.87,1.85,1.85
101.25,3.01,1.19,2.97,1.15,-1.15,-1.44,-1.82,1.86,1.82,1.82
102.27,3.06,1.28,3.03,1.24,-1.24,-1.53,-1.90,1.82,1.79,1.78
103.29,3.08,1.33,3.08,1.33,-1.33,-1.62,-1.98,1.75,1.75,1.75
104.32,3.10,1.38,3.13,1.42,-1.42,-1.70,-2.07,1.68,1.71,1.72
105.37,3.15,1.47,3.19,1.51,-1.51,-1.79,-2.15,1.64,1.67,1.68
106.42,3.22,1.59,3.24,1.61,-1.61,-1.87,-2.23,1.61,1.63,1.63
107.48,3.29,1.69,3.29,1.70,-1.70,-1.95,-2.31,1.59,1.59,1.60
108.56,3.35,1.81,3.34,1.80,-1.80,-2.03,-2.39,1.55,1.54,1.54
109.64,3.41,1.92,3.39,1.90,-1.90,-2.11,-2.47,1.51,1.49,1.49
110.74,3.45,2.01,3.44,2.00,-2.00,-2.19,-2.54,1.45,1.43,1.44
111.85,3.49,2.10,3.49,2.11,-2.11,-2.27,-2.62,1.38,1.38,1.39
112.97,3.54,2.22,3.54,2.21,-2.21,-2.35,-2.69,1.33,1.32,1.32
114.10,3.59,2.32,3.59,2.32,-2.32,-2.42,-2.77,1.27,1.27,1.27
115.24,3.63,2.42,3.64,2.43,-2.43,-2.50,-2.84,1.20,1.21,1.21
116.39,3.66,2.52,3.68,2.53,-2.53,-2.57,-2.90,1.13,1.15,1.14
117.55,3.70,2.62,3.72,2.63,-2.63,-2.65,-2.97,1.07,1.09,1.08
118.73,3.76,2.74,3.76,2.73,-2.73,-2.72,-3.03,1.03,1.03,1.02
119.92,3.82,2.85,3.80,2.82,-2.82,-2.79,-3.09,1.00,0.97,0.97
121.12,3.86,2.95,3.83,2.92,-2.92,-2.86,-3.15,0.94,0.92,0.91
122.33,3.89,3.03,3.87,3.01,-3.01,-2.94,-3.20,0.88,0.86,0.86
123.55,3.91,3.10,3.91,3.10,-3.10,-3.01,-3.25,0.81,0.81,0.81
124.79,3.94,3.18,3.94,3.18,-3.18,-3.07,-3.30,0.76,0.76,0.76
126.03,3.96,3.25,3.97,3.27,-3.27,-3.14,-3.35,0.70,0.71,0.71
127.29,3.98,3.32,4.00,3.35,-3.35,-3.21,-3.39,0.63,0.66,0.66
128.57,4.01,3.41,4.04,3.43,-3.43,-3.28,-3.43,0.58,0.61,0.60
129.85,4.06,3.50,4.07,3.50,-3.50,-3.35,-3.47,0.56,0.56,0.56
131.15,4.10,3.59,4.09,3.58,-3.58,-3.41,-3.50,0.52,0.52,0.51
132.46,4.12,3.65,4.12,3.65,-3.65,-3.48,-3.53,0.47,0.47,0.47
133.79,4.15,3.72,4.15,3.72,-3.72,-3.54,-3.56,0.43,0.43,0.43
135.12,4.18,3.79,4.18,3.79,-3.79,-3.61,-3.59,0.39,0.39,0.39
136.48,4.20,3.85,4.20,3.85,-3.85,-3.67,-3.61,0.35,0.35,0.35
137.84,4.24,3.93,4.23,3.92,-3.92,-3.73,-3.64,0.32,0.31,0.31
139.22,4.26,4.00,4.25,3.98,-3.98,-3.80,-3.66,0.28,0.27,0.26
140.61,4.28,4.06,4.28,4.04,-4.04,-3.86,-3.68,0.24,0.23,0.22
142.02,4.31,4.11,4.30,4.10,-4.10,-3.92,-3.71,0.21,0.20,0.20
143.44,4.32,4.16,4.32,4.16,-4.16,-3.98,-3.73,0.16,0.16,0.16
144.87,4.34,4.22,4.34,4.22,-4.22,-4.04,-3.75,0.12,0.12,0.12
146.32,4.35,4.27,4.36,4.28,-4.28,-4.10,-3.77,0.07,0.08,0.08
147.78,4.38,4.33,4.38,4.34,-4.34,-4.16,-3.80,0.04,0.04,0.05
149.26,4.39,4.37,4.41,4.40,-4.40,-4.22,-3.82,-0.01,0.00,0.02
150.75,4.42,4.46,4.43,4.47,-4.47,-4.28,-3.85,-0.05,-0.04,-0.04
152.26,4.43,4.51,4.46,4.54,-4.54,-4.34,-3.87,-0.10,-0.08,-0.08
153.78,4.46,4.57,4.49,4.61,-4.61,-4.39,-3.90,-0.14,-0.12,-0.11
155.32,4.50,4.67,4.52,4.68,-4.68,-4.45,-3.93,-0.18,-0.16,-0.17
156.88,4.54,4.74,4.54,4.75,-4.75,-4.51,-3.96,-0.21,-0.20,-0.20
158.44,4.57,4.82,4.57,4.82,-4.82,-4.56,-4.00,-0.25,-0.25,-0.25
160.03,4.61,4.91,4.59,4.89,-4.89,-4.62,-4.03,-0.28,-0.29,-0.30
161.63,4.63,4.98,4.61,4.95,-4.95,-4.67,-4.07,-0.32,-0.34,-0.35
163.24,4.65,5.04,4.63,5.02,-5.02,-4.72,-4.12,-0.37,-0.39,-0.39
164.88,4.68,5.11,4.64,5.08,-5.08,-4.78,-4.16,-0.40,-0.43,-0.43
166.53,4.69,5.17,4.66,5.14,-5.14,-4.83,-4.21,-0.45,-0.48,-0.48
168.19,4.70,5.23,4.67,5.19,-5.19,-4.88,-4.26,-0.49,-0.53,-0.53
169.87,4.69,5.27,4.67,5.25,-5.25,-4.94,-4.32,-0.56,-0.58,-0.58
171.57,4.67,5.29,4.68,5.31,-5.31,-4.99,-4.38,-0.64,-0.63,-0.62
173.29,4.66,5.34,4.69,5.37,-5.37,-5.04,-4.44,-0.71,-0.68,-0.68
175.02,4.66,5.39,4.69,5.43,-5.43,-5.09,-4.50,-0.77,-0.74,-0.73
176.77,4.67,5.46,4.70,5.49,-5.49,-5.14,-4.57,-0.82,-0.79,-0.79
178.54,4.69,5.53,4.71,5.56,-5.56,-5.19,-4.64,-0.87,-0.84,-0.84
180.32,4.70,5.60,4.73,5.63,-5.63,-5.23,-4.72,-0.93,-0.90,-0.90
182.13,4.73,5.68,4.75,5.71,-5.71,-5.28,-4.80,-0.98,-0.95,-0.95
183.95,4.77,5.78,4.78,5.79,-5.79,-5.33,-4.88,-1.02,-1.01,-1.01
185.79,4.81,5.87,4.81,5.88,-5.88,-5.37,-4.97,-1.06,-1.07,-1.06
187.65,4.83,5.96,4.84,5.96,-5.96,-5.42,-5.05,-1.13,-1.12,-1.13
189.52,4.86,6.04,4.88,6.05,-6.05,-5.47,-5.15,-1.19,-1.17,-1.18
191.42,4.90,6.13,4.91,6.14,-6.14,-5.51,-5.24,-1.24,-1.23,-1.23
193.33,4.94,6.22,4.94,6.22,-6.22,-5.55,-5.34,-1.28,-1.28,-1.28
195.27,4.98,6.31,4.96,6.29,-6.29,-5.60,-5.44,-1.31,-1.33,-1.33
197.22,5.00,6.39,4.97,6.36,-6.36,-5.64,-5.55,-1.36,-1.38,-1.39
199.19,5.02,6.46,4.98,6.42,-6.42,-5.68,-5.65,-1.39,-1.43,-1.44
201.18,5.02,6.51,4.98,6.47,-6.47,-5.72,-5.76,-1.44,-1.48,-1.49
203.19,5.01,6.53,4.98,6.51,-6.51,-5.76,-5.87,-1.50,-1.53,-1.52
205.23,4.99,6.57,4.96,6.54,-6.54,-5.80,-5.99,-1.55,-1.57,-1.58
207.28,4.95,6.55,4.95,6.56,-6.56,-5.84,-6.10,-1.61,-1.62,-1.60
209.35,4.92,6.58,4.92,6.58,-6.58,-5.88,-6.21,-1.66,-1.66,-1.66
211.44,4.88,6.59,4.89,6.59,-6.59,-5.91,-6.33,-1.71,-1.70,-1.71
213.56,4.85,6.60,4.86,6.60,-6.60,-5.95,-6.44,-1.75,-1.74,-1.75
215.69,4.81,6.58,4.82,6.60,-6.60,-5.99,-6.55,-1.79,-1.78,-1.77
217.85,4.77,6.58,4.79,6.60,-6.60,-6.02,-6.67,-1.83,-1.81,-1.81
220.03,4.75,6.60,4.76,6.61,-6.61,-6.05,-6.77,-1.85,-1.84,-1.85
222.23,4.72,6.60,4.73,6.61,-6.61,-6.09,-6.88,-1.89,-1.87,-1.88
224.45,4.70,6.60,4.71,6.61,-6.61,-6.12,-6.98,-1.91,-1.90,-1.90
226.70,4.67,6.60,4.69,6.62,-6.62,-6.15,-7.08,-1.95,-1.93,-1.93
228.96,4.66,6.62,4.68,6.63,-6.63,-6.18,-7.17,-1.97,-1.95,-1.96
231.25,4.65,6.62,4.67,6.64,-6.64,-6.21,-7.26,-1.99,-1.97,-1.97
233.57,4.66,6.65,4.67,6.65,-6.65,-6.24,-7.34,-1.99,-1.99,-1.99
235.90,4.67,6.67,4.66,6.66,-6.66,-6.27,-7.41,-1.99,-2.00,-2.00
238.26,4.67,6.68,4.66,6.67,-6.67,-6.29,-7.47,-2.00,-2.01,-2.01
240.64,4.68,6.70,4.67,6.68,-6.68,-6.32,-7.52,-2.00,-2.02,-2.02
243.05,4.68,6.70,4.67,6.69,-6.69,-6.34,-7.57,-2.01,-2.02,-2.02
245.48,4.68,6.71,4.67,6.70,-6.70,-6.37,-7.60,-2.02,-2.03,-2.03
247.93,4.68,6.71,4.67,6.70,-6.70,-6.39,-7.62,-2.02,-2.03,-2.03
250.41,4.68,6.71,4.68,6.70,-6.70,-6.41,-7.63,-2.02,-2.02,-2.03
252.92,4.68,6.70,4.68,6.70,-6.70,-6.43,-7.64,-2.02,-2.02,-2.02
255.45,4.68,6.69,4.68,6.70,-6.70,-6.45,-7.63,-2.01,-2.01,-2.01
258.00,4.68,6.68,4.68,6.69,-6.69,-6.47,-7.61,-2.01,-2.01,-2.00
260.58,4.68,6.68,4.68,6.68,-6.68,-6.49,-7.58,-2.00,-2.00,-2.00
263.19,4.68,6.67,4.68,6.67,-6.67,-6.51,-7.54,-1.98,-1.99,-1.99
265.82,4.68,6.66,4.68,6.65,-6.65,-6.52,-7.50,-1.97,-1.97,-1.98
268.48,4.68,6.64,4.68,6.64,-6.64,-6.54,-7.44,-1.96,-1.96,-1.96
271.16,4.68,6.62,4.68,6.63,-6.63,-6.55,-7.38,-1.95,-1.95,-1.94
273.87,4.68,6.62,4.69,6.62,-6.62,-6.57,-7.31,-1.94,-1.93,-1.94
276.61,4.68,6.59,4.69,6.61,-6.61,-6.58,-7.24,-1.93,-1.92,-1.91
279.38,4.68,6.59,4.69,6.60,-6.60,-6.59,-7.16,-1.92,-1.91,-1.91
282.17,4.68,6.57,4.69,6.59,-6.59,-6.60,-7.07,-1.91,-1.90,-1.89
284.99,4.68,6.56,4.69,6.57,-6.57,-6.60,-6.99,-1.89,-1.88,-1.88
287.84,4.69,6.56,4.69,6.56,-6.56,-6.61,-6.90,-1.87,-1.87,-1.87
290.72,4.69,6.55,4.69,6.54,-6.54,-6.62,-6.80,-1.85,-1.85,-1.86
293.63,4.70,6.54,4.68,6.52,-6.52,-6.62,-6.71,-1.82,-1.84,-1.84
296.57,4.69,6.51,4.67,6.49,-6.49,-6.63,-6.62,-1.80,-1.83,-1.82
299.53,4.67,6.49,4.65,6.47,-6.47,-6.63,-6.52,-1.80,-1.81,-1.82
302.53,4.65,6.46,4.64,6.44,-6.44,-6.63,-6.43,-1.79,-1.80,-1.81
305.55,4.63,6.42,4.62,6.41,-6.41,-6.63,-6.34,-1.78,-1.79,-1.79
308.61,4.60,6.38,4.60,6.38,-6.38,-6.63,-6.25,-1.78,-1.78,-1.78
311.69,4.57,6.34,4.57,6.34,-6.34,-6.63,-6.16,-1.77,-1.77,-1.77
314.81,4.54,6.28,4.55,6.31,-6.31,-6.62,-6.08,-1.76,-1.76,-1.74
317.96,4.51,6.26,4.52,6.27,-6.27,-6.62,-5.99,-1.76,-1.75,-1.75
321.14,4.48,6.22,4.49,6.23,-6.23,-6.61,-5.91,-1.75,-1.74,-1.74
324.35,4.45,6.19,4.46,6.20,-6.20,-6.61,-5.84,-1.75,-1.74,-1.74
327.59,4.42,6.15,4.44,6.17,-6.17,-6.60,-5.76,-1.75,-1.73,-1.73
330.87,4.41,6.14,4.41,6.14,-6.14,-6.59,-5.69,-1.73,-1.73,-1.73
334.18,4.38,6.11,4.39,6.11,-6.11,-6.58,-5.63,-1.73,-1.72,-1.73
337.52,4.34,6.06,4.36,6.09,-6.09,-6.57,-5.56,-1.75,-1.72,-1.72
340.90,4.33,6.05,4.34,6.06,-6.06,-6.56,-5.50,-1.73,-1.72,-1.72
344.30,4.30,6.02,4.31,6.03,-6.03,-6.54,-5.45,-1.73,-1.72,-1.72
347.75,4.29,6.01,4.28,6.00,-6.00,-6.53,-5.40,-1.71,-1.72,-1.72
351.23,4.28,6.00,4.25,5.97,-5.97,-6.51,-5.35,-1.69,-1.72,-1.72
354.74,4.25,5.97,4.22,5.94,-5.94,-6.49,-5.31,-1.69,-1.73,-1.72
358.28,4.21,5.95,4.18,5.91,-5.91,-6.48,-5.27,-1.70,-1.73,-1.74
361.87,4.16,5.90,4.14,5.88,-5.88,-6.46,-5.24,-1.71,-1.74,-1.74
365.49,4.10,5.84,4.10,5.84,-5.84,-6.44,-5.21,-1.74,-1.74,-1.74
369.14,4.04,5.79,4.05,5.80,-5.80,-6.41,-5.18,-1.76,-1.75,-1.75
372.83,3.99,5.74,4.01,5.77,-5.77,-6.39,-5.16,-1.78,-1.75,-1.75
376.56,3.95,5.71,3.97,5.73,-5.73,-6.37,-5.14,-1.78,-1.76,-1.76
380.33,3.90,5.67,3.92,5.69,-5.69,-6.34,-5.13,-1.79,-1.77,-1.77
384.13,3.85,5.63,3.87,5.65,-5.65,-6.32,-5.11,-1.80,-1.78,-1.78
387.97,3.81,5.60,3.82,5.61,-5.61,-6.29,-5.11,-1.79,-1.78,-1.79
391.85,3.77,5.57,3.77,5.56,-5.56,-6.26,-5.10,-1.79,-1.79,-1.80
395.77,3.73,5.52,3.73,5.52,-5.52,-6.23,-5.10,-1.79,-1.80,-1.79
399.73,3.69,5.49,3.68,5.48,-5.48,-6.20,-5.10,-1.79,-1.80,-1.80
403.72,3.65,5.46,3.64,5.44,-5.44,-6.17,-5.11,-1.79,-1.81,-1.81
407.76,3.61,5.43,3.59,5.40,-5.40,-6.14,-5.11,-1.79,-1.82,-1.82
411.84,3.55,5.36,3.54,5.36,-5.36,-6.10,-5.12,-1.81,-1.82,-1.81
415.96,3.49,5.32,3.49,5.32,-5.32,-6.07,-5.13,-1.83,-1.83,-1.83
420.12,3.44,5.27,3.45,5.28,-5.28,-6.03,-5.14,-1.83,-1.83,-1.83
424.32,3.40,5.23,3.40,5.23,-5.23,-6.00,-5.15,-1.83,-1.83,-1.83
428.56,3.35,5.19,3.35,5.18,-5.18,-5.96,-5.17,-1.83,-1.83,-1.84
432.85,3.29,5.13,3.30,5.13,-5.13,-5.92,-5.18,-1.84,-1.83,-1.84
437.18,3.25,5.09,3.25,5.08,-5.08,-5.88,-5.20,-1.83,-1.83,-1.84
441.55,3.20,5.03,3.20,5.04,-5.04,-5.84,-5.21,-1.84,-1.84,-1.83
445.96,3.15,4.98,3.15,4.99,-4.99,-5.80,-5.22,-1.84,-1.83,-1.83
450.42,3.11,4.95,3.11,4.94,-4.94,-5.76,-5.23,-1.83,-1.83,-1.84
454.93,3.07,4.90,3.07,4.90,-4.90,-5.71,-5.24,-1.83,-1.83,-1.83
459.48,3.03,4.86,3.03,4.86,-4.86,-5.67,-5.25,-1.83,-1.83,-1.83
464.07,2.99,4.81,2.99,4.82,-4.82,-5.62,-5.26,-1.82,-1.82,-1.82
468.71,2.94,4.75,2.96,4.78,-4.78,-5.58,-5.26,-1.84,-1.82,-1.81
473.40,2.90,4.72,2.92,4.74,-4.74,-5.53,-5.26,-1.84,-1.81,-1.82
478.13,2.88,4.69,2.89,4.70,-4.70,-5.48,-5.25,-1.82,-1.81,-1.81
482.91,2.85,4.66,2.86,4.66,-4.66,-5.44,-5.24,-1.81,-1.80,-1.81
487.74,2.84,4.64,2.83,4.63,-4.63,-5.39,-5.23,-1.79,-1.80,-1.80
492.62,2.82,4.61,2.80,4.60,-4.60,-5.34,-5.21,-1.78,-1.79,-1.79
497.55,2.79,4.58,2.78,4.56,-4.56,-5.28,-5.19,-1.77,-1.79,-1.79
502.52,2.76,4.54,2.75,4.53,-4.53,-5.23,-5.17,-1.77,-1.78,-1.78
507.55,2.72,4.50,2.72,4.50,-4.50,-5.18,-5.13,-1.78,-1.78,-1.78
512.62,2.69,4.47,2.69,4.47,-4.47,-5.13,-5.10,-1.78,-1.78,-1.78
