frequency,raw,error,smoothed,error_smoothed,equalization,parametric_eq,fixed_band_eq,equalized_raw,equalized_smoothed,target
20.00,-9.44,-14.35,-9.44,-14.35,14.36,13.85,5.29,4.91,4.92,4.91
20.20,-9.33,-14.29,-9.33,-14.29,14.29,13.78,5.42,4.96,4.96,4.96
20.40,-9.22,-14.23,-9.23,-14.23,14.23,13.71,5.55,5.01,5.00,5.01
20.61,-9.12,-14.16,-9.12,-14.17,14.16,13.64,5.69,5.04,5.04,5.04
20.81,-9.01,-14.10,-9.01,-14.10,14.09,13.57,5.84,5.07,5.07,5.09
21.02,-8.90,-14.03,-8.90,-14.02,14.01,13.50,5.98,5.11,5.11,5.13
21.23,-8.78,-13.93,-8.78,-13.93,13.93,13.43,6.13,5.14,5.14,5.15
21.44,-8.67,-13.84,-8.67,-13.84,13.84,13.36,6.29,5.17,5.17,5.17
21.66,-8.55,-13.74,-8.55,-13.74,13.74,13.29,6.45,5.19,5.19,5.19
21.87,-8.44,-13.64,-8.44,-13.64,13.64,13.22,6.61,5.20,5.20,5.20
22.09,-8.32,-13.54,-8.33,-13.54,13.54,13.14,6.78,5.22,5.21,5.22
22.31,-8.22,-13.45,-8.22,-13.44,13.43,13.07,6.96,5.21,5.22,5.23
22.54,-8.11,-13.34,-8.11,-13.34,13.33,13.00,7.13,5.22,5.23,5.23
22.76,-8.00,-13.23,-8.00,-13.23,13.24,12.92,7.31,5.23,5.23,5.23
22.99,-7.89,-13.11,-7.90,-13.12,13.14,12.85,7.50,5.25,5.24,5.22
23.22,-7.81,-13.03,-7.81,-13.02,13.04,12.78,7.69,5.23,5.24,5.22
23.45,-7.72,-12.94,-7.72,-12.94,12.95,12.70,7.89,5.23,5.22,5.22
23.69,-7.63,-12.86,-7.64,-12.86,12.85,12.63,8.09,5.21,5.21,5.23
23.92,-7.55,-12.78,-7.54,-12.77,12.75,12.55,8.30,5.19,5.20,5.23
24.16,-7.44,-12.67,-7.44,-12.67,12.64,12.48,8.51,5.20,5.20,5.23
24.40,-7.32,-12.56,-7.32,-12.55,12.54,12.40,8.72,5.22,5.22,5.24
24.65,-7.19,-12.42,-7.19,-12.42,12.43,12.32,8.95,5.24,5.24,5.23
24.89,-7.07,-12.30,-7.08,-12.31,12.32,12.25,9.17,5.25,5.25,5.23
25.14,-6.97,-12.20,-6.97,-12.20,12.22,12.17,9.40,5.25,5.25,5.23
25.39,-6.88,-12.12,-6.87,-12.11,12.12,12.09,9.63,5.24,5.24,5.24
25.65,-6.78,-12.02,-6.78,-12.02,12.02,12.02,9.87,5.24,5.23,5.24
25.91,-6.69,-11.92,-6.70,-11.93,11.93,11.94,10.11,5.23,5.23,5.23
26.16,-6.61,-11.84,-6.61,-11.84,11.84,11.86,10.36,5.23,5.23,5.23
26.43,-6.53,-11.76,-6.53,-11.75,11.75,11.78,10.60,5.22,5.22,5.23
26.69,-6.44,-11.67,-6.45,-11.67,11.66,11.70,10.85,5.22,5.22,5.23
26.96,-6.36,-11.59,-6.36,-11.59,11.58,11.63,11.10,5.21,5.21,5.23
27.23,-6.27,-11.50,-6.27,-11.49,11.49,11.55,11.35,5.21,5.22,5.23
27.50,-6.17,-11.40,-6.17,-11.40,11.40,11.47,11.59,5.22,5.22,5.23
27.77,-6.07,-11.29,-6.08,-11.29,11.31,11.39,11.83,5.24,5.23,5.22
28.05,-5.98,-11.20,-5.98,-11.20,11.22,11.31,12.07,5.23,5.23,5.22
28.33,-5.90,-11.11,-5.90,-11.11,11.12,11.23,12.30,5.22,5.22,5.21
28.62,-5.82,-11.03,-5.83,-11.04,11.02,11.15,12.52,5.20,5.20,5.21
28.90,-5.75,-10.97,-5.74,-10.95,10.93,11.07,12.72,5.18,5.19,5.22
29.19,-5.64,-10.85,-5.64,-10.85,10.84,10.99,12.92,5.19,5.19,5.21
29.48,-5.53,-10.75,-5.53,-10.74,10.75,10.91,13.09,5.22,5.22,5.22
29.78,-5.42,-10.63,-5.42,-10.64,10.66,10.82,13.25,5.24,5.24,5.21
30.08,-5.32,-10.54,-5.33,-10.55,10.57,10.74,13.37,5.25,5.24,5.22
30.38,-5.26,-10.47,-5.26,-10.47,10.48,10.66,13.48,5.22,5.22,5.21
30.68,-5.20,-10.41,-5.20,-10.41,10.39,10.58,13.56,5.19,5.19,5.21
30.99,-5.14,-10.35,-5.13,-10.33,10.31,10.50,13.62,5.16,5.18,5.21
31.30,-5.04,-10.24,-5.04,-10.24,10.23,10.42,13.63,5.19,5.19,5.20
31.61,-4.94,-10.14,-4.94,-10.14,10.15,10.33,13.63,5.21,5.21,5.20
31.93,-4.83,-10.03,-4.85,-10.04,10.07,10.25,13.59,5.24,5.22,5.20
32.24,-4.77,-9.96,-4.78,-9.97,9.98,10.17,13.53,5.21,5.20,5.19
32.57,-4.72,-9.91,-4.72,-9.91,9.89,10.09,13.43,5.17,5.17,5.19
32.89,-4.67,-9.86,-4.65,-9.84,9.80,10.00,13.33,5.13,5.14,5.19
33.22,-4.56,-9.74,-4.56,-9.74,9.71,9.92,13.19,5.15,5.15,5.18
33.55,-4.44,-9.62,-4.44,-9.61,9.62,9.84,13.04,5.18,5.18,5.18
33.89,-4.31,-9.48,-4.33,-9.50,9.54,9.76,12.86,5.23,5.21,5.17
34.23,-4.24,-9.41,-4.25,-9.41,9.45,9.67,12.68,5.21,5.20,5.17
34.57,-4.19,-9.35,-4.19,-9.35,9.36,9.59,12.48,5.17,5.17,5.16
34.92,-4.14,-9.30,-4.13,-9.28,9.26,9.51,12.28,5.12,5.13,5.16
35.27,-4.05,-9.20,-4.05,-9.20,9.17,9.43,12.06,5.11,5.11,5.15
35.62,-3.95,-9.10,-3.96,-9.11,9.07,9.34,11.85,5.12,5.11,5.15
35.97,-3.85,-9.00,-3.85,-8.99,8.98,9.26,11.63,5.13,5.13,5.15
36.33,-3.74,-8.89,-3.73,-8.88,8.88,9.18,11.41,5.14,5.15,5.15
36.70,-3.62,-8.76,-3.63,-8.77,8.79,9.09,11.19,5.17,5.17,5.14
37.06,-3.52,-8.66,-3.53,-8.67,8.71,9.01,10.97,5.19,5.17,5.14
37.43,-3.46,-8.61,-3.46,-8.60,8.63,8.93,10.75,5.17,5.17,5.15
37.81,-3.41,-8.56,-3.41,-8.55,8.56,8.85,10.53,5.15,5.16,5.15
38.19,-3.36,-8.50,-3.36,-8.51,8.51,8.76,10.32,5.14,5.14,5.14
38.57,-3.31,-8.46,-3.32,-8.46,8.45,8.68,10.12,5.14,5.14,5.15
38.95,-3.27,-8.43,-3.27,-8.41,8.40,8.60,9.92,5.13,5.14,5.16
39.34,-3.21,-8.36,-3.21,-8.36,8.35,8.52,9.72,5.13,5.13,5.15
39.74,-3.15,-8.30,-3.15,-8.30,8.28,8.44,9.53,5.13,5.13,5.15
40.14,-3.08,-8.23,-3.08,-8.23,8.21,8.36,9.34,5.13,5.13,5.15
40.54,-3.00,-8.15,-3.01,-8.15,8.13,8.28,9.16,5.13,5.13,5.15
40.94,-2.92,-8.06,-2.92,-8.06,8.06,8.19,8.98,5.13,5.14,5.14
41.35,-2.83,-7.97,-2.82,-7.96,7.98,8.11,8.81,5.15,5.16,5.14
41.76,-2.73,-7.86,-2.74,-7.87,7.90,8.03,8.65,5.17,5.16,5.13
42.18,-2.66,-7.79,-2.68,-7.80,7.82,7.95,8.49,5.16,5.14,5.13
42.60,-2.64,-7.76,-2.64,-7.75,7.75,7.87,8.33,5.11,5.11,5.12
43.03,-2.61,-7.72,-2.60,-7.70,7.68,7.80,8.19,5.07,5.08,5.11
43.46,-2.54,-7.64,-2.54,-7.64,7.62,7.72,8.04,5.08,5.08,5.10
43.90,-2.47,-7.55,-2.48,-7.55,7.56,7.64,7.91,5.09,5.09,5.08
44.33,-2.41,-7.47,-2.41,-7.46,7.50,7.56,7.78,5.08,5.09,5.06
44.78,-2.35,-7.39,-2.37,-7.41,7.42,7.48,7.65,5.07,5.05,5.04
45.23,-2.32,-7.35,-2.35,-7.37,7.34,7.41,7.53,5.02,4.99,5.03
45.68,-2.33,-7.35,-2.31,-7.32,7.26,7.33,7.41,4.92,4.95,5.02
46.13,-2.27,-7.27,-2.21,-7.21,7.18,7.25,7.30,4.91,4.97,5.00
46.60,-2.07,-7.07,-2.09,-7.08,7.11,7.18,7.20,5.03,5.02,5.00
47.06,-1.91,-6.89,-2.00,-6.98,7.05,7.10,7.10,5.13,5.05,4.98
47.53,-1.96,-6.93,-1.96,-6.93,6.99,7.03,7.00,5.03,5.03,4.97
48.01,-2.01,-6.98,-1.95,-6.91,6.93,6.95,6.91,4.92,4.98,4.97
48.49,-1.94,-6.89,-1.94,-6.89,6.87,6.88,6.82,4.93,4.93,4.95
48.97,-1.86,-6.79,-1.93,-6.85,6.81,6.80,6.74,4.94,4.88,4.93
49.46,-1.89,-6.80,-1.90,-6.81,6.75,6.73,6.66,4.85,4.84,4.91
49.96,-1.93,-6.82,-1.85,-6.74,6.69,6.66,6.58,4.76,4.84,4.89
50.46,-1.76,-6.64,-1.76,-6.63,6.63,6.59,6.51,4.86,4.87,4.88
50.96,-1.57,-6.44,-1.65,-6.51,6.56,6.52,6.44,4.98,4.91,4.87
51.47,-1.55,-6.40,-1.55,-6.40,6.48,6.45,6.37,4.92,4.92,4.85
51.99,-1.54,-6.38,-1.51,-6.35,6.38,6.38,6.31,4.84,4.87,4.84
52.51,-1.48,-6.31,-1.49,-6.32,6.29,6.31,6.25,4.80,4.80,4.83
53.03,-1.43,-6.26,-1.45,-6.27,6.19,6.24,6.19,4.76,4.74,4.83
53.56,-1.37,-6.18,-1.36,-6.17,6.10,6.17,6.13,4.73,4.74,4.81
54.10,-1.28,-6.08,-1.23,-6.03,6.02,6.10,6.08,4.74,4.79,4.80
54.64,-1.08,-5.86,-1.11,-5.89,5.95,6.03,6.03,4.87,4.84,4.78
55.18,-0.96,-5.74,-1.02,-5.79,5.88,5.97,5.97,4.92,4.86,4.78
55.74,-1.01,-5.77,-0.99,-5.75,5.80,5.90,5.92,4.79,4.82,4.76
56.29,-1.02,-5.77,-1.00,-5.74,5.73,5.83,5.87,4.70,4.73,4.75
56.86,-0.99,-5.73,-1.01,-5.74,5.65,5.77,5.82,4.66,4.64,4.74
57.42,-0.96,-5.67,-0.97,-5.68,5.59,5.70,5.76,4.63,4.63,4.71
58.00,-0.93,-5.63,-0.87,-5.57,5.55,5.64,5.71,4.62,4.68,4.70
58.58,-0.77,-5.46,-0.80,-5.48,5.51,5.58,5.66,4.74,4.72,4.69
59.16,-0.68,-5.35,-0.76,-5.42,5.49,5.51,5.60,4.81,4.73,4.67
59.76,-0.79,-5.44,-0.74,-5.39,5.47,5.45,5.55,4.68,4.73,4.65
60.35,-0.83,-5.44,-0.80,-5.41,5.46,5.39,5.49,4.63,4.66,4.61
60.96,-0.83,-5.40,-0.89,-5.46,5.45,5.32,5.43,4.62,4.56,4.57
61.57,-0.97,-5.50,-0.96,-5.49,5.45,5.26,5.37,4.48,4.49,4.53
62.18,-1.07,-5.56,-1.03,-5.51,5.45,5.20,5.30,4.38,4.42,4.49
62.80,-1.05,-5.49,-1.08,-5.51,5.45,5.14,5.24,4.40,4.37,4.44
63.43,-1.05,-5.45,-1.05,-5.45,5.44,5.08,5.17,4.38,4.38,4.40
64.07,-1.03,-5.38,-1.00,-5.35,5.40,5.02,5.10,4.37,4.40,4.35
64.71,-0.94,-5.25,-0.98,-5.29,5.34,4.96,5.03,4.40,4.36,4.31
65.35,-0.94,-5.21,-0.98,-5.24,5.25,4.89,4.95,4.31,4.27,4.27
66.01,-1.01,-5.23,-0.98,-5.20,5.14,4.83,4.88,4.13,4.16,4.22
66.67,-0.97,-5.14,-0.94,-5.10,5.01,4.77,4.80,4.04,4.08,4.17
67.33,-0.84,-4.96,-0.83,-4.95,4.87,4.72,4.72,4.03,4.04,4.12
68.01,-0.63,-4.71,-0.69,-4.76,4.75,4.66,4.64,4.11,4.06,4.08
68.69,-0.56,-4.59,-0.53,-4.56,4.63,4.60,4.55,4.06,4.09,4.03
69.37,-0.45,-4.43,-0.43,-4.41,4.51,4.54,4.47,4.06,4.08,3.98
70.07,-0.32,-4.25,-0.39,-4.32,4.40,4.48,4.39,4.08,4.01,3.93
70.77,-0.40,-4.28,-0.38,-4.25,4.30,4.42,4.30,3.89,3.92,3.88
71.48,-0.44,-4.27,-0.44,-4.26,4.22,4.36,4.21,3.78,3.78,3.83
72.19,-0.47,-4.23,-0.50,-4.26,4.16,4.30,4.13,3.69,3.67,3.76
72.91,-0.56,-4.26,-0.48,-4.18,4.13,4.24,4.04,3.57,3.65,3.70
73.64,-0.42,-4.07,-0.45,-4.09,4.10,4.18,3.95,3.68,3.65,3.65
74.38,-0.38,-3.97,-0.44,-4.03,4.06,4.12,3.86,3.68,3.62,3.59
75.12,-0.48,-4.01,-0.48,-4.00,4.02,4.06,3.78,3.53,3.54,3.53
75.87,-0.58,-4.05,-0.57,-4.04,3.99,4.01,3.69,3.41,3.42,3.47
76.63,-0.66,-4.08,-0.62,-4.03,4.00,3.95,3.61,3.34,3.39,3.42
77.40,-0.65,-4.02,-0.64,-4.01,4.06,3.89,3.52,3.41,3.41,3.37
78.17,-0.62,-3.93,-0.68,-3.99,4.14,3.83,3.44,3.52,3.47,3.31
78.95,-0.80,-4.07,-0.79,-4.06,4.23,3.77,3.36,3.42,3.43,3.27
79.74,-0.97,-4.19,-1.03,-4.25,4.29,3.71,3.28,3.32,3.26,3.22
80.54,-1.31,-4.48,-1.32,-4.49,4.34,3.65,3.20,3.02,3.01,3.17
81.35,-1.57,-4.69,-1.48,-4.60,4.36,3.59,3.12,2.79,2.88,3.12
82.16,-1.56,-4.63,-1.48,-4.55,4.37,3.54,3.05,2.81,2.90,3.07
82.98,-1.26,-4.29,-1.35,-4.37,4.36,3.48,2.97,3.10,3.01,3.03
83.81,-1.13,-4.11,-1.19,-4.17,4.31,3.42,2.90,3.17,3.11,2.98
84.65,-1.14,-4.07,-1.11,-4.04,4.20,3.36,2.83,3.06,3.09,2.93
85.50,-1.13,-4.02,-1.13,-4.01,4.05,3.30,2.76,2.92,2.93,2.89
86.35,-1.10,-3.94,-1.13,-3.97,3.88,3.24,2.69,2.78,2.75,2.84
87.22,-1.08,-3.87,-1.04,-3.83,3.71,3.18,2.62,2.63,2.68,2.79
88.09,-0.94,-3.68,-0.89,-3.62,3.56,3.12,2.55,2.62,2.67,2.74
88.97,-0.64,-3.32,-0.72,-3.40,3.42,3.06,2.49,2.78,2.70,2.68
89.86,-0.54,-3.17,-0.57,-3.20,3.27,3.00,2.43,2.73,2.70,2.63
90.76,-0.51,-3.09,-0.46,-3.03,3.12,2.94,2.37,2.61,2.67,2.58
91.66,-0.41,-2.94,-0.40,-2.92,2.98,2.88,2.31,2.56,2.58,2.53
92.58,-0.30,-2.77,-0.37,-2.84,2.84,2.83,2.25,2.54,2.47,2.47
93.51,-0.34,-2.76,-0.34,-2.76,2.72,2.77,2.20,2.38,2.38,2.42
94.44,-0.37,-2.75,-0.27,-2.65,2.61,2.71,2.14,2.24,2.33,2.38
95.39,-0.19,-2.52,-0.20,-2.52,2.49,2.65,2.09,2.29,2.29,2.33
96.34,-0.01,-2.29,-0.13,-2.41,2.36,2.59,2.04,2.35,2.23,2.28
97.30,-0.08,-2.31,-0.06,-2.28,2.25,2.53,1.99,2.17,2.19,2.23
98.28,-0.10,-2.28,0.03,-2.15,2.15,2.47,1.94,2.05,2.18,2.18
99.26,0.17,-1.97,0.13,-2.00,2.06,2.41,1.89,2.23,2.19,2.14
100.25,0.31,-1.78,0.22,-1.86,1.98,2.35,1.85,2.29,2.21,2.09
101.25,0.24,-1.80,0.22,-1.82,1.92,2.30,1.80,2.15,2.13,2.04
102.27,0.07,-1.92,0.09,-1.89,1.86,2.24,1.76,1.93,1.95,1.99
103.29,-0.03,-1.97,0.02,-1.92,1.82,2.18,1.71,1.79,1.84,1.94
104.32,-0.02,-1.92,0.02,-1.87,1.79,2.12,1.67,1.77,1.81,1.90
105.37,0.15,-1.70,0.07,-1.77,1.76,2.07,1.63,1.91,1.83,1.85
106.42,0.12,-1.68,0.11,-1.68,1.73,2.01,1.60,1.85,1.84,1.80
107.48,0.10,-1.64,0.11,-1.63,1.68,1.95,1.56,1.78,1.79,1.74
108.56,0.07,-1.62,0.07,-1.62,1.62,1.89,1.52,1.68,1.68,1.69
109.64,0.05,-1.59,0.06,-1.57,1.54,1.84,1.49,1.58,1.59,1.64
110.74,0.08,-1.50,0.08,-1.50,1.46,1.78,1.45,1.54,1.54,1.58
111.85,0.12,-1.42,0.12,-1.41,1.39,1.73,1.42,1.51,1.52,1.54
112.97,0.19,-1.29,0.17,-1.31,1.33,1.67,1.39,1.52,1.50,1.48
114.10,0.20,-1.23,0.19,-1.23,1.27,1.62,1.35,1.47,1.46,1.43
115.24,0.20,-1.18,0.20,-1.17,1.20,1.56,1.32,1.40,1.40,1.38
116.39,0.20,-1.13,0.20,-1.13,1.13,1.51,1.29,1.32,1.32,1.33
117.55,0.20,-1.09,0.20,-1.09,1.06,1.46,1.27,1.26,1.26,1.29
118.73,0.21,-1.04,0.20,-1.05,1.01,1.40,1.24,1.22,1.21,1.25
119.92,0.22,-1.00,0.22,-0.99,0.97,1.35,1.21,1.19,1.20,1.22
121.12,0.23,-0.95,0.27,-0.91,0.94,1.30,1.19,1.17,1.21,1.18
122.33,0.33,-0.82,0.28,-0.87,0.92,1.25,1.16,1.25,1.20,1.15
123.55,0.30,-0.82,0.26,-0.86,0.90,1.20,1.14,1.19,1.15,1.12
124.79,0.16,-0.93,0.21,-0.88,0.88,1.15,1.11,1.03,1.09,1.09
126.03,0.15,-0.91,0.16,-0.90,0.86,1.10,1.09,1.00,1.02,1.06
127.29,0.16,-0.88,0.14,-0.89,0.84,1.05,1.07,1.00,0.98,1.04
128.57,0.17,-0.83,0.16,-0.84,0.83,1.00,1.05,0.99,0.99,1.00
129.85,0.17,-0.80,0.17,-0.80,0.80,0.96,1.03,0.97,0.97,0.97
131.15,0.18,-0.76,0.18,-0.76,0.77,0.91,1.01,0.95,0.95,0.94
132.46,0.18,-0.73,0.18,-0.72,0.72,0.86,0.99,0.90,0.90,0.91
133.79,0.19,-0.69,0.18,-0.70,0.67,0.82,0.97,0.86,0.85,0.88
135.12,0.19,-0.66,0.19,-0.66,0.63,0.78,0.96,0.82,0.82,0.85
136.48,0.19,-0.64,0.22,-0.60,0.61,0.73,0.94,0.79,0.83,0.83
137.84,0.26,-0.53,0.24,-0.55,0.60,0.69,0.92,0.86,0.84,0.79
139.22,0.27,-0.49,0.23,-0.53,0.60,0.65,0.91,0.87,0.84,0.76
140.61,0.17,-0.56,0.19,-0.54,0.61,0.61,0.89,0.78,0.81,0.73
142.02,0.10,-0.61,0.08,-0.62,0.62,0.57,0.88,0.72,0.70,0.71
143.44,0.01,-0.67,-0.02,-0.69,0.62,0.54,0.86,0.63,0.60,0.68
144.87,-0.13,-0.77,-0.06,-0.70,0.61,0.50,0.85,0.47,0.55,0.64
146.32,-0.05,-0.65,-0.07,-0.67,0.59,0.47,0.84,0.54,0.52,0.60
147.78,-0.00,-0.57,-0.04,-0.60,0.56,0.43,0.83,0.56,0.52,0.57
149.26,-0.00,-0.52,0.01,-0.50,0.52,0.40,0.81,0.52,0.54,0.52
150.75,0.01,-0.45,0.05,-0.41,0.47,0.37,0.80,0.48,0.52,0.46
152.26,0.09,-0.30,0.06,-0.33,0.41,0.34,0.79,0.49,0.47,0.39
153.78,0.06,-0.26,-0.00,-0.32,0.35,0.31,0.78,0.41,0.34,0.32
155.32,-0.09,-0.34,-0.10,-0.34,0.31,0.28,0.77,0.21,0.21,0.25
156.88,-0.28,-0.45,-0.16,-0.33,0.28,0.25,0.76,-0.00,0.12,0.17
158.44,-0.18,-0.27,-0.18,-0.27,0.27,0.23,0.75,0.09,0.09,0.09
160.03,-0.09,-0.10,-0.20,-0.21,0.26,0.21,0.75,0.17,0.06,0.01
161.63,-0.26,-0.20,-0.29,-0.22,0.26,0.18,0.74,-0.01,-0.03,-0.06
163.24,-0.45,-0.33,-0.39,-0.27,0.25,0.16,0.73,-0.20,-0.14,-0.12
164.88,-0.54,-0.37,-0.44,-0.27,0.24,0.14,0.72,-0.31,-0.21,-0.17
166.53,-0.36,-0.14,-0.48,-0.25,0.22,0.12,0.72,-0.15,-0.26,-0.22
168.19,-0.41,-0.15,-0.48,-0.21,0.20,0.11,0.71,-0.21,-0.27,-0.26
169.87,-0.61,-0.31,-0.48,-0.18,0.19,0.09,0.70,-0.42,-0.29,-0.30
171.57,-0.47,-0.15,-0.50,-0.18,0.17,0.08,0.70,-0.30,-0.33,-0.32
173.29,-0.44,-0.11,-0.48,-0.14,0.14,0.07,0.69,-0.30,-0.34,-0.33
175.02,-0.44,-0.10,-0.43,-0.09,0.12,0.06,0.69,-0.33,-0.32,-0.34
176.77,-0.45,-0.10,-0.45,-0.09,0.10,0.05,0.68,-0.35,-0.35,-0.35
178.54,-0.45,-0.09,-0.45,-0.10,0.10,0.04,0.68,-0.35,-0.35,-0.36
180.32,-0.45,-0.10,-0.45,-0.09,0.11,0.03,0.67,-0.34,-0.34,-0.35
182.13,-0.44,-0.10,-0.43,-0.08,0.11,0.03,0.67,-0.33,-0.31,-0.34
183.95,-0.43,-0.08,-0.45,-0.10,0.11,0.03,0.67,-0.32,-0.33,-0.35
185.79,-0.43,-0.08,-0.49,-0.13,0.11,0.02,0.66,-0.32,-0.38,-0.35
187.65,-0.59,-0.22,-0.54,-0.17,0.10,0.02,0.66,-0.49,-0.44,-0.37
189.52,-0.57,-0.19,-0.54,-0.15,0.09,0.03,0.66,-0.48,-0.45,-0.38
191.42,-0.49,-0.09,-0.49,-0.09,0.07,0.03,0.66,-0.42,-0.42,-0.40
193.33,-0.38,0.04,-0.43,-0.01,0.05,0.03,0.65,-0.33,-0.37,-0.42
195.27,-0.40,0.04,-0.43,0.02,0.04,0.04,0.65,-0.37,-0.39,-0.44
197.22,-0.49,-0.03,-0.46,0.00,0.02,0.05,0.65,-0.47,-0.44,-0.46
199.19,-0.52,-0.04,-0.50,-0.02,0.01,0.06,0.65,-0.52,-0.50,-0.48
201.18,-0.51,-0.01,-0.52,-0.01,0.01,0.07,0.65,-0.51,-0.51,-0.50
203.19,-0.51,0.01,-0.53,-0.01,0.02,0.08,0.65,-0.49,-0.51,-0.52
205.23,-0.56,-0.02,-0.56,-0.03,0.05,0.09,0.65,-0.52,-0.52,-0.54
207.28,-0.62,-0.07,-0.62,-0.06,0.07,0.11,0.65,-0.56,-0.55,-0.55
209.35,-0.68,-0.11,-0.67,-0.10,0.07,0.13,0.65,-0.61,-0.60,-0.57
211.44,-0.71,-0.11,-0.71,-0.11,0.07,0.14,0.66,-0.64,-0.64,-0.60
213.56,-0.72,-0.11,-0.73,-0.11,0.06,0.16,0.66,-0.66,-0.66,-0.61
215.69,-0.72,-0.10,-0.73,-0.10,0.07,0.18,0.66,-0.65,-0.66,-0.62
217.85,-0.72,-0.09,-0.70,-0.06,0.08,0.20,0.66,-0.64,-0.62,-0.63
220.03,-0.68,-0.04,-0.68,-0.03,0.10,0.23,0.67,-0.58,-0.57,-0.64
222.23,-0.64,0.03,-0.68,-0.02,0.12,0.25,0.67,-0.53,-0.56,-0.67
224.45,-0.74,-0.08,-0.76,-0.09,0.13,0.28,0.68,-0.61,-0.63,-0.66
226.70,-0.85,-0.19,-0.87,-0.21,0.15,0.31,0.68,-0.71,-0.72,-0.66
228.96,-1.02,-0.37,-0.94,-0.29,0.17,0.33,0.69,-0.85,-0.76,-0.65
231.25,-0.95,-0.31,-0.94,-0.29,0.22,0.36,0.69,-0.73,-0.72,-0.64
233.57,-0.84,-0.21,-0.90,-0.27,0.28,0.39,0.70,-0.57,-0.63,-0.63
235.90,-0.86,-0.24,-0.85,-0.22,0.34,0.43,0.71,-0.52,-0.51,-0.62
238.26,-0.89,-0.28,-0.89,-0.28,0.39,0.46,0.72,-0.50,-0.49,-0.61
240.64,-0.93,-0.35,-1.00,-0.41,0.44,0.49,0.73,-0.49,-0.56,-0.58
243.05,-1.13,-0.58,-1.09,-0.53,0.48,0.53,0.73,-0.65,-0.61,-0.55
245.48,-1.20,-0.67,-1.14,-0.61,0.52,0.56,0.74,-0.69,-0.63,-0.53
247.93,-1.10,-0.60,-1.15,-0.64,0.55,0.60,0.75,-0.55,-0.60,-0.50
250.41,-1.09,-0.61,-1.10,-0.62,0.59,0.64,0.77,-0.50,-0.52,-0.48
252.92,-1.07,-0.62,-1.07,-0.61,0.62,0.67,0.78,-0.45,-0.45,-0.45
255.45,-1.06,-0.63,-1.03,-0.60,0.65,0.71,0.79,-0.42,-0.39,-0.43
258.00,-1.01,-0.60,-1.01,-0.60,0.67,0.75,0.80,-0.34,-0.34,-0.41
260.58,-0.96,-0.57,-1.02,-0.63,0.70,0.79,0.82,-0.27,-0.32,-0.39
263.19,-1.09,-0.73,-1.09,-0.72,0.74,0.84,0.83,-0.35,-0.35,-0.36
265.82,-1.19,-0.85,-1.17,-0.82,0.80,0.88,0.85,-0.40,-0.37,-0.34
268.48,-1.27,-0.95,-1.23,-0.91,0.86,0.92,0.86,-0.41,-0.37,-0.32
271.16,-1.21,-0.92,-1.27,-0.97,0.94,0.96,0.88,-0.28,-0.33,-0.29
273.87,-1.28,-1.01,-1.28,-1.01,1.01,1.01,0.90,-0.27,-0.27,-0.27
276.61,-1.33,-1.09,-1.30,-1.05,1.07,1.05,0.92,-0.26,-0.23,-0.24
279.38,-1.31,-1.10,-1.35,-1.14,1.13,1.09,0.94,-0.18,-0.22,-0.21
282.17,-1.38,-1.19,-1.39,-1.20,1.18,1.14,0.96,-0.20,-0.20,-0.19
284.99,-1.44,-1.29,-1.40,-1.24,1.24,1.18,0.98,-0.20,-0.16,-0.15
287.84,-1.41,-1.28,-1.42,-1.29,1.30,1.23,1.00,-0.12,-0.12,-0.13
290.72,-1.39,-1.29,-1.43,-1.33,1.36,1.27,1.02,-0.04,-0.07,-0.10
293.63,-1.48,-1.41,-1.46,-1.39,1.41,1.32,1.05,-0.07,-0.05,-0.07
296.57,-1.51,-1.47,-1.53,-1.49,1.47,1.36,1.07,-0.04,-0.06,-0.04
299.53,-1.59,-1.58,-1.58,-1.56,1.53,1.41,1.10,-0.07,-0.05,-0.01
302.53,-1.62,-1.63,-1.58,-1.59,1.58,1.46,1.13,-0.04,0.00,0.01
305.55,-1.55,-1.60,-1.59,-1.63,1.63,1.50,1.15,0.08,0.05,0.05
308.61,-1.55,-1.62,-1.59,-1.66,1.67,1.55,1.18,0.12,0.08,0.07
311.69,-1.65,-1.75,-1.61,-1.71,1.71,1.59,1.21,0.06,0.10,0.10
314.81,-1.65,-1.77,-1.65,-1.76,1.74,1.64,1.24,0.09,0.09,0.12
317.96,-1.65,-1.79,-1.66,-1.80,1.77,1.68,1.28,0.11,0.10,0.14
321.14,-1.65,-1.80,-1.64,-1.79,1.79,1.73,1.31,0.14,0.16,0.15
324.35,-1.63,-1.80,-1.64,-1.80,1.83,1.77,1.34,0.20,0.19,0.17
327.59,-1.63,-1.81,-1.67,-1.84,1.87,1.82,1.38,0.23,0.20,0.18
330.87,-1.72,-1.91,-1.70,-1.89,1.91,1.86,1.42,0.19,0.21,0.19
334.18,-1.76,-1.97,-1.75,-1.95,1.95,1.90,1.46,0.19,0.21,0.21
337.52,-1.76,-1.98,-1.79,-2.00,2.00,1.94,1.49,0.23,0.21,0.22
340.90,-1.83,-2.06,-1.82,-2.05,2.05,1.99,1.54,0.22,0.22,0.23
344.30,-1.86,-2.10,-1.87,-2.11,2.10,2.03,1.58,0.24,0.23,0.24
347.75,-1.93,-2.17,-1.92,-2.16,2.15,2.07,1.62,0.22,0.23,0.24
351.23,-1.96,-2.21,-1.95,-2.19,2.18,2.11,1.67,0.22,0.23,0.25
354.74,-1.96,-2.20,-1.98,-2.22,2.21,2.15,1.71,0.25,0.23,0.24
358.28,-2.00,-2.25,-2.01,-2.25,2.24,2.19,1.76,0.24,0.23,0.25
361.87,-2.04,-2.29,-2.03,-2.28,2.26,2.22,1.81,0.22,0.23,0.25
365.49,-2.04,-2.30,-2.04,-2.29,2.29,2.26,1.86,0.24,0.25,0.26
369.14,-2.04,-2.29,-2.04,-2.29,2.31,2.30,1.91,0.27,0.27,0.25
372.83,-2.03,-2.28,-2.06,-2.31,2.34,2.33,1.96,0.30,0.27,0.25
376.56,-2.10,-2.34,-2.11,-2.35,2.37,2.37,2.01,0.26,0.26,0.24
380.33,-2.19,-2.44,-2.16,-2.40,2.40,2.40,2.07,0.21,0.24,0.25
384.13,-2.21,-2.46,-2.21,-2.45,2.44,2.43,2.12,0.23,0.23,0.25
387.97,-2.22,-2.46,-2.24,-2.48,2.48,2.46,2.18,0.26,0.23,0.24
391.85,-2.28,-2.51,-2.29,-2.52,2.52,2.49,2.24,0.24,0.24,0.23
395.77,-2.34,-2.58,-2.33,-2.56,2.57,2.52,2.29,0.22,0.23,0.24
399.73,-2.39,-2.62,-2.38,-2.61,2.61,2.55,2.35,0.21,0.23,0.23
403.72,-2.40,-2.63,-2.42,-2.64,2.64,2.57,2.41,0.24,0.22,0.23
407.76,-2.44,-2.65,-2.45,-2.67,2.66,2.60,2.47,0.22,0.21,0.21
411.84,-2.50,-2.71,-2.49,-2.69,2.69,2.62,2.53,0.18,0.20,0.21
415.96,-2.51,-2.72,-2.51,-2.71,2.70,2.65,2.59,0.19,0.19,0.21
420.12,-2.51,-2.72,-2.51,-2.72,2.71,2.67,2.64,0.20,0.19,0.21
424.32,-2.50,-2.71,-2.51,-2.71,2.71,2.69,2.70,0.21,0.20,0.21
428.56,-2.49,-2.71,-2.50,-2.71,2.71,2.71,2.76,0.22,0.21,0.22
432.85,-2.48,-2.71,-2.48,-2.70,2.71,2.73,2.81,0.22,0.23,0.23
437.18,-2.45,-2.69,-2.45,-2.69,2.70,2.74,2.87,0.25,0.26,0.24
441.55,-2.41,-2.69,-2.41,-2.68,2.70,2.76,2.92,0.29,0.29,0.28
445.96,-2.37,-2.68,-2.38,-2.69,2.70,2.77,2.97,0.33,0.32,0.31
450.42,-2.35,-2.69,-2.36,-2.70,2.70,2.78,3.02,0.35,0.34,0.34
454.93,-2.35,-2.74,-2.33,-2.72,2.70,2.80,3.06,0.35,0.37,0.39
459.48,-2.30,-2.73,-2.30,-2.73,2.70,2.81,3.10,0.40,0.40,0.43
464.07,-2.24,-2.72,-2.25,-2.73,2.71,2.81,3.14,0.47,0.46,0.48
468.71,-2.19,-2.73,-2.18,-2.71,2.72,2.82,3.17,0.53,0.54,0.54
473.40,-2.12,-2.70,-2.13,-2.71,2.74,2.83,3.20,0.62,0.61,0.58
478.13,-2.08,-2.72,-2.10,-2.73,2.76,2.83,3.23,0.67,0.66,0.64
482.91,-2.10,-2.78,-2.08,-2.76,2.78,2.84,3.25,0.68,0.70,0.68
487.74,-2.08,-2.80,-2.09,-2.81,2.81,2.84,3.26,0.73,0.72,0.72
