frequency,raw,error,smoothed,error_smoothed,equalization,parametric_eq,fixed_band_eq,equalized_raw,equalized_smoothed,target
20.00,-0.94,-2.41,-0.95,-2.45,2.45,2.27,0.55,1.51,1.50,1.47
20.20,-0.88,-2.40,-0.89,-2.42,2.42,2.28,0.57,1.54,1.53,1.52
20.40,-0.82,-2.39,-0.82,-2.39,2.39,2.28,0.59,1.57,1.57,1.57
20.61,-0.76,-2.36,-0.76,-2.36,2.36,2.28,0.60,1.60,1.60,1.60
20.81,-0.70,-2.35,-0.70,-2.33,2.33,2.27,0.62,1.63,1.63,1.65
21.02,-0.64,-2.33,-0.64,-2.30,2.30,2.26,0.64,1.66,1.66,1.69
21.23,-0.59,-2.30,-0.58,-2.27,2.27,2.25,0.66,1.68,1.69,1.71
21.44,-0.55,-2.28,-0.53,-2.24,2.24,2.23,0.69,1.69,1.71,1.73
21.66,-0.51,-2.26,-0.48,-2.21,2.21,2.21,0.71,1.70,1.73,1.75
21.87,-0.46,-2.22,-0.43,-2.18,2.18,2.18,0.73,1.72,1.75,1.76
22.09,-0.41,-2.19,-0.38,-2.14,2.14,2.15,0.75,1.74,1.77,1.78
22.31,-0.34,-2.13,-0.33,-2.11,2.11,2.12,0.78,1.77,1.78,1.79
22.54,-0.27,-2.06,-0.29,-2.07,2.07,2.09,0.80,1.80,1.78,1.79
22.76,-0.19,-1.98,-0.25,-2.04,2.04,2.05,0.83,1.85,1.79,1.79
22.99,-0.12,-1.90,-0.21,-2.00,2.00,2.01,0.85,1.88,1.79,1.78
23.22,-0.12,-1.90,-0.17,-1.96,1.96,1.97,0.88,1.85,1.79,1.78
23.45,-0.12,-1.90,-0.14,-1.93,1.93,1.93,0.91,1.81,1.79,1.78
23.69,-0.13,-1.92,-0.10,-1.90,1.90,1.88,0.93,1.77,1.79,1.79
23.92,-0.13,-1.92,-0.07,-1.86,1.86,1.84,0.96,1.74,1.79,1.79
24.16,-0.09,-1.88,-0.04,-1.83,1.83,1.79,0.99,1.74,1.79,1.79
24.40,-0.04,-1.84,-0.00,-1.79,1.79,1.74,1.02,1.75,1.79,1.80
24.65,0.02,-1.77,0.05,-1.74,1.74,1.69,1.05,1.76,1.79,1.79
24.89,0.08,-1.71,0.10,-1.69,1.69,1.64,1.07,1.77,1.79,1.79
25.14,0.12,-1.67,0.15,-1.64,1.64,1.60,1.10,1.76,1.79,1.79
25.39,0.17,-1.63,0.20,-1.60,1.60,1.55,1.13,1.77,1.79,1.80
25.65,0.21,-1.59,0.24,-1.56,1.56,1.50,1.16,1.77,1.79,1.80
25.91,0.25,-1.54,0.27,-1.52,1.52,1.45,1.19,1.77,1.79,1.79
26.16,0.33,-1.46,0.31,-1.48,1.48,1.40,1.22,1.81,1.79,1.79
26.43,0.42,-1.37,0.35,-1.43,1.43,1.36,1.25,1.85,1.79,1.79
26.69,0.52,-1.27,0.40,-1.39,1.39,1.31,1.27,1.91,1.79,1.79
26.96,0.61,-1.18,0.44,-1.35,1.35,1.27,1.30,1.96,1.79,1.79
27.23,0.56,-1.23,0.47,-1.31,1.31,1.22,1.33,1.87,1.78,1.79
27.50,0.47,-1.32,0.51,-1.28,1.28,1.18,1.35,1.75,1.78,1.79
27.77,0.38,-1.40,0.54,-1.24,1.24,1.13,1.37,1.62,1.78,1.78
28.05,0.34,-1.44,0.57,-1.21,1.21,1.09,1.40,1.55,1.78,1.78
28.33,0.47,-1.30,0.60,-1.18,1.18,1.05,1.41,1.65,1.78,1.77
28.62,0.61,-1.16,0.63,-1.15,1.15,1.01,1.43,1.76,1.78,1.77
28.90,0.74,-1.04,0.66,-1.12,1.12,0.97,1.45,1.86,1.78,1.78
29.19,0.79,-0.98,0.69,-1.09,1.09,0.93,1.46,1.88,1.77,1.77
29.48,0.78,-1.00,0.72,-1.05,1.05,0.90,1.47,1.83,1.77,1.78
29.78,0.77,-1.00,0.75,-1.02,1.02,0.86,1.48,1.79,1.77,1.77
30.08,0.78,-1.00,0.77,-1.00,1.00,0.82,1.49,1.78,1.77,1.78
30.38,0.81,-0.96,0.80,-0.97,0.97,0.79,1.49,1.78,1.77,1.77
30.68,0.84,-0.93,0.83,-0.93,0.93,0.76,1.49,1.77,1.77,1.77
30.99,0.87,-0.90,0.87,-0.90,0.90,0.72,1.49,1.77,1.76,1.77
31.30,0.90,-0.86,0.90,-0.87,0.87,0.69,1.48,1.77,1.76,1.76
31.61,0.93,-0.83,0.92,-0.84,0.84,0.66,1.47,1.78,1.76,1.76
31.93,0.96,-0.80,0.93,-0.82,0.82,0.63,1.46,1.78,1.76,1.76
32.24,0.94,-0.81,0.95,-0.80,0.80,0.60,1.45,1.74,1.75,1.75
32.57,0.89,-0.86,0.98,-0.77,0.77,0.57,1.43,1.66,1.75,1.75
32.89,0.84,-0.91,1.01,-0.73,0.73,0.54,1.41,1.57,1.74,1.75
33.22,0.94,-0.80,1.05,-0.69,0.69,0.51,1.38,1.64,1.74,1.74
33.55,1.10,-0.63,1.07,-0.66,0.66,0.49,1.36,1.76,1.73,1.74
33.89,1.27,-0.46,1.10,-0.63,0.63,0.46,1.33,1.90,1.73,1.73
34.23,1.27,-0.46,1.13,-0.60,0.60,0.44,1.30,1.87,1.73,1.73
34.57,1.21,-0.51,1.15,-0.57,0.57,0.41,1.27,1.78,1.72,1.72
34.92,1.14,-0.58,1.18,-0.54,0.54,0.39,1.23,1.68,1.72,1.72
35.27,1.16,-0.55,1.21,-0.50,0.50,0.36,1.19,1.66,1.71,1.71
35.62,1.22,-0.49,1.24,-0.47,0.47,0.34,1.16,1.69,1.71,1.71
35.97,1.28,-0.43,1.28,-0.43,0.43,0.32,1.12,1.71,1.71,1.71
36.33,1.28,-0.43,1.31,-0.40,0.40,0.29,1.08,1.68,1.71,1.71
36.70,1.28,-0.42,1.34,-0.37,0.37,0.27,1.03,1.65,1.71,1.70
37.06,1.29,-0.41,1.35,-0.36,0.36,0.25,0.99,1.65,1.71,1.70
37.43,1.34,-0.37,1.35,-0.35,0.35,0.23,0.95,1.70,1.71,1.71
37.81,1.39,-0.32,1.36,-0.35,0.35,0.21,0.90,1.74,1.71,1.71
38.19,1.43,-0.27,1.38,-0.33,0.33,0.19,0.86,1.76,1.71,1.70
38.57,1.45,-0.26,1.41,-0.30,0.30,0.17,0.81,1.75,1.71,1.71
38.95,1.48,-0.24,1.42,-0.29,0.29,0.15,0.77,1.77,1.71,1.72
39.34,1.48,-0.23,1.43,-0.28,0.28,0.13,0.72,1.76,1.71,1.71
39.74,1.48,-0.23,1.44,-0.27,0.27,0.11,0.67,1.75,1.71,1.71
40.14,1.46,-0.25,1.46,-0.25,0.25,0.09,0.63,1.71,1.71,1.71
40.54,1.42,-0.29,1.49,-0.22,0.22,0.07,0.58,1.64,1.71,1.71
40.94,1.37,-0.33,1.51,-0.19,0.19,0.05,0.53,1.56,1.70,1.70
41.35,1.44,-0.26,1.54,-0.16,0.16,0.03,0.49,1.60,1.70,1.70
41.76,1.53,-0.16,1.55,-0.14,0.14,0.01,0.44,1.67,1.69,1.69
42.18,1.58,-0.11,1.56,-0.12,0.12,-0.00,0.40,1.70,1.68,1.69
42.60,1.58,-0.10,1.57,-0.10,0.10,-0.02,0.35,1.68,1.67,1.68
43.03,1.59,-0.08,1.59,-0.07,0.07,-0.04,0.30,1.66,1.66,1.67
43.46,1.67,0.01,1.61,-0.04,0.04,-0.06,0.26,1.71,1.65,1.66
43.90,1.76,0.12,1.63,-0.00,0.00,-0.08,0.21,1.76,1.64,1.64
44.33,1.75,0.13,1.66,0.03,-0.03,-0.09,0.17,1.72,1.62,1.62
44.78,1.70,0.10,1.68,0.07,-0.07,-0.11,0.12,1.63,1.61,1.60
45.23,1.65,0.06,1.70,0.10,-0.10,-0.13,0.08,1.55,1.60,1.59
45.68,1.60,0.02,1.72,0.13,-0.13,-0.15,0.04,1.47,1.58,1.58
46.13,1.59,0.03,1.72,0.15,-0.15,-0.16,-0.01,1.44,1.57,1.56
46.60,1.69,0.13,1.73,0.18,-0.18,-0.18,-0.05,1.51,1.55,1.56
47.06,1.78,0.24,1.74,0.20,-0.20,-0.20,-0.10,1.58,1.54,1.54
47.53,1.78,0.25,1.75,0.22,-0.22,-0.22,-0.14,1.56,1.52,1.53
48.01,1.78,0.25,1.75,0.24,-0.24,-0.24,-0.18,1.54,1.51,1.53
48.49,1.78,0.27,1.74,0.25,-0.25,-0.25,-0.23,1.54,1.50,1.51
48.97,1.78,0.29,1.74,0.26,-0.26,-0.27,-0.27,1.52,1.48,1.49
49.46,1.78,0.31,1.75,0.28,-0.28,-0.29,-0.31,1.50,1.47,1.47
49.96,1.78,0.33,1.76,0.31,-0.31,-0.31,-0.36,1.48,1.46,1.45
50.46,1.78,0.34,1.77,0.33,-0.33,-0.33,-0.40,1.45,1.44,1.44
50.96,1.78,0.35,1.78,0.35,-0.35,-0.34,-0.44,1.43,1.43,1.43
51.47,1.76,0.35,1.79,0.37,-0.37,-0.36,-0.48,1.39,1.42,1.41
51.99,1.73,0.33,1.79,0.38,-0.38,-0.38,-0.52,1.35,1.40,1.40
52.51,1.71,0.32,1.79,0.40,-0.40,-0.40,-0.56,1.31,1.39,1.39
53.03,1.71,0.32,1.80,0.42,-0.42,-0.42,-0.60,1.29,1.38,1.39
53.56,1.80,0.43,1.81,0.44,-0.44,-0.44,-0.65,1.36,1.37,1.37
54.10,1.88,0.52,1.82,0.46,-0.46,-0.46,-0.69,1.42,1.36,1.36
54.64,1.88,0.54,1.83,0.49,-0.49,-0.48,-0.72,1.40,1.35,1.34
55.18,1.88,0.54,1.85,0.51,-0.51,-0.50,-0.76,1.37,1.34,1.34
55.74,1.88,0.56,1.86,0.53,-0.53,-0.52,-0.80,1.35,1.32,1.32
56.29,1.88,0.57,1.86,0.55,-0.55,-0.54,-0.84,1.33,1.31,1.31
56.86,1.88,0.58,1.87,0.57,-0.57,-0.56,-0.88,1.31,1.30,1.30
57.42,1.88,0.61,1.88,0.59,-0.59,-0.58,-0.91,1.29,1.28,1.27
58.00,1.88,0.62,1.88,0.62,-0.62,-0.60,-0.95,1.26,1.26,1.26
58.58,1.88,0.63,1.89,0.65,-0.65,-0.62,-0.98,1.23,1.24,1.25
59.16,1.88,0.65,1.89,0.67,-0.67,-0.65,-1.02,1.21,1.21,1.23
59.76,1.88,0.67,1.88,0.70,-0.70,-0.67,-1.05,1.18,1.19,1.21
60.35,1.88,0.71,1.89,0.73,-0.73,-0.69,-1.08,1.15,1.16,1.17
60.96,1.88,0.75,1.89,0.77,-0.77,-0.72,-1.11,1.11,1.12,1.13
61.57,1.83,0.74,1.90,0.82,-0.82,-0.74,-1.14,1.01,1.09,1.09
62.18,1.83,0.78,1.91,0.87,-0.87,-0.76,-1.17,0.97,1.05,1.05
62.80,1.94,0.94,1.92,0.92,-0.92,-0.79,-1.20,1.03,1.01,1.00
63.43,1.98,1.02,1.93,0.97,-0.97,-0.81,-1.23,1.01,0.96,0.96
64.07,1.98,1.07,1.94,1.02,-1.02,-0.84,-1.26,0.96,0.92,0.91
64.71,1.98,1.11,1.95,1.08,-1.08,-0.86,-1.28,0.90,0.87,0.87
65.35,1.98,1.15,1.96,1.14,-1.14,-0.89,-1.31,0.85,0.83,0.83
66.01,1.98,1.20,1.97,1.19,-1.19,-0.92,-1.34,0.79,0.78,0.78
66.67,1.98,1.25,1.98,1.25,-1.25,-0.95,-1.36,0.73,0.73,0.73
67.33,1.98,1.30,1.99,1.30,-1.30,-0.97,-1.38,0.68,0.68,0.68
68.01,1.98,1.34,1.99,1.35,-1.35,-1.00,-1.41,0.63,0.64,0.64
68.69,1.98,1.39,1.99,1.41,-1.41,-1.03,-1.43,0.57,0.59,0.59
69.37,1.98,1.44,1.99,1.46,-1.46,-1.06,-1.46,0.53,0.53,0.54
70.07,1.98,1.49,1.98,1.50,-1.50,-1.09,-1.48,0.48,0.48,0.49
70.77,1.98,1.54,1.98,1.55,-1.55,-1.12,-1.50,0.43,0.43,0.44
71.48,1.98,1.59,1.98,1.61,-1.61,-1.16,-1.53,0.37,0.37,0.39
72.19,1.98,1.66,1.98,1.66,-1.66,-1.19,-1.55,0.32,0.32,0.32
72.91,1.98,1.72,1.98,1.72,-1.72,-1.22,-1.58,0.26,0.26,0.26
73.64,1.98,1.77,1.98,1.78,-1.78,-1.26,-1.60,0.21,0.21,0.21
74.38,1.98,1.83,1.98,1.83,-1.83,-1.29,-1.63,0.15,0.15,0.15
75.12,1.98,1.89,1.98,1.89,-1.89,-1.33,-1.66,0.09,0.09,0.09
75.87,1.98,1.95,1.98,1.94,-1.94,-1.36,-1.68,0.04,0.04,0.03
76.63,1.98,2.00,1.98,2.00,-2.00,-1.40,-1.71,-0.02,-0.02,-0.02
77.40,1.98,2.05,1.98,2.05,-2.05,-1.44,-1.74,-0.07,-0.07,-0.07
78.17,1.98,2.11,1.98,2.10,-2.10,-1.48,-1.77,-0.12,-0.12,-0.13
78.95,1.98,2.15,1.98,2.16,-2.16,-1.52,-1.81,-0.17,-0.17,-0.17
79.74,1.98,2.20,1.98,2.20,-2.20,-1.56,-1.84,-0.22,-0.22,-0.22
80.54,1.98,2.25,1.98,2.25,-2.25,-1.60,-1.88,-0.27,-0.27,-0.27
81.35,1.98,2.30,1.98,2.30,-2.30,-1.64,-1.91,-0.32,-0.32,-0.32
82.16,1.98,2.35,1.98,2.35,-2.35,-1.69,-1.95,-0.37,-0.37,-0.37
82.98,1.98,2.39,1.98,2.40,-2.40,-1.73,-1.99,-0.41,-0.41,-0.41
83.81,1.98,2.44,1.98,2.44,-2.44,-1.77,-2.03,-0.46,-0.46,-0.46
84.65,1.98,2.49,1.98,2.49,-2.49,-1.82,-2.07,-0.51,-0.51,-0.51
85.50,1.98,2.53,1.98,2.54,-2.54,-1.87,-2.12,-0.56,-0.56,-0.55
86.35,1.98,2.58,1.99,2.60,-2.60,-1.91,-2.17,-0.62,-0.61,-0.60
87.22,1.98,2.63,1.99,2.65,-2.65,-1.96,-2.21,-0.67,-0.66,-0.65
88.09,1.98,2.68,2.00,2.71,-2.71,-2.01,-2.26,-0.72,-0.71,-0.70
88.97,1.98,2.74,2.00,2.76,-2.76,-2.06,-2.32,-0.78,-0.76,-0.76
89.86,1.98,2.79,2.00,2.81,-2.81,-2.11,-2.37,-0.82,-0.81,-0.81
90.76,1.99,2.85,1.99,2.85,-2.85,-2.17,-2.43,-0.86,-0.86,-0.86
91.66,1.99,2.90,1.99,2.90,-2.90,-2.22,-2.48,-0.91,-0.91,-0.91
92.58,1.99,2.96,1.98,2.94,-2.94,-2.27,-2.54,-0.95,-0.96,-0.97
93.51,2.01,3.03,1.97,2.98,-2.98,-2.33,-2.60,-0.97,-1.01,-1.02
94.44,2.03,3.09,1.96,3.02,-3.02,-2.38,-2.67,-0.99,-1.06,-1.06
95.39,1.99,3.10,1.95,3.06,-3.06,-2.44,-2.73,-1.07,-1.11,-1.11
96.34,1.89,3.05,1.94,3.10,-3.10,-2.50,-2.79,-1.21,-1.16,-1.16
97.30,1.88,3.09,1.93,3.14,-3.14,-2.55,-2.86,-1.26,-1.21,-1.21
98.28,1.87,3.13,1.91,3.17,-3.17,-2.61,-2.93,-1.30,-1.26,-1.26
99.26,1.85,3.15,1.89,3.20,-3.20,-2.67,-3.00,-1.34,-1.31,-1.30
100.25,1.84,3.19,1.86,3.22,-3.22,-2.73,-3.07,-1.37,-1.35,-1.35
101.25,1.82,3.22,1.83,3.23,-3.23,-2.79,-3.14,-1.41,-1.40,-1.40
102.27,1.81,3.26,1.79,3.24,-3.24,-2.85,-3.21,-1.43,-1.45,-1.45
103.29,1.79,3.29,1.75,3.25,-3.25,-2.91,-3.28,-1.46,-1.50,-1.50
104.32,1.77,3.31,1.71,3.26,-3.26,-2.97,-3.35,-1.49,-1.55,-1.54
105.37,1.76,3.35,1.67,3.27,-3.27,-3.03,-3.42,-1.51,-1.60,-1.59
106.42,1.74,3.38,1.64,3.29,-3.29,-3.09,-3.49,-1.55,-1.65,-1.64
107.48,1.60,3.30,1.61,3.31,-3.31,-3.15,-3.56,-1.71,-1.70,-1.70
108.56,1.46,3.21,1.58,3.33,-3.33,-3.20,-3.63,-1.87,-1.75,-1.75
109.64,1.44,3.24,1.54,3.35,-3.35,-3.26,-3.69,-1.91,-1.81,-1.80
110.74,1.43,3.29,1.51,3.37,-3.37,-3.32,-3.76,-1.94,-1.86,-1.86
111.85,1.42,3.32,1.48,3.39,-3.39,-3.37,-3.82,-1.97,-1.91,-1.90
112.97,1.41,3.37,1.45,3.41,-3.41,-3.43,-3.88,-1.99,-1.96,-1.96
114.10,1.40,3.41,1.41,3.42,-3.42,-3.48,-3.93,-2.02,-2.01,-2.01
115.24,1.40,3.46,1.37,3.43,-3.43,-3.53,-3.98,-2.03,-2.06,-2.06
116.39,1.43,3.54,1.34,3.44,-3.44,-3.58,-4.03,-2.01,-2.10,-2.11
117.55,1.45,3.60,1.32,3.46,-3.46,-3.63,-4.07,-2.01,-2.14,-2.15
118.73,1.36,3.55,1.29,3.48,-3.48,-3.68,-4.10,-2.11,-2.18,-2.19
119.92,1.22,3.44,1.28,3.50,-3.50,-3.72,-4.14,-2.27,-2.22,-2.22
121.12,1.21,3.47,1.25,3.51,-3.51,-3.76,-4.16,-2.30,-2.26,-2.26
122.33,1.20,3.49,1.22,3.51,-3.51,-3.80,-4.18,-2.31,-2.29,-2.29
123.55,1.16,3.48,1.18,3.50,-3.50,-3.83,-4.19,-2.34,-2.32,-2.32
124.79,1.07,3.42,1.14,3.50,-3.50,-3.87,-4.20,-2.43,-2.36,-2.35
126.03,1.01,3.39,1.10,3.49,-3.49,-3.89,-4.20,-2.47,-2.38,-2.38
127.29,1.07,3.47,1.06,3.47,-3.47,-3.92,-4.20,-2.40,-2.41,-2.40
128.57,1.09,3.53,1.01,3.45,-3.45,-3.94,-4.19,-2.36,-2.44,-2.44
129.85,0.99,3.46,0.96,3.43,-3.43,-3.96,-4.17,-2.44,-2.47,-2.47
131.15,0.95,3.45,0.91,3.41,-3.41,-3.97,-4.14,-2.46,-2.50,-2.50
132.46,0.89,3.42,0.86,3.39,-3.39,-3.98,-4.12,-2.50,-2.53,-2.53
133.79,0.81,3.37,0.81,3.37,-3.37,-3.99,-4.08,-2.55,-2.56,-2.56
135.12,0.78,3.37,0.74,3.33,-3.33,-3.99,-4.04,-2.55,-2.59,-2.59
136.48,0.72,3.33,0.68,3.30,-3.30,-3.99,-4.00,-2.57,-2.61,-2.61
137.84,0.64,3.29,0.63,3.27,-3.27,-3.99,-3.95,-2.63,-2.64,-2.65
139.22,0.58,3.26,0.58,3.25,-3.25,-3.98,-3.90,-2.67,-2.67,-2.68
140.61,0.51,3.22,0.54,3.24,-3.24,-3.97,-3.85,-2.73,-2.70,-2.71
142.02,0.46,3.19,0.50,3.23,-3.23,-3.95,-3.79,-2.77,-2.73,-2.73
143.44,0.42,3.18,0.48,3.25,-3.25,-3.93,-3.73,-2.82,-2.77,-2.76
144.87,0.40,3.20,0.48,3.28,-3.28,-3.91,-3.67,-2.88,-2.81,-2.80
146.32,0.38,3.22,0.48,3.33,-3.33,-3.89,-3.61,-2.95,-2.85,-2.84
147.78,0.37,3.24,0.49,3.39,-3.39,-3.86,-3.55,-3.02,-2.90,-2.87
149.26,0.45,3.37,0.51,3.46,-3.46,-3.82,-3.48,-3.01,-2.95,-2.92
150.75,0.54,3.52,0.53,3.54,-3.54,-3.79,-3.42,-2.99,-3.01,-2.98
152.26,0.59,3.64,0.55,3.62,-3.62,-3.75,-3.35,-3.03,-3.07,-3.05
153.78,0.60,3.72,0.57,3.71,-3.71,-3.71,-3.29,-3.11,-3.14,-3.12
155.32,0.61,3.80,0.58,3.79,-3.79,-3.67,-3.23,-3.18,-3.21,-3.19
156.88,0.69,3.96,0.59,3.86,-3.86,-3.63,-3.16,-3.17,-3.28,-3.27
158.44,0.69,4.04,0.57,3.92,-3.92,-3.58,-3.10,-3.23,-3.35,-3.35
160.03,0.59,4.02,0.54,3.96,-3.96,-3.53,-3.04,-3.36,-3.41,-3.43
161.63,0.52,4.02,0.49,3.97,-3.97,-3.49,-2.98,-3.45,-3.48,-3.50
163.24,0.46,4.02,0.42,3.96,-3.96,-3.44,-2.92,-3.50,-3.54,-3.56
164.88,0.36,3.97,0.33,3.93,-3.93,-3.39,-2.86,-3.57,-3.60,-3.61
166.53,0.27,3.93,0.23,3.88,-3.88,-3.33,-2.81,-3.61,-3.65,-3.66
168.19,0.18,3.88,0.12,3.81,-3.81,-3.28,-2.75,-3.63,-3.69,-3.70
169.87,0.03,3.77,0.02,3.74,-3.74,-3.23,-2.70,-3.71,-3.72,-3.74
171.57,-0.13,3.63,-0.09,3.66,-3.66,-3.18,-2.65,-3.79,-3.74,-3.76
173.29,-0.25,3.52,-0.19,3.57,-3.57,-3.12,-2.60,-3.82,-3.76,-3.77
175.02,-0.38,3.40,-0.29,3.48,-3.48,-3.07,-2.55,-3.86,-3.78,-3.78
176.77,-0.49,3.30,-0.38,3.41,-3.41,-3.02,-2.51,-3.90,-3.79,-3.79
178.54,-0.54,3.26,-0.45,3.35,-3.35,-2.96,-2.47,-3.89,-3.79,-3.80
180.32,-0.55,3.24,-0.51,3.29,-3.29,-2.91,-2.43,-3.84,-3.80,-3.79
182.13,-0.56,3.22,-0.55,3.25,-3.25,-2.86,-2.39,-3.81,-3.80,-3.78
183.95,-0.61,3.18,-0.59,3.22,-3.22,-2.80,-2.35,-3.83,-3.81,-3.79
185.79,-0.63,3.16,-0.63,3.19,-3.19,-2.75,-2.32,-3.82,-3.82,-3.79
187.65,-0.61,3.20,-0.65,3.17,-3.17,-2.70,-2.28,-3.78,-3.83,-3.81
189.52,-0.67,3.15,-0.67,3.16,-3.16,-2.65,-2.25,-3.83,-3.83,-3.82
191.42,-0.68,3.16,-0.69,3.16,-3.16,-2.60,-2.22,-3.84,-3.85,-3.84
193.33,-0.67,3.19,-0.70,3.16,-3.16,-2.55,-2.19,-3.83,-3.86,-3.86
195.27,-0.65,3.23,-0.72,3.16,-3.16,-2.51,-2.17,-3.81,-3.88,-3.88
197.22,-0.67,3.23,-0.74,3.16,-3.16,-2.46,-2.14,-3.83,-3.90,-3.90
199.19,-0.77,3.15,-0.77,3.15,-3.15,-2.41,-2.12,-3.92,-3.92,-3.92
201.18,-0.83,3.11,-0.80,3.14,-3.14,-2.37,-2.10,-3.97,-3.94,-3.94
203.19,-0.88,3.08,-0.84,3.12,-3.12,-2.32,-2.08,-4.00,-3.96,-3.96
205.23,-0.92,3.06,-0.87,3.11,-3.11,-2.28,-2.06,-4.03,-3.98,-3.98
207.28,-0.92,3.07,-0.91,3.09,-3.09,-2.24,-2.04,-4.01,-4.00,-3.99
209.35,-0.94,3.07,-0.96,3.06,-3.06,-2.19,-2.02,-4.00,-4.02,-4.01
211.44,-1.00,3.04,-1.01,3.02,-3.02,-2.15,-2.01,-4.02,-4.04,-4.04
213.56,-1.07,2.98,-1.07,2.98,-2.98,-2.11,-1.99,-4.05,-4.05,-4.05
215.69,-1.12,2.94,-1.12,2.94,-2.94,-2.08,-1.98,-4.06,-4.06,-4.06
217.85,-1.13,2.94,-1.18,2.89,-2.89,-2.04,-1.97,-4.02,-4.08,-4.07
220.03,-1.25,2.83,-1.25,2.84,-2.84,-2.00,-1.95,-4.09,-4.09,-4.08
222.23,-1.32,2.79,-1.31,2.78,-2.78,-1.97,-1.94,-4.10,-4.09,-4.11
224.45,-1.34,2.76,-1.38,2.72,-2.72,-1.93,-1.93,-4.06,-4.09,-4.10
226.70,-1.44,2.66,-1.45,2.64,-2.64,-1.90,-1.91,-4.08,-4.09,-4.10
228.96,-1.54,2.55,-1.53,2.56,-2.56,-1.87,-1.90,-4.10,-4.09,-4.09
231.25,-1.61,2.47,-1.61,2.48,-2.48,-1.83,-1.89,-4.08,-4.08,-4.08
233.57,-1.65,2.42,-1.68,2.39,-2.39,-1.80,-1.87,-4.04,-4.07,-4.07
235.90,-1.71,2.35,-1.74,2.31,-2.31,-1.77,-1.86,-4.02,-4.05,-4.06
238.26,-1.82,2.23,-1.80,2.24,-2.24,-1.75,-1.85,-4.06,-4.04,-4.05
240.64,-1.95,2.07,-1.85,2.17,-2.17,-1.72,-1.83,-4.12,-4.02,-4.02
243.05,-1.96,2.03,-1.90,2.10,-2.10,-1.69,-1.82,-4.06,-4.00,-3.99
245.48,-1.94,2.03,-1.93,2.04,-2.04,-1.67,-1.80,-3.98,-3.97,-3.97
247.93,-2.00,1.94,-1.96,1.99,-1.99,-1.64,-1.78,-3.99,-3.95,-3.94
250.41,-2.08,1.84,-1.99,1.93,-1.93,-1.62,-1.77,-4.01,-3.93,-3.92
252.92,-2.07,1.82,-2.02,1.89,-1.89,-1.59,-1.75,-3.96,-3.90,-3.89
255.45,-2.00,1.87,-2.04,1.83,-1.83,-1.57,-1.73,-3.83,-3.88,-3.87
258.00,-2.04,1.81,-2.08,1.77,-1.77,-1.55,-1.71,-3.81,-3.85,-3.85
260.58,-2.06,1.77,-2.11,1.71,-1.71,-1.53,-1.69,-3.77,-3.83,-3.83
263.19,-2.07,1.73,-2.15,1.66,-1.66,-1.51,-1.66,-3.73,-3.80,-3.80
265.82,-2.15,1.63,-2.19,1.59,-1.59,-1.49,-1.64,-3.74,-3.78,-3.78
268.48,-2.16,1.60,-2.23,1.53,-1.53,-1.47,-1.62,-3.69,-3.76,-3.76
271.16,-2.24,1.49,-2.28,1.45,-1.45,-1.45,-1.60,-3.69,-3.73,-3.73
273.87,-2.38,1.33,-2.35,1.36,-1.36,-1.43,-1.57,-3.73,-3.71,-3.71
276.61,-2.44,1.24,-2.42,1.26,-1.26,-1.42,-1.55,-3.70,-3.68,-3.68
279.38,-2.54,1.11,-2.49,1.16,-1.16,-1.40,-1.52,-3.70,-3.65,-3.65
282.17,-2.67,0.96,-2.58,1.04,-1.04,-1.39,-1.49,-3.71,-3.63,-3.63
284.99,-2.68,0.91,-2.67,0.92,-0.92,-1.37,-1.47,-3.60,-3.60,-3.59
287.84,-2.69,0.88,-2.76,0.81,-0.81,-1.36,-1.44,-3.50,-3.57,-3.57
290.72,-2.80,0.74,-2.85,0.69,-0.69,-1.35,-1.42,-3.49,-3.54,-3.54
293.63,-2.93,0.58,-2.93,0.58,-0.58,-1.33,-1.39,-3.50,-3.51,-3.51
296.57,-2.96,0.52,-3.01,0.47,-0.47,-1.32,-1.36,-3.42,-3.48,-3.48
299.53,-3.17,0.28,-3.09,0.36,-0.36,-1.31,-1.34,-3.53,-3.45,-3.45
302.53,-3.23,0.20,-3.17,0.26,-0.26,-1.30,-1.31,-3.49,-3.43,-3.43
305.55,-3.22,0.17,-3.24,0.16,-0.16,-1.29,-1.29,-3.38,-3.40,-3.39
308.61,-3.39,-0.02,-3.32,0.06,-0.06,-1.28,-1.26,-3.45,-3.37,-3.37
311.69,-3.39,-0.05,-3.39,-0.04,0.04,-1.27,-1.24,-3.35,-3.35,-3.34
314.81,-3.37,-0.05,-3.45,-0.13,0.13,-1.26,-1.21,-3.24,-3.33,-3.32
317.96,-3.52,-0.22,-3.52,-0.21,0.21,-1.25,-1.19,-3.31,-3.31,-3.30
321.14,-3.60,-0.31,-3.58,-0.29,0.29,-1.25,-1.16,-3.31,-3.29,-3.29
324.35,-3.58,-0.31,-3.62,-0.35,0.35,-1.24,-1.14,-3.23,-3.27,-3.27
327.59,-3.65,-0.39,-3.66,-0.41,0.41,-1.23,-1.12,-3.24,-3.26,-3.26
330.87,-3.71,-0.46,-3.70,-0.46,0.46,-1.23,-1.10,-3.25,-3.24,-3.25
334.18,-3.76,-0.53,-3.73,-0.50,0.50,-1.22,-1.08,-3.26,-3.23,-3.23
337.52,-3.82,-0.60,-3.76,-0.54,0.54,-1.22,-1.05,-3.28,-3.22,-3.22
340.90,-3.79,-0.58,-3.78,-0.57,0.57,-1.21,-1.03,-3.22,-3.21,-3.21
344.30,-3.74,-0.54,-3.79,-0.58,0.58,-1.21,-1.02,-3.16,-3.21,-3.20
347.75,-3.76,-0.56,-3.79,-0.58,0.58,-1.20,-1.00,-3.17,-3.20,-3.20
351.23,-3.78,-0.59,-3.77,-0.57,0.57,-1.20,-0.98,-3.21,-3.20,-3.19
354.74,-3.78,-0.58,-3.74,-0.54,0.54,-1.20,-0.96,-3.23,-3.19,-3.20
358.28,-3.77,-0.58,-3.70,-0.51,0.51,-1.20,-0.95,-3.25,-3.19,-3.19
361.87,-3.73,-0.54,-3.67,-0.48,0.48,-1.19,-0.93,-3.25,-3.19,-3.19
365.49,-3.67,-0.49,-3.62,-0.43,0.43,-1.19,-0.91,-3.24,-3.19,-3.18
369.14,-3.57,-0.38,-3.56,-0.37,0.37,-1.19,-0.90,-3.20,-3.19,-3.19
372.83,-3.47,-0.28,-3.49,-0.30,0.30,-1.19,-0.89,-3.17,-3.19,-3.19
376.56,-3.37,-0.17,-3.43,-0.24,0.24,-1.19,-0.87,-3.13,-3.19,-3.20
380.33,-3.34,-0.15,-3.37,-0.18,0.18,-1.19,-0.86,-3.16,-3.20,-3.19
384.13,-3.24,-0.05,-3.31,-0.11,0.11,-1.19,-0.85,-3.13,-3.20,-3.19
387.97,-3.21,-0.01,-3.24,-0.04,0.04,-1.19,-0.84,-3.17,-3.20,-3.20
391.85,-3.21,0.00,-3.17,0.04,-0.04,-1.19,-0.83,-3.24,-3.21,-3.21
395.77,-3.13,0.07,-3.11,0.10,-0.10,-1.19,-0.82,-3.23,-3.21,-3.20
399.73,-3.06,0.15,-3.06,0.16,-0.16,-1.19,-0.81,-3.22,-3.22,-3.21
403.72,-2.98,0.23,-3.01,0.22,-0.22,-1.20,-0.80,-3.19,-3.23,-3.21
407.76,-2.92,0.31,-2.96,0.27,-0.27,-1.20,-0.79,-3.19,-3.23,-3.23
411.84,-2.92,0.31,-2.92,0.32,-0.32,-1.20,-0.78,-3.24,-3.23,-3.23
415.96,-2.92,0.31,-2.87,0.36,-0.36,-1.20,-0.78,-3.28,-3.23,-3.23
420.12,-2.80,0.43,-2.82,0.41,-0.41,-1.21,-0.77,-3.20,-3.23,-3.23
424.32,-2.72,0.51,-2.77,0.45,-0.45,-1.21,-0.76,-3.17,-3.22,-3.23
428.56,-2.70,0.52,-2.71,0.50,-0.50,-1.21,-0.76,-3.20,-3.21,-3.22
432.85,-2.69,0.52,-2.64,0.56,-0.56,-1.22,-0.76,-3.25,-3.20,-3.21
437.18,-2.65,0.55,-2.57,0.61,-0.61,-1.22,-0.75,-3.26,-3.18,-3.20
441.55,-2.55,0.61,-2.49,0.66,-0.66,-1.23,-0.75,-3.21,-3.15,-3.16
445.96,-2.44,0.69,-2.42,0.71,-0.71,-1.23,-0.75,-3.14,-3.12,-3.13
450.42,-2.33,0.77,-2.34,0.75,-0.75,-1.24,-0.74,-3.08,-3.09,-3.10
454.93,-2.27,0.78,-2.25,0.79,-0.79,-1.24,-0.74,-3.06,-3.04,-3.05
459.48,-2.21,0.80,-2.16,0.84,-0.84,-1.25,-0.74,-3.05,-3.00,-3.01
464.07,-2.06,0.90,-2.07,0.88,-0.88,-1.25,-0.74,-2.94,-2.95,-2.96
468.71,-1.91,0.99,-1.98,0.92,-0.92,-1.26,-0.75,-2.83,-2.91,-2.90
473.40,-1.83,1.03,-1.90,0.96,-0.96,-1.27,-0.75,-2.79,-2.86,-2.86
478.13,-1.77,1.03,-1.81,1.00,-1.00,-1.27,-0.75,-2.77,-2.81,-2.80
482.91,-1.73,1.03,-1.72,1.04,-1.04,-1.28,-0.75,-2.77,-2.76,-2.76
