frequency,raw,error,smoothed,error_smoothed,equalization,parametric_eq,fixed_band_eq,equalized_raw,equalized_smoothed,target
20.00,-0.94,-3.54,-0.95,-3.59,3.59,3.08,1.05,2.65,2.63,2.60
20.20,-0.88,-3.53,-0.89,-3.56,3.56,3.09,1.08,2.68,2.67,2.65
20.40,-0.82,-3.52,-0.82,-3.53,3.53,3.10,1.11,2.71,2.71,2.70
20.61,-0.76,-3.49,-0.76,-3.50,3.50,3.11,1.14,2.74,2.74,2.73
20.81,-0.70,-3.48,-0.70,-3.47,3.47,3.12,1.18,2.77,2.77,2.78
21.02,-0.64,-3.46,-0.64,-3.43,3.43,3.13,1.21,2.80,2.79,2.82
21.23,-0.59,-3.43,-0.58,-3.40,3.40,3.13,1.25,2.81,2.82,2.84
21.44,-0.55,-3.41,-0.53,-3.37,3.37,3.14,1.29,2.82,2.84,2.86
21.66,-0.51,-3.39,-0.48,-3.34,3.34,3.14,1.33,2.83,2.86,2.88
21.87,-0.46,-3.35,-0.43,-3.31,3.31,3.14,1.37,2.85,2.88,2.89
22.09,-0.41,-3.32,-0.38,-3.27,3.27,3.14,1.41,2.87,2.90,2.91
22.31,-0.34,-3.26,-0.33,-3.24,3.24,3.14,1.45,2.90,2.91,2.92
22.54,-0.27,-3.19,-0.29,-3.20,3.20,3.14,1.49,2.93,2.91,2.92
22.76,-0.19,-3.10,-0.25,-3.17,3.17,3.13,1.53,2.98,2.92,2.92
22.99,-0.12,-3.03,-0.21,-3.13,3.13,3.13,1.58,3.01,2.92,2.91
23.22,-0.12,-3.02,-0.17,-3.09,3.09,3.12,1.62,2.98,2.92,2.91
23.45,-0.12,-3.02,-0.14,-3.06,3.06,3.11,1.67,2.94,2.92,2.91
23.69,-0.13,-3.04,-0.10,-3.03,3.03,3.10,1.72,2.90,2.92,2.91
23.92,-0.13,-3.04,-0.07,-2.99,2.99,3.09,1.77,2.87,2.92,2.91
24.16,-0.09,-3.01,-0.04,-2.96,2.96,3.08,1.82,2.87,2.92,2.92
24.40,-0.04,-2.97,-0.00,-2.92,2.92,3.06,1.86,2.88,2.92,2.93
24.65,0.02,-2.90,0.05,-2.87,2.87,3.04,1.91,2.89,2.92,2.92
24.89,0.08,-2.84,0.10,-2.82,2.82,3.03,1.97,2.90,2.92,2.92
25.14,0.12,-2.80,0.15,-2.77,2.77,3.01,2.02,2.89,2.92,2.92
25.39,0.17,-2.76,0.20,-2.72,2.72,2.99,2.07,2.90,2.92,2.93
25.65,0.21,-2.72,0.24,-2.69,2.69,2.97,2.12,2.90,2.92,2.93
25.91,0.25,-2.66,0.27,-2.65,2.65,2.94,2.17,2.90,2.92,2.92
26.16,0.33,-2.58,0.31,-2.61,2.61,2.92,2.22,2.94,2.92,2.91
26.43,0.42,-2.49,0.35,-2.56,2.56,2.89,2.27,2.98,2.92,2.91
26.69,0.52,-2.39,0.40,-2.52,2.52,2.86,2.31,3.04,2.92,2.91
26.96,0.61,-2.31,0.44,-2.48,2.48,2.83,2.36,3.09,2.91,2.92
27.23,0.56,-2.36,0.47,-2.44,2.44,2.81,2.41,3.00,2.91,2.92
27.50,0.47,-2.45,0.51,-2.40,2.40,2.77,2.45,2.88,2.91,2.92
27.77,0.38,-2.53,0.54,-2.37,2.37,2.74,2.49,2.75,2.91,2.91
28.05,0.34,-2.56,0.57,-2.34,2.34,2.71,2.53,2.68,2.91,2.90
28.33,0.47,-2.42,0.60,-2.30,2.30,2.67,2.57,2.78,2.90,2.89
28.62,0.61,-2.28,0.63,-2.27,2.27,2.64,2.60,2.88,2.90,2.89
28.90,0.74,-2.16,0.66,-2.24,2.24,2.60,2.63,2.99,2.90,2.90
29.19,0.79,-2.10,0.69,-2.21,2.21,2.56,2.66,3.00,2.90,2.89
29.48,0.78,-2.12,0.72,-2.18,2.18,2.53,2.68,2.96,2.90,2.91
29.78,0.77,-2.12,0.75,-2.15,2.15,2.49,2.70,2.92,2.89,2.89
30.08,0.78,-2.12,0.77,-2.12,2.12,2.45,2.72,2.90,2.89,2.90
30.38,0.81,-2.08,0.80,-2.09,2.09,2.41,2.73,2.90,2.89,2.89
30.68,0.84,-2.05,0.83,-2.05,2.05,2.36,2.73,2.90,2.89,2.89
30.99,0.87,-2.01,0.87,-2.02,2.02,2.32,2.74,2.89,2.89,2.89
31.30,0.90,-1.98,0.90,-1.99,1.99,2.28,2.73,2.89,2.88,2.88
31.61,0.93,-1.95,0.92,-1.96,1.96,2.24,2.73,2.90,2.88,2.88
31.93,0.96,-1.92,0.93,-1.94,1.94,2.19,2.71,2.90,2.88,2.88
32.24,0.94,-1.92,0.95,-1.92,1.92,2.15,2.70,2.86,2.87,2.87
32.57,0.89,-1.98,0.98,-1.89,1.89,2.10,2.68,2.78,2.87,2.87
32.89,0.84,-2.03,1.01,-1.85,1.85,2.06,2.65,2.69,2.86,2.87
33.22,0.94,-1.91,1.05,-1.81,1.81,2.01,2.62,2.75,2.86,2.86
33.55,1.10,-1.75,1.07,-1.78,1.78,1.96,2.59,2.88,2.85,2.85
33.89,1.27,-1.57,1.10,-1.75,1.75,1.92,2.55,3.02,2.85,2.84
34.23,1.27,-1.58,1.13,-1.72,1.72,1.87,2.51,2.99,2.84,2.85
34.57,1.21,-1.62,1.15,-1.68,1.68,1.82,2.47,2.90,2.84,2.83
34.92,1.14,-1.69,1.18,-1.65,1.65,1.78,2.43,2.79,2.83,2.83
35.27,1.16,-1.66,1.21,-1.62,1.62,1.73,2.38,2.78,2.83,2.83
35.62,1.22,-1.60,1.24,-1.58,1.58,1.68,2.33,2.80,2.82,2.82
35.97,1.28,-1.54,1.28,-1.54,1.54,1.63,2.28,2.82,2.82,2.82
36.33,1.28,-1.54,1.31,-1.51,1.51,1.58,2.22,2.79,2.82,2.82
36.70,1.28,-1.53,1.34,-1.48,1.48,1.54,2.17,2.76,2.82,2.81
37.06,1.29,-1.51,1.35,-1.47,1.47,1.49,2.11,2.76,2.82,2.80
37.43,1.34,-1.48,1.35,-1.46,1.46,1.44,2.05,2.81,2.82,2.82
37.81,1.39,-1.42,1.36,-1.45,1.45,1.39,2.00,2.84,2.81,2.81
38.19,1.43,-1.38,1.38,-1.43,1.43,1.35,1.94,2.86,2.81,2.81
38.57,1.45,-1.36,1.41,-1.41,1.41,1.30,1.88,2.86,2.81,2.81
38.95,1.48,-1.34,1.42,-1.39,1.39,1.25,1.82,2.87,2.81,2.82
39.34,1.48,-1.33,1.43,-1.38,1.38,1.20,1.77,2.86,2.81,2.81
39.74,1.48,-1.33,1.44,-1.37,1.37,1.16,1.71,2.85,2.81,2.81
40.14,1.46,-1.35,1.46,-1.35,1.35,1.11,1.65,2.81,2.81,2.81
40.54,1.42,-1.38,1.49,-1.32,1.32,1.06,1.60,2.74,2.80,2.80
40.94,1.37,-1.43,1.51,-1.29,1.29,1.02,1.54,2.66,2.80,2.80
41.35,1.44,-1.35,1.54,-1.26,1.26,0.97,1.48,2.70,2.79,2.79
41.76,1.53,-1.25,1.55,-1.23,1.23,0.92,1.43,2.77,2.78,2.78
42.18,1.58,-1.20,1.56,-1.22,1.22,0.88,1.38,2.80,2.77,2.79
42.60,1.58,-1.19,1.57,-1.19,1.19,0.83,1.32,2.77,2.76,2.77
43.03,1.59,-1.17,1.59,-1.16,1.16,0.79,1.27,2.75,2.75,2.76
43.46,1.67,-1.08,1.61,-1.13,1.13,0.74,1.22,2.80,2.74,2.75
43.90,1.76,-0.96,1.63,-1.09,1.09,0.70,1.17,2.85,2.72,2.72
44.33,1.75,-0.95,1.66,-1.05,1.05,0.66,1.12,2.81,2.71,2.70
44.78,1.70,-0.98,1.68,-1.02,1.02,0.61,1.07,2.72,2.70,2.68
45.23,1.65,-1.02,1.70,-0.98,0.98,0.57,1.03,2.63,2.68,2.67
45.68,1.60,-1.05,1.72,-0.95,0.95,0.53,0.98,2.55,2.66,2.65
46.13,1.59,-1.04,1.72,-0.92,0.92,0.48,0.94,2.52,2.65,2.63
46.60,1.69,-0.94,1.73,-0.90,0.90,0.44,0.89,2.59,2.63,2.63
47.06,1.78,-0.83,1.74,-0.87,0.87,0.40,0.85,2.65,2.61,2.61
47.53,1.78,-0.82,1.75,-0.85,0.85,0.36,0.80,2.63,2.60,2.60
48.01,1.78,-0.82,1.75,-0.83,0.83,0.32,0.76,2.61,2.58,2.60
48.49,1.78,-0.79,1.74,-0.82,0.82,0.28,0.72,2.60,2.56,2.58
48.97,1.78,-0.77,1.74,-0.81,0.81,0.24,0.68,2.59,2.55,2.55
49.46,1.78,-0.75,1.75,-0.78,0.78,0.20,0.64,2.56,2.53,2.53
49.96,1.78,-0.72,1.76,-0.75,0.75,0.16,0.60,2.54,2.52,2.51
50.46,1.78,-0.72,1.77,-0.73,0.73,0.12,0.57,2.51,2.50,2.50
50.96,1.78,-0.70,1.78,-0.70,0.70,0.08,0.53,2.49,2.49,2.49
51.47,1.76,-0.70,1.79,-0.69,0.69,0.05,0.49,2.45,2.47,2.46
51.99,1.73,-0.71,1.79,-0.67,0.67,0.01,0.46,2.40,2.46,2.44
52.51,1.71,-0.73,1.79,-0.65,0.65,-0.03,0.42,2.36,2.44,2.44
53.03,1.71,-0.72,1.80,-0.62,0.62,-0.06,0.39,2.34,2.42,2.43
53.56,1.80,-0.61,1.81,-0.60,0.60,-0.10,0.35,2.40,2.41,2.41
54.10,1.88,-0.51,1.82,-0.57,0.57,-0.13,0.32,2.46,2.39,2.40
54.64,1.88,-0.49,1.83,-0.55,0.55,-0.17,0.28,2.43,2.38,2.38
55.18,1.88,-0.49,1.85,-0.52,0.52,-0.20,0.25,2.40,2.37,2.37
55.74,1.88,-0.47,1.86,-0.49,0.49,-0.24,0.22,2.37,2.35,2.35
56.29,1.88,-0.45,1.86,-0.47,0.47,-0.27,0.18,2.35,2.34,2.34
56.86,1.88,-0.43,1.87,-0.45,0.45,-0.30,0.15,2.33,2.32,2.31
57.42,1.88,-0.40,1.88,-0.42,0.42,-0.33,0.12,2.30,2.30,2.28
58.00,1.88,-0.39,1.88,-0.39,0.39,-0.37,0.09,2.27,2.27,2.27
58.58,1.88,-0.37,1.89,-0.36,0.36,-0.40,0.05,2.24,2.25,2.26
59.16,1.88,-0.35,1.89,-0.33,0.33,-0.43,0.02,2.21,2.22,2.23
59.76,1.88,-0.32,1.88,-0.30,0.30,-0.46,-0.01,2.18,2.19,2.21
60.35,1.88,-0.28,1.89,-0.26,0.26,-0.49,-0.04,2.15,2.15,2.16
60.96,1.88,-0.24,1.89,-0.22,0.22,-0.52,-0.07,2.10,2.11,2.12
61.57,1.83,-0.24,1.90,-0.17,0.17,-0.55,-0.11,2.00,2.07,2.08
62.18,1.83,-0.20,1.91,-0.12,0.12,-0.58,-0.14,1.95,2.03,2.03
62.80,1.94,-0.04,1.92,-0.06,0.06,-0.60,-0.17,2.00,1.98,1.98
63.43,1.98,0.05,1.93,-0.00,0.00,-0.63,-0.20,1.98,1.94,1.93
64.07,1.98,0.10,1.94,0.06,-0.06,-0.66,-0.24,1.92,1.89,1.88
64.71,1.98,0.16,1.95,0.12,-0.12,-0.69,-0.27,1.86,1.84,1.83
65.35,1.98,0.20,1.96,0.18,-0.18,-0.71,-0.30,1.80,1.78,1.78
66.01,1.98,0.25,1.97,0.24,-0.24,-0.74,-0.34,1.74,1.73,1.73
66.67,1.98,0.31,1.98,0.30,-0.30,-0.77,-0.37,1.68,1.68,1.67
67.33,1.98,0.36,1.99,0.36,-0.36,-0.79,-0.41,1.62,1.62,1.62
68.01,1.98,0.41,1.99,0.42,-0.42,-0.82,-0.44,1.56,1.57,1.57
68.69,1.98,0.47,1.99,0.48,-0.48,-0.84,-0.48,1.50,1.51,1.52
69.37,1.98,0.52,1.99,0.54,-0.54,-0.86,-0.51,1.45,1.46,1.46
70.07,1.98,0.58,1.98,0.59,-0.59,-0.89,-0.55,1.39,1.40,1.40
70.77,1.98,0.63,1.98,0.65,-0.65,-0.91,-0.59,1.34,1.34,1.35
71.48,1.98,0.70,1.98,0.71,-0.71,-0.93,-0.63,1.27,1.27,1.29
72.19,1.98,0.77,1.98,0.77,-0.77,-0.96,-0.67,1.21,1.21,1.21
72.91,1.98,0.83,1.98,0.83,-0.83,-0.98,-0.71,1.15,1.15,1.15
73.64,1.98,0.89,1.98,0.89,-0.89,-1.00,-0.75,1.09,1.09,1.09
74.38,1.98,0.96,1.98,0.96,-0.96,-1.02,-0.79,1.02,1.02,1.02
75.12,1.98,1.03,1.98,1.02,-1.02,-1.04,-0.83,0.96,0.96,0.96
75.87,1.98,1.09,1.98,1.08,-1.08,-1.06,-0.87,0.90,0.90,0.89
76.63,1.98,1.15,1.98,1.15,-1.15,-1.08,-0.91,0.84,0.84,0.83
77.40,1.98,1.21,1.98,1.21,-1.21,-1.10,-0.96,0.78,0.78,0.77
78.17,1.98,1.28,1.98,1.27,-1.27,-1.12,-1.01,0.71,0.71,0.70
78.95,1.98,1.32,1.98,1.33,-1.33,-1.14,-1.05,0.66,0.66,0.66
79.74,1.98,1.38,1.98,1.38,-1.38,-1.16,-1.10,0.60,0.60,0.60
80.54,1.98,1.44,1.98,1.44,-1.44,-1.18,-1.15,0.54,0.54,0.55
81.35,1.98,1.50,1.98,1.50,-1.50,-1.20,-1.20,0.49,0.49,0.48
82.16,1.98,1.55,1.98,1.55,-1.55,-1.22,-1.25,0.43,0.43,0.43
82.98,1.98,1.60,1.98,1.61,-1.61,-1.23,-1.30,0.37,0.37,0.38
83.81,1.98,1.67,1.98,1.66,-1.66,-1.25,-1.36,0.32,0.32,0.31
84.65,1.98,1.72,1.98,1.72,-1.72,-1.27,-1.41,0.26,0.26,0.26
85.50,1.98,1.77,1.98,1.78,-1.78,-1.29,-1.47,0.20,0.20,0.21
86.35,1.98,1.83,1.99,1.84,-1.84,-1.30,-1.52,0.14,0.14,0.15
87.22,1.98,1.89,1.99,1.91,-1.91,-1.32,-1.58,0.07,0.09,0.09
88.09,1.98,1.95,2.00,1.97,-1.97,-1.33,-1.64,0.01,0.03,0.03
88.97,1.98,2.01,2.00,2.03,-2.03,-1.35,-1.70,-0.05,-0.03,-0.03
89.86,1.98,2.07,2.00,2.09,-2.09,-1.36,-1.77,-0.11,-0.09,-0.09
90.76,1.99,2.15,1.99,2.15,-2.15,-1.38,-1.83,-0.15,-0.15,-0.16
91.66,1.99,2.20,1.99,2.20,-2.20,-1.39,-1.89,-0.21,-0.21,-0.21
92.58,1.99,2.27,1.98,2.25,-2.25,-1.41,-1.96,-0.26,-0.27,-0.28
93.51,2.01,2.35,1.97,2.30,-2.30,-1.42,-2.03,-0.29,-0.33,-0.34
94.44,2.03,2.42,1.96,2.35,-2.35,-1.44,-2.10,-0.32,-0.39,-0.39
95.39,1.99,2.44,1.95,2.40,-2.40,-1.45,-2.17,-0.40,-0.45,-0.45
96.34,1.89,2.40,1.94,2.45,-2.45,-1.46,-2.24,-0.55,-0.51,-0.51
97.30,1.88,2.45,1.93,2.50,-2.50,-1.48,-2.31,-0.61,-0.57,-0.57
98.28,1.87,2.50,1.91,2.54,-2.54,-1.49,-2.38,-0.67,-0.62,-0.62
99.26,1.85,2.53,1.89,2.57,-2.57,-1.50,-2.46,-0.72,-0.68,-0.68
100.25,1.84,2.58,1.86,2.60,-2.60,-1.51,-2.53,-0.76,-0.74,-0.74
101.25,1.82,2.62,1.83,2.63,-2.63,-1.52,-2.60,-0.80,-0.80,-0.80
102.27,1.81,2.67,1.79,2.65,-2.65,-1.54,-2.68,-0.84,-0.86,-0.85
103.29,1.79,2.71,1.75,2.67,-2.67,-1.55,-2.75,-0.88,-0.91,-0.92
104.32,1.77,2.74,1.71,2.68,-2.68,-1.56,-2.83,-0.91,-0.97,-0.97
105.37,1.76,2.79,1.67,2.70,-2.70,-1.57,-2.90,-0.94,-1.03,-1.03
106.42,1.74,2.83,1.64,2.73,-2.73,-1.58,-2.97,-0.99,-1.10,-1.08
107.48,1.60,2.75,1.61,2.77,-2.77,-1.59,-3.04,-1.17,-1.16,-1.15
108.56,1.46,2.68,1.58,2.80,-2.80,-1.60,-3.11,-1.34,-1.22,-1.22
109.64,1.44,2.72,1.54,2.82,-2.82,-1.61,-3.18,-1.38,-1.28,-1.28
110.74,1.43,2.78,1.51,2.85,-2.85,-1.62,-3.25,-1.42,-1.34,-1.34
111.85,1.42,2.81,1.48,2.88,-2.88,-1.63,-3.31,-1.46,-1.40,-1.39
112.97,1.41,2.88,1.45,2.91,-2.91,-1.64,-3.37,-1.50,-1.46,-1.47
114.10,1.40,2.93,1.41,2.93,-2.93,-1.65,-3.42,-1.53,-1.52,-1.53
115.24,1.40,2.98,1.37,2.95,-2.95,-1.66,-3.48,-1.55,-1.58,-1.58
116.39,1.43,3.08,1.34,2.98,-2.98,-1.67,-3.53,-1.54,-1.63,-1.65
117.55,1.45,3.14,1.32,3.00,-3.00,-1.68,-3.57,-1.55,-1.69,-1.69
118.73,1.36,3.11,1.29,3.03,-3.03,-1.69,-3.61,-1.67,-1.74,-1.75
119.92,1.22,3.00,1.28,3.06,-3.06,-1.69,-3.64,-1.84,-1.78,-1.78
121.12,1.21,3.05,1.25,3.08,-3.08,-1.70,-3.67,-1.87,-1.83,-1.84
122.33,1.20,3.08,1.22,3.09,-3.09,-1.71,-3.69,-1.89,-1.88,-1.88
123.55,1.16,3.07,1.18,3.10,-3.10,-1.72,-3.71,-1.94,-1.92,-1.91
124.79,1.07,3.03,1.14,3.10,-3.10,-1.72,-3.72,-2.03,-1.96,-1.95
126.03,1.01,3.01,1.10,3.10,-3.10,-1.73,-3.73,-2.09,-2.00,-2.00
127.29,1.07,3.10,1.06,3.09,-3.09,-1.74,-3.73,-2.02,-2.04,-2.03
128.57,1.09,3.17,1.01,3.08,-3.08,-1.75,-3.72,-1.99,-2.08,-2.08
129.85,0.99,3.11,0.96,3.07,-3.07,-1.75,-3.71,-2.08,-2.11,-2.12
131.15,0.95,3.11,0.91,3.06,-3.06,-1.76,-3.70,-2.11,-2.15,-2.15
132.46,0.89,3.08,0.86,3.05,-3.05,-1.77,-3.68,-2.16,-2.19,-2.19
133.79,0.81,3.04,0.81,3.03,-3.03,-1.77,-3.65,-2.22,-2.23,-2.23
135.12,0.78,3.05,0.74,3.01,-3.01,-1.78,-3.62,-2.23,-2.26,-2.27
136.48,0.72,3.02,0.68,2.98,-2.98,-1.78,-3.58,-2.26,-2.30,-2.30
137.84,0.64,2.98,0.63,2.97,-2.97,-1.79,-3.55,-2.33,-2.34,-2.34
139.22,0.58,2.97,0.58,2.96,-2.96,-1.79,-3.50,-2.38,-2.37,-2.39
140.61,0.51,2.94,0.54,2.95,-2.95,-1.80,-3.46,-2.44,-2.41,-2.43
142.02,0.46,2.91,0.50,2.95,-2.95,-1.80,-3.41,-2.49,-2.45,-2.45
143.44,0.42,2.91,0.48,2.97,-2.97,-1.81,-3.36,-2.55,-2.49,-2.49
144.87,0.40,2.94,0.48,3.02,-3.02,-1.81,-3.31,-2.62,-2.54,-2.54
146.32,0.38,2.97,0.48,3.07,-3.07,-1.82,-3.26,-2.69,-2.59,-2.59
147.78,0.37,3.00,0.49,3.14,-3.14,-1.82,-3.20,-2.77,-2.65,-2.62
149.26,0.45,3.13,0.51,3.22,-3.22,-1.83,-3.15,-2.77,-2.71,-2.68
150.75,0.54,3.30,0.53,3.31,-3.31,-1.83,-3.09,-2.76,-2.78,-2.76
152.26,0.59,3.42,0.55,3.40,-3.40,-1.84,-3.04,-2.81,-2.85,-2.83
153.78,0.60,3.51,0.57,3.49,-3.49,-1.84,-2.98,-2.89,-2.92,-2.90
155.32,0.61,3.60,0.58,3.58,-3.58,-1.84,-2.93,-2.97,-3.00,-2.99
156.88,0.69,3.76,0.59,3.66,-3.66,-1.85,-2.87,-2.97,-3.08,-3.07
158.44,0.69,3.85,0.57,3.73,-3.73,-1.85,-2.82,-3.04,-3.15,-3.16
160.03,0.59,3.84,0.54,3.77,-3.77,-1.85,-2.77,-3.18,-3.23,-3.25
161.63,0.52,3.85,0.49,3.79,-3.79,-1.86,-2.72,-3.27,-3.30,-3.33
163.24,0.46,3.86,0.42,3.79,-3.79,-1.86,-2.67,-3.33,-3.37,-3.39
164.88,0.36,3.81,0.33,3.77,-3.77,-1.86,-2.62,-3.40,-3.43,-3.45
166.53,0.27,3.78,0.23,3.72,-3.72,-1.86,-2.57,-3.45,-3.49,-3.51
168.19,0.18,3.73,0.12,3.66,-3.66,-1.86,-2.53,-3.48,-3.53,-3.55
169.87,0.03,3.63,0.02,3.59,-3.59,-1.87,-2.48,-3.56,-3.57,-3.60
171.57,-0.13,3.49,-0.09,3.52,-3.52,-1.87,-2.44,-3.65,-3.60,-3.62
173.29,-0.25,3.39,-0.19,3.44,-3.44,-1.87,-2.40,-3.69,-3.63,-3.64
175.02,-0.38,3.27,-0.29,3.36,-3.36,-1.87,-2.36,-3.74,-3.65,-3.65
176.77,-0.49,3.18,-0.38,3.29,-3.29,-1.87,-2.32,-3.77,-3.67,-3.67
178.54,-0.54,3.14,-0.45,3.23,-3.23,-1.87,-2.29,-3.77,-3.68,-3.68
180.32,-0.55,3.13,-0.51,3.18,-3.18,-1.87,-2.26,-3.73,-3.69,-3.68
182.13,-0.56,3.12,-0.55,3.15,-3.15,-1.87,-2.22,-3.70,-3.70,-3.68
183.95,-0.61,3.09,-0.59,3.12,-3.12,-1.87,-2.20,-3.73,-3.71,-3.69
185.79,-0.63,3.07,-0.63,3.10,-3.10,-1.87,-2.17,-3.72,-3.72,-3.70
187.65,-0.61,3.12,-0.65,3.08,-3.08,-1.87,-2.14,-3.69,-3.74,-3.73
189.52,-0.67,3.07,-0.67,3.08,-3.08,-1.87,-2.12,-3.75,-3.75,-3.74
191.42,-0.68,3.09,-0.69,3.08,-3.08,-1.87,-2.09,-3.76,-3.77,-3.76
193.33,-0.67,3.12,-0.70,3.09,-3.09,-1.87,-2.07,-3.76,-3.79,-3.79
195.27,-0.65,3.16,-0.72,3.09,-3.09,-1.87,-2.05,-3.74,-3.81,-3.81
197.22,-0.67,3.16,-0.74,3.09,-3.09,-1.87,-2.04,-3.76,-3.83,-3.83
199.19,-0.77,3.09,-0.77,3.09,-3.09,-1.86,-2.02,-3.86,-3.85,-3.86
201.18,-0.83,3.05,-0.80,3.08,-3.08,-1.86,-2.00,-3.91,-3.88,-3.88
203.19,-0.88,3.02,-0.84,3.07,-3.07,-1.86,-1.99,-3.95,-3.90,-3.90
205.23,-0.92,3.01,-0.87,3.06,-3.06,-1.86,-1.98,-3.98,-3.93,-3.93
207.28,-0.92,3.02,-0.91,3.04,-3.04,-1.85,-1.96,-3.96,-3.95,-3.94
209.35,-0.94,3.03,-0.96,3.01,-3.01,-1.85,-1.95,-3.95,-3.97,-3.97
211.44,-1.00,3.01,-1.01,2.98,-2.98,-1.84,-1.94,-3.98,-4.00,-4.00
213.56,-1.07,2.94,-1.07,2.95,-2.95,-1.84,-1.93,-4.02,-4.01,-4.01
215.69,-1.12,2.91,-1.12,2.91,-2.91,-1.83,-1.93,-4.03,-4.03,-4.03
217.85,-1.13,2.91,-1.18,2.86,-2.86,-1.83,-1.92,-3.99,-4.04,-4.04
220.03,-1.25,2.81,-1.25,2.81,-2.81,-1.82,-1.91,-4.06,-4.06,-4.06
222.23,-1.32,2.76,-1.31,2.75,-2.75,-1.81,-1.90,-4.07,-4.07,-4.08
224.45,-1.34,2.74,-1.38,2.69,-2.69,-1.81,-1.89,-4.03,-4.07,-4.08
226.70,-1.44,2.64,-1.45,2.62,-2.62,-1.80,-1.88,-4.06,-4.07,-4.08
228.96,-1.54,2.53,-1.53,2.54,-2.54,-1.79,-1.88,-4.08,-4.07,-4.07
231.25,-1.61,2.46,-1.61,2.46,-2.46,-1.78,-1.87,-4.07,-4.07,-4.07
233.57,-1.65,2.41,-1.68,2.38,-2.38,-1.77,-1.86,-4.03,-4.06,-4.06
235.90,-1.71,2.34,-1.74,2.30,-2.30,-1.76,-1.85,-4.01,-4.05,-4.05
238.26,-1.82,2.22,-1.80,2.23,-2.23,-1.74,-1.84,-4.05,-4.03,-4.04
240.64,-1.95,2.07,-1.85,2.16,-2.16,-1.73,-1.83,-4.11,-4.01,-4.02
243.05,-1.96,2.03,-1.90,2.10,-2.10,-1.72,-1.81,-4.06,-4.00,-3.99
245.48,-1.94,2.03,-1.93,2.04,-2.04,-1.70,-1.80,-3.98,-3.98,-3.97
247.93,-2.00,1.94,-1.96,1.99,-1.99,-1.68,-1.79,-3.99,-3.95,-3.94
250.41,-2.08,1.85,-1.99,1.94,-1.94,-1.67,-1.77,-4.02,-3.93,-3.93
252.92,-2.07,1.83,-2.02,1.90,-1.90,-1.65,-1.76,-3.96,-3.91,-3.90
255.45,-2.00,1.88,-2.04,1.84,-1.84,-1.63,-1.74,-3.84,-3.89,-3.88
258.00,-2.04,1.82,-2.08,1.79,-1.79,-1.60,-1.72,-3.82,-3.87,-3.86
260.58,-2.06,1.79,-2.11,1.73,-1.73,-1.58,-1.70,-3.79,-3.84,-3.85
263.19,-2.07,1.75,-2.15,1.67,-1.67,-1.55,-1.68,-3.74,-3.82,-3.81
265.82,-2.15,1.65,-2.19,1.61,-1.61,-1.53,-1.66,-3.76,-3.80,-3.80
268.48,-2.16,1.62,-2.23,1.55,-1.55,-1.50,-1.64,-3.70,-3.77,-3.78
271.16,-2.24,1.51,-2.28,1.47,-1.47,-1.46,-1.62,-3.71,-3.75,-3.75
273.87,-2.38,1.35,-2.35,1.38,-1.38,-1.43,-1.59,-3.75,-3.73,-3.73
276.61,-2.44,1.26,-2.42,1.29,-1.29,-1.39,-1.57,-3.72,-3.70,-3.70
279.38,-2.54,1.14,-2.49,1.18,-1.18,-1.35,-1.55,-3.72,-3.68,-3.68
282.17,-2.67,0.98,-2.58,1.07,-1.07,-1.30,-1.52,-3.73,-3.65,-3.65
284.99,-2.68,0.94,-2.67,0.95,-0.95,-1.25,-1.49,-3.63,-3.62,-3.62
287.84,-2.69,0.91,-2.76,0.84,-0.84,-1.20,-1.47,-3.53,-3.59,-3.60
290.72,-2.80,0.77,-2.85,0.72,-0.72,-1.14,-1.44,-3.52,-3.57,-3.57
293.63,-2.93,0.62,-2.93,0.61,-0.61,-1.08,-1.42,-3.53,-3.54,-3.54
296.57,-2.96,0.55,-3.01,0.50,-0.50,-1.01,-1.39,-3.45,-3.51,-3.51
299.53,-3.17,0.32,-3.09,0.39,-0.39,-0.94,-1.37,-3.56,-3.48,-3.48
302.53,-3.23,0.24,-3.17,0.29,-0.29,-0.86,-1.34,-3.52,-3.46,-3.47
305.55,-3.22,0.20,-3.24,0.19,-0.19,-0.78,-1.31,-3.41,-3.43,-3.42
308.61,-3.39,0.02,-3.32,0.09,-0.09,-0.69,-1.29,-3.48,-3.41,-3.41
311.69,-3.39,-0.01,-3.39,-0.00,0.00,-0.59,-1.26,-3.39,-3.39,-3.38
314.81,-3.37,-0.01,-3.45,-0.09,0.09,-0.49,-1.24,-3.28,-3.37,-3.36
317.96,-3.52,-0.18,-3.52,-0.17,0.17,-0.38,-1.22,-3.35,-3.35,-3.34
321.14,-3.60,-0.27,-3.58,-0.25,0.25,-0.27,-1.19,-3.35,-3.33,-3.33
324.35,-3.58,-0.26,-3.62,-0.31,0.31,-0.15,-1.17,-3.27,-3.31,-3.32
327.59,-3.65,-0.35,-3.66,-0.36,0.36,-0.03,-1.15,-3.28,-3.30,-3.30
330.87,-3.71,-0.42,-3.70,-0.42,0.42,0.10,-1.13,-3.29,-3.29,-3.29
334.18,-3.76,-0.48,-3.73,-0.46,0.46,0.22,-1.11,-3.30,-3.28,-3.28
337.52,-3.82,-0.55,-3.76,-0.50,0.50,0.34,-1.09,-3.32,-3.27,-3.27
340.90,-3.79,-0.54,-3.78,-0.52,0.52,0.45,-1.07,-3.27,-3.26,-3.25
344.30,-3.74,-0.49,-3.79,-0.53,0.53,0.55,-1.05,-3.20,-3.25,-3.25
347.75,-3.76,-0.51,-3.79,-0.54,0.54,0.64,-1.03,-3.22,-3.25,-3.25
351.23,-3.78,-0.54,-3.77,-0.53,0.53,0.71,-1.01,-3.25,-3.24,-3.24
354.74,-3.78,-0.54,-3.74,-0.50,0.50,0.75,-0.99,-3.28,-3.24,-3.24
358.28,-3.77,-0.53,-3.70,-0.47,0.47,0.77,-0.98,-3.30,-3.24,-3.24
361.87,-3.73,-0.49,-3.67,-0.43,0.43,0.77,-0.96,-3.30,-3.24,-3.24
365.49,-3.67,-0.44,-3.62,-0.38,0.38,0.74,-0.95,-3.29,-3.24,-3.23
369.14,-3.57,-0.33,-3.56,-0.32,0.32,0.69,-0.93,-3.25,-3.24,-3.24
372.83,-3.47,-0.22,-3.49,-0.25,0.25,0.61,-0.92,-3.21,-3.24,-3.24
376.56,-3.37,-0.12,-3.43,-0.19,0.19,0.52,-0.91,-3.18,-3.24,-3.25
380.33,-3.34,-0.10,-3.37,-0.13,0.13,0.41,-0.90,-3.21,-3.25,-3.24
384.13,-3.24,0.00,-3.31,-0.06,0.06,0.30,-0.88,-3.18,-3.25,-3.24
387.97,-3.21,0.04,-3.24,0.01,-0.01,0.18,-0.87,-3.22,-3.25,-3.25
391.85,-3.21,0.06,-3.17,0.09,-0.09,0.05,-0.86,-3.29,-3.26,-3.26
395.77,-3.13,0.13,-3.11,0.15,-0.15,-0.07,-0.86,-3.28,-3.27,-3.26
399.73,-3.06,0.21,-3.06,0.21,-0.21,-0.20,-0.85,-3.27,-3.27,-3.27
403.72,-2.98,0.29,-3.01,0.27,-0.27,-0.32,-0.84,-3.25,-3.28,-3.27
407.76,-2.92,0.36,-2.96,0.32,-0.32,-0.43,-0.83,-3.24,-3.28,-3.28
411.84,-2.92,0.36,-2.92,0.37,-0.37,-0.54,-0.83,-3.29,-3.28,-3.28
415.96,-2.92,0.36,-2.87,0.42,-0.42,-0.65,-0.82,-3.33,-3.29,-3.28
420.12,-2.80,0.49,-2.82,0.46,-0.46,-0.75,-0.81,-3.26,-3.28,-3.28
424.32,-2.72,0.57,-2.77,0.51,-0.51,-0.84,-0.81,-3.23,-3.28,-3.28
428.56,-2.70,0.58,-2.71,0.56,-0.56,-0.92,-0.81,-3.26,-3.27,-3.28
432.85,-2.69,0.58,-2.64,0.61,-0.61,-1.00,-0.80,-3.30,-3.25,-3.27
437.18,-2.65,0.61,-2.57,0.67,-0.67,-1.08,-0.80,-3.31,-3.23,-3.26
441.55,-2.55,0.67,-2.49,0.72,-0.72,-1.15,-0.80,-3.26,-3.21,-3.22
445.96,-2.44,0.75,-2.42,0.76,-0.76,-1.21,-0.80,-3.20,-3.18,-3.19
450.42,-2.33,0.83,-2.34,0.80,-0.80,-1.27,-0.80,-3.13,-3.14,-3.16
454.93,-2.27,0.84,-2.25,0.85,-0.85,-1.32,-0.79,-3.12,-3.10,-3.11
459.48,-2.21,0.85,-2.16,0.89,-0.89,-1.37,-0.80,-3.10,-3.06,-3.06
464.07,-2.06,0.96,-2.07,0.94,-0.94,-1.42,-0.80,-3.00,-3.01,-3.01
468.71,-1.91,1.05,-1.98,0.98,-0.98,-1.47,-0.80,-2.89,-2.96,-2.95
473.40,-1.83,1.09,-1.90,1.02,-1.02,-1.51,-0.80,-2.85,-2.91,-2.92
478.13,-1.77,1.09,-1.81,1.06,-1.06,-1.54,-0.80,-2.83,-2.87,-2.86
482.91,-1.73,1.09,-1.72,1.10,-1.10,-1.58,-0.81,-2.83,-2.82,-2.82
487.74,-1.69,1.09,-1.65,1.13,-1.13,-1.61,-0.81,-2.82,-2.78,-2.78
