frequency,raw,error,smoothed,error_smoothed,equalization,parametric_eq,fixed_band_eq,equalized_raw,equalized_smoothed,target
20.00,-1.35,-8.37,-1.35,-8.37,8.37,7.52,3.37,7.01,7.01,7.01
20.20,-1.32,-8.33,-1.33,-8.33,8.33,7.60,3.47,7.00,7.00,7.00
20.40,-1.30,-8.30,-1.30,-8.29,8.29,7.68,3.56,6.99,6.99,6.99
20.61,-1.28,-8.26,-1.27,-8.25,8.25,7.75,3.66,6.98,6.98,6.98
20.81,-1.24,-8.21,-1.25,-8.22,8.22,7.82,3.76,6.97,6.97,6.96
21.02,-1.22,-8.18,-1.22,-8.18,8.18,7.89,3.87,6.96,6.96,6.95
21.23,-1.19,-8.14,-1.20,-8.14,8.14,7.95,3.97,6.95,6.95,6.94
21.44,-1.17,-8.13,-1.17,-8.11,8.11,8.00,4.08,6.94,6.94,6.95
21.66,-1.15,-8.08,-1.15,-8.07,8.07,8.05,4.20,6.93,6.93,6.93
21.87,-1.11,-8.05,-1.12,-8.04,8.04,8.10,4.31,6.93,6.92,6.93
22.09,-1.09,-8.01,-1.10,-8.01,8.01,8.14,4.43,6.91,6.91,6.91
22.31,-1.07,-7.98,-1.07,-7.97,7.97,8.17,4.56,6.90,6.90,6.90
22.54,-1.05,-7.94,-1.05,-7.94,7.94,8.20,4.68,6.90,6.90,6.89
22.76,-1.02,-7.92,-1.02,-7.91,7.91,8.22,4.81,6.89,6.89,6.89
22.99,-0.99,-7.88,-1.00,-7.88,7.88,8.24,4.94,6.89,6.89,6.88
23.22,-0.97,-7.85,-0.97,-7.85,7.85,8.25,5.08,6.88,6.88,6.87
23.45,-0.94,-7.83,-0.94,-7.82,7.82,8.25,5.22,6.88,6.88,6.88
23.69,-0.92,-7.79,-0.92,-7.79,7.79,8.25,5.36,6.87,6.87,6.87
23.92,-0.89,-7.76,-0.89,-7.76,7.76,8.24,5.50,6.86,6.87,6.86
24.16,-0.86,-7.74,-0.87,-7.73,7.73,8.23,5.65,6.87,6.86,6.87
24.40,-0.84,-7.72,-0.84,-7.70,7.70,8.22,5.80,6.86,6.86,6.87
24.65,-0.81,-7.68,-0.81,-7.67,7.67,8.19,5.95,6.86,6.86,6.86
24.89,-0.78,-7.65,-0.78,-7.64,7.64,8.17,6.10,6.86,6.86,6.86
25.14,-0.75,-7.61,-0.76,-7.61,7.61,8.13,6.26,6.86,6.86,6.85
25.39,-0.73,-7.59,-0.73,-7.59,7.59,8.10,6.41,6.85,6.86,6.85
25.65,-0.70,-7.56,-0.70,-7.56,7.56,8.06,6.57,6.85,6.85,6.85
25.91,-0.68,-7.53,-0.68,-7.53,7.53,8.02,6.73,6.85,6.85,6.85
26.16,-0.64,-7.51,-0.65,-7.50,7.50,7.97,6.89,6.86,6.85,6.86
26.43,-0.62,-7.48,-0.62,-7.48,7.48,7.92,7.05,6.85,6.85,6.85
26.69,-0.59,-7.45,-0.60,-7.45,7.45,7.87,7.20,6.85,6.85,6.85
26.96,-0.56,-7.42,-0.57,-7.42,7.42,7.81,7.36,6.86,6.85,6.85
27.23,-0.54,-7.40,-0.54,-7.40,7.40,7.75,7.51,6.85,6.86,6.85
27.50,-0.51,-7.37,-0.52,-7.38,7.38,7.70,7.66,6.86,6.86,6.85
27.77,-0.49,-7.36,-0.49,-7.35,7.35,7.63,7.81,6.86,6.86,6.86
28.05,-0.47,-7.33,-0.47,-7.33,7.33,7.57,7.94,6.85,6.86,6.85
28.33,-0.44,-7.31,-0.44,-7.30,7.30,7.51,8.08,6.86,6.86,6.86
28.62,-0.42,-7.28,-0.42,-7.28,7.28,7.45,8.20,6.86,6.86,6.86
28.90,-0.39,-7.27,-0.39,-7.25,7.25,7.38,8.32,6.86,6.86,6.87
29.19,-0.36,-7.24,-0.37,-7.23,7.23,7.32,8.42,6.86,6.86,6.87
29.48,-0.34,-7.21,-0.34,-7.20,7.20,7.26,8.52,6.85,6.86,6.86
29.78,-0.31,-7.18,-0.31,-7.17,7.17,7.19,8.60,6.86,6.86,6.86
30.08,-0.29,-7.15,-0.29,-7.14,7.14,7.13,8.68,6.86,6.85,6.86
30.38,-0.26,-7.11,-0.26,-7.11,7.11,7.07,8.73,6.85,6.85,6.84
30.68,-0.23,-7.08,-0.24,-7.08,7.08,7.01,8.78,6.85,6.85,6.84
30.99,-0.21,-7.05,-0.21,-7.05,7.05,6.95,8.81,6.84,6.84,6.84
31.30,-0.18,-7.03,-0.18,-7.02,7.02,6.89,8.83,6.83,6.84,6.84
31.61,-0.15,-6.99,-0.16,-6.99,6.99,6.84,8.83,6.83,6.83,6.83
31.93,-0.13,-6.95,-0.13,-6.96,6.96,6.78,8.82,6.82,6.82,6.81
32.24,-0.10,-6.93,-0.11,-6.92,6.92,6.73,8.79,6.82,6.81,6.82
32.57,-0.08,-6.89,-0.09,-6.89,6.89,6.68,8.75,6.81,6.81,6.80
32.89,-0.06,-6.87,-0.06,-6.86,6.86,6.63,8.70,6.80,6.80,6.80
33.22,-0.03,-6.83,-0.04,-6.83,6.83,6.59,8.64,6.80,6.79,6.79
33.55,-0.01,-6.81,-0.01,-6.80,6.80,6.54,8.56,6.79,6.79,6.79
33.89,0.01,-6.78,0.01,-6.77,6.77,6.50,8.48,6.78,6.78,6.78
34.23,0.03,-6.74,0.03,-6.74,6.74,6.46,8.39,6.77,6.77,6.76
34.57,0.05,-6.72,0.05,-6.71,6.71,6.42,8.28,6.76,6.76,6.76
34.92,0.08,-6.67,0.07,-6.68,6.68,6.39,8.18,6.76,6.75,6.74
35.27,0.10,-6.67,0.09,-6.65,6.65,6.36,8.07,6.75,6.74,6.76
35.62,0.12,-6.62,0.11,-6.62,6.62,6.33,7.95,6.73,6.73,6.73
35.97,0.14,-6.60,0.13,-6.59,6.59,6.30,7.83,6.72,6.72,6.73
36.33,0.16,-6.56,0.15,-6.55,6.55,6.28,7.71,6.71,6.71,6.71
36.70,0.18,-6.52,0.17,-6.52,6.52,6.25,7.58,6.69,6.69,6.69
37.06,0.19,-6.49,0.19,-6.48,6.48,6.24,7.46,6.67,6.67,6.67
37.43,0.21,-6.45,0.21,-6.45,6.45,6.22,7.33,6.65,6.65,6.65
37.81,0.22,-6.43,0.23,-6.41,6.41,6.20,7.21,6.63,6.64,6.64
38.19,0.24,-6.38,0.24,-6.38,6.38,6.19,7.08,6.61,6.62,6.61
38.57,0.26,-6.34,0.25,-6.34,6.34,6.18,6.96,6.59,6.59,6.59
38.95,0.28,-6.31,0.27,-6.31,6.31,6.17,6.84,6.58,6.57,6.58
39.34,0.29,-6.27,0.28,-6.27,6.27,6.16,6.72,6.56,6.55,6.55
39.74,0.30,-6.23,0.29,-6.24,6.24,6.16,6.61,6.54,6.53,6.52
40.14,0.31,-6.20,0.30,-6.21,6.21,6.15,6.50,6.51,6.51,6.50
40.54,0.32,-6.17,0.31,-6.18,6.18,6.15,6.39,6.49,6.48,6.48
40.94,0.32,-6.14,0.31,-6.15,6.15,6.14,6.28,6.46,6.46,6.45
41.35,0.32,-6.13,0.32,-6.12,6.12,6.14,6.18,6.43,6.44,6.44
41.76,0.33,-6.09,0.33,-6.09,6.09,6.14,6.08,6.42,6.42,6.41
42.18,0.33,-6.08,0.33,-6.06,6.06,6.14,5.99,6.38,6.39,6.40
42.60,0.34,-6.04,0.34,-6.03,6.03,6.13,5.90,6.37,6.37,6.37
43.03,0.34,-6.02,0.35,-6.00,6.00,6.13,5.81,6.34,6.34,6.35
43.46,0.35,-5.97,0.35,-5.97,5.97,6.12,5.73,6.31,6.32,6.31
43.90,0.36,-5.94,0.36,-5.94,5.94,6.11,5.65,6.29,6.29,6.29
44.33,0.37,-5.90,0.36,-5.90,5.90,6.10,5.58,6.27,6.27,6.26
44.78,0.38,-5.87,0.37,-5.87,5.87,6.09,5.51,6.24,6.24,6.24
45.23,0.39,-5.84,0.38,-5.83,5.83,6.07,5.44,6.21,6.21,6.22
45.68,0.40,-5.78,0.39,-5.78,5.78,6.05,5.38,6.18,6.17,6.17
46.13,0.41,-5.74,0.40,-5.74,5.74,6.03,5.32,6.14,6.14,6.14
46.60,0.42,-5.69,0.41,-5.69,5.69,6.00,5.27,6.11,6.10,6.10
47.06,0.42,-5.66,0.42,-5.64,5.64,5.97,5.22,6.06,6.06,6.07
47.53,0.43,-5.61,0.43,-5.59,5.59,5.94,5.17,6.01,6.02,6.03
48.01,0.44,-5.55,0.45,-5.54,5.54,5.90,5.13,5.97,5.98,5.98
48.49,0.46,-5.49,0.46,-5.48,5.48,5.85,5.09,5.94,5.94,5.94
48.97,0.48,-5.42,0.48,-5.43,5.43,5.80,5.06,5.90,5.90,5.89
49.46,0.49,-5.38,0.49,-5.37,5.37,5.75,5.02,5.85,5.86,5.86
49.96,0.51,-5.30,0.51,-5.31,5.31,5.69,4.99,5.82,5.82,5.80
50.46,0.53,-5.25,0.52,-5.25,5.25,5.62,4.96,5.78,5.77,5.77
50.96,0.55,-5.19,0.54,-5.19,5.19,5.55,4.94,5.74,5.73,5.73
51.47,0.56,-5.14,0.56,-5.13,5.13,5.48,4.91,5.69,5.69,5.69
51.99,0.58,-5.07,0.57,-5.07,5.07,5.40,4.89,5.65,5.65,5.64
52.51,0.60,-5.02,0.59,-5.02,5.02,5.32,4.87,5.61,5.61,5.61
53.03,0.61,-4.98,0.61,-4.96,4.96,5.24,4.86,5.56,5.57,5.58
53.56,0.63,-4.91,0.62,-4.90,4.90,5.15,4.84,5.53,5.53,5.53
54.10,0.64,-4.85,0.64,-4.85,4.85,5.06,4.82,5.48,5.49,5.48
54.64,0.65,-4.80,0.65,-4.80,4.80,4.96,4.80,5.44,5.45,5.44
55.18,0.66,-4.75,0.66,-4.75,4.75,4.87,4.79,5.40,5.41,5.40
55.74,0.67,-4.69,0.67,-4.70,4.70,4.77,4.77,5.37,5.37,5.35
56.29,0.69,-4.65,0.68,-4.65,4.65,4.67,4.75,5.34,5.33,5.33
56.86,0.70,-4.60,0.68,-4.61,4.61,4.57,4.73,5.30,5.29,5.29
57.42,0.70,-4.55,0.69,-4.56,4.56,4.47,4.71,5.26,5.25,5.24
58.00,0.70,-4.51,0.69,-4.52,4.52,4.37,4.69,5.21,5.21,5.20
58.58,0.70,-4.48,0.69,-4.47,4.47,4.26,4.67,5.17,5.16,5.17
59.16,0.70,-4.45,0.69,-4.43,4.43,4.16,4.64,5.12,5.12,5.14
59.76,0.69,-4.41,0.69,-4.38,4.38,4.06,4.61,5.07,5.07,5.09
60.35,0.69,-4.36,0.69,-4.34,4.34,3.96,4.58,5.02,5.02,5.04
60.96,0.68,-4.31,0.69,-4.29,4.29,3.86,4.54,4.96,4.97,4.98
61.57,0.68,-4.25,0.68,-4.24,4.24,3.76,4.50,4.91,4.92,4.92
62.18,0.68,-4.19,0.68,-4.19,4.19,3.66,4.46,4.86,4.87,4.86
62.80,0.68,-4.13,0.68,-4.14,4.14,3.57,4.41,4.81,4.82,4.80
63.43,0.68,-4.08,0.68,-4.09,4.09,3.47,4.36,4.76,4.76,4.75
64.07,0.68,-4.03,0.68,-4.03,4.03,3.38,4.31,4.71,4.71,4.70
64.71,0.68,-3.98,0.67,-3.98,3.98,3.28,4.25,4.65,4.65,4.65
65.35,0.68,-3.92,0.67,-3.92,3.92,3.19,4.19,4.60,4.60,4.59
66.01,0.68,-3.87,0.67,-3.87,3.87,3.10,4.12,4.54,4.54,4.54
66.67,0.68,-3.83,0.67,-3.81,3.81,3.02,4.06,4.49,4.49,4.50
67.33,0.68,-3.76,0.67,-3.76,3.76,2.93,3.99,4.43,4.43,4.43
68.01,0.68,-3.71,0.68,-3.70,3.70,2.85,3.91,4.38,4.38,4.38
68.69,0.68,-3.66,0.68,-3.65,3.65,2.77,3.84,4.32,4.32,4.33
69.37,0.68,-3.61,0.68,-3.59,3.59,2.68,3.76,4.27,4.27,4.28
70.07,0.68,-3.55,0.68,-3.54,3.54,2.61,3.68,4.21,4.21,4.22
70.77,0.68,-3.48,0.68,-3.48,3.48,2.53,3.59,4.15,4.15,4.15
71.48,0.68,-3.43,0.68,-3.42,3.42,2.45,3.51,4.10,4.10,4.10
72.19,0.68,-3.37,0.68,-3.36,3.36,2.38,3.43,4.04,4.04,4.04
72.91,0.68,-3.30,0.68,-3.31,3.31,2.31,3.34,3.98,3.98,3.97
73.64,0.68,-3.25,0.67,-3.25,3.25,2.24,3.26,3.93,3.93,3.92
74.38,0.68,-3.19,0.67,-3.20,3.20,2.17,3.17,3.87,3.87,3.86
75.12,0.68,-3.14,0.67,-3.15,3.15,2.10,3.08,3.82,3.82,3.81
75.87,0.68,-3.09,0.67,-3.10,3.10,2.04,3.00,3.77,3.76,3.76
76.63,0.67,-3.04,0.66,-3.05,3.05,1.98,2.91,3.71,3.71,3.70
77.40,0.67,-3.00,0.66,-3.00,3.00,1.91,2.82,3.66,3.66,3.66
78.17,0.67,-2.94,0.66,-2.95,2.95,1.85,2.74,3.62,3.61,3.60
78.95,0.66,-2.91,0.66,-2.90,2.90,1.79,2.65,3.56,3.56,3.56
79.74,0.66,-2.86,0.66,-2.85,2.85,1.74,2.57,3.50,3.51,3.51
80.54,0.66,-2.81,0.66,-2.80,2.80,1.68,2.49,3.45,3.46,3.46
81.35,0.66,-2.75,0.67,-2.74,2.74,1.62,2.40,3.40,3.41,3.40
82.16,0.67,-2.71,0.68,-2.68,2.68,1.57,2.32,3.35,3.36,3.37
82.98,0.68,-2.64,0.69,-2.62,2.62,1.52,2.24,3.29,3.31,3.31
83.81,0.70,-2.57,0.70,-2.55,2.55,1.47,2.17,3.25,3.25,3.26
84.65,0.72,-2.49,0.72,-2.48,2.48,1.41,2.09,3.19,3.20,3.20
85.50,0.74,-2.41,0.74,-2.40,2.40,1.37,2.01,3.14,3.15,3.14
86.35,0.77,-2.33,0.77,-2.32,2.32,1.32,1.94,3.09,3.09,3.09
87.22,0.80,-2.25,0.80,-2.24,2.24,1.27,1.86,3.04,3.04,3.04
88.09,0.82,-2.17,0.82,-2.16,2.16,1.22,1.79,2.97,2.98,2.98
88.97,0.86,-2.07,0.85,-2.07,2.07,1.18,1.72,2.93,2.93,2.92
89.86,0.89,-1.99,0.88,-1.99,1.99,1.13,1.65,2.87,2.87,2.87
90.76,0.91,-1.91,0.91,-1.90,1.90,1.09,1.58,2.81,2.81,2.81
91.66,0.94,-1.81,0.93,-1.82,1.82,1.04,1.52,2.75,2.75,2.74
92.58,0.97,-1.73,0.95,-1.74,1.74,1.00,1.45,2.70,2.69,2.69
93.51,0.99,-1.66,0.97,-1.66,1.66,0.96,1.38,2.64,2.63,2.64
94.44,1.00,-1.59,0.98,-1.58,1.58,0.92,1.32,2.58,2.57,2.58
95.39,1.01,-1.51,0.99,-1.51,1.51,0.88,1.26,2.52,2.51,2.51
96.34,1.02,-1.43,1.00,-1.44,1.44,0.84,1.20,2.46,2.44,2.44
97.30,1.02,-1.37,1.01,-1.38,1.38,0.80,1.14,2.39,2.38,2.38
98.28,1.02,-1.30,1.01,-1.31,1.31,0.76,1.08,2.33,2.32,2.31
99.26,1.01,-1.25,1.01,-1.25,1.25,0.72,1.02,2.26,2.26,2.25
100.25,1.00,-1.20,1.01,-1.19,1.19,0.68,0.96,2.19,2.20,2.19
101.25,1.00,-1.15,1.01,-1.13,1.13,0.65,0.91,2.13,2.14,2.14
102.27,1.00,-1.09,1.00,-1.08,1.08,0.61,0.85,2.07,2.08,2.08
103.29,1.00,-1.03,1.00,-1.02,1.02,0.57,0.80,2.02,2.03,2.02
104.32,1.00,-0.98,1.00,-0.97,0.97,0.54,0.74,1.97,1.97,1.97
105.37,1.00,-0.92,1.00,-0.92,0.92,0.50,0.69,1.91,1.91,1.91
106.42,1.00,-0.87,1.00,-0.86,0.86,0.47,0.64,1.86,1.86,1.86
107.48,1.00,-0.81,0.99,-0.81,0.81,0.43,0.59,1.80,1.80,1.80
108.56,1.00,-0.76,0.99,-0.75,0.75,0.40,0.54,1.74,1.74,1.75
109.64,1.00,-0.70,0.99,-0.69,0.69,0.36,0.49,1.69,1.68,1.69
110.74,1.00,-0.64,0.99,-0.63,0.63,0.33,0.44,1.63,1.63,1.63
111.85,1.00,-0.58,1.00,-0.57,0.57,0.30,0.40,1.57,1.57,1.57
112.97,1.00,-0.53,1.00,-0.51,0.51,0.26,0.35,1.51,1.51,1.52
114.10,1.00,-0.47,1.00,-0.45,0.45,0.23,0.31,1.45,1.45,1.46
115.24,1.00,-0.39,1.00,-0.40,0.40,0.20,0.26,1.39,1.39,1.38
116.39,1.00,-0.33,1.00,-0.34,0.34,0.16,0.22,1.33,1.33,1.32
117.55,1.00,-0.27,1.00,-0.28,0.28,0.13,0.18,1.28,1.28,1.26
118.73,1.00,-0.21,1.00,-0.22,0.22,0.10,0.14,1.22,1.22,1.20
119.92,1.00,-0.17,1.00,-0.17,0.17,0.06,0.09,1.16,1.16,1.16
121.12,1.00,-0.12,1.00,-0.11,0.11,0.03,0.05,1.11,1.11,1.11
122.33,1.00,-0.06,1.00,-0.05,0.05,-0.00,0.02,1.05,1.05,1.05
123.55,1.00,-0.01,1.00,0.00,-0.00,-0.04,-0.02,0.99,0.99,1.00
124.79,1.00,0.04,1.00,0.06,-0.06,-0.07,-0.06,0.94,0.94,0.95
126.03,1.00,0.10,0.99,0.11,-0.11,-0.10,-0.10,0.88,0.88,0.89
127.29,1.00,0.15,0.99,0.16,-0.16,-0.14,-0.13,0.83,0.83,0.84
128.57,1.00,0.22,0.99,0.22,-0.22,-0.17,-0.17,0.78,0.78,0.77
129.85,1.00,0.27,0.99,0.27,-0.27,-0.20,-0.20,0.72,0.72,0.72
131.15,1.00,0.33,0.99,0.33,-0.33,-0.24,-0.24,0.67,0.67,0.66
132.46,1.00,0.38,1.00,0.38,-0.38,-0.27,-0.27,0.61,0.61,0.61
133.79,1.00,0.44,1.00,0.44,-0.44,-0.30,-0.31,0.55,0.56,0.55
135.12,1.00,0.49,1.00,0.50,-0.50,-0.34,-0.34,0.50,0.50,0.50
136.48,1.00,0.54,1.00,0.55,-0.55,-0.37,-0.37,0.44,0.45,0.45
137.84,1.00,0.59,1.01,0.61,-0.61,-0.41,-0.41,0.38,0.40,0.40
139.22,1.00,0.65,1.01,0.66,-0.66,-0.44,-0.44,0.33,0.35,0.34
140.61,1.01,0.70,1.01,0.71,-0.71,-0.48,-0.47,0.29,0.30,0.30
142.02,1.01,0.76,1.01,0.76,-0.76,-0.51,-0.50,0.25,0.25,0.24
143.44,1.02,0.81,1.00,0.80,-0.80,-0.55,-0.54,0.22,0.20,0.20
144.87,1.02,0.85,1.00,0.84,-0.84,-0.58,-0.57,0.18,0.16,0.16
146.32,1.02,0.90,0.98,0.87,-0.87,-0.62,-0.60,0.14,0.11,0.11
147.78,1.00,0.92,0.97,0.90,-0.90,-0.66,-0.64,0.10,0.07,0.07
149.26,0.99,0.96,0.95,0.92,-0.92,-0.69,-0.67,0.06,0.03,0.02
150.75,0.96,0.97,0.93,0.95,-0.95,-0.73,-0.70,0.01,-0.02,-0.02
152.26,0.93,0.98,0.91,0.97,-0.97,-0.77,-0.74,-0.05,-0.06,-0.06
153.78,0.89,0.98,0.89,0.99,-0.99,-0.81,-0.77,-0.11,-0.10,-0.10
155.32,0.86,0.99,0.87,1.01,-1.01,-0.85,-0.81,-0.16,-0.15,-0.14
156.88,0.82,1.00,0.85,1.04,-1.04,-0.89,-0.85,-0.22,-0.19,-0.19
158.44,0.81,1.04,0.83,1.06,-1.06,-0.93,-0.88,-0.26,-0.23,-0.24
160.03,0.80,1.07,0.82,1.10,-1.10,-0.97,-0.92,-0.30,-0.28,-0.28
161.63,0.79,1.10,0.81,1.14,-1.14,-1.01,-0.96,-0.35,-0.32,-0.32
163.24,0.80,1.16,0.82,1.19,-1.19,-1.05,-1.00,-0.39,-0.37,-0.37
164.88,0.81,1.22,0.82,1.24,-1.24,-1.09,-1.04,-0.44,-0.42,-0.42
166.53,0.82,1.28,0.84,1.30,-1.30,-1.13,-1.08,-0.49,-0.46,-0.47
168.19,0.84,1.33,0.86,1.37,-1.37,-1.17,-1.13,-0.53,-0.51,-0.50
169.87,0.88,1.43,0.88,1.44,-1.44,-1.22,-1.17,-0.56,-0.56,-0.56
171.57,0.90,1.50,0.90,1.51,-1.51,-1.26,-1.22,-0.61,-0.61,-0.61
173.29,0.94,1.58,0.92,1.57,-1.57,-1.30,-1.26,-0.64,-0.65,-0.65
175.02,0.98,1.67,0.94,1.64,-1.64,-1.35,-1.31,-0.67,-0.70,-0.70
176.77,1.00,1.74,0.96,1.71,-1.71,-1.39,-1.36,-0.71,-0.75,-0.75
178.54,1.02,1.80,0.98,1.77,-1.77,-1.44,-1.41,-0.75,-0.79,-0.79
180.32,1.03,1.87,0.99,1.83,-1.83,-1.48,-1.46,-0.80,-0.84,-0.85
182.13,1.02,1.89,1.00,1.88,-1.88,-1.53,-1.51,-0.87,-0.88,-0.88
183.95,1.01,1.93,1.01,1.94,-1.94,-1.58,-1.56,-0.93,-0.93,-0.93
185.79,1.00,1.97,1.01,1.99,-1.99,-1.62,-1.62,-0.99,-0.98,-0.98
187.65,1.00,2.01,1.01,2.03,-2.03,-1.67,-1.67,-1.04,-1.02,-1.02
189.52,1.00,2.05,1.01,2.07,-2.07,-1.72,-1.73,-1.08,-1.06,-1.06
191.42,1.00,2.09,1.01,2.11,-2.11,-1.76,-1.79,-1.12,-1.11,-1.10
193.33,1.00,2.13,1.00,2.15,-2.15,-1.81,-1.84,-1.15,-1.15,-1.14
195.27,1.00,2.18,1.00,2.18,-2.18,-1.86,-1.90,-1.19,-1.19,-1.19
197.22,1.00,2.23,1.00,2.22,-2.22,-1.91,-1.96,-1.22,-1.22,-1.24
199.19,1.00,2.26,0.99,2.26,-2.26,-1.95,-2.02,-1.26,-1.26,-1.27
201.18,1.00,2.30,0.99,2.29,-2.29,-2.00,-2.08,-1.30,-1.30,-1.31
203.19,1.00,2.33,0.99,2.33,-2.33,-2.05,-2.14,-1.33,-1.33,-1.34
205.23,1.00,2.35,0.99,2.36,-2.36,-2.09,-2.20,-1.37,-1.37,-1.36
207.28,1.00,2.38,0.99,2.39,-2.39,-2.14,-2.26,-1.40,-1.40,-1.39
209.35,1.00,2.42,0.99,2.42,-2.42,-2.18,-2.32,-1.43,-1.43,-1.43
211.44,1.00,2.45,0.99,2.45,-2.45,-2.23,-2.38,-1.46,-1.46,-1.46
213.56,1.00,2.47,0.99,2.48,-2.48,-2.27,-2.44,-1.49,-1.49,-1.48
215.69,1.00,2.50,1.00,2.51,-2.51,-2.32,-2.50,-1.51,-1.51,-1.51
217.85,1.00,2.53,1.00,2.54,-2.54,-2.36,-2.56,-1.54,-1.54,-1.54
220.03,1.00,2.56,1.00,2.56,-2.56,-2.40,-2.61,-1.57,-1.56,-1.57
222.23,1.00,2.59,1.00,2.59,-2.59,-2.44,-2.66,-1.60,-1.59,-1.60
224.45,1.00,2.60,1.01,2.62,-2.62,-2.48,-2.71,-1.62,-1.61,-1.61
226.70,1.00,2.63,1.01,2.64,-2.64,-2.52,-2.76,-1.65,-1.63,-1.64
228.96,1.01,2.65,1.01,2.67,-2.67,-2.55,-2.80,-1.66,-1.65,-1.65
231.25,1.01,2.67,1.01,2.68,-2.68,-2.59,-2.84,-1.68,-1.67,-1.67
233.57,1.02,2.70,1.01,2.70,-2.70,-2.62,-2.88,-1.68,-1.69,-1.69
235.90,1.02,2.71,1.00,2.71,-2.71,-2.65,-2.92,-1.69,-1.70,-1.70
238.26,1.02,2.74,1.00,2.71,-2.71,-2.68,-2.95,-1.70,-1.72,-1.73
240.64,1.01,2.72,0.99,2.71,-2.71,-2.70,-2.97,-1.71,-1.73,-1.72
243.05,1.00,2.73,0.97,2.71,-2.71,-2.73,-2.99,-1.71,-1.74,-1.74
245.48,0.97,2.71,0.95,2.69,-2.69,-2.75,-3.01,-1.73,-1.74,-1.75
247.93,0.94,2.69,0.93,2.68,-2.68,-2.77,-3.02,-1.74,-1.75,-1.76
250.41,0.92,2.66,0.90,2.66,-2.66,-2.78,-3.03,-1.74,-1.76,-1.75
252.92,0.87,2.62,0.87,2.63,-2.63,-2.80,-3.03,-1.77,-1.76,-1.76
255.45,0.85,2.61,0.84,2.61,-2.61,-2.81,-3.02,-1.76,-1.77,-1.77
258.00,0.81,2.57,0.81,2.58,-2.58,-2.82,-3.02,-1.77,-1.77,-1.77
260.58,0.78,2.54,0.78,2.55,-2.55,-2.82,-3.00,-1.78,-1.77,-1.77
263.19,0.75,2.51,0.75,2.53,-2.53,-2.83,-2.99,-1.78,-1.78,-1.77
265.82,0.71,2.48,0.73,2.51,-2.51,-2.83,-2.97,-1.80,-1.78,-1.78
268.48,0.69,2.46,0.71,2.49,-2.49,-2.82,-2.94,-1.80,-1.78,-1.78
271.16,0.68,2.45,0.69,2.47,-2.47,-2.82,-2.91,-1.80,-1.78,-1.78
273.87,0.66,2.43,0.68,2.46,-2.46,-2.81,-2.88,-1.81,-1.78,-1.78
276.61,0.66,2.43,0.67,2.45,-2.45,-2.80,-2.84,-1.80,-1.79,-1.78
279.38,0.66,2.45,0.66,2.45,-2.45,-2.79,-2.81,-1.80,-1.79,-1.80
282.17,0.67,2.46,0.66,2.45,-2.45,-2.77,-2.76,-1.78,-1.79,-1.80
284.99,0.67,2.45,0.66,2.45,-2.45,-2.76,-2.72,-1.78,-1.78,-1.79
287.84,0.68,2.45,0.67,2.45,-2.45,-2.74,-2.68,-1.78,-1.78,-1.78
290.72,0.68,2.46,0.67,2.45,-2.45,-2.71,-2.63,-1.78,-1.78,-1.79
293.63,0.68,2.45,0.68,2.46,-2.46,-2.69,-2.58,-1.78,-1.78,-1.78
296.57,0.68,2.44,0.68,2.46,-2.46,-2.67,-2.53,-1.78,-1.77,-1.77
299.53,0.69,2.45,0.68,2.45,-2.45,-2.64,-2.49,-1.77,-1.77,-1.77
302.53,0.70,2.44,0.68,2.45,-2.45,-2.61,-2.44,-1.75,-1.76,-1.75
305.55,0.70,2.45,0.68,2.43,-2.43,-2.58,-2.39,-1.74,-1.76,-1.76
308.61,0.69,2.43,0.67,2.42,-2.42,-2.55,-2.34,-1.73,-1.75,-1.75
311.69,0.67,2.40,0.65,2.39,-2.39,-2.51,-2.29,-1.73,-1.74,-1.74
314.81,0.66,2.39,0.63,2.37,-2.37,-2.48,-2.24,-1.71,-1.73,-1.74
317.96,0.63,2.35,0.61,2.34,-2.34,-2.44,-2.19,-1.71,-1.73,-1.73
321.14,0.60,2.31,0.58,2.30,-2.30,-2.41,-2.14,-1.71,-1.72,-1.72
324.35,0.57,2.28,0.56,2.27,-2.27,-2.37,-2.10,-1.70,-1.71,-1.72
327.59,0.53,2.21,0.52,2.23,-2.23,-2.33,-2.05,-1.70,-1.70,-1.69
330.87,0.50,2.19,0.49,2.19,-2.19,-2.30,-2.00,-1.70,-1.70,-1.70
334.18,0.46,2.14,0.46,2.15,-2.15,-2.26,-1.96,-1.70,-1.69,-1.69
337.52,0.42,2.10,0.43,2.11,-2.11,-2.22,-1.92,-1.70,-1.68,-1.69
340.90,0.40,2.06,0.41,2.08,-2.08,-2.18,-1.88,-1.69,-1.67,-1.67
344.30,0.37,2.02,0.39,2.05,-2.05,-2.14,-1.84,-1.69,-1.67,-1.66
347.75,0.36,2.01,0.37,2.03,-2.03,-2.10,-1.80,-1.67,-1.66,-1.66
351.23,0.34,1.99,0.36,2.01,-2.01,-2.06,-1.76,-1.67,-1.65,-1.66
354.74,0.33,1.95,0.35,1.99,-1.99,-2.02,-1.73,-1.67,-1.64,-1.63
358.28,0.33,1.96,0.35,1.98,-1.98,-1.99,-1.69,-1.65,-1.63,-1.64
361.87,0.34,1.96,0.35,1.97,-1.97,-1.95,-1.66,-1.64,-1.63,-1.63
365.49,0.35,1.96,0.35,1.97,-1.97,-1.91,-1.63,-1.62,-1.62,-1.62
369.14,0.36,1.95,0.35,1.96,-1.96,-1.87,-1.60,-1.60,-1.61,-1.60
372.83,0.37,1.96,0.35,1.95,-1.95,-1.83,-1.57,-1.59,-1.60,-1.60
376.56,0.37,1.96,0.35,1.94,-1.94,-1.80,-1.54,-1.58,-1.59,-1.60
380.33,0.37,1.95,0.35,1.93,-1.93,-1.76,-1.51,-1.56,-1.58,-1.59
384.13,0.36,1.92,0.34,1.91,-1.91,-1.72,-1.49,-1.56,-1.57,-1.57
387.97,0.35,1.91,0.33,1.89,-1.89,-1.69,-1.47,-1.55,-1.56,-1.57
391.85,0.34,1.89,0.31,1.87,-1.87,-1.65,-1.44,-1.53,-1.55,-1.56
395.77,0.31,1.85,0.29,1.84,-1.84,-1.62,-1.42,-1.53,-1.54,-1.55
399.73,0.28,1.81,0.27,1.80,-1.80,-1.58,-1.40,-1.53,-1.53,-1.54
403.72,0.25,1.75,0.24,1.77,-1.77,-1.55,-1.38,-1.52,-1.52,-1.51
407.76,0.22,1.73,0.21,1.73,-1.73,-1.52,-1.36,-1.51,-1.52,-1.52
411.84,0.18,1.68,0.18,1.68,-1.68,-1.48,-1.35,-1.51,-1.51,-1.51
415.96,0.15,1.63,0.15,1.65,-1.65,-1.45,-1.33,-1.50,-1.50,-1.49
420.12,0.12,1.60,0.12,1.61,-1.61,-1.42,-1.32,-1.49,-1.49,-1.49
424.32,0.09,1.56,0.09,1.57,-1.57,-1.39,-1.30,-1.49,-1.48,-1.48
428.56,0.06,1.51,0.07,1.54,-1.54,-1.36,-1.29,-1.49,-1.47,-1.46
432.85,0.04,1.48,0.05,1.51,-1.51,-1.33,-1.28,-1.48,-1.46,-1.45
437.18,0.02,1.47,0.04,1.49,-1.49,-1.31,-1.26,-1.47,-1.45,-1.46
441.55,0.01,1.45,0.03,1.47,-1.47,-1.28,-1.25,-1.46,-1.44,-1.45
445.96,0.01,1.44,0.02,1.45,-1.45,-1.25,-1.24,-1.45,-1.43,-1.44
450.42,0.01,1.43,0.01,1.44,-1.44,-1.23,-1.23,-1.43,-1.42,-1.43
454.93,0.02,1.43,0.01,1.43,-1.43,-1.20,-1.22,-1.41,-1.42,-1.42
459.48,0.03,1.43,0.01,1.42,-1.42,-1.18,-1.21,-1.39,-1.41,-1.41
464.07,0.03,1.41,0.01,1.41,-1.41,-1.15,-1.20,-1.38,-1.40,-1.39
468.71,0.03,1.40,0.01,1.40,-1.40,-1.13,-1.19,-1.38,-1.39,-1.38
473.40,0.03,1.40,0.02,1.40,-1.40,-1.10,-1.18,-1.37,-1.38,-1.38
478.13,0.03,1.39,0.02,1.39,-1.39,-1.08,-1.18,-1.36,-1.37,-1.37
482.91,0.03,1.38,0.02,1.38,-1.38,-1.06,-1.17,-1.35,-1.36,-1.36
487.74,0.03,1.37,0.02,1.37,-1.37,-1.04,-1.16,-1.34,-1.35,-1.35
492.62,0.03,1.36,0.03,1.36,-1.36,-1.02,-1.15,-1.34,-1.33,-1.34
497.55,0.03,1.35,0.03,1.35,-1.35,-1.00,-1.14,-1.33,-1.32,-1.33
502.52,0.03,1.34,0.03,1.34,-1.34,-0.98,-1.14,-1.32,-1.31,-1.32
507.55,0.03,1.32,0.03,1.33,-1.33,-0.96,-1.13,-1.31,-1.30,-1.30
512.62,0.03,1.31,0.04,1.32,-1.32,-0.94,-1.12,-1.30,-1.29,-1.29
517.75,0.03,1.29,0.04,1.31,-1.31,-0.93,-1.11,-1.29,-1.28,-1.27
