frequency,raw,error,smoothed,error_smoothed,equalization,parametric_eq,fixed_band_eq,equalized_raw,equalized_smoothed,target
20.00,-4.86,-8.58,-4.85,-8.57,8.64,8.23,2.23,3.78,3.79,3.72
20.20,-4.78,-8.55,-4.79,-8.56,8.58,8.23,2.29,3.81,3.80,3.77
20.40,-4.70,-8.52,-4.71,-8.53,8.52,8.22,2.36,3.82,3.81,3.82
20.61,-4.62,-8.47,-4.63,-8.49,8.45,8.19,2.43,3.83,3.83,3.85
20.81,-4.54,-8.44,-4.54,-8.44,8.37,8.16,2.50,3.84,3.84,3.90
21.02,-4.45,-8.39,-4.43,-8.36,8.29,8.12,2.57,3.84,3.86,3.94
21.23,-4.28,-8.24,-4.29,-8.25,8.20,8.07,2.65,3.92,3.91,3.96
21.44,-4.12,-8.10,-4.12,-8.11,8.09,8.01,2.73,3.98,3.97,3.98
21.66,-3.95,-7.95,-3.94,-7.94,7.96,7.95,2.81,4.01,4.02,4.00
21.87,-3.78,-7.79,-3.78,-7.80,7.82,7.87,2.89,4.05,4.04,4.01
22.09,-3.63,-7.66,-3.64,-7.67,7.69,7.79,2.97,4.06,4.04,4.03
22.31,-3.53,-7.57,-3.52,-7.56,7.56,7.70,3.06,4.04,4.04,4.04
22.54,-3.42,-7.46,-3.40,-7.45,7.47,7.61,3.15,4.04,4.06,4.04
22.76,-3.31,-7.35,-3.30,-7.35,7.39,7.51,3.24,4.09,4.09,4.04
22.99,-3.20,-7.23,-3.23,-7.26,7.34,7.40,3.33,4.14,4.11,4.03
23.22,-3.19,-7.22,-3.18,-7.22,7.29,7.29,3.42,4.10,4.10,4.03
23.45,-3.18,-7.21,-3.18,-7.22,7.22,7.18,3.52,4.04,4.04,4.03
23.69,-3.17,-7.21,-3.18,-7.22,7.14,7.06,3.62,3.97,3.95,4.04
23.92,-3.16,-7.20,-3.12,-7.16,7.03,6.94,3.72,3.87,3.91,4.04
24.16,-3.00,-7.04,-2.98,-7.03,6.90,6.82,3.82,3.90,3.92,4.04
24.40,-2.74,-6.80,-2.76,-6.81,6.75,6.70,3.92,4.01,3.99,4.05
24.65,-2.51,-6.55,-2.50,-6.55,6.59,6.57,4.03,4.07,4.08,4.04
24.89,-2.26,-6.30,-2.28,-6.32,6.41,6.44,4.13,4.15,4.13,4.04
25.14,-2.10,-6.14,-2.11,-6.16,6.24,6.31,4.24,4.15,4.13,4.04
25.39,-2.00,-6.05,-1.98,-6.03,6.10,6.18,4.35,4.10,4.11,4.05
25.65,-1.91,-5.96,-1.89,-5.94,5.99,6.05,4.45,4.08,4.09,4.05
25.91,-1.81,-5.85,-1.82,-5.87,5.90,5.92,4.56,4.09,4.08,4.04
26.16,-1.76,-5.80,-1.77,-5.81,5.84,5.79,4.66,4.08,4.07,4.04
26.43,-1.74,-5.78,-1.74,-5.79,5.76,5.66,4.77,4.03,4.02,4.04
26.69,-1.71,-5.75,-1.72,-5.76,5.68,5.53,4.87,3.97,3.96,4.04
26.96,-1.69,-5.73,-1.65,-5.69,5.57,5.40,4.97,3.88,3.92,4.04
27.23,-1.51,-5.55,-1.50,-5.54,5.45,5.27,5.07,3.94,3.95,4.04
27.50,-1.29,-5.33,-1.30,-5.34,5.32,5.14,5.16,4.03,4.03,4.04
27.77,-1.08,-5.11,-1.08,-5.12,5.19,5.01,5.25,4.11,4.11,4.03
28.05,-0.89,-4.92,-0.92,-4.95,5.06,4.89,5.33,4.17,4.14,4.03
28.33,-0.83,-4.85,-0.82,-4.85,4.94,4.76,5.41,4.11,4.11,4.02
28.62,-0.77,-4.79,-0.76,-4.78,4.82,4.64,5.48,4.06,4.07,4.02
28.90,-0.71,-4.74,-0.71,-4.73,4.73,4.52,5.54,4.02,4.02,4.03
29.19,-0.64,-4.66,-0.64,-4.67,4.64,4.40,5.60,4.00,4.00,4.02
29.48,-0.57,-4.60,-0.57,-4.60,4.55,4.28,5.65,3.98,3.98,4.03
29.78,-0.49,-4.51,-0.49,-4.52,4.45,4.16,5.68,3.96,3.96,4.02
30.08,-0.39,-4.42,-0.37,-4.40,4.34,4.04,5.71,3.95,3.97,4.03
30.38,-0.21,-4.23,-0.21,-4.23,4.20,3.93,5.73,3.99,4.00,4.02
30.68,-0.02,-4.04,-0.03,-4.05,4.06,3.82,5.73,4.04,4.03,4.02
30.99,0.16,-3.86,0.14,-3.88,3.92,3.70,5.73,4.08,4.06,4.02
31.30,0.27,-3.74,0.28,-3.74,3.78,3.59,5.71,4.05,4.06,4.01
31.61,0.38,-3.63,0.39,-3.62,3.67,3.49,5.68,4.05,4.06,4.01
31.93,0.49,-3.52,0.48,-3.53,3.57,3.38,5.64,4.06,4.05,4.01
32.24,0.55,-3.45,0.54,-3.46,3.50,3.27,5.59,4.05,4.05,4.00
32.57,0.58,-3.42,0.59,-3.41,3.44,3.17,5.53,4.03,4.03,4.00
32.89,0.62,-3.38,0.63,-3.37,3.38,3.07,5.46,4.00,4.01,4.00
33.22,0.67,-3.32,0.66,-3.34,3.30,2.97,5.38,3.97,3.95,3.99
33.55,0.72,-3.27,0.71,-3.28,3.19,2.87,5.29,3.91,3.90,3.99
33.89,0.77,-3.21,0.81,-3.17,3.06,2.77,5.19,3.83,3.87,3.98
34.23,0.97,-3.01,0.99,-2.99,2.92,2.68,5.08,3.89,3.91,3.98
34.57,1.23,-2.74,1.23,-2.75,2.76,2.58,4.97,3.99,3.98,3.97
34.92,1.50,-2.47,1.46,-2.51,2.59,2.49,4.85,4.09,4.05,3.97
35.27,1.64,-2.32,1.63,-2.33,2.42,2.40,4.72,4.06,4.05,3.96
35.62,1.74,-2.22,1.75,-2.21,2.26,2.31,4.59,4.00,4.01,3.96
35.97,1.84,-2.12,1.85,-2.11,2.11,2.22,4.45,3.95,3.96,3.96
36.33,1.94,-2.02,1.95,-2.01,1.99,2.13,4.31,3.94,3.94,3.96
36.70,2.05,-1.90,2.05,-1.91,1.91,2.04,4.17,3.96,3.96,3.95
37.06,2.14,-1.81,2.13,-1.83,1.84,1.95,4.02,3.99,3.97,3.95
37.43,2.19,-1.77,2.20,-1.76,1.79,1.87,3.88,3.98,3.99,3.96
37.81,2.24,-1.72,2.25,-1.71,1.73,1.79,3.73,3.98,3.98,3.96
38.19,2.29,-1.66,2.28,-1.68,1.67,1.70,3.58,3.96,3.95,3.95
38.57,2.32,-1.64,2.32,-1.64,1.60,1.62,3.42,3.93,3.93,3.96
38.95,2.36,-1.61,2.39,-1.58,1.53,1.54,3.27,3.89,3.92,3.97
39.34,2.48,-1.48,2.48,-1.48,1.44,1.46,3.12,3.93,3.93,3.96
39.74,2.61,-1.35,2.60,-1.36,1.35,1.38,2.97,3.96,3.95,3.96
40.14,2.74,-1.22,2.73,-1.23,1.24,1.30,2.81,3.98,3.98,3.96
40.54,2.85,-1.11,2.85,-1.11,1.13,1.23,2.66,3.98,3.98,3.96
40.94,2.96,-0.99,2.96,-0.99,1.02,1.15,2.51,3.98,3.98,3.95
41.35,3.06,-0.89,3.06,-0.89,0.91,1.08,2.36,3.97,3.97,3.95
41.76,3.15,-0.79,3.15,-0.79,0.81,1.00,2.21,3.96,3.96,3.94
42.18,3.23,-0.71,3.23,-0.71,0.71,0.93,2.06,3.94,3.94,3.94
42.60,3.29,-0.64,3.29,-0.64,0.62,0.85,1.91,3.92,3.92,3.93
43.03,3.35,-0.57,3.36,-0.56,0.55,0.78,1.76,3.90,3.91,3.92
43.46,3.43,-0.48,3.44,-0.48,0.47,0.71,1.61,3.91,3.91,3.91
43.90,3.52,-0.37,3.51,-0.38,0.40,0.64,1.47,3.92,3.91,3.89
44.33,3.57,-0.30,3.57,-0.30,0.33,0.57,1.32,3.90,3.90,3.87
44.78,3.62,-0.23,3.62,-0.24,0.25,0.50,1.18,3.87,3.86,3.85
45.23,3.65,-0.19,3.64,-0.20,0.17,0.43,1.04,3.82,3.81,3.84
45.68,3.67,-0.16,3.68,-0.15,0.09,0.36,0.89,3.77,3.78,3.83
46.13,3.73,-0.08,3.77,-0.05,0.03,0.29,0.75,3.76,3.80,3.81
46.60,3.88,0.07,3.88,0.07,-0.04,0.22,0.61,3.84,3.84,3.81
47.06,4.02,0.23,3.95,0.16,-0.10,0.15,0.47,3.93,3.86,3.79
47.53,3.98,0.20,3.99,0.20,-0.16,0.09,0.33,3.82,3.83,3.78
48.01,3.95,0.17,4.00,0.22,-0.23,0.02,0.20,3.73,3.77,3.78
48.49,4.02,0.26,4.02,0.25,-0.30,-0.05,0.06,3.72,3.72,3.76
48.97,4.09,0.35,4.06,0.32,-0.37,-0.11,-0.07,3.72,3.69,3.74
49.46,4.13,0.41,4.13,0.40,-0.44,-0.18,-0.21,3.69,3.69,3.72
49.96,4.17,0.47,4.21,0.50,-0.51,-0.25,-0.34,3.66,3.70,3.70
50.46,4.30,0.61,4.31,0.62,-0.58,-0.31,-0.47,3.72,3.72,3.69
50.96,4.44,0.76,4.39,0.71,-0.66,-0.38,-0.60,3.78,3.73,3.68
51.47,4.45,0.79,4.45,0.78,-0.74,-0.44,-0.73,3.71,3.71,3.66
51.99,4.44,0.79,4.48,0.82,-0.82,-0.51,-0.86,3.62,3.66,3.65
52.51,4.51,0.87,4.51,0.86,-0.90,-0.57,-0.98,3.62,3.61,3.64
53.03,4.57,0.93,4.56,0.92,-0.97,-0.64,-1.10,3.60,3.59,3.64
53.56,4.63,1.01,4.64,1.01,-1.04,-0.70,-1.22,3.59,3.59,3.62
54.10,4.70,1.09,4.72,1.11,-1.11,-0.77,-1.34,3.59,3.61,3.61
54.64,4.81,1.22,4.80,1.20,-1.18,-0.83,-1.46,3.63,3.62,3.59
55.18,4.88,1.29,4.86,1.27,-1.25,-0.90,-1.57,3.63,3.61,3.59
55.74,4.88,1.31,4.90,1.33,-1.30,-0.96,-1.68,3.58,3.60,3.57
56.29,4.91,1.35,4.93,1.37,-1.35,-1.03,-1.78,3.56,3.58,3.56
56.86,4.97,1.42,4.94,1.39,-1.38,-1.09,-1.88,3.59,3.56,3.55
57.42,4.94,1.42,4.93,1.40,-1.40,-1.16,-1.98,3.54,3.53,3.52
58.00,4.88,1.37,4.91,1.40,-1.41,-1.22,-2.07,3.47,3.50,3.51
58.58,4.88,1.38,4.88,1.38,-1.41,-1.28,-2.16,3.47,3.48,3.50
59.16,4.87,1.39,4.87,1.38,-1.39,-1.35,-2.25,3.48,3.47,3.48
59.76,4.85,1.39,4.85,1.39,-1.37,-1.41,-2.32,3.48,3.48,3.46
60.35,4.80,1.38,4.80,1.38,-1.34,-1.48,-2.40,3.46,3.46,3.42
60.96,4.73,1.35,4.73,1.34,-1.30,-1.54,-2.47,3.43,3.43,3.38
61.57,4.64,1.30,4.64,1.29,-1.27,-1.60,-2.53,3.37,3.37,3.34
62.18,4.54,1.24,4.54,1.24,-1.25,-1.67,-2.58,3.29,3.30,3.30
62.80,4.45,1.20,4.46,1.20,-1.24,-1.73,-2.64,3.21,3.22,3.25
63.43,4.40,1.19,4.40,1.19,-1.24,-1.80,-2.68,3.16,3.16,3.21
64.07,4.38,1.22,4.37,1.21,-1.26,-1.86,-2.72,3.12,3.11,3.16
64.71,4.38,1.26,4.41,1.28,-1.30,-1.92,-2.76,3.08,3.10,3.12
65.35,4.45,1.37,4.47,1.39,-1.37,-1.99,-2.79,3.08,3.10,3.08
66.01,4.58,1.55,4.53,1.50,-1.46,-2.05,-2.81,3.12,3.07,3.03
66.67,4.58,1.60,4.58,1.59,-1.57,-2.11,-2.84,3.01,3.01,2.98
67.33,4.61,1.68,4.63,1.69,-1.70,-2.18,-2.85,2.91,2.93,2.93
68.01,4.66,1.77,4.69,1.80,-1.83,-2.24,-2.87,2.83,2.86,2.89
68.69,4.82,1.98,4.79,1.95,-1.97,-2.30,-2.88,2.85,2.82,2.84
69.37,4.92,2.13,4.91,2.11,-2.11,-2.36,-2.89,2.81,2.79,2.79
70.07,4.99,2.25,5.01,2.27,-2.25,-2.43,-2.89,2.74,2.76,2.74
70.77,5.10,2.41,5.09,2.40,-2.40,-2.49,-2.89,2.70,2.70,2.69
71.48,5.18,2.54,5.18,2.54,-2.54,-2.55,-2.89,2.64,2.64,2.64
72.19,5.25,2.68,5.26,2.69,-2.67,-2.61,-2.89,2.58,2.59,2.57
72.91,5.34,2.83,5.32,2.81,-2.79,-2.67,-2.89,2.55,2.53,2.51
73.64,5.37,2.91,5.37,2.91,-2.90,-2.73,-2.89,2.47,2.46,2.46
74.38,5.39,2.99,5.40,3.00,-3.00,-2.79,-2.88,2.39,2.40,2.40
75.12,5.42,3.08,5.43,3.09,-3.09,-2.85,-2.88,2.33,2.34,2.34
75.87,5.47,3.19,5.46,3.17,-3.17,-2.91,-2.87,2.30,2.29,2.28
76.63,5.48,3.25,5.48,3.25,-3.24,-2.97,-2.87,2.24,2.24,2.23
77.40,5.48,3.30,5.49,3.31,-3.30,-3.03,-2.87,2.18,2.19,2.18
78.17,5.48,3.36,5.48,3.35,-3.36,-3.09,-2.87,2.13,2.13,2.12
78.95,5.48,3.40,5.48,3.40,-3.41,-3.14,-2.87,2.07,2.07,2.08
79.74,5.48,3.45,5.48,3.45,-3.46,-3.20,-2.87,2.02,2.02,2.03
80.54,5.48,3.50,5.48,3.50,-3.50,-3.25,-2.87,1.98,1.98,1.98
81.35,5.48,3.55,5.48,3.55,-3.55,-3.31,-2.87,1.93,1.93,1.93
82.16,5.48,3.60,5.48,3.59,-3.60,-3.36,-2.88,1.89,1.89,1.88
82.98,5.48,3.64,5.48,3.64,-3.65,-3.41,-2.89,1.84,1.84,1.84
83.81,5.48,3.69,5.48,3.69,-3.70,-3.46,-2.90,1.79,1.79,1.79
84.65,5.48,3.74,5.48,3.73,-3.74,-3.51,-2.91,1.74,1.74,1.74
85.50,5.48,3.78,5.48,3.78,-3.79,-3.56,-2.92,1.70,1.70,1.70
86.35,5.48,3.83,5.49,3.84,-3.82,-3.61,-2.94,1.66,1.67,1.65
87.22,5.49,3.89,5.48,3.87,-3.86,-3.65,-2.96,1.63,1.62,1.60
88.09,5.47,3.92,5.46,3.91,-3.89,-3.70,-2.98,1.58,1.57,1.55
88.97,5.39,3.90,5.42,3.92,-3.92,-3.74,-3.00,1.47,1.50,1.49
89.86,5.39,3.95,5.37,3.93,-3.95,-3.78,-3.03,1.45,1.43,1.44
90.76,5.33,3.94,5.34,3.94,-3.97,-3.82,-3.06,1.37,1.37,1.39
91.66,5.30,3.96,5.31,3.98,-3.98,-3.86,-3.09,1.32,1.33,1.34
92.58,5.29,4.01,5.29,4.00,-4.00,-3.89,-3.12,1.29,1.29,1.28
93.51,5.27,4.04,5.26,4.03,-4.01,-3.92,-3.16,1.26,1.25,1.23
94.44,5.22,4.03,5.22,4.03,-4.02,-3.96,-3.19,1.20,1.20,1.19
95.39,5.16,4.02,5.16,4.02,-4.02,-3.99,-3.23,1.15,1.15,1.14
96.34,5.09,4.00,5.12,4.03,-4.01,-4.02,-3.28,1.08,1.11,1.09
97.30,5.08,4.04,5.07,4.02,-4.01,-4.04,-3.32,1.08,1.06,1.04
98.28,5.03,4.04,5.00,4.00,-4.00,-4.07,-3.37,1.03,1.00,0.99
99.26,4.91,3.96,4.93,3.98,-4.00,-4.09,-3.41,0.91,0.93,0.95
100.25,4.84,3.94,4.86,3.96,-4.00,-4.11,-3.46,0.84,0.86,0.90
101.25,4.82,3.97,4.82,3.96,-4.00,-4.12,-3.51,0.82,0.82,0.85
102.27,4.81,4.01,4.81,4.00,-4.00,-4.14,-3.57,0.81,0.81,0.80
103.29,4.79,4.04,4.80,4.04,-4.00,-4.15,-3.62,0.79,0.80,0.75
104.32,4.77,4.06,4.76,4.04,-4.00,-4.16,-3.67,0.77,0.75,0.71
105.37,4.70,4.04,4.68,4.02,-4.00,-4.17,-3.72,0.70,0.68,0.66
106.42,4.57,3.96,4.59,3.98,-4.00,-4.18,-3.78,0.57,0.60,0.61
107.48,4.50,3.95,4.53,3.97,-3.99,-4.18,-3.83,0.51,0.54,0.55
108.56,4.48,3.98,4.48,3.98,-3.98,-4.19,-3.88,0.50,0.50,0.50
109.64,4.46,4.01,4.42,3.97,-3.96,-4.19,-3.94,0.50,0.46,0.45
110.74,4.35,3.96,4.35,3.95,-3.95,-4.19,-3.98,0.40,0.40,0.39
111.85,4.24,3.89,4.27,3.93,-3.94,-4.18,-4.03,0.30,0.33,0.35
112.97,4.21,3.92,4.22,3.93,-3.94,-4.17,-4.08,0.27,0.28,0.29
114.10,4.20,3.96,4.19,3.95,-3.94,-4.17,-4.12,0.26,0.25,0.24
115.24,4.18,3.99,4.15,3.95,-3.94,-4.16,-4.16,0.24,0.20,0.19
116.39,4.07,3.93,4.09,3.94,-3.95,-4.14,-4.20,0.13,0.14,0.14
117.55,4.01,3.91,4.04,3.94,-3.95,-4.13,-4.23,0.06,0.09,0.10
118.73,4.01,3.95,4.01,3.95,-3.95,-4.12,-4.26,0.06,0.06,0.06
119.92,4.02,3.99,3.99,3.96,-3.95,-4.10,-4.29,0.07,0.04,0.03
121.12,3.96,3.97,3.95,3.96,-3.94,-4.08,-4.31,0.02,0.01,-0.01
122.33,3.88,3.92,3.91,3.94,-3.93,-4.06,-4.32,-0.05,-0.03,-0.04
123.55,3.84,3.91,3.85,3.92,-3.92,-4.04,-4.33,-0.08,-0.07,-0.07
124.79,3.83,3.93,3.81,3.90,-3.90,-4.01,-4.34,-0.07,-0.10,-0.10
126.03,3.76,3.89,3.77,3.89,-3.89,-3.99,-4.34,-0.13,-0.12,-0.13
127.29,3.70,3.85,3.71,3.86,-3.87,-3.96,-4.34,-0.17,-0.16,-0.15
128.57,3.66,3.85,3.65,3.83,-3.85,-3.93,-4.33,-0.19,-0.20,-0.19
129.85,3.59,3.81,3.61,3.82,-3.83,-3.90,-4.31,-0.24,-0.22,-0.22
131.15,3.57,3.82,3.57,3.82,-3.81,-3.87,-4.29,-0.24,-0.24,-0.25
132.46,3.53,3.81,3.53,3.81,-3.79,-3.84,-4.27,-0.26,-0.27,-0.28
133.79,3.49,3.80,3.49,3.79,-3.78,-3.81,-4.24,-0.29,-0.29,-0.31
135.12,3.43,3.77,3.43,3.76,-3.77,-3.78,-4.21,-0.34,-0.34,-0.34
136.48,3.37,3.73,3.37,3.73,-3.76,-3.74,-4.18,-0.38,-0.39,-0.36
137.84,3.30,3.70,3.33,3.72,-3.74,-3.71,-4.14,-0.44,-0.41,-0.40
139.22,3.29,3.72,3.30,3.72,-3.71,-3.68,-4.10,-0.42,-0.42,-0.43
140.61,3.30,3.76,3.26,3.71,-3.68,-3.64,-4.05,-0.38,-0.42,-0.46
142.02,3.19,3.67,3.22,3.69,-3.65,-3.61,-4.01,-0.46,-0.44,-0.48
143.44,3.13,3.64,3.14,3.65,-3.63,-3.57,-3.96,-0.50,-0.49,-0.51
144.87,3.07,3.62,3.04,3.58,-3.61,-3.53,-3.91,-0.54,-0.57,-0.55
146.32,2.95,3.54,2.97,3.55,-3.59,-3.50,-3.87,-0.64,-0.62,-0.59
147.78,2.89,3.51,2.92,3.54,-3.58,-3.46,-3.82,-0.69,-0.66,-0.62
149.26,2.89,3.56,2.89,3.56,-3.57,-3.42,-3.77,-0.68,-0.69,-0.67
150.75,2.89,3.62,2.85,3.58,-3.58,-3.39,-3.72,-0.69,-0.73,-0.73
152.26,2.80,3.60,2.80,3.60,-3.59,-3.35,-3.67,-0.79,-0.79,-0.80
153.78,2.70,3.57,2.75,3.61,-3.60,-3.31,-3.62,-0.90,-0.85,-0.87
155.32,2.69,3.63,2.68,3.62,-3.61,-3.28,-3.57,-0.92,-0.93,-0.94
156.88,2.65,3.67,2.61,3.63,-3.61,-3.24,-3.53,-0.95,-0.99,-1.02
158.44,2.50,3.60,2.53,3.63,-3.59,-3.21,-3.49,-1.09,-1.07,-1.10
160.03,2.42,3.60,2.42,3.60,-3.58,-3.17,-3.44,-1.16,-1.16,-1.18
161.63,2.32,3.57,2.31,3.56,-3.57,-3.14,-3.40,-1.25,-1.26,-1.25
163.24,2.23,3.54,2.22,3.53,-3.56,-3.11,-3.36,-1.33,-1.34,-1.31
164.88,2.12,3.48,2.14,3.50,-3.55,-3.07,-3.33,-1.43,-1.41,-1.36
166.53,2.09,3.50,2.09,3.50,-3.54,-3.04,-3.29,-1.45,-1.45,-1.41
168.19,2.07,3.52,2.07,3.52,-3.53,-3.01,-3.26,-1.46,-1.45,-1.45
169.87,2.07,3.56,2.07,3.55,-3.51,-2.98,-3.23,-1.44,-1.45,-1.49
171.57,2.05,3.56,2.04,3.54,-3.49,-2.95,-3.20,-1.44,-1.46,-1.51
173.29,1.98,3.50,1.99,3.51,-3.47,-2.92,-3.18,-1.49,-1.48,-1.52
175.02,1.91,3.44,1.91,3.44,-3.44,-2.90,-3.15,-1.53,-1.52,-1.53
176.77,1.85,3.39,1.84,3.38,-3.39,-2.87,-3.13,-1.54,-1.55,-1.54
178.54,1.76,3.31,1.79,3.33,-3.34,-2.85,-3.12,-1.58,-1.55,-1.55
180.32,1.75,3.29,1.74,3.28,-3.28,-2.83,-3.10,-1.53,-1.55,-1.54
182.13,1.71,3.24,1.68,3.21,-3.23,-2.80,-3.09,-1.51,-1.55,-1.53
183.95,1.60,3.14,1.64,3.17,-3.17,-2.79,-3.08,-1.57,-1.53,-1.54
185.79,1.57,3.11,1.58,3.12,-3.13,-2.77,-3.07,-1.56,-1.55,-1.54
187.65,1.57,3.13,1.52,3.08,-3.09,-2.76,-3.06,-1.52,-1.57,-1.56
189.52,1.46,3.03,1.49,3.06,-3.05,-2.74,-3.06,-1.59,-1.56,-1.57
191.42,1.42,3.01,1.44,3.03,-3.02,-2.73,-3.06,-1.60,-1.58,-1.59
193.33,1.41,3.02,1.38,2.99,-2.98,-2.73,-3.06,-1.57,-1.60,-1.61
195.27,1.33,2.96,1.34,2.96,-2.95,-2.72,-3.06,-1.62,-1.62,-1.63
197.22,1.27,2.92,1.29,2.93,-2.92,-2.72,-3.07,-1.65,-1.64,-1.65
199.19,1.23,2.90,1.23,2.89,-2.89,-2.72,-3.07,-1.66,-1.67,-1.67
201.18,1.19,2.88,1.18,2.86,-2.87,-2.73,-3.08,-1.67,-1.69,-1.69
203.19,1.12,2.83,1.13,2.84,-2.84,-2.74,-3.09,-1.72,-1.71,-1.71
205.23,1.08,2.81,1.10,2.82,-2.83,-2.75,-3.10,-1.74,-1.73,-1.73
207.28,1.08,2.82,1.07,2.81,-2.82,-2.77,-3.11,-1.73,-1.75,-1.74
209.35,1.06,2.82,1.03,2.80,-2.81,-2.80,-3.12,-1.75,-1.77,-1.76
211.44,1.00,2.79,1.02,2.80,-2.80,-2.82,-3.13,-1.80,-1.78,-1.79
213.56,0.98,2.78,1.03,2.82,-2.81,-2.85,-3.14,-1.83,-1.78,-1.80
215.69,1.07,2.88,1.04,2.84,-2.81,-2.89,-3.15,-1.74,-1.78,-1.81
217.85,1.08,2.90,1.03,2.85,-2.83,-2.93,-3.17,-1.75,-1.80,-1.82
220.03,0.99,2.82,1.02,2.86,-2.86,-2.98,-3.18,-1.87,-1.84,-1.83
222.23,0.99,2.85,1.03,2.87,-2.91,-3.03,-3.19,-1.92,-1.88,-1.86
224.45,1.09,2.94,1.08,2.93,-2.98,-3.08,-3.19,-1.89,-1.90,-1.85
226.70,1.20,3.05,1.16,3.01,-3.05,-3.14,-3.20,-1.85,-1.89,-1.85
228.96,1.26,3.10,1.26,3.09,-3.12,-3.20,-3.21,-1.86,-1.86,-1.84
231.25,1.31,3.14,1.39,3.22,-3.19,-3.26,-3.21,-1.87,-1.79,-1.83
233.57,1.53,3.35,1.51,3.33,-3.26,-3.31,-3.21,-1.73,-1.75,-1.82
235.90,1.70,3.51,1.60,3.41,-3.34,-3.36,-3.21,-1.64,-1.74,-1.81
238.26,1.60,3.40,1.64,3.43,-3.42,-3.41,-3.20,-1.82,-1.78,-1.80
240.64,1.61,3.38,1.64,3.41,-3.49,-3.44,-3.19,-1.88,-1.85,-1.77
243.05,1.68,3.42,1.69,3.43,-3.54,-3.46,-3.18,-1.86,-1.85,-1.74
245.48,1.79,3.51,1.82,3.53,-3.57,-3.47,-3.16,-1.78,-1.75,-1.72
247.93,1.98,3.67,1.95,3.64,-3.58,-3.46,-3.14,-1.60,-1.63,-1.69
250.41,2.02,3.69,2.01,3.68,-3.57,-3.43,-3.12,-1.55,-1.56,-1.67
252.92,2.02,3.66,1.98,3.62,-3.54,-3.39,-3.09,-1.52,-1.56,-1.64
255.45,1.87,3.49,1.90,3.51,-3.50,-3.33,-3.06,-1.62,-1.60,-1.62
258.00,1.76,3.36,1.81,3.40,-3.42,-3.26,-3.03,-1.66,-1.62,-1.60
260.58,1.75,3.33,1.73,3.30,-3.33,-3.17,-2.99,-1.57,-1.60,-1.58
263.19,1.67,3.22,1.65,3.20,-3.21,-3.07,-2.95,-1.54,-1.56,-1.55
265.82,1.56,3.09,1.54,3.07,-3.09,-2.97,-2.90,-1.53,-1.55,-1.53
268.48,1.40,2.91,1.44,2.95,-2.98,-2.86,-2.86,-1.58,-1.54,-1.51
271.16,1.33,2.81,1.37,2.85,-2.87,-2.75,-2.80,-1.54,-1.50,-1.48
273.87,1.37,2.83,1.30,2.75,-2.76,-2.64,-2.75,-1.39,-1.46,-1.46
276.61,1.25,2.68,1.25,2.68,-2.66,-2.53,-2.69,-1.41,-1.41,-1.43
279.38,1.13,2.53,1.20,2.60,-2.55,-2.42,-2.63,-1.42,-1.35,-1.40
282.17,1.15,2.53,1.11,2.48,-2.46,-2.32,-2.57,-1.31,-1.35,-1.38
284.99,1.07,2.41,1.00,2.35,-2.37,-2.22,-2.51,-1.30,-1.37,-1.34
287.84,0.86,2.18,0.92,2.24,-2.28,-2.13,-2.44,-1.41,-1.35,-1.32
290.72,0.80,2.09,0.88,2.16,-2.18,-2.04,-2.38,-1.38,-1.30,-1.29
293.63,0.90,2.16,0.83,2.09,-2.09,-1.95,-2.31,-1.19,-1.25,-1.26
296.57,0.88,2.11,0.81,2.04,-2.00,-1.87,-2.24,-1.12,-1.19,-1.23
299.53,0.68,1.88,0.77,1.97,-1.93,-1.80,-2.17,-1.25,-1.16,-1.20
302.53,0.69,1.87,0.68,1.85,-1.88,-1.73,-2.10,-1.19,-1.20,-1.18
305.55,0.67,1.81,0.62,1.76,-1.83,-1.66,-2.03,-1.15,-1.21,-1.14
308.61,0.56,1.68,0.63,1.74,-1.77,-1.60,-1.96,-1.21,-1.14,-1.12
311.69,0.61,1.70,0.63,1.72,-1.71,-1.54,-1.89,-1.10,-1.08,-1.09
314.81,0.69,1.76,0.64,1.71,-1.65,-1.48,-1.82,-0.96,-1.01,-1.07
317.96,0.63,1.68,0.61,1.66,-1.60,-1.43,-1.75,-0.97,-0.99,-1.05
321.14,0.53,1.57,0.52,1.56,-1.55,-1.38,-1.68,-1.02,-1.03,-1.04
324.35,0.39,1.41,0.44,1.46,-1.50,-1.33,-1.61,-1.11,-1.06,-1.02
327.59,0.38,1.39,0.40,1.40,-1.44,-1.28,-1.54,-1.06,-1.05,-1.01
330.87,0.42,1.42,0.38,1.37,-1.38,-1.24,-1.48,-0.96,-1.00,-1.00
334.18,0.36,1.34,0.36,1.34,-1.32,-1.20,-1.41,-0.96,-0.96,-0.98
337.52,0.31,1.28,0.33,1.29,-1.26,-1.16,-1.34,-0.95,-0.94,-0.97
340.90,0.25,1.21,0.26,1.21,-1.21,-1.13,-1.28,-0.96,-0.95,-0.96
344.30,0.23,1.18,0.19,1.14,-1.15,-1.09,-1.21,-0.92,-0.96,-0.95
347.75,0.11,1.06,0.16,1.11,-1.10,-1.06,-1.15,-0.99,-0.94,-0.95
351.23,0.10,1.04,0.13,1.07,-1.05,-1.03,-1.08,-0.95,-0.92,-0.94
354.74,0.16,1.11,0.06,1.00,-1.01,-1.00,-1.02,-0.84,-0.95,-0.95
358.28,-0.03,0.91,-0.01,0.93,-0.96,-0.97,-0.96,-0.99,-0.97,-0.94
361.87,-0.13,0.81,-0.06,0.88,-0.92,-0.94,-0.90,-1.05,-0.98,-0.94
365.49,-0.08,0.85,-0.06,0.87,-0.88,-0.91,-0.84,-0.96,-0.94,-0.93
369.14,0.00,0.94,-0.06,0.88,-0.83,-0.89,-0.78,-0.83,-0.88,-0.94
372.83,-0.03,0.91,-0.09,0.85,-0.78,-0.87,-0.72,-0.81,-0.87,-0.94
376.56,-0.24,0.71,-0.16,0.78,-0.74,-0.84,-0.66,-0.98,-0.90,-0.95
380.33,-0.26,0.68,-0.26,0.68,-0.72,-0.82,-0.60,-0.98,-0.98,-0.94
384.13,-0.27,0.67,-0.33,0.61,-0.70,-0.80,-0.54,-0.97,-1.03,-0.94
387.97,-0.39,0.56,-0.35,0.60,-0.67,-0.78,-0.49,-1.06,-1.02,-0.95
391.85,-0.37,0.59,-0.34,0.61,-0.64,-0.76,-0.43,-1.01,-0.97,-0.96
395.77,-0.30,0.65,-0.29,0.66,-0.60,-0.74,-0.38,-0.90,-0.89,-0.95
399.73,-0.22,0.74,-0.28,0.68,-0.57,-0.72,-0.33,-0.79,-0.85,-0.96
403.72,-0.30,0.66,-0.36,0.60,-0.54,-0.70,-0.27,-0.84,-0.90,-0.96
407.76,-0.55,0.43,-0.47,0.50,-0.51,-0.68,-0.22,-1.06,-0.98,-0.98
411.84,-0.60,0.38,-0.54,0.43,-0.48,-0.67,-0.17,-1.08,-1.02,-0.98
415.96,-0.54,0.44,-0.58,0.40,-0.45,-0.65,-0.12,-0.99,-1.02,-0.98
420.12,-0.52,0.46,-0.59,0.39,-0.41,-0.63,-0.07,-0.93,-1.00,-0.98
424.32,-0.66,0.32,-0.63,0.35,-0.37,-0.62,-0.03,-1.03,-1.00,-0.98
428.56,-0.70,0.27,-0.63,0.34,-0.34,-0.60,0.02,-1.04,-0.98,-0.97
432.85,-0.61,0.35,-0.59,0.37,-0.32,-0.59,0.06,-0.93,-0.92,-0.96
437.18,-0.48,0.47,-0.57,0.37,-0.31,-0.57,0.10,-0.79,-0.88,-0.95
441.55,-0.55,0.36,-0.59,0.32,-0.30,-0.56,0.15,-0.85,-0.89,-0.91
445.96,-0.75,0.13,-0.64,0.24,-0.28,-0.55,0.18,-1.03,-0.92,-0.88
450.42,-0.66,0.19,-0.65,0.19,-0.25,-0.53,0.22,-0.90,-0.90,-0.85
454.93,-0.58,0.22,-0.60,0.20,-0.20,-0.52,0.26,-0.78,-0.80,-0.80
459.48,-0.51,0.25,-0.54,0.21,-0.16,-0.51,0.29,-0.67,-0.70,-0.76
464.07,-0.52,0.19,-0.54,0.17,-0.12,-0.50,0.32,-0.63,-0.65,-0.71
468.71,-0.61,0.04,-0.55,0.11,-0.09,-0.49,0.35,-0.70,-0.64,-0.65
473.40,-0.55,0.06,-0.58,0.02,-0.07,-0.47,0.38,-0.61,-0.65,-0.61
478.13,-0.56,-0.01,-0.60,-0.05,-0.04,-0.46,0.40,-0.60,-0.64,-0.55
482.91,-0.62,-0.11,-0.53,-0.03,-0.01,-0.45,0.42,-0.63,-0.54,-0.51
487.74,-0.48,-0.01,-0.44,0.03,0.02,-0.44,0.44,-0.46,-0.42,-0.47
492.62,-0.28,0.14,-0.38,0.05,0.03,-0.43,0.46,-0.25,-0.35,-0.42
497.55,-0.31,0.09,-0.39,0.00,0.02,-0.42,0.47,-0.29,-0.37,-0.40
502.52,-0.55,-0.18,-0.46,-0.09,0.02,-0.41,0.48,-0.53,-0.44,-0.37
