frequency,raw,error,smoothed,error_smoothed,equalization,parametric_eq,fixed_band_eq,equalized_raw,equalized_smoothed,target
20.00,1.65,-2.43,1.63,-2.45,2.45,2.47,1.24,4.10,4.08,4.08
20.20,1.59,-2.48,1.58,-2.49,2.49,2.48,1.28,4.08,4.07,4.07
20.40,1.54,-2.52,1.54,-2.52,2.52,2.49,1.32,4.06,4.06,4.06
20.61,1.50,-2.55,1.49,-2.55,2.55,2.50,1.36,4.05,4.04,4.05
20.81,1.45,-2.58,1.46,-2.58,2.58,2.50,1.40,4.02,4.03,4.03
21.02,1.41,-2.61,1.42,-2.60,2.60,2.51,1.44,4.01,4.02,4.02
21.23,1.38,-2.63,1.39,-2.62,2.62,2.52,1.48,4.00,4.01,4.01
21.44,1.35,-2.67,1.36,-2.64,2.64,2.53,1.53,3.99,4.00,4.02
21.66,1.32,-2.68,1.34,-2.65,2.65,2.54,1.57,3.97,3.99,4.00
21.87,1.30,-2.70,1.32,-2.67,2.67,2.55,1.62,3.96,3.98,4.00
22.09,1.28,-2.70,1.30,-2.67,2.67,2.55,1.67,3.95,3.98,3.98
22.31,1.27,-2.70,1.29,-2.68,2.68,2.56,1.72,3.95,3.97,3.97
22.54,1.27,-2.69,1.28,-2.68,2.68,2.57,1.77,3.95,3.96,3.96
22.76,1.28,-2.68,1.28,-2.68,2.68,2.58,1.82,3.96,3.96,3.96
22.99,1.29,-2.66,1.28,-2.67,2.67,2.59,1.88,3.96,3.95,3.95
23.22,1.30,-2.64,1.28,-2.66,2.66,2.60,1.93,3.96,3.95,3.94
23.45,1.30,-2.65,1.29,-2.65,2.65,2.61,1.99,3.95,3.94,3.95
23.69,1.30,-2.64,1.30,-2.64,2.64,2.62,2.05,3.94,3.94,3.94
23.92,1.30,-2.63,1.30,-2.63,2.63,2.62,2.10,3.93,3.93,3.93
24.16,1.30,-2.64,1.31,-2.62,2.62,2.63,2.16,3.92,3.93,3.94
24.40,1.30,-2.64,1.31,-2.61,2.61,2.64,2.23,3.91,3.93,3.94
24.65,1.31,-2.62,1.32,-2.61,2.61,2.65,2.29,3.92,3.93,3.93
24.89,1.32,-2.61,1.31,-2.61,2.61,2.66,2.35,3.93,3.92,3.93
25.14,1.32,-2.60,1.31,-2.61,2.61,2.67,2.41,3.93,3.92,3.92
25.39,1.32,-2.60,1.30,-2.62,2.62,2.68,2.48,3.94,3.92,3.92
25.65,1.31,-2.61,1.29,-2.63,2.63,2.69,2.54,3.94,3.92,3.92
25.91,1.29,-2.63,1.28,-2.64,2.64,2.70,2.60,3.93,3.92,3.92
26.16,1.27,-2.66,1.26,-2.66,2.66,2.71,2.67,3.93,3.92,3.93
26.43,1.25,-2.67,1.24,-2.68,2.68,2.72,2.73,3.93,3.92,3.92
26.69,1.22,-2.70,1.22,-2.70,2.70,2.73,2.79,3.92,3.92,3.92
26.96,1.19,-2.73,1.19,-2.73,2.73,2.74,2.85,3.92,3.92,3.92
27.23,1.16,-2.76,1.16,-2.76,2.76,2.75,2.91,3.92,3.92,3.92
27.50,1.13,-2.79,1.13,-2.79,2.79,2.76,2.97,3.92,3.92,3.92
27.77,1.10,-2.83,1.10,-2.83,2.83,2.77,3.03,3.93,3.92,3.93
28.05,1.07,-2.85,1.07,-2.86,2.86,2.78,3.09,3.93,3.93,3.92
28.33,1.04,-2.89,1.04,-2.88,2.88,2.79,3.14,3.92,3.93,3.93
28.62,1.01,-2.92,1.02,-2.90,2.90,2.80,3.19,3.91,3.93,3.93
28.90,0.99,-2.95,1.01,-2.92,2.92,2.81,3.24,3.91,3.93,3.94
29.19,0.97,-2.97,0.99,-2.93,2.93,2.82,3.28,3.90,3.93,3.94
29.48,0.96,-2.97,0.99,-2.94,2.94,2.83,3.32,3.90,3.93,3.93
29.78,0.95,-2.98,0.98,-2.94,2.94,2.84,3.36,3.89,3.92,3.93
30.08,0.95,-2.98,0.98,-2.94,2.94,2.84,3.39,3.89,3.92,3.93
30.38,0.96,-2.95,0.97,-2.94,2.94,2.85,3.42,3.90,3.92,3.91
30.68,0.98,-2.93,0.97,-2.94,2.94,2.86,3.44,3.92,3.91,3.91
30.99,0.99,-2.92,0.97,-2.94,2.94,2.87,3.46,3.93,3.91,3.91
31.30,1.00,-2.91,0.97,-2.93,2.93,2.88,3.48,3.93,3.90,3.91
31.61,0.99,-2.91,0.96,-2.93,2.93,2.89,3.49,3.92,3.89,3.90
31.93,0.98,-2.90,0.95,-2.93,2.93,2.90,3.50,3.91,3.89,3.88
32.24,0.96,-2.93,0.94,-2.94,2.94,2.91,3.50,3.90,3.88,3.89
32.57,0.94,-2.93,0.93,-2.95,2.95,2.92,3.50,3.89,3.87,3.87
32.89,0.91,-2.96,0.91,-2.96,2.96,2.93,3.49,3.87,3.87,3.87
33.22,0.89,-2.97,0.88,-2.98,2.98,2.94,3.48,3.87,3.86,3.86
33.55,0.86,-3.00,0.86,-3.00,3.00,2.95,3.46,3.86,3.85,3.86
33.89,0.82,-3.03,0.83,-3.02,3.02,2.96,3.45,3.84,3.85,3.85
34.23,0.79,-3.04,0.80,-3.04,3.04,2.96,3.43,3.83,3.84,3.83
34.57,0.76,-3.07,0.77,-3.05,3.05,2.97,3.40,3.81,3.83,3.83
34.92,0.73,-3.08,0.75,-3.07,3.07,2.98,3.38,3.80,3.82,3.81
35.27,0.71,-3.12,0.73,-3.08,3.08,2.99,3.35,3.79,3.81,3.83
35.62,0.69,-3.11,0.70,-3.09,3.09,3.00,3.32,3.78,3.80,3.80
35.97,0.68,-3.12,0.68,-3.10,3.10,3.01,3.29,3.78,3.78,3.80
36.33,0.66,-3.12,0.66,-3.11,3.11,3.01,3.26,3.77,3.77,3.78
36.70,0.65,-3.11,0.64,-3.11,3.11,3.02,3.22,3.76,3.76,3.76
37.06,0.63,-3.11,0.63,-3.11,3.11,3.03,3.19,3.74,3.74,3.74
37.43,0.61,-3.11,0.61,-3.11,3.11,3.03,3.16,3.72,3.72,3.72
37.81,0.60,-3.11,0.59,-3.11,3.11,3.04,3.12,3.71,3.70,3.71
38.19,0.59,-3.09,0.57,-3.11,3.11,3.05,3.09,3.70,3.68,3.68
38.57,0.56,-3.10,0.55,-3.11,3.11,3.05,3.06,3.67,3.66,3.66
38.95,0.53,-3.12,0.53,-3.11,3.11,3.06,3.03,3.64,3.64,3.65
39.34,0.50,-3.12,0.51,-3.11,3.11,3.06,2.99,3.61,3.62,3.62
39.74,0.48,-3.11,0.48,-3.11,3.11,3.07,2.97,3.59,3.59,3.59
40.14,0.45,-3.12,0.46,-3.12,3.12,3.07,2.94,3.57,3.57,3.57
40.54,0.43,-3.12,0.43,-3.12,3.12,3.08,2.91,3.55,3.55,3.55
40.94,0.41,-3.11,0.40,-3.13,3.13,3.08,2.89,3.54,3.53,3.52
41.35,0.38,-3.13,0.37,-3.13,3.13,3.09,2.86,3.51,3.50,3.51
41.76,0.35,-3.13,0.34,-3.14,3.14,3.09,2.84,3.49,3.48,3.48
42.18,0.32,-3.15,0.32,-3.14,3.14,3.09,2.82,3.46,3.46,3.47
42.60,0.28,-3.16,0.29,-3.14,3.14,3.09,2.81,3.42,3.43,3.44
43.03,0.25,-3.17,0.27,-3.14,3.14,3.10,2.79,3.39,3.41,3.42
43.46,0.23,-3.15,0.24,-3.15,3.15,3.10,2.78,3.38,3.39,3.38
43.90,0.20,-3.16,0.21,-3.15,3.15,3.10,2.77,3.35,3.36,3.36
44.33,0.18,-3.15,0.19,-3.15,3.15,3.10,2.76,3.33,3.33,3.33
44.78,0.16,-3.15,0.16,-3.15,3.15,3.10,2.75,3.31,3.30,3.31
45.23,0.14,-3.15,0.13,-3.14,3.14,3.10,2.75,3.28,3.27,3.29
45.68,0.12,-3.12,0.10,-3.14,3.14,3.10,2.74,3.26,3.24,3.24
46.13,0.09,-3.12,0.07,-3.13,3.13,3.10,2.74,3.22,3.20,3.21
46.60,0.06,-3.11,0.05,-3.12,3.12,3.10,2.74,3.18,3.17,3.17
47.06,0.02,-3.12,0.02,-3.11,3.11,3.10,2.75,3.13,3.13,3.14
47.53,-0.01,-3.11,-0.00,-3.09,3.09,3.10,2.75,3.08,3.09,3.10
48.01,-0.05,-3.10,-0.03,-3.08,3.08,3.09,2.76,3.03,3.05,3.05
48.49,-0.08,-3.09,-0.06,-3.07,3.07,3.09,2.77,2.99,3.01,3.01
48.97,-0.11,-3.07,-0.09,-3.05,3.05,3.09,2.78,2.94,2.97,2.96
49.46,-0.13,-3.06,-0.12,-3.04,3.04,3.08,2.79,2.91,2.92,2.93
49.96,-0.14,-3.01,-0.15,-3.03,3.03,3.08,2.81,2.89,2.88,2.87
50.46,-0.16,-3.00,-0.18,-3.02,3.02,3.07,2.82,2.86,2.84,2.84
50.96,-0.19,-2.99,-0.22,-3.01,3.01,3.07,2.84,2.82,2.80,2.80
51.47,-0.22,-2.98,-0.25,-3.00,3.00,3.06,2.86,2.78,2.76,2.76
51.99,-0.26,-2.97,-0.28,-2.99,2.99,3.05,2.88,2.73,2.71,2.71
52.51,-0.31,-2.99,-0.31,-2.98,2.98,3.05,2.89,2.67,2.67,2.68
53.03,-0.35,-3.00,-0.34,-2.97,2.97,3.04,2.91,2.62,2.63,2.65
53.56,-0.39,-2.99,-0.37,-2.96,2.96,3.03,2.93,2.57,2.59,2.60
54.10,-0.43,-2.98,-0.40,-2.95,2.95,3.02,2.95,2.52,2.55,2.55
54.64,-0.46,-2.97,-0.43,-2.95,2.95,3.01,2.97,2.49,2.51,2.51
55.18,-0.49,-2.96,-0.47,-2.94,2.94,3.00,2.99,2.45,2.47,2.47
55.74,-0.50,-2.92,-0.50,-2.94,2.94,2.99,3.01,2.44,2.44,2.42
56.29,-0.51,-2.91,-0.54,-2.93,2.93,2.98,3.02,2.42,2.40,2.40
56.86,-0.54,-2.90,-0.57,-2.92,2.92,2.97,3.04,2.38,2.36,2.36
57.42,-0.58,-2.89,-0.60,-2.91,2.91,2.96,3.05,2.33,2.32,2.31
58.00,-0.61,-2.88,-0.62,-2.89,2.89,2.95,3.06,2.28,2.27,2.27
58.58,-0.65,-2.89,-0.65,-2.88,2.88,2.93,3.07,2.23,2.23,2.24
59.16,-0.69,-2.90,-0.68,-2.86,2.86,2.92,3.08,2.17,2.18,2.21
59.76,-0.73,-2.89,-0.71,-2.84,2.84,2.91,3.08,2.11,2.14,2.16
60.35,-0.76,-2.87,-0.74,-2.83,2.83,2.89,3.08,2.07,2.09,2.11
60.96,-0.78,-2.83,-0.77,-2.81,2.81,2.88,3.08,2.03,2.04,2.05
61.57,-0.80,-2.79,-0.81,-2.79,2.79,2.86,3.08,1.99,1.99,1.99
62.18,-0.82,-2.75,-0.84,-2.78,2.78,2.85,3.07,1.96,1.94,1.93
62.80,-0.85,-2.72,-0.87,-2.76,2.76,2.83,3.06,1.91,1.88,1.87
63.43,-0.89,-2.71,-0.91,-2.74,2.74,2.82,3.05,1.85,1.83,1.82
64.07,-0.93,-2.70,-0.94,-2.71,2.71,2.80,3.03,1.78,1.77,1.77
64.71,-0.98,-2.70,-0.97,-2.69,2.69,2.78,3.01,1.71,1.72,1.72
65.35,-1.02,-2.68,-1.01,-2.67,2.67,2.76,2.99,1.65,1.66,1.66
66.01,-1.06,-2.67,-1.04,-2.65,2.65,2.75,2.96,1.59,1.61,1.61
66.67,-1.09,-2.66,-1.08,-2.63,2.63,2.73,2.93,1.54,1.55,1.57
67.33,-1.12,-2.62,-1.11,-2.61,2.61,2.71,2.90,1.49,1.50,1.50
68.01,-1.15,-2.60,-1.15,-2.60,2.60,2.69,2.87,1.45,1.44,1.45
68.69,-1.17,-2.57,-1.19,-2.58,2.58,2.67,2.83,1.41,1.39,1.40
69.37,-1.20,-2.55,-1.22,-2.56,2.56,2.65,2.80,1.36,1.33,1.35
70.07,-1.25,-2.54,-1.26,-2.54,2.54,2.63,2.76,1.29,1.28,1.29
70.77,-1.30,-2.52,-1.30,-2.51,2.51,2.61,2.72,1.21,1.22,1.22
71.48,-1.34,-2.51,-1.33,-2.49,2.49,2.59,2.68,1.15,1.16,1.17
72.19,-1.38,-2.49,-1.37,-2.47,2.47,2.57,2.63,1.09,1.10,1.11
72.91,-1.41,-2.45,-1.41,-2.45,2.45,2.54,2.59,1.04,1.05,1.04
73.64,-1.45,-2.44,-1.44,-2.44,2.44,2.52,2.55,0.98,0.99,0.99
74.38,-1.48,-2.41,-1.48,-2.42,2.42,2.50,2.50,0.94,0.94,0.93
75.12,-1.51,-2.39,-1.52,-2.40,2.40,2.48,2.46,0.89,0.88,0.88
75.87,-1.55,-2.38,-1.56,-2.39,2.39,2.45,2.42,0.84,0.83,0.83
76.63,-1.59,-2.36,-1.60,-2.37,2.37,2.43,2.37,0.78,0.78,0.77
77.40,-1.64,-2.37,-1.63,-2.36,2.36,2.41,2.33,0.72,0.72,0.73
78.17,-1.68,-2.35,-1.67,-2.34,2.34,2.38,2.29,0.66,0.67,0.67
78.95,-1.72,-2.35,-1.71,-2.33,2.33,2.36,2.25,0.61,0.62,0.63
79.74,-1.75,-2.33,-1.75,-2.32,2.32,2.34,2.21,0.57,0.57,0.58
80.54,-1.78,-2.31,-1.79,-2.31,2.31,2.31,2.17,0.53,0.52,0.53
81.35,-1.82,-2.29,-1.83,-2.30,2.30,2.29,2.13,0.48,0.47,0.47
82.16,-1.85,-2.29,-1.87,-2.29,2.29,2.26,2.09,0.44,0.42,0.44
82.98,-1.89,-2.27,-1.90,-2.28,2.28,2.24,2.06,0.39,0.37,0.38
83.81,-1.93,-2.26,-1.94,-2.26,2.26,2.21,2.02,0.33,0.32,0.33
84.65,-1.98,-2.25,-1.97,-2.24,2.24,2.19,1.99,0.26,0.27,0.27
85.50,-2.03,-2.24,-2.01,-2.22,2.22,2.16,1.96,0.19,0.21,0.21
86.35,-2.07,-2.23,-2.05,-2.20,2.20,2.14,1.93,0.13,0.16,0.16
87.22,-2.10,-2.21,-2.08,-2.19,2.19,2.11,1.90,0.09,0.10,0.11
88.09,-2.12,-2.17,-2.12,-2.17,2.17,2.09,1.87,0.05,0.05,0.05
88.97,-2.15,-2.14,-2.16,-2.15,2.15,2.06,1.84,-0.00,-0.01,-0.01
89.86,-2.17,-2.11,-2.19,-2.12,2.12,2.04,1.82,-0.05,-0.07,-0.06
90.76,-2.20,-2.08,-2.22,-2.10,2.10,2.01,1.80,-0.10,-0.13,-0.12
91.66,-2.24,-2.05,-2.25,-2.07,2.07,1.99,1.77,-0.17,-0.19,-0.19
92.58,-2.28,-2.04,-2.28,-2.04,2.04,1.96,1.75,-0.24,-0.25,-0.24
93.51,-2.33,-2.04,-2.31,-2.01,2.01,1.93,1.73,-0.32,-0.31,-0.29
94.44,-2.36,-2.01,-2.34,-1.97,1.97,1.91,1.72,-0.39,-0.37,-0.35
95.39,-2.40,-1.98,-2.37,-1.94,1.94,1.88,1.70,-0.46,-0.43,-0.42
96.34,-2.42,-1.93,-2.41,-1.92,1.92,1.86,1.68,-0.50,-0.49,-0.49
97.30,-2.44,-1.89,-2.44,-1.89,1.89,1.83,1.67,-0.55,-0.55,-0.55
98.28,-2.45,-1.83,-2.48,-1.86,1.86,1.80,1.66,-0.59,-0.61,-0.62
99.26,-2.48,-1.80,-2.51,-1.84,1.84,1.78,1.65,-0.64,-0.67,-0.68
100.25,-2.52,-1.78,-2.54,-1.81,1.81,1.75,1.63,-0.71,-0.73,-0.74
101.25,-2.56,-1.77,-2.57,-1.78,1.78,1.73,1.62,-0.78,-0.79,-0.79
102.27,-2.60,-1.75,-2.60,-1.75,1.75,1.70,1.62,-0.85,-0.85,-0.85
103.29,-2.64,-1.73,-2.63,-1.72,1.72,1.67,1.61,-0.92,-0.91,-0.91
104.32,-2.69,-1.73,-2.66,-1.69,1.69,1.65,1.60,-1.00,-0.97,-0.96
105.37,-2.72,-1.70,-2.69,-1.67,1.67,1.62,1.59,-1.05,-1.02,-1.02
106.42,-2.74,-1.67,-2.72,-1.65,1.65,1.60,1.58,-1.09,-1.08,-1.07
107.48,-2.76,-1.63,-2.76,-1.63,1.63,1.57,1.58,-1.13,-1.13,-1.13
108.56,-2.78,-1.60,-2.80,-1.60,1.60,1.54,1.57,-1.18,-1.19,-1.18
109.64,-2.80,-1.56,-2.83,-1.58,1.58,1.52,1.56,-1.22,-1.25,-1.24
110.74,-2.84,-1.54,-2.86,-1.56,1.56,1.49,1.56,-1.28,-1.31,-1.30
111.85,-2.88,-1.52,-2.89,-1.53,1.53,1.47,1.55,-1.35,-1.37,-1.36
112.97,-2.92,-1.51,-2.93,-1.50,1.50,1.44,1.54,-1.42,-1.43,-1.41
114.10,-2.96,-1.49,-2.95,-1.47,1.47,1.42,1.54,-1.49,-1.48,-1.47
115.24,-3.01,-1.46,-2.98,-1.44,1.44,1.39,1.53,-1.57,-1.54,-1.55
116.39,-3.04,-1.43,-3.01,-1.41,1.41,1.36,1.52,-1.63,-1.60,-1.61
117.55,-3.07,-1.40,-3.05,-1.39,1.39,1.34,1.51,-1.68,-1.66,-1.67
118.73,-3.09,-1.36,-3.08,-1.36,1.36,1.31,1.50,-1.73,-1.71,-1.73
119.92,-3.11,-1.34,-3.11,-1.34,1.34,1.29,1.48,-1.77,-1.77,-1.77
121.12,-3.12,-1.30,-3.14,-1.31,1.31,1.26,1.47,-1.81,-1.83,-1.82
122.33,-3.15,-1.27,-3.17,-1.29,1.29,1.24,1.46,-1.86,-1.88,-1.88
123.55,-3.18,-1.25,-3.20,-1.26,1.26,1.21,1.44,-1.92,-1.94,-1.93
124.79,-3.22,-1.24,-3.23,-1.23,1.23,1.19,1.42,-1.99,-2.00,-1.98
126.03,-3.25,-1.21,-3.25,-1.20,1.20,1.16,1.40,-2.05,-2.05,-2.04
127.29,-3.29,-1.20,-3.28,-1.17,1.17,1.14,1.38,-2.12,-2.10,-2.09
128.57,-3.32,-1.16,-3.30,-1.15,1.15,1.12,1.36,-2.17,-2.16,-2.16
129.85,-3.35,-1.14,-3.33,-1.12,1.12,1.09,1.34,-2.23,-2.21,-2.21
131.15,-3.38,-1.11,-3.36,-1.09,1.09,1.07,1.31,-2.29,-2.27,-2.27
132.46,-3.40,-1.08,-3.39,-1.07,1.07,1.04,1.29,-2.33,-2.32,-2.32
133.79,-3.41,-1.03,-3.42,-1.04,1.04,1.02,1.26,-2.37,-2.38,-2.38
135.12,-3.43,-1.00,-3.45,-1.02,1.02,0.99,1.23,-2.41,-2.43,-2.43
136.48,-3.46,-0.98,-3.48,-0.99,0.99,0.97,1.21,-2.47,-2.48,-2.48
137.84,-3.49,-0.96,-3.51,-0.97,0.97,0.95,1.18,-2.52,-2.54,-2.53
139.22,-3.52,-0.93,-3.53,-0.95,0.95,0.92,1.14,-2.57,-2.59,-2.59
140.61,-3.56,-0.93,-3.56,-0.93,0.93,0.90,1.11,-2.63,-2.64,-2.63
142.02,-3.59,-0.90,-3.59,-0.91,0.91,0.88,1.08,-2.68,-2.68,-2.69
143.44,-3.63,-0.90,-3.62,-0.89,0.89,0.85,1.05,-2.74,-2.73,-2.73
144.87,-3.66,-0.89,-3.65,-0.87,0.87,0.83,1.01,-2.79,-2.78,-2.77
146.32,-3.69,-0.87,-3.67,-0.85,0.85,0.80,0.98,-2.84,-2.82,-2.82
147.78,-3.71,-0.85,-3.70,-0.84,0.84,0.78,0.95,-2.87,-2.86,-2.86
149.26,-3.73,-0.82,-3.73,-0.82,0.82,0.76,0.91,-2.91,-2.91,-2.91
150.75,-3.76,-0.81,-3.76,-0.81,0.81,0.74,0.88,-2.95,-2.95,-2.95
152.26,-3.78,-0.79,-3.78,-0.79,0.79,0.71,0.84,-2.99,-3.00,-2.99
153.78,-3.80,-0.77,-3.81,-0.77,0.77,0.69,0.80,-3.03,-3.04,-3.03
155.32,-3.82,-0.75,-3.83,-0.75,0.75,0.67,0.77,-3.07,-3.08,-3.07
156.88,-3.85,-0.73,-3.85,-0.73,0.73,0.64,0.73,-3.12,-3.13,-3.12
158.44,-3.88,-0.71,-3.88,-0.71,0.71,0.62,0.70,-3.17,-3.17,-3.17
160.03,-3.90,-0.69,-3.90,-0.69,0.69,0.60,0.66,-3.21,-3.21,-3.21
161.63,-3.93,-0.68,-3.93,-0.67,0.67,0.58,0.63,-3.26,-3.26,-3.25
163.24,-3.96,-0.66,-3.95,-0.65,0.65,0.55,0.59,-3.31,-3.30,-3.30
164.88,-3.98,-0.63,-3.98,-0.63,0.63,0.53,0.56,-3.35,-3.35,-3.35
166.53,-4.00,-0.60,-4.01,-0.61,0.61,0.51,0.53,-3.39,-3.40,-3.40
168.19,-4.02,-0.59,-4.03,-0.59,0.59,0.49,0.49,-3.43,-3.44,-3.43
169.87,-4.05,-0.56,-4.06,-0.57,0.57,0.46,0.46,-3.48,-3.49,-3.49
171.57,-4.08,-0.54,-4.09,-0.55,0.55,0.44,0.42,-3.53,-3.54,-3.54
173.29,-4.11,-0.53,-4.12,-0.53,0.53,0.42,0.39,-3.58,-3.59,-3.58
175.02,-4.14,-0.51,-4.14,-0.51,0.51,0.40,0.36,-3.63,-3.63,-3.63
176.77,-4.17,-0.49,-4.16,-0.48,0.48,0.38,0.33,-3.69,-3.68,-3.68
178.54,-4.19,-0.47,-4.18,-0.45,0.45,0.35,0.29,-3.74,-3.73,-3.72
180.32,-4.21,-0.43,-4.20,-0.42,0.42,0.33,0.26,-3.79,-3.77,-3.78
182.13,-4.23,-0.42,-4.21,-0.39,0.39,0.31,0.23,-3.84,-3.82,-3.81
183.95,-4.24,-0.38,-4.22,-0.35,0.35,0.29,0.20,-3.89,-3.86,-3.86
185.79,-4.24,-0.33,-4.23,-0.32,0.32,0.27,0.17,-3.92,-3.91,-3.91
187.65,-4.24,-0.29,-4.23,-0.28,0.28,0.25,0.13,-3.96,-3.96,-3.95
189.52,-4.23,-0.24,-4.23,-0.24,0.24,0.22,0.10,-3.99,-4.00,-3.99
191.42,-4.22,-0.19,-4.23,-0.19,0.19,0.20,0.07,-4.03,-4.04,-4.03
193.33,-4.22,-0.15,-4.23,-0.15,0.15,0.18,0.04,-4.07,-4.08,-4.07
195.27,-4.22,-0.10,-4.23,-0.11,0.11,0.16,0.01,-4.11,-4.12,-4.12
197.22,-4.22,-0.05,-4.23,-0.07,0.07,0.14,-0.02,-4.15,-4.16,-4.17
199.19,-4.22,-0.02,-4.22,-0.03,0.03,0.11,-0.05,-4.19,-4.20,-4.20
201.18,-4.22,0.02,-4.22,0.01,-0.01,0.09,-0.08,-4.23,-4.23,-4.24
203.19,-4.22,0.05,-4.22,0.05,-0.05,0.07,-0.11,-4.27,-4.27,-4.27
205.23,-4.22,0.07,-4.22,0.08,-0.08,0.05,-0.14,-4.30,-4.30,-4.29
207.28,-4.22,0.10,-4.22,0.11,-0.11,0.03,-0.17,-4.33,-4.33,-4.32
209.35,-4.22,0.14,-4.22,0.14,-0.14,0.01,-0.20,-4.36,-4.36,-4.36
211.44,-4.22,0.17,-4.23,0.17,-0.17,-0.02,-0.22,-4.39,-4.39,-4.39
213.56,-4.22,0.19,-4.23,0.19,-0.19,-0.04,-0.25,-4.41,-4.42,-4.41
215.69,-4.22,0.22,-4.23,0.22,-0.22,-0.06,-0.28,-4.44,-4.45,-4.44
217.85,-4.22,0.25,-4.23,0.24,-0.24,-0.08,-0.31,-4.46,-4.47,-4.47
220.03,-4.23,0.27,-4.23,0.27,-0.27,-0.10,-0.33,-4.50,-4.50,-4.50
222.23,-4.24,0.29,-4.23,0.29,-0.29,-0.13,-0.36,-4.53,-4.52,-4.53
224.45,-4.24,0.30,-4.22,0.32,-0.32,-0.15,-0.39,-4.56,-4.55,-4.54
226.70,-4.23,0.34,-4.21,0.36,-0.36,-0.17,-0.41,-4.59,-4.57,-4.57
228.96,-4.22,0.36,-4.20,0.39,-0.39,-0.19,-0.44,-4.61,-4.59,-4.58
231.25,-4.20,0.40,-4.18,0.42,-0.42,-0.22,-0.46,-4.62,-4.61,-4.60
233.57,-4.17,0.45,-4.16,0.46,-0.46,-0.24,-0.49,-4.63,-4.62,-4.62
235.90,-4.15,0.48,-4.14,0.49,-0.49,-0.26,-0.51,-4.64,-4.64,-4.63
238.26,-4.12,0.54,-4.12,0.53,-0.53,-0.28,-0.54,-4.65,-4.65,-4.66
240.64,-4.09,0.56,-4.09,0.57,-0.57,-0.31,-0.56,-4.66,-4.66,-4.65
243.05,-4.06,0.61,-4.07,0.60,-0.60,-0.33,-0.58,-4.66,-4.67,-4.67
245.48,-4.03,0.65,-4.04,0.64,-0.64,-0.35,-0.60,-4.67,-4.68,-4.68
247.93,-4.00,0.69,-4.01,0.67,-0.67,-0.38,-0.62,-4.67,-4.69,-4.69
250.41,-3.97,0.71,-3.99,0.70,-0.70,-0.40,-0.65,-4.67,-4.69,-4.68
252.92,-3.95,0.74,-3.96,0.73,-0.73,-0.42,-0.67,-4.68,-4.70,-4.69
255.45,-3.93,0.77,-3.94,0.76,-0.76,-0.45,-0.69,-4.69,-4.70,-4.70
258.00,-3.92,0.78,-3.92,0.78,-0.78,-0.47,-0.70,-4.70,-4.70,-4.70
260.58,-3.90,0.80,-3.90,0.80,-0.80,-0.49,-0.72,-4.70,-4.71,-4.70
263.19,-3.88,0.82,-3.88,0.83,-0.83,-0.52,-0.74,-4.71,-4.71,-4.70
265.82,-3.87,0.84,-3.86,0.85,-0.85,-0.54,-0.76,-4.72,-4.71,-4.71
268.48,-3.86,0.85,-3.85,0.87,-0.87,-0.57,-0.78,-4.73,-4.72,-4.71
271.16,-3.84,0.87,-3.83,0.89,-0.89,-0.59,-0.80,-4.73,-4.72,-4.71
273.87,-3.82,0.89,-3.81,0.91,-0.91,-0.62,-0.81,-4.73,-4.72,-4.71
276.61,-3.80,0.91,-3.79,0.93,-0.93,-0.64,-0.83,-4.73,-4.72,-4.71
279.38,-3.77,0.96,-3.77,0.95,-0.95,-0.67,-0.85,-4.72,-4.72,-4.73
282.17,-3.74,0.99,-3.74,0.98,-0.98,-0.69,-0.87,-4.72,-4.72,-4.73
284.99,-3.71,1.01,-3.72,1.00,-1.00,-0.72,-0.88,-4.71,-4.72,-4.72
287.84,-3.69,1.02,-3.69,1.03,-1.03,-0.74,-0.90,-4.72,-4.72,-4.71
290.72,-3.67,1.05,-3.67,1.05,-1.05,-0.77,-0.92,-4.72,-4.71,-4.72
293.63,-3.65,1.06,-3.64,1.07,-1.07,-0.79,-0.94,-4.72,-4.71,-4.71
296.57,-3.62,1.08,-3.61,1.10,-1.10,-0.82,-0.96,-4.72,-4.71,-4.70
299.53,-3.58,1.12,-3.59,1.12,-1.12,-0.85,-0.97,-4.70,-4.70,-4.70
302.53,-3.55,1.13,-3.56,1.14,-1.14,-0.87,-0.99,-4.69,-4.70,-4.68
305.55,-3.52,1.17,-3.53,1.16,-1.16,-0.90,-1.01,-4.68,-4.69,-4.69
308.61,-3.49,1.19,-3.51,1.17,-1.17,-0.93,-1.03,-4.66,-4.68,-4.68
311.69,-3.47,1.20,-3.48,1.19,-1.19,-0.95,-1.06,-4.66,-4.68,-4.67
314.81,-3.45,1.22,-3.45,1.21,-1.21,-0.98,-1.08,-4.66,-4.67,-4.67
317.96,-3.43,1.23,-3.42,1.24,-1.24,-1.01,-1.10,-4.67,-4.66,-4.66
321.14,-3.41,1.24,-3.39,1.26,-1.26,-1.04,-1.12,-4.67,-4.65,-4.65
324.35,-3.38,1.27,-3.36,1.29,-1.29,-1.06,-1.15,-4.67,-4.65,-4.65
327.59,-3.35,1.27,-3.33,1.31,-1.31,-1.09,-1.17,-4.66,-4.64,-4.62
330.87,-3.31,1.32,-3.30,1.33,-1.33,-1.12,-1.20,-4.64,-4.63,-4.63
334.18,-3.27,1.35,-3.27,1.36,-1.36,-1.15,-1.23,-4.63,-4.62,-4.62
337.52,-3.23,1.39,-3.24,1.38,-1.38,-1.18,-1.26,-4.61,-4.62,-4.62
340.90,-3.18,1.42,-3.20,1.40,-1.40,-1.21,-1.29,-4.58,-4.61,-4.60
344.30,-3.14,1.45,-3.17,1.43,-1.43,-1.24,-1.32,-4.57,-4.60,-4.59
347.75,-3.11,1.48,-3.14,1.45,-1.45,-1.27,-1.35,-4.56,-4.59,-4.59
351.23,-3.09,1.50,-3.10,1.48,-1.48,-1.30,-1.38,-4.57,-4.58,-4.59
354.74,-3.08,1.48,-3.07,1.51,-1.51,-1.33,-1.41,-4.59,-4.58,-4.56
358.28,-3.06,1.51,-3.04,1.53,-1.53,-1.36,-1.45,-4.59,-4.57,-4.57
361.87,-3.03,1.53,-3.01,1.55,-1.55,-1.39,-1.48,-4.58,-4.56,-4.56
365.49,-2.99,1.56,-2.98,1.58,-1.58,-1.42,-1.52,-4.57,-4.55,-4.55
369.14,-2.95,1.58,-2.95,1.60,-1.60,-1.46,-1.56,-4.55,-4.54,-4.53
372.83,-2.91,1.62,-2.92,1.62,-1.62,-1.49,-1.60,-4.53,-4.54,-4.53
376.56,-2.87,1.66,-2.89,1.64,-1.64,-1.52,-1.64,-4.51,-4.53,-4.53
380.33,-2.84,1.68,-2.85,1.66,-1.66,-1.55,-1.68,-4.50,-4.52,-4.52
384.13,-2.81,1.69,-2.82,1.69,-1.69,-1.58,-1.72,-4.50,-4.51,-4.50
387.97,-2.78,1.72,-2.78,1.72,-1.72,-1.62,-1.76,-4.50,-4.50,-4.50
391.85,-2.75,1.74,-2.74,1.75,-1.75,-1.65,-1.81,-4.50,-4.49,-4.49
395.77,-2.71,1.77,-2.70,1.78,-1.78,-1.68,-1.85,-4.49,-4.48,-4.48
399.73,-2.67,1.80,-2.65,1.81,-1.81,-1.72,-1.90,-4.48,-4.47,-4.47
403.72,-2.62,1.82,-2.61,1.85,-1.85,-1.75,-1.94,-4.47,-4.46,-4.44
407.76,-2.58,1.87,-2.57,1.88,-1.88,-1.79,-1.99,-4.46,-4.45,-4.45
411.84,-2.53,1.91,-2.53,1.91,-1.91,-1.82,-2.04,-4.44,-4.44,-4.44
415.96,-2.48,1.94,-2.48,1.95,-1.95,-1.86,-2.08,-4.43,-4.43,-4.42
420.12,-2.43,1.99,-2.43,1.99,-1.99,-1.89,-2.13,-4.42,-4.42,-4.42
424.32,-2.38,2.03,-2.39,2.02,-2.02,-1.93,-2.18,-4.40,-4.41,-4.41
428.56,-2.33,2.06,-2.34,2.06,-2.06,-1.96,-2.22,-4.39,-4.40,-4.39
432.85,-2.28,2.10,-2.29,2.10,-2.10,-2.00,-2.27,-4.38,-4.39,-4.38
437.18,-2.24,2.15,-2.25,2.13,-2.13,-2.03,-2.32,-4.37,-4.38,-4.39
441.55,-2.21,2.17,-2.21,2.17,-2.17,-2.07,-2.36,-4.38,-4.38,-4.38
445.96,-2.17,2.20,-2.17,2.20,-2.20,-2.11,-2.41,-4.37,-4.37,-4.37
450.42,-2.13,2.23,-2.13,2.23,-2.23,-2.14,-2.45,-4.36,-4.36,-4.36
454.93,-2.08,2.27,-2.09,2.26,-2.26,-2.18,-2.49,-4.34,-4.35,-4.35
459.48,-2.04,2.30,-2.05,2.30,-2.30,-2.22,-2.53,-4.34,-4.34,-4.34
464.07,-2.00,2.32,-2.01,2.33,-2.33,-2.25,-2.57,-4.33,-4.33,-4.32
468.71,-1.97,2.34,-1.97,2.35,-2.35,-2.29,-2.60,-4.32,-4.32,-4.31
473.40,-1.94,2.37,-1.93,2.38,-2.38,-2.33,-2.64,-4.32,-4.31,-4.31
478.13,-1.90,2.40,-1.89,2.41,-2.41,-2.37,-2.67,-4.31,-4.30,-4.30
482.91,-1.86,2.43,-1.85,2.44,-2.44,-2.41,-2.70,-4.30,-4.29,-4.29
