frequency,raw,error,smoothed,error_smoothed,equalization,parametric_eq,fixed_band_eq,equalized_raw,equalized_smoothed,target
20.00,-10.95,-16.87,-11.00,-16.94,16.94,15.92,6.47,5.99,5.94,5.92
20.20,-10.86,-16.82,-10.89,-16.86,16.86,16.02,6.62,6.00,5.97,5.96
20.40,-10.77,-16.76,-10.79,-16.78,16.78,16.10,6.78,6.02,6.00,5.99
20.61,-10.67,-16.69,-10.68,-16.70,16.70,16.17,6.93,6.03,6.02,6.02
20.81,-10.58,-16.64,-10.57,-16.62,16.62,16.22,7.09,6.04,6.05,6.06
21.02,-10.49,-16.59,-10.45,-16.53,16.53,16.26,7.26,6.04,6.07,6.10
21.23,-10.39,-16.50,-10.34,-16.44,16.44,16.28,7.43,6.05,6.10,6.11
21.44,-10.28,-16.41,-10.23,-16.35,16.35,16.29,7.61,6.07,6.12,6.13
21.66,-10.18,-16.33,-10.12,-16.25,16.25,16.28,7.78,6.07,6.13,6.15
21.87,-10.08,-16.23,-10.00,-16.15,16.15,16.25,7.97,6.08,6.15,6.16
22.09,-9.95,-16.12,-9.89,-16.05,16.05,16.21,8.16,6.11,6.17,6.18
22.31,-9.79,-15.96,-9.77,-15.95,15.95,16.16,8.35,6.17,6.18,6.18
22.54,-9.64,-15.83,-9.65,-15.84,15.84,16.09,8.55,6.20,6.19,6.18
22.76,-9.48,-15.67,-9.53,-15.73,15.73,16.00,8.76,6.25,6.20,6.19
22.99,-9.32,-15.51,-9.40,-15.61,15.61,15.91,8.97,6.29,6.21,6.19
23.22,-9.22,-15.42,-9.28,-15.50,15.50,15.80,9.18,6.28,6.21,6.20
23.45,-9.12,-15.33,-9.16,-15.38,15.38,15.69,9.40,6.26,6.22,6.21
23.69,-9.03,-15.25,-9.04,-15.26,15.26,15.56,9.63,6.23,6.22,6.22
23.92,-8.93,-15.16,-8.91,-15.14,15.14,15.43,9.86,6.21,6.23,6.23
24.16,-8.83,-15.07,-8.79,-15.02,15.02,15.29,10.10,6.19,6.23,6.24
24.40,-8.72,-14.97,-8.67,-14.91,14.91,15.14,10.35,6.19,6.23,6.25
24.65,-8.61,-14.85,-8.56,-14.80,14.80,14.99,10.60,6.19,6.23,6.24
24.89,-8.50,-14.73,-8.46,-14.69,14.69,14.84,10.85,6.20,6.24,6.24
25.14,-8.37,-14.60,-8.35,-14.59,14.59,14.68,11.11,6.22,6.24,6.24
25.39,-8.23,-14.46,-8.24,-14.48,14.48,14.51,11.38,6.25,6.24,6.23
25.65,-8.09,-14.32,-8.12,-14.36,14.36,14.35,11.66,6.27,6.24,6.23
25.91,-7.95,-14.17,-8.00,-14.24,14.24,14.19,11.93,6.29,6.24,6.22
26.16,-7.85,-14.08,-7.89,-14.12,14.12,14.02,12.22,6.27,6.23,6.23
26.43,-7.77,-14.00,-7.77,-14.00,14.00,13.85,12.50,6.23,6.23,6.23
26.69,-7.68,-13.91,-7.66,-13.89,13.89,13.69,12.79,6.21,6.23,6.23
26.96,-7.60,-13.83,-7.55,-13.78,13.78,13.52,13.09,6.18,6.22,6.23
27.23,-7.48,-13.71,-7.45,-13.67,13.67,13.36,13.38,6.19,6.22,6.23
27.50,-7.34,-13.56,-7.34,-13.56,13.56,13.19,13.67,6.22,6.22,6.22
27.77,-7.20,-13.41,-7.24,-13.46,13.46,13.03,13.96,6.26,6.22,6.21
28.05,-7.08,-13.29,-7.14,-13.35,13.35,12.87,14.24,6.27,6.21,6.21
28.33,-7.01,-13.21,-7.03,-13.24,13.24,12.71,14.52,6.23,6.21,6.20
28.62,-6.94,-13.15,-6.92,-13.13,13.13,12.55,14.79,6.19,6.21,6.21
28.90,-6.87,-13.07,-6.82,-13.02,13.02,12.40,15.04,6.16,6.21,6.21
29.19,-6.76,-12.95,-6.71,-12.91,12.91,12.25,15.27,6.15,6.20,6.19
29.48,-6.63,-12.83,-6.60,-12.80,12.80,12.10,15.49,6.17,6.20,6.20
29.78,-6.49,-12.69,-6.49,-12.68,12.68,11.95,15.67,6.19,6.19,6.20
30.08,-6.36,-12.56,-6.38,-12.57,12.57,11.81,15.83,6.21,6.19,6.20
30.38,-6.25,-12.44,-6.26,-12.45,12.45,11.67,15.96,6.20,6.18,6.19
30.68,-6.13,-12.31,-6.15,-12.33,12.33,11.53,16.04,6.20,6.18,6.18
30.99,-6.02,-12.19,-6.04,-12.22,12.22,11.39,16.09,6.20,6.18,6.17
31.30,-5.92,-12.09,-5.93,-12.10,12.10,11.26,16.10,6.18,6.17,6.17
31.61,-5.83,-12.00,-5.81,-11.98,11.98,11.13,16.07,6.15,6.16,6.17
31.93,-5.73,-11.88,-5.70,-11.85,11.85,11.00,16.01,6.12,6.16,6.16
32.24,-5.60,-11.74,-5.58,-11.73,11.73,10.88,15.90,6.14,6.15,6.14
32.57,-5.46,-11.60,-5.47,-11.61,11.61,10.75,15.76,6.15,6.15,6.14
32.89,-5.32,-11.45,-5.35,-11.49,11.49,10.64,15.60,6.18,6.14,6.14
33.22,-5.22,-11.35,-5.24,-11.38,11.38,10.52,15.41,6.16,6.13,6.13
33.55,-5.14,-11.27,-5.13,-11.26,11.26,10.41,15.19,6.12,6.13,6.13
33.89,-5.06,-11.19,-5.02,-11.14,11.14,10.30,14.96,6.08,6.12,6.13
34.23,-4.94,-11.06,-4.91,-11.03,11.03,10.19,14.71,6.09,6.12,6.12
34.57,-4.81,-10.92,-4.80,-10.92,10.92,10.08,14.46,6.11,6.11,6.11
34.92,-4.67,-10.78,-4.70,-10.81,10.81,9.98,14.20,6.14,6.11,6.11
35.27,-4.56,-10.66,-4.59,-10.69,10.69,9.88,13.93,6.13,6.10,6.10
35.62,-4.46,-10.55,-4.48,-10.57,10.57,9.79,13.66,6.11,6.09,6.09
35.97,-4.36,-10.44,-4.37,-10.45,10.45,9.69,13.39,6.10,6.09,6.08
36.33,-4.27,-10.35,-4.26,-10.34,10.34,9.60,13.12,6.07,6.08,6.08
36.70,-4.18,-10.26,-4.15,-10.22,10.22,9.51,12.86,6.04,6.07,6.08
37.06,-4.09,-10.15,-4.05,-10.11,10.11,9.43,12.59,6.03,6.06,6.06
37.43,-3.99,-10.04,-3.95,-10.01,10.01,9.34,12.33,6.02,6.06,6.06
37.81,-3.89,-9.94,-3.86,-9.91,9.91,9.26,12.08,6.02,6.05,6.05
38.19,-3.76,-9.80,-3.77,-9.81,9.81,9.19,11.83,6.05,6.04,6.04
38.57,-3.61,-9.64,-3.68,-9.72,9.72,9.11,11.59,6.11,6.03,6.03
38.95,-3.45,-9.47,-3.59,-9.62,9.62,9.03,11.36,6.17,6.03,6.03
39.34,-3.42,-9.43,-3.50,-9.51,9.51,8.96,11.13,6.10,6.02,6.01
39.74,-3.41,-9.40,-3.40,-9.41,9.41,8.89,10.90,6.00,6.01,5.99
40.14,-3.37,-9.37,-3.30,-9.30,9.30,8.82,10.69,5.93,6.00,6.00
40.54,-3.29,-9.28,-3.19,-9.18,9.18,8.76,10.48,5.89,5.99,5.99
40.94,-3.21,-9.19,-3.09,-9.06,9.06,8.69,10.27,5.86,5.97,5.98
41.35,-3.06,-9.03,-2.99,-8.94,8.94,8.63,10.08,5.89,5.96,5.97
41.76,-2.89,-8.84,-2.88,-8.82,8.82,8.57,9.89,5.93,5.94,5.95
42.18,-2.75,-8.68,-2.78,-8.70,8.70,8.51,9.70,5.95,5.92,5.93
42.60,-2.63,-8.53,-2.67,-8.57,8.57,8.45,9.53,5.94,5.89,5.90
43.03,-2.51,-8.40,-2.57,-8.43,8.43,8.40,9.35,5.93,5.87,5.89
43.46,-2.41,-8.27,-2.45,-8.29,8.29,8.34,9.19,5.88,5.84,5.86
43.90,-2.31,-8.12,-2.33,-8.14,8.14,8.29,9.03,5.83,5.81,5.81
44.33,-2.21,-7.99,-2.21,-7.99,7.99,8.23,8.88,5.78,5.78,5.78
44.78,-2.11,-7.85,-2.09,-7.85,7.85,8.18,8.73,5.74,5.76,5.74
45.23,-2.01,-7.72,-1.98,-7.70,7.70,8.13,8.59,5.70,5.73,5.71
45.68,-1.91,-7.59,-1.87,-7.57,7.57,8.08,8.45,5.66,5.70,5.68
46.13,-1.81,-7.47,-1.77,-7.45,7.45,8.02,8.32,5.64,5.68,5.66
46.60,-1.70,-7.35,-1.67,-7.33,7.33,7.97,8.19,5.63,5.66,5.65
47.06,-1.60,-7.23,-1.58,-7.22,7.22,7.92,8.07,5.62,5.64,5.63
47.53,-1.49,-7.11,-1.48,-7.11,7.11,7.87,7.95,5.62,5.62,5.62
48.01,-1.38,-6.99,-1.40,-7.01,7.01,7.81,7.84,5.63,5.61,5.62
48.49,-1.32,-6.92,-1.32,-6.92,6.92,7.76,7.73,5.61,5.61,5.60
48.97,-1.25,-6.84,-1.26,-6.86,6.86,7.71,7.62,5.61,5.60,5.59
49.46,-1.20,-6.77,-1.21,-6.80,6.80,7.65,7.52,5.60,5.59,5.58
49.96,-1.15,-6.72,-1.17,-6.76,6.76,7.60,7.43,5.61,5.59,5.57
50.46,-1.15,-6.73,-1.15,-6.73,6.73,7.54,7.34,5.58,5.58,5.58
50.96,-1.15,-6.73,-1.16,-6.73,6.73,7.48,7.25,5.58,5.57,5.58
51.47,-1.15,-6.72,-1.20,-6.75,6.75,7.42,7.16,5.60,5.56,5.57
51.99,-1.15,-6.70,-1.26,-6.80,6.80,7.36,7.08,5.65,5.54,5.55
52.51,-1.27,-6.80,-1.35,-6.86,6.86,7.30,7.00,5.60,5.51,5.54
53.03,-1.39,-6.90,-1.46,-6.94,6.94,7.24,6.92,5.55,5.49,5.51
53.56,-1.51,-6.98,-1.58,-7.03,7.03,7.17,6.84,5.52,5.45,5.47
54.10,-1.63,-7.05,-1.72,-7.13,7.13,7.11,6.77,5.51,5.41,5.42
54.64,-1.76,-7.13,-1.87,-7.24,7.24,7.04,6.70,5.48,5.37,5.37
55.18,-1.92,-7.24,-2.00,-7.33,7.33,6.97,6.63,5.41,5.32,5.32
55.74,-2.17,-7.43,-2.13,-7.40,7.40,6.90,6.56,5.23,5.27,5.26
56.29,-2.36,-7.57,-2.24,-7.45,7.45,6.83,6.49,5.09,5.21,5.21
56.86,-2.49,-7.64,-2.32,-7.47,7.47,6.75,6.42,4.99,5.15,5.15
57.42,-2.52,-7.60,-2.38,-7.47,7.47,6.68,6.35,4.95,5.09,5.08
58.00,-2.52,-7.53,-2.40,-7.42,7.42,6.60,6.28,4.90,5.02,5.02
58.58,-2.52,-7.47,-2.37,-7.33,7.33,6.52,6.21,4.81,4.96,4.95
59.16,-2.48,-7.38,-2.31,-7.20,7.20,6.44,6.14,4.72,4.89,4.90
59.76,-2.35,-7.18,-2.22,-7.04,7.04,6.36,6.07,4.70,4.82,4.83
60.35,-2.14,-6.89,-2.11,-6.86,6.86,6.28,5.99,4.73,4.76,4.76
60.96,-1.88,-6.58,-1.96,-6.66,6.66,6.20,5.92,4.78,4.69,4.70
61.57,-1.72,-6.34,-1.79,-6.42,6.42,6.12,5.84,4.70,4.63,4.62
62.18,-1.54,-6.09,-1.59,-6.16,6.16,6.04,5.77,4.62,4.57,4.55
62.80,-1.31,-5.81,-1.38,-5.89,5.89,5.96,5.69,4.58,4.51,4.51
63.43,-1.06,-5.50,-1.16,-5.62,5.62,5.87,5.61,4.56,4.45,4.45
64.07,-0.82,-5.21,-0.95,-5.35,5.35,5.79,5.53,4.53,4.40,4.39
64.71,-0.70,-5.04,-0.73,-5.08,5.08,5.71,5.44,4.38,4.35,4.34
65.35,-0.59,-4.88,-0.52,-4.82,4.82,5.63,5.36,4.23,4.30,4.29
66.01,-0.47,-4.72,-0.31,-4.56,4.56,5.55,5.27,4.09,4.25,4.25
66.67,-0.21,-4.41,-0.11,-4.32,4.32,5.48,5.18,4.11,4.21,4.20
67.33,0.05,-4.11,0.08,-4.08,4.08,5.40,5.09,4.14,4.17,4.17
68.01,0.31,-3.82,0.27,-3.86,3.86,5.33,5.00,4.17,4.13,4.13
68.69,0.42,-3.67,0.44,-3.65,3.65,5.25,4.91,4.07,4.09,4.09
69.37,0.55,-3.50,0.60,-3.46,3.46,5.19,4.82,4.01,4.05,4.05
70.07,0.69,-3.32,0.72,-3.30,3.30,5.12,4.73,3.99,4.02,4.01
70.77,0.85,-3.14,0.80,-3.18,3.18,5.06,4.63,4.03,3.98,3.99
71.48,0.90,-3.05,0.85,-3.09,3.09,5.00,4.54,3.99,3.95,3.95
72.19,0.95,-2.97,0.88,-3.03,3.03,4.95,4.45,3.98,3.91,3.92
72.91,1.11,-2.77,0.88,-2.99,2.99,4.90,4.35,4.10,3.87,3.88
73.64,0.98,-2.86,0.85,-2.99,2.99,4.86,4.26,3.97,3.84,3.84
74.38,0.84,-2.97,0.77,-3.03,3.03,4.83,4.16,3.87,3.80,3.81
75.12,0.69,-3.07,0.64,-3.12,3.12,4.80,4.07,3.81,3.76,3.76
75.87,0.42,-3.31,0.47,-3.26,3.26,4.79,3.98,3.68,3.73,3.73
76.63,0.16,-3.53,0.26,-3.43,3.43,4.79,3.89,3.59,3.69,3.69
77.40,-0.10,-3.76,0.01,-3.65,3.65,4.80,3.80,3.55,3.66,3.66
78.17,-0.33,-3.95,-0.28,-3.91,3.91,4.82,3.71,3.58,3.63,3.62
78.95,-0.46,-4.06,-0.60,-4.20,4.20,4.86,3.63,3.74,3.60,3.60
79.74,-0.67,-4.25,-0.95,-4.52,4.52,4.93,3.54,3.85,3.57,3.58
80.54,-1.00,-4.54,-1.31,-4.86,4.86,5.01,3.45,3.86,3.55,3.54
81.35,-1.44,-4.96,-1.66,-5.19,5.19,5.13,3.37,3.75,3.53,3.52
82.16,-1.96,-5.46,-1.98,-5.49,5.49,5.27,3.29,3.53,3.51,3.50
82.98,-2.44,-5.94,-2.27,-5.77,5.77,5.44,3.21,3.33,3.50,3.50
83.81,-2.68,-6.16,-2.53,-6.02,6.02,5.64,3.13,3.34,3.49,3.48
84.65,-2.92,-6.38,-2.75,-6.22,6.22,5.87,3.06,3.30,3.48,3.46
85.50,-3.17,-6.63,-2.92,-6.39,6.39,6.12,2.98,3.22,3.47,3.47
86.35,-3.37,-6.83,-3.04,-6.50,6.50,6.36,2.91,3.13,3.46,3.46
87.22,-3.42,-6.87,-3.10,-6.55,6.55,6.57,2.84,3.13,3.45,3.45
88.09,-3.35,-6.79,-3.11,-6.55,6.55,6.72,2.77,3.21,3.44,3.44
88.97,-3.10,-6.55,-3.06,-6.50,6.50,6.77,2.70,3.40,3.43,3.45
89.86,-2.83,-6.26,-2.95,-6.38,6.38,6.70,2.63,3.55,3.42,3.43
90.76,-2.74,-6.15,-2.78,-6.20,6.20,6.51,2.57,3.46,3.41,3.41
91.66,-2.54,-5.95,-2.58,-5.97,5.97,6.21,2.50,3.44,3.40,3.41
92.58,-2.28,-5.65,-2.34,-5.72,5.72,5.85,2.44,3.44,3.38,3.38
93.51,-2.01,-5.38,-2.10,-5.46,5.46,5.46,2.38,3.45,3.36,3.37
94.44,-1.75,-5.09,-1.85,-5.19,5.19,5.06,2.32,3.44,3.34,3.35
95.39,-1.51,-4.83,-1.61,-4.92,4.92,4.67,2.26,3.41,3.31,3.32
96.34,-1.34,-4.61,-1.38,-4.66,4.66,4.31,2.21,3.32,3.28,3.27
97.30,-1.21,-4.46,-1.16,-4.42,4.42,3.98,2.15,3.21,3.25,3.25
98.28,-0.99,-4.20,-0.97,-4.18,4.18,3.68,2.10,3.20,3.22,3.21
99.26,-0.68,-3.85,-0.78,-3.96,3.96,3.41,2.04,3.28,3.18,3.18
100.25,-0.46,-3.60,-0.61,-3.75,3.75,3.16,1.99,3.29,3.14,3.14
101.25,-0.39,-3.48,-0.45,-3.54,3.54,2.94,1.94,3.15,3.09,3.09
102.27,-0.24,-3.28,-0.30,-3.34,3.34,2.73,1.89,3.10,3.04,3.04
103.29,-0.24,-3.22,-0.17,-3.16,3.16,2.55,1.84,2.92,2.99,2.99
104.32,-0.19,-3.13,-0.05,-2.98,2.98,2.38,1.80,2.79,2.93,2.94
105.37,-0.01,-2.89,0.06,-2.80,2.80,2.22,1.75,2.79,2.86,2.88
106.42,0.18,-2.63,0.17,-2.63,2.63,2.07,1.70,2.81,2.80,2.81
107.48,0.31,-2.42,0.27,-2.46,2.46,1.93,1.66,2.77,2.72,2.73
108.56,0.43,-2.22,0.36,-2.29,2.29,1.80,1.61,2.72,2.65,2.65
109.64,0.44,-2.13,0.44,-2.13,2.13,1.68,1.57,2.57,2.57,2.57
110.74,0.45,-2.04,0.51,-1.97,1.97,1.57,1.53,2.42,2.49,2.49
111.85,0.64,-1.77,0.60,-1.81,1.81,1.45,1.48,2.45,2.40,2.42
112.97,0.67,-1.65,0.68,-1.64,1.64,1.35,1.44,2.31,2.32,2.32
114.10,0.72,-1.52,0.76,-1.48,1.48,1.25,1.40,2.20,2.24,2.24
115.24,0.90,-1.25,0.85,-1.32,1.32,1.15,1.36,2.22,2.16,2.16
116.39,0.90,-1.17,0.92,-1.16,1.16,1.05,1.32,2.06,2.08,2.07
117.55,0.91,-1.08,0.99,-1.02,1.02,0.96,1.27,1.93,2.01,1.99
118.73,1.07,-0.85,1.05,-0.89,0.89,0.87,1.23,1.96,1.94,1.92
119.92,1.13,-0.73,1.12,-0.76,0.76,0.78,1.19,1.89,1.88,1.86
121.12,1.14,-0.66,1.19,-0.63,0.63,0.69,1.15,1.77,1.82,1.80
122.33,1.28,-0.47,1.27,-0.49,0.49,0.61,1.11,1.78,1.76,1.75
123.55,1.36,-0.35,1.34,-0.37,0.37,0.53,1.07,1.73,1.71,1.71
124.79,1.36,-0.30,1.40,-0.26,0.26,0.45,1.02,1.62,1.66,1.66
126.03,1.51,-0.11,1.47,-0.15,0.15,0.36,0.98,1.66,1.62,1.62
127.29,1.56,-0.02,1.53,-0.04,0.04,0.29,0.94,1.60,1.57,1.58
128.57,1.58,0.05,1.58,0.05,-0.05,0.21,0.90,1.53,1.53,1.53
129.85,1.58,0.09,1.63,0.14,-0.14,0.13,0.85,1.44,1.49,1.49
131.15,1.63,0.18,1.67,0.22,-0.22,0.05,0.81,1.41,1.45,1.45
132.46,1.76,0.36,1.70,0.29,-0.29,-0.02,0.77,1.47,1.40,1.41
133.79,1.81,0.44,1.73,0.37,-0.37,-0.10,0.72,1.44,1.36,1.37
135.12,1.81,0.50,1.77,0.45,-0.45,-0.17,0.68,1.36,1.32,1.31
136.48,1.81,0.53,1.80,0.52,-0.52,-0.24,0.63,1.29,1.28,1.28
137.84,1.81,0.58,1.83,0.60,-0.60,-0.32,0.59,1.21,1.23,1.23
139.22,1.81,0.64,1.87,0.68,-0.68,-0.39,0.54,1.13,1.19,1.17
140.61,1.81,0.69,1.90,0.76,-0.76,-0.46,0.49,1.06,1.14,1.12
142.02,1.81,0.72,1.93,0.84,-0.84,-0.53,0.45,0.97,1.09,1.09
143.44,1.82,0.78,1.97,0.94,-0.94,-0.60,0.40,0.89,1.04,1.04
144.87,2.00,1.01,2.00,1.03,-1.03,-0.67,0.35,0.98,0.98,0.99
146.32,2.03,1.10,2.02,1.11,-1.11,-0.74,0.30,0.93,0.91,0.93
147.78,2.04,1.16,2.01,1.17,-1.17,-0.81,0.25,0.87,0.85,0.88
149.26,2.04,1.24,1.98,1.20,-1.20,-0.87,0.20,0.84,0.78,0.81
150.75,2.04,1.32,1.91,1.21,-1.21,-0.94,0.15,0.83,0.70,0.72
152.26,2.03,1.38,1.82,1.19,-1.19,-1.01,0.10,0.84,0.62,0.65
153.78,1.88,1.32,1.72,1.17,-1.17,-1.07,0.05,0.71,0.55,0.56
155.32,1.82,1.36,1.62,1.15,-1.15,-1.13,0.00,0.67,0.47,0.46
156.88,1.79,1.41,1.52,1.13,-1.13,-1.20,-0.05,0.66,0.39,0.38
158.44,1.55,1.25,1.43,1.12,-1.12,-1.26,-0.10,0.43,0.31,0.30
160.03,1.29,1.07,1.34,1.10,-1.10,-1.32,-0.16,0.19,0.24,0.22
161.63,1.03,0.88,1.27,1.10,-1.10,-1.38,-0.21,-0.07,0.17,0.15
163.24,0.78,0.69,1.23,1.12,-1.12,-1.44,-0.27,-0.34,0.12,0.09
164.88,0.67,0.63,1.22,1.16,-1.16,-1.49,-0.32,-0.48,0.06,0.05
166.53,0.88,0.88,1.23,1.21,-1.21,-1.55,-0.38,-0.33,0.02,0.00
168.19,1.14,1.18,1.26,1.27,-1.27,-1.60,-0.43,-0.13,-0.01,-0.03
169.87,1.40,1.46,1.32,1.36,-1.36,-1.65,-0.49,0.05,-0.03,-0.06
171.57,1.55,1.62,1.40,1.45,-1.45,-1.70,-0.55,0.10,-0.05,-0.07
173.29,1.72,1.79,1.49,1.56,-1.56,-1.75,-0.61,0.16,-0.06,-0.07
175.02,1.81,1.88,1.60,1.67,-1.67,-1.80,-0.67,0.14,-0.07,-0.06
176.77,1.81,1.89,1.72,1.80,-1.80,-1.85,-0.73,0.01,-0.08,-0.07
178.54,1.99,2.07,1.84,1.92,-1.92,-1.89,-0.79,0.07,-0.09,-0.07
180.32,2.04,2.11,1.94,2.03,-2.03,-1.93,-0.85,0.01,-0.09,-0.07
182.13,2.04,2.11,2.02,2.11,-2.11,-1.97,-0.91,-0.07,-0.10,-0.07
183.95,2.04,2.12,2.07,2.18,-2.18,-2.01,-0.97,-0.13,-0.10,-0.08
185.79,2.04,2.13,2.09,2.21,-2.21,-2.04,-1.04,-0.16,-0.12,-0.09
187.65,2.04,2.16,2.09,2.22,-2.22,-2.07,-1.10,-0.18,-0.13,-0.12
189.52,2.04,2.18,2.09,2.23,-2.23,-2.10,-1.17,-0.19,-0.14,-0.14
191.42,2.04,2.21,2.08,2.24,-2.24,-2.13,-1.23,-0.19,-0.16,-0.17
193.33,2.04,2.23,2.06,2.24,-2.24,-2.16,-1.30,-0.20,-0.18,-0.19
195.27,2.04,2.24,2.04,2.24,-2.24,-2.18,-1.37,-0.20,-0.20,-0.20
197.22,2.04,2.27,2.02,2.24,-2.24,-2.20,-1.43,-0.20,-0.23,-0.22
199.19,2.04,2.31,1.98,2.23,-2.23,-2.22,-1.50,-0.19,-0.25,-0.27
201.18,2.04,2.32,1.96,2.23,-2.23,-2.23,-1.57,-0.19,-0.27,-0.28
203.19,1.99,2.29,1.94,2.24,-2.24,-2.25,-1.63,-0.24,-0.30,-0.30
205.23,1.87,2.20,1.92,2.24,-2.24,-2.26,-1.70,-0.37,-0.32,-0.32
207.28,1.81,2.14,1.91,2.25,-2.25,-2.27,-1.77,-0.44,-0.34,-0.33
209.35,1.81,2.17,1.89,2.25,-2.25,-2.27,-1.83,-0.44,-0.36,-0.36
211.44,1.81,2.20,1.87,2.25,-2.25,-2.27,-1.90,-0.43,-0.38,-0.39
213.56,1.81,2.21,1.84,2.24,-2.24,-2.27,-1.96,-0.43,-0.39,-0.39
215.69,1.81,2.21,1.82,2.23,-2.23,-2.27,-2.02,-0.42,-0.41,-0.40
217.85,1.81,2.24,1.79,2.22,-2.22,-2.27,-2.08,-0.41,-0.43,-0.43
220.03,1.81,2.25,1.77,2.21,-2.21,-2.26,-2.14,-0.40,-0.44,-0.44
222.23,1.81,2.28,1.74,2.20,-2.20,-2.25,-2.19,-0.39,-0.46,-0.47
224.45,1.81,2.28,1.73,2.20,-2.20,-2.24,-2.25,-0.39,-0.47,-0.47
226.70,1.81,2.28,1.72,2.20,-2.20,-2.22,-2.30,-0.39,-0.48,-0.47
228.96,1.66,2.15,1.71,2.20,-2.20,-2.21,-2.34,-0.54,-0.49,-0.49
231.25,1.60,2.09,1.69,2.18,-2.18,-2.19,-2.39,-0.58,-0.50,-0.49
233.57,1.58,2.08,1.66,2.16,-2.16,-2.17,-2.42,-0.58,-0.50,-0.50
235.90,1.58,2.09,1.63,2.13,-2.13,-2.15,-2.46,-0.55,-0.50,-0.51
238.26,1.58,2.10,1.59,2.10,-2.10,-2.12,-2.49,-0.52,-0.51,-0.51
240.64,1.58,2.10,1.56,2.07,-2.07,-2.10,-2.51,-0.49,-0.51,-0.52
243.05,1.58,2.09,1.53,2.04,-2.04,-2.07,-2.54,-0.45,-0.51,-0.51
245.48,1.58,2.09,1.50,2.00,-2.00,-2.04,-2.55,-0.42,-0.51,-0.51
247.93,1.58,2.08,1.47,1.97,-1.97,-2.01,-2.56,-0.39,-0.50,-0.50
250.41,1.40,1.91,1.45,1.95,-1.95,-1.98,-2.57,-0.55,-0.50,-0.51
252.92,1.36,1.86,1.44,1.93,-1.93,-1.95,-2.57,-0.57,-0.49,-0.49
255.45,1.36,1.83,1.43,1.92,-1.92,-1.91,-2.56,-0.56,-0.49,-0.47
258.00,1.36,1.83,1.42,1.90,-1.90,-1.88,-2.55,-0.54,-0.48,-0.47
260.58,1.36,1.83,1.40,1.87,-1.87,-1.84,-2.54,-0.51,-0.47,-0.47
263.19,1.36,1.82,1.38,1.84,-1.84,-1.81,-2.52,-0.47,-0.46,-0.46
265.82,1.36,1.82,1.35,1.80,-1.80,-1.77,-2.49,-0.44,-0.44,-0.46
268.48,1.36,1.79,1.33,1.76,-1.76,-1.73,-2.46,-0.40,-0.43,-0.43
271.16,1.36,1.78,1.31,1.72,-1.72,-1.69,-2.43,-0.36,-0.41,-0.42
273.87,1.36,1.77,1.29,1.69,-1.69,-1.65,-2.39,-0.32,-0.40,-0.41
276.61,1.36,1.73,1.27,1.65,-1.65,-1.61,-2.35,-0.29,-0.38,-0.37
279.38,1.36,1.72,1.26,1.62,-1.62,-1.57,-2.31,-0.25,-0.35,-0.36
282.17,1.19,1.53,1.24,1.57,-1.57,-1.53,-2.26,-0.38,-0.33,-0.34
284.99,1.13,1.44,1.22,1.53,-1.53,-1.49,-2.21,-0.39,-0.31,-0.31
287.84,1.13,1.42,1.20,1.48,-1.48,-1.45,-2.16,-0.35,-0.28,-0.29
290.72,1.13,1.38,1.18,1.43,-1.43,-1.41,-2.11,-0.30,-0.25,-0.25
293.63,1.13,1.36,1.16,1.39,-1.39,-1.37,-2.05,-0.25,-0.23,-0.23
296.57,1.13,1.33,1.14,1.34,-1.34,-1.33,-2.00,-0.21,-0.20,-0.20
299.53,1.13,1.31,1.13,1.31,-1.31,-1.29,-1.94,-0.18,-0.18,-0.18
302.53,1.13,1.29,1.13,1.29,-1.29,-1.25,-1.88,-0.16,-0.16,-0.16
305.55,1.13,1.26,1.13,1.27,-1.27,-1.21,-1.82,-0.14,-0.14,-0.13
308.61,1.13,1.24,1.13,1.25,-1.25,-1.17,-1.76,-0.12,-0.12,-0.11
311.69,1.13,1.23,1.13,1.24,-1.24,-1.12,-1.70,-0.10,-0.11,-0.09
314.81,1.13,1.20,1.13,1.22,-1.22,-1.08,-1.65,-0.09,-0.09,-0.07
317.96,1.13,1.20,1.12,1.20,-1.20,-1.05,-1.59,-0.07,-0.08,-0.07
321.14,1.13,1.21,1.10,1.18,-1.18,-1.01,-1.53,-0.04,-0.07,-0.08
324.35,1.13,1.20,1.08,1.15,-1.15,-0.97,-1.47,-0.02,-0.07,-0.07
327.59,1.13,1.19,1.06,1.12,-1.12,-0.93,-1.41,0.01,-0.06,-0.06
330.87,1.13,1.19,1.04,1.09,-1.09,-0.89,-1.35,0.04,-0.05,-0.06
334.18,1.02,1.07,1.02,1.05,-1.05,-0.85,-1.30,-0.03,-0.04,-0.05
337.52,0.91,0.95,1.00,1.02,-1.02,-0.81,-1.24,-0.11,-0.03,-0.04
340.90,0.90,0.92,0.97,0.99,-0.99,-0.78,-1.18,-0.09,-0.01,-0.02
344.30,0.90,0.91,0.95,0.95,-0.95,-0.74,-1.13,-0.05,0.00,-0.01
347.75,0.90,0.89,0.93,0.92,-0.92,-0.70,-1.07,-0.02,0.02,0.01
351.23,0.90,0.87,0.92,0.88,-0.88,-0.67,-1.02,0.02,0.04,0.04
354.74,0.90,0.85,0.90,0.84,-0.84,-0.63,-0.97,0.06,0.06,0.05
358.28,0.90,0.82,0.90,0.81,-0.81,-0.60,-0.92,0.09,0.08,0.08
361.87,0.90,0.80,0.90,0.79,-0.79,-0.56,-0.87,0.11,0.10,0.10
365.49,0.90,0.77,0.90,0.78,-0.78,-0.53,-0.82,0.13,0.13,0.13
369.14,0.90,0.76,0.90,0.76,-0.76,-0.50,-0.77,0.14,0.15,0.14
372.83,0.90,0.73,0.91,0.74,-0.74,-0.47,-0.72,0.16,0.17,0.17
376.56,0.90,0.71,0.91,0.72,-0.72,-0.43,-0.67,0.18,0.19,0.19
380.33,0.90,0.68,0.89,0.69,-0.69,-0.40,-0.63,0.22,0.21,0.22
384.13,0.90,0.66,0.88,0.65,-0.65,-0.37,-0.58,0.25,0.22,0.24
387.97,0.90,0.66,0.86,0.62,-0.62,-0.34,-0.54,0.28,0.24,0.25
391.85,0.90,0.65,0.84,0.59,-0.59,-0.31,-0.49,0.31,0.25,0.25
395.77,0.90,0.64,0.82,0.55,-0.55,-0.28,-0.45,0.35,0.26,0.26
399.73,0.84,0.57,0.80,0.52,-0.52,-0.25,-0.41,0.32,0.27,0.27
403.72,0.71,0.43,0.77,0.49,-0.49,-0.22,-0.37,0.22,0.28,0.28
407.76,0.67,0.38,0.76,0.47,-0.47,-0.19,-0.32,0.20,0.29,0.29
411.84,0.67,0.38,0.75,0.45,-0.45,-0.17,-0.28,0.22,0.29,0.30
415.96,0.67,0.37,0.73,0.43,-0.43,-0.14,-0.24,0.24,0.30,0.30
420.12,0.67,0.37,0.71,0.41,-0.41,-0.11,-0.21,0.26,0.30,0.30
424.32,0.67,0.37,0.69,0.38,-0.38,-0.09,-0.17,0.29,0.30,0.30
428.56,0.67,0.37,0.66,0.36,-0.36,-0.06,-0.13,0.31,0.30,0.30
432.85,0.67,0.37,0.64,0.33,-0.33,-0.04,-0.09,0.34,0.31,0.30
437.18,0.67,0.36,0.62,0.31,-0.31,-0.01,-0.06,0.36,0.31,0.31
441.55,0.67,0.35,0.61,0.29,-0.29,0.01,-0.02,0.38,0.32,0.32
445.96,0.67,0.35,0.60,0.28,-0.28,0.03,0.01,0.39,0.32,0.32
450.42,0.67,0.35,0.59,0.26,-0.26,0.06,0.04,0.41,0.33,0.33
454.93,0.49,0.16,0.56,0.22,-0.22,0.08,0.07,0.27,0.34,0.33
459.48,0.44,0.10,0.53,0.18,-0.18,0.10,0.11,0.26,0.35,0.34
464.07,0.44,0.08,0.50,0.13,-0.13,0.12,0.14,0.31,0.37,0.36
468.71,0.44,0.06,0.46,0.08,-0.08,0.14,0.17,0.36,0.38,0.38
473.40,0.44,0.05,0.43,0.03,-0.03,0.17,0.20,0.42,0.40,0.39
478.13,0.44,0.02,0.40,-0.02,0.02,0.19,0.22,0.47,0.42,0.42
482.91,0.44,0.00,0.37,-0.07,0.07,0.21,0.25,0.51,0.45,0.44
487.74,0.39,-0.08,0.35,-0.12,0.12,0.23,0.28,0.51,0.47,0.47
492.62,0.26,-0.24,0.32,-0.17,0.17,0.24,0.30,0.44,0.49,0.50
