frequency,raw,error,smoothed,error_smoothed,equalization,parametric_eq,fixed_band_eq,equalized_raw,equalized_smoothed,target
20.00,-2.14,-5.13,-2.08,-5.10,5.10,4.72,1.44,2.96,3.02,2.99
20.20,-2.05,-5.09,-2.01,-5.07,5.07,4.75,1.49,3.02,3.06,3.04
20.40,-1.96,-5.05,-1.95,-5.04,5.04,4.78,1.53,3.08,3.09,3.09
20.61,-1.86,-4.98,-1.88,-5.01,5.01,4.80,1.58,3.14,3.12,3.12
20.81,-1.77,-4.94,-1.82,-4.97,4.97,4.81,1.63,3.20,3.15,3.17
21.02,-1.69,-4.90,-1.75,-4.93,4.93,4.82,1.68,3.24,3.18,3.21
21.23,-1.64,-4.87,-1.69,-4.89,4.89,4.82,1.73,3.25,3.20,3.23
21.44,-1.59,-4.84,-1.63,-4.85,4.85,4.81,1.78,3.26,3.23,3.25
21.66,-1.54,-4.81,-1.56,-4.81,4.81,4.80,1.83,3.27,3.25,3.26
21.87,-1.49,-4.77,-1.50,-4.76,4.76,4.79,1.89,3.27,3.27,3.28
22.09,-1.44,-4.74,-1.44,-4.72,4.72,4.76,1.95,3.27,3.28,3.29
22.31,-1.38,-4.69,-1.37,-4.67,4.67,4.73,2.00,3.28,3.29,3.30
22.54,-1.32,-4.63,-1.32,-4.62,4.62,4.70,2.06,3.29,3.30,3.30
22.76,-1.27,-4.57,-1.26,-4.57,4.57,4.66,2.13,3.29,3.30,3.30
22.99,-1.21,-4.50,-1.21,-4.51,4.51,4.61,2.19,3.30,3.30,3.29
23.22,-1.15,-4.44,-1.15,-4.45,4.45,4.57,2.25,3.30,3.31,3.29
23.45,-1.09,-4.38,-1.08,-4.39,4.39,4.51,2.32,3.30,3.31,3.29
23.69,-1.02,-4.32,-1.01,-4.32,4.32,4.45,2.39,3.30,3.31,3.30
23.92,-0.96,-4.26,-0.94,-4.25,4.25,4.39,2.46,3.29,3.31,3.30
24.16,-0.89,-4.20,-0.87,-4.18,4.18,4.33,2.53,3.28,3.31,3.31
24.40,-0.81,-4.13,-0.80,-4.10,4.10,4.26,2.60,3.29,3.30,3.32
24.65,-0.73,-4.04,-0.73,-4.03,4.03,4.19,2.67,3.30,3.30,3.31
24.89,-0.65,-3.96,-0.66,-3.97,3.97,4.12,2.74,3.32,3.30,3.30
25.14,-0.58,-3.89,-0.60,-3.90,3.90,4.04,2.81,3.32,3.31,3.30
25.39,-0.51,-3.82,-0.53,-3.84,3.84,3.97,2.88,3.33,3.31,3.31
25.65,-0.44,-3.75,-0.47,-3.78,3.78,3.89,2.96,3.33,3.31,3.31
25.91,-0.37,-3.67,-0.41,-3.71,3.71,3.81,3.03,3.34,3.31,3.30
26.16,-0.32,-3.62,-0.35,-3.65,3.65,3.74,3.10,3.33,3.31,3.30
26.43,-0.29,-3.59,-0.30,-3.60,3.60,3.66,3.17,3.30,3.30,3.30
26.69,-0.26,-3.56,-0.24,-3.55,3.55,3.58,3.24,3.28,3.30,3.30
26.96,-0.23,-3.54,-0.20,-3.49,3.49,3.50,3.31,3.26,3.30,3.31
27.23,-0.17,-3.48,-0.15,-3.45,3.45,3.42,3.38,3.27,3.30,3.30
27.50,-0.10,-3.41,-0.10,-3.40,3.40,3.34,3.44,3.29,3.29,3.30
27.77,-0.04,-3.33,-0.05,-3.35,3.35,3.26,3.51,3.30,3.29,3.29
28.05,0.02,-3.27,-0.01,-3.30,3.30,3.18,3.56,3.31,3.29,3.29
28.33,0.05,-3.23,0.04,-3.24,3.24,3.10,3.62,3.29,3.29,3.28
28.62,0.08,-3.20,0.09,-3.19,3.19,3.03,3.67,3.27,3.29,3.28
28.90,0.10,-3.19,0.14,-3.14,3.14,2.95,3.72,3.24,3.29,3.28
29.19,0.16,-3.12,0.19,-3.09,3.09,2.88,3.76,3.25,3.28,3.27
29.48,0.24,-3.05,0.24,-3.04,3.04,2.81,3.79,3.28,3.28,3.29
29.78,0.31,-2.97,0.28,-3.00,3.00,2.73,3.82,3.30,3.28,3.28
30.08,0.38,-2.91,0.33,-2.95,2.95,2.66,3.85,3.32,3.28,3.29
30.38,0.41,-2.87,0.37,-2.90,2.90,2.60,3.86,3.31,3.27,3.27
30.68,0.44,-2.84,0.42,-2.85,2.85,2.53,3.87,3.29,3.27,3.27
30.99,0.47,-2.80,0.46,-2.81,2.81,2.46,3.88,3.27,3.27,3.27
31.30,0.50,-2.77,0.51,-2.76,2.76,2.40,3.88,3.26,3.27,3.27
31.61,0.53,-2.74,0.55,-2.71,2.71,2.33,3.87,3.24,3.27,3.27
31.93,0.56,-2.71,0.60,-2.66,2.66,2.27,3.85,3.22,3.26,3.26
32.24,0.62,-2.63,0.65,-2.61,2.61,2.21,3.83,3.23,3.26,3.25
32.57,0.68,-2.58,0.69,-2.57,2.57,2.15,3.80,3.24,3.25,3.26
32.89,0.75,-2.51,0.72,-2.52,2.52,2.09,3.76,3.27,3.25,3.25
33.22,0.79,-2.45,0.76,-2.48,2.48,2.04,3.72,3.27,3.24,3.24
33.55,0.83,-2.41,0.81,-2.43,2.43,1.98,3.67,3.26,3.24,3.24
33.89,0.86,-2.37,0.85,-2.38,2.38,1.93,3.62,3.23,3.23,3.23
34.23,0.90,-2.33,0.90,-2.32,2.32,1.87,3.56,3.22,3.23,3.23
34.57,0.95,-2.27,0.95,-2.27,2.27,1.82,3.50,3.22,3.22,3.22
34.92,1.00,-2.22,1.00,-2.22,2.22,1.77,3.43,3.21,3.22,3.21
35.27,1.03,-2.18,1.04,-2.17,2.17,1.72,3.36,3.20,3.21,3.21
35.62,1.05,-2.16,1.08,-2.13,2.13,1.68,3.29,3.18,3.21,3.21
35.97,1.08,-2.13,1.11,-2.10,2.10,1.63,3.21,3.17,3.21,3.20
36.33,1.15,-2.06,1.14,-2.06,2.06,1.58,3.13,3.21,3.20,3.21
36.70,1.22,-1.98,1.17,-2.03,2.03,1.54,3.05,3.25,3.20,3.19
37.06,1.28,-1.91,1.20,-2.00,2.00,1.50,2.97,3.27,3.20,3.19
37.43,1.28,-1.93,1.23,-1.97,1.97,1.46,2.89,3.24,3.20,3.20
37.81,1.28,-1.92,1.26,-1.94,1.94,1.41,2.80,3.21,3.20,3.20
38.19,1.28,-1.92,1.29,-1.91,1.91,1.37,2.72,3.19,3.20,3.19
38.57,1.28,-1.92,1.31,-1.88,1.88,1.34,2.63,3.16,3.20,3.20
38.95,1.28,-1.93,1.34,-1.85,1.85,1.30,2.55,3.13,3.20,3.20
39.34,1.34,-1.86,1.37,-1.82,1.82,1.26,2.46,3.16,3.20,3.20
39.74,1.40,-1.80,1.40,-1.79,1.79,1.22,2.38,3.19,3.20,3.19
40.14,1.45,-1.75,1.43,-1.76,1.76,1.19,2.29,3.21,3.19,3.20
40.54,1.46,-1.73,1.46,-1.73,1.73,1.16,2.21,3.19,3.19,3.19
40.94,1.48,-1.71,1.49,-1.70,1.70,1.12,2.13,3.18,3.18,3.18
41.35,1.52,-1.66,1.52,-1.66,1.66,1.09,2.05,3.18,3.18,3.18
41.76,1.56,-1.61,1.55,-1.62,1.62,1.06,1.96,3.17,3.17,3.17
42.18,1.60,-1.57,1.59,-1.57,1.57,1.03,1.88,3.17,3.16,3.17
42.60,1.64,-1.52,1.62,-1.53,1.53,0.99,1.81,3.17,3.15,3.15
43.03,1.68,-1.47,1.65,-1.48,1.48,0.96,1.73,3.16,3.14,3.14
43.46,1.69,-1.45,1.68,-1.44,1.44,0.94,1.65,3.13,3.12,3.14
43.90,1.70,-1.41,1.71,-1.40,1.40,0.91,1.58,3.10,3.11,3.11
44.33,1.73,-1.36,1.73,-1.37,1.37,0.88,1.50,3.09,3.09,3.09
44.78,1.76,-1.31,1.75,-1.33,1.33,0.85,1.43,3.09,3.08,3.07
45.23,1.78,-1.28,1.77,-1.29,1.29,0.82,1.36,3.07,3.06,3.06
45.68,1.78,-1.26,1.79,-1.26,1.26,0.80,1.29,3.03,3.05,3.04
46.13,1.79,-1.23,1.81,-1.22,1.22,0.77,1.22,3.01,3.03,3.02
46.60,1.84,-1.18,1.83,-1.19,1.19,0.75,1.15,3.02,3.02,3.02
47.06,1.88,-1.12,1.84,-1.15,1.15,0.72,1.08,3.03,3.00,3.00
47.53,1.88,-1.11,1.86,-1.12,1.12,0.70,1.02,3.00,2.98,2.99
48.01,1.88,-1.11,1.88,-1.09,1.09,0.67,0.95,2.96,2.96,2.98
48.49,1.88,-1.08,1.90,-1.05,1.05,0.65,0.89,2.93,2.95,2.96
48.97,1.88,-1.06,1.92,-1.02,1.02,0.63,0.82,2.89,2.93,2.94
49.46,1.93,-0.99,1.94,-0.98,0.98,0.60,0.76,2.91,2.92,2.91
49.96,1.98,-0.91,1.96,-0.95,0.95,0.58,0.70,2.92,2.90,2.89
50.46,1.98,-0.91,1.98,-0.91,0.91,0.56,0.64,2.89,2.89,2.89
50.96,1.98,-0.89,1.99,-0.88,0.88,0.54,0.59,2.85,2.87,2.87
51.47,2.00,-0.85,2.01,-0.85,0.85,0.51,0.53,2.84,2.86,2.85
51.99,2.03,-0.80,2.02,-0.82,0.82,0.49,0.47,2.84,2.84,2.83
52.51,2.06,-0.77,2.04,-0.79,0.79,0.47,0.42,2.84,2.82,2.82
53.03,2.08,-0.74,2.05,-0.76,0.76,0.45,0.37,2.84,2.81,2.82
53.56,2.08,-0.72,2.06,-0.73,0.73,0.43,0.31,2.81,2.79,2.80
54.10,2.08,-0.70,2.07,-0.71,0.71,0.41,0.26,2.79,2.78,2.78
54.64,2.08,-0.68,2.08,-0.69,0.69,0.39,0.21,2.77,2.77,2.76
55.18,2.08,-0.67,2.08,-0.68,0.68,0.36,0.17,2.75,2.75,2.75
55.74,2.08,-0.65,2.07,-0.66,0.66,0.34,0.12,2.74,2.74,2.73
56.29,2.08,-0.64,2.08,-0.64,0.64,0.32,0.07,2.72,2.72,2.72
56.86,2.08,-0.62,2.08,-0.62,0.62,0.30,0.03,2.70,2.70,2.70
57.42,2.08,-0.59,2.08,-0.60,0.60,0.28,-0.01,2.68,2.68,2.67
58.00,2.08,-0.58,2.08,-0.58,0.58,0.26,-0.05,2.65,2.66,2.65
58.58,2.08,-0.56,2.08,-0.55,0.55,0.24,-0.09,2.62,2.63,2.64
59.16,2.08,-0.54,2.09,-0.51,0.51,0.22,-0.13,2.59,2.60,2.62
59.76,2.08,-0.51,2.10,-0.47,0.47,0.19,-0.16,2.55,2.57,2.59
60.35,2.08,-0.47,2.11,-0.43,0.43,0.17,-0.20,2.50,2.54,2.54
60.96,2.08,-0.43,2.12,-0.38,0.38,0.15,-0.23,2.46,2.50,2.51
61.57,2.14,-0.32,2.13,-0.33,0.33,0.13,-0.26,2.47,2.46,2.46
62.18,2.18,-0.24,2.14,-0.28,0.28,0.10,-0.29,2.45,2.41,2.41
62.80,2.18,-0.19,2.15,-0.22,0.22,0.08,-0.32,2.40,2.37,2.36
63.43,2.18,-0.14,2.16,-0.17,0.17,0.06,-0.34,2.34,2.32,2.31
64.07,2.18,-0.09,2.16,-0.11,0.11,0.03,-0.36,2.28,2.27,2.26
64.71,2.18,-0.03,2.17,-0.05,0.05,0.01,-0.39,2.23,2.22,2.21
65.35,2.18,0.01,2.18,0.01,-0.01,-0.02,-0.41,2.17,2.17,2.17
66.01,2.18,0.06,2.18,0.07,-0.07,-0.04,-0.43,2.11,2.12,2.11
66.67,2.18,0.12,2.18,0.12,-0.12,-0.07,-0.44,2.05,2.06,2.06
67.33,2.18,0.17,2.19,0.18,-0.18,-0.10,-0.46,2.00,2.01,2.00
68.01,2.18,0.22,2.19,0.23,-0.23,-0.12,-0.48,1.94,1.95,1.96
68.69,2.18,0.28,2.19,0.29,-0.29,-0.15,-0.49,1.89,1.90,1.90
69.37,2.18,0.34,2.18,0.34,-0.34,-0.18,-0.51,1.83,1.84,1.84
70.07,2.18,0.39,2.18,0.40,-0.40,-0.22,-0.52,1.78,1.78,1.78
70.77,2.18,0.44,2.18,0.46,-0.46,-0.25,-0.53,1.72,1.72,1.73
71.48,2.18,0.51,2.18,0.52,-0.52,-0.28,-0.54,1.66,1.66,1.67
72.19,2.18,0.58,2.17,0.58,-0.58,-0.32,-0.55,1.60,1.60,1.60
72.91,2.18,0.64,2.17,0.63,-0.63,-0.35,-0.56,1.54,1.53,1.54
73.64,2.18,0.71,2.16,0.68,-0.68,-0.39,-0.57,1.49,1.47,1.47
74.38,2.18,0.77,2.14,0.74,-0.74,-0.43,-0.58,1.44,1.41,1.41
75.12,2.17,0.83,2.13,0.78,-0.78,-0.47,-0.59,1.38,1.35,1.34
75.87,2.09,0.81,2.11,0.83,-0.83,-0.52,-0.60,1.26,1.28,1.27
76.63,2.08,0.86,2.10,0.88,-0.88,-0.56,-0.61,1.20,1.22,1.22
77.40,2.08,0.92,2.08,0.92,-0.92,-0.61,-0.62,1.15,1.16,1.16
78.17,2.08,0.99,2.07,0.97,-0.97,-0.66,-0.63,1.11,1.10,1.09
78.95,2.06,1.01,2.05,1.01,-1.01,-0.71,-0.64,1.05,1.04,1.05
79.74,2.00,1.01,2.03,1.05,-1.05,-0.76,-0.65,0.95,0.98,0.98
80.54,1.98,1.05,2.01,1.08,-1.08,-0.82,-0.66,0.89,0.93,0.93
81.35,1.98,1.11,2.00,1.13,-1.13,-0.87,-0.68,0.85,0.87,0.87
82.16,1.98,1.17,1.98,1.17,-1.17,-0.93,-0.69,0.81,0.81,0.81
82.98,1.98,1.21,1.97,1.21,-1.21,-1.00,-0.70,0.76,0.76,0.77
83.81,1.98,1.28,1.96,1.26,-1.26,-1.06,-0.72,0.72,0.70,0.70
84.65,1.98,1.33,1.94,1.30,-1.30,-1.12,-0.73,0.68,0.65,0.64
85.50,1.94,1.34,1.93,1.34,-1.34,-1.19,-0.74,0.60,0.59,0.59
86.35,1.88,1.34,1.91,1.38,-1.38,-1.26,-0.76,0.50,0.53,0.54
87.22,1.87,1.39,1.89,1.41,-1.41,-1.33,-0.78,0.45,0.47,0.48
88.09,1.88,1.46,1.87,1.45,-1.45,-1.39,-0.79,0.42,0.41,0.42
88.97,1.88,1.52,1.85,1.50,-1.50,-1.46,-0.81,0.38,0.35,0.35
89.86,1.88,1.58,1.83,1.53,-1.53,-1.53,-0.83,0.34,0.29,0.29
90.76,1.80,1.57,1.80,1.56,-1.56,-1.59,-0.85,0.23,0.23,0.23
91.66,1.72,1.54,1.77,1.59,-1.59,-1.65,-0.87,0.12,0.17,0.18
92.58,1.68,1.57,1.73,1.62,-1.62,-1.70,-0.89,0.06,0.11,0.10
93.51,1.69,1.64,1.69,1.64,-1.64,-1.75,-0.91,0.05,0.05,0.05
94.44,1.67,1.67,1.65,1.66,-1.66,-1.79,-0.93,0.01,-0.01,-0.01
95.39,1.61,1.67,1.61,1.67,-1.67,-1.83,-0.95,-0.07,-0.07,-0.06
96.34,1.57,1.69,1.56,1.68,-1.68,-1.86,-0.98,-0.11,-0.12,-0.13
97.30,1.58,1.76,1.50,1.68,-1.68,-1.87,-1.00,-0.10,-0.18,-0.18
98.28,1.52,1.76,1.45,1.68,-1.68,-1.88,-1.02,-0.17,-0.24,-0.24
99.26,1.34,1.63,1.39,1.69,-1.69,-1.88,-1.05,-0.35,-0.30,-0.30
100.25,1.31,1.66,1.33,1.68,-1.68,-1.87,-1.07,-0.37,-0.35,-0.35
101.25,1.27,1.68,1.27,1.68,-1.68,-1.85,-1.09,-0.42,-0.41,-0.41
102.27,1.18,1.65,1.22,1.69,-1.69,-1.82,-1.12,-0.51,-0.47,-0.47
103.29,1.12,1.65,1.15,1.68,-1.68,-1.79,-1.14,-0.56,-0.53,-0.54
104.32,1.07,1.65,1.08,1.67,-1.67,-1.75,-1.16,-0.60,-0.59,-0.58
105.37,1.00,1.64,1.00,1.65,-1.65,-1.70,-1.19,-0.65,-0.65,-0.64
106.42,0.89,1.59,0.93,1.64,-1.64,-1.65,-1.21,-0.75,-0.71,-0.70
107.48,0.89,1.65,0.85,1.63,-1.63,-1.59,-1.23,-0.74,-0.77,-0.77
108.56,0.86,1.69,0.78,1.61,-1.61,-1.53,-1.25,-0.76,-0.83,-0.84
109.64,0.68,1.57,0.71,1.60,-1.60,-1.47,-1.27,-0.93,-0.90,-0.89
110.74,0.62,1.58,0.63,1.59,-1.59,-1.41,-1.29,-0.97,-0.96,-0.96
111.85,0.63,1.63,0.54,1.56,-1.56,-1.35,-1.30,-0.93,-1.02,-1.01
112.97,0.45,1.53,0.46,1.53,-1.53,-1.28,-1.32,-1.09,-1.08,-1.08
114.10,0.28,1.42,0.37,1.51,-1.51,-1.22,-1.33,-1.23,-1.14,-1.14
115.24,0.22,1.41,0.28,1.47,-1.47,-1.16,-1.34,-1.25,-1.19,-1.20
116.39,0.17,1.43,0.17,1.41,-1.41,-1.10,-1.35,-1.25,-1.25,-1.26
117.55,0.10,1.40,0.04,1.35,-1.35,-1.05,-1.35,-1.25,-1.30,-1.31
118.73,-0.07,1.29,-0.08,1.27,-1.27,-0.99,-1.36,-1.35,-1.35,-1.36
119.92,-0.15,1.24,-0.21,1.19,-1.19,-0.94,-1.36,-1.34,-1.40,-1.40
121.12,-0.32,1.13,-0.36,1.09,-1.09,-0.89,-1.35,-1.41,-1.44,-1.45
122.33,-0.46,1.03,-0.50,0.99,-0.99,-0.84,-1.34,-1.45,-1.49,-1.49
123.55,-0.55,0.97,-0.66,0.87,-0.87,-0.79,-1.33,-1.43,-1.53,-1.53
124.79,-0.72,0.85,-0.81,0.76,-0.76,-0.74,-1.32,-1.49,-1.57,-1.57
126.03,-0.91,0.70,-0.95,0.66,-0.66,-0.70,-1.30,-1.57,-1.61,-1.61
127.29,-1.20,0.44,-1.09,0.56,-0.56,-0.66,-1.28,-1.77,-1.65,-1.64
128.57,-1.40,0.29,-1.23,0.46,-0.46,-0.62,-1.26,-1.86,-1.69,-1.69
129.85,-1.40,0.33,-1.38,0.35,-0.35,-0.58,-1.23,-1.75,-1.73,-1.73
131.15,-1.50,0.27,-1.52,0.24,-0.24,-0.55,-1.20,-1.75,-1.77,-1.77
132.46,-1.70,0.10,-1.65,0.15,-0.15,-0.51,-1.17,-1.86,-1.80,-1.81
133.79,-1.83,0.01,-1.77,0.08,-0.08,-0.48,-1.13,-1.91,-1.84,-1.84
135.12,-1.79,0.10,-1.86,0.02,-0.02,-0.45,-1.09,-1.81,-1.88,-1.89
136.48,-1.85,0.06,-1.94,-0.03,0.03,-0.42,-1.05,-1.82,-1.91,-1.91
137.84,-1.91,0.04,-2.00,-0.05,0.05,-0.39,-1.01,-1.86,-1.95,-1.96
139.22,-1.98,0.02,-2.02,-0.04,0.04,-0.36,-0.96,-1.95,-1.99,-2.00
140.61,-2.04,-0.00,-2.01,0.02,-0.02,-0.33,-0.91,-2.06,-2.03,-2.04
142.02,-2.21,-0.15,-1.97,0.10,-0.10,-0.30,-0.86,-2.31,-2.07,-2.06
143.44,-2.22,-0.12,-1.92,0.19,-0.19,-0.28,-0.80,-2.41,-2.11,-2.10
144.87,-2.12,0.03,-1.89,0.27,-0.27,-0.25,-0.75,-2.39,-2.16,-2.15
146.32,-1.89,0.31,-1.85,0.36,-0.36,-0.22,-0.69,-2.25,-2.21,-2.20
147.78,-1.80,0.44,-1.82,0.45,-0.45,-0.20,-0.63,-2.25,-2.27,-2.24
149.26,-1.79,0.50,-1.80,0.53,-0.53,-0.17,-0.57,-2.32,-2.33,-2.30
150.75,-1.65,0.72,-1.79,0.60,-0.60,-0.15,-0.51,-2.26,-2.39,-2.37
152.26,-1.50,0.94,-1.80,0.67,-0.67,-0.12,-0.45,-2.17,-2.46,-2.45
153.78,-1.40,1.12,-1.82,0.72,-0.72,-0.10,-0.38,-2.12,-2.54,-2.52
155.32,-1.54,1.06,-1.85,0.77,-0.77,-0.07,-0.32,-2.31,-2.61,-2.60
156.88,-1.80,0.88,-1.88,0.81,-0.81,-0.05,-0.25,-2.61,-2.69,-2.68
158.44,-2.08,0.69,-1.94,0.83,-0.83,-0.02,-0.19,-2.91,-2.77,-2.77
160.03,-2.32,0.54,-2.03,0.81,-0.81,0.00,-0.12,-3.14,-2.85,-2.86
161.63,-2.42,0.52,-2.15,0.77,-0.77,0.03,-0.05,-3.19,-2.92,-2.94
163.24,-2.47,0.54,-2.33,0.66,-0.66,0.06,0.02,-3.13,-2.99,-3.01
164.88,-2.56,0.50,-2.54,0.51,-0.51,0.08,0.08,-3.07,-3.05,-3.07
166.53,-2.72,0.40,-2.76,0.34,-0.34,0.11,0.15,-3.06,-3.10,-3.12
168.19,-2.94,0.22,-3.01,0.14,-0.14,0.14,0.22,-3.08,-3.15,-3.17
169.87,-2.97,0.24,-3.25,-0.07,0.07,0.17,0.30,-2.91,-3.19,-3.21
171.57,-3.05,0.18,-3.49,-0.27,0.27,0.20,0.37,-2.79,-3.22,-3.23
173.29,-3.40,-0.15,-3.71,-0.46,0.46,0.24,0.44,-2.94,-3.24,-3.26
175.02,-3.79,-0.53,-3.92,-0.65,0.65,0.27,0.51,-3.14,-3.26,-3.27
176.77,-4.14,-0.86,-4.11,-0.83,0.83,0.31,0.58,-3.31,-3.28,-3.29
178.54,-4.61,-1.32,-4.30,-1.01,1.01,0.35,0.66,-3.61,-3.29,-3.30
180.32,-5.11,-1.82,-4.46,-1.16,1.16,0.39,0.73,-3.96,-3.30,-3.29
182.13,-4.91,-1.62,-4.58,-1.27,1.27,0.43,0.81,-3.65,-3.32,-3.29
183.95,-4.70,-1.39,-4.67,-1.34,1.34,0.48,0.88,-3.36,-3.33,-3.31
185.79,-4.96,-1.65,-4.73,-1.39,1.39,0.53,0.95,-3.57,-3.34,-3.32
187.65,-4.78,-1.44,-4.77,-1.42,1.42,0.58,1.03,-3.37,-3.35,-3.34
189.52,-4.87,-1.52,-4.79,-1.43,1.43,0.63,1.11,-3.45,-3.37,-3.36
191.42,-4.87,-1.49,-4.80,-1.42,1.42,0.69,1.18,-3.46,-3.38,-3.38
193.33,-4.64,-1.24,-4.79,-1.39,1.39,0.76,1.26,-3.26,-3.40,-3.40
195.27,-4.54,-1.12,-4.78,-1.36,1.36,0.82,1.33,-3.19,-3.42,-3.42
197.22,-4.54,-1.10,-4.78,-1.33,1.33,0.90,1.41,-3.21,-3.45,-3.45
199.19,-4.39,-0.92,-4.78,-1.31,1.31,0.97,1.48,-3.08,-3.47,-3.48
201.18,-4.51,-1.02,-4.83,-1.33,1.33,1.06,1.56,-3.18,-3.49,-3.50
203.19,-4.84,-1.33,-4.92,-1.40,1.40,1.15,1.63,-3.44,-3.52,-3.52
205.23,-5.08,-1.54,-5.03,-1.49,1.49,1.24,1.71,-3.60,-3.54,-3.55
207.28,-5.18,-1.63,-5.11,-1.54,1.54,1.34,1.78,-3.64,-3.57,-3.55
209.35,-5.35,-1.77,-5.21,-1.62,1.62,1.45,1.85,-3.73,-3.59,-3.58
211.44,-5.55,-1.93,-5.31,-1.70,1.70,1.56,1.92,-3.86,-3.61,-3.62
213.56,-5.59,-1.97,-5.40,-1.77,1.77,1.69,1.99,-3.82,-3.63,-3.63
215.69,-5.62,-1.98,-5.48,-1.84,1.84,1.82,2.06,-3.79,-3.64,-3.64
217.85,-5.61,-1.95,-5.56,-1.90,1.90,1.95,2.13,-3.72,-3.66,-3.66
220.03,-5.77,-2.10,-5.63,-1.96,1.96,2.09,2.19,-3.81,-3.67,-3.67
222.23,-5.84,-2.15,-5.72,-2.04,2.04,2.24,2.25,-3.80,-3.68,-3.70
224.45,-5.87,-2.18,-5.81,-2.13,2.13,2.40,2.30,-3.75,-3.69,-3.69
226.70,-5.74,-2.05,-5.92,-2.23,2.23,2.55,2.35,-3.52,-3.69,-3.70
228.96,-5.63,-1.95,-6.04,-2.35,2.35,2.71,2.40,-3.28,-3.69,-3.69
231.25,-5.89,-2.21,-6.19,-2.51,2.51,2.86,2.45,-3.38,-3.68,-3.68
233.57,-6.01,-2.34,-6.34,-2.67,2.67,3.01,2.48,-3.34,-3.67,-3.67
235.90,-6.10,-2.44,-6.50,-2.84,2.84,3.15,2.52,-3.27,-3.66,-3.66
238.26,-6.43,-2.78,-6.65,-3.00,3.00,3.28,2.55,-3.43,-3.65,-3.66
240.64,-6.96,-3.33,-6.77,-3.14,3.14,3.39,2.57,-3.82,-3.63,-3.64
243.05,-7.23,-3.63,-6.88,-3.27,3.27,3.48,2.59,-3.96,-3.61,-3.61
245.48,-7.39,-3.81,-6.97,-3.38,3.38,3.54,2.60,-4.01,-3.59,-3.59
247.93,-7.47,-3.92,-7.04,-3.47,3.47,3.58,2.60,-4.00,-3.57,-3.56
250.41,-7.42,-3.88,-7.10,-3.55,3.55,3.58,2.60,-3.87,-3.55,-3.55
252.92,-7.30,-3.79,-7.13,-3.60,3.60,3.55,2.59,-3.70,-3.53,-3.52
255.45,-7.19,-3.70,-7.12,-3.62,3.62,3.49,2.58,-3.58,-3.50,-3.50
258.00,-6.90,-3.43,-7.06,-3.58,3.58,3.40,2.56,-3.33,-3.48,-3.47
260.58,-6.68,-3.22,-6.97,-3.51,3.51,3.29,2.53,-3.17,-3.46,-3.46
263.19,-6.55,-3.12,-6.85,-3.41,3.41,3.16,2.50,-3.14,-3.43,-3.43
265.82,-6.43,-3.02,-6.68,-3.27,3.27,3.01,2.46,-3.16,-3.41,-3.42
268.48,-6.43,-3.04,-6.49,-3.11,3.11,2.85,2.42,-3.33,-3.39,-3.39
271.16,-6.36,-3.00,-6.31,-2.94,2.94,2.68,2.37,-3.42,-3.36,-3.36
273.87,-6.22,-2.87,-6.12,-2.78,2.78,2.51,2.32,-3.44,-3.34,-3.35
276.61,-6.07,-2.76,-5.93,-2.61,2.61,2.33,2.27,-3.46,-3.32,-3.31
279.38,-5.89,-2.60,-5.74,-2.45,2.45,2.16,2.21,-3.44,-3.29,-3.29
282.17,-5.61,-2.35,-5.55,-2.29,2.29,2.00,2.14,-3.32,-3.27,-3.27
284.99,-5.39,-2.16,-5.36,-2.12,2.12,1.83,2.07,-3.27,-3.24,-3.23
287.84,-5.20,-1.98,-5.16,-1.95,1.95,1.68,2.00,-3.25,-3.21,-3.22
290.72,-4.94,-1.76,-4.95,-1.77,1.77,1.53,1.93,-3.17,-3.18,-3.18
293.63,-4.59,-1.43,-4.72,-1.57,1.57,1.39,1.85,-3.02,-3.15,-3.16
296.57,-4.39,-1.27,-4.49,-1.36,1.36,1.25,1.78,-3.03,-3.13,-3.12
299.53,-4.22,-1.12,-4.25,-1.15,1.15,1.12,1.70,-3.07,-3.10,-3.10
302.53,-4.02,-0.94,-4.03,-0.96,0.96,1.00,1.62,-3.06,-3.07,-3.08
305.55,-3.81,-0.77,-3.83,-0.78,0.78,0.89,1.54,-3.04,-3.05,-3.04
308.61,-3.63,-0.61,-3.63,-0.60,0.60,0.78,1.45,-3.03,-3.03,-3.02
311.69,-3.49,-0.50,-3.44,-0.43,0.43,0.68,1.37,-3.06,-3.00,-3.00
314.81,-3.24,-0.27,-3.26,-0.28,0.28,0.58,1.29,-2.96,-2.98,-2.97
317.96,-3.07,-0.12,-3.09,-0.13,0.13,0.49,1.20,-2.94,-2.96,-2.95
321.14,-2.90,0.05,-2.93,0.01,-0.01,0.40,1.12,-2.91,-2.94,-2.95
324.35,-2.78,0.15,-2.79,0.14,-0.14,0.32,1.03,-2.93,-2.93,-2.93
327.59,-2.68,0.23,-2.65,0.27,-0.27,0.25,0.95,-2.95,-2.91,-2.92
330.87,-2.58,0.33,-2.52,0.38,-0.38,0.18,0.86,-2.96,-2.90,-2.91
334.18,-2.49,0.40,-2.42,0.47,-0.47,0.11,0.78,-2.96,-2.89,-2.89
337.52,-2.35,0.53,-2.34,0.54,-0.54,0.04,0.69,-2.89,-2.88,-2.88
340.90,-2.18,0.68,-2.29,0.59,-0.59,-0.02,0.61,-2.77,-2.87,-2.87
344.30,-2.16,0.70,-2.25,0.62,-0.62,-0.08,0.52,-2.79,-2.87,-2.86
347.75,-2.16,0.70,-2.23,0.64,-0.64,-0.14,0.44,-2.80,-2.86,-2.86
351.23,-2.08,0.77,-2.23,0.63,-0.63,-0.19,0.36,-2.71,-2.86,-2.86
354.74,-2.08,0.78,-2.24,0.61,-0.61,-0.24,0.27,-2.70,-2.85,-2.86
358.28,-2.15,0.70,-2.25,0.60,-0.60,-0.29,0.19,-2.75,-2.85,-2.85
361.87,-2.29,0.56,-2.27,0.58,-0.58,-0.34,0.11,-2.87,-2.85,-2.85
365.49,-2.42,0.42,-2.29,0.57,-0.57,-0.39,0.02,-2.99,-2.85,-2.85
369.14,-2.44,0.41,-2.30,0.55,-0.55,-0.43,-0.06,-2.99,-2.85,-2.86
372.83,-2.44,0.42,-2.32,0.54,-0.54,-0.47,-0.14,-2.98,-2.85,-2.86
376.56,-2.43,0.43,-2.33,0.53,-0.53,-0.51,-0.22,-2.96,-2.86,-2.86
380.33,-2.42,0.43,-2.33,0.54,-0.54,-0.55,-0.30,-2.96,-2.86,-2.85
384.13,-2.40,0.45,-2.31,0.56,-0.56,-0.59,-0.39,-2.96,-2.86,-2.86
387.97,-2.33,0.53,-2.28,0.59,-0.59,-0.63,-0.47,-2.92,-2.87,-2.87
391.85,-2.18,0.70,-2.25,0.63,-0.63,-0.67,-0.55,-2.81,-2.87,-2.88
395.77,-2.11,0.76,-2.20,0.68,-0.68,-0.70,-0.63,-2.79,-2.88,-2.87
399.73,-2.10,0.78,-2.15,0.73,-0.73,-0.74,-0.70,-2.84,-2.89,-2.88
403.72,-2.03,0.85,-2.11,0.79,-0.79,-0.77,-0.78,-2.82,-2.89,-2.88
407.76,-2.01,0.88,-2.06,0.84,-0.84,-0.80,-0.86,-2.85,-2.90,-2.89
411.84,-1.94,0.95,-2.02,0.88,-0.88,-0.84,-0.94,-2.82,-2.90,-2.90
415.96,-1.91,0.98,-1.98,0.92,-0.92,-0.87,-1.01,-2.83,-2.90,-2.90
420.12,-1.91,0.99,-1.94,0.96,-0.96,-0.90,-1.09,-2.87,-2.90,-2.90
424.32,-1.90,1.00,-1.90,1.00,-1.00,-0.93,-1.16,-2.90,-2.89,-2.90
428.56,-1.89,1.00,-1.85,1.03,-1.03,-0.96,-1.23,-2.92,-2.88,-2.89
432.85,-1.88,1.00,-1.81,1.06,-1.06,-0.99,-1.30,-2.94,-2.87,-2.88
437.18,-1.85,1.02,-1.76,1.09,-1.09,-1.02,-1.37,-2.94,-2.85,-2.87
441.55,-1.82,1.01,-1.70,1.12,-1.12,-1.05,-1.44,-2.94,-2.82,-2.83
445.96,-1.73,1.07,-1.64,1.16,-1.16,-1.08,-1.50,-2.89,-2.79,-2.81
450.42,-1.54,1.23,-1.57,1.19,-1.19,-1.10,-1.56,-2.73,-2.76,-2.78
454.93,-1.46,1.26,-1.49,1.22,-1.22,-1.13,-1.62,-2.69,-2.72,-2.73
459.48,-1.37,1.31,-1.42,1.26,-1.26,-1.16,-1.68,-2.63,-2.67,-2.68
464.07,-1.25,1.38,-1.33,1.29,-1.29,-1.19,-1.73,-2.55,-2.63,-2.63
468.71,-1.19,1.38,-1.24,1.34,-1.34,-1.21,-1.78,-2.53,-2.58,-2.57
473.40,-1.12,1.41,-1.15,1.38,-1.38,-1.24,-1.83,-2.50,-2.53,-2.53
478.13,-1.07,1.40,-1.06,1.42,-1.42,-1.27,-1.87,-2.49,-2.48,-2.47
482.91,-1.01,1.42,-0.97,1.46,-1.46,-1.29,-1.91,-2.48,-2.44,-2.43
487.74,-0.90,1.49,-0.89,1.50,-1.50,-1.32,-1.95,-2.40,-2.39,-2.39
