frequency,raw,error,smoothed,error_smoothed,equalization,parametric_eq,fixed_band_eq,equalized_raw,equalized_smoothed,target
20.00,-2.14,-4.00,-2.08,-3.96,3.96,3.02,0.96,1.82,1.88,1.85
20.20,-2.05,-3.96,-2.01,-3.93,3.93,3.10,0.99,1.88,1.92,1.90
20.40,-1.96,-3.92,-1.95,-3.90,3.90,3.18,1.02,1.94,1.96,1.95
20.61,-1.86,-3.85,-1.88,-3.87,3.87,3.25,1.05,2.01,1.99,1.98
20.81,-1.77,-3.81,-1.82,-3.84,3.84,3.32,1.08,2.07,2.02,2.03
21.02,-1.69,-3.77,-1.75,-3.80,3.80,3.38,1.11,2.11,2.05,2.07
21.23,-1.64,-3.74,-1.69,-3.76,3.76,3.43,1.15,2.12,2.07,2.09
21.44,-1.59,-3.71,-1.63,-3.72,3.72,3.47,1.18,2.13,2.10,2.11
21.66,-1.54,-3.68,-1.56,-3.68,3.68,3.50,1.22,2.13,2.12,2.13
21.87,-1.49,-3.64,-1.50,-3.63,3.63,3.52,1.26,2.14,2.13,2.14
22.09,-1.44,-3.61,-1.44,-3.59,3.59,3.53,1.30,2.14,2.15,2.16
22.31,-1.38,-3.56,-1.37,-3.54,3.54,3.53,1.34,2.15,2.16,2.17
22.54,-1.32,-3.50,-1.32,-3.49,3.49,3.51,1.38,2.16,2.17,2.17
22.76,-1.27,-3.45,-1.26,-3.44,3.44,3.49,1.42,2.16,2.17,2.17
22.99,-1.21,-3.38,-1.21,-3.38,3.38,3.46,1.46,2.17,2.18,2.16
23.22,-1.15,-3.32,-1.15,-3.32,3.32,3.42,1.50,2.17,2.18,2.16
23.45,-1.09,-3.26,-1.08,-3.26,3.26,3.37,1.55,2.17,2.18,2.16
23.69,-1.02,-3.20,-1.01,-3.19,3.19,3.31,1.59,2.17,2.18,2.17
23.92,-0.96,-3.14,-0.94,-3.12,3.12,3.24,1.64,2.16,2.18,2.17
24.16,-0.89,-3.07,-0.87,-3.05,3.05,3.17,1.69,2.15,2.18,2.17
24.40,-0.81,-2.99,-0.80,-2.98,2.98,3.09,1.73,2.16,2.18,2.18
24.65,-0.73,-2.91,-0.73,-2.91,2.91,3.01,1.78,2.17,2.17,2.17
24.89,-0.65,-2.83,-0.66,-2.84,2.84,2.92,1.83,2.19,2.18,2.17
25.14,-0.58,-2.76,-0.60,-2.78,2.78,2.84,1.88,2.19,2.18,2.17
25.39,-0.51,-2.70,-0.53,-2.71,2.71,2.75,1.93,2.20,2.18,2.18
25.65,-0.44,-2.63,-0.47,-2.65,2.65,2.66,1.98,2.20,2.18,2.18
25.91,-0.37,-2.55,-0.41,-2.58,2.58,2.57,2.02,2.21,2.18,2.17
26.16,-0.32,-2.50,-0.35,-2.52,2.52,2.48,2.07,2.20,2.18,2.17
26.43,-0.29,-2.47,-0.30,-2.47,2.47,2.39,2.12,2.18,2.17,2.17
26.69,-0.26,-2.44,-0.24,-2.42,2.42,2.30,2.16,2.15,2.17,2.17
26.96,-0.23,-2.41,-0.20,-2.37,2.37,2.21,2.21,2.13,2.17,2.17
27.23,-0.17,-2.35,-0.15,-2.32,2.32,2.13,2.25,2.15,2.17,2.17
27.50,-0.10,-2.28,-0.10,-2.27,2.27,2.05,2.29,2.17,2.17,2.17
27.77,-0.04,-2.21,-0.05,-2.22,2.22,1.96,2.33,2.18,2.17,2.16
28.05,0.02,-2.15,-0.01,-2.17,2.17,1.89,2.37,2.19,2.16,2.16
28.33,0.05,-2.11,0.04,-2.12,2.12,1.81,2.40,2.17,2.16,2.15
28.62,0.08,-2.08,0.09,-2.07,2.07,1.74,2.43,2.14,2.16,2.15
28.90,0.10,-2.07,0.14,-2.02,2.02,1.67,2.46,2.12,2.16,2.16
29.19,0.16,-2.00,0.19,-1.97,1.97,1.60,2.49,2.13,2.16,2.15
29.48,0.24,-1.93,0.24,-1.92,1.92,1.53,2.50,2.16,2.16,2.16
29.78,0.31,-1.85,0.28,-1.87,1.87,1.47,2.52,2.18,2.16,2.15
30.08,0.38,-1.79,0.33,-1.83,1.83,1.41,2.53,2.20,2.15,2.16
30.38,0.41,-1.75,0.37,-1.78,1.78,1.35,2.54,2.19,2.15,2.15
30.68,0.44,-1.72,0.42,-1.73,1.73,1.29,2.54,2.17,2.15,2.15
30.99,0.47,-1.69,0.46,-1.69,1.69,1.24,2.54,2.15,2.15,2.15
31.30,0.50,-1.65,0.51,-1.64,1.64,1.19,2.53,2.14,2.15,2.14
31.61,0.53,-1.62,0.55,-1.59,1.59,1.14,2.52,2.12,2.14,2.14
31.93,0.56,-1.59,0.60,-1.54,1.54,1.09,2.50,2.10,2.14,2.14
32.24,0.62,-1.52,0.65,-1.49,1.49,1.04,2.48,2.11,2.14,2.13
32.57,0.68,-1.46,0.69,-1.45,1.45,1.00,2.45,2.12,2.13,2.13
32.89,0.75,-1.39,0.72,-1.40,1.40,0.95,2.42,2.15,2.13,2.13
33.22,0.79,-1.34,0.76,-1.36,1.36,0.91,2.38,2.15,2.12,2.12
33.55,0.83,-1.30,0.81,-1.31,1.31,0.87,2.34,2.14,2.12,2.12
33.89,0.86,-1.26,0.85,-1.26,1.26,0.83,2.30,2.12,2.11,2.11
34.23,0.90,-1.22,0.90,-1.21,1.21,0.80,2.25,2.10,2.11,2.11
34.57,0.95,-1.16,0.95,-1.15,1.15,0.76,2.20,2.10,2.11,2.10
34.92,1.00,-1.11,1.00,-1.10,1.10,0.73,2.14,2.10,2.10,2.10
35.27,1.03,-1.07,1.04,-1.06,1.06,0.69,2.09,2.08,2.10,2.09
35.62,1.05,-1.05,1.08,-1.02,1.02,0.66,2.03,2.07,2.10,2.09
35.97,1.08,-1.02,1.11,-0.98,0.98,0.63,1.96,2.06,2.09,2.09
36.33,1.15,-0.95,1.14,-0.95,0.95,0.60,1.90,2.10,2.09,2.09
36.70,1.22,-0.87,1.17,-0.92,0.92,0.57,1.83,2.13,2.09,2.08
37.06,1.28,-0.81,1.20,-0.89,0.89,0.54,1.77,2.16,2.09,2.08
37.43,1.28,-0.82,1.23,-0.86,0.86,0.51,1.70,2.13,2.09,2.09
37.81,1.28,-0.82,1.26,-0.83,0.83,0.49,1.63,2.11,2.09,2.09
38.19,1.28,-0.81,1.29,-0.80,0.80,0.46,1.56,2.08,2.09,2.08
38.57,1.28,-0.82,1.31,-0.78,0.78,0.44,1.49,2.05,2.09,2.09
38.95,1.28,-0.83,1.34,-0.75,0.75,0.41,1.41,2.03,2.09,2.10
39.34,1.34,-0.76,1.37,-0.72,0.72,0.39,1.34,2.06,2.09,2.09
39.74,1.40,-0.70,1.40,-0.69,0.69,0.37,1.27,2.09,2.09,2.09
40.14,1.45,-0.65,1.43,-0.66,0.66,0.34,1.20,2.11,2.09,2.09
40.54,1.46,-0.64,1.46,-0.63,0.63,0.32,1.12,2.09,2.09,2.09
40.94,1.48,-0.61,1.49,-0.60,0.60,0.30,1.05,2.08,2.09,2.08
41.35,1.52,-0.57,1.52,-0.56,0.56,0.28,0.98,2.08,2.08,2.08
41.76,1.56,-0.52,1.55,-0.52,0.52,0.26,0.91,2.08,2.07,2.07
42.18,1.60,-0.48,1.59,-0.48,0.48,0.24,0.83,2.08,2.07,2.07
42.60,1.64,-0.43,1.62,-0.44,0.44,0.22,0.76,2.07,2.06,2.06
43.03,1.68,-0.38,1.65,-0.39,0.39,0.19,0.69,2.07,2.04,2.05
43.46,1.69,-0.36,1.68,-0.35,0.35,0.18,0.62,2.04,2.03,2.04
43.90,1.70,-0.33,1.71,-0.31,0.31,0.16,0.55,2.01,2.02,2.02
44.33,1.73,-0.28,1.73,-0.28,0.28,0.14,0.48,2.01,2.01,2.00
44.78,1.76,-0.23,1.75,-0.25,0.25,0.12,0.41,2.00,2.00,1.98
45.23,1.78,-0.20,1.77,-0.21,0.21,0.10,0.34,1.99,1.98,1.97
45.68,1.78,-0.19,1.79,-0.18,0.18,0.08,0.27,1.95,1.97,1.96
46.13,1.79,-0.16,1.81,-0.14,0.14,0.06,0.20,1.93,1.95,1.94
46.60,1.84,-0.11,1.83,-0.11,0.11,0.04,0.13,1.95,1.94,1.94
47.06,1.88,-0.05,1.84,-0.08,0.08,0.02,0.07,1.96,1.92,1.92
47.53,1.88,-0.04,1.86,-0.05,0.05,0.00,-0.00,1.93,1.91,1.91
48.01,1.88,-0.04,1.88,-0.02,0.02,-0.02,-0.07,1.89,1.90,1.91
48.49,1.88,-0.02,1.90,0.02,-0.02,-0.03,-0.13,1.86,1.88,1.89
48.97,1.88,0.00,1.92,0.05,-0.05,-0.05,-0.20,1.83,1.87,1.87
49.46,1.93,0.07,1.94,0.08,-0.08,-0.07,-0.26,1.85,1.86,1.85
49.96,1.98,0.14,1.96,0.11,-0.11,-0.09,-0.33,1.86,1.84,1.83
50.46,1.98,0.15,1.98,0.15,-0.15,-0.11,-0.39,1.83,1.83,1.82
50.96,1.98,0.16,1.99,0.18,-0.18,-0.13,-0.46,1.80,1.82,1.81
51.47,2.00,0.20,2.01,0.21,-0.21,-0.15,-0.52,1.79,1.80,1.79
51.99,2.03,0.24,2.02,0.23,-0.23,-0.17,-0.58,1.79,1.79,1.78
52.51,2.06,0.28,2.04,0.26,-0.26,-0.19,-0.64,1.80,1.78,1.77
53.03,2.08,0.30,2.05,0.29,-0.29,-0.21,-0.70,1.79,1.76,1.77
53.56,2.08,0.32,2.06,0.31,-0.31,-0.23,-0.76,1.77,1.75,1.75
54.10,2.08,0.33,2.07,0.33,-0.33,-0.25,-0.82,1.75,1.74,1.74
54.64,2.08,0.35,2.08,0.35,-0.35,-0.28,-0.87,1.73,1.73,1.72
55.18,2.08,0.35,2.08,0.35,-0.35,-0.30,-0.93,1.72,1.72,1.72
55.74,2.08,0.37,2.07,0.36,-0.36,-0.32,-0.98,1.71,1.71,1.70
56.29,2.08,0.38,2.08,0.38,-0.38,-0.34,-1.03,1.70,1.70,1.69
56.86,2.08,0.39,2.08,0.39,-0.39,-0.37,-1.08,1.68,1.68,1.68
57.42,2.08,0.42,2.08,0.41,-0.41,-0.39,-1.13,1.66,1.67,1.65
58.00,2.08,0.43,2.08,0.43,-0.43,-0.42,-1.17,1.64,1.65,1.64
58.58,2.08,0.44,2.08,0.46,-0.46,-0.44,-1.21,1.62,1.62,1.63
59.16,2.08,0.46,2.09,0.49,-0.49,-0.47,-1.25,1.58,1.60,1.61
59.76,2.08,0.48,2.10,0.53,-0.53,-0.50,-1.29,1.55,1.57,1.59
60.35,2.08,0.52,2.11,0.57,-0.57,-0.53,-1.32,1.51,1.54,1.55
60.96,2.08,0.56,2.12,0.61,-0.61,-0.56,-1.35,1.47,1.51,1.51
61.57,2.14,0.66,2.13,0.66,-0.66,-0.58,-1.38,1.48,1.47,1.47
62.18,2.18,0.74,2.14,0.70,-0.70,-0.62,-1.41,1.47,1.43,1.43
62.80,2.18,0.79,2.15,0.76,-0.76,-0.65,-1.43,1.42,1.39,1.38
63.43,2.18,0.83,2.16,0.81,-0.81,-0.68,-1.45,1.37,1.35,1.34
64.07,2.18,0.88,2.16,0.86,-0.86,-0.71,-1.47,1.32,1.30,1.29
64.71,2.18,0.92,2.17,0.91,-0.91,-0.75,-1.48,1.26,1.26,1.25
65.35,2.18,0.96,2.18,0.96,-0.96,-0.79,-1.49,1.21,1.21,1.21
66.01,2.18,1.01,2.18,1.02,-1.02,-0.82,-1.50,1.16,1.17,1.16
66.67,2.18,1.06,2.18,1.07,-1.07,-0.86,-1.51,1.11,1.12,1.11
67.33,2.18,1.11,2.19,1.12,-1.12,-0.90,-1.52,1.06,1.07,1.06
68.01,2.18,1.15,2.19,1.17,-1.17,-0.94,-1.52,1.01,1.02,1.02
68.69,2.18,1.20,2.19,1.22,-1.22,-0.99,-1.52,0.96,0.97,0.97
69.37,2.18,1.25,2.18,1.27,-1.27,-1.03,-1.52,0.91,0.92,0.92
70.07,2.18,1.30,2.18,1.32,-1.32,-1.08,-1.52,0.86,0.87,0.87
70.77,2.18,1.35,2.18,1.37,-1.37,-1.12,-1.51,0.81,0.81,0.82
71.48,2.18,1.40,2.18,1.42,-1.42,-1.17,-1.51,0.76,0.76,0.77
72.19,2.18,1.47,2.17,1.47,-1.47,-1.22,-1.50,0.71,0.70,0.70
72.91,2.18,1.53,2.17,1.52,-1.52,-1.27,-1.50,0.66,0.65,0.64
73.64,2.18,1.58,2.16,1.57,-1.57,-1.33,-1.49,0.61,0.59,0.59
74.38,2.18,1.64,2.14,1.61,-1.61,-1.38,-1.48,0.57,0.54,0.53
75.12,2.17,1.69,2.13,1.65,-1.65,-1.44,-1.48,0.52,0.48,0.47
75.87,2.09,1.67,2.11,1.69,-1.69,-1.49,-1.47,0.40,0.42,0.41
76.63,2.08,1.71,2.10,1.73,-1.73,-1.55,-1.46,0.35,0.37,0.36
77.40,2.08,1.76,2.08,1.77,-1.77,-1.61,-1.46,0.31,0.31,0.31
78.17,2.08,1.82,2.07,1.81,-1.81,-1.67,-1.45,0.27,0.26,0.25
78.95,2.06,1.84,2.05,1.84,-1.84,-1.73,-1.45,0.22,0.21,0.21
79.74,2.00,1.83,2.03,1.87,-1.87,-1.79,-1.44,0.13,0.16,0.16
80.54,1.98,1.86,2.01,1.90,-1.90,-1.85,-1.44,0.08,0.11,0.11
81.35,1.98,1.91,2.00,1.93,-1.93,-1.91,-1.43,0.05,0.07,0.06
82.16,1.98,1.96,1.98,1.97,-1.97,-1.97,-1.43,0.01,0.02,0.01
82.98,1.98,2.00,1.97,2.00,-2.00,-2.03,-1.43,-0.03,-0.03,-0.03
83.81,1.98,2.05,1.96,2.04,-2.04,-2.09,-1.43,-0.06,-0.08,-0.08
84.65,1.98,2.10,1.94,2.07,-2.07,-2.14,-1.43,-0.09,-0.13,-0.13
85.50,1.94,2.10,1.93,2.10,-2.10,-2.19,-1.43,-0.17,-0.17,-0.17
86.35,1.88,2.09,1.91,2.13,-2.13,-2.24,-1.43,-0.26,-0.22,-0.22
87.22,1.87,2.13,1.89,2.16,-2.16,-2.29,-1.44,-0.29,-0.27,-0.27
88.09,1.88,2.19,1.87,2.19,-2.19,-2.33,-1.44,-0.31,-0.32,-0.32
88.97,1.88,2.25,1.85,2.23,-2.23,-2.37,-1.45,-0.35,-0.37,-0.38
89.86,1.88,2.30,1.83,2.25,-2.25,-2.40,-1.46,-0.38,-0.43,-0.43
90.76,1.80,2.27,1.80,2.27,-2.27,-2.43,-1.47,-0.48,-0.48,-0.48
91.66,1.72,2.24,1.77,2.29,-2.29,-2.45,-1.48,-0.58,-0.53,-0.53
92.58,1.68,2.26,1.73,2.31,-2.31,-2.46,-1.49,-0.63,-0.58,-0.59
93.51,1.69,2.32,1.69,2.32,-2.32,-2.47,-1.50,-0.63,-0.63,-0.64
94.44,1.67,2.34,1.65,2.33,-2.33,-2.47,-1.51,-0.66,-0.68,-0.68
95.39,1.61,2.33,1.61,2.34,-2.34,-2.47,-1.53,-0.73,-0.73,-0.73
96.34,1.57,2.34,1.56,2.33,-2.33,-2.46,-1.54,-0.77,-0.78,-0.78
97.30,1.58,2.40,1.50,2.32,-2.32,-2.44,-1.56,-0.75,-0.83,-0.83
98.28,1.52,2.39,1.45,2.32,-2.32,-2.42,-1.58,-0.80,-0.87,-0.88
99.26,1.34,2.25,1.39,2.31,-2.31,-2.39,-1.59,-0.97,-0.92,-0.92
100.25,1.31,2.27,1.33,2.30,-2.30,-2.36,-1.61,-0.99,-0.97,-0.97
101.25,1.27,2.28,1.27,2.29,-2.29,-2.32,-1.63,-1.02,-1.02,-1.02
102.27,1.18,2.24,1.22,2.28,-2.28,-2.28,-1.65,-1.10,-1.07,-1.07
103.29,1.12,2.23,1.15,2.26,-2.26,-2.23,-1.67,-1.15,-1.11,-1.12
104.32,1.07,2.22,1.08,2.24,-2.24,-2.18,-1.69,-1.17,-1.16,-1.16
105.37,1.00,2.20,1.00,2.22,-2.22,-2.13,-1.71,-1.22,-1.21,-1.21
106.42,0.89,2.14,0.93,2.20,-2.20,-2.08,-1.72,-1.31,-1.27,-1.26
107.48,0.89,2.20,0.85,2.17,-2.17,-2.02,-1.74,-1.28,-1.32,-1.32
108.56,0.86,2.22,0.78,2.15,-2.15,-1.96,-1.76,-1.29,-1.37,-1.37
109.64,0.68,2.09,0.71,2.13,-2.13,-1.91,-1.77,-1.45,-1.42,-1.42
110.74,0.62,2.09,0.63,2.10,-2.10,-1.85,-1.79,-1.49,-1.47,-1.48
111.85,0.63,2.14,0.54,2.07,-2.07,-1.79,-1.80,-1.44,-1.52,-1.52
112.97,0.45,2.02,0.46,2.03,-2.03,-1.73,-1.81,-1.58,-1.57,-1.58
114.10,0.28,1.90,0.37,2.00,-2.00,-1.67,-1.82,-1.72,-1.62,-1.63
115.24,0.22,1.89,0.28,1.95,-1.95,-1.61,-1.83,-1.73,-1.67,-1.68
116.39,0.17,1.89,0.17,1.88,-1.88,-1.55,-1.83,-1.71,-1.71,-1.73
117.55,0.10,1.86,0.04,1.80,-1.80,-1.50,-1.83,-1.71,-1.76,-1.77
118.73,-0.07,1.73,-0.08,1.72,-1.72,-1.44,-1.83,-1.79,-1.80,-1.81
119.92,-0.15,1.68,-0.21,1.62,-1.62,-1.39,-1.82,-1.77,-1.84,-1.84
121.12,-0.32,1.55,-0.36,1.51,-1.51,-1.34,-1.82,-1.83,-1.87,-1.88
122.33,-0.46,1.44,-0.50,1.40,-1.40,-1.28,-1.80,-1.86,-1.91,-1.91
123.55,-0.55,1.38,-0.66,1.28,-1.28,-1.23,-1.79,-1.83,-1.94,-1.94
124.79,-0.72,1.24,-0.81,1.16,-1.16,-1.18,-1.77,-1.88,-1.97,-1.97
126.03,-0.91,1.08,-0.95,1.05,-1.05,-1.14,-1.75,-1.96,-2.00,-2.00
127.29,-1.20,0.81,-1.09,0.94,-0.94,-1.09,-1.72,-2.14,-2.03,-2.02
128.57,-1.40,0.65,-1.23,0.83,-0.83,-1.04,-1.69,-2.23,-2.06,-2.06
129.85,-1.40,0.68,-1.38,0.71,-0.71,-1.00,-1.66,-2.11,-2.09,-2.09
131.15,-1.50,0.61,-1.52,0.59,-0.59,-0.96,-1.62,-2.10,-2.12,-2.12
132.46,-1.70,0.44,-1.65,0.49,-0.49,-0.91,-1.58,-2.19,-2.14,-2.15
133.79,-1.83,0.34,-1.77,0.41,-0.41,-0.87,-1.53,-2.24,-2.17,-2.18
135.12,-1.79,0.41,-1.86,0.34,-0.34,-0.83,-1.49,-2.13,-2.20,-2.21
136.48,-1.85,0.37,-1.94,0.28,-0.28,-0.79,-1.44,-2.14,-2.23,-2.23
137.84,-1.91,0.35,-2.00,0.25,-0.25,-0.76,-1.38,-2.16,-2.26,-2.27
139.22,-1.98,0.31,-2.02,0.26,-0.26,-0.72,-1.33,-2.24,-2.28,-2.30
140.61,-2.04,0.28,-2.01,0.31,-0.31,-0.68,-1.27,-2.35,-2.31,-2.33
142.02,-2.21,0.13,-1.97,0.38,-0.38,-0.65,-1.21,-2.59,-2.35,-2.35
143.44,-2.22,0.15,-1.92,0.46,-0.46,-0.61,-1.15,-2.68,-2.38,-2.38
144.87,-2.12,0.29,-1.89,0.53,-0.53,-0.58,-1.08,-2.66,-2.42,-2.42
146.32,-1.89,0.56,-1.85,0.62,-0.62,-0.54,-1.02,-2.51,-2.46,-2.46
147.78,-1.80,0.68,-1.82,0.70,-0.70,-0.51,-0.95,-2.50,-2.51,-2.49
149.26,-1.79,0.74,-1.80,0.77,-0.77,-0.47,-0.88,-2.56,-2.57,-2.54
150.75,-1.65,0.94,-1.79,0.84,-0.84,-0.44,-0.81,-2.49,-2.62,-2.60
152.26,-1.50,1.16,-1.80,0.89,-0.89,-0.41,-0.74,-2.39,-2.69,-2.67
153.78,-1.40,1.33,-1.82,0.93,-0.93,-0.37,-0.66,-2.34,-2.75,-2.74
155.32,-1.54,1.26,-1.85,0.97,-0.97,-0.34,-0.59,-2.52,-2.82,-2.81
156.88,-1.80,1.08,-1.88,1.01,-1.01,-0.30,-0.51,-2.81,-2.89,-2.89
158.44,-2.08,0.88,-1.94,1.02,-1.02,-0.27,-0.44,-3.10,-2.96,-2.97
160.03,-2.32,0.72,-2.03,1.00,-1.00,-0.23,-0.36,-3.32,-3.03,-3.05
161.63,-2.42,0.69,-2.15,0.95,-0.95,-0.20,-0.29,-3.37,-3.09,-3.12
163.24,-2.47,0.70,-2.33,0.83,-0.83,-0.16,-0.21,-3.30,-3.16,-3.18
164.88,-2.56,0.66,-2.54,0.67,-0.67,-0.13,-0.13,-3.23,-3.21,-3.23
166.53,-2.72,0.55,-2.76,0.50,-0.50,-0.09,-0.05,-3.22,-3.26,-3.28
168.19,-2.94,0.37,-3.01,0.29,-0.29,-0.05,0.02,-3.23,-3.30,-3.32
169.87,-2.97,0.38,-3.25,0.08,-0.08,-0.01,0.10,-3.05,-3.33,-3.36
171.57,-3.05,0.32,-3.49,-0.13,0.13,0.03,0.18,-2.93,-3.36,-3.38
173.29,-3.40,-0.02,-3.71,-0.33,0.33,0.08,0.26,-3.07,-3.38,-3.39
175.02,-3.79,-0.40,-3.92,-0.53,0.53,0.12,0.34,-3.27,-3.39,-3.40
176.77,-4.14,-0.74,-4.11,-0.71,0.71,0.17,0.42,-3.43,-3.40,-3.41
178.54,-4.61,-1.20,-4.30,-0.89,0.89,0.22,0.50,-3.72,-3.41,-3.42
180.32,-5.11,-1.71,-4.46,-1.05,1.05,0.27,0.58,-4.07,-3.41,-3.41
182.13,-4.91,-1.52,-4.58,-1.16,1.16,0.32,0.67,-3.75,-3.42,-3.40
183.95,-4.70,-1.30,-4.67,-1.24,1.24,0.38,0.75,-3.46,-3.43,-3.41
185.79,-4.96,-1.56,-4.73,-1.30,1.30,0.44,0.83,-3.67,-3.43,-3.41
187.65,-4.78,-1.36,-4.77,-1.33,1.33,0.50,0.91,-3.46,-3.44,-3.43
189.52,-4.87,-1.44,-4.79,-1.34,1.34,0.56,0.99,-3.53,-3.45,-3.44
191.42,-4.87,-1.42,-4.80,-1.34,1.34,0.63,1.08,-3.54,-3.46,-3.46
193.33,-4.64,-1.17,-4.79,-1.31,1.31,0.71,1.16,-3.33,-3.48,-3.48
195.27,-4.54,-1.05,-4.78,-1.29,1.29,0.79,1.24,-3.26,-3.49,-3.50
197.22,-4.54,-1.03,-4.78,-1.26,1.26,0.87,1.32,-3.28,-3.51,-3.52
199.19,-4.39,-0.86,-4.78,-1.25,1.25,0.96,1.41,-3.14,-3.53,-3.54
201.18,-4.51,-0.96,-4.83,-1.27,1.27,1.05,1.49,-3.24,-3.55,-3.56
203.19,-4.84,-1.27,-4.92,-1.35,1.35,1.15,1.57,-3.49,-3.57,-3.58
205.23,-5.08,-1.49,-5.03,-1.43,1.43,1.25,1.65,-3.65,-3.60,-3.60
207.28,-5.18,-1.58,-5.11,-1.49,1.49,1.36,1.73,-3.69,-3.62,-3.61
209.35,-5.35,-1.73,-5.21,-1.58,1.58,1.48,1.81,-3.78,-3.63,-3.63
211.44,-5.55,-1.90,-5.31,-1.66,1.66,1.60,1.88,-3.90,-3.65,-3.66
213.56,-5.59,-1.93,-5.40,-1.73,1.73,1.73,1.96,-3.86,-3.67,-3.67
215.69,-5.62,-1.95,-5.48,-1.80,1.80,1.86,2.03,-3.82,-3.68,-3.68
217.85,-5.61,-1.93,-5.56,-1.86,1.86,2.00,2.10,-3.75,-3.69,-3.69
220.03,-5.77,-2.08,-5.63,-1.93,1.93,2.15,2.17,-3.84,-3.70,-3.70
222.23,-5.84,-2.12,-5.72,-2.02,2.02,2.29,2.23,-3.83,-3.71,-3.73
224.45,-5.87,-2.16,-5.81,-2.10,2.10,2.44,2.29,-3.77,-3.71,-3.72
226.70,-5.74,-2.03,-5.92,-2.21,2.21,2.59,2.35,-3.54,-3.71,-3.72
228.96,-5.63,-1.93,-6.04,-2.34,2.34,2.74,2.40,-3.30,-3.70,-3.71
231.25,-5.89,-2.20,-6.19,-2.49,2.49,2.89,2.45,-3.40,-3.70,-3.70
233.57,-6.01,-2.33,-6.34,-2.66,2.66,3.03,2.49,-3.35,-3.68,-3.69
235.90,-6.10,-2.43,-6.50,-2.83,2.83,3.16,2.53,-3.28,-3.67,-3.68
238.26,-6.43,-2.77,-6.65,-2.99,2.99,3.27,2.56,-3.44,-3.65,-3.67
240.64,-6.96,-3.33,-6.77,-3.14,3.14,3.37,2.59,-3.82,-3.63,-3.64
243.05,-7.23,-3.63,-6.88,-3.27,3.27,3.45,2.61,-3.96,-3.61,-3.61
245.48,-7.39,-3.81,-6.97,-3.38,3.38,3.50,2.62,-4.01,-3.59,-3.59
247.93,-7.47,-3.92,-7.04,-3.48,3.48,3.53,2.63,-3.99,-3.57,-3.56
250.41,-7.42,-3.89,-7.10,-3.56,3.56,3.53,2.63,-3.87,-3.54,-3.54
252.92,-7.30,-3.80,-7.13,-3.61,3.61,3.51,2.62,-3.69,-3.52,-3.51
255.45,-7.19,-3.71,-7.12,-3.63,3.63,3.46,2.61,-3.57,-3.49,-3.49
258.00,-6.90,-3.44,-7.06,-3.59,3.59,3.38,2.59,-3.31,-3.47,-3.47
260.58,-6.68,-3.24,-6.97,-3.52,3.52,3.28,2.57,-3.16,-3.44,-3.45
263.19,-6.55,-3.14,-6.85,-3.43,3.43,3.16,2.54,-3.12,-3.42,-3.42
265.82,-6.43,-3.04,-6.68,-3.29,3.29,3.02,2.50,-3.14,-3.40,-3.40
268.48,-6.43,-3.06,-6.49,-3.12,3.12,2.88,2.46,-3.31,-3.37,-3.38
271.16,-6.36,-3.02,-6.31,-2.96,2.96,2.72,2.42,-3.40,-3.35,-3.35
273.87,-6.22,-2.90,-6.12,-2.80,2.80,2.56,2.36,-3.42,-3.32,-3.33
276.61,-6.07,-2.78,-5.93,-2.64,2.64,2.40,2.31,-3.44,-3.29,-3.30
279.38,-5.89,-2.63,-5.74,-2.47,2.47,2.23,2.25,-3.42,-3.27,-3.27
282.17,-5.61,-2.37,-5.55,-2.31,2.31,2.07,2.18,-3.30,-3.24,-3.25
284.99,-5.39,-2.19,-5.36,-2.15,2.15,1.91,2.12,-3.25,-3.21,-3.21
287.84,-5.20,-2.02,-5.16,-1.98,1.98,1.76,2.05,-3.22,-3.18,-3.19
290.72,-4.94,-1.79,-4.95,-1.80,1.80,1.61,1.97,-3.15,-3.15,-3.16
293.63,-4.59,-1.47,-4.72,-1.60,1.60,1.46,1.90,-2.99,-3.12,-3.13
296.57,-4.39,-1.30,-4.49,-1.39,1.39,1.33,1.82,-3.00,-3.10,-3.10
299.53,-4.22,-1.16,-4.25,-1.19,1.19,1.19,1.74,-3.04,-3.07,-3.07
302.53,-4.02,-0.98,-4.03,-0.99,0.99,1.07,1.66,-3.03,-3.04,-3.05
305.55,-3.81,-0.81,-3.83,-0.81,0.81,0.95,1.58,-3.00,-3.01,-3.01
308.61,-3.63,-0.65,-3.63,-0.64,0.64,0.84,1.50,-3.00,-2.99,-2.99
311.69,-3.49,-0.54,-3.44,-0.47,0.47,0.73,1.41,-3.02,-2.97,-2.96
314.81,-3.24,-0.31,-3.26,-0.32,0.32,0.63,1.33,-2.93,-2.94,-2.94
317.96,-3.07,-0.16,-3.09,-0.17,0.17,0.53,1.25,-2.90,-2.92,-2.92
321.14,-2.90,0.00,-2.93,-0.03,0.03,0.44,1.16,-2.87,-2.90,-2.91
324.35,-2.78,0.10,-2.79,0.10,-0.10,0.35,1.08,-2.88,-2.89,-2.89
327.59,-2.68,0.19,-2.65,0.22,-0.22,0.27,0.99,-2.91,-2.87,-2.88
330.87,-2.58,0.28,-2.52,0.33,-0.33,0.19,0.91,-2.92,-2.86,-2.87
334.18,-2.49,0.35,-2.42,0.43,-0.43,0.12,0.82,-2.92,-2.85,-2.85
337.52,-2.35,0.48,-2.34,0.49,-0.49,0.05,0.74,-2.85,-2.84,-2.84
340.90,-2.18,0.64,-2.29,0.54,-0.54,-0.02,0.65,-2.73,-2.83,-2.83
344.30,-2.16,0.65,-2.25,0.58,-0.58,-0.08,0.57,-2.74,-2.82,-2.82
347.75,-2.16,0.65,-2.23,0.59,-0.59,-0.14,0.48,-2.75,-2.82,-2.82
351.23,-2.08,0.72,-2.23,0.58,-0.58,-0.20,0.40,-2.66,-2.81,-2.81
354.74,-2.08,0.73,-2.24,0.57,-0.57,-0.26,0.32,-2.65,-2.81,-2.82
358.28,-2.15,0.65,-2.25,0.55,-0.55,-0.31,0.23,-2.71,-2.81,-2.81
361.87,-2.29,0.51,-2.27,0.53,-0.53,-0.36,0.15,-2.83,-2.80,-2.81
365.49,-2.42,0.37,-2.29,0.52,-0.52,-0.41,0.07,-2.94,-2.80,-2.80
369.14,-2.44,0.36,-2.30,0.50,-0.50,-0.46,-0.01,-2.94,-2.80,-2.81
372.83,-2.44,0.36,-2.32,0.49,-0.49,-0.50,-0.10,-2.93,-2.81,-2.81
376.56,-2.43,0.38,-2.33,0.48,-0.48,-0.54,-0.18,-2.91,-2.81,-2.82
380.33,-2.42,0.38,-2.33,0.49,-0.49,-0.59,-0.26,-2.91,-2.81,-2.81
384.13,-2.40,0.40,-2.31,0.51,-0.51,-0.63,-0.34,-2.91,-2.81,-2.81
387.97,-2.33,0.48,-2.28,0.54,-0.54,-0.67,-0.42,-2.87,-2.82,-2.82
391.85,-2.18,0.64,-2.25,0.58,-0.58,-0.70,-0.50,-2.76,-2.82,-2.83
395.77,-2.11,0.70,-2.20,0.63,-0.63,-0.74,-0.58,-2.74,-2.83,-2.82
399.73,-2.10,0.72,-2.15,0.68,-0.68,-0.78,-0.65,-2.79,-2.84,-2.83
403.72,-2.03,0.79,-2.11,0.73,-0.73,-0.81,-0.73,-2.77,-2.84,-2.83
407.76,-2.01,0.83,-2.06,0.78,-0.78,-0.84,-0.81,-2.80,-2.85,-2.85
411.84,-1.94,0.90,-2.02,0.83,-0.83,-0.88,-0.88,-2.77,-2.85,-2.85
415.96,-1.91,0.93,-1.98,0.86,-0.86,-0.91,-0.96,-2.78,-2.85,-2.85
420.12,-1.91,0.93,-1.94,0.90,-0.90,-0.94,-1.03,-2.82,-2.85,-2.85
424.32,-1.90,0.94,-1.90,0.94,-0.94,-0.97,-1.11,-2.84,-2.84,-2.85
428.56,-1.89,0.94,-1.85,0.98,-0.98,-1.00,-1.18,-2.87,-2.83,-2.84
432.85,-1.88,0.94,-1.81,1.01,-1.01,-1.03,-1.24,-2.89,-2.81,-2.83
437.18,-1.85,0.96,-1.76,1.03,-1.03,-1.06,-1.31,-2.88,-2.79,-2.82
441.55,-1.82,0.95,-1.70,1.06,-1.06,-1.09,-1.38,-2.89,-2.77,-2.78
445.96,-1.73,1.01,-1.64,1.10,-1.10,-1.11,-1.44,-2.83,-2.74,-2.75
450.42,-1.54,1.17,-1.57,1.13,-1.13,-1.14,-1.50,-2.68,-2.70,-2.72
454.93,-1.46,1.20,-1.49,1.17,-1.17,-1.17,-1.56,-2.63,-2.66,-2.67
459.48,-1.37,1.25,-1.42,1.20,-1.20,-1.19,-1.62,-2.57,-2.62,-2.63
464.07,-1.25,1.32,-1.33,1.24,-1.24,-1.22,-1.67,-2.49,-2.57,-2.58
468.71,-1.19,1.32,-1.24,1.28,-1.28,-1.24,-1.72,-2.47,-2.52,-2.52
473.40,-1.12,1.35,-1.15,1.32,-1.32,-1.27,-1.76,-2.45,-2.47,-2.48
478.13,-1.07,1.34,-1.06,1.37,-1.37,-1.29,-1.81,-2.44,-2.42,-2.42
482.91,-1.01,1.36,-0.97,1.41,-1.41,-1.32,-1.85,-2.42,-2.38,-2.38
