frequency,raw,error,smoothed,error_smoothed,equalization,parametric_eq,fixed_band_eq,equalized_raw,equalized_smoothed,target
20.00,-10.23,-15.78,-10.18,-15.77,15.77,15.55,6.06,5.55,5.59,5.56
20.20,-10.06,-15.66,-10.02,-15.64,15.64,15.44,6.21,5.59,5.62,5.61
20.40,-9.88,-15.54,-9.86,-15.52,15.52,15.33,6.35,5.64,5.66,5.66
20.61,-9.72,-15.40,-9.71,-15.40,15.40,15.22,6.50,5.68,5.69,5.69
20.81,-9.53,-15.27,-9.56,-15.28,15.28,15.12,6.66,5.75,5.72,5.74
21.02,-9.38,-15.15,-9.42,-15.16,15.16,15.01,6.82,5.79,5.75,5.78
21.23,-9.23,-15.03,-9.28,-15.05,15.05,14.90,6.98,5.82,5.77,5.80
21.44,-9.10,-14.92,-9.14,-14.94,14.94,14.79,7.15,5.84,5.80,5.81
21.66,-8.97,-14.80,-9.02,-14.83,14.83,14.68,7.32,5.87,5.82,5.83
21.87,-8.83,-14.68,-8.89,-14.73,14.73,14.58,7.50,5.90,5.83,5.84
22.09,-8.72,-14.59,-8.78,-14.63,14.63,14.47,7.68,5.90,5.85,5.86
22.31,-8.65,-14.53,-8.67,-14.53,14.53,14.37,7.86,5.87,5.86,5.87
22.54,-8.59,-14.46,-8.57,-14.44,14.44,14.26,8.05,5.85,5.87,5.87
22.76,-8.51,-14.39,-8.48,-14.35,14.35,14.16,8.25,5.84,5.87,5.87
22.99,-8.45,-14.31,-8.40,-14.27,14.27,14.05,8.45,5.83,5.87,5.86
23.22,-8.35,-14.20,-8.32,-14.19,14.19,13.95,8.66,5.85,5.87,5.86
23.45,-8.23,-14.09,-8.24,-14.11,14.11,13.85,8.87,5.88,5.87,5.86
23.69,-8.13,-13.99,-8.15,-14.02,14.02,13.75,9.08,5.90,5.88,5.87
23.92,-8.01,-13.88,-8.05,-13.93,13.93,13.65,9.30,5.91,5.87,5.87
24.16,-7.93,-13.81,-7.95,-13.83,13.83,13.55,9.53,5.89,5.87,5.88
24.40,-7.87,-13.76,-7.85,-13.72,13.72,13.45,9.76,5.85,5.87,5.89
24.65,-7.81,-13.68,-7.74,-13.62,13.62,13.35,10.00,5.81,5.87,5.87
24.89,-7.73,-13.61,-7.63,-13.51,13.51,13.25,10.24,5.77,5.87,5.87
25.14,-7.60,-13.48,-7.52,-13.40,13.40,13.15,10.49,5.79,5.87,5.87
25.39,-7.44,-13.32,-7.42,-13.29,13.29,13.05,10.74,5.85,5.88,5.88
25.65,-7.28,-13.16,-7.31,-13.19,13.19,12.96,11.00,5.91,5.88,5.88
25.91,-7.11,-12.98,-7.21,-13.08,13.08,12.86,11.26,5.98,5.88,5.87
26.16,-7.00,-12.87,-7.11,-12.98,12.98,12.77,11.52,5.98,5.87,5.87
26.43,-6.94,-12.80,-7.00,-12.87,12.87,12.67,11.79,5.93,5.87,5.87
26.69,-6.87,-12.73,-6.89,-12.76,12.76,12.58,12.06,5.89,5.87,5.87
26.96,-6.80,-12.67,-6.78,-12.64,12.64,12.48,12.33,5.85,5.87,5.87
27.23,-6.72,-12.59,-6.67,-12.54,12.54,12.39,12.60,5.82,5.86,5.87
27.50,-6.63,-12.50,-6.57,-12.44,12.44,12.30,12.87,5.81,5.86,5.87
27.77,-6.54,-12.40,-6.48,-12.35,12.35,12.21,13.13,5.80,5.86,5.86
28.05,-6.45,-12.31,-6.41,-12.26,12.26,12.11,13.39,5.81,5.86,5.86
28.33,-6.32,-12.17,-6.33,-12.19,12.19,12.02,13.64,5.86,5.86,5.85
28.62,-6.20,-12.04,-6.26,-12.11,12.11,11.93,13.88,5.92,5.86,5.85
28.90,-6.06,-11.92,-6.18,-12.04,12.04,11.84,14.10,5.97,5.85,5.85
29.19,-6.01,-11.85,-6.10,-11.95,11.95,11.75,14.31,5.95,5.85,5.84
29.48,-5.96,-11.82,-6.01,-11.86,11.86,11.66,14.50,5.90,5.85,5.86
29.78,-5.94,-11.78,-5.91,-11.76,11.76,11.57,14.66,5.83,5.85,5.85
30.08,-5.89,-11.74,-5.80,-11.65,11.65,11.48,14.80,5.76,5.85,5.86
30.38,-5.79,-11.63,-5.69,-11.53,11.53,11.39,14.91,5.75,5.84,5.84
30.68,-5.69,-11.53,-5.57,-11.42,11.42,11.30,14.99,5.73,5.84,5.84
30.99,-5.59,-11.43,-5.46,-11.30,11.30,11.22,15.03,5.72,5.84,5.84
31.30,-5.43,-11.26,-5.35,-11.19,11.19,11.13,15.04,5.76,5.84,5.84
31.61,-5.27,-11.10,-5.24,-11.08,11.08,11.04,15.01,5.81,5.83,5.83
31.93,-5.10,-10.93,-5.14,-10.97,10.97,10.95,14.95,5.87,5.83,5.83
32.24,-4.93,-10.75,-5.03,-10.85,10.85,10.86,14.86,5.92,5.83,5.82
32.57,-4.79,-10.61,-4.91,-10.73,10.73,10.78,14.74,5.95,5.82,5.83
32.89,-4.62,-10.45,-4.81,-10.62,10.62,10.69,14.60,6.00,5.82,5.82
33.22,-4.58,-10.39,-4.70,-10.51,10.51,10.60,14.43,5.94,5.81,5.81
33.55,-4.58,-10.38,-4.60,-10.41,10.41,10.51,14.24,5.83,5.80,5.81
33.89,-4.58,-10.37,-4.51,-10.31,10.31,10.43,14.03,5.73,5.80,5.79
34.23,-4.52,-10.32,-4.42,-10.21,10.21,10.34,13.81,5.70,5.80,5.80
34.57,-4.42,-10.20,-4.34,-10.13,10.13,10.25,13.58,5.71,5.79,5.79
34.92,-4.32,-10.10,-4.26,-10.05,10.05,10.17,13.34,5.73,5.79,5.78
35.27,-4.23,-10.01,-4.18,-9.97,9.97,10.08,13.10,5.74,5.78,5.78
35.62,-4.13,-9.90,-4.10,-9.88,9.88,9.99,12.85,5.75,5.78,5.78
35.97,-4.03,-9.81,-4.01,-9.78,9.78,9.91,12.60,5.75,5.77,5.77
36.33,-3.91,-9.69,-3.92,-9.69,9.69,9.82,12.35,5.78,5.77,5.78
36.70,-3.79,-9.55,-3.83,-9.60,9.60,9.74,12.10,5.81,5.77,5.76
37.06,-3.67,-9.43,-3.72,-9.49,9.49,9.65,11.86,5.81,5.77,5.76
37.43,-3.60,-9.38,-3.60,-9.37,9.37,9.56,11.62,5.76,5.77,5.77
37.81,-3.54,-9.30,-3.48,-9.25,9.25,9.48,11.38,5.71,5.77,5.77
38.19,-3.43,-9.19,-3.38,-9.14,9.14,9.39,11.14,5.72,5.77,5.76
38.57,-3.28,-9.04,-3.29,-9.05,9.05,9.30,10.91,5.78,5.77,5.77
38.95,-3.11,-8.89,-3.20,-8.97,8.97,9.22,10.69,5.85,5.77,5.77
39.34,-3.07,-8.84,-3.12,-8.89,8.89,9.13,10.47,5.81,5.76,5.77
39.74,-3.06,-8.82,-3.04,-8.81,8.81,9.05,10.26,5.75,5.76,5.76
40.14,-2.99,-8.75,-2.96,-8.72,8.72,8.96,10.05,5.74,5.76,5.76
40.54,-2.82,-8.57,-2.89,-8.64,8.64,8.87,9.85,5.83,5.76,5.76
40.94,-2.64,-8.39,-2.81,-8.56,8.56,8.79,9.66,5.93,5.75,5.75
41.35,-2.69,-8.43,-2.73,-8.48,8.48,8.70,9.47,5.79,5.75,5.74
41.76,-2.78,-8.51,-2.65,-8.39,8.39,8.62,9.29,5.61,5.74,5.74
42.18,-2.76,-8.50,-2.56,-8.29,8.29,8.53,9.11,5.53,5.73,5.74
42.60,-2.61,-8.34,-2.49,-8.20,8.20,8.44,8.94,5.59,5.72,5.72
43.03,-2.48,-8.19,-2.42,-8.12,8.12,8.36,8.77,5.64,5.70,5.71
43.46,-2.33,-8.04,-2.34,-8.03,8.03,8.27,8.61,5.70,5.69,5.71
43.90,-2.20,-7.87,-2.27,-7.95,7.95,8.19,8.46,5.75,5.68,5.68
44.33,-2.12,-7.78,-2.20,-7.86,7.86,8.10,8.31,5.74,5.66,5.66
44.78,-2.08,-7.71,-2.13,-7.78,7.78,8.01,8.16,5.71,5.65,5.64
45.23,-2.01,-7.63,-2.07,-7.70,7.70,7.93,8.03,5.69,5.63,5.63
45.68,-1.92,-7.52,-1.99,-7.61,7.61,7.84,7.89,5.70,5.62,5.61
46.13,-1.86,-7.44,-1.92,-7.52,7.52,7.76,7.76,5.66,5.60,5.59
46.60,-1.88,-7.47,-1.85,-7.44,7.44,7.67,7.64,5.55,5.58,5.59
47.06,-1.90,-7.47,-1.80,-7.37,7.37,7.58,7.52,5.47,5.57,5.57
47.53,-1.82,-7.38,-1.76,-7.31,7.31,7.50,7.41,5.49,5.55,5.55
48.01,-1.76,-7.31,-1.73,-7.26,7.26,7.41,7.30,5.51,5.53,5.55
48.49,-1.70,-7.22,-1.69,-7.21,7.21,7.32,7.19,5.52,5.52,5.53
48.97,-1.62,-7.13,-1.65,-7.16,7.16,7.24,7.09,5.53,5.50,5.51
49.46,-1.55,-7.04,-1.61,-7.09,7.09,7.15,6.99,5.54,5.49,5.48
49.96,-1.50,-6.95,-1.56,-7.03,7.03,7.07,6.90,5.53,5.47,5.46
50.46,-1.51,-6.96,-1.50,-6.96,6.96,6.98,6.81,5.45,5.46,5.45
50.96,-1.54,-6.97,-1.44,-6.88,6.88,6.89,6.72,5.35,5.44,5.44
51.47,-1.45,-6.86,-1.38,-6.80,6.80,6.81,6.63,5.36,5.43,5.41
51.99,-1.35,-6.74,-1.31,-6.72,6.72,6.72,6.55,5.37,5.41,5.40
52.51,-1.29,-6.68,-1.25,-6.65,6.65,6.64,6.47,5.36,5.39,5.39
53.03,-1.23,-6.61,-1.20,-6.58,6.58,6.55,6.39,5.36,5.38,5.38
53.56,-1.13,-6.49,-1.15,-6.51,6.51,6.46,6.32,5.39,5.36,5.37
54.10,-1.04,-6.38,-1.10,-6.45,6.45,6.38,6.24,5.41,5.35,5.35
54.64,-0.99,-6.32,-1.05,-6.39,6.39,6.29,6.17,5.40,5.33,5.33
55.18,-0.92,-6.25,-1.00,-6.32,6.32,6.21,6.10,5.40,5.32,5.32
55.74,-0.88,-6.18,-0.95,-6.26,6.26,6.12,6.03,5.38,5.31,5.30
56.29,-0.88,-6.17,-0.90,-6.19,6.19,6.03,5.96,5.32,5.29,5.29
56.86,-0.91,-6.18,-0.85,-6.13,6.13,5.95,5.88,5.21,5.27,5.27
57.42,-0.88,-6.12,-0.81,-6.06,6.06,5.86,5.81,5.18,5.25,5.24
58.00,-0.83,-6.05,-0.76,-5.99,5.99,5.78,5.74,5.17,5.23,5.22
58.58,-0.75,-5.95,-0.72,-5.91,5.91,5.69,5.67,5.17,5.20,5.21
59.16,-0.68,-5.86,-0.67,-5.84,5.84,5.61,5.60,5.16,5.17,5.18
59.76,-0.66,-5.82,-0.62,-5.76,5.76,5.52,5.52,5.10,5.14,5.16
60.35,-0.60,-5.72,-0.57,-5.68,5.68,5.44,5.45,5.07,5.10,5.11
60.96,-0.54,-5.61,-0.52,-5.59,5.59,5.35,5.37,5.05,5.07,5.08
61.57,-0.47,-5.50,-0.47,-5.50,5.50,5.26,5.29,5.03,5.03,5.03
62.18,-0.39,-5.38,-0.42,-5.40,5.40,5.18,5.21,5.01,4.98,4.98
62.80,-0.29,-5.23,-0.37,-5.31,5.31,5.09,5.12,5.01,4.94,4.93
63.43,-0.26,-5.14,-0.33,-5.22,5.22,5.01,5.04,4.96,4.89,4.88
64.07,-0.25,-5.08,-0.28,-5.13,5.13,4.92,4.95,4.88,4.84,4.83
64.71,-0.25,-5.02,-0.25,-5.04,5.04,4.84,4.86,4.79,4.79,4.78
65.35,-0.25,-4.98,-0.22,-4.96,4.96,4.75,4.77,4.71,4.74,4.74
66.01,-0.25,-4.93,-0.19,-4.87,4.87,4.67,4.67,4.63,4.68,4.68
66.67,-0.18,-4.80,-0.17,-4.80,4.80,4.58,4.58,4.62,4.63,4.63
67.33,-0.15,-4.72,-0.15,-4.73,4.73,4.50,4.48,4.58,4.58,4.57
68.01,-0.15,-4.67,-0.14,-4.66,4.66,4.41,4.38,4.52,4.52,4.53
68.69,-0.15,-4.61,-0.13,-4.60,4.60,4.33,4.28,4.45,4.47,4.47
69.37,-0.11,-4.53,-0.13,-4.54,4.54,4.24,4.18,4.42,4.41,4.41
70.07,-0.06,-4.41,-0.12,-4.47,4.47,4.16,4.08,4.41,4.35,4.35
70.77,-0.05,-4.35,-0.10,-4.39,4.39,4.07,3.97,4.34,4.29,4.30
71.48,-0.07,-4.31,-0.08,-4.31,4.31,3.99,3.87,4.24,4.23,4.24
72.19,-0.09,-4.25,-0.06,-4.22,4.22,3.90,3.76,4.14,4.17,4.17
72.91,-0.05,-4.15,-0.03,-4.13,4.13,3.82,3.66,4.09,4.10,4.10
73.64,-0.05,-4.09,0.00,-4.04,4.04,3.73,3.55,3.99,4.04,4.04
74.38,-0.01,-3.98,0.04,-3.94,3.94,3.65,3.45,3.93,3.98,3.98
75.12,0.05,-3.85,0.09,-3.83,3.83,3.56,3.34,3.88,3.91,3.91
75.87,0.09,-3.76,0.14,-3.71,3.71,3.48,3.23,3.79,3.85,3.84
76.63,0.20,-3.59,0.20,-3.59,3.59,3.40,3.13,3.78,3.79,3.78
77.40,0.28,-3.44,0.27,-3.46,3.46,3.31,3.02,3.74,3.73,3.72
78.17,0.35,-3.31,0.34,-3.32,3.32,3.23,2.92,3.67,3.67,3.65
78.95,0.41,-3.21,0.42,-3.19,3.19,3.14,2.81,3.59,3.61,3.61
79.74,0.48,-3.08,0.50,-3.05,3.05,3.06,2.71,3.53,3.55,3.55
80.54,0.61,-2.89,0.58,-2.91,2.91,2.97,2.61,3.52,3.50,3.50
81.35,0.71,-2.72,0.67,-2.77,2.77,2.89,2.51,3.49,3.44,3.44
82.16,0.78,-2.60,0.74,-2.64,2.64,2.80,2.41,3.42,3.38,3.38
82.98,0.86,-2.47,0.82,-2.51,2.51,2.72,2.31,3.37,3.33,3.34
83.81,0.87,-2.40,0.89,-2.38,2.38,2.63,2.21,3.25,3.27,3.27
84.65,0.96,-2.25,0.96,-2.26,2.26,2.55,2.11,3.22,3.21,3.21
85.50,1.03,-2.13,1.02,-2.14,2.14,2.46,2.01,3.17,3.16,3.16
86.35,1.06,-2.04,1.07,-2.03,2.03,2.38,1.91,3.09,3.10,3.10
87.22,1.08,-1.96,1.12,-1.92,1.92,2.30,1.82,3.00,3.04,3.04
88.09,1.15,-1.83,1.17,-1.81,1.81,2.21,1.72,2.97,2.98,2.98
88.97,1.26,-1.66,1.21,-1.71,1.71,2.13,1.63,2.97,2.92,2.92
89.86,1.26,-1.60,1.25,-1.61,1.61,2.04,1.53,2.87,2.86,2.86
90.76,1.27,-1.52,1.30,-1.51,1.51,1.96,1.44,2.78,2.80,2.80
91.66,1.34,-1.40,1.34,-1.41,1.41,1.87,1.35,2.75,2.74,2.75
92.58,1.37,-1.30,1.37,-1.31,1.31,1.79,1.26,2.69,2.68,2.67
93.51,1.37,-1.24,1.40,-1.22,1.22,1.70,1.17,2.60,2.62,2.62
94.44,1.37,-1.19,1.43,-1.14,1.14,1.62,1.08,2.51,2.56,2.56
95.39,1.41,-1.09,1.45,-1.05,1.05,1.53,0.99,2.46,2.50,2.51
96.34,1.50,-0.94,1.48,-0.97,0.97,1.45,0.91,2.47,2.45,2.44
97.30,1.56,-0.82,1.49,-0.90,0.90,1.37,0.82,2.46,2.39,2.39
98.28,1.55,-0.77,1.50,-0.83,0.83,1.28,0.73,2.38,2.33,2.33
99.26,1.53,-0.74,1.51,-0.76,0.76,1.20,0.65,2.29,2.27,2.27
100.25,1.52,-0.69,1.53,-0.69,0.69,1.11,0.56,2.21,2.21,2.22
101.25,1.50,-0.65,1.54,-0.62,0.62,1.03,0.48,2.12,2.16,2.16
102.27,1.50,-0.60,1.54,-0.56,0.56,0.95,0.40,2.06,2.10,2.10
103.29,1.53,-0.50,1.55,-0.49,0.49,0.86,0.32,2.03,2.04,2.03
104.32,1.55,-0.43,1.55,-0.43,0.43,0.78,0.24,1.99,1.98,1.98
105.37,1.53,-0.39,1.54,-0.38,0.38,0.69,0.16,1.91,1.92,1.93
106.42,1.51,-0.35,1.53,-0.33,0.33,0.61,0.08,1.84,1.86,1.87
107.48,1.53,-0.27,1.52,-0.28,0.28,0.53,0.01,1.81,1.80,1.80
108.56,1.55,-0.18,1.51,-0.22,0.22,0.45,-0.07,1.78,1.73,1.73
109.64,1.54,-0.13,1.51,-0.16,0.16,0.36,-0.14,1.70,1.67,1.68
110.74,1.52,-0.08,1.52,-0.09,0.09,0.28,-0.21,1.62,1.61,1.61
111.85,1.50,-0.06,1.52,-0.03,0.03,0.20,-0.28,1.53,1.55,1.56
112.97,1.49,0.01,1.53,0.04,-0.04,0.12,-0.34,1.46,1.49,1.48
114.10,1.49,0.07,1.53,0.10,-0.10,0.04,-0.41,1.40,1.43,1.43
115.24,1.48,0.11,1.54,0.16,-0.16,-0.04,-0.47,1.33,1.38,1.37
116.39,1.50,0.20,1.54,0.22,-0.22,-0.12,-0.53,1.28,1.32,1.31
117.55,1.55,0.29,1.55,0.29,-0.29,-0.20,-0.58,1.27,1.27,1.26
118.73,1.59,0.39,1.57,0.35,-0.35,-0.28,-0.64,1.25,1.22,1.21
119.92,1.60,0.43,1.58,0.41,-0.41,-0.36,-0.69,1.20,1.17,1.17
121.12,1.61,0.50,1.59,0.47,-0.47,-0.43,-0.73,1.15,1.12,1.12
122.33,1.62,0.55,1.60,0.53,-0.53,-0.51,-0.78,1.10,1.08,1.07
123.55,1.62,0.58,1.62,0.58,-0.58,-0.58,-0.82,1.04,1.04,1.04
124.79,1.63,0.64,1.63,0.64,-0.64,-0.66,-0.86,1.00,0.99,1.00
126.03,1.64,0.69,1.65,0.69,-0.69,-0.73,-0.89,0.95,0.96,0.96
127.29,1.65,0.73,1.66,0.74,-0.74,-0.80,-0.93,0.91,0.92,0.93
128.57,1.65,0.78,1.66,0.79,-0.79,-0.87,-0.96,0.87,0.88,0.88
129.85,1.66,0.83,1.67,0.83,-0.83,-0.94,-0.98,0.84,0.84,0.84
131.15,1.66,0.86,1.67,0.87,-0.87,-1.01,-1.01,0.80,0.80,0.80
132.46,1.67,0.91,1.67,0.91,-0.91,-1.08,-1.03,0.77,0.76,0.76
133.79,1.67,0.95,1.68,0.95,-0.95,-1.14,-1.05,0.72,0.73,0.73
135.12,1.68,1.00,1.69,1.00,-1.00,-1.20,-1.07,0.69,0.69,0.68
136.48,1.68,1.03,1.69,1.04,-1.04,-1.26,-1.08,0.65,0.65,0.66
137.84,1.68,1.07,1.69,1.08,-1.08,-1.32,-1.09,0.61,0.62,0.61
139.22,1.68,1.12,1.70,1.11,-1.11,-1.38,-1.10,0.57,0.58,0.57
140.61,1.68,1.16,1.70,1.15,-1.15,-1.44,-1.11,0.53,0.54,0.53
142.02,1.69,1.19,1.69,1.19,-1.19,-1.49,-1.12,0.50,0.50,0.50
143.44,1.69,1.23,1.69,1.23,-1.23,-1.54,-1.13,0.47,0.46,0.46
144.87,1.69,1.28,1.68,1.27,-1.27,-1.59,-1.14,0.43,0.41,0.42
146.32,1.69,1.33,1.67,1.31,-1.31,-1.64,-1.14,0.38,0.36,0.37
147.78,1.68,1.36,1.66,1.36,-1.36,-1.69,-1.15,0.33,0.30,0.33
149.26,1.65,1.38,1.65,1.41,-1.41,-1.73,-1.15,0.25,0.24,0.27
150.75,1.59,1.40,1.63,1.46,-1.46,-1.77,-1.16,0.14,0.18,0.20
152.26,1.58,1.46,1.61,1.50,-1.50,-1.81,-1.16,0.08,0.10,0.12
153.78,1.58,1.54,1.58,1.55,-1.55,-1.85,-1.16,0.04,0.03,0.05
155.32,1.54,1.58,1.54,1.59,-1.59,-1.88,-1.17,-0.04,-0.05,-0.03
156.88,1.49,1.61,1.50,1.62,-1.62,-1.91,-1.17,-0.13,-0.12,-0.11
158.44,1.49,1.70,1.46,1.66,-1.66,-1.94,-1.18,-0.16,-0.20,-0.20
160.03,1.49,1.79,1.42,1.69,-1.69,-1.97,-1.19,-0.20,-0.28,-0.29
161.63,1.42,1.80,1.38,1.73,-1.73,-1.99,-1.19,-0.30,-0.35,-0.37
163.24,1.36,1.81,1.34,1.76,-1.76,-2.01,-1.20,-0.39,-0.42,-0.44
164.88,1.29,1.79,1.31,1.79,-1.79,-2.03,-1.21,-0.49,-0.48,-0.50
166.53,1.22,1.78,1.28,1.82,-1.82,-2.05,-1.22,-0.59,-0.53,-0.55
168.19,1.18,1.78,1.26,1.84,-1.84,-2.06,-1.23,-0.65,-0.58,-0.60
169.87,1.16,1.81,1.24,1.85,-1.85,-2.08,-1.24,-0.69,-0.62,-0.64
171.57,1.15,1.82,1.22,1.87,-1.87,-2.09,-1.25,-0.72,-0.65,-0.66
173.29,1.17,1.86,1.21,1.89,-1.89,-2.09,-1.27,-0.71,-0.68,-0.69
175.02,1.24,1.94,1.21,1.91,-1.91,-2.10,-1.28,-0.66,-0.70,-0.70
176.77,1.24,1.96,1.21,1.92,-1.92,-2.10,-1.30,-0.68,-0.71,-0.72
178.54,1.24,1.97,1.22,1.95,-1.95,-2.10,-1.32,-0.70,-0.72,-0.73
180.32,1.24,1.97,1.24,1.97,-1.97,-2.10,-1.34,-0.73,-0.74,-0.73
182.13,1.25,1.98,1.25,2.00,-2.00,-2.10,-1.36,-0.74,-0.75,-0.72
183.95,1.26,2.01,1.26,2.02,-2.02,-2.09,-1.38,-0.76,-0.76,-0.74
185.79,1.27,2.02,1.27,2.04,-2.04,-2.09,-1.40,-0.77,-0.77,-0.75
187.65,1.28,2.06,1.28,2.06,-2.06,-2.08,-1.42,-0.77,-0.78,-0.77
189.52,1.30,2.09,1.28,2.07,-2.07,-2.07,-1.45,-0.77,-0.80,-0.79
191.42,1.31,2.13,1.27,2.09,-2.09,-2.06,-1.47,-0.77,-0.81,-0.81
193.33,1.32,2.16,1.27,2.10,-2.10,-2.04,-1.50,-0.78,-0.83,-0.83
195.27,1.27,2.13,1.26,2.11,-2.11,-2.03,-1.53,-0.84,-0.86,-0.86
197.22,1.22,2.10,1.25,2.13,-2.13,-2.01,-1.56,-0.91,-0.88,-0.88
199.19,1.18,2.09,1.24,2.15,-2.15,-2.00,-1.59,-0.96,-0.90,-0.91
201.18,1.17,2.10,1.23,2.16,-2.16,-1.98,-1.61,-0.98,-0.93,-0.93
203.19,1.18,2.13,1.21,2.16,-2.16,-1.96,-1.64,-0.98,-0.95,-0.95
205.23,1.18,2.16,1.19,2.17,-2.17,-1.94,-1.67,-0.98,-0.97,-0.98
207.28,1.18,2.17,1.17,2.17,-2.17,-1.92,-1.71,-0.98,-1.00,-0.99
209.35,1.18,2.20,1.15,2.17,-2.17,-1.90,-1.74,-0.98,-1.02,-1.01
211.44,1.18,2.24,1.12,2.16,-2.16,-1.88,-1.77,-0.98,-1.04,-1.05
213.56,1.13,2.19,1.10,2.16,-2.16,-1.85,-1.80,-1.02,-1.06,-1.06
215.69,1.08,2.16,1.08,2.15,-2.15,-1.83,-1.82,-1.07,-1.08,-1.07
217.85,1.06,2.15,1.06,2.15,-2.15,-1.80,-1.85,-1.09,-1.09,-1.09
220.03,0.99,2.10,1.04,2.14,-2.14,-1.78,-1.88,-1.15,-1.10,-1.10
222.23,0.96,2.09,1.02,2.13,-2.13,-1.75,-1.91,-1.16,-1.11,-1.13
224.45,0.96,2.09,0.99,2.11,-2.11,-1.73,-1.93,-1.14,-1.12,-1.12
226.70,0.96,2.09,0.97,2.09,-2.09,-1.70,-1.95,-1.12,-1.12,-1.13
228.96,0.96,2.08,0.95,2.07,-2.07,-1.68,-1.98,-1.10,-1.12,-1.12
231.25,0.95,2.07,0.93,2.04,-2.04,-1.65,-1.99,-1.09,-1.11,-1.11
233.57,0.90,2.01,0.92,2.02,-2.02,-1.62,-2.01,-1.11,-1.10,-1.10
235.90,0.89,1.99,0.90,2.00,-2.00,-1.60,-2.02,-1.10,-1.09,-1.10
238.26,0.91,2.00,0.90,1.98,-1.98,-1.57,-2.04,-1.06,-1.08,-1.09
240.64,0.89,1.96,0.90,1.96,-1.96,-1.54,-2.04,-1.06,-1.06,-1.07
243.05,0.86,1.90,0.89,1.94,-1.94,-1.52,-2.05,-1.07,-1.04,-1.04
245.48,0.85,1.87,0.89,1.92,-1.92,-1.49,-2.05,-1.06,-1.02,-1.02
247.93,0.88,1.87,0.89,1.89,-1.89,-1.47,-2.05,-1.00,-1.00,-0.99
250.41,0.90,1.88,0.87,1.85,-1.85,-1.44,-2.05,-0.95,-0.98,-0.98
252.92,0.87,1.82,0.86,1.82,-1.82,-1.41,-2.04,-0.94,-0.96,-0.95
255.45,0.84,1.77,0.84,1.78,-1.78,-1.39,-2.03,-0.93,-0.94,-0.93
258.00,0.84,1.75,0.83,1.74,-1.74,-1.36,-2.01,-0.90,-0.91,-0.90
260.58,0.84,1.74,0.82,1.70,-1.70,-1.34,-2.00,-0.86,-0.89,-0.89
263.19,0.84,1.71,0.80,1.66,-1.66,-1.31,-1.98,-0.82,-0.87,-0.86
265.82,0.77,1.62,0.77,1.61,-1.61,-1.29,-1.95,-0.84,-0.84,-0.85
268.48,0.74,1.57,0.74,1.56,-1.56,-1.26,-1.93,-0.82,-0.82,-0.83
271.16,0.70,1.50,0.72,1.51,-1.51,-1.24,-1.90,-0.81,-0.80,-0.79
273.87,0.63,1.41,0.68,1.45,-1.45,-1.21,-1.87,-0.82,-0.77,-0.78
276.61,0.63,1.38,0.65,1.40,-1.40,-1.19,-1.83,-0.76,-0.75,-0.75
279.38,0.63,1.36,0.62,1.34,-1.34,-1.17,-1.80,-0.71,-0.72,-0.72
282.17,0.63,1.33,0.60,1.30,-1.30,-1.14,-1.76,-0.66,-0.70,-0.70
284.99,0.58,1.25,0.58,1.25,-1.25,-1.12,-1.72,-0.66,-0.67,-0.66
287.84,0.55,1.20,0.56,1.20,-1.20,-1.10,-1.68,-0.64,-0.64,-0.65
290.72,0.48,1.10,0.54,1.16,-1.16,-1.07,-1.64,-0.67,-0.61,-0.62
293.63,0.47,1.07,0.53,1.12,-1.12,-1.05,-1.60,-0.64,-0.59,-0.59
296.57,0.48,1.04,0.52,1.08,-1.08,-1.03,-1.55,-0.59,-0.56,-0.56
299.53,0.49,1.03,0.51,1.04,-1.04,-1.01,-1.51,-0.55,-0.53,-0.53
302.53,0.51,1.03,0.50,1.01,-1.01,-0.99,-1.46,-0.49,-0.50,-0.51
305.55,0.52,0.99,0.49,0.97,-0.97,-0.97,-1.42,-0.45,-0.48,-0.47
308.61,0.53,0.99,0.47,0.93,-0.93,-0.95,-1.37,-0.40,-0.46,-0.45
311.69,0.48,0.91,0.46,0.89,-0.89,-0.93,-1.33,-0.41,-0.43,-0.43
314.81,0.45,0.86,0.44,0.85,-0.85,-0.91,-1.28,-0.40,-0.41,-0.40
317.96,0.44,0.83,0.43,0.82,-0.82,-0.89,-1.24,-0.38,-0.39,-0.39
321.14,0.43,0.81,0.41,0.79,-0.79,-0.87,-1.19,-0.35,-0.38,-0.38
324.35,0.36,0.73,0.39,0.75,-0.75,-0.85,-1.15,-0.38,-0.36,-0.36
327.59,0.34,0.69,0.37,0.71,-0.71,-0.84,-1.10,-0.37,-0.35,-0.35
330.87,0.33,0.67,0.34,0.67,-0.67,-0.82,-1.06,-0.34,-0.33,-0.34
334.18,0.30,0.63,0.31,0.63,-0.63,-0.80,-1.01,-0.33,-0.32,-0.32
337.52,0.24,0.56,0.28,0.59,-0.59,-0.78,-0.97,-0.35,-0.31,-0.32
340.90,0.23,0.53,0.25,0.55,-0.55,-0.77,-0.93,-0.32,-0.31,-0.30
344.30,0.23,0.53,0.22,0.52,-0.52,-0.75,-0.89,-0.28,-0.30,-0.29
347.75,0.23,0.53,0.20,0.49,-0.49,-0.73,-0.85,-0.26,-0.29,-0.29
351.23,0.18,0.47,0.17,0.46,-0.46,-0.72,-0.81,-0.28,-0.29,-0.29
354.74,0.14,0.43,0.16,0.44,-0.44,-0.70,-0.77,-0.30,-0.29,-0.29
358.28,0.14,0.43,0.14,0.42,-0.42,-0.69,-0.73,-0.28,-0.28,-0.28
361.87,0.13,0.42,0.13,0.41,-0.41,-0.67,-0.69,-0.28,-0.28,-0.28
365.49,0.07,0.35,0.11,0.40,-0.40,-0.66,-0.65,-0.32,-0.28,-0.28
369.14,0.05,0.34,0.10,0.38,-0.38,-0.64,-0.61,-0.33,-0.28,-0.29
372.83,0.06,0.36,0.09,0.37,-0.37,-0.63,-0.58,-0.31,-0.29,-0.29
376.56,0.07,0.37,0.08,0.37,-0.37,-0.62,-0.54,-0.30,-0.29,-0.29
380.33,0.08,0.37,0.07,0.36,-0.36,-0.60,-0.51,-0.28,-0.29,-0.28
384.13,0.08,0.37,0.06,0.35,-0.35,-0.59,-0.47,-0.27,-0.30,-0.29
387.97,0.09,0.39,0.04,0.34,-0.34,-0.58,-0.44,-0.25,-0.30,-0.30
391.85,0.06,0.37,0.03,0.34,-0.34,-0.57,-0.40,-0.27,-0.31,-0.31
395.77,0.01,0.32,0.02,0.33,-0.33,-0.55,-0.37,-0.31,-0.31,-0.30
399.73,-0.01,0.31,-0.00,0.32,-0.32,-0.54,-0.34,-0.32,-0.32,-0.31
403.72,-0.01,0.31,-0.01,0.31,-0.31,-0.53,-0.31,-0.32,-0.32,-0.31
407.76,-0.01,0.32,-0.02,0.30,-0.30,-0.52,-0.28,-0.31,-0.33,-0.33
411.84,-0.02,0.31,-0.04,0.29,-0.29,-0.51,-0.25,-0.31,-0.33,-0.33
415.96,-0.05,0.28,-0.06,0.28,-0.28,-0.50,-0.22,-0.32,-0.33,-0.33
420.12,-0.12,0.21,-0.07,0.26,-0.26,-0.49,-0.19,-0.38,-0.33,-0.33
424.32,-0.12,0.22,-0.08,0.25,-0.25,-0.48,-0.16,-0.36,-0.33,-0.33
428.56,-0.11,0.22,-0.07,0.24,-0.24,-0.47,-0.13,-0.35,-0.32,-0.32
432.85,-0.09,0.23,-0.06,0.24,-0.24,-0.46,-0.11,-0.32,-0.30,-0.31
437.18,-0.06,0.25,-0.05,0.23,-0.23,-0.45,-0.08,-0.29,-0.28,-0.30
441.55,-0.03,0.24,-0.03,0.23,-0.23,-0.44,-0.06,-0.25,-0.25,-0.27
445.96,0.01,0.25,-0.01,0.21,-0.21,-0.43,-0.04,-0.20,-0.22,-0.24
450.42,-0.03,0.18,0.02,0.20,-0.20,-0.42,-0.01,-0.23,-0.19,-0.21
454.93,0.00,0.16,0.05,0.20,-0.20,-0.41,0.01,-0.20,-0.15,-0.16
459.48,0.09,0.20,0.10,0.21,-0.21,-0.40,0.03,-0.11,-0.10,-0.11
464.07,0.15,0.22,0.15,0.20,-0.20,-0.39,0.05,-0.05,-0.06,-0.06
468.71,0.20,0.21,0.19,0.20,-0.20,-0.38,0.07,0.01,-0.01,-0.00
473.40,0.27,0.24,0.22,0.18,-0.18,-0.37,0.08,0.09,0.04,0.04
478.13,0.23,0.14,0.26,0.17,-0.17,-0.37,0.10,0.07,0.09,0.10
482.91,0.22,0.09,0.28,0.15,-0.15,-0.36,0.11,0.07,0.13,0.14
