frequency,raw,error,smoothed,error_smoothed,equalization,parametric_eq,fixed_band_eq,equalized_raw,equalized_smoothed,target
20.00,-2.86,-4.68,-2.87,-4.68,4.68,4.72,1.99,1.81,1.81,1.81
20.20,-2.84,-4.71,-2.84,-4.71,4.71,4.73,2.05,1.86,1.86,1.86
20.40,-2.82,-4.74,-2.82,-4.73,4.73,4.74,2.11,1.91,1.91,1.91
20.61,-2.79,-4.74,-2.80,-4.75,4.75,4.75,2.17,1.96,1.95,1.94
20.81,-2.77,-4.77,-2.77,-4.77,4.76,4.75,2.23,1.99,1.99,1.99
21.02,-2.75,-4.79,-2.75,-4.78,4.78,4.76,2.30,2.02,2.02,2.03
21.23,-2.73,-4.79,-2.73,-4.79,4.78,4.76,2.37,2.05,2.05,2.05
21.44,-2.71,-4.79,-2.71,-4.78,4.78,4.77,2.44,2.07,2.07,2.07
21.66,-2.68,-4.78,-2.69,-4.78,4.78,4.77,2.51,2.10,2.09,2.09
21.87,-2.66,-4.77,-2.66,-4.77,4.77,4.77,2.58,2.11,2.11,2.10
22.09,-2.64,-4.77,-2.64,-4.76,4.76,4.77,2.66,2.11,2.11,2.12
22.31,-2.62,-4.76,-2.62,-4.75,4.74,4.77,2.73,2.12,2.12,2.13
22.54,-2.60,-4.74,-2.60,-4.73,4.73,4.77,2.81,2.12,2.13,2.13
22.76,-2.57,-4.71,-2.58,-4.71,4.71,4.77,2.89,2.14,2.14,2.13
22.99,-2.55,-4.68,-2.56,-4.69,4.70,4.77,2.98,2.15,2.14,2.12
23.22,-2.55,-4.68,-2.55,-4.68,4.69,4.77,3.06,2.14,2.14,2.12
23.45,-2.55,-4.68,-2.55,-4.68,4.69,4.76,3.15,2.13,2.14,2.12
23.69,-2.55,-4.69,-2.55,-4.68,4.69,4.76,3.24,2.13,2.13,2.13
23.92,-2.55,-4.69,-2.55,-4.69,4.69,4.76,3.33,2.13,2.13,2.13
24.16,-2.55,-4.69,-2.55,-4.69,4.69,4.75,3.42,2.14,2.14,2.13
24.40,-2.55,-4.70,-2.56,-4.69,4.69,4.75,3.51,2.13,2.13,2.14
24.65,-2.55,-4.69,-2.56,-4.69,4.68,4.74,3.61,2.12,2.12,2.13
24.89,-2.55,-4.69,-2.54,-4.68,4.66,4.73,3.70,2.11,2.11,2.13
25.14,-2.52,-4.66,-2.52,-4.66,4.63,4.73,3.80,2.11,2.11,2.13
25.39,-2.47,-4.62,-2.48,-4.62,4.61,4.72,3.90,2.13,2.13,2.14
25.65,-2.43,-4.58,-2.43,-4.57,4.58,4.71,3.99,2.14,2.15,2.14
25.91,-2.38,-4.52,-2.39,-4.53,4.55,4.70,4.09,2.17,2.16,2.13
26.16,-2.36,-4.50,-2.37,-4.50,4.53,4.69,4.19,2.16,2.16,2.13
26.43,-2.36,-4.50,-2.36,-4.49,4.51,4.68,4.28,2.14,2.15,2.13
26.69,-2.35,-4.49,-2.36,-4.49,4.49,4.67,4.38,2.14,2.13,2.13
26.96,-2.35,-4.49,-2.35,-4.49,4.48,4.66,4.47,2.13,2.13,2.13
27.23,-2.35,-4.49,-2.35,-4.49,4.48,4.65,4.56,2.12,2.12,2.13
27.50,-2.35,-4.49,-2.35,-4.48,4.48,4.64,4.65,2.12,2.12,2.13
27.77,-2.35,-4.48,-2.35,-4.48,4.48,4.63,4.74,2.12,2.12,2.12
28.05,-2.35,-4.48,-2.35,-4.47,4.48,4.61,4.82,2.12,2.12,2.12
28.33,-2.35,-4.47,-2.35,-4.47,4.48,4.60,4.90,2.12,2.12,2.11
28.62,-2.35,-4.47,-2.35,-4.47,4.48,4.59,4.98,2.12,2.12,2.11
28.90,-2.35,-4.48,-2.35,-4.47,4.48,4.58,5.05,2.12,2.12,2.12
29.19,-2.35,-4.47,-2.35,-4.47,4.47,4.56,5.11,2.12,2.12,2.11
29.48,-2.35,-4.48,-2.36,-4.48,4.47,4.55,5.17,2.11,2.11,2.12
29.78,-2.35,-4.47,-2.35,-4.47,4.45,4.54,5.22,2.10,2.10,2.11
30.08,-2.34,-4.47,-2.34,-4.46,4.44,4.52,5.27,2.10,2.10,2.12
30.38,-2.31,-4.43,-2.31,-4.43,4.42,4.51,5.31,2.11,2.11,2.11
30.68,-2.28,-4.40,-2.29,-4.40,4.41,4.50,5.34,2.12,2.12,2.11
30.99,-2.25,-4.37,-2.26,-4.37,4.38,4.48,5.36,2.13,2.12,2.11
31.30,-2.24,-4.35,-2.24,-4.35,4.36,4.47,5.38,2.12,2.12,2.10
31.61,-2.23,-4.34,-2.23,-4.34,4.34,4.46,5.39,2.10,2.10,2.10
31.93,-2.22,-4.33,-2.22,-4.32,4.31,4.45,5.39,2.09,2.09,2.10
32.24,-2.20,-4.30,-2.20,-4.30,4.29,4.43,5.39,2.09,2.09,2.09
32.57,-2.18,-4.28,-2.18,-4.28,4.28,4.42,5.37,2.09,2.09,2.09
32.89,-2.16,-4.26,-2.17,-4.26,4.26,4.41,5.36,2.10,2.10,2.09
33.22,-2.15,-4.24,-2.16,-4.24,4.25,4.40,5.33,2.10,2.09,2.08
33.55,-2.15,-4.24,-2.15,-4.23,4.24,4.39,5.30,2.08,2.09,2.08
33.89,-2.15,-4.23,-2.15,-4.23,4.23,4.38,5.27,2.07,2.08,2.07
34.23,-2.15,-4.23,-2.15,-4.22,4.22,4.36,5.23,2.07,2.07,2.07
34.57,-2.15,-4.22,-2.15,-4.22,4.22,4.35,5.18,2.06,2.06,2.06
34.92,-2.15,-4.22,-2.15,-4.21,4.21,4.34,5.13,2.06,2.06,2.06
35.27,-2.15,-4.21,-2.15,-4.21,4.21,4.34,5.08,2.06,2.06,2.05
35.62,-2.15,-4.21,-2.15,-4.21,4.21,4.33,5.03,2.05,2.05,2.05
35.97,-2.15,-4.21,-2.15,-4.21,4.20,4.32,4.97,2.05,2.05,2.05
36.33,-2.15,-4.21,-2.15,-4.20,4.20,4.31,4.91,2.05,2.05,2.05
36.70,-2.15,-4.20,-2.15,-4.20,4.20,4.30,4.86,2.05,2.05,2.04
37.06,-2.15,-4.20,-2.15,-4.20,4.20,4.30,4.80,2.05,2.05,2.04
37.43,-2.15,-4.21,-2.15,-4.20,4.20,4.29,4.74,2.05,2.05,2.05
37.81,-2.15,-4.21,-2.15,-4.20,4.20,4.29,4.68,2.05,2.05,2.05
38.19,-2.15,-4.20,-2.15,-4.21,4.21,4.28,4.62,2.05,2.05,2.04
38.57,-2.15,-4.21,-2.15,-4.21,4.21,4.28,4.56,2.05,2.05,2.05
38.95,-2.15,-4.22,-2.15,-4.21,4.21,4.28,4.50,2.05,2.05,2.06
39.34,-2.15,-4.21,-2.15,-4.21,4.21,4.28,4.45,2.05,2.05,2.05
39.74,-2.15,-4.21,-2.15,-4.21,4.21,4.28,4.39,2.05,2.05,2.05
40.14,-2.15,-4.21,-2.15,-4.21,4.21,4.28,4.34,2.05,2.05,2.05
40.54,-2.15,-4.21,-2.15,-4.20,4.20,4.28,4.29,2.05,2.05,2.05
40.94,-2.15,-4.20,-2.15,-4.20,4.20,4.28,4.25,2.05,2.05,2.04
41.35,-2.15,-4.20,-2.15,-4.19,4.20,4.28,4.20,2.04,2.04,2.04
41.76,-2.15,-4.19,-2.15,-4.19,4.19,4.29,4.16,2.04,2.04,2.03
42.18,-2.15,-4.19,-2.15,-4.18,4.18,4.29,4.12,2.03,2.03,2.03
42.60,-2.15,-4.18,-2.15,-4.18,4.17,4.29,4.09,2.02,2.02,2.02
43.03,-2.15,-4.17,-2.15,-4.17,4.16,4.30,4.05,2.01,2.01,2.01
43.46,-2.15,-4.16,-2.15,-4.15,4.14,4.31,4.02,1.99,1.99,2.00
43.90,-2.15,-4.14,-2.15,-4.14,4.13,4.31,4.00,1.97,1.97,1.98
44.33,-2.15,-4.12,-2.15,-4.12,4.11,4.32,3.97,1.96,1.96,1.96
44.78,-2.15,-4.10,-2.15,-4.10,4.10,4.33,3.95,1.95,1.95,1.94
45.23,-2.15,-4.09,-2.15,-4.08,4.10,4.34,3.93,1.95,1.95,1.93
45.68,-2.15,-4.08,-2.16,-4.08,4.10,4.35,3.92,1.95,1.94,1.92
46.13,-2.17,-4.08,-2.18,-4.09,4.11,4.36,3.91,1.94,1.93,1.90
46.60,-2.22,-4.13,-2.22,-4.12,4.12,4.37,3.90,1.90,1.90,1.90
47.06,-2.27,-4.16,-2.26,-4.15,4.14,4.38,3.89,1.86,1.88,1.88
47.53,-2.29,-4.17,-2.29,-4.17,4.15,4.39,3.89,1.86,1.86,1.87
48.01,-2.30,-4.18,-2.31,-4.18,4.16,4.40,3.89,1.86,1.85,1.87
48.49,-2.32,-4.18,-2.33,-4.18,4.17,4.41,3.89,1.85,1.84,1.85
48.97,-2.35,-4.19,-2.34,-4.18,4.17,4.43,3.89,1.82,1.83,1.83
49.46,-2.35,-4.17,-2.35,-4.17,4.17,4.43,3.90,1.81,1.81,1.81
49.96,-2.35,-4.15,-2.36,-4.15,4.16,4.44,3.91,1.80,1.80,1.79
50.46,-2.35,-4.14,-2.35,-4.14,4.14,4.45,3.92,1.79,1.79,1.78
50.96,-2.35,-4.13,-2.35,-4.12,4.13,4.46,3.93,1.78,1.78,1.77
51.47,-2.35,-4.11,-2.35,-4.11,4.12,4.47,3.94,1.76,1.76,1.75
51.99,-2.35,-4.10,-2.36,-4.10,4.10,4.47,3.96,1.75,1.75,1.74
52.51,-2.36,-4.10,-2.36,-4.09,4.09,4.47,3.97,1.73,1.73,1.73
53.03,-2.36,-4.10,-2.36,-4.09,4.07,4.47,3.99,1.71,1.71,1.73
53.56,-2.35,-4.07,-2.36,-4.07,4.06,4.47,4.00,1.70,1.70,1.71
54.10,-2.35,-4.06,-2.35,-4.06,4.04,4.47,4.02,1.69,1.69,1.70
54.64,-2.35,-4.04,-2.35,-4.04,4.03,4.46,4.03,1.68,1.68,1.68
55.18,-2.35,-4.04,-2.35,-4.03,4.03,4.45,4.05,1.68,1.68,1.68
55.74,-2.35,-4.02,-2.36,-4.02,4.04,4.44,4.06,1.69,1.69,1.66
56.29,-2.38,-4.04,-2.39,-4.04,4.07,4.43,4.07,1.68,1.68,1.65
56.86,-2.44,-4.09,-2.45,-4.09,4.12,4.41,4.08,1.67,1.66,1.64
57.42,-2.54,-4.16,-2.54,-4.16,4.19,4.39,4.09,1.64,1.64,1.61
58.00,-2.65,-4.26,-2.65,-4.25,4.28,4.36,4.09,1.63,1.63,1.60
58.58,-2.76,-4.36,-2.76,-4.35,4.38,4.33,4.09,1.62,1.62,1.59
59.16,-2.87,-4.45,-2.88,-4.45,4.48,4.30,4.09,1.61,1.61,1.57
59.76,-3.00,-4.56,-3.03,-4.57,4.57,4.27,4.08,1.57,1.55,1.55
60.35,-3.15,-4.67,-3.17,-4.68,4.63,4.23,4.07,1.48,1.46,1.51
60.96,-3.32,-4.80,-3.28,-4.75,4.67,4.19,4.05,1.35,1.39,1.47
61.57,-3.31,-4.75,-3.31,-4.74,4.67,4.14,4.03,1.36,1.36,1.43
62.18,-3.26,-4.66,-3.26,-4.65,4.63,4.09,4.01,1.37,1.37,1.39
62.80,-3.14,-4.49,-3.18,-4.52,4.55,4.04,3.98,1.40,1.37,1.34
63.43,-3.08,-4.39,-3.10,-4.40,4.42,3.98,3.94,1.34,1.32,1.30
64.07,-3.04,-4.30,-3.01,-4.27,4.26,3.92,3.90,1.21,1.25,1.25
64.71,-2.90,-4.12,-2.90,-4.12,4.07,3.86,3.86,1.17,1.17,1.21
65.35,-2.74,-3.92,-2.74,-3.91,3.88,3.79,3.81,1.14,1.14,1.17
66.01,-2.55,-3.68,-2.55,-3.67,3.69,3.72,3.76,1.13,1.14,1.12
66.67,-2.36,-3.44,-2.38,-3.45,3.50,3.65,3.70,1.13,1.12,1.07
67.33,-2.22,-3.25,-2.24,-3.27,3.31,3.58,3.64,1.09,1.07,1.02
68.01,-2.15,-3.14,-2.14,-3.12,3.14,3.51,3.57,0.99,1.00,0.98
68.69,-2.06,-3.00,-2.05,-2.98,2.99,3.43,3.51,0.92,0.94,0.93
69.37,-1.97,-2.86,-1.97,-2.86,2.86,3.35,3.43,0.88,0.88,0.88
70.07,-1.88,-2.72,-1.90,-2.74,2.75,3.27,3.36,0.86,0.85,0.83
70.77,-1.86,-2.65,-1.86,-2.65,2.66,3.19,3.28,0.79,0.80,0.78
71.48,-1.85,-2.59,-1.85,-2.58,2.58,3.11,3.20,0.73,0.73,0.73
72.19,-1.85,-2.52,-1.85,-2.52,2.51,3.03,3.12,0.65,0.65,0.66
72.91,-1.85,-2.46,-1.85,-2.46,2.44,2.95,3.04,0.58,0.59,0.60
73.64,-1.85,-2.41,-1.85,-2.40,2.38,2.87,2.96,0.52,0.52,0.55
74.38,-1.85,-2.35,-1.85,-2.34,2.33,2.78,2.87,0.47,0.47,0.49
75.12,-1.85,-2.29,-1.85,-2.28,2.29,2.70,2.79,0.43,0.43,0.43
75.87,-1.85,-2.23,-1.86,-2.23,2.26,2.62,2.70,0.40,0.40,0.37
76.63,-1.87,-2.20,-1.88,-2.20,2.24,2.54,2.62,0.37,0.37,0.32
77.40,-1.91,-2.19,-1.91,-2.18,2.24,2.45,2.53,0.32,0.32,0.27
78.17,-1.97,-2.19,-1.98,-2.20,2.23,2.37,2.45,0.26,0.25,0.21
78.95,-2.05,-2.23,-2.06,-2.23,2.23,2.29,2.36,0.17,0.16,0.17
79.74,-2.15,-2.28,-2.13,-2.25,2.21,2.21,2.28,0.06,0.08,0.12
80.54,-2.17,-2.25,-2.17,-2.25,2.18,2.13,2.19,0.00,0.00,0.07
81.35,-2.15,-2.18,-2.16,-2.18,2.13,2.05,2.11,-0.03,-0.03,0.02
82.16,-2.13,-2.11,-2.11,-2.09,2.06,1.98,2.03,-0.08,-0.05,-0.03
82.98,-2.01,-1.95,-2.04,-1.97,1.97,1.90,1.95,-0.05,-0.07,-0.07
83.81,-1.96,-1.85,-1.95,-1.84,1.86,1.82,1.87,-0.11,-0.10,-0.12
84.65,-1.87,-1.71,-1.87,-1.71,1.74,1.75,1.79,-0.14,-0.13,-0.17
85.50,-1.79,-1.59,-1.81,-1.60,1.62,1.67,1.71,-0.17,-0.19,-0.21
86.35,-1.75,-1.50,-1.75,-1.50,1.51,1.60,1.63,-0.25,-0.24,-0.26
87.22,-1.73,-1.43,-1.71,-1.40,1.41,1.53,1.56,-0.32,-0.30,-0.31
88.09,-1.65,-1.30,-1.68,-1.32,1.32,1.46,1.48,-0.33,-0.35,-0.36
88.97,-1.65,-1.24,-1.65,-1.24,1.25,1.39,1.41,-0.41,-0.41,-0.42
89.86,-1.64,-1.18,-1.64,-1.17,1.18,1.32,1.34,-0.46,-0.46,-0.47
90.76,-1.64,-1.13,-1.64,-1.13,1.12,1.25,1.26,-0.52,-0.52,-0.52
91.66,-1.64,-1.08,-1.64,-1.07,1.07,1.19,1.19,-0.58,-0.58,-0.57
92.58,-1.64,-1.02,-1.64,-1.02,1.01,1.12,1.12,-0.63,-0.63,-0.63
93.51,-1.64,-0.97,-1.64,-0.97,0.97,1.06,1.06,-0.68,-0.68,-0.68
94.44,-1.64,-0.93,-1.64,-0.92,0.92,1.00,0.99,-0.72,-0.72,-0.72
95.39,-1.64,-0.88,-1.65,-0.88,0.88,0.93,0.92,-0.77,-0.77,-0.77
96.34,-1.65,-0.84,-1.65,-0.83,0.83,0.87,0.86,-0.82,-0.81,-0.82
97.30,-1.65,-0.79,-1.66,-0.79,0.79,0.81,0.79,-0.86,-0.86,-0.87
98.28,-1.66,-0.75,-1.67,-0.75,0.76,0.75,0.73,-0.91,-0.91,-0.92
99.26,-1.68,-0.73,-1.68,-0.72,0.72,0.70,0.67,-0.96,-0.96,-0.96
100.25,-1.69,-0.69,-1.70,-0.69,0.68,0.64,0.61,-1.01,-1.01,-1.01
101.25,-1.71,-0.66,-1.71,-0.65,0.65,0.58,0.55,-1.06,-1.06,-1.06
102.27,-1.72,-0.62,-1.73,-0.62,0.62,0.53,0.49,-1.10,-1.10,-1.11
103.29,-1.74,-0.59,-1.74,-0.59,0.60,0.48,0.43,-1.15,-1.15,-1.16
104.32,-1.76,-0.57,-1.76,-0.56,0.57,0.42,0.37,-1.19,-1.19,-1.20
105.37,-1.78,-0.54,-1.78,-0.54,0.54,0.37,0.32,-1.24,-1.24,-1.25
106.42,-1.80,-0.51,-1.81,-0.51,0.51,0.32,0.26,-1.30,-1.30,-1.30
107.48,-1.83,-0.48,-1.84,-0.48,0.47,0.27,0.21,-1.37,-1.37,-1.36
108.56,-1.85,-0.45,-1.85,-0.44,0.42,0.22,0.15,-1.43,-1.43,-1.41
109.64,-1.87,-0.42,-1.85,-0.39,0.38,0.17,0.10,-1.50,-1.47,-1.46
110.74,-1.82,-0.31,-1.84,-0.33,0.33,0.12,0.05,-1.50,-1.51,-1.52
111.85,-1.81,-0.26,-1.82,-0.26,0.27,0.07,0.00,-1.54,-1.55,-1.56
112.97,-1.82,-0.21,-1.82,-0.20,0.22,0.03,-0.05,-1.60,-1.60,-1.62
114.10,-1.82,-0.16,-1.83,-0.16,0.16,-0.02,-0.09,-1.66,-1.66,-1.67
115.24,-1.83,-0.12,-1.83,-0.11,0.11,-0.06,-0.14,-1.72,-1.72,-1.72
116.39,-1.82,-0.06,-1.83,-0.06,0.06,-0.11,-0.18,-1.76,-1.77,-1.77
117.55,-1.82,-0.02,-1.83,-0.02,0.02,-0.15,-0.22,-1.81,-1.81,-1.81
118.73,-1.82,0.02,-1.82,0.03,-0.03,-0.20,-0.26,-1.85,-1.85,-1.85
119.92,-1.81,0.06,-1.81,0.07,-0.07,-0.24,-0.30,-1.88,-1.88,-1.88
121.12,-1.80,0.11,-1.81,0.11,-0.11,-0.28,-0.34,-1.91,-1.91,-1.92
122.33,-1.79,0.15,-1.80,0.15,-0.15,-0.32,-0.38,-1.94,-1.94,-1.95
123.55,-1.79,0.18,-1.79,0.19,-0.19,-0.36,-0.41,-1.98,-1.98,-1.98
124.79,-1.78,0.22,-1.78,0.22,-0.22,-0.40,-0.44,-2.01,-2.01,-2.01
126.03,-1.77,0.26,-1.78,0.26,-0.26,-0.44,-0.48,-2.03,-2.04,-2.04
127.29,-1.77,0.28,-1.77,0.29,-0.30,-0.48,-0.51,-2.07,-2.07,-2.06
128.57,-1.76,0.33,-1.76,0.33,-0.33,-0.52,-0.53,-2.10,-2.10,-2.10
129.85,-1.75,0.37,-1.76,0.37,-0.37,-0.56,-0.56,-2.12,-2.13,-2.13
131.15,-1.75,0.40,-1.75,0.41,-0.40,-0.60,-0.59,-2.16,-2.15,-2.16
132.46,-1.74,0.44,-1.75,0.44,-0.44,-0.63,-0.61,-2.19,-2.19,-2.19
133.79,-1.74,0.47,-1.74,0.47,-0.48,-0.67,-0.64,-2.22,-2.22,-2.22
135.12,-1.74,0.50,-1.74,0.50,-0.51,-0.71,-0.66,-2.26,-2.25,-2.25
136.48,-1.73,0.53,-1.74,0.54,-0.54,-0.74,-0.68,-2.27,-2.28,-2.27
137.84,-1.73,0.57,-1.73,0.57,-0.56,-0.78,-0.70,-2.30,-2.29,-2.31
139.22,-1.73,0.60,-1.73,0.61,-0.58,-0.82,-0.72,-2.32,-2.31,-2.34
140.61,-1.73,0.63,-1.74,0.62,-0.60,-0.85,-0.74,-2.33,-2.35,-2.37
142.02,-1.76,0.62,-1.77,0.62,-0.62,-0.89,-0.76,-2.38,-2.39,-2.39
143.44,-1.81,0.60,-1.80,0.62,-0.63,-0.92,-0.78,-2.45,-2.43,-2.42
144.87,-1.83,0.62,-1.83,0.63,-0.65,-0.96,-0.80,-2.48,-2.47,-2.46
146.32,-1.83,0.66,-1.83,0.66,-0.66,-0.99,-0.82,-2.50,-2.50,-2.50
147.78,-1.83,0.69,-1.84,0.69,-0.69,-1.02,-0.84,-2.52,-2.52,-2.53
149.26,-1.84,0.73,-1.86,0.72,-0.72,-1.06,-0.85,-2.56,-2.58,-2.58
150.75,-1.89,0.74,-1.89,0.75,-0.76,-1.09,-0.87,-2.65,-2.65,-2.64
152.26,-1.92,0.78,-1.92,0.79,-0.81,-1.12,-0.89,-2.73,-2.72,-2.71
153.78,-1.93,0.84,-1.93,0.84,-0.86,-1.16,-0.91,-2.79,-2.79,-2.78
155.32,-1.93,0.91,-1.93,0.92,-0.91,-1.19,-0.93,-2.85,-2.84,-2.85
156.88,-1.92,1.00,-1.93,0.99,-0.97,-1.23,-0.95,-2.90,-2.91,-2.93
158.44,-1.93,1.07,-1.96,1.05,-1.04,-1.26,-0.97,-2.97,-3.00,-3.01
160.03,-2.00,1.08,-1.99,1.10,-1.11,-1.29,-0.99,-3.11,-3.10,-3.09
161.63,-2.02,1.13,-2.00,1.15,-1.17,-1.33,-1.01,-3.20,-3.18,-3.16
163.24,-1.99,1.22,-1.99,1.23,-1.24,-1.36,-1.04,-3.23,-3.23,-3.22
164.88,-1.93,1.33,-1.96,1.31,-1.29,-1.39,-1.06,-3.23,-3.25,-3.27
166.53,-1.94,1.37,-1.94,1.38,-1.35,-1.43,-1.09,-3.29,-3.29,-3.32
168.19,-1.94,1.41,-1.95,1.41,-1.39,-1.46,-1.11,-3.34,-3.34,-3.36
169.87,-1.95,1.44,-1.95,1.44,-1.44,-1.50,-1.14,-3.39,-3.39,-3.40
171.57,-1.96,1.45,-1.94,1.48,-1.48,-1.53,-1.16,-3.45,-3.42,-3.42
173.29,-1.90,1.52,-1.92,1.51,-1.52,-1.57,-1.19,-3.42,-3.44,-3.43
175.02,-1.87,1.56,-1.89,1.55,-1.56,-1.61,-1.22,-3.43,-3.45,-3.44
176.77,-1.87,1.57,-1.86,1.59,-1.59,-1.64,-1.25,-3.47,-3.45,-3.45
178.54,-1.83,1.62,-1.83,1.62,-1.63,-1.68,-1.28,-3.46,-3.46,-3.46
180.32,-1.78,1.66,-1.77,1.67,-1.67,-1.72,-1.32,-3.46,-3.45,-3.45
182.13,-1.70,1.73,-1.71,1.73,-1.72,-1.76,-1.35,-3.42,-3.43,-3.44
183.95,-1.65,1.79,-1.67,1.77,-1.76,-1.80,-1.38,-3.41,-3.43,-3.45
185.79,-1.64,1.80,-1.64,1.81,-1.81,-1.84,-1.42,-3.45,-3.45,-3.45
187.65,-1.62,1.84,-1.61,1.85,-1.86,-1.89,-1.46,-3.48,-3.47,-3.47
189.52,-1.58,1.89,-1.58,1.90,-1.92,-1.93,-1.49,-3.50,-3.49,-3.48
191.42,-1.51,1.98,-1.53,1.96,-1.98,-1.98,-1.53,-3.49,-3.51,-3.50
193.33,-1.48,2.03,-1.49,2.03,-2.04,-2.02,-1.57,-3.53,-3.53,-3.52
195.27,-1.45,2.08,-1.43,2.11,-2.11,-2.07,-1.61,-3.57,-3.54,-3.54
197.22,-1.37,2.18,-1.36,2.19,-2.19,-2.12,-1.65,-3.56,-3.55,-3.56
199.19,-1.27,2.30,-1.30,2.28,-2.26,-2.18,-1.69,-3.54,-3.56,-3.58
201.18,-1.23,2.36,-1.25,2.35,-2.34,-2.23,-1.73,-3.57,-3.59,-3.60
203.19,-1.23,2.38,-1.21,2.41,-2.41,-2.29,-1.77,-3.64,-3.62,-3.62
205.23,-1.17,2.46,-1.17,2.47,-2.47,-2.34,-1.82,-3.65,-3.64,-3.64
207.28,-1.10,2.54,-1.11,2.54,-2.53,-2.40,-1.86,-3.64,-3.64,-3.65
209.35,-1.05,2.61,-1.06,2.61,-2.59,-2.46,-1.90,-3.64,-3.65,-3.67
211.44,-1.02,2.67,-1.04,2.65,-2.65,-2.52,-1.94,-3.67,-3.69,-3.70
213.56,-1.03,2.67,-1.03,2.67,-2.70,-2.58,-1.98,-3.73,-3.73,-3.71
215.69,-1.04,2.67,-1.00,2.71,-2.75,-2.64,-2.02,-3.79,-3.75,-3.72
217.85,-0.94,2.78,-0.95,2.78,-2.79,-2.70,-2.06,-3.74,-3.75,-3.73
220.03,-0.87,2.86,-0.89,2.85,-2.83,-2.76,-2.10,-3.70,-3.72,-3.74
222.23,-0.84,2.92,-0.85,2.91,-2.86,-2.82,-2.14,-3.70,-3.71,-3.77
224.45,-0.84,2.91,-0.84,2.92,-2.89,-2.87,-2.18,-3.73,-3.73,-3.76
226.70,-0.84,2.91,-0.85,2.91,-2.92,-2.92,-2.21,-3.77,-3.77,-3.76
228.96,-0.84,2.90,-0.85,2.90,-2.95,-2.96,-2.25,-3.79,-3.80,-3.75
231.25,-0.83,2.90,-0.81,2.92,-2.97,-3.00,-2.28,-3.80,-3.78,-3.74
233.57,-0.77,2.95,-0.77,2.96,-2.97,-3.02,-2.30,-3.74,-3.74,-3.73
235.90,-0.69,3.02,-0.72,3.00,-2.96,-3.04,-2.33,-3.65,-3.68,-3.72
238.26,-0.69,3.01,-0.69,3.01,-2.95,-3.05,-2.35,-3.65,-3.64,-3.71
240.64,-0.68,2.99,-0.70,2.98,-2.95,-3.05,-2.37,-3.63,-3.65,-3.68
243.05,-0.73,2.91,-0.73,2.92,-2.94,-3.03,-2.39,-3.67,-3.67,-3.65
245.48,-0.77,2.85,-0.75,2.88,-2.93,-3.01,-2.41,-3.70,-3.67,-3.63
247.93,-0.73,2.86,-0.74,2.86,-2.90,-2.98,-2.42,-3.64,-3.65,-3.60
250.41,-0.71,2.86,-0.71,2.86,-2.87,-2.94,-2.43,-3.59,-3.58,-3.58
252.92,-0.68,2.86,-0.68,2.87,-2.84,-2.89,-2.43,-3.52,-3.52,-3.55
255.45,-0.67,2.85,-0.69,2.84,-2.80,-2.83,-2.43,-3.47,-3.49,-3.53
258.00,-0.70,2.80,-0.73,2.78,-2.77,-2.77,-2.43,-3.47,-3.49,-3.51
260.58,-0.80,2.68,-0.75,2.73,-2.73,-2.70,-2.43,-3.54,-3.48,-3.49
263.19,-0.79,2.66,-0.79,2.67,-2.69,-2.63,-2.42,-3.49,-3.48,-3.46
265.82,-0.76,2.67,-0.84,2.60,-2.64,-2.55,-2.41,-3.40,-3.48,-3.44
268.48,-0.91,2.50,-0.86,2.56,-2.57,-2.47,-2.40,-3.49,-3.43,-3.42
271.16,-0.92,2.46,-0.89,2.51,-2.49,-2.39,-2.38,-3.42,-3.38,-3.39
273.87,-0.87,2.49,-0.92,2.45,-2.41,-2.31,-2.37,-3.28,-3.33,-3.37
276.61,-0.94,2.39,-0.96,2.38,-2.32,-2.23,-2.35,-3.26,-3.28,-3.34
279.38,-1.06,2.24,-1.07,2.24,-2.22,-2.14,-2.33,-3.28,-3.29,-3.31
282.17,-1.22,2.06,-1.22,2.07,-2.10,-2.05,-2.31,-3.33,-3.32,-3.29
284.99,-1.34,1.90,-1.32,1.94,-1.98,-1.96,-2.28,-3.32,-3.29,-3.25
287.84,-1.40,1.82,-1.37,1.85,-1.85,-1.87,-2.26,-3.25,-3.22,-3.23
290.72,-1.39,1.80,-1.45,1.74,-1.72,-1.78,-2.23,-3.11,-3.17,-3.20
293.63,-1.51,1.65,-1.57,1.59,-1.59,-1.68,-2.21,-3.10,-3.16,-3.17
296.57,-1.76,1.37,-1.69,1.45,-1.47,-1.58,-2.18,-3.23,-3.15,-3.14
299.53,-1.83,1.27,-1.78,1.33,-1.36,-1.48,-2.16,-3.19,-3.14,-3.11
302.53,-1.77,1.31,-1.84,1.24,-1.26,-1.38,-2.13,-3.03,-3.10,-3.09
305.55,-1.85,1.19,-1.88,1.17,-1.16,-1.27,-2.11,-3.01,-3.04,-3.05
308.61,-1.99,1.03,-1.96,1.07,-1.06,-1.17,-2.08,-3.05,-3.02,-3.03
311.69,-2.05,0.94,-2.04,0.96,-0.96,-1.06,-2.06,-3.02,-3.00,-3.00
314.81,-2.08,0.89,-2.09,0.89,-0.87,-0.96,-2.03,-2.95,-2.96,-2.98
317.96,-2.11,0.84,-2.13,0.83,-0.78,-0.86,-2.01,-2.89,-2.91,-2.96
321.14,-2.21,0.73,-2.21,0.73,-0.69,-0.77,-1.99,-2.91,-2.91,-2.95
324.35,-2.29,0.63,-2.31,0.62,-0.62,-0.68,-1.96,-2.91,-2.93,-2.93
327.59,-2.42,0.49,-2.40,0.52,-0.56,-0.61,-1.94,-2.99,-2.96,-2.92
330.87,-2.45,0.45,-2.44,0.47,-0.52,-0.55,-1.92,-2.98,-2.96,-2.91
334.18,-2.42,0.46,-2.43,0.46,-0.51,-0.50,-1.91,-2.93,-2.93,-2.89
337.52,-2.36,0.51,-2.38,0.50,-0.51,-0.47,-1.89,-2.87,-2.89,-2.88
340.90,-2.31,0.55,-2.32,0.55,-0.53,-0.47,-1.87,-2.85,-2.85,-2.87
344.30,-2.27,0.58,-2.26,0.59,-0.58,-0.47,-1.86,-2.85,-2.84,-2.86
347.75,-2.20,0.65,-2.21,0.65,-0.64,-0.50,-1.85,-2.84,-2.85,-2.86
351.23,-2.14,0.70,-2.14,0.71,-0.71,-0.54,-1.84,-2.85,-2.85,-2.85
354.74,-2.07,0.78,-2.07,0.78,-0.78,-0.59,-1.83,-2.85,-2.85,-2.86
358.28,-1.99,0.85,-2.00,0.85,-0.84,-0.66,-1.82,-2.84,-2.84,-2.85
361.87,-1.93,0.91,-1.94,0.91,-0.91,-0.73,-1.81,-2.84,-2.84,-2.85
365.49,-1.87,0.96,-1.88,0.96,-0.96,-0.81,-1.81,-2.84,-2.85,-2.84
369.14,-1.85,0.99,-1.83,1.02,-1.01,-0.89,-1.80,-2.87,-2.84,-2.85
372.83,-1.77,1.07,-1.78,1.07,-1.06,-0.97,-1.80,-2.83,-2.84,-2.85
376.56,-1.73,1.12,-1.75,1.10,-1.09,-1.05,-1.80,-2.82,-2.84,-2.86
380.33,-1.72,1.12,-1.72,1.13,-1.11,-1.13,-1.80,-2.84,-2.83,-2.85
384.13,-1.72,1.12,-1.72,1.14,-1.13,-1.21,-1.80,-2.85,-2.85,-2.85
387.97,-1.71,1.14,-1.72,1.14,-1.14,-1.28,-1.80,-2.85,-2.86,-2.86
391.85,-1.71,1.15,-1.71,1.15,-1.15,-1.35,-1.80,-2.86,-2.86,-2.87
395.77,-1.71,1.14,-1.71,1.15,-1.16,-1.41,-1.81,-2.87,-2.87,-2.86
399.73,-1.71,1.15,-1.72,1.15,-1.17,-1.47,-1.82,-2.88,-2.89,-2.87
403.72,-1.71,1.15,-1.71,1.16,-1.17,-1.53,-1.82,-2.89,-2.89,-2.87
407.76,-1.71,1.17,-1.69,1.19,-1.19,-1.58,-1.83,-2.90,-2.88,-2.89
411.84,-1.65,1.23,-1.66,1.22,-1.20,-1.63,-1.84,-2.86,-2.87,-2.89
415.96,-1.62,1.26,-1.64,1.25,-1.23,-1.67,-1.85,-2.85,-2.87,-2.89
420.12,-1.62,1.26,-1.63,1.26,-1.26,-1.71,-1.86,-2.88,-2.89,-2.89
424.32,-1.61,1.27,-1.62,1.27,-1.30,-1.75,-1.87,-2.91,-2.92,-2.89
428.56,-1.60,1.27,-1.57,1.31,-1.34,-1.78,-1.88,-2.94,-2.91,-2.88
432.85,-1.50,1.36,-1.50,1.37,-1.38,-1.82,-1.89,-2.88,-2.88,-2.87
437.18,-1.37,1.48,-1.41,1.43,-1.42,-1.84,-1.90,-2.80,-2.84,-2.86
441.55,-1.32,1.49,-1.32,1.50,-1.47,-1.87,-1.91,-2.80,-2.79,-2.82
445.96,-1.27,1.51,-1.24,1.55,-1.53,-1.90,-1.93,-2.80,-2.77,-2.79
450.42,-1.14,1.61,-1.17,1.58,-1.59,-1.92,-1.94,-2.73,-2.76,-2.76
454.93,-1.07,1.63,-1.08,1.64,-1.65,-1.94,-1.95,-2.72,-2.73,-2.71
459.48,-0.98,1.68,-0.97,1.69,-1.71,-1.96,-1.96,-2.70,-2.68,-2.67
464.07,-0.86,1.75,-0.86,1.75,-1.77,-1.98,-1.97,-2.63,-2.64,-2.62
