frequency,raw,error,smoothed,error_smoothed,equalization,parametric_eq,fixed_band_eq,equalized_raw,equalized_smoothed,target
20.00,0.55,-2.40,0.50,-2.47,2.47,-0.10,0.38,3.02,2.97,2.95
20.20,0.58,-2.40,0.60,-2.40,2.40,-0.10,0.39,2.98,2.99,2.98
20.40,0.67,-2.34,0.69,-2.32,2.32,-0.10,0.41,2.99,3.01,3.01
20.61,0.76,-2.27,0.78,-2.25,2.25,-0.10,0.42,3.01,3.03,3.03
20.81,0.86,-2.20,0.87,-2.18,2.18,-0.10,0.43,3.04,3.05,3.06
21.02,0.95,-2.14,0.95,-2.11,2.11,-0.11,0.44,3.06,3.07,3.09
21.23,1.04,-2.06,1.03,-2.05,2.05,-0.11,0.45,3.09,3.08,3.10
21.44,1.12,-1.99,1.11,-1.98,1.98,-0.11,0.47,3.10,3.09,3.11
21.66,1.17,-1.95,1.18,-1.92,1.92,-0.11,0.48,3.09,3.10,3.12
21.87,1.25,-1.87,1.26,-1.86,1.86,-0.11,0.49,3.11,3.11,3.12
22.09,1.33,-1.80,1.32,-1.80,1.80,-0.12,0.51,3.13,3.12,3.13
22.31,1.39,-1.74,1.39,-1.74,1.74,-0.12,0.52,3.13,3.13,3.13
22.54,1.46,-1.67,1.45,-1.68,1.68,-0.12,0.54,3.13,3.13,3.13
22.76,1.52,-1.60,1.51,-1.62,1.62,-0.12,0.55,3.14,3.13,3.12
22.99,1.56,-1.55,1.56,-1.56,1.56,-0.13,0.57,3.12,3.12,3.11
23.22,1.61,-1.50,1.61,-1.51,1.51,-0.13,0.59,3.12,3.12,3.11
23.45,1.66,-1.45,1.66,-1.46,1.46,-0.13,0.60,3.12,3.12,3.11
23.69,1.70,-1.41,1.70,-1.42,1.42,-0.13,0.62,3.12,3.12,3.11
23.92,1.74,-1.37,1.74,-1.37,1.37,-0.14,0.64,3.11,3.12,3.11
24.16,1.77,-1.35,1.78,-1.33,1.33,-0.14,0.65,3.10,3.11,3.12
24.40,1.82,-1.30,1.81,-1.30,1.30,-0.14,0.67,3.12,3.11,3.12
24.65,1.86,-1.25,1.85,-1.26,1.26,-0.14,0.69,3.12,3.11,3.11
24.89,1.87,-1.24,1.88,-1.23,1.23,-0.15,0.71,3.10,3.11,3.11
25.14,1.91,-1.20,1.91,-1.20,1.20,-0.15,0.72,3.11,3.11,3.11
25.39,1.93,-1.17,1.93,-1.17,1.17,-0.15,0.74,3.10,3.10,3.11
25.65,1.96,-1.14,1.96,-1.14,1.14,-0.16,0.76,3.10,3.10,3.10
25.91,1.99,-1.10,1.99,-1.11,1.11,-0.16,0.78,3.10,3.10,3.09
26.16,2.01,-1.08,2.02,-1.08,1.08,-0.16,0.80,3.09,3.10,3.09
26.43,2.05,-1.04,2.05,-1.05,1.05,-0.16,0.81,3.09,3.09,3.09
26.69,2.06,-1.03,2.08,-1.01,1.01,-0.17,0.83,3.07,3.09,3.09
26.96,2.10,-0.99,2.10,-0.98,0.98,-0.17,0.85,3.08,3.09,3.09
27.23,2.12,-0.97,2.13,-0.95,0.95,-0.17,0.86,3.07,3.08,3.09
27.50,2.16,-0.93,2.16,-0.92,0.92,-0.18,0.88,3.08,3.08,3.09
27.77,2.19,-0.88,2.19,-0.89,0.89,-0.18,0.89,3.08,3.07,3.07
28.05,2.22,-0.85,2.21,-0.86,0.86,-0.18,0.91,3.08,3.07,3.07
28.33,2.24,-0.82,2.24,-0.83,0.83,-0.19,0.92,3.07,3.07,3.06
28.62,2.28,-0.78,2.26,-0.80,0.80,-0.19,0.93,3.08,3.06,3.06
28.90,2.29,-0.77,2.29,-0.77,0.77,-0.20,0.94,3.06,3.06,3.06
29.19,2.32,-0.73,2.31,-0.74,0.74,-0.20,0.95,3.06,3.05,3.05
29.48,2.33,-0.72,2.33,-0.72,0.72,-0.20,0.96,3.05,3.05,3.05
29.78,2.33,-0.71,2.35,-0.69,0.69,-0.21,0.97,3.02,3.04,3.04
30.08,2.38,-0.66,2.36,-0.67,0.67,-0.21,0.98,3.05,3.03,3.04
30.38,2.38,-0.65,2.38,-0.65,0.65,-0.22,0.98,3.03,3.03,3.03
30.68,2.38,-0.65,2.39,-0.63,0.63,-0.22,0.98,3.01,3.02,3.03
30.99,2.40,-0.61,2.41,-0.61,0.61,-0.22,0.98,3.01,3.02,3.01
31.30,2.43,-0.58,2.42,-0.59,0.59,-0.23,0.98,3.02,3.01,3.01
31.61,2.43,-0.58,2.43,-0.57,0.57,-0.23,0.98,3.00,3.00,3.01
31.93,2.43,-0.57,2.45,-0.55,0.55,-0.24,0.98,2.98,3.00,3.00
32.24,2.47,-0.51,2.46,-0.53,0.53,-0.24,0.98,3.00,2.99,2.98
32.57,2.47,-0.51,2.48,-0.50,0.50,-0.25,0.97,2.97,2.98,2.98
32.89,2.47,-0.51,2.49,-0.48,0.48,-0.25,0.96,2.95,2.97,2.98
33.22,2.51,-0.45,2.51,-0.46,0.46,-0.26,0.95,2.97,2.97,2.96
33.55,2.52,-0.44,2.52,-0.44,0.44,-0.26,0.94,2.96,2.96,2.96
33.89,2.52,-0.43,2.53,-0.42,0.42,-0.26,0.93,2.94,2.95,2.95
34.23,2.52,-0.42,2.54,-0.40,0.40,-0.27,0.92,2.92,2.94,2.94
34.57,2.57,-0.36,2.54,-0.39,0.39,-0.28,0.91,2.96,2.93,2.93
34.92,2.57,-0.35,2.54,-0.38,0.38,-0.28,0.89,2.95,2.92,2.92
35.27,2.57,-0.34,2.54,-0.37,0.37,-0.29,0.88,2.94,2.91,2.91
35.62,2.57,-0.33,2.54,-0.36,0.36,-0.29,0.86,2.93,2.90,2.90
35.97,2.52,-0.37,2.53,-0.36,0.36,-0.30,0.84,2.88,2.89,2.89
36.33,2.52,-0.36,2.52,-0.36,0.36,-0.30,0.83,2.88,2.88,2.88
36.70,2.52,-0.35,2.51,-0.35,0.35,-0.31,0.81,2.87,2.87,2.87
37.06,2.50,-0.35,2.51,-0.35,0.35,-0.31,0.79,2.85,2.86,2.85
37.43,2.47,-0.38,2.50,-0.34,0.34,-0.32,0.78,2.81,2.84,2.85
37.81,2.47,-0.36,2.50,-0.33,0.33,-0.33,0.76,2.80,2.83,2.83
38.19,2.47,-0.35,2.49,-0.32,0.32,-0.33,0.74,2.79,2.82,2.82
38.57,2.47,-0.34,2.49,-0.32,0.32,-0.34,0.72,2.79,2.81,2.81
38.95,2.47,-0.33,2.49,-0.31,0.31,-0.34,0.71,2.78,2.79,2.80
39.34,2.47,-0.31,2.49,-0.29,0.29,-0.35,0.69,2.76,2.78,2.78
39.74,2.49,-0.27,2.49,-0.28,0.28,-0.36,0.67,2.77,2.77,2.76
40.14,2.52,-0.24,2.49,-0.27,0.27,-0.36,0.66,2.79,2.76,2.76
40.54,2.52,-0.22,2.49,-0.26,0.26,-0.37,0.64,2.78,2.75,2.74
40.94,2.52,-0.21,2.49,-0.25,0.25,-0.38,0.62,2.77,2.74,2.73
41.35,2.52,-0.20,2.48,-0.24,0.24,-0.38,0.61,2.76,2.72,2.72
41.76,2.47,-0.24,2.48,-0.23,0.23,-0.39,0.59,2.70,2.71,2.71
42.18,2.47,-0.23,2.47,-0.23,0.23,-0.40,0.58,2.70,2.69,2.70
42.60,2.44,-0.25,2.45,-0.23,0.23,-0.41,0.56,2.67,2.68,2.69
43.03,2.43,-0.25,2.44,-0.22,0.22,-0.41,0.55,2.65,2.66,2.68
43.46,2.43,-0.23,2.42,-0.22,0.22,-0.42,0.54,2.65,2.65,2.66
43.90,2.38,-0.25,2.41,-0.23,0.23,-0.43,0.53,2.61,2.63,2.63
44.33,2.38,-0.23,2.39,-0.23,0.23,-0.44,0.51,2.61,2.62,2.61
44.78,2.38,-0.21,2.37,-0.23,0.23,-0.45,0.50,2.61,2.60,2.59
45.23,2.33,-0.24,2.35,-0.23,0.23,-0.45,0.49,2.56,2.58,2.57
45.68,2.33,-0.22,2.34,-0.22,0.22,-0.46,0.48,2.55,2.56,2.55
46.13,2.33,-0.20,2.32,-0.22,0.22,-0.47,0.47,2.55,2.54,2.53
46.60,2.29,-0.23,2.30,-0.21,0.21,-0.48,0.46,2.50,2.52,2.52
47.06,2.29,-0.21,2.28,-0.21,0.21,-0.49,0.45,2.50,2.49,2.50
47.53,2.29,-0.19,2.27,-0.20,0.20,-0.50,0.44,2.49,2.47,2.48
48.01,2.24,-0.23,2.25,-0.20,0.20,-0.51,0.43,2.44,2.45,2.47
48.49,2.24,-0.19,2.23,-0.20,0.20,-0.51,0.42,2.44,2.42,2.43
48.97,2.20,-0.20,2.21,-0.19,0.19,-0.52,0.42,2.39,2.40,2.40
49.46,2.19,-0.18,2.18,-0.19,0.19,-0.53,0.41,2.38,2.37,2.37
49.96,2.15,-0.18,2.16,-0.19,0.19,-0.54,0.40,2.34,2.35,2.33
50.46,2.15,-0.17,2.14,-0.18,0.18,-0.55,0.39,2.33,2.32,2.32
50.96,2.10,-0.19,2.11,-0.18,0.18,-0.56,0.39,2.28,2.29,2.29
51.47,2.09,-0.17,2.09,-0.18,0.18,-0.57,0.38,2.27,2.27,2.26
51.99,2.05,-0.18,2.06,-0.18,0.18,-0.58,0.37,2.23,2.24,2.23
52.51,2.04,-0.18,2.04,-0.18,0.18,-0.59,0.36,2.22,2.21,2.22
53.03,2.01,-0.18,2.01,-0.17,0.17,-0.60,0.36,2.18,2.18,2.19
53.56,1.98,-0.18,1.99,-0.17,0.17,-0.61,0.35,2.15,2.16,2.16
54.10,1.96,-0.17,1.96,-0.17,0.17,-0.63,0.34,2.13,2.13,2.13
54.64,1.93,-0.17,1.93,-0.17,0.17,-0.64,0.33,2.10,2.10,2.10
55.18,1.91,-0.16,1.91,-0.17,0.17,-0.65,0.32,2.08,2.08,2.07
55.74,1.88,-0.16,1.88,-0.17,0.17,-0.66,0.32,2.05,2.05,2.04
56.29,1.87,-0.15,1.85,-0.17,0.17,-0.67,0.31,2.04,2.02,2.02
56.86,1.82,-0.17,1.83,-0.17,0.17,-0.68,0.30,1.99,2.00,1.99
57.42,1.81,-0.15,1.80,-0.17,0.17,-0.69,0.29,1.98,1.97,1.96
58.00,1.77,-0.17,1.77,-0.17,0.17,-0.71,0.27,1.94,1.94,1.94
58.58,1.75,-0.16,1.75,-0.16,0.16,-0.72,0.26,1.91,1.91,1.91
59.16,1.73,-0.16,1.72,-0.16,0.16,-0.73,0.25,1.89,1.88,1.89
59.76,1.69,-0.17,1.70,-0.15,0.15,-0.74,0.24,1.84,1.85,1.86
60.35,1.68,-0.15,1.68,-0.14,0.14,-0.76,0.22,1.82,1.82,1.83
60.96,1.63,-0.17,1.65,-0.14,0.14,-0.77,0.21,1.77,1.79,1.80
61.57,1.63,-0.12,1.63,-0.13,0.13,-0.78,0.19,1.76,1.76,1.75
62.18,1.59,-0.12,1.61,-0.12,0.12,-0.80,0.17,1.71,1.72,1.71
62.80,1.59,-0.10,1.58,-0.11,0.11,-0.81,0.15,1.70,1.69,1.69
63.43,1.57,-0.08,1.56,-0.09,0.09,-0.82,0.13,1.66,1.66,1.65
64.07,1.54,-0.07,1.54,-0.08,0.08,-0.84,0.11,1.62,1.62,1.61
64.71,1.54,-0.04,1.52,-0.07,0.07,-0.85,0.09,1.61,1.59,1.58
65.35,1.49,-0.06,1.49,-0.06,0.06,-0.87,0.06,1.55,1.55,1.55
66.01,1.47,-0.05,1.47,-0.05,0.05,-0.88,0.04,1.52,1.52,1.52
66.67,1.45,-0.03,1.44,-0.04,0.04,-0.89,0.01,1.49,1.48,1.48
67.33,1.41,-0.04,1.42,-0.03,0.03,-0.91,-0.02,1.44,1.44,1.45
68.01,1.40,-0.01,1.39,-0.02,0.02,-0.92,-0.04,1.42,1.41,1.41
68.69,1.35,-0.02,1.36,-0.01,0.01,-0.94,-0.07,1.36,1.37,1.37
69.37,1.34,0.01,1.34,0.00,-0.00,-0.96,-0.10,1.34,1.33,1.33
70.07,1.31,0.01,1.31,0.01,-0.01,-0.97,-0.14,1.30,1.30,1.30
70.77,1.28,0.02,1.28,0.02,-0.02,-0.99,-0.17,1.26,1.26,1.27
71.48,1.26,0.04,1.26,0.04,-0.04,-1.00,-0.20,1.22,1.22,1.22
72.19,1.21,0.03,1.23,0.05,-0.05,-1.02,-0.24,1.16,1.18,1.18
72.91,1.21,0.07,1.21,0.07,-0.07,-1.04,-0.27,1.14,1.14,1.14
73.64,1.17,0.08,1.19,0.09,-0.09,-1.05,-0.31,1.08,1.10,1.09
74.38,1.17,0.11,1.17,0.11,-0.11,-1.07,-0.34,1.06,1.06,1.06
75.12,1.15,0.14,1.15,0.13,-0.13,-1.09,-0.38,1.02,1.02,1.01
75.87,1.12,0.14,1.12,0.15,-0.15,-1.10,-0.42,0.97,0.98,0.98
76.63,1.12,0.18,1.10,0.17,-0.17,-1.12,-0.46,0.95,0.94,0.94
77.40,1.07,0.17,1.08,0.19,-0.19,-1.14,-0.50,0.88,0.90,0.90
78.17,1.07,0.22,1.06,0.21,-0.21,-1.16,-0.54,0.86,0.86,0.85
78.95,1.07,0.25,1.05,0.23,-0.23,-1.17,-0.58,0.84,0.81,0.82
79.74,1.03,0.25,1.03,0.25,-0.25,-1.19,-0.62,0.78,0.77,0.78
80.54,1.03,0.30,1.01,0.28,-0.28,-1.21,-0.67,0.75,0.73,0.73
81.35,0.98,0.29,1.00,0.31,-0.31,-1.23,-0.71,0.67,0.69,0.69
82.16,0.98,0.34,0.98,0.34,-0.34,-1.25,-0.76,0.64,0.65,0.64
82.98,0.96,0.35,0.97,0.37,-0.37,-1.27,-0.80,0.59,0.60,0.61
83.81,0.93,0.38,0.96,0.40,-0.40,-1.29,-0.85,0.53,0.56,0.55
84.65,0.93,0.42,0.94,0.43,-0.43,-1.31,-0.89,0.50,0.51,0.51
85.50,0.93,0.46,0.93,0.47,-0.47,-1.33,-0.94,0.46,0.46,0.47
86.35,0.93,0.51,0.93,0.51,-0.51,-1.35,-0.99,0.42,0.42,0.42
87.22,0.93,0.56,0.92,0.55,-0.55,-1.37,-1.04,0.38,0.37,0.37
88.09,0.93,0.61,0.91,0.59,-0.59,-1.39,-1.09,0.34,0.32,0.32
88.97,0.93,0.65,0.91,0.64,-0.64,-1.41,-1.14,0.29,0.27,0.28
89.86,0.89,0.67,0.90,0.68,-0.68,-1.43,-1.19,0.21,0.22,0.22
90.76,0.89,0.73,0.90,0.73,-0.73,-1.45,-1.25,0.16,0.17,0.16
91.66,0.89,0.77,0.89,0.78,-0.78,-1.47,-1.30,0.11,0.11,0.12
92.58,0.89,0.83,0.89,0.83,-0.83,-1.49,-1.35,0.06,0.06,0.06
93.51,0.89,0.88,0.89,0.88,-0.88,-1.51,-1.41,0.01,0.01,0.01
94.44,0.89,0.93,0.89,0.94,-0.94,-1.53,-1.46,-0.05,-0.05,-0.04
95.39,0.89,0.99,0.89,0.99,-0.99,-1.55,-1.52,-0.10,-0.10,-0.10
96.34,0.89,1.05,0.89,1.05,-1.05,-1.58,-1.58,-0.16,-0.16,-0.16
97.30,0.89,1.11,0.89,1.11,-1.11,-1.60,-1.64,-0.22,-0.22,-0.22
98.28,0.89,1.17,0.90,1.17,-1.17,-1.62,-1.69,-0.28,-0.27,-0.28
99.26,0.89,1.22,0.90,1.23,-1.23,-1.64,-1.75,-0.34,-0.33,-0.33
100.25,0.89,1.28,0.91,1.30,-1.30,-1.66,-1.81,-0.41,-0.39,-0.39
101.25,0.92,1.37,0.91,1.36,-1.36,-1.69,-1.87,-0.44,-0.45,-0.45
102.27,0.93,1.44,0.91,1.42,-1.42,-1.71,-1.93,-0.49,-0.51,-0.51
103.29,0.93,1.50,0.92,1.48,-1.48,-1.73,-1.99,-0.55,-0.56,-0.57
104.32,0.93,1.55,0.92,1.54,-1.54,-1.76,-2.05,-0.61,-0.62,-0.62
105.37,0.93,1.61,0.93,1.61,-1.61,-1.78,-2.11,-0.68,-0.68,-0.68
106.42,0.93,1.67,0.93,1.67,-1.67,-1.80,-2.17,-0.74,-0.74,-0.74
107.48,0.93,1.72,0.94,1.73,-1.73,-1.83,-2.23,-0.80,-0.80,-0.79
108.56,0.93,1.79,0.94,1.80,-1.80,-1.85,-2.28,-0.87,-0.86,-0.86
109.64,0.93,1.85,0.94,1.86,-1.86,-1.87,-2.34,-0.93,-0.92,-0.92
110.74,0.93,1.91,0.94,1.93,-1.93,-1.90,-2.40,-1.00,-0.98,-0.98
111.85,0.93,1.96,0.94,1.99,-1.99,-1.92,-2.45,-1.06,-1.05,-1.03
112.97,0.96,2.07,0.94,2.05,-2.05,-1.94,-2.50,-1.09,-1.11,-1.11
114.10,0.96,2.13,0.94,2.11,-2.11,-1.97,-2.55,-1.15,-1.17,-1.17
115.24,0.96,2.19,0.94,2.17,-2.17,-1.99,-2.60,-1.21,-1.23,-1.23
116.39,0.93,2.23,0.94,2.23,-2.23,-2.02,-2.65,-1.30,-1.30,-1.30
117.55,0.93,2.30,0.93,2.29,-2.29,-2.04,-2.69,-1.36,-1.36,-1.37
118.73,0.93,2.36,0.93,2.35,-2.35,-2.07,-2.73,-1.42,-1.42,-1.43
119.92,0.93,2.41,0.92,2.41,-2.41,-2.09,-2.77,-1.48,-1.49,-1.48
121.12,0.93,2.48,0.91,2.46,-2.46,-2.11,-2.81,-1.53,-1.55,-1.55
122.33,0.90,2.51,0.90,2.51,-2.51,-2.14,-2.84,-1.61,-1.61,-1.61
123.55,0.89,2.55,0.89,2.56,-2.56,-2.16,-2.87,-1.67,-1.67,-1.66
124.79,0.89,2.62,0.88,2.61,-2.61,-2.19,-2.90,-1.72,-1.73,-1.73
126.03,0.85,2.64,0.87,2.66,-2.66,-2.21,-2.92,-1.81,-1.79,-1.79
127.29,0.84,2.69,0.86,2.71,-2.71,-2.24,-2.94,-1.87,-1.85,-1.85
128.57,0.84,2.76,0.85,2.76,-2.76,-2.26,-2.96,-1.92,-1.91,-1.92
129.85,0.84,2.82,0.84,2.82,-2.82,-2.29,-2.98,-1.98,-1.97,-1.98
131.15,0.84,2.88,0.84,2.87,-2.87,-2.31,-2.99,-2.03,-2.03,-2.04
132.46,0.82,2.91,0.83,2.92,-2.92,-2.34,-3.00,-2.10,-2.09,-2.09
133.79,0.82,2.96,0.83,2.98,-2.98,-2.36,-3.01,-2.16,-2.15,-2.14
135.12,0.82,3.03,0.83,3.03,-3.03,-2.39,-3.01,-2.21,-2.20,-2.21
136.48,0.84,3.09,0.83,3.08,-3.08,-2.41,-3.02,-2.24,-2.25,-2.25
137.84,0.84,3.15,0.83,3.14,-3.14,-2.44,-3.02,-2.30,-2.31,-2.31
139.22,0.84,3.21,0.83,3.19,-3.19,-2.46,-3.02,-2.35,-2.36,-2.37
140.61,0.84,3.26,0.84,3.24,-3.24,-2.49,-3.02,-2.40,-2.41,-2.42
142.02,0.84,3.29,0.84,3.29,-3.29,-2.51,-3.02,-2.45,-2.46,-2.45
143.44,0.84,3.34,0.84,3.34,-3.34,-2.54,-3.02,-2.50,-2.50,-2.50
144.87,0.84,3.39,0.84,3.39,-3.39,-2.56,-3.01,-2.55,-2.55,-2.55
146.32,0.84,3.44,0.84,3.44,-3.44,-2.59,-3.01,-2.60,-2.60,-2.60
147.78,0.84,3.48,0.85,3.49,-3.49,-2.61,-3.01,-2.65,-2.64,-2.64
149.26,0.84,3.52,0.84,3.54,-3.54,-2.63,-3.01,-2.70,-2.69,-2.68
150.75,0.84,3.58,0.84,3.58,-3.58,-2.66,-3.01,-2.74,-2.74,-2.74
152.26,0.84,3.62,0.84,3.62,-3.62,-2.68,-3.01,-2.78,-2.78,-2.78
153.78,0.84,3.67,0.83,3.66,-3.66,-2.71,-3.01,-2.82,-2.83,-2.83
155.32,0.84,3.72,0.83,3.71,-3.71,-2.73,-3.01,-2.87,-2.88,-2.88
156.88,0.84,3.76,0.83,3.75,-3.75,-2.75,-3.02,-2.91,-2.92,-2.92
158.44,0.84,3.81,0.82,3.79,-3.79,-2.78,-3.02,-2.95,-2.97,-2.97
160.03,0.82,3.84,0.82,3.84,-3.84,-2.80,-3.03,-3.02,-3.02,-3.02
161.63,0.79,3.86,0.81,3.88,-3.88,-2.82,-3.04,-3.09,-3.06,-3.07
163.24,0.79,3.91,0.81,3.92,-3.92,-2.85,-3.05,-3.13,-3.11,-3.12
164.88,0.79,3.94,0.80,3.96,-3.96,-2.87,-3.06,-3.17,-3.15,-3.15
166.53,0.79,3.99,0.80,4.00,-4.00,-2.89,-3.08,-3.21,-3.20,-3.20
168.19,0.79,4.03,0.79,4.04,-4.04,-2.92,-3.09,-3.25,-3.24,-3.24
169.87,0.79,4.08,0.78,4.07,-4.07,-2.94,-3.11,-3.28,-3.29,-3.29
171.57,0.79,4.12,0.78,4.11,-4.11,-2.96,-3.14,-3.32,-3.33,-3.33
173.29,0.78,4.15,0.77,4.15,-4.15,-2.98,-3.16,-3.37,-3.38,-3.37
175.02,0.75,4.16,0.76,4.18,-4.18,-3.00,-3.19,-3.43,-3.42,-3.41
176.77,0.75,4.21,0.75,4.22,-4.22,-3.02,-3.22,-3.47,-3.47,-3.46
178.54,0.75,4.26,0.74,4.25,-4.25,-3.04,-3.25,-3.50,-3.51,-3.51
180.32,0.75,4.30,0.73,4.28,-4.28,-3.07,-3.29,-3.53,-3.55,-3.55
182.13,0.70,4.29,0.72,4.31,-4.31,-3.09,-3.32,-3.61,-3.59,-3.59
183.95,0.70,4.34,0.70,4.34,-4.34,-3.11,-3.36,-3.64,-3.63,-3.64
185.79,0.70,4.37,0.69,4.36,-4.36,-3.13,-3.41,-3.66,-3.67,-3.67
187.65,0.65,4.37,0.67,4.38,-4.38,-3.14,-3.45,-3.73,-3.71,-3.72
189.52,0.65,4.40,0.65,4.40,-4.40,-3.16,-3.50,-3.75,-3.75,-3.75
191.42,0.65,4.44,0.64,4.42,-4.42,-3.18,-3.55,-3.77,-3.79,-3.79
193.33,0.61,4.43,0.62,4.44,-4.44,-3.20,-3.60,-3.83,-3.82,-3.82
195.27,0.61,4.46,0.60,4.45,-4.45,-3.22,-3.65,-3.84,-3.86,-3.85
197.22,0.59,4.47,0.58,4.47,-4.47,-3.24,-3.70,-3.88,-3.89,-3.88
199.19,0.56,4.48,0.56,4.48,-4.48,-3.25,-3.76,-3.92,-3.91,-3.92
201.18,0.56,4.51,0.55,4.49,-4.49,-3.27,-3.82,-3.93,-3.94,-3.95
203.19,0.52,4.48,0.53,4.50,-4.50,-3.29,-3.88,-3.98,-3.97,-3.96
205.23,0.51,4.50,0.52,4.51,-4.51,-3.30,-3.94,-4.00,-3.99,-3.99
207.28,0.51,4.51,0.51,4.52,-4.52,-3.32,-4.00,-4.01,-4.01,-4.00
209.35,0.47,4.50,0.50,4.53,-4.53,-3.33,-4.06,-4.06,-4.03,-4.03
211.44,0.47,4.53,0.49,4.53,-4.53,-3.35,-4.12,-4.06,-4.05,-4.06
213.56,0.47,4.53,0.48,4.54,-4.54,-3.36,-4.18,-4.07,-4.06,-4.06
215.69,0.47,4.54,0.47,4.55,-4.55,-3.37,-4.24,-4.08,-4.08,-4.07
217.85,0.47,4.56,0.46,4.55,-4.55,-3.39,-4.29,-4.08,-4.09,-4.09
220.03,0.47,4.57,0.46,4.55,-4.55,-3.40,-4.35,-4.08,-4.10,-4.10
222.23,0.47,4.59,0.45,4.55,-4.55,-3.41,-4.40,-4.08,-4.10,-4.12
224.45,0.44,4.55,0.44,4.55,-4.55,-3.42,-4.46,-4.11,-4.11,-4.11
226.70,0.42,4.53,0.43,4.55,-4.55,-3.43,-4.50,-4.13,-4.11,-4.11
228.96,0.42,4.54,0.42,4.54,-4.54,-3.44,-4.55,-4.12,-4.12,-4.12
231.25,0.42,4.53,0.41,4.53,-4.53,-3.45,-4.59,-4.11,-4.12,-4.11
233.57,0.42,4.53,0.40,4.52,-4.52,-3.46,-4.63,-4.10,-4.12,-4.11
235.90,0.38,4.49,0.39,4.50,-4.50,-3.47,-4.66,-4.12,-4.11,-4.11
238.26,0.37,4.48,0.37,4.48,-4.48,-3.48,-4.68,-4.11,-4.11,-4.11
240.64,0.34,4.44,0.35,4.45,-4.45,-3.49,-4.70,-4.11,-4.10,-4.10
243.05,0.33,4.43,0.33,4.42,-4.42,-3.49,-4.72,-4.09,-4.10,-4.10
245.48,0.30,4.39,0.30,4.39,-4.39,-3.50,-4.73,-4.09,-4.09,-4.09
247.93,0.28,4.36,0.28,4.35,-4.35,-3.50,-4.73,-4.07,-4.08,-4.08
250.41,0.24,4.31,0.25,4.31,-4.31,-3.51,-4.72,-4.07,-4.06,-4.07
252.92,0.23,4.28,0.22,4.27,-4.27,-3.51,-4.71,-4.04,-4.05,-4.05
255.45,0.19,4.22,0.18,4.22,-4.22,-3.51,-4.70,-4.03,-4.04,-4.03
258.00,0.16,4.18,0.15,4.17,-4.17,-3.52,-4.67,-4.01,-4.02,-4.02
260.58,0.12,4.13,0.11,4.12,-4.12,-3.52,-4.64,-4.00,-4.01,-4.01
263.19,0.08,4.07,0.08,4.07,-4.07,-3.52,-4.61,-3.99,-3.99,-3.99
265.82,0.05,4.02,0.04,4.01,-4.01,-3.52,-4.57,-3.96,-3.97,-3.97
268.48,-0.01,3.94,0.01,3.96,-3.96,-3.52,-4.52,-3.97,-3.95,-3.95
271.16,-0.04,3.89,-0.03,3.91,-3.91,-3.52,-4.47,-3.95,-3.94,-3.93
273.87,-0.09,3.83,-0.06,3.86,-3.86,-3.51,-4.42,-3.95,-3.92,-3.92
276.61,-0.10,3.79,-0.09,3.81,-3.81,-3.51,-4.36,-3.91,-3.90,-3.89
279.38,-0.14,3.74,-0.12,3.76,-3.76,-3.51,-4.29,-3.90,-3.88,-3.88
282.17,-0.14,3.72,-0.15,3.71,-3.71,-3.50,-4.23,-3.85,-3.86,-3.86
284.99,-0.19,3.65,-0.18,3.66,-3.66,-3.49,-4.16,-3.85,-3.84,-3.84
287.84,-0.20,3.63,-0.21,3.61,-3.61,-3.49,-4.09,-3.81,-3.82,-3.83
290.72,-0.23,3.57,-0.23,3.57,-3.57,-3.48,-4.01,-3.80,-3.80,-3.80
293.63,-0.26,3.53,-0.26,3.52,-3.52,-3.47,-3.94,-3.78,-3.78,-3.79
296.57,-0.28,3.48,-0.28,3.48,-3.48,-3.46,-3.86,-3.76,-3.76,-3.76
299.53,-0.32,3.43,-0.31,3.43,-3.43,-3.44,-3.79,-3.75,-3.74,-3.75
302.53,-0.33,3.40,-0.34,3.38,-3.38,-3.43,-3.71,-3.71,-3.72,-3.73
305.55,-0.37,3.33,-0.37,3.33,-3.33,-3.42,-3.64,-3.70,-3.70,-3.70
308.61,-0.39,3.29,-0.40,3.28,-3.28,-3.40,-3.56,-3.67,-3.68,-3.68
311.69,-0.42,3.23,-0.43,3.23,-3.23,-3.38,-3.49,-3.65,-3.65,-3.65
314.81,-0.46,3.16,-0.46,3.17,-3.17,-3.36,-3.41,-3.63,-3.63,-3.62
317.96,-0.49,3.11,-0.49,3.12,-3.12,-3.34,-3.34,-3.61,-3.61,-3.60
321.14,-0.52,3.07,-0.53,3.06,-3.06,-3.31,-3.27,-3.58,-3.59,-3.59
324.35,-0.57,3.00,-0.57,3.00,-3.00,-3.29,-3.20,-3.57,-3.57,-3.57
327.59,-0.61,2.93,-0.60,2.94,-2.94,-3.26,-3.13,-3.55,-3.55,-3.54
330.87,-0.65,2.88,-0.64,2.88,-2.88,-3.23,-3.06,-3.53,-3.52,-3.53
334.18,-0.69,2.82,-0.69,2.82,-2.82,-3.20,-2.99,-3.51,-3.50,-3.51
337.52,-0.72,2.77,-0.73,2.75,-2.75,-3.16,-2.93,-3.47,-3.48,-3.49
340.90,-0.78,2.69,-0.78,2.69,-2.69,-3.12,-2.87,-3.47,-3.47,-3.47
344.30,-0.82,2.63,-0.82,2.62,-2.62,-3.08,-2.81,-3.44,-3.45,-3.45
347.75,-0.86,2.57,-0.87,2.56,-2.56,-3.03,-2.75,-3.42,-3.43,-3.43
351.23,-0.91,2.50,-0.92,2.49,-2.49,-2.98,-2.70,-3.40,-3.41,-3.41
354.74,-0.96,2.44,-0.97,2.43,-2.43,-2.93,-2.64,-3.39,-3.40,-3.40
358.28,-1.00,2.38,-1.01,2.36,-2.36,-2.87,-2.59,-3.36,-3.38,-3.38
361.87,-1.06,2.30,-1.06,2.30,-2.30,-2.81,-2.54,-3.36,-3.36,-3.36
365.49,-1.13,2.21,-1.10,2.24,-2.24,-2.74,-2.49,-3.37,-3.35,-3.34
369.14,-1.17,2.16,-1.15,2.18,-2.18,-2.66,-2.45,-3.35,-3.33,-3.33
372.83,-1.21,2.11,-1.19,2.13,-2.13,-2.58,-2.40,-3.34,-3.32,-3.32
376.56,-1.23,2.08,-1.23,2.07,-2.07,-2.49,-2.36,-3.30,-3.30,-3.31
380.33,-1.26,2.02,-1.27,2.02,-2.02,-2.39,-2.32,-3.28,-3.29,-3.28
384.13,-1.31,1.96,-1.30,1.97,-1.97,-2.29,-2.28,-3.28,-3.28,-3.27
387.97,-1.32,1.94,-1.34,1.93,-1.93,-2.18,-2.25,-3.25,-3.26,-3.26
391.85,-1.35,1.91,-1.37,1.88,-1.88,-2.07,-2.21,-3.23,-3.25,-3.26
395.77,-1.40,1.84,-1.40,1.84,-1.84,-1.95,-2.18,-3.24,-3.24,-3.24
399.73,-1.41,1.82,-1.42,1.81,-1.81,-1.84,-2.15,-3.22,-3.23,-3.23
403.72,-1.45,1.77,-1.45,1.77,-1.77,-1.72,-2.12,-3.22,-3.22,-3.22
407.76,-1.48,1.73,-1.47,1.74,-1.74,-1.61,-2.09,-3.22,-3.21,-3.21
411.84,-1.49,1.70,-1.49,1.71,-1.71,-1.51,-2.07,-3.20,-3.20,-3.19
415.96,-1.49,1.69,-1.51,1.68,-1.68,-1.43,-2.04,-3.17,-3.19,-3.18
420.12,-1.54,1.64,-1.52,1.65,-1.65,-1.37,-2.02,-3.19,-3.18,-3.18
424.32,-1.54,1.63,-1.54,1.63,-1.63,-1.33,-2.00,-3.17,-3.17,-3.17
428.56,-1.54,1.62,-1.55,1.61,-1.61,-1.31,-1.98,-3.15,-3.16,-3.16
432.85,-1.56,1.59,-1.56,1.59,-1.59,-1.32,-1.96,-3.15,-3.15,-3.15
437.18,-1.56,1.58,-1.56,1.58,-1.58,-1.35,-1.94,-3.14,-3.14,-3.14
441.55,-1.56,1.56,-1.56,1.56,-1.56,-1.40,-1.92,-3.12,-3.12,-3.12
445.96,-1.56,1.55,-1.56,1.55,-1.55,-1.47,-1.91,-3.11,-3.11,-3.11
450.42,-1.55,1.55,-1.55,1.55,-1.55,-1.54,-1.89,-3.10,-3.10,-3.10
454.93,-1.54,1.54,-1.54,1.54,-1.54,-1.61,-1.88,-3.08,-3.08,-3.08
459.48,-1.54,1.54,-1.53,1.54,-1.54,-1.69,-1.87,-3.08,-3.07,-3.08
464.07,-1.52,1.54,-1.52,1.54,-1.54,-1.77,-1.85,-3.06,-3.06,-3.06
468.71,-1.49,1.55,-1.50,1.55,-1.55,-1.84,-1.84,-3.04,-3.04,-3.04
473.40,-1.49,1.54,-1.47,1.55,-1.55,-1.91,-1.83,-3.04,-3.03,-3.03
478.13,-1.45,1.56,-1.45,1.56,-1.56,-1.97,-1.82,-3.01,-3.01,-3.01
482.91,-1.42,1.58,-1.42,1.58,-1.58,-2.02,-1.81,-3.00,-3.00,-3.00
487.74,-1.39,1.59,-1.39,1.59,-1.59,-2.07,-1.80,-2.98,-2.98,-2.98
492.62,-1.35,1.61,-1.35,1.61,-1.61,-2.11,-1.79,-2.96,-2.97,-2.96
