frequency,raw,error,smoothed,error_smoothed,equalization,parametric_eq,fixed_band_eq,equalized_raw,equalized_smoothed,target
20.00,-18.48,-23.27,-18.50,-23.33,23.33,23.18,9.85,4.84,4.82,4.79
20.20,-18.34,-23.18,-18.35,-23.21,23.21,22.98,10.03,4.87,4.86,4.84
20.40,-18.20,-23.09,-18.20,-23.10,23.10,22.78,10.21,4.90,4.89,4.89
20.61,-18.06,-22.98,-18.06,-22.98,22.98,22.59,10.40,4.92,4.93,4.92
20.81,-17.92,-22.89,-17.91,-22.86,22.86,22.40,10.60,4.94,4.95,4.97
21.02,-17.78,-22.79,-17.76,-22.74,22.74,22.22,10.79,4.96,4.98,5.01
21.23,-17.63,-22.66,-17.61,-22.62,22.62,22.04,11.00,4.99,5.01,5.03
21.44,-17.48,-22.53,-17.47,-22.50,22.50,21.87,11.21,5.02,5.03,5.05
21.66,-17.33,-22.40,-17.32,-22.37,22.37,21.70,11.42,5.04,5.05,5.07
21.87,-17.19,-22.27,-17.18,-22.24,22.24,21.53,11.64,5.05,5.07,5.08
22.09,-17.03,-22.13,-17.03,-22.11,22.11,21.37,11.86,5.08,5.08,5.10
22.31,-16.88,-21.99,-16.89,-21.98,21.98,21.22,12.09,5.10,5.10,5.11
22.54,-16.73,-21.84,-16.74,-21.84,21.84,21.06,12.33,5.11,5.10,5.11
22.76,-16.57,-21.67,-16.60,-21.70,21.70,20.91,12.57,5.13,5.10,5.10
22.99,-16.42,-21.52,-16.46,-21.56,21.56,20.77,12.82,5.14,5.11,5.09
23.22,-16.29,-21.38,-16.31,-21.42,21.42,20.62,13.07,5.13,5.11,5.09
23.45,-16.17,-21.26,-16.17,-21.28,21.28,20.49,13.34,5.11,5.11,5.09
23.69,-16.04,-21.14,-16.03,-21.14,21.14,20.35,13.61,5.10,5.11,5.10
23.92,-15.92,-21.02,-15.89,-21.00,21.00,20.22,13.88,5.08,5.11,5.10
24.16,-15.78,-20.89,-15.75,-20.86,20.86,20.09,14.17,5.08,5.11,5.11
24.40,-15.63,-20.75,-15.61,-20.72,20.72,19.96,14.47,5.09,5.11,5.12
24.65,-15.48,-20.59,-15.47,-20.58,20.58,19.83,14.77,5.10,5.11,5.11
24.89,-15.33,-20.44,-15.34,-20.44,20.44,19.71,15.08,5.12,5.11,5.11
25.14,-15.19,-20.30,-15.20,-20.31,20.31,19.59,15.40,5.12,5.11,5.11
25.39,-15.04,-20.15,-15.06,-20.17,20.17,19.47,15.74,5.13,5.11,5.11
25.65,-14.90,-20.02,-14.92,-20.03,20.03,19.35,16.08,5.13,5.11,5.11
25.91,-14.75,-19.86,-14.77,-19.88,19.88,19.23,16.43,5.13,5.11,5.10
26.16,-14.62,-19.72,-14.63,-19.73,19.73,19.12,16.80,5.12,5.11,5.10
26.43,-14.49,-19.59,-14.48,-19.59,19.59,19.00,17.17,5.09,5.10,5.10
26.69,-14.36,-19.46,-14.33,-19.44,19.44,18.89,17.55,5.08,5.10,5.10
26.96,-14.23,-19.34,-14.19,-19.29,19.29,18.78,17.95,5.06,5.10,5.11
27.23,-14.07,-19.18,-14.05,-19.15,19.15,18.66,18.35,5.07,5.10,5.11
27.50,-13.91,-19.02,-13.91,-19.00,19.00,18.55,18.77,5.09,5.10,5.10
27.77,-13.74,-18.83,-13.77,-18.86,18.86,18.44,19.19,5.12,5.09,5.09
28.05,-13.59,-18.68,-13.63,-18.72,18.72,18.33,19.62,5.13,5.09,5.09
28.33,-13.45,-18.53,-13.48,-18.57,18.57,18.22,20.05,5.12,5.09,5.08
28.62,-13.32,-18.40,-13.34,-18.43,18.43,18.11,20.48,5.10,5.09,5.08
28.90,-13.19,-18.28,-13.19,-18.28,18.28,18.00,20.90,5.09,5.09,5.09
29.19,-13.05,-18.13,-13.05,-18.13,18.13,17.89,21.32,5.08,5.09,5.08
29.48,-12.92,-18.01,-12.90,-17.98,17.98,17.78,21.71,5.06,5.08,5.09
29.78,-12.79,-17.87,-12.76,-17.84,17.84,17.67,22.07,5.05,5.08,5.08
30.08,-12.65,-17.74,-12.62,-17.70,17.70,17.55,22.38,5.04,5.08,5.09
30.38,-12.49,-17.57,-12.48,-17.56,17.56,17.44,22.65,5.06,5.08,5.08
30.68,-12.33,-17.41,-12.34,-17.42,17.42,17.33,22.85,5.08,5.07,5.07
30.99,-12.17,-17.25,-12.21,-17.28,17.28,17.21,22.98,5.11,5.07,5.07
31.30,-12.04,-17.11,-12.07,-17.14,17.14,17.10,23.02,5.10,5.07,5.07
31.61,-11.91,-16.98,-11.93,-17.00,17.00,16.98,22.99,5.09,5.07,5.07
31.93,-11.78,-16.85,-11.80,-16.86,16.86,16.86,22.87,5.08,5.06,5.07
32.24,-11.65,-16.70,-11.66,-16.72,16.72,16.74,22.69,5.07,5.06,5.05
32.57,-11.53,-16.59,-11.53,-16.58,16.58,16.62,22.43,5.05,5.05,5.06
32.89,-11.40,-16.46,-11.39,-16.44,16.44,16.50,22.13,5.04,5.05,5.06
33.22,-11.27,-16.31,-11.25,-16.30,16.30,16.38,21.79,5.03,5.04,5.04
33.55,-11.15,-16.19,-11.12,-16.16,16.16,16.26,21.42,5.01,5.04,5.04
33.89,-11.02,-16.05,-10.99,-16.02,16.02,16.13,21.03,5.00,5.03,5.03
34.23,-10.88,-15.92,-10.85,-15.88,15.88,16.00,20.63,5.00,5.03,5.03
34.57,-10.73,-15.75,-10.72,-15.75,15.75,15.88,20.22,5.01,5.02,5.02
34.92,-10.59,-15.61,-10.59,-15.61,15.61,15.75,19.81,5.02,5.02,5.02
35.27,-10.44,-15.46,-10.46,-15.47,15.47,15.62,19.41,5.03,5.01,5.01
35.62,-10.30,-15.31,-10.33,-15.34,15.34,15.49,19.01,5.04,5.01,5.01
35.97,-10.15,-15.16,-10.21,-15.22,15.22,15.35,18.62,5.07,5.01,5.01
36.33,-10.05,-15.06,-10.09,-15.09,15.09,15.22,18.24,5.04,5.01,5.01
36.70,-9.96,-14.96,-9.97,-14.98,14.98,15.08,17.87,5.02,5.00,5.00
37.06,-9.86,-14.85,-9.86,-14.86,14.86,14.95,17.51,5.00,5.00,4.99
37.43,-9.74,-14.75,-9.74,-14.74,14.74,14.81,17.17,5.00,5.00,5.01
37.81,-9.63,-14.63,-9.63,-14.63,14.63,14.67,16.83,5.00,5.00,5.00
38.19,-9.52,-14.52,-9.52,-14.52,14.52,14.53,16.51,4.99,5.00,5.00
38.57,-9.43,-14.43,-9.41,-14.41,14.41,14.39,16.19,4.97,5.00,5.00
38.95,-9.33,-14.34,-9.30,-14.29,14.29,14.25,15.89,4.96,5.00,5.01
39.34,-9.22,-14.22,-9.18,-14.18,14.18,14.11,15.60,4.96,5.00,5.00
39.74,-9.10,-14.10,-9.07,-14.07,14.07,13.97,15.31,4.97,5.00,4.99
40.14,-8.97,-13.97,-8.96,-13.95,13.95,13.83,15.04,4.98,5.00,5.00
40.54,-8.81,-13.80,-8.84,-13.83,13.83,13.68,14.78,5.02,4.99,4.99
40.94,-8.66,-13.65,-8.72,-13.70,13.70,13.54,14.52,5.04,4.99,4.98
41.35,-8.56,-13.54,-8.59,-13.57,13.57,13.40,14.28,5.01,4.98,4.98
41.76,-8.47,-13.44,-8.47,-13.44,13.44,13.25,14.04,4.97,4.97,4.97
42.18,-8.37,-13.34,-8.35,-13.31,13.31,13.11,13.81,4.94,4.96,4.97
42.60,-8.24,-13.20,-8.22,-13.17,13.17,12.96,13.59,4.93,4.95,4.96
43.03,-8.12,-13.07,-8.10,-13.04,13.04,12.82,13.38,4.92,4.94,4.95
43.46,-7.99,-12.93,-7.98,-12.91,12.91,12.67,13.17,4.92,4.92,4.94
43.90,-7.86,-12.77,-7.87,-12.78,12.78,12.53,12.97,4.92,4.91,4.91
44.33,-7.73,-12.62,-7.75,-12.65,12.65,12.38,12.78,4.92,4.90,4.89
44.78,-7.60,-12.47,-7.64,-12.52,12.52,12.24,12.59,4.92,4.88,4.87
45.23,-7.49,-12.35,-7.52,-12.39,12.39,12.09,12.41,4.90,4.87,4.86
45.68,-7.40,-12.24,-7.41,-12.26,12.26,11.95,12.24,4.85,4.85,4.84
46.13,-7.30,-12.12,-7.28,-12.12,12.12,11.80,12.07,4.82,4.83,4.82
46.60,-7.20,-12.02,-7.16,-11.98,11.98,11.66,11.91,4.78,4.82,4.82
47.06,-7.09,-11.89,-7.05,-11.85,11.85,11.51,11.75,4.76,4.80,4.80
47.53,-6.95,-11.74,-6.93,-11.72,11.72,11.37,11.60,4.76,4.78,4.79
48.01,-6.81,-11.60,-6.81,-11.58,11.58,11.23,11.46,4.77,4.77,4.79
48.49,-6.69,-11.46,-6.70,-11.45,11.45,11.09,11.32,4.76,4.75,4.76
48.97,-6.58,-11.32,-6.58,-11.32,11.32,10.94,11.18,4.74,4.74,4.74
49.46,-6.45,-11.17,-6.47,-11.19,11.19,10.80,11.04,4.74,4.72,4.72
49.96,-6.33,-11.02,-6.36,-11.06,11.06,10.66,10.92,4.73,4.71,4.69
50.46,-6.23,-10.92,-6.25,-10.94,10.94,10.52,10.79,4.70,4.69,4.69
50.96,-6.14,-10.81,-6.13,-10.81,10.81,10.39,10.67,4.67,4.67,4.67
51.47,-6.03,-10.68,-6.03,-10.69,10.69,10.25,10.55,4.65,4.66,4.65
51.99,-5.92,-10.55,-5.92,-10.57,10.57,10.11,10.44,4.64,4.64,4.63
52.51,-5.81,-10.44,-5.82,-10.45,10.45,9.97,10.32,4.64,4.63,4.63
53.03,-5.71,-10.33,-5.73,-10.34,10.34,9.84,10.21,4.63,4.61,4.62
53.56,-5.64,-10.24,-5.63,-10.23,10.23,9.71,10.11,4.58,4.60,4.60
54.10,-5.56,-10.14,-5.54,-10.12,10.12,9.57,10.00,4.56,4.58,4.58
54.64,-5.46,-10.03,-5.45,-10.01,10.01,9.44,9.90,4.55,4.57,4.56
55.18,-5.36,-9.91,-5.35,-9.91,9.91,9.31,9.79,4.55,4.55,4.55
55.74,-5.24,-9.78,-5.26,-9.80,9.80,9.18,9.69,4.56,4.54,4.53
56.29,-5.16,-9.68,-5.17,-9.70,9.70,9.05,9.59,4.53,4.52,4.52
56.86,-5.12,-9.62,-5.09,-9.59,9.59,8.92,9.49,4.47,4.50,4.50
57.42,-5.02,-9.49,-5.01,-9.49,9.49,8.79,9.39,4.47,4.48,4.47
58.00,-4.91,-9.37,-4.93,-9.39,9.39,8.67,9.29,4.48,4.46,4.46
58.58,-4.83,-9.27,-4.86,-9.29,9.29,8.54,9.19,4.46,4.43,4.44
59.16,-4.76,-9.18,-4.78,-9.19,9.19,8.42,9.09,4.43,4.40,4.42
59.76,-4.72,-9.12,-4.71,-9.08,9.08,8.30,8.98,4.36,4.37,4.39
60.35,-4.64,-8.99,-4.64,-8.98,8.98,8.18,8.88,4.34,4.34,4.35
60.96,-4.52,-8.83,-4.59,-8.89,8.89,8.06,8.77,4.36,4.30,4.31
61.57,-4.51,-8.77,-4.53,-8.79,8.79,7.94,8.67,4.27,4.26,4.26
62.18,-4.49,-8.71,-4.47,-8.69,8.69,7.82,8.56,4.19,4.22,4.21
62.80,-4.43,-8.60,-4.41,-8.58,8.58,7.70,8.45,4.15,4.17,4.17
63.43,-4.37,-8.49,-4.35,-8.48,8.48,7.59,8.34,4.10,4.12,4.12
64.07,-4.30,-8.37,-4.29,-8.37,8.37,7.47,8.22,4.06,4.07,4.06
64.71,-4.24,-8.25,-4.23,-8.25,8.25,7.36,8.11,4.01,4.02,4.01
65.35,-4.17,-8.14,-4.16,-8.13,8.13,7.25,7.99,3.96,3.97,3.97
66.01,-4.11,-8.03,-4.09,-8.01,8.01,7.14,7.87,3.90,3.92,3.92
66.67,-4.08,-7.94,-4.02,-7.89,7.89,7.03,7.75,3.80,3.86,3.86
67.33,-4.00,-7.81,-3.96,-7.77,7.77,6.92,7.63,3.77,3.81,3.81
68.01,-3.88,-7.64,-3.89,-7.65,7.65,6.81,7.51,3.76,3.76,3.76
68.69,-3.83,-7.53,-3.82,-7.52,7.52,6.71,7.39,3.69,3.70,3.70
69.37,-3.73,-7.37,-3.76,-7.40,7.40,6.61,7.26,3.67,3.64,3.64
70.07,-3.61,-7.20,-3.70,-7.28,7.28,6.50,7.14,3.67,3.58,3.59
70.77,-3.61,-7.15,-3.64,-7.16,7.16,6.40,7.01,3.55,3.52,3.53
71.48,-3.56,-7.04,-3.59,-7.06,7.06,6.30,6.89,3.49,3.46,3.47
72.19,-3.50,-6.90,-3.55,-6.95,6.95,6.20,6.76,3.45,3.40,3.40
72.91,-3.52,-6.86,-3.52,-6.85,6.85,6.10,6.64,3.33,3.34,3.34
73.64,-3.53,-6.81,-3.49,-6.76,6.76,6.01,6.51,3.23,3.27,3.27
74.38,-3.48,-6.69,-3.46,-6.67,6.67,5.91,6.39,3.19,3.21,3.21
75.12,-3.41,-6.55,-3.45,-6.60,6.60,5.81,6.27,3.19,3.15,3.14
75.87,-3.41,-6.49,-3.44,-6.53,6.53,5.72,6.14,3.12,3.09,3.08
76.63,-3.41,-6.43,-3.43,-6.45,6.45,5.63,6.02,3.04,3.02,3.02
77.40,-3.41,-6.37,-3.42,-6.38,6.38,5.54,5.90,2.97,2.96,2.96
78.17,-3.41,-6.30,-3.40,-6.31,6.31,5.45,5.78,2.89,2.90,2.89
78.95,-3.41,-6.26,-3.38,-6.22,6.22,5.36,5.67,2.81,2.84,2.85
79.74,-3.37,-6.16,-3.35,-6.13,6.13,5.27,5.55,2.76,2.79,2.79
80.54,-3.33,-6.06,-3.31,-6.04,6.04,5.19,5.44,2.71,2.73,2.73
81.35,-3.31,-5.98,-3.27,-5.94,5.94,5.10,5.32,2.63,2.67,2.67
82.16,-3.29,-5.91,-3.22,-5.84,5.84,5.02,5.21,2.54,2.62,2.61
82.98,-3.21,-5.78,-3.17,-5.73,5.73,4.93,5.10,2.52,2.56,2.57
83.81,-3.11,-5.61,-3.11,-5.62,5.62,4.85,5.00,2.51,2.50,2.50
84.65,-3.03,-5.48,-3.05,-5.49,5.49,4.77,4.89,2.46,2.45,2.44
85.50,-2.95,-5.35,-2.98,-5.36,5.36,4.69,4.79,2.41,2.39,2.40
86.35,-2.86,-5.20,-2.90,-5.23,5.23,4.61,4.68,2.37,2.33,2.34
87.22,-2.80,-5.08,-2.83,-5.10,5.10,4.54,4.58,2.30,2.27,2.28
88.09,-2.79,-5.01,-2.76,-4.97,4.97,4.46,4.48,2.18,2.21,2.22
88.97,-2.64,-4.80,-2.69,-4.84,4.84,4.39,4.39,2.20,2.15,2.16
89.86,-2.60,-4.70,-2.62,-4.71,4.71,4.31,4.29,2.11,2.10,2.09
90.76,-2.60,-4.63,-2.55,-4.59,4.59,4.24,4.20,1.99,2.04,2.03
91.66,-2.47,-4.45,-2.49,-4.47,4.47,4.17,4.11,2.00,1.98,1.98
92.58,-2.40,-4.31,-2.44,-4.36,4.36,4.10,4.02,1.95,1.92,1.91
93.51,-2.39,-4.24,-2.39,-4.25,4.25,4.03,3.93,1.85,1.86,1.85
94.44,-2.35,-4.15,-2.34,-4.14,4.14,3.96,3.84,1.78,1.80,1.80
95.39,-2.29,-4.03,-2.29,-4.03,4.03,3.89,3.76,1.74,1.74,1.74
96.34,-2.27,-3.95,-2.25,-3.93,3.93,3.82,3.67,1.66,1.68,1.68
97.30,-2.20,-3.82,-2.21,-3.83,3.83,3.76,3.59,1.63,1.62,1.62
98.28,-2.19,-3.75,-2.17,-3.73,3.73,3.69,3.51,1.54,1.56,1.56
99.26,-2.13,-3.64,-2.14,-3.65,3.65,3.63,3.43,1.52,1.51,1.51
100.25,-2.12,-3.57,-2.11,-3.56,3.56,3.56,3.35,1.44,1.45,1.45
101.25,-2.06,-3.45,-2.09,-3.48,3.48,3.50,3.28,1.42,1.39,1.39
102.27,-2.06,-3.40,-2.07,-3.40,3.40,3.44,3.20,1.34,1.33,1.33
103.29,-2.02,-3.29,-2.05,-3.32,3.32,3.38,3.13,1.30,1.27,1.27
104.32,-2.00,-3.22,-2.03,-3.24,3.24,3.32,3.06,1.24,1.21,1.22
105.37,-2.03,-3.19,-2.02,-3.17,3.17,3.26,2.99,1.14,1.15,1.16
106.42,-2.03,-3.13,-2.01,-3.11,3.11,3.21,2.92,1.07,1.09,1.10
107.48,-2.00,-3.04,-2.01,-3.04,3.04,3.15,2.85,1.04,1.03,1.03
108.56,-2.00,-2.97,-2.00,-2.97,2.97,3.09,2.79,0.97,0.97,0.97
109.64,-2.00,-2.91,-2.00,-2.90,2.90,3.04,2.72,0.90,0.91,0.91
110.74,-1.96,-2.80,-1.99,-2.83,2.83,2.99,2.66,0.87,0.84,0.84
111.85,-1.96,-2.76,-1.97,-2.76,2.76,2.93,2.60,0.79,0.78,0.80
112.97,-1.97,-2.69,-1.96,-2.68,2.68,2.88,2.54,0.71,0.72,0.72
114.10,-1.97,-2.63,-1.94,-2.60,2.60,2.83,2.48,0.63,0.67,0.66
115.24,-1.97,-2.58,-1.92,-2.53,2.53,2.78,2.42,0.56,0.61,0.61
116.39,-1.97,-2.51,-1.90,-2.46,2.46,2.73,2.36,0.48,0.55,0.54
117.55,-1.93,-2.43,-1.88,-2.38,2.38,2.68,2.30,0.45,0.50,0.49
118.73,-1.80,-2.24,-1.86,-2.31,2.31,2.63,2.25,0.50,0.45,0.44
119.92,-1.76,-2.17,-1.83,-2.24,2.24,2.58,2.19,0.47,0.40,0.40
121.12,-1.75,-2.10,-1.80,-2.16,2.16,2.54,2.14,0.41,0.36,0.35
122.33,-1.74,-2.05,-1.77,-2.09,2.09,2.49,2.09,0.34,0.31,0.31
123.55,-1.73,-2.01,-1.74,-2.01,2.01,2.45,2.04,0.28,0.27,0.27
124.79,-1.73,-1.96,-1.71,-1.94,1.94,2.40,1.99,0.21,0.23,0.23
126.03,-1.72,-1.91,-1.68,-1.87,1.87,2.36,1.94,0.14,0.19,0.19
127.29,-1.69,-1.85,-1.64,-1.79,1.79,2.32,1.89,0.10,0.15,0.16
128.57,-1.64,-1.75,-1.62,-1.73,1.73,2.27,1.85,0.08,0.11,0.11
129.85,-1.60,-1.67,-1.59,-1.66,1.66,2.23,1.80,0.06,0.07,0.07
131.15,-1.58,-1.62,-1.57,-1.61,1.61,2.19,1.76,0.03,0.04,0.03
132.46,-1.52,-1.52,-1.56,-1.55,1.55,2.15,1.71,0.03,-0.00,-0.00
133.79,-1.49,-1.45,-1.54,-1.50,1.50,2.11,1.67,0.00,-0.04,-0.04
135.12,-1.48,-1.40,-1.52,-1.44,1.44,2.07,1.63,-0.04,-0.08,-0.09
136.48,-1.48,-1.37,-1.50,-1.39,1.39,2.03,1.59,-0.09,-0.11,-0.11
137.84,-1.48,-1.33,-1.48,-1.34,1.34,2.00,1.55,-0.15,-0.15,-0.16
139.22,-1.47,-1.27,-1.47,-1.29,1.29,1.96,1.51,-0.18,-0.19,-0.20
140.61,-1.47,-1.23,-1.47,-1.24,1.24,1.92,1.47,-0.23,-0.22,-0.24
142.02,-1.47,-1.21,-1.46,-1.19,1.19,1.89,1.43,-0.28,-0.26,-0.26
143.44,-1.47,-1.17,-1.45,-1.14,1.14,1.85,1.39,-0.33,-0.31,-0.30
144.87,-1.47,-1.12,-1.45,-1.09,1.09,1.82,1.35,-0.38,-0.35,-0.35
146.32,-1.47,-1.07,-1.45,-1.04,1.04,1.78,1.32,-0.43,-0.41,-0.40
147.78,-1.47,-1.03,-1.45,-0.99,0.99,1.75,1.28,-0.48,-0.46,-0.44
149.26,-1.47,-0.98,-1.46,-0.93,0.93,1.72,1.24,-0.54,-0.53,-0.49
150.75,-1.44,-0.87,-1.47,-0.88,0.88,1.69,1.21,-0.56,-0.59,-0.57
152.26,-1.46,-0.82,-1.48,-0.82,0.82,1.65,1.17,-0.64,-0.66,-0.64
153.78,-1.47,-0.75,-1.50,-0.76,0.76,1.62,1.14,-0.71,-0.74,-0.72
155.32,-1.46,-0.66,-1.52,-0.71,0.71,1.59,1.10,-0.76,-0.81,-0.80
156.88,-1.45,-0.57,-1.54,-0.65,0.65,1.56,1.07,-0.80,-0.89,-0.88
158.44,-1.54,-0.57,-1.56,-0.59,0.59,1.53,1.04,-0.95,-0.97,-0.97
160.03,-1.60,-0.54,-1.57,-0.53,0.53,1.50,1.00,-1.07,-1.04,-1.06
161.63,-1.67,-0.53,-1.59,-0.48,0.48,1.47,0.97,-1.19,-1.12,-1.14
163.24,-1.68,-0.47,-1.62,-0.43,0.43,1.45,0.94,-1.25,-1.18,-1.21
164.88,-1.68,-0.42,-1.64,-0.39,0.39,1.42,0.90,-1.29,-1.25,-1.26
166.53,-1.68,-0.36,-1.66,-0.36,0.36,1.39,0.87,-1.32,-1.30,-1.32
168.19,-1.69,-0.33,-1.69,-0.34,0.34,1.36,0.84,-1.35,-1.35,-1.36
169.87,-1.69,-0.28,-1.70,-0.32,0.32,1.34,0.80,-1.37,-1.39,-1.41
171.57,-1.70,-0.27,-1.72,-0.30,0.30,1.31,0.77,-1.40,-1.42,-1.43
173.29,-1.70,-0.25,-1.74,-0.29,0.29,1.29,0.74,-1.41,-1.44,-1.45
175.02,-1.69,-0.23,-1.75,-0.29,0.29,1.26,0.71,-1.41,-1.46,-1.46
176.77,-1.74,-0.26,-1.76,-0.28,0.28,1.24,0.68,-1.46,-1.48,-1.48
178.54,-1.80,-0.31,-1.77,-0.28,0.28,1.21,0.64,-1.52,-1.49,-1.49
180.32,-1.81,-0.32,-1.78,-0.28,0.28,1.19,0.61,-1.53,-1.50,-1.49
182.13,-1.81,-0.32,-1.80,-0.29,0.29,1.17,0.58,-1.52,-1.51,-1.49
183.95,-1.80,-0.29,-1.82,-0.29,0.29,1.15,0.55,-1.51,-1.52,-1.51
185.79,-1.80,-0.29,-1.83,-0.30,0.30,1.12,0.52,-1.50,-1.54,-1.51
187.65,-1.86,-0.32,-1.85,-0.30,0.30,1.10,0.48,-1.56,-1.55,-1.54
189.52,-1.86,-0.31,-1.86,-0.29,0.29,1.08,0.45,-1.57,-1.56,-1.55
191.42,-1.86,-0.28,-1.86,-0.28,0.28,1.06,0.42,-1.58,-1.58,-1.58
193.33,-1.91,-0.31,-1.87,-0.27,0.27,1.04,0.39,-1.64,-1.60,-1.60
195.27,-1.92,-0.30,-1.88,-0.26,0.26,1.02,0.36,-1.66,-1.62,-1.62
197.22,-1.90,-0.26,-1.88,-0.24,0.24,1.00,0.33,-1.66,-1.64,-1.64
199.19,-1.89,-0.22,-1.88,-0.22,0.22,0.98,0.30,-1.68,-1.67,-1.68
201.18,-1.88,-0.19,-1.89,-0.20,0.20,0.96,0.27,-1.68,-1.69,-1.70
203.19,-1.88,-0.17,-1.90,-0.19,0.19,0.94,0.24,-1.70,-1.72,-1.72
205.23,-1.88,-0.14,-1.92,-0.18,0.18,0.92,0.21,-1.70,-1.74,-1.74
207.28,-1.88,-0.13,-1.94,-0.17,0.17,0.90,0.18,-1.71,-1.77,-1.75
209.35,-1.90,-0.12,-1.96,-0.17,0.17,0.88,0.15,-1.73,-1.79,-1.78
211.44,-1.96,-0.14,-1.98,-0.17,0.17,0.87,0.12,-1.79,-1.81,-1.82
213.56,-1.98,-0.16,-2.00,-0.17,0.17,0.85,0.09,-1.81,-1.83,-1.82
215.69,-1.99,-0.15,-2.01,-0.17,0.17,0.83,0.06,-1.82,-1.84,-1.84
217.85,-1.99,-0.14,-2.03,-0.17,0.17,0.81,0.03,-1.82,-1.86,-1.86
220.03,-2.06,-0.19,-2.03,-0.16,0.16,0.80,0.01,-1.90,-1.87,-1.87
222.23,-2.10,-0.21,-2.03,-0.15,0.15,0.78,-0.02,-1.95,-1.88,-1.90
224.45,-2.10,-0.21,-2.03,-0.14,0.14,0.76,-0.04,-1.96,-1.88,-1.89
226.70,-2.10,-0.21,-2.01,-0.13,0.13,0.75,-0.07,-1.98,-1.89,-1.89
228.96,-2.03,-0.15,-1.99,-0.10,0.10,0.73,-0.09,-1.93,-1.88,-1.89
231.25,-1.98,-0.10,-1.95,-0.07,0.07,0.72,-0.11,-1.91,-1.88,-1.88
233.57,-1.90,-0.03,-1.91,-0.04,0.04,0.70,-0.13,-1.86,-1.87,-1.87
235.90,-1.82,0.04,-1.86,0.00,-0.00,0.69,-0.15,-1.82,-1.86,-1.86
238.26,-1.77,0.08,-1.80,0.05,-0.05,0.67,-0.17,-1.82,-1.84,-1.85
240.64,-1.69,0.14,-1.73,0.10,-0.10,0.66,-0.18,-1.79,-1.83,-1.83
243.05,-1.64,0.16,-1.66,0.15,-0.15,0.65,-0.20,-1.79,-1.81,-1.81
245.48,-1.61,0.17,-1.59,0.20,-0.20,0.63,-0.21,-1.81,-1.79,-1.79
247.93,-1.54,0.21,-1.51,0.25,-0.25,0.62,-0.22,-1.79,-1.77,-1.76
250.41,-1.48,0.26,-1.45,0.30,-0.30,0.61,-0.24,-1.78,-1.75,-1.74
252.92,-1.40,0.31,-1.39,0.33,-0.33,0.59,-0.24,-1.73,-1.72,-1.71
255.45,-1.37,0.32,-1.35,0.35,-0.35,0.58,-0.25,-1.72,-1.70,-1.69
258.00,-1.27,0.40,-1.31,0.37,-0.37,0.57,-0.26,-1.64,-1.68,-1.67
260.58,-1.21,0.45,-1.28,0.37,-0.37,0.55,-0.26,-1.59,-1.66,-1.66
263.19,-1.20,0.43,-1.26,0.37,-0.37,0.54,-0.27,-1.57,-1.63,-1.63
265.82,-1.21,0.40,-1.25,0.36,-0.36,0.53,-0.27,-1.57,-1.61,-1.61
268.48,-1.21,0.38,-1.25,0.34,-0.34,0.52,-0.27,-1.55,-1.59,-1.59
271.16,-1.21,0.35,-1.25,0.31,-0.31,0.51,-0.27,-1.52,-1.56,-1.56
273.87,-1.22,0.32,-1.26,0.28,-0.28,0.50,-0.27,-1.50,-1.54,-1.55
276.61,-1.32,0.19,-1.27,0.24,-0.24,0.48,-0.27,-1.56,-1.51,-1.51
279.38,-1.35,0.14,-1.29,0.20,-0.20,0.47,-0.26,-1.55,-1.49,-1.49
282.17,-1.33,0.13,-1.32,0.15,-0.15,0.46,-0.26,-1.48,-1.46,-1.46
284.99,-1.31,0.12,-1.34,0.10,-0.10,0.45,-0.25,-1.41,-1.44,-1.43
287.84,-1.38,0.03,-1.35,0.05,-0.05,0.44,-0.25,-1.44,-1.41,-1.42
290.72,-1.44,-0.06,-1.36,0.02,-0.02,0.43,-0.24,-1.46,-1.38,-1.38
293.63,-1.39,-0.03,-1.36,-0.01,0.01,0.42,-0.23,-1.39,-1.35,-1.36
296.57,-1.37,-0.05,-1.36,-0.04,0.04,0.41,-0.23,-1.33,-1.32,-1.32
299.53,-1.35,-0.05,-1.36,-0.07,0.07,0.40,-0.22,-1.29,-1.30,-1.30
302.53,-1.34,-0.06,-1.36,-0.09,0.09,0.39,-0.21,-1.25,-1.27,-1.28
305.55,-1.33,-0.10,-1.35,-0.10,0.10,0.38,-0.20,-1.23,-1.25,-1.24
308.61,-1.32,-0.10,-1.33,-0.11,0.11,0.37,-0.19,-1.22,-1.22,-1.22
311.69,-1.32,-0.13,-1.31,-0.11,0.11,0.36,-0.18,-1.22,-1.20,-1.19
314.81,-1.19,-0.02,-1.28,-0.10,0.10,0.35,-0.18,-1.09,-1.18,-1.17
317.96,-1.15,0.00,-1.24,-0.08,0.08,0.34,-0.17,-1.07,-1.16,-1.15
321.14,-1.24,-0.10,-1.20,-0.06,0.06,0.34,-0.16,-1.19,-1.14,-1.15
324.35,-1.28,-0.15,-1.15,-0.03,0.03,0.33,-0.15,-1.26,-1.13,-1.13
327.59,-1.25,-0.14,-1.11,0.01,-0.01,0.32,-0.14,-1.26,-1.11,-1.11
330.87,-1.13,-0.03,-1.06,0.03,-0.03,0.31,-0.13,-1.17,-1.10,-1.11
334.18,-1.03,0.06,-1.03,0.06,-0.06,0.30,-0.12,-1.09,-1.09,-1.09
337.52,-0.94,0.14,-0.99,0.08,-0.08,0.29,-0.11,-1.03,-1.08,-1.08
340.90,-0.89,0.17,-0.96,0.12,-0.12,0.28,-0.11,-1.01,-1.07,-1.07
344.30,-0.83,0.23,-0.92,0.15,-0.15,0.28,-0.10,-0.98,-1.07,-1.06
347.75,-0.82,0.24,-0.89,0.17,-0.17,0.27,-0.09,-1.00,-1.06,-1.06
351.23,-0.82,0.23,-0.86,0.19,-0.19,0.26,-0.08,-1.01,-1.06,-1.05
354.74,-0.81,0.24,-0.85,0.21,-0.21,0.25,-0.07,-1.02,-1.05,-1.06
358.28,-0.81,0.24,-0.83,0.22,-0.22,0.24,-0.07,-1.03,-1.05,-1.05
361.87,-0.88,0.17,-0.84,0.21,-0.21,0.24,-0.06,-1.09,-1.05,-1.05
365.49,-0.95,0.09,-0.85,0.20,-0.20,0.23,-0.05,-1.15,-1.05,-1.04
369.14,-0.90,0.15,-0.87,0.17,-0.17,0.22,-0.04,-1.08,-1.05,-1.06
372.83,-0.85,0.21,-0.90,0.15,-0.15,0.21,-0.04,-1.00,-1.05,-1.06
376.56,-0.81,0.25,-0.93,0.13,-0.13,0.21,-0.03,-0.94,-1.05,-1.06
380.33,-0.91,0.14,-0.95,0.10,-0.10,0.20,-0.02,-1.02,-1.06,-1.05
384.13,-0.99,0.06,-0.97,0.09,-0.09,0.19,-0.02,-1.08,-1.06,-1.05
387.97,-1.09,-0.03,-0.99,0.08,-0.08,0.19,-0.01,-1.17,-1.07,-1.06
391.85,-1.08,-0.01,-1.01,0.06,-0.06,0.18,-0.00,-1.14,-1.07,-1.08
395.77,-1.06,0.01,-1.03,0.05,-0.05,0.17,0.00,-1.11,-1.08,-1.07
399.73,-1.05,0.03,-1.05,0.03,-0.03,0.17,0.01,-1.09,-1.08,-1.08
403.72,-1.05,0.03,-1.07,0.02,-0.02,0.16,0.01,-1.07,-1.09,-1.08
407.76,-1.06,0.03,-1.09,0.01,-0.01,0.15,0.02,-1.07,-1.09,-1.09
411.84,-1.06,0.03,-1.11,-0.01,0.01,0.15,0.03,-1.05,-1.10,-1.09
415.96,-1.06,0.03,-1.12,-0.02,0.02,0.14,0.03,-1.04,-1.10,-1.10
420.12,-1.06,0.03,-1.12,-0.02,0.02,0.13,0.04,-1.04,-1.10,-1.10
424.32,-1.06,0.04,-1.10,-0.01,0.01,0.13,0.04,-1.05,-1.09,-1.10
428.56,-1.16,-0.07,-1.08,-0.00,0.00,0.12,0.04,-1.16,-1.08,-1.09
432.85,-1.19,-0.11,-1.07,-0.00,0.00,0.11,0.05,-1.19,-1.07,-1.08
437.18,-1.12,-0.05,-1.06,-0.01,0.01,0.11,0.05,-1.11,-1.05,-1.07
441.55,-1.07,-0.04,-1.04,-0.02,0.02,0.10,0.06,-1.05,-1.02,-1.03
