frequency,raw,error,smoothed,error_smoothed,equalization,parametric_eq,fixed_band_eq,equalized_raw,equalized_smoothed,target
20.00,0.41,-10.19,0.44,-10.17,10.17,9.75,3.77,10.58,10.61,10.60
20.20,0.48,-10.11,0.50,-10.09,10.09,9.73,3.87,10.57,10.59,10.59
20.40,0.56,-10.02,0.56,-10.02,10.02,9.70,3.97,10.58,10.58,10.58
20.61,0.63,-9.95,0.63,-9.95,9.95,9.68,4.08,10.57,10.58,10.58
20.81,0.70,-9.86,0.69,-9.88,9.88,9.66,4.19,10.57,10.57,10.56
21.02,0.78,-9.78,0.75,-9.80,9.80,9.63,4.30,10.58,10.56,10.56
21.23,0.84,-9.71,0.82,-9.73,9.73,9.60,4.42,10.57,10.55,10.55
21.44,0.91,-9.65,0.88,-9.66,9.66,9.57,4.54,10.57,10.54,10.56
21.66,0.98,-9.57,0.94,-9.59,9.59,9.54,4.66,10.57,10.54,10.55
21.87,1.04,-9.50,1.01,-9.52,9.52,9.50,4.79,10.56,10.53,10.53
22.09,1.10,-9.42,1.07,-9.45,9.45,9.47,4.92,10.55,10.52,10.52
22.31,1.14,-9.38,1.14,-9.38,9.38,9.43,5.05,10.52,10.52,10.52
22.54,1.19,-9.32,1.20,-9.32,9.32,9.40,5.18,10.50,10.51,10.51
22.76,1.23,-9.28,1.26,-9.25,9.25,9.36,5.32,10.48,10.51,10.51
22.99,1.28,-9.22,1.32,-9.18,9.18,9.32,5.47,10.46,10.50,10.50
23.22,1.35,-9.14,1.38,-9.12,9.12,9.28,5.61,10.47,10.50,10.49
23.45,1.43,-9.07,1.45,-9.05,9.05,9.23,5.76,10.48,10.50,10.50
23.69,1.51,-8.98,1.52,-8.98,8.98,9.19,5.92,10.48,10.49,10.49
23.92,1.59,-8.89,1.58,-8.91,8.91,9.14,6.07,10.50,10.49,10.48
24.16,1.66,-8.83,1.65,-8.84,8.84,9.10,6.23,10.50,10.49,10.49
24.40,1.73,-8.77,1.72,-8.77,8.77,9.05,6.39,10.50,10.49,10.50
24.65,1.80,-8.70,1.79,-8.71,8.71,9.00,6.56,10.51,10.49,10.50
24.89,1.87,-8.63,1.85,-8.65,8.65,8.95,6.72,10.52,10.49,10.50
25.14,1.93,-8.57,1.91,-8.59,8.59,8.90,6.89,10.52,10.50,10.50
25.39,1.99,-8.50,1.97,-8.53,8.53,8.85,7.06,10.52,10.50,10.49
25.65,2.05,-8.44,2.02,-8.48,8.48,8.80,7.23,10.52,10.50,10.49
25.91,2.11,-8.39,2.08,-8.42,8.42,8.74,7.41,10.53,10.50,10.50
26.16,2.15,-8.36,2.13,-8.37,8.37,8.69,7.58,10.52,10.50,10.51
26.43,2.17,-8.34,2.18,-8.32,8.32,8.63,7.75,10.49,10.50,10.51
26.69,2.20,-8.31,2.23,-8.27,8.27,8.58,7.92,10.47,10.50,10.50
26.96,2.23,-8.27,2.29,-8.21,8.21,8.52,8.09,10.44,10.50,10.50
27.23,2.30,-8.20,2.34,-8.16,8.16,8.46,8.26,10.46,10.50,10.50
27.50,2.38,-8.12,2.40,-8.10,8.10,8.40,8.42,10.48,10.50,10.50
27.77,2.46,-8.05,2.45,-8.05,8.05,8.34,8.58,10.51,10.50,10.50
28.05,2.53,-7.97,2.51,-7.99,7.99,8.28,8.73,10.52,10.50,10.50
28.33,2.58,-7.91,2.57,-7.93,7.93,8.22,8.87,10.51,10.50,10.49
28.62,2.64,-7.85,2.63,-7.87,7.87,8.16,9.01,10.51,10.50,10.49
28.90,2.69,-7.80,2.68,-7.81,7.81,8.10,9.13,10.50,10.49,10.49
29.19,2.75,-7.74,2.74,-7.75,7.75,8.03,9.25,10.50,10.49,10.49
29.48,2.80,-7.69,2.80,-7.69,7.69,7.97,9.35,10.49,10.49,10.49
29.78,2.86,-7.63,2.85,-7.64,7.64,7.91,9.44,10.49,10.48,10.48
30.08,2.91,-7.58,2.89,-7.58,7.58,7.84,9.51,10.49,10.48,10.49
30.38,2.95,-7.53,2.93,-7.54,7.54,7.78,9.57,10.48,10.47,10.48
30.68,2.99,-7.47,2.97,-7.49,7.49,7.71,9.61,10.48,10.46,10.46
30.99,3.03,-7.43,3.02,-7.44,7.44,7.64,9.63,10.47,10.46,10.46
31.30,3.06,-7.39,3.06,-7.39,7.39,7.58,9.64,10.45,10.45,10.44
31.61,3.09,-7.35,3.10,-7.34,7.34,7.51,9.62,10.43,10.44,10.44
31.93,3.11,-7.32,3.15,-7.29,7.29,7.44,9.59,10.39,10.43,10.43
32.24,3.16,-7.26,3.19,-7.23,7.23,7.37,9.55,10.39,10.42,10.42
32.57,3.21,-7.20,3.23,-7.18,7.18,7.31,9.49,10.39,10.42,10.41
32.89,3.26,-7.14,3.28,-7.13,7.13,7.24,9.41,10.39,10.41,10.40
33.22,3.32,-7.08,3.32,-7.08,7.08,7.17,9.32,10.40,10.40,10.40
33.55,3.39,-7.00,3.37,-7.03,7.03,7.10,9.22,10.42,10.40,10.39
33.89,3.45,-6.95,3.41,-6.98,6.98,7.03,9.10,10.42,10.39,10.40
34.23,3.49,-6.89,3.46,-6.92,6.92,6.96,8.97,10.41,10.39,10.38
34.57,3.53,-6.85,3.51,-6.86,6.86,6.89,8.84,10.39,10.38,10.37
34.92,3.56,-6.81,3.56,-6.81,6.81,6.82,8.70,10.37,10.37,10.37
35.27,3.60,-6.77,3.61,-6.75,6.75,6.75,8.55,10.35,10.36,10.37
35.62,3.64,-6.72,3.65,-6.70,6.70,6.67,8.40,10.34,10.35,10.36
35.97,3.68,-6.67,3.70,-6.64,6.64,6.60,8.24,10.32,10.34,10.35
36.33,3.74,-6.59,3.74,-6.58,6.58,6.53,8.08,10.32,10.32,10.33
36.70,3.81,-6.51,3.79,-6.52,6.52,6.46,7.91,10.33,10.31,10.31
37.06,3.86,-6.44,3.83,-6.45,6.45,6.39,7.75,10.31,10.29,10.30
37.43,3.89,-6.38,3.88,-6.39,6.39,6.32,7.58,10.28,10.27,10.27
37.81,3.91,-6.34,3.92,-6.32,6.32,6.24,7.42,10.23,10.24,10.25
38.19,3.94,-6.28,3.97,-6.25,6.25,6.17,7.26,10.19,10.22,10.22
38.57,3.99,-6.20,4.01,-6.18,6.18,6.10,7.09,10.17,10.19,10.19
38.95,4.04,-6.12,4.06,-6.11,6.11,6.03,6.93,10.14,10.16,10.16
39.34,4.11,-6.01,4.10,-6.03,6.03,5.95,6.78,10.14,10.13,10.12
39.74,4.18,-5.92,4.14,-5.96,5.96,5.88,6.62,10.14,10.10,10.10
40.14,4.22,-5.85,4.18,-5.90,5.90,5.81,6.47,10.11,10.07,10.07
40.54,4.23,-5.81,4.21,-5.83,5.83,5.73,6.32,10.06,10.04,10.04
40.94,4.24,-5.77,4.25,-5.76,5.76,5.66,6.17,10.00,10.01,10.01
41.35,4.28,-5.71,4.29,-5.69,5.69,5.59,6.03,9.97,9.99,9.99
41.76,4.33,-5.62,4.33,-5.63,5.63,5.51,5.89,9.95,9.96,9.95
42.18,4.37,-5.55,4.37,-5.56,5.56,5.44,5.75,9.93,9.93,9.92
42.60,4.40,-5.50,4.40,-5.50,5.50,5.37,5.62,9.89,9.90,9.90
43.03,4.43,-5.44,4.43,-5.44,5.44,5.29,5.49,9.86,9.87,9.87
43.46,4.45,-5.38,4.46,-5.37,5.37,5.22,5.36,9.82,9.84,9.83
43.90,4.47,-5.34,4.50,-5.31,5.31,5.15,5.24,9.78,9.81,9.81
44.33,4.53,-5.24,4.53,-5.24,5.24,5.07,5.12,9.77,9.77,9.77
44.78,4.60,-5.14,4.57,-5.18,5.18,5.00,5.01,9.77,9.74,9.74
45.23,4.63,-5.09,4.60,-5.11,5.11,4.93,4.90,9.74,9.71,9.72
45.68,4.63,-5.05,4.63,-5.04,5.04,4.85,4.79,9.67,9.67,9.67
46.13,4.64,-4.99,4.66,-4.97,4.97,4.78,4.69,9.61,9.63,9.63
46.60,4.68,-4.91,4.69,-4.89,4.89,4.71,4.59,9.57,9.59,9.59
47.06,4.73,-4.82,4.73,-4.82,4.82,4.63,4.49,9.55,9.54,9.55
47.53,4.77,-4.74,4.76,-4.74,4.74,4.56,4.40,9.51,9.50,9.51
48.01,4.82,-4.63,4.79,-4.66,4.66,4.49,4.31,9.48,9.45,9.45
48.49,4.82,-4.58,4.82,-4.59,4.59,4.41,4.22,9.41,9.40,9.40
48.97,4.82,-4.53,4.84,-4.51,4.51,4.34,4.13,9.33,9.35,9.35
49.46,4.85,-4.46,4.87,-4.43,4.43,4.27,4.05,9.28,9.30,9.31
49.96,4.89,-4.35,4.90,-4.35,4.35,4.19,3.97,9.24,9.25,9.24
50.46,4.95,-4.24,4.94,-4.26,4.26,4.12,3.90,9.21,9.20,9.19
50.96,5.01,-4.14,4.97,-4.18,4.18,4.05,3.82,9.19,9.15,9.15
51.47,5.01,-4.09,5.00,-4.10,4.10,3.97,3.75,9.11,9.10,9.10
51.99,5.01,-4.04,5.02,-4.02,4.02,3.90,3.68,9.03,9.05,9.05
52.51,5.03,-3.97,5.05,-3.95,3.95,3.83,3.61,8.97,8.99,9.00
53.03,5.05,-3.91,5.08,-3.87,3.87,3.75,3.54,8.91,8.94,8.96
53.56,5.13,-3.77,5.11,-3.78,3.78,3.68,3.48,8.91,8.89,8.90
54.10,5.20,-3.65,5.14,-3.70,3.70,3.61,3.41,8.90,8.84,8.84
54.64,5.20,-3.59,5.17,-3.62,3.62,3.53,3.35,8.82,8.79,8.79
55.18,5.20,-3.53,5.20,-3.55,3.55,3.46,3.29,8.74,8.74,8.73
55.74,5.20,-3.48,5.22,-3.48,3.48,3.39,3.22,8.67,8.70,8.68
56.29,5.20,-3.44,5.25,-3.40,3.40,3.31,3.16,8.60,8.65,8.63
56.86,5.21,-3.38,5.27,-3.33,3.33,3.24,3.10,8.54,8.60,8.59
57.42,5.29,-3.24,5.29,-3.25,3.25,3.17,3.04,8.54,8.54,8.52
58.00,5.39,-3.10,5.32,-3.17,3.17,3.09,2.98,8.56,8.49,8.49
58.58,5.39,-3.06,5.34,-3.09,3.09,3.02,2.92,8.48,8.44,8.45
59.16,5.39,-3.01,5.37,-3.01,3.01,2.95,2.86,8.40,8.38,8.40
59.76,5.39,-2.96,5.39,-2.93,2.93,2.88,2.79,8.32,8.32,8.35
60.35,5.39,-2.89,5.41,-2.85,2.85,2.80,2.73,8.24,8.26,8.28
60.96,5.39,-2.83,5.44,-2.76,2.76,2.73,2.66,8.15,8.20,8.22
61.57,5.45,-2.70,5.46,-2.68,2.68,2.66,2.60,8.13,8.14,8.15
62.18,5.49,-2.58,5.48,-2.60,2.60,2.58,2.53,8.08,8.08,8.07
62.80,5.49,-2.51,5.50,-2.51,2.51,2.51,2.46,8.00,8.01,7.99
63.43,5.53,-2.40,5.51,-2.43,2.43,2.44,2.40,7.96,7.95,7.93
64.07,5.58,-2.29,5.53,-2.35,2.35,2.37,2.32,7.93,7.88,7.87
64.71,5.58,-2.22,5.54,-2.27,2.27,2.29,2.25,7.85,7.81,7.80
65.35,5.58,-2.16,5.56,-2.18,2.18,2.22,2.18,7.76,7.74,7.74
66.01,5.58,-2.09,5.58,-2.09,2.09,2.15,2.10,7.67,7.67,7.67
66.67,5.58,-2.04,5.60,-2.00,2.00,2.07,2.03,7.57,7.60,7.61
67.33,5.58,-1.95,5.62,-1.91,1.91,2.00,1.95,7.48,7.53,7.53
68.01,5.58,-1.89,5.64,-1.82,1.82,1.93,1.87,7.40,7.46,7.46
68.69,5.65,-1.74,5.66,-1.73,1.73,1.86,1.79,7.38,7.39,7.39
69.37,5.68,-1.65,5.68,-1.64,1.64,1.78,1.71,7.32,7.32,7.33
70.07,5.68,-1.57,5.69,-1.55,1.55,1.71,1.63,7.23,7.25,7.25
70.77,5.73,-1.45,5.71,-1.46,1.46,1.64,1.55,7.19,7.17,7.18
71.48,5.76,-1.35,5.72,-1.38,1.38,1.56,1.46,7.13,7.10,7.10
72.19,5.78,-1.24,5.73,-1.29,1.29,1.49,1.38,7.07,7.02,7.02
72.91,5.78,-1.17,5.75,-1.20,1.20,1.42,1.29,6.98,6.95,6.95
73.64,5.78,-1.09,5.76,-1.12,1.12,1.34,1.21,6.89,6.88,6.87
74.38,5.78,-1.02,5.78,-1.03,1.03,1.27,1.12,6.81,6.81,6.80
75.12,5.78,-0.94,5.79,-0.95,0.95,1.20,1.03,6.73,6.74,6.72
75.87,5.78,-0.88,5.80,-0.87,0.87,1.12,0.95,6.65,6.67,6.66
76.63,5.78,-0.81,5.80,-0.80,0.80,1.05,0.86,6.58,6.60,6.59
77.40,5.78,-0.75,5.81,-0.72,0.72,0.98,0.77,6.50,6.53,6.53
78.17,5.78,-0.68,5.81,-0.65,0.65,0.90,0.68,6.43,6.46,6.45
78.95,5.78,-0.62,5.82,-0.58,0.58,0.83,0.59,6.36,6.40,6.40
79.74,5.85,-0.48,5.82,-0.51,0.51,0.75,0.50,6.36,6.33,6.33
80.54,5.87,-0.40,5.83,-0.44,0.44,0.68,0.41,6.30,6.26,6.27
81.35,5.87,-0.33,5.84,-0.36,0.36,0.61,0.32,6.23,6.20,6.20
82.16,5.87,-0.27,5.85,-0.28,0.28,0.53,0.23,6.15,6.13,6.14
82.98,5.87,-0.20,5.86,-0.20,0.20,0.46,0.14,6.07,6.06,6.07
83.81,5.87,-0.13,5.87,-0.12,0.12,0.38,0.05,5.99,5.99,5.99
84.65,5.87,-0.05,5.89,-0.04,0.04,0.31,-0.04,5.90,5.92,5.92
85.50,5.87,0.03,5.90,0.05,-0.05,0.23,-0.13,5.82,5.85,5.84
86.35,5.87,0.10,5.91,0.13,-0.13,0.16,-0.22,5.74,5.78,5.77
87.22,5.89,0.18,5.92,0.21,-0.21,0.08,-0.31,5.67,5.71,5.71
88.09,5.94,0.31,5.93,0.30,-0.30,0.01,-0.41,5.64,5.63,5.63
88.97,5.97,0.41,5.94,0.38,-0.38,-0.07,-0.50,5.59,5.56,5.56
89.86,5.97,0.49,5.95,0.47,-0.47,-0.15,-0.59,5.50,5.48,5.47
90.76,5.97,0.56,5.96,0.56,-0.56,-0.22,-0.69,5.41,5.40,5.40
91.66,5.97,0.65,5.97,0.65,-0.65,-0.30,-0.78,5.32,5.32,5.31
92.58,5.98,0.73,5.97,0.73,-0.73,-0.37,-0.88,5.24,5.24,5.24
93.51,5.98,0.82,5.98,0.82,-0.82,-0.45,-0.97,5.16,5.15,5.16
94.44,5.98,0.90,5.98,0.91,-0.91,-0.53,-1.07,5.07,5.07,5.08
95.39,5.97,0.98,5.98,1.00,-1.00,-0.60,-1.17,4.97,4.98,4.99
96.34,5.97,1.07,5.97,1.08,-1.08,-0.68,-1.26,4.89,4.89,4.90
97.30,5.97,1.17,5.96,1.16,-1.16,-0.76,-1.36,4.81,4.80,4.80
98.28,5.96,1.25,5.95,1.24,-1.24,-0.84,-1.46,4.72,4.71,4.71
99.26,5.94,1.34,5.94,1.32,-1.32,-0.91,-1.56,4.62,4.61,4.60
100.25,5.92,1.41,5.92,1.40,-1.40,-0.99,-1.65,4.52,4.52,4.51
101.25,5.90,1.47,5.91,1.48,-1.48,-1.07,-1.75,4.42,4.43,4.42
102.27,5.89,1.56,5.89,1.56,-1.56,-1.15,-1.85,4.33,4.33,4.33
103.29,5.88,1.65,5.87,1.63,-1.63,-1.23,-1.94,4.24,4.24,4.23
104.32,5.86,1.71,5.85,1.71,-1.71,-1.31,-2.04,4.15,4.14,4.15
105.37,5.84,1.79,5.83,1.79,-1.79,-1.39,-2.14,4.05,4.05,4.05
106.42,5.81,1.85,5.81,1.86,-1.86,-1.47,-2.23,3.95,3.96,3.96
107.48,5.79,1.94,5.79,1.93,-1.93,-1.54,-2.32,3.86,3.86,3.85
108.56,5.76,1.98,5.77,2.00,-2.00,-1.62,-2.42,3.76,3.77,3.78
109.64,5.74,2.06,5.75,2.07,-2.07,-1.70,-2.51,3.67,3.68,3.68
110.74,5.72,2.13,5.72,2.14,-2.14,-1.78,-2.59,3.58,3.59,3.59
111.85,5.71,2.21,5.70,2.20,-2.20,-1.86,-2.68,3.50,3.50,3.50
112.97,5.70,2.28,5.69,2.27,-2.27,-1.95,-2.76,3.42,3.41,3.42
114.10,5.69,2.36,5.67,2.34,-2.34,-2.03,-2.85,3.35,3.33,3.33
115.24,5.68,2.44,5.65,2.41,-2.41,-2.11,-2.92,3.27,3.24,3.24
116.39,5.63,2.48,5.64,2.48,-2.48,-2.19,-3.00,3.14,3.16,3.15
117.55,5.60,2.53,5.63,2.56,-2.56,-2.27,-3.07,3.04,3.08,3.07
118.73,5.60,2.62,5.63,2.63,-2.63,-2.35,-3.14,2.97,3.00,2.98
119.92,5.61,2.70,5.63,2.70,-2.70,-2.43,-3.20,2.90,2.92,2.91
121.12,5.62,2.77,5.62,2.78,-2.78,-2.51,-3.26,2.84,2.84,2.85
122.33,5.63,2.86,5.62,2.86,-2.86,-2.59,-3.32,2.77,2.77,2.77
123.55,5.63,2.93,5.63,2.94,-2.94,-2.68,-3.37,2.69,2.69,2.70
124.79,5.64,3.01,5.63,3.02,-3.02,-2.76,-3.42,2.62,2.62,2.63
126.03,5.65,3.10,5.64,3.10,-3.10,-2.84,-3.46,2.55,2.54,2.55
127.29,5.65,3.17,5.65,3.18,-3.18,-2.92,-3.50,2.47,2.47,2.48
128.57,5.66,3.26,5.66,3.26,-3.26,-3.00,-3.53,2.40,2.40,2.40
129.85,5.67,3.34,5.67,3.35,-3.35,-3.08,-3.56,2.32,2.33,2.32
131.15,5.67,3.42,5.68,3.42,-3.42,-3.17,-3.59,2.24,2.25,2.25
132.46,5.68,3.50,5.68,3.49,-3.49,-3.25,-3.61,2.18,2.18,2.18
133.79,5.68,3.57,5.67,3.56,-3.56,-3.33,-3.63,2.12,2.11,2.10
135.12,5.68,3.65,5.66,3.63,-3.63,-3.41,-3.65,2.05,2.04,2.03
136.48,5.69,3.72,5.65,3.69,-3.69,-3.49,-3.67,2.00,1.97,1.97
137.84,5.69,3.78,5.64,3.74,-3.74,-3.57,-3.68,1.95,1.89,1.90
139.22,5.65,3.83,5.62,3.80,-3.80,-3.65,-3.69,1.85,1.82,1.82
140.61,5.61,3.85,5.60,3.85,-3.85,-3.73,-3.70,1.76,1.75,1.76
142.02,5.60,3.91,5.59,3.90,-3.90,-3.81,-3.71,1.70,1.69,1.68
143.44,5.55,3.94,5.58,3.96,-3.96,-3.89,-3.71,1.59,1.62,1.61
144.87,5.50,3.95,5.57,4.02,-4.02,-3.97,-3.72,1.48,1.55,1.55
146.32,5.50,4.01,5.55,4.07,-4.07,-4.05,-3.72,1.43,1.48,1.49
147.78,5.50,4.08,5.53,4.12,-4.12,-4.12,-3.73,1.38,1.41,1.42
149.26,5.50,4.15,5.52,4.17,-4.17,-4.20,-3.74,1.33,1.35,1.35
150.75,5.50,4.23,5.50,4.22,-4.22,-4.28,-3.74,1.28,1.28,1.27
152.26,5.50,4.29,5.48,4.27,-4.27,-4.35,-3.75,1.23,1.21,1.21
153.78,5.50,4.35,5.46,4.32,-4.32,-4.43,-3.76,1.18,1.14,1.15
155.32,5.51,4.43,5.45,4.37,-4.37,-4.50,-3.77,1.14,1.07,1.08
156.88,5.51,4.50,5.43,4.43,-4.43,-4.57,-3.79,1.08,1.00,1.01
158.44,5.47,4.53,5.42,4.48,-4.48,-4.64,-3.80,0.98,0.93,0.94
160.03,5.36,4.49,5.41,4.54,-4.54,-4.72,-3.82,0.82,0.87,0.87
161.63,5.32,4.52,5.39,4.60,-4.60,-4.78,-3.84,0.72,0.79,0.80
163.24,5.31,4.59,5.37,4.64,-4.64,-4.85,-3.86,0.67,0.72,0.72
164.88,5.31,4.65,5.34,4.69,-4.69,-4.92,-3.89,0.62,0.65,0.65
166.53,5.30,4.72,5.31,4.73,-4.73,-4.98,-3.91,0.57,0.58,0.58
168.19,5.30,4.78,5.28,4.77,-4.77,-5.05,-3.94,0.53,0.51,0.52
169.87,5.29,4.84,5.25,4.81,-4.81,-5.11,-3.98,0.48,0.44,0.44
171.57,5.28,4.91,5.23,4.85,-4.85,-5.17,-4.01,0.42,0.37,0.37
173.29,5.27,4.97,5.20,4.90,-4.90,-5.23,-4.05,0.37,0.31,0.30
175.02,5.20,4.95,5.18,4.94,-4.94,-5.29,-4.10,0.26,0.24,0.24
176.77,5.16,4.98,5.17,4.99,-4.99,-5.34,-4.14,0.17,0.18,0.18
178.54,5.09,4.98,5.15,5.04,-5.04,-5.39,-4.19,0.05,0.12,0.11
180.32,5.08,5.03,5.14,5.08,-5.08,-5.44,-4.25,-0.00,0.06,0.05
182.13,5.08,5.09,5.12,5.12,-5.12,-5.49,-4.30,-0.05,-0.00,-0.01
183.95,5.09,5.15,5.10,5.16,-5.16,-5.54,-4.36,-0.08,-0.06,-0.06
185.79,5.11,5.23,5.08,5.20,-5.20,-5.58,-4.42,-0.09,-0.12,-0.12
187.65,5.09,5.26,5.07,5.24,-5.24,-5.63,-4.49,-0.16,-0.17,-0.17
189.52,5.04,5.27,5.06,5.29,-5.29,-5.67,-4.56,-0.25,-0.23,-0.23
191.42,5.04,5.31,5.05,5.33,-5.33,-5.70,-4.63,-0.29,-0.28,-0.27
193.33,5.08,5.40,5.04,5.37,-5.37,-5.74,-4.70,-0.29,-0.33,-0.33
195.27,5.06,5.44,5.03,5.41,-5.41,-5.77,-4.78,-0.35,-0.38,-0.38
197.22,5.02,5.45,5.01,5.44,-5.44,-5.80,-4.86,-0.42,-0.43,-0.44
199.19,5.01,5.49,4.99,5.47,-5.47,-5.83,-4.94,-0.46,-0.48,-0.48
201.18,4.96,5.49,4.96,5.49,-5.49,-5.85,-5.03,-0.53,-0.52,-0.53
203.19,4.92,5.49,4.94,5.51,-5.51,-5.87,-5.11,-0.60,-0.57,-0.57
205.23,4.94,5.55,4.92,5.54,-5.54,-5.89,-5.20,-0.60,-0.62,-0.61
207.28,4.95,5.60,4.89,5.56,-5.56,-5.91,-5.28,-0.61,-0.67,-0.65
209.35,4.87,5.57,4.86,5.57,-5.57,-5.92,-5.37,-0.70,-0.71,-0.70
211.44,4.81,5.56,4.83,5.58,-5.58,-5.93,-5.46,-0.77,-0.75,-0.75
213.56,4.73,5.52,4.80,5.59,-5.59,-5.94,-5.55,-0.86,-0.80,-0.79
215.69,4.71,5.54,4.77,5.60,-5.60,-5.94,-5.63,-0.90,-0.84,-0.83
217.85,4.72,5.59,4.74,5.61,-5.61,-5.94,-5.72,-0.89,-0.88,-0.87
220.03,4.73,5.65,4.70,5.62,-5.62,-5.94,-5.80,-0.89,-0.91,-0.92
222.23,4.74,5.70,4.67,5.62,-5.62,-5.94,-5.88,-0.88,-0.95,-0.96
224.45,4.71,5.70,4.63,5.61,-5.61,-5.94,-5.96,-0.91,-0.98,-0.99
226.70,4.59,5.61,4.60,5.62,-5.62,-5.93,-6.03,-1.03,-1.02,-1.02
228.96,4.51,5.55,4.58,5.62,-5.62,-5.92,-6.10,-1.11,-1.04,-1.05
231.25,4.53,5.59,4.55,5.62,-5.62,-5.90,-6.16,-1.09,-1.07,-1.07
233.57,4.55,5.64,4.53,5.62,-5.62,-5.89,-6.21,-1.07,-1.09,-1.10
235.90,4.58,5.69,4.51,5.62,-5.62,-5.87,-6.26,-1.04,-1.11,-1.12
238.26,4.44,5.57,4.50,5.63,-5.63,-5.85,-6.30,-1.19,-1.13,-1.13
240.64,4.38,5.51,4.48,5.62,-5.62,-5.83,-6.34,-1.24,-1.14,-1.13
243.05,4.41,5.56,4.45,5.61,-5.61,-5.81,-6.36,-1.20,-1.15,-1.15
245.48,4.43,5.60,4.43,5.59,-5.59,-5.78,-6.38,-1.17,-1.16,-1.17
247.93,4.48,5.66,4.41,5.58,-5.58,-5.75,-6.39,-1.10,-1.18,-1.18
250.41,4.48,5.66,4.38,5.57,-5.57,-5.72,-6.38,-1.09,-1.19,-1.18
252.92,4.37,5.55,4.36,5.56,-5.56,-5.69,-6.37,-1.19,-1.20,-1.18
255.45,4.31,5.52,4.34,5.54,-5.54,-5.66,-6.35,-1.24,-1.21,-1.21
258.00,4.33,5.54,4.31,5.53,-5.53,-5.62,-6.32,-1.20,-1.22,-1.21
260.58,4.35,5.58,4.27,5.51,-5.51,-5.59,-6.29,-1.16,-1.24,-1.23
263.19,4.26,5.50,4.23,5.48,-5.48,-5.55,-6.24,-1.23,-1.25,-1.24
265.82,4.13,5.39,4.21,5.47,-5.47,-5.51,-6.19,-1.34,-1.27,-1.26
268.48,4.12,5.39,4.17,5.45,-5.45,-5.47,-6.13,-1.34,-1.28,-1.27
271.16,4.13,5.42,4.13,5.43,-5.43,-5.43,-6.06,-1.30,-1.30,-1.30
273.87,4.05,5.36,4.08,5.39,-5.39,-5.39,-5.99,-1.35,-1.31,-1.31
276.61,4.01,5.34,4.05,5.37,-5.37,-5.35,-5.91,-1.36,-1.33,-1.33
279.38,4.06,5.42,4.01,5.35,-5.35,-5.30,-5.82,-1.29,-1.34,-1.36
282.17,4.05,5.41,3.98,5.33,-5.33,-5.26,-5.73,-1.28,-1.35,-1.36
284.99,3.92,5.29,3.94,5.30,-5.30,-5.22,-5.64,-1.39,-1.36,-1.37
287.84,3.82,5.19,3.90,5.27,-5.27,-5.17,-5.55,-1.46,-1.37,-1.37
290.72,3.88,5.27,3.86,5.24,-5.24,-5.13,-5.45,-1.36,-1.38,-1.39
293.63,3.92,5.31,3.83,5.21,-5.21,-5.08,-5.36,-1.29,-1.39,-1.39
296.57,3.81,5.19,3.79,5.18,-5.18,-5.04,-5.26,-1.37,-1.39,-1.39
299.53,3.70,5.09,3.75,5.15,-5.15,-4.99,-5.16,-1.45,-1.40,-1.39
302.53,3.72,5.11,3.71,5.11,-5.11,-4.95,-5.06,-1.39,-1.40,-1.39
305.55,3.74,5.14,3.67,5.07,-5.07,-4.90,-4.96,-1.33,-1.40,-1.40
308.61,3.58,4.97,3.62,5.02,-5.02,-4.86,-4.86,-1.45,-1.41,-1.40
311.69,3.52,4.93,3.57,4.98,-4.98,-4.81,-4.76,-1.46,-1.41,-1.41
314.81,3.50,4.91,3.52,4.94,-4.94,-4.77,-4.67,-1.44,-1.41,-1.41
317.96,3.47,4.89,3.48,4.90,-4.90,-4.72,-4.57,-1.43,-1.42,-1.43
321.14,3.40,4.82,3.43,4.85,-4.85,-4.68,-4.48,-1.45,-1.42,-1.42
324.35,3.39,4.82,3.36,4.79,-4.79,-4.64,-4.39,-1.40,-1.43,-1.43
327.59,3.41,4.83,3.31,4.74,-4.74,-4.60,-4.31,-1.33,-1.43,-1.42
330.87,3.32,4.75,3.26,4.70,-4.70,-4.55,-4.22,-1.38,-1.43,-1.43
334.18,3.18,4.62,3.22,4.65,-4.65,-4.51,-4.14,-1.47,-1.44,-1.45
337.52,3.14,4.58,3.17,4.61,-4.61,-4.47,-4.06,-1.47,-1.44,-1.44
340.90,3.10,4.54,3.12,4.56,-4.56,-4.43,-3.98,-1.46,-1.44,-1.45
344.30,3.06,4.50,3.07,4.51,-4.51,-4.39,-3.91,-1.45,-1.44,-1.44
347.75,3.00,4.43,3.01,4.45,-4.45,-4.36,-3.84,-1.45,-1.44,-1.43
351.23,2.91,4.36,2.96,4.39,-4.39,-4.32,-3.77,-1.49,-1.44,-1.45
354.74,2.85,4.28,2.91,4.34,-4.34,-4.28,-3.70,-1.49,-1.43,-1.43
358.28,2.89,4.33,2.86,4.29,-4.29,-4.24,-3.64,-1.41,-1.43,-1.44
361.87,2.94,4.37,2.81,4.24,-4.24,-4.21,-3.58,-1.30,-1.43,-1.43
365.49,2.76,4.18,2.75,4.18,-4.18,-4.17,-3.52,-1.42,-1.43,-1.43
369.14,2.72,4.14,2.71,4.13,-4.13,-4.13,-3.47,-1.41,-1.42,-1.42
372.83,2.68,4.09,2.67,4.09,-4.09,-4.10,-3.42,-1.41,-1.42,-1.41
376.56,2.53,3.94,2.61,4.03,-4.03,-4.06,-3.37,-1.50,-1.42,-1.42
380.33,2.51,3.93,2.56,3.98,-3.98,-4.02,-3.32,-1.47,-1.42,-1.42
384.13,2.55,3.96,2.52,3.94,-3.94,-3.98,-3.28,-1.40,-1.42,-1.41
387.97,2.51,3.92,2.48,3.90,-3.90,-3.94,-3.24,-1.39,-1.42,-1.42
391.85,2.46,3.88,2.42,3.84,-3.84,-3.90,-3.20,-1.39,-1.43,-1.42
395.77,2.33,3.76,2.35,3.79,-3.79,-3.86,-3.16,-1.46,-1.43,-1.43
399.73,2.22,3.65,2.29,3.73,-3.73,-3.81,-3.13,-1.52,-1.44,-1.43
403.72,2.27,3.69,2.23,3.68,-3.68,-3.76,-3.09,-1.41,-1.44,-1.43
407.76,2.30,3.75,2.18,3.63,-3.63,-3.71,-3.06,-1.33,-1.45,-1.45
411.84,2.13,3.58,2.12,3.58,-3.58,-3.66,-3.03,-1.45,-1.45,-1.45
415.96,2.05,3.50,2.07,3.53,-3.53,-3.60,-3.00,-1.48,-1.45,-1.45
420.12,2.13,3.59,2.02,3.47,-3.47,-3.55,-2.98,-1.34,-1.45,-1.47
424.32,2.00,3.46,1.98,3.42,-3.42,-3.49,-2.95,-1.42,-1.44,-1.46
428.56,1.78,3.22,1.93,3.36,-3.36,-3.42,-2.93,-1.59,-1.43,-1.44
432.85,1.74,3.16,1.89,3.31,-3.31,-3.36,-2.90,-1.57,-1.41,-1.42
437.18,1.89,3.30,1.86,3.25,-3.25,-3.29,-2.88,-1.36,-1.39,-1.41
441.55,1.87,3.24,1.85,3.20,-3.20,-3.22,-2.85,-1.34,-1.36,-1.38
445.96,1.71,3.05,1.82,3.14,-3.14,-3.15,-2.83,-1.43,-1.32,-1.34
450.42,1.77,3.07,1.78,3.06,-3.06,-3.08,-2.81,-1.30,-1.28,-1.30
454.93,1.92,3.17,1.76,3.00,-3.00,-3.01,-2.78,-1.08,-1.23,-1.25
459.48,1.75,2.94,1.76,2.95,-2.95,-2.94,-2.76,-1.20,-1.18,-1.19
464.07,1.78,2.90,1.75,2.88,-2.88,-2.87,-2.73,-1.10,-1.13,-1.12
468.71,1.83,2.90,1.73,2.81,-2.81,-2.79,-2.70,-0.98,-1.08,-1.07
473.40,1.69,2.70,1.73,2.76,-2.76,-2.72,-2.68,-1.07,-1.02,-1.02
478.13,1.68,2.64,1.73,2.70,-2.70,-2.65,-2.65,-1.02,-0.97,-0.96
482.91,1.73,2.64,1.70,2.63,-2.63,-2.57,-2.61,-0.90,-0.92,-0.91
487.74,1.68,2.55,1.68,2.55,-2.55,-2.50,-2.58,-0.88,-0.88,-0.87
492.62,1.53,2.36,1.67,2.50,-2.50,-2.43,-2.55,-0.97,-0.84,-0.83
497.55,1.58,2.37,1.64,2.44,-2.44,-2.36,-2.51,-0.87,-0.80,-0.79
502.52,1.71,2.48,1.59,2.37,-2.37,-2.29,-2.47,-0.66,-0.78,-0.77
507.55,1.61,2.35,1.54,2.29,-2.29,-2.22,-2.43,-0.69,-0.76,-0.74
512.62,1.42,2.15,1.49,2.24,-2.24,-2.15,-2.38,-0.82,-0.75,-0.74
