frequency,raw,error,smoothed,error_smoothed,equalization,parametric_eq,fixed_band_eq,equalized_raw,equalized_smoothed,target
20.00,0.41,-8.50,0.44,-8.48,8.48,8.07,2.87,8.88,8.91,8.91
20.20,0.48,-8.42,0.50,-8.40,8.40,8.04,2.95,8.88,8.90,8.90
20.40,0.56,-8.33,0.56,-8.33,8.33,8.02,3.03,8.89,8.89,8.89
20.61,0.63,-8.26,0.63,-8.26,8.26,7.99,3.12,8.89,8.89,8.89
20.81,0.70,-8.17,0.69,-8.19,8.19,7.96,3.21,8.89,8.88,8.87
21.02,0.78,-8.09,0.75,-8.12,8.12,7.93,3.30,8.89,8.87,8.87
21.23,0.84,-8.02,0.82,-8.04,8.04,7.90,3.40,8.88,8.86,8.86
21.44,0.91,-7.96,0.88,-7.97,7.97,7.87,3.49,8.88,8.85,8.87
21.66,0.98,-7.88,0.94,-7.90,7.90,7.83,3.59,8.88,8.85,8.86
21.87,1.04,-7.81,1.01,-7.83,7.83,7.80,3.70,8.87,8.84,8.85
22.09,1.10,-7.74,1.07,-7.76,7.76,7.76,3.80,8.86,8.84,8.84
22.31,1.14,-7.70,1.14,-7.70,7.70,7.72,3.91,8.84,8.83,8.84
22.54,1.19,-7.64,1.20,-7.63,7.63,7.68,4.02,8.82,8.83,8.83
22.76,1.23,-7.59,1.26,-7.57,7.57,7.64,4.14,8.79,8.82,8.82
22.99,1.28,-7.53,1.32,-7.50,7.50,7.59,4.25,8.78,8.82,8.81
23.22,1.35,-7.45,1.38,-7.43,7.43,7.55,4.37,8.78,8.82,8.80
23.45,1.43,-7.38,1.45,-7.36,7.36,7.50,4.50,8.79,8.81,8.81
23.69,1.51,-7.29,1.52,-7.29,7.29,7.45,4.62,8.80,8.81,8.80
23.92,1.59,-7.21,1.58,-7.22,7.22,7.40,4.75,8.81,8.81,8.80
24.16,1.66,-7.15,1.65,-7.15,7.15,7.35,4.88,8.81,8.81,8.81
24.40,1.73,-7.09,1.72,-7.09,7.09,7.30,5.01,8.82,8.81,8.82
24.65,1.80,-7.02,1.79,-7.03,7.03,7.25,5.14,8.82,8.81,8.82
24.89,1.87,-6.95,1.85,-6.96,6.96,7.20,5.28,8.83,8.81,8.82
25.14,1.93,-6.88,1.91,-6.91,6.91,7.14,5.42,8.84,8.81,8.81
25.39,1.99,-6.82,1.97,-6.85,6.85,7.09,5.56,8.84,8.82,8.81
25.65,2.05,-6.76,2.02,-6.80,6.80,7.03,5.70,8.84,8.82,8.81
25.91,2.11,-6.71,2.08,-6.74,6.74,6.98,5.84,8.85,8.82,8.82
26.16,2.15,-6.68,2.13,-6.69,6.69,6.92,5.98,8.84,8.82,8.83
26.43,2.17,-6.66,2.18,-6.64,6.64,6.86,6.12,8.81,8.82,8.83
26.69,2.20,-6.63,2.23,-6.59,6.59,6.80,6.25,8.79,8.82,8.83
26.96,2.23,-6.59,2.29,-6.53,6.53,6.74,6.39,8.76,8.82,8.82
27.23,2.30,-6.52,2.34,-6.48,6.48,6.68,6.52,8.78,8.82,8.82
27.50,2.38,-6.44,2.40,-6.43,6.43,6.62,6.65,8.81,8.82,8.82
27.77,2.46,-6.37,2.45,-6.37,6.37,6.55,6.78,8.83,8.82,8.83
28.05,2.53,-6.30,2.51,-6.31,6.31,6.49,6.90,8.84,8.82,8.83
28.33,2.58,-6.23,2.57,-6.26,6.26,6.43,7.01,8.83,8.82,8.81
28.62,2.64,-6.17,2.63,-6.20,6.20,6.37,7.12,8.83,8.82,8.81
28.90,2.69,-6.13,2.68,-6.14,6.14,6.30,7.22,8.82,8.82,8.82
29.19,2.75,-6.07,2.74,-6.08,6.08,6.24,7.31,8.82,8.82,8.82
29.48,2.80,-6.01,2.80,-6.02,6.02,6.17,7.39,8.82,8.81,8.81
29.78,2.86,-5.95,2.85,-5.96,5.96,6.11,7.46,8.82,8.81,8.81
30.08,2.91,-5.91,2.89,-5.91,5.91,6.04,7.52,8.82,8.80,8.82
30.38,2.95,-5.86,2.93,-5.87,5.87,5.97,7.56,8.81,8.80,8.81
30.68,2.99,-5.80,2.97,-5.82,5.82,5.91,7.59,8.81,8.79,8.79
30.99,3.03,-5.76,3.02,-5.77,5.77,5.84,7.61,8.80,8.79,8.79
31.30,3.06,-5.72,3.06,-5.72,5.72,5.77,7.62,8.78,8.78,8.78
31.61,3.09,-5.68,3.10,-5.67,5.67,5.71,7.61,8.76,8.77,8.77
31.93,3.11,-5.65,3.15,-5.62,5.62,5.64,7.59,8.73,8.77,8.76
32.24,3.16,-5.60,3.19,-5.57,5.57,5.57,7.55,8.73,8.76,8.76
32.57,3.21,-5.53,3.23,-5.52,5.52,5.50,7.50,8.73,8.75,8.74
32.89,3.26,-5.48,3.28,-5.47,5.47,5.43,7.44,8.73,8.75,8.74
33.22,3.32,-5.42,3.32,-5.42,5.42,5.37,7.37,8.74,8.74,8.74
33.55,3.39,-5.34,3.37,-5.37,5.37,5.30,7.28,8.76,8.74,8.73
33.89,3.45,-5.29,3.41,-5.32,5.32,5.23,7.19,8.77,8.73,8.74
34.23,3.49,-5.23,3.46,-5.26,5.26,5.16,7.09,8.75,8.73,8.72
34.57,3.53,-5.19,3.51,-5.21,5.21,5.09,6.97,8.74,8.72,8.72
34.92,3.56,-5.15,3.56,-5.15,5.15,5.02,6.86,8.71,8.72,8.71
35.27,3.60,-5.12,3.61,-5.10,5.10,4.95,6.73,8.70,8.71,8.72
35.62,3.64,-5.06,3.65,-5.05,5.05,4.88,6.60,8.68,8.70,8.70
35.97,3.68,-5.02,3.70,-4.99,4.99,4.82,6.47,8.67,8.69,8.70
36.33,3.74,-4.94,3.74,-4.93,4.93,4.75,6.33,8.67,8.68,8.68
36.70,3.81,-4.86,3.79,-4.87,4.87,4.68,6.19,8.68,8.66,8.67
37.06,3.86,-4.79,3.83,-4.81,4.81,4.61,6.05,8.67,8.64,8.65
37.43,3.89,-4.74,3.88,-4.75,4.75,4.54,5.91,8.64,8.63,8.63
37.81,3.91,-4.70,3.92,-4.68,4.68,4.47,5.76,8.59,8.60,8.61
38.19,3.94,-4.64,3.97,-4.61,4.61,4.40,5.62,8.55,8.58,8.58
38.57,3.99,-4.57,4.01,-4.54,4.54,4.33,5.48,8.53,8.56,8.56
38.95,4.04,-4.49,4.06,-4.47,4.47,4.26,5.34,8.51,8.53,8.53
39.34,4.11,-4.38,4.10,-4.40,4.40,4.20,5.19,8.51,8.50,8.49
39.74,4.18,-4.29,4.14,-4.33,4.33,4.13,5.06,8.51,8.48,8.47
40.14,4.22,-4.22,4.18,-4.27,4.27,4.06,4.92,8.49,8.45,8.44
40.54,4.23,-4.19,4.21,-4.21,4.21,3.99,4.78,8.43,8.42,8.42
40.94,4.24,-4.15,4.25,-4.14,4.14,3.92,4.65,8.38,8.39,8.39
41.35,4.28,-4.09,4.29,-4.07,4.07,3.86,4.52,8.35,8.37,8.37
41.76,4.33,-4.00,4.33,-4.01,4.01,3.79,4.39,8.34,8.34,8.33
42.18,4.37,-3.94,4.37,-3.95,3.95,3.72,4.26,8.31,8.31,8.31
42.60,4.40,-3.89,4.40,-3.89,3.89,3.65,4.14,8.28,8.29,8.29
43.03,4.43,-3.83,4.43,-3.83,3.83,3.58,4.02,8.26,8.26,8.26
43.46,4.45,-3.78,4.46,-3.77,3.77,3.52,3.90,8.22,8.23,8.23
43.90,4.47,-3.74,4.50,-3.71,3.71,3.45,3.78,8.18,8.21,8.21
44.33,4.53,-3.64,4.53,-3.64,3.64,3.38,3.67,8.17,8.18,8.17
44.78,4.60,-3.54,4.57,-3.58,3.58,3.32,3.56,8.18,8.15,8.14
45.23,4.63,-3.50,4.60,-3.51,3.51,3.25,3.46,8.14,8.11,8.13
45.68,4.63,-3.45,4.63,-3.45,3.45,3.18,3.35,8.08,8.08,8.08
46.13,4.64,-3.40,4.66,-3.38,3.38,3.11,3.25,8.02,8.04,8.04
46.60,4.68,-3.33,4.69,-3.31,3.31,3.05,3.15,7.99,8.00,8.01
47.06,4.73,-3.24,4.73,-3.24,3.24,2.98,3.05,7.97,7.96,7.97
47.53,4.77,-3.17,4.76,-3.16,3.16,2.92,2.96,7.93,7.92,7.94
48.01,4.82,-3.06,4.79,-3.09,3.09,2.85,2.87,7.91,7.88,7.88
48.49,4.82,-3.01,4.82,-3.02,3.02,2.78,2.78,7.84,7.84,7.83
48.97,4.82,-2.97,4.84,-2.95,2.95,2.72,2.69,7.77,7.79,7.79
49.46,4.85,-2.90,4.87,-2.87,2.87,2.65,2.61,7.72,7.75,7.75
49.96,4.89,-2.79,4.90,-2.80,2.80,2.59,2.52,7.68,7.70,7.68
50.46,4.95,-2.69,4.94,-2.71,2.71,2.52,2.44,7.66,7.65,7.64
50.96,5.01,-2.59,4.97,-2.63,2.63,2.46,2.36,7.64,7.61,7.60
51.47,5.01,-2.55,5.00,-2.56,2.56,2.39,2.29,7.57,7.56,7.56
51.99,5.01,-2.50,5.02,-2.49,2.49,2.33,2.21,7.50,7.51,7.51
52.51,5.03,-2.44,5.05,-2.42,2.42,2.26,2.14,7.44,7.47,7.47
53.03,5.05,-2.39,5.08,-2.34,2.34,2.20,2.07,7.39,7.42,7.44
53.56,5.13,-2.25,5.11,-2.27,2.27,2.13,2.00,7.39,7.37,7.38
54.10,5.20,-2.13,5.14,-2.19,2.19,2.07,1.93,7.39,7.33,7.33
54.64,5.20,-2.09,5.17,-2.11,2.11,2.00,1.86,7.31,7.29,7.29
55.18,5.20,-2.03,5.20,-2.05,2.05,1.94,1.79,7.24,7.24,7.23
55.74,5.20,-1.98,5.22,-1.98,1.98,1.88,1.73,7.18,7.20,7.18
56.29,5.20,-1.95,5.25,-1.91,1.91,1.81,1.66,7.11,7.16,7.15
56.86,5.21,-1.90,5.27,-1.85,1.85,1.75,1.60,7.06,7.12,7.11
57.42,5.29,-1.76,5.29,-1.78,1.78,1.68,1.53,7.07,7.07,7.05
58.00,5.39,-1.63,5.32,-1.70,1.70,1.62,1.47,7.09,7.02,7.02
58.58,5.39,-1.60,5.34,-1.63,1.63,1.56,1.41,7.02,6.98,6.99
59.16,5.39,-1.56,5.37,-1.56,1.56,1.49,1.35,6.95,6.93,6.95
59.76,5.39,-1.52,5.39,-1.49,1.49,1.43,1.29,6.88,6.88,6.91
60.35,5.39,-1.45,5.41,-1.41,1.41,1.37,1.23,6.80,6.83,6.84
60.96,5.39,-1.40,5.44,-1.33,1.33,1.30,1.17,6.72,6.77,6.79
61.57,5.45,-1.27,5.46,-1.26,1.26,1.24,1.10,6.71,6.72,6.72
62.18,5.49,-1.16,5.48,-1.18,1.18,1.18,1.04,6.67,6.66,6.65
62.80,5.49,-1.10,5.50,-1.10,1.10,1.11,0.98,6.59,6.61,6.59
63.43,5.53,-1.00,5.51,-1.03,1.03,1.05,0.92,6.56,6.55,6.53
64.07,5.58,-0.90,5.53,-0.96,0.96,0.99,0.86,6.54,6.49,6.48
64.71,5.58,-0.84,5.54,-0.89,0.89,0.92,0.80,6.47,6.43,6.42
65.35,5.58,-0.78,5.56,-0.81,0.81,0.86,0.74,6.38,6.36,6.36
66.01,5.58,-0.72,5.58,-0.72,0.72,0.80,0.68,6.30,6.30,6.30
66.67,5.58,-0.68,5.60,-0.64,0.64,0.73,0.62,6.22,6.24,6.26
67.33,5.58,-0.60,5.62,-0.56,0.56,0.67,0.56,6.14,6.18,6.18
68.01,5.58,-0.55,5.64,-0.48,0.48,0.61,0.50,6.06,6.12,6.13
68.69,5.65,-0.41,5.66,-0.40,0.40,0.55,0.43,6.05,6.06,6.06
69.37,5.68,-0.33,5.68,-0.32,0.32,0.48,0.37,6.00,6.00,6.01
70.07,5.68,-0.26,5.69,-0.24,0.24,0.42,0.31,5.92,5.94,5.94
70.77,5.73,-0.15,5.71,-0.16,0.16,0.36,0.24,5.89,5.87,5.88
71.48,5.76,-0.05,5.72,-0.09,0.09,0.29,0.18,5.85,5.81,5.81
72.19,5.78,0.04,5.73,-0.01,0.01,0.23,0.12,5.79,5.74,5.74
72.91,5.78,0.10,5.75,0.07,-0.07,0.17,0.05,5.71,5.68,5.68
73.64,5.78,0.17,5.76,0.14,-0.14,0.10,-0.01,5.63,5.62,5.61
74.38,5.78,0.23,5.78,0.22,-0.22,0.04,-0.08,5.56,5.56,5.55
75.12,5.78,0.30,5.79,0.29,-0.29,-0.02,-0.15,5.49,5.50,5.48
75.87,5.78,0.34,5.80,0.36,-0.36,-0.09,-0.21,5.42,5.44,5.44
76.63,5.78,0.41,5.80,0.42,-0.42,-0.15,-0.28,5.36,5.38,5.37
77.40,5.78,0.46,5.81,0.48,-0.48,-0.22,-0.35,5.29,5.32,5.32
78.17,5.78,0.52,5.81,0.55,-0.55,-0.28,-0.42,5.23,5.27,5.26
78.95,5.78,0.56,5.82,0.60,-0.60,-0.34,-0.49,5.17,5.21,5.22
79.74,5.85,0.69,5.82,0.66,-0.66,-0.41,-0.56,5.18,5.16,5.16
80.54,5.87,0.77,5.83,0.73,-0.73,-0.47,-0.63,5.14,5.10,5.10
81.35,5.87,0.82,5.84,0.79,-0.79,-0.54,-0.70,5.08,5.05,5.05
82.16,5.87,0.87,5.85,0.86,-0.86,-0.60,-0.78,5.01,4.99,5.00
82.98,5.87,0.93,5.86,0.93,-0.93,-0.67,-0.85,4.94,4.93,4.94
83.81,5.87,0.99,5.87,1.00,-1.00,-0.73,-0.93,4.87,4.88,4.88
84.65,5.87,1.05,5.89,1.07,-1.07,-0.80,-1.00,4.80,4.82,4.82
85.50,5.87,1.12,5.90,1.14,-1.14,-0.86,-1.08,4.73,4.76,4.75
86.35,5.87,1.18,5.91,1.21,-1.21,-0.93,-1.16,4.66,4.70,4.69
87.22,5.89,1.25,5.92,1.28,-1.28,-0.99,-1.24,4.61,4.64,4.64
88.09,5.94,1.37,5.93,1.35,-1.35,-1.06,-1.32,4.58,4.58,4.57
88.97,5.97,1.45,5.94,1.42,-1.42,-1.13,-1.40,4.55,4.51,4.52
89.86,5.97,1.53,5.95,1.50,-1.50,-1.19,-1.48,4.47,4.45,4.44
90.76,5.97,1.59,5.96,1.58,-1.58,-1.26,-1.56,4.39,4.38,4.38
91.66,5.97,1.66,5.97,1.65,-1.65,-1.33,-1.65,4.32,4.31,4.31
92.58,5.98,1.73,5.97,1.73,-1.73,-1.39,-1.73,4.25,4.24,4.25
93.51,5.98,1.80,5.98,1.81,-1.81,-1.46,-1.82,4.17,4.17,4.18
94.44,5.98,1.87,5.98,1.88,-1.88,-1.53,-1.91,4.10,4.10,4.11
95.39,5.97,1.94,5.98,1.95,-1.95,-1.59,-2.00,4.01,4.02,4.03
96.34,5.97,2.02,5.97,2.03,-2.03,-1.66,-2.09,3.94,3.94,3.95
97.30,5.97,2.10,5.96,2.10,-2.10,-1.73,-2.18,3.87,3.86,3.87
98.28,5.96,2.18,5.95,2.16,-2.16,-1.80,-2.27,3.79,3.78,3.78
99.26,5.94,2.25,5.94,2.23,-2.23,-1.87,-2.36,3.71,3.70,3.69
100.25,5.92,2.31,5.92,2.30,-2.30,-1.93,-2.46,3.62,3.62,3.61
101.25,5.90,2.36,5.91,2.37,-2.37,-2.00,-2.55,3.53,3.54,3.54
102.27,5.89,2.44,5.89,2.43,-2.43,-2.07,-2.64,3.46,3.46,3.45
103.29,5.88,2.51,5.87,2.50,-2.50,-2.14,-2.73,3.38,3.37,3.37
104.32,5.86,2.56,5.85,2.56,-2.56,-2.21,-2.83,3.30,3.29,3.30
105.37,5.84,2.62,5.83,2.62,-2.62,-2.28,-2.92,3.22,3.21,3.22
106.42,5.81,2.68,5.81,2.68,-2.68,-2.35,-3.01,3.13,3.13,3.13
107.48,5.79,2.75,5.79,2.74,-2.74,-2.42,-3.10,3.05,3.05,3.04
108.56,5.76,2.78,5.77,2.80,-2.80,-2.49,-3.19,2.96,2.97,2.98
109.64,5.74,2.85,5.75,2.85,-2.85,-2.56,-3.28,2.89,2.89,2.89
110.74,5.72,2.91,5.72,2.91,-2.91,-2.63,-3.37,2.81,2.82,2.81
111.85,5.71,2.97,5.70,2.96,-2.96,-2.70,-3.45,2.74,2.74,2.74
112.97,5.70,3.03,5.69,3.02,-3.02,-2.77,-3.53,2.68,2.67,2.67
114.10,5.69,3.09,5.67,3.08,-3.08,-2.84,-3.61,2.61,2.59,2.60
115.24,5.68,3.16,5.65,3.13,-3.13,-2.91,-3.69,2.54,2.52,2.52
116.39,5.63,3.19,5.64,3.19,-3.19,-2.98,-3.76,2.44,2.45,2.44
117.55,5.60,3.22,5.63,3.25,-3.25,-3.06,-3.82,2.35,2.38,2.38
118.73,5.60,3.30,5.63,3.31,-3.31,-3.13,-3.89,2.29,2.32,2.30
119.92,5.61,3.37,5.63,3.37,-3.37,-3.20,-3.95,2.23,2.25,2.24
121.12,5.62,3.43,5.62,3.44,-3.44,-3.27,-4.00,2.18,2.19,2.19
122.33,5.63,3.51,5.62,3.50,-3.50,-3.34,-4.05,2.13,2.12,2.12
123.55,5.63,3.56,5.63,3.57,-3.57,-3.41,-4.10,2.06,2.06,2.07
124.79,5.64,3.63,5.63,3.64,-3.64,-3.48,-4.14,2.00,2.00,2.01
126.03,5.65,3.71,5.64,3.71,-3.71,-3.55,-4.17,1.94,1.94,1.94
127.29,5.65,3.77,5.65,3.78,-3.78,-3.62,-4.20,1.87,1.87,1.88
128.57,5.66,3.84,5.66,3.85,-3.85,-3.70,-4.23,1.81,1.82,1.82
129.85,5.67,3.92,5.67,3.92,-3.92,-3.77,-4.25,1.75,1.76,1.75
131.15,5.67,3.98,5.68,3.98,-3.98,-3.84,-4.27,1.69,1.70,1.69
132.46,5.68,4.05,5.68,4.04,-4.04,-3.91,-4.28,1.64,1.64,1.63
133.79,5.68,4.11,5.67,4.10,-4.10,-3.98,-4.29,1.58,1.58,1.57
135.12,5.68,4.17,5.66,4.15,-4.15,-4.05,-4.30,1.53,1.52,1.51
136.48,5.69,4.22,5.65,4.19,-4.19,-4.11,-4.30,1.49,1.46,1.47
137.84,5.69,4.28,5.64,4.24,-4.24,-4.18,-4.30,1.45,1.40,1.41
139.22,5.65,4.32,5.62,4.28,-4.28,-4.25,-4.30,1.37,1.34,1.33
140.61,5.61,4.32,5.60,4.32,-4.32,-4.32,-4.29,1.29,1.28,1.29
142.02,5.60,4.37,5.59,4.36,-4.36,-4.39,-4.28,1.24,1.23,1.23
143.44,5.55,4.39,5.58,4.41,-4.41,-4.45,-4.28,1.14,1.17,1.16
144.87,5.50,4.39,5.57,4.45,-4.45,-4.52,-4.27,1.05,1.12,1.11
146.32,5.50,4.44,5.55,4.49,-4.49,-4.58,-4.26,1.01,1.06,1.06
147.78,5.50,4.50,5.53,4.53,-4.53,-4.65,-4.25,0.97,1.00,1.00
149.26,5.50,4.55,5.52,4.57,-4.57,-4.71,-4.25,0.93,0.95,0.95
150.75,5.50,4.62,5.50,4.61,-4.61,-4.77,-4.24,0.89,0.89,0.88
152.26,5.50,4.66,5.48,4.64,-4.64,-4.84,-4.23,0.85,0.83,0.84
153.78,5.50,4.72,5.46,4.68,-4.68,-4.90,-4.23,0.82,0.78,0.78
155.32,5.51,4.78,5.45,4.72,-4.72,-4.96,-4.23,0.79,0.72,0.73
156.88,5.51,4.84,5.43,4.77,-4.77,-5.01,-4.22,0.74,0.66,0.67
158.44,5.47,4.86,5.42,4.81,-4.81,-5.07,-4.23,0.65,0.61,0.61
160.03,5.36,4.81,5.41,4.86,-4.86,-5.13,-4.23,0.50,0.55,0.55
161.63,5.32,4.83,5.39,4.90,-4.90,-5.18,-4.24,0.42,0.49,0.49
163.24,5.31,4.89,5.37,4.94,-4.94,-5.24,-4.24,0.37,0.43,0.42
164.88,5.31,4.94,5.34,4.97,-4.97,-5.29,-4.26,0.34,0.37,0.37
166.53,5.30,5.00,5.31,5.00,-5.00,-5.34,-4.27,0.29,0.31,0.30
168.19,5.30,5.05,5.28,5.04,-5.04,-5.39,-4.29,0.26,0.25,0.25
169.87,5.29,5.10,5.25,5.07,-5.07,-5.43,-4.31,0.22,0.19,0.19
171.57,5.28,5.16,5.23,5.10,-5.10,-5.48,-4.33,0.17,0.13,0.12
173.29,5.27,5.21,5.20,5.14,-5.14,-5.52,-4.36,0.13,0.07,0.06
175.02,5.20,5.19,5.18,5.17,-5.17,-5.56,-4.39,0.03,0.01,0.01
176.77,5.16,5.20,5.17,5.21,-5.21,-5.60,-4.43,-0.05,-0.04,-0.04
178.54,5.09,5.19,5.15,5.25,-5.25,-5.64,-4.47,-0.16,-0.10,-0.10
180.32,5.08,5.24,5.14,5.29,-5.29,-5.67,-4.51,-0.21,-0.15,-0.16
182.13,5.08,5.28,5.12,5.32,-5.32,-5.71,-4.55,-0.24,-0.20,-0.20
183.95,5.09,5.34,5.10,5.35,-5.35,-5.74,-4.60,-0.26,-0.25,-0.25
185.79,5.11,5.41,5.08,5.38,-5.38,-5.76,-4.65,-0.27,-0.30,-0.30
187.65,5.09,5.43,5.07,5.41,-5.41,-5.79,-4.71,-0.32,-0.34,-0.34
189.52,5.04,5.43,5.06,5.45,-5.45,-5.81,-4.77,-0.41,-0.39,-0.39
191.42,5.04,5.46,5.05,5.48,-5.48,-5.84,-4.83,-0.44,-0.43,-0.42
193.33,5.08,5.55,5.04,5.52,-5.52,-5.86,-4.89,-0.44,-0.48,-0.47
195.27,5.06,5.58,5.03,5.55,-5.55,-5.87,-4.96,-0.49,-0.52,-0.52
197.22,5.02,5.59,5.01,5.57,-5.57,-5.89,-5.03,-0.55,-0.56,-0.57
199.19,5.01,5.61,4.99,5.59,-5.59,-5.90,-5.10,-0.58,-0.60,-0.60
201.18,4.96,5.61,4.96,5.61,-5.61,-5.91,-5.18,-0.65,-0.64,-0.65
203.19,4.92,5.60,4.94,5.62,-5.62,-5.91,-5.25,-0.71,-0.68,-0.68
205.23,4.94,5.66,4.92,5.64,-5.64,-5.92,-5.33,-0.70,-0.72,-0.72
207.28,4.95,5.70,4.89,5.65,-5.65,-5.92,-5.41,-0.70,-0.76,-0.75
209.35,4.87,5.66,4.86,5.66,-5.66,-5.92,-5.49,-0.79,-0.80,-0.79
211.44,4.81,5.65,4.83,5.66,-5.66,-5.92,-5.56,-0.86,-0.84,-0.84
213.56,4.73,5.60,4.80,5.67,-5.67,-5.91,-5.64,-0.94,-0.88,-0.87
215.69,4.71,5.62,4.77,5.68,-5.68,-5.90,-5.72,-0.97,-0.91,-0.91
217.85,4.72,5.66,4.74,5.68,-5.68,-5.89,-5.80,-0.96,-0.94,-0.94
220.03,4.73,5.72,4.70,5.68,-5.68,-5.88,-5.87,-0.95,-0.98,-0.99
222.23,4.74,5.75,4.67,5.67,-5.67,-5.87,-5.95,-0.93,-1.01,-1.01
224.45,4.71,5.75,4.63,5.67,-5.67,-5.85,-6.01,-0.96,-1.03,-1.04
226.70,4.59,5.66,4.60,5.67,-5.67,-5.83,-6.08,-1.08,-1.06,-1.07
228.96,4.51,5.60,4.58,5.66,-5.66,-5.81,-6.14,-1.15,-1.08,-1.09
231.25,4.53,5.63,4.55,5.66,-5.66,-5.78,-6.19,-1.13,-1.10,-1.10
233.57,4.55,5.68,4.53,5.65,-5.65,-5.76,-6.24,-1.10,-1.12,-1.13
235.90,4.58,5.72,4.51,5.65,-5.65,-5.73,-6.29,-1.07,-1.13,-1.14
238.26,4.44,5.60,4.50,5.65,-5.65,-5.70,-6.32,-1.21,-1.15,-1.16
240.64,4.38,5.53,4.48,5.64,-5.64,-5.67,-6.35,-1.26,-1.16,-1.15
243.05,4.41,5.57,4.45,5.62,-5.62,-5.63,-6.37,-1.21,-1.17,-1.16
245.48,4.43,5.61,4.43,5.60,-5.60,-5.60,-6.38,-1.18,-1.17,-1.18
247.93,4.48,5.67,4.41,5.59,-5.59,-5.56,-6.38,-1.11,-1.18,-1.19
250.41,4.48,5.66,4.38,5.57,-5.57,-5.52,-6.38,-1.09,-1.19,-1.18
252.92,4.37,5.55,4.36,5.55,-5.55,-5.48,-6.36,-1.19,-1.20,-1.18
255.45,4.31,5.51,4.34,5.54,-5.54,-5.44,-6.34,-1.23,-1.20,-1.20
258.00,4.33,5.54,4.31,5.52,-5.52,-5.40,-6.31,-1.19,-1.22,-1.21
260.58,4.35,5.57,4.27,5.50,-5.50,-5.35,-6.27,-1.15,-1.22,-1.22
263.19,4.26,5.49,4.23,5.47,-5.47,-5.31,-6.22,-1.21,-1.24,-1.23
265.82,4.13,5.38,4.21,5.45,-5.45,-5.26,-6.16,-1.33,-1.25,-1.25
268.48,4.12,5.37,4.17,5.43,-5.43,-5.21,-6.10,-1.32,-1.26,-1.25
271.16,4.13,5.40,4.13,5.40,-5.40,-5.17,-6.03,-1.27,-1.27,-1.27
273.87,4.05,5.33,4.08,5.37,-5.37,-5.12,-5.96,-1.32,-1.28,-1.28
276.61,4.01,5.31,4.05,5.34,-5.34,-5.06,-5.88,-1.33,-1.30,-1.30
279.38,4.06,5.39,4.01,5.32,-5.32,-5.01,-5.79,-1.26,-1.31,-1.33
282.17,4.05,5.38,3.98,5.30,-5.30,-4.96,-5.70,-1.25,-1.32,-1.33
284.99,3.92,5.25,3.94,5.27,-5.27,-4.91,-5.61,-1.35,-1.32,-1.33
287.84,3.82,5.15,3.90,5.24,-5.24,-4.85,-5.51,-1.42,-1.33,-1.33
290.72,3.88,5.23,3.86,5.20,-5.20,-4.80,-5.42,-1.32,-1.34,-1.35
293.63,3.92,5.26,3.83,5.17,-5.17,-4.74,-5.32,-1.25,-1.34,-1.34
296.57,3.81,5.15,3.79,5.13,-5.13,-4.69,-5.22,-1.33,-1.35,-1.34
299.53,3.70,5.05,3.75,5.10,-5.10,-4.63,-5.12,-1.40,-1.35,-1.35
302.53,3.72,5.06,3.71,5.06,-5.06,-4.58,-5.02,-1.34,-1.35,-1.34
305.55,3.74,5.09,3.67,5.02,-5.02,-4.52,-4.92,-1.28,-1.35,-1.35
308.61,3.58,4.92,3.62,4.97,-4.97,-4.46,-4.82,-1.39,-1.35,-1.34
311.69,3.52,4.88,3.57,4.92,-4.92,-4.41,-4.72,-1.41,-1.36,-1.36
314.81,3.50,4.85,3.52,4.88,-4.88,-4.35,-4.63,-1.38,-1.36,-1.35
317.96,3.47,4.84,3.48,4.84,-4.84,-4.29,-4.53,-1.37,-1.36,-1.37
321.14,3.40,4.76,3.43,4.79,-4.79,-4.23,-4.44,-1.39,-1.36,-1.36
324.35,3.39,4.76,3.36,4.73,-4.73,-4.18,-4.35,-1.34,-1.36,-1.37
327.59,3.41,4.77,3.31,4.68,-4.68,-4.12,-4.26,-1.27,-1.37,-1.36
330.87,3.32,4.69,3.26,4.63,-4.63,-4.06,-4.18,-1.32,-1.37,-1.37
334.18,3.18,4.56,3.22,4.59,-4.59,-4.00,-4.09,-1.41,-1.37,-1.38
337.52,3.14,4.51,3.17,4.54,-4.54,-3.95,-4.01,-1.40,-1.37,-1.37
340.90,3.10,4.48,3.12,4.49,-4.49,-3.89,-3.93,-1.39,-1.37,-1.38
344.30,3.06,4.43,3.07,4.44,-4.44,-3.83,-3.86,-1.38,-1.37,-1.37
347.75,3.00,4.36,3.01,4.38,-4.38,-3.77,-3.79,-1.38,-1.37,-1.36
351.23,2.91,4.29,2.96,4.32,-4.32,-3.72,-3.72,-1.41,-1.36,-1.38
354.74,2.85,4.21,2.91,4.27,-4.27,-3.66,-3.65,-1.42,-1.36,-1.36
358.28,2.89,4.25,2.86,4.22,-4.22,-3.60,-3.59,-1.33,-1.36,-1.36
361.87,2.94,4.30,2.81,4.16,-4.16,-3.55,-3.53,-1.22,-1.35,-1.36
365.49,2.76,4.11,2.75,4.10,-4.10,-3.49,-3.47,-1.34,-1.35,-1.35
369.14,2.72,4.06,2.71,4.05,-4.05,-3.43,-3.41,-1.34,-1.34,-1.34
372.83,2.68,4.01,2.67,4.01,-4.01,-3.38,-3.36,-1.33,-1.34,-1.33
376.56,2.53,3.87,2.61,3.95,-3.95,-3.32,-3.31,-1.42,-1.34,-1.34
380.33,2.51,3.85,2.56,3.90,-3.90,-3.27,-3.26,-1.39,-1.34,-1.34
384.13,2.55,3.88,2.52,3.86,-3.86,-3.21,-3.22,-1.31,-1.34,-1.33
387.97,2.51,3.84,2.48,3.82,-3.82,-3.16,-3.17,-1.31,-1.34,-1.33
391.85,2.46,3.80,2.42,3.76,-3.76,-3.11,-3.13,-1.30,-1.35,-1.34
395.77,2.33,3.68,2.35,3.70,-3.70,-3.05,-3.09,-1.38,-1.35,-1.35
399.73,2.22,3.57,2.29,3.65,-3.65,-3.00,-3.06,-1.43,-1.36,-1.35
403.72,2.27,3.61,2.23,3.60,-3.60,-2.95,-3.02,-1.33,-1.36,-1.34
407.76,2.30,3.66,2.18,3.54,-3.54,-2.89,-2.99,-1.24,-1.36,-1.36
411.84,2.13,3.50,2.12,3.49,-3.49,-2.84,-2.96,-1.36,-1.37,-1.37
415.96,2.05,3.42,2.07,3.44,-3.44,-2.79,-2.93,-1.39,-1.37,-1.37
420.12,2.13,3.51,2.02,3.39,-3.39,-2.74,-2.90,-1.26,-1.36,-1.38
424.32,2.00,3.37,1.98,3.33,-3.33,-2.69,-2.87,-1.33,-1.36,-1.37
428.56,1.78,3.13,1.93,3.28,-3.28,-2.64,-2.85,-1.50,-1.34,-1.35
432.85,1.74,3.07,1.89,3.22,-3.22,-2.58,-2.82,-1.48,-1.33,-1.33
437.18,1.89,3.21,1.86,3.16,-3.16,-2.53,-2.79,-1.27,-1.30,-1.32
441.55,1.87,3.16,1.85,3.11,-3.11,-2.49,-2.77,-1.25,-1.27,-1.29
445.96,1.71,2.96,1.82,3.05,-3.05,-2.44,-2.74,-1.34,-1.23,-1.25
450.42,1.77,2.98,1.78,2.97,-2.97,-2.39,-2.72,-1.20,-1.19,-1.21
454.93,1.92,3.08,1.76,2.91,-2.91,-2.34,-2.69,-0.99,-1.14,-1.16
459.48,1.75,2.85,1.76,2.85,-2.85,-2.29,-2.67,-1.10,-1.09,-1.10
464.07,1.78,2.81,1.75,2.79,-2.79,-2.24,-2.64,-1.01,-1.04,-1.03
468.71,1.83,2.81,1.73,2.72,-2.72,-2.19,-2.61,-0.89,-0.98,-0.98
473.40,1.69,2.61,1.73,2.66,-2.66,-2.15,-2.58,-0.98,-0.93,-0.92
478.13,1.68,2.54,1.73,2.60,-2.60,-2.10,-2.55,-0.93,-0.88,-0.86
482.91,1.73,2.54,1.70,2.53,-2.53,-2.05,-2.52,-0.80,-0.83,-0.81
487.74,1.68,2.46,1.68,2.46,-2.46,-2.01,-2.48,-0.78,-0.78,-0.78
492.62,1.53,2.27,1.67,2.41,-2.41,-1.96,-2.45,-0.88,-0.74,-0.74
497.55,1.58,2.28,1.64,2.35,-2.35,-1.91,-2.41,-0.77,-0.71,-0.70
502.52,1.71,2.39,1.59,2.27,-2.27,-1.87,-2.37,-0.56,-0.68,-0.68
507.55,1.61,2.26,1.54,2.20,-2.20,-1.82,-2.33,-0.59,-0.66,-0.65
512.62,1.42,2.06,1.49,2.14,-2.14,-1.78,-2.28,-0.73,-0.65,-0.64
517.75,1.50,2.13,1.42,2.07,-2.07,-1.73,-2.24,-0.57,-0.65,-0.63
522.93,1.44,2.07,1.36,2.01,-2.01,-1.69,-2.19,-0.57,-0.65,-0.63
528.16,1.30,1.95,1.30,1.96,-1.96,-1.64,-2.14,-0.67,-0.66,-0.65
