frequency,raw,error,smoothed,error_smoothed,equalization,parametric_eq,fixed_band_eq,equalized_raw,equalized_smoothed,target
20.00,-8.47,-12.27,-8.47,-12.26,12.27,12.35,4.42,3.79,3.80,3.79
20.20,-8.42,-12.22,-8.43,-12.22,12.22,12.27,4.53,3.80,3.80,3.79
20.40,-8.38,-12.18,-8.38,-12.18,12.18,12.18,4.65,3.79,3.79,3.79
20.61,-8.33,-12.13,-8.33,-12.13,12.13,12.10,4.77,3.79,3.79,3.79
20.81,-8.28,-12.08,-8.28,-12.08,12.07,12.01,4.90,3.79,3.79,3.79
21.02,-8.23,-12.03,-8.23,-12.02,12.01,11.93,5.03,3.78,3.78,3.79
21.23,-8.17,-11.95,-8.18,-11.95,11.95,11.84,5.16,3.78,3.78,3.77
21.44,-8.12,-11.89,-8.12,-11.89,11.89,11.75,5.30,3.77,3.76,3.76
21.66,-8.07,-11.82,-8.07,-11.82,11.82,11.66,5.44,3.75,3.75,3.74
21.87,-8.02,-11.75,-8.02,-11.75,11.75,11.58,5.58,3.73,3.73,3.72
22.09,-7.96,-11.68,-7.97,-11.67,11.67,11.49,5.73,3.71,3.71,3.71
22.31,-7.91,-11.60,-7.91,-11.60,11.59,11.40,5.88,3.68,3.68,3.68
22.54,-7.85,-11.52,-7.85,-11.52,11.51,11.31,6.04,3.66,3.66,3.66
22.76,-7.79,-11.44,-7.80,-11.44,11.43,11.22,6.20,3.64,3.64,3.64
22.99,-7.73,-11.35,-7.74,-11.35,11.35,11.13,6.36,3.62,3.61,3.61
23.22,-7.68,-11.27,-7.68,-11.26,11.27,11.04,6.53,3.58,3.59,3.58
23.45,-7.61,-11.17,-7.62,-11.17,11.18,10.95,6.70,3.57,3.57,3.55
23.69,-7.55,-11.10,-7.55,-11.09,11.10,10.86,6.88,3.54,3.55,3.54
23.92,-7.48,-11.01,-7.49,-11.01,11.01,10.77,7.06,3.53,3.53,3.52
24.16,-7.42,-10.94,-7.42,-10.93,10.93,10.69,7.24,3.51,3.51,3.51
24.40,-7.36,-10.86,-7.36,-10.85,10.85,10.60,7.43,3.48,3.49,3.49
24.65,-7.29,-10.77,-7.29,-10.77,10.76,10.51,7.62,3.47,3.47,3.47
24.89,-7.22,-10.68,-7.22,-10.68,10.68,10.42,7.81,3.46,3.46,3.45
25.14,-7.15,-10.60,-7.15,-10.59,10.60,10.33,8.01,3.44,3.44,3.44
25.39,-7.08,-10.51,-7.09,-10.51,10.51,10.25,8.21,3.43,3.43,3.42
25.65,-7.02,-10.44,-7.02,-10.43,10.43,10.16,8.41,3.40,3.41,3.41
25.91,-6.95,-10.34,-6.95,-10.34,10.34,10.08,8.61,3.39,3.39,3.38
26.16,-6.88,-10.26,-6.88,-10.26,10.26,9.99,8.82,3.37,3.37,3.37
26.43,-6.81,-10.18,-6.81,-10.17,10.17,9.91,9.02,3.36,3.36,3.36
26.69,-6.74,-10.08,-6.74,-10.08,10.09,9.82,9.23,3.34,3.34,3.33
26.96,-6.67,-10.00,-6.67,-10.00,10.00,9.74,9.43,3.33,3.33,3.32
27.23,-6.60,-9.92,-6.60,-9.92,9.92,9.65,9.64,3.31,3.31,3.31
27.50,-6.53,-9.84,-6.53,-9.83,9.83,9.57,9.83,3.30,3.30,3.30
27.77,-6.46,-9.75,-6.46,-9.75,9.74,9.49,10.03,3.28,3.28,3.28
28.05,-6.38,-9.66,-6.39,-9.66,9.66,9.41,10.22,3.27,3.27,3.27
28.33,-6.32,-9.58,-6.32,-9.57,9.57,9.32,10.40,3.25,3.26,3.25
28.62,-6.24,-9.49,-6.25,-9.49,9.49,9.24,10.57,3.24,3.24,3.24
28.90,-6.17,-9.40,-6.18,-9.40,9.40,9.16,10.73,3.23,3.23,3.22
29.19,-6.11,-9.32,-6.11,-9.32,9.32,9.08,10.88,3.21,3.22,3.20
29.48,-6.03,-9.24,-6.03,-9.24,9.24,9.00,11.01,3.20,3.20,3.20
29.78,-5.96,-9.16,-5.97,-9.16,9.15,8.93,11.13,3.19,3.19,3.19
30.08,-5.89,-9.08,-5.90,-9.08,9.07,8.85,11.23,3.18,3.18,3.18
30.38,-5.83,-9.00,-5.83,-9.00,8.99,8.77,11.31,3.16,3.16,3.16
30.68,-5.76,-8.92,-5.76,-8.91,8.91,8.69,11.36,3.15,3.15,3.15
30.99,-5.69,-8.82,-5.70,-8.83,8.83,8.62,11.40,3.14,3.13,3.12
31.30,-5.63,-8.75,-5.63,-8.75,8.75,8.54,11.42,3.12,3.12,3.11
31.61,-5.56,-8.67,-5.57,-8.67,8.67,8.46,11.41,3.11,3.10,3.10
31.93,-5.51,-8.60,-5.51,-8.59,8.59,8.39,11.39,3.08,3.08,3.08
32.24,-5.45,-8.51,-5.45,-8.51,8.51,8.31,11.34,3.06,3.06,3.05
32.57,-5.39,-8.43,-5.40,-8.43,8.43,8.24,11.27,3.04,3.04,3.03
32.89,-5.34,-8.37,-5.34,-8.35,8.35,8.17,11.18,3.01,3.02,3.02
33.22,-5.27,-8.27,-5.28,-8.28,8.27,8.09,11.08,3.00,3.00,2.99
33.55,-5.22,-8.21,-5.22,-8.20,8.20,8.02,10.96,2.97,2.97,2.98
33.89,-5.16,-8.12,-5.16,-8.12,8.12,7.95,10.83,2.95,2.96,2.95
34.23,-5.10,-8.04,-5.10,-8.04,8.04,7.88,10.68,2.93,2.93,2.93
34.57,-5.03,-7.95,-5.04,-7.95,7.96,7.80,10.53,2.92,2.92,2.91
34.92,-4.98,-7.88,-4.98,-7.87,7.88,7.73,10.36,2.89,2.89,2.89
35.27,-4.92,-7.80,-4.92,-7.80,7.80,7.66,10.19,2.87,2.87,2.87
35.62,-4.86,-7.72,-4.86,-7.72,7.72,7.59,10.02,2.85,2.85,2.85
35.97,-4.80,-7.64,-4.80,-7.64,7.64,7.52,9.84,2.83,2.83,2.83
36.33,-4.74,-7.56,-4.75,-7.56,7.56,7.45,9.66,2.82,2.81,2.81
36.70,-4.69,-7.49,-4.69,-7.48,7.48,7.38,9.48,2.79,2.79,2.79
37.06,-4.63,-7.41,-4.63,-7.41,7.40,7.32,9.29,2.77,2.77,2.77
37.43,-4.57,-7.33,-4.58,-7.33,7.33,7.25,9.11,2.76,2.75,2.75
37.81,-4.52,-7.26,-4.52,-7.25,7.25,7.18,8.93,2.73,2.73,2.73
38.19,-4.47,-7.18,-4.47,-7.18,7.18,7.11,8.75,2.71,2.71,2.70
38.57,-4.42,-7.12,-4.42,-7.11,7.11,7.05,8.57,2.69,2.69,2.69
38.95,-4.37,-7.04,-4.37,-7.04,7.04,6.98,8.40,2.67,2.67,2.66
39.34,-4.32,-6.97,-4.33,-6.97,6.97,6.91,8.23,2.65,2.65,2.64
39.74,-4.28,-6.91,-4.28,-6.91,6.91,6.85,8.06,2.62,2.63,2.62
40.14,-4.23,-6.85,-4.24,-6.85,6.84,6.78,7.90,2.61,2.61,2.61
40.54,-4.19,-6.79,-4.19,-6.78,6.78,6.71,7.74,2.59,2.59,2.59
40.94,-4.14,-6.72,-4.15,-6.72,6.72,6.65,7.58,2.57,2.57,2.57
41.35,-4.10,-6.65,-4.10,-6.65,6.65,6.58,7.43,2.55,2.55,2.54
41.76,-4.05,-6.60,-4.05,-6.59,6.59,6.52,7.29,2.54,2.54,2.54
42.18,-4.00,-6.53,-4.01,-6.53,6.53,6.46,7.15,2.53,2.52,2.52
42.60,-3.96,-6.47,-3.96,-6.47,6.47,6.39,7.01,2.51,2.51,2.50
43.03,-3.92,-6.42,-3.92,-6.41,6.41,6.33,6.88,2.48,2.48,2.49
43.46,-3.88,-6.35,-3.88,-6.35,6.34,6.26,6.75,2.46,2.46,2.46
43.90,-3.83,-6.28,-3.84,-6.28,6.28,6.20,6.63,2.45,2.44,2.44
44.33,-3.79,-6.22,-3.79,-6.22,6.22,6.14,6.51,2.42,2.42,2.42
44.78,-3.75,-6.16,-3.75,-6.15,6.15,6.07,6.40,2.40,2.40,2.40
45.23,-3.71,-6.09,-3.71,-6.09,6.09,6.01,6.29,2.38,2.38,2.37
45.68,-3.67,-6.03,-3.67,-6.03,6.03,5.95,6.19,2.36,2.36,2.35
46.13,-3.62,-5.97,-3.63,-5.97,5.97,5.88,6.09,2.35,2.35,2.34
46.60,-3.58,-5.92,-3.58,-5.91,5.91,5.82,5.99,2.33,2.33,2.33
47.06,-3.54,-5.86,-3.54,-5.86,5.86,5.76,5.90,2.31,2.31,2.31
47.53,-3.50,-5.80,-3.50,-5.80,5.80,5.70,5.81,2.29,2.29,2.29
48.01,-3.46,-5.75,-3.47,-5.74,5.74,5.64,5.73,2.27,2.27,2.28
48.49,-3.43,-5.69,-3.43,-5.68,5.68,5.57,5.65,2.24,2.25,2.25
48.97,-3.39,-5.62,-3.39,-5.62,5.62,5.51,5.57,2.22,2.22,2.22
49.46,-3.35,-5.55,-3.36,-5.55,5.56,5.45,5.50,2.20,2.20,2.19
49.96,-3.32,-5.49,-3.32,-5.49,5.50,5.39,5.43,2.17,2.18,2.16
50.46,-3.28,-5.44,-3.28,-5.43,5.44,5.33,5.36,2.15,2.15,2.15
50.96,-3.24,-5.38,-3.25,-5.38,5.38,5.27,5.30,2.13,2.13,2.13
51.47,-3.21,-5.32,-3.21,-5.32,5.32,5.20,5.24,2.10,2.11,2.10
51.99,-3.17,-5.26,-3.18,-5.26,5.26,5.14,5.18,2.08,2.08,2.08
52.51,-3.14,-5.21,-3.14,-5.20,5.20,5.08,5.12,2.06,2.06,2.06
53.03,-3.10,-5.15,-3.10,-5.14,5.14,5.02,5.06,2.04,2.04,2.04
53.56,-3.06,-5.08,-3.06,-5.08,5.08,4.96,5.01,2.02,2.02,2.01
54.10,-3.02,-5.02,-3.03,-5.02,5.02,4.90,4.96,2.00,1.99,1.99
54.64,-2.99,-4.96,-2.99,-4.95,4.96,4.84,4.91,1.96,1.97,1.96
55.18,-2.95,-4.90,-2.95,-4.90,4.89,4.78,4.86,1.94,1.94,1.94
55.74,-2.91,-4.83,-2.92,-4.83,4.83,4.71,4.81,1.92,1.91,1.91
56.29,-2.88,-4.78,-2.88,-4.77,4.77,4.65,4.76,1.88,1.89,1.89
56.86,-2.83,-4.70,-2.84,-4.70,4.71,4.59,4.71,1.87,1.87,1.86
57.42,-2.79,-4.64,-2.80,-4.64,4.64,4.53,4.66,1.85,1.85,1.84
58.00,-2.76,-4.59,-2.76,-4.58,4.58,4.47,4.60,1.82,1.82,1.82
58.58,-2.72,-4.52,-2.72,-4.52,4.52,4.41,4.55,1.80,1.80,1.79
59.16,-2.68,-4.46,-2.68,-4.46,4.46,4.35,4.50,1.77,1.77,1.77
59.76,-2.64,-4.40,-2.64,-4.39,4.39,4.28,4.44,1.75,1.75,1.75
60.35,-2.60,-4.33,-2.61,-4.33,4.33,4.22,4.39,1.72,1.72,1.72
60.96,-2.57,-4.28,-2.57,-4.27,4.26,4.16,4.33,1.69,1.69,1.70
61.57,-2.53,-4.20,-2.53,-4.20,4.20,4.10,4.27,1.66,1.66,1.66
62.18,-2.49,-4.13,-2.49,-4.13,4.13,4.04,4.20,1.64,1.64,1.63
62.80,-2.45,-4.06,-2.46,-4.06,4.07,3.97,4.14,1.61,1.61,1.60
63.43,-2.42,-4.00,-2.42,-3.99,4.00,3.91,4.07,1.58,1.58,1.57
64.07,-2.39,-3.94,-2.39,-3.94,3.94,3.85,4.00,1.55,1.55,1.54
64.71,-2.35,-3.88,-2.36,-3.88,3.88,3.79,3.93,1.52,1.52,1.52
65.35,-2.32,-3.83,-2.32,-3.82,3.82,3.73,3.86,1.50,1.50,1.50
66.01,-2.28,-3.77,-2.28,-3.76,3.76,3.66,3.78,1.48,1.48,1.48
66.67,-2.24,-3.70,-2.25,-3.70,3.70,3.60,3.70,1.46,1.46,1.45
67.33,-2.21,-3.65,-2.21,-3.64,3.65,3.54,3.62,1.43,1.43,1.43
68.01,-2.18,-3.59,-2.18,-3.59,3.59,3.47,3.54,1.41,1.41,1.40
68.69,-2.15,-3.54,-2.15,-3.53,3.53,3.41,3.46,1.38,1.38,1.38
69.37,-2.12,-3.48,-2.12,-3.47,3.47,3.35,3.37,1.35,1.35,1.35
70.07,-2.08,-3.41,-2.09,-3.41,3.41,3.28,3.28,1.33,1.33,1.32
70.77,-2.05,-3.36,-2.05,-3.36,3.35,3.22,3.20,1.30,1.30,1.30
71.48,-2.02,-3.30,-2.02,-3.29,3.29,3.15,3.11,1.27,1.27,1.27
72.19,-1.99,-3.24,-1.99,-3.23,3.23,3.09,3.02,1.24,1.24,1.24
72.91,-1.95,-3.16,-1.96,-3.17,3.17,3.03,2.93,1.21,1.21,1.20
73.64,-1.93,-3.11,-1.93,-3.10,3.10,2.96,2.84,1.17,1.17,1.17
74.38,-1.90,-3.05,-1.90,-3.03,3.04,2.90,2.75,1.13,1.14,1.14
75.12,-1.86,-2.96,-1.87,-2.97,2.97,2.83,2.66,1.11,1.10,1.09
75.87,-1.84,-2.91,-1.84,-2.91,2.90,2.77,2.56,1.06,1.06,1.06
76.63,-1.81,-2.85,-1.81,-2.84,2.84,2.70,2.47,1.03,1.03,1.03
77.40,-1.78,-2.78,-1.78,-2.77,2.77,2.63,2.38,0.99,0.99,0.99
78.17,-1.75,-2.69,-1.75,-2.70,2.70,2.57,2.29,0.95,0.95,0.93
78.95,-1.72,-2.64,-1.73,-2.63,2.64,2.50,2.20,0.91,0.91,0.91
79.74,-1.70,-2.58,-1.70,-2.57,2.57,2.43,2.12,0.86,0.87,0.87
80.54,-1.67,-2.50,-1.67,-2.50,2.49,2.37,2.03,0.82,0.82,0.82
81.35,-1.64,-2.43,-1.64,-2.43,2.42,2.30,1.94,0.78,0.78,0.78
82.16,-1.61,-2.35,-1.62,-2.35,2.35,2.23,1.85,0.74,0.74,0.73
82.98,-1.59,-2.29,-1.59,-2.28,2.28,2.16,1.77,0.69,0.69,0.69
83.81,-1.56,-2.20,-1.56,-2.20,2.21,2.10,1.68,0.65,0.64,0.63
84.65,-1.54,-2.14,-1.54,-2.13,2.14,2.03,1.60,0.59,0.60,0.59
85.50,-1.51,-2.07,-1.52,-2.07,2.06,1.96,1.51,0.55,0.55,0.55
86.35,-1.49,-2.00,-1.49,-2.00,1.99,1.89,1.43,0.50,0.50,0.50
87.22,-1.47,-1.93,-1.47,-1.92,1.92,1.82,1.35,0.44,0.45,0.45
88.09,-1.43,-1.83,-1.44,-1.84,1.84,1.75,1.26,0.41,0.40,0.39
88.97,-1.41,-1.77,-1.41,-1.76,1.77,1.68,1.18,0.35,0.35,0.35
89.86,-1.39,-1.70,-1.39,-1.69,1.69,1.61,1.10,0.30,0.30,0.30
90.76,-1.36,-1.61,-1.37,-1.61,1.61,1.54,1.02,0.25,0.25,0.24
91.66,-1.34,-1.54,-1.34,-1.54,1.54,1.47,0.94,0.19,0.19,0.19
92.58,-1.32,-1.46,-1.32,-1.46,1.46,1.40,0.87,0.14,0.14,0.13
93.51,-1.29,-1.39,-1.29,-1.39,1.38,1.33,0.79,0.09,0.09,0.09
94.44,-1.26,-1.31,-1.27,-1.30,1.30,1.26,0.71,0.04,0.04,0.04
95.39,-1.24,-1.23,-1.24,-1.23,1.22,1.19,0.64,-0.02,-0.02,-0.02
96.34,-1.22,-1.14,-1.22,-1.14,1.14,1.12,0.56,-0.08,-0.08,-0.09
97.30,-1.20,-1.07,-1.20,-1.06,1.06,1.05,0.49,-0.14,-0.14,-0.14
98.28,-1.17,-0.98,-1.18,-0.98,0.98,0.98,0.41,-0.20,-0.20,-0.20
99.26,-1.15,-0.89,-1.15,-0.89,0.89,0.90,0.34,-0.26,-0.26,-0.27
100.25,-1.12,-0.81,-1.13,-0.81,0.81,0.83,0.27,-0.32,-0.32,-0.32
101.25,-1.10,-0.73,-1.10,-0.72,0.72,0.76,0.20,-0.38,-0.38,-0.38
102.27,-1.08,-0.64,-1.08,-0.64,0.64,0.69,0.12,-0.44,-0.44,-0.45
103.29,-1.06,-0.55,-1.06,-0.55,0.56,0.61,0.06,-0.51,-0.51,-0.52
104.32,-1.04,-0.48,-1.04,-0.47,0.47,0.54,-0.01,-0.57,-0.57,-0.57
105.37,-1.02,-0.40,-1.03,-0.40,0.39,0.47,-0.08,-0.63,-0.64,-0.63
106.42,-1.01,-0.32,-1.01,-0.31,0.31,0.40,-0.15,-0.70,-0.70,-0.70
107.48,-0.99,-0.23,-0.99,-0.23,0.23,0.32,-0.21,-0.77,-0.77,-0.77
108.56,-0.97,-0.14,-0.97,-0.14,0.14,0.25,-0.28,-0.83,-0.83,-0.84
109.64,-0.95,-0.06,-0.95,-0.06,0.06,0.18,-0.34,-0.89,-0.89,-0.90
110.74,-0.93,0.02,-0.94,0.02,-0.03,0.11,-0.40,-0.96,-0.96,-0.96
111.85,-0.92,0.10,-0.92,0.11,-0.11,0.03,-0.46,-1.03,-1.03,-1.03
112.97,-0.91,0.19,-0.91,0.19,-0.19,-0.04,-0.52,-1.11,-1.10,-1.11
114.10,-0.89,0.27,-0.89,0.28,-0.28,-0.11,-0.57,-1.17,-1.17,-1.17
115.24,-0.87,0.36,-0.88,0.36,-0.36,-0.18,-0.63,-1.23,-1.24,-1.24
116.39,-0.86,0.44,-0.86,0.44,-0.44,-0.26,-0.68,-1.30,-1.30,-1.31
117.55,-0.85,0.52,-0.85,0.52,-0.52,-0.33,-0.73,-1.37,-1.37,-1.38
118.73,-0.84,0.59,-0.84,0.59,-0.59,-0.40,-0.78,-1.44,-1.44,-1.44
119.92,-0.83,0.66,-0.83,0.67,-0.67,-0.47,-0.82,-1.50,-1.50,-1.50
121.12,-0.82,0.73,-0.82,0.74,-0.74,-0.54,-0.86,-1.56,-1.56,-1.56
122.33,-0.81,0.81,-0.81,0.81,-0.81,-0.61,-0.90,-1.62,-1.62,-1.63
123.55,-0.80,0.87,-0.80,0.88,-0.87,-0.68,-0.94,-1.68,-1.68,-1.68
124.79,-0.79,0.94,-0.79,0.94,-0.94,-0.75,-0.98,-1.74,-1.74,-1.74
126.03,-0.78,1.00,-0.79,1.00,-1.01,-0.82,-1.01,-1.79,-1.80,-1.79
127.29,-0.78,1.06,-0.78,1.07,-1.08,-0.88,-1.04,-1.86,-1.85,-1.85
128.57,-0.77,1.14,-0.77,1.14,-1.14,-0.95,-1.07,-1.91,-1.91,-1.92
129.85,-0.75,1.21,-0.76,1.21,-1.20,-1.02,-1.09,-1.96,-1.97,-1.97
131.15,-0.75,1.26,-0.75,1.27,-1.27,-1.08,-1.12,-2.02,-2.02,-2.02
132.46,-0.74,1.33,-0.74,1.33,-1.33,-1.15,-1.14,-2.07,-2.07,-2.08
133.79,-0.73,1.38,-0.74,1.39,-1.38,-1.21,-1.16,-2.12,-2.12,-2.12
135.12,-0.73,1.44,-0.73,1.44,-1.44,-1.27,-1.18,-2.17,-2.17,-2.18
136.48,-0.72,1.48,-0.72,1.49,-1.49,-1.34,-1.19,-2.21,-2.21,-2.21
137.84,-0.71,1.53,-0.71,1.54,-1.54,-1.40,-1.21,-2.25,-2.25,-2.25
139.22,-0.70,1.59,-0.71,1.59,-1.58,-1.46,-1.22,-2.29,-2.29,-2.30
140.61,-0.70,1.63,-0.70,1.63,-1.63,-1.51,-1.23,-2.33,-2.33,-2.34
142.02,-0.69,1.66,-0.70,1.67,-1.67,-1.57,-1.25,-2.36,-2.36,-2.36
143.44,-0.69,1.69,-0.69,1.70,-1.71,-1.63,-1.26,-2.40,-2.39,-2.39
144.87,-0.68,1.74,-0.68,1.74,-1.74,-1.68,-1.27,-2.42,-2.42,-2.43
146.32,-0.67,1.78,-0.68,1.78,-1.78,-1.73,-1.28,-2.45,-2.45,-2.46
147.78,-0.67,1.80,-0.67,1.81,-1.81,-1.79,-1.29,-2.48,-2.48,-2.48
149.26,-0.67,1.83,-0.67,1.84,-1.84,-1.84,-1.30,-2.51,-2.51,-2.51
150.75,-0.67,1.87,-0.67,1.87,-1.87,-1.88,-1.31,-2.54,-2.54,-2.55
152.26,-0.67,1.89,-0.67,1.90,-1.89,-1.93,-1.32,-2.57,-2.57,-2.57
153.78,-0.67,1.92,-0.67,1.92,-1.92,-1.97,-1.33,-2.59,-2.59,-2.60
155.32,-0.67,1.94,-0.68,1.94,-1.94,-2.02,-1.34,-2.62,-2.62,-2.62
156.88,-0.68,1.96,-0.68,1.96,-1.97,-2.06,-1.35,-2.65,-2.65,-2.65
158.44,-0.69,1.98,-0.69,1.99,-1.99,-2.10,-1.36,-2.68,-2.68,-2.68
160.03,-0.69,2.01,-0.70,2.01,-2.01,-2.13,-1.37,-2.71,-2.71,-2.71
161.63,-0.70,2.03,-0.70,2.04,-2.03,-2.17,-1.39,-2.74,-2.73,-2.74
163.24,-0.70,2.06,-0.71,2.06,-2.06,-2.20,-1.40,-2.76,-2.76,-2.77
164.88,-0.71,2.07,-0.71,2.08,-2.08,-2.23,-1.42,-2.79,-2.79,-2.79
166.53,-0.71,2.09,-0.72,2.10,-2.10,-2.26,-1.44,-2.81,-2.81,-2.81
168.19,-0.72,2.12,-0.72,2.12,-2.12,-2.29,-1.45,-2.84,-2.84,-2.85
169.87,-0.73,2.14,-0.73,2.14,-2.14,-2.32,-1.47,-2.88,-2.87,-2.88
171.57,-0.73,2.17,-0.74,2.16,-2.17,-2.34,-1.49,-2.90,-2.91,-2.91
173.29,-0.75,2.17,-0.75,2.19,-2.19,-2.36,-1.52,-2.94,-2.94,-2.93
175.02,-0.75,2.21,-0.75,2.21,-2.22,-2.38,-1.54,-2.97,-2.97,-2.97
176.77,-0.76,2.24,-0.76,2.24,-2.24,-2.40,-1.56,-3.00,-3.00,-3.01
178.54,-0.77,2.27,-0.77,2.27,-2.26,-2.41,-1.59,-3.04,-3.04,-3.05
180.32,-0.78,2.29,-0.79,2.29,-2.29,-2.43,-1.62,-3.07,-3.08,-3.08
182.13,-0.80,2.30,-0.80,2.31,-2.31,-2.44,-1.65,-3.11,-3.11,-3.11
183.95,-0.82,2.32,-0.82,2.33,-2.33,-2.45,-1.68,-3.15,-3.15,-3.15
185.79,-0.83,2.35,-0.84,2.35,-2.35,-2.45,-1.71,-3.18,-3.19,-3.19
187.65,-0.85,2.37,-0.85,2.37,-2.36,-2.46,-1.74,-3.22,-3.22,-3.23
189.52,-0.87,2.38,-0.87,2.38,-2.38,-2.46,-1.77,-3.25,-3.25,-3.26
191.42,-0.88,2.39,-0.89,2.39,-2.39,-2.46,-1.81,-3.27,-3.28,-3.28
193.33,-0.91,2.38,-0.91,2.39,-2.40,-2.46,-1.84,-3.31,-3.31,-3.30
195.27,-0.93,2.39,-0.93,2.40,-2.41,-2.46,-1.88,-3.34,-3.34,-3.33
197.22,-0.95,2.40,-0.95,2.41,-2.41,-2.46,-1.92,-3.36,-3.36,-3.36
199.19,-0.97,2.43,-0.97,2.42,-2.41,-2.45,-1.96,-3.39,-3.39,-3.41
201.18,-0.99,2.42,-0.99,2.43,-2.42,-2.45,-2.00,-3.41,-3.41,-3.42
203.19,-1.01,2.42,-1.02,2.42,-2.42,-2.44,-2.04,-3.43,-3.44,-3.44
205.23,-1.04,2.41,-1.04,2.42,-2.42,-2.43,-2.08,-3.47,-3.46,-3.46
207.28,-1.05,2.41,-1.05,2.42,-2.42,-2.42,-2.12,-3.48,-3.48,-3.47
209.35,-1.07,2.42,-1.07,2.42,-2.42,-2.40,-2.16,-3.50,-3.50,-3.50
211.44,-1.08,2.43,-1.09,2.43,-2.42,-2.39,-2.20,-3.51,-3.51,-3.52
213.56,-1.11,2.42,-1.11,2.42,-2.42,-2.38,-2.23,-3.53,-3.53,-3.54
215.69,-1.12,2.41,-1.13,2.41,-2.42,-2.36,-2.27,-3.54,-3.55,-3.54
217.85,-1.14,2.40,-1.14,2.42,-2.42,-2.34,-2.31,-3.56,-3.56,-3.55
220.03,-1.15,2.42,-1.15,2.42,-2.42,-2.32,-2.35,-3.57,-3.57,-3.58
222.23,-1.15,2.43,-1.16,2.42,-2.41,-2.30,-2.38,-3.57,-3.58,-3.59
224.45,-1.17,2.40,-1.17,2.42,-2.41,-2.28,-2.41,-3.58,-3.58,-3.58
226.70,-1.18,2.40,-1.18,2.41,-2.40,-2.26,-2.44,-3.59,-3.58,-3.59
228.96,-1.18,2.40,-1.19,2.39,-2.40,-2.24,-2.47,-3.58,-3.59,-3.59
231.25,-1.19,2.38,-1.19,2.38,-2.39,-2.22,-2.50,-3.58,-3.58,-3.58
233.57,-1.20,2.36,-1.20,2.37,-2.38,-2.19,-2.52,-3.58,-3.57,-3.57
235.90,-1.20,2.36,-1.20,2.36,-2.36,-2.17,-2.54,-3.57,-3.57,-3.57
238.26,-1.20,2.36,-1.21,2.35,-2.35,-2.15,-2.56,-3.55,-3.55,-3.57
240.64,-1.21,2.33,-1.21,2.34,-2.33,-2.12,-2.57,-3.55,-3.54,-3.55
243.05,-1.21,2.31,-1.22,2.31,-2.31,-2.09,-2.58,-3.53,-3.53,-3.53
245.48,-1.22,2.28,-1.22,2.29,-2.30,-2.07,-2.59,-3.52,-3.51,-3.51
247.93,-1.22,2.27,-1.22,2.28,-2.27,-2.04,-2.59,-3.50,-3.49,-3.50
250.41,-1.21,2.27,-1.22,2.25,-2.25,-2.02,-2.59,-3.46,-3.47,-3.49
252.92,-1.22,2.22,-1.22,2.23,-2.23,-1.99,-2.58,-3.45,-3.45,-3.45
255.45,-1.23,2.19,-1.23,2.20,-2.20,-1.96,-2.57,-3.44,-3.43,-3.43
258.00,-1.23,2.17,-1.23,2.17,-2.18,-1.93,-2.56,-3.41,-3.41,-3.41
260.58,-1.23,2.15,-1.23,2.15,-2.16,-1.90,-2.54,-3.39,-3.39,-3.39
263.19,-1.23,2.13,-1.23,2.13,-2.13,-1.88,-2.52,-3.36,-3.36,-3.37
265.82,-1.23,2.11,-1.24,2.11,-2.10,-1.85,-2.49,-3.33,-3.34,-3.35
268.48,-1.24,2.07,-1.24,2.08,-2.07,-1.82,-2.47,-3.32,-3.31,-3.32
271.16,-1.24,2.04,-1.25,2.04,-2.05,-1.79,-2.43,-3.29,-3.29,-3.29
273.87,-1.25,2.01,-1.25,2.01,-2.02,-1.76,-2.40,-3.27,-3.27,-3.27
276.61,-1.25,1.98,-1.25,1.99,-1.99,-1.74,-2.36,-3.24,-3.24,-3.24
279.38,-1.25,1.96,-1.26,1.96,-1.96,-1.71,-2.32,-3.21,-3.22,-3.22
282.17,-1.26,1.93,-1.26,1.93,-1.93,-1.68,-2.28,-3.19,-3.19,-3.20
284.99,-1.27,1.89,-1.27,1.90,-1.90,-1.65,-2.24,-3.17,-3.17,-3.17
287.84,-1.28,1.86,-1.28,1.86,-1.86,-1.62,-2.19,-3.15,-3.14,-3.15
290.72,-1.28,1.82,-1.28,1.83,-1.83,-1.59,-2.15,-3.12,-3.12,-3.11
293.63,-1.28,1.80,-1.29,1.80,-1.80,-1.57,-2.10,-3.08,-3.08,-3.09
296.57,-1.29,1.76,-1.29,1.76,-1.76,-1.54,-2.05,-3.05,-3.05,-3.06
299.53,-1.30,1.72,-1.30,1.73,-1.72,-1.51,-2.00,-3.03,-3.03,-3.03
302.53,-1.31,1.69,-1.31,1.68,-1.68,-1.48,-1.95,-3.00,-3.00,-3.01
305.55,-1.32,1.63,-1.32,1.64,-1.64,-1.46,-1.91,-2.97,-2.96,-2.96
308.61,-1.32,1.60,-1.33,1.60,-1.60,-1.43,-1.86,-2.92,-2.93,-2.93
311.69,-1.33,1.55,-1.34,1.55,-1.56,-1.40,-1.81,-2.89,-2.89,-2.89
314.81,-1.34,1.51,-1.34,1.51,-1.51,-1.38,-1.76,-2.86,-2.86,-2.86
317.96,-1.36,1.46,-1.36,1.47,-1.47,-1.35,-1.71,-2.83,-2.83,-2.83
321.14,-1.36,1.43,-1.37,1.43,-1.43,-1.33,-1.66,-2.79,-2.80,-2.80
324.35,-1.38,1.39,-1.38,1.39,-1.39,-1.30,-1.61,-2.77,-2.77,-2.78
327.59,-1.39,1.34,-1.39,1.35,-1.35,-1.27,-1.57,-2.74,-2.74,-2.74
330.87,-1.40,1.30,-1.40,1.31,-1.31,-1.25,-1.52,-2.71,-2.71,-2.71
334.18,-1.41,1.27,-1.41,1.27,-1.27,-1.22,-1.47,-2.69,-2.68,-2.69
337.52,-1.41,1.25,-1.42,1.24,-1.24,-1.20,-1.43,-2.65,-2.66,-2.67
340.90,-1.43,1.20,-1.43,1.21,-1.20,-1.18,-1.38,-2.64,-2.63,-2.64
344.30,-1.44,1.17,-1.44,1.17,-1.17,-1.15,-1.34,-2.61,-2.61,-2.62
347.75,-1.46,1.12,-1.46,1.13,-1.14,-1.13,-1.30,-2.60,-2.59,-2.59
351.23,-1.46,1.10,-1.47,1.10,-1.10,-1.10,-1.26,-2.57,-2.57,-2.57
354.74,-1.48,1.07,-1.48,1.07,-1.08,-1.08,-1.22,-2.56,-2.55,-2.56
358.28,-1.48,1.05,-1.49,1.05,-1.05,-1.06,-1.18,-2.53,-2.54,-2.54
361.87,-1.49,1.02,-1.49,1.02,-1.03,-1.04,-1.14,-2.52,-2.52,-2.52
365.49,-1.49,0.99,-1.49,1.00,-1.00,-1.01,-1.11,-2.50,-2.50,-2.49
369.14,-1.49,0.98,-1.49,0.98,-0.98,-0.99,-1.07,-2.48,-2.48,-2.48
372.83,-1.49,0.97,-1.49,0.97,-0.96,-0.97,-1.03,-2.46,-2.46,-2.47
376.56,-1.49,0.95,-1.49,0.95,-0.95,-0.95,-1.00,-2.44,-2.44,-2.45
380.33,-1.49,0.92,-1.49,0.93,-0.93,-0.93,-0.97,-2.42,-2.42,-2.42
384.13,-1.48,0.91,-1.49,0.91,-0.91,-0.91,-0.93,-2.39,-2.40,-2.40
387.97,-1.48,0.89,-1.48,0.89,-0.90,-0.89,-0.90,-2.38,-2.38,-2.38
391.85,-1.47,0.88,-1.48,0.88,-0.88,-0.87,-0.87,-2.35,-2.36,-2.36
395.77,-1.47,0.85,-1.47,0.86,-0.87,-0.85,-0.84,-2.34,-2.34,-2.33
399.73,-1.45,0.85,-1.46,0.86,-0.86,-0.83,-0.81,-2.31,-2.31,-2.31
403.72,-1.44,0.85,-1.45,0.85,-0.85,-0.81,-0.79,-2.29,-2.29,-2.30
407.76,-1.43,0.84,-1.43,0.84,-0.84,-0.79,-0.76,-2.27,-2.27,-2.28
411.84,-1.42,0.82,-1.42,0.83,-0.83,-0.77,-0.73,-2.25,-2.25,-2.25
415.96,-1.40,0.82,-1.40,0.82,-0.82,-0.75,-0.71,-2.23,-2.23,-2.23
420.12,-1.38,0.82,-1.39,0.81,-0.82,-0.73,-0.68,-2.20,-2.20,-2.21
424.32,-1.37,0.80,-1.37,0.81,-0.81,-0.72,-0.66,-2.19,-2.18,-2.18
428.56,-1.35,0.80,-1.35,0.80,-0.81,-0.70,-0.64,-2.16,-2.16,-2.16
432.85,-1.33,0.80,-1.33,0.80,-0.81,-0.68,-0.62,-2.14,-2.14,-2.14
437.18,-1.30,0.80,-1.30,0.80,-0.80,-0.66,-0.59,-2.11,-2.11,-2.11
441.55,-1.27,0.80,-1.28,0.80,-0.80,-0.65,-0.57,-2.07,-2.08,-2.08
445.96,-1.26,0.79,-1.26,0.80,-0.79,-0.63,-0.55,-2.06,-2.05,-2.06
450.42,-1.24,0.80,-1.25,0.79,-0.78,-0.61,-0.53,-2.03,-2.03,-2.05
454.93,-1.24,0.76,-1.24,0.78,-0.77,-0.60,-0.52,-2.01,-2.01,-2.01
