frequency,raw,error,smoothed,error_smoothed,equalization,parametric_eq,fixed_band_eq,equalized_raw,equalized_smoothed,target
20.00,0.68,-3.13,0.68,-3.15,3.15,2.34,0.66,3.83,3.83,3.81
20.20,0.73,-3.12,0.72,-3.14,3.14,2.39,0.68,3.87,3.86,3.85
20.40,0.77,-3.11,0.77,-3.12,3.12,2.45,0.69,3.89,3.89,3.88
20.61,0.82,-3.09,0.82,-3.09,3.09,2.49,0.71,3.91,3.91,3.91
20.81,0.87,-3.08,0.87,-3.07,3.07,2.53,0.73,3.94,3.94,3.95
21.02,0.91,-3.08,0.92,-3.04,3.04,2.56,0.75,3.95,3.96,3.99
21.23,0.96,-3.04,0.97,-3.02,3.02,2.59,0.77,3.98,3.98,4.00
21.44,1.01,-3.01,1.01,-2.99,2.99,2.61,0.79,4.00,4.00,4.02
21.66,1.06,-2.98,1.06,-2.96,2.96,2.62,0.81,4.02,4.02,4.04
21.87,1.11,-2.94,1.11,-2.92,2.92,2.62,0.83,4.03,4.04,4.05
22.09,1.16,-2.90,1.16,-2.89,2.89,2.61,0.85,4.05,4.05,4.06
22.31,1.21,-2.85,1.21,-2.85,2.85,2.60,0.88,4.06,4.07,4.06
22.54,1.26,-2.81,1.27,-2.81,2.81,2.58,0.90,4.07,4.08,4.07
22.76,1.32,-2.76,1.32,-2.77,2.77,2.56,0.92,4.09,4.09,4.08
22.99,1.37,-2.71,1.37,-2.72,2.72,2.52,0.95,4.09,4.09,4.08
23.22,1.42,-2.67,1.43,-2.67,2.67,2.49,0.97,4.09,4.10,4.09
23.45,1.48,-2.62,1.48,-2.63,2.63,2.45,1.00,4.11,4.10,4.10
23.69,1.53,-2.58,1.53,-2.58,2.58,2.40,1.03,4.11,4.11,4.11
23.92,1.58,-2.54,1.58,-2.54,2.54,2.35,1.05,4.12,4.11,4.12
24.16,1.63,-2.50,1.63,-2.49,2.49,2.30,1.08,4.12,4.12,4.13
24.40,1.68,-2.46,1.67,-2.45,2.45,2.25,1.11,4.13,4.12,4.14
24.65,1.72,-2.41,1.71,-2.41,2.41,2.19,1.13,4.13,4.12,4.13
24.89,1.77,-2.36,1.75,-2.37,2.37,2.14,1.16,4.15,4.13,4.13
25.14,1.81,-2.32,1.79,-2.34,2.34,2.08,1.19,4.15,4.13,4.13
25.39,1.84,-2.29,1.83,-2.30,2.30,2.03,1.22,4.14,4.13,4.13
25.65,1.87,-2.26,1.87,-2.25,2.25,1.97,1.25,4.12,4.13,4.13
25.91,1.90,-2.21,1.92,-2.21,2.21,1.92,1.28,4.11,4.13,4.11
26.16,1.93,-2.19,1.96,-2.17,2.17,1.87,1.31,4.10,4.12,4.12
26.43,1.97,-2.15,1.99,-2.13,2.13,1.82,1.34,4.10,4.12,4.12
26.69,2.01,-2.11,2.03,-2.09,2.09,1.77,1.37,4.10,4.12,4.12
26.96,2.04,-2.08,2.06,-2.05,2.05,1.72,1.40,4.09,4.11,4.12
27.23,2.10,-2.02,2.10,-2.01,2.01,1.68,1.42,4.11,4.11,4.12
27.50,2.16,-1.96,2.14,-1.97,1.97,1.63,1.45,4.13,4.11,4.12
27.77,2.21,-1.90,2.18,-1.93,1.93,1.59,1.48,4.14,4.11,4.11
28.05,2.26,-1.85,2.21,-1.89,1.89,1.56,1.51,4.15,4.11,4.11
28.33,2.27,-1.82,2.25,-1.86,1.86,1.52,1.53,4.13,4.10,4.09
28.62,2.27,-1.83,2.28,-1.82,1.82,1.48,1.56,4.09,4.10,4.10
28.90,2.28,-1.82,2.32,-1.78,1.78,1.45,1.59,4.06,4.10,4.10
29.19,2.32,-1.77,2.35,-1.74,1.74,1.42,1.61,4.06,4.10,4.09
29.48,2.38,-1.72,2.39,-1.70,1.70,1.39,1.63,4.08,4.09,4.10
29.78,2.44,-1.66,2.43,-1.66,1.66,1.37,1.65,4.10,4.09,4.10
30.08,2.49,-1.61,2.47,-1.62,1.62,1.34,1.68,4.11,4.08,4.10
30.38,2.50,-1.58,2.50,-1.58,1.58,1.32,1.70,4.08,4.08,4.08
30.68,2.50,-1.58,2.53,-1.54,1.54,1.30,1.71,4.04,4.08,4.08
30.99,2.51,-1.56,2.56,-1.51,1.51,1.28,1.73,4.02,4.07,4.07
31.30,2.58,-1.49,2.59,-1.48,1.48,1.26,1.75,4.06,4.07,4.07
31.61,2.65,-1.42,2.62,-1.44,1.44,1.25,1.76,4.09,4.06,4.07
31.93,2.72,-1.33,2.65,-1.40,1.40,1.23,1.78,4.12,4.06,4.05
32.24,2.74,-1.30,2.68,-1.37,1.37,1.22,1.79,4.11,4.05,4.04
32.57,2.74,-1.30,2.71,-1.33,1.33,1.21,1.80,4.07,4.05,4.04
32.89,2.74,-1.30,2.74,-1.30,1.30,1.20,1.81,4.04,4.04,4.04
33.22,2.74,-1.30,2.77,-1.27,1.27,1.19,1.82,4.01,4.03,4.04
33.55,2.74,-1.29,2.80,-1.23,1.23,1.18,1.83,3.97,4.03,4.03
33.89,2.74,-1.29,2.82,-1.20,1.20,1.17,1.84,3.94,4.03,4.03
34.23,2.79,-1.24,2.85,-1.17,1.17,1.17,1.84,3.96,4.02,4.03
34.57,2.87,-1.15,2.87,-1.14,1.14,1.17,1.85,4.02,4.02,4.02
34.92,2.94,-1.07,2.89,-1.12,1.12,1.17,1.86,4.06,4.01,4.01
35.27,2.96,-1.05,2.90,-1.10,1.10,1.16,1.86,4.06,4.01,4.01
35.62,2.96,-1.04,2.92,-1.08,1.08,1.16,1.87,4.04,4.00,4.00
35.97,2.96,-1.03,2.93,-1.06,1.06,1.17,1.88,4.02,3.99,3.99
36.33,2.96,-1.03,2.95,-1.04,1.04,1.17,1.88,4.00,3.99,3.99
36.70,2.96,-1.03,2.96,-1.02,1.02,1.17,1.89,3.98,3.98,3.99
37.06,2.96,-1.01,2.97,-1.00,1.00,1.18,1.90,3.96,3.97,3.97
37.43,2.96,-1.01,2.98,-0.99,0.99,1.18,1.91,3.95,3.97,3.97
37.81,2.96,-1.00,2.98,-0.98,0.98,1.19,1.92,3.94,3.96,3.96
38.19,2.96,-0.99,2.97,-0.98,0.98,1.20,1.93,3.94,3.95,3.95
38.57,2.96,-0.99,2.97,-0.98,0.98,1.21,1.94,3.94,3.95,3.95
38.95,2.96,-0.98,2.96,-0.98,0.98,1.22,1.95,3.94,3.94,3.94
39.34,2.96,-0.97,2.96,-0.97,0.97,1.23,1.97,3.93,3.93,3.93
39.74,2.96,-0.95,2.96,-0.97,0.97,1.24,1.98,3.93,3.93,3.91
40.14,2.96,-0.96,2.96,-0.96,0.96,1.26,2.00,3.92,3.92,3.92
40.54,2.96,-0.95,2.96,-0.95,0.95,1.27,2.02,3.91,3.91,3.91
40.94,2.96,-0.95,2.97,-0.93,0.93,1.29,2.04,3.89,3.90,3.91
41.35,2.96,-0.93,2.98,-0.91,0.91,1.30,2.06,3.87,3.88,3.89
41.76,2.96,-0.91,2.98,-0.89,0.89,1.32,2.08,3.85,3.86,3.87
42.18,2.96,-0.90,2.97,-0.87,0.87,1.34,2.10,3.83,3.84,3.86
42.60,2.96,-0.87,2.97,-0.85,0.85,1.36,2.13,3.81,3.82,3.83
43.03,2.96,-0.86,2.97,-0.82,0.82,1.38,2.16,3.78,3.79,3.82
43.46,2.96,-0.83,2.96,-0.81,0.81,1.41,2.19,3.77,3.77,3.79
43.90,2.96,-0.78,2.95,-0.80,0.80,1.43,2.22,3.76,3.74,3.74
44.33,2.96,-0.75,2.93,-0.78,0.78,1.45,2.25,3.74,3.72,3.71
44.78,2.96,-0.72,2.91,-0.78,0.78,1.48,2.29,3.74,3.69,3.68
45.23,2.91,-0.74,2.89,-0.78,0.78,1.51,2.32,3.69,3.66,3.65
45.68,2.81,-0.81,2.85,-0.79,0.79,1.54,2.36,3.60,3.64,3.62
46.13,2.74,-0.86,2.80,-0.81,0.81,1.57,2.40,3.55,3.62,3.60
46.60,2.74,-0.85,2.74,-0.85,0.85,1.60,2.44,3.59,3.60,3.59
47.06,2.73,-0.84,2.67,-0.91,0.91,1.63,2.49,3.64,3.58,3.57
47.53,2.62,-0.95,2.59,-0.98,0.98,1.66,2.53,3.60,3.57,3.57
48.01,2.51,-1.06,2.50,-1.06,1.06,1.70,2.58,3.57,3.56,3.57
48.49,2.45,-1.10,2.39,-1.16,1.16,1.74,2.63,3.61,3.55,3.55
48.97,2.38,-1.16,2.28,-1.27,1.27,1.77,2.68,3.65,3.55,3.54
49.46,2.23,-1.30,2.17,-1.38,1.38,1.81,2.73,3.61,3.55,3.53
49.96,2.06,-1.47,2.06,-1.48,1.48,1.85,2.78,3.55,3.55,3.53
50.46,1.93,-1.61,1.97,-1.57,1.57,1.90,2.83,3.51,3.54,3.54
50.96,1.79,-1.76,1.88,-1.65,1.65,1.94,2.88,3.44,3.53,3.55
51.47,1.69,-1.85,1.79,-1.73,1.73,1.99,2.93,3.42,3.52,3.54
51.99,1.60,-1.92,1.69,-1.81,1.81,2.03,2.99,3.41,3.51,3.52
52.51,1.48,-2.03,1.60,-1.89,1.89,2.08,3.04,3.37,3.49,3.51
53.03,1.37,-2.11,1.51,-1.95,1.95,2.13,3.09,3.32,3.46,3.48
53.56,1.37,-2.08,1.42,-2.02,2.02,2.19,3.14,3.39,3.43,3.45
54.10,1.37,-2.04,1.31,-2.08,2.08,2.24,3.20,3.45,3.40,3.41
54.64,1.37,-1.99,1.21,-2.15,2.15,2.30,3.25,3.52,3.36,3.36
55.18,1.33,-1.98,1.11,-2.21,2.21,2.35,3.29,3.53,3.31,3.31
55.74,1.20,-2.06,1.01,-2.25,2.25,2.41,3.34,3.46,3.26,3.26
56.29,1.00,-2.21,0.91,-2.29,2.29,2.47,3.39,3.29,3.21,3.21
56.86,0.75,-2.40,0.83,-2.32,2.32,2.54,3.43,3.07,3.15,3.15
57.42,0.58,-2.50,0.73,-2.36,2.36,2.60,3.47,2.93,3.09,3.08
58.00,0.44,-2.58,0.62,-2.41,2.41,2.67,3.50,2.85,3.03,3.02
58.58,0.32,-2.64,0.49,-2.47,2.47,2.74,3.53,2.79,2.97,2.96
59.16,0.19,-2.72,0.34,-2.56,2.56,2.81,3.56,2.75,2.90,2.91
59.76,0.06,-2.79,0.17,-2.67,2.67,2.88,3.58,2.73,2.84,2.85
60.35,0.01,-2.77,-0.03,-2.81,2.81,2.95,3.60,2.82,2.78,2.78
60.96,0.00,-2.73,-0.25,-2.97,2.97,3.03,3.62,2.97,2.72,2.73
61.57,-0.13,-2.79,-0.49,-3.16,3.16,3.11,3.63,3.03,2.66,2.66
62.18,-0.33,-2.92,-0.76,-3.36,3.36,3.18,3.63,3.03,2.60,2.59
62.80,-0.67,-3.22,-1.03,-3.58,3.58,3.26,3.64,2.91,2.55,2.55
63.43,-1.10,-3.59,-1.30,-3.80,3.80,3.35,3.63,2.70,2.50,2.49
64.07,-1.53,-3.98,-1.56,-4.01,4.01,3.43,3.62,2.48,2.45,2.45
64.71,-1.77,-4.17,-1.78,-4.18,4.18,3.52,3.61,2.41,2.40,2.40
65.35,-2.01,-4.36,-1.94,-4.31,4.31,3.60,3.59,2.29,2.36,2.35
66.01,-2.27,-4.59,-2.03,-4.36,4.36,3.69,3.57,2.09,2.32,2.32
66.67,-2.54,-4.82,-2.04,-4.32,4.32,3.78,3.54,1.78,2.28,2.28
67.33,-2.64,-4.89,-1.96,-4.21,4.21,3.87,3.51,1.57,2.25,2.25
68.01,-2.59,-4.81,-1.80,-4.01,4.01,3.96,3.47,1.42,2.21,2.22
68.69,-2.18,-4.37,-1.56,-3.75,3.75,4.05,3.44,1.56,2.18,2.19
69.37,-1.71,-3.85,-1.28,-3.43,3.43,4.13,3.40,1.72,2.15,2.15
70.07,-1.18,-3.30,-0.96,-3.09,3.09,4.22,3.35,1.91,2.12,2.12
70.77,-0.58,-2.69,-0.65,-2.75,2.75,4.31,3.31,2.16,2.09,2.11
71.48,-0.03,-2.10,-0.37,-2.44,2.44,4.40,3.26,2.40,2.06,2.07
72.19,0.44,-1.61,-0.15,-2.19,2.19,4.49,3.21,2.63,2.03,2.05
72.91,0.79,-1.22,0.00,-2.00,2.00,4.57,3.16,2.79,2.00,2.01
73.64,0.86,-1.12,0.07,-1.90,1.90,4.65,3.11,2.76,1.97,1.98
74.38,0.67,-1.28,0.03,-1.92,1.92,4.73,3.06,2.59,1.94,1.95
75.12,0.25,-1.67,-0.14,-2.06,2.06,4.80,3.01,2.31,1.91,1.92
75.87,-0.26,-2.15,-0.44,-2.33,2.33,4.87,2.96,2.06,1.89,1.89
76.63,-0.84,-2.70,-0.86,-2.72,2.72,4.94,2.91,1.88,1.86,1.86
77.40,-1.44,-3.27,-1.37,-3.21,3.21,5.00,2.86,1.77,1.83,1.83
78.17,-2.04,-3.84,-1.96,-3.77,3.77,5.06,2.81,1.73,1.81,1.80
78.95,-2.69,-4.48,-2.60,-4.38,4.38,5.11,2.76,1.69,1.79,1.79
79.74,-3.31,-5.08,-3.23,-5.00,5.00,5.15,2.71,1.69,1.77,1.77
80.54,-3.91,-5.66,-3.84,-5.60,5.60,5.19,2.67,1.68,1.75,1.75
81.35,-4.52,-6.25,-4.40,-6.14,6.14,5.22,2.62,1.62,1.74,1.73
82.16,-5.11,-6.84,-4.87,-6.61,6.61,5.24,2.58,1.50,1.73,1.73
82.98,-5.50,-7.23,-5.26,-6.99,6.99,5.25,2.54,1.49,1.73,1.73
83.81,-5.82,-7.54,-5.55,-7.27,7.27,5.25,2.50,1.45,1.72,1.72
84.65,-6.06,-7.77,-5.74,-7.46,7.46,5.25,2.46,1.40,1.72,1.71
85.50,-6.15,-7.87,-5.84,-7.56,7.56,5.23,2.42,1.41,1.72,1.72
86.35,-6.11,-7.83,-5.85,-7.57,7.57,5.21,2.39,1.46,1.72,1.72
87.22,-5.96,-7.68,-5.78,-7.50,7.50,5.18,2.36,1.54,1.72,1.72
88.09,-5.62,-7.34,-5.63,-7.36,7.36,5.14,2.32,1.74,1.72,1.72
88.97,-5.36,-7.10,-5.43,-7.15,7.15,5.09,2.30,1.79,1.72,1.74
89.86,-5.10,-6.84,-5.16,-6.88,6.88,5.03,2.27,1.78,1.72,1.74
90.76,-4.74,-6.46,-4.83,-6.55,6.55,4.97,2.24,1.81,1.72,1.72
91.66,-4.35,-6.08,-4.48,-6.20,6.20,4.89,2.22,1.85,1.71,1.73
92.58,-3.97,-5.67,-4.12,-5.83,5.83,4.81,2.20,1.86,1.71,1.70
93.51,-3.62,-5.33,-3.76,-5.46,5.46,4.73,2.18,1.83,1.70,1.71
94.44,-3.34,-5.03,-3.40,-5.09,5.09,4.63,2.16,1.75,1.68,1.69
95.39,-3.07,-4.75,-3.06,-4.73,4.73,4.54,2.14,1.66,1.67,1.68
96.34,-2.79,-4.43,-2.75,-4.40,4.40,4.43,2.13,1.61,1.65,1.64
97.30,-2.48,-4.10,-2.46,-4.09,4.09,4.32,2.11,1.61,1.63,1.62
98.28,-2.15,-3.75,-2.20,-3.80,3.80,4.21,2.10,1.65,1.60,1.60
99.26,-1.81,-3.38,-1.95,-3.52,3.52,4.10,2.09,1.71,1.57,1.57
100.25,-1.59,-3.13,-1.72,-3.26,3.26,3.98,2.08,1.67,1.54,1.54
101.25,-1.52,-3.03,-1.53,-3.03,3.03,3.86,2.07,1.51,1.50,1.51
102.27,-1.34,-2.81,-1.35,-2.82,2.82,3.73,2.06,1.48,1.46,1.47
103.29,-1.22,-2.64,-1.20,-2.62,2.62,3.61,2.06,1.40,1.42,1.42
104.32,-1.09,-2.47,-1.08,-2.45,2.45,3.48,2.05,1.36,1.37,1.38
105.37,-0.97,-2.30,-0.98,-2.29,2.29,3.35,2.04,1.32,1.32,1.33
106.42,-0.91,-2.19,-0.89,-2.15,2.15,3.22,2.03,1.24,1.26,1.28
107.48,-0.81,-2.02,-0.82,-2.02,2.02,3.10,2.03,1.21,1.20,1.21
108.56,-0.69,-1.82,-0.78,-1.91,1.91,2.97,2.02,1.22,1.13,1.13
109.64,-0.68,-1.74,-0.74,-1.80,1.80,2.84,2.01,1.12,1.06,1.06
110.74,-0.68,-1.68,-0.70,-1.69,1.69,2.71,2.00,1.01,0.99,1.00
111.85,-0.68,-1.61,-0.65,-1.57,1.57,2.58,1.99,0.89,0.92,0.93
112.97,-0.68,-1.52,-0.61,-1.45,1.45,2.45,1.97,0.77,0.84,0.84
114.10,-0.68,-1.46,-0.57,-1.34,1.34,2.33,1.96,0.66,0.77,0.78
115.24,-0.65,-1.35,-0.53,-1.24,1.24,2.20,1.94,0.59,0.70,0.70
116.39,-0.53,-1.15,-0.50,-1.13,1.13,2.07,1.93,0.60,0.64,0.62
117.55,-0.46,-1.02,-0.46,-1.03,1.03,1.95,1.91,0.57,0.57,0.56
118.73,-0.46,-0.95,-0.42,-0.94,0.94,1.83,1.88,0.48,0.51,0.49
119.92,-0.45,-0.90,-0.39,-0.85,0.85,1.70,1.86,0.40,0.46,0.45
121.12,-0.23,-0.62,-0.36,-0.77,0.77,1.58,1.83,0.54,0.41,0.39
122.33,-0.23,-0.58,-0.32,-0.68,0.68,1.46,1.79,0.45,0.36,0.35
123.55,-0.23,-0.56,-0.29,-0.61,0.61,1.34,1.76,0.38,0.32,0.33
124.79,-0.23,-0.52,-0.26,-0.54,0.54,1.23,1.72,0.31,0.28,0.29
126.03,-0.23,-0.48,-0.24,-0.48,0.48,1.11,1.68,0.25,0.25,0.25
127.29,-0.23,-0.45,-0.22,-0.43,0.43,0.99,1.63,0.20,0.21,0.22
128.57,-0.23,-0.41,-0.21,-0.39,0.39,0.88,1.58,0.16,0.18,0.18
129.85,-0.23,-0.38,-0.21,-0.36,0.36,0.77,1.53,0.13,0.15,0.15
131.15,-0.23,-0.35,-0.20,-0.32,0.32,0.65,1.47,0.09,0.11,0.12
132.46,-0.23,-0.32,-0.20,-0.28,0.28,0.54,1.41,0.05,0.08,0.09
133.79,-0.23,-0.29,-0.20,-0.25,0.25,0.43,1.35,0.02,0.05,0.06
135.12,-0.23,-0.24,-0.21,-0.23,0.23,0.32,1.29,0.00,0.02,0.01
136.48,-0.23,-0.21,-0.22,-0.20,0.20,0.22,1.22,-0.03,-0.02,-0.02
137.84,-0.23,-0.18,-0.23,-0.18,0.18,0.11,1.15,-0.05,-0.05,-0.05
139.22,-0.23,-0.13,-0.25,-0.16,0.16,0.00,1.07,-0.07,-0.09,-0.10
140.61,-0.23,-0.08,-0.26,-0.14,0.14,-0.10,0.99,-0.09,-0.13,-0.15
142.02,-0.23,-0.06,-0.28,-0.11,0.11,-0.21,0.92,-0.12,-0.17,-0.17
143.44,-0.23,-0.02,-0.30,-0.09,0.09,-0.31,0.83,-0.14,-0.22,-0.21
144.87,-0.23,0.02,-0.33,-0.06,0.06,-0.42,0.75,-0.17,-0.27,-0.25
146.32,-0.38,-0.08,-0.34,-0.02,0.02,-0.52,0.67,-0.36,-0.32,-0.30
147.78,-0.46,-0.12,-0.36,0.02,-0.02,-0.62,0.58,-0.48,-0.38,-0.34
149.26,-0.46,-0.05,-0.38,0.07,-0.07,-0.72,0.49,-0.53,-0.44,-0.41
150.75,-0.46,0.03,-0.42,0.09,-0.09,-0.82,0.40,-0.55,-0.51,-0.49
152.26,-0.46,0.10,-0.47,0.11,-0.11,-0.92,0.31,-0.57,-0.58,-0.56
153.78,-0.46,0.17,-0.54,0.11,-0.11,-1.02,0.22,-0.57,-0.65,-0.63
155.32,-0.46,0.27,-0.61,0.12,-0.12,-1.12,0.12,-0.58,-0.72,-0.73
156.88,-0.46,0.34,-0.65,0.14,-0.14,-1.22,0.03,-0.60,-0.79,-0.80
158.44,-0.46,0.41,-0.66,0.21,-0.21,-1.32,-0.07,-0.67,-0.86,-0.87
160.03,-0.46,0.49,-0.62,0.31,-0.31,-1.41,-0.17,-0.77,-0.93,-0.95
161.63,-0.46,0.55,-0.53,0.46,-0.46,-1.51,-0.27,-0.92,-0.99,-1.01
163.24,-0.60,0.46,-0.39,0.65,-0.65,-1.61,-0.36,-1.25,-1.04,-1.06
164.88,-0.68,0.42,-0.21,0.87,-0.87,-1.70,-0.47,-1.55,-1.08,-1.10
166.53,-0.63,0.51,-0.01,1.11,-1.11,-1.79,-0.57,-1.74,-1.12,-1.14
168.19,-0.33,0.84,0.22,1.37,-1.37,-1.89,-0.67,-1.70,-1.14,-1.17
169.87,0.11,1.29,0.47,1.63,-1.63,-1.98,-0.77,-1.52,-1.16,-1.18
171.57,0.70,1.89,0.73,1.90,-1.90,-2.07,-0.88,-1.20,-1.17,-1.19
173.29,1.24,2.43,1.00,2.18,-2.18,-2.16,-0.98,-0.94,-1.18,-1.19
175.02,1.69,2.86,1.26,2.44,-2.44,-2.25,-1.09,-0.75,-1.18,-1.17
176.77,2.00,3.18,1.51,2.70,-2.70,-2.34,-1.19,-0.70,-1.19,-1.18
178.54,2.22,3.39,1.75,2.94,-2.94,-2.43,-1.30,-0.72,-1.18,-1.17
180.32,2.28,3.44,1.97,3.15,-3.15,-2.51,-1.41,-0.87,-1.18,-1.16
182.13,2.28,3.44,2.15,3.34,-3.34,-2.60,-1.52,-1.06,-1.19,-1.16
183.95,2.28,3.44,2.30,3.48,-3.48,-2.68,-1.63,-1.20,-1.19,-1.16
185.79,2.28,3.45,2.38,3.57,-3.57,-2.76,-1.74,-1.29,-1.19,-1.17
187.65,2.28,3.47,2.42,3.62,-3.62,-2.84,-1.85,-1.34,-1.20,-1.19
189.52,2.28,3.49,2.41,3.62,-3.62,-2.92,-1.97,-1.34,-1.21,-1.21
191.42,2.28,3.51,2.38,3.61,-3.61,-3.00,-2.08,-1.33,-1.22,-1.23
193.33,2.28,3.53,2.35,3.59,-3.59,-3.07,-2.20,-1.31,-1.24,-1.25
195.27,2.28,3.53,2.32,3.58,-3.58,-3.14,-2.31,-1.30,-1.26,-1.25
197.22,2.28,3.55,2.30,3.57,-3.57,-3.21,-2.43,-1.29,-1.28,-1.27
199.19,2.28,3.59,2.28,3.58,-3.58,-3.28,-2.54,-1.30,-1.29,-1.31
201.18,2.28,3.59,2.28,3.59,-3.59,-3.34,-2.66,-1.31,-1.31,-1.31
203.19,2.28,3.61,2.28,3.61,-3.61,-3.40,-2.77,-1.33,-1.33,-1.33
205.23,2.28,3.64,2.29,3.64,-3.64,-3.46,-2.89,-1.36,-1.35,-1.36
207.28,2.28,3.64,2.30,3.66,-3.66,-3.52,-3.00,-1.38,-1.37,-1.36
209.35,2.28,3.66,2.30,3.68,-3.68,-3.57,-3.11,-1.40,-1.38,-1.38
211.44,2.28,3.69,2.31,3.71,-3.71,-3.62,-3.22,-1.43,-1.40,-1.41
213.56,2.28,3.69,2.30,3.71,-3.71,-3.67,-3.33,-1.43,-1.41,-1.41
215.69,2.28,3.69,2.28,3.71,-3.71,-3.71,-3.44,-1.43,-1.43,-1.41
217.85,2.28,3.72,2.25,3.69,-3.69,-3.75,-3.55,-1.41,-1.44,-1.44
220.03,2.28,3.73,2.21,3.66,-3.66,-3.78,-3.65,-1.38,-1.45,-1.45
222.23,2.28,3.75,2.17,3.64,-3.64,-3.81,-3.75,-1.36,-1.46,-1.47
224.45,2.28,3.75,2.15,3.62,-3.62,-3.84,-3.84,-1.34,-1.47,-1.47
226.70,2.28,3.75,2.13,3.61,-3.61,-3.86,-3.93,-1.33,-1.48,-1.47
228.96,2.12,3.60,2.13,3.61,-3.61,-3.88,-4.01,-1.49,-1.48,-1.48
231.25,2.07,3.55,2.13,3.62,-3.62,-3.90,-4.09,-1.55,-1.49,-1.48
233.57,2.02,3.51,2.15,3.64,-3.64,-3.91,-4.16,-1.62,-1.49,-1.49
235.90,1.83,3.33,2.17,3.66,-3.66,-3.92,-4.23,-1.83,-1.49,-1.50
238.26,1.93,3.43,2.19,3.68,-3.68,-3.92,-4.29,-1.75,-1.49,-1.50
240.64,2.04,3.54,2.21,3.70,-3.70,-3.93,-4.34,-1.66,-1.49,-1.50
243.05,2.21,3.70,2.23,3.72,-3.72,-3.92,-4.38,-1.51,-1.49,-1.49
245.48,2.44,3.92,2.25,3.74,-3.74,-3.92,-4.42,-1.30,-1.49,-1.48
247.93,2.51,3.98,2.28,3.76,-3.76,-3.91,-4.44,-1.25,-1.48,-1.47
250.41,2.51,3.99,2.31,3.78,-3.78,-3.89,-4.46,-1.27,-1.48,-1.48
252.92,2.51,3.98,2.34,3.81,-3.81,-3.87,-4.47,-1.30,-1.47,-1.47
255.45,2.51,3.95,2.38,3.84,-3.84,-3.85,-4.48,-1.33,-1.46,-1.44
258.00,2.37,3.81,2.40,3.85,-3.85,-3.83,-4.47,-1.48,-1.45,-1.44
260.58,2.28,3.72,2.41,3.84,-3.84,-3.81,-4.46,-1.56,-1.44,-1.44
263.19,2.28,3.70,2.40,3.82,-3.82,-3.78,-4.44,-1.54,-1.42,-1.42
265.82,2.28,3.70,2.37,3.78,-3.78,-3.75,-4.41,-1.50,-1.41,-1.42
268.48,2.28,3.67,2.32,3.72,-3.72,-3.71,-4.37,-1.44,-1.39,-1.39
271.16,2.28,3.66,2.28,3.65,-3.65,-3.68,-4.33,-1.37,-1.38,-1.38
273.87,2.28,3.65,2.24,3.60,-3.60,-3.64,-4.29,-1.32,-1.36,-1.37
276.61,2.28,3.61,2.21,3.55,-3.55,-3.60,-4.23,-1.27,-1.34,-1.33
279.38,2.28,3.60,2.18,3.50,-3.50,-3.56,-4.18,-1.22,-1.31,-1.32
282.17,2.11,3.40,2.16,3.44,-3.44,-3.51,-4.12,-1.33,-1.29,-1.29
284.99,2.05,3.31,2.13,3.39,-3.39,-3.47,-4.05,-1.34,-1.26,-1.26
287.84,2.05,3.29,2.11,3.34,-3.34,-3.42,-3.98,-1.29,-1.23,-1.24
290.72,2.05,3.25,2.07,3.28,-3.28,-3.38,-3.92,-1.23,-1.21,-1.20
293.63,2.05,3.23,2.04,3.22,-3.22,-3.33,-3.84,-1.17,-1.18,-1.18
296.57,2.05,3.20,2.00,3.15,-3.15,-3.28,-3.77,-1.10,-1.15,-1.15
299.53,2.05,3.17,1.97,3.10,-3.10,-3.23,-3.70,-1.05,-1.13,-1.12
302.53,2.04,3.15,1.94,3.05,-3.05,-3.18,-3.62,-1.01,-1.10,-1.11
305.55,1.85,2.92,1.92,3.01,-3.01,-3.13,-3.55,-1.16,-1.09,-1.07
308.61,1.82,2.87,1.90,2.97,-2.97,-3.08,-3.47,-1.15,-1.07,-1.05
311.69,1.82,2.86,1.88,2.93,-2.93,-3.03,-3.40,-1.11,-1.05,-1.04
314.81,1.82,2.83,1.87,2.91,-2.91,-2.97,-3.32,-1.09,-1.04,-1.01
317.96,1.82,2.83,1.84,2.87,-2.87,-2.92,-3.25,-1.05,-1.03,-1.01
321.14,1.82,2.84,1.81,2.83,-2.83,-2.87,-3.18,-1.01,-1.02,-1.02
324.35,1.82,2.83,1.79,2.79,-2.79,-2.82,-3.10,-0.97,-1.01,-1.01
327.59,1.82,2.82,1.76,2.75,-2.75,-2.77,-3.04,-0.93,-1.00,-1.00
330.87,1.82,2.81,1.73,2.72,-2.72,-2.72,-2.97,-0.90,-0.99,-0.99
334.18,1.82,2.81,1.71,2.69,-2.69,-2.67,-2.90,-0.87,-0.98,-0.99
337.52,1.69,2.67,1.70,2.66,-2.66,-2.61,-2.84,-0.97,-0.96,-0.98
340.90,1.62,2.57,1.70,2.65,-2.65,-2.56,-2.77,-1.03,-0.95,-0.95
344.30,1.60,2.54,1.69,2.62,-2.62,-2.52,-2.71,-1.02,-0.94,-0.94
347.75,1.60,2.53,1.67,2.59,-2.59,-2.47,-2.65,-0.99,-0.92,-0.93
351.23,1.60,2.50,1.64,2.54,-2.54,-2.42,-2.60,-0.94,-0.90,-0.90
354.74,1.60,2.48,1.62,2.50,-2.50,-2.37,-2.54,-0.90,-0.88,-0.88
358.28,1.60,2.45,1.59,2.45,-2.45,-2.32,-2.49,-0.85,-0.85,-0.85
361.87,1.60,2.43,1.57,2.40,-2.40,-2.28,-2.44,-0.80,-0.83,-0.83
365.49,1.60,2.41,1.54,2.35,-2.35,-2.23,-2.39,-0.75,-0.81,-0.81
369.14,1.60,2.39,1.52,2.31,-2.31,-2.18,-2.35,-0.71,-0.79,-0.79
372.83,1.60,2.36,1.50,2.27,-2.27,-2.14,-2.30,-0.67,-0.77,-0.76
376.56,1.54,2.28,1.49,2.23,-2.23,-2.09,-2.26,-0.69,-0.75,-0.74
380.33,1.40,2.11,1.47,2.20,-2.20,-2.05,-2.22,-0.80,-0.73,-0.71
384.13,1.37,2.06,1.46,2.17,-2.17,-2.01,-2.18,-0.80,-0.71,-0.69
387.97,1.37,2.05,1.44,2.14,-2.14,-1.97,-2.14,-0.77,-0.69,-0.68
391.85,1.37,2.05,1.43,2.10,-2.10,-1.93,-2.11,-0.73,-0.68,-0.68
395.77,1.37,2.04,1.40,2.07,-2.07,-1.89,-2.07,-0.70,-0.67,-0.67
399.73,1.37,2.03,1.38,2.04,-2.04,-1.85,-2.04,-0.67,-0.66,-0.66
403.72,1.37,2.02,1.36,2.01,-2.01,-1.81,-2.01,-0.64,-0.65,-0.65
407.76,1.37,2.01,1.34,1.98,-1.98,-1.77,-1.98,-0.61,-0.64,-0.64
411.84,1.37,2.00,1.32,1.95,-1.95,-1.73,-1.95,-0.58,-0.64,-0.63
415.96,1.37,1.99,1.30,1.93,-1.93,-1.69,-1.92,-0.56,-0.63,-0.62
420.12,1.37,1.99,1.28,1.91,-1.91,-1.66,-1.90,-0.54,-0.63,-0.62
424.32,1.35,1.97,1.27,1.90,-1.90,-1.62,-1.87,-0.55,-0.63,-0.62
428.56,1.20,1.82,1.25,1.87,-1.87,-1.59,-1.85,-0.67,-0.62,-0.62
432.85,1.14,1.77,1.23,1.85,-1.85,-1.56,-1.82,-0.71,-0.62,-0.63
437.18,1.14,1.76,1.21,1.82,-1.82,-1.52,-1.80,-0.68,-0.62,-0.62
441.55,1.14,1.75,1.19,1.81,-1.81,-1.49,-1.78,-0.67,-0.61,-0.61
445.96,1.14,1.75,1.18,1.79,-1.79,-1.46,-1.75,-0.65,-0.60,-0.61
450.42,1.14,1.74,1.17,1.76,-1.76,-1.43,-1.73,-0.62,-0.60,-0.60
454.93,1.14,1.73,1.15,1.74,-1.74,-1.40,-1.71,-0.60,-0.59,-0.59
459.48,1.14,1.72,1.13,1.71,-1.71,-1.37,-1.69,-0.57,-0.57,-0.58
464.07,1.14,1.70,1.11,1.67,-1.67,-1.34,-1.66,-0.53,-0.56,-0.56
468.71,1.14,1.68,1.10,1.64,-1.64,-1.31,-1.64,-0.50,-0.54,-0.54
473.40,1.14,1.67,1.09,1.61,-1.61,-1.28,-1.62,-0.47,-0.52,-0.53
478.13,1.14,1.64,1.08,1.58,-1.58,-1.26,-1.59,-0.44,-0.50,-0.50
482.91,1.14,1.62,1.06,1.53,-1.53,-1.23,-1.57,-0.39,-0.48,-0.48
487.74,1.09,1.54,1.04,1.49,-1.49,-1.20,-1.54,-0.40,-0.45,-0.45
492.62,0.95,1.37,1.01,1.44,-1.44,-1.18,-1.52,-0.49,-0.43,-0.42
497.55,0.91,1.31,0.99,1.40,-1.40,-1.16,-1.49,-0.48,-0.40,-0.40
502.52,0.91,1.28,0.97,1.35,-1.35,-1.13,-1.46,-0.44,-0.38,-0.37
507.55,0.91,1.27,0.95,1.31,-1.31,-1.11,-1.43,-0.40,-0.36,-0.36
512.62,0.91,1.24,0.95,1.28,-1.28,-1.08,-1.40,-0.37,-0.33,-0.33
