frequency,raw,error,smoothed,error_smoothed,equalization,parametric_eq,fixed_band_eq,equalized_raw,equalized_smoothed,target
20.00,-2.37,-6.98,-2.37,-6.99,6.99,6.89,1.69,4.62,4.62,4.62
20.20,-2.25,-6.90,-2.25,-6.90,6.90,6.80,1.74,4.65,4.66,4.66
20.40,-2.12,-6.81,-2.12,-6.82,6.82,6.71,1.79,4.70,4.69,4.70
20.61,-2.00,-6.73,-2.00,-6.73,6.73,6.62,1.84,4.73,4.73,4.73
20.81,-1.87,-6.63,-1.87,-6.64,6.64,6.53,1.89,4.77,4.76,4.77
21.02,-1.75,-6.55,-1.75,-6.54,6.54,6.45,1.95,4.79,4.79,4.81
21.23,-1.62,-6.44,-1.62,-6.45,6.44,6.36,2.00,4.82,4.82,4.83
21.44,-1.50,-6.34,-1.50,-6.35,6.34,6.27,2.06,4.85,4.84,4.85
21.66,-1.38,-6.25,-1.37,-6.24,6.24,6.18,2.12,4.86,4.87,4.87
21.87,-1.25,-6.12,-1.25,-6.13,6.13,6.10,2.18,4.89,4.88,4.88
22.09,-1.13,-6.02,-1.13,-6.02,6.02,6.01,2.24,4.90,4.90,4.90
22.31,-1.01,-5.91,-1.01,-5.91,5.91,5.92,2.31,4.91,4.91,4.91
22.54,-0.89,-5.81,-0.89,-5.81,5.80,5.84,2.37,4.91,4.91,4.92
22.76,-0.77,-5.69,-0.77,-5.69,5.69,5.75,2.44,4.92,4.92,4.93
22.99,-0.65,-5.58,-0.65,-5.58,5.58,5.67,2.51,4.93,4.93,4.93
23.22,-0.53,-5.47,-0.53,-5.46,5.47,5.59,2.58,4.94,4.94,4.94
23.45,-0.41,-5.35,-0.41,-5.35,5.36,5.50,2.65,4.95,4.95,4.95
23.69,-0.29,-5.25,-0.29,-5.25,5.25,5.42,2.73,4.96,4.96,4.96
23.92,-0.18,-5.14,-0.18,-5.15,5.14,5.34,2.80,4.97,4.97,4.97
24.16,-0.06,-5.04,-0.06,-5.05,5.04,5.26,2.88,4.98,4.98,4.99
24.40,0.05,-4.95,0.05,-4.94,4.93,5.18,2.96,4.99,4.99,5.01
24.65,0.17,-4.83,0.17,-4.83,4.83,5.10,3.03,5.00,5.00,5.00
24.89,0.28,-4.72,0.28,-4.73,4.73,5.02,3.11,5.01,5.01,5.01
25.14,0.39,-4.62,0.39,-4.62,4.63,4.94,3.19,5.02,5.02,5.02
25.39,0.50,-4.52,0.50,-4.53,4.53,4.87,3.27,5.03,5.03,5.03
25.65,0.61,-4.44,0.61,-4.43,4.43,4.79,3.35,5.04,5.04,5.05
25.91,0.72,-4.33,0.72,-4.33,4.33,4.72,3.43,5.05,5.05,5.05
26.16,0.83,-4.22,0.83,-4.23,4.23,4.64,3.51,5.06,5.06,5.06
26.43,0.93,-4.14,0.93,-4.13,4.14,4.57,3.59,5.07,5.07,5.07
26.69,1.04,-4.03,1.04,-4.04,4.04,4.49,3.66,5.08,5.08,5.08
26.96,1.14,-3.96,1.14,-3.95,3.95,4.42,3.74,5.09,5.09,5.10
27.23,1.24,-3.87,1.24,-3.86,3.85,4.35,3.81,5.09,5.10,5.11
27.50,1.34,-3.77,1.34,-3.77,3.76,4.28,3.88,5.10,5.10,5.11
27.77,1.44,-3.66,1.44,-3.67,3.67,4.21,3.95,5.12,5.12,5.11
28.05,1.54,-3.58,1.54,-3.58,3.59,4.14,4.02,5.13,5.13,5.13
28.33,1.63,-3.49,1.63,-3.50,3.50,4.08,4.08,5.13,5.13,5.13
28.62,1.72,-3.42,1.72,-3.41,3.42,4.01,4.13,5.14,5.14,5.14
28.90,1.81,-3.33,1.81,-3.33,3.34,3.94,4.19,5.15,5.15,5.15
29.19,1.90,-3.24,1.90,-3.26,3.26,3.88,4.23,5.16,5.15,5.15
29.48,1.98,-3.19,1.98,-3.18,3.17,3.81,4.27,5.15,5.16,5.18
29.78,2.07,-3.10,2.07,-3.10,3.09,3.75,4.31,5.16,5.16,5.17
30.08,2.16,-3.02,2.16,-3.02,3.00,3.69,4.34,5.16,5.16,5.18
30.38,2.26,-2.92,2.26,-2.92,2.91,3.63,4.36,5.17,5.17,5.18
30.68,2.37,-2.82,2.37,-2.82,2.82,3.56,4.38,5.19,5.19,5.20
30.99,2.48,-2.72,2.47,-2.72,2.73,3.50,4.39,5.21,5.20,5.20
31.30,2.57,-2.63,2.57,-2.63,2.64,3.45,4.40,5.21,5.21,5.20
31.61,2.66,-2.54,2.66,-2.54,2.55,3.39,4.39,5.21,5.21,5.21
31.93,2.75,-2.47,2.75,-2.47,2.47,3.33,4.38,5.22,5.21,5.22
32.24,2.82,-2.39,2.83,-2.39,2.40,3.27,4.37,5.22,5.22,5.22
32.57,2.90,-2.34,2.90,-2.33,2.33,3.22,4.35,5.23,5.23,5.24
32.89,2.97,-2.26,2.96,-2.27,2.27,3.16,4.32,5.25,5.24,5.24
33.22,3.02,-2.22,3.02,-2.23,2.23,3.11,4.29,5.25,5.25,5.25
33.55,3.06,-2.19,3.07,-2.19,2.19,3.05,4.25,5.25,5.26,5.26
33.89,3.11,-2.15,3.10,-2.16,2.16,3.00,4.20,5.27,5.26,5.27
34.23,3.13,-2.13,3.13,-2.13,2.14,2.95,4.15,5.27,5.27,5.27
34.57,3.15,-2.12,3.15,-2.12,2.12,2.89,4.10,5.27,5.28,5.28
34.92,3.17,-2.10,3.16,-2.12,2.12,2.84,4.05,5.29,5.28,5.28
35.27,3.16,-2.12,3.17,-2.12,2.12,2.79,3.99,5.28,5.28,5.29
35.62,3.16,-2.12,3.16,-2.12,2.13,2.74,3.93,5.29,5.29,5.29
35.97,3.15,-2.14,3.15,-2.14,2.14,2.70,3.86,5.29,5.29,5.29
36.33,3.13,-2.16,3.13,-2.16,2.16,2.65,3.80,5.29,5.29,5.30
36.70,3.10,-2.18,3.10,-2.19,2.19,2.60,3.73,5.29,5.29,5.29
37.06,3.07,-2.23,3.07,-2.22,2.22,2.55,3.66,5.29,5.29,5.30
37.43,3.04,-2.26,3.04,-2.25,2.25,2.51,3.59,5.29,5.29,5.30
37.81,3.01,-2.28,3.01,-2.29,2.29,2.46,3.52,5.30,5.30,5.30
38.19,2.97,-2.32,2.97,-2.32,2.32,2.42,3.45,5.29,5.29,5.30
38.57,2.93,-2.35,2.93,-2.36,2.36,2.37,3.39,5.29,5.29,5.29
38.95,2.88,-2.41,2.89,-2.40,2.40,2.33,3.32,5.28,5.28,5.29
39.34,2.85,-2.43,2.85,-2.43,2.43,2.29,3.25,5.28,5.28,5.28
39.74,2.81,-2.46,2.81,-2.46,2.46,2.25,3.18,5.27,5.27,5.28
40.14,2.78,-2.49,2.78,-2.49,2.49,2.21,3.12,5.27,5.27,5.28
40.54,2.75,-2.52,2.75,-2.52,2.52,2.16,3.05,5.27,5.27,5.28
40.94,2.72,-2.54,2.72,-2.55,2.55,2.12,2.99,5.27,5.27,5.27
41.35,2.70,-2.56,2.70,-2.57,2.57,2.08,2.93,5.27,5.27,5.27
41.76,2.68,-2.58,2.68,-2.58,2.59,2.05,2.87,5.27,5.27,5.27
42.18,2.66,-2.60,2.66,-2.60,2.60,2.01,2.82,5.26,5.27,5.27
42.60,2.65,-2.61,2.65,-2.62,2.61,1.97,2.76,5.27,5.26,5.27
43.03,2.63,-2.63,2.64,-2.63,2.62,1.93,2.71,5.25,5.26,5.27
43.46,2.63,-2.63,2.63,-2.63,2.62,1.90,2.66,5.25,5.25,5.27
43.90,2.63,-2.61,2.63,-2.62,2.62,1.86,2.61,5.25,5.25,5.25
44.33,2.63,-2.61,2.63,-2.61,2.61,1.82,2.56,5.25,5.25,5.25
44.78,2.64,-2.59,2.64,-2.60,2.61,1.79,2.51,5.25,5.24,5.24
45.23,2.64,-2.59,2.64,-2.59,2.60,1.75,2.47,5.24,5.24,5.24
45.68,2.65,-2.58,2.65,-2.58,2.59,1.72,2.43,5.24,5.24,5.24
46.13,2.66,-2.56,2.66,-2.57,2.57,1.69,2.39,5.23,5.23,5.23
46.60,2.67,-2.56,2.67,-2.56,2.56,1.65,2.35,5.23,5.23,5.24
47.06,2.68,-2.54,2.68,-2.55,2.55,1.62,2.32,5.23,5.23,5.23
47.53,2.69,-2.52,2.69,-2.53,2.53,1.59,2.28,5.22,5.22,5.22
48.01,2.70,-2.52,2.70,-2.51,2.51,1.56,2.25,5.21,5.21,5.23
48.49,2.71,-2.49,2.71,-2.49,2.48,1.53,2.22,5.20,5.20,5.21
48.97,2.73,-2.45,2.73,-2.46,2.46,1.50,2.19,5.19,5.19,5.19
49.46,2.75,-2.42,2.75,-2.42,2.42,1.47,2.16,5.18,5.17,5.18
49.96,2.77,-2.38,2.77,-2.39,2.39,1.44,2.14,5.16,5.16,5.16
50.46,2.79,-2.36,2.79,-2.35,2.35,1.41,2.11,5.15,5.15,5.16
50.96,2.82,-2.31,2.81,-2.32,2.32,1.38,2.09,5.14,5.13,5.14
51.47,2.83,-2.27,2.83,-2.28,2.28,1.35,2.07,5.11,5.12,5.11
51.99,2.85,-2.25,2.85,-2.24,2.25,1.32,2.05,5.10,5.10,5.10
52.51,2.87,-2.22,2.87,-2.22,2.22,1.30,2.03,5.09,5.08,5.09
53.03,2.88,-2.18,2.88,-2.19,2.19,1.27,2.01,5.07,5.07,5.07
53.56,2.89,-2.16,2.89,-2.16,2.16,1.24,1.99,5.05,5.05,5.06
54.10,2.90,-2.13,2.90,-2.13,2.13,1.22,1.97,5.03,5.03,5.03
54.64,2.91,-2.10,2.91,-2.10,2.10,1.19,1.95,5.01,5.01,5.02
55.18,2.91,-2.07,2.91,-2.07,2.08,1.16,1.94,4.99,4.99,4.99
55.74,2.91,-2.04,2.91,-2.06,2.06,1.14,1.92,4.97,4.97,4.96
56.29,2.91,-2.04,2.91,-2.03,2.03,1.11,1.90,4.95,4.95,4.96
56.86,2.91,-2.01,2.91,-2.01,2.02,1.09,1.89,4.93,4.93,4.93
57.42,2.91,-1.98,2.91,-1.99,2.00,1.07,1.87,4.91,4.90,4.90
58.00,2.90,-1.97,2.90,-1.97,1.98,1.04,1.85,4.88,4.88,4.88
58.58,2.89,-1.96,2.89,-1.96,1.96,1.02,1.83,4.85,4.86,4.86
59.16,2.89,-1.94,2.89,-1.95,1.94,1.00,1.82,4.83,4.83,4.84
59.76,2.89,-1.92,2.89,-1.92,1.91,0.97,1.80,4.80,4.80,4.82
60.35,2.89,-1.89,2.89,-1.90,1.89,0.95,1.78,4.78,4.78,4.79
60.96,2.89,-1.86,2.89,-1.86,1.86,0.93,1.75,4.75,4.75,4.76
61.57,2.89,-1.82,2.89,-1.82,1.82,0.91,1.73,4.71,4.71,4.71
62.18,2.89,-1.77,2.89,-1.78,1.79,0.89,1.71,4.68,4.68,4.67
62.80,2.89,-1.75,2.89,-1.74,1.75,0.86,1.69,4.64,4.64,4.65
63.43,2.89,-1.70,2.89,-1.71,1.71,0.84,1.66,4.60,4.60,4.60
64.07,2.89,-1.66,2.89,-1.67,1.67,0.82,1.63,4.56,4.56,4.56
64.71,2.89,-1.63,2.89,-1.63,1.63,0.80,1.61,4.52,4.52,4.53
65.35,2.89,-1.59,2.89,-1.59,1.60,0.78,1.58,4.49,4.49,4.49
66.01,2.89,-1.55,2.89,-1.56,1.56,0.76,1.55,4.45,4.45,4.45
66.67,2.89,-1.52,2.89,-1.52,1.52,0.74,1.52,4.41,4.41,4.42
67.33,2.89,-1.48,2.89,-1.48,1.48,0.72,1.48,4.37,4.37,4.38
68.01,2.89,-1.44,2.89,-1.45,1.44,0.70,1.45,4.33,4.33,4.34
68.69,2.89,-1.40,2.89,-1.40,1.40,0.68,1.42,4.30,4.30,4.30
69.37,2.89,-1.36,2.89,-1.36,1.37,0.66,1.38,4.26,4.26,4.26
70.07,2.89,-1.32,2.89,-1.33,1.33,0.65,1.35,4.22,4.22,4.22
70.77,2.89,-1.28,2.89,-1.29,1.29,0.63,1.31,4.18,4.18,4.18
71.48,2.89,-1.25,2.89,-1.25,1.25,0.61,1.28,4.14,4.14,4.15
72.19,2.89,-1.20,2.89,-1.21,1.21,0.59,1.24,4.10,4.10,4.10
72.91,2.89,-1.17,2.89,-1.17,1.17,0.57,1.21,4.06,4.06,4.07
73.64,2.89,-1.13,2.89,-1.14,1.14,0.55,1.17,4.03,4.03,4.03
74.38,2.89,-1.10,2.89,-1.10,1.10,0.54,1.13,3.99,3.99,4.00
75.12,2.89,-1.06,2.89,-1.07,1.07,0.52,1.09,3.96,3.96,3.96
75.87,2.89,-1.03,2.89,-1.04,1.03,0.50,1.06,3.93,3.93,3.93
76.63,2.89,-1.00,2.89,-1.00,1.00,0.49,1.02,3.89,3.89,3.90
77.40,2.89,-0.97,2.89,-0.97,0.97,0.47,0.98,3.87,3.87,3.87
78.17,2.89,-0.94,2.89,-0.94,0.95,0.45,0.95,3.84,3.84,3.84
78.95,2.89,-0.91,2.89,-0.92,0.92,0.43,0.91,3.81,3.81,3.81
79.74,2.89,-0.89,2.89,-0.89,0.89,0.42,0.88,3.78,3.78,3.79
80.54,2.89,-0.87,2.89,-0.87,0.87,0.40,0.84,3.76,3.76,3.77
81.35,2.89,-0.84,2.89,-0.85,0.84,0.38,0.81,3.73,3.73,3.74
82.16,2.89,-0.81,2.89,-0.82,0.82,0.37,0.77,3.71,3.71,3.71
82.98,2.89,-0.80,2.89,-0.80,0.80,0.35,0.74,3.69,3.69,3.70
83.81,2.89,-0.77,2.89,-0.77,0.78,0.34,0.70,3.67,3.67,3.67
84.65,2.89,-0.74,2.89,-0.75,0.75,0.32,0.67,3.65,3.65,3.64
85.50,2.89,-0.73,2.89,-0.73,0.73,0.30,0.64,3.63,3.63,3.63
86.35,2.89,-0.71,2.89,-0.71,0.71,0.29,0.60,3.61,3.61,3.61
87.22,2.89,-0.69,2.89,-0.69,0.69,0.27,0.57,3.59,3.59,3.59
88.09,2.89,-0.67,2.89,-0.68,0.67,0.25,0.54,3.56,3.56,3.57
88.97,2.89,-0.65,2.89,-0.66,0.65,0.24,0.51,3.54,3.54,3.55
89.86,2.89,-0.64,2.89,-0.64,0.63,0.22,0.48,3.52,3.52,3.54
90.76,2.89,-0.61,2.89,-0.61,0.61,0.21,0.45,3.50,3.50,3.51
91.66,2.90,-0.58,2.90,-0.59,0.59,0.19,0.42,3.49,3.49,3.49
92.58,2.91,-0.55,2.91,-0.56,0.57,0.17,0.39,3.48,3.48,3.47
93.51,2.91,-0.54,2.91,-0.54,0.55,0.16,0.36,3.46,3.46,3.46
94.44,2.91,-0.52,2.91,-0.53,0.53,0.14,0.33,3.44,3.44,3.44
95.39,2.89,-0.52,2.89,-0.52,0.52,0.13,0.30,3.41,3.42,3.42
96.34,2.87,-0.51,2.87,-0.51,0.52,0.11,0.27,3.39,3.39,3.39
97.30,2.85,-0.50,2.85,-0.51,0.51,0.09,0.24,3.36,3.36,3.36
98.28,2.82,-0.50,2.82,-0.51,0.51,0.08,0.21,3.33,3.33,3.33
99.26,2.79,-0.51,2.79,-0.51,0.51,0.06,0.19,3.30,3.30,3.31
100.25,2.76,-0.51,2.76,-0.51,0.51,0.04,0.16,3.27,3.27,3.28
101.25,2.73,-0.51,2.73,-0.51,0.51,0.03,0.13,3.24,3.24,3.25
102.27,2.70,-0.50,2.70,-0.51,0.50,0.01,0.10,3.21,3.21,3.21
103.29,2.68,-0.49,2.68,-0.50,0.50,-0.01,0.08,3.18,3.18,3.18
104.32,2.66,-0.48,2.66,-0.48,0.49,-0.02,0.05,3.15,3.15,3.15
105.37,2.63,-0.47,2.63,-0.47,0.48,-0.04,0.02,3.11,3.11,3.11
106.42,2.60,-0.45,2.60,-0.46,0.46,-0.06,-0.00,3.06,3.06,3.06
107.48,2.57,-0.45,2.57,-0.44,0.44,-0.08,-0.03,3.01,3.01,3.03
108.56,2.55,-0.41,2.55,-0.42,0.40,-0.09,-0.05,2.95,2.95,2.97
109.64,2.54,-0.37,2.54,-0.38,0.36,-0.11,-0.08,2.90,2.90,2.92
110.74,2.54,-0.32,2.54,-0.32,0.32,-0.13,-0.11,2.86,2.86,2.87
111.85,2.55,-0.26,2.55,-0.26,0.26,-0.15,-0.13,2.81,2.81,2.82
112.97,2.56,-0.19,2.56,-0.20,0.20,-0.17,-0.16,2.76,2.76,2.75
114.10,2.56,-0.13,2.56,-0.13,0.14,-0.19,-0.18,2.70,2.70,2.70
115.24,2.56,-0.07,2.56,-0.07,0.07,-0.21,-0.21,2.63,2.64,2.64
116.39,2.56,-0.00,2.56,-0.01,0.01,-0.23,-0.23,2.57,2.57,2.57
117.55,2.56,0.06,2.56,0.05,-0.05,-0.25,-0.25,2.51,2.51,2.51
118.73,2.56,0.12,2.56,0.11,-0.11,-0.27,-0.28,2.45,2.45,2.45
119.92,2.56,0.17,2.56,0.17,-0.17,-0.29,-0.30,2.39,2.39,2.40
121.12,2.56,0.23,2.56,0.22,-0.22,-0.31,-0.33,2.34,2.34,2.34
122.33,2.56,0.28,2.56,0.27,-0.27,-0.33,-0.35,2.29,2.29,2.29
123.55,2.56,0.33,2.56,0.33,-0.33,-0.35,-0.38,2.23,2.23,2.24
124.79,2.56,0.38,2.56,0.37,-0.38,-0.37,-0.40,2.18,2.18,2.19
126.03,2.56,0.43,2.56,0.43,-0.43,-0.40,-0.42,2.13,2.13,2.14
127.29,2.56,0.48,2.56,0.48,-0.48,-0.42,-0.45,2.08,2.08,2.09
128.57,2.56,0.54,2.56,0.53,-0.53,-0.44,-0.47,2.03,2.03,2.03
129.85,2.56,0.58,2.56,0.58,-0.57,-0.47,-0.50,1.99,1.99,1.99
131.15,2.56,0.63,2.56,0.62,-0.62,-0.49,-0.52,1.94,1.94,1.94
132.46,2.56,0.67,2.56,0.66,-0.66,-0.52,-0.55,1.90,1.90,1.90
133.79,2.56,0.71,2.56,0.71,-0.71,-0.55,-0.57,1.85,1.85,1.86
135.12,2.56,0.75,2.56,0.74,-0.75,-0.57,-0.60,1.81,1.81,1.82
136.48,2.56,0.79,2.56,0.79,-0.79,-0.60,-0.62,1.77,1.77,1.78
137.84,2.56,0.83,2.56,0.83,-0.83,-0.63,-0.65,1.73,1.73,1.74
139.22,2.56,0.88,2.56,0.87,-0.87,-0.66,-0.67,1.69,1.69,1.69
140.61,2.56,0.92,2.56,0.91,-0.90,-0.69,-0.70,1.66,1.66,1.65
142.02,2.56,0.94,2.56,0.94,-0.94,-0.72,-0.73,1.62,1.62,1.63
143.44,2.56,0.98,2.56,0.98,-0.98,-0.75,-0.75,1.58,1.58,1.59
144.87,2.56,1.02,2.56,1.01,-1.01,-0.79,-0.78,1.55,1.55,1.55
146.32,2.56,1.06,2.56,1.05,-1.05,-0.82,-0.81,1.51,1.51,1.51
147.78,2.56,1.09,2.56,1.09,-1.09,-0.86,-0.84,1.47,1.47,1.48
149.26,2.56,1.12,2.56,1.13,-1.13,-0.89,-0.87,1.43,1.43,1.45
150.75,2.56,1.18,2.56,1.17,-1.17,-0.93,-0.90,1.39,1.39,1.39
152.26,2.56,1.22,2.56,1.21,-1.21,-0.97,-0.93,1.35,1.35,1.35
153.78,2.56,1.25,2.56,1.26,-1.25,-1.01,-0.96,1.31,1.31,1.32
155.32,2.56,1.31,2.56,1.30,-1.30,-1.05,-1.00,1.26,1.26,1.26
156.88,2.56,1.34,2.56,1.34,-1.34,-1.09,-1.03,1.22,1.22,1.23
158.44,2.56,1.39,2.56,1.39,-1.39,-1.13,-1.06,1.17,1.17,1.18
160.03,2.56,1.44,2.56,1.43,-1.43,-1.18,-1.10,1.13,1.13,1.13
161.63,2.56,1.49,2.56,1.48,-1.48,-1.22,-1.14,1.08,1.08,1.08
163.24,2.56,1.53,2.56,1.53,-1.52,-1.27,-1.17,1.04,1.04,1.04
164.88,2.56,1.57,2.56,1.57,-1.57,-1.32,-1.21,0.99,0.99,1.00
166.53,2.56,1.62,2.56,1.62,-1.62,-1.37,-1.25,0.94,0.94,0.95
168.19,2.56,1.67,2.56,1.66,-1.66,-1.42,-1.29,0.90,0.90,0.90
169.87,2.56,1.72,2.56,1.71,-1.71,-1.48,-1.34,0.85,0.85,0.85
171.57,2.56,1.76,2.56,1.76,-1.76,-1.53,-1.38,0.80,0.80,0.81
173.29,2.56,1.82,2.56,1.81,-1.81,-1.59,-1.42,0.75,0.75,0.75
175.02,2.56,1.87,2.56,1.87,-1.87,-1.65,-1.47,0.69,0.69,0.70
176.77,2.56,1.93,2.56,1.92,-1.92,-1.71,-1.52,0.64,0.64,0.64
178.54,2.56,1.98,2.56,1.98,-1.98,-1.77,-1.56,0.58,0.58,0.59
180.32,2.56,2.04,2.56,2.03,-2.03,-1.83,-1.61,0.53,0.53,0.53
182.13,2.56,2.09,2.56,2.09,-2.09,-1.89,-1.66,0.47,0.47,0.48
183.95,2.56,2.15,2.56,2.14,-2.15,-1.96,-1.72,0.42,0.42,0.42
185.79,2.56,2.20,2.56,2.20,-2.20,-2.03,-1.77,0.36,0.36,0.37
187.65,2.56,2.27,2.56,2.26,-2.26,-2.09,-1.82,0.30,0.30,0.30
189.52,2.56,2.32,2.56,2.31,-2.31,-2.16,-1.88,0.25,0.25,0.25
191.42,2.56,2.37,2.56,2.37,-2.37,-2.23,-1.93,0.19,0.19,0.20
193.33,2.56,2.42,2.56,2.42,-2.42,-2.30,-1.99,0.14,0.14,0.15
195.27,2.56,2.47,2.56,2.47,-2.47,-2.37,-2.05,0.09,0.09,0.10
197.22,2.56,2.53,2.56,2.52,-2.52,-2.44,-2.11,0.04,0.04,0.04
199.19,2.56,2.58,2.56,2.57,-2.57,-2.51,-2.16,-0.01,-0.01,-0.01
201.18,2.56,2.63,2.56,2.62,-2.62,-2.58,-2.22,-0.06,-0.06,-0.06
203.19,2.56,2.66,2.56,2.66,-2.66,-2.65,-2.28,-0.10,-0.10,-0.09
205.23,2.56,2.72,2.56,2.70,-2.71,-2.71,-2.34,-0.15,-0.15,-0.15
207.28,2.56,2.74,2.56,2.75,-2.75,-2.78,-2.40,-0.19,-0.19,-0.17
209.35,2.56,2.80,2.56,2.80,-2.80,-2.84,-2.46,-0.23,-0.23,-0.23
211.44,2.56,2.85,2.56,2.84,-2.84,-2.90,-2.52,-0.28,-0.28,-0.28
213.56,2.56,2.89,2.56,2.88,-2.88,-2.96,-2.58,-0.31,-0.31,-0.32
215.69,2.56,2.91,2.56,2.91,-2.91,-3.01,-2.64,-0.35,-0.35,-0.34
217.85,2.56,2.95,2.56,2.95,-2.95,-3.06,-2.69,-0.39,-0.39,-0.38
220.03,2.56,2.99,2.56,2.98,-2.98,-3.11,-2.75,-0.42,-0.42,-0.42
222.23,2.56,3.02,2.56,3.01,-3.01,-3.15,-2.80,-0.45,-0.45,-0.45
224.45,2.56,3.04,2.56,3.04,-3.04,-3.19,-2.85,-0.48,-0.48,-0.47
226.70,2.56,3.07,2.56,3.07,-3.07,-3.22,-2.90,-0.50,-0.50,-0.50
228.96,2.56,3.10,2.56,3.09,-3.09,-3.24,-2.94,-0.53,-0.53,-0.53
231.25,2.56,3.11,2.56,3.11,-3.11,-3.26,-2.99,-0.54,-0.54,-0.54
233.57,2.56,3.13,2.56,3.12,-3.12,-3.27,-3.02,-0.56,-0.56,-0.56
235.90,2.56,3.14,2.56,3.14,-3.14,-3.28,-3.06,-0.58,-0.58,-0.57
238.26,2.56,3.15,2.56,3.14,-3.15,-3.28,-3.09,-0.59,-0.59,-0.58
240.64,2.56,3.16,2.56,3.15,-3.16,-3.28,-3.12,-0.60,-0.60,-0.59
243.05,2.56,3.16,2.56,3.16,-3.17,-3.27,-3.14,-0.61,-0.61,-0.59
245.48,2.57,3.18,2.57,3.17,-3.18,-3.25,-3.16,-0.61,-0.61,-0.60
247.93,2.58,3.19,2.58,3.19,-3.18,-3.23,-3.17,-0.60,-0.60,-0.60
250.41,2.59,3.20,2.59,3.19,-3.18,-3.20,-3.18,-0.59,-0.59,-0.60
252.92,2.59,3.19,2.59,3.18,-3.18,-3.17,-3.19,-0.59,-0.59,-0.59
255.45,2.58,3.17,2.58,3.17,-3.17,-3.13,-3.19,-0.59,-0.59,-0.58
258.00,2.57,3.15,2.57,3.15,-3.15,-3.10,-3.18,-0.58,-0.58,-0.57
260.58,2.55,3.13,2.56,3.13,-3.13,-3.05,-3.17,-0.58,-0.57,-0.57
263.19,2.54,3.11,2.54,3.10,-3.09,-3.01,-3.16,-0.55,-0.56,-0.56
265.82,2.51,3.07,2.51,3.06,-3.06,-2.96,-3.15,-0.55,-0.54,-0.55
268.48,2.48,3.02,2.48,3.01,-3.01,-2.91,-3.12,-0.53,-0.53,-0.53
271.16,2.44,2.96,2.44,2.96,-2.96,-2.86,-3.10,-0.52,-0.53,-0.51
273.87,2.38,2.90,2.39,2.90,-2.91,-2.81,-3.07,-0.53,-0.51,-0.51
276.61,2.35,2.84,2.35,2.84,-2.84,-2.76,-3.04,-0.49,-0.50,-0.48
279.38,2.30,2.79,2.30,2.78,-2.77,-2.71,-3.01,-0.47,-0.47,-0.48
282.17,2.25,2.72,2.25,2.71,-2.70,-2.66,-2.98,-0.45,-0.45,-0.46
284.99,2.18,2.64,2.18,2.63,-2.62,-2.60,-2.94,-0.44,-0.44,-0.45
287.84,2.09,2.54,2.10,2.54,-2.54,-2.55,-2.90,-0.45,-0.44,-0.44
290.72,2.02,2.46,2.02,2.45,-2.46,-2.50,-2.86,-0.44,-0.44,-0.43
293.63,1.95,2.37,1.95,2.37,-2.38,-2.45,-2.82,-0.43,-0.43,-0.41
296.57,1.89,2.29,1.89,2.29,-2.30,-2.41,-2.78,-0.41,-0.41,-0.39
299.53,1.84,2.24,1.84,2.23,-2.23,-2.36,-2.74,-0.39,-0.39,-0.39
302.53,1.78,2.17,1.79,2.17,-2.16,-2.31,-2.70,-0.38,-0.37,-0.38
305.55,1.74,2.11,1.74,2.11,-2.10,-2.27,-2.66,-0.36,-0.36,-0.36
308.61,1.69,2.05,1.69,2.04,-2.04,-2.23,-2.62,-0.35,-0.35,-0.35
311.69,1.64,1.99,1.65,1.99,-2.00,-2.19,-2.58,-0.36,-0.35,-0.34
314.81,1.62,1.94,1.62,1.95,-1.96,-2.15,-2.54,-0.34,-0.34,-0.31
317.96,1.60,1.93,1.60,1.92,-1.92,-2.11,-2.50,-0.32,-0.33,-0.32
321.14,1.58,1.90,1.58,1.90,-1.90,-2.08,-2.46,-0.32,-0.31,-0.31
324.35,1.57,1.89,1.57,1.89,-1.88,-2.05,-2.42,-0.31,-0.31,-0.31
327.59,1.57,1.88,1.57,1.87,-1.87,-2.01,-2.39,-0.30,-0.30,-0.30
330.87,1.56,1.87,1.56,1.87,-1.86,-1.99,-2.35,-0.30,-0.30,-0.30
334.18,1.56,1.87,1.56,1.86,-1.86,-1.96,-2.32,-0.30,-0.30,-0.30
337.52,1.56,1.86,1.56,1.86,-1.86,-1.93,-2.29,-0.30,-0.30,-0.29
340.90,1.57,1.87,1.57,1.86,-1.86,-1.91,-2.26,-0.29,-0.30,-0.29
344.30,1.58,1.88,1.58,1.87,-1.88,-1.89,-2.23,-0.30,-0.30,-0.29
347.75,1.59,1.89,1.59,1.89,-1.89,-1.86,-2.20,-0.30,-0.30,-0.29
351.23,1.61,1.91,1.61,1.91,-1.92,-1.85,-2.18,-0.30,-0.30,-0.29
354.74,1.64,1.94,1.64,1.94,-1.94,-1.83,-2.16,-0.30,-0.31,-0.29
358.28,1.67,1.99,1.67,1.98,-1.98,-1.81,-2.14,-0.31,-0.31,-0.31
361.87,1.70,2.02,1.70,2.02,-2.01,-1.80,-2.12,-0.31,-0.31,-0.31
365.49,1.74,2.06,1.74,2.06,-2.05,-1.79,-2.10,-0.31,-0.32,-0.31
369.14,1.77,2.10,1.78,2.10,-2.10,-1.77,-2.08,-0.33,-0.32,-0.32
372.83,1.81,2.14,1.81,2.14,-2.14,-1.76,-2.07,-0.33,-0.33,-0.32
376.56,1.85,2.19,1.84,2.18,-2.18,-1.76,-2.05,-0.33,-0.34,-0.33
380.33,1.87,2.22,1.88,2.22,-2.22,-1.75,-2.04,-0.35,-0.35,-0.34
384.13,1.90,2.26,1.90,2.26,-2.25,-1.74,-2.03,-0.35,-0.36,-0.35
387.97,1.92,2.29,1.92,2.29,-2.28,-1.74,-2.02,-0.36,-0.36,-0.36
391.85,1.94,2.32,1.94,2.31,-2.31,-1.74,-2.02,-0.36,-0.36,-0.37
395.77,1.96,2.33,1.96,2.33,-2.32,-1.73,-2.01,-0.36,-0.36,-0.36
399.73,1.96,2.34,1.96,2.34,-2.32,-1.73,-2.01,-0.36,-0.37,-0.37
403.72,1.95,2.34,1.95,2.33,-2.32,-1.73,-2.00,-0.37,-0.38,-0.38
407.76,1.92,2.32,1.93,2.32,-2.32,-1.74,-2.00,-0.40,-0.39,-0.39
411.84,1.90,2.29,1.90,2.30,-2.31,-1.74,-2.00,-0.41,-0.40,-0.38
415.96,1.88,2.29,1.88,2.27,-2.29,-1.74,-2.00,-0.41,-0.41,-0.40
420.12,1.85,2.26,1.86,2.26,-2.27,-1.75,-2.00,-0.42,-0.41,-0.40
424.32,1.83,2.24,1.83,2.24,-2.24,-1.75,-2.00,-0.41,-0.41,-0.40
428.56,1.81,2.23,1.80,2.22,-2.21,-1.76,-2.00,-0.40,-0.40,-0.41
432.85,1.77,2.19,1.77,2.18,-2.17,-1.76,-2.01,-0.40,-0.40,-0.41
437.18,1.72,2.14,1.72,2.14,-2.13,-1.77,-2.01,-0.41,-0.40,-0.41
441.55,1.67,2.08,1.67,2.08,-2.08,-1.78,-2.01,-0.41,-0.41,-0.40
445.96,1.62,2.03,1.62,2.03,-2.03,-1.79,-2.01,-0.41,-0.41,-0.40
450.42,1.56,1.98,1.56,1.97,-1.97,-1.80,-2.01,-0.41,-0.41,-0.41
454.93,1.51,1.92,1.51,1.92,-1.92,-1.81,-2.02,-0.41,-0.41,-0.40
459.48,1.46,1.87,1.46,1.86,-1.87,-1.82,-2.02,-0.41,-0.41,-0.40
464.07,1.41,1.81,1.42,1.81,-1.82,-1.83,-2.02,-0.41,-0.40,-0.39
468.71,1.38,1.77,1.38,1.77,-1.78,-1.84,-2.02,-0.40,-0.40,-0.38
473.40,1.34,1.74,1.34,1.73,-1.74,-1.86,-2.02,-0.40,-0.39,-0.39
478.13,1.32,1.71,1.32,1.71,-1.70,-1.87,-2.02,-0.38,-0.38,-0.38
482.91,1.30,1.69,1.30,1.68,-1.68,-1.88,-2.01,-0.38,-0.37,-0.38
487.74,1.29,1.67,1.29,1.66,-1.65,-1.89,-2.01,-0.36,-0.37,-0.37
492.62,1.27,1.64,1.27,1.64,-1.64,-1.91,-2.00,-0.37,-0.37,-0.36
497.55,1.25,1.62,1.25,1.61,-1.62,-1.92,-2.00,-0.37,-0.37,-0.36
502.52,1.24,1.60,1.25,1.60,-1.62,-1.93,-1.99,-0.38,-0.37,-0.35
507.55,1.25,1.61,1.25,1.60,-1.61,-1.94,-1.98,-0.36,-0.36,-0.35
512.62,1.26,1.62,1.26,1.61,-1.61,-1.96,-1.97,-0.35,-0.35,-0.35
517.75,1.26,1.61,1.26,1.61,-1.61,-1.97,-1.96,-0.34,-0.34,-0.34
522.93,1.27,1.62,1.27,1.61,-1.60,-1.98,-1.95,-0.33,-0.33,-0.34
528.16,1.27,1.62,1.27,1.62,-1.60,-1.99,-1.93,-0.33,-0.33,-0.34
