frequency,raw,error,smoothed,error_smoothed,equalization,parametric_eq,fixed_band_eq,equalized_raw,equalized_smoothed,target
20.00,3.04,2.72,3.04,2.72,-2.72,-2.77,-1.82,0.32,0.32,0.32
20.20,3.07,2.75,3.06,2.74,-2.74,-2.80,-1.88,0.33,0.32,0.32
20.40,3.08,2.76,3.09,2.76,-2.76,-2.84,-1.93,0.32,0.32,0.32
20.61,3.11,2.79,3.11,2.79,-2.79,-2.88,-1.99,0.32,0.32,0.32
20.81,3.14,2.82,3.13,2.81,-2.82,-2.91,-2.04,0.32,0.32,0.32
21.02,3.16,2.84,3.16,2.84,-2.85,-2.95,-2.10,0.31,0.31,0.32
21.23,3.18,2.88,3.18,2.88,-2.88,-2.99,-2.16,0.30,0.30,0.30
21.44,3.20,2.91,3.20,2.91,-2.91,-3.02,-2.23,0.29,0.29,0.29
21.66,3.22,2.95,3.22,2.95,-2.95,-3.06,-2.29,0.27,0.27,0.27
21.87,3.24,2.99,3.24,2.99,-2.99,-3.10,-2.36,0.25,0.26,0.25
22.09,3.27,3.03,3.26,3.03,-3.03,-3.14,-2.43,0.24,0.24,0.24
22.31,3.28,3.07,3.28,3.07,-3.07,-3.17,-2.50,0.21,0.21,0.21
22.54,3.30,3.11,3.30,3.11,-3.12,-3.21,-2.57,0.18,0.19,0.19
22.76,3.33,3.16,3.32,3.16,-3.16,-3.25,-2.64,0.17,0.16,0.17
22.99,3.35,3.21,3.35,3.21,-3.21,-3.28,-2.72,0.14,0.14,0.14
23.22,3.37,3.26,3.37,3.26,-3.26,-3.32,-2.80,0.11,0.12,0.11
23.45,3.40,3.32,3.40,3.31,-3.31,-3.36,-2.87,0.09,0.09,0.08
23.69,3.43,3.36,3.43,3.36,-3.35,-3.39,-2.95,0.08,0.07,0.07
23.92,3.45,3.40,3.45,3.40,-3.40,-3.43,-3.04,0.05,0.06,0.05
24.16,3.48,3.44,3.48,3.44,-3.44,-3.46,-3.12,0.04,0.04,0.04
24.40,3.50,3.48,3.50,3.48,-3.48,-3.50,-3.20,0.02,0.02,0.02
24.65,3.52,3.52,3.52,3.52,-3.52,-3.54,-3.29,-0.00,0.00,0.00
24.89,3.55,3.57,3.55,3.56,-3.56,-3.57,-3.38,-0.01,-0.02,-0.02
25.14,3.57,3.60,3.57,3.60,-3.60,-3.61,-3.47,-0.03,-0.03,-0.03
25.39,3.59,3.64,3.59,3.64,-3.64,-3.64,-3.55,-0.05,-0.05,-0.05
25.65,3.62,3.68,3.62,3.68,-3.68,-3.67,-3.64,-0.06,-0.07,-0.06
25.91,3.64,3.73,3.64,3.72,-3.72,-3.71,-3.73,-0.08,-0.08,-0.09
26.16,3.66,3.76,3.66,3.76,-3.76,-3.74,-3.82,-0.10,-0.10,-0.10
26.43,3.69,3.80,3.69,3.80,-3.80,-3.77,-3.91,-0.11,-0.12,-0.11
26.69,3.71,3.85,3.71,3.84,-3.84,-3.81,-3.99,-0.13,-0.13,-0.14
26.96,3.74,3.89,3.74,3.88,-3.88,-3.84,-4.08,-0.14,-0.14,-0.15
27.23,3.76,3.92,3.76,3.92,-3.92,-3.87,-4.16,-0.16,-0.16,-0.16
27.50,3.78,3.95,3.78,3.95,-3.96,-3.90,-4.24,-0.18,-0.17,-0.17
27.77,3.80,3.99,3.80,3.99,-3.99,-3.93,-4.32,-0.19,-0.19,-0.19
28.05,3.83,4.03,3.82,4.02,-4.02,-3.96,-4.40,-0.20,-0.20,-0.20
28.33,3.84,4.06,3.84,4.06,-4.06,-3.99,-4.47,-0.22,-0.21,-0.22
28.62,3.86,4.09,3.86,4.09,-4.09,-4.02,-4.54,-0.23,-0.23,-0.23
28.90,3.87,4.12,3.87,4.12,-4.12,-4.04,-4.60,-0.25,-0.25,-0.25
29.19,3.88,4.15,3.88,4.15,-4.14,-4.07,-4.66,-0.27,-0.26,-0.27
29.48,3.90,4.17,3.90,4.17,-4.17,-4.10,-4.72,-0.27,-0.27,-0.27
29.78,3.92,4.20,3.92,4.20,-4.20,-4.12,-4.77,-0.28,-0.28,-0.28
30.08,3.93,4.22,3.93,4.22,-4.22,-4.15,-4.81,-0.30,-0.29,-0.29
30.38,3.94,4.25,3.94,4.25,-4.25,-4.17,-4.84,-0.31,-0.31,-0.31
30.68,3.95,4.27,3.95,4.27,-4.27,-4.19,-4.87,-0.32,-0.32,-0.32
30.99,3.96,4.31,3.96,4.30,-4.30,-4.21,-4.90,-0.34,-0.34,-0.35
31.30,3.96,4.32,3.96,4.32,-4.32,-4.23,-4.91,-0.36,-0.35,-0.36
31.61,3.97,4.34,3.96,4.34,-4.34,-4.25,-4.92,-0.37,-0.37,-0.37
31.93,3.96,4.35,3.96,4.35,-4.36,-4.27,-4.93,-0.40,-0.40,-0.39
32.24,3.95,4.37,3.96,4.37,-4.37,-4.29,-4.92,-0.42,-0.41,-0.42
32.57,3.96,4.40,3.95,4.39,-4.39,-4.31,-4.91,-0.43,-0.43,-0.44
32.89,3.95,4.40,3.95,4.40,-4.40,-4.32,-4.90,-0.45,-0.45,-0.45
33.22,3.94,4.42,3.94,4.41,-4.41,-4.34,-4.88,-0.48,-0.47,-0.48
33.55,3.93,4.42,3.93,4.42,-4.43,-4.35,-4.85,-0.50,-0.50,-0.49
33.89,3.92,4.44,3.92,4.44,-4.44,-4.37,-4.82,-0.52,-0.52,-0.52
34.23,3.91,4.45,3.91,4.45,-4.45,-4.38,-4.78,-0.54,-0.54,-0.54
34.57,3.90,4.46,3.90,4.46,-4.46,-4.39,-4.74,-0.56,-0.56,-0.56
34.92,3.89,4.47,3.89,4.47,-4.46,-4.40,-4.70,-0.57,-0.57,-0.58
35.27,3.87,4.47,3.87,4.47,-4.47,-4.41,-4.66,-0.60,-0.60,-0.60
35.62,3.85,4.47,3.85,4.47,-4.47,-4.41,-4.61,-0.62,-0.62,-0.62
35.97,3.83,4.47,3.83,4.47,-4.47,-4.42,-4.56,-0.64,-0.64,-0.64
36.33,3.82,4.48,3.81,4.47,-4.47,-4.43,-4.51,-0.66,-0.66,-0.66
36.70,3.79,4.47,3.80,4.48,-4.48,-4.43,-4.45,-0.69,-0.68,-0.68
37.06,3.78,4.48,3.78,4.47,-4.48,-4.44,-4.40,-0.70,-0.70,-0.70
37.43,3.76,4.48,3.76,4.48,-4.47,-4.44,-4.35,-0.72,-0.72,-0.72
37.81,3.73,4.47,3.73,4.47,-4.47,-4.44,-4.29,-0.74,-0.74,-0.74
38.19,3.71,4.48,3.71,4.47,-4.47,-4.44,-4.24,-0.76,-0.76,-0.77
38.57,3.68,4.46,3.68,4.47,-4.47,-4.44,-4.19,-0.79,-0.78,-0.78
38.95,3.66,4.47,3.66,4.46,-4.46,-4.44,-4.14,-0.80,-0.81,-0.81
39.34,3.63,4.46,3.63,4.46,-4.46,-4.43,-4.09,-0.83,-0.83,-0.83
39.74,3.60,4.45,3.60,4.45,-4.45,-4.43,-4.04,-0.85,-0.85,-0.85
40.14,3.58,4.44,3.57,4.43,-4.44,-4.43,-3.99,-0.86,-0.87,-0.86
40.54,3.54,4.42,3.55,4.43,-4.43,-4.42,-3.95,-0.89,-0.88,-0.88
40.94,3.52,4.42,3.52,4.42,-4.42,-4.41,-3.91,-0.90,-0.90,-0.90
41.35,3.49,4.42,3.49,4.41,-4.40,-4.41,-3.87,-0.91,-0.91,-0.93
41.76,3.46,4.39,3.46,4.39,-4.39,-4.40,-3.83,-0.93,-0.93,-0.93
42.18,3.42,4.37,3.42,4.37,-4.37,-4.39,-3.80,-0.95,-0.95,-0.95
42.60,3.39,4.36,3.39,4.35,-4.36,-4.38,-3.77,-0.97,-0.97,-0.97
43.03,3.35,4.33,3.35,4.34,-4.34,-4.37,-3.74,-1.00,-0.99,-0.98
43.46,3.32,4.33,3.32,4.33,-4.33,-4.36,-3.71,-1.01,-1.01,-1.01
43.90,3.29,4.32,3.29,4.31,-4.32,-4.35,-3.69,-1.03,-1.03,-1.03
44.33,3.26,4.31,3.26,4.31,-4.31,-4.33,-3.67,-1.05,-1.05,-1.05
44.78,3.22,4.29,3.22,4.30,-4.29,-4.32,-3.65,-1.07,-1.07,-1.07
45.23,3.19,4.29,3.19,4.28,-4.28,-4.31,-3.64,-1.09,-1.09,-1.10
45.68,3.15,4.27,3.15,4.27,-4.26,-4.29,-3.62,-1.11,-1.11,-1.12
46.13,3.12,4.25,3.12,4.25,-4.24,-4.28,-3.61,-1.12,-1.12,-1.13
46.60,3.08,4.22,3.08,4.22,-4.22,-4.26,-3.61,-1.14,-1.14,-1.14
47.06,3.04,4.20,3.04,4.20,-4.20,-4.24,-3.60,-1.16,-1.16,-1.16
47.53,3.00,4.18,3.00,4.17,-4.18,-4.23,-3.60,-1.18,-1.18,-1.18
48.01,2.96,4.15,2.96,4.16,-4.16,-4.21,-3.60,-1.20,-1.20,-1.19
48.49,2.92,4.14,2.92,4.14,-4.14,-4.19,-3.61,-1.22,-1.22,-1.22
48.97,2.88,4.13,2.88,4.12,-4.12,-4.17,-3.61,-1.24,-1.25,-1.25
49.46,2.83,4.11,2.83,4.11,-4.11,-4.15,-3.62,-1.28,-1.27,-1.28
49.96,2.79,4.10,2.79,4.09,-4.09,-4.13,-3.63,-1.30,-1.30,-1.31
50.46,2.75,4.07,2.75,4.07,-4.07,-4.11,-3.64,-1.32,-1.32,-1.32
50.96,2.71,4.05,2.71,4.05,-4.05,-4.10,-3.66,-1.34,-1.34,-1.34
51.47,2.67,4.04,2.67,4.03,-4.03,-4.08,-3.67,-1.36,-1.37,-1.37
51.99,2.63,4.02,2.63,4.01,-4.01,-4.06,-3.69,-1.39,-1.39,-1.39
52.51,2.58,3.99,2.58,3.99,-3.99,-4.03,-3.71,-1.41,-1.41,-1.41
53.03,2.54,3.97,2.54,3.97,-3.97,-4.01,-3.72,-1.44,-1.43,-1.43
53.56,2.50,3.96,2.50,3.95,-3.96,-3.99,-3.74,-1.46,-1.46,-1.46
54.10,2.46,3.94,2.46,3.94,-3.94,-3.97,-3.76,-1.48,-1.48,-1.48
54.64,2.41,3.92,2.41,3.92,-3.92,-3.95,-3.78,-1.51,-1.51,-1.51
55.18,2.36,3.89,2.36,3.89,-3.90,-3.93,-3.80,-1.54,-1.53,-1.53
55.74,2.32,3.88,2.32,3.87,-3.87,-3.91,-3.82,-1.55,-1.56,-1.56
56.29,2.27,3.85,2.27,3.85,-3.85,-3.89,-3.84,-1.58,-1.58,-1.58
56.86,2.23,3.84,2.23,3.83,-3.83,-3.87,-3.86,-1.60,-1.60,-1.61
57.42,2.18,3.81,2.18,3.81,-3.81,-3.85,-3.87,-1.63,-1.63,-1.63
58.00,2.13,3.78,2.13,3.78,-3.78,-3.83,-3.89,-1.65,-1.65,-1.65
58.58,2.08,3.76,2.08,3.76,-3.76,-3.81,-3.90,-1.68,-1.67,-1.68
59.16,2.04,3.74,2.04,3.73,-3.73,-3.79,-3.91,-1.70,-1.70,-1.70
59.76,1.99,3.71,1.99,3.71,-3.71,-3.77,-3.92,-1.72,-1.72,-1.72
60.35,1.94,3.69,1.94,3.68,-3.69,-3.75,-3.92,-1.75,-1.75,-1.75
60.96,1.89,3.66,1.89,3.66,-3.67,-3.73,-3.93,-1.78,-1.78,-1.77
61.57,1.84,3.65,1.84,3.65,-3.65,-3.71,-3.93,-1.81,-1.81,-1.81
62.18,1.80,3.64,1.80,3.63,-3.63,-3.69,-3.93,-1.83,-1.84,-1.84
62.80,1.75,3.62,1.75,3.62,-3.61,-3.67,-3.92,-1.86,-1.87,-1.87
63.43,1.70,3.60,1.70,3.60,-3.59,-3.65,-3.91,-1.89,-1.89,-1.90
64.07,1.65,3.58,1.65,3.58,-3.57,-3.63,-3.90,-1.92,-1.92,-1.93
64.71,1.61,3.56,1.60,3.55,-3.55,-3.62,-3.89,-1.94,-1.95,-1.95
65.35,1.55,3.52,1.55,3.52,-3.53,-3.60,-3.87,-1.98,-1.97,-1.97
66.01,1.51,3.50,1.51,3.50,-3.50,-3.58,-3.86,-1.99,-1.99,-1.99
66.67,1.46,3.48,1.46,3.48,-3.48,-3.57,-3.84,-2.02,-2.02,-2.02
67.33,1.42,3.46,1.41,3.45,-3.45,-3.55,-3.81,-2.04,-2.04,-2.04
68.01,1.36,3.43,1.36,3.43,-3.43,-3.53,-3.79,-2.07,-2.07,-2.07
68.69,1.32,3.41,1.32,3.41,-3.41,-3.52,-3.76,-2.09,-2.09,-2.09
69.37,1.27,3.39,1.27,3.39,-3.39,-3.50,-3.74,-2.12,-2.12,-2.12
70.07,1.23,3.38,1.23,3.37,-3.37,-3.49,-3.71,-2.14,-2.14,-2.15
70.77,1.18,3.35,1.18,3.35,-3.35,-3.48,-3.68,-2.17,-2.17,-2.17
71.48,1.14,3.34,1.14,3.34,-3.34,-3.46,-3.65,-2.20,-2.20,-2.20
72.19,1.09,3.32,1.09,3.32,-3.32,-3.45,-3.62,-2.23,-2.23,-2.23
72.91,1.05,3.32,1.04,3.31,-3.31,-3.44,-3.59,-2.26,-2.27,-2.27
73.64,1.00,3.30,1.00,3.30,-3.30,-3.43,-3.56,-2.30,-2.30,-2.30
74.38,0.95,3.28,0.96,3.29,-3.29,-3.41,-3.53,-2.34,-2.34,-2.33
75.12,0.92,3.30,0.91,3.28,-3.28,-3.40,-3.50,-2.36,-2.37,-2.38
75.87,0.87,3.28,0.87,3.28,-3.28,-3.39,-3.47,-2.41,-2.41,-2.41
76.63,0.83,3.27,0.83,3.27,-3.27,-3.38,-3.45,-2.44,-2.44,-2.44
77.40,0.78,3.26,0.78,3.27,-3.27,-3.38,-3.42,-2.49,-2.48,-2.48
78.17,0.74,3.28,0.74,3.26,-3.26,-3.37,-3.40,-2.52,-2.52,-2.54
78.95,0.70,3.26,0.69,3.26,-3.26,-3.36,-3.37,-2.56,-2.57,-2.56
79.74,0.65,3.25,0.65,3.26,-3.26,-3.35,-3.35,-2.61,-2.61,-2.60
80.54,0.61,3.26,0.61,3.26,-3.26,-3.35,-3.33,-2.65,-2.65,-2.65
81.35,0.58,3.27,0.57,3.26,-3.26,-3.34,-3.32,-2.68,-2.69,-2.69
82.16,0.53,3.27,0.53,3.27,-3.27,-3.34,-3.30,-2.74,-2.73,-2.74
82.98,0.49,3.27,0.49,3.27,-3.27,-3.33,-3.29,-2.78,-2.78,-2.78
83.81,0.45,3.29,0.45,3.28,-3.28,-3.33,-3.28,-2.83,-2.83,-2.84
84.65,0.40,3.28,0.41,3.28,-3.28,-3.32,-3.27,-2.88,-2.88,-2.88
85.50,0.37,3.29,0.36,3.29,-3.29,-3.32,-3.26,-2.92,-2.93,-2.92
86.35,0.32,3.29,0.32,3.29,-3.30,-3.32,-3.26,-2.98,-2.97,-2.97
87.22,0.28,3.30,0.28,3.30,-3.30,-3.32,-3.26,-3.02,-3.02,-3.02
88.09,0.24,3.32,0.24,3.31,-3.31,-3.32,-3.26,-3.07,-3.07,-3.08
88.97,0.20,3.32,0.20,3.32,-3.32,-3.32,-3.27,-3.12,-3.12,-3.12
89.86,0.16,3.33,0.16,3.33,-3.33,-3.32,-3.27,-3.17,-3.17,-3.17
90.76,0.11,3.34,0.11,3.34,-3.34,-3.32,-3.28,-3.23,-3.22,-3.23
91.66,0.07,3.35,0.07,3.35,-3.35,-3.32,-3.29,-3.28,-3.28,-3.28
92.58,0.03,3.37,0.03,3.36,-3.36,-3.33,-3.31,-3.33,-3.33,-3.34
93.51,-0.02,3.36,-0.01,3.37,-3.37,-3.33,-3.32,-3.39,-3.38,-3.38
94.44,-0.05,3.38,-0.05,3.38,-3.38,-3.33,-3.34,-3.43,-3.44,-3.43
95.39,-0.09,3.40,-0.10,3.39,-3.40,-3.34,-3.36,-3.49,-3.49,-3.49
96.34,-0.14,3.42,-0.14,3.41,-3.41,-3.34,-3.38,-3.55,-3.55,-3.56
97.30,-0.18,3.43,-0.18,3.43,-3.43,-3.35,-3.41,-3.61,-3.61,-3.61
98.28,-0.22,3.45,-0.22,3.45,-3.45,-3.36,-3.43,-3.67,-3.67,-3.67
99.26,-0.26,3.48,-0.26,3.47,-3.47,-3.36,-3.46,-3.73,-3.73,-3.74
100.25,-0.30,3.49,-0.30,3.49,-3.49,-3.37,-3.49,-3.79,-3.79,-3.79
101.25,-0.35,3.50,-0.35,3.51,-3.51,-3.38,-3.52,-3.86,-3.85,-3.85
102.27,-0.39,3.53,-0.39,3.53,-3.53,-3.39,-3.55,-3.92,-3.92,-3.92
103.29,-0.43,3.56,-0.43,3.55,-3.54,-3.40,-3.59,-3.98,-3.98,-3.99
104.32,-0.48,3.56,-0.48,3.56,-3.56,-3.41,-3.62,-4.05,-4.04,-4.04
105.37,-0.52,3.58,-0.52,3.58,-3.58,-3.42,-3.66,-4.10,-4.11,-4.10
106.42,-0.57,3.60,-0.57,3.60,-3.60,-3.43,-3.69,-4.18,-4.17,-4.17
107.48,-0.61,3.63,-0.61,3.63,-3.63,-3.44,-3.73,-4.24,-4.24,-4.24
108.56,-0.65,3.66,-0.66,3.65,-3.65,-3.46,-3.77,-4.30,-4.30,-4.31
109.64,-0.70,3.67,-0.70,3.67,-3.67,-3.47,-3.80,-4.37,-4.37,-4.37
110.74,-0.74,3.69,-0.74,3.69,-3.69,-3.48,-3.84,-4.44,-4.43,-4.43
111.85,-0.78,3.72,-0.79,3.71,-3.72,-3.50,-3.87,-4.50,-4.51,-4.50
112.97,-0.83,3.75,-0.83,3.74,-3.74,-3.51,-3.90,-4.58,-4.57,-4.58
114.10,-0.88,3.76,-0.87,3.77,-3.77,-3.53,-3.93,-4.65,-4.64,-4.64
115.24,-0.91,3.80,-0.92,3.79,-3.79,-3.55,-3.96,-4.70,-4.71,-4.71
116.39,-0.96,3.82,-0.96,3.82,-3.82,-3.56,-3.99,-4.78,-4.78,-4.78
117.55,-1.00,3.85,-1.00,3.84,-3.84,-3.58,-4.02,-4.84,-4.84,-4.85
118.73,-1.05,3.86,-1.05,3.86,-3.86,-3.60,-4.04,-4.91,-4.91,-4.91
119.92,-1.09,3.88,-1.09,3.88,-3.88,-3.61,-4.06,-4.97,-4.97,-4.97
121.12,-1.14,3.89,-1.14,3.89,-3.89,-3.63,-4.08,-5.03,-5.03,-5.03
122.33,-1.18,3.92,-1.18,3.91,-3.91,-3.65,-4.09,-5.09,-5.09,-5.10
123.55,-1.23,3.92,-1.23,3.92,-3.92,-3.67,-4.10,-5.15,-5.15,-5.15
124.79,-1.27,3.94,-1.27,3.94,-3.94,-3.69,-4.11,-5.21,-5.21,-5.21
126.03,-1.31,3.95,-1.31,3.95,-3.95,-3.71,-4.11,-5.26,-5.27,-5.26
127.29,-1.36,3.96,-1.36,3.97,-3.97,-3.73,-4.11,-5.33,-5.33,-5.32
128.57,-1.40,3.99,-1.40,3.98,-3.98,-3.75,-4.11,-5.38,-5.38,-5.39
129.85,-1.44,4.00,-1.44,4.00,-4.00,-3.77,-4.10,-5.44,-5.44,-5.44
131.15,-1.48,4.01,-1.48,4.01,-4.01,-3.79,-4.10,-5.49,-5.49,-5.49
132.46,-1.52,4.03,-1.52,4.02,-4.02,-3.81,-4.08,-5.54,-5.54,-5.55
133.79,-1.56,4.03,-1.56,4.03,-4.03,-3.83,-4.07,-5.59,-5.59,-5.59
135.12,-1.61,4.04,-1.61,4.03,-4.03,-3.86,-4.05,-5.64,-5.64,-5.65
136.48,-1.65,4.03,-1.65,4.03,-4.04,-3.88,-4.04,-5.69,-5.69,-5.68
137.84,-1.69,4.03,-1.69,4.03,-4.03,-3.90,-4.02,-5.73,-5.73,-5.72
139.22,-1.73,4.04,-1.73,4.03,-4.03,-3.92,-4.00,-5.76,-5.76,-5.77
140.61,-1.77,4.04,-1.77,4.03,-4.03,-3.94,-3.97,-5.80,-5.80,-5.81
142.02,-1.81,4.02,-1.81,4.02,-4.02,-3.97,-3.95,-5.83,-5.83,-5.83
143.44,-1.85,4.01,-1.85,4.01,-4.02,-3.99,-3.93,-5.87,-5.87,-5.86
144.87,-1.89,4.01,-1.89,4.01,-4.01,-4.01,-3.90,-5.90,-5.90,-5.90
146.32,-1.92,4.01,-1.92,4.00,-4.00,-4.03,-3.88,-5.92,-5.93,-5.93
147.78,-1.96,3.99,-1.96,4.00,-3.99,-4.05,-3.85,-5.95,-5.95,-5.95
149.26,-1.99,3.99,-2.00,3.99,-3.99,-4.08,-3.83,-5.98,-5.98,-5.98
150.75,-2.04,3.98,-2.03,3.98,-3.98,-4.10,-3.81,-6.02,-6.01,-6.02
152.26,-2.07,3.97,-2.07,3.97,-3.97,-4.12,-3.78,-6.04,-6.04,-6.04
153.78,-2.10,3.97,-2.11,3.96,-3.96,-4.14,-3.76,-6.06,-6.06,-6.07
155.32,-2.14,3.95,-2.14,3.95,-3.95,-4.16,-3.75,-6.09,-6.09,-6.09
156.88,-2.18,3.94,-2.18,3.94,-3.94,-4.18,-3.73,-6.12,-6.12,-6.12
158.44,-2.21,3.94,-2.21,3.94,-3.94,-4.20,-3.71,-6.15,-6.15,-6.15
160.03,-2.24,3.94,-2.24,3.94,-3.94,-4.22,-3.70,-6.18,-6.18,-6.18
161.63,-2.27,3.94,-2.27,3.94,-3.94,-4.24,-3.69,-6.21,-6.21,-6.21
163.24,-2.29,3.95,-2.29,3.94,-3.95,-4.26,-3.68,-6.24,-6.24,-6.24
164.88,-2.30,3.96,-2.30,3.96,-3.96,-4.28,-3.68,-6.26,-6.26,-6.26
166.53,-2.31,3.97,-2.31,3.98,-3.98,-4.30,-3.67,-6.29,-6.29,-6.28
168.19,-2.31,4.01,-2.31,4.00,-4.01,-4.32,-3.67,-6.32,-6.32,-6.32
169.87,-2.32,4.03,-2.32,4.03,-4.03,-4.33,-3.67,-6.36,-6.35,-6.35
171.57,-2.31,4.07,-2.31,4.06,-4.07,-4.35,-3.68,-6.38,-6.38,-6.38
173.29,-2.31,4.09,-2.31,4.10,-4.10,-4.37,-3.68,-6.41,-6.41,-6.40
175.02,-2.30,4.14,-2.30,4.14,-4.13,-4.38,-3.69,-6.43,-6.44,-6.44
176.77,-2.30,4.18,-2.30,4.17,-4.17,-4.39,-3.71,-6.47,-6.47,-6.48
178.54,-2.31,4.21,-2.31,4.21,-4.19,-4.41,-3.72,-6.51,-6.50,-6.52
180.32,-2.32,4.23,-2.32,4.22,-4.22,-4.42,-3.74,-6.54,-6.54,-6.55
182.13,-2.34,4.24,-2.34,4.24,-4.24,-4.43,-3.76,-6.58,-6.58,-6.58
183.95,-2.37,4.25,-2.36,4.26,-4.26,-4.44,-3.78,-6.63,-6.62,-6.62
185.79,-2.38,4.28,-2.39,4.27,-4.27,-4.46,-3.81,-6.65,-6.66,-6.66
187.65,-2.41,4.29,-2.41,4.29,-4.28,-4.46,-3.84,-6.69,-6.69,-6.70
189.52,-2.44,4.29,-2.43,4.29,-4.30,-4.47,-3.87,-6.74,-6.73,-6.73
191.42,-2.44,4.31,-2.45,4.30,-4.31,-4.48,-3.91,-6.75,-6.76,-6.75
193.33,-2.46,4.31,-2.46,4.31,-4.33,-4.49,-3.94,-6.79,-6.79,-6.77
195.27,-2.46,4.34,-2.46,4.34,-4.35,-4.49,-3.98,-6.81,-6.81,-6.80
197.22,-2.47,4.36,-2.47,4.37,-4.37,-4.50,-4.02,-6.84,-6.83,-6.83
199.19,-2.47,4.41,-2.47,4.39,-4.38,-4.50,-4.06,-6.86,-6.86,-6.88
201.18,-2.48,4.41,-2.48,4.41,-4.40,-4.50,-4.11,-6.88,-6.88,-6.89
203.19,-2.49,4.42,-2.49,4.42,-4.42,-4.50,-4.15,-6.91,-6.91,-6.91
205.23,-2.50,4.43,-2.50,4.42,-4.43,-4.50,-4.20,-6.93,-6.93,-6.93
207.28,-2.51,4.43,-2.51,4.43,-4.43,-4.50,-4.25,-6.94,-6.95,-6.94
209.35,-2.53,4.44,-2.53,4.44,-4.43,-4.50,-4.30,-6.96,-6.96,-6.97
211.44,-2.55,4.44,-2.55,4.43,-4.43,-4.50,-4.34,-6.98,-6.98,-6.99
213.56,-2.58,4.43,-2.58,4.42,-4.42,-4.49,-4.39,-7.00,-7.00,-7.01
215.69,-2.61,4.40,-2.61,4.40,-4.41,-4.49,-4.44,-7.02,-7.02,-7.01
217.85,-2.64,4.38,-2.64,4.39,-4.40,-4.48,-4.49,-7.04,-7.03,-7.02
220.03,-2.66,4.39,-2.66,4.38,-4.38,-4.47,-4.53,-7.04,-7.04,-7.05
222.23,-2.69,4.37,-2.69,4.36,-4.36,-4.47,-4.58,-7.05,-7.05,-7.06
224.45,-2.72,4.33,-2.72,4.34,-4.33,-4.46,-4.62,-7.05,-7.05,-7.05
226.70,-2.75,4.31,-2.75,4.31,-4.31,-4.45,-4.66,-7.06,-7.06,-7.06
228.96,-2.78,4.28,-2.78,4.27,-4.28,-4.43,-4.69,-7.06,-7.06,-7.06
231.25,-2.81,4.24,-2.81,4.24,-4.24,-4.42,-4.73,-7.05,-7.05,-7.05
233.57,-2.84,4.20,-2.84,4.20,-4.21,-4.41,-4.76,-7.05,-7.05,-7.04
235.90,-2.87,4.17,-2.87,4.17,-4.17,-4.39,-4.78,-7.04,-7.04,-7.04
238.26,-2.90,4.14,-2.90,4.13,-4.12,-4.37,-4.80,-7.02,-7.03,-7.04
240.64,-2.94,4.08,-2.94,4.08,-4.07,-4.36,-4.81,-7.02,-7.01,-7.02
243.05,-2.97,4.03,-2.97,4.03,-4.02,-4.34,-4.82,-6.99,-7.00,-7.00
245.48,-3.01,3.97,-3.01,3.98,-3.97,-4.32,-4.83,-6.98,-6.98,-6.98
247.93,-3.04,3.93,-3.04,3.92,-3.91,-4.30,-4.83,-6.95,-6.96,-6.97
250.41,-3.08,3.88,-3.08,3.87,-3.86,-4.28,-4.82,-6.94,-6.94,-6.96
252.92,-3.11,3.81,-3.11,3.81,-3.81,-4.25,-4.81,-6.92,-6.93,-6.92
255.45,-3.14,3.76,-3.14,3.76,-3.77,-4.23,-4.79,-6.91,-6.91,-6.90
258.00,-3.15,3.73,-3.15,3.73,-3.75,-4.21,-4.76,-6.90,-6.89,-6.88
260.58,-3.13,3.73,-3.14,3.72,-3.74,-4.18,-4.73,-6.87,-6.87,-6.86
263.19,-3.11,3.73,-3.11,3.73,-3.75,-4.16,-4.70,-6.86,-6.85,-6.84
265.82,-3.05,3.77,-3.05,3.76,-3.77,-4.13,-4.66,-6.83,-6.83,-6.82
268.48,-2.98,3.81,-2.98,3.81,-3.83,-4.10,-4.61,-6.81,-6.80,-6.79
271.16,-2.88,3.88,-2.88,3.88,-3.90,-4.07,-4.56,-6.78,-6.78,-6.76
273.87,-2.77,3.97,-2.77,3.96,-3.98,-4.05,-4.51,-6.75,-6.75,-6.74
276.61,-2.65,4.06,-2.65,4.07,-4.07,-4.02,-4.45,-6.72,-6.72,-6.71
279.38,-2.51,4.18,-2.52,4.17,-4.17,-3.99,-4.39,-6.68,-6.68,-6.69
282.17,-2.39,4.28,-2.39,4.28,-4.26,-3.96,-4.33,-6.65,-6.65,-6.67
284.99,-2.27,4.37,-2.27,4.37,-4.35,-3.92,-4.27,-6.62,-6.63,-6.64
287.84,-2.18,4.44,-2.17,4.44,-4.43,-3.89,-4.20,-6.61,-6.60,-6.62
290.72,-2.08,4.50,-2.08,4.50,-4.49,-3.86,-4.13,-6.57,-6.57,-6.58
293.63,-2.01,4.55,-2.01,4.54,-4.54,-3.83,-4.06,-6.55,-6.55,-6.56
296.57,-1.95,4.58,-1.95,4.58,-4.56,-3.80,-3.99,-6.52,-6.52,-6.53
299.53,-1.92,4.58,-1.92,4.58,-4.58,-3.76,-3.92,-6.50,-6.49,-6.50
302.53,-1.89,4.59,-1.89,4.58,-4.57,-3.73,-3.85,-6.46,-6.47,-6.48
305.55,-1.88,4.55,-1.88,4.56,-4.56,-3.70,-3.78,-6.44,-6.44,-6.43
308.61,-1.86,4.54,-1.86,4.53,-4.54,-3.66,-3.71,-6.40,-6.40,-6.40
311.69,-1.86,4.50,-1.86,4.50,-4.51,-3.63,-3.65,-6.37,-6.37,-6.36
314.81,-1.86,4.47,-1.86,4.46,-4.47,-3.59,-3.58,-6.33,-6.33,-6.33
317.96,-1.88,4.42,-1.87,4.43,-4.43,-3.56,-3.51,-6.31,-6.30,-6.30
321.14,-1.88,4.39,-1.89,4.39,-4.39,-3.52,-3.45,-6.27,-6.27,-6.27
324.35,-1.90,4.35,-1.90,4.34,-4.35,-3.49,-3.38,-6.25,-6.24,-6.25
327.59,-1.91,4.30,-1.91,4.30,-4.30,-3.45,-3.32,-6.22,-6.21,-6.21
330.87,-1.92,4.26,-1.92,4.26,-4.27,-3.42,-3.26,-6.19,-6.19,-6.18
334.18,-1.94,4.22,-1.94,4.22,-4.23,-3.38,-3.20,-6.17,-6.17,-6.16
337.52,-1.95,4.19,-1.95,4.18,-4.20,-3.35,-3.15,-6.15,-6.15,-6.14
340.90,-1.97,4.14,-1.97,4.14,-4.16,-3.31,-3.09,-6.13,-6.13,-6.11
344.30,-1.99,4.10,-1.99,4.10,-4.11,-3.28,-3.04,-6.10,-6.10,-6.09
347.75,-2.01,4.05,-2.00,4.06,-4.05,-3.24,-2.99,-6.06,-6.05,-6.06
351.23,-2.02,4.02,-2.03,4.01,-3.97,-3.21,-2.95,-5.99,-6.00,-6.04
354.74,-2.07,3.96,-2.10,3.93,-3.88,-3.17,-2.90,-5.95,-5.98,-6.03
358.28,-2.21,3.80,-2.20,3.80,-3.77,-3.14,-2.86,-5.98,-5.97,-6.01
361.87,-2.35,3.64,-2.34,3.65,-3.65,-3.11,-2.82,-6.00,-5.99,-5.99
365.49,-2.48,3.48,-2.48,3.48,-3.51,-3.07,-2.78,-5.99,-6.00,-5.96
369.14,-2.61,3.34,-2.61,3.34,-3.37,-3.04,-2.74,-5.98,-5.98,-5.95
372.83,-2.73,3.21,-2.73,3.20,-3.22,-3.00,-2.71,-5.95,-5.95,-5.94
376.56,-2.84,3.08,-2.85,3.07,-3.07,-2.97,-2.67,-5.91,-5.92,-5.92
380.33,-2.96,2.93,-2.96,2.93,-2.93,-2.94,-2.64,-5.89,-5.89,-5.89
384.13,-3.07,2.80,-3.07,2.80,-2.80,-2.91,-2.61,-5.87,-5.87,-5.87
387.97,-3.18,2.67,-3.18,2.67,-2.67,-2.87,-2.59,-5.85,-5.85,-5.85
391.85,-3.28,2.55,-3.28,2.55,-2.55,-2.84,-2.56,-5.83,-5.83,-5.83
395.77,-3.37,2.43,-3.37,2.43,-2.44,-2.81,-2.54,-5.81,-5.80,-5.80
399.73,-3.45,2.33,-3.46,2.33,-2.32,-2.78,-2.52,-5.77,-5.78,-5.78
403.72,-3.54,2.23,-3.54,2.22,-2.22,-2.75,-2.50,-5.76,-5.76,-5.77
407.76,-3.62,2.13,-3.62,2.12,-2.12,-2.72,-2.49,-5.74,-5.74,-5.75
411.84,-3.70,2.02,-3.69,2.03,-2.03,-2.69,-2.47,-5.73,-5.72,-5.72
415.96,-3.75,1.95,-3.76,1.94,-1.94,-2.66,-2.46,-5.69,-5.70,-5.70
420.12,-3.81,1.87,-3.81,1.87,-1.86,-2.63,-2.44,-5.67,-5.67,-5.68
424.32,-3.85,1.80,-3.85,1.80,-1.79,-2.61,-2.43,-5.64,-5.64,-5.65
428.56,-3.89,1.74,-3.89,1.74,-1.73,-2.58,-2.42,-5.62,-5.62,-5.63
432.85,-3.92,1.69,-3.92,1.69,-1.68,-2.55,-2.41,-5.60,-5.60,-5.61
437.18,-3.93,1.65,-3.94,1.64,-1.65,-2.53,-2.40,-5.58,-5.59,-5.58
441.55,-3.94,1.61,-3.94,1.61,-1.64,-2.50,-2.40,-5.58,-5.58,-5.55
445.96,-3.94,1.59,-3.92,1.61,-1.64,-2.48,-2.39,-5.58,-5.56,-5.53
450.42,-3.86,1.66,-3.87,1.64,-1.66,-2.46,-2.39,-5.52,-5.53,-5.52
