frequency,raw,error,smoothed,error_smoothed,equalization,parametric_eq,fixed_band_eq,equalized_raw,equalized_smoothed,target
20.00,5.15,-3.46,5.15,-3.47,3.47,2.86,1.36,8.62,8.61,8.61
20.20,5.16,-3.44,5.16,-3.44,3.44,2.87,1.40,8.60,8.60,8.60
20.40,5.17,-3.42,5.17,-3.42,3.42,2.89,1.45,8.59,8.59,8.59
20.61,5.18,-3.40,5.18,-3.39,3.39,2.91,1.49,8.57,8.57,8.58
20.81,5.19,-3.37,5.20,-3.37,3.37,2.93,1.53,8.56,8.56,8.56
21.02,5.20,-3.34,5.21,-3.34,3.34,2.94,1.58,8.55,8.55,8.55
21.23,5.21,-3.32,5.22,-3.32,3.32,2.96,1.62,8.53,8.54,8.54
21.44,5.23,-3.31,5.23,-3.30,3.30,2.97,1.67,8.53,8.53,8.54
21.66,5.24,-3.28,5.24,-3.28,3.28,2.99,1.72,8.52,8.52,8.52
21.87,5.25,-3.27,5.25,-3.26,3.26,3.00,1.77,8.51,8.51,8.52
22.09,5.26,-3.24,5.26,-3.24,3.24,3.02,1.82,8.50,8.51,8.50
22.31,5.28,-3.22,5.28,-3.22,3.22,3.03,1.88,8.50,8.50,8.50
22.54,5.29,-3.20,5.29,-3.20,3.20,3.04,1.93,8.50,8.49,8.49
22.76,5.30,-3.19,5.30,-3.19,3.19,3.06,1.99,8.49,8.49,8.49
22.99,5.31,-3.17,5.31,-3.17,3.17,3.07,2.05,8.48,8.48,8.48
23.22,5.32,-3.14,5.32,-3.15,3.15,3.08,2.11,8.48,8.48,8.47
23.45,5.33,-3.14,5.33,-3.14,3.14,3.09,2.17,8.47,8.47,8.47
23.69,5.34,-3.12,5.34,-3.12,3.12,3.10,2.23,8.46,8.46,8.46
23.92,5.35,-3.10,5.35,-3.11,3.11,3.11,2.29,8.46,8.46,8.45
24.16,5.36,-3.10,5.36,-3.09,3.09,3.12,2.35,8.46,8.46,8.46
24.40,5.37,-3.09,5.37,-3.08,3.08,3.13,2.42,8.45,8.45,8.46
24.65,5.38,-3.08,5.38,-3.07,3.07,3.14,2.48,8.45,8.45,8.46
24.89,5.39,-3.06,5.39,-3.06,3.06,3.14,2.54,8.45,8.45,8.46
25.14,5.40,-3.04,5.40,-3.05,3.05,3.15,2.61,8.45,8.45,8.44
25.39,5.41,-3.03,5.41,-3.03,3.03,3.16,2.68,8.45,8.45,8.44
25.65,5.42,-3.02,5.42,-3.02,3.02,3.16,2.74,8.45,8.44,8.44
25.91,5.43,-3.01,5.43,-3.01,3.01,3.17,2.81,8.44,8.44,8.44
26.16,5.44,-3.00,5.44,-3.00,3.00,3.17,2.87,8.44,8.44,8.45
26.43,5.44,-3.00,5.45,-2.99,2.99,3.17,2.94,8.44,8.44,8.44
26.69,5.45,-2.99,5.45,-2.99,2.99,3.17,3.00,8.44,8.44,8.44
26.96,5.46,-2.98,5.46,-2.98,2.98,3.18,3.06,8.44,8.44,8.44
27.23,5.47,-2.97,5.47,-2.97,2.97,3.18,3.12,8.44,8.44,8.44
27.50,5.48,-2.95,5.48,-2.97,2.97,3.18,3.18,8.45,8.44,8.43
27.77,5.48,-2.96,5.48,-2.96,2.96,3.18,3.23,8.44,8.44,8.44
28.05,5.49,-2.95,5.49,-2.95,2.95,3.17,3.29,8.44,8.44,8.44
28.33,5.50,-2.95,5.50,-2.95,2.95,3.17,3.34,8.45,8.44,8.45
28.62,5.50,-2.94,5.50,-2.94,2.94,3.17,3.38,8.44,8.44,8.44
28.90,5.51,-2.94,5.51,-2.93,2.93,3.17,3.42,8.44,8.44,8.45
29.19,5.51,-2.94,5.52,-2.93,2.93,3.16,3.46,8.44,8.44,8.45
29.48,5.52,-2.92,5.52,-2.92,2.92,3.16,3.50,8.44,8.44,8.44
29.78,5.53,-2.91,5.53,-2.91,2.91,3.15,3.53,8.44,8.44,8.44
30.08,5.53,-2.91,5.53,-2.90,2.90,3.14,3.55,8.43,8.43,8.44
30.38,5.53,-2.89,5.54,-2.89,2.89,3.13,3.57,8.43,8.43,8.42
30.68,5.54,-2.88,5.54,-2.89,2.89,3.12,3.58,8.43,8.42,8.42
30.99,5.54,-2.88,5.54,-2.88,2.88,3.11,3.59,8.42,8.42,8.42
31.30,5.54,-2.87,5.55,-2.87,2.87,3.10,3.59,8.41,8.41,8.41
31.61,5.55,-2.86,5.55,-2.85,2.85,3.09,3.59,8.41,8.40,8.41
31.93,5.55,-2.83,5.55,-2.84,2.84,3.08,3.58,8.40,8.40,8.38
32.24,5.55,-2.84,5.55,-2.84,2.84,3.07,3.56,8.39,8.39,8.39
32.57,5.55,-2.82,5.55,-2.83,2.83,3.05,3.55,8.38,8.38,8.37
32.89,5.55,-2.82,5.55,-2.82,2.82,3.04,3.52,8.37,8.37,8.37
33.22,5.55,-2.81,5.55,-2.81,2.81,3.02,3.49,8.37,8.36,8.36
33.55,5.55,-2.81,5.55,-2.81,2.81,3.01,3.46,8.36,8.36,8.36
33.89,5.55,-2.79,5.55,-2.80,2.80,2.99,3.42,8.35,8.35,8.34
34.23,5.55,-2.78,5.54,-2.79,2.79,2.97,3.38,8.34,8.34,8.33
34.57,5.54,-2.78,5.54,-2.78,2.78,2.95,3.33,8.33,8.33,8.32
34.92,5.53,-2.77,5.54,-2.78,2.78,2.93,3.28,8.31,8.32,8.31
35.27,5.53,-2.79,5.54,-2.77,2.77,2.91,3.23,8.30,8.30,8.32
35.62,5.53,-2.76,5.54,-2.76,2.76,2.89,3.18,8.29,8.29,8.29
35.97,5.53,-2.75,5.53,-2.74,2.74,2.87,3.12,8.27,8.28,8.29
36.33,5.53,-2.74,5.53,-2.73,2.73,2.84,3.06,8.26,8.26,8.27
36.70,5.53,-2.71,5.53,-2.71,2.71,2.82,3.00,8.24,8.24,8.24
37.06,5.53,-2.69,5.53,-2.69,2.69,2.79,2.94,8.23,8.22,8.22
37.43,5.53,-2.67,5.53,-2.68,2.68,2.77,2.88,8.21,8.21,8.21
37.81,5.53,-2.66,5.53,-2.65,2.65,2.74,2.82,8.19,8.18,8.19
38.19,5.53,-2.63,5.53,-2.63,2.63,2.71,2.76,8.16,8.16,8.16
38.57,5.53,-2.61,5.53,-2.61,2.61,2.68,2.70,8.14,8.14,8.14
38.95,5.53,-2.59,5.53,-2.58,2.58,2.66,2.63,8.12,8.12,8.12
39.34,5.53,-2.56,5.53,-2.56,2.56,2.63,2.57,8.09,8.09,8.09
39.74,5.53,-2.53,5.53,-2.54,2.54,2.59,2.51,8.07,8.07,8.06
40.14,5.53,-2.51,5.53,-2.51,2.51,2.56,2.45,8.04,8.04,8.04
40.54,5.53,-2.49,5.53,-2.49,2.49,2.53,2.39,8.02,8.02,8.02
40.94,5.53,-2.46,5.53,-2.46,2.46,2.50,2.34,7.99,7.99,7.99
41.35,5.53,-2.43,5.53,-2.44,2.44,2.46,2.28,7.97,7.97,7.97
41.76,5.53,-2.40,5.53,-2.41,2.41,2.43,2.22,7.94,7.94,7.93
42.18,5.53,-2.39,5.53,-2.38,2.38,2.39,2.17,7.92,7.92,7.92
42.60,5.53,-2.36,5.53,-2.36,2.36,2.36,2.12,7.89,7.89,7.89
43.03,5.53,-2.33,5.53,-2.33,2.33,2.32,2.06,7.86,7.86,7.86
43.46,5.53,-2.30,5.53,-2.30,2.30,2.28,2.02,7.83,7.83,7.83
43.90,5.53,-2.27,5.53,-2.27,2.27,2.24,1.97,7.81,7.81,7.81
44.33,5.53,-2.24,5.53,-2.24,2.24,2.21,1.92,7.77,7.77,7.77
44.78,5.53,-2.21,5.53,-2.21,2.21,2.17,1.87,7.74,7.74,7.75
45.23,5.53,-2.19,5.53,-2.18,2.18,2.13,1.83,7.71,7.71,7.72
45.68,5.53,-2.14,5.53,-2.14,2.14,2.09,1.79,7.67,7.67,7.67
46.13,5.53,-2.10,5.53,-2.10,2.10,2.04,1.75,7.63,7.63,7.63
46.60,5.53,-2.07,5.53,-2.06,2.06,2.00,1.71,7.59,7.59,7.60
47.06,5.53,-2.03,5.53,-2.02,2.02,1.96,1.67,7.55,7.55,7.56
47.53,5.53,-1.99,5.53,-1.98,1.98,1.92,1.63,7.51,7.51,7.52
48.01,5.53,-1.93,5.53,-1.93,1.93,1.87,1.60,7.46,7.46,7.46
48.49,5.53,-1.89,5.53,-1.89,1.89,1.83,1.56,7.42,7.42,7.42
48.97,5.53,-1.84,5.53,-1.84,1.84,1.78,1.53,7.37,7.37,7.37
49.46,5.53,-1.79,5.53,-1.80,1.80,1.74,1.50,7.33,7.33,7.33
49.96,5.53,-1.73,5.53,-1.75,1.75,1.69,1.47,7.28,7.28,7.26
50.46,5.53,-1.70,5.53,-1.70,1.70,1.65,1.44,7.23,7.23,7.23
50.96,5.53,-1.65,5.53,-1.65,1.65,1.60,1.41,7.18,7.19,7.18
51.47,5.53,-1.61,5.53,-1.60,1.60,1.55,1.38,7.14,7.14,7.14
51.99,5.53,-1.55,5.54,-1.56,1.56,1.50,1.35,7.09,7.09,7.08
52.51,5.53,-1.52,5.54,-1.51,1.51,1.46,1.33,7.04,7.04,7.05
53.03,5.53,-1.48,5.54,-1.46,1.46,1.41,1.30,6.99,7.00,7.01
53.56,5.54,-1.42,5.54,-1.41,1.41,1.36,1.27,6.95,6.95,6.96
54.10,5.54,-1.36,5.55,-1.36,1.36,1.31,1.25,6.90,6.91,6.90
54.64,5.55,-1.31,5.55,-1.31,1.31,1.26,1.22,6.86,6.86,6.86
55.18,5.55,-1.26,5.55,-1.27,1.27,1.21,1.20,6.82,6.82,6.81
55.74,5.55,-1.20,5.55,-1.22,1.22,1.16,1.17,6.77,6.77,6.76
56.29,5.55,-1.17,5.55,-1.18,1.18,1.11,1.15,6.73,6.73,6.72
56.86,5.55,-1.13,5.55,-1.13,1.13,1.06,1.12,6.69,6.68,6.68
57.42,5.55,-1.07,5.54,-1.09,1.09,1.01,1.09,6.64,6.63,6.62
58.00,5.54,-1.03,5.53,-1.05,1.05,0.96,1.07,6.59,6.58,6.58
58.58,5.53,-1.01,5.53,-1.01,1.01,0.91,1.04,6.54,6.53,6.54
59.16,5.52,-0.98,5.51,-0.96,0.96,0.85,1.01,6.49,6.48,6.50
59.76,5.50,-0.95,5.50,-0.92,0.92,0.80,0.98,6.43,6.43,6.45
60.35,5.48,-0.91,5.49,-0.88,0.88,0.75,0.95,6.37,6.37,6.39
60.96,5.47,-0.85,5.47,-0.84,0.84,0.70,0.92,6.32,6.31,6.33
61.57,5.45,-0.80,5.45,-0.80,0.80,0.65,0.89,6.26,6.26,6.25
62.18,5.42,-0.77,5.43,-0.76,0.76,0.59,0.86,6.19,6.19,6.19
62.80,5.41,-0.71,5.41,-0.72,0.72,0.54,0.82,6.13,6.13,6.12
63.43,5.39,-0.66,5.39,-0.68,0.68,0.49,0.79,6.07,6.07,6.06
64.07,5.37,-0.63,5.37,-0.64,0.64,0.43,0.75,6.01,6.01,6.00
64.71,5.34,-0.60,5.34,-0.60,0.60,0.38,0.71,5.94,5.94,5.94
65.35,5.32,-0.56,5.32,-0.56,0.56,0.33,0.67,5.88,5.88,5.88
66.01,5.30,-0.51,5.30,-0.52,0.52,0.28,0.63,5.82,5.82,5.82
66.67,5.28,-0.48,5.28,-0.48,0.48,0.22,0.59,5.76,5.75,5.76
67.33,5.26,-0.43,5.26,-0.43,0.43,0.17,0.55,5.69,5.69,5.69
68.01,5.24,-0.39,5.24,-0.38,0.38,0.12,0.50,5.63,5.62,5.63
68.69,5.22,-0.34,5.23,-0.33,0.33,0.07,0.46,5.56,5.56,5.56
69.37,5.20,-0.30,5.22,-0.28,0.28,0.01,0.41,5.48,5.50,5.51
70.07,5.19,-0.24,5.21,-0.22,0.22,-0.04,0.36,5.41,5.43,5.44
70.77,5.18,-0.18,5.21,-0.16,0.16,-0.09,0.31,5.34,5.36,5.36
71.48,5.18,-0.12,5.20,-0.09,0.09,-0.15,0.27,5.27,5.30,5.30
72.19,5.18,-0.05,5.20,-0.03,0.03,-0.20,0.21,5.21,5.23,5.23
72.91,5.19,0.04,5.20,0.04,-0.04,-0.25,0.16,5.15,5.16,5.15
73.64,5.21,0.12,5.20,0.11,-0.11,-0.30,0.11,5.10,5.10,5.09
74.38,5.22,0.20,5.20,0.17,-0.17,-0.35,0.06,5.05,5.03,5.02
75.12,5.23,0.27,5.20,0.24,-0.24,-0.41,0.01,4.99,4.96,4.96
75.87,5.22,0.32,5.20,0.30,-0.30,-0.46,-0.05,4.92,4.90,4.90
76.63,5.21,0.38,5.20,0.36,-0.36,-0.51,-0.10,4.85,4.84,4.83
77.40,5.20,0.43,5.19,0.41,-0.41,-0.56,-0.16,4.79,4.77,4.78
78.17,5.18,0.48,5.18,0.46,-0.46,-0.61,-0.22,4.72,4.71,4.70
78.95,5.16,0.50,5.16,0.51,-0.51,-0.66,-0.27,4.65,4.65,4.66
79.74,5.15,0.56,5.14,0.55,-0.55,-0.71,-0.33,4.60,4.59,4.59
80.54,5.12,0.59,5.12,0.59,-0.59,-0.76,-0.39,4.53,4.53,4.53
81.35,5.09,0.63,5.09,0.63,-0.63,-0.81,-0.45,4.46,4.47,4.47
82.16,5.07,0.66,5.07,0.66,-0.66,-0.86,-0.51,4.41,4.41,4.42
82.98,5.04,0.70,5.04,0.69,-0.69,-0.91,-0.57,4.35,4.34,4.34
83.81,5.01,0.73,5.01,0.73,-0.73,-0.96,-0.63,4.28,4.28,4.28
84.65,4.98,0.77,4.98,0.77,-0.77,-1.01,-0.69,4.21,4.21,4.21
85.50,4.96,0.82,4.96,0.81,-0.81,-1.06,-0.75,4.15,4.15,4.15
86.35,4.93,0.85,4.94,0.86,-0.86,-1.11,-0.82,4.07,4.08,4.08
87.22,4.91,0.90,4.93,0.91,-0.91,-1.16,-0.88,4.00,4.02,4.01
88.09,4.89,0.94,4.91,0.96,-0.96,-1.20,-0.94,3.93,3.95,3.95
88.97,4.87,0.99,4.90,1.02,-1.02,-1.25,-1.01,3.85,3.88,3.88
89.86,4.86,1.05,4.89,1.08,-1.08,-1.30,-1.07,3.78,3.81,3.81
90.76,4.86,1.12,4.89,1.15,-1.15,-1.34,-1.14,3.71,3.74,3.74
91.66,4.87,1.21,4.88,1.22,-1.22,-1.39,-1.21,3.66,3.67,3.66
92.58,4.89,1.29,4.88,1.28,-1.28,-1.44,-1.28,3.61,3.60,3.60
93.51,4.90,1.37,4.87,1.35,-1.35,-1.48,-1.35,3.55,3.52,3.53
94.44,4.90,1.44,4.86,1.41,-1.41,-1.53,-1.42,3.49,3.45,3.46
95.39,4.88,1.51,4.85,1.48,-1.48,-1.57,-1.49,3.40,3.37,3.38
96.34,4.86,1.56,4.84,1.54,-1.54,-1.62,-1.56,3.32,3.30,3.30
97.30,4.84,1.61,4.83,1.60,-1.60,-1.66,-1.63,3.24,3.23,3.23
98.28,4.82,1.68,4.81,1.65,-1.65,-1.70,-1.70,3.17,3.15,3.15
99.26,4.79,1.72,4.79,1.71,-1.71,-1.75,-1.77,3.09,3.08,3.07
100.25,4.75,1.76,4.76,1.75,-1.75,-1.79,-1.84,3.00,3.01,3.00
101.25,4.72,1.79,4.74,1.80,-1.80,-1.83,-1.92,2.92,2.94,2.93
102.27,4.69,1.83,4.71,1.84,-1.84,-1.87,-1.99,2.85,2.87,2.87
103.29,4.67,1.88,4.68,1.89,-1.89,-1.91,-2.06,2.78,2.80,2.79
104.32,4.65,1.93,4.66,1.93,-1.93,-1.95,-2.13,2.72,2.73,2.73
105.37,4.62,1.96,4.63,1.98,-1.98,-1.99,-2.21,2.64,2.66,2.66
106.42,4.60,2.01,4.61,2.02,-2.02,-2.03,-2.28,2.58,2.59,2.59
107.48,4.59,2.07,4.59,2.07,-2.07,-2.07,-2.35,2.52,2.52,2.52
108.56,4.57,2.12,4.57,2.12,-2.12,-2.11,-2.42,2.45,2.45,2.45
109.64,4.55,2.16,4.55,2.17,-2.17,-2.15,-2.48,2.38,2.38,2.39
110.74,4.53,2.22,4.52,2.22,-2.22,-2.19,-2.55,2.31,2.31,2.31
111.85,4.51,2.27,4.50,2.27,-2.27,-2.23,-2.61,2.24,2.24,2.24
112.97,4.49,2.32,4.48,2.32,-2.32,-2.26,-2.68,2.18,2.17,2.17
114.10,4.47,2.37,4.46,2.36,-2.36,-2.30,-2.74,2.11,2.09,2.10
115.24,4.43,2.41,4.43,2.41,-2.41,-2.34,-2.79,2.02,2.02,2.02
116.39,4.41,2.47,4.41,2.45,-2.45,-2.37,-2.85,1.96,1.95,1.94
117.55,4.38,2.51,4.38,2.50,-2.50,-2.41,-2.90,1.88,1.88,1.87
118.73,4.35,2.55,4.36,2.54,-2.54,-2.44,-2.95,1.81,1.81,1.80
119.92,4.31,2.57,4.33,2.58,-2.58,-2.48,-2.99,1.73,1.74,1.74
121.12,4.29,2.62,4.30,2.63,-2.63,-2.51,-3.03,1.66,1.67,1.68
122.33,4.28,2.68,4.27,2.67,-2.67,-2.54,-3.07,1.61,1.61,1.61
123.55,4.25,2.70,4.25,2.71,-2.71,-2.58,-3.10,1.54,1.54,1.55
124.79,4.22,2.74,4.22,2.75,-2.75,-2.61,-3.13,1.47,1.47,1.48
126.03,4.18,2.77,4.19,2.79,-2.79,-2.64,-3.16,1.39,1.40,1.41
127.29,4.17,2.83,4.17,2.83,-2.83,-2.67,-3.18,1.34,1.33,1.34
128.57,4.15,2.88,4.14,2.88,-2.88,-2.70,-3.20,1.28,1.27,1.27
129.85,4.12,2.92,4.12,2.92,-2.92,-2.73,-3.21,1.20,1.20,1.20
131.15,4.09,2.96,4.09,2.96,-2.96,-2.76,-3.22,1.13,1.13,1.13
132.46,4.07,3.01,4.07,3.00,-3.00,-2.79,-3.23,1.07,1.07,1.06
133.79,4.04,3.05,4.04,3.04,-3.04,-2.82,-3.24,1.00,1.00,0.99
135.12,4.00,3.07,4.01,3.08,-3.08,-2.85,-3.24,0.92,0.93,0.93
136.48,3.99,3.12,3.99,3.12,-3.12,-2.88,-3.24,0.87,0.87,0.87
137.84,3.96,3.16,3.96,3.16,-3.16,-2.90,-3.24,0.80,0.80,0.80
139.22,3.94,3.21,3.94,3.20,-3.20,-2.93,-3.23,0.75,0.74,0.73
140.61,3.91,3.23,3.91,3.23,-3.23,-2.96,-3.23,0.68,0.68,0.68
142.02,3.87,3.26,3.88,3.26,-3.26,-2.98,-3.22,0.61,0.62,0.61
143.44,3.86,3.30,3.85,3.29,-3.29,-3.01,-3.21,0.57,0.56,0.56
144.87,3.82,3.32,3.83,3.32,-3.32,-3.03,-3.20,0.50,0.50,0.51
146.32,3.81,3.37,3.80,3.35,-3.35,-3.06,-3.19,0.46,0.45,0.44
147.78,3.78,3.39,3.77,3.38,-3.38,-3.08,-3.18,0.40,0.39,0.39
149.26,3.75,3.42,3.75,3.41,-3.41,-3.10,-3.18,0.34,0.34,0.33
150.75,3.71,3.44,3.72,3.44,-3.44,-3.13,-3.17,0.27,0.28,0.28
152.26,3.68,3.45,3.69,3.47,-3.47,-3.15,-3.16,0.21,0.23,0.23
153.78,3.65,3.48,3.67,3.50,-3.50,-3.17,-3.15,0.16,0.17,0.17
155.32,3.64,3.52,3.64,3.53,-3.53,-3.19,-3.15,0.12,0.12,0.12
156.88,3.61,3.54,3.62,3.56,-3.56,-3.21,-3.14,0.05,0.06,0.07
158.44,3.60,3.60,3.60,3.59,-3.59,-3.23,-3.14,0.01,0.01,0.01
160.03,3.56,3.61,3.57,3.62,-3.62,-3.25,-3.14,-0.06,-0.05,-0.04
161.63,3.54,3.65,3.55,3.65,-3.65,-3.27,-3.14,-0.11,-0.10,-0.10
163.24,3.53,3.69,3.52,3.69,-3.69,-3.29,-3.14,-0.15,-0.16,-0.16
164.88,3.50,3.72,3.50,3.72,-3.72,-3.31,-3.15,-0.22,-0.22,-0.22
166.53,3.48,3.76,3.48,3.75,-3.75,-3.33,-3.16,-0.27,-0.27,-0.28
168.19,3.46,3.79,3.45,3.78,-3.78,-3.34,-3.17,-0.32,-0.33,-0.33
169.87,3.42,3.81,3.42,3.81,-3.81,-3.36,-3.18,-0.39,-0.39,-0.39
171.57,3.40,3.85,3.39,3.84,-3.84,-3.38,-3.19,-0.44,-0.45,-0.45
173.29,3.38,3.88,3.36,3.86,-3.86,-3.39,-3.21,-0.48,-0.50,-0.50
175.02,3.33,3.89,3.33,3.89,-3.89,-3.41,-3.23,-0.55,-0.56,-0.56
176.77,3.29,3.91,3.29,3.91,-3.91,-3.42,-3.25,-0.62,-0.62,-0.61
178.54,3.26,3.93,3.26,3.93,-3.93,-3.44,-3.27,-0.67,-0.67,-0.67
180.32,3.22,3.96,3.23,3.96,-3.96,-3.45,-3.30,-0.73,-0.73,-0.74
182.13,3.19,3.97,3.20,3.98,-3.98,-3.47,-3.33,-0.79,-0.78,-0.78
183.95,3.14,3.97,3.16,4.00,-4.00,-3.48,-3.36,-0.86,-0.84,-0.83
185.79,3.11,4.00,3.13,4.02,-4.02,-3.49,-3.40,-0.91,-0.89,-0.89
187.65,3.09,4.04,3.10,4.05,-4.05,-3.51,-3.43,-0.95,-0.94,-0.94
189.52,3.06,4.05,3.07,4.07,-4.07,-3.52,-3.47,-1.00,-0.99,-0.99
191.42,3.05,4.09,3.04,4.09,-4.09,-3.53,-3.51,-1.04,-1.04,-1.04
193.33,3.03,4.12,3.01,4.11,-4.11,-3.54,-3.56,-1.08,-1.09,-1.09
195.27,3.00,4.14,2.99,4.13,-4.13,-3.55,-3.60,-1.13,-1.14,-1.14
197.22,2.97,4.17,2.96,4.15,-4.15,-3.56,-3.65,-1.18,-1.19,-1.20
199.19,2.94,4.17,2.94,4.16,-4.16,-3.57,-3.70,-1.22,-1.23,-1.23
201.18,2.90,4.19,2.91,4.18,-4.18,-3.58,-3.75,-1.28,-1.27,-1.28
203.19,2.87,4.19,2.88,4.20,-4.20,-3.59,-3.80,-1.33,-1.31,-1.32
205.23,2.84,4.19,2.86,4.21,-4.21,-3.60,-3.85,-1.37,-1.35,-1.35
207.28,2.82,4.21,2.83,4.22,-4.22,-3.60,-3.91,-1.40,-1.39,-1.39
209.35,2.80,4.23,2.80,4.22,-4.22,-3.61,-3.96,-1.42,-1.43,-1.43
211.44,2.77,4.24,2.76,4.23,-4.23,-3.62,-4.02,-1.46,-1.47,-1.46
213.56,2.74,4.23,2.73,4.23,-4.23,-3.62,-4.07,-1.49,-1.50,-1.49
215.69,2.71,4.24,2.70,4.23,-4.23,-3.63,-4.12,-1.52,-1.53,-1.53
217.85,2.67,4.23,2.67,4.23,-4.23,-3.64,-4.17,-1.56,-1.56,-1.56
220.03,2.64,4.24,2.64,4.23,-4.23,-3.64,-4.22,-1.59,-1.59,-1.60
222.23,2.61,4.24,2.61,4.23,-4.23,-3.65,-4.27,-1.62,-1.62,-1.63
224.45,2.56,4.22,2.58,4.23,-4.23,-3.65,-4.32,-1.67,-1.65,-1.65
226.70,2.52,4.21,2.54,4.22,-4.22,-3.65,-4.36,-1.70,-1.68,-1.69
228.96,2.48,4.18,2.51,4.21,-4.21,-3.66,-4.40,-1.73,-1.70,-1.70
231.25,2.46,4.19,2.47,4.20,-4.20,-3.66,-4.44,-1.74,-1.73,-1.73
233.57,2.45,4.20,2.44,4.19,-4.19,-3.66,-4.47,-1.73,-1.75,-1.75
235.90,2.42,4.19,2.40,4.17,-4.17,-3.67,-4.50,-1.75,-1.77,-1.77
238.26,2.40,4.20,2.37,4.15,-4.15,-3.67,-4.52,-1.75,-1.78,-1.80
240.64,2.35,4.15,2.33,4.13,-4.13,-3.67,-4.54,-1.78,-1.80,-1.79
243.05,2.31,4.12,2.30,4.11,-4.11,-3.67,-4.55,-1.80,-1.81,-1.81
245.48,2.26,4.09,2.27,4.09,-4.09,-3.67,-4.56,-1.83,-1.82,-1.83
247.93,2.21,4.06,2.23,4.07,-4.07,-3.67,-4.56,-1.86,-1.83,-1.85
250.41,2.18,4.02,2.20,4.04,-4.04,-3.67,-4.55,-1.86,-1.84,-1.84
252.92,2.13,3.98,2.17,4.02,-4.02,-3.67,-4.54,-1.89,-1.85,-1.85
255.45,2.11,3.97,2.13,3.99,-3.99,-3.67,-4.53,-1.88,-1.86,-1.86
258.00,2.10,3.97,2.09,3.96,-3.96,-3.67,-4.51,-1.86,-1.87,-1.87
260.58,2.07,3.94,2.06,3.93,-3.93,-3.66,-4.48,-1.86,-1.87,-1.87
263.19,2.05,3.92,2.03,3.91,-3.91,-3.66,-4.44,-1.86,-1.88,-1.87
265.82,2.01,3.90,2.00,3.88,-3.88,-3.66,-4.41,-1.87,-1.89,-1.88
268.48,1.98,3.87,1.97,3.86,-3.86,-3.66,-4.36,-1.88,-1.89,-1.89
271.16,1.94,3.83,1.95,3.84,-3.84,-3.65,-4.31,-1.90,-1.90,-1.89
273.87,1.90,3.80,1.92,3.82,-3.82,-3.65,-4.26,-1.92,-1.90,-1.90
276.61,1.87,3.77,1.89,3.80,-3.80,-3.65,-4.21,-1.92,-1.90,-1.90
279.38,1.84,3.76,1.86,3.77,-3.77,-3.64,-4.15,-1.93,-1.91,-1.92
282.17,1.83,3.75,1.83,3.74,-3.74,-3.64,-4.09,-1.91,-1.91,-1.92
284.99,1.81,3.72,1.79,3.71,-3.71,-3.63,-4.02,-1.89,-1.91,-1.91
287.84,1.78,3.69,1.76,3.67,-3.67,-3.62,-3.96,-1.89,-1.91,-1.91
290.72,1.75,3.67,1.73,3.64,-3.64,-3.62,-3.89,-1.89,-1.91,-1.92
293.63,1.71,3.62,1.70,3.61,-3.61,-3.61,-3.82,-1.90,-1.91,-1.91
296.57,1.67,3.58,1.66,3.57,-3.57,-3.60,-3.75,-1.90,-1.91,-1.91
299.53,1.62,3.53,1.63,3.54,-3.54,-3.60,-3.68,-1.92,-1.91,-1.91
302.53,1.58,3.48,1.60,3.50,-3.50,-3.59,-3.61,-1.92,-1.90,-1.89
305.55,1.54,3.44,1.57,3.46,-3.46,-3.58,-3.54,-1.92,-1.90,-1.90
308.61,1.50,3.39,1.53,3.42,-3.42,-3.57,-3.47,-1.92,-1.89,-1.89
311.69,1.48,3.37,1.49,3.38,-3.38,-3.56,-3.40,-1.90,-1.89,-1.89
314.81,1.47,3.35,1.45,3.33,-3.33,-3.56,-3.33,-1.86,-1.88,-1.88
317.96,1.44,3.32,1.41,3.29,-3.29,-3.55,-3.27,-1.85,-1.88,-1.88
321.14,1.40,3.27,1.38,3.25,-3.25,-3.54,-3.20,-1.85,-1.87,-1.86
324.35,1.36,3.23,1.34,3.20,-3.20,-3.53,-3.14,-1.84,-1.86,-1.87
327.59,1.31,3.16,1.30,3.16,-3.16,-3.52,-3.08,-1.85,-1.86,-1.85
330.87,1.27,3.12,1.27,3.12,-3.12,-3.51,-3.02,-1.85,-1.85,-1.85
334.18,1.22,3.07,1.24,3.08,-3.08,-3.49,-2.96,-1.86,-1.85,-1.85
337.52,1.18,3.02,1.20,3.04,-3.04,-3.48,-2.90,-1.86,-1.84,-1.84
340.90,1.15,2.98,1.17,3.00,-3.00,-3.47,-2.84,-1.85,-1.83,-1.83
344.30,1.12,2.94,1.14,2.96,-2.96,-3.46,-2.79,-1.84,-1.83,-1.82
347.75,1.11,2.93,1.11,2.93,-2.93,-3.45,-2.74,-1.81,-1.82,-1.82
351.23,1.08,2.90,1.08,2.89,-2.89,-3.43,-2.69,-1.81,-1.81,-1.82
354.74,1.05,2.85,1.06,2.86,-2.86,-3.42,-2.64,-1.81,-1.81,-1.80
358.28,1.02,2.82,1.04,2.84,-2.84,-3.41,-2.60,-1.81,-1.80,-1.80
361.87,1.01,2.81,1.02,2.81,-2.81,-3.39,-2.55,-1.80,-1.79,-1.79
365.49,1.00,2.79,1.00,2.79,-2.79,-3.38,-2.51,-1.79,-1.79,-1.79
369.14,0.98,2.75,0.99,2.76,-2.76,-3.36,-2.47,-1.78,-1.78,-1.77
372.83,0.97,2.74,0.97,2.74,-2.74,-3.35,-2.44,-1.77,-1.77,-1.76
376.56,0.96,2.73,0.95,2.71,-2.71,-3.33,-2.40,-1.75,-1.76,-1.77
380.33,0.94,2.70,0.93,2.68,-2.68,-3.32,-2.37,-1.74,-1.75,-1.76
384.13,0.92,2.67,0.90,2.65,-2.65,-3.30,-2.34,-1.73,-1.75,-1.74
387.97,0.90,2.64,0.88,2.61,-2.61,-3.29,-2.31,-1.71,-1.74,-1.74
391.85,0.87,2.60,0.85,2.58,-2.58,-3.27,-2.28,-1.71,-1.73,-1.73
395.77,0.83,2.55,0.82,2.54,-2.54,-3.25,-2.26,-1.71,-1.72,-1.72
399.73,0.80,2.52,0.80,2.50,-2.50,-3.23,-2.23,-1.70,-1.71,-1.72
403.72,0.76,2.45,0.77,2.47,-2.47,-3.22,-2.21,-1.71,-1.70,-1.69
407.76,0.73,2.42,0.74,2.43,-2.43,-3.20,-2.19,-1.70,-1.69,-1.69
411.84,0.71,2.39,0.72,2.40,-2.40,-3.18,-2.17,-1.69,-1.68,-1.68
415.96,0.68,2.35,0.70,2.37,-2.37,-3.16,-2.15,-1.69,-1.67,-1.67
420.12,0.65,2.32,0.68,2.35,-2.35,-3.15,-2.13,-1.69,-1.66,-1.67
424.32,0.64,2.30,0.67,2.32,-2.32,-3.13,-2.11,-1.68,-1.66,-1.66
428.56,0.64,2.28,0.66,2.30,-2.30,-3.11,-2.10,-1.66,-1.65,-1.64
432.85,0.64,2.28,0.65,2.29,-2.29,-3.09,-2.08,-1.65,-1.64,-1.63
437.18,0.65,2.29,0.65,2.28,-2.28,-3.07,-2.07,-1.63,-1.63,-1.64
441.55,0.66,2.29,0.65,2.27,-2.27,-3.05,-2.06,-1.61,-1.62,-1.63
445.96,0.66,2.28,0.65,2.27,-2.27,-3.03,-2.04,-1.61,-1.62,-1.62
450.42,0.66,2.27,0.66,2.27,-2.27,-3.01,-2.03,-1.60,-1.61,-1.61
454.93,0.66,2.26,0.66,2.26,-2.26,-2.99,-2.02,-1.60,-1.60,-1.60
459.48,0.66,2.26,0.67,2.26,-2.26,-2.97,-2.01,-1.60,-1.59,-1.59
464.07,0.67,2.25,0.68,2.26,-2.26,-2.95,-2.00,-1.59,-1.58,-1.58
468.71,0.68,2.25,0.68,2.25,-2.25,-2.92,-1.98,-1.57,-1.57,-1.57
473.40,0.68,2.24,0.68,2.24,-2.24,-2.90,-1.97,-1.56,-1.56,-1.56
478.13,0.68,2.23,0.67,2.22,-2.22,-2.88,-1.96,-1.54,-1.55,-1.55
482.91,0.67,2.21,0.66,2.20,-2.20,-2.86,-1.95,-1.53,-1.54,-1.54
487.74,0.66,2.19,0.65,2.18,-2.18,-2.84,-1.93,-1.52,-1.53,-1.53
492.62,0.65,2.17,0.63,2.15,-2.15,-2.81,-1.92,-1.50,-1.52,-1.52
497.55,0.63,2.15,0.61,2.12,-2.12,-2.79,-1.91,-1.49,-1.51,-1.51
502.52,0.60,2.11,0.59,2.09,-2.09,-2.77,-1.89,-1.48,-1.50,-1.51
507.55,0.57,2.06,0.56,2.05,-2.05,-2.74,-1.88,-1.48,-1.49,-1.49
512.62,0.53,2.01,0.53,2.00,-2.00,-2.72,-1.86,-1.47,-1.48,-1.48
517.75,0.50,1.96,0.50,1.96,-1.96,-2.70,-1.84,-1.46,-1.46,-1.46
522.93,0.46,1.91,0.47,1.92,-1.92,-2.67,-1.83,-1.46,-1.45,-1.45
528.16,0.43,1.87,0.44,1.88,-1.88,-2.65,-1.81,-1.45,-1.44,-1.44
