frequency,raw,error,smoothed,error_smoothed,equalization,parametric_eq,fixed_band_eq,equalized_raw,equalized_smoothed,target
20.00,-20.78,-24.00,-20.76,-24.02,24.02,20.38,10.29,3.24,3.25,3.22
20.20,-20.66,-23.93,-20.65,-23.94,23.94,20.83,10.47,3.29,3.29,3.27
20.40,-20.53,-23.86,-20.54,-23.86,23.86,21.28,10.66,3.33,3.33,3.33
20.61,-20.42,-23.77,-20.42,-23.78,23.78,21.73,10.86,3.36,3.36,3.35
20.81,-20.29,-23.70,-20.30,-23.69,23.69,22.16,11.06,3.40,3.39,3.41
21.02,-20.18,-23.62,-20.18,-23.60,23.60,22.58,11.26,3.42,3.42,3.44
21.23,-20.05,-23.51,-20.06,-23.50,23.50,22.96,11.47,3.45,3.44,3.46
21.44,-19.92,-23.41,-19.93,-23.40,23.40,23.31,11.68,3.47,3.47,3.49
21.66,-19.80,-23.30,-19.80,-23.29,23.29,23.62,11.90,3.50,3.49,3.50
21.87,-19.66,-23.18,-19.68,-23.18,23.18,23.87,12.13,3.52,3.51,3.52
22.09,-19.54,-23.08,-19.55,-23.07,23.07,24.06,12.36,3.52,3.52,3.54
22.31,-19.41,-22.96,-19.41,-22.95,22.95,24.18,12.60,3.54,3.54,3.54
22.54,-19.29,-22.83,-19.28,-22.82,22.82,24.23,12.85,3.53,3.54,3.54
22.76,-19.15,-22.70,-19.14,-22.68,22.68,24.21,13.10,3.53,3.54,3.54
22.99,-19.03,-22.56,-19.00,-22.54,22.54,24.12,13.36,3.52,3.55,3.53
23.22,-18.88,-22.41,-18.85,-22.40,22.40,23.99,13.63,3.52,3.55,3.53
23.45,-18.72,-22.26,-18.71,-22.26,22.26,23.80,13.91,3.53,3.55,3.53
23.69,-18.58,-22.12,-18.57,-22.12,22.12,23.58,14.19,3.54,3.55,3.54
23.92,-18.43,-21.98,-18.43,-21.98,21.98,23.33,14.49,3.55,3.55,3.54
24.16,-18.28,-21.83,-18.30,-21.85,21.85,23.07,14.80,3.56,3.55,3.55
24.40,-18.13,-21.69,-18.17,-21.71,21.71,22.79,15.11,3.58,3.55,3.55
24.65,-17.99,-21.53,-18.03,-21.58,21.58,22.52,15.44,3.59,3.55,3.55
24.89,-17.83,-21.38,-17.90,-21.45,21.45,22.24,15.78,3.61,3.55,3.54
25.14,-17.72,-21.27,-17.77,-21.32,21.32,21.97,16.14,3.59,3.55,3.55
25.39,-17.63,-21.19,-17.64,-21.19,21.19,21.71,16.51,3.56,3.55,3.55
25.65,-17.54,-21.09,-17.51,-21.06,21.06,21.47,16.89,3.53,3.55,3.55
25.91,-17.45,-20.99,-17.39,-20.93,20.93,21.23,17.29,3.49,3.55,3.55
26.16,-17.31,-20.86,-17.26,-20.80,20.80,21.01,17.70,3.49,3.55,3.54
26.43,-17.16,-20.70,-17.12,-20.67,20.67,20.80,18.14,3.51,3.55,3.54
26.69,-17.00,-20.54,-16.99,-20.53,20.53,20.60,18.59,3.54,3.54,3.54
26.96,-16.85,-20.39,-16.85,-20.39,20.39,20.42,19.07,3.55,3.54,3.54
27.23,-16.71,-20.25,-16.71,-20.25,20.25,20.25,19.56,3.54,3.54,3.54
27.50,-16.57,-20.11,-16.56,-20.10,20.10,20.09,20.08,3.54,3.54,3.54
27.77,-16.42,-19.96,-16.42,-19.95,19.95,19.95,20.63,3.53,3.54,3.53
28.05,-16.28,-19.82,-16.26,-19.80,19.80,19.81,21.20,3.51,3.54,3.53
28.33,-16.11,-19.64,-16.11,-19.65,19.65,19.69,21.79,3.53,3.53,3.52
28.62,-15.95,-19.47,-15.96,-19.49,19.49,19.58,22.41,3.54,3.53,3.52
28.90,-15.77,-19.31,-15.81,-19.34,19.34,19.47,23.04,3.57,3.53,3.53
29.19,-15.64,-19.16,-15.67,-19.20,19.20,19.38,23.70,3.56,3.53,3.52
29.48,-15.50,-19.04,-15.53,-19.06,19.06,19.29,24.35,3.55,3.53,3.53
29.78,-15.38,-18.90,-15.39,-18.92,18.92,19.21,25.00,3.54,3.53,3.53
30.08,-15.26,-18.79,-15.26,-18.78,18.78,19.14,25.61,3.52,3.53,3.53
30.38,-15.13,-18.65,-15.12,-18.65,18.65,19.07,26.14,3.52,3.52,3.53
30.68,-15.00,-18.52,-14.99,-18.51,18.51,19.01,26.57,3.52,3.52,3.52
30.99,-14.87,-18.39,-14.86,-18.38,18.38,18.95,26.84,3.52,3.52,3.52
31.30,-14.74,-18.25,-14.74,-18.25,18.25,18.89,26.93,3.52,3.52,3.52
31.61,-14.61,-18.12,-14.61,-18.12,18.12,18.84,26.82,3.52,3.52,3.51
31.93,-14.48,-17.99,-14.48,-17.99,17.99,18.78,26.53,3.51,3.51,3.51
32.24,-14.34,-17.85,-14.35,-17.85,17.85,18.72,26.09,3.51,3.51,3.50
32.57,-14.23,-17.73,-14.21,-17.71,17.71,18.66,25.54,3.49,3.50,3.50
32.89,-14.09,-17.60,-14.07,-17.57,17.57,18.60,24.93,3.47,3.50,3.50
33.22,-13.95,-17.45,-13.92,-17.42,17.42,18.53,24.29,3.46,3.50,3.49
33.55,-13.80,-17.30,-13.78,-17.27,17.27,18.45,23.63,3.47,3.49,3.49
33.89,-13.66,-17.14,-13.64,-17.13,17.13,18.37,22.98,3.47,3.49,3.48
34.23,-13.50,-16.98,-13.50,-16.98,16.98,18.28,22.35,3.49,3.48,3.48
34.57,-13.34,-16.81,-13.36,-16.83,16.83,18.17,21.74,3.50,3.48,3.47
34.92,-13.18,-16.65,-13.21,-16.69,16.69,18.06,21.15,3.51,3.47,3.47
35.27,-13.04,-16.50,-13.07,-16.54,16.54,17.93,20.59,3.50,3.47,3.47
35.62,-12.90,-16.36,-12.93,-16.39,16.39,17.79,20.05,3.50,3.47,3.46
35.97,-12.75,-16.22,-12.78,-16.25,16.25,17.64,19.54,3.50,3.47,3.46
36.33,-12.64,-16.11,-12.64,-16.10,16.10,17.47,19.05,3.46,3.46,3.46
36.70,-12.53,-15.98,-12.50,-15.96,15.96,17.29,18.58,3.43,3.46,3.46
37.06,-12.40,-15.86,-12.35,-15.81,15.81,17.10,18.14,3.41,3.46,3.46
37.43,-12.22,-15.69,-12.21,-15.67,15.67,16.90,17.71,3.45,3.46,3.46
37.81,-12.06,-15.52,-12.06,-15.52,15.52,16.68,17.30,3.47,3.46,3.46
38.19,-11.91,-15.36,-11.91,-15.38,15.38,16.45,16.91,3.47,3.46,3.45
38.57,-11.79,-15.25,-11.76,-15.23,15.23,16.22,16.53,3.44,3.46,3.46
38.95,-11.65,-15.13,-11.62,-15.08,15.08,15.97,16.17,3.43,3.46,3.47
39.34,-11.48,-14.95,-11.47,-14.94,14.94,15.71,15.82,3.45,3.47,3.46
39.74,-11.31,-14.77,-11.33,-14.79,14.79,15.45,15.49,3.49,3.47,3.46
40.14,-11.14,-14.60,-11.18,-14.65,14.65,15.18,15.17,3.51,3.46,3.46
40.54,-11.00,-14.46,-11.04,-14.50,14.50,14.91,14.86,3.50,3.46,3.46
40.94,-10.85,-14.31,-10.89,-14.35,14.35,14.64,14.56,3.50,3.46,3.45
41.35,-10.73,-14.18,-10.75,-14.21,14.21,14.36,14.27,3.48,3.45,3.45
41.76,-10.59,-14.04,-10.61,-14.06,14.06,14.08,13.99,3.46,3.45,3.44
42.18,-10.47,-13.92,-10.47,-13.91,13.91,13.80,13.72,3.43,3.44,3.44
42.60,-10.36,-13.80,-10.32,-13.75,13.75,13.52,13.46,3.39,3.43,3.43
43.03,-10.26,-13.68,-10.18,-13.59,13.59,13.24,13.20,3.34,3.42,3.42
43.46,-10.08,-13.49,-10.03,-13.44,13.44,12.96,12.96,3.36,3.40,3.41
43.90,-9.91,-13.30,-9.90,-13.29,13.29,12.69,12.72,3.38,3.39,3.40
44.33,-9.75,-13.13,-9.76,-13.14,13.14,12.41,12.49,3.39,3.38,3.37
44.78,-9.61,-12.96,-9.62,-12.99,12.99,12.14,12.27,3.38,3.37,3.36
45.23,-9.45,-12.79,-9.47,-12.83,12.83,11.88,12.05,3.38,3.35,3.35
45.68,-9.27,-12.60,-9.32,-12.66,12.66,11.61,11.84,3.40,3.34,3.33
46.13,-9.11,-12.43,-9.17,-12.50,12.50,11.35,11.63,3.38,3.33,3.31
46.60,-9.01,-12.32,-9.02,-12.33,12.33,11.10,11.43,3.33,3.31,3.31
47.06,-8.89,-12.18,-8.87,-12.17,12.17,10.84,11.23,3.28,3.30,3.29
47.53,-8.76,-12.05,-8.72,-12.01,12.01,10.60,11.04,3.24,3.28,3.28
48.01,-8.64,-11.92,-8.57,-11.84,11.84,10.35,10.86,3.20,3.27,3.28
48.49,-8.45,-11.71,-8.42,-11.67,11.67,10.11,10.68,3.23,3.25,3.27
48.97,-8.26,-11.51,-8.27,-11.51,11.51,9.88,10.50,3.24,3.24,3.24
49.46,-8.09,-11.32,-8.11,-11.34,11.34,9.65,10.33,3.24,3.23,3.22
49.96,-7.93,-11.13,-7.95,-11.17,11.17,9.42,10.16,3.24,3.21,3.21
50.46,-7.81,-11.00,-7.80,-11.00,11.00,9.20,10.00,3.19,3.20,3.19
50.96,-7.69,-10.87,-7.64,-10.83,10.83,8.98,9.83,3.14,3.19,3.18
51.47,-7.51,-10.67,-7.49,-10.66,10.66,8.77,9.67,3.16,3.17,3.16
51.99,-7.33,-10.48,-7.33,-10.49,10.49,8.56,9.52,3.17,3.16,3.16
52.51,-7.14,-10.28,-7.18,-10.33,10.33,8.36,9.37,3.19,3.15,3.15
53.03,-6.95,-10.09,-7.03,-10.17,10.17,8.16,9.22,3.22,3.14,3.14
53.56,-6.84,-9.96,-6.88,-10.00,10.00,7.96,9.07,3.17,3.12,3.12
54.10,-6.72,-9.83,-6.73,-9.84,9.84,7.77,8.92,3.12,3.11,3.11
54.64,-6.58,-9.67,-6.57,-9.68,9.68,7.58,8.78,3.10,3.10,3.10
55.18,-6.44,-9.54,-6.42,-9.51,9.51,7.40,8.64,3.07,3.09,3.09
55.74,-6.35,-9.42,-6.27,-9.35,9.35,7.22,8.49,3.01,3.08,3.08
56.29,-6.19,-9.26,-6.12,-9.19,9.19,7.04,8.36,2.99,3.07,3.06
56.86,-6.02,-9.07,-5.96,-9.02,9.02,6.87,8.22,3.00,3.05,3.06
57.42,-5.82,-8.85,-5.81,-8.85,8.85,6.70,8.08,3.03,3.04,3.02
58.00,-5.64,-8.65,-5.66,-8.68,8.68,6.53,7.94,3.04,3.02,3.01
58.58,-5.44,-8.44,-5.51,-8.50,8.50,6.37,7.80,3.07,2.99,3.00
59.16,-5.27,-8.26,-5.36,-8.33,8.33,6.21,7.67,3.05,2.97,2.98
59.76,-5.19,-8.15,-5.20,-8.14,8.14,6.05,7.53,2.96,2.94,2.97
60.35,-5.06,-7.99,-5.04,-7.96,7.96,5.90,7.40,2.89,2.91,2.92
60.96,-4.94,-7.82,-4.89,-7.77,7.77,5.75,7.26,2.84,2.88,2.89
61.57,-4.74,-7.58,-4.74,-7.58,7.58,5.60,7.12,2.85,2.84,2.85
62.18,-4.55,-7.36,-4.59,-7.40,7.40,5.45,6.98,2.84,2.80,2.80
62.80,-4.41,-7.17,-4.44,-7.21,7.21,5.31,6.85,2.79,2.76,2.75
63.43,-4.30,-7.01,-4.30,-7.02,7.02,5.17,6.71,2.73,2.72,2.71
64.07,-4.19,-6.85,-4.15,-6.83,6.83,5.03,6.57,2.64,2.68,2.67
64.71,-4.05,-6.67,-4.00,-6.63,6.63,4.90,6.43,2.59,2.63,2.63
65.35,-3.87,-6.46,-3.85,-6.43,6.43,4.77,6.29,2.56,2.58,2.58
66.01,-3.69,-6.22,-3.69,-6.23,6.23,4.64,6.15,2.54,2.54,2.54
66.67,-3.56,-6.04,-3.53,-6.02,6.02,4.51,6.00,2.46,2.49,2.49
67.33,-3.39,-5.83,-3.36,-5.81,5.81,4.38,5.86,2.41,2.44,2.43
68.01,-3.21,-5.60,-3.20,-5.59,5.59,4.26,5.72,2.39,2.39,2.40
68.69,-3.05,-5.39,-3.05,-5.39,5.39,4.14,5.57,2.34,2.34,2.35
69.37,-2.88,-5.18,-2.89,-5.18,5.18,4.02,5.43,2.30,2.29,2.29
70.07,-2.73,-4.97,-2.74,-4.98,4.98,3.90,5.28,2.25,2.24,2.25
70.77,-2.55,-4.74,-2.59,-4.78,4.78,3.78,5.14,2.23,2.19,2.19
71.48,-2.40,-4.54,-2.44,-4.57,4.57,3.67,4.99,2.18,2.13,2.15
72.19,-2.27,-4.34,-2.30,-4.38,4.38,3.55,4.84,2.11,2.07,2.07
72.91,-2.15,-4.17,-2.16,-4.18,4.18,3.44,4.70,2.03,2.02,2.01
73.64,-2.01,-3.97,-2.03,-3.99,3.99,3.33,4.55,1.99,1.96,1.96
74.38,-1.88,-3.78,-1.89,-3.80,3.80,3.22,4.40,1.93,1.91,1.90
75.12,-1.78,-3.62,-1.76,-3.61,3.61,3.12,4.25,1.84,1.85,1.84
75.87,-1.73,-3.52,-1.64,-3.43,3.43,3.01,4.10,1.70,1.80,1.78
76.63,-1.57,-3.31,-1.51,-3.25,3.25,2.90,3.95,1.68,1.74,1.73
77.40,-1.41,-3.09,-1.39,-3.07,3.07,2.80,3.80,1.67,1.69,1.68
78.17,-1.24,-2.87,-1.26,-2.89,2.89,2.69,3.65,1.65,1.63,1.62
78.95,-1.11,-2.70,-1.14,-2.72,2.72,2.59,3.50,1.60,1.58,1.58
79.74,-1.00,-2.54,-1.01,-2.54,2.54,2.49,3.35,1.54,1.53,1.53
80.54,-0.88,-2.36,-0.89,-2.37,2.37,2.39,3.20,1.50,1.49,1.48
81.35,-0.74,-2.17,-0.76,-2.20,2.20,2.29,3.05,1.46,1.44,1.44
82.16,-0.61,-1.99,-0.64,-2.03,2.03,2.19,2.90,1.42,1.39,1.38
82.98,-0.53,-1.87,-0.51,-1.85,1.85,2.09,2.75,1.33,1.34,1.34
83.81,-0.42,-1.71,-0.39,-1.68,1.68,1.99,2.60,1.27,1.29,1.29
84.65,-0.27,-1.51,-0.27,-1.52,1.52,1.89,2.45,1.25,1.25,1.24
85.50,-0.14,-1.34,-0.16,-1.36,1.36,1.79,2.29,1.22,1.20,1.21
86.35,-0.06,-1.21,-0.05,-1.20,1.20,1.70,2.14,1.15,1.15,1.15
87.22,0.01,-1.09,0.06,-1.04,1.04,1.60,1.99,1.06,1.10,1.11
88.09,0.15,-0.90,0.16,-0.88,0.88,1.50,1.83,1.04,1.05,1.06
88.97,0.26,-0.73,0.27,-0.73,0.73,1.40,1.68,0.99,1.00,1.00
89.86,0.40,-0.54,0.37,-0.57,0.57,1.31,1.52,0.98,0.95,0.95
90.76,0.49,-0.40,0.47,-0.43,0.43,1.21,1.37,0.92,0.90,0.90
91.66,0.55,-0.29,0.57,-0.27,0.27,1.11,1.21,0.83,0.85,0.84
92.58,0.62,-0.16,0.67,-0.12,0.12,1.01,1.05,0.75,0.79,0.78
93.51,0.74,0.01,0.77,0.02,-0.02,0.92,0.90,0.72,0.74,0.74
94.44,0.86,0.17,0.85,0.16,-0.16,0.82,0.74,0.71,0.69,0.69
95.39,0.95,0.31,0.94,0.29,-0.29,0.72,0.58,0.66,0.64,0.65
96.34,1.02,0.43,1.02,0.42,-0.42,0.62,0.42,0.60,0.59,0.59
97.30,1.06,0.52,1.09,0.54,-0.54,0.52,0.26,0.52,0.55,0.54
98.28,1.16,0.67,1.15,0.65,-0.65,0.42,0.10,0.51,0.50,0.50
99.26,1.21,0.76,1.21,0.76,-0.76,0.32,-0.05,0.46,0.45,0.45
100.25,1.26,0.86,1.26,0.86,-0.86,0.22,-0.21,0.41,0.40,0.40
101.25,1.37,1.02,1.31,0.95,-0.95,0.12,-0.37,0.42,0.36,0.35
102.27,1.36,1.06,1.34,1.04,-1.04,0.02,-0.53,0.33,0.31,0.31
103.29,1.35,1.10,1.37,1.11,-1.11,-0.09,-0.68,0.24,0.26,0.25
104.32,1.36,1.15,1.39,1.18,-1.18,-0.19,-0.84,0.18,0.21,0.21
105.37,1.40,1.24,1.40,1.24,-1.24,-0.29,-0.99,0.16,0.16,0.17
106.42,1.40,1.29,1.40,1.30,-1.30,-0.40,-1.14,0.11,0.11,0.11
107.48,1.43,1.38,1.41,1.35,-1.35,-0.50,-1.29,0.08,0.05,0.05
108.56,1.43,1.43,1.40,1.40,-1.40,-0.61,-1.43,0.03,0.00,0.00
109.64,1.41,1.46,1.40,1.45,-1.45,-0.71,-1.57,-0.03,-0.05,-0.05
110.74,1.39,1.50,1.40,1.50,-1.50,-0.82,-1.71,-0.10,-0.10,-0.11
111.85,1.37,1.52,1.39,1.55,-1.55,-0.92,-1.84,-0.17,-0.15,-0.14
112.97,1.36,1.57,1.39,1.60,-1.60,-1.03,-1.97,-0.23,-0.20,-0.20
114.10,1.36,1.62,1.40,1.65,-1.65,-1.14,-2.09,-0.29,-0.25,-0.25
115.24,1.36,1.67,1.41,1.70,-1.70,-1.24,-2.21,-0.34,-0.30,-0.30
116.39,1.36,1.72,1.41,1.75,-1.75,-1.35,-2.32,-0.39,-0.34,-0.36
117.55,1.37,1.77,1.42,1.80,-1.80,-1.45,-2.42,-0.43,-0.39,-0.40
118.73,1.44,1.88,1.43,1.85,-1.85,-1.55,-2.52,-0.41,-0.43,-0.44
119.92,1.47,1.94,1.44,1.90,-1.90,-1.66,-2.61,-0.43,-0.46,-0.46
121.12,1.48,1.99,1.46,1.96,-1.96,-1.76,-2.69,-0.47,-0.50,-0.50
122.33,1.49,2.03,1.48,2.01,-2.01,-1.86,-2.76,-0.52,-0.53,-0.53
123.55,1.50,2.07,1.50,2.07,-2.07,-1.95,-2.82,-0.56,-0.57,-0.57
124.79,1.50,2.10,1.52,2.11,-2.11,-2.05,-2.87,-0.61,-0.60,-0.59
126.03,1.51,2.14,1.53,2.15,-2.15,-2.14,-2.92,-0.64,-0.63,-0.63
127.29,1.52,2.17,1.53,2.19,-2.19,-2.23,-2.95,-0.66,-0.66,-0.65
128.57,1.52,2.21,1.53,2.22,-2.22,-2.31,-2.98,-0.69,-0.69,-0.68
129.85,1.53,2.25,1.52,2.24,-2.24,-2.39,-3.00,-0.71,-0.72,-0.72
131.15,1.53,2.28,1.52,2.26,-2.26,-2.47,-3.01,-0.73,-0.74,-0.75
132.46,1.54,2.32,1.51,2.28,-2.28,-2.54,-3.01,-0.73,-0.77,-0.78
133.79,1.54,2.35,1.49,2.29,-2.29,-2.60,-3.00,-0.75,-0.80,-0.80
135.12,1.49,2.33,1.48,2.30,-2.30,-2.66,-2.99,-0.81,-0.83,-0.84
136.48,1.43,2.29,1.46,2.31,-2.31,-2.72,-2.97,-0.88,-0.86,-0.86
137.84,1.36,2.26,1.43,2.32,-2.32,-2.77,-2.95,-0.95,-0.88,-0.90
139.22,1.35,2.28,1.41,2.32,-2.32,-2.81,-2.92,-0.96,-0.91,-0.93
140.61,1.36,2.32,1.38,2.32,-2.32,-2.84,-2.88,-0.96,-0.94,-0.96
142.02,1.36,2.34,1.35,2.33,-2.33,-2.87,-2.85,-0.96,-0.98,-0.98
143.44,1.36,2.37,1.32,2.33,-2.33,-2.89,-2.80,-0.97,-1.01,-1.01
144.87,1.30,2.35,1.29,2.34,-2.34,-2.91,-2.76,-1.03,-1.05,-1.05
146.32,1.26,2.35,1.25,2.34,-2.34,-2.92,-2.71,-1.08,-1.09,-1.09
147.78,1.19,2.31,1.22,2.36,-2.36,-2.92,-2.66,-1.16,-1.14,-1.12
149.26,1.16,2.33,1.19,2.38,-2.38,-2.91,-2.61,-1.22,-1.19,-1.17
150.75,1.15,2.38,1.15,2.41,-2.41,-2.90,-2.56,-1.25,-1.25,-1.23
152.26,1.12,2.42,1.12,2.43,-2.43,-2.89,-2.50,-1.31,-1.31,-1.30
153.78,1.06,2.43,1.08,2.46,-2.46,-2.86,-2.45,-1.39,-1.38,-1.37
155.32,1.06,2.50,1.04,2.49,-2.49,-2.84,-2.39,-1.42,-1.45,-1.44
156.88,1.02,2.54,0.99,2.51,-2.51,-2.80,-2.34,-1.49,-1.52,-1.51
158.44,0.90,2.50,0.95,2.54,-2.54,-2.77,-2.29,-1.63,-1.59,-1.60
160.03,0.85,2.53,0.90,2.56,-2.56,-2.73,-2.24,-1.70,-1.66,-1.67
161.63,0.85,2.60,0.85,2.57,-2.57,-2.68,-2.19,-1.72,-1.72,-1.75
163.24,0.84,2.65,0.80,2.59,-2.59,-2.64,-2.14,-1.74,-1.78,-1.81
164.88,0.77,2.63,0.75,2.59,-2.59,-2.59,-2.09,-1.82,-1.84,-1.85
166.53,0.67,2.58,0.69,2.58,-2.58,-2.54,-2.04,-1.91,-1.89,-1.90
168.19,0.64,2.59,0.63,2.56,-2.56,-2.48,-1.99,-1.92,-1.93,-1.95
169.87,0.63,2.62,0.57,2.54,-2.54,-2.43,-1.95,-1.90,-1.96,-1.99
171.57,0.53,2.54,0.52,2.50,-2.50,-2.37,-1.91,-1.97,-1.99,-2.01
173.29,0.45,2.47,0.46,2.47,-2.47,-2.31,-1.87,-2.01,-2.01,-2.02
175.02,0.38,2.41,0.41,2.43,-2.43,-2.26,-1.83,-2.05,-2.02,-2.03
176.77,0.32,2.36,0.37,2.40,-2.40,-2.20,-1.79,-2.07,-2.03,-2.04
178.54,0.31,2.36,0.32,2.36,-2.36,-2.14,-1.76,-2.04,-2.04,-2.05
180.32,0.24,2.28,0.28,2.32,-2.32,-2.08,-1.73,-2.07,-2.04,-2.04
182.13,0.18,2.21,0.24,2.29,-2.29,-2.02,-1.69,-2.11,-2.05,-2.03
183.95,0.12,2.16,0.21,2.26,-2.26,-1.97,-1.67,-2.14,-2.05,-2.04
185.79,0.14,2.18,0.17,2.23,-2.23,-1.91,-1.64,-2.08,-2.06,-2.04
187.65,0.15,2.21,0.12,2.19,-2.19,-1.85,-1.61,-2.03,-2.07,-2.06
189.52,0.10,2.17,0.07,2.15,-2.15,-1.80,-1.59,-2.05,-2.08,-2.07
191.42,0.08,2.17,0.03,2.12,-2.12,-1.74,-1.57,-2.04,-2.09,-2.09
193.33,0.08,2.19,-0.01,2.09,-2.09,-1.69,-1.55,-2.01,-2.11,-2.11
195.27,-0.01,2.12,-0.06,2.06,-2.06,-1.64,-1.53,-2.07,-2.12,-2.13
197.22,-0.07,2.08,-0.11,2.03,-2.03,-1.59,-1.51,-2.09,-2.14,-2.15
199.19,-0.12,2.05,-0.17,1.99,-1.99,-1.54,-1.50,-2.11,-2.16,-2.17
201.18,-0.25,1.94,-0.22,1.96,-1.96,-1.49,-1.48,-2.21,-2.18,-2.19
203.19,-0.40,1.81,-0.28,1.93,-1.93,-1.44,-1.47,-2.32,-2.20,-2.21
205.23,-0.46,1.77,-0.34,1.89,-1.89,-1.40,-1.45,-2.34,-2.22,-2.23
207.28,-0.46,1.78,-0.40,1.84,-1.84,-1.35,-1.44,-2.30,-2.24,-2.24
209.35,-0.46,1.80,-0.47,1.79,-1.79,-1.31,-1.43,-2.25,-2.26,-2.26
211.44,-0.47,1.82,-0.53,1.74,-1.74,-1.27,-1.42,-2.21,-2.28,-2.29
213.56,-0.59,1.71,-0.60,1.70,-1.70,-1.23,-1.42,-2.28,-2.29,-2.30
215.69,-0.66,1.65,-0.65,1.66,-1.66,-1.19,-1.41,-2.31,-2.31,-2.31
217.85,-0.67,1.65,-0.70,1.62,-1.62,-1.15,-1.40,-2.28,-2.32,-2.32
220.03,-0.73,1.60,-0.76,1.57,-1.57,-1.12,-1.39,-2.29,-2.33,-2.33
222.23,-0.80,1.56,-0.82,1.52,-1.52,-1.08,-1.38,-2.31,-2.33,-2.36
224.45,-0.87,1.48,-0.87,1.47,-1.47,-1.05,-1.38,-2.34,-2.34,-2.35
226.70,-0.94,1.41,-0.92,1.42,-1.42,-1.01,-1.37,-2.35,-2.34,-2.35
228.96,-1.03,1.31,-0.97,1.36,-1.36,-0.98,-1.36,-2.38,-2.33,-2.34
231.25,-1.06,1.27,-1.03,1.30,-1.30,-0.95,-1.35,-2.35,-2.32,-2.33
233.57,-1.07,1.25,-1.08,1.23,-1.23,-0.92,-1.34,-2.30,-2.31,-2.32
235.90,-1.09,1.22,-1.13,1.17,-1.17,-0.89,-1.33,-2.26,-2.30,-2.31
238.26,-1.17,1.13,-1.17,1.11,-1.11,-0.86,-1.32,-2.27,-2.28,-2.30
240.64,-1.30,0.97,-1.22,1.04,-1.04,-0.84,-1.31,-2.34,-2.26,-2.27
243.05,-1.31,0.93,-1.26,0.98,-0.98,-0.81,-1.30,-2.28,-2.24,-2.24
245.48,-1.29,0.93,-1.30,0.91,-0.91,-0.79,-1.29,-2.20,-2.22,-2.22
247.93,-1.28,0.91,-1.35,0.85,-0.85,-0.76,-1.27,-2.12,-2.19,-2.19
250.41,-1.36,0.81,-1.40,0.77,-0.77,-0.74,-1.25,-2.13,-2.17,-2.17
252.92,-1.36,0.78,-1.45,0.70,-0.70,-0.72,-1.24,-2.05,-2.15,-2.14
255.45,-1.42,0.70,-1.50,0.63,-0.63,-0.70,-1.22,-2.04,-2.12,-2.12
258.00,-1.48,0.62,-1.52,0.58,-0.58,-0.67,-1.20,-2.05,-2.10,-2.10
260.58,-1.57,0.51,-1.52,0.55,-0.55,-0.65,-1.18,-2.11,-2.07,-2.08
263.19,-1.55,0.50,-1.51,0.54,-0.54,-0.64,-1.16,-2.09,-2.05,-2.05
265.82,-1.50,0.53,-1.46,0.56,-0.56,-0.62,-1.13,-2.06,-2.02,-2.03
268.48,-1.50,0.51,-1.41,0.59,-0.59,-0.60,-1.11,-2.09,-2.00,-2.01
271.16,-1.57,0.41,-1.34,0.64,-0.64,-0.58,-1.09,-2.20,-1.97,-1.98
273.87,-1.56,0.40,-1.26,0.69,-0.69,-0.56,-1.06,-2.24,-1.95,-1.96
276.61,-1.40,0.53,-1.18,0.75,-0.75,-0.55,-1.03,-2.14,-1.92,-1.93
279.38,-1.17,0.73,-1.08,0.81,-0.81,-0.53,-1.00,-1.98,-1.90,-1.90
282.17,-0.83,1.05,-0.99,0.88,-0.88,-0.52,-0.98,-1.70,-1.87,-1.88
284.99,-0.63,1.21,-0.90,0.94,-0.94,-0.50,-0.95,-1.56,-1.84,-1.84
287.84,-0.59,1.23,-0.82,0.99,-0.99,-0.49,-0.92,-1.58,-1.81,-1.82
290.72,-0.60,1.19,-0.74,1.04,-1.04,-0.48,-0.89,-1.64,-1.78,-1.79
293.63,-0.56,1.20,-0.69,1.07,-1.07,-0.46,-0.86,-1.62,-1.75,-1.76
296.57,-0.59,1.14,-0.65,1.07,-1.07,-0.45,-0.83,-1.66,-1.72,-1.73
299.53,-0.63,1.07,-0.63,1.07,-1.07,-0.44,-0.79,-1.69,-1.70,-1.70
302.53,-0.69,0.99,-0.63,1.04,-1.04,-0.43,-0.76,-1.72,-1.67,-1.68
305.55,-0.73,0.91,-0.65,0.99,-0.99,-0.42,-0.73,-1.71,-1.64,-1.64
308.61,-0.76,0.86,-0.70,0.92,-0.92,-0.41,-0.70,-1.67,-1.62,-1.62
311.69,-0.80,0.79,-0.76,0.83,-0.83,-0.39,-0.67,-1.63,-1.59,-1.59
314.81,-0.83,0.74,-0.83,0.74,-0.74,-0.38,-0.64,-1.57,-1.57,-1.57
317.96,-0.86,0.69,-0.89,0.66,-0.66,-0.38,-0.61,-1.52,-1.55,-1.55
321.14,-0.95,0.59,-0.94,0.59,-0.59,-0.37,-0.57,-1.54,-1.53,-1.54
324.35,-1.07,0.45,-0.99,0.53,-0.53,-0.36,-0.54,-1.59,-1.52,-1.52
327.59,-1.10,0.41,-1.03,0.47,-0.47,-0.35,-0.51,-1.56,-1.50,-1.51
330.87,-1.10,0.40,-1.07,0.41,-0.41,-0.34,-0.48,-1.51,-1.49,-1.50
334.18,-1.10,0.38,-1.12,0.36,-0.36,-0.33,-0.45,-1.46,-1.48,-1.48
337.52,-1.13,0.34,-1.16,0.31,-0.31,-0.32,-0.42,-1.43,-1.47,-1.47
340.90,-1.19,0.27,-1.20,0.26,-0.26,-0.32,-0.39,-1.44,-1.46,-1.46
344.30,-1.23,0.22,-1.24,0.22,-0.22,-0.31,-0.36,-1.44,-1.45,-1.45
347.75,-1.29,0.16,-1.27,0.17,-0.17,-0.30,-0.33,-1.46,-1.45,-1.45
351.23,-1.31,0.13,-1.31,0.14,-0.14,-0.30,-0.30,-1.44,-1.44,-1.44
354.74,-1.30,0.15,-1.34,0.10,-0.10,-0.29,-0.27,-1.40,-1.44,-1.45
358.28,-1.35,0.09,-1.36,0.07,-0.07,-0.28,-0.25,-1.42,-1.43,-1.44
361.87,-1.40,0.04,-1.39,0.05,-0.05,-0.28,-0.22,-1.44,-1.43,-1.44
365.49,-1.47,-0.04,-1.41,0.02,-0.02,-0.27,-0.19,-1.48,-1.43,-1.43
369.14,-1.48,-0.04,-1.44,-0.01,0.01,-0.27,-0.16,-1.47,-1.43,-1.44
372.83,-1.47,-0.03,-1.46,-0.03,0.03,-0.26,-0.13,-1.44,-1.43,-1.44
376.56,-1.47,-0.02,-1.48,-0.04,0.04,-0.26,-0.11,-1.42,-1.44,-1.45
380.33,-1.49,-0.05,-1.50,-0.06,0.06,-0.25,-0.08,-1.43,-1.44,-1.44
384.13,-1.54,-0.10,-1.51,-0.07,0.07,-0.25,-0.05,-1.47,-1.44,-1.44
387.97,-1.55,-0.10,-1.52,-0.08,0.08,-0.24,-0.02,-1.47,-1.45,-1.45
391.85,-1.54,-0.08,-1.54,-0.09,0.09,-0.24,0.00,-1.45,-1.45,-1.46
395.77,-1.54,-0.09,-1.56,-0.10,0.10,-0.23,0.03,-1.44,-1.46,-1.45
399.73,-1.54,-0.08,-1.58,-0.11,0.11,-0.23,0.05,-1.42,-1.46,-1.46
403.72,-1.55,-0.09,-1.60,-0.13,0.13,-0.23,0.08,-1.42,-1.47,-1.46
407.76,-1.62,-0.14,-1.62,-0.14,0.14,-0.22,0.10,-1.47,-1.47,-1.48
411.84,-1.65,-0.17,-1.64,-0.16,0.16,-0.22,0.13,-1.48,-1.48,-1.48
415.96,-1.65,-0.17,-1.66,-0.19,0.19,-0.22,0.15,-1.46,-1.48,-1.48
420.12,-1.65,-0.17,-1.68,-0.21,0.21,-0.21,0.18,-1.44,-1.47,-1.48
424.32,-1.65,-0.17,-1.70,-0.23,0.23,-0.21,0.20,-1.42,-1.47,-1.48
428.56,-1.73,-0.26,-1.71,-0.25,0.25,-0.21,0.22,-1.47,-1.46,-1.47
432.85,-1.80,-0.34,-1.72,-0.28,0.28,-0.20,0.25,-1.52,-1.44,-1.46
437.18,-1.80,-0.35,-1.72,-0.30,0.30,-0.20,0.27,-1.50,-1.42,-1.45
