frequency,raw,error,smoothed,error_smoothed,equalization,parametric_eq,fixed_band_eq,equalized_raw,equalized_smoothed,target
20.00,-20.78,-24.00,-20.77,-24.00,24.00,18.88,5.94,3.23,3.23,3.22
20.20,-20.66,-23.93,-20.66,-23.93,23.93,18.86,6.09,3.28,3.28,3.27
20.40,-20.53,-23.86,-20.54,-23.86,23.86,18.84,6.23,3.32,3.32,3.33
20.61,-20.42,-23.77,-20.42,-23.78,23.78,18.81,6.39,3.36,3.36,3.35
20.81,-20.29,-23.70,-20.30,-23.70,23.70,18.79,6.54,3.40,3.40,3.41
21.02,-20.18,-23.62,-20.17,-23.61,23.61,18.76,6.71,3.43,3.43,3.44
21.23,-20.05,-23.51,-20.05,-23.52,23.51,18.74,6.87,3.47,3.46,3.46
21.44,-19.92,-23.41,-19.92,-23.41,23.41,18.71,7.04,3.49,3.49,3.49
21.66,-19.80,-23.30,-19.79,-23.30,23.30,18.68,7.21,3.51,3.51,3.50
21.87,-19.66,-23.18,-19.67,-23.19,23.19,18.66,7.39,3.53,3.52,3.52
22.09,-19.54,-23.08,-19.54,-23.07,23.08,18.63,7.58,3.53,3.53,3.54
22.31,-19.41,-22.96,-19.41,-22.96,22.95,18.60,7.77,3.54,3.54,3.54
22.54,-19.29,-22.83,-19.29,-22.83,22.82,18.57,7.96,3.54,3.54,3.54
22.76,-19.15,-22.70,-19.16,-22.70,22.69,18.54,8.16,3.54,3.54,3.54
22.99,-19.03,-22.56,-19.02,-22.56,22.56,18.51,8.36,3.53,3.54,3.53
23.22,-18.88,-22.41,-18.88,-22.41,22.41,18.48,8.57,3.54,3.54,3.53
23.45,-18.72,-22.26,-18.73,-22.27,22.27,18.45,8.79,3.54,3.54,3.53
23.69,-18.58,-22.12,-18.58,-22.12,22.12,18.42,9.01,3.54,3.54,3.54
23.92,-18.43,-21.98,-18.43,-21.98,21.97,18.38,9.23,3.53,3.54,3.54
24.16,-18.28,-21.83,-18.28,-21.83,21.82,18.35,9.47,3.54,3.54,3.55
24.40,-18.13,-21.69,-18.13,-21.68,21.68,18.31,9.70,3.55,3.55,3.55
24.65,-17.99,-21.53,-17.98,-21.53,21.55,18.28,9.95,3.56,3.57,3.55
24.89,-17.83,-21.38,-17.85,-21.39,21.43,18.24,10.19,3.59,3.58,3.54
25.14,-17.72,-21.27,-17.73,-21.28,21.31,18.21,10.45,3.58,3.58,3.55
25.39,-17.63,-21.19,-17.63,-21.18,21.19,18.17,10.70,3.55,3.56,3.55
25.65,-17.54,-21.09,-17.54,-21.09,21.07,18.13,10.97,3.53,3.53,3.55
25.91,-17.45,-20.99,-17.44,-20.99,20.95,18.09,11.23,3.50,3.51,3.55
26.16,-17.31,-20.86,-17.31,-20.85,20.82,18.05,11.51,3.51,3.52,3.54
26.43,-17.16,-20.70,-17.16,-20.70,20.70,18.01,11.78,3.54,3.54,3.54
26.69,-17.00,-20.54,-17.00,-20.55,20.56,17.97,12.06,3.56,3.56,3.54
26.96,-16.85,-20.39,-16.85,-20.40,20.42,17.92,12.34,3.57,3.57,3.54
27.23,-16.71,-20.25,-16.70,-20.25,20.26,17.88,12.62,3.56,3.56,3.54
27.50,-16.57,-20.11,-16.57,-20.11,20.11,17.83,12.89,3.54,3.54,3.54
27.77,-16.42,-19.96,-16.43,-19.96,19.95,17.79,13.17,3.52,3.52,3.53
28.05,-16.28,-19.82,-16.28,-19.81,19.79,17.74,13.44,3.50,3.51,3.53
28.33,-16.11,-19.64,-16.11,-19.64,19.63,17.69,13.70,3.52,3.52,3.52
28.62,-15.95,-19.47,-15.95,-19.47,19.48,17.64,13.96,3.53,3.54,3.52
28.90,-15.77,-19.31,-15.78,-19.31,19.33,17.59,14.20,3.56,3.55,3.53
29.19,-15.64,-19.16,-15.64,-19.17,19.19,17.54,14.43,3.55,3.55,3.52
29.48,-15.50,-19.04,-15.50,-19.03,19.04,17.49,14.63,3.54,3.54,3.53
29.78,-15.38,-18.90,-15.38,-18.91,18.91,17.43,14.83,3.53,3.53,3.53
30.08,-15.26,-18.79,-15.25,-18.78,18.77,17.38,14.98,3.52,3.52,3.53
30.38,-15.13,-18.65,-15.13,-18.65,18.64,17.32,15.13,3.52,3.52,3.53
30.68,-15.00,-18.52,-15.00,-18.52,18.52,17.26,15.23,3.52,3.52,3.52
30.99,-14.87,-18.39,-14.87,-18.39,18.39,17.20,15.31,3.52,3.52,3.52
31.30,-14.74,-18.25,-14.74,-18.26,18.26,17.14,15.35,3.52,3.52,3.52
31.61,-14.61,-18.12,-14.61,-18.12,18.13,17.08,15.37,3.52,3.52,3.51
31.93,-14.48,-17.99,-14.48,-17.99,18.00,17.01,15.34,3.52,3.52,3.51
32.24,-14.34,-17.85,-14.35,-17.86,17.86,16.95,15.30,3.52,3.51,3.50
32.57,-14.23,-17.73,-14.22,-17.73,17.72,16.88,15.22,3.50,3.50,3.50
32.89,-14.09,-17.60,-14.09,-17.59,17.58,16.81,15.12,3.49,3.49,3.50
33.22,-13.95,-17.45,-13.95,-17.45,17.44,16.74,14.99,3.48,3.48,3.49
33.55,-13.80,-17.30,-13.81,-17.30,17.29,16.67,14.85,3.48,3.48,3.49
33.89,-13.66,-17.14,-13.65,-17.14,17.13,16.60,14.68,3.48,3.48,3.48
34.23,-13.50,-16.98,-13.49,-16.98,16.98,16.52,14.51,3.48,3.48,3.48
34.57,-13.34,-16.81,-13.34,-16.81,16.82,16.45,14.32,3.48,3.48,3.47
34.92,-13.18,-16.65,-13.18,-16.65,16.67,16.37,14.13,3.49,3.49,3.47
35.27,-13.04,-16.50,-13.03,-16.50,16.52,16.29,13.93,3.48,3.49,3.47
35.62,-12.90,-16.36,-12.89,-16.36,16.38,16.20,13.72,3.48,3.48,3.46
35.97,-12.75,-16.22,-12.76,-16.23,16.24,16.12,13.52,3.48,3.47,3.46
36.33,-12.64,-16.11,-12.65,-16.11,16.10,16.03,13.32,3.45,3.45,3.46
36.70,-12.53,-15.98,-12.52,-15.98,15.96,15.94,13.11,3.43,3.44,3.46
37.06,-12.40,-15.86,-12.39,-15.85,15.82,15.85,12.91,3.42,3.44,3.46
37.43,-12.22,-15.69,-12.23,-15.69,15.69,15.75,12.72,3.46,3.46,3.46
37.81,-12.06,-15.52,-12.07,-15.53,15.54,15.66,12.53,3.49,3.48,3.46
38.19,-11.91,-15.36,-11.92,-15.38,15.40,15.56,12.34,3.49,3.48,3.45
38.57,-11.79,-15.25,-11.78,-15.25,15.24,15.46,12.16,3.46,3.46,3.46
38.95,-11.65,-15.13,-11.64,-15.11,15.09,15.35,11.99,3.43,3.45,3.47
39.34,-11.48,-14.95,-11.48,-14.95,14.93,15.24,11.82,3.44,3.45,3.46
39.74,-11.31,-14.77,-11.31,-14.78,14.77,15.13,11.66,3.47,3.46,3.46
40.14,-11.14,-14.60,-11.14,-14.61,14.62,15.02,11.51,3.49,3.48,3.46
40.54,-11.00,-14.46,-10.99,-14.46,14.48,14.90,11.37,3.48,3.48,3.46
40.94,-10.85,-14.31,-10.85,-14.31,14.33,14.78,11.23,3.48,3.48,3.45
41.35,-10.73,-14.18,-10.72,-14.18,14.19,14.66,11.10,3.47,3.47,3.45
41.76,-10.59,-14.04,-10.60,-14.04,14.06,14.54,10.98,3.46,3.46,3.44
42.18,-10.47,-13.92,-10.48,-13.93,13.92,14.41,10.86,3.44,3.43,3.44
42.60,-10.36,-13.80,-10.37,-13.80,13.78,14.27,10.75,3.41,3.41,3.43
43.03,-10.26,-13.68,-10.23,-13.66,13.63,14.14,10.66,3.37,3.40,3.42
43.46,-10.08,-13.49,-10.08,-13.49,13.47,14.00,10.56,3.40,3.39,3.41
43.90,-9.91,-13.30,-9.92,-13.31,13.30,13.85,10.48,3.40,3.39,3.40
44.33,-9.75,-13.13,-9.76,-13.13,13.13,13.71,10.40,3.38,3.38,3.37
44.78,-9.61,-12.96,-9.60,-12.96,12.96,13.55,10.33,3.36,3.37,3.36
45.23,-9.45,-12.79,-9.44,-12.78,12.80,13.40,10.26,3.35,3.36,3.35
45.68,-9.27,-12.60,-9.28,-12.61,12.64,13.24,10.21,3.37,3.36,3.33
46.13,-9.11,-12.43,-9.13,-12.45,12.48,13.08,10.16,3.37,3.35,3.31
46.60,-9.01,-12.32,-9.00,-12.31,12.33,12.91,10.11,3.32,3.33,3.31
47.06,-8.89,-12.18,-8.89,-12.19,12.17,12.74,10.08,3.29,3.28,3.29
47.53,-8.76,-12.05,-8.77,-12.06,12.01,12.56,10.04,3.25,3.25,3.28
48.01,-8.64,-11.92,-8.62,-11.90,11.85,12.38,10.02,3.22,3.24,3.28
48.49,-8.45,-11.71,-8.45,-11.72,11.69,12.20,10.00,3.25,3.24,3.27
48.97,-8.26,-11.51,-8.27,-11.51,11.53,12.01,9.99,3.27,3.26,3.24
49.46,-8.09,-11.32,-8.09,-11.32,11.36,11.82,9.98,3.26,3.27,3.22
49.96,-7.93,-11.13,-7.94,-11.15,11.18,11.63,9.97,3.25,3.24,3.21
50.46,-7.81,-11.00,-7.81,-11.00,11.00,11.43,9.97,3.19,3.19,3.19
50.96,-7.69,-10.87,-7.66,-10.85,10.82,11.23,9.98,3.13,3.15,3.18
51.47,-7.51,-10.67,-7.51,-10.68,10.64,11.03,9.99,3.13,3.13,3.16
51.99,-7.33,-10.48,-7.32,-10.48,10.47,10.83,10.00,3.14,3.15,3.16
52.51,-7.14,-10.28,-7.13,-10.28,10.30,10.63,10.01,3.17,3.17,3.15
53.03,-6.95,-10.09,-6.97,-10.11,10.15,10.43,10.02,3.20,3.17,3.14
53.56,-6.84,-9.96,-6.83,-9.96,9.99,10.23,10.04,3.15,3.16,3.12
54.10,-6.72,-9.83,-6.70,-9.81,9.84,10.03,10.05,3.12,3.14,3.11
54.64,-6.58,-9.67,-6.58,-9.68,9.69,9.83,10.07,3.11,3.10,3.10
55.18,-6.44,-9.54,-6.46,-9.55,9.53,9.63,10.08,3.09,3.07,3.09
55.74,-6.35,-9.42,-6.33,-9.41,9.37,9.44,10.09,3.03,3.04,3.08
56.29,-6.19,-9.26,-6.19,-9.25,9.21,9.25,10.10,3.01,3.02,3.06
56.86,-6.02,-9.07,-6.02,-9.07,9.04,9.06,10.10,3.02,3.02,3.06
57.42,-5.82,-8.85,-5.83,-8.86,8.86,8.88,10.09,3.04,3.04,3.02
58.00,-5.64,-8.65,-5.63,-8.64,8.68,8.69,10.08,3.05,3.06,3.01
58.58,-5.44,-8.44,-5.45,-8.45,8.50,8.51,10.06,3.07,3.05,3.00
59.16,-5.27,-8.26,-5.30,-8.28,8.31,8.33,10.03,3.04,3.02,2.98
59.76,-5.19,-8.15,-5.18,-8.14,8.12,8.16,9.99,2.94,2.95,2.97
60.35,-5.06,-7.99,-5.06,-7.98,7.94,7.98,9.94,2.88,2.88,2.92
60.96,-4.94,-7.82,-4.91,-7.80,7.76,7.80,9.88,2.82,2.85,2.89
61.57,-4.74,-7.58,-4.74,-7.59,7.58,7.62,9.81,2.85,2.84,2.85
62.18,-4.55,-7.36,-4.57,-7.37,7.40,7.45,9.72,2.85,2.83,2.80
62.80,-4.41,-7.17,-4.42,-7.18,7.22,7.27,9.62,2.80,2.80,2.75
63.43,-4.30,-7.01,-4.30,-7.01,7.03,7.08,9.51,2.73,2.73,2.71
64.07,-4.19,-6.85,-4.18,-6.85,6.83,6.90,9.39,2.64,2.65,2.67
64.71,-4.05,-6.67,-4.03,-6.66,6.63,6.72,9.25,2.59,2.60,2.63
65.35,-3.87,-6.46,-3.87,-6.46,6.44,6.53,9.10,2.56,2.56,2.58
66.01,-3.69,-6.22,-3.71,-6.24,6.24,6.34,8.94,2.55,2.53,2.54
66.67,-3.56,-6.04,-3.54,-6.03,6.04,6.14,8.77,2.48,2.49,2.49
67.33,-3.39,-5.83,-3.38,-5.82,5.82,5.95,8.59,2.43,2.44,2.43
68.01,-3.21,-5.60,-3.22,-5.61,5.61,5.75,8.40,2.40,2.39,2.40
68.69,-3.05,-5.39,-3.05,-5.39,5.39,5.55,8.20,2.34,2.34,2.35
69.37,-2.88,-5.18,-2.88,-5.18,5.17,5.35,7.99,2.29,2.29,2.29
70.07,-2.73,-4.97,-2.72,-4.96,4.96,5.15,7.78,2.23,2.24,2.25
70.77,-2.55,-4.74,-2.55,-4.75,4.75,4.94,7.56,2.21,2.20,2.19
71.48,-2.40,-4.54,-2.40,-4.54,4.55,4.74,7.34,2.15,2.14,2.15
72.19,-2.27,-4.34,-2.27,-4.35,4.36,4.53,7.11,2.09,2.09,2.07
72.91,-2.15,-4.17,-2.14,-4.16,4.17,4.33,6.88,2.02,2.03,2.01
73.64,-2.01,-3.97,-2.00,-3.96,3.99,4.12,6.65,1.98,1.98,1.96
74.38,-1.88,-3.78,-1.90,-3.80,3.81,3.92,6.42,1.93,1.91,1.90
75.12,-1.78,-3.62,-1.80,-3.64,3.63,3.72,6.18,1.85,1.83,1.84
75.87,-1.73,-3.52,-1.69,-3.48,3.45,3.52,5.94,1.71,1.75,1.78
76.63,-1.57,-3.31,-1.57,-3.30,3.27,3.32,5.71,1.69,1.70,1.73
77.40,-1.41,-3.09,-1.42,-3.10,3.09,3.13,5.47,1.68,1.67,1.68
78.17,-1.24,-2.87,-1.26,-2.89,2.90,2.94,5.23,1.66,1.65,1.62
78.95,-1.11,-2.70,-1.12,-2.70,2.72,2.75,5.00,1.61,1.60,1.58
79.74,-1.00,-2.54,-0.99,-2.53,2.54,2.57,4.76,1.53,1.54,1.53
80.54,-0.88,-2.36,-0.87,-2.35,2.36,2.40,4.53,1.48,1.49,1.48
81.35,-0.74,-2.17,-0.74,-2.18,2.18,2.22,4.29,1.44,1.44,1.44
82.16,-0.61,-1.99,-0.63,-2.01,2.01,2.06,4.06,1.40,1.38,1.38
82.98,-0.53,-1.87,-0.51,-1.85,1.85,1.89,3.83,1.32,1.33,1.34
83.81,-0.42,-1.71,-0.39,-1.69,1.69,1.73,3.60,1.27,1.29,1.29
84.65,-0.27,-1.51,-0.27,-1.52,1.53,1.57,3.37,1.26,1.26,1.24
85.50,-0.14,-1.34,-0.16,-1.36,1.37,1.42,3.15,1.23,1.21,1.21
86.35,-0.06,-1.21,-0.05,-1.21,1.21,1.26,2.92,1.15,1.15,1.15
87.22,0.01,-1.09,0.04,-1.07,1.05,1.10,2.70,1.06,1.08,1.11
88.09,0.15,-0.90,0.15,-0.91,0.89,0.95,2.48,1.04,1.04,1.06
88.97,0.26,-0.73,0.27,-0.73,0.73,0.79,2.26,1.00,1.01,1.00
89.86,0.40,-0.54,0.39,-0.55,0.58,0.63,2.04,0.98,0.97,0.95
90.76,0.49,-0.40,0.48,-0.41,0.43,0.48,1.82,0.92,0.91,0.90
91.66,0.55,-0.29,0.56,-0.28,0.27,0.32,1.60,0.83,0.83,0.84
92.58,0.62,-0.16,0.64,-0.14,0.12,0.17,1.39,0.75,0.77,0.78
93.51,0.74,0.01,0.74,0.01,-0.02,0.01,1.17,0.73,0.73,0.74
94.44,0.86,0.17,0.85,0.16,-0.16,-0.13,0.96,0.71,0.70,0.69
95.39,0.95,0.31,0.95,0.30,-0.29,-0.28,0.75,0.67,0.66,0.65
96.34,1.02,0.43,1.02,0.43,-0.42,-0.41,0.54,0.61,0.60,0.59
97.30,1.06,0.52,1.09,0.54,-0.55,-0.54,0.33,0.52,0.54,0.54
98.28,1.16,0.67,1.14,0.65,-0.67,-0.66,0.12,0.50,0.48,0.50
99.26,1.21,0.76,1.22,0.77,-0.77,-0.78,-0.09,0.44,0.45,0.45
100.25,1.26,0.86,1.29,0.89,-0.87,-0.88,-0.29,0.40,0.42,0.40
101.25,1.37,1.02,1.34,0.98,-0.96,-0.98,-0.49,0.42,0.38,0.35
102.27,1.36,1.06,1.36,1.06,-1.04,-1.06,-0.69,0.33,0.32,0.31
103.29,1.35,1.10,1.37,1.12,-1.12,-1.14,-0.89,0.24,0.26,0.25
104.32,1.36,1.15,1.37,1.16,-1.19,-1.22,-1.08,0.18,0.18,0.21
105.37,1.40,1.24,1.39,1.23,-1.25,-1.28,-1.27,0.15,0.14,0.17
106.42,1.40,1.29,1.42,1.30,-1.30,-1.34,-1.46,0.10,0.11,0.11
107.48,1.43,1.38,1.43,1.37,-1.36,-1.40,-1.65,0.08,0.07,0.05
108.56,1.43,1.43,1.43,1.42,-1.40,-1.45,-1.83,0.03,0.02,0.00
109.64,1.41,1.46,1.42,1.47,-1.45,-1.49,-2.00,-0.03,-0.03,-0.05
110.74,1.39,1.50,1.39,1.49,-1.49,-1.53,-2.17,-0.10,-0.10,-0.11
111.85,1.37,1.52,1.38,1.53,-1.54,-1.57,-2.34,-0.16,-0.16,-0.14
112.97,1.36,1.57,1.37,1.57,-1.58,-1.60,-2.49,-0.22,-0.21,-0.20
114.10,1.36,1.62,1.36,1.62,-1.63,-1.64,-2.65,-0.26,-0.27,-0.25
115.24,1.36,1.67,1.36,1.66,-1.68,-1.67,-2.79,-0.32,-0.32,-0.30
116.39,1.36,1.72,1.37,1.72,-1.74,-1.70,-2.92,-0.37,-0.37,-0.36
117.55,1.37,1.77,1.40,1.79,-1.80,-1.72,-3.05,-0.42,-0.40,-0.40
118.73,1.44,1.88,1.43,1.86,-1.86,-1.75,-3.17,-0.41,-0.43,-0.44
119.92,1.47,1.94,1.46,1.93,-1.92,-1.78,-3.27,-0.44,-0.45,-0.46
121.12,1.48,1.99,1.49,1.99,-1.97,-1.81,-3.38,-0.49,-0.48,-0.50
122.33,1.49,2.03,1.50,2.03,-2.02,-1.83,-3.46,-0.53,-0.52,-0.53
123.55,1.50,2.07,1.50,2.07,-2.07,-1.86,-3.54,-0.56,-0.57,-0.57
124.79,1.50,2.10,1.51,2.10,-2.11,-1.89,-3.60,-0.61,-0.60,-0.59
126.03,1.51,2.14,1.51,2.14,-2.15,-1.92,-3.66,-0.64,-0.64,-0.63
127.29,1.52,2.17,1.52,2.17,-2.19,-1.95,-3.71,-0.66,-0.67,-0.65
128.57,1.52,2.21,1.53,2.21,-2.22,-1.98,-3.75,-0.70,-0.70,-0.68
129.85,1.53,2.25,1.53,2.25,-2.25,-2.01,-3.77,-0.72,-0.72,-0.72
131.15,1.53,2.28,1.54,2.29,-2.27,-2.04,-3.79,-0.74,-0.73,-0.75
132.46,1.54,2.32,1.55,2.32,-2.29,-2.08,-3.79,-0.74,-0.74,-0.78
133.79,1.54,2.35,1.53,2.33,-2.30,-2.11,-3.79,-0.75,-0.77,-0.80
135.12,1.49,2.33,1.49,2.32,-2.31,-2.15,-3.78,-0.81,-0.82,-0.84
136.48,1.43,2.29,1.43,2.29,-2.31,-2.18,-3.77,-0.88,-0.88,-0.86
137.84,1.36,2.26,1.38,2.28,-2.32,-2.22,-3.74,-0.95,-0.94,-0.90
139.22,1.35,2.28,1.36,2.28,-2.32,-2.25,-3.71,-0.96,-0.96,-0.93
140.61,1.36,2.32,1.36,2.31,-2.32,-2.29,-3.68,-0.95,-0.96,-0.96
142.02,1.36,2.34,1.36,2.34,-2.32,-2.32,-3.64,-0.95,-0.95,-0.98
143.44,1.36,2.37,1.35,2.36,-2.32,-2.35,-3.59,-0.95,-0.97,-1.01
144.87,1.30,2.35,1.31,2.35,-2.33,-2.38,-3.55,-1.02,-1.02,-1.05
146.32,1.26,2.35,1.26,2.34,-2.34,-2.41,-3.49,-1.08,-1.08,-1.09
147.78,1.19,2.31,1.21,2.33,-2.36,-2.44,-3.44,-1.16,-1.15,-1.12
149.26,1.16,2.33,1.17,2.34,-2.37,-2.46,-3.39,-1.21,-1.20,-1.17
150.75,1.15,2.38,1.14,2.37,-2.39,-2.48,-3.33,-1.23,-1.25,-1.23
152.26,1.12,2.42,1.12,2.41,-2.41,-2.50,-3.28,-1.28,-1.29,-1.30
153.78,1.06,2.43,1.09,2.46,-2.44,-2.51,-3.22,-1.37,-1.34,-1.37
155.32,1.06,2.50,1.05,2.49,-2.47,-2.52,-3.16,-1.41,-1.42,-1.44
156.88,1.02,2.54,0.99,2.51,-2.51,-2.52,-3.11,-1.48,-1.52,-1.51
158.44,0.90,2.50,0.93,2.53,-2.54,-2.52,-3.05,-1.64,-1.61,-1.60
160.03,0.85,2.53,0.88,2.55,-2.57,-2.51,-2.99,-1.71,-1.69,-1.67
161.63,0.85,2.60,0.85,2.59,-2.59,-2.50,-2.94,-1.74,-1.74,-1.75
163.24,0.84,2.65,0.82,2.62,-2.61,-2.49,-2.89,-1.76,-1.79,-1.81
164.88,0.77,2.63,0.76,2.62,-2.61,-2.47,-2.84,-1.84,-1.85,-1.85
166.53,0.67,2.58,0.71,2.61,-2.61,-2.45,-2.79,-1.93,-1.90,-1.90
168.19,0.64,2.59,0.65,2.60,-2.59,-2.42,-2.74,-1.95,-1.94,-1.95
169.87,0.63,2.62,0.60,2.58,-2.57,-2.40,-2.70,-1.93,-1.97,-1.99
171.57,0.53,2.54,0.54,2.54,-2.53,-2.37,-2.65,-1.99,-1.99,-2.01
173.29,0.45,2.47,0.46,2.48,-2.48,-2.34,-2.61,-2.03,-2.02,-2.02
175.02,0.38,2.41,0.39,2.42,-2.43,-2.31,-2.57,-2.04,-2.04,-2.03
176.77,0.32,2.36,0.34,2.38,-2.37,-2.27,-2.54,-2.05,-2.03,-2.04
178.54,0.31,2.36,0.29,2.33,-2.32,-2.24,-2.50,-2.01,-2.03,-2.05
180.32,0.24,2.28,0.24,2.27,-2.28,-2.21,-2.47,-2.03,-2.04,-2.04
182.13,0.18,2.21,0.19,2.22,-2.24,-2.17,-2.44,-2.06,-2.06,-2.03
183.95,0.12,2.16,0.15,2.18,-2.22,-2.14,-2.41,-2.09,-2.06,-2.04
185.79,0.14,2.18,0.14,2.18,-2.20,-2.10,-2.39,-2.06,-2.06,-2.04
187.65,0.15,2.21,0.13,2.18,-2.19,-2.07,-2.36,-2.04,-2.06,-2.06
189.52,0.10,2.17,0.12,2.19,-2.18,-2.04,-2.34,-2.07,-2.05,-2.07
191.42,0.08,2.17,0.10,2.18,-2.16,-2.00,-2.32,-2.08,-2.07,-2.09
193.33,0.08,2.19,0.05,2.16,-2.14,-1.97,-2.30,-2.05,-2.08,-2.11
195.27,-0.01,2.12,0.01,2.14,-2.10,-1.94,-2.29,-2.10,-2.08,-2.13
197.22,-0.07,2.08,-0.05,2.10,-2.05,-1.91,-2.27,-2.12,-2.10,-2.15
199.19,-0.12,2.05,-0.15,2.02,-2.00,-1.88,-2.26,-2.12,-2.15,-2.17
201.18,-0.25,1.94,-0.26,1.93,-1.95,-1.85,-2.25,-2.19,-2.21,-2.19
203.19,-0.40,1.81,-0.36,1.84,-1.90,-1.82,-2.24,-2.29,-2.26,-2.21
205.23,-0.46,1.77,-0.44,1.78,-1.85,-1.79,-2.23,-2.30,-2.29,-2.23
207.28,-0.46,1.78,-0.46,1.78,-1.81,-1.76,-2.22,-2.26,-2.26,-2.24
209.35,-0.46,1.80,-0.46,1.80,-1.77,-1.74,-2.22,-2.22,-2.23,-2.26
211.44,-0.47,1.82,-0.50,1.77,-1.74,-1.71,-2.21,-2.20,-2.24,-2.29
213.56,-0.59,1.71,-0.56,1.73,-1.71,-1.68,-2.21,-2.30,-2.27,-2.30
215.69,-0.66,1.65,-0.63,1.68,-1.68,-1.65,-2.20,-2.33,-2.31,-2.31
217.85,-0.67,1.65,-0.69,1.63,-1.64,-1.63,-2.20,-2.30,-2.33,-2.32
220.03,-0.73,1.60,-0.73,1.60,-1.59,-1.60,-2.19,-2.32,-2.32,-2.33
222.23,-0.80,1.56,-0.79,1.55,-1.53,-1.57,-2.18,-2.33,-2.32,-2.36
224.45,-0.87,1.48,-0.87,1.48,-1.48,-1.55,-2.18,-2.34,-2.35,-2.35
226.70,-0.94,1.41,-0.95,1.40,-1.42,-1.52,-2.17,-2.35,-2.36,-2.35
228.96,-1.03,1.31,-1.01,1.33,-1.36,-1.49,-2.16,-2.38,-2.36,-2.34
231.25,-1.06,1.27,-1.04,1.28,-1.29,-1.47,-2.16,-2.35,-2.33,-2.33
233.57,-1.07,1.25,-1.07,1.25,-1.22,-1.44,-2.15,-2.29,-2.29,-2.32
235.90,-1.09,1.22,-1.11,1.19,-1.16,-1.41,-2.13,-2.24,-2.27,-2.31
238.26,-1.17,1.13,-1.18,1.10,-1.10,-1.39,-2.12,-2.26,-2.28,-2.30
240.64,-1.30,0.97,-1.25,1.01,-1.04,-1.36,-2.11,-2.34,-2.30,-2.27
243.05,-1.31,0.93,-1.29,0.95,-0.99,-1.33,-2.09,-2.29,-2.28,-2.24
245.48,-1.29,0.93,-1.30,0.91,-0.93,-1.31,-2.07,-2.21,-2.23,-2.22
247.93,-1.28,0.91,-1.30,0.89,-0.86,-1.28,-2.05,-2.14,-2.16,-2.19
250.41,-1.36,0.81,-1.32,0.84,-0.80,-1.25,-2.03,-2.15,-2.12,-2.17
252.92,-1.36,0.78,-1.37,0.77,-0.74,-1.22,-2.00,-2.09,-2.10,-2.14
255.45,-1.42,0.70,-1.43,0.69,-0.68,-1.20,-1.97,-2.10,-2.11,-2.12
258.00,-1.48,0.62,-1.49,0.61,-0.62,-1.17,-1.94,-2.10,-2.11,-2.10
260.58,-1.57,0.51,-1.53,0.54,-0.55,-1.14,-1.91,-2.12,-2.08,-2.08
263.19,-1.55,0.50,-1.53,0.52,-0.49,-1.11,-1.88,-2.04,-2.02,-2.05
265.82,-1.50,0.53,-1.53,0.50,-0.45,-1.08,-1.84,-1.95,-1.98,-2.03
268.48,-1.50,0.51,-1.53,0.47,-0.46,-1.05,-1.80,-1.95,-1.99,-2.01
271.16,-1.57,0.41,-1.55,0.43,-0.50,-1.02,-1.76,-2.07,-2.05,-1.98
273.87,-1.56,0.40,-1.52,0.43,-0.58,-0.99,-1.72,-2.14,-2.11,-1.96
276.61,-1.40,0.53,-1.38,0.54,-0.69,-0.96,-1.68,-2.08,-2.07,-1.93
279.38,-1.17,0.73,-1.13,0.77,-0.80,-0.93,-1.63,-1.97,-1.93,-1.90
282.17,-0.83,1.05,-0.86,1.00,-0.92,-0.90,-1.58,-1.74,-1.78,-1.88
284.99,-0.63,1.21,-0.68,1.16,-1.02,-0.87,-1.54,-1.65,-1.70,-1.84
287.84,-0.59,1.23,-0.57,1.24,-1.11,-0.84,-1.49,-1.70,-1.69,-1.82
290.72,-0.60,1.19,-0.56,1.22,-1.17,-0.81,-1.44,-1.76,-1.73,-1.79
293.63,-0.56,1.20,-0.57,1.18,-1.18,-0.77,-1.39,-1.74,-1.76,-1.76
296.57,-0.59,1.14,-0.59,1.14,-1.16,-0.74,-1.34,-1.74,-1.75,-1.73
299.53,-0.63,1.07,-0.63,1.07,-1.10,-0.71,-1.29,-1.73,-1.73,-1.70
302.53,-0.69,0.99,-0.68,0.99,-1.03,-0.68,-1.23,-1.71,-1.70,-1.68
305.55,-0.73,0.91,-0.72,0.92,-0.95,-0.64,-1.18,-1.67,-1.67,-1.64
308.61,-0.76,0.86,-0.76,0.85,-0.87,-0.61,-1.13,-1.62,-1.63,-1.62
311.69,-0.80,0.79,-0.79,0.80,-0.79,-0.58,-1.08,-1.58,-1.58,-1.59
314.81,-0.83,0.74,-0.82,0.75,-0.71,-0.55,-1.02,-1.54,-1.53,-1.57
317.96,-0.86,0.69,-0.88,0.67,-0.64,-0.51,-0.97,-1.50,-1.52,-1.55
321.14,-0.95,0.59,-0.96,0.57,-0.58,-0.48,-0.92,-1.53,-1.54,-1.54
324.35,-1.07,0.45,-1.03,0.48,-0.52,-0.45,-0.87,-1.58,-1.55,-1.52
327.59,-1.10,0.41,-1.09,0.42,-0.46,-0.41,-0.81,-1.55,-1.54,-1.51
330.87,-1.10,0.40,-1.10,0.39,-0.40,-0.38,-0.76,-1.50,-1.50,-1.50
334.18,-1.10,0.38,-1.11,0.37,-0.35,-0.35,-0.71,-1.44,-1.46,-1.48
337.52,-1.13,0.34,-1.13,0.33,-0.30,-0.31,-0.66,-1.43,-1.43,-1.47
340.90,-1.19,0.27,-1.18,0.28,-0.26,-0.28,-0.61,-1.45,-1.44,-1.46
344.30,-1.23,0.22,-1.23,0.21,-0.23,-0.25,-0.56,-1.45,-1.46,-1.45
347.75,-1.29,0.16,-1.27,0.17,-0.19,-0.21,-0.51,-1.47,-1.46,-1.45
351.23,-1.31,0.13,-1.29,0.15,-0.15,-0.18,-0.46,-1.45,-1.44,-1.44
354.74,-1.30,0.15,-1.32,0.12,-0.10,-0.15,-0.41,-1.40,-1.42,-1.45
358.28,-1.35,0.09,-1.35,0.09,-0.07,-0.12,-0.36,-1.41,-1.42,-1.44
361.87,-1.40,0.04,-1.40,0.03,-0.04,-0.09,-0.31,-1.43,-1.44,-1.44
365.49,-1.47,-0.04,-1.45,-0.02,-0.01,-0.05,-0.26,-1.48,-1.46,-1.43
369.14,-1.48,-0.04,-1.47,-0.03,0.02,-0.02,-0.21,-1.46,-1.45,-1.44
372.83,-1.47,-0.03,-1.47,-0.03,0.04,0.01,-0.16,-1.43,-1.43,-1.44
376.56,-1.47,-0.02,-1.48,-0.04,0.05,0.04,-0.11,-1.41,-1.42,-1.45
380.33,-1.49,-0.05,-1.50,-0.06,0.07,0.06,-0.06,-1.42,-1.43,-1.44
384.13,-1.54,-0.10,-1.52,-0.08,0.07,0.09,-0.02,-1.46,-1.45,-1.44
387.97,-1.55,-0.10,-1.54,-0.10,0.08,0.12,0.03,-1.47,-1.46,-1.45
391.85,-1.54,-0.08,-1.54,-0.09,0.09,0.15,0.08,-1.45,-1.46,-1.46
395.77,-1.54,-0.09,-1.53,-0.08,0.09,0.17,0.12,-1.44,-1.44,-1.45
399.73,-1.54,-0.08,-1.54,-0.08,0.10,0.20,0.17,-1.43,-1.44,-1.46
403.72,-1.55,-0.09,-1.57,-0.11,0.11,0.22,0.22,-1.43,-1.46,-1.46
407.76,-1.62,-0.14,-1.60,-0.13,0.12,0.24,0.26,-1.49,-1.48,-1.48
411.84,-1.65,-0.17,-1.63,-0.16,0.14,0.26,0.30,-1.50,-1.49,-1.48
415.96,-1.65,-0.17,-1.64,-0.17,0.17,0.29,0.35,-1.48,-1.47,-1.48
420.12,-1.65,-0.17,-1.65,-0.17,0.20,0.30,0.39,-1.44,-1.44,-1.48
424.32,-1.65,-0.17,-1.68,-0.20,0.23,0.32,0.43,-1.41,-1.44,-1.48
428.56,-1.73,-0.26,-1.73,-0.26,0.26,0.34,0.47,-1.46,-1.47,-1.47
432.85,-1.80,-0.34,-1.77,-0.31,0.29,0.36,0.51,-1.51,-1.49,-1.46
437.18,-1.80,-0.35,-1.79,-0.35,0.31,0.37,0.55,-1.49,-1.48,-1.45
