frequency,raw,error,smoothed,error_smoothed,equalization,parametric_eq,fixed_band_eq,equalized_raw,equalized_smoothed,target
20.00,-17.67,-22.32,-17.73,-22.40,22.40,23.68,8.85,4.72,4.67,4.64
20.20,-17.61,-22.29,-17.59,-22.28,22.28,23.63,9.02,4.66,4.69,4.67
20.40,-17.50,-22.21,-17.45,-22.16,22.16,23.54,9.20,4.66,4.71,4.70
20.61,-17.35,-22.07,-17.31,-22.04,22.04,23.42,9.38,4.69,4.73,4.72
20.81,-17.17,-21.93,-17.17,-21.91,21.91,23.27,9.57,4.74,4.74,4.75
21.02,-17.03,-21.82,-17.03,-21.79,21.79,23.11,9.76,4.75,4.76,4.78
21.23,-16.88,-21.68,-16.89,-21.66,21.66,22.92,9.95,4.78,4.77,4.79
21.44,-16.71,-21.51,-16.74,-21.53,21.53,22.73,10.15,4.82,4.78,4.80
21.66,-16.58,-21.39,-16.60,-21.40,21.40,22.52,10.35,4.82,4.79,4.81
21.87,-16.44,-21.25,-16.46,-21.26,21.26,22.31,10.56,4.82,4.80,4.81
22.09,-16.28,-21.10,-16.31,-21.12,21.12,22.09,10.78,4.84,4.81,4.82
22.31,-16.15,-20.97,-16.16,-20.98,20.98,21.88,11.00,4.83,4.82,4.82
22.54,-16.03,-20.84,-16.01,-20.83,20.83,21.66,11.23,4.80,4.82,4.82
22.76,-15.88,-20.70,-15.86,-20.68,20.68,21.45,11.46,4.80,4.82,4.82
22.99,-15.73,-20.54,-15.71,-20.53,20.53,21.24,11.70,4.80,4.82,4.81
23.22,-15.59,-20.39,-15.57,-20.38,20.38,21.03,11.95,4.80,4.81,4.81
23.45,-15.42,-20.23,-15.42,-20.23,20.23,20.83,12.20,4.81,4.81,4.80
23.69,-15.29,-20.09,-15.27,-20.08,20.08,20.64,12.46,4.79,4.81,4.80
23.92,-15.11,-19.92,-15.12,-19.93,19.93,20.44,12.73,4.82,4.81,4.80
24.16,-14.95,-19.77,-14.97,-19.77,19.77,20.26,13.01,4.82,4.81,4.81
24.40,-14.79,-19.60,-14.81,-19.62,19.62,20.08,13.29,4.83,4.80,4.81
24.65,-14.66,-19.46,-14.66,-19.46,19.46,19.90,13.59,4.81,4.80,4.80
24.89,-14.49,-19.29,-14.50,-19.30,19.30,19.73,13.89,4.81,4.80,4.80
25.14,-14.35,-19.15,-14.35,-19.15,19.15,19.57,14.21,4.79,4.80,4.80
25.39,-14.20,-19.00,-14.20,-18.99,18.99,19.41,14.53,4.79,4.80,4.80
25.65,-14.06,-18.85,-14.04,-18.84,18.84,19.25,14.86,4.78,4.79,4.80
25.91,-13.90,-18.68,-13.89,-18.68,18.68,19.10,15.20,4.78,4.79,4.79
26.16,-13.74,-18.53,-13.74,-18.53,18.53,18.95,15.56,4.78,4.79,4.78
26.43,-13.57,-18.35,-13.59,-18.37,18.37,18.81,15.92,4.80,4.78,4.78
26.69,-13.43,-18.22,-13.43,-18.22,18.22,18.66,16.30,4.78,4.78,4.78
26.96,-13.28,-18.06,-13.28,-18.06,18.06,18.52,16.68,4.78,4.78,4.78
27.23,-13.12,-17.90,-13.13,-17.90,17.90,18.38,17.08,4.78,4.77,4.78
27.50,-12.98,-17.75,-12.97,-17.74,17.74,18.25,17.48,4.77,4.77,4.78
27.77,-12.83,-17.60,-12.82,-17.58,17.58,18.11,17.89,4.75,4.77,4.77
28.05,-12.66,-17.43,-12.66,-17.42,17.42,17.97,18.31,4.76,4.76,4.76
28.33,-12.50,-17.26,-12.50,-17.26,17.26,17.83,18.73,4.76,4.76,4.75
28.62,-12.36,-17.11,-12.35,-17.10,17.10,17.70,19.15,4.74,4.75,4.75
28.90,-12.19,-16.94,-12.19,-16.94,16.94,17.56,19.56,4.75,4.75,4.75
29.19,-12.03,-16.77,-12.03,-16.78,16.78,17.42,19.96,4.74,4.74,4.74
29.48,-11.86,-16.61,-11.88,-16.62,16.62,17.27,20.34,4.75,4.74,4.75
29.78,-11.72,-16.45,-11.72,-16.45,16.45,17.13,20.69,4.73,4.73,4.73
30.08,-11.56,-16.29,-11.56,-16.28,16.28,16.98,21.00,4.73,4.73,4.73
30.38,-11.41,-16.13,-11.40,-16.12,16.12,16.83,21.25,4.71,4.72,4.72
30.68,-11.22,-15.94,-11.23,-15.95,15.95,16.68,21.44,4.72,4.71,4.72
30.99,-11.08,-15.78,-11.07,-15.78,15.78,16.52,21.56,4.70,4.71,4.70
31.30,-10.92,-15.62,-10.91,-15.62,15.62,16.36,21.59,4.70,4.70,4.70
31.61,-10.77,-15.46,-10.76,-15.45,15.45,16.19,21.54,4.69,4.70,4.70
31.93,-10.59,-15.27,-10.60,-15.29,15.29,16.03,21.41,4.70,4.69,4.69
32.24,-10.43,-15.11,-10.44,-15.12,15.12,15.85,21.21,4.69,4.68,4.67
32.57,-10.28,-14.95,-10.28,-14.95,14.95,15.68,20.94,4.68,4.67,4.67
32.89,-10.10,-14.77,-10.12,-14.79,14.79,15.50,20.62,4.68,4.67,4.67
33.22,-9.94,-14.60,-9.96,-14.62,14.62,15.32,20.27,4.68,4.66,4.66
33.55,-9.81,-14.47,-9.80,-14.45,14.45,15.13,19.88,4.64,4.65,4.65
33.89,-9.65,-14.29,-9.64,-14.28,14.28,14.94,19.47,4.63,4.64,4.64
34.23,-9.51,-14.14,-9.48,-14.12,14.12,14.75,19.05,4.61,4.63,4.64
34.57,-9.34,-13.97,-9.32,-13.95,13.95,14.55,18.63,4.60,4.62,4.62
34.92,-9.18,-13.79,-9.16,-13.78,13.78,14.36,18.20,4.60,4.61,4.61
35.27,-9.00,-13.60,-9.00,-13.61,13.61,14.16,17.78,4.61,4.60,4.61
35.62,-8.85,-13.44,-8.85,-13.44,13.44,13.96,17.36,4.59,4.59,4.59
35.97,-8.68,-13.26,-8.69,-13.27,13.27,13.75,16.95,4.59,4.58,4.58
36.33,-8.51,-13.09,-8.53,-13.10,13.10,13.55,16.55,4.59,4.57,4.57
36.70,-8.36,-12.91,-8.37,-12.93,12.93,13.34,16.16,4.58,4.56,4.56
37.06,-8.20,-12.75,-8.22,-12.76,12.76,13.14,15.79,4.56,4.55,4.54
37.43,-8.06,-12.60,-8.06,-12.60,12.60,12.93,15.42,4.53,4.53,4.54
37.81,-7.91,-12.44,-7.91,-12.43,12.43,12.72,15.06,4.51,4.52,4.52
38.19,-7.75,-12.25,-7.75,-12.26,12.26,12.52,14.71,4.52,4.51,4.51
38.57,-7.60,-12.11,-7.60,-12.10,12.10,12.31,14.37,4.49,4.50,4.50
38.95,-7.44,-11.93,-7.45,-11.93,11.93,12.10,14.04,4.49,4.49,4.49
39.34,-7.30,-11.77,-7.29,-11.77,11.77,11.90,13.73,4.47,4.48,4.47
39.74,-7.14,-11.59,-7.14,-11.60,11.60,11.70,13.42,4.47,4.46,4.46
40.14,-7.00,-11.45,-6.98,-11.43,11.43,11.49,13.12,4.44,4.45,4.45
40.54,-6.86,-11.29,-6.82,-11.26,11.26,11.29,12.83,4.41,4.44,4.43
40.94,-6.67,-11.10,-6.66,-11.09,11.09,11.09,12.54,4.42,4.43,4.43
41.35,-6.50,-10.91,-6.50,-10.92,10.92,10.89,12.27,4.41,4.42,4.41
41.76,-6.34,-10.75,-6.34,-10.74,10.74,10.70,12.00,4.40,4.40,4.40
42.18,-6.18,-10.58,-6.19,-10.57,10.57,10.50,11.74,4.39,4.39,4.39
42.60,-6.01,-10.39,-6.03,-10.40,10.40,10.31,11.49,4.39,4.37,4.38
43.03,-5.85,-10.22,-5.87,-10.23,10.23,10.12,11.24,4.37,4.36,4.37
43.46,-5.69,-10.05,-5.71,-10.05,10.05,9.93,11.00,4.36,4.34,4.35
43.90,-5.55,-9.87,-5.56,-9.88,9.88,9.74,10.76,4.34,4.32,4.32
44.33,-5.39,-9.70,-5.40,-9.71,9.71,9.56,10.54,4.32,4.31,4.30
44.78,-5.27,-9.55,-5.25,-9.54,9.54,9.38,10.31,4.28,4.29,4.28
45.23,-5.11,-9.37,-5.10,-9.37,9.37,9.20,10.10,4.27,4.27,4.26
45.68,-4.96,-9.20,-4.95,-9.20,9.20,9.02,9.88,4.25,4.25,4.24
46.13,-4.81,-9.04,-4.80,-9.03,9.03,8.85,9.68,4.22,4.23,4.22
46.60,-4.67,-8.88,-4.65,-8.86,8.86,8.68,9.47,4.20,4.21,4.21
47.06,-4.50,-8.70,-4.51,-8.69,8.69,8.51,9.27,4.19,4.19,4.19
47.53,-4.37,-8.54,-4.36,-8.52,8.52,8.34,9.08,4.15,4.16,4.17
48.01,-4.23,-8.38,-4.22,-8.36,8.36,8.18,8.89,4.13,4.14,4.16
48.49,-4.09,-8.21,-4.07,-8.19,8.19,8.02,8.71,4.10,4.11,4.13
48.97,-3.93,-8.03,-3.93,-8.03,8.03,7.86,8.52,4.09,4.09,4.09
49.46,-3.80,-7.86,-3.80,-7.86,7.86,7.70,8.35,4.06,4.07,4.06
49.96,-3.67,-7.69,-3.67,-7.71,7.71,7.55,8.17,4.04,4.04,4.02
50.46,-3.52,-7.53,-3.54,-7.55,7.55,7.40,8.00,4.04,4.01,4.01
50.96,-3.41,-7.40,-3.42,-7.40,7.40,7.25,7.83,3.99,3.99,3.99
51.47,-3.28,-7.23,-3.30,-7.26,7.26,7.10,7.67,3.98,3.96,3.95
51.99,-3.19,-7.11,-3.19,-7.12,7.12,6.96,7.51,3.94,3.93,3.92
52.51,-3.09,-6.99,-3.09,-6.99,6.99,6.82,7.35,3.91,3.90,3.91
53.03,-3.00,-6.89,-3.00,-6.87,6.87,6.68,7.20,3.87,3.87,3.88
53.56,-2.89,-6.75,-2.91,-6.76,6.76,6.54,7.05,3.86,3.85,3.85
54.10,-2.84,-6.66,-2.83,-6.65,6.65,6.41,6.90,3.82,3.82,3.82
54.64,-2.76,-6.55,-2.76,-6.56,6.56,6.27,6.76,3.80,3.79,3.80
55.18,-2.68,-6.45,-2.70,-6.47,6.47,6.14,6.61,3.78,3.77,3.77
55.74,-2.64,-6.37,-2.64,-6.38,6.38,6.02,6.47,3.75,3.74,3.74
56.29,-2.57,-6.29,-2.59,-6.31,6.31,5.89,6.34,3.73,3.72,3.72
56.86,-2.53,-6.22,-2.54,-6.23,6.23,5.77,6.20,3.70,3.69,3.68
57.42,-2.48,-6.14,-2.50,-6.17,6.17,5.64,6.07,3.68,3.66,3.65
58.00,-2.45,-6.08,-2.47,-6.10,6.10,5.52,5.94,3.64,3.63,3.63
58.58,-2.43,-6.04,-2.43,-6.03,6.03,5.41,5.82,3.60,3.60,3.60
59.16,-2.39,-5.98,-2.40,-5.97,5.97,5.29,5.69,3.57,3.57,3.58
59.76,-2.36,-5.92,-2.36,-5.90,5.90,5.18,5.57,3.54,3.54,3.56
60.35,-2.33,-5.85,-2.32,-5.83,5.83,5.06,5.45,3.50,3.51,3.52
60.96,-2.28,-5.78,-2.28,-5.76,5.76,4.95,5.34,3.48,3.48,3.49
61.57,-2.24,-5.69,-2.23,-5.68,5.68,4.84,5.22,3.44,3.45,3.45
62.18,-2.19,-5.60,-2.18,-5.60,5.60,4.74,5.11,3.40,3.42,3.41
62.80,-2.13,-5.51,-2.12,-5.50,5.50,4.63,5.00,3.37,3.38,3.38
63.43,-2.07,-5.41,-2.05,-5.40,5.40,4.53,4.89,3.32,3.35,3.34
64.07,-2.00,-5.30,-1.97,-5.29,5.29,4.43,4.79,3.29,3.31,3.31
64.71,-1.91,-5.18,-1.89,-5.16,5.16,4.32,4.68,3.26,3.28,3.27
65.35,-1.80,-5.05,-1.79,-5.03,5.03,4.23,4.58,3.23,3.24,3.24
66.01,-1.70,-4.91,-1.69,-4.89,4.89,4.13,4.48,3.19,3.21,3.21
66.67,-1.59,-4.76,-1.58,-4.75,4.75,4.03,4.39,3.16,3.17,3.17
67.33,-1.47,-4.61,-1.46,-4.60,4.60,3.94,4.29,3.12,3.14,3.14
68.01,-1.34,-4.44,-1.34,-4.44,4.44,3.84,4.20,3.10,3.10,3.10
68.69,-1.22,-4.29,-1.21,-4.28,4.28,3.75,4.11,3.05,3.06,3.06
69.37,-1.08,-4.11,-1.09,-4.11,4.11,3.66,4.02,3.03,3.03,3.03
70.07,-0.94,-3.93,-0.96,-3.95,3.95,3.57,3.93,3.00,2.99,2.99
70.77,-0.83,-3.79,-0.83,-3.78,3.78,3.48,3.84,2.95,2.95,2.96
71.48,-0.69,-3.60,-0.71,-3.62,3.62,3.40,3.75,2.93,2.91,2.92
72.19,-0.58,-3.46,-0.59,-3.46,3.46,3.31,3.67,2.87,2.87,2.87
72.91,-0.45,-3.28,-0.47,-3.30,3.30,3.23,3.58,2.85,2.83,2.83
73.64,-0.35,-3.14,-0.36,-3.15,3.15,3.14,3.50,2.80,2.79,2.79
74.38,-0.25,-3.01,-0.26,-3.01,3.01,3.06,3.42,2.75,2.75,2.75
75.12,-0.14,-2.85,-0.16,-2.87,2.87,2.98,3.34,2.73,2.71,2.70
75.87,-0.06,-2.73,-0.07,-2.74,2.74,2.90,3.26,2.68,2.67,2.67
76.63,0.04,-2.59,0.01,-2.62,2.62,2.82,3.18,2.65,2.63,2.63
77.40,0.09,-2.51,0.08,-2.51,2.51,2.74,3.10,2.59,2.59,2.59
78.17,0.16,-2.38,0.15,-2.40,2.40,2.66,3.03,2.55,2.55,2.54
78.95,0.23,-2.28,0.21,-2.29,2.29,2.59,2.95,2.52,2.51,2.51
79.74,0.27,-2.20,0.27,-2.20,2.20,2.51,2.88,2.46,2.46,2.47
80.54,0.32,-2.11,0.32,-2.10,2.10,2.44,2.80,2.42,2.42,2.42
81.35,0.35,-2.04,0.36,-2.02,2.02,2.36,2.73,2.36,2.38,2.38
82.16,0.40,-1.94,0.40,-1.94,1.94,2.29,2.65,2.33,2.34,2.34
82.98,0.43,-1.88,0.43,-1.86,1.86,2.22,2.58,2.28,2.29,2.30
83.81,0.46,-1.79,0.46,-1.79,1.79,2.15,2.51,2.24,2.25,2.24
84.65,0.49,-1.71,0.49,-1.71,1.71,2.08,2.43,2.20,2.20,2.20
85.50,0.51,-1.65,0.51,-1.65,1.65,2.01,2.36,2.15,2.16,2.16
86.35,0.55,-1.56,0.53,-1.58,1.58,1.94,2.29,2.13,2.11,2.11
87.22,0.56,-1.50,0.54,-1.52,1.52,1.88,2.22,2.08,2.06,2.06
88.09,0.56,-1.45,0.55,-1.46,1.46,1.81,2.15,2.02,2.01,2.01
88.97,0.56,-1.41,0.56,-1.40,1.40,1.75,2.08,1.96,1.96,1.97
89.86,0.56,-1.36,0.56,-1.35,1.35,1.68,2.01,1.90,1.91,1.92
90.76,0.56,-1.30,0.56,-1.30,1.30,1.62,1.93,1.85,1.86,1.85
91.66,0.56,-1.26,0.56,-1.25,1.25,1.56,1.86,1.80,1.81,1.81
92.58,0.56,-1.19,0.55,-1.20,1.20,1.50,1.80,1.76,1.75,1.75
93.51,0.56,-1.15,0.54,-1.16,1.16,1.44,1.73,1.71,1.70,1.70
94.44,0.51,-1.14,0.53,-1.12,1.12,1.38,1.66,1.62,1.64,1.65
95.39,0.51,-1.09,0.51,-1.08,1.08,1.33,1.59,1.58,1.59,1.59
96.34,0.50,-1.03,0.49,-1.04,1.04,1.27,1.52,1.54,1.53,1.53
97.30,0.47,-1.01,0.47,-1.01,1.01,1.22,1.45,1.47,1.47,1.47
98.28,0.44,-0.98,0.44,-0.98,0.98,1.16,1.38,1.41,1.42,1.41
99.26,0.43,-0.93,0.41,-0.95,0.95,1.11,1.31,1.37,1.36,1.36
100.25,0.38,-0.93,0.38,-0.92,0.92,1.06,1.25,1.30,1.30,1.30
101.25,0.35,-0.90,0.34,-0.90,0.90,1.02,1.18,1.25,1.24,1.24
102.27,0.32,-0.87,0.30,-0.88,0.88,0.97,1.12,1.20,1.19,1.19
103.29,0.26,-0.86,0.26,-0.87,0.87,0.92,1.05,1.13,1.13,1.12
104.32,0.23,-0.85,0.21,-0.86,0.86,0.88,0.99,1.08,1.07,1.07
105.37,0.18,-0.84,0.17,-0.84,0.84,0.84,0.92,1.02,1.01,1.01
106.42,0.12,-0.84,0.12,-0.83,0.83,0.80,0.86,0.95,0.95,0.95
107.48,0.06,-0.84,0.07,-0.82,0.82,0.76,0.80,0.88,0.89,0.90
108.56,0.01,-0.82,0.02,-0.82,0.82,0.72,0.74,0.82,0.83,0.83
109.64,-0.03,-0.81,-0.04,-0.81,0.81,0.69,0.68,0.77,0.77,0.77
110.74,-0.08,-0.80,-0.09,-0.80,0.80,0.66,0.63,0.71,0.71,0.71
111.85,-0.14,-0.80,-0.14,-0.79,0.79,0.63,0.57,0.64,0.65,0.66
112.97,-0.20,-0.78,-0.19,-0.78,0.78,0.60,0.52,0.57,0.58,0.58
114.10,-0.25,-0.78,-0.25,-0.77,0.77,0.57,0.47,0.51,0.52,0.52
115.24,-0.29,-0.75,-0.30,-0.76,0.76,0.54,0.42,0.46,0.46,0.46
116.39,-0.33,-0.73,-0.35,-0.74,0.74,0.52,0.37,0.41,0.40,0.39
117.55,-0.38,-0.71,-0.39,-0.72,0.72,0.50,0.33,0.34,0.33,0.33
118.73,-0.44,-0.71,-0.44,-0.71,0.71,0.48,0.29,0.26,0.27,0.26
119.92,-0.49,-0.70,-0.48,-0.69,0.69,0.46,0.25,0.19,0.21,0.21
121.12,-0.52,-0.67,-0.53,-0.67,0.67,0.44,0.22,0.14,0.14,0.14
122.33,-0.57,-0.65,-0.57,-0.65,0.65,0.43,0.18,0.07,0.08,0.08
123.55,-0.60,-0.63,-0.61,-0.63,0.63,0.41,0.15,0.02,0.02,0.03
124.79,-0.65,-0.62,-0.64,-0.60,0.60,0.40,0.12,-0.05,-0.04,-0.03
126.03,-0.68,-0.59,-0.68,-0.58,0.58,0.39,0.10,-0.11,-0.10,-0.10
127.29,-0.71,-0.56,-0.72,-0.55,0.55,0.38,0.08,-0.16,-0.16,-0.16
128.57,-0.74,-0.52,-0.75,-0.53,0.53,0.37,0.06,-0.21,-0.22,-0.23
129.85,-0.79,-0.51,-0.79,-0.51,0.51,0.36,0.05,-0.29,-0.28,-0.29
131.15,-0.82,-0.48,-0.82,-0.48,0.48,0.35,0.03,-0.34,-0.34,-0.34
132.46,-0.85,-0.45,-0.86,-0.46,0.46,0.35,0.02,-0.39,-0.40,-0.40
133.79,-0.88,-0.44,-0.89,-0.44,0.44,0.34,0.01,-0.44,-0.45,-0.45
135.12,-0.92,-0.41,-0.93,-0.42,0.42,0.34,0.01,-0.50,-0.51,-0.51
136.48,-0.96,-0.41,-0.97,-0.41,0.41,0.34,0.01,-0.56,-0.56,-0.56
137.84,-0.99,-0.38,-1.01,-0.39,0.39,0.33,0.01,-0.60,-0.62,-0.61
139.22,-1.04,-0.37,-1.05,-0.38,0.38,0.33,0.01,-0.66,-0.67,-0.68
140.61,-1.07,-0.35,-1.09,-0.37,0.37,0.33,0.01,-0.70,-0.72,-0.73
142.02,-1.13,-0.37,-1.13,-0.36,0.36,0.33,0.01,-0.77,-0.76,-0.76
143.44,-1.16,-0.35,-1.16,-0.35,0.35,0.33,0.02,-0.81,-0.81,-0.81
144.87,-1.21,-0.36,-1.20,-0.34,0.34,0.33,0.03,-0.87,-0.86,-0.86
146.32,-1.24,-0.34,-1.24,-0.34,0.34,0.33,0.04,-0.91,-0.91,-0.91
147.78,-1.29,-0.35,-1.28,-0.33,0.33,0.33,0.05,-0.97,-0.95,-0.94
149.26,-1.32,-0.33,-1.32,-0.32,0.32,0.33,0.06,-1.01,-1.00,-0.99
150.75,-1.35,-0.31,-1.36,-0.31,0.31,0.33,0.07,-1.04,-1.05,-1.05
152.26,-1.39,-0.30,-1.39,-0.30,0.30,0.34,0.08,-1.10,-1.09,-1.09
153.78,-1.43,-0.30,-1.43,-0.29,0.29,0.34,0.09,-1.15,-1.14,-1.13
155.32,-1.46,-0.28,-1.46,-0.28,0.28,0.34,0.11,-1.19,-1.19,-1.19
156.88,-1.49,-0.27,-1.50,-0.27,0.27,0.34,0.12,-1.23,-1.23,-1.23
158.44,-1.52,-0.25,-1.53,-0.25,0.25,0.35,0.14,-1.27,-1.28,-1.28
160.03,-1.57,-0.25,-1.57,-0.25,0.25,0.35,0.15,-1.33,-1.32,-1.33
161.63,-1.60,-0.23,-1.61,-0.24,0.24,0.35,0.16,-1.36,-1.37,-1.38
163.24,-1.65,-0.23,-1.65,-0.23,0.23,0.35,0.18,-1.42,-1.42,-1.42
164.88,-1.68,-0.22,-1.69,-0.23,0.23,0.36,0.19,-1.45,-1.46,-1.46
166.53,-1.72,-0.22,-1.74,-0.23,0.23,0.36,0.21,-1.50,-1.51,-1.51
168.19,-1.76,-0.21,-1.78,-0.23,0.23,0.36,0.22,-1.54,-1.55,-1.55
169.87,-1.82,-0.23,-1.83,-0.23,0.23,0.37,0.24,-1.60,-1.60,-1.60
171.57,-1.87,-0.24,-1.87,-0.23,0.23,0.37,0.25,-1.65,-1.64,-1.64
173.29,-1.92,-0.24,-1.92,-0.23,0.23,0.38,0.27,-1.69,-1.69,-1.68
175.02,-1.96,-0.24,-1.97,-0.24,0.24,0.38,0.28,-1.73,-1.73,-1.72
176.77,-2.02,-0.25,-2.01,-0.24,0.24,0.38,0.30,-1.79,-1.77,-1.77
178.54,-2.05,-0.23,-2.06,-0.24,0.24,0.39,0.31,-1.81,-1.82,-1.82
180.32,-2.10,-0.24,-2.10,-0.24,0.24,0.39,0.32,-1.86,-1.86,-1.86
182.13,-2.15,-0.26,-2.15,-0.24,0.24,0.40,0.34,-1.91,-1.90,-1.90
183.95,-2.18,-0.24,-2.19,-0.25,0.25,0.40,0.35,-1.94,-1.94,-1.94
185.79,-2.24,-0.26,-2.23,-0.25,0.25,0.40,0.37,-2.00,-1.98,-1.98
187.65,-2.27,-0.25,-2.27,-0.25,0.25,0.41,0.38,-2.02,-2.02,-2.03
189.52,-2.30,-0.24,-2.31,-0.25,0.25,0.41,0.39,-2.05,-2.06,-2.06
191.42,-2.35,-0.26,-2.35,-0.26,0.26,0.42,0.41,-2.10,-2.10,-2.09
193.33,-2.38,-0.26,-2.39,-0.26,0.26,0.42,0.42,-2.13,-2.13,-2.13
195.27,-2.41,-0.25,-2.43,-0.26,0.26,0.43,0.43,-2.15,-2.16,-2.16
197.22,-2.46,-0.27,-2.46,-0.27,0.27,0.43,0.45,-2.19,-2.19,-2.19
199.19,-2.49,-0.26,-2.50,-0.28,0.28,0.44,0.46,-2.21,-2.22,-2.23
201.18,-2.54,-0.29,-2.54,-0.29,0.29,0.44,0.47,-2.26,-2.25,-2.25
203.19,-2.57,-0.30,-2.57,-0.30,0.30,0.45,0.48,-2.28,-2.28,-2.27
205.23,-2.61,-0.31,-2.61,-0.31,0.31,0.45,0.50,-2.31,-2.30,-2.30
207.28,-2.63,-0.32,-2.64,-0.32,0.32,0.46,0.51,-2.32,-2.32,-2.31
209.35,-2.66,-0.33,-2.67,-0.33,0.33,0.47,0.52,-2.33,-2.34,-2.34
211.44,-2.69,-0.33,-2.70,-0.34,0.34,0.47,0.53,-2.35,-2.36,-2.37
213.56,-2.74,-0.37,-2.73,-0.36,0.36,0.48,0.55,-2.39,-2.37,-2.37
215.69,-2.75,-0.38,-2.76,-0.37,0.37,0.48,0.56,-2.38,-2.38,-2.38
217.85,-2.78,-0.39,-2.78,-0.38,0.38,0.49,0.57,-2.40,-2.40,-2.39
220.03,-2.80,-0.40,-2.80,-0.40,0.40,0.50,0.58,-2.41,-2.40,-2.41
222.23,-2.82,-0.40,-2.82,-0.41,0.41,0.51,0.59,-2.42,-2.41,-2.42
224.45,-2.83,-0.42,-2.84,-0.42,0.42,0.51,0.61,-2.41,-2.42,-2.42
226.70,-2.87,-0.45,-2.86,-0.44,0.44,0.52,0.62,-2.44,-2.42,-2.42
228.96,-2.87,-0.45,-2.87,-0.45,0.45,0.53,0.63,-2.42,-2.42,-2.42
231.25,-2.87,-0.46,-2.89,-0.47,0.47,0.54,0.64,-2.41,-2.43,-2.42
233.57,-2.91,-0.50,-2.90,-0.48,0.48,0.55,0.65,-2.43,-2.42,-2.42
235.90,-2.91,-0.49,-2.92,-0.50,0.50,0.56,0.67,-2.42,-2.42,-2.42
238.26,-2.91,-0.49,-2.93,-0.51,0.51,0.56,0.68,-2.40,-2.42,-2.42
240.64,-2.94,-0.53,-2.95,-0.53,0.53,0.57,0.69,-2.41,-2.41,-2.41
243.05,-2.95,-0.55,-2.96,-0.56,0.56,0.58,0.70,-2.40,-2.40,-2.40
245.48,-2.95,-0.56,-2.97,-0.58,0.58,0.59,0.71,-2.38,-2.39,-2.39
247.93,-2.99,-0.61,-2.98,-0.60,0.60,0.61,0.72,-2.40,-2.38,-2.38
250.41,-3.00,-0.62,-2.99,-0.62,0.62,0.62,0.73,-2.39,-2.37,-2.38
252.92,-3.00,-0.64,-3.00,-0.64,0.64,0.63,0.75,-2.36,-2.36,-2.36
255.45,-3.00,-0.66,-3.01,-0.66,0.66,0.64,0.76,-2.34,-2.35,-2.34
258.00,-3.02,-0.70,-3.02,-0.69,0.69,0.65,0.77,-2.34,-2.33,-2.33
260.58,-3.04,-0.73,-3.03,-0.71,0.71,0.67,0.78,-2.33,-2.31,-2.32
263.19,-3.04,-0.75,-3.04,-0.74,0.74,0.68,0.79,-2.30,-2.30,-2.30
265.82,-3.04,-0.76,-3.05,-0.77,0.77,0.69,0.80,-2.28,-2.28,-2.28
268.48,-3.04,-0.78,-3.05,-0.79,0.79,0.71,0.82,-2.25,-2.26,-2.26
271.16,-3.04,-0.81,-3.06,-0.82,0.82,0.72,0.83,-2.22,-2.24,-2.24
273.87,-3.06,-0.84,-3.07,-0.85,0.85,0.74,0.84,-2.22,-2.23,-2.22
276.61,-3.08,-0.88,-3.08,-0.88,0.88,0.75,0.85,-2.21,-2.21,-2.20
279.38,-3.08,-0.90,-3.09,-0.90,0.90,0.77,0.87,-2.18,-2.19,-2.19
282.17,-3.08,-0.91,-3.10,-0.93,0.93,0.79,0.88,-2.15,-2.17,-2.17
284.99,-3.13,-0.99,-3.12,-0.96,0.96,0.81,0.90,-2.17,-2.15,-2.15
287.84,-3.13,-1.00,-3.13,-1.00,1.00,0.82,0.91,-2.14,-2.13,-2.13
290.72,-3.13,-1.03,-3.14,-1.03,1.03,0.84,0.93,-2.11,-2.11,-2.11
293.63,-3.13,-1.04,-3.15,-1.06,1.06,0.86,0.94,-2.08,-2.09,-2.09
296.57,-3.17,-1.10,-3.16,-1.09,1.09,0.88,0.96,-2.09,-2.07,-2.07
299.53,-3.17,-1.12,-3.17,-1.12,1.12,0.90,0.97,-2.06,-2.05,-2.05
302.53,-3.17,-1.14,-3.17,-1.15,1.15,0.93,0.99,-2.03,-2.03,-2.04
305.55,-3.17,-1.17,-3.18,-1.17,1.17,0.95,1.01,-2.00,-2.01,-2.00
308.61,-3.19,-1.21,-3.18,-1.20,1.20,0.97,1.03,-2.00,-1.98,-1.99
311.69,-3.19,-1.23,-3.18,-1.22,1.22,1.00,1.05,-1.97,-1.96,-1.96
314.81,-3.17,-1.25,-3.18,-1.24,1.24,1.02,1.07,-1.93,-1.94,-1.93
317.96,-3.17,-1.26,-3.18,-1.26,1.26,1.05,1.09,-1.92,-1.92,-1.91
321.14,-3.17,-1.28,-3.17,-1.28,1.28,1.08,1.11,-1.90,-1.90,-1.89
324.35,-3.17,-1.30,-3.17,-1.29,1.29,1.10,1.13,-1.88,-1.87,-1.88
327.59,-3.17,-1.32,-3.16,-1.30,1.30,1.13,1.16,-1.87,-1.85,-1.85
330.87,-3.17,-1.34,-3.15,-1.32,1.32,1.16,1.18,-1.86,-1.83,-1.83
334.18,-3.17,-1.36,-3.15,-1.34,1.34,1.19,1.21,-1.84,-1.81,-1.82
337.52,-3.13,-1.33,-3.15,-1.36,1.36,1.22,1.23,-1.78,-1.79,-1.80
340.90,-3.13,-1.36,-3.15,-1.37,1.37,1.26,1.26,-1.76,-1.78,-1.77
344.30,-3.11,-1.36,-3.15,-1.40,1.40,1.29,1.29,-1.72,-1.76,-1.76
347.75,-3.13,-1.40,-3.16,-1.42,1.42,1.32,1.32,-1.71,-1.74,-1.74
351.23,-3.13,-1.41,-3.18,-1.45,1.45,1.36,1.35,-1.68,-1.72,-1.72
354.74,-3.17,-1.47,-3.19,-1.49,1.49,1.39,1.38,-1.69,-1.70,-1.70
358.28,-3.21,-1.53,-3.21,-1.52,1.52,1.43,1.41,-1.69,-1.69,-1.69
361.87,-3.23,-1.57,-3.23,-1.56,1.56,1.47,1.45,-1.67,-1.67,-1.67
365.49,-3.26,-1.61,-3.25,-1.60,1.60,1.51,1.48,-1.67,-1.65,-1.65
369.14,-3.30,-1.66,-3.28,-1.64,1.64,1.55,1.52,-1.66,-1.64,-1.64
372.83,-3.31,-1.69,-3.31,-1.68,1.68,1.59,1.56,-1.63,-1.62,-1.62
376.56,-3.34,-1.73,-3.33,-1.72,1.72,1.63,1.59,-1.62,-1.61,-1.62
380.33,-3.37,-1.79,-3.36,-1.76,1.76,1.67,1.63,-1.61,-1.60,-1.59
384.13,-3.39,-1.81,-3.39,-1.80,1.80,1.71,1.67,-1.59,-1.58,-1.58
387.97,-3.41,-1.84,-3.41,-1.84,1.84,1.75,1.71,-1.57,-1.57,-1.57
391.85,-3.43,-1.87,-3.44,-1.88,1.88,1.79,1.75,-1.56,-1.56,-1.56
395.77,-3.43,-1.89,-3.46,-1.91,1.91,1.83,1.79,-1.53,-1.55,-1.55
399.73,-3.47,-1.94,-3.47,-1.94,1.94,1.88,1.83,-1.54,-1.54,-1.54
403.72,-3.47,-1.95,-3.49,-1.96,1.96,1.92,1.88,-1.51,-1.53,-1.53
407.76,-3.51,-1.99,-3.51,-1.99,1.99,1.96,1.92,-1.52,-1.52,-1.52
411.84,-3.52,-2.02,-3.52,-2.01,2.01,2.00,1.96,-1.51,-1.51,-1.50
415.96,-3.52,-2.03,-3.53,-2.04,2.04,2.04,2.00,-1.49,-1.50,-1.49
420.12,-3.56,-2.08,-3.55,-2.06,2.06,2.08,2.04,-1.51,-1.49,-1.48
424.32,-3.56,-2.09,-3.55,-2.08,2.08,2.12,2.09,-1.49,-1.48,-1.48
428.56,-3.56,-2.10,-3.56,-2.10,2.10,2.15,2.13,-1.47,-1.47,-1.47
432.85,-3.56,-2.11,-3.57,-2.11,2.11,2.19,2.16,-1.45,-1.45,-1.46
437.18,-3.56,-2.12,-3.57,-2.13,2.13,2.22,2.20,-1.44,-1.44,-1.45
441.55,-3.56,-2.13,-3.57,-2.14,2.14,2.25,2.24,-1.43,-1.43,-1.43
445.96,-3.56,-2.14,-3.57,-2.15,2.15,2.28,2.27,-1.42,-1.42,-1.42
450.42,-3.56,-2.15,-3.56,-2.15,2.15,2.31,2.31,-1.41,-1.41,-1.41
454.93,-3.56,-2.17,-3.55,-2.16,2.16,2.33,2.34,-1.40,-1.39,-1.39
