frequency,raw,error,smoothed,error_smoothed,equalization,parametric_eq,fixed_band_eq,equalized_raw,equalized_smoothed,target
20.00,-17.67,-21.18,-17.70,-21.20,21.25,20.04,8.37,3.57,3.55,3.51
20.20,-17.61,-21.15,-17.59,-21.13,21.14,20.31,8.54,3.52,3.54,3.54
20.40,-17.50,-21.07,-17.48,-21.05,21.02,20.55,8.71,3.52,3.54,3.57
20.61,-17.35,-20.93,-17.35,-20.94,20.90,20.75,8.88,3.56,3.56,3.59
20.81,-17.17,-20.79,-17.19,-20.81,20.78,20.91,9.06,3.61,3.59,3.62
21.02,-17.03,-20.68,-17.03,-20.67,20.66,21.01,9.25,3.63,3.63,3.65
21.23,-16.88,-20.54,-16.87,-20.53,20.53,21.07,9.44,3.65,3.66,3.66
21.44,-16.71,-20.38,-16.73,-20.40,20.40,21.08,9.63,3.69,3.68,3.67
21.66,-16.58,-20.25,-16.58,-20.25,20.26,21.04,9.83,3.69,3.69,3.68
21.87,-16.44,-20.12,-16.43,-20.11,20.12,20.96,10.03,3.68,3.69,3.68
22.09,-16.28,-19.97,-16.29,-19.98,19.98,20.85,10.24,3.70,3.69,3.69
22.31,-16.15,-19.84,-16.16,-19.84,19.84,20.70,10.46,3.69,3.69,3.69
22.54,-16.03,-19.71,-16.02,-19.71,19.70,20.53,10.68,3.68,3.68,3.69
22.76,-15.88,-19.57,-15.88,-19.57,19.56,20.34,10.91,3.67,3.67,3.69
22.99,-15.73,-19.41,-15.73,-19.42,19.41,20.14,11.14,3.68,3.68,3.68
23.22,-15.59,-19.26,-15.58,-19.26,19.26,19.92,11.38,3.68,3.68,3.68
23.45,-15.42,-19.10,-15.43,-19.11,19.11,19.71,11.63,3.68,3.68,3.68
23.69,-15.29,-18.96,-15.28,-18.95,18.95,19.49,11.88,3.66,3.68,3.68
23.92,-15.11,-18.79,-15.11,-18.79,18.79,19.27,12.14,3.68,3.68,3.68
24.16,-14.95,-18.63,-14.96,-18.63,18.64,19.05,12.41,3.68,3.68,3.68
24.40,-14.79,-18.47,-14.80,-18.47,18.48,18.84,12.69,3.69,3.68,3.68
24.65,-14.66,-18.32,-14.65,-18.32,18.33,18.64,12.97,3.67,3.68,3.67
24.89,-14.49,-18.16,-14.50,-18.17,18.17,18.44,13.27,3.68,3.67,3.67
25.14,-14.35,-18.02,-14.35,-18.02,18.02,18.25,13.57,3.66,3.66,3.67
25.39,-14.20,-17.87,-14.20,-17.87,17.86,18.07,13.88,3.66,3.66,3.67
25.65,-14.06,-17.72,-14.05,-17.72,17.71,17.89,14.20,3.65,3.65,3.67
25.91,-13.90,-17.56,-13.90,-17.56,17.55,17.72,14.53,3.66,3.66,3.66
26.16,-13.74,-17.40,-13.74,-17.40,17.40,17.56,14.87,3.66,3.66,3.66
26.43,-13.57,-17.22,-13.58,-17.24,17.24,17.40,15.21,3.68,3.66,3.66
26.69,-13.43,-17.09,-13.43,-17.08,17.09,17.25,15.57,3.65,3.66,3.66
26.96,-13.28,-16.93,-13.27,-16.93,16.93,17.10,15.93,3.65,3.66,3.66
27.23,-13.12,-16.76,-13.13,-16.78,16.77,16.96,16.31,3.66,3.65,3.65
27.50,-12.98,-16.62,-12.97,-16.62,16.62,16.82,16.69,3.64,3.64,3.65
27.77,-12.83,-16.47,-12.82,-16.46,16.46,16.68,17.07,3.63,3.64,3.64
28.05,-12.66,-16.30,-12.67,-16.30,16.30,16.55,17.46,3.64,3.63,3.64
28.33,-12.50,-16.13,-12.51,-16.14,16.14,16.41,17.84,3.64,3.63,3.63
28.62,-12.36,-15.98,-12.35,-15.98,15.98,16.28,18.22,3.62,3.63,3.63
28.90,-12.19,-15.82,-12.19,-15.82,15.82,16.15,18.59,3.62,3.62,3.63
29.19,-12.03,-15.65,-12.03,-15.65,15.65,16.01,18.95,3.62,3.62,3.62
29.48,-11.86,-15.48,-11.87,-15.49,15.49,15.88,19.28,3.63,3.62,3.62
29.78,-11.72,-15.32,-11.72,-15.32,15.33,15.74,19.58,3.61,3.61,3.61
30.08,-11.56,-15.16,-11.56,-15.16,15.16,15.59,19.84,3.60,3.60,3.61
30.38,-11.41,-15.00,-11.40,-15.00,15.00,15.45,20.05,3.59,3.60,3.60
30.68,-11.22,-14.82,-11.23,-14.83,14.83,15.30,20.20,3.61,3.60,3.60
30.99,-11.08,-14.66,-11.08,-14.66,14.66,15.15,20.28,3.59,3.59,3.59
31.30,-10.92,-14.49,-10.92,-14.50,14.50,14.99,20.30,3.58,3.58,3.58
31.61,-10.77,-14.34,-10.76,-14.33,14.33,14.82,20.24,3.56,3.57,3.58
31.93,-10.59,-14.15,-10.60,-14.16,14.16,14.66,20.11,3.57,3.56,3.57
32.24,-10.43,-13.99,-10.43,-13.99,13.99,14.48,19.91,3.56,3.56,3.56
32.57,-10.28,-13.83,-10.27,-13.82,13.83,14.30,19.66,3.55,3.56,3.56
32.89,-10.10,-13.65,-10.11,-13.66,13.67,14.12,19.37,3.56,3.56,3.55
33.22,-9.94,-13.48,-9.95,-13.50,13.50,13.93,19.03,3.56,3.55,3.54
33.55,-9.81,-13.35,-9.80,-13.34,13.34,13.74,18.67,3.53,3.54,3.54
33.89,-9.65,-13.18,-9.66,-13.18,13.17,13.54,18.29,3.52,3.52,3.53
34.23,-9.51,-13.02,-9.51,-13.02,13.01,13.34,17.89,3.50,3.50,3.52
34.57,-9.34,-12.85,-9.34,-12.85,12.84,13.13,17.49,3.49,3.50,3.51
34.92,-9.18,-12.67,-9.17,-12.67,12.67,12.92,17.08,3.49,3.49,3.50
35.27,-9.00,-12.48,-9.01,-12.49,12.50,12.71,16.68,3.50,3.49,3.49
35.62,-8.85,-12.32,-8.84,-12.32,12.32,12.50,16.28,3.48,3.48,3.48
35.97,-8.68,-12.15,-8.68,-12.14,12.15,12.28,15.88,3.47,3.47,3.47
36.33,-8.51,-11.97,-8.52,-11.97,11.98,12.06,15.49,3.47,3.46,3.46
36.70,-8.36,-11.80,-8.36,-11.80,11.81,11.84,15.11,3.46,3.46,3.45
37.06,-8.20,-11.64,-8.21,-11.64,11.65,11.63,14.74,3.44,3.44,3.44
37.43,-8.06,-11.49,-8.06,-11.49,11.48,11.41,14.37,3.42,3.42,3.43
37.81,-7.91,-11.33,-7.91,-11.33,11.32,11.19,14.01,3.40,3.41,3.42
38.19,-7.75,-11.15,-7.75,-11.16,11.16,10.97,13.67,3.41,3.40,3.41
38.57,-7.60,-11.00,-7.60,-11.00,11.00,10.75,13.33,3.39,3.40,3.40
38.95,-7.44,-10.83,-7.45,-10.83,10.84,10.54,13.00,3.39,3.39,3.39
39.34,-7.30,-10.67,-7.29,-10.67,10.67,10.32,12.68,3.37,3.38,3.37
39.74,-7.14,-10.49,-7.15,-10.50,10.51,10.11,12.36,3.37,3.36,3.36
40.14,-7.00,-10.34,-7.00,-10.34,10.34,9.90,12.06,3.34,3.34,3.35
40.54,-6.86,-10.19,-6.84,-10.18,10.17,9.69,11.76,3.31,3.33,3.34
40.94,-6.67,-10.00,-6.68,-10.01,10.00,9.49,11.47,3.33,3.32,3.33
41.35,-6.50,-9.82,-6.51,-9.83,9.83,9.29,11.18,3.32,3.32,3.32
41.76,-6.34,-9.65,-6.34,-9.65,9.65,9.09,10.91,3.31,3.31,3.31
42.18,-6.18,-9.48,-6.18,-9.48,9.48,8.89,10.64,3.30,3.30,3.30
42.60,-6.01,-9.30,-6.02,-9.30,9.30,8.70,10.37,3.29,3.29,3.29
43.03,-5.85,-9.13,-5.85,-9.13,9.13,8.51,10.11,3.27,3.28,3.28
43.46,-5.69,-8.95,-5.69,-8.95,8.96,8.32,9.86,3.26,3.26,3.26
43.90,-5.55,-8.78,-5.55,-8.78,8.79,8.14,9.61,3.24,3.24,3.24
44.33,-5.39,-8.61,-5.40,-8.62,8.62,7.96,9.37,3.23,3.22,3.22
44.78,-5.27,-8.46,-5.25,-8.45,8.45,7.78,9.13,3.19,3.20,3.20
45.23,-5.11,-8.28,-5.11,-8.29,8.29,7.61,8.90,3.18,3.18,3.18
45.68,-4.96,-8.12,-4.96,-8.13,8.12,7.44,8.67,3.17,3.16,3.17
46.13,-4.81,-7.96,-4.81,-7.96,7.96,7.27,8.44,3.15,3.15,3.15
46.60,-4.67,-7.80,-4.66,-7.80,7.80,7.11,8.22,3.13,3.14,3.14
47.06,-4.50,-7.62,-4.51,-7.63,7.63,6.95,8.00,3.13,3.12,3.12
47.53,-4.37,-7.47,-4.37,-7.47,7.47,6.79,7.79,3.09,3.10,3.10
48.01,-4.23,-7.31,-4.22,-7.31,7.30,6.63,7.58,3.07,3.07,3.09
48.49,-4.09,-7.14,-4.08,-7.14,7.13,6.48,7.38,3.04,3.05,3.06
48.97,-3.93,-6.96,-3.94,-6.97,6.96,6.34,7.18,3.03,3.02,3.03
49.46,-3.80,-6.80,-3.80,-6.79,6.80,6.19,6.98,2.99,3.00,3.00
49.96,-3.67,-6.63,-3.66,-6.63,6.64,6.05,6.78,2.97,2.98,2.97
50.46,-3.52,-6.46,-3.53,-6.48,6.48,5.91,6.59,2.97,2.95,2.95
50.96,-3.41,-6.34,-3.40,-6.33,6.34,5.78,6.40,2.92,2.93,2.93
51.47,-3.28,-6.18,-3.29,-6.19,6.20,5.65,6.22,2.91,2.91,2.90
51.99,-3.19,-6.06,-3.19,-6.07,6.06,5.52,6.04,2.88,2.88,2.88
52.51,-3.09,-5.94,-3.08,-5.94,5.94,5.39,5.86,2.85,2.86,2.86
53.03,-3.00,-5.84,-3.00,-5.83,5.82,5.27,5.68,2.82,2.83,2.84
53.56,-2.89,-5.70,-2.91,-5.72,5.72,5.15,5.51,2.82,2.81,2.81
54.10,-2.84,-5.62,-2.83,-5.61,5.61,5.03,5.34,2.78,2.79,2.79
54.64,-2.76,-5.51,-2.75,-5.51,5.52,4.91,5.18,2.76,2.76,2.76
55.18,-2.68,-5.42,-2.69,-5.43,5.43,4.80,5.02,2.74,2.74,2.74
55.74,-2.64,-5.34,-2.63,-5.34,5.34,4.69,4.86,2.71,2.71,2.71
56.29,-2.57,-5.26,-2.58,-5.26,5.27,4.58,4.71,2.69,2.69,2.69
56.86,-2.53,-5.20,-2.53,-5.19,5.20,4.47,4.56,2.67,2.67,2.67
57.42,-2.48,-5.12,-2.49,-5.13,5.14,4.37,4.42,2.65,2.65,2.64
58.00,-2.45,-5.07,-2.46,-5.08,5.08,4.27,4.27,2.63,2.62,2.62
58.58,-2.43,-5.03,-2.43,-5.02,5.03,4.17,4.14,2.59,2.60,2.60
59.16,-2.39,-4.97,-2.40,-4.98,4.97,4.07,4.01,2.57,2.57,2.58
59.76,-2.36,-4.92,-2.37,-4.92,4.91,3.97,3.88,2.55,2.54,2.56
60.35,-2.33,-4.86,-2.33,-4.86,4.85,3.88,3.76,2.51,2.52,2.53
60.96,-2.28,-4.78,-2.29,-4.79,4.78,3.79,3.64,2.50,2.49,2.50
61.57,-2.24,-4.70,-2.24,-4.70,4.71,3.70,3.52,2.46,2.46,2.46
62.18,-2.19,-4.62,-2.19,-4.62,4.63,3.61,3.41,2.43,2.43,2.43
62.80,-2.13,-4.53,-2.14,-4.53,4.54,3.52,3.31,2.40,2.40,2.40
63.43,-2.07,-4.44,-2.07,-4.44,4.44,3.44,3.21,2.36,2.36,2.37
64.07,-2.00,-4.33,-1.99,-4.33,4.33,3.35,3.11,2.33,2.34,2.34
64.71,-1.91,-4.22,-1.91,-4.22,4.21,3.27,3.02,2.31,2.31,2.32
65.35,-1.80,-4.09,-1.81,-4.09,4.09,3.19,2.93,2.28,2.28,2.29
66.01,-1.70,-3.96,-1.70,-3.96,3.96,3.11,2.85,2.25,2.25,2.26
66.67,-1.59,-3.81,-1.59,-3.81,3.81,3.03,2.77,2.23,2.23,2.23
67.33,-1.47,-3.67,-1.47,-3.67,3.67,2.96,2.69,2.19,2.20,2.20
68.01,-1.34,-3.50,-1.34,-3.51,3.51,2.88,2.62,2.18,2.17,2.17
68.69,-1.22,-3.36,-1.21,-3.35,3.35,2.80,2.55,2.13,2.14,2.14
69.37,-1.08,-3.19,-1.09,-3.19,3.19,2.73,2.48,2.11,2.11,2.11
70.07,-0.94,-3.02,-0.95,-3.03,3.03,2.66,2.42,2.09,2.08,2.08
70.77,-0.83,-2.88,-0.82,-2.87,2.87,2.59,2.36,2.04,2.05,2.05
71.48,-0.69,-2.70,-0.70,-2.71,2.71,2.52,2.30,2.03,2.02,2.02
72.19,-0.58,-2.56,-0.58,-2.56,2.56,2.45,2.24,1.97,1.98,1.98
72.91,-0.45,-2.40,-0.46,-2.41,2.41,2.38,2.18,1.95,1.95,1.95
73.64,-0.35,-2.26,-0.35,-2.26,2.26,2.31,2.13,1.91,1.91,1.91
74.38,-0.25,-2.13,-0.25,-2.12,2.12,2.24,2.08,1.87,1.88,1.88
75.12,-0.14,-1.98,-0.15,-1.99,1.99,2.17,2.03,1.85,1.84,1.84
75.87,-0.06,-1.87,-0.06,-1.87,1.87,2.10,1.98,1.81,1.81,1.81
76.63,0.04,-1.74,0.02,-1.75,1.76,2.04,1.93,1.79,1.78,1.78
77.40,0.09,-1.66,0.09,-1.65,1.65,1.97,1.89,1.74,1.75,1.75
78.17,0.16,-1.55,0.16,-1.55,1.55,1.90,1.84,1.71,1.71,1.71
78.95,0.23,-1.45,0.22,-1.46,1.46,1.84,1.79,1.69,1.68,1.68
79.74,0.27,-1.38,0.27,-1.38,1.38,1.77,1.75,1.64,1.65,1.65
80.54,0.32,-1.29,0.31,-1.30,1.30,1.70,1.70,1.61,1.61,1.61
81.35,0.35,-1.23,0.35,-1.22,1.22,1.64,1.66,1.57,1.57,1.58
82.16,0.40,-1.14,0.39,-1.15,1.15,1.57,1.62,1.54,1.54,1.54
82.98,0.43,-1.08,0.43,-1.08,1.08,1.50,1.57,1.50,1.50,1.51
83.81,0.46,-1.01,0.46,-1.01,1.01,1.43,1.53,1.46,1.46,1.47
84.65,0.49,-0.94,0.48,-0.95,0.94,1.37,1.48,1.43,1.43,1.43
85.50,0.51,-0.89,0.51,-0.88,0.88,1.30,1.44,1.39,1.40,1.40
86.35,0.55,-0.81,0.54,-0.82,0.83,1.23,1.39,1.37,1.36,1.36
87.22,0.56,-0.76,0.55,-0.77,0.77,1.16,1.35,1.33,1.32,1.32
88.09,0.56,-0.72,0.56,-0.72,0.72,1.09,1.31,1.28,1.28,1.28
88.97,0.56,-0.68,0.56,-0.68,0.67,1.02,1.26,1.23,1.23,1.24
89.86,0.56,-0.64,0.56,-0.64,0.63,0.95,1.22,1.19,1.19,1.20
90.76,0.56,-0.59,0.56,-0.59,0.59,0.88,1.17,1.15,1.15,1.15
91.66,0.56,-0.55,0.56,-0.54,0.55,0.81,1.12,1.11,1.11,1.11
92.58,0.56,-0.50,0.55,-0.51,0.51,0.74,1.08,1.07,1.07,1.06
93.51,0.56,-0.46,0.54,-0.48,0.48,0.68,1.03,1.04,1.02,1.02
94.44,0.51,-0.47,0.52,-0.45,0.45,0.61,0.99,0.95,0.97,0.98
95.39,0.51,-0.42,0.51,-0.42,0.42,0.54,0.94,0.92,0.92,0.93
96.34,0.50,-0.38,0.48,-0.39,0.39,0.48,0.89,0.88,0.87,0.88
97.30,0.47,-0.36,0.47,-0.36,0.36,0.42,0.85,0.83,0.83,0.83
98.28,0.44,-0.34,0.44,-0.34,0.34,0.36,0.80,0.78,0.78,0.78
99.26,0.43,-0.31,0.41,-0.32,0.32,0.31,0.75,0.75,0.73,0.74
100.25,0.38,-0.31,0.38,-0.30,0.30,0.26,0.70,0.68,0.69,0.69
101.25,0.35,-0.29,0.35,-0.29,0.29,0.21,0.66,0.64,0.64,0.64
102.27,0.32,-0.27,0.31,-0.28,0.28,0.17,0.61,0.60,0.59,0.59
103.29,0.26,-0.28,0.27,-0.27,0.28,0.14,0.57,0.53,0.55,0.54
104.32,0.23,-0.27,0.22,-0.27,0.28,0.11,0.52,0.50,0.50,0.50
105.37,0.18,-0.27,0.17,-0.28,0.28,0.09,0.47,0.45,0.45,0.45
106.42,0.12,-0.28,0.12,-0.28,0.28,0.07,0.43,0.39,0.40,0.40
107.48,0.06,-0.29,0.06,-0.29,0.28,0.06,0.39,0.34,0.34,0.35
108.56,0.01,-0.29,0.01,-0.29,0.29,0.05,0.34,0.29,0.30,0.30
109.64,-0.03,-0.28,-0.04,-0.29,0.29,0.05,0.30,0.25,0.25,0.25
110.74,-0.08,-0.28,-0.09,-0.29,0.29,0.05,0.26,0.20,0.20,0.20
111.85,-0.14,-0.29,-0.14,-0.29,0.29,0.06,0.22,0.14,0.14,0.15
112.97,-0.20,-0.29,-0.20,-0.29,0.28,0.07,0.18,0.08,0.08,0.09
114.10,-0.25,-0.29,-0.25,-0.29,0.28,0.08,0.14,0.03,0.03,0.04
115.24,-0.29,-0.27,-0.29,-0.27,0.28,0.09,0.11,-0.02,-0.02,-0.02
116.39,-0.33,-0.26,-0.34,-0.26,0.27,0.11,0.08,-0.06,-0.07,-0.07
117.55,-0.38,-0.25,-0.39,-0.26,0.27,0.13,0.04,-0.12,-0.12,-0.13
118.73,-0.44,-0.26,-0.44,-0.26,0.26,0.14,0.01,-0.18,-0.18,-0.18
119.92,-0.49,-0.26,-0.49,-0.26,0.25,0.16,-0.01,-0.24,-0.24,-0.23
121.12,-0.52,-0.24,-0.53,-0.25,0.24,0.18,-0.04,-0.28,-0.29,-0.28
122.33,-0.57,-0.24,-0.57,-0.24,0.24,0.20,-0.06,-0.34,-0.33,-0.33
123.55,-0.60,-0.22,-0.61,-0.23,0.23,0.22,-0.08,-0.38,-0.38,-0.38
124.79,-0.65,-0.22,-0.65,-0.22,0.21,0.23,-0.10,-0.44,-0.44,-0.43
126.03,-0.68,-0.20,-0.68,-0.20,0.20,0.25,-0.11,-0.49,-0.48,-0.48
127.29,-0.71,-0.18,-0.72,-0.18,0.18,0.26,-0.13,-0.53,-0.54,-0.53
128.57,-0.74,-0.15,-0.75,-0.16,0.16,0.28,-0.14,-0.58,-0.59,-0.59
129.85,-0.79,-0.15,-0.79,-0.14,0.15,0.29,-0.15,-0.65,-0.64,-0.64
131.15,-0.82,-0.13,-0.82,-0.13,0.13,0.30,-0.15,-0.69,-0.69,-0.69
132.46,-0.85,-0.11,-0.86,-0.12,0.12,0.32,-0.16,-0.74,-0.74,-0.74
133.79,-0.88,-0.10,-0.89,-0.10,0.10,0.33,-0.16,-0.78,-0.79,-0.78
135.12,-0.92,-0.09,-0.92,-0.09,0.09,0.34,-0.16,-0.83,-0.83,-0.83
136.48,-0.96,-0.09,-0.96,-0.09,0.08,0.34,-0.16,-0.88,-0.88,-0.87
137.84,-0.99,-0.07,-1.00,-0.07,0.08,0.35,-0.15,-0.91,-0.92,-0.92
139.22,-1.04,-0.07,-1.04,-0.07,0.08,0.36,-0.15,-0.97,-0.96,-0.97
140.61,-1.07,-0.06,-1.08,-0.07,0.08,0.37,-0.14,-1.00,-1.00,-1.01
142.02,-1.13,-0.09,-1.13,-0.08,0.08,0.37,-0.13,-1.05,-1.05,-1.04
143.44,-1.16,-0.08,-1.17,-0.08,0.08,0.38,-0.12,-1.08,-1.09,-1.08
144.87,-1.21,-0.09,-1.21,-0.09,0.09,0.38,-0.11,-1.13,-1.13,-1.12
146.32,-1.24,-0.08,-1.25,-0.09,0.09,0.39,-0.10,-1.16,-1.16,-1.16
147.78,-1.29,-0.10,-1.29,-0.09,0.09,0.39,-0.09,-1.20,-1.20,-1.19
149.26,-1.32,-0.09,-1.32,-0.09,0.09,0.39,-0.07,-1.24,-1.23,-1.23
150.75,-1.35,-0.08,-1.36,-0.09,0.09,0.40,-0.06,-1.27,-1.27,-1.27
152.26,-1.39,-0.08,-1.39,-0.08,0.08,0.40,-0.04,-1.31,-1.31,-1.31
153.78,-1.43,-0.08,-1.43,-0.08,0.08,0.40,-0.03,-1.36,-1.35,-1.35
155.32,-1.46,-0.07,-1.46,-0.07,0.07,0.40,-0.01,-1.39,-1.39,-1.39
156.88,-1.49,-0.06,-1.50,-0.06,0.07,0.41,0.00,-1.43,-1.43,-1.43
158.44,-1.52,-0.05,-1.53,-0.06,0.06,0.41,0.02,-1.46,-1.47,-1.47
160.03,-1.57,-0.06,-1.57,-0.06,0.06,0.41,0.03,-1.52,-1.51,-1.51
161.63,-1.60,-0.05,-1.61,-0.06,0.06,0.41,0.05,-1.55,-1.55,-1.55
163.24,-1.65,-0.06,-1.65,-0.06,0.06,0.41,0.07,-1.60,-1.59,-1.59
164.88,-1.68,-0.06,-1.68,-0.06,0.06,0.41,0.08,-1.62,-1.62,-1.62
166.53,-1.72,-0.06,-1.73,-0.06,0.07,0.41,0.10,-1.66,-1.66,-1.66
168.19,-1.76,-0.06,-1.77,-0.07,0.07,0.41,0.11,-1.69,-1.70,-1.70
169.87,-1.82,-0.08,-1.82,-0.08,0.08,0.41,0.13,-1.74,-1.74,-1.74
171.57,-1.87,-0.09,-1.87,-0.09,0.09,0.42,0.15,-1.78,-1.78,-1.78
173.29,-1.92,-0.11,-1.92,-0.11,0.10,0.42,0.16,-1.82,-1.82,-1.81
175.02,-1.96,-0.11,-1.97,-0.12,0.11,0.42,0.18,-1.85,-1.86,-1.85
176.77,-2.02,-0.13,-2.02,-0.12,0.12,0.42,0.19,-1.90,-1.89,-1.89
178.54,-2.05,-0.12,-2.06,-0.13,0.13,0.42,0.21,-1.92,-1.93,-1.93
180.32,-2.10,-0.13,-2.10,-0.13,0.14,0.42,0.22,-1.97,-1.97,-1.97
182.13,-2.15,-0.15,-2.15,-0.14,0.15,0.42,0.24,-2.01,-2.00,-2.00
183.95,-2.18,-0.14,-2.20,-0.15,0.15,0.42,0.25,-2.03,-2.04,-2.04
185.79,-2.24,-0.17,-2.23,-0.16,0.16,0.42,0.27,-2.09,-2.08,-2.07
187.65,-2.27,-0.16,-2.27,-0.16,0.16,0.42,0.28,-2.11,-2.11,-2.11
189.52,-2.30,-0.16,-2.31,-0.17,0.17,0.42,0.29,-2.14,-2.15,-2.14
191.42,-2.35,-0.18,-2.35,-0.17,0.17,0.42,0.31,-2.18,-2.17,-2.17
193.33,-2.38,-0.18,-2.38,-0.18,0.18,0.42,0.32,-2.20,-2.20,-2.20
195.27,-2.41,-0.18,-2.42,-0.19,0.19,0.43,0.34,-2.22,-2.23,-2.23
197.22,-2.46,-0.20,-2.46,-0.20,0.20,0.43,0.35,-2.26,-2.26,-2.26
199.19,-2.49,-0.20,-2.50,-0.21,0.21,0.43,0.36,-2.28,-2.29,-2.29
201.18,-2.54,-0.23,-2.54,-0.23,0.22,0.43,0.38,-2.32,-2.32,-2.31
203.19,-2.57,-0.24,-2.58,-0.24,0.24,0.43,0.39,-2.34,-2.34,-2.33
205.23,-2.61,-0.26,-2.61,-0.26,0.26,0.43,0.40,-2.36,-2.35,-2.35
207.28,-2.63,-0.27,-2.64,-0.27,0.27,0.44,0.42,-2.36,-2.36,-2.36
209.35,-2.66,-0.28,-2.67,-0.28,0.29,0.44,0.43,-2.38,-2.38,-2.38
211.44,-2.69,-0.29,-2.70,-0.30,0.31,0.44,0.44,-2.39,-2.39,-2.40
213.56,-2.74,-0.33,-2.73,-0.32,0.32,0.44,0.46,-2.42,-2.41,-2.41
215.69,-2.75,-0.34,-2.76,-0.34,0.34,0.45,0.47,-2.42,-2.42,-2.41
217.85,-2.78,-0.36,-2.79,-0.36,0.35,0.45,0.48,-2.43,-2.43,-2.42
220.03,-2.80,-0.37,-2.80,-0.37,0.37,0.45,0.50,-2.43,-2.43,-2.43
222.23,-2.82,-0.38,-2.83,-0.39,0.39,0.46,0.51,-2.44,-2.44,-2.44
224.45,-2.83,-0.39,-2.85,-0.40,0.40,0.46,0.52,-2.43,-2.44,-2.44
226.70,-2.87,-0.43,-2.86,-0.42,0.42,0.47,0.54,-2.46,-2.44,-2.44
228.96,-2.87,-0.43,-2.88,-0.44,0.43,0.47,0.55,-2.44,-2.44,-2.44
231.25,-2.87,-0.44,-2.89,-0.45,0.45,0.48,0.56,-2.43,-2.44,-2.43
233.57,-2.91,-0.48,-2.90,-0.46,0.47,0.48,0.57,-2.45,-2.43,-2.43
235.90,-2.91,-0.48,-2.91,-0.48,0.49,0.49,0.59,-2.43,-2.43,-2.43
238.26,-2.91,-0.49,-2.93,-0.51,0.51,0.49,0.60,-2.41,-2.42,-2.42
240.64,-2.94,-0.53,-2.93,-0.52,0.53,0.50,0.61,-2.42,-2.41,-2.41
243.05,-2.95,-0.55,-2.95,-0.55,0.55,0.50,0.63,-2.40,-2.40,-2.40
245.48,-2.95,-0.56,-2.97,-0.58,0.57,0.51,0.64,-2.38,-2.40,-2.39
247.93,-2.99,-0.61,-2.99,-0.60,0.60,0.52,0.65,-2.39,-2.39,-2.38
250.41,-3.00,-0.63,-3.00,-0.63,0.63,0.53,0.66,-2.38,-2.37,-2.37
252.92,-3.00,-0.65,-3.01,-0.65,0.65,0.53,0.68,-2.35,-2.35,-2.35
255.45,-3.00,-0.67,-3.01,-0.68,0.68,0.54,0.69,-2.33,-2.33,-2.33
258.00,-3.02,-0.70,-3.02,-0.71,0.71,0.55,0.70,-2.32,-2.32,-2.32
260.58,-3.04,-0.74,-3.04,-0.73,0.73,0.56,0.72,-2.31,-2.31,-2.30
263.19,-3.04,-0.76,-3.05,-0.76,0.75,0.57,0.73,-2.29,-2.29,-2.28
265.82,-3.04,-0.78,-3.04,-0.78,0.78,0.58,0.74,-2.26,-2.26,-2.26
268.48,-3.04,-0.80,-3.04,-0.80,0.81,0.59,0.76,-2.24,-2.24,-2.24
271.16,-3.04,-0.82,-3.05,-0.83,0.84,0.60,0.77,-2.21,-2.22,-2.22
273.87,-3.06,-0.86,-3.06,-0.86,0.86,0.62,0.79,-2.20,-2.20,-2.20
276.61,-3.08,-0.90,-3.07,-0.89,0.89,0.63,0.80,-2.19,-2.18,-2.18
279.38,-3.08,-0.92,-3.09,-0.93,0.93,0.64,0.82,-2.16,-2.16,-2.16
282.17,-3.08,-0.94,-3.10,-0.96,0.96,0.65,0.83,-2.13,-2.15,-2.14
284.99,-3.13,-1.01,-3.12,-1.00,0.99,0.67,0.85,-2.14,-2.13,-2.12
287.84,-3.13,-1.03,-3.13,-1.03,1.02,0.68,0.87,-2.11,-2.10,-2.10
290.72,-3.13,-1.05,-3.14,-1.06,1.06,0.70,0.88,-2.08,-2.08,-2.08
293.63,-3.13,-1.07,-3.15,-1.09,1.09,0.72,0.90,-2.05,-2.06,-2.06
296.57,-3.17,-1.13,-3.16,-1.12,1.12,0.73,0.92,-2.05,-2.04,-2.04
299.53,-3.17,-1.15,-3.17,-1.15,1.15,0.75,0.94,-2.02,-2.02,-2.02
302.53,-3.17,-1.17,-3.18,-1.18,1.18,0.77,0.96,-1.99,-2.00,-2.00
305.55,-3.17,-1.20,-3.18,-1.21,1.21,0.79,0.98,-1.97,-1.98,-1.97
308.61,-3.19,-1.24,-3.19,-1.24,1.23,0.81,1.00,-1.96,-1.95,-1.95
311.69,-3.19,-1.27,-3.19,-1.27,1.26,0.83,1.02,-1.93,-1.93,-1.92
314.81,-3.17,-1.28,-3.18,-1.29,1.29,0.85,1.05,-1.89,-1.90,-1.89
317.96,-3.17,-1.30,-3.18,-1.30,1.31,0.88,1.07,-1.87,-1.87,-1.87
321.14,-3.17,-1.32,-3.17,-1.32,1.33,0.90,1.09,-1.85,-1.85,-1.85
324.35,-3.17,-1.34,-3.17,-1.34,1.34,0.93,1.12,-1.83,-1.83,-1.83
327.59,-3.17,-1.36,-3.18,-1.37,1.36,0.95,1.15,-1.82,-1.82,-1.81
330.87,-3.17,-1.38,-3.17,-1.38,1.37,0.98,1.17,-1.81,-1.81,-1.79
334.18,-3.17,-1.40,-3.16,-1.39,1.38,1.01,1.20,-1.80,-1.79,-1.77
337.52,-3.13,-1.38,-3.15,-1.39,1.39,1.04,1.23,-1.74,-1.75,-1.75
340.90,-3.13,-1.40,-3.13,-1.40,1.41,1.07,1.26,-1.73,-1.72,-1.73
344.30,-3.11,-1.40,-3.12,-1.41,1.43,1.10,1.29,-1.69,-1.69,-1.71
347.75,-3.13,-1.44,-3.13,-1.44,1.45,1.14,1.32,-1.68,-1.67,-1.69
351.23,-3.13,-1.46,-3.15,-1.47,1.48,1.17,1.36,-1.65,-1.66,-1.67
354.74,-3.17,-1.52,-3.17,-1.52,1.52,1.21,1.39,-1.65,-1.65,-1.65
358.28,-3.21,-1.57,-3.20,-1.57,1.56,1.25,1.43,-1.65,-1.64,-1.64
361.87,-3.23,-1.61,-3.24,-1.62,1.61,1.29,1.46,-1.63,-1.63,-1.62
365.49,-3.26,-1.66,-3.27,-1.66,1.66,1.33,1.50,-1.61,-1.61,-1.60
369.14,-3.30,-1.71,-3.29,-1.70,1.70,1.37,1.54,-1.60,-1.59,-1.59
372.83,-3.31,-1.74,-3.32,-1.75,1.75,1.41,1.58,-1.57,-1.58,-1.57
376.56,-3.34,-1.78,-3.35,-1.79,1.79,1.46,1.62,-1.56,-1.56,-1.56
380.33,-3.37,-1.83,-3.37,-1.82,1.82,1.50,1.66,-1.55,-1.55,-1.54
384.13,-3.39,-1.86,-3.40,-1.86,1.86,1.55,1.70,-1.54,-1.54,-1.53
387.97,-3.41,-1.89,-3.41,-1.89,1.89,1.60,1.75,-1.52,-1.52,-1.52
391.85,-3.43,-1.92,-3.43,-1.92,1.92,1.65,1.79,-1.51,-1.51,-1.51
395.77,-3.43,-1.94,-3.45,-1.95,1.96,1.70,1.84,-1.48,-1.49,-1.49
399.73,-3.47,-1.99,-3.46,-1.98,1.99,1.75,1.88,-1.49,-1.48,-1.48
403.72,-3.47,-2.00,-3.49,-2.01,2.02,1.80,1.92,-1.46,-1.47,-1.47
407.76,-3.51,-2.05,-3.50,-2.04,2.04,1.85,1.97,-1.47,-1.46,-1.46
411.84,-3.52,-2.07,-3.52,-2.07,2.07,1.91,2.01,-1.46,-1.45,-1.45
415.96,-3.52,-2.08,-3.54,-2.10,2.09,1.96,2.06,-1.43,-1.45,-1.44
420.12,-3.56,-2.13,-3.55,-2.12,2.12,2.01,2.10,-1.45,-1.44,-1.43
424.32,-3.56,-2.14,-3.56,-2.14,2.13,2.06,2.15,-1.43,-1.43,-1.42
428.56,-3.56,-2.15,-3.57,-2.15,2.15,2.11,2.19,-1.41,-1.42,-1.41
432.85,-3.56,-2.16,-3.56,-2.16,2.17,2.17,2.23,-1.40,-1.40,-1.40
437.18,-3.56,-2.17,-3.56,-2.18,2.18,2.21,2.27,-1.38,-1.38,-1.39
441.55,-3.56,-2.19,-3.56,-2.19,2.20,2.26,2.31,-1.37,-1.37,-1.37
445.96,-3.56,-2.20,-3.56,-2.20,2.21,2.31,2.35,-1.36,-1.36,-1.36
450.42,-3.56,-2.21,-3.57,-2.22,2.21,2.35,2.38,-1.35,-1.36,-1.35
