frequency,raw,error,smoothed,error_smoothed,equalization,parametric_eq,fixed_band_eq,equalized_raw,equalized_smoothed,target
20.00,-6.88,-9.28,-6.89,-9.28,9.28,9.34,3.46,2.39,2.39,2.39
20.20,-6.79,-9.28,-6.79,-9.27,9.27,9.32,3.55,2.48,2.48,2.48
20.40,-6.70,-9.26,-6.70,-9.26,9.26,9.30,3.65,2.56,2.56,2.56
20.61,-6.61,-9.24,-6.61,-9.25,9.25,9.28,3.75,2.65,2.64,2.63
20.81,-6.51,-9.24,-6.51,-9.23,9.23,9.25,3.86,2.72,2.72,2.72
21.02,-6.42,-9.23,-6.42,-9.22,9.21,9.23,3.96,2.79,2.79,2.80
21.23,-6.33,-9.20,-6.33,-9.20,9.19,9.20,4.08,2.85,2.85,2.86
21.44,-6.24,-9.16,-6.24,-9.16,9.16,9.17,4.19,2.92,2.92,2.92
21.66,-6.15,-9.13,-6.15,-9.12,9.12,9.14,4.31,2.97,2.97,2.97
21.87,-6.05,-9.07,-6.06,-9.08,9.08,9.11,4.43,3.03,3.03,3.02
22.09,-5.96,-9.03,-5.96,-9.04,9.04,9.07,4.55,3.08,3.08,3.07
22.31,-5.87,-8.99,-5.87,-8.99,8.99,9.03,4.68,3.12,3.12,3.12
22.54,-5.79,-8.95,-5.78,-8.94,8.94,9.00,4.81,3.15,3.16,3.16
22.76,-5.69,-8.89,-5.69,-8.89,8.89,8.96,4.94,3.19,3.20,3.20
22.99,-5.59,-8.83,-5.60,-8.83,8.84,8.91,5.08,3.24,3.24,3.23
23.22,-5.50,-8.78,-5.50,-8.78,8.78,8.87,5.22,3.28,3.28,3.27
23.45,-5.41,-8.72,-5.41,-8.72,8.73,8.83,5.37,3.31,3.32,3.31
23.69,-5.32,-8.67,-5.32,-8.67,8.67,8.78,5.51,3.36,3.35,3.35
23.92,-5.22,-8.61,-5.22,-8.62,8.61,8.73,5.66,3.39,3.39,3.39
24.16,-5.13,-8.57,-5.13,-8.56,8.56,8.68,5.82,3.42,3.43,3.44
24.40,-5.03,-8.50,-5.04,-8.50,8.50,8.63,5.97,3.47,3.46,3.47
24.65,-4.94,-8.44,-4.94,-8.44,8.44,8.58,6.13,3.50,3.50,3.49
24.89,-4.85,-8.37,-4.85,-8.38,8.38,8.53,6.30,3.53,3.53,3.52
25.14,-4.76,-8.32,-4.76,-8.32,8.32,8.48,6.46,3.56,3.56,3.56
25.39,-4.66,-8.25,-4.67,-8.26,8.26,8.42,6.63,3.60,3.59,3.59
25.65,-4.57,-8.21,-4.57,-8.20,8.20,8.36,6.79,3.62,3.63,3.63
25.91,-4.48,-8.13,-4.48,-8.13,8.13,8.31,6.96,3.66,3.66,3.65
26.16,-4.38,-8.06,-4.39,-8.07,8.07,8.25,7.13,3.69,3.69,3.68
26.43,-4.30,-8.02,-4.29,-8.01,8.01,8.19,7.30,3.72,3.72,3.72
26.69,-4.20,-7.96,-4.20,-7.95,7.95,8.13,7.46,3.75,3.75,3.75
26.96,-4.10,-7.89,-4.11,-7.89,7.89,8.07,7.63,3.78,3.78,3.78
27.23,-4.01,-7.83,-4.02,-7.83,7.82,8.01,7.79,3.81,3.81,3.81
27.50,-3.92,-7.77,-3.92,-7.76,7.76,7.94,7.95,3.84,3.84,3.84
27.77,-3.83,-7.69,-3.83,-7.70,7.70,7.88,8.11,3.87,3.87,3.86
28.05,-3.73,-7.63,-3.74,-7.63,7.63,7.82,8.25,3.90,3.90,3.90
28.33,-3.64,-7.56,-3.64,-7.57,7.57,7.75,8.40,3.93,3.93,3.92
28.62,-3.56,-7.51,-3.55,-7.51,7.51,7.69,8.53,3.95,3.96,3.95
28.90,-3.46,-7.45,-3.46,-7.45,7.45,7.62,8.65,3.99,3.98,3.99
29.19,-3.37,-7.39,-3.37,-7.39,7.39,7.55,8.76,4.02,4.02,4.01
29.48,-3.28,-7.34,-3.28,-7.33,7.33,7.49,8.86,4.05,4.05,4.06
29.78,-3.19,-7.27,-3.19,-7.27,7.27,7.42,8.95,4.08,4.08,4.07
30.08,-3.11,-7.21,-3.11,-7.21,7.22,7.35,9.02,4.11,4.11,4.10
30.38,-3.02,-7.16,-3.02,-7.15,7.16,7.28,9.07,4.13,4.13,4.13
30.68,-2.94,-7.11,-2.94,-7.10,7.10,7.21,9.11,4.16,4.16,4.16
30.99,-2.86,-7.05,-2.86,-7.05,7.04,7.14,9.14,4.18,4.18,4.18
31.30,-2.78,-6.99,-2.78,-6.99,6.99,7.07,9.14,4.20,4.20,4.20
31.61,-2.70,-6.94,-2.71,-6.93,6.93,7.00,9.13,4.23,4.23,4.23
31.93,-2.62,-6.88,-2.62,-6.87,6.87,6.93,9.10,4.25,4.25,4.25
32.24,-2.54,-6.81,-2.54,-6.82,6.82,6.86,9.05,4.27,4.28,4.27
32.57,-2.45,-6.76,-2.46,-6.76,6.76,6.79,8.99,4.30,4.30,4.30
32.89,-2.37,-6.69,-2.37,-6.69,6.70,6.72,8.92,4.32,4.32,4.32
33.22,-2.29,-6.63,-2.29,-6.64,6.64,6.65,8.82,4.34,4.34,4.34
33.55,-2.21,-6.57,-2.22,-6.58,6.57,6.58,8.72,4.36,4.36,4.36
33.89,-2.14,-6.52,-2.14,-6.51,6.51,6.51,8.61,4.37,4.37,4.37
34.23,-2.05,-6.45,-2.06,-6.44,6.44,6.44,8.48,4.39,4.39,4.39
34.57,-1.97,-6.38,-1.98,-6.38,6.38,6.36,8.35,4.40,4.40,4.40
34.92,-1.89,-6.31,-1.89,-6.31,6.31,6.29,8.21,4.42,4.42,4.41
35.27,-1.81,-6.25,-1.81,-6.24,6.24,6.22,8.06,4.43,4.43,4.43
35.62,-1.73,-6.16,-1.74,-6.17,6.17,6.15,7.91,4.43,4.43,4.42
35.97,-1.66,-6.09,-1.66,-6.10,6.09,6.08,7.75,4.43,4.43,4.43
36.33,-1.58,-6.03,-1.58,-6.02,6.02,6.00,7.59,4.44,4.43,4.45
36.70,-1.50,-5.95,-1.50,-5.95,5.94,5.93,7.43,4.44,4.44,4.44
37.06,-1.42,-5.86,-1.42,-5.86,5.86,5.86,7.27,4.44,4.44,4.44
37.43,-1.33,-5.77,-1.34,-5.78,5.78,5.79,7.11,4.45,4.45,4.44
37.81,-1.25,-5.70,-1.25,-5.70,5.70,5.72,6.94,4.45,4.45,4.44
38.19,-1.17,-5.62,-1.18,-5.62,5.62,5.64,6.78,4.44,4.44,4.44
38.57,-1.10,-5.55,-1.10,-5.54,5.54,5.57,6.62,4.43,4.44,4.44
38.95,-1.02,-5.46,-1.02,-5.46,5.45,5.50,6.46,4.43,4.43,4.44
39.34,-0.94,-5.36,-0.94,-5.37,5.37,5.43,6.31,4.43,4.43,4.42
39.74,-0.86,-5.29,-0.87,-5.29,5.29,5.36,6.15,4.43,4.42,4.42
40.14,-0.79,-5.21,-0.79,-5.20,5.21,5.28,6.00,4.41,4.42,4.41
40.54,-0.71,-5.13,-0.72,-5.13,5.13,5.21,5.86,4.41,4.41,4.41
40.94,-0.64,-5.04,-0.64,-5.05,5.05,5.14,5.71,4.40,4.40,4.40
41.35,-0.57,-4.97,-0.57,-4.97,4.97,5.07,5.57,4.39,4.40,4.40
41.76,-0.49,-4.88,-0.50,-4.89,4.89,5.00,5.43,4.40,4.40,4.39
42.18,-0.42,-4.80,-0.42,-4.81,4.81,4.93,5.30,4.39,4.39,4.38
42.60,-0.35,-4.72,-0.36,-4.73,4.73,4.86,5.17,4.38,4.38,4.37
43.03,-0.29,-4.67,-0.29,-4.66,4.65,4.79,5.04,4.36,4.36,4.37
43.46,-0.22,-4.59,-0.22,-4.58,4.57,4.72,4.92,4.34,4.34,4.36
43.90,-0.15,-4.50,-0.15,-4.49,4.48,4.64,4.80,4.33,4.33,4.34
44.33,-0.07,-4.39,-0.07,-4.40,4.40,4.57,4.69,4.33,4.33,4.32
44.78,0.01,-4.31,0.00,-4.31,4.32,4.50,4.57,4.32,4.32,4.31
45.23,0.08,-4.23,0.08,-4.22,4.24,4.43,4.47,4.31,4.31,4.30
45.68,0.15,-4.15,0.14,-4.15,4.15,4.37,4.36,4.30,4.30,4.29
46.13,0.21,-4.07,0.21,-4.08,4.07,4.30,4.26,4.28,4.28,4.28
46.60,0.28,-4.01,0.28,-4.00,4.00,4.23,4.16,4.27,4.27,4.28
47.06,0.35,-3.92,0.35,-3.93,3.92,4.16,4.07,4.27,4.27,4.27
47.53,0.42,-3.84,0.42,-3.85,3.85,4.09,3.97,4.26,4.26,4.26
48.01,0.49,-3.78,0.48,-3.78,3.77,4.02,3.88,4.26,4.26,4.26
48.49,0.55,-3.71,0.55,-3.70,3.70,3.95,3.80,4.24,4.25,4.25
48.97,0.62,-3.62,0.61,-3.62,3.63,3.88,3.72,4.24,4.24,4.24
49.46,0.68,-3.54,0.68,-3.55,3.55,3.81,3.64,4.23,4.23,4.22
49.96,0.74,-3.48,0.74,-3.48,3.48,3.75,3.56,4.22,4.22,4.21
50.46,0.81,-3.42,0.80,-3.41,3.41,3.68,3.48,4.22,4.22,4.22
50.96,0.87,-3.35,0.87,-3.35,3.35,3.61,3.41,4.21,4.22,4.22
51.47,0.94,-3.28,0.93,-3.28,3.28,3.54,3.34,4.22,4.22,4.21
51.99,1.00,-3.22,1.00,-3.22,3.22,3.48,3.27,4.22,4.22,4.21
52.51,1.06,-3.16,1.06,-3.15,3.16,3.41,3.20,4.21,4.21,4.21
53.03,1.12,-3.10,1.12,-3.10,3.09,3.34,3.14,4.21,4.21,4.21
53.56,1.18,-3.04,1.18,-3.03,3.02,3.28,3.07,4.20,4.20,4.21
54.10,1.24,-2.97,1.24,-2.96,2.95,3.21,3.01,4.19,4.19,4.20
54.64,1.31,-2.89,1.31,-2.89,2.88,3.14,2.95,4.19,4.19,4.19
55.18,1.38,-2.80,1.37,-2.81,2.81,3.08,2.89,4.18,4.18,4.18
55.74,1.44,-2.73,1.44,-2.73,2.73,3.01,2.83,4.17,4.17,4.16
56.29,1.51,-2.65,1.50,-2.65,2.65,2.95,2.77,4.16,4.16,4.16
56.86,1.57,-2.58,1.57,-2.57,2.58,2.88,2.71,4.14,4.14,4.14
57.42,1.64,-2.48,1.63,-2.49,2.50,2.82,2.65,4.13,4.13,4.12
58.00,1.70,-2.42,1.69,-2.42,2.42,2.75,2.60,4.12,4.11,4.11
58.58,1.75,-2.35,1.75,-2.35,2.35,2.69,2.54,4.09,4.10,4.09
59.16,1.80,-2.28,1.80,-2.28,2.27,2.62,2.48,4.07,4.07,4.08
59.76,1.86,-2.21,1.85,-2.21,2.20,2.56,2.42,4.05,4.05,4.06
60.35,1.91,-2.12,1.91,-2.13,2.12,2.49,2.36,4.03,4.03,4.03
60.96,1.96,-2.07,1.96,-2.05,2.05,2.43,2.31,4.01,4.01,4.02
61.57,2.01,-1.97,2.00,-1.98,1.98,2.36,2.25,3.99,3.98,3.97
62.18,2.05,-1.90,2.04,-1.90,1.91,2.30,2.19,3.96,3.96,3.94
62.80,2.08,-1.85,2.08,-1.84,1.85,2.24,2.12,3.93,3.93,3.93
63.43,2.11,-1.79,2.10,-1.79,1.80,2.17,2.06,3.90,3.90,3.89
64.07,2.13,-1.75,2.13,-1.75,1.75,2.11,2.00,3.87,3.88,3.87
64.71,2.16,-1.71,2.15,-1.70,1.70,2.05,1.94,3.86,3.85,3.86
65.35,2.18,-1.66,2.18,-1.67,1.66,1.98,1.87,3.84,3.84,3.84
66.01,2.20,-1.64,2.20,-1.63,1.63,1.92,1.81,3.82,3.83,3.83
66.67,2.23,-1.60,2.22,-1.60,1.60,1.86,1.74,3.82,3.82,3.82
67.33,2.25,-1.56,2.25,-1.57,1.57,1.79,1.67,3.82,3.81,3.81
68.01,2.27,-1.54,2.26,-1.54,1.54,1.73,1.60,3.81,3.81,3.80
68.69,2.28,-1.52,2.28,-1.51,1.52,1.67,1.53,3.80,3.80,3.79
69.37,2.30,-1.50,2.29,-1.49,1.50,1.61,1.46,3.79,3.79,3.79
70.07,2.31,-1.48,2.31,-1.48,1.47,1.54,1.39,3.78,3.78,3.78
70.77,2.33,-1.46,2.32,-1.45,1.45,1.48,1.32,3.78,3.77,3.78
71.48,2.34,-1.44,2.34,-1.43,1.42,1.42,1.25,3.76,3.76,3.77
72.19,2.37,-1.39,2.36,-1.40,1.39,1.35,1.18,3.76,3.75,3.75
72.91,2.39,-1.36,2.39,-1.36,1.35,1.29,1.10,3.74,3.74,3.75
73.64,2.42,-1.31,2.42,-1.31,1.31,1.23,1.03,3.73,3.73,3.73
74.38,2.46,-1.27,2.45,-1.26,1.26,1.17,0.95,3.72,3.72,3.72
75.12,2.50,-1.20,2.50,-1.21,1.21,1.10,0.88,3.71,3.71,3.70
75.87,2.54,-1.15,2.54,-1.16,1.16,1.04,0.80,3.70,3.70,3.69
76.63,2.58,-1.10,2.57,-1.10,1.11,0.98,0.73,3.68,3.68,3.68
77.40,2.61,-1.06,2.61,-1.05,1.05,0.92,0.65,3.66,3.66,3.66
78.17,2.65,-0.99,2.65,-1.00,1.00,0.85,0.58,3.65,3.65,3.64
78.95,2.69,-0.95,2.69,-0.95,0.95,0.79,0.50,3.63,3.63,3.64
79.74,2.73,-0.90,2.73,-0.90,0.90,0.73,0.42,3.62,3.63,3.63
80.54,2.78,-0.85,2.77,-0.85,0.85,0.67,0.35,3.63,3.62,3.62
81.35,2.82,-0.80,2.82,-0.80,0.80,0.60,0.27,3.62,3.62,3.61
82.16,2.86,-0.75,2.85,-0.75,0.76,0.54,0.19,3.61,3.61,3.60
82.98,2.89,-0.73,2.89,-0.71,0.72,0.48,0.11,3.60,3.61,3.61
83.81,2.93,-0.68,2.93,-0.67,0.68,0.41,0.04,3.60,3.60,3.60
84.65,2.97,-0.63,2.96,-0.64,0.64,0.35,-0.04,3.61,3.60,3.59
85.50,3.00,-0.61,3.00,-0.60,0.60,0.29,-0.12,3.60,3.60,3.60
86.35,3.03,-0.58,3.03,-0.57,0.57,0.22,-0.20,3.60,3.60,3.60
87.22,3.07,-0.53,3.06,-0.53,0.53,0.16,-0.28,3.60,3.59,3.59
88.09,3.10,-0.50,3.09,-0.50,0.49,0.10,-0.36,3.59,3.58,3.59
88.97,3.13,-0.46,3.13,-0.45,0.45,0.03,-0.44,3.57,3.57,3.58
89.86,3.16,-0.42,3.16,-0.41,0.40,-0.03,-0.52,3.55,3.56,3.57
90.76,3.21,-0.35,3.20,-0.35,0.35,-0.10,-0.60,3.55,3.55,3.55
91.66,3.25,-0.28,3.25,-0.28,0.29,-0.16,-0.69,3.54,3.54,3.53
92.58,3.29,-0.22,3.28,-0.22,0.23,-0.22,-0.77,3.52,3.52,3.50
93.51,3.32,-0.17,3.32,-0.16,0.17,-0.29,-0.85,3.49,3.49,3.48
94.44,3.35,-0.11,3.35,-0.10,0.10,-0.35,-0.94,3.45,3.45,3.45
95.39,3.38,-0.04,3.38,-0.04,0.03,-0.42,-1.02,3.41,3.41,3.41
96.34,3.41,0.03,3.40,0.04,-0.05,-0.49,-1.10,3.36,3.35,3.37
97.30,3.44,0.13,3.44,0.12,-0.14,-0.55,-1.19,3.30,3.30,3.31
98.28,3.48,0.21,3.48,0.22,-0.23,-0.62,-1.27,3.25,3.25,3.26
99.26,3.53,0.31,3.53,0.32,-0.32,-0.68,-1.36,3.20,3.20,3.21
100.25,3.59,0.44,3.58,0.43,-0.42,-0.75,-1.44,3.16,3.16,3.15
101.25,3.64,0.55,3.64,0.55,-0.52,-0.82,-1.53,3.11,3.11,3.09
102.27,3.69,0.65,3.68,0.65,-0.63,-0.88,-1.61,3.06,3.05,3.03
103.29,3.72,0.74,3.71,0.74,-0.73,-0.95,-1.69,2.98,2.98,2.97
104.32,3.75,0.83,3.75,0.84,-0.84,-1.02,-1.78,2.90,2.91,2.92
105.37,3.79,0.93,3.79,0.94,-0.95,-1.09,-1.86,2.83,2.84,2.85
106.42,3.85,1.05,3.84,1.05,-1.07,-1.15,-1.94,2.78,2.78,2.79
107.48,3.91,1.17,3.91,1.17,-1.18,-1.22,-2.02,2.72,2.73,2.74
108.56,3.98,1.29,3.98,1.30,-1.30,-1.29,-2.10,2.68,2.68,2.68
109.64,4.07,1.45,4.06,1.43,-1.42,-1.36,-2.18,2.65,2.63,2.62
110.74,4.13,1.55,4.13,1.55,-1.54,-1.43,-2.25,2.58,2.58,2.57
111.85,4.19,1.65,4.19,1.67,-1.66,-1.50,-2.33,2.52,2.53,2.53
112.97,4.25,1.78,4.25,1.78,-1.78,-1.57,-2.40,2.47,2.47,2.46
114.10,4.31,1.88,4.31,1.89,-1.89,-1.64,-2.47,2.42,2.42,2.42
115.24,4.38,2.00,4.36,1.99,-1.99,-1.71,-2.53,2.38,2.37,2.37
116.39,4.41,2.08,4.41,2.09,-2.09,-1.78,-2.59,2.32,2.32,2.32
117.55,4.46,2.18,4.47,2.19,-2.18,-1.85,-2.65,2.27,2.28,2.28
118.73,4.53,2.28,4.52,2.27,-2.27,-1.92,-2.71,2.26,2.25,2.24
119.92,4.58,2.36,4.57,2.36,-2.36,-1.99,-2.76,2.22,2.22,2.21
121.12,4.62,2.43,4.62,2.44,-2.44,-2.06,-2.81,2.18,2.18,2.18
122.33,4.66,2.50,4.66,2.51,-2.52,-2.13,-2.85,2.14,2.14,2.15
123.55,4.71,2.58,4.71,2.59,-2.59,-2.21,-2.89,2.11,2.12,2.12
124.79,4.77,2.67,4.77,2.67,-2.67,-2.28,-2.93,2.09,2.09,2.09
126.03,4.83,2.75,4.81,2.75,-2.75,-2.35,-2.96,2.08,2.06,2.07
127.29,4.86,2.82,4.86,2.82,-2.83,-2.42,-2.99,2.03,2.03,2.04
128.57,4.90,2.89,4.91,2.90,-2.90,-2.49,-3.01,1.99,2.00,2.00
129.85,4.96,2.97,4.96,2.98,-2.98,-2.57,-3.03,1.98,1.98,1.98
131.15,5.02,3.06,5.00,3.06,-3.04,-2.64,-3.04,1.97,1.96,1.95
132.46,5.04,3.12,5.04,3.12,-3.11,-2.71,-3.06,1.93,1.93,1.91
133.79,5.07,3.17,5.07,3.18,-3.17,-2.78,-3.07,1.90,1.90,1.89
135.12,5.09,3.22,5.08,3.22,-3.22,-2.85,-3.07,1.86,1.86,1.86
136.48,5.10,3.26,5.10,3.27,-3.28,-2.93,-3.07,1.82,1.82,1.83
137.84,5.12,3.31,5.11,3.32,-3.32,-3.00,-3.07,1.79,1.79,1.80
139.22,5.13,3.37,5.13,3.37,-3.37,-3.07,-3.07,1.76,1.76,1.75
140.61,5.15,3.42,5.15,3.42,-3.42,-3.14,-3.07,1.73,1.73,1.72
142.02,5.17,3.46,5.16,3.47,-3.46,-3.21,-3.07,1.70,1.70,1.70
143.44,5.18,3.51,5.17,3.51,-3.51,-3.28,-3.06,1.66,1.66,1.66
144.87,5.19,3.56,5.19,3.56,-3.57,-3.35,-3.05,1.62,1.62,1.62
146.32,5.20,3.61,5.20,3.62,-3.63,-3.42,-3.05,1.57,1.58,1.58
147.78,5.23,3.68,5.23,3.68,-3.69,-3.49,-3.04,1.54,1.54,1.55
149.26,5.27,3.74,5.26,3.75,-3.75,-3.56,-3.03,1.51,1.51,1.52
150.75,5.30,3.83,5.30,3.82,-3.82,-3.63,-3.03,1.48,1.48,1.47
152.26,5.33,3.89,5.33,3.90,-3.89,-3.69,-3.02,1.43,1.44,1.43
153.78,5.37,3.97,5.37,3.97,-3.97,-3.76,-3.01,1.40,1.40,1.40
155.32,5.40,4.04,5.40,4.04,-4.04,-3.82,-3.01,1.35,1.35,1.35
156.88,5.44,4.11,5.43,4.11,-4.12,-3.88,-3.01,1.32,1.31,1.32
158.44,5.45,4.19,5.45,4.19,-4.19,-3.95,-3.01,1.26,1.26,1.26
160.03,5.48,4.25,5.48,4.26,-4.26,-4.01,-3.01,1.22,1.22,1.22
161.63,5.50,4.32,5.49,4.32,-4.32,-4.07,-3.01,1.18,1.18,1.17
163.24,5.51,4.37,5.51,4.38,-4.37,-4.12,-3.01,1.14,1.14,1.13
164.88,5.52,4.42,5.51,4.42,-4.41,-4.18,-3.02,1.10,1.10,1.09
166.53,5.51,4.45,5.51,4.46,-4.45,-4.23,-3.03,1.05,1.06,1.05
168.19,5.50,4.48,5.50,4.48,-4.48,-4.28,-3.04,1.01,1.01,1.01
169.87,5.48,4.50,5.48,4.50,-4.51,-4.33,-3.05,0.97,0.97,0.97
171.57,5.46,4.51,5.46,4.52,-4.52,-4.38,-3.07,0.93,0.94,0.94
173.29,5.44,4.53,5.43,4.53,-4.53,-4.42,-3.09,0.90,0.90,0.90
175.02,5.40,4.53,5.40,4.53,-4.54,-4.47,-3.11,0.86,0.86,0.86
176.77,5.37,4.53,5.37,4.54,-4.54,-4.51,-3.13,0.83,0.83,0.83
178.54,5.34,4.53,5.34,4.54,-4.53,-4.54,-3.16,0.80,0.81,0.80
180.32,5.31,4.53,5.31,4.53,-4.52,-4.58,-3.18,0.78,0.78,0.77
182.13,5.28,4.52,5.27,4.52,-4.51,-4.61,-3.22,0.76,0.76,0.75
183.95,5.23,4.49,5.23,4.50,-4.50,-4.64,-3.25,0.73,0.73,0.73
185.79,5.20,4.48,5.20,4.49,-4.49,-4.66,-3.28,0.71,0.71,0.71
187.65,5.18,4.48,5.17,4.48,-4.49,-4.68,-3.32,0.69,0.68,0.69
189.52,5.15,4.46,5.15,4.47,-4.49,-4.70,-3.36,0.66,0.66,0.68
191.42,5.14,4.47,5.14,4.47,-4.49,-4.71,-3.41,0.65,0.65,0.66
193.33,5.14,4.48,5.14,4.49,-4.50,-4.72,-3.45,0.64,0.64,0.65
195.27,5.15,4.50,5.15,4.51,-4.51,-4.73,-3.50,0.63,0.63,0.64
197.22,5.16,4.53,5.15,4.53,-4.52,-4.73,-3.54,0.63,0.63,0.62
199.19,5.16,4.55,5.16,4.55,-4.54,-4.73,-3.59,0.62,0.62,0.60
201.18,5.16,4.56,5.16,4.56,-4.55,-4.73,-3.64,0.61,0.61,0.59
203.19,5.15,4.55,5.14,4.56,-4.55,-4.72,-3.70,0.59,0.59,0.59
205.23,5.13,4.55,5.12,4.55,-4.55,-4.71,-3.75,0.58,0.57,0.57
207.28,5.10,4.52,5.10,4.54,-4.54,-4.69,-3.80,0.55,0.56,0.57
209.35,5.08,4.52,5.08,4.53,-4.53,-4.67,-3.85,0.55,0.55,0.55
211.44,5.06,4.52,5.05,4.51,-4.51,-4.64,-3.91,0.55,0.54,0.53
213.56,5.02,4.49,5.01,4.49,-4.48,-4.62,-3.96,0.53,0.53,0.52
215.69,4.97,4.44,4.97,4.45,-4.46,-4.58,-4.01,0.51,0.51,0.52
217.85,4.92,4.41,4.93,4.42,-4.43,-4.55,-4.06,0.49,0.50,0.50
220.03,4.89,4.39,4.88,4.39,-4.39,-4.51,-4.10,0.49,0.49,0.49
222.23,4.85,4.37,4.84,4.36,-4.36,-4.46,-4.15,0.49,0.48,0.47
224.45,4.79,4.31,4.79,4.32,-4.32,-4.42,-4.19,0.47,0.47,0.47
226.70,4.73,4.27,4.73,4.27,-4.28,-4.36,-4.22,0.45,0.45,0.45
228.96,4.67,4.22,4.67,4.23,-4.24,-4.31,-4.26,0.43,0.43,0.44
231.25,4.63,4.19,4.62,4.19,-4.20,-4.25,-4.28,0.42,0.42,0.43
233.57,4.58,4.16,4.57,4.16,-4.16,-4.19,-4.30,0.41,0.41,0.41
235.90,4.51,4.10,4.52,4.12,-4.12,-4.12,-4.32,0.39,0.40,0.40
238.26,4.47,4.08,4.46,4.08,-4.07,-4.06,-4.33,0.39,0.39,0.38
240.64,4.40,4.03,4.40,4.03,-4.03,-3.98,-4.33,0.37,0.37,0.36
243.05,4.34,3.98,4.33,3.98,-3.97,-3.91,-4.33,0.36,0.36,0.35
245.48,4.26,3.91,4.26,3.92,-3.91,-3.83,-4.32,0.34,0.34,0.34
247.93,4.17,3.83,4.18,3.84,-3.85,-3.75,-4.30,0.32,0.33,0.33
250.41,4.11,3.78,4.09,3.77,-3.77,-3.67,-4.27,0.33,0.32,0.32
252.92,4.01,3.67,4.02,3.69,-3.69,-3.59,-4.24,0.31,0.33,0.33
255.45,3.94,3.60,3.94,3.61,-3.60,-3.50,-4.20,0.33,0.33,0.33
258.00,3.87,3.52,3.85,3.51,-3.51,-3.41,-4.15,0.36,0.34,0.34
260.58,3.76,3.41,3.76,3.42,-3.41,-3.32,-4.09,0.35,0.35,0.34
263.19,3.67,3.31,3.66,3.31,-3.31,-3.23,-4.02,0.36,0.36,0.35
265.82,3.56,3.19,3.57,3.20,-3.20,-3.13,-3.95,0.35,0.37,0.36
268.48,3.48,3.09,3.47,3.09,-3.09,-3.04,-3.87,0.38,0.38,0.38
271.16,3.39,2.98,3.37,2.97,-2.98,-2.94,-3.79,0.40,0.39,0.40
273.87,3.27,2.85,3.28,2.86,-2.87,-2.84,-3.70,0.39,0.41,0.41
276.61,3.19,2.74,3.19,2.76,-2.76,-2.74,-3.61,0.42,0.43,0.44
279.38,3.11,2.66,3.10,2.65,-2.65,-2.64,-3.51,0.45,0.45,0.44
282.17,3.02,2.55,3.01,2.55,-2.55,-2.53,-3.40,0.47,0.47,0.46
284.99,2.92,2.44,2.92,2.44,-2.44,-2.43,-3.29,0.48,0.48,0.47
287.84,2.82,2.32,2.83,2.34,-2.33,-2.32,-3.18,0.48,0.49,0.49
290.72,2.75,2.23,2.74,2.23,-2.23,-2.22,-3.07,0.51,0.51,0.51
293.63,2.66,2.13,2.65,2.13,-2.13,-2.11,-2.95,0.53,0.52,0.52
296.57,2.57,2.01,2.57,2.03,-2.03,-2.01,-2.83,0.54,0.54,0.55
299.53,2.49,1.92,2.49,1.92,-1.93,-1.90,-2.71,0.56,0.56,0.56
302.53,2.41,1.83,2.41,1.83,-1.83,-1.79,-2.58,0.58,0.58,0.57
305.55,2.34,1.73,2.33,1.74,-1.73,-1.68,-2.46,0.60,0.60,0.60
308.61,2.27,1.64,2.26,1.64,-1.64,-1.57,-2.33,0.63,0.63,0.62
311.69,2.20,1.54,2.20,1.54,-1.55,-1.47,-2.21,0.65,0.65,0.65
314.81,2.14,1.44,2.14,1.46,-1.46,-1.36,-2.08,0.67,0.67,0.69
317.96,2.08,1.37,2.07,1.37,-1.38,-1.25,-1.95,0.70,0.70,0.70
321.14,2.02,1.29,2.01,1.29,-1.29,-1.14,-1.83,0.72,0.72,0.72
324.35,1.95,1.20,1.95,1.21,-1.21,-1.03,-1.70,0.74,0.74,0.74
327.59,1.89,1.12,1.89,1.13,-1.12,-0.92,-1.57,0.76,0.77,0.76
330.87,1.84,1.05,1.83,1.04,-1.04,-0.82,-1.45,0.80,0.79,0.78
334.18,1.77,0.95,1.76,0.96,-0.95,-0.71,-1.32,0.81,0.81,0.81
337.52,1.69,0.85,1.69,0.86,-0.86,-0.60,-1.19,0.82,0.83,0.83
340.90,1.63,0.77,1.62,0.77,-0.77,-0.50,-1.07,0.86,0.85,0.85
344.30,1.55,0.66,1.55,0.67,-0.67,-0.39,-0.94,0.87,0.88,0.88
347.75,1.48,0.57,1.48,0.58,-0.57,-0.29,-0.82,0.90,0.91,0.90
351.23,1.41,0.47,1.40,0.47,-0.47,-0.18,-0.69,0.94,0.93,0.93
354.74,1.33,0.36,1.32,0.36,-0.36,-0.08,-0.57,0.97,0.96,0.96
358.28,1.22,0.24,1.23,0.25,-0.25,0.02,-0.44,0.97,0.98,0.97
361.87,1.14,0.13,1.13,0.13,-0.13,0.12,-0.32,1.00,1.00,1.00
365.49,1.04,0.00,1.04,0.02,-0.01,0.22,-0.20,1.02,1.03,1.03
369.14,0.95,-0.10,0.95,-0.10,0.11,0.32,-0.07,1.05,1.05,1.04
372.83,0.86,-0.22,0.85,-0.23,0.23,0.42,0.05,1.08,1.07,1.07
376.56,0.74,-0.36,0.74,-0.35,0.35,0.51,0.17,1.08,1.09,1.09
380.33,0.64,-0.49,0.64,-0.48,0.47,0.61,0.29,1.10,1.11,1.12
384.13,0.54,-0.60,0.54,-0.59,0.59,0.70,0.41,1.12,1.12,1.13
387.97,0.45,-0.71,0.45,-0.71,0.70,0.79,0.53,1.15,1.15,1.15
391.85,0.36,-0.81,0.35,-0.81,0.82,0.88,0.65,1.18,1.17,1.16
395.77,0.26,-0.94,0.26,-0.92,0.93,0.97,0.77,1.19,1.19,1.19
399.73,0.17,-1.04,0.16,-1.04,1.05,1.06,0.88,1.21,1.21,1.20
403.72,0.06,-1.15,0.06,-1.15,1.15,1.14,1.00,1.21,1.21,1.20
407.76,-0.05,-1.27,-0.05,-1.27,1.26,1.22,1.12,1.21,1.21,1.21
411.84,-0.16,-1.39,-0.16,-1.37,1.36,1.30,1.23,1.20,1.20,1.22
415.96,-0.26,-1.48,-0.26,-1.48,1.47,1.38,1.34,1.20,1.20,1.21
420.12,-0.35,-1.57,-0.36,-1.57,1.57,1.45,1.45,1.21,1.21,1.21
424.32,-0.45,-1.67,-0.45,-1.66,1.66,1.53,1.56,1.21,1.22,1.21
428.56,-0.53,-1.75,-0.54,-1.75,1.76,1.60,1.66,1.23,1.22,1.21
432.85,-0.63,-1.84,-0.64,-1.84,1.85,1.66,1.77,1.22,1.22,1.20
437.18,-0.74,-1.95,-0.73,-1.93,1.94,1.73,1.87,1.20,1.21,1.20
441.55,-0.82,-2.03,-0.83,-2.03,2.03,1.79,1.96,1.21,1.20,1.20
445.96,-0.92,-2.12,-0.93,-2.12,2.12,1.85,2.06,1.19,1.19,1.19
450.42,-1.02,-2.22,-1.01,-2.20,2.20,1.91,2.15,1.18,1.19,1.19
454.93,-1.09,-2.29,-1.09,-2.28,2.28,1.96,2.23,1.18,1.18,1.19
459.48,-1.15,-2.34,-1.16,-2.35,2.34,2.01,2.31,1.19,1.18,1.18
464.07,-1.21,-2.41,-1.21,-2.40,2.40,2.06,2.38,1.18,1.18,1.19
468.71,-1.26,-2.46,-1.26,-2.45,2.45,2.11,2.45,1.18,1.18,1.19
473.40,-1.30,-2.49,-1.30,-2.49,2.48,2.15,2.52,1.18,1.18,1.18
478.13,-1.32,-2.52,-1.33,-2.51,2.51,2.19,2.58,1.19,1.18,1.19
482.91,-1.34,-2.53,-1.34,-2.53,2.53,2.22,2.63,1.19,1.19,1.18
487.74,-1.35,-2.55,-1.35,-2.54,2.54,2.26,2.67,1.19,1.19,1.19
492.62,-1.35,-2.56,-1.36,-2.55,2.55,2.29,2.71,1.20,1.19,1.20
497.55,-1.36,-2.56,-1.36,-2.56,2.56,2.31,2.74,1.20,1.20,1.19
502.52,-1.36,-2.57,-1.36,-2.56,2.57,2.34,2.77,1.20,1.21,1.20
507.55,-1.35,-2.56,-1.36,-2.56,2.57,2.36,2.79,1.22,1.21,1.20
512.62,-1.35,-2.57,-1.36,-2.57,2.58,2.38,2.80,1.22,1.22,1.21
517.75,-1.36,-2.59,-1.36,-2.58,2.58,2.39,2.81,1.22,1.22,1.22
522.93,-1.36,-2.60,-1.36,-2.59,2.58,2.41,2.80,1.22,1.22,1.23
528.16,-1.35,-2.59,-1.35,-2.59,2.59,2.42,2.80,1.23,1.23,1.23
533.44,-1.34,-2.59,-1.34,-2.58,2.59,2.42,2.79,1.25,1.25,1.24
538.77,-1.31,-2.58,-1.32,-2.58,2.59,2.43,2.77,1.27,1.26,1.26
544.16,-1.30,-2.58,-1.30,-2.58,2.58,2.43,2.75,1.27,1.27,1.27
