frequency,raw,error,smoothed,error_smoothed,equalization,parametric_eq,fixed_band_eq,equalized_raw,equalized_smoothed,target
20.00,4.20,-3.66,4.20,-3.66,3.66,3.31,1.83,7.85,7.85,7.85
20.20,4.19,-3.66,4.19,-3.66,3.66,3.34,1.88,7.84,7.84,7.84
20.40,4.18,-3.66,4.18,-3.66,3.65,3.36,1.94,7.83,7.83,7.83
20.61,4.17,-3.66,4.17,-3.65,3.65,3.39,1.99,7.82,7.82,7.82
20.81,4.16,-3.65,4.16,-3.65,3.65,3.41,2.05,7.81,7.81,7.80
21.02,4.15,-3.65,4.15,-3.65,3.65,3.44,2.11,7.80,7.80,7.79
21.23,4.14,-3.65,4.14,-3.65,3.65,3.46,2.17,7.79,7.79,7.78
21.44,4.13,-3.67,4.13,-3.66,3.66,3.49,2.23,7.78,7.78,7.79
21.66,4.12,-3.66,4.12,-3.66,3.66,3.51,2.29,7.77,7.78,7.77
21.87,4.11,-3.67,4.11,-3.66,3.66,3.53,2.36,7.77,7.77,7.77
22.09,4.10,-3.66,4.09,-3.66,3.66,3.56,2.43,7.76,7.76,7.75
22.31,4.08,-3.67,4.08,-3.67,3.67,3.58,2.50,7.74,7.75,7.74
22.54,4.07,-3.67,4.07,-3.67,3.67,3.60,2.57,7.74,7.74,7.73
22.76,4.06,-3.68,4.06,-3.67,3.67,3.62,2.64,7.73,7.73,7.73
22.99,4.05,-3.68,4.05,-3.68,3.68,3.64,2.72,7.73,7.73,7.72
23.22,4.04,-3.68,4.04,-3.68,3.68,3.66,2.79,7.72,7.72,7.71
23.45,4.03,-3.70,4.03,-3.69,3.69,3.68,2.87,7.72,7.72,7.72
23.69,4.02,-3.70,4.02,-3.70,3.69,3.70,2.95,7.71,7.71,7.71
23.92,4.01,-3.70,4.01,-3.70,3.70,3.72,3.03,7.71,7.71,7.70
24.16,4.01,-3.71,4.00,-3.71,3.71,3.74,3.12,7.71,7.71,7.71
24.40,4.00,-3.72,4.00,-3.71,3.71,3.76,3.20,7.71,7.71,7.71
24.65,3.99,-3.72,3.99,-3.72,3.72,3.77,3.29,7.71,7.71,7.70
24.89,3.98,-3.73,3.98,-3.72,3.73,3.79,3.37,7.70,7.70,7.70
25.14,3.97,-3.73,3.97,-3.73,3.73,3.81,3.46,7.70,7.70,7.69
25.39,3.96,-3.74,3.96,-3.74,3.74,3.82,3.55,7.70,7.70,7.69
25.65,3.95,-3.75,3.95,-3.75,3.75,3.84,3.64,7.69,7.69,7.69
25.91,3.94,-3.76,3.94,-3.76,3.76,3.85,3.72,7.69,7.69,7.69
26.16,3.93,-3.78,3.93,-3.77,3.76,3.86,3.81,7.69,7.69,7.70
26.43,3.93,-3.77,3.92,-3.77,3.77,3.88,3.90,7.70,7.70,7.69
26.69,3.92,-3.78,3.92,-3.78,3.78,3.89,3.98,7.70,7.70,7.69
26.96,3.91,-3.79,3.91,-3.78,3.79,3.90,4.07,7.70,7.70,7.69
27.23,3.90,-3.80,3.90,-3.80,3.80,3.91,4.15,7.69,7.70,7.69
27.50,3.89,-3.81,3.89,-3.81,3.81,3.92,4.23,7.69,7.70,7.69
27.77,3.89,-3.82,3.88,-3.81,3.81,3.93,4.30,7.70,7.70,7.70
28.05,3.88,-3.82,3.88,-3.82,3.82,3.94,4.38,7.70,7.70,7.69
28.33,3.87,-3.84,3.87,-3.83,3.83,3.94,4.45,7.70,7.70,7.70
28.62,3.87,-3.84,3.86,-3.84,3.84,3.95,4.51,7.71,7.71,7.70
28.90,3.86,-3.86,3.86,-3.85,3.85,3.96,4.57,7.71,7.71,7.71
29.19,3.86,-3.86,3.85,-3.86,3.85,3.96,4.63,7.71,7.71,7.71
29.48,3.85,-3.86,3.85,-3.86,3.86,3.97,4.68,7.71,7.70,7.70
29.78,3.84,-3.87,3.84,-3.86,3.86,3.97,4.72,7.70,7.70,7.70
30.08,3.84,-3.87,3.84,-3.86,3.86,3.97,4.76,7.70,7.70,7.70
30.38,3.84,-3.85,3.83,-3.86,3.86,3.98,4.79,7.70,7.69,7.68
30.68,3.83,-3.86,3.83,-3.86,3.86,3.98,4.81,7.69,7.69,7.68
30.99,3.83,-3.86,3.83,-3.86,3.85,3.98,4.82,7.68,7.68,7.68
31.30,3.83,-3.86,3.83,-3.85,3.85,3.98,4.83,7.68,7.67,7.68
31.61,3.83,-3.85,3.83,-3.85,3.84,3.98,4.83,7.67,7.67,7.67
31.93,3.83,-3.83,3.83,-3.84,3.84,3.97,4.83,7.66,7.66,7.65
32.24,3.83,-3.84,3.83,-3.83,3.83,3.97,4.81,7.66,7.66,7.66
32.57,3.83,-3.82,3.83,-3.82,3.82,3.97,4.79,7.65,7.65,7.64
32.89,3.83,-3.82,3.83,-3.82,3.82,3.96,4.77,7.65,7.64,7.64
33.22,3.83,-3.81,3.82,-3.81,3.81,3.96,4.73,7.64,7.64,7.63
33.55,3.82,-3.82,3.82,-3.81,3.81,3.95,4.69,7.62,7.63,7.63
33.89,3.82,-3.81,3.82,-3.80,3.80,3.94,4.65,7.62,7.62,7.62
34.23,3.82,-3.79,3.81,-3.79,3.80,3.93,4.60,7.62,7.61,7.60
34.57,3.81,-3.80,3.81,-3.79,3.80,3.92,4.55,7.60,7.61,7.60
34.92,3.81,-3.78,3.81,-3.79,3.79,3.91,4.49,7.60,7.60,7.58
35.27,3.80,-3.81,3.80,-3.79,3.79,3.90,4.43,7.59,7.59,7.60
35.62,3.80,-3.78,3.80,-3.79,3.78,3.89,4.37,7.58,7.58,7.57
35.97,3.79,-3.79,3.79,-3.78,3.78,3.88,4.30,7.57,7.57,7.57
36.33,3.78,-3.78,3.78,-3.77,3.77,3.87,4.24,7.55,7.55,7.55
36.70,3.77,-3.77,3.77,-3.77,3.77,3.85,4.17,7.54,7.54,7.53
37.06,3.76,-3.76,3.76,-3.76,3.76,3.84,4.10,7.52,7.52,7.51
37.43,3.75,-3.75,3.75,-3.75,3.75,3.82,4.03,7.50,7.50,7.49
37.81,3.74,-3.75,3.73,-3.74,3.74,3.80,3.96,7.48,7.48,7.48
38.19,3.72,-3.74,3.72,-3.74,3.73,3.79,3.89,7.45,7.46,7.45
38.57,3.71,-3.73,3.71,-3.73,3.73,3.77,3.82,7.43,7.43,7.43
38.95,3.70,-3.73,3.70,-3.72,3.72,3.75,3.75,7.41,7.41,7.42
39.34,3.69,-3.71,3.69,-3.71,3.71,3.73,3.69,7.39,7.39,7.39
39.74,3.68,-3.69,3.68,-3.69,3.70,3.71,3.62,7.38,7.37,7.36
40.14,3.66,-3.69,3.66,-3.68,3.69,3.68,3.56,7.35,7.35,7.34
40.54,3.65,-3.68,3.64,-3.68,3.68,3.66,3.50,7.33,7.32,7.32
40.94,3.63,-3.67,3.63,-3.67,3.67,3.64,3.44,7.30,7.30,7.29
41.35,3.62,-3.67,3.62,-3.66,3.66,3.61,3.38,7.28,7.28,7.28
41.76,3.61,-3.65,3.61,-3.65,3.65,3.59,3.33,7.26,7.26,7.25
42.18,3.60,-3.65,3.60,-3.64,3.64,3.56,3.27,7.24,7.24,7.24
42.60,3.59,-3.63,3.59,-3.63,3.63,3.54,3.22,7.21,7.22,7.21
43.03,3.58,-3.62,3.58,-3.61,3.61,3.51,3.18,7.19,7.19,7.19
43.46,3.57,-3.59,3.56,-3.59,3.60,3.48,3.13,7.17,7.16,7.15
43.90,3.55,-3.59,3.55,-3.58,3.58,3.45,3.09,7.13,7.14,7.13
44.33,3.55,-3.56,3.55,-3.56,3.56,3.42,3.05,7.11,7.11,7.10
44.78,3.54,-3.55,3.54,-3.54,3.54,3.39,3.01,7.08,7.08,7.08
45.23,3.54,-3.53,3.53,-3.52,3.52,3.36,2.97,7.06,7.05,7.06
45.68,3.53,-3.49,3.53,-3.49,3.49,3.33,2.94,7.02,7.02,7.01
46.13,3.52,-3.47,3.52,-3.46,3.46,3.29,2.91,6.98,6.99,6.98
46.60,3.52,-3.43,3.52,-3.43,3.43,3.26,2.88,6.95,6.95,6.94
47.06,3.52,-3.40,3.51,-3.40,3.40,3.23,2.86,6.91,6.91,6.91
47.53,3.51,-3.37,3.51,-3.36,3.36,3.19,2.83,6.87,6.87,6.87
48.01,3.51,-3.32,3.51,-3.32,3.32,3.16,2.81,6.83,6.83,6.82
48.49,3.51,-3.28,3.50,-3.28,3.28,3.12,2.79,6.79,6.78,6.78
48.97,3.50,-3.24,3.50,-3.24,3.24,3.08,2.77,6.73,6.74,6.73
49.46,3.50,-3.21,3.50,-3.19,3.19,3.05,2.76,6.69,6.69,6.70
49.96,3.51,-3.14,3.50,-3.15,3.15,3.01,2.74,6.66,6.65,6.64
50.46,3.51,-3.11,3.51,-3.10,3.10,2.97,2.73,6.61,6.62,6.61
50.96,3.52,-3.06,3.52,-3.06,3.06,2.93,2.72,6.58,6.58,6.57
51.47,3.52,-3.02,3.52,-3.01,3.02,2.89,2.71,6.54,6.54,6.53
51.99,3.52,-2.97,3.52,-2.97,2.98,2.85,2.70,6.49,6.50,6.48
52.51,3.52,-2.94,3.52,-2.94,2.93,2.81,2.69,6.45,6.45,6.45
53.03,3.52,-2.91,3.52,-2.90,2.89,2.77,2.68,6.41,6.41,6.42
53.56,3.52,-2.86,3.52,-2.86,2.85,2.73,2.67,6.37,6.37,6.37
54.10,3.52,-2.81,3.52,-2.81,2.81,2.69,2.66,6.33,6.33,6.32
54.64,3.52,-2.77,3.52,-2.76,2.77,2.64,2.66,6.29,6.29,6.28
55.18,3.52,-2.73,3.52,-2.72,2.73,2.60,2.65,6.25,6.25,6.24
55.74,3.52,-2.68,3.52,-2.69,2.69,2.56,2.64,6.21,6.21,6.19
56.29,3.52,-2.66,3.52,-2.65,2.65,2.51,2.63,6.17,6.17,6.17
56.86,3.52,-2.62,3.52,-2.61,2.61,2.47,2.62,6.13,6.13,6.13
57.42,3.52,-2.57,3.52,-2.57,2.57,2.42,2.60,6.09,6.09,6.08
58.00,3.52,-2.53,3.52,-2.53,2.54,2.38,2.59,6.05,6.05,6.04
58.58,3.52,-2.50,3.52,-2.50,2.50,2.33,2.57,6.01,6.01,6.01
59.16,3.52,-2.47,3.52,-2.46,2.45,2.28,2.55,5.97,5.97,5.98
59.76,3.52,-2.42,3.52,-2.42,2.41,2.24,2.53,5.92,5.92,5.93
60.35,3.52,-2.37,3.52,-2.37,2.36,2.19,2.51,5.87,5.87,5.88
60.96,3.52,-2.31,3.52,-2.31,2.30,2.14,2.48,5.82,5.82,5.82
61.57,3.52,-2.25,3.52,-2.25,2.25,2.09,2.45,5.77,5.77,5.76
62.18,3.52,-2.19,3.52,-2.19,2.19,2.05,2.42,5.71,5.71,5.70
62.80,3.52,-2.13,3.52,-2.13,2.14,2.00,2.38,5.65,5.65,5.64
63.43,3.52,-2.08,3.52,-2.08,2.08,1.95,2.34,5.60,5.60,5.59
64.07,3.52,-2.03,3.52,-2.03,2.03,1.90,2.30,5.54,5.54,5.54
64.71,3.52,-1.98,3.52,-1.97,1.97,1.85,2.26,5.49,5.49,5.49
65.35,3.52,-1.92,3.52,-1.92,1.92,1.80,2.21,5.44,5.44,5.43
66.01,3.52,-1.87,3.52,-1.87,1.87,1.75,2.16,5.39,5.39,5.38
66.67,3.52,-1.83,3.52,-1.82,1.82,1.70,2.11,5.33,5.33,5.34
67.33,3.52,-1.76,3.52,-1.76,1.76,1.65,2.05,5.28,5.28,5.27
68.01,3.52,-1.71,3.52,-1.71,1.71,1.59,1.99,5.23,5.23,5.22
68.69,3.52,-1.66,3.52,-1.66,1.65,1.54,1.93,5.17,5.17,5.17
69.37,3.52,-1.61,3.52,-1.60,1.60,1.49,1.87,5.12,5.12,5.12
70.07,3.52,-1.55,3.52,-1.54,1.54,1.44,1.80,5.06,5.06,5.06
70.77,3.52,-1.48,3.52,-1.49,1.48,1.39,1.73,5.00,5.00,4.99
71.48,3.52,-1.43,3.52,-1.42,1.42,1.33,1.66,4.94,4.94,4.94
72.19,3.52,-1.37,3.52,-1.36,1.36,1.28,1.59,4.88,4.88,4.88
72.91,3.52,-1.30,3.52,-1.30,1.30,1.23,1.52,4.82,4.82,4.81
73.64,3.52,-1.25,3.52,-1.24,1.25,1.17,1.45,4.77,4.77,4.76
74.38,3.52,-1.19,3.52,-1.19,1.19,1.12,1.38,4.71,4.71,4.70
75.12,3.52,-1.14,3.52,-1.14,1.14,1.06,1.30,4.66,4.66,4.65
75.87,3.52,-1.09,3.51,-1.09,1.09,1.01,1.23,4.61,4.60,4.60
76.63,3.51,-1.04,3.51,-1.04,1.04,0.96,1.15,4.55,4.55,4.54
77.40,3.51,-1.00,3.51,-0.99,0.99,0.90,1.07,4.50,4.50,4.50
78.17,3.51,-0.94,3.51,-0.94,0.94,0.85,1.00,4.45,4.45,4.44
78.95,3.51,-0.90,3.51,-0.90,0.89,0.79,0.92,4.40,4.40,4.40
79.74,3.51,-0.85,3.51,-0.84,0.84,0.74,0.84,4.35,4.35,4.35
80.54,3.52,-0.79,3.52,-0.78,0.78,0.68,0.77,4.30,4.30,4.30
81.35,3.54,-0.71,3.53,-0.72,0.72,0.62,0.69,4.26,4.25,4.24
82.16,3.55,-0.67,3.55,-0.66,0.65,0.57,0.61,4.20,4.20,4.21
82.98,3.57,-0.59,3.57,-0.59,0.58,0.51,0.54,4.15,4.15,4.15
83.81,3.59,-0.52,3.59,-0.51,0.51,0.46,0.46,4.09,4.10,4.10
84.65,3.62,-0.43,3.62,-0.43,0.43,0.40,0.38,4.05,4.04,4.04
85.50,3.65,-0.34,3.65,-0.34,0.35,0.34,0.30,3.99,3.99,3.98
86.35,3.68,-0.26,3.68,-0.26,0.26,0.29,0.23,3.94,3.94,3.93
87.22,3.71,-0.18,3.70,-0.17,0.17,0.23,0.15,3.88,3.88,3.88
88.09,3.73,-0.10,3.74,-0.09,0.09,0.17,0.07,3.82,3.82,3.82
88.97,3.77,0.00,3.77,-0.00,0.00,0.12,-0.00,3.77,3.77,3.76
89.86,3.80,0.08,3.79,0.08,-0.08,0.06,-0.08,3.72,3.71,3.71
90.76,3.82,0.16,3.82,0.17,-0.16,0.00,-0.16,3.66,3.66,3.65
91.66,3.83,0.24,3.83,0.24,-0.24,-0.06,-0.23,3.59,3.60,3.58
92.58,3.85,0.31,3.85,0.31,-0.31,-0.11,-0.31,3.54,3.54,3.53
93.51,3.87,0.38,3.86,0.38,-0.38,-0.17,-0.39,3.49,3.48,3.48
94.44,3.87,0.44,3.87,0.45,-0.45,-0.23,-0.46,3.42,3.42,3.42
95.39,3.87,0.51,3.87,0.51,-0.51,-0.29,-0.54,3.36,3.35,3.35
96.34,3.86,0.57,3.86,0.57,-0.57,-0.35,-0.62,3.28,3.29,3.28
97.30,3.86,0.63,3.85,0.63,-0.63,-0.40,-0.69,3.22,3.22,3.22
98.28,3.85,0.69,3.85,0.69,-0.69,-0.46,-0.77,3.15,3.16,3.15
99.26,3.85,0.75,3.85,0.75,-0.75,-0.52,-0.84,3.09,3.10,3.09
100.25,3.85,0.81,3.85,0.81,-0.81,-0.58,-0.92,3.04,3.04,3.03
101.25,3.85,0.86,3.85,0.87,-0.87,-0.64,-0.99,2.98,2.98,2.98
102.27,3.85,0.92,3.85,0.92,-0.92,-0.70,-1.07,2.92,2.92,2.92
103.29,3.85,0.98,3.85,0.98,-0.98,-0.75,-1.14,2.87,2.87,2.86
104.32,3.85,1.03,3.85,1.04,-1.04,-0.81,-1.22,2.81,2.81,2.81
105.37,3.85,1.09,3.85,1.09,-1.09,-0.87,-1.29,2.76,2.76,2.75
106.42,3.85,1.14,3.85,1.15,-1.15,-0.93,-1.36,2.70,2.70,2.70
107.48,3.85,1.20,3.85,1.20,-1.20,-0.99,-1.43,2.65,2.65,2.64
108.56,3.85,1.25,3.85,1.26,-1.26,-1.05,-1.50,2.59,2.59,2.59
109.64,3.85,1.31,3.85,1.31,-1.31,-1.11,-1.57,2.53,2.53,2.53
110.74,3.85,1.37,3.85,1.37,-1.37,-1.16,-1.64,2.48,2.48,2.47
111.85,3.85,1.43,3.85,1.43,-1.43,-1.22,-1.70,2.41,2.41,2.41
112.97,3.85,1.48,3.85,1.49,-1.49,-1.28,-1.76,2.35,2.35,2.36
114.10,3.85,1.54,3.85,1.55,-1.56,-1.34,-1.83,2.29,2.29,2.30
115.24,3.85,1.62,3.85,1.62,-1.62,-1.40,-1.88,2.23,2.23,2.22
116.39,3.85,1.68,3.85,1.68,-1.68,-1.46,-1.94,2.17,2.17,2.16
117.55,3.85,1.74,3.85,1.75,-1.73,-1.52,-2.00,2.11,2.11,2.10
118.73,3.85,1.80,3.85,1.80,-1.79,-1.57,-2.05,2.06,2.06,2.04
119.92,3.85,1.84,3.85,1.85,-1.85,-1.63,-2.10,2.00,2.00,2.00
121.12,3.85,1.89,3.85,1.90,-1.90,-1.69,-2.14,1.95,1.95,1.95
122.33,3.85,1.95,3.85,1.95,-1.95,-1.75,-2.19,1.89,1.89,1.89
123.55,3.85,2.00,3.85,2.00,-2.01,-1.81,-2.23,1.84,1.84,1.84
124.79,3.85,2.05,3.85,2.06,-2.06,-1.86,-2.27,1.79,1.79,1.79
126.03,3.85,2.11,3.85,2.11,-2.11,-1.92,-2.30,1.73,1.73,1.73
127.29,3.85,2.16,3.85,2.17,-2.17,-1.98,-2.34,1.68,1.68,1.68
128.57,3.85,2.23,3.85,2.23,-2.23,-2.04,-2.37,1.62,1.62,1.61
129.85,3.85,2.28,3.85,2.28,-2.28,-2.09,-2.39,1.56,1.56,1.56
131.15,3.85,2.34,3.85,2.34,-2.34,-2.15,-2.42,1.50,1.50,1.50
132.46,3.85,2.39,3.85,2.40,-2.40,-2.21,-2.44,1.45,1.45,1.45
133.79,3.85,2.45,3.85,2.45,-2.46,-2.26,-2.46,1.39,1.39,1.39
135.12,3.86,2.51,3.86,2.51,-2.52,-2.32,-2.48,1.34,1.34,1.34
136.48,3.87,2.57,3.86,2.57,-2.57,-2.38,-2.50,1.30,1.29,1.29
137.84,3.87,2.62,3.87,2.62,-2.62,-2.43,-2.51,1.25,1.25,1.24
139.22,3.86,2.67,3.86,2.67,-2.66,-2.49,-2.53,1.19,1.19,1.18
140.61,3.85,2.70,3.85,2.71,-2.70,-2.54,-2.54,1.14,1.15,1.14
142.02,3.83,2.74,3.83,2.74,-2.74,-2.60,-2.55,1.09,1.09,1.08
143.44,3.82,2.77,3.81,2.77,-2.76,-2.65,-2.56,1.06,1.05,1.04
144.87,3.78,2.77,3.78,2.78,-2.78,-2.71,-2.57,1.00,1.00,1.00
146.32,3.76,2.80,3.75,2.80,-2.80,-2.76,-2.59,0.96,0.96,0.95
147.78,3.72,2.80,3.72,2.81,-2.81,-2.81,-2.60,0.91,0.91,0.91
149.26,3.69,2.82,3.69,2.82,-2.82,-2.87,-2.61,0.87,0.87,0.86
150.75,3.65,2.82,3.65,2.83,-2.82,-2.92,-2.62,0.82,0.83,0.82
152.26,3.62,2.83,3.62,2.83,-2.83,-2.97,-2.63,0.78,0.79,0.78
153.78,3.59,2.84,3.58,2.84,-2.84,-3.02,-2.65,0.74,0.74,0.74
155.32,3.56,2.85,3.56,2.86,-2.86,-3.07,-2.66,0.70,0.70,0.70
156.88,3.53,2.87,3.53,2.88,-2.88,-3.12,-2.68,0.64,0.65,0.65
158.44,3.52,2.91,3.51,2.90,-2.91,-3.17,-2.70,0.61,0.60,0.60
160.03,3.50,2.93,3.50,2.94,-2.95,-3.22,-2.72,0.55,0.55,0.56
161.63,3.50,2.97,3.50,2.98,-2.99,-3.27,-2.74,0.51,0.51,0.52
163.24,3.51,3.03,3.51,3.03,-3.03,-3.32,-2.77,0.48,0.47,0.47
164.88,3.52,3.09,3.51,3.09,-3.08,-3.37,-2.79,0.44,0.43,0.42
166.53,3.52,3.14,3.52,3.14,-3.13,-3.41,-2.82,0.39,0.39,0.37
168.19,3.52,3.17,3.52,3.19,-3.18,-3.46,-2.85,0.34,0.34,0.34
169.87,3.52,3.23,3.52,3.23,-3.23,-3.50,-2.88,0.29,0.29,0.28
171.57,3.52,3.28,3.52,3.28,-3.28,-3.55,-2.91,0.24,0.24,0.23
173.29,3.52,3.32,3.52,3.33,-3.33,-3.59,-2.95,0.19,0.19,0.19
175.02,3.52,3.37,3.52,3.37,-3.37,-3.63,-2.99,0.14,0.14,0.14
176.77,3.52,3.42,3.52,3.42,-3.42,-3.68,-3.03,0.10,0.10,0.09
178.54,3.52,3.46,3.52,3.47,-3.47,-3.72,-3.08,0.05,0.05,0.05
180.32,3.52,3.52,3.52,3.51,-3.51,-3.76,-3.12,0.00,0.00,-0.01
182.13,3.52,3.55,3.52,3.56,-3.56,-3.80,-3.17,-0.04,-0.04,-0.04
183.95,3.52,3.60,3.52,3.61,-3.60,-3.84,-3.22,-0.09,-0.09,-0.09
185.79,3.52,3.65,3.52,3.65,-3.65,-3.87,-3.27,-0.13,-0.13,-0.14
187.65,3.52,3.69,3.52,3.69,-3.69,-3.91,-3.33,-0.17,-0.17,-0.18
189.52,3.52,3.73,3.52,3.73,-3.74,-3.94,-3.39,-0.22,-0.22,-0.22
191.42,3.52,3.77,3.52,3.77,-3.78,-3.98,-3.45,-0.26,-0.26,-0.26
193.33,3.52,3.81,3.52,3.82,-3.82,-4.01,-3.51,-0.30,-0.30,-0.30
195.27,3.52,3.86,3.52,3.86,-3.86,-4.04,-3.57,-0.35,-0.35,-0.35
197.22,3.52,3.91,3.52,3.91,-3.90,-4.08,-3.64,-0.38,-0.38,-0.40
199.19,3.52,3.94,3.52,3.95,-3.94,-4.11,-3.70,-0.42,-0.42,-0.43
201.18,3.52,3.98,3.52,3.98,-3.98,-4.13,-3.77,-0.46,-0.46,-0.47
203.19,3.52,4.01,3.52,4.01,-4.01,-4.16,-3.84,-0.49,-0.49,-0.50
205.23,3.52,4.03,3.52,4.04,-4.04,-4.19,-3.91,-0.52,-0.52,-0.52
207.28,3.52,4.06,3.52,4.07,-4.07,-4.21,-3.98,-0.55,-0.55,-0.55
209.35,3.52,4.10,3.52,4.10,-4.10,-4.24,-4.05,-0.58,-0.58,-0.59
211.44,3.52,4.13,3.52,4.13,-4.13,-4.26,-4.12,-0.61,-0.61,-0.62
213.56,3.52,4.15,3.52,4.16,-4.16,-4.28,-4.19,-0.64,-0.64,-0.64
215.69,3.52,4.18,3.52,4.18,-4.19,-4.30,-4.26,-0.67,-0.67,-0.67
217.85,3.52,4.21,3.52,4.21,-4.21,-4.32,-4.33,-0.70,-0.70,-0.70
220.03,3.52,4.24,3.52,4.24,-4.24,-4.34,-4.40,-0.72,-0.72,-0.73
222.23,3.52,4.27,3.52,4.27,-4.26,-4.36,-4.46,-0.75,-0.75,-0.76
224.45,3.52,4.28,3.52,4.29,-4.29,-4.37,-4.52,-0.77,-0.77,-0.77
226.70,3.52,4.31,3.52,4.31,-4.31,-4.38,-4.58,-0.79,-0.79,-0.80
228.96,3.52,4.32,3.52,4.33,-4.33,-4.40,-4.64,-0.81,-0.81,-0.81
231.25,3.52,4.34,3.52,4.34,-4.35,-4.41,-4.69,-0.83,-0.83,-0.83
233.57,3.52,4.36,3.52,4.36,-4.36,-4.42,-4.73,-0.85,-0.85,-0.85
235.90,3.52,4.37,3.52,4.38,-4.38,-4.43,-4.78,-0.86,-0.86,-0.86
238.26,3.52,4.40,3.52,4.39,-4.39,-4.43,-4.81,-0.87,-0.87,-0.89
240.64,3.52,4.39,3.52,4.40,-4.40,-4.44,-4.84,-0.88,-0.88,-0.88
243.05,3.52,4.41,3.52,4.41,-4.41,-4.44,-4.87,-0.89,-0.89,-0.90
245.48,3.52,4.42,3.52,4.42,-4.42,-4.45,-4.89,-0.90,-0.90,-0.91
247.93,3.52,4.43,3.52,4.43,-4.43,-4.45,-4.90,-0.91,-0.91,-0.92
250.41,3.52,4.42,3.52,4.43,-4.44,-4.45,-4.91,-0.92,-0.92,-0.91
252.92,3.52,4.43,3.52,4.44,-4.45,-4.45,-4.91,-0.93,-0.92,-0.92
255.45,3.53,4.45,3.53,4.45,-4.45,-4.45,-4.90,-0.93,-0.93,-0.93
258.00,3.54,4.46,3.54,4.46,-4.46,-4.44,-4.89,-0.92,-0.93,-0.93
260.58,3.54,4.46,3.54,4.47,-4.47,-4.44,-4.87,-0.93,-0.92,-0.93
263.19,3.55,4.47,3.54,4.47,-4.47,-4.43,-4.84,-0.92,-0.92,-0.93
265.82,3.54,4.47,3.54,4.47,-4.46,-4.42,-4.82,-0.93,-0.92,-0.94
268.48,3.53,4.46,3.53,4.47,-4.46,-4.42,-4.78,-0.93,-0.93,-0.94
271.16,3.52,4.45,3.51,4.44,-4.44,-4.41,-4.74,-0.93,-0.94,-0.94
273.87,3.48,4.41,3.48,4.42,-4.42,-4.40,-4.70,-0.95,-0.94,-0.94
276.61,3.45,4.38,3.45,4.40,-4.40,-4.38,-4.65,-0.95,-0.94,-0.94
279.38,3.43,4.38,3.42,4.37,-4.37,-4.37,-4.60,-0.94,-0.95,-0.96
282.17,3.40,4.35,3.39,4.34,-4.34,-4.36,-4.55,-0.94,-0.94,-0.96
284.99,3.36,4.30,3.36,4.31,-4.30,-4.34,-4.49,-0.94,-0.94,-0.95
287.84,3.32,4.25,3.32,4.26,-4.26,-4.32,-4.43,-0.95,-0.94,-0.94
290.72,3.29,4.23,3.29,4.22,-4.23,-4.31,-4.37,-0.94,-0.94,-0.95
293.63,3.26,4.19,3.26,4.19,-4.19,-4.29,-4.31,-0.94,-0.94,-0.94
296.57,3.23,4.15,3.23,4.16,-4.16,-4.27,-4.25,-0.93,-0.93,-0.93
299.53,3.21,4.13,3.21,4.13,-4.13,-4.25,-4.19,-0.93,-0.93,-0.93
302.53,3.19,4.09,3.19,4.10,-4.11,-4.23,-4.13,-0.93,-0.92,-0.91
305.55,3.18,4.09,3.18,4.09,-4.10,-4.20,-4.07,-0.92,-0.92,-0.92
308.61,3.18,4.08,3.18,4.08,-4.09,-4.18,-4.01,-0.91,-0.91,-0.91
311.69,3.18,4.07,3.18,4.08,-4.08,-4.16,-3.95,-0.90,-0.90,-0.90
314.81,3.19,4.08,3.19,4.08,-4.07,-4.13,-3.89,-0.89,-0.89,-0.90
317.96,3.20,4.08,3.19,4.08,-4.07,-4.11,-3.84,-0.87,-0.88,-0.89
321.14,3.20,4.07,3.20,4.08,-4.07,-4.08,-3.78,-0.87,-0.87,-0.88
324.35,3.20,4.07,3.20,4.06,-4.07,-4.05,-3.73,-0.87,-0.87,-0.88
327.59,3.20,4.04,3.20,4.06,-4.06,-4.02,-3.68,-0.87,-0.87,-0.85
330.87,3.20,4.05,3.20,4.05,-4.06,-4.00,-3.63,-0.86,-0.86,-0.86
334.18,3.21,4.05,3.20,4.05,-4.06,-3.97,-3.59,-0.85,-0.85,-0.85
337.52,3.21,4.05,3.21,4.05,-4.05,-3.94,-3.54,-0.84,-0.84,-0.85
340.90,3.22,4.04,3.22,4.04,-4.04,-3.90,-3.50,-0.82,-0.83,-0.83
344.30,3.22,4.03,3.22,4.04,-4.03,-3.87,-3.47,-0.81,-0.82,-0.82
347.75,3.21,4.02,3.21,4.02,-4.02,-3.84,-3.43,-0.81,-0.81,-0.82
351.23,3.20,4.01,3.20,4.00,-4.00,-3.81,-3.40,-0.80,-0.80,-0.82
354.74,3.18,3.96,3.18,3.98,-3.97,-3.78,-3.37,-0.79,-0.80,-0.79
358.28,3.15,3.94,3.15,3.95,-3.94,-3.74,-3.34,-0.79,-0.79,-0.80
361.87,3.13,3.91,3.12,3.91,-3.90,-3.71,-3.32,-0.78,-0.78,-0.79
365.49,3.10,3.87,3.09,3.87,-3.87,-3.68,-3.29,-0.77,-0.77,-0.78
369.14,3.06,3.81,3.06,3.82,-3.83,-3.64,-3.28,-0.77,-0.77,-0.76
372.83,3.03,3.78,3.03,3.78,-3.79,-3.61,-3.26,-0.76,-0.76,-0.76
376.56,2.99,3.74,2.99,3.74,-3.75,-3.57,-3.24,-0.76,-0.75,-0.76
380.33,2.97,3.71,2.96,3.71,-3.71,-3.53,-3.23,-0.74,-0.75,-0.75
384.13,2.94,3.66,2.94,3.67,-3.68,-3.50,-3.22,-0.74,-0.74,-0.73
387.97,2.92,3.64,2.92,3.64,-3.64,-3.46,-3.21,-0.73,-0.73,-0.73
391.85,2.90,3.61,2.90,3.62,-3.62,-3.43,-3.21,-0.72,-0.72,-0.72
395.77,2.89,3.59,2.89,3.59,-3.59,-3.39,-3.21,-0.71,-0.71,-0.71
399.73,2.88,3.57,2.88,3.57,-3.57,-3.35,-3.20,-0.70,-0.70,-0.70
403.72,2.87,3.53,2.87,3.55,-3.55,-3.31,-3.20,-0.68,-0.68,-0.67
407.76,2.86,3.53,2.86,3.53,-3.53,-3.28,-3.20,-0.67,-0.67,-0.68
411.84,2.85,3.51,2.85,3.51,-3.50,-3.24,-3.21,-0.65,-0.65,-0.67
415.96,2.84,3.48,2.83,3.49,-3.47,-3.20,-3.21,-0.63,-0.64,-0.65
420.12,2.81,3.45,2.81,3.45,-3.44,-3.16,-3.22,-0.63,-0.63,-0.65
424.32,2.78,3.41,2.78,3.41,-3.40,-3.13,-3.22,-0.63,-0.63,-0.64
428.56,2.74,3.35,2.74,3.36,-3.37,-3.09,-3.23,-0.63,-0.62,-0.62
432.85,2.71,3.31,2.70,3.32,-3.33,-3.05,-3.23,-0.62,-0.62,-0.61
437.18,2.67,3.28,2.67,3.28,-3.29,-3.01,-3.24,-0.62,-0.61,-0.62
441.55,2.64,3.24,2.64,3.25,-3.25,-2.97,-3.24,-0.61,-0.61,-0.61
445.96,2.62,3.21,2.61,3.21,-3.21,-2.94,-3.25,-0.59,-0.60,-0.60
450.42,2.59,3.17,2.59,3.18,-3.18,-2.90,-3.25,-0.59,-0.59,-0.59
454.93,2.57,3.14,2.57,3.15,-3.15,-2.86,-3.25,-0.58,-0.58,-0.58
459.48,2.56,3.12,2.56,3.12,-3.12,-2.82,-3.25,-0.57,-0.57,-0.57
464.07,2.55,3.09,2.55,3.10,-3.10,-2.78,-3.25,-0.55,-0.55,-0.55
468.71,2.54,3.07,2.54,3.07,-3.08,-2.75,-3.24,-0.54,-0.54,-0.54
473.40,2.52,3.05,2.52,3.05,-3.05,-2.71,-3.24,-0.53,-0.53,-0.54
478.13,2.51,3.03,2.51,3.03,-3.02,-2.67,-3.23,-0.52,-0.52,-0.53
482.91,2.49,3.00,2.49,3.00,-2.99,-2.63,-3.21,-0.51,-0.51,-0.52
487.74,2.47,2.97,2.46,2.97,-2.96,-2.60,-3.20,-0.49,-0.50,-0.51
492.62,2.43,2.92,2.43,2.93,-2.93,-2.56,-3.18,-0.50,-0.50,-0.50
497.55,2.40,2.88,2.40,2.88,-2.89,-2.52,-3.16,-0.49,-0.49,-0.49
502.52,2.37,2.84,2.37,2.84,-2.85,-2.48,-3.13,-0.48,-0.48,-0.48
507.55,2.35,2.80,2.34,2.80,-2.80,-2.45,-3.11,-0.46,-0.46,-0.46
512.62,2.32,2.76,2.32,2.76,-2.76,-2.41,-3.07,-0.44,-0.44,-0.45
517.75,2.29,2.71,2.29,2.72,-2.72,-2.37,-3.04,-0.43,-0.43,-0.43
522.93,2.26,2.67,2.26,2.67,-2.67,-2.34,-3.00,-0.42,-0.42,-0.42
528.16,2.23,2.63,2.23,2.63,-2.63,-2.30,-2.96,-0.40,-0.40,-0.41
533.44,2.20,2.59,2.20,2.59,-2.59,-2.26,-2.91,-0.39,-0.39,-0.40
