frequency,raw,error,smoothed,error_smoothed,equalization,parametric_eq,fixed_band_eq,equalized_raw,equalized_smoothed,target
20.00,-14.12,-11.85,-14.12,-11.85,11.85,12.31,4.51,-2.26,-2.26,-2.26
20.20,-14.01,-11.83,-14.01,-11.83,11.83,12.24,4.63,-2.17,-2.17,-2.17
20.40,-13.90,-11.80,-13.90,-11.80,11.80,12.17,4.75,-2.09,-2.09,-2.09
20.61,-13.79,-11.76,-13.79,-11.77,11.77,12.10,4.87,-2.01,-2.01,-2.03
20.81,-13.68,-11.74,-13.68,-11.74,11.74,12.02,5.00,-1.94,-1.94,-1.93
21.02,-13.57,-11.71,-13.57,-11.71,11.70,11.95,5.13,-1.87,-1.87,-1.85
21.23,-13.46,-11.66,-13.46,-11.66,11.66,11.88,5.26,-1.80,-1.80,-1.79
21.44,-13.34,-11.61,-13.35,-11.61,11.61,11.80,5.40,-1.74,-1.74,-1.73
21.66,-13.24,-11.55,-13.24,-11.55,11.55,11.73,5.54,-1.68,-1.68,-1.68
21.87,-13.12,-11.49,-13.13,-11.49,11.50,11.66,5.68,-1.63,-1.63,-1.63
22.09,-13.01,-11.43,-13.02,-11.43,11.43,11.58,5.83,-1.58,-1.58,-1.58
22.31,-12.90,-11.37,-12.90,-11.37,11.37,11.51,5.98,-1.54,-1.54,-1.53
22.54,-12.80,-11.30,-12.80,-11.30,11.30,11.44,6.14,-1.50,-1.50,-1.49
22.76,-12.69,-11.23,-12.69,-11.23,11.23,11.36,6.30,-1.45,-1.46,-1.45
22.99,-12.59,-11.16,-12.58,-11.16,11.16,11.29,6.46,-1.42,-1.42,-1.42
23.22,-12.48,-11.09,-12.48,-11.09,11.10,11.21,6.63,-1.38,-1.38,-1.38
23.45,-12.37,-11.02,-12.37,-11.02,11.03,11.14,6.80,-1.34,-1.34,-1.34
23.69,-12.26,-10.95,-12.26,-10.95,10.96,11.07,6.97,-1.30,-1.30,-1.30
23.92,-12.14,-10.88,-12.15,-10.89,10.89,10.99,7.15,-1.26,-1.26,-1.26
24.16,-12.05,-10.83,-12.04,-10.82,10.81,10.92,7.33,-1.23,-1.23,-1.21
24.40,-11.93,-10.75,-11.94,-10.75,10.74,10.84,7.52,-1.19,-1.19,-1.18
24.65,-11.83,-10.66,-11.83,-10.67,10.67,10.77,7.71,-1.16,-1.16,-1.16
24.89,-11.72,-10.59,-11.72,-10.59,10.60,10.70,7.90,-1.13,-1.12,-1.13
25.14,-11.61,-10.52,-11.61,-10.52,10.52,10.62,8.10,-1.09,-1.09,-1.09
25.39,-11.50,-10.44,-11.51,-10.45,10.45,10.55,8.29,-1.06,-1.06,-1.06
25.65,-11.41,-10.38,-11.40,-10.37,10.37,10.48,8.49,-1.04,-1.03,-1.02
25.91,-11.30,-10.29,-11.30,-10.30,10.30,10.40,8.69,-1.00,-1.00,-1.00
26.16,-11.18,-10.21,-11.19,-10.22,10.22,10.33,8.90,-0.96,-0.97,-0.97
26.43,-11.09,-10.15,-11.09,-10.15,10.15,10.26,9.10,-0.94,-0.94,-0.93
26.69,-10.99,-10.08,-10.99,-10.08,10.08,10.18,9.30,-0.91,-0.91,-0.90
26.96,-10.89,-10.01,-10.88,-10.01,10.01,10.11,9.50,-0.88,-0.88,-0.87
27.23,-10.78,-9.93,-10.78,-9.93,9.93,10.04,9.70,-0.85,-0.85,-0.84
27.50,-10.68,-9.86,-10.68,-9.86,9.86,9.96,9.89,-0.82,-0.82,-0.81
27.77,-10.57,-9.78,-10.57,-9.79,9.79,9.89,10.08,-0.79,-0.79,-0.79
28.05,-10.48,-9.72,-10.48,-9.71,9.72,9.82,10.27,-0.76,-0.76,-0.75
28.33,-10.38,-9.64,-10.38,-9.64,9.65,9.75,10.44,-0.73,-0.73,-0.73
28.62,-10.28,-9.57,-10.28,-9.58,9.58,9.67,10.61,-0.70,-0.70,-0.70
28.90,-10.18,-9.51,-10.18,-9.51,9.51,9.60,10.76,-0.67,-0.67,-0.66
29.19,-10.09,-9.44,-10.08,-9.45,9.44,9.53,10.91,-0.64,-0.64,-0.64
29.48,-9.99,-9.39,-9.98,-9.38,9.38,9.46,11.03,-0.61,-0.61,-0.59
29.78,-9.89,-9.30,-9.89,-9.31,9.31,9.39,11.15,-0.57,-0.58,-0.58
30.08,-9.80,-9.24,-9.80,-9.25,9.25,9.31,11.24,-0.54,-0.54,-0.55
30.38,-9.72,-9.19,-9.71,-9.19,9.20,9.24,11.32,-0.52,-0.52,-0.52
30.68,-9.64,-9.14,-9.64,-9.14,9.14,9.17,11.37,-0.50,-0.50,-0.49
30.99,-9.56,-9.08,-9.56,-9.09,9.08,9.10,11.41,-0.47,-0.48,-0.47
31.30,-9.49,-9.03,-9.48,-9.03,9.03,9.03,11.43,-0.46,-0.45,-0.45
31.61,-9.41,-8.98,-9.41,-8.98,8.98,8.96,11.42,-0.43,-0.43,-0.42
31.93,-9.33,-8.92,-9.33,-8.92,8.92,8.89,11.40,-0.40,-0.40,-0.40
32.24,-9.25,-8.86,-9.25,-8.87,8.87,8.82,11.35,-0.38,-0.38,-0.38
32.57,-9.17,-8.81,-9.17,-8.81,8.81,8.75,11.29,-0.35,-0.35,-0.35
32.89,-9.10,-8.76,-9.09,-8.76,8.76,8.68,11.21,-0.34,-0.33,-0.33
33.22,-9.02,-8.70,-9.02,-8.70,8.70,8.61,11.11,-0.31,-0.32,-0.31
33.55,-8.95,-8.65,-8.94,-8.65,8.65,8.55,11.00,-0.30,-0.30,-0.29
33.89,-8.87,-8.58,-8.87,-8.59,8.59,8.48,10.87,-0.28,-0.28,-0.28
34.23,-8.80,-8.53,-8.80,-8.53,8.53,8.41,10.74,-0.26,-0.26,-0.26
34.57,-8.73,-8.47,-8.73,-8.47,8.47,8.34,10.59,-0.25,-0.25,-0.25
34.92,-8.66,-8.41,-8.66,-8.42,8.41,8.28,10.44,-0.24,-0.24,-0.24
35.27,-8.59,-8.36,-8.59,-8.35,8.35,8.21,10.28,-0.24,-0.24,-0.22
35.62,-8.52,-8.28,-8.52,-8.29,8.29,8.14,10.11,-0.23,-0.23,-0.23
35.97,-8.45,-8.22,-8.44,-8.22,8.22,8.08,9.95,-0.22,-0.22,-0.22
36.33,-8.37,-8.16,-8.37,-8.15,8.15,8.01,9.77,-0.21,-0.21,-0.20
36.70,-8.30,-8.08,-8.30,-8.09,8.09,7.94,9.60,-0.21,-0.21,-0.21
37.06,-8.23,-8.01,-8.23,-8.01,8.02,7.88,9.43,-0.21,-0.21,-0.21
37.43,-8.16,-7.94,-8.16,-7.94,7.94,7.82,9.26,-0.21,-0.21,-0.21
37.81,-8.09,-7.87,-8.08,-7.87,7.87,7.75,9.08,-0.22,-0.21,-0.21
38.19,-8.01,-7.79,-8.01,-7.80,7.80,7.69,8.92,-0.21,-0.21,-0.21
38.57,-7.94,-7.72,-7.94,-7.72,7.72,7.63,8.75,-0.22,-0.22,-0.21
38.95,-7.87,-7.65,-7.86,-7.65,7.64,7.56,8.58,-0.22,-0.22,-0.21
39.34,-7.80,-7.56,-7.80,-7.57,7.57,7.50,8.42,-0.23,-0.23,-0.23
39.74,-7.73,-7.49,-7.73,-7.49,7.49,7.44,8.27,-0.23,-0.23,-0.23
40.14,-7.66,-7.41,-7.65,-7.41,7.41,7.38,8.11,-0.24,-0.24,-0.24
40.54,-7.58,-7.33,-7.58,-7.33,7.34,7.32,7.96,-0.24,-0.24,-0.24
40.94,-7.51,-7.25,-7.51,-7.26,7.26,7.26,7.82,-0.25,-0.25,-0.25
41.35,-7.44,-7.18,-7.44,-7.18,7.18,7.20,7.68,-0.26,-0.26,-0.25
41.76,-7.37,-7.10,-7.36,-7.10,7.09,7.14,7.54,-0.27,-0.27,-0.26
42.18,-7.29,-7.01,-7.29,-7.01,7.01,7.08,7.41,-0.27,-0.27,-0.27
42.60,-7.21,-6.92,-7.21,-6.93,6.93,7.03,7.28,-0.28,-0.28,-0.28
43.03,-7.13,-6.84,-7.13,-6.84,6.84,6.97,7.16,-0.29,-0.29,-0.28
43.46,-7.06,-6.76,-7.06,-6.76,6.75,6.91,7.04,-0.30,-0.30,-0.29
43.90,-6.99,-6.67,-6.98,-6.67,6.67,6.86,6.93,-0.32,-0.31,-0.31
44.33,-6.91,-6.57,-6.91,-6.58,6.58,6.80,6.82,-0.32,-0.33,-0.33
44.78,-6.84,-6.49,-6.84,-6.49,6.50,6.75,6.72,-0.34,-0.34,-0.34
45.23,-6.77,-6.41,-6.77,-6.41,6.42,6.70,6.62,-0.35,-0.35,-0.35
45.68,-6.70,-6.33,-6.70,-6.33,6.33,6.65,6.53,-0.36,-0.36,-0.36
46.13,-6.63,-6.25,-6.63,-6.26,6.25,6.59,6.44,-0.37,-0.37,-0.37
46.60,-6.56,-6.18,-6.56,-6.18,6.18,6.54,6.35,-0.38,-0.38,-0.37
47.06,-6.49,-6.10,-6.49,-6.10,6.10,6.50,6.27,-0.39,-0.39,-0.38
47.53,-6.42,-6.02,-6.42,-6.03,6.02,6.45,6.19,-0.39,-0.40,-0.39
48.01,-6.35,-5.95,-6.35,-5.95,5.95,6.40,6.12,-0.40,-0.40,-0.39
48.49,-6.29,-5.88,-6.28,-5.88,5.87,6.35,6.05,-0.41,-0.41,-0.40
48.97,-6.22,-5.80,-6.22,-5.80,5.81,6.31,5.98,-0.41,-0.41,-0.41
49.46,-6.17,-5.73,-6.16,-5.73,5.74,6.26,5.92,-0.42,-0.42,-0.43
49.96,-6.11,-5.66,-6.11,-5.67,5.68,6.22,5.87,-0.42,-0.43,-0.44
50.46,-6.07,-5.63,-6.06,-5.62,5.63,6.18,5.81,-0.44,-0.43,-0.43
50.96,-6.02,-5.58,-6.02,-5.58,5.58,6.14,5.76,-0.43,-0.44,-0.43
51.47,-5.99,-5.54,-5.98,-5.54,5.54,6.10,5.71,-0.45,-0.44,-0.44
51.99,-5.95,-5.50,-5.95,-5.50,5.50,6.06,5.67,-0.44,-0.45,-0.44
52.51,-5.92,-5.47,-5.92,-5.47,5.47,6.02,5.63,-0.45,-0.45,-0.44
53.03,-5.89,-5.44,-5.88,-5.44,5.44,5.98,5.59,-0.45,-0.45,-0.44
53.56,-5.86,-5.41,-5.86,-5.41,5.41,5.95,5.55,-0.45,-0.45,-0.44
54.10,-5.84,-5.38,-5.83,-5.38,5.38,5.91,5.52,-0.45,-0.45,-0.45
54.64,-5.82,-5.35,-5.82,-5.35,5.36,5.88,5.49,-0.46,-0.46,-0.46
55.18,-5.81,-5.33,-5.81,-5.33,5.34,5.85,5.46,-0.47,-0.47,-0.47
55.74,-5.81,-5.31,-5.80,-5.32,5.32,5.82,5.43,-0.49,-0.49,-0.49
56.29,-5.81,-5.31,-5.80,-5.30,5.30,5.79,5.41,-0.50,-0.50,-0.49
56.86,-5.81,-5.29,-5.81,-5.29,5.29,5.76,5.38,-0.51,-0.51,-0.51
57.42,-5.82,-5.28,-5.82,-5.29,5.29,5.74,5.36,-0.53,-0.53,-0.53
58.00,-5.83,-5.28,-5.83,-5.28,5.29,5.71,5.34,-0.54,-0.54,-0.54
58.58,-5.85,-5.28,-5.85,-5.29,5.29,5.69,5.32,-0.56,-0.56,-0.56
59.16,-5.87,-5.29,-5.87,-5.29,5.29,5.67,5.30,-0.58,-0.58,-0.57
59.76,-5.90,-5.30,-5.90,-5.30,5.29,5.65,5.28,-0.61,-0.60,-0.59
60.35,-5.93,-5.30,-5.93,-5.31,5.29,5.63,5.26,-0.63,-0.63,-0.62
60.96,-5.96,-5.32,-5.95,-5.31,5.30,5.62,5.24,-0.66,-0.65,-0.63
61.57,-5.99,-5.30,-5.99,-5.31,5.31,5.60,5.22,-0.68,-0.68,-0.68
62.18,-6.02,-5.30,-6.02,-5.31,5.32,5.59,5.21,-0.69,-0.70,-0.71
62.80,-6.07,-5.34,-6.06,-5.33,5.34,5.58,5.19,-0.73,-0.72,-0.72
63.43,-6.11,-5.34,-6.11,-5.35,5.36,5.57,5.17,-0.74,-0.75,-0.76
64.07,-6.17,-5.38,-6.16,-5.38,5.39,5.57,5.16,-0.77,-0.77,-0.78
64.71,-6.22,-5.42,-6.22,-5.42,5.43,5.56,5.14,-0.79,-0.80,-0.79
65.35,-6.29,-5.47,-6.28,-5.47,5.46,5.56,5.12,-0.82,-0.82,-0.81
66.01,-6.35,-5.52,-6.34,-5.52,5.50,5.55,5.11,-0.84,-0.84,-0.82
66.67,-6.40,-5.56,-6.39,-5.56,5.55,5.55,5.09,-0.85,-0.84,-0.83
67.33,-6.44,-5.59,-6.44,-5.59,5.59,5.56,5.08,-0.84,-0.84,-0.84
68.01,-6.48,-5.62,-6.48,-5.63,5.64,5.56,5.07,-0.84,-0.84,-0.85
68.69,-6.54,-5.67,-6.53,-5.67,5.68,5.57,5.06,-0.85,-0.85,-0.86
69.37,-6.59,-5.72,-6.59,-5.72,5.73,5.57,5.05,-0.86,-0.86,-0.86
70.07,-6.65,-5.77,-6.64,-5.77,5.77,5.58,5.04,-0.88,-0.87,-0.87
70.77,-6.70,-5.82,-6.70,-5.82,5.81,5.59,5.03,-0.88,-0.88,-0.87
71.48,-6.75,-5.86,-6.75,-5.86,5.86,5.60,5.02,-0.89,-0.89,-0.88
72.19,-6.80,-5.89,-6.80,-5.90,5.90,5.62,5.02,-0.90,-0.90,-0.90
72.91,-6.85,-5.94,-6.85,-5.94,5.94,5.63,5.01,-0.91,-0.91,-0.90
73.64,-6.90,-5.97,-6.89,-5.97,5.97,5.65,5.01,-0.92,-0.92,-0.92
74.38,-6.94,-6.00,-6.94,-6.00,6.00,5.67,5.02,-0.93,-0.94,-0.93
75.12,-6.99,-6.03,-6.98,-6.03,6.03,5.69,5.02,-0.96,-0.95,-0.95
75.87,-7.02,-6.05,-7.02,-6.06,6.05,5.71,5.03,-0.96,-0.97,-0.96
76.63,-7.06,-6.08,-7.05,-6.07,6.07,5.74,5.04,-0.98,-0.98,-0.97
77.40,-7.08,-6.08,-7.08,-6.09,6.09,5.76,5.05,-0.99,-0.99,-0.99
78.17,-7.11,-6.09,-7.11,-6.10,6.10,5.79,5.07,-1.00,-1.00,-1.01
78.95,-7.14,-6.12,-7.13,-6.12,6.12,5.81,5.09,-1.02,-1.02,-1.01
79.74,-7.16,-6.13,-7.16,-6.13,6.13,5.84,5.11,-1.03,-1.03,-1.02
80.54,-7.18,-6.14,-7.17,-6.14,6.14,5.87,5.13,-1.04,-1.03,-1.03
81.35,-7.19,-6.14,-7.19,-6.14,6.15,5.90,5.16,-1.04,-1.04,-1.04
82.16,-7.20,-6.14,-7.20,-6.15,6.16,5.93,5.20,-1.04,-1.04,-1.05
82.98,-7.22,-6.17,-7.22,-6.16,6.17,5.96,5.23,-1.05,-1.05,-1.04
83.81,-7.24,-6.18,-7.23,-6.17,6.17,5.98,5.27,-1.06,-1.06,-1.05
84.65,-7.24,-6.17,-7.24,-6.18,6.18,6.01,5.32,-1.06,-1.06,-1.06
85.50,-7.24,-6.18,-7.24,-6.18,6.18,6.04,5.36,-1.06,-1.06,-1.05
86.35,-7.24,-6.18,-7.23,-6.17,6.17,6.07,5.42,-1.06,-1.06,-1.05
87.22,-7.23,-6.16,-7.23,-6.17,6.17,6.10,5.47,-1.06,-1.06,-1.06
88.09,-7.22,-6.15,-7.22,-6.15,6.16,6.12,5.53,-1.06,-1.06,-1.06
88.97,-7.22,-6.14,-7.22,-6.14,6.15,6.14,5.60,-1.07,-1.07,-1.07
89.86,-7.22,-6.13,-7.22,-6.13,6.13,6.17,5.66,-1.09,-1.08,-1.08
90.76,-7.22,-6.11,-7.22,-6.11,6.11,6.19,5.73,-1.10,-1.10,-1.10
91.66,-7.22,-6.09,-7.22,-6.09,6.09,6.20,5.81,-1.12,-1.12,-1.12
92.58,-7.22,-6.06,-7.22,-6.07,6.07,6.22,5.89,-1.15,-1.15,-1.15
93.51,-7.22,-6.04,-7.22,-6.04,6.04,6.23,5.97,-1.18,-1.18,-1.17
94.44,-7.22,-6.01,-7.22,-6.01,6.00,6.24,6.06,-1.21,-1.21,-1.20
95.39,-7.22,-5.97,-7.22,-5.97,5.96,6.24,6.15,-1.25,-1.25,-1.24
96.34,-7.22,-5.93,-7.21,-5.92,5.92,6.25,6.24,-1.30,-1.30,-1.28
97.30,-7.21,-5.86,-7.21,-5.87,5.86,6.24,6.34,-1.34,-1.35,-1.34
98.28,-7.21,-5.81,-7.20,-5.81,5.81,6.24,6.44,-1.40,-1.39,-1.39
99.26,-7.20,-5.75,-7.19,-5.75,5.75,6.23,6.54,-1.44,-1.44,-1.44
100.25,-7.19,-5.68,-7.19,-5.69,5.70,6.22,6.65,-1.49,-1.50,-1.50
101.25,-7.20,-5.63,-7.19,-5.63,5.64,6.20,6.76,-1.56,-1.56,-1.56
102.27,-7.21,-5.58,-7.20,-5.58,5.58,6.18,6.87,-1.62,-1.62,-1.62
103.29,-7.22,-5.53,-7.22,-5.54,5.53,6.16,6.98,-1.68,-1.68,-1.68
104.32,-7.24,-5.50,-7.23,-5.49,5.49,6.13,7.09,-1.75,-1.75,-1.73
105.37,-7.26,-5.45,-7.25,-5.45,5.45,6.10,7.20,-1.81,-1.80,-1.80
106.42,-7.28,-5.41,-7.28,-5.42,5.42,6.06,7.31,-1.86,-1.86,-1.86
107.48,-7.31,-5.39,-7.30,-5.38,5.40,6.02,7.42,-1.91,-1.91,-1.91
108.56,-7.34,-5.36,-7.34,-5.37,5.38,5.98,7.53,-1.96,-1.96,-1.97
109.64,-7.39,-5.35,-7.39,-5.36,5.37,5.94,7.64,-2.02,-2.02,-2.03
110.74,-7.45,-5.36,-7.44,-5.36,5.36,5.90,7.74,-2.09,-2.08,-2.08
111.85,-7.50,-5.37,-7.50,-5.37,5.36,5.85,7.83,-2.14,-2.14,-2.12
112.97,-7.56,-5.36,-7.56,-5.37,5.35,5.80,7.92,-2.20,-2.20,-2.19
114.10,-7.61,-5.37,-7.60,-5.37,5.35,5.76,8.01,-2.25,-2.25,-2.23
115.24,-7.65,-5.36,-7.64,-5.36,5.35,5.71,8.08,-2.29,-2.29,-2.28
116.39,-7.68,-5.34,-7.68,-5.35,5.35,5.66,8.15,-2.32,-2.33,-2.33
117.55,-7.72,-5.34,-7.72,-5.35,5.35,5.61,8.20,-2.36,-2.37,-2.37
118.73,-7.77,-5.35,-7.76,-5.35,5.36,5.57,8.25,-2.41,-2.41,-2.41
119.92,-7.81,-5.36,-7.81,-5.36,5.36,5.53,8.28,-2.45,-2.45,-2.44
121.12,-7.85,-5.37,-7.84,-5.37,5.37,5.49,8.30,-2.48,-2.47,-2.47
122.33,-7.88,-5.37,-7.88,-5.37,5.38,5.45,8.30,-2.50,-2.50,-2.50
123.55,-7.92,-5.38,-7.93,-5.40,5.39,5.42,8.29,-2.52,-2.54,-2.53
124.79,-7.99,-5.42,-7.98,-5.42,5.41,5.39,8.26,-2.57,-2.57,-2.56
126.03,-8.05,-5.46,-8.03,-5.44,5.44,5.37,8.22,-2.61,-2.59,-2.58
127.29,-8.08,-5.46,-8.08,-5.46,5.47,5.36,8.17,-2.61,-2.61,-2.61
128.57,-8.13,-5.47,-8.14,-5.50,5.51,5.35,8.10,-2.62,-2.64,-2.65
129.85,-8.22,-5.54,-8.22,-5.54,5.55,5.35,8.01,-2.67,-2.66,-2.67
131.15,-8.33,-5.62,-8.30,-5.59,5.60,5.36,7.91,-2.72,-2.70,-2.70
132.46,-8.39,-5.64,-8.41,-5.67,5.66,5.38,7.80,-2.73,-2.75,-2.74
133.79,-8.50,-5.73,-8.50,-5.73,5.72,5.40,7.68,-2.77,-2.78,-2.76
135.12,-8.63,-5.83,-8.60,-5.81,5.80,5.44,7.54,-2.82,-2.80,-2.79
136.48,-8.70,-5.87,-8.71,-5.89,5.89,5.49,7.39,-2.81,-2.83,-2.82
137.84,-8.84,-5.98,-8.82,-5.96,5.98,5.55,7.24,-2.85,-2.84,-2.85
139.22,-8.95,-6.04,-8.96,-6.06,6.08,5.62,7.07,-2.86,-2.88,-2.90
140.61,-9.10,-6.16,-9.11,-6.18,6.19,5.71,6.90,-2.91,-2.92,-2.93
142.02,-9.31,-6.35,-9.27,-6.31,6.30,5.81,6.73,-3.01,-2.97,-2.95
143.44,-9.42,-6.42,-9.43,-6.44,6.41,5.93,6.55,-3.00,-3.02,-2.99
144.87,-9.60,-6.56,-9.59,-6.55,6.54,6.06,6.36,-3.06,-3.05,-3.03
146.32,-9.72,-6.64,-9.73,-6.66,6.66,6.20,6.17,-3.05,-3.06,-3.07
147.78,-9.90,-6.79,-9.89,-6.79,6.79,6.37,5.98,-3.10,-3.10,-3.10
149.26,-10.05,-6.91,-10.05,-6.91,6.93,6.55,5.79,-3.12,-3.13,-3.13
150.75,-10.25,-7.06,-10.24,-7.06,7.07,6.74,5.59,-3.18,-3.17,-3.18
152.26,-10.41,-7.18,-10.41,-7.19,7.21,6.95,5.39,-3.20,-3.20,-3.22
153.78,-10.62,-7.36,-10.61,-7.35,7.36,7.18,5.20,-3.26,-3.25,-3.25
155.32,-10.79,-7.48,-10.80,-7.50,7.50,7.42,5.00,-3.28,-3.29,-3.30
156.88,-11.02,-7.68,-11.00,-7.66,7.65,7.67,4.81,-3.37,-3.35,-3.33
158.44,-11.17,-7.77,-11.19,-7.80,7.79,7.92,4.61,-3.38,-3.40,-3.39
160.03,-11.39,-7.95,-11.36,-7.93,7.92,8.18,4.42,-3.47,-3.44,-3.43
161.63,-11.52,-8.03,-11.52,-8.03,8.04,8.43,4.23,-3.48,-3.48,-3.48
163.24,-11.64,-8.11,-11.66,-8.14,8.15,8.67,4.04,-3.49,-3.52,-3.52
164.88,-11.81,-8.24,-11.78,-8.22,8.24,8.88,3.85,-3.57,-3.55,-3.56
166.53,-11.91,-8.30,-11.91,-8.30,8.30,9.06,3.66,-3.60,-3.60,-3.60
168.19,-11.99,-8.34,-12.00,-8.36,8.35,9.18,3.48,-3.64,-3.66,-3.64
169.87,-12.08,-8.39,-12.06,-8.38,8.37,9.25,3.29,-3.71,-3.70,-3.68
171.57,-12.10,-8.38,-12.09,-8.38,8.36,9.25,3.11,-3.74,-3.74,-3.71
173.29,-12.09,-8.33,-12.08,-8.33,8.32,9.17,2.93,-3.77,-3.76,-3.75
175.02,-12.03,-8.23,-12.03,-8.24,8.25,9.01,2.75,-3.78,-3.78,-3.79
176.77,-11.96,-8.13,-11.96,-8.13,8.14,8.77,2.57,-3.81,-3.82,-3.82
178.54,-11.87,-8.01,-11.87,-8.01,8.01,8.47,2.40,-3.86,-3.86,-3.85
180.32,-11.74,-7.85,-11.74,-7.85,7.84,8.11,2.23,-3.90,-3.90,-3.88
182.13,-11.59,-7.68,-11.56,-7.65,7.64,7.71,2.06,-3.95,-3.92,-3.90
183.95,-11.32,-7.39,-11.34,-7.42,7.42,7.28,1.89,-3.90,-3.93,-3.92
185.79,-11.10,-7.15,-11.10,-7.16,7.17,6.83,1.72,-3.93,-3.94,-3.94
187.65,-10.86,-6.89,-10.84,-6.88,6.90,6.37,1.55,-3.96,-3.95,-3.96
189.52,-10.58,-6.60,-10.58,-6.60,6.60,5.91,1.39,-3.97,-3.97,-3.97
191.42,-10.28,-6.28,-10.28,-6.29,6.29,5.45,1.23,-3.99,-3.99,-3.99
193.33,-9.96,-5.95,-9.96,-5.95,5.96,5.00,1.06,-4.00,-4.00,-4.00
195.27,-9.63,-5.61,-9.63,-5.61,5.61,4.56,0.90,-4.01,-4.02,-4.01
197.22,-9.29,-5.25,-9.29,-5.25,5.25,4.13,0.75,-4.03,-4.04,-4.03
199.19,-8.94,-4.88,-8.93,-4.88,4.88,3.72,0.59,-4.06,-4.05,-4.05
201.18,-8.56,-4.49,-8.55,-4.49,4.49,3.32,0.44,-4.07,-4.07,-4.06
203.19,-8.16,-4.09,-8.16,-4.09,4.08,2.94,0.29,-4.08,-4.08,-4.06
205.23,-7.75,-3.66,-7.75,-3.67,3.66,2.58,0.14,-4.09,-4.09,-4.08
207.28,-7.34,-3.25,-7.34,-3.25,3.23,2.23,-0.01,-4.10,-4.10,-4.08
209.35,-6.93,-2.82,-6.92,-2.81,2.81,1.90,-0.16,-4.12,-4.11,-4.10
211.44,-6.50,-2.37,-6.50,-2.38,2.38,1.59,-0.30,-4.11,-4.12,-4.12
213.56,-6.07,-1.93,-6.05,-1.92,1.96,1.29,-0.44,-4.11,-4.10,-4.13
215.69,-5.64,-1.50,-5.64,-1.50,1.54,1.00,-0.58,-4.10,-4.10,-4.13
217.85,-5.21,-1.05,-5.26,-1.10,1.12,0.73,-0.71,-4.09,-4.13,-4.15
220.03,-4.92,-0.75,-4.89,-0.73,0.71,0.47,-0.84,-4.21,-4.18,-4.16
222.23,-4.56,-0.37,-4.53,-0.35,0.31,0.22,-0.97,-4.25,-4.22,-4.18
224.45,-4.14,0.05,-4.13,0.06,-0.09,-0.02,-1.09,-4.22,-4.22,-4.18
226.70,-3.73,0.48,-3.73,0.47,-0.47,-0.24,-1.21,-4.20,-4.20,-4.20
228.96,-3.31,0.91,-3.35,0.86,-0.84,-0.45,-1.33,-4.15,-4.20,-4.21
231.25,-3.04,1.19,-3.00,1.23,-1.21,-0.66,-1.44,-4.24,-4.20,-4.22
233.57,-2.69,1.56,-2.67,1.57,-1.56,-0.85,-1.54,-4.24,-4.23,-4.24
235.90,-2.32,1.94,-2.35,1.90,-1.90,-1.04,-1.64,-4.21,-4.25,-4.25
238.26,-2.07,2.21,-2.05,2.23,-2.22,-1.21,-1.74,-4.29,-4.27,-4.27
240.64,-1.77,2.53,-1.78,2.51,-2.52,-1.38,-1.83,-4.29,-4.31,-4.29
243.05,-1.54,2.77,-1.52,2.79,-2.81,-1.54,-1.91,-4.34,-4.32,-4.30
245.48,-1.27,3.05,-1.25,3.07,-3.07,-1.69,-1.99,-4.34,-4.32,-4.31
247.93,-0.96,3.37,-0.99,3.33,-3.32,-1.84,-2.06,-4.28,-4.31,-4.32
250.41,-0.77,3.57,-0.75,3.58,-3.55,-1.98,-2.13,-4.32,-4.30,-4.33
252.92,-0.53,3.80,-0.54,3.79,-3.77,-2.11,-2.19,-4.30,-4.31,-4.32
255.45,-0.36,3.97,-0.36,3.96,-3.97,-2.23,-2.24,-4.33,-4.33,-4.32
258.00,-0.20,4.12,-0.18,4.13,-4.15,-2.36,-2.29,-4.35,-4.34,-4.31
260.58,-0.01,4.31,-0.01,4.30,-4.32,-2.47,-2.34,-4.32,-4.33,-4.31
263.19,0.15,4.46,0.17,4.47,-4.47,-2.58,-2.37,-4.31,-4.30,-4.30
265.82,0.34,4.64,0.32,4.61,-4.60,-2.68,-2.41,-4.26,-4.28,-4.29
268.48,0.46,4.74,0.46,4.74,-4.73,-2.78,-2.44,-4.26,-4.26,-4.27
271.16,0.57,4.83,0.59,4.85,-4.84,-2.88,-2.46,-4.27,-4.25,-4.25
273.87,0.71,4.96,0.70,4.94,-4.95,-2.97,-2.49,-4.23,-4.25,-4.24
276.61,0.81,5.03,0.81,5.04,-5.05,-3.05,-2.51,-4.23,-4.23,-4.21
279.38,0.91,5.13,0.91,5.12,-5.13,-3.14,-2.52,-4.22,-4.22,-4.21
282.17,1.00,5.20,1.01,5.20,-5.21,-3.22,-2.53,-4.21,-4.21,-4.19
284.99,1.09,5.28,1.10,5.28,-5.29,-3.29,-2.54,-4.19,-4.18,-4.18
287.84,1.20,5.37,1.19,5.36,-5.35,-3.36,-2.55,-4.15,-4.16,-4.16
290.72,1.27,5.42,1.27,5.42,-5.41,-3.43,-2.56,-4.14,-4.14,-4.14
293.63,1.33,5.47,1.34,5.46,-5.46,-3.49,-2.57,-4.13,-4.12,-4.13
296.57,1.38,5.49,1.39,5.50,-5.50,-3.55,-2.57,-4.11,-4.11,-4.10
299.53,1.43,5.53,1.43,5.53,-5.53,-3.61,-2.58,-4.09,-4.09,-4.09
302.53,1.47,5.56,1.47,5.55,-5.54,-3.67,-2.58,-4.07,-4.07,-4.08
305.55,1.50,5.56,1.50,5.56,-5.55,-3.72,-2.59,-4.04,-4.05,-4.05
308.61,1.52,5.56,1.52,5.55,-5.55,-3.77,-2.59,-4.03,-4.03,-4.03
311.69,1.53,5.54,1.53,5.53,-5.55,-3.82,-2.60,-4.01,-4.01,-4.00
314.81,1.54,5.51,1.55,5.52,-5.54,-3.86,-2.60,-3.99,-3.99,-3.96
317.96,1.55,5.51,1.56,5.51,-5.52,-3.90,-2.61,-3.97,-3.96,-3.95
321.14,1.57,5.51,1.57,5.50,-5.51,-3.94,-2.62,-3.93,-3.93,-3.93
324.35,1.58,5.50,1.58,5.49,-5.48,-3.98,-2.63,-3.90,-3.91,-3.91
327.59,1.57,5.47,1.58,5.47,-5.46,-4.02,-2.64,-3.89,-3.88,-3.89
330.87,1.56,5.44,1.57,5.44,-5.43,-4.05,-2.66,-3.87,-3.87,-3.87
334.18,1.55,5.40,1.55,5.40,-5.40,-4.08,-2.67,-3.85,-3.85,-3.84
337.52,1.53,5.36,1.54,5.36,-5.36,-4.11,-2.69,-3.83,-3.82,-3.82
340.90,1.52,5.33,1.52,5.32,-5.32,-4.14,-2.71,-3.79,-3.80,-3.80
344.30,1.49,5.27,1.49,5.27,-5.27,-4.16,-2.73,-3.77,-3.77,-3.77
347.75,1.46,5.22,1.47,5.21,-5.21,-4.19,-2.76,-3.75,-3.75,-3.75
351.23,1.43,5.16,1.43,5.15,-5.16,-4.21,-2.79,-3.73,-3.73,-3.72
354.74,1.39,5.09,1.40,5.10,-5.11,-4.23,-2.81,-3.71,-3.71,-3.69
358.28,1.36,5.05,1.37,5.04,-5.05,-4.25,-2.85,-3.69,-3.68,-3.68
361.87,1.34,5.00,1.34,4.99,-4.99,-4.26,-2.88,-3.65,-3.65,-3.65
365.49,1.31,4.94,1.31,4.95,-4.94,-4.28,-2.92,-3.62,-3.62,-3.62
369.14,1.28,4.90,1.29,4.89,-4.88,-4.29,-2.95,-3.60,-3.60,-3.61
372.83,1.25,4.84,1.25,4.83,-4.83,-4.30,-2.99,-3.58,-3.58,-3.58
376.56,1.21,4.78,1.21,4.77,-4.78,-4.31,-3.04,-3.57,-3.57,-3.56
380.33,1.17,4.71,1.18,4.72,-4.73,-4.32,-3.08,-3.56,-3.55,-3.53
384.13,1.14,4.67,1.15,4.67,-4.68,-4.33,-3.13,-3.54,-3.53,-3.52
387.97,1.13,4.64,1.13,4.63,-4.63,-4.34,-3.18,-3.50,-3.50,-3.50
391.85,1.11,4.61,1.11,4.59,-4.58,-4.34,-3.23,-3.47,-3.48,-3.49
395.77,1.07,4.54,1.08,4.55,-4.53,-4.35,-3.28,-3.46,-3.46,-3.46
399.73,1.03,4.49,1.04,4.50,-4.48,-4.35,-3.34,-3.45,-3.45,-3.45
403.72,0.99,4.45,0.99,4.44,-4.43,-4.35,-3.39,-3.44,-3.44,-3.45
407.76,0.94,4.39,0.94,4.39,-4.38,-4.35,-3.45,-3.44,-3.44,-3.44
411.84,0.88,4.32,0.89,4.33,-4.33,-4.35,-3.51,-3.45,-3.44,-3.43
415.96,0.83,4.28,0.83,4.27,-4.28,-4.35,-3.56,-3.45,-3.45,-3.44
420.12,0.77,4.22,0.78,4.22,-4.24,-4.35,-3.62,-3.47,-3.46,-3.44
424.32,0.74,4.19,0.74,4.19,-4.20,-4.34,-3.68,-3.46,-3.46,-3.44
428.56,0.71,4.16,0.71,4.16,-4.16,-4.34,-3.74,-3.45,-3.45,-3.44
