frequency,raw,error,smoothed,error_smoothed,equalization,parametric_eq,fixed_band_eq,equalized_raw,equalized_smoothed,target
20.00,13.67,-0.09,13.67,-0.10,0.10,-0.61,-0.56,13.77,13.77,13.77
20.20,13.71,-0.04,13.71,-0.05,0.05,-0.62,-0.57,13.76,13.75,13.75
20.40,13.74,-0.00,13.75,0.00,-0.00,-0.63,-0.59,13.74,13.74,13.74
20.61,13.78,0.05,13.78,0.05,-0.05,-0.64,-0.60,13.73,13.73,13.73
20.81,13.82,0.11,13.82,0.10,-0.10,-0.65,-0.62,13.72,13.72,13.71
21.02,13.85,0.15,13.85,0.15,-0.15,-0.66,-0.63,13.70,13.71,13.70
21.23,13.89,0.20,13.89,0.19,-0.19,-0.68,-0.65,13.70,13.70,13.69
21.44,13.93,0.23,13.93,0.24,-0.24,-0.69,-0.66,13.69,13.69,13.70
21.66,13.96,0.28,13.96,0.28,-0.28,-0.70,-0.68,13.68,13.68,13.68
21.87,14.00,0.32,14.00,0.33,-0.33,-0.71,-0.70,13.67,13.67,13.68
22.09,14.03,0.37,14.03,0.37,-0.37,-0.73,-0.71,13.66,13.66,13.66
22.31,14.07,0.42,14.07,0.41,-0.41,-0.74,-0.73,13.66,13.65,13.66
22.54,14.10,0.46,14.10,0.46,-0.46,-0.75,-0.75,13.64,13.65,13.64
22.76,14.13,0.49,14.14,0.50,-0.50,-0.77,-0.77,13.63,13.64,13.64
22.99,14.17,0.54,14.17,0.54,-0.54,-0.78,-0.79,13.63,13.63,13.63
23.22,14.20,0.58,14.20,0.57,-0.57,-0.79,-0.81,13.63,13.63,13.62
23.45,14.24,0.61,14.24,0.61,-0.61,-0.81,-0.83,13.63,13.62,13.63
23.69,14.27,0.65,14.27,0.65,-0.65,-0.82,-0.85,13.62,13.62,13.62
23.92,14.31,0.70,14.31,0.69,-0.69,-0.84,-0.87,13.62,13.61,13.61
24.16,14.34,0.73,14.34,0.73,-0.73,-0.85,-0.89,13.61,13.61,13.62
24.40,14.37,0.76,14.37,0.76,-0.76,-0.87,-0.91,13.61,13.61,13.61
24.65,14.40,0.79,14.41,0.80,-0.80,-0.88,-0.93,13.60,13.61,13.61
24.89,14.44,0.83,14.44,0.83,-0.83,-0.90,-0.95,13.61,13.60,13.61
25.14,14.47,0.87,14.47,0.87,-0.87,-0.92,-0.98,13.60,13.60,13.60
25.39,14.50,0.90,14.50,0.90,-0.90,-0.93,-1.00,13.60,13.60,13.60
25.65,14.53,0.94,14.54,0.94,-0.94,-0.95,-1.02,13.59,13.60,13.59
25.91,14.57,0.98,14.57,0.97,-0.97,-0.97,-1.05,13.60,13.60,13.59
26.16,14.60,1.00,14.60,1.00,-1.00,-0.98,-1.07,13.60,13.60,13.60
26.43,14.63,1.03,14.63,1.03,-1.03,-1.00,-1.09,13.60,13.60,13.60
26.69,14.66,1.06,14.66,1.06,-1.06,-1.02,-1.12,13.60,13.60,13.60
26.96,14.69,1.10,14.69,1.10,-1.10,-1.04,-1.14,13.60,13.60,13.59
27.23,14.72,1.13,14.72,1.12,-1.12,-1.05,-1.16,13.60,13.60,13.59
27.50,14.75,1.16,14.75,1.15,-1.15,-1.07,-1.19,13.60,13.60,13.59
27.77,14.78,1.18,14.78,1.18,-1.18,-1.09,-1.21,13.60,13.60,13.60
28.05,14.80,1.21,14.81,1.21,-1.21,-1.11,-1.23,13.59,13.60,13.59
28.33,14.83,1.23,14.83,1.24,-1.24,-1.13,-1.26,13.60,13.60,13.60
28.62,14.86,1.26,14.86,1.26,-1.26,-1.15,-1.28,13.60,13.60,13.60
28.90,14.88,1.28,14.88,1.29,-1.29,-1.17,-1.30,13.59,13.60,13.61
29.19,14.91,1.31,14.91,1.31,-1.31,-1.19,-1.32,13.60,13.60,13.60
29.48,14.93,1.33,14.93,1.34,-1.34,-1.21,-1.34,13.60,13.59,13.60
29.78,14.96,1.36,14.95,1.36,-1.36,-1.23,-1.37,13.60,13.59,13.60
30.08,14.98,1.39,14.97,1.38,-1.38,-1.25,-1.39,13.60,13.59,13.59
30.38,15.00,1.42,14.99,1.41,-1.41,-1.27,-1.41,13.59,13.58,13.58
30.68,15.01,1.44,15.01,1.43,-1.43,-1.29,-1.43,13.58,13.58,13.58
30.99,15.02,1.45,15.03,1.45,-1.45,-1.32,-1.44,13.57,13.57,13.57
31.30,15.03,1.46,15.04,1.48,-1.48,-1.34,-1.46,13.56,13.57,13.57
31.61,15.05,1.49,15.06,1.50,-1.50,-1.36,-1.48,13.55,13.56,13.56
31.93,15.07,1.53,15.07,1.52,-1.52,-1.38,-1.50,13.55,13.55,13.54
32.24,15.08,1.54,15.09,1.54,-1.54,-1.41,-1.52,13.54,13.54,13.54
32.57,15.10,1.57,15.10,1.57,-1.57,-1.43,-1.53,13.53,13.53,13.53
32.89,15.11,1.59,15.11,1.59,-1.59,-1.45,-1.55,13.52,13.53,13.52
33.22,15.13,1.61,15.13,1.61,-1.61,-1.48,-1.56,13.52,13.52,13.52
33.55,15.14,1.63,15.14,1.63,-1.63,-1.50,-1.58,13.51,13.51,13.51
33.89,15.16,1.66,15.16,1.65,-1.65,-1.53,-1.60,13.51,13.50,13.50
34.23,15.17,1.69,15.17,1.68,-1.68,-1.55,-1.61,13.49,13.49,13.48
34.57,15.18,1.70,15.18,1.70,-1.70,-1.58,-1.63,13.48,13.48,13.48
34.92,15.19,1.73,15.19,1.72,-1.72,-1.60,-1.64,13.47,13.47,13.46
35.27,15.20,1.73,15.20,1.75,-1.75,-1.63,-1.66,13.45,13.46,13.47
35.62,15.21,1.76,15.21,1.77,-1.77,-1.66,-1.68,13.44,13.45,13.45
35.97,15.23,1.79,15.22,1.79,-1.79,-1.68,-1.69,13.44,13.43,13.44
36.33,15.24,1.82,15.23,1.82,-1.82,-1.71,-1.71,13.42,13.42,13.42
36.70,15.24,1.84,15.24,1.84,-1.84,-1.74,-1.73,13.40,13.40,13.40
37.06,15.25,1.87,15.25,1.87,-1.87,-1.76,-1.75,13.38,13.38,13.38
37.43,15.25,1.89,15.25,1.89,-1.89,-1.79,-1.77,13.36,13.36,13.36
37.81,15.26,1.92,15.26,1.92,-1.92,-1.82,-1.79,13.34,13.34,13.34
38.19,15.26,1.95,15.27,1.95,-1.95,-1.85,-1.81,13.31,13.32,13.31
38.57,15.27,1.98,15.27,1.98,-1.98,-1.88,-1.83,13.29,13.29,13.29
38.95,15.28,2.01,15.28,2.01,-2.01,-1.91,-1.86,13.27,13.27,13.27
39.34,15.28,2.04,15.29,2.04,-2.04,-1.94,-1.88,13.24,13.25,13.24
39.74,15.29,2.08,15.29,2.07,-2.07,-1.97,-1.91,13.22,13.22,13.22
40.14,15.29,2.10,15.29,2.10,-2.10,-2.00,-1.94,13.19,13.20,13.19
40.54,15.30,2.13,15.30,2.12,-2.12,-2.03,-1.97,13.18,13.17,13.17
40.94,15.30,2.16,15.30,2.15,-2.15,-2.06,-2.00,13.15,13.15,13.14
41.35,15.30,2.18,15.30,2.18,-2.18,-2.09,-2.03,13.12,13.12,13.12
41.76,15.31,2.22,15.30,2.20,-2.20,-2.12,-2.07,13.11,13.10,13.09
42.18,15.31,2.23,15.30,2.23,-2.23,-2.15,-2.10,13.08,13.07,13.08
42.60,15.30,2.26,15.30,2.25,-2.25,-2.19,-2.14,13.05,13.04,13.04
43.03,15.30,2.28,15.30,2.28,-2.28,-2.22,-2.18,13.02,13.02,13.02
43.46,15.29,2.31,15.29,2.30,-2.30,-2.25,-2.22,12.99,12.99,12.99
43.90,15.28,2.32,15.29,2.33,-2.33,-2.29,-2.26,12.95,12.96,12.96
44.33,15.28,2.36,15.29,2.36,-2.36,-2.32,-2.30,12.92,12.93,12.93
44.78,15.28,2.38,15.29,2.39,-2.39,-2.35,-2.35,12.89,12.90,12.90
45.23,15.28,2.41,15.28,2.42,-2.42,-2.39,-2.40,12.86,12.86,12.87
45.68,15.28,2.45,15.28,2.46,-2.46,-2.42,-2.44,12.82,12.83,12.83
46.13,15.28,2.49,15.28,2.49,-2.49,-2.46,-2.49,12.79,12.79,12.79
46.60,15.28,2.53,15.28,2.53,-2.53,-2.49,-2.55,12.75,12.75,12.75
47.06,15.28,2.57,15.28,2.57,-2.57,-2.53,-2.60,12.71,12.71,12.71
47.53,15.28,2.61,15.28,2.61,-2.61,-2.56,-2.66,12.67,12.66,12.67
48.01,15.28,2.67,15.28,2.66,-2.66,-2.60,-2.71,12.62,12.62,12.61
48.49,15.28,2.71,15.28,2.71,-2.71,-2.64,-2.77,12.58,12.57,12.57
48.97,15.28,2.76,15.28,2.75,-2.75,-2.67,-2.83,12.53,12.53,12.52
49.46,15.28,2.80,15.28,2.80,-2.80,-2.71,-2.89,12.48,12.48,12.48
49.96,15.28,2.86,15.28,2.85,-2.85,-2.75,-2.95,12.43,12.43,12.42
50.46,15.28,2.90,15.29,2.90,-2.90,-2.79,-3.02,12.38,12.39,12.38
50.96,15.28,2.94,15.29,2.95,-2.95,-2.83,-3.08,12.33,12.34,12.34
51.47,15.28,2.99,15.29,3.00,-3.00,-2.86,-3.14,12.28,12.29,12.29
51.99,15.29,3.05,15.29,3.05,-3.05,-2.90,-3.21,12.24,12.25,12.24
52.51,15.30,3.10,15.30,3.10,-3.10,-2.94,-3.27,12.20,12.20,12.20
53.03,15.30,3.14,15.30,3.15,-3.15,-2.98,-3.34,12.16,12.15,12.16
53.56,15.30,3.19,15.30,3.19,-3.19,-3.02,-3.40,12.11,12.11,12.12
54.10,15.30,3.25,15.30,3.24,-3.24,-3.06,-3.47,12.06,12.06,12.06
54.64,15.30,3.29,15.30,3.28,-3.28,-3.10,-3.53,12.02,12.02,12.02
55.18,15.30,3.34,15.29,3.32,-3.32,-3.14,-3.60,11.98,11.97,11.96
55.74,15.29,3.38,15.29,3.36,-3.36,-3.18,-3.66,11.93,11.93,11.91
56.29,15.28,3.40,15.28,3.40,-3.40,-3.23,-3.72,11.88,11.88,11.88
56.86,15.27,3.44,15.27,3.44,-3.44,-3.27,-3.78,11.83,11.84,11.83
57.42,15.26,3.48,15.26,3.47,-3.47,-3.31,-3.83,11.79,11.79,11.78
58.00,15.25,3.52,15.25,3.51,-3.51,-3.35,-3.89,11.74,11.74,11.73
58.58,15.23,3.54,15.23,3.54,-3.54,-3.39,-3.94,11.69,11.69,11.69
59.16,15.22,3.57,15.21,3.58,-3.58,-3.44,-3.99,11.64,11.63,11.65
59.76,15.20,3.60,15.20,3.62,-3.62,-3.48,-4.03,11.59,11.58,11.60
60.35,15.18,3.64,15.18,3.65,-3.65,-3.52,-4.08,11.53,11.53,11.54
60.96,15.16,3.68,15.16,3.69,-3.69,-3.57,-4.12,11.47,11.47,11.48
61.57,15.14,3.73,15.14,3.73,-3.73,-3.61,-4.15,11.41,11.41,11.41
62.18,15.11,3.77,15.12,3.77,-3.77,-3.65,-4.18,11.34,11.35,11.34
62.80,15.10,3.82,15.10,3.81,-3.81,-3.70,-4.21,11.29,11.29,11.28
63.43,15.07,3.86,15.08,3.86,-3.86,-3.74,-4.24,11.21,11.23,11.21
64.07,15.05,3.90,15.06,3.90,-3.90,-3.79,-4.26,11.15,11.16,11.15
64.71,15.04,3.95,15.05,3.95,-3.95,-3.83,-4.28,11.09,11.10,11.09
65.35,15.03,4.00,15.03,3.99,-3.99,-3.87,-4.29,11.04,11.04,11.03
66.01,15.02,4.05,15.01,4.04,-4.04,-3.92,-4.31,10.98,10.97,10.97
66.67,15.00,4.08,15.00,4.09,-4.09,-3.97,-4.32,10.91,10.91,10.92
67.33,14.98,4.14,14.98,4.14,-4.14,-4.01,-4.32,10.84,10.84,10.84
68.01,14.97,4.18,14.97,4.19,-4.19,-4.06,-4.33,10.78,10.78,10.79
68.69,14.95,4.23,14.95,4.24,-4.24,-4.10,-4.33,10.71,10.72,10.72
69.37,14.93,4.27,14.94,4.29,-4.29,-4.15,-4.34,10.64,10.65,10.66
70.07,14.92,4.33,14.92,4.34,-4.34,-4.19,-4.34,10.58,10.58,10.59
70.77,14.90,4.38,14.91,4.39,-4.39,-4.24,-4.34,10.51,10.52,10.52
71.48,14.89,4.43,14.89,4.44,-4.44,-4.29,-4.34,10.45,10.45,10.46
72.19,14.88,4.50,14.87,4.49,-4.49,-4.33,-4.33,10.39,10.38,10.38
72.91,14.86,4.55,14.85,4.54,-4.54,-4.38,-4.33,10.33,10.32,10.31
73.64,14.84,4.60,14.83,4.58,-4.58,-4.43,-4.33,10.26,10.25,10.24
74.38,14.81,4.64,14.81,4.63,-4.63,-4.47,-4.33,10.18,10.18,10.17
75.12,14.79,4.67,14.79,4.67,-4.67,-4.52,-4.34,10.12,10.12,10.12
75.87,14.76,4.71,14.77,4.72,-4.72,-4.57,-4.34,10.04,10.06,10.06
76.63,14.75,4.77,14.75,4.76,-4.76,-4.61,-4.34,9.99,9.99,9.98
77.40,14.73,4.80,14.73,4.80,-4.80,-4.66,-4.35,9.93,9.93,9.93
78.17,14.71,4.85,14.71,4.84,-4.84,-4.71,-4.36,9.87,9.87,9.86
78.95,14.69,4.88,14.68,4.88,-4.88,-4.75,-4.37,9.81,9.81,9.81
79.74,14.66,4.91,14.66,4.91,-4.91,-4.80,-4.38,9.75,9.74,9.75
80.54,14.63,4.94,14.64,4.95,-4.95,-4.85,-4.40,9.68,9.68,9.69
81.35,14.61,4.99,14.61,4.99,-4.99,-4.90,-4.42,9.62,9.62,9.62
82.16,14.59,5.02,14.59,5.03,-5.03,-4.94,-4.44,9.56,9.56,9.57
82.98,14.56,5.06,14.57,5.07,-5.07,-4.99,-4.47,9.49,9.50,9.50
83.81,14.54,5.10,14.55,5.12,-5.12,-5.04,-4.49,9.42,9.43,9.44
84.65,14.52,5.16,14.53,5.16,-5.16,-5.09,-4.52,9.36,9.37,9.36
85.50,14.50,5.20,14.50,5.20,-5.20,-5.13,-4.56,9.30,9.30,9.30
86.35,14.48,5.25,14.48,5.24,-5.24,-5.18,-4.60,9.24,9.24,9.24
87.22,14.46,5.29,14.45,5.28,-5.28,-5.23,-4.64,9.18,9.17,9.17
88.09,14.44,5.34,14.43,5.32,-5.32,-5.27,-4.68,9.12,9.10,9.10
88.97,14.41,5.38,14.40,5.37,-5.37,-5.32,-4.73,9.04,9.03,9.04
89.86,14.38,5.41,14.38,5.41,-5.41,-5.37,-4.78,8.97,8.97,8.97
90.76,14.35,5.45,14.35,5.46,-5.46,-5.41,-4.84,8.89,8.89,8.90
91.66,14.31,5.49,14.33,5.50,-5.50,-5.46,-4.90,8.81,8.82,8.82
92.58,14.28,5.52,14.30,5.54,-5.54,-5.51,-4.96,8.74,8.75,8.76
93.51,14.25,5.57,14.26,5.59,-5.59,-5.55,-5.03,8.67,8.68,8.69
94.44,14.23,5.62,14.23,5.62,-5.62,-5.60,-5.10,8.61,8.60,8.61
95.39,14.20,5.67,14.19,5.66,-5.66,-5.64,-5.17,8.54,8.53,8.53
96.34,14.18,5.72,14.16,5.70,-5.70,-5.69,-5.25,8.48,8.46,8.46
97.30,14.14,5.76,14.12,5.74,-5.74,-5.74,-5.32,8.40,8.38,8.38
98.28,14.09,5.79,14.08,5.77,-5.77,-5.78,-5.41,8.32,8.31,8.30
99.26,14.04,5.81,14.04,5.80,-5.80,-5.83,-5.49,8.24,8.24,8.23
100.25,13.99,5.84,14.00,5.84,-5.84,-5.87,-5.58,8.16,8.16,8.15
101.25,13.94,5.85,13.96,5.87,-5.87,-5.92,-5.67,8.08,8.09,8.09
102.27,13.89,5.87,13.91,5.89,-5.89,-5.96,-5.76,8.00,8.02,8.02
103.29,13.87,5.92,13.87,5.92,-5.92,-6.00,-5.85,7.95,7.95,7.95
104.32,13.83,5.95,13.82,5.94,-5.94,-6.05,-5.94,7.89,7.88,7.88
105.37,13.78,5.97,13.77,5.96,-5.96,-6.09,-6.04,7.82,7.81,7.81
106.42,13.73,5.98,13.73,5.98,-5.98,-6.13,-6.13,7.75,7.74,7.75
107.48,13.68,6.01,13.68,6.01,-6.01,-6.18,-6.22,7.67,7.67,7.67
108.56,13.64,6.03,13.64,6.04,-6.04,-6.22,-6.32,7.60,7.60,7.61
109.64,13.59,6.05,13.60,6.07,-6.07,-6.26,-6.41,7.52,7.53,7.54
110.74,13.55,6.08,13.56,6.09,-6.09,-6.30,-6.50,7.46,7.46,7.47
111.85,13.50,6.11,13.51,6.12,-6.12,-6.34,-6.59,7.38,7.39,7.39
112.97,13.45,6.12,13.47,6.15,-6.15,-6.39,-6.67,7.30,7.32,7.33
114.10,13.41,6.16,13.42,6.17,-6.17,-6.43,-6.75,7.24,7.25,7.26
115.24,13.38,6.21,13.38,6.20,-6.20,-6.47,-6.83,7.18,7.18,7.17
116.39,13.36,6.26,13.33,6.22,-6.22,-6.51,-6.90,7.14,7.11,7.10
117.55,13.31,6.28,13.28,6.25,-6.25,-6.54,-6.97,7.07,7.04,7.03
118.73,13.25,6.30,13.23,6.26,-6.26,-6.58,-7.03,6.99,6.97,6.95
119.92,13.17,6.28,13.18,6.28,-6.28,-6.62,-7.08,6.89,6.90,6.89
121.12,13.10,6.27,13.13,6.30,-6.30,-6.66,-7.13,6.80,6.83,6.83
122.33,13.07,6.31,13.07,6.31,-6.31,-6.70,-7.17,6.76,6.76,6.76
123.55,13.03,6.33,13.01,6.32,-6.32,-6.73,-7.21,6.71,6.69,6.70
124.79,12.97,6.34,12.95,6.33,-6.33,-6.77,-7.23,6.64,6.62,6.63
126.03,12.90,6.34,12.90,6.34,-6.34,-6.80,-7.25,6.56,6.56,6.57
127.29,12.85,6.35,12.84,6.35,-6.35,-6.84,-7.26,6.50,6.49,6.50
128.57,12.79,6.37,12.78,6.36,-6.36,-6.87,-7.26,6.43,6.42,6.42
129.85,12.70,6.34,12.73,6.38,-6.38,-6.91,-7.26,6.33,6.36,6.36
131.15,12.64,6.36,12.68,6.39,-6.39,-6.94,-7.25,6.25,6.29,6.28
132.46,12.61,6.39,12.63,6.41,-6.41,-6.97,-7.23,6.21,6.22,6.22
133.79,12.57,6.42,12.58,6.42,-6.42,-7.01,-7.21,6.15,6.15,6.15
135.12,12.52,6.43,12.52,6.44,-6.44,-7.04,-7.18,6.08,6.09,6.09
136.48,12.49,6.46,12.47,6.45,-6.45,-7.07,-7.15,6.04,6.02,6.03
137.84,12.45,6.49,12.42,6.47,-6.47,-7.10,-7.11,5.99,5.96,5.96
139.22,12.42,6.53,12.38,6.48,-6.48,-7.13,-7.07,5.94,5.90,5.89
140.61,12.37,6.54,12.34,6.51,-6.51,-7.16,-7.03,5.87,5.83,5.83
142.02,12.30,6.53,12.30,6.53,-6.53,-7.18,-6.98,5.77,5.77,5.77
143.44,12.26,6.55,12.27,6.55,-6.55,-7.21,-6.94,5.71,5.72,5.71
144.87,12.21,6.55,12.24,6.58,-6.58,-7.24,-6.89,5.63,5.66,5.66
146.32,12.19,6.59,12.22,6.62,-6.62,-7.26,-6.84,5.58,5.60,5.60
147.78,12.17,6.62,12.20,6.65,-6.65,-7.29,-6.79,5.52,5.55,5.55
149.26,12.16,6.67,12.18,6.69,-6.69,-7.32,-6.75,5.47,5.49,5.49
150.75,12.17,6.74,12.18,6.74,-6.74,-7.34,-6.70,5.43,5.43,5.43
152.26,12.17,6.79,12.18,6.80,-6.80,-7.36,-6.66,5.37,5.38,5.38
153.78,12.18,6.85,12.19,6.86,-6.86,-7.39,-6.61,5.32,5.33,5.33
155.32,12.19,6.92,12.20,6.93,-6.93,-7.41,-6.58,5.26,5.27,5.27
156.88,12.21,6.99,12.22,7.01,-7.01,-7.43,-6.54,5.21,5.22,5.22
158.44,12.23,7.07,12.24,7.08,-7.08,-7.45,-6.51,5.15,5.16,5.16
160.03,12.27,7.16,12.27,7.16,-7.16,-7.47,-6.48,5.11,5.11,5.11
161.63,12.30,7.25,12.29,7.24,-7.24,-7.50,-6.45,5.06,5.05,5.05
163.24,12.33,7.34,12.31,7.32,-7.32,-7.52,-6.43,5.01,4.99,4.99
164.88,12.36,7.42,12.33,7.40,-7.40,-7.54,-6.41,4.96,4.94,4.94
166.53,12.38,7.51,12.35,7.47,-7.47,-7.56,-6.40,4.91,4.88,4.87
168.19,12.38,7.55,12.37,7.54,-7.54,-7.58,-6.39,4.84,4.82,4.83
169.87,12.38,7.61,12.38,7.61,-7.61,-7.60,-6.38,4.77,4.77,4.77
171.57,12.38,7.68,12.39,7.68,-7.68,-7.62,-6.38,4.70,4.71,4.71
173.29,12.38,7.72,12.39,7.74,-7.74,-7.64,-6.39,4.64,4.65,4.66
175.02,12.38,7.78,12.39,7.80,-7.80,-7.67,-6.40,4.58,4.60,4.60
176.77,12.38,7.84,12.39,7.85,-7.85,-7.69,-6.41,4.53,4.54,4.54
178.54,12.37,7.89,12.38,7.89,-7.89,-7.72,-6.43,4.48,4.48,4.48
180.32,12.36,7.94,12.36,7.93,-7.93,-7.74,-6.45,4.43,4.43,4.42
182.13,12.35,7.98,12.34,7.97,-7.97,-7.77,-6.48,4.38,4.37,4.38
183.95,12.33,8.01,12.31,8.00,-8.00,-7.80,-6.52,4.33,4.32,4.32
185.79,12.30,8.04,12.28,8.02,-8.02,-7.84,-6.55,4.28,4.26,4.26
187.65,12.27,8.06,12.25,8.04,-8.04,-7.87,-6.60,4.23,4.21,4.21
189.52,12.21,8.05,12.21,8.05,-8.05,-7.90,-6.65,4.16,4.16,4.16
191.42,12.16,8.05,12.17,8.06,-8.06,-7.94,-6.70,4.10,4.11,4.11
193.33,12.12,8.05,12.12,8.06,-8.06,-7.97,-6.75,4.06,4.06,4.07
195.27,12.07,8.06,12.07,8.05,-8.05,-8.00,-6.81,4.02,4.01,4.01
197.22,12.01,8.05,12.01,8.04,-8.04,-8.02,-6.88,3.97,3.97,3.96
199.19,11.94,8.02,11.95,8.02,-8.02,-8.03,-6.94,3.92,3.93,3.92
201.18,11.87,8.00,11.88,8.00,-8.00,-8.03,-7.01,3.87,3.88,3.87
203.19,11.81,7.97,11.82,7.98,-7.98,-8.01,-7.09,3.83,3.84,3.84
205.23,11.75,7.94,11.76,7.96,-7.96,-7.98,-7.16,3.80,3.80,3.81
207.28,11.68,7.91,11.69,7.93,-7.93,-7.94,-7.24,3.75,3.76,3.77
209.35,11.62,7.89,11.62,7.90,-7.90,-7.89,-7.32,3.72,3.73,3.73
211.44,11.56,7.87,11.56,7.87,-7.87,-7.84,-7.40,3.70,3.69,3.69
213.56,11.49,7.83,11.49,7.83,-7.83,-7.78,-7.48,3.66,3.66,3.66
215.69,11.40,7.77,11.41,7.79,-7.79,-7.73,-7.56,3.61,3.62,3.63
217.85,11.33,7.74,11.34,7.75,-7.75,-7.67,-7.64,3.58,3.59,3.59
220.03,11.29,7.73,11.27,7.71,-7.71,-7.62,-7.72,3.58,3.56,3.56
222.23,11.23,7.71,11.20,7.67,-7.67,-7.57,-7.79,3.56,3.53,3.52
224.45,11.13,7.63,11.12,7.62,-7.62,-7.52,-7.86,3.51,3.50,3.50
226.70,11.04,7.57,11.05,7.58,-7.58,-7.47,-7.93,3.47,3.48,3.47
228.96,10.95,7.49,10.97,7.52,-7.52,-7.42,-7.99,3.43,3.45,3.46
231.25,10.90,7.47,10.90,7.47,-7.47,-7.38,-8.04,3.43,3.43,3.43
233.57,10.83,7.42,10.82,7.42,-7.42,-7.33,-8.09,3.42,3.41,3.41
235.90,10.74,7.35,10.75,7.36,-7.36,-7.29,-8.13,3.38,3.39,3.39
238.26,10.67,7.31,10.67,7.30,-7.30,-7.24,-8.16,3.37,3.37,3.36
240.64,10.58,7.22,10.60,7.25,-7.25,-7.20,-8.18,3.34,3.36,3.36
243.05,10.54,7.20,10.53,7.19,-7.19,-7.16,-8.19,3.35,3.34,3.34
245.48,10.47,7.15,10.46,7.13,-7.13,-7.12,-8.19,3.34,3.33,3.33
247.93,10.38,7.07,10.39,7.07,-7.07,-7.07,-8.18,3.31,3.32,3.31
250.41,10.32,7.01,10.32,7.01,-7.01,-7.03,-8.16,3.31,3.31,3.31
252.92,10.23,6.92,10.26,6.95,-6.95,-6.99,-8.13,3.28,3.30,3.31
255.45,10.19,6.90,10.19,6.90,-6.90,-6.95,-8.08,3.29,3.29,3.29
258.00,10.14,6.85,10.13,6.84,-6.84,-6.90,-8.03,3.30,3.29,3.29
260.58,10.07,6.78,10.07,6.79,-6.79,-6.86,-7.96,3.28,3.28,3.29
263.19,10.02,6.74,10.01,6.74,-6.74,-6.81,-7.88,3.29,3.28,3.28
265.82,9.95,6.68,9.95,6.68,-6.68,-6.77,-7.80,3.27,3.27,3.27
268.48,9.89,6.62,9.89,6.63,-6.63,-6.72,-7.71,3.26,3.26,3.27
271.16,9.84,6.57,9.83,6.58,-6.58,-6.67,-7.60,3.27,3.26,3.27
273.87,9.76,6.51,9.78,6.53,-6.53,-6.63,-7.49,3.24,3.25,3.25
276.61,9.73,6.48,9.73,6.48,-6.48,-6.58,-7.38,3.26,3.25,3.25
279.38,9.68,6.45,9.67,6.43,-6.43,-6.53,-7.26,3.26,3.25,3.23
282.17,9.63,6.40,9.62,6.37,-6.37,-6.48,-7.13,3.26,3.24,3.23
284.99,9.57,6.33,9.57,6.32,-6.32,-6.43,-7.00,3.25,3.24,3.24
287.84,9.49,6.25,9.51,6.27,-6.27,-6.37,-6.87,3.22,3.24,3.24
290.72,9.44,6.21,9.46,6.22,-6.22,-6.32,-6.73,3.22,3.24,3.23
293.63,9.41,6.16,9.42,6.17,-6.17,-6.27,-6.60,3.24,3.24,3.25
296.57,9.38,6.13,9.37,6.12,-6.12,-6.21,-6.46,3.26,3.25,3.25
299.53,9.32,6.07,9.32,6.07,-6.07,-6.16,-6.32,3.25,3.25,3.25
302.53,9.27,6.01,9.27,6.02,-6.02,-6.10,-6.18,3.25,3.25,3.26
305.55,9.21,5.96,9.22,5.96,-5.96,-6.04,-6.05,3.25,3.26,3.25
308.61,9.17,5.90,9.17,5.91,-5.91,-5.99,-5.91,3.26,3.26,3.27
311.69,9.12,5.85,9.12,5.85,-5.85,-5.93,-5.77,3.27,3.27,3.27
314.81,9.08,5.81,9.07,5.79,-5.79,-5.87,-5.64,3.29,3.27,3.27
317.96,9.02,5.74,9.01,5.73,-5.73,-5.81,-5.51,3.29,3.28,3.28
321.14,8.96,5.67,8.96,5.67,-5.67,-5.75,-5.38,3.29,3.29,3.29
324.35,8.90,5.62,8.90,5.61,-5.61,-5.68,-5.26,3.30,3.29,3.28
327.59,8.84,5.53,8.84,5.54,-5.54,-5.62,-5.14,3.30,3.30,3.31
330.87,8.79,5.49,8.78,5.47,-5.47,-5.56,-5.02,3.32,3.30,3.30
334.18,8.72,5.41,8.72,5.41,-5.41,-5.49,-4.90,3.31,3.31,3.31
337.52,8.64,5.33,8.66,5.34,-5.34,-5.42,-4.78,3.30,3.32,3.31
340.90,8.59,5.26,8.60,5.27,-5.27,-5.36,-4.67,3.32,3.32,3.33
344.30,8.52,5.19,8.53,5.20,-5.20,-5.29,-4.57,3.32,3.33,3.33
347.75,8.46,5.12,8.47,5.14,-5.14,-5.22,-4.46,3.33,3.34,3.34
351.23,8.40,5.07,8.41,5.07,-5.07,-5.15,-4.36,3.33,3.34,3.33
354.74,8.35,4.99,8.35,5.00,-5.00,-5.08,-4.27,3.35,3.35,3.36
358.28,8.29,4.94,8.29,4.93,-4.93,-5.01,-4.17,3.36,3.36,3.36
361.87,8.23,4.87,8.23,4.86,-4.86,-4.94,-4.08,3.37,3.36,3.36
365.49,8.16,4.79,8.17,4.80,-4.80,-4.87,-3.99,3.36,3.37,3.37
369.14,8.10,4.72,8.10,4.73,-4.73,-4.79,-3.91,3.38,3.38,3.38
372.83,8.05,4.66,8.04,4.65,-4.65,-4.72,-3.83,3.40,3.38,3.39
376.56,7.97,4.58,7.97,4.58,-4.58,-4.65,-3.75,3.39,3.39,3.39
380.33,7.90,4.51,7.90,4.50,-4.50,-4.57,-3.67,3.40,3.40,3.39
384.13,7.84,4.43,7.83,4.42,-4.42,-4.49,-3.60,3.42,3.41,3.41
387.97,7.77,4.35,7.76,4.34,-4.34,-4.42,-3.53,3.43,3.42,3.42
391.85,7.69,4.27,7.68,4.25,-4.25,-4.34,-3.46,3.44,3.43,3.42
395.77,7.61,4.18,7.60,4.17,-4.17,-4.26,-3.40,3.44,3.44,3.43
399.73,7.53,4.09,7.52,4.08,-4.08,-4.18,-3.33,3.45,3.45,3.44
403.72,7.44,3.97,7.44,3.99,-3.99,-4.10,-3.27,3.45,3.45,3.47
407.76,7.35,3.89,7.36,3.89,-3.89,-4.02,-3.21,3.46,3.46,3.46
411.84,7.26,3.79,7.27,3.80,-3.80,-3.93,-3.15,3.46,3.47,3.47
415.96,7.18,3.69,7.18,3.70,-3.70,-3.85,-3.10,3.48,3.48,3.49
420.12,7.09,3.60,7.10,3.61,-3.61,-3.77,-3.04,3.48,3.49,3.49
424.32,7.00,3.51,7.01,3.51,-3.51,-3.68,-2.99,3.49,3.50,3.50
428.56,6.92,3.41,6.92,3.41,-3.41,-3.59,-2.94,3.51,3.51,3.51
432.85,6.83,3.31,6.83,3.31,-3.31,-3.51,-2.89,3.52,3.51,3.52
437.18,6.75,3.23,6.74,3.22,-3.22,-3.42,-2.84,3.53,3.52,3.52
441.55,6.66,3.13,6.65,3.12,-3.12,-3.33,-2.79,3.54,3.53,3.53
445.96,6.56,3.02,6.56,3.02,-3.02,-3.24,-2.74,3.54,3.54,3.54
450.42,6.47,2.93,6.48,2.93,-2.93,-3.15,-2.69,3.54,3.55,3.54
454.93,6.40,2.85,6.39,2.83,-2.83,-3.06,-2.64,3.57,3.56,3.55
459.48,6.29,2.73,6.31,2.74,-2.74,-2.97,-2.59,3.55,3.57,3.56
464.07,6.21,2.63,6.23,2.65,-2.65,-2.88,-2.53,3.56,3.57,3.58
468.71,6.14,2.55,6.14,2.56,-2.56,-2.79,-2.48,3.58,3.58,3.59
