frequency,raw,error,smoothed,error_smoothed,equalization,parametric_eq,fixed_band_eq,equalized_raw,equalized_smoothed,target
20.00,0.25,-5.48,0.25,-5.47,5.47,5.16,0.11,5.72,5.72,5.72
20.20,0.34,-5.39,0.34,-5.39,5.39,5.14,0.12,5.73,5.73,5.72
20.40,0.43,-5.30,0.43,-5.30,5.30,5.10,0.13,5.73,5.73,5.72
20.61,0.52,-5.21,0.52,-5.21,5.21,5.06,0.13,5.72,5.73,5.72
20.81,0.62,-5.11,0.61,-5.11,5.11,5.01,0.14,5.73,5.72,5.72
21.02,0.71,-5.02,0.71,-5.01,5.01,4.94,0.14,5.72,5.72,5.72
21.23,0.81,-4.90,0.80,-4.90,4.90,4.87,0.15,5.71,5.71,5.70
21.44,0.90,-4.80,0.90,-4.79,4.79,4.78,0.16,5.69,5.69,5.69
21.66,1.00,-4.68,1.00,-4.68,4.68,4.69,0.16,5.67,5.67,5.67
21.87,1.10,-4.56,1.10,-4.56,4.56,4.59,0.17,5.65,5.66,5.65
22.09,1.21,-4.44,1.21,-4.43,4.43,4.47,0.18,5.64,5.64,5.64
22.31,1.32,-4.30,1.32,-4.30,4.30,4.36,0.18,5.62,5.62,5.61
22.54,1.43,-4.17,1.43,-4.17,4.17,4.23,0.19,5.59,5.59,5.59
22.76,1.54,-4.04,1.54,-4.03,4.03,4.09,0.20,5.57,5.57,5.57
22.99,1.65,-3.90,1.65,-3.90,3.90,3.95,0.20,5.54,5.54,5.54
23.22,1.76,-3.76,1.76,-3.76,3.76,3.81,0.21,5.52,5.52,5.51
23.45,1.88,-3.61,1.87,-3.62,3.62,3.66,0.22,5.50,5.49,5.48
23.69,1.99,-3.49,1.99,-3.48,3.48,3.50,0.23,5.47,5.48,5.47
23.92,2.12,-3.34,2.11,-3.34,3.34,3.34,0.23,5.46,5.46,5.45
24.16,2.24,-3.21,2.23,-3.21,3.21,3.18,0.24,5.44,5.44,5.44
24.40,2.35,-3.08,2.35,-3.07,3.07,3.01,0.25,5.42,5.42,5.42
24.65,2.47,-2.94,2.47,-2.93,2.93,2.84,0.26,5.40,5.40,5.40
24.89,2.60,-2.78,2.59,-2.79,2.79,2.67,0.26,5.39,5.39,5.38
25.14,2.72,-2.66,2.72,-2.65,2.65,2.50,0.27,5.37,5.37,5.37
25.39,2.85,-2.50,2.85,-2.51,2.51,2.32,0.27,5.36,5.36,5.35
25.65,2.97,-2.38,2.97,-2.37,2.37,2.15,0.28,5.34,5.34,5.34
25.91,3.09,-2.22,3.09,-2.23,2.23,1.97,0.28,5.32,5.32,5.31
26.16,3.22,-2.09,3.22,-2.09,2.09,1.80,0.29,5.31,5.30,5.30
26.43,3.34,-1.95,3.34,-1.94,1.95,1.62,0.29,5.29,5.29,5.29
26.69,3.47,-1.80,3.47,-1.80,1.80,1.45,0.29,5.27,5.27,5.26
26.96,3.60,-1.66,3.59,-1.66,1.66,1.27,0.29,5.26,5.26,5.25
27.23,3.73,-1.52,3.72,-1.52,1.52,1.10,0.29,5.25,5.24,5.24
27.50,3.85,-1.39,3.85,-1.38,1.38,0.93,0.29,5.22,5.23,5.23
27.77,3.99,-1.23,3.98,-1.23,1.23,0.76,0.28,5.22,5.21,5.21
28.05,4.12,-1.09,4.12,-1.09,1.08,0.59,0.28,5.20,5.20,5.20
28.33,4.25,-0.94,4.25,-0.93,0.93,0.42,0.27,5.18,5.19,5.18
28.62,4.39,-0.78,4.39,-0.78,0.78,0.25,0.26,5.18,5.17,5.17
28.90,4.53,-0.63,4.53,-0.62,0.63,0.09,0.25,5.16,5.16,5.15
29.19,4.67,-0.47,4.67,-0.47,0.48,-0.07,0.23,5.14,5.15,5.13
29.48,4.82,-0.32,4.81,-0.32,0.32,-0.24,0.22,5.14,5.13,5.13
29.78,4.96,-0.17,4.96,-0.17,0.16,-0.39,0.20,5.12,5.12,5.12
30.08,5.10,-0.01,5.10,-0.01,0.00,-0.55,0.17,5.11,5.10,5.11
30.38,5.24,0.15,5.25,0.16,-0.16,-0.71,0.15,5.09,5.09,5.09
30.68,5.41,0.32,5.40,0.33,-0.33,-0.86,0.12,5.08,5.08,5.08
30.99,5.57,0.51,5.56,0.50,-0.49,-1.01,0.09,5.07,5.06,5.05
31.30,5.71,0.66,5.71,0.67,-0.66,-1.16,0.05,5.04,5.05,5.04
31.61,5.87,0.83,5.87,0.84,-0.84,-1.30,0.02,5.03,5.03,5.03
31.93,6.02,1.01,6.02,1.01,-1.01,-1.45,-0.02,5.01,5.01,5.01
32.24,6.18,1.20,6.18,1.19,-1.19,-1.59,-0.07,4.99,4.99,4.98
32.57,6.34,1.37,6.34,1.37,-1.37,-1.73,-0.11,4.97,4.97,4.96
32.89,6.50,1.54,6.50,1.55,-1.55,-1.86,-0.16,4.95,4.95,4.95
33.22,6.66,1.73,6.66,1.73,-1.73,-2.00,-0.22,4.93,4.93,4.92
33.55,6.81,1.89,6.81,1.90,-1.90,-2.13,-0.27,4.90,4.91,4.91
33.89,6.97,2.08,6.97,2.08,-2.08,-2.26,-0.33,4.89,4.88,4.88
34.23,7.12,2.25,7.12,2.25,-2.26,-2.38,-0.39,4.86,4.86,4.86
34.57,7.28,2.43,7.27,2.43,-2.43,-2.51,-0.45,4.85,4.84,4.84
34.92,7.43,2.60,7.42,2.60,-2.60,-2.63,-0.52,4.83,4.83,4.82
35.27,7.57,2.76,7.57,2.77,-2.76,-2.74,-0.59,4.80,4.81,4.80
35.62,7.72,2.93,7.71,2.93,-2.93,-2.86,-0.66,4.79,4.78,4.78
35.97,7.85,3.08,7.85,3.09,-3.09,-2.97,-0.73,4.76,4.76,4.76
36.33,7.99,3.24,7.98,3.24,-3.24,-3.08,-0.81,4.75,4.74,4.74
36.70,8.11,3.38,8.11,3.39,-3.39,-3.19,-0.89,4.72,4.72,4.72
37.06,8.24,3.53,8.24,3.53,-3.53,-3.30,-0.97,4.71,4.70,4.70
37.43,8.36,3.67,8.35,3.67,-3.67,-3.40,-1.05,4.69,4.68,4.68
37.81,8.46,3.79,8.46,3.80,-3.80,-3.50,-1.13,4.66,4.66,4.66
38.19,8.57,3.93,8.56,3.92,-3.92,-3.59,-1.22,4.65,4.64,4.63
38.57,8.65,4.02,8.65,4.03,-4.03,-3.69,-1.30,4.61,4.62,4.62
38.95,8.74,4.14,8.74,4.14,-4.14,-3.78,-1.39,4.60,4.60,4.59
39.34,8.82,4.24,8.81,4.24,-4.23,-3.87,-1.48,4.58,4.58,4.57
39.74,8.88,4.32,8.88,4.32,-4.32,-3.95,-1.58,4.55,4.56,4.55
40.14,8.94,4.39,8.94,4.40,-4.40,-4.03,-1.67,4.54,4.54,4.54
40.54,8.99,4.46,8.99,4.47,-4.47,-4.11,-1.77,4.52,4.52,4.52
40.94,9.04,4.53,9.03,4.53,-4.53,-4.19,-1.87,4.51,4.50,4.50
41.35,9.07,4.59,9.07,4.59,-4.58,-4.26,-1.97,4.49,4.49,4.47
41.76,9.10,4.62,9.10,4.63,-4.62,-4.33,-2.07,4.47,4.47,4.47
42.18,9.12,4.66,9.11,4.66,-4.66,-4.40,-2.17,4.46,4.45,4.45
42.60,9.12,4.68,9.12,4.68,-4.69,-4.47,-2.28,4.43,4.43,4.43
43.03,9.13,4.70,9.12,4.71,-4.71,-4.53,-2.39,4.42,4.41,4.42
43.46,9.12,4.72,9.12,4.72,-4.73,-4.59,-2.50,4.39,4.39,4.39
43.90,9.12,4.74,9.11,4.74,-4.74,-4.64,-2.61,4.38,4.37,4.37
44.33,9.10,4.74,9.10,4.75,-4.74,-4.70,-2.72,4.35,4.35,4.35
44.78,9.08,4.74,9.08,4.75,-4.75,-4.75,-2.84,4.33,4.33,4.33
45.23,9.06,4.75,9.05,4.75,-4.74,-4.80,-2.95,4.31,4.31,4.30
45.68,9.03,4.74,9.03,4.74,-4.74,-4.84,-3.07,4.29,4.29,4.28
46.13,9.01,4.73,9.01,4.73,-4.73,-4.88,-3.19,4.28,4.28,4.27
46.60,8.98,4.71,8.98,4.72,-4.71,-4.92,-3.32,4.26,4.26,4.26
47.06,8.95,4.70,8.94,4.70,-4.70,-4.96,-3.44,4.24,4.24,4.24
47.53,8.91,4.68,8.91,4.68,-4.69,-5.00,-3.57,4.22,4.22,4.22
48.01,8.88,4.66,8.88,4.67,-4.68,-5.03,-3.70,4.20,4.20,4.21
48.49,8.85,4.66,8.85,4.66,-4.67,-5.06,-3.82,4.18,4.18,4.18
48.97,8.82,4.66,8.82,4.66,-4.66,-5.09,-3.96,4.16,4.16,4.15
49.46,8.79,4.66,8.78,4.66,-4.65,-5.11,-4.09,4.13,4.13,4.12
49.96,8.75,4.65,8.75,4.65,-4.65,-5.13,-4.22,4.10,4.11,4.09
50.46,8.73,4.64,8.73,4.65,-4.65,-5.15,-4.35,4.08,4.08,4.08
50.96,8.71,4.64,8.70,4.64,-4.64,-5.17,-4.49,4.06,4.06,4.06
51.47,8.68,4.64,8.68,4.64,-4.64,-5.19,-4.62,4.03,4.04,4.03
51.99,8.66,4.64,8.66,4.64,-4.64,-5.20,-4.76,4.02,4.02,4.01
52.51,8.64,4.64,8.64,4.64,-4.64,-5.21,-4.89,3.99,3.99,3.99
53.03,8.62,4.64,8.62,4.65,-4.65,-5.22,-5.02,3.97,3.97,3.97
53.56,8.60,4.65,8.60,4.65,-4.65,-5.23,-5.15,3.94,3.95,3.94
54.10,8.59,4.66,8.58,4.66,-4.66,-5.23,-5.28,3.92,3.92,3.92
54.64,8.57,4.67,8.57,4.67,-4.67,-5.24,-5.40,3.89,3.90,3.89
55.18,8.56,4.68,8.56,4.69,-4.69,-5.24,-5.52,3.87,3.87,3.87
55.74,8.56,4.71,8.55,4.70,-4.70,-5.24,-5.64,3.85,3.85,3.84
56.29,8.54,4.71,8.54,4.72,-4.72,-5.24,-5.75,3.82,3.82,3.82
56.86,8.54,4.74,8.54,4.74,-4.74,-5.23,-5.86,3.80,3.80,3.79
57.42,8.54,4.76,8.53,4.76,-4.76,-5.23,-5.96,3.78,3.77,3.77
58.00,8.53,4.77,8.53,4.78,-4.78,-5.22,-6.05,3.75,3.75,3.75
58.58,8.53,4.80,8.53,4.80,-4.80,-5.22,-6.13,3.73,3.73,3.72
59.16,8.53,4.82,8.52,4.82,-4.82,-5.21,-6.21,3.71,3.71,3.70
59.76,8.52,4.83,8.52,4.84,-4.84,-5.20,-6.28,3.68,3.68,3.68
60.35,8.52,4.86,8.51,4.86,-4.86,-5.18,-6.33,3.65,3.65,3.65
60.96,8.51,4.87,8.51,4.88,-4.88,-5.17,-6.38,3.62,3.62,3.63
61.57,8.50,4.90,8.50,4.90,-4.91,-5.16,-6.41,3.59,3.59,3.59
62.18,8.50,4.93,8.49,4.93,-4.93,-5.14,-6.44,3.57,3.57,3.56
62.80,8.49,4.95,8.48,4.95,-4.95,-5.13,-6.45,3.54,3.54,3.53
63.43,8.48,4.97,8.48,4.97,-4.97,-5.11,-6.45,3.51,3.51,3.50
64.07,8.46,4.98,8.46,4.99,-4.98,-5.09,-6.44,3.48,3.48,3.47
64.71,8.46,5.00,8.45,5.00,-5.00,-5.07,-6.43,3.46,3.45,3.45
65.35,8.44,5.00,8.44,5.00,-5.01,-5.05,-6.40,3.43,3.43,3.43
66.01,8.42,5.00,8.42,5.01,-5.01,-5.03,-6.36,3.40,3.41,3.41
66.67,8.41,5.02,8.40,5.02,-5.02,-5.01,-6.31,3.39,3.39,3.38
67.33,8.39,5.02,8.38,5.02,-5.02,-4.99,-6.25,3.37,3.36,3.36
68.01,8.36,5.02,8.36,5.02,-5.02,-4.97,-6.19,3.33,3.34,3.33
68.69,8.34,5.02,8.33,5.02,-5.03,-4.94,-6.12,3.31,3.31,3.31
69.37,8.31,5.02,8.31,5.03,-5.03,-4.92,-6.04,3.28,3.28,3.28
70.07,8.29,5.03,8.29,5.03,-5.03,-4.89,-5.95,3.26,3.26,3.25
70.77,8.26,5.02,8.26,5.02,-5.02,-4.87,-5.87,3.23,3.23,3.23
71.48,8.23,5.02,8.23,5.02,-5.02,-4.84,-5.78,3.20,3.20,3.20
72.19,8.19,5.01,8.19,5.02,-5.02,-4.82,-5.68,3.17,3.17,3.17
72.91,8.16,5.02,8.15,5.01,-5.02,-4.79,-5.58,3.14,3.13,3.13
73.64,8.12,5.01,8.12,5.01,-5.02,-4.76,-5.48,3.10,3.10,3.10
74.38,8.08,5.00,8.08,5.02,-5.01,-4.74,-5.38,3.07,3.07,3.07
75.12,8.05,5.02,8.04,5.01,-5.01,-4.71,-5.28,3.04,3.03,3.02
75.87,8.00,5.00,8.00,5.00,-5.00,-4.68,-5.18,3.00,3.00,2.99
76.63,7.95,4.98,7.95,4.99,-4.99,-4.65,-5.08,2.96,2.96,2.96
77.40,7.90,4.97,7.90,4.98,-4.98,-4.62,-4.98,2.92,2.92,2.92
78.17,7.85,4.98,7.85,4.97,-4.97,-4.59,-4.88,2.88,2.88,2.86
78.95,7.80,4.95,7.79,4.96,-4.96,-4.56,-4.78,2.84,2.84,2.84
79.74,7.74,4.93,7.74,4.94,-4.94,-4.53,-4.68,2.79,2.80,2.80
80.54,7.68,4.92,7.68,4.92,-4.93,-4.50,-4.59,2.75,2.76,2.75
81.35,7.63,4.91,7.62,4.91,-4.91,-4.47,-4.50,2.72,2.71,2.71
82.16,7.56,4.89,7.56,4.89,-4.89,-4.44,-4.41,2.67,2.67,2.66
82.98,7.49,4.86,7.49,4.87,-4.87,-4.41,-4.32,2.62,2.62,2.62
83.81,7.43,4.86,7.42,4.85,-4.84,-4.38,-4.23,2.58,2.57,2.56
84.65,7.34,4.81,7.34,4.82,-4.82,-4.35,-4.15,2.52,2.53,2.52
85.50,7.27,4.78,7.27,4.79,-4.79,-4.32,-4.07,2.48,2.48,2.48
86.35,7.20,4.76,7.19,4.76,-4.76,-4.29,-4.00,2.44,2.43,2.43
87.22,7.11,4.72,7.11,4.73,-4.73,-4.25,-3.92,2.38,2.38,2.38
88.09,7.03,4.70,7.03,4.69,-4.69,-4.22,-3.85,2.33,2.33,2.32
88.97,6.94,4.65,6.94,4.66,-4.66,-4.19,-3.78,2.28,2.28,2.28
89.86,6.85,4.61,6.85,4.62,-4.62,-4.16,-3.72,2.23,2.23,2.23
90.76,6.75,4.57,6.75,4.57,-4.57,-4.12,-3.66,2.17,2.18,2.17
91.66,6.66,4.53,6.65,4.53,-4.53,-4.09,-3.60,2.13,2.12,2.12
92.58,6.56,4.49,6.56,4.49,-4.48,-4.06,-3.54,2.07,2.07,2.06
93.51,6.46,4.43,6.46,4.44,-4.44,-4.02,-3.49,2.02,2.02,2.02
94.44,6.36,4.38,6.35,4.39,-4.39,-3.99,-3.44,1.97,1.97,1.97
95.39,6.25,4.33,6.25,4.33,-4.34,-3.96,-3.39,1.91,1.91,1.91
96.34,6.14,4.29,6.14,4.29,-4.29,-3.92,-3.34,1.85,1.85,1.84
97.30,6.03,4.23,6.03,4.24,-4.23,-3.89,-3.30,1.79,1.79,1.79
98.28,5.92,4.18,5.91,4.18,-4.18,-3.85,-3.26,1.74,1.73,1.73
99.26,5.80,4.13,5.80,4.12,-4.13,-3.82,-3.22,1.67,1.67,1.66
100.25,5.68,4.06,5.68,4.07,-4.07,-3.78,-3.19,1.61,1.61,1.61
101.25,5.56,4.00,5.56,4.01,-4.01,-3.74,-3.15,1.55,1.55,1.55
102.27,5.44,3.95,5.44,3.95,-3.95,-3.71,-3.12,1.49,1.49,1.48
103.29,5.32,3.90,5.32,3.89,-3.89,-3.67,-3.09,1.43,1.43,1.41
104.32,5.19,3.82,5.19,3.83,-3.83,-3.63,-3.06,1.36,1.36,1.36
105.37,5.07,3.76,5.06,3.76,-3.76,-3.59,-3.04,1.30,1.30,1.30
106.42,4.93,3.69,4.93,3.70,-3.70,-3.55,-3.01,1.23,1.23,1.23
107.48,4.80,3.63,4.80,3.63,-3.63,-3.51,-2.99,1.16,1.16,1.16
108.56,4.67,3.57,4.67,3.57,-3.57,-3.47,-2.97,1.10,1.10,1.09
109.64,4.54,3.50,4.54,3.50,-3.50,-3.43,-2.95,1.03,1.03,1.03
110.74,4.41,3.43,4.41,3.44,-3.44,-3.39,-2.93,0.97,0.97,0.97
111.85,4.28,3.37,4.27,3.37,-3.37,-3.35,-2.91,0.90,0.90,0.90
112.97,4.14,3.31,4.14,3.31,-3.31,-3.30,-2.89,0.83,0.83,0.82
114.10,4.00,3.23,4.00,3.24,-3.24,-3.26,-2.87,0.76,0.76,0.76
115.24,3.87,3.17,3.87,3.18,-3.17,-3.21,-2.85,0.69,0.69,0.69
116.39,3.74,3.11,3.73,3.11,-3.11,-3.17,-2.83,0.63,0.63,0.62
117.55,3.60,3.04,3.60,3.04,-3.04,-3.12,-2.82,0.56,0.56,0.55
118.73,3.46,2.96,3.46,2.97,-2.97,-3.07,-2.80,0.49,0.50,0.49
119.92,3.33,2.89,3.33,2.89,-2.89,-3.02,-2.78,0.43,0.43,0.43
121.12,3.20,2.82,3.19,2.82,-2.82,-2.96,-2.76,0.38,0.37,0.37
122.33,3.06,2.75,3.06,2.75,-2.75,-2.91,-2.74,0.31,0.31,0.30
123.55,2.93,2.67,2.93,2.68,-2.67,-2.85,-2.73,0.25,0.25,0.25
124.79,2.80,2.60,2.80,2.60,-2.60,-2.79,-2.71,0.19,0.19,0.19
126.03,2.67,2.52,2.67,2.53,-2.53,-2.73,-2.69,0.13,0.13,0.14
127.29,2.54,2.45,2.54,2.46,-2.46,-2.67,-2.67,0.07,0.08,0.08
128.57,2.42,2.40,2.42,2.39,-2.40,-2.60,-2.64,0.02,0.02,0.01
129.85,2.30,2.33,2.29,2.33,-2.33,-2.53,-2.62,-0.03,-0.03,-0.04
131.15,2.18,2.26,2.18,2.27,-2.26,-2.46,-2.60,-0.09,-0.08,-0.09
132.46,2.06,2.20,2.06,2.20,-2.20,-2.39,-2.58,-0.14,-0.14,-0.15
133.79,1.95,2.13,1.94,2.13,-2.13,-2.31,-2.56,-0.19,-0.19,-0.19
135.12,1.83,2.07,1.83,2.07,-2.07,-2.23,-2.53,-0.24,-0.24,-0.25
136.48,1.72,1.99,1.72,2.00,-2.00,-2.15,-2.51,-0.29,-0.28,-0.28
137.84,1.62,1.93,1.61,1.94,-1.94,-2.07,-2.49,-0.32,-0.32,-0.32
139.22,1.52,1.88,1.52,1.88,-1.87,-1.99,-2.47,-0.36,-0.36,-0.37
140.61,1.42,1.82,1.42,1.82,-1.81,-1.91,-2.44,-0.40,-0.39,-0.41
142.02,1.33,1.75,1.32,1.76,-1.75,-1.83,-2.42,-0.43,-0.43,-0.43
143.44,1.24,1.69,1.24,1.70,-1.70,-1.75,-2.40,-0.46,-0.46,-0.46
144.87,1.15,1.64,1.15,1.64,-1.65,-1.67,-2.38,-0.50,-0.50,-0.50
146.32,1.08,1.60,1.08,1.60,-1.60,-1.59,-2.36,-0.52,-0.52,-0.53
147.78,1.01,1.55,1.01,1.56,-1.56,-1.53,-2.34,-0.55,-0.55,-0.55
149.26,0.95,1.52,0.94,1.52,-1.52,-1.47,-2.32,-0.57,-0.58,-0.58
150.75,0.88,1.49,0.88,1.49,-1.49,-1.41,-2.30,-0.61,-0.61,-0.62
152.26,0.83,1.46,0.83,1.47,-1.46,-1.37,-2.28,-0.64,-0.64,-0.64
153.78,0.79,1.45,0.78,1.44,-1.44,-1.34,-2.26,-0.66,-0.66,-0.67
155.32,0.74,1.42,0.74,1.43,-1.43,-1.32,-2.25,-0.70,-0.69,-0.69
156.88,0.71,1.42,0.71,1.42,-1.43,-1.31,-2.24,-0.72,-0.72,-0.72
158.44,0.68,1.42,0.68,1.42,-1.43,-1.32,-2.22,-0.75,-0.75,-0.75
160.03,0.66,1.43,0.66,1.43,-1.43,-1.34,-2.21,-0.78,-0.78,-0.78
161.63,0.64,1.44,0.64,1.45,-1.45,-1.37,-2.20,-0.81,-0.80,-0.81
163.24,0.64,1.47,0.64,1.47,-1.46,-1.40,-2.19,-0.83,-0.83,-0.84
164.88,0.64,1.49,0.64,1.49,-1.49,-1.45,-2.19,-0.85,-0.85,-0.86
166.53,0.64,1.51,0.64,1.52,-1.52,-1.50,-2.18,-0.88,-0.88,-0.88
168.19,0.65,1.56,0.64,1.56,-1.56,-1.56,-2.18,-0.91,-0.91,-0.92
169.87,0.65,1.59,0.65,1.60,-1.60,-1.63,-2.18,-0.95,-0.94,-0.95
171.57,0.67,1.64,0.67,1.64,-1.64,-1.69,-2.18,-0.98,-0.98,-0.98
173.29,0.69,1.68,0.68,1.69,-1.69,-1.76,-2.18,-1.00,-1.01,-1.00
175.02,0.71,1.74,0.71,1.74,-1.75,-1.83,-2.18,-1.04,-1.04,-1.04
176.77,0.73,1.80,0.73,1.80,-1.80,-1.90,-2.19,-1.08,-1.07,-1.08
178.54,0.76,1.87,0.75,1.87,-1.86,-1.97,-2.20,-1.11,-1.11,-1.12
180.32,0.78,1.92,0.78,1.92,-1.92,-2.03,-2.20,-1.15,-1.15,-1.15
182.13,0.81,1.98,0.80,1.98,-1.99,-2.10,-2.22,-1.18,-1.18,-1.18
183.95,0.83,2.04,0.83,2.05,-2.05,-2.16,-2.23,-1.22,-1.22,-1.22
185.79,0.86,2.11,0.86,2.11,-2.11,-2.22,-2.24,-1.25,-1.25,-1.26
187.65,0.89,2.18,0.88,2.18,-2.17,-2.27,-2.25,-1.28,-1.29,-1.30
189.52,0.91,2.23,0.91,2.23,-2.23,-2.33,-2.27,-1.32,-1.31,-1.33
191.42,0.94,2.28,0.94,2.28,-2.28,-2.38,-2.29,-1.35,-1.35,-1.35
193.33,0.97,2.33,0.96,2.33,-2.34,-2.43,-2.31,-1.37,-1.38,-1.37
195.27,0.99,2.38,0.99,2.39,-2.39,-2.48,-2.33,-1.41,-1.41,-1.40
197.22,1.01,2.43,1.01,2.44,-2.45,-2.52,-2.35,-1.44,-1.43,-1.43
199.19,1.04,2.51,1.04,2.50,-2.50,-2.57,-2.37,-1.46,-1.46,-1.48
201.18,1.07,2.55,1.06,2.55,-2.55,-2.61,-2.39,-1.48,-1.48,-1.49
203.19,1.09,2.59,1.09,2.60,-2.60,-2.64,-2.42,-1.51,-1.50,-1.51
205.23,1.12,2.64,1.12,2.64,-2.64,-2.68,-2.44,-1.53,-1.53,-1.53
207.28,1.15,2.68,1.14,2.69,-2.69,-2.71,-2.46,-1.54,-1.55,-1.54
209.35,1.17,2.73,1.17,2.73,-2.73,-2.74,-2.49,-1.56,-1.56,-1.57
211.44,1.19,2.77,1.19,2.77,-2.77,-2.77,-2.51,-1.58,-1.58,-1.59
213.56,1.21,2.81,1.21,2.81,-2.81,-2.80,-2.53,-1.60,-1.60,-1.61
215.69,1.23,2.83,1.23,2.84,-2.84,-2.82,-2.56,-1.62,-1.62,-1.61
217.85,1.25,2.86,1.25,2.87,-2.88,-2.84,-2.58,-1.63,-1.63,-1.62
220.03,1.27,2.91,1.27,2.91,-2.90,-2.86,-2.60,-1.64,-1.63,-1.65
222.23,1.29,2.94,1.28,2.93,-2.92,-2.87,-2.62,-1.64,-1.64,-1.66
224.45,1.30,2.94,1.29,2.95,-2.94,-2.88,-2.63,-1.64,-1.65,-1.65
226.70,1.30,2.95,1.30,2.96,-2.95,-2.89,-2.65,-1.66,-1.65,-1.66
228.96,1.31,2.96,1.30,2.96,-2.96,-2.90,-2.66,-1.65,-1.65,-1.66
231.25,1.31,2.95,1.31,2.95,-2.96,-2.90,-2.67,-1.65,-1.65,-1.65
233.57,1.31,2.94,1.31,2.95,-2.96,-2.90,-2.68,-1.65,-1.65,-1.64
235.90,1.31,2.94,1.31,2.95,-2.95,-2.90,-2.68,-1.64,-1.64,-1.64
238.26,1.32,2.95,1.31,2.94,-2.93,-2.89,-2.68,-1.62,-1.62,-1.64
240.64,1.31,2.92,1.31,2.92,-2.92,-2.88,-2.68,-1.61,-1.61,-1.62
243.05,1.31,2.90,1.30,2.90,-2.90,-2.86,-2.67,-1.59,-1.60,-1.60
245.48,1.29,2.86,1.29,2.87,-2.88,-2.85,-2.66,-1.59,-1.58,-1.58
247.93,1.29,2.85,1.29,2.85,-2.85,-2.83,-2.64,-1.56,-1.57,-1.57
250.41,1.28,2.83,1.27,2.82,-2.82,-2.80,-2.62,-1.54,-1.55,-1.56
252.92,1.27,2.78,1.27,2.79,-2.79,-2.77,-2.60,-1.52,-1.52,-1.52
255.45,1.25,2.74,1.25,2.75,-2.75,-2.74,-2.57,-1.50,-1.50,-1.50
258.00,1.24,2.71,1.23,2.71,-2.71,-2.71,-2.54,-1.48,-1.48,-1.48
260.58,1.22,2.67,1.21,2.67,-2.67,-2.67,-2.50,-1.45,-1.46,-1.46
263.19,1.19,2.62,1.19,2.63,-2.63,-2.63,-2.46,-1.44,-1.43,-1.44
265.82,1.17,2.58,1.17,2.58,-2.58,-2.59,-2.41,-1.41,-1.41,-1.42
268.48,1.15,2.53,1.14,2.53,-2.53,-2.54,-2.37,-1.38,-1.38,-1.39
271.16,1.12,2.47,1.11,2.47,-2.47,-2.49,-2.31,-1.36,-1.36,-1.36
273.87,1.08,2.41,1.08,2.41,-2.42,-2.44,-2.26,-1.34,-1.34,-1.34
276.61,1.05,2.35,1.05,2.36,-2.36,-2.38,-2.20,-1.31,-1.31,-1.31
279.38,1.02,2.30,1.01,2.30,-2.30,-2.33,-2.14,-1.28,-1.29,-1.29
282.17,0.98,2.24,0.98,2.24,-2.24,-2.27,-2.08,-1.26,-1.26,-1.27
284.99,0.94,2.17,0.94,2.17,-2.17,-2.20,-2.01,-1.24,-1.24,-1.24
287.84,0.89,2.10,0.89,2.10,-2.10,-2.14,-1.94,-1.22,-1.21,-1.22
290.72,0.86,2.03,0.85,2.03,-2.03,-2.07,-1.88,-1.18,-1.18,-1.18
293.63,0.81,1.96,0.81,1.96,-1.96,-2.01,-1.80,-1.15,-1.15,-1.16
296.57,0.76,1.88,0.76,1.89,-1.88,-1.93,-1.73,-1.12,-1.12,-1.13
299.53,0.71,1.80,0.71,1.80,-1.80,-1.86,-1.66,-1.09,-1.10,-1.10
302.53,0.66,1.73,0.65,1.72,-1.72,-1.79,-1.59,-1.06,-1.06,-1.08
305.55,0.60,1.62,0.60,1.64,-1.64,-1.71,-1.51,-1.04,-1.03,-1.03
308.61,0.56,1.55,0.55,1.55,-1.55,-1.63,-1.44,-0.99,-1.00,-1.00
311.69,0.51,1.46,0.50,1.46,-1.47,-1.55,-1.36,-0.96,-0.96,-0.96
314.81,0.46,1.38,0.46,1.38,-1.38,-1.47,-1.28,-0.93,-0.92,-0.93
317.96,0.41,1.30,0.41,1.31,-1.30,-1.39,-1.21,-0.90,-0.89,-0.90
321.14,0.37,1.23,0.36,1.23,-1.23,-1.30,-1.13,-0.86,-0.87,-0.87
324.35,0.31,1.15,0.31,1.15,-1.15,-1.21,-1.05,-0.84,-0.84,-0.85
327.59,0.27,1.07,0.27,1.08,-1.08,-1.12,-0.98,-0.82,-0.81,-0.81
330.87,0.24,1.01,0.23,1.01,-1.02,-1.03,-0.90,-0.79,-0.79,-0.78
334.18,0.20,0.95,0.20,0.96,-0.98,-0.93,-0.82,-0.78,-0.77,-0.76
337.52,0.18,0.91,0.17,0.91,-0.93,-0.83,-0.75,-0.76,-0.76,-0.74
340.90,0.15,0.85,0.15,0.86,-0.89,-0.73,-0.67,-0.74,-0.74,-0.71
344.30,0.13,0.81,0.13,0.81,-0.83,-0.62,-0.60,-0.71,-0.70,-0.69
347.75,0.11,0.76,0.13,0.79,-0.76,-0.51,-0.52,-0.65,-0.63,-0.66
351.23,0.11,0.74,0.10,0.74,-0.67,-0.40,-0.45,-0.56,-0.57,-0.64
354.74,0.06,0.68,0.01,0.64,-0.56,-0.28,-0.37,-0.50,-0.55,-0.63
358.28,-0.14,0.46,-0.13,0.48,-0.43,-0.15,-0.30,-0.57,-0.56,-0.61
361.87,-0.32,0.26,-0.31,0.27,-0.28,-0.03,-0.22,-0.60,-0.59,-0.59
365.49,-0.49,0.06,-0.49,0.07,-0.12,0.11,-0.15,-0.61,-0.61,-0.56
369.14,-0.65,-0.11,-0.65,-0.10,0.06,0.25,-0.08,-0.59,-0.59,-0.55
372.83,-0.80,-0.27,-0.81,-0.27,0.25,0.39,-0.00,-0.55,-0.56,-0.54
376.56,-0.95,-0.44,-0.95,-0.44,0.43,0.54,0.07,-0.52,-0.52,-0.52
380.33,-1.10,-0.62,-1.10,-0.61,0.61,0.70,0.14,-0.49,-0.49,-0.49
384.13,-1.24,-0.78,-1.25,-0.78,0.79,0.86,0.22,-0.45,-0.46,-0.47
387.97,-1.40,-0.96,-1.40,-0.96,0.96,1.02,0.29,-0.44,-0.44,-0.45
391.85,-1.55,-1.13,-1.55,-1.13,1.14,1.19,0.36,-0.41,-0.42,-0.43
395.77,-1.71,-1.32,-1.71,-1.31,1.32,1.35,0.43,-0.39,-0.39,-0.40
399.73,-1.87,-1.50,-1.88,-1.49,1.51,1.52,0.50,-0.36,-0.36,-0.38
403.72,-2.04,-1.68,-2.05,-1.69,1.70,1.68,0.57,-0.34,-0.34,-0.37
407.76,-2.22,-1.88,-2.22,-1.88,1.89,1.83,0.64,-0.33,-0.33,-0.35
411.84,-2.39,-2.08,-2.39,-2.07,2.08,1.98,0.71,-0.31,-0.31,-0.32
415.96,-2.54,-2.25,-2.55,-2.25,2.26,2.11,0.77,-0.28,-0.29,-0.30
420.12,-2.68,-2.41,-2.69,-2.41,2.42,2.22,0.84,-0.26,-0.27,-0.28
424.32,-2.80,-2.56,-2.80,-2.55,2.55,2.31,0.90,-0.25,-0.25,-0.25
428.56,-2.88,-2.66,-2.88,-2.66,2.64,2.38,0.97,-0.24,-0.24,-0.23
432.85,-2.92,-2.72,-2.91,-2.71,2.68,2.42,1.03,-0.24,-0.23,-0.21
437.18,-2.89,-2.72,-2.90,-2.73,2.67,2.44,1.09,-0.22,-0.24,-0.18
441.55,-2.82,-2.68,-2.83,-2.67,2.60,2.43,1.14,-0.22,-0.22,-0.15
445.96,-2.71,-2.59,-2.68,-2.55,2.49,2.39,1.20,-0.23,-0.19,-0.13
450.42,-2.46,-2.35,-2.47,-2.37,2.33,2.34,1.25,-0.13,-0.14,-0.12
454.93,-2.22,-2.15,-2.23,-2.14,2.15,2.27,1.31,-0.07,-0.07,-0.08
459.48,-1.96,-1.91,-1.97,-1.92,1.96,2.19,1.35,0.00,-0.01,-0.06
464.07,-1.74,-1.72,-1.75,-1.72,1.78,2.09,1.40,0.04,0.04,-0.03
468.71,-1.55,-1.57,-1.55,-1.56,1.62,1.99,1.44,0.06,0.07,0.01
473.40,-1.39,-1.43,-1.40,-1.44,1.49,1.89,1.48,0.09,0.09,0.03
478.13,-1.28,-1.35,-1.29,-1.35,1.39,1.79,1.52,0.10,0.10,0.06
482.91,-1.21,-1.31,-1.21,-1.31,1.32,1.68,1.55,0.11,0.11,0.09
487.74,-1.16,-1.29,-1.16,-1.29,1.29,1.58,1.58,0.13,0.13,0.12
492.62,-1.13,-1.29,-1.13,-1.28,1.27,1.49,1.61,0.14,0.14,0.15
497.55,-1.10,-1.28,-1.10,-1.28,1.26,1.40,1.63,0.16,0.16,0.17
502.52,-1.07,-1.29,-1.07,-1.28,1.26,1.31,1.65,0.18,0.18,0.21
507.55,-1.03,-1.27,-1.03,-1.27,1.25,1.23,1.67,0.21,0.22,0.23
512.62,-0.98,-1.25,-0.98,-1.25,1.23,1.16,1.68,0.25,0.25,0.26
