frequency,raw,error,smoothed,error_smoothed,equalization,parametric_eq,fixed_band_eq,equalized_raw,equalized_smoothed,target
20.00,16.93,5.78,16.93,5.78,-5.78,-5.80,-3.17,11.15,11.15,11.15
20.20,16.97,5.82,16.96,5.82,-5.82,-5.84,-3.26,11.15,11.15,11.15
20.40,17.00,5.85,17.00,5.86,-5.86,-5.87,-3.35,11.14,11.14,11.14
20.61,17.04,5.89,17.04,5.90,-5.90,-5.91,-3.44,11.14,11.14,11.14
20.81,17.08,5.94,17.07,5.94,-5.94,-5.94,-3.54,11.14,11.14,11.13
21.02,17.12,5.98,17.11,5.97,-5.97,-5.98,-3.63,11.14,11.14,11.13
21.23,17.14,6.01,17.15,6.01,-6.01,-6.01,-3.73,11.12,11.13,11.13
21.44,17.18,6.04,17.18,6.05,-6.05,-6.04,-3.84,11.13,11.13,11.14
21.66,17.21,6.08,17.21,6.09,-6.09,-6.08,-3.94,11.12,11.13,11.13
21.87,17.25,6.12,17.25,6.13,-6.13,-6.11,-4.05,11.12,11.12,11.13
22.09,17.28,6.16,17.28,6.16,-6.16,-6.14,-4.16,11.11,11.12,11.12
22.31,17.32,6.20,17.31,6.20,-6.20,-6.18,-4.28,11.12,11.11,11.12
22.54,17.35,6.24,17.34,6.24,-6.24,-6.21,-4.39,11.11,11.11,11.11
22.76,17.38,6.27,17.38,6.27,-6.27,-6.24,-4.51,11.10,11.10,11.10
22.99,17.41,6.30,17.41,6.31,-6.31,-6.27,-4.64,11.10,11.10,11.10
23.22,17.44,6.35,17.44,6.34,-6.34,-6.30,-4.76,11.09,11.09,11.09
23.45,17.47,6.38,17.47,6.38,-6.38,-6.33,-4.89,11.09,11.09,11.09
23.69,17.50,6.42,17.50,6.42,-6.42,-6.36,-5.02,11.08,11.08,11.08
23.92,17.53,6.46,17.53,6.45,-6.45,-6.39,-5.16,11.08,11.07,11.07
24.16,17.56,6.49,17.55,6.48,-6.48,-6.42,-5.30,11.07,11.07,11.07
24.40,17.58,6.51,17.58,6.51,-6.51,-6.45,-5.44,11.06,11.07,11.06
24.65,17.61,6.54,17.61,6.54,-6.54,-6.48,-5.58,11.06,11.06,11.06
24.89,17.63,6.57,17.63,6.57,-6.57,-6.51,-5.72,11.06,11.06,11.06
25.14,17.66,6.60,17.66,6.60,-6.60,-6.54,-5.87,11.06,11.06,11.06
25.39,17.68,6.63,17.68,6.63,-6.63,-6.57,-6.02,11.05,11.05,11.05
25.65,17.70,6.65,17.70,6.65,-6.65,-6.59,-6.17,11.05,11.05,11.05
25.91,17.73,6.68,17.72,6.67,-6.67,-6.62,-6.31,11.05,11.05,11.04
26.16,17.75,6.70,17.75,6.70,-6.70,-6.65,-6.46,11.05,11.05,11.05
26.43,17.77,6.72,17.77,6.72,-6.72,-6.67,-6.61,11.05,11.05,11.05
26.69,17.79,6.74,17.79,6.74,-6.74,-6.70,-6.76,11.05,11.05,11.05
26.96,17.81,6.76,17.81,6.76,-6.76,-6.72,-6.91,11.05,11.05,11.05
27.23,17.83,6.78,17.82,6.78,-6.78,-6.75,-7.05,11.04,11.04,11.04
27.50,17.84,6.80,17.84,6.80,-6.80,-6.77,-7.20,11.03,11.04,11.04
27.77,17.86,6.81,17.86,6.82,-6.82,-6.80,-7.34,11.03,11.04,11.05
28.05,17.88,6.84,17.88,6.84,-6.84,-6.82,-7.47,11.04,11.03,11.04
28.33,17.89,6.85,17.89,6.86,-6.86,-6.84,-7.60,11.03,11.03,11.03
28.62,17.91,6.89,17.90,6.88,-6.88,-6.87,-7.72,11.03,11.02,11.02
28.90,17.92,6.89,17.92,6.90,-6.90,-6.89,-7.84,11.02,11.02,11.03
29.19,17.94,6.92,17.93,6.92,-6.92,-6.91,-7.95,11.02,11.01,11.01
29.48,17.94,6.94,17.94,6.93,-6.93,-6.93,-8.04,11.00,11.00,11.00
29.78,17.96,6.96,17.95,6.95,-6.95,-6.95,-8.13,11.01,11.00,11.00
30.08,17.96,6.96,17.96,6.97,-6.97,-6.97,-8.21,10.99,10.99,10.99
30.38,17.97,6.99,17.97,6.98,-6.98,-6.99,-8.28,10.99,10.99,10.98
30.68,17.98,7.00,17.98,6.99,-6.99,-7.01,-8.34,10.98,10.98,10.98
30.99,17.98,7.00,17.98,7.00,-7.00,-7.03,-8.39,10.97,10.98,10.97
31.30,17.99,7.02,17.99,7.01,-7.01,-7.05,-8.42,10.97,10.97,10.97
31.61,17.99,7.02,17.99,7.02,-7.02,-7.07,-8.44,10.96,10.97,10.96
31.93,18.00,7.04,18.00,7.03,-7.03,-7.09,-8.46,10.97,10.97,10.96
32.24,18.00,7.03,18.00,7.04,-7.04,-7.10,-8.46,10.96,10.96,10.96
32.57,18.01,7.06,18.00,7.05,-7.05,-7.12,-8.45,10.96,10.96,10.95
32.89,18.01,7.05,18.01,7.05,-7.05,-7.14,-8.43,10.95,10.95,10.96
33.22,18.01,7.06,18.01,7.06,-7.06,-7.15,-8.40,10.95,10.95,10.95
33.55,18.01,7.06,18.01,7.07,-7.07,-7.17,-8.36,10.94,10.94,10.94
33.89,18.01,7.08,18.01,7.08,-7.08,-7.18,-8.31,10.93,10.93,10.93
34.23,18.01,7.09,18.00,7.09,-7.09,-7.20,-8.26,10.92,10.92,10.91
34.57,18.01,7.10,18.00,7.10,-7.10,-7.21,-8.20,10.91,10.90,10.91
34.92,18.00,7.12,18.00,7.11,-7.11,-7.23,-8.13,10.88,10.88,10.88
35.27,17.99,7.11,17.99,7.13,-7.13,-7.24,-8.07,10.86,10.86,10.88
35.62,17.99,7.15,17.98,7.14,-7.14,-7.26,-8.00,10.84,10.84,10.84
35.97,17.97,7.15,17.98,7.16,-7.16,-7.27,-7.92,10.81,10.81,10.82
36.33,17.97,7.17,17.97,7.18,-7.18,-7.28,-7.85,10.79,10.79,10.79
36.70,17.96,7.20,17.96,7.20,-7.20,-7.29,-7.77,10.76,10.76,10.76
37.06,17.95,7.22,17.95,7.22,-7.22,-7.30,-7.70,10.73,10.73,10.73
37.43,17.93,7.24,17.93,7.24,-7.24,-7.32,-7.62,10.69,10.70,10.69
37.81,17.93,7.26,17.92,7.26,-7.26,-7.33,-7.55,10.67,10.66,10.66
38.19,17.91,7.28,17.91,7.28,-7.28,-7.34,-7.47,10.63,10.63,10.62
38.57,17.90,7.30,17.89,7.30,-7.30,-7.35,-7.40,10.60,10.60,10.60
38.95,17.88,7.31,17.88,7.31,-7.31,-7.36,-7.34,10.56,10.57,10.57
39.34,17.87,7.34,17.86,7.33,-7.33,-7.37,-7.27,10.54,10.53,10.53
39.74,17.85,7.35,17.84,7.34,-7.34,-7.37,-7.21,10.50,10.50,10.50
40.14,17.83,7.36,17.83,7.35,-7.35,-7.38,-7.16,10.47,10.47,10.47
40.54,17.80,7.35,17.81,7.37,-7.37,-7.39,-7.11,10.43,10.44,10.44
40.94,17.79,7.37,17.79,7.37,-7.37,-7.40,-7.06,10.41,10.41,10.41
41.35,17.77,7.39,17.76,7.38,-7.38,-7.41,-7.01,10.39,10.39,10.38
41.76,17.74,7.39,17.74,7.38,-7.38,-7.41,-6.98,10.35,10.36,10.35
42.18,17.72,7.38,17.71,7.38,-7.38,-7.42,-6.94,10.33,10.33,10.34
42.60,17.69,7.38,17.69,7.39,-7.39,-7.43,-6.91,10.30,10.30,10.30
43.03,17.67,7.40,17.66,7.39,-7.39,-7.43,-6.89,10.28,10.28,10.27
43.46,17.64,7.39,17.63,7.39,-7.39,-7.44,-6.87,10.25,10.25,10.25
43.90,17.61,7.39,17.61,7.38,-7.38,-7.45,-6.86,10.22,10.22,10.22
44.33,17.58,7.39,17.58,7.38,-7.38,-7.45,-6.85,10.19,10.19,10.19
44.78,17.55,7.39,17.54,7.38,-7.38,-7.46,-6.85,10.16,10.16,10.16
45.23,17.51,7.36,17.51,7.39,-7.39,-7.46,-6.85,10.12,10.13,10.14
45.68,17.48,7.38,17.48,7.39,-7.39,-7.46,-6.85,10.09,10.09,10.10
46.13,17.45,7.40,17.45,7.39,-7.39,-7.47,-6.87,10.06,10.06,10.05
46.60,17.41,7.38,17.41,7.39,-7.39,-7.47,-6.88,10.01,10.02,10.02
47.06,17.38,7.39,17.38,7.40,-7.40,-7.48,-6.90,9.98,9.98,9.98
47.53,17.34,7.39,17.34,7.41,-7.41,-7.48,-6.93,9.93,9.93,9.94
48.01,17.31,7.42,17.30,7.42,-7.42,-7.48,-6.96,9.89,9.89,9.89
48.49,17.27,7.42,17.26,7.42,-7.42,-7.48,-7.00,9.84,9.84,9.84
48.97,17.23,7.43,17.23,7.43,-7.43,-7.49,-7.04,9.79,9.79,9.79
49.46,17.19,7.44,17.19,7.44,-7.44,-7.49,-7.08,9.74,9.74,9.75
49.96,17.15,7.47,17.14,7.45,-7.45,-7.49,-7.13,9.70,9.69,9.68
50.46,17.10,7.46,17.10,7.46,-7.46,-7.49,-7.18,9.64,9.64,9.63
50.96,17.06,7.48,17.06,7.47,-7.47,-7.49,-7.23,9.59,9.59,9.58
51.47,17.02,7.48,17.01,7.48,-7.48,-7.49,-7.28,9.54,9.54,9.54
51.99,16.97,7.49,16.97,7.48,-7.48,-7.50,-7.34,9.48,9.49,9.48
52.51,16.93,7.49,16.92,7.49,-7.49,-7.50,-7.40,9.44,9.43,9.43
53.03,16.88,7.48,16.87,7.49,-7.49,-7.50,-7.46,9.38,9.38,9.39
53.56,16.82,7.48,16.82,7.50,-7.50,-7.50,-7.53,9.32,9.33,9.34
54.10,16.78,7.50,16.77,7.50,-7.50,-7.50,-7.59,9.28,9.28,9.28
54.64,16.72,7.49,16.72,7.50,-7.50,-7.50,-7.65,9.22,9.23,9.23
55.18,16.68,7.51,16.67,7.49,-7.49,-7.50,-7.71,9.19,9.18,9.16
55.74,16.62,7.51,16.61,7.49,-7.49,-7.49,-7.77,9.13,9.13,9.11
56.29,16.56,7.49,16.56,7.48,-7.48,-7.49,-7.83,9.08,9.08,9.07
56.86,16.50,7.47,16.50,7.48,-7.48,-7.49,-7.88,9.02,9.03,9.02
57.42,16.45,7.49,16.45,7.47,-7.47,-7.49,-7.93,8.97,8.97,8.96
58.00,16.39,7.48,16.39,7.47,-7.47,-7.49,-7.98,8.92,8.92,8.91
58.58,16.34,7.46,16.33,7.47,-7.47,-7.49,-8.02,8.87,8.86,8.87
59.16,16.27,7.44,16.27,7.47,-7.47,-7.49,-8.06,8.80,8.80,8.83
59.76,16.22,7.44,16.22,7.47,-7.47,-7.48,-8.09,8.75,8.74,8.78
60.35,16.16,7.45,16.16,7.47,-7.47,-7.48,-8.11,8.68,8.68,8.70
60.96,16.10,7.46,16.10,7.48,-7.48,-7.48,-8.13,8.62,8.62,8.64
61.57,16.04,7.48,16.04,7.48,-7.48,-7.48,-8.14,8.56,8.56,8.56
62.18,15.98,7.49,15.98,7.48,-7.48,-7.47,-8.14,8.49,8.50,8.48
62.80,15.93,7.51,15.92,7.49,-7.49,-7.47,-8.14,8.44,8.43,8.42
63.43,15.86,7.52,15.86,7.49,-7.49,-7.47,-8.12,8.36,8.36,8.34
64.07,15.80,7.51,15.80,7.50,-7.50,-7.46,-8.10,8.30,8.30,8.28
64.71,15.74,7.51,15.73,7.50,-7.50,-7.46,-8.07,8.24,8.23,8.22
65.35,15.67,7.50,15.67,7.50,-7.50,-7.46,-8.04,8.16,8.17,8.16
66.01,15.61,7.51,15.61,7.51,-7.51,-7.45,-8.00,8.10,8.10,8.10
66.67,15.55,7.50,15.54,7.50,-7.50,-7.45,-7.95,8.04,8.03,8.05
67.33,15.47,7.49,15.47,7.50,-7.50,-7.45,-7.90,7.97,7.97,7.97
68.01,15.40,7.49,15.40,7.50,-7.50,-7.44,-7.84,7.90,7.91,7.91
68.69,15.34,7.50,15.34,7.49,-7.49,-7.44,-7.78,7.84,7.84,7.84
69.37,15.27,7.49,15.27,7.49,-7.49,-7.43,-7.71,7.78,7.78,7.78
70.07,15.20,7.48,15.20,7.49,-7.49,-7.43,-7.65,7.71,7.71,7.72
70.77,15.13,7.48,15.12,7.48,-7.48,-7.42,-7.57,7.65,7.64,7.65
71.48,15.06,7.48,15.05,7.48,-7.48,-7.42,-7.50,7.58,7.57,7.58
72.19,14.98,7.47,14.98,7.47,-7.47,-7.41,-7.43,7.50,7.51,7.50
72.91,14.91,7.47,14.91,7.47,-7.47,-7.41,-7.36,7.44,7.44,7.44
73.64,14.83,7.46,14.83,7.46,-7.46,-7.40,-7.28,7.36,7.37,7.36
74.38,14.76,7.46,14.76,7.45,-7.45,-7.40,-7.21,7.30,7.30,7.30
75.12,14.69,7.46,14.68,7.45,-7.45,-7.39,-7.14,7.24,7.24,7.23
75.87,14.61,7.43,14.61,7.43,-7.43,-7.39,-7.07,7.17,7.17,7.18
76.63,14.54,7.43,14.53,7.42,-7.42,-7.38,-7.00,7.11,7.11,7.10
77.40,14.46,7.41,14.45,7.41,-7.41,-7.38,-6.93,7.05,7.04,7.04
78.17,14.38,7.41,14.38,7.40,-7.40,-7.37,-6.87,6.98,6.98,6.97
78.95,14.30,7.37,14.30,7.38,-7.38,-7.36,-6.81,6.91,6.91,6.92
79.74,14.22,7.36,14.22,7.37,-7.37,-7.36,-6.76,6.85,6.85,6.86
80.54,14.14,7.35,14.14,7.35,-7.35,-7.35,-6.70,6.79,6.79,6.79
81.35,14.07,7.34,14.06,7.33,-7.33,-7.34,-6.65,6.73,6.73,6.73
82.16,13.98,7.31,13.98,7.32,-7.32,-7.34,-6.61,6.66,6.66,6.67
82.98,13.90,7.30,13.90,7.30,-7.30,-7.33,-6.57,6.60,6.60,6.60
83.81,13.83,7.29,13.82,7.28,-7.28,-7.32,-6.53,6.54,6.54,6.54
84.65,13.75,7.28,13.74,7.27,-7.27,-7.32,-6.50,6.48,6.47,6.47
85.50,13.66,7.26,13.66,7.25,-7.25,-7.31,-6.48,6.41,6.41,6.40
86.35,13.58,7.23,13.58,7.23,-7.23,-7.30,-6.45,6.35,6.34,6.35
87.22,13.49,7.21,13.49,7.21,-7.21,-7.29,-6.44,6.27,6.28,6.28
88.09,13.41,7.19,13.41,7.20,-7.20,-7.29,-6.43,6.21,6.21,6.21
88.97,13.33,7.18,13.33,7.18,-7.18,-7.28,-6.42,6.15,6.15,6.15
89.86,13.25,7.17,13.24,7.17,-7.17,-7.27,-6.41,6.08,6.08,6.08
90.76,13.16,7.15,13.16,7.15,-7.15,-7.26,-6.42,6.01,6.01,6.01
91.66,13.08,7.14,13.07,7.14,-7.14,-7.25,-6.42,5.94,5.94,5.94
92.58,12.99,7.12,12.99,7.13,-7.13,-7.25,-6.43,5.86,5.86,5.87
93.51,12.91,7.11,12.90,7.12,-7.12,-7.24,-6.45,5.79,5.79,5.80
94.44,12.82,7.09,12.82,7.11,-7.11,-7.23,-6.47,5.71,5.71,5.72
95.39,12.74,7.10,12.73,7.10,-7.10,-7.22,-6.49,5.64,5.63,5.64
96.34,12.65,7.09,12.65,7.09,-7.09,-7.21,-6.52,5.55,5.56,5.56
97.30,12.56,7.07,12.56,7.08,-7.08,-7.20,-6.55,5.47,5.48,5.48
98.28,12.48,7.09,12.48,7.08,-7.08,-7.19,-6.59,5.40,5.40,5.39
99.26,12.39,7.08,12.39,7.07,-7.07,-7.18,-6.63,5.32,5.32,5.31
100.25,12.31,7.07,12.30,7.06,-7.06,-7.17,-6.67,5.25,5.24,5.23
101.25,12.22,7.06,12.21,7.05,-7.05,-7.16,-6.72,5.17,5.17,5.16
102.27,12.13,7.05,12.13,7.04,-7.04,-7.15,-6.77,5.09,5.09,5.08
103.29,12.04,7.03,12.04,7.03,-7.03,-7.14,-6.82,5.01,5.01,5.01
104.32,11.96,7.02,11.95,7.01,-7.01,-7.13,-6.87,4.94,4.94,4.94
105.37,11.87,7.00,11.87,7.00,-7.00,-7.12,-6.93,4.87,4.87,4.87
106.42,11.78,6.98,11.78,6.98,-6.98,-7.11,-6.98,4.80,4.80,4.80
107.48,11.69,6.97,11.69,6.97,-6.97,-7.10,-7.04,4.72,4.72,4.72
108.56,11.60,6.95,11.60,6.95,-6.95,-7.09,-7.09,4.65,4.65,4.65
109.64,11.51,6.92,11.51,6.93,-6.93,-7.08,-7.15,4.57,4.58,4.58
110.74,11.42,6.91,11.42,6.92,-6.92,-7.07,-7.20,4.50,4.50,4.51
111.85,11.34,6.90,11.33,6.90,-6.90,-7.05,-7.25,4.43,4.43,4.43
112.97,11.25,6.89,11.24,6.89,-6.89,-7.04,-7.30,4.36,4.35,4.36
114.10,11.16,6.87,11.15,6.88,-6.88,-7.03,-7.35,4.28,4.28,4.29
115.24,11.06,6.85,11.06,6.86,-6.86,-7.02,-7.39,4.19,4.20,4.20
116.39,10.97,6.86,10.97,6.85,-6.85,-7.01,-7.43,4.11,4.12,4.11
117.55,10.88,6.84,10.88,6.84,-6.84,-6.99,-7.46,4.03,4.04,4.04
118.73,10.79,6.84,10.79,6.83,-6.83,-6.98,-7.49,3.95,3.95,3.94
119.92,10.70,6.83,10.70,6.83,-6.83,-6.97,-7.51,3.87,3.87,3.86
121.12,10.61,6.82,10.61,6.82,-6.82,-6.95,-7.53,3.79,3.79,3.79
122.33,10.52,6.82,10.52,6.81,-6.81,-6.94,-7.53,3.70,3.70,3.70
123.55,10.43,6.80,10.42,6.81,-6.81,-6.93,-7.53,3.62,3.61,3.62
124.79,10.34,6.79,10.33,6.80,-6.80,-6.91,-7.53,3.54,3.53,3.54
126.03,10.24,6.78,10.24,6.80,-6.80,-6.90,-7.51,3.44,3.44,3.46
127.29,10.15,6.79,10.15,6.79,-6.79,-6.88,-7.49,3.36,3.36,3.36
128.57,10.06,6.78,10.06,6.78,-6.78,-6.87,-7.46,3.28,3.28,3.27
129.85,9.97,6.78,9.96,6.77,-6.77,-6.85,-7.43,3.19,3.19,3.19
131.15,9.88,6.77,9.87,6.76,-6.76,-6.84,-7.39,3.12,3.11,3.10
132.46,9.78,6.76,9.78,6.75,-6.75,-6.82,-7.34,3.03,3.03,3.02
133.79,9.69,6.74,9.69,6.73,-6.73,-6.81,-7.28,2.95,2.95,2.95
135.12,9.60,6.73,9.60,6.72,-6.72,-6.79,-7.22,2.88,2.88,2.87
136.48,9.51,6.70,9.51,6.70,-6.70,-6.77,-7.16,2.81,2.81,2.81
137.84,9.42,6.68,9.42,6.68,-6.68,-6.76,-7.09,2.74,2.74,2.74
139.22,9.33,6.67,9.32,6.66,-6.66,-6.74,-7.02,2.67,2.67,2.66
140.61,9.23,6.62,9.23,6.63,-6.63,-6.72,-6.94,2.59,2.60,2.60
142.02,9.15,6.61,9.14,6.61,-6.61,-6.71,-6.86,2.54,2.54,2.54
143.44,9.06,6.58,9.05,6.58,-6.58,-6.69,-6.79,2.48,2.48,2.47
144.87,8.97,6.55,8.96,6.55,-6.55,-6.67,-6.71,2.42,2.42,2.42
146.32,8.88,6.52,8.88,6.52,-6.52,-6.65,-6.62,2.36,2.36,2.36
147.78,8.79,6.49,8.79,6.49,-6.49,-6.63,-6.54,2.30,2.30,2.30
149.26,8.70,6.46,8.70,6.46,-6.46,-6.61,-6.46,2.24,2.24,2.24
150.75,8.61,6.44,8.61,6.43,-6.43,-6.59,-6.38,2.18,2.18,2.17
152.26,8.53,6.40,8.52,6.40,-6.40,-6.57,-6.31,2.12,2.12,2.12
153.78,8.44,6.38,8.43,6.38,-6.38,-6.55,-6.23,2.06,2.06,2.06
155.32,8.36,6.35,8.35,6.35,-6.35,-6.53,-6.16,2.01,2.00,2.01
156.88,8.26,6.31,8.26,6.32,-6.32,-6.51,-6.08,1.93,1.94,1.94
158.44,8.18,6.30,8.18,6.30,-6.30,-6.49,-6.02,1.88,1.88,1.88
160.03,8.10,6.28,8.10,6.28,-6.28,-6.47,-5.95,1.82,1.82,1.82
161.63,8.01,6.24,8.01,6.26,-6.26,-6.45,-5.89,1.75,1.75,1.76
163.24,7.94,6.25,7.93,6.24,-6.24,-6.43,-5.83,1.69,1.69,1.68
164.88,7.86,6.23,7.86,6.23,-6.23,-6.40,-5.77,1.63,1.63,1.63
166.53,7.78,6.21,7.78,6.21,-6.21,-6.38,-5.72,1.57,1.57,1.56
168.19,7.70,6.19,7.70,6.20,-6.20,-6.36,-5.67,1.50,1.51,1.51
169.87,7.63,6.18,7.63,6.19,-6.19,-6.33,-5.63,1.44,1.44,1.45
171.57,7.56,6.18,7.56,6.18,-6.18,-6.31,-5.59,1.38,1.38,1.38
173.29,7.50,6.18,7.49,6.17,-6.17,-6.28,-5.55,1.33,1.32,1.32
175.02,7.42,6.16,7.42,6.16,-6.16,-6.26,-5.52,1.26,1.26,1.26
176.77,7.36,6.16,7.35,6.15,-6.15,-6.24,-5.49,1.21,1.20,1.20
178.54,7.29,6.14,7.29,6.15,-6.15,-6.21,-5.47,1.14,1.14,1.14
180.32,7.23,6.15,7.22,6.14,-6.14,-6.18,-5.45,1.09,1.08,1.08
182.13,7.16,6.13,7.16,6.13,-6.13,-6.16,-5.43,1.02,1.03,1.03
183.95,7.09,6.11,7.09,6.13,-6.13,-6.13,-5.42,0.96,0.97,0.97
185.79,7.04,6.12,7.03,6.12,-6.12,-6.10,-5.42,0.92,0.91,0.91
187.65,6.97,6.10,6.97,6.12,-6.12,-6.08,-5.41,0.85,0.85,0.86
189.52,6.90,6.09,6.90,6.11,-6.11,-6.05,-5.41,0.79,0.80,0.80
191.42,6.85,6.10,6.84,6.10,-6.10,-6.02,-5.42,0.75,0.74,0.75
193.33,6.79,6.10,6.78,6.09,-6.09,-5.99,-5.42,0.70,0.69,0.69
195.27,6.72,6.08,6.71,6.08,-6.08,-5.96,-5.43,0.64,0.64,0.63
197.22,6.66,6.08,6.65,6.06,-6.06,-5.93,-5.45,0.59,0.59,0.58
199.19,6.59,6.05,6.59,6.05,-6.05,-5.90,-5.46,0.54,0.54,0.53
201.18,6.52,6.04,6.52,6.03,-6.03,-5.87,-5.48,0.48,0.49,0.48
203.19,6.46,6.02,6.46,6.02,-6.02,-5.84,-5.50,0.44,0.44,0.44
205.23,6.39,5.99,6.39,6.00,-6.00,-5.81,-5.53,0.39,0.39,0.40
207.28,6.33,5.97,6.32,5.97,-5.97,-5.78,-5.55,0.35,0.35,0.36
209.35,6.26,5.95,6.26,5.95,-5.95,-5.75,-5.58,0.30,0.31,0.31
211.44,6.20,5.92,6.19,5.93,-5.93,-5.72,-5.61,0.27,0.27,0.27
213.56,6.13,5.90,6.13,5.90,-5.90,-5.68,-5.64,0.23,0.23,0.22
215.69,6.06,5.87,6.06,5.87,-5.87,-5.65,-5.66,0.19,0.19,0.19
217.85,6.00,5.84,5.99,5.84,-5.84,-5.62,-5.69,0.16,0.15,0.15
220.03,5.93,5.82,5.93,5.81,-5.81,-5.58,-5.72,0.12,0.11,0.11
222.23,5.86,5.78,5.86,5.78,-5.78,-5.55,-5.74,0.08,0.08,0.07
224.45,5.79,5.74,5.79,5.75,-5.75,-5.51,-5.77,0.04,0.05,0.04
226.70,5.72,5.71,5.72,5.71,-5.71,-5.48,-5.79,0.01,0.01,0.01
228.96,5.66,5.67,5.65,5.67,-5.67,-5.44,-5.81,-0.02,-0.02,-0.01
231.25,5.60,5.64,5.59,5.64,-5.64,-5.41,-5.82,-0.04,-0.05,-0.04
233.57,5.52,5.59,5.52,5.60,-5.60,-5.37,-5.84,-0.08,-0.08,-0.07
235.90,5.45,5.56,5.45,5.55,-5.55,-5.33,-5.84,-0.11,-0.10,-0.11
238.26,5.38,5.52,5.38,5.51,-5.51,-5.30,-5.85,-0.13,-0.13,-0.14
240.64,5.31,5.46,5.31,5.47,-5.47,-5.26,-5.84,-0.16,-0.15,-0.15
243.05,5.25,5.42,5.24,5.42,-5.42,-5.22,-5.84,-0.17,-0.18,-0.18
245.48,5.18,5.38,5.17,5.37,-5.37,-5.18,-5.82,-0.19,-0.20,-0.20
247.93,5.10,5.33,5.10,5.32,-5.32,-5.14,-5.80,-0.23,-0.22,-0.23
250.41,5.04,5.27,5.04,5.27,-5.27,-5.10,-5.78,-0.24,-0.24,-0.24
252.92,4.97,5.22,4.97,5.22,-5.22,-5.06,-5.74,-0.26,-0.26,-0.25
255.45,4.90,5.17,4.90,5.17,-5.17,-5.02,-5.71,-0.28,-0.28,-0.28
258.00,4.83,5.12,4.83,5.12,-5.12,-4.98,-5.66,-0.30,-0.29,-0.29
260.58,4.76,5.06,4.76,5.07,-5.07,-4.94,-5.61,-0.31,-0.31,-0.30
263.19,4.70,5.02,4.69,5.02,-5.02,-4.90,-5.56,-0.32,-0.33,-0.33
265.82,4.63,4.97,4.63,4.97,-4.97,-4.86,-5.50,-0.34,-0.34,-0.34
268.48,4.56,4.91,4.56,4.92,-4.92,-4.82,-5.43,-0.36,-0.36,-0.35
271.16,4.50,4.87,4.49,4.86,-4.86,-4.77,-5.36,-0.37,-0.37,-0.37
273.87,4.43,4.81,4.43,4.81,-4.81,-4.73,-5.29,-0.39,-0.39,-0.38
276.61,4.36,4.76,4.36,4.76,-4.76,-4.69,-5.21,-0.41,-0.40,-0.41
279.38,4.29,4.71,4.29,4.71,-4.71,-4.64,-5.13,-0.42,-0.42,-0.43
282.17,4.23,4.66,4.23,4.66,-4.66,-4.60,-5.05,-0.43,-0.43,-0.44
284.99,4.17,4.60,4.16,4.61,-4.61,-4.56,-4.96,-0.44,-0.44,-0.44
287.84,4.10,4.54,4.10,4.55,-4.55,-4.51,-4.87,-0.46,-0.45,-0.45
290.72,4.04,4.51,4.04,4.50,-4.50,-4.47,-4.78,-0.46,-0.46,-0.47
293.63,3.98,4.45,3.97,4.45,-4.45,-4.42,-4.69,-0.47,-0.47,-0.47
296.57,3.92,4.40,3.91,4.40,-4.40,-4.37,-4.60,-0.48,-0.48,-0.48
299.53,3.85,4.34,3.85,4.34,-4.34,-4.33,-4.51,-0.49,-0.49,-0.49
302.53,3.79,4.28,3.79,4.29,-4.29,-4.28,-4.42,-0.50,-0.50,-0.50
305.55,3.73,4.23,3.73,4.23,-4.23,-4.23,-4.33,-0.50,-0.51,-0.51
308.61,3.66,4.17,3.67,4.18,-4.18,-4.19,-4.24,-0.52,-0.51,-0.51
311.69,3.61,4.13,3.61,4.12,-4.12,-4.14,-4.16,-0.52,-0.52,-0.52
314.81,3.55,4.07,3.54,4.07,-4.07,-4.09,-4.07,-0.52,-0.52,-0.53
317.96,3.49,4.02,3.48,4.01,-4.01,-4.04,-3.98,-0.53,-0.53,-0.53
321.14,3.43,3.96,3.43,3.96,-3.96,-3.99,-3.90,-0.53,-0.53,-0.53
324.35,3.37,3.91,3.37,3.90,-3.90,-3.95,-3.82,-0.54,-0.54,-0.55
327.59,3.31,3.84,3.31,3.85,-3.85,-3.90,-3.74,-0.54,-0.54,-0.53
330.87,3.25,3.78,3.25,3.79,-3.79,-3.85,-3.66,-0.55,-0.54,-0.54
334.18,3.20,3.75,3.20,3.74,-3.74,-3.80,-3.58,-0.54,-0.54,-0.55
337.52,3.14,3.68,3.14,3.69,-3.69,-3.75,-3.51,-0.55,-0.55,-0.55
340.90,3.09,3.64,3.08,3.63,-3.63,-3.70,-3.44,-0.54,-0.55,-0.55
344.30,3.03,3.57,3.03,3.58,-3.58,-3.65,-3.37,-0.55,-0.55,-0.55
347.75,2.97,3.51,2.97,3.52,-3.52,-3.60,-3.31,-0.55,-0.55,-0.54
351.23,2.93,3.48,2.92,3.47,-3.47,-3.55,-3.24,-0.54,-0.55,-0.56
354.74,2.87,3.41,2.87,3.41,-3.41,-3.49,-3.18,-0.55,-0.55,-0.54
358.28,2.81,3.36,2.81,3.36,-3.36,-3.44,-3.12,-0.56,-0.55,-0.55
361.87,2.77,3.31,2.76,3.31,-3.31,-3.39,-3.06,-0.54,-0.55,-0.55
365.49,2.71,3.26,2.71,3.26,-3.26,-3.34,-3.01,-0.55,-0.55,-0.55
369.14,2.66,3.20,2.66,3.21,-3.21,-3.29,-2.96,-0.55,-0.55,-0.55
372.83,2.61,3.16,2.60,3.16,-3.16,-3.24,-2.91,-0.55,-0.55,-0.55
376.56,2.55,3.10,2.55,3.11,-3.11,-3.18,-2.86,-0.56,-0.55,-0.55
380.33,2.51,3.06,2.50,3.06,-3.06,-3.13,-2.82,-0.55,-0.55,-0.56
384.13,2.46,3.02,2.45,3.01,-3.01,-3.08,-2.77,-0.55,-0.55,-0.56
387.97,2.41,2.96,2.40,2.96,-2.96,-3.02,-2.73,-0.55,-0.55,-0.55
391.85,2.35,2.90,2.35,2.91,-2.91,-2.97,-2.69,-0.56,-0.55,-0.55
395.77,2.31,2.86,2.31,2.86,-2.86,-2.92,-2.65,-0.55,-0.55,-0.56
399.73,2.26,2.82,2.26,2.81,-2.81,-2.86,-2.62,-0.56,-0.55,-0.56
403.72,2.21,2.76,2.21,2.77,-2.77,-2.81,-2.58,-0.56,-0.56,-0.55
407.76,2.17,2.72,2.16,2.72,-2.72,-2.76,-2.55,-0.55,-0.56,-0.56
411.84,2.12,2.67,2.12,2.68,-2.68,-2.70,-2.52,-0.56,-0.56,-0.56
415.96,2.08,2.63,2.07,2.63,-2.63,-2.65,-2.49,-0.55,-0.56,-0.55
420.12,2.03,2.59,2.03,2.59,-2.59,-2.60,-2.46,-0.56,-0.56,-0.56
424.32,1.98,2.54,1.98,2.54,-2.54,-2.54,-2.43,-0.57,-0.56,-0.56
428.56,1.94,2.49,1.94,2.50,-2.50,-2.49,-2.41,-0.56,-0.56,-0.56
432.85,1.90,2.45,1.89,2.46,-2.46,-2.43,-2.38,-0.56,-0.56,-0.56
437.18,1.85,2.42,1.85,2.41,-2.41,-2.38,-2.35,-0.57,-0.57,-0.57
441.55,1.81,2.38,1.80,2.37,-2.37,-2.32,-2.33,-0.56,-0.57,-0.57
445.96,1.76,2.33,1.76,2.33,-2.33,-2.27,-2.30,-0.57,-0.57,-0.57
450.42,1.72,2.29,1.71,2.29,-2.29,-2.22,-2.28,-0.57,-0.57,-0.58
454.93,1.67,2.24,1.67,2.24,-2.24,-2.16,-2.25,-0.58,-0.57,-0.58
459.48,1.63,2.21,1.63,2.20,-2.20,-2.11,-2.22,-0.57,-0.57,-0.58
464.07,1.58,2.15,1.59,2.16,-2.16,-2.05,-2.20,-0.58,-0.58,-0.57
468.71,1.54,2.11,1.54,2.12,-2.12,-2.00,-2.17,-0.58,-0.57,-0.57
473.40,1.51,2.08,1.50,2.08,-2.08,-1.95,-2.14,-0.57,-0.57,-0.57
