frequency,raw,error,smoothed,error_smoothed,equalization,parametric_eq,fixed_band_eq,equalized_raw,equalized_smoothed,target
20.00,4.13,-9.68,4.13,-9.68,9.68,8.90,3.53,13.81,13.80,13.81
20.20,4.19,-9.61,4.19,-9.61,9.61,8.92,3.63,13.79,13.80,13.80
20.40,4.26,-9.53,4.25,-9.53,9.53,8.93,3.73,13.79,13.79,13.79
20.61,4.32,-9.46,4.32,-9.46,9.46,8.94,3.83,13.78,13.78,13.78
20.81,4.38,-9.38,4.38,-9.38,9.39,8.94,3.94,13.76,13.77,13.76
21.02,4.45,-9.30,4.44,-9.31,9.31,8.94,4.05,13.76,13.76,13.75
21.23,4.51,-9.23,4.51,-9.24,9.24,8.93,4.16,13.75,13.75,13.74
21.44,4.57,-9.18,4.57,-9.17,9.17,8.92,4.28,13.74,13.74,13.75
21.66,4.63,-9.10,4.63,-9.11,9.10,8.90,4.40,13.72,13.72,13.73
21.87,4.69,-9.04,4.69,-9.03,9.03,8.88,4.52,13.71,13.71,13.73
22.09,4.76,-8.95,4.75,-8.96,8.95,8.84,4.64,13.71,13.71,13.71
22.31,4.82,-8.88,4.82,-8.88,8.88,8.81,4.77,13.70,13.70,13.70
22.54,4.89,-8.80,4.88,-8.81,8.81,8.77,4.90,13.69,13.69,13.69
22.76,4.95,-8.74,4.95,-8.73,8.74,8.72,5.04,13.69,13.69,13.69
22.99,5.02,-8.66,5.01,-8.66,8.67,8.67,5.18,13.68,13.68,13.68
23.22,5.08,-8.59,5.08,-8.60,8.60,8.61,5.32,13.68,13.68,13.67
23.45,5.14,-8.54,5.14,-8.53,8.54,8.55,5.47,13.67,13.67,13.68
23.69,5.20,-8.47,5.20,-8.47,8.47,8.49,5.61,13.67,13.67,13.67
23.92,5.26,-8.40,5.26,-8.41,8.41,8.42,5.77,13.67,13.67,13.66
24.16,5.32,-8.35,5.32,-8.35,8.35,8.35,5.92,13.66,13.66,13.67
24.40,5.38,-8.29,5.38,-8.29,8.28,8.28,6.08,13.66,13.66,13.67
24.65,5.44,-8.22,5.44,-8.23,8.22,8.20,6.24,13.65,13.65,13.66
24.89,5.50,-8.16,5.50,-8.16,8.16,8.13,6.40,13.65,13.65,13.66
25.14,5.56,-8.09,5.56,-8.09,8.09,8.05,6.57,13.65,13.65,13.65
25.39,5.63,-8.02,5.62,-8.02,8.03,7.97,6.74,13.66,13.65,13.65
25.65,5.69,-7.96,5.69,-7.96,7.97,7.90,6.91,13.65,13.65,13.65
25.91,5.75,-7.90,5.75,-7.90,7.90,7.83,7.08,13.65,13.65,13.65
26.16,5.81,-7.85,5.81,-7.85,7.84,7.75,7.25,13.65,13.65,13.66
26.43,5.87,-7.78,5.87,-7.78,7.78,7.69,7.42,13.65,13.65,13.65
26.69,5.93,-7.72,5.93,-7.72,7.72,7.62,7.59,13.65,13.65,13.65
26.96,5.99,-7.66,5.98,-7.66,7.66,7.56,7.75,13.65,13.65,13.65
27.23,6.05,-7.60,6.04,-7.61,7.61,7.50,7.92,13.65,13.65,13.65
27.50,6.10,-7.55,6.10,-7.55,7.55,7.44,8.08,13.65,13.65,13.65
27.77,6.16,-7.50,6.15,-7.50,7.50,7.39,8.24,13.66,13.65,13.66
28.05,6.21,-7.44,6.21,-7.44,7.45,7.34,8.39,13.65,13.65,13.65
28.33,6.27,-7.39,6.26,-7.39,7.39,7.30,8.53,13.66,13.66,13.66
28.62,6.32,-7.34,6.32,-7.34,7.34,7.26,8.67,13.66,13.66,13.66
28.90,6.38,-7.29,6.37,-7.29,7.29,7.22,8.79,13.66,13.66,13.67
29.19,6.43,-7.24,6.43,-7.24,7.23,7.18,8.91,13.66,13.66,13.67
29.48,6.49,-7.17,6.48,-7.18,7.18,7.15,9.01,13.66,13.66,13.66
29.78,6.54,-7.12,6.54,-7.12,7.12,7.12,9.10,13.66,13.66,13.66
30.08,6.59,-7.07,6.59,-7.06,7.07,7.09,9.17,13.65,13.65,13.66
30.38,6.64,-7.00,6.64,-7.01,7.01,7.06,9.23,13.65,13.65,13.64
30.68,6.69,-6.95,6.69,-6.95,6.96,7.03,9.27,13.64,13.64,13.64
30.99,6.74,-6.90,6.73,-6.90,6.91,7.00,9.30,13.64,13.64,13.64
31.30,6.78,-6.86,6.78,-6.86,6.86,6.97,9.31,13.63,13.63,13.64
31.61,6.82,-6.81,6.82,-6.81,6.81,6.94,9.30,13.62,13.62,13.63
31.93,6.86,-6.75,6.86,-6.76,6.76,6.91,9.27,13.62,13.62,13.61
32.24,6.90,-6.72,6.90,-6.71,6.71,6.87,9.23,13.61,13.61,13.62
32.57,6.94,-6.66,6.94,-6.67,6.67,6.84,9.17,13.60,13.60,13.60
32.89,6.98,-6.62,6.98,-6.62,6.62,6.80,9.10,13.60,13.60,13.60
33.22,7.02,-6.57,7.02,-6.57,6.57,6.77,9.01,13.59,13.59,13.59
33.55,7.06,-6.53,7.06,-6.53,6.53,6.73,8.91,13.58,13.58,13.59
33.89,7.10,-6.48,7.10,-6.48,6.48,6.69,8.80,13.58,13.58,13.58
34.23,7.14,-6.42,7.13,-6.43,6.43,6.65,8.68,13.57,13.57,13.56
34.57,7.17,-6.39,7.17,-6.39,6.39,6.61,8.55,13.55,13.56,13.56
34.92,7.21,-6.33,7.21,-6.34,6.34,6.56,8.41,13.55,13.55,13.54
35.27,7.25,-6.31,7.25,-6.30,6.29,6.52,8.27,13.54,13.54,13.56
35.62,7.29,-6.24,7.29,-6.25,6.25,6.47,8.12,13.53,13.53,13.53
35.97,7.33,-6.20,7.32,-6.20,6.20,6.42,7.97,13.53,13.52,13.53
36.33,7.36,-6.15,7.36,-6.15,6.15,6.37,7.82,13.51,13.51,13.51
36.70,7.39,-6.10,7.39,-6.10,6.11,6.32,7.66,13.49,13.49,13.49
37.06,7.42,-6.05,7.41,-6.05,6.06,6.26,7.51,13.47,13.47,13.47
37.43,7.45,-6.00,7.44,-6.01,6.01,6.21,7.35,13.45,13.45,13.45
37.81,7.47,-5.97,7.47,-5.96,5.96,6.15,7.19,13.42,13.43,13.44
38.19,7.51,-5.90,7.50,-5.91,5.90,6.10,7.04,13.41,13.41,13.41
38.57,7.54,-5.85,7.54,-5.86,5.85,6.04,6.88,13.39,13.39,13.39
38.95,7.58,-5.80,7.57,-5.80,5.80,5.98,6.73,13.37,13.37,13.38
39.34,7.61,-5.74,7.60,-5.74,5.74,5.92,6.58,13.35,13.35,13.35
39.74,7.64,-5.68,7.64,-5.69,5.69,5.86,6.44,13.32,13.32,13.32
40.14,7.67,-5.63,7.67,-5.63,5.63,5.79,6.29,13.30,13.30,13.30
40.54,7.71,-5.57,7.70,-5.57,5.58,5.73,6.16,13.28,13.28,13.28
40.94,7.74,-5.51,7.73,-5.52,5.52,5.67,6.02,13.26,13.25,13.25
41.35,7.77,-5.47,7.77,-5.47,5.46,5.60,5.89,13.23,13.23,13.24
41.76,7.80,-5.41,7.80,-5.41,5.41,5.54,5.76,13.21,13.21,13.21
42.18,7.84,-5.36,7.83,-5.36,5.35,5.48,5.63,13.19,13.19,13.20
42.60,7.87,-5.30,7.87,-5.30,5.30,5.41,5.51,13.17,13.17,13.17
43.03,7.91,-5.24,7.90,-5.24,5.25,5.34,5.39,13.15,13.15,13.15
43.46,7.93,-5.18,7.93,-5.19,5.20,5.28,5.28,13.12,13.12,13.11
43.90,7.95,-5.14,7.95,-5.14,5.14,5.21,5.17,13.09,13.09,13.09
44.33,7.98,-5.08,7.97,-5.09,5.09,5.15,5.06,13.06,13.06,13.06
44.78,8.00,-5.04,8.00,-5.04,5.03,5.08,4.96,13.03,13.03,13.04
45.23,8.03,-4.99,8.03,-4.98,4.97,5.01,4.86,13.00,13.00,13.02
45.68,8.06,-4.91,8.06,-4.92,4.92,4.95,4.77,12.97,12.97,12.97
46.13,8.09,-4.85,8.09,-4.85,4.86,4.88,4.68,12.94,12.94,12.94
46.60,8.12,-4.78,8.11,-4.79,4.79,4.81,4.59,12.91,12.91,12.90
47.06,8.14,-4.73,8.14,-4.73,4.73,4.75,4.51,12.86,12.87,12.87
47.53,8.17,-4.66,8.16,-4.66,4.66,4.68,4.43,12.82,12.82,12.83
48.01,8.19,-4.59,8.19,-4.59,4.59,4.61,4.35,12.77,12.78,12.78
48.49,8.22,-4.52,8.22,-4.52,4.52,4.54,4.28,12.73,12.73,12.74
48.97,8.25,-4.44,8.25,-4.45,4.45,4.48,4.20,12.69,12.69,12.69
49.46,8.28,-4.38,8.28,-4.37,4.38,4.41,4.14,12.65,12.65,12.66
49.96,8.31,-4.29,8.30,-4.30,4.31,4.34,4.07,12.61,12.61,12.60
50.46,8.33,-4.24,8.33,-4.24,4.24,4.28,4.01,12.57,12.57,12.57
50.96,8.36,-4.17,8.35,-4.17,4.17,4.21,3.95,12.53,12.53,12.53
51.47,8.38,-4.11,8.38,-4.11,4.11,4.15,3.89,12.49,12.49,12.49
51.99,8.40,-4.04,8.40,-4.05,4.04,4.08,3.84,12.44,12.44,12.44
52.51,8.43,-3.98,8.42,-3.99,3.98,4.01,3.78,12.41,12.40,12.41
53.03,8.45,-3.93,8.44,-3.92,3.92,3.95,3.73,12.36,12.36,12.38
53.56,8.47,-3.86,8.47,-3.86,3.85,3.88,3.68,12.32,12.32,12.33
54.10,8.49,-3.79,8.49,-3.79,3.79,3.82,3.63,12.28,12.28,12.28
54.64,8.52,-3.72,8.51,-3.73,3.74,3.75,3.58,12.25,12.25,12.24
55.18,8.53,-3.67,8.53,-3.67,3.68,3.69,3.53,12.21,12.20,12.20
55.74,8.54,-3.61,8.54,-3.62,3.63,3.62,3.49,12.16,12.16,12.15
56.29,8.55,-3.58,8.55,-3.58,3.58,3.56,3.44,12.12,12.12,12.13
56.86,8.56,-3.53,8.55,-3.53,3.53,3.49,3.40,12.09,12.08,12.09
57.42,8.56,-3.48,8.56,-3.48,3.48,3.43,3.35,12.04,12.05,12.04
58.00,8.57,-3.43,8.57,-3.44,3.44,3.36,3.30,12.01,12.00,12.00
58.58,8.58,-3.39,8.57,-3.40,3.39,3.30,3.26,11.97,11.96,11.97
59.16,8.58,-3.36,8.58,-3.35,3.34,3.24,3.21,11.92,11.92,11.94
59.76,8.60,-3.29,8.59,-3.30,3.28,3.17,3.16,11.88,11.88,11.89
60.35,8.61,-3.23,8.60,-3.23,3.22,3.11,3.11,11.83,11.83,11.84
60.96,8.62,-3.16,8.62,-3.16,3.16,3.05,3.06,11.78,11.78,11.78
61.57,8.63,-3.09,8.63,-3.09,3.10,2.99,3.01,11.73,11.73,11.72
62.18,8.64,-3.02,8.64,-3.02,3.03,2.92,2.96,11.67,11.67,11.66
62.80,8.65,-2.95,8.64,-2.96,2.97,2.86,2.91,11.61,11.61,11.60
63.43,8.65,-2.90,8.65,-2.90,2.90,2.80,2.85,11.55,11.55,11.55
64.07,8.66,-2.84,8.66,-2.84,2.83,2.74,2.80,11.49,11.49,11.50
64.71,8.68,-2.77,8.68,-2.77,2.76,2.68,2.74,11.44,11.44,11.45
65.35,8.70,-2.69,8.70,-2.70,2.69,2.61,2.68,11.39,11.39,11.39
66.01,8.73,-2.61,8.72,-2.62,2.62,2.55,2.62,11.34,11.34,11.34
66.67,8.75,-2.55,8.75,-2.54,2.54,2.49,2.56,11.29,11.29,11.30
67.33,8.77,-2.46,8.77,-2.46,2.47,2.43,2.49,11.23,11.24,11.23
68.01,8.80,-2.38,8.79,-2.39,2.39,2.37,2.43,11.19,11.18,11.18
68.69,8.82,-2.31,8.82,-2.31,2.31,2.31,2.36,11.13,11.13,11.13
69.37,8.84,-2.24,8.84,-2.24,2.23,2.25,2.30,11.07,11.07,11.08
70.07,8.86,-2.16,8.86,-2.16,2.15,2.19,2.23,11.01,11.01,11.02
70.77,8.88,-2.07,8.88,-2.08,2.07,2.13,2.16,10.95,10.95,10.95
71.48,8.90,-2.00,8.90,-2.00,2.00,2.07,2.09,10.89,10.89,10.90
72.19,8.92,-1.92,8.92,-1.92,1.92,2.01,2.02,10.84,10.84,10.84
72.91,8.94,-1.83,8.93,-1.84,1.85,1.95,1.95,10.78,10.78,10.77
73.64,8.95,-1.77,8.94,-1.77,1.78,1.89,1.88,10.72,10.72,10.72
74.38,8.95,-1.71,8.95,-1.71,1.72,1.83,1.81,10.66,10.67,10.66
75.12,8.96,-1.65,8.95,-1.65,1.66,1.77,1.74,10.61,10.61,10.61
75.87,8.96,-1.60,8.95,-1.60,1.61,1.71,1.67,10.56,10.56,10.56
76.63,8.95,-1.55,8.95,-1.56,1.56,1.65,1.60,10.50,10.50,10.50
77.40,8.94,-1.52,8.94,-1.52,1.51,1.59,1.53,10.45,10.45,10.46
78.17,8.93,-1.47,8.93,-1.47,1.47,1.53,1.46,10.39,10.40,10.40
78.95,8.93,-1.43,8.93,-1.43,1.42,1.48,1.39,10.35,10.35,10.36
79.74,8.93,-1.38,8.93,-1.38,1.38,1.42,1.32,10.30,10.30,10.31
80.54,8.93,-1.33,8.93,-1.33,1.33,1.36,1.25,10.26,10.26,10.26
81.35,8.93,-1.27,8.93,-1.28,1.28,1.30,1.18,10.21,10.21,10.20
82.16,8.93,-1.24,8.93,-1.23,1.23,1.24,1.12,10.16,10.16,10.17
82.98,8.93,-1.18,8.93,-1.18,1.18,1.18,1.05,10.11,10.11,10.11
83.81,8.93,-1.13,8.93,-1.13,1.13,1.13,0.98,10.05,10.05,10.06
84.65,8.93,-1.07,8.93,-1.07,1.07,1.07,0.91,10.00,10.00,10.00
85.50,8.93,-1.01,8.93,-1.02,1.02,1.01,0.84,9.95,9.95,9.94
86.35,8.93,-0.96,8.93,-0.96,0.96,0.95,0.78,9.89,9.89,9.89
87.22,8.93,-0.91,8.93,-0.91,0.91,0.89,0.71,9.83,9.83,9.84
88.09,8.93,-0.85,8.93,-0.85,0.85,0.84,0.64,9.78,9.78,9.78
88.97,8.93,-0.79,8.93,-0.80,0.79,0.78,0.58,9.72,9.72,9.72
89.86,8.93,-0.74,8.93,-0.74,0.74,0.72,0.51,9.66,9.66,9.67
90.76,8.93,-0.68,8.93,-0.68,0.68,0.66,0.45,9.61,9.61,9.61
91.66,8.93,-0.61,8.93,-0.62,0.62,0.60,0.38,9.55,9.55,9.54
92.58,8.93,-0.56,8.93,-0.56,0.56,0.55,0.32,9.49,9.49,9.49
93.51,8.93,-0.51,8.93,-0.51,0.50,0.49,0.26,9.43,9.43,9.44
94.44,8.93,-0.45,8.93,-0.45,0.44,0.43,0.19,9.37,9.37,9.38
95.39,8.93,-0.38,8.93,-0.38,0.38,0.37,0.13,9.30,9.30,9.31
96.34,8.93,-0.31,8.93,-0.32,0.32,0.32,0.06,9.24,9.24,9.24
97.30,8.93,-0.25,8.93,-0.25,0.25,0.26,0.00,9.18,9.18,9.18
98.28,8.93,-0.18,8.93,-0.18,0.19,0.20,-0.06,9.12,9.12,9.11
99.26,8.93,-0.12,8.93,-0.12,0.13,0.14,-0.12,9.05,9.05,9.05
100.25,8.93,-0.06,8.93,-0.06,0.07,0.09,-0.18,8.99,8.99,8.99
101.25,8.93,-0.01,8.93,-0.01,0.01,0.03,-0.25,8.93,8.93,8.94
102.27,8.93,0.05,8.93,0.05,-0.05,-0.03,-0.31,8.88,8.88,8.88
103.29,8.93,0.11,8.93,0.10,-0.11,-0.08,-0.37,8.82,8.82,8.82
104.32,8.93,0.16,8.93,0.16,-0.16,-0.14,-0.43,8.77,8.77,8.77
105.37,8.93,0.22,8.93,0.22,-0.22,-0.20,-0.48,8.71,8.71,8.71
106.42,8.93,0.27,8.93,0.27,-0.27,-0.25,-0.54,8.66,8.66,8.66
107.48,8.93,0.33,8.93,0.33,-0.33,-0.31,-0.60,8.60,8.60,8.60
108.56,8.93,0.38,8.93,0.38,-0.38,-0.37,-0.66,8.54,8.54,8.55
109.64,8.93,0.44,8.93,0.44,-0.44,-0.42,-0.71,8.49,8.49,8.49
110.74,8.93,0.50,8.93,0.50,-0.50,-0.48,-0.76,8.43,8.43,8.43
111.85,8.93,0.56,8.93,0.55,-0.56,-0.54,-0.82,8.37,8.37,8.37
112.97,8.93,0.61,8.93,0.61,-0.62,-0.59,-0.87,8.31,8.31,8.32
114.10,8.93,0.67,8.93,0.68,-0.68,-0.65,-0.92,8.25,8.25,8.26
115.24,8.93,0.75,8.93,0.74,-0.74,-0.70,-0.96,8.19,8.19,8.18
116.39,8.93,0.81,8.93,0.81,-0.80,-0.76,-1.01,8.13,8.13,8.12
117.55,8.93,0.87,8.93,0.87,-0.86,-0.82,-1.05,8.07,8.07,8.06
118.73,8.93,0.93,8.93,0.92,-0.92,-0.87,-1.09,8.01,8.01,8.00
119.92,8.93,0.97,8.93,0.97,-0.97,-0.93,-1.13,7.95,7.95,7.96
121.12,8.93,1.02,8.93,1.02,-1.03,-0.98,-1.17,7.90,7.90,7.91
122.33,8.93,1.08,8.93,1.07,-1.08,-1.04,-1.21,7.85,7.85,7.85
123.55,8.93,1.13,8.93,1.13,-1.13,-1.09,-1.24,7.80,7.80,7.80
124.79,8.93,1.18,8.93,1.18,-1.18,-1.14,-1.27,7.74,7.74,7.75
126.03,8.93,1.24,8.93,1.24,-1.24,-1.20,-1.30,7.69,7.69,7.69
127.29,8.93,1.29,8.93,1.29,-1.29,-1.25,-1.33,7.63,7.63,7.64
128.57,8.93,1.36,8.93,1.35,-1.35,-1.30,-1.35,7.58,7.58,7.57
129.85,8.93,1.41,8.93,1.41,-1.41,-1.36,-1.38,7.52,7.52,7.52
131.15,8.93,1.47,8.93,1.47,-1.46,-1.41,-1.40,7.46,7.46,7.46
132.46,8.93,1.52,8.93,1.52,-1.52,-1.46,-1.42,7.41,7.41,7.41
133.79,8.93,1.58,8.92,1.57,-1.58,-1.51,-1.43,7.35,7.34,7.35
135.12,8.93,1.63,8.93,1.63,-1.64,-1.56,-1.45,7.29,7.29,7.30
136.48,8.93,1.68,8.93,1.69,-1.70,-1.61,-1.46,7.23,7.24,7.25
137.84,8.95,1.75,8.94,1.75,-1.75,-1.66,-1.48,7.20,7.19,7.20
139.22,8.96,1.82,8.95,1.81,-1.80,-1.71,-1.49,7.15,7.15,7.14
140.61,8.96,1.86,8.96,1.86,-1.85,-1.76,-1.50,7.10,7.10,7.10
142.02,8.95,1.91,8.95,1.90,-1.90,-1.80,-1.51,7.05,7.05,7.04
143.44,8.94,1.94,8.94,1.94,-1.93,-1.85,-1.52,7.00,7.00,7.00
144.87,8.92,1.96,8.92,1.97,-1.96,-1.90,-1.53,6.95,6.96,6.96
146.32,8.91,2.00,8.90,1.99,-1.99,-1.94,-1.54,6.92,6.91,6.91
147.78,8.88,2.01,8.87,2.01,-2.01,-1.99,-1.55,6.87,6.87,6.87
149.26,8.84,2.02,8.84,2.02,-2.02,-2.03,-1.56,6.82,6.82,6.82
150.75,8.81,2.03,8.81,2.03,-2.03,-2.07,-1.57,6.78,6.78,6.78
152.26,8.78,2.04,8.77,2.03,-2.04,-2.12,-1.59,6.74,6.74,6.74
153.78,8.74,2.04,8.74,2.04,-2.04,-2.16,-1.60,6.69,6.70,6.70
155.32,8.71,2.05,8.70,2.05,-2.05,-2.20,-1.61,6.66,6.65,6.66
156.88,8.67,2.06,8.67,2.06,-2.06,-2.23,-1.62,6.60,6.61,6.61
158.44,8.65,2.09,8.64,2.08,-2.08,-2.27,-1.64,6.57,6.56,6.56
160.03,8.62,2.10,8.62,2.10,-2.10,-2.31,-1.65,6.51,6.51,6.52
161.63,8.60,2.12,8.60,2.12,-2.14,-2.34,-1.67,6.46,6.46,6.48
163.24,8.59,2.16,8.59,2.16,-2.18,-2.38,-1.69,6.41,6.41,6.43
164.88,8.59,2.21,8.59,2.21,-2.22,-2.41,-1.71,6.36,6.37,6.38
166.53,8.60,2.27,8.60,2.26,-2.27,-2.44,-1.73,6.33,6.33,6.33
168.19,8.62,2.32,8.61,2.33,-2.32,-2.47,-1.75,6.30,6.29,6.30
169.87,8.63,2.39,8.62,2.38,-2.37,-2.50,-1.77,6.26,6.25,6.24
171.57,8.63,2.44,8.63,2.43,-2.42,-2.53,-1.80,6.21,6.21,6.19
173.29,8.62,2.47,8.61,2.47,-2.46,-2.56,-1.82,6.16,6.15,6.15
175.02,8.60,2.50,8.60,2.50,-2.49,-2.58,-1.85,6.10,6.10,6.10
176.77,8.57,2.52,8.57,2.52,-2.52,-2.60,-1.88,6.05,6.05,6.05
178.54,8.55,2.54,8.55,2.54,-2.54,-2.63,-1.91,6.01,6.00,6.01
180.32,8.52,2.57,8.51,2.56,-2.56,-2.65,-1.94,5.96,5.96,5.95
182.13,8.49,2.57,8.48,2.57,-2.57,-2.66,-1.98,5.92,5.91,5.92
183.95,8.44,2.57,8.44,2.58,-2.58,-2.68,-2.02,5.86,5.87,5.87
185.79,8.41,2.59,8.41,2.58,-2.59,-2.70,-2.05,5.82,5.82,5.82
187.65,8.38,2.60,8.37,2.60,-2.60,-2.71,-2.09,5.77,5.77,5.78
189.52,8.35,2.61,8.35,2.61,-2.62,-2.72,-2.13,5.73,5.73,5.74
191.42,8.33,2.63,8.33,2.63,-2.64,-2.74,-2.17,5.69,5.69,5.70
193.33,8.31,2.65,8.31,2.65,-2.66,-2.74,-2.22,5.64,5.64,5.66
195.27,8.30,2.69,8.30,2.69,-2.69,-2.75,-2.26,5.61,5.61,5.61
197.22,8.29,2.73,8.28,2.72,-2.72,-2.76,-2.31,5.57,5.57,5.56
199.19,8.28,2.75,8.27,2.75,-2.74,-2.76,-2.35,5.54,5.53,5.53
201.18,8.26,2.77,8.26,2.77,-2.76,-2.77,-2.40,5.49,5.50,5.49
203.19,8.25,2.79,8.25,2.79,-2.78,-2.77,-2.44,5.47,5.47,5.46
205.23,8.24,2.80,8.23,2.80,-2.79,-2.77,-2.49,5.45,5.44,5.44
207.28,8.21,2.80,8.20,2.80,-2.80,-2.77,-2.54,5.41,5.41,5.41
209.35,8.17,2.80,8.17,2.80,-2.80,-2.76,-2.59,5.36,5.37,5.37
211.44,8.14,2.80,8.14,2.79,-2.80,-2.76,-2.63,5.33,5.33,5.34
213.56,8.11,2.79,8.11,2.79,-2.80,-2.75,-2.68,5.31,5.30,5.32
215.69,8.08,2.79,8.08,2.79,-2.80,-2.74,-2.72,5.28,5.28,5.29
217.85,8.05,2.79,8.05,2.79,-2.79,-2.73,-2.77,5.26,5.26,5.26
220.03,8.02,2.79,8.02,2.79,-2.77,-2.72,-2.81,5.24,5.24,5.23
222.23,7.99,2.79,7.98,2.78,-2.76,-2.71,-2.85,5.22,5.22,5.20
224.45,7.94,2.75,7.94,2.76,-2.75,-2.70,-2.89,5.18,5.19,5.19
226.70,7.90,2.74,7.89,2.73,-2.74,-2.68,-2.92,5.16,5.15,5.16
228.96,7.85,2.70,7.85,2.71,-2.73,-2.67,-2.95,5.12,5.12,5.15
231.25,7.83,2.70,7.83,2.70,-2.72,-2.65,-2.98,5.11,5.11,5.13
233.57,7.81,2.70,7.81,2.70,-2.70,-2.63,-3.00,5.10,5.10,5.11
235.90,7.80,2.70,7.79,2.70,-2.69,-2.61,-3.02,5.11,5.10,5.10
238.26,7.78,2.71,7.77,2.69,-2.67,-2.59,-3.04,5.10,5.10,5.07
240.64,7.74,2.66,7.74,2.67,-2.65,-2.57,-3.05,5.08,5.09,5.08
243.05,7.70,2.64,7.70,2.64,-2.63,-2.54,-3.06,5.07,5.07,5.06
245.48,7.66,2.61,7.65,2.60,-2.61,-2.52,-3.06,5.05,5.05,5.05
247.93,7.61,2.57,7.61,2.57,-2.58,-2.49,-3.05,5.03,5.03,5.04
250.41,7.58,2.53,7.57,2.53,-2.55,-2.47,-3.04,5.03,5.02,5.05
252.92,7.54,2.50,7.54,2.50,-2.52,-2.44,-3.03,5.02,5.02,5.04
255.45,7.52,2.49,7.52,2.48,-2.49,-2.41,-3.01,5.03,5.03,5.03
258.00,7.50,2.47,7.49,2.47,-2.46,-2.38,-2.98,5.04,5.04,5.03
260.58,7.47,2.44,7.47,2.44,-2.42,-2.35,-2.95,5.04,5.04,5.03
263.19,7.44,2.41,7.43,2.40,-2.39,-2.32,-2.92,5.05,5.04,5.03
265.82,7.38,2.36,7.38,2.36,-2.35,-2.29,-2.88,5.03,5.03,5.02
268.48,7.34,2.32,7.33,2.32,-2.31,-2.26,-2.83,5.02,5.02,5.02
271.16,7.29,2.27,7.28,2.26,-2.27,-2.22,-2.78,5.01,5.01,5.02
273.87,7.23,2.21,7.23,2.21,-2.23,-2.19,-2.73,4.99,5.00,5.02
276.61,7.19,2.17,7.19,2.18,-2.20,-2.15,-2.67,4.99,4.99,5.02
279.38,7.16,2.16,7.16,2.15,-2.16,-2.12,-2.61,5.00,5.00,5.00
282.17,7.14,2.14,7.14,2.13,-2.13,-2.08,-2.55,5.01,5.01,5.00
284.99,7.12,2.11,7.11,2.10,-2.09,-2.05,-2.49,5.03,5.02,5.01
287.84,7.08,2.06,7.08,2.07,-2.05,-2.01,-2.42,5.02,5.02,5.02
290.72,7.04,2.03,7.04,2.02,-2.01,-1.97,-2.35,5.02,5.02,5.01
293.63,7.00,1.98,7.00,1.98,-1.97,-1.93,-2.28,5.02,5.02,5.02
296.57,6.96,1.93,6.96,1.93,-1.93,-1.89,-2.21,5.02,5.02,5.03
299.53,6.92,1.89,6.91,1.88,-1.89,-1.86,-2.13,5.02,5.02,5.03
302.53,6.88,1.83,6.88,1.84,-1.85,-1.82,-2.06,5.02,5.02,5.05
305.55,6.84,1.80,6.85,1.80,-1.81,-1.78,-1.98,5.02,5.03,5.04
308.61,6.83,1.78,6.82,1.77,-1.78,-1.74,-1.91,5.05,5.05,5.05
311.69,6.81,1.75,6.80,1.75,-1.74,-1.70,-1.83,5.07,5.07,5.06
314.81,6.78,1.72,6.78,1.71,-1.69,-1.65,-1.76,5.08,5.08,5.06
317.96,6.74,1.67,6.74,1.67,-1.65,-1.61,-1.68,5.08,5.08,5.07
321.14,6.70,1.62,6.69,1.62,-1.61,-1.57,-1.61,5.08,5.08,5.08
324.35,6.65,1.57,6.64,1.56,-1.57,-1.53,-1.53,5.08,5.08,5.08
327.59,6.60,1.49,6.60,1.51,-1.53,-1.49,-1.46,5.07,5.08,5.11
330.87,6.57,1.47,6.57,1.46,-1.48,-1.44,-1.38,5.08,5.08,5.10
334.18,6.55,1.44,6.54,1.43,-1.44,-1.40,-1.31,5.11,5.10,5.11
337.52,6.51,1.40,6.52,1.40,-1.40,-1.36,-1.24,5.11,5.12,5.11
340.90,6.50,1.37,6.49,1.36,-1.35,-1.31,-1.17,5.14,5.14,5.13
344.30,6.46,1.32,6.45,1.32,-1.31,-1.27,-1.10,5.15,5.15,5.14
347.75,6.42,1.28,6.41,1.27,-1.26,-1.22,-1.03,5.15,5.15,5.14
351.23,6.36,1.22,6.36,1.21,-1.21,-1.18,-0.96,5.14,5.15,5.14
354.74,6.32,1.15,6.31,1.16,-1.16,-1.13,-0.89,5.15,5.15,5.17
358.28,6.27,1.11,6.27,1.11,-1.11,-1.09,-0.82,5.15,5.16,5.16
361.87,6.23,1.06,6.23,1.05,-1.06,-1.04,-0.76,5.16,5.16,5.17
365.49,6.19,1.01,6.19,1.01,-1.01,-0.99,-0.69,5.17,5.17,5.18
369.14,6.15,0.95,6.15,0.96,-0.97,-0.94,-0.63,5.18,5.18,5.20
372.83,6.12,0.92,6.11,0.92,-0.92,-0.90,-0.56,5.20,5.20,5.20
376.56,6.08,0.88,6.08,0.88,-0.87,-0.85,-0.50,5.21,5.21,5.20
380.33,6.05,0.84,6.04,0.83,-0.82,-0.80,-0.44,5.23,5.22,5.21
384.13,6.00,0.77,6.00,0.78,-0.76,-0.75,-0.37,5.23,5.23,5.23
387.97,5.95,0.72,5.94,0.71,-0.71,-0.70,-0.31,5.24,5.24,5.23
391.85,5.89,0.65,5.89,0.65,-0.65,-0.65,-0.25,5.24,5.24,5.24
395.77,5.83,0.58,5.83,0.58,-0.59,-0.60,-0.19,5.24,5.24,5.25
399.73,5.78,0.52,5.78,0.51,-0.53,-0.55,-0.13,5.25,5.25,5.26
403.72,5.73,0.44,5.73,0.46,-0.46,-0.49,-0.08,5.27,5.27,5.29
407.76,5.69,0.41,5.68,0.40,-0.39,-0.44,-0.02,5.29,5.29,5.28
411.84,5.64,0.35,5.63,0.34,-0.33,-0.39,0.04,5.31,5.30,5.29
415.96,5.58,0.27,5.57,0.28,-0.27,-0.33,0.10,5.31,5.31,5.31
420.12,5.51,0.20,5.51,0.20,-0.20,-0.27,0.15,5.30,5.31,5.31
424.32,5.46,0.14,5.46,0.13,-0.14,-0.22,0.21,5.31,5.31,5.32
428.56,5.41,0.07,5.40,0.07,-0.08,-0.16,0.27,5.32,5.32,5.34
432.85,5.36,0.01,5.36,0.02,-0.02,-0.10,0.32,5.34,5.34,5.35
437.18,5.31,-0.03,5.31,-0.04,0.04,-0.04,0.38,5.35,5.35,5.34
441.55,5.26,-0.09,5.25,-0.10,0.10,0.02,0.43,5.36,5.36,5.35
445.96,5.20,-0.16,5.20,-0.16,0.17,0.09,0.48,5.36,5.36,5.36
450.42,5.14,-0.23,5.14,-0.23,0.23,0.15,0.54,5.37,5.37,5.37
454.93,5.08,-0.30,5.08,-0.30,0.30,0.22,0.59,5.38,5.38,5.38
459.48,5.03,-0.36,5.02,-0.37,0.37,0.28,0.64,5.40,5.39,5.39
464.07,4.96,-0.45,4.96,-0.45,0.45,0.35,0.69,5.40,5.40,5.41
468.71,4.90,-0.52,4.89,-0.52,0.52,0.42,0.74,5.42,5.41,5.42
473.40,4.82,-0.60,4.82,-0.60,0.60,0.49,0.79,5.41,5.42,5.42
478.13,4.76,-0.67,4.76,-0.67,0.67,0.57,0.84,5.43,5.43,5.43
482.91,4.70,-0.74,4.69,-0.75,0.74,0.64,0.89,5.44,5.43,5.44
487.74,4.63,-0.82,4.63,-0.82,0.81,0.72,0.94,5.44,5.44,5.45
492.62,4.57,-0.89,4.57,-0.89,0.89,0.80,0.99,5.45,5.46,5.46
497.55,4.52,-0.95,4.51,-0.96,0.96,0.88,1.04,5.47,5.47,5.47
502.52,4.46,-1.02,4.46,-1.02,1.03,0.96,1.09,5.49,5.48,5.48
507.55,4.40,-1.10,4.40,-1.10,1.10,1.05,1.14,5.50,5.50,5.50
512.62,4.34,-1.17,4.34,-1.17,1.17,1.13,1.19,5.51,5.51,5.51
517.75,4.28,-1.25,4.28,-1.25,1.25,1.22,1.23,5.53,5.53,5.53
522.93,4.22,-1.32,4.21,-1.32,1.32,1.31,1.28,5.54,5.54,5.54
