frequency,raw,error,smoothed,error_smoothed,equalization,parametric_eq,fixed_band_eq,equalized_raw,equalized_smoothed,target
20.00,4.54,-5.50,4.55,-5.50,5.50,5.10,2.10,10.04,10.05,10.04
20.20,4.57,-5.46,4.58,-5.45,5.45,5.09,2.17,10.03,10.03,10.03
20.40,4.60,-5.42,4.61,-5.41,5.41,5.09,2.23,10.01,10.02,10.02
20.61,4.63,-5.38,4.64,-5.37,5.37,5.08,2.30,10.00,10.01,10.01
20.81,4.67,-5.32,4.67,-5.33,5.33,5.08,2.37,10.00,10.00,9.99
21.02,4.70,-5.28,4.69,-5.29,5.29,5.08,2.44,9.99,9.99,9.98
21.23,4.73,-5.24,4.72,-5.25,5.25,5.07,2.51,9.98,9.98,9.97
21.44,4.76,-5.22,4.75,-5.22,5.22,5.06,2.59,9.98,9.97,9.98
21.66,4.79,-5.17,4.78,-5.18,5.18,5.06,2.66,9.97,9.96,9.96
21.87,4.82,-5.13,4.80,-5.14,5.14,5.05,2.74,9.97,9.95,9.96
22.09,4.84,-5.09,4.83,-5.11,5.11,5.04,2.83,9.95,9.94,9.94
22.31,4.87,-5.06,4.86,-5.07,5.07,5.04,2.91,9.95,9.93,9.93
22.54,4.88,-5.04,4.88,-5.04,5.04,5.03,3.00,9.92,9.93,9.92
22.76,4.90,-5.02,4.91,-5.01,5.01,5.02,3.09,9.91,9.92,9.92
22.99,4.91,-5.00,4.93,-4.98,4.98,5.01,3.18,9.89,9.91,9.91
23.22,4.94,-4.96,4.96,-4.95,4.95,5.00,3.27,9.89,9.91,9.90
23.45,4.96,-4.95,4.98,-4.92,4.92,4.99,3.36,9.88,9.90,9.91
23.69,5.00,-4.90,5.01,-4.89,4.89,4.98,3.46,9.89,9.90,9.90
23.92,5.03,-4.85,5.04,-4.86,4.86,4.97,3.56,9.89,9.89,9.89
24.16,5.06,-4.83,5.06,-4.83,4.83,4.96,3.66,9.89,9.89,9.89
24.40,5.09,-4.80,5.09,-4.80,4.80,4.95,3.76,9.89,9.89,9.89
24.65,5.11,-4.78,5.11,-4.78,4.78,4.94,3.87,9.89,9.89,9.89
24.89,5.14,-4.75,5.13,-4.76,4.76,4.93,3.97,9.90,9.88,9.89
25.14,5.16,-4.72,5.14,-4.74,4.74,4.92,4.08,9.90,9.88,9.88
25.39,5.18,-4.69,5.15,-4.73,4.73,4.90,4.19,9.91,9.88,9.88
25.65,5.19,-4.68,5.16,-4.72,4.72,4.89,4.30,9.91,9.88,9.87
25.91,5.19,-4.68,5.17,-4.71,4.71,4.88,4.40,9.90,9.88,9.87
26.16,5.19,-4.69,5.17,-4.71,4.71,4.86,4.51,9.90,9.88,9.88
26.43,5.17,-4.71,5.17,-4.71,4.71,4.85,4.62,9.88,9.88,9.88
26.69,5.15,-4.72,5.17,-4.70,4.70,4.83,4.72,9.86,9.88,9.88
26.96,5.14,-4.73,5.17,-4.70,4.70,4.82,4.83,9.84,9.88,9.87
27.23,5.15,-4.72,5.18,-4.70,4.70,4.80,4.93,9.85,9.88,9.87
27.50,5.16,-4.71,5.18,-4.69,4.69,4.79,5.03,9.85,9.88,9.87
27.77,5.17,-4.70,5.19,-4.69,4.69,4.77,5.12,9.86,9.88,9.88
28.05,5.19,-4.68,5.21,-4.67,4.67,4.75,5.21,9.86,9.88,9.87
28.33,5.21,-4.67,5.22,-4.66,4.66,4.74,5.30,9.87,9.88,9.88
28.62,5.24,-4.64,5.25,-4.63,4.63,4.72,5.38,9.87,9.88,9.88
28.90,5.27,-4.61,5.27,-4.61,4.61,4.70,5.46,9.88,9.88,9.89
29.19,5.30,-4.58,5.30,-4.58,4.58,4.68,5.52,9.88,9.88,9.88
29.48,5.33,-4.55,5.33,-4.54,4.54,4.66,5.59,9.88,9.87,9.88
29.78,5.36,-4.51,5.36,-4.51,4.51,4.64,5.64,9.87,9.87,9.88
30.08,5.39,-4.48,5.39,-4.48,4.48,4.62,5.68,9.87,9.87,9.87
30.38,5.42,-4.44,5.42,-4.45,4.45,4.60,5.72,9.87,9.86,9.86
30.68,5.45,-4.40,5.44,-4.42,4.42,4.58,5.75,9.87,9.86,9.86
30.99,5.47,-4.38,5.46,-4.39,4.39,4.56,5.76,9.87,9.85,9.85
31.30,5.49,-4.36,5.47,-4.37,4.37,4.54,5.77,9.86,9.85,9.85
31.61,5.50,-4.34,5.49,-4.35,4.35,4.52,5.77,9.85,9.84,9.84
31.93,5.51,-4.31,5.50,-4.33,4.33,4.49,5.76,9.84,9.83,9.82
32.24,5.52,-4.30,5.50,-4.32,4.32,4.47,5.74,9.84,9.82,9.82
32.57,5.51,-4.30,5.51,-4.31,4.31,4.45,5.71,9.82,9.81,9.81
32.89,5.50,-4.30,5.51,-4.30,4.30,4.42,5.68,9.80,9.81,9.80
33.22,5.49,-4.31,5.51,-4.29,4.29,4.40,5.63,9.78,9.80,9.80
33.55,5.49,-4.30,5.51,-4.28,4.28,4.37,5.58,9.78,9.79,9.79
33.89,5.49,-4.29,5.50,-4.28,4.28,4.35,5.52,9.77,9.78,9.78
34.23,5.49,-4.27,5.50,-4.27,4.27,4.32,5.46,9.76,9.77,9.76
34.57,5.49,-4.27,5.50,-4.27,4.27,4.30,5.39,9.76,9.76,9.76
34.92,5.49,-4.25,5.49,-4.26,4.26,4.27,5.31,9.75,9.75,9.74
35.27,5.49,-4.26,5.49,-4.25,4.25,4.24,5.23,9.74,9.74,9.75
35.62,5.49,-4.24,5.49,-4.24,4.24,4.22,5.15,9.73,9.73,9.73
35.97,5.49,-4.23,5.49,-4.22,4.22,4.19,5.06,9.71,9.71,9.72
36.33,5.49,-4.21,5.49,-4.20,4.20,4.16,4.97,9.70,9.69,9.70
36.70,5.49,-4.18,5.49,-4.19,4.19,4.13,4.88,9.68,9.68,9.68
37.06,5.49,-4.17,5.49,-4.17,4.17,4.10,4.79,9.66,9.66,9.66
37.43,5.49,-4.15,5.49,-4.15,4.15,4.07,4.70,9.64,9.64,9.64
37.81,5.49,-4.13,5.49,-4.13,4.13,4.04,4.61,9.62,9.62,9.62
38.19,5.49,-4.10,5.49,-4.11,4.11,4.01,4.52,9.60,9.60,9.59
38.57,5.49,-4.08,5.49,-4.08,4.08,3.98,4.43,9.57,9.57,9.57
38.95,5.49,-4.06,5.49,-4.06,4.06,3.95,4.34,9.55,9.55,9.55
39.34,5.49,-4.03,5.49,-4.03,4.03,3.92,4.25,9.53,9.53,9.52
39.74,5.49,-4.00,5.49,-4.01,4.01,3.89,4.16,9.50,9.50,9.49
40.14,5.49,-3.98,5.49,-3.99,3.99,3.86,4.08,9.48,9.48,9.47
40.54,5.49,-3.96,5.49,-3.96,3.96,3.82,3.99,9.45,9.45,9.45
40.94,5.49,-3.93,5.49,-3.94,3.94,3.79,3.91,9.43,9.43,9.42
41.35,5.49,-3.91,5.49,-3.91,3.91,3.76,3.83,9.40,9.40,9.40
41.76,5.49,-3.88,5.49,-3.88,3.88,3.72,3.76,9.38,9.38,9.37
42.18,5.49,-3.86,5.49,-3.86,3.86,3.69,3.69,9.35,9.35,9.36
42.60,5.49,-3.83,5.49,-3.83,3.83,3.65,3.61,9.32,9.32,9.32
43.03,5.49,-3.81,5.49,-3.81,3.81,3.62,3.55,9.30,9.30,9.30
43.46,5.49,-3.77,5.49,-3.78,3.78,3.58,3.48,9.27,9.27,9.27
43.90,5.49,-3.75,5.49,-3.75,3.75,3.55,3.42,9.24,9.24,9.24
44.33,5.49,-3.71,5.49,-3.72,3.72,3.51,3.36,9.21,9.21,9.21
44.78,5.49,-3.69,5.49,-3.69,3.69,3.47,3.30,9.18,9.18,9.18
45.23,5.49,-3.66,5.49,-3.65,3.65,3.44,3.24,9.14,9.14,9.15
45.68,5.49,-3.62,5.49,-3.61,3.61,3.40,3.19,9.11,9.11,9.11
46.13,5.49,-3.58,5.49,-3.58,3.58,3.36,3.14,9.07,9.07,9.07
46.60,5.49,-3.54,5.49,-3.54,3.54,3.32,3.10,9.03,9.03,9.03
47.06,5.49,-3.50,5.49,-3.49,3.49,3.28,3.05,8.99,8.99,8.99
47.53,5.49,-3.46,5.49,-3.45,3.45,3.25,3.01,8.94,8.94,8.95
48.01,5.49,-3.40,5.49,-3.41,3.41,3.21,2.97,8.90,8.90,8.89
48.49,5.49,-3.36,5.49,-3.36,3.36,3.17,2.93,8.85,8.85,8.85
48.97,5.49,-3.31,5.49,-3.32,3.32,3.13,2.90,8.81,8.81,8.80
49.46,5.49,-3.27,5.49,-3.27,3.27,3.09,2.86,8.76,8.76,8.76
49.96,5.49,-3.21,5.49,-3.22,3.22,3.04,2.83,8.71,8.71,8.70
50.46,5.49,-3.17,5.49,-3.18,3.18,3.00,2.80,8.67,8.67,8.66
50.96,5.49,-3.13,5.49,-3.13,3.13,2.96,2.77,8.62,8.62,8.62
51.47,5.49,-3.08,5.49,-3.08,3.08,2.92,2.75,8.57,8.57,8.57
51.99,5.49,-3.03,5.49,-3.03,3.03,2.88,2.72,8.53,8.53,8.52
52.51,5.49,-2.99,5.49,-2.99,2.99,2.83,2.70,8.48,8.48,8.48
53.03,5.49,-2.95,5.49,-2.94,2.94,2.79,2.67,8.43,8.43,8.44
53.56,5.49,-2.90,5.49,-2.89,2.89,2.75,2.65,8.39,8.39,8.39
54.10,5.49,-2.84,5.49,-2.85,2.85,2.70,2.63,8.34,8.34,8.34
54.64,5.49,-2.80,5.49,-2.80,2.80,2.66,2.60,8.30,8.30,8.29
55.18,5.49,-2.75,5.49,-2.76,2.76,2.61,2.58,8.25,8.25,8.24
55.74,5.49,-2.70,5.49,-2.72,2.72,2.57,2.56,8.21,8.21,8.19
56.29,5.49,-2.67,5.49,-2.67,2.67,2.52,2.54,8.16,8.16,8.16
56.86,5.49,-2.62,5.49,-2.62,2.62,2.48,2.51,8.11,8.11,8.11
57.42,5.49,-2.57,5.49,-2.58,2.58,2.43,2.49,8.07,8.07,8.06
58.00,5.49,-2.52,5.49,-2.53,2.53,2.38,2.46,8.02,8.02,8.01
58.58,5.49,-2.48,5.49,-2.47,2.47,2.34,2.44,7.97,7.97,7.97
59.16,5.49,-2.44,5.49,-2.42,2.42,2.29,2.41,7.91,7.91,7.93
59.76,5.49,-2.39,5.49,-2.37,2.37,2.24,2.38,7.86,7.86,7.88
60.35,5.49,-2.33,5.49,-2.31,2.31,2.20,2.35,7.81,7.81,7.82
60.96,5.49,-2.27,5.49,-2.26,2.26,2.15,2.31,7.75,7.75,7.76
61.57,5.49,-2.20,5.49,-2.20,2.20,2.10,2.28,7.69,7.69,7.69
62.18,5.49,-2.13,5.49,-2.14,2.14,2.05,2.24,7.63,7.63,7.62
62.80,5.49,-2.07,5.49,-2.08,2.08,2.00,2.20,7.57,7.57,7.56
63.43,5.49,-2.00,5.49,-2.01,2.01,1.95,2.16,7.51,7.51,7.49
64.07,5.49,-1.94,5.49,-1.95,1.95,1.90,2.11,7.44,7.44,7.43
64.71,5.49,-1.88,5.49,-1.89,1.89,1.85,2.06,7.38,7.38,7.37
65.35,5.49,-1.82,5.49,-1.82,1.82,1.80,2.01,7.32,7.32,7.31
66.01,5.49,-1.76,5.49,-1.76,1.76,1.75,1.96,7.25,7.25,7.25
66.67,5.49,-1.70,5.49,-1.70,1.70,1.70,1.91,7.19,7.19,7.20
67.33,5.49,-1.63,5.49,-1.63,1.63,1.65,1.85,7.12,7.12,7.12
68.01,5.49,-1.57,5.49,-1.57,1.57,1.60,1.80,7.06,7.06,7.07
68.69,5.49,-1.51,5.49,-1.50,1.50,1.55,1.74,7.00,7.00,7.00
69.37,5.49,-1.45,5.49,-1.44,1.44,1.50,1.68,6.93,6.93,6.94
70.07,5.49,-1.38,5.49,-1.37,1.37,1.44,1.61,6.87,6.86,6.87
70.77,5.49,-1.31,5.49,-1.31,1.31,1.39,1.55,6.80,6.80,6.80
71.48,5.49,-1.25,5.49,-1.24,1.24,1.34,1.49,6.73,6.73,6.74
72.19,5.49,-1.17,5.49,-1.17,1.17,1.28,1.42,6.66,6.66,6.66
72.91,5.49,-1.10,5.49,-1.10,1.10,1.23,1.35,6.60,6.60,6.59
73.64,5.49,-1.03,5.50,-1.03,1.03,1.18,1.28,6.53,6.53,6.52
74.38,5.49,-0.96,5.50,-0.97,0.97,1.12,1.22,6.46,6.46,6.45
75.12,5.49,-0.90,5.50,-0.90,0.90,1.07,1.15,6.39,6.40,6.40
75.87,5.49,-0.84,5.51,-0.83,0.83,1.02,1.08,6.32,6.34,6.34
76.63,5.49,-0.77,5.51,-0.76,0.76,0.96,1.01,6.26,6.27,6.26
77.40,5.50,-0.71,5.51,-0.70,0.70,0.91,0.94,6.20,6.21,6.21
78.17,5.51,-0.63,5.51,-0.64,0.64,0.85,0.86,6.15,6.15,6.14
78.95,5.52,-0.57,5.51,-0.58,0.58,0.80,0.79,6.10,6.09,6.09
79.74,5.51,-0.51,5.50,-0.52,0.52,0.74,0.72,6.04,6.02,6.03
80.54,5.51,-0.46,5.49,-0.47,0.47,0.68,0.65,5.98,5.96,5.97
81.35,5.49,-0.41,5.48,-0.42,0.42,0.63,0.58,5.91,5.90,5.90
82.16,5.48,-0.37,5.46,-0.38,0.38,0.57,0.51,5.86,5.84,5.85
82.98,5.45,-0.33,5.45,-0.33,0.33,0.52,0.43,5.78,5.78,5.78
83.81,5.43,-0.29,5.42,-0.29,0.29,0.46,0.36,5.72,5.71,5.72
84.65,5.40,-0.24,5.40,-0.25,0.25,0.40,0.29,5.65,5.65,5.64
85.50,5.37,-0.21,5.37,-0.21,0.21,0.35,0.22,5.59,5.58,5.58
86.35,5.34,-0.17,5.34,-0.18,0.18,0.29,0.15,5.52,5.52,5.52
87.22,5.31,-0.14,5.31,-0.14,0.14,0.23,0.08,5.45,5.45,5.45
88.09,5.27,-0.11,5.28,-0.10,0.10,0.17,0.00,5.38,5.38,5.38
88.97,5.25,-0.06,5.25,-0.06,0.06,0.12,-0.07,5.31,5.31,5.31
89.86,5.22,-0.02,5.23,-0.02,0.02,0.06,-0.14,5.24,5.25,5.25
90.76,5.19,0.01,5.21,0.03,-0.03,0.00,-0.21,5.16,5.17,5.18
91.66,5.17,0.07,5.19,0.09,-0.09,-0.06,-0.28,5.08,5.10,5.10
92.58,5.16,0.13,5.18,0.15,-0.15,-0.12,-0.36,5.01,5.03,5.04
93.51,5.15,0.19,5.17,0.21,-0.21,-0.17,-0.43,4.94,4.96,4.96
94.44,5.14,0.25,5.16,0.28,-0.28,-0.23,-0.50,4.86,4.88,4.89
95.39,5.15,0.34,5.16,0.35,-0.35,-0.29,-0.57,4.80,4.81,4.81
96.34,5.16,0.42,5.16,0.43,-0.43,-0.35,-0.65,4.73,4.74,4.74
97.30,5.16,0.50,5.17,0.51,-0.51,-0.41,-0.72,4.66,4.66,4.66
98.28,5.17,0.59,5.17,0.58,-0.58,-0.47,-0.79,4.59,4.59,4.58
99.26,5.18,0.68,5.17,0.66,-0.66,-0.53,-0.86,4.52,4.52,4.51
100.25,5.19,0.76,5.18,0.73,-0.73,-0.59,-0.93,4.46,4.44,4.43
101.25,5.19,0.83,5.17,0.80,-0.80,-0.65,-1.00,4.39,4.37,4.37
102.27,5.19,0.89,5.17,0.87,-0.87,-0.71,-1.08,4.32,4.30,4.30
103.29,5.18,0.96,5.16,0.93,-0.93,-0.77,-1.15,4.25,4.23,4.23
104.32,5.16,1.00,5.15,0.99,-0.99,-0.82,-1.22,4.17,4.16,4.16
105.37,5.14,1.05,5.13,1.04,-1.04,-0.88,-1.29,4.10,4.09,4.09
106.42,5.12,1.09,5.11,1.09,-1.09,-0.94,-1.35,4.03,4.02,4.03
107.48,5.09,1.14,5.09,1.13,-1.13,-1.00,-1.42,3.96,3.95,3.95
108.56,5.06,1.17,5.06,1.18,-1.18,-1.06,-1.49,3.88,3.88,3.89
109.64,5.03,1.21,5.03,1.22,-1.22,-1.12,-1.55,3.81,3.81,3.82
110.74,5.00,1.25,5.00,1.26,-1.26,-1.18,-1.62,3.74,3.74,3.75
111.85,4.97,1.30,4.98,1.31,-1.31,-1.24,-1.68,3.67,3.67,3.67
112.97,4.94,1.33,4.95,1.35,-1.35,-1.30,-1.74,3.59,3.60,3.61
114.10,4.91,1.38,4.93,1.40,-1.40,-1.36,-1.80,3.51,3.53,3.54
115.24,4.88,1.43,4.91,1.45,-1.45,-1.42,-1.85,3.43,3.46,3.45
116.39,4.87,1.49,4.89,1.50,-1.50,-1.48,-1.91,3.37,3.39,3.38
117.55,4.86,1.56,4.88,1.56,-1.56,-1.54,-1.96,3.30,3.32,3.31
118.73,4.85,1.62,4.86,1.61,-1.61,-1.60,-2.01,3.24,3.25,3.23
119.92,4.84,1.67,4.85,1.67,-1.67,-1.65,-2.05,3.18,3.18,3.17
121.12,4.83,1.72,4.83,1.72,-1.72,-1.71,-2.10,3.11,3.11,3.11
122.33,4.83,1.79,4.82,1.78,-1.78,-1.77,-2.14,3.06,3.04,3.04
123.55,4.82,1.84,4.80,1.83,-1.83,-1.83,-2.17,2.99,2.97,2.98
124.79,4.81,1.90,4.78,1.88,-1.88,-1.89,-2.21,2.93,2.90,2.91
126.03,4.78,1.94,4.76,1.93,-1.93,-1.94,-2.24,2.86,2.84,2.84
127.29,4.75,1.97,4.74,1.97,-1.97,-2.00,-2.27,2.78,2.77,2.78
128.57,4.72,2.02,4.72,2.01,-2.01,-2.06,-2.30,2.71,2.70,2.70
129.85,4.69,2.05,4.69,2.05,-2.05,-2.12,-2.32,2.64,2.63,2.64
131.15,4.66,2.10,4.66,2.09,-2.09,-2.17,-2.34,2.57,2.57,2.56
132.46,4.63,2.13,4.63,2.13,-2.13,-2.23,-2.36,2.50,2.50,2.50
133.79,4.60,2.17,4.61,2.18,-2.18,-2.28,-2.38,2.43,2.43,2.43
135.12,4.57,2.21,4.58,2.22,-2.22,-2.34,-2.39,2.35,2.37,2.37
136.48,4.55,2.25,4.56,2.26,-2.26,-2.39,-2.40,2.29,2.30,2.31
137.84,4.53,2.29,4.54,2.31,-2.31,-2.45,-2.42,2.22,2.24,2.24
139.22,4.51,2.34,4.53,2.36,-2.36,-2.50,-2.43,2.16,2.17,2.17
140.61,4.50,2.39,4.52,2.41,-2.41,-2.56,-2.43,2.09,2.11,2.11
142.02,4.50,2.45,4.51,2.46,-2.46,-2.61,-2.44,2.04,2.05,2.05
143.44,4.50,2.51,4.51,2.51,-2.51,-2.66,-2.45,1.99,2.00,1.99
144.87,4.51,2.57,4.50,2.57,-2.57,-2.71,-2.46,1.94,1.94,1.94
146.32,4.51,2.63,4.50,2.62,-2.62,-2.76,-2.46,1.89,1.88,1.88
147.78,4.52,2.69,4.51,2.68,-2.68,-2.81,-2.47,1.84,1.83,1.83
149.26,4.52,2.75,4.51,2.74,-2.74,-2.86,-2.48,1.78,1.77,1.77
150.75,4.52,2.81,4.52,2.80,-2.80,-2.91,-2.48,1.72,1.71,1.71
152.26,4.52,2.86,4.52,2.86,-2.86,-2.96,-2.49,1.66,1.66,1.66
153.78,4.52,2.91,4.53,2.92,-2.92,-3.01,-2.50,1.60,1.61,1.61
155.32,4.52,2.97,4.53,2.98,-2.98,-3.06,-2.51,1.54,1.55,1.55
156.88,4.52,3.02,4.54,3.04,-3.04,-3.10,-2.52,1.48,1.50,1.50
158.44,4.53,3.09,4.54,3.10,-3.10,-3.15,-2.54,1.43,1.44,1.44
160.03,4.53,3.14,4.54,3.15,-3.15,-3.19,-2.55,1.38,1.39,1.39
161.63,4.54,3.21,4.53,3.20,-3.20,-3.24,-2.57,1.34,1.33,1.33
163.24,4.54,3.27,4.53,3.25,-3.25,-3.28,-2.58,1.29,1.27,1.27
164.88,4.54,3.32,4.52,3.30,-3.30,-3.32,-2.60,1.24,1.22,1.22
166.53,4.52,3.37,4.51,3.35,-3.35,-3.36,-2.63,1.17,1.16,1.15
168.19,4.51,3.40,4.49,3.39,-3.39,-3.40,-2.65,1.12,1.10,1.11
169.87,4.48,3.44,4.47,3.43,-3.43,-3.44,-2.68,1.05,1.05,1.05
171.57,4.46,3.48,4.45,3.46,-3.46,-3.48,-2.70,1.00,0.99,0.99
173.29,4.43,3.50,4.43,3.50,-3.50,-3.51,-2.73,0.93,0.93,0.94
175.02,4.40,3.52,4.40,3.53,-3.53,-3.55,-2.76,0.87,0.87,0.88
176.77,4.37,3.55,4.38,3.56,-3.56,-3.58,-2.80,0.81,0.82,0.82
178.54,4.34,3.58,4.35,3.59,-3.59,-3.61,-2.84,0.75,0.76,0.76
180.32,4.31,3.61,4.32,3.62,-3.62,-3.65,-2.87,0.70,0.71,0.70
182.13,4.28,3.63,4.30,3.65,-3.65,-3.68,-2.92,0.64,0.65,0.65
183.95,4.26,3.66,4.27,3.68,-3.68,-3.71,-2.96,0.58,0.60,0.60
185.79,4.24,3.70,4.25,3.71,-3.71,-3.73,-3.00,0.53,0.54,0.54
187.65,4.22,3.73,4.23,3.74,-3.74,-3.76,-3.05,0.48,0.49,0.49
189.52,4.21,3.77,4.21,3.77,-3.77,-3.79,-3.10,0.44,0.44,0.44
191.42,4.19,3.80,4.19,3.80,-3.80,-3.81,-3.15,0.39,0.39,0.39
193.33,4.17,3.82,4.17,3.83,-3.83,-3.83,-3.21,0.34,0.34,0.35
195.27,4.16,3.87,4.16,3.86,-3.86,-3.85,-3.26,0.30,0.29,0.29
197.22,4.15,3.92,4.14,3.89,-3.89,-3.87,-3.32,0.26,0.25,0.24
199.19,4.13,3.93,4.12,3.91,-3.91,-3.89,-3.37,0.22,0.21,0.20
201.18,4.11,3.96,4.10,3.94,-3.94,-3.91,-3.43,0.18,0.16,0.15
203.19,4.08,3.96,4.08,3.96,-3.96,-3.93,-3.49,0.12,0.12,0.12
205.23,4.05,3.96,4.05,3.97,-3.97,-3.94,-3.55,0.08,0.08,0.09
207.28,4.02,3.97,4.03,3.99,-3.99,-3.95,-3.62,0.03,0.04,0.05
209.35,4.00,3.99,4.00,4.00,-4.00,-3.97,-3.68,0.00,0.01,0.01
211.44,3.98,4.01,3.98,4.01,-4.01,-3.98,-3.74,-0.03,-0.03,-0.03
213.56,3.95,4.01,3.95,4.01,-4.01,-3.99,-3.80,-0.06,-0.06,-0.06
215.69,3.93,4.02,3.92,4.02,-4.02,-3.99,-3.86,-0.09,-0.10,-0.09
217.85,3.89,4.02,3.89,4.02,-4.02,-4.00,-3.92,-0.13,-0.13,-0.13
220.03,3.86,4.02,3.86,4.02,-4.02,-4.00,-3.98,-0.16,-0.16,-0.16
222.23,3.83,4.03,3.84,4.03,-4.03,-4.01,-4.03,-0.19,-0.19,-0.20
224.45,3.80,4.02,3.81,4.03,-4.03,-4.01,-4.08,-0.23,-0.22,-0.22
226.70,3.77,4.02,3.78,4.03,-4.03,-4.01,-4.13,-0.26,-0.25,-0.25
228.96,3.75,4.01,3.76,4.03,-4.03,-4.01,-4.18,-0.28,-0.27,-0.26
231.25,3.73,4.03,3.73,4.02,-4.02,-4.01,-4.22,-0.29,-0.29,-0.29
233.57,3.70,4.02,3.70,4.02,-4.02,-4.00,-4.26,-0.31,-0.31,-0.31
235.90,3.68,4.01,3.67,4.01,-4.01,-4.00,-4.30,-0.33,-0.33,-0.33
238.26,3.66,4.02,3.65,4.00,-4.00,-3.99,-4.33,-0.34,-0.35,-0.36
240.64,3.63,3.99,3.62,3.99,-3.99,-3.99,-4.35,-0.36,-0.37,-0.36
243.05,3.60,3.98,3.60,3.98,-3.98,-3.98,-4.37,-0.38,-0.38,-0.38
245.48,3.57,3.97,3.58,3.97,-3.97,-3.97,-4.38,-0.40,-0.39,-0.39
247.93,3.54,3.95,3.55,3.95,-3.95,-3.96,-4.39,-0.41,-0.40,-0.41
250.41,3.51,3.92,3.53,3.94,-3.94,-3.94,-4.39,-0.43,-0.41,-0.41
252.92,3.48,3.89,3.50,3.92,-3.92,-3.93,-4.39,-0.44,-0.42,-0.41
255.45,3.46,3.89,3.48,3.90,-3.90,-3.92,-4.38,-0.44,-0.43,-0.43
258.00,3.45,3.88,3.44,3.88,-3.88,-3.90,-4.37,-0.43,-0.43,-0.43
260.58,3.43,3.87,3.41,3.85,-3.85,-3.88,-4.35,-0.42,-0.44,-0.43
263.19,3.41,3.85,3.38,3.82,-3.82,-3.87,-4.32,-0.41,-0.45,-0.44
265.82,3.37,3.82,3.34,3.79,-3.79,-3.85,-4.29,-0.42,-0.45,-0.45
268.48,3.32,3.77,3.30,3.76,-3.76,-3.83,-4.25,-0.44,-0.46,-0.45
271.16,3.28,3.74,3.27,3.73,-3.73,-3.81,-4.21,-0.45,-0.46,-0.45
273.87,3.23,3.70,3.23,3.69,-3.69,-3.79,-4.17,-0.46,-0.47,-0.47
276.61,3.18,3.65,3.19,3.66,-3.66,-3.76,-4.12,-0.48,-0.47,-0.47
279.38,3.13,3.62,3.15,3.63,-3.63,-3.74,-4.07,-0.50,-0.47,-0.49
282.17,3.08,3.57,3.12,3.59,-3.59,-3.72,-4.02,-0.51,-0.48,-0.49
284.99,3.05,3.53,3.08,3.56,-3.56,-3.69,-3.96,-0.50,-0.48,-0.48
287.84,3.02,3.50,3.04,3.52,-3.52,-3.67,-3.90,-0.50,-0.48,-0.48
290.72,3.00,3.49,3.01,3.48,-3.48,-3.64,-3.85,-0.48,-0.48,-0.49
293.63,2.98,3.46,2.98,3.45,-3.45,-3.61,-3.79,-0.47,-0.48,-0.47
296.57,2.96,3.43,2.95,3.42,-3.42,-3.59,-3.72,-0.46,-0.47,-0.47
299.53,2.93,3.40,2.92,3.39,-3.39,-3.56,-3.66,-0.46,-0.47,-0.47
302.53,2.90,3.36,2.89,3.36,-3.36,-3.53,-3.60,-0.46,-0.47,-0.46
305.55,2.87,3.34,2.87,3.33,-3.33,-3.50,-3.54,-0.46,-0.46,-0.47
308.61,2.84,3.30,2.84,3.29,-3.29,-3.47,-3.48,-0.45,-0.46,-0.45
311.69,2.81,3.26,2.81,3.26,-3.26,-3.44,-3.42,-0.45,-0.45,-0.45
314.81,2.79,3.24,2.78,3.22,-3.22,-3.41,-3.36,-0.43,-0.45,-0.45
317.96,2.76,3.21,2.75,3.19,-3.19,-3.38,-3.30,-0.43,-0.44,-0.44
321.14,2.74,3.17,2.72,3.15,-3.15,-3.34,-3.25,-0.41,-0.43,-0.43
324.35,2.70,3.14,2.69,3.12,-3.12,-3.31,-3.19,-0.41,-0.43,-0.44
327.59,2.67,3.08,2.66,3.09,-3.09,-3.28,-3.14,-0.42,-0.42,-0.41
330.87,2.63,3.05,2.65,3.06,-3.06,-3.25,-3.09,-0.43,-0.42,-0.42
334.18,2.61,3.02,2.64,3.05,-3.05,-3.21,-3.04,-0.43,-0.41,-0.41
337.52,2.59,3.00,2.63,3.03,-3.03,-3.18,-3.00,-0.44,-0.40,-0.41
340.90,2.59,2.98,2.63,3.03,-3.03,-3.14,-2.95,-0.44,-0.40,-0.39
344.30,2.59,2.98,2.64,3.03,-3.03,-3.11,-2.91,-0.44,-0.39,-0.39
347.75,2.61,2.99,2.65,3.03,-3.03,-3.08,-2.87,-0.42,-0.38,-0.38
351.23,2.64,3.03,2.67,3.04,-3.04,-3.04,-2.83,-0.40,-0.38,-0.39
354.74,2.68,3.04,2.68,3.06,-3.06,-3.01,-2.79,-0.37,-0.37,-0.36
358.28,2.72,3.09,2.71,3.07,-3.07,-2.97,-2.76,-0.35,-0.36,-0.37
361.87,2.75,3.11,2.73,3.09,-3.09,-2.94,-2.73,-0.33,-0.36,-0.36
365.49,2.78,3.13,2.75,3.10,-3.10,-2.90,-2.70,-0.32,-0.35,-0.35
369.14,2.80,3.14,2.77,3.11,-3.11,-2.87,-2.67,-0.31,-0.34,-0.34
372.83,2.80,3.13,2.78,3.11,-3.11,-2.83,-2.65,-0.31,-0.34,-0.33
376.56,2.81,3.15,2.78,3.11,-3.11,-2.80,-2.62,-0.30,-0.33,-0.33
380.33,2.80,3.13,2.78,3.10,-3.10,-2.76,-2.60,-0.30,-0.32,-0.33
384.13,2.79,3.10,2.78,3.09,-3.09,-2.73,-2.58,-0.30,-0.31,-0.31
387.97,2.77,3.07,2.76,3.07,-3.07,-2.69,-2.56,-0.29,-0.30,-0.30
391.85,2.75,3.05,2.75,3.04,-3.04,-2.65,-2.55,-0.29,-0.29,-0.30
395.77,2.72,3.01,2.72,3.01,-3.01,-2.62,-2.53,-0.29,-0.28,-0.29
399.73,2.68,2.96,2.70,2.98,-2.98,-2.58,-2.52,-0.29,-0.27,-0.28
403.72,2.66,2.92,2.68,2.94,-2.94,-2.55,-2.51,-0.28,-0.27,-0.25
407.76,2.63,2.89,2.65,2.91,-2.91,-2.51,-2.50,-0.28,-0.26,-0.26
411.84,2.61,2.86,2.63,2.87,-2.87,-2.48,-2.49,-0.26,-0.25,-0.25
415.96,2.59,2.82,2.60,2.84,-2.84,-2.44,-2.48,-0.25,-0.24,-0.23
420.12,2.57,2.80,2.58,2.81,-2.81,-2.41,-2.48,-0.24,-0.23,-0.23
424.32,2.55,2.78,2.56,2.78,-2.78,-2.37,-2.47,-0.23,-0.22,-0.23
428.56,2.53,2.74,2.54,2.75,-2.75,-2.34,-2.47,-0.22,-0.21,-0.21
432.85,2.52,2.72,2.51,2.72,-2.72,-2.30,-2.46,-0.20,-0.21,-0.20
437.18,2.50,2.70,2.49,2.69,-2.69,-2.27,-2.46,-0.19,-0.20,-0.20
441.55,2.48,2.67,2.47,2.66,-2.66,-2.24,-2.45,-0.18,-0.19,-0.19
445.96,2.45,2.64,2.45,2.63,-2.63,-2.20,-2.44,-0.18,-0.18,-0.18
450.42,2.42,2.60,2.42,2.60,-2.60,-2.17,-2.44,-0.18,-0.17,-0.18
454.93,2.40,2.57,2.40,2.56,-2.56,-2.13,-2.43,-0.16,-0.16,-0.17
459.48,2.38,2.54,2.37,2.52,-2.52,-2.10,-2.42,-0.14,-0.15,-0.16
464.07,2.35,2.49,2.34,2.49,-2.49,-2.07,-2.41,-0.14,-0.15,-0.14
468.71,2.32,2.45,2.31,2.45,-2.45,-2.03,-2.40,-0.13,-0.14,-0.13
473.40,2.28,2.41,2.28,2.41,-2.41,-2.00,-2.39,-0.13,-0.13,-0.12
478.13,2.25,2.37,2.25,2.37,-2.37,-1.97,-2.38,-0.12,-0.12,-0.11
482.91,2.21,2.32,2.22,2.33,-2.33,-1.94,-2.36,-0.12,-0.11,-0.11
487.74,2.18,2.28,2.20,2.29,-2.29,-1.90,-2.34,-0.11,-0.10,-0.10
492.62,2.15,2.24,2.17,2.25,-2.25,-1.87,-2.32,-0.10,-0.09,-0.09
497.55,2.12,2.20,2.14,2.21,-2.21,-1.84,-2.30,-0.09,-0.08,-0.08
502.52,2.10,2.17,2.11,2.17,-2.17,-1.81,-2.28,-0.07,-0.06,-0.07
507.55,2.08,2.13,2.08,2.13,-2.13,-1.78,-2.25,-0.05,-0.05,-0.05
512.62,2.06,2.10,2.05,2.09,-2.09,-1.74,-2.23,-0.03,-0.04,-0.04
517.75,2.04,2.07,2.02,2.05,-2.05,-1.71,-2.20,-0.01,-0.03,-0.02
522.93,2.01,2.03,1.99,2.01,-2.01,-1.68,-2.16,0.00,-0.02,-0.01
528.16,1.98,1.99,1.97,1.97,-1.97,-1.65,-2.13,0.01,-0.01,-0.01
533.44,1.94,1.94,1.94,1.93,-1.93,-1.62,-2.09,0.01,0.01,0.00
