frequency,raw,error,smoothed,error_smoothed,equalization,parametric_eq,fixed_band_eq,equalized_raw,equalized_smoothed,target
20.00,-6.44,-15.27,-6.42,-15.26,15.26,14.28,5.48,8.82,8.85,8.83
20.20,-6.23,-15.10,-6.21,-15.09,15.09,14.25,5.61,8.86,8.88,8.87
20.40,-6.02,-14.93,-6.01,-14.93,14.93,14.22,5.75,8.91,8.91,8.91
20.61,-5.82,-14.76,-5.82,-14.76,14.76,14.19,5.90,8.94,8.94,8.94
20.81,-5.63,-14.61,-5.64,-14.61,14.61,14.14,6.04,8.98,8.97,8.98
21.02,-5.45,-14.47,-5.46,-14.46,14.46,14.10,6.19,9.01,8.99,9.02
21.23,-5.28,-14.32,-5.29,-14.31,14.31,14.05,6.35,9.03,9.02,9.04
21.44,-5.11,-14.17,-5.13,-14.17,14.17,13.99,6.50,9.06,9.04,9.06
21.66,-4.95,-14.03,-4.97,-14.03,14.03,13.93,6.67,9.08,9.06,9.08
21.87,-4.80,-13.89,-4.82,-13.90,13.90,13.86,6.83,9.10,9.08,9.09
22.09,-4.65,-13.76,-4.67,-13.77,13.77,13.79,7.00,9.13,9.10,9.11
22.31,-4.52,-13.64,-4.54,-13.65,13.65,13.72,7.18,9.14,9.12,9.12
22.54,-4.40,-13.53,-4.41,-13.54,13.54,13.64,7.36,9.14,9.13,9.13
22.76,-4.29,-13.43,-4.30,-13.43,13.43,13.56,7.55,9.15,9.14,9.14
22.99,-4.18,-13.32,-4.18,-13.33,13.33,13.48,7.74,9.15,9.15,9.14
23.22,-4.09,-13.24,-4.08,-13.24,13.24,13.39,7.93,9.15,9.16,9.15
23.45,-3.98,-13.14,-3.98,-13.14,13.14,13.30,8.13,9.16,9.16,9.16
23.69,-3.88,-13.05,-3.88,-13.05,13.05,13.20,8.34,9.17,9.17,9.17
23.92,-3.79,-12.97,-3.78,-12.97,12.97,13.11,8.55,9.18,9.18,9.18
24.16,-3.69,-12.89,-3.69,-12.88,12.88,13.01,8.76,9.19,9.19,9.20
24.40,-3.60,-12.82,-3.59,-12.79,12.79,12.91,8.98,9.19,9.20,9.22
24.65,-3.51,-12.72,-3.50,-12.71,12.71,12.81,9.21,9.20,9.21,9.21
24.89,-3.41,-12.63,-3.40,-12.62,12.62,12.70,9.44,9.21,9.22,9.22
25.14,-3.31,-12.54,-3.30,-12.53,12.53,12.60,9.67,9.22,9.23,9.23
25.39,-3.21,-12.45,-3.19,-12.44,12.44,12.49,9.91,9.23,9.24,9.24
25.65,-3.10,-12.36,-3.09,-12.34,12.34,12.38,10.16,9.24,9.25,9.26
25.91,-2.99,-12.25,-2.98,-12.25,12.25,12.27,10.40,9.25,9.26,9.26
26.16,-2.89,-12.16,-2.88,-12.15,12.15,12.16,10.65,9.26,9.27,9.27
26.43,-2.77,-12.05,-2.77,-12.05,12.05,12.05,10.91,9.27,9.28,9.28
26.69,-2.65,-11.94,-2.66,-11.95,11.95,11.94,11.16,9.30,9.29,9.29
26.96,-2.54,-11.85,-2.55,-11.85,11.85,11.83,11.42,9.30,9.30,9.31
27.23,-2.44,-11.76,-2.44,-11.75,11.75,11.71,11.67,9.31,9.31,9.32
27.50,-2.33,-11.65,-2.33,-11.65,11.65,11.60,11.92,9.32,9.32,9.32
27.77,-2.22,-11.54,-2.23,-11.55,11.55,11.49,12.17,9.34,9.33,9.32
28.05,-2.11,-11.45,-2.13,-11.46,11.46,11.37,12.41,9.35,9.33,9.34
28.33,-2.02,-11.36,-2.03,-11.37,11.37,11.26,12.65,9.35,9.34,9.34
28.62,-1.92,-11.27,-1.93,-11.28,11.28,11.15,12.87,9.36,9.35,9.35
28.90,-1.83,-11.19,-1.84,-11.20,11.20,11.03,13.08,9.37,9.36,9.36
29.19,-1.74,-11.10,-1.75,-11.11,11.11,10.92,13.28,9.37,9.36,9.36
29.48,-1.66,-11.05,-1.66,-11.03,11.03,10.80,13.45,9.37,9.37,9.39
29.78,-1.57,-10.95,-1.57,-10.95,10.95,10.69,13.60,9.38,9.38,9.38
30.08,-1.49,-10.88,-1.49,-10.87,10.87,10.58,13.73,9.38,9.38,9.39
30.38,-1.40,-10.79,-1.40,-10.79,10.79,10.46,13.83,9.39,9.39,9.39
30.68,-1.32,-10.73,-1.31,-10.71,10.71,10.35,13.90,9.39,9.40,9.41
30.99,-1.23,-10.64,-1.22,-10.63,10.63,10.24,13.94,9.40,9.41,9.41
31.30,-1.14,-10.55,-1.13,-10.54,10.54,10.13,13.95,9.40,9.41,9.41
31.61,-1.04,-10.46,-1.03,-10.45,10.45,10.02,13.92,9.41,9.42,9.42
31.93,-0.94,-10.37,-0.94,-10.36,10.36,9.91,13.87,9.42,9.43,9.43
32.24,-0.84,-10.27,-0.83,-10.27,10.27,9.80,13.78,9.43,9.44,9.43
32.57,-0.74,-10.19,-0.73,-10.17,10.17,9.69,13.66,9.43,9.44,9.45
32.89,-0.63,-10.08,-0.63,-10.08,10.08,9.58,13.52,9.45,9.45,9.45
33.22,-0.51,-9.97,-0.52,-9.98,9.98,9.47,13.36,9.47,9.46,9.46
33.55,-0.41,-9.88,-0.41,-9.87,9.87,9.36,13.17,9.46,9.46,9.47
33.89,-0.30,-9.78,-0.30,-9.77,9.77,9.26,12.97,9.47,9.47,9.48
34.23,-0.18,-9.66,-0.18,-9.66,9.66,9.15,12.75,9.48,9.48,9.48
34.57,-0.06,-9.55,-0.07,-9.55,9.55,9.05,12.53,9.49,9.48,9.49
34.92,0.05,-9.44,0.05,-9.44,9.44,8.94,12.29,9.49,9.49,9.49
35.27,0.16,-9.34,0.16,-9.33,9.33,8.84,12.05,9.49,9.49,9.50
35.62,0.27,-9.23,0.28,-9.22,9.22,8.73,11.80,9.49,9.50,9.50
35.97,0.38,-9.12,0.39,-9.11,9.11,8.63,11.55,9.49,9.50,9.50
36.33,0.50,-9.01,0.50,-9.00,9.00,8.53,11.30,9.50,9.50,9.51
36.70,0.62,-8.88,0.62,-8.89,8.89,8.43,11.05,9.51,9.50,9.50
37.06,0.73,-8.78,0.73,-8.78,8.78,8.33,10.80,9.51,9.50,9.51
37.43,0.84,-8.67,0.84,-8.67,8.67,8.23,10.56,9.51,9.50,9.51
37.81,0.95,-8.56,0.95,-8.56,8.56,8.13,10.31,9.51,9.50,9.51
38.19,1.06,-8.45,1.05,-8.45,8.45,8.03,10.07,9.51,9.50,9.51
38.57,1.16,-8.34,1.16,-8.34,8.34,7.94,9.84,9.50,9.50,9.50
38.95,1.26,-8.24,1.26,-8.24,8.24,7.84,9.61,9.50,9.50,9.50
39.34,1.36,-8.13,1.36,-8.14,8.14,7.74,9.38,9.50,9.49,9.49
39.74,1.46,-8.03,1.46,-8.04,8.04,7.65,9.16,9.50,9.49,9.49
40.14,1.55,-7.94,1.55,-7.94,7.94,7.56,8.94,9.49,9.49,9.49
40.54,1.64,-7.85,1.64,-7.85,7.85,7.46,8.73,9.49,9.49,9.49
40.94,1.73,-7.75,1.73,-7.76,7.76,7.37,8.52,9.49,9.48,9.48
41.35,1.83,-7.65,1.82,-7.66,7.66,7.28,8.32,9.49,9.48,9.48
41.76,1.90,-7.58,1.90,-7.57,7.57,7.19,8.13,9.47,9.48,9.48
42.18,1.99,-7.49,1.99,-7.49,7.49,7.10,7.94,9.48,9.47,9.48
42.60,2.08,-7.40,2.07,-7.40,7.40,7.01,7.75,9.48,9.47,9.48
43.03,2.15,-7.33,2.16,-7.31,7.31,6.92,7.57,9.46,9.47,9.48
43.46,2.23,-7.25,2.24,-7.22,7.22,6.83,7.40,9.45,9.47,9.48
43.90,2.32,-7.14,2.33,-7.14,7.14,6.75,7.22,9.46,9.46,9.46
44.33,2.40,-7.06,2.41,-7.05,7.05,6.66,7.06,9.45,9.46,9.46
44.78,2.49,-6.96,2.49,-6.96,6.96,6.58,6.90,9.45,9.46,9.45
45.23,2.58,-6.87,2.58,-6.88,6.88,6.49,6.74,9.46,9.45,9.45
45.68,2.66,-6.79,2.66,-6.79,6.79,6.41,6.59,9.45,9.45,9.45
46.13,2.74,-6.70,2.74,-6.70,6.70,6.33,6.44,9.44,9.45,9.44
46.60,2.83,-6.62,2.83,-6.61,6.61,6.24,6.30,9.44,9.44,9.45
47.06,2.92,-6.52,2.91,-6.53,6.53,6.16,6.16,9.45,9.43,9.44
47.53,2.99,-6.44,2.99,-6.44,6.44,6.08,6.02,9.43,9.43,9.43
48.01,3.06,-6.38,3.07,-6.35,6.35,6.00,5.89,9.41,9.42,9.44
48.49,3.14,-6.28,3.15,-6.26,6.26,5.92,5.76,9.40,9.41,9.42
48.97,3.23,-6.17,3.22,-6.18,6.18,5.84,5.64,9.41,9.40,9.40
49.46,3.30,-6.09,3.29,-6.09,6.09,5.77,5.52,9.39,9.39,9.39
49.96,3.37,-6.00,3.36,-6.01,6.01,5.69,5.40,9.38,9.38,9.37
50.46,3.44,-5.93,3.43,-5.93,5.93,5.61,5.29,9.37,9.36,9.37
50.96,3.51,-5.84,3.50,-5.84,5.84,5.54,5.18,9.35,9.35,9.35
51.47,3.58,-5.74,3.57,-5.76,5.76,5.46,5.07,9.34,9.33,9.32
51.99,3.64,-5.67,3.63,-5.68,5.68,5.39,4.97,9.32,9.31,9.31
52.51,3.69,-5.61,3.70,-5.60,5.60,5.32,4.86,9.29,9.30,9.30
53.03,3.75,-5.53,3.76,-5.51,5.51,5.24,4.77,9.27,9.28,9.28
53.56,3.81,-5.46,3.82,-5.43,5.43,5.17,4.67,9.24,9.26,9.27
54.10,3.88,-5.36,3.89,-5.35,5.35,5.10,4.58,9.23,9.24,9.24
54.64,3.95,-5.28,3.95,-5.27,5.27,5.03,4.49,9.22,9.22,9.23
55.18,4.02,-5.18,4.01,-5.19,5.19,4.96,4.40,9.21,9.20,9.20
55.74,4.07,-5.10,4.07,-5.11,5.11,4.89,4.31,9.18,9.18,9.17
56.29,4.13,-5.04,4.13,-5.03,5.03,4.82,4.23,9.16,9.16,9.17
56.86,4.19,-4.95,4.20,-4.94,4.94,4.75,4.15,9.13,9.14,9.14
57.42,4.26,-4.85,4.26,-4.86,4.86,4.69,4.07,9.12,9.12,9.11
58.00,4.33,-4.76,4.32,-4.77,4.77,4.62,3.99,9.10,9.09,9.09
58.58,4.38,-4.69,4.39,-4.68,4.68,4.56,3.92,9.06,9.07,9.07
59.16,4.44,-4.61,4.45,-4.59,4.59,4.49,3.85,9.03,9.04,9.05
59.76,4.51,-4.52,4.51,-4.50,4.50,4.43,3.78,9.01,9.01,9.03
60.35,4.58,-4.42,4.57,-4.41,4.41,4.36,3.71,8.99,8.98,9.00
60.96,4.65,-4.32,4.64,-4.31,4.31,4.30,3.64,8.96,8.95,8.97
61.57,4.71,-4.21,4.70,-4.22,4.22,4.24,3.57,8.93,8.92,8.92
62.18,4.76,-4.12,4.77,-4.12,4.12,4.18,3.51,8.88,8.89,8.88
62.80,4.82,-4.04,4.83,-4.02,4.02,4.12,3.44,8.84,8.85,8.86
63.43,4.88,-3.93,4.89,-3.92,3.92,4.06,3.38,8.81,8.82,8.81
64.07,4.95,-3.82,4.95,-3.83,3.83,4.00,3.32,8.78,8.78,8.77
64.71,5.01,-3.73,5.01,-3.73,3.73,3.94,3.26,8.74,8.74,8.74
65.35,5.06,-3.64,5.07,-3.63,3.63,3.88,3.21,8.69,8.70,8.70
66.01,5.13,-3.53,5.12,-3.54,3.54,3.82,3.15,8.67,8.66,8.66
66.67,5.19,-3.44,5.18,-3.44,3.44,3.76,3.10,8.63,8.62,8.63
67.33,5.25,-3.34,5.23,-3.35,3.35,3.71,3.04,8.60,8.58,8.59
68.01,5.29,-3.26,5.28,-3.26,3.26,3.65,2.99,8.55,8.54,8.55
68.69,5.33,-3.18,5.33,-3.17,3.17,3.60,2.94,8.50,8.51,8.51
69.37,5.37,-3.10,5.38,-3.08,3.08,3.54,2.89,8.45,8.47,8.47
70.07,5.42,-3.01,5.43,-3.00,3.00,3.49,2.85,8.42,8.43,8.43
70.77,5.47,-2.92,5.47,-2.92,2.92,3.43,2.80,8.39,8.39,8.39
71.48,5.51,-2.85,5.51,-2.84,2.84,3.38,2.75,8.35,8.35,8.36
72.19,5.55,-2.76,5.54,-2.77,2.77,3.33,2.71,8.32,8.31,8.31
72.91,5.59,-2.69,5.58,-2.70,2.70,3.28,2.67,8.29,8.28,8.28
73.64,5.63,-2.61,5.61,-2.63,2.63,3.23,2.63,8.26,8.24,8.24
74.38,5.66,-2.55,5.65,-2.56,2.56,3.18,2.59,8.22,8.21,8.21
75.12,5.69,-2.48,5.69,-2.49,2.49,3.13,2.55,8.18,8.17,8.17
75.87,5.71,-2.43,5.72,-2.42,2.42,3.08,2.51,8.13,8.14,8.14
76.63,5.73,-2.38,5.76,-2.35,2.35,3.03,2.48,8.08,8.11,8.11
77.40,5.77,-2.31,5.79,-2.29,2.29,2.98,2.44,8.06,8.08,8.08
78.17,5.80,-2.25,5.82,-2.23,2.23,2.93,2.41,8.03,8.05,8.05
78.95,5.85,-2.17,5.85,-2.17,2.17,2.89,2.38,8.02,8.02,8.02
79.74,5.89,-2.11,5.89,-2.11,2.11,2.84,2.35,8.00,8.00,8.00
80.54,5.93,-2.05,5.92,-2.05,2.05,2.80,2.32,7.98,7.97,7.98
81.35,5.96,-1.99,5.95,-1.99,1.99,2.75,2.30,7.95,7.95,7.95
82.16,6.00,-1.92,5.98,-1.94,1.94,2.71,2.27,7.94,7.92,7.92
82.98,6.02,-1.89,6.02,-1.88,1.88,2.66,2.25,7.90,7.90,7.91
83.81,6.04,-1.84,6.05,-1.83,1.83,2.62,2.22,7.87,7.88,7.88
84.65,6.07,-1.78,6.08,-1.78,1.78,2.58,2.20,7.85,7.86,7.85
85.50,6.09,-1.75,6.10,-1.74,1.74,2.53,2.18,7.83,7.84,7.84
86.35,6.12,-1.70,6.12,-1.70,1.70,2.49,2.17,7.82,7.82,7.82
87.22,6.14,-1.66,6.13,-1.66,1.66,2.45,2.15,7.80,7.80,7.80
88.09,6.16,-1.62,6.15,-1.63,1.63,2.41,2.13,7.79,7.78,7.78
88.97,6.18,-1.58,6.16,-1.60,1.60,2.37,2.12,7.78,7.76,7.76
89.86,6.18,-1.57,6.17,-1.57,1.57,2.33,2.11,7.75,7.74,7.75
90.76,6.19,-1.53,6.17,-1.55,1.55,2.29,2.09,7.74,7.72,7.72
91.66,6.18,-1.52,6.18,-1.52,1.52,2.25,2.08,7.70,7.70,7.70
92.58,6.17,-1.51,6.18,-1.50,1.50,2.21,2.07,7.67,7.68,7.68
93.51,6.16,-1.51,6.19,-1.48,1.48,2.17,2.07,7.64,7.66,7.67
94.44,6.16,-1.49,6.19,-1.45,1.45,2.14,2.06,7.61,7.64,7.65
95.39,6.17,-1.46,6.19,-1.43,1.43,2.10,2.05,7.60,7.62,7.63
96.34,6.17,-1.43,6.18,-1.41,1.41,2.06,2.05,7.58,7.59,7.60
97.30,6.18,-1.39,6.18,-1.39,1.39,2.03,2.04,7.57,7.57,7.57
98.28,6.19,-1.35,6.17,-1.37,1.37,1.99,2.04,7.56,7.54,7.54
99.26,6.18,-1.34,6.17,-1.35,1.35,1.95,2.04,7.53,7.52,7.52
100.25,6.17,-1.32,6.16,-1.33,1.33,1.92,2.03,7.50,7.49,7.49
101.25,6.16,-1.30,6.15,-1.31,1.31,1.89,2.03,7.47,7.46,7.46
102.27,6.14,-1.28,6.13,-1.29,1.29,1.85,2.03,7.43,7.42,7.42
103.29,6.11,-1.28,6.12,-1.27,1.27,1.82,2.03,7.38,7.39,7.39
104.32,6.09,-1.27,6.10,-1.25,1.25,1.78,2.03,7.34,7.35,7.36
105.37,6.07,-1.25,6.07,-1.24,1.24,1.75,2.03,7.31,7.31,7.32
106.42,6.05,-1.22,6.04,-1.23,1.23,1.72,2.03,7.28,7.27,7.27
107.48,6.02,-1.22,6.01,-1.21,1.21,1.69,2.03,7.23,7.22,7.24
108.56,5.98,-1.20,5.97,-1.20,1.20,1.66,2.03,7.18,7.18,7.18
109.64,5.94,-1.19,5.94,-1.19,1.19,1.63,2.02,7.13,7.13,7.13
110.74,5.89,-1.19,5.90,-1.17,1.17,1.59,2.02,7.06,7.07,7.08
111.85,5.86,-1.17,5.86,-1.15,1.15,1.56,2.02,7.01,7.02,7.03
112.97,5.82,-1.14,5.82,-1.14,1.14,1.53,2.01,6.96,6.96,6.96
114.10,5.78,-1.13,5.78,-1.12,1.12,1.51,2.00,6.90,6.90,6.91
115.24,5.73,-1.12,5.74,-1.10,1.10,1.48,1.99,6.83,6.84,6.85
116.39,5.68,-1.10,5.70,-1.09,1.09,1.45,1.98,6.77,6.79,6.78
117.55,5.64,-1.08,5.65,-1.08,1.08,1.42,1.97,6.72,6.73,6.72
118.73,5.60,-1.06,5.60,-1.07,1.07,1.39,1.96,6.67,6.67,6.66
119.92,5.57,-1.04,5.56,-1.06,1.06,1.36,1.94,6.63,6.61,6.61
121.12,5.53,-1.02,5.51,-1.05,1.05,1.34,1.92,6.58,6.55,6.55
122.33,5.47,-1.03,5.46,-1.04,1.04,1.31,1.90,6.51,6.50,6.50
123.55,5.41,-1.04,5.41,-1.04,1.04,1.28,1.88,6.45,6.44,6.45
124.79,5.35,-1.05,5.36,-1.04,1.04,1.25,1.85,6.39,6.39,6.40
126.03,5.30,-1.05,5.30,-1.04,1.04,1.23,1.82,6.34,6.34,6.35
127.29,5.24,-1.06,5.25,-1.05,1.05,1.20,1.79,6.29,6.29,6.30
128.57,5.18,-1.06,5.19,-1.05,1.05,1.18,1.75,6.23,6.25,6.24
129.85,5.13,-1.07,5.13,-1.07,1.07,1.15,1.71,6.20,6.20,6.20
131.15,5.08,-1.07,5.07,-1.08,1.08,1.13,1.67,6.16,6.15,6.15
132.46,5.02,-1.09,5.01,-1.10,1.10,1.10,1.63,6.12,6.11,6.11
133.79,4.95,-1.12,4.94,-1.12,1.12,1.08,1.59,6.07,6.07,6.07
135.12,4.88,-1.15,4.88,-1.15,1.15,1.05,1.54,6.03,6.03,6.03
136.48,4.81,-1.18,4.82,-1.17,1.17,1.03,1.49,5.98,5.99,5.99
137.84,4.75,-1.20,4.75,-1.19,1.19,1.00,1.44,5.94,5.95,5.95
139.22,4.69,-1.21,4.69,-1.22,1.22,0.98,1.38,5.91,5.91,5.90
140.61,4.62,-1.24,4.62,-1.25,1.25,0.96,1.33,5.87,5.87,5.86
142.02,4.54,-1.30,4.55,-1.28,1.28,0.93,1.27,5.82,5.83,5.84
143.44,4.47,-1.33,4.48,-1.31,1.31,0.91,1.21,5.78,5.80,5.80
144.87,4.41,-1.35,4.41,-1.35,1.35,0.89,1.15,5.76,5.76,5.76
146.32,4.34,-1.38,4.34,-1.38,1.38,0.86,1.09,5.72,5.72,5.72
147.78,4.28,-1.41,4.27,-1.41,1.41,0.84,1.03,5.69,5.68,5.69
149.26,4.21,-1.45,4.20,-1.44,1.44,0.82,0.96,5.65,5.64,5.66
150.75,4.13,-1.47,4.13,-1.48,1.48,0.79,0.90,5.61,5.60,5.60
152.26,4.05,-1.51,4.05,-1.51,1.51,0.77,0.83,5.56,5.56,5.56
153.78,3.97,-1.56,3.97,-1.54,1.54,0.75,0.77,5.51,5.52,5.53
155.32,3.90,-1.57,3.90,-1.58,1.58,0.73,0.70,5.48,5.48,5.47
156.88,3.82,-1.62,3.82,-1.61,1.61,0.70,0.63,5.43,5.43,5.44
158.44,3.75,-1.64,3.75,-1.64,1.64,0.68,0.57,5.39,5.39,5.39
160.03,3.68,-1.66,3.67,-1.68,1.68,0.66,0.50,5.36,5.34,5.34
161.63,3.60,-1.69,3.59,-1.71,1.71,0.64,0.43,5.31,5.30,5.29
163.24,3.53,-1.72,3.51,-1.74,1.74,0.62,0.36,5.27,5.25,5.25
164.88,3.44,-1.77,3.44,-1.77,1.77,0.59,0.29,5.21,5.20,5.21
166.53,3.36,-1.80,3.37,-1.79,1.79,0.57,0.22,5.15,5.16,5.16
168.19,3.29,-1.82,3.30,-1.81,1.81,0.55,0.15,5.10,5.11,5.11
169.87,3.23,-1.83,3.24,-1.82,1.82,0.53,0.08,5.05,5.06,5.06
171.57,3.17,-1.85,3.18,-1.83,1.83,0.50,0.01,5.00,5.01,5.02
173.29,3.11,-1.85,3.12,-1.83,1.83,0.48,-0.06,4.94,4.96,4.96
175.02,3.06,-1.85,3.07,-1.83,1.83,0.46,-0.13,4.89,4.90,4.91
176.77,3.02,-1.83,3.03,-1.82,1.82,0.43,-0.21,4.84,4.85,4.85
178.54,2.99,-1.81,2.99,-1.81,1.81,0.41,-0.28,4.80,4.80,4.80
180.32,2.96,-1.78,2.96,-1.78,1.78,0.39,-0.35,4.74,4.74,4.74
182.13,2.94,-1.75,2.93,-1.75,1.75,0.36,-0.42,4.69,4.68,4.69
183.95,2.93,-1.70,2.91,-1.72,1.72,0.34,-0.50,4.65,4.63,4.63
185.79,2.90,-1.68,2.89,-1.68,1.68,0.32,-0.57,4.58,4.57,4.58
187.65,2.88,-1.63,2.88,-1.63,1.63,0.29,-0.64,4.51,4.52,4.51
189.52,2.87,-1.59,2.88,-1.58,1.58,0.27,-0.71,4.45,4.46,4.46
191.42,2.88,-1.53,2.88,-1.53,1.53,0.24,-0.79,4.41,4.41,4.41
193.33,2.88,-1.48,2.88,-1.47,1.47,0.21,-0.86,4.35,4.36,4.36
195.27,2.90,-1.41,2.90,-1.41,1.41,0.19,-0.94,4.31,4.30,4.31
197.22,2.92,-1.33,2.91,-1.34,1.34,0.16,-1.01,4.26,4.25,4.25
199.19,2.94,-1.26,2.94,-1.27,1.27,0.13,-1.08,4.21,4.20,4.20
201.18,2.97,-1.18,2.97,-1.19,1.19,0.10,-1.16,4.16,4.15,4.15
203.19,3.01,-1.11,3.01,-1.10,1.10,0.07,-1.23,4.11,4.11,4.12
205.23,3.05,-1.01,3.05,-1.01,1.01,0.04,-1.30,4.06,4.06,4.06
207.28,3.10,-0.94,3.11,-0.91,0.91,0.01,-1.37,4.01,4.02,4.04
209.35,3.17,-0.81,3.18,-0.80,0.80,-0.02,-1.44,3.97,3.98,3.98
211.44,3.24,-0.69,3.25,-0.69,0.69,-0.05,-1.51,3.93,3.94,3.93
213.56,3.32,-0.57,3.33,-0.56,0.56,-0.09,-1.58,3.88,3.90,3.89
215.69,3.41,-0.46,3.42,-0.44,0.44,-0.12,-1.65,3.85,3.86,3.87
217.85,3.51,-0.32,3.52,-0.30,0.30,-0.16,-1.71,3.81,3.82,3.83
220.03,3.62,-0.17,3.63,-0.16,0.16,-0.20,-1.78,3.78,3.79,3.79
222.23,3.75,-0.01,3.74,-0.02,0.02,-0.24,-1.84,3.77,3.76,3.76
224.45,3.87,0.13,3.87,0.13,-0.13,-0.28,-1.90,3.74,3.73,3.74
226.70,4.00,0.29,4.00,0.29,-0.29,-0.32,-1.95,3.71,3.71,3.71
228.96,4.13,0.45,4.13,0.45,-0.45,-0.37,-2.01,3.68,3.69,3.68
231.25,4.27,0.60,4.27,0.61,-0.61,-0.42,-2.06,3.66,3.67,3.67
233.57,4.42,0.77,4.42,0.77,-0.77,-0.47,-2.11,3.65,3.65,3.65
235.90,4.57,0.93,4.57,0.93,-0.93,-0.52,-2.15,3.64,3.64,3.64
238.26,4.72,1.09,4.72,1.09,-1.09,-0.57,-2.19,3.63,3.63,3.63
240.64,4.88,1.26,4.88,1.26,-1.26,-0.63,-2.23,3.62,3.62,3.62
243.05,5.04,1.42,5.03,1.42,-1.42,-0.70,-2.26,3.62,3.61,3.62
245.48,5.19,1.58,5.19,1.58,-1.58,-0.76,-2.28,3.61,3.61,3.61
247.93,5.34,1.73,5.34,1.73,-1.73,-0.83,-2.31,3.61,3.61,3.61
250.41,5.50,1.89,5.50,1.89,-1.89,-0.90,-2.33,3.61,3.61,3.61
252.92,5.67,2.05,5.66,2.04,-2.04,-0.98,-2.34,3.63,3.62,3.62
255.45,5.81,2.18,5.82,2.19,-2.19,-1.06,-2.35,3.62,3.62,3.63
258.00,5.97,2.33,5.97,2.34,-2.34,-1.15,-2.36,3.63,3.63,3.64
260.58,6.13,2.49,6.12,2.48,-2.48,-1.24,-2.36,3.65,3.64,3.64
263.19,6.28,2.63,6.27,2.62,-2.62,-1.34,-2.36,3.66,3.65,3.65
265.82,6.42,2.76,6.42,2.76,-2.76,-1.45,-2.35,3.66,3.66,3.66
268.48,6.57,2.89,6.57,2.90,-2.90,-1.56,-2.35,3.67,3.68,3.68
271.16,6.71,3.01,6.72,3.03,-3.03,-1.68,-2.33,3.68,3.69,3.70
273.87,6.86,3.16,6.86,3.16,-3.16,-1.81,-2.32,3.70,3.70,3.70
276.61,7.00,3.27,7.00,3.28,-3.28,-1.95,-2.30,3.72,3.72,3.73
279.38,7.13,3.40,7.13,3.40,-3.40,-2.10,-2.28,3.73,3.73,3.73
282.17,7.26,3.51,7.26,3.52,-3.52,-2.25,-2.26,3.74,3.74,3.75
284.99,7.39,3.63,7.39,3.63,-3.63,-2.41,-2.24,3.76,3.76,3.76
287.84,7.52,3.75,7.51,3.74,-3.74,-2.59,-2.21,3.78,3.77,3.77
290.72,7.64,3.86,7.62,3.84,-3.84,-2.77,-2.18,3.80,3.78,3.78
293.63,7.74,3.94,7.74,3.94,-3.94,-2.97,-2.16,3.80,3.80,3.80
296.57,7.85,4.03,7.84,4.03,-4.03,-3.17,-2.13,3.82,3.81,3.82
299.53,7.94,4.12,7.95,4.12,-4.12,-3.38,-2.10,3.82,3.82,3.82
302.53,8.03,4.20,8.05,4.21,-4.21,-3.59,-2.07,3.82,3.84,3.83
305.55,8.11,4.26,8.14,4.29,-4.29,-3.82,-2.04,3.82,3.85,3.85
308.61,8.20,4.34,8.22,4.36,-4.36,-4.04,-2.01,3.84,3.86,3.86
311.69,8.29,4.42,8.30,4.43,-4.43,-4.26,-1.98,3.86,3.87,3.87
314.81,8.38,4.48,8.37,4.49,-4.49,-4.47,-1.96,3.89,3.88,3.90
317.96,8.45,4.56,8.44,4.55,-4.55,-4.68,-1.93,3.90,3.89,3.89
321.14,8.52,4.62,8.49,4.60,-4.60,-4.86,-1.90,3.92,3.89,3.90
324.35,8.56,4.66,8.54,4.64,-4.64,-5.02,-1.88,3.92,3.90,3.90
327.59,8.59,4.68,8.58,4.67,-4.67,-5.15,-1.85,3.92,3.91,3.91
330.87,8.62,4.71,8.61,4.70,-4.70,-5.25,-1.83,3.92,3.91,3.91
334.18,8.63,4.72,8.63,4.72,-4.72,-5.30,-1.81,3.91,3.91,3.91
337.52,8.64,4.72,8.65,4.73,-4.73,-5.31,-1.79,3.91,3.92,3.92
340.90,8.65,4.73,8.65,4.73,-4.73,-5.27,-1.77,3.92,3.92,3.92
344.30,8.64,4.72,8.64,4.72,-4.72,-5.20,-1.75,3.92,3.92,3.92
347.75,8.62,4.70,8.62,4.71,-4.71,-5.08,-1.74,3.91,3.91,3.92
351.23,8.60,4.68,8.60,4.69,-4.69,-4.93,-1.72,3.91,3.91,3.92
354.74,8.58,4.66,8.57,4.66,-4.66,-4.75,-1.71,3.92,3.91,3.92
358.28,8.54,4.64,8.53,4.63,-4.63,-4.55,-1.70,3.91,3.91,3.90
361.87,8.49,4.59,8.49,4.59,-4.59,-4.34,-1.68,3.90,3.90,3.90
365.49,8.44,4.54,8.44,4.55,-4.55,-4.11,-1.68,3.89,3.90,3.90
369.14,8.38,4.49,8.39,4.50,-4.50,-3.89,-1.67,3.88,3.89,3.89
372.83,8.32,4.43,8.33,4.45,-4.45,-3.66,-1.66,3.87,3.88,3.89
376.56,8.26,4.38,8.27,4.39,-4.39,-3.43,-1.66,3.87,3.88,3.88
380.33,8.19,4.32,8.20,4.33,-4.33,-3.22,-1.65,3.86,3.87,3.87
384.13,8.12,4.26,8.12,4.26,-4.26,-3.00,-1.65,3.86,3.86,3.86
387.97,8.05,4.20,8.04,4.19,-4.19,-2.80,-1.65,3.86,3.85,3.85
391.85,7.97,4.13,7.96,4.11,-4.11,-2.60,-1.65,3.86,3.85,3.84
395.77,7.88,4.03,7.87,4.03,-4.03,-2.42,-1.65,3.85,3.84,3.85
399.73,7.78,3.94,7.77,3.94,-3.94,-2.24,-1.65,3.84,3.83,3.84
403.72,7.68,3.85,7.67,3.85,-3.85,-2.08,-1.65,3.83,3.83,3.83
407.76,7.57,3.75,7.57,3.75,-3.75,-1.92,-1.65,3.82,3.82,3.82
411.84,7.45,3.62,7.46,3.64,-3.64,-1.77,-1.65,3.81,3.82,3.83
415.96,7.34,3.53,7.35,3.53,-3.53,-1.63,-1.66,3.81,3.81,3.81
420.12,7.23,3.42,7.23,3.42,-3.42,-1.50,-1.66,3.81,3.81,3.81
424.32,7.11,3.30,7.10,3.30,-3.30,-1.38,-1.66,3.81,3.81,3.81
428.56,6.97,3.17,6.98,3.17,-3.17,-1.26,-1.66,3.80,3.80,3.80
432.85,6.84,3.04,6.85,3.04,-3.04,-1.15,-1.66,3.80,3.80,3.80
437.18,6.71,2.91,6.71,2.91,-2.91,-1.04,-1.67,3.80,3.80,3.80
441.55,6.59,2.78,6.58,2.78,-2.78,-0.94,-1.66,3.81,3.80,3.81
445.96,6.44,2.63,6.44,2.64,-2.64,-0.85,-1.66,3.80,3.80,3.81
450.42,6.30,2.50,6.30,2.49,-2.49,-0.76,-1.66,3.81,3.80,3.80
454.93,6.16,2.35,6.15,2.35,-2.35,-0.67,-1.65,3.81,3.81,3.81
459.48,6.01,2.20,6.01,2.20,-2.20,-0.59,-1.64,3.81,3.81,3.81
464.07,5.86,2.04,5.86,2.05,-2.05,-0.51,-1.63,3.81,3.81,3.82
468.71,5.71,1.88,5.71,1.89,-1.89,-0.43,-1.62,3.82,3.82,3.83
473.40,5.56,1.74,5.56,1.74,-1.74,-0.36,-1.61,3.82,3.82,3.82
478.13,5.41,1.58,5.42,1.59,-1.59,-0.29,-1.59,3.82,3.83,3.83
482.91,5.26,1.43,5.27,1.43,-1.43,-0.22,-1.57,3.83,3.83,3.83
487.74,5.11,1.27,5.12,1.28,-1.28,-0.16,-1.54,3.83,3.84,3.84
492.62,4.97,1.12,4.97,1.13,-1.13,-0.09,-1.51,3.84,3.84,3.85
497.55,4.82,0.97,4.82,0.97,-0.97,-0.03,-1.48,3.85,3.85,3.85
502.52,4.67,0.81,4.68,0.82,-0.82,0.03,-1.44,3.85,3.85,3.86
507.55,4.52,0.66,4.53,0.67,-0.67,0.09,-1.41,3.85,3.86,3.86
512.62,4.38,0.52,4.38,0.52,-0.52,0.15,-1.36,3.86,3.86,3.86
517.75,4.25,0.38,4.24,0.38,-0.38,0.21,-1.32,3.87,3.86,3.87
522.93,4.10,0.23,4.09,0.23,-0.23,0.27,-1.27,3.87,3.86,3.87
528.16,3.96,0.09,3.95,0.08,-0.08,0.33,-1.21,3.88,3.87,3.87
533.44,3.81,-0.06,3.81,-0.06,0.06,0.38,-1.16,3.87,3.87,3.87
