frequency,raw,error,smoothed,error_smoothed,equalization,parametric_eq,fixed_band_eq,equalized_raw,equalized_smoothed,target
20.00,5.18,-6.57,5.18,-6.58,6.58,6.33,2.62,11.76,11.76,11.75
20.20,5.20,-6.54,5.20,-6.54,6.54,6.31,2.69,11.74,11.74,11.74
20.40,5.22,-6.51,5.23,-6.50,6.50,6.30,2.77,11.73,11.73,11.73
20.61,5.25,-6.47,5.25,-6.47,6.47,6.29,2.85,11.72,11.72,11.72
20.81,5.27,-6.43,5.27,-6.43,6.43,6.27,2.93,11.71,11.71,11.70
21.02,5.29,-6.40,5.30,-6.40,6.40,6.26,3.01,11.69,11.70,11.69
21.23,5.32,-6.36,5.32,-6.36,6.36,6.24,3.10,11.69,11.69,11.68
21.44,5.34,-6.34,5.34,-6.33,6.33,6.23,3.19,11.67,11.68,11.69
21.66,5.36,-6.31,5.37,-6.30,6.30,6.21,3.28,11.66,11.67,11.67
21.87,5.39,-6.27,5.39,-6.27,6.27,6.20,3.37,11.66,11.66,11.67
22.09,5.41,-6.23,5.41,-6.24,6.24,6.18,3.47,11.65,11.65,11.65
22.31,5.43,-6.21,5.44,-6.20,6.20,6.16,3.57,11.64,11.64,11.64
22.54,5.46,-6.17,5.46,-6.17,6.17,6.15,3.67,11.64,11.64,11.63
22.76,5.48,-6.15,5.48,-6.15,6.15,6.13,3.77,11.63,11.63,11.63
22.99,5.51,-6.11,5.51,-6.12,6.12,6.11,3.88,11.63,11.62,11.62
23.22,5.53,-6.08,5.53,-6.09,6.09,6.09,3.99,11.62,11.62,11.61
23.45,5.55,-6.07,5.55,-6.06,6.06,6.08,4.10,11.61,11.61,11.62
23.69,5.57,-6.03,5.57,-6.03,6.03,6.06,4.21,11.61,11.61,11.61
23.92,5.59,-6.00,5.60,-6.01,6.01,6.04,4.33,11.60,11.60,11.60
24.16,5.61,-5.99,5.62,-5.98,5.98,6.02,4.45,11.60,11.60,11.60
24.40,5.64,-5.96,5.64,-5.96,5.96,6.00,4.56,11.60,11.60,11.60
24.65,5.66,-5.94,5.66,-5.94,5.94,5.98,4.69,11.60,11.60,11.60
24.89,5.68,-5.92,5.68,-5.91,5.91,5.96,4.81,11.59,11.59,11.60
25.14,5.70,-5.88,5.70,-5.89,5.89,5.94,4.93,11.59,11.59,11.59
25.39,5.72,-5.86,5.72,-5.87,5.87,5.92,5.05,11.59,11.59,11.59
25.65,5.74,-5.84,5.74,-5.84,5.84,5.90,5.18,11.59,11.59,11.58
25.91,5.76,-5.82,5.76,-5.82,5.82,5.88,5.30,11.59,11.59,11.58
26.16,5.78,-5.81,5.78,-5.80,5.80,5.86,5.43,11.58,11.59,11.59
26.43,5.80,-5.79,5.80,-5.78,5.78,5.84,5.55,11.58,11.59,11.59
26.69,5.82,-5.76,5.82,-5.76,5.76,5.82,5.67,11.58,11.59,11.59
26.96,5.84,-5.74,5.84,-5.74,5.74,5.80,5.79,11.58,11.58,11.58
27.23,5.86,-5.72,5.86,-5.72,5.72,5.78,5.91,11.59,11.59,11.58
27.50,5.88,-5.70,5.88,-5.71,5.71,5.76,6.02,11.59,11.59,11.58
27.77,5.89,-5.69,5.90,-5.69,5.69,5.74,6.13,11.58,11.59,11.59
28.05,5.91,-5.67,5.92,-5.67,5.67,5.72,6.24,11.58,11.59,11.58
28.33,5.93,-5.66,5.93,-5.65,5.65,5.70,6.34,11.59,11.59,11.59
28.62,5.95,-5.64,5.95,-5.64,5.64,5.68,6.43,11.59,11.59,11.59
28.90,5.96,-5.63,5.96,-5.62,5.62,5.66,6.52,11.59,11.59,11.60
29.19,5.98,-5.61,5.98,-5.61,5.61,5.64,6.60,11.59,11.59,11.59
29.48,5.99,-5.60,5.99,-5.59,5.59,5.62,6.67,11.59,11.58,11.59
29.78,6.01,-5.57,6.00,-5.58,5.58,5.60,6.73,11.59,11.58,11.59
30.08,6.02,-5.56,6.02,-5.56,5.56,5.58,6.78,11.58,11.58,11.58
30.38,6.03,-5.54,6.03,-5.54,5.54,5.56,6.82,11.58,11.57,11.57
30.68,6.03,-5.53,6.04,-5.53,5.53,5.54,6.85,11.56,11.57,11.56
30.99,6.04,-5.52,6.05,-5.51,5.51,5.52,6.87,11.55,11.56,11.56
31.30,6.05,-5.50,6.06,-5.49,5.49,5.50,6.88,11.55,11.56,11.56
31.61,6.06,-5.49,6.07,-5.47,5.47,5.48,6.88,11.54,11.55,11.55
31.93,6.08,-5.45,6.08,-5.46,5.46,5.46,6.87,11.54,11.54,11.53
32.24,6.09,-5.44,6.09,-5.44,5.44,5.43,6.84,11.53,11.53,11.53
32.57,6.10,-5.42,6.10,-5.43,5.43,5.41,6.81,11.53,11.52,11.52
32.89,6.11,-5.40,6.10,-5.41,5.41,5.39,6.77,11.53,11.52,11.51
33.22,6.11,-5.40,6.11,-5.40,5.40,5.37,6.72,11.51,11.51,11.51
33.55,6.12,-5.38,6.11,-5.39,5.39,5.35,6.66,11.51,11.50,11.50
33.89,6.12,-5.36,6.12,-5.37,5.37,5.33,6.59,11.50,11.49,11.49
34.23,6.12,-5.35,6.12,-5.36,5.36,5.30,6.52,11.48,11.48,11.47
34.57,6.12,-5.34,6.13,-5.34,5.34,5.28,6.44,11.47,11.47,11.47
34.92,6.12,-5.33,6.13,-5.33,5.33,5.26,6.35,11.45,11.46,11.45
35.27,6.12,-5.34,6.13,-5.31,5.31,5.24,6.26,11.44,11.45,11.46
35.62,6.13,-5.30,6.14,-5.30,5.30,5.21,6.17,11.43,11.44,11.44
35.97,6.13,-5.30,6.14,-5.28,5.28,5.19,6.07,11.41,11.42,11.43
36.33,6.14,-5.27,6.14,-5.26,5.26,5.16,5.98,11.41,11.40,11.41
36.70,6.14,-5.24,6.14,-5.24,5.24,5.14,5.87,11.39,11.39,11.39
37.06,6.15,-5.21,6.15,-5.22,5.22,5.11,5.77,11.37,11.37,11.37
37.43,6.15,-5.20,6.15,-5.20,5.20,5.09,5.67,11.35,11.35,11.35
37.81,6.16,-5.17,6.16,-5.17,5.17,5.06,5.57,11.34,11.33,11.33
38.19,6.16,-5.14,6.16,-5.15,5.15,5.04,5.47,11.31,11.31,11.30
38.57,6.17,-5.11,6.17,-5.12,5.12,5.01,5.37,11.29,11.28,11.28
38.95,6.17,-5.09,6.17,-5.09,5.09,4.98,5.27,11.26,11.26,11.26
39.34,6.17,-5.06,6.18,-5.06,5.06,4.96,5.17,11.23,11.23,11.23
39.74,6.18,-5.02,6.19,-5.02,5.02,4.93,5.08,11.21,11.21,11.20
40.14,6.18,-5.00,6.19,-4.99,4.99,4.90,4.98,11.17,11.19,11.18
40.54,6.20,-4.96,6.20,-4.96,4.96,4.87,4.89,11.16,11.16,11.16
40.94,6.21,-4.92,6.21,-4.92,4.92,4.84,4.80,11.14,11.14,11.13
41.35,6.22,-4.89,6.22,-4.89,4.89,4.81,4.72,11.11,11.11,11.11
41.76,6.23,-4.84,6.24,-4.85,4.85,4.78,4.63,11.08,11.09,11.08
42.18,6.25,-4.81,6.25,-4.81,4.81,4.74,4.55,11.06,11.06,11.07
42.60,6.26,-4.77,6.26,-4.77,4.77,4.71,4.48,11.03,11.03,11.03
43.03,6.27,-4.74,6.28,-4.73,4.73,4.68,4.40,11.00,11.01,11.01
43.46,6.29,-4.68,6.29,-4.69,4.69,4.64,4.33,10.98,10.98,10.97
43.90,6.31,-4.64,6.31,-4.64,4.64,4.61,4.27,10.95,10.95,10.95
44.33,6.32,-4.59,6.32,-4.59,4.59,4.57,4.20,10.92,10.92,10.91
44.78,6.33,-4.56,6.34,-4.55,4.55,4.54,4.14,10.88,10.89,10.89
45.23,6.35,-4.51,6.35,-4.50,4.50,4.50,4.08,10.85,10.85,10.86
45.68,6.37,-4.44,6.37,-4.45,4.45,4.46,4.03,10.82,10.82,10.82
46.13,6.38,-4.40,6.38,-4.39,4.39,4.42,3.98,10.78,10.78,10.78
46.60,6.40,-4.34,6.40,-4.34,4.34,4.38,3.93,10.74,10.74,10.74
47.06,6.41,-4.29,6.41,-4.28,4.28,4.34,3.88,10.70,10.70,10.70
47.53,6.42,-4.24,6.42,-4.23,4.23,4.30,3.84,10.65,10.65,10.66
48.01,6.43,-4.17,6.44,-4.17,4.17,4.26,3.80,10.60,10.61,10.60
48.49,6.44,-4.12,6.45,-4.12,4.12,4.22,3.76,10.56,10.56,10.56
48.97,6.46,-4.05,6.46,-4.06,4.06,4.18,3.73,10.52,10.52,10.51
49.46,6.46,-4.01,6.46,-4.01,4.01,4.13,3.70,10.47,10.47,10.47
49.96,6.47,-3.93,6.47,-3.95,3.95,4.09,3.67,10.43,10.42,10.41
50.46,6.47,-3.90,6.47,-3.90,3.90,4.04,3.64,10.37,10.38,10.37
50.96,6.48,-3.85,6.48,-3.85,3.85,4.00,3.61,10.33,10.33,10.33
51.47,6.48,-3.80,6.48,-3.80,3.80,3.95,3.59,10.29,10.28,10.28
51.99,6.49,-3.73,6.48,-3.75,3.75,3.90,3.57,10.25,10.24,10.23
52.51,6.48,-3.71,6.48,-3.71,3.71,3.85,3.54,10.19,10.19,10.19
53.03,6.48,-3.67,6.48,-3.66,3.66,3.81,3.52,10.14,10.14,10.15
53.56,6.47,-3.63,6.48,-3.62,3.62,3.76,3.50,10.09,10.10,10.10
54.10,6.47,-3.57,6.48,-3.57,3.57,3.71,3.48,10.05,10.05,10.04
54.64,6.46,-3.54,6.47,-3.53,3.53,3.66,3.47,10.00,10.00,10.00
55.18,6.46,-3.49,6.47,-3.49,3.49,3.61,3.45,9.95,9.96,9.95
55.74,6.46,-3.44,6.47,-3.45,3.45,3.55,3.43,9.91,9.92,9.90
56.29,6.46,-3.40,6.46,-3.41,3.41,3.50,3.41,9.87,9.87,9.87
56.86,6.46,-3.36,6.46,-3.36,3.36,3.45,3.39,9.83,9.82,9.82
57.42,6.46,-3.30,6.46,-3.31,3.31,3.40,3.36,9.78,9.78,9.77
58.00,6.46,-3.26,6.46,-3.26,3.26,3.34,3.34,9.73,9.73,9.72
58.58,6.46,-3.22,6.47,-3.21,3.21,3.29,3.31,9.67,9.68,9.68
59.16,6.46,-3.18,6.47,-3.15,3.15,3.23,3.29,9.62,9.62,9.64
59.76,6.46,-3.13,6.47,-3.10,3.10,3.18,3.26,9.56,9.57,9.59
60.35,6.46,-3.07,6.48,-3.04,3.04,3.12,3.23,9.50,9.51,9.53
60.96,6.47,-3.00,6.48,-2.98,2.98,3.07,3.19,9.45,9.46,9.47
61.57,6.48,-2.91,6.48,-2.92,2.92,3.01,3.15,9.40,9.40,9.40
62.18,6.49,-2.84,6.48,-2.86,2.86,2.96,3.11,9.35,9.34,9.33
62.80,6.49,-2.77,6.48,-2.80,2.80,2.90,3.07,9.29,9.28,9.27
63.43,6.49,-2.71,6.48,-2.74,2.74,2.84,3.03,9.23,9.22,9.20
64.07,6.48,-2.66,6.47,-2.68,2.68,2.78,2.98,9.16,9.15,9.14
64.71,6.47,-2.61,6.47,-2.62,2.62,2.73,2.93,9.09,9.09,9.08
65.35,6.46,-2.56,6.46,-2.57,2.57,2.67,2.87,9.03,9.02,9.02
66.01,6.45,-2.51,6.45,-2.51,2.51,2.61,2.81,8.97,8.96,8.96
66.67,6.43,-2.47,6.43,-2.46,2.46,2.55,2.75,8.90,8.90,8.91
67.33,6.41,-2.42,6.41,-2.42,2.42,2.50,2.69,8.83,8.83,8.83
68.01,6.39,-2.38,6.40,-2.37,2.37,2.44,2.63,8.77,8.77,8.78
68.69,6.37,-2.34,6.37,-2.33,2.33,2.38,2.56,8.71,8.71,8.71
69.37,6.35,-2.30,6.35,-2.29,2.29,2.32,2.49,8.64,8.64,8.65
70.07,6.33,-2.25,6.33,-2.25,2.25,2.26,2.42,8.58,8.57,8.58
70.77,6.30,-2.21,6.30,-2.21,2.21,2.20,2.35,8.51,8.51,8.51
71.48,6.28,-2.16,6.28,-2.16,2.16,2.15,2.28,8.45,8.44,8.45
72.19,6.25,-2.12,6.25,-2.12,2.12,2.09,2.20,8.37,8.37,8.37
72.91,6.22,-2.07,6.23,-2.08,2.08,2.03,2.13,8.30,8.31,8.30
73.64,6.20,-2.03,6.21,-2.03,2.03,1.97,2.05,8.23,8.24,8.23
74.38,6.18,-1.98,6.19,-1.99,1.99,1.91,1.97,8.17,8.17,8.16
75.12,6.17,-1.93,6.17,-1.94,1.94,1.85,1.89,8.11,8.11,8.10
75.87,6.14,-1.90,6.16,-1.89,1.89,1.79,1.82,8.03,8.04,8.04
76.63,6.13,-1.84,6.15,-1.84,1.84,1.73,1.74,7.97,7.98,7.97
77.40,6.13,-1.79,6.14,-1.78,1.78,1.67,1.66,7.91,7.92,7.92
78.17,6.12,-1.72,6.13,-1.73,1.73,1.62,1.58,7.85,7.86,7.85
78.95,6.11,-1.69,6.13,-1.67,1.67,1.56,1.50,7.78,7.80,7.80
79.74,6.12,-1.61,6.13,-1.61,1.61,1.50,1.42,7.73,7.73,7.74
80.54,6.13,-1.54,6.13,-1.55,1.55,1.44,1.35,7.68,7.67,7.68
81.35,6.13,-1.48,6.13,-1.48,1.48,1.38,1.27,7.62,7.61,7.61
82.16,6.14,-1.42,6.13,-1.42,1.42,1.32,1.19,7.56,7.55,7.56
82.98,6.14,-1.35,6.13,-1.35,1.35,1.26,1.12,7.50,7.49,7.49
83.81,6.14,-1.28,6.14,-1.29,1.29,1.20,1.04,7.43,7.42,7.43
84.65,6.14,-1.21,6.14,-1.22,1.22,1.15,0.96,7.36,7.36,7.35
85.50,6.14,-1.15,6.14,-1.15,1.15,1.09,0.89,7.29,7.29,7.29
86.35,6.14,-1.08,6.14,-1.08,1.08,1.03,0.81,7.23,7.23,7.22
87.22,6.14,-1.02,6.14,-1.02,1.02,0.97,0.74,7.16,7.16,7.16
88.09,6.14,-0.95,6.15,-0.95,0.95,0.91,0.66,7.09,7.09,7.09
88.97,6.14,-0.88,6.14,-0.88,0.88,0.85,0.59,7.02,7.02,7.02
89.86,6.14,-0.81,6.14,-0.81,0.81,0.80,0.52,6.95,6.95,6.96
90.76,6.14,-0.74,6.14,-0.74,0.74,0.74,0.44,6.88,6.88,6.89
91.66,6.14,-0.66,6.14,-0.67,0.67,0.68,0.37,6.81,6.81,6.81
92.58,6.14,-0.60,6.14,-0.60,0.60,0.62,0.30,6.74,6.74,6.75
93.51,6.14,-0.53,6.14,-0.52,0.52,0.56,0.23,6.67,6.67,6.67
94.44,6.14,-0.46,6.14,-0.45,0.45,0.50,0.16,6.59,6.59,6.60
95.39,6.14,-0.38,6.14,-0.38,0.38,0.45,0.08,6.52,6.52,6.52
96.34,6.14,-0.30,6.14,-0.30,0.30,0.39,0.01,6.45,6.45,6.45
97.30,6.14,-0.23,6.14,-0.23,0.23,0.33,-0.06,6.37,6.37,6.37
98.28,6.14,-0.15,6.14,-0.16,0.16,0.27,-0.13,6.30,6.30,6.29
99.26,6.14,-0.07,6.14,-0.08,0.08,0.21,-0.19,6.23,6.22,6.22
100.25,6.14,0.00,6.14,-0.01,0.01,0.16,-0.26,6.15,6.15,6.14
101.25,6.14,0.07,6.15,0.06,-0.06,0.10,-0.33,6.08,6.08,6.08
102.27,6.14,0.13,6.15,0.14,-0.14,0.04,-0.40,6.01,6.01,6.01
103.29,6.14,0.21,6.15,0.21,-0.21,-0.02,-0.47,5.93,5.94,5.94
104.32,6.14,0.27,6.15,0.28,-0.28,-0.08,-0.53,5.86,5.87,5.87
105.37,6.14,0.34,6.15,0.35,-0.35,-0.13,-0.60,5.79,5.80,5.80
106.42,6.14,0.40,6.16,0.42,-0.42,-0.19,-0.66,5.72,5.73,5.74
107.48,6.14,0.48,6.15,0.49,-0.49,-0.25,-0.72,5.65,5.66,5.66
108.56,6.16,0.57,6.15,0.56,-0.56,-0.31,-0.79,5.60,5.59,5.60
109.64,6.16,0.63,6.14,0.62,-0.62,-0.36,-0.85,5.54,5.52,5.53
110.74,6.15,0.70,6.14,0.68,-0.68,-0.42,-0.91,5.47,5.45,5.46
111.85,6.14,0.76,6.12,0.74,-0.74,-0.48,-0.96,5.40,5.38,5.38
112.97,6.12,0.80,6.11,0.80,-0.80,-0.54,-1.02,5.33,5.31,5.32
114.10,6.09,0.85,6.09,0.85,-0.85,-0.60,-1.08,5.25,5.24,5.24
115.24,6.07,0.91,6.06,0.89,-0.89,-0.65,-1.13,5.18,5.17,5.16
116.39,6.04,0.96,6.03,0.94,-0.94,-0.71,-1.18,5.11,5.10,5.09
117.55,6.01,1.00,6.00,0.98,-0.98,-0.77,-1.23,5.04,5.03,5.02
118.73,5.98,1.04,5.97,1.02,-1.02,-0.83,-1.28,4.97,4.96,4.94
119.92,5.93,1.05,5.94,1.05,-1.05,-0.88,-1.32,4.88,4.89,4.88
121.12,5.90,1.08,5.91,1.09,-1.09,-0.94,-1.36,4.81,4.82,4.82
122.33,5.88,1.13,5.89,1.14,-1.14,-1.00,-1.41,4.75,4.75,4.75
123.55,5.85,1.16,5.86,1.18,-1.18,-1.06,-1.44,4.67,4.68,4.69
124.79,5.82,1.20,5.85,1.23,-1.23,-1.12,-1.48,4.59,4.61,4.62
126.03,5.80,1.25,5.83,1.29,-1.29,-1.17,-1.51,4.52,4.55,4.55
127.29,5.79,1.31,5.83,1.35,-1.35,-1.23,-1.55,4.45,4.48,4.49
128.57,5.79,1.38,5.82,1.41,-1.41,-1.29,-1.58,4.38,4.41,4.41
129.85,5.80,1.46,5.82,1.47,-1.47,-1.35,-1.60,4.33,4.34,4.35
131.15,5.81,1.54,5.82,1.54,-1.54,-1.40,-1.63,4.27,4.28,4.27
132.46,5.82,1.61,5.82,1.61,-1.61,-1.46,-1.65,4.21,4.21,4.21
133.79,5.83,1.70,5.82,1.68,-1.68,-1.52,-1.68,4.16,4.14,4.14
135.12,5.84,1.77,5.82,1.74,-1.74,-1.57,-1.70,4.10,4.08,4.08
136.48,5.84,1.83,5.81,1.80,-1.80,-1.63,-1.72,4.04,4.01,4.02
137.84,5.83,1.89,5.81,1.86,-1.86,-1.69,-1.74,3.97,3.95,3.95
139.22,5.82,1.94,5.80,1.91,-1.91,-1.74,-1.75,3.91,3.88,3.88
140.61,5.80,1.98,5.78,1.96,-1.96,-1.80,-1.77,3.84,3.82,3.82
142.02,5.76,2.01,5.76,2.00,-2.00,-1.86,-1.79,3.77,3.76,3.76
143.44,5.74,2.04,5.73,2.03,-2.03,-1.91,-1.80,3.71,3.70,3.70
144.87,5.70,2.05,5.71,2.06,-2.06,-1.97,-1.82,3.65,3.65,3.65
146.32,5.67,2.09,5.67,2.08,-2.08,-2.02,-1.83,3.59,3.59,3.59
147.78,5.64,2.11,5.64,2.11,-2.11,-2.08,-1.85,3.54,3.53,3.54
149.26,5.61,2.14,5.61,2.13,-2.13,-2.13,-1.86,3.48,3.48,3.48
150.75,5.57,2.15,5.58,2.16,-2.16,-2.18,-1.88,3.41,3.42,3.42
152.26,5.54,2.17,5.56,2.19,-2.19,-2.24,-1.90,3.36,3.37,3.37
153.78,5.51,2.20,5.53,2.22,-2.22,-2.29,-1.92,3.29,3.32,3.32
155.32,5.50,2.24,5.52,2.26,-2.26,-2.34,-1.93,3.25,3.26,3.26
156.88,5.47,2.26,5.50,2.30,-2.30,-2.39,-1.95,3.18,3.21,3.21
158.44,5.47,2.32,5.49,2.34,-2.34,-2.44,-1.98,3.13,3.15,3.15
160.03,5.47,2.37,5.48,2.39,-2.39,-2.50,-2.00,3.09,3.09,3.10
161.63,5.48,2.44,5.48,2.44,-2.44,-2.54,-2.02,3.04,3.04,3.04
163.24,5.48,2.50,5.48,2.49,-2.49,-2.59,-2.05,2.99,2.98,2.98
164.88,5.49,2.57,5.48,2.55,-2.55,-2.64,-2.07,2.94,2.93,2.93
166.53,5.49,2.63,5.48,2.61,-2.61,-2.69,-2.10,2.88,2.87,2.86
168.19,5.49,2.67,5.49,2.68,-2.68,-2.74,-2.13,2.82,2.81,2.82
169.87,5.49,2.74,5.50,2.74,-2.74,-2.78,-2.16,2.75,2.76,2.76
171.57,5.49,2.80,5.50,2.80,-2.80,-2.83,-2.20,2.69,2.70,2.69
173.29,5.49,2.85,5.51,2.86,-2.86,-2.87,-2.23,2.63,2.64,2.65
175.02,5.50,2.92,5.51,2.92,-2.92,-2.91,-2.27,2.58,2.58,2.59
176.77,5.50,2.97,5.51,2.98,-2.98,-2.95,-2.31,2.53,2.53,2.53
178.54,5.51,3.04,5.50,3.03,-3.03,-2.99,-2.35,2.48,2.47,2.47
180.32,5.51,3.10,5.49,3.08,-3.08,-3.03,-2.39,2.44,2.42,2.41
182.13,5.50,3.14,5.48,3.12,-3.12,-3.07,-2.44,2.38,2.36,2.36
183.95,5.48,3.17,5.47,3.16,-3.16,-3.11,-2.48,2.32,2.31,2.31
185.79,5.46,3.21,5.45,3.20,-3.20,-3.14,-2.53,2.27,2.25,2.25
187.65,5.44,3.24,5.43,3.23,-3.23,-3.17,-2.58,2.21,2.20,2.20
189.52,5.42,3.27,5.41,3.26,-3.26,-3.21,-2.63,2.16,2.15,2.15
191.42,5.38,3.28,5.38,3.29,-3.29,-3.24,-2.69,2.10,2.10,2.10
193.33,5.35,3.30,5.36,3.31,-3.31,-3.26,-2.74,2.04,2.05,2.06
195.27,5.32,3.32,5.33,3.33,-3.33,-3.29,-2.80,1.99,2.00,2.00
197.22,5.29,3.35,5.30,3.35,-3.35,-3.32,-2.86,1.95,1.96,1.95
199.19,5.25,3.34,5.28,3.36,-3.36,-3.34,-2.91,1.89,1.91,1.91
201.18,5.23,3.37,5.25,3.38,-3.38,-3.36,-2.97,1.85,1.87,1.86
203.19,5.21,3.39,5.23,3.40,-3.40,-3.38,-3.03,1.82,1.83,1.83
205.23,5.20,3.41,5.20,3.41,-3.41,-3.40,-3.10,1.79,1.79,1.80
207.28,5.18,3.43,5.18,3.43,-3.43,-3.42,-3.16,1.75,1.75,1.76
209.35,5.16,3.44,5.16,3.44,-3.44,-3.43,-3.22,1.72,1.71,1.72
211.44,5.14,3.46,5.14,3.46,-3.46,-3.45,-3.28,1.69,1.68,1.68
213.56,5.12,3.47,5.11,3.47,-3.47,-3.46,-3.34,1.65,1.65,1.65
215.69,5.10,3.49,5.09,3.48,-3.48,-3.47,-3.40,1.62,1.61,1.62
217.85,5.07,3.49,5.07,3.49,-3.49,-3.48,-3.45,1.58,1.58,1.58
220.03,5.05,3.51,5.04,3.49,-3.49,-3.48,-3.51,1.56,1.55,1.55
222.23,5.02,3.51,5.02,3.50,-3.50,-3.49,-3.56,1.52,1.52,1.51
224.45,4.99,3.50,4.99,3.50,-3.50,-3.49,-3.61,1.49,1.49,1.49
226.70,4.95,3.50,4.97,3.50,-3.50,-3.49,-3.66,1.45,1.46,1.46
228.96,4.93,3.49,4.94,3.50,-3.50,-3.49,-3.70,1.44,1.44,1.45
231.25,4.91,3.50,4.91,3.49,-3.49,-3.48,-3.74,1.42,1.42,1.42
233.57,4.88,3.49,4.88,3.48,-3.48,-3.48,-3.78,1.40,1.40,1.40
235.90,4.84,3.47,4.85,3.48,-3.48,-3.47,-3.81,1.37,1.38,1.38
238.26,4.82,3.48,4.82,3.47,-3.47,-3.46,-3.84,1.36,1.36,1.35
240.64,4.79,3.44,4.80,3.45,-3.45,-3.45,-3.86,1.34,1.34,1.35
243.05,4.76,3.43,4.77,3.44,-3.44,-3.44,-3.87,1.32,1.33,1.33
245.48,4.74,3.43,4.74,3.42,-3.42,-3.43,-3.88,1.32,1.32,1.31
247.93,4.71,3.41,4.71,3.41,-3.41,-3.41,-3.89,1.31,1.31,1.30
250.41,4.69,3.39,4.69,3.39,-3.39,-3.40,-3.88,1.31,1.30,1.30
252.92,4.65,3.36,4.66,3.36,-3.36,-3.38,-3.88,1.29,1.29,1.30
255.45,4.63,3.35,4.63,3.34,-3.34,-3.36,-3.86,1.29,1.28,1.28
258.00,4.61,3.33,4.60,3.33,-3.33,-3.34,-3.84,1.29,1.28,1.28
260.58,4.58,3.31,4.58,3.31,-3.31,-3.31,-3.82,1.28,1.27,1.28
263.19,4.55,3.28,4.55,3.29,-3.29,-3.29,-3.79,1.27,1.26,1.27
265.82,4.50,3.24,4.52,3.26,-3.26,-3.27,-3.75,1.24,1.26,1.26
268.48,4.48,3.23,4.50,3.24,-3.24,-3.24,-3.71,1.24,1.25,1.26
271.16,4.45,3.20,4.47,3.22,-3.22,-3.21,-3.66,1.23,1.25,1.26
273.87,4.42,3.18,4.44,3.19,-3.19,-3.18,-3.61,1.23,1.24,1.24
276.61,4.40,3.16,4.40,3.16,-3.16,-3.15,-3.56,1.24,1.24,1.24
279.38,4.38,3.16,4.37,3.13,-3.13,-3.12,-3.50,1.25,1.24,1.22
282.17,4.37,3.15,4.33,3.10,-3.10,-3.09,-3.44,1.27,1.23,1.22
284.99,4.33,3.10,4.30,3.07,-3.07,-3.06,-3.38,1.27,1.23,1.23
287.84,4.27,3.04,4.26,3.03,-3.03,-3.02,-3.32,1.24,1.23,1.23
290.72,4.23,3.01,4.23,3.00,-3.00,-2.99,-3.25,1.24,1.23,1.22
293.63,4.19,2.96,4.19,2.96,-2.96,-2.95,-3.18,1.23,1.23,1.24
296.57,4.14,2.91,4.16,2.92,-2.92,-2.92,-3.11,1.22,1.24,1.24
299.53,4.09,2.85,4.12,2.88,-2.88,-2.88,-3.04,1.21,1.24,1.24
302.53,4.05,2.80,4.08,2.84,-2.84,-2.85,-2.97,1.21,1.24,1.25
305.55,4.02,2.78,4.04,2.80,-2.80,-2.81,-2.90,1.23,1.25,1.24
308.61,4.00,2.75,4.01,2.75,-2.75,-2.77,-2.83,1.25,1.25,1.26
311.69,3.98,2.72,3.97,2.71,-2.71,-2.73,-2.76,1.27,1.26,1.26
314.81,3.96,2.70,3.93,2.67,-2.67,-2.69,-2.69,1.29,1.26,1.26
317.96,3.92,2.66,3.90,2.64,-2.64,-2.65,-2.62,1.29,1.27,1.27
321.14,3.88,2.60,3.87,2.60,-2.60,-2.61,-2.55,1.28,1.27,1.28
324.35,3.84,2.57,3.84,2.56,-2.56,-2.57,-2.48,1.28,1.28,1.27
327.59,3.80,2.51,3.82,2.53,-2.53,-2.53,-2.42,1.27,1.29,1.30
330.87,3.76,2.47,3.79,2.49,-2.49,-2.49,-2.35,1.27,1.29,1.29
334.18,3.73,2.44,3.75,2.46,-2.46,-2.45,-2.29,1.28,1.30,1.30
337.52,3.71,2.41,3.72,2.42,-2.42,-2.41,-2.23,1.30,1.31,1.30
340.90,3.70,2.39,3.69,2.37,-2.37,-2.37,-2.17,1.33,1.31,1.32
344.30,3.67,2.35,3.65,2.33,-2.33,-2.33,-2.11,1.34,1.32,1.32
347.75,3.64,2.32,3.62,2.29,-2.29,-2.28,-2.05,1.35,1.33,1.33
351.23,3.60,2.28,3.59,2.26,-2.26,-2.24,-1.99,1.35,1.33,1.32
354.74,3.56,2.21,3.56,2.22,-2.22,-2.20,-1.94,1.34,1.34,1.35
358.28,3.52,2.18,3.53,2.18,-2.18,-2.16,-1.89,1.34,1.35,1.34
361.87,3.48,2.13,3.50,2.15,-2.15,-2.12,-1.83,1.34,1.35,1.35
365.49,3.44,2.09,3.47,2.11,-2.11,-2.08,-1.78,1.33,1.36,1.36
369.14,3.41,2.04,3.43,2.07,-2.07,-2.03,-1.74,1.35,1.37,1.37
372.83,3.39,2.01,3.40,2.03,-2.03,-1.99,-1.69,1.37,1.37,1.38
376.56,3.37,2.00,3.37,1.98,-1.98,-1.95,-1.64,1.39,1.38,1.38
380.33,3.35,1.97,3.33,1.94,-1.94,-1.91,-1.60,1.41,1.39,1.38
384.13,3.32,1.92,3.30,1.90,-1.90,-1.87,-1.56,1.42,1.40,1.40
387.97,3.28,1.88,3.27,1.86,-1.86,-1.83,-1.52,1.42,1.41,1.41
391.85,3.24,1.83,3.24,1.83,-1.83,-1.78,-1.48,1.42,1.42,1.41
395.77,3.20,1.78,3.21,1.79,-1.79,-1.74,-1.44,1.42,1.42,1.42
399.73,3.16,1.73,3.18,1.75,-1.75,-1.70,-1.40,1.42,1.43,1.43
403.72,3.12,1.67,3.15,1.70,-1.70,-1.66,-1.36,1.42,1.44,1.46
407.76,3.10,1.65,3.12,1.66,-1.66,-1.62,-1.33,1.44,1.45,1.45
411.84,3.08,1.62,3.08,1.62,-1.62,-1.58,-1.29,1.46,1.46,1.46
415.96,3.06,1.58,3.04,1.57,-1.57,-1.54,-1.26,1.49,1.47,1.48
420.12,3.03,1.56,3.01,1.53,-1.53,-1.49,-1.23,1.50,1.48,1.48
424.32,2.98,1.50,2.97,1.49,-1.49,-1.45,-1.19,1.50,1.49,1.48
428.56,2.94,1.44,2.94,1.44,-1.44,-1.41,-1.16,1.50,1.50,1.50
432.85,2.89,1.38,2.90,1.40,-1.40,-1.37,-1.13,1.49,1.50,1.51
437.18,2.85,1.34,2.86,1.35,-1.35,-1.33,-1.10,1.50,1.51,1.51
441.55,2.81,1.30,2.82,1.30,-1.30,-1.29,-1.07,1.51,1.52,1.52
445.96,2.78,1.26,2.78,1.25,-1.25,-1.25,-1.04,1.53,1.53,1.52
450.42,2.74,1.21,2.73,1.20,-1.20,-1.21,-1.01,1.55,1.54,1.53
454.93,2.70,1.16,2.69,1.14,-1.14,-1.17,-0.98,1.56,1.55,1.54
459.48,2.66,1.11,2.64,1.09,-1.09,-1.13,-0.95,1.57,1.55,1.55
464.07,2.61,1.04,2.60,1.04,-1.04,-1.08,-0.92,1.58,1.56,1.57
468.71,2.56,0.99,2.56,0.99,-0.99,-1.04,-0.89,1.58,1.57,1.58
473.40,2.50,0.92,2.52,0.94,-0.94,-1.00,-0.86,1.57,1.58,1.59
478.13,2.45,0.86,2.48,0.89,-0.89,-0.96,-0.83,1.57,1.59,1.59
482.91,2.41,0.81,2.44,0.84,-0.84,-0.92,-0.80,1.58,1.60,1.60
487.74,2.38,0.77,2.40,0.79,-0.79,-0.88,-0.77,1.60,1.61,1.61
492.62,2.35,0.73,2.36,0.74,-0.74,-0.84,-0.74,1.61,1.62,1.62
497.55,2.33,0.70,2.33,0.70,-0.70,-0.80,-0.71,1.64,1.63,1.63
502.52,2.31,0.67,2.30,0.65,-0.65,-0.75,-0.67,1.66,1.65,1.64
507.55,2.28,0.63,2.27,0.61,-0.61,-0.71,-0.64,1.67,1.66,1.66
512.62,2.24,0.58,2.24,0.57,-0.57,-0.67,-0.61,1.67,1.67,1.67
517.75,2.20,0.52,2.21,0.53,-0.53,-0.63,-0.57,1.67,1.68,1.69
522.93,2.17,0.48,2.18,0.49,-0.49,-0.58,-0.54,1.68,1.69,1.69
528.16,2.14,0.44,2.15,0.45,-0.45,-0.54,-0.50,1.69,1.70,1.70
533.44,2.13,0.42,2.12,0.41,-0.41,-0.50,-0.46,1.73,1.72,1.71
