frequency,raw,error,smoothed,error_smoothed,equalization,parametric_eq,fixed_band_eq,equalized_raw,equalized_smoothed,target
20.00,4.66,-6.10,4.53,-6.23,6.23,5.37,1.99,10.89,10.77,10.76
20.20,4.70,-6.05,4.67,-6.09,6.09,5.36,2.05,10.79,10.76,10.75
20.40,4.75,-5.99,4.80,-5.95,5.95,5.36,2.12,10.70,10.75,10.74
20.61,4.79,-5.95,4.92,-5.82,5.82,5.36,2.18,10.61,10.74,10.74
20.81,4.84,-5.88,5.03,-5.70,5.70,5.35,2.24,10.54,10.73,10.72
21.02,4.90,-5.82,5.14,-5.59,5.59,5.34,2.31,10.49,10.72,10.72
21.23,5.12,-5.59,5.23,-5.48,5.48,5.34,2.38,10.61,10.72,10.71
21.44,5.34,-5.38,5.32,-5.39,5.39,5.33,2.45,10.73,10.71,10.72
21.66,5.56,-5.16,5.39,-5.31,5.31,5.32,2.53,10.87,10.70,10.71
21.87,5.78,-4.92,5.46,-5.23,5.23,5.31,2.60,11.02,10.70,10.70
22.09,5.88,-4.81,5.52,-5.17,5.17,5.29,2.68,11.05,10.69,10.69
22.31,5.81,-4.88,5.57,-5.11,5.11,5.28,2.76,10.92,10.69,10.69
22.54,5.74,-4.94,5.60,-5.08,5.08,5.27,2.84,10.82,10.68,10.68
22.76,5.66,-5.01,5.63,-5.05,5.05,5.25,2.92,10.71,10.68,10.67
22.99,5.59,-5.07,5.65,-5.03,5.03,5.24,3.01,10.62,10.67,10.66
23.22,5.55,-5.10,5.66,-5.01,5.01,5.22,3.10,10.56,10.67,10.65
23.45,5.50,-5.16,5.66,-5.00,5.00,5.20,3.19,10.50,10.67,10.66
23.69,5.45,-5.20,5.66,-5.01,5.01,5.18,3.28,10.46,10.66,10.65
23.92,5.41,-5.24,5.65,-5.01,5.01,5.16,3.37,10.42,10.66,10.65
24.16,5.48,-5.18,5.65,-5.01,5.01,5.14,3.46,10.49,10.66,10.66
24.40,5.62,-5.05,5.67,-5.00,5.00,5.12,3.56,10.62,10.66,10.67
24.65,5.76,-4.92,5.69,-4.97,4.97,5.10,3.66,10.73,10.66,10.67
24.89,5.90,-4.77,5.74,-4.93,4.93,5.08,3.76,10.83,10.67,10.67
25.14,5.96,-4.70,5.78,-4.89,4.89,5.05,3.86,10.85,10.67,10.66
25.39,5.95,-4.71,5.83,-4.84,4.84,5.03,3.96,10.79,10.67,10.66
25.65,5.95,-4.71,5.88,-4.79,4.79,5.00,4.06,10.74,10.67,10.66
25.91,5.94,-4.73,5.93,-4.74,4.74,4.97,4.16,10.68,10.68,10.67
26.16,5.95,-4.73,5.97,-4.70,4.70,4.95,4.26,10.65,10.68,10.68
26.43,5.96,-4.72,6.00,-4.67,4.67,4.92,4.35,10.63,10.68,10.68
26.69,5.97,-4.71,6.02,-4.66,4.66,4.89,4.45,10.63,10.68,10.68
26.96,5.99,-4.68,6.03,-4.65,4.65,4.86,4.55,10.64,10.68,10.67
27.23,6.04,-4.63,6.05,-4.62,4.62,4.83,4.64,10.66,10.68,10.67
27.50,6.09,-4.58,6.09,-4.59,4.59,4.80,4.73,10.68,10.68,10.67
27.77,6.15,-4.53,6.14,-4.54,4.54,4.77,4.82,10.69,10.68,10.68
28.05,6.19,-4.49,6.20,-4.48,4.48,4.73,4.90,10.67,10.68,10.68
28.33,6.19,-4.47,6.25,-4.42,4.42,4.70,4.98,10.61,10.68,10.66
28.62,6.19,-4.47,6.31,-4.37,4.37,4.67,5.06,10.56,10.68,10.66
28.90,6.19,-4.48,6.35,-4.32,4.32,4.63,5.12,10.51,10.67,10.67
29.19,6.31,-4.36,6.39,-4.28,4.28,4.60,5.19,10.59,10.67,10.67
29.48,6.48,-4.18,6.41,-4.25,4.25,4.56,5.24,10.74,10.67,10.66
29.78,6.66,-4.01,6.42,-4.24,4.24,4.53,5.29,10.90,10.66,10.66
30.08,6.76,-3.92,6.43,-4.23,4.23,4.49,5.33,10.99,10.66,10.67
30.38,6.64,-4.02,6.42,-4.23,4.23,4.45,5.36,10.87,10.65,10.66
30.68,6.52,-4.12,6.43,-4.22,4.22,4.42,5.39,10.74,10.65,10.64
30.99,6.40,-4.24,6.45,-4.19,4.19,4.38,5.40,10.59,10.64,10.64
31.30,6.35,-4.28,6.48,-4.16,4.16,4.34,5.41,10.51,10.63,10.63
31.61,6.31,-4.31,6.51,-4.12,4.12,4.30,5.41,10.43,10.63,10.62
31.93,6.27,-4.34,6.54,-4.08,4.08,4.26,5.39,10.35,10.62,10.61
32.24,6.32,-4.29,6.56,-4.05,4.05,4.22,5.38,10.37,10.61,10.61
32.57,6.39,-4.20,6.56,-4.05,4.05,4.18,5.35,10.43,10.61,10.59
32.89,6.47,-4.12,6.55,-4.05,4.05,4.14,5.31,10.53,10.60,10.59
33.22,6.60,-3.99,6.53,-4.06,4.06,4.10,5.27,10.66,10.60,10.59
33.55,6.77,-3.81,6.54,-4.05,4.05,4.06,5.22,10.83,10.59,10.58
33.89,6.94,-3.65,6.56,-4.03,4.03,4.02,5.16,10.97,10.59,10.59
34.23,6.91,-3.66,6.58,-4.01,4.01,3.98,5.10,10.92,10.58,10.57
34.57,6.76,-3.81,6.59,-3.99,3.99,3.94,5.03,10.75,10.58,10.57
34.92,6.62,-3.94,6.60,-3.97,3.97,3.89,4.96,10.59,10.57,10.56
35.27,6.49,-4.08,6.60,-3.96,3.96,3.85,4.88,10.45,10.56,10.57
35.62,6.35,-4.20,6.61,-3.95,3.95,3.81,4.80,10.30,10.55,10.55
35.97,6.22,-4.33,6.61,-3.94,3.94,3.77,4.71,10.16,10.54,10.55
36.33,6.37,-4.16,6.61,-3.92,3.92,3.72,4.63,10.29,10.53,10.53
36.70,6.55,-3.98,6.62,-3.90,3.90,3.68,4.54,10.45,10.52,10.52
37.06,6.69,-3.81,6.61,-3.89,3.89,3.64,4.45,10.58,10.50,10.50
37.43,6.69,-3.79,6.60,-3.88,3.88,3.59,4.36,10.57,10.48,10.48
37.81,6.69,-3.77,6.59,-3.87,3.87,3.55,4.27,10.56,10.46,10.46
38.19,6.71,-3.72,6.61,-3.83,3.83,3.51,4.18,10.54,10.43,10.43
38.57,6.76,-3.65,6.64,-3.77,3.77,3.46,4.08,10.53,10.41,10.41
38.95,6.80,-3.58,6.67,-3.71,3.71,3.42,3.99,10.51,10.38,10.38
39.34,6.80,-3.54,6.70,-3.65,3.65,3.38,3.90,10.45,10.36,10.34
39.74,6.80,-3.52,6.73,-3.60,3.60,3.33,3.81,10.40,10.33,10.32
40.14,6.74,-3.55,6.74,-3.56,3.56,3.29,3.73,10.30,10.30,10.29
40.54,6.57,-3.70,6.74,-3.53,3.53,3.24,3.64,10.10,10.27,10.27
40.94,6.41,-3.83,6.74,-3.50,3.50,3.20,3.55,9.91,10.25,10.24
41.35,6.57,-3.65,6.75,-3.47,3.47,3.16,3.47,10.04,10.22,10.22
41.76,6.78,-3.40,6.77,-3.43,3.43,3.11,3.39,10.21,10.19,10.18
42.18,6.90,-3.26,6.78,-3.38,3.38,3.07,3.31,10.28,10.17,10.16
42.60,6.90,-3.24,6.80,-3.34,3.34,3.02,3.24,10.24,10.14,10.14
43.03,6.90,-3.21,6.82,-3.30,3.30,2.98,3.16,10.20,10.11,10.11
43.46,6.90,-3.18,6.85,-3.24,3.24,2.94,3.09,10.14,10.09,10.08
43.90,6.90,-3.16,6.88,-3.18,3.18,2.89,3.02,10.08,10.06,10.06
44.33,6.90,-3.12,6.90,-3.13,3.13,2.85,2.95,10.03,10.03,10.02
44.78,6.90,-3.09,6.91,-3.09,3.09,2.80,2.88,9.99,10.00,9.99
45.23,6.90,-3.08,6.91,-3.06,3.06,2.76,2.82,9.96,9.97,9.98
45.68,6.90,-3.03,6.90,-3.03,3.03,2.72,2.76,9.93,9.93,9.93
46.13,6.90,-2.99,6.87,-3.02,3.02,2.67,2.70,9.92,9.90,9.89
46.60,6.90,-2.96,6.85,-3.01,3.01,2.63,2.64,9.91,9.86,9.86
47.06,6.90,-2.92,6.84,-2.97,2.97,2.59,2.59,9.87,9.82,9.82
47.53,6.90,-2.89,6.84,-2.93,2.93,2.54,2.54,9.83,9.78,9.79
48.01,6.90,-2.83,6.85,-2.89,2.89,2.50,2.48,9.79,9.73,9.73
48.49,6.71,-2.97,6.85,-2.84,2.84,2.45,2.44,9.55,9.69,9.68
48.97,6.52,-3.12,6.86,-2.79,2.79,2.41,2.39,9.31,9.64,9.64
49.46,6.73,-2.87,6.87,-2.73,2.73,2.37,2.34,9.46,9.60,9.60
49.96,6.96,-2.58,6.88,-2.67,2.67,2.32,2.30,9.63,9.55,9.53
50.46,6.99,-2.50,6.90,-2.61,2.61,2.28,2.26,9.60,9.51,9.49
50.96,7.00,-2.45,6.91,-2.55,2.55,2.24,2.22,9.55,9.46,9.45
51.47,7.00,-2.41,6.93,-2.48,2.48,2.20,2.18,9.48,9.41,9.41
51.99,7.00,-2.36,6.95,-2.42,2.42,2.15,2.14,9.42,9.37,9.36
52.51,7.00,-2.32,6.97,-2.35,2.35,2.11,2.10,9.35,9.32,9.32
53.03,7.00,-2.29,6.99,-2.29,2.29,2.07,2.07,9.29,9.27,9.29
53.56,7.00,-2.23,7.01,-2.22,2.22,2.02,2.03,9.22,9.23,9.23
54.10,7.00,-2.18,7.03,-2.16,2.16,1.98,1.99,9.16,9.18,9.18
54.64,7.00,-2.14,7.03,-2.11,2.11,1.94,1.96,9.11,9.14,9.14
55.18,7.00,-2.08,7.02,-2.08,2.08,1.90,1.93,9.08,9.10,9.08
55.74,7.00,-2.03,7.00,-2.05,2.05,1.85,1.89,9.05,9.06,9.03
56.29,7.00,-2.00,7.00,-2.01,2.01,1.81,1.86,9.01,9.01,9.00
56.86,7.00,-1.96,7.00,-1.97,1.97,1.77,1.82,8.97,8.97,8.96
57.42,7.00,-1.90,7.00,-1.92,1.92,1.73,1.79,8.92,8.92,8.90
58.00,7.00,-1.87,7.00,-1.88,1.88,1.69,1.76,8.88,8.88,8.87
58.58,7.00,-1.84,7.00,-1.83,1.83,1.64,1.72,8.83,8.83,8.84
59.16,7.00,-1.80,7.00,-1.78,1.78,1.60,1.68,8.78,8.78,8.80
59.76,7.00,-1.76,7.00,-1.73,1.73,1.56,1.65,8.73,8.73,8.76
60.35,7.00,-1.69,7.00,-1.68,1.68,1.52,1.61,8.68,8.68,8.69
60.96,7.00,-1.64,7.00,-1.63,1.63,1.48,1.57,8.63,8.63,8.64
61.57,7.00,-1.57,7.00,-1.57,1.57,1.44,1.53,8.57,8.57,8.57
62.18,7.00,-1.50,7.00,-1.52,1.52,1.39,1.49,8.52,8.52,8.50
62.80,7.00,-1.44,7.00,-1.46,1.46,1.35,1.45,8.46,8.46,8.44
63.43,7.00,-1.38,7.02,-1.38,1.38,1.31,1.40,8.38,8.40,8.38
64.07,7.00,-1.33,7.02,-1.32,1.32,1.27,1.36,8.32,8.34,8.33
64.71,7.00,-1.27,7.01,-1.27,1.27,1.23,1.31,8.27,8.28,8.27
65.35,7.00,-1.21,6.99,-1.23,1.23,1.19,1.26,8.23,8.22,8.21
66.01,7.00,-1.15,6.98,-1.18,1.18,1.15,1.22,8.18,8.16,8.15
66.67,7.00,-1.11,6.97,-1.13,1.13,1.10,1.17,8.13,8.10,8.11
67.33,7.00,-1.03,6.96,-1.08,1.08,1.06,1.11,8.08,8.04,8.03
68.01,7.00,-0.98,6.96,-1.02,1.02,1.02,1.06,8.02,7.98,7.98
68.69,7.00,-0.91,6.95,-0.96,0.96,0.98,1.01,7.96,7.92,7.91
69.37,7.00,-0.86,6.95,-0.90,0.90,0.94,0.95,7.90,7.85,7.86
70.07,6.97,-0.82,6.95,-0.84,0.84,0.90,0.90,7.81,7.79,7.79
70.77,6.71,-1.02,6.97,-0.75,0.75,0.85,0.84,7.46,7.73,7.73
71.48,6.79,-0.87,7.00,-0.67,0.67,0.81,0.78,7.45,7.66,7.66
72.19,7.00,-0.59,7.02,-0.58,0.58,0.77,0.72,7.58,7.60,7.59
72.91,7.09,-0.44,7.04,-0.50,0.50,0.73,0.66,7.59,7.53,7.53
73.64,7.10,-0.36,7.06,-0.42,0.42,0.69,0.60,7.52,7.47,7.46
74.38,7.10,-0.30,7.07,-0.34,0.34,0.64,0.54,7.44,7.41,7.40
75.12,7.10,-0.23,7.09,-0.26,0.26,0.60,0.48,7.36,7.35,7.33
75.87,7.10,-0.19,7.10,-0.19,0.19,0.56,0.42,7.29,7.29,7.29
76.63,7.17,-0.05,7.11,-0.12,0.12,0.52,0.36,7.30,7.23,7.22
77.40,7.30,0.13,7.12,-0.06,0.06,0.47,0.29,7.36,7.18,7.17
78.17,7.36,0.24,7.12,0.00,-0.00,0.43,0.23,7.35,7.12,7.11
78.95,7.02,-0.05,7.13,0.06,-0.06,0.39,0.17,6.96,7.07,7.07
79.74,7.00,-0.01,7.12,0.12,-0.12,0.34,0.10,6.88,7.01,7.01
80.54,7.00,0.05,7.08,0.13,-0.13,0.30,0.04,6.87,6.96,6.95
81.35,7.00,0.10,7.06,0.16,-0.16,0.26,-0.03,6.84,6.90,6.90
82.16,7.00,0.15,7.04,0.20,-0.20,0.21,-0.09,6.80,6.84,6.85
82.98,7.00,0.21,7.02,0.24,-0.24,0.17,-0.16,6.76,6.79,6.79
83.81,7.00,0.27,7.00,0.27,-0.27,0.12,-0.23,6.73,6.73,6.73
84.65,7.00,0.33,6.98,0.31,-0.31,0.08,-0.29,6.69,6.67,6.67
85.50,7.00,0.40,6.95,0.34,-0.34,0.03,-0.36,6.66,6.61,6.60
86.35,7.00,0.46,6.93,0.38,-0.38,-0.01,-0.43,6.62,6.55,6.54
87.22,6.99,0.50,6.92,0.43,-0.43,-0.06,-0.50,6.56,6.49,6.49
88.09,6.93,0.51,6.93,0.50,-0.50,-0.11,-0.57,6.43,6.43,6.42
88.97,6.62,0.25,6.91,0.54,-0.54,-0.15,-0.64,6.08,6.37,6.37
89.86,7.06,0.76,6.89,0.59,-0.59,-0.20,-0.71,6.47,6.30,6.29
90.76,6.96,0.73,6.87,0.63,-0.63,-0.25,-0.78,6.33,6.24,6.23
91.66,6.84,0.68,6.84,0.68,-0.68,-0.30,-0.85,6.16,6.17,6.16
92.58,6.80,0.70,6.84,0.74,-0.74,-0.34,-0.92,6.06,6.10,6.10
93.51,6.80,0.77,6.84,0.81,-0.81,-0.39,-0.99,5.99,6.02,6.03
94.44,6.80,0.84,6.83,0.89,-0.89,-0.44,-1.06,5.91,5.95,5.96
95.39,6.80,0.92,6.83,0.96,-0.96,-0.49,-1.14,5.84,5.87,5.88
96.34,6.80,1.00,6.83,1.03,-1.03,-0.54,-1.21,5.77,5.80,5.80
97.30,6.79,1.07,6.82,1.10,-1.10,-0.60,-1.28,5.69,5.72,5.72
98.28,6.78,1.15,6.81,1.17,-1.17,-0.65,-1.36,5.61,5.64,5.63
99.26,6.77,1.23,6.80,1.24,-1.24,-0.70,-1.43,5.53,5.56,5.54
100.25,6.78,1.32,6.75,1.27,-1.27,-0.75,-1.50,5.51,5.48,5.46
101.25,6.88,1.49,6.73,1.34,-1.34,-0.81,-1.58,5.54,5.39,5.39
102.27,6.98,1.68,6.73,1.42,-1.42,-0.86,-1.65,5.56,5.31,5.30
103.29,6.76,1.54,6.71,1.49,-1.49,-0.92,-1.72,5.27,5.23,5.22
104.32,6.59,1.44,6.69,1.55,-1.55,-0.97,-1.80,5.04,5.15,5.15
105.37,6.56,1.49,6.66,1.60,-1.60,-1.03,-1.87,4.96,5.06,5.07
106.42,6.54,1.56,6.63,1.64,-1.64,-1.09,-1.94,4.90,4.98,4.98
107.48,6.51,1.62,6.59,1.69,-1.69,-1.14,-2.01,4.82,4.91,4.89
108.56,6.49,1.66,6.55,1.72,-1.72,-1.20,-2.08,4.77,4.83,4.83
109.64,6.47,1.73,6.51,1.76,-1.76,-1.26,-2.15,4.71,4.75,4.74
110.74,6.52,1.86,6.48,1.81,-1.81,-1.32,-2.22,4.71,4.67,4.66
111.85,6.70,2.11,6.47,1.87,-1.87,-1.38,-2.28,4.83,4.59,4.59
112.97,6.55,2.03,6.45,1.94,-1.94,-1.44,-2.34,4.61,4.52,4.52
114.10,6.32,1.87,6.43,1.99,-1.99,-1.51,-2.40,4.33,4.45,4.45
115.24,6.32,1.95,6.41,2.04,-2.04,-1.57,-2.46,4.28,4.37,4.37
116.39,6.32,2.03,6.38,2.08,-2.08,-1.63,-2.52,4.24,4.30,4.29
117.55,6.32,2.09,6.36,2.12,-2.12,-1.70,-2.57,4.20,4.24,4.23
118.73,6.33,2.18,6.34,2.17,-2.17,-1.76,-2.62,4.16,4.17,4.15
119.92,6.33,2.24,6.32,2.22,-2.22,-1.83,-2.66,4.11,4.11,4.09
121.12,6.50,2.46,6.30,2.26,-2.26,-1.89,-2.70,4.24,4.04,4.04
122.33,6.44,2.47,6.28,2.30,-2.30,-1.96,-2.74,4.14,3.98,3.97
123.55,6.32,2.40,6.25,2.34,-2.34,-2.03,-2.78,3.98,3.91,3.92
124.79,6.05,2.19,6.22,2.37,-2.37,-2.10,-2.81,3.68,3.85,3.86
126.03,5.89,2.10,6.21,2.42,-2.42,-2.17,-2.84,3.47,3.79,3.79
127.29,6.08,2.35,6.21,2.48,-2.48,-2.24,-2.86,3.60,3.73,3.73
128.57,6.29,2.62,6.20,2.53,-2.53,-2.31,-2.88,3.76,3.67,3.67
129.85,6.46,2.86,6.19,2.58,-2.58,-2.38,-2.90,3.88,3.61,3.60
131.15,6.23,2.69,6.19,2.64,-2.64,-2.45,-2.91,3.59,3.55,3.54
132.46,6.14,2.66,6.18,2.69,-2.69,-2.52,-2.92,3.45,3.49,3.48
133.79,6.10,2.68,6.18,2.75,-2.75,-2.59,-2.93,3.35,3.43,3.42
135.12,6.10,2.74,6.17,2.80,-2.80,-2.66,-2.94,3.30,3.37,3.36
136.48,6.11,2.79,6.17,2.86,-2.86,-2.74,-2.94,3.25,3.31,3.32
137.84,6.11,2.85,6.18,2.92,-2.92,-2.81,-2.94,3.19,3.25,3.26
139.22,6.20,3.02,6.16,2.97,-2.97,-2.88,-2.94,3.23,3.19,3.18
140.61,6.33,3.19,6.13,2.99,-2.99,-2.95,-2.94,3.34,3.14,3.14
142.02,6.26,3.18,6.09,3.01,-3.01,-3.02,-2.93,3.25,3.08,3.08
143.44,6.08,3.07,6.06,3.03,-3.03,-3.09,-2.93,3.05,3.02,3.01
144.87,6.01,3.05,6.04,3.07,-3.07,-3.16,-2.92,2.94,2.97,2.96
146.32,6.00,3.09,6.03,3.11,-3.11,-3.23,-2.92,2.89,2.91,2.91
147.78,5.95,3.10,6.00,3.14,-3.14,-3.30,-2.91,2.81,2.86,2.85
149.26,5.88,3.08,5.96,3.16,-3.16,-3.37,-2.90,2.72,2.80,2.80
150.75,5.82,3.09,5.94,3.20,-3.20,-3.43,-2.90,2.62,2.74,2.73
152.26,5.81,3.12,5.93,3.24,-3.24,-3.50,-2.89,2.57,2.69,2.69
153.78,5.81,3.18,5.89,3.26,-3.26,-3.56,-2.89,2.55,2.63,2.63
155.32,5.95,3.37,5.84,3.27,-3.27,-3.62,-2.89,2.68,2.58,2.58
156.88,6.06,3.54,5.80,3.29,-3.29,-3.68,-2.89,2.77,2.52,2.52
158.44,5.81,3.35,5.79,3.33,-3.33,-3.73,-2.89,2.48,2.46,2.46
160.03,5.71,3.31,5.77,3.37,-3.37,-3.79,-2.89,2.34,2.40,2.40
161.63,5.71,3.37,5.74,3.40,-3.40,-3.84,-2.89,2.31,2.34,2.34
163.24,5.71,3.44,5.71,3.43,-3.43,-3.89,-2.90,2.28,2.28,2.27
164.88,5.75,3.53,5.70,3.48,-3.48,-3.93,-2.90,2.27,2.22,2.22
166.53,5.88,3.73,5.68,3.52,-3.52,-3.97,-2.91,2.36,2.16,2.15
168.19,5.53,3.43,5.64,3.54,-3.54,-4.01,-2.93,1.99,2.10,2.10
169.87,5.27,3.23,5.59,3.55,-3.55,-4.05,-2.94,1.72,2.04,2.04
171.57,5.47,3.50,5.53,3.55,-3.55,-4.08,-2.96,1.92,1.98,1.97
173.29,5.64,3.73,5.48,3.56,-3.56,-4.10,-2.97,2.08,1.92,1.91
175.02,5.59,3.73,5.45,3.58,-3.58,-4.13,-3.00,2.01,1.87,1.86
176.77,5.40,3.59,5.43,3.61,-3.61,-4.15,-3.02,1.79,1.81,1.81
178.54,5.37,3.62,5.40,3.64,-3.64,-4.16,-3.04,1.73,1.76,1.75
180.32,5.50,3.81,5.36,3.66,-3.66,-4.17,-3.07,1.84,1.71,1.69
182.13,5.45,3.80,5.33,3.68,-3.68,-4.18,-3.10,1.77,1.66,1.65
183.95,5.09,3.49,5.30,3.70,-3.70,-4.18,-3.14,1.39,1.61,1.60
185.79,5.03,3.48,5.27,3.72,-3.72,-4.18,-3.17,1.31,1.56,1.55
187.65,5.18,3.67,5.27,3.76,-3.76,-4.17,-3.21,1.42,1.51,1.51
189.52,5.34,3.88,5.25,3.79,-3.79,-4.16,-3.25,1.55,1.47,1.46
191.42,5.39,3.96,5.22,3.80,-3.80,-4.14,-3.29,1.59,1.42,1.43
193.33,5.24,3.86,5.20,3.82,-3.82,-4.12,-3.34,1.42,1.38,1.38
195.27,5.17,3.84,5.18,3.85,-3.85,-4.10,-3.38,1.32,1.34,1.33
197.22,5.16,3.88,5.17,3.87,-3.87,-4.08,-3.43,1.29,1.29,1.28
199.19,5.11,3.86,5.14,3.88,-3.88,-4.05,-3.48,1.23,1.25,1.25
201.18,5.09,3.89,5.10,3.88,-3.88,-4.01,-3.53,1.21,1.21,1.20
203.19,5.04,3.87,5.08,3.90,-3.90,-3.98,-3.58,1.14,1.17,1.17
205.23,5.06,3.93,5.07,3.94,-3.94,-3.94,-3.63,1.12,1.13,1.13
207.28,5.16,4.06,5.02,3.93,-3.93,-3.89,-3.68,1.23,1.09,1.10
209.35,5.04,3.98,4.95,3.90,-3.90,-3.85,-3.73,1.14,1.05,1.06
211.44,4.90,3.89,4.90,3.88,-3.88,-3.80,-3.79,1.02,1.02,1.01
213.56,4.82,3.84,4.86,3.88,-3.88,-3.75,-3.84,0.94,0.98,0.98
215.69,4.75,3.81,4.82,3.88,-3.88,-3.70,-3.89,0.87,0.94,0.94
217.85,4.69,3.78,4.78,3.87,-3.87,-3.64,-3.94,0.82,0.91,0.91
220.03,4.68,3.82,4.73,3.86,-3.86,-3.59,-3.99,0.82,0.88,0.86
222.23,4.69,3.85,4.69,3.84,-3.84,-3.53,-4.03,0.85,0.85,0.84
224.45,4.79,3.98,4.64,3.82,-3.82,-3.47,-4.08,0.97,0.82,0.81
226.70,4.63,3.85,4.59,3.80,-3.80,-3.41,-4.12,0.83,0.79,0.78
228.96,4.33,3.57,4.55,3.78,-3.78,-3.35,-4.15,0.55,0.77,0.76
231.25,4.56,3.81,4.52,3.77,-3.77,-3.29,-4.18,0.79,0.75,0.75
233.57,4.63,3.91,4.50,3.77,-3.77,-3.23,-4.21,0.86,0.73,0.72
235.90,4.44,3.73,4.48,3.76,-3.76,-3.17,-4.23,0.68,0.72,0.71
238.26,4.43,3.74,4.45,3.75,-3.75,-3.10,-4.25,0.68,0.71,0.69
240.64,4.41,3.71,4.43,3.74,-3.74,-3.04,-4.26,0.67,0.70,0.70
243.05,4.37,3.68,4.41,3.73,-3.73,-2.98,-4.27,0.64,0.69,0.69
245.48,4.31,3.64,4.38,3.70,-3.70,-2.92,-4.27,0.61,0.68,0.67
247.93,4.34,3.68,4.34,3.66,-3.66,-2.85,-4.26,0.68,0.67,0.66
250.41,4.44,3.77,4.29,3.63,-3.63,-2.79,-4.25,0.81,0.67,0.67
252.92,4.35,3.68,4.28,3.62,-3.62,-2.73,-4.23,0.73,0.66,0.67
255.45,4.25,3.60,4.25,3.60,-3.60,-2.67,-4.20,0.65,0.65,0.65
258.00,4.18,3.54,4.18,3.55,-3.55,-2.61,-4.17,0.63,0.64,0.64
260.58,4.12,3.49,4.13,3.50,-3.50,-2.54,-4.13,0.62,0.63,0.63
263.19,4.10,3.48,4.09,3.48,-3.48,-2.48,-4.09,0.62,0.62,0.62
265.82,4.17,3.57,4.05,3.44,-3.44,-2.42,-4.04,0.73,0.61,0.60
268.48,3.92,3.32,4.01,3.42,-3.42,-2.37,-3.98,0.50,0.59,0.60
271.16,3.81,3.23,3.97,3.39,-3.39,-2.31,-3.92,0.42,0.58,0.58
273.87,3.85,3.28,3.92,3.35,-3.35,-2.25,-3.86,0.50,0.57,0.57
276.61,3.94,3.39,3.87,3.31,-3.31,-2.19,-3.79,0.63,0.56,0.55
279.38,3.92,3.40,3.82,3.27,-3.27,-2.14,-3.71,0.65,0.55,0.52
282.17,3.66,3.14,3.78,3.24,-3.24,-2.08,-3.64,0.42,0.54,0.52
284.99,3.62,3.10,3.73,3.20,-3.20,-2.03,-3.56,0.42,0.53,0.52
287.84,3.78,3.26,3.69,3.17,-3.17,-1.97,-3.48,0.61,0.52,0.52
290.72,3.80,3.30,3.66,3.14,-3.14,-1.92,-3.39,0.66,0.52,0.50
293.63,3.67,3.16,3.61,3.10,-3.10,-1.87,-3.31,0.57,0.51,0.51
296.57,3.62,3.11,3.56,3.05,-3.05,-1.82,-3.22,0.57,0.51,0.51
299.53,3.37,2.87,3.52,3.02,-3.02,-1.77,-3.13,0.35,0.51,0.50
302.53,3.43,2.92,3.47,2.97,-2.97,-1.72,-3.04,0.46,0.50,0.51
305.55,3.47,2.97,3.41,2.91,-2.91,-1.67,-2.95,0.56,0.50,0.50
308.61,3.26,2.75,3.35,2.85,-2.85,-1.62,-2.86,0.41,0.50,0.51
311.69,3.27,2.78,3.29,2.79,-2.79,-1.58,-2.77,0.48,0.50,0.49
314.81,3.30,2.80,3.24,2.74,-2.74,-1.53,-2.69,0.56,0.50,0.50
317.96,3.28,2.80,3.17,2.68,-2.68,-1.48,-2.60,0.60,0.49,0.48
321.14,3.14,2.65,3.10,2.61,-2.61,-1.44,-2.51,0.53,0.49,0.49
324.35,2.93,2.45,3.04,2.55,-2.55,-1.40,-2.42,0.38,0.49,0.48
327.59,2.97,2.48,2.99,2.50,-2.50,-1.35,-2.34,0.47,0.49,0.49
330.87,2.94,2.46,2.94,2.45,-2.45,-1.31,-2.25,0.49,0.48,0.48
334.18,2.87,2.40,2.89,2.41,-2.41,-1.27,-2.17,0.46,0.48,0.47
337.52,2.79,2.31,2.82,2.34,-2.34,-1.23,-2.09,0.45,0.48,0.48
340.90,2.76,2.29,2.76,2.28,-2.28,-1.19,-2.01,0.48,0.48,0.47
344.30,2.70,2.22,2.71,2.23,-2.23,-1.15,-1.93,0.47,0.48,0.48
347.75,2.70,2.21,2.64,2.16,-2.16,-1.11,-1.85,0.54,0.49,0.49
351.23,2.60,2.13,2.58,2.09,-2.09,-1.07,-1.77,0.51,0.49,0.47
354.74,2.48,1.99,2.52,2.03,-2.03,-1.03,-1.69,0.45,0.49,0.49
358.28,2.49,2.00,2.47,1.98,-1.98,-0.99,-1.62,0.51,0.50,0.49
361.87,2.47,1.98,2.42,1.92,-1.92,-0.96,-1.55,0.55,0.50,0.49
365.49,2.42,1.92,2.36,1.85,-1.85,-0.92,-1.48,0.57,0.50,0.50
369.14,2.25,1.74,2.30,1.79,-1.79,-0.88,-1.41,0.46,0.51,0.51
372.83,2.17,1.65,2.25,1.73,-1.73,-0.85,-1.34,0.44,0.51,0.52
376.56,2.20,1.69,2.19,1.67,-1.67,-0.81,-1.27,0.53,0.51,0.51
380.33,2.11,1.60,2.12,1.61,-1.61,-0.78,-1.20,0.50,0.51,0.51
384.13,2.00,1.48,2.06,1.55,-1.55,-0.74,-1.14,0.45,0.51,0.52
387.97,2.01,1.49,2.00,1.49,-1.49,-0.71,-1.07,0.52,0.51,0.52
391.85,1.97,1.46,1.94,1.43,-1.43,-0.68,-1.01,0.54,0.51,0.51
395.77,1.91,1.41,1.87,1.37,-1.37,-0.64,-0.95,0.54,0.50,0.50
399.73,1.84,1.34,1.80,1.30,-1.30,-0.61,-0.89,0.54,0.50,0.50
403.72,1.77,1.26,1.73,1.24,-1.24,-0.58,-0.83,0.53,0.49,0.51
407.76,1.72,1.23,1.66,1.17,-1.17,-0.54,-0.77,0.55,0.49,0.49
411.84,1.59,1.11,1.60,1.11,-1.11,-0.51,-0.71,0.48,0.49,0.48
415.96,1.50,1.02,1.53,1.04,-1.04,-0.48,-0.66,0.46,0.48,0.48
420.12,1.47,1.00,1.46,0.98,-0.98,-0.45,-0.60,0.49,0.49,0.47
424.32,1.41,0.93,1.41,0.91,-0.91,-0.42,-0.55,0.50,0.50,0.48
428.56,1.31,0.81,1.36,0.85,-0.85,-0.38,-0.49,0.46,0.51,0.50
432.85,1.24,0.72,1.31,0.79,-0.79,-0.35,-0.44,0.45,0.53,0.52
437.18,1.25,0.72,1.27,0.72,-0.72,-0.32,-0.39,0.53,0.55,0.53
441.55,1.22,0.66,1.25,0.66,-0.66,-0.29,-0.34,0.56,0.59,0.56
445.96,1.16,0.56,1.23,0.60,-0.60,-0.26,-0.29,0.56,0.62,0.60
450.42,1.19,0.55,1.21,0.55,-0.55,-0.23,-0.24,0.64,0.67,0.64
454.93,1.24,0.55,1.20,0.49,-0.49,-0.20,-0.19,0.75,0.71,0.69
459.48,1.23,0.48,1.20,0.44,-0.44,-0.16,-0.15,0.79,0.76,0.75
464.07,1.24,0.42,1.20,0.39,-0.39,-0.13,-0.10,0.85,0.82,0.82
468.71,1.21,0.34,1.20,0.33,-0.33,-0.10,-0.06,0.88,0.87,0.87
473.40,1.22,0.29,1.21,0.28,-0.28,-0.07,-0.01,0.94,0.92,0.93
478.13,1.18,0.19,1.20,0.23,-0.23,-0.04,0.03,0.95,0.98,0.99
482.91,1.19,0.15,1.19,0.17,-0.17,-0.00,0.07,1.02,1.03,1.04
487.74,1.20,0.13,1.18,0.10,-0.10,0.03,0.12,1.10,1.07,1.07
492.62,1.17,0.06,1.16,0.04,-0.04,0.06,0.16,1.13,1.11,1.11
497.55,1.11,-0.04,1.13,-0.02,0.02,0.10,0.20,1.13,1.15,1.15
502.52,1.10,-0.07,1.09,-0.08,0.08,0.13,0.24,1.18,1.17,1.17
507.55,1.09,-0.11,1.04,-0.15,0.15,0.16,0.27,1.24,1.19,1.20
512.62,1.01,-0.20,0.99,-0.22,0.22,0.20,0.31,1.23,1.20,1.21
517.75,0.96,-0.26,0.93,-0.28,0.28,0.23,0.35,1.24,1.21,1.22
522.93,0.86,-0.36,0.86,-0.34,0.34,0.27,0.39,1.20,1.20,1.22
528.16,0.75,-0.45,0.79,-0.41,0.41,0.31,0.42,1.16,1.19,1.20
533.44,0.72,-0.46,0.70,-0.47,0.47,0.34,0.46,1.19,1.17,1.18
538.77,0.64,-0.51,0.62,-0.54,0.54,0.38,0.49,1.18,1.15,1.15
