frequency,raw,error,smoothed,error_smoothed,equalization,parametric_eq,fixed_band_eq,equalized_raw,equalized_smoothed,target
20.00,1.93,-0.92,2.02,-0.85,0.85,0.59,0.08,2.78,2.87,2.85
20.20,2.03,-0.87,2.08,-0.83,0.83,0.59,0.09,2.86,2.91,2.90
20.40,2.12,-0.83,2.13,-0.81,0.81,0.58,0.09,2.93,2.95,2.95
20.61,2.22,-0.76,2.18,-0.80,0.80,0.58,0.10,3.01,2.98,2.97
20.81,2.31,-0.72,2.23,-0.78,0.78,0.57,0.10,3.09,3.01,3.03
21.02,2.40,-0.67,2.28,-0.76,0.76,0.57,0.11,3.16,3.04,3.07
21.23,2.40,-0.69,2.32,-0.74,0.74,0.56,0.11,3.14,3.07,3.09
21.44,2.41,-0.70,2.37,-0.72,0.72,0.56,0.12,3.13,3.09,3.11
21.66,2.41,-0.72,2.41,-0.70,0.70,0.55,0.13,3.11,3.11,3.13
21.87,2.42,-0.72,2.45,-0.68,0.68,0.55,0.13,3.10,3.13,3.14
22.09,2.44,-0.72,2.48,-0.66,0.66,0.54,0.14,3.10,3.14,3.16
22.31,2.48,-0.69,2.52,-0.64,0.64,0.53,0.15,3.12,3.16,3.17
22.54,2.52,-0.65,2.54,-0.62,0.62,0.53,0.15,3.14,3.16,3.17
22.76,2.56,-0.61,2.56,-0.60,0.60,0.52,0.16,3.16,3.17,3.17
22.99,2.60,-0.56,2.59,-0.58,0.58,0.52,0.17,3.18,3.17,3.16
23.22,2.62,-0.54,2.61,-0.56,0.56,0.51,0.18,3.18,3.17,3.16
23.45,2.65,-0.51,2.64,-0.53,0.53,0.51,0.18,3.18,3.17,3.16
23.69,2.68,-0.49,2.67,-0.50,0.50,0.50,0.19,3.18,3.17,3.17
23.92,2.70,-0.47,2.70,-0.47,0.47,0.50,0.20,3.17,3.17,3.17
24.16,2.73,-0.44,2.73,-0.43,0.43,0.49,0.21,3.16,3.17,3.17
24.40,2.75,-0.43,2.76,-0.41,0.41,0.48,0.22,3.16,3.17,3.18
24.65,2.78,-0.39,2.78,-0.38,0.38,0.48,0.23,3.16,3.17,3.17
24.89,2.81,-0.36,2.80,-0.36,0.36,0.47,0.23,3.17,3.17,3.17
25.14,2.83,-0.34,2.82,-0.35,0.35,0.47,0.24,3.18,3.17,3.17
25.39,2.86,-0.32,2.84,-0.33,0.33,0.46,0.25,3.19,3.17,3.18
25.65,2.89,-0.29,2.86,-0.31,0.31,0.46,0.26,3.19,3.17,3.18
25.91,2.91,-0.26,2.89,-0.28,0.28,0.45,0.27,3.19,3.17,3.17
26.16,2.92,-0.25,2.91,-0.26,0.26,0.44,0.28,3.17,3.17,3.17
26.43,2.92,-0.25,2.94,-0.23,0.23,0.44,0.29,3.15,3.17,3.17
26.69,2.92,-0.25,2.96,-0.21,0.21,0.43,0.30,3.12,3.16,3.17
26.96,2.92,-0.25,2.98,-0.18,0.18,0.43,0.31,3.10,3.16,3.17
27.23,2.96,-0.21,3.00,-0.16,0.16,0.42,0.32,3.12,3.16,3.17
27.50,3.02,-0.15,3.03,-0.13,0.13,0.41,0.33,3.15,3.16,3.17
27.77,3.07,-0.09,3.05,-0.11,0.11,0.41,0.34,3.18,3.16,3.16
28.05,3.11,-0.05,3.06,-0.09,0.09,0.40,0.34,3.20,3.16,3.16
28.33,3.11,-0.04,3.08,-0.08,0.08,0.39,0.35,3.19,3.15,3.15
28.62,3.11,-0.04,3.09,-0.07,0.07,0.39,0.36,3.18,3.15,3.15
28.90,3.11,-0.05,3.09,-0.06,0.06,0.38,0.37,3.17,3.15,3.16
29.19,3.11,-0.04,3.10,-0.05,0.05,0.38,0.38,3.16,3.15,3.15
29.48,3.11,-0.05,3.10,-0.05,0.05,0.37,0.38,3.16,3.15,3.16
29.78,3.11,-0.04,3.10,-0.05,0.05,0.36,0.39,3.16,3.15,3.15
30.08,3.10,-0.06,3.09,-0.06,0.06,0.36,0.39,3.16,3.15,3.16
30.38,3.08,-0.07,3.08,-0.07,0.07,0.35,0.40,3.15,3.15,3.15
30.68,3.05,-0.10,3.06,-0.08,0.08,0.34,0.40,3.13,3.14,3.15
30.99,3.02,-0.13,3.05,-0.09,0.09,0.34,0.41,3.11,3.14,3.15
31.30,3.02,-0.12,3.04,-0.10,0.10,0.33,0.41,3.12,3.14,3.14
31.61,3.02,-0.12,3.03,-0.10,0.10,0.32,0.41,3.12,3.14,3.14
31.93,3.02,-0.12,3.03,-0.11,0.11,0.32,0.41,3.12,3.13,3.14
32.24,3.02,-0.11,3.02,-0.11,0.11,0.31,0.41,3.13,3.13,3.13
32.57,3.02,-0.11,3.02,-0.11,0.11,0.30,0.41,3.13,3.12,3.13
32.89,3.02,-0.11,3.01,-0.11,0.11,0.30,0.41,3.13,3.12,3.13
33.22,3.02,-0.10,3.01,-0.10,0.10,0.29,0.41,3.12,3.12,3.12
33.55,3.02,-0.10,3.01,-0.10,0.10,0.28,0.41,3.12,3.11,3.12
33.89,3.02,-0.09,3.01,-0.09,0.09,0.28,0.41,3.11,3.11,3.11
34.23,3.02,-0.09,3.02,-0.09,0.09,0.27,0.40,3.10,3.10,3.11
34.57,3.02,-0.08,3.02,-0.08,0.08,0.26,0.40,3.10,3.10,3.10
34.92,3.02,-0.08,3.02,-0.08,0.08,0.26,0.40,3.09,3.09,3.10
35.27,3.02,-0.07,3.02,-0.07,0.07,0.25,0.39,3.09,3.09,3.09
35.62,3.02,-0.07,3.02,-0.07,0.07,0.24,0.39,3.09,3.09,3.09
35.97,3.02,-0.07,3.02,-0.07,0.07,0.24,0.38,3.09,3.09,3.09
36.33,3.02,-0.07,3.02,-0.06,0.06,0.23,0.38,3.08,3.08,3.09
36.70,3.02,-0.06,3.02,-0.06,0.06,0.22,0.37,3.08,3.08,3.08
37.06,3.02,-0.06,3.03,-0.06,0.06,0.22,0.37,3.08,3.08,3.08
37.43,3.02,-0.07,3.03,-0.06,0.06,0.21,0.36,3.08,3.08,3.09
37.81,3.02,-0.07,3.02,-0.06,0.06,0.20,0.36,3.08,3.08,3.09
38.19,3.02,-0.06,3.02,-0.06,0.06,0.19,0.35,3.08,3.08,3.08
38.57,3.02,-0.07,3.02,-0.07,0.07,0.19,0.34,3.09,3.08,3.09
38.95,3.02,-0.08,3.01,-0.07,0.07,0.18,0.34,3.09,3.09,3.10
39.34,3.02,-0.07,3.00,-0.08,0.08,0.17,0.33,3.10,3.09,3.09
39.74,3.02,-0.07,2.99,-0.09,0.09,0.17,0.33,3.11,3.09,3.09
40.14,3.01,-0.08,2.98,-0.11,0.11,0.16,0.32,3.11,3.09,3.09
40.54,2.97,-0.12,2.96,-0.12,0.12,0.15,0.32,3.09,3.08,3.09
40.94,2.93,-0.15,2.95,-0.13,0.13,0.14,0.31,3.06,3.08,3.08
41.35,2.92,-0.16,2.93,-0.14,0.14,0.14,0.31,3.06,3.07,3.08
41.76,2.92,-0.15,2.91,-0.15,0.15,0.13,0.30,3.07,3.07,3.07
42.18,2.91,-0.16,2.90,-0.16,0.16,0.12,0.30,3.07,3.06,3.07
42.60,2.88,-0.18,2.88,-0.17,0.17,0.11,0.29,3.05,3.05,3.06
43.03,2.85,-0.20,2.87,-0.17,0.17,0.11,0.29,3.02,3.04,3.05
43.46,2.84,-0.20,2.85,-0.17,0.17,0.10,0.28,3.01,3.02,3.04
43.90,2.82,-0.20,2.84,-0.17,0.17,0.09,0.28,2.99,3.01,3.02
44.33,2.82,-0.18,2.84,-0.16,0.16,0.08,0.28,2.98,3.00,3.00
44.78,2.82,-0.16,2.83,-0.16,0.16,0.08,0.27,2.98,2.99,2.98
45.23,2.82,-0.15,2.83,-0.15,0.15,0.07,0.27,2.97,2.97,2.97
45.68,2.82,-0.14,2.82,-0.14,0.14,0.06,0.27,2.96,2.96,2.96
46.13,2.82,-0.12,2.81,-0.14,0.14,0.05,0.27,2.96,2.95,2.94
46.60,2.82,-0.12,2.80,-0.14,0.14,0.04,0.26,2.95,2.93,2.94
47.06,2.82,-0.10,2.78,-0.13,0.13,0.04,0.26,2.95,2.92,2.92
47.53,2.80,-0.11,2.77,-0.13,0.13,0.03,0.26,2.93,2.90,2.91
48.01,2.79,-0.12,2.76,-0.13,0.13,0.02,0.26,2.92,2.89,2.91
48.49,2.76,-0.13,2.74,-0.13,0.13,0.01,0.26,2.89,2.87,2.89
48.97,2.73,-0.14,2.73,-0.13,0.13,0.00,0.25,2.86,2.86,2.87
49.46,2.70,-0.15,2.72,-0.13,0.13,-0.01,0.25,2.83,2.85,2.85
49.96,2.67,-0.16,2.70,-0.13,0.13,-0.01,0.25,2.80,2.83,2.83
50.46,2.65,-0.17,2.69,-0.13,0.13,-0.02,0.25,2.78,2.82,2.82
50.96,2.63,-0.18,2.67,-0.14,0.14,-0.03,0.25,2.77,2.81,2.81
51.47,2.63,-0.16,2.65,-0.14,0.14,-0.04,0.25,2.77,2.80,2.79
51.99,2.63,-0.15,2.63,-0.15,0.15,-0.05,0.25,2.78,2.78,2.78
52.51,2.63,-0.14,2.61,-0.16,0.16,-0.06,0.24,2.79,2.77,2.77
53.03,2.63,-0.14,2.59,-0.16,0.16,-0.07,0.24,2.79,2.76,2.77
53.56,2.63,-0.12,2.58,-0.16,0.16,-0.08,0.24,2.79,2.74,2.75
54.10,2.62,-0.12,2.57,-0.17,0.17,-0.09,0.24,2.78,2.73,2.74
54.64,2.57,-0.15,2.55,-0.17,0.17,-0.09,0.23,2.74,2.72,2.72
55.18,2.51,-0.21,2.53,-0.18,0.18,-0.10,0.23,2.69,2.71,2.72
55.74,2.46,-0.24,2.51,-0.19,0.19,-0.11,0.23,2.65,2.70,2.70
56.29,2.44,-0.25,2.49,-0.20,0.20,-0.12,0.22,2.64,2.69,2.69
56.86,2.44,-0.24,2.46,-0.21,0.21,-0.13,0.22,2.65,2.67,2.68
57.42,2.44,-0.21,2.43,-0.23,0.23,-0.14,0.21,2.67,2.66,2.65
58.00,2.44,-0.20,2.40,-0.24,0.24,-0.15,0.20,2.68,2.64,2.64
58.58,2.42,-0.21,2.37,-0.25,0.25,-0.16,0.20,2.67,2.62,2.63
59.16,2.38,-0.23,2.33,-0.26,0.26,-0.17,0.19,2.64,2.59,2.61
59.76,2.29,-0.30,2.30,-0.26,0.26,-0.18,0.18,2.55,2.56,2.59
60.35,2.25,-0.30,2.27,-0.26,0.26,-0.19,0.17,2.51,2.53,2.55
60.96,2.25,-0.26,2.24,-0.26,0.26,-0.21,0.16,2.51,2.50,2.51
61.57,2.19,-0.28,2.22,-0.25,0.25,-0.22,0.14,2.44,2.46,2.47
62.18,2.15,-0.28,2.19,-0.24,0.24,-0.23,0.13,2.38,2.43,2.43
62.80,2.15,-0.23,2.16,-0.22,0.22,-0.24,0.12,2.37,2.38,2.38
63.43,2.14,-0.20,2.14,-0.21,0.21,-0.25,0.10,2.34,2.34,2.34
64.07,2.12,-0.17,2.11,-0.19,0.19,-0.26,0.08,2.30,2.30,2.29
64.71,2.07,-0.18,2.09,-0.16,0.16,-0.27,0.06,2.23,2.25,2.25
65.35,2.05,-0.16,2.06,-0.14,0.14,-0.29,0.04,2.19,2.20,2.21
66.01,2.05,-0.11,2.04,-0.12,0.12,-0.30,0.02,2.17,2.16,2.16
66.67,2.05,-0.06,2.02,-0.09,0.09,-0.31,0.00,2.14,2.11,2.11
67.33,2.04,-0.02,2.00,-0.06,0.06,-0.32,-0.02,2.10,2.06,2.06
68.01,2.03,0.01,1.98,-0.03,0.03,-0.34,-0.05,2.06,2.01,2.02
68.69,1.98,0.01,1.97,0.01,-0.01,-0.35,-0.07,1.97,1.96,1.97
69.37,1.96,0.04,1.96,0.05,-0.05,-0.36,-0.10,1.91,1.91,1.92
70.07,1.95,0.08,1.95,0.09,-0.09,-0.38,-0.13,1.86,1.86,1.87
70.77,1.88,0.06,1.94,0.13,-0.13,-0.39,-0.15,1.74,1.81,1.82
71.48,1.86,0.09,1.94,0.18,-0.18,-0.40,-0.18,1.67,1.75,1.77
72.19,1.88,0.18,1.93,0.24,-0.24,-0.42,-0.21,1.64,1.70,1.70
72.91,1.95,0.31,1.93,0.29,-0.29,-0.43,-0.24,1.66,1.64,1.64
73.64,1.96,0.37,1.93,0.35,-0.35,-0.45,-0.28,1.61,1.58,1.59
74.38,1.96,0.43,1.94,0.41,-0.41,-0.46,-0.31,1.55,1.53,1.53
75.12,1.96,0.49,1.94,0.47,-0.47,-0.48,-0.34,1.49,1.47,1.47
75.87,1.96,0.55,1.95,0.53,-0.53,-0.50,-0.38,1.43,1.42,1.41
76.63,1.96,0.60,1.95,0.59,-0.59,-0.51,-0.41,1.37,1.36,1.36
77.40,1.96,0.65,1.95,0.64,-0.64,-0.53,-0.45,1.31,1.31,1.31
78.17,1.97,0.72,1.95,0.70,-0.70,-0.55,-0.49,1.27,1.25,1.25
78.95,1.96,0.75,1.95,0.74,-0.74,-0.56,-0.53,1.21,1.20,1.21
79.74,1.96,0.80,1.94,0.79,-0.79,-0.58,-0.56,1.17,1.15,1.16
80.54,1.96,0.85,1.93,0.82,-0.82,-0.60,-0.60,1.14,1.11,1.11
81.35,1.93,0.87,1.91,0.86,-0.86,-0.62,-0.64,1.07,1.06,1.06
82.16,1.88,0.87,1.90,0.89,-0.89,-0.64,-0.68,0.98,1.01,1.01
82.98,1.86,0.89,1.90,0.94,-0.94,-0.66,-0.73,0.92,0.96,0.97
83.81,1.86,0.94,1.89,0.98,-0.98,-0.68,-0.77,0.88,0.92,0.92
84.65,1.86,0.99,1.89,1.02,-1.02,-0.70,-0.81,0.84,0.87,0.87
85.50,1.86,1.03,1.88,1.06,-1.06,-0.72,-0.86,0.79,0.82,0.83
86.35,1.86,1.08,1.87,1.10,-1.10,-0.74,-0.90,0.76,0.77,0.78
87.22,1.86,1.13,1.86,1.14,-1.14,-0.76,-0.95,0.72,0.72,0.73
88.09,1.86,1.18,1.85,1.18,-1.18,-0.78,-0.99,0.68,0.67,0.68
88.97,1.86,1.24,1.83,1.21,-1.21,-0.80,-1.04,0.64,0.62,0.62
89.86,1.86,1.29,1.82,1.25,-1.25,-0.83,-1.09,0.61,0.57,0.57
90.76,1.87,1.35,1.81,1.29,-1.29,-0.85,-1.14,0.58,0.52,0.52
91.66,1.84,1.37,1.79,1.33,-1.33,-0.87,-1.19,0.51,0.47,0.47
92.58,1.79,1.38,1.77,1.36,-1.36,-0.90,-1.24,0.43,0.42,0.41
93.51,1.72,1.36,1.75,1.39,-1.39,-0.93,-1.29,0.33,0.36,0.36
94.44,1.68,1.36,1.73,1.42,-1.42,-0.95,-1.34,0.26,0.31,0.32
95.39,1.67,1.40,1.71,1.45,-1.45,-0.98,-1.39,0.22,0.26,0.27
96.34,1.67,1.45,1.69,1.48,-1.48,-1.00,-1.45,0.19,0.22,0.22
97.30,1.66,1.49,1.67,1.50,-1.50,-1.03,-1.50,0.16,0.17,0.17
98.28,1.65,1.53,1.65,1.53,-1.53,-1.06,-1.55,0.12,0.12,0.12
99.26,1.64,1.56,1.63,1.56,-1.56,-1.09,-1.61,0.08,0.07,0.08
100.25,1.62,1.59,1.61,1.59,-1.59,-1.12,-1.66,0.03,0.02,0.03
101.25,1.60,1.62,1.60,1.62,-1.62,-1.15,-1.72,-0.02,-0.02,-0.02
102.27,1.59,1.66,1.59,1.66,-1.66,-1.18,-1.77,-0.07,-0.07,-0.07
103.29,1.58,1.70,1.57,1.70,-1.70,-1.21,-1.83,-0.12,-0.12,-0.12
104.32,1.56,1.72,1.56,1.73,-1.73,-1.24,-1.88,-0.17,-0.17,-0.16
105.37,1.54,1.75,1.53,1.75,-1.75,-1.28,-1.93,-0.22,-0.22,-0.21
106.42,1.51,1.77,1.50,1.78,-1.78,-1.31,-1.99,-0.27,-0.27,-0.26
107.48,1.49,1.81,1.47,1.80,-1.80,-1.35,-2.04,-0.31,-0.33,-0.32
108.56,1.46,1.83,1.44,1.82,-1.82,-1.38,-2.09,-0.36,-0.38,-0.37
109.64,1.44,1.86,1.41,1.83,-1.83,-1.42,-2.14,-0.40,-0.43,-0.42
110.74,1.42,1.90,1.37,1.85,-1.85,-1.45,-2.19,-0.44,-0.48,-0.48
111.85,1.37,1.89,1.34,1.87,-1.87,-1.49,-2.24,-0.51,-0.53,-0.52
112.97,1.30,1.88,1.32,1.90,-1.90,-1.53,-2.28,-0.60,-0.58,-0.58
114.10,1.24,1.87,1.29,1.92,-1.92,-1.57,-2.32,-0.69,-0.63,-0.63
115.24,1.20,1.88,1.27,1.95,-1.95,-1.61,-2.36,-0.75,-0.68,-0.68
116.39,1.20,1.93,1.25,1.97,-1.97,-1.65,-2.40,-0.77,-0.72,-0.73
117.55,1.20,1.97,1.23,2.00,-2.00,-1.69,-2.44,-0.80,-0.76,-0.77
118.73,1.21,2.02,1.22,2.02,-2.02,-1.73,-2.47,-0.82,-0.80,-0.81
119.92,1.21,2.05,1.21,2.05,-2.05,-1.77,-2.50,-0.84,-0.84,-0.84
121.12,1.22,2.10,1.20,2.08,-2.08,-1.81,-2.52,-0.86,-0.88,-0.88
122.33,1.23,2.14,1.19,2.10,-2.10,-1.86,-2.54,-0.88,-0.91,-0.91
123.55,1.24,2.18,1.18,2.13,-2.13,-1.90,-2.56,-0.89,-0.95,-0.94
124.79,1.23,2.20,1.18,2.16,-2.16,-1.94,-2.58,-0.93,-0.98,-0.97
126.03,1.15,2.15,1.18,2.19,-2.19,-1.99,-2.59,-1.04,-1.01,-1.00
127.29,1.16,2.18,1.18,2.21,-2.21,-2.03,-2.60,-1.06,-1.04,-1.02
128.57,1.17,2.23,1.17,2.23,-2.23,-2.08,-2.60,-1.06,-1.07,-1.06
129.85,1.17,2.26,1.15,2.25,-2.25,-2.12,-2.60,-1.08,-1.10,-1.09
131.15,1.14,2.26,1.14,2.26,-2.26,-2.17,-2.60,-1.12,-1.12,-1.12
132.46,1.10,2.25,1.12,2.27,-2.27,-2.22,-2.59,-1.17,-1.15,-1.15
133.79,1.09,2.27,1.11,2.29,-2.29,-2.26,-2.58,-1.20,-1.18,-1.18
135.12,1.09,2.30,1.09,2.30,-2.30,-2.31,-2.57,-1.21,-1.21,-1.21
136.48,1.10,2.33,1.08,2.32,-2.32,-2.35,-2.56,-1.22,-1.24,-1.23
137.84,1.10,2.37,1.07,2.33,-2.33,-2.40,-2.54,-1.23,-1.26,-1.27
139.22,1.05,2.35,1.06,2.35,-2.35,-2.44,-2.52,-1.30,-1.29,-1.30
140.61,1.01,2.34,1.05,2.37,-2.37,-2.48,-2.50,-1.36,-1.32,-1.33
142.02,1.01,2.36,1.03,2.38,-2.38,-2.53,-2.48,-1.38,-1.35,-1.35
143.44,1.01,2.39,1.01,2.40,-2.40,-2.57,-2.46,-1.39,-1.39,-1.38
144.87,1.01,2.43,1.00,2.43,-2.43,-2.61,-2.44,-1.42,-1.43,-1.42
146.32,1.01,2.47,0.99,2.46,-2.46,-2.65,-2.41,-1.45,-1.47,-1.46
147.78,1.01,2.50,0.98,2.50,-2.50,-2.69,-2.39,-1.49,-1.52,-1.49
149.26,0.95,2.49,0.96,2.53,-2.53,-2.73,-2.36,-1.58,-1.57,-1.54
150.75,0.91,2.51,0.94,2.57,-2.57,-2.76,-2.34,-1.66,-1.63,-1.60
152.26,0.91,2.58,0.91,2.61,-2.61,-2.80,-2.31,-1.70,-1.69,-1.67
153.78,0.91,2.65,0.88,2.64,-2.64,-2.83,-2.29,-1.74,-1.76,-1.74
155.32,0.86,2.67,0.85,2.68,-2.68,-2.86,-2.26,-1.82,-1.83,-1.81
156.88,0.82,2.71,0.82,2.72,-2.72,-2.89,-2.24,-1.90,-1.90,-1.89
158.44,0.82,2.79,0.78,2.75,-2.75,-2.91,-2.22,-1.93,-1.97,-1.97
160.03,0.82,2.87,0.74,2.78,-2.78,-2.94,-2.19,-1.96,-2.04,-2.05
161.63,0.71,2.83,0.70,2.81,-2.81,-2.96,-2.17,-2.10,-2.10,-2.12
163.24,0.65,2.83,0.67,2.83,-2.83,-2.98,-2.15,-2.19,-2.16,-2.18
164.88,0.62,2.85,0.64,2.86,-2.86,-2.99,-2.14,-2.24,-2.22,-2.23
166.53,0.57,2.85,0.60,2.87,-2.87,-3.00,-2.12,-2.30,-2.27,-2.28
168.19,0.53,2.85,0.57,2.88,-2.88,-3.01,-2.11,-2.35,-2.31,-2.32
169.87,0.50,2.86,0.54,2.89,-2.89,-3.02,-2.09,-2.39,-2.34,-2.36
171.57,0.50,2.88,0.52,2.88,-2.88,-3.03,-2.08,-2.38,-2.37,-2.38
173.29,0.49,2.88,0.49,2.88,-2.88,-3.03,-2.07,-2.39,-2.39,-2.39
175.02,0.48,2.88,0.47,2.87,-2.87,-3.02,-2.06,-2.39,-2.40,-2.40
176.77,0.48,2.89,0.45,2.86,-2.86,-3.02,-2.05,-2.38,-2.41,-2.41
178.54,0.48,2.90,0.44,2.86,-2.86,-3.01,-2.05,-2.38,-2.42,-2.42
180.32,0.45,2.86,0.43,2.86,-2.86,-3.00,-2.04,-2.41,-2.42,-2.41
182.13,0.41,2.81,0.42,2.85,-2.85,-2.99,-2.04,-2.44,-2.43,-2.40
183.95,0.40,2.81,0.41,2.84,-2.84,-2.97,-2.04,-2.44,-2.43,-2.41
185.79,0.42,2.83,0.39,2.83,-2.83,-2.95,-2.04,-2.42,-2.44,-2.41
187.65,0.35,2.78,0.38,2.83,-2.83,-2.93,-2.04,-2.48,-2.45,-2.43
189.52,0.35,2.79,0.37,2.83,-2.83,-2.91,-2.05,-2.48,-2.46,-2.44
191.42,0.36,2.82,0.36,2.83,-2.83,-2.88,-2.05,-2.47,-2.47,-2.46
193.33,0.38,2.86,0.34,2.83,-2.83,-2.85,-2.06,-2.45,-2.49,-2.48
195.27,0.34,2.84,0.32,2.82,-2.82,-2.82,-2.07,-2.48,-2.50,-2.50
197.22,0.30,2.82,0.30,2.82,-2.82,-2.79,-2.08,-2.52,-2.52,-2.52
199.19,0.25,2.79,0.28,2.82,-2.82,-2.76,-2.09,-2.57,-2.54,-2.54
201.18,0.23,2.79,0.26,2.82,-2.82,-2.72,-2.10,-2.60,-2.56,-2.56
203.19,0.24,2.82,0.24,2.82,-2.82,-2.68,-2.11,-2.58,-2.58,-2.58
205.23,0.24,2.84,0.21,2.81,-2.81,-2.64,-2.12,-2.57,-2.60,-2.60
207.28,0.24,2.85,0.18,2.80,-2.80,-2.60,-2.13,-2.56,-2.62,-2.61
209.35,0.19,2.82,0.15,2.79,-2.79,-2.56,-2.15,-2.60,-2.64,-2.63
211.44,0.08,2.74,0.11,2.77,-2.77,-2.52,-2.16,-2.69,-2.66,-2.66
213.56,0.04,2.71,0.08,2.75,-2.75,-2.48,-2.17,-2.71,-2.67,-2.67
215.69,0.03,2.71,0.04,2.73,-2.73,-2.44,-2.19,-2.70,-2.69,-2.68
217.85,0.03,2.72,-0.00,2.70,-2.70,-2.39,-2.20,-2.67,-2.70,-2.69
220.03,-0.04,2.66,-0.04,2.66,-2.66,-2.35,-2.21,-2.71,-2.71,-2.70
222.23,-0.11,2.62,-0.09,2.62,-2.62,-2.30,-2.22,-2.73,-2.71,-2.73
224.45,-0.16,2.56,-0.13,2.58,-2.58,-2.26,-2.23,-2.74,-2.72,-2.72
226.70,-0.17,2.55,-0.18,2.54,-2.54,-2.22,-2.24,-2.71,-2.72,-2.72
228.96,-0.17,2.54,-0.22,2.49,-2.49,-2.17,-2.25,-2.66,-2.71,-2.71
231.25,-0.23,2.47,-0.27,2.44,-2.44,-2.13,-2.26,-2.67,-2.70,-2.70
233.57,-0.32,2.37,-0.30,2.39,-2.39,-2.08,-2.26,-2.71,-2.69,-2.69
235.90,-0.36,2.32,-0.33,2.35,-2.35,-2.04,-2.26,-2.71,-2.68,-2.68
238.26,-0.40,2.27,-0.37,2.29,-2.29,-2.00,-2.26,-2.69,-2.66,-2.67
240.64,-0.45,2.19,-0.41,2.23,-2.23,-1.95,-2.26,-2.68,-2.64,-2.64
243.05,-0.47,2.14,-0.45,2.17,-2.17,-1.91,-2.25,-2.64,-2.62,-2.61
245.48,-0.46,2.13,-0.48,2.12,-2.12,-1.87,-2.24,-2.58,-2.60,-2.59
247.93,-0.43,2.13,-0.51,2.06,-2.06,-1.83,-2.23,-2.49,-2.57,-2.56
250.41,-0.57,1.97,-0.55,2.00,-2.00,-1.79,-2.22,-2.58,-2.55,-2.54
252.92,-0.59,1.92,-0.58,1.95,-1.95,-1.75,-2.20,-2.54,-2.53,-2.51
255.45,-0.57,1.92,-0.61,1.89,-1.89,-1.71,-2.18,-2.46,-2.50,-2.49
258.00,-0.59,1.88,-0.63,1.84,-1.84,-1.67,-2.16,-2.44,-2.48,-2.47
260.58,-0.69,1.76,-0.66,1.79,-1.79,-1.63,-2.14,-2.49,-2.45,-2.45
263.19,-0.74,1.68,-0.69,1.74,-1.74,-1.59,-2.11,-2.48,-2.43,-2.42
265.82,-0.75,1.65,-0.72,1.68,-1.68,-1.56,-2.08,-2.43,-2.40,-2.40
268.48,-0.76,1.62,-0.76,1.62,-1.62,-1.52,-2.04,-2.38,-2.38,-2.38
271.16,-0.76,1.59,-0.79,1.56,-1.56,-1.48,-2.01,-2.32,-2.35,-2.35
273.87,-0.76,1.57,-0.82,1.50,-1.50,-1.45,-1.97,-2.27,-2.33,-2.33
276.61,-0.85,1.45,-0.85,1.45,-1.45,-1.42,-1.93,-2.30,-2.30,-2.30
279.38,-0.86,1.41,-0.88,1.40,-1.40,-1.38,-1.89,-2.26,-2.28,-2.27
282.17,-0.89,1.36,-0.91,1.34,-1.34,-1.35,-1.85,-2.23,-2.25,-2.25
284.99,-0.93,1.28,-0.93,1.29,-1.29,-1.32,-1.80,-2.22,-2.22,-2.21
287.84,-0.99,1.20,-0.95,1.24,-1.24,-1.29,-1.76,-2.23,-2.19,-2.19
290.72,-1.03,1.13,-0.96,1.20,-1.20,-1.26,-1.71,-2.23,-2.16,-2.16
293.63,-1.01,1.12,-0.98,1.15,-1.15,-1.23,-1.66,-2.16,-2.13,-2.13
296.57,-1.00,1.10,-1.00,1.10,-1.10,-1.20,-1.61,-2.10,-2.10,-2.10
299.53,-0.99,1.08,-1.02,1.06,-1.06,-1.17,-1.56,-2.05,-2.07,-2.07
302.53,-1.02,1.03,-1.03,1.01,-1.01,-1.14,-1.51,-2.04,-2.05,-2.05
305.55,-1.05,0.96,-1.05,0.97,-0.97,-1.12,-1.46,-2.02,-2.02,-2.01
308.61,-1.05,0.94,-1.06,0.93,-0.93,-1.09,-1.41,-1.99,-2.00,-1.99
311.69,-1.05,0.91,-1.08,0.90,-0.90,-1.06,-1.37,-1.95,-1.97,-1.96
314.81,-1.05,0.89,-1.09,0.86,-0.86,-1.04,-1.32,-1.91,-1.95,-1.94
317.96,-1.10,0.82,-1.10,0.83,-0.83,-1.02,-1.27,-1.93,-1.93,-1.92
321.14,-1.14,0.77,-1.11,0.80,-0.80,-0.99,-1.22,-1.94,-1.91,-1.91
324.35,-1.14,0.75,-1.13,0.76,-0.76,-0.97,-1.17,-1.90,-1.89,-1.89
327.59,-1.14,0.74,-1.16,0.72,-0.72,-0.95,-1.12,-1.86,-1.88,-1.88
330.87,-1.21,0.66,-1.18,0.68,-0.68,-0.92,-1.07,-1.90,-1.87,-1.87
334.18,-1.24,0.61,-1.21,0.65,-0.65,-0.90,-1.02,-1.89,-1.86,-1.85
337.52,-1.24,0.60,-1.24,0.61,-0.61,-0.88,-0.97,-1.85,-1.85,-1.84
340.90,-1.24,0.59,-1.27,0.57,-0.57,-0.86,-0.93,-1.81,-1.84,-1.83
344.30,-1.24,0.58,-1.30,0.54,-0.54,-0.84,-0.88,-1.78,-1.83,-1.82
347.75,-1.29,0.53,-1.32,0.50,-0.50,-0.82,-0.83,-1.79,-1.83,-1.82
351.23,-1.33,0.48,-1.35,0.47,-0.47,-0.80,-0.79,-1.80,-1.82,-1.81
354.74,-1.40,0.42,-1.37,0.45,-0.45,-0.79,-0.74,-1.85,-1.82,-1.82
358.28,-1.43,0.38,-1.40,0.42,-0.42,-0.77,-0.70,-1.85,-1.81,-1.81
361.87,-1.44,0.37,-1.43,0.39,-0.39,-0.75,-0.66,-1.83,-1.81,-1.81
365.49,-1.50,0.30,-1.45,0.36,-0.36,-0.74,-0.61,-1.86,-1.81,-1.80
369.14,-1.50,0.31,-1.47,0.34,-0.34,-0.72,-0.57,-1.84,-1.81,-1.81
372.83,-1.50,0.31,-1.50,0.31,-0.31,-0.70,-0.53,-1.81,-1.81,-1.81
376.56,-1.49,0.33,-1.53,0.29,-0.29,-0.69,-0.49,-1.78,-1.82,-1.82
380.33,-1.51,0.30,-1.56,0.26,-0.26,-0.67,-0.45,-1.77,-1.82,-1.81
384.13,-1.56,0.25,-1.58,0.24,-0.24,-0.66,-0.41,-1.81,-1.82,-1.81
387.97,-1.58,0.24,-1.60,0.23,-0.23,-0.64,-0.37,-1.81,-1.83,-1.82
391.85,-1.64,0.19,-1.62,0.21,-0.21,-0.63,-0.33,-1.85,-1.83,-1.83
395.77,-1.66,0.16,-1.64,0.19,-0.19,-0.62,-0.29,-1.85,-1.84,-1.82
399.73,-1.66,0.17,-1.67,0.17,-0.17,-0.60,-0.25,-1.83,-1.84,-1.83
403.72,-1.68,0.15,-1.70,0.15,-0.15,-0.59,-0.21,-1.83,-1.85,-1.83
407.76,-1.74,0.11,-1.73,0.12,-0.12,-0.58,-0.18,-1.86,-1.85,-1.85
411.84,-1.77,0.08,-1.77,0.09,-0.09,-0.57,-0.14,-1.86,-1.85,-1.85
415.96,-1.77,0.08,-1.80,0.06,-0.06,-0.56,-0.11,-1.83,-1.86,-1.85
420.12,-1.76,0.09,-1.83,0.03,-0.03,-0.54,-0.07,-1.79,-1.85,-1.85
424.32,-1.82,0.03,-1.84,0.00,-0.00,-0.53,-0.04,-1.83,-1.85,-1.85
428.56,-1.86,-0.02,-1.86,-0.02,0.02,-0.52,-0.01,-1.84,-1.84,-1.84
432.85,-1.91,-0.08,-1.87,-0.05,0.05,-0.51,0.02,-1.87,-1.82,-1.83
437.18,-1.90,-0.08,-1.87,-0.07,0.07,-0.50,0.05,-1.83,-1.80,-1.82
441.55,-1.88,-0.10,-1.86,-0.09,0.09,-0.49,0.08,-1.80,-1.78,-1.78
445.96,-1.91,-0.16,-1.85,-0.10,0.10,-0.48,0.10,-1.81,-1.74,-1.75
450.42,-1.88,-0.16,-1.82,-0.11,0.11,-0.48,0.13,-1.77,-1.71,-1.72
454.93,-1.81,-0.14,-1.79,-0.12,0.12,-0.47,0.15,-1.69,-1.67,-1.67
459.48,-1.75,-0.12,-1.74,-0.12,0.12,-0.46,0.17,-1.63,-1.62,-1.63
464.07,-1.68,-0.10,-1.70,-0.12,0.12,-0.45,0.19,-1.56,-1.58,-1.58
468.71,-1.63,-0.11,-1.65,-0.12,0.12,-0.44,0.21,-1.51,-1.53,-1.52
473.40,-1.65,-0.17,-1.61,-0.13,0.13,-0.43,0.23,-1.52,-1.48,-1.48
478.13,-1.55,-0.13,-1.56,-0.13,0.13,-0.43,0.24,-1.42,-1.43,-1.42
482.91,-1.44,-0.06,-1.52,-0.13,0.13,-0.42,0.26,-1.31,-1.39,-1.38
487.74,-1.42,-0.08,-1.47,-0.13,0.13,-0.41,0.27,-1.29,-1.35,-1.34
492.62,-1.39,-0.10,-1.43,-0.12,0.12,-0.41,0.28,-1.27,-1.31,-1.29
497.55,-1.36,-0.09,-1.40,-0.12,0.12,-0.40,0.28,-1.24,-1.28,-1.27
