frequency,raw,error,smoothed,error_smoothed,equalization,parametric_eq,fixed_band_eq,equalized_raw,equalized_smoothed,target
20.00,9.67,2.39,9.67,2.38,-2.38,-2.40,-1.42,7.29,7.28,7.28
20.20,9.69,2.42,9.69,2.42,-2.42,-2.43,-1.46,7.27,7.27,7.27
20.40,9.71,2.45,9.71,2.46,-2.46,-2.45,-1.50,7.26,7.26,7.26
20.61,9.74,2.49,9.74,2.49,-2.49,-2.48,-1.54,7.25,7.25,7.25
20.81,9.76,2.53,9.76,2.52,-2.52,-2.51,-1.59,7.24,7.24,7.23
21.02,9.78,2.56,9.78,2.56,-2.56,-2.53,-1.64,7.22,7.23,7.22
21.23,9.81,2.60,9.81,2.59,-2.59,-2.56,-1.68,7.22,7.22,7.21
21.44,9.83,2.61,9.83,2.62,-2.62,-2.59,-1.73,7.21,7.21,7.22
21.66,9.85,2.65,9.85,2.66,-2.66,-2.61,-1.78,7.19,7.20,7.20
21.87,9.88,2.68,9.88,2.69,-2.69,-2.64,-1.83,7.19,7.19,7.20
22.09,9.90,2.72,9.90,2.72,-2.72,-2.66,-1.89,7.18,7.18,7.18
22.31,9.92,2.75,9.92,2.75,-2.75,-2.69,-1.94,7.17,7.17,7.17
22.54,9.94,2.78,9.94,2.78,-2.78,-2.72,-2.00,7.16,7.17,7.16
22.76,9.97,2.81,9.96,2.80,-2.80,-2.74,-2.05,7.17,7.16,7.16
22.99,9.99,2.84,9.99,2.83,-2.83,-2.77,-2.11,7.16,7.16,7.15
23.22,10.01,2.87,10.01,2.86,-2.86,-2.80,-2.17,7.15,7.15,7.14
23.45,10.03,2.88,10.03,2.89,-2.89,-2.82,-2.23,7.15,7.15,7.15
23.69,10.05,2.91,10.05,2.91,-2.91,-2.85,-2.30,7.14,7.14,7.14
23.92,10.07,2.94,10.07,2.94,-2.94,-2.88,-2.36,7.13,7.14,7.13
24.16,10.09,2.95,10.10,2.96,-2.96,-2.90,-2.42,7.13,7.13,7.14
24.40,10.12,2.98,10.12,2.99,-2.99,-2.93,-2.49,7.13,7.13,7.14
24.65,10.14,3.01,10.14,3.01,-3.01,-2.96,-2.56,7.13,7.13,7.13
24.89,10.16,3.03,10.16,3.03,-3.03,-2.98,-2.62,7.13,7.13,7.13
25.14,10.18,3.06,10.18,3.06,-3.06,-3.01,-2.69,7.12,7.13,7.12
25.39,10.21,3.09,10.21,3.08,-3.08,-3.04,-2.76,7.13,7.12,7.12
25.65,10.23,3.11,10.23,3.11,-3.11,-3.06,-2.83,7.12,7.12,7.12
25.91,10.25,3.13,10.25,3.13,-3.13,-3.09,-2.90,7.12,7.12,7.12
26.16,10.28,3.15,10.28,3.16,-3.16,-3.12,-2.97,7.12,7.12,7.13
26.43,10.30,3.18,10.30,3.18,-3.18,-3.14,-3.04,7.12,7.12,7.12
26.69,10.32,3.20,10.32,3.20,-3.20,-3.17,-3.11,7.12,7.12,7.12
26.96,10.35,3.23,10.34,3.22,-3.22,-3.20,-3.18,7.13,7.12,7.12
27.23,10.37,3.25,10.37,3.24,-3.24,-3.22,-3.25,7.13,7.12,7.12
27.50,10.39,3.27,10.39,3.26,-3.26,-3.25,-3.31,7.13,7.13,7.12
27.77,10.41,3.28,10.41,3.28,-3.28,-3.28,-3.38,7.13,7.13,7.13
28.05,10.43,3.31,10.43,3.30,-3.30,-3.30,-3.44,7.13,7.13,7.12
28.33,10.45,3.32,10.45,3.32,-3.32,-3.33,-3.50,7.13,7.13,7.13
28.62,10.47,3.34,10.47,3.34,-3.34,-3.36,-3.56,7.13,7.13,7.13
28.90,10.49,3.35,10.49,3.36,-3.36,-3.39,-3.62,7.13,7.13,7.14
29.19,10.51,3.37,10.51,3.38,-3.38,-3.41,-3.67,7.13,7.13,7.14
29.48,10.53,3.40,10.54,3.41,-3.41,-3.44,-3.72,7.12,7.13,7.13
29.78,10.55,3.42,10.56,3.43,-3.43,-3.47,-3.77,7.12,7.13,7.13
30.08,10.58,3.45,10.58,3.45,-3.45,-3.49,-3.81,7.13,7.12,7.13
30.38,10.60,3.49,10.60,3.48,-3.48,-3.52,-3.85,7.12,7.12,7.11
30.68,10.62,3.51,10.62,3.51,-3.51,-3.55,-3.89,7.11,7.12,7.11
30.99,10.65,3.54,10.64,3.53,-3.53,-3.57,-3.92,7.12,7.11,7.11
31.30,10.67,3.56,10.67,3.56,-3.56,-3.60,-3.95,7.11,7.11,7.11
31.61,10.69,3.59,10.69,3.59,-3.59,-3.63,-3.98,7.10,7.10,7.10
31.93,10.71,3.63,10.71,3.62,-3.62,-3.65,-4.00,7.09,7.09,7.08
32.24,10.73,3.64,10.73,3.65,-3.65,-3.68,-4.01,7.08,7.08,7.09
32.57,10.75,3.68,10.75,3.68,-3.68,-3.70,-4.02,7.07,7.08,7.07
32.89,10.77,3.70,10.77,3.70,-3.70,-3.73,-4.03,7.07,7.07,7.07
33.22,10.79,3.73,10.79,3.73,-3.73,-3.76,-4.04,7.06,7.06,7.06
33.55,10.81,3.75,10.81,3.75,-3.75,-3.78,-4.04,7.06,7.06,7.06
33.89,10.83,3.78,10.83,3.78,-3.78,-3.81,-4.04,7.05,7.05,7.05
34.23,10.85,3.82,10.85,3.81,-3.81,-3.84,-4.04,7.04,7.04,7.03
34.57,10.87,3.84,10.86,3.83,-3.83,-3.86,-4.04,7.04,7.03,7.03
34.92,10.89,3.88,10.88,3.86,-3.86,-3.89,-4.03,7.03,7.02,7.01
35.27,10.90,3.87,10.90,3.89,-3.89,-3.92,-4.02,7.01,7.01,7.03
35.62,10.91,3.91,10.92,3.91,-3.91,-3.94,-4.02,7.00,7.00,7.00
35.97,10.93,3.93,10.93,3.94,-3.94,-3.97,-4.01,6.99,6.99,7.00
36.33,10.94,3.96,10.95,3.97,-3.97,-4.00,-4.00,6.97,6.97,6.98
36.70,10.96,4.00,10.96,4.00,-4.00,-4.02,-3.99,6.96,6.96,6.96
37.06,10.97,4.03,10.98,4.04,-4.04,-4.05,-3.98,6.94,6.94,6.94
37.43,10.99,4.07,10.99,4.07,-4.07,-4.07,-3.97,6.92,6.92,6.92
37.81,11.00,4.09,11.00,4.10,-4.10,-4.10,-3.96,6.90,6.90,6.91
38.19,11.02,4.14,11.02,4.13,-4.13,-4.13,-3.95,6.89,6.89,6.88
38.57,11.03,4.17,11.03,4.16,-4.16,-4.15,-3.95,6.87,6.86,6.86
38.95,11.04,4.19,11.04,4.19,-4.19,-4.18,-3.94,6.85,6.84,6.85
39.34,11.05,4.23,11.05,4.23,-4.23,-4.21,-3.94,6.82,6.82,6.82
39.74,11.05,4.26,11.05,4.25,-4.25,-4.23,-3.94,6.80,6.80,6.79
40.14,11.06,4.29,11.06,4.28,-4.28,-4.26,-3.94,6.78,6.78,6.77
40.54,11.06,4.31,11.06,4.31,-4.31,-4.28,-3.95,6.75,6.75,6.75
40.94,11.06,4.34,11.06,4.33,-4.33,-4.31,-3.95,6.73,6.73,6.72
41.35,11.06,4.35,11.06,4.35,-4.35,-4.34,-3.96,6.71,6.71,6.71
41.76,11.05,4.37,11.05,4.37,-4.37,-4.36,-3.97,6.68,6.69,6.68
42.18,11.05,4.38,11.05,4.38,-4.38,-4.39,-3.99,6.67,6.66,6.67
42.60,11.04,4.40,11.04,4.40,-4.40,-4.41,-4.00,6.64,6.64,6.64
43.03,11.03,4.41,11.03,4.41,-4.41,-4.44,-4.02,6.62,6.61,6.62
43.46,11.02,4.44,11.02,4.43,-4.43,-4.47,-4.05,6.59,6.59,6.58
43.90,11.00,4.44,11.00,4.44,-4.44,-4.49,-4.07,6.56,6.56,6.56
44.33,10.99,4.46,10.99,4.45,-4.45,-4.52,-4.10,6.54,6.54,6.53
44.78,10.97,4.46,10.97,4.47,-4.47,-4.54,-4.13,6.50,6.51,6.51
45.23,10.95,4.46,10.96,4.48,-4.48,-4.57,-4.17,6.47,6.48,6.49
45.68,10.94,4.50,10.94,4.50,-4.50,-4.60,-4.21,6.44,6.44,6.44
46.13,10.92,4.51,10.92,4.52,-4.52,-4.62,-4.25,6.40,6.41,6.41
46.60,10.91,4.54,10.91,4.54,-4.54,-4.65,-4.29,6.37,6.37,6.37
47.06,10.89,4.55,10.89,4.56,-4.56,-4.68,-4.34,6.33,6.33,6.34
47.53,10.87,4.57,10.87,4.58,-4.58,-4.70,-4.39,6.29,6.29,6.30
48.01,10.85,4.60,10.86,4.60,-4.60,-4.73,-4.44,6.25,6.25,6.25
48.49,10.84,4.63,10.84,4.63,-4.63,-4.75,-4.50,6.21,6.21,6.21
48.97,10.82,4.66,10.82,4.65,-4.65,-4.78,-4.55,6.17,6.17,6.16
49.46,10.81,4.68,10.80,4.68,-4.68,-4.81,-4.61,6.13,6.13,6.13
49.96,10.79,4.72,10.79,4.70,-4.70,-4.83,-4.68,6.09,6.09,6.07
50.46,10.78,4.74,10.77,4.73,-4.73,-4.86,-4.74,6.05,6.04,6.04
50.96,10.76,4.76,10.76,4.76,-4.76,-4.89,-4.81,6.00,6.00,6.00
51.47,10.75,4.79,10.75,4.79,-4.79,-4.91,-4.87,5.96,5.96,5.96
51.99,10.73,4.82,10.73,4.82,-4.82,-4.94,-4.94,5.91,5.92,5.91
52.51,10.72,4.84,10.73,4.85,-4.85,-4.96,-5.01,5.87,5.88,5.88
53.03,10.71,4.86,10.72,4.88,-4.88,-4.99,-5.08,5.83,5.83,5.85
53.56,10.70,4.90,10.71,4.92,-4.92,-5.02,-5.15,5.78,5.79,5.80
54.10,10.70,4.95,10.71,4.95,-4.95,-5.04,-5.22,5.75,5.76,5.75
54.64,10.70,4.99,10.71,4.99,-4.99,-5.07,-5.29,5.71,5.72,5.71
55.18,10.70,5.03,10.71,5.03,-5.03,-5.10,-5.35,5.67,5.68,5.67
55.74,10.70,5.08,10.70,5.06,-5.06,-5.12,-5.42,5.64,5.64,5.62
56.29,10.70,5.10,10.70,5.10,-5.10,-5.15,-5.49,5.60,5.60,5.60
56.86,10.71,5.15,10.70,5.14,-5.14,-5.18,-5.55,5.57,5.56,5.56
57.42,10.71,5.20,10.70,5.18,-5.18,-5.20,-5.61,5.53,5.52,5.51
58.00,10.71,5.24,10.70,5.22,-5.22,-5.23,-5.66,5.49,5.48,5.47
58.58,10.70,5.26,10.69,5.26,-5.26,-5.26,-5.72,5.44,5.43,5.44
59.16,10.70,5.29,10.68,5.30,-5.30,-5.28,-5.77,5.40,5.39,5.41
59.76,10.68,5.32,10.68,5.34,-5.34,-5.31,-5.81,5.34,5.34,5.36
60.35,10.67,5.36,10.67,5.37,-5.37,-5.34,-5.85,5.30,5.29,5.31
60.96,10.65,5.40,10.65,5.41,-5.41,-5.36,-5.88,5.24,5.24,5.25
61.57,10.63,5.44,10.64,5.45,-5.45,-5.39,-5.91,5.18,5.19,5.19
62.18,10.61,5.48,10.63,5.49,-5.49,-5.42,-5.94,5.12,5.14,5.13
62.80,10.60,5.53,10.61,5.52,-5.52,-5.44,-5.96,5.08,5.09,5.07
63.43,10.58,5.56,10.59,5.56,-5.56,-5.47,-5.97,5.02,5.03,5.02
64.07,10.57,5.60,10.57,5.59,-5.59,-5.50,-5.98,4.98,4.98,4.97
64.71,10.56,5.64,10.55,5.63,-5.63,-5.52,-5.99,4.93,4.92,4.92
65.35,10.54,5.68,10.53,5.66,-5.66,-5.55,-5.99,4.88,4.87,4.86
66.01,10.51,5.70,10.50,5.69,-5.69,-5.58,-5.98,4.82,4.81,4.81
66.67,10.49,5.72,10.48,5.72,-5.72,-5.60,-5.97,4.77,4.76,4.77
67.33,10.46,5.76,10.45,5.75,-5.75,-5.63,-5.96,4.71,4.70,4.70
68.01,10.43,5.78,10.43,5.78,-5.78,-5.66,-5.95,4.65,4.65,4.65
68.69,10.40,5.80,10.40,5.81,-5.81,-5.69,-5.93,4.59,4.59,4.60
69.37,10.37,5.82,10.37,5.84,-5.84,-5.71,-5.91,4.53,4.54,4.55
70.07,10.34,5.85,10.35,5.87,-5.87,-5.74,-5.88,4.47,4.48,4.49
70.77,10.31,5.89,10.32,5.90,-5.90,-5.77,-5.86,4.41,4.42,4.42
71.48,10.28,5.91,10.30,5.93,-5.93,-5.79,-5.83,4.35,4.37,4.37
72.19,10.25,5.94,10.27,5.96,-5.96,-5.82,-5.81,4.29,4.31,4.31
72.91,10.23,5.99,10.25,5.99,-5.99,-5.85,-5.78,4.24,4.25,4.24
73.64,10.22,6.03,10.22,6.03,-6.03,-5.88,-5.75,4.19,4.20,4.19
74.38,10.21,6.08,10.19,6.06,-6.06,-5.90,-5.73,4.15,4.14,4.13
75.12,10.20,6.12,10.17,6.08,-6.08,-5.93,-5.70,4.12,4.09,4.08
75.87,10.17,6.14,10.14,6.11,-6.11,-5.96,-5.68,4.06,4.03,4.03
76.63,10.13,6.16,10.12,6.14,-6.14,-5.98,-5.66,3.99,3.98,3.97
77.40,10.10,6.17,10.09,6.17,-6.17,-6.01,-5.64,3.93,3.93,3.93
78.17,10.06,6.19,10.07,6.19,-6.19,-6.04,-5.63,3.87,3.88,3.87
78.95,10.02,6.19,10.04,6.21,-6.21,-6.07,-5.61,3.81,3.83,3.83
79.74,9.99,6.21,10.01,6.23,-6.23,-6.09,-5.60,3.76,3.78,3.78
80.54,9.96,6.23,9.98,6.25,-6.25,-6.12,-5.60,3.71,3.73,3.73
81.35,9.94,6.27,9.95,6.27,-6.27,-6.15,-5.59,3.67,3.68,3.67
82.16,9.92,6.28,9.91,6.29,-6.29,-6.17,-5.59,3.63,3.63,3.64
82.98,9.89,6.31,9.88,6.30,-6.30,-6.20,-5.59,3.59,3.58,3.58
83.81,9.87,6.34,9.84,6.32,-6.32,-6.23,-5.60,3.55,3.52,3.53
84.65,9.83,6.36,9.81,6.34,-6.34,-6.25,-5.61,3.49,3.47,3.47
85.50,9.79,6.38,9.78,6.36,-6.36,-6.28,-5.63,3.43,3.42,3.41
86.35,9.74,6.38,9.74,6.38,-6.38,-6.31,-5.65,3.36,3.36,3.36
87.22,9.70,6.39,9.71,6.40,-6.40,-6.33,-5.67,3.30,3.31,3.31
88.09,9.66,6.41,9.67,6.42,-6.42,-6.36,-5.70,3.24,3.25,3.25
88.97,9.61,6.42,9.63,6.44,-6.44,-6.39,-5.73,3.17,3.20,3.19
89.86,9.58,6.44,9.60,6.46,-6.46,-6.41,-5.77,3.12,3.14,3.14
90.76,9.56,6.48,9.56,6.48,-6.48,-6.44,-5.81,3.08,3.08,3.08
91.66,9.52,6.51,9.52,6.50,-6.50,-6.46,-5.85,3.02,3.02,3.01
92.58,9.49,6.53,9.48,6.53,-6.53,-6.49,-5.90,2.96,2.96,2.96
93.51,9.46,6.55,9.45,6.55,-6.55,-6.52,-5.96,2.91,2.90,2.91
94.44,9.42,6.57,9.41,6.58,-6.58,-6.54,-6.01,2.84,2.84,2.85
95.39,9.38,6.60,9.38,6.60,-6.60,-6.57,-6.07,2.78,2.78,2.78
96.34,9.34,6.63,9.34,6.63,-6.63,-6.59,-6.14,2.71,2.71,2.71
97.30,9.31,6.66,9.31,6.66,-6.66,-6.62,-6.21,2.65,2.65,2.65
98.28,9.27,6.69,9.27,6.68,-6.68,-6.64,-6.28,2.59,2.59,2.58
99.26,9.24,6.72,9.24,6.71,-6.71,-6.67,-6.35,2.53,2.53,2.52
100.25,9.20,6.74,9.20,6.73,-6.73,-6.69,-6.43,2.47,2.47,2.46
101.25,9.16,6.75,9.16,6.75,-6.75,-6.72,-6.51,2.41,2.41,2.41
102.27,9.11,6.76,9.12,6.77,-6.77,-6.74,-6.60,2.34,2.35,2.35
103.29,9.09,6.80,9.08,6.79,-6.79,-6.76,-6.68,2.30,2.30,2.29
104.32,9.05,6.81,9.04,6.80,-6.80,-6.79,-6.77,2.25,2.24,2.24
105.37,9.01,6.83,9.00,6.81,-6.81,-6.81,-6.86,2.20,2.18,2.18
106.42,8.96,6.83,8.95,6.83,-6.83,-6.83,-6.94,2.13,2.13,2.13
107.48,8.92,6.85,8.91,6.84,-6.84,-6.86,-7.03,2.08,2.07,2.07
108.56,8.87,6.85,8.87,6.86,-6.86,-6.88,-7.12,2.01,2.01,2.02
109.64,8.82,6.86,8.82,6.87,-6.87,-6.90,-7.21,1.95,1.95,1.96
110.74,8.78,6.88,8.78,6.88,-6.88,-6.92,-7.29,1.90,1.90,1.90
111.85,8.72,6.88,8.74,6.90,-6.90,-6.94,-7.37,1.82,1.84,1.84
112.97,8.67,6.88,8.69,6.91,-6.91,-6.96,-7.45,1.76,1.78,1.79
114.10,8.64,6.91,8.65,6.93,-6.93,-6.99,-7.53,1.71,1.72,1.73
115.24,8.60,6.95,8.60,6.94,-6.94,-7.01,-7.60,1.66,1.66,1.65
116.39,8.57,6.98,8.56,6.96,-6.96,-7.02,-7.66,1.61,1.60,1.59
117.55,8.54,7.01,8.52,6.97,-6.97,-7.04,-7.72,1.57,1.55,1.53
118.73,8.49,7.02,8.48,6.99,-6.99,-7.06,-7.77,1.50,1.49,1.47
119.92,8.43,7.00,8.44,7.01,-7.01,-7.08,-7.82,1.43,1.43,1.43
121.12,8.38,7.00,8.40,7.02,-7.02,-7.10,-7.86,1.36,1.38,1.38
122.33,8.35,7.03,8.35,7.04,-7.04,-7.12,-7.88,1.31,1.32,1.32
123.55,8.32,7.05,8.31,7.05,-7.05,-7.13,-7.91,1.27,1.26,1.27
124.79,8.27,7.05,8.27,7.06,-7.06,-7.15,-7.92,1.21,1.21,1.22
126.03,8.23,7.07,8.23,7.08,-7.08,-7.16,-7.92,1.15,1.15,1.16
127.29,8.20,7.09,8.19,7.09,-7.09,-7.18,-7.92,1.11,1.10,1.11
128.57,8.17,7.13,8.15,7.10,-7.10,-7.19,-7.90,1.07,1.05,1.04
129.85,8.11,7.12,8.11,7.12,-7.12,-7.21,-7.88,0.99,0.99,0.99
131.15,8.05,7.12,8.07,7.13,-7.13,-7.22,-7.85,0.92,0.94,0.93
132.46,8.01,7.13,8.03,7.15,-7.15,-7.23,-7.82,0.86,0.88,0.88
133.79,7.98,7.16,7.99,7.17,-7.17,-7.25,-7.78,0.81,0.83,0.82
135.12,7.94,7.17,7.95,7.18,-7.18,-7.26,-7.73,0.76,0.77,0.77
136.48,7.92,7.20,7.91,7.19,-7.19,-7.27,-7.67,0.73,0.72,0.72
137.84,7.88,7.21,7.88,7.21,-7.21,-7.28,-7.61,0.67,0.67,0.67
139.22,7.86,7.25,7.84,7.22,-7.22,-7.29,-7.55,0.64,0.62,0.61
140.61,7.81,7.24,7.80,7.23,-7.23,-7.29,-7.48,0.58,0.57,0.57
142.02,7.75,7.24,7.76,7.24,-7.24,-7.30,-7.41,0.51,0.52,0.51
143.44,7.72,7.25,7.72,7.25,-7.25,-7.31,-7.34,0.47,0.47,0.47
144.87,7.68,7.25,7.69,7.26,-7.26,-7.31,-7.27,0.42,0.43,0.43
146.32,7.64,7.26,7.64,7.26,-7.26,-7.32,-7.20,0.38,0.38,0.38
147.78,7.60,7.26,7.60,7.26,-7.26,-7.32,-7.12,0.34,0.34,0.34
149.26,7.56,7.27,7.55,7.26,-7.26,-7.33,-7.05,0.30,0.30,0.29
150.75,7.52,7.27,7.51,7.26,-7.26,-7.33,-6.98,0.26,0.25,0.25
152.26,7.48,7.27,7.46,7.25,-7.25,-7.33,-6.91,0.23,0.21,0.21
153.78,7.42,7.25,7.41,7.25,-7.25,-7.33,-6.84,0.17,0.17,0.17
155.32,7.37,7.24,7.36,7.24,-7.24,-7.33,-6.78,0.13,0.12,0.13
156.88,7.30,7.22,7.31,7.24,-7.24,-7.33,-6.71,0.07,0.08,0.08
158.44,7.25,7.22,7.26,7.23,-7.23,-7.33,-6.65,0.02,0.04,0.03
160.03,7.19,7.20,7.21,7.22,-7.22,-7.32,-6.60,-0.03,-0.01,-0.01
161.63,7.16,7.21,7.16,7.21,-7.21,-7.32,-6.55,-0.05,-0.05,-0.05
163.24,7.12,7.22,7.10,7.21,-7.21,-7.32,-6.50,-0.09,-0.10,-0.10
164.88,7.06,7.21,7.05,7.20,-7.20,-7.31,-6.45,-0.14,-0.15,-0.15
166.53,7.00,7.20,7.00,7.19,-7.19,-7.30,-6.41,-0.19,-0.19,-0.20
168.19,6.95,7.18,6.94,7.18,-7.18,-7.29,-6.38,-0.23,-0.24,-0.23
169.87,6.87,7.16,6.89,7.18,-7.18,-7.29,-6.35,-0.31,-0.29,-0.29
171.57,6.83,7.17,6.84,7.17,-7.17,-7.27,-6.32,-0.34,-0.34,-0.34
173.29,6.79,7.17,6.78,7.17,-7.17,-7.26,-6.30,-0.38,-0.38,-0.38
175.02,6.74,7.17,6.73,7.16,-7.16,-7.25,-6.28,-0.42,-0.43,-0.43
176.77,6.68,7.16,6.68,7.15,-7.15,-7.24,-6.27,-0.47,-0.48,-0.48
178.54,6.62,7.14,6.62,7.15,-7.15,-7.22,-6.26,-0.53,-0.52,-0.52
180.32,6.57,7.15,6.57,7.14,-7.14,-7.21,-6.26,-0.57,-0.57,-0.58
182.13,6.52,7.13,6.52,7.13,-7.13,-7.19,-6.26,-0.61,-0.61,-0.61
183.95,6.46,7.12,6.47,7.13,-7.13,-7.18,-6.27,-0.67,-0.66,-0.66
185.79,6.42,7.13,6.42,7.12,-7.12,-7.16,-6.28,-0.70,-0.71,-0.71
187.65,6.37,7.12,6.37,7.12,-7.12,-7.14,-6.29,-0.75,-0.75,-0.75
189.52,6.31,7.10,6.32,7.11,-7.11,-7.12,-6.31,-0.80,-0.79,-0.79
191.42,6.26,7.09,6.27,7.10,-7.10,-7.10,-6.34,-0.84,-0.84,-0.83
193.33,6.21,7.08,6.22,7.09,-7.09,-7.07,-6.37,-0.88,-0.88,-0.87
195.27,6.16,7.08,6.17,7.08,-7.08,-7.05,-6.40,-0.92,-0.92,-0.92
197.22,6.13,7.10,6.12,7.07,-7.07,-7.03,-6.43,-0.94,-0.95,-0.97
199.19,6.08,7.08,6.07,7.06,-7.06,-7.00,-6.47,-0.98,-0.99,-1.00
201.18,6.02,7.06,6.02,7.05,-7.05,-6.98,-6.51,-1.03,-1.03,-1.04
203.19,5.97,7.04,5.97,7.03,-7.03,-6.95,-6.56,-1.06,-1.06,-1.07
205.23,5.91,7.00,5.92,7.02,-7.02,-6.92,-6.60,-1.11,-1.10,-1.09
207.28,5.87,6.99,5.87,7.00,-7.00,-6.89,-6.65,-1.13,-1.13,-1.12
209.35,5.83,6.99,5.82,6.98,-6.98,-6.86,-6.70,-1.15,-1.16,-1.16
211.44,5.78,6.97,5.78,6.97,-6.97,-6.83,-6.75,-1.19,-1.19,-1.19
213.56,5.72,6.93,5.72,6.94,-6.94,-6.80,-6.80,-1.22,-1.22,-1.21
215.69,5.66,6.90,5.67,6.91,-6.91,-6.76,-6.86,-1.25,-1.25,-1.24
217.85,5.60,6.87,5.61,6.88,-6.88,-6.73,-6.91,-1.28,-1.27,-1.27
220.03,5.57,6.87,5.56,6.85,-6.85,-6.70,-6.96,-1.28,-1.29,-1.30
222.23,5.53,6.86,5.50,6.82,-6.82,-6.66,-7.00,-1.29,-1.32,-1.33
224.45,5.47,6.81,5.45,6.79,-6.79,-6.62,-7.05,-1.32,-1.34,-1.34
226.70,5.40,6.77,5.39,6.75,-6.75,-6.59,-7.09,-1.35,-1.36,-1.37
228.96,5.32,6.70,5.33,6.72,-6.72,-6.55,-7.13,-1.40,-1.38,-1.38
231.25,5.27,6.67,5.28,6.68,-6.68,-6.51,-7.16,-1.41,-1.40,-1.40
233.57,5.20,6.62,5.22,6.64,-6.64,-6.47,-7.19,-1.44,-1.42,-1.42
235.90,5.14,6.57,5.17,6.60,-6.60,-6.43,-7.21,-1.46,-1.43,-1.43
238.26,5.11,6.57,5.12,6.56,-6.56,-6.39,-7.22,-1.45,-1.45,-1.46
240.64,5.07,6.52,5.07,6.52,-6.52,-6.35,-7.23,-1.45,-1.46,-1.45
243.05,5.02,6.49,5.01,6.48,-6.48,-6.31,-7.23,-1.46,-1.47,-1.47
245.48,4.96,6.44,4.97,6.44,-6.44,-6.26,-7.22,-1.48,-1.47,-1.48
247.93,4.90,6.39,4.92,6.40,-6.40,-6.22,-7.21,-1.50,-1.48,-1.49
250.41,4.87,6.35,4.87,6.36,-6.36,-6.17,-7.18,-1.49,-1.49,-1.48
252.92,4.83,6.32,4.83,6.32,-6.32,-6.13,-7.15,-1.49,-1.49,-1.49
255.45,4.80,6.30,4.79,6.28,-6.28,-6.08,-7.11,-1.48,-1.50,-1.50
258.00,4.76,6.26,4.74,6.24,-6.24,-6.04,-7.06,-1.48,-1.50,-1.50
260.58,4.70,6.20,4.69,6.20,-6.20,-5.99,-7.00,-1.50,-1.50,-1.50
263.19,4.65,6.15,4.65,6.15,-6.15,-5.94,-6.93,-1.50,-1.51,-1.50
265.82,4.59,6.10,4.60,6.11,-6.11,-5.90,-6.86,-1.52,-1.51,-1.51
268.48,4.56,6.07,4.55,6.06,-6.06,-5.85,-6.78,-1.50,-1.51,-1.51
271.16,4.51,6.02,4.50,6.02,-6.02,-5.80,-6.69,-1.51,-1.51,-1.51
273.87,4.45,5.96,4.45,5.97,-5.97,-5.75,-6.60,-1.52,-1.52,-1.51
276.61,4.40,5.91,4.41,5.92,-5.92,-5.70,-6.50,-1.52,-1.52,-1.51
279.38,4.35,5.88,4.35,5.87,-5.87,-5.65,-6.40,-1.52,-1.52,-1.53
282.17,4.30,5.83,4.30,5.82,-5.82,-5.60,-6.30,-1.52,-1.52,-1.53
284.99,4.25,5.77,4.26,5.77,-5.77,-5.55,-6.19,-1.52,-1.52,-1.52
287.84,4.20,5.71,4.21,5.72,-5.72,-5.50,-6.08,-1.52,-1.51,-1.51
290.72,4.16,5.68,4.16,5.67,-5.67,-5.45,-5.97,-1.51,-1.51,-1.52
293.63,4.12,5.63,4.11,5.62,-5.62,-5.40,-5.85,-1.50,-1.51,-1.51
296.57,4.07,5.57,4.06,5.57,-5.57,-5.35,-5.74,-1.50,-1.50,-1.50
299.53,4.01,5.51,4.01,5.51,-5.51,-5.29,-5.63,-1.50,-1.50,-1.50
302.53,3.96,5.44,3.97,5.46,-5.46,-5.24,-5.51,-1.50,-1.49,-1.48
305.55,3.92,5.41,3.92,5.41,-5.41,-5.19,-5.40,-1.49,-1.49,-1.49
308.61,3.88,5.36,3.87,5.35,-5.35,-5.14,-5.29,-1.47,-1.48,-1.48
311.69,3.83,5.30,3.82,5.29,-5.29,-5.08,-5.17,-1.46,-1.47,-1.47
314.81,3.78,5.25,3.77,5.24,-5.24,-5.03,-5.06,-1.46,-1.46,-1.47
317.96,3.72,5.18,3.72,5.18,-5.18,-4.98,-4.96,-1.46,-1.46,-1.46
321.14,3.66,5.11,3.67,5.12,-5.12,-4.92,-4.85,-1.46,-1.45,-1.45
324.35,3.61,5.06,3.62,5.06,-5.06,-4.87,-4.75,-1.45,-1.44,-1.45
327.59,3.57,4.99,3.57,5.00,-5.00,-4.82,-4.65,-1.43,-1.43,-1.42
330.87,3.53,4.96,3.52,4.95,-4.95,-4.76,-4.55,-1.42,-1.43,-1.43
334.18,3.48,4.90,3.47,4.89,-4.89,-4.71,-4.45,-1.41,-1.42,-1.42
337.52,3.41,4.83,3.41,4.82,-4.82,-4.65,-4.36,-1.41,-1.41,-1.42
340.90,3.35,4.75,3.36,4.76,-4.76,-4.60,-4.27,-1.41,-1.40,-1.40
344.30,3.29,4.68,3.30,4.70,-4.70,-4.55,-4.18,-1.41,-1.40,-1.39
347.75,3.25,4.64,3.25,4.64,-4.64,-4.49,-4.10,-1.39,-1.39,-1.39
351.23,3.21,4.60,3.20,4.58,-4.58,-4.44,-4.01,-1.37,-1.38,-1.39
354.74,3.17,4.53,3.15,4.52,-4.52,-4.38,-3.94,-1.35,-1.37,-1.36
358.28,3.10,4.47,3.10,4.46,-4.46,-4.33,-3.86,-1.36,-1.36,-1.37
361.87,3.05,4.41,3.05,4.41,-4.41,-4.28,-3.79,-1.36,-1.36,-1.36
365.49,2.98,4.33,3.00,4.35,-4.35,-4.22,-3.72,-1.37,-1.35,-1.35
369.14,2.93,4.26,2.95,4.29,-4.29,-4.17,-3.65,-1.36,-1.34,-1.33
372.83,2.90,4.23,2.90,4.24,-4.24,-4.11,-3.59,-1.34,-1.33,-1.33
376.56,2.86,4.19,2.86,4.18,-4.18,-4.06,-3.53,-1.32,-1.32,-1.33
380.33,2.82,4.14,2.81,4.13,-4.13,-4.01,-3.47,-1.31,-1.31,-1.32
384.13,2.77,4.07,2.77,4.07,-4.07,-3.95,-3.41,-1.30,-1.30,-1.30
387.97,2.72,4.02,2.72,4.02,-4.02,-3.90,-3.36,-1.30,-1.30,-1.30
391.85,2.68,3.97,2.68,3.96,-3.96,-3.85,-3.31,-1.28,-1.28,-1.29
395.77,2.64,3.92,2.63,3.91,-3.91,-3.79,-3.26,-1.27,-1.28,-1.28
399.73,2.59,3.86,2.59,3.85,-3.85,-3.74,-3.22,-1.26,-1.26,-1.27
403.72,2.55,3.79,2.55,3.80,-3.80,-3.69,-3.17,-1.25,-1.25,-1.24
407.76,2.51,3.76,2.50,3.75,-3.75,-3.64,-3.13,-1.24,-1.25,-1.25
411.84,2.46,3.70,2.46,3.69,-3.69,-3.58,-3.09,-1.23,-1.24,-1.24
415.96,2.41,3.63,2.41,3.64,-3.64,-3.53,-3.05,-1.23,-1.23,-1.22
420.12,2.36,3.58,2.37,3.58,-3.58,-3.48,-3.02,-1.22,-1.22,-1.22
424.32,2.32,3.53,2.32,3.53,-3.53,-3.43,-2.98,-1.21,-1.21,-1.21
428.56,2.27,3.46,2.28,3.47,-3.47,-3.37,-2.95,-1.20,-1.20,-1.19
432.85,2.23,3.41,2.23,3.42,-3.42,-3.32,-2.92,-1.19,-1.19,-1.18
437.18,2.19,3.38,2.18,3.36,-3.36,-3.27,-2.89,-1.17,-1.18,-1.19
441.55,2.14,3.32,2.14,3.31,-3.31,-3.22,-2.86,-1.17,-1.17,-1.18
445.96,2.09,3.26,2.09,3.25,-3.25,-3.17,-2.83,-1.16,-1.16,-1.17
450.42,2.05,3.21,2.05,3.20,-3.20,-3.12,-2.80,-1.15,-1.16,-1.16
454.93,2.01,3.16,2.00,3.15,-3.15,-3.07,-2.77,-1.14,-1.15,-1.15
459.48,1.96,3.10,1.96,3.10,-3.10,-3.02,-2.74,-1.14,-1.14,-1.14
464.07,1.91,3.03,1.92,3.05,-3.05,-2.96,-2.72,-1.14,-1.13,-1.12
468.71,1.86,2.97,1.87,2.99,-2.99,-2.91,-2.69,-1.13,-1.12,-1.11
473.40,1.82,2.93,1.83,2.94,-2.94,-2.86,-2.66,-1.12,-1.11,-1.11
478.13,1.79,2.89,1.79,2.89,-2.89,-2.81,-2.63,-1.10,-1.10,-1.10
482.91,1.75,2.84,1.75,2.84,-2.84,-2.77,-2.61,-1.09,-1.09,-1.09
487.74,1.72,2.80,1.71,2.79,-2.79,-2.72,-2.58,-1.07,-1.08,-1.08
492.62,1.68,2.75,1.67,2.74,-2.74,-2.67,-2.55,-1.06,-1.06,-1.07
497.55,1.64,2.70,1.64,2.69,-2.69,-2.62,-2.52,-1.05,-1.05,-1.06
