frequency,raw,error,smoothed,error_smoothed,equalization,parametric_eq,fixed_band_eq,equalized_raw,equalized_smoothed,target
20.00,-17.97,-18.86,-17.98,-18.88,18.88,18.18,6.26,0.91,0.91,0.89
20.20,-17.78,-18.71,-17.79,-18.73,18.73,18.22,6.41,0.94,0.94,0.93
20.40,-17.60,-18.57,-17.60,-18.57,18.57,18.24,6.56,0.97,0.97,0.97
20.61,-17.41,-18.41,-17.41,-18.41,18.41,18.24,6.71,0.99,1.00,0.99
20.81,-17.22,-18.26,-17.22,-18.25,18.25,18.22,6.87,1.03,1.03,1.04
21.02,-17.04,-18.12,-17.03,-18.09,18.09,18.19,7.03,1.04,1.05,1.08
21.23,-16.85,-17.95,-16.85,-17.92,17.92,18.13,7.19,1.07,1.08,1.10
21.44,-16.66,-17.77,-16.66,-17.76,17.76,18.06,7.36,1.10,1.10,1.12
21.66,-16.47,-17.61,-16.47,-17.59,17.59,17.98,7.54,1.12,1.12,1.13
21.87,-16.28,-17.42,-16.28,-17.42,17.42,17.88,7.72,1.15,1.14,1.15
22.09,-16.10,-17.26,-16.10,-17.25,17.25,17.76,7.90,1.15,1.16,1.17
22.31,-15.91,-17.08,-15.91,-17.08,17.08,17.63,8.09,1.17,1.17,1.18
22.54,-15.73,-16.92,-15.72,-16.91,16.91,17.48,8.28,1.17,1.19,1.19
22.76,-15.54,-16.74,-15.53,-16.73,16.73,17.33,8.48,1.19,1.20,1.20
22.99,-15.35,-16.55,-15.35,-16.55,16.55,17.16,8.69,1.20,1.21,1.20
23.22,-15.16,-16.37,-15.16,-16.37,16.37,16.99,8.90,1.21,1.21,1.21
23.45,-14.97,-16.19,-14.97,-16.20,16.20,16.80,9.12,1.23,1.22,1.22
23.69,-14.77,-16.00,-14.79,-16.02,16.02,16.61,9.34,1.25,1.23,1.23
23.92,-14.58,-15.81,-14.61,-15.85,15.85,16.41,9.57,1.27,1.24,1.24
24.16,-14.40,-15.66,-14.42,-15.67,15.67,16.21,9.80,1.27,1.25,1.26
24.40,-14.23,-15.50,-14.24,-15.49,15.49,16.00,10.04,1.26,1.26,1.28
24.65,-14.05,-15.32,-14.05,-15.32,15.32,15.79,10.29,1.26,1.27,1.27
24.89,-13.87,-15.14,-13.86,-15.14,15.14,15.58,10.54,1.27,1.28,1.28
25.14,-13.68,-14.96,-13.67,-14.96,14.96,15.37,10.80,1.28,1.29,1.29
25.39,-13.49,-14.78,-13.48,-14.78,14.78,15.15,11.07,1.29,1.30,1.30
25.65,-13.30,-14.62,-13.28,-14.59,14.59,14.93,11.34,1.29,1.31,1.32
25.91,-13.10,-14.41,-13.08,-14.40,14.40,14.72,11.62,1.31,1.32,1.32
26.16,-12.89,-14.21,-12.88,-14.21,14.21,14.50,11.90,1.32,1.33,1.33
26.43,-12.69,-14.03,-12.68,-14.02,14.02,14.28,12.19,1.32,1.34,1.34
26.69,-12.47,-13.82,-12.47,-13.82,13.82,14.06,12.48,1.34,1.35,1.35
26.96,-12.26,-13.63,-12.26,-13.61,13.61,13.85,12.78,1.35,1.36,1.36
27.23,-12.04,-13.42,-12.04,-13.41,13.41,13.63,13.08,1.36,1.37,1.38
27.50,-11.83,-13.21,-11.83,-13.20,13.20,13.42,13.38,1.37,1.37,1.38
27.77,-11.62,-12.99,-11.61,-13.00,13.00,13.21,13.67,1.38,1.38,1.38
28.05,-11.40,-12.80,-11.40,-12.80,12.80,13.00,13.96,1.40,1.39,1.40
28.33,-11.19,-12.59,-11.19,-12.59,12.59,12.79,14.25,1.40,1.40,1.40
28.62,-10.97,-12.38,-10.99,-12.40,12.40,12.58,14.52,1.42,1.41,1.41
28.90,-10.76,-12.18,-10.79,-12.20,12.20,12.38,14.78,1.44,1.42,1.42
29.19,-10.56,-11.98,-10.59,-12.01,12.01,12.18,15.03,1.45,1.42,1.42
29.48,-10.37,-11.82,-10.39,-11.82,11.82,11.97,15.24,1.45,1.43,1.45
29.78,-10.19,-11.63,-10.20,-11.64,11.64,11.78,15.43,1.45,1.44,1.44
30.08,-10.01,-11.46,-10.01,-11.46,11.46,11.58,15.58,1.44,1.44,1.45
30.38,-9.83,-11.28,-9.83,-11.28,11.28,11.38,15.70,1.44,1.45,1.45
30.68,-9.66,-11.13,-9.65,-11.10,11.10,11.19,15.77,1.44,1.46,1.47
30.99,-9.47,-10.94,-9.46,-10.93,10.93,11.00,15.80,1.45,1.46,1.47
31.30,-9.29,-10.76,-9.28,-10.76,10.76,10.81,15.78,1.46,1.47,1.47
31.61,-9.12,-10.60,-9.11,-10.58,10.58,10.63,15.71,1.46,1.48,1.48
31.93,-8.94,-10.43,-8.93,-10.42,10.42,10.44,15.59,1.47,1.49,1.49
32.24,-8.76,-10.24,-8.75,-10.25,10.25,10.26,15.44,1.49,1.49,1.49
32.57,-8.58,-10.09,-8.58,-10.08,10.08,10.08,15.24,1.50,1.50,1.51
32.89,-8.40,-9.91,-8.40,-9.91,9.91,9.90,15.01,1.51,1.51,1.51
33.22,-8.22,-9.74,-8.23,-9.75,9.75,9.73,14.75,1.53,1.52,1.52
33.55,-8.04,-9.56,-8.06,-9.58,9.58,9.55,14.47,1.54,1.52,1.53
33.89,-7.88,-9.42,-7.89,-9.42,9.42,9.38,14.16,1.54,1.53,1.54
34.23,-7.71,-9.25,-7.72,-9.26,9.26,9.21,13.84,1.55,1.54,1.54
34.57,-7.56,-9.11,-7.56,-9.10,9.10,9.04,13.51,1.54,1.54,1.55
34.92,-7.40,-8.95,-7.40,-8.94,8.94,8.87,13.18,1.54,1.55,1.55
35.27,-7.24,-8.80,-7.24,-8.79,8.79,8.71,12.84,1.55,1.55,1.56
35.62,-7.07,-8.63,-7.08,-8.63,8.63,8.55,12.49,1.56,1.56,1.56
35.97,-6.92,-8.47,-6.92,-8.48,8.48,8.38,12.15,1.56,1.56,1.56
36.33,-6.77,-8.33,-6.77,-8.33,8.33,8.22,11.81,1.56,1.56,1.57
36.70,-6.62,-8.18,-6.61,-8.17,8.17,8.07,11.47,1.55,1.56,1.56
37.06,-6.47,-8.03,-6.46,-8.02,8.02,7.91,11.13,1.55,1.56,1.57
37.43,-6.32,-7.88,-6.31,-7.87,7.87,7.75,10.80,1.55,1.56,1.57
37.81,-6.16,-7.73,-6.16,-7.72,7.72,7.60,10.47,1.56,1.56,1.57
38.19,-6.00,-7.57,-6.01,-7.57,7.57,7.45,10.15,1.57,1.56,1.57
38.57,-5.85,-7.41,-5.86,-7.42,7.42,7.29,9.83,1.57,1.56,1.56
38.95,-5.71,-7.26,-5.72,-7.27,7.27,7.14,9.52,1.56,1.55,1.56
39.34,-5.57,-7.12,-5.57,-7.12,7.12,7.00,9.21,1.55,1.55,1.55
39.74,-5.43,-6.98,-5.43,-6.98,6.98,6.85,8.91,1.55,1.55,1.55
40.14,-5.29,-6.84,-5.29,-6.83,6.83,6.70,8.62,1.54,1.55,1.55
40.54,-5.15,-6.70,-5.15,-6.69,6.69,6.56,8.32,1.54,1.54,1.55
40.94,-5.02,-6.56,-5.01,-6.55,6.55,6.41,8.04,1.53,1.54,1.54
41.35,-4.88,-6.42,-4.88,-6.42,6.42,6.27,7.76,1.54,1.54,1.54
41.76,-4.74,-6.28,-4.75,-6.29,6.29,6.13,7.48,1.55,1.54,1.54
42.18,-4.61,-6.15,-4.62,-6.16,6.16,5.99,7.21,1.55,1.53,1.54
42.60,-4.49,-6.03,-4.50,-6.03,6.03,5.85,6.94,1.54,1.53,1.54
43.03,-4.38,-5.92,-4.38,-5.91,5.91,5.71,6.67,1.52,1.53,1.54
43.46,-4.25,-5.79,-4.26,-5.78,5.78,5.57,6.41,1.53,1.52,1.54
43.90,-4.13,-5.65,-4.14,-5.67,5.67,5.43,6.16,1.53,1.52,1.52
44.33,-4.03,-5.55,-4.03,-5.55,5.55,5.30,5.91,1.52,1.52,1.52
44.78,-3.92,-5.43,-3.92,-5.44,5.44,5.16,5.66,1.51,1.52,1.51
45.23,-3.81,-5.32,-3.81,-5.32,5.32,5.03,5.41,1.51,1.51,1.51
45.68,-3.70,-5.21,-3.71,-5.21,5.21,4.89,5.17,1.51,1.51,1.51
46.13,-3.60,-5.10,-3.60,-5.10,5.10,4.76,4.93,1.50,1.50,1.50
46.60,-3.49,-5.00,-3.50,-4.99,4.99,4.62,4.69,1.50,1.50,1.51
47.06,-3.37,-4.87,-3.39,-4.88,4.88,4.49,4.46,1.51,1.49,1.50
47.53,-3.27,-4.76,-3.28,-4.76,4.76,4.36,4.23,1.49,1.48,1.49
48.01,-3.17,-4.67,-3.17,-4.64,4.64,4.22,4.00,1.47,1.48,1.50
48.49,-3.07,-4.55,-3.05,-4.52,4.52,4.09,3.77,1.45,1.47,1.48
48.97,-2.95,-4.41,-2.94,-4.39,4.39,3.96,3.55,1.44,1.46,1.46
49.46,-2.83,-4.28,-2.81,-4.26,4.26,3.82,3.33,1.43,1.45,1.45
49.96,-2.71,-4.14,-2.69,-4.12,4.12,3.69,3.11,1.41,1.43,1.43
50.46,-2.57,-4.00,-2.56,-3.98,3.98,3.56,2.90,1.41,1.42,1.43
50.96,-2.43,-3.84,-2.43,-3.84,3.84,3.42,2.69,1.40,1.40,1.41
51.47,-2.29,-3.67,-2.30,-3.68,3.68,3.29,2.48,1.39,1.39,1.38
51.99,-2.15,-3.52,-2.16,-3.53,3.53,3.16,2.27,1.38,1.37,1.37
52.51,-2.00,-3.36,-2.01,-3.37,3.37,3.02,2.07,1.37,1.35,1.36
53.03,-1.86,-3.20,-1.87,-3.20,3.20,2.89,1.87,1.34,1.33,1.34
53.56,-1.72,-3.05,-1.72,-3.03,3.03,2.75,1.68,1.31,1.32,1.33
54.10,-1.56,-2.86,-1.56,-2.86,2.86,2.61,1.49,1.30,1.30,1.30
54.64,-1.41,-2.70,-1.41,-2.69,2.69,2.48,1.31,1.28,1.28,1.29
55.18,-1.26,-2.52,-1.25,-2.51,2.51,2.34,1.12,1.25,1.26,1.25
55.74,-1.10,-2.33,-1.09,-2.33,2.33,2.20,0.95,1.23,1.24,1.23
56.29,-0.94,-2.17,-0.93,-2.15,2.15,2.06,0.78,1.21,1.22,1.23
56.86,-0.78,-1.98,-0.77,-1.97,1.97,1.91,0.61,1.19,1.20,1.20
57.42,-0.62,-1.79,-0.61,-1.79,1.79,1.77,0.46,1.17,1.18,1.17
58.00,-0.44,-1.59,-0.45,-1.60,1.60,1.63,0.31,1.15,1.15,1.15
58.58,-0.28,-1.41,-0.28,-1.41,1.41,1.48,0.16,1.13,1.13,1.13
59.16,-0.12,-1.23,-0.12,-1.22,1.22,1.33,0.02,1.10,1.10,1.11
59.76,0.04,-1.05,0.04,-1.03,1.03,1.18,-0.11,1.07,1.07,1.09
60.35,0.20,-0.86,0.20,-0.85,0.85,1.03,-0.23,1.04,1.04,1.06
60.96,0.36,-0.67,0.35,-0.66,0.66,0.87,-0.35,1.02,1.01,1.03
61.57,0.50,-0.48,0.49,-0.48,0.48,0.72,-0.45,0.98,0.98,0.98
62.18,0.64,-0.30,0.64,-0.31,0.31,0.56,-0.55,0.95,0.94,0.94
62.80,0.78,-0.14,0.77,-0.14,0.14,0.41,-0.64,0.92,0.91,0.91
63.43,0.93,0.06,0.90,0.03,-0.03,0.25,-0.73,0.90,0.87,0.87
64.07,1.04,0.21,1.02,0.19,-0.19,0.09,-0.80,0.85,0.84,0.83
64.71,1.14,0.34,1.14,0.34,-0.34,-0.07,-0.87,0.80,0.80,0.80
65.35,1.24,0.48,1.25,0.49,-0.49,-0.23,-0.93,0.75,0.76,0.75
66.01,1.34,0.62,1.35,0.63,-0.63,-0.39,-0.98,0.71,0.72,0.72
66.67,1.43,0.74,1.44,0.76,-0.76,-0.55,-1.03,0.67,0.68,0.69
67.33,1.53,0.88,1.53,0.89,-0.89,-0.70,-1.07,0.64,0.64,0.64
68.01,1.61,1.00,1.61,1.01,-1.01,-0.85,-1.11,0.60,0.60,0.61
68.69,1.68,1.11,1.68,1.12,-1.12,-1.00,-1.14,0.56,0.56,0.57
69.37,1.75,1.22,1.75,1.22,-1.22,-1.15,-1.16,0.53,0.52,0.52
70.07,1.82,1.33,1.81,1.32,-1.32,-1.28,-1.18,0.50,0.49,0.49
70.77,1.87,1.42,1.86,1.41,-1.41,-1.42,-1.20,0.45,0.45,0.45
71.48,1.92,1.50,1.91,1.50,-1.50,-1.54,-1.21,0.42,0.41,0.42
72.19,1.96,1.59,1.95,1.58,-1.58,-1.65,-1.22,0.38,0.37,0.37
72.91,1.99,1.65,1.99,1.65,-1.65,-1.76,-1.22,0.34,0.33,0.33
73.64,2.02,1.72,2.02,1.72,-1.72,-1.85,-1.23,0.30,0.30,0.30
74.38,2.05,1.78,2.04,1.78,-1.78,-1.93,-1.23,0.27,0.26,0.27
75.12,2.06,1.83,2.06,1.83,-1.83,-2.00,-1.23,0.23,0.23,0.23
75.87,2.07,1.87,2.07,1.87,-1.87,-2.06,-1.23,0.19,0.20,0.20
76.63,2.08,1.91,2.08,1.92,-1.92,-2.11,-1.23,0.16,0.17,0.17
77.40,2.09,1.95,2.09,1.95,-1.95,-2.15,-1.23,0.14,0.14,0.14
78.17,2.09,1.98,2.09,1.99,-1.99,-2.17,-1.23,0.10,0.11,0.11
78.95,2.08,2.00,2.09,2.01,-2.01,-2.19,-1.23,0.06,0.08,0.08
79.74,2.08,2.02,2.09,2.04,-2.04,-2.19,-1.22,0.04,0.05,0.06
80.54,2.08,2.04,2.09,2.06,-2.06,-2.19,-1.22,0.02,0.03,0.04
81.35,2.09,2.08,2.09,2.08,-2.08,-2.18,-1.22,0.01,0.00,0.01
82.16,2.08,2.10,2.08,2.10,-2.10,-2.17,-1.23,-0.02,-0.02,-0.02
82.98,2.08,2.11,2.07,2.11,-2.11,-2.15,-1.23,-0.03,-0.04,-0.03
83.81,2.06,2.12,2.06,2.12,-2.12,-2.13,-1.23,-0.06,-0.06,-0.06
84.65,2.04,2.13,2.04,2.13,-2.13,-2.10,-1.24,-0.09,-0.09,-0.09
85.50,2.02,2.12,2.02,2.13,-2.13,-2.07,-1.24,-0.11,-0.11,-0.10
86.35,2.00,2.12,2.00,2.13,-2.13,-2.04,-1.25,-0.13,-0.13,-0.12
87.22,1.99,2.13,1.98,2.12,-2.12,-2.01,-1.26,-0.13,-0.14,-0.14
88.09,1.96,2.12,1.95,2.11,-2.11,-1.98,-1.27,-0.15,-0.16,-0.16
88.97,1.93,2.11,1.92,2.10,-2.10,-1.95,-1.28,-0.17,-0.18,-0.18
89.86,1.89,2.08,1.88,2.08,-2.08,-1.92,-1.29,-0.19,-0.20,-0.19
90.76,1.84,2.06,1.84,2.06,-2.06,-1.89,-1.31,-0.22,-0.22,-0.22
91.66,1.80,2.04,1.80,2.04,-2.04,-1.87,-1.32,-0.24,-0.24,-0.24
92.58,1.76,2.02,1.76,2.02,-2.02,-1.84,-1.34,-0.26,-0.26,-0.26
93.51,1.71,1.98,1.72,2.00,-2.00,-1.82,-1.36,-0.29,-0.28,-0.27
94.44,1.67,1.96,1.67,1.97,-1.97,-1.80,-1.38,-0.31,-0.30,-0.29
95.39,1.62,1.93,1.62,1.95,-1.95,-1.78,-1.41,-0.33,-0.32,-0.31
96.34,1.56,1.90,1.57,1.92,-1.92,-1.76,-1.43,-0.36,-0.35,-0.34
97.30,1.52,1.89,1.52,1.90,-1.90,-1.75,-1.46,-0.38,-0.37,-0.37
98.28,1.48,1.88,1.47,1.87,-1.87,-1.73,-1.48,-0.39,-0.40,-0.40
99.26,1.44,1.86,1.42,1.85,-1.85,-1.72,-1.51,-0.41,-0.42,-0.42
100.25,1.39,1.84,1.37,1.83,-1.83,-1.72,-1.54,-0.44,-0.45,-0.45
101.25,1.34,1.82,1.32,1.81,-1.81,-1.71,-1.57,-0.47,-0.48,-0.48
102.27,1.27,1.79,1.27,1.79,-1.79,-1.70,-1.60,-0.52,-0.52,-0.52
103.29,1.21,1.76,1.22,1.77,-1.77,-1.70,-1.63,-0.56,-0.55,-0.55
104.32,1.15,1.73,1.16,1.76,-1.76,-1.70,-1.66,-0.61,-0.59,-0.58
105.37,1.10,1.72,1.11,1.74,-1.74,-1.70,-1.70,-0.64,-0.63,-0.62
106.42,1.06,1.73,1.06,1.73,-1.73,-1.70,-1.73,-0.67,-0.67,-0.67
107.48,1.02,1.72,1.01,1.73,-1.73,-1.70,-1.76,-0.71,-0.72,-0.71
108.56,0.97,1.73,0.96,1.72,-1.72,-1.71,-1.80,-0.75,-0.77,-0.76
109.64,0.91,1.72,0.91,1.72,-1.72,-1.71,-1.83,-0.81,-0.82,-0.81
110.74,0.85,1.71,0.86,1.73,-1.73,-1.72,-1.86,-0.88,-0.87,-0.86
111.85,0.79,1.70,0.81,1.73,-1.73,-1.73,-1.90,-0.94,-0.93,-0.91
112.97,0.75,1.73,0.76,1.74,-1.74,-1.74,-1.93,-0.99,-0.98,-0.98
114.10,0.71,1.74,0.71,1.75,-1.75,-1.75,-1.96,-1.04,-1.04,-1.03
115.24,0.68,1.77,0.66,1.76,-1.76,-1.76,-1.99,-1.08,-1.10,-1.09
116.39,0.63,1.79,0.62,1.77,-1.77,-1.77,-2.02,-1.14,-1.16,-1.16
117.55,0.58,1.80,0.57,1.78,-1.78,-1.78,-2.04,-1.21,-1.21,-1.22
118.73,0.53,1.81,0.52,1.80,-1.80,-1.80,-2.07,-1.27,-1.27,-1.28
119.92,0.48,1.81,0.48,1.81,-1.81,-1.81,-2.09,-1.33,-1.33,-1.33
121.12,0.43,1.82,0.44,1.83,-1.83,-1.83,-2.11,-1.40,-1.39,-1.39
122.33,0.39,1.83,0.40,1.84,-1.84,-1.84,-2.13,-1.45,-1.44,-1.44
123.55,0.35,1.84,0.36,1.86,-1.86,-1.86,-2.15,-1.51,-1.50,-1.49
124.79,0.31,1.85,0.32,1.87,-1.87,-1.88,-2.17,-1.56,-1.55,-1.54
126.03,0.27,1.86,0.28,1.88,-1.88,-1.89,-2.18,-1.61,-1.60,-1.59
127.29,0.24,1.88,0.24,1.89,-1.89,-1.91,-2.19,-1.65,-1.65,-1.64
128.57,0.21,1.91,0.20,1.89,-1.89,-1.93,-2.20,-1.69,-1.70,-1.70
129.85,0.18,1.92,0.16,1.90,-1.90,-1.95,-2.21,-1.73,-1.74,-1.74
131.15,0.14,1.93,0.13,1.92,-1.92,-1.96,-2.22,-1.78,-1.79,-1.79
132.46,0.11,1.94,0.10,1.93,-1.93,-1.98,-2.22,-1.82,-1.83,-1.83
133.79,0.06,1.93,0.06,1.94,-1.94,-2.00,-2.22,-1.88,-1.88,-1.87
135.12,0.02,1.93,0.03,1.95,-1.95,-2.02,-2.23,-1.93,-1.92,-1.91
136.48,-0.01,1.94,0.01,1.96,-1.96,-2.04,-2.23,-1.97,-1.96,-1.95
137.84,-0.04,1.95,-0.02,1.97,-1.97,-2.06,-2.22,-2.01,-2.00,-1.99
139.22,-0.06,1.98,-0.05,1.98,-1.98,-2.08,-2.22,-2.04,-2.03,-2.04
140.61,-0.08,2.00,-0.08,1.99,-1.99,-2.10,-2.22,-2.07,-2.07,-2.08
142.02,-0.10,2.00,-0.11,2.00,-2.00,-2.12,-2.22,-2.10,-2.11,-2.10
143.44,-0.12,2.02,-0.14,2.01,-2.01,-2.14,-2.21,-2.13,-2.15,-2.14
144.87,-0.15,2.03,-0.16,2.02,-2.02,-2.16,-2.21,-2.17,-2.18,-2.18
146.32,-0.18,2.04,-0.19,2.03,-2.03,-2.19,-2.20,-2.22,-2.22,-2.22
147.78,-0.21,2.04,-0.21,2.05,-2.05,-2.21,-2.20,-2.26,-2.26,-2.25
149.26,-0.24,2.04,-0.24,2.06,-2.06,-2.23,-2.20,-2.30,-2.30,-2.28
150.75,-0.27,2.07,-0.27,2.08,-2.08,-2.25,-2.19,-2.35,-2.34,-2.34
152.26,-0.30,2.08,-0.29,2.09,-2.09,-2.27,-2.19,-2.39,-2.38,-2.38
153.78,-0.32,2.09,-0.32,2.10,-2.10,-2.29,-2.19,-2.42,-2.42,-2.41
155.32,-0.34,2.13,-0.35,2.11,-2.11,-2.31,-2.19,-2.45,-2.47,-2.47
156.88,-0.37,2.13,-0.38,2.13,-2.13,-2.33,-2.19,-2.50,-2.51,-2.50
158.44,-0.40,2.15,-0.41,2.14,-2.14,-2.36,-2.19,-2.54,-2.55,-2.55
160.03,-0.43,2.17,-0.44,2.16,-2.16,-2.38,-2.20,-2.59,-2.60,-2.60
161.63,-0.46,2.19,-0.46,2.19,-2.19,-2.40,-2.20,-2.65,-2.64,-2.65
163.24,-0.48,2.21,-0.48,2.22,-2.22,-2.42,-2.21,-2.70,-2.69,-2.69
164.88,-0.51,2.22,-0.49,2.25,-2.25,-2.44,-2.21,-2.76,-2.74,-2.73
166.53,-0.53,2.25,-0.50,2.29,-2.29,-2.46,-2.22,-2.82,-2.79,-2.78
168.19,-0.54,2.29,-0.51,2.32,-2.32,-2.48,-2.24,-2.86,-2.83,-2.83
169.87,-0.55,2.33,-0.52,2.36,-2.36,-2.51,-2.25,-2.92,-2.88,-2.88
171.57,-0.54,2.38,-0.53,2.41,-2.41,-2.53,-2.26,-2.95,-2.94,-2.92
173.29,-0.53,2.45,-0.53,2.45,-2.45,-2.55,-2.28,-2.98,-2.99,-2.98
175.02,-0.52,2.51,-0.54,2.50,-2.50,-2.57,-2.30,-3.02,-3.04,-3.03
176.77,-0.52,2.57,-0.55,2.54,-2.54,-2.59,-2.32,-3.07,-3.09,-3.09
178.54,-0.53,2.61,-0.56,2.59,-2.59,-2.61,-2.34,-3.12,-3.15,-3.14
180.32,-0.54,2.66,-0.57,2.63,-2.63,-2.63,-2.36,-3.17,-3.20,-3.20
182.13,-0.56,2.69,-0.59,2.67,-2.67,-2.66,-2.39,-3.23,-3.26,-3.25
183.95,-0.59,2.72,-0.60,2.71,-2.71,-2.68,-2.42,-3.30,-3.31,-3.31
185.79,-0.62,2.74,-0.63,2.75,-2.75,-2.70,-2.45,-3.37,-3.37,-3.36
187.65,-0.65,2.78,-0.65,2.78,-2.78,-2.72,-2.48,-3.43,-3.43,-3.43
189.52,-0.68,2.80,-0.68,2.80,-2.80,-2.74,-2.51,-3.48,-3.48,-3.48
191.42,-0.71,2.82,-0.71,2.82,-2.82,-2.76,-2.54,-3.54,-3.53,-3.53
193.33,-0.74,2.84,-0.74,2.85,-2.85,-2.78,-2.58,-3.59,-3.59,-3.58
195.27,-0.77,2.86,-0.77,2.87,-2.87,-2.80,-2.62,-3.64,-3.64,-3.63
197.22,-0.80,2.89,-0.79,2.90,-2.90,-2.82,-2.66,-3.70,-3.69,-3.69
199.19,-0.82,2.92,-0.81,2.93,-2.93,-2.84,-2.70,-3.75,-3.74,-3.74
201.18,-0.84,2.95,-0.83,2.96,-2.96,-2.87,-2.74,-3.80,-3.79,-3.79
203.19,-0.86,2.96,-0.85,2.99,-2.99,-2.89,-2.78,-3.85,-3.83,-3.82
205.23,-0.87,3.01,-0.86,3.02,-3.02,-2.91,-2.83,-3.89,-3.88,-3.88
207.28,-0.88,3.02,-0.86,3.06,-3.06,-2.93,-2.87,-3.94,-3.92,-3.90
209.35,-0.88,3.08,-0.87,3.10,-3.10,-2.95,-2.91,-3.98,-3.97,-3.96
211.44,-0.87,3.14,-0.87,3.13,-3.13,-2.97,-2.96,-4.01,-4.01,-4.01
213.56,-0.86,3.19,-0.87,3.17,-3.17,-2.99,-3.01,-4.03,-4.05,-4.05
215.69,-0.86,3.21,-0.87,3.21,-3.21,-3.01,-3.05,-4.07,-4.08,-4.07
217.85,-0.86,3.25,-0.87,3.25,-3.25,-3.03,-3.10,-4.11,-4.12,-4.11
220.03,-0.86,3.29,-0.87,3.28,-3.28,-3.05,-3.14,-4.14,-4.15,-4.15
222.23,-0.86,3.32,-0.87,3.31,-3.31,-3.07,-3.18,-4.18,-4.18,-4.18
224.45,-0.86,3.34,-0.86,3.34,-3.34,-3.09,-3.23,-4.21,-4.21,-4.20
226.70,-0.86,3.37,-0.86,3.37,-3.37,-3.11,-3.27,-4.23,-4.23,-4.23
228.96,-0.86,3.40,-0.86,3.40,-3.40,-3.13,-3.31,-4.26,-4.26,-4.26
231.25,-0.86,3.41,-0.86,3.42,-3.42,-3.15,-3.35,-4.28,-4.28,-4.27
233.57,-0.86,3.43,-0.86,3.43,-3.43,-3.17,-3.38,-4.29,-4.29,-4.29
235.90,-0.86,3.44,-0.86,3.44,-3.44,-3.18,-3.41,-4.30,-4.30,-4.30
238.26,-0.86,3.45,-0.87,3.45,-3.45,-3.20,-3.45,-4.31,-4.31,-4.31
240.64,-0.86,3.46,-0.87,3.45,-3.45,-3.22,-3.47,-4.31,-4.32,-4.32
243.05,-0.86,3.46,-0.87,3.46,-3.46,-3.24,-3.50,-4.32,-4.33,-4.32
245.48,-0.86,3.47,-0.87,3.46,-3.46,-3.26,-3.52,-4.32,-4.33,-4.33
247.93,-0.87,3.46,-0.87,3.46,-3.46,-3.28,-3.54,-4.33,-4.33,-4.33
250.41,-0.87,3.46,-0.87,3.46,-3.46,-3.30,-3.56,-4.33,-4.33,-4.33
252.92,-0.88,3.44,-0.87,3.46,-3.46,-3.32,-3.58,-4.34,-4.32,-4.32
255.45,-0.88,3.43,-0.86,3.45,-3.45,-3.33,-3.59,-4.34,-4.32,-4.31
258.00,-0.87,3.43,-0.86,3.45,-3.45,-3.35,-3.60,-4.33,-4.31,-4.30
260.58,-0.86,3.44,-0.85,3.45,-3.45,-3.37,-3.60,-4.32,-4.30,-4.30
263.19,-0.84,3.45,-0.83,3.46,-3.46,-3.39,-3.61,-4.30,-4.29,-4.29
265.82,-0.82,3.46,-0.82,3.46,-3.46,-3.41,-3.61,-4.28,-4.28,-4.28
268.48,-0.79,3.47,-0.80,3.47,-3.47,-3.43,-3.60,-4.26,-4.27,-4.26
271.16,-0.76,3.48,-0.77,3.48,-3.48,-3.44,-3.60,-4.24,-4.25,-4.24
273.87,-0.74,3.50,-0.75,3.49,-3.49,-3.46,-3.60,-4.23,-4.24,-4.24
276.61,-0.72,3.49,-0.72,3.51,-3.51,-3.48,-3.59,-4.23,-4.23,-4.21
279.38,-0.69,3.52,-0.68,3.53,-3.53,-3.50,-3.58,-4.22,-4.21,-4.21
282.17,-0.66,3.53,-0.65,3.55,-3.55,-3.51,-3.57,-4.21,-4.20,-4.19
284.99,-0.62,3.56,-0.61,3.57,-3.57,-3.53,-3.57,-4.19,-4.19,-4.18
287.84,-0.58,3.59,-0.58,3.59,-3.59,-3.55,-3.56,-4.17,-4.17,-4.17
290.72,-0.54,3.62,-0.54,3.61,-3.61,-3.56,-3.55,-4.16,-4.16,-4.16
293.63,-0.50,3.64,-0.51,3.64,-3.64,-3.58,-3.54,-4.14,-4.14,-4.14
296.57,-0.46,3.66,-0.47,3.66,-3.66,-3.60,-3.53,-4.12,-4.13,-4.12
299.53,-0.42,3.70,-0.43,3.69,-3.69,-3.62,-3.52,-4.11,-4.12,-4.12
302.53,-0.39,3.72,-0.39,3.71,-3.71,-3.63,-3.51,-4.10,-4.11,-4.11
305.55,-0.36,3.73,-0.36,3.74,-3.74,-3.65,-3.51,-4.10,-4.09,-4.09
308.61,-0.34,3.74,-0.32,3.76,-3.76,-3.67,-3.50,-4.11,-4.08,-4.08
311.69,-0.31,3.76,-0.29,3.78,-3.78,-3.68,-3.50,-4.10,-4.07,-4.07
314.81,-0.28,3.76,-0.26,3.80,-3.80,-3.70,-3.50,-4.08,-4.06,-4.04
317.96,-0.25,3.80,-0.24,3.81,-3.81,-3.71,-3.50,-4.06,-4.06,-4.05
321.14,-0.21,3.83,-0.23,3.82,-3.82,-3.73,-3.50,-4.03,-4.05,-4.04
324.35,-0.19,3.85,-0.22,3.82,-3.82,-3.75,-3.51,-4.01,-4.04,-4.04
327.59,-0.18,3.85,-0.22,3.81,-3.81,-3.76,-3.52,-4.00,-4.04,-4.03
330.87,-0.18,3.85,-0.23,3.80,-3.80,-3.78,-3.53,-3.99,-4.03,-4.03
334.18,-0.19,3.84,-0.24,3.79,-3.79,-3.79,-3.54,-3.98,-4.03,-4.03
337.52,-0.22,3.80,-0.25,3.77,-3.77,-3.81,-3.56,-3.99,-4.03,-4.02
340.90,-0.26,3.76,-0.27,3.75,-3.75,-3.83,-3.57,-4.02,-4.03,-4.02
344.30,-0.31,3.71,-0.29,3.73,-3.73,-3.84,-3.59,-4.04,-4.03,-4.02
347.75,-0.34,3.68,-0.32,3.71,-3.71,-3.86,-3.62,-4.05,-4.03,-4.02
351.23,-0.37,3.65,-0.34,3.69,-3.69,-3.87,-3.64,-4.06,-4.03,-4.02
354.74,-0.39,3.63,-0.37,3.67,-3.67,-3.89,-3.67,-4.06,-4.03,-4.02
358.28,-0.41,3.63,-0.39,3.65,-3.65,-3.90,-3.70,-4.06,-4.04,-4.04
361.87,-0.42,3.62,-0.40,3.64,-3.64,-3.92,-3.74,-4.06,-4.04,-4.04
365.49,-0.42,3.62,-0.41,3.64,-3.64,-3.94,-3.78,-4.06,-4.05,-4.04
369.14,-0.42,3.63,-0.41,3.65,-3.65,-3.95,-3.82,-4.07,-4.05,-4.05
372.83,-0.41,3.64,-0.40,3.66,-3.66,-3.97,-3.86,-4.07,-4.06,-4.05
376.56,-0.40,3.66,-0.39,3.68,-3.68,-3.98,-3.91,-4.08,-4.07,-4.06
380.33,-0.38,3.69,-0.37,3.70,-3.70,-4.00,-3.95,-4.09,-4.07,-4.07
384.13,-0.36,3.72,-0.35,3.73,-3.73,-4.01,-4.00,-4.09,-4.08,-4.08
387.97,-0.33,3.76,-0.33,3.76,-3.76,-4.03,-4.06,-4.09,-4.09,-4.09
391.85,-0.29,3.81,-0.31,3.79,-3.79,-4.05,-4.11,-4.08,-4.10,-4.10
395.77,-0.26,3.83,-0.29,3.81,-3.81,-4.06,-4.17,-4.07,-4.10,-4.09
399.73,-0.24,3.86,-0.27,3.84,-3.84,-4.08,-4.23,-4.08,-4.11,-4.10
403.72,-0.22,3.89,-0.25,3.86,-3.86,-4.09,-4.29,-4.08,-4.11,-4.11
407.76,-0.21,3.91,-0.24,3.88,-3.88,-4.11,-4.35,-4.10,-4.12,-4.12
411.84,-0.21,3.90,-0.22,3.90,-3.90,-4.13,-4.42,-4.12,-4.13,-4.11
415.96,-0.20,3.93,-0.21,3.92,-3.92,-4.14,-4.48,-4.13,-4.13,-4.13
420.12,-0.19,3.94,-0.19,3.94,-3.94,-4.16,-4.54,-4.13,-4.13,-4.13
424.32,-0.19,3.94,-0.18,3.96,-3.96,-4.18,-4.61,-4.15,-4.14,-4.13
428.56,-0.17,3.97,-0.16,3.98,-3.98,-4.19,-4.67,-4.15,-4.14,-4.14
432.85,-0.16,3.98,-0.14,4.00,-4.00,-4.21,-4.74,-4.16,-4.14,-4.14
437.18,-0.14,4.00,-0.12,4.02,-4.02,-4.23,-4.80,-4.16,-4.14,-4.14
441.55,-0.11,4.02,-0.10,4.04,-4.04,-4.25,-4.86,-4.15,-4.14,-4.13
445.96,-0.08,4.05,-0.07,4.07,-4.07,-4.26,-4.92,-4.15,-4.14,-4.13
450.42,-0.05,4.09,-0.04,4.10,-4.10,-4.28,-4.98,-4.15,-4.14,-4.14
