frequency,raw,error,smoothed,error_smoothed,equalization,parametric_eq,fixed_band_eq,equalized_raw,equalized_smoothed,target
20.00,5.76,0.62,5.76,0.62,-0.62,-1.33,-0.70,5.14,5.14,5.14
20.20,5.79,0.66,5.78,0.66,-0.66,-1.35,-0.72,5.13,5.13,5.13
20.40,5.81,0.69,5.81,0.69,-0.70,-1.36,-0.74,5.11,5.11,5.12
20.61,5.84,0.73,5.84,0.73,-0.73,-1.37,-0.76,5.10,5.10,5.11
20.81,5.87,0.78,5.86,0.77,-0.77,-1.39,-0.78,5.10,5.09,5.09
21.02,5.89,0.81,5.89,0.81,-0.81,-1.40,-0.81,5.08,5.08,5.08
21.23,5.92,0.85,5.92,0.85,-0.84,-1.41,-0.83,5.07,5.07,5.07
21.44,5.95,0.87,5.95,0.88,-0.88,-1.43,-0.86,5.07,5.07,5.08
21.66,5.98,0.92,5.97,0.91,-0.92,-1.44,-0.88,5.06,5.06,5.06
21.87,6.00,0.94,6.00,0.95,-0.95,-1.45,-0.91,5.05,5.05,5.06
22.09,6.03,0.99,6.03,0.99,-0.98,-1.47,-0.94,5.04,5.04,5.04
22.31,6.05,1.02,6.05,1.02,-1.02,-1.48,-0.96,5.03,5.03,5.03
22.54,6.08,1.06,6.08,1.05,-1.05,-1.49,-0.99,5.02,5.02,5.02
22.76,6.10,1.08,6.10,1.09,-1.09,-1.51,-1.02,5.01,5.01,5.02
22.99,6.13,1.12,6.12,1.12,-1.12,-1.52,-1.05,5.01,5.01,5.01
23.22,6.15,1.15,6.15,1.14,-1.15,-1.53,-1.08,5.00,5.00,5.00
23.45,6.18,1.17,6.18,1.18,-1.18,-1.55,-1.11,5.00,5.00,5.01
23.69,6.21,1.21,6.20,1.21,-1.20,-1.56,-1.15,5.00,5.00,5.00
23.92,6.23,1.24,6.23,1.23,-1.23,-1.57,-1.18,5.00,5.00,4.99
24.16,6.25,1.25,6.25,1.26,-1.26,-1.59,-1.21,4.99,4.99,5.00
24.40,6.28,1.28,6.27,1.28,-1.28,-1.60,-1.25,4.99,4.99,5.00
24.65,6.30,1.31,6.30,1.30,-1.31,-1.61,-1.28,4.99,4.99,4.99
24.89,6.32,1.33,6.32,1.33,-1.33,-1.63,-1.32,4.98,4.98,4.99
25.14,6.34,1.36,6.34,1.36,-1.36,-1.64,-1.35,4.98,4.98,4.98
25.39,6.37,1.39,6.36,1.39,-1.38,-1.65,-1.39,4.99,4.98,4.98
25.65,6.39,1.41,6.39,1.41,-1.41,-1.66,-1.42,4.98,4.98,4.98
25.91,6.41,1.43,6.41,1.43,-1.43,-1.68,-1.46,4.98,4.98,4.98
26.16,6.43,1.44,6.43,1.45,-1.45,-1.69,-1.50,4.98,4.98,4.99
26.43,6.45,1.47,6.45,1.47,-1.47,-1.70,-1.53,4.97,4.98,4.98
26.69,6.48,1.50,6.47,1.49,-1.50,-1.71,-1.57,4.98,4.98,4.98
26.96,6.50,1.52,6.50,1.52,-1.52,-1.73,-1.60,4.98,4.98,4.98
27.23,6.52,1.54,6.52,1.54,-1.54,-1.74,-1.64,4.98,4.98,4.98
27.50,6.54,1.56,6.54,1.56,-1.56,-1.75,-1.67,4.98,4.98,4.98
27.77,6.56,1.57,6.56,1.58,-1.57,-1.76,-1.71,4.98,4.98,4.99
28.05,6.58,1.60,6.58,1.60,-1.59,-1.78,-1.74,4.99,4.99,4.98
28.33,6.60,1.61,6.60,1.61,-1.61,-1.79,-1.77,4.99,4.99,4.99
28.62,6.62,1.63,6.61,1.62,-1.62,-1.80,-1.80,4.99,4.99,4.99
28.90,6.63,1.63,6.63,1.63,-1.64,-1.81,-1.83,4.99,4.99,5.00
29.19,6.65,1.65,6.65,1.65,-1.65,-1.82,-1.86,4.99,4.99,5.00
29.48,6.66,1.67,6.66,1.66,-1.67,-1.84,-1.89,4.99,4.99,4.99
29.78,6.68,1.69,6.67,1.69,-1.69,-1.85,-1.91,4.99,4.99,4.99
30.08,6.69,1.70,6.69,1.71,-1.71,-1.86,-1.93,4.98,4.98,4.99
30.38,6.71,1.74,6.70,1.73,-1.73,-1.87,-1.96,4.98,4.98,4.97
30.68,6.72,1.75,6.72,1.75,-1.75,-1.88,-1.98,4.97,4.97,4.97
30.99,6.74,1.77,6.73,1.77,-1.77,-1.89,-1.99,4.97,4.97,4.97
31.30,6.75,1.78,6.75,1.79,-1.79,-1.91,-2.01,4.96,4.96,4.97
31.61,6.76,1.80,6.76,1.80,-1.80,-1.92,-2.02,4.95,4.96,4.96
31.93,6.78,1.84,6.77,1.82,-1.82,-1.93,-2.04,4.95,4.95,4.94
32.24,6.78,1.83,6.78,1.84,-1.84,-1.94,-2.05,4.94,4.94,4.95
32.57,6.79,1.86,6.79,1.86,-1.86,-1.95,-2.06,4.93,4.93,4.93
32.89,6.80,1.87,6.80,1.87,-1.87,-1.96,-2.06,4.92,4.92,4.93
33.22,6.81,1.89,6.81,1.89,-1.89,-1.97,-2.07,4.92,4.92,4.92
33.55,6.82,1.90,6.82,1.90,-1.90,-1.98,-2.08,4.91,4.91,4.92
33.89,6.83,1.92,6.82,1.92,-1.92,-1.99,-2.08,4.91,4.91,4.91
34.23,6.83,1.94,6.83,1.94,-1.93,-2.00,-2.08,4.90,4.90,4.89
34.57,6.83,1.94,6.83,1.94,-1.94,-2.01,-2.08,4.89,4.89,4.89
34.92,6.83,1.96,6.83,1.95,-1.95,-2.02,-2.08,4.88,4.88,4.87
35.27,6.83,1.94,6.83,1.95,-1.96,-2.03,-2.08,4.87,4.87,4.89
35.62,6.83,1.97,6.83,1.96,-1.97,-2.04,-2.08,4.86,4.86,4.86
35.97,6.83,1.97,6.83,1.97,-1.98,-2.05,-2.08,4.84,4.84,4.86
36.33,6.83,1.99,6.83,1.99,-2.00,-2.06,-2.08,4.83,4.83,4.84
36.70,6.84,2.02,6.83,2.02,-2.01,-2.07,-2.08,4.82,4.82,4.82
37.06,6.84,2.04,6.84,2.04,-2.03,-2.08,-2.08,4.80,4.80,4.80
37.43,6.84,2.06,6.84,2.06,-2.05,-2.09,-2.09,4.78,4.79,4.78
37.81,6.84,2.07,6.84,2.08,-2.07,-2.10,-2.09,4.76,4.76,4.77
38.19,6.84,2.10,6.84,2.09,-2.10,-2.11,-2.09,4.74,4.74,4.74
38.57,6.84,2.12,6.84,2.11,-2.12,-2.12,-2.09,4.72,4.72,4.72
38.95,6.84,2.13,6.84,2.14,-2.14,-2.13,-2.10,4.70,4.70,4.71
39.34,6.84,2.16,6.84,2.16,-2.16,-2.14,-2.10,4.67,4.67,4.68
39.74,6.84,2.19,6.84,2.18,-2.19,-2.15,-2.11,4.65,4.65,4.65
40.14,6.84,2.21,6.84,2.21,-2.21,-2.16,-2.11,4.63,4.63,4.63
40.54,6.84,2.23,6.84,2.23,-2.23,-2.16,-2.12,4.61,4.61,4.61
40.94,6.84,2.26,6.84,2.25,-2.25,-2.17,-2.13,4.59,4.59,4.58
41.35,6.84,2.27,6.83,2.27,-2.27,-2.18,-2.14,4.57,4.57,4.57
41.76,6.83,2.29,6.83,2.29,-2.29,-2.19,-2.16,4.54,4.54,4.54
42.18,6.83,2.30,6.82,2.30,-2.31,-2.20,-2.17,4.52,4.52,4.53
42.60,6.82,2.32,6.82,2.32,-2.32,-2.21,-2.19,4.49,4.50,4.50
43.03,6.82,2.34,6.81,2.34,-2.34,-2.21,-2.21,4.48,4.47,4.48
43.46,6.81,2.37,6.81,2.36,-2.36,-2.22,-2.23,4.45,4.45,4.44
43.90,6.80,2.38,6.80,2.38,-2.38,-2.23,-2.25,4.42,4.42,4.42
44.33,6.79,2.40,6.79,2.39,-2.39,-2.24,-2.27,4.39,4.39,4.39
44.78,6.78,2.41,6.78,2.41,-2.41,-2.24,-2.30,4.36,4.36,4.37
45.23,6.77,2.42,6.77,2.43,-2.43,-2.25,-2.32,4.33,4.33,4.35
45.68,6.76,2.46,6.76,2.45,-2.46,-2.26,-2.35,4.30,4.30,4.30
46.13,6.75,2.48,6.75,2.48,-2.48,-2.27,-2.38,4.27,4.27,4.27
46.60,6.74,2.51,6.74,2.51,-2.50,-2.27,-2.41,4.23,4.23,4.23
47.06,6.73,2.53,6.72,2.53,-2.53,-2.28,-2.45,4.19,4.19,4.20
47.53,6.71,2.55,6.71,2.56,-2.56,-2.29,-2.48,4.15,4.15,4.16
48.01,6.70,2.59,6.70,2.59,-2.59,-2.29,-2.52,4.11,4.11,4.11
48.49,6.69,2.62,6.68,2.62,-2.61,-2.30,-2.56,4.07,4.07,4.07
48.97,6.67,2.65,6.67,2.65,-2.64,-2.31,-2.60,4.03,4.03,4.02
49.46,6.65,2.66,6.64,2.67,-2.66,-2.31,-2.64,3.98,3.98,3.99
49.96,6.62,2.69,6.62,2.68,-2.68,-2.32,-2.68,3.93,3.94,3.93
50.46,6.60,2.70,6.60,2.70,-2.71,-2.33,-2.72,3.89,3.89,3.90
50.96,6.58,2.72,6.58,2.72,-2.72,-2.33,-2.76,3.85,3.85,3.86
51.47,6.56,2.74,6.56,2.74,-2.74,-2.34,-2.81,3.82,3.82,3.82
51.99,6.54,2.77,6.53,2.76,-2.76,-2.34,-2.85,3.78,3.78,3.77
52.51,6.51,2.77,6.51,2.77,-2.77,-2.35,-2.90,3.74,3.74,3.74
53.03,6.49,2.78,6.48,2.78,-2.79,-2.36,-2.94,3.70,3.70,3.71
53.56,6.46,2.80,6.45,2.79,-2.80,-2.36,-2.98,3.66,3.65,3.66
54.10,6.42,2.81,6.42,2.81,-2.81,-2.37,-3.03,3.61,3.61,3.61
54.64,6.39,2.82,6.39,2.82,-2.82,-2.37,-3.07,3.57,3.57,3.57
55.18,6.36,2.83,6.36,2.83,-2.83,-2.38,-3.11,3.53,3.53,3.53
55.74,6.33,2.85,6.32,2.83,-2.83,-2.38,-3.15,3.49,3.49,3.48
56.29,6.29,2.83,6.29,2.84,-2.84,-2.39,-3.19,3.45,3.45,3.46
56.86,6.26,2.84,6.26,2.84,-2.85,-2.39,-3.23,3.41,3.41,3.42
57.42,6.23,2.86,6.23,2.85,-2.86,-2.40,-3.26,3.37,3.37,3.37
58.00,6.20,2.87,6.20,2.87,-2.87,-2.40,-3.29,3.33,3.34,3.33
58.58,6.18,2.88,6.18,2.88,-2.88,-2.41,-3.32,3.30,3.30,3.30
59.16,6.16,2.89,6.15,2.89,-2.89,-2.41,-3.35,3.27,3.26,3.27
59.76,6.12,2.90,6.12,2.90,-2.91,-2.42,-3.37,3.21,3.22,3.22
60.35,6.09,2.92,6.09,2.92,-2.92,-2.42,-3.39,3.16,3.16,3.17
60.96,6.05,2.94,6.05,2.94,-2.94,-2.42,-3.41,3.11,3.11,3.11
61.57,6.01,2.96,6.01,2.96,-2.96,-2.43,-3.42,3.05,3.05,3.05
62.18,5.97,2.98,5.97,2.98,-2.98,-2.43,-3.43,2.99,2.99,2.99
62.80,5.93,3.00,5.93,3.00,-3.00,-2.44,-3.43,2.93,2.93,2.93
63.43,5.90,3.02,5.90,3.02,-3.02,-2.44,-3.43,2.88,2.88,2.88
64.07,5.87,3.04,5.86,3.04,-3.04,-2.44,-3.43,2.83,2.83,2.83
64.71,5.83,3.05,5.83,3.06,-3.05,-2.45,-3.43,2.77,2.77,2.78
65.35,5.80,3.08,5.80,3.07,-3.07,-2.45,-3.42,2.73,2.72,2.72
66.01,5.76,3.09,5.76,3.09,-3.09,-2.45,-3.40,2.67,2.67,2.67
66.67,5.73,3.10,5.72,3.11,-3.10,-2.46,-3.39,2.62,2.62,2.63
67.33,5.69,3.13,5.68,3.12,-3.12,-2.46,-3.37,2.57,2.56,2.56
68.01,5.64,3.13,5.64,3.13,-3.14,-2.46,-3.35,2.50,2.51,2.51
68.69,5.61,3.15,5.60,3.15,-3.15,-2.47,-3.32,2.45,2.45,2.46
69.37,5.57,3.16,5.57,3.17,-3.17,-2.47,-3.30,2.39,2.40,2.41
70.07,5.54,3.19,5.53,3.19,-3.19,-2.47,-3.27,2.35,2.34,2.35
70.77,5.50,3.22,5.50,3.21,-3.21,-2.48,-3.24,2.29,2.29,2.28
71.48,5.46,3.23,5.46,3.23,-3.23,-2.48,-3.21,2.23,2.23,2.23
72.19,5.42,3.25,5.41,3.25,-3.25,-2.48,-3.17,2.17,2.17,2.17
72.91,5.37,3.27,5.37,3.27,-3.26,-2.48,-3.14,2.10,2.11,2.10
73.64,5.33,3.28,5.33,3.28,-3.28,-2.49,-3.11,2.05,2.05,2.05
74.38,5.29,3.30,5.28,3.29,-3.29,-2.49,-3.08,2.00,1.99,1.99
75.12,5.24,3.30,5.24,3.30,-3.30,-2.49,-3.04,1.94,1.94,1.94
75.87,5.19,3.30,5.19,3.30,-3.31,-2.49,-3.01,1.88,1.88,1.89
76.63,5.14,3.31,5.14,3.31,-3.31,-2.50,-2.98,1.83,1.83,1.83
77.40,5.10,3.31,5.09,3.31,-3.32,-2.50,-2.95,1.78,1.78,1.79
78.17,5.05,3.32,5.05,3.32,-3.32,-2.50,-2.92,1.73,1.73,1.73
78.95,5.01,3.32,5.01,3.32,-3.32,-2.50,-2.89,1.69,1.69,1.69
79.74,4.97,3.33,4.96,3.33,-3.32,-2.50,-2.86,1.65,1.64,1.64
80.54,4.91,3.32,4.91,3.32,-3.32,-2.50,-2.83,1.58,1.59,1.59
81.35,4.86,3.33,4.86,3.32,-3.32,-2.50,-2.81,1.54,1.53,1.53
82.16,4.80,3.30,4.80,3.32,-3.32,-2.51,-2.78,1.48,1.49,1.50
82.98,4.76,3.32,4.75,3.32,-3.32,-2.51,-2.76,1.44,1.44,1.44
83.81,4.71,3.32,4.70,3.31,-3.31,-2.51,-2.74,1.40,1.39,1.39
84.65,4.64,3.31,4.64,3.31,-3.30,-2.51,-2.73,1.33,1.34,1.33
85.50,4.57,3.30,4.57,3.30,-3.30,-2.51,-2.71,1.27,1.27,1.27
86.35,4.50,3.28,4.50,3.28,-3.29,-2.51,-2.70,1.21,1.21,1.22
87.22,4.44,3.27,4.44,3.27,-3.28,-2.51,-2.68,1.16,1.16,1.17
88.09,4.38,3.27,4.38,3.27,-3.27,-2.51,-2.68,1.11,1.11,1.11
88.97,4.32,3.27,4.31,3.26,-3.26,-2.51,-2.67,1.06,1.05,1.05
89.86,4.25,3.25,4.25,3.25,-3.25,-2.51,-2.66,1.00,1.00,1.00
90.76,4.18,3.24,4.18,3.24,-3.24,-2.51,-2.66,0.94,0.94,0.94
91.66,4.11,3.24,4.11,3.23,-3.23,-2.51,-2.66,0.87,0.88,0.87
92.58,4.05,3.23,4.04,3.22,-3.22,-2.51,-2.66,0.82,0.82,0.82
93.51,3.98,3.21,3.98,3.21,-3.22,-2.51,-2.66,0.76,0.76,0.77
94.44,3.91,3.20,3.91,3.20,-3.21,-2.51,-2.66,0.70,0.70,0.71
95.39,3.84,3.20,3.84,3.20,-3.20,-2.51,-2.67,0.64,0.64,0.64
96.34,3.77,3.20,3.77,3.20,-3.19,-2.51,-2.68,0.57,0.57,0.57
97.30,3.70,3.19,3.70,3.19,-3.18,-2.51,-2.69,0.51,0.51,0.51
98.28,3.63,3.19,3.63,3.19,-3.18,-2.51,-2.70,0.45,0.45,0.44
99.26,3.56,3.18,3.55,3.17,-3.17,-2.51,-2.71,0.38,0.38,0.38
100.25,3.48,3.16,3.48,3.16,-3.17,-2.51,-2.72,0.31,0.31,0.32
101.25,3.41,3.14,3.41,3.15,-3.17,-2.51,-2.74,0.24,0.25,0.27
102.27,3.36,3.15,3.36,3.15,-3.16,-2.50,-2.76,0.20,0.20,0.21
103.29,3.32,3.17,3.31,3.16,-3.15,-2.50,-2.77,0.17,0.16,0.15
104.32,3.26,3.16,3.25,3.16,-3.14,-2.50,-2.79,0.12,0.11,0.10
105.37,3.18,3.14,3.18,3.14,-3.13,-2.50,-2.81,0.05,0.05,0.04
106.42,3.11,3.12,3.11,3.12,-3.11,-2.50,-2.83,-0.01,-0.01,-0.01
107.48,3.03,3.10,3.02,3.09,-3.09,-2.49,-2.85,-0.07,-0.07,-0.07
108.56,2.95,3.07,2.94,3.07,-3.07,-2.49,-2.86,-0.12,-0.13,-0.12
109.64,2.86,3.04,2.86,3.05,-3.05,-2.49,-2.88,-0.19,-0.18,-0.18
110.74,2.79,3.03,2.78,3.02,-3.02,-2.49,-2.90,-0.24,-0.24,-0.24
111.85,2.71,3.01,2.70,3.00,-3.01,-2.48,-2.91,-0.30,-0.31,-0.30
112.97,2.62,2.97,2.62,2.97,-2.99,-2.48,-2.93,-0.38,-0.38,-0.35
114.10,2.54,2.95,2.54,2.96,-2.98,-2.48,-2.94,-0.45,-0.44,-0.41
115.24,2.47,2.96,2.48,2.96,-2.97,-2.47,-2.95,-0.51,-0.50,-0.49
116.39,2.43,2.98,2.42,2.98,-2.96,-2.47,-2.96,-0.54,-0.54,-0.55
117.55,2.38,2.99,2.37,2.98,-2.95,-2.47,-2.97,-0.57,-0.58,-0.61
118.73,2.30,2.97,2.29,2.96,-2.94,-2.46,-2.98,-0.64,-0.65,-0.67
119.92,2.21,2.92,2.21,2.92,-2.92,-2.46,-2.98,-0.71,-0.71,-0.71
121.12,2.11,2.87,2.13,2.89,-2.90,-2.45,-2.98,-0.80,-0.78,-0.76
122.33,2.06,2.88,2.05,2.87,-2.88,-2.45,-2.98,-0.82,-0.83,-0.82
123.55,1.99,2.86,1.97,2.84,-2.85,-2.44,-2.97,-0.86,-0.88,-0.87
124.79,1.89,2.81,1.89,2.82,-2.82,-2.44,-2.96,-0.93,-0.93,-0.92
126.03,1.79,2.77,1.81,2.79,-2.79,-2.43,-2.95,-1.00,-0.98,-0.98
127.29,1.74,2.77,1.73,2.77,-2.76,-2.42,-2.94,-1.02,-1.03,-1.03
128.57,1.66,2.76,1.64,2.73,-2.73,-2.42,-2.92,-1.07,-1.09,-1.10
129.85,1.54,2.69,1.54,2.70,-2.69,-2.41,-2.90,-1.15,-1.15,-1.15
131.15,1.42,2.63,1.44,2.65,-2.65,-2.40,-2.88,-1.23,-1.21,-1.21
132.46,1.36,2.62,1.34,2.60,-2.61,-2.39,-2.85,-1.25,-1.27,-1.26
133.79,1.26,2.58,1.25,2.57,-2.57,-2.39,-2.82,-1.31,-1.32,-1.32
135.12,1.13,2.50,1.15,2.52,-2.53,-2.38,-2.79,-1.40,-1.37,-1.37
136.48,1.07,2.49,1.05,2.48,-2.48,-2.37,-2.76,-1.41,-1.43,-1.42
137.84,0.96,2.43,0.96,2.44,-2.43,-2.36,-2.72,-1.48,-1.47,-1.47
139.22,0.88,2.41,0.87,2.40,-2.39,-2.35,-2.69,-1.51,-1.52,-1.53
140.61,0.78,2.35,0.77,2.35,-2.34,-2.34,-2.65,-1.57,-1.58,-1.57
142.02,0.65,2.28,0.67,2.30,-2.30,-2.33,-2.61,-1.65,-1.63,-1.63
143.44,0.59,2.26,0.58,2.25,-2.25,-2.32,-2.57,-1.67,-1.68,-1.67
144.87,0.49,2.20,0.49,2.20,-2.21,-2.30,-2.52,-1.72,-1.72,-1.71
146.32,0.41,2.17,0.40,2.16,-2.17,-2.29,-2.48,-1.76,-1.76,-1.76
147.78,0.31,2.11,0.31,2.12,-2.12,-2.28,-2.44,-1.82,-1.81,-1.80
149.26,0.24,2.09,0.23,2.08,-2.08,-2.26,-2.40,-1.85,-1.85,-1.85
150.75,0.16,2.05,0.15,2.05,-2.04,-2.25,-2.35,-1.89,-1.89,-1.89
152.26,0.08,2.01,0.08,2.01,-2.00,-2.23,-2.31,-1.93,-1.92,-1.93
153.78,-0.00,1.97,-0.00,1.97,-1.96,-2.22,-2.27,-1.97,-1.97,-1.97
155.32,-0.07,1.94,-0.08,1.93,-1.93,-2.20,-2.22,-2.00,-2.01,-2.01
156.88,-0.18,1.88,-0.18,1.89,-1.89,-2.18,-2.18,-2.07,-2.06,-2.06
158.44,-0.26,1.85,-0.27,1.84,-1.85,-2.16,-2.14,-2.11,-2.12,-2.11
160.03,-0.36,1.79,-0.35,1.80,-1.81,-2.15,-2.10,-2.18,-2.16,-2.15
161.63,-0.42,1.77,-0.42,1.77,-1.78,-2.13,-2.06,-2.20,-2.20,-2.19
163.24,-0.48,1.76,-0.50,1.74,-1.74,-2.10,-2.02,-2.23,-2.24,-2.24
164.88,-0.58,1.71,-0.57,1.72,-1.71,-2.08,-1.99,-2.29,-2.28,-2.29
166.53,-0.65,1.69,-0.65,1.68,-1.68,-2.06,-1.95,-2.33,-2.33,-2.34
168.19,-0.72,1.65,-0.74,1.65,-1.65,-2.03,-1.92,-2.37,-2.38,-2.37
169.87,-0.82,1.61,-0.81,1.62,-1.62,-2.01,-1.88,-2.44,-2.43,-2.43
171.57,-0.89,1.59,-0.89,1.59,-1.59,-1.98,-1.85,-2.48,-2.48,-2.48
173.29,-0.95,1.57,-0.97,1.56,-1.57,-1.96,-1.82,-2.52,-2.53,-2.52
175.02,-1.04,1.53,-1.04,1.53,-1.54,-1.93,-1.79,-2.58,-2.58,-2.57
176.77,-1.11,1.51,-1.11,1.51,-1.52,-1.90,-1.76,-2.63,-2.63,-2.62
178.54,-1.17,1.49,-1.17,1.50,-1.50,-1.87,-1.73,-2.67,-2.66,-2.66
180.32,-1.22,1.50,-1.23,1.49,-1.48,-1.83,-1.71,-2.70,-2.70,-2.72
182.13,-1.27,1.48,-1.29,1.47,-1.45,-1.80,-1.68,-2.73,-2.75,-2.75
183.95,-1.38,1.42,-1.36,1.44,-1.43,-1.77,-1.66,-2.82,-2.80,-2.80
185.79,-1.43,1.42,-1.44,1.41,-1.41,-1.73,-1.63,-2.84,-2.85,-2.85
187.65,-1.50,1.39,-1.50,1.39,-1.39,-1.70,-1.61,-2.89,-2.90,-2.89
189.52,-1.56,1.37,-1.56,1.37,-1.37,-1.66,-1.59,-2.94,-2.94,-2.93
191.42,-1.62,1.35,-1.63,1.35,-1.36,-1.62,-1.58,-2.98,-2.99,-2.97
193.33,-1.68,1.33,-1.68,1.34,-1.35,-1.58,-1.56,-3.03,-3.03,-3.01
195.27,-1.73,1.33,-1.73,1.33,-1.34,-1.54,-1.54,-3.07,-3.07,-3.06
197.22,-1.76,1.35,-1.77,1.34,-1.33,-1.50,-1.53,-3.10,-3.10,-3.11
199.19,-1.80,1.34,-1.80,1.34,-1.33,-1.46,-1.51,-3.13,-3.14,-3.14
201.18,-1.84,1.34,-1.84,1.34,-1.33,-1.42,-1.50,-3.17,-3.17,-3.18
203.19,-1.88,1.33,-1.88,1.32,-1.32,-1.38,-1.49,-3.21,-3.21,-3.21
205.23,-1.92,1.31,-1.92,1.32,-1.32,-1.35,-1.48,-3.24,-3.24,-3.23
207.28,-1.95,1.31,-1.96,1.31,-1.31,-1.31,-1.47,-3.26,-3.27,-3.26
209.35,-1.99,1.31,-1.99,1.30,-1.30,-1.27,-1.46,-3.30,-3.30,-3.30
211.44,-2.03,1.30,-2.03,1.29,-1.30,-1.24,-1.45,-3.33,-3.33,-3.33
213.56,-2.07,1.28,-2.07,1.28,-1.29,-1.21,-1.44,-3.36,-3.36,-3.35
215.69,-2.11,1.27,-2.11,1.28,-1.29,-1.18,-1.44,-3.40,-3.39,-3.38
217.85,-2.13,1.28,-2.13,1.28,-1.28,-1.15,-1.43,-3.41,-3.41,-3.41
220.03,-2.15,1.29,-2.16,1.28,-1.27,-1.12,-1.43,-3.43,-3.43,-3.44
222.23,-2.18,1.29,-2.18,1.28,-1.27,-1.10,-1.42,-3.45,-3.45,-3.47
224.45,-2.21,1.27,-2.22,1.27,-1.26,-1.09,-1.42,-3.48,-3.48,-3.48
226.70,-2.25,1.26,-2.25,1.26,-1.26,-1.08,-1.41,-3.52,-3.51,-3.51
228.96,-2.27,1.25,-2.27,1.25,-1.27,-1.07,-1.41,-3.54,-3.54,-3.52
231.25,-2.28,1.26,-2.29,1.26,-1.27,-1.07,-1.41,-3.55,-3.56,-3.54
233.57,-2.29,1.27,-2.29,1.27,-1.28,-1.07,-1.40,-3.57,-3.57,-3.56
235.90,-2.29,1.28,-2.29,1.29,-1.29,-1.07,-1.40,-3.58,-3.58,-3.57
238.26,-2.28,1.32,-2.28,1.31,-1.30,-1.08,-1.40,-3.59,-3.59,-3.60
240.64,-2.27,1.32,-2.28,1.32,-1.32,-1.10,-1.40,-3.59,-3.59,-3.59
243.05,-2.27,1.34,-2.27,1.34,-1.33,-1.12,-1.40,-3.60,-3.60,-3.61
245.48,-2.27,1.35,-2.27,1.35,-1.34,-1.14,-1.40,-3.62,-3.62,-3.62
247.93,-2.27,1.36,-2.27,1.35,-1.35,-1.17,-1.40,-3.63,-3.63,-3.63
250.41,-2.27,1.35,-2.27,1.36,-1.36,-1.20,-1.39,-3.63,-3.63,-3.62
252.92,-2.27,1.36,-2.27,1.36,-1.36,-1.23,-1.39,-3.63,-3.63,-3.63
255.45,-2.27,1.37,-2.28,1.36,-1.36,-1.26,-1.39,-3.63,-3.64,-3.64
258.00,-2.28,1.36,-2.28,1.36,-1.36,-1.30,-1.39,-3.64,-3.64,-3.64
260.58,-2.28,1.36,-2.28,1.36,-1.36,-1.33,-1.39,-3.64,-3.64,-3.64
263.19,-2.28,1.36,-2.29,1.36,-1.36,-1.37,-1.39,-3.64,-3.65,-3.64
265.82,-2.29,1.36,-2.29,1.36,-1.37,-1.41,-1.39,-3.66,-3.65,-3.65
268.48,-2.28,1.37,-2.28,1.37,-1.38,-1.45,-1.39,-3.66,-3.66,-3.65
271.16,-2.27,1.38,-2.27,1.38,-1.39,-1.49,-1.40,-3.66,-3.66,-3.65
273.87,-2.24,1.41,-2.25,1.41,-1.41,-1.53,-1.40,-3.66,-3.66,-3.65
276.61,-2.22,1.43,-2.23,1.43,-1.44,-1.57,-1.40,-3.66,-3.66,-3.65
279.38,-2.20,1.47,-2.20,1.47,-1.47,-1.61,-1.40,-3.67,-3.67,-3.67
282.17,-2.17,1.50,-2.17,1.50,-1.50,-1.65,-1.40,-3.67,-3.67,-3.67
284.99,-2.13,1.53,-2.13,1.53,-1.53,-1.69,-1.41,-3.66,-3.66,-3.66
287.84,-2.09,1.56,-2.10,1.56,-1.55,-1.73,-1.41,-3.65,-3.65,-3.65
290.72,-2.06,1.60,-2.07,1.59,-1.58,-1.76,-1.42,-3.64,-3.65,-3.66
293.63,-2.04,1.61,-2.04,1.61,-1.61,-1.80,-1.42,-3.65,-3.65,-3.65
296.57,-2.02,1.62,-2.02,1.63,-1.63,-1.83,-1.43,-3.65,-3.65,-3.64
299.53,-1.99,1.65,-2.00,1.64,-1.65,-1.87,-1.43,-3.64,-3.65,-3.64
302.53,-1.97,1.65,-1.97,1.66,-1.67,-1.90,-1.44,-3.64,-3.64,-3.62
305.55,-1.94,1.69,-1.94,1.68,-1.68,-1.93,-1.45,-3.62,-3.62,-3.63
308.61,-1.91,1.71,-1.92,1.70,-1.69,-1.96,-1.46,-3.61,-3.61,-3.62
311.69,-1.89,1.72,-1.90,1.72,-1.71,-1.99,-1.47,-3.60,-3.60,-3.61
314.81,-1.88,1.73,-1.88,1.73,-1.72,-2.01,-1.48,-3.61,-3.60,-3.61
317.96,-1.86,1.74,-1.86,1.74,-1.74,-2.04,-1.49,-3.61,-3.61,-3.60
321.14,-1.84,1.75,-1.84,1.75,-1.77,-2.07,-1.51,-3.61,-3.61,-3.59
324.35,-1.80,1.79,-1.81,1.78,-1.80,-2.09,-1.52,-3.60,-3.60,-3.59
327.59,-1.76,1.80,-1.76,1.81,-1.83,-2.11,-1.54,-3.59,-3.59,-3.56
330.87,-1.71,1.86,-1.71,1.86,-1.87,-2.13,-1.55,-3.58,-3.57,-3.57
334.18,-1.65,1.91,-1.65,1.91,-1.90,-2.16,-1.57,-3.56,-3.56,-3.56
337.52,-1.59,1.97,-1.60,1.96,-1.94,-2.18,-1.59,-3.54,-3.54,-3.56
340.90,-1.54,2.00,-1.55,2.00,-1.98,-2.20,-1.61,-3.53,-3.53,-3.54
344.30,-1.50,2.03,-1.50,2.04,-2.02,-2.21,-1.63,-3.53,-3.53,-3.53
347.75,-1.47,2.06,-1.47,2.06,-2.06,-2.23,-1.66,-3.53,-3.53,-3.53
351.23,-1.43,2.10,-1.44,2.09,-2.09,-2.25,-1.68,-3.52,-3.53,-3.53
354.74,-1.40,2.10,-1.40,2.12,-2.12,-2.27,-1.71,-3.52,-3.52,-3.50
358.28,-1.36,2.15,-1.36,2.15,-2.15,-2.28,-1.73,-3.51,-3.51,-3.51
361.87,-1.32,2.18,-1.32,2.17,-2.18,-2.30,-1.76,-3.50,-3.50,-3.50
365.49,-1.28,2.21,-1.28,2.21,-2.21,-2.31,-1.79,-3.49,-3.49,-3.49
369.14,-1.24,2.23,-1.24,2.24,-2.24,-2.32,-1.82,-3.48,-3.48,-3.47
372.83,-1.20,2.27,-1.20,2.27,-2.27,-2.34,-1.85,-3.47,-3.47,-3.47
376.56,-1.16,2.31,-1.17,2.30,-2.30,-2.35,-1.89,-3.46,-3.46,-3.47
380.33,-1.13,2.33,-1.13,2.33,-2.33,-2.36,-1.92,-3.46,-3.46,-3.46
384.13,-1.09,2.35,-1.09,2.36,-2.36,-2.37,-1.96,-3.46,-3.46,-3.44
387.97,-1.05,2.39,-1.05,2.39,-2.40,-2.38,-1.99,-3.45,-3.45,-3.44
391.85,-1.00,2.43,-1.00,2.43,-2.44,-2.40,-2.03,-3.44,-3.44,-3.43
395.77,-0.95,2.47,-0.95,2.47,-2.47,-2.41,-2.07,-3.43,-3.42,-3.42
399.73,-0.89,2.52,-0.90,2.51,-2.51,-2.41,-2.11,-3.40,-3.40,-3.41
403.72,-0.84,2.54,-0.85,2.55,-2.54,-2.42,-2.15,-3.38,-3.39,-3.38
407.76,-0.80,2.59,-0.80,2.58,-2.57,-2.43,-2.19,-3.37,-3.38,-3.39
411.84,-0.77,2.61,-0.77,2.61,-2.60,-2.44,-2.23,-3.37,-3.37,-3.38
415.96,-0.74,2.62,-0.74,2.63,-2.62,-2.45,-2.27,-3.37,-3.36,-3.36
420.12,-0.71,2.65,-0.72,2.64,-2.64,-2.46,-2.31,-3.36,-3.36,-3.36
424.32,-0.69,2.66,-0.69,2.65,-2.67,-2.47,-2.35,-3.36,-3.36,-3.35
428.56,-0.66,2.67,-0.66,2.68,-2.69,-2.47,-2.39,-3.35,-3.35,-3.33
432.85,-0.63,2.69,-0.63,2.70,-2.71,-2.48,-2.43,-3.34,-3.34,-3.32
437.18,-0.59,2.74,-0.60,2.73,-2.73,-2.49,-2.47,-3.32,-3.33,-3.33
441.55,-0.56,2.76,-0.56,2.76,-2.75,-2.49,-2.51,-3.31,-3.31,-3.32
445.96,-0.53,2.78,-0.53,2.78,-2.77,-2.50,-2.54,-3.30,-3.30,-3.31
450.42,-0.50,2.80,-0.51,2.80,-2.79,-2.50,-2.58,-3.30,-3.30,-3.30
454.93,-0.48,2.81,-0.48,2.81,-2.82,-2.51,-2.62,-3.30,-3.29,-3.29
459.48,-0.44,2.84,-0.45,2.83,-2.84,-2.52,-2.65,-3.28,-3.29,-3.28
464.07,-0.42,2.84,-0.42,2.85,-2.86,-2.52,-2.68,-3.28,-3.28,-3.26
468.71,-0.39,2.86,-0.39,2.87,-2.88,-2.53,-2.71,-3.27,-3.26,-3.25
473.40,-0.35,2.90,-0.36,2.89,-2.89,-2.53,-2.74,-3.24,-3.25,-3.25
478.13,-0.33,2.91,-0.33,2.91,-2.90,-2.53,-2.76,-3.23,-3.23,-3.24
482.91,-0.31,2.92,-0.31,2.92,-2.91,-2.54,-2.78,-3.22,-3.22,-3.23
487.74,-0.30,2.92,-0.31,2.92,-2.91,-2.54,-2.80,-3.21,-3.21,-3.22
