frequency,raw,error,smoothed,error_smoothed,equalization,parametric_eq,fixed_band_eq,equalized_raw,equalized_smoothed,target
20.00,-3.99,-9.92,-3.99,-9.92,9.87,8.85,4.39,5.88,5.88,5.93
20.20,-3.95,-9.87,-3.95,-9.87,9.85,8.95,4.50,5.91,5.91,5.92
20.40,-3.91,-9.82,-3.90,-9.82,9.83,9.04,4.62,5.92,5.93,5.91
20.61,-3.87,-9.78,-3.87,-9.78,9.81,9.13,4.74,5.94,5.94,5.91
20.81,-3.84,-9.73,-3.83,-9.73,9.78,9.22,4.87,5.94,5.95,5.89
21.02,-3.80,-9.69,-3.81,-9.70,9.75,9.31,5.00,5.95,5.94,5.89
21.23,-3.80,-9.68,-3.80,-9.69,9.72,9.39,5.13,5.92,5.92,5.88
21.44,-3.80,-9.69,-3.79,-9.68,9.68,9.46,5.27,5.88,5.89,5.89
21.66,-3.79,-9.67,-3.80,-9.68,9.64,9.53,5.41,5.85,5.84,5.88
21.87,-3.79,-9.66,-3.78,-9.66,9.59,9.60,5.56,5.80,5.81,5.87
22.09,-3.76,-9.62,-3.74,-9.61,9.54,9.66,5.71,5.78,5.79,5.86
22.31,-3.68,-9.54,-3.68,-9.54,9.49,9.72,5.86,5.81,5.81,5.86
22.54,-3.60,-9.45,-3.58,-9.44,9.46,9.77,6.02,5.86,5.88,5.85
22.76,-3.52,-9.36,-3.51,-9.35,9.45,9.82,6.18,5.94,5.95,5.84
22.99,-3.44,-9.27,-3.50,-9.33,9.47,9.86,6.35,6.03,5.97,5.83
23.22,-3.56,-9.38,-3.55,-9.38,9.49,9.89,6.52,5.93,5.94,5.82
23.45,-3.68,-9.51,-3.68,-9.50,9.52,9.92,6.69,5.85,5.85,5.83
23.69,-3.81,-9.63,-3.82,-9.64,9.56,9.95,6.87,5.75,5.74,5.82
23.92,-3.93,-9.75,-3.89,-9.72,9.59,9.96,7.05,5.66,5.70,5.82
24.16,-3.91,-9.74,-3.89,-9.72,9.61,9.98,7.24,5.70,5.72,5.83
24.40,-3.81,-9.65,-3.83,-9.67,9.60,9.98,7.43,5.80,5.78,5.84
24.65,-3.72,-9.56,-3.72,-9.56,9.58,9.98,7.62,5.86,5.85,5.84
24.89,-3.63,-9.47,-3.63,-9.47,9.52,9.98,7.82,5.90,5.89,5.84
25.14,-3.57,-9.40,-3.57,-9.41,9.46,9.97,8.02,5.89,5.89,5.83
25.39,-3.53,-9.36,-3.52,-9.36,9.39,9.95,8.22,5.86,5.87,5.83
25.65,-3.50,-9.33,-3.49,-9.33,9.33,9.93,8.43,5.84,5.84,5.83
25.91,-3.46,-9.30,-3.47,-9.31,9.30,9.91,8.64,5.84,5.83,5.84
26.16,-3.46,-9.31,-3.46,-9.31,9.30,9.88,8.85,5.85,5.84,5.85
26.43,-3.47,-9.32,-3.46,-9.31,9.34,9.84,9.06,5.87,5.88,5.85
26.69,-3.48,-9.33,-3.47,-9.32,9.40,9.81,9.26,5.92,5.93,5.85
26.96,-3.49,-9.33,-3.51,-9.36,9.45,9.76,9.47,5.96,5.94,5.84
27.23,-3.58,-9.42,-3.59,-9.43,9.48,9.72,9.68,5.90,5.89,5.84
27.50,-3.69,-9.53,-3.71,-9.56,9.48,9.67,9.88,5.79,5.77,5.84
27.77,-3.80,-9.65,-3.79,-9.64,9.45,9.62,10.08,5.65,5.66,5.85
28.05,-3.84,-9.69,-3.76,-9.60,9.39,9.57,10.27,5.56,5.63,5.85
28.33,-3.59,-9.42,-3.59,-9.43,9.33,9.51,10.46,5.74,5.74,5.83
28.62,-3.34,-9.18,-3.35,-9.19,9.26,9.45,10.63,5.92,5.91,5.83
28.90,-3.10,-8.94,-3.15,-8.99,9.18,9.40,10.80,6.08,6.03,5.84
29.19,-3.06,-8.90,-3.09,-8.93,9.10,9.34,10.95,6.04,6.01,5.84
29.48,-3.15,-8.98,-3.13,-8.97,9.03,9.28,11.09,5.89,5.91,5.83
29.78,-3.23,-9.06,-3.21,-9.05,9.00,9.21,11.21,5.77,5.79,5.83
30.08,-3.29,-9.13,-3.27,-9.11,9.02,9.15,11.31,5.73,5.75,5.84
30.38,-3.29,-9.12,-3.28,-9.11,9.09,9.09,11.39,5.80,5.80,5.83
30.68,-3.29,-9.10,-3.29,-9.11,9.17,9.03,11.46,5.88,5.88,5.81
30.99,-3.29,-9.10,-3.32,-9.13,9.23,8.96,11.50,5.94,5.90,5.81
31.30,-3.41,-9.21,-3.43,-9.23,9.25,8.90,11.52,5.84,5.82,5.80
31.61,-3.54,-9.33,-3.54,-9.34,9.24,8.84,11.52,5.70,5.70,5.79
31.93,-3.66,-9.44,-3.59,-9.37,9.20,8.78,11.50,5.55,5.61,5.78
32.24,-3.53,-9.31,-3.51,-9.28,9.16,8.72,11.46,5.63,5.65,5.78
32.57,-3.33,-9.09,-3.34,-9.11,9.10,8.67,11.40,5.77,5.76,5.76
32.89,-3.13,-8.89,-3.17,-8.93,9.04,8.61,11.33,5.91,5.87,5.76
33.22,-3.07,-8.83,-3.08,-8.84,8.97,8.56,11.24,5.90,5.89,5.76
33.55,-3.08,-8.83,-3.06,-8.82,8.90,8.50,11.13,5.82,5.84,5.75
33.89,-3.09,-8.85,-3.08,-8.83,8.83,8.45,11.01,5.74,5.75,5.76
34.23,-3.09,-8.83,-3.09,-8.84,8.79,8.40,10.88,5.70,5.70,5.74
34.57,-3.09,-8.83,-3.09,-8.83,8.78,8.36,10.74,5.70,5.69,5.74
34.92,-3.09,-8.82,-3.09,-8.83,8.81,8.31,10.60,5.73,5.73,5.73
35.27,-3.09,-8.83,-3.08,-8.81,8.86,8.27,10.45,5.77,5.79,5.74
35.62,-3.09,-8.81,-3.08,-8.81,8.91,8.23,10.29,5.82,5.82,5.72
35.97,-3.09,-8.81,-3.13,-8.85,8.93,8.19,10.13,5.84,5.80,5.72
36.33,-3.22,-8.92,-3.25,-8.95,8.93,8.16,9.97,5.71,5.69,5.70
36.70,-3.37,-9.06,-3.35,-9.04,8.92,8.13,9.81,5.55,5.57,5.69
37.06,-3.46,-9.13,-3.37,-9.04,8.88,8.10,9.65,5.43,5.51,5.67
37.43,-3.27,-8.92,-3.28,-8.93,8.83,8.07,9.50,5.56,5.55,5.65
37.81,-3.08,-8.71,-3.12,-8.75,8.76,8.04,9.34,5.68,5.64,5.63
38.19,-2.97,-8.57,-2.98,-8.59,8.68,8.02,9.19,5.71,5.70,5.60
38.57,-2.92,-8.50,-2.91,-8.49,8.59,8.00,9.04,5.67,5.68,5.58
38.95,-2.88,-8.43,-2.88,-8.43,8.49,7.99,8.89,5.61,5.61,5.55
39.34,-2.88,-8.39,-2.88,-8.40,8.40,7.97,8.75,5.53,5.53,5.51
39.74,-2.88,-8.37,-2.88,-8.37,8.34,7.96,8.62,5.46,5.46,5.49
40.14,-2.89,-8.35,-2.89,-8.35,8.31,7.95,8.49,5.42,5.42,5.46
40.54,-2.89,-8.33,-2.89,-8.33,8.31,7.94,8.36,5.42,5.42,5.44
40.94,-2.89,-8.30,-2.88,-8.30,8.33,7.94,8.24,5.44,5.45,5.41
41.35,-2.89,-8.28,-2.88,-8.26,8.35,7.94,8.12,5.46,5.47,5.39
41.76,-2.89,-8.24,-2.91,-8.27,8.35,7.94,8.01,5.46,5.45,5.35
42.18,-2.96,-8.29,-3.02,-8.35,8.34,7.94,7.91,5.38,5.32,5.33
42.60,-3.13,-8.44,-3.13,-8.43,8.32,7.94,7.81,5.19,5.19,5.31
43.03,-3.27,-8.55,-3.15,-8.43,8.28,7.94,7.72,5.01,5.13,5.28
43.46,-3.06,-8.31,-3.06,-8.32,8.23,7.95,7.63,5.17,5.17,5.25
43.90,-2.84,-8.07,-2.92,-8.14,8.17,7.95,7.55,5.33,5.25,5.23
44.33,-2.79,-7.98,-2.80,-8.00,8.11,7.96,7.47,5.32,5.31,5.19
44.78,-2.79,-7.95,-2.77,-7.94,8.03,7.96,7.40,5.25,5.26,5.16
45.23,-2.79,-7.94,-2.78,-7.92,7.96,7.97,7.34,5.17,5.17,5.15
45.68,-2.79,-7.89,-2.79,-7.90,7.89,7.98,7.28,5.10,5.10,5.10
46.13,-2.79,-7.85,-2.79,-7.86,7.84,7.98,7.22,5.05,5.05,5.06
46.60,-2.79,-7.82,-2.79,-7.82,7.81,7.98,7.17,5.02,5.02,5.03
47.06,-2.79,-7.78,-2.79,-7.79,7.77,7.98,7.13,4.98,4.97,4.99
47.53,-2.79,-7.75,-2.79,-7.74,7.72,7.98,7.09,4.93,4.93,4.96
48.01,-2.79,-7.69,-2.77,-7.68,7.65,7.98,7.05,4.86,4.88,4.90
48.49,-2.74,-7.59,-2.74,-7.60,7.58,7.98,7.02,4.84,4.84,4.85
48.97,-2.69,-7.50,-2.69,-7.50,7.50,7.97,7.00,4.81,4.81,4.81
49.46,-2.64,-7.41,-2.64,-7.40,7.42,7.95,6.97,4.79,4.79,4.77
49.96,-2.59,-7.29,-2.60,-7.32,7.35,7.94,6.95,4.76,4.75,4.70
50.46,-2.59,-7.25,-2.59,-7.25,7.28,7.92,6.94,4.69,4.69,4.66
50.96,-2.59,-7.21,-2.58,-7.20,7.22,7.89,6.93,4.63,4.63,4.62
51.47,-2.59,-7.17,-2.59,-7.17,7.16,7.86,6.92,4.58,4.58,4.58
51.99,-2.59,-7.12,-2.59,-7.13,7.11,7.82,6.91,4.52,4.52,4.53
52.51,-2.59,-7.08,-2.59,-7.09,7.06,7.78,6.91,4.47,4.47,4.49
53.03,-2.59,-7.05,-2.59,-7.04,7.02,7.74,6.90,4.43,4.43,4.46
53.56,-2.59,-6.99,-2.59,-7.00,6.99,7.68,6.90,4.40,4.40,4.40
54.10,-2.59,-6.94,-2.59,-6.95,6.96,7.63,6.90,4.38,4.38,4.35
54.64,-2.59,-6.90,-2.58,-6.88,6.95,7.56,6.90,4.36,4.37,4.31
55.18,-2.59,-6.84,-2.57,-6.83,6.92,7.50,6.89,4.33,4.34,4.25
55.74,-2.59,-6.79,-2.65,-6.86,6.88,7.42,6.89,4.29,4.23,4.20
56.29,-2.70,-6.87,-2.75,-6.92,6.83,7.34,6.89,4.13,4.08,4.17
56.86,-2.91,-7.04,-2.77,-6.89,6.78,7.26,6.88,3.87,4.01,4.13
57.42,-2.76,-6.83,-2.71,-6.80,6.72,7.18,6.87,3.96,4.00,4.07
58.00,-2.48,-6.52,-2.60,-6.64,6.65,7.09,6.86,4.18,4.06,4.04
58.58,-2.48,-6.49,-2.48,-6.49,6.59,6.99,6.84,4.11,4.11,4.01
59.16,-2.48,-6.45,-2.45,-6.43,6.50,6.90,6.82,4.02,4.05,3.97
59.76,-2.48,-6.41,-2.48,-6.40,6.41,6.80,6.79,3.93,3.93,3.93
60.35,-2.48,-6.34,-2.48,-6.35,6.32,6.69,6.76,3.84,3.84,3.86
60.96,-2.48,-6.29,-2.48,-6.29,6.26,6.59,6.73,3.78,3.78,3.81
61.57,-2.48,-6.22,-2.48,-6.22,6.21,6.49,6.68,3.74,3.74,3.74
62.18,-2.48,-6.15,-2.48,-6.15,6.19,6.38,6.64,3.71,3.71,3.67
62.80,-2.48,-6.09,-2.46,-6.07,6.15,6.27,6.58,3.67,3.70,3.61
63.43,-2.48,-6.03,-2.50,-6.06,6.10,6.17,6.52,3.62,3.59,3.55
64.07,-2.50,-6.00,-2.60,-6.10,6.03,6.06,6.46,3.53,3.43,3.50
64.71,-2.74,-6.18,-2.62,-6.06,5.97,5.95,6.39,3.23,3.34,3.44
65.35,-2.68,-6.06,-2.59,-5.98,5.90,5.85,6.31,3.23,3.31,3.38
66.01,-2.38,-5.70,-2.50,-5.83,5.83,5.74,6.23,3.46,3.33,3.32
66.67,-2.38,-5.66,-2.39,-5.66,5.75,5.64,6.14,3.37,3.36,3.28
67.33,-2.38,-5.58,-2.35,-5.56,5.63,5.54,6.05,3.26,3.28,3.20
68.01,-2.38,-5.53,-2.38,-5.53,5.50,5.44,5.95,3.12,3.12,3.15
68.69,-2.38,-5.46,-2.41,-5.49,5.38,5.34,5.85,3.00,2.97,3.08
69.37,-2.38,-5.41,-2.35,-5.38,5.30,5.24,5.74,2.92,2.95,3.03
70.07,-2.35,-5.31,-2.23,-5.20,5.25,5.15,5.64,2.90,3.02,2.96
70.77,-2.03,-4.93,-2.12,-5.02,5.21,5.06,5.53,3.18,3.09,2.90
71.48,-2.05,-4.88,-2.14,-4.98,5.17,4.97,5.41,3.12,3.02,2.83
72.19,-2.28,-5.04,-2.30,-5.07,5.11,4.88,5.30,2.83,2.81,2.76
72.91,-2.61,-5.31,-2.52,-5.22,5.04,4.79,5.19,2.43,2.52,2.70
73.64,-2.65,-5.28,-2.57,-5.20,4.97,4.71,5.07,2.32,2.40,2.63
74.38,-2.47,-5.04,-2.46,-5.03,4.91,4.63,4.95,2.44,2.44,2.57
75.12,-2.18,-4.68,-2.29,-4.80,4.83,4.55,4.84,2.65,2.55,2.50
75.87,-2.18,-4.64,-2.18,-4.63,4.75,4.48,4.72,2.57,2.57,2.46
76.63,-2.18,-4.57,-2.15,-4.55,4.65,4.41,4.61,2.48,2.50,2.39
77.40,-2.18,-4.52,-2.18,-4.52,4.56,4.34,4.50,2.38,2.38,2.34
78.17,-2.18,-4.46,-2.18,-4.46,4.48,4.27,4.38,2.30,2.31,2.28
78.95,-2.18,-4.42,-2.17,-4.40,4.43,4.21,4.27,2.25,2.27,2.24
79.74,-2.18,-4.36,-2.18,-4.36,4.39,4.14,4.16,2.21,2.21,2.18
80.54,-2.21,-4.33,-2.28,-4.41,4.35,4.08,4.05,2.14,2.07,2.12
81.35,-2.34,-4.41,-2.32,-4.39,4.30,4.02,3.95,1.96,1.98,2.07
82.16,-2.46,-4.48,-2.30,-4.32,4.23,3.97,3.85,1.77,1.93,2.02
82.98,-2.11,-4.07,-2.22,-4.19,4.15,3.91,3.74,2.04,1.93,1.96
83.81,-2.08,-3.98,-2.12,-4.02,4.06,3.86,3.64,1.98,1.94,1.90
84.65,-2.08,-3.92,-2.05,-3.89,3.97,3.80,3.55,1.89,1.93,1.84
85.50,-2.08,-3.85,-2.08,-3.85,3.89,3.75,3.45,1.81,1.81,1.77
86.35,-2.08,-3.79,-2.08,-3.79,3.82,3.70,3.36,1.74,1.74,1.71
87.22,-2.08,-3.74,-2.07,-3.73,3.76,3.65,3.27,1.68,1.69,1.66
88.09,-2.08,-3.67,-2.06,-3.66,3.71,3.60,3.18,1.63,1.64,1.59
88.97,-2.08,-3.62,-2.13,-3.66,3.65,3.55,3.10,1.57,1.53,1.54
89.86,-2.15,-3.61,-2.20,-3.66,3.59,3.49,3.01,1.45,1.40,1.46
90.76,-2.34,-3.74,-2.21,-3.61,3.52,3.44,2.93,1.19,1.31,1.40
91.66,-2.17,-3.50,-2.17,-3.50,3.44,3.39,2.85,1.27,1.27,1.33
92.58,-2.01,-3.28,-2.07,-3.35,3.34,3.34,2.78,1.33,1.27,1.27
93.51,-1.97,-3.17,-1.97,-3.18,3.24,3.28,2.70,1.27,1.27,1.20
94.44,-1.97,-3.10,-1.96,-3.09,3.14,3.23,2.63,1.17,1.18,1.13
95.39,-1.98,-3.03,-1.97,-3.03,3.05,3.17,2.56,1.07,1.08,1.05
96.34,-1.98,-2.95,-1.97,-2.95,2.97,3.11,2.49,0.99,0.99,0.97
97.30,-1.98,-2.87,-1.97,-2.86,2.90,3.05,2.42,0.92,0.93,0.89
98.28,-1.99,-2.79,-2.00,-2.80,2.84,2.98,2.36,0.85,0.85,0.80
99.26,-2.03,-2.74,-2.09,-2.81,2.78,2.92,2.29,0.75,0.69,0.71
100.25,-2.18,-2.81,-2.16,-2.79,2.72,2.85,2.23,0.54,0.56,0.63
101.25,-2.28,-2.84,-2.18,-2.73,2.63,2.78,2.17,0.36,0.46,0.56
102.27,-2.08,-2.55,-2.13,-2.61,2.55,2.70,2.12,0.47,0.41,0.47
103.29,-2.02,-2.41,-2.05,-2.44,2.46,2.63,2.06,0.44,0.42,0.39
104.32,-1.99,-2.31,-1.99,-2.31,2.39,2.55,2.00,0.40,0.40,0.32
105.37,-2.01,-2.25,-2.01,-2.24,2.31,2.47,1.95,0.31,0.31,0.24
106.42,-2.04,-2.19,-2.02,-2.18,2.24,2.39,1.90,0.21,0.22,0.15
107.48,-2.06,-2.12,-2.05,-2.12,2.18,2.31,1.84,0.12,0.13,0.06
108.56,-2.09,-2.09,-2.14,-2.13,2.11,2.23,1.79,0.03,-0.03,0.00
109.64,-2.20,-2.11,-2.23,-2.14,2.05,2.14,1.74,-0.15,-0.17,-0.09
110.74,-2.37,-2.20,-2.25,-2.09,1.99,2.05,1.69,-0.38,-0.27,-0.17
111.85,-2.22,-1.98,-2.21,-1.98,1.91,1.96,1.64,-0.31,-0.31,-0.24
112.97,-2.05,-1.74,-2.13,-1.82,1.82,1.88,1.59,-0.23,-0.31,-0.31
114.10,-2.06,-1.68,-2.05,-1.67,1.74,1.79,1.54,-0.32,-0.31,-0.38
115.24,-2.06,-1.60,-2.04,-1.59,1.66,1.70,1.50,-0.40,-0.38,-0.46
116.39,-2.06,-1.52,-2.05,-1.51,1.58,1.61,1.45,-0.48,-0.46,-0.54
117.55,-2.05,-1.45,-2.05,-1.44,1.50,1.52,1.40,-0.55,-0.55,-0.60
118.73,-2.05,-1.37,-2.11,-1.44,1.42,1.43,1.35,-0.63,-0.70,-0.68
119.92,-2.16,-1.42,-2.16,-1.43,1.34,1.34,1.30,-0.82,-0.82,-0.74
121.12,-2.28,-1.49,-2.15,-1.36,1.26,1.25,1.25,-1.01,-0.89,-0.79
122.33,-2.05,-1.19,-2.09,-1.24,1.18,1.16,1.20,-0.87,-0.91,-0.86
123.55,-1.92,-1.01,-1.98,-1.07,1.08,1.07,1.15,-0.83,-0.90,-0.91
124.79,-1.91,-0.94,-1.89,-0.92,1.00,0.98,1.10,-0.91,-0.90,-0.97
126.03,-1.90,-0.86,-1.89,-0.86,0.92,0.90,1.05,-0.98,-0.97,-1.04
127.29,-1.90,-0.80,-1.89,-0.80,0.84,0.81,1.00,-1.06,-1.06,-1.10
128.57,-1.89,-0.73,-1.88,-0.71,0.77,0.73,0.95,-1.12,-1.11,-1.16
129.85,-1.89,-0.66,-1.90,-0.67,0.70,0.64,0.90,-1.19,-1.20,-1.23
131.15,-1.90,-0.61,-1.98,-0.70,0.63,0.56,0.85,-1.27,-1.35,-1.29
132.46,-2.06,-0.71,-2.01,-0.66,0.56,0.48,0.79,-1.50,-1.44,-1.35
133.79,-2.11,-0.70,-1.97,-0.57,0.49,0.39,0.74,-1.62,-1.49,-1.41
135.12,-1.77,-0.30,-1.89,-0.43,0.40,0.32,0.68,-1.37,-1.49,-1.47
136.48,-1.76,-0.25,-1.78,-0.27,0.32,0.24,0.63,-1.44,-1.46,-1.51
137.84,-1.76,-0.19,-1.73,-0.15,0.25,0.16,0.57,-1.51,-1.48,-1.57
139.22,-1.76,-0.11,-1.75,-0.12,0.18,0.08,0.52,-1.58,-1.58,-1.65
140.61,-1.76,-0.07,-1.75,-0.05,0.10,0.01,0.46,-1.66,-1.65,-1.69
142.02,-1.76,-0.01,-1.78,-0.03,0.03,-0.07,0.40,-1.73,-1.76,-1.75
143.44,-1.79,0.03,-1.84,-0.03,-0.04,-0.14,0.34,-1.83,-1.87,-1.82
144.87,-1.93,-0.06,-1.85,0.02,-0.10,-0.21,0.28,-2.03,-1.95,-1.87
146.32,-1.84,0.08,-1.81,0.11,-0.17,-0.28,0.22,-2.00,-1.98,-1.92
147.78,-1.69,0.29,-1.75,0.23,-0.24,-0.35,0.16,-1.92,-1.98,-1.98
149.26,-1.66,0.37,-1.67,0.36,-0.31,-0.42,0.10,-1.97,-1.98,-2.03
150.75,-1.66,0.44,-1.65,0.44,-0.38,-0.49,0.04,-2.04,-2.02,-2.10
152.26,-1.66,0.48,-1.66,0.49,-0.45,-0.56,-0.02,-2.11,-2.11,-2.14
153.78,-1.66,0.54,-1.65,0.55,-0.52,-0.62,-0.09,-2.18,-2.17,-2.20
155.32,-1.66,0.59,-1.66,0.59,-0.60,-0.69,-0.15,-2.26,-2.26,-2.25
156.88,-1.65,0.66,-1.72,0.59,-0.66,-0.75,-0.22,-2.31,-2.38,-2.31
158.44,-1.76,0.61,-1.71,0.66,-0.72,-0.81,-0.28,-2.48,-2.43,-2.37
160.03,-1.79,0.64,-1.66,0.77,-0.78,-0.88,-0.35,-2.57,-2.44,-2.43
161.63,-1.47,1.02,-1.62,0.87,-0.85,-0.94,-0.42,-2.32,-2.47,-2.49
163.24,-1.56,1.00,-1.58,0.97,-0.91,-1.00,-0.48,-2.47,-2.49,-2.56
164.88,-1.66,0.95,-1.59,1.02,-0.96,-1.06,-0.55,-2.62,-2.55,-2.61
166.53,-1.67,1.01,-1.67,1.00,-1.01,-1.12,-0.62,-2.68,-2.68,-2.68
168.19,-1.67,1.06,-1.67,1.06,-1.05,-1.17,-0.69,-2.72,-2.73,-2.73
169.87,-1.68,1.11,-1.68,1.12,-1.10,-1.23,-0.76,-2.78,-2.77,-2.79
171.57,-1.69,1.17,-1.74,1.11,-1.14,-1.29,-0.83,-2.83,-2.88,-2.86
173.29,-1.79,1.13,-1.78,1.14,-1.20,-1.34,-0.91,-2.98,-2.97,-2.92
175.02,-1.86,1.11,-1.77,1.20,-1.26,-1.40,-0.98,-3.12,-3.02,-2.97
176.77,-1.67,1.35,-1.72,1.30,-1.33,-1.45,-1.05,-3.00,-3.05,-3.02
178.54,-1.61,1.47,-1.64,1.44,-1.42,-1.51,-1.13,-3.02,-3.06,-3.08
180.32,-1.60,1.54,-1.58,1.55,-1.49,-1.56,-1.20,-3.09,-3.07,-3.14
182.13,-1.59,1.59,-1.58,1.60,-1.55,-1.61,-1.28,-3.14,-3.14,-3.18
183.95,-1.58,1.65,-1.57,1.65,-1.62,-1.66,-1.36,-3.20,-3.19,-3.23
185.79,-1.57,1.71,-1.56,1.71,-1.68,-1.71,-1.44,-3.25,-3.25,-3.28
187.65,-1.55,1.77,-1.58,1.74,-1.75,-1.76,-1.52,-3.30,-3.32,-3.32
189.52,-1.59,1.78,-1.60,1.76,-1.81,-1.81,-1.60,-3.40,-3.41,-3.37
191.42,-1.64,1.76,-1.60,1.80,-1.88,-1.86,-1.68,-3.51,-3.48,-3.40
193.33,-1.59,1.86,-1.56,1.89,-1.95,-1.91,-1.76,-3.54,-3.50,-3.45
195.27,-1.45,2.05,-1.48,2.01,-2.02,-1.96,-1.85,-3.47,-3.50,-3.50
197.22,-1.38,2.17,-1.40,2.14,-2.09,-2.00,-1.93,-3.47,-3.49,-3.55
199.19,-1.37,2.21,-1.36,2.22,-2.15,-2.05,-2.01,-3.52,-3.51,-3.58
201.18,-1.36,2.27,-1.35,2.27,-2.21,-2.09,-2.10,-3.57,-3.57,-3.63
203.19,-1.36,2.30,-1.35,2.31,-2.28,-2.14,-2.18,-3.64,-3.63,-3.66
205.23,-1.36,2.34,-1.38,2.31,-2.34,-2.18,-2.26,-3.69,-3.72,-3.70
207.28,-1.39,2.34,-1.41,2.32,-2.39,-2.22,-2.35,-3.78,-3.80,-3.73
209.35,-1.46,2.31,-1.40,2.37,-2.44,-2.27,-2.43,-3.90,-3.84,-3.77
211.44,-1.37,2.45,-1.38,2.44,-2.49,-2.31,-2.51,-3.85,-3.86,-3.82
213.56,-1.28,2.57,-1.30,2.54,-2.53,-2.35,-2.59,-3.81,-3.84,-3.85
215.69,-1.27,2.62,-1.24,2.65,-2.58,-2.39,-2.67,-3.85,-3.81,-3.89
217.85,-1.19,2.73,-1.23,2.69,-2.62,-2.43,-2.75,-3.81,-3.85,-3.92
220.03,-1.27,2.70,-1.27,2.69,-2.65,-2.47,-2.82,-3.92,-3.92,-3.97
222.23,-1.35,2.64,-1.32,2.67,-2.67,-2.51,-2.90,-4.02,-3.99,-3.99
224.45,-1.38,2.64,-1.37,2.65,-2.68,-2.55,-2.97,-4.06,-4.05,-4.02
226.70,-1.38,2.67,-1.38,2.66,-2.68,-2.58,-3.04,-4.06,-4.06,-4.05
228.96,-1.37,2.70,-1.37,2.69,-2.69,-2.62,-3.10,-4.06,-4.07,-4.07
231.25,-1.37,2.71,-1.40,2.69,-2.71,-2.65,-3.16,-4.08,-4.10,-4.08
233.57,-1.41,2.70,-1.40,2.70,-2.74,-2.69,-3.22,-4.15,-4.14,-4.11
235.90,-1.43,2.69,-1.37,2.75,-2.78,-2.72,-3.27,-4.21,-4.15,-4.12
238.26,-1.28,2.86,-1.31,2.82,-2.82,-2.76,-3.32,-4.10,-4.13,-4.14
240.64,-1.21,2.92,-1.24,2.89,-2.87,-2.79,-3.36,-4.08,-4.11,-4.13
243.05,-1.20,2.94,-1.18,2.96,-2.92,-2.82,-3.40,-4.12,-4.10,-4.14
245.48,-1.18,2.98,-1.17,2.98,-2.97,-2.85,-3.43,-4.14,-4.13,-4.16
247.93,-1.15,3.02,-1.15,3.01,-3.01,-2.88,-3.46,-4.16,-4.16,-4.17
250.41,-1.13,3.03,-1.13,3.03,-3.04,-2.91,-3.48,-4.17,-4.17,-4.16
252.92,-1.12,3.04,-1.12,3.05,-3.06,-2.94,-3.50,-4.18,-4.18,-4.16
255.45,-1.10,3.08,-1.09,3.08,-3.07,-2.97,-3.51,-4.17,-4.16,-4.18
258.00,-1.08,3.11,-1.08,3.11,-3.08,-3.00,-3.52,-4.16,-4.16,-4.19
260.58,-1.05,3.15,-1.10,3.10,-3.09,-3.02,-3.52,-4.14,-4.19,-4.20
263.19,-1.14,3.07,-1.12,3.09,-3.10,-3.05,-3.52,-4.24,-4.22,-4.21
265.82,-1.18,3.05,-1.13,3.09,-3.11,-3.07,-3.51,-4.29,-4.25,-4.23
268.48,-1.11,3.12,-1.14,3.10,-3.13,-3.09,-3.50,-4.24,-4.26,-4.23
271.16,-1.10,3.15,-1.11,3.13,-3.14,-3.12,-3.48,-4.24,-4.25,-4.25
273.87,-1.10,3.16,-1.09,3.17,-3.15,-3.14,-3.46,-4.25,-4.25,-4.26
276.61,-1.10,3.18,-1.10,3.18,-3.17,-3.16,-3.44,-4.27,-4.27,-4.28
279.38,-1.10,3.21,-1.10,3.20,-3.19,-3.18,-3.42,-4.29,-4.29,-4.31
282.17,-1.10,3.21,-1.10,3.21,-3.21,-3.20,-3.39,-4.31,-4.30,-4.31
284.99,-1.09,3.22,-1.09,3.22,-3.22,-3.22,-3.36,-4.31,-4.31,-4.31
287.84,-1.08,3.23,-1.08,3.23,-3.24,-3.24,-3.33,-4.32,-4.32,-4.31
290.72,-1.07,3.26,-1.07,3.25,-3.25,-3.25,-3.29,-4.32,-4.32,-4.33
293.63,-1.06,3.26,-1.06,3.26,-3.26,-3.27,-3.26,-4.32,-4.32,-4.32
296.57,-1.06,3.26,-1.05,3.27,-3.27,-3.28,-3.23,-4.33,-4.32,-4.32
299.53,-1.04,3.29,-1.03,3.29,-3.29,-3.30,-3.19,-4.32,-4.32,-4.33
302.53,-1.01,3.31,-1.02,3.30,-3.30,-3.31,-3.16,-4.31,-4.32,-4.32
305.55,-1.01,3.32,-1.01,3.32,-3.31,-3.32,-3.12,-4.32,-4.32,-4.33
308.61,-1.01,3.31,-1.00,3.32,-3.32,-3.33,-3.09,-4.33,-4.32,-4.32
311.69,-1.00,3.34,-1.00,3.33,-3.33,-3.34,-3.06,-4.33,-4.33,-4.34
314.81,-1.00,3.33,-1.00,3.34,-3.34,-3.35,-3.02,-4.34,-4.34,-4.33
317.96,-0.99,3.36,-0.99,3.35,-3.35,-3.36,-2.99,-4.34,-4.34,-4.35
321.14,-0.99,3.35,-0.99,3.35,-3.36,-3.37,-2.96,-4.34,-4.34,-4.34
324.35,-0.99,3.36,-0.99,3.35,-3.35,-3.37,-2.94,-4.34,-4.34,-4.35
327.59,-0.99,3.35,-0.99,3.35,-3.35,-3.38,-2.91,-4.34,-4.34,-4.34
330.87,-1.00,3.35,-0.99,3.36,-3.33,-3.38,-2.89,-4.33,-4.33,-4.35
334.18,-1.00,3.36,-1.01,3.34,-3.32,-3.39,-2.86,-4.32,-4.33,-4.36
337.52,-1.03,3.32,-1.04,3.32,-3.31,-3.39,-2.84,-4.33,-4.34,-4.35
340.90,-1.08,3.28,-1.07,3.28,-3.30,-3.39,-2.82,-4.37,-4.36,-4.36
344.30,-1.10,3.25,-1.10,3.25,-3.29,-3.39,-2.81,-4.39,-4.39,-4.35
347.75,-1.10,3.24,-1.11,3.24,-3.28,-3.39,-2.79,-4.38,-4.39,-4.34
351.23,-1.10,3.26,-1.08,3.26,-3.28,-3.39,-2.78,-4.37,-4.36,-4.36
354.74,-1.06,3.28,-1.05,3.29,-3.27,-3.39,-2.77,-4.33,-4.32,-4.34
358.28,-1.00,3.34,-1.03,3.31,-3.27,-3.39,-2.77,-4.27,-4.30,-4.34
361.87,-1.03,3.31,-1.03,3.30,-3.27,-3.39,-2.76,-4.30,-4.30,-4.34
365.49,-1.07,3.26,-1.05,3.28,-3.27,-3.38,-2.76,-4.34,-4.32,-4.33
369.14,-1.07,3.25,-1.07,3.25,-3.27,-3.38,-2.76,-4.34,-4.34,-4.32
372.83,-1.07,3.24,-1.07,3.25,-3.27,-3.37,-2.76,-4.34,-4.34,-4.31
376.56,-1.06,3.26,-1.06,3.25,-3.27,-3.36,-2.76,-4.33,-4.33,-4.32
380.33,-1.05,3.27,-1.05,3.26,-3.26,-3.36,-2.77,-4.31,-4.32,-4.32
384.13,-1.05,3.26,-1.04,3.27,-3.26,-3.35,-2.77,-4.31,-4.30,-4.31
387.97,-1.04,3.27,-1.04,3.28,-3.25,-3.34,-2.78,-4.29,-4.29,-4.31
391.85,-1.04,3.28,-1.04,3.27,-3.25,-3.33,-2.79,-4.29,-4.29,-4.32
395.77,-1.05,3.28,-1.07,3.26,-3.25,-3.32,-2.81,-4.29,-4.31,-4.33
399.73,-1.11,3.22,-1.10,3.23,-3.24,-3.31,-2.82,-4.35,-4.34,-4.33
403.72,-1.14,3.18,-1.13,3.20,-3.23,-3.30,-2.84,-4.37,-4.35,-4.32
407.76,-1.14,3.20,-1.15,3.19,-3.21,-3.28,-2.85,-4.35,-4.36,-4.34
411.84,-1.15,3.20,-1.14,3.20,-3.19,-3.27,-2.87,-4.34,-4.34,-4.35
415.96,-1.15,3.20,-1.15,3.20,-3.17,-3.26,-2.89,-4.32,-4.32,-4.35
420.12,-1.15,3.21,-1.17,3.19,-3.16,-3.24,-2.91,-4.31,-4.33,-4.36
424.32,-1.20,3.15,-1.19,3.15,-3.15,-3.23,-2.93,-4.35,-4.34,-4.35
428.56,-1.22,3.11,-1.21,3.12,-3.14,-3.21,-2.95,-4.36,-4.35,-4.33
432.85,-1.22,3.09,-1.21,3.10,-3.13,-3.19,-2.97,-4.35,-4.35,-4.31
437.18,-1.19,3.11,-1.19,3.10,-3.12,-3.18,-2.99,-4.31,-4.31,-4.30
441.55,-1.15,3.12,-1.15,3.12,-3.11,-3.16,-3.01,-4.25,-4.25,-4.27
445.96,-1.11,3.12,-1.10,3.13,-3.09,-3.14,-3.03,-4.20,-4.20,-4.23
450.42,-1.06,3.13,-1.08,3.11,-3.08,-3.12,-3.04,-4.14,-4.16,-4.19
454.93,-1.05,3.09,-1.05,3.08,-3.08,-3.10,-3.06,-4.13,-4.13,-4.14
459.48,-1.05,3.03,-1.03,3.05,-3.07,-3.08,-3.08,-4.12,-4.10,-4.08
464.07,-0.98,3.03,-0.99,3.03,-3.06,-3.06,-3.09,-4.04,-4.04,-4.01
468.71,-0.93,3.03,-0.93,3.03,-3.04,-3.04,-3.10,-3.97,-3.97,-3.96
