frequency,raw,error,smoothed,error_smoothed,equalization,parametric_eq,fixed_band_eq,equalized_raw,equalized_smoothed,target
20.00,-3.99,-9.92,-4.00,-9.94,9.94,8.65,4.36,5.95,5.94,5.93
20.20,-3.95,-9.87,-3.96,-9.88,9.88,8.75,4.47,5.94,5.93,5.92
20.40,-3.91,-9.82,-3.91,-9.83,9.83,8.84,4.59,5.92,5.92,5.91
20.61,-3.87,-9.78,-3.87,-9.78,9.78,8.93,4.71,5.91,5.91,5.91
20.81,-3.84,-9.73,-3.84,-9.74,9.74,9.02,4.83,5.90,5.90,5.89
21.02,-3.80,-9.69,-3.80,-9.70,9.70,9.10,4.96,5.90,5.89,5.89
21.23,-3.80,-9.68,-3.78,-9.66,9.66,9.19,5.09,5.86,5.88,5.88
21.44,-3.80,-9.69,-3.75,-9.63,9.63,9.26,5.23,5.83,5.88,5.89
21.66,-3.79,-9.67,-3.73,-9.60,9.60,9.34,5.37,5.81,5.87,5.88
21.87,-3.79,-9.66,-3.71,-9.58,9.58,9.40,5.51,5.79,5.87,5.87
22.09,-3.76,-9.62,-3.70,-9.56,9.56,9.47,5.65,5.80,5.86,5.86
22.31,-3.68,-9.54,-3.68,-9.54,9.54,9.53,5.80,5.86,5.85,5.86
22.54,-3.60,-9.45,-3.69,-9.54,9.54,9.58,5.96,5.94,5.85,5.85
22.76,-3.52,-9.36,-3.69,-9.54,9.54,9.63,6.12,6.02,5.85,5.84
22.99,-3.44,-9.27,-3.70,-9.54,9.54,9.68,6.28,6.10,5.84,5.83
23.22,-3.56,-9.38,-3.70,-9.54,9.54,9.72,6.44,5.98,5.84,5.82
23.45,-3.68,-9.51,-3.70,-9.54,9.54,9.75,6.61,5.86,5.83,5.83
23.69,-3.81,-9.63,-3.70,-9.53,9.53,9.78,6.78,5.72,5.83,5.82
23.92,-3.93,-9.75,-3.69,-9.52,9.52,9.80,6.96,5.59,5.83,5.82
24.16,-3.91,-9.74,-3.68,-9.51,9.51,9.82,7.14,5.60,5.83,5.83
24.40,-3.81,-9.65,-3.66,-9.50,9.50,9.83,7.33,5.69,5.83,5.84
24.65,-3.72,-9.56,-3.65,-9.48,9.48,9.84,7.51,5.76,5.83,5.84
24.89,-3.63,-9.47,-3.63,-9.47,9.47,9.84,7.70,5.84,5.83,5.84
25.14,-3.57,-9.40,-3.61,-9.45,9.45,9.84,7.90,5.88,5.84,5.83
25.39,-3.53,-9.36,-3.61,-9.45,9.45,9.83,8.09,5.92,5.84,5.83
25.65,-3.50,-9.33,-3.61,-9.45,9.45,9.81,8.29,5.96,5.84,5.83
25.91,-3.46,-9.30,-3.61,-9.45,9.45,9.80,8.49,5.99,5.84,5.84
26.16,-3.46,-9.31,-3.60,-9.44,9.44,9.77,8.69,5.98,5.85,5.85
26.43,-3.47,-9.32,-3.58,-9.42,9.42,9.75,8.89,5.95,5.85,5.85
26.69,-3.48,-9.33,-3.55,-9.40,9.40,9.72,9.08,5.92,5.85,5.85
26.96,-3.49,-9.33,-3.53,-9.38,9.38,9.68,9.28,5.89,5.85,5.84
27.23,-3.58,-9.42,-3.52,-9.37,9.37,9.64,9.48,5.79,5.85,5.84
27.50,-3.69,-9.53,-3.51,-9.35,9.35,9.60,9.67,5.66,5.85,5.84
27.77,-3.80,-9.65,-3.49,-9.33,9.33,9.56,9.86,5.54,5.85,5.85
28.05,-3.84,-9.69,-3.46,-9.31,9.31,9.51,10.04,5.47,5.85,5.85
28.33,-3.59,-9.42,-3.43,-9.27,9.27,9.46,10.21,5.69,5.85,5.83
28.62,-3.34,-9.18,-3.39,-9.24,9.24,9.41,10.37,5.89,5.84,5.83
28.90,-3.10,-8.94,-3.37,-9.21,9.21,9.36,10.53,6.11,5.84,5.84
29.19,-3.06,-8.90,-3.36,-9.20,9.20,9.31,10.67,6.14,5.84,5.84
29.48,-3.15,-8.98,-3.36,-9.19,9.19,9.25,10.79,6.04,5.84,5.83
29.78,-3.23,-9.06,-3.35,-9.18,9.18,9.20,10.91,5.95,5.83,5.83
30.08,-3.29,-9.13,-3.34,-9.17,9.17,9.14,11.00,5.88,5.83,5.84
30.38,-3.29,-9.12,-3.32,-9.14,9.14,9.09,11.08,5.85,5.82,5.83
30.68,-3.29,-9.10,-3.30,-9.12,9.12,9.03,11.14,5.83,5.82,5.81
30.99,-3.29,-9.10,-3.30,-9.11,9.11,8.97,11.18,5.82,5.81,5.81
31.30,-3.41,-9.21,-3.30,-9.11,9.11,8.92,11.20,5.70,5.80,5.80
31.61,-3.54,-9.33,-3.32,-9.12,9.12,8.86,11.21,5.58,5.80,5.79
31.93,-3.66,-9.44,-3.33,-9.12,9.12,8.81,11.19,5.47,5.79,5.78
32.24,-3.53,-9.31,-3.33,-9.11,9.11,8.75,11.16,5.59,5.78,5.78
32.57,-3.33,-9.09,-3.30,-9.08,9.08,8.70,11.10,5.75,5.78,5.76
32.89,-3.13,-8.89,-3.26,-9.03,9.03,8.65,11.04,5.90,5.77,5.76
33.22,-3.07,-8.83,-3.21,-8.98,8.98,8.60,10.95,5.91,5.76,5.76
33.55,-3.08,-8.83,-3.19,-8.95,8.95,8.55,10.86,5.87,5.76,5.75
33.89,-3.09,-8.85,-3.18,-8.93,8.93,8.51,10.75,5.85,5.75,5.76
34.23,-3.09,-8.83,-3.17,-8.92,8.92,8.46,10.63,5.83,5.75,5.74
34.57,-3.09,-8.83,-3.16,-8.91,8.91,8.42,10.50,5.82,5.75,5.74
34.92,-3.09,-8.82,-3.15,-8.89,8.89,8.38,10.37,5.80,5.74,5.73
35.27,-3.09,-8.83,-3.14,-8.87,8.87,8.34,10.23,5.78,5.73,5.74
35.62,-3.09,-8.81,-3.13,-8.86,8.86,8.30,10.09,5.77,5.72,5.72
35.97,-3.09,-8.81,-3.14,-8.86,8.86,8.27,9.94,5.77,5.71,5.72
36.33,-3.22,-8.92,-3.15,-8.85,8.85,8.24,9.79,5.63,5.70,5.70
36.70,-3.37,-9.06,-3.15,-8.84,8.84,8.21,9.64,5.47,5.68,5.69
37.06,-3.46,-9.13,-3.14,-8.80,8.80,8.18,9.49,5.35,5.67,5.67
37.43,-3.27,-8.92,-3.12,-8.76,8.76,8.16,9.34,5.50,5.65,5.65
37.81,-3.08,-8.71,-3.09,-8.71,8.71,8.14,9.20,5.64,5.63,5.63
38.19,-2.97,-8.57,-3.05,-8.65,8.65,8.12,9.05,5.69,5.60,5.60
38.57,-2.92,-8.50,-3.01,-8.59,8.59,8.10,8.91,5.67,5.58,5.58
38.95,-2.88,-8.43,-2.99,-8.54,8.54,8.09,8.77,5.66,5.55,5.55
39.34,-2.88,-8.39,-2.98,-8.50,8.50,8.07,8.64,5.63,5.53,5.51
39.74,-2.88,-8.37,-2.97,-8.47,8.47,8.06,8.51,5.59,5.50,5.49
40.14,-2.89,-8.35,-2.95,-8.42,8.42,8.06,8.39,5.53,5.47,5.46
40.54,-2.89,-8.33,-2.93,-8.37,8.37,8.05,8.27,5.49,5.44,5.44
40.94,-2.89,-8.30,-2.92,-8.33,8.33,8.05,8.15,5.45,5.42,5.41
41.35,-2.89,-8.28,-2.92,-8.31,8.31,8.05,8.04,5.42,5.39,5.39
41.76,-2.89,-8.24,-2.93,-8.30,8.30,8.05,7.94,5.41,5.36,5.35
42.18,-2.96,-8.29,-2.94,-8.28,8.28,8.05,7.84,5.32,5.34,5.33
42.60,-3.13,-8.44,-2.94,-8.25,8.25,8.05,7.74,5.12,5.31,5.31
43.03,-3.27,-8.55,-2.94,-8.22,8.22,8.06,7.65,4.95,5.28,5.28
43.46,-3.06,-8.31,-2.93,-8.19,8.19,8.06,7.57,5.13,5.26,5.25
43.90,-2.84,-8.07,-2.92,-8.15,8.15,8.07,7.49,5.31,5.23,5.23
44.33,-2.79,-7.98,-2.91,-8.11,8.11,8.07,7.42,5.32,5.20,5.19
44.78,-2.79,-7.95,-2.90,-8.07,8.07,8.08,7.35,5.28,5.17,5.16
45.23,-2.79,-7.94,-2.88,-8.01,8.01,8.09,7.29,5.22,5.14,5.15
45.68,-2.79,-7.89,-2.85,-7.95,7.95,8.09,7.23,5.16,5.10,5.10
46.13,-2.79,-7.85,-2.82,-7.89,7.89,8.09,7.18,5.10,5.07,5.06
46.60,-2.79,-7.82,-2.79,-7.81,7.81,8.09,7.13,5.03,5.03,5.03
47.06,-2.79,-7.78,-2.75,-7.74,7.74,8.09,7.09,4.95,4.99,4.99
47.53,-2.79,-7.75,-2.71,-7.66,7.66,8.09,7.05,4.87,4.94,4.96
48.01,-2.79,-7.69,-2.69,-7.60,7.60,8.08,7.01,4.81,4.90,4.90
48.49,-2.74,-7.59,-2.69,-7.55,7.55,8.07,6.99,4.81,4.86,4.85
48.97,-2.69,-7.50,-2.69,-7.50,7.50,8.06,6.96,4.81,4.81,4.81
49.46,-2.64,-7.41,-2.67,-7.44,7.44,8.04,6.94,4.80,4.77,4.77
49.96,-2.59,-7.29,-2.65,-7.37,7.37,8.02,6.92,4.79,4.72,4.70
50.46,-2.59,-7.25,-2.63,-7.30,7.30,7.99,6.91,4.71,4.68,4.66
50.96,-2.59,-7.21,-2.60,-7.23,7.23,7.96,6.90,4.64,4.63,4.62
51.47,-2.59,-7.17,-2.58,-7.17,7.17,7.92,6.89,4.58,4.58,4.58
51.99,-2.59,-7.12,-2.59,-7.13,7.13,7.88,6.88,4.54,4.54,4.53
52.51,-2.59,-7.08,-2.60,-7.09,7.09,7.83,6.88,4.50,4.49,4.49
53.03,-2.59,-7.05,-2.61,-7.05,7.05,7.78,6.87,4.46,4.44,4.46
53.56,-2.59,-6.99,-2.61,-7.01,7.01,7.72,6.87,4.42,4.40,4.40
54.10,-2.59,-6.94,-2.62,-6.97,6.97,7.66,6.87,4.38,4.35,4.35
54.64,-2.59,-6.90,-2.62,-6.93,6.93,7.59,6.87,4.35,4.31,4.31
55.18,-2.59,-6.84,-2.63,-6.89,6.89,7.51,6.87,4.31,4.27,4.25
55.74,-2.59,-6.79,-2.62,-6.85,6.85,7.43,6.87,4.26,4.23,4.20
56.29,-2.70,-6.87,-2.62,-6.80,6.80,7.35,6.86,4.10,4.18,4.17
56.86,-2.91,-7.04,-2.61,-6.75,6.75,7.26,6.85,3.84,4.14,4.13
57.42,-2.76,-6.83,-2.60,-6.69,6.69,7.17,6.85,3.93,4.09,4.07
58.00,-2.48,-6.52,-2.57,-6.62,6.62,7.07,6.83,4.14,4.05,4.04
58.58,-2.48,-6.49,-2.55,-6.55,6.55,6.97,6.82,4.07,4.00,4.01
59.16,-2.48,-6.45,-2.55,-6.50,6.50,6.87,6.80,4.03,3.95,3.97
59.76,-2.48,-6.41,-2.55,-6.45,6.45,6.77,6.77,3.97,3.90,3.93
60.35,-2.48,-6.34,-2.54,-6.39,6.39,6.66,6.74,3.92,3.85,3.86
60.96,-2.48,-6.29,-2.53,-6.33,6.33,6.56,6.71,3.85,3.80,3.81
61.57,-2.48,-6.22,-2.52,-6.26,6.26,6.45,6.66,3.78,3.74,3.74
62.18,-2.48,-6.15,-2.50,-6.19,6.19,6.34,6.62,3.71,3.69,3.67
62.80,-2.48,-6.09,-2.49,-6.12,6.12,6.23,6.56,3.64,3.63,3.61
63.43,-2.48,-6.03,-2.49,-6.06,6.06,6.13,6.51,3.58,3.57,3.55
64.07,-2.50,-6.00,-2.51,-6.02,6.02,6.02,6.44,3.52,3.51,3.50
64.71,-2.74,-6.18,-2.50,-5.95,5.95,5.91,6.37,3.22,3.45,3.44
65.35,-2.68,-6.06,-2.46,-5.85,5.85,5.80,6.29,3.17,3.39,3.38
66.01,-2.38,-5.70,-2.43,-5.76,5.76,5.70,6.21,3.38,3.33,3.32
66.67,-2.38,-5.66,-2.41,-5.68,5.68,5.60,6.12,3.30,3.27,3.28
67.33,-2.38,-5.58,-2.41,-5.61,5.61,5.49,6.03,3.24,3.21,3.20
68.01,-2.38,-5.53,-2.40,-5.55,5.55,5.39,5.94,3.17,3.15,3.15
68.69,-2.38,-5.46,-2.39,-5.47,5.47,5.30,5.84,3.10,3.08,3.08
69.37,-2.38,-5.41,-2.38,-5.40,5.40,5.20,5.73,3.02,3.02,3.03
70.07,-2.35,-5.31,-2.36,-5.32,5.32,5.11,5.62,2.97,2.96,2.96
70.77,-2.03,-4.93,-2.34,-5.23,5.23,5.02,5.52,3.20,2.89,2.90
71.48,-2.05,-4.88,-2.32,-5.15,5.15,4.93,5.40,3.10,2.83,2.83
72.19,-2.28,-5.04,-2.29,-5.06,5.06,4.84,5.29,2.78,2.77,2.76
72.91,-2.61,-5.31,-2.29,-4.99,4.99,4.76,5.18,2.38,2.70,2.70
73.64,-2.65,-5.28,-2.28,-4.92,4.92,4.68,5.06,2.27,2.64,2.63
74.38,-2.47,-5.04,-2.28,-4.86,4.86,4.60,4.95,2.39,2.58,2.57
75.12,-2.18,-4.68,-2.28,-4.80,4.80,4.53,4.83,2.62,2.52,2.50
75.87,-2.18,-4.64,-2.28,-4.74,4.74,4.46,4.72,2.56,2.46,2.46
76.63,-2.18,-4.57,-2.28,-4.68,4.68,4.39,4.60,2.50,2.40,2.39
77.40,-2.18,-4.52,-2.27,-4.62,4.62,4.32,4.49,2.44,2.35,2.34
78.17,-2.18,-4.46,-2.27,-4.56,4.56,4.26,4.38,2.38,2.29,2.28
78.95,-2.18,-4.42,-2.26,-4.50,4.50,4.19,4.27,2.32,2.23,2.24
79.74,-2.18,-4.36,-2.23,-4.41,4.41,4.13,4.16,2.23,2.18,2.18
80.54,-2.21,-4.33,-2.18,-4.31,4.31,4.08,4.05,2.10,2.12,2.12
81.35,-2.34,-4.41,-2.14,-4.21,4.21,4.02,3.95,1.87,2.07,2.07
82.16,-2.46,-4.48,-2.14,-4.15,4.15,3.97,3.84,1.69,2.01,2.02
82.98,-2.11,-4.07,-2.16,-4.12,4.12,3.91,3.74,2.01,1.96,1.96
83.81,-2.08,-3.98,-2.17,-4.07,4.07,3.86,3.64,2.00,1.90,1.90
84.65,-2.08,-3.92,-2.17,-4.01,4.01,3.81,3.54,1.93,1.84,1.84
85.50,-2.08,-3.85,-2.16,-3.94,3.94,3.76,3.45,1.87,1.78,1.77
86.35,-2.08,-3.79,-2.15,-3.87,3.87,3.72,3.36,1.79,1.72,1.71
87.22,-2.08,-3.74,-2.14,-3.80,3.80,3.67,3.27,1.72,1.66,1.66
88.09,-2.08,-3.67,-2.12,-3.72,3.72,3.62,3.18,1.64,1.60,1.59
88.97,-2.08,-3.62,-2.10,-3.63,3.63,3.57,3.09,1.56,1.54,1.54
89.86,-2.15,-3.61,-2.07,-3.54,3.54,3.52,3.01,1.39,1.47,1.46
90.76,-2.34,-3.74,-2.04,-3.45,3.45,3.47,2.93,1.11,1.40,1.40
91.66,-2.17,-3.50,-2.04,-3.38,3.38,3.42,2.85,1.21,1.34,1.33
92.58,-2.01,-3.28,-2.06,-3.33,3.33,3.37,2.77,1.32,1.27,1.27
93.51,-1.97,-3.17,-2.07,-3.26,3.26,3.32,2.70,1.29,1.19,1.20
94.44,-1.97,-3.10,-2.06,-3.18,3.18,3.26,2.62,1.21,1.12,1.13
95.39,-1.98,-3.03,-2.06,-3.10,3.10,3.20,2.55,1.13,1.04,1.05
96.34,-1.98,-2.95,-2.05,-3.02,3.02,3.14,2.48,1.04,0.97,0.97
97.30,-1.98,-2.87,-2.05,-2.93,2.93,3.08,2.42,0.95,0.89,0.89
98.28,-1.99,-2.79,-2.03,-2.84,2.84,3.02,2.35,0.85,0.81,0.80
99.26,-2.03,-2.74,-2.02,-2.74,2.74,2.95,2.29,0.71,0.73,0.71
100.25,-2.18,-2.81,-2.01,-2.66,2.66,2.88,2.23,0.48,0.65,0.63
101.25,-2.28,-2.84,-2.03,-2.59,2.59,2.81,2.17,0.32,0.56,0.56
102.27,-2.08,-2.55,-2.06,-2.54,2.54,2.74,2.11,0.46,0.48,0.47
103.29,-2.02,-2.41,-2.09,-2.48,2.48,2.66,2.05,0.47,0.40,0.39
104.32,-1.99,-2.31,-2.10,-2.42,2.42,2.58,2.00,0.43,0.31,0.32
105.37,-2.01,-2.25,-2.11,-2.35,2.35,2.50,1.94,0.34,0.23,0.24
106.42,-2.04,-2.19,-2.12,-2.27,2.27,2.42,1.89,0.23,0.15,0.15
107.48,-2.06,-2.12,-2.12,-2.19,2.19,2.34,1.84,0.13,0.07,0.06
108.56,-2.09,-2.09,-2.11,-2.10,2.10,2.25,1.78,0.01,-0.01,0.00
109.64,-2.20,-2.11,-2.11,-2.03,2.03,2.16,1.73,-0.17,-0.08,-0.09
110.74,-2.37,-2.20,-2.12,-1.96,1.96,2.08,1.68,-0.41,-0.16,-0.17
111.85,-2.22,-1.98,-2.12,-1.88,1.88,1.99,1.63,-0.34,-0.24,-0.24
112.97,-2.05,-1.74,-2.12,-1.81,1.81,1.90,1.58,-0.24,-0.31,-0.31
114.10,-2.06,-1.68,-2.14,-1.75,1.75,1.81,1.53,-0.31,-0.38,-0.38
115.24,-2.06,-1.60,-2.14,-1.68,1.68,1.72,1.49,-0.38,-0.46,-0.46
116.39,-2.06,-1.52,-2.13,-1.60,1.60,1.63,1.44,-0.46,-0.53,-0.54
117.55,-2.05,-1.45,-2.11,-1.51,1.51,1.53,1.39,-0.54,-0.59,-0.60
118.73,-2.05,-1.37,-2.07,-1.41,1.41,1.44,1.34,-0.63,-0.66,-0.68
119.92,-2.16,-1.42,-2.04,-1.32,1.32,1.35,1.29,-0.84,-0.73,-0.74
121.12,-2.28,-1.49,-2.03,-1.24,1.24,1.26,1.24,-1.04,-0.79,-0.79
122.33,-2.05,-1.19,-2.01,-1.16,1.16,1.17,1.19,-0.89,-0.85,-0.86
123.55,-1.92,-1.01,-2.00,-1.08,1.08,1.09,1.14,-0.84,-0.92,-0.91
124.79,-1.91,-0.94,-2.00,-1.02,1.02,1.00,1.09,-0.89,-0.98,-0.97
126.03,-1.90,-0.86,-1.99,-0.95,0.95,0.91,1.04,-0.95,-1.04,-1.04
127.29,-1.90,-0.80,-1.97,-0.87,0.87,0.83,0.99,-1.03,-1.10,-1.10
128.57,-1.89,-0.73,-1.94,-0.78,0.78,0.74,0.94,-1.10,-1.16,-1.16
129.85,-1.89,-0.66,-1.91,-0.69,0.69,0.66,0.89,-1.20,-1.22,-1.23
131.15,-1.90,-0.61,-1.89,-0.61,0.61,0.58,0.83,-1.29,-1.28,-1.29
132.46,-2.06,-0.71,-1.87,-0.53,0.53,0.49,0.78,-1.52,-1.34,-1.35
133.79,-2.11,-0.70,-1.86,-0.46,0.46,0.41,0.73,-1.65,-1.40,-1.41
135.12,-1.77,-0.30,-1.85,-0.39,0.39,0.34,0.67,-1.38,-1.46,-1.47
136.48,-1.76,-0.25,-1.85,-0.33,0.33,0.26,0.62,-1.42,-1.52,-1.51
137.84,-1.76,-0.19,-1.85,-0.27,0.27,0.18,0.56,-1.49,-1.58,-1.57
139.22,-1.76,-0.11,-1.83,-0.19,0.19,0.10,0.50,-1.57,-1.64,-1.65
140.61,-1.76,-0.07,-1.81,-0.12,0.12,0.03,0.45,-1.64,-1.69,-1.69
142.02,-1.76,-0.01,-1.79,-0.04,0.04,-0.04,0.39,-1.72,-1.75,-1.75
143.44,-1.79,0.03,-1.76,0.05,-0.05,-0.12,0.33,-1.83,-1.81,-1.82
144.87,-1.93,-0.06,-1.75,0.11,-0.11,-0.19,0.27,-2.04,-1.86,-1.87
146.32,-1.84,0.08,-1.74,0.18,-0.18,-0.26,0.21,-2.02,-1.92,-1.92
147.78,-1.69,0.29,-1.72,0.26,-0.26,-0.33,0.15,-1.95,-1.97,-1.98
149.26,-1.66,0.37,-1.71,0.32,-0.32,-0.39,0.09,-1.98,-2.03,-2.03
150.75,-1.66,0.44,-1.71,0.37,-0.37,-0.46,0.03,-2.03,-2.09,-2.10
152.26,-1.66,0.48,-1.70,0.44,-0.44,-0.53,-0.04,-2.10,-2.14,-2.14
153.78,-1.66,0.54,-1.68,0.51,-0.51,-0.59,-0.10,-2.17,-2.20,-2.20
155.32,-1.66,0.59,-1.67,0.59,-0.59,-0.66,-0.16,-2.25,-2.25,-2.25
156.88,-1.65,0.66,-1.65,0.67,-0.67,-0.72,-0.23,-2.31,-2.31,-2.31
158.44,-1.76,0.61,-1.65,0.73,-0.73,-0.78,-0.29,-2.49,-2.37,-2.37
160.03,-1.79,0.64,-1.65,0.78,-0.78,-0.84,-0.36,-2.57,-2.43,-2.43
161.63,-1.47,1.02,-1.65,0.84,-0.84,-0.91,-0.43,-2.31,-2.49,-2.49
163.24,-1.56,1.00,-1.67,0.89,-0.89,-0.97,-0.49,-2.44,-2.55,-2.56
164.88,-1.66,0.95,-1.68,0.93,-0.93,-1.02,-0.56,-2.59,-2.61,-2.61
166.53,-1.67,1.01,-1.68,0.99,-0.99,-1.08,-0.63,-2.66,-2.67,-2.68
168.19,-1.67,1.06,-1.68,1.05,-1.05,-1.14,-0.70,-2.71,-2.73,-2.73
169.87,-1.68,1.11,-1.68,1.11,-1.11,-1.20,-0.77,-2.79,-2.79,-2.79
171.57,-1.69,1.17,-1.67,1.18,-1.18,-1.25,-0.84,-2.87,-2.85,-2.86
173.29,-1.79,1.13,-1.67,1.24,-1.24,-1.31,-0.92,-3.03,-2.91,-2.92
175.02,-1.86,1.11,-1.67,1.30,-1.30,-1.36,-0.99,-3.15,-2.97,-2.97
176.77,-1.67,1.35,-1.67,1.35,-1.35,-1.42,-1.06,-3.02,-3.02,-3.02
178.54,-1.61,1.47,-1.67,1.40,-1.40,-1.47,-1.14,-3.01,-3.07,-3.08
180.32,-1.60,1.54,-1.67,1.45,-1.45,-1.52,-1.22,-3.05,-3.12,-3.14
182.13,-1.59,1.59,-1.65,1.53,-1.53,-1.58,-1.29,-3.12,-3.18,-3.18
183.95,-1.58,1.65,-1.62,1.60,-1.60,-1.63,-1.37,-3.18,-3.23,-3.23
185.79,-1.57,1.71,-1.59,1.68,-1.68,-1.68,-1.45,-3.25,-3.27,-3.28
187.65,-1.55,1.77,-1.56,1.76,-1.76,-1.73,-1.53,-3.31,-3.32,-3.32
189.52,-1.59,1.78,-1.54,1.83,-1.83,-1.78,-1.61,-3.42,-3.37,-3.37
191.42,-1.64,1.76,-1.51,1.90,-1.90,-1.83,-1.69,-3.54,-3.41,-3.40
193.33,-1.59,1.86,-1.49,1.96,-1.96,-1.88,-1.77,-3.55,-3.45,-3.45
195.27,-1.45,2.05,-1.47,2.02,-2.02,-1.92,-1.86,-3.47,-3.50,-3.50
197.22,-1.38,2.17,-1.46,2.07,-2.07,-1.97,-1.94,-3.45,-3.54,-3.55
199.19,-1.37,2.21,-1.44,2.14,-2.14,-2.02,-2.02,-3.51,-3.58,-3.58
201.18,-1.36,2.27,-1.41,2.21,-2.21,-2.06,-2.11,-3.57,-3.62,-3.63
203.19,-1.36,2.30,-1.38,2.27,-2.27,-2.11,-2.19,-3.63,-3.66,-3.66
205.23,-1.36,2.34,-1.36,2.34,-2.34,-2.15,-2.27,-3.69,-3.70,-3.70
207.28,-1.39,2.34,-1.35,2.39,-2.39,-2.20,-2.36,-3.78,-3.74,-3.73
209.35,-1.46,2.31,-1.33,2.45,-2.45,-2.24,-2.44,-3.91,-3.78,-3.77
211.44,-1.37,2.45,-1.31,2.50,-2.50,-2.28,-2.52,-3.87,-3.82,-3.82
213.56,-1.28,2.57,-1.32,2.54,-2.54,-2.33,-2.60,-3.82,-3.85,-3.85
215.69,-1.27,2.62,-1.33,2.56,-2.56,-2.37,-2.68,-3.83,-3.89,-3.89
217.85,-1.19,2.73,-1.34,2.58,-2.58,-2.41,-2.76,-3.77,-3.92,-3.92
220.03,-1.27,2.70,-1.35,2.61,-2.61,-2.45,-2.84,-3.87,-3.95,-3.97
222.23,-1.35,2.64,-1.35,2.64,-2.64,-2.49,-2.91,-3.98,-3.98,-3.99
224.45,-1.38,2.64,-1.35,2.67,-2.67,-2.53,-2.98,-4.04,-4.01,-4.02
226.70,-1.38,2.67,-1.34,2.70,-2.70,-2.56,-3.05,-4.08,-4.04,-4.05
228.96,-1.37,2.70,-1.33,2.73,-2.73,-2.60,-3.11,-4.10,-4.06,-4.07
231.25,-1.37,2.71,-1.32,2.76,-2.76,-2.64,-3.17,-4.13,-4.08,-4.08
233.57,-1.41,2.70,-1.31,2.79,-2.79,-2.67,-3.23,-4.19,-4.10,-4.11
235.90,-1.43,2.69,-1.30,2.81,-2.81,-2.71,-3.28,-4.24,-4.11,-4.12
238.26,-1.28,2.86,-1.28,2.84,-2.84,-2.74,-3.33,-4.12,-4.12,-4.14
240.64,-1.21,2.92,-1.26,2.87,-2.87,-2.78,-3.37,-4.08,-4.13,-4.13
243.05,-1.20,2.94,-1.24,2.90,-2.90,-2.81,-3.41,-4.10,-4.14,-4.14
245.48,-1.18,2.98,-1.21,2.94,-2.94,-2.84,-3.44,-4.12,-4.15,-4.16
247.93,-1.15,3.02,-1.18,2.98,-2.98,-2.87,-3.47,-4.13,-4.16,-4.17
250.41,-1.13,3.03,-1.16,3.01,-3.01,-2.90,-3.50,-4.14,-4.17,-4.16
252.92,-1.12,3.04,-1.14,3.03,-3.03,-2.93,-3.51,-4.15,-4.17,-4.16
255.45,-1.10,3.08,-1.12,3.06,-3.06,-2.96,-3.52,-4.16,-4.18,-4.18
258.00,-1.08,3.11,-1.11,3.08,-3.08,-2.99,-3.53,-4.16,-4.19,-4.19
260.58,-1.05,3.15,-1.10,3.10,-3.10,-3.02,-3.53,-4.15,-4.20,-4.20
263.19,-1.14,3.07,-1.10,3.12,-3.12,-3.04,-3.53,-4.26,-4.21,-4.21
265.82,-1.18,3.05,-1.10,3.12,-3.12,-3.07,-3.52,-4.30,-4.23,-4.23
268.48,-1.11,3.12,-1.10,3.14,-3.14,-3.09,-3.51,-4.24,-4.24,-4.23
271.16,-1.10,3.15,-1.10,3.15,-3.15,-3.12,-3.49,-4.25,-4.25,-4.25
273.87,-1.10,3.16,-1.10,3.16,-3.16,-3.14,-3.47,-4.26,-4.26,-4.26
276.61,-1.10,3.18,-1.10,3.17,-3.17,-3.16,-3.45,-4.27,-4.27,-4.28
279.38,-1.10,3.21,-1.10,3.19,-3.19,-3.18,-3.43,-4.29,-4.28,-4.31
282.17,-1.10,3.21,-1.09,3.20,-3.20,-3.20,-3.40,-4.30,-4.29,-4.31
284.99,-1.09,3.22,-1.09,3.22,-3.22,-3.22,-3.37,-4.30,-4.30,-4.31
287.84,-1.08,3.23,-1.08,3.23,-3.23,-3.24,-3.34,-4.31,-4.31,-4.31
290.72,-1.07,3.26,-1.07,3.25,-3.25,-3.26,-3.30,-4.32,-4.31,-4.33
293.63,-1.06,3.26,-1.05,3.27,-3.27,-3.27,-3.27,-4.33,-4.32,-4.32
296.57,-1.06,3.26,-1.04,3.28,-3.28,-3.29,-3.24,-4.34,-4.32,-4.32
299.53,-1.04,3.29,-1.04,3.29,-3.29,-3.30,-3.20,-4.33,-4.33,-4.33
302.53,-1.01,3.31,-1.03,3.30,-3.30,-3.32,-3.17,-4.31,-4.33,-4.32
305.55,-1.01,3.32,-1.01,3.32,-3.32,-3.33,-3.13,-4.32,-4.33,-4.33
308.61,-1.01,3.31,-1.00,3.33,-3.33,-3.34,-3.10,-4.34,-4.33,-4.32
311.69,-1.00,3.34,-1.00,3.34,-3.34,-3.35,-3.07,-4.33,-4.33,-4.34
314.81,-1.00,3.33,-0.99,3.34,-3.34,-3.36,-3.03,-4.34,-4.33,-4.33
317.96,-0.99,3.36,-1.00,3.34,-3.34,-3.37,-3.00,-4.33,-4.34,-4.35
321.14,-0.99,3.35,-1.00,3.34,-3.34,-3.38,-2.97,-4.33,-4.34,-4.34
324.35,-0.99,3.36,-1.01,3.33,-3.33,-3.38,-2.94,-4.32,-4.34,-4.35
327.59,-0.99,3.35,-1.01,3.33,-3.33,-3.39,-2.92,-4.32,-4.34,-4.34
330.87,-1.00,3.35,-1.02,3.33,-3.33,-3.39,-2.89,-4.33,-4.35,-4.35
334.18,-1.00,3.36,-1.02,3.32,-3.32,-3.39,-2.87,-4.32,-4.35,-4.36
337.52,-1.03,3.32,-1.03,3.32,-3.32,-3.40,-2.85,-4.34,-4.35,-4.35
340.90,-1.08,3.28,-1.04,3.31,-3.31,-3.40,-2.83,-4.39,-4.35,-4.36
344.30,-1.10,3.25,-1.05,3.30,-3.30,-3.40,-2.82,-4.40,-4.35,-4.35
347.75,-1.10,3.24,-1.05,3.29,-3.29,-3.40,-2.80,-4.39,-4.34,-4.34
351.23,-1.10,3.26,-1.06,3.28,-3.28,-3.40,-2.79,-4.38,-4.34,-4.36
354.74,-1.06,3.28,-1.06,3.27,-3.27,-3.39,-2.78,-4.33,-4.34,-4.34
358.28,-1.00,3.34,-1.06,3.27,-3.27,-3.39,-2.77,-4.27,-4.33,-4.34
361.87,-1.03,3.31,-1.06,3.27,-3.27,-3.39,-2.77,-4.30,-4.33,-4.34
365.49,-1.07,3.26,-1.06,3.27,-3.27,-3.38,-2.76,-4.34,-4.33,-4.33
369.14,-1.07,3.25,-1.05,3.27,-3.27,-3.38,-2.76,-4.34,-4.32,-4.32
372.83,-1.07,3.24,-1.05,3.27,-3.27,-3.37,-2.76,-4.33,-4.32,-4.31
376.56,-1.06,3.26,-1.05,3.26,-3.26,-3.36,-2.77,-4.32,-4.32,-4.32
380.33,-1.05,3.27,-1.05,3.27,-3.27,-3.35,-2.77,-4.31,-4.32,-4.32
384.13,-1.05,3.26,-1.05,3.26,-3.26,-3.34,-2.78,-4.31,-4.32,-4.31
387.97,-1.04,3.27,-1.06,3.26,-3.26,-3.33,-2.79,-4.30,-4.32,-4.31
391.85,-1.04,3.28,-1.07,3.25,-3.25,-3.32,-2.80,-4.29,-4.32,-4.32
395.77,-1.05,3.28,-1.09,3.24,-3.24,-3.31,-2.81,-4.28,-4.33,-4.33
399.73,-1.11,3.22,-1.11,3.22,-3.22,-3.30,-2.82,-4.33,-4.33,-4.33
403.72,-1.14,3.18,-1.12,3.21,-3.21,-3.29,-2.84,-4.35,-4.34,-4.32
407.76,-1.14,3.20,-1.14,3.21,-3.21,-3.27,-2.86,-4.34,-4.34,-4.34
411.84,-1.15,3.20,-1.15,3.20,-3.20,-3.26,-2.87,-4.35,-4.34,-4.35
415.96,-1.15,3.20,-1.16,3.19,-3.19,-3.24,-2.89,-4.34,-4.35,-4.35
420.12,-1.15,3.21,-1.17,3.17,-3.17,-3.23,-2.91,-4.32,-4.34,-4.36
424.32,-1.20,3.15,-1.18,3.16,-3.16,-3.21,-2.93,-4.36,-4.33,-4.35
428.56,-1.22,3.11,-1.18,3.14,-3.14,-3.19,-2.95,-4.36,-4.32,-4.33
432.85,-1.22,3.09,-1.17,3.13,-3.13,-3.18,-2.97,-4.35,-4.30,-4.31
437.18,-1.19,3.11,-1.16,3.12,-3.12,-3.16,-2.99,-4.31,-4.28,-4.30
441.55,-1.15,3.12,-1.13,3.11,-3.11,-3.14,-3.01,-4.26,-4.24,-4.27
445.96,-1.11,3.12,-1.10,3.10,-3.10,-3.12,-3.03,-4.21,-4.21,-4.23
450.42,-1.06,3.13,-1.08,3.09,-3.09,-3.10,-3.05,-4.15,-4.17,-4.19
454.93,-1.05,3.09,-1.05,3.07,-3.07,-3.08,-3.06,-4.12,-4.12,-4.14
459.48,-1.05,3.03,-1.01,3.06,-3.06,-3.06,-3.08,-4.10,-4.07,-4.08
464.07,-0.98,3.03,-0.97,3.04,-3.04,-3.04,-3.09,-4.02,-4.01,-4.01
468.71,-0.93,3.03,-0.93,3.04,-3.04,-3.02,-3.10,-3.96,-3.96,-3.96
