frequency,raw,error,smoothed,error_smoothed,equalization,parametric_eq,fixed_band_eq,equalized_raw,equalized_smoothed,target
20.00,4.84,-3.61,5.03,-3.42,3.42,3.09,0.88,8.26,8.45,8.45
20.20,4.98,-3.46,5.10,-3.34,3.34,3.07,0.91,8.31,8.44,8.44
20.40,5.13,-3.30,5.18,-3.25,3.25,3.06,0.94,8.38,8.43,8.43
20.61,5.26,-3.16,5.25,-3.17,3.17,3.04,0.97,8.44,8.42,8.43
20.81,5.42,-2.99,5.32,-3.10,3.10,3.02,1.00,8.51,8.41,8.41
21.02,5.55,-2.86,5.38,-3.03,3.03,3.00,1.04,8.57,8.40,8.41
21.23,5.59,-2.81,5.44,-2.96,2.96,2.98,1.07,8.55,8.40,8.40
21.44,5.64,-2.77,5.49,-2.90,2.90,2.95,1.11,8.54,8.39,8.41
21.66,5.67,-2.72,5.54,-2.84,2.84,2.93,1.14,8.52,8.38,8.40
21.87,5.72,-2.67,5.59,-2.79,2.79,2.91,1.18,8.51,8.38,8.39
22.09,5.71,-2.66,5.63,-2.74,2.74,2.88,1.22,8.46,8.37,8.38
22.31,5.67,-2.70,5.67,-2.70,2.70,2.86,1.26,8.38,8.37,8.38
22.54,5.63,-2.74,5.67,-2.69,2.69,2.83,1.30,8.32,8.36,8.37
22.76,5.58,-2.77,5.67,-2.69,2.69,2.81,1.35,8.27,8.36,8.36
22.99,5.54,-2.81,5.68,-2.68,2.68,2.78,1.39,8.21,8.35,8.35
23.22,5.60,-2.74,5.68,-2.67,2.67,2.75,1.43,8.27,8.35,8.34
23.45,5.66,-2.69,5.70,-2.65,2.65,2.72,1.48,8.30,8.35,8.35
23.69,5.71,-2.62,5.73,-2.61,2.61,2.69,1.53,8.33,8.35,8.34
23.92,5.78,-2.56,5.78,-2.57,2.57,2.66,1.57,8.34,8.34,8.34
24.16,5.83,-2.52,5.83,-2.52,2.52,2.63,1.62,8.34,8.34,8.35
24.40,5.88,-2.48,5.88,-2.47,2.47,2.60,1.67,8.34,8.35,8.36
24.65,5.92,-2.43,5.93,-2.41,2.41,2.57,1.72,8.34,8.35,8.36
24.89,5.98,-2.38,5.99,-2.36,2.36,2.54,1.77,8.34,8.35,8.36
25.14,6.05,-2.30,6.04,-2.31,2.31,2.50,1.82,8.36,8.35,8.35
25.39,6.14,-2.21,6.10,-2.26,2.26,2.47,1.87,8.39,8.35,8.35
25.65,6.21,-2.13,6.16,-2.20,2.20,2.44,1.92,8.41,8.36,8.35
25.91,6.30,-2.05,6.21,-2.15,2.15,2.40,1.97,8.45,8.36,8.36
26.16,6.31,-2.05,6.25,-2.11,2.11,2.37,2.02,8.42,8.36,8.37
26.43,6.28,-2.09,6.28,-2.08,2.08,2.33,2.07,8.36,8.36,8.37
26.69,6.24,-2.13,6.29,-2.07,2.07,2.30,2.12,8.30,8.36,8.37
26.96,6.21,-2.15,6.31,-2.05,2.05,2.26,2.16,8.26,8.36,8.36
27.23,6.27,-2.08,6.33,-2.03,2.03,2.22,2.21,8.30,8.36,8.36
27.50,6.37,-1.98,6.35,-2.01,2.01,2.19,2.25,8.38,8.36,8.36
27.77,6.48,-1.89,6.38,-1.98,1.98,2.15,2.29,8.46,8.36,8.37
28.05,6.53,-1.83,6.40,-1.96,1.96,2.11,2.33,8.49,8.36,8.37
28.33,6.44,-1.90,6.42,-1.94,1.94,2.08,2.37,8.39,8.36,8.35
28.62,6.36,-1.99,6.43,-1.92,1.92,2.04,2.40,8.28,8.36,8.35
28.90,6.27,-2.09,6.46,-1.90,1.90,2.00,2.43,8.17,8.35,8.36
29.19,6.34,-2.02,6.48,-1.87,1.87,1.96,2.46,8.20,8.35,8.36
29.48,6.50,-1.85,6.52,-1.83,1.83,1.92,2.48,8.33,8.35,8.35
29.78,6.64,-1.70,6.55,-1.79,1.79,1.89,2.50,8.44,8.34,8.35
30.08,6.74,-1.61,6.58,-1.76,1.76,1.85,2.52,8.50,8.34,8.36
30.38,6.69,-1.66,6.61,-1.72,1.72,1.81,2.52,8.41,8.33,8.35
30.68,6.63,-1.70,6.63,-1.70,1.70,1.77,2.53,8.32,8.33,8.33
30.99,6.56,-1.77,6.65,-1.68,1.68,1.73,2.53,8.23,8.32,8.33
31.30,6.62,-1.69,6.66,-1.65,1.65,1.69,2.52,8.28,8.32,8.32
31.61,6.70,-1.61,6.69,-1.62,1.62,1.65,2.51,8.32,8.31,8.31
31.93,6.76,-1.53,6.71,-1.59,1.59,1.61,2.50,8.35,8.30,8.30
32.24,6.79,-1.51,6.74,-1.56,1.56,1.57,2.48,8.34,8.30,8.30
32.57,6.80,-1.48,6.75,-1.54,1.54,1.53,2.45,8.33,8.29,8.28
32.89,6.81,-1.47,6.76,-1.52,1.52,1.49,2.42,8.32,8.28,8.28
33.22,6.77,-1.51,6.78,-1.50,1.50,1.45,2.39,8.26,8.28,8.28
33.55,6.71,-1.55,6.81,-1.46,1.46,1.41,2.35,8.18,8.27,8.27
33.89,6.67,-1.61,6.85,-1.42,1.42,1.37,2.30,8.09,8.27,8.28
34.23,6.74,-1.51,6.88,-1.39,1.39,1.33,2.26,8.13,8.26,8.26
34.57,6.90,-1.36,6.90,-1.36,1.36,1.29,2.20,8.25,8.26,8.26
34.92,7.04,-1.20,6.91,-1.34,1.34,1.25,2.15,8.38,8.25,8.25
35.27,7.07,-1.19,6.92,-1.32,1.32,1.21,2.09,8.39,8.25,8.26
35.62,7.04,-1.20,6.94,-1.30,1.30,1.17,2.03,8.34,8.24,8.24
35.97,7.01,-1.23,6.95,-1.27,1.27,1.13,1.97,8.28,8.23,8.24
36.33,7.01,-1.21,6.98,-1.24,1.24,1.09,1.91,8.24,8.21,8.22
36.70,7.01,-1.20,7.01,-1.19,1.19,1.05,1.84,8.20,8.20,8.21
37.06,7.01,-1.18,7.04,-1.14,1.14,1.01,1.77,8.15,8.18,8.19
37.43,6.99,-1.18,7.06,-1.10,1.10,0.97,1.70,8.09,8.16,8.17
37.81,6.98,-1.17,7.08,-1.06,1.06,0.93,1.63,8.03,8.14,8.15
38.19,7.00,-1.12,7.09,-1.02,1.02,0.89,1.56,8.02,8.12,8.12
38.57,7.05,-1.05,7.10,-0.99,0.99,0.85,1.49,8.03,8.09,8.10
38.95,7.10,-0.97,7.11,-0.95,0.95,0.81,1.42,8.05,8.07,8.07
39.34,7.17,-0.86,7.12,-0.92,0.92,0.77,1.35,8.08,8.04,8.03
39.74,7.23,-0.77,7.13,-0.88,0.88,0.73,1.28,8.11,8.01,8.01
40.14,7.26,-0.71,7.15,-0.84,0.84,0.68,1.20,8.10,7.98,7.98
40.54,7.24,-0.72,7.16,-0.80,0.80,0.64,1.13,8.03,7.96,7.96
40.94,7.21,-0.72,7.18,-0.75,0.75,0.60,1.06,7.96,7.93,7.93
41.35,7.21,-0.70,7.19,-0.71,0.71,0.56,0.99,7.92,7.90,7.91
41.76,7.20,-0.66,7.20,-0.67,0.67,0.52,0.92,7.88,7.88,7.87
42.18,7.17,-0.67,7.21,-0.64,0.64,0.48,0.84,7.81,7.85,7.85
42.60,7.10,-0.72,7.22,-0.60,0.60,0.44,0.77,7.71,7.82,7.83
43.03,7.06,-0.74,7.22,-0.57,0.57,0.40,0.70,7.63,7.80,7.80
43.46,7.17,-0.60,7.22,-0.55,0.55,0.36,0.63,7.72,7.77,7.77
43.90,7.27,-0.47,7.21,-0.53,0.53,0.32,0.56,7.80,7.74,7.75
44.33,7.31,-0.40,7.22,-0.49,0.49,0.28,0.50,7.80,7.71,7.71
44.78,7.31,-0.37,7.24,-0.44,0.44,0.24,0.43,7.75,7.68,7.68
45.23,7.31,-0.36,7.26,-0.38,0.38,0.19,0.36,7.69,7.65,7.67
45.68,7.31,-0.31,7.29,-0.32,0.32,0.15,0.29,7.63,7.61,7.62
46.13,7.31,-0.27,7.32,-0.26,0.26,0.11,0.22,7.57,7.58,7.58
46.60,7.31,-0.24,7.34,-0.20,0.20,0.07,0.16,7.50,7.54,7.55
47.06,7.31,-0.20,7.37,-0.13,0.13,0.03,0.09,7.44,7.50,7.51
47.53,7.31,-0.17,7.39,-0.07,0.07,-0.01,0.02,7.37,7.46,7.48
48.01,7.31,-0.11,7.39,-0.02,0.02,-0.05,-0.04,7.33,7.41,7.42
48.49,7.43,0.07,7.38,0.01,-0.01,-0.09,-0.11,7.42,7.37,7.37
48.97,7.56,0.23,7.38,0.05,-0.05,-0.14,-0.17,7.50,7.33,7.33
49.46,7.49,0.21,7.38,0.10,-0.10,-0.18,-0.23,7.40,7.28,7.29
49.96,7.42,0.20,7.39,0.15,-0.15,-0.22,-0.30,7.27,7.24,7.22
50.46,7.41,0.23,7.39,0.20,-0.20,-0.26,-0.36,7.20,7.19,7.18
50.96,7.41,0.27,7.40,0.26,-0.26,-0.30,-0.42,7.15,7.14,7.14
51.47,7.38,0.28,7.41,0.31,-0.31,-0.35,-0.49,7.06,7.10,7.10
51.99,7.34,0.29,7.41,0.37,-0.37,-0.39,-0.55,6.97,7.05,7.05
52.51,7.31,0.30,7.42,0.42,-0.42,-0.43,-0.61,6.89,7.00,7.01
53.03,7.29,0.31,7.42,0.47,-0.47,-0.47,-0.67,6.82,6.95,6.98
53.56,7.41,0.49,7.43,0.52,-0.52,-0.51,-0.73,6.89,6.91,6.92
54.10,7.50,0.64,7.43,0.56,-0.56,-0.56,-0.79,6.94,6.87,6.87
54.64,7.51,0.68,7.44,0.61,-0.61,-0.60,-0.85,6.89,6.82,6.83
55.18,7.51,0.74,7.45,0.67,-0.67,-0.64,-0.90,6.83,6.78,6.77
55.74,7.51,0.79,7.47,0.73,-0.73,-0.69,-0.96,6.77,6.74,6.72
56.29,7.51,0.82,7.48,0.79,-0.79,-0.73,-1.01,6.72,6.70,6.69
56.86,7.51,0.86,7.50,0.85,-0.85,-0.77,-1.07,6.66,6.65,6.65
57.42,7.51,0.92,7.51,0.90,-0.90,-0.82,-1.12,6.60,6.61,6.59
58.00,7.51,0.95,7.52,0.96,-0.96,-0.86,-1.17,6.55,6.56,6.56
58.58,7.51,0.98,7.52,1.01,-1.01,-0.91,-1.22,6.50,6.51,6.53
59.16,7.51,1.02,7.52,1.06,-1.06,-0.95,-1.27,6.45,6.46,6.49
59.76,7.51,1.06,7.51,1.10,-1.10,-0.99,-1.32,6.41,6.41,6.45
60.35,7.51,1.13,7.51,1.14,-1.14,-1.04,-1.37,6.36,6.36,6.38
60.96,7.51,1.18,7.51,1.20,-1.20,-1.08,-1.41,6.31,6.31,6.33
61.57,7.51,1.25,7.51,1.25,-1.25,-1.13,-1.46,6.26,6.26,6.26
62.18,7.51,1.32,7.51,1.31,-1.31,-1.17,-1.50,6.20,6.20,6.19
62.80,7.51,1.38,7.50,1.36,-1.36,-1.22,-1.54,6.14,6.14,6.13
63.43,7.51,1.44,7.50,1.42,-1.42,-1.27,-1.58,6.09,6.08,6.07
64.07,7.51,1.49,7.50,1.48,-1.48,-1.31,-1.62,6.03,6.02,6.02
64.71,7.51,1.55,7.50,1.54,-1.54,-1.36,-1.66,5.97,5.96,5.96
65.35,7.51,1.61,7.51,1.61,-1.61,-1.40,-1.69,5.90,5.90,5.90
66.01,7.51,1.67,7.52,1.68,-1.68,-1.45,-1.73,5.83,5.84,5.84
66.67,7.51,1.71,7.52,1.74,-1.74,-1.50,-1.76,5.76,5.78,5.80
67.33,7.51,1.79,7.52,1.80,-1.80,-1.55,-1.79,5.70,5.72,5.72
68.01,7.51,1.84,7.52,1.86,-1.86,-1.59,-1.83,5.64,5.66,5.67
68.69,7.51,1.91,7.52,1.92,-1.92,-1.64,-1.86,5.58,5.60,5.60
69.37,7.51,1.96,7.51,1.98,-1.98,-1.69,-1.89,5.53,5.53,5.55
70.07,7.52,2.04,7.51,2.03,-2.03,-1.74,-1.92,5.48,5.47,5.48
70.77,7.58,2.16,7.50,2.09,-2.09,-1.79,-1.96,5.48,5.41,5.42
71.48,7.59,2.24,7.49,2.15,-2.15,-1.83,-1.99,5.44,5.34,5.35
72.19,7.54,2.26,7.48,2.20,-2.20,-1.88,-2.02,5.34,5.28,5.28
72.91,7.42,2.20,7.47,2.25,-2.25,-1.93,-2.05,5.16,5.22,5.22
73.64,7.41,2.26,7.46,2.30,-2.30,-1.98,-2.09,5.10,5.15,5.15
74.38,7.41,2.32,7.45,2.35,-2.35,-2.03,-2.12,5.05,5.09,5.09
75.12,7.41,2.39,7.44,2.41,-2.41,-2.08,-2.15,5.00,5.03,5.02
75.87,7.41,2.43,7.44,2.46,-2.46,-2.13,-2.19,4.94,4.97,4.98
76.63,7.41,2.50,7.43,2.51,-2.51,-2.19,-2.23,4.89,4.92,4.91
77.40,7.41,2.55,7.41,2.55,-2.55,-2.24,-2.26,4.85,4.86,4.86
78.17,7.41,2.61,7.39,2.59,-2.59,-2.29,-2.30,4.82,4.80,4.80
78.95,7.41,2.65,7.38,2.63,-2.63,-2.34,-2.34,4.77,4.75,4.76
79.74,7.41,2.71,7.38,2.69,-2.69,-2.39,-2.39,4.72,4.69,4.70
80.54,7.41,2.77,7.38,2.74,-2.74,-2.45,-2.43,4.66,4.64,4.64
81.35,7.41,2.82,7.38,2.80,-2.80,-2.50,-2.48,4.61,4.58,4.59
82.16,7.41,2.87,7.37,2.84,-2.84,-2.55,-2.53,4.56,4.53,4.54
82.98,7.40,2.93,7.36,2.89,-2.89,-2.61,-2.57,4.52,4.47,4.48
83.81,7.29,2.87,7.34,2.93,-2.93,-2.66,-2.63,4.35,4.41,4.42
84.65,7.22,2.86,7.33,2.97,-2.97,-2.71,-2.68,4.24,4.35,4.36
85.50,7.25,2.96,7.31,3.02,-3.02,-2.77,-2.74,4.23,4.30,4.29
86.35,7.36,3.13,7.30,3.06,-3.06,-2.82,-2.79,4.29,4.23,4.23
87.22,7.42,3.24,7.28,3.11,-3.11,-2.88,-2.85,4.31,4.17,4.18
88.09,7.31,3.20,7.27,3.16,-3.16,-2.93,-2.92,4.15,4.11,4.11
88.97,7.21,3.15,7.25,3.20,-3.20,-2.99,-2.98,4.01,4.05,4.06
89.86,7.21,3.23,7.24,3.25,-3.25,-3.04,-3.05,3.95,3.98,3.98
90.76,7.22,3.30,7.24,3.32,-3.32,-3.10,-3.12,3.89,3.92,3.92
91.66,7.22,3.37,7.24,3.39,-3.39,-3.16,-3.19,3.82,3.85,3.85
92.58,7.22,3.43,7.24,3.46,-3.46,-3.21,-3.26,3.75,3.78,3.79
93.51,7.22,3.50,7.25,3.54,-3.54,-3.27,-3.34,3.67,3.71,3.72
94.44,7.22,3.57,7.25,3.61,-3.61,-3.33,-3.41,3.60,3.63,3.65
95.39,7.22,3.65,7.23,3.67,-3.67,-3.38,-3.49,3.54,3.56,3.57
96.34,7.21,3.72,7.21,3.73,-3.73,-3.44,-3.58,3.48,3.48,3.49
97.30,7.21,3.80,7.18,3.78,-3.78,-3.50,-3.66,3.42,3.40,3.41
98.28,7.23,3.91,7.16,3.84,-3.84,-3.56,-3.74,3.38,3.32,3.32
99.26,7.30,4.07,7.14,3.90,-3.90,-3.62,-3.83,3.39,3.24,3.23
100.25,7.23,4.08,7.12,3.96,-3.96,-3.67,-3.92,3.27,3.16,3.15
101.25,7.05,3.97,7.09,4.01,-4.01,-3.73,-4.01,3.03,3.08,3.08
102.27,7.03,4.04,7.05,4.06,-4.06,-3.79,-4.10,2.97,2.99,2.99
103.29,7.01,4.10,7.01,4.10,-4.10,-3.85,-4.19,2.90,2.91,2.91
104.32,6.92,4.09,6.97,4.14,-4.14,-3.91,-4.28,2.79,2.83,2.84
105.37,6.78,4.02,6.92,4.18,-4.18,-3.97,-4.37,2.60,2.75,2.76
106.42,6.81,4.14,6.88,4.22,-4.22,-4.03,-4.46,2.59,2.67,2.67
107.48,6.83,4.25,6.84,4.25,-4.25,-4.08,-4.55,2.57,2.59,2.58
108.56,6.85,4.33,6.80,4.29,-4.29,-4.14,-4.64,2.55,2.51,2.52
109.64,6.88,4.46,6.76,4.33,-4.33,-4.20,-4.73,2.56,2.43,2.43
110.74,6.76,4.41,6.72,4.36,-4.36,-4.26,-4.81,2.39,2.35,2.35
111.85,6.66,4.38,6.69,4.41,-4.41,-4.32,-4.90,2.25,2.28,2.28
112.97,6.64,4.43,6.66,4.46,-4.46,-4.38,-4.98,2.18,2.20,2.21
114.10,6.63,4.49,6.62,4.50,-4.50,-4.44,-5.06,2.13,2.13,2.14
115.24,6.63,4.57,6.59,4.54,-4.54,-4.50,-5.13,2.09,2.06,2.06
116.39,6.61,4.63,6.58,4.59,-4.59,-4.55,-5.20,2.02,1.99,1.98
117.55,6.56,4.64,6.56,4.64,-4.64,-4.61,-5.26,1.91,1.92,1.92
118.73,6.51,4.67,6.54,4.69,-4.69,-4.67,-5.32,1.81,1.85,1.84
119.92,6.45,4.67,6.52,4.74,-4.74,-4.73,-5.38,1.71,1.79,1.78
121.12,6.45,4.72,6.50,4.78,-4.78,-4.79,-5.42,1.66,1.72,1.73
122.33,6.46,4.80,6.48,4.83,-4.83,-4.84,-5.47,1.63,1.66,1.66
123.55,6.47,4.86,6.47,4.87,-4.87,-4.90,-5.50,1.59,1.59,1.61
124.79,6.48,4.93,6.46,4.93,-4.93,-4.96,-5.53,1.55,1.53,1.55
126.03,6.48,5.00,6.45,4.98,-4.98,-5.01,-5.56,1.50,1.47,1.48
127.29,6.54,5.12,6.44,5.03,-5.03,-5.07,-5.58,1.51,1.41,1.42
128.57,6.57,5.21,6.43,5.08,-5.08,-5.12,-5.59,1.49,1.35,1.36
129.85,6.44,5.15,6.42,5.13,-5.13,-5.18,-5.59,1.30,1.29,1.29
131.15,6.37,5.14,6.41,5.17,-5.17,-5.23,-5.59,1.19,1.23,1.23
132.46,6.26,5.09,6.38,5.21,-5.21,-5.28,-5.59,1.04,1.17,1.17
133.79,6.28,5.17,6.37,5.25,-5.25,-5.33,-5.58,1.02,1.11,1.11
135.12,6.32,5.27,6.34,5.29,-5.29,-5.39,-5.57,1.03,1.05,1.05
136.48,6.36,5.35,6.31,5.32,-5.32,-5.44,-5.55,1.03,0.99,1.01
137.84,6.42,5.47,6.28,5.35,-5.35,-5.49,-5.53,1.07,0.93,0.95
139.22,6.31,5.44,6.26,5.38,-5.38,-5.54,-5.50,0.93,0.88,0.87
140.61,6.23,5.40,6.23,5.41,-5.41,-5.58,-5.48,0.82,0.82,0.83
142.02,6.23,5.46,6.20,5.44,-5.44,-5.63,-5.45,0.79,0.76,0.77
143.44,6.09,5.39,6.18,5.48,-5.48,-5.68,-5.42,0.61,0.71,0.70
144.87,6.05,5.40,6.16,5.51,-5.51,-5.72,-5.39,0.53,0.65,0.65
146.32,6.17,5.57,6.13,5.54,-5.54,-5.76,-5.36,0.63,0.60,0.60
147.78,6.18,5.64,6.11,5.57,-5.57,-5.81,-5.33,0.61,0.54,0.54
149.26,6.08,5.59,6.08,5.59,-5.59,-5.85,-5.29,0.48,0.48,0.49
150.75,6.03,5.61,6.05,5.62,-5.62,-5.89,-5.26,0.41,0.43,0.42
152.26,6.03,5.65,6.02,5.65,-5.65,-5.93,-5.24,0.38,0.37,0.38
153.78,6.03,5.71,5.99,5.67,-5.67,-5.96,-5.21,0.35,0.31,0.32
155.32,5.97,5.70,5.96,5.70,-5.70,-6.00,-5.18,0.27,0.26,0.27
156.88,5.93,5.72,5.92,5.73,-5.73,-6.03,-5.16,0.20,0.20,0.21
158.44,5.86,5.71,5.90,5.75,-5.75,-6.07,-5.14,0.10,0.14,0.15
160.03,5.83,5.74,5.87,5.79,-5.79,-6.10,-5.12,0.03,0.08,0.09
161.63,5.86,5.83,5.83,5.81,-5.81,-6.13,-5.11,0.04,0.02,0.03
163.24,5.88,5.92,5.79,5.82,-5.82,-6.15,-5.10,0.05,-0.04,-0.04
164.88,5.79,5.88,5.75,5.85,-5.85,-6.18,-5.09,-0.06,-0.10,-0.09
166.53,5.73,5.89,5.71,5.87,-5.87,-6.21,-5.08,-0.15,-0.16,-0.16
168.19,5.61,5.82,5.67,5.89,-5.89,-6.23,-5.08,-0.28,-0.22,-0.21
169.87,5.52,5.79,5.63,5.91,-5.91,-6.25,-5.09,-0.39,-0.28,-0.27
171.57,5.59,5.93,5.59,5.93,-5.93,-6.27,-5.09,-0.34,-0.34,-0.34
173.29,5.65,6.05,5.55,5.95,-5.95,-6.28,-5.10,-0.30,-0.40,-0.40
175.02,5.61,6.06,5.51,5.97,-5.97,-6.30,-5.12,-0.36,-0.45,-0.45
176.77,5.49,5.99,5.48,5.98,-5.98,-6.31,-5.13,-0.50,-0.51,-0.50
178.54,5.34,5.90,5.44,6.00,-6.00,-6.32,-5.16,-0.66,-0.56,-0.56
180.32,5.38,6.00,5.40,6.01,-6.01,-6.33,-5.18,-0.64,-0.61,-0.62
182.13,5.39,6.05,5.37,6.03,-6.03,-6.34,-5.21,-0.65,-0.66,-0.66
183.95,5.30,6.01,5.34,6.05,-6.05,-6.35,-5.25,-0.76,-0.71,-0.71
185.79,5.31,6.07,5.31,6.07,-6.07,-6.35,-5.28,-0.77,-0.76,-0.76
187.65,5.32,6.12,5.29,6.10,-6.10,-6.35,-5.33,-0.78,-0.81,-0.80
189.52,5.28,6.13,5.27,6.12,-6.12,-6.35,-5.37,-0.84,-0.85,-0.85
191.42,5.24,6.12,5.24,6.13,-6.13,-6.35,-5.42,-0.90,-0.90,-0.88
193.33,5.19,6.12,5.20,6.14,-6.14,-6.34,-5.47,-0.96,-0.94,-0.93
195.27,5.18,6.16,5.17,6.15,-6.15,-6.34,-5.53,-0.98,-0.98,-0.98
197.22,5.17,6.20,5.15,6.18,-6.18,-6.33,-5.58,-1.01,-1.02,-1.03
199.19,5.13,6.19,5.13,6.19,-6.19,-6.32,-5.65,-1.07,-1.06,-1.06
201.18,5.10,6.21,5.09,6.19,-6.19,-6.30,-5.71,-1.10,-1.11,-1.11
203.19,5.05,6.19,5.05,6.20,-6.20,-6.29,-5.77,-1.15,-1.15,-1.14
205.23,5.04,6.22,5.01,6.20,-6.20,-6.27,-5.84,-1.17,-1.19,-1.18
207.28,5.07,6.28,4.98,6.20,-6.20,-6.26,-5.91,-1.14,-1.23,-1.21
209.35,4.97,6.22,4.93,6.20,-6.20,-6.24,-5.98,-1.23,-1.26,-1.25
211.44,4.79,6.09,4.88,6.19,-6.19,-6.21,-6.05,-1.40,-1.30,-1.30
213.56,4.77,6.10,4.83,6.17,-6.17,-6.19,-6.12,-1.41,-1.34,-1.33
215.69,4.81,6.18,4.79,6.16,-6.16,-6.16,-6.19,-1.36,-1.38,-1.37
217.85,4.86,6.26,4.74,6.15,-6.15,-6.14,-6.26,-1.30,-1.41,-1.40
220.03,4.68,6.13,4.70,6.14,-6.14,-6.11,-6.32,-1.46,-1.44,-1.45
222.23,4.57,6.04,4.65,6.12,-6.12,-6.08,-6.39,-1.56,-1.47,-1.47
224.45,4.63,6.13,4.61,6.10,-6.10,-6.05,-6.45,-1.48,-1.50,-1.50
226.70,4.62,6.15,4.56,6.09,-6.09,-6.01,-6.50,-1.47,-1.53,-1.53
228.96,4.50,6.05,4.52,6.07,-6.07,-5.98,-6.56,-1.57,-1.55,-1.55
231.25,4.40,5.96,4.48,6.05,-6.05,-5.94,-6.60,-1.65,-1.57,-1.56
233.57,4.38,5.97,4.44,6.03,-6.03,-5.91,-6.64,-1.65,-1.58,-1.59
235.90,4.48,6.08,4.41,6.00,-6.00,-5.87,-6.68,-1.53,-1.60,-1.60
238.26,4.46,6.08,4.36,5.97,-5.97,-5.83,-6.71,-1.52,-1.61,-1.62
240.64,4.34,5.95,4.32,5.95,-5.95,-5.79,-6.73,-1.61,-1.62,-1.61
243.05,4.29,5.91,4.29,5.92,-5.92,-5.74,-6.74,-1.64,-1.63,-1.62
245.48,4.23,5.87,4.27,5.91,-5.91,-5.70,-6.74,-1.68,-1.64,-1.64
247.93,4.22,5.87,4.24,5.88,-5.88,-5.66,-6.73,-1.67,-1.65,-1.65
250.41,4.20,5.84,4.20,5.85,-5.85,-5.61,-6.72,-1.66,-1.65,-1.64
252.92,4.15,5.79,4.16,5.82,-5.82,-5.56,-6.69,-1.68,-1.66,-1.64
255.45,4.10,5.76,4.13,5.80,-5.80,-5.52,-6.66,-1.70,-1.67,-1.66
258.00,4.08,5.75,4.10,5.78,-5.78,-5.47,-6.62,-1.70,-1.68,-1.67
260.58,4.08,5.76,4.05,5.74,-5.74,-5.42,-6.57,-1.67,-1.69,-1.68
263.19,4.07,5.76,4.00,5.70,-5.70,-5.37,-6.51,-1.63,-1.70,-1.69
265.82,4.00,5.71,3.95,5.67,-5.67,-5.32,-6.44,-1.67,-1.71,-1.71
268.48,3.94,5.65,3.91,5.64,-5.64,-5.27,-6.37,-1.70,-1.73,-1.71
271.16,3.89,5.62,3.86,5.60,-5.60,-5.22,-6.29,-1.71,-1.74,-1.73
273.87,3.80,5.54,3.81,5.56,-5.56,-5.16,-6.20,-1.76,-1.75,-1.74
276.61,3.75,5.51,3.76,5.52,-5.52,-5.11,-6.11,-1.77,-1.76,-1.76
279.38,3.68,5.47,3.71,5.48,-5.48,-5.06,-6.02,-1.80,-1.77,-1.79
282.17,3.69,5.48,3.66,5.44,-5.44,-5.00,-5.92,-1.75,-1.78,-1.79
284.99,3.61,5.40,3.60,5.39,-5.39,-4.95,-5.81,-1.78,-1.79,-1.79
287.84,3.45,5.24,3.55,5.34,-5.34,-4.90,-5.71,-1.90,-1.80,-1.79
290.72,3.45,5.26,3.49,5.30,-5.30,-4.84,-5.60,-1.85,-1.80,-1.81
293.63,3.46,5.26,3.45,5.25,-5.25,-4.79,-5.49,-1.80,-1.81,-1.80
296.57,3.43,5.23,3.40,5.21,-5.21,-4.73,-5.38,-1.79,-1.81,-1.80
299.53,3.35,5.16,3.36,5.17,-5.17,-4.67,-5.26,-1.82,-1.81,-1.81
302.53,3.36,5.16,3.31,5.12,-5.12,-4.62,-5.15,-1.77,-1.81,-1.80
305.55,3.35,5.16,3.26,5.08,-5.08,-4.56,-5.04,-1.73,-1.82,-1.81
308.61,3.18,4.98,3.21,5.03,-5.03,-4.51,-4.93,-1.86,-1.82,-1.80
311.69,3.14,4.96,3.17,4.99,-4.99,-4.45,-4.82,-1.85,-1.82,-1.82
314.81,3.13,4.94,3.12,4.94,-4.94,-4.39,-4.71,-1.81,-1.82,-1.81
317.96,3.09,4.92,3.07,4.89,-4.89,-4.34,-4.61,-1.81,-1.82,-1.83
321.14,3.02,4.84,3.02,4.85,-4.85,-4.28,-4.50,-1.83,-1.83,-1.82
324.35,2.97,4.80,2.96,4.79,-4.79,-4.23,-4.40,-1.82,-1.83,-1.83
327.59,2.88,4.70,2.89,4.73,-4.73,-4.17,-4.30,-1.85,-1.83,-1.82
330.87,2.83,4.66,2.84,4.67,-4.67,-4.11,-4.20,-1.85,-1.83,-1.83
334.18,2.77,4.61,2.79,4.62,-4.62,-4.06,-4.10,-1.86,-1.84,-1.84
337.52,2.79,4.62,2.73,4.57,-4.57,-4.00,-4.01,-1.78,-1.84,-1.83
340.90,2.70,4.54,2.68,4.52,-4.52,-3.94,-3.92,-1.82,-1.84,-1.84
344.30,2.61,4.44,2.64,4.47,-4.47,-3.89,-3.83,-1.86,-1.83,-1.83
347.75,2.57,4.39,2.57,4.40,-4.40,-3.83,-3.75,-1.84,-1.83,-1.82
351.23,2.51,4.35,2.51,4.34,-4.34,-3.78,-3.67,-1.83,-1.83,-1.84
354.74,2.45,4.27,2.46,4.28,-4.28,-3.72,-3.59,-1.83,-1.82,-1.82
358.28,2.38,4.20,2.40,4.23,-4.23,-3.67,-3.51,-1.85,-1.82,-1.82
361.87,2.39,4.21,2.35,4.17,-4.17,-3.61,-3.44,-1.79,-1.82,-1.82
365.49,2.42,4.23,2.31,4.12,-4.12,-3.56,-3.36,-1.71,-1.81,-1.81
369.14,2.29,4.09,2.26,4.07,-4.07,-3.50,-3.30,-1.79,-1.81,-1.80
372.83,2.17,3.96,2.22,4.02,-4.02,-3.45,-3.23,-1.86,-1.81,-1.79
376.56,2.14,3.94,2.17,3.98,-3.98,-3.39,-3.17,-1.84,-1.80,-1.80
380.33,2.02,3.82,2.13,3.94,-3.94,-3.34,-3.10,-1.92,-1.80,-1.80
384.13,2.03,3.82,2.10,3.91,-3.91,-3.28,-3.05,-1.88,-1.80,-1.79
387.97,2.14,3.93,2.08,3.89,-3.89,-3.23,-2.99,-1.76,-1.81,-1.79
391.85,2.12,3.92,2.07,3.88,-3.88,-3.18,-2.94,-1.76,-1.81,-1.80
395.77,1.99,3.80,2.04,3.86,-3.86,-3.12,-2.88,-1.87,-1.81,-1.81
399.73,1.97,3.78,2.01,3.83,-3.83,-3.07,-2.83,-1.86,-1.82,-1.81
403.72,1.99,3.79,1.96,3.78,-3.78,-3.02,-2.79,-1.80,-1.82,-1.80
407.76,1.87,3.69,1.90,3.73,-3.73,-2.97,-2.74,-1.87,-1.83,-1.82
411.84,1.84,3.67,1.84,3.67,-3.67,-2.91,-2.70,-1.84,-1.83,-1.83
415.96,1.83,3.66,1.76,3.59,-3.59,-2.86,-2.65,-1.77,-1.83,-1.83
420.12,1.84,3.68,1.66,3.49,-3.49,-2.81,-2.61,-1.65,-1.83,-1.84
424.32,1.81,3.64,1.55,3.37,-3.37,-2.76,-2.57,-1.56,-1.82,-1.83
428.56,1.61,3.42,1.43,3.24,-3.24,-2.71,-2.53,-1.63,-1.81,-1.81
432.85,1.35,3.14,1.31,3.10,-3.10,-2.66,-2.50,-1.76,-1.79,-1.79
437.18,1.11,2.89,1.20,2.96,-2.96,-2.60,-2.46,-1.86,-1.76,-1.78
441.55,0.97,2.72,1.09,2.82,-2.82,-2.55,-2.42,-1.85,-1.73,-1.75
445.96,0.89,2.60,0.98,2.68,-2.68,-2.50,-2.39,-1.79,-1.70,-1.71
450.42,0.74,2.41,0.90,2.55,-2.55,-2.45,-2.35,-1.82,-1.65,-1.67
454.93,0.65,2.27,0.82,2.43,-2.43,-2.40,-2.32,-1.78,-1.61,-1.62
459.48,0.60,2.16,0.75,2.31,-2.31,-2.35,-2.28,-1.71,-1.55,-1.56
464.07,0.63,2.12,0.70,2.20,-2.20,-2.30,-2.25,-1.57,-1.50,-1.49
468.71,0.74,2.18,0.67,2.12,-2.12,-2.25,-2.22,-1.38,-1.45,-1.44
473.40,0.74,2.12,0.66,2.05,-2.05,-2.21,-2.18,-1.32,-1.39,-1.38
478.13,0.71,2.03,0.65,2.00,-2.00,-2.16,-2.15,-1.29,-1.34,-1.32
482.91,0.62,1.89,0.66,1.95,-1.95,-2.11,-2.11,-1.33,-1.29,-1.27
487.74,0.68,1.92,0.67,1.91,-1.91,-2.06,-2.08,-1.24,-1.25,-1.24
492.62,0.83,2.03,0.67,1.88,-1.88,-2.01,-2.04,-1.05,-1.21,-1.20
497.55,0.80,1.96,0.67,1.84,-1.84,-1.96,-2.00,-1.05,-1.17,-1.16
502.52,0.60,1.74,0.67,1.82,-1.82,-1.91,-1.96,-1.22,-1.15,-1.14
507.55,0.64,1.75,0.65,1.78,-1.78,-1.86,-1.92,-1.14,-1.13,-1.11
512.62,0.68,1.78,0.61,1.73,-1.73,-1.81,-1.89,-1.05,-1.12,-1.10
517.75,0.59,1.68,0.57,1.69,-1.69,-1.77,-1.85,-1.10,-1.11,-1.09
522.93,0.43,1.52,0.52,1.64,-1.64,-1.72,-1.80,-1.21,-1.12,-1.09
