frequency,raw,error,smoothed,error_smoothed,equalization,parametric_eq,fixed_band_eq,equalized_raw,equalized_smoothed,target
20.00,-0.17,-9.05,-0.14,-9.02,9.02,8.30,4.06,8.85,8.88,8.88
20.20,-0.17,-9.04,-0.15,-9.03,9.03,8.39,4.17,8.85,8.87,8.87
20.40,-0.17,-9.03,-0.17,-9.03,9.03,8.47,4.28,8.86,8.86,8.86
20.61,-0.17,-9.03,-0.18,-9.03,9.03,8.56,4.39,8.86,8.85,8.86
20.81,-0.17,-9.01,-0.19,-9.03,9.03,8.63,4.51,8.86,8.84,8.84
21.02,-0.17,-9.01,-0.20,-9.03,9.03,8.71,4.63,8.86,8.84,8.84
21.23,-0.17,-9.00,-0.20,-9.03,9.03,8.78,4.76,8.86,8.83,8.83
21.44,-0.17,-9.01,-0.21,-9.03,9.03,8.85,4.88,8.85,8.82,8.84
21.66,-0.17,-9.00,-0.21,-9.02,9.02,8.92,5.02,8.85,8.81,8.82
21.87,-0.17,-8.99,-0.21,-9.02,9.02,8.98,5.15,8.84,8.81,8.81
22.09,-0.18,-8.99,-0.21,-9.01,9.01,9.03,5.29,8.83,8.80,8.80
22.31,-0.20,-9.01,-0.21,-9.00,9.00,9.08,5.43,8.80,8.80,8.80
22.54,-0.22,-9.01,-0.20,-8.99,8.99,9.13,5.58,8.77,8.79,8.79
22.76,-0.25,-9.04,-0.20,-8.98,8.98,9.18,5.73,8.73,8.79,8.79
22.99,-0.27,-9.05,-0.19,-8.97,8.97,9.21,5.88,8.70,8.78,8.78
23.22,-0.23,-9.00,-0.18,-8.96,8.96,9.25,6.04,8.72,8.78,8.77
23.45,-0.18,-8.96,-0.17,-8.94,8.94,9.28,6.20,8.76,8.77,8.78
23.69,-0.13,-8.90,-0.16,-8.93,8.93,9.30,6.37,8.80,8.77,8.76
23.92,-0.09,-8.86,-0.15,-8.92,8.92,9.32,6.53,8.83,8.77,8.76
24.16,-0.07,-8.84,-0.14,-8.91,8.91,9.33,6.71,8.84,8.77,8.77
24.40,-0.07,-8.85,-0.12,-8.90,8.90,9.34,6.88,8.82,8.77,8.78
24.65,-0.07,-8.85,-0.10,-8.87,8.87,9.35,7.06,8.80,8.77,8.78
24.89,-0.07,-8.85,-0.08,-8.85,8.85,9.35,7.24,8.78,8.77,8.78
25.14,-0.07,-8.85,-0.05,-8.83,8.83,9.34,7.42,8.75,8.77,8.77
25.39,-0.07,-8.85,-0.03,-8.81,8.81,9.34,7.61,8.73,8.78,8.77
25.65,-0.07,-8.84,-0.01,-8.79,8.79,9.32,7.80,8.72,8.78,8.77
25.91,-0.07,-8.85,-0.00,-8.78,8.78,9.31,7.99,8.71,8.78,8.78
26.16,-0.03,-8.82,0.01,-8.77,8.77,9.28,8.17,8.74,8.78,8.79
26.43,0.02,-8.77,0.02,-8.76,8.76,9.26,8.36,8.78,8.78,8.78
26.69,0.08,-8.71,0.03,-8.75,8.75,9.23,8.55,8.83,8.78,8.78
26.96,0.14,-8.64,0.04,-8.74,8.74,9.20,8.74,8.88,8.78,8.78
27.23,0.12,-8.66,0.04,-8.73,8.73,9.17,8.93,8.85,8.78,8.78
27.50,0.09,-8.69,0.05,-8.73,8.73,9.13,9.11,8.81,8.78,8.78
27.77,0.06,-8.73,0.06,-8.72,8.72,9.09,9.29,8.78,8.78,8.78
28.05,0.03,-8.75,0.06,-8.72,8.72,9.05,9.46,8.75,8.78,8.78
28.33,0.03,-8.74,0.06,-8.72,8.72,9.00,9.63,8.74,8.78,8.77
28.62,0.03,-8.74,0.06,-8.72,8.72,8.96,9.79,8.75,8.77,8.76
28.90,0.03,-8.75,0.05,-8.72,8.72,8.91,9.93,8.75,8.77,8.77
29.19,0.03,-8.74,0.04,-8.73,8.73,8.86,10.07,8.75,8.77,8.77
29.48,0.03,-8.74,0.03,-8.73,8.73,8.81,10.19,8.76,8.76,8.77
29.78,0.03,-8.74,0.02,-8.74,8.74,8.76,10.31,8.76,8.76,8.76
30.08,0.03,-8.74,0.02,-8.74,8.74,8.71,10.40,8.76,8.75,8.77
30.38,0.03,-8.73,0.02,-8.73,8.73,8.66,10.48,8.75,8.75,8.76
30.68,0.03,-8.72,0.02,-8.72,8.72,8.61,10.55,8.74,8.74,8.74
30.99,0.03,-8.71,0.02,-8.71,8.71,8.56,10.59,8.74,8.73,8.74
31.30,0.03,-8.70,0.03,-8.70,8.70,8.51,10.62,8.73,8.73,8.72
31.61,0.03,-8.69,0.03,-8.69,8.69,8.45,10.63,8.72,8.72,8.72
31.93,0.03,-8.68,0.03,-8.68,8.68,8.41,10.63,8.71,8.71,8.70
32.24,0.03,-8.67,0.03,-8.68,8.68,8.36,10.60,8.70,8.70,8.70
32.57,0.03,-8.66,0.03,-8.67,8.67,8.31,10.56,8.69,8.69,8.69
32.89,0.03,-8.65,0.03,-8.66,8.66,8.26,10.51,8.69,8.69,8.68
33.22,0.03,-8.65,0.03,-8.65,8.65,8.22,10.44,8.68,8.68,8.68
33.55,0.03,-8.64,0.03,-8.65,8.65,8.17,10.36,8.68,8.68,8.67
33.89,0.03,-8.65,0.03,-8.64,8.64,8.13,10.27,8.67,8.67,8.67
34.23,0.03,-8.63,0.03,-8.64,8.64,8.09,10.16,8.66,8.66,8.66
34.57,0.03,-8.63,0.03,-8.63,8.63,8.05,10.05,8.65,8.66,8.65
34.92,0.03,-8.62,0.03,-8.62,8.62,8.01,9.93,8.64,8.65,8.65
35.27,0.03,-8.62,0.03,-8.61,8.61,7.98,9.81,8.64,8.64,8.65
35.62,0.03,-8.61,0.02,-8.61,8.61,7.95,9.68,8.63,8.63,8.63
35.97,0.03,-8.60,0.01,-8.60,8.60,7.91,9.55,8.63,8.62,8.63
36.33,0.03,-8.58,0.01,-8.59,8.59,7.89,9.41,8.62,8.60,8.61
36.70,0.03,-8.57,0.01,-8.58,8.58,7.86,9.28,8.61,8.59,8.59
37.06,0.03,-8.55,0.00,-8.56,8.56,7.84,9.14,8.59,8.57,8.57
37.43,0.03,-8.52,0.01,-8.54,8.54,7.81,9.01,8.56,8.55,8.55
37.81,0.03,-8.50,0.01,-8.51,8.51,7.80,8.87,8.54,8.52,8.53
38.19,0.01,-8.49,0.02,-8.48,8.48,7.78,8.74,8.49,8.50,8.50
38.57,-0.04,-8.51,0.02,-8.45,8.45,7.76,8.61,8.40,8.47,8.47
38.95,-0.08,-8.52,0.03,-8.41,8.41,7.75,8.49,8.33,8.44,8.44
39.34,-0.01,-8.41,0.04,-8.37,8.37,7.74,8.36,8.36,8.41,8.40
39.74,0.07,-8.32,0.05,-8.33,8.33,7.74,8.24,8.40,8.38,8.38
40.14,0.13,-8.23,0.06,-8.29,8.29,7.73,8.13,8.41,8.35,8.35
40.54,0.13,-8.19,0.08,-8.25,8.25,7.73,8.02,8.37,8.32,8.32
40.94,0.13,-8.16,0.09,-8.20,8.20,7.73,7.91,8.33,8.29,8.29
41.35,0.13,-8.14,0.10,-8.16,8.16,7.73,7.81,8.29,8.26,8.27
41.76,0.13,-8.10,0.11,-8.12,8.12,7.73,7.72,8.25,8.23,8.22
42.18,0.13,-8.08,0.12,-8.08,8.08,7.74,7.63,8.21,8.20,8.20
42.60,0.13,-8.05,0.13,-8.04,8.04,7.74,7.54,8.17,8.18,8.18
43.03,0.13,-8.02,0.14,-8.01,8.01,7.75,7.46,8.13,8.15,8.15
43.46,0.13,-7.98,0.14,-7.98,7.98,7.76,7.39,8.10,8.12,8.11
43.90,0.13,-7.96,0.14,-7.95,7.95,7.77,7.32,8.08,8.09,8.09
44.33,0.13,-7.93,0.13,-7.92,7.92,7.78,7.26,8.05,8.05,8.05
44.78,0.13,-7.89,0.13,-7.89,7.89,7.79,7.20,8.02,8.02,8.02
45.23,0.13,-7.87,0.13,-7.86,7.86,7.80,7.14,7.98,7.98,8.00
45.68,0.13,-7.83,0.13,-7.82,7.82,7.81,7.09,7.95,7.95,7.95
46.13,0.13,-7.78,0.13,-7.78,7.78,7.82,7.05,7.91,7.91,7.91
46.60,0.13,-7.74,0.13,-7.74,7.74,7.83,7.01,7.87,7.87,7.87
47.06,0.13,-7.70,0.13,-7.70,7.70,7.83,6.98,7.82,7.82,7.83
47.53,0.13,-7.66,0.13,-7.65,7.65,7.84,6.95,7.78,7.78,7.79
48.01,0.13,-7.60,0.13,-7.60,7.60,7.84,6.92,7.73,7.73,7.73
48.49,0.13,-7.55,0.13,-7.56,7.56,7.84,6.90,7.68,7.68,7.68
48.97,0.13,-7.50,0.13,-7.51,7.51,7.84,6.89,7.63,7.63,7.63
49.46,0.13,-7.46,0.13,-7.46,7.46,7.83,6.87,7.58,7.58,7.59
49.96,0.13,-7.39,0.13,-7.41,7.41,7.82,6.86,7.53,7.53,7.51
50.46,0.13,-7.34,0.13,-7.35,7.35,7.81,6.86,7.48,7.48,7.47
50.96,0.13,-7.30,0.13,-7.30,7.30,7.79,6.85,7.43,7.43,7.43
51.47,0.13,-7.25,0.13,-7.25,7.25,7.77,6.85,7.38,7.38,7.38
51.99,0.13,-7.20,0.13,-7.20,7.20,7.74,6.86,7.33,7.33,7.32
52.51,0.13,-7.15,0.13,-7.15,7.15,7.71,6.86,7.27,7.27,7.28
53.03,0.13,-7.11,0.13,-7.10,7.10,7.67,6.86,7.22,7.22,7.24
53.56,0.13,-7.05,0.13,-7.04,7.04,7.63,6.87,7.17,7.17,7.18
54.10,0.13,-7.00,0.13,-6.99,6.99,7.58,6.88,7.12,7.12,7.12
54.64,0.13,-6.94,0.13,-6.95,6.95,7.53,6.88,7.07,7.07,7.07
55.18,0.13,-6.88,0.13,-6.90,6.90,7.47,6.89,7.02,7.02,7.01
55.74,0.13,-6.83,0.13,-6.85,6.85,7.41,6.89,6.97,6.97,6.96
56.29,0.13,-6.79,0.13,-6.80,6.80,7.34,6.89,6.93,6.93,6.91
56.86,0.13,-6.74,0.13,-6.75,6.75,7.27,6.89,6.87,6.87,6.87
57.42,0.13,-6.68,0.13,-6.70,6.70,7.19,6.89,6.82,6.82,6.80
58.00,0.13,-6.64,0.13,-6.64,6.64,7.11,6.88,6.77,6.77,6.77
58.58,0.13,-6.60,0.13,-6.59,6.59,7.02,6.87,6.71,6.71,6.73
59.16,0.13,-6.55,0.13,-6.53,6.53,6.93,6.86,6.66,6.66,6.68
59.76,0.13,-6.50,0.13,-6.48,6.48,6.84,6.84,6.60,6.60,6.63
60.35,0.13,-6.43,0.13,-6.42,6.42,6.75,6.81,6.54,6.54,6.56
60.96,0.13,-6.37,0.13,-6.36,6.36,6.65,6.78,6.48,6.48,6.50
61.57,0.13,-6.30,0.13,-6.30,6.30,6.56,6.74,6.42,6.42,6.42
62.18,0.13,-6.22,0.13,-6.23,6.23,6.46,6.70,6.36,6.36,6.35
62.80,0.13,-6.15,0.13,-6.17,6.17,6.36,6.65,6.29,6.29,6.27
63.43,0.13,-6.08,0.13,-6.10,6.10,6.26,6.59,6.22,6.22,6.21
64.07,0.13,-6.02,0.13,-6.03,6.03,6.16,6.52,6.16,6.16,6.15
64.71,0.13,-5.95,0.13,-5.96,5.96,6.06,6.45,6.09,6.09,6.08
65.35,0.13,-5.89,0.13,-5.89,5.89,5.96,6.38,6.02,6.02,6.02
66.01,0.13,-5.82,0.13,-5.82,5.82,5.86,6.30,5.95,5.95,5.95
66.67,0.13,-5.77,0.13,-5.75,5.75,5.76,6.21,5.88,5.88,5.89
67.33,0.13,-5.68,0.13,-5.68,5.68,5.66,6.12,5.81,5.81,5.81
68.01,0.13,-5.62,0.13,-5.61,5.61,5.57,6.02,5.74,5.74,5.74
68.69,0.13,-5.54,0.13,-5.54,5.54,5.47,5.92,5.67,5.67,5.66
69.37,0.13,-5.48,0.13,-5.47,5.47,5.38,5.81,5.60,5.60,5.61
70.07,0.13,-5.40,0.13,-5.40,5.40,5.29,5.70,5.52,5.52,5.53
70.77,0.13,-5.33,0.13,-5.32,5.32,5.20,5.59,5.45,5.45,5.46
71.48,0.13,-5.26,0.13,-5.25,5.25,5.11,5.48,5.38,5.38,5.38
72.19,0.13,-5.17,0.13,-5.18,5.18,5.03,5.36,5.30,5.30,5.30
72.91,0.13,-5.10,0.13,-5.10,5.10,4.95,5.25,5.23,5.23,5.22
73.64,0.13,-5.02,0.13,-5.03,5.03,4.87,5.13,5.16,5.16,5.15
74.38,0.13,-4.95,0.13,-4.96,4.96,4.80,5.01,5.08,5.08,5.08
75.12,0.13,-4.88,0.13,-4.89,4.89,4.72,4.89,5.01,5.01,5.00
75.87,0.13,-4.82,0.13,-4.82,4.82,4.65,4.78,4.94,4.94,4.94
76.63,0.13,-4.74,0.13,-4.75,4.75,4.58,4.66,4.88,4.88,4.87
77.40,0.13,-4.68,0.13,-4.68,4.68,4.51,4.54,4.81,4.81,4.81
78.17,0.13,-4.61,0.13,-4.61,4.61,4.45,4.43,4.74,4.74,4.73
78.95,0.13,-4.55,0.13,-4.55,4.55,4.39,4.31,4.67,4.67,4.68
79.74,0.13,-4.49,0.13,-4.48,4.48,4.33,4.20,4.61,4.61,4.61
80.54,0.13,-4.42,0.13,-4.41,4.41,4.27,4.09,4.54,4.54,4.54
81.35,0.13,-4.35,0.13,-4.35,4.35,4.21,3.98,4.47,4.47,4.48
82.16,0.13,-4.29,0.13,-4.28,4.28,4.15,3.88,4.41,4.41,4.42
82.98,0.13,-4.22,0.13,-4.21,4.21,4.10,3.77,4.34,4.34,4.35
83.81,0.13,-4.15,0.13,-4.14,4.14,4.04,3.67,4.27,4.27,4.27
84.65,0.13,-4.07,0.13,-4.07,4.07,3.99,3.57,4.20,4.20,4.20
85.50,0.13,-3.99,0.13,-4.00,4.00,3.93,3.47,4.13,4.13,4.12
86.35,0.13,-3.93,0.13,-3.93,3.93,3.88,3.37,4.06,4.06,4.05
87.22,0.13,-3.86,0.13,-3.86,3.86,3.82,3.28,3.98,3.98,3.99
88.09,0.13,-3.78,0.13,-3.78,3.78,3.77,3.19,3.91,3.91,3.91
88.97,0.13,-3.71,0.13,-3.71,3.71,3.71,3.10,3.83,3.84,3.84
89.86,0.13,-3.63,0.13,-3.63,3.63,3.65,3.02,3.76,3.76,3.75
90.76,0.13,-3.56,0.13,-3.55,3.55,3.59,2.93,3.68,3.68,3.68
91.66,0.13,-3.47,0.13,-3.47,3.47,3.53,2.85,3.59,3.60,3.59
92.58,0.13,-3.40,0.13,-3.39,3.39,3.47,2.77,3.51,3.52,3.52
93.51,0.13,-3.31,0.13,-3.30,3.30,3.40,2.69,3.43,3.43,3.44
94.44,0.13,-3.23,0.12,-3.22,3.22,3.33,2.62,3.35,3.35,3.36
95.39,0.13,-3.14,0.12,-3.14,3.14,3.26,2.54,3.26,3.26,3.27
96.34,0.13,-3.05,0.12,-3.05,3.05,3.18,2.47,3.18,3.17,3.17
97.30,0.12,-2.96,0.11,-2.97,2.97,3.11,2.40,3.08,3.08,3.08
98.28,0.11,-2.88,0.10,-2.88,2.88,3.03,2.34,2.99,2.99,2.99
99.26,0.10,-2.79,0.09,-2.80,2.80,2.95,2.27,2.90,2.89,2.88
100.25,0.08,-2.71,0.08,-2.72,2.72,2.87,2.21,2.80,2.80,2.79
101.25,0.06,-2.65,0.06,-2.64,2.64,2.78,2.14,2.70,2.70,2.70
102.27,0.05,-2.56,0.05,-2.56,2.56,2.69,2.08,2.61,2.61,2.61
103.29,0.04,-2.48,0.03,-2.49,2.49,2.61,2.02,2.52,2.51,2.51
104.32,0.02,-2.41,0.01,-2.41,2.41,2.52,1.97,2.43,2.42,2.43
105.37,-0.00,-2.33,-0.02,-2.34,2.34,2.43,1.91,2.34,2.33,2.33
106.42,-0.03,-2.27,-0.04,-2.27,2.27,2.33,1.85,2.24,2.23,2.24
107.48,-0.05,-2.18,-0.06,-2.20,2.20,2.24,1.80,2.15,2.14,2.13
108.56,-0.08,-2.14,-0.08,-2.13,2.13,2.15,1.75,2.04,2.05,2.05
109.64,-0.10,-2.06,-0.09,-2.05,2.05,2.06,1.69,1.95,1.96,1.96
110.74,-0.12,-1.99,-0.11,-1.98,1.98,1.97,1.64,1.85,1.87,1.86
111.85,-0.13,-1.91,-0.12,-1.90,1.90,1.88,1.59,1.77,1.78,1.78
112.97,-0.14,-1.84,-0.13,-1.82,1.82,1.78,1.54,1.68,1.69,1.70
114.10,-0.15,-1.77,-0.14,-1.75,1.75,1.69,1.49,1.59,1.60,1.61
115.24,-0.15,-1.67,-0.15,-1.67,1.67,1.60,1.44,1.51,1.52,1.52
116.39,-0.15,-1.58,-0.15,-1.59,1.59,1.52,1.39,1.43,1.44,1.42
117.55,-0.15,-1.51,-0.15,-1.51,1.51,1.43,1.34,1.35,1.36,1.35
118.73,-0.14,-1.40,-0.15,-1.42,1.42,1.34,1.29,1.28,1.28,1.26
119.92,-0.13,-1.32,-0.14,-1.34,1.34,1.25,1.25,1.21,1.20,1.19
121.12,-0.13,-1.26,-0.13,-1.26,1.26,1.17,1.20,1.12,1.12,1.13
122.33,-0.12,-1.17,-0.13,-1.17,1.17,1.09,1.15,1.05,1.05,1.05
123.55,-0.11,-1.09,-0.12,-1.09,1.09,1.00,1.10,0.97,0.97,0.98
124.79,-0.10,-1.01,-0.11,-1.01,1.01,0.92,1.05,0.90,0.90,0.91
126.03,-0.10,-0.93,-0.10,-0.92,0.92,0.84,1.00,0.82,0.82,0.83
127.29,-0.09,-0.85,-0.10,-0.84,0.84,0.77,0.95,0.75,0.75,0.75
128.57,-0.08,-0.76,-0.09,-0.77,0.77,0.69,0.91,0.68,0.68,0.68
129.85,-0.08,-0.69,-0.08,-0.69,0.69,0.61,0.86,0.60,0.61,0.60
131.15,-0.07,-0.60,-0.08,-0.61,0.61,0.54,0.81,0.54,0.53,0.53
132.46,-0.07,-0.53,-0.07,-0.53,0.53,0.47,0.75,0.46,0.46,0.46
133.79,-0.06,-0.45,-0.07,-0.46,0.46,0.39,0.70,0.39,0.39,0.38
135.12,-0.06,-0.38,-0.06,-0.38,0.38,0.32,0.65,0.32,0.32,0.31
136.48,-0.06,-0.32,-0.05,-0.30,0.30,0.25,0.60,0.23,0.24,0.25
137.84,-0.05,-0.24,-0.04,-0.22,0.22,0.18,0.55,0.16,0.17,0.18
139.22,-0.05,-0.15,-0.04,-0.15,0.15,0.12,0.50,0.09,0.10,0.10
140.61,-0.05,-0.09,-0.05,-0.08,0.08,0.05,0.44,0.03,0.03,0.04
142.02,-0.05,-0.02,-0.05,-0.02,0.02,-0.02,0.39,-0.03,-0.04,-0.04
143.44,-0.05,0.06,-0.07,0.04,-0.04,-0.08,0.34,-0.09,-0.10,-0.11
144.87,-0.05,0.12,-0.08,0.09,-0.09,-0.15,0.28,-0.15,-0.17,-0.17
146.32,-0.05,0.18,-0.08,0.15,-0.15,-0.21,0.23,-0.21,-0.24,-0.24
147.78,-0.05,0.25,-0.09,0.22,-0.22,-0.27,0.17,-0.27,-0.31,-0.31
149.26,-0.05,0.32,-0.09,0.28,-0.28,-0.33,0.12,-0.34,-0.38,-0.38
150.75,-0.05,0.40,-0.10,0.34,-0.34,-0.39,0.06,-0.40,-0.44,-0.45
152.26,-0.19,0.32,-0.11,0.40,-0.40,-0.45,0.00,-0.59,-0.51,-0.51
153.78,-0.26,0.31,-0.12,0.46,-0.46,-0.51,-0.05,-0.72,-0.58,-0.58
155.32,-0.19,0.45,-0.14,0.51,-0.51,-0.57,-0.11,-0.70,-0.65,-0.64
156.88,-0.15,0.56,-0.15,0.57,-0.57,-0.63,-0.17,-0.72,-0.72,-0.71
158.44,-0.15,0.63,-0.17,0.62,-0.62,-0.69,-0.23,-0.77,-0.79,-0.78
160.03,-0.11,0.74,-0.18,0.68,-0.68,-0.74,-0.29,-0.79,-0.86,-0.85
161.63,-0.04,0.88,-0.20,0.73,-0.73,-0.80,-0.35,-0.77,-0.93,-0.92
163.24,-0.17,0.83,-0.21,0.79,-0.79,-0.85,-0.41,-0.96,-1.00,-1.00
164.88,-0.26,0.80,-0.22,0.84,-0.84,-0.91,-0.47,-1.11,-1.07,-1.07
166.53,-0.26,0.88,-0.24,0.90,-0.90,-0.96,-0.53,-1.17,-1.14,-1.14
168.19,-0.27,0.93,-0.25,0.96,-0.96,-1.01,-0.60,-1.24,-1.21,-1.21
169.87,-0.27,1.00,-0.25,1.03,-1.03,-1.07,-0.66,-1.30,-1.28,-1.28
171.57,-0.28,1.06,-0.26,1.08,-1.08,-1.12,-0.73,-1.37,-1.35,-1.35
173.29,-0.29,1.12,-0.28,1.13,-1.13,-1.17,-0.79,-1.43,-1.41,-1.42
175.02,-0.29,1.18,-0.29,1.19,-1.19,-1.22,-0.86,-1.48,-1.48,-1.48
176.77,-0.30,1.24,-0.30,1.24,-1.24,-1.27,-0.92,-1.55,-1.54,-1.54
178.54,-0.30,1.31,-0.30,1.30,-1.30,-1.32,-0.99,-1.60,-1.61,-1.61
180.32,-0.29,1.38,-0.30,1.37,-1.37,-1.37,-1.06,-1.66,-1.67,-1.68
182.13,-0.29,1.44,-0.29,1.44,-1.44,-1.42,-1.13,-1.73,-1.73,-1.73
183.95,-0.28,1.50,-0.27,1.51,-1.51,-1.47,-1.20,-1.79,-1.78,-1.78
185.79,-0.27,1.57,-0.26,1.58,-1.58,-1.52,-1.27,-1.85,-1.84,-1.84
187.65,-0.25,1.64,-0.25,1.64,-1.64,-1.57,-1.34,-1.90,-1.90,-1.89
189.52,-0.23,1.72,-0.24,1.71,-1.71,-1.61,-1.42,-1.94,-1.95,-1.95
191.42,-0.22,1.77,-0.23,1.77,-1.77,-1.66,-1.49,-2.00,-2.00,-1.99
193.33,-0.21,1.83,-0.21,1.84,-1.84,-1.70,-1.56,-2.05,-2.05,-2.05
195.27,-0.19,1.91,-0.20,1.91,-1.91,-1.75,-1.64,-2.10,-2.10,-2.10
197.22,-0.18,1.97,-0.18,1.97,-1.97,-1.79,-1.71,-2.15,-2.15,-2.16
199.19,-0.17,2.03,-0.17,2.03,-2.03,-1.84,-1.79,-2.21,-2.20,-2.20
201.18,-0.16,2.09,-0.16,2.09,-2.09,-1.88,-1.86,-2.25,-2.25,-2.25
203.19,-0.16,2.13,-0.16,2.14,-2.14,-1.92,-1.94,-2.30,-2.29,-2.30
205.23,-0.15,2.18,-0.16,2.18,-2.18,-1.96,-2.01,-2.33,-2.34,-2.34
207.28,-0.15,2.22,-0.17,2.22,-2.22,-2.01,-2.09,-2.37,-2.39,-2.38
209.35,-0.16,2.26,-0.18,2.25,-2.25,-2.05,-2.16,-2.41,-2.43,-2.43
211.44,-0.16,2.31,-0.20,2.27,-2.27,-2.09,-2.23,-2.44,-2.48,-2.47
213.56,-0.16,2.35,-0.22,2.30,-2.30,-2.12,-2.31,-2.46,-2.52,-2.51
215.69,-0.17,2.38,-0.24,2.32,-2.32,-2.16,-2.38,-2.49,-2.56,-2.56
217.85,-0.25,2.34,-0.26,2.33,-2.33,-2.20,-2.45,-2.59,-2.60,-2.59
220.03,-0.31,2.33,-0.29,2.35,-2.35,-2.24,-2.51,-2.66,-2.64,-2.65
222.23,-0.36,2.32,-0.31,2.36,-2.36,-2.27,-2.58,-2.73,-2.67,-2.68
224.45,-0.38,2.33,-0.33,2.38,-2.38,-2.31,-2.64,-2.76,-2.71,-2.71
226.70,-0.38,2.36,-0.34,2.40,-2.40,-2.34,-2.70,-2.78,-2.74,-2.75
228.96,-0.37,2.39,-0.35,2.41,-2.41,-2.37,-2.76,-2.79,-2.76,-2.77
231.25,-0.37,2.41,-0.36,2.43,-2.43,-2.40,-2.81,-2.81,-2.79,-2.79
233.57,-0.36,2.45,-0.36,2.46,-2.46,-2.44,-2.86,-2.82,-2.81,-2.82
235.90,-0.34,2.49,-0.35,2.48,-2.48,-2.46,-2.91,-2.83,-2.83,-2.84
238.26,-0.33,2.52,-0.33,2.52,-2.52,-2.49,-2.95,-2.85,-2.85,-2.86
240.64,-0.31,2.54,-0.31,2.55,-2.55,-2.52,-2.98,-2.87,-2.86,-2.85
243.05,-0.30,2.57,-0.29,2.58,-2.58,-2.55,-3.02,-2.89,-2.87,-2.87
245.48,-0.28,2.60,-0.28,2.60,-2.60,-2.57,-3.04,-2.89,-2.89,-2.89
247.93,-0.25,2.65,-0.27,2.63,-2.63,-2.60,-3.06,-2.88,-2.90,-2.90
250.41,-0.23,2.67,-0.26,2.65,-2.65,-2.62,-3.08,-2.88,-2.91,-2.90
252.92,-0.21,2.69,-0.25,2.67,-2.67,-2.64,-3.09,-2.89,-2.92,-2.91
255.45,-0.20,2.73,-0.24,2.69,-2.69,-2.67,-3.10,-2.89,-2.93,-2.93
258.00,-0.19,2.74,-0.24,2.70,-2.70,-2.69,-3.10,-2.90,-2.94,-2.93
260.58,-0.19,2.75,-0.25,2.71,-2.71,-2.70,-3.10,-2.90,-2.96,-2.95
263.19,-0.22,2.74,-0.26,2.72,-2.72,-2.72,-3.09,-2.94,-2.97,-2.96
265.82,-0.38,2.60,-0.27,2.72,-2.72,-2.74,-3.08,-3.10,-2.99,-2.98
268.48,-0.37,2.62,-0.28,2.72,-2.72,-2.75,-3.07,-3.10,-3.00,-3.00
271.16,-0.31,2.70,-0.29,2.72,-2.72,-2.77,-3.05,-3.04,-3.02,-3.02
273.87,-0.21,2.82,-0.30,2.73,-2.73,-2.78,-3.02,-2.94,-3.03,-3.03
276.61,-0.23,2.82,-0.32,2.73,-2.73,-2.79,-3.00,-2.96,-3.05,-3.05
279.38,-0.37,2.71,-0.33,2.73,-2.73,-2.80,-2.97,-3.10,-3.06,-3.08
282.17,-0.40,2.68,-0.35,2.72,-2.72,-2.81,-2.94,-3.13,-3.07,-3.08
284.99,-0.39,2.70,-0.36,2.72,-2.72,-2.82,-2.91,-3.11,-3.08,-3.09
287.84,-0.38,2.71,-0.38,2.72,-2.72,-2.82,-2.87,-3.10,-3.09,-3.09
290.72,-0.37,2.74,-0.38,2.72,-2.72,-2.83,-2.83,-3.09,-3.10,-3.11
293.63,-0.36,2.74,-0.39,2.72,-2.72,-2.83,-2.80,-3.08,-3.11,-3.11
296.57,-0.35,2.75,-0.39,2.72,-2.72,-2.83,-2.76,-3.08,-3.11,-3.11
299.53,-0.34,2.77,-0.39,2.72,-2.72,-2.83,-2.72,-3.07,-3.12,-3.11
302.53,-0.40,2.71,-0.39,2.73,-2.73,-2.83,-2.68,-3.13,-3.12,-3.11
305.55,-0.51,2.61,-0.39,2.74,-2.74,-2.83,-2.64,-3.25,-3.12,-3.12
308.61,-0.45,2.66,-0.38,2.75,-2.75,-2.83,-2.60,-3.20,-3.13,-3.12
311.69,-0.40,2.73,-0.38,2.75,-2.75,-2.82,-2.57,-3.15,-3.13,-3.13
314.81,-0.39,2.74,-0.40,2.74,-2.74,-2.82,-2.53,-3.13,-3.14,-3.13
317.96,-0.39,2.75,-0.41,2.73,-2.73,-2.81,-2.49,-3.12,-3.14,-3.15
321.14,-0.39,2.75,-0.43,2.71,-2.71,-2.81,-2.46,-3.11,-3.14,-3.14
324.35,-0.38,2.77,-0.45,2.70,-2.70,-2.80,-2.42,-3.08,-3.15,-3.15
327.59,-0.29,2.85,-0.47,2.68,-2.68,-2.79,-2.39,-2.98,-3.15,-3.15
330.87,-0.37,2.78,-0.49,2.67,-2.67,-2.78,-2.36,-3.04,-3.16,-3.15
334.18,-0.47,2.69,-0.49,2.66,-2.66,-2.77,-2.33,-3.14,-3.16,-3.17
337.52,-0.62,2.54,-0.51,2.65,-2.65,-2.75,-2.30,-3.28,-3.16,-3.16
340.90,-0.70,2.46,-0.53,2.63,-2.63,-2.74,-2.27,-3.33,-3.16,-3.17
344.30,-0.67,2.49,-0.57,2.60,-2.60,-2.72,-2.25,-3.27,-3.16,-3.16
347.75,-0.62,2.53,-0.60,2.56,-2.56,-2.71,-2.23,-3.19,-3.16,-3.16
351.23,-0.60,2.57,-0.62,2.54,-2.54,-2.69,-2.20,-3.14,-3.16,-3.17
354.74,-0.60,2.55,-0.63,2.52,-2.52,-2.68,-2.18,-3.13,-3.16,-3.16
358.28,-0.59,2.57,-0.64,2.51,-2.51,-2.66,-2.17,-3.10,-3.15,-3.16
361.87,-0.59,2.56,-0.65,2.50,-2.50,-2.64,-2.15,-3.09,-3.15,-3.15
365.49,-0.58,2.56,-0.65,2.50,-2.50,-2.62,-2.13,-3.08,-3.15,-3.15
369.14,-0.67,2.47,-0.64,2.50,-2.50,-2.60,-2.12,-3.18,-3.14,-3.14
372.83,-0.78,2.35,-0.64,2.50,-2.50,-2.58,-2.11,-3.29,-3.14,-3.13
376.56,-0.72,2.41,-0.64,2.50,-2.50,-2.56,-2.10,-3.22,-3.14,-3.14
380.33,-0.66,2.48,-0.66,2.48,-2.48,-2.54,-2.09,-3.15,-3.14,-3.14
384.13,-0.61,2.52,-0.68,2.46,-2.46,-2.51,-2.09,-3.08,-3.14,-3.13
387.97,-0.53,2.60,-0.70,2.44,-2.44,-2.49,-2.08,-2.98,-3.15,-3.14
391.85,-0.62,2.52,-0.72,2.43,-2.43,-2.47,-2.08,-3.05,-3.15,-3.14
395.77,-0.72,2.43,-0.74,2.42,-2.42,-2.44,-2.08,-3.14,-3.16,-3.15
399.73,-0.74,2.41,-0.76,2.40,-2.40,-2.42,-2.08,-3.14,-3.16,-3.16
403.72,-0.76,2.38,-0.79,2.38,-2.38,-2.39,-2.08,-3.14,-3.17,-3.15
407.76,-0.92,2.25,-0.82,2.35,-2.35,-2.37,-2.08,-3.28,-3.17,-3.17
411.84,-0.94,2.23,-0.83,2.34,-2.34,-2.34,-2.08,-3.29,-3.17,-3.17
415.96,-0.87,2.30,-0.84,2.33,-2.33,-2.31,-2.09,-3.21,-3.18,-3.17
420.12,-0.85,2.33,-0.86,2.32,-2.32,-2.29,-2.09,-3.17,-3.17,-3.19
424.32,-0.84,2.34,-0.86,2.31,-2.31,-2.26,-2.09,-3.15,-3.17,-3.18
428.56,-0.83,2.33,-0.86,2.29,-2.29,-2.24,-2.10,-3.13,-3.15,-3.16
432.85,-0.82,2.32,-0.86,2.27,-2.27,-2.21,-2.10,-3.10,-3.14,-3.14
437.18,-0.92,2.21,-0.85,2.26,-2.26,-2.18,-2.11,-3.19,-3.11,-3.13
441.55,-0.97,2.12,-0.83,2.25,-2.25,-2.15,-2.11,-3.22,-3.08,-3.10
445.96,-0.85,2.20,-0.81,2.23,-2.23,-2.13,-2.12,-3.09,-3.04,-3.06
450.42,-0.69,2.33,-0.78,2.22,-2.22,-2.10,-2.12,-2.91,-3.00,-3.02
454.93,-0.56,2.41,-0.74,2.21,-2.21,-2.07,-2.12,-2.77,-2.95,-2.97
459.48,-0.66,2.25,-0.71,2.19,-2.19,-2.04,-2.13,-2.86,-2.90,-2.91
464.07,-0.67,2.17,-0.69,2.16,-2.16,-2.02,-2.13,-2.83,-2.85,-2.84
468.71,-0.70,2.09,-0.67,2.12,-2.12,-1.99,-2.13,-2.83,-2.80,-2.80
473.40,-0.80,1.93,-0.65,2.09,-2.09,-1.96,-2.13,-2.90,-2.74,-2.74
478.13,-0.69,1.99,-0.62,2.07,-2.07,-1.93,-2.12,-2.77,-2.69,-2.68
482.91,-0.57,2.06,-0.58,2.06,-2.06,-1.91,-2.12,-2.63,-2.64,-2.63
487.74,-0.52,2.07,-0.55,2.05,-2.05,-1.88,-2.11,-2.57,-2.60,-2.59
492.62,-0.49,2.06,-0.52,2.03,-2.03,-1.85,-2.10,-2.53,-2.56,-2.55
497.55,-0.46,2.05,-0.51,2.02,-2.02,-1.82,-2.09,-2.48,-2.52,-2.51
