frequency,raw,error,smoothed,error_smoothed,equalization,parametric_eq,fixed_band_eq,equalized_raw,equalized_smoothed,target
20.00,6.22,-6.11,6.22,-6.14,6.14,5.76,2.44,12.35,12.35,12.33
20.20,6.27,-6.10,6.26,-6.12,6.12,5.75,2.51,12.39,12.38,12.37
20.40,6.31,-6.10,6.31,-6.10,6.10,5.73,2.58,12.41,12.41,12.41
20.61,6.36,-6.08,6.36,-6.08,6.08,5.72,2.65,12.44,12.44,12.44
20.81,6.41,-6.07,6.41,-6.06,6.06,5.71,2.73,12.47,12.47,12.48
21.02,6.45,-6.07,6.46,-6.04,6.04,5.70,2.81,12.49,12.50,12.52
21.23,6.50,-6.04,6.51,-6.01,6.01,5.69,2.89,12.51,12.52,12.54
21.44,6.55,-6.01,6.55,-5.99,5.99,5.67,2.97,12.54,12.54,12.56
21.66,6.60,-5.98,6.60,-5.96,5.96,5.66,3.05,12.56,12.56,12.58
21.87,6.65,-5.94,6.65,-5.93,5.93,5.65,3.14,12.59,12.58,12.59
22.09,6.70,-5.91,6.70,-5.91,5.91,5.63,3.23,12.61,12.60,12.61
22.31,6.75,-5.87,6.74,-5.87,5.87,5.62,3.32,12.63,12.62,12.62
22.54,6.79,-5.84,6.79,-5.84,5.84,5.60,3.41,12.63,12.63,12.63
22.76,6.84,-5.80,6.84,-5.80,5.80,5.59,3.51,12.64,12.64,12.64
22.99,6.89,-5.75,6.89,-5.76,5.76,5.57,3.61,12.65,12.65,12.64
23.22,6.93,-5.72,6.93,-5.72,5.72,5.56,3.71,12.65,12.66,12.65
23.45,6.98,-5.68,6.98,-5.69,5.69,5.54,3.81,12.67,12.67,12.66
23.69,7.03,-5.64,7.03,-5.65,5.65,5.53,3.92,12.68,12.68,12.67
23.92,7.07,-5.61,7.07,-5.61,5.61,5.51,4.02,12.68,12.68,12.68
24.16,7.12,-5.58,7.12,-5.57,5.57,5.49,4.13,12.69,12.69,12.70
24.40,7.17,-5.55,7.17,-5.54,5.54,5.48,4.24,12.71,12.70,12.72
24.65,7.21,-5.50,7.21,-5.50,5.50,5.46,4.36,12.71,12.71,12.71
24.89,7.26,-5.46,7.26,-5.46,5.46,5.44,4.47,12.72,12.72,12.72
25.14,7.31,-5.42,7.31,-5.43,5.43,5.42,4.59,12.74,12.73,12.73
25.39,7.35,-5.39,7.35,-5.39,5.39,5.41,4.70,12.74,12.74,12.74
25.65,7.40,-5.36,7.40,-5.36,5.36,5.39,4.82,12.76,12.75,12.76
25.91,7.44,-5.32,7.44,-5.32,5.32,5.37,4.93,12.76,12.76,12.76
26.16,7.49,-5.28,7.49,-5.29,5.29,5.35,5.05,12.78,12.77,12.77
26.43,7.53,-5.25,7.53,-5.25,5.25,5.33,5.16,12.78,12.78,12.78
26.69,7.58,-5.21,7.58,-5.21,5.21,5.31,5.28,12.79,12.79,12.79
26.96,7.62,-5.19,7.62,-5.18,5.18,5.29,5.39,12.80,12.80,12.81
27.23,7.67,-5.15,7.67,-5.14,5.14,5.27,5.50,12.81,12.81,12.82
27.50,7.71,-5.11,7.71,-5.11,5.11,5.25,5.61,12.82,12.82,12.82
27.77,7.75,-5.07,7.76,-5.07,5.07,5.22,5.71,12.82,12.83,12.82
28.05,7.80,-5.04,7.80,-5.04,5.04,5.20,5.81,12.84,12.84,12.84
28.33,7.84,-5.00,7.84,-5.00,5.00,5.18,5.90,12.84,12.84,12.84
28.62,7.88,-4.97,7.88,-4.97,4.97,5.16,5.99,12.85,12.85,12.85
28.90,7.93,-4.93,7.93,-4.93,4.93,5.13,6.07,12.86,12.86,12.86
29.19,7.97,-4.89,7.97,-4.90,4.90,5.11,6.14,12.87,12.87,12.86
29.48,8.01,-4.88,8.01,-4.87,4.87,5.09,6.20,12.88,12.87,12.89
29.78,8.05,-4.83,8.04,-4.84,4.84,5.06,6.26,12.89,12.88,12.88
30.08,8.09,-4.80,8.08,-4.80,4.80,5.04,6.31,12.89,12.89,12.89
30.38,8.12,-4.77,8.12,-4.77,4.77,5.01,6.35,12.89,12.89,12.89
30.68,8.16,-4.75,8.16,-4.75,4.75,4.99,6.37,12.91,12.90,12.91
30.99,8.19,-4.72,8.19,-4.72,4.72,4.96,6.39,12.91,12.91,12.91
31.30,8.22,-4.69,8.23,-4.69,4.69,4.94,6.40,12.91,12.92,12.91
31.61,8.26,-4.66,8.26,-4.66,4.66,4.91,6.39,12.92,12.92,12.92
31.93,8.29,-4.64,8.30,-4.63,4.63,4.88,6.38,12.92,12.93,12.93
32.24,8.33,-4.60,8.33,-4.61,4.61,4.86,6.36,12.94,12.94,12.93
32.57,8.36,-4.59,8.36,-4.58,4.58,4.83,6.32,12.94,12.94,12.95
32.89,8.40,-4.55,8.40,-4.55,4.55,4.80,6.28,12.95,12.95,12.95
33.22,8.43,-4.53,8.43,-4.53,4.53,4.77,6.23,12.96,12.96,12.96
33.55,8.47,-4.50,8.47,-4.50,4.50,4.74,6.17,12.97,12.97,12.97
33.89,8.50,-4.48,8.50,-4.47,4.47,4.71,6.10,12.97,12.97,12.98
34.23,8.53,-4.45,8.53,-4.45,4.45,4.68,6.03,12.98,12.98,12.98
34.57,8.57,-4.42,8.57,-4.42,4.42,4.65,5.95,12.99,12.99,12.99
34.92,8.60,-4.39,8.60,-4.39,4.39,4.62,5.86,12.99,12.99,12.99
35.27,8.63,-4.37,8.63,-4.37,4.37,4.59,5.77,13.00,13.00,13.00
35.62,8.66,-4.34,8.66,-4.34,4.34,4.56,5.68,13.00,13.00,13.00
35.97,8.69,-4.31,8.69,-4.31,4.31,4.53,5.59,13.00,13.00,13.00
36.33,8.72,-4.29,8.72,-4.28,4.28,4.50,5.49,13.00,13.00,13.01
36.70,8.75,-4.25,8.75,-4.26,4.26,4.47,5.39,13.01,13.01,13.00
37.06,8.77,-4.24,8.77,-4.23,4.23,4.43,5.29,13.00,13.01,13.01
37.43,8.80,-4.21,8.80,-4.21,4.21,4.40,5.18,13.01,13.01,13.01
37.81,8.83,-4.18,8.82,-4.18,4.18,4.37,5.08,13.01,13.00,13.01
38.19,8.85,-4.16,8.84,-4.16,4.16,4.33,4.98,13.01,13.00,13.01
38.57,8.87,-4.13,8.86,-4.14,4.14,4.30,4.88,13.01,13.00,13.00
38.95,8.89,-4.11,8.89,-4.11,4.11,4.26,4.78,13.00,13.00,13.00
39.34,8.90,-4.09,8.90,-4.09,4.09,4.23,4.68,12.99,13.00,12.99
39.74,8.92,-4.07,8.92,-4.07,4.07,4.19,4.58,12.99,12.99,12.99
40.14,8.94,-4.05,8.94,-4.05,4.05,4.16,4.49,12.99,12.99,12.99
40.54,8.96,-4.03,8.96,-4.03,4.03,4.12,4.39,12.99,12.99,12.99
40.94,8.98,-4.00,8.98,-4.01,4.01,4.08,4.30,12.99,12.99,12.98
41.35,8.99,-3.99,9.00,-3.99,3.99,4.05,4.21,12.98,12.98,12.98
41.76,9.01,-3.97,9.01,-3.97,3.97,4.01,4.13,12.98,12.98,12.98
42.18,9.03,-3.95,9.03,-3.94,3.94,3.97,4.05,12.97,12.98,12.98
42.60,9.05,-3.93,9.05,-3.92,3.92,3.93,3.97,12.97,12.97,12.98
43.03,9.07,-3.91,9.07,-3.90,3.90,3.90,3.89,12.97,12.97,12.98
43.46,9.09,-3.89,9.09,-3.87,3.87,3.86,3.81,12.96,12.97,12.98
43.90,9.11,-3.85,9.12,-3.85,3.85,3.82,3.74,12.96,12.97,12.96
44.33,9.14,-3.82,9.14,-3.83,3.83,3.78,3.67,12.97,12.96,12.96
44.78,9.16,-3.79,9.16,-3.80,3.80,3.74,3.61,12.96,12.96,12.95
45.23,9.18,-3.77,9.18,-3.78,3.78,3.70,3.55,12.96,12.96,12.95
45.68,9.20,-3.75,9.20,-3.75,3.75,3.66,3.49,12.95,12.95,12.95
46.13,9.22,-3.72,9.22,-3.73,3.73,3.62,3.43,12.95,12.95,12.94
46.60,9.24,-3.71,9.24,-3.71,3.71,3.57,3.37,12.95,12.94,12.95
47.06,9.26,-3.68,9.25,-3.68,3.68,3.53,3.32,12.94,12.94,12.94
47.53,9.28,-3.65,9.27,-3.66,3.66,3.49,3.27,12.94,12.93,12.93
48.01,9.29,-3.65,9.29,-3.63,3.63,3.45,3.23,12.92,12.92,12.94
48.49,9.30,-3.62,9.30,-3.61,3.61,3.40,3.18,12.91,12.91,12.92
48.97,9.32,-3.58,9.32,-3.58,3.58,3.36,3.14,12.90,12.90,12.90
49.46,9.33,-3.56,9.33,-3.56,3.56,3.32,3.10,12.89,12.89,12.89
49.96,9.35,-3.52,9.35,-3.53,3.53,3.27,3.06,12.88,12.88,12.87
50.46,9.36,-3.51,9.37,-3.50,3.50,3.23,3.03,12.86,12.86,12.87
50.96,9.38,-3.47,9.38,-3.47,3.47,3.18,2.99,12.85,12.85,12.85
51.47,9.40,-3.42,9.40,-3.43,3.43,3.14,2.96,12.83,12.83,12.82
51.99,9.42,-3.39,9.42,-3.40,3.40,3.09,2.93,12.82,12.81,12.81
52.51,9.44,-3.36,9.44,-3.36,3.36,3.05,2.90,12.80,12.80,12.80
53.03,9.45,-3.33,9.46,-3.32,3.32,3.00,2.87,12.77,12.78,12.78
53.56,9.47,-3.30,9.48,-3.28,3.28,2.95,2.84,12.75,12.76,12.77
54.10,9.49,-3.25,9.50,-3.24,3.24,2.91,2.82,12.73,12.74,12.74
54.64,9.52,-3.21,9.52,-3.21,3.21,2.86,2.79,12.73,12.72,12.73
55.18,9.54,-3.16,9.54,-3.17,3.17,2.81,2.76,12.71,12.70,12.70
55.74,9.57,-3.10,9.56,-3.13,3.13,2.77,2.74,12.69,12.68,12.67
56.29,9.59,-3.08,9.58,-3.08,3.08,2.72,2.71,12.67,12.66,12.67
56.86,9.61,-3.03,9.60,-3.04,3.04,2.67,2.68,12.65,12.64,12.64
57.42,9.64,-2.97,9.63,-2.99,2.99,2.62,2.65,12.63,12.62,12.61
58.00,9.66,-2.93,9.66,-2.94,2.94,2.57,2.62,12.60,12.60,12.59
58.58,9.68,-2.89,9.69,-2.88,2.88,2.52,2.60,12.56,12.57,12.57
59.16,9.70,-2.85,9.72,-2.82,2.82,2.47,2.56,12.52,12.54,12.55
59.76,9.74,-2.79,9.75,-2.76,2.76,2.42,2.53,12.50,12.51,12.53
60.35,9.77,-2.73,9.79,-2.70,2.70,2.37,2.50,12.47,12.49,12.50
60.96,9.82,-2.65,9.82,-2.63,2.63,2.32,2.46,12.45,12.45,12.47
61.57,9.86,-2.56,9.86,-2.56,2.56,2.27,2.42,12.42,12.42,12.42
62.18,9.90,-2.48,9.90,-2.49,2.49,2.22,2.38,12.39,12.39,12.38
62.80,9.95,-2.41,9.94,-2.41,2.41,2.17,2.34,12.36,12.35,12.36
63.43,10.00,-2.31,9.99,-2.33,2.33,2.12,2.30,12.33,12.32,12.31
64.07,10.04,-2.23,10.03,-2.25,2.25,2.07,2.25,12.29,12.28,12.27
64.71,10.08,-2.16,10.08,-2.17,2.17,2.01,2.21,12.25,12.24,12.24
65.35,10.12,-2.08,10.12,-2.08,2.08,1.96,2.16,12.20,12.20,12.20
66.01,10.16,-2.00,10.17,-2.00,2.00,1.91,2.11,12.16,12.16,12.16
66.67,10.21,-1.92,10.21,-1.91,1.91,1.86,2.05,12.12,12.12,12.13
67.33,10.25,-1.84,10.25,-1.83,1.83,1.80,2.00,12.08,12.08,12.09
68.01,10.29,-1.76,10.29,-1.75,1.75,1.75,1.94,12.04,12.05,12.05
68.69,10.33,-1.68,10.33,-1.68,1.68,1.70,1.88,12.01,12.01,12.01
69.37,10.38,-1.59,10.37,-1.60,1.60,1.64,1.83,11.98,11.97,11.97
70.07,10.42,-1.51,10.41,-1.52,1.52,1.59,1.76,11.94,11.93,11.93
70.77,10.46,-1.43,10.45,-1.44,1.44,1.54,1.70,11.90,11.89,11.89
71.48,10.49,-1.37,10.49,-1.37,1.37,1.48,1.64,11.85,11.85,11.86
72.19,10.53,-1.28,10.53,-1.29,1.29,1.43,1.58,11.82,11.81,11.81
72.91,10.56,-1.22,10.57,-1.21,1.21,1.38,1.51,11.77,11.78,11.78
73.64,10.59,-1.15,10.61,-1.14,1.14,1.32,1.45,11.73,11.74,11.74
74.38,10.63,-1.08,10.65,-1.06,1.06,1.27,1.38,11.69,11.71,11.71
75.12,10.68,-0.99,10.69,-0.99,0.99,1.21,1.32,11.67,11.67,11.67
75.87,10.72,-0.92,10.73,-0.92,0.92,1.16,1.25,11.64,11.64,11.64
76.63,10.76,-0.85,10.76,-0.85,0.85,1.10,1.18,11.61,11.61,11.61
77.40,10.80,-0.78,10.80,-0.78,0.78,1.05,1.12,11.58,11.58,11.58
78.17,10.84,-0.71,10.84,-0.71,0.71,0.99,1.05,11.55,11.55,11.55
78.95,10.88,-0.64,10.87,-0.65,0.65,0.94,0.98,11.53,11.52,11.52
79.74,10.92,-0.58,10.91,-0.59,0.59,0.88,0.92,11.51,11.50,11.50
80.54,10.95,-0.53,10.94,-0.54,0.54,0.83,0.85,11.49,11.47,11.48
81.35,10.98,-0.47,10.97,-0.48,0.48,0.77,0.78,11.46,11.45,11.45
82.16,11.01,-0.41,10.99,-0.43,0.43,0.71,0.72,11.44,11.42,11.42
82.98,11.03,-0.38,11.02,-0.39,0.39,0.66,0.65,11.42,11.40,11.41
83.81,11.04,-0.34,11.04,-0.34,0.34,0.60,0.58,11.38,11.38,11.38
84.65,11.05,-0.30,11.06,-0.30,0.30,0.55,0.52,11.35,11.36,11.35
85.50,11.06,-0.28,11.08,-0.26,0.26,0.49,0.45,11.32,11.34,11.34
86.35,11.09,-0.23,11.10,-0.22,0.22,0.43,0.39,11.31,11.32,11.32
87.22,11.11,-0.19,11.12,-0.18,0.18,0.38,0.32,11.29,11.30,11.30
88.09,11.13,-0.15,11.14,-0.14,0.14,0.32,0.26,11.27,11.28,11.28
88.97,11.16,-0.10,11.16,-0.10,0.10,0.27,0.19,11.26,11.26,11.26
89.86,11.18,-0.07,11.18,-0.06,0.06,0.21,0.13,11.24,11.24,11.25
90.76,11.20,-0.02,11.21,-0.02,0.02,0.15,0.06,11.22,11.22,11.22
91.66,11.22,0.02,11.23,0.03,-0.03,0.10,-0.00,11.19,11.20,11.20
92.58,11.25,0.07,11.26,0.08,-0.08,0.04,-0.07,11.17,11.18,11.18
93.51,11.28,0.11,11.29,0.13,-0.13,-0.01,-0.13,11.15,11.16,11.17
94.44,11.31,0.16,11.32,0.17,-0.17,-0.07,-0.20,11.14,11.14,11.15
95.39,11.34,0.21,11.34,0.22,-0.22,-0.13,-0.26,11.12,11.12,11.13
96.34,11.37,0.27,11.36,0.27,-0.27,-0.18,-0.32,11.10,11.10,11.10
97.30,11.40,0.33,11.38,0.31,-0.31,-0.24,-0.39,11.09,11.07,11.07
98.28,11.42,0.38,11.40,0.35,-0.35,-0.29,-0.45,11.07,11.05,11.04
99.26,11.43,0.41,11.41,0.39,-0.39,-0.35,-0.52,11.04,11.02,11.02
100.25,11.44,0.45,11.42,0.43,-0.43,-0.40,-0.58,11.01,10.99,10.99
101.25,11.45,0.49,11.43,0.47,-0.47,-0.46,-0.64,10.98,10.96,10.96
102.27,11.44,0.52,11.44,0.51,-0.51,-0.51,-0.70,10.93,10.93,10.92
103.29,11.43,0.54,11.44,0.55,-0.55,-0.57,-0.77,10.88,10.89,10.89
104.32,11.43,0.57,11.44,0.59,-0.59,-0.62,-0.83,10.84,10.85,10.86
105.37,11.43,0.61,11.44,0.62,-0.62,-0.68,-0.89,10.81,10.81,10.82
106.42,11.42,0.65,11.43,0.66,-0.66,-0.73,-0.95,10.76,10.77,10.77
107.48,11.42,0.68,11.43,0.70,-0.70,-0.79,-1.01,10.72,10.73,10.74
108.56,11.42,0.74,11.43,0.75,-0.75,-0.84,-1.07,10.67,10.68,10.68
109.64,11.42,0.79,11.42,0.80,-0.80,-0.90,-1.12,10.62,10.63,10.63
110.74,11.42,0.84,11.42,0.85,-0.85,-0.95,-1.18,10.57,10.57,10.58
111.85,11.42,0.89,11.42,0.90,-0.90,-1.01,-1.24,10.52,10.52,10.53
112.97,11.42,0.96,11.42,0.96,-0.96,-1.06,-1.29,10.46,10.46,10.46
114.10,11.42,1.01,11.42,1.01,-1.01,-1.11,-1.34,10.41,10.40,10.41
115.24,11.42,1.07,11.42,1.07,-1.07,-1.17,-1.39,10.35,10.35,10.35
116.39,11.42,1.14,11.42,1.13,-1.13,-1.22,-1.44,10.29,10.29,10.28
117.55,11.42,1.20,11.42,1.19,-1.19,-1.27,-1.49,10.23,10.23,10.22
118.73,11.42,1.26,11.42,1.25,-1.25,-1.33,-1.54,10.17,10.17,10.16
119.92,11.42,1.31,11.42,1.31,-1.31,-1.38,-1.58,10.11,10.11,10.11
121.12,11.42,1.37,11.42,1.36,-1.36,-1.43,-1.62,10.06,10.06,10.05
122.33,11.42,1.42,11.42,1.42,-1.42,-1.48,-1.66,10.00,10.00,10.00
123.55,11.42,1.47,11.42,1.47,-1.47,-1.53,-1.70,9.95,9.95,9.95
124.79,11.42,1.52,11.42,1.52,-1.52,-1.59,-1.74,9.89,9.89,9.90
126.03,11.42,1.57,11.42,1.57,-1.57,-1.64,-1.77,9.85,9.85,9.85
127.29,11.42,1.62,11.42,1.62,-1.62,-1.69,-1.80,9.79,9.79,9.80
128.57,11.42,1.68,11.42,1.67,-1.67,-1.74,-1.83,9.75,9.75,9.74
129.85,11.42,1.72,11.42,1.72,-1.72,-1.79,-1.86,9.70,9.70,9.70
131.15,11.42,1.77,11.42,1.76,-1.76,-1.84,-1.89,9.66,9.66,9.65
132.46,11.42,1.81,11.42,1.81,-1.81,-1.89,-1.92,9.61,9.61,9.61
133.79,11.42,1.85,11.42,1.85,-1.85,-1.94,-1.94,9.57,9.57,9.57
135.12,11.42,1.89,11.42,1.89,-1.89,-1.99,-1.96,9.53,9.53,9.53
136.48,11.42,1.93,11.42,1.93,-1.93,-2.03,-1.98,9.49,9.49,9.49
137.84,11.42,1.97,11.42,1.97,-1.97,-2.08,-2.00,9.45,9.45,9.45
139.22,11.42,2.02,11.42,2.01,-2.01,-2.13,-2.02,9.41,9.41,9.40
140.61,11.42,2.06,11.42,2.05,-2.05,-2.18,-2.04,9.37,9.37,9.36
142.02,11.42,2.08,11.42,2.09,-2.09,-2.22,-2.06,9.33,9.33,9.34
143.44,11.42,2.12,11.42,2.12,-2.12,-2.27,-2.08,9.30,9.30,9.30
144.87,11.42,2.16,11.42,2.16,-2.16,-2.32,-2.10,9.26,9.26,9.26
146.32,11.42,2.20,11.42,2.20,-2.20,-2.36,-2.12,9.22,9.22,9.22
147.78,11.42,2.23,11.42,2.24,-2.24,-2.41,-2.14,9.18,9.18,9.19
149.26,11.42,2.26,11.42,2.28,-2.28,-2.45,-2.16,9.14,9.14,9.16
150.75,11.42,2.32,11.42,2.32,-2.32,-2.50,-2.18,9.10,9.10,9.10
152.26,11.42,2.36,11.42,2.36,-2.36,-2.54,-2.20,9.06,9.06,9.06
153.78,11.42,2.39,11.42,2.40,-2.40,-2.58,-2.23,9.02,9.02,9.03
155.32,11.42,2.45,11.42,2.44,-2.44,-2.63,-2.25,8.98,8.98,8.97
156.88,11.42,2.48,11.42,2.49,-2.49,-2.67,-2.28,8.93,8.93,8.94
158.44,11.42,2.53,11.42,2.53,-2.53,-2.71,-2.30,8.89,8.89,8.89
160.03,11.42,2.58,11.42,2.58,-2.58,-2.75,-2.33,8.84,8.84,8.84
161.63,11.42,2.63,11.42,2.62,-2.62,-2.79,-2.36,8.80,8.80,8.79
163.24,11.42,2.67,11.42,2.67,-2.67,-2.83,-2.39,8.75,8.75,8.75
164.88,11.42,2.71,11.42,2.71,-2.71,-2.87,-2.43,8.70,8.70,8.71
166.53,11.42,2.76,11.42,2.76,-2.76,-2.91,-2.46,8.66,8.66,8.66
168.19,11.42,2.81,11.42,2.81,-2.81,-2.95,-2.50,8.61,8.61,8.61
169.87,11.42,2.86,11.42,2.86,-2.86,-2.99,-2.54,8.56,8.56,8.56
171.57,11.42,2.90,11.42,2.91,-2.91,-3.02,-2.58,8.51,8.51,8.52
173.29,11.42,2.96,11.42,2.96,-2.96,-3.06,-2.62,8.46,8.46,8.46
175.02,11.42,3.01,11.42,3.02,-3.02,-3.10,-2.67,8.40,8.40,8.41
176.77,11.42,3.07,11.42,3.07,-3.07,-3.13,-2.72,8.35,8.35,8.35
178.54,11.42,3.12,11.42,3.12,-3.12,-3.17,-2.77,8.30,8.30,8.30
180.32,11.42,3.18,11.42,3.18,-3.18,-3.20,-2.82,8.24,8.24,8.24
182.13,11.42,3.23,11.42,3.23,-3.23,-3.24,-2.88,8.19,8.19,8.19
183.95,11.42,3.29,11.42,3.29,-3.29,-3.27,-2.93,8.13,8.13,8.13
185.79,11.42,3.34,11.42,3.35,-3.35,-3.30,-2.99,8.07,8.07,8.08
187.65,11.42,3.41,11.42,3.40,-3.40,-3.33,-3.05,8.02,8.02,8.01
189.52,11.42,3.46,11.42,3.45,-3.45,-3.36,-3.12,7.97,7.96,7.96
191.42,11.42,3.51,11.42,3.51,-3.51,-3.39,-3.18,7.91,7.91,7.91
193.33,11.42,3.56,11.42,3.56,-3.56,-3.42,-3.25,7.86,7.86,7.86
195.27,11.42,3.61,11.42,3.61,-3.61,-3.45,-3.32,7.81,7.81,7.81
197.22,11.42,3.67,11.42,3.67,-3.67,-3.48,-3.39,7.75,7.75,7.75
199.19,11.42,3.72,11.42,3.72,-3.72,-3.51,-3.46,7.70,7.70,7.70
201.18,11.42,3.77,11.43,3.77,-3.77,-3.53,-3.53,7.65,7.66,7.65
203.19,11.42,3.80,11.43,3.82,-3.82,-3.56,-3.60,7.60,7.61,7.62
205.23,11.42,3.86,11.44,3.87,-3.87,-3.58,-3.68,7.55,7.56,7.56
207.28,11.42,3.88,11.44,3.92,-3.92,-3.61,-3.75,7.50,7.52,7.54
209.35,11.43,3.95,11.44,3.96,-3.96,-3.63,-3.82,7.47,7.48,7.48
211.44,11.44,4.01,11.44,4.00,-4.00,-3.66,-3.90,7.44,7.44,7.43
213.56,11.45,4.06,11.44,4.04,-4.04,-3.68,-3.97,7.41,7.40,7.39
215.69,11.45,4.08,11.43,4.07,-4.07,-3.70,-4.04,7.38,7.36,7.37
217.85,11.44,4.11,11.42,4.09,-4.09,-3.72,-4.11,7.35,7.33,7.33
220.03,11.43,4.14,11.41,4.11,-4.11,-3.74,-4.18,7.32,7.29,7.29
222.23,11.41,4.15,11.39,4.13,-4.13,-3.76,-4.25,7.28,7.26,7.26
224.45,11.39,4.15,11.37,4.13,-4.13,-3.78,-4.31,7.26,7.24,7.24
226.70,11.35,4.14,11.35,4.14,-4.14,-3.79,-4.37,7.21,7.21,7.21
228.96,11.32,4.14,11.32,4.13,-4.13,-3.81,-4.42,7.19,7.19,7.18
231.25,11.29,4.12,11.29,4.12,-4.12,-3.83,-4.47,7.17,7.17,7.17
233.57,11.26,4.11,11.26,4.10,-4.10,-3.84,-4.52,7.16,7.15,7.15
235.90,11.21,4.07,11.23,4.09,-4.09,-3.85,-4.56,7.12,7.14,7.14
238.26,11.19,4.06,11.20,4.07,-4.07,-3.87,-4.60,7.12,7.13,7.13
240.64,11.16,4.04,11.17,4.05,-4.05,-3.88,-4.62,7.11,7.12,7.12
243.05,11.14,4.02,11.15,4.03,-4.03,-3.89,-4.65,7.11,7.12,7.12
245.48,11.11,4.00,11.13,4.01,-4.01,-3.90,-4.66,7.10,7.11,7.11
247.93,11.09,3.98,11.11,4.00,-4.00,-3.91,-4.67,7.09,7.11,7.11
250.41,11.08,3.97,11.10,3.99,-3.99,-3.92,-4.67,7.09,7.11,7.11
252.92,11.08,3.96,11.09,3.97,-3.97,-3.93,-4.67,7.11,7.12,7.12
255.45,11.08,3.95,11.09,3.96,-3.96,-3.93,-4.65,7.12,7.13,7.13
258.00,11.09,3.95,11.08,3.95,-3.95,-3.94,-4.64,7.14,7.13,7.14
260.58,11.10,3.96,11.08,3.94,-3.94,-3.94,-4.61,7.16,7.14,7.14
263.19,11.10,3.95,11.09,3.93,-3.93,-3.95,-4.58,7.17,7.15,7.15
265.82,11.10,3.94,11.09,3.93,-3.93,-3.95,-4.54,7.17,7.16,7.16
268.48,11.10,3.92,11.10,3.92,-3.92,-3.95,-4.50,7.18,7.18,7.18
271.16,11.10,3.90,11.10,3.91,-3.91,-3.95,-4.45,7.19,7.19,7.20
273.87,11.10,3.90,11.11,3.91,-3.91,-3.95,-4.40,7.19,7.20,7.20
276.61,11.10,3.87,11.11,3.90,-3.90,-3.95,-4.34,7.20,7.22,7.23
279.38,11.10,3.87,11.12,3.89,-3.89,-3.95,-4.28,7.21,7.23,7.23
282.17,11.11,3.86,11.12,3.87,-3.87,-3.95,-4.21,7.24,7.24,7.25
284.99,11.12,3.86,11.11,3.86,-3.86,-3.94,-4.14,7.26,7.26,7.26
287.84,11.12,3.85,11.11,3.84,-3.84,-3.94,-4.07,7.28,7.27,7.27
290.72,11.12,3.84,11.10,3.81,-3.81,-3.93,-4.00,7.31,7.29,7.28
293.63,11.11,3.81,11.09,3.79,-3.79,-3.93,-3.93,7.32,7.30,7.30
296.57,11.09,3.77,11.07,3.76,-3.76,-3.92,-3.86,7.33,7.31,7.32
299.53,11.07,3.75,11.05,3.73,-3.73,-3.91,-3.78,7.34,7.33,7.32
302.53,11.04,3.71,11.03,3.69,-3.69,-3.90,-3.71,7.35,7.34,7.33
305.55,11.01,3.66,11.00,3.65,-3.65,-3.89,-3.63,7.36,7.35,7.35
308.61,10.98,3.62,10.98,3.62,-3.62,-3.88,-3.56,7.36,7.36,7.36
311.69,10.94,3.57,10.95,3.58,-3.58,-3.86,-3.48,7.36,7.37,7.37
314.81,10.92,3.52,10.92,3.54,-3.54,-3.85,-3.41,7.38,7.38,7.40
317.96,10.89,3.50,10.89,3.50,-3.50,-3.83,-3.34,7.39,7.39,7.39
321.14,10.85,3.45,10.87,3.47,-3.47,-3.82,-3.27,7.38,7.40,7.40
324.35,10.82,3.42,10.85,3.44,-3.44,-3.80,-3.20,7.38,7.40,7.40
327.59,10.79,3.38,10.83,3.42,-3.42,-3.78,-3.14,7.37,7.41,7.41
330.87,10.78,3.37,10.81,3.40,-3.40,-3.76,-3.07,7.38,7.41,7.41
334.18,10.77,3.36,10.80,3.38,-3.38,-3.74,-3.01,7.39,7.42,7.41
337.52,10.78,3.36,10.78,3.37,-3.37,-3.72,-2.95,7.41,7.42,7.42
340.90,10.78,3.36,10.77,3.35,-3.35,-3.69,-2.89,7.43,7.42,7.42
344.30,10.78,3.36,10.76,3.34,-3.34,-3.67,-2.83,7.44,7.42,7.42
347.75,10.77,3.35,10.74,3.33,-3.33,-3.64,-2.78,7.44,7.42,7.42
351.23,10.76,3.34,10.73,3.32,-3.32,-3.61,-2.73,7.44,7.41,7.42
354.74,10.74,3.32,10.71,3.30,-3.30,-3.59,-2.68,7.44,7.41,7.42
358.28,10.71,3.31,10.70,3.29,-3.29,-3.56,-2.63,7.42,7.41,7.40
361.87,10.68,3.28,10.68,3.27,-3.27,-3.53,-2.59,7.41,7.40,7.40
365.49,10.65,3.25,10.65,3.26,-3.26,-3.49,-2.54,7.39,7.40,7.40
369.14,10.62,3.23,10.62,3.23,-3.23,-3.46,-2.50,7.39,7.39,7.39
372.83,10.59,3.20,10.60,3.21,-3.21,-3.43,-2.46,7.38,7.38,7.39
376.56,10.55,3.17,10.57,3.19,-3.19,-3.39,-2.43,7.36,7.38,7.38
380.33,10.53,3.16,10.54,3.17,-3.17,-3.35,-2.39,7.36,7.37,7.37
384.13,10.51,3.15,10.51,3.15,-3.15,-3.31,-2.36,7.36,7.36,7.36
387.97,10.48,3.13,10.48,3.13,-3.13,-3.27,-2.33,7.35,7.36,7.35
391.85,10.44,3.10,10.46,3.11,-3.11,-3.23,-2.30,7.33,7.35,7.34
395.77,10.41,3.06,10.43,3.09,-3.09,-3.19,-2.27,7.32,7.34,7.35
399.73,10.39,3.05,10.40,3.06,-3.06,-3.15,-2.24,7.33,7.34,7.34
403.72,10.37,3.04,10.37,3.04,-3.04,-3.10,-2.22,7.33,7.33,7.33
407.76,10.35,3.03,10.33,3.01,-3.01,-3.05,-2.19,7.34,7.32,7.32
411.84,10.33,3.00,10.30,2.98,-2.98,-3.00,-2.17,7.35,7.32,7.33
415.96,10.29,2.98,10.26,2.95,-2.95,-2.95,-2.14,7.34,7.31,7.31
420.12,10.24,2.93,10.22,2.91,-2.91,-2.90,-2.12,7.33,7.31,7.31
424.32,10.19,2.88,10.18,2.88,-2.88,-2.85,-2.10,7.31,7.31,7.31
428.56,10.14,2.84,10.14,2.84,-2.84,-2.79,-2.07,7.30,7.31,7.30
432.85,10.09,2.79,10.10,2.80,-2.80,-2.74,-2.05,7.29,7.30,7.30
437.18,10.04,2.74,10.06,2.76,-2.76,-2.68,-2.03,7.28,7.30,7.30
441.55,10.00,2.69,10.01,2.71,-2.71,-2.62,-2.00,7.29,7.30,7.31
445.96,9.95,2.64,9.97,2.66,-2.66,-2.55,-1.97,7.29,7.30,7.31
450.42,9.91,2.61,9.92,2.61,-2.61,-2.49,-1.94,7.29,7.31,7.30
454.93,9.87,2.56,9.87,2.57,-2.57,-2.42,-1.91,7.30,7.31,7.31
459.48,9.83,2.52,9.83,2.52,-2.52,-2.36,-1.88,7.31,7.31,7.31
464.07,9.79,2.47,9.78,2.46,-2.46,-2.28,-1.85,7.33,7.32,7.32
468.71,9.74,2.41,9.73,2.41,-2.41,-2.21,-1.81,7.33,7.32,7.33
473.40,9.68,2.36,9.68,2.36,-2.36,-2.14,-1.77,7.32,7.33,7.32
478.13,9.63,2.30,9.63,2.30,-2.30,-2.06,-1.72,7.33,7.33,7.33
