frequency,raw,error,smoothed,error_smoothed,equalization,parametric_eq,fixed_band_eq,equalized_raw,equalized_smoothed,target
20.00,-26.88,-18.91,-26.92,-18.95,18.95,17.83,7.70,-7.94,-7.98,-7.97
20.20,-26.79,-18.81,-26.82,-18.84,18.84,17.89,7.86,-7.95,-7.98,-7.98
20.40,-26.70,-18.72,-26.72,-18.73,18.73,17.94,8.02,-7.97,-7.99,-7.98
20.61,-26.61,-18.62,-26.61,-18.62,18.62,17.98,8.19,-7.98,-7.99,-7.98
20.81,-26.51,-18.51,-26.51,-18.52,18.52,18.01,8.37,-8.00,-7.99,-8.00
21.02,-26.42,-18.42,-26.40,-18.41,18.41,18.03,8.55,-8.02,-8.00,-8.00
21.23,-26.32,-18.32,-26.29,-18.30,18.30,18.04,8.73,-8.03,-8.00,-8.00
21.44,-26.22,-18.23,-26.18,-18.18,18.18,18.04,8.92,-8.04,-8.00,-7.99
21.66,-26.13,-18.12,-26.07,-18.07,18.07,18.03,9.11,-8.05,-8.00,-8.00
21.87,-26.02,-18.03,-25.96,-17.96,17.96,18.01,9.31,-8.06,-8.00,-7.99
22.09,-25.90,-17.90,-25.85,-17.85,17.85,17.98,9.51,-8.06,-8.00,-8.00
22.31,-25.75,-17.76,-25.73,-17.73,17.73,17.94,9.72,-8.02,-8.00,-7.99
22.54,-25.61,-17.60,-25.61,-17.61,17.61,17.89,9.94,-7.99,-8.00,-8.00
22.76,-25.45,-17.46,-25.49,-17.49,17.49,17.83,10.16,-7.96,-7.99,-7.99
22.99,-25.30,-17.31,-25.36,-17.37,17.37,17.76,10.38,-7.93,-7.99,-7.99
23.22,-25.19,-17.20,-25.24,-17.25,17.25,17.68,10.62,-7.94,-7.99,-7.99
23.45,-25.08,-17.10,-25.12,-17.13,17.13,17.59,10.86,-7.95,-7.98,-7.98
23.69,-24.98,-16.99,-24.99,-17.01,17.01,17.50,11.10,-7.96,-7.98,-7.98
23.92,-24.86,-16.88,-24.87,-16.89,16.89,17.40,11.35,-7.97,-7.98,-7.98
24.16,-24.76,-16.79,-24.74,-16.77,16.77,17.29,11.61,-7.99,-7.97,-7.97
24.40,-24.65,-16.69,-24.62,-16.65,16.65,17.18,11.88,-8.00,-7.97,-7.96
24.65,-24.54,-16.58,-24.51,-16.54,16.54,17.06,12.15,-8.00,-7.97,-7.96
24.89,-24.43,-16.47,-24.39,-16.43,16.43,16.93,12.43,-8.00,-7.96,-7.96
25.14,-24.30,-16.34,-24.28,-16.32,16.32,16.80,12.72,-7.98,-7.96,-7.96
25.39,-24.16,-16.21,-24.17,-16.21,16.21,16.66,13.02,-7.95,-7.96,-7.95
25.65,-24.03,-16.08,-24.06,-16.10,16.10,16.53,13.32,-7.94,-7.96,-7.95
25.91,-23.90,-15.93,-23.94,-15.98,15.98,16.38,13.64,-7.91,-7.96,-7.96
26.16,-23.78,-15.83,-23.82,-15.87,15.87,16.24,13.95,-7.91,-7.96,-7.95
26.43,-23.69,-15.73,-23.71,-15.75,15.75,16.09,14.28,-7.94,-7.96,-7.95
26.69,-23.58,-15.63,-23.59,-15.63,15.63,15.94,14.61,-7.95,-7.96,-7.95
26.96,-23.49,-15.53,-23.47,-15.51,15.51,15.79,14.95,-7.99,-7.96,-7.96
27.23,-23.38,-15.41,-23.35,-15.39,15.39,15.64,15.29,-7.99,-7.96,-7.96
27.50,-23.24,-15.28,-23.23,-15.27,15.27,15.48,15.64,-7.98,-7.96,-7.96
27.77,-23.12,-15.17,-23.10,-15.14,15.14,15.32,15.98,-7.98,-7.96,-7.95
28.05,-23.00,-15.04,-22.98,-15.02,15.02,15.17,16.32,-7.98,-7.96,-7.96
28.33,-22.86,-14.90,-22.86,-14.89,14.89,15.01,16.66,-7.97,-7.97,-7.96
28.62,-22.74,-14.76,-22.73,-14.76,14.76,14.85,16.99,-7.97,-7.97,-7.97
28.90,-22.60,-14.64,-22.61,-14.64,14.64,14.69,17.31,-7.97,-7.97,-7.96
29.19,-22.47,-14.50,-22.48,-14.50,14.50,14.53,17.61,-7.97,-7.98,-7.97
29.48,-22.34,-14.36,-22.36,-14.37,14.37,14.37,17.88,-7.97,-7.98,-7.98
29.78,-22.21,-14.23,-22.23,-14.24,14.24,14.22,18.12,-7.97,-7.99,-7.98
30.08,-22.10,-14.11,-22.10,-14.11,14.11,14.06,18.32,-7.98,-7.99,-7.98
30.38,-21.97,-13.96,-21.98,-13.98,13.98,13.90,18.48,-7.99,-8.00,-8.00
30.68,-21.84,-13.84,-21.86,-13.85,13.85,13.74,18.59,-7.99,-8.01,-8.00
30.99,-21.73,-13.71,-21.74,-13.73,13.73,13.59,18.64,-8.00,-8.01,-8.01
31.30,-21.63,-13.60,-21.63,-13.61,13.61,13.43,18.64,-8.02,-8.02,-8.02
31.61,-21.53,-13.51,-21.52,-13.49,13.49,13.27,18.58,-8.04,-8.03,-8.02
31.93,-21.44,-13.39,-21.41,-13.38,13.38,13.12,18.47,-8.06,-8.03,-8.04
32.24,-21.30,-13.27,-21.30,-13.27,13.27,12.97,18.30,-8.03,-8.03,-8.03
32.57,-21.17,-13.12,-21.19,-13.15,13.15,12.81,18.09,-8.01,-8.04,-8.04
32.89,-21.03,-12.99,-21.06,-13.03,13.03,12.66,17.85,-8.00,-8.04,-8.04
33.22,-20.92,-12.88,-20.94,-12.90,12.90,12.51,17.57,-8.02,-8.04,-8.04
33.55,-20.84,-12.80,-20.82,-12.78,12.78,12.36,17.26,-8.06,-8.04,-8.04
33.89,-20.76,-12.73,-20.70,-12.67,12.67,12.21,16.94,-8.10,-8.04,-8.03
34.23,-20.64,-12.60,-20.59,-12.55,12.55,12.06,16.61,-8.09,-8.04,-8.04
34.57,-20.51,-12.48,-20.48,-12.44,12.44,11.92,16.26,-8.07,-8.04,-8.03
34.92,-20.38,-12.34,-20.36,-12.32,12.32,11.77,15.92,-8.05,-8.04,-8.03
35.27,-20.21,-12.18,-20.24,-12.20,12.20,11.62,15.56,-8.00,-8.04,-8.02
35.62,-20.02,-11.98,-20.12,-12.08,12.08,11.48,15.22,-7.95,-8.04,-8.04
35.97,-19.84,-11.80,-19.99,-11.95,11.95,11.34,14.87,-7.89,-8.05,-8.04
36.33,-19.82,-11.78,-19.87,-11.82,11.82,11.20,14.53,-8.01,-8.05,-8.04
36.70,-19.80,-11.74,-19.74,-11.68,11.68,11.05,14.19,-8.12,-8.06,-8.06
37.06,-19.76,-11.69,-19.62,-11.54,11.54,10.91,13.86,-8.22,-8.07,-8.07
37.43,-19.58,-11.50,-19.49,-11.41,11.41,10.78,13.54,-8.18,-8.09,-8.08
37.81,-19.41,-11.31,-19.37,-11.27,11.27,10.64,13.22,-8.15,-8.11,-8.10
38.19,-19.24,-11.13,-19.26,-11.13,11.13,10.50,12.91,-8.11,-8.12,-8.11
38.57,-19.09,-10.96,-19.14,-11.00,11.00,10.36,12.61,-8.10,-8.14,-8.13
38.95,-18.93,-10.78,-19.02,-10.86,10.86,10.23,12.31,-8.08,-8.16,-8.15
39.34,-18.83,-10.64,-18.90,-10.71,10.71,10.10,12.03,-8.12,-8.18,-8.19
39.74,-18.74,-10.53,-18.78,-10.57,10.57,9.96,11.75,-8.17,-8.20,-8.21
40.14,-18.65,-10.42,-18.65,-10.42,10.42,9.83,11.48,-8.23,-8.23,-8.23
40.54,-18.56,-10.31,-18.51,-10.26,10.26,9.70,11.21,-8.30,-8.25,-8.25
40.94,-18.46,-10.18,-18.38,-10.11,10.11,9.57,10.95,-8.35,-8.27,-8.28
41.35,-18.31,-10.02,-18.26,-9.97,9.97,9.44,10.70,-8.34,-8.29,-8.29
41.76,-18.14,-9.83,-18.14,-9.84,9.84,9.31,10.46,-8.31,-8.31,-8.31
42.18,-18.00,-9.68,-18.03,-9.70,9.70,9.18,10.22,-8.30,-8.33,-8.32
42.60,-17.88,-9.54,-17.92,-9.57,9.57,9.06,9.99,-8.31,-8.35,-8.34
43.03,-17.76,-9.40,-17.81,-9.45,9.45,8.93,9.76,-8.32,-8.36,-8.36
43.46,-17.66,-9.28,-17.70,-9.32,9.32,8.80,9.54,-8.34,-8.38,-8.38
43.90,-17.56,-9.17,-17.59,-9.19,9.19,8.68,9.33,-8.37,-8.39,-8.39
44.33,-17.46,-9.05,-17.47,-9.06,9.06,8.56,9.12,-8.40,-8.41,-8.41
44.78,-17.36,-8.93,-17.35,-8.92,8.92,8.43,8.91,-8.44,-8.43,-8.43
45.23,-17.26,-8.83,-17.24,-8.79,8.79,8.31,8.71,-8.47,-8.45,-8.43
45.68,-17.15,-8.69,-17.13,-8.66,8.66,8.19,8.52,-8.49,-8.47,-8.46
46.13,-17.05,-8.56,-17.03,-8.54,8.54,8.07,8.33,-8.51,-8.49,-8.49
46.60,-16.95,-8.44,-16.93,-8.41,8.41,7.95,8.14,-8.54,-8.51,-8.51
47.06,-16.84,-8.32,-16.82,-8.29,8.29,7.83,7.96,-8.56,-8.53,-8.52
47.53,-16.71,-8.17,-16.72,-8.16,8.16,7.71,7.78,-8.55,-8.56,-8.54
48.01,-16.58,-8.00,-16.60,-8.02,8.02,7.59,7.61,-8.57,-8.58,-8.58
48.49,-16.43,-7.83,-16.47,-7.87,7.87,7.48,7.44,-8.56,-8.60,-8.60
48.97,-16.28,-7.65,-16.35,-7.72,7.72,7.36,7.28,-8.56,-8.63,-8.63
49.46,-16.22,-7.57,-16.23,-7.58,7.58,7.24,7.11,-8.65,-8.65,-8.65
49.96,-16.17,-7.48,-16.11,-7.43,7.43,7.13,6.96,-8.74,-8.68,-8.69
50.46,-16.05,-7.34,-15.99,-7.29,7.29,7.02,6.80,-8.77,-8.70,-8.71
50.96,-15.91,-7.19,-15.87,-7.14,7.14,6.90,6.65,-8.77,-8.73,-8.72
51.47,-15.77,-7.03,-15.75,-7.00,7.00,6.79,6.50,-8.77,-8.75,-8.74
51.99,-15.63,-6.85,-15.64,-6.86,6.86,6.68,6.35,-8.76,-8.78,-8.77
52.51,-15.45,-6.65,-15.53,-6.73,6.73,6.56,6.21,-8.72,-8.80,-8.79
53.03,-15.26,-6.46,-15.42,-6.59,6.59,6.45,6.07,-8.67,-8.83,-8.80
53.56,-15.26,-6.42,-15.30,-6.45,6.45,6.34,5.93,-8.81,-8.85,-8.84
54.10,-15.24,-6.37,-15.19,-6.32,6.32,6.23,5.80,-8.93,-8.87,-8.87
54.64,-15.11,-6.22,-15.06,-6.17,6.17,6.12,5.66,-8.94,-8.89,-8.89
55.18,-14.99,-6.07,-14.94,-6.03,6.03,6.01,5.53,-8.97,-8.91,-8.92
55.74,-14.86,-5.92,-14.82,-5.89,5.89,5.90,5.41,-8.97,-8.93,-8.94
56.29,-14.74,-5.78,-14.71,-5.76,5.76,5.79,5.28,-8.98,-8.94,-8.96
56.86,-14.61,-5.65,-14.60,-5.64,5.64,5.69,5.16,-8.98,-8.96,-8.96
57.42,-14.48,-5.49,-14.49,-5.51,5.51,5.58,5.03,-8.97,-8.98,-8.99
58.00,-14.35,-5.35,-14.38,-5.38,5.38,5.47,4.91,-8.97,-9.00,-9.00
58.58,-14.22,-5.22,-14.27,-5.25,5.25,5.37,4.80,-8.97,-9.01,-9.00
59.16,-14.08,-5.08,-14.15,-5.12,5.12,5.26,4.68,-8.96,-9.03,-9.00
59.76,-13.95,-4.93,-14.03,-4.98,4.98,5.15,4.57,-8.97,-9.05,-9.02
60.35,-13.90,-4.85,-13.92,-4.85,4.85,5.05,4.45,-9.05,-9.07,-9.05
60.96,-13.89,-4.82,-13.80,-4.72,4.72,4.94,4.34,-9.17,-9.08,-9.07
61.57,-13.76,-4.66,-13.70,-4.60,4.60,4.84,4.23,-9.17,-9.10,-9.10
62.18,-13.63,-4.50,-13.59,-4.47,4.47,4.74,4.12,-9.16,-9.12,-9.13
62.80,-13.48,-4.33,-13.49,-4.35,4.35,4.63,4.02,-9.13,-9.14,-9.15
63.43,-13.34,-4.17,-13.39,-4.23,4.23,4.53,3.91,-9.11,-9.16,-9.17
64.07,-13.21,-4.03,-13.28,-4.11,4.11,4.43,3.81,-9.11,-9.18,-9.18
64.71,-13.17,-3.98,-13.18,-3.98,3.98,4.33,3.71,-9.19,-9.20,-9.19
65.35,-13.10,-3.89,-13.07,-3.85,3.85,4.22,3.60,-9.25,-9.21,-9.21
66.01,-12.98,-3.75,-12.97,-3.73,3.73,4.12,3.50,-9.25,-9.23,-9.23
66.67,-12.83,-3.59,-12.85,-3.61,3.61,4.02,3.40,-9.23,-9.25,-9.24
67.33,-12.72,-3.46,-12.73,-3.47,3.47,3.92,3.31,-9.25,-9.26,-9.26
68.01,-12.66,-3.39,-12.61,-3.34,3.34,3.82,3.21,-9.33,-9.28,-9.27
68.69,-12.55,-3.26,-12.51,-3.22,3.22,3.72,3.11,-9.34,-9.29,-9.29
69.37,-12.42,-3.13,-12.41,-3.10,3.10,3.62,3.02,-9.32,-9.31,-9.29
70.07,-12.28,-2.97,-12.30,-2.98,2.98,3.52,2.92,-9.30,-9.32,-9.31
70.77,-12.12,-2.80,-12.19,-2.86,2.86,3.42,2.83,-9.27,-9.33,-9.32
71.48,-12.07,-2.73,-12.08,-2.74,2.74,3.32,2.74,-9.34,-9.34,-9.34
72.19,-12.02,-2.67,-11.97,-2.62,2.62,3.23,2.64,-9.40,-9.35,-9.35
72.91,-11.86,-2.50,-11.87,-2.51,2.51,3.13,2.55,-9.36,-9.36,-9.36
73.64,-11.69,-2.31,-11.77,-2.40,2.40,3.03,2.46,-9.29,-9.37,-9.38
74.38,-11.61,-2.23,-11.66,-2.30,2.30,2.93,2.37,-9.32,-9.37,-9.38
75.12,-11.60,-2.22,-11.56,-2.19,2.19,2.84,2.28,-9.41,-9.37,-9.38
75.87,-11.56,-2.20,-11.46,-2.10,2.10,2.74,2.19,-9.46,-9.36,-9.36
76.63,-11.33,-1.97,-11.37,-2.01,2.01,2.64,2.10,-9.32,-9.36,-9.36
77.40,-11.19,-1.84,-11.27,-1.92,1.92,2.55,2.02,-9.28,-9.35,-9.35
78.17,-11.16,-1.82,-11.17,-1.83,1.83,2.45,1.93,-9.34,-9.34,-9.34
78.95,-11.16,-1.84,-11.07,-1.75,1.75,2.36,1.84,-9.41,-9.33,-9.32
79.74,-10.99,-1.68,-10.98,-1.67,1.67,2.26,1.75,-9.33,-9.31,-9.31
80.54,-10.85,-1.56,-10.88,-1.58,1.58,2.17,1.67,-9.27,-9.30,-9.29
81.35,-10.76,-1.48,-10.78,-1.50,1.50,2.07,1.58,-9.26,-9.28,-9.28
82.16,-10.68,-1.43,-10.69,-1.42,1.42,1.98,1.49,-9.27,-9.27,-9.25
82.98,-10.60,-1.36,-10.59,-1.33,1.33,1.88,1.41,-9.27,-9.25,-9.24
83.81,-10.49,-1.26,-10.48,-1.24,1.24,1.79,1.32,-9.25,-9.24,-9.23
84.65,-10.33,-1.11,-10.39,-1.16,1.16,1.70,1.24,-9.18,-9.23,-9.22
85.50,-10.25,-1.03,-10.29,-1.08,1.08,1.60,1.15,-9.18,-9.22,-9.22
86.35,-10.25,-1.05,-10.20,-0.99,0.99,1.51,1.06,-9.26,-9.20,-9.20
87.22,-10.19,-1.00,-10.10,-0.91,0.91,1.42,0.98,-9.29,-9.19,-9.19
88.09,-9.95,-0.77,-10.00,-0.82,0.82,1.33,0.89,-9.14,-9.18,-9.18
88.97,-9.80,-0.63,-9.90,-0.73,0.73,1.23,0.80,-9.07,-9.17,-9.17
89.86,-9.79,-0.63,-9.81,-0.65,0.65,1.14,0.72,-9.15,-9.16,-9.16
90.76,-9.77,-0.62,-9.70,-0.55,0.55,1.05,0.63,-9.22,-9.15,-9.15
91.66,-9.63,-0.49,-9.60,-0.46,0.46,0.96,0.55,-9.18,-9.14,-9.14
92.58,-9.48,-0.36,-9.50,-0.36,0.36,0.87,0.46,-9.12,-9.13,-9.12
93.51,-9.38,-0.27,-9.40,-0.28,0.28,0.78,0.37,-9.11,-9.12,-9.11
94.44,-9.33,-0.24,-9.30,-0.19,0.19,0.69,0.28,-9.14,-9.11,-9.09
95.39,-9.24,-0.15,-9.20,-0.10,0.10,0.60,0.20,-9.14,-9.10,-9.09
96.34,-9.07,0.02,-9.10,-0.01,0.01,0.51,0.11,-9.06,-9.09,-9.09
97.30,-8.96,0.11,-9.01,0.07,-0.07,0.42,0.02,-9.03,-9.08,-9.07
98.28,-8.88,0.19,-8.92,0.14,-0.14,0.33,-0.07,-9.03,-9.06,-9.07
99.26,-8.82,0.24,-8.82,0.23,-0.23,0.24,-0.15,-9.05,-9.05,-9.06
100.25,-8.66,0.38,-8.72,0.31,-0.31,0.15,-0.24,-8.97,-9.03,-9.04
101.25,-8.65,0.37,-8.63,0.39,-0.39,0.06,-0.33,-9.04,-9.02,-9.02
102.27,-8.62,0.38,-8.55,0.45,-0.45,-0.03,-0.42,-9.07,-9.00,-9.00
103.29,-8.50,0.48,-8.47,0.51,-0.51,-0.12,-0.50,-9.01,-8.98,-8.98
104.32,-8.37,0.58,-8.38,0.57,-0.57,-0.21,-0.59,-8.95,-8.96,-8.95
105.37,-8.25,0.68,-8.30,0.64,-0.64,-0.29,-0.68,-8.89,-8.93,-8.93
106.42,-8.20,0.70,-8.21,0.70,-0.70,-0.38,-0.76,-8.90,-8.91,-8.90
107.48,-8.10,0.79,-8.12,0.76,-0.76,-0.47,-0.85,-8.87,-8.88,-8.89
108.56,-7.98,0.87,-8.03,0.83,-0.83,-0.56,-0.93,-8.81,-8.86,-8.85
109.64,-7.97,0.86,-7.94,0.89,-0.89,-0.64,-1.02,-8.87,-8.83,-8.83
110.74,-7.96,0.84,-7.85,0.96,-0.96,-0.73,-1.10,-8.92,-8.81,-8.80
111.85,-7.77,1.01,-7.77,1.02,-1.02,-0.82,-1.18,-8.79,-8.79,-8.78
112.97,-7.72,1.03,-7.68,1.08,-1.08,-0.90,-1.26,-8.81,-8.77,-8.75
114.10,-7.51,1.22,-7.60,1.15,-1.15,-0.99,-1.34,-8.66,-8.75,-8.73
115.24,-7.48,1.24,-7.52,1.21,-1.21,-1.07,-1.42,-8.69,-8.73,-8.72
116.39,-7.35,1.36,-7.44,1.27,-1.27,-1.16,-1.49,-8.62,-8.71,-8.71
117.55,-7.28,1.41,-7.35,1.34,-1.34,-1.25,-1.57,-8.62,-8.69,-8.69
118.73,-7.28,1.40,-7.26,1.42,-1.42,-1.33,-1.64,-8.70,-8.68,-8.68
119.92,-7.27,1.40,-7.17,1.49,-1.49,-1.42,-1.71,-8.77,-8.66,-8.67
121.12,-7.06,1.58,-7.08,1.57,-1.57,-1.50,-1.78,-8.63,-8.65,-8.64
122.33,-7.06,1.58,-6.99,1.65,-1.65,-1.58,-1.84,-8.72,-8.64,-8.64
123.55,-6.96,1.66,-6.90,1.73,-1.73,-1.67,-1.90,-8.69,-8.63,-8.62
124.79,-6.84,1.77,-6.82,1.80,-1.80,-1.75,-1.97,-8.64,-8.62,-8.61
126.03,-6.67,1.93,-6.73,1.88,-1.88,-1.84,-2.02,-8.55,-8.61,-8.60
127.29,-6.62,1.98,-6.65,1.95,-1.95,-1.92,-2.08,-8.58,-8.60,-8.60
128.57,-6.55,2.04,-6.56,2.03,-2.03,-2.00,-2.14,-8.59,-8.60,-8.59
129.85,-6.39,2.20,-6.48,2.11,-2.11,-2.09,-2.19,-8.51,-8.59,-8.59
131.15,-6.37,2.21,-6.39,2.19,-2.19,-2.17,-2.24,-8.56,-8.58,-8.58
132.46,-6.37,2.21,-6.31,2.27,-2.27,-2.25,-2.29,-8.64,-8.58,-8.58
133.79,-6.23,2.34,-6.23,2.34,-2.34,-2.33,-2.34,-8.58,-8.57,-8.57
135.12,-6.14,2.43,-6.15,2.41,-2.41,-2.41,-2.38,-8.55,-8.56,-8.57
136.48,-6.09,2.46,-6.08,2.48,-2.48,-2.50,-2.43,-8.57,-8.55,-8.55
137.84,-5.94,2.60,-6.00,2.54,-2.54,-2.58,-2.47,-8.49,-8.55,-8.54
139.22,-5.92,2.62,-5.93,2.60,-2.60,-2.66,-2.52,-8.53,-8.54,-8.54
140.61,-5.92,2.61,-5.87,2.66,-2.66,-2.74,-2.56,-8.58,-8.53,-8.53
142.02,-5.81,2.71,-5.80,2.72,-2.72,-2.82,-2.61,-8.54,-8.52,-8.52
143.44,-5.72,2.79,-5.72,2.79,-2.79,-2.90,-2.65,-8.51,-8.51,-8.51
144.87,-5.69,2.80,-5.66,2.84,-2.84,-2.98,-2.69,-8.54,-8.50,-8.49
146.32,-5.54,2.94,-5.58,2.91,-2.91,-3.06,-2.74,-8.45,-8.49,-8.48
147.78,-5.46,3.02,-5.50,2.98,-2.98,-3.14,-2.78,-8.44,-8.48,-8.48
149.26,-5.46,3.01,-5.44,3.04,-3.04,-3.22,-2.83,-8.50,-8.47,-8.47
150.75,-5.36,3.11,-5.37,3.10,-3.10,-3.30,-2.88,-8.46,-8.47,-8.47
152.26,-5.27,3.18,-5.29,3.17,-3.17,-3.38,-2.92,-8.44,-8.46,-8.45
153.78,-5.23,3.22,-5.22,3.23,-3.23,-3.46,-2.97,-8.46,-8.45,-8.45
155.32,-5.18,3.26,-5.15,3.30,-3.30,-3.53,-3.03,-8.49,-8.45,-8.44
156.88,-5.02,3.42,-5.07,3.38,-3.38,-3.61,-3.08,-8.40,-8.45,-8.44
158.44,-5.00,3.44,-5.00,3.44,-3.44,-3.69,-3.14,-8.45,-8.44,-8.44
160.03,-4.94,3.50,-4.93,3.52,-3.52,-3.77,-3.19,-8.46,-8.44,-8.44
161.63,-4.81,3.63,-4.85,3.59,-3.59,-3.84,-3.25,-8.41,-8.44,-8.44
163.24,-4.78,3.67,-4.78,3.67,-3.67,-3.92,-3.32,-8.45,-8.45,-8.45
164.88,-4.78,3.67,-4.70,3.75,-3.75,-4.00,-3.38,-8.53,-8.45,-8.45
166.53,-4.60,3.86,-4.62,3.83,-3.83,-4.07,-3.45,-8.43,-8.45,-8.46
168.19,-4.55,3.90,-4.55,3.91,-3.91,-4.15,-3.52,-8.46,-8.46,-8.45
169.87,-4.50,3.96,-4.49,3.98,-3.98,-4.22,-3.59,-8.48,-8.47,-8.46
171.57,-4.36,4.11,-4.42,4.06,-4.06,-4.30,-3.67,-8.42,-8.48,-8.47
173.29,-4.32,4.16,-4.35,4.14,-4.14,-4.37,-3.75,-8.46,-8.49,-8.48
175.02,-4.32,4.17,-4.28,4.22,-4.22,-4.45,-3.83,-8.54,-8.50,-8.49
176.77,-4.13,4.38,-4.22,4.30,-4.30,-4.52,-3.92,-8.43,-8.51,-8.51
178.54,-4.09,4.43,-4.15,4.38,-4.38,-4.59,-4.01,-8.47,-8.53,-8.52
180.32,-4.09,4.45,-4.08,4.47,-4.47,-4.67,-4.10,-8.56,-8.54,-8.54
182.13,-4.09,4.47,-4.00,4.56,-4.56,-4.74,-4.19,-8.65,-8.56,-8.56
183.95,-4.00,4.57,-3.94,4.64,-4.64,-4.81,-4.29,-8.64,-8.58,-8.57
185.79,-3.87,4.73,-3.88,4.72,-4.72,-4.88,-4.39,-8.59,-8.59,-8.60
187.65,-3.86,4.75,-3.81,4.80,-4.80,-4.96,-4.50,-8.67,-8.61,-8.61
189.52,-3.69,4.94,-3.75,4.88,-4.88,-5.03,-4.60,-8.57,-8.63,-8.63
191.42,-3.64,5.00,-3.69,4.96,-4.96,-5.10,-4.71,-8.60,-8.65,-8.64
193.33,-3.64,5.02,-3.63,5.04,-5.04,-5.17,-4.83,-8.68,-8.66,-8.66
195.27,-3.53,5.15,-3.56,5.12,-5.12,-5.24,-4.94,-8.66,-8.68,-8.68
197.22,-3.43,5.27,-3.50,5.20,-5.20,-5.31,-5.06,-8.63,-8.70,-8.70
199.19,-3.41,5.30,-3.43,5.28,-5.28,-5.38,-5.18,-8.69,-8.71,-8.71
201.18,-3.41,5.32,-3.37,5.36,-5.36,-5.45,-5.30,-8.77,-8.72,-8.73
203.19,-3.36,5.38,-3.30,5.43,-5.43,-5.52,-5.42,-8.80,-8.74,-8.74
205.23,-3.24,5.50,-3.25,5.50,-5.50,-5.59,-5.55,-8.74,-8.75,-8.74
207.28,-3.18,5.57,-3.20,5.56,-5.56,-5.65,-5.67,-8.75,-8.76,-8.75
209.35,-3.18,5.59,-3.14,5.64,-5.64,-5.72,-5.80,-8.82,-8.77,-8.77
211.44,-3.05,5.73,-3.08,5.70,-5.70,-5.79,-5.93,-8.76,-8.79,-8.78
213.56,-2.96,5.83,-3.02,5.78,-5.78,-5.85,-6.05,-8.74,-8.80,-8.79
215.69,-2.95,5.85,-2.97,5.84,-5.84,-5.92,-6.18,-8.80,-8.81,-8.80
217.85,-2.95,5.86,-2.91,5.91,-5.91,-5.99,-6.30,-8.87,-8.82,-8.81
220.03,-2.86,5.97,-2.85,5.99,-5.99,-6.05,-6.43,-8.85,-8.83,-8.83
222.23,-2.76,6.09,-2.78,6.06,-6.06,-6.11,-6.55,-8.83,-8.85,-8.85
224.45,-2.73,6.13,-2.73,6.13,-6.13,-6.18,-6.66,-8.87,-8.86,-8.86
226.70,-2.73,6.14,-2.67,6.20,-6.20,-6.24,-6.77,-8.93,-8.87,-8.87
228.96,-2.57,6.31,-2.62,6.26,-6.26,-6.31,-6.88,-8.84,-8.88,-8.88
231.25,-2.52,6.37,-2.56,6.33,-6.33,-6.37,-6.98,-8.86,-8.89,-8.89
233.57,-2.50,6.40,-2.51,6.40,-6.40,-6.43,-7.08,-8.90,-8.90,-8.90
235.90,-2.50,6.41,-2.46,6.45,-6.45,-6.49,-7.17,-8.96,-8.91,-8.91
238.26,-2.39,6.54,-2.40,6.52,-6.52,-6.55,-7.25,-8.91,-8.92,-8.93
240.64,-2.29,6.63,-2.34,6.59,-6.59,-6.61,-7.33,-8.88,-8.93,-8.92
243.05,-2.27,6.66,-2.28,6.65,-6.65,-6.67,-7.40,-8.93,-8.94,-8.93
245.48,-2.27,6.67,-2.23,6.71,-6.71,-6.73,-7.46,-8.98,-8.94,-8.94
247.93,-2.27,6.68,-2.19,6.76,-6.76,-6.79,-7.51,-9.03,-8.95,-8.95
250.41,-2.08,6.86,-2.13,6.82,-6.82,-6.85,-7.55,-8.90,-8.95,-8.94
252.92,-2.04,6.91,-2.08,6.87,-6.87,-6.91,-7.58,-8.92,-8.95,-8.95
255.45,-2.04,6.92,-2.04,6.92,-6.92,-6.96,-7.61,-8.97,-8.96,-8.96
258.00,-2.04,6.92,-1.99,6.97,-6.97,-7.02,-7.62,-9.01,-8.96,-8.96
260.58,-1.90,7.06,-1.94,7.02,-7.02,-7.08,-7.63,-8.92,-8.96,-8.96
263.19,-1.82,7.14,-1.89,7.07,-7.07,-7.13,-7.63,-8.90,-8.96,-8.96
265.82,-1.81,7.15,-1.84,7.12,-7.12,-7.18,-7.63,-8.94,-8.96,-8.96
268.48,-1.81,7.15,-1.80,7.16,-7.16,-7.24,-7.61,-8.98,-8.96,-8.96
271.16,-1.81,7.14,-1.75,7.21,-7.21,-7.29,-7.60,-9.03,-8.96,-8.95
273.87,-1.73,7.22,-1.70,7.26,-7.26,-7.34,-7.57,-9.00,-8.96,-8.95
276.61,-1.61,7.34,-1.64,7.31,-7.31,-7.40,-7.54,-8.92,-8.96,-8.95
279.38,-1.59,7.37,-1.60,7.35,-7.35,-7.45,-7.51,-8.95,-8.95,-8.96
282.17,-1.59,7.36,-1.54,7.41,-7.41,-7.50,-7.48,-9.00,-8.95,-8.95
284.99,-1.53,7.41,-1.49,7.45,-7.45,-7.55,-7.44,-8.98,-8.94,-8.94
287.84,-1.37,7.56,-1.45,7.49,-7.49,-7.60,-7.40,-8.86,-8.94,-8.93
290.72,-1.36,7.57,-1.40,7.53,-7.53,-7.64,-7.36,-8.89,-8.93,-8.93
293.63,-1.36,7.56,-1.35,7.57,-7.57,-7.69,-7.32,-8.94,-8.92,-8.92
296.57,-1.36,7.55,-1.30,7.62,-7.62,-7.74,-7.28,-8.98,-8.92,-8.91
299.53,-1.19,7.72,-1.24,7.67,-7.67,-7.79,-7.25,-8.86,-8.91,-8.91
302.53,-1.13,7.76,-1.20,7.70,-7.70,-7.83,-7.21,-8.84,-8.90,-8.89
305.55,-1.13,7.76,-1.17,7.73,-7.73,-7.88,-7.18,-8.86,-8.90,-8.89
308.61,-1.13,7.75,-1.13,7.76,-7.76,-7.92,-7.14,-8.89,-8.89,-8.88
311.69,-1.13,7.75,-1.09,7.80,-7.80,-7.96,-7.11,-8.93,-8.88,-8.88
314.81,-1.13,7.74,-1.04,7.83,-7.83,-8.00,-7.09,-8.97,-8.87,-8.87
317.96,-0.99,7.88,-1.00,7.86,-7.86,-8.05,-7.07,-8.86,-8.87,-8.87
321.14,-0.90,7.96,-0.97,7.89,-7.89,-8.09,-7.05,-8.79,-8.86,-8.86
324.35,-0.90,7.96,-0.94,7.91,-7.91,-8.13,-7.03,-8.82,-8.85,-8.86
327.59,-0.90,7.93,-0.90,7.94,-7.94,-8.16,-7.02,-8.85,-8.84,-8.83
330.87,-0.90,7.93,-0.86,7.97,-7.97,-8.20,-7.02,-8.87,-8.83,-8.83
334.18,-0.90,7.93,-0.83,7.99,-7.99,-8.24,-7.02,-8.90,-8.83,-8.83
337.52,-0.77,8.05,-0.79,8.03,-8.03,-8.28,-7.02,-8.80,-8.82,-8.82
340.90,-0.69,8.11,-0.75,8.06,-8.06,-8.31,-7.03,-8.75,-8.81,-8.80
344.30,-0.67,8.12,-0.71,8.08,-8.08,-8.34,-7.05,-8.76,-8.80,-8.79
347.75,-0.67,8.11,-0.68,8.11,-8.11,-8.38,-7.07,-8.78,-8.78,-8.78
351.23,-0.67,8.11,-0.64,8.13,-8.13,-8.41,-7.09,-8.81,-8.77,-8.78
354.74,-0.67,8.08,-0.61,8.15,-8.15,-8.44,-7.12,-8.83,-8.76,-8.75
358.28,-0.56,8.19,-0.57,8.18,-8.18,-8.47,-7.16,-8.75,-8.75,-8.75
361.87,-0.47,8.27,-0.52,8.22,-8.22,-8.50,-7.20,-8.69,-8.74,-8.74
365.49,-0.45,8.28,-0.48,8.26,-8.26,-8.53,-7.25,-8.71,-8.74,-8.73
369.14,-0.45,8.27,-0.45,8.28,-8.28,-8.56,-7.30,-8.74,-8.73,-8.72
372.83,-0.45,8.26,-0.42,8.30,-8.30,-8.59,-7.35,-8.76,-8.72,-8.71
376.56,-0.45,8.26,-0.39,8.32,-8.32,-8.61,-7.42,-8.77,-8.71,-8.71
380.33,-0.35,8.35,-0.36,8.35,-8.35,-8.64,-7.48,-8.70,-8.71,-8.70
384.13,-0.24,8.45,-0.32,8.38,-8.38,-8.66,-7.56,-8.62,-8.70,-8.69
387.97,-0.22,8.47,-0.28,8.41,-8.41,-8.68,-7.63,-8.64,-8.69,-8.69
391.85,-0.22,8.46,-0.24,8.44,-8.44,-8.70,-7.72,-8.67,-8.69,-8.68
