frequency,raw,error,smoothed,error_smoothed,equalization,parametric_eq,fixed_band_eq,equalized_raw,equalized_smoothed,target
20.00,-13.89,-18.61,-13.89,-18.61,18.61,17.29,6.96,4.72,4.72,4.72
20.20,-13.75,-18.51,-13.75,-18.51,18.51,17.31,7.12,4.76,4.76,4.76
20.40,-13.62,-18.41,-13.62,-18.41,18.42,17.32,7.27,4.80,4.80,4.79
20.61,-13.48,-18.30,-13.48,-18.31,18.31,17.31,7.43,4.83,4.83,4.82
20.81,-13.34,-18.20,-13.34,-18.20,18.20,17.30,7.60,4.86,4.86,4.86
21.02,-13.21,-18.11,-13.20,-18.09,18.09,17.28,7.76,4.88,4.88,4.90
21.23,-13.06,-17.97,-13.06,-17.97,17.96,17.25,7.93,4.91,4.91,4.91
21.44,-12.91,-17.84,-12.91,-17.84,17.84,17.21,8.11,4.93,4.93,4.93
21.66,-12.76,-17.71,-12.76,-17.71,17.70,17.16,8.29,4.94,4.94,4.95
21.87,-12.61,-17.57,-12.61,-17.56,17.56,17.10,8.48,4.95,4.96,4.96
22.09,-12.45,-17.42,-12.45,-17.42,17.41,17.03,8.67,4.97,4.97,4.97
22.31,-12.29,-17.26,-12.29,-17.26,17.26,16.95,8.86,4.98,4.97,4.97
22.54,-12.13,-17.11,-12.13,-17.11,17.11,16.86,9.06,4.98,4.98,4.98
22.76,-11.97,-16.96,-11.97,-16.95,16.96,16.77,9.26,4.99,4.99,4.99
22.99,-11.81,-16.80,-11.81,-16.80,16.81,16.67,9.47,5.00,5.00,4.99
23.22,-11.65,-16.65,-11.65,-16.65,16.66,16.56,9.69,5.01,5.01,5.00
23.45,-11.50,-16.51,-11.50,-16.51,16.51,16.45,9.91,5.01,5.01,5.01
23.69,-11.34,-16.36,-11.34,-16.36,16.36,16.33,10.14,5.02,5.02,5.02
23.92,-11.19,-16.22,-11.19,-16.22,16.22,16.20,10.37,5.03,5.03,5.03
24.16,-11.04,-16.08,-11.04,-16.08,16.07,16.07,10.61,5.03,5.03,5.04
24.40,-10.89,-15.94,-10.89,-15.93,15.92,15.94,10.85,5.04,5.04,5.05
24.65,-10.74,-15.78,-10.74,-15.78,15.78,15.80,11.10,5.03,5.04,5.04
24.89,-10.58,-15.62,-10.59,-15.63,15.63,15.66,11.36,5.05,5.04,5.04
25.14,-10.44,-15.48,-10.44,-15.48,15.47,15.51,11.62,5.04,5.04,5.04
25.39,-10.29,-15.33,-10.29,-15.32,15.32,15.36,11.89,5.03,5.03,5.04
25.65,-10.14,-15.18,-10.14,-15.17,15.17,15.21,12.16,5.03,5.03,5.04
25.91,-9.99,-15.01,-9.99,-15.02,15.02,15.06,12.44,5.02,5.02,5.02
26.16,-9.85,-14.88,-9.85,-14.88,14.88,14.91,12.72,5.03,5.03,5.03
26.43,-9.71,-14.74,-9.70,-14.73,14.74,14.75,13.01,5.03,5.04,5.03
26.69,-9.57,-14.60,-9.57,-14.60,14.62,14.60,13.30,5.05,5.05,5.03
26.96,-9.43,-14.46,-9.45,-14.48,14.51,14.44,13.60,5.08,5.06,5.03
27.23,-9.35,-14.38,-9.35,-14.38,14.40,14.28,13.89,5.05,5.05,5.03
27.50,-9.27,-14.30,-9.27,-14.30,14.30,14.12,14.19,5.03,5.03,5.03
27.77,-9.19,-14.21,-9.19,-14.21,14.19,13.96,14.48,5.01,5.00,5.02
28.05,-9.11,-14.13,-9.09,-14.11,14.08,13.80,14.77,4.97,4.99,5.02
28.33,-8.97,-13.97,-8.98,-13.99,13.96,13.65,15.05,4.99,4.98,5.00
28.62,-8.84,-13.85,-8.85,-13.85,13.83,13.49,15.32,4.98,4.98,5.01
28.90,-8.71,-13.72,-8.69,-13.70,13.68,13.33,15.58,4.97,4.98,5.01
29.19,-8.53,-13.53,-8.53,-13.53,13.52,13.17,15.81,4.99,4.99,5.00
29.48,-8.34,-13.35,-8.34,-13.35,13.36,13.02,16.03,5.02,5.02,5.01
29.78,-8.15,-13.16,-8.15,-13.16,13.19,12.86,16.22,5.04,5.04,5.01
30.08,-7.97,-12.98,-7.99,-12.99,13.03,12.70,16.38,5.05,5.04,5.01
30.38,-7.84,-12.83,-7.85,-12.84,12.86,12.55,16.50,5.02,5.02,4.99
30.68,-7.72,-12.71,-7.72,-12.70,12.70,12.39,16.58,4.98,4.98,4.99
30.99,-7.60,-12.58,-7.59,-12.57,12.54,12.24,16.62,4.94,4.96,4.98
31.30,-7.43,-12.41,-7.44,-12.42,12.39,12.09,16.62,4.96,4.95,4.98
31.61,-7.27,-12.25,-7.27,-12.25,12.24,11.93,16.57,4.97,4.96,4.98
31.93,-7.11,-12.07,-7.11,-12.07,12.08,11.78,16.48,4.97,4.97,4.96
32.24,-6.96,-11.91,-6.96,-11.92,11.92,11.63,16.35,4.96,4.96,4.95
32.57,-6.82,-11.77,-6.82,-11.77,11.76,11.48,16.19,4.94,4.94,4.95
32.89,-6.68,-11.63,-6.67,-11.62,11.61,11.34,15.99,4.93,4.94,4.95
33.22,-6.52,-11.47,-6.51,-11.46,11.47,11.19,15.76,4.95,4.95,4.95
33.55,-6.36,-11.30,-6.35,-11.30,11.34,11.04,15.51,4.98,4.98,4.94
33.89,-6.20,-11.14,-6.22,-11.16,11.21,10.90,15.24,5.01,4.99,4.94
34.23,-6.11,-11.05,-6.13,-11.06,11.08,10.75,14.95,4.97,4.96,4.94
34.57,-6.06,-10.99,-6.06,-10.99,10.96,10.61,14.65,4.90,4.90,4.93
34.92,-6.00,-10.92,-5.97,-10.90,10.84,10.47,14.35,4.84,4.86,4.92
35.27,-5.85,-10.77,-5.84,-10.76,10.71,10.33,14.04,4.86,4.87,4.92
35.62,-5.67,-10.58,-5.68,-10.59,10.59,10.19,13.72,4.92,4.91,4.91
35.97,-5.49,-10.39,-5.52,-10.42,10.45,10.05,13.41,4.96,4.94,4.90
36.33,-5.39,-10.29,-5.39,-10.29,10.31,9.91,13.09,4.92,4.92,4.90
36.70,-5.29,-10.19,-5.28,-10.17,10.16,9.77,12.78,4.87,4.88,4.90
37.06,-5.18,-10.06,-5.15,-10.04,10.01,9.64,12.47,4.83,4.86,4.88
37.43,-5.00,-9.88,-5.00,-9.88,9.88,9.50,12.16,4.88,4.88,4.88
37.81,-4.83,-9.70,-4.85,-9.72,9.75,9.37,11.86,4.92,4.91,4.87
38.19,-4.71,-9.57,-4.72,-9.59,9.64,9.24,11.57,4.93,4.91,4.86
38.57,-4.64,-9.50,-4.63,-9.49,9.52,9.10,11.27,4.88,4.89,4.86
38.95,-4.57,-9.42,-4.56,-9.41,9.40,8.97,10.99,4.84,4.85,4.85
39.34,-4.47,-9.31,-4.48,-9.31,9.28,8.84,10.71,4.81,4.80,4.84
39.74,-4.37,-9.19,-4.37,-9.19,9.15,8.71,10.43,4.78,4.79,4.82
40.14,-4.24,-9.07,-4.23,-9.06,9.02,8.58,10.16,4.77,4.79,4.83
40.54,-4.07,-8.89,-4.07,-8.90,8.87,8.45,9.90,4.80,4.80,4.82
40.94,-3.90,-8.72,-3.90,-8.72,8.71,8.33,9.64,4.81,4.81,4.82
41.35,-3.73,-8.53,-3.73,-8.53,8.55,8.20,9.38,4.82,4.82,4.80
41.76,-3.57,-8.35,-3.57,-8.35,8.38,8.07,9.13,4.81,4.81,4.78
42.18,-3.42,-8.19,-3.42,-8.19,8.22,7.95,8.89,4.80,4.79,4.77
42.60,-3.30,-8.04,-3.30,-8.04,8.06,7.83,8.65,4.76,4.77,4.74
43.03,-3.18,-7.91,-3.18,-7.91,7.91,7.70,8.42,4.73,4.73,4.73
43.46,-3.08,-7.78,-3.08,-7.77,7.77,7.58,8.19,4.69,4.69,4.70
43.90,-2.98,-7.63,-2.98,-7.64,7.62,7.46,7.96,4.64,4.64,4.65
44.33,-2.89,-7.51,-2.89,-7.51,7.49,7.34,7.74,4.60,4.60,4.62
44.78,-2.79,-7.38,-2.78,-7.37,7.36,7.21,7.53,4.57,4.57,4.59
45.23,-2.67,-7.23,-2.67,-7.22,7.23,7.09,7.31,4.56,4.57,4.56
45.68,-2.54,-7.07,-2.54,-7.08,7.11,6.98,7.10,4.56,4.56,4.53
46.13,-2.42,-6.93,-2.44,-6.95,6.98,6.86,6.90,4.56,4.54,4.51
46.60,-2.34,-6.84,-2.34,-6.83,6.85,6.74,6.70,4.51,4.51,4.50
47.06,-2.26,-6.74,-2.25,-6.73,6.71,6.62,6.50,4.45,4.46,4.48
47.53,-2.14,-6.62,-2.14,-6.62,6.57,6.50,6.31,4.43,4.43,4.48
48.01,-2.01,-6.49,-2.01,-6.48,6.43,6.39,6.12,4.42,4.42,4.48
48.49,-1.85,-6.31,-1.86,-6.32,6.30,6.27,5.93,4.45,4.44,4.46
48.97,-1.70,-6.15,-1.69,-6.14,6.17,6.16,5.74,4.47,4.48,4.45
49.46,-1.54,-5.98,-1.53,-5.97,6.05,6.04,5.56,4.51,4.51,4.44
49.96,-1.38,-5.82,-1.43,-5.87,5.92,5.93,5.38,4.54,4.50,4.44
50.46,-1.35,-5.80,-1.35,-5.80,5.81,5.81,5.21,4.46,4.46,4.45
50.96,-1.32,-5.78,-1.27,-5.72,5.70,5.70,5.04,4.38,4.43,4.46
51.47,-1.19,-5.64,-1.19,-5.63,5.60,5.59,4.87,4.41,4.41,4.45
51.99,-1.04,-5.47,-1.08,-5.51,5.50,5.48,4.70,4.46,4.42,4.43
52.51,-0.97,-5.39,-0.97,-5.39,5.39,5.36,4.54,4.42,4.42,4.42
53.03,-0.90,-5.29,-0.88,-5.27,5.27,5.25,4.38,4.37,4.39,4.39
53.56,-0.78,-5.14,-0.78,-5.14,5.13,5.14,4.22,4.35,4.34,4.36
54.10,-0.66,-4.98,-0.67,-4.98,4.97,5.03,4.07,4.31,4.30,4.32
54.64,-0.54,-4.81,-0.54,-4.81,4.80,4.92,3.92,4.26,4.26,4.27
55.18,-0.42,-4.64,-0.42,-4.64,4.63,4.81,3.77,4.21,4.21,4.22
55.74,-0.29,-4.46,-0.29,-4.46,4.45,4.70,3.63,4.16,4.16,4.17
56.29,-0.16,-4.28,-0.16,-4.28,4.28,4.59,3.49,4.12,4.12,4.12
56.86,-0.03,-4.09,-0.02,-4.07,4.11,4.48,3.35,4.08,4.09,4.06
57.42,0.10,-3.89,0.10,-3.89,3.94,4.38,3.22,4.04,4.04,3.99
58.00,0.23,-3.70,0.18,-3.75,3.78,4.27,3.09,4.01,3.96,3.93
58.58,0.23,-3.64,0.24,-3.63,3.62,4.16,2.96,3.85,3.86,3.87
59.16,0.27,-3.55,0.31,-3.51,3.47,4.05,2.84,3.74,3.77,3.82
59.76,0.40,-3.36,0.40,-3.35,3.32,3.95,2.72,3.72,3.72,3.76
60.35,0.53,-3.16,0.53,-3.17,3.17,3.84,2.61,3.70,3.70,3.69
60.96,0.67,-2.97,0.62,-3.01,3.03,3.73,2.50,3.70,3.65,3.64
61.57,0.68,-2.89,0.70,-2.87,2.88,3.63,2.39,3.56,3.58,3.57
62.18,0.72,-2.78,0.77,-2.74,2.74,3.52,2.28,3.46,3.51,3.50
62.80,0.87,-2.59,0.84,-2.61,2.60,3.42,2.18,3.47,3.45,3.46
63.43,0.95,-2.45,0.94,-2.46,2.48,3.31,2.09,3.43,3.42,3.40
64.07,1.02,-2.34,1.04,-2.32,2.35,3.21,1.99,3.37,3.39,3.36
64.71,1.10,-2.21,1.08,-2.23,2.23,3.10,1.91,3.33,3.31,3.31
65.35,1.14,-2.12,1.13,-2.14,2.12,3.00,1.82,3.26,3.24,3.26
66.01,1.14,-2.09,1.19,-2.03,2.00,2.90,1.74,3.14,3.20,3.23
66.67,1.29,-1.90,1.28,-1.92,1.89,2.79,1.66,3.18,3.17,3.19
67.33,1.40,-1.76,1.38,-1.78,1.79,2.69,1.58,3.19,3.17,3.16
68.01,1.47,-1.66,1.49,-1.64,1.68,2.59,1.51,3.15,3.17,3.13
68.69,1.56,-1.54,1.54,-1.56,1.58,2.48,1.43,3.14,3.11,3.10
69.37,1.60,-1.46,1.60,-1.47,1.47,2.38,1.36,3.07,3.07,3.06
70.07,1.62,-1.41,1.67,-1.37,1.36,2.28,1.30,2.98,3.03,3.03
70.77,1.77,-1.25,1.73,-1.28,1.25,2.18,1.23,3.02,2.98,3.02
71.48,1.82,-1.16,1.82,-1.16,1.15,2.08,1.17,2.97,2.97,2.98
72.19,1.87,-1.09,1.91,-1.04,1.04,1.98,1.10,2.91,2.96,2.96
72.91,2.03,-0.89,1.98,-0.94,0.94,1.88,1.04,2.97,2.92,2.92
73.64,2.05,-0.84,2.06,-0.83,0.84,1.78,0.98,2.89,2.90,2.89
74.38,2.11,-0.75,2.15,-0.71,0.74,1.68,0.92,2.85,2.88,2.86
75.12,2.23,-0.60,2.20,-0.63,0.64,1.58,0.87,2.87,2.84,2.83
75.87,2.27,-0.53,2.25,-0.54,0.55,1.48,0.81,2.82,2.80,2.80
76.63,2.28,-0.49,2.28,-0.48,0.46,1.38,0.75,2.74,2.75,2.77
77.40,2.30,-0.44,2.33,-0.41,0.39,1.28,0.70,2.69,2.72,2.74
78.17,2.37,-0.34,2.39,-0.32,0.33,1.19,0.64,2.70,2.72,2.71
78.95,2.50,-0.20,2.46,-0.24,0.27,1.09,0.58,2.77,2.73,2.70
79.74,2.51,-0.17,2.51,-0.17,0.21,0.99,0.53,2.72,2.71,2.68
80.54,2.51,-0.15,2.52,-0.14,0.15,0.90,0.47,2.66,2.66,2.66
81.35,2.51,-0.13,2.51,-0.13,0.09,0.80,0.41,2.60,2.60,2.64
82.16,2.53,-0.11,2.55,-0.09,0.03,0.71,0.35,2.56,2.58,2.64
82.98,2.61,-0.03,2.62,-0.01,-0.02,0.61,0.30,2.59,2.60,2.64
83.81,2.72,0.09,2.69,0.06,-0.05,0.52,0.24,2.67,2.64,2.63
84.65,2.74,0.12,2.74,0.11,-0.07,0.43,0.18,2.67,2.67,2.62
85.50,2.74,0.11,2.75,0.13,-0.07,0.34,0.12,2.67,2.68,2.63
86.35,2.74,0.11,2.75,0.12,-0.06,0.24,0.06,2.68,2.69,2.63
87.22,2.73,0.10,2.71,0.08,-0.03,0.15,-0.00,2.70,2.67,2.63
88.09,2.67,0.04,2.64,0.00,0.00,0.06,-0.07,2.67,2.64,2.63
88.97,2.52,-0.13,2.57,-0.07,0.04,-0.03,-0.13,2.56,2.61,2.65
89.86,2.51,-0.14,2.51,-0.13,0.07,-0.11,-0.19,2.58,2.59,2.65
90.76,2.51,-0.12,2.49,-0.15,0.08,-0.20,-0.26,2.59,2.57,2.63
91.66,2.51,-0.13,2.50,-0.13,0.08,-0.29,-0.32,2.59,2.58,2.64
92.58,2.51,-0.10,2.55,-0.07,0.06,-0.37,-0.39,2.57,2.60,2.61
93.51,2.61,-0.01,2.61,-0.00,0.02,-0.46,-0.46,2.63,2.63,2.62
94.44,2.72,0.12,2.69,0.09,-0.03,-0.54,-0.52,2.69,2.65,2.60
95.39,2.74,0.15,2.74,0.16,-0.10,-0.62,-0.59,2.64,2.64,2.59
96.34,2.74,0.19,2.74,0.19,-0.17,-0.70,-0.66,2.57,2.57,2.55
97.30,2.74,0.21,2.73,0.20,-0.24,-0.78,-0.73,2.50,2.49,2.53
98.28,2.74,0.23,2.77,0.26,-0.30,-0.86,-0.80,2.44,2.46,2.51
99.26,2.80,0.32,2.83,0.35,-0.36,-0.93,-0.87,2.44,2.47,2.48
100.25,2.96,0.51,2.90,0.45,-0.42,-1.01,-0.94,2.54,2.48,2.45
101.25,2.96,0.54,2.96,0.54,-0.49,-1.08,-1.02,2.47,2.47,2.42
102.27,2.96,0.58,2.97,0.59,-0.57,-1.16,-1.09,2.39,2.40,2.38
103.29,2.96,0.63,2.95,0.62,-0.66,-1.23,-1.16,2.30,2.29,2.33
104.32,2.96,0.67,2.98,0.69,-0.75,-1.30,-1.23,2.21,2.23,2.29
105.37,3.02,0.78,3.05,0.80,-0.84,-1.36,-1.30,2.18,2.20,2.24
106.42,3.15,0.96,3.12,0.93,-0.93,-1.43,-1.37,2.22,2.19,2.19
107.48,3.19,1.07,3.18,1.06,-1.02,-1.49,-1.44,2.17,2.16,2.12
108.56,3.19,1.15,3.20,1.16,-1.11,-1.56,-1.51,2.08,2.09,2.04
109.64,3.19,1.22,3.19,1.22,-1.20,-1.62,-1.57,1.99,1.99,1.97
110.74,3.19,1.28,3.19,1.29,-1.29,-1.68,-1.64,1.90,1.90,1.91
111.85,3.19,1.35,3.19,1.36,-1.37,-1.73,-1.70,1.82,1.82,1.84
112.97,3.19,1.44,3.19,1.43,-1.45,-1.79,-1.76,1.74,1.74,1.75
114.10,3.19,1.50,3.19,1.51,-1.52,-1.84,-1.82,1.67,1.67,1.69
115.24,3.19,1.58,3.19,1.58,-1.58,-1.89,-1.88,1.61,1.61,1.61
116.39,3.19,1.66,3.19,1.66,-1.65,-1.94,-1.93,1.54,1.54,1.53
117.55,3.19,1.72,3.19,1.72,-1.72,-1.99,-1.98,1.47,1.47,1.47
118.73,3.19,1.79,3.19,1.78,-1.78,-2.03,-2.03,1.41,1.41,1.40
119.92,3.19,1.83,3.19,1.84,-1.84,-2.07,-2.07,1.35,1.35,1.36
121.12,3.19,1.89,3.19,1.89,-1.89,-2.11,-2.11,1.30,1.30,1.30
122.33,3.19,1.93,3.19,1.92,-1.93,-2.15,-2.14,1.26,1.26,1.26
123.55,3.19,1.95,3.20,1.97,-1.95,-2.19,-2.17,1.24,1.25,1.24
124.79,3.19,1.99,3.20,2.00,-1.96,-2.22,-2.20,1.23,1.24,1.20
126.03,3.19,2.03,3.17,2.00,-1.96,-2.25,-2.22,1.23,1.20,1.16
127.29,3.12,1.99,3.10,1.98,-1.96,-2.28,-2.24,1.16,1.14,1.13
128.57,3.01,1.92,3.03,1.94,-1.96,-2.31,-2.26,1.05,1.07,1.09
129.85,2.96,1.90,2.98,1.92,-1.96,-2.33,-2.27,1.00,1.02,1.06
131.15,2.96,1.93,2.95,1.92,-1.96,-2.35,-2.28,1.00,0.99,1.03
132.46,2.96,1.96,2.96,1.96,-1.97,-2.38,-2.28,0.99,0.98,1.00
133.79,2.96,1.99,2.96,2.00,-1.99,-2.39,-2.28,0.97,0.97,0.97
135.12,2.96,2.04,2.96,2.03,-2.02,-2.41,-2.28,0.94,0.94,0.92
136.48,2.96,2.07,2.96,2.07,-2.06,-2.42,-2.28,0.90,0.90,0.89
137.84,2.96,2.10,2.96,2.11,-2.10,-2.44,-2.27,0.86,0.86,0.86
139.22,2.96,2.15,2.96,2.15,-2.14,-2.45,-2.26,0.82,0.82,0.81
140.61,2.96,2.20,2.96,2.19,-2.18,-2.46,-2.25,0.78,0.78,0.76
142.02,2.96,2.22,2.96,2.23,-2.22,-2.46,-2.24,0.74,0.74,0.74
143.44,2.96,2.26,2.96,2.26,-2.27,-2.47,-2.22,0.69,0.69,0.70
144.87,2.96,2.30,2.96,2.30,-2.32,-2.47,-2.21,0.64,0.64,0.66
146.32,2.96,2.35,2.96,2.35,-2.37,-2.47,-2.19,0.59,0.59,0.61
147.78,2.96,2.39,2.96,2.40,-2.41,-2.47,-2.17,0.55,0.55,0.57
149.26,2.96,2.46,2.97,2.48,-2.45,-2.47,-2.15,0.51,0.53,0.50
150.75,2.96,2.54,2.96,2.53,-2.49,-2.46,-2.14,0.47,0.47,0.42
152.26,2.95,2.60,2.90,2.56,-2.53,-2.46,-2.12,0.42,0.37,0.35
153.78,2.81,2.53,2.84,2.57,-2.57,-2.45,-2.10,0.24,0.26,0.28
155.32,2.75,2.57,2.77,2.58,-2.62,-2.44,-2.09,0.13,0.15,0.18
156.88,2.74,2.63,2.73,2.62,-2.67,-2.43,-2.07,0.07,0.06,0.11
158.44,2.74,2.70,2.73,2.70,-2.73,-2.42,-2.06,0.01,0.01,0.04
160.03,2.74,2.78,2.74,2.77,-2.78,-2.41,-2.04,-0.04,-0.04,-0.04
161.63,2.74,2.84,2.74,2.84,-2.84,-2.39,-2.03,-0.10,-0.10,-0.10
163.24,2.74,2.89,2.74,2.89,-2.88,-2.38,-2.02,-0.14,-0.14,-0.15
164.88,2.74,2.93,2.75,2.94,-2.91,-2.36,-2.01,-0.17,-0.17,-0.19
166.53,2.74,2.97,2.75,2.98,-2.93,-2.35,-2.00,-0.19,-0.18,-0.23
168.19,2.74,3.00,2.72,2.97,-2.92,-2.33,-2.00,-0.18,-0.21,-0.26
169.87,2.68,2.95,2.65,2.93,-2.90,-2.31,-1.99,-0.22,-0.25,-0.27
171.57,2.54,2.82,2.58,2.86,-2.88,-2.29,-1.99,-0.34,-0.30,-0.28
173.29,2.51,2.79,2.52,2.80,-2.85,-2.27,-1.99,-0.34,-0.32,-0.28
175.02,2.51,2.77,2.50,2.77,-2.81,-2.25,-1.99,-0.30,-0.31,-0.26
176.77,2.51,2.78,2.51,2.77,-2.78,-2.22,-1.99,-0.27,-0.28,-0.27
178.54,2.51,2.77,2.51,2.77,-2.77,-2.20,-1.99,-0.26,-0.26,-0.26
180.32,2.51,2.76,2.51,2.76,-2.77,-2.18,-2.00,-0.26,-0.26,-0.25
182.13,2.51,2.76,2.51,2.76,-2.77,-2.15,-2.00,-0.26,-0.26,-0.25
183.95,2.51,2.76,2.51,2.76,-2.77,-2.13,-2.01,-0.26,-0.26,-0.25
185.79,2.51,2.77,2.52,2.78,-2.77,-2.10,-2.02,-0.26,-0.25,-0.26
187.65,2.51,2.79,2.52,2.80,-2.76,-2.08,-2.04,-0.25,-0.24,-0.28
189.52,2.51,2.81,2.49,2.79,-2.74,-2.05,-2.05,-0.23,-0.25,-0.30
191.42,2.45,2.77,2.43,2.75,-2.72,-2.03,-2.07,-0.27,-0.29,-0.32
193.33,2.33,2.67,2.36,2.69,-2.71,-2.00,-2.08,-0.38,-0.35,-0.34
195.27,2.28,2.62,2.30,2.65,-2.70,-1.97,-2.10,-0.42,-0.40,-0.34
197.22,2.28,2.64,2.27,2.64,-2.69,-1.94,-2.12,-0.41,-0.42,-0.36
199.19,2.28,2.68,2.28,2.66,-2.69,-1.92,-2.14,-0.41,-0.42,-0.40
201.18,2.28,2.68,2.28,2.69,-2.69,-1.89,-2.16,-0.41,-0.41,-0.40
203.19,2.28,2.70,2.28,2.71,-2.69,-1.86,-2.18,-0.41,-0.41,-0.42
205.23,2.28,2.73,2.29,2.73,-2.69,-1.83,-2.21,-0.41,-0.39,-0.45
207.28,2.28,2.73,2.28,2.74,-2.68,-1.81,-2.23,-0.40,-0.40,-0.45
209.35,2.28,2.75,2.23,2.71,-2.67,-1.78,-2.25,-0.39,-0.44,-0.47
211.44,2.15,2.65,2.16,2.65,-2.66,-1.75,-2.28,-0.51,-0.50,-0.50
213.56,2.06,2.56,2.09,2.59,-2.64,-1.72,-2.30,-0.58,-0.55,-0.50
215.69,2.05,2.55,2.05,2.56,-2.63,-1.69,-2.32,-0.58,-0.58,-0.50
217.85,2.05,2.58,2.04,2.57,-2.61,-1.67,-2.34,-0.56,-0.57,-0.53
220.03,2.05,2.59,2.05,2.59,-2.59,-1.64,-2.36,-0.54,-0.54,-0.54
222.23,2.05,2.61,2.07,2.62,-2.56,-1.61,-2.38,-0.51,-0.50,-0.56
224.45,2.05,2.61,2.05,2.61,-2.55,-1.58,-2.40,-0.50,-0.50,-0.56
226.70,2.05,2.61,2.00,2.56,-2.53,-1.55,-2.42,-0.48,-0.54,-0.56
228.96,1.89,2.46,1.93,2.49,-2.52,-1.52,-2.43,-0.63,-0.59,-0.57
231.25,1.84,2.41,1.86,2.43,-2.49,-1.50,-2.45,-0.65,-0.63,-0.57
233.57,1.82,2.40,1.81,2.40,-2.45,-1.47,-2.45,-0.63,-0.63,-0.58
235.90,1.82,2.41,1.83,2.42,-2.41,-1.44,-2.46,-0.59,-0.57,-0.59
238.26,1.82,2.41,1.82,2.41,-2.36,-1.41,-2.46,-0.54,-0.55,-0.59
240.64,1.82,2.41,1.77,2.36,-2.32,-1.39,-2.46,-0.50,-0.55,-0.59
243.05,1.67,2.25,1.70,2.28,-2.28,-1.36,-2.46,-0.61,-0.58,-0.58
245.48,1.60,2.17,1.64,2.21,-2.23,-1.33,-2.45,-0.63,-0.60,-0.57
247.93,1.60,2.16,1.60,2.17,-2.18,-1.31,-2.44,-0.58,-0.58,-0.56
250.41,1.60,2.17,1.57,2.13,-2.13,-1.28,-2.43,-0.53,-0.55,-0.57
252.92,1.55,2.11,1.52,2.07,-2.06,-1.25,-2.41,-0.51,-0.54,-0.56
255.45,1.40,1.93,1.44,1.99,-1.99,-1.23,-2.39,-0.59,-0.54,-0.53
258.00,1.37,1.90,1.40,1.93,-1.92,-1.20,-2.36,-0.55,-0.52,-0.53
260.58,1.37,1.90,1.34,1.87,-1.86,-1.17,-2.33,-0.49,-0.52,-0.53
263.19,1.35,1.86,1.29,1.81,-1.80,-1.15,-2.30,-0.45,-0.51,-0.51
265.82,1.16,1.67,1.22,1.72,-1.75,-1.12,-2.26,-0.59,-0.53,-0.51
268.48,1.14,1.62,1.15,1.64,-1.69,-1.10,-2.22,-0.55,-0.53,-0.48
271.16,1.14,1.61,1.12,1.59,-1.63,-1.07,-2.18,-0.49,-0.51,-0.47
273.87,1.14,1.60,1.15,1.60,-1.57,-1.05,-2.14,-0.43,-0.41,-0.46
276.61,1.14,1.56,1.14,1.57,-1.50,-1.02,-2.09,-0.36,-0.37,-0.42
279.38,1.14,1.55,1.08,1.49,-1.44,-1.00,-2.04,-0.30,-0.36,-0.41
282.17,0.97,1.35,1.01,1.39,-1.38,-0.97,-1.98,-0.41,-0.38,-0.38
284.99,0.91,1.26,0.94,1.29,-1.33,-0.95,-1.93,-0.42,-0.39,-0.35
287.84,0.91,1.24,0.90,1.22,-1.27,-0.92,-1.87,-0.36,-0.38,-0.33
290.72,0.91,1.20,0.90,1.20,-1.22,-0.90,-1.81,-0.31,-0.32,-0.29
293.63,0.91,1.18,0.91,1.18,-1.18,-0.87,-1.76,-0.27,-0.27,-0.27
296.57,0.91,1.15,0.91,1.15,-1.15,-0.85,-1.69,-0.24,-0.24,-0.24
299.53,0.91,1.12,0.91,1.13,-1.12,-0.83,-1.63,-0.21,-0.21,-0.21
302.53,0.91,1.11,0.91,1.10,-1.10,-0.80,-1.57,-0.19,-0.19,-0.20
305.55,0.91,1.07,0.91,1.08,-1.07,-0.78,-1.51,-0.16,-0.16,-0.16
308.61,0.91,1.05,0.92,1.07,-1.03,-0.76,-1.45,-0.12,-0.11,-0.14
311.69,0.91,1.04,0.91,1.03,-0.99,-0.73,-1.38,-0.08,-0.08,-0.13
314.81,0.91,1.01,0.86,0.97,-0.94,-0.71,-1.32,-0.03,-0.08,-0.10
317.96,0.77,0.87,0.79,0.89,-0.90,-0.69,-1.26,-0.13,-0.11,-0.10
321.14,0.68,0.79,0.72,0.82,-0.86,-0.66,-1.19,-0.18,-0.14,-0.11
324.35,0.68,0.78,0.67,0.77,-0.83,-0.64,-1.13,-0.15,-0.16,-0.10
327.59,0.68,0.77,0.67,0.76,-0.80,-0.62,-1.07,-0.12,-0.13,-0.09
330.87,0.68,0.76,0.68,0.77,-0.77,-0.60,-1.01,-0.09,-0.09,-0.08
334.18,0.68,0.76,0.68,0.76,-0.75,-0.57,-0.94,-0.07,-0.07,-0.08
337.52,0.68,0.75,0.69,0.75,-0.72,-0.55,-0.88,-0.04,-0.03,-0.07
340.90,0.68,0.72,0.69,0.74,-0.68,-0.53,-0.82,-0.00,0.00,-0.04
344.30,0.68,0.71,0.66,0.69,-0.64,-0.51,-0.76,0.04,0.01,-0.03
347.75,0.62,0.64,0.60,0.61,-0.60,-0.48,-0.70,0.02,0.00,-0.02
351.23,0.50,0.49,0.53,0.52,-0.54,-0.46,-0.64,-0.04,-0.01,0.01
354.74,0.46,0.43,0.47,0.44,-0.49,-0.44,-0.58,-0.03,-0.02,0.03
358.28,0.46,0.40,0.45,0.39,-0.44,-0.42,-0.52,0.02,0.01,0.06
361.87,0.46,0.38,0.46,0.38,-0.40,-0.39,-0.46,0.06,0.06,0.08
365.49,0.46,0.36,0.46,0.36,-0.36,-0.37,-0.41,0.10,0.10,0.10
369.14,0.46,0.34,0.46,0.34,-0.33,-0.35,-0.35,0.13,0.13,0.12
372.83,0.46,0.31,0.46,0.31,-0.30,-0.33,-0.29,0.16,0.16,0.15
376.56,0.46,0.29,0.48,0.30,-0.26,-0.30,-0.24,0.20,0.22,0.17
380.33,0.46,0.26,0.46,0.26,-0.22,-0.28,-0.18,0.24,0.24,0.20
384.13,0.46,0.24,0.40,0.19,-0.17,-0.26,-0.13,0.29,0.24,0.22
387.97,0.30,0.07,0.33,0.11,-0.12,-0.23,-0.07,0.18,0.22,0.23
391.85,0.24,0.01,0.26,0.03,-0.07,-0.21,-0.02,0.17,0.19,0.23
395.77,0.23,-0.01,0.22,-0.02,-0.03,-0.19,0.04,0.20,0.19,0.24
399.73,0.23,-0.02,0.22,-0.02,-0.00,-0.16,0.09,0.23,0.22,0.25
403.72,0.23,-0.03,0.23,-0.03,0.02,-0.14,0.14,0.25,0.25,0.26
407.76,0.23,-0.04,0.23,-0.04,0.04,-0.12,0.19,0.27,0.27,0.27
411.84,0.23,-0.05,0.23,-0.05,0.06,-0.09,0.25,0.29,0.30,0.28
415.96,0.23,-0.06,0.24,-0.04,0.09,-0.07,0.30,0.32,0.33,0.29
420.12,0.23,-0.06,0.22,-0.07,0.12,-0.04,0.35,0.35,0.34,0.29
424.32,0.21,-0.08,0.16,-0.13,0.15,-0.02,0.39,0.36,0.31,0.29
428.56,0.06,-0.23,0.09,-0.19,0.18,0.01,0.44,0.24,0.27,0.29
432.85,0.00,-0.28,0.03,-0.26,0.21,0.03,0.49,0.21,0.24,0.28
437.18,0.00,-0.29,-0.01,-0.30,0.24,0.06,0.53,0.24,0.23,0.29
441.55,0.00,-0.30,-0.01,-0.30,0.27,0.09,0.58,0.27,0.26,0.30
445.96,0.00,-0.30,-0.00,-0.30,0.30,0.11,0.62,0.30,0.30,0.30
450.42,0.00,-0.31,0.01,-0.30,0.34,0.14,0.66,0.34,0.35,0.31
454.93,0.00,-0.32,0.00,-0.31,0.38,0.17,0.70,0.38,0.38,0.32
459.48,0.00,-0.33,-0.04,-0.37,0.41,0.20,0.74,0.41,0.38,0.33
464.07,-0.10,-0.45,-0.10,-0.45,0.46,0.22,0.78,0.36,0.36,0.35
468.71,-0.20,-0.57,-0.17,-0.54,0.51,0.25,0.81,0.31,0.34,0.37
473.40,-0.23,-0.61,-0.22,-0.61,0.56,0.28,0.84,0.33,0.34,0.38
478.13,-0.23,-0.64,-0.24,-0.64,0.61,0.31,0.87,0.38,0.38,0.41
482.91,-0.23,-0.66,-0.23,-0.66,0.66,0.34,0.90,0.43,0.43,0.43
487.74,-0.23,-0.69,-0.23,-0.69,0.70,0.37,0.93,0.47,0.47,0.46
