frequency,raw,error,smoothed,error_smoothed,equalization,parametric_eq,fixed_band_eq,equalized_raw,equalized_smoothed,target
20.00,9.71,1.53,9.71,1.52,-1.52,-1.51,-0.49,8.19,8.18,8.18
20.20,9.70,1.53,9.70,1.53,-1.53,-1.50,-0.50,8.17,8.17,8.17
20.40,9.70,1.54,9.69,1.54,-1.54,-1.49,-0.52,8.16,8.16,8.16
20.61,9.69,1.54,9.69,1.54,-1.54,-1.48,-0.53,8.15,8.14,8.15
20.81,9.68,1.55,9.68,1.55,-1.54,-1.47,-0.54,8.13,8.13,8.13
21.02,9.67,1.55,9.67,1.55,-1.54,-1.46,-0.56,8.12,8.12,8.12
21.23,9.66,1.55,9.66,1.54,-1.54,-1.45,-0.57,8.12,8.12,8.11
21.44,9.65,1.53,9.64,1.53,-1.54,-1.44,-0.59,8.11,8.11,8.12
21.66,9.63,1.53,9.63,1.52,-1.53,-1.43,-0.61,8.10,8.10,8.10
21.87,9.61,1.51,9.61,1.52,-1.52,-1.42,-0.62,8.09,8.09,8.10
22.09,9.60,1.52,9.59,1.51,-1.51,-1.41,-0.64,8.09,8.09,8.08
22.31,9.58,1.51,9.57,1.50,-1.49,-1.40,-0.66,8.08,8.08,8.07
22.54,9.55,1.49,9.55,1.49,-1.47,-1.39,-0.68,8.07,8.07,8.06
22.76,9.52,1.46,9.51,1.46,-1.45,-1.37,-0.69,8.06,8.06,8.06
22.99,9.48,1.43,9.48,1.43,-1.43,-1.36,-0.71,8.05,8.05,8.05
23.22,9.45,1.41,9.45,1.40,-1.40,-1.35,-0.73,8.04,8.04,8.04
23.45,9.42,1.37,9.42,1.38,-1.38,-1.34,-0.75,8.04,8.04,8.05
23.69,9.40,1.36,9.39,1.35,-1.35,-1.33,-0.77,8.04,8.04,8.04
23.92,9.37,1.34,9.37,1.33,-1.33,-1.32,-0.79,8.03,8.04,8.03
24.16,9.36,1.32,9.35,1.32,-1.32,-1.30,-0.81,8.04,8.03,8.04
24.40,9.34,1.30,9.34,1.30,-1.31,-1.29,-0.83,8.02,8.02,8.04
24.65,9.33,1.30,9.33,1.30,-1.31,-1.28,-0.85,8.01,8.02,8.03
24.89,9.34,1.31,9.34,1.31,-1.32,-1.27,-0.87,8.02,8.02,8.03
25.14,9.35,1.33,9.35,1.32,-1.32,-1.26,-0.90,8.03,8.02,8.02
25.39,9.36,1.34,9.36,1.34,-1.33,-1.25,-0.92,8.03,8.03,8.02
25.65,9.37,1.35,9.36,1.34,-1.33,-1.23,-0.94,8.03,8.03,8.02
25.91,9.37,1.35,9.37,1.34,-1.33,-1.22,-0.96,8.03,8.03,8.02
26.16,9.36,1.33,9.36,1.34,-1.33,-1.21,-0.98,8.03,8.03,8.03
26.43,9.35,1.33,9.35,1.32,-1.32,-1.20,-1.00,8.03,8.02,8.02
26.69,9.33,1.31,9.33,1.31,-1.30,-1.19,-1.02,8.02,8.02,8.02
26.96,9.31,1.29,9.31,1.29,-1.28,-1.18,-1.04,8.02,8.02,8.02
27.23,9.28,1.26,9.28,1.26,-1.26,-1.17,-1.06,8.02,8.02,8.02
27.50,9.25,1.23,9.25,1.23,-1.23,-1.16,-1.08,8.02,8.02,8.02
27.77,9.22,1.19,9.22,1.19,-1.19,-1.14,-1.10,8.02,8.02,8.03
28.05,9.19,1.17,9.19,1.16,-1.16,-1.13,-1.12,8.03,8.03,8.02
28.33,9.16,1.13,9.16,1.13,-1.12,-1.12,-1.13,8.03,8.03,8.03
28.62,9.13,1.10,9.13,1.09,-1.09,-1.11,-1.15,8.04,8.04,8.03
28.90,9.10,1.06,9.10,1.06,-1.06,-1.10,-1.16,8.03,8.03,8.04
29.19,9.07,1.03,9.07,1.03,-1.04,-1.09,-1.18,8.03,8.03,8.04
29.48,9.05,1.02,9.05,1.01,-1.02,-1.08,-1.19,8.02,8.02,8.03
29.78,9.03,1.00,9.03,1.00,-1.01,-1.07,-1.20,8.01,8.02,8.03
30.08,9.03,1.00,9.03,1.00,-1.01,-1.06,-1.21,8.02,8.02,8.03
30.38,9.03,1.02,9.03,1.01,-1.01,-1.05,-1.22,8.02,8.02,8.01
30.68,9.03,1.02,9.03,1.02,-1.01,-1.04,-1.22,8.02,8.02,8.01
30.99,9.03,1.02,9.03,1.02,-1.01,-1.03,-1.23,8.01,8.01,8.01
31.30,9.03,1.02,9.03,1.02,-1.02,-1.02,-1.23,8.01,8.01,8.01
31.61,9.02,1.02,9.02,1.02,-1.01,-1.01,-1.23,8.00,8.00,8.00
31.93,9.01,1.03,9.00,1.01,-1.00,-1.00,-1.23,8.00,8.00,7.98
32.24,8.98,0.99,8.98,1.00,-0.99,-0.99,-1.23,7.98,7.99,7.99
32.57,8.96,0.99,8.96,0.98,-0.98,-0.98,-1.23,7.98,7.98,7.97
32.89,8.93,0.96,8.93,0.96,-0.96,-0.98,-1.22,7.97,7.97,7.97
33.22,8.90,0.94,8.90,0.93,-0.94,-0.97,-1.22,7.96,7.96,7.96
33.55,8.87,0.91,8.87,0.91,-0.92,-0.96,-1.21,7.95,7.95,7.96
33.89,8.84,0.89,8.84,0.89,-0.90,-0.95,-1.20,7.94,7.94,7.95
34.23,8.81,0.88,8.81,0.88,-0.88,-0.94,-1.19,7.93,7.93,7.93
34.57,8.79,0.86,8.79,0.86,-0.86,-0.93,-1.18,7.93,7.93,7.93
34.92,8.77,0.86,8.77,0.85,-0.84,-0.93,-1.17,7.93,7.93,7.91
35.27,8.75,0.82,8.74,0.83,-0.83,-0.92,-1.16,7.92,7.92,7.93
35.62,8.72,0.82,8.72,0.81,-0.81,-0.91,-1.15,7.90,7.91,7.90
35.97,8.70,0.80,8.69,0.80,-0.80,-0.91,-1.13,7.89,7.89,7.90
36.33,8.67,0.79,8.67,0.79,-0.80,-0.90,-1.12,7.87,7.87,7.88
36.70,8.65,0.79,8.65,0.79,-0.79,-0.89,-1.11,7.86,7.86,7.86
37.06,8.63,0.79,8.63,0.79,-0.78,-0.89,-1.09,7.84,7.84,7.84
37.43,8.61,0.79,8.61,0.78,-0.78,-0.88,-1.08,7.83,7.83,7.82
37.81,8.59,0.78,8.58,0.78,-0.78,-0.87,-1.07,7.81,7.81,7.81
38.19,8.56,0.78,8.56,0.77,-0.77,-0.87,-1.05,7.78,7.78,7.78
38.57,8.53,0.77,8.53,0.77,-0.77,-0.86,-1.04,7.75,7.76,7.76
38.95,8.51,0.76,8.51,0.77,-0.77,-0.86,-1.03,7.74,7.74,7.75
39.34,8.49,0.77,8.49,0.77,-0.77,-0.85,-1.01,7.72,7.72,7.72
39.74,8.47,0.78,8.46,0.77,-0.76,-0.85,-1.00,7.70,7.70,7.69
40.14,8.44,0.77,8.44,0.77,-0.76,-0.84,-0.99,7.68,7.68,7.67
40.54,8.41,0.76,8.41,0.76,-0.75,-0.84,-0.98,7.66,7.66,7.65
40.94,8.38,0.76,8.37,0.75,-0.74,-0.83,-0.96,7.63,7.63,7.62
41.35,8.34,0.73,8.34,0.74,-0.74,-0.83,-0.95,7.60,7.60,7.61
41.76,8.31,0.73,8.31,0.72,-0.73,-0.82,-0.94,7.57,7.58,7.58
42.18,8.29,0.72,8.28,0.72,-0.73,-0.82,-0.93,7.56,7.55,7.57
42.60,8.26,0.72,8.26,0.72,-0.73,-0.82,-0.93,7.53,7.53,7.54
43.03,8.24,0.72,8.24,0.72,-0.73,-0.81,-0.92,7.51,7.51,7.52
43.46,8.22,0.74,8.22,0.73,-0.73,-0.81,-0.91,7.49,7.49,7.48
43.90,8.20,0.74,8.20,0.74,-0.73,-0.81,-0.90,7.47,7.47,7.46
44.33,8.18,0.75,8.18,0.74,-0.73,-0.81,-0.90,7.45,7.44,7.43
44.78,8.15,0.74,8.15,0.74,-0.73,-0.80,-0.89,7.41,7.41,7.41
45.23,8.12,0.73,8.12,0.73,-0.73,-0.80,-0.89,7.38,7.38,7.39
45.68,8.08,0.74,8.08,0.73,-0.73,-0.80,-0.88,7.34,7.35,7.34
46.13,8.05,0.74,8.04,0.73,-0.74,-0.80,-0.88,7.31,7.31,7.31
46.60,8.01,0.74,8.01,0.74,-0.74,-0.80,-0.88,7.27,7.27,7.27
47.06,7.98,0.74,7.98,0.74,-0.75,-0.80,-0.87,7.23,7.23,7.24
47.53,7.95,0.75,7.95,0.75,-0.77,-0.80,-0.87,7.18,7.18,7.20
48.01,7.93,0.78,7.93,0.77,-0.78,-0.80,-0.87,7.14,7.15,7.15
48.49,7.91,0.80,7.91,0.80,-0.80,-0.80,-0.87,7.11,7.11,7.11
48.97,7.90,0.84,7.89,0.83,-0.82,-0.80,-0.87,7.08,7.08,7.06
49.46,7.87,0.84,7.87,0.85,-0.83,-0.80,-0.87,7.04,7.04,7.03
49.96,7.84,0.87,7.84,0.86,-0.84,-0.80,-0.87,7.00,7.00,6.97
50.46,7.80,0.86,7.79,0.85,-0.85,-0.80,-0.88,6.95,6.95,6.94
50.96,7.75,0.85,7.75,0.85,-0.85,-0.80,-0.88,6.89,6.90,6.90
51.47,7.71,0.85,7.71,0.85,-0.86,-0.80,-0.88,6.85,6.85,6.86
51.99,7.67,0.86,7.67,0.85,-0.86,-0.80,-0.89,6.80,6.80,6.81
52.51,7.64,0.86,7.64,0.86,-0.87,-0.80,-0.89,6.77,6.77,6.78
53.03,7.61,0.86,7.61,0.87,-0.88,-0.81,-0.89,6.73,6.73,6.75
53.56,7.59,0.89,7.58,0.88,-0.89,-0.81,-0.90,6.70,6.70,6.70
54.10,7.56,0.91,7.56,0.90,-0.89,-0.81,-0.90,6.66,6.66,6.65
54.64,7.53,0.92,7.53,0.92,-0.90,-0.81,-0.91,6.63,6.63,6.61
55.18,7.50,0.93,7.49,0.92,-0.91,-0.82,-0.91,6.59,6.58,6.57
55.74,7.45,0.93,7.45,0.92,-0.91,-0.82,-0.92,6.54,6.54,6.52
56.29,7.40,0.90,7.40,0.91,-0.91,-0.82,-0.93,6.48,6.49,6.50
56.86,7.36,0.90,7.36,0.90,-0.91,-0.83,-0.93,6.45,6.45,6.46
57.42,7.32,0.91,7.32,0.90,-0.91,-0.83,-0.94,6.41,6.41,6.41
58.00,7.29,0.92,7.28,0.91,-0.91,-0.84,-0.94,6.38,6.37,6.37
58.58,7.25,0.91,7.25,0.91,-0.91,-0.84,-0.95,6.34,6.34,6.34
59.16,7.22,0.91,7.22,0.91,-0.92,-0.85,-0.95,6.30,6.30,6.31
59.76,7.19,0.93,7.18,0.92,-0.93,-0.85,-0.96,6.26,6.26,6.26
60.35,7.15,0.94,7.15,0.94,-0.94,-0.86,-0.96,6.21,6.21,6.21
60.96,7.11,0.96,7.10,0.95,-0.95,-0.87,-0.97,6.15,6.15,6.15
61.57,7.06,0.97,7.06,0.97,-0.97,-0.87,-0.97,6.09,6.09,6.09
62.18,7.02,0.99,7.02,0.99,-0.99,-0.88,-0.98,6.03,6.03,6.03
62.80,6.98,1.01,6.98,1.01,-1.01,-0.89,-0.98,5.97,5.97,5.97
63.43,6.95,1.03,6.95,1.03,-1.02,-0.89,-0.99,5.92,5.92,5.92
64.07,6.92,1.05,6.91,1.04,-1.04,-0.90,-0.99,5.87,5.87,5.87
64.71,6.88,1.06,6.88,1.06,-1.06,-0.91,-1.00,5.82,5.82,5.82
65.35,6.85,1.09,6.84,1.08,-1.08,-0.92,-1.00,5.77,5.77,5.76
66.01,6.81,1.10,6.81,1.09,-1.09,-0.93,-1.00,5.71,5.71,5.71
66.67,6.77,1.10,6.77,1.11,-1.11,-0.94,-1.01,5.66,5.66,5.67
67.33,6.73,1.13,6.73,1.12,-1.12,-0.94,-1.01,5.60,5.61,5.60
68.01,6.70,1.15,6.69,1.14,-1.14,-0.95,-1.01,5.56,5.55,5.55
68.69,6.66,1.16,6.65,1.15,-1.15,-0.96,-1.02,5.50,5.50,5.50
69.37,6.61,1.16,6.61,1.17,-1.17,-0.97,-1.02,5.44,5.44,5.45
70.07,6.57,1.18,6.57,1.18,-1.18,-0.99,-1.02,5.38,5.38,5.39
70.77,6.53,1.21,6.53,1.20,-1.20,-1.00,-1.03,5.33,5.33,5.32
71.48,6.49,1.22,6.48,1.22,-1.22,-1.01,-1.03,5.27,5.27,5.27
72.19,6.44,1.23,6.44,1.23,-1.23,-1.02,-1.04,5.21,5.21,5.21
72.91,6.40,1.26,6.39,1.25,-1.25,-1.03,-1.04,5.15,5.15,5.14
73.64,6.35,1.26,6.35,1.26,-1.26,-1.04,-1.05,5.09,5.09,5.09
74.38,6.31,1.28,6.31,1.27,-1.27,-1.06,-1.05,5.03,5.03,5.03
75.12,6.27,1.29,6.27,1.29,-1.29,-1.07,-1.06,4.98,4.98,4.98
75.87,6.23,1.30,6.23,1.30,-1.30,-1.08,-1.07,4.93,4.93,4.93
76.63,6.19,1.32,6.19,1.31,-1.31,-1.10,-1.08,4.87,4.87,4.87
77.40,6.15,1.32,6.15,1.32,-1.32,-1.11,-1.08,4.82,4.82,4.83
78.17,6.11,1.34,6.11,1.33,-1.33,-1.12,-1.09,4.77,4.78,4.77
78.95,6.08,1.35,6.07,1.34,-1.34,-1.14,-1.10,4.73,4.73,4.73
79.74,6.04,1.36,6.04,1.36,-1.35,-1.15,-1.11,4.68,4.68,4.68
80.54,6.00,1.37,6.00,1.37,-1.37,-1.17,-1.12,4.63,4.63,4.63
81.35,5.96,1.39,5.96,1.38,-1.38,-1.18,-1.14,4.58,4.58,4.57
82.16,5.92,1.38,5.91,1.38,-1.39,-1.20,-1.15,4.53,4.52,4.54
82.98,5.87,1.39,5.87,1.39,-1.40,-1.21,-1.16,4.47,4.47,4.48
83.81,5.84,1.41,5.83,1.41,-1.41,-1.23,-1.18,4.43,4.42,4.43
84.65,5.80,1.43,5.80,1.43,-1.42,-1.25,-1.19,4.38,4.38,4.37
85.50,5.76,1.45,5.76,1.44,-1.43,-1.26,-1.21,4.33,4.33,4.31
86.35,5.71,1.45,5.71,1.45,-1.44,-1.28,-1.23,4.27,4.27,4.26
87.22,5.66,1.45,5.65,1.45,-1.45,-1.30,-1.25,4.21,4.21,4.21
88.09,5.60,1.45,5.60,1.45,-1.46,-1.32,-1.27,4.14,4.14,4.15
88.97,5.55,1.46,5.55,1.45,-1.47,-1.33,-1.29,4.08,4.08,4.09
89.86,5.51,1.47,5.51,1.47,-1.48,-1.35,-1.31,4.03,4.03,4.04
90.76,5.47,1.49,5.47,1.49,-1.49,-1.37,-1.33,3.98,3.98,3.98
91.66,5.44,1.53,5.43,1.51,-1.50,-1.39,-1.36,3.94,3.93,3.91
92.58,5.39,1.53,5.39,1.53,-1.51,-1.41,-1.38,3.87,3.87,3.86
93.51,5.34,1.53,5.34,1.53,-1.53,-1.43,-1.41,3.80,3.81,3.81
94.44,5.29,1.54,5.29,1.54,-1.55,-1.45,-1.43,3.73,3.73,3.75
95.39,5.24,1.56,5.24,1.55,-1.57,-1.47,-1.46,3.67,3.66,3.68
96.34,5.19,1.58,5.19,1.58,-1.59,-1.49,-1.49,3.60,3.60,3.61
97.30,5.16,1.61,5.16,1.61,-1.61,-1.51,-1.52,3.55,3.55,3.55
98.28,5.13,1.65,5.12,1.64,-1.62,-1.53,-1.54,3.50,3.50,3.48
99.26,5.08,1.66,5.08,1.66,-1.64,-1.55,-1.57,3.44,3.44,3.42
100.25,5.03,1.67,5.03,1.66,-1.65,-1.57,-1.60,3.38,3.37,3.36
101.25,4.97,1.66,4.97,1.66,-1.66,-1.59,-1.64,3.30,3.30,3.31
102.27,4.92,1.67,4.91,1.66,-1.67,-1.61,-1.67,3.24,3.24,3.25
103.29,4.86,1.67,4.86,1.67,-1.68,-1.63,-1.70,3.18,3.18,3.19
104.32,4.82,1.68,4.82,1.68,-1.69,-1.65,-1.73,3.13,3.13,3.14
105.37,4.78,1.70,4.78,1.70,-1.69,-1.67,-1.76,3.08,3.08,3.08
106.42,4.75,1.72,4.74,1.71,-1.70,-1.69,-1.79,3.04,3.04,3.03
107.48,4.70,1.73,4.70,1.72,-1.71,-1.71,-1.82,2.98,2.98,2.97
108.56,4.65,1.73,4.64,1.73,-1.73,-1.73,-1.85,2.92,2.92,2.92
109.64,4.59,1.73,4.59,1.73,-1.74,-1.75,-1.88,2.84,2.85,2.86
110.74,4.55,1.75,4.55,1.75,-1.76,-1.77,-1.91,2.79,2.79,2.80
111.85,4.51,1.77,4.51,1.76,-1.77,-1.79,-1.94,2.74,2.74,2.74
112.97,4.48,1.79,4.47,1.79,-1.79,-1.81,-1.96,2.69,2.69,2.69
114.10,4.44,1.81,4.43,1.81,-1.80,-1.82,-1.99,2.64,2.63,2.63
115.24,4.38,1.83,4.38,1.82,-1.81,-1.84,-2.01,2.56,2.57,2.55
116.39,4.33,1.84,4.32,1.83,-1.83,-1.86,-2.03,2.50,2.49,2.49
117.55,4.27,1.84,4.27,1.84,-1.84,-1.88,-2.05,2.43,2.43,2.43
118.73,4.22,1.85,4.22,1.84,-1.85,-1.90,-2.07,2.37,2.37,2.37
119.92,4.18,1.85,4.18,1.85,-1.85,-1.92,-2.09,2.32,2.33,2.33
121.12,4.15,1.87,4.14,1.86,-1.86,-1.93,-2.10,2.29,2.28,2.28
122.33,4.10,1.88,4.09,1.87,-1.86,-1.95,-2.11,2.24,2.23,2.22
123.55,4.04,1.87,4.04,1.87,-1.87,-1.97,-2.12,2.17,2.17,2.17
124.79,3.98,1.86,3.98,1.86,-1.87,-1.98,-2.13,2.11,2.11,2.12
126.03,3.93,1.87,3.93,1.86,-1.88,-2.00,-2.13,2.05,2.05,2.06
127.29,3.88,1.87,3.88,1.87,-1.88,-2.01,-2.13,2.00,2.00,2.01
128.57,3.84,1.90,3.83,1.89,-1.89,-2.03,-2.13,1.95,1.95,1.94
129.85,3.79,1.90,3.79,1.90,-1.89,-2.04,-2.13,1.90,1.90,1.89
131.15,3.74,1.91,3.74,1.91,-1.90,-2.05,-2.12,1.84,1.84,1.83
132.46,3.69,1.91,3.68,1.91,-1.90,-2.06,-2.11,1.78,1.78,1.78
133.79,3.63,1.91,3.63,1.91,-1.91,-2.07,-2.10,1.72,1.72,1.72
135.12,3.58,1.91,3.58,1.91,-1.92,-2.08,-2.09,1.66,1.66,1.67
136.48,3.53,1.91,3.53,1.91,-1.92,-2.09,-2.08,1.61,1.61,1.62
137.84,3.49,1.92,3.49,1.92,-1.92,-2.10,-2.06,1.57,1.57,1.57
139.22,3.45,1.94,3.44,1.92,-1.91,-2.11,-2.05,1.53,1.53,1.51
140.61,3.39,1.92,3.39,1.92,-1.91,-2.12,-2.03,1.48,1.48,1.47
142.02,3.33,1.92,3.33,1.91,-1.91,-2.12,-2.01,1.42,1.42,1.41
143.44,3.27,1.90,3.27,1.89,-1.91,-2.13,-1.99,1.36,1.36,1.37
144.87,3.21,1.88,3.21,1.89,-1.90,-2.13,-1.97,1.30,1.31,1.33
146.32,3.17,1.89,3.17,1.89,-1.90,-2.14,-1.95,1.27,1.27,1.28
147.78,3.14,1.90,3.13,1.90,-1.89,-2.14,-1.93,1.24,1.24,1.24
149.26,3.10,1.91,3.10,1.90,-1.89,-2.14,-1.91,1.21,1.21,1.19
150.75,3.06,1.91,3.05,1.90,-1.89,-2.14,-1.89,1.17,1.16,1.15
152.26,3.01,1.90,3.01,1.90,-1.89,-2.14,-1.87,1.11,1.11,1.11
153.78,2.96,1.89,2.96,1.89,-1.90,-2.14,-1.85,1.06,1.06,1.07
155.32,2.92,1.89,2.92,1.89,-1.90,-2.14,-1.83,1.02,1.02,1.03
156.88,2.88,1.90,2.88,1.90,-1.90,-2.13,-1.81,0.98,0.97,0.98
158.44,2.84,1.91,2.84,1.91,-1.90,-2.13,-1.80,0.93,0.94,0.93
160.03,2.81,1.92,2.80,1.91,-1.91,-2.12,-1.78,0.90,0.89,0.89
161.63,2.77,1.92,2.76,1.92,-1.91,-2.12,-1.76,0.85,0.85,0.85
163.24,2.72,1.92,2.72,1.92,-1.92,-2.11,-1.75,0.80,0.80,0.80
164.88,2.68,1.93,2.68,1.92,-1.93,-2.10,-1.73,0.75,0.75,0.75
166.53,2.64,1.94,2.64,1.93,-1.93,-2.09,-1.72,0.71,0.71,0.70
168.19,2.60,1.93,2.60,1.94,-1.94,-2.08,-1.71,0.66,0.66,0.67
169.87,2.56,1.95,2.55,1.94,-1.94,-2.07,-1.70,0.62,0.61,0.61
171.57,2.51,1.95,2.51,1.94,-1.95,-2.06,-1.69,0.56,0.56,0.56
173.29,2.47,1.95,2.47,1.95,-1.95,-2.05,-1.68,0.51,0.51,0.52
175.02,2.43,1.96,2.43,1.96,-1.96,-2.03,-1.68,0.47,0.47,0.47
176.77,2.40,1.98,2.39,1.97,-1.97,-2.02,-1.67,0.43,0.42,0.42
178.54,2.36,1.98,2.36,1.98,-1.98,-2.00,-1.67,0.38,0.38,0.38
180.32,2.32,2.00,2.32,1.99,-1.99,-1.99,-1.66,0.33,0.33,0.32
182.13,2.28,1.99,2.28,2.00,-2.00,-1.97,-1.66,0.28,0.28,0.29
183.95,2.25,2.01,2.24,2.01,-2.00,-1.95,-1.66,0.24,0.24,0.24
185.79,2.21,2.02,2.21,2.01,-2.01,-1.94,-1.66,0.20,0.20,0.19
187.65,2.17,2.02,2.17,2.02,-2.01,-1.92,-1.67,0.15,0.15,0.15
189.52,2.13,2.02,2.13,2.02,-2.02,-1.90,-1.67,0.11,0.11,0.11
191.42,2.09,2.02,2.09,2.02,-2.02,-1.88,-1.68,0.06,0.06,0.07
193.33,2.05,2.02,2.05,2.02,-2.03,-1.86,-1.68,0.02,0.02,0.03
195.27,2.01,2.03,2.01,2.03,-2.03,-1.84,-1.69,-0.02,-0.03,-0.02
197.22,1.97,2.04,1.97,2.03,-2.03,-1.82,-1.70,-0.06,-0.06,-0.07
199.19,1.93,2.03,1.93,2.04,-2.02,-1.80,-1.71,-0.10,-0.09,-0.10
201.18,1.90,2.04,1.89,2.03,-2.01,-1.78,-1.71,-0.12,-0.12,-0.14
203.19,1.85,2.02,1.85,2.01,-2.00,-1.76,-1.72,-0.15,-0.15,-0.17
205.23,1.80,1.99,1.80,1.99,-1.98,-1.73,-1.74,-0.19,-0.19,-0.19
207.28,1.74,1.96,1.74,1.96,-1.97,-1.71,-1.75,-0.23,-0.23,-0.22
209.35,1.68,1.94,1.68,1.93,-1.95,-1.69,-1.76,-0.27,-0.27,-0.26
211.44,1.63,1.92,1.62,1.91,-1.92,-1.67,-1.77,-0.30,-0.30,-0.29
213.56,1.58,1.89,1.58,1.89,-1.90,-1.64,-1.78,-0.33,-0.32,-0.31
215.69,1.54,1.88,1.54,1.88,-1.88,-1.62,-1.79,-0.35,-0.35,-0.34
217.85,1.51,1.88,1.50,1.87,-1.87,-1.60,-1.80,-0.36,-0.37,-0.37
220.03,1.46,1.86,1.46,1.86,-1.85,-1.58,-1.81,-0.39,-0.39,-0.40
222.23,1.42,1.85,1.41,1.84,-1.83,-1.55,-1.82,-0.41,-0.42,-0.43
224.45,1.37,1.81,1.37,1.81,-1.81,-1.53,-1.83,-0.44,-0.44,-0.44
226.70,1.32,1.79,1.32,1.79,-1.79,-1.51,-1.84,-0.47,-0.47,-0.47
228.96,1.28,1.76,1.28,1.76,-1.76,-1.48,-1.85,-0.49,-0.49,-0.48
231.25,1.24,1.74,1.24,1.74,-1.73,-1.46,-1.85,-0.50,-0.50,-0.50
233.57,1.20,1.72,1.19,1.71,-1.71,-1.44,-1.85,-0.51,-0.51,-0.52
235.90,1.15,1.68,1.15,1.68,-1.68,-1.41,-1.86,-0.53,-0.53,-0.53
238.26,1.11,1.67,1.11,1.65,-1.66,-1.39,-1.86,-0.55,-0.55,-0.56
240.64,1.07,1.62,1.07,1.62,-1.64,-1.37,-1.85,-0.57,-0.57,-0.55
243.05,1.04,1.61,1.04,1.61,-1.62,-1.34,-1.85,-0.58,-0.58,-0.57
245.48,1.01,1.59,1.02,1.59,-1.60,-1.32,-1.84,-0.59,-0.58,-0.58
247.93,1.01,1.60,1.00,1.58,-1.58,-1.30,-1.83,-0.58,-0.58,-0.59
250.41,0.99,1.57,0.98,1.57,-1.57,-1.27,-1.82,-0.58,-0.58,-0.58
252.92,0.97,1.56,0.97,1.56,-1.55,-1.25,-1.81,-0.58,-0.58,-0.59
255.45,0.95,1.55,0.95,1.54,-1.54,-1.23,-1.79,-0.59,-0.59,-0.60
258.00,0.93,1.53,0.92,1.52,-1.52,-1.21,-1.78,-0.60,-0.60,-0.60
260.58,0.90,1.50,0.90,1.50,-1.50,-1.18,-1.76,-0.61,-0.60,-0.60
263.19,0.88,1.48,0.88,1.48,-1.49,-1.16,-1.73,-0.61,-0.61,-0.60
265.82,0.86,1.47,0.86,1.46,-1.47,-1.14,-1.71,-0.61,-0.61,-0.61
268.48,0.84,1.45,0.84,1.45,-1.44,-1.12,-1.68,-0.61,-0.61,-0.61
271.16,0.82,1.43,0.81,1.42,-1.42,-1.10,-1.66,-0.60,-0.61,-0.61
273.87,0.79,1.40,0.79,1.40,-1.40,-1.08,-1.63,-0.61,-0.61,-0.61
276.61,0.76,1.37,0.76,1.38,-1.37,-1.05,-1.59,-0.61,-0.61,-0.61
279.38,0.73,1.36,0.73,1.35,-1.34,-1.03,-1.56,-0.62,-0.62,-0.63
282.17,0.70,1.33,0.70,1.32,-1.32,-1.01,-1.53,-0.62,-0.62,-0.63
284.99,0.67,1.29,0.67,1.29,-1.29,-0.99,-1.49,-0.62,-0.62,-0.62
287.84,0.64,1.25,0.64,1.26,-1.26,-0.97,-1.45,-0.62,-0.62,-0.61
290.72,0.62,1.24,0.62,1.23,-1.24,-0.95,-1.42,-0.62,-0.62,-0.62
293.63,0.60,1.21,0.60,1.21,-1.22,-0.93,-1.38,-0.62,-0.62,-0.61
296.57,0.60,1.20,0.59,1.19,-1.20,-0.91,-1.34,-0.61,-0.61,-0.60
299.53,0.59,1.19,0.59,1.18,-1.19,-0.89,-1.30,-0.61,-0.60,-0.60
302.53,0.59,1.17,0.59,1.18,-1.18,-0.87,-1.26,-0.60,-0.59,-0.58
305.55,0.60,1.19,0.59,1.18,-1.18,-0.86,-1.22,-0.58,-0.58,-0.59
308.61,0.60,1.18,0.59,1.17,-1.16,-0.84,-1.18,-0.57,-0.57,-0.58
311.69,0.59,1.16,0.59,1.16,-1.15,-0.82,-1.14,-0.56,-0.56,-0.57
314.81,0.58,1.15,0.58,1.14,-1.13,-0.80,-1.10,-0.55,-0.56,-0.57
317.96,0.56,1.12,0.55,1.12,-1.11,-0.78,-1.07,-0.55,-0.55,-0.56
321.14,0.53,1.08,0.53,1.08,-1.08,-0.76,-1.03,-0.55,-0.55,-0.55
324.35,0.50,1.05,0.50,1.04,-1.04,-0.75,-0.99,-0.55,-0.54,-0.55
327.59,0.47,0.99,0.47,1.00,-1.00,-0.73,-0.95,-0.54,-0.54,-0.52
330.87,0.44,0.97,0.44,0.96,-0.96,-0.71,-0.91,-0.53,-0.53,-0.53
334.18,0.41,0.93,0.41,0.93,-0.93,-0.69,-0.87,-0.52,-0.52,-0.52
337.52,0.38,0.90,0.38,0.89,-0.89,-0.68,-0.84,-0.51,-0.51,-0.52
340.90,0.35,0.85,0.35,0.85,-0.86,-0.66,-0.80,-0.51,-0.51,-0.50
344.30,0.33,0.82,0.33,0.82,-0.83,-0.64,-0.76,-0.50,-0.50,-0.49
347.75,0.31,0.80,0.31,0.80,-0.80,-0.62,-0.73,-0.49,-0.49,-0.49
351.23,0.30,0.79,0.30,0.78,-0.78,-0.61,-0.69,-0.48,-0.48,-0.49
354.74,0.29,0.75,0.28,0.76,-0.75,-0.59,-0.66,-0.47,-0.47,-0.46
358.28,0.27,0.74,0.27,0.73,-0.73,-0.57,-0.62,-0.46,-0.46,-0.47
361.87,0.25,0.71,0.25,0.71,-0.71,-0.56,-0.59,-0.46,-0.46,-0.46
365.49,0.24,0.69,0.23,0.68,-0.68,-0.54,-0.56,-0.45,-0.45,-0.45
369.14,0.22,0.65,0.22,0.65,-0.66,-0.53,-0.52,-0.44,-0.44,-0.43
372.83,0.20,0.63,0.20,0.63,-0.63,-0.51,-0.49,-0.43,-0.43,-0.43
376.56,0.18,0.61,0.17,0.60,-0.59,-0.49,-0.46,-0.42,-0.42,-0.43
380.33,0.15,0.57,0.15,0.56,-0.56,-0.48,-0.43,-0.41,-0.41,-0.42
384.13,0.12,0.52,0.12,0.53,-0.52,-0.46,-0.40,-0.40,-0.40,-0.40
387.97,0.09,0.49,0.09,0.48,-0.48,-0.44,-0.37,-0.40,-0.40,-0.40
391.85,0.06,0.45,0.06,0.45,-0.44,-0.43,-0.34,-0.39,-0.39,-0.39
395.77,0.03,0.41,0.03,0.40,-0.40,-0.41,-0.31,-0.38,-0.38,-0.38
399.73,-0.00,0.37,-0.00,0.36,-0.37,-0.39,-0.28,-0.37,-0.37,-0.37
403.72,-0.02,0.32,-0.02,0.33,-0.33,-0.38,-0.25,-0.35,-0.36,-0.34
407.76,-0.04,0.31,-0.05,0.30,-0.30,-0.36,-0.22,-0.35,-0.35,-0.35
411.84,-0.06,0.28,-0.06,0.27,-0.28,-0.34,-0.20,-0.34,-0.34,-0.34
415.96,-0.07,0.25,-0.07,0.26,-0.27,-0.33,-0.17,-0.34,-0.34,-0.32
420.12,-0.07,0.25,-0.07,0.25,-0.26,-0.31,-0.14,-0.33,-0.33,-0.32
424.32,-0.06,0.25,-0.06,0.24,-0.25,-0.29,-0.12,-0.31,-0.31,-0.31
428.56,-0.04,0.25,-0.05,0.25,-0.25,-0.28,-0.09,-0.29,-0.29,-0.29
432.85,-0.03,0.25,-0.04,0.25,-0.24,-0.26,-0.07,-0.27,-0.28,-0.28
437.18,-0.03,0.26,-0.04,0.25,-0.23,-0.24,-0.04,-0.27,-0.27,-0.29
441.55,-0.05,0.23,-0.05,0.23,-0.22,-0.22,-0.02,-0.27,-0.26,-0.28
445.96,-0.06,0.21,-0.06,0.21,-0.20,-0.20,0.00,-0.26,-0.26,-0.27
450.42,-0.08,0.18,-0.09,0.17,-0.17,-0.18,0.03,-0.25,-0.26,-0.26
454.93,-0.11,0.14,-0.11,0.14,-0.14,-0.16,0.05,-0.25,-0.25,-0.25
459.48,-0.14,0.10,-0.14,0.09,-0.10,-0.14,0.07,-0.24,-0.24,-0.24
464.07,-0.17,0.05,-0.17,0.05,-0.06,-0.12,0.09,-0.23,-0.23,-0.22
468.71,-0.20,0.01,-0.20,0.01,-0.02,-0.10,0.11,-0.22,-0.22,-0.21
473.40,-0.23,-0.02,-0.23,-0.03,0.03,-0.08,0.13,-0.21,-0.21,-0.21
478.13,-0.26,-0.06,-0.26,-0.06,0.07,-0.06,0.14,-0.20,-0.20,-0.20
482.91,-0.29,-0.10,-0.29,-0.10,0.11,-0.04,0.16,-0.19,-0.19,-0.19
487.74,-0.32,-0.14,-0.32,-0.14,0.14,-0.01,0.18,-0.18,-0.18,-0.18
492.62,-0.34,-0.17,-0.35,-0.18,0.18,0.01,0.19,-0.17,-0.17,-0.17
497.55,-0.37,-0.21,-0.37,-0.21,0.21,0.04,0.21,-0.17,-0.16,-0.16
502.52,-0.38,-0.23,-0.38,-0.24,0.24,0.06,0.22,-0.15,-0.15,-0.15
507.55,-0.39,-0.26,-0.40,-0.26,0.26,0.09,0.24,-0.14,-0.14,-0.13
512.62,-0.40,-0.28,-0.40,-0.28,0.28,0.12,0.25,-0.13,-0.12,-0.12
517.75,-0.40,-0.30,-0.40,-0.30,0.29,0.14,0.26,-0.11,-0.11,-0.10
