frequency,raw,error,smoothed,error_smoothed,equalization,parametric_eq,fixed_band_eq,equalized_raw,equalized_smoothed,target
20.00,-15.68,-12.21,-15.68,-12.24,12.24,11.26,3.65,-3.44,-3.44,-3.47
20.20,-15.51,-12.13,-15.51,-12.14,12.14,11.34,3.75,-3.37,-3.37,-3.38
20.40,-15.34,-12.04,-15.34,-12.05,12.05,11.41,3.85,-3.29,-3.29,-3.30
20.61,-15.17,-11.94,-15.17,-11.95,11.95,11.46,3.96,-3.23,-3.22,-3.23
20.81,-14.99,-11.85,-14.99,-11.84,11.84,11.49,4.06,-3.15,-3.15,-3.14
21.02,-14.82,-11.76,-14.82,-11.74,11.74,11.52,4.17,-3.08,-3.08,-3.06
21.23,-14.65,-11.65,-14.65,-11.63,11.63,11.52,4.29,-3.02,-3.02,-3.00
21.44,-14.48,-11.54,-14.48,-11.52,11.52,11.51,4.40,-2.96,-2.96,-2.94
21.66,-14.30,-11.41,-14.30,-11.40,11.40,11.48,4.52,-2.90,-2.90,-2.89
21.87,-14.13,-11.29,-14.13,-11.29,11.29,11.44,4.64,-2.84,-2.84,-2.84
22.09,-13.96,-11.17,-13.96,-11.17,11.17,11.38,4.77,-2.79,-2.79,-2.79
22.31,-13.79,-11.05,-13.79,-11.05,11.05,11.30,4.90,-2.74,-2.74,-2.74
22.54,-13.61,-10.91,-13.61,-10.92,10.92,11.21,5.03,-2.70,-2.70,-2.70
22.76,-13.44,-10.78,-13.44,-10.79,10.79,11.11,5.17,-2.65,-2.65,-2.66
22.99,-13.27,-10.64,-13.27,-10.65,10.65,11.00,5.31,-2.62,-2.61,-2.63
23.22,-13.09,-10.50,-13.09,-10.52,10.52,10.88,5.45,-2.57,-2.58,-2.59
23.45,-12.92,-10.37,-12.92,-10.38,10.38,10.74,5.59,-2.54,-2.54,-2.55
23.69,-12.75,-10.24,-12.75,-10.24,10.24,10.60,5.74,-2.51,-2.50,-2.51
23.92,-12.58,-10.11,-12.57,-10.11,10.11,10.45,5.90,-2.47,-2.47,-2.47
24.16,-12.40,-9.98,-12.40,-9.97,9.97,10.29,6.05,-2.43,-2.43,-2.42
24.40,-12.23,-9.84,-12.23,-9.83,9.83,10.13,6.21,-2.40,-2.40,-2.39
24.65,-12.06,-9.69,-12.05,-9.69,9.69,9.97,6.37,-2.37,-2.36,-2.37
24.89,-11.88,-9.54,-11.88,-9.55,9.55,9.80,6.53,-2.33,-2.33,-2.34
25.14,-11.71,-9.41,-11.71,-9.41,9.41,9.62,6.69,-2.29,-2.30,-2.30
25.39,-11.54,-9.27,-11.54,-9.27,9.27,9.45,6.86,-2.26,-2.26,-2.27
25.65,-11.37,-9.14,-11.37,-9.13,9.13,9.27,7.03,-2.24,-2.23,-2.23
25.91,-11.19,-8.99,-11.20,-8.99,8.99,9.10,7.19,-2.20,-2.20,-2.21
26.16,-11.02,-8.84,-11.03,-8.85,8.85,8.92,7.36,-2.16,-2.17,-2.18
26.43,-10.85,-8.71,-10.86,-8.71,8.71,8.74,7.53,-2.14,-2.14,-2.14
26.69,-10.69,-8.58,-10.69,-8.58,8.58,8.56,7.69,-2.11,-2.11,-2.11
26.96,-10.52,-8.44,-10.52,-8.44,8.44,8.39,7.86,-2.08,-2.08,-2.08
27.23,-10.35,-8.30,-10.35,-8.30,8.30,8.22,8.02,-2.05,-2.05,-2.05
27.50,-10.18,-8.16,-10.18,-8.16,8.16,8.04,8.17,-2.02,-2.02,-2.02
27.77,-10.02,-8.02,-10.01,-8.02,8.02,7.87,8.32,-1.99,-1.99,-2.00
28.05,-9.85,-7.89,-9.85,-7.89,7.89,7.71,8.47,-1.96,-1.96,-1.96
28.33,-9.69,-7.75,-9.68,-7.75,7.75,7.54,8.60,-1.94,-1.93,-1.94
28.62,-9.52,-7.61,-9.52,-7.62,7.62,7.38,8.73,-1.90,-1.90,-1.91
28.90,-9.36,-7.49,-9.36,-7.49,7.49,7.21,8.84,-1.87,-1.87,-1.87
29.19,-9.19,-7.34,-9.20,-7.35,7.35,7.06,8.95,-1.83,-1.84,-1.85
29.48,-9.03,-7.23,-9.04,-7.22,7.22,6.90,9.04,-1.81,-1.81,-1.80
29.78,-8.87,-7.08,-8.88,-7.09,7.09,6.75,9.11,-1.78,-1.79,-1.79
30.08,-8.71,-6.95,-8.72,-6.97,6.97,6.59,9.17,-1.75,-1.76,-1.76
30.38,-8.57,-6.84,-8.57,-6.84,6.84,6.45,9.21,-1.73,-1.73,-1.73
30.68,-8.42,-6.72,-8.42,-6.72,6.72,6.30,9.24,-1.70,-1.70,-1.70
30.99,-8.28,-6.60,-8.27,-6.60,6.60,6.16,9.24,-1.69,-1.68,-1.68
31.30,-8.13,-6.47,-8.13,-6.47,6.47,6.02,9.23,-1.66,-1.65,-1.66
31.61,-7.98,-6.35,-7.98,-6.36,6.36,5.88,9.20,-1.63,-1.63,-1.63
31.93,-7.83,-6.22,-7.84,-6.24,6.24,5.75,9.15,-1.60,-1.60,-1.61
32.24,-7.70,-6.11,-7.70,-6.12,6.12,5.62,9.08,-1.58,-1.58,-1.59
32.57,-7.56,-6.00,-7.56,-6.00,6.00,5.49,9.00,-1.56,-1.56,-1.56
32.89,-7.42,-5.88,-7.42,-5.88,5.88,5.36,8.90,-1.53,-1.54,-1.54
33.22,-7.29,-5.77,-7.29,-5.77,5.77,5.24,8.78,-1.52,-1.52,-1.52
33.55,-7.16,-5.66,-7.15,-5.65,5.65,5.11,8.65,-1.51,-1.50,-1.50
33.89,-7.02,-5.53,-7.02,-5.53,5.53,5.00,8.51,-1.49,-1.49,-1.49
34.23,-6.89,-5.42,-6.89,-5.41,5.41,4.88,8.36,-1.48,-1.47,-1.47
34.57,-6.76,-5.30,-6.75,-5.29,5.29,4.76,8.19,-1.47,-1.46,-1.46
34.92,-6.62,-5.17,-6.62,-5.18,5.18,4.65,8.02,-1.45,-1.45,-1.45
35.27,-6.49,-5.06,-6.49,-5.06,5.06,4.54,7.85,-1.44,-1.44,-1.43
35.62,-6.37,-4.93,-6.36,-4.94,4.94,4.44,7.66,-1.44,-1.43,-1.44
35.97,-6.24,-4.81,-6.24,-4.81,4.81,4.33,7.48,-1.42,-1.42,-1.43
36.33,-6.11,-4.70,-6.11,-4.69,4.69,4.23,7.28,-1.42,-1.42,-1.41
36.70,-5.98,-4.56,-5.99,-4.57,4.57,4.13,7.09,-1.41,-1.42,-1.42
37.06,-5.86,-4.44,-5.86,-4.45,4.45,4.03,6.89,-1.41,-1.42,-1.42
37.43,-5.74,-4.32,-5.74,-4.33,4.33,3.93,6.70,-1.41,-1.42,-1.42
37.81,-5.62,-4.20,-5.62,-4.20,4.20,3.84,6.50,-1.42,-1.42,-1.42
38.19,-5.50,-4.08,-5.50,-4.08,4.08,3.74,6.30,-1.42,-1.42,-1.42
38.57,-5.39,-3.97,-5.39,-3.97,3.97,3.65,6.10,-1.43,-1.42,-1.42
38.95,-5.27,-3.85,-5.27,-3.85,3.85,3.56,5.91,-1.42,-1.43,-1.42
39.34,-5.16,-3.72,-5.16,-3.73,3.73,3.48,5.71,-1.43,-1.43,-1.44
39.74,-5.05,-3.61,-5.05,-3.61,3.61,3.39,5.52,-1.44,-1.43,-1.44
40.14,-4.94,-3.49,-4.94,-3.50,3.50,3.31,5.33,-1.44,-1.44,-1.45
40.54,-4.83,-3.38,-4.83,-3.38,3.38,3.23,5.14,-1.45,-1.45,-1.45
40.94,-4.72,-3.26,-4.72,-3.27,3.27,3.14,4.95,-1.45,-1.45,-1.46
41.35,-4.62,-3.16,-4.62,-3.16,3.16,3.07,4.77,-1.46,-1.46,-1.46
41.76,-4.52,-3.05,-4.52,-3.05,3.05,2.99,4.59,-1.47,-1.47,-1.47
42.18,-4.42,-2.94,-4.42,-2.94,2.94,2.91,4.41,-1.48,-1.48,-1.48
42.60,-4.31,-2.82,-4.32,-2.83,2.83,2.84,4.23,-1.48,-1.49,-1.49
43.03,-4.21,-2.72,-4.22,-2.72,2.72,2.76,4.05,-1.49,-1.50,-1.49
43.46,-4.12,-2.62,-4.12,-2.61,2.61,2.69,3.88,-1.51,-1.51,-1.50
43.90,-4.03,-2.51,-4.03,-2.51,2.51,2.62,3.71,-1.52,-1.52,-1.52
44.33,-3.94,-2.40,-3.93,-2.41,2.41,2.55,3.54,-1.53,-1.53,-1.54
44.78,-3.85,-2.30,-3.84,-2.30,2.30,2.48,3.38,-1.55,-1.54,-1.55
45.23,-3.76,-2.20,-3.75,-2.20,2.20,2.42,3.22,-1.56,-1.55,-1.56
45.68,-3.67,-2.10,-3.66,-2.10,2.10,2.35,3.06,-1.57,-1.56,-1.57
46.13,-3.57,-1.99,-3.58,-2.00,2.00,2.29,2.90,-1.57,-1.57,-1.58
46.60,-3.49,-1.91,-3.49,-1.91,1.91,2.23,2.74,-1.58,-1.58,-1.58
47.06,-3.40,-1.81,-3.41,-1.81,1.81,2.16,2.59,-1.58,-1.59,-1.59
47.53,-3.32,-1.72,-3.32,-1.72,1.72,2.10,2.44,-1.60,-1.60,-1.60
48.01,-3.24,-1.64,-3.24,-1.63,1.63,2.04,2.29,-1.61,-1.61,-1.60
48.49,-3.16,-1.55,-3.16,-1.55,1.55,1.98,2.14,-1.61,-1.61,-1.61
48.97,-3.08,-1.46,-3.08,-1.47,1.47,1.92,2.00,-1.61,-1.62,-1.62
49.46,-3.01,-1.37,-3.01,-1.38,1.38,1.87,1.86,-1.62,-1.62,-1.64
49.96,-2.94,-1.29,-2.94,-1.31,1.31,1.81,1.72,-1.63,-1.63,-1.65
50.46,-2.87,-1.23,-2.86,-1.23,1.23,1.76,1.58,-1.64,-1.63,-1.64
50.96,-2.80,-1.16,-2.79,-1.16,1.16,1.70,1.44,-1.64,-1.64,-1.64
51.47,-2.73,-1.08,-2.73,-1.09,1.09,1.65,1.31,-1.64,-1.64,-1.65
51.99,-2.66,-1.01,-2.66,-1.02,1.02,1.59,1.18,-1.64,-1.65,-1.65
52.51,-2.60,-0.95,-2.60,-0.95,0.95,1.54,1.05,-1.65,-1.65,-1.65
53.03,-2.54,-0.89,-2.54,-0.89,0.89,1.49,0.93,-1.65,-1.65,-1.65
53.56,-2.48,-0.83,-2.48,-0.82,0.82,1.44,0.80,-1.66,-1.66,-1.65
54.10,-2.42,-0.76,-2.43,-0.76,0.76,1.39,0.69,-1.66,-1.67,-1.66
54.64,-2.37,-0.70,-2.38,-0.70,0.70,1.34,0.57,-1.67,-1.67,-1.67
55.18,-2.32,-0.64,-2.33,-0.65,0.65,1.29,0.46,-1.67,-1.68,-1.68
55.74,-2.27,-0.57,-2.28,-0.59,0.59,1.24,0.35,-1.68,-1.69,-1.70
56.29,-2.23,-0.53,-2.24,-0.53,0.53,1.19,0.24,-1.70,-1.70,-1.70
56.86,-2.20,-0.48,-2.19,-0.48,0.48,1.15,0.14,-1.72,-1.71,-1.72
57.42,-2.16,-0.42,-2.16,-0.43,0.43,1.10,0.04,-1.73,-1.73,-1.74
58.00,-2.12,-0.37,-2.12,-0.37,0.37,1.05,-0.05,-1.75,-1.75,-1.75
58.58,-2.09,-0.32,-2.08,-0.32,0.32,1.01,-0.14,-1.77,-1.77,-1.77
59.16,-2.05,-0.27,-2.05,-0.26,0.26,0.96,-0.23,-1.79,-1.79,-1.78
59.76,-2.02,-0.22,-2.02,-0.21,0.21,0.92,-0.31,-1.81,-1.81,-1.80
60.35,-1.99,-0.16,-1.99,-0.16,0.16,0.87,-0.39,-1.83,-1.84,-1.83
60.96,-1.96,-0.12,-1.96,-0.10,0.10,0.83,-0.46,-1.86,-1.86,-1.84
61.57,-1.94,-0.05,-1.93,-0.05,0.05,0.79,-0.53,-1.89,-1.88,-1.89
62.18,-1.91,0.01,-1.90,0.00,-0.00,0.74,-0.59,-1.91,-1.91,-1.92
62.80,-1.88,0.05,-1.88,0.05,-0.05,0.70,-0.65,-1.93,-1.93,-1.93
63.43,-1.85,0.12,-1.85,0.10,-0.10,0.66,-0.70,-1.95,-1.95,-1.97
64.07,-1.83,0.16,-1.83,0.15,-0.15,0.62,-0.75,-1.98,-1.97,-1.99
64.71,-1.80,0.20,-1.80,0.19,-0.19,0.57,-0.79,-1.99,-1.99,-2.00
65.35,-1.78,0.24,-1.78,0.23,-0.23,0.53,-0.83,-2.01,-2.01,-2.02
66.01,-1.75,0.28,-1.76,0.27,-0.27,0.49,-0.87,-2.02,-2.02,-2.03
66.67,-1.73,0.31,-1.74,0.30,-0.30,0.45,-0.90,-2.03,-2.04,-2.04
67.33,-1.71,0.34,-1.71,0.33,-0.33,0.41,-0.93,-2.04,-2.05,-2.05
68.01,-1.70,0.36,-1.69,0.36,-0.36,0.37,-0.95,-2.06,-2.06,-2.06
68.69,-1.69,0.38,-1.68,0.39,-0.39,0.33,-0.97,-2.08,-2.06,-2.07
69.37,-1.67,0.40,-1.66,0.41,-0.41,0.28,-0.99,-2.08,-2.07,-2.07
70.07,-1.65,0.43,-1.65,0.43,-0.43,0.24,-1.01,-2.08,-2.08,-2.08
70.77,-1.63,0.45,-1.64,0.45,-0.45,0.20,-1.02,-2.08,-2.09,-2.08
71.48,-1.62,0.47,-1.63,0.47,-0.47,0.16,-1.03,-2.09,-2.10,-2.09
72.19,-1.61,0.50,-1.62,0.49,-0.49,0.12,-1.04,-2.10,-2.11,-2.11
72.91,-1.60,0.51,-1.61,0.50,-0.50,0.08,-1.05,-2.10,-2.12,-2.11
73.64,-1.60,0.53,-1.61,0.52,-0.52,0.04,-1.05,-2.12,-2.13,-2.13
74.38,-1.60,0.54,-1.61,0.53,-0.53,0.00,-1.06,-2.13,-2.14,-2.14
75.12,-1.60,0.56,-1.61,0.55,-0.55,-0.04,-1.06,-2.15,-2.16,-2.16
75.87,-1.61,0.56,-1.61,0.56,-0.56,-0.08,-1.07,-2.17,-2.17,-2.17
76.63,-1.62,0.56,-1.61,0.57,-0.57,-0.12,-1.07,-2.19,-2.18,-2.18
77.40,-1.62,0.58,-1.61,0.58,-0.58,-0.16,-1.07,-2.20,-2.19,-2.20
78.17,-1.62,0.60,-1.61,0.59,-0.59,-0.20,-1.08,-2.21,-2.21,-2.22
78.95,-1.62,0.60,-1.62,0.60,-0.60,-0.24,-1.08,-2.22,-2.22,-2.22
79.74,-1.62,0.61,-1.62,0.61,-0.61,-0.28,-1.08,-2.23,-2.23,-2.23
80.54,-1.62,0.62,-1.62,0.61,-0.61,-0.32,-1.08,-2.23,-2.23,-2.24
81.35,-1.62,0.63,-1.62,0.62,-0.62,-0.36,-1.09,-2.24,-2.24,-2.25
82.16,-1.62,0.64,-1.62,0.62,-0.62,-0.40,-1.09,-2.24,-2.24,-2.26
82.98,-1.62,0.63,-1.62,0.63,-0.63,-0.44,-1.10,-2.25,-2.25,-2.25
83.81,-1.62,0.64,-1.62,0.63,-0.63,-0.48,-1.10,-2.25,-2.25,-2.26
84.65,-1.62,0.65,-1.62,0.63,-0.63,-0.52,-1.11,-2.25,-2.26,-2.27
85.50,-1.62,0.64,-1.62,0.64,-0.64,-0.56,-1.12,-2.26,-2.26,-2.26
86.35,-1.62,0.64,-1.62,0.65,-0.65,-0.60,-1.13,-2.27,-2.26,-2.26
87.22,-1.62,0.65,-1.61,0.65,-0.65,-0.65,-1.14,-2.27,-2.27,-2.27
88.09,-1.62,0.65,-1.61,0.66,-0.66,-0.69,-1.15,-2.28,-2.27,-2.27
88.97,-1.62,0.66,-1.61,0.68,-0.68,-0.73,-1.16,-2.30,-2.28,-2.28
89.86,-1.62,0.67,-1.60,0.69,-0.69,-0.77,-1.17,-2.31,-2.29,-2.29
90.76,-1.61,0.70,-1.60,0.71,-0.71,-0.81,-1.19,-2.32,-2.31,-2.31
91.66,-1.60,0.73,-1.61,0.72,-0.72,-0.85,-1.20,-2.32,-2.33,-2.33
92.58,-1.60,0.76,-1.61,0.74,-0.74,-0.89,-1.22,-2.34,-2.36,-2.36
93.51,-1.60,0.78,-1.62,0.76,-0.76,-0.93,-1.24,-2.36,-2.39,-2.38
94.44,-1.61,0.80,-1.63,0.79,-0.79,-0.98,-1.25,-2.40,-2.42,-2.41
95.39,-1.63,0.82,-1.65,0.81,-0.81,-1.02,-1.27,-2.44,-2.46,-2.45
96.34,-1.65,0.84,-1.66,0.84,-0.84,-1.06,-1.29,-2.49,-2.50,-2.49
97.30,-1.68,0.87,-1.68,0.86,-0.86,-1.10,-1.32,-2.54,-2.55,-2.55
98.28,-1.70,0.90,-1.71,0.89,-0.89,-1.14,-1.34,-2.59,-2.60,-2.60
99.26,-1.74,0.91,-1.74,0.91,-0.91,-1.18,-1.36,-2.65,-2.65,-2.65
100.25,-1.77,0.94,-1.77,0.94,-0.94,-1.23,-1.38,-2.71,-2.71,-2.71
101.25,-1.81,0.96,-1.80,0.97,-0.97,-1.27,-1.41,-2.78,-2.76,-2.77
102.27,-1.83,1.00,-1.82,1.00,-1.00,-1.31,-1.43,-2.83,-2.82,-2.83
103.29,-1.85,1.04,-1.85,1.03,-1.03,-1.35,-1.46,-2.88,-2.88,-2.89
104.32,-1.87,1.07,-1.88,1.07,-1.07,-1.39,-1.49,-2.94,-2.94,-2.94
105.37,-1.90,1.11,-1.90,1.10,-1.10,-1.43,-1.51,-3.00,-3.00,-3.01
106.42,-1.93,1.14,-1.92,1.14,-1.14,-1.47,-1.54,-3.07,-3.06,-3.07
107.48,-1.95,1.17,-1.93,1.19,-1.19,-1.51,-1.56,-3.14,-3.12,-3.12
108.56,-1.97,1.21,-1.94,1.23,-1.23,-1.55,-1.59,-3.20,-3.18,-3.18
109.64,-1.97,1.27,-1.95,1.28,-1.28,-1.59,-1.61,-3.25,-3.23,-3.24
110.74,-1.96,1.33,-1.96,1.33,-1.33,-1.63,-1.64,-3.29,-3.29,-3.29
111.85,-1.95,1.38,-1.96,1.38,-1.38,-1.66,-1.66,-3.33,-3.34,-3.33
112.97,-1.95,1.45,-1.96,1.43,-1.43,-1.70,-1.69,-3.38,-3.39,-3.40
114.10,-1.95,1.49,-1.96,1.48,-1.48,-1.74,-1.71,-3.43,-3.44,-3.44
115.24,-1.95,1.54,-1.96,1.52,-1.52,-1.77,-1.73,-3.47,-3.48,-3.49
116.39,-1.95,1.59,-1.96,1.57,-1.57,-1.81,-1.75,-3.52,-3.53,-3.54
117.55,-1.95,1.63,-1.95,1.62,-1.62,-1.84,-1.77,-3.57,-3.57,-3.58
118.73,-1.95,1.67,-1.94,1.66,-1.66,-1.87,-1.79,-3.61,-3.61,-3.62
119.92,-1.95,1.70,-1.94,1.70,-1.70,-1.91,-1.80,-3.65,-3.64,-3.65
121.12,-1.95,1.73,-1.93,1.74,-1.74,-1.94,-1.81,-3.69,-3.68,-3.68
122.33,-1.95,1.76,-1.93,1.78,-1.78,-1.97,-1.83,-3.73,-3.71,-3.71
123.55,-1.94,1.80,-1.93,1.81,-1.81,-1.99,-1.84,-3.75,-3.74,-3.74
124.79,-1.93,1.84,-1.93,1.83,-1.83,-2.02,-1.84,-3.76,-3.77,-3.77
126.03,-1.92,1.87,-1.94,1.86,-1.86,-2.05,-1.85,-3.78,-3.80,-3.79
127.29,-1.93,1.89,-1.94,1.88,-1.88,-2.07,-1.85,-3.81,-3.83,-3.82
128.57,-1.94,1.92,-1.96,1.90,-1.90,-2.10,-1.86,-3.84,-3.85,-3.86
129.85,-1.95,1.93,-1.97,1.91,-1.91,-2.12,-1.86,-3.86,-3.88,-3.88
131.15,-1.97,1.94,-1.99,1.92,-1.92,-2.14,-1.86,-3.89,-3.91,-3.91
132.46,-1.99,1.96,-2.01,1.93,-1.93,-2.16,-1.85,-3.92,-3.94,-3.95
133.79,-2.02,1.95,-2.04,1.93,-1.93,-2.17,-1.85,-3.95,-3.97,-3.97
135.12,-2.07,1.93,-2.06,1.94,-1.94,-2.19,-1.84,-4.01,-4.00,-4.00
136.48,-2.09,1.94,-2.09,1.94,-1.94,-2.20,-1.83,-4.03,-4.03,-4.03
137.84,-2.13,1.93,-2.12,1.94,-1.94,-2.22,-1.82,-4.07,-4.06,-4.06
139.22,-2.15,1.96,-2.15,1.95,-1.95,-2.23,-1.82,-4.10,-4.10,-4.11
140.61,-2.19,1.95,-2.18,1.95,-1.95,-2.23,-1.80,-4.15,-4.13,-4.14
142.02,-2.23,1.93,-2.20,1.97,-1.97,-2.24,-1.79,-4.20,-4.16,-4.16
143.44,-2.24,1.96,-2.22,1.98,-1.98,-2.25,-1.78,-4.22,-4.20,-4.20
144.87,-2.27,1.97,-2.23,2.00,-2.00,-2.25,-1.77,-4.27,-4.23,-4.24
146.32,-2.28,2.00,-2.25,2.02,-2.02,-2.25,-1.76,-4.30,-4.27,-4.28
147.78,-2.28,2.03,-2.26,2.05,-2.05,-2.25,-1.75,-4.33,-4.31,-4.31
149.26,-2.27,2.07,-2.27,2.08,-2.08,-2.25,-1.73,-4.35,-4.35,-4.34
150.75,-2.26,2.13,-2.28,2.11,-2.11,-2.25,-1.72,-4.37,-4.39,-4.39
152.26,-2.26,2.17,-2.29,2.13,-2.13,-2.24,-1.71,-4.39,-4.43,-4.43
153.78,-2.27,2.19,-2.31,2.16,-2.16,-2.24,-1.70,-4.43,-4.47,-4.46
155.32,-2.28,2.23,-2.32,2.19,-2.19,-2.23,-1.69,-4.47,-4.51,-4.51
156.88,-2.32,2.22,-2.34,2.21,-2.21,-2.22,-1.68,-4.53,-4.55,-4.54
158.44,-2.34,2.26,-2.36,2.23,-2.23,-2.21,-1.67,-4.57,-4.59,-4.60
160.03,-2.38,2.26,-2.38,2.25,-2.25,-2.20,-1.66,-4.63,-4.64,-4.64
161.63,-2.41,2.28,-2.41,2.27,-2.27,-2.19,-1.66,-4.68,-4.68,-4.69
163.24,-2.44,2.29,-2.43,2.29,-2.29,-2.17,-1.65,-4.73,-4.72,-4.73
164.88,-2.49,2.28,-2.46,2.30,-2.30,-2.16,-1.65,-4.79,-4.77,-4.77
166.53,-2.51,2.30,-2.49,2.32,-2.32,-2.14,-1.64,-4.83,-4.81,-4.81
168.19,-2.54,2.31,-2.51,2.33,-2.33,-2.12,-1.64,-4.87,-4.85,-4.85
169.87,-2.56,2.33,-2.54,2.35,-2.35,-2.10,-1.64,-4.91,-4.89,-4.89
171.57,-2.57,2.35,-2.56,2.37,-2.37,-2.08,-1.64,-4.94,-4.92,-4.92
173.29,-2.58,2.38,-2.58,2.38,-2.38,-2.06,-1.64,-4.96,-4.96,-4.96
175.02,-2.60,2.40,-2.60,2.40,-2.40,-2.04,-1.64,-5.00,-4.99,-5.00
176.77,-2.61,2.42,-2.62,2.41,-2.41,-2.02,-1.65,-5.02,-5.02,-5.03
178.54,-2.62,2.44,-2.64,2.41,-2.41,-2.00,-1.65,-5.03,-5.05,-5.06
180.32,-2.63,2.46,-2.66,2.42,-2.42,-1.98,-1.66,-5.05,-5.08,-5.09
182.13,-2.65,2.46,-2.68,2.42,-2.42,-1.95,-1.67,-5.07,-5.10,-5.11
183.95,-2.69,2.44,-2.70,2.42,-2.42,-1.93,-1.68,-5.11,-5.13,-5.13
185.79,-2.72,2.43,-2.73,2.42,-2.42,-1.90,-1.69,-5.14,-5.15,-5.15
187.65,-2.75,2.42,-2.75,2.41,-2.41,-1.88,-1.70,-5.16,-5.17,-5.17
189.52,-2.78,2.40,-2.78,2.40,-2.40,-1.86,-1.71,-5.18,-5.18,-5.18
191.42,-2.82,2.38,-2.80,2.40,-2.40,-1.83,-1.73,-5.22,-5.20,-5.20
193.33,-2.85,2.36,-2.82,2.39,-2.39,-1.81,-1.74,-5.24,-5.21,-5.21
195.27,-2.87,2.35,-2.85,2.38,-2.38,-1.78,-1.76,-5.25,-5.23,-5.22
197.22,-2.89,2.35,-2.87,2.37,-2.37,-1.75,-1.78,-5.26,-5.24,-5.24
199.19,-2.90,2.36,-2.89,2.36,-2.36,-1.73,-1.79,-5.26,-5.25,-5.26
201.18,-2.91,2.36,-2.91,2.35,-2.35,-1.70,-1.81,-5.26,-5.26,-5.27
203.19,-2.93,2.34,-2.93,2.34,-2.34,-1.68,-1.83,-5.27,-5.27,-5.27
205.23,-2.94,2.35,-2.95,2.34,-2.34,-1.65,-1.85,-5.28,-5.29,-5.29
207.28,-2.95,2.34,-2.97,2.33,-2.33,-1.63,-1.87,-5.28,-5.30,-5.29
209.35,-2.96,2.35,-2.99,2.32,-2.32,-1.60,-1.89,-5.28,-5.31,-5.31
211.44,-2.99,2.34,-3.02,2.31,-2.31,-1.58,-1.91,-5.30,-5.32,-5.33
213.56,-3.02,2.32,-3.04,2.29,-2.29,-1.55,-1.93,-5.31,-5.33,-5.34
215.69,-3.06,2.28,-3.06,2.28,-2.28,-1.53,-1.95,-5.34,-5.34,-5.34
217.85,-3.10,2.26,-3.09,2.27,-2.27,-1.51,-1.97,-5.37,-5.36,-5.36
220.03,-3.12,2.25,-3.11,2.26,-2.26,-1.48,-1.98,-5.38,-5.37,-5.37
222.23,-3.15,2.24,-3.14,2.24,-2.24,-1.46,-2.00,-5.39,-5.38,-5.39
224.45,-3.18,2.21,-3.16,2.23,-2.23,-1.43,-2.02,-5.41,-5.39,-5.39
226.70,-3.21,2.20,-3.18,2.23,-2.23,-1.41,-2.03,-5.44,-5.41,-5.41
228.96,-3.22,2.20,-3.20,2.22,-2.22,-1.39,-2.04,-5.44,-5.42,-5.42
231.25,-3.23,2.20,-3.22,2.21,-2.21,-1.37,-2.05,-5.44,-5.44,-5.43
233.57,-3.25,2.20,-3.24,2.21,-2.21,-1.34,-2.06,-5.46,-5.45,-5.45
235.90,-3.26,2.20,-3.26,2.21,-2.21,-1.32,-2.07,-5.47,-5.47,-5.46
238.26,-3.27,2.21,-3.28,2.20,-2.20,-1.30,-2.07,-5.47,-5.48,-5.48
240.64,-3.29,2.21,-3.30,2.20,-2.20,-1.28,-2.07,-5.49,-5.49,-5.50
243.05,-3.30,2.21,-3.32,2.19,-2.19,-1.26,-2.07,-5.49,-5.50,-5.51
245.48,-3.32,2.20,-3.34,2.17,-2.17,-1.24,-2.06,-5.49,-5.51,-5.52
247.93,-3.36,2.17,-3.36,2.15,-2.15,-1.22,-2.05,-5.52,-5.52,-5.53
250.41,-3.38,2.16,-3.39,2.13,-2.13,-1.20,-2.04,-5.51,-5.52,-5.54
252.92,-3.42,2.11,-3.42,2.10,-2.10,-1.18,-2.03,-5.52,-5.52,-5.53
255.45,-3.45,2.08,-3.46,2.06,-2.06,-1.16,-2.01,-5.51,-5.52,-5.53
258.00,-3.49,2.03,-3.49,2.02,-2.02,-1.14,-1.99,-5.51,-5.52,-5.52
260.58,-3.54,1.98,-3.53,1.98,-1.98,-1.12,-1.97,-5.52,-5.51,-5.52
263.19,-3.58,1.93,-3.57,1.93,-1.93,-1.10,-1.95,-5.51,-5.50,-5.51
265.82,-3.63,1.87,-3.62,1.88,-1.88,-1.08,-1.92,-5.51,-5.49,-5.50
268.48,-3.67,1.81,-3.66,1.82,-1.82,-1.06,-1.89,-5.49,-5.48,-5.48
271.16,-3.72,1.74,-3.71,1.75,-1.75,-1.04,-1.85,-5.47,-5.46,-5.46
273.87,-3.77,1.68,-3.76,1.69,-1.69,-1.02,-1.82,-5.46,-5.45,-5.45
276.61,-3.80,1.62,-3.81,1.62,-1.62,-1.00,-1.78,-5.42,-5.43,-5.42
279.38,-3.84,1.58,-3.86,1.56,-1.56,-0.99,-1.74,-5.40,-5.42,-5.42
282.17,-3.89,1.51,-3.91,1.49,-1.49,-0.97,-1.70,-5.38,-5.40,-5.40
284.99,-3.95,1.44,-3.97,1.42,-1.42,-0.95,-1.66,-5.37,-5.39,-5.39
287.84,-4.03,1.34,-4.02,1.35,-1.35,-0.93,-1.61,-5.38,-5.37,-5.37
290.72,-4.09,1.26,-4.08,1.27,-1.27,-0.91,-1.56,-5.36,-5.35,-5.35
293.63,-4.15,1.19,-4.14,1.19,-1.19,-0.89,-1.52,-5.34,-5.33,-5.34
296.57,-4.20,1.11,-4.19,1.12,-1.12,-0.87,-1.47,-5.32,-5.31,-5.31
299.53,-4.25,1.05,-4.25,1.04,-1.04,-0.85,-1.42,-5.29,-5.29,-5.30
302.53,-4.30,0.99,-4.31,0.96,-0.96,-0.83,-1.37,-5.26,-5.27,-5.29
305.55,-4.36,0.90,-4.37,0.88,-0.88,-0.81,-1.32,-5.24,-5.25,-5.26
308.61,-4.43,0.81,-4.43,0.80,-0.80,-0.79,-1.27,-5.23,-5.23,-5.24
311.69,-4.50,0.71,-4.48,0.73,-0.73,-0.77,-1.22,-5.23,-5.21,-5.21
314.81,-4.55,0.62,-4.54,0.65,-0.65,-0.75,-1.17,-5.20,-5.19,-5.17
317.96,-4.59,0.57,-4.59,0.58,-0.58,-0.73,-1.12,-5.17,-5.16,-5.16
321.14,-4.64,0.50,-4.64,0.50,-0.50,-0.70,-1.07,-5.14,-5.14,-5.14
324.35,-4.68,0.44,-4.69,0.43,-0.43,-0.68,-1.02,-5.11,-5.12,-5.12
327.59,-4.73,0.37,-4.73,0.36,-0.36,-0.65,-0.97,-5.09,-5.10,-5.10
330.87,-4.78,0.30,-4.78,0.29,-0.29,-0.62,-0.92,-5.07,-5.07,-5.08
334.18,-4.82,0.23,-4.82,0.23,-0.23,-0.59,-0.87,-5.05,-5.05,-5.05
337.52,-4.86,0.17,-4.86,0.17,-0.17,-0.56,-0.82,-5.03,-5.02,-5.03
340.90,-4.90,0.11,-4.89,0.11,-0.11,-0.53,-0.77,-5.01,-5.00,-5.01
344.30,-4.95,0.03,-4.93,0.05,-0.05,-0.49,-0.72,-5.00,-4.98,-4.98
347.75,-4.98,-0.02,-4.97,-0.01,0.01,-0.45,-0.67,-4.97,-4.95,-4.96
351.23,-5.01,-0.08,-5.01,-0.08,0.08,-0.41,-0.62,-4.93,-4.93,-4.93
354.74,-5.03,-0.13,-5.05,-0.14,0.14,-0.37,-0.58,-4.89,-4.91,-4.90
358.28,-5.06,-0.17,-5.09,-0.20,0.20,-0.32,-0.53,-4.86,-4.88,-4.89
361.87,-5.10,-0.24,-5.12,-0.27,0.27,-0.27,-0.48,-4.83,-4.86,-4.86
365.49,-5.14,-0.31,-5.16,-0.33,0.33,-0.22,-0.43,-4.81,-4.83,-4.83
369.14,-5.19,-0.37,-5.20,-0.39,0.39,-0.16,-0.39,-4.80,-4.81,-4.82
372.83,-5.24,-0.45,-5.24,-0.45,0.45,-0.09,-0.34,-4.79,-4.79,-4.79
376.56,-5.29,-0.52,-5.28,-0.51,0.51,-0.02,-0.29,-4.78,-4.76,-4.77
380.33,-5.33,-0.59,-5.31,-0.57,0.57,0.06,-0.25,-4.76,-4.74,-4.74
384.13,-5.36,-0.63,-5.35,-0.62,0.62,0.14,-0.20,-4.74,-4.72,-4.73
387.97,-5.39,-0.68,-5.38,-0.68,0.68,0.22,-0.16,-4.71,-4.71,-4.71
391.85,-5.41,-0.71,-5.42,-0.72,0.72,0.32,-0.12,-4.69,-4.69,-4.70
395.77,-5.44,-0.77,-5.44,-0.76,0.76,0.42,-0.07,-4.68,-4.68,-4.67
399.73,-5.47,-0.81,-5.47,-0.80,0.80,0.52,-0.03,-4.67,-4.67,-4.66
403.72,-5.49,-0.83,-5.48,-0.82,0.82,0.63,0.01,-4.67,-4.66,-4.66
407.76,-5.51,-0.86,-5.50,-0.84,0.84,0.74,0.05,-4.67,-4.65,-4.65
411.84,-5.53,-0.89,-5.51,-0.86,0.86,0.85,0.09,-4.67,-4.65,-4.64
415.96,-5.54,-0.89,-5.52,-0.87,0.87,0.95,0.12,-4.67,-4.65,-4.65
420.12,-5.53,-0.88,-5.52,-0.88,0.88,1.05,0.16,-4.65,-4.65,-4.65
