frequency,raw,error,smoothed,error_smoothed,equalization,parametric_eq,fixed_band_eq,equalized_raw,equalized_smoothed,target
20.00,-15.68,-13.35,-15.68,-13.38,13.38,12.51,4.14,-2.30,-2.30,-2.33
20.20,-15.51,-13.27,-15.51,-13.28,13.28,12.61,4.25,-2.23,-2.23,-2.24
20.40,-15.34,-13.18,-15.34,-13.18,13.18,12.69,4.36,-2.16,-2.16,-2.16
20.61,-15.17,-13.08,-15.17,-13.08,13.08,12.75,4.48,-2.09,-2.08,-2.09
20.81,-14.99,-12.99,-14.99,-12.98,12.98,12.81,4.60,-2.01,-2.02,-2.00
21.02,-14.82,-12.90,-14.82,-12.87,12.87,12.84,4.72,-1.95,-1.95,-1.92
21.23,-14.65,-12.79,-14.65,-12.76,12.76,12.87,4.85,-1.89,-1.89,-1.86
21.44,-14.48,-12.67,-14.48,-12.65,12.65,12.87,4.98,-1.83,-1.83,-1.80
21.66,-14.30,-12.55,-14.30,-12.53,12.53,12.86,5.11,-1.77,-1.77,-1.76
21.87,-14.13,-12.42,-14.13,-12.42,12.42,12.83,5.25,-1.71,-1.71,-1.70
22.09,-13.96,-12.30,-13.96,-12.30,12.30,12.79,5.39,-1.66,-1.66,-1.66
22.31,-13.79,-12.18,-13.79,-12.18,12.18,12.74,5.53,-1.61,-1.61,-1.61
22.54,-13.61,-12.05,-13.61,-12.05,12.05,12.66,5.68,-1.57,-1.57,-1.57
22.76,-13.44,-11.91,-13.44,-11.91,11.91,12.58,5.83,-1.52,-1.52,-1.53
22.99,-13.27,-11.77,-13.27,-11.78,11.78,12.48,5.99,-1.49,-1.49,-1.50
23.22,-13.09,-11.63,-13.09,-11.65,11.65,12.37,6.15,-1.44,-1.45,-1.46
23.45,-12.92,-11.50,-12.92,-11.51,11.51,12.25,6.31,-1.41,-1.41,-1.42
23.69,-12.75,-11.37,-12.75,-11.37,11.37,12.12,6.48,-1.38,-1.37,-1.38
23.92,-12.58,-11.24,-12.57,-11.24,11.24,11.98,6.65,-1.34,-1.34,-1.34
24.16,-12.40,-11.11,-12.40,-11.10,11.10,11.83,6.82,-1.30,-1.30,-1.29
24.40,-12.23,-10.96,-12.23,-10.96,10.96,11.68,7.00,-1.27,-1.27,-1.26
24.65,-12.06,-10.83,-12.05,-10.82,10.82,11.52,7.18,-1.24,-1.24,-1.23
24.89,-11.88,-10.67,-11.88,-10.68,10.68,11.35,7.37,-1.20,-1.20,-1.20
25.14,-11.71,-10.54,-11.71,-10.54,10.54,11.19,7.56,-1.17,-1.17,-1.17
25.39,-11.54,-10.40,-11.54,-10.40,10.40,11.02,7.74,-1.13,-1.14,-1.14
25.65,-11.37,-10.27,-11.37,-10.26,10.26,10.84,7.94,-1.11,-1.10,-1.10
25.91,-11.19,-10.11,-11.20,-10.12,10.12,10.67,8.13,-1.07,-1.07,-1.08
26.16,-11.02,-9.97,-11.03,-9.98,9.98,10.49,8.32,-1.03,-1.04,-1.05
26.43,-10.85,-9.84,-10.86,-9.84,9.84,10.31,8.52,-1.01,-1.01,-1.01
26.69,-10.69,-9.71,-10.69,-9.70,9.70,10.13,8.71,-0.99,-0.98,-0.98
26.96,-10.52,-9.57,-10.52,-9.56,9.56,9.96,8.91,-0.96,-0.95,-0.95
27.23,-10.35,-9.44,-10.35,-9.43,9.43,9.78,9.10,-0.93,-0.92,-0.92
27.50,-10.18,-9.29,-10.18,-9.29,9.29,9.60,9.28,-0.89,-0.89,-0.89
27.77,-10.02,-9.15,-10.01,-9.15,9.15,9.43,9.46,-0.87,-0.86,-0.87
28.05,-9.85,-9.02,-9.85,-9.01,9.01,9.25,9.64,-0.84,-0.83,-0.83
28.33,-9.69,-8.88,-9.68,-8.88,8.88,9.08,9.81,-0.81,-0.80,-0.81
28.62,-9.52,-8.74,-9.52,-8.74,8.74,8.91,9.96,-0.78,-0.78,-0.78
28.90,-9.36,-8.61,-9.36,-8.61,8.61,8.74,10.11,-0.75,-0.75,-0.75
29.19,-9.19,-8.46,-9.20,-8.48,8.48,8.58,10.24,-0.71,-0.72,-0.73
29.48,-9.03,-8.35,-9.04,-8.35,8.35,8.41,10.36,-0.68,-0.69,-0.68
29.78,-8.87,-8.21,-8.88,-8.22,8.22,8.25,10.46,-0.65,-0.66,-0.66
30.08,-8.71,-8.08,-8.72,-8.09,8.09,8.09,10.55,-0.62,-0.64,-0.63
30.38,-8.57,-7.97,-8.57,-7.96,7.96,7.94,10.61,-0.61,-0.61,-0.61
30.68,-8.42,-7.84,-8.42,-7.84,7.84,7.78,10.65,-0.58,-0.58,-0.58
30.99,-8.28,-7.72,-8.27,-7.72,7.72,7.63,10.67,-0.57,-0.56,-0.56
31.30,-8.13,-7.60,-8.13,-7.60,7.60,7.48,10.67,-0.54,-0.53,-0.53
31.61,-7.98,-7.48,-7.98,-7.48,7.48,7.33,10.65,-0.50,-0.51,-0.50
31.93,-7.83,-7.34,-7.84,-7.36,7.36,7.19,10.60,-0.48,-0.48,-0.49
32.24,-7.70,-7.23,-7.70,-7.24,7.24,7.05,10.53,-0.46,-0.46,-0.47
32.57,-7.56,-7.12,-7.56,-7.12,7.12,6.91,10.45,-0.44,-0.44,-0.44
32.89,-7.42,-7.00,-7.42,-7.00,7.00,6.77,10.34,-0.42,-0.42,-0.42
33.22,-7.29,-6.89,-7.29,-6.89,6.89,6.64,10.22,-0.40,-0.40,-0.40
33.55,-7.16,-6.78,-7.15,-6.77,6.77,6.51,10.07,-0.39,-0.39,-0.38
33.89,-7.02,-6.65,-7.02,-6.65,6.65,6.38,9.92,-0.37,-0.37,-0.37
34.23,-6.89,-6.54,-6.89,-6.53,6.53,6.25,9.75,-0.36,-0.36,-0.35
34.57,-6.76,-6.42,-6.75,-6.41,6.41,6.12,9.57,-0.35,-0.34,-0.34
34.92,-6.62,-6.29,-6.62,-6.29,6.29,6.00,9.38,-0.33,-0.33,-0.34
35.27,-6.49,-6.17,-6.49,-6.17,6.17,5.88,9.19,-0.32,-0.32,-0.32
35.62,-6.37,-6.05,-6.36,-6.05,6.05,5.76,8.99,-0.32,-0.32,-0.32
35.97,-6.24,-5.92,-6.24,-5.92,5.92,5.65,8.78,-0.31,-0.31,-0.32
36.33,-6.11,-5.81,-6.11,-5.80,5.80,5.53,8.57,-0.31,-0.31,-0.30
36.70,-5.98,-5.68,-5.99,-5.68,5.68,5.42,8.36,-0.30,-0.31,-0.31
37.06,-5.86,-5.55,-5.86,-5.56,5.56,5.31,8.14,-0.30,-0.31,-0.31
37.43,-5.74,-5.43,-5.74,-5.43,5.43,5.20,7.93,-0.31,-0.31,-0.31
37.81,-5.62,-5.31,-5.62,-5.31,5.31,5.10,7.72,-0.31,-0.31,-0.31
38.19,-5.50,-5.19,-5.50,-5.19,5.19,5.00,7.50,-0.31,-0.31,-0.32
38.57,-5.39,-5.08,-5.39,-5.07,5.07,4.89,7.29,-0.32,-0.32,-0.31
38.95,-5.27,-4.95,-5.27,-4.95,4.95,4.79,7.08,-0.32,-0.32,-0.32
39.34,-5.16,-4.83,-5.16,-4.83,4.83,4.70,6.88,-0.33,-0.33,-0.33
39.74,-5.05,-4.71,-5.05,-4.71,4.71,4.60,6.67,-0.34,-0.33,-0.34
40.14,-4.94,-4.60,-4.94,-4.60,4.60,4.51,6.47,-0.34,-0.34,-0.34
40.54,-4.83,-4.48,-4.83,-4.48,4.48,4.41,6.27,-0.35,-0.35,-0.35
40.94,-4.72,-4.36,-4.72,-4.37,4.37,4.32,6.07,-0.35,-0.35,-0.36
41.35,-4.62,-4.26,-4.62,-4.26,4.26,4.23,5.88,-0.36,-0.36,-0.36
41.76,-4.52,-4.15,-4.52,-4.14,4.14,4.15,5.69,-0.38,-0.37,-0.37
42.18,-4.42,-4.04,-4.42,-4.03,4.03,4.06,5.50,-0.39,-0.39,-0.38
42.60,-4.31,-3.91,-4.32,-3.92,3.92,3.98,5.32,-0.39,-0.40,-0.40
43.03,-4.21,-3.81,-4.22,-3.81,3.81,3.89,5.14,-0.40,-0.41,-0.40
43.46,-4.12,-3.71,-4.12,-3.70,3.70,3.81,4.96,-0.42,-0.42,-0.41
43.90,-4.03,-3.60,-4.03,-3.60,3.60,3.73,4.79,-0.44,-0.43,-0.43
44.33,-3.94,-3.49,-3.93,-3.49,3.49,3.65,4.62,-0.45,-0.44,-0.45
44.78,-3.85,-3.39,-3.84,-3.39,3.39,3.58,4.45,-0.46,-0.46,-0.46
45.23,-3.76,-3.28,-3.75,-3.28,3.28,3.50,4.29,-0.48,-0.47,-0.48
45.68,-3.67,-3.18,-3.66,-3.18,3.18,3.43,4.13,-0.49,-0.48,-0.49
46.13,-3.57,-3.07,-3.58,-3.08,3.08,3.35,3.97,-0.49,-0.49,-0.50
46.60,-3.49,-2.99,-3.49,-2.98,2.98,3.28,3.82,-0.51,-0.51,-0.50
47.06,-3.40,-2.89,-3.41,-2.89,2.89,3.21,3.66,-0.51,-0.52,-0.51
47.53,-3.32,-2.80,-3.32,-2.79,2.79,3.14,3.51,-0.52,-0.53,-0.52
48.01,-3.24,-2.71,-3.24,-2.70,2.70,3.08,3.37,-0.54,-0.54,-0.53
48.49,-3.16,-2.62,-3.16,-2.62,2.62,3.01,3.22,-0.54,-0.55,-0.54
48.97,-3.08,-2.53,-3.08,-2.53,2.53,2.94,3.08,-0.55,-0.55,-0.55
49.46,-3.01,-2.43,-3.01,-2.45,2.45,2.88,2.94,-0.56,-0.56,-0.58
49.96,-2.94,-2.35,-2.94,-2.37,2.37,2.82,2.81,-0.57,-0.57,-0.59
50.46,-2.87,-2.29,-2.86,-2.29,2.29,2.75,2.67,-0.58,-0.57,-0.58
50.96,-2.80,-2.22,-2.79,-2.21,2.21,2.69,2.54,-0.59,-0.58,-0.58
51.47,-2.73,-2.14,-2.73,-2.14,2.14,2.63,2.42,-0.59,-0.59,-0.59
51.99,-2.66,-2.06,-2.66,-2.07,2.07,2.57,2.29,-0.59,-0.60,-0.60
52.51,-2.60,-2.00,-2.60,-2.00,2.00,2.52,2.17,-0.60,-0.60,-0.60
53.03,-2.54,-1.94,-2.54,-1.93,1.93,2.46,2.05,-0.61,-0.61,-0.60
53.56,-2.48,-1.87,-2.48,-1.86,1.86,2.40,1.93,-0.62,-0.62,-0.61
54.10,-2.42,-1.80,-2.43,-1.80,1.80,2.35,1.82,-0.62,-0.63,-0.62
54.64,-2.37,-1.73,-2.38,-1.74,1.74,2.29,1.71,-0.63,-0.64,-0.64
55.18,-2.32,-1.67,-2.33,-1.68,1.68,2.24,1.60,-0.64,-0.65,-0.65
55.74,-2.27,-1.60,-2.28,-1.62,1.62,2.18,1.49,-0.65,-0.66,-0.67
56.29,-2.23,-1.55,-2.24,-1.56,1.56,2.13,1.39,-0.67,-0.68,-0.68
56.86,-2.20,-1.50,-2.19,-1.50,1.50,2.08,1.29,-0.70,-0.70,-0.70
57.42,-2.16,-1.44,-2.16,-1.44,1.44,2.03,1.20,-0.72,-0.72,-0.72
58.00,-2.12,-1.38,-2.12,-1.38,1.38,1.98,1.11,-0.74,-0.74,-0.74
58.58,-2.09,-1.33,-2.08,-1.32,1.32,1.93,1.02,-0.77,-0.76,-0.76
59.16,-2.05,-1.28,-2.05,-1.26,1.26,1.88,0.93,-0.78,-0.79,-0.77
59.76,-2.02,-1.22,-2.02,-1.21,1.21,1.84,0.85,-0.81,-0.81,-0.80
60.35,-1.99,-1.16,-1.99,-1.15,1.15,1.79,0.77,-0.84,-0.84,-0.83
60.96,-1.96,-1.11,-1.96,-1.09,1.09,1.74,0.70,-0.87,-0.87,-0.85
61.57,-1.94,-1.04,-1.93,-1.03,1.03,1.70,0.63,-0.91,-0.90,-0.90
62.18,-1.91,-0.97,-1.90,-0.98,0.98,1.65,0.56,-0.93,-0.93,-0.94
62.80,-1.88,-0.92,-1.88,-0.92,0.92,1.61,0.50,-0.96,-0.95,-0.96
63.43,-1.85,-0.85,-1.85,-0.87,0.87,1.56,0.44,-0.98,-0.98,-1.00
64.07,-1.83,-0.81,-1.83,-0.82,0.82,1.52,0.38,-1.01,-1.01,-1.02
64.71,-1.80,-0.76,-1.80,-0.77,0.77,1.48,0.33,-1.03,-1.03,-1.04
65.35,-1.78,-0.72,-1.78,-0.73,0.73,1.43,0.28,-1.05,-1.05,-1.06
66.01,-1.75,-0.67,-1.76,-0.68,0.68,1.39,0.23,-1.07,-1.07,-1.08
66.67,-1.73,-0.64,-1.74,-0.64,0.64,1.35,0.19,-1.09,-1.09,-1.09
67.33,-1.71,-0.60,-1.71,-0.61,0.61,1.31,0.15,-1.10,-1.11,-1.11
68.01,-1.70,-0.58,-1.69,-0.57,0.57,1.27,0.11,-1.13,-1.12,-1.12
68.69,-1.69,-0.55,-1.68,-0.54,0.54,1.23,0.08,-1.15,-1.14,-1.14
69.37,-1.67,-0.52,-1.66,-0.51,0.51,1.19,0.04,-1.16,-1.15,-1.15
70.07,-1.65,-0.48,-1.65,-0.48,0.48,1.15,0.01,-1.17,-1.16,-1.17
70.77,-1.63,-0.46,-1.64,-0.46,0.46,1.11,-0.02,-1.17,-1.18,-1.17
71.48,-1.62,-0.43,-1.63,-0.43,0.43,1.07,-0.04,-1.19,-1.20,-1.19
72.19,-1.61,-0.40,-1.62,-0.41,0.41,1.03,-0.07,-1.20,-1.21,-1.21
72.91,-1.60,-0.38,-1.61,-0.38,0.38,0.99,-0.09,-1.22,-1.23,-1.22
73.64,-1.60,-0.35,-1.61,-0.36,0.36,0.96,-0.12,-1.24,-1.25,-1.25
74.38,-1.60,-0.34,-1.61,-0.34,0.34,0.92,-0.14,-1.26,-1.27,-1.26
75.12,-1.60,-0.31,-1.61,-0.32,0.32,0.88,-0.16,-1.28,-1.29,-1.29
75.87,-1.61,-0.30,-1.61,-0.30,0.30,0.84,-0.18,-1.31,-1.31,-1.31
76.63,-1.62,-0.30,-1.61,-0.28,0.28,0.81,-0.20,-1.34,-1.33,-1.32
77.40,-1.62,-0.27,-1.61,-0.26,0.26,0.77,-0.22,-1.36,-1.35,-1.35
78.17,-1.62,-0.24,-1.61,-0.24,0.24,0.73,-0.24,-1.38,-1.37,-1.38
78.95,-1.62,-0.24,-1.62,-0.23,0.23,0.70,-0.26,-1.39,-1.39,-1.38
79.74,-1.62,-0.21,-1.62,-0.21,0.21,0.66,-0.28,-1.41,-1.41,-1.41
80.54,-1.62,-0.19,-1.62,-0.20,0.20,0.62,-0.30,-1.42,-1.42,-1.43
81.35,-1.62,-0.18,-1.62,-0.19,0.19,0.59,-0.32,-1.43,-1.44,-1.44
82.16,-1.62,-0.16,-1.62,-0.17,0.17,0.55,-0.34,-1.45,-1.45,-1.46
82.98,-1.62,-0.16,-1.62,-0.16,0.16,0.51,-0.36,-1.46,-1.46,-1.46
83.81,-1.62,-0.14,-1.62,-0.15,0.15,0.48,-0.38,-1.47,-1.47,-1.48
84.65,-1.62,-0.12,-1.62,-0.14,0.14,0.44,-0.40,-1.48,-1.48,-1.50
85.50,-1.62,-0.12,-1.62,-0.12,0.12,0.40,-0.42,-1.50,-1.50,-1.50
86.35,-1.62,-0.12,-1.62,-0.11,0.11,0.37,-0.44,-1.51,-1.51,-1.50
87.22,-1.62,-0.10,-1.61,-0.09,0.09,0.33,-0.47,-1.53,-1.52,-1.52
88.09,-1.62,-0.09,-1.61,-0.07,0.07,0.29,-0.49,-1.55,-1.54,-1.53
88.97,-1.62,-0.07,-1.61,-0.05,0.05,0.26,-0.51,-1.57,-1.55,-1.55
89.86,-1.62,-0.05,-1.60,-0.03,0.03,0.22,-0.54,-1.59,-1.58,-1.57
90.76,-1.61,-0.01,-1.60,-0.00,0.00,0.18,-0.56,-1.61,-1.60,-1.60
91.66,-1.60,0.02,-1.61,0.02,-0.02,0.15,-0.59,-1.62,-1.63,-1.62
92.58,-1.60,0.07,-1.61,0.05,-0.05,0.11,-0.61,-1.65,-1.66,-1.67
93.51,-1.60,0.09,-1.62,0.08,-0.08,0.07,-0.64,-1.68,-1.70,-1.69
94.44,-1.61,0.13,-1.63,0.11,-0.11,0.03,-0.67,-1.72,-1.75,-1.74
95.39,-1.63,0.15,-1.65,0.15,-0.15,-0.01,-0.69,-1.78,-1.79,-1.78
96.34,-1.65,0.19,-1.66,0.18,-0.18,-0.05,-0.72,-1.83,-1.85,-1.84
97.30,-1.68,0.22,-1.68,0.22,-0.22,-0.09,-0.75,-1.90,-1.90,-1.90
98.28,-1.70,0.26,-1.71,0.25,-0.25,-0.12,-0.78,-1.95,-1.96,-1.96
99.26,-1.74,0.29,-1.74,0.29,-0.29,-0.17,-0.81,-2.03,-2.03,-2.03
100.25,-1.77,0.32,-1.77,0.33,-0.33,-0.21,-0.84,-2.10,-2.09,-2.09
101.25,-1.81,0.35,-1.80,0.36,-0.36,-0.25,-0.87,-2.17,-2.16,-2.16
102.27,-1.83,0.40,-1.82,0.40,-0.40,-0.29,-0.90,-2.23,-2.23,-2.23
103.29,-1.85,0.46,-1.85,0.44,-0.44,-0.33,-0.94,-2.29,-2.30,-2.31
104.32,-1.87,0.49,-1.88,0.49,-0.49,-0.37,-0.97,-2.36,-2.37,-2.36
105.37,-1.90,0.54,-1.90,0.54,-0.54,-0.41,-1.00,-2.44,-2.44,-2.44
106.42,-1.93,0.58,-1.92,0.59,-0.59,-0.46,-1.03,-2.52,-2.51,-2.51
107.48,-1.95,0.63,-1.93,0.64,-0.64,-0.50,-1.06,-2.59,-2.58,-2.58
108.56,-1.97,0.67,-1.94,0.70,-0.70,-0.55,-1.09,-2.67,-2.64,-2.64
109.64,-1.97,0.74,-1.95,0.76,-0.76,-0.59,-1.12,-2.73,-2.71,-2.71
110.74,-1.96,0.81,-1.96,0.82,-0.82,-0.64,-1.15,-2.78,-2.77,-2.77
111.85,-1.95,0.88,-1.96,0.88,-0.88,-0.68,-1.18,-2.83,-2.84,-2.83
112.97,-1.95,0.95,-1.96,0.93,-0.93,-0.73,-1.21,-2.88,-2.90,-2.90
114.10,-1.95,1.00,-1.96,0.99,-0.99,-0.78,-1.23,-2.94,-2.95,-2.95
115.24,-1.95,1.07,-1.96,1.05,-1.05,-0.83,-1.26,-3.00,-3.01,-3.02
116.39,-1.95,1.12,-1.96,1.11,-1.11,-0.88,-1.29,-3.06,-3.06,-3.07
117.55,-1.95,1.17,-1.95,1.16,-1.16,-0.92,-1.31,-3.11,-3.11,-3.12
118.73,-1.95,1.22,-1.94,1.22,-1.22,-0.97,-1.33,-3.17,-3.16,-3.17
119.92,-1.95,1.26,-1.94,1.27,-1.27,-1.02,-1.35,-3.22,-3.21,-3.21
121.12,-1.95,1.30,-1.93,1.32,-1.32,-1.08,-1.37,-3.27,-3.25,-3.25
122.33,-1.95,1.34,-1.93,1.36,-1.36,-1.13,-1.39,-3.31,-3.29,-3.29
123.55,-1.94,1.39,-1.93,1.40,-1.40,-1.18,-1.40,-3.34,-3.33,-3.33
124.79,-1.93,1.44,-1.93,1.44,-1.44,-1.23,-1.42,-3.37,-3.37,-3.37
126.03,-1.92,1.48,-1.94,1.47,-1.47,-1.28,-1.43,-3.39,-3.41,-3.40
127.29,-1.93,1.51,-1.94,1.50,-1.50,-1.34,-1.44,-3.43,-3.45,-3.44
128.57,-1.94,1.55,-1.96,1.53,-1.53,-1.39,-1.45,-3.47,-3.49,-3.49
129.85,-1.95,1.57,-1.97,1.55,-1.55,-1.44,-1.45,-3.50,-3.52,-3.52
131.15,-1.97,1.59,-1.99,1.57,-1.57,-1.49,-1.46,-3.54,-3.56,-3.56
132.46,-1.99,1.62,-2.01,1.59,-1.59,-1.55,-1.46,-3.58,-3.60,-3.61
133.79,-2.02,1.61,-2.04,1.60,-1.60,-1.60,-1.47,-3.62,-3.64,-3.63
135.12,-2.07,1.61,-2.06,1.61,-1.61,-1.65,-1.47,-3.68,-3.68,-3.68
136.48,-2.09,1.62,-2.09,1.63,-1.63,-1.70,-1.47,-3.72,-3.72,-3.71
137.84,-2.13,1.63,-2.12,1.64,-1.64,-1.75,-1.47,-3.77,-3.76,-3.76
139.22,-2.15,1.66,-2.15,1.65,-1.65,-1.80,-1.47,-3.80,-3.80,-3.81
140.61,-2.19,1.66,-2.18,1.67,-1.67,-1.85,-1.46,-3.86,-3.84,-3.85
142.02,-2.23,1.65,-2.20,1.69,-1.69,-1.90,-1.46,-3.92,-3.89,-3.88
143.44,-2.24,1.68,-2.22,1.71,-1.71,-1.94,-1.46,-3.95,-3.93,-3.92
144.87,-2.27,1.70,-2.23,1.74,-1.74,-1.99,-1.46,-4.01,-3.97,-3.97
146.32,-2.28,1.74,-2.25,1.77,-1.77,-2.03,-1.45,-4.05,-4.02,-4.02
147.78,-2.28,1.78,-2.26,1.81,-1.81,-2.07,-1.45,-4.09,-4.06,-4.06
149.26,-2.27,1.84,-2.27,1.84,-1.84,-2.11,-1.44,-4.11,-4.11,-4.11
150.75,-2.26,1.90,-2.28,1.88,-1.88,-2.14,-1.44,-4.14,-4.16,-4.16
152.26,-2.26,1.95,-2.29,1.91,-1.91,-2.18,-1.44,-4.17,-4.21,-4.21
153.78,-2.27,1.98,-2.31,1.95,-1.95,-2.21,-1.44,-4.22,-4.25,-4.25
155.32,-2.28,2.02,-2.32,1.98,-1.98,-2.24,-1.43,-4.26,-4.30,-4.30
156.88,-2.32,2.02,-2.34,2.01,-2.01,-2.26,-1.43,-4.33,-4.35,-4.34
158.44,-2.34,2.06,-2.36,2.04,-2.04,-2.28,-1.43,-4.38,-4.40,-4.40
160.03,-2.38,2.07,-2.38,2.07,-2.07,-2.30,-1.43,-4.45,-4.45,-4.45
161.63,-2.41,2.10,-2.41,2.10,-2.10,-2.32,-1.43,-4.51,-4.50,-4.51
163.24,-2.44,2.12,-2.43,2.12,-2.12,-2.33,-1.44,-4.56,-4.55,-4.56
164.88,-2.49,2.12,-2.46,2.14,-2.14,-2.34,-1.44,-4.63,-4.60,-4.61
166.53,-2.51,2.14,-2.49,2.16,-2.16,-2.34,-1.44,-4.67,-4.65,-4.65
168.19,-2.54,2.16,-2.51,2.18,-2.18,-2.34,-1.45,-4.72,-4.70,-4.70
169.87,-2.56,2.18,-2.54,2.21,-2.21,-2.34,-1.46,-4.77,-4.74,-4.74
171.57,-2.57,2.21,-2.56,2.23,-2.23,-2.33,-1.47,-4.80,-4.79,-4.78
173.29,-2.58,2.24,-2.58,2.25,-2.25,-2.33,-1.47,-4.83,-4.83,-4.82
175.02,-2.60,2.27,-2.60,2.27,-2.27,-2.32,-1.48,-4.87,-4.87,-4.87
176.77,-2.61,2.30,-2.62,2.29,-2.29,-2.30,-1.50,-4.90,-4.90,-4.91
178.54,-2.62,2.33,-2.64,2.30,-2.30,-2.28,-1.51,-4.92,-4.94,-4.95
180.32,-2.63,2.34,-2.66,2.31,-2.31,-2.26,-1.52,-4.94,-4.97,-4.97
182.13,-2.65,2.35,-2.68,2.32,-2.32,-2.24,-1.54,-4.97,-5.00,-5.00
183.95,-2.69,2.34,-2.70,2.32,-2.32,-2.22,-1.56,-5.01,-5.03,-5.03
185.79,-2.72,2.34,-2.73,2.32,-2.32,-2.19,-1.57,-5.04,-5.05,-5.06
187.65,-2.75,2.33,-2.75,2.32,-2.32,-2.16,-1.59,-5.07,-5.08,-5.08
189.52,-2.78,2.32,-2.78,2.32,-2.32,-2.13,-1.61,-5.10,-5.10,-5.10
191.42,-2.82,2.30,-2.80,2.32,-2.32,-2.10,-1.63,-5.14,-5.12,-5.12
193.33,-2.85,2.28,-2.82,2.31,-2.31,-2.07,-1.65,-5.16,-5.14,-5.13
195.27,-2.87,2.27,-2.85,2.31,-2.31,-2.04,-1.68,-5.18,-5.16,-5.14
197.22,-2.89,2.28,-2.87,2.30,-2.30,-2.00,-1.70,-5.19,-5.17,-5.17
199.19,-2.90,2.30,-2.89,2.30,-2.30,-1.97,-1.72,-5.20,-5.19,-5.20
201.18,-2.91,2.30,-2.91,2.29,-2.29,-1.93,-1.75,-5.20,-5.20,-5.21
203.19,-2.93,2.29,-2.93,2.29,-2.29,-1.90,-1.77,-5.22,-5.22,-5.22
205.23,-2.94,2.30,-2.95,2.29,-2.29,-1.86,-1.80,-5.23,-5.24,-5.24
207.28,-2.95,2.29,-2.97,2.28,-2.28,-1.82,-1.83,-5.23,-5.25,-5.24
209.35,-2.96,2.30,-2.99,2.27,-2.27,-1.79,-1.85,-5.23,-5.27,-5.26
211.44,-2.99,2.30,-3.02,2.27,-2.27,-1.75,-1.88,-5.26,-5.28,-5.29
213.56,-3.02,2.28,-3.04,2.26,-2.26,-1.71,-1.90,-5.28,-5.30,-5.30
215.69,-3.06,2.24,-3.06,2.25,-2.25,-1.68,-1.93,-5.31,-5.31,-5.30
217.85,-3.10,2.23,-3.09,2.24,-2.24,-1.64,-1.95,-5.34,-5.33,-5.33
220.03,-3.12,2.22,-3.11,2.23,-2.23,-1.61,-1.97,-5.35,-5.34,-5.34
222.23,-3.15,2.22,-3.14,2.22,-2.22,-1.57,-1.99,-5.37,-5.36,-5.37
224.45,-3.18,2.19,-3.16,2.21,-2.21,-1.54,-2.01,-5.39,-5.37,-5.37
226.70,-3.21,2.18,-3.18,2.21,-2.21,-1.50,-2.03,-5.42,-5.39,-5.39
228.96,-3.22,2.18,-3.20,2.20,-2.20,-1.47,-2.05,-5.42,-5.41,-5.40
231.25,-3.23,2.18,-3.22,2.20,-2.20,-1.44,-2.06,-5.43,-5.43,-5.41
233.57,-3.25,2.18,-3.24,2.20,-2.20,-1.41,-2.08,-5.45,-5.44,-5.43
235.90,-3.26,2.19,-3.26,2.20,-2.20,-1.38,-2.09,-5.46,-5.46,-5.45
238.26,-3.27,2.21,-3.28,2.20,-2.20,-1.35,-2.09,-5.47,-5.47,-5.48
240.64,-3.29,2.21,-3.30,2.19,-2.19,-1.32,-2.10,-5.48,-5.49,-5.50
243.05,-3.30,2.21,-3.32,2.19,-2.19,-1.29,-2.10,-5.49,-5.50,-5.51
245.48,-3.32,2.20,-3.34,2.18,-2.18,-1.26,-2.10,-5.50,-5.51,-5.52
247.93,-3.36,2.17,-3.36,2.16,-2.16,-1.23,-2.09,-5.52,-5.52,-5.53
250.41,-3.38,2.17,-3.39,2.14,-2.14,-1.21,-2.08,-5.52,-5.53,-5.55
252.92,-3.42,2.12,-3.42,2.11,-2.11,-1.18,-2.07,-5.53,-5.53,-5.54
255.45,-3.45,2.09,-3.46,2.08,-2.08,-1.16,-2.06,-5.53,-5.53,-5.53
258.00,-3.49,2.04,-3.49,2.04,-2.04,-1.13,-2.04,-5.53,-5.53,-5.53
260.58,-3.54,1.99,-3.53,1.99,-1.99,-1.11,-2.02,-5.53,-5.53,-5.53
263.19,-3.58,1.94,-3.57,1.95,-1.95,-1.08,-1.99,-5.53,-5.52,-5.52
265.82,-3.63,1.89,-3.62,1.89,-1.89,-1.06,-1.97,-5.52,-5.51,-5.52
268.48,-3.67,1.82,-3.66,1.84,-1.84,-1.04,-1.94,-5.51,-5.50,-5.49
271.16,-3.72,1.76,-3.71,1.77,-1.77,-1.02,-1.90,-5.49,-5.49,-5.48
273.87,-3.77,1.70,-3.76,1.71,-1.71,-0.99,-1.87,-5.48,-5.47,-5.47
276.61,-3.80,1.64,-3.81,1.65,-1.65,-0.97,-1.83,-5.45,-5.46,-5.44
279.38,-3.84,1.60,-3.86,1.58,-1.58,-0.95,-1.79,-5.42,-5.44,-5.44
282.17,-3.89,1.54,-3.91,1.52,-1.52,-0.93,-1.75,-5.41,-5.43,-5.43
284.99,-3.95,1.46,-3.97,1.45,-1.45,-0.91,-1.71,-5.40,-5.41,-5.41
287.84,-4.03,1.37,-4.02,1.37,-1.37,-0.89,-1.66,-5.40,-5.40,-5.40
290.72,-4.09,1.28,-4.08,1.30,-1.30,-0.87,-1.62,-5.39,-5.38,-5.37
293.63,-4.15,1.22,-4.14,1.23,-1.23,-0.85,-1.57,-5.38,-5.36,-5.37
296.57,-4.20,1.14,-4.19,1.15,-1.15,-0.83,-1.52,-5.35,-5.34,-5.34
299.53,-4.25,1.08,-4.25,1.07,-1.07,-0.81,-1.47,-5.32,-5.33,-5.33
302.53,-4.30,1.02,-4.31,1.00,-1.00,-0.79,-1.43,-5.30,-5.31,-5.32
305.55,-4.36,0.93,-4.37,0.92,-0.92,-0.77,-1.38,-5.28,-5.29,-5.29
308.61,-4.43,0.84,-4.43,0.84,-0.84,-0.75,-1.33,-5.27,-5.27,-5.27
311.69,-4.50,0.75,-4.48,0.76,-0.76,-0.73,-1.28,-5.26,-5.25,-5.25
314.81,-4.55,0.66,-4.54,0.69,-0.69,-0.71,-1.22,-5.24,-5.23,-5.21
317.96,-4.59,0.60,-4.59,0.62,-0.62,-0.69,-1.17,-5.21,-5.20,-5.19
321.14,-4.64,0.54,-4.64,0.54,-0.54,-0.67,-1.12,-5.18,-5.18,-5.18
324.35,-4.68,0.48,-4.69,0.47,-0.47,-0.65,-1.07,-5.15,-5.16,-5.16
327.59,-4.73,0.40,-4.73,0.40,-0.40,-0.62,-1.02,-5.13,-5.14,-5.13
330.87,-4.78,0.34,-4.78,0.34,-0.34,-0.60,-0.97,-5.12,-5.11,-5.12
334.18,-4.82,0.27,-4.82,0.27,-0.27,-0.57,-0.92,-5.09,-5.09,-5.09
337.52,-4.86,0.21,-4.86,0.21,-0.21,-0.54,-0.87,-5.07,-5.07,-5.07
340.90,-4.90,0.15,-4.89,0.15,-0.15,-0.51,-0.82,-5.05,-5.05,-5.05
344.30,-4.95,0.07,-4.93,0.09,-0.09,-0.48,-0.77,-5.04,-5.02,-5.02
347.75,-4.98,0.02,-4.97,0.03,-0.03,-0.45,-0.72,-5.01,-5.00,-5.00
351.23,-5.01,-0.03,-5.01,-0.03,0.03,-0.41,-0.68,-4.98,-4.98,-4.98
354.74,-5.03,-0.08,-5.05,-0.10,0.10,-0.37,-0.63,-4.93,-4.95,-4.95
358.28,-5.06,-0.13,-5.09,-0.16,0.16,-0.33,-0.58,-4.90,-4.93,-4.93
361.87,-5.10,-0.20,-5.12,-0.22,0.22,-0.29,-0.53,-4.88,-4.90,-4.90
365.49,-5.14,-0.26,-5.16,-0.28,0.28,-0.24,-0.49,-4.86,-4.88,-4.87
369.14,-5.19,-0.32,-5.20,-0.34,0.34,-0.18,-0.44,-4.85,-4.86,-4.87
372.83,-5.24,-0.40,-5.24,-0.40,0.40,-0.12,-0.39,-4.84,-4.84,-4.84
376.56,-5.29,-0.47,-5.28,-0.46,0.46,-0.06,-0.35,-4.83,-4.81,-4.82
380.33,-5.33,-0.55,-5.31,-0.52,0.52,0.01,-0.30,-4.81,-4.79,-4.78
384.13,-5.36,-0.59,-5.35,-0.57,0.57,0.08,-0.26,-4.79,-4.78,-4.77
387.97,-5.39,-0.63,-5.38,-0.63,0.63,0.16,-0.22,-4.76,-4.76,-4.76
391.85,-5.41,-0.66,-5.42,-0.67,0.67,0.25,-0.17,-4.74,-4.74,-4.75
395.77,-5.44,-0.72,-5.44,-0.71,0.71,0.34,-0.13,-4.73,-4.73,-4.72
399.73,-5.47,-0.76,-5.47,-0.75,0.75,0.43,-0.09,-4.72,-4.72,-4.71
403.72,-5.49,-0.78,-5.48,-0.77,0.77,0.53,-0.05,-4.72,-4.71,-4.71
407.76,-5.51,-0.81,-5.50,-0.79,0.79,0.64,-0.01,-4.72,-4.71,-4.70
411.84,-5.53,-0.83,-5.51,-0.81,0.81,0.74,0.03,-4.72,-4.70,-4.70
415.96,-5.54,-0.84,-5.52,-0.82,0.82,0.85,0.06,-4.72,-4.70,-4.70
420.12,-5.53,-0.83,-5.52,-0.82,0.82,0.95,0.10,-4.71,-4.70,-4.70
