frequency,raw,error,smoothed,error_smoothed,equalization,parametric_eq,fixed_band_eq,equalized_raw,equalized_smoothed,target
20.00,13.71,1.26,13.71,1.25,-1.25,-1.42,-0.71,12.46,12.46,12.45
20.20,13.72,1.28,13.72,1.28,-1.28,-1.45,-0.73,12.44,12.44,12.44
20.40,13.73,1.30,13.73,1.30,-1.30,-1.47,-0.75,12.43,12.43,12.43
20.61,13.75,1.33,13.75,1.33,-1.33,-1.49,-0.77,12.42,12.42,12.42
20.81,13.76,1.36,13.76,1.35,-1.35,-1.52,-0.79,12.41,12.41,12.40
21.02,13.77,1.38,13.77,1.37,-1.37,-1.54,-0.81,12.40,12.40,12.39
21.23,13.78,1.40,13.78,1.39,-1.39,-1.56,-0.83,12.39,12.39,12.38
21.44,13.79,1.40,13.79,1.41,-1.41,-1.58,-0.86,12.38,12.38,12.39
21.66,13.80,1.43,13.80,1.43,-1.43,-1.59,-0.88,12.37,12.37,12.37
21.87,13.81,1.44,13.81,1.45,-1.45,-1.61,-0.91,12.36,12.36,12.37
22.09,13.82,1.47,13.82,1.47,-1.47,-1.62,-0.93,12.35,12.35,12.35
22.31,13.83,1.49,13.83,1.49,-1.49,-1.64,-0.96,12.34,12.34,12.35
22.54,13.84,1.51,13.84,1.51,-1.51,-1.65,-0.98,12.33,12.34,12.33
22.76,13.85,1.52,13.85,1.52,-1.52,-1.66,-1.01,12.33,12.33,12.33
22.99,13.86,1.54,13.86,1.54,-1.54,-1.66,-1.04,12.32,12.32,12.32
23.22,13.87,1.56,13.87,1.55,-1.55,-1.67,-1.07,12.32,12.32,12.31
23.45,13.88,1.56,13.88,1.56,-1.56,-1.67,-1.10,12.32,12.31,12.32
23.69,13.89,1.58,13.89,1.58,-1.58,-1.68,-1.13,12.31,12.31,12.31
23.92,13.90,1.60,13.90,1.59,-1.59,-1.68,-1.16,12.31,12.30,12.30
24.16,13.90,1.60,13.90,1.60,-1.60,-1.68,-1.19,12.30,12.30,12.30
24.40,13.91,1.61,13.91,1.61,-1.61,-1.68,-1.22,12.30,12.30,12.30
24.65,13.92,1.62,13.92,1.62,-1.62,-1.68,-1.25,12.30,12.30,12.30
24.89,13.93,1.63,13.93,1.63,-1.63,-1.67,-1.28,12.30,12.29,12.30
25.14,13.93,1.64,13.93,1.64,-1.64,-1.67,-1.31,12.29,12.29,12.29
25.39,13.94,1.65,13.94,1.65,-1.65,-1.67,-1.34,12.29,12.29,12.29
25.65,13.94,1.66,13.94,1.66,-1.66,-1.67,-1.38,12.28,12.29,12.28
25.91,13.95,1.67,13.95,1.66,-1.66,-1.66,-1.41,12.29,12.29,12.28
26.16,13.95,1.66,13.95,1.67,-1.67,-1.66,-1.44,12.28,12.29,12.29
26.43,13.96,1.67,13.96,1.67,-1.67,-1.65,-1.47,12.29,12.29,12.29
26.69,13.96,1.67,13.96,1.68,-1.68,-1.65,-1.50,12.28,12.29,12.29
26.96,13.97,1.69,13.97,1.68,-1.68,-1.65,-1.53,12.29,12.29,12.28
27.23,13.97,1.69,13.97,1.69,-1.69,-1.65,-1.56,12.28,12.29,12.28
27.50,13.98,1.70,13.98,1.69,-1.69,-1.64,-1.59,12.29,12.29,12.28
27.77,13.98,1.69,13.98,1.69,-1.69,-1.64,-1.62,12.29,12.29,12.29
28.05,13.98,1.70,13.98,1.69,-1.69,-1.64,-1.65,12.29,12.29,12.28
28.33,13.98,1.69,13.98,1.69,-1.69,-1.64,-1.68,12.29,12.29,12.29
28.62,13.98,1.69,13.98,1.69,-1.69,-1.64,-1.70,12.29,12.29,12.29
28.90,13.98,1.68,13.98,1.69,-1.69,-1.64,-1.73,12.29,12.29,12.30
29.19,13.98,1.69,13.98,1.69,-1.69,-1.64,-1.75,12.29,12.29,12.29
29.48,13.98,1.69,13.97,1.69,-1.69,-1.64,-1.77,12.29,12.28,12.29
29.78,13.97,1.68,13.97,1.69,-1.69,-1.64,-1.79,12.28,12.28,12.29
30.08,13.97,1.69,13.96,1.69,-1.69,-1.65,-1.80,12.28,12.28,12.28
30.38,13.96,1.69,13.96,1.69,-1.69,-1.65,-1.82,12.27,12.27,12.27
30.68,13.95,1.68,13.95,1.68,-1.68,-1.65,-1.83,12.27,12.27,12.27
30.99,13.94,1.68,13.95,1.68,-1.68,-1.66,-1.84,12.26,12.26,12.26
31.30,13.93,1.67,13.94,1.68,-1.68,-1.66,-1.85,12.25,12.26,12.26
31.61,13.93,1.68,13.93,1.69,-1.69,-1.67,-1.86,12.24,12.25,12.25
31.93,13.92,1.69,13.92,1.68,-1.68,-1.67,-1.86,12.24,12.24,12.23
32.24,13.92,1.69,13.92,1.68,-1.68,-1.68,-1.86,12.24,12.23,12.23
32.57,13.91,1.69,13.91,1.68,-1.68,-1.69,-1.86,12.23,12.22,12.22
32.89,13.90,1.69,13.90,1.68,-1.68,-1.70,-1.86,12.22,12.22,12.21
33.22,13.89,1.68,13.89,1.68,-1.68,-1.70,-1.86,12.21,12.21,12.21
33.55,13.88,1.68,13.87,1.67,-1.67,-1.71,-1.85,12.21,12.20,12.20
33.89,13.86,1.67,13.86,1.67,-1.67,-1.72,-1.85,12.19,12.19,12.19
34.23,13.85,1.68,13.85,1.67,-1.67,-1.73,-1.84,12.18,12.18,12.17
34.57,13.84,1.67,13.84,1.67,-1.67,-1.74,-1.83,12.17,12.17,12.17
34.92,13.82,1.67,13.82,1.66,-1.66,-1.75,-1.82,12.16,12.16,12.15
35.27,13.81,1.65,13.81,1.66,-1.66,-1.76,-1.81,12.15,12.15,12.16
35.62,13.79,1.65,13.79,1.66,-1.66,-1.77,-1.80,12.13,12.14,12.14
35.97,13.77,1.64,13.78,1.66,-1.66,-1.78,-1.79,12.11,12.12,12.13
36.33,13.76,1.65,13.76,1.66,-1.66,-1.79,-1.78,12.10,12.11,12.11
36.70,13.74,1.65,13.74,1.66,-1.66,-1.80,-1.76,12.08,12.09,12.09
37.06,13.73,1.66,13.73,1.66,-1.66,-1.81,-1.75,12.07,12.07,12.07
37.43,13.71,1.66,13.71,1.66,-1.66,-1.82,-1.74,12.05,12.05,12.05
37.81,13.69,1.66,13.69,1.66,-1.66,-1.84,-1.73,12.03,12.03,12.03
38.19,13.67,1.67,13.66,1.66,-1.66,-1.85,-1.72,12.01,12.01,12.00
38.57,13.65,1.67,13.64,1.66,-1.66,-1.86,-1.71,11.99,11.98,11.98
38.95,13.62,1.66,13.62,1.66,-1.66,-1.87,-1.69,11.96,11.96,11.96
39.34,13.60,1.66,13.59,1.66,-1.66,-1.89,-1.69,11.94,11.94,11.93
39.74,13.57,1.67,13.57,1.66,-1.66,-1.90,-1.68,11.91,11.91,11.90
40.14,13.54,1.66,13.55,1.66,-1.66,-1.91,-1.67,11.88,11.89,11.88
40.54,13.51,1.65,13.52,1.66,-1.66,-1.93,-1.66,11.85,11.86,11.86
40.94,13.48,1.65,13.49,1.66,-1.66,-1.94,-1.65,11.82,11.84,11.83
41.35,13.46,1.65,13.47,1.65,-1.65,-1.95,-1.65,11.81,11.81,11.81
41.76,13.44,1.66,13.44,1.65,-1.65,-1.97,-1.65,11.79,11.79,11.78
42.18,13.42,1.65,13.41,1.65,-1.65,-1.98,-1.64,11.77,11.76,11.77
42.60,13.39,1.66,13.39,1.65,-1.65,-1.99,-1.64,11.74,11.73,11.73
43.03,13.37,1.66,13.36,1.66,-1.66,-2.01,-1.64,11.71,11.71,11.71
43.46,13.34,1.66,13.34,1.66,-1.66,-2.02,-1.64,11.68,11.68,11.68
43.90,13.31,1.66,13.31,1.66,-1.66,-2.04,-1.64,11.65,11.65,11.65
44.33,13.28,1.66,13.29,1.67,-1.67,-2.05,-1.65,11.61,11.62,11.62
44.78,13.25,1.66,13.26,1.67,-1.67,-2.06,-1.65,11.58,11.59,11.59
45.23,13.23,1.67,13.23,1.68,-1.68,-2.08,-1.66,11.55,11.55,11.56
45.68,13.21,1.69,13.21,1.69,-1.69,-2.09,-1.66,11.52,11.52,11.52
46.13,13.18,1.70,13.18,1.70,-1.70,-2.11,-1.67,11.48,11.48,11.48
46.60,13.15,1.71,13.14,1.71,-1.71,-2.12,-1.68,11.44,11.44,11.44
47.06,13.13,1.73,13.11,1.72,-1.72,-2.13,-1.69,11.41,11.40,11.40
47.53,13.09,1.73,13.08,1.73,-1.73,-2.15,-1.70,11.36,11.35,11.36
48.01,13.06,1.76,13.05,1.75,-1.75,-2.16,-1.72,11.31,11.31,11.30
48.49,13.02,1.76,13.02,1.76,-1.76,-2.18,-1.73,11.26,11.26,11.26
48.97,12.98,1.77,12.99,1.77,-1.77,-2.19,-1.74,11.21,11.22,11.21
49.46,12.95,1.78,12.96,1.79,-1.79,-2.20,-1.76,11.16,11.17,11.17
49.96,12.91,1.80,12.93,1.80,-1.80,-2.22,-1.78,11.11,11.12,11.11
50.46,12.88,1.81,12.89,1.81,-1.81,-2.23,-1.80,11.07,11.08,11.07
50.96,12.85,1.82,12.85,1.82,-1.82,-2.25,-1.81,11.03,11.03,11.03
51.47,12.83,1.85,12.82,1.83,-1.83,-2.26,-1.83,11.00,10.98,10.98
51.99,12.80,1.87,12.78,1.84,-1.84,-2.27,-1.85,10.96,10.94,10.93
52.51,12.76,1.87,12.74,1.86,-1.86,-2.29,-1.87,10.91,10.89,10.89
53.03,12.72,1.87,12.71,1.87,-1.87,-2.30,-1.89,10.85,10.84,10.85
53.56,12.67,1.87,12.67,1.88,-1.88,-2.32,-1.91,10.79,10.80,10.80
54.10,12.62,1.87,12.63,1.88,-1.88,-2.33,-1.94,10.74,10.75,10.75
54.64,12.58,1.88,12.60,1.89,-1.89,-2.34,-1.96,10.69,10.71,10.70
55.18,12.54,1.89,12.55,1.89,-1.89,-2.36,-1.98,10.65,10.66,10.65
55.74,12.51,1.91,12.51,1.90,-1.90,-2.37,-2.00,10.61,10.62,10.60
56.29,12.47,1.90,12.47,1.90,-1.90,-2.38,-2.02,10.57,10.57,10.57
56.86,12.44,1.92,12.43,1.90,-1.90,-2.40,-2.04,10.54,10.53,10.52
57.42,12.40,1.93,12.39,1.91,-1.91,-2.41,-2.05,10.49,10.48,10.47
58.00,12.36,1.94,12.35,1.92,-1.92,-2.42,-2.07,10.44,10.43,10.42
58.58,12.31,1.93,12.30,1.93,-1.93,-2.43,-2.09,10.38,10.38,10.38
59.16,12.26,1.92,12.26,1.94,-1.94,-2.45,-2.10,10.32,10.32,10.34
59.76,12.21,1.92,12.22,1.95,-1.95,-2.46,-2.12,10.26,10.27,10.29
60.35,12.17,1.94,12.18,1.96,-1.96,-2.47,-2.13,10.21,10.22,10.23
60.96,12.13,1.96,12.14,1.98,-1.98,-2.48,-2.14,10.15,10.16,10.17
61.57,12.10,2.00,12.10,2.00,-2.00,-2.50,-2.15,10.10,10.10,10.10
62.18,12.06,2.03,12.05,2.01,-2.01,-2.51,-2.16,10.04,10.04,10.03
62.80,12.01,2.04,12.01,2.03,-2.03,-2.52,-2.17,9.98,9.98,9.97
63.43,11.97,2.07,11.97,2.05,-2.05,-2.53,-2.17,9.92,9.92,9.90
64.07,11.93,2.09,11.93,2.07,-2.07,-2.54,-2.18,9.86,9.85,9.84
64.71,11.88,2.10,11.89,2.10,-2.10,-2.55,-2.18,9.78,9.79,9.78
65.35,11.84,2.12,11.85,2.12,-2.12,-2.57,-2.18,9.72,9.73,9.72
66.01,11.81,2.15,11.81,2.14,-2.14,-2.58,-2.18,9.67,9.66,9.66
66.67,11.77,2.16,11.76,2.17,-2.17,-2.59,-2.18,9.60,9.60,9.61
67.33,11.73,2.20,11.72,2.19,-2.19,-2.60,-2.18,9.54,9.53,9.53
68.01,11.68,2.20,11.68,2.21,-2.21,-2.61,-2.17,9.47,9.47,9.48
68.69,11.62,2.21,11.63,2.23,-2.23,-2.62,-2.17,9.40,9.41,9.41
69.37,11.58,2.23,11.59,2.25,-2.25,-2.63,-2.17,9.33,9.34,9.35
70.07,11.54,2.26,11.54,2.27,-2.27,-2.64,-2.16,9.27,9.27,9.28
70.77,11.50,2.29,11.49,2.29,-2.29,-2.65,-2.16,9.21,9.21,9.21
71.48,11.46,2.31,11.45,2.31,-2.31,-2.66,-2.15,9.15,9.14,9.15
72.19,11.40,2.33,11.40,2.32,-2.32,-2.67,-2.15,9.08,9.07,9.07
72.91,11.35,2.35,11.35,2.34,-2.34,-2.68,-2.14,9.01,9.01,9.00
73.64,11.29,2.36,11.30,2.36,-2.36,-2.69,-2.14,8.93,8.94,8.93
74.38,11.24,2.38,11.25,2.37,-2.37,-2.70,-2.13,8.87,8.87,8.86
75.12,11.19,2.38,11.20,2.39,-2.39,-2.71,-2.13,8.80,8.81,8.81
75.87,11.15,2.40,11.14,2.40,-2.40,-2.71,-2.12,8.75,8.75,8.75
76.63,11.10,2.43,11.09,2.41,-2.41,-2.72,-2.12,8.69,8.68,8.67
77.40,11.04,2.42,11.04,2.42,-2.42,-2.73,-2.12,8.62,8.62,8.62
78.17,10.98,2.43,10.99,2.43,-2.43,-2.74,-2.12,8.55,8.56,8.55
78.95,10.92,2.42,10.93,2.44,-2.44,-2.75,-2.12,8.48,8.50,8.50
79.74,10.88,2.44,10.88,2.45,-2.45,-2.76,-2.12,8.43,8.43,8.44
80.54,10.83,2.45,10.83,2.46,-2.46,-2.76,-2.13,8.37,8.37,8.38
81.35,10.79,2.48,10.78,2.47,-2.47,-2.77,-2.13,8.32,8.31,8.31
82.16,10.74,2.48,10.73,2.48,-2.48,-2.78,-2.14,8.26,8.25,8.26
82.98,10.67,2.48,10.67,2.48,-2.48,-2.78,-2.14,8.19,8.19,8.19
83.81,10.61,2.48,10.62,2.49,-2.49,-2.79,-2.15,8.12,8.12,8.13
84.65,10.56,2.51,10.56,2.50,-2.50,-2.80,-2.16,8.06,8.06,8.05
85.50,10.51,2.52,10.51,2.51,-2.51,-2.80,-2.18,8.00,7.99,7.99
86.35,10.46,2.53,10.45,2.53,-2.53,-2.81,-2.19,7.93,7.93,7.93
87.22,10.40,2.54,10.40,2.54,-2.54,-2.82,-2.21,7.86,7.86,7.86
88.09,10.34,2.55,10.35,2.55,-2.55,-2.82,-2.22,7.79,7.79,7.79
88.97,10.28,2.56,10.29,2.57,-2.57,-2.83,-2.24,7.71,7.72,7.72
89.86,10.23,2.57,10.23,2.58,-2.58,-2.83,-2.27,7.65,7.66,7.66
90.76,10.18,2.59,10.18,2.59,-2.59,-2.84,-2.29,7.59,7.58,7.59
91.66,10.12,2.61,10.12,2.61,-2.61,-2.84,-2.31,7.51,7.51,7.51
92.58,10.07,2.62,10.07,2.63,-2.63,-2.85,-2.34,7.44,7.44,7.45
93.51,10.01,2.64,10.01,2.64,-2.64,-2.85,-2.37,7.37,7.37,7.38
94.44,9.95,2.65,9.95,2.65,-2.65,-2.86,-2.40,7.30,7.29,7.30
95.39,9.90,2.68,9.89,2.67,-2.67,-2.86,-2.43,7.23,7.22,7.22
96.34,9.85,2.70,9.83,2.68,-2.68,-2.86,-2.46,7.17,7.15,7.15
97.30,9.78,2.71,9.77,2.70,-2.70,-2.87,-2.49,7.08,7.07,7.07
98.28,9.71,2.72,9.71,2.71,-2.71,-2.87,-2.53,7.00,7.00,6.99
99.26,9.64,2.72,9.65,2.73,-2.73,-2.87,-2.56,6.91,6.93,6.92
100.25,9.58,2.74,9.59,2.74,-2.74,-2.88,-2.60,6.84,6.85,6.84
101.25,9.51,2.73,9.53,2.75,-2.75,-2.88,-2.64,6.76,6.78,6.78
102.27,9.45,2.74,9.47,2.76,-2.76,-2.88,-2.68,6.69,6.71,6.71
103.29,9.41,2.77,9.41,2.77,-2.77,-2.88,-2.72,6.64,6.64,6.64
104.32,9.37,2.80,9.35,2.77,-2.77,-2.89,-2.76,6.60,6.57,6.57
105.37,9.29,2.79,9.28,2.78,-2.78,-2.89,-2.80,6.51,6.50,6.50
106.42,9.23,2.79,9.22,2.79,-2.79,-2.89,-2.84,6.44,6.43,6.44
107.48,9.17,2.81,9.16,2.80,-2.80,-2.89,-2.88,6.37,6.36,6.36
108.56,9.11,2.81,9.10,2.81,-2.81,-2.89,-2.91,6.30,6.29,6.30
109.64,9.03,2.80,9.04,2.82,-2.82,-2.89,-2.95,6.21,6.22,6.23
110.74,8.97,2.81,8.98,2.83,-2.83,-2.89,-2.99,6.14,6.15,6.16
111.85,8.92,2.84,8.92,2.83,-2.83,-2.89,-3.03,6.09,6.08,6.08
112.97,8.85,2.83,8.85,2.84,-2.84,-2.89,-3.06,6.01,6.01,6.02
114.10,8.78,2.83,8.79,2.85,-2.85,-2.89,-3.09,5.93,5.94,5.95
115.24,8.71,2.85,8.72,2.86,-2.86,-2.89,-3.12,5.85,5.87,5.86
116.39,8.68,2.89,8.66,2.86,-2.86,-2.89,-3.15,5.82,5.80,5.79
117.55,8.62,2.90,8.60,2.87,-2.87,-2.89,-3.17,5.75,5.73,5.72
118.73,8.54,2.90,8.54,2.88,-2.88,-2.89,-3.20,5.66,5.66,5.64
119.92,8.47,2.89,8.48,2.89,-2.89,-2.89,-3.21,5.58,5.59,5.58
121.12,8.40,2.88,8.42,2.90,-2.90,-2.89,-3.23,5.50,5.52,5.52
122.33,8.35,2.90,8.36,2.91,-2.91,-2.89,-3.24,5.44,5.45,5.45
123.55,8.30,2.91,8.30,2.91,-2.91,-2.88,-3.25,5.39,5.38,5.39
124.79,8.23,2.91,8.24,2.92,-2.92,-2.88,-3.26,5.31,5.31,5.32
126.03,8.16,2.90,8.18,2.93,-2.93,-2.88,-3.26,5.23,5.25,5.26
127.29,8.12,2.93,8.12,2.94,-2.94,-2.88,-3.26,5.18,5.18,5.19
128.57,8.07,2.96,8.06,2.95,-2.95,-2.87,-3.25,5.12,5.11,5.11
129.85,8.00,2.95,8.00,2.96,-2.96,-2.87,-3.24,5.04,5.05,5.05
131.15,7.94,2.97,7.94,2.96,-2.96,-2.87,-3.23,4.98,4.98,4.97
132.46,7.90,2.99,7.88,2.97,-2.97,-2.86,-3.21,4.93,4.91,4.91
133.79,7.82,2.98,7.82,2.98,-2.98,-2.86,-3.20,4.84,4.84,4.84
135.12,7.75,2.97,7.76,2.98,-2.98,-2.85,-3.17,4.77,4.78,4.78
136.48,7.70,2.98,7.70,2.98,-2.98,-2.85,-3.15,4.72,4.71,4.72
137.84,7.64,2.99,7.63,2.98,-2.98,-2.84,-3.13,4.66,4.65,4.65
139.22,7.59,3.01,7.57,2.98,-2.98,-2.84,-3.10,4.61,4.58,4.58
140.61,7.52,3.00,7.50,2.98,-2.98,-2.83,-3.07,4.54,4.52,4.52
142.02,7.42,2.96,7.44,2.97,-2.97,-2.83,-3.04,4.45,4.46,4.46
143.44,7.37,2.97,7.37,2.97,-2.97,-2.82,-3.01,4.40,4.41,4.40
144.87,7.29,2.94,7.31,2.96,-2.96,-2.82,-2.98,4.33,4.35,4.35
146.32,7.24,2.95,7.24,2.95,-2.95,-2.81,-2.94,4.29,4.29,4.29
147.78,7.17,2.93,7.18,2.94,-2.94,-2.80,-2.91,4.23,4.24,4.24
149.26,7.12,2.94,7.12,2.94,-2.94,-2.79,-2.88,4.18,4.18,4.18
150.75,7.04,2.92,7.05,2.93,-2.93,-2.79,-2.84,4.11,4.12,4.12
152.26,7.00,2.93,6.99,2.92,-2.92,-2.78,-2.81,4.08,4.07,4.07
153.78,6.93,2.91,6.93,2.92,-2.92,-2.77,-2.78,4.01,4.02,4.02
155.32,6.88,2.92,6.87,2.91,-2.91,-2.76,-2.75,3.97,3.96,3.96
156.88,6.81,2.90,6.82,2.91,-2.91,-2.75,-2.72,3.90,3.91,3.91
158.44,6.76,2.91,6.76,2.91,-2.91,-2.75,-2.69,3.85,3.85,3.85
160.03,6.68,2.88,6.70,2.90,-2.90,-2.74,-2.66,3.78,3.80,3.80
161.63,6.64,2.90,6.64,2.90,-2.90,-2.73,-2.64,3.74,3.74,3.74
163.24,6.59,2.91,6.57,2.89,-2.89,-2.72,-2.61,3.70,3.68,3.68
164.88,6.51,2.88,6.51,2.88,-2.88,-2.71,-2.59,3.63,3.63,3.63
166.53,6.45,2.89,6.45,2.88,-2.88,-2.70,-2.57,3.57,3.57,3.56
168.19,6.39,2.87,6.38,2.87,-2.87,-2.69,-2.55,3.52,3.51,3.52
169.87,6.33,2.87,6.32,2.86,-2.86,-2.67,-2.53,3.47,3.46,3.46
171.57,6.26,2.86,6.25,2.85,-2.85,-2.66,-2.52,3.41,3.40,3.40
173.29,6.19,2.84,6.18,2.84,-2.84,-2.65,-2.50,3.35,3.34,3.35
175.02,6.09,2.80,6.12,2.83,-2.83,-2.64,-2.49,3.26,3.28,3.29
176.77,6.03,2.80,6.05,2.82,-2.82,-2.63,-2.48,3.21,3.23,3.23
178.54,5.98,2.81,5.98,2.81,-2.81,-2.61,-2.48,3.17,3.17,3.17
180.32,5.92,2.81,5.91,2.79,-2.79,-2.60,-2.47,3.13,3.12,3.11
182.13,5.85,2.78,5.84,2.78,-2.78,-2.59,-2.47,3.07,3.06,3.07
183.95,5.75,2.74,5.77,2.76,-2.76,-2.57,-2.47,2.99,3.01,3.01
185.79,5.70,2.75,5.70,2.75,-2.75,-2.56,-2.47,2.95,2.95,2.95
187.65,5.64,2.74,5.63,2.73,-2.73,-2.54,-2.47,2.91,2.90,2.90
189.52,5.58,2.73,5.57,2.71,-2.71,-2.53,-2.47,2.86,2.85,2.85
191.42,5.50,2.70,5.50,2.70,-2.70,-2.51,-2.48,2.80,2.80,2.80
193.33,5.43,2.67,5.43,2.68,-2.68,-2.50,-2.48,2.75,2.75,2.76
195.27,5.36,2.66,5.36,2.66,-2.66,-2.48,-2.49,2.70,2.70,2.70
197.22,5.29,2.64,5.30,2.64,-2.64,-2.47,-2.50,2.65,2.66,2.65
199.19,5.23,2.62,5.23,2.61,-2.61,-2.45,-2.51,2.62,2.62,2.61
201.18,5.17,2.61,5.16,2.59,-2.59,-2.43,-2.52,2.58,2.57,2.56
203.19,5.10,2.57,5.09,2.56,-2.56,-2.42,-2.54,2.54,2.53,2.53
205.23,5.04,2.54,5.03,2.54,-2.54,-2.40,-2.55,2.50,2.49,2.50
207.28,4.98,2.52,4.97,2.51,-2.51,-2.38,-2.56,2.47,2.45,2.46
209.35,4.91,2.49,4.91,2.49,-2.49,-2.36,-2.58,2.42,2.42,2.42
211.44,4.85,2.47,4.85,2.47,-2.47,-2.34,-2.59,2.38,2.38,2.38
213.56,4.79,2.44,4.80,2.45,-2.45,-2.32,-2.61,2.34,2.35,2.35
215.69,4.74,2.42,4.75,2.44,-2.44,-2.30,-2.62,2.30,2.31,2.32
217.85,4.69,2.41,4.71,2.43,-2.43,-2.28,-2.64,2.26,2.28,2.28
220.03,4.66,2.41,4.67,2.42,-2.42,-2.26,-2.65,2.24,2.25,2.25
222.23,4.63,2.42,4.64,2.42,-2.42,-2.24,-2.66,2.21,2.22,2.21
224.45,4.60,2.41,4.61,2.42,-2.42,-2.22,-2.67,2.18,2.19,2.19
226.70,4.58,2.42,4.59,2.43,-2.43,-2.20,-2.68,2.15,2.17,2.16
228.96,4.56,2.41,4.57,2.43,-2.43,-2.18,-2.69,2.13,2.14,2.15
231.25,4.55,2.43,4.56,2.44,-2.44,-2.16,-2.69,2.11,2.12,2.12
233.57,4.54,2.44,4.54,2.45,-2.45,-2.13,-2.69,2.09,2.10,2.10
235.90,4.54,2.46,4.53,2.45,-2.45,-2.11,-2.69,2.09,2.08,2.08
238.26,4.53,2.48,4.52,2.46,-2.46,-2.09,-2.69,2.07,2.06,2.05
240.64,4.52,2.47,4.51,2.46,-2.46,-2.06,-2.68,2.06,2.05,2.05
243.05,4.51,2.48,4.49,2.46,-2.46,-2.04,-2.67,2.05,2.03,2.03
245.48,4.50,2.48,4.47,2.45,-2.45,-2.01,-2.66,2.05,2.02,2.02
247.93,4.46,2.46,4.45,2.44,-2.44,-1.99,-2.64,2.02,2.01,2.00
250.41,4.43,2.43,4.43,2.43,-2.43,-1.96,-2.62,2.00,2.00,2.00
252.92,4.40,2.40,4.40,2.41,-2.41,-1.94,-2.59,1.99,1.99,2.00
255.45,4.38,2.40,4.38,2.39,-2.39,-1.91,-2.56,1.99,1.98,1.98
258.00,4.35,2.37,4.35,2.37,-2.37,-1.88,-2.53,1.98,1.98,1.98
260.58,4.32,2.34,4.32,2.34,-2.34,-1.85,-2.50,1.98,1.97,1.98
263.19,4.28,2.31,4.28,2.32,-2.32,-1.83,-2.46,1.96,1.97,1.97
265.82,4.23,2.27,4.25,2.29,-2.29,-1.80,-2.41,1.94,1.96,1.96
268.48,4.20,2.24,4.22,2.26,-2.26,-1.77,-2.37,1.94,1.95,1.96
271.16,4.17,2.21,4.18,2.23,-2.23,-1.74,-2.32,1.94,1.95,1.96
273.87,4.13,2.19,4.15,2.20,-2.20,-1.71,-2.27,1.93,1.94,1.94
276.61,4.10,2.16,4.11,2.17,-2.17,-1.68,-2.21,1.93,1.94,1.94
279.38,4.08,2.16,4.07,2.13,-2.13,-1.65,-2.15,1.95,1.94,1.92
282.17,4.05,2.13,4.03,2.09,-2.09,-1.62,-2.09,1.96,1.93,1.92
284.99,4.01,2.08,3.98,2.05,-2.05,-1.59,-2.03,1.96,1.93,1.93
287.84,3.95,2.02,3.94,2.01,-2.01,-1.55,-1.97,1.94,1.93,1.93
290.72,3.90,1.98,3.89,1.96,-1.96,-1.52,-1.91,1.94,1.93,1.92
293.63,3.84,1.90,3.84,1.91,-1.91,-1.49,-1.84,1.93,1.93,1.94
296.57,3.78,1.84,3.78,1.85,-1.85,-1.46,-1.77,1.93,1.94,1.94
299.53,3.72,1.78,3.73,1.79,-1.79,-1.42,-1.71,1.93,1.94,1.94
302.53,3.66,1.71,3.67,1.72,-1.72,-1.39,-1.64,1.94,1.94,1.95
305.55,3.60,1.66,3.60,1.66,-1.66,-1.35,-1.57,1.94,1.95,1.94
308.61,3.54,1.58,3.54,1.59,-1.59,-1.32,-1.50,1.95,1.95,1.96
311.69,3.48,1.52,3.47,1.51,-1.51,-1.28,-1.43,1.97,1.96,1.96
314.81,3.42,1.46,3.41,1.44,-1.44,-1.25,-1.36,1.98,1.96,1.96
317.96,3.35,1.38,3.34,1.38,-1.38,-1.21,-1.29,1.97,1.97,1.97
321.14,3.28,1.30,3.28,1.31,-1.31,-1.17,-1.22,1.97,1.98,1.98
324.35,3.21,1.24,3.22,1.24,-1.24,-1.13,-1.16,1.97,1.98,1.97
327.59,3.15,1.15,3.16,1.17,-1.17,-1.10,-1.09,1.98,1.99,2.00
330.87,3.10,1.11,3.10,1.11,-1.11,-1.06,-1.02,1.99,1.99,1.99
334.18,3.05,1.05,3.05,1.05,-1.05,-1.02,-0.95,2.00,2.00,2.00
337.52,2.97,0.97,2.99,0.98,-0.98,-0.98,-0.88,1.99,2.01,2.00
340.90,2.92,0.90,2.94,0.92,-0.92,-0.94,-0.82,2.00,2.01,2.02
344.30,2.88,0.86,2.88,0.86,-0.86,-0.90,-0.75,2.02,2.02,2.02
347.75,2.84,0.81,2.83,0.80,-0.80,-0.86,-0.68,2.04,2.03,2.03
351.23,2.79,0.77,2.78,0.75,-0.75,-0.82,-0.62,2.04,2.03,2.02
354.74,2.74,0.69,2.73,0.69,-0.69,-0.78,-0.55,2.05,2.04,2.05
358.28,2.68,0.63,2.68,0.64,-0.64,-0.73,-0.49,2.04,2.05,2.04
361.87,2.63,0.58,2.63,0.58,-0.58,-0.69,-0.42,2.05,2.05,2.05
365.49,2.59,0.53,2.59,0.53,-0.53,-0.65,-0.36,2.06,2.06,2.06
369.14,2.55,0.48,2.54,0.47,-0.47,-0.61,-0.29,2.08,2.07,2.07
372.83,2.50,0.42,2.49,0.42,-0.42,-0.56,-0.23,2.08,2.07,2.08
376.56,2.45,0.37,2.45,0.36,-0.36,-0.52,-0.17,2.09,2.08,2.08
380.33,2.39,0.31,2.40,0.31,-0.31,-0.47,-0.10,2.08,2.09,2.08
384.13,2.34,0.24,2.35,0.25,-0.25,-0.43,-0.04,2.09,2.10,2.10
387.97,2.30,0.19,2.30,0.20,-0.20,-0.38,0.02,2.10,2.11,2.11
391.85,2.25,0.14,2.26,0.14,-0.14,-0.34,0.08,2.11,2.12,2.11
395.77,2.22,0.10,2.21,0.09,-0.09,-0.29,0.14,2.13,2.13,2.12
399.73,2.18,0.05,2.16,0.03,-0.03,-0.25,0.20,2.15,2.14,2.13
403.72,2.13,-0.03,2.12,-0.03,0.03,-0.20,0.26,2.16,2.14,2.16
407.76,2.08,-0.07,2.07,-0.08,0.08,-0.15,0.32,2.16,2.15,2.15
411.84,2.02,-0.14,2.03,-0.14,0.14,-0.10,0.38,2.16,2.16,2.16
415.96,1.98,-0.20,1.98,-0.19,0.19,-0.06,0.43,2.17,2.17,2.18
420.12,1.94,-0.24,1.94,-0.24,0.24,-0.01,0.49,2.18,2.18,2.18
424.32,1.88,-0.30,1.90,-0.29,0.29,0.04,0.55,2.17,2.19,2.19
428.56,1.84,-0.36,1.85,-0.34,0.34,0.09,0.60,2.18,2.20,2.20
432.85,1.81,-0.40,1.81,-0.40,0.40,0.14,0.66,2.21,2.20,2.21
437.18,1.77,-0.44,1.77,-0.45,0.45,0.19,0.71,2.22,2.21,2.21
441.55,1.73,-0.49,1.73,-0.50,0.50,0.24,0.76,2.23,2.22,2.22
445.96,1.70,-0.53,1.69,-0.54,0.54,0.29,0.81,2.24,2.23,2.23
450.42,1.66,-0.57,1.65,-0.59,0.59,0.34,0.86,2.25,2.24,2.23
454.93,1.62,-0.62,1.61,-0.63,0.63,0.39,0.91,2.25,2.25,2.24
459.48,1.57,-0.68,1.58,-0.68,0.68,0.44,0.96,2.25,2.26,2.25
464.07,1.52,-0.75,1.54,-0.72,0.72,0.49,1.00,2.24,2.26,2.27
468.71,1.49,-0.79,1.50,-0.77,0.77,0.54,1.05,2.26,2.27,2.28
473.40,1.45,-0.84,1.47,-0.82,0.82,0.59,1.09,2.27,2.28,2.29
478.13,1.44,-0.86,1.43,-0.86,0.86,0.64,1.13,2.30,2.29,2.30
482.91,1.42,-0.88,1.40,-0.91,0.91,0.69,1.17,2.33,2.30,2.30
487.74,1.38,-0.93,1.36,-0.95,0.95,0.74,1.20,2.33,2.31,2.31
492.62,1.34,-0.98,1.33,-1.00,1.00,0.79,1.24,2.34,2.32,2.32
