frequency,raw,error,smoothed,error_smoothed,equalization,parametric_eq,fixed_band_eq,equalized_raw,equalized_smoothed,target
20.00,-5.99,-12.91,-6.00,-12.94,12.94,12.45,4.96,6.95,6.94,6.92
20.20,-5.95,-12.87,-5.96,-12.89,12.89,12.48,5.08,6.94,6.93,6.92
20.40,-5.91,-12.83,-5.91,-12.83,12.83,12.50,5.22,6.92,6.92,6.92
20.61,-5.87,-12.79,-5.87,-12.78,12.78,12.52,5.35,6.91,6.91,6.91
20.81,-5.82,-12.74,-5.82,-12.72,12.72,12.53,5.49,6.90,6.90,6.91
21.02,-5.78,-12.70,-5.77,-12.67,12.67,12.53,5.64,6.88,6.89,6.91
21.23,-5.73,-12.63,-5.73,-12.61,12.61,12.53,5.78,6.87,6.88,6.89
21.44,-5.68,-12.56,-5.68,-12.55,12.55,12.53,5.94,6.86,6.86,6.88
21.66,-5.64,-12.51,-5.63,-12.48,12.48,12.52,6.09,6.84,6.85,6.86
21.87,-5.59,-12.43,-5.59,-12.42,12.42,12.51,6.25,6.83,6.84,6.84
22.09,-5.54,-12.37,-5.54,-12.36,12.36,12.49,6.42,6.81,6.82,6.83
22.31,-5.49,-12.29,-5.49,-12.29,12.29,12.47,6.59,6.80,6.80,6.80
22.54,-5.44,-12.22,-5.44,-12.22,12.22,12.44,6.76,6.78,6.78,6.78
22.76,-5.38,-12.14,-5.39,-12.15,12.15,12.41,6.94,6.76,6.76,6.76
22.99,-5.33,-12.06,-5.34,-12.07,12.07,12.37,7.13,6.74,6.73,6.73
23.22,-5.28,-11.98,-5.29,-12.00,12.00,12.33,7.31,6.72,6.71,6.70
23.45,-5.23,-11.91,-5.24,-11.93,11.93,12.29,7.51,6.70,6.69,6.68
23.69,-5.18,-11.85,-5.19,-11.86,11.86,12.24,7.71,6.67,6.67,6.67
23.92,-5.13,-11.78,-5.14,-11.78,11.78,12.18,7.91,6.65,6.65,6.65
24.16,-5.08,-11.72,-5.08,-11.71,11.71,12.13,8.12,6.63,6.63,6.63
24.40,-5.04,-11.66,-5.03,-11.64,11.64,12.07,8.33,6.60,6.61,6.61
24.65,-4.99,-11.59,-4.98,-11.57,11.57,12.01,8.55,6.58,6.59,6.59
24.89,-4.93,-11.50,-4.93,-11.50,11.50,11.94,8.78,6.57,6.57,6.57
25.14,-4.88,-11.44,-4.88,-11.43,11.43,11.88,9.00,6.55,6.56,6.56
25.39,-4.82,-11.36,-4.82,-11.36,11.36,11.81,9.24,6.54,6.54,6.54
25.65,-4.77,-11.30,-4.77,-11.29,11.29,11.74,9.47,6.52,6.52,6.53
25.91,-4.71,-11.21,-4.72,-11.22,11.22,11.66,9.71,6.51,6.51,6.50
26.16,-4.66,-11.15,-4.66,-11.15,11.15,11.59,9.96,6.49,6.49,6.49
26.43,-4.60,-11.08,-4.61,-11.08,11.08,11.51,10.20,6.48,6.47,6.48
26.69,-4.55,-11.01,-4.55,-11.01,11.01,11.43,10.45,6.46,6.46,6.45
26.96,-4.49,-10.94,-4.50,-10.94,10.94,11.35,10.70,6.45,6.44,6.44
27.23,-4.44,-10.87,-4.44,-10.87,10.87,11.27,10.94,6.43,6.43,6.43
27.50,-4.39,-10.81,-4.39,-10.80,10.80,11.19,11.19,6.41,6.41,6.42
27.77,-4.34,-10.74,-4.34,-10.74,10.74,11.10,11.43,6.39,6.40,6.40
28.05,-4.28,-10.67,-4.28,-10.67,10.67,11.02,11.67,6.39,6.38,6.39
28.33,-4.23,-10.60,-4.23,-10.60,10.60,10.93,11.90,6.37,6.37,6.37
28.62,-4.18,-10.54,-4.18,-10.54,10.54,10.85,12.12,6.35,6.36,6.35
28.90,-4.13,-10.47,-4.13,-10.47,10.47,10.76,12.33,6.34,6.34,6.34
29.19,-4.08,-10.40,-4.08,-10.41,10.41,10.68,12.53,6.32,6.33,6.32
29.48,-4.02,-10.34,-4.03,-10.34,10.34,10.59,12.70,6.32,6.32,6.32
29.78,-3.97,-10.28,-3.98,-10.28,10.28,10.51,12.86,6.31,6.30,6.31
30.08,-3.92,-10.22,-3.93,-10.22,10.22,10.42,13.00,6.29,6.29,6.29
30.38,-3.88,-10.16,-3.88,-10.15,10.15,10.34,13.12,6.27,6.27,6.27
30.68,-3.83,-10.09,-3.84,-10.09,10.09,10.25,13.21,6.26,6.26,6.26
30.99,-3.78,-10.02,-3.79,-10.03,10.03,10.17,13.27,6.25,6.24,6.24
31.30,-3.74,-9.97,-3.75,-9.97,9.97,10.08,13.31,6.23,6.22,6.23
31.61,-3.70,-9.92,-3.70,-9.91,9.91,10.00,13.31,6.21,6.20,6.21
31.93,-3.66,-9.85,-3.66,-9.85,9.85,9.92,13.29,6.19,6.19,6.19
32.24,-3.63,-9.79,-3.62,-9.79,9.79,9.84,13.24,6.16,6.17,6.16
32.57,-3.58,-9.73,-3.59,-9.73,9.73,9.76,13.17,6.15,6.15,6.14
32.89,-3.55,-9.68,-3.55,-9.67,9.67,9.68,13.07,6.12,6.12,6.13
33.22,-3.51,-9.61,-3.51,-9.62,9.62,9.60,12.96,6.10,6.10,6.10
33.55,-3.47,-9.56,-3.47,-9.56,9.56,9.52,12.82,6.09,6.08,6.09
33.89,-3.44,-9.50,-3.44,-9.50,9.50,9.44,12.67,6.06,6.06,6.06
34.23,-3.40,-9.44,-3.40,-9.44,9.44,9.37,12.50,6.04,6.04,6.04
34.57,-3.37,-9.39,-3.37,-9.39,9.39,9.29,12.32,6.02,6.02,6.02
34.92,-3.33,-9.32,-3.34,-9.33,9.33,9.22,12.14,6.00,6.00,5.99
35.27,-3.30,-9.28,-3.30,-9.28,9.28,9.15,11.95,5.98,5.98,5.98
35.62,-3.27,-9.23,-3.27,-9.22,9.22,9.08,11.75,5.95,5.95,5.95
35.97,-3.24,-9.17,-3.24,-9.17,9.17,9.01,11.56,5.93,5.93,5.93
36.33,-3.20,-9.12,-3.20,-9.12,9.12,8.94,11.36,5.91,5.91,5.92
36.70,-3.17,-9.06,-3.17,-9.06,9.06,8.88,11.16,5.89,5.89,5.89
37.06,-3.14,-9.01,-3.14,-9.01,9.01,8.81,10.96,5.87,5.87,5.87
37.43,-3.11,-8.96,-3.11,-8.96,8.96,8.75,10.77,5.85,5.85,5.85
37.81,-3.08,-8.91,-3.08,-8.91,8.91,8.69,10.58,5.83,5.82,5.83
38.19,-3.05,-8.85,-3.05,-8.86,8.86,8.63,10.39,5.81,5.80,5.80
38.57,-3.02,-8.81,-3.02,-8.81,8.81,8.57,10.21,5.78,5.78,5.79
38.95,-2.99,-8.75,-3.00,-8.76,8.76,8.51,10.03,5.76,5.76,5.76
39.34,-2.97,-8.71,-2.97,-8.71,8.71,8.46,9.86,5.74,5.74,5.73
39.74,-2.94,-8.65,-2.94,-8.66,8.66,8.40,9.69,5.72,5.72,5.71
40.14,-2.91,-8.62,-2.91,-8.61,8.61,8.35,9.53,5.70,5.70,5.70
40.54,-2.89,-8.57,-2.88,-8.56,8.56,8.30,9.38,5.67,5.68,5.68
40.94,-2.85,-8.51,-2.85,-8.51,8.51,8.25,9.23,5.66,5.66,5.66
41.35,-2.82,-8.45,-2.83,-8.47,8.47,8.21,9.09,5.64,5.64,5.63
41.76,-2.79,-8.42,-2.80,-8.42,8.42,8.16,8.95,5.62,5.62,5.63
42.18,-2.76,-8.37,-2.77,-8.37,8.37,8.12,8.82,5.60,5.60,5.61
42.60,-2.74,-8.32,-2.74,-8.32,8.32,8.08,8.70,5.58,5.58,5.58
43.03,-2.71,-8.28,-2.71,-8.27,8.27,8.03,8.58,5.56,5.56,5.57
43.46,-2.68,-8.23,-2.68,-8.22,8.22,8.00,8.47,5.54,5.54,5.54
43.90,-2.65,-8.17,-2.65,-8.17,8.17,7.96,8.37,5.52,5.52,5.51
44.33,-2.62,-8.12,-2.62,-8.12,8.12,7.92,8.27,5.50,5.50,5.50
44.78,-2.60,-8.08,-2.60,-8.08,8.08,7.89,8.18,5.47,5.48,5.48
45.23,-2.57,-8.02,-2.57,-8.03,8.03,7.86,8.09,5.46,5.46,5.45
45.68,-2.54,-7.97,-2.55,-7.98,7.98,7.83,8.01,5.44,5.44,5.43
46.13,-2.51,-7.92,-2.52,-7.93,7.93,7.80,7.93,5.42,5.41,5.41
46.60,-2.49,-7.89,-2.50,-7.89,7.89,7.77,7.87,5.39,5.39,5.40
47.06,-2.47,-7.85,-2.47,-7.84,7.84,7.74,7.80,5.37,5.37,5.37
47.53,-2.44,-7.79,-2.45,-7.79,7.79,7.71,7.74,5.35,5.35,5.35
48.01,-2.42,-7.76,-2.42,-7.75,7.75,7.69,7.69,5.32,5.32,5.34
48.49,-2.40,-7.71,-2.40,-7.70,7.70,7.66,7.64,5.30,5.30,5.31
48.97,-2.38,-7.66,-2.38,-7.65,7.65,7.64,7.60,5.27,5.28,5.27
49.46,-2.36,-7.60,-2.36,-7.61,7.61,7.62,7.56,5.25,5.25,5.24
49.96,-2.34,-7.55,-2.34,-7.56,7.56,7.60,7.52,5.22,5.23,5.21
50.46,-2.31,-7.52,-2.31,-7.52,7.52,7.58,7.49,5.20,5.20,5.20
50.96,-2.29,-7.47,-2.29,-7.47,7.47,7.56,7.46,5.18,5.18,5.18
51.47,-2.27,-7.42,-2.27,-7.42,7.42,7.53,7.43,5.15,5.15,5.14
51.99,-2.25,-7.37,-2.25,-7.37,7.37,7.51,7.41,5.12,5.12,5.12
52.51,-2.23,-7.33,-2.23,-7.33,7.33,7.49,7.39,5.10,5.09,5.10
53.03,-2.21,-7.29,-2.21,-7.28,7.28,7.47,7.37,5.07,5.07,5.07
53.56,-2.19,-7.24,-2.19,-7.24,7.24,7.45,7.35,5.04,5.04,5.05
54.10,-2.17,-7.19,-2.18,-7.19,7.19,7.43,7.34,5.02,5.01,5.02
54.64,-2.16,-7.15,-2.16,-7.15,7.15,7.41,7.32,4.98,4.99,4.99
55.18,-2.14,-7.10,-2.14,-7.10,7.10,7.39,7.30,4.96,4.96,4.96
55.74,-2.12,-7.05,-2.13,-7.06,7.06,7.36,7.29,4.94,4.93,4.93
56.29,-2.11,-7.02,-2.11,-7.02,7.02,7.34,7.27,4.90,4.91,4.91
56.86,-2.09,-6.97,-2.09,-6.97,6.97,7.31,7.25,4.88,4.88,4.88
57.42,-2.08,-6.93,-2.08,-6.93,6.93,7.28,7.23,4.85,4.85,4.84
58.00,-2.06,-6.88,-2.07,-6.89,6.89,7.25,7.21,4.82,4.82,4.82
58.58,-2.05,-6.84,-2.05,-6.84,6.84,7.22,7.18,4.79,4.79,4.79
59.16,-2.03,-6.80,-2.04,-6.80,6.80,7.18,7.15,4.77,4.76,4.76
59.76,-2.03,-6.77,-2.03,-6.76,6.76,7.15,7.12,4.72,4.73,4.74
60.35,-2.01,-6.71,-2.01,-6.71,6.71,7.11,7.08,4.70,4.70,4.70
60.96,-2.00,-6.69,-2.00,-6.67,6.67,7.07,7.04,4.67,4.67,4.69
61.57,-1.99,-6.63,-1.99,-6.63,6.63,7.02,6.99,4.63,4.64,4.64
62.18,-1.97,-6.57,-1.98,-6.58,6.58,6.98,6.94,4.61,4.61,4.60
62.80,-1.96,-6.53,-1.97,-6.54,6.54,6.93,6.88,4.58,4.57,4.57
63.43,-1.95,-6.48,-1.96,-6.50,6.50,6.88,6.82,4.55,4.54,4.53
64.07,-1.95,-6.45,-1.94,-6.46,6.46,6.82,6.75,4.50,4.51,4.50
64.71,-1.93,-6.41,-1.93,-6.41,6.41,6.76,6.68,4.48,4.48,4.48
65.35,-1.92,-6.37,-1.92,-6.37,6.37,6.70,6.61,4.45,4.45,4.44
66.01,-1.91,-6.33,-1.91,-6.33,6.33,6.64,6.53,4.42,4.42,4.42
66.67,-1.90,-6.29,-1.90,-6.29,6.29,6.57,6.44,4.39,4.39,4.39
67.33,-1.89,-6.25,-1.89,-6.25,6.25,6.50,6.35,4.36,4.36,4.36
68.01,-1.88,-6.21,-1.88,-6.21,6.21,6.43,6.26,4.33,4.33,4.32
68.69,-1.87,-6.17,-1.87,-6.17,6.17,6.36,6.16,4.29,4.29,4.30
69.37,-1.86,-6.12,-1.86,-6.12,6.12,6.28,6.06,4.26,4.26,4.26
70.07,-1.85,-6.08,-1.85,-6.08,6.08,6.20,5.96,4.23,4.23,4.23
70.77,-1.84,-6.04,-1.84,-6.04,6.04,6.12,5.86,4.19,4.19,4.20
71.48,-1.83,-5.99,-1.83,-5.99,5.99,6.04,5.75,4.16,4.16,4.16
72.19,-1.82,-5.95,-1.82,-5.94,5.94,5.96,5.65,4.12,4.12,4.13
72.91,-1.80,-5.89,-1.81,-5.89,5.89,5.87,5.54,4.09,4.08,4.08
73.64,-1.80,-5.84,-1.80,-5.84,5.84,5.79,5.44,4.04,4.04,4.04
74.38,-1.79,-5.80,-1.79,-5.79,5.79,5.70,5.33,3.99,4.00,4.00
75.12,-1.77,-5.72,-1.78,-5.73,5.73,5.61,5.22,3.96,3.96,3.95
75.87,-1.76,-5.67,-1.76,-5.68,5.68,5.52,5.12,3.91,3.91,3.91
76.63,-1.75,-5.62,-1.75,-5.62,5.62,5.43,5.01,3.87,3.87,3.87
77.40,-1.74,-5.57,-1.74,-5.56,5.56,5.34,4.91,3.82,3.82,3.82
78.17,-1.73,-5.50,-1.73,-5.50,5.50,5.25,4.81,3.77,3.77,3.76
78.95,-1.71,-5.44,-1.71,-5.44,5.44,5.16,4.71,3.73,3.73,3.73
79.74,-1.70,-5.38,-1.70,-5.38,5.38,5.07,4.61,3.68,3.68,3.68
80.54,-1.69,-5.32,-1.69,-5.32,5.32,4.98,4.52,3.62,3.62,3.63
81.35,-1.68,-5.26,-1.68,-5.25,5.25,4.88,4.42,3.57,3.57,3.57
82.16,-1.66,-5.18,-1.67,-5.19,5.19,4.79,4.33,3.53,3.52,3.52
82.98,-1.65,-5.13,-1.66,-5.13,5.13,4.70,4.24,3.47,3.47,3.47
83.81,-1.64,-5.05,-1.65,-5.06,5.06,4.61,4.16,3.42,3.41,3.41
84.65,-1.64,-4.99,-1.64,-5.00,5.00,4.53,4.07,3.35,3.36,3.35
85.50,-1.63,-4.93,-1.63,-4.93,4.93,4.44,3.99,3.30,3.30,3.30
86.35,-1.62,-4.87,-1.62,-4.86,4.86,4.35,3.91,3.24,3.24,3.24
87.22,-1.62,-4.81,-1.61,-4.80,4.80,4.26,3.83,3.18,3.18,3.18
88.09,-1.60,-4.72,-1.61,-4.73,4.73,4.18,3.76,3.13,3.13,3.12
88.97,-1.59,-4.66,-1.60,-4.66,4.66,4.09,3.69,3.07,3.07,3.07
89.86,-1.59,-4.60,-1.59,-4.59,4.59,4.01,3.62,3.00,3.01,3.01
90.76,-1.58,-4.52,-1.58,-4.52,4.52,3.93,3.56,2.94,2.95,2.94
91.66,-1.57,-4.46,-1.57,-4.46,4.46,3.85,3.49,2.88,2.88,2.88
92.58,-1.56,-4.37,-1.56,-4.38,4.38,3.77,3.43,2.82,2.82,2.81
93.51,-1.55,-4.32,-1.55,-4.31,4.31,3.69,3.37,2.76,2.76,2.77
94.44,-1.54,-4.24,-1.54,-4.24,4.24,3.61,3.32,2.70,2.69,2.70
95.39,-1.53,-4.17,-1.53,-4.16,4.16,3.53,3.26,2.63,2.63,2.64
96.34,-1.52,-4.08,-1.53,-4.09,4.09,3.46,3.21,2.56,2.56,2.56
97.30,-1.52,-4.02,-1.52,-4.01,4.01,3.38,3.16,2.49,2.49,2.49
98.28,-1.50,-3.93,-1.51,-3.93,3.93,3.31,3.12,2.43,2.42,2.43
99.26,-1.50,-3.85,-1.50,-3.85,3.85,3.24,3.07,2.35,2.35,2.35
100.25,-1.49,-3.78,-1.49,-3.77,3.77,3.17,3.03,2.28,2.28,2.28
101.25,-1.48,-3.70,-1.48,-3.70,3.70,3.10,2.99,2.21,2.21,2.22
102.27,-1.47,-3.61,-1.47,-3.61,3.61,3.03,2.95,2.14,2.14,2.14
103.29,-1.46,-3.52,-1.46,-3.53,3.53,2.96,2.91,2.07,2.07,2.06
104.32,-1.45,-3.45,-1.46,-3.45,3.45,2.90,2.87,2.00,1.99,1.99
105.37,-1.44,-3.37,-1.45,-3.37,3.37,2.83,2.83,1.92,1.92,1.93
106.42,-1.44,-3.29,-1.44,-3.28,3.28,2.77,2.80,1.84,1.84,1.85
107.48,-1.43,-3.20,-1.43,-3.20,3.20,2.71,2.77,1.77,1.77,1.77
108.56,-1.42,-3.11,-1.42,-3.11,3.11,2.65,2.73,1.69,1.69,1.69
109.64,-1.41,-3.03,-1.41,-3.03,3.03,2.59,2.70,1.61,1.61,1.61
110.74,-1.40,-2.95,-1.40,-2.94,2.94,2.53,2.67,1.54,1.54,1.55
111.85,-1.39,-2.86,-1.39,-2.85,2.85,2.47,2.64,1.46,1.46,1.47
112.97,-1.38,-2.76,-1.38,-2.76,2.76,2.41,2.61,1.38,1.38,1.37
114.10,-1.37,-2.68,-1.37,-2.68,2.68,2.36,2.58,1.31,1.31,1.31
115.24,-1.36,-2.59,-1.36,-2.59,2.59,2.30,2.54,1.23,1.23,1.23
116.39,-1.35,-2.50,-1.35,-2.51,2.51,2.25,2.51,1.15,1.15,1.14
117.55,-1.34,-2.41,-1.34,-2.42,2.42,2.20,2.48,1.08,1.08,1.07
118.73,-1.33,-2.33,-1.33,-2.34,2.34,2.14,2.45,1.00,1.00,0.99
119.92,-1.32,-2.25,-1.32,-2.25,2.25,2.09,2.41,0.93,0.93,0.93
121.12,-1.31,-2.17,-1.32,-2.17,2.17,2.04,2.38,0.86,0.86,0.86
122.33,-1.31,-2.09,-1.31,-2.09,2.09,1.99,2.34,0.78,0.78,0.78
123.55,-1.30,-2.02,-1.30,-2.01,2.01,1.94,2.31,0.71,0.71,0.72
124.79,-1.29,-1.94,-1.29,-1.93,1.93,1.89,2.27,0.64,0.64,0.65
126.03,-1.28,-1.87,-1.28,-1.86,1.86,1.85,2.23,0.58,0.58,0.59
127.29,-1.27,-1.79,-1.28,-1.78,1.78,1.80,2.19,0.51,0.51,0.52
128.57,-1.27,-1.71,-1.27,-1.71,1.71,1.75,2.15,0.44,0.44,0.44
129.85,-1.25,-1.63,-1.26,-1.64,1.64,1.71,2.11,0.39,0.38,0.38
131.15,-1.25,-1.57,-1.25,-1.57,1.57,1.66,2.07,0.32,0.32,0.32
132.46,-1.24,-1.49,-1.25,-1.51,1.51,1.62,2.02,0.26,0.26,0.25
133.79,-1.24,-1.45,-1.24,-1.44,1.44,1.57,1.98,0.20,0.20,0.20
135.12,-1.23,-1.37,-1.23,-1.38,1.38,1.53,1.93,0.15,0.15,0.14
136.48,-1.23,-1.33,-1.22,-1.32,1.32,1.48,1.89,0.09,0.09,0.09
137.84,-1.22,-1.27,-1.22,-1.26,1.26,1.44,1.84,0.04,0.04,0.05
139.22,-1.21,-1.20,-1.21,-1.21,1.21,1.40,1.79,-0.01,-0.00,-0.01
140.61,-1.20,-1.14,-1.20,-1.15,1.15,1.36,1.74,-0.05,-0.05,-0.07
142.02,-1.19,-1.11,-1.19,-1.10,1.10,1.31,1.69,-0.09,-0.09,-0.09
143.44,-1.19,-1.07,-1.19,-1.05,1.05,1.27,1.64,-0.14,-0.13,-0.13
144.87,-1.18,-1.01,-1.18,-1.01,1.01,1.23,1.59,-0.17,-0.17,-0.18
146.32,-1.17,-0.96,-1.17,-0.96,0.96,1.19,1.54,-0.21,-0.21,-0.21
147.78,-1.16,-0.92,-1.17,-0.92,0.92,1.15,1.49,-0.25,-0.25,-0.24
149.26,-1.15,-0.87,-1.16,-0.87,0.87,1.10,1.44,-0.28,-0.29,-0.28
150.75,-1.15,-0.83,-1.15,-0.83,0.83,1.06,1.39,-0.32,-0.32,-0.32
152.26,-1.15,-0.79,-1.15,-0.79,0.79,1.02,1.34,-0.36,-0.36,-0.36
153.78,-1.14,-0.75,-1.15,-0.75,0.75,0.98,1.28,-0.39,-0.39,-0.39
155.32,-1.14,-0.72,-1.14,-0.72,0.72,0.93,1.23,-0.43,-0.43,-0.42
156.88,-1.14,-0.69,-1.14,-0.68,0.68,0.89,1.18,-0.46,-0.46,-0.46
158.44,-1.14,-0.65,-1.14,-0.64,0.64,0.85,1.13,-0.50,-0.50,-0.50
160.03,-1.13,-0.60,-1.14,-0.61,0.61,0.80,1.08,-0.52,-0.53,-0.54
161.63,-1.14,-0.57,-1.14,-0.58,0.58,0.76,1.03,-0.57,-0.56,-0.57
163.24,-1.14,-0.54,-1.14,-0.54,0.54,0.72,0.98,-0.60,-0.60,-0.60
164.88,-1.13,-0.50,-1.14,-0.50,0.50,0.67,0.93,-0.63,-0.63,-0.63
166.53,-1.14,-0.48,-1.14,-0.47,0.47,0.62,0.88,-0.67,-0.67,-0.66
168.19,-1.14,-0.43,-1.14,-0.43,0.43,0.58,0.83,-0.71,-0.71,-0.71
169.87,-1.14,-0.40,-1.14,-0.39,0.39,0.53,0.78,-0.75,-0.74,-0.74
171.57,-1.13,-0.36,-1.13,-0.35,0.35,0.48,0.73,-0.78,-0.78,-0.78
173.29,-1.14,-0.33,-1.13,-0.31,0.31,0.44,0.68,-0.83,-0.82,-0.81
175.02,-1.13,-0.28,-1.13,-0.27,0.27,0.39,0.63,-0.86,-0.86,-0.85
176.77,-1.13,-0.23,-1.13,-0.23,0.23,0.34,0.58,-0.90,-0.90,-0.90
178.54,-1.12,-0.18,-1.13,-0.19,0.19,0.29,0.54,-0.93,-0.94,-0.94
180.32,-1.12,-0.14,-1.13,-0.15,0.15,0.24,0.49,-0.97,-0.98,-0.98
182.13,-1.12,-0.11,-1.13,-0.11,0.11,0.19,0.44,-1.01,-1.02,-1.02
183.95,-1.13,-0.07,-1.13,-0.07,0.07,0.13,0.39,-1.06,-1.06,-1.06
185.79,-1.12,-0.02,-1.13,-0.03,0.03,0.08,0.35,-1.09,-1.10,-1.10
187.65,-1.12,0.02,-1.13,0.01,-0.01,0.03,0.30,-1.13,-1.13,-1.14
189.52,-1.14,0.04,-1.13,0.04,-0.04,-0.02,0.25,-1.18,-1.17,-1.18
191.42,-1.13,0.08,-1.13,0.07,-0.07,-0.07,0.21,-1.21,-1.21,-1.21
193.33,-1.13,0.10,-1.14,0.10,-0.10,-0.11,0.16,-1.24,-1.24,-1.24
195.27,-1.14,0.13,-1.14,0.13,-0.13,-0.16,0.12,-1.28,-1.28,-1.27
197.22,-1.15,0.15,-1.15,0.16,-0.16,-0.20,0.07,-1.31,-1.31,-1.30
199.19,-1.15,0.20,-1.15,0.18,-0.18,-0.25,0.03,-1.33,-1.34,-1.35
201.18,-1.15,0.22,-1.16,0.20,-0.20,-0.28,-0.02,-1.36,-1.37,-1.37
203.19,-1.17,0.22,-1.17,0.22,-0.22,-0.32,-0.06,-1.40,-1.39,-1.39
205.23,-1.17,0.25,-1.17,0.24,-0.24,-0.35,-0.10,-1.42,-1.42,-1.42
207.28,-1.18,0.25,-1.18,0.26,-0.26,-0.38,-0.14,-1.44,-1.44,-1.43
209.35,-1.19,0.27,-1.19,0.28,-0.28,-0.40,-0.18,-1.47,-1.47,-1.47
211.44,-1.19,0.30,-1.19,0.29,-0.29,-0.41,-0.22,-1.48,-1.49,-1.49
213.56,-1.20,0.31,-1.20,0.30,-0.30,-0.43,-0.26,-1.51,-1.51,-1.51
215.69,-1.21,0.30,-1.21,0.31,-0.31,-0.43,-0.30,-1.53,-1.52,-1.52
217.85,-1.22,0.31,-1.21,0.32,-0.32,-0.44,-0.33,-1.55,-1.54,-1.53
220.03,-1.22,0.33,-1.22,0.33,-0.33,-0.43,-0.36,-1.55,-1.55,-1.56
222.23,-1.22,0.35,-1.22,0.33,-0.33,-0.43,-0.40,-1.56,-1.56,-1.57
224.45,-1.22,0.34,-1.23,0.34,-0.34,-0.42,-0.43,-1.56,-1.57,-1.56
226.70,-1.23,0.35,-1.23,0.34,-0.34,-0.40,-0.45,-1.57,-1.57,-1.58
228.96,-1.23,0.35,-1.24,0.34,-0.34,-0.38,-0.48,-1.57,-1.58,-1.58
231.25,-1.24,0.33,-1.24,0.34,-0.34,-0.36,-0.50,-1.58,-1.58,-1.57
233.57,-1.24,0.32,-1.24,0.33,-0.33,-0.34,-0.53,-1.58,-1.57,-1.57
235.90,-1.24,0.33,-1.24,0.33,-0.33,-0.31,-0.54,-1.57,-1.57,-1.57
238.26,-1.24,0.33,-1.24,0.32,-0.32,-0.29,-0.56,-1.56,-1.56,-1.57
240.64,-1.24,0.31,-1.24,0.31,-0.31,-0.26,-0.57,-1.55,-1.55,-1.55
243.05,-1.23,0.31,-1.24,0.30,-0.30,-0.23,-0.58,-1.53,-1.54,-1.54
245.48,-1.24,0.28,-1.24,0.28,-0.28,-0.21,-0.59,-1.53,-1.52,-1.52
247.93,-1.24,0.27,-1.24,0.27,-0.27,-0.18,-0.60,-1.51,-1.51,-1.51
250.41,-1.23,0.27,-1.24,0.26,-0.26,-0.15,-0.60,-1.49,-1.49,-1.50
252.92,-1.23,0.24,-1.23,0.24,-0.24,-0.12,-0.60,-1.47,-1.47,-1.47
255.45,-1.23,0.22,-1.23,0.22,-0.22,-0.09,-0.59,-1.46,-1.45,-1.45
258.00,-1.22,0.20,-1.23,0.21,-0.21,-0.07,-0.58,-1.43,-1.43,-1.43
260.58,-1.22,0.19,-1.22,0.19,-0.19,-0.04,-0.57,-1.41,-1.41,-1.41
263.19,-1.22,0.17,-1.22,0.17,-0.17,-0.02,-0.56,-1.39,-1.39,-1.39
265.82,-1.21,0.16,-1.22,0.15,-0.15,0.01,-0.54,-1.36,-1.37,-1.37
268.48,-1.21,0.14,-1.21,0.13,-0.13,0.03,-0.52,-1.35,-1.35,-1.35
271.16,-1.20,0.11,-1.21,0.12,-0.12,0.05,-0.50,-1.32,-1.32,-1.31
273.87,-1.21,0.09,-1.20,0.10,-0.10,0.07,-0.48,-1.31,-1.30,-1.30
276.61,-1.20,0.07,-1.20,0.08,-0.08,0.09,-0.45,-1.28,-1.28,-1.27
279.38,-1.19,0.06,-1.19,0.06,-0.06,0.11,-0.42,-1.25,-1.25,-1.25
282.17,-1.19,0.04,-1.19,0.04,-0.04,0.13,-0.39,-1.23,-1.23,-1.23
284.99,-1.19,0.01,-1.19,0.02,-0.02,0.15,-0.36,-1.21,-1.20,-1.21
287.84,-1.18,-0.00,-1.18,-0.01,0.01,0.17,-0.33,-1.18,-1.18,-1.18
290.72,-1.17,-0.03,-1.18,-0.03,0.03,0.19,-0.29,-1.14,-1.15,-1.15
293.63,-1.17,-0.04,-1.18,-0.05,0.05,0.20,-0.25,-1.12,-1.12,-1.13
296.57,-1.17,-0.08,-1.17,-0.08,0.08,0.22,-0.21,-1.09,-1.09,-1.10
299.53,-1.17,-0.10,-1.17,-0.11,0.11,0.24,-0.17,-1.07,-1.07,-1.07
302.53,-1.17,-0.13,-1.17,-0.14,0.14,0.25,-0.13,-1.04,-1.04,-1.05
305.55,-1.17,-0.17,-1.17,-0.17,0.17,0.27,-0.09,-1.01,-1.00,-1.00
308.61,-1.17,-0.20,-1.17,-0.20,0.20,0.28,-0.05,-0.98,-0.97,-0.98
311.69,-1.17,-0.23,-1.17,-0.23,0.23,0.30,-0.00,-0.94,-0.94,-0.94
314.81,-1.17,-0.27,-1.17,-0.26,0.26,0.31,0.04,-0.91,-0.91,-0.90
317.96,-1.17,-0.30,-1.17,-0.29,0.29,0.32,0.09,-0.88,-0.88,-0.88
321.14,-1.17,-0.32,-1.18,-0.33,0.33,0.34,0.13,-0.85,-0.85,-0.85
324.35,-1.18,-0.36,-1.18,-0.36,0.36,0.35,0.18,-0.82,-0.82,-0.82
327.59,-1.18,-0.39,-1.18,-0.39,0.39,0.36,0.22,-0.79,-0.79,-0.79
330.87,-1.19,-0.43,-1.19,-0.42,0.42,0.38,0.27,-0.77,-0.77,-0.76
334.18,-1.19,-0.45,-1.19,-0.45,0.45,0.39,0.32,-0.74,-0.74,-0.74
337.52,-1.19,-0.47,-1.20,-0.48,0.48,0.40,0.37,-0.71,-0.72,-0.72
340.90,-1.20,-0.51,-1.20,-0.51,0.51,0.42,0.42,-0.69,-0.69,-0.69
344.30,-1.21,-0.54,-1.21,-0.54,0.54,0.43,0.47,-0.68,-0.67,-0.67
347.75,-1.21,-0.57,-1.22,-0.56,0.56,0.44,0.52,-0.65,-0.65,-0.65
351.23,-1.21,-0.58,-1.22,-0.59,0.59,0.46,0.57,-0.62,-0.63,-0.63
354.74,-1.22,-0.61,-1.23,-0.61,0.61,0.47,0.62,-0.61,-0.61,-0.61
358.28,-1.23,-0.64,-1.23,-0.64,0.64,0.48,0.67,-0.59,-0.59,-0.59
361.87,-1.23,-0.66,-1.23,-0.66,0.66,0.50,0.72,-0.57,-0.57,-0.58
365.49,-1.24,-0.69,-1.23,-0.68,0.68,0.51,0.77,-0.56,-0.55,-0.55
369.14,-1.24,-0.70,-1.23,-0.70,0.70,0.53,0.82,-0.54,-0.54,-0.54
372.83,-1.24,-0.72,-1.23,-0.72,0.72,0.54,0.87,-0.52,-0.52,-0.52
376.56,-1.23,-0.73,-1.23,-0.74,0.74,0.56,0.93,-0.50,-0.50,-0.50
380.33,-1.23,-0.76,-1.23,-0.75,0.75,0.57,0.98,-0.48,-0.48,-0.48
384.13,-1.22,-0.76,-1.22,-0.77,0.77,0.59,1.03,-0.46,-0.46,-0.46
387.97,-1.22,-0.78,-1.22,-0.78,0.78,0.61,1.09,-0.44,-0.44,-0.44
391.85,-1.21,-0.79,-1.21,-0.79,0.79,0.62,1.14,-0.42,-0.42,-0.42
395.77,-1.20,-0.81,-1.20,-0.80,0.80,0.64,1.19,-0.40,-0.40,-0.39
399.73,-1.19,-0.82,-1.19,-0.82,0.82,0.66,1.25,-0.38,-0.38,-0.37
403.72,-1.18,-0.83,-1.18,-0.83,0.83,0.68,1.30,-0.35,-0.36,-0.36
407.76,-1.18,-0.84,-1.17,-0.84,0.84,0.70,1.35,-0.34,-0.33,-0.34
411.84,-1.17,-0.86,-1.16,-0.85,0.85,0.72,1.41,-0.32,-0.31,-0.31
415.96,-1.15,-0.86,-1.15,-0.86,0.86,0.74,1.46,-0.29,-0.29,-0.29
420.12,-1.14,-0.87,-1.15,-0.88,0.88,0.76,1.51,-0.27,-0.27,-0.27
424.32,-1.13,-0.89,-1.14,-0.89,0.89,0.78,1.56,-0.24,-0.25,-0.24
428.56,-1.13,-0.91,-1.13,-0.91,0.91,0.81,1.61,-0.22,-0.22,-0.22
432.85,-1.12,-0.92,-1.13,-0.93,0.93,0.83,1.66,-0.19,-0.20,-0.21
437.18,-1.12,-0.95,-1.13,-0.95,0.95,0.86,1.71,-0.17,-0.18,-0.18
441.55,-1.12,-0.98,-1.13,-0.98,0.98,0.88,1.76,-0.15,-0.15,-0.15
445.96,-1.12,-0.99,-1.13,-1.01,1.01,0.91,1.80,-0.12,-0.13,-0.13
450.42,-1.13,-1.02,-1.14,-1.04,1.04,0.94,1.85,-0.10,-0.10,-0.11
454.93,-1.14,-1.07,-1.14,-1.07,1.07,0.97,1.89,-0.07,-0.07,-0.07
459.48,-1.15,-1.10,-1.16,-1.11,1.11,1.00,1.93,-0.04,-0.05,-0.05
464.07,-1.16,-1.14,-1.17,-1.15,1.15,1.03,1.97,-0.01,-0.02,-0.02
468.71,-1.18,-1.20,-1.18,-1.19,1.19,1.06,2.00,0.01,0.01,0.02
