frequency,raw,error,smoothed,error_smoothed,equalization,parametric_eq,fixed_band_eq,equalized_raw,equalized_smoothed,target
20.00,13.52,2.53,13.42,2.40,-2.40,-2.49,-1.29,11.12,11.02,10.99
20.20,13.54,2.50,13.49,2.44,-2.44,-2.51,-1.33,11.10,11.06,11.04
20.40,13.57,2.48,13.56,2.47,-2.47,-2.52,-1.37,11.10,11.09,11.09
20.61,13.59,2.47,13.62,2.50,-2.50,-2.54,-1.41,11.09,11.12,11.12
20.81,13.62,2.45,13.68,2.53,-2.53,-2.55,-1.46,11.09,11.15,11.17
21.02,13.65,2.44,13.73,2.56,-2.56,-2.57,-1.50,11.09,11.18,11.21
21.23,13.72,2.49,13.79,2.58,-2.58,-2.58,-1.54,11.14,11.20,11.23
21.44,13.78,2.53,13.83,2.61,-2.61,-2.60,-1.59,11.17,11.23,11.25
21.66,13.85,2.58,13.88,2.63,-2.63,-2.61,-1.64,11.22,11.25,11.26
21.87,13.92,2.65,13.92,2.65,-2.65,-2.63,-1.69,11.27,11.26,11.27
22.09,13.97,2.68,13.95,2.67,-2.67,-2.64,-1.74,11.30,11.28,11.29
22.31,14.00,2.70,13.99,2.69,-2.69,-2.65,-1.79,11.31,11.29,11.30
22.54,14.04,2.74,14.03,2.73,-2.73,-2.67,-1.84,11.31,11.30,11.30
22.76,14.07,2.77,14.05,2.75,-2.75,-2.68,-1.90,11.32,11.30,11.30
22.99,14.10,2.81,14.08,2.77,-2.77,-2.70,-1.95,11.33,11.30,11.29
23.22,14.11,2.82,14.09,2.78,-2.78,-2.71,-2.01,11.32,11.30,11.29
23.45,14.13,2.84,14.10,2.79,-2.79,-2.72,-2.07,11.34,11.30,11.29
23.69,14.14,2.84,14.10,2.80,-2.80,-2.74,-2.13,11.34,11.31,11.30
23.92,14.16,2.86,14.11,2.80,-2.80,-2.75,-2.19,11.36,11.31,11.30
24.16,14.14,2.83,14.11,2.81,-2.81,-2.76,-2.25,11.33,11.30,11.31
24.40,14.10,2.78,14.12,2.82,-2.82,-2.78,-2.31,11.28,11.30,11.32
24.65,14.06,2.75,14.13,2.82,-2.82,-2.79,-2.37,11.23,11.30,11.30
24.89,14.03,2.73,14.14,2.83,-2.83,-2.80,-2.44,11.20,11.30,11.30
25.14,14.05,2.75,14.15,2.84,-2.84,-2.82,-2.50,11.21,11.30,11.30
25.39,14.11,2.80,14.16,2.85,-2.85,-2.83,-2.57,11.26,11.31,11.31
25.65,14.17,2.86,14.17,2.86,-2.86,-2.84,-2.63,11.30,11.31,11.31
25.91,14.24,2.94,14.19,2.88,-2.88,-2.86,-2.70,11.36,11.31,11.30
26.16,14.26,2.96,14.20,2.89,-2.89,-2.87,-2.77,11.37,11.30,11.30
26.43,14.26,2.96,14.21,2.91,-2.91,-2.88,-2.83,11.35,11.30,11.30
26.69,14.26,2.96,14.22,2.92,-2.92,-2.89,-2.90,11.34,11.30,11.30
26.96,14.26,2.95,14.23,2.93,-2.93,-2.91,-2.96,11.33,11.30,11.30
27.23,14.26,2.96,14.24,2.94,-2.94,-2.92,-3.02,11.32,11.29,11.30
27.50,14.26,2.96,14.25,2.95,-2.95,-2.93,-3.08,11.30,11.29,11.30
27.77,14.26,2.97,14.26,2.96,-2.96,-2.94,-3.14,11.30,11.29,11.29
28.05,14.26,2.97,14.26,2.97,-2.97,-2.96,-3.20,11.29,11.29,11.29
28.33,14.23,2.95,14.26,2.97,-2.97,-2.97,-3.26,11.26,11.29,11.28
28.62,14.21,2.93,14.26,2.98,-2.98,-2.98,-3.31,11.23,11.29,11.28
28.90,14.19,2.91,14.27,2.98,-2.98,-2.99,-3.36,11.21,11.28,11.28
29.19,14.22,2.95,14.28,3.00,-3.00,-3.00,-3.41,11.22,11.28,11.27
29.48,14.27,2.98,14.29,3.01,-3.01,-3.02,-3.45,11.26,11.28,11.29
29.78,14.33,3.05,14.30,3.02,-3.02,-3.03,-3.49,11.31,11.28,11.28
30.08,14.37,3.08,14.30,3.03,-3.03,-3.04,-3.53,11.34,11.28,11.29
30.38,14.37,3.10,14.31,3.03,-3.03,-3.05,-3.56,11.33,11.27,11.27
30.68,14.37,3.10,14.32,3.05,-3.05,-3.06,-3.59,11.32,11.27,11.27
30.99,14.37,3.10,14.34,3.07,-3.07,-3.07,-3.61,11.30,11.27,11.27
31.30,14.37,3.10,14.36,3.10,-3.10,-3.09,-3.63,11.27,11.27,11.27
31.61,14.37,3.10,14.39,3.13,-3.13,-3.10,-3.64,11.24,11.26,11.26
31.93,14.37,3.11,14.41,3.15,-3.15,-3.11,-3.65,11.22,11.26,11.26
32.24,14.37,3.12,14.43,3.17,-3.17,-3.12,-3.66,11.19,11.26,11.25
32.57,14.37,3.11,14.44,3.19,-3.19,-3.13,-3.66,11.18,11.25,11.26
32.89,14.37,3.12,14.45,3.21,-3.21,-3.14,-3.66,11.16,11.25,11.25
33.22,14.43,3.19,14.46,3.22,-3.22,-3.16,-3.66,11.21,11.24,11.24
33.55,14.53,3.29,14.47,3.24,-3.24,-3.17,-3.65,11.29,11.24,11.24
33.89,14.62,3.39,14.48,3.25,-3.25,-3.18,-3.64,11.37,11.23,11.22
34.23,14.61,3.38,14.49,3.27,-3.27,-3.19,-3.62,11.34,11.23,11.23
34.57,14.55,3.33,14.50,3.28,-3.28,-3.20,-3.60,11.27,11.22,11.22
34.92,14.48,3.27,14.50,3.29,-3.29,-3.21,-3.58,11.19,11.22,11.21
35.27,14.47,3.26,14.51,3.30,-3.30,-3.22,-3.56,11.17,11.21,11.21
35.62,14.47,3.26,14.51,3.30,-3.30,-3.24,-3.54,11.17,11.21,11.21
35.97,14.47,3.27,14.51,3.31,-3.31,-3.25,-3.52,11.16,11.21,11.20
36.33,14.47,3.26,14.50,3.30,-3.30,-3.26,-3.49,11.17,11.20,11.21
36.70,14.47,3.28,14.49,3.29,-3.29,-3.27,-3.46,11.18,11.20,11.19
37.06,14.47,3.28,14.47,3.27,-3.27,-3.28,-3.44,11.20,11.20,11.19
37.43,14.47,3.27,14.44,3.24,-3.24,-3.29,-3.41,11.23,11.20,11.20
37.81,14.47,3.27,14.42,3.23,-3.23,-3.30,-3.38,11.24,11.20,11.20
38.19,14.47,3.28,14.42,3.23,-3.23,-3.31,-3.36,11.24,11.20,11.19
38.57,14.46,3.26,14.43,3.23,-3.23,-3.33,-3.33,11.23,11.20,11.20
38.95,14.45,3.25,14.44,3.24,-3.24,-3.34,-3.31,11.21,11.20,11.20
39.34,14.42,3.22,14.44,3.25,-3.25,-3.35,-3.29,11.17,11.20,11.20
39.74,14.39,3.20,14.44,3.25,-3.25,-3.36,-3.26,11.14,11.19,11.19
40.14,14.37,3.17,14.45,3.26,-3.26,-3.37,-3.24,11.11,11.19,11.19
40.54,14.37,3.18,14.45,3.26,-3.26,-3.38,-3.23,11.11,11.19,11.19
40.94,14.37,3.19,14.46,3.27,-3.27,-3.40,-3.21,11.10,11.18,11.18
41.35,14.47,3.30,14.46,3.28,-3.28,-3.41,-3.19,11.19,11.18,11.17
41.76,14.58,3.41,14.47,3.30,-3.30,-3.42,-3.18,11.28,11.17,11.17
42.18,14.62,3.45,14.47,3.31,-3.31,-3.43,-3.17,11.31,11.16,11.17
42.60,14.54,3.39,14.48,3.33,-3.33,-3.44,-3.16,11.21,11.15,11.15
43.03,14.47,3.33,14.48,3.35,-3.35,-3.46,-3.15,11.12,11.13,11.14
43.46,14.47,3.33,14.49,3.37,-3.37,-3.47,-3.15,11.10,11.12,11.14
43.90,14.47,3.36,14.49,3.39,-3.39,-3.48,-3.14,11.08,11.11,11.11
44.33,14.47,3.38,14.50,3.40,-3.40,-3.49,-3.14,11.07,11.09,11.09
44.78,14.47,3.40,14.49,3.41,-3.41,-3.50,-3.15,11.05,11.08,11.07
45.23,14.47,3.41,14.49,3.42,-3.42,-3.52,-3.15,11.04,11.06,11.06
45.68,14.47,3.43,14.48,3.43,-3.43,-3.53,-3.16,11.04,11.05,11.04
46.13,14.47,3.45,14.47,3.44,-3.44,-3.54,-3.17,11.03,11.03,11.02
46.60,14.47,3.45,14.46,3.44,-3.44,-3.56,-3.18,11.02,11.02,11.02
47.06,14.47,3.47,14.47,3.47,-3.47,-3.57,-3.19,11.00,11.00,11.00
47.53,14.47,3.48,14.48,3.50,-3.50,-3.58,-3.20,10.97,10.98,10.98
48.01,14.47,3.49,14.49,3.52,-3.52,-3.60,-3.22,10.95,10.96,10.98
48.49,14.47,3.51,14.48,3.53,-3.53,-3.61,-3.24,10.94,10.95,10.96
48.97,14.47,3.53,14.47,3.53,-3.53,-3.62,-3.26,10.94,10.93,10.94
49.46,14.47,3.56,14.45,3.53,-3.53,-3.64,-3.29,10.94,10.92,10.91
49.96,14.47,3.58,14.43,3.53,-3.53,-3.65,-3.31,10.94,10.90,10.89
50.46,14.47,3.58,14.41,3.52,-3.52,-3.67,-3.34,10.94,10.89,10.89
50.96,14.47,3.60,14.40,3.53,-3.53,-3.68,-3.37,10.93,10.87,10.87
51.47,14.47,3.62,14.40,3.55,-3.55,-3.69,-3.40,10.92,10.86,10.84
51.99,14.47,3.64,14.40,3.56,-3.56,-3.71,-3.43,10.91,10.84,10.83
52.51,14.32,3.50,14.40,3.58,-3.58,-3.72,-3.46,10.74,10.82,10.82
53.03,14.18,3.36,14.40,3.60,-3.60,-3.74,-3.50,10.58,10.81,10.82
53.56,14.28,3.48,14.40,3.61,-3.61,-3.76,-3.53,10.67,10.79,10.80
54.10,14.37,3.59,14.41,3.63,-3.63,-3.77,-3.57,10.74,10.78,10.78
54.64,14.37,3.61,14.41,3.65,-3.65,-3.79,-3.60,10.72,10.77,10.76
55.18,14.43,3.68,14.43,3.68,-3.68,-3.80,-3.64,10.75,10.75,10.75
55.74,14.61,3.88,14.45,3.71,-3.71,-3.82,-3.67,10.90,10.74,10.73
56.29,14.63,3.91,14.47,3.75,-3.75,-3.84,-3.71,10.88,10.72,10.72
56.86,14.50,3.80,14.49,3.79,-3.79,-3.86,-3.75,10.72,10.70,10.70
57.42,14.47,3.80,14.51,3.83,-3.83,-3.87,-3.78,10.64,10.68,10.67
58.00,14.47,3.82,14.53,3.87,-3.87,-3.89,-3.82,10.60,10.66,10.65
58.58,14.47,3.83,14.53,3.90,-3.90,-3.91,-3.85,10.57,10.63,10.64
59.16,14.49,3.87,14.52,3.92,-3.92,-3.93,-3.89,10.57,10.60,10.62
59.76,14.55,3.96,14.50,3.93,-3.93,-3.95,-3.92,10.62,10.57,10.59
60.35,14.57,4.02,14.47,3.93,-3.93,-3.97,-3.95,10.64,10.53,10.54
60.96,14.54,4.03,14.43,3.94,-3.94,-3.99,-3.98,10.60,10.50,10.51
61.57,14.44,3.98,14.39,3.94,-3.94,-4.01,-4.01,10.50,10.46,10.46
62.18,14.37,3.96,14.36,3.94,-3.94,-4.03,-4.04,10.43,10.41,10.41
62.80,14.37,4.01,14.35,3.98,-3.98,-4.05,-4.06,10.39,10.37,10.36
63.43,14.28,3.97,14.35,4.03,-4.03,-4.07,-4.09,10.25,10.32,10.31
64.07,14.16,3.90,14.34,4.07,-4.07,-4.09,-4.11,10.09,10.27,10.26
64.71,14.16,3.95,14.31,4.09,-4.09,-4.11,-4.13,10.07,10.22,10.21
65.35,14.20,4.03,14.28,4.11,-4.11,-4.14,-4.16,10.09,10.17,10.17
66.01,14.26,4.15,14.24,4.12,-4.12,-4.16,-4.18,10.14,10.11,10.11
66.67,14.26,4.20,14.21,4.15,-4.15,-4.19,-4.20,10.11,10.06,10.06
67.33,14.26,4.26,14.21,4.21,-4.21,-4.21,-4.22,10.05,10.01,10.00
68.01,14.26,4.30,14.21,4.26,-4.26,-4.24,-4.23,10.00,9.95,9.96
68.69,14.42,4.52,14.20,4.30,-4.30,-4.26,-4.25,10.12,9.90,9.90
69.37,14.34,4.50,14.18,4.34,-4.34,-4.29,-4.27,10.00,9.84,9.84
70.07,14.08,4.30,14.15,4.37,-4.37,-4.31,-4.29,9.71,9.78,9.78
70.77,13.91,4.18,14.13,4.41,-4.41,-4.34,-4.31,9.50,9.72,9.73
71.48,13.95,4.28,14.09,4.43,-4.43,-4.37,-4.33,9.52,9.66,9.67
72.19,14.07,4.47,14.05,4.45,-4.45,-4.40,-4.35,9.62,9.60,9.60
72.91,14.11,4.57,14.02,4.48,-4.48,-4.43,-4.37,9.63,9.53,9.53
73.64,14.23,4.76,13.99,4.52,-4.52,-4.46,-4.40,9.71,9.47,9.47
74.38,14.07,4.66,13.96,4.55,-4.55,-4.49,-4.42,9.51,9.41,9.41
75.12,13.71,4.37,13.94,4.59,-4.59,-4.52,-4.45,9.12,9.34,9.34
75.87,13.74,4.47,13.91,4.63,-4.63,-4.56,-4.48,9.11,9.28,9.27
76.63,13.82,4.61,13.90,4.68,-4.68,-4.59,-4.51,9.14,9.22,9.21
77.40,13.86,4.70,13.90,4.74,-4.74,-4.62,-4.55,9.12,9.16,9.16
78.17,13.86,4.77,13.90,4.80,-4.80,-4.66,-4.58,9.06,9.10,9.09
78.95,13.86,4.82,13.88,4.84,-4.84,-4.70,-4.62,9.02,9.04,9.04
79.74,14.02,5.04,13.84,4.86,-4.86,-4.73,-4.67,9.16,8.98,8.98
80.54,13.97,5.04,13.81,4.88,-4.88,-4.77,-4.71,9.09,8.93,8.93
81.35,13.84,4.97,13.78,4.91,-4.91,-4.81,-4.76,8.93,8.87,8.87
82.16,13.76,4.95,13.76,4.95,-4.95,-4.85,-4.81,8.81,8.81,8.81
82.98,13.76,4.99,13.76,5.00,-5.00,-4.89,-4.87,8.76,8.76,8.77
83.81,13.76,5.06,13.75,5.05,-5.05,-4.93,-4.93,8.71,8.70,8.70
84.65,13.76,5.12,13.73,5.08,-5.08,-4.98,-4.99,8.68,8.64,8.64
85.50,13.62,5.03,13.70,5.11,-5.11,-5.02,-5.06,8.51,8.59,8.59
86.35,13.50,4.96,13.66,5.14,-5.14,-5.07,-5.13,8.36,8.53,8.53
87.22,13.56,5.08,13.64,5.17,-5.17,-5.11,-5.20,8.39,8.47,8.48
88.09,13.66,5.24,13.63,5.22,-5.22,-5.16,-5.28,8.44,8.41,8.41
88.97,13.66,5.31,13.62,5.27,-5.27,-5.21,-5.36,8.39,8.35,8.35
89.86,13.67,5.38,13.63,5.34,-5.34,-5.26,-5.45,8.33,8.29,8.29
90.76,13.67,5.44,13.64,5.41,-5.41,-5.31,-5.54,8.26,8.23,8.23
91.66,13.67,5.49,13.66,5.49,-5.49,-5.36,-5.63,8.18,8.17,8.18
92.58,13.67,5.57,13.69,5.57,-5.57,-5.42,-5.73,8.10,8.11,8.10
93.51,13.67,5.62,13.72,5.67,-5.67,-5.47,-5.83,8.00,8.05,8.05
94.44,13.67,5.68,13.77,5.78,-5.78,-5.53,-5.94,7.89,7.99,7.99
95.39,13.72,5.78,13.80,5.86,-5.86,-5.59,-6.04,7.86,7.93,7.94
96.34,13.87,6.00,13.79,5.92,-5.92,-5.64,-6.16,7.95,7.88,7.87
97.30,13.94,6.12,13.79,5.98,-5.98,-5.70,-6.27,7.96,7.82,7.82
98.28,13.78,6.02,13.80,6.04,-6.04,-5.77,-6.39,7.74,7.76,7.76
99.26,13.77,6.07,13.82,6.12,-6.12,-5.83,-6.51,7.65,7.70,7.70
100.25,13.90,6.25,13.80,6.16,-6.16,-5.89,-6.64,7.74,7.64,7.65
101.25,14.02,6.43,13.77,6.19,-6.19,-5.96,-6.77,7.83,7.59,7.59
102.27,13.86,6.33,13.76,6.23,-6.23,-6.03,-6.89,7.63,7.53,7.53
103.29,13.80,6.34,13.75,6.28,-6.28,-6.09,-7.03,7.52,7.47,7.46
104.32,13.63,6.21,13.73,6.32,-6.32,-6.16,-7.16,7.31,7.41,7.42
105.37,13.39,6.03,13.71,6.36,-6.36,-6.23,-7.29,7.03,7.35,7.36
106.42,13.63,6.33,13.72,6.43,-6.43,-6.31,-7.42,7.20,7.29,7.30
107.48,13.92,6.69,13.73,6.50,-6.50,-6.38,-7.55,7.42,7.23,7.23
108.56,13.77,6.61,13.73,6.56,-6.56,-6.45,-7.68,7.21,7.17,7.16
109.64,13.55,6.44,13.74,6.64,-6.64,-6.53,-7.81,6.91,7.10,7.11
110.74,13.36,6.32,13.75,6.71,-6.71,-6.60,-7.93,6.65,7.04,7.04
111.85,13.85,6.86,13.76,6.78,-6.78,-6.68,-8.05,7.07,6.98,6.99
112.97,14.09,7.17,13.78,6.86,-6.86,-6.76,-8.17,7.23,6.92,6.92
114.10,13.88,7.02,13.83,6.96,-6.96,-6.84,-8.27,6.92,6.86,6.86
115.24,13.84,7.04,13.87,7.07,-7.07,-6.92,-8.37,6.77,6.81,6.80
116.39,14.08,7.34,13.93,7.18,-7.18,-7.00,-8.47,6.90,6.75,6.74
117.55,14.18,7.49,13.96,7.26,-7.26,-7.08,-8.55,6.92,6.70,6.69
118.73,13.77,7.13,13.95,7.30,-7.30,-7.16,-8.62,6.47,6.65,6.64
119.92,13.67,7.07,13.95,7.35,-7.35,-7.24,-8.68,6.32,6.60,6.60
121.12,14.01,7.46,13.97,7.42,-7.42,-7.32,-8.73,6.59,6.55,6.55
122.33,14.02,7.51,13.97,7.46,-7.46,-7.40,-8.77,6.56,6.51,6.50
123.55,14.03,7.56,13.96,7.49,-7.49,-7.48,-8.80,6.54,6.47,6.47
124.79,14.03,7.60,13.94,7.51,-7.51,-7.55,-8.81,6.52,6.43,6.43
126.03,14.04,7.65,13.94,7.55,-7.55,-7.63,-8.80,6.48,6.39,6.39
127.29,14.05,7.69,13.95,7.60,-7.60,-7.71,-8.79,6.45,6.35,6.36
128.57,13.89,7.58,13.94,7.63,-7.63,-7.78,-8.76,6.26,6.31,6.31
129.85,13.66,7.39,13.94,7.67,-7.67,-7.85,-8.72,5.98,6.27,6.27
131.15,13.84,7.61,13.96,7.73,-7.73,-7.92,-8.66,6.11,6.23,6.23
132.46,13.93,7.74,14.00,7.81,-7.81,-7.99,-8.60,6.12,6.19,6.19
133.79,13.97,7.81,14.02,7.86,-7.86,-8.05,-8.52,6.11,6.16,6.16
135.12,14.00,7.89,14.00,7.88,-7.88,-8.11,-8.44,6.12,6.12,6.11
136.48,14.22,8.13,14.00,7.91,-7.91,-8.17,-8.34,6.31,6.09,6.09
137.84,14.10,8.06,14.00,7.96,-7.96,-8.22,-8.24,6.14,6.05,6.04
139.22,13.95,7.95,14.00,7.99,-7.99,-8.27,-8.13,5.96,6.01,6.00
140.61,13.89,7.93,13.99,8.02,-8.02,-8.31,-8.02,5.87,5.97,5.96
142.02,14.10,8.16,13.99,8.05,-8.05,-8.35,-7.90,6.04,5.93,5.94
143.44,14.16,8.26,13.98,8.09,-8.09,-8.38,-7.78,6.07,5.89,5.89
144.87,13.95,8.10,13.96,8.12,-8.12,-8.41,-7.65,5.83,5.84,5.85
146.32,13.97,8.17,13.90,8.11,-8.11,-8.43,-7.53,5.86,5.79,5.80
147.78,13.73,7.97,13.84,8.11,-8.11,-8.45,-7.40,5.62,5.73,5.76
149.26,13.54,7.84,13.78,8.10,-8.10,-8.46,-7.27,5.43,5.67,5.70
150.75,13.72,8.09,13.70,8.10,-8.10,-8.46,-7.14,5.62,5.61,5.63
152.26,13.74,8.19,13.61,8.08,-8.08,-8.45,-7.02,5.66,5.54,5.55
153.78,13.49,8.01,13.52,8.06,-8.06,-8.44,-6.89,5.43,5.46,5.48
155.32,13.44,8.04,13.41,8.03,-8.03,-8.42,-6.77,5.41,5.39,5.40
156.88,13.46,8.14,13.29,7.99,-7.99,-8.40,-6.65,5.47,5.31,5.32
158.44,13.32,8.09,13.18,7.95,-7.95,-8.37,-6.53,5.37,5.23,5.23
160.03,13.13,7.99,13.10,7.94,-7.94,-8.33,-6.42,5.19,5.15,5.14
161.63,12.97,7.91,13.03,7.95,-7.95,-8.28,-6.30,5.02,5.08,5.06
163.24,12.96,7.97,12.96,7.95,-7.95,-8.23,-6.20,5.01,5.01,4.99
164.88,12.80,7.87,12.92,7.97,-7.97,-8.17,-6.09,4.83,4.95,4.93
166.53,12.63,7.75,12.87,7.97,-7.97,-8.11,-5.99,4.66,4.90,4.88
168.19,12.50,7.67,12.80,7.94,-7.94,-8.04,-5.89,4.55,4.85,4.83
169.87,12.59,7.80,12.75,7.94,-7.94,-7.97,-5.80,4.65,4.81,4.79
171.57,12.72,7.95,12.73,7.95,-7.95,-7.89,-5.71,4.77,4.78,4.77
173.29,12.79,8.05,12.69,7.94,-7.94,-7.81,-5.63,4.85,4.75,4.74
175.02,12.91,8.18,12.66,7.92,-7.92,-7.72,-5.54,4.98,4.73,4.73
176.77,12.89,8.18,12.63,7.91,-7.91,-7.63,-5.47,4.98,4.72,4.71
178.54,12.61,7.91,12.60,7.89,-7.89,-7.54,-5.39,4.72,4.71,4.70
180.32,12.60,7.89,12.55,7.86,-7.86,-7.44,-5.33,4.74,4.70,4.70
182.13,12.57,7.86,12.50,7.81,-7.81,-7.34,-5.26,4.75,4.68,4.71
183.95,12.35,7.66,12.44,7.77,-7.77,-7.24,-5.20,4.58,4.67,4.69
185.79,12.27,7.59,12.36,7.70,-7.70,-7.13,-5.14,4.57,4.66,4.68
187.65,12.34,7.68,12.26,7.61,-7.61,-7.03,-5.09,4.73,4.65,4.66
189.52,12.15,7.51,12.14,7.51,-7.51,-6.92,-5.04,4.64,4.63,4.64
191.42,11.99,7.37,12.01,7.39,-7.39,-6.81,-5.00,4.60,4.62,4.62
193.33,11.87,7.27,11.88,7.28,-7.28,-6.70,-4.95,4.58,4.60,4.60
195.27,11.72,7.15,11.76,7.18,-7.18,-6.59,-4.91,4.54,4.58,4.57
197.22,11.61,7.06,11.65,7.10,-7.10,-6.48,-4.88,4.51,4.55,4.55
199.19,11.55,7.03,11.54,7.01,-7.01,-6.37,-4.85,4.53,4.53,4.52
201.18,11.45,6.95,11.42,6.92,-6.92,-6.26,-4.82,4.53,4.50,4.50
203.19,11.25,6.77,11.30,6.82,-6.82,-6.15,-4.79,4.43,4.48,4.48
205.23,11.08,6.63,11.17,6.72,-6.72,-6.04,-4.76,4.36,4.46,4.45
207.28,11.03,6.58,11.03,6.60,-6.60,-5.93,-4.74,4.43,4.43,4.44
209.35,10.94,6.52,10.89,6.48,-6.48,-5.83,-4.72,4.46,4.41,4.42
211.44,10.79,6.41,10.75,6.36,-6.36,-5.72,-4.70,4.43,4.39,4.38
213.56,10.70,6.33,10.61,6.24,-6.24,-5.61,-4.68,4.46,4.37,4.37
215.69,10.58,6.22,10.46,6.11,-6.11,-5.51,-4.67,4.47,4.35,4.36
217.85,10.35,6.01,10.32,5.98,-5.98,-5.40,-4.65,4.37,4.34,4.34
220.03,10.15,5.82,10.17,5.84,-5.84,-5.30,-4.63,4.31,4.33,4.33
222.23,9.95,5.65,10.01,5.70,-5.70,-5.20,-4.62,4.25,4.32,4.30
224.45,9.79,5.48,9.86,5.55,-5.55,-5.10,-4.60,4.24,4.31,4.31
226.70,9.64,5.34,9.71,5.40,-5.40,-5.00,-4.59,4.24,4.31,4.30
228.96,9.48,5.17,9.55,5.24,-5.24,-4.90,-4.57,4.24,4.31,4.31
231.25,9.38,5.06,9.39,5.07,-5.07,-4.81,-4.55,4.30,4.32,4.32
233.57,9.26,4.93,9.23,4.91,-4.91,-4.71,-4.53,4.35,4.33,4.33
235.90,9.14,4.80,9.08,4.74,-4.74,-4.62,-4.51,4.40,4.34,4.33
238.26,8.97,4.63,8.93,4.58,-4.58,-4.53,-4.49,4.39,4.35,4.34
240.64,8.83,4.47,8.78,4.41,-4.41,-4.44,-4.46,4.42,4.37,4.36
243.05,8.63,4.24,8.64,4.25,-4.25,-4.35,-4.43,4.38,4.39,4.39
245.48,8.44,4.03,8.49,4.08,-4.08,-4.27,-4.40,4.36,4.41,4.41
247.93,8.32,3.88,8.33,3.90,-3.90,-4.18,-4.37,4.42,4.43,4.44
250.41,8.19,3.74,8.17,3.72,-3.72,-4.10,-4.34,4.47,4.45,4.45
252.92,8.03,3.55,8.00,3.53,-3.53,-4.02,-4.30,4.50,4.47,4.48
255.45,7.85,3.35,7.83,3.34,-3.34,-3.94,-4.26,4.51,4.50,4.50
258.00,7.70,3.17,7.66,3.14,-3.14,-3.86,-4.21,4.56,4.52,4.53
260.58,7.57,3.03,7.48,2.94,-2.94,-3.78,-4.16,4.63,4.54,4.54
263.19,7.37,2.80,7.31,2.75,-2.75,-3.70,-4.12,4.62,4.57,4.57
265.82,7.15,2.57,7.15,2.56,-2.56,-3.63,-4.06,4.59,4.59,4.58
268.48,6.99,2.38,7.00,2.39,-2.39,-3.56,-4.01,4.60,4.61,4.60
271.16,6.84,2.20,6.86,2.22,-2.22,-3.48,-3.95,4.61,4.63,4.64
273.87,6.71,2.06,6.73,2.07,-2.07,-3.41,-3.89,4.64,4.66,4.65
276.61,6.59,1.90,6.62,1.94,-1.94,-3.35,-3.84,4.65,4.68,4.68
279.38,6.47,1.76,6.54,1.83,-1.83,-3.28,-3.77,4.64,4.71,4.71
282.17,6.41,1.68,6.48,1.75,-1.75,-3.21,-3.71,4.66,4.73,4.73
284.99,6.38,1.61,6.45,1.69,-1.69,-3.15,-3.65,4.69,4.76,4.77
287.84,6.31,1.53,6.44,1.65,-1.65,-3.08,-3.59,4.66,4.79,4.78
290.72,6.36,1.54,6.45,1.63,-1.63,-3.02,-3.52,4.73,4.82,4.82
293.63,6.46,1.62,6.47,1.62,-1.62,-2.96,-3.46,4.83,4.85,4.84
296.57,6.47,1.59,6.51,1.64,-1.64,-2.90,-3.39,4.83,4.87,4.87
299.53,6.51,1.61,6.57,1.67,-1.67,-2.84,-3.33,4.84,4.90,4.90
302.53,6.70,1.78,6.63,1.71,-1.71,-2.79,-3.27,4.99,4.93,4.92
305.55,6.81,1.85,6.68,1.73,-1.73,-2.73,-3.20,5.08,4.95,4.96
308.61,6.79,1.81,6.73,1.75,-1.75,-2.68,-3.14,5.04,4.97,4.98
311.69,6.92,1.92,6.76,1.76,-1.76,-2.62,-3.08,5.16,5.00,5.00
314.81,6.86,1.83,6.78,1.77,-1.77,-2.57,-3.02,5.09,5.02,5.03
317.96,6.81,1.76,6.81,1.77,-1.77,-2.52,-2.97,5.04,5.04,5.04
321.14,6.81,1.76,6.82,1.77,-1.77,-2.47,-2.91,5.04,5.06,5.05
324.35,6.82,1.75,6.81,1.74,-1.74,-2.42,-2.85,5.08,5.07,5.07
327.59,6.92,1.84,6.78,1.70,-1.70,-2.38,-2.80,5.22,5.08,5.08
330.87,6.83,1.74,6.75,1.65,-1.65,-2.33,-2.75,5.18,5.10,5.09
334.18,6.55,1.44,6.71,1.60,-1.60,-2.28,-2.70,4.95,5.11,5.11
337.52,6.49,1.37,6.65,1.53,-1.53,-2.24,-2.65,4.96,5.12,5.11
340.90,6.57,1.44,6.60,1.47,-1.47,-2.20,-2.60,5.10,5.12,5.13
344.30,6.60,1.46,6.56,1.42,-1.42,-2.16,-2.56,5.17,5.13,5.14
347.75,6.68,1.54,6.52,1.39,-1.39,-2.11,-2.52,5.29,5.14,5.14
351.23,6.57,1.43,6.50,1.36,-1.36,-2.07,-2.48,5.21,5.14,5.14
354.74,6.36,1.22,6.48,1.34,-1.34,-2.04,-2.44,5.02,5.14,5.14
358.28,6.37,1.22,6.46,1.32,-1.32,-2.00,-2.40,5.05,5.15,5.15
361.87,6.41,1.26,6.45,1.30,-1.30,-1.96,-2.37,5.11,5.15,5.15
365.49,6.41,1.26,6.45,1.30,-1.30,-1.93,-2.33,5.11,5.15,5.15
369.14,6.42,1.28,6.47,1.33,-1.33,-1.89,-2.30,5.09,5.15,5.14
372.83,6.43,1.29,6.50,1.36,-1.36,-1.86,-2.27,5.07,5.15,5.14
376.56,6.50,1.36,6.50,1.36,-1.36,-1.83,-2.24,5.14,5.14,5.14
380.33,6.68,1.53,6.50,1.36,-1.36,-1.80,-2.22,5.32,5.14,5.15
384.13,6.62,1.48,6.52,1.38,-1.38,-1.77,-2.19,5.24,5.13,5.14
387.97,6.57,1.44,6.55,1.42,-1.42,-1.75,-2.17,5.15,5.13,5.13
391.85,6.56,1.44,6.58,1.46,-1.46,-1.72,-2.14,5.10,5.13,5.12
395.77,6.63,1.50,6.62,1.50,-1.50,-1.70,-2.12,5.13,5.12,5.13
399.73,6.66,1.54,6.65,1.54,-1.54,-1.68,-2.10,5.12,5.11,5.12
403.72,6.73,1.61,6.69,1.58,-1.58,-1.66,-2.08,5.14,5.11,5.12
407.76,6.75,1.64,6.73,1.63,-1.63,-1.64,-2.07,5.12,5.10,5.10
411.84,6.64,1.54,6.78,1.68,-1.68,-1.63,-2.05,4.96,5.10,5.10
415.96,6.60,1.50,6.83,1.73,-1.73,-1.61,-2.03,4.87,5.10,5.10
420.12,6.90,1.80,6.88,1.78,-1.78,-1.60,-2.01,5.12,5.10,5.10
424.32,7.09,1.99,6.94,1.83,-1.83,-1.60,-2.00,5.25,5.11,5.10
428.56,6.98,1.87,7.01,1.90,-1.90,-1.60,-1.98,5.08,5.12,5.11
432.85,7.02,1.90,7.08,1.94,-1.94,-1.60,-1.96,5.08,5.13,5.12
437.18,7.19,2.06,7.14,1.98,-1.98,-1.61,-1.95,5.20,5.15,5.13
441.55,7.25,2.08,7.20,2.02,-2.02,-1.62,-1.93,5.23,5.18,5.16
445.96,7.29,2.10,7.26,2.06,-2.06,-1.64,-1.91,5.23,5.21,5.19
450.42,7.34,2.12,7.33,2.08,-2.08,-1.66,-1.89,5.26,5.24,5.22
454.93,7.40,2.13,7.39,2.11,-2.11,-1.69,-1.87,5.29,5.28,5.27
459.48,7.46,2.14,7.45,2.12,-2.12,-1.73,-1.85,5.34,5.33,5.32
464.07,7.53,2.16,7.49,2.12,-2.12,-1.77,-1.82,5.41,5.37,5.37
468.71,7.51,2.08,7.52,2.10,-2.10,-1.82,-1.79,5.41,5.42,5.43
473.40,7.42,1.95,7.55,2.07,-2.07,-1.88,-1.77,5.34,5.47,5.47
