frequency,raw,error,smoothed,error_smoothed,equalization,parametric_eq,fixed_band_eq,equalized_raw,equalized_smoothed,target
20.00,13.52,3.67,13.42,3.54,-3.54,-3.57,-1.94,9.98,9.88,9.85
20.20,13.54,3.64,13.49,3.57,-3.57,-3.59,-1.99,9.97,9.92,9.90
20.40,13.57,3.62,13.56,3.60,-3.60,-3.61,-2.05,9.97,9.95,9.95
20.61,13.59,3.61,13.62,3.63,-3.63,-3.63,-2.10,9.96,9.99,9.98
20.81,13.62,3.59,13.68,3.66,-3.66,-3.64,-2.16,9.96,10.02,10.03
21.02,13.65,3.58,13.73,3.69,-3.69,-3.66,-2.22,9.96,10.05,10.07
21.23,13.72,3.63,13.79,3.71,-3.71,-3.68,-2.28,10.01,10.07,10.09
21.44,13.78,3.67,13.83,3.74,-3.74,-3.70,-2.35,10.04,10.10,10.11
21.66,13.85,3.72,13.88,3.76,-3.76,-3.71,-2.41,10.09,10.12,10.13
21.87,13.92,3.78,13.92,3.78,-3.78,-3.73,-2.48,10.14,10.13,10.14
22.09,13.97,3.81,13.95,3.80,-3.80,-3.75,-2.55,10.17,10.15,10.16
22.31,14.00,3.83,13.99,3.82,-3.82,-3.76,-2.62,10.18,10.16,10.17
22.54,14.04,3.87,14.03,3.86,-3.86,-3.78,-2.69,10.18,10.17,10.17
22.76,14.07,3.90,14.05,3.88,-3.88,-3.79,-2.76,10.19,10.17,10.17
22.99,14.10,3.94,14.08,3.90,-3.90,-3.81,-2.84,10.20,10.17,10.16
23.22,14.11,3.95,14.09,3.91,-3.91,-3.83,-2.92,10.20,10.18,10.16
23.45,14.13,3.97,14.10,3.92,-3.92,-3.84,-3.00,10.21,10.18,10.16
23.69,14.14,3.97,14.10,3.93,-3.93,-3.86,-3.08,10.21,10.18,10.17
23.92,14.16,3.99,14.11,3.93,-3.93,-3.87,-3.16,10.23,10.18,10.17
24.16,14.14,3.97,14.11,3.94,-3.94,-3.89,-3.24,10.20,10.18,10.17
24.40,14.10,3.92,14.12,3.95,-3.95,-3.90,-3.33,10.15,10.17,10.18
24.65,14.06,3.89,14.13,3.95,-3.95,-3.92,-3.41,10.11,10.17,10.17
24.89,14.03,3.86,14.14,3.96,-3.96,-3.93,-3.50,10.07,10.17,10.17
25.14,14.05,3.88,14.15,3.97,-3.97,-3.95,-3.59,10.08,10.18,10.17
25.39,14.11,3.93,14.16,3.98,-3.98,-3.96,-3.67,10.13,10.18,10.18
25.65,14.17,3.99,14.17,3.99,-3.99,-3.97,-3.76,10.17,10.18,10.18
25.91,14.24,4.07,14.19,4.01,-4.01,-3.99,-3.85,10.23,10.18,10.17
26.16,14.26,4.09,14.20,4.02,-4.02,-4.00,-3.94,10.24,10.18,10.17
26.43,14.26,4.09,14.21,4.04,-4.04,-4.02,-4.03,10.22,10.17,10.17
26.69,14.26,4.09,14.22,4.05,-4.05,-4.03,-4.11,10.21,10.17,10.17
26.96,14.26,4.09,14.23,4.06,-4.06,-4.04,-4.20,10.20,10.17,10.17
27.23,14.26,4.09,14.24,4.07,-4.07,-4.06,-4.28,10.19,10.17,10.17
27.50,14.26,4.09,14.25,4.08,-4.08,-4.07,-4.36,10.18,10.17,10.17
27.77,14.26,4.10,14.26,4.09,-4.09,-4.08,-4.44,10.17,10.17,10.16
28.05,14.26,4.10,14.26,4.10,-4.10,-4.10,-4.52,10.16,10.16,10.16
28.33,14.23,4.08,14.26,4.10,-4.10,-4.11,-4.59,10.13,10.16,10.15
28.62,14.21,4.06,14.26,4.10,-4.10,-4.12,-4.66,10.11,10.16,10.15
28.90,14.19,4.03,14.27,4.11,-4.11,-4.13,-4.72,10.08,10.16,10.16
29.19,14.22,4.07,14.28,4.12,-4.12,-4.15,-4.78,10.10,10.16,10.15
29.48,14.27,4.11,14.29,4.13,-4.13,-4.16,-4.84,10.14,10.16,10.16
29.78,14.33,4.18,14.30,4.14,-4.14,-4.17,-4.89,10.19,10.16,10.15
30.08,14.37,4.21,14.30,4.15,-4.15,-4.18,-4.93,10.22,10.15,10.16
30.38,14.37,4.22,14.31,4.16,-4.16,-4.19,-4.97,10.21,10.15,10.15
30.68,14.37,4.22,14.32,4.17,-4.17,-4.21,-5.00,10.20,10.15,10.15
30.99,14.37,4.22,14.34,4.19,-4.19,-4.22,-5.03,10.18,10.15,10.15
31.30,14.37,4.23,14.36,4.22,-4.22,-4.23,-5.05,10.15,10.15,10.14
31.61,14.37,4.23,14.39,4.25,-4.25,-4.24,-5.06,10.12,10.14,10.14
31.93,14.37,4.23,14.41,4.27,-4.27,-4.25,-5.07,10.10,10.14,10.14
32.24,14.37,4.24,14.43,4.29,-4.29,-4.26,-5.07,10.08,10.14,10.13
32.57,14.37,4.24,14.44,4.31,-4.31,-4.27,-5.06,10.06,10.13,10.13
32.89,14.37,4.24,14.45,4.33,-4.33,-4.28,-5.05,10.04,10.13,10.13
33.22,14.43,4.31,14.46,4.34,-4.34,-4.30,-5.04,10.09,10.12,10.12
33.55,14.53,4.41,14.47,4.35,-4.35,-4.31,-5.02,10.18,10.12,10.12
33.89,14.62,4.51,14.48,4.37,-4.37,-4.32,-4.99,10.25,10.11,10.11
34.23,14.61,4.50,14.49,4.38,-4.38,-4.33,-4.96,10.23,10.11,10.11
34.57,14.55,4.45,14.50,4.39,-4.39,-4.34,-4.93,10.16,10.11,10.10
34.92,14.48,4.38,14.50,4.40,-4.40,-4.35,-4.90,10.08,10.10,10.10
35.27,14.47,4.38,14.51,4.41,-4.41,-4.36,-4.86,10.06,10.10,10.09
35.62,14.47,4.38,14.51,4.42,-4.42,-4.37,-4.82,10.05,10.09,10.09
35.97,14.47,4.38,14.51,4.42,-4.42,-4.38,-4.78,10.05,10.09,10.09
36.33,14.47,4.38,14.50,4.41,-4.41,-4.39,-4.74,10.06,10.09,10.09
36.70,14.47,4.39,14.49,4.40,-4.40,-4.40,-4.69,10.07,10.09,10.08
37.06,14.47,4.39,14.47,4.38,-4.38,-4.41,-4.65,10.09,10.09,10.08
37.43,14.47,4.38,14.44,4.35,-4.35,-4.42,-4.61,10.12,10.09,10.09
37.81,14.47,4.38,14.42,4.33,-4.33,-4.43,-4.57,10.14,10.09,10.09
38.19,14.47,4.39,14.42,4.33,-4.33,-4.44,-4.52,10.14,10.09,10.08
38.57,14.46,4.37,14.43,4.34,-4.34,-4.45,-4.48,10.12,10.09,10.09
38.95,14.45,4.35,14.44,4.34,-4.34,-4.46,-4.44,10.10,10.09,10.10
39.34,14.42,4.33,14.44,4.35,-4.35,-4.47,-4.41,10.07,10.09,10.09
39.74,14.39,4.30,14.44,4.35,-4.35,-4.48,-4.37,10.04,10.09,10.09
40.14,14.37,4.28,14.45,4.36,-4.36,-4.49,-4.34,10.01,10.09,10.09
40.54,14.37,4.28,14.45,4.36,-4.36,-4.50,-4.31,10.01,10.09,10.09
40.94,14.37,4.29,14.46,4.37,-4.37,-4.51,-4.28,10.00,10.09,10.08
41.35,14.47,4.39,14.46,4.38,-4.38,-4.52,-4.25,10.09,10.08,10.08
41.76,14.58,4.51,14.47,4.39,-4.39,-4.53,-4.23,10.19,10.07,10.07
42.18,14.62,4.55,14.47,4.41,-4.41,-4.54,-4.21,10.21,10.07,10.07
42.60,14.54,4.48,14.48,4.42,-4.42,-4.55,-4.19,10.12,10.06,10.06
43.03,14.47,4.42,14.48,4.44,-4.44,-4.56,-4.18,10.03,10.04,10.05
43.46,14.47,4.43,14.49,4.46,-4.46,-4.57,-4.16,10.01,10.03,10.04
43.90,14.47,4.45,14.49,4.47,-4.47,-4.58,-4.16,10.00,10.02,10.02
44.33,14.47,4.47,14.50,4.49,-4.49,-4.58,-4.15,9.98,10.01,10.00
44.78,14.47,4.49,14.49,4.50,-4.50,-4.59,-4.15,9.97,10.00,9.98
45.23,14.47,4.50,14.49,4.51,-4.51,-4.60,-4.15,9.96,9.98,9.97
45.68,14.47,4.51,14.48,4.51,-4.51,-4.61,-4.15,9.96,9.97,9.96
46.13,14.47,4.53,14.47,4.51,-4.51,-4.62,-4.16,9.96,9.95,9.94
46.60,14.47,4.53,14.46,4.52,-4.52,-4.63,-4.17,9.95,9.94,9.94
47.06,14.47,4.55,14.47,4.54,-4.54,-4.64,-4.18,9.93,9.92,9.92
47.53,14.47,4.56,14.48,4.58,-4.58,-4.65,-4.20,9.89,9.91,9.91
48.01,14.47,4.56,14.49,4.59,-4.59,-4.66,-4.22,9.88,9.90,9.91
48.49,14.47,4.58,14.48,4.60,-4.60,-4.67,-4.24,9.87,9.88,9.89
48.97,14.47,4.60,14.47,4.60,-4.60,-4.68,-4.26,9.87,9.87,9.87
49.46,14.47,4.62,14.45,4.60,-4.60,-4.70,-4.29,9.87,9.86,9.85
49.96,14.47,4.64,14.43,4.59,-4.59,-4.71,-4.32,9.88,9.84,9.83
50.46,14.47,4.65,14.41,4.58,-4.58,-4.72,-4.35,9.89,9.83,9.82
50.96,14.47,4.66,14.40,4.59,-4.59,-4.73,-4.38,9.88,9.81,9.81
51.47,14.47,4.68,14.40,4.60,-4.60,-4.74,-4.42,9.87,9.80,9.79
51.99,14.47,4.69,14.40,4.61,-4.61,-4.75,-4.45,9.86,9.79,9.78
52.51,14.32,4.55,14.40,4.63,-4.63,-4.76,-4.49,9.69,9.78,9.77
53.03,14.18,4.41,14.40,4.64,-4.64,-4.77,-4.53,9.54,9.76,9.77
53.56,14.28,4.53,14.40,4.65,-4.65,-4.78,-4.57,9.63,9.75,9.75
54.10,14.37,4.63,14.41,4.67,-4.67,-4.79,-4.61,9.70,9.74,9.74
54.64,14.37,4.65,14.41,4.68,-4.68,-4.81,-4.66,9.69,9.73,9.72
55.18,14.43,4.71,14.43,4.71,-4.71,-4.82,-4.70,9.72,9.72,9.72
55.74,14.61,4.91,14.45,4.74,-4.74,-4.83,-4.74,9.87,9.71,9.70
56.29,14.63,4.94,14.47,4.77,-4.77,-4.84,-4.78,9.86,9.70,9.69
56.86,14.50,4.82,14.49,4.80,-4.80,-4.86,-4.82,9.70,9.68,9.68
57.42,14.47,4.82,14.51,4.84,-4.84,-4.87,-4.86,9.63,9.66,9.65
58.00,14.47,4.83,14.53,4.88,-4.88,-4.88,-4.90,9.59,9.65,9.64
58.58,14.47,4.84,14.53,4.91,-4.91,-4.90,-4.94,9.56,9.62,9.63
59.16,14.49,4.88,14.52,4.93,-4.93,-4.91,-4.97,9.56,9.60,9.61
59.76,14.55,4.96,14.50,4.93,-4.93,-4.92,-5.01,9.62,9.57,9.59
60.35,14.57,5.02,14.47,4.93,-4.93,-4.94,-5.04,9.64,9.54,9.55
60.96,14.54,5.03,14.43,4.93,-4.93,-4.95,-5.07,9.61,9.51,9.51
61.57,14.44,4.97,14.39,4.92,-4.92,-4.97,-5.09,9.52,9.47,9.47
62.18,14.37,4.94,14.36,4.92,-4.92,-4.98,-5.12,9.44,9.43,9.43
62.80,14.37,4.99,14.35,4.96,-4.96,-5.00,-5.14,9.41,9.39,9.38
63.43,14.28,4.94,14.35,5.00,-5.00,-5.01,-5.16,9.28,9.35,9.34
64.07,14.16,4.87,14.34,5.03,-5.03,-5.03,-5.18,9.13,9.30,9.29
64.71,14.16,4.91,14.31,5.05,-5.05,-5.05,-5.19,9.11,9.26,9.25
65.35,14.20,4.99,14.28,5.06,-5.06,-5.07,-5.21,9.14,9.21,9.21
66.01,14.26,5.10,14.24,5.07,-5.07,-5.08,-5.22,9.19,9.16,9.16
66.67,14.26,5.15,14.21,5.10,-5.10,-5.10,-5.23,9.16,9.12,9.11
67.33,14.26,5.20,14.21,5.15,-5.15,-5.12,-5.24,9.11,9.07,9.06
68.01,14.26,5.24,14.21,5.19,-5.19,-5.14,-5.24,9.07,9.02,9.02
68.69,14.42,5.45,14.20,5.23,-5.23,-5.16,-5.25,9.19,8.97,8.97
69.37,14.34,5.42,14.18,5.26,-5.26,-5.18,-5.25,9.08,8.92,8.92
70.07,14.08,5.21,14.15,5.29,-5.29,-5.20,-5.26,8.79,8.87,8.87
70.77,13.91,5.09,14.13,5.32,-5.32,-5.22,-5.26,8.59,8.81,8.82
71.48,13.95,5.18,14.09,5.33,-5.33,-5.24,-5.27,8.62,8.76,8.77
72.19,14.07,5.37,14.05,5.35,-5.35,-5.27,-5.28,8.72,8.70,8.70
72.91,14.11,5.47,14.02,5.37,-5.37,-5.29,-5.28,8.74,8.65,8.64
73.64,14.23,5.64,13.99,5.40,-5.40,-5.31,-5.29,8.83,8.59,8.59
74.38,14.07,5.54,13.96,5.43,-5.43,-5.34,-5.30,8.64,8.53,8.53
75.12,13.71,5.24,13.94,5.46,-5.46,-5.36,-5.31,8.25,8.48,8.47
75.87,13.74,5.33,13.91,5.49,-5.49,-5.39,-5.33,8.25,8.42,8.41
76.63,13.82,5.46,13.90,5.53,-5.53,-5.41,-5.34,8.29,8.37,8.36
77.40,13.86,5.55,13.90,5.59,-5.59,-5.44,-5.36,8.27,8.31,8.31
78.17,13.86,5.61,13.90,5.64,-5.64,-5.47,-5.39,8.22,8.26,8.25
78.95,13.86,5.65,13.88,5.67,-5.67,-5.50,-5.41,8.19,8.21,8.21
79.74,14.02,5.86,13.84,5.68,-5.68,-5.53,-5.44,8.34,8.16,8.16
80.54,13.97,5.86,13.81,5.69,-5.69,-5.56,-5.47,8.28,8.11,8.11
81.35,13.84,5.78,13.78,5.72,-5.72,-5.59,-5.51,8.12,8.06,8.06
82.16,13.76,5.75,13.76,5.74,-5.74,-5.62,-5.55,8.01,8.02,8.01
82.98,13.76,5.79,13.76,5.79,-5.79,-5.66,-5.59,7.97,7.97,7.97
83.81,13.76,5.84,13.75,5.83,-5.83,-5.69,-5.64,7.93,7.92,7.92
84.65,13.76,5.89,13.73,5.85,-5.85,-5.73,-5.69,7.91,7.87,7.87
85.50,13.62,5.79,13.70,5.87,-5.87,-5.76,-5.74,7.75,7.82,7.83
86.35,13.50,5.72,13.66,5.89,-5.89,-5.80,-5.80,7.61,7.78,7.78
87.22,13.56,5.83,13.64,5.91,-5.91,-5.84,-5.87,7.65,7.73,7.73
88.09,13.66,5.98,13.63,5.95,-5.95,-5.88,-5.94,7.71,7.68,7.68
88.97,13.66,6.04,13.62,6.00,-6.00,-5.92,-6.01,7.66,7.62,7.62
89.86,13.67,6.10,13.63,6.06,-6.06,-5.96,-6.09,7.61,7.57,7.57
90.76,13.67,6.15,13.64,6.12,-6.12,-6.00,-6.17,7.55,7.52,7.52
91.66,13.67,6.20,13.66,6.19,-6.19,-6.05,-6.25,7.48,7.47,7.47
92.58,13.67,6.26,13.69,6.26,-6.26,-6.09,-6.34,7.40,7.42,7.41
93.51,13.67,6.31,13.72,6.35,-6.35,-6.14,-6.44,7.32,7.37,7.36
94.44,13.67,6.35,13.77,6.45,-6.45,-6.19,-6.54,7.22,7.32,7.32
95.39,13.72,6.45,13.80,6.53,-6.53,-6.24,-6.64,7.19,7.27,7.27
96.34,13.87,6.65,13.79,6.57,-6.57,-6.29,-6.75,7.30,7.22,7.22
97.30,13.94,6.77,13.79,6.62,-6.62,-6.34,-6.86,7.32,7.17,7.17
98.28,13.78,6.66,13.80,6.68,-6.68,-6.39,-6.97,7.10,7.13,7.12
99.26,13.77,6.69,13.82,6.74,-6.74,-6.45,-7.09,7.03,7.08,7.08
100.25,13.90,6.87,13.80,6.77,-6.77,-6.50,-7.21,7.13,7.03,7.03
101.25,14.02,7.04,13.77,6.79,-6.79,-6.56,-7.33,7.23,6.98,6.98
102.27,13.86,6.93,13.76,6.83,-6.83,-6.62,-7.46,7.03,6.93,6.93
103.29,13.80,6.92,13.75,6.87,-6.87,-6.68,-7.59,6.93,6.89,6.88
104.32,13.63,6.79,13.73,6.90,-6.90,-6.74,-7.72,6.73,6.84,6.84
105.37,13.39,6.60,13.71,6.93,-6.93,-6.80,-7.85,6.46,6.78,6.79
106.42,13.63,6.89,13.72,6.98,-6.98,-6.86,-7.98,6.64,6.73,6.74
107.48,13.92,7.24,13.73,7.05,-7.05,-6.92,-8.11,6.87,6.68,6.68
108.56,13.77,7.14,13.73,7.10,-7.10,-6.99,-8.24,6.67,6.63,6.63
109.64,13.55,6.97,13.74,7.16,-7.16,-7.06,-8.36,6.39,6.58,6.58
110.74,13.36,6.84,13.75,7.22,-7.22,-7.12,-8.48,6.14,6.53,6.52
111.85,13.85,7.37,13.76,7.29,-7.29,-7.19,-8.60,6.56,6.47,6.48
112.97,14.09,7.67,13.78,7.36,-7.36,-7.26,-8.72,6.73,6.42,6.42
114.10,13.88,7.51,13.83,7.45,-7.45,-7.33,-8.82,6.43,6.38,6.37
115.24,13.84,7.52,13.87,7.54,-7.54,-7.40,-8.92,6.30,6.33,6.32
116.39,14.08,7.81,13.93,7.64,-7.64,-7.47,-9.01,6.43,6.28,6.27
117.55,14.18,7.95,13.96,7.71,-7.71,-7.54,-9.10,6.46,6.24,6.23
118.73,13.77,7.58,13.95,7.75,-7.75,-7.61,-9.17,6.02,6.20,6.19
119.92,13.67,7.51,13.95,7.79,-7.79,-7.68,-9.23,5.88,6.16,6.16
121.12,14.01,7.89,13.97,7.84,-7.84,-7.75,-9.27,6.17,6.13,6.12
122.33,14.02,7.93,13.97,7.88,-7.88,-7.82,-9.31,6.14,6.09,6.09
123.55,14.03,7.97,13.96,7.90,-7.90,-7.89,-9.33,6.13,6.06,6.06
124.79,14.03,8.00,13.94,7.91,-7.91,-7.96,-9.33,6.12,6.03,6.03
126.03,14.04,8.04,13.94,7.94,-7.94,-8.03,-9.32,6.10,6.00,6.00
127.29,14.05,8.07,13.95,7.98,-7.98,-8.09,-9.30,6.07,5.97,5.98
128.57,13.89,7.95,13.94,8.00,-8.00,-8.16,-9.26,5.89,5.94,5.94
129.85,13.66,7.75,13.94,8.03,-8.03,-8.22,-9.21,5.63,5.91,5.91
131.15,13.84,7.96,13.96,8.08,-8.08,-8.28,-9.15,5.76,5.88,5.88
132.46,13.93,8.08,14.00,8.15,-8.15,-8.34,-9.08,5.78,5.85,5.85
133.79,13.97,8.15,14.02,8.19,-8.19,-8.39,-8.99,5.78,5.83,5.82
135.12,14.00,8.21,14.00,8.20,-8.20,-8.44,-8.89,5.80,5.80,5.79
136.48,14.22,8.45,14.00,8.23,-8.23,-8.49,-8.79,5.99,5.77,5.77
137.84,14.10,8.37,14.00,8.26,-8.26,-8.53,-8.68,5.84,5.74,5.73
139.22,13.95,8.25,14.00,8.29,-8.29,-8.57,-8.56,5.66,5.71,5.70
140.61,13.89,8.22,13.99,8.31,-8.31,-8.60,-8.43,5.58,5.68,5.67
142.02,14.10,8.45,13.99,8.33,-8.33,-8.63,-8.30,5.76,5.65,5.65
143.44,14.16,8.54,13.98,8.36,-8.36,-8.66,-8.17,5.80,5.62,5.62
144.87,13.95,8.37,13.96,8.38,-8.38,-8.67,-8.03,5.57,5.58,5.58
146.32,13.97,8.43,13.90,8.36,-8.36,-8.69,-7.90,5.61,5.54,5.54
147.78,13.73,8.22,13.84,8.35,-8.35,-8.69,-7.76,5.38,5.49,5.51
149.26,13.54,8.08,13.78,8.34,-8.34,-8.69,-7.62,5.20,5.43,5.46
150.75,13.72,8.32,13.70,8.33,-8.33,-8.68,-7.48,5.39,5.37,5.40
152.26,13.74,8.41,13.61,8.30,-8.30,-8.67,-7.34,5.44,5.31,5.33
153.78,13.49,8.23,13.52,8.27,-8.27,-8.65,-7.21,5.22,5.25,5.26
155.32,13.44,8.25,13.41,8.23,-8.23,-8.62,-7.07,5.21,5.18,5.19
156.88,13.46,8.35,13.29,8.19,-8.19,-8.59,-6.94,5.27,5.11,5.11
158.44,13.32,8.29,13.18,8.14,-8.14,-8.55,-6.81,5.18,5.04,5.03
160.03,13.13,8.18,13.10,8.13,-8.13,-8.50,-6.69,5.00,4.97,4.95
161.63,12.97,8.09,13.03,8.13,-8.13,-8.45,-6.57,4.84,4.90,4.88
163.24,12.96,8.14,12.96,8.12,-8.12,-8.39,-6.45,4.84,4.84,4.82
164.88,12.80,8.03,12.92,8.13,-8.13,-8.33,-6.33,4.67,4.79,4.77
166.53,12.63,7.91,12.87,8.13,-8.13,-8.26,-6.22,4.50,4.74,4.72
168.19,12.50,7.82,12.80,8.10,-8.10,-8.18,-6.12,4.40,4.70,4.68
169.87,12.59,7.95,12.75,8.09,-8.09,-8.10,-6.01,4.50,4.67,4.64
171.57,12.72,8.10,12.73,8.09,-8.09,-8.02,-5.92,4.63,4.64,4.62
173.29,12.79,8.18,12.69,8.07,-8.07,-7.93,-5.82,4.72,4.62,4.61
175.02,12.91,8.31,12.66,8.05,-8.05,-7.84,-5.73,4.86,4.61,4.60
176.77,12.89,8.30,12.63,8.04,-8.04,-7.74,-5.65,4.85,4.60,4.59
178.54,12.61,8.03,12.60,8.01,-8.01,-7.64,-5.56,4.60,4.59,4.58
180.32,12.60,8.01,12.55,7.97,-7.97,-7.54,-5.49,4.63,4.58,4.59
182.13,12.57,7.97,12.50,7.92,-7.92,-7.43,-5.41,4.65,4.58,4.60
183.95,12.35,7.76,12.44,7.87,-7.87,-7.33,-5.34,4.48,4.57,4.59
185.79,12.27,7.68,12.36,7.80,-7.80,-7.22,-5.28,4.47,4.57,4.59
187.65,12.34,7.77,12.26,7.70,-7.70,-7.11,-5.22,4.64,4.56,4.57
189.52,12.15,7.59,12.14,7.59,-7.59,-7.00,-5.16,4.56,4.55,4.56
191.42,11.99,7.45,12.01,7.47,-7.47,-6.89,-5.11,4.52,4.54,4.54
193.33,11.87,7.35,11.88,7.36,-7.36,-6.77,-5.06,4.51,4.52,4.52
195.27,11.72,7.22,11.76,7.25,-7.25,-6.66,-5.01,4.46,4.50,4.50
197.22,11.61,7.13,11.65,7.16,-7.16,-6.55,-4.97,4.45,4.49,4.48
199.19,11.55,7.09,11.54,7.08,-7.08,-6.43,-4.93,4.47,4.47,4.46
201.18,11.45,7.01,11.42,6.98,-6.98,-6.32,-4.89,4.47,4.45,4.44
203.19,11.25,6.83,11.30,6.87,-6.87,-6.21,-4.85,4.38,4.42,4.42
205.23,11.08,6.68,11.17,6.77,-6.77,-6.09,-4.82,4.31,4.40,4.40
207.28,11.03,6.64,11.03,6.65,-6.65,-5.98,-4.79,4.38,4.38,4.39
209.35,10.94,6.57,10.89,6.52,-6.52,-5.87,-4.76,4.42,4.37,4.37
211.44,10.79,6.45,10.75,6.40,-6.40,-5.76,-4.73,4.39,4.35,4.34
213.56,10.70,6.37,10.61,6.28,-6.28,-5.65,-4.71,4.42,4.33,4.33
215.69,10.58,6.26,10.46,6.14,-6.14,-5.54,-4.69,4.43,4.32,4.32
217.85,10.35,6.04,10.32,6.01,-6.01,-5.44,-4.66,4.34,4.31,4.31
220.03,10.15,5.85,10.17,5.87,-5.87,-5.33,-4.64,4.28,4.30,4.30
222.23,9.95,5.68,10.01,5.72,-5.72,-5.23,-4.62,4.23,4.29,4.27
224.45,9.79,5.51,9.86,5.57,-5.57,-5.13,-4.60,4.22,4.29,4.28
226.70,9.64,5.36,9.71,5.42,-5.42,-5.02,-4.58,4.22,4.29,4.28
228.96,9.48,5.19,9.55,5.26,-5.26,-4.93,-4.55,4.22,4.30,4.29
231.25,9.38,5.08,9.39,5.09,-5.09,-4.83,-4.53,4.29,4.30,4.30
233.57,9.26,4.95,9.23,4.92,-4.92,-4.73,-4.50,4.34,4.31,4.31
235.90,9.14,4.82,9.08,4.75,-4.75,-4.64,-4.48,4.39,4.33,4.32
238.26,8.97,4.64,8.93,4.58,-4.58,-4.54,-4.45,4.39,4.35,4.33
240.64,8.83,4.47,8.78,4.42,-4.42,-4.45,-4.42,4.41,4.37,4.36
243.05,8.63,4.24,8.64,4.25,-4.25,-4.36,-4.39,4.38,4.39,4.39
245.48,8.44,4.03,8.49,4.08,-4.08,-4.27,-4.35,4.36,4.41,4.41
247.93,8.32,3.88,8.33,3.90,-3.90,-4.19,-4.32,4.42,4.43,4.44
250.41,8.19,3.73,8.17,3.71,-3.71,-4.10,-4.28,4.48,4.46,4.46
252.92,8.03,3.54,8.00,3.52,-3.52,-4.02,-4.24,4.51,4.48,4.49
255.45,7.85,3.34,7.83,3.33,-3.33,-3.94,-4.19,4.52,4.50,4.51
258.00,7.70,3.17,7.66,3.13,-3.13,-3.86,-4.15,4.57,4.53,4.53
260.58,7.57,3.02,7.48,2.93,-2.93,-3.78,-4.10,4.64,4.55,4.55
263.19,7.37,2.79,7.31,2.73,-2.73,-3.70,-4.05,4.64,4.58,4.58
265.82,7.15,2.55,7.15,2.55,-2.55,-3.62,-4.00,4.60,4.60,4.60
268.48,6.99,2.37,7.00,2.37,-2.37,-3.55,-3.94,4.62,4.63,4.62
271.16,6.84,2.19,6.86,2.21,-2.21,-3.48,-3.88,4.63,4.65,4.65
273.87,6.71,2.04,6.73,2.05,-2.05,-3.41,-3.83,4.66,4.68,4.67
276.61,6.59,1.89,6.62,1.92,-1.92,-3.34,-3.77,4.67,4.70,4.70
279.38,6.47,1.74,6.54,1.80,-1.80,-3.27,-3.71,4.66,4.73,4.73
282.17,6.41,1.66,6.48,1.72,-1.72,-3.20,-3.64,4.69,4.76,4.75
284.99,6.38,1.59,6.45,1.66,-1.66,-3.13,-3.58,4.72,4.79,4.79
287.84,6.31,1.50,6.44,1.62,-1.62,-3.07,-3.52,4.69,4.82,4.81
290.72,6.36,1.52,6.45,1.60,-1.60,-3.01,-3.45,4.76,4.85,4.84
293.63,6.46,1.59,6.47,1.59,-1.59,-2.95,-3.39,4.86,4.87,4.87
296.57,6.47,1.57,6.51,1.61,-1.61,-2.89,-3.33,4.86,4.90,4.90
299.53,6.51,1.58,6.57,1.64,-1.64,-2.83,-3.26,4.87,4.93,4.93
302.53,6.70,1.75,6.63,1.67,-1.67,-2.77,-3.20,5.02,4.96,4.95
305.55,6.81,1.82,6.68,1.70,-1.70,-2.71,-3.14,5.11,4.99,4.99
308.61,6.79,1.78,6.73,1.72,-1.72,-2.66,-3.08,5.07,5.01,5.01
311.69,6.92,1.88,6.76,1.72,-1.72,-2.60,-3.02,5.19,5.03,5.04
314.81,6.86,1.80,6.78,1.73,-1.73,-2.55,-2.96,5.13,5.06,5.06
317.96,6.81,1.73,6.81,1.74,-1.74,-2.50,-2.91,5.07,5.08,5.08
321.14,6.81,1.72,6.82,1.73,-1.73,-2.45,-2.85,5.08,5.10,5.09
324.35,6.82,1.71,6.81,1.70,-1.70,-2.40,-2.80,5.12,5.11,5.11
327.59,6.92,1.80,6.78,1.66,-1.66,-2.35,-2.74,5.26,5.13,5.12
330.87,6.83,1.70,6.75,1.61,-1.61,-2.30,-2.69,5.22,5.14,5.13
334.18,6.55,1.40,6.71,1.56,-1.56,-2.26,-2.65,4.99,5.15,5.15
337.52,6.49,1.33,6.65,1.49,-1.49,-2.21,-2.60,5.00,5.16,5.16
340.90,6.57,1.40,6.60,1.43,-1.43,-2.17,-2.55,5.14,5.17,5.17
344.30,6.60,1.42,6.56,1.38,-1.38,-2.13,-2.51,5.22,5.18,5.18
347.75,6.68,1.50,6.52,1.34,-1.34,-2.09,-2.47,5.34,5.18,5.18
351.23,6.57,1.38,6.50,1.31,-1.31,-2.05,-2.43,5.25,5.19,5.19
354.74,6.36,1.18,6.48,1.29,-1.29,-2.01,-2.39,5.07,5.19,5.18
358.28,6.37,1.18,6.46,1.27,-1.27,-1.97,-2.35,5.10,5.19,5.19
361.87,6.41,1.22,6.45,1.26,-1.26,-1.93,-2.32,5.15,5.19,5.19
365.49,6.41,1.21,6.45,1.25,-1.25,-1.90,-2.29,5.16,5.20,5.20
369.14,6.42,1.23,6.47,1.28,-1.28,-1.86,-2.25,5.14,5.20,5.19
372.83,6.43,1.24,6.50,1.31,-1.31,-1.83,-2.22,5.12,5.19,5.19
376.56,6.50,1.32,6.50,1.31,-1.31,-1.80,-2.20,5.19,5.19,5.18
380.33,6.68,1.49,6.50,1.31,-1.31,-1.77,-2.17,5.37,5.19,5.19
384.13,6.62,1.43,6.52,1.33,-1.33,-1.74,-2.14,5.29,5.18,5.19
387.97,6.57,1.39,6.55,1.37,-1.37,-1.71,-2.12,5.20,5.18,5.18
391.85,6.56,1.39,6.58,1.41,-1.41,-1.69,-2.10,5.15,5.18,5.17
395.77,6.63,1.45,6.62,1.45,-1.45,-1.66,-2.08,5.18,5.17,5.18
399.73,6.66,1.49,6.65,1.49,-1.49,-1.64,-2.06,5.17,5.16,5.17
403.72,6.73,1.56,6.69,1.53,-1.53,-1.62,-2.04,5.20,5.16,5.17
407.76,6.75,1.60,6.73,1.58,-1.58,-1.61,-2.02,5.17,5.15,5.15
411.84,6.64,1.49,6.78,1.63,-1.63,-1.59,-2.00,5.01,5.15,5.15
415.96,6.60,1.45,6.83,1.67,-1.67,-1.58,-1.98,4.93,5.15,5.15
420.12,6.90,1.75,6.88,1.72,-1.72,-1.57,-1.97,5.18,5.15,5.15
424.32,7.09,1.94,6.94,1.78,-1.78,-1.56,-1.95,5.31,5.16,5.15
428.56,6.98,1.82,7.01,1.84,-1.84,-1.56,-1.93,5.14,5.17,5.16
432.85,7.02,1.85,7.08,1.89,-1.89,-1.56,-1.92,5.13,5.19,5.17
437.18,7.19,2.01,7.14,1.93,-1.93,-1.56,-1.90,5.26,5.21,5.18
441.55,7.25,2.03,7.20,1.97,-1.97,-1.57,-1.88,5.28,5.23,5.22
445.96,7.29,2.04,7.26,2.00,-2.00,-1.59,-1.86,5.29,5.26,5.25
450.42,7.34,2.06,7.33,2.03,-2.03,-1.61,-1.84,5.31,5.30,5.28
454.93,7.40,2.07,7.39,2.05,-2.05,-1.64,-1.82,5.35,5.34,5.33
459.48,7.46,2.09,7.45,2.06,-2.06,-1.67,-1.80,5.40,5.38,5.37
464.07,7.53,2.11,7.49,2.06,-2.06,-1.71,-1.77,5.47,5.43,5.42
468.71,7.51,2.03,7.52,2.04,-2.04,-1.75,-1.74,5.47,5.48,5.48
473.40,7.42,1.90,7.55,2.02,-2.02,-1.80,-1.72,5.40,5.53,5.52
478.13,7.53,1.95,7.58,2.00,-2.00,-1.85,-1.69,5.53,5.57,5.58
482.91,7.63,2.01,7.59,1.97,-1.97,-1.91,-1.65,5.66,5.62,5.62
487.74,7.67,2.01,7.60,1.94,-1.94,-1.95,-1.62,5.73,5.66,5.66
