frequency,raw,error,smoothed,error_smoothed,equalization,parametric_eq,fixed_band_eq,equalized_raw,equalized_smoothed,target
20.00,2.37,-5.61,2.20,-5.81,5.81,5.06,1.14,8.18,8.01,7.98
20.20,2.41,-5.62,2.32,-5.72,5.72,5.07,1.18,8.13,8.05,8.03
20.40,2.45,-5.63,2.45,-5.64,5.64,5.06,1.22,8.09,8.08,8.08
20.61,2.49,-5.62,2.56,-5.55,5.55,5.05,1.26,8.04,8.11,8.11
20.81,2.52,-5.64,2.68,-5.47,5.47,5.02,1.30,7.99,8.14,8.16
21.02,2.58,-5.62,2.79,-5.38,5.38,4.98,1.34,7.96,8.17,8.20
21.23,2.76,-5.46,2.90,-5.30,5.30,4.93,1.38,8.06,8.20,8.22
21.44,2.94,-5.29,3.00,-5.22,5.22,4.87,1.43,8.16,8.22,8.24
21.66,3.12,-5.14,3.10,-5.14,5.14,4.80,1.47,8.26,8.24,8.26
21.87,3.30,-4.96,3.20,-5.06,5.06,4.72,1.52,8.36,8.26,8.27
22.09,3.43,-4.85,3.30,-4.98,4.98,4.63,1.57,8.41,8.27,8.29
22.31,3.48,-4.81,3.39,-4.90,4.90,4.54,1.62,8.38,8.28,8.29
22.54,3.53,-4.76,3.49,-4.80,4.80,4.44,1.67,8.33,8.29,8.29
22.76,3.59,-4.70,3.58,-4.71,4.71,4.33,1.72,8.31,8.29,8.29
22.99,3.64,-4.64,3.66,-4.63,4.63,4.22,1.78,8.27,8.30,8.28
23.22,3.71,-4.57,3.74,-4.56,4.56,4.11,1.83,8.27,8.30,8.28
23.45,3.78,-4.50,3.80,-4.49,4.49,3.99,1.89,8.28,8.30,8.28
23.69,3.85,-4.44,3.86,-4.44,4.44,3.87,1.94,8.29,8.30,8.29
23.92,3.93,-4.36,3.92,-4.38,4.38,3.76,2.00,8.31,8.30,8.29
24.16,3.98,-4.32,3.98,-4.32,4.32,3.64,2.06,8.30,8.30,8.30
24.40,4.04,-4.26,4.05,-4.25,4.25,3.52,2.12,8.29,8.30,8.31
24.65,4.09,-4.21,4.12,-4.17,4.17,3.40,2.18,8.26,8.29,8.30
24.89,4.14,-4.15,4.21,-4.09,4.09,3.28,2.24,8.23,8.30,8.30
25.14,4.23,-4.06,4.30,-4.00,4.00,3.17,2.31,8.23,8.30,8.29
25.39,4.36,-3.94,4.38,-3.91,3.91,3.05,2.37,8.28,8.30,8.30
25.65,4.48,-3.82,4.47,-3.82,3.82,2.94,2.43,8.31,8.30,8.30
25.91,4.60,-3.69,4.57,-3.73,3.73,2.83,2.49,8.33,8.30,8.29
26.16,4.71,-3.58,4.67,-3.63,3.63,2.72,2.55,8.34,8.30,8.29
26.43,4.81,-3.48,4.77,-3.52,3.52,2.62,2.61,8.33,8.29,8.29
26.69,4.91,-3.38,4.88,-3.41,3.41,2.52,2.67,8.32,8.29,8.29
26.96,5.00,-3.30,5.00,-3.29,3.29,2.41,2.73,8.29,8.29,8.30
27.23,5.10,-3.19,5.12,-3.17,3.17,2.32,2.78,8.27,8.29,8.30
27.50,5.20,-3.09,5.24,-3.05,3.05,2.22,2.83,8.25,8.29,8.29
27.77,5.30,-2.98,5.35,-2.93,2.93,2.13,2.88,8.24,8.28,8.28
28.05,5.41,-2.87,5.46,-2.82,2.82,2.04,2.93,8.23,8.28,8.28
28.33,5.56,-2.71,5.58,-2.70,2.70,1.95,2.97,8.26,8.28,8.27
28.62,5.72,-2.55,5.70,-2.58,2.58,1.87,3.01,8.30,8.28,8.27
28.90,5.88,-2.39,5.82,-2.46,2.46,1.78,3.05,8.34,8.28,8.28
29.19,5.99,-2.27,5.94,-2.33,2.33,1.70,3.08,8.32,8.27,8.26
29.48,6.07,-2.21,6.07,-2.20,2.20,1.63,3.10,8.27,8.27,8.28
29.78,6.16,-2.11,6.19,-2.08,2.08,1.55,3.12,8.24,8.27,8.27
30.08,6.25,-2.03,6.31,-1.96,1.96,1.48,3.13,8.21,8.27,8.28
30.38,6.39,-1.88,6.42,-1.85,1.85,1.41,3.14,8.24,8.27,8.27
30.68,6.52,-1.74,6.52,-1.74,1.74,1.34,3.14,8.26,8.26,8.26
30.99,6.65,-1.61,6.62,-1.64,1.64,1.27,3.13,8.29,8.26,8.26
31.30,6.76,-1.50,6.72,-1.54,1.54,1.21,3.12,8.30,8.26,8.26
31.61,6.86,-1.39,6.81,-1.45,1.45,1.14,3.10,8.31,8.26,8.26
31.93,6.96,-1.29,6.89,-1.36,1.36,1.08,3.08,8.32,8.25,8.25
32.24,7.00,-1.24,6.97,-1.28,1.28,1.02,3.05,8.28,8.25,8.24
32.57,7.02,-1.23,7.06,-1.19,1.19,0.96,3.01,8.21,8.24,8.25
32.89,7.04,-1.20,7.14,-1.10,1.10,0.91,2.97,8.14,8.24,8.25
33.22,7.12,-1.11,7.21,-1.02,1.02,0.85,2.92,8.14,8.23,8.23
33.55,7.23,-1.00,7.28,-0.95,0.95,0.80,2.86,8.19,8.23,8.23
33.89,7.34,-0.87,7.33,-0.89,0.89,0.74,2.80,8.24,8.22,8.22
34.23,7.40,-0.82,7.37,-0.84,0.84,0.69,2.73,8.24,8.22,8.22
34.57,7.44,-0.77,7.41,-0.80,0.80,0.64,2.66,8.24,8.21,8.21
34.92,7.48,-0.72,7.45,-0.76,0.76,0.59,2.59,8.24,8.21,8.21
35.27,7.52,-0.68,7.47,-0.73,0.73,0.55,2.51,8.26,8.20,8.20
35.62,7.55,-0.65,7.48,-0.72,0.72,0.50,2.43,8.27,8.20,8.20
35.97,7.59,-0.60,7.49,-0.70,0.70,0.45,2.34,8.29,8.20,8.19
36.33,7.56,-0.64,7.51,-0.69,0.69,0.41,2.26,8.25,8.19,8.20
36.70,7.52,-0.66,7.52,-0.68,0.68,0.36,2.17,8.20,8.19,8.19
37.06,7.49,-0.69,7.53,-0.67,0.67,0.32,2.07,8.16,8.19,8.18
37.43,7.49,-0.70,7.54,-0.65,0.65,0.28,1.98,8.14,8.19,8.20
37.81,7.49,-0.70,7.56,-0.63,0.63,0.24,1.89,8.12,8.19,8.19
38.19,7.50,-0.68,7.60,-0.59,0.59,0.20,1.79,8.09,8.19,8.19
38.57,7.51,-0.68,7.64,-0.55,0.55,0.16,1.69,8.07,8.19,8.19
38.95,7.53,-0.66,7.68,-0.51,0.51,0.12,1.60,8.04,8.19,8.19
39.34,7.66,-0.53,7.73,-0.46,0.46,0.08,1.50,8.12,8.19,8.19
39.74,7.80,-0.38,7.78,-0.41,0.41,0.04,1.40,8.21,8.19,8.18
40.14,7.92,-0.27,7.84,-0.35,0.35,0.00,1.30,8.27,8.18,8.19
40.54,7.99,-0.19,7.89,-0.29,0.29,-0.04,1.20,8.28,8.18,8.18
40.94,8.05,-0.12,7.95,-0.23,0.23,-0.07,1.11,8.28,8.18,8.17
41.35,8.07,-0.09,8.00,-0.17,0.17,-0.11,1.01,8.24,8.17,8.17
41.76,8.09,-0.07,8.04,-0.12,0.12,-0.15,0.91,8.21,8.16,8.16
42.18,8.10,-0.06,8.08,-0.07,0.07,-0.18,0.81,8.17,8.15,8.16
42.60,8.10,-0.04,8.10,-0.04,0.04,-0.22,0.71,8.14,8.14,8.14
43.03,8.10,-0.03,8.11,-0.02,0.02,-0.25,0.62,8.12,8.13,8.14
43.46,8.10,-0.03,8.12,0.00,-0.00,-0.29,0.52,8.10,8.11,8.13
43.90,8.10,0.00,8.11,0.01,-0.01,-0.32,0.42,8.09,8.10,8.10
44.33,8.10,0.02,8.11,0.02,-0.02,-0.36,0.33,8.08,8.09,8.08
44.78,8.10,0.04,8.11,0.04,-0.04,-0.39,0.23,8.06,8.07,8.06
45.23,8.10,0.05,8.11,0.06,-0.06,-0.43,0.14,8.04,8.06,8.05
45.68,8.10,0.07,8.12,0.08,-0.08,-0.46,0.04,8.02,8.04,8.03
46.13,8.10,0.09,8.13,0.11,-0.11,-0.50,-0.05,7.99,8.02,8.01
46.60,8.10,0.09,8.15,0.14,-0.14,-0.53,-0.14,7.96,8.01,8.01
47.06,8.11,0.12,8.17,0.18,-0.18,-0.56,-0.24,7.93,7.99,7.99
47.53,8.21,0.24,8.19,0.22,-0.22,-0.60,-0.33,7.99,7.97,7.98
48.01,8.30,0.33,8.22,0.27,-0.27,-0.63,-0.42,8.04,7.96,7.97
48.49,8.30,0.35,8.26,0.32,-0.32,-0.67,-0.52,7.98,7.94,7.95
48.97,8.30,0.37,8.30,0.37,-0.37,-0.70,-0.61,7.93,7.93,7.93
49.46,8.33,0.43,8.35,0.44,-0.44,-0.73,-0.70,7.89,7.91,7.91
49.96,8.37,0.49,8.41,0.51,-0.51,-0.77,-0.79,7.86,7.89,7.88
50.46,8.43,0.55,8.47,0.59,-0.59,-0.80,-0.88,7.84,7.88,7.88
50.96,8.49,0.63,8.53,0.67,-0.67,-0.84,-0.97,7.82,7.86,7.86
51.47,8.57,0.74,8.60,0.75,-0.75,-0.87,-1.06,7.82,7.85,7.84
51.99,8.64,0.82,8.66,0.83,-0.83,-0.90,-1.15,7.81,7.83,7.82
52.51,8.72,0.91,8.73,0.91,-0.91,-0.94,-1.24,7.81,7.82,7.81
53.03,8.80,0.99,8.79,0.99,-0.99,-0.97,-1.32,7.81,7.80,7.81
53.56,8.89,1.10,8.86,1.08,-1.08,-1.01,-1.41,7.82,7.78,7.79
54.10,8.97,1.20,8.93,1.16,-1.16,-1.04,-1.49,7.81,7.77,7.77
54.64,9.05,1.30,9.00,1.25,-1.25,-1.08,-1.57,7.80,7.76,7.75
55.18,9.10,1.36,9.07,1.33,-1.33,-1.11,-1.66,7.78,7.74,7.74
55.74,9.11,1.39,9.13,1.40,-1.40,-1.15,-1.74,7.71,7.73,7.72
56.29,9.15,1.44,9.18,1.47,-1.47,-1.19,-1.81,7.68,7.71,7.71
56.86,9.21,1.52,9.22,1.53,-1.53,-1.22,-1.89,7.68,7.69,7.69
57.42,9.26,1.60,9.26,1.59,-1.59,-1.26,-1.96,7.67,7.67,7.66
58.00,9.30,1.66,9.30,1.65,-1.65,-1.30,-2.03,7.65,7.65,7.65
58.58,9.36,1.73,9.33,1.71,-1.71,-1.33,-2.10,7.65,7.62,7.63
59.16,9.40,1.79,9.35,1.76,-1.76,-1.37,-2.17,7.64,7.59,7.61
59.76,9.40,1.82,9.38,1.82,-1.82,-1.41,-2.24,7.59,7.56,7.58
60.35,9.40,1.87,9.40,1.87,-1.87,-1.45,-2.30,7.53,7.53,7.54
60.96,9.40,1.90,9.42,1.93,-1.93,-1.48,-2.36,7.47,7.49,7.50
61.57,9.40,1.95,9.44,2.00,-2.00,-1.52,-2.41,7.41,7.45,7.45
62.18,9.42,2.02,9.47,2.06,-2.06,-1.56,-2.47,7.36,7.41,7.40
62.80,9.48,2.13,9.48,2.12,-2.12,-1.60,-2.52,7.36,7.36,7.35
63.43,9.50,2.20,9.50,2.19,-2.19,-1.64,-2.57,7.31,7.31,7.30
64.07,9.50,2.25,9.52,2.25,-2.25,-1.68,-2.61,7.25,7.26,7.25
64.71,9.50,2.30,9.53,2.32,-2.32,-1.72,-2.66,7.18,7.21,7.20
65.35,9.54,2.38,9.54,2.38,-2.38,-1.76,-2.70,7.16,7.16,7.16
66.01,9.60,2.50,9.56,2.45,-2.45,-1.81,-2.73,7.15,7.11,7.11
66.67,9.60,2.55,9.57,2.52,-2.52,-1.85,-2.77,7.08,7.05,7.05
67.33,9.60,2.61,9.59,2.59,-2.59,-1.89,-2.81,7.02,7.00,7.00
68.01,9.60,2.65,9.60,2.65,-2.65,-1.93,-2.84,6.95,6.94,6.95
68.69,9.60,2.71,9.60,2.71,-2.71,-1.98,-2.87,6.89,6.89,6.89
69.37,9.60,2.77,9.61,2.77,-2.77,-2.02,-2.90,6.83,6.83,6.83
70.07,9.60,2.83,9.61,2.83,-2.83,-2.06,-2.93,6.77,6.77,6.77
70.77,9.60,2.88,9.61,2.90,-2.90,-2.11,-2.96,6.71,6.71,6.72
71.48,9.60,2.94,9.61,2.96,-2.96,-2.16,-2.99,6.64,6.65,6.66
72.19,9.60,3.01,9.61,3.02,-3.02,-2.20,-3.02,6.58,6.59,6.59
72.91,9.60,3.08,9.60,3.08,-3.08,-2.25,-3.05,6.52,6.53,6.53
73.64,9.60,3.14,9.60,3.13,-3.13,-2.30,-3.08,6.47,6.46,6.46
74.38,9.60,3.20,9.59,3.19,-3.19,-2.34,-3.11,6.41,6.40,6.40
75.12,9.60,3.27,9.59,3.26,-3.26,-2.39,-3.14,6.34,6.34,6.33
75.87,9.60,3.34,9.60,3.32,-3.32,-2.44,-3.18,6.28,6.27,6.26
76.63,9.60,3.40,9.60,3.39,-3.39,-2.49,-3.21,6.21,6.21,6.21
77.40,9.60,3.45,9.61,3.46,-3.46,-2.54,-3.24,6.15,6.15,6.15
78.17,9.60,3.52,9.61,3.52,-3.52,-2.59,-3.28,6.08,6.09,6.08
78.95,9.60,3.57,9.62,3.59,-3.59,-2.64,-3.32,6.01,6.03,6.04
79.74,9.60,3.63,9.63,3.66,-3.66,-2.69,-3.36,5.95,5.97,5.97
80.54,9.60,3.68,9.64,3.72,-3.72,-2.75,-3.40,5.88,5.92,5.92
81.35,9.63,3.77,9.65,3.79,-3.79,-2.80,-3.45,5.84,5.86,5.86
82.16,9.70,3.90,9.66,3.86,-3.86,-2.85,-3.50,5.85,5.80,5.80
82.98,9.70,3.94,9.67,3.92,-3.92,-2.91,-3.55,5.78,5.75,5.76
83.81,9.70,4.01,9.68,3.99,-3.99,-2.96,-3.60,5.71,5.69,5.69
84.65,9.70,4.07,9.69,4.05,-4.05,-3.02,-3.66,5.65,5.64,5.63
85.50,9.70,4.12,9.70,4.12,-4.12,-3.08,-3.71,5.58,5.58,5.59
86.35,9.71,4.19,9.71,4.19,-4.19,-3.13,-3.77,5.53,5.52,5.53
87.22,9.71,4.25,9.71,4.25,-4.25,-3.19,-3.84,5.46,5.46,5.47
88.09,9.71,4.31,9.72,4.31,-4.31,-3.25,-3.90,5.40,5.40,5.41
88.97,9.71,4.37,9.72,4.38,-4.38,-3.31,-3.97,5.34,5.34,5.35
89.86,9.71,4.43,9.72,4.44,-4.44,-3.37,-4.05,5.27,5.28,5.28
90.76,9.71,4.49,9.72,4.49,-4.49,-3.43,-4.12,5.22,5.22,5.22
91.66,9.71,4.54,9.71,4.55,-4.55,-3.49,-4.20,5.16,5.16,5.17
92.58,9.71,4.62,9.71,4.61,-4.61,-3.56,-4.28,5.11,5.10,5.09
93.51,9.71,4.67,9.71,4.66,-4.66,-3.62,-4.37,5.05,5.05,5.04
94.44,9.71,4.73,9.71,4.72,-4.72,-3.68,-4.46,4.99,4.99,4.98
95.39,9.71,4.78,9.70,4.78,-4.78,-3.75,-4.55,4.93,4.93,4.93
96.34,9.71,4.85,9.70,4.84,-4.84,-3.81,-4.64,4.88,4.87,4.86
97.30,9.70,4.89,9.70,4.89,-4.89,-3.88,-4.73,4.81,4.81,4.81
98.28,9.69,4.94,9.70,4.95,-4.95,-3.95,-4.83,4.74,4.75,4.75
99.26,9.68,4.99,9.70,5.00,-5.00,-4.01,-4.93,4.68,4.69,4.69
100.25,9.66,5.02,9.70,5.06,-5.06,-4.08,-5.03,4.60,4.64,4.64
101.25,9.66,5.08,9.69,5.11,-5.11,-4.15,-5.14,4.55,4.58,4.58
102.27,9.68,5.16,9.68,5.16,-5.16,-4.22,-5.24,4.52,4.52,4.52
103.29,9.70,5.25,9.67,5.21,-5.21,-4.29,-5.35,4.49,4.46,4.45
104.32,9.70,5.29,9.66,5.26,-5.26,-4.36,-5.45,4.44,4.40,4.41
105.37,9.68,5.33,9.64,5.30,-5.30,-4.43,-5.56,4.38,4.34,4.35
106.42,9.65,5.36,9.63,5.35,-5.35,-4.50,-5.67,4.31,4.28,4.29
107.48,9.63,5.41,9.61,5.39,-5.39,-4.58,-5.77,4.24,4.22,4.22
108.56,9.60,5.45,9.60,5.44,-5.44,-4.65,-5.88,4.16,4.16,4.16
109.64,9.58,5.48,9.59,5.50,-5.50,-4.73,-5.98,4.09,4.10,4.10
110.74,9.56,5.53,9.58,5.55,-5.55,-4.80,-6.09,4.01,4.03,4.03
111.85,9.54,5.56,9.58,5.60,-5.60,-4.88,-6.18,3.94,3.97,3.98
112.97,9.54,5.63,9.57,5.66,-5.66,-4.95,-6.28,3.88,3.91,3.91
114.10,9.53,5.68,9.57,5.72,-5.72,-5.03,-6.37,3.81,3.85,3.85
115.24,9.53,5.74,9.58,5.78,-5.78,-5.11,-6.46,3.75,3.80,3.79
116.39,9.54,5.81,9.59,5.84,-5.84,-5.19,-6.55,3.70,3.74,3.73
117.55,9.59,5.91,9.59,5.90,-5.90,-5.26,-6.62,3.69,3.69,3.68
118.73,9.64,6.01,9.60,5.96,-5.96,-5.34,-6.70,3.68,3.64,3.63
119.92,9.65,6.06,9.61,6.02,-6.02,-5.42,-6.76,3.63,3.59,3.59
121.12,9.65,6.11,9.62,6.08,-6.08,-5.50,-6.82,3.57,3.55,3.54
122.33,9.66,6.17,9.63,6.13,-6.13,-5.58,-6.87,3.53,3.50,3.50
123.55,9.67,6.21,9.64,6.18,-6.18,-5.66,-6.92,3.49,3.46,3.46
124.79,9.68,6.26,9.64,6.23,-6.23,-5.75,-6.95,3.46,3.42,3.42
126.03,9.68,6.30,9.64,6.27,-6.27,-5.83,-6.98,3.42,3.38,3.38
127.29,9.62,6.27,9.64,6.31,-6.31,-5.91,-7.01,3.32,3.34,3.35
128.57,9.59,6.29,9.64,6.34,-6.34,-5.99,-7.02,3.25,3.30,3.30
129.85,9.60,6.34,9.64,6.37,-6.37,-6.07,-7.03,3.23,3.26,3.26
131.15,9.61,6.39,9.63,6.40,-6.40,-6.15,-7.03,3.21,3.22,3.22
132.46,9.61,6.43,9.62,6.44,-6.44,-6.24,-7.03,3.17,3.19,3.19
133.79,9.61,6.46,9.62,6.47,-6.47,-6.32,-7.01,3.14,3.15,3.15
135.12,9.62,6.52,9.62,6.51,-6.51,-6.40,-7.00,3.12,3.11,3.10
136.48,9.62,6.54,9.62,6.54,-6.54,-6.48,-6.98,3.08,3.08,3.08
137.84,9.62,6.59,9.62,6.58,-6.58,-6.56,-6.95,3.04,3.04,3.03
139.22,9.63,6.64,9.62,6.62,-6.62,-6.64,-6.93,3.01,3.00,2.99
140.61,9.63,6.68,9.63,6.67,-6.67,-6.72,-6.90,2.97,2.96,2.95
142.02,9.63,6.70,9.64,6.71,-6.71,-6.80,-6.86,2.92,2.92,2.93
143.44,9.63,6.75,9.64,6.76,-6.76,-6.88,-6.83,2.87,2.88,2.89
144.87,9.63,6.79,9.64,6.81,-6.81,-6.96,-6.79,2.82,2.83,2.84
146.32,9.63,6.84,9.64,6.86,-6.86,-7.04,-6.76,2.77,2.78,2.79
147.78,9.63,6.88,9.63,6.91,-6.91,-7.12,-6.72,2.72,2.73,2.75
149.26,9.63,6.94,9.62,6.95,-6.95,-7.19,-6.69,2.68,2.66,2.70
150.75,9.63,7.01,9.60,7.00,-7.00,-7.27,-6.66,2.63,2.60,2.62
152.26,9.63,7.09,9.58,7.05,-7.05,-7.34,-6.63,2.58,2.53,2.55
153.78,9.63,7.16,9.57,7.11,-7.11,-7.41,-6.60,2.52,2.45,2.47
155.32,9.58,7.19,9.56,7.18,-7.18,-7.48,-6.57,2.40,2.38,2.39
156.88,9.53,7.22,9.55,7.25,-7.25,-7.55,-6.55,2.28,2.30,2.31
158.44,9.53,7.31,9.54,7.32,-7.32,-7.62,-6.53,2.21,2.22,2.22
160.03,9.47,7.34,9.54,7.39,-7.39,-7.68,-6.51,2.08,2.15,2.13
161.63,9.44,7.39,9.53,7.46,-7.46,-7.75,-6.50,1.98,2.07,2.05
163.24,9.43,7.45,9.53,7.52,-7.52,-7.81,-6.49,1.91,2.01,1.98
164.88,9.44,7.52,9.53,7.59,-7.59,-7.87,-6.49,1.86,1.94,1.93
166.53,9.58,7.71,9.53,7.64,-7.64,-7.92,-6.49,1.94,1.89,1.87
168.19,9.61,7.79,9.54,7.69,-7.69,-7.98,-6.49,1.92,1.84,1.82
169.87,9.61,7.83,9.54,7.74,-7.74,-8.03,-6.50,1.87,1.80,1.78
171.57,9.60,7.84,9.56,7.78,-7.78,-8.07,-6.51,1.82,1.77,1.76
173.29,9.59,7.86,9.57,7.83,-7.83,-8.12,-6.53,1.77,1.75,1.74
175.02,9.59,7.87,9.59,7.86,-7.86,-8.16,-6.56,1.73,1.73,1.72
176.77,9.58,7.88,9.60,7.89,-7.89,-8.20,-6.58,1.70,1.71,1.70
178.54,9.58,7.89,9.61,7.91,-7.91,-8.24,-6.62,1.67,1.70,1.70
180.32,9.59,7.90,9.62,7.93,-7.93,-8.27,-6.66,1.66,1.69,1.70
182.13,9.59,7.89,9.62,7.94,-7.94,-8.30,-6.70,1.65,1.68,1.70
183.95,9.60,7.92,9.61,7.95,-7.95,-8.32,-6.75,1.65,1.66,1.68
185.79,9.61,7.94,9.61,7.96,-7.96,-8.34,-6.80,1.66,1.65,1.68
187.65,9.63,7.98,9.61,7.97,-7.97,-8.36,-6.86,1.66,1.64,1.65
189.52,9.64,8.01,9.61,7.98,-7.98,-8.37,-6.92,1.66,1.63,1.64
191.42,9.58,7.97,9.60,7.99,-7.99,-8.38,-6.99,1.59,1.61,1.61
193.33,9.57,7.98,9.59,8.00,-8.00,-8.39,-7.06,1.57,1.59,1.59
195.27,9.58,8.02,9.58,8.01,-8.01,-8.39,-7.14,1.57,1.57,1.57
197.22,9.60,8.06,9.56,8.02,-8.02,-8.38,-7.22,1.58,1.55,1.54
199.19,9.58,8.07,9.55,8.03,-8.03,-8.38,-7.30,1.55,1.52,1.51
201.18,9.54,8.05,9.53,8.04,-8.04,-8.37,-7.39,1.50,1.50,1.49
203.19,9.52,8.05,9.52,8.04,-8.04,-8.35,-7.48,1.48,1.47,1.47
205.23,9.50,8.06,9.49,8.05,-8.05,-8.34,-7.57,1.46,1.45,1.44
207.28,9.45,8.02,9.47,8.05,-8.05,-8.31,-7.66,1.41,1.42,1.44
209.35,9.39,7.98,9.45,8.04,-8.04,-8.29,-7.76,1.35,1.40,1.41
211.44,9.38,8.01,9.43,8.04,-8.04,-8.26,-7.85,1.34,1.38,1.37
213.56,9.41,8.05,9.41,8.05,-8.05,-8.22,-7.95,1.36,1.36,1.36
215.69,9.41,8.06,9.40,8.05,-8.05,-8.19,-8.05,1.36,1.35,1.35
217.85,9.41,8.08,9.38,8.05,-8.05,-8.15,-8.14,1.37,1.33,1.33
220.03,9.37,8.05,9.36,8.04,-8.04,-8.10,-8.23,1.33,1.32,1.32
222.23,9.32,8.03,9.35,8.04,-8.04,-8.06,-8.32,1.29,1.31,1.29
224.45,9.30,8.00,9.34,8.03,-8.03,-8.01,-8.40,1.27,1.31,1.30
226.70,9.30,8.01,9.32,8.02,-8.02,-7.95,-8.48,1.28,1.30,1.30
228.96,9.31,8.01,9.31,8.01,-8.01,-7.90,-8.55,1.31,1.30,1.30
231.25,9.31,8.00,9.30,7.99,-7.99,-7.84,-8.62,1.32,1.31,1.31
233.57,9.32,8.00,9.28,7.96,-7.96,-7.78,-8.67,1.36,1.32,1.32
235.90,9.30,7.98,9.26,7.93,-7.93,-7.72,-8.72,1.37,1.33,1.33
238.26,9.19,7.86,9.23,7.89,-7.89,-7.65,-8.75,1.30,1.34,1.33
240.64,9.17,7.82,9.20,7.84,-7.84,-7.58,-8.77,1.33,1.36,1.35
243.05,9.18,7.80,9.17,7.79,-7.79,-7.51,-8.78,1.39,1.38,1.38
245.48,9.15,7.75,9.14,7.74,-7.74,-7.44,-8.78,1.42,1.40,1.40
247.93,9.12,7.69,9.10,7.68,-7.68,-7.37,-8.76,1.44,1.42,1.43
250.41,9.06,7.62,9.06,7.61,-7.61,-7.29,-8.73,1.45,1.44,1.44
252.92,9.01,7.54,9.00,7.54,-7.54,-7.21,-8.68,1.47,1.47,1.47
255.45,8.97,7.48,8.95,7.46,-7.46,-7.13,-8.62,1.51,1.49,1.50
258.00,8.87,7.35,8.89,7.38,-7.38,-7.05,-8.55,1.49,1.51,1.52
260.58,8.80,7.27,8.83,7.30,-7.30,-6.97,-8.46,1.50,1.53,1.53
263.19,8.74,7.18,8.77,7.21,-7.21,-6.89,-8.36,1.53,1.56,1.56
265.82,8.69,7.12,8.71,7.13,-7.13,-6.81,-8.25,1.57,1.58,1.57
268.48,8.70,7.11,8.63,7.03,-7.03,-6.72,-8.13,1.67,1.60,1.60
271.16,8.58,6.95,8.56,6.93,-6.93,-6.64,-8.00,1.65,1.63,1.63
273.87,8.48,6.84,8.48,6.83,-6.83,-6.55,-7.85,1.65,1.65,1.64
276.61,8.40,6.73,8.40,6.73,-6.73,-6.47,-7.70,1.68,1.67,1.68
279.38,8.32,6.62,8.32,6.62,-6.62,-6.38,-7.54,1.70,1.70,1.70
282.17,8.25,6.53,8.25,6.52,-6.52,-6.29,-7.38,1.73,1.73,1.72
284.99,8.15,6.39,8.17,6.42,-6.42,-6.21,-7.21,1.74,1.75,1.76
287.84,8.05,6.28,8.09,6.31,-6.31,-6.12,-7.04,1.74,1.78,1.77
290.72,8.00,6.19,8.01,6.20,-6.20,-6.03,-6.86,1.80,1.81,1.81
293.63,7.93,6.10,7.93,6.09,-6.09,-5.94,-6.69,1.84,1.84,1.83
296.57,7.85,5.99,7.85,5.99,-5.99,-5.85,-6.51,1.87,1.87,1.87
299.53,7.75,5.86,7.77,5.88,-5.88,-5.76,-6.33,1.87,1.89,1.89
302.53,7.70,5.79,7.70,5.78,-5.78,-5.67,-6.14,1.92,1.92,1.91
305.55,7.62,5.67,7.62,5.68,-5.68,-5.59,-5.96,1.94,1.94,1.95
308.61,7.57,5.60,7.55,5.58,-5.58,-5.50,-5.78,1.99,1.97,1.97
311.69,7.47,5.48,7.48,5.49,-5.49,-5.41,-5.60,1.99,1.99,1.99
314.81,7.38,5.36,7.40,5.39,-5.39,-5.32,-5.43,1.99,2.01,2.02
317.96,7.30,5.27,7.32,5.29,-5.29,-5.23,-5.25,2.02,2.03,2.04
321.14,7.27,5.23,7.23,5.19,-5.19,-5.14,-5.07,2.08,2.05,2.04
324.35,7.19,5.13,7.15,5.09,-5.09,-5.06,-4.90,2.10,2.06,2.06
327.59,7.09,5.02,7.06,4.99,-4.99,-4.97,-4.73,2.10,2.08,2.08
330.87,6.97,4.89,6.98,4.89,-4.89,-4.88,-4.56,2.08,2.09,2.08
334.18,6.88,4.78,6.90,4.80,-4.80,-4.79,-4.40,2.08,2.10,2.10
337.52,6.84,4.74,6.82,4.71,-4.71,-4.71,-4.24,2.13,2.11,2.11
340.90,6.73,4.61,6.74,4.62,-4.62,-4.62,-4.07,2.11,2.12,2.12
344.30,6.64,4.51,6.66,4.54,-4.54,-4.53,-3.92,2.11,2.12,2.13
347.75,6.52,4.39,6.58,4.45,-4.45,-4.45,-3.76,2.07,2.13,2.13
351.23,6.47,4.34,6.51,4.37,-4.37,-4.36,-3.61,2.10,2.13,2.14
354.74,6.45,4.32,6.43,4.30,-4.30,-4.28,-3.46,2.15,2.14,2.13
358.28,6.35,4.21,6.36,4.22,-4.22,-4.19,-3.31,2.13,2.14,2.14
361.87,6.28,4.14,6.30,4.16,-4.16,-4.11,-3.17,2.13,2.14,2.14
365.49,6.28,4.14,6.23,4.09,-4.09,-4.02,-3.02,2.19,2.14,2.15
369.14,6.18,4.05,6.17,4.03,-4.03,-3.94,-2.88,2.16,2.14,2.13
372.83,6.06,3.93,6.10,3.96,-3.96,-3.85,-2.74,2.10,2.14,2.13
376.56,6.00,3.87,6.03,3.89,-3.89,-3.77,-2.61,2.11,2.13,2.13
380.33,5.99,3.85,5.96,3.83,-3.83,-3.69,-2.48,2.17,2.13,2.14
384.13,5.88,3.75,5.89,3.76,-3.76,-3.60,-2.35,2.12,2.13,2.14
387.97,5.83,3.71,5.81,3.69,-3.69,-3.52,-2.22,2.14,2.12,2.12
391.85,5.76,3.65,5.73,3.61,-3.61,-3.43,-2.09,2.15,2.12,2.11
395.77,5.65,3.53,5.64,3.53,-3.53,-3.35,-1.97,2.12,2.11,2.12
399.73,5.59,3.48,5.55,3.45,-3.45,-3.27,-1.84,2.14,2.10,2.11
403.72,5.45,3.34,5.46,3.36,-3.36,-3.18,-1.72,2.09,2.10,2.11
407.76,5.37,3.28,5.37,3.28,-3.28,-3.10,-1.61,2.09,2.09,2.10
411.84,5.29,3.20,5.29,3.20,-3.20,-3.02,-1.49,2.09,2.09,2.10
415.96,5.17,3.08,5.20,3.11,-3.11,-2.93,-1.38,2.06,2.09,2.09
420.12,5.10,3.01,5.11,3.02,-3.02,-2.85,-1.27,2.08,2.09,2.09
424.32,5.04,2.95,5.03,2.93,-2.93,-2.77,-1.16,2.11,2.10,2.09
428.56,4.90,2.80,4.95,2.84,-2.84,-2.68,-1.05,2.06,2.11,2.10
432.85,4.82,2.71,4.87,2.74,-2.74,-2.60,-0.95,2.08,2.12,2.11
437.18,4.77,2.65,4.79,2.64,-2.64,-2.51,-0.85,2.13,2.14,2.12
441.55,4.70,2.55,4.71,2.55,-2.55,-2.43,-0.75,2.16,2.17,2.16
445.96,4.66,2.48,4.64,2.44,-2.44,-2.34,-0.65,2.22,2.20,2.19
450.42,4.58,2.37,4.57,2.33,-2.33,-2.25,-0.56,2.25,2.24,2.21
454.93,4.49,2.23,4.49,2.22,-2.22,-2.17,-0.47,2.27,2.28,2.26
459.48,4.43,2.12,4.42,2.10,-2.10,-2.08,-0.38,2.34,2.32,2.31
464.07,4.36,2.00,4.33,1.97,-1.97,-1.99,-0.29,2.39,2.37,2.36
468.71,4.26,1.84,4.25,1.83,-1.83,-1.90,-0.21,2.43,2.41,2.42
473.40,4.14,1.68,4.16,1.69,-1.69,-1.81,-0.13,2.45,2.46,2.46
478.13,4.06,1.54,4.05,1.54,-1.54,-1.72,-0.05,2.52,2.51,2.52
482.91,4.00,1.44,3.94,1.38,-1.38,-1.62,0.02,2.62,2.56,2.56
487.74,3.90,1.30,3.83,1.23,-1.23,-1.53,0.09,2.67,2.60,2.60
492.62,3.75,1.10,3.72,1.09,-1.09,-1.43,0.16,2.66,2.63,2.65
497.55,3.62,0.96,3.62,0.96,-0.96,-1.33,0.22,2.66,2.66,2.67
502.52,3.51,0.82,3.53,0.85,-0.85,-1.23,0.29,2.66,2.69,2.70
507.55,3.38,0.68,3.46,0.76,-0.76,-1.13,0.35,2.62,2.70,2.71
512.62,3.25,0.54,3.39,0.68,-0.68,-1.03,0.40,2.57,2.70,2.72
517.75,3.18,0.46,3.32,0.61,-0.61,-0.92,0.46,2.57,2.70,2.72
522.93,3.02,0.31,3.24,0.55,-0.55,-0.81,0.51,2.47,2.69,2.71
528.16,2.95,0.27,3.15,0.48,-0.48,-0.70,0.55,2.47,2.67,2.68
533.44,3.00,0.35,3.03,0.39,-0.39,-0.58,0.60,2.61,2.64,2.65
538.77,3.07,0.45,2.89,0.29,-0.29,-0.46,0.64,2.78,2.60,2.62
544.16,2.97,0.40,2.74,0.18,-0.18,-0.34,0.69,2.79,2.56,2.57
549.60,2.83,0.31,2.57,0.06,-0.06,-0.21,0.73,2.77,2.51,2.52
555.10,2.64,0.18,2.37,-0.09,0.09,-0.08,0.76,2.73,2.46,2.46
