frequency,raw,error,smoothed,error_smoothed,equalization,parametric_eq,fixed_band_eq,equalized_raw,equalized_smoothed,target
20.00,-9.75,-13.84,-9.76,-13.85,13.83,13.26,5.69,4.08,4.07,4.09
20.20,-9.66,-13.79,-9.65,-13.78,13.78,13.29,5.83,4.12,4.12,4.13
20.40,-9.56,-13.72,-9.56,-13.72,13.73,13.31,5.97,4.17,4.17,4.16
20.61,-9.47,-13.66,-9.46,-13.66,13.68,13.32,6.12,4.21,4.21,4.19
20.81,-9.37,-13.60,-9.37,-13.61,13.63,13.33,6.27,4.26,4.25,4.23
21.02,-9.29,-13.56,-9.29,-13.56,13.58,13.34,6.43,4.29,4.28,4.27
21.23,-9.23,-13.51,-9.23,-13.52,13.53,13.34,6.59,4.30,4.30,4.28
21.44,-9.18,-13.48,-9.18,-13.48,13.48,13.33,6.75,4.31,4.31,4.30
21.66,-9.13,-13.45,-9.13,-13.45,13.45,13.33,6.92,4.32,4.32,4.32
21.87,-9.08,-13.41,-9.08,-13.41,13.41,13.31,7.09,4.33,4.33,4.33
22.09,-9.03,-13.37,-9.03,-13.37,13.36,13.30,7.27,4.34,4.34,4.34
22.31,-8.97,-13.31,-8.97,-13.32,13.32,13.28,7.45,4.35,4.35,4.34
22.54,-8.91,-13.26,-8.91,-13.27,13.26,13.25,7.64,4.35,4.35,4.35
22.76,-8.85,-13.21,-8.85,-13.21,13.20,13.23,7.83,4.35,4.35,4.36
22.99,-8.79,-13.15,-8.78,-13.15,13.13,13.19,8.03,4.34,4.35,4.36
23.22,-8.70,-13.07,-8.70,-13.07,13.06,13.16,8.23,4.36,4.36,4.37
23.45,-8.60,-12.98,-8.60,-12.99,12.99,13.12,8.44,4.39,4.38,4.38
23.69,-8.51,-12.90,-8.50,-12.90,12.91,13.08,8.65,4.40,4.41,4.39
23.92,-8.41,-12.81,-8.42,-12.82,12.84,13.04,8.87,4.43,4.42,4.40
24.16,-8.34,-12.75,-8.34,-12.76,12.77,12.99,9.09,4.43,4.43,4.41
24.40,-8.29,-12.71,-8.28,-12.70,12.70,12.94,9.32,4.42,4.42,4.42
24.65,-8.23,-12.64,-8.23,-12.65,12.64,12.89,9.55,4.41,4.41,4.41
24.89,-8.17,-12.58,-8.17,-12.59,12.58,12.83,9.79,4.41,4.40,4.41
25.14,-8.12,-12.53,-8.12,-12.53,12.52,12.78,10.03,4.40,4.40,4.41
25.39,-8.06,-12.47,-8.06,-12.47,12.47,12.72,10.28,4.41,4.41,4.41
25.65,-8.00,-12.41,-8.00,-12.41,12.41,12.66,10.53,4.41,4.42,4.41
25.91,-7.94,-12.33,-7.94,-12.35,12.36,12.60,10.78,4.42,4.42,4.39
26.16,-7.89,-12.29,-7.89,-12.29,12.31,12.53,11.04,4.42,4.42,4.40
26.43,-7.85,-12.25,-7.85,-12.25,12.25,12.47,11.30,4.40,4.40,4.40
26.69,-7.81,-12.21,-7.81,-12.22,12.19,12.40,11.56,4.38,4.38,4.40
26.96,-7.77,-12.17,-7.76,-12.17,12.13,12.33,11.82,4.36,4.37,4.40
27.23,-7.70,-12.10,-7.70,-12.10,12.08,12.27,12.09,4.37,4.38,4.40
27.50,-7.62,-12.02,-7.62,-12.02,12.02,12.20,12.35,4.40,4.41,4.40
27.77,-7.54,-11.93,-7.54,-11.94,11.98,12.13,12.60,4.44,4.43,4.39
28.05,-7.48,-11.87,-7.49,-11.88,11.93,12.06,12.85,4.45,4.44,4.39
28.33,-7.48,-11.85,-7.47,-11.86,11.89,11.99,13.10,4.41,4.42,4.37
28.62,-7.47,-11.85,-7.47,-11.85,11.85,11.92,13.33,4.38,4.38,4.38
28.90,-7.47,-11.85,-7.46,-11.84,11.81,11.85,13.56,4.34,4.35,4.38
29.19,-7.43,-11.80,-7.42,-11.80,11.77,11.78,13.76,4.34,4.34,4.37
29.48,-7.36,-11.74,-7.36,-11.75,11.72,11.70,13.95,4.36,4.36,4.38
29.78,-7.29,-11.67,-7.29,-11.67,11.67,11.63,14.12,4.38,4.37,4.38
30.08,-7.22,-11.60,-7.22,-11.60,11.60,11.56,14.27,4.38,4.38,4.38
30.38,-7.15,-11.51,-7.15,-11.52,11.52,11.49,14.39,4.37,4.37,4.36
30.68,-7.08,-11.44,-7.08,-11.44,11.44,11.42,14.48,4.36,4.36,4.36
30.99,-7.01,-11.36,-7.01,-11.37,11.36,11.35,14.55,4.35,4.35,4.35
31.30,-6.94,-11.29,-6.94,-11.29,11.30,11.28,14.58,4.36,4.36,4.35
31.61,-6.87,-11.22,-6.87,-11.21,11.24,11.22,14.59,4.37,4.37,4.35
31.93,-6.80,-11.13,-6.81,-11.15,11.19,11.15,14.57,4.39,4.38,4.33
32.24,-6.78,-11.10,-6.79,-11.12,11.14,11.08,14.51,4.36,4.35,4.32
32.57,-6.78,-11.10,-6.78,-11.10,11.10,11.01,14.44,4.32,4.32,4.32
32.89,-6.78,-11.10,-6.76,-11.09,11.05,10.95,14.33,4.27,4.28,4.32
33.22,-6.73,-11.05,-6.72,-11.04,11.00,10.88,14.21,4.27,4.28,4.32
33.55,-6.66,-10.97,-6.66,-10.98,10.95,10.82,14.07,4.29,4.29,4.31
33.89,-6.58,-10.89,-6.59,-10.90,10.90,10.75,13.91,4.32,4.31,4.31
34.23,-6.52,-10.83,-6.52,-10.83,10.84,10.69,13.73,4.32,4.32,4.31
34.57,-6.47,-10.77,-6.46,-10.77,10.79,10.63,13.55,4.32,4.33,4.30
34.92,-6.41,-10.70,-6.42,-10.72,10.74,10.57,13.36,4.33,4.32,4.29
35.27,-6.38,-10.67,-6.38,-10.67,10.69,10.51,13.16,4.31,4.31,4.29
35.62,-6.36,-10.64,-6.35,-10.64,10.66,10.45,12.96,4.30,4.30,4.28
35.97,-6.33,-10.60,-6.34,-10.61,10.62,10.39,12.76,4.29,4.29,4.27
36.33,-6.32,-10.59,-6.33,-10.60,10.59,10.34,12.55,4.27,4.26,4.27
36.70,-6.31,-10.58,-6.31,-10.57,10.54,10.28,12.35,4.24,4.24,4.27
37.06,-6.29,-10.54,-6.27,-10.53,10.49,10.23,12.15,4.20,4.22,4.25
37.43,-6.21,-10.46,-6.22,-10.47,10.43,10.17,11.95,4.22,4.21,4.25
37.81,-6.14,-10.38,-6.14,-10.38,10.36,10.12,11.76,4.22,4.22,4.24
38.19,-6.06,-10.29,-6.05,-10.29,10.30,10.07,11.57,4.24,4.25,4.23
38.57,-5.97,-10.20,-5.97,-10.20,10.24,10.02,11.39,4.27,4.27,4.23
38.95,-5.88,-10.10,-5.90,-10.12,10.18,9.97,11.21,4.30,4.28,4.22
39.34,-5.87,-10.08,-5.87,-10.08,10.13,9.92,11.03,4.26,4.26,4.21
39.74,-5.87,-10.06,-5.86,-10.06,10.09,9.87,10.87,4.22,4.23,4.19
40.14,-5.87,-10.07,-5.88,-10.07,10.05,9.82,10.71,4.18,4.17,4.20
40.54,-5.87,-10.06,-5.87,-10.07,10.02,9.78,10.55,4.15,4.14,4.19
40.94,-5.87,-10.06,-5.84,-10.03,9.99,9.73,10.40,4.12,4.14,4.19
41.35,-5.79,-9.96,-5.78,-9.96,9.95,9.69,10.26,4.16,4.16,4.17
41.76,-5.70,-9.85,-5.72,-9.87,9.89,9.64,10.13,4.20,4.18,4.15
42.18,-5.65,-9.79,-5.67,-9.81,9.83,9.60,10.00,4.18,4.16,4.14
42.60,-5.65,-9.76,-5.64,-9.77,9.75,9.56,9.88,4.10,4.10,4.11
43.03,-5.64,-9.74,-5.60,-9.70,9.67,9.52,9.77,4.03,4.06,4.10
43.46,-5.54,-9.61,-5.54,-9.61,9.59,9.48,9.66,4.05,4.05,4.07
43.90,-5.44,-9.46,-5.47,-9.50,9.52,9.44,9.56,4.08,4.05,4.02
44.33,-5.42,-9.41,-5.42,-9.42,9.47,9.40,9.46,4.05,4.05,3.99
44.78,-5.42,-9.38,-5.41,-9.37,9.42,9.36,9.37,4.00,4.01,3.96
45.23,-5.42,-9.35,-5.42,-9.35,9.37,9.33,9.29,3.95,3.95,3.93
45.68,-5.42,-9.32,-5.42,-9.33,9.32,9.29,9.22,3.90,3.90,3.90
46.13,-5.42,-9.30,-5.43,-9.31,9.27,9.25,9.15,3.86,3.85,3.88
46.60,-5.42,-9.29,-5.42,-9.29,9.23,9.22,9.08,3.81,3.81,3.87
47.06,-5.41,-9.26,-5.37,-9.23,9.19,9.18,9.03,3.78,3.82,3.85
47.53,-5.30,-9.15,-5.30,-9.15,9.15,9.15,8.97,3.85,3.85,3.85
48.01,-5.19,-9.04,-5.23,-9.08,9.11,9.11,8.93,3.92,3.88,3.85
48.49,-5.19,-9.02,-5.18,-9.02,9.07,9.08,8.88,3.88,3.89,3.83
48.97,-5.19,-9.01,-5.18,-9.00,9.05,9.05,8.85,3.86,3.87,3.82
49.46,-5.19,-9.00,-5.19,-9.00,9.03,9.01,8.81,3.84,3.84,3.81
49.96,-5.19,-9.00,-5.19,-9.01,9.02,8.98,8.79,3.83,3.83,3.81
50.46,-5.19,-9.01,-5.19,-9.01,9.00,8.95,8.76,3.81,3.81,3.82
50.96,-5.19,-9.02,-5.20,-9.03,8.98,8.91,8.74,3.79,3.78,3.83
51.47,-5.19,-9.01,-5.19,-9.02,8.95,8.88,8.72,3.76,3.76,3.82
51.99,-5.19,-8.99,-5.14,-8.95,8.91,8.85,8.71,3.72,3.77,3.80
52.51,-5.07,-8.86,-5.07,-8.86,8.86,8.81,8.70,3.79,3.79,3.79
53.03,-4.96,-8.72,-5.00,-8.77,8.80,8.78,8.69,3.84,3.80,3.76
53.56,-4.96,-8.69,-4.95,-8.69,8.74,8.75,8.68,3.78,3.78,3.73
54.10,-4.96,-8.65,-4.95,-8.64,8.67,8.71,8.67,3.72,3.73,3.69
54.64,-4.96,-8.60,-4.96,-8.60,8.61,8.68,8.67,3.66,3.66,3.64
55.18,-4.96,-8.55,-4.96,-8.55,8.56,8.64,8.66,3.60,3.60,3.59
55.74,-4.96,-8.50,-4.96,-8.50,8.50,8.61,8.65,3.54,3.54,3.54
56.29,-4.96,-8.45,-4.96,-8.45,8.44,8.57,8.65,3.48,3.48,3.49
56.86,-4.96,-8.39,-4.97,-8.40,8.36,8.54,8.64,3.40,3.39,3.43
57.42,-4.96,-8.32,-4.96,-8.33,8.28,8.50,8.62,3.32,3.32,3.36
58.00,-4.96,-8.26,-4.91,-8.22,8.19,8.46,8.61,3.24,3.28,3.30
58.58,-4.83,-8.07,-4.84,-8.09,8.10,8.42,8.59,3.27,3.26,3.24
59.16,-4.73,-7.92,-4.77,-7.96,8.01,8.38,8.56,3.28,3.24,3.19
59.76,-4.73,-7.86,-4.72,-7.85,7.91,8.34,8.53,3.18,3.19,3.13
60.35,-4.73,-7.79,-4.72,-7.80,7.80,8.30,8.50,3.07,3.08,3.06
60.96,-4.73,-7.74,-4.74,-7.75,7.70,8.26,8.46,2.97,2.96,3.01
61.57,-4.73,-7.67,-4.71,-7.66,7.60,8.22,8.42,2.87,2.89,2.94
62.18,-4.69,-7.56,-4.65,-7.54,7.51,8.17,8.37,2.82,2.86,2.87
62.80,-4.55,-7.38,-4.58,-7.41,7.42,8.13,8.31,2.88,2.84,2.83
63.43,-4.51,-7.28,-4.53,-7.30,7.35,8.08,8.25,2.84,2.82,2.77
64.07,-4.51,-7.24,-4.50,-7.23,7.27,8.03,8.18,2.76,2.77,2.73
64.71,-4.51,-7.19,-4.51,-7.19,7.20,7.98,8.11,2.69,2.70,2.68
65.35,-4.51,-7.14,-4.51,-7.15,7.14,7.93,8.03,2.63,2.63,2.63
66.01,-4.51,-7.11,-4.51,-7.11,7.10,7.88,7.94,2.59,2.59,2.60
66.67,-4.51,-7.07,-4.51,-7.07,7.06,7.83,7.85,2.56,2.56,2.56
67.33,-4.51,-7.04,-4.51,-7.04,7.04,7.78,7.75,2.53,2.53,2.53
68.01,-4.51,-7.01,-4.51,-7.01,7.00,7.72,7.66,2.49,2.49,2.50
68.69,-4.51,-6.98,-4.51,-6.98,6.97,7.67,7.55,2.46,2.46,2.47
69.37,-4.51,-6.94,-4.51,-6.95,6.94,7.61,7.45,2.43,2.43,2.43
70.07,-4.51,-6.91,-4.51,-6.92,6.91,7.55,7.34,2.40,2.40,2.40
70.77,-4.51,-6.90,-4.51,-6.89,6.89,7.49,7.23,2.38,2.38,2.39
71.48,-4.51,-6.86,-4.50,-6.86,6.88,7.43,7.12,2.37,2.38,2.35
72.19,-4.51,-6.84,-4.51,-6.84,6.87,7.37,7.01,2.36,2.36,2.33
72.91,-4.51,-6.80,-4.56,-6.86,6.87,7.30,6.89,2.36,2.31,2.29
73.64,-4.65,-6.91,-4.63,-6.89,6.89,7.24,6.78,2.24,2.26,2.26
74.38,-4.73,-6.96,-4.69,-6.92,6.91,7.18,6.67,2.18,2.22,2.23
75.12,-4.73,-6.93,-4.74,-6.94,6.93,7.11,6.56,2.20,2.20,2.20
75.87,-4.73,-6.90,-4.78,-6.95,6.96,7.04,6.45,2.23,2.19,2.17
76.63,-4.84,-6.98,-4.83,-6.98,6.98,6.97,6.34,2.15,2.15,2.14
77.40,-4.93,-7.04,-4.90,-7.02,7.00,6.91,6.23,2.07,2.10,2.11
78.17,-4.96,-7.04,-4.96,-7.05,7.02,6.84,6.13,2.06,2.06,2.08
78.95,-4.96,-7.03,-4.97,-7.04,7.02,6.77,6.03,2.06,2.06,2.07
79.74,-4.96,-7.01,-4.96,-7.01,7.02,6.69,5.93,2.06,2.06,2.05
80.54,-4.96,-6.99,-4.96,-6.99,7.02,6.62,5.83,2.06,2.06,2.03
81.35,-4.96,-6.97,-4.96,-6.98,7.00,6.55,5.74,2.04,2.04,2.01
82.16,-4.96,-6.97,-4.97,-6.99,6.98,6.48,5.65,2.02,2.01,2.01
82.98,-4.96,-6.97,-4.96,-6.97,6.94,6.40,5.56,1.98,1.98,2.01
83.81,-4.96,-6.96,-4.91,-6.91,6.90,6.33,5.48,1.94,1.99,2.00
84.65,-4.81,-6.80,-4.84,-6.84,6.84,6.25,5.40,2.03,2.00,1.99
85.50,-4.73,-6.73,-4.78,-6.78,6.76,6.18,5.32,2.03,1.98,2.00
86.35,-4.73,-6.73,-4.70,-6.70,6.68,6.11,5.25,1.95,1.98,2.00
87.22,-4.67,-6.67,-4.60,-6.60,6.59,6.03,5.18,1.92,1.99,2.00
88.09,-4.44,-6.44,-4.47,-6.48,6.49,5.95,5.11,2.05,2.02,2.00
88.97,-4.29,-6.31,-4.35,-6.37,6.40,5.88,5.05,2.11,2.05,2.02
89.86,-4.28,-6.30,-4.26,-6.28,6.32,5.80,4.99,2.04,2.05,2.02
90.76,-4.26,-6.26,-4.20,-6.22,6.24,5.73,4.94,1.98,2.03,2.00
91.66,-4.12,-6.13,-4.14,-6.15,6.16,5.65,4.89,2.04,2.02,2.01
92.58,-4.05,-6.03,-4.09,-6.08,6.09,5.58,4.84,2.04,2.00,1.98
93.51,-4.05,-6.04,-4.05,-6.04,6.02,5.50,4.79,1.97,1.97,1.99
94.44,-4.05,-6.02,-4.00,-5.98,5.95,5.42,4.75,1.90,1.94,1.97
95.39,-3.95,-5.91,-3.94,-5.90,5.87,5.35,4.71,1.92,1.92,1.96
96.34,-3.82,-5.74,-3.88,-5.81,5.79,5.27,4.68,1.97,1.91,1.92
97.30,-3.82,-5.72,-3.80,-5.70,5.71,5.20,4.65,1.89,1.91,1.90
98.28,-3.77,-5.65,-3.72,-5.60,5.63,5.13,4.62,1.86,1.91,1.88
99.26,-3.63,-5.48,-3.67,-5.52,5.55,5.05,4.59,1.92,1.89,1.85
100.25,-3.59,-5.41,-3.60,-5.43,5.47,4.98,4.56,1.88,1.87,1.82
101.25,-3.59,-5.38,-3.58,-5.37,5.39,4.90,4.54,1.80,1.81,1.79
102.27,-3.59,-5.34,-3.59,-5.35,5.31,4.83,4.52,1.72,1.71,1.75
103.29,-3.59,-5.29,-3.57,-5.28,5.23,4.76,4.50,1.64,1.66,1.70
104.32,-3.54,-5.20,-3.51,-5.18,5.16,4.69,4.49,1.62,1.64,1.66
105.37,-3.42,-5.03,-3.45,-5.06,5.08,4.62,4.47,1.66,1.63,1.61
106.42,-3.37,-4.93,-3.39,-4.95,4.99,4.55,4.46,1.62,1.60,1.56
107.48,-3.37,-4.86,-3.36,-4.85,4.88,4.47,4.44,1.51,1.52,1.49
108.56,-3.37,-4.78,-3.38,-4.80,4.77,4.41,4.43,1.40,1.39,1.41
109.64,-3.37,-4.71,-3.36,-4.71,4.65,4.34,4.42,1.28,1.29,1.34
110.74,-3.36,-4.64,-3.30,-4.58,4.54,4.27,4.40,1.18,1.24,1.28
111.85,-3.17,-4.38,-3.22,-4.43,4.43,4.20,4.39,1.26,1.21,1.21
112.97,-3.14,-4.26,-3.16,-4.29,4.33,4.13,4.37,1.19,1.18,1.12
114.10,-3.14,-4.20,-3.12,-4.18,4.24,4.07,4.36,1.10,1.12,1.06
115.24,-3.14,-4.12,-3.14,-4.12,4.15,4.00,4.34,1.01,1.01,0.98
116.39,-3.14,-4.04,-3.14,-4.05,4.06,3.94,4.32,0.92,0.92,0.90
117.55,-3.14,-3.98,-3.14,-3.98,3.97,3.87,4.30,0.83,0.83,0.84
118.73,-3.14,-3.91,-3.15,-3.93,3.89,3.81,4.28,0.75,0.74,0.77
119.92,-3.14,-3.87,-3.14,-3.86,3.81,3.75,4.25,0.67,0.67,0.73
121.12,-3.13,-3.80,-3.08,-3.76,3.74,3.69,4.22,0.61,0.65,0.67
122.33,-2.99,-3.62,-3.01,-3.65,3.66,3.62,4.19,0.67,0.65,0.63
123.55,-2.91,-3.52,-2.94,-3.55,3.58,3.56,4.16,0.68,0.64,0.61
124.79,-2.91,-3.48,-2.90,-3.47,3.52,3.50,4.12,0.61,0.62,0.57
126.03,-2.91,-3.44,-2.90,-3.44,3.46,3.45,4.08,0.55,0.56,0.53
127.29,-2.91,-3.41,-2.91,-3.41,3.42,3.39,4.04,0.51,0.51,0.50
128.57,-2.91,-3.37,-2.91,-3.38,3.38,3.33,3.99,0.47,0.47,0.46
129.85,-2.91,-3.34,-2.91,-3.34,3.34,3.27,3.94,0.43,0.43,0.43
131.15,-2.91,-3.31,-2.91,-3.31,3.30,3.22,3.89,0.39,0.39,0.40
132.46,-2.91,-3.28,-2.92,-3.30,3.25,3.16,3.83,0.34,0.32,0.37
133.79,-2.91,-3.25,-2.90,-3.24,3.19,3.11,3.77,0.28,0.28,0.34
135.12,-2.90,-3.19,-2.85,-3.15,3.12,3.06,3.71,0.22,0.27,0.29
136.48,-2.74,-3.00,-2.77,-3.04,3.05,3.00,3.65,0.31,0.28,0.26
137.84,-2.68,-2.91,-2.71,-2.93,2.98,2.95,3.58,0.30,0.28,0.23
139.22,-2.68,-2.86,-2.67,-2.85,2.92,2.90,3.51,0.24,0.25,0.18
140.61,-2.68,-2.81,-2.67,-2.82,2.86,2.85,3.44,0.18,0.19,0.13
142.02,-2.68,-2.79,-2.68,-2.79,2.80,2.80,3.37,0.12,0.12,0.11
143.44,-2.68,-2.75,-2.68,-2.76,2.73,2.75,3.30,0.05,0.05,0.07
144.87,-2.68,-2.71,-2.69,-2.72,2.66,2.71,3.23,-0.02,-0.03,0.03
146.32,-2.68,-2.66,-2.66,-2.65,2.59,2.66,3.16,-0.09,-0.07,-0.02
147.78,-2.63,-2.57,-2.60,-2.54,2.51,2.61,3.08,-0.12,-0.10,-0.06
149.26,-2.51,-2.38,-2.53,-2.40,2.41,2.57,3.01,-0.10,-0.12,-0.13
150.75,-2.45,-2.24,-2.47,-2.27,2.31,2.52,2.93,-0.14,-0.16,-0.21
152.26,-2.45,-2.17,-2.44,-2.16,2.21,2.48,2.86,-0.24,-0.23,-0.28
153.78,-2.45,-2.10,-2.44,-2.09,2.10,2.44,2.78,-0.35,-0.34,-0.35
155.32,-2.45,-2.00,-2.45,-2.01,2.01,2.39,2.71,-0.44,-0.44,-0.45
156.88,-2.45,-1.93,-2.45,-1.93,1.92,2.35,2.64,-0.53,-0.53,-0.52
158.44,-2.45,-1.86,-2.45,-1.86,1.85,2.31,2.57,-0.60,-0.60,-0.59
160.03,-2.45,-1.78,-2.45,-1.79,1.78,2.27,2.49,-0.67,-0.67,-0.67
161.63,-2.45,-1.72,-2.45,-1.73,1.73,2.23,2.42,-0.72,-0.72,-0.73
163.24,-2.45,-1.67,-2.45,-1.67,1.68,2.19,2.35,-0.77,-0.77,-0.78
164.88,-2.45,-1.63,-2.45,-1.63,1.64,2.15,2.29,-0.81,-0.81,-0.82
166.53,-2.45,-1.59,-2.45,-1.59,1.61,2.12,2.22,-0.84,-0.84,-0.86
168.19,-2.45,-1.56,-2.45,-1.57,1.58,2.08,2.15,-0.87,-0.87,-0.89
169.87,-2.45,-1.55,-2.45,-1.55,1.55,2.04,2.09,-0.90,-0.90,-0.90
171.57,-2.45,-1.54,-2.47,-1.56,1.52,2.01,2.02,-0.93,-0.95,-0.91
173.29,-2.45,-1.54,-2.44,-1.54,1.49,1.97,1.96,-0.96,-0.95,-0.91
175.02,-2.45,-1.56,-2.38,-1.49,1.46,1.94,1.90,-0.99,-0.92,-0.89
176.77,-2.26,-1.36,-2.31,-1.42,1.43,1.91,1.84,-0.83,-0.88,-0.90
178.54,-2.23,-1.34,-2.25,-1.36,1.41,1.87,1.78,-0.82,-0.84,-0.89
180.32,-2.23,-1.35,-2.21,-1.33,1.38,1.84,1.72,-0.84,-0.83,-0.88
182.13,-2.23,-1.35,-2.23,-1.35,1.37,1.81,1.67,-0.86,-0.86,-0.88
183.95,-2.23,-1.35,-2.23,-1.35,1.35,1.78,1.61,-0.88,-0.88,-0.88
185.79,-2.23,-1.34,-2.23,-1.34,1.33,1.75,1.56,-0.90,-0.90,-0.89
187.65,-2.23,-1.32,-2.23,-1.32,1.31,1.72,1.50,-0.92,-0.92,-0.91
189.52,-2.23,-1.30,-2.24,-1.31,1.28,1.69,1.45,-0.95,-0.96,-0.93
191.42,-2.23,-1.28,-2.23,-1.29,1.24,1.66,1.40,-0.99,-0.99,-0.95
193.33,-2.23,-1.26,-2.19,-1.23,1.20,1.63,1.35,-1.03,-0.99,-0.97
195.27,-2.12,-1.15,-2.12,-1.15,1.14,1.60,1.31,-0.98,-0.98,-0.97
197.22,-2.02,-1.03,-2.05,-1.06,1.09,1.58,1.26,-0.93,-0.96,-0.99
199.19,-2.00,-0.97,-2.00,-0.99,1.04,1.55,1.21,-0.96,-0.96,-1.03
201.18,-2.00,-0.97,-1.99,-0.96,0.99,1.52,1.17,-1.01,-1.00,-1.03
203.19,-2.00,-0.95,-2.00,-0.95,0.95,1.50,1.13,-1.05,-1.05,-1.05
205.23,-2.00,-0.92,-2.00,-0.94,0.92,1.47,1.08,-1.08,-1.08,-1.08
207.28,-2.00,-0.92,-2.00,-0.91,0.90,1.45,1.04,-1.10,-1.10,-1.08
209.35,-2.00,-0.90,-2.00,-0.90,0.89,1.43,1.00,-1.11,-1.11,-1.10
211.44,-2.00,-0.87,-2.00,-0.89,0.88,1.40,0.96,-1.12,-1.12,-1.13
213.56,-2.00,-0.87,-2.00,-0.87,0.87,1.38,0.93,-1.13,-1.13,-1.13
215.69,-2.00,-0.87,-2.00,-0.86,0.86,1.36,0.89,-1.14,-1.14,-1.13
217.85,-2.00,-0.84,-2.00,-0.85,0.85,1.34,0.86,-1.15,-1.15,-1.16
220.03,-2.00,-0.83,-2.00,-0.83,0.84,1.32,0.82,-1.16,-1.16,-1.17
222.23,-2.00,-0.81,-2.00,-0.82,0.83,1.30,0.79,-1.17,-1.17,-1.19
224.45,-2.00,-0.81,-2.00,-0.81,0.83,1.28,0.76,-1.17,-1.17,-1.19
226.70,-2.00,-0.81,-2.00,-0.81,0.82,1.26,0.73,-1.18,-1.18,-1.19
228.96,-2.00,-0.80,-2.00,-0.81,0.80,1.24,0.71,-1.20,-1.20,-1.20
231.25,-2.00,-0.80,-2.01,-0.81,0.77,1.22,0.68,-1.23,-1.24,-1.20
233.57,-2.00,-0.79,-2.00,-0.80,0.73,1.20,0.66,-1.27,-1.27,-1.21
235.90,-2.00,-0.78,-1.96,-0.75,0.70,1.18,0.63,-1.30,-1.26,-1.22
238.26,-1.89,-0.67,-1.89,-0.67,0.67,1.17,0.61,-1.22,-1.22,-1.22
240.64,-1.79,-0.57,-1.82,-0.61,0.66,1.15,0.59,-1.13,-1.16,-1.22
243.05,-1.77,-0.56,-1.75,-0.55,0.66,1.13,0.57,-1.11,-1.09,-1.21
245.48,-1.77,-0.57,-1.77,-0.57,0.66,1.12,0.56,-1.11,-1.10,-1.20
247.93,-1.77,-0.58,-1.83,-0.64,0.67,1.10,0.54,-1.10,-1.17,-1.19
250.41,-1.96,-0.76,-1.92,-0.74,0.67,1.09,0.53,-1.29,-1.25,-1.20
252.92,-2.00,-0.81,-1.98,-0.80,0.68,1.07,0.52,-1.31,-1.29,-1.19
255.45,-2.00,-0.84,-1.96,-0.79,0.70,1.06,0.51,-1.30,-1.27,-1.16
258.00,-1.86,-0.70,-1.88,-0.72,0.70,1.04,0.50,-1.16,-1.18,-1.16
260.58,-1.77,-0.61,-1.81,-0.66,0.70,1.03,0.49,-1.07,-1.10,-1.16
263.19,-1.77,-0.63,-1.76,-0.62,0.69,1.02,0.49,-1.08,-1.07,-1.14
265.82,-1.77,-0.63,-1.76,-0.63,0.67,1.01,0.49,-1.10,-1.09,-1.14
268.48,-1.77,-0.66,-1.77,-0.65,0.66,0.99,0.48,-1.11,-1.11,-1.11
271.16,-1.77,-0.67,-1.77,-0.67,0.66,0.98,0.48,-1.11,-1.11,-1.10
273.87,-1.77,-0.68,-1.77,-0.69,0.68,0.97,0.48,-1.09,-1.09,-1.09
276.61,-1.77,-0.72,-1.77,-0.71,0.70,0.96,0.49,-1.07,-1.07,-1.05
279.38,-1.77,-0.73,-1.77,-0.74,0.74,0.95,0.49,-1.03,-1.03,-1.04
282.17,-1.77,-0.76,-1.77,-0.76,0.77,0.94,0.50,-1.00,-1.00,-1.01
284.99,-1.77,-0.79,-1.77,-0.79,0.80,0.93,0.50,-0.97,-0.97,-0.98
287.84,-1.77,-0.81,-1.77,-0.82,0.83,0.92,0.51,-0.94,-0.94,-0.96
290.72,-1.77,-0.85,-1.77,-0.85,0.86,0.91,0.52,-0.91,-0.91,-0.92
293.63,-1.77,-0.87,-1.77,-0.88,0.87,0.90,0.53,-0.90,-0.90,-0.90
296.57,-1.77,-0.90,-1.79,-0.92,0.87,0.90,0.54,-0.90,-0.92,-0.87
299.53,-1.77,-0.93,-1.76,-0.92,0.87,0.89,0.55,-0.90,-0.89,-0.84
302.53,-1.76,-0.93,-1.70,-0.88,0.86,0.88,0.56,-0.90,-0.84,-0.83
305.55,-1.57,-0.78,-1.62,-0.83,0.85,0.88,0.57,-0.72,-0.77,-0.79
308.61,-1.54,-0.77,-1.56,-0.79,0.83,0.87,0.58,-0.71,-0.72,-0.77
311.69,-1.54,-0.78,-1.52,-0.78,0.82,0.86,0.60,-0.72,-0.70,-0.76
314.81,-1.54,-0.81,-1.54,-0.80,0.81,0.86,0.61,-0.73,-0.73,-0.73
317.96,-1.54,-0.81,-1.54,-0.81,0.80,0.85,0.63,-0.74,-0.74,-0.73
321.14,-1.54,-0.80,-1.54,-0.81,0.80,0.85,0.64,-0.74,-0.74,-0.74
324.35,-1.54,-0.81,-1.54,-0.81,0.81,0.85,0.66,-0.73,-0.73,-0.73
327.59,-1.54,-0.82,-1.54,-0.82,0.82,0.84,0.68,-0.72,-0.72,-0.72
330.87,-1.54,-0.83,-1.54,-0.83,0.83,0.84,0.70,-0.71,-0.71,-0.71
334.18,-1.54,-0.83,-1.54,-0.84,0.84,0.84,0.72,-0.70,-0.70,-0.71
337.52,-1.54,-0.84,-1.54,-0.85,0.85,0.83,0.73,-0.69,-0.69,-0.70
340.90,-1.54,-0.87,-1.54,-0.86,0.87,0.83,0.75,-0.67,-0.67,-0.67
344.30,-1.54,-0.88,-1.54,-0.88,0.88,0.83,0.78,-0.66,-0.66,-0.66
347.75,-1.54,-0.89,-1.54,-0.90,0.90,0.83,0.80,-0.64,-0.64,-0.65
351.23,-1.54,-0.92,-1.54,-0.92,0.92,0.83,0.82,-0.61,-0.61,-0.62
354.74,-1.54,-0.94,-1.54,-0.94,0.95,0.83,0.84,-0.59,-0.59,-0.60
358.28,-1.54,-0.97,-1.54,-0.97,0.98,0.83,0.86,-0.56,-0.56,-0.57
361.87,-1.54,-0.99,-1.54,-0.99,1.00,0.83,0.89,-0.53,-0.53,-0.55
365.49,-1.54,-1.01,-1.54,-1.01,1.02,0.83,0.91,-0.52,-0.52,-0.53
369.14,-1.54,-1.03,-1.55,-1.04,1.03,0.84,0.94,-0.51,-0.52,-0.51
372.83,-1.54,-1.06,-1.55,-1.07,1.02,0.84,0.96,-0.52,-0.52,-0.48
376.56,-1.54,-1.08,-1.51,-1.05,1.01,0.84,0.99,-0.53,-0.49,-0.46
380.33,-1.45,-1.02,-1.44,-1.01,1.00,0.85,1.01,-0.45,-0.44,-0.43
384.13,-1.34,-0.93,-1.37,-0.96,0.98,0.85,1.04,-0.36,-0.39,-0.41
387.97,-1.31,-0.91,-1.32,-0.92,0.96,0.86,1.06,-0.35,-0.35,-0.40
391.85,-1.31,-0.91,-1.30,-0.91,0.95,0.86,1.09,-0.36,-0.35,-0.40
395.77,-1.31,-0.92,-1.31,-0.92,0.93,0.87,1.12,-0.38,-0.37,-0.39
399.73,-1.31,-0.93,-1.31,-0.93,0.93,0.87,1.15,-0.38,-0.38,-0.38
403.72,-1.31,-0.94,-1.31,-0.94,0.93,0.88,1.17,-0.37,-0.37,-0.37
407.76,-1.31,-0.95,-1.31,-0.95,0.94,0.89,1.20,-0.37,-0.37,-0.36
411.84,-1.31,-0.96,-1.31,-0.96,0.95,0.90,1.23,-0.36,-0.36,-0.35
415.96,-1.31,-0.97,-1.31,-0.97,0.95,0.91,1.26,-0.36,-0.36,-0.34
420.12,-1.31,-0.97,-1.31,-0.97,0.95,0.92,1.29,-0.36,-0.36,-0.34
424.32,-1.31,-0.97,-1.31,-0.97,0.96,0.93,1.31,-0.35,-0.35,-0.34
428.56,-1.31,-0.97,-1.31,-0.97,0.97,0.94,1.34,-0.33,-0.33,-0.34
432.85,-1.31,-0.96,-1.29,-0.95,1.00,0.95,1.37,-0.31,-0.29,-0.35
437.18,-1.31,-0.97,-1.31,-0.97,1.03,0.96,1.39,-0.28,-0.28,-0.34
441.55,-1.31,-0.98,-1.37,-1.03,1.07,0.98,1.42,-0.24,-0.30,-0.33
445.96,-1.47,-1.14,-1.44,-1.12,1.11,0.99,1.44,-0.36,-0.33,-0.33
450.42,-1.54,-1.22,-1.51,-1.19,1.15,1.01,1.47,-0.39,-0.36,-0.32
454.93,-1.54,-1.23,-1.55,-1.24,1.19,1.02,1.49,-0.35,-0.36,-0.31
459.48,-1.54,-1.24,-1.55,-1.25,1.23,1.04,1.51,-0.31,-0.32,-0.30
464.07,-1.54,-1.26,-1.54,-1.26,1.27,1.05,1.53,-0.27,-0.27,-0.28
