frequency,raw,error,smoothed,error_smoothed,equalization,parametric_eq,fixed_band_eq,equalized_raw,equalized_smoothed,target
20.00,-1.60,-7.76,-1.63,-7.79,7.79,7.60,3.22,6.19,6.16,6.16
20.20,-1.60,-7.75,-1.62,-7.77,7.77,7.60,3.31,6.17,6.16,6.15
20.40,-1.60,-7.75,-1.60,-7.75,7.75,7.59,3.40,6.15,6.15,6.15
20.61,-1.60,-7.75,-1.58,-7.73,7.73,7.58,3.50,6.13,6.15,6.15
20.81,-1.60,-7.73,-1.56,-7.71,7.71,7.58,3.59,6.11,6.14,6.13
21.02,-1.60,-7.73,-1.54,-7.68,7.68,7.57,3.69,6.08,6.14,6.13
21.23,-1.55,-7.68,-1.52,-7.66,7.66,7.56,3.79,6.11,6.14,6.13
21.44,-1.50,-7.64,-1.50,-7.63,7.63,7.55,3.90,6.13,6.14,6.14
21.66,-1.45,-7.59,-1.47,-7.61,7.61,7.54,4.00,6.16,6.14,6.13
21.87,-1.40,-7.54,-1.45,-7.58,7.58,7.53,4.11,6.18,6.14,6.14
22.09,-1.37,-7.50,-1.42,-7.55,7.55,7.52,4.23,6.18,6.13,6.13
22.31,-1.35,-7.49,-1.39,-7.52,7.52,7.51,4.34,6.17,6.13,6.14
22.54,-1.34,-7.47,-1.36,-7.49,7.49,7.49,4.46,6.15,6.14,6.13
22.76,-1.33,-7.46,-1.32,-7.46,7.46,7.48,4.59,6.13,6.14,6.13
22.99,-1.32,-7.45,-1.28,-7.42,7.42,7.47,4.71,6.10,6.14,6.13
23.22,-1.28,-7.41,-1.24,-7.39,7.39,7.45,4.84,6.11,6.14,6.13
23.45,-1.24,-7.38,-1.21,-7.35,7.35,7.44,4.97,6.11,6.15,6.14
23.69,-1.20,-7.34,-1.17,-7.32,7.32,7.42,5.11,6.12,6.15,6.14
23.92,-1.15,-7.29,-1.14,-7.29,7.29,7.40,5.24,6.14,6.15,6.14
24.16,-1.11,-7.26,-1.10,-7.26,7.26,7.38,5.38,6.15,6.15,6.15
24.40,-1.06,-7.22,-1.07,-7.23,7.23,7.37,5.52,6.17,6.15,6.16
24.65,-1.02,-7.18,-1.04,-7.20,7.20,7.35,5.67,6.18,6.16,6.16
24.89,-0.97,-7.13,-1.02,-7.18,7.18,7.33,5.81,6.21,6.16,6.16
25.14,-0.94,-7.09,-0.99,-7.15,7.15,7.31,5.96,6.21,6.16,6.15
25.39,-0.93,-7.09,-0.97,-7.13,7.13,7.29,6.11,6.20,6.16,6.16
25.65,-0.92,-7.08,-0.94,-7.10,7.10,7.27,6.26,6.18,6.16,6.16
25.91,-0.91,-7.06,-0.92,-7.08,7.08,7.25,6.41,6.17,6.16,6.15
26.16,-0.91,-7.07,-0.90,-7.06,7.06,7.22,6.56,6.15,6.16,6.16
26.43,-0.91,-7.07,-0.87,-7.03,7.03,7.20,6.71,6.12,6.16,6.16
26.69,-0.91,-7.07,-0.85,-7.01,7.01,7.18,6.85,6.10,6.16,6.16
26.96,-0.91,-7.05,-0.83,-6.99,6.99,7.16,7.00,6.08,6.15,6.14
27.23,-0.86,-7.00,-0.81,-6.97,6.97,7.13,7.14,6.10,6.15,6.14
27.50,-0.80,-6.94,-0.79,-6.94,6.94,7.11,7.28,6.14,6.15,6.14
27.77,-0.75,-6.90,-0.78,-6.92,6.92,7.08,7.42,6.17,6.15,6.15
28.05,-0.70,-6.84,-0.76,-6.90,6.90,7.06,7.55,6.20,6.14,6.14
28.33,-0.69,-6.82,-0.74,-6.88,6.88,7.03,7.67,6.19,6.14,6.13
28.62,-0.69,-6.81,-0.73,-6.86,6.86,7.00,7.79,6.17,6.13,6.12
28.90,-0.68,-6.81,-0.72,-6.84,6.84,6.98,7.89,6.16,6.12,6.13
29.19,-0.68,-6.80,-0.70,-6.82,6.82,6.95,7.99,6.14,6.12,6.12
29.48,-0.68,-6.78,-0.68,-6.79,6.79,6.92,8.08,6.11,6.11,6.10
29.78,-0.68,-6.78,-0.66,-6.77,6.77,6.89,8.16,6.09,6.10,6.10
30.08,-0.68,-6.78,-0.65,-6.74,6.74,6.87,8.22,6.06,6.09,6.10
30.38,-0.68,-6.76,-0.63,-6.72,6.72,6.84,8.27,6.04,6.08,6.08
30.68,-0.68,-6.75,-0.62,-6.69,6.69,6.81,8.31,6.01,6.07,6.07
30.99,-0.68,-6.74,-0.60,-6.67,6.67,6.78,8.34,5.99,6.06,6.06
31.30,-0.61,-6.67,-0.58,-6.64,6.64,6.75,8.35,6.03,6.06,6.05
31.61,-0.55,-6.59,-0.56,-6.61,6.61,6.72,8.34,6.06,6.05,6.04
31.93,-0.48,-6.51,-0.54,-6.58,6.58,6.69,8.33,6.10,6.04,6.02
32.24,-0.46,-6.49,-0.52,-6.55,6.55,6.66,8.30,6.09,6.03,6.03
32.57,-0.46,-6.47,-0.51,-6.53,6.53,6.63,8.26,6.07,6.03,6.01
32.89,-0.46,-6.47,-0.50,-6.52,6.52,6.59,8.20,6.06,6.02,6.01
33.22,-0.46,-6.47,-0.49,-6.50,6.50,6.56,8.14,6.04,6.02,6.01
33.55,-0.46,-6.46,-0.48,-6.49,6.49,6.53,8.07,6.03,6.01,6.00
33.89,-0.46,-6.47,-0.46,-6.47,6.47,6.50,7.98,6.01,6.01,6.01
34.23,-0.46,-6.45,-0.45,-6.45,6.45,6.46,7.89,5.99,6.00,5.99
34.57,-0.46,-6.46,-0.44,-6.44,6.44,6.43,7.79,5.98,6.00,6.00
34.92,-0.46,-6.45,-0.43,-6.42,6.42,6.40,7.69,5.96,5.99,5.99
35.27,-0.46,-6.46,-0.41,-6.40,6.40,6.36,7.58,5.94,5.99,6.00
35.62,-0.46,-6.43,-0.40,-6.38,6.38,6.33,7.46,5.92,5.98,5.97
35.97,-0.46,-6.43,-0.38,-6.35,6.35,6.30,7.34,5.89,5.97,5.97
36.33,-0.38,-6.34,-0.36,-6.31,6.31,6.26,7.22,5.93,5.96,5.96
36.70,-0.30,-6.25,-0.33,-6.28,6.28,6.23,7.10,5.98,5.94,5.94
37.06,-0.23,-6.15,-0.31,-6.24,6.24,6.19,6.98,6.01,5.92,5.92
37.43,-0.23,-6.14,-0.29,-6.19,6.19,6.16,6.86,5.96,5.90,5.91
37.81,-0.23,-6.11,-0.27,-6.15,6.15,6.12,6.74,5.92,5.88,5.88
38.19,-0.23,-6.09,-0.25,-6.11,6.11,6.09,6.62,5.88,5.86,5.86
38.57,-0.23,-6.07,-0.24,-6.07,6.07,6.05,6.50,5.84,5.83,5.84
38.95,-0.23,-6.04,-0.23,-6.03,6.03,6.02,6.38,5.80,5.80,5.81
39.34,-0.23,-5.99,-0.23,-6.00,6.00,5.98,6.26,5.77,5.77,5.76
39.74,-0.23,-5.96,-0.23,-5.98,5.98,5.94,6.15,5.75,5.75,5.73
40.14,-0.23,-5.93,-0.23,-5.95,5.95,5.91,6.04,5.72,5.72,5.70
40.54,-0.23,-5.91,-0.23,-5.92,5.92,5.87,5.94,5.69,5.69,5.68
40.94,-0.23,-5.87,-0.23,-5.88,5.88,5.83,5.83,5.65,5.66,5.64
41.35,-0.23,-5.85,-0.22,-5.84,5.84,5.79,5.73,5.61,5.63,5.62
41.76,-0.23,-5.82,-0.20,-5.80,5.80,5.76,5.64,5.57,5.60,5.59
42.18,-0.23,-5.80,-0.18,-5.75,5.75,5.72,5.55,5.52,5.57,5.57
42.60,-0.23,-5.77,-0.16,-5.70,5.70,5.68,5.46,5.47,5.54,5.54
43.03,-0.22,-5.73,-0.14,-5.65,5.65,5.64,5.37,5.43,5.51,5.51
43.46,-0.12,-5.60,-0.12,-5.60,5.60,5.60,5.29,5.48,5.49,5.48
43.90,-0.02,-5.49,-0.09,-5.55,5.55,5.56,5.22,5.53,5.46,5.46
44.33,0.00,-5.42,-0.07,-5.50,5.50,5.52,5.14,5.50,5.43,5.42
44.78,0.00,-5.39,-0.05,-5.45,5.45,5.48,5.07,5.45,5.40,5.39
45.23,0.00,-5.38,-0.03,-5.40,5.40,5.44,5.01,5.40,5.37,5.38
45.68,0.00,-5.33,-0.02,-5.35,5.35,5.40,4.95,5.35,5.33,5.33
46.13,0.00,-5.29,-0.00,-5.30,5.30,5.36,4.89,5.30,5.30,5.29
46.60,0.00,-5.26,0.01,-5.25,5.25,5.32,4.84,5.25,5.26,5.26
47.06,0.00,-5.23,0.02,-5.21,5.21,5.28,4.79,5.21,5.23,5.23
47.53,0.00,-5.20,0.02,-5.17,5.17,5.24,4.74,5.17,5.19,5.20
48.01,0.00,-5.14,0.01,-5.13,5.13,5.20,4.70,5.13,5.15,5.14
48.49,0.00,-5.10,0.01,-5.10,5.10,5.15,4.66,5.10,5.11,5.10
48.97,0.00,-5.06,0.00,-5.07,5.07,5.11,4.62,5.07,5.07,5.06
49.46,0.00,-5.02,0.00,-5.03,5.03,5.07,4.58,5.03,5.03,5.02
49.96,0.00,-4.96,0.00,-4.98,4.98,5.03,4.55,4.98,4.98,4.96
50.46,0.00,-4.92,0.00,-4.94,4.94,4.98,4.52,4.94,4.94,4.92
50.96,0.00,-4.89,0.00,-4.89,4.89,4.94,4.50,4.89,4.89,4.89
51.47,0.00,-4.85,0.00,-4.85,4.85,4.89,4.47,4.85,4.85,4.85
51.99,0.00,-4.80,0.00,-4.80,4.80,4.85,4.45,4.80,4.80,4.80
52.51,0.00,-4.76,-0.01,-4.76,4.76,4.80,4.43,4.76,4.76,4.76
53.03,0.00,-4.73,-0.02,-4.72,4.72,4.76,4.41,4.72,4.71,4.73
53.56,0.00,-4.66,-0.02,-4.68,4.68,4.71,4.39,4.68,4.66,4.66
54.10,0.00,-4.61,-0.02,-4.63,4.63,4.66,4.37,4.63,4.62,4.61
54.64,0.00,-4.57,-0.01,-4.58,4.58,4.61,4.35,4.58,4.57,4.57
55.18,0.00,-4.51,0.00,-4.53,4.53,4.57,4.33,4.53,4.53,4.51
55.74,0.00,-4.46,0.02,-4.47,4.47,4.52,4.32,4.47,4.49,4.46
56.29,0.00,-4.42,0.03,-4.41,4.41,4.47,4.30,4.41,4.44,4.42
56.86,0.00,-4.39,0.05,-4.34,4.34,4.42,4.28,4.34,4.40,4.39
57.42,0.00,-4.33,0.07,-4.28,4.28,4.37,4.25,4.28,4.35,4.33
58.00,0.00,-4.29,0.09,-4.21,4.21,4.32,4.23,4.21,4.30,4.29
58.58,0.13,-4.13,0.12,-4.14,4.14,4.27,4.20,4.27,4.25,4.26
59.16,0.23,-4.00,0.14,-4.07,4.07,4.22,4.18,4.30,4.20,4.23
59.76,0.23,-3.95,0.16,-3.99,3.99,4.16,4.15,4.22,4.16,4.18
60.35,0.23,-3.88,0.18,-3.92,3.92,4.11,4.11,4.15,4.10,4.11
60.96,0.23,-3.83,0.20,-3.85,3.85,4.06,4.08,4.08,4.05,4.06
61.57,0.23,-3.76,0.22,-3.78,3.78,4.00,4.04,4.01,4.00,3.99
62.18,0.23,-3.69,0.23,-3.71,3.71,3.95,3.99,3.94,3.94,3.92
62.80,0.23,-3.64,0.24,-3.65,3.65,3.89,3.95,3.88,3.89,3.87
63.43,0.23,-3.58,0.25,-3.58,3.58,3.84,3.90,3.81,3.83,3.81
64.07,0.23,-3.53,0.25,-3.52,3.52,3.78,3.85,3.75,3.77,3.76
64.71,0.23,-3.48,0.24,-3.46,3.46,3.72,3.79,3.69,3.71,3.71
65.35,0.23,-3.41,0.24,-3.41,3.41,3.66,3.73,3.64,3.65,3.64
66.01,0.23,-3.35,0.23,-3.36,3.36,3.60,3.67,3.59,3.59,3.58
66.67,0.23,-3.30,0.23,-3.30,3.30,3.55,3.60,3.53,3.53,3.53
67.33,0.23,-3.23,0.23,-3.24,3.24,3.49,3.53,3.47,3.47,3.46
68.01,0.23,-3.18,0.23,-3.18,3.18,3.43,3.46,3.41,3.41,3.41
68.69,0.23,-3.11,0.23,-3.11,3.11,3.36,3.39,3.34,3.34,3.34
69.37,0.23,-3.06,0.23,-3.05,3.05,3.30,3.31,3.28,3.28,3.29
70.07,0.23,-2.99,0.23,-2.99,2.99,3.24,3.23,3.22,3.22,3.22
70.77,0.23,-2.93,0.23,-2.92,2.92,3.18,3.15,3.15,3.15,3.16
71.48,0.23,-2.85,0.23,-2.86,2.86,3.11,3.07,3.09,3.09,3.08
72.19,0.23,-2.79,0.23,-2.79,2.79,3.05,2.99,3.02,3.02,3.02
72.91,0.23,-2.73,0.23,-2.73,2.73,2.99,2.90,2.96,2.96,2.96
73.64,0.23,-2.65,0.23,-2.67,2.67,2.92,2.82,2.90,2.90,2.88
74.38,0.23,-2.59,0.23,-2.61,2.61,2.86,2.73,2.84,2.84,2.82
75.12,0.23,-2.53,0.23,-2.55,2.55,2.79,2.65,2.78,2.78,2.76
75.87,0.23,-2.50,0.23,-2.50,2.50,2.72,2.56,2.73,2.73,2.73
76.63,0.23,-2.43,0.23,-2.44,2.44,2.66,2.48,2.67,2.67,2.66
77.40,0.23,-2.38,0.23,-2.39,2.39,2.59,2.39,2.62,2.62,2.61
78.17,0.23,-2.33,0.23,-2.34,2.34,2.52,2.31,2.57,2.57,2.56
78.95,0.23,-2.29,0.23,-2.29,2.29,2.45,2.22,2.52,2.52,2.52
79.74,0.23,-2.23,0.23,-2.24,2.24,2.38,2.14,2.47,2.47,2.46
80.54,0.23,-2.18,0.23,-2.18,2.18,2.31,2.06,2.41,2.41,2.41
81.35,0.23,-2.13,0.23,-2.13,2.13,2.25,1.97,2.36,2.36,2.36
82.16,0.23,-2.09,0.23,-2.08,2.08,2.18,1.89,2.31,2.31,2.32
82.98,0.23,-2.03,0.23,-2.02,2.02,2.11,1.81,2.25,2.25,2.26
83.81,0.23,-1.97,0.23,-1.97,1.97,2.04,1.73,2.20,2.20,2.20
84.65,0.23,-1.91,0.23,-1.91,1.91,1.96,1.65,2.14,2.14,2.14
85.50,0.23,-1.84,0.23,-1.85,1.85,1.89,1.57,2.08,2.08,2.07
86.35,0.23,-1.78,0.23,-1.79,1.79,1.82,1.50,2.02,2.02,2.01
87.22,0.23,-1.72,0.23,-1.72,1.72,1.75,1.42,1.95,1.95,1.95
88.09,0.23,-1.65,0.23,-1.66,1.66,1.68,1.35,1.89,1.89,1.88
88.97,0.23,-1.59,0.23,-1.60,1.60,1.61,1.27,1.83,1.83,1.82
89.86,0.23,-1.52,0.23,-1.53,1.53,1.54,1.20,1.76,1.76,1.75
90.76,0.23,-1.45,0.23,-1.46,1.46,1.47,1.13,1.69,1.69,1.68
91.66,0.23,-1.39,0.23,-1.39,1.39,1.40,1.06,1.62,1.62,1.62
92.58,0.23,-1.33,0.23,-1.33,1.33,1.32,0.99,1.56,1.56,1.56
93.51,0.23,-1.26,0.23,-1.26,1.26,1.25,0.92,1.49,1.49,1.49
94.44,0.23,-1.20,0.23,-1.19,1.19,1.18,0.85,1.42,1.42,1.43
95.39,0.23,-1.12,0.23,-1.12,1.12,1.11,0.78,1.35,1.35,1.35
96.34,0.23,-1.04,0.23,-1.05,1.05,1.04,0.71,1.28,1.28,1.27
97.30,0.23,-0.98,0.23,-0.98,0.98,0.97,0.65,1.21,1.21,1.21
98.28,0.23,-0.89,0.23,-0.91,0.91,0.90,0.58,1.14,1.14,1.12
99.26,0.23,-0.82,0.23,-0.84,0.84,0.83,0.52,1.07,1.07,1.05
100.25,0.23,-0.76,0.23,-0.77,0.77,0.76,0.46,1.00,1.00,0.99
101.25,0.23,-0.70,0.23,-0.71,0.71,0.69,0.39,0.94,0.94,0.93
102.27,0.23,-0.63,0.23,-0.64,0.64,0.62,0.33,0.87,0.87,0.86
103.29,0.23,-0.57,0.23,-0.58,0.58,0.55,0.27,0.81,0.81,0.80
104.32,0.23,-0.52,0.23,-0.52,0.52,0.48,0.21,0.75,0.75,0.75
105.37,0.23,-0.46,0.23,-0.46,0.46,0.41,0.15,0.69,0.69,0.69
106.42,0.23,-0.40,0.23,-0.40,0.40,0.34,0.09,0.63,0.63,0.63
107.48,0.23,-0.33,0.23,-0.35,0.35,0.27,0.03,0.58,0.58,0.56
108.56,0.23,-0.29,0.23,-0.29,0.29,0.20,-0.02,0.52,0.52,0.52
109.64,0.23,-0.23,0.23,-0.23,0.23,0.13,-0.08,0.46,0.46,0.46
110.74,0.23,-0.17,0.23,-0.17,0.17,0.07,-0.13,0.40,0.40,0.40
111.85,0.23,-0.11,0.23,-0.11,0.11,0.00,-0.19,0.34,0.34,0.34
112.97,0.23,-0.06,0.23,-0.05,0.05,-0.07,-0.24,0.28,0.28,0.29
114.10,0.23,-0.00,0.23,0.01,-0.01,-0.13,-0.29,0.22,0.22,0.23
115.24,0.23,0.07,0.23,0.07,-0.07,-0.20,-0.34,0.16,0.16,0.16
116.39,0.23,0.14,0.23,0.13,-0.13,-0.26,-0.39,0.10,0.10,0.09
117.55,0.23,0.20,0.23,0.20,-0.20,-0.33,-0.44,0.03,0.03,0.03
118.73,0.23,0.27,0.23,0.26,-0.26,-0.39,-0.49,-0.03,-0.03,-0.04
119.92,0.23,0.34,0.23,0.32,-0.32,-0.45,-0.53,-0.09,-0.09,-0.11
121.12,0.23,0.39,0.23,0.39,-0.39,-0.51,-0.58,-0.16,-0.16,-0.16
122.33,0.23,0.47,0.23,0.46,-0.46,-0.58,-0.62,-0.23,-0.23,-0.24
123.55,0.23,0.52,0.23,0.53,-0.53,-0.64,-0.66,-0.30,-0.30,-0.29
124.79,0.23,0.59,0.23,0.59,-0.59,-0.70,-0.70,-0.36,-0.36,-0.36
126.03,0.23,0.66,0.23,0.66,-0.66,-0.76,-0.74,-0.43,-0.43,-0.43
127.29,0.23,0.73,0.23,0.73,-0.73,-0.82,-0.78,-0.50,-0.50,-0.50
128.57,0.23,0.79,0.23,0.79,-0.79,-0.88,-0.82,-0.56,-0.56,-0.56
129.85,0.23,0.87,0.23,0.86,-0.86,-0.93,-0.85,-0.63,-0.63,-0.64
131.15,0.23,0.93,0.23,0.92,-0.92,-0.99,-0.89,-0.69,-0.69,-0.70
132.46,0.23,1.00,0.23,0.99,-0.99,-1.05,-0.93,-0.76,-0.76,-0.77
133.79,0.23,1.06,0.23,1.05,-1.05,-1.10,-0.96,-0.82,-0.82,-0.83
135.12,0.23,1.13,0.23,1.11,-1.11,-1.16,-0.99,-0.88,-0.88,-0.90
136.48,0.23,1.17,0.23,1.17,-1.17,-1.21,-1.03,-0.94,-0.94,-0.94
137.84,0.23,1.23,0.23,1.23,-1.23,-1.27,-1.06,-1.00,-1.00,-1.00
139.22,0.23,1.30,0.23,1.29,-1.29,-1.32,-1.09,-1.06,-1.06,-1.07
140.61,0.23,1.35,0.23,1.34,-1.34,-1.37,-1.12,-1.11,-1.11,-1.12
142.02,0.23,1.40,0.23,1.40,-1.40,-1.42,-1.16,-1.17,-1.17,-1.17
143.44,0.23,1.46,0.23,1.45,-1.45,-1.47,-1.19,-1.22,-1.22,-1.23
144.87,0.23,1.50,0.23,1.50,-1.50,-1.52,-1.22,-1.27,-1.27,-1.27
146.32,0.23,1.55,0.23,1.55,-1.55,-1.57,-1.25,-1.32,-1.32,-1.32
147.78,0.23,1.61,0.23,1.60,-1.60,-1.62,-1.29,-1.37,-1.37,-1.38
149.26,0.23,1.65,0.23,1.65,-1.65,-1.67,-1.32,-1.42,-1.42,-1.42
150.75,0.23,1.71,0.23,1.70,-1.70,-1.72,-1.35,-1.47,-1.47,-1.48
152.26,0.23,1.74,0.23,1.75,-1.75,-1.76,-1.39,-1.52,-1.52,-1.51
153.78,0.23,1.80,0.23,1.79,-1.79,-1.81,-1.42,-1.56,-1.56,-1.57
155.32,0.23,1.84,0.23,1.84,-1.84,-1.85,-1.46,-1.61,-1.61,-1.61
156.88,0.23,1.89,0.23,1.89,-1.89,-1.90,-1.50,-1.66,-1.66,-1.66
158.44,0.23,1.94,0.23,1.94,-1.94,-1.94,-1.54,-1.71,-1.71,-1.71
160.03,0.23,1.99,0.23,1.99,-1.99,-1.98,-1.58,-1.76,-1.76,-1.76
161.63,0.23,2.04,0.23,2.04,-2.04,-2.02,-1.62,-1.81,-1.81,-1.81
163.24,0.23,2.10,0.23,2.08,-2.08,-2.06,-1.66,-1.85,-1.85,-1.87
164.88,0.23,2.14,0.23,2.13,-2.13,-2.10,-1.71,-1.90,-1.90,-1.91
166.53,0.23,2.20,0.23,2.18,-2.18,-2.14,-1.75,-1.95,-1.95,-1.97
168.19,0.23,2.23,0.23,2.23,-2.23,-2.18,-1.80,-2.00,-2.00,-2.00
169.87,0.23,2.28,0.23,2.29,-2.29,-2.22,-1.85,-2.06,-2.06,-2.05
171.57,0.23,2.34,0.23,2.34,-2.34,-2.25,-1.90,-2.11,-2.11,-2.11
173.29,0.23,2.39,0.23,2.39,-2.39,-2.29,-1.95,-2.16,-2.16,-2.16
175.02,0.23,2.44,0.23,2.44,-2.44,-2.33,-2.00,-2.21,-2.21,-2.21
176.77,0.23,2.49,0.23,2.49,-2.49,-2.36,-2.06,-2.26,-2.26,-2.26
178.54,0.23,2.54,0.23,2.54,-2.54,-2.39,-2.11,-2.31,-2.31,-2.31
180.32,0.23,2.60,0.23,2.59,-2.59,-2.43,-2.17,-2.36,-2.36,-2.37
182.13,0.23,2.65,0.23,2.64,-2.64,-2.46,-2.23,-2.41,-2.41,-2.42
183.95,0.23,2.70,0.23,2.70,-2.70,-2.49,-2.29,-2.47,-2.47,-2.47
185.79,0.23,2.76,0.23,2.75,-2.75,-2.52,-2.36,-2.52,-2.52,-2.53
187.65,0.23,2.80,0.23,2.80,-2.80,-2.55,-2.42,-2.57,-2.57,-2.57
189.52,0.23,2.85,0.23,2.85,-2.85,-2.58,-2.49,-2.62,-2.62,-2.62
191.42,0.23,2.89,0.23,2.89,-2.89,-2.61,-2.55,-2.66,-2.66,-2.66
193.33,0.23,2.94,0.23,2.94,-2.94,-2.64,-2.62,-2.71,-2.71,-2.71
195.27,0.23,2.99,0.23,2.98,-2.98,-2.66,-2.69,-2.75,-2.75,-2.76
197.22,0.23,3.04,0.23,3.02,-3.02,-2.69,-2.76,-2.79,-2.79,-2.81
199.19,0.23,3.07,0.23,3.06,-3.06,-2.71,-2.84,-2.83,-2.83,-2.84
201.18,0.23,3.12,0.23,3.10,-3.10,-2.74,-2.91,-2.87,-2.87,-2.89
203.19,0.23,3.15,0.23,3.14,-3.14,-2.76,-2.98,-2.91,-2.91,-2.92
205.23,0.23,3.18,0.23,3.18,-3.18,-2.78,-3.06,-2.95,-2.95,-2.95
207.28,0.23,3.21,0.24,3.22,-3.22,-2.81,-3.13,-2.99,-2.99,-2.98
209.35,0.23,3.25,0.25,3.27,-3.27,-2.83,-3.21,-3.04,-3.02,-3.02
211.44,0.23,3.29,0.25,3.30,-3.30,-2.85,-3.28,-3.07,-3.06,-3.06
213.56,0.23,3.32,0.25,3.33,-3.33,-2.87,-3.35,-3.10,-3.09,-3.09
215.69,0.23,3.35,0.24,3.36,-3.36,-2.89,-3.42,-3.13,-3.12,-3.12
217.85,0.23,3.38,0.23,3.38,-3.38,-2.91,-3.49,-3.15,-3.15,-3.15
220.03,0.23,3.42,0.21,3.40,-3.40,-2.93,-3.56,-3.17,-3.18,-3.19
222.23,0.23,3.45,0.19,3.41,-3.41,-2.94,-3.63,-3.18,-3.21,-3.22
224.45,0.23,3.48,0.18,3.42,-3.42,-2.96,-3.69,-3.19,-3.24,-3.25
226.70,0.23,3.51,0.15,3.43,-3.43,-2.98,-3.75,-3.20,-3.27,-3.28
228.96,0.23,3.54,0.13,3.43,-3.43,-2.99,-3.81,-3.20,-3.30,-3.31
231.25,0.06,3.39,0.11,3.44,-3.44,-3.01,-3.86,-3.38,-3.33,-3.33
233.57,0.00,3.36,0.09,3.44,-3.44,-3.02,-3.91,-3.44,-3.35,-3.36
235.90,0.00,3.38,0.07,3.44,-3.44,-3.03,-3.95,-3.44,-3.38,-3.38
238.26,0.00,3.42,0.05,3.45,-3.45,-3.05,-3.99,-3.45,-3.40,-3.42
240.64,0.00,3.42,0.03,3.45,-3.45,-3.06,-4.02,-3.45,-3.42,-3.42
243.05,0.00,3.44,0.01,3.45,-3.45,-3.07,-4.05,-3.45,-3.44,-3.44
245.48,0.00,3.47,-0.00,3.46,-3.46,-3.08,-4.07,-3.46,-3.46,-3.47
247.93,0.00,3.49,-0.01,3.47,-3.47,-3.09,-4.09,-3.47,-3.48,-3.49
250.41,0.00,3.49,-0.02,3.48,-3.48,-3.10,-4.10,-3.48,-3.50,-3.49
252.92,0.00,3.51,-0.02,3.49,-3.49,-3.11,-4.11,-3.49,-3.51,-3.51
255.45,0.00,3.53,-0.01,3.51,-3.51,-3.12,-4.11,-3.51,-3.53,-3.53
258.00,0.00,3.55,-0.00,3.54,-3.54,-3.12,-4.10,-3.54,-3.54,-3.55
260.58,0.00,3.56,-0.00,3.55,-3.55,-3.13,-4.09,-3.55,-3.55,-3.56
263.19,0.00,3.57,0.00,3.56,-3.56,-3.14,-4.07,-3.56,-3.56,-3.57
265.82,0.00,3.58,0.00,3.57,-3.57,-3.14,-4.05,-3.57,-3.57,-3.58
268.48,0.00,3.58,0.00,3.58,-3.58,-3.15,-4.02,-3.58,-3.58,-3.58
271.16,0.00,3.58,0.00,3.59,-3.59,-3.15,-3.99,-3.59,-3.59,-3.58
273.87,0.00,3.59,0.00,3.59,-3.59,-3.16,-3.95,-3.59,-3.59,-3.59
276.61,0.00,3.60,-0.00,3.60,-3.60,-3.16,-3.91,-3.60,-3.60,-3.60
279.38,0.00,3.62,0.00,3.60,-3.60,-3.16,-3.87,-3.60,-3.60,-3.62
282.17,0.00,3.62,0.01,3.61,-3.61,-3.16,-3.83,-3.61,-3.61,-3.62
284.99,0.00,3.61,0.02,3.62,-3.62,-3.16,-3.78,-3.62,-3.61,-3.61
287.84,0.00,3.61,0.02,3.63,-3.63,-3.16,-3.73,-3.63,-3.61,-3.61
290.72,0.00,3.62,0.02,3.62,-3.62,-3.16,-3.68,-3.62,-3.61,-3.62
293.63,0.00,3.61,0.01,3.62,-3.62,-3.16,-3.63,-3.62,-3.61,-3.61
296.57,0.00,3.61,-0.00,3.61,-3.61,-3.16,-3.58,-3.61,-3.61,-3.61
299.53,0.00,3.62,-0.02,3.59,-3.59,-3.16,-3.52,-3.59,-3.61,-3.62
302.53,0.00,3.60,-0.03,3.58,-3.58,-3.16,-3.47,-3.58,-3.61,-3.60
305.55,0.00,3.61,-0.05,3.56,-3.56,-3.16,-3.42,-3.56,-3.61,-3.61
308.61,0.00,3.60,-0.07,3.53,-3.53,-3.15,-3.37,-3.53,-3.60,-3.60
311.69,-0.00,3.61,-0.09,3.51,-3.51,-3.15,-3.31,-3.51,-3.60,-3.61
314.81,-0.14,3.46,-0.12,3.48,-3.48,-3.15,-3.26,-3.62,-3.60,-3.60
317.96,-0.22,3.39,-0.14,3.46,-3.46,-3.14,-3.21,-3.68,-3.60,-3.61
321.14,-0.23,3.37,-0.16,3.44,-3.44,-3.14,-3.17,-3.67,-3.60,-3.60
324.35,-0.23,3.38,-0.18,3.41,-3.41,-3.13,-3.12,-3.64,-3.59,-3.61
327.59,-0.23,3.35,-0.20,3.39,-3.39,-3.12,-3.07,-3.62,-3.59,-3.58
330.87,-0.23,3.36,-0.22,3.37,-3.37,-3.12,-3.03,-3.60,-3.58,-3.59
334.18,-0.23,3.36,-0.23,3.35,-3.35,-3.11,-2.99,-3.58,-3.58,-3.59
337.52,-0.23,3.35,-0.24,3.33,-3.33,-3.10,-2.95,-3.56,-3.57,-3.58
340.90,-0.23,3.34,-0.24,3.32,-3.32,-3.09,-2.91,-3.55,-3.57,-3.57
344.30,-0.23,3.33,-0.24,3.32,-3.32,-3.08,-2.88,-3.55,-3.56,-3.56
347.75,-0.23,3.32,-0.23,3.32,-3.32,-3.07,-2.85,-3.55,-3.55,-3.55
351.23,-0.23,3.33,-0.22,3.33,-3.33,-3.06,-2.82,-3.56,-3.54,-3.56
354.74,-0.23,3.30,-0.22,3.32,-3.32,-3.05,-2.79,-3.55,-3.54,-3.53
358.28,-0.23,3.30,-0.23,3.30,-3.30,-3.04,-2.76,-3.53,-3.53,-3.53
361.87,-0.23,3.30,-0.24,3.28,-3.28,-3.03,-2.74,-3.51,-3.52,-3.53
365.49,-0.23,3.29,-0.26,3.26,-3.26,-3.02,-2.72,-3.49,-3.52,-3.52
369.14,-0.23,3.28,-0.28,3.24,-3.24,-3.01,-2.70,-3.47,-3.51,-3.51
372.83,-0.23,3.27,-0.30,3.21,-3.21,-2.99,-2.68,-3.44,-3.51,-3.50
376.56,-0.23,3.28,-0.32,3.18,-3.18,-2.98,-2.66,-3.41,-3.50,-3.51
380.33,-0.32,3.18,-0.34,3.16,-3.16,-2.97,-2.65,-3.48,-3.50,-3.50
384.13,-0.43,3.06,-0.36,3.13,-3.13,-2.95,-2.64,-3.56,-3.49,-3.49
387.97,-0.46,3.03,-0.38,3.11,-3.11,-2.94,-2.63,-3.57,-3.49,-3.49
391.85,-0.46,3.03,-0.41,3.08,-3.08,-2.92,-2.62,-3.54,-3.49,-3.49
395.77,-0.46,3.04,-0.42,3.06,-3.06,-2.91,-2.62,-3.52,-3.48,-3.50
399.73,-0.46,3.03,-0.43,3.04,-3.04,-2.89,-2.61,-3.50,-3.47,-3.49
403.72,-0.46,3.01,-0.44,3.03,-3.03,-2.88,-2.61,-3.49,-3.47,-3.47
407.76,-0.46,3.01,-0.45,3.01,-3.01,-2.86,-2.61,-3.47,-3.46,-3.47
411.84,-0.46,3.00,-0.46,2.99,-2.99,-2.84,-2.61,-3.45,-3.45,-3.46
415.96,-0.46,2.99,-0.47,2.98,-2.98,-2.83,-2.61,-3.44,-3.45,-3.45
420.12,-0.46,2.99,-0.48,2.96,-2.96,-2.81,-2.61,-3.42,-3.44,-3.45
424.32,-0.46,2.97,-0.49,2.94,-2.94,-2.79,-2.61,-3.40,-3.43,-3.43
428.56,-0.46,2.95,-0.50,2.92,-2.92,-2.77,-2.61,-3.38,-3.42,-3.41
432.85,-0.46,2.94,-0.51,2.89,-2.89,-2.75,-2.62,-3.35,-3.40,-3.40
437.18,-0.46,2.93,-0.53,2.86,-2.86,-2.74,-2.62,-3.32,-3.39,-3.39
441.55,-0.46,2.93,-0.55,2.82,-2.82,-2.72,-2.62,-3.28,-3.38,-3.39
445.96,-0.62,2.75,-0.57,2.79,-2.79,-2.70,-2.63,-3.41,-3.36,-3.37
450.42,-0.68,2.68,-0.60,2.75,-2.75,-2.68,-2.63,-3.43,-3.35,-3.36
454.93,-0.68,2.66,-0.62,2.72,-2.72,-2.66,-2.63,-3.40,-3.34,-3.34
459.48,-0.68,2.65,-0.64,2.69,-2.69,-2.64,-2.63,-3.37,-3.32,-3.33
464.07,-0.68,2.63,-0.65,2.65,-2.65,-2.61,-2.63,-3.33,-3.31,-3.31
468.71,-0.68,2.61,-0.67,2.62,-2.62,-2.59,-2.63,-3.30,-3.29,-3.29
473.40,-0.68,2.60,-0.68,2.60,-2.60,-2.57,-2.63,-3.28,-3.28,-3.28
478.13,-0.68,2.58,-0.69,2.57,-2.57,-2.55,-2.62,-3.25,-3.26,-3.26
482.91,-0.68,2.57,-0.70,2.55,-2.55,-2.53,-2.62,-3.23,-3.25,-3.25
487.74,-0.68,2.56,-0.70,2.53,-2.53,-2.51,-2.61,-3.21,-3.23,-3.24
492.62,-0.68,2.54,-0.69,2.52,-2.52,-2.48,-2.60,-3.20,-3.21,-3.22
497.55,-0.68,2.53,-0.68,2.51,-2.51,-2.46,-2.59,-3.19,-3.19,-3.21
