frequency,raw,error,smoothed,error_smoothed,equalization,parametric_eq,fixed_band_eq,equalized_raw,equalized_smoothed,target
20.00,0.21,-5.27,0.20,-5.30,5.30,5.14,1.53,5.50,5.50,5.48
20.20,0.28,-5.24,0.27,-5.26,5.26,5.10,1.58,5.53,5.53,5.52
20.40,0.34,-5.22,0.34,-5.22,5.22,5.06,1.62,5.56,5.56,5.56
20.61,0.40,-5.18,0.41,-5.18,5.18,5.02,1.67,5.58,5.59,5.58
20.81,0.48,-5.15,0.48,-5.14,5.14,4.98,1.73,5.61,5.61,5.62
21.02,0.55,-5.12,0.54,-5.10,5.10,4.94,1.78,5.64,5.64,5.66
21.23,0.62,-5.07,0.61,-5.05,5.05,4.90,1.83,5.67,5.66,5.68
21.44,0.68,-5.03,0.68,-5.01,5.01,4.85,1.89,5.68,5.68,5.70
21.66,0.74,-4.98,0.75,-4.96,4.96,4.81,1.95,5.70,5.71,5.72
21.87,0.82,-4.92,0.82,-4.91,4.91,4.77,2.01,5.73,5.72,5.73
22.09,0.89,-4.86,0.88,-4.86,4.86,4.72,2.07,5.75,5.74,5.75
22.31,0.96,-4.80,0.95,-4.81,4.81,4.68,2.13,5.76,5.76,5.76
22.54,1.01,-4.76,1.02,-4.75,4.75,4.63,2.20,5.77,5.77,5.77
22.76,1.09,-4.69,1.09,-4.69,4.69,4.59,2.26,5.78,5.78,5.78
22.99,1.16,-4.62,1.15,-4.63,4.63,4.54,2.33,5.79,5.79,5.78
23.22,1.22,-4.57,1.22,-4.58,4.58,4.49,2.40,5.79,5.80,5.79
23.45,1.29,-4.51,1.29,-4.52,4.52,4.45,2.47,5.80,5.81,5.80
23.69,1.35,-4.45,1.36,-4.46,4.46,4.40,2.54,5.81,5.81,5.81
23.92,1.43,-4.39,1.42,-4.40,4.40,4.35,2.61,5.83,5.82,5.82
24.16,1.49,-4.35,1.49,-4.34,4.34,4.31,2.69,5.83,5.83,5.83
24.40,1.56,-4.30,1.55,-4.29,4.29,4.26,2.76,5.84,5.84,5.85
24.65,1.62,-4.23,1.62,-4.23,4.23,4.21,2.84,5.85,5.85,5.85
24.89,1.69,-4.18,1.69,-4.17,4.17,4.16,2.92,5.86,5.86,5.86
25.14,1.76,-4.11,1.75,-4.12,4.12,4.12,2.99,5.88,5.87,5.87
25.39,1.82,-4.06,1.82,-4.07,4.07,4.07,3.07,5.88,5.88,5.88
25.65,1.88,-4.02,1.88,-4.01,4.01,4.02,3.15,5.89,5.89,5.90
25.91,1.94,-3.95,1.94,-3.96,3.96,3.98,3.23,5.90,5.90,5.90
26.16,2.01,-3.90,2.01,-3.90,3.90,3.93,3.31,5.91,5.91,5.91
26.43,2.06,-3.85,2.07,-3.85,3.85,3.88,3.38,5.91,5.92,5.91
26.69,2.14,-3.79,2.13,-3.80,3.80,3.83,3.46,5.93,5.93,5.92
26.96,2.19,-3.75,2.19,-3.74,3.74,3.79,3.53,5.94,5.94,5.94
27.23,2.25,-3.70,2.26,-3.69,3.69,3.74,3.61,5.94,5.94,5.95
27.50,2.32,-3.64,2.32,-3.64,3.64,3.69,3.68,5.95,5.95,5.96
27.77,2.38,-3.58,2.38,-3.59,3.59,3.65,3.75,5.96,5.96,5.96
28.05,2.44,-3.54,2.44,-3.53,3.53,3.60,3.81,5.97,5.97,5.98
28.33,2.50,-3.48,2.50,-3.48,3.48,3.56,3.87,5.98,5.98,5.97
28.62,2.55,-3.43,2.56,-3.43,3.43,3.51,3.93,5.98,5.99,5.98
28.90,2.62,-3.38,2.61,-3.38,3.38,3.47,3.98,6.00,5.99,5.99
29.19,2.68,-3.31,2.67,-3.33,3.33,3.42,4.03,6.00,6.00,5.99
29.48,2.73,-3.29,2.73,-3.28,3.28,3.38,4.08,6.00,6.01,6.02
29.78,2.78,-3.23,2.78,-3.23,3.23,3.33,4.11,6.01,6.01,6.02
30.08,2.83,-3.19,2.84,-3.18,3.18,3.29,4.15,6.01,6.02,6.02
30.38,2.89,-3.13,2.90,-3.13,3.13,3.25,4.17,6.03,6.03,6.02
30.68,2.95,-3.09,2.95,-3.08,3.08,3.20,4.19,6.03,6.03,6.04
30.99,3.00,-3.03,3.00,-3.04,3.04,3.16,4.21,6.04,6.04,6.04
31.30,3.05,-2.99,3.05,-2.99,2.99,3.12,4.22,6.05,6.05,6.04
31.61,3.11,-2.95,3.10,-2.95,2.95,3.08,4.22,6.06,6.05,6.05
31.93,3.15,-2.90,3.15,-2.91,2.91,3.04,4.21,6.06,6.06,6.06
32.24,3.20,-2.86,3.20,-2.87,2.87,2.99,4.20,6.06,6.07,6.06
32.57,3.24,-2.83,3.25,-2.83,2.83,2.95,4.18,6.07,6.07,6.07
32.89,3.30,-2.79,3.29,-2.79,2.79,2.91,4.16,6.09,6.08,6.08
33.22,3.34,-2.75,3.33,-2.75,2.75,2.88,4.13,6.09,6.09,6.09
33.55,3.38,-2.72,3.37,-2.72,2.72,2.84,4.10,6.10,6.09,6.10
33.89,3.42,-2.69,3.41,-2.69,2.69,2.80,4.06,6.10,6.10,6.10
34.23,3.45,-2.66,3.45,-2.66,2.66,2.76,4.02,6.10,6.10,6.11
34.57,3.49,-2.63,3.48,-2.63,2.63,2.72,3.97,6.11,6.11,6.11
34.92,3.52,-2.60,3.52,-2.60,2.60,2.68,3.92,6.11,6.11,6.11
35.27,3.54,-2.57,3.55,-2.57,2.57,2.65,3.87,6.11,6.12,6.12
35.62,3.59,-2.54,3.58,-2.54,2.54,2.61,3.81,6.13,6.12,6.12
35.97,3.62,-2.50,3.61,-2.51,2.51,2.58,3.75,6.13,6.12,6.12
36.33,3.64,-2.49,3.64,-2.48,2.48,2.54,3.69,6.12,6.12,6.13
36.70,3.67,-2.46,3.67,-2.46,2.46,2.51,3.63,6.12,6.12,6.12
37.06,3.69,-2.44,3.69,-2.43,2.43,2.47,3.57,6.12,6.12,6.13
37.43,3.72,-2.42,3.72,-2.40,2.40,2.44,3.50,6.12,6.12,6.13
37.81,3.75,-2.38,3.74,-2.38,2.38,2.41,3.44,6.12,6.12,6.13
38.19,3.77,-2.36,3.77,-2.35,2.35,2.37,3.38,6.11,6.12,6.12
38.57,3.80,-2.32,3.79,-2.32,2.32,2.34,3.31,6.12,6.11,6.12
38.95,3.83,-2.28,3.81,-2.30,2.30,2.31,3.25,6.12,6.11,6.11
39.34,3.84,-2.27,3.83,-2.28,2.28,2.28,3.19,6.11,6.11,6.10
39.74,3.86,-2.24,3.85,-2.25,2.25,2.25,3.12,6.11,6.11,6.10
40.14,3.88,-2.23,3.87,-2.23,2.23,2.22,3.06,6.11,6.10,6.10
40.54,3.89,-2.21,3.89,-2.21,2.21,2.19,3.01,6.10,6.10,6.10
40.94,3.91,-2.18,3.91,-2.19,2.19,2.16,2.95,6.09,6.09,6.09
41.35,3.92,-2.17,3.92,-2.17,2.17,2.14,2.89,6.08,6.09,6.08
41.76,3.94,-2.15,3.94,-2.15,2.15,2.11,2.84,6.08,6.08,6.09
42.18,3.96,-2.13,3.95,-2.12,2.12,2.08,2.78,6.08,6.08,6.09
42.60,3.97,-2.11,3.97,-2.10,2.10,2.06,2.73,6.07,6.08,6.08
43.03,3.98,-2.11,3.99,-2.08,2.08,2.03,2.68,6.06,6.07,6.08
43.46,4.00,-2.08,4.00,-2.06,2.06,2.01,2.64,6.06,6.07,6.07
43.90,4.02,-2.04,4.02,-2.04,2.04,1.98,2.59,6.06,6.06,6.05
44.33,4.04,-2.02,4.03,-2.03,2.03,1.96,2.55,6.06,6.06,6.06
44.78,4.06,-1.99,4.05,-2.01,2.01,1.93,2.51,6.06,6.05,6.05
45.23,4.07,-1.97,4.06,-1.99,1.99,1.91,2.47,6.05,6.05,6.04
45.68,4.08,-1.96,4.07,-1.97,1.97,1.89,2.43,6.04,6.04,6.04
46.13,4.09,-1.94,4.09,-1.95,1.95,1.87,2.39,6.03,6.04,6.03
46.60,4.10,-1.94,4.10,-1.93,1.93,1.85,2.36,6.03,6.03,6.03
47.06,4.11,-1.92,4.11,-1.91,1.91,1.83,2.33,6.02,6.02,6.02
47.53,4.12,-1.90,4.12,-1.89,1.89,1.81,2.30,6.01,6.01,6.01
48.01,4.12,-1.90,4.12,-1.88,1.88,1.79,2.27,5.99,6.00,6.02
48.49,4.12,-1.88,4.13,-1.86,1.86,1.77,2.24,5.98,5.99,6.00
48.97,4.13,-1.85,4.13,-1.85,1.85,1.75,2.22,5.98,5.98,5.97
49.46,4.13,-1.84,4.12,-1.84,1.84,1.74,2.19,5.97,5.96,5.96
49.96,4.13,-1.81,4.11,-1.83,1.83,1.72,2.17,5.96,5.95,5.94
50.46,4.12,-1.82,4.10,-1.83,1.83,1.71,2.15,5.94,5.93,5.93
50.96,4.11,-1.81,4.09,-1.82,1.82,1.69,2.13,5.93,5.91,5.92
51.47,4.09,-1.80,4.07,-1.82,1.82,1.68,2.12,5.91,5.89,5.88
51.99,4.07,-1.80,4.05,-1.82,1.82,1.66,2.10,5.89,5.87,5.87
52.51,4.04,-1.82,4.03,-1.83,1.83,1.65,2.08,5.86,5.85,5.86
53.03,4.01,-1.83,4.00,-1.83,1.83,1.64,2.07,5.83,5.83,5.83
53.56,3.97,-1.85,3.97,-1.83,1.83,1.63,2.06,5.80,5.81,5.82
54.10,3.93,-1.86,3.94,-1.84,1.84,1.61,2.04,5.77,5.79,5.79
54.64,3.90,-1.87,3.91,-1.85,1.85,1.60,2.03,5.75,5.77,5.77
55.18,3.87,-1.87,3.88,-1.86,1.86,1.60,2.02,5.73,5.74,5.74
55.74,3.84,-1.87,3.84,-1.88,1.88,1.59,2.01,5.71,5.72,5.71
56.29,3.82,-1.88,3.81,-1.88,1.88,1.58,2.00,5.70,5.70,5.70
56.86,3.79,-1.88,3.78,-1.89,1.89,1.57,1.99,5.68,5.67,5.67
57.42,3.75,-1.89,3.74,-1.90,1.90,1.57,1.98,5.65,5.64,5.63
58.00,3.72,-1.90,3.71,-1.91,1.91,1.56,1.97,5.62,5.62,5.61
58.58,3.69,-1.90,3.68,-1.91,1.91,1.55,1.96,5.60,5.59,5.59
59.16,3.65,-1.92,3.64,-1.91,1.91,1.55,1.95,5.56,5.56,5.56
59.76,3.61,-1.93,3.61,-1.91,1.91,1.55,1.94,5.52,5.52,5.54
60.35,3.57,-1.94,3.58,-1.91,1.91,1.55,1.92,5.47,5.49,5.50
60.96,3.54,-1.93,3.55,-1.91,1.91,1.54,1.91,5.44,5.45,5.47
61.57,3.51,-1.91,3.51,-1.90,1.90,1.54,1.90,5.41,5.42,5.42
62.18,3.48,-1.89,3.48,-1.90,1.90,1.54,1.89,5.38,5.38,5.37
62.80,3.45,-1.89,3.44,-1.90,1.90,1.54,1.88,5.34,5.34,5.34
63.43,3.42,-1.87,3.41,-1.89,1.89,1.55,1.86,5.31,5.30,5.29
64.07,3.39,-1.86,3.37,-1.88,1.88,1.55,1.85,5.27,5.26,5.25
64.71,3.35,-1.86,3.34,-1.87,1.87,1.55,1.83,5.22,5.21,5.21
65.35,3.32,-1.85,3.30,-1.86,1.86,1.56,1.82,5.18,5.17,5.16
66.01,3.27,-1.86,3.27,-1.85,1.85,1.56,1.80,5.12,5.12,5.12
66.67,3.23,-1.86,3.24,-1.84,1.84,1.57,1.79,5.07,5.08,5.09
67.33,3.19,-1.86,3.20,-1.83,1.83,1.57,1.77,5.02,5.03,5.04
68.01,3.16,-1.84,3.16,-1.83,1.83,1.58,1.75,4.98,4.99,4.99
68.69,3.13,-1.82,3.12,-1.82,1.82,1.59,1.73,4.95,4.94,4.95
69.37,3.10,-1.80,3.08,-1.81,1.81,1.60,1.72,4.91,4.90,4.90
70.07,3.07,-1.78,3.05,-1.81,1.81,1.61,1.70,4.87,4.85,4.85
70.77,3.02,-1.79,3.01,-1.80,1.80,1.62,1.68,4.82,4.81,4.81
71.48,2.98,-1.79,2.97,-1.80,1.80,1.64,1.66,4.77,4.76,4.77
72.19,2.94,-1.78,2.93,-1.79,1.79,1.65,1.65,4.72,4.72,4.72
72.91,2.90,-1.78,2.89,-1.78,1.78,1.66,1.63,4.68,4.68,4.67
73.64,2.85,-1.78,2.86,-1.77,1.77,1.68,1.61,4.62,4.63,4.63
74.38,2.81,-1.79,2.82,-1.77,1.77,1.69,1.60,4.57,4.59,4.59
75.12,2.78,-1.77,2.79,-1.76,1.76,1.71,1.58,4.54,4.55,4.55
75.87,2.75,-1.76,2.76,-1.75,1.75,1.72,1.57,4.50,4.51,4.51
76.63,2.72,-1.76,2.72,-1.75,1.75,1.74,1.55,4.46,4.47,4.47
77.40,2.70,-1.74,2.69,-1.74,1.74,1.76,1.54,4.44,4.43,4.43
78.17,2.67,-1.73,2.66,-1.74,1.74,1.78,1.53,4.40,4.40,4.39
78.95,2.64,-1.73,2.63,-1.73,1.73,1.80,1.51,4.37,4.36,4.36
79.74,2.61,-1.72,2.60,-1.73,1.73,1.81,1.50,4.33,4.33,4.33
80.54,2.58,-1.72,2.57,-1.72,1.72,1.83,1.49,4.30,4.29,4.30
81.35,2.56,-1.71,2.54,-1.72,1.72,1.85,1.48,4.27,4.26,4.26
82.16,2.52,-1.71,2.51,-1.72,1.72,1.87,1.47,4.23,4.23,4.23
82.98,2.48,-1.73,2.48,-1.72,1.72,1.89,1.47,4.20,4.20,4.20
83.81,2.45,-1.72,2.44,-1.72,1.72,1.90,1.46,4.17,4.17,4.17
84.65,2.41,-1.72,2.41,-1.73,1.73,1.92,1.45,4.14,4.14,4.13
85.50,2.38,-1.74,2.37,-1.74,1.74,1.94,1.45,4.11,4.11,4.11
86.35,2.34,-1.75,2.33,-1.75,1.75,1.95,1.45,4.08,4.08,4.08
87.22,2.30,-1.76,2.29,-1.76,1.76,1.97,1.45,4.06,4.05,4.05
88.09,2.27,-1.76,2.25,-1.77,1.77,1.98,1.44,4.04,4.03,4.02
88.97,2.22,-1.79,2.21,-1.79,1.79,1.99,1.44,4.00,4.00,4.00
89.86,2.17,-1.81,2.17,-1.80,1.80,2.00,1.45,3.97,3.97,3.98
90.76,2.13,-1.81,2.13,-1.81,1.81,2.01,1.45,3.94,3.94,3.94
91.66,2.09,-1.83,2.09,-1.83,1.83,2.01,1.45,3.91,3.92,3.91
92.58,2.05,-1.83,2.05,-1.84,1.84,2.02,1.46,3.89,3.89,3.88
93.51,2.00,-1.87,2.00,-1.86,1.86,2.02,1.46,3.85,3.86,3.87
94.44,1.96,-1.88,1.96,-1.87,1.87,2.02,1.47,3.82,3.83,3.83
95.39,1.91,-1.90,1.91,-1.88,1.88,2.02,1.47,3.79,3.79,3.81
96.34,1.88,-1.88,1.87,-1.89,1.89,2.01,1.48,3.76,3.76,3.76
97.30,1.85,-1.88,1.83,-1.90,1.90,2.00,1.49,3.74,3.73,3.72
98.28,1.80,-1.89,1.79,-1.90,1.90,1.99,1.50,3.70,3.69,3.69
99.26,1.75,-1.90,1.75,-1.91,1.91,1.98,1.51,3.65,3.65,3.65
100.25,1.69,-1.93,1.70,-1.91,1.91,1.96,1.52,3.60,3.61,3.61
101.25,1.64,-1.94,1.66,-1.92,1.92,1.95,1.53,3.55,3.57,3.58
102.27,1.59,-1.94,1.61,-1.92,1.92,1.93,1.55,3.50,3.53,3.53
103.29,1.57,-1.92,1.57,-1.92,1.92,1.90,1.56,3.49,3.49,3.48
104.32,1.55,-1.90,1.52,-1.92,1.92,1.88,1.57,3.47,3.44,3.44
105.37,1.50,-1.90,1.46,-1.92,1.92,1.85,1.58,3.42,3.39,3.39
106.42,1.43,-1.91,1.41,-1.92,1.92,1.83,1.59,3.35,3.33,3.34
107.48,1.37,-1.92,1.36,-1.92,1.92,1.80,1.61,3.29,3.28,3.29
108.56,1.31,-1.92,1.31,-1.92,1.92,1.77,1.62,3.22,3.22,3.22
109.64,1.25,-1.92,1.25,-1.91,1.91,1.73,1.63,3.16,3.16,3.16
110.74,1.19,-1.92,1.19,-1.90,1.90,1.70,1.64,3.09,3.10,3.11
111.85,1.14,-1.90,1.14,-1.90,1.90,1.66,1.65,3.03,3.03,3.04
112.97,1.07,-1.90,1.08,-1.89,1.89,1.63,1.66,2.95,2.97,2.96
114.10,1.00,-1.91,1.01,-1.88,1.88,1.59,1.66,2.88,2.90,2.91
115.24,0.94,-1.89,0.95,-1.88,1.88,1.55,1.67,2.82,2.83,2.83
116.39,0.91,-1.85,0.89,-1.88,1.88,1.52,1.67,2.78,2.76,2.75
117.55,0.86,-1.83,0.82,-1.87,1.87,1.48,1.68,2.73,2.69,2.69
118.73,0.79,-1.83,0.76,-1.87,1.87,1.44,1.68,2.65,2.63,2.61
119.92,0.72,-1.84,0.70,-1.86,1.86,1.40,1.68,2.58,2.56,2.56
121.12,0.63,-1.86,0.64,-1.85,1.85,1.36,1.67,2.48,2.49,2.49
122.33,0.58,-1.85,0.58,-1.85,1.85,1.32,1.67,2.42,2.43,2.42
123.55,0.53,-1.84,0.52,-1.84,1.84,1.29,1.66,2.37,2.36,2.37
124.79,0.46,-1.85,0.47,-1.84,1.84,1.25,1.65,2.29,2.30,2.31
126.03,0.40,-1.85,0.42,-1.83,1.83,1.21,1.64,2.22,2.24,2.25
127.29,0.37,-1.82,0.36,-1.82,1.82,1.17,1.63,2.18,2.18,2.19
128.57,0.33,-1.79,0.32,-1.81,1.81,1.13,1.61,2.13,2.13,2.12
129.85,0.28,-1.79,0.28,-1.79,1.79,1.09,1.59,2.07,2.07,2.07
131.15,0.26,-1.75,0.25,-1.77,1.77,1.06,1.57,2.02,2.01,2.01
132.46,0.24,-1.73,0.22,-1.74,1.74,1.02,1.55,1.97,1.96,1.96
133.79,0.21,-1.71,0.21,-1.70,1.70,0.98,1.53,1.91,1.91,1.91
135.12,0.19,-1.67,0.20,-1.66,1.66,0.95,1.50,1.84,1.86,1.86
136.48,0.19,-1.63,0.20,-1.61,1.61,0.91,1.47,1.79,1.81,1.81
137.84,0.19,-1.57,0.21,-1.55,1.55,0.87,1.44,1.74,1.76,1.76
139.22,0.20,-1.51,0.22,-1.49,1.49,0.84,1.41,1.69,1.71,1.71
140.61,0.23,-1.43,0.25,-1.42,1.42,0.80,1.38,1.65,1.67,1.65
142.02,0.29,-1.34,0.28,-1.34,1.34,0.77,1.35,1.63,1.62,1.62
143.44,0.32,-1.27,0.32,-1.26,1.26,0.73,1.31,1.58,1.58,1.58
144.87,0.38,-1.16,0.36,-1.17,1.17,0.69,1.28,1.54,1.53,1.53
146.32,0.42,-1.07,0.42,-1.07,1.07,0.66,1.24,1.48,1.48,1.48
147.78,0.48,-0.97,0.48,-0.96,0.96,0.62,1.21,1.43,1.44,1.45
149.26,0.53,-0.88,0.54,-0.85,0.85,0.58,1.17,1.37,1.39,1.40
150.75,0.60,-0.74,0.61,-0.73,0.73,0.55,1.13,1.33,1.34,1.34
152.26,0.66,-0.64,0.68,-0.61,0.61,0.51,1.09,1.27,1.29,1.29
153.78,0.74,-0.51,0.75,-0.50,0.50,0.47,1.06,1.23,1.24,1.25
155.32,0.81,-0.38,0.81,-0.38,0.38,0.43,1.02,1.19,1.19,1.19
156.88,0.89,-0.26,0.87,-0.27,0.27,0.39,0.98,1.15,1.14,1.14
158.44,0.95,-0.15,0.93,-0.16,0.16,0.35,0.94,1.10,1.09,1.09
160.03,1.03,-0.01,0.99,-0.05,0.05,0.31,0.90,1.08,1.04,1.03
161.63,1.05,0.07,1.03,0.05,-0.05,0.26,0.86,1.00,0.99,0.98
163.24,1.08,0.15,1.07,0.14,-0.14,0.22,0.83,0.94,0.93,0.93
164.88,1.13,0.24,1.10,0.22,-0.22,0.17,0.79,0.90,0.88,0.88
166.53,1.14,0.31,1.12,0.30,-0.30,0.12,0.75,0.84,0.82,0.83
168.19,1.13,0.35,1.13,0.36,-0.36,0.07,0.72,0.77,0.77,0.77
169.87,1.13,0.41,1.12,0.41,-0.41,0.02,0.68,0.72,0.71,0.72
171.57,1.12,0.45,1.10,0.45,-0.45,-0.04,0.64,0.67,0.66,0.66
173.29,1.11,0.50,1.08,0.48,-0.48,-0.09,0.61,0.63,0.60,0.60
175.02,1.06,0.50,1.04,0.50,-0.50,-0.15,0.57,0.55,0.54,0.55
176.77,1.02,0.54,1.00,0.52,-0.52,-0.21,0.54,0.50,0.48,0.48
178.54,0.97,0.54,0.95,0.53,-0.53,-0.27,0.50,0.44,0.42,0.42
180.32,0.91,0.54,0.90,0.53,-0.53,-0.33,0.47,0.37,0.36,0.36
182.13,0.84,0.53,0.84,0.54,-0.54,-0.38,0.43,0.30,0.30,0.30
183.95,0.74,0.50,0.77,0.53,-0.53,-0.44,0.40,0.20,0.24,0.24
185.79,0.68,0.49,0.71,0.53,-0.53,-0.50,0.37,0.14,0.18,0.18
187.65,0.63,0.52,0.64,0.53,-0.53,-0.55,0.33,0.10,0.12,0.11
189.52,0.57,0.51,0.58,0.52,-0.52,-0.59,0.30,0.05,0.06,0.05
191.42,0.52,0.52,0.51,0.51,-0.51,-0.63,0.27,0.00,-0.00,-0.00
193.33,0.45,0.50,0.44,0.50,-0.50,-0.66,0.24,-0.06,-0.06,-0.06
195.27,0.39,0.49,0.38,0.50,-0.50,-0.68,0.21,-0.11,-0.11,-0.11
197.22,0.32,0.48,0.32,0.49,-0.49,-0.69,0.18,-0.17,-0.17,-0.17
199.19,0.26,0.49,0.26,0.48,-0.48,-0.69,0.15,-0.23,-0.22,-0.23
201.18,0.21,0.49,0.20,0.48,-0.48,-0.69,0.12,-0.27,-0.28,-0.28
203.19,0.15,0.47,0.15,0.47,-0.47,-0.67,0.09,-0.33,-0.33,-0.32
205.23,0.10,0.48,0.09,0.47,-0.47,-0.65,0.06,-0.37,-0.38,-0.38
207.28,0.04,0.44,0.04,0.46,-0.46,-0.61,0.03,-0.43,-0.42,-0.41
209.35,-0.02,0.44,-0.02,0.45,-0.45,-0.58,0.01,-0.48,-0.47,-0.47
211.44,-0.08,0.44,-0.07,0.45,-0.45,-0.54,-0.02,-0.53,-0.51,-0.52
213.56,-0.12,0.44,-0.12,0.44,-0.44,-0.49,-0.05,-0.56,-0.56,-0.56
215.69,-0.16,0.42,-0.17,0.43,-0.43,-0.45,-0.07,-0.59,-0.60,-0.59
217.85,-0.21,0.42,-0.22,0.41,-0.41,-0.40,-0.09,-0.63,-0.63,-0.63
220.03,-0.24,0.43,-0.27,0.40,-0.40,-0.35,-0.12,-0.64,-0.67,-0.68
222.23,-0.30,0.41,-0.32,0.38,-0.38,-0.31,-0.14,-0.69,-0.70,-0.71
224.45,-0.35,0.38,-0.37,0.37,-0.37,-0.26,-0.16,-0.72,-0.73,-0.73
226.70,-0.40,0.35,-0.41,0.35,-0.35,-0.22,-0.18,-0.76,-0.76,-0.76
228.96,-0.45,0.34,-0.45,0.34,-0.34,-0.18,-0.19,-0.79,-0.79,-0.79
231.25,-0.49,0.31,-0.49,0.32,-0.32,-0.14,-0.21,-0.81,-0.81,-0.80
233.57,-0.54,0.28,-0.53,0.30,-0.30,-0.10,-0.23,-0.84,-0.83,-0.83
235.90,-0.60,0.24,-0.57,0.27,-0.27,-0.07,-0.24,-0.88,-0.84,-0.85
238.26,-0.62,0.23,-0.60,0.25,-0.25,-0.03,-0.25,-0.88,-0.86,-0.86
240.64,-0.65,0.22,-0.64,0.23,-0.23,-0.00,-0.26,-0.88,-0.87,-0.87
243.05,-0.66,0.21,-0.67,0.20,-0.20,0.03,-0.27,-0.87,-0.87,-0.87
245.48,-0.67,0.21,-0.70,0.18,-0.18,0.06,-0.27,-0.85,-0.88,-0.88
247.93,-0.71,0.17,-0.73,0.15,-0.15,0.08,-0.28,-0.87,-0.88,-0.88
250.41,-0.74,0.15,-0.76,0.12,-0.12,0.11,-0.28,-0.87,-0.88,-0.89
252.92,-0.78,0.09,-0.79,0.09,-0.09,0.13,-0.28,-0.88,-0.88,-0.88
255.45,-0.80,0.06,-0.81,0.06,-0.06,0.16,-0.28,-0.87,-0.88,-0.87
258.00,-0.83,0.03,-0.84,0.03,-0.03,0.18,-0.28,-0.87,-0.87,-0.87
260.58,-0.86,0.00,-0.86,-0.00,0.00,0.20,-0.28,-0.86,-0.86,-0.86
263.19,-0.88,-0.03,-0.89,-0.04,0.04,0.22,-0.27,-0.85,-0.85,-0.85
265.82,-0.92,-0.07,-0.92,-0.07,0.07,0.24,-0.26,-0.85,-0.84,-0.85
268.48,-0.94,-0.12,-0.94,-0.11,0.11,0.26,-0.26,-0.83,-0.83,-0.83
271.16,-0.97,-0.16,-0.97,-0.15,0.15,0.28,-0.25,-0.83,-0.82,-0.81
273.87,-1.00,-0.19,-0.99,-0.18,0.18,0.30,-0.23,-0.82,-0.81,-0.81
276.61,-1.02,-0.24,-1.02,-0.22,0.22,0.32,-0.22,-0.80,-0.80,-0.79
279.38,-1.04,-0.26,-1.04,-0.26,0.26,0.33,-0.21,-0.79,-0.78,-0.78
282.17,-1.05,-0.28,-1.06,-0.29,0.29,0.35,-0.19,-0.76,-0.77,-0.77
284.99,-1.08,-0.33,-1.09,-0.33,0.33,0.37,-0.18,-0.76,-0.76,-0.76
287.84,-1.11,-0.36,-1.11,-0.37,0.37,0.39,-0.16,-0.75,-0.75,-0.75
290.72,-1.13,-0.40,-1.14,-0.41,0.41,0.40,-0.14,-0.73,-0.73,-0.74
293.63,-1.15,-0.43,-1.17,-0.45,0.45,0.42,-0.12,-0.71,-0.72,-0.72
296.57,-1.17,-0.47,-1.19,-0.48,0.48,0.44,-0.10,-0.69,-0.71,-0.71
299.53,-1.20,-0.50,-1.22,-0.53,0.53,0.46,-0.08,-0.68,-0.70,-0.70
302.53,-1.24,-0.55,-1.25,-0.56,0.56,0.48,-0.06,-0.68,-0.69,-0.70
305.55,-1.27,-0.60,-1.28,-0.60,0.60,0.49,-0.03,-0.67,-0.68,-0.67
308.61,-1.30,-0.64,-1.30,-0.64,0.64,0.51,-0.01,-0.67,-0.67,-0.67
311.69,-1.34,-0.68,-1.33,-0.67,0.67,0.53,0.01,-0.67,-0.66,-0.66
314.81,-1.35,-0.72,-1.35,-0.70,0.70,0.55,0.04,-0.65,-0.65,-0.63
317.96,-1.38,-0.75,-1.37,-0.73,0.73,0.57,0.06,-0.66,-0.64,-0.64
321.14,-1.40,-0.77,-1.38,-0.75,0.75,0.59,0.08,-0.66,-0.63,-0.63
324.35,-1.41,-0.78,-1.39,-0.76,0.76,0.61,0.11,-0.65,-0.63,-0.63
327.59,-1.41,-0.80,-1.40,-0.77,0.77,0.63,0.14,-0.64,-0.62,-0.62
330.87,-1.41,-0.79,-1.40,-0.78,0.78,0.65,0.16,-0.63,-0.62,-0.62
334.18,-1.40,-0.78,-1.40,-0.78,0.78,0.67,0.19,-0.62,-0.62,-0.62
337.52,-1.39,-0.78,-1.40,-0.78,0.78,0.69,0.21,-0.61,-0.62,-0.62
340.90,-1.39,-0.78,-1.39,-0.78,0.78,0.71,0.24,-0.62,-0.62,-0.61
344.30,-1.38,-0.77,-1.39,-0.77,0.77,0.73,0.27,-0.61,-0.62,-0.61
347.75,-1.37,-0.76,-1.39,-0.77,0.77,0.75,0.30,-0.60,-0.62,-0.62
351.23,-1.37,-0.76,-1.39,-0.77,0.77,0.77,0.32,-0.60,-0.62,-0.62
354.74,-1.37,-0.75,-1.40,-0.77,0.77,0.79,0.35,-0.60,-0.63,-0.62
358.28,-1.39,-0.76,-1.41,-0.78,0.78,0.81,0.38,-0.61,-0.63,-0.63
361.87,-1.40,-0.77,-1.42,-0.79,0.79,0.82,0.41,-0.61,-0.63,-0.64
365.49,-1.43,-0.80,-1.44,-0.80,0.80,0.84,0.44,-0.63,-0.64,-0.64
369.14,-1.45,-0.80,-1.47,-0.82,0.82,0.86,0.47,-0.63,-0.65,-0.65
372.83,-1.48,-0.83,-1.50,-0.84,0.84,0.88,0.49,-0.64,-0.65,-0.65
376.56,-1.52,-0.86,-1.52,-0.86,0.86,0.90,0.52,-0.66,-0.66,-0.66
380.33,-1.55,-0.89,-1.56,-0.88,0.88,0.91,0.55,-0.67,-0.67,-0.67
384.13,-1.59,-0.92,-1.59,-0.91,0.91,0.93,0.58,-0.69,-0.68,-0.68
387.97,-1.62,-0.93,-1.62,-0.93,0.93,0.94,0.61,-0.69,-0.69,-0.69
391.85,-1.65,-0.95,-1.65,-0.95,0.95,0.95,0.64,-0.70,-0.69,-0.70
395.77,-1.68,-0.99,-1.67,-0.97,0.97,0.97,0.67,-0.71,-0.70,-0.69
399.73,-1.70,-1.00,-1.70,-0.99,0.99,0.98,0.70,-0.72,-0.71,-0.70
403.72,-1.72,-1.01,-1.72,-1.00,1.00,0.98,0.73,-0.72,-0.71,-0.72
407.76,-1.74,-1.02,-1.73,-1.01,1.01,0.99,0.76,-0.73,-0.72,-0.73
411.84,-1.74,-1.03,-1.74,-1.02,1.02,1.00,0.79,-0.73,-0.72,-0.72
415.96,-1.74,-1.01,-1.75,-1.02,1.02,1.00,0.82,-0.73,-0.73,-0.73
420.12,-1.74,-1.01,-1.75,-1.01,1.01,1.00,0.84,-0.73,-0.73,-0.73
424.32,-1.73,-1.00,-1.74,-1.00,1.00,1.00,0.87,-0.73,-0.74,-0.73
428.56,-1.73,-0.99,-1.73,-0.99,0.99,1.00,0.90,-0.74,-0.74,-0.74
432.85,-1.72,-0.98,-1.72,-0.98,0.98,1.00,0.92,-0.75,-0.74,-0.75
437.18,-1.70,-0.96,-1.70,-0.96,0.96,0.99,0.95,-0.75,-0.74,-0.75
441.55,-1.69,-0.96,-1.68,-0.93,0.93,0.98,0.97,-0.76,-0.74,-0.74
445.96,-1.66,-0.93,-1.65,-0.91,0.91,0.97,0.99,-0.75,-0.74,-0.74
450.42,-1.62,-0.88,-1.62,-0.88,0.88,0.96,1.01,-0.74,-0.74,-0.75
454.93,-1.60,-0.86,-1.59,-0.86,0.86,0.95,1.03,-0.75,-0.74,-0.74
459.48,-1.56,-0.82,-1.57,-0.83,0.83,0.94,1.05,-0.74,-0.74,-0.74
464.07,-1.53,-0.80,-1.54,-0.80,0.80,0.92,1.07,-0.73,-0.73,-0.73
468.71,-1.50,-0.78,-1.51,-0.78,0.78,0.91,1.08,-0.73,-0.73,-0.72
473.40,-1.46,-0.74,-1.48,-0.76,0.76,0.89,1.09,-0.71,-0.72,-0.72
478.13,-1.44,-0.73,-1.45,-0.74,0.74,0.87,1.10,-0.71,-0.72,-0.71
482.91,-1.41,-0.70,-1.43,-0.72,0.72,0.85,1.11,-0.69,-0.71,-0.72
487.74,-1.40,-0.70,-1.42,-0.71,0.71,0.83,1.11,-0.69,-0.71,-0.71
492.62,-1.38,-0.69,-1.40,-0.70,0.70,0.81,1.11,-0.68,-0.70,-0.70
497.55,-1.37,-0.68,-1.40,-0.70,0.70,0.79,1.11,-0.67,-0.70,-0.70
502.52,-1.37,-0.69,-1.39,-0.70,0.70,0.76,1.11,-0.67,-0.69,-0.69
507.55,-1.38,-0.70,-1.39,-0.70,0.70,0.74,1.10,-0.68,-0.69,-0.69
512.62,-1.38,-0.70,-1.39,-0.71,0.71,0.72,1.09,-0.68,-0.69,-0.69
517.75,-1.39,-0.71,-1.40,-0.71,0.71,0.69,1.08,-0.68,-0.68,-0.68
522.93,-1.40,-0.72,-1.40,-0.72,0.72,0.67,1.07,-0.69,-0.68,-0.68
528.16,-1.41,-0.73,-1.40,-0.72,0.72,0.65,1.05,-0.70,-0.68,-0.68
