frequency,raw,error,smoothed,error_smoothed,equalization,parametric_eq,fixed_band_eq,equalized_raw,equalized_smoothed,target
20.00,-16.67,-9.03,-17.01,-9.37,9.37,7.58,2.68,-7.31,-7.64,-7.64
20.20,-16.56,-8.91,-16.77,-9.12,9.12,7.63,2.75,-7.45,-7.65,-7.65
20.40,-16.46,-8.80,-16.54,-8.88,8.88,7.67,2.83,-7.58,-7.66,-7.66
20.61,-16.36,-8.69,-16.33,-8.66,8.66,7.70,2.91,-7.70,-7.67,-7.66
20.81,-16.25,-8.57,-16.13,-8.45,8.45,7.73,3.00,-7.80,-7.68,-7.68
21.02,-16.14,-8.46,-15.94,-8.26,8.26,7.76,3.08,-7.89,-7.69,-7.68
21.23,-16.01,-8.32,-15.77,-8.08,8.08,7.78,3.17,-7.94,-7.69,-7.69
21.44,-15.89,-8.21,-15.61,-7.91,7.91,7.79,3.26,-7.98,-7.70,-7.69
21.66,-15.77,-8.07,-15.46,-7.76,7.76,7.80,3.36,-8.01,-7.71,-7.69
21.87,-15.63,-7.93,-15.33,-7.62,7.62,7.80,3.45,-8.01,-7.71,-7.71
22.09,-15.44,-7.73,-15.21,-7.49,7.49,7.79,3.55,-7.95,-7.72,-7.71
22.31,-15.16,-7.44,-15.10,-7.38,7.38,7.78,3.66,-7.78,-7.72,-7.72
22.54,-14.89,-7.16,-14.98,-7.26,7.26,7.76,3.76,-7.63,-7.72,-7.72
22.76,-14.60,-6.88,-14.90,-7.17,7.17,7.73,3.87,-7.43,-7.73,-7.73
22.99,-14.32,-6.59,-14.84,-7.11,7.11,7.70,3.98,-7.22,-7.73,-7.73
23.22,-14.41,-6.67,-14.80,-7.06,7.06,7.66,4.09,-7.35,-7.73,-7.74
23.45,-14.51,-6.78,-14.75,-7.02,7.02,7.61,4.21,-7.50,-7.74,-7.73
23.69,-14.61,-6.87,-14.69,-6.95,6.95,7.56,4.32,-7.66,-7.74,-7.74
23.92,-14.72,-6.98,-14.63,-6.89,6.89,7.50,4.44,-7.84,-7.74,-7.74
24.16,-14.80,-7.07,-14.56,-6.83,6.83,7.44,4.57,-7.98,-7.74,-7.73
24.40,-14.89,-7.16,-14.54,-6.81,6.81,7.37,4.69,-8.08,-7.73,-7.72
24.65,-14.95,-7.23,-14.56,-6.83,6.83,7.30,4.82,-8.13,-7.73,-7.72
24.89,-15.03,-7.31,-14.60,-6.87,6.87,7.21,4.94,-8.16,-7.73,-7.72
25.14,-14.87,-7.14,-14.64,-6.92,6.92,7.13,5.07,-7.95,-7.73,-7.72
25.39,-14.55,-6.82,-14.68,-6.96,6.96,7.04,5.20,-7.59,-7.72,-7.72
25.65,-14.24,-6.51,-14.69,-6.97,6.97,6.94,5.33,-7.26,-7.72,-7.72
25.91,-13.92,-6.20,-14.66,-6.95,6.95,6.85,5.46,-6.97,-7.71,-7.72
26.16,-14.01,-6.30,-14.61,-6.89,6.89,6.74,5.59,-7.11,-7.71,-7.70
26.43,-14.32,-6.61,-14.52,-6.81,6.81,6.64,5.72,-7.51,-7.71,-7.70
26.69,-14.65,-6.95,-14.41,-6.70,6.70,6.53,5.85,-7.95,-7.71,-7.70
26.96,-14.98,-7.28,-14.28,-6.57,6.57,6.42,5.98,-8.41,-7.71,-7.70
27.23,-14.77,-7.06,-14.13,-6.43,6.43,6.30,6.10,-8.34,-7.70,-7.70
27.50,-14.44,-6.73,-13.98,-6.28,6.28,6.18,6.21,-8.15,-7.70,-7.70
27.77,-14.11,-6.41,-13.84,-6.14,6.14,6.06,6.33,-7.97,-7.70,-7.69
28.05,-13.78,-6.09,-13.72,-6.02,6.02,5.94,6.43,-7.76,-7.70,-7.69
28.33,-13.47,-5.77,-13.61,-5.91,5.91,5.82,6.53,-7.56,-7.70,-7.70
28.62,-13.17,-5.46,-13.49,-5.79,5.79,5.70,6.62,-7.37,-7.70,-7.70
28.90,-12.85,-5.16,-13.36,-5.66,5.66,5.57,6.70,-7.19,-7.70,-7.69
29.19,-12.73,-5.04,-13.19,-5.50,5.50,5.44,6.77,-7.24,-7.70,-7.69
29.48,-12.71,-5.02,-13.03,-5.33,5.33,5.31,6.83,-7.38,-7.70,-7.69
29.78,-12.69,-5.00,-12.86,-5.16,5.16,5.19,6.88,-7.53,-7.70,-7.69
30.08,-12.70,-5.02,-12.70,-5.00,5.00,5.06,6.91,-7.70,-7.70,-7.69
30.38,-12.77,-5.08,-12.57,-4.87,4.87,4.93,6.93,-7.90,-7.70,-7.69
30.68,-12.85,-5.15,-12.50,-4.79,4.79,4.80,6.94,-8.06,-7.71,-7.70
30.99,-12.93,-5.23,-12.47,-4.76,4.76,4.67,6.93,-8.18,-7.71,-7.70
31.30,-12.72,-5.00,-12.46,-4.75,4.75,4.54,6.90,-7.97,-7.71,-7.71
31.61,-12.48,-4.77,-12.44,-4.72,4.72,4.40,6.86,-7.76,-7.72,-7.71
31.93,-12.26,-4.53,-12.38,-4.66,4.66,4.27,6.81,-7.59,-7.72,-7.72
32.24,-12.04,-4.32,-12.29,-4.57,4.57,4.14,6.74,-7.47,-7.72,-7.73
32.57,-11.85,-4.11,-12.18,-4.45,4.45,4.02,6.65,-7.39,-7.73,-7.73
32.89,-11.65,-3.91,-12.05,-4.32,4.32,3.89,6.55,-7.33,-7.73,-7.73
33.22,-11.80,-4.06,-11.92,-4.19,4.19,3.76,6.44,-7.61,-7.73,-7.73
33.55,-12.12,-4.38,-11.83,-4.10,4.10,3.63,6.32,-8.02,-7.73,-7.73
33.89,-12.43,-4.71,-11.76,-4.03,4.03,3.50,6.18,-8.41,-7.73,-7.72
34.23,-12.15,-4.41,-11.68,-3.95,3.95,3.37,6.03,-8.20,-7.73,-7.73
34.57,-11.54,-3.81,-11.57,-3.84,3.84,3.25,5.88,-7.70,-7.73,-7.73
34.92,-10.95,-3.22,-11.46,-3.73,3.73,3.12,5.72,-7.22,-7.73,-7.73
35.27,-10.91,-3.19,-11.38,-3.64,3.64,3.00,5.55,-7.27,-7.73,-7.73
35.62,-11.05,-3.32,-11.32,-3.59,3.59,2.87,5.37,-7.47,-7.74,-7.73
35.97,-11.21,-3.47,-11.27,-3.53,3.53,2.75,5.19,-7.68,-7.74,-7.74
36.33,-11.32,-3.57,-11.19,-3.44,3.44,2.63,5.01,-7.88,-7.75,-7.75
36.70,-11.41,-3.66,-11.08,-3.32,3.32,2.50,4.82,-8.10,-7.76,-7.75
37.06,-11.39,-3.62,-10.89,-3.12,3.12,2.38,4.63,-8.27,-7.77,-7.77
37.43,-10.77,-2.98,-10.66,-2.88,2.88,2.26,4.43,-7.89,-7.79,-7.79
37.81,-10.16,-2.36,-10.48,-2.67,2.67,2.14,4.24,-7.48,-7.80,-7.79
38.19,-10.05,-2.24,-10.39,-2.57,2.57,2.03,4.04,-7.49,-7.82,-7.81
38.57,-10.48,-2.65,-10.33,-2.50,2.50,1.91,3.85,-7.98,-7.84,-7.83
38.95,-10.90,-3.04,-10.21,-2.36,2.36,1.79,3.65,-8.54,-7.85,-7.86
39.34,-10.37,-2.48,-10.02,-2.14,2.14,1.68,3.45,-8.22,-7.87,-7.89
39.74,-9.73,-1.83,-9.86,-1.97,1.97,1.56,3.26,-7.76,-7.89,-7.89
40.14,-9.23,-1.32,-9.76,-1.85,1.85,1.45,3.06,-7.38,-7.91,-7.91
40.54,-9.01,-1.07,-9.68,-1.74,1.74,1.33,2.87,-7.26,-7.93,-7.93
40.94,-8.79,-0.83,-9.57,-1.62,1.62,1.22,2.67,-7.17,-7.95,-7.95
41.35,-9.38,-1.41,-9.47,-1.50,1.50,1.11,2.48,-7.87,-7.97,-7.97
41.76,-10.09,-2.10,-9.42,-1.43,1.43,1.00,2.28,-8.66,-7.98,-8.00
42.18,-10.15,-2.14,-9.36,-1.36,1.36,0.89,2.09,-8.79,-8.00,-8.00
42.60,-9.36,-1.34,-9.30,-1.29,1.29,0.78,1.90,-8.07,-8.02,-8.02
43.03,-8.66,-0.63,-9.25,-1.22,1.22,0.67,1.71,-7.45,-8.03,-8.03
43.46,-9.27,-1.21,-9.22,-1.17,1.17,0.56,1.52,-8.09,-8.05,-8.05
43.90,-9.87,-1.80,-9.23,-1.16,1.16,0.45,1.34,-8.71,-8.07,-8.06
44.33,-9.37,-1.28,-9.21,-1.13,1.13,0.35,1.15,-8.24,-8.08,-8.09
44.78,-8.53,-0.42,-9.16,-1.06,1.06,0.24,0.97,-7.47,-8.10,-8.10
45.23,-8.37,-0.26,-9.01,-0.89,0.89,0.14,0.78,-7.48,-8.12,-8.10
45.68,-8.87,-0.74,-8.79,-0.65,0.65,0.03,0.60,-8.22,-8.14,-8.13
46.13,-9.18,-1.02,-8.58,-0.42,0.42,-0.07,0.42,-8.76,-8.16,-8.17
46.60,-9.00,-0.81,-8.43,-0.24,0.24,-0.17,0.24,-8.75,-8.19,-8.18
47.06,-8.76,-0.56,-8.34,-0.12,0.12,-0.28,0.05,-8.64,-8.21,-8.21
47.53,-8.27,-0.05,-8.26,-0.02,0.02,-0.38,-0.12,-8.25,-8.24,-8.23
48.01,-7.79,0.48,-8.17,0.10,-0.10,-0.48,-0.30,-7.89,-8.27,-8.26
48.49,-7.66,0.63,-8.02,0.27,-0.27,-0.58,-0.48,-7.94,-8.29,-8.29
48.97,-7.54,0.78,-7.89,0.43,-0.43,-0.68,-0.66,-7.97,-8.32,-8.33
49.46,-7.28,1.06,-7.80,0.55,-0.55,-0.78,-0.83,-7.83,-8.35,-8.35
49.96,-7.02,1.38,-7.70,0.67,-0.67,-0.87,-1.01,-7.69,-8.38,-8.39
50.46,-7.62,0.79,-7.52,0.88,-0.88,-0.97,-1.18,-8.50,-8.40,-8.41
50.96,-8.32,0.11,-7.29,1.14,-1.14,-1.07,-1.35,-9.46,-8.43,-8.43
51.47,-7.84,0.61,-7.14,1.32,-1.32,-1.17,-1.52,-9.16,-8.46,-8.45
51.99,-7.28,1.21,-7.08,1.40,-1.40,-1.26,-1.69,-8.68,-8.48,-8.48
52.51,-7.14,1.37,-7.03,1.48,-1.48,-1.36,-1.85,-8.61,-8.51,-8.50
53.03,-6.99,1.52,-6.97,1.56,-1.56,-1.45,-2.02,-8.56,-8.53,-8.51
53.56,-6.57,1.97,-6.87,1.69,-1.69,-1.55,-2.18,-8.26,-8.56,-8.54
54.10,-6.24,2.34,-6.74,1.84,-1.84,-1.64,-2.34,-8.08,-8.58,-8.57
54.64,-6.29,2.30,-6.60,1.99,-1.99,-1.73,-2.49,-8.29,-8.59,-8.59
55.18,-6.26,2.36,-6.49,2.12,-2.12,-1.83,-2.65,-8.38,-8.61,-8.63
55.74,-6.06,2.59,-6.37,2.26,-2.26,-1.92,-2.80,-8.31,-8.63,-8.64
56.29,-6.35,2.31,-6.20,2.45,-2.45,-2.01,-2.94,-8.79,-8.64,-8.65
56.86,-7.08,1.59,-6.10,2.56,-2.56,-2.10,-3.08,-9.64,-8.66,-8.66
57.42,-6.59,2.11,-6.10,2.57,-2.57,-2.20,-3.22,-9.16,-8.68,-8.69
58.00,-5.69,3.01,-6.10,2.60,-2.60,-2.29,-3.35,-8.28,-8.69,-8.69
58.58,-5.55,3.14,-6.07,2.63,-2.63,-2.38,-3.48,-8.19,-8.71,-8.69
59.16,-5.56,3.15,-6.06,2.67,-2.67,-2.47,-3.60,-8.23,-8.73,-8.71
59.76,-5.91,2.80,-5.96,2.79,-2.79,-2.56,-3.71,-8.70,-8.74,-8.71
60.35,-6.07,2.67,-5.84,2.92,-2.92,-2.65,-3.82,-9.00,-8.76,-8.75
60.96,-6.09,2.67,-5.75,3.03,-3.03,-2.74,-3.92,-9.12,-8.78,-8.76
61.57,-5.71,3.09,-5.60,3.19,-3.19,-2.82,-4.02,-8.90,-8.80,-8.79
62.18,-5.55,3.28,-5.47,3.34,-3.34,-2.91,-4.11,-8.89,-8.82,-8.83
62.80,-5.99,2.86,-5.38,3.46,-3.46,-3.00,-4.19,-9.45,-8.84,-8.86
63.43,-5.60,3.27,-5.24,3.62,-3.62,-3.09,-4.27,-9.22,-8.86,-8.87
64.07,-4.90,3.99,-5.19,3.69,-3.69,-3.18,-4.34,-8.58,-8.88,-8.88
64.71,-4.76,4.14,-5.16,3.74,-3.74,-3.26,-4.41,-8.51,-8.90,-8.90
65.35,-4.45,4.46,-5.05,3.87,-3.87,-3.35,-4.47,-8.32,-8.92,-8.92
66.01,-4.03,4.91,-4.92,4.02,-4.02,-3.44,-4.52,-8.04,-8.93,-8.93
66.67,-5.09,3.84,-4.76,4.18,-4.18,-3.52,-4.58,-9.28,-8.95,-8.93
67.33,-5.14,3.83,-4.62,4.34,-4.34,-3.61,-4.62,-9.48,-8.96,-8.96
68.01,-4.21,4.77,-4.45,4.53,-4.53,-3.69,-4.66,-8.74,-8.98,-8.97
68.69,-4.97,4.02,-4.35,4.64,-4.64,-3.78,-4.70,-9.62,-8.99,-8.99
69.37,-4.73,4.27,-4.22,4.78,-4.78,-3.86,-4.74,-9.51,-9.01,-9.00
70.07,-3.82,5.20,-4.07,4.94,-4.94,-3.95,-4.77,-8.76,-9.02,-9.01
70.77,-4.44,4.58,-4.06,4.97,-4.97,-4.03,-4.80,-9.41,-9.03,-9.02
71.48,-4.09,4.95,-4.02,5.03,-5.03,-4.12,-4.83,-9.11,-9.04,-9.03
72.19,-3.48,5.57,-3.92,5.13,-5.13,-4.20,-4.85,-8.61,-9.05,-9.05
72.91,-3.46,5.60,-3.82,5.24,-5.24,-4.29,-4.88,-8.70,-9.06,-9.06
73.64,-3.35,5.72,-3.70,5.37,-5.37,-4.37,-4.91,-8.72,-9.07,-9.07
74.38,-3.26,5.81,-3.59,5.48,-5.48,-4.45,-4.93,-8.75,-9.07,-9.07
75.12,-3.34,5.75,-3.51,5.56,-5.56,-4.54,-4.96,-8.90,-9.07,-9.08
75.87,-4.06,5.01,-3.49,5.58,-5.58,-4.62,-4.99,-9.64,-9.07,-9.07
76.63,-3.39,5.68,-3.45,5.62,-5.62,-4.70,-5.02,-9.01,-9.07,-9.07
77.40,-3.53,5.53,-3.44,5.63,-5.63,-4.78,-5.05,-9.16,-9.06,-9.06
78.17,-4.11,4.96,-3.36,5.70,-5.70,-4.87,-5.09,-9.80,-9.06,-9.06
78.95,-2.73,6.32,-3.25,5.79,-5.79,-4.95,-5.12,-8.52,-9.05,-9.04
79.74,-3.07,5.96,-3.22,5.82,-5.82,-5.03,-5.16,-8.89,-9.04,-9.03
80.54,-3.22,5.80,-3.13,5.90,-5.90,-5.11,-5.20,-9.13,-9.03,-9.02
81.35,-3.34,5.67,-3.03,5.98,-5.98,-5.19,-5.25,-9.33,-9.02,-9.01
82.16,-3.41,5.58,-3.01,5.99,-5.99,-5.27,-5.30,-9.40,-9.00,-8.99
82.98,-2.59,6.40,-2.98,6.01,-6.01,-5.36,-5.35,-8.60,-8.99,-8.98
83.81,-3.19,5.78,-2.87,6.11,-6.11,-5.44,-5.41,-9.30,-8.98,-8.97
84.65,-2.51,6.45,-2.74,6.23,-6.23,-5.52,-5.46,-8.74,-8.97,-8.96
85.50,-1.76,7.21,-2.68,6.27,-6.27,-5.60,-5.53,-8.03,-8.95,-8.96
86.35,-1.99,6.96,-2.58,6.36,-6.36,-5.68,-5.60,-8.35,-8.94,-8.94
87.22,-2.91,6.02,-2.47,6.45,-6.45,-5.76,-5.67,-9.36,-8.93,-8.93
88.09,-2.67,6.24,-2.39,6.53,-6.53,-5.84,-5.74,-9.20,-8.91,-8.91
88.97,-2.27,6.62,-2.24,6.66,-6.66,-5.92,-5.82,-8.93,-8.90,-8.89
89.86,-3.20,5.69,-2.14,6.74,-6.74,-6.00,-5.91,-9.95,-8.89,-8.89
90.76,-2.84,6.04,-2.04,6.84,-6.84,-6.08,-6.00,-9.67,-8.88,-8.88
91.66,-1.47,7.40,-1.98,6.89,-6.89,-6.16,-6.09,-8.36,-8.87,-8.87
92.58,-1.03,7.82,-1.90,6.96,-6.96,-6.23,-6.19,-7.99,-8.86,-8.85
93.51,-1.67,7.17,-1.77,7.08,-7.08,-6.31,-6.29,-8.76,-8.85,-8.84
94.44,-1.83,7.00,-1.71,7.14,-7.14,-6.39,-6.39,-8.97,-8.85,-8.83
95.39,-1.39,7.45,-1.67,7.17,-7.17,-6.47,-6.50,-8.56,-8.84,-8.83
96.34,-1.28,7.55,-1.59,7.25,-7.25,-6.55,-6.62,-8.54,-8.84,-8.83
97.30,-1.35,7.49,-1.47,7.37,-7.37,-6.63,-6.73,-8.71,-8.84,-8.83
98.28,-1.88,6.95,-1.40,7.44,-7.44,-6.71,-6.85,-9.32,-8.84,-8.83
99.26,-1.58,7.26,-1.38,7.45,-7.45,-6.78,-6.98,-9.04,-8.83,-8.84
100.25,-1.14,7.70,-1.38,7.46,-7.46,-6.86,-7.11,-8.60,-8.83,-8.84
101.25,-1.37,7.46,-1.39,7.45,-7.45,-6.94,-7.24,-8.82,-8.83,-8.83
102.27,-0.96,7.88,-1.36,7.48,-7.48,-7.01,-7.37,-8.43,-8.83,-8.83
103.29,-1.41,7.42,-1.28,7.56,-7.56,-7.09,-7.51,-8.97,-8.83,-8.83
104.32,-1.85,6.97,-1.21,7.62,-7.62,-7.17,-7.64,-9.47,-8.83,-8.82
105.37,-1.74,7.08,-1.19,7.64,-7.64,-7.25,-7.78,-9.38,-8.83,-8.82
106.42,-0.90,7.92,-1.18,7.65,-7.65,-7.32,-7.92,-8.55,-8.83,-8.82
107.48,-0.62,8.22,-1.12,7.71,-7.71,-7.40,-8.06,-8.32,-8.82,-8.83
108.56,-1.01,7.80,-0.99,7.83,-7.83,-7.47,-8.20,-8.84,-8.82,-8.81
109.64,-1.40,7.41,-0.94,7.87,-7.87,-7.55,-8.33,-9.27,-8.82,-8.81
110.74,-0.53,8.28,-0.95,7.87,-7.87,-7.63,-8.47,-8.40,-8.81,-8.81
111.85,0.19,9.00,-0.84,7.97,-7.97,-7.70,-8.60,-7.77,-8.81,-8.80
112.97,-0.57,8.22,-0.66,8.14,-8.14,-7.78,-8.73,-8.71,-8.80,-8.79
114.10,-1.44,7.34,-0.51,8.28,-8.28,-7.85,-8.85,-9.72,-8.79,-8.78
115.24,-1.23,7.55,-0.38,8.41,-8.41,-7.93,-8.97,-9.64,-8.78,-8.78
116.39,-0.48,8.30,-0.33,8.44,-8.44,-8.00,-9.09,-8.92,-8.77,-8.78
117.55,-0.06,8.70,-0.33,8.43,-8.43,-8.07,-9.19,-8.49,-8.76,-8.76
118.73,0.02,8.78,-0.34,8.41,-8.41,-8.15,-9.29,-8.39,-8.75,-8.76
119.92,0.01,8.75,-0.26,8.47,-8.47,-8.22,-9.38,-8.47,-8.73,-8.74
121.12,-0.77,7.94,-0.15,8.57,-8.57,-8.30,-9.46,-9.34,-8.72,-8.72
122.33,0.55,9.26,-0.16,8.54,-8.54,-8.37,-9.53,-7.99,-8.71,-8.70
123.55,1.23,9.91,-0.20,8.50,-8.50,-8.44,-9.60,-7.27,-8.69,-8.68
124.79,0.06,8.73,-0.10,8.57,-8.57,-8.52,-9.65,-8.51,-8.68,-8.67
126.03,-0.82,7.83,0.05,8.71,-8.71,-8.59,-9.69,-9.54,-8.66,-8.65
127.29,-0.89,7.75,0.14,8.79,-8.79,-8.66,-9.72,-9.69,-8.65,-8.64
128.57,-0.50,8.14,0.18,8.81,-8.81,-8.73,-9.75,-9.31,-8.64,-8.63
129.85,0.43,9.05,0.20,8.82,-8.82,-8.80,-9.76,-8.40,-8.62,-8.62
131.15,0.59,9.20,0.26,8.87,-8.87,-8.88,-9.76,-8.28,-8.61,-8.61
132.46,0.65,9.25,0.35,8.95,-8.95,-8.95,-9.76,-8.30,-8.60,-8.60
133.79,0.16,8.75,0.48,9.07,-9.07,-9.02,-9.75,-8.91,-8.59,-8.59
135.12,-0.19,8.40,0.62,9.20,-9.20,-9.09,-9.73,-9.39,-8.58,-8.58
136.48,1.41,9.98,0.64,9.21,-9.21,-9.16,-9.70,-7.80,-8.57,-8.56
137.84,1.60,10.15,0.71,9.28,-9.28,-9.23,-9.68,-7.68,-8.56,-8.55
139.22,0.72,9.28,0.86,9.42,-9.42,-9.30,-9.64,-8.70,-8.56,-8.56
140.61,0.73,9.27,0.95,9.50,-9.50,-9.37,-9.61,-8.77,-8.55,-8.54
142.02,1.06,9.60,0.97,9.51,-9.51,-9.44,-9.57,-8.46,-8.54,-8.54
143.44,1.06,9.60,0.97,9.51,-9.51,-9.51,-9.53,-8.46,-8.54,-8.54
144.87,1.15,9.68,1.01,9.54,-9.54,-9.58,-9.49,-8.39,-8.53,-8.53
146.32,1.16,9.68,1.04,9.56,-9.56,-9.65,-9.44,-8.41,-8.53,-8.52
147.78,1.23,9.76,1.05,9.57,-9.57,-9.71,-9.40,-8.34,-8.53,-8.52
149.26,0.58,9.10,1.07,9.59,-9.59,-9.78,-9.37,-9.02,-8.52,-8.52
150.75,0.19,8.72,1.05,9.58,-9.58,-9.85,-9.33,-9.39,-8.52,-8.53
152.26,0.93,9.45,1.00,9.52,-9.52,-9.92,-9.30,-8.60,-8.53,-8.52
153.78,1.36,9.88,1.05,9.58,-9.58,-9.98,-9.27,-8.22,-8.53,-8.52
155.32,1.43,9.95,1.16,9.70,-9.70,-10.05,-9.24,-8.27,-8.53,-8.52
156.88,1.49,10.02,1.25,9.79,-9.79,-10.12,-9.22,-8.31,-8.54,-8.53
158.44,1.54,10.08,1.28,9.82,-9.82,-10.18,-9.20,-8.29,-8.55,-8.54
160.03,1.32,9.87,1.28,9.84,-9.84,-10.25,-9.19,-8.53,-8.56,-8.55
161.63,0.67,9.23,1.28,9.85,-9.85,-10.31,-9.18,-9.18,-8.57,-8.56
163.24,1.20,9.78,1.36,9.95,-9.95,-10.38,-9.18,-8.75,-8.58,-8.58
164.88,1.66,10.25,1.50,10.10,-10.10,-10.44,-9.18,-8.44,-8.60,-8.59
166.53,1.73,10.34,1.57,10.18,-10.18,-10.50,-9.19,-8.46,-8.61,-8.61
168.19,1.79,10.41,1.59,10.22,-10.22,-10.57,-9.20,-8.43,-8.63,-8.62
169.87,1.84,10.48,1.57,10.22,-10.22,-10.63,-9.22,-8.38,-8.65,-8.64
171.57,1.83,10.49,1.59,10.25,-10.25,-10.69,-9.25,-8.43,-8.66,-8.66
173.29,1.37,10.05,1.67,10.35,-10.35,-10.75,-9.29,-8.99,-8.68,-8.68
175.02,0.81,9.50,1.74,10.44,-10.44,-10.81,-9.33,-9.63,-8.70,-8.69
176.77,1.55,10.26,1.78,10.49,-10.49,-10.88,-9.38,-8.94,-8.71,-8.71
178.54,2.20,10.93,1.78,10.51,-10.51,-10.94,-9.43,-8.31,-8.73,-8.73
180.32,2.81,11.57,1.78,10.52,-10.52,-11.00,-9.49,-7.71,-8.75,-8.75
182.13,1.91,10.67,1.78,10.54,-10.54,-11.06,-9.56,-8.63,-8.76,-8.76
183.95,1.01,9.78,1.85,10.62,-10.62,-11.11,-9.63,-9.62,-8.78,-8.77
185.79,2.02,10.82,1.94,10.74,-10.74,-11.17,-9.72,-8.71,-8.79,-8.79
187.65,2.17,10.97,2.00,10.81,-10.81,-11.23,-9.80,-8.64,-8.81,-8.80
189.52,2.18,11.00,2.04,10.87,-10.87,-11.29,-9.90,-8.69,-8.82,-8.82
191.42,2.13,10.95,2.10,10.94,-10.94,-11.35,-10.00,-8.81,-8.84,-8.82
193.33,1.51,10.35,2.17,11.02,-11.02,-11.40,-10.11,-9.51,-8.85,-8.84
195.27,1.57,10.43,2.21,11.07,-11.07,-11.46,-10.22,-9.50,-8.87,-8.86
197.22,2.14,11.02,2.19,11.06,-11.06,-11.51,-10.34,-8.93,-8.88,-8.88
199.19,3.01,11.90,2.20,11.09,-11.09,-11.57,-10.46,-8.08,-8.89,-8.89
201.18,3.22,12.13,2.24,11.15,-11.15,-11.62,-10.59,-7.94,-8.91,-8.91
203.19,2.70,11.63,2.35,11.27,-11.27,-11.68,-10.73,-8.56,-8.92,-8.92
205.23,1.94,10.87,2.40,11.34,-11.34,-11.73,-10.87,-9.40,-8.94,-8.93
207.28,1.67,10.61,2.38,11.34,-11.34,-11.78,-11.01,-9.67,-8.96,-8.94
209.35,2.28,11.24,2.42,11.39,-11.39,-11.83,-11.16,-9.11,-8.97,-8.96
211.44,2.56,11.54,2.46,11.45,-11.45,-11.88,-11.31,-8.90,-8.99,-8.98
213.56,2.56,11.55,2.51,11.52,-11.52,-11.93,-11.46,-8.96,-9.00,-8.99
215.69,2.55,11.56,2.56,11.58,-11.58,-11.98,-11.61,-9.03,-9.02,-9.01
217.85,2.55,11.57,2.59,11.62,-11.62,-12.03,-11.76,-9.07,-9.03,-9.02
220.03,2.55,11.60,2.58,11.63,-11.63,-12.08,-11.91,-9.08,-9.04,-9.05
222.23,2.57,11.63,2.54,11.59,-11.59,-12.13,-12.06,-9.03,-9.06,-9.06
224.45,2.63,11.70,2.56,11.63,-11.63,-12.18,-12.21,-9.00,-9.07,-9.07
226.70,2.70,11.78,2.62,11.70,-11.70,-12.22,-12.35,-9.00,-9.08,-9.08
228.96,2.75,11.83,2.67,11.76,-11.76,-12.27,-12.49,-9.01,-9.08,-9.08
231.25,2.76,11.84,2.65,11.74,-11.74,-12.31,-12.62,-8.98,-9.09,-9.08
233.57,2.77,11.86,2.58,11.67,-11.67,-12.36,-12.74,-8.91,-9.09,-9.09
235.90,2.78,11.87,2.61,11.70,-11.70,-12.40,-12.85,-8.92,-9.09,-9.09
238.26,2.79,11.88,2.67,11.76,-11.76,-12.44,-12.95,-8.97,-9.09,-9.09
240.64,2.81,11.88,2.74,11.82,-11.82,-12.48,-13.04,-9.02,-9.08,-9.07
243.05,2.15,11.22,2.80,11.88,-11.88,-12.52,-13.11,-9.73,-9.08,-9.07
245.48,2.09,11.16,2.91,11.98,-11.98,-12.56,-13.17,-9.90,-9.07,-9.07
247.93,2.94,12.01,3.00,12.06,-12.06,-12.60,-13.22,-9.13,-9.07,-9.07
250.41,2.99,12.04,3.01,12.07,-12.07,-12.64,-13.25,-9.08,-9.06,-9.05
252.92,3.01,12.05,3.01,12.07,-12.07,-12.68,-13.26,-9.06,-9.06,-9.04
255.45,3.02,12.07,3.02,12.07,-12.07,-12.72,-13.26,-9.06,-9.06,-9.05
258.00,3.59,12.63,3.03,12.08,-12.08,-12.75,-13.25,-8.50,-9.05,-9.04
260.58,4.07,13.11,3.05,12.10,-12.10,-12.79,-13.22,-8.04,-9.05,-9.04
263.19,3.40,12.44,3.07,12.12,-12.12,-12.82,-13.18,-8.73,-9.06,-9.04
265.82,3.13,12.18,3.09,12.15,-12.15,-12.85,-13.13,-9.02,-9.06,-9.05
268.48,3.13,12.18,3.08,12.14,-12.14,-12.89,-13.07,-9.02,-9.06,-9.05
271.16,3.13,12.19,3.07,12.13,-12.13,-12.92,-13.00,-9.01,-9.06,-9.06
273.87,2.20,11.26,3.05,12.11,-12.11,-12.95,-12.92,-9.92,-9.07,-9.06
276.61,2.14,11.21,3.04,12.11,-12.11,-12.98,-12.83,-9.97,-9.07,-9.07
279.38,3.00,12.09,3.08,12.15,-12.15,-13.00,-12.74,-9.16,-9.07,-9.09
282.17,3.23,12.31,3.11,12.19,-12.19,-13.03,-12.65,-8.96,-9.08,-9.08
284.99,3.23,12.31,3.15,12.22,-12.22,-13.06,-12.55,-9.00,-9.08,-9.08
287.84,3.24,12.31,3.18,12.25,-12.25,-13.08,-12.45,-9.02,-9.08,-9.07
290.72,3.25,12.33,3.24,12.32,-12.32,-13.11,-12.36,-9.07,-9.08,-9.08
293.63,3.26,12.33,3.38,12.45,-12.45,-13.13,-12.26,-9.20,-9.07,-9.07
296.57,3.28,12.34,3.50,12.57,-12.57,-13.15,-12.16,-9.29,-9.07,-9.06
299.53,3.90,12.96,3.56,12.62,-12.62,-13.17,-12.07,-8.73,-9.07,-9.06
302.53,4.33,13.38,3.59,12.65,-12.65,-13.19,-11.98,-8.33,-9.06,-9.05
305.55,4.02,13.07,3.63,12.68,-12.68,-13.21,-11.90,-8.67,-9.06,-9.05
308.61,3.49,12.53,3.54,12.60,-12.60,-13.23,-11.82,-9.11,-9.06,-9.04
311.69,3.43,12.48,3.44,12.49,-12.49,-13.25,-11.74,-9.07,-9.05,-9.05
314.81,3.43,12.47,3.43,12.48,-12.48,-13.26,-11.67,-9.06,-9.05,-9.04
317.96,3.43,12.48,3.46,12.51,-12.51,-13.28,-11.61,-9.08,-9.05,-9.05
321.14,3.43,12.47,3.47,12.52,-12.52,-13.29,-11.55,-9.09,-9.05,-9.04
324.35,3.43,12.47,3.48,12.53,-12.53,-13.30,-11.50,-9.10,-9.04,-9.04
327.59,3.07,12.10,3.48,12.53,-12.53,-13.31,-11.46,-9.46,-9.04,-9.03
330.87,2.63,11.66,3.48,12.52,-12.52,-13.32,-11.42,-9.89,-9.04,-9.03
334.18,3.16,12.20,3.46,12.50,-12.50,-13.33,-11.39,-9.34,-9.04,-9.04
337.52,3.51,12.54,3.49,12.52,-12.52,-13.34,-11.37,-9.02,-9.03,-9.03
340.90,3.52,12.55,3.56,12.59,-12.59,-13.35,-11.36,-9.07,-9.03,-9.03
344.30,4.36,13.38,3.63,12.65,-12.65,-13.35,-11.35,-8.30,-9.02,-9.02
347.75,4.61,13.62,3.67,12.69,-12.69,-13.35,-11.36,-8.08,-9.02,-9.01
351.23,3.88,12.90,3.69,12.70,-12.70,-13.36,-11.37,-8.82,-9.01,-9.02
354.74,3.63,12.63,3.68,12.69,-12.69,-13.36,-11.38,-9.06,-9.01,-9.00
358.28,3.63,12.63,3.70,12.69,-12.69,-13.36,-11.41,-9.07,-9.00,-9.00
361.87,3.64,12.63,3.76,12.75,-12.75,-13.36,-11.44,-9.11,-8.99,-8.99
365.49,3.64,12.62,3.83,12.82,-12.82,-13.35,-11.49,-9.18,-8.99,-8.98
369.14,3.65,12.62,3.87,12.85,-12.85,-13.35,-11.54,-9.20,-8.98,-8.97
372.83,3.66,12.62,3.85,12.82,-12.82,-13.34,-11.60,-9.17,-8.97,-8.96
376.56,3.67,12.63,3.88,12.85,-12.85,-13.34,-11.66,-9.18,-8.97,-8.96
380.33,3.68,12.64,3.90,12.87,-12.87,-13.33,-11.74,-9.19,-8.96,-8.96
384.13,3.68,12.63,3.85,12.82,-12.82,-13.32,-11.82,-9.14,-8.96,-8.95
387.97,3.69,12.64,3.84,12.80,-12.80,-13.31,-11.91,-9.11,-8.96,-8.95
391.85,4.00,12.95,3.86,12.82,-12.82,-13.30,-12.01,-8.83,-8.96,-8.95
395.77,4.59,13.55,3.85,12.82,-12.82,-13.29,-12.11,-8.23,-8.97,-8.96
399.73,4.62,13.58,3.83,12.80,-12.80,-13.27,-12.22,-8.19,-8.97,-8.96
403.72,4.03,12.98,3.86,12.83,-12.83,-13.26,-12.34,-8.80,-8.97,-8.95
407.76,3.79,12.76,3.87,12.85,-12.85,-13.24,-12.46,-9.07,-8.98,-8.97
