frequency,raw,error,smoothed,error_smoothed,equalization,parametric_eq,fixed_band_eq,equalized_raw,equalized_smoothed,target
20.00,3.04,-4.66,3.03,-4.67,4.64,4.26,1.45,7.67,7.67,7.70
20.20,3.10,-4.59,3.10,-4.59,4.58,4.24,1.49,7.68,7.68,7.69
20.40,3.16,-4.52,3.16,-4.52,4.52,4.22,1.54,7.68,7.69,7.68
20.61,3.22,-4.46,3.22,-4.45,4.47,4.19,1.59,7.68,7.69,7.68
20.81,3.28,-4.38,3.28,-4.38,4.42,4.17,1.64,7.69,7.70,7.66
21.02,3.34,-4.32,3.33,-4.33,4.37,4.15,1.69,7.70,7.69,7.66
21.23,3.36,-4.29,3.36,-4.29,4.32,4.12,1.74,7.67,7.68,7.65
21.44,3.38,-4.28,3.38,-4.27,4.27,4.10,1.80,7.65,7.65,7.66
21.66,3.41,-4.24,3.40,-4.24,4.23,4.07,1.85,7.64,7.63,7.65
21.87,3.43,-4.21,3.43,-4.21,4.19,4.05,1.91,7.62,7.62,7.64
22.09,3.46,-4.17,3.46,-4.17,4.15,4.02,1.97,7.61,7.61,7.63
22.31,3.51,-4.12,3.50,-4.12,4.11,4.00,2.03,7.62,7.61,7.63
22.54,3.55,-4.07,3.55,-4.07,4.07,3.97,2.09,7.61,7.62,7.62
22.76,3.60,-4.01,3.60,-4.01,4.02,3.94,2.16,7.62,7.62,7.61
22.99,3.65,-3.95,3.64,-3.96,3.98,3.92,2.22,7.62,7.62,7.60
23.22,3.68,-3.91,3.68,-3.92,3.94,3.89,2.29,7.61,7.61,7.59
23.45,3.70,-3.90,3.70,-3.89,3.90,3.86,2.36,7.60,7.60,7.60
23.69,3.73,-3.86,3.73,-3.86,3.86,3.83,2.43,7.59,7.59,7.59
23.92,3.76,-3.83,3.76,-3.84,3.83,3.80,2.50,7.59,7.59,7.59
24.16,3.80,-3.80,3.80,-3.80,3.79,3.78,2.57,7.59,7.59,7.60
24.40,3.84,-3.77,3.84,-3.77,3.75,3.75,2.64,7.59,7.59,7.61
24.65,3.89,-3.72,3.88,-3.72,3.71,3.72,2.72,7.60,7.59,7.61
24.89,3.93,-3.68,3.93,-3.68,3.66,3.69,2.79,7.59,7.59,7.61
25.14,3.98,-3.62,3.98,-3.62,3.62,3.66,2.87,7.60,7.60,7.60
25.39,4.03,-3.57,4.03,-3.57,3.58,3.62,2.94,7.61,7.61,7.60
25.65,4.08,-3.52,4.08,-3.52,3.55,3.59,3.02,7.62,7.63,7.60
25.91,4.13,-3.48,4.12,-3.49,3.52,3.56,3.09,7.65,7.64,7.61
26.16,4.15,-3.47,4.14,-3.47,3.49,3.53,3.17,7.64,7.64,7.62
26.43,4.15,-3.47,4.15,-3.47,3.47,3.50,3.24,7.62,7.62,7.62
26.69,4.15,-3.47,4.15,-3.47,3.44,3.46,3.32,7.59,7.59,7.62
26.96,4.15,-3.46,4.16,-3.45,3.42,3.43,3.39,7.57,7.58,7.61
27.23,4.20,-3.41,4.20,-3.41,3.39,3.40,3.46,7.59,7.59,7.61
27.50,4.25,-3.36,4.25,-3.36,3.36,3.36,3.52,7.60,7.61,7.61
27.77,4.31,-3.31,4.30,-3.31,3.32,3.33,3.59,7.63,7.63,7.62
28.05,4.36,-3.26,4.35,-3.26,3.28,3.29,3.65,7.64,7.63,7.62
28.33,4.38,-3.22,4.38,-3.22,3.24,3.26,3.71,7.62,7.62,7.60
28.62,4.41,-3.19,4.41,-3.19,3.20,3.22,3.76,7.61,7.61,7.60
28.90,4.44,-3.17,4.44,-3.17,3.16,3.19,3.81,7.60,7.60,7.61
29.19,4.47,-3.14,4.47,-3.14,3.13,3.15,3.85,7.60,7.60,7.61
29.48,4.50,-3.10,4.50,-3.11,3.10,3.11,3.89,7.60,7.60,7.60
29.78,4.53,-3.07,4.53,-3.08,3.07,3.08,3.92,7.59,7.59,7.60
30.08,4.56,-3.05,4.56,-3.04,3.04,3.04,3.94,7.60,7.60,7.61
30.38,4.59,-3.01,4.59,-3.01,3.01,3.00,3.96,7.60,7.60,7.60
30.68,4.62,-2.96,4.62,-2.97,2.99,2.96,3.98,7.60,7.61,7.58
30.99,4.65,-2.93,4.64,-2.94,2.96,2.93,3.98,7.60,7.60,7.58
31.30,4.65,-2.92,4.64,-2.92,2.92,2.89,3.98,7.57,7.57,7.57
31.61,4.65,-2.91,4.65,-2.91,2.89,2.85,3.97,7.54,7.54,7.56
31.93,4.65,-2.90,4.66,-2.89,2.85,2.81,3.96,7.50,7.51,7.55
32.24,4.70,-2.85,4.70,-2.84,2.82,2.77,3.93,7.52,7.52,7.55
32.57,4.76,-2.77,4.76,-2.78,2.78,2.73,3.91,7.54,7.54,7.53
32.89,4.83,-2.70,4.81,-2.72,2.75,2.69,3.87,7.58,7.56,7.53
33.22,4.85,-2.68,4.84,-2.68,2.72,2.65,3.83,7.56,7.56,7.53
33.55,4.85,-2.67,4.85,-2.67,2.68,2.61,3.78,7.53,7.54,7.52
33.89,4.85,-2.68,4.86,-2.67,2.66,2.57,3.73,7.50,7.51,7.53
34.23,4.87,-2.64,4.87,-2.65,2.63,2.53,3.67,7.50,7.50,7.51
34.57,4.89,-2.62,4.89,-2.62,2.62,2.49,3.61,7.50,7.50,7.51
34.92,4.91,-2.59,4.91,-2.60,2.60,2.45,3.54,7.51,7.51,7.50
35.27,4.93,-2.58,4.92,-2.58,2.58,2.40,3.47,7.50,7.50,7.51
35.62,4.94,-2.55,4.94,-2.55,2.55,2.36,3.40,7.49,7.49,7.49
35.97,4.96,-2.53,4.96,-2.53,2.51,2.32,3.32,7.47,7.47,7.49
36.33,4.99,-2.48,4.99,-2.48,2.47,2.28,3.24,7.46,7.46,7.47
36.70,5.02,-2.44,5.02,-2.44,2.43,2.23,3.16,7.45,7.45,7.46
37.06,5.06,-2.38,5.05,-2.38,2.39,2.19,3.08,7.44,7.44,7.44
37.43,5.09,-2.33,5.09,-2.33,2.34,2.15,3.00,7.43,7.43,7.42
37.81,5.11,-2.29,5.11,-2.29,2.29,2.10,2.91,7.40,7.40,7.40
38.19,5.13,-2.24,5.13,-2.25,2.25,2.06,2.83,7.38,7.38,7.37
38.57,5.14,-2.21,5.14,-2.21,2.22,2.01,2.74,7.35,7.35,7.35
38.95,5.15,-2.17,5.15,-2.17,2.18,1.97,2.66,7.33,7.33,7.32
39.34,5.15,-2.13,5.15,-2.14,2.15,1.92,2.57,7.30,7.30,7.28
39.74,5.15,-2.11,5.15,-2.11,2.12,1.88,2.49,7.26,7.26,7.26
40.14,5.15,-2.08,5.14,-2.09,2.07,1.83,2.40,7.22,7.21,7.23
40.54,5.15,-2.06,5.14,-2.07,2.02,1.79,2.32,7.17,7.16,7.21
40.94,5.15,-2.03,5.17,-2.01,1.97,1.74,2.23,7.12,7.14,7.18
41.35,5.22,-1.94,5.23,-1.93,1.91,1.70,2.15,7.13,7.14,7.16
41.76,5.31,-1.81,5.29,-1.83,1.85,1.65,2.07,7.16,7.15,7.12
42.18,5.36,-1.74,5.34,-1.76,1.80,1.60,1.99,7.16,7.14,7.10
42.60,5.36,-1.72,5.36,-1.71,1.75,1.56,1.91,7.10,7.11,7.08
43.03,5.36,-1.69,5.36,-1.69,1.70,1.51,1.83,7.06,7.06,7.05
43.46,5.36,-1.66,5.36,-1.66,1.66,1.46,1.76,7.02,7.02,7.02
43.90,5.36,-1.64,5.36,-1.63,1.63,1.41,1.68,6.99,6.99,7.00
44.33,5.36,-1.60,5.36,-1.61,1.60,1.37,1.61,6.96,6.96,6.96
44.78,5.36,-1.57,5.36,-1.58,1.57,1.32,1.54,6.93,6.92,6.93
45.23,5.36,-1.56,5.35,-1.55,1.53,1.27,1.46,6.89,6.88,6.92
45.68,5.36,-1.51,5.36,-1.51,1.48,1.22,1.39,6.84,6.85,6.87
46.13,5.38,-1.45,5.39,-1.44,1.43,1.17,1.32,6.81,6.82,6.83
46.60,5.43,-1.37,5.43,-1.37,1.38,1.13,1.26,6.81,6.81,6.80
47.06,5.48,-1.28,5.46,-1.30,1.33,1.08,1.19,6.80,6.78,6.76
47.53,5.47,-1.26,5.47,-1.25,1.27,1.03,1.13,6.74,6.74,6.73
48.01,5.46,-1.21,5.47,-1.21,1.21,0.98,1.06,6.67,6.68,6.67
48.49,5.46,-1.16,5.46,-1.17,1.16,0.93,1.00,6.62,6.62,6.62
48.97,5.46,-1.12,5.46,-1.12,1.11,0.88,0.94,6.57,6.57,6.58
49.46,5.46,-1.08,5.46,-1.07,1.07,0.83,0.88,6.53,6.53,6.54
49.96,5.46,-1.01,5.46,-1.02,1.03,0.78,0.82,6.49,6.49,6.47
50.46,5.46,-0.97,5.46,-0.97,0.98,0.73,0.76,6.44,6.44,6.43
50.96,5.46,-0.93,5.45,-0.93,0.93,0.68,0.70,6.39,6.38,6.39
51.47,5.46,-0.89,5.46,-0.89,0.88,0.63,0.64,6.33,6.33,6.35
51.99,5.46,-0.84,5.48,-0.83,0.81,0.58,0.59,6.27,6.29,6.30
52.51,5.51,-0.75,5.51,-0.76,0.75,0.53,0.53,6.25,6.25,6.26
53.03,5.56,-0.67,5.53,-0.69,0.68,0.48,0.48,6.23,6.21,6.23
53.56,5.56,-0.61,5.56,-0.61,0.60,0.43,0.42,6.16,6.16,6.17
54.10,5.57,-0.55,5.60,-0.53,0.53,0.38,0.37,6.09,6.12,6.12
54.64,5.64,-0.44,5.63,-0.44,0.46,0.32,0.32,6.09,6.08,6.08
55.18,5.68,-0.34,5.66,-0.36,0.39,0.27,0.27,6.07,6.05,6.02
55.74,5.67,-0.30,5.67,-0.31,0.33,0.22,0.22,6.00,6.00,5.97
56.29,5.66,-0.28,5.67,-0.27,0.28,0.17,0.17,5.93,5.94,5.94
56.86,5.66,-0.24,5.66,-0.23,0.23,0.12,0.12,5.89,5.89,5.90
57.42,5.66,-0.18,5.66,-0.19,0.19,0.07,0.07,5.85,5.85,5.84
58.00,5.66,-0.15,5.66,-0.15,0.15,0.01,0.03,5.81,5.81,5.81
58.58,5.66,-0.12,5.66,-0.12,0.11,-0.04,-0.02,5.77,5.77,5.78
59.16,5.66,-0.08,5.66,-0.08,0.07,-0.09,-0.07,5.73,5.73,5.74
59.76,5.66,-0.04,5.66,-0.03,0.02,-0.14,-0.11,5.68,5.68,5.70
60.35,5.66,0.03,5.66,0.02,-0.03,-0.20,-0.16,5.63,5.63,5.63
60.96,5.66,0.08,5.66,0.08,-0.09,-0.25,-0.20,5.57,5.57,5.58
61.57,5.66,0.15,5.66,0.15,-0.15,-0.30,-0.24,5.51,5.51,5.51
62.18,5.66,0.22,5.66,0.22,-0.21,-0.35,-0.29,5.45,5.45,5.44
62.80,5.66,0.28,5.66,0.28,-0.27,-0.41,-0.33,5.39,5.39,5.38
63.43,5.66,0.34,5.66,0.34,-0.33,-0.46,-0.37,5.33,5.33,5.32
64.07,5.66,0.39,5.66,0.39,-0.39,-0.51,-0.42,5.27,5.27,5.27
64.71,5.66,0.45,5.66,0.45,-0.45,-0.57,-0.46,5.21,5.21,5.21
65.35,5.66,0.51,5.66,0.50,-0.51,-0.62,-0.50,5.14,5.14,5.15
66.01,5.66,0.57,5.66,0.56,-0.57,-0.68,-0.54,5.09,5.09,5.09
66.67,5.66,0.61,5.66,0.62,-0.63,-0.73,-0.58,5.03,5.03,5.05
67.33,5.66,0.69,5.66,0.68,-0.68,-0.78,-0.62,4.98,4.98,4.97
68.01,5.66,0.74,5.66,0.74,-0.73,-0.84,-0.66,4.93,4.93,4.92
68.69,5.66,0.81,5.66,0.81,-0.78,-0.89,-0.70,4.88,4.88,4.85
69.37,5.65,0.85,5.64,0.84,-0.83,-0.94,-0.75,4.82,4.81,4.80
70.07,5.62,0.89,5.60,0.87,-0.88,-1.00,-0.79,4.74,4.73,4.73
70.77,5.55,0.88,5.57,0.90,-0.93,-1.05,-0.83,4.62,4.64,4.67
71.48,5.54,0.94,5.55,0.95,-0.98,-1.11,-0.87,4.56,4.57,4.60
72.19,5.56,1.03,5.54,1.01,-1.03,-1.16,-0.91,4.53,4.51,4.53
72.91,5.56,1.09,5.56,1.09,-1.09,-1.22,-0.96,4.47,4.47,4.47
73.64,5.56,1.16,5.56,1.16,-1.15,-1.27,-1.00,4.41,4.41,4.40
74.38,5.56,1.22,5.56,1.22,-1.21,-1.32,-1.05,4.35,4.35,4.34
75.12,5.56,1.29,5.56,1.28,-1.27,-1.38,-1.09,4.28,4.28,4.27
75.87,5.56,1.33,5.56,1.34,-1.34,-1.43,-1.14,4.22,4.22,4.23
76.63,5.56,1.40,5.56,1.40,-1.40,-1.49,-1.18,4.16,4.16,4.16
77.40,5.56,1.45,5.56,1.45,-1.45,-1.54,-1.23,4.11,4.11,4.11
78.17,5.56,1.51,5.56,1.50,-1.50,-1.60,-1.28,4.05,4.05,4.05
78.95,5.56,1.55,5.56,1.56,-1.56,-1.65,-1.33,4.00,4.00,4.01
79.74,5.56,1.61,5.56,1.61,-1.61,-1.71,-1.38,3.95,3.95,3.95
80.54,5.56,1.67,5.56,1.66,-1.66,-1.76,-1.43,3.89,3.89,3.89
81.35,5.56,1.72,5.56,1.72,-1.72,-1.82,-1.49,3.84,3.84,3.84
82.16,5.56,1.77,5.56,1.77,-1.78,-1.87,-1.54,3.78,3.78,3.79
82.98,5.56,1.83,5.56,1.83,-1.84,-1.92,-1.60,3.72,3.72,3.73
83.81,5.56,1.89,5.56,1.89,-1.90,-1.98,-1.65,3.66,3.66,3.67
84.65,5.56,1.95,5.56,1.95,-1.96,-2.03,-1.71,3.60,3.60,3.61
85.50,5.56,2.02,5.56,2.01,-2.01,-2.09,-1.77,3.55,3.55,3.54
86.35,5.56,2.08,5.56,2.08,-2.06,-2.14,-1.83,3.50,3.50,3.48
87.22,5.56,2.13,5.57,2.14,-2.11,-2.20,-1.90,3.45,3.46,3.43
88.09,5.56,2.20,5.54,2.18,-2.15,-2.25,-1.96,3.40,3.39,3.36
88.97,5.53,2.22,5.50,2.20,-2.20,-2.31,-2.03,3.32,3.30,3.31
89.86,5.42,2.19,5.46,2.23,-2.26,-2.36,-2.09,3.16,3.20,3.23
90.76,5.43,2.26,5.43,2.26,-2.31,-2.41,-2.16,3.12,3.12,3.17
91.66,5.45,2.35,5.43,2.33,-2.37,-2.47,-2.23,3.08,3.07,3.10
92.58,5.46,2.42,5.46,2.43,-2.42,-2.52,-2.31,3.04,3.04,3.04
93.51,5.48,2.51,5.49,2.52,-2.48,-2.58,-2.38,3.00,3.01,2.97
94.44,5.50,2.60,5.48,2.58,-2.54,-2.63,-2.45,2.96,2.94,2.90
95.39,5.47,2.65,5.45,2.63,-2.61,-2.68,-2.53,2.86,2.84,2.82
96.34,5.37,2.63,5.40,2.66,-2.67,-2.74,-2.61,2.69,2.72,2.74
97.30,5.35,2.69,5.35,2.70,-2.74,-2.79,-2.69,2.61,2.62,2.66
98.28,5.34,2.77,5.33,2.76,-2.79,-2.84,-2.77,2.55,2.54,2.57
99.26,5.33,2.85,5.33,2.84,-2.83,-2.90,-2.85,2.50,2.50,2.48
100.25,5.31,2.91,5.31,2.91,-2.88,-2.95,-2.93,2.43,2.43,2.40
101.25,5.29,2.96,5.28,2.96,-2.93,-3.00,-3.01,2.36,2.35,2.33
102.27,5.23,2.99,5.22,2.98,-2.97,-3.05,-3.10,2.25,2.25,2.24
103.29,5.17,3.01,5.17,3.01,-3.02,-3.11,-3.18,2.14,2.15,2.16
104.32,5.12,3.03,5.13,3.05,-3.07,-3.16,-3.26,2.04,2.06,2.09
105.37,5.12,3.11,5.11,3.11,-3.13,-3.21,-3.34,1.99,1.98,2.01
106.42,5.10,3.18,5.09,3.17,-3.18,-3.26,-3.43,1.91,1.91,1.92
107.48,5.08,3.25,5.07,3.24,-3.24,-3.31,-3.51,1.83,1.83,1.83
108.56,5.05,3.28,5.05,3.29,-3.30,-3.36,-3.59,1.75,1.75,1.77
109.64,5.03,3.35,5.04,3.36,-3.35,-3.41,-3.67,1.68,1.69,1.68
110.74,5.03,3.43,5.04,3.43,-3.39,-3.46,-3.75,1.63,1.64,1.60
111.85,5.05,3.52,5.02,3.49,-3.43,-3.51,-3.82,1.62,1.58,1.53
112.97,4.97,3.51,4.96,3.50,-3.47,-3.56,-3.89,1.50,1.49,1.46
114.10,4.87,3.48,4.87,3.49,-3.50,-3.61,-3.96,1.37,1.37,1.39
115.24,4.77,3.46,4.79,3.48,-3.54,-3.66,-4.03,1.23,1.25,1.31
116.39,4.76,3.53,4.76,3.53,-3.59,-3.71,-4.09,1.17,1.17,1.23
117.55,4.77,3.60,4.76,3.60,-3.64,-3.76,-4.15,1.13,1.12,1.17
118.73,4.79,3.70,4.78,3.68,-3.69,-3.80,-4.21,1.10,1.09,1.09
119.92,4.79,3.76,4.79,3.76,-3.74,-3.85,-4.26,1.04,1.04,1.03
121.12,4.80,3.82,4.81,3.84,-3.80,-3.90,-4.30,1.00,1.01,0.98
122.33,4.81,3.90,4.83,3.92,-3.85,-3.94,-4.35,0.96,0.99,0.91
123.55,4.85,3.99,4.80,3.94,-3.89,-3.99,-4.38,0.95,0.91,0.86
124.79,4.78,3.98,4.73,3.94,-3.93,-4.04,-4.41,0.85,0.80,0.80
126.03,4.58,3.85,4.66,3.93,-3.97,-4.08,-4.44,0.61,0.69,0.73
127.29,4.61,3.94,4.61,3.94,-4.01,-4.12,-4.46,0.59,0.60,0.67
128.57,4.64,4.03,4.61,4.01,-4.06,-4.17,-4.48,0.58,0.55,0.61
129.85,4.65,4.11,4.65,4.10,-4.11,-4.21,-4.49,0.54,0.54,0.54
131.15,4.65,4.17,4.65,4.17,-4.16,-4.25,-4.49,0.49,0.49,0.48
132.46,4.66,4.24,4.66,4.24,-4.21,-4.30,-4.50,0.45,0.45,0.42
133.79,4.66,4.30,4.68,4.32,-4.26,-4.34,-4.50,0.40,0.42,0.36
135.12,4.67,4.37,4.66,4.35,-4.30,-4.38,-4.49,0.36,0.35,0.30
136.48,4.66,4.40,4.61,4.36,-4.34,-4.42,-4.48,0.32,0.26,0.26
137.84,4.50,4.30,4.54,4.35,-4.37,-4.46,-4.47,0.12,0.17,0.20
139.22,4.47,4.35,4.48,4.35,-4.41,-4.49,-4.46,0.06,0.08,0.12
140.61,4.47,4.39,4.45,4.38,-4.44,-4.53,-4.44,0.03,0.02,0.08
142.02,4.47,4.45,4.47,4.45,-4.47,-4.57,-4.43,0.00,-0.00,0.02
143.44,4.47,4.52,4.47,4.51,-4.49,-4.61,-4.41,-0.03,-0.02,-0.05
144.87,4.47,4.57,4.47,4.57,-4.52,-4.64,-4.39,-0.06,-0.06,-0.10
146.32,4.46,4.61,4.45,4.60,-4.56,-4.68,-4.37,-0.10,-0.11,-0.15
147.78,4.41,4.62,4.40,4.61,-4.60,-4.71,-4.35,-0.19,-0.20,-0.21
149.26,4.34,4.60,4.34,4.61,-4.63,-4.74,-4.33,-0.29,-0.29,-0.26
150.75,4.28,4.61,4.29,4.62,-4.65,-4.78,-4.31,-0.38,-0.36,-0.33
152.26,4.27,4.64,4.27,4.65,-4.67,-4.81,-4.29,-0.40,-0.40,-0.37
153.78,4.27,4.70,4.27,4.70,-4.69,-4.84,-4.28,-0.42,-0.42,-0.43
155.32,4.27,4.75,4.26,4.74,-4.71,-4.87,-4.26,-0.44,-0.45,-0.48
156.88,4.23,4.77,4.22,4.76,-4.74,-4.90,-4.25,-0.51,-0.51,-0.54
158.44,4.18,4.78,4.17,4.77,-4.77,-4.92,-4.24,-0.59,-0.60,-0.60
160.03,4.10,4.76,4.12,4.78,-4.81,-4.95,-4.23,-0.71,-0.69,-0.66
161.63,4.08,4.80,4.08,4.80,-4.84,-4.98,-4.23,-0.77,-0.76,-0.72
163.24,4.07,4.86,4.07,4.85,-4.87,-5.00,-4.22,-0.80,-0.80,-0.79
164.88,4.07,4.91,4.07,4.92,-4.89,-5.03,-4.22,-0.82,-0.82,-0.84
166.53,4.06,4.97,4.06,4.96,-4.92,-5.05,-4.22,-0.86,-0.86,-0.91
168.19,4.04,5.00,4.01,4.98,-4.94,-5.07,-4.23,-0.91,-0.93,-0.96
169.87,3.96,4.98,3.95,4.97,-4.98,-5.09,-4.24,-1.02,-1.03,-1.02
171.57,3.85,4.94,3.88,4.97,-5.00,-5.11,-4.25,-1.16,-1.12,-1.09
173.29,3.83,4.98,3.83,4.98,-5.02,-5.13,-4.26,-1.20,-1.19,-1.15
175.02,3.83,5.03,3.82,5.03,-5.04,-5.15,-4.28,-1.21,-1.21,-1.20
176.77,3.83,5.08,3.83,5.09,-5.05,-5.16,-4.30,-1.23,-1.23,-1.25
178.54,3.83,5.14,3.81,5.12,-5.08,-5.18,-4.33,-1.25,-1.27,-1.31
180.32,3.76,5.13,3.76,5.12,-5.11,-5.20,-4.36,-1.35,-1.35,-1.37
182.13,3.70,5.11,3.70,5.12,-5.14,-5.21,-4.39,-1.44,-1.44,-1.41
183.95,3.64,5.10,3.66,5.12,-5.17,-5.22,-4.42,-1.53,-1.51,-1.46
185.79,3.66,5.17,3.66,5.17,-5.19,-5.23,-4.46,-1.53,-1.52,-1.51
187.65,3.67,5.22,3.68,5.24,-5.20,-5.24,-4.50,-1.54,-1.52,-1.55
189.52,3.72,5.32,3.67,5.27,-5.22,-5.25,-4.55,-1.51,-1.55,-1.60
191.42,3.64,5.27,3.62,5.25,-5.24,-5.26,-4.59,-1.61,-1.63,-1.63
193.33,3.51,5.19,3.56,5.25,-5.26,-5.27,-4.64,-1.75,-1.70,-1.68
195.27,3.50,5.23,3.52,5.24,-5.27,-5.27,-4.70,-1.78,-1.76,-1.73
197.22,3.54,5.32,3.51,5.28,-5.29,-5.28,-4.75,-1.75,-1.78,-1.78
199.19,3.51,5.32,3.50,5.32,-5.30,-5.28,-4.81,-1.79,-1.80,-1.81
201.18,3.47,5.33,3.46,5.32,-5.31,-5.28,-4.87,-1.84,-1.85,-1.86
203.19,3.40,5.29,3.41,5.30,-5.32,-5.29,-4.93,-1.92,-1.91,-1.89
205.23,3.36,5.29,3.37,5.30,-5.32,-5.29,-4.99,-1.97,-1.96,-1.93
207.28,3.36,5.32,3.37,5.34,-5.33,-5.29,-5.06,-1.97,-1.95,-1.96
209.35,3.37,5.37,3.37,5.37,-5.33,-5.28,-5.12,-1.97,-1.97,-2.00
211.44,3.39,5.44,3.31,5.36,-5.34,-5.28,-5.18,-1.95,-2.02,-2.05
213.56,3.21,5.29,3.24,5.32,-5.34,-5.28,-5.25,-2.13,-2.10,-2.08
215.69,3.12,5.24,3.17,5.29,-5.33,-5.27,-5.31,-2.21,-2.16,-2.12
217.85,3.15,5.30,3.14,5.30,-5.33,-5.26,-5.38,-2.18,-2.18,-2.15
220.03,3.18,5.38,3.15,5.35,-5.32,-5.26,-5.44,-2.14,-2.16,-2.20
222.23,3.15,5.37,3.13,5.35,-5.30,-5.25,-5.49,-2.16,-2.18,-2.22
224.45,3.06,5.31,3.04,5.30,-5.29,-5.24,-5.55,-2.23,-2.25,-2.25
226.70,2.94,5.22,2.96,5.24,-5.28,-5.23,-5.60,-2.34,-2.31,-2.28
228.96,2.89,5.19,2.95,5.25,-5.26,-5.22,-5.65,-2.37,-2.32,-2.30
231.25,2.97,5.28,2.94,5.26,-5.25,-5.20,-5.70,-2.28,-2.31,-2.31
233.57,3.00,5.34,2.91,5.25,-5.23,-5.19,-5.74,-2.23,-2.32,-2.34
235.90,2.82,5.17,2.86,5.22,-5.22,-5.18,-5.77,-2.40,-2.35,-2.35
238.26,2.76,5.13,2.82,5.18,-5.20,-5.16,-5.80,-2.45,-2.39,-2.37
240.64,2.82,5.18,2.80,5.16,-5.20,-5.14,-5.82,-2.38,-2.40,-2.36
243.05,2.86,5.23,2.81,5.19,-5.18,-5.13,-5.83,-2.32,-2.37,-2.37
245.48,2.79,5.18,2.81,5.20,-5.16,-5.11,-5.84,-2.37,-2.35,-2.39
247.93,2.77,5.17,2.78,5.17,-5.14,-5.09,-5.84,-2.37,-2.36,-2.40
250.41,2.75,5.14,2.73,5.13,-5.13,-5.07,-5.83,-2.38,-2.40,-2.39
252.92,2.70,5.09,2.70,5.09,-5.12,-5.05,-5.82,-2.42,-2.42,-2.39
255.45,2.65,5.06,2.66,5.06,-5.10,-5.03,-5.79,-2.46,-2.45,-2.41
258.00,2.63,5.05,2.63,5.05,-5.08,-5.00,-5.76,-2.45,-2.45,-2.42
260.58,2.63,5.06,2.64,5.08,-5.06,-4.98,-5.73,-2.43,-2.41,-2.43
263.19,2.64,5.08,2.64,5.08,-5.04,-4.96,-5.68,-2.40,-2.40,-2.44
265.82,2.66,5.12,2.59,5.04,-5.01,-4.93,-5.63,-2.36,-2.43,-2.46
268.48,2.49,4.95,2.52,4.99,-4.99,-4.90,-5.58,-2.50,-2.46,-2.46
271.16,2.41,4.89,2.46,4.94,-4.96,-4.88,-5.51,-2.55,-2.49,-2.48
273.87,2.45,4.94,2.42,4.91,-4.92,-4.85,-5.45,-2.48,-2.51,-2.49
276.61,2.42,4.93,2.39,4.90,-4.90,-4.82,-5.37,-2.48,-2.51,-2.51
279.38,2.33,4.87,2.32,4.85,-4.87,-4.79,-5.30,-2.54,-2.54,-2.54
282.17,2.23,4.77,2.26,4.80,-4.84,-4.76,-5.22,-2.61,-2.58,-2.54
284.99,2.21,4.75,2.24,4.79,-4.80,-4.73,-5.14,-2.60,-2.56,-2.54
287.84,2.27,4.81,2.24,4.79,-4.77,-4.70,-5.05,-2.50,-2.53,-2.54
290.72,2.28,4.84,2.25,4.80,-4.74,-4.67,-4.97,-2.46,-2.49,-2.56
293.63,2.18,4.73,2.20,4.75,-4.70,-4.64,-4.88,-2.53,-2.51,-2.55
296.57,2.14,4.69,2.10,4.66,-4.67,-4.61,-4.79,-2.53,-2.57,-2.55
299.53,1.99,4.55,2.03,4.58,-4.64,-4.57,-4.70,-2.65,-2.61,-2.56
302.53,1.98,4.53,2.00,4.56,-4.61,-4.54,-4.62,-2.63,-2.60,-2.55
305.55,2.01,4.57,1.99,4.55,-4.57,-4.50,-4.53,-2.56,-2.57,-2.56
308.61,2.03,4.58,2.00,4.56,-4.53,-4.47,-4.44,-2.50,-2.53,-2.55
311.69,1.96,4.53,1.97,4.53,-4.49,-4.43,-4.35,-2.53,-2.52,-2.57
314.81,1.90,4.46,1.90,4.47,-4.45,-4.40,-4.27,-2.55,-2.55,-2.56
317.96,1.84,4.42,1.83,4.40,-4.41,-4.36,-4.19,-2.58,-2.58,-2.58
321.14,1.77,4.34,1.78,4.35,-4.37,-4.33,-4.10,-2.60,-2.59,-2.57
324.35,1.73,4.31,1.74,4.32,-4.32,-4.29,-4.02,-2.59,-2.58,-2.58
327.59,1.72,4.29,1.69,4.27,-4.27,-4.25,-3.95,-2.55,-2.58,-2.57
330.87,1.66,4.24,1.64,4.22,-4.22,-4.21,-3.87,-2.56,-2.59,-2.58
334.18,1.55,4.14,1.57,4.16,-4.17,-4.18,-3.80,-2.63,-2.60,-2.59
337.52,1.51,4.09,1.53,4.11,-4.13,-4.14,-3.73,-2.62,-2.60,-2.58
340.90,1.51,4.10,1.50,4.08,-4.08,-4.10,-3.66,-2.57,-2.58,-2.59
344.30,1.49,4.07,1.47,4.06,-4.03,-4.06,-3.59,-2.54,-2.56,-2.58
347.75,1.43,4.00,1.43,4.01,-3.98,-4.02,-3.53,-2.56,-2.55,-2.57
351.23,1.36,3.95,1.36,3.94,-3.94,-3.98,-3.47,-2.58,-2.58,-2.59
354.74,1.30,3.87,1.29,3.87,-3.89,-3.94,-3.41,-2.60,-2.60,-2.57
358.28,1.23,3.80,1.25,3.83,-3.84,-3.90,-3.36,-2.62,-2.59,-2.57
361.87,1.22,3.79,1.22,3.79,-3.79,-3.86,-3.31,-2.57,-2.57,-2.57
365.49,1.23,3.79,1.20,3.76,-3.74,-3.82,-3.26,-2.51,-2.55,-2.56
369.14,1.16,3.71,1.16,3.72,-3.69,-3.78,-3.21,-2.53,-2.53,-2.55
372.83,1.10,3.64,1.11,3.66,-3.65,-3.74,-3.17,-2.55,-2.54,-2.54
376.56,1.06,3.61,1.04,3.59,-3.61,-3.70,-3.12,-2.55,-2.57,-2.55
380.33,0.99,3.54,1.00,3.55,-3.57,-3.65,-3.08,-2.58,-2.57,-2.55
384.13,0.96,3.50,0.97,3.52,-3.53,-3.61,-3.05,-2.57,-2.56,-2.54
387.97,0.97,3.51,0.95,3.49,-3.49,-3.57,-3.01,-2.52,-2.54,-2.54
391.85,0.92,3.47,0.91,3.47,-3.45,-3.53,-2.98,-2.53,-2.54,-2.55
395.77,0.87,3.43,0.86,3.42,-3.41,-3.49,-2.95,-2.54,-2.55,-2.56
399.73,0.80,3.36,0.82,3.38,-3.37,-3.45,-2.92,-2.57,-2.55,-2.56
403.72,0.77,3.32,0.78,3.34,-3.33,-3.40,-2.89,-2.56,-2.56,-2.55
407.76,0.76,3.33,0.72,3.28,-3.29,-3.36,-2.87,-2.53,-2.57,-2.57
411.84,0.65,3.23,0.66,3.24,-3.24,-3.32,-2.84,-2.59,-2.58,-2.58
415.96,0.57,3.15,0.59,3.18,-3.18,-3.28,-2.82,-2.62,-2.59,-2.58
420.12,0.56,3.15,0.53,3.12,-3.13,-3.24,-2.80,-2.57,-2.60,-2.59
424.32,0.50,3.08,0.51,3.09,-3.08,-3.19,-2.78,-2.58,-2.57,-2.58
428.56,0.48,3.04,0.48,3.05,-3.03,-3.15,-2.76,-2.55,-2.55,-2.56
432.85,0.47,3.01,0.43,2.98,-2.98,-3.11,-2.74,-2.51,-2.55,-2.54
437.18,0.38,2.91,0.40,2.92,-2.94,-3.07,-2.72,-2.56,-2.54,-2.53
441.55,0.36,2.86,0.38,2.88,-2.90,-3.02,-2.71,-2.55,-2.52,-2.50
445.96,0.39,2.85,0.39,2.86,-2.87,-2.98,-2.69,-2.49,-2.48,-2.46
450.42,0.45,2.87,0.43,2.85,-2.85,-2.94,-2.67,-2.40,-2.42,-2.42
454.93,0.47,2.84,0.46,2.83,-2.82,-2.90,-2.66,-2.35,-2.36,-2.37
459.48,0.47,2.78,0.49,2.80,-2.80,-2.86,-2.64,-2.33,-2.30,-2.31
464.07,0.53,2.77,0.53,2.78,-2.77,-2.81,-2.62,-2.24,-2.24,-2.24
468.71,0.58,2.77,0.56,2.75,-2.74,-2.77,-2.60,-2.16,-2.17,-2.19
473.40,0.59,2.72,0.59,2.71,-2.69,-2.73,-2.58,-2.11,-2.11,-2.13
478.13,0.59,2.66,0.58,2.66,-2.65,-2.69,-2.56,-2.06,-2.06,-2.07
482.91,0.56,2.58,0.57,2.60,-2.60,-2.65,-2.54,-2.04,-2.03,-2.02
487.74,0.56,2.55,0.55,2.54,-2.54,-2.61,-2.52,-1.99,-1.99,-1.99
492.62,0.54,2.49,0.53,2.48,-2.49,-2.56,-2.49,-1.96,-1.96,-1.95
497.55,0.51,2.42,0.51,2.43,-2.44,-2.52,-2.46,-1.93,-1.93,-1.91
502.52,0.49,2.38,0.50,2.39,-2.40,-2.48,-2.44,-1.91,-1.90,-1.89
507.55,0.49,2.35,0.49,2.36,-2.36,-2.44,-2.41,-1.87,-1.87,-1.86
512.62,0.51,2.36,0.47,2.32,-2.33,-2.40,-2.38,-1.82,-1.86,-1.85
517.75,0.43,2.27,0.45,2.29,-2.30,-2.36,-2.35,-1.87,-1.85,-1.84
522.93,0.39,2.23,0.41,2.26,-2.26,-2.32,-2.31,-1.87,-1.84,-1.84
