frequency,raw,error,smoothed,error_smoothed,equalization,parametric_eq,fixed_band_eq,equalized_raw,equalized_smoothed,target
20.00,-3.53,-6.75,-3.55,-6.80,6.80,6.73,2.55,3.28,3.25,3.23
20.20,-3.48,-6.73,-3.49,-6.76,6.76,6.71,2.62,3.29,3.27,3.26
20.40,-3.44,-6.73,-3.43,-6.72,6.72,6.69,2.69,3.28,3.29,3.29
20.61,-3.40,-6.70,-3.37,-6.68,6.68,6.66,2.77,3.29,3.31,3.31
20.81,-3.31,-6.65,-3.31,-6.64,6.64,6.64,2.85,3.33,3.33,3.34
21.02,-3.27,-6.63,-3.26,-6.60,6.60,6.61,2.93,3.33,3.34,3.37
21.23,-3.22,-6.59,-3.20,-6.56,6.56,6.58,3.02,3.34,3.36,3.38
21.44,-3.15,-6.54,-3.14,-6.51,6.51,6.56,3.10,3.36,3.37,3.39
21.66,-3.10,-6.49,-3.09,-6.47,6.47,6.53,3.19,3.37,3.38,3.39
21.87,-3.03,-6.43,-3.04,-6.43,6.43,6.50,3.29,3.39,3.39,3.39
22.09,-2.97,-6.38,-2.99,-6.38,6.38,6.46,3.38,3.41,3.40,3.40
22.31,-2.91,-6.32,-2.93,-6.34,6.34,6.43,3.48,3.42,3.40,3.40
22.54,-2.88,-6.28,-2.88,-6.29,6.29,6.40,3.58,3.41,3.40,3.40
22.76,-2.83,-6.24,-2.83,-6.23,6.23,6.36,3.68,3.40,3.40,3.40
22.99,-2.79,-6.18,-2.78,-6.19,6.19,6.33,3.78,3.40,3.40,3.39
23.22,-2.75,-6.14,-2.74,-6.14,6.14,6.30,3.89,3.39,3.40,3.39
23.45,-2.70,-6.08,-2.69,-6.09,6.09,6.26,4.00,3.39,3.40,3.39
23.69,-2.65,-6.03,-2.65,-6.04,6.04,6.23,4.11,3.40,3.39,3.39
23.92,-2.61,-6.00,-2.61,-6.00,6.00,6.19,4.23,3.39,3.39,3.39
24.16,-2.57,-5.96,-2.57,-5.96,5.96,6.15,4.34,3.39,3.39,3.40
24.40,-2.53,-5.93,-2.53,-5.92,5.92,6.12,4.46,3.38,3.39,3.40
24.65,-2.49,-5.87,-2.49,-5.87,5.87,6.08,4.58,3.39,3.39,3.39
24.89,-2.45,-5.84,-2.45,-5.84,5.84,6.05,4.70,3.38,3.38,3.38
25.14,-2.41,-5.80,-2.41,-5.80,5.80,6.01,4.82,3.38,3.38,3.38
25.39,-2.37,-5.76,-2.38,-5.76,5.76,5.98,4.95,3.38,3.38,3.38
25.65,-2.35,-5.73,-2.34,-5.72,5.72,5.94,5.07,3.38,3.38,3.38
25.91,-2.32,-5.69,-2.31,-5.69,5.69,5.91,5.20,3.37,3.38,3.37
26.16,-2.28,-5.65,-2.28,-5.65,5.65,5.87,5.32,3.37,3.37,3.37
26.43,-2.25,-5.61,-2.25,-5.62,5.62,5.84,5.45,3.37,3.37,3.37
26.69,-2.23,-5.59,-2.22,-5.59,5.59,5.81,5.57,3.36,3.37,3.37
26.96,-2.20,-5.56,-2.20,-5.56,5.56,5.77,5.69,3.36,3.36,3.36
27.23,-2.17,-5.53,-2.17,-5.53,5.53,5.74,5.81,3.37,3.36,3.36
27.50,-2.16,-5.52,-2.15,-5.51,5.51,5.71,5.93,3.35,3.36,3.36
27.77,-2.12,-5.47,-2.13,-5.48,5.48,5.68,6.04,3.37,3.35,3.35
28.05,-2.12,-5.46,-2.12,-5.46,5.46,5.65,6.15,3.35,3.35,3.35
28.33,-2.11,-5.45,-2.10,-5.44,5.44,5.62,6.25,3.33,3.34,3.34
28.62,-2.07,-5.40,-2.08,-5.42,5.42,5.59,6.35,3.36,3.34,3.34
28.90,-2.07,-5.40,-2.07,-5.40,5.40,5.56,6.44,3.34,3.33,3.33
29.19,-2.07,-5.39,-2.06,-5.39,5.39,5.54,6.52,3.32,3.33,3.32
29.48,-2.07,-5.40,-2.04,-5.37,5.37,5.51,6.60,3.30,3.32,3.33
29.78,-2.03,-5.34,-2.03,-5.35,5.35,5.49,6.67,3.33,3.32,3.32
30.08,-2.03,-5.34,-2.02,-5.33,5.33,5.46,6.72,3.31,3.31,3.32
30.38,-2.03,-5.33,-2.01,-5.32,5.32,5.44,6.77,3.29,3.31,3.30
30.68,-2.03,-5.33,-2.01,-5.31,5.31,5.42,6.81,3.28,3.30,3.30
30.99,-1.99,-5.28,-2.00,-5.29,5.29,5.40,6.84,3.31,3.29,3.29
31.30,-1.99,-5.27,-1.99,-5.28,5.28,5.38,6.85,3.30,3.29,3.29
31.61,-1.99,-5.27,-1.99,-5.27,5.27,5.36,6.86,3.29,3.28,3.28
31.93,-1.99,-5.26,-1.99,-5.27,5.27,5.34,6.85,3.28,3.27,3.27
32.24,-1.99,-5.24,-1.99,-5.26,5.26,5.32,6.84,3.27,3.27,3.26
32.57,-1.99,-5.24,-2.00,-5.25,5.25,5.30,6.81,3.27,3.26,3.26
32.89,-1.99,-5.24,-2.00,-5.25,5.25,5.29,6.78,3.27,3.25,3.25
33.22,-2.00,-5.24,-2.01,-5.25,5.25,5.27,6.74,3.26,3.24,3.24
33.55,-2.03,-5.26,-2.02,-5.25,5.25,5.26,6.68,3.23,3.23,3.24
33.89,-2.03,-5.25,-2.02,-5.25,5.25,5.25,6.62,3.22,3.23,3.22
34.23,-2.03,-5.25,-2.03,-5.25,5.25,5.23,6.56,3.22,3.22,3.22
34.57,-2.07,-5.27,-2.04,-5.25,5.25,5.22,6.49,3.18,3.21,3.21
34.92,-2.07,-5.26,-2.05,-5.24,5.24,5.21,6.41,3.18,3.20,3.19
35.27,-2.07,-5.26,-2.05,-5.24,5.24,5.20,6.33,3.17,3.19,3.19
35.62,-2.07,-5.24,-2.06,-5.23,5.23,5.19,6.24,3.17,3.18,3.18
35.97,-2.07,-5.23,-2.06,-5.23,5.23,5.18,6.15,3.16,3.17,3.16
36.33,-2.07,-5.22,-2.06,-5.22,5.22,5.17,6.06,3.15,3.16,3.16
36.70,-2.07,-5.21,-2.06,-5.20,5.20,5.16,5.97,3.14,3.14,3.14
37.06,-2.05,-5.17,-2.06,-5.19,5.19,5.16,5.88,3.15,3.13,3.13
37.43,-2.05,-5.17,-2.06,-5.18,5.18,5.15,5.78,3.14,3.12,3.12
37.81,-2.07,-5.17,-2.06,-5.17,5.17,5.14,5.69,3.11,3.11,3.11
38.19,-2.07,-5.16,-2.07,-5.16,5.16,5.13,5.60,3.10,3.10,3.09
38.57,-2.07,-5.15,-2.07,-5.16,5.16,5.13,5.50,3.09,3.08,3.09
38.95,-2.07,-5.14,-2.08,-5.15,5.15,5.12,5.41,3.08,3.07,3.07
39.34,-2.07,-5.12,-2.08,-5.14,5.14,5.11,5.33,3.08,3.06,3.06
39.74,-2.07,-5.11,-2.09,-5.14,5.14,5.11,5.24,3.07,3.05,3.04
40.14,-2.09,-5.12,-2.10,-5.13,5.13,5.10,5.16,3.05,3.04,3.03
40.54,-2.12,-5.13,-2.10,-5.12,5.12,5.09,5.07,3.01,3.03,3.02
40.94,-2.12,-5.13,-2.10,-5.11,5.11,5.08,5.00,3.00,3.01,3.01
41.35,-2.12,-5.11,-2.10,-5.10,5.10,5.07,4.92,2.98,3.00,2.99
41.76,-2.12,-5.10,-2.09,-5.08,5.08,5.06,4.85,2.96,2.99,2.99
42.18,-2.12,-5.09,-2.08,-5.05,5.05,5.05,4.78,2.94,2.97,2.98
42.60,-2.07,-5.03,-2.07,-5.02,5.02,5.04,4.71,2.96,2.96,2.96
43.03,-2.07,-5.02,-2.05,-4.99,4.99,5.03,4.65,2.92,2.94,2.95
43.46,-2.04,-4.97,-2.03,-4.95,4.95,5.01,4.59,2.92,2.93,2.94
43.90,-2.01,-4.91,-2.00,-4.91,4.91,5.00,4.54,2.90,2.91,2.91
44.33,-1.97,-4.86,-1.97,-4.87,4.87,4.98,4.49,2.89,2.89,2.89
44.78,-1.94,-4.80,-1.94,-4.82,4.82,4.97,4.44,2.88,2.88,2.87
45.23,-1.90,-4.74,-1.91,-4.76,4.76,4.95,4.39,2.87,2.86,2.85
45.68,-1.87,-4.69,-1.88,-4.71,4.71,4.93,4.35,2.85,2.84,2.83
46.13,-1.84,-4.64,-1.85,-4.66,4.66,4.90,4.31,2.83,2.82,2.81
46.60,-1.81,-4.60,-1.82,-4.61,4.61,4.88,4.28,2.81,2.79,2.80
47.06,-1.78,-4.55,-1.79,-4.56,4.56,4.86,4.25,2.79,2.77,2.78
47.53,-1.77,-4.52,-1.77,-4.51,4.51,4.83,4.22,2.75,2.75,2.75
48.01,-1.74,-4.48,-1.74,-4.46,4.46,4.80,4.19,2.73,2.72,2.74
48.49,-1.73,-4.44,-1.72,-4.42,4.42,4.77,4.17,2.69,2.70,2.71
48.97,-1.73,-4.40,-1.70,-4.38,4.38,4.74,4.15,2.65,2.68,2.68
49.46,-1.68,-4.32,-1.69,-4.34,4.34,4.70,4.13,2.66,2.65,2.64
49.96,-1.68,-4.29,-1.67,-4.30,4.30,4.67,4.12,2.62,2.62,2.61
50.46,-1.68,-4.27,-1.66,-4.26,4.26,4.63,4.10,2.59,2.60,2.60
50.96,-1.64,-4.21,-1.65,-4.23,4.23,4.59,4.09,2.59,2.57,2.57
51.47,-1.64,-4.17,-1.65,-4.19,4.19,4.55,4.08,2.56,2.54,2.53
51.99,-1.64,-4.14,-1.64,-4.16,4.16,4.50,4.08,2.52,2.52,2.51
52.51,-1.64,-4.13,-1.64,-4.13,4.13,4.46,4.07,2.49,2.49,2.49
53.03,-1.64,-4.10,-1.64,-4.10,4.10,4.41,4.06,2.46,2.46,2.47
53.56,-1.64,-4.07,-1.63,-4.07,4.07,4.36,4.06,2.43,2.43,2.44
54.10,-1.64,-4.04,-1.63,-4.04,4.04,4.31,4.05,2.40,2.41,2.41
54.64,-1.64,-4.02,-1.63,-4.01,4.01,4.26,4.05,2.38,2.38,2.38
55.18,-1.64,-3.99,-1.63,-3.98,3.98,4.21,4.05,2.35,2.35,2.35
55.74,-1.64,-3.96,-1.63,-3.96,3.96,4.16,4.04,2.32,2.33,2.32
56.29,-1.64,-3.94,-1.63,-3.93,3.93,4.10,4.03,2.29,2.30,2.30
56.86,-1.64,-3.90,-1.62,-3.90,3.90,4.05,4.03,2.26,2.27,2.27
57.42,-1.62,-3.85,-1.62,-3.86,3.86,3.99,4.02,2.25,2.25,2.24
58.00,-1.60,-3.81,-1.61,-3.82,3.82,3.93,4.00,2.23,2.22,2.21
58.58,-1.60,-3.79,-1.60,-3.78,3.78,3.87,3.99,2.19,2.19,2.19
59.16,-1.60,-3.76,-1.59,-3.75,3.75,3.81,3.97,2.15,2.16,2.17
59.76,-1.60,-3.74,-1.58,-3.70,3.70,3.75,3.95,2.11,2.13,2.14
60.35,-1.56,-3.66,-1.56,-3.66,3.66,3.69,3.93,2.10,2.10,2.10
60.96,-1.55,-3.62,-1.55,-3.61,3.61,3.63,3.91,2.07,2.06,2.08
61.57,-1.55,-3.58,-1.54,-3.57,3.57,3.56,3.88,2.02,2.03,2.03
62.18,-1.51,-3.50,-1.52,-3.52,3.52,3.50,3.84,2.02,2.00,1.99
62.80,-1.51,-3.47,-1.51,-3.47,3.47,3.44,3.81,1.97,1.97,1.96
63.43,-1.51,-3.43,-1.49,-3.42,3.42,3.38,3.77,1.92,1.93,1.92
64.07,-1.47,-3.36,-1.48,-3.37,3.37,3.31,3.72,1.91,1.90,1.89
64.71,-1.47,-3.33,-1.46,-3.32,3.32,3.25,3.67,1.86,1.86,1.86
65.35,-1.47,-3.29,-1.45,-3.27,3.27,3.19,3.62,1.81,1.83,1.83
66.01,-1.42,-3.21,-1.43,-3.23,3.23,3.12,3.57,1.81,1.79,1.79
66.67,-1.42,-3.17,-1.42,-3.18,3.18,3.06,3.51,1.76,1.76,1.76
67.33,-1.42,-3.14,-1.41,-3.13,3.13,3.00,3.45,1.72,1.72,1.72
68.01,-1.40,-3.08,-1.40,-3.08,3.08,2.94,3.38,1.69,1.68,1.69
68.69,-1.38,-3.03,-1.39,-3.04,3.04,2.87,3.32,1.66,1.65,1.65
69.37,-1.38,-2.99,-1.38,-2.99,2.99,2.81,3.25,1.62,1.61,1.61
70.07,-1.38,-2.95,-1.37,-2.94,2.94,2.75,3.18,1.57,1.57,1.57
70.77,-1.38,-2.92,-1.36,-2.90,2.90,2.69,3.10,1.52,1.54,1.54
71.48,-1.38,-2.88,-1.36,-2.86,2.86,2.63,3.03,1.48,1.50,1.50
72.19,-1.36,-2.81,-1.36,-2.81,2.81,2.57,2.95,1.46,1.46,1.46
72.91,-1.34,-2.75,-1.35,-2.77,2.77,2.51,2.88,1.43,1.42,1.42
73.64,-1.34,-2.71,-1.35,-2.72,2.72,2.45,2.80,1.39,1.38,1.37
74.38,-1.34,-2.67,-1.34,-2.68,2.68,2.39,2.72,1.34,1.34,1.34
75.12,-1.34,-2.63,-1.34,-2.63,2.63,2.33,2.64,1.30,1.30,1.29
75.87,-1.34,-2.59,-1.33,-2.59,2.59,2.28,2.56,1.25,1.26,1.25
76.63,-1.34,-2.55,-1.32,-2.54,2.54,2.22,2.48,1.20,1.21,1.21
77.40,-1.34,-2.51,-1.32,-2.49,2.49,2.16,2.40,1.16,1.17,1.18
78.17,-1.34,-2.46,-1.31,-2.45,2.45,2.11,2.32,1.11,1.13,1.13
78.95,-1.32,-2.41,-1.31,-2.40,2.40,2.05,2.24,1.08,1.09,1.09
79.74,-1.29,-2.34,-1.31,-2.36,2.36,2.00,2.17,1.07,1.05,1.05
80.54,-1.29,-2.29,-1.30,-2.31,2.31,1.95,2.09,1.02,1.01,1.01
81.35,-1.29,-2.25,-1.30,-2.26,2.26,1.89,2.01,0.98,0.97,0.97
82.16,-1.29,-2.21,-1.29,-2.22,2.22,1.84,1.94,0.93,0.92,0.92
82.98,-1.29,-2.17,-1.29,-2.17,2.17,1.79,1.86,0.88,0.88,0.89
83.81,-1.29,-2.11,-1.28,-2.12,2.12,1.74,1.79,0.83,0.83,0.83
84.65,-1.29,-2.07,-1.28,-2.06,2.06,1.69,1.72,0.78,0.79,0.78
85.50,-1.29,-2.03,-1.27,-2.01,2.01,1.64,1.64,0.73,0.74,0.74
86.35,-1.29,-1.98,-1.27,-1.96,1.96,1.59,1.57,0.68,0.69,0.69
87.22,-1.27,-1.91,-1.26,-1.91,1.91,1.55,1.50,0.65,0.65,0.65
88.09,-1.27,-1.86,-1.26,-1.86,1.86,1.50,1.44,0.59,0.60,0.59
88.97,-1.25,-1.80,-1.26,-1.81,1.81,1.45,1.37,0.56,0.55,0.55
89.86,-1.25,-1.75,-1.26,-1.75,1.75,1.41,1.30,0.51,0.50,0.50
90.76,-1.25,-1.68,-1.25,-1.70,1.70,1.36,1.24,0.45,0.44,0.44
91.66,-1.25,-1.64,-1.25,-1.64,1.64,1.32,1.17,0.40,0.39,0.40
92.58,-1.25,-1.58,-1.25,-1.59,1.59,1.27,1.11,0.34,0.34,0.33
93.51,-1.25,-1.53,-1.24,-1.53,1.53,1.23,1.05,0.28,0.28,0.29
94.44,-1.25,-1.48,-1.24,-1.47,1.47,1.19,0.98,0.23,0.23,0.23
95.39,-1.25,-1.42,-1.24,-1.41,1.41,1.14,0.92,0.17,0.17,0.18
96.34,-1.25,-1.36,-1.24,-1.36,1.36,1.10,0.86,0.11,0.12,0.11
97.30,-1.25,-1.30,-1.24,-1.30,1.30,1.06,0.81,0.06,0.06,0.06
98.28,-1.25,-1.24,-1.24,-1.25,1.25,1.02,0.75,0.00,0.00,-0.00
99.26,-1.25,-1.19,-1.25,-1.19,1.19,0.98,0.69,-0.06,-0.06,-0.06
100.25,-1.25,-1.13,-1.25,-1.13,1.13,0.94,0.64,-0.11,-0.11,-0.11
101.25,-1.25,-1.07,-1.25,-1.07,1.07,0.90,0.58,-0.17,-0.17,-0.17
102.27,-1.25,-1.02,-1.25,-1.02,1.02,0.87,0.53,-0.23,-0.23,-0.23
103.29,-1.25,-0.95,-1.25,-0.96,0.96,0.83,0.47,-0.29,-0.29,-0.30
104.32,-1.25,-0.90,-1.25,-0.90,0.90,0.79,0.42,-0.35,-0.35,-0.34
105.37,-1.25,-0.84,-1.25,-0.84,0.84,0.75,0.37,-0.40,-0.40,-0.40
106.42,-1.25,-0.79,-1.25,-0.78,0.78,0.72,0.32,-0.46,-0.46,-0.46
107.48,-1.25,-0.73,-1.25,-0.72,0.72,0.68,0.27,-0.52,-0.52,-0.52
108.56,-1.25,-0.66,-1.25,-0.66,0.66,0.64,0.22,-0.58,-0.58,-0.59
109.64,-1.25,-0.60,-1.25,-0.60,0.60,0.61,0.18,-0.64,-0.64,-0.64
110.74,-1.25,-0.54,-1.24,-0.54,0.54,0.57,0.13,-0.71,-0.71,-0.70
111.85,-1.25,-0.49,-1.24,-0.47,0.47,0.54,0.09,-0.77,-0.77,-0.76
112.97,-1.25,-0.41,-1.24,-0.41,0.41,0.51,0.04,-0.83,-0.83,-0.83
114.10,-1.25,-0.35,-1.24,-0.35,0.35,0.47,0.00,-0.90,-0.89,-0.89
115.24,-1.25,-0.29,-1.24,-0.29,0.29,0.44,-0.04,-0.96,-0.96,-0.96
116.39,-1.25,-0.22,-1.24,-0.23,0.23,0.41,-0.08,-1.02,-1.02,-1.02
117.55,-1.25,-0.16,-1.25,-0.16,0.16,0.37,-0.12,-1.08,-1.08,-1.09
118.73,-1.25,-0.09,-1.25,-0.10,0.10,0.34,-0.15,-1.14,-1.15,-1.15
119.92,-1.25,-0.04,-1.25,-0.04,0.04,0.31,-0.19,-1.20,-1.21,-1.21
121.12,-1.25,0.03,-1.26,0.01,-0.01,0.28,-0.22,-1.26,-1.27,-1.27
122.33,-1.25,0.09,-1.26,0.07,-0.07,0.25,-0.25,-1.32,-1.33,-1.34
123.55,-1.27,0.12,-1.26,0.13,-0.13,0.22,-0.29,-1.40,-1.40,-1.39
124.79,-1.27,0.18,-1.27,0.19,-0.19,0.19,-0.31,-1.46,-1.46,-1.45
126.03,-1.29,0.23,-1.27,0.25,-0.25,0.16,-0.34,-1.53,-1.52,-1.51
127.29,-1.29,0.29,-1.27,0.31,-0.31,0.13,-0.37,-1.59,-1.58,-1.57
128.57,-1.29,0.36,-1.27,0.36,-0.36,0.10,-0.40,-1.65,-1.64,-1.64
129.85,-1.29,0.42,-1.28,0.42,-0.42,0.07,-0.42,-1.70,-1.70,-1.70
131.15,-1.29,0.47,-1.28,0.47,-0.47,0.04,-0.44,-1.76,-1.75,-1.76
132.46,-1.29,0.53,-1.29,0.52,-0.52,0.01,-0.46,-1.81,-1.81,-1.82
133.79,-1.29,0.58,-1.29,0.58,-0.58,-0.02,-0.49,-1.86,-1.87,-1.86
135.12,-1.29,0.64,-1.29,0.63,-0.63,-0.05,-0.51,-1.92,-1.92,-1.93
136.48,-1.29,0.69,-1.30,0.68,-0.68,-0.08,-0.52,-1.96,-1.98,-1.97
137.84,-1.29,0.74,-1.30,0.73,-0.73,-0.11,-0.54,-2.01,-2.03,-2.03
139.22,-1.31,0.79,-1.31,0.77,-0.77,-0.13,-0.56,-2.08,-2.08,-2.09
140.61,-1.32,0.83,-1.31,0.82,-0.82,-0.16,-0.58,-2.13,-2.13,-2.14
142.02,-1.34,0.84,-1.32,0.86,-0.86,-0.19,-0.59,-2.20,-2.18,-2.17
143.44,-1.34,0.89,-1.33,0.90,-0.90,-0.22,-0.61,-2.24,-2.23,-2.23
144.87,-1.34,0.94,-1.33,0.94,-0.94,-0.24,-0.62,-2.28,-2.27,-2.27
146.32,-1.34,0.99,-1.34,0.98,-0.98,-0.27,-0.64,-2.31,-2.32,-2.32
147.78,-1.34,1.02,-1.35,1.02,-1.02,-0.30,-0.66,-2.35,-2.37,-2.36
149.26,-1.38,1.03,-1.36,1.06,-1.06,-0.32,-0.67,-2.43,-2.42,-2.41
150.75,-1.38,1.09,-1.36,1.10,-1.10,-0.35,-0.69,-2.47,-2.46,-2.46
152.26,-1.38,1.13,-1.37,1.14,-1.14,-0.38,-0.70,-2.51,-2.51,-2.51
153.78,-1.38,1.17,-1.38,1.18,-1.18,-0.40,-0.72,-2.55,-2.55,-2.55
155.32,-1.38,1.23,-1.39,1.21,-1.21,-0.43,-0.73,-2.59,-2.60,-2.60
156.88,-1.39,1.26,-1.39,1.25,-1.25,-0.45,-0.75,-2.64,-2.65,-2.64
158.44,-1.42,1.28,-1.40,1.29,-1.29,-0.48,-0.77,-2.71,-2.69,-2.69
160.03,-1.42,1.33,-1.41,1.33,-1.33,-0.51,-0.78,-2.74,-2.74,-2.74
161.63,-1.42,1.38,-1.42,1.37,-1.37,-0.53,-0.80,-2.78,-2.79,-2.79
163.24,-1.42,1.42,-1.43,1.40,-1.40,-0.56,-0.82,-2.82,-2.83,-2.84
164.88,-1.45,1.43,-1.44,1.44,-1.44,-0.58,-0.84,-2.88,-2.88,-2.88
166.53,-1.47,1.46,-1.45,1.47,-1.47,-0.61,-0.86,-2.94,-2.92,-2.92
168.19,-1.47,1.50,-1.46,1.50,-1.50,-0.63,-0.88,-2.97,-2.97,-2.97
169.87,-1.47,1.55,-1.48,1.53,-1.53,-0.66,-0.90,-3.00,-3.01,-3.01
171.57,-1.51,1.55,-1.49,1.57,-1.57,-0.68,-0.92,-3.07,-3.06,-3.05
173.29,-1.51,1.59,-1.51,1.60,-1.60,-0.70,-0.94,-3.10,-3.10,-3.10
175.02,-1.51,1.63,-1.52,1.62,-1.62,-0.73,-0.97,-3.13,-3.15,-3.14
176.77,-1.55,1.64,-1.54,1.65,-1.65,-0.75,-0.99,-3.20,-3.19,-3.19
178.54,-1.55,1.69,-1.56,1.67,-1.67,-0.78,-1.02,-3.22,-3.23,-3.24
180.32,-1.59,1.69,-1.58,1.69,-1.69,-0.80,-1.04,-3.28,-3.27,-3.28
182.13,-1.60,1.72,-1.60,1.72,-1.72,-0.82,-1.07,-3.31,-3.32,-3.31
183.95,-1.62,1.74,-1.62,1.74,-1.74,-0.85,-1.10,-3.35,-3.36,-3.36
185.79,-1.64,1.76,-1.64,1.76,-1.76,-0.87,-1.12,-3.39,-3.40,-3.40
187.65,-1.67,1.78,-1.66,1.77,-1.77,-0.90,-1.15,-3.44,-3.44,-3.44
189.52,-1.68,1.80,-1.69,1.79,-1.79,-0.92,-1.18,-3.46,-3.47,-3.48
191.42,-1.73,1.78,-1.71,1.80,-1.80,-0.94,-1.21,-3.52,-3.51,-3.51
193.33,-1.74,1.81,-1.74,1.81,-1.81,-0.96,-1.25,-3.55,-3.55,-3.54
195.27,-1.77,1.81,-1.76,1.82,-1.82,-0.99,-1.28,-3.58,-3.58,-3.58
197.22,-1.78,1.83,-1.78,1.83,-1.83,-1.01,-1.31,-3.60,-3.61,-3.61
199.19,-1.81,1.84,-1.80,1.83,-1.83,-1.03,-1.34,-3.64,-3.64,-3.65
201.18,-1.81,1.86,-1.82,1.84,-1.84,-1.05,-1.38,-3.65,-3.66,-3.67
203.19,-1.86,1.83,-1.84,1.85,-1.85,-1.08,-1.41,-3.70,-3.69,-3.69
205.23,-1.86,1.86,-1.86,1.86,-1.86,-1.10,-1.44,-3.71,-3.71,-3.72
207.28,-1.86,1.87,-1.87,1.86,-1.86,-1.12,-1.48,-3.72,-3.74,-3.73
209.35,-1.90,1.86,-1.88,1.88,-1.88,-1.14,-1.51,-3.77,-3.75,-3.75
211.44,-1.90,1.89,-1.89,1.89,-1.89,-1.16,-1.55,-3.78,-3.77,-3.78
213.56,-1.90,1.89,-1.89,1.90,-1.90,-1.18,-1.58,-3.80,-3.79,-3.79
215.69,-1.90,1.90,-1.89,1.91,-1.91,-1.20,-1.61,-3.81,-3.80,-3.79
217.85,-1.90,1.91,-1.88,1.93,-1.93,-1.22,-1.65,-3.83,-3.81,-3.81
220.03,-1.89,1.94,-1.87,1.95,-1.95,-1.25,-1.68,-3.84,-3.82,-3.82
222.23,-1.86,1.98,-1.86,1.97,-1.97,-1.27,-1.71,-3.83,-3.83,-3.84
224.45,-1.86,1.98,-1.84,1.99,-1.99,-1.29,-1.74,-3.85,-3.83,-3.83
226.70,-1.81,2.03,-1.82,2.02,-2.02,-1.30,-1.77,-3.82,-3.84,-3.84
228.96,-1.81,2.03,-1.80,2.04,-2.04,-1.32,-1.80,-3.84,-3.84,-3.84
231.25,-1.77,2.07,-1.78,2.06,-2.06,-1.34,-1.82,-3.83,-3.84,-3.83
233.57,-1.77,2.07,-1.75,2.09,-2.09,-1.36,-1.85,-3.85,-3.84,-3.83
235.90,-1.73,2.11,-1.73,2.10,-2.10,-1.38,-1.87,-3.83,-3.84,-3.84
238.26,-1.73,2.11,-1.71,2.12,-2.12,-1.40,-1.89,-3.85,-3.83,-3.84
240.64,-1.68,2.15,-1.69,2.14,-2.14,-1.42,-1.91,-3.81,-3.83,-3.83
243.05,-1.68,2.14,-1.67,2.15,-2.15,-1.43,-1.93,-3.82,-3.82,-3.82
245.48,-1.68,2.13,-1.66,2.15,-2.15,-1.45,-1.94,-3.82,-3.81,-3.81
247.93,-1.64,2.16,-1.65,2.15,-2.15,-1.47,-1.96,-3.78,-3.80,-3.80
250.41,-1.64,2.16,-1.65,2.14,-2.14,-1.48,-1.97,-3.77,-3.79,-3.80
252.92,-1.64,2.14,-1.65,2.12,-2.12,-1.50,-1.98,-3.76,-3.77,-3.78
255.45,-1.64,2.12,-1.66,2.10,-2.10,-1.51,-1.98,-3.74,-3.76,-3.76
258.00,-1.68,2.07,-1.67,2.08,-2.08,-1.52,-1.99,-3.75,-3.75,-3.74
260.58,-1.68,2.06,-1.69,2.04,-2.04,-1.54,-1.99,-3.72,-3.73,-3.73
263.19,-1.71,2.01,-1.71,2.00,-2.00,-1.55,-1.99,-3.71,-3.71,-3.71
265.82,-1.74,1.96,-1.74,1.95,-1.95,-1.56,-1.98,-3.69,-3.69,-3.70
268.48,-1.77,1.91,-1.78,1.90,-1.90,-1.57,-1.98,-3.67,-3.68,-3.68
271.16,-1.82,1.84,-1.81,1.85,-1.85,-1.58,-1.98,-3.66,-3.66,-3.65
273.87,-1.85,1.79,-1.85,1.79,-1.79,-1.59,-1.97,-3.63,-3.64,-3.64
276.61,-1.90,1.72,-1.90,1.72,-1.72,-1.60,-1.96,-3.62,-3.62,-3.62
279.38,-1.94,1.67,-1.94,1.66,-1.66,-1.61,-1.95,-3.59,-3.60,-3.60
282.17,-2.00,1.59,-1.99,1.60,-1.60,-1.62,-1.94,-3.59,-3.59,-3.59
284.99,-2.04,1.53,-2.03,1.54,-1.54,-1.62,-1.93,-3.57,-3.57,-3.56
287.84,-2.09,1.46,-2.07,1.47,-1.47,-1.63,-1.92,-3.56,-3.55,-3.55
290.72,-2.12,1.41,-2.11,1.42,-1.42,-1.63,-1.91,-3.53,-3.53,-3.52
293.63,-2.16,1.35,-2.15,1.36,-1.36,-1.63,-1.89,-3.52,-3.51,-3.51
296.57,-2.20,1.29,-2.18,1.31,-1.31,-1.63,-1.88,-3.50,-3.49,-3.49
299.53,-2.21,1.26,-2.21,1.26,-1.26,-1.63,-1.87,-3.46,-3.46,-3.47
302.53,-2.25,1.21,-2.23,1.21,-1.21,-1.62,-1.86,-3.46,-3.44,-3.45
305.55,-2.25,1.17,-2.25,1.18,-1.18,-1.62,-1.85,-3.42,-3.42,-3.42
308.61,-2.25,1.16,-2.26,1.14,-1.14,-1.61,-1.84,-3.39,-3.40,-3.40
311.69,-2.27,1.11,-2.26,1.12,-1.12,-1.60,-1.83,-3.38,-3.38,-3.38
314.81,-2.27,1.08,-2.26,1.10,-1.10,-1.59,-1.82,-3.36,-3.35,-3.34
317.96,-2.26,1.07,-2.25,1.08,-1.08,-1.57,-1.81,-3.34,-3.33,-3.33
321.14,-2.25,1.06,-2.24,1.07,-1.07,-1.55,-1.80,-3.32,-3.31,-3.31
324.35,-2.25,1.05,-2.23,1.06,-1.06,-1.53,-1.79,-3.31,-3.29,-3.29
327.59,-2.22,1.05,-2.20,1.06,-1.06,-1.51,-1.79,-3.28,-3.27,-3.27
330.87,-2.20,1.05,-2.18,1.07,-1.07,-1.48,-1.79,-3.26,-3.25,-3.25
334.18,-2.16,1.08,-2.15,1.07,-1.07,-1.45,-1.78,-3.23,-3.23,-3.23
337.52,-2.12,1.10,-2.13,1.08,-1.08,-1.42,-1.78,-3.20,-3.21,-3.22
340.90,-2.09,1.10,-2.09,1.10,-1.10,-1.38,-1.78,-3.18,-3.19,-3.19
344.30,-2.06,1.12,-2.06,1.11,-1.11,-1.35,-1.78,-3.16,-3.17,-3.17
347.75,-2.03,1.13,-2.03,1.12,-1.12,-1.31,-1.78,-3.15,-3.15,-3.15
351.23,-1.99,1.15,-2.00,1.14,-1.14,-1.27,-1.79,-3.12,-3.14,-3.14
354.74,-1.97,1.15,-1.97,1.15,-1.15,-1.23,-1.79,-3.12,-3.12,-3.12
358.28,-1.94,1.17,-1.94,1.16,-1.16,-1.18,-1.80,-3.10,-3.10,-3.10
361.87,-1.90,1.19,-1.91,1.17,-1.17,-1.14,-1.81,-3.07,-3.09,-3.08
365.49,-1.89,1.18,-1.89,1.18,-1.18,-1.11,-1.82,-3.07,-3.07,-3.07
369.14,-1.86,1.20,-1.86,1.19,-1.19,-1.08,-1.83,-3.05,-3.05,-3.06
372.83,-1.84,1.20,-1.84,1.20,-1.20,-1.05,-1.84,-3.03,-3.04,-3.04
376.56,-1.81,1.23,-1.82,1.20,-1.20,-1.03,-1.85,-3.01,-3.03,-3.03
380.33,-1.81,1.20,-1.80,1.21,-1.21,-1.02,-1.87,-3.02,-3.01,-3.00
384.13,-1.77,1.23,-1.78,1.22,-1.22,-1.02,-1.88,-2.99,-3.00,-3.00
387.97,-1.77,1.22,-1.75,1.24,-1.24,-1.03,-1.90,-3.00,-2.99,-2.99
391.85,-1.73,1.25,-1.72,1.25,-1.25,-1.05,-1.92,-2.98,-2.97,-2.98
395.77,-1.71,1.26,-1.70,1.27,-1.27,-1.09,-1.94,-2.97,-2.96,-2.96
399.73,-1.68,1.28,-1.66,1.29,-1.29,-1.13,-1.96,-2.96,-2.95,-2.95
403.72,-1.65,1.30,-1.63,1.31,-1.31,-1.18,-1.98,-2.96,-2.94,-2.94
407.76,-1.62,1.32,-1.59,1.34,-1.34,-1.24,-2.00,-2.96,-2.93,-2.94
411.84,-1.57,1.35,-1.55,1.37,-1.37,-1.30,-2.03,-2.94,-2.92,-2.92
415.96,-1.50,1.41,-1.51,1.41,-1.41,-1.37,-2.05,-2.90,-2.91,-2.91
420.12,-1.45,1.45,-1.46,1.44,-1.44,-1.44,-2.07,-2.89,-2.90,-2.90
424.32,-1.40,1.50,-1.41,1.49,-1.49,-1.51,-2.10,-2.88,-2.89,-2.89
428.56,-1.36,1.53,-1.35,1.53,-1.53,-1.58,-2.12,-2.88,-2.88,-2.88
432.85,-1.31,1.57,-1.30,1.57,-1.57,-1.65,-2.14,-2.88,-2.87,-2.87
437.18,-1.24,1.63,-1.24,1.62,-1.62,-1.71,-2.17,-2.85,-2.86,-2.86
441.55,-1.19,1.66,-1.18,1.67,-1.67,-1.78,-2.19,-2.85,-2.85,-2.85
445.96,-1.13,1.71,-1.12,1.71,-1.71,-1.84,-2.21,-2.84,-2.83,-2.84
450.42,-1.06,1.77,-1.06,1.76,-1.76,-1.90,-2.24,-2.82,-2.82,-2.83
454.93,-1.01,1.80,-1.00,1.81,-1.81,-1.96,-2.26,-2.81,-2.81,-2.81
459.48,-0.95,1.85,-0.94,1.85,-1.85,-2.02,-2.28,-2.80,-2.79,-2.80
464.07,-0.89,1.89,-0.89,1.89,-1.89,-2.07,-2.29,-2.78,-2.78,-2.78
468.71,-0.83,1.94,-0.83,1.93,-1.93,-2.12,-2.31,-2.76,-2.77,-2.76
