frequency,raw,error,smoothed,error_smoothed,equalization,parametric_eq,fixed_band_eq,equalized_raw,equalized_smoothed,target
20.00,-3.85,-6.38,-3.84,-6.40,6.40,6.33,1.69,2.55,2.56,2.53
20.20,-3.76,-6.34,-3.75,-6.35,6.35,6.27,1.75,2.59,2.59,2.58
20.40,-3.67,-6.29,-3.66,-6.29,6.29,6.21,1.80,2.63,2.63,2.63
20.61,-3.58,-6.24,-3.58,-6.24,6.24,6.15,1.85,2.66,2.66,2.66
20.81,-3.49,-6.19,-3.49,-6.18,6.18,6.09,1.91,2.70,2.69,2.71
21.02,-3.40,-6.15,-3.40,-6.12,6.12,6.03,1.96,2.73,2.72,2.75
21.23,-3.32,-6.09,-3.32,-6.06,6.06,5.97,2.02,2.75,2.75,2.77
21.44,-3.24,-6.02,-3.23,-6.00,6.00,5.91,2.08,2.77,2.77,2.79
21.66,-3.15,-5.96,-3.15,-5.94,5.94,5.85,2.14,2.79,2.79,2.81
21.87,-3.07,-5.88,-3.06,-5.87,5.87,5.78,2.21,2.81,2.81,2.82
22.09,-2.98,-5.81,-2.98,-5.81,5.81,5.72,2.27,2.83,2.83,2.84
22.31,-2.89,-5.73,-2.90,-5.74,5.74,5.66,2.34,2.85,2.84,2.85
22.54,-2.80,-5.65,-2.82,-5.67,5.67,5.60,2.41,2.87,2.84,2.85
22.76,-2.71,-5.55,-2.75,-5.59,5.59,5.54,2.48,2.89,2.85,2.85
22.99,-2.62,-5.46,-2.67,-5.52,5.52,5.47,2.55,2.90,2.85,2.84
23.22,-2.57,-5.41,-2.59,-5.44,5.44,5.41,2.63,2.87,2.85,2.84
23.45,-2.52,-5.36,-2.51,-5.36,5.36,5.35,2.70,2.84,2.85,2.84
23.69,-2.47,-5.32,-2.42,-5.28,5.28,5.29,2.78,2.81,2.85,2.85
23.92,-2.42,-5.26,-2.34,-5.19,5.19,5.23,2.86,2.78,2.85,2.85
24.16,-2.32,-5.16,-2.26,-5.11,5.11,5.17,2.94,2.79,2.85,2.85
24.40,-2.21,-5.06,-2.17,-5.02,5.02,5.10,3.02,2.82,2.85,2.86
24.65,-2.09,-4.94,-2.09,-4.94,4.94,5.04,3.11,2.85,2.85,2.85
24.89,-1.98,-4.82,-2.00,-4.85,4.85,4.98,3.19,2.88,2.85,2.85
25.14,-1.88,-4.72,-1.91,-4.76,4.76,4.92,3.27,2.89,2.85,2.85
25.39,-1.80,-4.65,-1.83,-4.68,4.68,4.86,3.36,2.88,2.85,2.86
25.65,-1.72,-4.58,-1.74,-4.59,4.59,4.80,3.44,2.88,2.85,2.86
25.91,-1.64,-4.49,-1.65,-4.51,4.51,4.74,3.53,2.87,2.85,2.85
26.16,-1.56,-4.40,-1.57,-4.42,4.42,4.68,3.61,2.87,2.85,2.85
26.43,-1.49,-4.34,-1.49,-4.34,4.34,4.62,3.69,2.85,2.85,2.85
26.69,-1.42,-4.27,-1.41,-4.26,4.26,4.56,3.78,2.84,2.85,2.85
26.96,-1.34,-4.19,-1.34,-4.19,4.19,4.50,3.86,2.85,2.85,2.85
27.23,-1.28,-4.13,-1.27,-4.12,4.12,4.44,3.93,2.84,2.84,2.85
27.50,-1.21,-4.06,-1.21,-4.05,4.05,4.38,4.01,2.84,2.84,2.85
27.77,-1.15,-3.98,-1.14,-3.98,3.98,4.32,4.08,2.83,2.84,2.84
28.05,-1.09,-3.92,-1.07,-3.91,3.91,4.27,4.15,2.82,2.84,2.84
28.33,-1.02,-3.84,-1.00,-3.84,3.84,4.21,4.22,2.82,2.84,2.83
28.62,-0.95,-3.78,-0.93,-3.77,3.77,4.15,4.28,2.82,2.84,2.83
28.90,-0.87,-3.70,-0.87,-3.70,3.70,4.09,4.34,2.83,2.84,2.84
29.19,-0.80,-3.63,-0.79,-3.63,3.63,4.04,4.39,2.83,2.83,2.83
29.48,-0.73,-3.56,-0.72,-3.56,3.56,3.98,4.43,2.83,2.83,2.84
29.78,-0.65,-3.48,-0.65,-3.48,3.48,3.92,4.47,2.84,2.83,2.83
30.08,-0.59,-3.43,-0.59,-3.42,3.42,3.87,4.51,2.83,2.83,2.84
30.38,-0.53,-3.36,-0.52,-3.35,3.35,3.81,4.53,2.82,2.83,2.83
30.68,-0.47,-3.30,-0.46,-3.29,3.29,3.76,4.55,2.82,2.83,2.83
30.99,-0.41,-3.24,-0.40,-3.23,3.23,3.70,4.56,2.82,2.82,2.83
31.30,-0.34,-3.16,-0.35,-3.17,3.17,3.65,4.57,2.84,2.82,2.82
31.61,-0.28,-3.10,-0.30,-3.12,3.12,3.59,4.56,2.85,2.82,2.82
31.93,-0.21,-3.03,-0.26,-3.07,3.07,3.54,4.55,2.86,2.82,2.82
32.24,-0.18,-2.99,-0.21,-3.02,3.02,3.49,4.53,2.85,2.81,2.81
32.57,-0.17,-2.98,-0.17,-2.98,2.98,3.43,4.51,2.81,2.81,2.81
32.89,-0.15,-2.96,-0.14,-2.94,2.94,3.38,4.48,2.79,2.80,2.81
33.22,-0.13,-2.93,-0.10,-2.90,2.90,3.33,4.44,2.78,2.80,2.80
33.55,-0.09,-2.88,-0.07,-2.87,2.87,3.28,4.40,2.78,2.79,2.80
33.89,-0.06,-2.85,-0.04,-2.83,2.83,3.23,4.35,2.77,2.79,2.79
34.23,-0.02,-2.81,-0.00,-2.79,2.79,3.18,4.29,2.77,2.79,2.79
34.57,0.03,-2.75,0.04,-2.74,2.74,3.13,4.23,2.78,2.78,2.78
34.92,0.08,-2.70,0.08,-2.70,2.70,3.08,4.17,2.78,2.78,2.78
35.27,0.11,-2.66,0.12,-2.65,2.65,3.03,4.10,2.77,2.77,2.77
35.62,0.13,-2.64,0.16,-2.61,2.61,2.98,4.03,2.75,2.77,2.77
35.97,0.16,-2.60,0.20,-2.57,2.57,2.93,3.96,2.73,2.77,2.77
36.33,0.22,-2.54,0.24,-2.52,2.52,2.88,3.88,2.75,2.77,2.77
36.70,0.29,-2.47,0.29,-2.48,2.48,2.83,3.80,2.77,2.77,2.76
37.06,0.36,-2.39,0.33,-2.43,2.43,2.78,3.72,2.79,2.77,2.76
37.43,0.42,-2.34,0.38,-2.39,2.39,2.74,3.64,2.81,2.77,2.77
37.81,0.47,-2.30,0.42,-2.35,2.35,2.69,3.56,2.82,2.77,2.77
38.19,0.49,-2.27,0.46,-2.31,2.31,2.64,3.48,2.80,2.77,2.76
38.57,0.46,-2.31,0.50,-2.27,2.27,2.60,3.40,2.73,2.77,2.77
38.95,0.43,-2.34,0.53,-2.24,2.24,2.55,3.32,2.67,2.77,2.78
39.34,0.51,-2.25,0.55,-2.21,2.21,2.51,3.24,2.73,2.77,2.77
39.74,0.61,-2.16,0.58,-2.19,2.19,2.46,3.16,2.80,2.77,2.77
40.14,0.67,-2.10,0.60,-2.17,2.17,2.42,3.09,2.85,2.77,2.77
40.54,0.66,-2.11,0.61,-2.15,2.15,2.37,3.01,2.82,2.77,2.77
40.94,0.65,-2.11,0.63,-2.13,2.13,2.33,2.93,2.79,2.76,2.76
41.35,0.65,-2.11,0.65,-2.11,2.11,2.29,2.86,2.76,2.76,2.76
41.76,0.65,-2.10,0.67,-2.08,2.08,2.24,2.79,2.74,2.75,2.75
42.18,0.65,-2.10,0.69,-2.05,2.05,2.20,2.72,2.71,2.74,2.75
42.60,0.65,-2.09,0.71,-2.02,2.02,2.16,2.65,2.67,2.73,2.74
43.03,0.65,-2.08,0.74,-1.98,1.98,2.12,2.58,2.64,2.72,2.73
43.46,0.71,-2.01,0.75,-1.95,1.95,2.08,2.51,2.67,2.71,2.72
43.90,0.77,-1.93,0.77,-1.93,1.93,2.04,2.45,2.70,2.70,2.70
44.33,0.81,-1.86,0.78,-1.91,1.91,1.99,2.39,2.72,2.68,2.68
44.78,0.84,-1.82,0.79,-1.89,1.89,1.95,2.33,2.73,2.67,2.66
45.23,0.86,-1.79,0.80,-1.85,1.85,1.91,2.27,2.72,2.66,2.65
45.68,0.86,-1.78,0.83,-1.82,1.82,1.87,2.21,2.68,2.64,2.64
46.13,0.86,-1.76,0.85,-1.78,1.78,1.84,2.16,2.64,2.63,2.62
46.60,0.86,-1.76,0.87,-1.74,1.74,1.80,2.11,2.61,2.62,2.62
47.06,0.86,-1.74,0.89,-1.71,1.71,1.76,2.06,2.58,2.60,2.60
47.53,0.86,-1.73,0.89,-1.69,1.69,1.72,2.01,2.55,2.59,2.59
48.01,0.86,-1.73,0.90,-1.67,1.67,1.68,1.96,2.53,2.57,2.59
48.49,0.86,-1.71,0.91,-1.65,1.65,1.64,1.91,2.51,2.56,2.57
48.97,0.86,-1.68,0.91,-1.63,1.63,1.61,1.87,2.49,2.54,2.55
49.46,0.95,-1.57,0.92,-1.61,1.61,1.57,1.83,2.56,2.53,2.53
49.96,1.04,-1.47,0.94,-1.58,1.58,1.53,1.78,2.62,2.52,2.51
50.46,1.01,-1.49,0.95,-1.55,1.55,1.50,1.74,2.56,2.50,2.50
50.96,0.96,-1.53,0.97,-1.52,1.52,1.46,1.70,2.48,2.49,2.49
51.47,0.93,-1.54,0.99,-1.49,1.49,1.42,1.67,2.42,2.48,2.47
51.99,0.90,-1.56,1.01,-1.45,1.45,1.39,1.63,2.36,2.46,2.46
52.51,0.98,-1.47,1.03,-1.43,1.43,1.35,1.59,2.41,2.45,2.45
53.03,1.06,-1.39,1.04,-1.40,1.40,1.32,1.56,2.47,2.44,2.45
53.56,1.06,-1.37,1.04,-1.38,1.38,1.28,1.52,2.45,2.43,2.43
54.10,1.06,-1.36,1.04,-1.38,1.38,1.25,1.49,2.44,2.42,2.42
54.64,1.06,-1.34,1.03,-1.37,1.37,1.21,1.46,2.44,2.41,2.40
55.18,1.06,-1.34,1.02,-1.38,1.38,1.18,1.42,2.44,2.40,2.40
55.74,1.06,-1.32,1.01,-1.38,1.38,1.15,1.39,2.44,2.38,2.38
56.29,1.05,-1.32,1.00,-1.37,1.37,1.11,1.36,2.43,2.37,2.37
56.86,1.02,-1.34,0.99,-1.37,1.37,1.08,1.33,2.39,2.36,2.36
57.42,0.96,-1.37,0.97,-1.37,1.37,1.05,1.29,2.33,2.34,2.33
58.00,0.89,-1.43,0.95,-1.37,1.37,1.01,1.26,2.26,2.32,2.32
58.58,0.87,-1.44,0.94,-1.36,1.36,0.98,1.23,2.24,2.30,2.31
59.16,0.86,-1.43,0.92,-1.36,1.36,0.95,1.20,2.22,2.27,2.29
59.76,0.86,-1.41,0.90,-1.34,1.34,0.91,1.17,2.21,2.25,2.27
60.35,0.86,-1.37,0.89,-1.33,1.33,0.88,1.13,2.19,2.22,2.23
60.96,0.86,-1.33,0.88,-1.30,1.30,0.85,1.10,2.16,2.18,2.19
61.57,0.86,-1.29,0.87,-1.28,1.28,0.82,1.07,2.14,2.15,2.15
62.18,0.86,-1.25,0.85,-1.25,1.25,0.79,1.03,2.12,2.11,2.11
62.80,0.87,-1.19,0.84,-1.23,1.23,0.75,1.00,2.10,2.07,2.06
63.43,0.89,-1.13,0.83,-1.20,1.20,0.72,0.96,2.09,2.02,2.02
64.07,0.91,-1.06,0.81,-1.17,1.17,0.69,0.92,2.08,1.98,1.97
64.71,0.81,-1.12,0.80,-1.14,1.14,0.66,0.89,1.95,1.93,1.93
65.35,0.76,-1.13,0.78,-1.11,1.11,0.63,0.85,1.87,1.89,1.89
66.01,0.76,-1.08,0.76,-1.08,1.08,0.60,0.81,1.85,1.84,1.84
66.67,0.76,-1.03,0.74,-1.06,1.06,0.57,0.77,1.82,1.79,1.79
67.33,0.70,-1.04,0.72,-1.03,1.03,0.54,0.73,1.73,1.74,1.74
68.01,0.57,-1.13,0.70,-1.00,1.00,0.50,0.69,1.57,1.70,1.70
68.69,0.63,-1.02,0.68,-0.97,0.97,0.47,0.65,1.60,1.65,1.65
69.37,0.65,-0.95,0.66,-0.93,0.93,0.44,0.61,1.58,1.59,1.60
70.07,0.65,-0.90,0.65,-0.89,0.89,0.41,0.57,1.54,1.54,1.55
70.77,0.65,-0.85,0.64,-0.85,0.85,0.38,0.52,1.50,1.49,1.50
71.48,0.65,-0.80,0.63,-0.81,0.81,0.35,0.48,1.46,1.43,1.45
72.19,0.65,-0.73,0.62,-0.76,0.76,0.32,0.44,1.41,1.38,1.38
72.91,0.65,-0.67,0.62,-0.71,0.71,0.29,0.39,1.36,1.32,1.32
73.64,0.65,-0.62,0.62,-0.64,0.64,0.26,0.35,1.30,1.27,1.27
74.38,0.65,-0.56,0.64,-0.57,0.57,0.23,0.30,1.23,1.21,1.21
75.12,0.65,-0.50,0.66,-0.50,0.50,0.20,0.26,1.15,1.15,1.15
75.87,0.65,-0.44,0.68,-0.42,0.42,0.17,0.21,1.08,1.10,1.09
76.63,0.65,-0.39,0.69,-0.35,0.35,0.14,0.17,1.01,1.04,1.04
77.40,0.62,-0.37,0.71,-0.28,0.28,0.10,0.12,0.90,0.99,0.99
78.17,0.59,-0.33,0.73,-0.21,0.21,0.07,0.07,0.80,0.94,0.93
78.95,0.66,-0.22,0.75,-0.14,0.14,0.04,0.03,0.80,0.89,0.89
79.74,0.85,0.02,0.77,-0.07,0.07,0.01,-0.02,0.92,0.84,0.84
80.54,0.93,0.14,0.79,0.01,-0.01,-0.02,-0.07,0.93,0.79,0.79
81.35,0.91,0.17,0.82,0.08,-0.08,-0.05,-0.12,0.84,0.74,0.74
82.16,0.86,0.17,0.83,0.14,-0.14,-0.08,-0.16,0.72,0.69,0.69
82.98,0.86,0.21,0.84,0.20,-0.20,-0.11,-0.21,0.66,0.65,0.65
83.81,0.86,0.26,0.85,0.26,-0.26,-0.15,-0.26,0.61,0.60,0.60
84.65,0.86,0.31,0.86,0.31,-0.31,-0.18,-0.31,0.55,0.55,0.55
85.50,0.86,0.35,0.87,0.37,-0.37,-0.21,-0.36,0.49,0.50,0.51
86.35,0.86,0.40,0.88,0.43,-0.43,-0.24,-0.41,0.43,0.45,0.46
87.22,0.86,0.45,0.88,0.48,-0.48,-0.27,-0.46,0.38,0.40,0.41
88.09,0.86,0.50,0.88,0.53,-0.53,-0.31,-0.51,0.34,0.35,0.36
88.97,0.86,0.56,0.87,0.57,-0.57,-0.34,-0.56,0.29,0.30,0.30
89.86,0.84,0.59,0.88,0.63,-0.63,-0.37,-0.61,0.21,0.25,0.25
90.76,0.79,0.59,0.89,0.69,-0.69,-0.41,-0.67,0.10,0.20,0.20
91.66,0.88,0.74,0.91,0.76,-0.76,-0.44,-0.72,0.12,0.15,0.15
92.58,0.95,0.86,0.92,0.82,-0.82,-0.47,-0.77,0.13,0.10,0.09
93.51,0.96,0.92,0.93,0.88,-0.88,-0.51,-0.82,0.08,0.05,0.04
94.44,0.96,0.96,0.94,0.94,-0.94,-0.54,-0.88,0.02,-0.00,-0.00
95.39,0.96,1.01,0.94,0.99,-0.99,-0.57,-0.93,-0.03,-0.05,-0.05
96.34,0.96,1.06,0.94,1.04,-1.04,-0.61,-0.99,-0.08,-0.10,-0.10
97.30,0.95,1.10,0.93,1.08,-1.08,-0.64,-1.04,-0.13,-0.15,-0.15
98.28,0.94,1.14,0.92,1.12,-1.12,-0.68,-1.10,-0.18,-0.20,-0.20
99.26,0.93,1.17,0.92,1.16,-1.16,-0.72,-1.15,-0.23,-0.24,-0.24
100.25,0.91,1.20,0.90,1.19,-1.19,-0.75,-1.21,-0.28,-0.29,-0.29
101.25,0.89,1.23,0.87,1.21,-1.21,-0.79,-1.26,-0.32,-0.34,-0.34
102.27,0.83,1.22,0.83,1.22,-1.22,-0.82,-1.32,-0.39,-0.39,-0.39
103.29,0.76,1.20,0.80,1.23,-1.23,-0.86,-1.37,-0.47,-0.44,-0.44
104.32,0.72,1.20,0.76,1.25,-1.25,-0.90,-1.43,-0.53,-0.49,-0.48
105.37,0.73,1.26,0.73,1.27,-1.27,-0.94,-1.48,-0.53,-0.54,-0.53
106.42,0.70,1.28,0.70,1.29,-1.29,-0.97,-1.54,-0.58,-0.59,-0.58
107.48,0.70,1.34,0.67,1.31,-1.31,-1.01,-1.59,-0.61,-0.64,-0.64
108.56,0.71,1.40,0.64,1.33,-1.33,-1.05,-1.64,-0.62,-0.69,-0.69
109.64,0.58,1.32,0.62,1.36,-1.36,-1.09,-1.69,-0.78,-0.75,-0.74
110.74,0.47,1.27,0.60,1.40,-1.40,-1.13,-1.74,-0.92,-0.80,-0.80
111.85,0.52,1.36,0.58,1.43,-1.43,-1.17,-1.79,-0.91,-0.85,-0.84
112.97,0.59,1.49,0.58,1.48,-1.48,-1.21,-1.84,-0.88,-0.90,-0.90
114.10,0.58,1.53,0.57,1.52,-1.52,-1.25,-1.89,-0.94,-0.95,-0.95
115.24,0.58,1.58,0.57,1.57,-1.57,-1.29,-1.93,-0.98,-0.99,-1.00
116.39,0.58,1.63,0.57,1.61,-1.61,-1.34,-1.97,-1.03,-1.04,-1.05
117.55,0.58,1.67,0.57,1.66,-1.66,-1.38,-2.01,-1.07,-1.08,-1.09
118.73,0.59,1.72,0.58,1.70,-1.70,-1.42,-2.05,-1.11,-1.12,-1.13
119.92,0.59,1.75,0.59,1.75,-1.75,-1.46,-2.09,-1.15,-1.16,-1.16
121.12,0.60,1.80,0.60,1.79,-1.79,-1.51,-2.12,-1.19,-1.20,-1.20
122.33,0.61,1.84,0.62,1.85,-1.85,-1.55,-2.15,-1.23,-1.23,-1.23
123.55,0.62,1.88,0.63,1.89,-1.89,-1.60,-2.18,-1.27,-1.26,-1.26
124.79,0.63,1.92,0.63,1.92,-1.92,-1.64,-2.21,-1.29,-1.29,-1.29
126.03,0.63,1.95,0.63,1.96,-1.96,-1.69,-2.23,-1.32,-1.32,-1.32
127.29,0.64,1.98,0.64,1.99,-1.99,-1.73,-2.25,-1.35,-1.35,-1.34
128.57,0.64,2.02,0.65,2.03,-2.03,-1.78,-2.27,-1.39,-1.38,-1.38
129.85,0.65,2.06,0.65,2.06,-2.06,-1.82,-2.29,-1.41,-1.41,-1.41
131.15,0.66,2.10,0.66,2.10,-2.10,-1.87,-2.30,-1.44,-1.44,-1.44
132.46,0.66,2.13,0.66,2.13,-2.13,-1.92,-2.31,-1.47,-1.47,-1.47
133.79,0.66,2.16,0.67,2.17,-2.17,-1.97,-2.32,-1.50,-1.50,-1.50
135.12,0.67,2.20,0.67,2.20,-2.20,-2.01,-2.33,-1.52,-1.53,-1.53
136.48,0.67,2.22,0.68,2.23,-2.23,-2.06,-2.34,-1.56,-1.55,-1.55
137.84,0.67,2.26,0.68,2.26,-2.26,-2.11,-2.34,-1.59,-1.58,-1.59
139.22,0.68,2.30,0.68,2.28,-2.28,-2.16,-2.35,-1.60,-1.61,-1.62
140.61,0.68,2.33,0.67,2.31,-2.31,-2.21,-2.35,-1.63,-1.64,-1.65
142.02,0.68,2.35,0.67,2.34,-2.34,-2.26,-2.35,-1.66,-1.67,-1.67
143.44,0.68,2.38,0.67,2.38,-2.38,-2.31,-2.35,-1.70,-1.71,-1.70
144.87,0.68,2.42,0.68,2.43,-2.43,-2.36,-2.35,-1.74,-1.75,-1.74
146.32,0.68,2.46,0.69,2.48,-2.48,-2.41,-2.36,-1.79,-1.79,-1.78
147.78,0.68,2.49,0.70,2.53,-2.53,-2.45,-2.36,-1.85,-1.84,-1.81
149.26,0.68,2.54,0.71,2.60,-2.60,-2.50,-2.36,-1.92,-1.89,-1.86
150.75,0.66,2.58,0.72,2.67,-2.67,-2.55,-2.36,-2.01,-1.95,-1.92
152.26,0.65,2.64,0.73,2.74,-2.74,-2.60,-2.36,-2.08,-2.01,-1.99
153.78,0.66,2.72,0.72,2.80,-2.80,-2.65,-2.37,-2.13,-2.08,-2.06
155.32,0.74,2.87,0.71,2.85,-2.85,-2.70,-2.37,-2.11,-2.15,-2.13
156.88,0.78,2.99,0.69,2.90,-2.90,-2.75,-2.38,-2.12,-2.22,-2.21
158.44,0.78,3.07,0.67,2.95,-2.95,-2.80,-2.39,-2.17,-2.29,-2.29
160.03,0.74,3.11,0.65,3.00,-3.00,-2.85,-2.40,-2.26,-2.35,-2.37
161.63,0.67,3.11,0.63,3.05,-3.05,-2.89,-2.41,-2.37,-2.42,-2.44
163.24,0.68,3.18,0.60,3.08,-3.08,-2.94,-2.42,-2.40,-2.48,-2.50
164.88,0.61,3.16,0.58,3.11,-3.11,-2.99,-2.43,-2.50,-2.54,-2.55
166.53,0.46,3.06,0.55,3.14,-3.14,-3.03,-2.45,-2.68,-2.59,-2.60
168.19,0.38,3.02,0.53,3.16,-3.16,-3.08,-2.47,-2.78,-2.62,-2.64
169.87,0.36,3.04,0.52,3.17,-3.17,-3.12,-2.48,-2.81,-2.66,-2.68
171.57,0.43,3.13,0.50,3.19,-3.19,-3.17,-2.51,-2.75,-2.68,-2.70
173.29,0.50,3.21,0.49,3.19,-3.19,-3.21,-2.53,-2.69,-2.70,-2.71
175.02,0.54,3.26,0.49,3.21,-3.21,-3.25,-2.55,-2.67,-2.72,-2.72
176.77,0.53,3.26,0.50,3.23,-3.23,-3.29,-2.58,-2.70,-2.73,-2.73
178.54,0.51,3.25,0.52,3.26,-3.26,-3.33,-2.61,-2.74,-2.73,-2.74
180.32,0.52,3.25,0.54,3.28,-3.28,-3.36,-2.64,-2.76,-2.74,-2.73
182.13,0.59,3.31,0.57,3.31,-3.31,-3.40,-2.68,-2.72,-2.74,-2.72
183.95,0.65,3.38,0.60,3.35,-3.35,-3.43,-2.71,-2.70,-2.75,-2.73
185.79,0.66,3.39,0.64,3.40,-3.40,-3.46,-2.75,-2.73,-2.76,-2.73
187.65,0.68,3.43,0.67,3.43,-3.43,-3.49,-2.79,-2.75,-2.77,-2.75
189.52,0.70,3.46,0.69,3.47,-3.47,-3.52,-2.83,-2.77,-2.77,-2.76
191.42,0.71,3.49,0.72,3.50,-3.50,-3.55,-2.87,-2.79,-2.79,-2.78
193.33,0.72,3.52,0.74,3.54,-3.54,-3.57,-2.92,-2.82,-2.80,-2.80
195.27,0.74,3.56,0.76,3.58,-3.58,-3.60,-2.96,-2.84,-2.82,-2.82
197.22,0.75,3.59,0.79,3.62,-3.62,-3.62,-3.01,-2.87,-2.84,-2.84
199.19,0.76,3.62,0.81,3.67,-3.67,-3.63,-3.06,-2.90,-2.86,-2.86
201.18,0.83,3.71,0.83,3.71,-3.71,-3.65,-3.11,-2.87,-2.88,-2.88
203.19,0.87,3.77,0.84,3.74,-3.74,-3.66,-3.16,-2.87,-2.90,-2.90
205.23,0.88,3.80,0.85,3.77,-3.77,-3.67,-3.21,-2.89,-2.92,-2.92
207.28,0.88,3.81,0.86,3.80,-3.80,-3.68,-3.26,-2.92,-2.94,-2.93
209.35,0.88,3.83,0.86,3.82,-3.82,-3.69,-3.31,-2.94,-2.96,-2.95
211.44,0.87,3.85,0.87,3.85,-3.85,-3.69,-3.37,-2.97,-2.98,-2.98
213.56,0.87,3.86,0.87,3.86,-3.86,-3.70,-3.42,-2.99,-2.99,-2.99
215.69,0.87,3.87,0.87,3.87,-3.87,-3.70,-3.47,-3.00,-3.00,-3.00
217.85,0.86,3.87,0.86,3.87,-3.87,-3.69,-3.51,-3.01,-3.02,-3.01
220.03,0.86,3.88,0.84,3.87,-3.87,-3.69,-3.56,-3.01,-3.03,-3.02
222.23,0.82,3.87,0.83,3.86,-3.86,-3.68,-3.60,-3.03,-3.03,-3.05
224.45,0.76,3.80,0.80,3.84,-3.84,-3.67,-3.65,-3.07,-3.03,-3.04
226.70,0.76,3.80,0.78,3.81,-3.81,-3.66,-3.69,-3.05,-3.03,-3.04
228.96,0.76,3.79,0.76,3.79,-3.79,-3.64,-3.72,-3.03,-3.03,-3.03
231.25,0.77,3.79,0.74,3.76,-3.76,-3.63,-3.75,-2.99,-3.02,-3.02
233.57,0.76,3.77,0.72,3.73,-3.73,-3.61,-3.78,-2.96,-3.01,-3.01
235.90,0.66,3.66,0.69,3.69,-3.69,-3.59,-3.80,-3.03,-2.99,-3.00
238.26,0.61,3.60,0.67,3.65,-3.65,-3.56,-3.82,-3.03,-2.98,-2.99
240.64,0.62,3.58,0.65,3.61,-3.61,-3.54,-3.84,-2.98,-2.96,-2.96
243.05,0.63,3.56,0.62,3.56,-3.56,-3.51,-3.85,-2.93,-2.94,-2.93
245.48,0.59,3.50,0.60,3.52,-3.52,-3.49,-3.85,-2.92,-2.91,-2.91
247.93,0.58,3.46,0.58,3.47,-3.47,-3.46,-3.85,-2.89,-2.89,-2.88
250.41,0.57,3.43,0.55,3.42,-3.42,-3.43,-3.84,-2.84,-2.87,-2.86
252.92,0.52,3.35,0.51,3.36,-3.36,-3.39,-3.82,-2.83,-2.84,-2.83
255.45,0.46,3.27,0.47,3.29,-3.29,-3.36,-3.80,-2.83,-2.82,-2.81
258.00,0.44,3.23,0.43,3.23,-3.23,-3.33,-3.78,-2.79,-2.79,-2.79
260.58,0.43,3.20,0.39,3.16,-3.16,-3.29,-3.74,-2.73,-2.77,-2.77
263.19,0.39,3.13,0.35,3.10,-3.10,-3.25,-3.71,-2.70,-2.74,-2.74
265.82,0.34,3.06,0.31,3.03,-3.03,-3.22,-3.67,-2.68,-2.72,-2.72
268.48,0.26,2.96,0.26,2.95,-2.95,-3.18,-3.62,-2.69,-2.70,-2.70
271.16,0.20,2.87,0.21,2.88,-2.88,-3.14,-3.57,-2.68,-2.67,-2.67
273.87,0.13,2.78,0.16,2.81,-2.81,-3.10,-3.51,-2.68,-2.65,-2.65
276.61,0.06,2.68,0.12,2.74,-2.74,-3.06,-3.45,-2.68,-2.62,-2.62
279.38,0.03,2.62,0.07,2.67,-2.67,-3.01,-3.39,-2.63,-2.59,-2.59
282.17,0.03,2.60,0.03,2.60,-2.60,-2.97,-3.32,-2.56,-2.57,-2.57
284.99,-0.01,2.52,-0.01,2.53,-2.53,-2.93,-3.26,-2.54,-2.54,-2.53
287.84,-0.06,2.45,-0.04,2.46,-2.46,-2.89,-3.18,-2.52,-2.51,-2.51
290.72,-0.05,2.43,-0.08,2.40,-2.40,-2.85,-3.11,-2.45,-2.48,-2.48
293.63,-0.09,2.36,-0.11,2.34,-2.34,-2.80,-3.04,-2.43,-2.45,-2.45
296.57,-0.13,2.29,-0.13,2.29,-2.29,-2.76,-2.96,-2.42,-2.42,-2.42
299.53,-0.11,2.28,-0.14,2.25,-2.25,-2.72,-2.88,-2.35,-2.39,-2.39
302.53,-0.14,2.23,-0.15,2.21,-2.21,-2.67,-2.81,-2.35,-2.37,-2.37
305.55,-0.22,2.11,-0.16,2.18,-2.18,-2.63,-2.73,-2.40,-2.34,-2.33
308.61,-0.20,2.11,-0.15,2.16,-2.16,-2.59,-2.65,-2.36,-2.31,-2.31
311.69,-0.17,2.11,-0.14,2.15,-2.15,-2.54,-2.57,-2.32,-2.29,-2.28
314.81,-0.17,2.09,-0.13,2.14,-2.14,-2.50,-2.50,-2.31,-2.27,-2.26
317.96,-0.18,2.06,-0.12,2.13,-2.13,-2.46,-2.42,-2.31,-2.25,-2.24
321.14,-0.20,2.03,-0.11,2.12,-2.12,-2.42,-2.34,-2.31,-2.23,-2.23
324.35,-0.15,2.06,-0.13,2.08,-2.08,-2.38,-2.27,-2.23,-2.21,-2.21
327.59,-0.08,2.12,-0.15,2.05,-2.05,-2.33,-2.19,-2.12,-2.20,-2.20
330.87,-0.07,2.12,-0.18,2.01,-2.01,-2.29,-2.12,-2.07,-2.18,-2.19
334.18,-0.06,2.11,-0.21,1.96,-1.96,-2.25,-2.04,-2.02,-2.17,-2.17
337.52,-0.08,2.08,-0.24,1.92,-1.92,-2.21,-1.97,-2.00,-2.16,-2.16
340.90,-0.15,2.00,-0.28,1.88,-1.88,-2.17,-1.90,-2.03,-2.15,-2.15
344.30,-0.25,1.89,-0.32,1.83,-1.83,-2.13,-1.83,-2.08,-2.15,-2.14
347.75,-0.42,1.72,-0.36,1.79,-1.79,-2.10,-1.76,-2.20,-2.14,-2.14
351.23,-0.55,1.58,-0.40,1.73,-1.73,-2.06,-1.70,-2.28,-2.14,-2.13
354.74,-0.65,1.49,-0.45,1.68,-1.68,-2.02,-1.63,-2.33,-2.13,-2.14
358.28,-0.70,1.43,-0.49,1.64,-1.64,-1.98,-1.56,-2.33,-2.13,-2.13
361.87,-0.58,1.55,-0.53,1.60,-1.60,-1.95,-1.50,-2.18,-2.13,-2.13
365.49,-0.49,1.63,-0.56,1.57,-1.57,-1.91,-1.44,-2.06,-2.13,-2.12
369.14,-0.54,1.59,-0.58,1.55,-1.55,-1.87,-1.38,-2.08,-2.13,-2.13
372.83,-0.54,1.59,-0.59,1.54,-1.54,-1.84,-1.32,-2.08,-2.13,-2.13
376.56,-0.53,1.61,-0.58,1.55,-1.55,-1.81,-1.26,-2.08,-2.13,-2.14
380.33,-0.53,1.60,-0.55,1.58,-1.58,-1.77,-1.20,-2.11,-2.14,-2.13
384.13,-0.58,1.55,-0.52,1.62,-1.62,-1.74,-1.15,-2.19,-2.14,-2.13
387.97,-0.60,1.54,-0.49,1.66,-1.66,-1.71,-1.09,-2.26,-2.14,-2.14
391.85,-0.46,1.69,-0.45,1.70,-1.70,-1.67,-1.04,-2.15,-2.15,-2.15
395.77,-0.41,1.73,-0.43,1.72,-1.72,-1.64,-0.99,-2.13,-2.15,-2.14
399.73,-0.42,1.73,-0.42,1.74,-1.74,-1.61,-0.93,-2.15,-2.16,-2.15
403.72,-0.45,1.70,-0.42,1.74,-1.74,-1.58,-0.89,-2.19,-2.17,-2.15
407.76,-0.41,1.76,-0.42,1.75,-1.75,-1.55,-0.84,-2.16,-2.17,-2.17
411.84,-0.34,1.83,-0.42,1.75,-1.75,-1.52,-0.79,-2.09,-2.17,-2.17
415.96,-0.32,1.85,-0.44,1.74,-1.74,-1.49,-0.74,-2.05,-2.17,-2.17
420.12,-0.38,1.79,-0.46,1.71,-1.71,-1.47,-0.70,-2.08,-2.17,-2.17
424.32,-0.46,1.71,-0.49,1.67,-1.67,-1.44,-0.66,-2.13,-2.16,-2.17
428.56,-0.50,1.66,-0.51,1.64,-1.64,-1.41,-0.62,-2.14,-2.15,-2.16
432.85,-0.55,1.60,-0.54,1.60,-1.60,-1.39,-0.58,-2.15,-2.14,-2.15
437.18,-0.64,1.50,-0.56,1.55,-1.55,-1.36,-0.54,-2.19,-2.12,-2.14
441.55,-0.65,1.45,-0.58,1.51,-1.51,-1.33,-0.50,-2.16,-2.09,-2.10
445.96,-0.63,1.44,-0.60,1.46,-1.46,-1.31,-0.47,-2.08,-2.06,-2.07
450.42,-0.76,1.28,-0.63,1.40,-1.40,-1.29,-0.43,-2.15,-2.03,-2.04
454.93,-0.82,1.17,-0.66,1.32,-1.32,-1.26,-0.40,-2.14,-1.98,-1.99
459.48,-0.75,1.20,-0.68,1.26,-1.26,-1.24,-0.37,-2.00,-1.94,-1.95
464.07,-0.71,1.19,-0.70,1.19,-1.19,-1.22,-0.34,-1.90,-1.89,-1.90
468.71,-0.58,1.26,-0.71,1.14,-1.14,-1.20,-0.32,-1.71,-1.85,-1.84
473.40,-0.55,1.25,-0.72,1.08,-1.08,-1.17,-0.29,-1.63,-1.80,-1.80
478.13,-0.62,1.12,-0.74,1.01,-1.01,-1.15,-0.27,-1.63,-1.75,-1.74
482.91,-0.76,0.94,-0.76,0.95,-0.95,-1.13,-0.25,-1.70,-1.70,-1.70
487.74,-0.83,0.83,-0.79,0.87,-0.87,-1.11,-0.24,-1.70,-1.66,-1.66
492.62,-0.92,0.69,-0.83,0.80,-0.80,-1.09,-0.22,-1.71,-1.63,-1.61
497.55,-0.94,0.65,-0.87,0.73,-0.73,-1.07,-0.21,-1.66,-1.60,-1.59
