frequency,raw,error,smoothed,error_smoothed,equalization,parametric_eq,fixed_band_eq,equalized_raw,equalized_smoothed,target
20.00,-5.92,-11.65,-5.96,-11.71,11.71,11.76,4.40,5.79,5.75,5.73
20.20,-5.91,-11.67,-5.89,-11.66,11.66,11.70,4.51,5.75,5.77,5.76
20.40,-5.84,-11.63,-5.82,-11.61,11.61,11.64,4.63,5.78,5.79,5.79
20.61,-5.77,-11.58,-5.75,-11.56,11.56,11.58,4.75,5.79,5.81,5.81
20.81,-5.69,-11.53,-5.68,-11.51,11.51,11.51,4.87,5.82,5.83,5.84
21.02,-5.62,-11.49,-5.61,-11.46,11.46,11.45,5.00,5.84,5.84,5.87
21.23,-5.54,-11.42,-5.54,-11.40,11.40,11.38,5.13,5.86,5.86,5.88
21.44,-5.47,-11.35,-5.47,-11.34,11.34,11.31,5.27,5.87,5.87,5.89
21.66,-5.40,-11.30,-5.40,-11.28,11.28,11.24,5.40,5.88,5.88,5.89
21.87,-5.32,-11.21,-5.33,-11.22,11.22,11.17,5.55,5.90,5.89,5.89
22.09,-5.26,-11.16,-5.26,-11.16,11.16,11.10,5.69,5.90,5.90,5.90
22.31,-5.18,-11.08,-5.19,-11.09,11.09,11.03,5.84,5.91,5.90,5.90
22.54,-5.11,-11.01,-5.11,-11.02,11.02,10.96,5.99,5.91,5.90,5.90
22.76,-5.04,-10.94,-5.04,-10.94,10.94,10.89,6.15,5.90,5.90,5.90
22.99,-4.98,-10.87,-4.97,-10.87,10.87,10.82,6.31,5.89,5.90,5.89
23.22,-4.90,-10.79,-4.90,-10.80,10.80,10.74,6.48,5.90,5.90,5.89
23.45,-4.83,-10.72,-4.83,-10.72,10.72,10.67,6.64,5.89,5.90,5.89
23.69,-4.76,-10.65,-4.76,-10.65,10.65,10.59,6.82,5.89,5.90,5.89
23.92,-4.69,-10.58,-4.68,-10.58,10.58,10.52,6.99,5.89,5.89,5.89
24.16,-4.61,-10.51,-4.61,-10.50,10.50,10.44,7.17,5.89,5.89,5.90
24.40,-4.54,-10.43,-4.54,-10.43,10.43,10.37,7.35,5.89,5.89,5.90
24.65,-4.47,-10.36,-4.47,-10.36,10.36,10.29,7.54,5.88,5.89,5.89
24.89,-4.39,-10.27,-4.40,-10.28,10.28,10.22,7.73,5.89,5.88,5.88
25.14,-4.33,-10.21,-4.33,-10.21,10.21,10.14,7.92,5.88,5.88,5.88
25.39,-4.25,-10.13,-4.26,-10.14,10.14,10.07,8.11,5.89,5.88,5.88
25.65,-4.19,-10.07,-4.19,-10.07,10.07,9.99,8.31,5.88,5.88,5.88
25.91,-4.12,-9.99,-4.12,-9.99,9.99,9.91,8.51,5.87,5.88,5.87
26.16,-4.05,-9.92,-4.05,-9.92,9.92,9.84,8.71,5.87,5.87,5.87
26.43,-3.98,-9.85,-3.98,-9.85,9.85,9.76,8.90,5.87,5.87,5.87
26.69,-3.90,-9.77,-3.91,-9.77,9.77,9.69,9.10,5.87,5.87,5.87
26.96,-3.83,-9.70,-3.84,-9.70,9.70,9.61,9.30,5.87,5.86,5.87
27.23,-3.77,-9.63,-3.77,-9.63,9.63,9.53,9.49,5.86,5.86,5.86
27.50,-3.71,-9.57,-3.70,-9.55,9.55,9.46,9.68,5.84,5.86,5.86
27.77,-3.63,-9.48,-3.63,-9.48,9.48,9.38,9.87,5.85,5.85,5.85
28.05,-3.56,-9.41,-3.56,-9.41,9.41,9.31,10.05,5.85,5.85,5.85
28.33,-3.49,-9.33,-3.49,-9.34,9.34,9.23,10.22,5.85,5.84,5.84
28.62,-3.42,-9.26,-3.42,-9.26,9.26,9.16,10.38,5.84,5.84,5.84
28.90,-3.36,-9.19,-3.36,-9.19,9.19,9.08,10.53,5.83,5.83,5.83
29.19,-3.29,-9.11,-3.29,-9.12,9.12,9.01,10.67,5.83,5.83,5.82
29.48,-3.21,-9.04,-3.22,-9.04,9.04,8.93,10.79,5.83,5.82,5.83
29.78,-3.14,-8.96,-3.15,-8.97,8.97,8.85,10.90,5.83,5.82,5.82
30.08,-3.09,-8.91,-3.09,-8.90,8.90,8.78,10.99,5.81,5.81,5.82
30.38,-3.02,-8.83,-3.02,-8.82,8.82,8.71,11.06,5.80,5.81,5.80
30.68,-2.96,-8.76,-2.95,-8.75,8.75,8.63,11.11,5.79,5.80,5.80
30.99,-2.89,-8.68,-2.89,-8.68,8.68,8.56,11.14,5.79,5.79,5.79
31.30,-2.82,-8.61,-2.82,-8.61,8.61,8.48,11.15,5.79,5.79,5.79
31.61,-2.75,-8.54,-2.76,-8.54,8.54,8.41,11.14,5.79,5.78,5.78
31.93,-2.69,-8.46,-2.69,-8.47,8.47,8.33,11.11,5.77,5.77,5.77
32.24,-2.62,-8.38,-2.63,-8.39,8.39,8.26,11.06,5.77,5.77,5.76
32.57,-2.56,-8.32,-2.56,-8.32,8.32,8.19,10.99,5.76,5.76,5.76
32.89,-2.50,-8.25,-2.50,-8.25,8.25,8.11,10.90,5.75,5.75,5.75
33.22,-2.44,-8.18,-2.43,-8.17,8.17,8.04,10.80,5.73,5.74,5.74
33.55,-2.37,-8.11,-2.37,-8.10,8.10,7.97,10.68,5.73,5.73,5.74
33.89,-2.30,-8.02,-2.30,-8.03,8.03,7.89,10.55,5.73,5.73,5.72
34.23,-2.25,-7.97,-2.24,-7.95,7.95,7.82,10.41,5.70,5.72,5.72
34.57,-2.17,-7.88,-2.17,-7.88,7.88,7.75,10.25,5.71,5.71,5.71
34.92,-2.10,-7.79,-2.11,-7.81,7.81,7.68,10.09,5.71,5.70,5.69
35.27,-2.05,-7.74,-2.05,-7.74,7.74,7.60,9.92,5.69,5.69,5.69
35.62,-1.98,-7.66,-1.98,-7.66,7.66,7.53,9.75,5.68,5.68,5.68
35.97,-1.92,-7.58,-1.92,-7.59,7.59,7.46,9.57,5.67,5.67,5.66
36.33,-1.86,-7.52,-1.86,-7.51,7.51,7.39,9.40,5.65,5.66,5.66
36.70,-1.80,-7.44,-1.80,-7.44,7.44,7.31,9.21,5.64,5.64,5.64
37.06,-1.74,-7.37,-1.73,-7.37,7.37,7.24,9.03,5.63,5.63,5.63
37.43,-1.67,-7.29,-1.67,-7.29,7.29,7.17,8.85,5.62,5.62,5.62
37.81,-1.62,-7.23,-1.61,-7.22,7.22,7.10,8.67,5.60,5.61,5.61
38.19,-1.55,-7.14,-1.55,-7.15,7.15,7.03,8.49,5.60,5.60,5.59
38.57,-1.49,-7.08,-1.49,-7.07,7.07,6.96,8.32,5.58,5.58,5.59
38.95,-1.42,-6.99,-1.43,-7.00,7.00,6.89,8.14,5.58,5.57,5.57
39.34,-1.36,-6.92,-1.37,-6.93,6.93,6.82,7.97,5.57,5.56,5.56
39.74,-1.32,-6.86,-1.31,-6.86,6.86,6.74,7.81,5.54,5.55,5.54
40.14,-1.25,-6.79,-1.25,-6.79,6.79,6.67,7.64,5.54,5.54,5.54
40.54,-1.19,-6.71,-1.19,-6.72,6.72,6.60,7.48,5.53,5.53,5.52
40.94,-1.14,-6.65,-1.13,-6.65,6.65,6.53,7.33,5.51,5.51,5.51
41.35,-1.07,-6.56,-1.08,-6.58,6.58,6.46,7.18,5.51,5.50,5.49
41.76,-1.02,-6.51,-1.02,-6.51,6.51,6.39,7.03,5.49,5.49,5.49
42.18,-0.96,-6.44,-0.96,-6.44,6.44,6.32,6.89,5.48,5.47,5.48
42.60,-0.90,-6.36,-0.91,-6.37,6.37,6.25,6.75,5.47,5.46,5.46
43.03,-0.84,-6.29,-0.85,-6.29,6.29,6.18,6.61,5.45,5.44,5.45
43.46,-0.80,-6.24,-0.80,-6.22,6.22,6.11,6.48,5.42,5.43,5.44
43.90,-0.76,-6.17,-0.74,-6.15,6.15,6.04,6.36,5.39,5.41,5.41
44.33,-0.71,-6.10,-0.69,-6.08,6.08,5.97,6.24,5.37,5.39,5.39
44.78,-0.63,-6.00,-0.63,-6.01,6.01,5.90,6.12,5.38,5.38,5.37
45.23,-0.58,-5.93,-0.58,-5.94,5.94,5.83,6.01,5.36,5.36,5.35
45.68,-0.53,-5.86,-0.53,-5.87,5.87,5.77,5.90,5.34,5.34,5.33
46.13,-0.47,-5.78,-0.48,-5.79,5.79,5.70,5.79,5.32,5.32,5.31
46.60,-0.41,-5.71,-0.42,-5.72,5.72,5.63,5.69,5.31,5.29,5.30
47.06,-0.37,-5.65,-0.37,-5.64,5.64,5.56,5.60,5.27,5.27,5.28
47.53,-0.32,-5.57,-0.32,-5.57,5.57,5.49,5.50,5.25,5.25,5.25
48.01,-0.27,-5.51,-0.27,-5.49,5.49,5.42,5.41,5.22,5.22,5.24
48.49,-0.23,-5.44,-0.22,-5.42,5.42,5.35,5.33,5.19,5.20,5.21
48.97,-0.17,-5.35,-0.17,-5.35,5.35,5.29,5.25,5.18,5.18,5.18
49.46,-0.12,-5.26,-0.12,-5.27,5.27,5.22,5.17,5.15,5.15,5.14
49.96,-0.08,-5.19,-0.08,-5.20,5.20,5.15,5.09,5.12,5.12,5.11
50.46,-0.02,-5.12,-0.03,-5.13,5.13,5.08,5.02,5.11,5.10,5.10
50.96,0.02,-5.05,0.02,-5.05,5.05,5.01,4.95,5.07,5.07,5.07
51.47,0.06,-4.98,0.06,-4.98,4.98,4.95,4.88,5.04,5.04,5.04
51.99,0.11,-4.90,0.11,-4.91,4.91,4.88,4.82,5.02,5.02,5.01
52.51,0.15,-4.84,0.16,-4.83,4.83,4.81,4.75,4.98,4.99,4.99
53.03,0.20,-4.77,0.20,-4.76,4.76,4.74,4.69,4.96,4.96,4.97
53.56,0.25,-4.69,0.25,-4.68,4.68,4.68,4.63,4.93,4.93,4.94
54.10,0.30,-4.61,0.30,-4.61,4.61,4.61,4.57,4.91,4.91,4.91
54.64,0.33,-4.55,0.34,-4.54,4.54,4.54,4.52,4.87,4.88,4.88
55.18,0.39,-4.46,0.39,-4.46,4.46,4.48,4.46,4.85,4.85,4.85
55.74,0.45,-4.37,0.44,-4.39,4.39,4.41,4.40,4.84,4.83,4.82
56.29,0.48,-4.32,0.49,-4.32,4.32,4.34,4.35,4.80,4.80,4.80
56.86,0.53,-4.24,0.53,-4.24,4.24,4.28,4.29,4.77,4.77,4.77
57.42,0.58,-4.16,0.58,-4.16,4.16,4.21,4.24,4.74,4.75,4.74
58.00,0.63,-4.08,0.63,-4.08,4.08,4.15,4.18,4.71,4.72,4.71
58.58,0.67,-4.02,0.68,-4.01,4.01,4.08,4.13,4.68,4.69,4.69
59.16,0.72,-3.95,0.73,-3.93,3.93,4.01,4.07,4.65,4.66,4.67
59.76,0.78,-3.86,0.77,-3.85,3.85,3.95,4.01,4.63,4.63,4.64
60.35,0.82,-3.78,0.82,-3.78,3.78,3.88,3.95,4.60,4.60,4.60
60.96,0.87,-3.71,0.86,-3.70,3.70,3.82,3.89,4.57,4.57,4.58
61.57,0.90,-3.63,0.90,-3.63,3.63,3.75,3.83,4.53,4.53,4.53
62.18,0.95,-3.54,0.94,-3.56,3.56,3.69,3.77,4.51,4.50,4.49
62.80,0.99,-3.47,0.97,-3.50,3.50,3.62,3.70,4.49,4.47,4.46
63.43,1.02,-3.40,1.00,-3.43,3.43,3.56,3.64,4.45,4.43,4.42
64.07,1.04,-3.35,1.03,-3.37,3.37,3.49,3.57,4.41,4.40,4.39
64.71,1.07,-3.29,1.06,-3.31,3.31,3.43,3.50,4.38,4.36,4.36
65.35,1.08,-3.25,1.08,-3.25,3.25,3.36,3.42,4.33,4.33,4.33
66.01,1.10,-3.19,1.10,-3.19,3.19,3.30,3.35,4.29,4.29,4.29
66.67,1.13,-3.13,1.13,-3.13,3.13,3.23,3.28,4.26,4.26,4.26
67.33,1.13,-3.09,1.15,-3.07,3.07,3.17,3.20,4.20,4.22,4.22
68.01,1.17,-3.02,1.18,-3.00,3.00,3.11,3.12,4.17,4.19,4.19
68.69,1.19,-2.96,1.21,-2.94,2.94,3.04,3.04,4.13,4.15,4.15
69.37,1.21,-2.90,1.24,-2.87,2.87,2.98,2.96,4.08,4.11,4.11
70.07,1.25,-2.82,1.27,-2.80,2.80,2.91,2.88,4.05,4.07,4.07
70.77,1.28,-2.76,1.31,-2.73,2.73,2.85,2.80,4.01,4.04,4.04
71.48,1.33,-2.67,1.34,-2.66,2.66,2.79,2.71,3.99,4.00,4.00
72.19,1.36,-2.60,1.37,-2.59,2.59,2.72,2.63,3.95,3.96,3.96
72.91,1.41,-2.51,1.40,-2.52,2.52,2.66,2.54,3.93,3.92,3.92
73.64,1.43,-2.44,1.42,-2.46,2.46,2.60,2.46,3.89,3.88,3.87
74.38,1.47,-2.37,1.44,-2.40,2.40,2.53,2.37,3.87,3.84,3.84
75.12,1.47,-2.32,1.44,-2.35,2.35,2.47,2.29,3.82,3.80,3.79
75.87,1.47,-2.28,1.44,-2.31,2.31,2.41,2.21,3.78,3.76,3.75
76.63,1.47,-2.24,1.43,-2.29,2.29,2.34,2.12,3.76,3.72,3.71
77.40,1.46,-2.22,1.41,-2.26,2.26,2.28,2.04,3.72,3.67,3.68
78.17,1.43,-2.20,1.38,-2.25,2.25,2.22,1.95,3.68,3.63,3.63
78.95,1.38,-2.22,1.35,-2.24,2.24,2.15,1.87,3.62,3.59,3.59
79.74,1.32,-2.23,1.32,-2.23,2.23,2.09,1.78,3.55,3.55,3.55
80.54,1.28,-2.23,1.28,-2.23,2.23,2.03,1.70,3.51,3.51,3.51
81.35,1.22,-2.25,1.25,-2.22,2.22,1.96,1.62,3.44,3.47,3.47
82.16,1.16,-2.26,1.22,-2.20,2.20,1.90,1.54,3.36,3.42,3.42
82.98,1.13,-2.26,1.20,-2.18,2.18,1.84,1.45,3.31,3.38,3.39
83.81,1.12,-2.21,1.19,-2.15,2.15,1.77,1.37,3.27,3.33,3.33
84.65,1.10,-2.18,1.17,-2.12,2.12,1.71,1.29,3.22,3.29,3.28
85.50,1.13,-2.11,1.16,-2.08,2.08,1.65,1.21,3.21,3.24,3.24
86.35,1.14,-2.06,1.16,-2.04,2.04,1.58,1.13,3.18,3.19,3.20
87.22,1.17,-1.98,1.15,-1.99,1.99,1.52,1.05,3.16,3.15,3.15
88.09,1.20,-1.90,1.15,-1.95,1.95,1.46,0.98,3.15,3.10,3.09
88.97,1.21,-1.84,1.14,-1.91,1.91,1.39,0.90,3.12,3.05,3.05
89.86,1.21,-1.79,1.12,-1.87,1.87,1.33,0.82,3.08,3.00,3.00
90.76,1.18,-1.76,1.11,-1.84,1.84,1.26,0.74,3.02,2.94,2.94
91.66,1.15,-1.75,1.09,-1.81,1.81,1.20,0.67,2.96,2.89,2.90
92.58,1.10,-1.73,1.06,-1.78,1.78,1.13,0.59,2.88,2.84,2.83
93.51,1.06,-1.73,1.04,-1.75,1.75,1.07,0.52,2.81,2.78,2.79
94.44,1.02,-1.71,1.01,-1.72,1.72,1.00,0.44,2.74,2.73,2.73
95.39,0.97,-1.71,0.99,-1.68,1.68,0.94,0.37,2.65,2.67,2.68
96.34,0.91,-1.70,0.99,-1.63,1.63,0.87,0.29,2.54,2.62,2.61
97.30,0.91,-1.65,0.99,-1.57,1.57,0.81,0.22,2.48,2.56,2.56
98.28,0.91,-1.59,1.00,-1.50,1.50,0.74,0.15,2.41,2.50,2.50
99.26,0.95,-1.49,1.03,-1.41,1.41,0.68,0.07,2.36,2.44,2.44
100.25,1.03,-1.36,1.07,-1.31,1.31,0.61,0.00,2.34,2.39,2.39
101.25,1.10,-1.23,1.13,-1.20,1.20,0.54,-0.07,2.30,2.33,2.33
102.27,1.20,-1.07,1.21,-1.06,1.06,0.48,-0.14,2.26,2.27,2.27
103.29,1.30,-0.90,1.29,-0.92,0.92,0.41,-0.21,2.22,2.21,2.20
104.32,1.40,-0.76,1.38,-0.77,0.77,0.34,-0.28,2.17,2.15,2.16
105.37,1.51,-0.59,1.48,-0.61,0.61,0.27,-0.35,2.12,2.10,2.10
106.42,1.61,-0.43,1.58,-0.45,0.45,0.20,-0.41,2.06,2.04,2.04
107.48,1.71,-0.27,1.68,-0.30,0.30,0.13,-0.48,2.01,1.98,1.98
108.56,1.79,-0.12,1.77,-0.14,0.14,0.07,-0.54,1.93,1.92,1.91
109.64,1.90,0.04,1.86,0.01,-0.01,-0.00,-0.61,1.89,1.86,1.86
110.74,1.96,0.16,1.94,0.15,-0.15,-0.07,-0.67,1.81,1.79,1.80
111.85,2.03,0.29,2.01,0.28,-0.28,-0.14,-0.73,1.75,1.73,1.74
112.97,2.10,0.43,2.08,0.41,-0.41,-0.22,-0.79,1.69,1.67,1.67
114.10,2.14,0.53,2.13,0.53,-0.53,-0.29,-0.85,1.61,1.61,1.61
115.24,2.18,0.64,2.18,0.64,-0.64,-0.36,-0.91,1.54,1.54,1.54
116.39,2.23,0.75,2.22,0.74,-0.74,-0.43,-0.96,1.49,1.48,1.48
117.55,2.25,0.84,2.25,0.84,-0.84,-0.50,-1.01,1.41,1.42,1.41
118.73,2.29,0.94,2.28,0.93,-0.93,-0.58,-1.06,1.36,1.36,1.35
119.92,2.30,1.01,2.31,1.01,-1.01,-0.65,-1.11,1.29,1.29,1.29
121.12,2.34,1.11,2.33,1.10,-1.10,-0.72,-1.16,1.24,1.23,1.23
122.33,2.34,1.18,2.34,1.18,-1.18,-0.80,-1.20,1.16,1.17,1.16
123.55,2.34,1.23,2.36,1.25,-1.25,-0.87,-1.24,1.09,1.10,1.11
124.79,2.38,1.33,2.37,1.33,-1.33,-0.95,-1.28,1.05,1.04,1.05
126.03,2.38,1.39,2.38,1.40,-1.40,-1.02,-1.32,0.98,0.98,0.99
127.29,2.38,1.45,2.39,1.47,-1.47,-1.10,-1.35,0.91,0.92,0.93
128.57,2.38,1.52,2.41,1.54,-1.54,-1.18,-1.39,0.84,0.86,0.86
129.85,2.43,1.63,2.42,1.61,-1.61,-1.25,-1.42,0.82,0.80,0.80
131.15,2.43,1.69,2.43,1.69,-1.69,-1.33,-1.45,0.74,0.75,0.74
132.46,2.43,1.75,2.44,1.75,-1.75,-1.41,-1.47,0.68,0.69,0.68
133.79,2.47,1.83,2.46,1.83,-1.83,-1.48,-1.50,0.64,0.63,0.64
135.12,2.47,1.90,2.47,1.89,-1.89,-1.56,-1.52,0.58,0.58,0.57
136.48,2.47,1.94,2.49,1.96,-1.96,-1.64,-1.54,0.51,0.52,0.53
137.84,2.51,2.04,2.50,2.03,-2.03,-1.72,-1.57,0.48,0.47,0.47
139.22,2.51,2.10,2.52,2.10,-2.10,-1.80,-1.59,0.41,0.42,0.41
140.61,2.52,2.16,2.53,2.16,-2.16,-1.87,-1.61,0.36,0.37,0.36
142.02,2.56,2.23,2.54,2.22,-2.22,-1.95,-1.62,0.34,0.32,0.33
143.44,2.56,2.28,2.56,2.28,-2.28,-2.03,-1.64,0.28,0.27,0.28
144.87,2.56,2.33,2.57,2.34,-2.34,-2.11,-1.66,0.22,0.23,0.23
146.32,2.59,2.41,2.58,2.40,-2.40,-2.18,-1.68,0.19,0.18,0.18
147.78,2.60,2.46,2.59,2.46,-2.46,-2.26,-1.70,0.14,0.13,0.14
149.26,2.60,2.51,2.60,2.51,-2.51,-2.34,-1.72,0.09,0.09,0.09
150.75,2.60,2.56,2.61,2.57,-2.57,-2.41,-1.73,0.03,0.04,0.04
152.26,2.60,2.61,2.61,2.62,-2.62,-2.49,-1.75,-0.02,-0.01,-0.01
153.78,2.62,2.67,2.62,2.67,-2.67,-2.56,-1.77,-0.05,-0.05,-0.05
155.32,2.62,2.72,2.62,2.72,-2.72,-2.64,-1.79,-0.10,-0.10,-0.10
156.88,2.62,2.76,2.62,2.76,-2.76,-2.71,-1.82,-0.14,-0.15,-0.14
158.44,2.62,2.81,2.61,2.80,-2.80,-2.78,-1.84,-0.18,-0.19,-0.19
160.03,2.60,2.84,2.60,2.84,-2.84,-2.85,-1.86,-0.24,-0.24,-0.24
161.63,2.60,2.89,2.60,2.88,-2.88,-2.92,-1.89,-0.28,-0.29,-0.29
163.24,2.60,2.94,2.59,2.92,-2.92,-2.98,-1.92,-0.32,-0.33,-0.34
164.88,2.59,2.97,2.57,2.95,-2.95,-3.05,-1.95,-0.36,-0.38,-0.38
166.53,2.56,2.98,2.56,2.98,-2.98,-3.11,-1.98,-0.42,-0.42,-0.42
168.19,2.56,3.03,2.55,3.01,-3.01,-3.17,-2.01,-0.45,-0.47,-0.47
169.87,2.51,3.02,2.53,3.05,-3.05,-3.23,-2.04,-0.54,-0.51,-0.51
171.57,2.51,3.06,2.52,3.08,-3.08,-3.29,-2.08,-0.57,-0.56,-0.55
173.29,2.51,3.11,2.51,3.11,-3.11,-3.34,-2.11,-0.60,-0.60,-0.60
175.02,2.47,3.11,2.49,3.14,-3.14,-3.39,-2.15,-0.67,-0.65,-0.64
176.77,2.47,3.16,2.48,3.17,-3.17,-3.44,-2.19,-0.70,-0.69,-0.69
178.54,2.47,3.21,2.46,3.20,-3.20,-3.48,-2.23,-0.73,-0.73,-0.74
180.32,2.45,3.22,2.45,3.22,-3.22,-3.52,-2.28,-0.77,-0.77,-0.78
182.13,2.43,3.24,2.44,3.25,-3.25,-3.56,-2.32,-0.82,-0.82,-0.81
183.95,2.43,3.29,2.43,3.29,-3.29,-3.60,-2.37,-0.86,-0.86,-0.86
185.79,2.43,3.33,2.42,3.32,-3.32,-3.63,-2.42,-0.89,-0.90,-0.90
187.65,2.43,3.37,2.41,3.34,-3.34,-3.66,-2.47,-0.91,-0.94,-0.94
189.52,2.38,3.36,2.40,3.37,-3.37,-3.68,-2.52,-0.99,-0.97,-0.98
191.42,2.38,3.39,2.39,3.40,-3.40,-3.70,-2.58,-1.02,-1.01,-1.01
193.33,2.38,3.42,2.38,3.42,-3.42,-3.72,-2.63,-1.04,-1.05,-1.04
195.27,2.38,3.46,2.37,3.45,-3.45,-3.74,-2.69,-1.07,-1.08,-1.08
197.22,2.34,3.45,2.36,3.47,-3.47,-3.75,-2.75,-1.13,-1.11,-1.11
199.19,2.34,3.49,2.34,3.48,-3.48,-3.75,-2.81,-1.14,-1.14,-1.15
201.18,2.34,3.51,2.33,3.50,-3.50,-3.76,-2.87,-1.16,-1.16,-1.17
203.19,2.33,3.52,2.32,3.51,-3.51,-3.75,-2.93,-1.18,-1.19,-1.19
205.23,2.30,3.52,2.31,3.52,-3.52,-3.75,-2.99,-1.22,-1.21,-1.22
207.28,2.30,3.53,2.29,3.52,-3.52,-3.74,-3.05,-1.22,-1.24,-1.23
209.35,2.28,3.53,2.27,3.53,-3.53,-3.73,-3.11,-1.25,-1.25,-1.25
211.44,2.25,3.53,2.26,3.53,-3.53,-3.72,-3.17,-1.28,-1.27,-1.28
213.56,2.25,3.54,2.24,3.52,-3.52,-3.70,-3.23,-1.27,-1.29,-1.29
215.69,2.21,3.50,2.22,3.52,-3.52,-3.68,-3.29,-1.31,-1.30,-1.29
217.85,2.21,3.52,2.20,3.51,-3.51,-3.65,-3.35,-1.30,-1.31,-1.31
220.03,2.17,3.49,2.18,3.50,-3.50,-3.63,-3.41,-1.33,-1.32,-1.32
222.23,2.17,3.51,2.16,3.48,-3.48,-3.60,-3.46,-1.31,-1.33,-1.34
224.45,2.12,3.45,2.14,3.47,-3.47,-3.57,-3.51,-1.35,-1.33,-1.33
226.70,2.12,3.46,2.12,3.45,-3.45,-3.53,-3.56,-1.33,-1.34,-1.34
228.96,2.08,3.42,2.10,3.44,-3.44,-3.50,-3.60,-1.36,-1.34,-1.34
231.25,2.08,3.41,2.08,3.42,-3.42,-3.46,-3.64,-1.34,-1.34,-1.33
233.57,2.04,3.37,2.06,3.39,-3.39,-3.42,-3.68,-1.35,-1.34,-1.33
235.90,2.04,3.38,2.04,3.37,-3.37,-3.38,-3.71,-1.33,-1.34,-1.34
238.26,2.03,3.37,2.02,3.35,-3.35,-3.33,-3.74,-1.32,-1.33,-1.34
240.64,1.99,3.32,2.00,3.32,-3.32,-3.29,-3.76,-1.33,-1.33,-1.33
243.05,1.99,3.31,1.98,3.30,-3.30,-3.24,-3.78,-1.31,-1.32,-1.32
245.48,1.96,3.27,1.96,3.27,-3.27,-3.19,-3.79,-1.31,-1.31,-1.31
247.93,1.95,3.25,1.94,3.24,-3.24,-3.15,-3.79,-1.29,-1.30,-1.30
250.41,1.91,3.21,1.92,3.21,-3.21,-3.10,-3.79,-1.30,-1.29,-1.30
252.92,1.91,3.19,1.90,3.18,-3.18,-3.05,-3.79,-1.27,-1.27,-1.28
255.45,1.88,3.14,1.88,3.15,-3.15,-3.00,-3.77,-1.27,-1.26,-1.26
258.00,1.86,3.10,1.86,3.11,-3.11,-2.95,-3.76,-1.25,-1.25,-1.24
260.58,1.85,3.08,1.84,3.07,-3.07,-2.90,-3.73,-1.22,-1.23,-1.23
263.19,1.82,3.03,1.82,3.04,-3.04,-2.84,-3.70,-1.22,-1.21,-1.21
265.82,1.81,3.01,1.80,3.00,-3.00,-2.79,-3.67,-1.19,-1.19,-1.20
268.48,1.78,2.95,1.79,2.96,-2.96,-2.74,-3.63,-1.18,-1.18,-1.17
271.16,1.78,2.93,1.76,2.92,-2.92,-2.69,-3.58,-1.14,-1.16,-1.15
273.87,1.73,2.87,1.75,2.89,-2.89,-2.64,-3.54,-1.16,-1.14,-1.14
276.61,1.73,2.85,1.73,2.85,-2.85,-2.59,-3.49,-1.12,-1.12,-1.12
279.38,1.70,2.80,1.71,2.81,-2.81,-2.54,-3.43,-1.11,-1.10,-1.10
282.17,1.69,2.78,1.69,2.77,-2.77,-2.49,-3.37,-1.08,-1.09,-1.09
284.99,1.66,2.72,1.67,2.73,-2.73,-2.44,-3.31,-1.07,-1.07,-1.06
287.84,1.65,2.70,1.65,2.70,-2.70,-2.39,-3.25,-1.05,-1.05,-1.05
290.72,1.65,2.67,1.63,2.65,-2.65,-2.34,-3.18,-1.00,-1.03,-1.02
293.63,1.60,2.61,1.61,2.62,-2.62,-2.29,-3.12,-1.02,-1.01,-1.01
296.57,1.60,2.58,1.59,2.58,-2.58,-2.24,-3.05,-0.98,-0.98,-0.98
299.53,1.56,2.53,1.57,2.53,-2.53,-2.19,-2.98,-0.97,-0.96,-0.97
302.53,1.56,2.51,1.55,2.49,-2.49,-2.14,-2.91,-0.93,-0.94,-0.95
305.55,1.52,2.44,1.53,2.46,-2.46,-2.10,-2.84,-0.94,-0.92,-0.92
308.61,1.52,2.42,1.52,2.41,-2.41,-2.05,-2.78,-0.89,-0.90,-0.90
311.69,1.50,2.38,1.50,2.37,-2.37,-2.01,-2.71,-0.87,-0.88,-0.88
314.81,1.47,2.31,1.48,2.33,-2.33,-1.96,-2.64,-0.86,-0.85,-0.84
317.96,1.47,2.29,1.46,2.29,-2.29,-1.92,-2.57,-0.82,-0.83,-0.82
321.14,1.43,2.24,1.44,2.25,-2.25,-1.87,-2.51,-0.82,-0.81,-0.81
324.35,1.43,2.22,1.42,2.21,-2.21,-1.83,-2.44,-0.78,-0.79,-0.79
327.59,1.40,2.17,1.41,2.18,-2.18,-1.79,-2.38,-0.78,-0.77,-0.77
330.87,1.39,2.14,1.39,2.13,-2.13,-1.75,-2.31,-0.74,-0.75,-0.75
334.18,1.38,2.11,1.37,2.10,-2.10,-1.71,-2.25,-0.72,-0.73,-0.73
337.52,1.34,2.06,1.35,2.06,-2.06,-1.67,-2.19,-0.72,-0.71,-0.72
340.90,1.34,2.03,1.33,2.02,-2.02,-1.63,-2.13,-0.68,-0.69,-0.69
344.30,1.30,1.97,1.31,1.98,-1.98,-1.59,-2.07,-0.68,-0.67,-0.67
347.75,1.30,1.95,1.29,1.94,-1.94,-1.55,-2.02,-0.64,-0.65,-0.65
351.23,1.26,1.90,1.27,1.90,-1.90,-1.52,-1.96,-0.64,-0.64,-0.64
354.74,1.26,1.88,1.25,1.86,-1.86,-1.48,-1.91,-0.60,-0.62,-0.62
358.28,1.21,1.81,1.23,1.83,-1.83,-1.44,-1.86,-0.62,-0.60,-0.60
361.87,1.21,1.79,1.21,1.79,-1.79,-1.41,-1.81,-0.58,-0.58,-0.58
365.49,1.17,1.74,1.19,1.76,-1.76,-1.38,-1.76,-0.59,-0.57,-0.57
369.14,1.17,1.73,1.17,1.72,-1.72,-1.34,-1.71,-0.55,-0.55,-0.56
372.83,1.13,1.67,1.15,1.69,-1.69,-1.31,-1.67,-0.56,-0.54,-0.54
376.56,1.13,1.66,1.13,1.66,-1.66,-1.28,-1.62,-0.53,-0.53,-0.53
380.33,1.13,1.63,1.11,1.62,-1.62,-1.24,-1.58,-0.49,-0.51,-0.50
384.13,1.08,1.58,1.09,1.59,-1.59,-1.21,-1.54,-0.51,-0.50,-0.50
387.97,1.08,1.57,1.07,1.56,-1.56,-1.18,-1.50,-0.48,-0.49,-0.49
391.85,1.07,1.55,1.05,1.53,-1.53,-1.15,-1.46,-0.46,-0.47,-0.48
395.77,1.04,1.50,1.03,1.49,-1.49,-1.12,-1.42,-0.45,-0.46,-0.46
399.73,1.01,1.46,1.01,1.46,-1.46,-1.10,-1.39,-0.45,-0.45,-0.45
403.72,1.00,1.44,0.98,1.42,-1.42,-1.07,-1.35,-0.42,-0.44,-0.44
407.76,0.98,1.41,0.96,1.39,-1.39,-1.04,-1.32,-0.41,-0.43,-0.44
411.84,0.95,1.37,0.94,1.36,-1.36,-1.01,-1.29,-0.41,-0.42,-0.42
415.96,0.95,1.36,0.93,1.34,-1.34,-0.99,-1.25,-0.39,-0.41,-0.41
420.12,0.91,1.31,0.93,1.33,-1.33,-0.96,-1.22,-0.42,-0.40,-0.40
424.32,0.91,1.30,0.94,1.33,-1.33,-0.94,-1.19,-0.42,-0.39,-0.39
428.56,0.91,1.29,0.96,1.34,-1.34,-0.91,-1.17,-0.43,-0.38,-0.38
432.85,0.87,1.24,0.97,1.34,-1.34,-0.89,-1.14,-0.47,-0.37,-0.37
437.18,0.90,1.26,1.00,1.35,-1.35,-0.86,-1.11,-0.45,-0.36,-0.36
441.55,0.95,1.29,1.02,1.36,-1.36,-0.84,-1.08,-0.41,-0.35,-0.34
445.96,1.01,1.35,1.04,1.37,-1.37,-0.82,-1.06,-0.36,-0.33,-0.34
450.42,1.11,1.44,1.06,1.38,-1.38,-0.79,-1.03,-0.27,-0.32,-0.33
454.93,1.17,1.48,1.07,1.38,-1.38,-0.77,-1.01,-0.21,-0.31,-0.31
459.48,1.21,1.51,1.08,1.38,-1.38,-0.75,-0.98,-0.17,-0.29,-0.30
464.07,1.19,1.47,1.09,1.37,-1.37,-0.73,-0.96,-0.18,-0.28,-0.28
468.71,1.15,1.41,1.09,1.35,-1.35,-0.71,-0.93,-0.20,-0.27,-0.26
473.40,1.10,1.35,1.08,1.33,-1.33,-0.69,-0.91,-0.23,-0.25,-0.25
478.13,1.06,1.29,1.07,1.30,-1.30,-0.67,-0.89,-0.24,-0.24,-0.23
482.91,1.01,1.23,1.05,1.27,-1.27,-0.65,-0.86,-0.26,-0.22,-0.22
487.74,0.96,1.16,1.02,1.22,-1.22,-0.63,-0.84,-0.26,-0.20,-0.20
492.62,0.93,1.11,0.98,1.17,-1.17,-0.61,-0.82,-0.24,-0.19,-0.18
497.55,0.91,1.08,0.94,1.11,-1.11,-0.59,-0.80,-0.20,-0.17,-0.17
502.52,0.87,1.03,0.90,1.05,-1.05,-0.57,-0.77,-0.18,-0.16,-0.16
