frequency,raw,error,smoothed,error_smoothed,equalization,parametric_eq,fixed_band_eq,equalized_raw,equalized_smoothed,target
20.00,-5.92,-10.51,-5.96,-10.57,10.57,10.39,3.87,4.65,4.61,4.59
20.20,-5.91,-10.53,-5.89,-10.53,10.53,10.35,3.97,4.62,4.64,4.62
20.40,-5.84,-10.49,-5.82,-10.48,10.48,10.31,4.07,4.64,4.66,4.65
20.61,-5.77,-10.44,-5.75,-10.43,10.43,10.27,4.18,4.66,4.68,4.67
20.81,-5.69,-10.39,-5.68,-10.38,10.38,10.22,4.30,4.69,4.69,4.70
21.02,-5.62,-10.35,-5.61,-10.32,10.32,10.18,4.41,4.70,4.71,4.73
21.23,-5.54,-10.28,-5.54,-10.27,10.27,10.13,4.53,4.73,4.72,4.74
21.44,-5.47,-10.22,-5.47,-10.21,10.21,10.08,4.65,4.74,4.74,4.75
21.66,-5.40,-10.16,-5.40,-10.15,10.15,10.03,4.78,4.75,4.75,4.76
21.87,-5.32,-10.08,-5.33,-10.09,10.09,9.98,4.91,4.77,4.76,4.76
22.09,-5.26,-10.03,-5.26,-10.03,10.03,9.93,5.04,4.77,4.77,4.77
22.31,-5.18,-9.95,-5.19,-9.96,9.96,9.88,5.17,4.78,4.77,4.77
22.54,-5.11,-9.88,-5.11,-9.89,9.89,9.82,5.31,4.78,4.77,4.77
22.76,-5.04,-9.81,-5.04,-9.81,9.81,9.77,5.46,4.78,4.77,4.77
22.99,-4.98,-9.74,-4.97,-9.74,9.74,9.71,5.60,4.76,4.77,4.76
23.22,-4.90,-9.66,-4.90,-9.67,9.67,9.65,5.75,4.77,4.77,4.76
23.45,-4.83,-9.59,-4.83,-9.59,9.59,9.59,5.90,4.76,4.77,4.76
23.69,-4.76,-9.52,-4.76,-9.52,9.52,9.53,6.06,4.76,4.77,4.76
23.92,-4.69,-9.45,-4.68,-9.45,9.45,9.47,6.22,4.76,4.76,4.76
24.16,-4.61,-9.37,-4.61,-9.37,9.37,9.41,6.38,4.76,4.76,4.76
24.40,-4.54,-9.30,-4.54,-9.30,9.30,9.34,6.55,4.76,4.76,4.76
24.65,-4.47,-9.22,-4.47,-9.23,9.23,9.28,6.71,4.76,4.76,4.75
24.89,-4.39,-9.14,-4.40,-9.15,9.15,9.22,6.88,4.76,4.75,4.75
25.14,-4.33,-9.08,-4.33,-9.08,9.08,9.15,7.06,4.75,4.75,4.75
25.39,-4.25,-9.00,-4.26,-9.01,9.01,9.08,7.23,4.76,4.75,4.75
25.65,-4.19,-8.94,-4.19,-8.94,8.94,9.02,7.41,4.75,4.75,4.75
25.91,-4.12,-8.86,-4.12,-8.86,8.86,8.95,7.58,4.74,4.75,4.74
26.16,-4.05,-8.79,-4.05,-8.79,8.79,8.88,7.76,4.74,4.75,4.74
26.43,-3.98,-8.72,-3.98,-8.72,8.72,8.81,7.94,4.74,4.74,4.74
26.69,-3.90,-8.64,-3.91,-8.65,8.65,8.74,8.11,4.75,4.74,4.74
26.96,-3.83,-8.57,-3.84,-8.57,8.57,8.67,8.29,4.74,4.74,4.74
27.23,-3.77,-8.50,-3.77,-8.50,8.50,8.60,8.46,4.73,4.73,4.73
27.50,-3.71,-8.44,-3.70,-8.43,8.43,8.53,8.63,4.72,4.73,4.73
27.77,-3.63,-8.35,-3.63,-8.36,8.36,8.46,8.79,4.73,4.73,4.72
28.05,-3.56,-8.28,-3.56,-8.28,8.28,8.39,8.94,4.72,4.72,4.72
28.33,-3.49,-8.20,-3.49,-8.21,8.21,8.32,9.09,4.72,4.72,4.71
28.62,-3.42,-8.13,-3.42,-8.14,8.14,8.24,9.23,4.72,4.71,4.71
28.90,-3.36,-8.07,-3.36,-8.07,8.07,8.17,9.36,4.71,4.71,4.71
29.19,-3.29,-7.99,-3.29,-7.99,7.99,8.10,9.47,4.70,4.70,4.70
29.48,-3.21,-7.91,-3.22,-7.92,7.92,8.02,9.58,4.71,4.70,4.70
29.78,-3.14,-7.83,-3.15,-7.85,7.85,7.95,9.66,4.71,4.69,4.69
30.08,-3.09,-7.78,-3.09,-7.77,7.77,7.88,9.74,4.68,4.69,4.69
30.38,-3.02,-7.70,-3.02,-7.70,7.70,7.80,9.79,4.68,4.68,4.68
30.68,-2.96,-7.64,-2.95,-7.63,7.63,7.73,9.83,4.67,4.68,4.68
30.99,-2.89,-7.56,-2.89,-7.56,7.56,7.66,9.86,4.67,4.67,4.67
31.30,-2.82,-7.48,-2.82,-7.49,7.49,7.58,9.86,4.67,4.67,4.66
31.61,-2.75,-7.41,-2.76,-7.42,7.42,7.51,9.84,4.67,4.66,4.66
31.93,-2.69,-7.34,-2.69,-7.35,7.35,7.43,9.81,4.65,4.65,4.65
32.24,-2.62,-7.26,-2.63,-7.27,7.27,7.36,9.76,4.65,4.65,4.64
32.57,-2.56,-7.20,-2.56,-7.20,7.20,7.29,9.70,4.64,4.64,4.64
32.89,-2.50,-7.13,-2.50,-7.13,7.13,7.21,9.62,4.63,4.63,4.63
33.22,-2.44,-7.06,-2.43,-7.06,7.06,7.14,9.52,4.62,4.63,4.62
33.55,-2.37,-6.99,-2.37,-6.98,6.98,7.06,9.41,4.61,4.62,4.62
33.89,-2.30,-6.91,-2.30,-6.91,6.91,6.99,9.29,4.61,4.61,4.61
34.23,-2.25,-6.85,-2.24,-6.84,6.84,6.91,9.16,4.59,4.60,4.60
34.57,-2.17,-6.76,-2.17,-6.77,6.77,6.84,9.02,4.60,4.59,4.59
34.92,-2.10,-6.68,-2.11,-6.70,6.70,6.77,8.87,4.59,4.58,4.58
35.27,-2.05,-6.62,-2.05,-6.62,6.62,6.69,8.72,4.57,4.57,4.57
35.62,-1.98,-6.54,-1.98,-6.55,6.55,6.62,8.56,4.57,4.56,4.56
35.97,-1.92,-6.47,-1.92,-6.48,6.48,6.55,8.40,4.56,4.55,4.55
36.33,-1.86,-6.40,-1.86,-6.40,6.40,6.47,8.23,4.54,4.54,4.54
36.70,-1.80,-6.33,-1.80,-6.33,6.33,6.40,8.06,4.53,4.53,4.53
37.06,-1.74,-6.26,-1.73,-6.26,6.26,6.33,7.90,4.52,4.52,4.52
37.43,-1.67,-6.18,-1.67,-6.18,6.18,6.25,7.73,4.51,4.51,4.51
37.81,-1.62,-6.12,-1.61,-6.11,6.11,6.18,7.56,4.49,4.50,4.50
38.19,-1.55,-6.04,-1.55,-6.04,6.04,6.11,7.39,4.49,4.49,4.49
38.57,-1.49,-5.97,-1.49,-5.97,5.97,6.03,7.23,4.48,4.48,4.48
38.95,-1.42,-5.89,-1.43,-5.90,5.90,5.96,7.06,4.48,4.47,4.47
39.34,-1.36,-5.81,-1.37,-5.83,5.83,5.89,6.90,4.47,4.46,4.45
39.74,-1.32,-5.76,-1.31,-5.76,5.76,5.82,6.75,4.44,4.45,4.44
40.14,-1.25,-5.68,-1.25,-5.69,5.69,5.75,6.59,4.44,4.44,4.43
40.54,-1.19,-5.61,-1.19,-5.62,5.62,5.67,6.44,4.43,4.43,4.42
40.94,-1.14,-5.55,-1.13,-5.55,5.55,5.60,6.29,4.41,4.42,4.41
41.35,-1.07,-5.47,-1.08,-5.48,5.48,5.53,6.15,4.41,4.40,4.40
41.76,-1.02,-5.41,-1.02,-5.41,5.41,5.46,6.01,4.39,4.39,4.39
42.18,-0.96,-5.34,-0.96,-5.34,5.34,5.39,5.87,4.38,4.38,4.38
42.60,-0.90,-5.27,-0.91,-5.27,5.27,5.32,5.74,4.37,4.36,4.37
43.03,-0.84,-5.20,-0.85,-5.20,5.20,5.25,5.61,4.36,4.35,4.36
43.46,-0.80,-5.14,-0.80,-5.13,5.13,5.18,5.48,4.33,4.34,4.34
43.90,-0.76,-5.08,-0.74,-5.06,5.06,5.11,5.36,4.30,4.32,4.32
44.33,-0.71,-5.01,-0.69,-5.00,5.00,5.04,5.24,4.29,4.31,4.30
44.78,-0.63,-4.91,-0.63,-4.93,4.93,4.97,5.12,4.30,4.29,4.28
45.23,-0.58,-4.84,-0.58,-4.86,4.86,4.90,5.01,4.28,4.28,4.26
45.68,-0.53,-4.78,-0.53,-4.79,4.79,4.84,4.91,4.26,4.26,4.25
46.13,-0.47,-4.70,-0.48,-4.71,4.71,4.77,4.80,4.24,4.24,4.23
46.60,-0.41,-4.63,-0.42,-4.64,4.64,4.70,4.70,4.23,4.22,4.22
47.06,-0.37,-4.57,-0.37,-4.57,4.57,4.63,4.61,4.20,4.20,4.20
47.53,-0.32,-4.50,-0.32,-4.50,4.50,4.57,4.51,4.18,4.18,4.18
48.01,-0.27,-4.44,-0.27,-4.43,4.43,4.50,4.42,4.15,4.15,4.17
48.49,-0.23,-4.37,-0.22,-4.35,4.35,4.43,4.33,4.12,4.13,4.14
48.97,-0.17,-4.28,-0.17,-4.28,4.28,4.36,4.25,4.11,4.11,4.11
49.46,-0.12,-4.20,-0.12,-4.21,4.21,4.30,4.17,4.09,4.09,4.08
49.96,-0.08,-4.13,-0.08,-4.14,4.14,4.23,4.09,4.06,4.06,4.05
50.46,-0.02,-4.05,-0.03,-4.07,4.07,4.17,4.01,4.05,4.04,4.03
50.96,0.02,-3.99,0.02,-4.00,4.00,4.10,3.94,4.02,4.01,4.01
51.47,0.06,-3.92,0.06,-3.93,3.93,4.04,3.87,3.99,3.99,3.98
51.99,0.11,-3.85,0.11,-3.86,3.86,3.97,3.80,3.97,3.96,3.96
52.51,0.15,-3.79,0.16,-3.78,3.78,3.91,3.73,3.93,3.94,3.94
53.03,0.20,-3.72,0.20,-3.71,3.71,3.84,3.67,3.91,3.92,3.92
53.56,0.25,-3.64,0.25,-3.64,3.64,3.78,3.60,3.89,3.89,3.89
54.10,0.30,-3.57,0.30,-3.57,3.57,3.71,3.54,3.87,3.87,3.87
54.64,0.33,-3.51,0.34,-3.50,3.50,3.65,3.48,3.83,3.85,3.84
55.18,0.39,-3.43,0.39,-3.43,3.43,3.59,3.42,3.82,3.82,3.82
55.74,0.45,-3.34,0.44,-3.36,3.36,3.53,3.36,3.81,3.80,3.79
56.29,0.48,-3.29,0.49,-3.29,3.29,3.46,3.31,3.77,3.78,3.77
56.86,0.53,-3.22,0.53,-3.22,3.22,3.40,3.25,3.75,3.75,3.75
57.42,0.58,-3.14,0.58,-3.15,3.15,3.34,3.19,3.73,3.73,3.72
58.00,0.63,-3.07,0.63,-3.07,3.07,3.28,3.14,3.70,3.71,3.70
58.58,0.67,-3.01,0.68,-3.00,3.00,3.21,3.08,3.67,3.68,3.68
59.16,0.72,-2.94,0.73,-2.92,2.92,3.15,3.02,3.65,3.65,3.66
59.76,0.78,-2.86,0.77,-2.85,2.85,3.09,2.97,3.63,3.63,3.64
60.35,0.82,-2.79,0.82,-2.78,2.78,3.03,2.91,3.60,3.60,3.61
60.96,0.87,-2.71,0.86,-2.71,2.71,2.97,2.85,3.58,3.57,3.58
61.57,0.90,-2.64,0.90,-2.65,2.65,2.91,2.79,3.55,3.55,3.54
62.18,0.95,-2.56,0.94,-2.58,2.58,2.85,2.73,3.53,3.52,3.51
62.80,0.99,-2.49,0.97,-2.52,2.52,2.79,2.67,3.51,3.49,3.48
63.43,1.02,-2.43,1.00,-2.46,2.46,2.73,2.61,3.48,3.46,3.45
64.07,1.04,-2.38,1.03,-2.40,2.40,2.67,2.55,3.44,3.43,3.42
64.71,1.07,-2.33,1.06,-2.34,2.34,2.61,2.49,3.41,3.40,3.40
65.35,1.08,-2.29,1.08,-2.29,2.29,2.55,2.43,3.37,3.37,3.37
66.01,1.10,-2.24,1.10,-2.24,2.24,2.49,2.36,3.34,3.34,3.34
66.67,1.13,-2.18,1.13,-2.18,2.18,2.43,2.30,3.31,3.31,3.31
67.33,1.13,-2.15,1.15,-2.13,2.13,2.38,2.23,3.26,3.28,3.28
68.01,1.17,-2.08,1.18,-2.07,2.07,2.32,2.17,3.24,3.25,3.25
68.69,1.19,-2.03,1.21,-2.01,2.01,2.26,2.10,3.20,3.22,3.22
69.37,1.21,-1.98,1.24,-1.95,1.95,2.20,2.03,3.16,3.19,3.19
70.07,1.25,-1.91,1.27,-1.89,1.89,2.14,1.97,3.14,3.16,3.16
70.77,1.28,-1.85,1.31,-1.82,1.82,2.09,1.90,3.10,3.13,3.13
71.48,1.33,-1.77,1.34,-1.76,1.76,2.03,1.83,3.09,3.10,3.10
72.19,1.36,-1.70,1.37,-1.69,1.69,1.97,1.76,3.05,3.06,3.06
72.91,1.41,-1.62,1.40,-1.63,1.63,1.91,1.69,3.04,3.03,3.03
73.64,1.43,-1.56,1.42,-1.58,1.58,1.86,1.62,3.01,3.00,2.99
74.38,1.47,-1.49,1.44,-1.53,1.53,1.80,1.55,3.00,2.96,2.96
75.12,1.47,-1.45,1.44,-1.49,1.49,1.74,1.48,2.96,2.93,2.92
75.87,1.47,-1.42,1.44,-1.46,1.46,1.68,1.41,2.93,2.90,2.89
76.63,1.47,-1.39,1.43,-1.43,1.43,1.63,1.34,2.90,2.86,2.86
77.40,1.46,-1.37,1.41,-1.42,1.42,1.57,1.27,2.88,2.83,2.83
78.17,1.43,-1.36,1.38,-1.41,1.41,1.51,1.20,2.84,2.80,2.79
78.95,1.38,-1.38,1.35,-1.41,1.41,1.46,1.13,2.79,2.76,2.76
79.74,1.32,-1.41,1.32,-1.41,1.41,1.40,1.06,2.73,2.73,2.73
80.54,1.28,-1.41,1.28,-1.41,1.41,1.34,0.99,2.69,2.69,2.69
81.35,1.22,-1.44,1.25,-1.41,1.41,1.29,0.93,2.63,2.66,2.66
82.16,1.16,-1.46,1.22,-1.40,1.40,1.23,0.86,2.56,2.63,2.62
82.98,1.13,-1.46,1.20,-1.39,1.39,1.17,0.79,2.52,2.59,2.59
83.81,1.12,-1.43,1.19,-1.37,1.37,1.12,0.72,2.49,2.55,2.55
84.65,1.10,-1.41,1.17,-1.34,1.34,1.06,0.65,2.44,2.52,2.51
85.50,1.13,-1.35,1.16,-1.32,1.32,1.00,0.58,2.44,2.48,2.48
86.35,1.14,-1.30,1.16,-1.28,1.28,0.95,0.52,2.42,2.44,2.44
87.22,1.17,-1.23,1.15,-1.25,1.25,0.89,0.45,2.42,2.40,2.40
88.09,1.20,-1.16,1.15,-1.21,1.21,0.83,0.38,2.41,2.36,2.36
88.97,1.21,-1.11,1.14,-1.18,1.18,0.78,0.31,2.39,2.32,2.32
89.86,1.21,-1.07,1.12,-1.15,1.15,0.72,0.25,2.36,2.28,2.28
90.76,1.18,-1.05,1.11,-1.13,1.13,0.66,0.18,2.31,2.24,2.23
91.66,1.15,-1.04,1.09,-1.11,1.11,0.60,0.11,2.26,2.19,2.19
92.58,1.10,-1.04,1.06,-1.09,1.09,0.55,0.05,2.19,2.15,2.14
93.51,1.06,-1.04,1.04,-1.07,1.07,0.49,-0.02,2.13,2.10,2.10
94.44,1.02,-1.04,1.01,-1.04,1.04,0.43,-0.09,2.06,2.06,2.06
95.39,0.97,-1.04,0.99,-1.01,1.01,0.37,-0.16,1.99,2.01,2.01
96.34,0.91,-1.05,0.99,-0.98,0.98,0.31,-0.22,1.89,1.96,1.96
97.30,0.91,-1.00,0.99,-0.93,0.93,0.26,-0.29,1.84,1.92,1.91
98.28,0.91,-0.95,1.00,-0.87,0.87,0.20,-0.35,1.78,1.87,1.86
99.26,0.95,-0.87,1.03,-0.79,0.79,0.14,-0.42,1.74,1.82,1.82
100.25,1.03,-0.74,1.07,-0.70,0.70,0.08,-0.49,1.73,1.77,1.77
101.25,1.10,-0.62,1.13,-0.59,0.59,0.02,-0.55,1.69,1.73,1.72
102.27,1.20,-0.47,1.21,-0.47,0.47,-0.04,-0.62,1.67,1.68,1.67
103.29,1.30,-0.32,1.29,-0.34,0.34,-0.10,-0.68,1.64,1.63,1.62
104.32,1.40,-0.18,1.38,-0.20,0.20,-0.16,-0.74,1.60,1.58,1.58
105.37,1.51,-0.02,1.48,-0.05,0.05,-0.22,-0.81,1.56,1.53,1.53
106.42,1.61,0.13,1.58,0.10,-0.10,-0.28,-0.87,1.51,1.48,1.48
107.48,1.71,0.28,1.68,0.25,-0.25,-0.34,-0.93,1.46,1.43,1.43
108.56,1.79,0.41,1.77,0.39,-0.39,-0.40,-0.99,1.40,1.38,1.38
109.64,1.90,0.57,1.86,0.53,-0.53,-0.47,-1.05,1.37,1.33,1.33
110.74,1.96,0.68,1.94,0.67,-0.67,-0.53,-1.11,1.29,1.28,1.28
111.85,2.03,0.80,2.01,0.79,-0.79,-0.59,-1.17,1.24,1.23,1.23
112.97,2.10,0.93,2.08,0.90,-0.90,-0.65,-1.22,1.20,1.17,1.17
114.10,2.14,1.02,2.13,1.01,-1.01,-0.72,-1.28,1.13,1.12,1.12
115.24,2.18,1.12,2.18,1.11,-1.11,-0.78,-1.33,1.07,1.07,1.06
116.39,2.23,1.22,2.22,1.21,-1.21,-0.84,-1.38,1.02,1.01,1.01
117.55,2.25,1.30,2.25,1.29,-1.29,-0.91,-1.43,0.96,0.96,0.95
118.73,2.29,1.39,2.28,1.37,-1.37,-0.97,-1.47,0.92,0.91,0.90
119.92,2.30,1.45,2.31,1.45,-1.45,-1.04,-1.51,0.85,0.86,0.85
121.12,2.34,1.54,2.33,1.52,-1.52,-1.10,-1.55,0.82,0.80,0.80
122.33,2.34,1.59,2.34,1.59,-1.59,-1.17,-1.59,0.75,0.75,0.75
123.55,2.34,1.64,2.36,1.66,-1.66,-1.23,-1.63,0.68,0.70,0.70
124.79,2.38,1.73,2.37,1.72,-1.72,-1.30,-1.66,0.66,0.65,0.65
126.03,2.38,1.78,2.38,1.79,-1.79,-1.36,-1.69,0.59,0.60,0.60
127.29,2.38,1.83,2.39,1.85,-1.85,-1.43,-1.72,0.53,0.55,0.55
128.57,2.38,1.89,2.41,1.91,-1.91,-1.50,-1.75,0.47,0.50,0.49
129.85,2.43,1.99,2.42,1.97,-1.97,-1.56,-1.77,0.46,0.45,0.44
131.15,2.43,2.04,2.43,2.03,-2.03,-1.63,-1.80,0.40,0.40,0.39
132.46,2.43,2.09,2.44,2.10,-2.10,-1.70,-1.82,0.34,0.35,0.34
133.79,2.47,2.17,2.46,2.16,-2.16,-1.76,-1.83,0.31,0.30,0.30
135.12,2.47,2.22,2.47,2.22,-2.22,-1.83,-1.85,0.25,0.25,0.25
136.48,2.47,2.26,2.49,2.28,-2.28,-1.90,-1.87,0.19,0.21,0.21
137.84,2.51,2.35,2.50,2.34,-2.34,-1.97,-1.88,0.17,0.17,0.16
139.22,2.51,2.40,2.52,2.39,-2.39,-2.03,-1.89,0.12,0.12,0.11
140.61,2.52,2.45,2.53,2.45,-2.45,-2.10,-1.90,0.07,0.08,0.07
142.02,2.56,2.52,2.54,2.50,-2.50,-2.17,-1.92,0.06,0.04,0.04
143.44,2.56,2.56,2.56,2.56,-2.56,-2.23,-1.93,0.00,0.00,0.00
144.87,2.56,2.60,2.57,2.61,-2.61,-2.30,-1.94,-0.05,-0.04,-0.04
146.32,2.59,2.67,2.58,2.66,-2.66,-2.37,-1.95,-0.07,-0.08,-0.08
147.78,2.60,2.71,2.59,2.71,-2.71,-2.43,-1.96,-0.11,-0.12,-0.11
149.26,2.60,2.75,2.60,2.75,-2.75,-2.50,-1.97,-0.15,-0.15,-0.15
150.75,2.60,2.79,2.61,2.80,-2.80,-2.56,-1.98,-0.20,-0.19,-0.19
152.26,2.60,2.83,2.61,2.84,-2.84,-2.62,-1.99,-0.24,-0.23,-0.23
153.78,2.62,2.89,2.62,2.88,-2.88,-2.69,-2.00,-0.26,-0.27,-0.27
155.32,2.62,2.93,2.62,2.92,-2.92,-2.75,-2.01,-0.30,-0.31,-0.31
156.88,2.62,2.97,2.62,2.96,-2.96,-2.81,-2.03,-0.34,-0.35,-0.35
158.44,2.62,3.01,2.61,3.00,-3.00,-2.87,-2.04,-0.38,-0.39,-0.39
160.03,2.60,3.03,2.60,3.03,-3.03,-2.93,-2.06,-0.43,-0.42,-0.43
161.63,2.60,3.07,2.60,3.06,-3.06,-2.99,-2.08,-0.46,-0.46,-0.47
163.24,2.60,3.11,2.59,3.09,-3.09,-3.04,-2.10,-0.49,-0.50,-0.51
164.88,2.59,3.13,2.57,3.12,-3.12,-3.10,-2.12,-0.53,-0.54,-0.54
166.53,2.56,3.14,2.56,3.14,-3.14,-3.15,-2.14,-0.58,-0.58,-0.58
168.19,2.56,3.18,2.55,3.17,-3.17,-3.20,-2.17,-0.61,-0.62,-0.62
169.87,2.51,3.17,2.53,3.19,-3.19,-3.25,-2.19,-0.68,-0.66,-0.66
171.57,2.51,3.21,2.52,3.22,-3.22,-3.30,-2.22,-0.71,-0.70,-0.70
173.29,2.51,3.24,2.51,3.24,-3.24,-3.34,-2.25,-0.73,-0.73,-0.73
175.02,2.47,3.24,2.49,3.26,-3.26,-3.39,-2.28,-0.79,-0.77,-0.77
176.77,2.47,3.28,2.48,3.29,-3.29,-3.43,-2.31,-0.82,-0.81,-0.81
178.54,2.47,3.32,2.46,3.31,-3.31,-3.46,-2.35,-0.84,-0.85,-0.85
180.32,2.45,3.34,2.45,3.33,-3.33,-3.50,-2.39,-0.88,-0.88,-0.89
182.13,2.43,3.35,2.44,3.36,-3.36,-3.53,-2.43,-0.93,-0.92,-0.92
183.95,2.43,3.39,2.43,3.38,-3.38,-3.56,-2.47,-0.95,-0.96,-0.96
185.79,2.43,3.42,2.42,3.41,-3.41,-3.59,-2.51,-0.98,-0.99,-0.99
187.65,2.43,3.46,2.41,3.43,-3.43,-3.62,-2.56,-1.00,-1.02,-1.03
189.52,2.38,3.44,2.40,3.46,-3.46,-3.64,-2.60,-1.08,-1.06,-1.06
191.42,2.38,3.47,2.39,3.48,-3.48,-3.66,-2.65,-1.10,-1.09,-1.09
193.33,2.38,3.50,2.38,3.50,-3.50,-3.68,-2.70,-1.12,-1.12,-1.12
195.27,2.38,3.53,2.37,3.52,-3.52,-3.69,-2.75,-1.14,-1.15,-1.15
197.22,2.34,3.52,2.36,3.53,-3.53,-3.70,-2.80,-1.19,-1.18,-1.18
199.19,2.34,3.55,2.34,3.54,-3.54,-3.71,-2.85,-1.20,-1.20,-1.21
201.18,2.34,3.57,2.33,3.56,-3.56,-3.71,-2.91,-1.22,-1.22,-1.23
203.19,2.33,3.58,2.32,3.56,-3.56,-3.72,-2.96,-1.24,-1.25,-1.25
205.23,2.30,3.57,2.31,3.57,-3.57,-3.71,-3.02,-1.27,-1.26,-1.27
207.28,2.30,3.58,2.29,3.57,-3.57,-3.71,-3.07,-1.27,-1.28,-1.28
209.35,2.28,3.58,2.27,3.57,-3.57,-3.70,-3.13,-1.29,-1.30,-1.30
211.44,2.25,3.57,2.26,3.57,-3.57,-3.69,-3.19,-1.32,-1.31,-1.32
213.56,2.25,3.58,2.24,3.56,-3.56,-3.68,-3.24,-1.31,-1.32,-1.33
215.69,2.21,3.54,2.22,3.55,-3.55,-3.67,-3.29,-1.34,-1.33,-1.33
217.85,2.21,3.55,2.20,3.54,-3.54,-3.65,-3.35,-1.33,-1.34,-1.34
220.03,2.17,3.52,2.18,3.53,-3.53,-3.63,-3.40,-1.36,-1.35,-1.35
222.23,2.17,3.53,2.16,3.51,-3.51,-3.61,-3.45,-1.34,-1.35,-1.36
224.45,2.12,3.48,2.14,3.49,-3.49,-3.58,-3.49,-1.37,-1.35,-1.36
226.70,2.12,3.48,2.12,3.47,-3.47,-3.56,-3.53,-1.35,-1.36,-1.36
228.96,2.08,3.44,2.10,3.45,-3.45,-3.53,-3.57,-1.37,-1.36,-1.36
231.25,2.08,3.43,2.08,3.43,-3.43,-3.50,-3.61,-1.35,-1.35,-1.35
233.57,2.04,3.39,2.06,3.40,-3.40,-3.46,-3.64,-1.36,-1.35,-1.35
235.90,2.04,3.39,2.04,3.38,-3.38,-3.43,-3.67,-1.34,-1.34,-1.35
238.26,2.03,3.37,2.02,3.35,-3.35,-3.39,-3.70,-1.32,-1.34,-1.34
240.64,1.99,3.32,2.00,3.33,-3.33,-3.36,-3.71,-1.34,-1.33,-1.33
243.05,1.99,3.31,1.98,3.30,-3.30,-3.32,-3.73,-1.31,-1.32,-1.32
245.48,1.96,3.27,1.96,3.27,-3.27,-3.28,-3.73,-1.31,-1.31,-1.31
247.93,1.95,3.25,1.94,3.24,-3.24,-3.24,-3.74,-1.29,-1.30,-1.30
250.41,1.91,3.20,1.92,3.21,-3.21,-3.20,-3.73,-1.30,-1.28,-1.29
252.92,1.91,3.18,1.90,3.17,-3.17,-3.15,-3.73,-1.26,-1.27,-1.27
255.45,1.88,3.13,1.88,3.14,-3.14,-3.11,-3.71,-1.26,-1.25,-1.25
258.00,1.86,3.10,1.86,3.10,-3.10,-3.07,-3.69,-1.24,-1.23,-1.24
260.58,1.85,3.07,1.84,3.06,-3.06,-3.02,-3.67,-1.21,-1.22,-1.22
263.19,1.82,3.02,1.82,3.02,-3.02,-2.98,-3.64,-1.20,-1.20,-1.20
265.82,1.81,2.99,1.80,2.98,-2.98,-2.93,-3.60,-1.17,-1.18,-1.18
268.48,1.78,2.94,1.79,2.94,-2.94,-2.88,-3.56,-1.16,-1.16,-1.16
271.16,1.78,2.92,1.76,2.90,-2.90,-2.84,-3.52,-1.12,-1.14,-1.14
273.87,1.73,2.85,1.75,2.87,-2.87,-2.79,-3.47,-1.14,-1.12,-1.12
276.61,1.73,2.83,1.73,2.83,-2.83,-2.75,-3.42,-1.10,-1.10,-1.10
279.38,1.70,2.78,1.71,2.79,-2.79,-2.70,-3.36,-1.09,-1.08,-1.08
282.17,1.69,2.75,1.69,2.75,-2.75,-2.65,-3.30,-1.06,-1.06,-1.06
284.99,1.66,2.70,1.67,2.71,-2.71,-2.61,-3.24,-1.05,-1.04,-1.04
287.84,1.65,2.67,1.65,2.67,-2.67,-2.56,-3.18,-1.02,-1.02,-1.02
290.72,1.65,2.65,1.63,2.63,-2.63,-2.51,-3.12,-0.98,-1.00,-1.00
293.63,1.60,2.58,1.61,2.59,-2.59,-2.47,-3.05,-0.99,-0.98,-0.98
296.57,1.60,2.56,1.59,2.54,-2.54,-2.42,-2.99,-0.94,-0.95,-0.96
299.53,1.56,2.50,1.57,2.50,-2.50,-2.38,-2.92,-0.94,-0.93,-0.94
302.53,1.56,2.48,1.55,2.46,-2.46,-2.33,-2.85,-0.90,-0.91,-0.92
305.55,1.52,2.41,1.53,2.42,-2.42,-2.29,-2.78,-0.90,-0.89,-0.89
308.61,1.52,2.39,1.52,2.38,-2.38,-2.24,-2.71,-0.86,-0.86,-0.87
311.69,1.50,2.34,1.50,2.34,-2.34,-2.20,-2.65,-0.84,-0.84,-0.84
314.81,1.47,2.28,1.48,2.30,-2.30,-2.16,-2.58,-0.83,-0.82,-0.81
317.96,1.47,2.26,1.46,2.25,-2.25,-2.11,-2.51,-0.78,-0.79,-0.79
321.14,1.43,2.20,1.44,2.21,-2.21,-2.07,-2.45,-0.78,-0.77,-0.77
324.35,1.43,2.18,1.42,2.17,-2.17,-2.03,-2.38,-0.74,-0.75,-0.75
327.59,1.40,2.13,1.41,2.13,-2.13,-1.99,-2.32,-0.73,-0.73,-0.73
330.87,1.39,2.10,1.39,2.09,-2.09,-1.95,-2.25,-0.70,-0.71,-0.71
334.18,1.38,2.07,1.37,2.05,-2.05,-1.91,-2.19,-0.67,-0.68,-0.69
337.52,1.34,2.01,1.35,2.01,-2.01,-1.87,-2.13,-0.67,-0.66,-0.67
340.90,1.34,1.99,1.33,1.97,-1.97,-1.83,-2.07,-0.63,-0.65,-0.65
344.30,1.30,1.93,1.31,1.93,-1.93,-1.79,-2.02,-0.63,-0.63,-0.63
347.75,1.30,1.91,1.29,1.89,-1.89,-1.75,-1.96,-0.59,-0.61,-0.61
351.23,1.26,1.85,1.27,1.86,-1.86,-1.72,-1.91,-0.60,-0.59,-0.59
354.74,1.26,1.83,1.25,1.82,-1.82,-1.68,-1.85,-0.56,-0.57,-0.57
358.28,1.21,1.77,1.23,1.78,-1.78,-1.64,-1.80,-0.57,-0.55,-0.56
361.87,1.21,1.75,1.21,1.74,-1.74,-1.61,-1.75,-0.53,-0.54,-0.54
365.49,1.17,1.69,1.19,1.71,-1.71,-1.57,-1.71,-0.54,-0.52,-0.52
369.14,1.17,1.68,1.17,1.67,-1.67,-1.54,-1.66,-0.50,-0.50,-0.51
372.83,1.13,1.62,1.15,1.64,-1.64,-1.51,-1.61,-0.51,-0.49,-0.49
376.56,1.13,1.61,1.13,1.60,-1.60,-1.47,-1.57,-0.47,-0.48,-0.48
380.33,1.13,1.59,1.11,1.57,-1.57,-1.44,-1.53,-0.44,-0.46,-0.46
384.13,1.08,1.53,1.09,1.54,-1.54,-1.41,-1.48,-0.46,-0.45,-0.45
387.97,1.08,1.52,1.07,1.51,-1.51,-1.38,-1.44,-0.43,-0.44,-0.44
391.85,1.07,1.50,1.05,1.47,-1.47,-1.35,-1.41,-0.40,-0.42,-0.43
395.77,1.04,1.45,1.03,1.44,-1.44,-1.32,-1.37,-0.40,-0.41,-0.41
399.73,1.01,1.41,1.01,1.41,-1.41,-1.29,-1.33,-0.40,-0.40,-0.40
403.72,1.00,1.39,0.98,1.37,-1.37,-1.26,-1.30,-0.37,-0.39,-0.39
407.76,0.98,1.36,0.96,1.34,-1.34,-1.23,-1.26,-0.36,-0.38,-0.38
411.84,0.95,1.32,0.94,1.31,-1.31,-1.20,-1.23,-0.36,-0.37,-0.37
415.96,0.95,1.31,0.93,1.29,-1.29,-1.17,-1.20,-0.34,-0.36,-0.36
420.12,0.91,1.26,0.93,1.28,-1.28,-1.15,-1.17,-0.37,-0.35,-0.35
424.32,0.91,1.25,0.94,1.28,-1.28,-1.12,-1.14,-0.37,-0.34,-0.34
428.56,0.91,1.24,0.96,1.28,-1.28,-1.10,-1.11,-0.37,-0.33,-0.33
432.85,0.87,1.19,0.97,1.29,-1.29,-1.07,-1.08,-0.42,-0.31,-0.32
437.18,0.90,1.21,1.00,1.30,-1.30,-1.05,-1.05,-0.40,-0.30,-0.31
441.55,0.95,1.24,1.02,1.31,-1.31,-1.02,-1.03,-0.36,-0.29,-0.29
445.96,1.01,1.29,1.04,1.32,-1.32,-1.00,-1.00,-0.31,-0.28,-0.28
450.42,1.11,1.38,1.06,1.32,-1.32,-0.97,-0.97,-0.21,-0.27,-0.27
454.93,1.17,1.42,1.07,1.32,-1.32,-0.95,-0.95,-0.15,-0.25,-0.25
459.48,1.21,1.45,1.08,1.32,-1.32,-0.93,-0.92,-0.11,-0.24,-0.24
464.07,1.19,1.42,1.09,1.31,-1.31,-0.91,-0.90,-0.12,-0.22,-0.23
468.71,1.15,1.36,1.09,1.30,-1.30,-0.88,-0.87,-0.15,-0.21,-0.21
473.40,1.10,1.30,1.08,1.27,-1.27,-0.86,-0.85,-0.17,-0.19,-0.20
478.13,1.06,1.24,1.07,1.25,-1.25,-0.84,-0.83,-0.19,-0.18,-0.18
482.91,1.01,1.18,1.05,1.21,-1.21,-0.82,-0.80,-0.20,-0.16,-0.17
487.74,0.96,1.11,1.02,1.16,-1.16,-0.80,-0.78,-0.20,-0.15,-0.15
492.62,0.93,1.06,0.98,1.11,-1.11,-0.78,-0.76,-0.18,-0.13,-0.13
497.55,0.91,1.03,0.94,1.06,-1.06,-0.76,-0.73,-0.15,-0.12,-0.12
502.52,0.87,0.97,0.90,1.00,-1.00,-0.74,-0.71,-0.13,-0.10,-0.10
507.55,0.87,0.96,0.86,0.94,-0.94,-0.72,-0.69,-0.07,-0.08,-0.09
