frequency,raw,error,smoothed,error_smoothed,equalization,parametric_eq,fixed_band_eq,equalized_raw,equalized_smoothed,target
20.00,-5.92,-10.51,-5.93,-10.53,10.55,10.34,3.77,4.63,4.61,4.59
20.20,-5.91,-10.53,-5.89,-10.51,10.51,10.30,3.87,4.60,4.62,4.62
20.40,-5.84,-10.49,-5.84,-10.49,10.48,10.25,3.98,4.64,4.64,4.65
20.61,-5.77,-10.44,-5.77,-10.45,10.43,10.21,4.09,4.66,4.66,4.67
20.81,-5.69,-10.39,-5.69,-10.40,10.39,10.16,4.20,4.70,4.69,4.70
21.02,-5.62,-10.35,-5.62,-10.34,10.34,10.11,4.31,4.72,4.72,4.73
21.23,-5.54,-10.28,-5.54,-10.29,10.28,10.06,4.43,4.74,4.74,4.74
21.44,-5.47,-10.22,-5.47,-10.22,10.23,10.01,4.55,4.76,4.76,4.75
21.66,-5.40,-10.16,-5.40,-10.16,10.16,9.96,4.68,4.76,4.76,4.76
21.87,-5.32,-10.08,-5.33,-10.09,10.09,9.91,4.80,4.77,4.77,4.76
22.09,-5.26,-10.03,-5.25,-10.02,10.02,9.85,4.94,4.77,4.77,4.77
22.31,-5.18,-9.95,-5.18,-9.95,9.95,9.79,5.07,4.78,4.77,4.77
22.54,-5.11,-9.88,-5.11,-9.89,9.88,9.74,5.21,4.77,4.77,4.77
22.76,-5.04,-9.81,-5.04,-9.81,9.81,9.68,5.35,4.77,4.77,4.77
22.99,-4.98,-9.74,-4.97,-9.74,9.74,9.62,5.50,4.76,4.77,4.76
23.22,-4.90,-9.66,-4.90,-9.67,9.67,9.56,5.64,4.77,4.77,4.76
23.45,-4.83,-9.59,-4.83,-9.59,9.59,9.49,5.80,4.77,4.76,4.76
23.69,-4.76,-9.52,-4.76,-9.52,9.52,9.43,5.95,4.76,4.76,4.76
23.92,-4.69,-9.45,-4.69,-9.45,9.45,9.37,6.11,4.76,4.76,4.76
24.16,-4.61,-9.37,-4.61,-9.38,9.37,9.30,6.27,4.76,4.76,4.76
24.40,-4.54,-9.30,-4.54,-9.30,9.30,9.24,6.44,4.76,4.76,4.76
24.65,-4.47,-9.22,-4.47,-9.22,9.23,9.17,6.60,4.75,4.76,4.75
24.89,-4.39,-9.14,-4.39,-9.15,9.15,9.10,6.78,4.76,4.76,4.75
25.14,-4.33,-9.08,-4.32,-9.08,9.08,9.03,6.95,4.75,4.76,4.75
25.39,-4.25,-9.00,-4.25,-9.01,9.01,8.96,7.12,4.76,4.75,4.75
25.65,-4.19,-8.94,-4.19,-8.94,8.93,8.90,7.30,4.74,4.75,4.75
25.91,-4.12,-8.86,-4.12,-8.87,8.86,8.83,7.48,4.74,4.74,4.74
26.16,-4.05,-8.79,-4.05,-8.79,8.79,8.75,7.65,4.74,4.74,4.74
26.43,-3.98,-8.72,-3.98,-8.72,8.72,8.68,7.83,4.74,4.75,4.74
26.69,-3.90,-8.64,-3.90,-8.65,8.65,8.61,8.01,4.75,4.75,4.74
26.96,-3.83,-8.57,-3.84,-8.58,8.58,8.54,8.18,4.74,4.74,4.74
27.23,-3.77,-8.50,-3.77,-8.50,8.50,8.47,8.36,4.73,4.73,4.73
27.50,-3.71,-8.44,-3.70,-8.43,8.43,8.40,8.53,4.72,4.73,4.73
27.77,-3.63,-8.35,-3.63,-8.36,8.36,8.32,8.69,4.73,4.72,4.72
28.05,-3.56,-8.28,-3.56,-8.28,8.28,8.25,8.85,4.72,4.72,4.72
28.33,-3.49,-8.20,-3.49,-8.21,8.21,8.18,9.00,4.72,4.72,4.71
28.62,-3.42,-8.13,-3.42,-8.14,8.14,8.10,9.14,4.71,4.71,4.71
28.90,-3.36,-8.07,-3.36,-8.07,8.06,8.03,9.27,4.70,4.71,4.71
29.19,-3.29,-7.99,-3.28,-7.99,7.99,7.95,9.40,4.70,4.71,4.70
29.48,-3.21,-7.91,-3.22,-7.92,7.92,7.88,9.50,4.71,4.70,4.70
29.78,-3.14,-7.83,-3.15,-7.84,7.85,7.80,9.60,4.71,4.70,4.69
30.08,-3.09,-7.78,-3.08,-7.77,7.78,7.73,9.68,4.69,4.69,4.69
30.38,-3.02,-7.70,-3.02,-7.71,7.70,7.65,9.74,4.68,4.68,4.68
30.68,-2.96,-7.64,-2.96,-7.64,7.63,7.58,9.79,4.67,4.67,4.68
30.99,-2.89,-7.56,-2.89,-7.56,7.56,7.50,9.81,4.67,4.67,4.67
31.30,-2.82,-7.48,-2.82,-7.49,7.49,7.43,9.82,4.67,4.67,4.66
31.61,-2.75,-7.41,-2.75,-7.41,7.42,7.35,9.81,4.67,4.66,4.66
31.93,-2.69,-7.34,-2.69,-7.34,7.34,7.28,9.79,4.65,4.66,4.65
32.24,-2.62,-7.26,-2.62,-7.27,7.27,7.20,9.74,4.65,4.65,4.64
32.57,-2.56,-7.20,-2.56,-7.20,7.20,7.13,9.68,4.64,4.64,4.64
32.89,-2.50,-7.13,-2.50,-7.13,7.13,7.05,9.60,4.63,4.63,4.63
33.22,-2.44,-7.06,-2.43,-7.06,7.06,6.98,9.51,4.62,4.62,4.62
33.55,-2.37,-6.99,-2.37,-6.99,6.99,6.90,9.41,4.62,4.61,4.62
33.89,-2.30,-6.91,-2.31,-6.92,6.91,6.83,9.29,4.61,4.61,4.61
34.23,-2.25,-6.85,-2.24,-6.84,6.84,6.75,9.16,4.59,4.60,4.60
34.57,-2.17,-6.76,-2.17,-6.77,6.77,6.68,9.02,4.60,4.59,4.59
34.92,-2.10,-6.68,-2.11,-6.69,6.69,6.61,8.88,4.59,4.58,4.58
35.27,-2.05,-6.62,-2.04,-6.62,6.62,6.53,8.72,4.57,4.58,4.57
35.62,-1.98,-6.54,-1.98,-6.54,6.55,6.46,8.57,4.57,4.56,4.56
35.97,-1.92,-6.47,-1.92,-6.47,6.47,6.38,8.40,4.55,4.55,4.55
36.33,-1.86,-6.40,-1.86,-6.40,6.40,6.31,8.24,4.54,4.54,4.54
36.70,-1.80,-6.33,-1.80,-6.33,6.33,6.24,8.07,4.53,4.53,4.53
37.06,-1.74,-6.26,-1.74,-6.26,6.26,6.16,7.90,4.52,4.52,4.52
37.43,-1.67,-6.18,-1.68,-6.19,6.19,6.09,7.74,4.52,4.51,4.51
37.81,-1.62,-6.12,-1.61,-6.12,6.11,6.02,7.57,4.49,4.50,4.50
38.19,-1.55,-6.04,-1.55,-6.05,6.04,5.94,7.40,4.49,4.49,4.49
38.57,-1.49,-5.97,-1.49,-5.97,5.97,5.87,7.23,4.48,4.48,4.48
38.95,-1.42,-5.89,-1.42,-5.89,5.90,5.80,7.07,4.48,4.47,4.47
39.34,-1.36,-5.81,-1.37,-5.82,5.83,5.73,6.91,4.47,4.46,4.45
39.74,-1.32,-5.76,-1.31,-5.75,5.75,5.65,6.75,4.43,4.45,4.44
40.14,-1.25,-5.68,-1.25,-5.69,5.68,5.58,6.59,4.43,4.43,4.43
40.54,-1.19,-5.61,-1.19,-5.62,5.61,5.51,6.44,4.42,4.42,4.42
40.94,-1.14,-5.55,-1.13,-5.55,5.55,5.44,6.29,4.41,4.41,4.41
41.35,-1.07,-5.47,-1.08,-5.48,5.48,5.37,6.14,4.41,4.40,4.40
41.76,-1.02,-5.41,-1.02,-5.41,5.41,5.30,6.00,4.39,4.39,4.39
42.18,-0.96,-5.34,-0.96,-5.34,5.34,5.23,5.86,4.38,4.39,4.38
42.60,-0.90,-5.27,-0.90,-5.27,5.28,5.16,5.73,4.38,4.38,4.37
43.03,-0.84,-5.20,-0.85,-5.21,5.21,5.09,5.60,4.37,4.36,4.36
43.46,-0.80,-5.14,-0.80,-5.15,5.14,5.02,5.47,4.34,4.34,4.34
43.90,-0.76,-5.08,-0.75,-5.08,5.07,4.95,5.34,4.31,4.31,4.32
44.33,-0.71,-5.01,-0.70,-5.00,5.00,4.88,5.22,4.29,4.30,4.30
44.78,-0.63,-4.91,-0.64,-4.93,4.92,4.81,5.11,4.29,4.28,4.28
45.23,-0.58,-4.84,-0.58,-4.85,4.85,4.75,5.00,4.27,4.27,4.26
45.68,-0.53,-4.78,-0.52,-4.77,4.78,4.68,4.89,4.25,4.26,4.25
46.13,-0.47,-4.70,-0.47,-4.71,4.71,4.61,4.78,4.24,4.24,4.23
46.60,-0.41,-4.63,-0.42,-4.64,4.64,4.54,4.68,4.23,4.22,4.22
47.06,-0.37,-4.57,-0.37,-4.57,4.57,4.48,4.58,4.20,4.21,4.20
47.53,-0.32,-4.50,-0.32,-4.51,4.50,4.41,4.48,4.18,4.18,4.18
48.01,-0.27,-4.44,-0.27,-4.44,4.43,4.34,4.39,4.16,4.16,4.17
48.49,-0.23,-4.37,-0.22,-4.36,4.36,4.28,4.30,4.13,4.13,4.14
48.97,-0.17,-4.28,-0.17,-4.29,4.28,4.21,4.22,4.11,4.11,4.11
49.46,-0.12,-4.20,-0.12,-4.21,4.21,4.14,4.13,4.09,4.09,4.08
49.96,-0.08,-4.13,-0.07,-4.13,4.14,4.08,4.05,4.06,4.07,4.05
50.46,-0.02,-4.05,-0.03,-4.06,4.07,4.01,3.98,4.04,4.04,4.03
50.96,0.02,-3.99,0.02,-3.99,3.99,3.95,3.90,4.01,4.01,4.01
51.47,0.06,-3.92,0.06,-3.92,3.92,3.89,3.83,3.98,3.99,3.98
51.99,0.11,-3.85,0.11,-3.86,3.85,3.82,3.76,3.96,3.96,3.96
52.51,0.15,-3.79,0.15,-3.79,3.78,3.76,3.69,3.93,3.94,3.94
53.03,0.20,-3.72,0.20,-3.72,3.72,3.69,3.62,3.92,3.92,3.92
53.56,0.25,-3.64,0.25,-3.65,3.65,3.63,3.56,3.90,3.89,3.89
54.10,0.30,-3.57,0.29,-3.58,3.58,3.57,3.49,3.87,3.87,3.87
54.64,0.33,-3.51,0.34,-3.50,3.50,3.51,3.43,3.83,3.85,3.84
55.18,0.39,-3.43,0.39,-3.43,3.43,3.44,3.37,3.82,3.82,3.82
55.74,0.45,-3.34,0.44,-3.36,3.36,3.38,3.31,3.81,3.80,3.79
56.29,0.48,-3.29,0.49,-3.29,3.29,3.32,3.25,3.77,3.78,3.77
56.86,0.53,-3.22,0.53,-3.22,3.22,3.26,3.19,3.75,3.75,3.75
57.42,0.58,-3.14,0.58,-3.15,3.15,3.20,3.13,3.73,3.73,3.72
58.00,0.63,-3.07,0.63,-3.08,3.08,3.14,3.07,3.71,3.70,3.70
58.58,0.67,-3.01,0.67,-3.01,3.01,3.08,3.02,3.68,3.68,3.68
59.16,0.72,-2.94,0.72,-2.94,2.93,3.02,2.96,3.65,3.66,3.66
59.76,0.78,-2.86,0.77,-2.87,2.86,2.96,2.90,3.64,3.63,3.64
60.35,0.82,-2.79,0.82,-2.79,2.79,2.90,2.84,3.61,3.61,3.61
60.96,0.87,-2.71,0.87,-2.71,2.71,2.84,2.78,3.58,3.58,3.58
61.57,0.90,-2.64,0.91,-2.64,2.64,2.78,2.72,3.54,3.55,3.54
62.18,0.95,-2.56,0.95,-2.56,2.57,2.72,2.66,3.52,3.52,3.51
62.80,0.99,-2.49,0.99,-2.50,2.51,2.66,2.60,3.50,3.49,3.48
63.43,1.02,-2.43,1.02,-2.43,2.44,2.60,2.54,3.46,3.46,3.45
64.07,1.04,-2.38,1.04,-2.38,2.39,2.54,2.48,3.43,3.43,3.42
64.71,1.07,-2.33,1.06,-2.34,2.33,2.48,2.42,3.40,3.40,3.40
65.35,1.08,-2.29,1.09,-2.29,2.28,2.43,2.36,3.36,3.37,3.37
66.01,1.10,-2.24,1.10,-2.24,2.24,2.37,2.29,3.34,3.34,3.34
66.67,1.13,-2.18,1.12,-2.19,2.19,2.31,2.23,3.32,3.31,3.31
67.33,1.13,-2.15,1.14,-2.14,2.14,2.25,2.16,3.27,3.28,3.28
68.01,1.17,-2.08,1.16,-2.09,2.09,2.20,2.10,3.26,3.25,3.25
68.69,1.19,-2.03,1.19,-2.04,2.03,2.14,2.03,3.22,3.22,3.22
69.37,1.21,-1.98,1.22,-1.98,1.97,2.08,1.96,3.18,3.19,3.19
70.07,1.25,-1.91,1.25,-1.92,1.91,2.02,1.89,3.16,3.15,3.16
70.77,1.28,-1.85,1.28,-1.85,1.84,1.97,1.83,3.12,3.12,3.13
71.48,1.33,-1.77,1.33,-1.77,1.77,1.91,1.76,3.10,3.09,3.10
72.19,1.36,-1.70,1.36,-1.70,1.70,1.85,1.69,3.06,3.06,3.06
72.91,1.41,-1.62,1.41,-1.63,1.63,1.80,1.62,3.04,3.03,3.03
73.64,1.43,-1.56,1.44,-1.56,1.57,1.74,1.55,3.00,3.00,2.99
74.38,1.47,-1.49,1.46,-1.50,1.51,1.69,1.48,2.98,2.97,2.96
75.12,1.47,-1.45,1.47,-1.45,1.46,1.63,1.41,2.93,2.93,2.92
75.87,1.47,-1.42,1.48,-1.42,1.42,1.57,1.35,2.89,2.90,2.89
76.63,1.47,-1.39,1.47,-1.39,1.40,1.52,1.28,2.87,2.87,2.86
77.40,1.46,-1.37,1.46,-1.37,1.39,1.46,1.21,2.85,2.84,2.83
78.17,1.43,-1.36,1.42,-1.37,1.38,1.41,1.14,2.81,2.81,2.79
78.95,1.38,-1.38,1.38,-1.38,1.39,1.35,1.07,2.77,2.77,2.76
79.74,1.32,-1.41,1.33,-1.40,1.41,1.30,1.00,2.73,2.74,2.73
80.54,1.28,-1.41,1.27,-1.42,1.42,1.24,0.93,2.70,2.69,2.69
81.35,1.22,-1.44,1.22,-1.44,1.44,1.19,0.87,2.66,2.65,2.66
82.16,1.16,-1.46,1.17,-1.45,1.44,1.13,0.80,2.60,2.61,2.62
82.98,1.13,-1.46,1.13,-1.46,1.44,1.07,0.73,2.57,2.57,2.59
83.81,1.12,-1.43,1.11,-1.44,1.42,1.02,0.66,2.54,2.53,2.55
84.65,1.10,-1.41,1.11,-1.40,1.39,0.96,0.59,2.49,2.50,2.51
85.50,1.13,-1.35,1.12,-1.36,1.34,0.91,0.53,2.47,2.47,2.48
86.35,1.14,-1.30,1.14,-1.30,1.29,0.85,0.46,2.43,2.44,2.44
87.22,1.17,-1.23,1.17,-1.23,1.24,0.80,0.39,2.41,2.41,2.40
88.09,1.20,-1.16,1.20,-1.17,1.18,0.74,0.32,2.38,2.38,2.36
88.97,1.21,-1.11,1.21,-1.11,1.13,0.68,0.26,2.34,2.34,2.32
89.86,1.21,-1.07,1.21,-1.07,1.10,0.63,0.19,2.31,2.30,2.28
90.76,1.18,-1.05,1.18,-1.05,1.07,0.57,0.12,2.25,2.25,2.23
91.66,1.15,-1.04,1.15,-1.04,1.06,0.51,0.06,2.20,2.20,2.19
92.58,1.10,-1.04,1.10,-1.04,1.05,0.46,-0.01,2.15,2.16,2.14
93.51,1.06,-1.04,1.06,-1.04,1.05,0.40,-0.08,2.11,2.11,2.10
94.44,1.02,-1.04,1.01,-1.05,1.05,0.34,-0.14,2.07,2.06,2.06
95.39,0.97,-1.04,0.96,-1.05,1.04,0.29,-0.21,2.01,2.01,2.01
96.34,0.91,-1.05,0.92,-1.04,1.02,0.23,-0.28,1.93,1.95,1.96
97.30,0.91,-1.00,0.90,-1.01,0.98,0.17,-0.34,1.89,1.88,1.91
98.28,0.91,-0.95,0.91,-0.95,0.92,0.12,-0.41,1.83,1.84,1.86
99.26,0.95,-0.87,0.96,-0.86,0.84,0.06,-0.47,1.79,1.80,1.82
100.25,1.03,-0.74,1.02,-0.75,0.74,-0.00,-0.54,1.77,1.76,1.77
101.25,1.10,-0.62,1.11,-0.62,0.62,-0.06,-0.61,1.72,1.72,1.72
102.27,1.20,-0.47,1.20,-0.47,0.48,-0.12,-0.67,1.68,1.68,1.67
103.29,1.30,-0.32,1.30,-0.33,0.34,-0.18,-0.74,1.64,1.63,1.62
104.32,1.40,-0.18,1.40,-0.18,0.18,-0.24,-0.80,1.58,1.59,1.58
105.37,1.51,-0.02,1.51,-0.02,0.03,-0.29,-0.86,1.54,1.54,1.53
106.42,1.61,0.13,1.61,0.12,-0.12,-0.35,-0.93,1.49,1.48,1.48
107.48,1.71,0.28,1.71,0.28,-0.27,-0.41,-0.99,1.44,1.44,1.43
108.56,1.79,0.41,1.80,0.42,-0.41,-0.48,-1.05,1.38,1.39,1.38
109.64,1.90,0.57,1.89,0.55,-0.55,-0.54,-1.11,1.35,1.34,1.33
110.74,1.96,0.68,1.97,0.68,-0.68,-0.60,-1.17,1.28,1.29,1.28
111.85,2.03,0.80,2.04,0.81,-0.80,-0.66,-1.22,1.23,1.24,1.23
112.97,2.10,0.93,2.09,0.91,-0.91,-0.72,-1.28,1.18,1.17,1.17
114.10,2.14,1.02,2.14,1.02,-1.02,-0.78,-1.33,1.12,1.12,1.12
115.24,2.18,1.12,2.19,1.12,-1.12,-0.84,-1.38,1.06,1.06,1.06
116.39,2.23,1.22,2.22,1.21,-1.21,-0.91,-1.43,1.02,1.01,1.01
117.55,2.25,1.30,2.25,1.30,-1.30,-0.97,-1.48,0.95,0.96,0.95
118.73,2.29,1.39,2.29,1.38,-1.38,-1.03,-1.53,0.91,0.91,0.90
119.92,2.30,1.45,2.31,1.46,-1.45,-1.10,-1.57,0.85,0.86,0.85
121.12,2.34,1.54,2.33,1.52,-1.52,-1.16,-1.61,0.82,0.80,0.80
122.33,2.34,1.59,2.34,1.59,-1.59,-1.23,-1.65,0.75,0.75,0.75
123.55,2.34,1.64,2.36,1.65,-1.65,-1.29,-1.68,0.69,0.70,0.70
124.79,2.38,1.73,2.37,1.71,-1.72,-1.35,-1.72,0.66,0.65,0.65
126.03,2.38,1.78,2.37,1.77,-1.78,-1.42,-1.75,0.60,0.59,0.60
127.29,2.38,1.83,2.39,1.84,-1.84,-1.49,-1.78,0.54,0.54,0.55
128.57,2.38,1.89,2.40,1.90,-1.91,-1.55,-1.80,0.47,0.49,0.49
129.85,2.43,1.99,2.41,1.97,-1.97,-1.62,-1.82,0.46,0.44,0.44
131.15,2.43,2.04,2.43,2.04,-2.03,-1.68,-1.85,0.40,0.40,0.39
132.46,2.43,2.09,2.45,2.10,-2.09,-1.75,-1.87,0.34,0.35,0.34
133.79,2.47,2.17,2.45,2.15,-2.16,-1.82,-1.88,0.31,0.30,0.30
135.12,2.47,2.22,2.47,2.21,-2.22,-1.88,-1.90,0.25,0.25,0.25
136.48,2.47,2.26,2.49,2.28,-2.28,-1.95,-1.91,0.19,0.21,0.21
137.84,2.51,2.35,2.49,2.33,-2.34,-2.01,-1.93,0.17,0.16,0.16
139.22,2.51,2.40,2.51,2.40,-2.39,-2.08,-1.94,0.12,0.12,0.11
140.61,2.52,2.45,2.53,2.46,-2.45,-2.15,-1.95,0.07,0.08,0.07
142.02,2.56,2.52,2.54,2.50,-2.51,-2.21,-1.96,0.05,0.04,0.04
143.44,2.56,2.56,2.56,2.56,-2.56,-2.28,-1.97,0.00,0.00,0.00
144.87,2.56,2.60,2.57,2.61,-2.61,-2.35,-1.98,-0.05,-0.03,-0.04
146.32,2.59,2.67,2.58,2.66,-2.66,-2.41,-1.99,-0.07,-0.07,-0.08
147.78,2.60,2.71,2.60,2.71,-2.70,-2.48,-2.00,-0.10,-0.11,-0.11
149.26,2.60,2.75,2.60,2.75,-2.75,-2.54,-2.00,-0.15,-0.15,-0.15
150.75,2.60,2.79,2.60,2.79,-2.79,-2.60,-2.01,-0.19,-0.19,-0.19
152.26,2.60,2.83,2.61,2.83,-2.84,-2.67,-2.02,-0.24,-0.23,-0.23
153.78,2.62,2.89,2.61,2.88,-2.88,-2.73,-2.04,-0.26,-0.27,-0.27
155.32,2.62,2.93,2.62,2.93,-2.92,-2.79,-2.05,-0.30,-0.30,-0.31
156.88,2.62,2.97,2.62,2.97,-2.96,-2.85,-2.06,-0.34,-0.34,-0.35
158.44,2.62,3.01,2.61,3.00,-3.00,-2.91,-2.07,-0.38,-0.39,-0.39
160.03,2.60,3.03,2.61,3.04,-3.04,-2.97,-2.09,-0.44,-0.43,-0.43
161.63,2.60,3.07,2.60,3.07,-3.07,-3.03,-2.11,-0.47,-0.46,-0.47
163.24,2.60,3.11,2.59,3.10,-3.10,-3.08,-2.13,-0.50,-0.50,-0.51
164.88,2.59,3.13,2.59,3.13,-3.12,-3.14,-2.15,-0.53,-0.53,-0.54
166.53,2.56,3.14,2.57,3.15,-3.14,-3.19,-2.17,-0.58,-0.57,-0.58
168.19,2.56,3.18,2.54,3.16,-3.16,-3.24,-2.19,-0.61,-0.62,-0.62
169.87,2.51,3.17,2.53,3.18,-3.19,-3.29,-2.22,-0.68,-0.66,-0.66
171.57,2.51,3.21,2.51,3.20,-3.21,-3.34,-2.24,-0.70,-0.70,-0.70
173.29,2.51,3.24,2.49,3.22,-3.23,-3.38,-2.27,-0.72,-0.74,-0.73
175.02,2.47,3.24,2.49,3.25,-3.25,-3.42,-2.30,-0.78,-0.77,-0.77
176.77,2.47,3.28,2.47,3.28,-3.28,-3.47,-2.33,-0.81,-0.81,-0.81
178.54,2.47,3.32,2.46,3.31,-3.31,-3.50,-2.37,-0.84,-0.85,-0.85
180.32,2.45,3.34,2.45,3.34,-3.33,-3.54,-2.41,-0.88,-0.88,-0.89
182.13,2.43,3.35,2.44,3.36,-3.36,-3.57,-2.44,-0.93,-0.92,-0.92
183.95,2.43,3.39,2.43,3.39,-3.39,-3.61,-2.48,-0.96,-0.95,-0.96
185.79,2.43,3.42,2.43,3.42,-3.41,-3.63,-2.53,-0.98,-0.99,-0.99
187.65,2.43,3.46,2.41,3.44,-3.43,-3.66,-2.57,-1.00,-1.02,-1.03
189.52,2.38,3.44,2.40,3.45,-3.46,-3.68,-2.61,-1.08,-1.06,-1.06
191.42,2.38,3.47,2.39,3.47,-3.48,-3.70,-2.66,-1.10,-1.09,-1.09
193.33,2.38,3.50,2.37,3.49,-3.50,-3.72,-2.71,-1.12,-1.12,-1.12
195.27,2.38,3.53,2.37,3.51,-3.52,-3.73,-2.76,-1.14,-1.15,-1.15
197.22,2.34,3.52,2.35,3.53,-3.53,-3.74,-2.81,-1.19,-1.18,-1.18
199.19,2.34,3.55,2.34,3.55,-3.55,-3.75,-2.86,-1.21,-1.20,-1.21
201.18,2.34,3.57,2.33,3.56,-3.56,-3.76,-2.92,-1.22,-1.23,-1.23
203.19,2.33,3.58,2.33,3.57,-3.57,-3.76,-2.97,-1.24,-1.24,-1.25
205.23,2.30,3.57,2.31,3.58,-3.57,-3.76,-3.03,-1.27,-1.26,-1.27
207.28,2.30,3.58,2.29,3.57,-3.58,-3.76,-3.08,-1.28,-1.28,-1.28
209.35,2.28,3.58,2.28,3.58,-3.58,-3.75,-3.14,-1.30,-1.30,-1.30
211.44,2.25,3.57,2.26,3.57,-3.57,-3.74,-3.19,-1.32,-1.31,-1.32
213.56,2.25,3.58,2.24,3.56,-3.56,-3.73,-3.25,-1.31,-1.32,-1.33
215.69,2.21,3.54,2.22,3.55,-3.55,-3.72,-3.30,-1.34,-1.34,-1.33
217.85,2.21,3.55,2.20,3.54,-3.54,-3.70,-3.35,-1.33,-1.34,-1.34
220.03,2.17,3.52,2.18,3.52,-3.53,-3.68,-3.40,-1.36,-1.35,-1.35
222.23,2.17,3.53,2.16,3.51,-3.51,-3.66,-3.45,-1.34,-1.35,-1.36
224.45,2.12,3.48,2.13,3.49,-3.49,-3.64,-3.49,-1.37,-1.36,-1.36
226.70,2.12,3.48,2.11,3.47,-3.47,-3.61,-3.54,-1.35,-1.36,-1.36
228.96,2.08,3.44,2.09,3.44,-3.45,-3.58,-3.58,-1.37,-1.36,-1.36
231.25,2.08,3.43,2.07,3.42,-3.43,-3.55,-3.61,-1.35,-1.36,-1.35
233.57,2.04,3.39,2.05,3.40,-3.40,-3.52,-3.64,-1.36,-1.35,-1.35
235.90,2.04,3.39,2.04,3.38,-3.38,-3.49,-3.67,-1.34,-1.34,-1.35
238.26,2.03,3.37,2.02,3.36,-3.35,-3.45,-3.69,-1.32,-1.33,-1.34
240.64,1.99,3.32,2.00,3.33,-3.33,-3.42,-3.71,-1.34,-1.32,-1.33
243.05,1.99,3.31,1.98,3.30,-3.30,-3.38,-3.73,-1.31,-1.32,-1.32
245.48,1.96,3.27,1.96,3.27,-3.27,-3.34,-3.73,-1.31,-1.31,-1.31
247.93,1.95,3.25,1.94,3.24,-3.24,-3.30,-3.74,-1.29,-1.29,-1.30
250.41,1.91,3.20,1.92,3.20,-3.21,-3.26,-3.73,-1.30,-1.28,-1.29
252.92,1.91,3.18,1.90,3.17,-3.17,-3.22,-3.72,-1.26,-1.27,-1.27
255.45,1.88,3.13,1.88,3.13,-3.14,-3.17,-3.71,-1.26,-1.25,-1.25
258.00,1.86,3.10,1.86,3.10,-3.10,-3.13,-3.69,-1.24,-1.23,-1.24
260.58,1.85,3.07,1.84,3.06,-3.06,-3.09,-3.66,-1.21,-1.22,-1.22
263.19,1.82,3.02,1.82,3.02,-3.02,-3.04,-3.63,-1.20,-1.20,-1.20
265.82,1.81,2.99,1.81,2.99,-2.98,-3.00,-3.60,-1.17,-1.17,-1.18
268.48,1.78,2.94,1.79,2.94,-2.94,-2.95,-3.56,-1.16,-1.16,-1.16
271.16,1.78,2.92,1.77,2.90,-2.90,-2.91,-3.51,-1.12,-1.14,-1.14
273.87,1.73,2.85,1.74,2.86,-2.86,-2.86,-3.47,-1.13,-1.12,-1.12
276.61,1.73,2.83,1.72,2.82,-2.82,-2.82,-3.41,-1.09,-1.10,-1.10
279.38,1.70,2.78,1.70,2.78,-2.78,-2.77,-3.36,-1.08,-1.08,-1.08
282.17,1.69,2.75,1.68,2.74,-2.74,-2.72,-3.30,-1.05,-1.06,-1.06
284.99,1.66,2.70,1.67,2.71,-2.71,-2.68,-3.24,-1.05,-1.04,-1.04
287.84,1.65,2.67,1.65,2.67,-2.67,-2.63,-3.18,-1.02,-1.02,-1.02
290.72,1.65,2.65,1.63,2.63,-2.63,-2.59,-3.11,-0.98,-0.99,-1.00
293.63,1.60,2.58,1.61,2.59,-2.59,-2.54,-3.05,-0.99,-0.98,-0.98
296.57,1.60,2.56,1.59,2.55,-2.55,-2.50,-2.98,-0.95,-0.96,-0.96
299.53,1.56,2.50,1.57,2.50,-2.51,-2.46,-2.92,-0.95,-0.94,-0.94
302.53,1.56,2.48,1.55,2.47,-2.46,-2.41,-2.85,-0.90,-0.91,-0.92
305.55,1.52,2.41,1.53,2.42,-2.42,-2.37,-2.78,-0.90,-0.89,-0.89
308.61,1.52,2.39,1.51,2.38,-2.38,-2.33,-2.71,-0.86,-0.86,-0.87
311.69,1.50,2.34,1.50,2.33,-2.33,-2.28,-2.64,-0.83,-0.84,-0.84
314.81,1.47,2.28,1.48,2.29,-2.29,-2.24,-2.58,-0.82,-0.81,-0.81
317.96,1.47,2.26,1.46,2.25,-2.25,-2.20,-2.51,-0.78,-0.79,-0.79
321.14,1.43,2.20,1.44,2.21,-2.21,-2.16,-2.44,-0.78,-0.77,-0.77
324.35,1.43,2.18,1.42,2.17,-2.17,-2.12,-2.38,-0.74,-0.75,-0.75
327.59,1.40,2.13,1.41,2.13,-2.13,-2.08,-2.31,-0.73,-0.73,-0.73
330.87,1.39,2.10,1.39,2.10,-2.09,-2.04,-2.25,-0.70,-0.70,-0.71
334.18,1.38,2.07,1.37,2.06,-2.06,-2.00,-2.19,-0.68,-0.68,-0.69
337.52,1.34,2.01,1.35,2.02,-2.02,-1.97,-2.13,-0.68,-0.67,-0.67
340.90,1.34,1.99,1.33,1.98,-1.98,-1.93,-2.07,-0.64,-0.65,-0.65
344.30,1.30,1.93,1.31,1.94,-1.94,-1.89,-2.01,-0.64,-0.63,-0.63
347.75,1.30,1.91,1.29,1.90,-1.90,-1.86,-1.96,-0.60,-0.60,-0.61
351.23,1.26,1.85,1.27,1.86,-1.86,-1.82,-1.90,-0.60,-0.59,-0.59
354.74,1.26,1.83,1.25,1.82,-1.82,-1.79,-1.85,-0.56,-0.57,-0.57
358.28,1.21,1.77,1.22,1.77,-1.78,-1.76,-1.80,-0.57,-0.56,-0.56
361.87,1.21,1.75,1.20,1.74,-1.74,-1.72,-1.75,-0.53,-0.54,-0.54
365.49,1.17,1.69,1.18,1.70,-1.70,-1.69,-1.70,-0.53,-0.53,-0.52
369.14,1.17,1.68,1.16,1.66,-1.67,-1.66,-1.66,-0.50,-0.51,-0.51
372.83,1.13,1.62,1.14,1.63,-1.64,-1.63,-1.61,-0.51,-0.49,-0.49
376.56,1.13,1.61,1.13,1.60,-1.60,-1.60,-1.57,-0.47,-0.47,-0.48
380.33,1.13,1.59,1.11,1.57,-1.57,-1.57,-1.52,-0.44,-0.46,-0.46
384.13,1.08,1.53,1.10,1.55,-1.54,-1.54,-1.48,-0.46,-0.44,-0.45
387.97,1.08,1.52,1.08,1.52,-1.51,-1.52,-1.44,-0.43,-0.43,-0.44
391.85,1.07,1.50,1.06,1.48,-1.48,-1.49,-1.40,-0.41,-0.42,-0.43
395.77,1.04,1.45,1.04,1.45,-1.45,-1.46,-1.37,-0.41,-0.41,-0.41
399.73,1.01,1.41,1.02,1.42,-1.42,-1.44,-1.33,-0.41,-0.40,-0.40
403.72,1.00,1.39,0.99,1.38,-1.39,-1.41,-1.29,-0.39,-0.39,-0.39
407.76,0.98,1.36,0.98,1.36,-1.35,-1.39,-1.26,-0.37,-0.38,-0.38
411.84,0.95,1.32,0.96,1.33,-1.32,-1.37,-1.23,-0.37,-0.36,-0.37
415.96,0.95,1.31,0.94,1.29,-1.29,-1.34,-1.19,-0.34,-0.35,-0.36
420.12,0.91,1.26,0.92,1.27,-1.26,-1.32,-1.16,-0.35,-0.33,-0.35
424.32,0.91,1.25,0.91,1.24,-1.24,-1.30,-1.13,-0.33,-0.33,-0.34
428.56,0.91,1.24,0.89,1.22,-1.23,-1.28,-1.10,-0.32,-0.34,-0.33
432.85,0.87,1.19,0.89,1.21,-1.24,-1.26,-1.08,-0.37,-0.35,-0.32
437.18,0.90,1.21,0.90,1.21,-1.26,-1.24,-1.05,-0.36,-0.35,-0.31
441.55,0.95,1.24,0.95,1.24,-1.28,-1.22,-1.02,-0.33,-0.34,-0.29
445.96,1.01,1.29,1.02,1.30,-1.32,-1.20,-0.99,-0.31,-0.29,-0.28
450.42,1.11,1.38,1.10,1.37,-1.35,-1.18,-0.97,-0.24,-0.24,-0.27
454.93,1.17,1.42,1.17,1.42,-1.37,-1.16,-0.94,-0.20,-0.20,-0.25
459.48,1.21,1.45,1.20,1.44,-1.38,-1.15,-0.92,-0.17,-0.18,-0.24
464.07,1.19,1.42,1.19,1.41,-1.37,-1.13,-0.89,-0.18,-0.19,-0.23
468.71,1.15,1.36,1.15,1.36,-1.35,-1.11,-0.87,-0.20,-0.20,-0.21
473.40,1.10,1.30,1.11,1.30,-1.31,-1.09,-0.85,-0.21,-0.20,-0.20
478.13,1.06,1.24,1.06,1.24,-1.25,-1.08,-0.82,-0.19,-0.20,-0.18
482.91,1.01,1.18,1.01,1.17,-1.19,-1.06,-0.80,-0.18,-0.19,-0.17
487.74,0.96,1.11,0.97,1.12,-1.13,-1.04,-0.77,-0.17,-0.16,-0.15
492.62,0.93,1.06,0.93,1.06,-1.08,-1.03,-0.75,-0.15,-0.15,-0.13
497.55,0.91,1.03,0.90,1.02,-1.03,-1.01,-0.73,-0.12,-0.12,-0.12
502.52,0.87,0.97,0.88,0.98,-0.98,-0.99,-0.71,-0.11,-0.10,-0.10
507.55,0.87,0.96,0.86,0.95,-0.94,-0.97,-0.68,-0.07,-0.08,-0.09
