frequency,raw,error,smoothed,error_smoothed,equalization,parametric_eq,fixed_band_eq,equalized_raw,equalized_smoothed,target
20.00,12.09,1.14,12.28,1.33,-1.33,-1.46,-1.06,10.77,10.95,10.95
20.20,12.26,1.33,12.38,1.44,-1.44,-1.48,-1.09,10.83,10.94,10.94
20.40,12.44,1.51,12.47,1.54,-1.54,-1.50,-1.12,10.89,10.93,10.93
20.61,12.60,1.67,12.56,1.64,-1.64,-1.53,-1.16,10.96,10.92,10.93
20.81,12.79,1.88,12.65,1.73,-1.73,-1.55,-1.19,11.05,10.91,10.91
21.02,12.93,2.03,12.73,1.82,-1.82,-1.57,-1.22,11.11,10.90,10.91
21.23,12.95,2.06,12.80,1.90,-1.90,-1.59,-1.26,11.05,10.90,10.89
21.44,12.96,2.06,12.87,1.98,-1.98,-1.62,-1.30,10.99,10.89,10.90
21.66,12.98,2.09,12.93,2.05,-2.05,-1.64,-1.33,10.94,10.88,10.89
21.87,12.99,2.11,12.99,2.11,-2.11,-1.66,-1.37,10.88,10.88,10.88
22.09,13.01,2.14,13.04,2.17,-2.17,-1.69,-1.41,10.85,10.87,10.87
22.31,13.03,2.16,13.09,2.22,-2.22,-1.71,-1.45,10.81,10.86,10.87
22.54,13.05,2.20,13.11,2.25,-2.25,-1.74,-1.49,10.80,10.86,10.86
22.76,13.07,2.22,13.14,2.28,-2.28,-1.76,-1.54,10.79,10.85,10.86
22.99,13.09,2.25,13.16,2.31,-2.31,-1.79,-1.58,10.78,10.85,10.85
23.22,13.13,2.30,13.19,2.34,-2.34,-1.81,-1.62,10.79,10.85,10.83
23.45,13.16,2.32,13.21,2.36,-2.36,-1.84,-1.67,10.80,10.84,10.84
23.69,13.20,2.37,13.21,2.37,-2.37,-1.86,-1.72,10.83,10.84,10.83
23.92,13.24,2.41,13.20,2.37,-2.37,-1.89,-1.76,10.88,10.84,10.83
24.16,13.27,2.43,13.19,2.35,-2.35,-1.91,-1.81,10.93,10.84,10.84
24.40,13.29,2.45,13.18,2.34,-2.34,-1.94,-1.86,10.96,10.84,10.85
24.65,13.32,2.48,13.17,2.33,-2.33,-1.97,-1.91,10.99,10.84,10.85
24.89,13.34,2.50,13.18,2.34,-2.34,-1.99,-1.96,11.01,10.84,10.84
25.14,13.27,2.43,13.18,2.34,-2.34,-2.02,-2.01,10.94,10.84,10.84
25.39,13.12,2.28,13.16,2.32,-2.32,-2.05,-2.06,10.80,10.84,10.84
25.65,12.97,2.14,13.14,2.29,-2.29,-2.07,-2.11,10.68,10.85,10.84
25.91,12.83,1.98,13.11,2.26,-2.26,-2.10,-2.16,10.56,10.85,10.85
26.16,12.89,2.03,13.11,2.26,-2.26,-2.13,-2.22,10.63,10.85,10.86
26.43,13.06,2.21,13.13,2.28,-2.28,-2.15,-2.27,10.78,10.85,10.85
26.69,13.24,2.39,13.17,2.32,-2.32,-2.18,-2.32,10.92,10.85,10.85
26.96,13.42,2.57,13.23,2.38,-2.38,-2.21,-2.37,11.04,10.85,10.85
27.23,13.38,2.54,13.29,2.44,-2.44,-2.24,-2.42,10.94,10.85,10.85
27.50,13.29,2.45,13.34,2.50,-2.50,-2.27,-2.47,10.80,10.85,10.84
27.77,13.20,2.35,13.40,2.55,-2.55,-2.30,-2.52,10.65,10.85,10.85
28.05,13.19,2.34,13.46,2.62,-2.62,-2.32,-2.57,10.57,10.85,10.85
28.33,13.47,2.63,13.52,2.68,-2.68,-2.35,-2.61,10.79,10.84,10.84
28.62,13.73,2.90,13.57,2.73,-2.73,-2.38,-2.65,11.00,10.84,10.83
28.90,14.01,3.17,13.61,2.77,-2.77,-2.41,-2.70,11.25,10.84,10.84
29.19,13.96,3.13,13.62,2.78,-2.78,-2.44,-2.74,11.18,10.84,10.84
29.48,13.75,2.92,13.62,2.78,-2.78,-2.47,-2.78,10.97,10.83,10.83
29.78,13.56,2.73,13.62,2.79,-2.79,-2.50,-2.81,10.76,10.83,10.83
30.08,13.41,2.57,13.63,2.81,-2.81,-2.53,-2.84,10.60,10.82,10.84
30.38,13.45,2.63,13.65,2.84,-2.84,-2.56,-2.88,10.62,10.82,10.82
30.68,13.50,2.69,13.65,2.84,-2.84,-2.59,-2.90,10.67,10.81,10.81
30.99,13.55,2.75,13.60,2.80,-2.80,-2.62,-2.93,10.75,10.80,10.81
31.30,13.55,2.76,13.54,2.74,-2.74,-2.65,-2.95,10.81,10.79,10.79
31.61,13.55,2.77,13.47,2.68,-2.68,-2.68,-2.97,10.87,10.79,10.79
31.93,13.55,2.78,13.44,2.66,-2.66,-2.71,-2.99,10.90,10.78,10.77
32.24,13.55,2.79,13.43,2.66,-2.66,-2.74,-3.01,10.89,10.77,10.77
32.57,13.55,2.80,13.46,2.69,-2.69,-2.77,-3.02,10.86,10.76,10.75
32.89,13.55,2.80,13.49,2.73,-2.73,-2.80,-3.03,10.82,10.76,10.75
33.22,13.44,2.70,13.52,2.77,-2.77,-2.83,-3.04,10.67,10.75,10.74
33.55,13.27,2.53,13.55,2.80,-2.80,-2.86,-3.04,10.47,10.74,10.74
33.89,13.10,2.36,13.56,2.83,-2.83,-2.89,-3.05,10.28,10.74,10.74
34.23,13.29,2.57,13.57,2.84,-2.84,-2.92,-3.05,10.46,10.73,10.73
34.57,13.64,2.92,13.55,2.83,-2.83,-2.95,-3.05,10.82,10.73,10.72
34.92,13.99,3.28,13.53,2.81,-2.81,-2.99,-3.05,11.18,10.72,10.71
35.27,13.94,3.23,13.52,2.82,-2.82,-3.02,-3.05,11.13,10.71,10.72
35.62,13.75,3.05,13.54,2.84,-2.84,-3.05,-3.05,10.91,10.70,10.70
35.97,13.56,2.87,13.57,2.88,-2.88,-3.08,-3.05,10.68,10.69,10.69
36.33,13.55,2.88,13.60,2.93,-2.93,-3.11,-3.05,10.63,10.67,10.68
36.70,13.55,2.89,13.62,2.97,-2.97,-3.14,-3.05,10.59,10.65,10.66
37.06,13.53,2.89,13.65,3.01,-3.01,-3.17,-3.05,10.52,10.63,10.64
37.43,13.40,2.79,13.66,3.05,-3.05,-3.21,-3.05,10.36,10.61,10.61
37.81,13.27,2.68,13.65,3.06,-3.06,-3.24,-3.05,10.21,10.59,10.60
38.19,13.37,2.81,13.61,3.05,-3.05,-3.27,-3.05,10.33,10.56,10.57
38.57,13.72,3.18,13.57,3.03,-3.03,-3.30,-3.05,10.69,10.54,10.54
38.95,14.06,3.55,13.56,3.05,-3.05,-3.33,-3.05,11.01,10.51,10.51
39.34,13.91,3.44,13.60,3.12,-3.12,-3.36,-3.06,10.79,10.48,10.47
39.74,13.69,3.25,13.64,3.19,-3.19,-3.40,-3.07,10.51,10.45,10.45
40.14,13.56,3.14,13.67,3.25,-3.25,-3.43,-3.07,10.31,10.42,10.42
40.54,13.55,3.17,13.68,3.29,-3.29,-3.46,-3.08,10.27,10.39,10.39
40.94,13.55,3.20,13.67,3.31,-3.31,-3.49,-3.09,10.24,10.36,10.36
41.35,13.55,3.22,13.67,3.34,-3.34,-3.52,-3.11,10.22,10.33,10.33
41.76,13.55,3.26,13.68,3.37,-3.37,-3.55,-3.12,10.18,10.30,10.29
42.18,13.62,3.35,13.68,3.41,-3.41,-3.59,-3.14,10.22,10.27,10.27
42.60,13.80,3.55,13.66,3.42,-3.42,-3.62,-3.16,10.38,10.24,10.25
43.03,13.93,3.72,13.63,3.42,-3.42,-3.65,-3.18,10.52,10.21,10.21
43.46,13.72,3.54,13.61,3.43,-3.43,-3.68,-3.21,10.30,10.18,10.18
43.90,13.51,3.35,13.62,3.46,-3.46,-3.71,-3.24,10.04,10.15,10.16
44.33,13.45,3.33,13.62,3.50,-3.50,-3.74,-3.27,9.96,10.12,10.12
44.78,13.45,3.37,13.60,3.51,-3.51,-3.78,-3.30,9.94,10.09,10.08
45.23,13.54,3.47,13.58,3.53,-3.53,-3.81,-3.33,10.01,10.05,10.07
45.68,13.73,3.71,13.57,3.55,-3.55,-3.84,-3.37,10.18,10.02,10.02
46.13,13.79,3.82,13.55,3.57,-3.57,-3.87,-3.41,10.22,9.97,9.97
46.60,13.56,3.62,13.52,3.58,-3.58,-3.90,-3.45,9.97,9.93,9.94
47.06,13.35,3.46,13.48,3.59,-3.59,-3.93,-3.49,9.77,9.89,9.90
47.53,13.35,3.50,13.43,3.59,-3.59,-3.96,-3.54,9.77,9.84,9.86
48.01,13.35,3.56,13.42,3.62,-3.62,-3.99,-3.59,9.73,9.80,9.80
48.49,13.36,3.62,13.43,3.68,-3.68,-4.03,-3.64,9.68,9.75,9.75
48.97,13.37,3.68,13.43,3.73,-3.73,-4.06,-3.69,9.64,9.70,9.70
49.46,13.44,3.79,13.41,3.76,-3.76,-4.09,-3.74,9.68,9.65,9.65
49.96,13.51,3.93,13.38,3.78,-3.78,-4.12,-3.80,9.73,9.60,9.58
50.46,13.40,3.87,13.35,3.80,-3.80,-4.15,-3.86,9.60,9.55,9.54
50.96,13.26,3.77,13.34,3.84,-3.84,-4.18,-3.92,9.42,9.50,9.49
51.47,13.25,3.81,13.34,3.89,-3.89,-4.21,-3.98,9.36,9.45,9.45
51.99,13.25,3.86,13.35,3.95,-3.95,-4.24,-4.04,9.30,9.39,9.39
52.51,13.42,4.08,13.34,4.00,-4.00,-4.27,-4.10,9.42,9.34,9.35
53.03,13.58,4.28,13.32,4.03,-4.03,-4.30,-4.16,9.55,9.29,9.31
53.56,13.34,4.09,13.31,4.07,-4.07,-4.33,-4.22,9.27,9.24,9.25
54.10,13.16,3.97,13.30,4.11,-4.11,-4.36,-4.29,9.05,9.19,9.19
54.64,13.15,4.01,13.28,4.14,-4.14,-4.39,-4.35,9.01,9.14,9.14
55.18,13.20,4.13,13.25,4.16,-4.16,-4.43,-4.41,9.05,9.09,9.08
55.74,13.36,4.34,13.22,4.18,-4.18,-4.46,-4.47,9.18,9.04,9.03
56.29,13.33,4.35,13.22,4.22,-4.22,-4.49,-4.53,9.11,8.99,8.98
56.86,13.12,4.18,13.21,4.26,-4.26,-4.52,-4.58,8.85,8.94,8.94
57.42,13.08,4.21,13.18,4.29,-4.29,-4.55,-4.64,8.79,8.89,8.87
58.00,13.12,4.29,13.15,4.31,-4.31,-4.58,-4.69,8.81,8.84,8.84
58.58,13.20,4.41,13.11,4.33,-4.33,-4.61,-4.74,8.87,8.78,8.80
59.16,13.20,4.45,13.08,4.35,-4.35,-4.63,-4.79,8.85,8.73,8.75
59.76,13.03,4.33,13.08,4.41,-4.41,-4.66,-4.83,8.62,8.67,8.70
60.35,12.95,4.33,13.07,4.46,-4.46,-4.69,-4.87,8.50,8.61,8.63
60.96,12.95,4.39,13.05,4.50,-4.50,-4.72,-4.91,8.46,8.55,8.57
61.57,13.11,4.62,13.01,4.52,-4.52,-4.75,-4.94,8.59,8.49,8.49
62.18,13.16,4.75,12.99,4.56,-4.56,-4.78,-4.97,8.60,8.43,8.42
62.80,12.92,4.58,12.99,4.63,-4.63,-4.81,-4.99,8.30,8.36,8.34
63.43,12.85,4.58,12.99,4.70,-4.70,-4.84,-5.01,8.16,8.29,8.27
64.07,12.85,4.64,12.97,4.74,-4.74,-4.87,-5.03,8.11,8.22,8.22
64.71,12.87,4.73,12.93,4.78,-4.78,-4.90,-5.05,8.10,8.16,8.15
65.35,12.97,4.89,12.91,4.82,-4.82,-4.93,-5.06,8.15,8.09,8.09
66.01,13.12,5.11,12.88,4.86,-4.86,-4.96,-5.06,8.26,8.02,8.01
66.67,12.87,4.91,12.86,4.91,-4.91,-4.99,-5.07,7.96,7.95,7.96
67.33,12.75,4.88,12.84,4.96,-4.96,-5.01,-5.07,7.79,7.88,7.88
68.01,12.75,4.94,12.81,5.00,-5.00,-5.04,-5.07,7.75,7.81,7.81
68.69,12.93,5.20,12.77,5.03,-5.03,-5.07,-5.07,7.90,7.74,7.73
69.37,12.85,5.18,12.73,5.06,-5.06,-5.10,-5.06,7.79,7.66,7.67
70.07,12.57,4.98,12.70,5.11,-5.11,-5.13,-5.06,7.47,7.59,7.59
70.77,12.48,4.96,12.67,5.15,-5.15,-5.16,-5.05,7.33,7.52,7.52
71.48,12.56,5.11,12.63,5.19,-5.19,-5.19,-5.05,7.37,7.44,7.45
72.19,12.65,5.29,12.59,5.22,-5.22,-5.21,-5.04,7.43,7.37,7.37
72.91,12.52,5.23,12.56,5.26,-5.26,-5.24,-5.03,7.27,7.30,7.29
73.64,12.62,5.41,12.53,5.30,-5.30,-5.27,-5.03,7.32,7.22,7.22
74.38,12.56,5.42,12.51,5.35,-5.35,-5.30,-5.02,7.21,7.15,7.15
75.12,12.35,5.28,12.47,5.38,-5.38,-5.33,-5.02,6.97,7.08,7.07
75.87,12.35,5.34,12.42,5.41,-5.41,-5.36,-5.02,6.94,7.01,7.01
76.63,12.39,5.46,12.39,5.44,-5.44,-5.39,-5.02,6.95,6.94,6.94
77.40,12.48,5.61,12.37,5.49,-5.49,-5.41,-5.02,6.99,6.88,6.88
78.17,12.51,5.71,12.34,5.53,-5.53,-5.44,-5.02,6.98,6.81,6.80
78.95,12.26,5.52,12.31,5.56,-5.56,-5.47,-5.03,6.70,6.74,6.75
79.74,12.25,5.57,12.27,5.60,-5.60,-5.50,-5.04,6.66,6.68,6.68
80.54,12.20,5.59,12.24,5.63,-5.63,-5.53,-5.05,6.57,6.61,6.61
81.35,12.12,5.58,12.22,5.67,-5.67,-5.56,-5.07,6.45,6.54,6.54
82.16,12.06,5.58,12.18,5.70,-5.70,-5.58,-5.09,6.36,6.48,6.48
82.98,12.04,5.63,12.14,5.74,-5.74,-5.61,-5.11,6.31,6.41,6.41
83.81,12.21,5.87,12.11,5.77,-5.77,-5.64,-5.13,6.44,6.34,6.34
84.65,12.15,5.89,12.07,5.80,-5.80,-5.67,-5.16,6.35,6.27,6.27
85.50,12.02,5.84,12.03,5.83,-5.83,-5.70,-5.20,6.19,6.20,6.18
86.35,12.00,5.88,11.98,5.86,-5.86,-5.73,-5.24,6.15,6.13,6.12
87.22,12.09,6.04,11.94,5.89,-5.89,-5.76,-5.28,6.21,6.05,6.05
88.09,11.97,6.00,11.91,5.93,-5.93,-5.79,-5.32,6.04,5.98,5.98
88.97,11.83,5.92,11.88,5.98,-5.98,-5.82,-5.37,5.85,5.90,5.91
89.86,11.76,5.94,11.85,6.02,-6.02,-5.84,-5.43,5.74,5.83,5.82
90.76,11.69,5.94,11.82,6.07,-6.07,-5.87,-5.48,5.63,5.75,5.75
91.66,11.70,6.04,11.77,6.10,-6.10,-5.90,-5.55,5.60,5.67,5.66
92.58,11.77,6.18,11.72,6.13,-6.13,-5.93,-5.61,5.64,5.58,5.59
93.51,11.69,6.18,11.66,6.16,-6.16,-5.96,-5.68,5.53,5.50,5.51
94.44,11.57,6.15,11.62,6.21,-6.21,-5.99,-5.75,5.36,5.41,5.43
95.39,11.55,6.22,11.58,6.26,-6.26,-6.02,-5.83,5.30,5.33,5.33
96.34,11.57,6.33,11.54,6.30,-6.30,-6.05,-5.91,5.27,5.24,5.24
97.30,11.62,6.48,11.48,6.34,-6.34,-6.08,-5.99,5.28,5.15,5.15
98.28,11.56,6.51,11.44,6.38,-6.38,-6.11,-6.08,5.18,5.05,5.05
99.26,11.28,6.33,11.39,6.43,-6.43,-6.14,-6.17,4.86,4.96,4.95
100.25,11.29,6.44,11.33,6.46,-6.46,-6.17,-6.26,4.83,4.87,4.86
101.25,11.23,6.46,11.28,6.51,-6.51,-6.20,-6.36,4.73,4.77,4.77
102.27,11.18,6.51,11.21,6.53,-6.53,-6.23,-6.45,4.65,4.68,4.68
103.29,11.16,6.58,11.13,6.54,-6.54,-6.26,-6.55,4.62,4.58,4.58
104.32,11.11,6.62,11.05,6.57,-6.57,-6.30,-6.65,4.55,4.49,4.49
105.37,10.98,6.59,10.98,6.59,-6.59,-6.33,-6.75,4.40,4.39,4.40
106.42,10.88,6.58,10.91,6.60,-6.60,-6.36,-6.86,4.28,4.30,4.30
107.48,10.80,6.61,10.84,6.63,-6.63,-6.39,-6.96,4.17,4.21,4.20
108.56,10.77,6.65,10.78,6.66,-6.66,-6.42,-7.06,4.11,4.12,4.12
109.64,10.80,6.78,10.72,6.70,-6.70,-6.45,-7.16,4.11,4.03,4.03
110.74,10.68,6.75,10.67,6.73,-6.73,-6.49,-7.25,3.95,3.94,3.93
111.85,10.56,6.72,10.60,6.76,-6.76,-6.52,-7.35,3.81,3.85,3.85
112.97,10.38,6.62,10.54,6.78,-6.78,-6.55,-7.44,3.60,3.76,3.76
114.10,10.40,6.72,10.49,6.82,-6.82,-6.58,-7.52,3.59,3.67,3.68
115.24,10.52,6.94,10.44,6.86,-6.86,-6.62,-7.61,3.67,3.59,3.59
116.39,10.46,6.97,10.39,6.89,-6.89,-6.65,-7.68,3.57,3.51,3.49
117.55,10.44,7.02,10.35,6.93,-6.93,-6.68,-7.75,3.52,3.43,3.42
118.73,10.39,7.07,10.31,6.97,-6.97,-6.72,-7.81,3.43,3.35,3.33
119.92,10.16,6.91,10.27,7.00,-7.00,-6.75,-7.87,3.16,3.27,3.26
121.12,10.15,6.96,10.23,7.04,-7.04,-6.78,-7.92,3.11,3.19,3.20
122.33,10.16,7.05,10.19,7.07,-7.07,-6.82,-7.95,3.09,3.11,3.12
123.55,10.13,7.09,10.15,7.11,-7.11,-6.85,-7.98,3.03,3.04,3.05
124.79,10.14,7.17,10.11,7.14,-7.14,-6.88,-8.01,3.00,2.96,2.98
126.03,10.17,7.27,10.07,7.18,-7.18,-6.92,-8.02,3.00,2.89,2.90
127.29,9.98,7.16,10.01,7.19,-7.19,-6.95,-8.02,2.79,2.82,2.82
128.57,9.90,7.16,9.96,7.21,-7.21,-6.99,-8.01,2.69,2.75,2.75
129.85,9.97,7.30,9.92,7.24,-7.24,-7.02,-8.00,2.73,2.67,2.67
131.15,9.89,7.30,9.87,7.27,-7.27,-7.05,-7.98,2.62,2.60,2.60
132.46,9.81,7.29,9.83,7.31,-7.31,-7.09,-7.95,2.51,2.53,2.52
133.79,9.75,7.30,9.80,7.34,-7.34,-7.12,-7.91,2.41,2.46,2.45
135.12,9.69,7.31,9.75,7.36,-7.36,-7.16,-7.87,2.33,2.38,2.38
136.48,9.68,7.36,9.69,7.38,-7.38,-7.19,-7.82,2.30,2.31,2.32
137.84,9.69,7.44,9.64,7.40,-7.40,-7.22,-7.77,2.29,2.24,2.25
139.22,9.60,7.44,9.59,7.42,-7.42,-7.26,-7.71,2.19,2.17,2.16
140.61,9.55,7.45,9.54,7.44,-7.44,-7.29,-7.65,2.12,2.10,2.11
142.02,9.49,7.46,9.50,7.46,-7.46,-7.32,-7.58,2.03,2.03,2.03
143.44,9.46,7.51,9.44,7.48,-7.48,-7.36,-7.52,1.99,1.96,1.96
144.87,9.39,7.50,9.39,7.49,-7.49,-7.39,-7.45,1.90,1.90,1.89
146.32,9.36,7.53,9.34,7.51,-7.51,-7.42,-7.38,1.85,1.83,1.83
147.78,9.26,7.50,9.29,7.53,-7.53,-7.45,-7.32,1.73,1.76,1.76
149.26,9.18,7.49,9.24,7.54,-7.54,-7.49,-7.25,1.64,1.69,1.69
150.75,9.16,7.55,9.18,7.56,-7.56,-7.52,-7.19,1.61,1.62,1.61
152.26,9.13,7.58,9.12,7.56,-7.56,-7.55,-7.12,1.57,1.56,1.56
153.78,9.06,7.57,9.06,7.57,-7.57,-7.58,-7.06,1.49,1.49,1.49
155.32,9.00,7.58,9.00,7.58,-7.58,-7.61,-7.00,1.42,1.42,1.43
156.88,8.95,7.60,8.94,7.59,-7.59,-7.64,-6.94,1.36,1.35,1.36
158.44,8.88,7.60,8.88,7.60,-7.60,-7.66,-6.89,1.28,1.28,1.28
160.03,8.86,7.65,8.82,7.61,-7.61,-7.69,-6.84,1.26,1.21,1.21
161.63,8.78,7.64,8.75,7.61,-7.61,-7.72,-6.80,1.17,1.14,1.15
163.24,8.69,7.63,8.69,7.61,-7.61,-7.74,-6.76,1.08,1.07,1.07
164.88,8.58,7.58,8.62,7.62,-7.62,-7.77,-6.72,0.96,1.00,1.00
166.53,8.55,7.63,8.55,7.62,-7.62,-7.79,-6.69,0.93,0.93,0.93
168.19,8.47,7.61,8.48,7.62,-7.62,-7.81,-6.66,0.85,0.86,0.86
169.87,8.43,7.64,8.42,7.63,-7.63,-7.83,-6.64,0.81,0.79,0.79
171.57,8.34,7.62,8.35,7.63,-7.63,-7.85,-6.62,0.71,0.72,0.72
173.29,8.29,7.64,8.29,7.63,-7.63,-7.87,-6.60,0.66,0.65,0.65
175.02,8.19,7.60,8.23,7.64,-7.64,-7.88,-6.59,0.56,0.59,0.59
176.77,8.11,7.59,8.17,7.64,-7.64,-7.90,-6.59,0.47,0.53,0.52
178.54,8.10,7.65,8.11,7.65,-7.65,-7.91,-6.59,0.46,0.46,0.46
180.32,8.07,7.68,8.06,7.66,-7.66,-7.92,-6.60,0.42,0.40,0.39
182.13,8.02,7.68,8.01,7.67,-7.67,-7.93,-6.61,0.36,0.34,0.34
183.95,7.96,7.68,7.96,7.68,-7.68,-7.94,-6.63,0.28,0.28,0.29
185.79,7.92,7.70,7.92,7.69,-7.69,-7.94,-6.65,0.23,0.23,0.23
187.65,7.86,7.69,7.87,7.70,-7.70,-7.95,-6.67,0.17,0.17,0.18
189.52,7.80,7.69,7.82,7.70,-7.70,-7.95,-6.70,0.10,0.12,0.12
191.42,7.77,7.70,7.77,7.71,-7.71,-7.95,-6.74,0.07,0.07,0.08
193.33,7.71,7.69,7.72,7.71,-7.71,-7.95,-6.78,0.01,0.02,0.02
195.27,7.70,7.74,7.67,7.71,-7.71,-7.94,-6.82,-0.00,-0.03,-0.03
197.22,7.64,7.73,7.61,7.70,-7.70,-7.93,-6.87,-0.05,-0.08,-0.09
199.19,7.56,7.70,7.55,7.68,-7.68,-7.93,-6.92,-0.12,-0.13,-0.13
201.18,7.52,7.71,7.49,7.67,-7.67,-7.91,-6.97,-0.15,-0.18,-0.19
203.19,7.44,7.67,7.43,7.66,-7.66,-7.90,-7.03,-0.21,-0.23,-0.23
205.23,7.36,7.63,7.37,7.64,-7.64,-7.88,-7.08,-0.28,-0.27,-0.27
207.28,7.28,7.59,7.31,7.63,-7.63,-7.86,-7.15,-0.34,-0.32,-0.31
209.35,7.22,7.58,7.24,7.61,-7.61,-7.84,-7.21,-0.38,-0.36,-0.36
211.44,7.15,7.56,7.18,7.58,-7.58,-7.82,-7.27,-0.43,-0.41,-0.40
213.56,7.08,7.53,7.11,7.56,-7.56,-7.79,-7.34,-0.47,-0.45,-0.44
215.69,7.04,7.53,7.04,7.53,-7.53,-7.76,-7.40,-0.49,-0.49,-0.49
217.85,6.95,7.48,6.97,7.50,-7.50,-7.73,-7.46,-0.55,-0.53,-0.52
220.03,6.93,7.51,6.90,7.47,-7.47,-7.70,-7.52,-0.54,-0.57,-0.58
222.23,6.88,7.50,6.84,7.44,-7.44,-7.66,-7.58,-0.56,-0.60,-0.61
224.45,6.77,7.42,6.77,7.41,-7.41,-7.62,-7.64,-0.63,-0.64,-0.64
226.70,6.72,7.40,6.71,7.38,-7.38,-7.58,-7.69,-0.65,-0.67,-0.68
228.96,6.66,7.36,6.65,7.35,-7.35,-7.54,-7.74,-0.68,-0.70,-0.70
231.25,6.55,7.27,6.59,7.31,-7.31,-7.50,-7.79,-0.76,-0.72,-0.72
233.57,6.48,7.23,6.53,7.28,-7.28,-7.45,-7.82,-0.79,-0.74,-0.75
235.90,6.45,7.22,6.48,7.24,-7.24,-7.40,-7.85,-0.78,-0.76,-0.77
238.26,6.43,7.22,6.42,7.20,-7.20,-7.35,-7.88,-0.77,-0.78,-0.79
240.64,6.35,7.14,6.37,7.16,-7.16,-7.29,-7.89,-0.80,-0.79,-0.79
243.05,6.30,7.11,6.31,7.12,-7.12,-7.24,-7.90,-0.81,-0.81,-0.80
245.48,6.25,7.07,6.26,7.08,-7.08,-7.18,-7.89,-0.82,-0.82,-0.82
247.93,6.22,7.06,6.21,7.04,-7.04,-7.12,-7.88,-0.81,-0.83,-0.84
250.41,6.17,7.01,6.16,7.00,-7.00,-7.06,-7.86,-0.83,-0.84,-0.83
252.92,6.11,6.95,6.11,6.96,-6.96,-7.00,-7.83,-0.85,-0.85,-0.84
255.45,6.07,6.94,6.06,6.92,-6.92,-6.94,-7.78,-0.85,-0.86,-0.86
258.00,6.01,6.88,6.01,6.89,-6.89,-6.87,-7.73,-0.87,-0.88,-0.87
260.58,5.95,6.83,5.95,6.84,-6.84,-6.80,-7.67,-0.89,-0.89,-0.88
263.19,5.90,6.80,5.89,6.79,-6.79,-6.74,-7.60,-0.89,-0.90,-0.89
265.82,5.82,6.74,5.83,6.75,-6.75,-6.67,-7.53,-0.92,-0.92,-0.92
268.48,5.76,6.69,5.76,6.70,-6.70,-6.60,-7.44,-0.93,-0.93,-0.93
271.16,5.71,6.66,5.69,6.64,-6.64,-6.52,-7.35,-0.93,-0.95,-0.95
273.87,5.62,6.58,5.62,6.58,-6.58,-6.45,-7.25,-0.96,-0.96,-0.96
276.61,5.57,6.56,5.55,6.52,-6.52,-6.38,-7.15,-0.95,-0.98,-0.98
279.38,5.46,6.48,5.47,6.46,-6.46,-6.31,-7.04,-1.00,-0.99,-1.01
282.17,5.40,6.42,5.40,6.40,-6.40,-6.23,-6.93,-1.00,-1.00,-1.01
284.99,5.31,6.34,5.33,6.34,-6.34,-6.16,-6.81,-1.03,-1.01,-1.02
287.84,5.21,6.24,5.26,6.28,-6.28,-6.08,-6.70,-1.06,-1.02,-1.02
290.72,5.21,6.25,5.19,6.22,-6.22,-6.00,-6.58,-1.00,-1.03,-1.04
293.63,5.10,6.14,5.12,6.16,-6.16,-5.93,-6.46,-1.05,-1.04,-1.04
296.57,5.00,6.04,5.05,6.10,-6.10,-5.85,-6.33,-1.09,-1.04,-1.04
299.53,4.96,6.01,4.99,6.04,-6.04,-5.77,-6.21,-1.07,-1.05,-1.05
302.53,4.92,5.97,4.93,5.98,-5.98,-5.70,-6.09,-1.06,-1.05,-1.04
305.55,4.88,5.94,4.87,5.93,-5.93,-5.62,-5.97,-1.04,-1.06,-1.05
308.61,4.81,5.86,4.81,5.87,-5.87,-5.54,-5.85,-1.06,-1.06,-1.05
311.69,4.76,5.83,4.75,5.82,-5.82,-5.46,-5.73,-1.05,-1.06,-1.07
314.81,4.70,5.77,4.70,5.76,-5.76,-5.39,-5.62,-1.06,-1.07,-1.06
317.96,4.63,5.71,4.64,5.71,-5.71,-5.31,-5.50,-1.08,-1.07,-1.08
321.14,4.58,5.66,4.57,5.65,-5.65,-5.23,-5.39,-1.07,-1.08,-1.08
324.35,4.51,5.60,4.51,5.58,-5.58,-5.15,-5.29,-1.07,-1.08,-1.08
327.59,4.45,5.53,4.44,5.52,-5.52,-5.08,-5.18,-1.07,-1.08,-1.08
330.87,4.39,5.48,4.37,5.46,-5.46,-5.00,-5.08,-1.07,-1.09,-1.08
334.18,4.30,5.40,4.30,5.39,-5.39,-4.92,-4.98,-1.09,-1.09,-1.10
337.52,4.25,5.35,4.22,5.31,-5.31,-4.85,-4.88,-1.06,-1.09,-1.09
340.90,4.13,5.23,4.15,5.24,-5.24,-4.77,-4.79,-1.10,-1.09,-1.10
344.30,4.06,5.16,4.07,5.16,-5.16,-4.70,-4.70,-1.10,-1.09,-1.09
347.75,3.99,5.08,3.99,5.08,-5.08,-4.62,-4.61,-1.09,-1.09,-1.09
351.23,3.88,4.99,3.91,5.00,-5.00,-4.55,-4.53,-1.12,-1.09,-1.10
354.74,3.80,4.89,3.84,4.92,-4.92,-4.47,-4.45,-1.12,-1.09,-1.09
358.28,3.78,4.87,3.76,4.85,-4.85,-4.40,-4.37,-1.06,-1.08,-1.09
361.87,3.70,4.79,3.69,4.77,-4.77,-4.33,-4.30,-1.07,-1.08,-1.08
365.49,3.61,4.69,3.62,4.70,-4.70,-4.26,-4.23,-1.09,-1.08,-1.08
369.14,3.52,4.60,3.55,4.63,-4.63,-4.19,-4.17,-1.10,-1.08,-1.07
372.83,3.47,4.54,3.49,4.56,-4.56,-4.11,-4.10,-1.09,-1.07,-1.07
376.56,3.42,4.49,3.43,4.50,-4.50,-4.04,-4.04,-1.07,-1.07,-1.07
380.33,3.35,4.43,3.37,4.44,-4.44,-3.97,-3.99,-1.08,-1.07,-1.07
384.13,3.31,4.38,3.30,4.38,-4.38,-3.90,-3.93,-1.06,-1.07,-1.07
387.97,3.25,4.32,3.24,4.32,-4.32,-3.84,-3.88,-1.06,-1.08,-1.07
391.85,3.18,4.26,3.18,4.26,-4.26,-3.77,-3.83,-1.07,-1.08,-1.07
395.77,3.13,4.22,3.11,4.20,-4.20,-3.70,-3.79,-1.06,-1.09,-1.08
399.73,3.05,4.14,3.04,4.14,-4.14,-3.63,-3.74,-1.08,-1.09,-1.09
403.72,2.99,4.07,2.98,4.08,-4.08,-3.57,-3.70,-1.09,-1.10,-1.08
407.76,2.94,4.05,2.92,4.02,-4.02,-3.50,-3.66,-1.08,-1.10,-1.10
411.84,2.89,4.00,2.85,3.96,-3.96,-3.44,-3.62,-1.06,-1.11,-1.10
415.96,2.77,3.88,2.78,3.89,-3.89,-3.37,-3.59,-1.12,-1.11,-1.11
420.12,2.70,3.82,2.72,3.83,-3.83,-3.31,-3.55,-1.12,-1.10,-1.12
424.32,2.64,3.75,2.66,3.76,-3.76,-3.25,-3.52,-1.11,-1.10,-1.11
428.56,2.58,3.68,2.60,3.69,-3.69,-3.19,-3.48,-1.11,-1.09,-1.09
432.85,2.55,3.63,2.55,3.62,-3.62,-3.12,-3.45,-1.07,-1.07,-1.07
437.18,2.50,3.57,2.52,3.56,-3.56,-3.06,-3.42,-1.05,-1.04,-1.07
441.55,2.46,3.49,2.48,3.49,-3.49,-3.00,-3.39,-1.03,-1.01,-1.03
445.96,2.42,3.41,2.45,3.43,-3.43,-2.94,-3.36,-1.01,-0.97,-0.99
450.42,2.35,3.31,2.43,3.37,-3.37,-2.89,-3.33,-1.01,-0.93,-0.95
454.93,2.37,3.28,2.42,3.30,-3.30,-2.83,-3.29,-0.93,-0.89,-0.90
459.48,2.43,3.28,2.40,3.24,-3.24,-2.77,-3.26,-0.80,-0.84,-0.84
464.07,2.39,3.17,2.39,3.18,-3.18,-2.71,-3.23,-0.78,-0.78,-0.78
468.71,2.37,3.10,2.38,3.11,-3.11,-2.66,-3.19,-0.74,-0.73,-0.73
473.40,2.39,3.06,2.37,3.04,-3.04,-2.60,-3.15,-0.65,-0.68,-0.67
