frequency,raw,error,smoothed,error_smoothed,equalization,parametric_eq,fixed_band_eq,equalized_raw,equalized_smoothed,target
20.00,-13.43,-14.00,-13.43,-14.03,14.03,12.68,4.61,0.59,0.59,0.57
20.20,-13.29,-13.91,-13.29,-13.92,13.92,12.77,4.73,0.63,0.63,0.62
20.40,-13.15,-13.82,-13.15,-13.82,13.82,12.85,4.85,0.67,0.67,0.67
20.61,-13.02,-13.71,-13.01,-13.71,13.71,12.92,4.98,0.70,0.70,0.70
20.81,-12.87,-13.62,-12.87,-13.61,13.61,12.97,5.11,0.73,0.73,0.75
21.02,-12.73,-13.52,-12.74,-13.50,13.50,13.00,5.24,0.76,0.76,0.79
21.23,-12.60,-13.41,-12.60,-13.39,13.39,13.02,5.38,0.79,0.79,0.81
21.44,-12.48,-13.31,-12.47,-13.28,13.28,13.03,5.52,0.80,0.81,0.83
21.66,-12.35,-13.20,-12.34,-13.17,13.17,13.02,5.66,0.81,0.83,0.85
21.87,-12.22,-13.08,-12.20,-13.05,13.05,12.99,5.81,0.83,0.85,0.86
22.09,-12.08,-12.96,-12.07,-12.94,12.94,12.95,5.96,0.86,0.86,0.88
22.31,-11.93,-12.82,-11.95,-12.82,12.82,12.89,6.12,0.89,0.88,0.89
22.54,-11.78,-12.67,-11.83,-12.71,12.71,12.81,6.28,0.93,0.88,0.89
22.76,-11.62,-12.51,-11.71,-12.59,12.59,12.73,6.45,0.97,0.89,0.89
22.99,-11.47,-12.35,-11.58,-12.47,12.47,12.63,6.62,1.00,0.89,0.88
23.22,-11.40,-12.28,-11.46,-12.35,12.35,12.52,6.79,0.94,0.89,0.88
23.45,-11.34,-12.22,-11.33,-12.22,12.22,12.40,6.97,0.88,0.89,0.88
23.69,-11.27,-12.16,-11.20,-12.09,12.09,12.26,7.15,0.82,0.89,0.89
23.92,-11.21,-12.10,-11.07,-11.96,11.96,12.12,7.34,0.75,0.89,0.89
24.16,-11.06,-11.95,-10.95,-11.83,11.83,11.97,7.53,0.77,0.89,0.89
24.40,-10.88,-11.78,-10.81,-11.70,11.70,11.82,7.72,0.82,0.89,0.90
24.65,-10.69,-11.58,-10.68,-11.57,11.57,11.66,7.92,0.88,0.89,0.89
24.89,-10.50,-11.39,-10.55,-11.44,11.44,11.49,8.12,0.94,0.89,0.89
25.14,-10.35,-11.24,-10.41,-11.30,11.30,11.32,8.32,0.95,0.89,0.89
25.39,-10.23,-11.13,-10.28,-11.17,11.17,11.15,8.53,0.94,0.89,0.90
25.65,-10.11,-11.01,-10.14,-11.04,11.04,10.97,8.74,0.92,0.89,0.90
25.91,-9.98,-10.87,-10.01,-10.90,10.90,10.80,8.96,0.92,0.89,0.89
26.16,-9.86,-10.75,-9.88,-10.77,10.77,10.62,9.17,0.91,0.89,0.89
26.43,-9.73,-10.62,-9.76,-10.65,10.65,10.44,9.39,0.91,0.89,0.89
26.69,-9.61,-10.50,-9.64,-10.53,10.53,10.26,9.60,0.91,0.89,0.89
26.96,-9.48,-10.37,-9.53,-10.41,10.41,10.08,9.82,0.93,0.88,0.89
27.23,-9.39,-10.28,-9.42,-10.30,10.30,9.90,10.03,0.91,0.88,0.89
27.50,-9.31,-10.20,-9.30,-10.18,10.18,9.73,10.24,0.87,0.88,0.89
27.77,-9.23,-10.11,-9.18,-10.06,10.06,9.55,10.45,0.83,0.88,0.88
28.05,-9.14,-10.02,-9.06,-9.93,9.93,9.37,10.65,0.79,0.88,0.88
28.33,-9.00,-9.87,-8.92,-9.80,9.80,9.20,10.84,0.80,0.88,0.87
28.62,-8.85,-9.72,-8.79,-9.66,9.66,9.03,11.02,0.81,0.87,0.87
28.90,-8.70,-9.58,-8.65,-9.53,9.53,8.86,11.18,0.82,0.87,0.88
29.19,-8.53,-9.40,-8.52,-9.39,9.39,8.69,11.34,0.86,0.87,0.87
29.48,-8.35,-9.23,-8.38,-9.25,9.25,8.53,11.47,0.90,0.87,0.88
29.78,-8.17,-9.04,-8.24,-9.11,9.11,8.36,11.59,0.93,0.87,0.87
30.08,-8.02,-8.89,-8.09,-8.96,8.96,8.20,11.68,0.94,0.87,0.88
30.38,-7.89,-8.76,-7.95,-8.81,8.81,8.05,11.76,0.92,0.87,0.87
30.68,-7.77,-8.64,-7.81,-8.67,8.67,7.89,11.81,0.90,0.86,0.87
30.99,-7.66,-8.53,-7.67,-8.54,8.54,7.74,11.83,0.87,0.86,0.87
31.30,-7.55,-8.41,-7.55,-8.41,8.41,7.59,11.83,0.86,0.86,0.86
31.61,-7.44,-8.30,-7.43,-8.29,8.29,7.44,11.80,0.85,0.86,0.86
31.93,-7.34,-8.20,-7.32,-8.17,8.17,7.29,11.75,0.83,0.85,0.86
32.24,-7.21,-8.06,-7.20,-8.05,8.05,7.15,11.67,0.84,0.85,0.85
32.57,-7.08,-7.93,-7.09,-7.94,7.94,7.01,11.57,0.85,0.85,0.85
32.89,-6.95,-7.80,-6.98,-7.82,7.82,6.87,11.45,0.87,0.84,0.85
33.22,-6.86,-7.70,-6.87,-7.71,7.71,6.73,11.31,0.85,0.84,0.84
33.55,-6.79,-7.63,-6.76,-7.59,7.59,6.60,11.15,0.80,0.83,0.84
33.89,-6.71,-7.54,-6.64,-7.47,7.47,6.47,10.97,0.76,0.83,0.83
34.23,-6.58,-7.41,-6.52,-7.35,7.35,6.34,10.78,0.76,0.82,0.83
34.57,-6.41,-7.23,-6.41,-7.23,7.23,6.21,10.58,0.82,0.82,0.82
34.92,-6.24,-7.06,-6.29,-7.11,7.11,6.09,10.38,0.87,0.82,0.82
35.27,-6.14,-6.95,-6.18,-6.99,6.99,5.97,10.16,0.85,0.81,0.81
35.62,-6.05,-6.86,-6.07,-6.88,6.88,5.85,9.94,0.83,0.81,0.81
35.97,-5.97,-6.78,-5.96,-6.77,6.77,5.73,9.71,0.80,0.81,0.81
36.33,-5.84,-6.65,-5.85,-6.66,6.66,5.61,9.49,0.81,0.81,0.81
36.70,-5.71,-6.51,-5.74,-6.55,6.55,5.50,9.26,0.83,0.80,0.80
37.06,-5.60,-6.40,-5.63,-6.43,6.43,5.39,9.03,0.83,0.80,0.80
37.43,-5.52,-6.33,-5.52,-6.32,6.32,5.28,8.80,0.80,0.80,0.81
37.81,-5.44,-6.25,-5.42,-6.22,6.22,5.17,8.57,0.78,0.80,0.81
38.19,-5.35,-6.15,-5.32,-6.12,6.12,5.07,8.35,0.77,0.81,0.80
38.57,-5.23,-6.04,-5.22,-6.03,6.03,4.97,8.12,0.80,0.81,0.81
38.95,-5.12,-5.94,-5.13,-5.93,5.93,4.86,7.90,0.81,0.81,0.82
39.34,-5.02,-5.83,-5.03,-5.83,5.83,4.77,7.68,0.81,0.81,0.81
39.74,-4.91,-5.72,-4.92,-5.73,5.73,4.67,7.47,0.82,0.81,0.81
40.14,-4.81,-5.62,-4.81,-5.62,5.62,4.57,7.26,0.81,0.81,0.81
40.54,-4.71,-5.52,-4.71,-5.51,5.51,4.48,7.05,0.80,0.80,0.81
40.94,-4.60,-5.40,-4.61,-5.41,5.41,4.39,6.85,0.80,0.80,0.80
41.35,-4.52,-5.32,-4.51,-5.30,5.30,4.30,6.65,0.78,0.80,0.80
41.76,-4.44,-5.23,-4.41,-5.19,5.19,4.21,6.45,0.75,0.79,0.79
42.18,-4.34,-5.13,-4.31,-5.09,5.09,4.12,6.26,0.75,0.78,0.79
42.60,-4.21,-4.99,-4.21,-4.98,4.98,4.03,6.07,0.77,0.77,0.78
43.03,-4.07,-4.84,-4.11,-4.87,4.87,3.95,5.89,0.79,0.76,0.77
43.46,-3.96,-4.72,-4.01,-4.76,4.76,3.87,5.71,0.80,0.75,0.76
43.90,-3.85,-4.59,-3.92,-4.65,4.65,3.78,5.53,0.80,0.73,0.74
44.33,-3.80,-4.52,-3.83,-4.55,4.55,3.71,5.36,0.75,0.72,0.72
44.78,-3.78,-4.48,-3.75,-4.46,4.46,3.63,5.19,0.67,0.71,0.70
45.23,-3.72,-4.41,-3.66,-4.36,4.36,3.55,5.03,0.63,0.70,0.69
45.68,-3.61,-4.29,-3.57,-4.25,4.25,3.47,4.86,0.64,0.68,0.68
46.13,-3.49,-4.15,-3.49,-4.15,4.15,3.40,4.70,0.66,0.67,0.66
46.60,-3.37,-4.03,-3.41,-4.06,4.06,3.33,4.55,0.69,0.65,0.66
47.06,-3.27,-3.91,-3.33,-3.97,3.97,3.26,4.40,0.69,0.64,0.64
47.53,-3.25,-3.88,-3.25,-3.87,3.87,3.18,4.25,0.62,0.62,0.63
48.01,-3.23,-3.86,-3.17,-3.78,3.78,3.12,4.10,0.55,0.61,0.63
48.49,-3.13,-3.74,-3.10,-3.70,3.70,3.05,3.96,0.56,0.60,0.61
48.97,-3.04,-3.63,-3.03,-3.61,3.61,2.98,3.82,0.57,0.58,0.59
49.46,-2.92,-3.49,-2.95,-3.52,3.52,2.91,3.68,0.60,0.57,0.57
49.96,-2.80,-3.35,-2.87,-3.43,3.43,2.85,3.55,0.63,0.56,0.55
50.46,-2.79,-3.33,-2.81,-3.35,3.35,2.79,3.42,0.56,0.54,0.54
50.96,-2.78,-3.31,-2.75,-3.28,3.28,2.72,3.29,0.49,0.53,0.53
51.47,-2.69,-3.20,-2.69,-3.20,3.20,2.66,3.16,0.51,0.52,0.51
51.99,-2.58,-3.08,-2.63,-3.13,3.13,2.60,3.04,0.55,0.50,0.50
52.51,-2.57,-3.06,-2.57,-3.06,3.06,2.54,2.92,0.48,0.49,0.49
53.03,-2.56,-3.05,-2.51,-2.98,2.98,2.48,2.80,0.42,0.48,0.49
53.56,-2.46,-2.93,-2.45,-2.91,2.91,2.43,2.69,0.45,0.47,0.47
54.10,-2.37,-2.83,-2.40,-2.85,2.85,2.37,2.57,0.48,0.45,0.46
54.64,-2.32,-2.76,-2.34,-2.79,2.79,2.31,2.47,0.47,0.44,0.44
55.18,-2.28,-2.72,-2.29,-2.73,2.73,2.26,2.36,0.44,0.43,0.44
55.74,-2.28,-2.70,-2.24,-2.66,2.66,2.20,2.26,0.38,0.42,0.42
56.29,-2.22,-2.63,-2.19,-2.60,2.60,2.15,2.15,0.38,0.41,0.41
56.86,-2.11,-2.51,-2.14,-2.54,2.54,2.10,2.06,0.43,0.40,0.40
57.42,-2.08,-2.45,-2.10,-2.48,2.48,2.05,1.96,0.40,0.38,0.37
58.00,-2.08,-2.44,-2.05,-2.41,2.41,2.00,1.87,0.33,0.36,0.36
58.58,-1.99,-2.34,-2.01,-2.34,2.34,1.95,1.78,0.35,0.34,0.35
59.16,-1.92,-2.25,-1.96,-2.27,2.27,1.90,1.70,0.35,0.31,0.33
59.76,-1.89,-2.20,-1.92,-2.21,2.21,1.85,1.61,0.32,0.28,0.31
60.35,-1.88,-2.15,-1.89,-2.15,2.15,1.80,1.53,0.26,0.25,0.27
60.96,-1.88,-2.11,-1.86,-2.08,2.08,1.75,1.46,0.20,0.22,0.23
61.57,-1.88,-2.07,-1.82,-2.01,2.01,1.71,1.38,0.13,0.18,0.19
62.18,-1.84,-1.99,-1.79,-1.94,1.94,1.66,1.31,0.09,0.15,0.15
62.80,-1.71,-1.81,-1.76,-1.86,1.86,1.61,1.24,0.15,0.11,0.10
63.43,-1.67,-1.73,-1.73,-1.79,1.79,1.57,1.18,0.12,0.06,0.06
64.07,-1.67,-1.68,-1.69,-1.71,1.71,1.52,1.11,0.04,0.02,0.01
64.71,-1.67,-1.64,-1.66,-1.64,1.64,1.48,1.05,-0.04,-0.03,-0.03
65.35,-1.67,-1.60,-1.64,-1.57,1.57,1.44,1.00,-0.11,-0.07,-0.07
66.01,-1.67,-1.55,-1.62,-1.49,1.49,1.40,0.94,-0.18,-0.12,-0.12
66.67,-1.61,-1.44,-1.59,-1.42,1.42,1.35,0.89,-0.19,-0.17,-0.17
67.33,-1.55,-1.33,-1.56,-1.34,1.34,1.31,0.84,-0.21,-0.22,-0.22
68.01,-1.48,-1.22,-1.53,-1.27,1.27,1.27,0.79,-0.22,-0.27,-0.26
68.69,-1.47,-1.16,-1.51,-1.19,1.19,1.23,0.75,-0.28,-0.32,-0.31
69.37,-1.47,-1.11,-1.49,-1.12,1.12,1.19,0.70,-0.35,-0.37,-0.36
70.07,-1.47,-1.06,-1.47,-1.06,1.06,1.15,0.66,-0.42,-0.42,-0.41
70.77,-1.47,-1.01,-1.45,-0.98,0.98,1.11,0.62,-0.49,-0.47,-0.46
71.48,-1.47,-0.96,-1.43,-0.91,0.91,1.07,0.58,-0.57,-0.53,-0.51
72.19,-1.45,-0.87,-1.42,-0.83,0.83,1.03,0.54,-0.62,-0.58,-0.58
72.91,-1.38,-0.74,-1.40,-0.76,0.76,0.99,0.50,-0.62,-0.64,-0.64
73.64,-1.37,-0.68,-1.39,-0.70,0.70,0.96,0.47,-0.67,-0.70,-0.69
74.38,-1.37,-0.62,-1.39,-0.64,0.64,0.92,0.43,-0.74,-0.75,-0.75
75.12,-1.37,-0.56,-1.38,-0.58,0.58,0.88,0.40,-0.80,-0.81,-0.81
75.87,-1.37,-0.50,-1.38,-0.52,0.52,0.84,0.37,-0.85,-0.86,-0.87
76.63,-1.37,-0.45,-1.37,-0.46,0.46,0.81,0.33,-0.92,-0.92,-0.92
77.40,-1.37,-0.40,-1.37,-0.40,0.40,0.77,0.30,-0.97,-0.97,-0.97
78.17,-1.37,-0.34,-1.37,-0.34,0.34,0.73,0.27,-1.03,-1.02,-1.03
78.95,-1.37,-0.30,-1.36,-0.29,0.29,0.70,0.24,-1.08,-1.08,-1.07
79.74,-1.37,-0.25,-1.37,-0.24,0.24,0.66,0.20,-1.13,-1.12,-1.12
80.54,-1.37,-0.20,-1.37,-0.20,0.20,0.63,0.17,-1.18,-1.17,-1.17
81.35,-1.37,-0.15,-1.37,-0.15,0.15,0.59,0.14,-1.22,-1.22,-1.22
82.16,-1.37,-0.10,-1.37,-0.10,0.10,0.56,0.11,-1.27,-1.27,-1.27
82.98,-1.37,-0.06,-1.37,-0.06,0.06,0.52,0.08,-1.32,-1.32,-1.31
83.81,-1.37,-0.01,-1.37,-0.01,0.01,0.49,0.04,-1.36,-1.36,-1.36
84.65,-1.37,0.04,-1.37,0.04,-0.04,0.45,0.01,-1.42,-1.41,-1.41
85.50,-1.37,0.08,-1.36,0.10,-0.10,0.42,-0.02,-1.47,-1.46,-1.45
86.35,-1.37,0.13,-1.36,0.15,-0.15,0.38,-0.06,-1.52,-1.51,-1.50
87.22,-1.37,0.18,-1.37,0.19,-0.19,0.35,-0.09,-1.57,-1.56,-1.55
88.09,-1.37,0.23,-1.37,0.24,-0.24,0.31,-0.12,-1.61,-1.61,-1.60
88.97,-1.37,0.29,-1.37,0.29,-0.29,0.28,-0.16,-1.66,-1.66,-1.66
89.86,-1.37,0.34,-1.38,0.33,-0.33,0.24,-0.19,-1.70,-1.71,-1.71
90.76,-1.37,0.39,-1.39,0.38,-0.38,0.21,-0.23,-1.75,-1.76,-1.76
91.66,-1.37,0.44,-1.40,0.42,-0.42,0.18,-0.26,-1.79,-1.81,-1.81
92.58,-1.37,0.50,-1.41,0.46,-0.46,0.14,-0.30,-1.83,-1.86,-1.87
93.51,-1.39,0.53,-1.41,0.50,-0.50,0.11,-0.34,-1.89,-1.91,-1.92
94.44,-1.45,0.51,-1.42,0.54,-0.54,0.07,-0.37,-2.00,-1.96,-1.96
95.39,-1.48,0.53,-1.43,0.58,-0.58,0.04,-0.41,-2.06,-2.01,-2.01
96.34,-1.47,0.59,-1.45,0.61,-0.61,0.01,-0.45,-2.09,-2.06,-2.06
97.30,-1.48,0.63,-1.47,0.64,-0.64,-0.03,-0.48,-2.13,-2.11,-2.11
98.28,-1.49,0.67,-1.48,0.68,-0.68,-0.06,-0.52,-2.17,-2.16,-2.16
99.26,-1.50,0.70,-1.50,0.71,-0.71,-0.09,-0.56,-2.21,-2.21,-2.20
100.25,-1.52,0.73,-1.52,0.73,-0.73,-0.13,-0.60,-2.25,-2.26,-2.25
101.25,-1.54,0.76,-1.55,0.76,-0.76,-0.16,-0.64,-2.30,-2.30,-2.30
102.27,-1.55,0.80,-1.58,0.77,-0.77,-0.20,-0.68,-2.32,-2.35,-2.35
103.29,-1.57,0.83,-1.62,0.78,-0.78,-0.23,-0.71,-2.35,-2.40,-2.40
104.32,-1.63,0.81,-1.66,0.79,-0.79,-0.26,-0.75,-2.42,-2.45,-2.44
105.37,-1.74,0.75,-1.71,0.79,-0.79,-0.30,-0.79,-2.53,-2.50,-2.49
106.42,-1.75,0.79,-1.76,0.79,-0.79,-0.33,-0.83,-2.54,-2.55,-2.54
107.48,-1.74,0.86,-1.81,0.79,-0.79,-0.37,-0.86,-2.54,-2.60,-2.60
108.56,-1.79,0.86,-1.86,0.79,-0.79,-0.40,-0.90,-2.59,-2.66,-2.65
109.64,-1.97,0.73,-1.92,0.79,-0.79,-0.44,-0.93,-2.76,-2.71,-2.70
110.74,-2.04,0.72,-1.98,0.78,-0.78,-0.47,-0.96,-2.82,-2.76,-2.76
111.85,-2.06,0.74,-2.05,0.77,-0.77,-0.50,-1.00,-2.83,-2.81,-2.80
112.97,-2.20,0.66,-2.10,0.76,-0.76,-0.54,-1.03,-2.96,-2.86,-2.86
114.10,-2.20,0.71,-2.15,0.76,-0.76,-0.57,-1.06,-2.96,-2.91,-2.91
115.24,-2.16,0.80,-2.20,0.75,-0.75,-0.61,-1.08,-2.92,-2.96,-2.96
116.39,-2.22,0.79,-2.25,0.75,-0.75,-0.64,-1.11,-2.97,-3.00,-3.01
117.55,-2.25,0.80,-2.30,0.74,-0.74,-0.68,-1.13,-2.99,-3.04,-3.05
118.73,-2.31,0.78,-2.37,0.72,-0.72,-0.71,-1.16,-3.03,-3.08,-3.09
119.92,-2.46,0.66,-2.42,0.70,-0.70,-0.74,-1.18,-3.16,-3.12,-3.12
121.12,-2.51,0.65,-2.47,0.69,-0.69,-0.78,-1.19,-3.20,-3.16,-3.16
122.33,-2.46,0.73,-2.51,0.69,-0.69,-0.81,-1.21,-3.15,-3.19,-3.19
123.55,-2.47,0.75,-2.54,0.69,-0.69,-0.85,-1.22,-3.16,-3.23,-3.22
124.79,-2.52,0.73,-2.57,0.69,-0.69,-0.88,-1.23,-3.21,-3.26,-3.25
126.03,-2.59,0.69,-2.60,0.69,-0.69,-0.91,-1.24,-3.28,-3.29,-3.28
127.29,-2.71,0.59,-2.63,0.69,-0.69,-0.95,-1.24,-3.40,-3.32,-3.30
128.57,-2.78,0.56,-2.65,0.69,-0.69,-0.98,-1.24,-3.47,-3.35,-3.34
129.85,-2.75,0.62,-2.67,0.71,-0.71,-1.01,-1.24,-3.46,-3.37,-3.37
131.15,-2.76,0.64,-2.68,0.72,-0.72,-1.04,-1.24,-3.49,-3.40,-3.40
132.46,-2.63,0.80,-2.68,0.75,-0.75,-1.08,-1.24,-3.38,-3.43,-3.43
133.79,-2.57,0.89,-2.68,0.78,-0.78,-1.11,-1.23,-3.35,-3.46,-3.46
135.12,-2.58,0.91,-2.69,0.80,-0.80,-1.14,-1.22,-3.38,-3.49,-3.49
136.48,-2.63,0.88,-2.69,0.83,-0.83,-1.17,-1.21,-3.46,-3.51,-3.51
137.84,-2.74,0.81,-2.68,0.86,-0.86,-1.20,-1.20,-3.60,-3.54,-3.55
139.22,-2.70,0.88,-2.68,0.90,-0.90,-1.23,-1.19,-3.60,-3.57,-3.58
140.61,-2.66,0.95,-2.67,0.94,-0.94,-1.26,-1.17,-3.60,-3.60,-3.61
142.02,-2.66,0.97,-2.66,0.98,-0.98,-1.28,-1.16,-3.64,-3.63,-3.63
143.44,-2.66,1.00,-2.65,1.02,-1.02,-1.31,-1.14,-3.68,-3.67,-3.66
144.87,-2.66,1.04,-2.65,1.06,-1.06,-1.34,-1.12,-3.72,-3.71,-3.70
146.32,-2.66,1.08,-2.65,1.10,-1.10,-1.36,-1.10,-3.76,-3.75,-3.74
147.78,-2.66,1.11,-2.65,1.15,-1.15,-1.39,-1.08,-3.81,-3.80,-3.77
149.26,-2.66,1.16,-2.65,1.21,-1.21,-1.41,-1.06,-3.87,-3.85,-3.82
150.75,-2.66,1.22,-2.64,1.27,-1.27,-1.43,-1.04,-3.93,-3.91,-3.88
152.26,-2.66,1.29,-2.65,1.32,-1.32,-1.45,-1.02,-3.99,-3.97,-3.95
153.78,-2.66,1.36,-2.66,1.38,-1.38,-1.47,-1.00,-4.04,-4.04,-4.02
155.32,-2.66,1.43,-2.68,1.43,-1.43,-1.49,-0.98,-4.09,-4.11,-4.09
156.88,-2.65,1.52,-2.71,1.47,-1.47,-1.51,-0.96,-4.12,-4.18,-4.17
158.44,-2.65,1.60,-2.74,1.51,-1.51,-1.53,-0.94,-4.16,-4.25,-4.25
160.03,-2.72,1.61,-2.78,1.53,-1.53,-1.54,-0.92,-4.26,-4.32,-4.33
161.63,-2.79,1.61,-2.82,1.56,-1.56,-1.55,-0.90,-4.35,-4.38,-4.40
163.24,-2.79,1.67,-2.87,1.57,-1.57,-1.57,-0.88,-4.36,-4.44,-4.46
164.88,-2.93,1.58,-2.92,1.58,-1.58,-1.58,-0.86,-4.51,-4.50,-4.51
166.53,-3.09,1.47,-2.96,1.58,-1.58,-1.58,-0.84,-4.68,-4.55,-4.56
168.19,-3.09,1.51,-3.01,1.58,-1.58,-1.59,-0.82,-4.67,-4.59,-4.60
169.87,-3.02,1.62,-3.05,1.57,-1.57,-1.60,-0.80,-4.59,-4.62,-4.64
171.57,-3.15,1.51,-3.10,1.54,-1.54,-1.60,-0.79,-4.69,-4.65,-4.66
173.29,-3.20,1.47,-3.15,1.52,-1.52,-1.60,-0.77,-4.72,-4.66,-4.67
175.02,-3.20,1.48,-3.18,1.49,-1.49,-1.60,-0.76,-4.70,-4.68,-4.68
176.77,-3.20,1.49,-3.21,1.47,-1.47,-1.60,-0.74,-4.68,-4.69,-4.69
178.54,-3.20,1.50,-3.23,1.47,-1.47,-1.59,-0.73,-4.67,-4.70,-4.70
180.32,-3.20,1.49,-3.23,1.47,-1.47,-1.59,-0.71,-4.67,-4.70,-4.69
182.13,-3.19,1.49,-3.24,1.46,-1.46,-1.58,-0.70,-4.66,-4.71,-4.68
183.95,-3.19,1.50,-3.25,1.46,-1.46,-1.57,-0.69,-4.65,-4.71,-4.69
185.79,-3.32,1.37,-3.25,1.47,-1.47,-1.56,-0.68,-4.79,-4.72,-4.69
187.65,-3.37,1.34,-3.25,1.48,-1.48,-1.55,-0.67,-4.85,-4.73,-4.71
189.52,-3.27,1.45,-3.24,1.49,-1.49,-1.53,-0.66,-4.77,-4.74,-4.72
191.42,-3.23,1.51,-3.23,1.52,-1.52,-1.51,-0.65,-4.75,-4.75,-4.74
193.33,-3.22,1.54,-3.23,1.53,-1.53,-1.50,-0.64,-4.76,-4.76,-4.76
195.27,-3.20,1.58,-3.23,1.55,-1.55,-1.48,-0.63,-4.75,-4.78,-4.78
197.22,-3.19,1.61,-3.25,1.55,-1.55,-1.45,-0.62,-4.75,-4.80,-4.80
199.19,-3.28,1.54,-3.26,1.56,-1.56,-1.43,-0.61,-4.84,-4.82,-4.82
201.18,-3.39,1.45,-3.27,1.57,-1.57,-1.40,-0.61,-4.96,-4.84,-4.84
203.19,-3.27,1.59,-3.30,1.56,-1.56,-1.38,-0.60,-4.83,-4.86,-4.86
205.23,-3.13,1.75,-3.34,1.54,-1.54,-1.35,-0.59,-4.67,-4.88,-4.88
207.28,-3.25,1.64,-3.40,1.50,-1.50,-1.32,-0.59,-4.75,-4.90,-4.89
209.35,-3.40,1.51,-3.47,1.45,-1.45,-1.29,-0.58,-4.85,-4.92,-4.91
211.44,-3.58,1.36,-3.53,1.41,-1.41,-1.26,-0.58,-4.99,-4.94,-4.94
213.56,-3.59,1.36,-3.58,1.37,-1.37,-1.22,-0.57,-4.96,-4.95,-4.95
215.69,-3.62,1.34,-3.63,1.34,-1.34,-1.19,-0.57,-4.96,-4.97,-4.96
217.85,-3.75,1.22,-3.67,1.31,-1.31,-1.15,-0.56,-5.06,-4.98,-4.97
220.03,-3.77,1.21,-3.73,1.26,-1.26,-1.12,-0.56,-5.03,-4.99,-4.98
222.23,-3.91,1.10,-3.77,1.22,-1.22,-1.08,-0.56,-5.13,-4.99,-5.01
224.45,-4.02,0.98,-3.82,1.17,-1.17,-1.04,-0.55,-5.19,-5.00,-5.00
226.70,-4.04,0.96,-3.88,1.11,-1.11,-1.00,-0.55,-5.16,-4.99,-5.00
228.96,-3.95,1.04,-3.93,1.06,-1.06,-0.96,-0.55,-5.02,-4.99,-4.99
231.25,-3.69,1.29,-3.95,1.03,-1.03,-0.92,-0.54,-4.72,-4.98,-4.98
233.57,-3.68,1.29,-3.97,1.00,-1.00,-0.88,-0.54,-4.68,-4.97,-4.97
235.90,-3.88,1.08,-4.00,0.96,-0.96,-0.83,-0.53,-4.84,-4.96,-4.96
238.26,-4.00,0.95,-4.03,0.91,-0.91,-0.79,-0.53,-4.91,-4.94,-4.95
240.64,-4.20,0.72,-4.06,0.87,-0.87,-0.74,-0.53,-5.07,-4.92,-4.92
243.05,-4.23,0.66,-4.09,0.81,-0.81,-0.70,-0.52,-5.04,-4.90,-4.89
245.48,-4.08,0.79,-4.14,0.74,-0.74,-0.65,-0.52,-4.82,-4.88,-4.87
247.93,-4.18,0.66,-4.16,0.70,-0.70,-0.61,-0.51,-4.88,-4.85,-4.84
250.41,-4.23,0.59,-4.19,0.64,-0.64,-0.56,-0.51,-4.87,-4.83,-4.82
252.92,-4.23,0.56,-4.23,0.57,-0.57,-0.52,-0.50,-4.81,-4.80,-4.79
255.45,-4.22,0.55,-4.27,0.52,-0.52,-0.47,-0.50,-4.74,-4.78,-4.77
258.00,-4.27,0.48,-4.29,0.46,-0.46,-0.42,-0.49,-4.74,-4.76,-4.75
260.58,-4.43,0.30,-4.30,0.43,-0.43,-0.38,-0.49,-4.86,-4.73,-4.73
263.19,-4.39,0.31,-4.31,0.40,-0.40,-0.33,-0.48,-4.79,-4.71,-4.70
265.82,-4.31,0.37,-4.33,0.35,-0.35,-0.28,-0.47,-4.66,-4.68,-4.68
268.48,-4.53,0.13,-4.36,0.30,-0.30,-0.23,-0.47,-4.83,-4.66,-4.66
271.16,-4.31,0.32,-4.42,0.22,-0.22,-0.19,-0.46,-4.53,-4.63,-4.63
273.87,-4.15,0.46,-4.50,0.11,-0.11,-0.14,-0.45,-4.26,-4.61,-4.61
276.61,-4.52,0.06,-4.56,0.02,-0.02,-0.09,-0.45,-4.55,-4.58,-4.58
279.38,-4.48,0.07,-4.62,-0.06,0.06,-0.05,-0.44,-4.42,-4.55,-4.55
282.17,-4.48,0.05,-4.67,-0.15,0.15,0.00,-0.43,-4.34,-4.53,-4.53
284.99,-4.72,-0.23,-4.72,-0.22,0.22,0.05,-0.42,-4.50,-4.50,-4.49
287.84,-4.92,-0.45,-4.76,-0.30,0.30,0.09,-0.42,-4.63,-4.47,-4.47
290.72,-5.04,-0.60,-4.83,-0.39,0.39,0.14,-0.41,-4.65,-4.44,-4.44
293.63,-5.01,-0.60,-4.89,-0.48,0.48,0.18,-0.40,-4.53,-4.41,-4.41
296.57,-5.03,-0.65,-4.94,-0.56,0.56,0.22,-0.39,-4.47,-4.38,-4.38
299.53,-5.23,-0.88,-4.99,-0.63,0.63,0.27,-0.39,-4.60,-4.35,-4.35
302.53,-5.07,-0.74,-5.04,-0.71,0.71,0.31,-0.38,-4.36,-4.33,-4.33
305.55,-4.78,-0.49,-5.07,-0.77,0.77,0.35,-0.37,-4.02,-4.30,-4.29
308.61,-4.88,-0.61,-5.08,-0.80,0.80,0.38,-0.36,-4.08,-4.28,-4.27
311.69,-4.92,-0.68,-5.10,-0.84,0.84,0.42,-0.36,-4.08,-4.25,-4.24
314.81,-5.02,-0.80,-5.10,-0.87,0.87,0.46,-0.35,-4.16,-4.23,-4.22
317.96,-5.22,-1.02,-5.07,-0.86,0.86,0.49,-0.34,-4.36,-4.21,-4.20
321.14,-5.17,-0.98,-5.03,-0.84,0.84,0.52,-0.34,-4.33,-4.19,-4.19
324.35,-4.87,-0.70,-4.98,-0.81,0.81,0.56,-0.33,-4.06,-4.17,-4.17
327.59,-4.98,-0.82,-4.93,-0.77,0.77,0.58,-0.32,-4.21,-4.16,-4.16
330.87,-5.06,-0.91,-4.87,-0.72,0.72,0.61,-0.32,-4.34,-4.15,-4.15
334.18,-4.89,-0.76,-4.80,-0.66,0.66,0.64,-0.31,-4.23,-4.13,-4.13
337.52,-4.87,-0.75,-4.73,-0.60,0.60,0.66,-0.30,-4.27,-4.12,-4.12
340.90,-4.80,-0.69,-4.65,-0.53,0.53,0.68,-0.30,-4.27,-4.12,-4.11
344.30,-4.57,-0.47,-4.55,-0.44,0.44,0.70,-0.29,-4.13,-4.11,-4.10
347.75,-4.37,-0.27,-4.47,-0.36,0.36,0.71,-0.28,-4.01,-4.10,-4.10
351.23,-4.22,-0.13,-4.39,-0.29,0.29,0.72,-0.28,-3.94,-4.10,-4.09
354.74,-4.14,-0.04,-4.32,-0.22,0.22,0.73,-0.27,-3.92,-4.10,-4.10
358.28,-4.11,-0.02,-4.28,-0.19,0.19,0.74,-0.27,-3.92,-4.09,-4.09
361.87,-4.17,-0.08,-4.26,-0.17,0.17,0.74,-0.26,-4.00,-4.09,-4.09
365.49,-4.22,-0.14,-4.24,-0.15,0.15,0.74,-0.26,-4.07,-4.09,-4.08
369.14,-4.17,-0.08,-4.24,-0.15,0.15,0.74,-0.25,-4.02,-4.09,-4.09
372.83,-4.20,-0.11,-4.28,-0.18,0.18,0.74,-0.25,-4.02,-4.09,-4.09
376.56,-4.38,-0.28,-4.32,-0.22,0.22,0.73,-0.24,-4.16,-4.09,-4.10
380.33,-4.48,-0.39,-4.39,-0.29,0.29,0.72,-0.24,-4.19,-4.10,-4.09
384.13,-4.52,-0.43,-4.47,-0.37,0.37,0.71,-0.23,-4.15,-4.10,-4.09
387.97,-4.55,-0.45,-4.55,-0.44,0.44,0.69,-0.23,-4.11,-4.11,-4.10
391.85,-4.61,-0.50,-4.62,-0.51,0.51,0.67,-0.23,-4.11,-4.11,-4.11
395.77,-4.66,-0.56,-4.67,-0.56,0.56,0.65,-0.22,-4.11,-4.12,-4.10
399.73,-4.72,-0.61,-4.72,-0.60,0.60,0.62,-0.22,-4.12,-4.12,-4.11
403.72,-4.80,-0.69,-4.77,-0.64,0.64,0.60,-0.22,-4.16,-4.13,-4.11
407.76,-4.85,-0.72,-4.79,-0.66,0.66,0.57,-0.22,-4.19,-4.13,-4.13
411.84,-4.86,-0.73,-4.81,-0.68,0.68,0.53,-0.21,-4.19,-4.13,-4.13
415.96,-4.86,-0.73,-4.83,-0.69,0.69,0.50,-0.21,-4.17,-4.13,-4.13
420.12,-4.86,-0.73,-4.81,-0.68,0.68,0.46,-0.21,-4.18,-4.13,-4.13
424.32,-4.79,-0.66,-4.79,-0.67,0.67,0.42,-0.21,-4.13,-4.13,-4.13
428.56,-4.69,-0.57,-4.78,-0.66,0.66,0.38,-0.21,-4.03,-4.12,-4.12
432.85,-4.67,-0.56,-4.74,-0.64,0.64,0.34,-0.21,-4.03,-4.10,-4.11
437.18,-4.70,-0.60,-4.69,-0.61,0.61,0.30,-0.21,-4.09,-4.08,-4.10
441.55,-4.67,-0.61,-4.62,-0.57,0.57,0.25,-0.22,-4.10,-4.05,-4.06
