frequency,raw,error,smoothed,error_smoothed,equalization,parametric_eq,fixed_band_eq,equalized_raw,equalized_smoothed,target
20.00,-7.92,-14.36,-7.92,-14.36,14.36,14.22,6.20,6.44,6.43,6.44
20.20,-7.88,-14.30,-7.88,-14.30,14.30,14.16,6.35,6.42,6.43,6.43
20.40,-7.83,-14.25,-7.83,-14.25,14.25,14.11,6.50,6.42,6.42,6.42
20.61,-7.79,-14.21,-7.78,-14.20,14.20,14.05,6.66,6.41,6.42,6.42
20.81,-7.74,-14.14,-7.73,-14.15,14.15,14.00,6.82,6.41,6.41,6.40
21.02,-7.69,-14.09,-7.69,-14.10,14.10,13.94,6.98,6.41,6.41,6.40
21.23,-7.64,-14.04,-7.64,-14.04,14.04,13.89,7.15,6.40,6.41,6.40
21.44,-7.59,-14.00,-7.59,-13.99,13.99,13.83,7.32,6.40,6.40,6.41
21.66,-7.53,-13.93,-7.54,-13.94,13.94,13.78,7.50,6.41,6.40,6.40
21.87,-7.48,-13.89,-7.49,-13.89,13.89,13.72,7.68,6.41,6.40,6.41
22.09,-7.43,-13.83,-7.44,-13.84,13.84,13.67,7.87,6.41,6.40,6.40
22.31,-7.38,-13.78,-7.39,-13.79,13.79,13.62,8.06,6.41,6.40,6.41
22.54,-7.34,-13.74,-7.34,-13.74,13.74,13.56,8.26,6.40,6.40,6.40
22.76,-7.29,-13.69,-7.29,-13.69,13.69,13.51,8.46,6.40,6.40,6.40
22.99,-7.24,-13.64,-7.23,-13.64,13.64,13.46,8.67,6.40,6.40,6.40
23.22,-7.19,-13.59,-7.18,-13.59,13.59,13.40,8.88,6.40,6.41,6.40
23.45,-7.13,-13.54,-7.13,-13.54,13.54,13.35,9.10,6.41,6.41,6.41
23.69,-7.08,-13.49,-7.08,-13.49,13.49,13.30,9.33,6.41,6.41,6.41
23.92,-7.03,-13.44,-7.02,-13.43,13.43,13.25,9.56,6.41,6.41,6.41
24.16,-6.97,-13.38,-6.97,-13.38,13.38,13.20,9.80,6.41,6.42,6.42
24.40,-6.92,-13.34,-6.91,-13.33,13.33,13.15,10.04,6.41,6.42,6.42
24.65,-6.86,-13.28,-6.85,-13.27,13.27,13.10,10.29,6.41,6.42,6.42
24.89,-6.80,-13.22,-6.80,-13.22,13.22,13.05,10.54,6.42,6.42,6.42
25.14,-6.75,-13.17,-6.74,-13.16,13.16,13.00,10.80,6.41,6.42,6.42
25.39,-6.69,-13.12,-6.69,-13.11,13.11,12.95,11.07,6.42,6.42,6.43
25.65,-6.64,-13.07,-6.64,-13.06,13.06,12.90,11.34,6.42,6.42,6.43
25.91,-6.58,-12.99,-6.60,-13.02,13.02,12.86,11.62,6.44,6.42,6.41
26.16,-6.53,-12.95,-6.55,-12.97,12.97,12.81,11.90,6.44,6.42,6.42
26.43,-6.49,-12.91,-6.50,-12.92,12.92,12.76,12.18,6.43,6.42,6.42
26.69,-6.44,-12.86,-6.46,-12.87,12.87,12.71,12.47,6.43,6.42,6.42
26.96,-6.40,-12.81,-6.42,-12.83,12.83,12.67,12.76,6.43,6.41,6.41
27.23,-6.38,-12.78,-6.38,-12.79,12.79,12.62,13.05,6.41,6.41,6.40
27.50,-6.36,-12.76,-6.34,-12.75,12.75,12.58,13.35,6.39,6.41,6.40
27.77,-6.34,-12.75,-6.31,-12.71,12.71,12.53,13.64,6.37,6.40,6.41
28.05,-6.32,-12.71,-6.27,-12.67,12.67,12.49,13.92,6.35,6.40,6.40
28.33,-6.25,-12.64,-6.24,-12.63,12.63,12.44,14.20,6.38,6.39,6.39
28.62,-6.19,-12.57,-6.20,-12.59,12.59,12.40,14.47,6.40,6.39,6.38
28.90,-6.12,-12.51,-6.17,-12.55,12.55,12.36,14.73,6.43,6.38,6.39
29.19,-6.10,-12.47,-6.13,-12.50,12.50,12.31,14.97,6.41,6.37,6.37
29.48,-6.10,-12.46,-6.10,-12.47,12.47,12.27,15.20,6.37,6.36,6.36
29.78,-6.10,-12.46,-6.07,-12.42,12.42,12.22,15.40,6.32,6.35,6.36
30.08,-6.08,-12.43,-6.03,-12.38,12.38,12.18,15.57,6.30,6.34,6.35
30.38,-6.01,-12.34,-5.99,-12.33,12.33,12.14,15.72,6.32,6.33,6.33
30.68,-5.94,-12.27,-5.95,-12.28,12.28,12.10,15.83,6.34,6.32,6.33
30.99,-5.87,-12.18,-5.92,-12.23,12.23,12.05,15.91,6.36,6.31,6.31
31.30,-5.87,-12.17,-5.89,-12.19,12.19,12.01,15.95,6.32,6.30,6.30
31.61,-5.87,-12.16,-5.86,-12.15,12.15,11.97,15.96,6.28,6.29,6.29
31.93,-5.87,-12.14,-5.83,-12.11,12.11,11.93,15.92,6.24,6.28,6.27
32.24,-5.82,-12.09,-5.79,-12.06,12.06,11.88,15.86,6.24,6.28,6.27
32.57,-5.74,-12.00,-5.75,-12.02,12.02,11.84,15.76,6.28,6.27,6.26
32.89,-5.67,-11.92,-5.71,-11.97,11.97,11.80,15.63,6.31,6.26,6.26
33.22,-5.65,-11.90,-5.68,-11.93,11.93,11.75,15.48,6.28,6.26,6.25
33.55,-5.65,-11.89,-5.64,-11.89,11.89,11.71,15.31,6.24,6.25,6.25
33.89,-5.65,-11.90,-5.60,-11.85,11.85,11.67,15.12,6.20,6.25,6.25
34.23,-5.60,-11.83,-5.56,-11.80,11.80,11.63,14.91,6.20,6.24,6.23
34.57,-5.52,-11.76,-5.52,-11.76,11.76,11.58,14.69,6.24,6.23,6.24
34.92,-5.44,-11.67,-5.47,-11.70,11.70,11.54,14.46,6.26,6.23,6.23
35.27,-5.42,-11.65,-5.43,-11.65,11.65,11.49,14.23,6.23,6.22,6.24
35.62,-5.42,-11.63,-5.40,-11.61,11.61,11.45,13.99,6.19,6.21,6.21
35.97,-5.42,-11.62,-5.37,-11.57,11.57,11.41,13.76,6.15,6.20,6.20
36.33,-5.34,-11.53,-5.34,-11.52,11.52,11.36,13.52,6.18,6.18,6.19
36.70,-5.26,-11.43,-5.30,-11.47,11.47,11.32,13.29,6.21,6.17,6.17
37.06,-5.19,-11.34,-5.26,-11.41,11.41,11.27,13.06,6.22,6.15,6.15
37.43,-5.19,-11.32,-5.22,-11.35,11.35,11.22,12.83,6.16,6.13,6.13
37.81,-5.19,-11.29,-5.19,-11.29,11.29,11.18,12.61,6.10,6.10,6.10
38.19,-5.19,-11.27,-5.16,-11.23,11.23,11.13,12.40,6.04,6.07,6.08
38.57,-5.19,-11.24,-5.13,-11.17,11.17,11.08,12.19,5.98,6.05,6.05
38.95,-5.19,-11.21,-5.11,-11.12,11.12,11.04,11.99,5.93,6.02,6.03
39.34,-5.11,-11.08,-5.08,-11.07,11.07,10.99,11.79,5.96,5.98,5.98
39.74,-5.02,-10.97,-5.06,-11.02,11.02,10.94,11.60,6.00,5.95,5.95
40.14,-4.96,-10.88,-5.04,-10.96,10.96,10.89,11.42,6.00,5.92,5.92
40.54,-4.96,-10.84,-5.02,-10.91,10.91,10.84,11.25,5.95,5.89,5.88
40.94,-4.96,-10.80,-4.99,-10.85,10.85,10.79,11.08,5.89,5.86,5.84
41.35,-4.96,-10.78,-4.97,-10.79,10.79,10.74,10.92,5.83,5.83,5.82
41.76,-4.96,-10.75,-4.94,-10.73,10.73,10.69,10.77,5.77,5.79,5.79
42.18,-4.96,-10.73,-4.91,-10.67,10.67,10.63,10.63,5.71,5.76,5.77
42.60,-4.96,-10.69,-4.88,-10.61,10.61,10.58,10.49,5.65,5.73,5.73
43.03,-4.95,-10.65,-4.87,-10.57,10.57,10.53,10.36,5.62,5.70,5.70
43.46,-4.85,-10.52,-4.85,-10.52,10.52,10.47,10.24,5.67,5.67,5.67
43.90,-4.75,-10.39,-4.83,-10.47,10.47,10.42,10.12,5.72,5.64,5.64
44.33,-4.73,-10.34,-4.81,-10.41,10.41,10.36,10.01,5.69,5.61,5.61
44.78,-4.73,-10.30,-4.78,-10.35,10.35,10.30,9.91,5.62,5.57,5.57
45.23,-4.73,-10.28,-4.75,-10.29,10.29,10.25,9.81,5.56,5.54,5.55
45.68,-4.73,-10.24,-4.71,-10.22,10.22,10.19,9.72,5.49,5.50,5.51
46.13,-4.73,-10.19,-4.68,-10.15,10.15,10.13,9.64,5.42,5.46,5.46
46.60,-4.73,-10.15,-4.65,-10.08,10.08,10.07,9.56,5.35,5.42,5.42
47.06,-4.72,-10.11,-4.63,-10.01,10.01,10.01,9.49,5.29,5.38,5.39
47.53,-4.61,-9.96,-4.61,-9.96,9.96,9.95,9.42,5.35,5.34,5.35
48.01,-4.51,-9.80,-4.60,-9.90,9.90,9.88,9.36,5.39,5.30,5.30
48.49,-4.51,-9.76,-4.58,-9.84,9.84,9.82,9.31,5.33,5.25,5.25
48.97,-4.51,-9.71,-4.56,-9.77,9.77,9.76,9.26,5.26,5.21,5.20
49.46,-4.51,-9.67,-4.54,-9.70,9.70,9.69,9.21,5.19,5.16,5.16
49.96,-4.51,-9.61,-4.51,-9.62,9.62,9.63,9.17,5.11,5.12,5.10
50.46,-4.51,-9.56,-4.48,-9.54,9.54,9.56,9.13,5.03,5.07,5.05
50.96,-4.51,-9.53,-4.45,-9.47,9.47,9.49,9.10,4.96,5.02,5.02
51.47,-4.51,-9.48,-4.42,-9.39,9.39,9.43,9.07,4.88,4.97,4.98
51.99,-4.51,-9.43,-4.40,-9.32,9.32,9.36,9.05,4.81,4.92,4.92
52.51,-4.39,-9.26,-4.38,-9.24,9.24,9.29,9.02,4.85,4.86,4.87
53.03,-4.28,-9.11,-4.37,-9.18,9.18,9.22,9.00,4.90,4.81,4.83
53.56,-4.28,-9.05,-4.35,-9.11,9.11,9.15,8.98,4.83,4.76,4.77
54.10,-4.28,-8.99,-4.33,-9.04,9.04,9.08,8.96,4.76,4.71,4.71
54.64,-4.28,-8.94,-4.32,-8.98,8.98,9.00,8.94,4.70,4.66,4.66
55.18,-4.28,-8.87,-4.31,-8.92,8.92,8.93,8.92,4.64,4.61,4.59
55.74,-4.28,-8.82,-4.30,-8.86,8.86,8.86,8.90,4.58,4.56,4.54
56.29,-4.28,-8.77,-4.28,-8.79,8.79,8.78,8.88,4.51,4.51,4.49
56.86,-4.28,-8.73,-4.26,-8.72,8.72,8.71,8.86,4.44,4.46,4.45
57.42,-4.28,-8.67,-4.25,-8.65,8.65,8.63,8.83,4.37,4.40,4.39
58.00,-4.28,-8.62,-4.24,-8.58,8.58,8.56,8.80,4.30,4.35,4.34
58.58,-4.28,-8.58,-4.23,-8.52,8.52,8.48,8.77,4.24,4.29,4.30
59.16,-4.28,-8.54,-4.21,-8.45,8.45,8.40,8.73,4.17,4.24,4.27
59.76,-4.28,-8.48,-4.19,-8.37,8.37,8.32,8.69,4.09,4.18,4.21
60.35,-4.20,-8.33,-4.17,-8.29,8.29,8.25,8.65,4.09,4.12,4.13
60.96,-4.06,-8.13,-4.15,-8.21,8.21,8.17,8.59,4.15,4.06,4.07
61.57,-4.05,-8.05,-4.12,-8.13,8.13,8.09,8.53,4.08,4.00,4.00
62.18,-4.05,-7.97,-4.10,-8.04,8.04,8.01,8.47,3.99,3.94,3.92
62.80,-4.05,-7.91,-4.08,-7.96,7.96,7.93,8.40,3.91,3.87,3.86
63.43,-4.05,-7.84,-4.07,-7.87,7.87,7.85,8.32,3.82,3.81,3.79
64.07,-4.05,-7.78,-4.05,-7.79,7.79,7.76,8.24,3.74,3.74,3.73
64.71,-4.05,-7.72,-4.04,-7.71,7.71,7.68,8.15,3.66,3.67,3.67
65.35,-4.05,-7.65,-4.05,-7.65,7.65,7.60,8.06,3.60,3.60,3.60
66.01,-4.05,-7.58,-4.05,-7.58,7.58,7.52,7.96,3.53,3.53,3.53
66.67,-4.05,-7.52,-4.05,-7.51,7.51,7.43,7.85,3.46,3.46,3.47
67.33,-4.05,-7.44,-4.05,-7.45,7.45,7.35,7.74,3.40,3.39,3.39
68.01,-4.05,-7.38,-4.05,-7.37,7.37,7.27,7.63,3.33,3.32,3.33
68.69,-4.05,-7.30,-4.04,-7.29,7.29,7.18,7.51,3.24,3.25,3.25
69.37,-4.05,-7.24,-4.02,-7.20,7.20,7.10,7.39,3.15,3.18,3.19
70.07,-4.05,-7.16,-4.01,-7.11,7.11,7.02,7.26,3.06,3.10,3.11
70.77,-4.05,-7.09,-3.99,-7.02,7.02,6.93,7.14,2.97,3.03,3.04
71.48,-4.05,-7.01,-3.96,-6.92,6.92,6.85,7.01,2.87,2.96,2.96
72.19,-4.00,-6.88,-3.94,-6.83,6.83,6.76,6.88,2.83,2.88,2.88
72.91,-3.84,-6.65,-3.92,-6.73,6.73,6.68,6.75,2.89,2.81,2.81
73.64,-3.82,-6.54,-3.90,-6.64,6.64,6.59,6.62,2.82,2.74,2.72
74.38,-3.82,-6.47,-3.88,-6.55,6.55,6.51,6.49,2.73,2.67,2.66
75.12,-3.82,-6.41,-3.86,-6.46,6.46,6.42,6.36,2.64,2.60,2.59
75.87,-3.82,-6.36,-3.84,-6.37,6.37,6.34,6.23,2.56,2.54,2.54
76.63,-3.82,-6.28,-3.82,-6.29,6.29,6.25,6.11,2.48,2.47,2.46
77.40,-3.82,-6.22,-3.81,-6.22,6.22,6.17,5.98,2.40,2.41,2.40
78.17,-3.82,-6.16,-3.80,-6.15,6.15,6.08,5.86,2.33,2.34,2.34
78.95,-3.82,-6.10,-3.80,-6.08,6.08,5.99,5.73,2.26,2.28,2.28
79.74,-3.82,-6.04,-3.80,-6.02,6.02,5.91,5.61,2.20,2.22,2.22
80.54,-3.82,-5.98,-3.81,-5.96,5.96,5.82,5.50,2.14,2.15,2.16
81.35,-3.82,-5.91,-3.82,-5.91,5.91,5.74,5.38,2.09,2.09,2.09
82.16,-3.82,-5.86,-3.82,-5.85,5.85,5.65,5.27,2.03,2.03,2.04
82.98,-3.82,-5.79,-3.82,-5.78,5.78,5.57,5.16,1.96,1.96,1.97
83.81,-3.82,-5.72,-3.82,-5.71,5.71,5.48,5.06,1.90,1.89,1.90
84.65,-3.82,-5.64,-3.83,-5.65,5.65,5.40,4.95,1.83,1.82,1.83
85.50,-3.82,-5.56,-3.84,-5.59,5.59,5.31,4.85,1.77,1.75,1.74
86.35,-3.82,-5.50,-3.84,-5.51,5.51,5.23,4.76,1.69,1.68,1.68
87.22,-3.82,-5.42,-3.83,-5.43,5.43,5.15,4.66,1.61,1.60,1.60
88.09,-3.82,-5.34,-3.82,-5.35,5.35,5.06,4.57,1.53,1.53,1.52
88.97,-3.82,-5.27,-3.81,-5.26,5.26,4.98,4.49,1.44,1.45,1.45
89.86,-3.82,-5.19,-3.79,-5.16,5.16,4.90,4.40,1.34,1.37,1.37
90.76,-3.82,-5.11,-3.77,-5.06,5.06,4.81,4.32,1.24,1.29,1.29
91.66,-3.82,-5.03,-3.75,-4.96,4.96,4.73,4.24,1.14,1.21,1.21
92.58,-3.82,-4.96,-3.73,-4.86,4.86,4.65,4.17,1.04,1.13,1.14
93.51,-3.72,-4.78,-3.71,-4.76,4.76,4.56,4.09,1.04,1.05,1.06
94.44,-3.61,-4.59,-3.69,-4.65,4.65,4.48,4.02,1.04,0.97,0.98
95.39,-3.59,-4.48,-3.66,-4.55,4.55,4.40,3.96,0.96,0.88,0.89
96.34,-3.59,-4.39,-3.64,-4.45,4.45,4.32,3.89,0.86,0.80,0.80
97.30,-3.59,-4.31,-3.62,-4.34,4.34,4.24,3.83,0.76,0.72,0.72
98.28,-3.59,-4.22,-3.61,-4.25,4.25,4.16,3.77,0.66,0.64,0.63
99.26,-3.59,-4.14,-3.59,-4.15,4.15,4.08,3.71,0.56,0.56,0.55
100.25,-3.59,-4.06,-3.58,-4.06,4.06,4.00,3.66,0.47,0.48,0.47
101.25,-3.59,-3.99,-3.57,-3.98,3.98,3.92,3.61,0.39,0.40,0.40
102.27,-3.59,-3.91,-3.57,-3.90,3.90,3.84,3.55,0.31,0.33,0.32
103.29,-3.59,-3.84,-3.57,-3.83,3.83,3.76,3.51,0.24,0.25,0.25
104.32,-3.59,-3.77,-3.58,-3.76,3.76,3.68,3.46,0.17,0.18,0.18
105.37,-3.59,-3.70,-3.59,-3.69,3.69,3.61,3.41,0.11,0.11,0.11
106.42,-3.59,-3.63,-3.59,-3.63,3.63,3.53,3.37,0.04,0.04,0.04
107.48,-3.59,-3.54,-3.59,-3.56,3.56,3.45,3.32,-0.03,-0.03,-0.04
108.56,-3.59,-3.49,-3.59,-3.48,3.48,3.38,3.28,-0.10,-0.10,-0.10
109.64,-3.59,-3.41,-3.59,-3.41,3.41,3.30,3.24,-0.17,-0.17,-0.18
110.74,-3.59,-3.35,-3.59,-3.34,3.34,3.22,3.19,-0.25,-0.25,-0.24
111.85,-3.59,-3.27,-3.59,-3.27,3.27,3.15,3.15,-0.32,-0.32,-0.32
112.97,-3.59,-3.21,-3.59,-3.20,3.20,3.08,3.11,-0.39,-0.39,-0.38
114.10,-3.59,-3.14,-3.59,-3.12,3.12,3.00,3.07,-0.47,-0.47,-0.45
115.24,-3.59,-3.05,-3.59,-3.05,3.05,2.93,3.03,-0.54,-0.54,-0.54
116.39,-3.59,-2.97,-3.59,-2.97,2.97,2.86,2.98,-0.62,-0.62,-0.62
117.55,-3.59,-2.90,-3.59,-2.90,2.90,2.78,2.94,-0.69,-0.69,-0.69
118.73,-3.59,-2.81,-3.59,-2.82,2.82,2.71,2.89,-0.77,-0.77,-0.78
119.92,-3.59,-2.73,-3.59,-2.74,2.74,2.64,2.85,-0.85,-0.85,-0.86
121.12,-3.59,-2.67,-3.59,-2.66,2.66,2.57,2.80,-0.92,-0.92,-0.92
122.33,-3.59,-2.58,-3.59,-2.59,2.59,2.50,2.75,-1.00,-1.00,-1.01
123.55,-3.59,-2.51,-3.59,-2.51,2.51,2.43,2.71,-1.08,-1.08,-1.08
124.79,-3.59,-2.43,-3.59,-2.43,2.43,2.36,2.65,-1.16,-1.16,-1.16
126.03,-3.59,-2.36,-3.59,-2.35,2.35,2.30,2.60,-1.24,-1.24,-1.23
127.29,-3.59,-2.27,-3.59,-2.27,2.27,2.23,2.55,-1.32,-1.32,-1.32
128.57,-3.59,-2.19,-3.59,-2.19,2.19,2.16,2.49,-1.40,-1.40,-1.40
129.85,-3.59,-2.11,-3.59,-2.11,2.11,2.09,2.44,-1.48,-1.48,-1.48
131.15,-3.59,-2.03,-3.59,-2.03,2.03,2.03,2.38,-1.56,-1.56,-1.56
132.46,-3.59,-1.95,-3.59,-1.96,1.96,1.96,2.32,-1.63,-1.63,-1.64
133.79,-3.59,-1.88,-3.59,-1.88,1.88,1.90,2.26,-1.71,-1.71,-1.71
135.12,-3.59,-1.80,-3.59,-1.81,1.81,1.83,2.19,-1.78,-1.78,-1.79
136.48,-3.59,-1.74,-3.59,-1.73,1.73,1.77,2.13,-1.85,-1.85,-1.85
137.84,-3.59,-1.67,-3.59,-1.66,1.66,1.71,2.06,-1.93,-1.93,-1.92
139.22,-3.59,-1.59,-3.59,-1.59,1.59,1.65,2.00,-2.00,-2.00,-2.00
140.61,-3.59,-1.52,-3.59,-1.53,1.53,1.59,1.93,-2.06,-2.06,-2.07
142.02,-3.59,-1.46,-3.59,-1.46,1.46,1.52,1.86,-2.13,-2.13,-2.13
143.44,-3.59,-1.39,-3.59,-1.40,1.40,1.46,1.79,-2.19,-2.19,-2.20
144.87,-3.59,-1.34,-3.59,-1.33,1.33,1.40,1.72,-2.26,-2.26,-2.25
146.32,-3.59,-1.28,-3.59,-1.27,1.27,1.35,1.65,-2.32,-2.32,-2.31
147.78,-3.59,-1.21,-3.59,-1.21,1.21,1.29,1.58,-2.38,-2.38,-2.38
149.26,-3.59,-1.15,-3.59,-1.15,1.15,1.23,1.51,-2.44,-2.44,-2.44
150.75,-3.59,-1.08,-3.59,-1.09,1.09,1.17,1.43,-2.50,-2.50,-2.51
152.26,-3.59,-1.03,-3.59,-1.03,1.03,1.12,1.36,-2.56,-2.56,-2.56
153.78,-3.59,-0.97,-3.59,-0.97,0.97,1.06,1.29,-2.62,-2.62,-2.62
155.32,-3.59,-0.91,-3.59,-0.91,0.91,1.00,1.22,-2.68,-2.68,-2.67
156.88,-3.59,-0.85,-3.59,-0.85,0.85,0.95,1.14,-2.74,-2.74,-2.74
158.44,-3.59,-0.79,-3.59,-0.79,0.79,0.90,1.07,-2.80,-2.80,-2.80
160.03,-3.59,-0.73,-3.59,-0.73,0.73,0.84,1.00,-2.86,-2.86,-2.86
161.63,-3.59,-0.67,-3.59,-0.67,0.67,0.79,0.93,-2.92,-2.92,-2.92
163.24,-3.59,-0.60,-3.59,-0.61,0.61,0.74,0.85,-2.98,-2.98,-2.99
164.88,-3.59,-0.55,-3.59,-0.55,0.55,0.69,0.78,-3.04,-3.04,-3.04
166.53,-3.59,-0.48,-3.59,-0.49,0.49,0.64,0.71,-3.10,-3.10,-3.11
168.19,-3.59,-0.44,-3.59,-0.43,0.43,0.59,0.64,-3.16,-3.16,-3.15
169.87,-3.59,-0.38,-3.59,-0.37,0.37,0.54,0.56,-3.22,-3.22,-3.21
171.57,-3.59,-0.32,-3.59,-0.31,0.31,0.49,0.49,-3.28,-3.28,-3.27
173.29,-3.59,-0.26,-3.59,-0.25,0.25,0.44,0.42,-3.34,-3.34,-3.33
175.02,-3.59,-0.20,-3.59,-0.19,0.19,0.39,0.35,-3.40,-3.40,-3.39
176.77,-3.59,-0.13,-3.59,-0.13,0.13,0.34,0.27,-3.46,-3.46,-3.46
178.54,-3.59,-0.07,-3.59,-0.07,0.07,0.30,0.20,-3.52,-3.52,-3.52
180.32,-3.59,-0.01,-3.59,-0.01,0.01,0.25,0.13,-3.58,-3.58,-3.58
182.13,-3.59,0.05,-3.59,0.05,-0.05,0.21,0.06,-3.64,-3.64,-3.64
183.95,-3.59,0.11,-3.59,0.11,-0.11,0.16,-0.02,-3.70,-3.70,-3.70
185.79,-3.59,0.18,-3.59,0.17,-0.17,0.12,-0.09,-3.76,-3.76,-3.77
187.65,-3.59,0.23,-3.59,0.23,-0.23,0.08,-0.16,-3.82,-3.82,-3.82
189.52,-3.59,0.29,-3.59,0.29,-0.29,0.03,-0.23,-3.87,-3.87,-3.88
191.42,-3.59,0.34,-3.59,0.34,-0.34,-0.01,-0.30,-3.93,-3.93,-3.93
193.33,-3.59,0.39,-3.59,0.39,-0.39,-0.05,-0.38,-3.98,-3.98,-3.98
195.27,-3.59,0.45,-3.60,0.44,-0.44,-0.09,-0.45,-4.02,-4.04,-4.04
197.22,-3.59,0.50,-3.61,0.48,-0.48,-0.13,-0.52,-4.07,-4.08,-4.09
199.19,-3.59,0.55,-3.61,0.53,-0.53,-0.17,-0.59,-4.11,-4.13,-4.14
201.18,-3.59,0.60,-3.60,0.57,-0.57,-0.21,-0.66,-4.16,-4.18,-4.19
203.19,-3.59,0.64,-3.60,0.63,-0.63,-0.25,-0.73,-4.22,-4.22,-4.23
205.23,-3.59,0.67,-3.58,0.68,-0.68,-0.29,-0.80,-4.27,-4.27,-4.26
207.28,-3.59,0.71,-3.57,0.74,-0.74,-0.32,-0.87,-4.33,-4.31,-4.30
209.35,-3.59,0.76,-3.55,0.80,-0.80,-0.36,-0.94,-4.39,-4.35,-4.35
211.44,-3.59,0.80,-3.53,0.86,-0.86,-0.40,-1.00,-4.45,-4.39,-4.39
213.56,-3.59,0.84,-3.51,0.92,-0.92,-0.43,-1.07,-4.51,-4.43,-4.43
215.69,-3.59,0.87,-3.49,0.98,-0.98,-0.47,-1.13,-4.57,-4.47,-4.46
217.85,-3.39,1.11,-3.47,1.04,-1.04,-0.50,-1.20,-4.42,-4.51,-4.50
220.03,-3.37,1.17,-3.45,1.09,-1.09,-0.53,-1.26,-4.46,-4.54,-4.54
222.23,-3.37,1.22,-3.43,1.15,-1.15,-0.57,-1.32,-4.52,-4.58,-4.59
224.45,-3.37,1.25,-3.41,1.20,-1.20,-0.60,-1.37,-4.57,-4.61,-4.62
226.70,-3.37,1.28,-3.39,1.26,-1.26,-0.63,-1.43,-4.63,-4.65,-4.65
228.96,-3.37,1.31,-3.38,1.30,-1.30,-0.66,-1.48,-4.67,-4.68,-4.68
231.25,-3.37,1.34,-3.36,1.35,-1.35,-0.69,-1.53,-4.72,-4.71,-4.71
233.57,-3.37,1.37,-3.36,1.39,-1.39,-0.73,-1.57,-4.76,-4.74,-4.74
235.90,-3.37,1.40,-3.35,1.42,-1.42,-0.76,-1.62,-4.79,-4.77,-4.77
238.26,-3.37,1.44,-3.35,1.45,-1.45,-0.78,-1.65,-4.82,-4.80,-4.81
240.64,-3.37,1.45,-3.36,1.47,-1.47,-0.81,-1.69,-4.84,-4.83,-4.82
243.05,-3.37,1.48,-3.37,1.48,-1.48,-0.84,-1.72,-4.85,-4.85,-4.85
245.48,-3.37,1.50,-3.37,1.50,-1.50,-0.87,-1.75,-4.87,-4.87,-4.87
247.93,-3.37,1.53,-3.37,1.52,-1.52,-0.90,-1.78,-4.89,-4.89,-4.90
250.41,-3.37,1.54,-3.37,1.54,-1.54,-0.92,-1.80,-4.91,-4.91,-4.91
252.92,-3.37,1.56,-3.37,1.56,-1.56,-0.95,-1.82,-4.93,-4.93,-4.93
255.45,-3.37,1.59,-3.37,1.58,-1.58,-0.97,-1.83,-4.95,-4.95,-4.96
258.00,-3.37,1.60,-3.37,1.60,-1.60,-1.00,-1.84,-4.97,-4.97,-4.97
260.58,-3.37,1.61,-3.37,1.61,-1.61,-1.02,-1.85,-4.98,-4.98,-4.98
263.19,-3.37,1.63,-3.37,1.63,-1.63,-1.05,-1.85,-5.00,-5.00,-5.00
265.82,-3.37,1.64,-3.37,1.64,-1.64,-1.07,-1.85,-5.01,-5.01,-5.01
268.48,-3.37,1.65,-3.37,1.65,-1.65,-1.10,-1.85,-5.02,-5.02,-5.02
271.16,-3.37,1.65,-3.37,1.66,-1.66,-1.12,-1.84,-5.03,-5.03,-5.02
273.87,-3.37,1.67,-3.37,1.67,-1.67,-1.14,-1.83,-5.04,-5.04,-5.03
276.61,-3.37,1.68,-3.37,1.68,-1.68,-1.16,-1.82,-5.05,-5.05,-5.05
279.38,-3.37,1.70,-3.37,1.69,-1.69,-1.18,-1.81,-5.05,-5.05,-5.07
282.17,-3.37,1.70,-3.37,1.69,-1.69,-1.20,-1.79,-5.06,-5.06,-5.07
284.99,-3.37,1.70,-3.37,1.69,-1.69,-1.22,-1.78,-5.06,-5.06,-5.07
287.84,-3.37,1.70,-3.37,1.70,-1.70,-1.24,-1.76,-5.07,-5.07,-5.07
290.72,-3.37,1.71,-3.37,1.70,-1.70,-1.26,-1.74,-5.07,-5.07,-5.07
293.63,-3.37,1.70,-3.37,1.70,-1.70,-1.28,-1.72,-5.07,-5.07,-5.07
296.57,-3.37,1.70,-3.37,1.71,-1.71,-1.30,-1.70,-5.08,-5.08,-5.07
299.53,-3.37,1.71,-3.37,1.71,-1.71,-1.32,-1.68,-5.08,-5.08,-5.08
302.53,-3.37,1.70,-3.37,1.71,-1.71,-1.34,-1.66,-5.08,-5.08,-5.07
305.55,-3.37,1.71,-3.37,1.71,-1.71,-1.35,-1.63,-5.08,-5.08,-5.08
308.61,-3.37,1.70,-3.37,1.71,-1.71,-1.37,-1.61,-5.08,-5.08,-5.07
311.69,-3.37,1.71,-3.37,1.71,-1.71,-1.39,-1.59,-5.08,-5.08,-5.08
314.81,-3.37,1.71,-3.37,1.71,-1.71,-1.40,-1.57,-5.08,-5.08,-5.08
317.96,-3.37,1.71,-3.37,1.71,-1.71,-1.42,-1.55,-5.08,-5.08,-5.08
321.14,-3.37,1.71,-3.37,1.71,-1.71,-1.43,-1.53,-5.08,-5.08,-5.08
324.35,-3.37,1.72,-3.37,1.70,-1.70,-1.45,-1.51,-5.07,-5.07,-5.09
327.59,-3.37,1.69,-3.37,1.70,-1.70,-1.46,-1.49,-5.07,-5.07,-5.06
330.87,-3.37,1.70,-3.37,1.70,-1.70,-1.47,-1.47,-5.07,-5.07,-5.07
334.18,-3.37,1.70,-3.37,1.70,-1.70,-1.49,-1.45,-5.06,-5.06,-5.07
337.52,-3.37,1.70,-3.37,1.69,-1.69,-1.50,-1.43,-5.06,-5.06,-5.07
340.90,-3.37,1.68,-3.37,1.69,-1.69,-1.51,-1.42,-5.05,-5.05,-5.05
344.30,-3.37,1.68,-3.37,1.68,-1.68,-1.52,-1.40,-5.05,-5.05,-5.05
347.75,-3.37,1.67,-3.37,1.67,-1.67,-1.53,-1.39,-5.04,-5.04,-5.04
351.23,-3.37,1.68,-3.37,1.67,-1.67,-1.54,-1.38,-5.04,-5.04,-5.05
354.74,-3.37,1.65,-3.37,1.66,-1.66,-1.56,-1.37,-5.03,-5.03,-5.02
358.28,-3.37,1.65,-3.37,1.65,-1.65,-1.57,-1.36,-5.02,-5.02,-5.02
361.87,-3.37,1.65,-3.37,1.65,-1.65,-1.58,-1.35,-5.02,-5.02,-5.02
365.49,-3.37,1.64,-3.37,1.65,-1.65,-1.59,-1.34,-5.01,-5.01,-5.01
369.14,-3.37,1.64,-3.37,1.64,-1.64,-1.59,-1.33,-5.01,-5.01,-5.01
372.83,-3.37,1.63,-3.37,1.64,-1.64,-1.60,-1.33,-5.01,-5.01,-5.00
376.56,-3.37,1.63,-3.37,1.63,-1.63,-1.61,-1.32,-5.00,-5.00,-5.00
380.33,-3.37,1.63,-3.37,1.63,-1.63,-1.62,-1.32,-5.00,-5.00,-5.00
384.13,-3.37,1.62,-3.37,1.63,-1.63,-1.63,-1.32,-5.00,-5.00,-4.99
387.97,-3.37,1.62,-3.37,1.62,-1.62,-1.63,-1.32,-4.99,-4.99,-4.99
391.85,-3.37,1.62,-3.38,1.61,-1.61,-1.64,-1.32,-4.97,-4.99,-4.98
395.77,-3.37,1.63,-3.39,1.60,-1.60,-1.65,-1.32,-4.97,-4.98,-5.00
399.73,-3.37,1.62,-3.39,1.59,-1.59,-1.65,-1.32,-4.96,-4.98,-4.99
403.72,-3.37,1.60,-3.38,1.59,-1.59,-1.66,-1.32,-4.96,-4.97,-4.97
407.76,-3.37,1.61,-3.37,1.60,-1.60,-1.66,-1.32,-4.97,-4.97,-4.98
411.84,-3.37,1.59,-3.36,1.60,-1.60,-1.67,-1.33,-4.97,-4.96,-4.96
415.96,-3.37,1.58,-3.34,1.61,-1.61,-1.67,-1.33,-4.98,-4.95,-4.95
420.12,-3.37,1.58,-3.32,1.62,-1.62,-1.68,-1.34,-4.99,-4.94,-4.95
424.32,-3.37,1.56,-3.30,1.63,-1.63,-1.68,-1.34,-5.00,-4.93,-4.93
428.56,-3.37,1.55,-3.28,1.64,-1.64,-1.69,-1.35,-5.01,-4.92,-4.92
432.85,-3.28,1.63,-3.26,1.65,-1.65,-1.69,-1.36,-4.93,-4.91,-4.91
437.18,-3.16,1.74,-3.24,1.66,-1.66,-1.69,-1.37,-4.82,-4.90,-4.90
441.55,-3.14,1.75,-3.21,1.67,-1.67,-1.69,-1.37,-4.81,-4.89,-4.89
445.96,-3.14,1.73,-3.19,1.68,-1.68,-1.70,-1.38,-4.82,-4.87,-4.87
