frequency,raw,error,smoothed,error_smoothed,equalization,parametric_eq,fixed_band_eq,equalized_raw,equalized_smoothed,target
20.00,2.71,-2.79,2.70,-2.82,2.82,2.53,0.92,5.53,5.52,5.50
20.20,2.75,-2.78,2.75,-2.80,2.80,2.52,0.94,5.56,5.55,5.54
20.40,2.80,-2.77,2.80,-2.78,2.78,2.51,0.97,5.59,5.58,5.58
20.61,2.84,-2.76,2.85,-2.76,2.76,2.51,1.00,5.61,5.61,5.61
20.81,2.89,-2.75,2.89,-2.74,2.74,2.50,1.03,5.64,5.64,5.65
21.02,2.93,-2.75,2.94,-2.72,2.72,2.49,1.06,5.65,5.66,5.69
21.23,2.98,-2.72,2.99,-2.69,2.69,2.48,1.09,5.68,5.69,5.71
21.44,3.03,-2.69,3.04,-2.67,2.67,2.47,1.12,5.70,5.71,5.73
21.66,3.07,-2.67,3.09,-2.64,2.64,2.46,1.15,5.71,5.73,5.74
21.87,3.12,-2.63,3.14,-2.61,2.61,2.46,1.18,5.74,5.75,5.75
22.09,3.17,-2.60,3.18,-2.58,2.58,2.45,1.22,5.76,5.77,5.77
22.31,3.22,-2.56,3.23,-2.55,2.55,2.44,1.25,5.77,5.78,5.78
22.54,3.28,-2.51,3.28,-2.51,2.51,2.43,1.29,5.79,5.79,5.79
22.76,3.34,-2.46,3.33,-2.47,2.47,2.42,1.33,5.82,5.80,5.80
22.99,3.40,-2.40,3.38,-2.43,2.43,2.41,1.37,5.83,5.81,5.80
23.22,3.44,-2.37,3.43,-2.39,2.39,2.40,1.40,5.83,5.82,5.81
23.45,3.48,-2.34,3.48,-2.35,2.35,2.39,1.44,5.83,5.83,5.82
23.69,3.52,-2.31,3.53,-2.31,2.31,2.38,1.48,5.83,5.84,5.83
23.92,3.56,-2.27,3.58,-2.27,2.27,2.37,1.52,5.83,5.85,5.84
24.16,3.61,-2.24,3.63,-2.23,2.23,2.36,1.57,5.84,5.85,5.86
24.40,3.66,-2.21,3.67,-2.19,2.19,2.35,1.61,5.85,5.86,5.88
24.65,3.71,-2.16,3.72,-2.15,2.15,2.34,1.65,5.87,5.87,5.88
24.89,3.75,-2.13,3.77,-2.12,2.12,2.33,1.69,5.87,5.88,5.88
25.14,3.80,-2.09,3.81,-2.08,2.08,2.32,1.74,5.89,5.89,5.89
25.39,3.84,-2.06,3.85,-2.05,2.05,2.30,1.78,5.90,5.90,5.90
25.65,3.89,-2.03,3.89,-2.02,2.02,2.29,1.82,5.92,5.91,5.92
25.91,3.94,-1.98,3.93,-1.99,1.99,2.28,1.87,5.94,5.92,5.92
26.16,3.98,-1.94,3.97,-1.97,1.97,2.27,1.91,5.95,5.93,5.93
26.43,4.01,-1.92,4.00,-1.94,1.94,2.26,1.95,5.95,5.94,5.94
26.69,4.03,-1.91,4.03,-1.92,1.92,2.25,1.99,5.96,5.95,5.95
26.96,4.05,-1.91,4.05,-1.91,1.91,2.23,2.03,5.96,5.96,5.96
27.23,4.06,-1.91,4.06,-1.90,1.90,2.22,2.07,5.97,5.97,5.97
27.50,4.08,-1.90,4.08,-1.90,1.90,2.21,2.11,5.98,5.98,5.98
27.77,4.10,-1.88,4.08,-1.90,1.90,2.20,2.15,6.01,5.99,5.98
28.05,4.10,-1.90,4.09,-1.91,1.91,2.18,2.18,6.01,5.99,6.00
28.33,4.11,-1.88,4.09,-1.91,1.91,2.17,2.22,6.03,6.00,6.00
28.62,4.10,-1.90,4.09,-1.92,1.92,2.16,2.25,6.03,6.01,6.01
28.90,4.08,-1.93,4.09,-1.93,1.93,2.14,2.27,6.01,6.02,6.01
29.19,4.06,-1.95,4.09,-1.94,1.94,2.13,2.30,6.00,6.02,6.01
29.48,4.06,-1.98,4.09,-1.94,1.94,2.12,2.32,6.00,6.03,6.04
29.78,4.06,-1.97,4.10,-1.94,1.94,2.10,2.34,6.00,6.04,6.04
30.08,4.08,-1.96,4.10,-1.94,1.94,2.09,2.36,6.02,6.04,6.05
30.38,4.09,-1.95,4.12,-1.93,1.93,2.08,2.37,6.03,6.05,6.04
30.68,4.11,-1.95,4.13,-1.92,1.92,2.06,2.38,6.04,6.06,6.06
30.99,4.14,-1.92,4.15,-1.91,1.91,2.05,2.39,6.06,6.06,6.06
31.30,4.17,-1.89,4.17,-1.90,1.90,2.03,2.39,6.07,6.07,6.07
31.61,4.20,-1.87,4.20,-1.88,1.88,2.02,2.39,6.08,6.08,6.08
31.93,4.23,-1.85,4.23,-1.85,1.85,2.00,2.38,6.09,6.08,6.08
32.24,4.26,-1.82,4.26,-1.83,1.83,1.99,2.38,6.09,6.09,6.08
32.57,4.29,-1.80,4.29,-1.81,1.81,1.98,2.37,6.10,6.10,6.10
32.89,4.32,-1.78,4.32,-1.78,1.78,1.96,2.35,6.11,6.10,6.10
33.22,4.35,-1.76,4.34,-1.77,1.77,1.95,2.33,6.12,6.11,6.11
33.55,4.37,-1.74,4.36,-1.75,1.75,1.93,2.31,6.13,6.12,6.12
33.89,4.39,-1.73,4.38,-1.74,1.74,1.92,2.29,6.13,6.12,6.12
34.23,4.41,-1.72,4.40,-1.73,1.73,1.90,2.27,6.14,6.13,6.13
34.57,4.42,-1.71,4.41,-1.72,1.72,1.88,2.24,6.15,6.13,6.14
34.92,4.43,-1.70,4.42,-1.72,1.72,1.87,2.21,6.15,6.14,6.13
35.27,4.43,-1.71,4.42,-1.72,1.72,1.85,2.18,6.15,6.14,6.14
35.62,4.42,-1.72,4.43,-1.72,1.72,1.84,2.15,6.14,6.14,6.15
35.97,4.41,-1.73,4.43,-1.72,1.72,1.82,2.11,6.13,6.15,6.14
36.33,4.41,-1.73,4.43,-1.72,1.72,1.81,2.08,6.14,6.15,6.15
36.70,4.41,-1.73,4.42,-1.72,1.72,1.79,2.04,6.14,6.15,6.14
37.06,4.41,-1.74,4.42,-1.73,1.73,1.77,2.01,6.14,6.15,6.15
37.43,4.41,-1.74,4.42,-1.73,1.73,1.76,1.97,6.14,6.15,6.15
37.81,4.41,-1.74,4.42,-1.73,1.73,1.74,1.93,6.14,6.14,6.15
38.19,4.41,-1.73,4.41,-1.73,1.73,1.73,1.90,6.14,6.14,6.14
38.57,4.41,-1.72,4.41,-1.72,1.72,1.71,1.86,6.14,6.14,6.14
38.95,4.41,-1.72,4.41,-1.72,1.72,1.69,1.82,6.14,6.13,6.13
39.34,4.41,-1.71,4.41,-1.72,1.72,1.68,1.79,6.13,6.13,6.13
39.74,4.41,-1.71,4.41,-1.72,1.72,1.66,1.75,6.13,6.13,6.12
40.14,4.41,-1.71,4.41,-1.71,1.71,1.65,1.72,6.13,6.13,6.13
40.54,4.41,-1.70,4.41,-1.71,1.71,1.63,1.68,6.12,6.12,6.12
40.94,4.41,-1.70,4.41,-1.70,1.70,1.61,1.65,6.12,6.12,6.11
41.35,4.41,-1.69,4.41,-1.70,1.70,1.60,1.62,6.11,6.11,6.11
41.76,4.41,-1.69,4.41,-1.69,1.69,1.58,1.58,6.11,6.11,6.11
42.18,4.41,-1.70,4.41,-1.69,1.69,1.56,1.55,6.10,6.10,6.11
42.60,4.41,-1.69,4.41,-1.68,1.68,1.55,1.52,6.10,6.10,6.10
43.03,4.41,-1.69,4.41,-1.68,1.68,1.53,1.50,6.09,6.09,6.10
43.46,4.41,-1.68,4.41,-1.68,1.68,1.51,1.47,6.09,6.09,6.10
43.90,4.41,-1.66,4.41,-1.67,1.67,1.50,1.44,6.09,6.09,6.08
44.33,4.41,-1.66,4.41,-1.67,1.67,1.48,1.42,6.08,6.08,6.08
44.78,4.41,-1.66,4.41,-1.66,1.66,1.46,1.39,6.08,6.08,6.07
45.23,4.41,-1.65,4.41,-1.66,1.66,1.45,1.37,6.07,6.07,6.06
45.68,4.41,-1.65,4.42,-1.65,1.65,1.43,1.35,6.06,6.06,6.06
46.13,4.41,-1.64,4.42,-1.64,1.64,1.41,1.33,6.06,6.06,6.05
46.60,4.41,-1.64,4.42,-1.64,1.64,1.40,1.31,6.05,6.05,6.06
47.06,4.41,-1.63,4.41,-1.63,1.63,1.38,1.29,6.04,6.04,6.05
47.53,4.41,-1.62,4.41,-1.62,1.62,1.36,1.28,6.03,6.03,6.04
48.01,4.41,-1.63,4.41,-1.61,1.61,1.34,1.26,6.03,6.02,6.04
48.49,4.41,-1.61,4.40,-1.61,1.61,1.33,1.25,6.02,6.01,6.02
48.97,4.41,-1.58,4.40,-1.60,1.60,1.31,1.23,6.01,6.00,6.00
49.46,4.41,-1.57,4.40,-1.59,1.59,1.29,1.22,6.00,5.99,5.98
49.96,4.40,-1.56,4.40,-1.57,1.57,1.28,1.21,5.98,5.97,5.96
50.46,4.40,-1.55,4.40,-1.55,1.55,1.26,1.19,5.96,5.95,5.96
50.96,4.39,-1.55,4.40,-1.53,1.53,1.24,1.18,5.93,5.94,5.94
51.47,4.38,-1.52,4.41,-1.51,1.51,1.23,1.17,5.89,5.92,5.91
51.99,4.39,-1.50,4.42,-1.48,1.48,1.21,1.16,5.87,5.90,5.89
52.51,4.40,-1.48,4.43,-1.44,1.44,1.19,1.15,5.85,5.88,5.88
53.03,4.42,-1.43,4.45,-1.41,1.41,1.18,1.14,5.83,5.85,5.86
53.56,4.44,-1.39,4.46,-1.37,1.37,1.16,1.14,5.81,5.83,5.84
54.10,4.48,-1.33,4.48,-1.33,1.33,1.14,1.13,5.81,5.81,5.81
54.64,4.51,-1.28,4.50,-1.29,1.29,1.13,1.12,5.80,5.79,5.79
55.18,4.53,-1.23,4.52,-1.25,1.25,1.11,1.11,5.78,5.77,5.76
55.74,4.55,-1.18,4.54,-1.20,1.20,1.09,1.10,5.76,5.74,5.73
56.29,4.57,-1.15,4.55,-1.16,1.16,1.08,1.09,5.74,5.72,5.72
56.86,4.58,-1.11,4.57,-1.13,1.13,1.06,1.09,5.71,5.69,5.69
57.42,4.58,-1.07,4.57,-1.09,1.09,1.04,1.08,5.68,5.67,5.66
58.00,4.58,-1.05,4.57,-1.06,1.06,1.03,1.07,5.65,5.64,5.63
58.58,4.58,-1.03,4.57,-1.04,1.04,1.01,1.06,5.62,5.61,5.61
59.16,4.57,-1.01,4.56,-1.02,1.02,1.00,1.05,5.59,5.58,5.59
59.76,4.56,-1.00,4.55,-1.00,1.00,0.98,1.04,5.56,5.55,5.56
60.35,4.54,-0.98,4.53,-0.98,0.98,0.96,1.02,5.53,5.51,5.52
60.96,4.52,-0.96,4.51,-0.96,0.96,0.95,1.01,5.49,5.48,5.49
61.57,4.49,-0.95,4.50,-0.94,0.94,0.93,1.00,5.44,5.44,5.44
62.18,4.46,-0.93,4.48,-0.92,0.92,0.91,0.98,5.38,5.40,5.39
62.80,4.43,-0.93,4.47,-0.89,0.89,0.90,0.97,5.33,5.36,5.36
63.43,4.41,-0.90,4.46,-0.87,0.87,0.88,0.95,5.28,5.32,5.31
64.07,4.40,-0.87,4.44,-0.84,0.84,0.87,0.94,5.24,5.28,5.27
64.71,4.40,-0.83,4.43,-0.80,0.80,0.85,0.92,5.21,5.24,5.23
65.35,4.41,-0.77,4.42,-0.77,0.77,0.83,0.90,5.19,5.19,5.19
66.01,4.42,-0.72,4.41,-0.74,0.74,0.82,0.88,5.16,5.15,5.14
66.67,4.42,-0.69,4.40,-0.70,0.70,0.80,0.86,5.13,5.10,5.11
67.33,4.41,-0.65,4.39,-0.67,0.67,0.79,0.84,5.08,5.06,5.06
68.01,4.40,-0.61,4.37,-0.64,0.64,0.77,0.81,5.04,5.01,5.02
68.69,4.37,-0.60,4.36,-0.61,0.61,0.75,0.79,4.99,4.97,4.97
69.37,4.35,-0.57,4.34,-0.59,0.59,0.74,0.77,4.94,4.92,4.92
70.07,4.32,-0.55,4.32,-0.56,0.56,0.72,0.74,4.89,4.88,4.87
70.77,4.29,-0.54,4.29,-0.54,0.54,0.71,0.72,4.83,4.83,4.83
71.48,4.26,-0.53,4.26,-0.52,0.52,0.69,0.69,4.79,4.79,4.79
72.19,4.23,-0.50,4.24,-0.51,0.51,0.67,0.66,4.74,4.74,4.74
72.91,4.20,-0.49,4.21,-0.49,0.49,0.66,0.64,4.69,4.70,4.70
73.64,4.17,-0.48,4.19,-0.47,0.47,0.64,0.61,4.64,4.66,4.65
74.38,4.14,-0.47,4.16,-0.45,0.45,0.63,0.58,4.59,4.61,4.62
75.12,4.11,-0.46,4.14,-0.43,0.43,0.61,0.56,4.54,4.57,4.57
75.87,4.10,-0.43,4.13,-0.41,0.41,0.60,0.53,4.51,4.53,4.53
76.63,4.09,-0.40,4.11,-0.38,0.38,0.58,0.50,4.47,4.50,4.49
77.40,4.09,-0.36,4.10,-0.36,0.36,0.56,0.48,4.45,4.46,4.46
78.17,4.08,-0.33,4.09,-0.33,0.33,0.55,0.45,4.42,4.42,4.42
78.95,4.08,-0.30,4.08,-0.31,0.31,0.53,0.42,4.39,4.39,4.38
79.74,4.08,-0.27,4.06,-0.29,0.29,0.52,0.39,4.37,4.35,4.35
80.54,4.07,-0.25,4.05,-0.27,0.27,0.50,0.36,4.34,4.32,4.32
81.35,4.06,-0.22,4.03,-0.25,0.25,0.49,0.34,4.32,4.28,4.29
82.16,4.03,-0.22,4.02,-0.24,0.24,0.47,0.31,4.27,4.25,4.25
82.98,4.01,-0.21,3.99,-0.23,0.23,0.45,0.28,4.24,4.22,4.23
83.81,3.98,-0.21,3.97,-0.22,0.22,0.44,0.25,4.20,4.19,4.19
84.65,3.95,-0.20,3.94,-0.22,0.22,0.42,0.23,4.17,4.16,4.15
85.50,3.91,-0.22,3.92,-0.21,0.21,0.41,0.20,4.13,4.13,4.13
86.35,3.88,-0.22,3.89,-0.21,0.21,0.39,0.17,4.10,4.10,4.11
87.22,3.85,-0.22,3.87,-0.21,0.21,0.37,0.15,4.06,4.08,4.08
88.09,3.82,-0.22,3.85,-0.20,0.20,0.36,0.12,4.03,4.05,4.04
88.97,3.80,-0.22,3.83,-0.20,0.20,0.34,0.09,4.00,4.02,4.02
89.86,3.78,-0.22,3.81,-0.19,0.19,0.33,0.06,3.97,3.99,4.00
90.76,3.77,-0.19,3.79,-0.17,0.17,0.31,0.04,3.95,3.97,3.96
91.66,3.76,-0.17,3.78,-0.16,0.16,0.29,0.01,3.92,3.94,3.94
92.58,3.76,-0.14,3.77,-0.14,0.14,0.28,-0.02,3.91,3.91,3.90
93.51,3.76,-0.12,3.76,-0.12,0.12,0.26,-0.04,3.89,3.88,3.89
94.44,3.76,-0.09,3.75,-0.10,0.10,0.24,-0.07,3.87,3.85,3.85
95.39,3.75,-0.07,3.74,-0.08,0.08,0.23,-0.10,3.84,3.82,3.83
96.34,3.74,-0.04,3.72,-0.06,0.06,0.21,-0.12,3.80,3.78,3.78
97.30,3.72,-0.02,3.71,-0.04,0.04,0.19,-0.15,3.76,3.75,3.75
98.28,3.69,-0.02,3.69,-0.02,0.02,0.17,-0.18,3.72,3.71,3.71
99.26,3.66,-0.01,3.67,-0.01,0.01,0.16,-0.20,3.67,3.68,3.67
100.25,3.64,0.01,3.64,0.01,-0.01,0.14,-0.23,3.64,3.64,3.64
101.25,3.62,0.02,3.62,0.02,-0.02,0.12,-0.25,3.61,3.60,3.60
102.27,3.59,0.04,3.58,0.03,-0.03,0.10,-0.28,3.56,3.55,3.55
103.29,3.56,0.06,3.55,0.04,-0.04,0.09,-0.31,3.52,3.51,3.50
104.32,3.52,0.06,3.52,0.06,-0.06,0.07,-0.33,3.47,3.46,3.47
105.37,3.48,0.07,3.48,0.07,-0.07,0.05,-0.36,3.41,3.41,3.42
106.42,3.44,0.08,3.45,0.09,-0.09,0.03,-0.38,3.35,3.36,3.36
107.48,3.40,0.09,3.42,0.12,-0.12,0.01,-0.41,3.29,3.30,3.31
108.56,3.36,0.12,3.39,0.14,-0.14,-0.01,-0.43,3.22,3.24,3.24
109.64,3.32,0.14,3.35,0.17,-0.17,-0.03,-0.45,3.15,3.18,3.19
110.74,3.30,0.17,3.32,0.20,-0.20,-0.05,-0.48,3.11,3.12,3.13
111.85,3.28,0.22,3.28,0.23,-0.23,-0.07,-0.50,3.06,3.06,3.06
112.97,3.26,0.28,3.24,0.25,-0.25,-0.09,-0.52,3.01,2.99,2.99
114.10,3.23,0.30,3.21,0.29,-0.29,-0.11,-0.54,2.95,2.92,2.93
115.24,3.20,0.35,3.17,0.32,-0.32,-0.13,-0.56,2.89,2.85,2.85
116.39,3.15,0.38,3.14,0.35,-0.35,-0.16,-0.58,2.80,2.79,2.78
117.55,3.11,0.40,3.10,0.39,-0.39,-0.18,-0.60,2.73,2.72,2.71
118.73,3.06,0.43,3.07,0.42,-0.42,-0.20,-0.62,2.64,2.65,2.64
119.92,3.02,0.44,3.04,0.46,-0.46,-0.23,-0.64,2.56,2.58,2.58
121.12,2.98,0.48,3.01,0.49,-0.49,-0.25,-0.66,2.49,2.52,2.51
122.33,2.94,0.50,2.98,0.53,-0.53,-0.27,-0.67,2.42,2.45,2.45
123.55,2.92,0.53,2.94,0.56,-0.56,-0.30,-0.69,2.37,2.39,2.39
124.79,2.90,0.57,2.91,0.59,-0.59,-0.32,-0.70,2.32,2.33,2.33
126.03,2.89,0.62,2.88,0.61,-0.61,-0.35,-0.72,2.28,2.27,2.27
127.29,2.87,0.67,2.85,0.65,-0.65,-0.38,-0.73,2.23,2.21,2.21
128.57,2.84,0.71,2.82,0.68,-0.68,-0.40,-0.74,2.17,2.15,2.14
129.85,2.81,0.72,2.80,0.71,-0.71,-0.43,-0.75,2.11,2.09,2.09
131.15,2.78,0.75,2.78,0.74,-0.74,-0.46,-0.76,2.04,2.04,2.03
132.46,2.74,0.76,2.75,0.77,-0.77,-0.49,-0.77,1.97,1.98,1.98
133.79,2.71,0.78,2.73,0.80,-0.80,-0.52,-0.78,1.91,1.93,1.94
135.12,2.69,0.81,2.71,0.82,-0.82,-0.55,-0.79,1.87,1.88,1.88
136.48,2.66,0.83,2.68,0.85,-0.85,-0.58,-0.80,1.82,1.83,1.84
137.84,2.65,0.87,2.65,0.87,-0.87,-0.61,-0.81,1.78,1.78,1.78
139.22,2.63,0.90,2.62,0.89,-0.89,-0.64,-0.81,1.75,1.74,1.73
140.61,2.60,0.93,2.59,0.90,-0.90,-0.68,-0.82,1.70,1.69,1.68
142.02,2.58,0.94,2.57,0.92,-0.92,-0.71,-0.83,1.66,1.64,1.65
143.44,2.55,0.95,2.54,0.94,-0.94,-0.74,-0.83,1.61,1.60,1.61
144.87,2.52,0.97,2.51,0.96,-0.96,-0.78,-0.84,1.56,1.55,1.56
146.32,2.48,0.98,2.49,0.98,-0.98,-0.82,-0.85,1.50,1.51,1.51
147.78,2.45,0.98,2.46,1.00,-1.00,-0.85,-0.85,1.45,1.46,1.47
149.26,2.41,0.99,2.43,1.02,-1.02,-0.89,-0.86,1.39,1.41,1.42
150.75,2.38,1.03,2.41,1.04,-1.04,-0.93,-0.87,1.34,1.36,1.36
152.26,2.35,1.04,2.38,1.06,-1.06,-0.97,-0.88,1.29,1.31,1.31
153.78,2.33,1.06,2.35,1.08,-1.08,-1.01,-0.89,1.25,1.27,1.27
155.32,2.32,1.12,2.31,1.10,-1.10,-1.05,-0.89,1.23,1.22,1.21
156.88,2.30,1.14,2.28,1.12,-1.12,-1.09,-0.90,1.19,1.16,1.17
158.44,2.27,1.16,2.25,1.14,-1.14,-1.13,-0.91,1.14,1.11,1.12
160.03,2.24,1.19,2.22,1.16,-1.16,-1.17,-0.92,1.09,1.06,1.06
161.63,2.20,1.21,2.19,1.18,-1.18,-1.21,-0.93,1.02,1.01,1.00
163.24,2.16,1.21,2.16,1.20,-1.20,-1.25,-0.95,0.96,0.95,0.95
164.88,2.11,1.21,2.13,1.23,-1.23,-1.29,-0.96,0.89,0.90,0.90
166.53,2.07,1.23,2.10,1.25,-1.25,-1.33,-0.97,0.82,0.85,0.85
168.19,2.03,1.24,2.07,1.27,-1.27,-1.38,-0.99,0.76,0.79,0.79
169.87,2.00,1.26,2.03,1.30,-1.30,-1.42,-1.00,0.71,0.74,0.74
171.57,1.98,1.30,2.00,1.32,-1.32,-1.46,-1.02,0.67,0.68,0.69
173.29,1.97,1.35,1.96,1.34,-1.34,-1.50,-1.03,0.64,0.62,0.62
175.02,1.95,1.38,1.93,1.36,-1.36,-1.53,-1.05,0.59,0.56,0.57
176.77,1.92,1.42,1.89,1.39,-1.39,-1.57,-1.07,0.54,0.50,0.50
178.54,1.88,1.44,1.86,1.41,-1.41,-1.61,-1.09,0.47,0.44,0.44
180.32,1.84,1.46,1.83,1.44,-1.44,-1.64,-1.11,0.40,0.38,0.39
182.13,1.79,1.47,1.80,1.48,-1.48,-1.67,-1.13,0.32,0.32,0.33
183.95,1.75,1.49,1.77,1.51,-1.51,-1.70,-1.15,0.25,0.26,0.26
185.79,1.71,1.51,1.74,1.54,-1.54,-1.73,-1.18,0.17,0.20,0.20
187.65,1.68,1.55,1.71,1.57,-1.57,-1.76,-1.20,0.12,0.14,0.13
189.52,1.65,1.58,1.68,1.59,-1.59,-1.78,-1.22,0.06,0.08,0.07
191.42,1.63,1.61,1.64,1.62,-1.62,-1.80,-1.25,0.01,0.02,0.02
193.33,1.62,1.66,1.61,1.65,-1.65,-1.82,-1.27,-0.02,-0.04,-0.03
195.27,1.60,1.69,1.58,1.67,-1.67,-1.83,-1.30,-0.07,-0.09,-0.08
197.22,1.57,1.72,1.56,1.70,-1.70,-1.85,-1.33,-0.13,-0.15,-0.15
199.19,1.54,1.75,1.53,1.73,-1.73,-1.85,-1.35,-0.19,-0.20,-0.21
201.18,1.50,1.76,1.51,1.76,-1.76,-1.86,-1.38,-0.25,-0.25,-0.26
203.19,1.47,1.77,1.48,1.79,-1.79,-1.86,-1.41,-0.31,-0.30,-0.30
205.23,1.43,1.79,1.46,1.81,-1.81,-1.86,-1.44,-0.37,-0.35,-0.36
207.28,1.40,1.79,1.43,1.83,-1.83,-1.85,-1.46,-0.42,-0.40,-0.39
209.35,1.38,1.83,1.40,1.84,-1.84,-1.84,-1.49,-0.46,-0.45,-0.44
211.44,1.37,1.87,1.36,1.85,-1.85,-1.83,-1.52,-0.48,-0.49,-0.50
213.56,1.35,1.89,1.33,1.86,-1.86,-1.82,-1.54,-0.51,-0.53,-0.54
215.69,1.32,1.89,1.29,1.87,-1.87,-1.80,-1.57,-0.54,-0.57,-0.56
217.85,1.28,1.89,1.26,1.87,-1.87,-1.78,-1.60,-0.59,-0.61,-0.61
220.03,1.23,1.89,1.22,1.87,-1.87,-1.76,-1.62,-0.64,-0.65,-0.65
222.23,1.19,1.88,1.19,1.87,-1.87,-1.73,-1.64,-0.67,-0.68,-0.69
224.45,1.14,1.86,1.15,1.86,-1.86,-1.70,-1.66,-0.72,-0.71,-0.71
226.70,1.09,1.83,1.12,1.86,-1.86,-1.67,-1.68,-0.76,-0.74,-0.74
228.96,1.05,1.82,1.08,1.84,-1.84,-1.64,-1.70,-0.79,-0.76,-0.77
231.25,1.02,1.81,1.04,1.83,-1.83,-1.61,-1.71,-0.81,-0.79,-0.78
233.57,0.99,1.80,1.01,1.81,-1.81,-1.58,-1.73,-0.82,-0.80,-0.80
235.90,0.97,1.80,0.97,1.79,-1.79,-1.54,-1.74,-0.82,-0.82,-0.83
238.26,0.94,1.78,0.94,1.77,-1.77,-1.51,-1.74,-0.83,-0.83,-0.84
240.64,0.91,1.76,0.91,1.75,-1.75,-1.47,-1.75,-0.84,-0.84,-0.85
243.05,0.88,1.73,0.87,1.73,-1.73,-1.44,-1.75,-0.84,-0.85,-0.85
245.48,0.84,1.70,0.84,1.70,-1.70,-1.40,-1.75,-0.85,-0.86,-0.86
247.93,0.80,1.66,0.81,1.67,-1.67,-1.36,-1.75,-0.86,-0.86,-0.86
250.41,0.77,1.64,0.78,1.64,-1.64,-1.33,-1.74,-0.86,-0.86,-0.87
252.92,0.74,1.60,0.74,1.60,-1.60,-1.29,-1.73,-0.86,-0.86,-0.86
255.45,0.71,1.56,0.71,1.56,-1.56,-1.26,-1.72,-0.84,-0.85,-0.85
258.00,0.67,1.52,0.67,1.51,-1.51,-1.22,-1.70,-0.84,-0.85,-0.84
260.58,0.64,1.49,0.63,1.47,-1.47,-1.18,-1.68,-0.82,-0.84,-0.84
263.19,0.59,1.42,0.59,1.41,-1.41,-1.15,-1.66,-0.82,-0.83,-0.83
265.82,0.54,1.37,0.54,1.36,-1.36,-1.11,-1.63,-0.82,-0.82,-0.83
268.48,0.49,1.30,0.50,1.31,-1.31,-1.08,-1.60,-0.82,-0.81,-0.80
271.16,0.45,1.25,0.46,1.26,-1.26,-1.05,-1.57,-0.80,-0.80,-0.79
273.87,0.41,1.20,0.42,1.20,-1.20,-1.01,-1.54,-0.79,-0.79,-0.79
276.61,0.37,1.14,0.37,1.15,-1.15,-0.98,-1.51,-0.77,-0.77,-0.77
279.38,0.32,1.09,0.33,1.09,-1.09,-0.95,-1.47,-0.76,-0.76,-0.76
282.17,0.28,1.03,0.28,1.03,-1.03,-0.92,-1.43,-0.75,-0.75,-0.75
284.99,0.24,0.98,0.24,0.98,-0.98,-0.89,-1.39,-0.74,-0.74,-0.73
287.84,0.20,0.93,0.20,0.93,-0.93,-0.86,-1.35,-0.72,-0.72,-0.73
290.72,0.16,0.88,0.17,0.88,-0.88,-0.83,-1.30,-0.71,-0.71,-0.71
293.63,0.12,0.82,0.13,0.83,-0.83,-0.81,-1.26,-0.71,-0.70,-0.70
296.57,0.08,0.77,0.10,0.78,-0.78,-0.78,-1.21,-0.70,-0.69,-0.68
299.53,0.04,0.72,0.06,0.74,-0.74,-0.75,-1.16,-0.69,-0.68,-0.68
302.53,0.01,0.69,0.03,0.69,-0.69,-0.73,-1.12,-0.68,-0.66,-0.67
305.55,-0.01,0.64,-0.01,0.65,-0.65,-0.70,-1.07,-0.65,-0.65,-0.65
308.61,-0.03,0.62,-0.04,0.60,-0.60,-0.68,-1.02,-0.63,-0.64,-0.64
311.69,-0.06,0.58,-0.07,0.56,-0.56,-0.66,-0.97,-0.62,-0.63,-0.64
314.81,-0.09,0.52,-0.10,0.52,-0.52,-0.63,-0.92,-0.61,-0.63,-0.61
317.96,-0.13,0.49,-0.14,0.48,-0.48,-0.61,-0.87,-0.61,-0.62,-0.61
321.14,-0.17,0.44,-0.17,0.44,-0.44,-0.59,-0.82,-0.61,-0.61,-0.61
324.35,-0.20,0.42,-0.20,0.41,-0.41,-0.57,-0.78,-0.60,-0.60,-0.61
327.59,-0.24,0.36,-0.23,0.37,-0.37,-0.55,-0.73,-0.61,-0.60,-0.60
330.87,-0.27,0.33,-0.26,0.34,-0.34,-0.53,-0.68,-0.61,-0.60,-0.60
334.18,-0.29,0.32,-0.28,0.31,-0.31,-0.51,-0.63,-0.60,-0.59,-0.60
337.52,-0.32,0.28,-0.31,0.28,-0.28,-0.49,-0.58,-0.60,-0.59,-0.59
340.90,-0.34,0.25,-0.33,0.26,-0.26,-0.47,-0.53,-0.60,-0.59,-0.59
344.30,-0.37,0.22,-0.36,0.24,-0.24,-0.45,-0.48,-0.60,-0.59,-0.59
347.75,-0.39,0.21,-0.38,0.22,-0.22,-0.44,-0.43,-0.60,-0.60,-0.59
351.23,-0.41,0.19,-0.40,0.20,-0.20,-0.42,-0.39,-0.61,-0.60,-0.60
354.74,-0.42,0.18,-0.42,0.19,-0.19,-0.40,-0.34,-0.60,-0.60,-0.60
358.28,-0.44,0.17,-0.44,0.17,-0.17,-0.39,-0.29,-0.61,-0.61,-0.61
361.87,-0.45,0.17,-0.46,0.16,-0.16,-0.37,-0.24,-0.60,-0.61,-0.61
365.49,-0.47,0.15,-0.48,0.14,-0.14,-0.35,-0.20,-0.61,-0.62,-0.62
369.14,-0.48,0.15,-0.50,0.12,-0.12,-0.34,-0.15,-0.60,-0.62,-0.63
372.83,-0.50,0.13,-0.52,0.11,-0.11,-0.32,-0.10,-0.60,-0.63,-0.63
376.56,-0.53,0.12,-0.55,0.09,-0.09,-0.31,-0.06,-0.62,-0.64,-0.64
380.33,-0.56,0.09,-0.57,0.08,-0.08,-0.29,-0.01,-0.64,-0.65,-0.64
384.13,-0.59,0.07,-0.59,0.07,-0.07,-0.27,0.03,-0.65,-0.66,-0.66
387.97,-0.62,0.05,-0.61,0.06,-0.06,-0.26,0.08,-0.67,-0.66,-0.67
391.85,-0.64,0.04,-0.62,0.05,-0.05,-0.24,0.12,-0.69,-0.67,-0.68
395.77,-0.66,0.01,-0.63,0.05,-0.05,-0.23,0.17,-0.70,-0.68,-0.67
399.73,-0.67,0.02,-0.64,0.05,-0.05,-0.21,0.21,-0.71,-0.68,-0.68
403.72,-0.67,0.03,-0.64,0.05,-0.05,-0.20,0.25,-0.72,-0.69,-0.69
407.76,-0.67,0.04,-0.63,0.06,-0.06,-0.18,0.29,-0.73,-0.70,-0.70
411.84,-0.65,0.05,-0.63,0.07,-0.07,-0.17,0.34,-0.72,-0.70,-0.70
415.96,-0.63,0.08,-0.62,0.09,-0.09,-0.15,0.38,-0.72,-0.71,-0.71
420.12,-0.61,0.10,-0.60,0.11,-0.11,-0.13,0.42,-0.71,-0.71,-0.71
424.32,-0.59,0.12,-0.59,0.12,-0.12,-0.12,0.45,-0.71,-0.71,-0.71
428.56,-0.57,0.16,-0.58,0.14,-0.14,-0.10,0.49,-0.71,-0.72,-0.72
432.85,-0.55,0.18,-0.57,0.15,-0.15,-0.08,0.53,-0.70,-0.72,-0.72
437.18,-0.54,0.19,-0.56,0.16,-0.16,-0.06,0.56,-0.69,-0.72,-0.72
441.55,-0.53,0.19,-0.56,0.16,-0.16,-0.04,0.60,-0.69,-0.72,-0.71
445.96,-0.54,0.18,-0.56,0.16,-0.16,-0.02,0.63,-0.69,-0.72,-0.72
450.42,-0.56,0.17,-0.57,0.15,-0.15,-0.00,0.66,-0.70,-0.72,-0.73
454.93,-0.58,0.14,-0.58,0.13,-0.13,0.02,0.69,-0.71,-0.72,-0.72
459.48,-0.60,0.12,-0.60,0.11,-0.11,0.04,0.71,-0.71,-0.71,-0.72
464.07,-0.63,0.08,-0.62,0.09,-0.09,0.06,0.74,-0.71,-0.71,-0.71
468.71,-0.66,0.04,-0.65,0.06,-0.06,0.09,0.76,-0.72,-0.70,-0.70
473.40,-0.70,0.00,-0.67,0.03,-0.03,0.11,0.78,-0.72,-0.70,-0.70
478.13,-0.73,-0.03,-0.70,-0.01,0.01,0.14,0.79,-0.72,-0.69,-0.69
482.91,-0.75,-0.05,-0.73,-0.04,0.04,0.17,0.81,-0.71,-0.69,-0.69
487.74,-0.78,-0.09,-0.76,-0.08,0.08,0.20,0.82,-0.70,-0.68,-0.68
492.62,-0.81,-0.13,-0.80,-0.12,0.12,0.24,0.83,-0.69,-0.68,-0.67
497.55,-0.85,-0.17,-0.83,-0.16,0.16,0.27,0.83,-0.69,-0.67,-0.67
502.52,-0.87,-0.20,-0.88,-0.21,0.21,0.31,0.84,-0.66,-0.67,-0.67
507.55,-0.91,-0.24,-0.92,-0.26,0.26,0.35,0.84,-0.65,-0.67,-0.67
512.62,-0.95,-0.28,-0.97,-0.31,0.31,0.39,0.83,-0.64,-0.66,-0.67
517.75,-1.01,-0.35,-1.03,-0.37,0.37,0.44,0.83,-0.63,-0.66,-0.66
522.93,-1.07,-0.41,-1.10,-0.44,0.44,0.49,0.82,-0.63,-0.66,-0.66
528.16,-1.14,-0.48,-1.17,-0.51,0.51,0.54,0.81,-0.63,-0.66,-0.66
