frequency,raw,error,smoothed,error_smoothed,equalization,parametric_eq,fixed_band_eq,equalized_raw,equalized_smoothed,target
20.00,8.94,-3.18,9.03,-3.10,3.10,2.92,0.71,12.04,12.12,12.12
20.20,9.02,-3.09,9.07,-3.04,3.04,2.90,0.74,12.06,12.11,12.11
20.40,9.09,-3.01,9.12,-2.98,2.98,2.87,0.76,12.08,12.10,12.10
20.61,9.17,-2.93,9.17,-2.93,2.93,2.85,0.78,12.10,12.09,12.10
20.81,9.24,-2.83,9.21,-2.87,2.87,2.82,0.81,12.12,12.08,12.08
21.02,9.31,-2.76,9.25,-2.82,2.82,2.80,0.84,12.13,12.08,12.08
21.23,9.36,-2.70,9.30,-2.77,2.77,2.77,0.86,12.13,12.07,12.07
21.44,9.40,-2.67,9.34,-2.72,2.72,2.74,0.89,12.13,12.06,12.07
21.66,9.45,-2.61,9.38,-2.68,2.68,2.71,0.92,12.13,12.05,12.06
21.87,9.49,-2.56,9.42,-2.63,2.63,2.69,0.95,12.12,12.05,12.05
22.09,9.52,-2.52,9.46,-2.58,2.58,2.66,0.98,12.11,12.04,12.04
22.31,9.51,-2.53,9.49,-2.54,2.54,2.63,1.01,12.05,12.04,12.04
22.54,9.50,-2.53,9.52,-2.51,2.51,2.60,1.04,12.01,12.03,12.03
22.76,9.50,-2.53,9.55,-2.48,2.48,2.56,1.08,11.98,12.03,12.03
22.99,9.49,-2.53,9.58,-2.44,2.44,2.53,1.11,11.94,12.02,12.02
23.22,9.54,-2.46,9.61,-2.41,2.41,2.50,1.14,11.95,12.02,12.01
23.45,9.60,-2.41,9.64,-2.37,2.37,2.47,1.18,11.97,12.01,12.01
23.69,9.65,-2.35,9.68,-2.34,2.34,2.44,1.22,11.99,12.01,12.00
23.92,9.70,-2.30,9.71,-2.30,2.30,2.40,1.25,12.00,12.01,12.00
24.16,9.76,-2.25,9.74,-2.27,2.27,2.37,1.29,12.03,12.01,12.01
24.40,9.82,-2.20,9.79,-2.23,2.23,2.33,1.33,12.05,12.01,12.02
24.65,9.88,-2.14,9.83,-2.18,2.18,2.30,1.36,12.06,12.01,12.02
24.89,9.94,-2.07,9.88,-2.13,2.13,2.27,1.40,12.07,12.01,12.02
25.14,9.97,-2.04,9.93,-2.08,2.08,2.23,1.44,12.05,12.01,12.01
25.39,9.98,-2.03,9.98,-2.03,2.03,2.20,1.48,12.01,12.02,12.01
25.65,9.99,-2.02,10.03,-1.99,1.99,2.16,1.52,11.98,12.02,12.01
25.91,10.00,-2.02,10.07,-1.95,1.95,2.12,1.55,11.95,12.02,12.02
26.16,10.05,-1.97,10.11,-1.91,1.91,2.09,1.59,11.96,12.02,12.03
26.43,10.12,-1.90,10.15,-1.87,1.87,2.05,1.63,11.99,12.02,12.02
26.69,10.19,-1.83,10.18,-1.84,1.84,2.01,1.66,12.03,12.02,12.02
26.96,10.27,-1.75,10.21,-1.81,1.81,1.98,1.70,12.08,12.02,12.02
27.23,10.29,-1.73,10.24,-1.78,1.78,1.94,1.73,12.07,12.02,12.02
27.50,10.31,-1.70,10.27,-1.75,1.75,1.90,1.76,12.06,12.02,12.02
27.77,10.33,-1.69,10.30,-1.72,1.72,1.87,1.79,12.05,12.02,12.02
28.05,10.34,-1.68,10.33,-1.69,1.69,1.83,1.82,12.03,12.02,12.02
28.33,10.35,-1.66,10.37,-1.65,1.65,1.79,1.84,12.00,12.02,12.01
28.62,10.36,-1.64,10.40,-1.61,1.61,1.75,1.87,11.98,12.01,12.00
28.90,10.37,-1.64,10.43,-1.58,1.58,1.72,1.89,11.95,12.01,12.01
29.19,10.40,-1.61,10.45,-1.55,1.55,1.68,1.91,11.96,12.01,12.01
29.48,10.45,-1.55,10.48,-1.53,1.53,1.64,1.92,11.98,12.00,12.01
29.78,10.49,-1.51,10.50,-1.50,1.50,1.60,1.93,11.99,12.00,12.00
30.08,10.54,-1.47,10.52,-1.47,1.47,1.56,1.94,12.02,11.99,12.01
30.38,10.58,-1.41,10.55,-1.44,1.44,1.52,1.94,12.02,11.99,11.99
30.68,10.61,-1.37,10.57,-1.41,1.41,1.49,1.94,12.02,11.98,11.98
30.99,10.65,-1.33,10.60,-1.37,1.37,1.45,1.94,12.02,11.97,11.98
31.30,10.65,-1.31,10.63,-1.34,1.34,1.41,1.93,11.99,11.97,11.96
31.61,10.65,-1.31,10.66,-1.30,1.30,1.37,1.92,11.95,11.96,11.96
31.93,10.65,-1.29,10.69,-1.26,1.26,1.33,1.90,11.92,11.95,11.94
32.24,10.67,-1.27,10.71,-1.23,1.23,1.29,1.89,11.90,11.94,11.94
32.57,10.71,-1.21,10.74,-1.20,1.20,1.26,1.86,11.91,11.93,11.93
32.89,10.74,-1.18,10.76,-1.17,1.17,1.22,1.84,11.91,11.93,11.92
33.22,10.77,-1.14,10.78,-1.14,1.14,1.18,1.81,11.91,11.92,11.92
33.55,10.81,-1.10,10.81,-1.11,1.11,1.14,1.77,11.92,11.91,11.91
33.89,10.84,-1.07,10.83,-1.08,1.08,1.10,1.74,11.92,11.91,11.91
34.23,10.87,-1.03,10.86,-1.04,1.04,1.06,1.70,11.92,11.90,11.90
34.57,10.91,-0.98,10.89,-1.01,1.01,1.02,1.65,11.92,11.90,11.89
34.92,10.94,-0.94,10.92,-0.97,0.97,0.98,1.61,11.92,11.89,11.89
35.27,10.95,-0.94,10.94,-0.94,0.94,0.95,1.56,11.89,11.88,11.89
35.62,10.95,-0.92,10.96,-0.91,0.91,0.91,1.51,11.86,11.87,11.87
35.97,10.95,-0.91,10.98,-0.88,0.88,0.87,1.46,11.83,11.86,11.87
36.33,10.98,-0.87,10.99,-0.85,0.85,0.83,1.41,11.83,11.84,11.85
36.70,11.02,-0.81,11.01,-0.82,0.82,0.79,1.36,11.84,11.83,11.83
37.06,11.05,-0.76,11.02,-0.78,0.78,0.75,1.30,11.83,11.81,11.81
37.43,11.05,-0.73,11.04,-0.75,0.75,0.71,1.24,11.80,11.79,11.79
37.81,11.05,-0.72,11.05,-0.71,0.71,0.68,1.19,11.76,11.76,11.77
38.19,11.05,-0.69,11.07,-0.67,0.67,0.64,1.13,11.72,11.74,11.74
38.57,11.05,-0.66,11.08,-0.63,0.63,0.60,1.07,11.68,11.71,11.71
38.95,11.05,-0.63,11.09,-0.59,0.59,0.56,1.01,11.64,11.68,11.68
39.34,11.08,-0.56,11.10,-0.55,0.55,0.52,0.95,11.63,11.65,11.64
39.74,11.12,-0.50,11.12,-0.51,0.51,0.48,0.89,11.63,11.62,11.62
40.14,11.15,-0.44,11.12,-0.47,0.47,0.44,0.83,11.62,11.59,11.59
40.54,11.15,-0.41,11.13,-0.43,0.43,0.41,0.77,11.58,11.56,11.56
40.94,11.15,-0.38,11.13,-0.40,0.40,0.37,0.71,11.55,11.53,11.53
41.35,11.15,-0.35,11.14,-0.36,0.36,0.33,0.65,11.52,11.50,11.51
41.76,11.15,-0.31,11.14,-0.33,0.33,0.29,0.59,11.48,11.47,11.46
42.18,11.15,-0.29,11.15,-0.30,0.30,0.25,0.53,11.45,11.44,11.44
42.60,11.15,-0.27,11.15,-0.26,0.26,0.21,0.47,11.42,11.42,11.42
43.03,11.15,-0.23,11.15,-0.23,0.23,0.17,0.41,11.38,11.39,11.38
43.46,11.14,-0.21,11.15,-0.20,0.20,0.14,0.35,11.35,11.36,11.35
43.90,11.12,-0.20,11.15,-0.18,0.18,0.10,0.29,11.30,11.33,11.33
44.33,11.13,-0.16,11.15,-0.15,0.15,0.06,0.23,11.28,11.29,11.29
44.78,11.14,-0.11,11.15,-0.11,0.11,0.02,0.17,11.26,11.26,11.26
45.23,11.15,-0.09,11.15,-0.08,0.08,-0.02,0.11,11.23,11.22,11.24
45.68,11.15,-0.04,11.15,-0.03,0.03,-0.06,0.05,11.19,11.19,11.19
46.13,11.15,0.01,11.15,0.01,-0.01,-0.09,-0.00,11.14,11.15,11.15
46.60,11.15,0.04,11.16,0.05,-0.05,-0.13,-0.06,11.10,11.11,11.11
47.06,11.15,0.08,11.15,0.09,-0.09,-0.17,-0.12,11.06,11.06,11.07
47.53,11.15,0.12,11.15,0.14,-0.14,-0.21,-0.18,11.02,11.01,11.03
48.01,11.15,0.18,11.15,0.18,-0.18,-0.25,-0.23,10.97,10.97,10.97
48.49,11.15,0.23,11.14,0.22,-0.22,-0.29,-0.29,10.93,10.92,10.92
48.97,11.15,0.28,11.13,0.26,-0.26,-0.33,-0.35,10.89,10.87,10.87
49.46,11.15,0.33,11.13,0.30,-0.30,-0.37,-0.40,10.85,10.82,10.83
49.96,11.15,0.40,11.12,0.35,-0.35,-0.40,-0.46,10.81,10.77,10.75
50.46,11.11,0.40,11.11,0.39,-0.39,-0.44,-0.52,10.72,10.72,10.71
50.96,11.06,0.40,11.10,0.43,-0.43,-0.48,-0.57,10.63,10.67,10.67
51.47,11.06,0.44,11.09,0.47,-0.47,-0.52,-0.63,10.59,10.62,10.62
51.99,11.05,0.49,11.08,0.51,-0.51,-0.56,-0.68,10.54,10.57,10.56
52.51,11.05,0.53,11.07,0.55,-0.55,-0.60,-0.73,10.50,10.51,10.52
53.03,11.05,0.57,11.05,0.59,-0.59,-0.64,-0.79,10.46,10.46,10.48
53.56,11.05,0.63,11.04,0.63,-0.63,-0.68,-0.84,10.42,10.41,10.42
54.10,11.05,0.69,11.03,0.67,-0.67,-0.72,-0.89,10.38,10.36,10.36
54.64,11.05,0.74,11.02,0.71,-0.71,-0.75,-0.94,10.34,10.31,10.31
55.18,11.03,0.78,11.01,0.75,-0.75,-0.79,-0.99,10.29,10.26,10.25
55.74,10.98,0.79,11.00,0.78,-0.78,-0.83,-1.04,10.20,10.21,10.20
56.29,10.95,0.80,10.98,0.82,-0.82,-0.87,-1.09,10.13,10.17,10.15
56.86,10.95,0.84,10.97,0.86,-0.86,-0.91,-1.14,10.10,10.11,10.11
57.42,10.95,0.91,10.96,0.89,-0.89,-0.95,-1.18,10.06,10.06,10.04
58.00,10.95,0.95,10.94,0.93,-0.93,-0.99,-1.23,10.02,10.01,10.01
58.58,10.95,0.98,10.93,0.97,-0.97,-1.03,-1.27,9.98,9.95,9.97
59.16,10.94,1.02,10.92,1.02,-1.02,-1.07,-1.31,9.92,9.90,9.92
59.76,10.90,1.03,10.90,1.06,-1.06,-1.11,-1.35,9.84,9.84,9.87
60.35,10.87,1.07,10.89,1.11,-1.11,-1.15,-1.39,9.76,9.78,9.80
60.96,10.82,1.09,10.88,1.16,-1.16,-1.19,-1.43,9.66,9.72,9.74
61.57,10.84,1.18,10.88,1.21,-1.21,-1.23,-1.46,9.63,9.66,9.66
62.18,10.85,1.26,10.87,1.27,-1.27,-1.27,-1.50,9.58,9.60,9.59
62.80,10.85,1.34,10.85,1.32,-1.32,-1.31,-1.53,9.53,9.53,9.51
63.43,10.85,1.41,10.83,1.37,-1.37,-1.35,-1.56,9.48,9.46,9.45
64.07,10.85,1.46,10.81,1.41,-1.41,-1.39,-1.59,9.44,9.40,9.39
64.71,10.84,1.52,10.78,1.46,-1.46,-1.43,-1.62,9.39,9.33,9.32
65.35,10.79,1.53,10.76,1.51,-1.51,-1.47,-1.64,9.29,9.26,9.26
66.01,10.73,1.55,10.74,1.55,-1.55,-1.51,-1.67,9.18,9.19,9.19
66.67,10.73,1.60,10.71,1.59,-1.59,-1.55,-1.69,9.14,9.12,9.13
67.33,10.70,1.65,10.68,1.63,-1.63,-1.59,-1.71,9.07,9.05,9.05
68.01,10.65,1.67,10.65,1.67,-1.67,-1.63,-1.74,8.98,8.98,8.98
68.69,10.56,1.66,10.62,1.71,-1.71,-1.67,-1.76,8.85,8.91,8.90
69.37,10.52,1.68,10.60,1.76,-1.76,-1.72,-1.78,8.76,8.84,8.85
70.07,10.52,1.76,10.57,1.81,-1.81,-1.76,-1.80,8.71,8.76,8.77
70.77,10.54,1.85,10.54,1.85,-1.85,-1.80,-1.82,8.69,8.69,8.70
71.48,10.55,1.93,10.51,1.90,-1.90,-1.84,-1.84,8.65,8.62,8.62
72.19,10.52,1.98,10.49,1.95,-1.95,-1.88,-1.86,8.57,8.54,8.54
72.91,10.39,1.93,10.47,2.00,-2.00,-1.92,-1.88,8.39,8.47,8.46
73.64,10.42,2.03,10.44,2.05,-2.05,-1.96,-1.90,8.38,8.40,8.39
74.38,10.47,2.15,10.41,2.08,-2.08,-2.00,-1.92,8.39,8.32,8.32
75.12,10.50,2.26,10.39,2.14,-2.14,-2.04,-1.94,8.37,8.25,8.24
75.87,10.44,2.26,10.37,2.19,-2.19,-2.09,-1.96,8.25,8.18,8.18
76.63,10.34,2.23,10.35,2.23,-2.23,-2.13,-1.98,8.11,8.12,8.11
77.40,10.24,2.20,10.32,2.27,-2.27,-2.17,-2.01,7.97,8.05,8.05
78.17,10.18,2.21,10.28,2.30,-2.30,-2.21,-2.03,7.89,7.98,7.97
78.95,10.24,2.32,10.24,2.32,-2.32,-2.25,-2.06,7.92,7.91,7.92
79.74,10.24,2.39,10.20,2.36,-2.36,-2.29,-2.09,7.89,7.85,7.85
80.54,10.13,2.35,10.17,2.39,-2.39,-2.33,-2.12,7.74,7.78,7.78
81.35,10.08,2.37,10.14,2.43,-2.43,-2.37,-2.15,7.66,7.71,7.72
82.16,10.17,2.52,10.10,2.45,-2.45,-2.42,-2.18,7.72,7.65,7.66
82.98,10.24,2.66,10.07,2.49,-2.49,-2.46,-2.21,7.75,7.58,7.58
83.81,9.97,2.46,10.03,2.52,-2.52,-2.50,-2.25,7.45,7.51,7.51
84.65,9.88,2.44,9.99,2.55,-2.55,-2.54,-2.29,7.33,7.44,7.44
85.50,9.90,2.55,9.96,2.59,-2.59,-2.58,-2.33,7.31,7.37,7.36
86.35,9.94,2.65,9.93,2.64,-2.64,-2.62,-2.37,7.31,7.30,7.29
87.22,9.94,2.72,9.90,2.68,-2.68,-2.66,-2.41,7.26,7.22,7.23
88.09,9.93,2.78,9.87,2.72,-2.72,-2.70,-2.45,7.21,7.15,7.15
88.97,9.84,2.76,9.84,2.76,-2.76,-2.74,-2.50,7.08,7.08,7.08
89.86,9.78,2.79,9.80,2.81,-2.81,-2.79,-2.55,6.98,7.00,6.99
90.76,9.75,2.83,9.77,2.85,-2.85,-2.83,-2.60,6.91,6.92,6.92
91.66,9.70,2.87,9.72,2.88,-2.88,-2.87,-2.65,6.82,6.84,6.83
92.58,9.59,2.83,9.68,2.93,-2.93,-2.91,-2.71,6.67,6.76,6.76
93.51,9.61,2.93,9.65,2.98,-2.98,-2.95,-2.76,6.63,6.67,6.68
94.44,9.73,3.13,9.61,3.02,-3.02,-2.99,-2.82,6.71,6.59,6.60
95.39,9.69,3.19,9.56,3.06,-3.06,-3.03,-2.88,6.63,6.50,6.51
96.34,9.53,3.12,9.50,3.09,-3.09,-3.07,-2.94,6.44,6.41,6.41
97.30,9.41,3.09,9.45,3.14,-3.14,-3.11,-3.01,6.27,6.32,6.32
98.28,9.32,3.10,9.41,3.18,-3.18,-3.15,-3.07,6.14,6.23,6.23
99.26,9.34,3.22,9.36,3.22,-3.22,-3.19,-3.14,6.12,6.13,6.12
100.25,9.28,3.26,9.29,3.25,-3.25,-3.22,-3.20,6.03,6.04,6.03
101.25,9.20,3.26,9.24,3.29,-3.29,-3.26,-3.27,5.91,5.94,5.94
102.27,9.16,3.32,9.18,3.33,-3.33,-3.30,-3.34,5.83,5.85,5.85
103.29,9.15,3.40,9.11,3.36,-3.36,-3.34,-3.41,5.79,5.75,5.75
104.32,9.10,3.44,9.04,3.38,-3.38,-3.38,-3.48,5.72,5.66,5.67
105.37,9.00,3.43,8.97,3.40,-3.40,-3.42,-3.54,5.60,5.57,5.57
106.42,8.92,3.45,8.91,3.43,-3.43,-3.45,-3.61,5.49,5.47,5.48
107.48,8.86,3.49,8.85,3.47,-3.47,-3.49,-3.68,5.39,5.38,5.37
108.56,8.76,3.47,8.79,3.50,-3.50,-3.53,-3.75,5.26,5.29,5.29
109.64,8.61,3.41,8.73,3.53,-3.53,-3.56,-3.81,5.08,5.20,5.20
110.74,8.66,3.56,8.66,3.56,-3.56,-3.60,-3.88,5.11,5.11,5.10
111.85,8.77,3.75,8.61,3.59,-3.59,-3.63,-3.94,5.18,5.02,5.02
112.97,8.47,3.54,8.56,3.63,-3.63,-3.67,-4.00,4.84,4.93,4.94
114.10,8.37,3.52,8.49,3.65,-3.65,-3.70,-4.06,4.73,4.84,4.85
115.24,8.45,3.69,8.43,3.67,-3.67,-3.74,-4.11,4.79,4.76,4.76
116.39,8.39,3.73,8.38,3.71,-3.71,-3.77,-4.16,4.69,4.68,4.66
117.55,8.36,3.77,8.34,3.74,-3.74,-3.80,-4.21,4.62,4.60,4.59
118.73,8.30,3.80,8.29,3.77,-3.77,-3.84,-4.25,4.53,4.52,4.50
119.92,8.27,3.84,8.25,3.81,-3.81,-3.87,-4.29,4.46,4.44,4.43
121.12,8.22,3.86,8.20,3.84,-3.84,-3.90,-4.32,4.38,4.36,4.37
122.33,8.16,3.88,8.15,3.86,-3.86,-3.93,-4.35,4.30,4.28,4.29
123.55,8.11,3.89,8.08,3.87,-3.87,-3.96,-4.37,4.24,4.21,4.22
124.79,7.97,3.82,8.03,3.90,-3.90,-3.99,-4.39,4.08,4.14,4.15
126.03,7.86,3.79,8.01,3.95,-3.95,-4.02,-4.40,3.92,4.06,4.07
127.29,8.06,4.07,7.96,3.97,-3.97,-4.05,-4.41,4.09,3.99,3.99
128.57,8.06,4.14,7.91,3.99,-3.99,-4.07,-4.41,4.07,3.92,3.92
129.85,7.73,3.89,7.86,4.01,-4.01,-4.10,-4.41,3.72,3.85,3.84
131.15,7.79,4.02,7.81,4.03,-4.03,-4.13,-4.41,3.76,3.77,3.77
132.46,7.81,4.12,7.76,4.06,-4.06,-4.15,-4.40,3.75,3.70,3.69
133.79,7.59,3.97,7.71,4.08,-4.08,-4.18,-4.38,3.51,3.63,3.62
135.12,7.56,4.01,7.66,4.11,-4.11,-4.20,-4.36,3.45,3.56,3.55
136.48,7.68,4.19,7.62,4.14,-4.14,-4.22,-4.34,3.54,3.48,3.49
137.84,7.80,4.38,7.58,4.17,-4.17,-4.25,-4.32,3.63,3.41,3.42
139.22,7.57,4.24,7.52,4.18,-4.18,-4.27,-4.29,3.39,3.34,3.33
140.61,7.34,4.06,7.45,4.18,-4.18,-4.29,-4.26,3.16,3.27,3.28
142.02,7.34,4.14,7.39,4.19,-4.19,-4.31,-4.23,3.15,3.20,3.20
143.44,7.35,4.22,7.34,4.20,-4.20,-4.33,-4.19,3.15,3.14,3.13
144.87,7.32,4.26,7.29,4.22,-4.22,-4.34,-4.16,3.10,3.07,3.07
146.32,7.26,4.26,7.23,4.23,-4.23,-4.36,-4.13,3.03,3.00,3.00
147.78,7.18,4.25,7.18,4.25,-4.25,-4.38,-4.09,2.93,2.93,2.93
149.26,7.12,4.26,7.13,4.26,-4.26,-4.39,-4.06,2.86,2.86,2.86
150.75,7.06,4.28,7.06,4.26,-4.26,-4.41,-4.02,2.80,2.80,2.79
152.26,6.87,4.14,6.99,4.26,-4.26,-4.42,-3.99,2.61,2.73,2.73
153.78,6.78,4.12,6.93,4.27,-4.27,-4.43,-3.96,2.51,2.66,2.66
155.32,7.00,4.40,6.89,4.30,-4.30,-4.44,-3.92,2.70,2.59,2.60
156.88,7.01,4.48,6.85,4.33,-4.33,-4.45,-3.89,2.69,2.52,2.53
158.44,6.70,4.25,6.79,4.34,-4.34,-4.46,-3.87,2.37,2.45,2.46
160.03,6.76,4.38,6.72,4.34,-4.34,-4.47,-3.84,2.43,2.38,2.39
161.63,6.78,4.47,6.67,4.36,-4.36,-4.48,-3.82,2.43,2.31,2.32
163.24,6.53,4.29,6.62,4.38,-4.38,-4.48,-3.80,2.15,2.24,2.24
164.88,6.47,4.30,6.57,4.39,-4.39,-4.49,-3.78,2.08,2.17,2.17
166.53,6.53,4.43,6.51,4.41,-4.41,-4.49,-3.76,2.13,2.10,2.10
168.19,6.47,4.44,6.45,4.42,-4.42,-4.50,-3.75,2.05,2.03,2.03
169.87,6.42,4.46,6.39,4.43,-4.43,-4.50,-3.74,1.99,1.96,1.96
171.57,6.33,4.44,6.32,4.43,-4.43,-4.50,-3.73,1.90,1.89,1.89
173.29,6.24,4.42,6.25,4.42,-4.42,-4.50,-3.72,1.82,1.83,1.82
175.02,6.17,4.41,6.19,4.43,-4.43,-4.50,-3.72,1.74,1.76,1.76
176.77,6.11,4.42,6.14,4.45,-4.45,-4.50,-3.72,1.66,1.70,1.70
178.54,6.24,4.61,6.08,4.45,-4.45,-4.49,-3.72,1.80,1.63,1.63
180.32,5.99,4.43,6.03,4.45,-4.45,-4.49,-3.73,1.54,1.57,1.56
182.13,5.84,4.33,5.98,4.47,-4.47,-4.48,-3.74,1.38,1.51,1.51
183.95,5.92,4.46,5.93,4.47,-4.47,-4.48,-3.75,1.45,1.46,1.46
185.79,5.87,4.48,5.87,4.47,-4.47,-4.47,-3.77,1.40,1.40,1.40
187.65,5.83,4.49,5.82,4.48,-4.48,-4.46,-3.78,1.35,1.34,1.35
189.52,5.77,4.48,5.78,4.49,-4.49,-4.45,-3.80,1.29,1.29,1.29
191.42,5.72,4.47,5.73,4.49,-4.49,-4.44,-3.83,1.23,1.24,1.25
193.33,5.68,4.49,5.68,4.50,-4.50,-4.43,-3.85,1.19,1.19,1.19
195.27,5.63,4.50,5.64,4.50,-4.50,-4.41,-3.88,1.13,1.14,1.14
197.22,5.59,4.51,5.58,4.49,-4.49,-4.40,-3.91,1.10,1.09,1.08
199.19,5.55,4.51,5.52,4.48,-4.48,-4.38,-3.94,1.07,1.04,1.04
201.18,5.52,4.54,5.48,4.49,-4.49,-4.37,-3.97,1.03,0.99,0.99
203.19,5.44,4.50,5.43,4.48,-4.48,-4.35,-4.01,0.96,0.95,0.94
205.23,5.36,4.46,5.35,4.46,-4.46,-4.33,-4.04,0.91,0.90,0.90
207.28,5.28,4.42,5.29,4.43,-4.43,-4.31,-4.08,0.85,0.85,0.86
209.35,5.22,4.41,5.21,4.41,-4.41,-4.29,-4.12,0.82,0.81,0.81
211.44,5.15,4.39,5.14,4.38,-4.38,-4.27,-4.15,0.78,0.76,0.77
213.56,5.08,4.35,5.07,4.34,-4.34,-4.25,-4.19,0.74,0.72,0.73
215.69,5.03,4.35,4.99,4.31,-4.31,-4.23,-4.23,0.72,0.68,0.68
217.85,4.78,4.13,4.92,4.28,-4.28,-4.20,-4.26,0.50,0.64,0.65
220.03,4.92,4.33,4.85,4.25,-4.25,-4.18,-4.30,0.68,0.60,0.59
222.23,4.87,4.31,4.78,4.21,-4.21,-4.15,-4.33,0.66,0.57,0.56
224.45,4.59,4.07,4.71,4.18,-4.18,-4.13,-4.36,0.41,0.53,0.53
226.70,4.55,4.06,4.65,4.15,-4.15,-4.10,-4.39,0.40,0.50,0.49
228.96,4.61,4.14,4.59,4.12,-4.12,-4.07,-4.41,0.49,0.48,0.47
231.25,4.54,4.09,4.53,4.08,-4.08,-4.04,-4.43,0.46,0.45,0.45
233.57,4.50,4.08,4.49,4.06,-4.06,-4.01,-4.45,0.44,0.43,0.42
235.90,4.44,4.04,4.44,4.03,-4.03,-3.98,-4.46,0.41,0.41,0.40
238.26,4.43,4.05,4.39,3.99,-3.99,-3.95,-4.47,0.44,0.39,0.38
240.64,4.35,3.97,4.34,3.96,-3.96,-3.91,-4.47,0.39,0.38,0.39
243.05,4.30,3.93,4.30,3.94,-3.94,-3.88,-4.47,0.36,0.37,0.37
245.48,4.24,3.89,4.27,3.91,-3.91,-3.85,-4.46,0.33,0.35,0.35
247.93,4.22,3.89,4.23,3.89,-3.89,-3.81,-4.45,0.33,0.34,0.33
250.41,4.17,3.83,4.19,3.86,-3.86,-3.78,-4.43,0.31,0.33,0.34
252.92,4.11,3.78,4.15,3.83,-3.83,-3.74,-4.40,0.28,0.32,0.33
255.45,4.13,3.82,4.11,3.80,-3.80,-3.70,-4.37,0.34,0.31,0.31
258.00,4.17,3.87,4.05,3.76,-3.76,-3.67,-4.33,0.41,0.30,0.31
260.58,3.90,3.61,4.01,3.72,-3.72,-3.63,-4.29,0.18,0.28,0.29
263.19,3.85,3.57,3.95,3.69,-3.69,-3.59,-4.24,0.17,0.27,0.28
265.82,4.06,3.81,3.90,3.65,-3.65,-3.55,-4.18,0.41,0.25,0.26
268.48,3.98,3.74,3.87,3.63,-3.63,-3.51,-4.12,0.35,0.24,0.24
271.16,3.83,3.61,3.81,3.59,-3.59,-3.47,-4.06,0.24,0.22,0.22
273.87,3.57,3.36,3.75,3.54,-3.54,-3.43,-3.99,0.03,0.21,0.21
276.61,3.67,3.48,3.70,3.51,-3.51,-3.38,-3.92,0.16,0.19,0.19
279.38,3.78,3.62,3.65,3.47,-3.47,-3.34,-3.84,0.31,0.18,0.16
282.17,3.46,3.30,3.58,3.41,-3.41,-3.30,-3.76,0.05,0.17,0.16
284.99,3.43,3.28,3.52,3.37,-3.37,-3.25,-3.68,0.07,0.16,0.15
287.84,3.54,3.39,3.47,3.32,-3.32,-3.21,-3.60,0.22,0.15,0.15
290.72,3.42,3.29,3.41,3.27,-3.27,-3.16,-3.51,0.16,0.14,0.13
293.63,3.42,3.29,3.34,3.21,-3.21,-3.12,-3.43,0.21,0.13,0.13
296.57,3.39,3.26,3.28,3.15,-3.15,-3.07,-3.34,0.24,0.13,0.13
299.53,3.04,2.92,3.22,3.09,-3.09,-3.03,-3.25,-0.05,0.12,0.12
302.53,3.17,3.05,3.17,3.05,-3.05,-2.98,-3.16,0.13,0.12,0.13
305.55,3.26,3.14,3.12,3.01,-3.01,-2.93,-3.07,0.25,0.11,0.12
308.61,2.91,2.79,3.06,2.94,-2.94,-2.89,-2.98,-0.03,0.11,0.12
311.69,2.93,2.83,2.99,2.88,-2.88,-2.84,-2.89,0.05,0.11,0.11
314.81,3.02,2.91,2.93,2.83,-2.83,-2.79,-2.80,0.19,0.10,0.11
317.96,2.79,2.70,2.86,2.76,-2.76,-2.74,-2.71,0.03,0.10,0.09
321.14,2.72,2.63,2.79,2.69,-2.69,-2.69,-2.62,0.03,0.10,0.10
324.35,2.92,2.83,2.72,2.63,-2.63,-2.64,-2.54,0.29,0.09,0.09
327.59,2.62,2.53,2.66,2.57,-2.57,-2.59,-2.45,0.05,0.09,0.09
330.87,2.53,2.44,2.60,2.52,-2.52,-2.54,-2.37,0.01,0.08,0.09
334.18,2.70,2.63,2.55,2.47,-2.47,-2.49,-2.28,0.23,0.08,0.07
337.52,2.54,2.46,2.48,2.40,-2.40,-2.44,-2.20,0.15,0.08,0.08
340.90,2.26,2.19,2.42,2.34,-2.34,-2.39,-2.12,-0.07,0.08,0.07
344.30,2.25,2.17,2.37,2.29,-2.29,-2.34,-2.04,-0.04,0.08,0.08
347.75,2.29,2.21,2.30,2.22,-2.22,-2.29,-1.96,0.08,0.08,0.08
351.23,2.26,2.19,2.23,2.15,-2.15,-2.23,-1.89,0.12,0.08,0.07
354.74,2.20,2.12,2.18,2.10,-2.10,-2.18,-1.81,0.10,0.08,0.08
358.28,2.13,2.05,2.12,2.03,-2.03,-2.13,-1.74,0.10,0.09,0.08
361.87,2.08,2.00,2.05,1.96,-1.96,-2.07,-1.67,0.12,0.09,0.09
365.49,2.01,1.92,2.02,1.92,-1.92,-2.02,-1.60,0.09,0.09,0.09
369.14,1.96,1.86,1.96,1.86,-1.86,-1.97,-1.53,0.10,0.10,0.10
372.83,1.92,1.82,1.90,1.80,-1.80,-1.91,-1.46,0.12,0.10,0.11
376.56,1.85,1.75,1.86,1.76,-1.76,-1.86,-1.39,0.09,0.10,0.10
380.33,1.75,1.65,1.81,1.71,-1.71,-1.80,-1.33,0.04,0.10,0.10
384.13,1.60,1.50,1.74,1.65,-1.65,-1.75,-1.26,-0.05,0.10,0.11
387.97,1.81,1.71,1.68,1.58,-1.58,-1.69,-1.20,0.23,0.09,0.10
391.85,1.71,1.61,1.62,1.53,-1.53,-1.64,-1.14,0.19,0.09,0.10
395.77,1.45,1.36,1.56,1.47,-1.47,-1.58,-1.08,-0.02,0.08,0.09
399.73,1.57,1.49,1.49,1.41,-1.41,-1.53,-1.02,0.16,0.08,0.08
403.72,1.57,1.48,1.43,1.36,-1.36,-1.47,-0.96,0.21,0.07,0.09
407.76,1.24,1.17,1.37,1.30,-1.30,-1.41,-0.90,-0.06,0.07,0.07
411.84,1.32,1.25,1.31,1.24,-1.24,-1.36,-0.85,0.08,0.06,0.07
415.96,1.29,1.23,1.25,1.19,-1.19,-1.30,-0.79,0.11,0.06,0.07
420.12,1.12,1.07,1.20,1.13,-1.13,-1.24,-0.74,-0.01,0.07,0.05
424.32,1.12,1.06,1.16,1.09,-1.09,-1.18,-0.69,0.04,0.07,0.06
428.56,1.08,1.00,1.10,1.02,-1.02,-1.12,-0.63,0.06,0.09,0.08
432.85,1.05,0.96,1.03,0.93,-0.93,-1.07,-0.58,0.13,0.10,0.10
437.18,1.00,0.90,1.00,0.87,-0.87,-1.01,-0.53,0.13,0.13,0.10
441.55,0.96,0.82,0.98,0.82,-0.82,-0.95,-0.48,0.14,0.16,0.14
445.96,0.96,0.78,0.95,0.75,-0.75,-0.89,-0.44,0.21,0.20,0.18
450.42,0.93,0.71,0.95,0.71,-0.71,-0.83,-0.39,0.22,0.24,0.22
454.93,0.93,0.66,0.95,0.67,-0.67,-0.77,-0.34,0.27,0.29,0.27
459.48,0.94,0.62,0.93,0.59,-0.59,-0.71,-0.30,0.35,0.34,0.33
464.07,0.92,0.53,0.92,0.53,-0.53,-0.65,-0.26,0.39,0.39,0.40
468.71,0.85,0.41,0.91,0.47,-0.47,-0.59,-0.21,0.38,0.44,0.44
473.40,0.70,0.20,0.90,0.40,-0.40,-0.53,-0.17,0.30,0.50,0.50
478.13,0.89,0.33,0.88,0.33,-0.33,-0.47,-0.13,0.56,0.55,0.56
482.91,1.19,0.58,0.87,0.27,-0.27,-0.41,-0.09,0.92,0.60,0.61
487.74,0.90,0.25,0.87,0.23,-0.23,-0.34,-0.05,0.67,0.64,0.65
492.62,0.86,0.17,0.86,0.18,-0.18,-0.28,-0.01,0.69,0.68,0.69
497.55,0.93,0.21,0.83,0.12,-0.12,-0.22,0.03,0.81,0.72,0.73
502.52,0.63,-0.11,0.81,0.06,-0.06,-0.16,0.06,0.57,0.74,0.75
