frequency,raw,error,smoothed,error_smoothed,equalization,parametric_eq,fixed_band_eq,equalized_raw,equalized_smoothed,target
20.00,12.85,2.84,12.85,2.84,-2.84,-2.37,-1.15,10.00,10.01,10.00
20.20,12.84,2.84,12.83,2.84,-2.84,-2.38,-1.18,9.99,9.99,9.99
20.40,12.83,2.84,12.82,2.84,-2.84,-2.38,-1.21,9.98,9.98,9.98
20.61,12.81,2.83,12.81,2.84,-2.84,-2.38,-1.24,9.97,9.97,9.97
20.81,12.80,2.84,12.80,2.84,-2.84,-2.39,-1.28,9.96,9.96,9.95
21.02,12.79,2.84,12.78,2.84,-2.84,-2.39,-1.32,9.95,9.95,9.94
21.23,12.78,2.84,12.77,2.83,-2.83,-2.40,-1.35,9.94,9.94,9.93
21.44,12.76,2.81,12.76,2.83,-2.83,-2.40,-1.39,9.92,9.93,9.94
21.66,12.75,2.82,12.75,2.83,-2.83,-2.41,-1.43,9.92,9.92,9.92
21.87,12.74,2.81,12.73,2.82,-2.82,-2.41,-1.47,9.91,9.91,9.92
22.09,12.73,2.82,12.72,2.82,-2.82,-2.42,-1.51,9.91,9.90,9.90
22.31,12.71,2.81,12.71,2.81,-2.81,-2.42,-1.55,9.89,9.90,9.89
22.54,12.70,2.81,12.70,2.81,-2.81,-2.43,-1.60,9.89,9.89,9.88
22.76,12.69,2.80,12.69,2.80,-2.80,-2.44,-1.64,9.88,9.88,9.88
22.99,12.68,2.80,12.68,2.80,-2.80,-2.44,-1.69,9.88,9.88,9.87
23.22,12.67,2.80,12.66,2.79,-2.79,-2.45,-1.73,9.87,9.87,9.86
23.45,12.66,2.78,12.65,2.78,-2.78,-2.46,-1.78,9.87,9.87,9.87
23.69,12.65,2.78,12.64,2.78,-2.78,-2.46,-1.83,9.87,9.86,9.86
23.92,12.63,2.77,12.63,2.77,-2.77,-2.47,-1.88,9.85,9.86,9.85
24.16,12.62,2.75,12.62,2.76,-2.76,-2.48,-1.93,9.85,9.86,9.86
24.40,12.61,2.74,12.61,2.75,-2.75,-2.48,-1.98,9.85,9.85,9.86
24.65,12.60,2.74,12.59,2.74,-2.74,-2.49,-2.03,9.85,9.85,9.85
24.89,12.59,2.73,12.58,2.73,-2.73,-2.50,-2.08,9.85,9.85,9.85
25.14,12.57,2.72,12.57,2.72,-2.72,-2.50,-2.14,9.84,9.85,9.84
25.39,12.56,2.71,12.56,2.71,-2.71,-2.51,-2.19,9.84,9.85,9.84
25.65,12.55,2.70,12.55,2.70,-2.70,-2.52,-2.24,9.84,9.85,9.84
25.91,12.54,2.69,12.54,2.69,-2.69,-2.53,-2.30,9.84,9.84,9.84
26.16,12.53,2.67,12.52,2.68,-2.68,-2.53,-2.35,9.84,9.84,9.85
26.43,12.52,2.67,12.51,2.67,-2.67,-2.54,-2.40,9.85,9.84,9.84
26.69,12.51,2.66,12.50,2.66,-2.66,-2.55,-2.45,9.85,9.84,9.84
26.96,12.49,2.64,12.49,2.65,-2.65,-2.55,-2.50,9.84,9.84,9.84
27.23,12.48,2.63,12.48,2.63,-2.63,-2.56,-2.55,9.84,9.85,9.84
27.50,12.47,2.62,12.47,2.62,-2.62,-2.57,-2.60,9.85,9.85,9.84
27.77,12.46,2.60,12.45,2.60,-2.60,-2.57,-2.65,9.85,9.85,9.85
28.05,12.45,2.60,12.44,2.59,-2.59,-2.58,-2.70,9.85,9.85,9.84
28.33,12.44,2.58,12.43,2.58,-2.58,-2.59,-2.74,9.86,9.85,9.85
28.62,12.43,2.57,12.42,2.57,-2.57,-2.59,-2.78,9.86,9.85,9.85
28.90,12.41,2.54,12.41,2.56,-2.56,-2.60,-2.82,9.85,9.85,9.86
29.19,12.40,2.53,12.40,2.55,-2.55,-2.60,-2.85,9.85,9.85,9.86
29.48,12.39,2.53,12.39,2.54,-2.54,-2.61,-2.89,9.85,9.85,9.85
29.78,12.38,2.52,12.38,2.53,-2.53,-2.61,-2.92,9.84,9.85,9.85
30.08,12.37,2.51,12.37,2.52,-2.52,-2.62,-2.94,9.84,9.85,9.85
30.38,12.36,2.52,12.36,2.52,-2.52,-2.62,-2.97,9.84,9.84,9.83
30.68,12.36,2.52,12.35,2.51,-2.51,-2.63,-2.99,9.84,9.84,9.83
30.99,12.35,2.51,12.34,2.51,-2.51,-2.63,-3.00,9.84,9.83,9.83
31.30,12.34,2.50,12.33,2.50,-2.50,-2.63,-3.01,9.83,9.83,9.83
31.61,12.33,2.50,12.32,2.50,-2.50,-2.64,-3.02,9.82,9.82,9.82
31.93,12.32,2.51,12.31,2.50,-2.50,-2.64,-3.03,9.82,9.81,9.80
32.24,12.31,2.49,12.30,2.50,-2.50,-2.64,-3.03,9.81,9.81,9.81
32.57,12.30,2.50,12.29,2.49,-2.49,-2.64,-3.03,9.80,9.80,9.79
32.89,12.28,2.48,12.28,2.49,-2.49,-2.64,-3.02,9.79,9.79,9.79
33.22,12.27,2.48,12.27,2.48,-2.48,-2.64,-3.02,9.78,9.79,9.78
33.55,12.26,2.47,12.26,2.48,-2.48,-2.64,-3.00,9.77,9.78,9.78
33.89,12.25,2.47,12.25,2.48,-2.48,-2.64,-2.99,9.77,9.77,9.77
34.23,12.24,2.48,12.24,2.47,-2.47,-2.64,-2.98,9.76,9.76,9.75
34.57,12.23,2.47,12.23,2.47,-2.47,-2.64,-2.96,9.75,9.75,9.75
34.92,12.22,2.48,12.22,2.47,-2.47,-2.63,-2.94,9.74,9.74,9.73
35.27,12.21,2.45,12.21,2.47,-2.47,-2.63,-2.92,9.73,9.73,9.75
35.62,12.20,2.47,12.19,2.47,-2.47,-2.62,-2.89,9.72,9.72,9.72
35.97,12.19,2.46,12.18,2.47,-2.47,-2.62,-2.87,9.71,9.71,9.72
36.33,12.18,2.47,12.17,2.48,-2.48,-2.61,-2.85,9.70,9.70,9.70
36.70,12.16,2.47,12.16,2.48,-2.48,-2.60,-2.82,9.68,9.68,9.68
37.06,12.15,2.48,12.15,2.48,-2.48,-2.60,-2.80,9.66,9.66,9.66
37.43,12.14,2.49,12.13,2.49,-2.49,-2.59,-2.77,9.65,9.65,9.64
37.81,12.13,2.49,12.12,2.49,-2.49,-2.58,-2.75,9.63,9.63,9.63
38.19,12.11,2.50,12.10,2.50,-2.50,-2.56,-2.72,9.61,9.61,9.60
38.57,12.09,2.50,12.08,2.50,-2.50,-2.55,-2.70,9.59,9.59,9.58
38.95,12.07,2.49,12.07,2.50,-2.50,-2.54,-2.68,9.56,9.56,9.57
39.34,12.05,2.50,12.05,2.50,-2.50,-2.52,-2.66,9.54,9.54,9.54
39.74,12.03,2.51,12.02,2.50,-2.50,-2.51,-2.64,9.52,9.52,9.51
40.14,12.00,2.50,12.00,2.50,-2.50,-2.49,-2.62,9.49,9.50,9.49
40.54,11.98,2.50,11.98,2.50,-2.50,-2.47,-2.60,9.47,9.47,9.47
40.94,11.95,2.50,11.95,2.50,-2.50,-2.45,-2.58,9.45,9.45,9.44
41.35,11.93,2.49,11.92,2.49,-2.49,-2.44,-2.57,9.43,9.43,9.43
41.76,11.89,2.49,11.89,2.48,-2.48,-2.42,-2.55,9.41,9.41,9.40
42.18,11.87,2.47,11.86,2.48,-2.48,-2.40,-2.54,9.39,9.38,9.39
42.60,11.83,2.46,11.83,2.46,-2.46,-2.38,-2.53,9.36,9.36,9.36
43.03,11.80,2.45,11.79,2.45,-2.45,-2.36,-2.53,9.34,9.34,9.34
43.46,11.76,2.45,11.75,2.44,-2.44,-2.34,-2.52,9.32,9.31,9.30
43.90,11.72,2.43,11.71,2.43,-2.43,-2.32,-2.52,9.29,9.29,9.28
44.33,11.67,2.42,11.67,2.41,-2.41,-2.30,-2.51,9.26,9.26,9.25
44.78,11.63,2.39,11.63,2.40,-2.40,-2.29,-2.51,9.23,9.23,9.23
45.23,11.58,2.36,11.58,2.38,-2.38,-2.28,-2.52,9.19,9.20,9.21
45.68,11.54,2.37,11.53,2.37,-2.37,-2.26,-2.52,9.17,9.16,9.16
46.13,11.48,2.35,11.48,2.36,-2.36,-2.26,-2.52,9.13,9.13,9.13
46.60,11.44,2.34,11.44,2.34,-2.34,-2.25,-2.53,9.09,9.09,9.09
47.06,11.39,2.32,11.39,2.34,-2.34,-2.25,-2.54,9.05,9.05,9.06
47.53,11.35,2.32,11.34,2.33,-2.33,-2.25,-2.55,9.02,9.01,9.02
48.01,11.30,2.32,11.29,2.32,-2.32,-2.26,-2.57,8.97,8.97,8.97
48.49,11.25,2.31,11.25,2.32,-2.32,-2.26,-2.58,8.93,8.93,8.93
48.97,11.20,2.31,11.20,2.31,-2.31,-2.28,-2.60,8.88,8.89,8.88
49.46,11.16,2.30,11.16,2.31,-2.31,-2.29,-2.61,8.84,8.85,8.85
49.96,11.12,2.32,11.12,2.31,-2.31,-2.31,-2.63,8.80,8.81,8.79
50.46,11.09,2.32,11.08,2.32,-2.32,-2.33,-2.65,8.77,8.77,8.76
50.96,11.06,2.33,11.04,2.32,-2.32,-2.35,-2.67,8.73,8.72,8.72
51.47,11.02,2.33,11.01,2.33,-2.33,-2.38,-2.70,8.69,8.68,8.68
51.99,10.98,2.34,10.98,2.34,-2.34,-2.41,-2.72,8.64,8.64,8.63
52.51,10.95,2.34,10.95,2.35,-2.35,-2.44,-2.74,8.59,8.60,8.60
53.03,10.93,2.35,10.92,2.37,-2.37,-2.47,-2.77,8.56,8.56,8.57
53.56,10.90,2.37,10.90,2.39,-2.39,-2.50,-2.79,8.51,8.52,8.52
54.10,10.88,2.40,10.88,2.41,-2.41,-2.53,-2.82,8.47,8.48,8.47
54.64,10.87,2.43,10.87,2.43,-2.43,-2.56,-2.84,8.43,8.44,8.43
55.18,10.86,2.46,10.86,2.46,-2.46,-2.59,-2.87,8.40,8.40,8.39
55.74,10.85,2.50,10.85,2.49,-2.49,-2.62,-2.89,8.36,8.36,8.34
56.29,10.84,2.51,10.84,2.52,-2.52,-2.65,-2.91,8.31,8.32,8.32
56.86,10.83,2.54,10.84,2.56,-2.56,-2.68,-2.93,8.27,8.28,8.28
57.42,10.84,2.60,10.84,2.60,-2.60,-2.71,-2.96,8.24,8.24,8.23
58.00,10.85,2.65,10.84,2.65,-2.65,-2.74,-2.98,8.20,8.20,8.19
58.58,10.86,2.69,10.85,2.69,-2.69,-2.77,-2.99,8.16,8.15,8.16
59.16,10.86,2.72,10.85,2.74,-2.74,-2.79,-3.01,8.11,8.11,8.13
59.76,10.86,2.77,10.86,2.80,-2.80,-2.82,-3.03,8.06,8.06,8.08
60.35,10.86,2.82,10.86,2.85,-2.85,-2.84,-3.04,8.01,8.01,8.03
60.96,10.87,2.89,10.86,2.90,-2.90,-2.87,-3.05,7.97,7.97,7.97
61.57,10.87,2.95,10.86,2.95,-2.95,-2.89,-3.06,7.92,7.91,7.91
62.18,10.87,3.01,10.86,3.00,-3.00,-2.91,-3.07,7.87,7.86,7.85
62.80,10.86,3.06,10.85,3.04,-3.04,-2.93,-3.07,7.81,7.81,7.79
63.43,10.86,3.11,10.84,3.09,-3.09,-2.95,-3.07,7.77,7.75,7.74
64.07,10.85,3.15,10.83,3.13,-3.13,-2.97,-3.07,7.72,7.70,7.69
64.71,10.82,3.17,10.81,3.17,-3.17,-2.98,-3.07,7.65,7.65,7.64
65.35,10.80,3.21,10.79,3.20,-3.20,-3.00,-3.07,7.59,7.59,7.58
66.01,10.77,3.23,10.77,3.23,-3.23,-3.02,-3.06,7.53,7.53,7.53
66.67,10.74,3.24,10.74,3.26,-3.26,-3.03,-3.05,7.47,7.48,7.49
67.33,10.71,3.28,10.71,3.28,-3.28,-3.04,-3.05,7.42,7.43,7.42
68.01,10.68,3.30,10.67,3.30,-3.30,-3.06,-3.04,7.37,7.37,7.37
68.69,10.65,3.32,10.63,3.32,-3.32,-3.07,-3.02,7.33,7.32,7.32
69.37,10.60,3.32,10.59,3.33,-3.33,-3.08,-3.01,7.26,7.26,7.27
70.07,10.56,3.34,10.55,3.34,-3.34,-3.09,-3.00,7.21,7.20,7.21
70.77,10.51,3.36,10.50,3.35,-3.35,-3.11,-2.98,7.15,7.15,7.14
71.48,10.46,3.36,10.45,3.37,-3.37,-3.12,-2.97,7.09,7.09,7.09
72.19,10.41,3.37,10.41,3.37,-3.37,-3.12,-2.96,7.03,7.03,7.03
72.91,10.36,3.39,10.36,3.38,-3.38,-3.13,-2.94,6.97,6.97,6.96
73.64,10.30,3.38,10.31,3.39,-3.39,-3.14,-2.93,6.91,6.92,6.91
74.38,10.25,3.39,10.26,3.40,-3.40,-3.15,-2.92,6.85,6.86,6.85
75.12,10.20,3.39,10.21,3.40,-3.40,-3.16,-2.90,6.80,6.81,6.80
75.87,10.15,3.39,10.16,3.40,-3.40,-3.16,-2.89,6.74,6.75,6.75
76.63,10.10,3.40,10.11,3.40,-3.40,-3.17,-2.88,6.69,6.70,6.69
77.40,10.06,3.40,10.06,3.41,-3.41,-3.18,-2.87,6.65,6.65,6.65
78.17,10.02,3.42,10.01,3.41,-3.41,-3.18,-2.87,6.61,6.60,6.59
78.95,9.97,3.41,9.96,3.41,-3.41,-3.19,-2.86,6.56,6.55,6.55
79.74,9.92,3.41,9.91,3.41,-3.41,-3.19,-2.86,6.51,6.50,6.50
80.54,9.87,3.41,9.86,3.41,-3.41,-3.20,-2.85,6.46,6.45,6.45
81.35,9.82,3.42,9.81,3.41,-3.41,-3.20,-2.85,6.41,6.40,6.39
82.16,9.76,3.39,9.76,3.41,-3.41,-3.21,-2.85,6.35,6.35,6.36
82.98,9.71,3.40,9.71,3.41,-3.41,-3.21,-2.86,6.30,6.30,6.30
83.81,9.66,3.40,9.65,3.41,-3.41,-3.21,-2.86,6.25,6.25,6.25
84.65,9.60,3.40,9.60,3.41,-3.41,-3.22,-2.87,6.18,6.19,6.19
85.50,9.55,3.41,9.55,3.41,-3.41,-3.22,-2.88,6.13,6.14,6.13
86.35,9.50,3.41,9.50,3.41,-3.41,-3.22,-2.89,6.08,6.08,6.08
87.22,9.45,3.41,9.44,3.41,-3.41,-3.22,-2.90,6.03,6.03,6.03
88.09,9.39,3.41,9.39,3.42,-3.42,-3.22,-2.92,5.97,5.97,5.97
88.97,9.34,3.42,9.34,3.42,-3.42,-3.23,-2.94,5.91,5.92,5.91
89.86,9.29,3.42,9.29,3.43,-3.43,-3.23,-2.96,5.86,5.86,5.86
90.76,9.23,3.42,9.23,3.43,-3.43,-3.23,-2.98,5.79,5.80,5.80
91.66,9.19,3.45,9.18,3.44,-3.44,-3.23,-3.01,5.74,5.74,5.73
92.58,9.14,3.45,9.13,3.45,-3.45,-3.23,-3.04,5.69,5.68,5.68
93.51,9.08,3.44,9.07,3.45,-3.45,-3.23,-3.07,5.63,5.62,5.63
94.44,9.02,3.44,9.01,3.46,-3.46,-3.23,-3.10,5.56,5.56,5.57
95.39,8.97,3.46,8.96,3.46,-3.46,-3.23,-3.13,5.50,5.50,5.50
96.34,8.92,3.48,8.91,3.47,-3.47,-3.23,-3.17,5.44,5.44,5.43
97.30,8.86,3.48,8.85,3.48,-3.48,-3.23,-3.20,5.38,5.37,5.37
98.28,8.81,3.50,8.80,3.49,-3.49,-3.22,-3.24,5.32,5.31,5.30
99.26,8.74,3.49,8.75,3.49,-3.49,-3.22,-3.28,5.24,5.25,5.24
100.25,8.68,3.49,8.69,3.50,-3.50,-3.22,-3.33,5.17,5.19,5.18
101.25,8.62,3.48,8.64,3.51,-3.51,-3.22,-3.37,5.11,5.13,5.13
102.27,8.57,3.49,8.59,3.52,-3.52,-3.22,-3.41,5.05,5.08,5.07
103.29,8.55,3.53,8.54,3.52,-3.52,-3.21,-3.46,5.02,5.02,5.01
104.32,8.51,3.54,8.48,3.52,-3.52,-3.21,-3.50,4.98,4.96,4.96
105.37,8.46,3.55,8.43,3.53,-3.53,-3.21,-3.55,4.93,4.90,4.90
106.42,8.39,3.53,8.38,3.53,-3.53,-3.21,-3.59,4.86,4.85,4.85
107.48,8.34,3.54,8.33,3.53,-3.53,-3.20,-3.64,4.80,4.79,4.79
108.56,8.28,3.53,8.27,3.54,-3.54,-3.20,-3.68,4.74,4.73,4.74
109.64,8.23,3.54,8.22,3.54,-3.54,-3.19,-3.73,4.68,4.68,4.68
110.74,8.17,3.54,8.17,3.55,-3.55,-3.19,-3.77,4.62,4.62,4.62
111.85,8.11,3.54,8.11,3.55,-3.55,-3.19,-3.81,4.55,4.56,4.56
112.97,8.04,3.52,8.06,3.56,-3.56,-3.18,-3.85,4.48,4.50,4.51
114.10,7.98,3.52,8.00,3.56,-3.56,-3.18,-3.88,4.42,4.44,4.45
115.24,7.93,3.55,7.94,3.55,-3.55,-3.17,-3.91,4.37,4.38,4.37
116.39,7.91,3.59,7.88,3.56,-3.56,-3.17,-3.94,4.35,4.33,4.31
117.55,7.86,3.60,7.83,3.56,-3.56,-3.16,-3.97,4.29,4.27,4.25
118.73,7.78,3.58,7.77,3.56,-3.56,-3.16,-3.99,4.21,4.21,4.19
119.92,7.71,3.55,7.72,3.57,-3.57,-3.15,-4.01,4.14,4.15,4.15
121.12,7.65,3.54,7.67,3.57,-3.57,-3.14,-4.02,4.08,4.10,4.10
122.33,7.62,3.57,7.61,3.57,-3.57,-3.14,-4.03,4.05,4.04,4.04
123.55,7.57,3.57,7.56,3.57,-3.57,-3.13,-4.04,4.00,3.99,3.99
124.79,7.50,3.55,7.50,3.57,-3.57,-3.12,-4.04,3.93,3.93,3.94
126.03,7.43,3.54,7.44,3.57,-3.57,-3.12,-4.03,3.86,3.88,3.88
127.29,7.40,3.56,7.38,3.56,-3.56,-3.11,-4.02,3.83,3.82,3.83
128.57,7.35,3.58,7.32,3.56,-3.56,-3.10,-4.00,3.79,3.77,3.76
129.85,7.27,3.55,7.26,3.55,-3.55,-3.09,-3.99,3.71,3.71,3.71
131.15,7.20,3.54,7.20,3.55,-3.55,-3.08,-3.96,3.65,3.66,3.65
132.46,7.16,3.55,7.15,3.54,-3.54,-3.08,-3.93,3.61,3.60,3.60
133.79,7.09,3.54,7.08,3.54,-3.54,-3.07,-3.90,3.55,3.55,3.54
135.12,7.01,3.51,7.02,3.53,-3.53,-3.06,-3.87,3.48,3.49,3.49
136.48,6.97,3.52,6.96,3.52,-3.52,-3.05,-3.83,3.45,3.44,3.44
137.84,6.89,3.49,6.89,3.51,-3.51,-3.04,-3.78,3.38,3.39,3.39
139.22,6.84,3.50,6.83,3.49,-3.49,-3.03,-3.74,3.34,3.34,3.33
140.61,6.78,3.48,6.77,3.48,-3.48,-3.02,-3.69,3.30,3.29,3.29
142.02,6.70,3.46,6.70,3.46,-3.46,-3.01,-3.64,3.23,3.24,3.23
143.44,6.65,3.45,6.64,3.45,-3.45,-3.00,-3.59,3.20,3.20,3.19
144.87,6.57,3.41,6.58,3.43,-3.43,-2.99,-3.54,3.14,3.15,3.15
146.32,6.52,3.41,6.51,3.41,-3.41,-2.98,-3.49,3.11,3.11,3.10
147.78,6.45,3.38,6.45,3.39,-3.39,-2.97,-3.43,3.06,3.06,3.06
149.26,6.40,3.38,6.39,3.37,-3.37,-2.95,-3.38,3.03,3.02,3.01
150.75,6.33,3.35,6.32,3.35,-3.35,-2.94,-3.32,2.98,2.97,2.97
152.26,6.27,3.33,6.26,3.33,-3.33,-2.93,-3.27,2.94,2.93,2.93
153.78,6.19,3.29,6.19,3.31,-3.31,-2.92,-3.22,2.88,2.89,2.89
155.32,6.15,3.29,6.13,3.28,-3.28,-2.90,-3.17,2.86,2.84,2.85
156.88,6.07,3.26,6.07,3.27,-3.27,-2.89,-3.11,2.80,2.80,2.80
158.44,6.01,3.25,6.00,3.25,-3.25,-2.88,-3.06,2.76,2.76,2.75
160.03,5.92,3.20,5.94,3.23,-3.23,-2.86,-3.02,2.69,2.71,2.71
161.63,5.87,3.19,5.87,3.21,-3.21,-2.85,-2.97,2.66,2.67,2.67
163.24,5.82,3.19,5.81,3.19,-3.19,-2.84,-2.92,2.63,2.62,2.62
164.88,5.75,3.17,5.74,3.17,-3.17,-2.82,-2.88,2.58,2.57,2.57
166.53,5.69,3.16,5.68,3.15,-3.15,-2.81,-2.84,2.53,2.53,2.52
168.19,5.63,3.13,5.62,3.14,-3.14,-2.79,-2.80,2.49,2.48,2.49
169.87,5.55,3.11,5.55,3.12,-3.12,-2.77,-2.76,2.43,2.43,2.43
171.57,5.50,3.11,5.49,3.10,-3.10,-2.76,-2.72,2.39,2.39,2.38
173.29,5.44,3.09,5.42,3.08,-3.08,-2.74,-2.69,2.35,2.34,2.34
175.02,5.35,3.05,5.36,3.07,-3.07,-2.72,-2.65,2.28,2.29,2.29
176.77,5.29,3.04,5.29,3.05,-3.05,-2.71,-2.62,2.24,2.25,2.24
178.54,5.23,3.02,5.23,3.03,-3.03,-2.69,-2.59,2.19,2.20,2.20
180.32,5.18,3.03,5.17,3.01,-3.01,-2.67,-2.57,2.16,2.15,2.14
182.13,5.13,3.01,5.10,2.99,-2.99,-2.65,-2.54,2.13,2.11,2.11
183.95,5.03,2.96,5.04,2.98,-2.98,-2.63,-2.52,2.05,2.06,2.06
185.79,4.97,2.95,4.97,2.96,-2.96,-2.61,-2.50,2.01,2.02,2.01
187.65,4.90,2.92,4.91,2.94,-2.94,-2.59,-2.48,1.95,1.97,1.97
189.52,4.85,2.91,4.85,2.92,-2.92,-2.57,-2.47,1.93,1.93,1.93
191.42,4.80,2.90,4.78,2.90,-2.90,-2.55,-2.45,1.90,1.89,1.89
193.33,4.73,2.87,4.72,2.88,-2.88,-2.53,-2.44,1.85,1.84,1.85
195.27,4.67,2.86,4.66,2.85,-2.85,-2.51,-2.43,1.81,1.80,1.80
197.22,4.60,2.84,4.59,2.83,-2.83,-2.49,-2.42,1.77,1.77,1.75
199.19,4.53,2.80,4.53,2.80,-2.80,-2.47,-2.41,1.73,1.73,1.72
201.18,4.47,2.78,4.46,2.77,-2.77,-2.45,-2.40,1.70,1.69,1.68
203.19,4.41,2.75,4.40,2.74,-2.74,-2.42,-2.40,1.66,1.66,1.65
205.23,4.34,2.70,4.34,2.71,-2.71,-2.40,-2.39,1.62,1.63,1.63
207.28,4.27,2.66,4.27,2.68,-2.68,-2.37,-2.38,1.59,1.59,1.60
209.35,4.21,2.64,4.21,2.64,-2.64,-2.35,-2.38,1.56,1.56,1.56
211.44,4.15,2.61,4.14,2.61,-2.61,-2.33,-2.38,1.54,1.53,1.53
213.56,4.08,2.56,4.07,2.57,-2.57,-2.30,-2.37,1.51,1.50,1.51
215.69,4.01,2.52,4.01,2.53,-2.53,-2.27,-2.37,1.47,1.48,1.48
217.85,3.94,2.48,3.94,2.49,-2.49,-2.25,-2.36,1.44,1.45,1.45
220.03,3.89,2.46,3.88,2.45,-2.45,-2.22,-2.36,1.43,1.43,1.42
222.23,3.83,2.43,3.82,2.41,-2.41,-2.19,-2.35,1.41,1.40,1.39
224.45,3.76,2.37,3.75,2.37,-2.37,-2.17,-2.35,1.38,1.38,1.38
226.70,3.69,2.33,3.69,2.33,-2.33,-2.14,-2.34,1.35,1.36,1.35
228.96,3.62,2.27,3.63,2.29,-2.29,-2.11,-2.33,1.32,1.34,1.34
231.25,3.57,2.24,3.57,2.25,-2.25,-2.08,-2.32,1.32,1.32,1.32
233.57,3.51,2.20,3.51,2.20,-2.20,-2.05,-2.31,1.30,1.30,1.30
235.90,3.44,2.14,3.45,2.16,-2.16,-2.02,-2.29,1.28,1.29,1.29
238.26,3.39,2.12,3.39,2.11,-2.11,-1.99,-2.27,1.28,1.28,1.26
240.64,3.33,2.05,3.33,2.06,-2.06,-1.95,-2.25,1.27,1.27,1.27
243.05,3.28,2.02,3.26,2.01,-2.01,-1.92,-2.23,1.27,1.26,1.25
245.48,3.22,1.97,3.20,1.96,-1.96,-1.89,-2.20,1.26,1.25,1.24
247.93,3.15,1.91,3.14,1.90,-1.90,-1.85,-2.17,1.24,1.24,1.23
250.41,3.09,1.84,3.08,1.85,-1.85,-1.82,-2.14,1.24,1.23,1.24
252.92,3.02,1.78,3.02,1.79,-1.79,-1.79,-2.10,1.23,1.23,1.23
255.45,2.97,1.74,2.96,1.73,-1.73,-1.75,-2.07,1.23,1.23,1.22
258.00,2.91,1.68,2.90,1.68,-1.68,-1.71,-2.02,1.23,1.22,1.22
260.58,2.83,1.60,2.84,1.62,-1.62,-1.68,-1.98,1.21,1.22,1.22
263.19,2.78,1.55,2.78,1.56,-1.56,-1.64,-1.93,1.21,1.22,1.22
265.82,2.71,1.49,2.72,1.50,-1.50,-1.60,-1.88,1.20,1.21,1.21
268.48,2.66,1.44,2.66,1.45,-1.45,-1.56,-1.83,1.21,1.21,1.21
271.16,2.61,1.39,2.60,1.39,-1.39,-1.52,-1.77,1.22,1.21,1.21
273.87,2.53,1.31,2.54,1.33,-1.33,-1.48,-1.71,1.19,1.21,1.21
276.61,2.48,1.26,2.48,1.28,-1.28,-1.44,-1.65,1.20,1.21,1.21
279.38,2.43,1.23,2.43,1.23,-1.23,-1.40,-1.59,1.20,1.20,1.19
282.17,2.39,1.19,2.38,1.17,-1.17,-1.36,-1.52,1.22,1.21,1.19
284.99,2.35,1.14,2.32,1.11,-1.11,-1.32,-1.46,1.23,1.21,1.20
287.84,2.27,1.05,2.27,1.06,-1.06,-1.27,-1.39,1.21,1.21,1.21
290.72,2.22,1.01,2.22,1.01,-1.01,-1.23,-1.32,1.21,1.21,1.20
293.63,2.16,0.94,2.17,0.95,-0.95,-1.18,-1.25,1.20,1.21,1.21
296.57,2.11,0.88,2.11,0.90,-0.90,-1.14,-1.17,1.21,1.22,1.22
299.53,2.07,0.84,2.06,0.84,-0.84,-1.09,-1.10,1.22,1.22,1.22
302.53,2.03,0.78,2.01,0.78,-0.78,-1.04,-1.03,1.24,1.23,1.24
305.55,1.97,0.73,1.96,0.73,-0.73,-1.00,-0.95,1.24,1.24,1.23
308.61,1.91,0.66,1.91,0.67,-0.67,-0.95,-0.87,1.23,1.24,1.24
311.69,1.86,0.60,1.87,0.61,-0.61,-0.90,-0.80,1.24,1.25,1.25
314.81,1.82,0.56,1.82,0.56,-0.56,-0.85,-0.72,1.26,1.26,1.25
317.96,1.78,0.51,1.77,0.50,-0.50,-0.80,-0.64,1.27,1.26,1.26
321.14,1.73,0.45,1.72,0.45,-0.45,-0.75,-0.56,1.28,1.27,1.27
324.35,1.68,0.40,1.67,0.39,-0.39,-0.69,-0.48,1.28,1.28,1.27
327.59,1.62,0.31,1.62,0.33,-0.33,-0.64,-0.41,1.28,1.29,1.30
330.87,1.57,0.27,1.57,0.27,-0.27,-0.59,-0.33,1.29,1.29,1.29
334.18,1.52,0.21,1.52,0.21,-0.21,-0.53,-0.25,1.30,1.30,1.30
337.52,1.48,0.17,1.46,0.15,-0.15,-0.47,-0.17,1.32,1.31,1.30
340.90,1.43,0.10,1.41,0.09,-0.09,-0.42,-0.09,1.33,1.32,1.32
344.30,1.37,0.03,1.36,0.03,-0.03,-0.36,-0.01,1.33,1.33,1.33
347.75,1.31,-0.03,1.30,-0.03,0.03,-0.30,0.07,1.34,1.33,1.33
351.23,1.24,-0.10,1.24,-0.10,0.10,-0.24,0.15,1.33,1.34,1.33
354.74,1.18,-0.19,1.19,-0.16,0.16,-0.19,0.23,1.34,1.35,1.36
358.28,1.13,-0.23,1.13,-0.23,0.23,-0.13,0.31,1.35,1.36,1.35
361.87,1.09,-0.28,1.07,-0.29,0.29,-0.06,0.39,1.38,1.36,1.36
365.49,1.03,-0.35,1.02,-0.35,0.35,-0.00,0.47,1.38,1.37,1.37
369.14,0.97,-0.43,0.96,-0.42,0.42,0.06,0.56,1.38,1.38,1.39
372.83,0.92,-0.48,0.91,-0.48,0.48,0.12,0.64,1.39,1.39,1.39
376.56,0.85,-0.55,0.86,-0.54,0.54,0.19,0.72,1.39,1.40,1.39
380.33,0.80,-0.61,0.81,-0.60,0.60,0.25,0.80,1.40,1.41,1.40
384.13,0.75,-0.68,0.76,-0.66,0.66,0.32,0.88,1.40,1.42,1.42
387.97,0.71,-0.72,0.71,-0.72,0.72,0.38,0.96,1.42,1.43,1.42
391.85,0.67,-0.77,0.66,-0.77,0.77,0.45,1.05,1.44,1.44,1.43
395.77,0.63,-0.82,0.62,-0.83,0.83,0.52,1.13,1.45,1.45,1.44
399.73,0.58,-0.88,0.57,-0.88,0.88,0.58,1.21,1.46,1.46,1.45
403.72,0.54,-0.95,0.53,-0.94,0.94,0.65,1.29,1.47,1.47,1.48
407.76,0.49,-0.99,0.49,-0.99,0.99,0.72,1.37,1.47,1.48,1.47
411.84,0.45,-1.04,0.45,-1.04,1.04,0.79,1.45,1.48,1.49,1.48
415.96,0.41,-1.10,0.41,-1.09,1.09,0.86,1.53,1.49,1.49,1.50
420.12,0.37,-1.14,0.37,-1.14,1.14,0.93,1.61,1.50,1.50,1.50
424.32,0.33,-1.19,0.33,-1.19,1.19,1.00,1.68,1.51,1.51,1.51
428.56,0.29,-1.25,0.28,-1.24,1.24,1.07,1.76,1.52,1.52,1.53
432.85,0.25,-1.30,0.24,-1.29,1.29,1.15,1.83,1.54,1.53,1.54
437.18,0.21,-1.33,0.20,-1.34,1.34,1.22,1.90,1.55,1.54,1.53
441.55,0.16,-1.39,0.15,-1.40,1.40,1.29,1.98,1.55,1.55,1.54
445.96,0.12,-1.44,0.11,-1.45,1.45,1.36,2.04,1.56,1.56,1.55
450.42,0.07,-1.50,0.06,-1.50,1.50,1.44,2.11,1.57,1.57,1.56
454.93,0.03,-1.55,0.02,-1.56,1.56,1.51,2.17,1.58,1.58,1.57
459.48,-0.02,-1.61,-0.03,-1.61,1.61,1.58,2.23,1.59,1.58,1.58
464.07,-0.07,-1.68,-0.07,-1.66,1.66,1.66,2.29,1.59,1.59,1.60
468.71,-0.11,-1.73,-0.12,-1.72,1.72,1.73,2.34,1.60,1.60,1.61
473.40,-0.16,-1.78,-0.16,-1.77,1.77,1.80,2.39,1.61,1.61,1.61
478.13,-0.21,-1.84,-0.21,-1.83,1.83,1.87,2.44,1.61,1.62,1.62
482.91,-0.26,-1.90,-0.25,-1.88,1.88,1.95,2.48,1.62,1.63,1.63
487.74,-0.30,-1.95,-0.29,-1.94,1.94,2.02,2.52,1.64,1.65,1.64
492.62,-0.33,-1.99,-0.34,-1.99,1.99,2.09,2.55,1.66,1.66,1.65
497.55,-0.37,-2.04,-0.38,-2.05,2.05,2.16,2.58,1.67,1.67,1.66
502.52,-0.40,-2.08,-0.42,-2.10,2.10,2.23,2.60,1.69,1.68,1.67
507.55,-0.44,-2.14,-0.45,-2.15,2.15,2.30,2.62,1.70,1.69,1.69
512.62,-0.49,-2.20,-0.49,-2.19,2.19,2.37,2.64,1.70,1.70,1.70
517.75,-0.53,-2.26,-0.53,-2.24,2.24,2.44,2.65,1.71,1.72,1.72
522.93,-0.58,-2.32,-0.57,-2.29,2.29,2.50,2.66,1.71,1.73,1.73
