frequency,raw,error,smoothed,error_smoothed,equalization,parametric_eq,fixed_band_eq,equalized_raw,equalized_smoothed,target
20.00,-8.93,-9.94,-8.94,-9.95,9.92,9.81,3.04,0.99,0.98,1.01
20.20,-8.81,-9.87,-8.81,-9.87,9.86,9.74,3.13,1.04,1.05,1.06
20.40,-8.68,-9.79,-8.68,-9.78,9.79,9.68,3.22,1.11,1.11,1.11
20.61,-8.57,-9.70,-8.56,-9.70,9.72,9.61,3.31,1.15,1.16,1.14
20.81,-8.43,-9.62,-8.43,-9.62,9.64,9.54,3.40,1.21,1.21,1.19
21.02,-8.31,-9.54,-8.32,-9.54,9.57,9.47,3.49,1.25,1.24,1.23
21.23,-8.22,-9.47,-8.22,-9.47,9.48,9.40,3.59,1.26,1.26,1.25
21.44,-8.13,-9.40,-8.13,-9.40,9.40,9.33,3.69,1.27,1.27,1.27
21.66,-8.04,-9.33,-8.04,-9.33,9.32,9.25,3.80,1.27,1.28,1.29
21.87,-7.94,-9.24,-7.94,-9.25,9.23,9.18,3.90,1.29,1.28,1.30
22.09,-7.84,-9.16,-7.84,-9.15,9.13,9.10,4.01,1.29,1.30,1.32
22.31,-7.72,-9.05,-7.73,-9.05,9.04,9.02,4.13,1.31,1.31,1.33
22.54,-7.62,-8.94,-7.61,-8.94,8.94,8.94,4.24,1.32,1.33,1.33
22.76,-7.49,-8.82,-7.49,-8.82,8.84,8.86,4.36,1.35,1.34,1.33
22.99,-7.38,-8.70,-7.39,-8.71,8.74,8.77,4.48,1.36,1.35,1.32
23.22,-7.29,-8.61,-7.29,-8.61,8.64,8.69,4.60,1.34,1.34,1.32
23.45,-7.21,-8.53,-7.21,-8.53,8.54,8.61,4.73,1.32,1.32,1.32
23.69,-7.13,-8.45,-7.13,-8.45,8.43,8.52,4.86,1.31,1.30,1.33
23.92,-7.04,-8.37,-7.03,-8.36,8.33,8.43,4.99,1.29,1.30,1.33
24.16,-6.92,-8.25,-6.92,-8.26,8.22,8.35,5.12,1.30,1.30,1.33
24.40,-6.80,-8.14,-6.80,-8.13,8.12,8.26,5.26,1.32,1.32,1.34
24.65,-6.67,-8.00,-6.67,-8.00,8.02,8.17,5.40,1.34,1.35,1.33
24.89,-6.54,-7.87,-6.55,-7.88,7.91,8.09,5.54,1.37,1.36,1.33
25.14,-6.45,-7.78,-6.45,-7.78,7.81,8.00,5.68,1.36,1.36,1.33
25.39,-6.37,-7.71,-6.37,-7.70,7.72,7.91,5.82,1.34,1.35,1.34
25.65,-6.29,-7.63,-6.30,-7.63,7.63,7.82,5.96,1.33,1.33,1.34
25.91,-6.23,-7.55,-6.22,-7.55,7.54,7.73,6.11,1.32,1.32,1.33
26.16,-6.14,-7.47,-6.14,-7.47,7.46,7.64,6.25,1.32,1.32,1.33
26.43,-6.06,-7.38,-6.06,-7.39,7.37,7.55,6.39,1.32,1.31,1.33
26.69,-5.97,-7.30,-5.97,-7.30,7.28,7.46,6.53,1.31,1.31,1.33
26.96,-5.88,-7.21,-5.88,-7.21,7.18,7.37,6.67,1.30,1.30,1.33
27.23,-5.78,-7.10,-5.77,-7.10,7.09,7.29,6.80,1.31,1.31,1.33
27.50,-5.66,-6.99,-5.66,-6.98,6.99,7.20,6.93,1.32,1.33,1.33
27.77,-5.54,-6.86,-5.55,-6.87,6.90,7.11,7.06,1.35,1.35,1.32
28.05,-5.44,-6.76,-5.46,-6.77,6.81,7.02,7.18,1.37,1.35,1.32
28.33,-5.39,-6.70,-5.39,-6.70,6.73,6.93,7.29,1.34,1.34,1.31
28.62,-5.33,-6.64,-5.33,-6.64,6.65,6.84,7.40,1.32,1.32,1.31
28.90,-5.28,-6.60,-5.28,-6.59,6.57,6.75,7.49,1.29,1.30,1.32
29.19,-5.20,-6.51,-5.20,-6.52,6.49,6.66,7.58,1.29,1.29,1.31
29.48,-5.11,-6.43,-5.12,-6.44,6.40,6.57,7.66,1.29,1.28,1.32
29.78,-5.03,-6.34,-5.03,-6.34,6.30,6.49,7.72,1.27,1.28,1.31
30.08,-4.93,-6.24,-4.92,-6.23,6.20,6.40,7.77,1.27,1.28,1.32
30.38,-4.79,-6.09,-4.78,-6.09,6.08,6.31,7.81,1.30,1.30,1.31
30.68,-4.64,-5.95,-4.64,-5.95,5.97,6.22,7.83,1.33,1.33,1.31
30.99,-4.51,-5.81,-4.53,-5.83,5.87,6.14,7.85,1.37,1.35,1.31
31.30,-4.43,-5.73,-4.43,-5.73,5.78,6.05,7.84,1.35,1.35,1.30
31.61,-4.37,-5.67,-4.36,-5.66,5.70,5.96,7.83,1.33,1.34,1.30
31.93,-4.30,-5.60,-4.31,-5.61,5.63,5.88,7.79,1.32,1.31,1.30
32.24,-4.27,-5.56,-4.28,-5.57,5.55,5.79,7.75,1.28,1.28,1.29
32.57,-4.23,-5.52,-4.24,-5.53,5.48,5.71,7.69,1.25,1.24,1.29
32.89,-4.20,-5.49,-4.19,-5.47,5.41,5.62,7.62,1.20,1.22,1.29
33.22,-4.10,-5.38,-4.09,-5.37,5.33,5.54,7.54,1.22,1.24,1.28
33.55,-3.96,-5.24,-3.97,-5.24,5.24,5.45,7.44,1.28,1.28,1.28
33.89,-3.82,-5.09,-3.84,-5.11,5.15,5.37,7.34,1.33,1.31,1.27
34.23,-3.74,-5.01,-3.75,-5.02,5.06,5.29,7.23,1.32,1.31,1.27
34.57,-3.69,-4.95,-3.68,-4.94,4.97,5.20,7.11,1.28,1.28,1.26
34.92,-3.63,-4.89,-3.63,-4.88,4.88,5.12,6.98,1.25,1.25,1.26
35.27,-3.56,-4.81,-3.57,-4.82,4.80,5.04,6.85,1.24,1.24,1.25
35.62,-3.49,-4.74,-3.49,-4.74,4.73,4.96,6.71,1.24,1.24,1.25
35.97,-3.42,-4.67,-3.42,-4.67,4.66,4.88,6.57,1.24,1.24,1.25
36.33,-3.35,-4.60,-3.36,-4.60,4.59,4.79,6.43,1.24,1.24,1.25
36.70,-3.28,-4.52,-3.28,-4.53,4.52,4.71,6.28,1.23,1.23,1.24
37.06,-3.21,-4.45,-3.21,-4.45,4.44,4.63,6.13,1.23,1.23,1.24
37.43,-3.12,-4.37,-3.12,-4.36,4.36,4.56,5.98,1.24,1.24,1.25
37.81,-3.03,-4.28,-3.04,-4.28,4.29,4.48,5.83,1.25,1.25,1.25
38.19,-2.95,-4.19,-2.96,-4.20,4.21,4.40,5.68,1.26,1.26,1.24
38.57,-2.88,-4.13,-2.88,-4.13,4.14,4.32,5.53,1.25,1.26,1.25
38.95,-2.81,-4.07,-2.81,-4.06,4.06,4.24,5.38,1.25,1.25,1.26
39.34,-2.74,-3.99,-2.75,-4.00,3.99,4.17,5.23,1.24,1.24,1.25
39.74,-2.68,-3.93,-2.68,-3.93,3.92,4.09,5.09,1.23,1.24,1.25
40.14,-2.61,-3.86,-2.61,-3.85,3.85,4.01,4.94,1.24,1.24,1.25
40.54,-2.53,-3.78,-2.53,-3.78,3.79,3.94,4.80,1.25,1.25,1.25
40.94,-2.45,-3.69,-2.47,-3.71,3.73,3.86,4.66,1.27,1.26,1.24
41.35,-2.41,-3.65,-2.41,-3.65,3.66,3.79,4.52,1.25,1.25,1.24
41.76,-2.37,-3.60,-2.37,-3.60,3.60,3.71,4.39,1.23,1.23,1.23
42.18,-2.33,-3.56,-2.33,-3.56,3.54,3.64,4.25,1.21,1.21,1.23
42.60,-2.28,-3.50,-2.28,-3.50,3.48,3.57,4.12,1.20,1.20,1.22
43.03,-2.22,-3.43,-2.22,-3.43,3.42,3.49,4.00,1.20,1.20,1.21
43.46,-2.15,-3.35,-2.15,-3.35,3.36,3.42,3.87,1.21,1.21,1.20
43.90,-2.08,-3.26,-2.10,-3.27,3.29,3.35,3.75,1.20,1.19,1.18
44.33,-2.04,-3.20,-2.05,-3.21,3.20,3.28,3.63,1.16,1.15,1.16
44.78,-2.01,-3.15,-2.00,-3.14,3.12,3.21,3.51,1.10,1.11,1.14
45.23,-1.95,-3.08,-1.94,-3.06,3.03,3.14,3.40,1.08,1.09,1.13
45.68,-1.84,-2.96,-1.85,-2.97,2.95,3.06,3.29,1.11,1.10,1.12
46.13,-1.74,-2.84,-1.74,-2.85,2.88,2.99,3.18,1.14,1.14,1.10
46.60,-1.66,-2.76,-1.66,-2.75,2.81,2.93,3.07,1.15,1.15,1.10
47.06,-1.58,-2.66,-1.62,-2.70,2.75,2.86,2.97,1.16,1.12,1.08
47.53,-1.61,-2.68,-1.61,-2.68,2.68,2.79,2.87,1.07,1.07,1.07
48.01,-1.63,-2.70,-1.59,-2.65,2.62,2.72,2.77,0.99,1.03,1.07
48.49,-1.56,-2.61,-1.57,-2.61,2.56,2.65,2.67,1.00,1.00,1.05
48.97,-1.48,-2.51,-1.50,-2.53,2.51,2.58,2.58,1.03,1.01,1.03
49.46,-1.44,-2.45,-1.44,-2.45,2.46,2.52,2.49,1.01,1.02,1.01
49.96,-1.39,-2.38,-1.39,-2.38,2.40,2.45,2.40,1.00,1.01,0.99
50.46,-1.34,-2.32,-1.34,-2.32,2.33,2.38,2.31,0.99,0.99,0.98
50.96,-1.29,-2.26,-1.29,-2.26,2.26,2.32,2.22,0.97,0.97,0.97
51.47,-1.24,-2.19,-1.24,-2.19,2.19,2.25,2.14,0.95,0.95,0.95
51.99,-1.19,-2.13,-1.19,-2.13,2.13,2.19,2.05,0.93,0.93,0.94
52.51,-1.14,-2.07,-1.14,-2.07,2.06,2.12,1.97,0.92,0.92,0.93
53.03,-1.09,-2.02,-1.09,-2.02,2.01,2.06,1.89,0.91,0.91,0.93
53.56,-1.04,-1.95,-1.04,-1.95,1.95,1.99,1.82,0.91,0.91,0.91
54.10,-0.99,-1.89,-0.99,-1.89,1.91,1.93,1.74,0.91,0.92,0.90
54.64,-0.94,-1.82,-0.94,-1.83,1.86,1.86,1.67,0.92,0.92,0.88
55.18,-0.90,-1.78,-0.91,-1.78,1.81,1.80,1.59,0.91,0.90,0.88
55.74,-0.90,-1.76,-0.92,-1.78,1.77,1.74,1.52,0.86,0.85,0.86
56.29,-0.91,-1.76,-0.92,-1.77,1.72,1.68,1.45,0.81,0.80,0.85
56.86,-0.93,-1.77,-0.88,-1.71,1.68,1.61,1.39,0.74,0.80,0.84
57.42,-0.82,-1.63,-0.81,-1.63,1.63,1.55,1.32,0.80,0.82,0.81
58.00,-0.67,-1.47,-0.75,-1.55,1.57,1.49,1.25,0.89,0.81,0.80
58.58,-0.71,-1.50,-0.70,-1.49,1.50,1.43,1.19,0.79,0.80,0.79
59.16,-0.72,-1.49,-0.68,-1.45,1.43,1.37,1.13,0.71,0.75,0.77
59.76,-0.64,-1.39,-0.64,-1.39,1.36,1.31,1.06,0.72,0.72,0.75
60.35,-0.56,-1.27,-0.57,-1.28,1.30,1.25,1.00,0.73,0.73,0.71
60.96,-0.49,-1.16,-0.52,-1.19,1.23,1.19,0.94,0.74,0.71,0.67
61.57,-0.50,-1.13,-0.51,-1.14,1.17,1.13,0.88,0.66,0.65,0.63
62.18,-0.53,-1.12,-0.53,-1.11,1.09,1.07,0.83,0.56,0.57,0.59
62.80,-0.54,-1.08,-0.52,-1.06,1.02,1.01,0.77,0.47,0.49,0.54
63.43,-0.49,-0.99,-0.49,-0.98,0.94,0.95,0.71,0.45,0.45,0.50
64.07,-0.41,-0.86,-0.43,-0.88,0.87,0.89,0.66,0.45,0.44,0.45
64.71,-0.36,-0.77,-0.37,-0.78,0.80,0.83,0.60,0.44,0.43,0.41
65.35,-0.33,-0.70,-0.33,-0.69,0.73,0.77,0.55,0.40,0.41,0.37
66.01,-0.30,-0.62,-0.31,-0.63,0.67,0.71,0.49,0.36,0.35,0.32
66.67,-0.31,-0.58,-0.31,-0.58,0.60,0.66,0.44,0.29,0.29,0.27
67.33,-0.32,-0.54,-0.32,-0.54,0.54,0.60,0.39,0.21,0.21,0.22
68.01,-0.32,-0.50,-0.34,-0.51,0.48,0.54,0.34,0.15,0.14,0.18
68.69,-0.35,-0.48,-0.33,-0.46,0.42,0.48,0.29,0.07,0.09,0.13
69.37,-0.31,-0.39,-0.30,-0.38,0.36,0.43,0.24,0.05,0.06,0.08
70.07,-0.24,-0.27,-0.27,-0.30,0.30,0.37,0.18,0.05,0.03,0.03
70.77,-0.23,-0.21,-0.24,-0.21,0.23,0.31,0.13,-0.00,-0.01,-0.02
71.48,-0.23,-0.16,-0.23,-0.15,0.16,0.26,0.08,-0.07,-0.07,-0.07
72.19,-0.23,-0.09,-0.23,-0.09,0.09,0.20,0.03,-0.14,-0.14,-0.14
72.91,-0.23,-0.03,-0.23,-0.03,0.03,0.14,-0.02,-0.20,-0.20,-0.20
73.64,-0.23,0.02,-0.23,0.03,-0.02,0.09,-0.07,-0.25,-0.24,-0.25
74.38,-0.23,0.08,-0.24,0.07,-0.06,0.03,-0.12,-0.29,-0.30,-0.31
75.12,-0.24,0.13,-0.27,0.10,-0.09,-0.02,-0.17,-0.34,-0.36,-0.37
75.87,-0.33,0.10,-0.30,0.13,-0.12,-0.08,-0.22,-0.46,-0.42,-0.43
76.63,-0.33,0.15,-0.34,0.15,-0.15,-0.13,-0.27,-0.49,-0.49,-0.48
77.40,-0.35,0.18,-0.37,0.16,-0.18,-0.19,-0.32,-0.54,-0.56,-0.53
78.17,-0.40,0.19,-0.39,0.19,-0.21,-0.24,-0.38,-0.61,-0.60,-0.59
78.95,-0.42,0.21,-0.42,0.22,-0.23,-0.30,-0.43,-0.66,-0.65,-0.63
79.74,-0.42,0.26,-0.43,0.26,-0.26,-0.35,-0.48,-0.68,-0.69,-0.68
80.54,-0.42,0.31,-0.42,0.32,-0.29,-0.40,-0.53,-0.71,-0.70,-0.73
81.35,-0.42,0.36,-0.44,0.34,-0.31,-0.46,-0.59,-0.74,-0.75,-0.78
82.16,-0.44,0.39,-0.48,0.35,-0.34,-0.51,-0.64,-0.79,-0.82,-0.83
82.98,-0.56,0.31,-0.51,0.36,-0.37,-0.56,-0.70,-0.94,-0.89,-0.87
83.81,-0.54,0.38,-0.53,0.39,-0.41,-0.62,-0.76,-0.95,-0.94,-0.92
84.65,-0.50,0.47,-0.54,0.43,-0.46,-0.67,-0.81,-0.96,-0.99,-0.97
85.50,-0.51,0.50,-0.53,0.49,-0.51,-0.72,-0.87,-1.02,-1.03,-1.01
86.35,-0.54,0.52,-0.51,0.55,-0.56,-0.78,-0.93,-1.10,-1.07,-1.06
87.22,-0.50,0.61,-0.49,0.62,-0.62,-0.83,-0.99,-1.12,-1.11,-1.11
88.09,-0.43,0.73,-0.46,0.71,-0.68,-0.88,-1.05,-1.12,-1.14,-1.16
88.97,-0.42,0.80,-0.43,0.79,-0.76,-0.93,-1.11,-1.18,-1.18,-1.22
89.86,-0.42,0.85,-0.42,0.85,-0.84,-0.99,-1.17,-1.26,-1.26,-1.27
90.76,-0.41,0.91,-0.43,0.90,-0.93,-1.04,-1.24,-1.34,-1.35,-1.32
91.66,-0.42,0.95,-0.42,0.96,-1.01,-1.09,-1.30,-1.43,-1.43,-1.37
92.58,-0.40,1.03,-0.37,1.06,-1.09,-1.14,-1.37,-1.50,-1.46,-1.43
93.51,-0.29,1.19,-0.31,1.17,-1.17,-1.19,-1.43,-1.46,-1.48,-1.48
94.44,-0.21,1.31,-0.24,1.28,-1.24,-1.24,-1.50,-1.45,-1.48,-1.52
95.39,-0.22,1.35,-0.21,1.37,-1.31,-1.29,-1.57,-1.53,-1.51,-1.57
96.34,-0.21,1.41,-0.23,1.40,-1.37,-1.34,-1.63,-1.58,-1.60,-1.62
97.30,-0.25,1.42,-0.26,1.42,-1.42,-1.39,-1.70,-1.68,-1.68,-1.67
98.28,-0.30,1.42,-0.27,1.45,-1.47,-1.44,-1.77,-1.77,-1.74,-1.72
99.26,-0.27,1.49,-0.29,1.48,-1.50,-1.49,-1.84,-1.78,-1.79,-1.76
100.25,-0.27,1.54,-0.29,1.53,-1.53,-1.54,-1.91,-1.81,-1.82,-1.81
101.25,-0.29,1.57,-0.29,1.57,-1.57,-1.59,-1.98,-1.86,-1.85,-1.86
102.27,-0.30,1.61,-0.30,1.61,-1.60,-1.64,-2.06,-1.91,-1.91,-1.91
103.29,-0.31,1.65,-0.31,1.65,-1.65,-1.69,-2.13,-1.96,-1.96,-1.96
104.32,-0.31,1.69,-0.31,1.70,-1.70,-1.74,-2.20,-2.01,-2.01,-2.00
105.37,-0.29,1.76,-0.30,1.75,-1.75,-1.79,-2.27,-2.05,-2.06,-2.05
106.42,-0.29,1.81,-0.30,1.80,-1.81,-1.84,-2.34,-2.10,-2.11,-2.10
107.48,-0.30,1.86,-0.29,1.86,-1.88,-1.88,-2.41,-2.18,-2.17,-2.16
108.56,-0.28,1.93,-0.27,1.94,-1.95,-1.93,-2.47,-2.23,-2.22,-2.21
109.64,-0.24,2.02,-0.25,2.02,-2.02,-1.98,-2.54,-2.27,-2.27,-2.26
110.74,-0.20,2.12,-0.22,2.09,-2.10,-2.03,-2.60,-2.30,-2.32,-2.32
111.85,-0.20,2.16,-0.19,2.18,-2.17,-2.07,-2.67,-2.38,-2.36,-2.36
112.97,-0.17,2.25,-0.15,2.27,-2.25,-2.12,-2.73,-2.42,-2.40,-2.42
114.10,-0.10,2.37,-0.13,2.34,-2.32,-2.17,-2.78,-2.42,-2.45,-2.47
115.24,-0.10,2.42,-0.12,2.40,-2.39,-2.21,-2.84,-2.50,-2.51,-2.52
116.39,-0.13,2.44,-0.12,2.46,-2.46,-2.26,-2.89,-2.60,-2.58,-2.57
117.55,-0.13,2.48,-0.10,2.51,-2.54,-2.30,-2.94,-2.67,-2.64,-2.61
118.73,-0.04,2.61,-0.07,2.58,-2.61,-2.35,-2.99,-2.65,-2.68,-2.65
119.92,-0.01,2.67,-0.02,2.66,-2.68,-2.39,-3.03,-2.69,-2.70,-2.68
121.12,0.01,2.73,0.03,2.75,-2.74,-2.44,-3.07,-2.73,-2.71,-2.72
122.33,0.08,2.83,0.07,2.82,-2.80,-2.48,-3.10,-2.73,-2.73,-2.75
123.55,0.13,2.91,0.11,2.89,-2.86,-2.52,-3.13,-2.74,-2.76,-2.78
124.79,0.12,2.93,0.13,2.94,-2.92,-2.57,-3.15,-2.80,-2.79,-2.81
126.03,0.13,2.97,0.13,2.97,-2.97,-2.61,-3.18,-2.84,-2.84,-2.84
127.29,0.13,2.99,0.13,3.00,-3.01,-2.65,-3.19,-2.88,-2.88,-2.86
128.57,0.14,3.04,0.14,3.04,-3.05,-2.69,-3.21,-2.91,-2.91,-2.90
129.85,0.15,3.08,0.14,3.07,-3.08,-2.73,-3.22,-2.93,-2.94,-2.93
131.15,0.15,3.11,0.15,3.11,-3.11,-2.77,-3.22,-2.97,-2.96,-2.96
132.46,0.16,3.15,0.15,3.15,-3.14,-2.81,-3.23,-2.99,-2.99,-2.99
133.79,0.16,3.18,0.16,3.18,-3.18,-2.85,-3.22,-3.02,-3.02,-3.02
135.12,0.16,3.21,0.16,3.21,-3.21,-2.89,-3.22,-3.06,-3.05,-3.05
136.48,0.17,3.24,0.16,3.24,-3.25,-2.93,-3.21,-3.08,-3.08,-3.07
137.84,0.17,3.28,0.17,3.28,-3.28,-2.97,-3.20,-3.11,-3.12,-3.11
139.22,0.17,3.31,0.17,3.31,-3.31,-3.00,-3.19,-3.15,-3.14,-3.14
140.61,0.17,3.34,0.17,3.34,-3.34,-3.04,-3.18,-3.17,-3.17,-3.17
142.02,0.17,3.36,0.17,3.37,-3.36,-3.08,-3.17,-3.19,-3.18,-3.19
143.44,0.17,3.39,0.17,3.39,-3.37,-3.11,-3.15,-3.20,-3.20,-3.22
144.87,0.17,3.43,0.15,3.41,-3.38,-3.15,-3.13,-3.22,-3.23,-3.26
146.32,0.11,3.41,0.12,3.41,-3.40,-3.18,-3.12,-3.29,-3.28,-3.30
147.78,0.08,3.41,0.07,3.40,-3.42,-3.22,-3.10,-3.34,-3.35,-3.33
149.26,0.02,3.40,0.02,3.40,-3.44,-3.25,-3.08,-3.43,-3.42,-3.38
150.75,-0.02,3.42,-0.01,3.43,-3.48,-3.28,-3.06,-3.50,-3.49,-3.44
152.26,-0.02,3.49,-0.03,3.48,-3.52,-3.31,-3.05,-3.54,-3.55,-3.51
153.78,-0.02,3.56,-0.02,3.56,-3.57,-3.34,-3.03,-3.59,-3.59,-3.58
155.32,-0.02,3.63,-0.02,3.63,-3.62,-3.37,-3.02,-3.64,-3.64,-3.65
156.88,-0.02,3.71,-0.03,3.70,-3.67,-3.40,-3.00,-3.69,-3.70,-3.73
158.44,-0.06,3.75,-0.07,3.75,-3.71,-3.43,-2.99,-3.77,-3.77,-3.81
160.03,-0.11,3.78,-0.11,3.78,-3.74,-3.46,-2.98,-3.85,-3.85,-3.89
161.63,-0.18,3.78,-0.18,3.78,-3.76,-3.49,-2.97,-3.94,-3.94,-3.96
163.24,-0.23,3.79,-0.24,3.78,-3.78,-3.51,-2.96,-4.01,-4.02,-4.02
164.88,-0.30,3.77,-0.31,3.77,-3.79,-3.54,-2.96,-4.10,-4.10,-4.07
166.53,-0.36,3.76,-0.36,3.76,-3.81,-3.56,-2.95,-4.17,-4.17,-4.12
168.19,-0.39,3.77,-0.38,3.78,-3.83,-3.59,-2.95,-4.22,-4.21,-4.16
169.87,-0.37,3.83,-0.37,3.83,-3.86,-3.61,-2.95,-4.23,-4.22,-4.20
171.57,-0.32,3.90,-0.33,3.90,-3.88,-3.63,-2.96,-4.21,-4.21,-4.22
173.29,-0.27,3.96,-0.28,3.95,-3.92,-3.65,-2.96,-4.19,-4.20,-4.23
175.02,-0.25,3.99,-0.26,3.98,-3.95,-3.67,-2.97,-4.20,-4.21,-4.24
176.77,-0.26,3.99,-0.26,4.00,-3.97,-3.69,-2.98,-4.24,-4.23,-4.25
178.54,-0.26,4.00,-0.26,4.00,-4.00,-3.71,-2.99,-4.26,-4.26,-4.26
180.32,-0.25,4.00,-0.26,4.00,-4.01,-3.73,-3.00,-4.26,-4.27,-4.25
182.13,-0.25,3.99,-0.25,4.00,-4.02,-3.74,-3.02,-4.27,-4.27,-4.24
183.95,-0.24,4.01,-0.23,4.01,-4.02,-3.76,-3.04,-4.26,-4.25,-4.25
185.79,-0.23,4.02,-0.24,4.02,-4.02,-3.78,-3.06,-4.25,-4.25,-4.25
187.65,-0.21,4.06,-0.25,4.02,-4.02,-3.79,-3.09,-4.23,-4.26,-4.27
189.52,-0.29,3.99,-0.26,4.02,-4.02,-3.80,-3.11,-4.32,-4.28,-4.28
191.42,-0.28,4.02,-0.28,4.03,-4.03,-3.82,-3.14,-4.31,-4.31,-4.30
193.33,-0.27,4.05,-0.30,4.02,-4.04,-3.83,-3.17,-4.31,-4.34,-4.32
195.27,-0.31,4.03,-0.31,4.04,-4.04,-3.84,-3.20,-4.36,-4.35,-4.34
197.22,-0.33,4.03,-0.32,4.05,-4.05,-3.85,-3.24,-4.38,-4.37,-4.36
199.19,-0.32,4.06,-0.32,4.06,-4.06,-3.86,-3.27,-4.38,-4.38,-4.38
201.18,-0.31,4.09,-0.34,4.07,-4.06,-3.86,-3.31,-4.38,-4.40,-4.40
203.19,-0.35,4.07,-0.35,4.07,-4.06,-3.87,-3.35,-4.41,-4.41,-4.42
205.23,-0.40,4.04,-0.38,4.06,-4.05,-3.88,-3.38,-4.46,-4.43,-4.44
207.28,-0.39,4.06,-0.41,4.04,-4.04,-3.88,-3.42,-4.43,-4.45,-4.45
209.35,-0.43,4.04,-0.44,4.04,-4.03,-3.89,-3.47,-4.46,-4.47,-4.47
211.44,-0.49,4.01,-0.48,4.02,-4.01,-3.89,-3.51,-4.51,-4.49,-4.50
213.56,-0.51,4.00,-0.54,3.97,-4.00,-3.89,-3.55,-4.51,-4.54,-4.51
215.69,-0.59,3.93,-0.59,3.93,-3.97,-3.89,-3.59,-4.57,-4.56,-4.52
217.85,-0.65,3.88,-0.60,3.93,-3.94,-3.89,-3.63,-4.60,-4.54,-4.53
220.03,-0.60,3.94,-0.62,3.93,-3.91,-3.89,-3.67,-4.51,-4.53,-4.54
222.23,-0.59,3.98,-0.65,3.91,-3.87,-3.89,-3.70,-4.46,-4.52,-4.57
224.45,-0.72,3.84,-0.70,3.86,-3.83,-3.89,-3.74,-4.55,-4.53,-4.56
226.70,-0.81,3.75,-0.80,3.77,-3.78,-3.89,-3.77,-4.59,-4.58,-4.56
228.96,-0.85,3.70,-0.87,3.69,-3.73,-3.88,-3.81,-4.58,-4.59,-4.55
231.25,-0.92,3.62,-0.89,3.66,-3.66,-3.88,-3.84,-4.59,-4.55,-4.54
233.57,-0.89,3.64,-0.92,3.61,-3.60,-3.87,-3.86,-4.49,-4.52,-4.53
235.90,-0.94,3.58,-0.98,3.54,-3.53,-3.87,-3.89,-4.48,-4.51,-4.52
238.26,-1.07,3.44,-1.04,3.46,-3.47,-3.86,-3.91,-4.54,-4.51,-4.51
240.64,-1.12,3.36,-1.10,3.38,-3.41,-3.85,-3.92,-4.53,-4.51,-4.48
243.05,-1.12,3.33,-1.13,3.32,-3.35,-3.85,-3.93,-4.47,-4.48,-4.45
245.48,-1.13,3.30,-1.14,3.29,-3.28,-3.84,-3.94,-4.41,-4.41,-4.43
247.93,-1.15,3.25,-1.16,3.25,-3.20,-3.83,-3.95,-4.36,-4.36,-4.40
250.41,-1.19,3.19,-1.21,3.17,-3.13,-3.82,-3.95,-4.32,-4.34,-4.38
252.92,-1.28,3.07,-1.28,3.07,-3.06,-3.81,-3.94,-4.34,-4.34,-4.35
255.45,-1.36,2.97,-1.35,2.99,-2.99,-3.79,-3.94,-4.36,-4.34,-4.33
258.00,-1.39,2.92,-1.39,2.92,-2.94,-3.78,-3.92,-4.33,-4.33,-4.31
260.58,-1.39,2.90,-1.41,2.88,-2.90,-3.77,-3.91,-4.29,-4.30,-4.29
263.19,-1.39,2.87,-1.40,2.86,-2.88,-3.75,-3.89,-4.28,-4.28,-4.26
265.82,-1.39,2.85,-1.38,2.86,-2.90,-3.74,-3.86,-4.29,-4.28,-4.24
268.48,-1.33,2.89,-1.33,2.89,-2.94,-3.73,-3.83,-4.28,-4.27,-4.22
271.16,-1.23,2.96,-1.22,2.98,-3.02,-3.71,-3.80,-4.25,-4.24,-4.19
273.87,-1.08,3.09,-1.08,3.09,-3.11,-3.69,-3.77,-4.19,-4.19,-4.17
276.61,-0.90,3.24,-0.93,3.21,-3.21,-3.68,-3.74,-4.11,-4.14,-4.14
279.38,-0.80,3.31,-0.78,3.33,-3.30,-3.66,-3.70,-4.10,-4.08,-4.11
282.17,-0.65,3.44,-0.65,3.43,-3.38,-3.64,-3.66,-4.03,-4.03,-4.09
284.99,-0.55,3.50,-0.56,3.50,-3.44,-3.62,-3.62,-4.00,-4.00,-4.05
287.84,-0.47,3.56,-0.49,3.54,-3.49,-3.61,-3.57,-3.96,-3.98,-4.03
290.72,-0.47,3.53,-0.48,3.52,-3.51,-3.59,-3.53,-3.99,-3.99,-4.00
293.63,-0.50,3.47,-0.48,3.49,-3.52,-3.57,-3.49,-4.03,-4.00,-3.97
296.57,-0.48,3.46,-0.49,3.46,-3.51,-3.55,-3.44,-3.99,-4.00,-3.94
299.53,-0.47,3.44,-0.48,3.44,-3.48,-3.53,-3.40,-3.95,-3.96,-3.91
302.53,-0.46,3.43,-0.44,3.45,-3.43,-3.51,-3.35,-3.89,-3.87,-3.89
305.55,-0.42,3.43,-0.42,3.43,-3.38,-3.49,-3.31,-3.80,-3.80,-3.85
308.61,-0.39,3.44,-0.44,3.39,-3.33,-3.47,-3.27,-3.72,-3.77,-3.83
311.69,-0.51,3.29,-0.50,3.30,-3.28,-3.45,-3.23,-3.80,-3.79,-3.80
314.81,-0.59,3.19,-0.58,3.20,-3.24,-3.43,-3.19,-3.84,-3.83,-3.78
317.96,-0.66,3.10,-0.65,3.12,-3.20,-3.41,-3.15,-3.86,-3.85,-3.76
321.14,-0.65,3.10,-0.65,3.10,-3.16,-3.38,-3.11,-3.81,-3.81,-3.75
324.35,-0.62,3.11,-0.62,3.12,-3.12,-3.36,-3.07,-3.74,-3.74,-3.73
327.59,-0.58,3.14,-0.59,3.13,-3.09,-3.34,-3.04,-3.67,-3.68,-3.72
330.87,-0.57,3.14,-0.61,3.10,-3.06,-3.32,-3.01,-3.63,-3.67,-3.71
334.18,-0.66,3.03,-0.65,3.05,-3.02,-3.30,-2.98,-3.69,-3.67,-3.69
337.52,-0.72,2.96,-0.68,3.00,-2.99,-3.27,-2.95,-3.71,-3.67,-3.68
340.90,-0.70,2.97,-0.71,2.96,-2.95,-3.25,-2.92,-3.65,-3.66,-3.67
344.30,-0.70,2.96,-0.77,2.90,-2.90,-3.23,-2.90,-3.61,-3.67,-3.66
347.75,-0.85,2.81,-0.84,2.82,-2.85,-3.21,-2.88,-3.71,-3.69,-3.66
351.23,-0.95,2.70,-0.89,2.77,-2.80,-3.19,-2.86,-3.75,-3.69,-3.65
354.74,-0.91,2.75,-0.92,2.74,-2.75,-3.16,-2.84,-3.66,-3.67,-3.66
358.28,-0.87,2.78,-0.91,2.74,-2.70,-3.14,-2.82,-3.58,-3.62,-3.65
361.87,-0.94,2.71,-0.94,2.71,-2.67,-3.12,-2.81,-3.61,-3.60,-3.65
365.49,-0.99,2.65,-1.01,2.64,-2.64,-3.10,-2.80,-3.63,-3.65,-3.64
369.14,-1.09,2.56,-1.07,2.58,-2.62,-3.08,-2.79,-3.71,-3.69,-3.65
372.83,-1.11,2.54,-1.10,2.56,-2.60,-3.05,-2.78,-3.72,-3.70,-3.65
376.56,-1.07,2.59,-1.09,2.57,-2.59,-3.03,-2.78,-3.66,-3.68,-3.66
380.33,-1.06,2.59,-1.06,2.60,-2.58,-3.01,-2.77,-3.64,-3.63,-3.65
384.13,-1.03,2.62,-1.05,2.60,-2.57,-2.99,-2.77,-3.61,-3.63,-3.65
387.97,-1.05,2.61,-1.07,2.59,-2.58,-2.97,-2.77,-3.63,-3.65,-3.66
391.85,-1.12,2.55,-1.08,2.58,-2.59,-2.95,-2.78,-3.72,-3.67,-3.67
395.77,-1.08,2.58,-1.09,2.58,-2.60,-2.93,-2.78,-3.69,-3.69,-3.66
399.73,-1.05,2.62,-1.07,2.60,-2.61,-2.91,-2.79,-3.66,-3.68,-3.67
403.72,-1.05,2.62,-1.05,2.63,-2.62,-2.89,-2.80,-3.67,-3.67,-3.67
407.76,-1.05,2.64,-1.05,2.64,-2.62,-2.87,-2.80,-3.67,-3.67,-3.69
411.84,-1.05,2.64,-1.06,2.63,-2.63,-2.85,-2.81,-3.68,-3.68,-3.69
415.96,-1.06,2.63,-1.06,2.63,-2.63,-2.83,-2.83,-3.70,-3.69,-3.69
420.12,-1.06,2.63,-1.06,2.63,-2.63,-2.81,-2.84,-3.70,-3.69,-3.69
424.32,-1.05,2.64,-1.06,2.63,-2.63,-2.80,-2.85,-3.69,-3.69,-3.69
428.56,-1.04,2.64,-1.05,2.64,-2.64,-2.78,-2.86,-3.68,-3.68,-3.68
432.85,-1.03,2.64,-1.03,2.65,-2.64,-2.76,-2.88,-3.68,-3.67,-3.67
437.18,-1.00,2.66,-1.00,2.65,-2.66,-2.75,-2.89,-3.66,-3.66,-3.66
441.55,-0.96,2.66,-0.98,2.65,-2.68,-2.73,-2.90,-3.64,-3.65,-3.62
445.96,-0.92,2.67,-0.92,2.67,-2.70,-2.72,-2.92,-3.63,-3.62,-3.59
450.42,-0.87,2.69,-0.84,2.71,-2.73,-2.70,-2.93,-3.61,-3.58,-3.56
454.93,-0.73,2.78,-0.75,2.76,-2.76,-2.69,-2.94,-3.49,-3.51,-3.51
459.48,-0.65,2.82,-0.67,2.80,-2.78,-2.67,-2.95,-3.44,-3.45,-3.47
