frequency,raw,error,smoothed,error_smoothed,equalization,parametric_eq,fixed_band_eq,equalized_raw,equalized_smoothed,target
20.00,-30.23,-33.49,-30.23,-33.51,33.51,33.96,17.48,3.28,3.28,3.26
20.20,-30.10,-33.40,-30.10,-33.41,33.41,33.74,17.69,3.31,3.32,3.30
20.40,-29.96,-33.30,-29.97,-33.31,33.31,33.53,17.90,3.35,3.35,3.34
20.61,-29.83,-33.21,-29.83,-33.21,33.21,33.33,18.13,3.38,3.38,3.37
20.81,-29.70,-33.11,-29.70,-33.10,33.10,33.13,18.35,3.40,3.40,3.41
21.02,-29.57,-33.02,-29.57,-33.00,33.00,32.94,18.58,3.43,3.43,3.45
21.23,-29.43,-32.90,-29.43,-32.89,32.89,32.76,18.82,3.46,3.45,3.47
21.44,-29.30,-32.79,-29.30,-32.77,32.77,32.58,19.06,3.48,3.48,3.49
21.66,-29.16,-32.68,-29.16,-32.66,32.66,32.41,19.31,3.50,3.50,3.51
21.87,-29.03,-32.55,-29.03,-32.54,32.54,32.25,19.56,3.52,3.52,3.52
22.09,-28.89,-32.43,-28.89,-32.43,32.43,32.09,19.83,3.54,3.54,3.54
22.31,-28.75,-32.30,-28.75,-32.31,32.31,31.93,20.09,3.56,3.55,3.55
22.54,-28.61,-32.18,-28.62,-32.18,32.18,31.78,20.37,3.57,3.56,3.56
22.76,-28.48,-32.05,-28.48,-32.05,32.05,31.64,20.65,3.57,3.57,3.57
22.99,-28.34,-31.91,-28.34,-31.92,31.92,31.49,20.95,3.58,3.58,3.57
23.22,-28.20,-31.78,-28.20,-31.79,31.79,31.36,21.25,3.59,3.59,3.58
23.45,-28.06,-31.65,-28.06,-31.66,31.66,31.22,21.56,3.60,3.60,3.59
23.69,-27.92,-31.53,-27.92,-31.53,31.53,31.09,21.88,3.60,3.61,3.60
23.92,-27.78,-31.39,-27.78,-31.40,31.40,30.96,22.21,3.62,3.62,3.61
24.16,-27.63,-31.26,-27.64,-31.26,31.26,30.84,22.55,3.63,3.63,3.63
24.40,-27.49,-31.14,-27.49,-31.13,31.13,30.71,22.91,3.64,3.64,3.65
24.65,-27.35,-30.99,-27.35,-31.00,31.00,30.59,23.28,3.65,3.65,3.64
24.89,-27.21,-30.86,-27.21,-30.87,30.87,30.48,23.66,3.66,3.66,3.65
25.14,-27.07,-30.73,-27.07,-30.73,30.73,30.36,24.06,3.66,3.67,3.66
25.39,-26.92,-30.59,-26.92,-30.60,30.60,30.24,24.48,3.68,3.68,3.67
25.65,-26.78,-30.47,-26.78,-30.47,30.47,30.13,24.91,3.68,3.69,3.69
25.91,-26.63,-30.33,-26.63,-30.33,30.33,30.02,25.37,3.70,3.70,3.69
26.16,-26.49,-30.19,-26.49,-30.20,30.20,29.91,25.85,3.71,3.71,3.70
26.43,-26.34,-30.06,-26.34,-30.06,30.06,29.80,26.35,3.72,3.72,3.71
26.69,-26.20,-29.92,-26.20,-29.92,29.92,29.69,26.88,3.72,3.72,3.72
26.96,-26.05,-29.80,-26.05,-29.79,29.79,29.58,27.44,3.73,3.73,3.74
27.23,-25.91,-29.67,-25.91,-29.65,29.65,29.47,28.04,3.74,3.74,3.75
27.50,-25.76,-29.51,-25.76,-29.51,29.51,29.37,28.67,3.75,3.75,3.75
27.77,-25.61,-29.36,-25.61,-29.37,29.37,29.26,29.34,3.76,3.76,3.75
28.05,-25.46,-29.23,-25.46,-29.23,29.23,29.15,30.06,3.77,3.77,3.77
28.33,-25.32,-29.09,-25.31,-29.09,29.09,29.04,30.84,3.77,3.78,3.77
28.62,-25.17,-28.96,-25.17,-28.95,28.95,28.93,31.67,3.78,3.79,3.78
28.90,-25.02,-28.81,-25.02,-28.81,28.81,28.82,32.57,3.79,3.79,3.79
29.19,-24.87,-28.66,-24.87,-28.67,28.67,28.71,33.54,3.80,3.80,3.79
29.48,-24.72,-28.54,-24.73,-28.54,28.54,28.60,34.59,3.82,3.81,3.82
29.78,-24.57,-28.39,-24.58,-28.40,28.40,28.49,35.71,3.82,3.81,3.81
30.08,-24.42,-28.25,-24.44,-28.26,28.26,28.38,36.87,3.83,3.82,3.82
30.38,-24.29,-28.12,-24.29,-28.12,28.12,28.26,38.01,3.83,3.83,3.82
30.68,-24.15,-27.99,-24.15,-27.98,27.98,28.15,39.00,3.83,3.84,3.84
30.99,-24.01,-27.86,-24.00,-27.85,27.85,28.03,39.64,3.83,3.84,3.84
31.30,-23.86,-27.71,-23.86,-27.71,27.71,27.91,39.74,3.85,3.85,3.84
31.61,-23.72,-27.57,-23.72,-27.57,27.57,27.79,39.27,3.85,3.86,3.85
31.93,-23.57,-27.44,-23.57,-27.44,27.44,27.66,38.40,3.86,3.86,3.86
32.24,-23.43,-27.29,-23.43,-27.30,27.30,27.54,37.33,3.87,3.87,3.86
32.57,-23.28,-27.16,-23.28,-27.16,27.16,27.41,36.22,3.88,3.88,3.88
32.89,-23.14,-27.02,-23.14,-27.02,27.02,27.29,35.14,3.88,3.89,3.88
33.22,-22.99,-26.88,-22.99,-26.88,26.88,27.15,34.13,3.89,3.89,3.89
33.55,-22.84,-26.74,-22.84,-26.74,26.74,27.02,33.19,3.90,3.90,3.90
33.89,-22.69,-26.60,-22.69,-26.60,26.60,26.89,32.33,3.91,3.91,3.91
34.23,-22.54,-26.45,-22.54,-26.45,26.45,26.75,31.53,3.91,3.91,3.91
34.57,-22.39,-26.31,-22.39,-26.31,26.31,26.61,30.80,3.92,3.92,3.92
34.92,-22.24,-26.17,-22.24,-26.17,26.17,26.47,30.12,3.92,3.93,3.92
35.27,-22.09,-26.03,-22.09,-26.02,26.02,26.33,29.50,3.93,3.93,3.93
35.62,-21.94,-25.87,-21.94,-25.88,25.88,26.18,28.91,3.93,3.93,3.93
35.97,-21.79,-25.72,-21.79,-25.73,25.73,26.04,28.37,3.94,3.94,3.93
36.33,-21.64,-25.58,-21.64,-25.58,25.58,25.89,27.86,3.94,3.94,3.94
36.70,-21.49,-25.42,-21.49,-25.43,25.43,25.74,27.38,3.94,3.94,3.93
37.06,-21.33,-25.27,-21.34,-25.28,25.28,25.58,26.93,3.95,3.94,3.94
37.43,-21.18,-25.12,-21.19,-25.13,25.13,25.43,26.51,3.95,3.94,3.94
37.81,-21.04,-24.98,-21.04,-24.97,24.97,25.27,26.11,3.93,3.94,3.94
38.19,-20.89,-24.83,-20.89,-24.82,24.82,25.11,25.74,3.93,3.94,3.94
38.57,-20.74,-24.67,-20.73,-24.67,24.67,24.95,25.38,3.93,3.93,3.93
38.95,-20.59,-24.52,-20.58,-24.51,24.51,24.79,25.04,3.93,3.93,3.93
39.34,-20.43,-24.35,-20.43,-24.36,24.36,24.63,24.72,3.93,3.93,3.92
39.74,-20.28,-24.20,-20.28,-24.21,24.21,24.46,24.42,3.93,3.93,3.92
40.14,-20.13,-24.06,-20.13,-24.05,24.05,24.29,24.13,3.92,3.93,3.92
40.54,-19.97,-23.90,-19.98,-23.90,23.90,24.13,23.85,3.93,3.92,3.92
40.94,-19.82,-23.73,-19.82,-23.74,23.74,23.96,23.59,3.92,3.92,3.91
41.35,-19.67,-23.58,-19.67,-23.59,23.59,23.79,23.35,3.92,3.92,3.91
41.76,-19.52,-23.43,-19.52,-23.43,23.43,23.62,23.11,3.92,3.91,3.91
42.18,-19.37,-23.28,-19.37,-23.28,23.28,23.44,22.88,3.91,3.91,3.91
42.60,-19.22,-23.13,-19.22,-23.13,23.13,23.27,22.67,3.91,3.91,3.91
43.03,-19.07,-22.98,-19.07,-22.97,22.97,23.10,22.47,3.90,3.90,3.91
43.46,-18.92,-22.83,-18.92,-22.82,22.82,22.92,22.27,3.90,3.90,3.91
43.90,-18.77,-22.67,-18.77,-22.67,22.67,22.74,22.09,3.90,3.90,3.89
44.33,-18.62,-22.51,-18.62,-22.52,22.52,22.57,21.91,3.90,3.90,3.89
44.78,-18.47,-22.35,-18.47,-22.37,22.37,22.39,21.74,3.90,3.89,3.88
45.23,-18.33,-22.22,-18.33,-22.22,22.22,22.21,21.58,3.88,3.89,3.88
45.68,-18.18,-22.06,-18.18,-22.07,22.07,22.03,21.43,3.88,3.89,3.88
46.13,-18.04,-21.91,-18.03,-21.91,21.91,21.85,21.29,3.88,3.88,3.87
46.60,-17.88,-21.77,-17.89,-21.76,21.76,21.68,21.15,3.88,3.88,3.88
47.06,-17.73,-21.60,-17.74,-21.61,21.61,21.50,21.02,3.88,3.87,3.87
47.53,-17.59,-21.45,-17.59,-21.46,21.46,21.32,20.90,3.87,3.86,3.86
48.01,-17.45,-21.32,-17.45,-21.30,21.30,21.14,20.78,3.85,3.85,3.87
48.49,-17.31,-21.16,-17.30,-21.15,21.15,20.96,20.67,3.84,3.84,3.85
48.97,-17.17,-21.00,-17.16,-20.99,20.99,20.78,20.57,3.82,3.83,3.83
49.46,-17.02,-20.84,-17.02,-20.84,20.84,20.60,20.47,3.82,3.82,3.82
49.96,-16.87,-20.67,-16.87,-20.69,20.69,20.42,20.37,3.81,3.81,3.80
50.46,-16.73,-20.53,-16.73,-20.53,20.53,20.24,20.28,3.80,3.80,3.80
50.96,-16.59,-20.37,-16.60,-20.38,20.38,20.06,20.19,3.79,3.78,3.78
51.47,-16.45,-20.20,-16.46,-20.22,20.22,19.88,20.11,3.77,3.77,3.75
51.99,-16.30,-20.05,-16.32,-20.07,20.07,19.70,20.03,3.77,3.75,3.74
52.51,-16.17,-19.90,-16.18,-19.91,19.91,19.52,19.95,3.74,3.73,3.73
53.03,-16.04,-19.75,-16.04,-19.76,19.76,19.34,19.88,3.71,3.71,3.71
53.56,-15.91,-19.61,-15.91,-19.60,19.60,19.16,19.80,3.69,3.69,3.70
54.10,-15.78,-19.45,-15.77,-19.44,19.44,18.99,19.73,3.66,3.67,3.67
54.64,-15.64,-19.30,-15.63,-19.29,19.29,18.81,19.66,3.65,3.66,3.66
55.18,-15.50,-19.13,-15.50,-19.13,19.13,18.63,19.58,3.63,3.64,3.63
55.74,-15.37,-18.97,-15.36,-18.98,18.98,18.46,19.51,3.61,3.62,3.60
56.29,-15.22,-18.82,-15.22,-18.82,18.82,18.28,19.43,3.60,3.60,3.60
56.86,-15.08,-18.65,-15.09,-18.66,18.66,18.11,19.35,3.58,3.58,3.57
57.42,-14.94,-18.48,-14.95,-18.50,18.50,17.93,19.27,3.56,3.55,3.54
58.00,-14.80,-18.32,-14.81,-18.34,18.34,17.76,19.18,3.54,3.53,3.52
58.58,-14.67,-18.17,-14.67,-18.17,18.17,17.58,19.09,3.50,3.50,3.50
59.16,-14.53,-18.01,-14.53,-18.00,18.00,17.41,18.99,3.47,3.48,3.48
59.76,-14.38,-17.84,-14.38,-17.83,17.83,17.24,18.89,3.45,3.45,3.46
60.35,-14.24,-17.67,-14.24,-17.66,17.66,17.07,18.78,3.42,3.42,3.43
60.96,-14.10,-17.50,-14.10,-17.49,17.49,16.90,18.67,3.39,3.39,3.40
61.57,-13.96,-17.31,-13.96,-17.31,17.31,16.73,18.55,3.35,3.36,3.35
62.18,-13.82,-17.13,-13.82,-17.14,17.14,16.56,18.42,3.32,3.32,3.31
62.80,-13.67,-16.96,-13.67,-16.96,16.96,16.39,18.28,3.29,3.29,3.29
63.43,-13.52,-16.76,-13.53,-16.78,16.78,16.22,18.14,3.26,3.25,3.24
64.07,-13.39,-16.59,-13.38,-16.60,16.60,16.06,17.98,3.20,3.21,3.20
64.71,-13.24,-16.41,-13.24,-16.41,16.41,15.89,17.82,3.17,3.18,3.17
65.35,-13.09,-16.22,-13.09,-16.22,16.22,15.73,17.66,3.13,3.14,3.13
66.01,-12.94,-16.03,-12.94,-16.04,16.04,15.56,17.48,3.10,3.10,3.09
66.67,-12.79,-15.85,-12.79,-15.85,15.85,15.40,17.30,3.06,3.06,3.06
67.33,-12.65,-15.67,-12.64,-15.66,15.66,15.24,17.12,3.01,3.02,3.02
68.01,-12.50,-15.48,-12.50,-15.48,15.48,15.08,16.93,2.98,2.98,2.98
68.69,-12.35,-15.29,-12.35,-15.29,15.29,14.91,16.73,2.94,2.94,2.94
69.37,-12.20,-15.10,-12.20,-15.11,15.11,14.75,16.53,2.91,2.90,2.90
70.07,-12.05,-14.91,-12.06,-14.92,14.92,14.60,16.33,2.87,2.86,2.86
70.77,-11.90,-14.72,-11.91,-14.74,14.74,14.44,16.12,2.84,2.83,2.82
71.48,-11.76,-14.55,-11.77,-14.55,14.55,14.28,15.91,2.79,2.79,2.79
72.19,-11.62,-14.36,-11.62,-14.37,14.37,14.12,15.70,2.75,2.75,2.74
72.91,-11.49,-14.20,-11.48,-14.19,14.19,13.97,15.49,2.70,2.71,2.71
73.64,-11.35,-14.02,-11.34,-14.02,14.02,13.81,15.27,2.67,2.68,2.67
74.38,-11.21,-13.85,-11.20,-13.84,13.84,13.66,15.06,2.63,2.64,2.64
75.12,-11.07,-13.67,-11.07,-13.67,13.67,13.51,14.84,2.60,2.61,2.60
75.87,-10.93,-13.50,-10.93,-13.51,13.51,13.36,14.63,2.58,2.58,2.57
76.63,-10.80,-13.34,-10.80,-13.35,13.35,13.21,14.42,2.55,2.54,2.54
77.40,-10.66,-13.17,-10.68,-13.19,13.19,13.06,14.20,2.53,2.51,2.51
78.17,-10.53,-13.01,-10.55,-13.03,13.03,12.91,13.99,2.50,2.49,2.48
78.95,-10.41,-12.86,-10.42,-12.88,12.88,12.76,13.78,2.47,2.46,2.45
79.74,-10.30,-12.73,-10.30,-12.73,12.73,12.61,13.58,2.43,2.43,2.43
80.54,-10.18,-12.59,-10.18,-12.58,12.58,12.47,13.37,2.40,2.41,2.41
81.35,-10.07,-12.45,-10.06,-12.44,12.44,12.32,13.17,2.37,2.38,2.38
82.16,-9.95,-12.30,-9.94,-12.30,12.30,12.18,12.97,2.35,2.36,2.35
82.98,-9.82,-12.16,-9.82,-12.16,12.16,12.04,12.77,2.34,2.34,2.34
83.81,-9.71,-12.02,-9.70,-12.02,12.02,11.90,12.57,2.31,2.31,2.31
84.65,-9.60,-11.88,-9.59,-11.88,11.88,11.76,12.38,2.28,2.29,2.28
85.50,-9.48,-11.75,-9.47,-11.74,11.74,11.62,12.19,2.26,2.27,2.27
86.35,-9.35,-11.60,-9.36,-11.61,11.61,11.48,12.00,2.26,2.25,2.25
87.22,-9.24,-11.47,-9.24,-11.48,11.48,11.34,11.81,2.24,2.23,2.23
88.09,-9.12,-11.33,-9.13,-11.35,11.35,11.20,11.63,2.22,2.21,2.21
88.97,-9.00,-11.19,-9.02,-11.21,11.21,11.07,11.45,2.21,2.20,2.19
89.86,-8.90,-11.08,-8.91,-11.08,11.08,10.93,11.27,2.18,2.18,2.18
90.76,-8.79,-10.94,-8.79,-10.95,10.95,10.80,11.10,2.16,2.16,2.15
91.66,-8.69,-10.82,-8.68,-10.82,10.82,10.67,10.93,2.13,2.14,2.13
92.58,-8.58,-10.69,-8.57,-10.69,10.69,10.53,10.76,2.11,2.12,2.11
93.51,-8.47,-10.57,-8.46,-10.56,10.56,10.40,10.59,2.09,2.10,2.10
94.44,-8.37,-10.45,-8.35,-10.43,10.43,10.27,10.43,2.06,2.08,2.08
95.39,-8.26,-10.32,-8.25,-10.30,10.30,10.15,10.26,2.04,2.05,2.06
96.34,-8.15,-10.18,-8.15,-10.18,10.18,10.02,10.11,2.02,2.03,2.03
97.30,-8.04,-10.04,-8.04,-10.05,10.05,9.89,9.95,2.01,2.01,2.00
98.28,-7.93,-9.90,-7.94,-9.92,9.92,9.77,9.80,1.99,1.98,1.97
99.26,-7.83,-9.78,-7.84,-9.80,9.80,9.64,9.64,1.97,1.95,1.95
100.25,-7.73,-9.65,-7.74,-9.67,9.67,9.52,9.49,1.94,1.92,1.92
101.25,-7.62,-9.51,-7.65,-9.54,9.54,9.39,9.35,1.92,1.89,1.89
102.27,-7.53,-9.38,-7.55,-9.41,9.41,9.27,9.20,1.88,1.86,1.85
103.29,-7.47,-9.29,-7.46,-9.28,9.28,9.15,9.06,1.81,1.82,1.82
104.32,-7.40,-9.19,-7.36,-9.15,9.15,9.03,8.92,1.75,1.79,1.79
105.37,-7.30,-9.05,-7.27,-9.02,9.02,8.91,8.78,1.72,1.75,1.75
106.42,-7.20,-8.90,-7.19,-8.89,8.89,8.80,8.65,1.69,1.70,1.70
107.48,-7.11,-8.78,-7.10,-8.76,8.76,8.68,8.51,1.65,1.66,1.67
108.56,-7.01,-8.62,-7.02,-8.63,8.63,8.57,8.38,1.62,1.61,1.61
109.64,-6.92,-8.48,-6.94,-8.50,8.50,8.45,8.25,1.58,1.56,1.56
110.74,-6.85,-8.36,-6.86,-8.37,8.37,8.34,8.12,1.52,1.51,1.51
111.85,-6.77,-8.23,-6.78,-8.24,8.24,8.23,8.00,1.46,1.45,1.46
112.97,-6.69,-8.08,-6.71,-8.11,8.11,8.11,7.87,1.41,1.40,1.39
114.10,-6.61,-7.95,-6.64,-7.97,7.97,8.00,7.75,1.36,1.34,1.34
115.24,-6.55,-7.83,-6.56,-7.84,7.84,7.90,7.63,1.29,1.28,1.28
116.39,-6.52,-7.73,-6.50,-7.72,7.72,7.79,7.51,1.20,1.22,1.21
117.55,-6.46,-7.61,-6.43,-7.60,7.60,7.68,7.40,1.13,1.16,1.15
118.73,-6.38,-7.47,-6.37,-7.47,7.47,7.57,7.29,1.09,1.10,1.09
119.92,-6.30,-7.34,-6.31,-7.35,7.35,7.47,7.17,1.05,1.05,1.04
121.12,-6.23,-7.21,-6.25,-7.24,7.24,7.36,7.06,1.00,0.99,0.98
122.33,-6.19,-7.12,-6.18,-7.12,7.12,7.26,6.96,0.93,0.93,0.93
123.55,-6.14,-7.02,-6.12,-7.00,7.00,7.16,6.85,0.86,0.88,0.88
124.79,-6.06,-6.89,-6.06,-6.89,6.89,7.06,6.74,0.83,0.83,0.83
126.03,-5.99,-6.77,-6.00,-6.78,6.78,6.96,6.64,0.79,0.78,0.78
127.29,-5.95,-6.68,-5.94,-6.67,6.67,6.86,6.54,0.72,0.73,0.73
128.57,-5.89,-6.56,-5.88,-6.56,6.56,6.76,6.44,0.67,0.68,0.67
129.85,-5.81,-6.44,-5.82,-6.45,6.45,6.66,6.34,0.64,0.63,0.63
131.15,-5.74,-6.32,-5.76,-6.35,6.35,6.57,6.25,0.61,0.59,0.58
132.46,-5.70,-6.24,-5.70,-6.25,6.25,6.47,6.15,0.55,0.55,0.54
133.79,-5.65,-6.15,-5.64,-6.15,6.15,6.38,6.06,0.50,0.50,0.50
135.12,-5.59,-6.05,-5.59,-6.05,6.05,6.29,5.97,0.46,0.46,0.46
136.48,-5.55,-5.97,-5.53,-5.95,5.95,6.19,5.88,0.40,0.42,0.42
137.84,-5.47,-5.85,-5.48,-5.86,5.86,6.10,5.79,0.39,0.38,0.38
139.22,-5.43,-5.76,-5.44,-5.78,5.78,6.01,5.70,0.35,0.34,0.33
140.61,-5.39,-5.68,-5.39,-5.69,5.69,5.92,5.62,0.30,0.30,0.29
142.02,-5.32,-5.59,-5.34,-5.61,5.61,5.83,5.53,0.29,0.27,0.27
143.44,-5.29,-5.52,-5.30,-5.53,5.53,5.75,5.45,0.24,0.23,0.23
144.87,-5.25,-5.44,-5.25,-5.45,5.45,5.66,5.37,0.20,0.19,0.19
146.32,-5.21,-5.36,-5.21,-5.37,5.37,5.58,5.29,0.16,0.15,0.15
147.78,-5.18,-5.30,-5.18,-5.29,5.29,5.49,5.21,0.11,0.12,0.12
149.26,-5.15,-5.24,-5.14,-5.22,5.22,5.41,5.13,0.07,0.08,0.09
150.75,-5.11,-5.14,-5.11,-5.14,5.14,5.33,5.05,0.03,0.04,0.03
152.26,-5.07,-5.06,-5.07,-5.07,5.07,5.24,4.97,-0.00,-0.00,-0.01
153.78,-5.03,-4.99,-5.04,-4.99,4.99,5.16,4.90,-0.04,-0.05,-0.04
155.32,-4.99,-4.89,-5.01,-4.92,4.92,5.08,4.82,-0.07,-0.09,-0.10
156.88,-4.96,-4.83,-4.97,-4.84,4.84,5.01,4.74,-0.12,-0.13,-0.13
158.44,-4.95,-4.77,-4.94,-4.76,4.76,4.93,4.67,-0.19,-0.18,-0.18
160.03,-4.92,-4.69,-4.90,-4.68,4.68,4.85,4.60,-0.24,-0.22,-0.23
161.63,-4.89,-4.61,-4.87,-4.60,4.60,4.78,4.52,-0.29,-0.27,-0.28
163.24,-4.86,-4.54,-4.83,-4.52,4.52,4.70,4.45,-0.34,-0.31,-0.32
164.88,-4.80,-4.44,-4.80,-4.43,4.43,4.63,4.38,-0.37,-0.36,-0.36
166.53,-4.76,-4.35,-4.76,-4.35,4.35,4.55,4.31,-0.41,-0.41,-0.41
168.19,-4.73,-4.27,-4.73,-4.27,4.27,4.48,4.24,-0.46,-0.46,-0.46
169.87,-4.68,-4.17,-4.69,-4.19,4.19,4.41,4.17,-0.49,-0.51,-0.51
171.57,-4.64,-4.09,-4.66,-4.10,4.10,4.34,4.10,-0.54,-0.56,-0.55
173.29,-4.62,-4.01,-4.63,-4.02,4.02,4.27,4.03,-0.60,-0.61,-0.61
175.02,-4.58,-3.92,-4.60,-3.94,3.94,4.20,3.96,-0.64,-0.66,-0.66
176.77,-4.56,-3.84,-4.57,-3.85,3.85,4.13,3.90,-0.71,-0.72,-0.72
178.54,-4.54,-3.77,-4.54,-3.78,3.78,4.07,3.83,-0.77,-0.77,-0.77
180.32,-4.52,-3.69,-4.52,-3.70,3.70,4.00,3.76,-0.82,-0.82,-0.83
182.13,-4.50,-3.62,-4.50,-3.62,3.62,3.93,3.69,-0.88,-0.88,-0.88
183.95,-4.48,-3.54,-4.48,-3.54,3.54,3.87,3.63,-0.94,-0.94,-0.94
185.79,-4.46,-3.47,-4.46,-3.47,3.47,3.81,3.56,-0.99,-0.99,-0.99
187.65,-4.44,-3.38,-4.44,-3.39,3.39,3.74,3.50,-1.05,-1.05,-1.06
189.52,-4.42,-3.31,-4.42,-3.32,3.32,3.68,3.44,-1.11,-1.10,-1.11
191.42,-4.41,-3.25,-4.39,-3.24,3.24,3.62,3.37,-1.17,-1.16,-1.16
193.33,-4.39,-3.18,-4.37,-3.16,3.16,3.56,3.31,-1.23,-1.21,-1.21
195.27,-4.36,-3.10,-4.35,-3.08,3.08,3.50,3.25,-1.28,-1.26,-1.26
197.22,-4.33,-3.01,-4.32,-3.01,3.01,3.44,3.18,-1.32,-1.31,-1.32
199.19,-4.30,-2.93,-4.29,-2.93,2.93,3.38,3.12,-1.37,-1.36,-1.37
201.18,-4.26,-2.84,-4.27,-2.86,2.86,3.33,3.06,-1.40,-1.41,-1.42
203.19,-4.23,-2.78,-4.25,-2.79,2.79,3.27,3.00,-1.44,-1.46,-1.45
205.23,-4.20,-2.69,-4.22,-2.72,2.72,3.21,2.94,-1.48,-1.50,-1.51
207.28,-4.18,-2.65,-4.20,-2.65,2.65,3.16,2.88,-1.53,-1.55,-1.53
209.35,-4.16,-2.57,-4.18,-2.59,2.59,3.11,2.82,-1.57,-1.59,-1.59
211.44,-4.15,-2.51,-4.15,-2.52,2.52,3.05,2.77,-1.63,-1.63,-1.64
213.56,-4.12,-2.44,-4.13,-2.46,2.46,3.00,2.71,-1.66,-1.67,-1.68
215.69,-4.11,-2.41,-4.11,-2.40,2.40,2.95,2.65,-1.71,-1.71,-1.70
217.85,-4.09,-2.35,-4.08,-2.34,2.34,2.90,2.60,-1.75,-1.74,-1.74
220.03,-4.08,-2.30,-4.06,-2.29,2.29,2.85,2.55,-1.79,-1.77,-1.78
222.23,-4.06,-2.25,-4.03,-2.23,2.23,2.80,2.49,-1.83,-1.80,-1.81
224.45,-4.03,-2.20,-4.01,-2.18,2.18,2.75,2.44,-1.85,-1.83,-1.83
226.70,-3.99,-2.13,-3.98,-2.12,2.12,2.70,2.39,-1.87,-1.86,-1.86
228.96,-3.96,-2.07,-3.95,-2.08,2.08,2.65,2.34,-1.89,-1.88,-1.89
231.25,-3.93,-2.03,-3.93,-2.03,2.03,2.60,2.29,-1.90,-1.90,-1.90
233.57,-3.90,-1.98,-3.90,-1.99,1.99,2.56,2.24,-1.91,-1.91,-1.92
235.90,-3.86,-1.93,-3.88,-1.96,1.96,2.51,2.20,-1.91,-1.93,-1.93
238.26,-3.84,-1.90,-3.86,-1.93,1.93,2.47,2.16,-1.91,-1.94,-1.94
240.64,-3.82,-1.87,-3.85,-1.90,1.90,2.42,2.11,-1.92,-1.95,-1.95
243.05,-3.81,-1.86,-3.84,-1.89,1.89,2.38,2.07,-1.93,-1.95,-1.95
245.48,-3.79,-1.83,-3.83,-1.88,1.88,2.34,2.03,-1.92,-1.95,-1.96
247.93,-3.80,-1.84,-3.82,-1.87,1.87,2.29,1.99,-1.93,-1.95,-1.96
250.41,-3.81,-1.85,-3.82,-1.87,1.87,2.25,1.96,-1.95,-1.95,-1.96
252.92,-3.82,-1.87,-3.81,-1.87,1.87,2.21,1.92,-1.96,-1.95,-1.95
255.45,-3.83,-1.89,-3.81,-1.87,1.87,2.17,1.89,-1.96,-1.94,-1.94
258.00,-3.83,-1.90,-3.80,-1.87,1.87,2.13,1.85,-1.96,-1.93,-1.93
260.58,-3.82,-1.89,-3.79,-1.87,1.87,2.09,1.82,-1.95,-1.92,-1.93
263.19,-3.81,-1.89,-3.78,-1.87,1.87,2.05,1.79,-1.94,-1.91,-1.92
265.82,-3.78,-1.87,-3.76,-1.86,1.86,2.01,1.77,-1.92,-1.90,-1.91
268.48,-3.76,-1.87,-3.74,-1.85,1.85,1.98,1.74,-1.91,-1.89,-1.89
271.16,-3.73,-1.86,-3.72,-1.84,1.84,1.94,1.71,-1.89,-1.88,-1.87
273.87,-3.68,-1.81,-3.69,-1.82,1.82,1.90,1.69,-1.86,-1.86,-1.87
276.61,-3.65,-1.81,-3.65,-1.81,1.81,1.87,1.67,-1.85,-1.85,-1.84
279.38,-3.62,-1.78,-3.62,-1.79,1.79,1.83,1.64,-1.83,-1.84,-1.84
282.17,-3.59,-1.77,-3.59,-1.77,1.77,1.80,1.62,-1.82,-1.82,-1.82
284.99,-3.56,-1.75,-3.57,-1.76,1.76,1.76,1.60,-1.80,-1.81,-1.81
287.84,-3.52,-1.72,-3.55,-1.75,1.75,1.73,1.59,-1.77,-1.79,-1.80
290.72,-3.50,-1.71,-3.53,-1.75,1.75,1.69,1.57,-1.75,-1.78,-1.79
293.63,-3.48,-1.71,-3.52,-1.75,1.75,1.66,1.55,-1.73,-1.77,-1.77
296.57,-3.47,-1.72,-3.51,-1.75,1.75,1.63,1.54,-1.72,-1.75,-1.75
299.53,-3.47,-1.72,-3.50,-1.76,1.76,1.60,1.52,-1.71,-1.74,-1.75
302.53,-3.48,-1.74,-3.49,-1.76,1.76,1.57,1.51,-1.72,-1.73,-1.74
305.55,-3.50,-1.78,-3.49,-1.77,1.77,1.53,1.49,-1.73,-1.72,-1.72
308.61,-3.51,-1.80,-3.48,-1.77,1.77,1.50,1.48,-1.74,-1.71,-1.71
311.69,-3.50,-1.80,-3.47,-1.77,1.77,1.47,1.47,-1.73,-1.70,-1.70
314.81,-3.49,-1.82,-3.46,-1.77,1.77,1.44,1.46,-1.72,-1.69,-1.67
317.96,-3.48,-1.80,-3.45,-1.77,1.77,1.41,1.45,-1.71,-1.68,-1.68
321.14,-3.45,-1.78,-3.43,-1.76,1.76,1.39,1.44,-1.69,-1.67,-1.67
324.35,-3.42,-1.75,-3.41,-1.74,1.74,1.36,1.43,-1.68,-1.66,-1.67
327.59,-3.38,-1.72,-3.38,-1.72,1.72,1.33,1.42,-1.66,-1.66,-1.66
330.87,-3.36,-1.70,-3.35,-1.70,1.70,1.30,1.41,-1.66,-1.65,-1.66
334.18,-3.32,-1.66,-3.32,-1.67,1.67,1.27,1.40,-1.65,-1.65,-1.66
337.52,-3.28,-1.63,-3.30,-1.65,1.65,1.25,1.40,-1.63,-1.65,-1.65
340.90,-3.26,-1.61,-3.27,-1.62,1.62,1.22,1.39,-1.64,-1.65,-1.65
344.30,-3.23,-1.58,-3.25,-1.60,1.60,1.20,1.38,-1.63,-1.65,-1.65
347.75,-3.20,-1.55,-3.23,-1.58,1.58,1.17,1.38,-1.62,-1.65,-1.65
351.23,-3.18,-1.53,-3.21,-1.56,1.56,1.14,1.37,-1.62,-1.65,-1.65
354.74,-3.16,-1.51,-3.19,-1.54,1.54,1.12,1.37,-1.62,-1.66,-1.65
358.28,-3.15,-1.48,-3.18,-1.52,1.52,1.09,1.36,-1.63,-1.66,-1.67
361.87,-3.16,-1.49,-3.17,-1.51,1.51,1.07,1.36,-1.65,-1.66,-1.67
365.49,-3.17,-1.50,-3.16,-1.49,1.49,1.05,1.35,-1.68,-1.67,-1.67
369.14,-3.17,-1.49,-3.15,-1.47,1.47,1.02,1.35,-1.70,-1.68,-1.68
372.83,-3.17,-1.49,-3.13,-1.45,1.45,1.00,1.35,-1.72,-1.68,-1.68
376.56,-3.15,-1.46,-3.12,-1.43,1.43,0.98,1.35,-1.72,-1.69,-1.69
380.33,-3.13,-1.43,-3.10,-1.41,1.41,0.95,1.34,-1.73,-1.70,-1.70
384.13,-3.10,-1.39,-3.08,-1.38,1.38,0.93,1.34,-1.72,-1.70,-1.71
387.97,-3.07,-1.35,-3.06,-1.35,1.35,0.91,1.34,-1.72,-1.71,-1.72
391.85,-3.04,-1.31,-3.04,-1.32,1.32,0.89,1.34,-1.72,-1.72,-1.73
395.77,-3.01,-1.29,-3.01,-1.29,1.29,0.87,1.34,-1.72,-1.72,-1.72
399.73,-2.97,-1.24,-2.99,-1.25,1.25,0.84,1.34,-1.72,-1.73,-1.73
403.72,-2.94,-1.20,-2.96,-1.22,1.22,0.82,1.33,-1.72,-1.74,-1.74
407.76,-2.91,-1.16,-2.93,-1.19,1.19,0.80,1.33,-1.72,-1.74,-1.75
411.84,-2.89,-1.15,-2.91,-1.16,1.16,0.78,1.33,-1.73,-1.75,-1.74
