frequency,raw,error,smoothed,error_smoothed,equalization,parametric_eq,fixed_band_eq,equalized_raw,equalized_smoothed,target
20.00,-16.98,-23.73,-16.98,-23.75,23.75,24.65,10.59,6.78,6.77,6.75
20.20,-16.88,-23.67,-16.88,-23.68,23.68,24.48,10.78,6.80,6.80,6.79
20.40,-16.77,-23.60,-16.77,-23.61,23.61,24.32,10.98,6.84,6.83,6.83
20.61,-16.67,-23.53,-16.67,-23.53,23.53,24.16,11.18,6.86,6.86,6.86
20.81,-16.56,-23.46,-16.56,-23.45,23.45,24.00,11.39,6.89,6.89,6.90
21.02,-16.46,-23.40,-16.46,-23.37,23.37,23.85,11.60,6.91,6.91,6.94
21.23,-16.35,-23.31,-16.35,-23.29,23.29,23.70,11.82,6.94,6.94,6.96
21.44,-16.25,-23.22,-16.24,-23.20,23.20,23.55,12.04,6.96,6.96,6.98
21.66,-16.14,-23.14,-16.13,-23.11,23.11,23.41,12.27,6.98,6.98,7.00
21.87,-16.03,-23.03,-16.03,-23.03,23.03,23.27,12.50,7.00,7.00,7.01
22.09,-15.92,-22.94,-15.92,-22.93,22.93,23.13,12.74,7.02,7.02,7.03
22.31,-15.81,-22.84,-15.81,-22.84,22.84,22.99,12.99,7.04,7.03,7.04
22.54,-15.70,-22.74,-15.70,-22.74,22.74,22.86,13.24,7.04,7.04,7.04
22.76,-15.59,-22.64,-15.59,-22.64,22.64,22.73,13.50,7.05,7.05,7.05
22.99,-15.48,-22.53,-15.47,-22.54,22.54,22.60,13.77,7.06,7.06,7.05
23.22,-15.36,-22.42,-15.36,-22.43,22.43,22.48,14.05,7.08,7.07,7.06
23.45,-15.25,-22.32,-15.25,-22.33,22.33,22.35,14.34,7.08,7.08,7.07
23.69,-15.14,-22.22,-15.14,-22.23,22.23,22.23,14.63,7.09,7.09,7.08
23.92,-15.03,-22.12,-15.02,-22.12,22.12,22.11,14.94,7.09,7.10,7.09
24.16,-14.91,-22.02,-14.91,-22.02,22.02,21.99,15.26,7.11,7.11,7.11
24.40,-14.80,-21.92,-14.79,-21.91,21.91,21.88,15.58,7.11,7.12,7.13
24.65,-14.68,-21.81,-14.68,-21.81,21.81,21.76,15.92,7.13,7.13,7.13
24.89,-14.57,-21.70,-14.57,-21.70,21.70,21.65,16.27,7.14,7.14,7.14
25.14,-14.45,-21.59,-14.45,-21.60,21.60,21.54,16.64,7.15,7.15,7.15
25.39,-14.34,-21.49,-14.33,-21.49,21.49,21.43,17.02,7.16,7.16,7.15
25.65,-14.22,-21.39,-14.22,-21.39,21.39,21.32,17.41,7.17,7.17,7.17
25.91,-14.10,-21.27,-14.10,-21.28,21.28,21.21,17.82,7.18,7.18,7.17
26.16,-13.99,-21.17,-13.99,-21.17,21.17,21.10,18.25,7.19,7.19,7.18
26.43,-13.87,-21.06,-13.87,-21.06,21.06,20.99,18.70,7.19,7.19,7.19
26.69,-13.75,-20.95,-13.75,-20.95,20.95,20.88,19.16,7.21,7.20,7.20
26.96,-13.64,-20.86,-13.63,-20.84,20.84,20.78,19.65,7.21,7.21,7.22
27.23,-13.52,-20.74,-13.52,-20.73,20.73,20.67,20.16,7.22,7.22,7.23
27.50,-13.40,-20.63,-13.40,-20.62,20.62,20.57,20.70,7.23,7.23,7.23
27.77,-13.28,-20.51,-13.28,-20.51,20.51,20.46,21.25,7.24,7.24,7.23
28.05,-13.16,-20.41,-13.16,-20.40,20.40,20.36,21.84,7.24,7.25,7.25
28.33,-13.04,-20.29,-13.03,-20.29,20.29,20.25,22.45,7.25,7.25,7.25
28.62,-12.91,-20.17,-12.91,-20.17,20.17,20.15,23.08,7.26,7.26,7.26
28.90,-12.79,-20.05,-12.79,-20.06,20.06,20.04,23.73,7.27,7.27,7.27
29.19,-12.67,-19.93,-12.67,-19.94,19.94,19.94,24.40,7.28,7.28,7.26
29.48,-12.55,-19.84,-12.55,-19.83,19.83,19.83,25.08,7.28,7.28,7.29
29.78,-12.42,-19.71,-12.42,-19.71,19.71,19.73,25.74,7.29,7.29,7.29
30.08,-12.30,-19.60,-12.30,-19.59,19.59,19.62,26.36,7.29,7.29,7.30
30.38,-12.17,-19.47,-12.17,-19.47,19.47,19.52,26.92,7.30,7.30,7.30
30.68,-12.05,-19.36,-12.05,-19.35,19.35,19.41,27.36,7.31,7.31,7.31
30.99,-11.93,-19.24,-11.92,-19.23,19.23,19.31,27.65,7.31,7.31,7.31
31.30,-11.80,-19.12,-11.79,-19.11,19.11,19.20,27.76,7.32,7.32,7.32
31.61,-11.67,-19.00,-11.67,-18.99,18.99,19.09,27.67,7.33,7.33,7.33
31.93,-11.54,-18.87,-11.54,-18.87,18.87,18.99,27.40,7.33,7.34,7.33
32.24,-11.41,-18.74,-11.41,-18.75,18.75,18.88,26.98,7.35,7.34,7.33
32.57,-11.28,-18.63,-11.28,-18.63,18.63,18.77,26.46,7.35,7.35,7.35
32.89,-11.15,-18.50,-11.15,-18.51,18.51,18.66,25.87,7.36,7.36,7.36
33.22,-11.02,-18.38,-11.02,-18.38,18.38,18.55,25.25,7.37,7.36,7.36
33.55,-10.90,-18.27,-10.89,-18.26,18.26,18.44,24.62,7.37,7.37,7.37
33.89,-10.77,-18.14,-10.76,-18.14,18.14,18.33,24.00,7.37,7.37,7.38
34.23,-10.64,-18.02,-10.64,-18.02,18.02,18.21,23.39,7.38,7.38,7.38
34.57,-10.51,-17.90,-10.51,-17.89,17.89,18.10,22.81,7.39,7.38,7.39
34.92,-10.38,-17.77,-10.38,-17.77,17.77,17.99,22.25,7.39,7.39,7.39
35.27,-10.26,-17.65,-10.26,-17.65,17.65,17.87,21.71,7.39,7.39,7.39
35.62,-10.14,-17.54,-10.14,-17.53,17.53,17.76,21.21,7.39,7.40,7.40
35.97,-10.02,-17.41,-10.01,-17.41,17.41,17.64,20.72,7.40,7.40,7.39
36.33,-9.90,-17.30,-9.89,-17.29,17.29,17.53,20.26,7.40,7.40,7.40
36.70,-9.77,-17.16,-9.77,-17.17,17.17,17.41,19.83,7.41,7.40,7.40
37.06,-9.65,-17.05,-9.66,-17.06,17.06,17.29,19.41,7.41,7.40,7.40
37.43,-9.54,-16.94,-9.54,-16.94,16.94,17.17,19.02,7.40,7.40,7.41
37.81,-9.43,-16.83,-9.43,-16.82,16.82,17.05,18.65,7.40,7.40,7.40
38.19,-9.32,-16.71,-9.32,-16.71,16.71,16.93,18.29,7.39,7.39,7.40
38.57,-9.21,-16.60,-9.21,-16.60,16.60,16.81,17.95,7.39,7.39,7.39
38.95,-9.10,-16.48,-9.10,-16.49,16.49,16.69,17.63,7.39,7.39,7.39
39.34,-9.00,-16.38,-8.99,-16.38,16.38,16.57,17.32,7.38,7.38,7.38
39.74,-8.89,-16.26,-8.89,-16.27,16.27,16.44,17.02,7.38,7.38,7.37
40.14,-8.79,-16.17,-8.78,-16.16,16.16,16.32,16.74,7.37,7.38,7.38
40.54,-8.69,-16.06,-8.68,-16.05,16.05,16.20,16.48,7.36,7.37,7.37
40.94,-8.58,-15.94,-8.58,-15.95,15.95,16.07,16.22,7.37,7.37,7.36
41.35,-8.48,-15.83,-8.48,-15.84,15.84,15.95,15.98,7.36,7.36,7.36
41.76,-8.38,-15.74,-8.38,-15.74,15.74,15.82,15.75,7.36,7.36,7.36
42.18,-8.28,-15.64,-8.28,-15.63,15.63,15.70,15.52,7.35,7.35,7.36
42.60,-8.17,-15.52,-8.18,-15.53,15.53,15.57,15.31,7.36,7.35,7.35
43.03,-8.07,-15.42,-8.08,-15.42,15.42,15.45,15.11,7.36,7.35,7.36
43.46,-7.98,-15.33,-7.98,-15.32,15.32,15.32,14.92,7.34,7.34,7.35
43.90,-7.88,-15.21,-7.88,-15.22,15.22,15.19,14.73,7.34,7.34,7.33
44.33,-7.79,-15.12,-7.78,-15.12,15.12,15.06,14.56,7.33,7.33,7.33
44.78,-7.69,-15.01,-7.68,-15.01,15.01,14.94,14.39,7.32,7.33,7.32
45.23,-7.59,-14.90,-7.58,-14.91,14.91,14.81,14.23,7.32,7.32,7.31
45.68,-7.49,-14.80,-7.49,-14.80,14.80,14.68,14.08,7.31,7.32,7.31
46.13,-7.39,-14.69,-7.39,-14.70,14.70,14.55,13.93,7.31,7.31,7.30
46.60,-7.29,-14.60,-7.28,-14.59,14.59,14.42,13.79,7.30,7.30,7.31
47.06,-7.19,-14.49,-7.18,-14.48,14.48,14.30,13.66,7.29,7.29,7.30
47.53,-7.08,-14.36,-7.08,-14.37,14.37,14.17,13.54,7.29,7.28,7.29
48.01,-6.98,-14.27,-6.98,-14.25,14.25,14.04,13.42,7.27,7.27,7.29
48.49,-6.87,-14.14,-6.87,-14.14,14.14,13.91,13.31,7.27,7.26,7.27
48.97,-6.77,-14.02,-6.77,-14.02,14.02,13.78,13.20,7.25,7.25,7.25
49.46,-6.66,-13.89,-6.66,-13.90,13.90,13.65,13.09,7.24,7.24,7.24
49.96,-6.56,-13.77,-6.56,-13.78,13.78,13.53,13.00,7.22,7.22,7.21
50.46,-6.45,-13.66,-6.45,-13.65,13.65,13.40,12.90,7.20,7.21,7.21
50.96,-6.34,-13.53,-6.34,-13.53,13.53,13.27,12.81,7.19,7.19,7.19
51.47,-6.23,-13.38,-6.23,-13.40,13.40,13.14,12.73,7.17,7.17,7.16
51.99,-6.12,-13.26,-6.11,-13.26,13.26,13.02,12.65,7.14,7.15,7.14
52.51,-6.01,-13.14,-6.00,-13.13,13.13,12.89,12.57,7.12,7.13,7.13
53.03,-5.89,-13.00,-5.89,-12.99,12.99,12.76,12.49,7.10,7.11,7.11
53.56,-5.78,-12.87,-5.77,-12.85,12.85,12.64,12.41,7.08,7.08,7.09
54.10,-5.66,-12.72,-5.65,-12.71,12.71,12.51,12.34,7.06,7.06,7.06
54.64,-5.54,-12.58,-5.53,-12.57,12.57,12.38,12.27,7.04,7.04,7.04
55.18,-5.42,-12.43,-5.42,-12.43,12.43,12.26,12.20,7.02,7.02,7.01
55.74,-5.30,-12.28,-5.30,-12.29,12.29,12.13,12.12,6.99,6.99,6.98
56.29,-5.18,-12.15,-5.18,-12.15,12.15,12.01,12.05,6.97,6.97,6.97
56.86,-5.06,-12.00,-5.06,-12.00,12.00,11.88,11.98,6.95,6.95,6.94
57.42,-4.94,-11.85,-4.94,-11.86,11.86,11.76,11.90,6.92,6.92,6.91
58.00,-4.83,-11.71,-4.83,-11.72,11.72,11.64,11.83,6.89,6.89,6.89
58.58,-4.72,-11.58,-4.72,-11.58,11.58,11.51,11.75,6.86,6.86,6.86
59.16,-4.61,-11.44,-4.61,-11.44,11.44,11.39,11.67,6.83,6.83,6.84
59.76,-4.50,-11.31,-4.50,-11.30,11.30,11.27,11.58,6.80,6.80,6.81
60.35,-4.40,-11.17,-4.40,-11.17,11.17,11.15,11.49,6.77,6.76,6.78
60.96,-4.30,-11.04,-4.31,-11.04,11.04,11.03,11.40,6.74,6.73,6.74
61.57,-4.20,-10.89,-4.22,-10.91,10.91,10.91,11.30,6.71,6.69,6.69
62.18,-4.12,-10.76,-4.13,-10.78,10.78,10.79,11.20,6.67,6.65,6.64
62.80,-4.04,-10.65,-4.05,-10.66,10.66,10.67,11.09,6.62,6.61,6.61
63.43,-3.97,-10.53,-3.97,-10.54,10.54,10.55,10.98,6.58,6.57,6.56
64.07,-3.90,-10.42,-3.90,-10.43,10.43,10.43,10.87,6.53,6.53,6.52
64.71,-3.83,-10.31,-3.82,-10.31,10.31,10.32,10.75,6.48,6.49,6.48
65.35,-3.76,-10.20,-3.76,-10.20,10.20,10.20,10.62,6.44,6.44,6.44
66.01,-3.69,-10.08,-3.69,-10.09,10.09,10.09,10.50,6.40,6.40,6.40
66.67,-3.63,-9.99,-3.63,-9.98,9.98,9.97,10.36,6.35,6.35,6.36
67.33,-3.57,-9.88,-3.56,-9.87,9.87,9.86,10.23,6.31,6.31,6.32
68.01,-3.51,-9.78,-3.50,-9.77,9.77,9.74,10.09,6.26,6.26,6.27
68.69,-3.44,-9.66,-3.44,-9.66,9.66,9.63,9.95,6.22,6.22,6.22
69.37,-3.38,-9.55,-3.38,-9.55,9.55,9.52,9.81,6.17,6.17,6.17
70.07,-3.31,-9.43,-3.31,-9.44,9.44,9.41,9.66,6.13,6.13,6.12
70.77,-3.25,-9.33,-3.24,-9.33,9.33,9.30,9.52,6.08,6.08,6.08
71.48,-3.18,-9.22,-3.18,-9.22,9.22,9.19,9.37,6.04,6.04,6.04
72.19,-3.11,-9.10,-3.11,-9.10,9.10,9.08,9.22,5.99,5.99,5.99
72.91,-3.05,-8.99,-3.03,-8.98,8.98,8.97,9.07,5.94,5.95,5.95
73.64,-2.98,-8.88,-2.96,-8.87,8.87,8.86,8.92,5.89,5.91,5.90
74.38,-2.89,-8.76,-2.88,-8.75,8.75,8.76,8.78,5.86,5.87,5.87
75.12,-2.81,-8.63,-2.80,-8.63,8.63,8.65,8.63,5.82,5.82,5.82
75.87,-2.72,-8.50,-2.72,-8.51,8.51,8.54,8.48,5.79,5.79,5.78
76.63,-2.64,-8.38,-2.64,-8.38,8.38,8.44,8.34,5.75,5.75,5.75
77.40,-2.56,-8.27,-2.55,-8.26,8.26,8.34,8.20,5.70,5.71,5.71
78.17,-2.48,-8.15,-2.47,-8.14,8.14,8.23,8.06,5.66,5.67,5.67
78.95,-2.39,-8.02,-2.38,-8.02,8.02,8.13,7.92,5.63,5.64,5.64
79.74,-2.29,-7.89,-2.30,-7.90,7.90,8.03,7.78,5.61,5.60,5.60
80.54,-2.21,-7.78,-2.21,-7.78,7.78,7.93,7.65,5.58,5.57,5.57
81.35,-2.13,-7.67,-2.13,-7.67,7.67,7.83,7.52,5.54,5.54,5.54
82.16,-2.05,-7.55,-2.05,-7.56,7.56,7.73,7.39,5.51,5.50,5.50
82.98,-1.97,-7.45,-1.97,-7.45,7.45,7.64,7.26,5.48,5.47,5.48
83.81,-1.90,-7.34,-1.90,-7.34,7.34,7.54,7.14,5.44,5.44,5.44
84.65,-1.83,-7.23,-1.83,-7.24,7.24,7.44,7.02,5.41,5.41,5.40
85.50,-1.76,-7.14,-1.76,-7.14,7.14,7.35,6.91,5.39,5.38,5.39
86.35,-1.70,-7.05,-1.70,-7.05,7.05,7.25,6.79,5.35,5.36,5.36
87.22,-1.64,-6.97,-1.64,-6.97,6.97,7.16,6.68,5.33,5.33,5.33
88.09,-1.57,-6.86,-1.58,-6.88,6.88,7.07,6.58,5.32,5.30,5.30
88.97,-1.51,-6.78,-1.53,-6.81,6.81,6.97,6.47,5.30,5.27,5.28
89.86,-1.47,-6.72,-1.49,-6.73,6.73,6.88,6.37,5.26,5.25,5.25
90.76,-1.43,-6.64,-1.44,-6.66,6.66,6.79,6.27,5.23,5.22,5.21
91.66,-1.40,-6.59,-1.40,-6.59,6.59,6.70,6.18,5.19,5.19,5.19
92.58,-1.37,-6.52,-1.35,-6.51,6.51,6.61,6.09,5.15,5.16,5.15
93.51,-1.33,-6.47,-1.31,-6.44,6.44,6.53,6.00,5.11,5.13,5.14
94.44,-1.29,-6.39,-1.27,-6.37,6.37,6.44,5.91,5.09,5.10,5.11
95.39,-1.25,-6.33,-1.24,-6.30,6.30,6.35,5.83,5.06,5.07,5.08
96.34,-1.22,-6.25,-1.20,-6.24,6.24,6.27,5.75,5.02,5.04,5.03
97.30,-1.18,-6.18,-1.17,-6.17,6.17,6.18,5.67,4.99,5.00,5.00
98.28,-1.14,-6.10,-1.14,-6.10,6.10,6.10,5.60,4.97,4.97,4.96
99.26,-1.09,-6.01,-1.11,-6.03,6.03,6.02,5.53,4.95,4.93,4.92
100.25,-1.04,-5.93,-1.07,-5.96,5.96,5.94,5.46,4.92,4.89,4.89
101.25,-1.01,-5.86,-1.04,-5.89,5.89,5.85,5.39,4.88,4.85,4.85
102.27,-1.00,-5.80,-1.01,-5.81,5.81,5.77,5.32,4.81,4.81,4.80
103.29,-0.99,-5.74,-0.97,-5.73,5.73,5.69,5.26,4.75,4.76,4.76
104.32,-0.97,-5.69,-0.94,-5.65,5.65,5.62,5.20,4.69,4.71,4.72
105.37,-0.94,-5.61,-0.91,-5.57,5.57,5.54,5.14,4.63,4.66,4.67
106.42,-0.90,-5.51,-0.88,-5.49,5.49,5.46,5.08,4.59,4.61,4.61
107.48,-0.86,-5.42,-0.85,-5.40,5.40,5.39,5.03,4.54,4.55,4.56
108.56,-0.82,-5.31,-0.82,-5.31,5.31,5.31,4.97,4.49,4.50,4.50
109.64,-0.78,-5.22,-0.78,-5.22,5.22,5.24,4.92,4.44,4.44,4.44
110.74,-0.75,-5.13,-0.75,-5.13,5.13,5.16,4.86,4.38,4.37,4.38
111.85,-0.72,-5.03,-0.72,-5.03,5.03,5.09,4.81,4.31,4.31,4.31
112.97,-0.69,-4.93,-0.69,-4.93,4.93,5.02,4.76,4.25,4.24,4.24
114.10,-0.66,-4.84,-0.67,-4.84,4.84,4.95,4.70,4.18,4.17,4.18
115.24,-0.63,-4.73,-0.64,-4.75,4.75,4.88,4.65,4.12,4.11,4.10
116.39,-0.61,-4.64,-0.62,-4.65,4.65,4.81,4.60,4.05,4.04,4.03
117.55,-0.59,-4.55,-0.60,-4.57,4.57,4.74,4.55,3.98,3.97,3.96
118.73,-0.57,-4.46,-0.58,-4.48,4.48,4.67,4.50,3.91,3.90,3.89
119.92,-0.55,-4.38,-0.56,-4.40,4.40,4.60,4.44,3.85,3.83,3.83
121.12,-0.55,-4.31,-0.55,-4.32,4.32,4.54,4.39,3.77,3.77,3.76
122.33,-0.54,-4.23,-0.53,-4.23,4.23,4.47,4.34,3.70,3.70,3.70
123.55,-0.53,-4.17,-0.51,-4.15,4.15,4.41,4.28,3.63,3.64,3.64
124.79,-0.51,-4.09,-0.50,-4.07,4.07,4.34,4.23,3.56,3.58,3.58
126.03,-0.50,-4.02,-0.47,-3.99,3.99,4.28,4.17,3.49,3.52,3.52
127.29,-0.48,-3.94,-0.45,-3.91,3.91,4.22,4.12,3.43,3.46,3.46
128.57,-0.45,-3.84,-0.43,-3.83,3.83,4.15,4.06,3.38,3.40,3.39
129.85,-0.41,-3.75,-0.40,-3.74,3.74,4.09,4.00,3.34,3.34,3.34
131.15,-0.37,-3.65,-0.37,-3.66,3.66,4.03,3.94,3.29,3.29,3.28
132.46,-0.35,-3.58,-0.34,-3.58,3.58,3.97,3.88,3.23,3.24,3.24
133.79,-0.32,-3.51,-0.32,-3.50,3.50,3.91,3.82,3.18,3.18,3.19
135.12,-0.28,-3.41,-0.29,-3.42,3.42,3.86,3.76,3.15,3.13,3.13
136.48,-0.26,-3.35,-0.27,-3.35,3.35,3.80,3.70,3.09,3.08,3.09
137.84,-0.22,-3.25,-0.24,-3.28,3.28,3.74,3.64,3.06,3.04,3.03
139.22,-0.21,-3.19,-0.22,-3.21,3.21,3.69,3.58,3.01,2.99,2.98
140.61,-0.20,-3.13,-0.21,-3.15,3.15,3.63,3.51,2.95,2.94,2.93
142.02,-0.19,-3.09,-0.19,-3.09,3.09,3.58,3.45,2.90,2.90,2.90
143.44,-0.19,-3.04,-0.19,-3.04,3.04,3.53,3.39,2.85,2.85,2.86
144.87,-0.20,-3.01,-0.18,-2.99,2.99,3.47,3.33,2.79,2.81,2.81
146.32,-0.20,-2.96,-0.18,-2.94,2.94,3.42,3.26,2.74,2.76,2.76
147.78,-0.20,-2.92,-0.19,-2.90,2.90,3.37,3.20,2.70,2.71,2.72
149.26,-0.19,-2.86,-0.19,-2.86,2.86,3.32,3.14,2.67,2.66,2.68
150.75,-0.20,-2.81,-0.21,-2.82,2.82,3.27,3.08,2.62,2.62,2.61
152.26,-0.21,-2.77,-0.22,-2.79,2.79,3.22,3.02,2.58,2.57,2.57
153.78,-0.23,-2.75,-0.24,-2.76,2.76,3.17,2.96,2.53,2.52,2.52
155.32,-0.25,-2.71,-0.26,-2.73,2.73,3.12,2.91,2.48,2.47,2.46
156.88,-0.29,-2.71,-0.29,-2.71,2.71,3.08,2.85,2.42,2.42,2.42
158.44,-0.31,-2.68,-0.32,-2.68,2.68,3.03,2.79,2.37,2.36,2.37
160.03,-0.35,-2.66,-0.35,-2.66,2.66,2.99,2.74,2.31,2.31,2.31
161.63,-0.37,-2.62,-0.38,-2.64,2.64,2.94,2.69,2.27,2.26,2.25
163.24,-0.40,-2.60,-0.41,-2.61,2.61,2.90,2.63,2.22,2.21,2.20
164.88,-0.45,-2.60,-0.44,-2.59,2.59,2.85,2.58,2.14,2.15,2.16
166.53,-0.47,-2.57,-0.46,-2.56,2.56,2.81,2.53,2.09,2.10,2.10
168.19,-0.50,-2.54,-0.49,-2.53,2.53,2.77,2.48,2.03,2.05,2.05
169.87,-0.53,-2.52,-0.51,-2.49,2.49,2.73,2.43,1.97,1.99,1.99
171.57,-0.55,-2.49,-0.52,-2.45,2.45,2.69,2.39,1.91,1.93,1.94
173.29,-0.56,-2.43,-0.53,-2.41,2.41,2.65,2.34,1.85,1.87,1.88
175.02,-0.56,-2.38,-0.54,-2.36,2.36,2.61,2.30,1.80,1.81,1.83
176.77,-0.55,-2.30,-0.55,-2.30,2.30,2.57,2.25,1.76,1.76,1.76
178.54,-0.55,-2.24,-0.55,-2.25,2.25,2.53,2.21,1.70,1.70,1.70
180.32,-0.54,-2.17,-0.55,-2.19,2.19,2.49,2.17,1.65,1.64,1.64
182.13,-0.54,-2.12,-0.55,-2.12,2.12,2.46,2.13,1.58,1.57,1.58
183.95,-0.54,-2.05,-0.54,-2.05,2.05,2.42,2.09,1.51,1.51,1.51
185.79,-0.54,-1.99,-0.53,-1.99,1.99,2.38,2.06,1.45,1.45,1.46
187.65,-0.54,-1.92,-0.53,-1.92,1.92,2.35,2.02,1.38,1.39,1.38
189.52,-0.53,-1.85,-0.52,-1.86,1.86,2.31,1.99,1.33,1.33,1.33
191.42,-0.52,-1.79,-0.52,-1.80,1.80,2.28,1.95,1.28,1.27,1.27
193.33,-0.52,-1.74,-0.52,-1.74,1.74,2.25,1.92,1.22,1.22,1.22
195.27,-0.52,-1.68,-0.53,-1.69,1.69,2.21,1.89,1.17,1.16,1.17
197.22,-0.53,-1.63,-0.54,-1.65,1.65,2.18,1.86,1.12,1.11,1.11
199.19,-0.54,-1.58,-0.55,-1.61,1.61,2.15,1.83,1.07,1.05,1.04
201.18,-0.55,-1.54,-0.57,-1.57,1.57,2.12,1.80,1.02,1.00,0.99
203.19,-0.58,-1.53,-0.59,-1.54,1.54,2.09,1.77,0.96,0.95,0.95
205.23,-0.61,-1.50,-0.62,-1.52,1.52,2.06,1.75,0.91,0.90,0.90
207.28,-0.64,-1.50,-0.65,-1.50,1.50,2.03,1.72,0.86,0.85,0.87
209.35,-0.68,-1.49,-0.68,-1.48,1.48,2.00,1.69,0.80,0.81,0.81
211.44,-0.71,-1.46,-0.71,-1.47,1.47,1.98,1.67,0.76,0.76,0.75
213.56,-0.74,-1.45,-0.74,-1.46,1.46,1.95,1.65,0.72,0.72,0.72
215.69,-0.78,-1.47,-0.77,-1.45,1.45,1.92,1.63,0.67,0.68,0.69
217.85,-0.82,-1.46,-0.79,-1.43,1.43,1.90,1.60,0.62,0.64,0.64
220.03,-0.83,-1.43,-0.82,-1.42,1.42,1.87,1.58,0.59,0.61,0.60
222.23,-0.85,-1.41,-0.84,-1.41,1.41,1.85,1.56,0.56,0.57,0.56
224.45,-0.87,-1.41,-0.85,-1.39,1.39,1.82,1.54,0.52,0.54,0.54
226.70,-0.89,-1.40,-0.86,-1.37,1.37,1.80,1.53,0.49,0.51,0.52
228.96,-0.89,-1.37,-0.87,-1.36,1.36,1.78,1.51,0.47,0.49,0.48
231.25,-0.88,-1.35,-0.87,-1.34,1.34,1.75,1.49,0.46,0.47,0.47
233.57,-0.87,-1.32,-0.88,-1.32,1.32,1.73,1.47,0.46,0.45,0.45
235.90,-0.86,-1.28,-0.87,-1.31,1.31,1.71,1.46,0.45,0.43,0.43
238.26,-0.86,-1.27,-0.87,-1.29,1.29,1.69,1.44,0.43,0.42,0.42
240.64,-0.86,-1.26,-0.87,-1.28,1.28,1.67,1.43,0.42,0.41,0.40
243.05,-0.86,-1.26,-0.87,-1.27,1.27,1.65,1.41,0.41,0.40,0.40
245.48,-0.86,-1.25,-0.86,-1.26,1.26,1.63,1.40,0.40,0.40,0.39
247.93,-0.86,-1.25,-0.86,-1.25,1.25,1.61,1.38,0.40,0.39,0.39
250.41,-0.86,-1.24,-0.86,-1.25,1.25,1.59,1.37,0.39,0.39,0.38
252.92,-0.86,-1.25,-0.86,-1.25,1.25,1.57,1.36,0.39,0.40,0.40
255.45,-0.86,-1.26,-0.86,-1.26,1.26,1.56,1.35,0.40,0.40,0.41
258.00,-0.86,-1.27,-0.86,-1.26,1.26,1.54,1.33,0.40,0.41,0.41
260.58,-0.86,-1.27,-0.86,-1.27,1.27,1.52,1.32,0.41,0.41,0.41
263.19,-0.86,-1.28,-0.86,-1.28,1.28,1.51,1.31,0.42,0.42,0.42
265.82,-0.86,-1.28,-0.86,-1.29,1.29,1.49,1.30,0.43,0.43,0.42
268.48,-0.86,-1.30,-0.86,-1.30,1.30,1.48,1.29,0.44,0.44,0.45
271.16,-0.86,-1.32,-0.86,-1.31,1.31,1.46,1.28,0.45,0.45,0.46
273.87,-0.86,-1.32,-0.86,-1.32,1.32,1.45,1.27,0.47,0.47,0.46
276.61,-0.86,-1.34,-0.86,-1.34,1.34,1.44,1.26,0.48,0.48,0.49
279.38,-0.86,-1.35,-0.86,-1.35,1.35,1.43,1.26,0.49,0.49,0.49
282.17,-0.86,-1.36,-0.86,-1.36,1.36,1.41,1.25,0.50,0.50,0.50
284.99,-0.86,-1.38,-0.86,-1.37,1.37,1.40,1.24,0.51,0.51,0.52
287.84,-0.86,-1.38,-0.86,-1.39,1.39,1.39,1.24,0.53,0.53,0.52
290.72,-0.86,-1.40,-0.86,-1.40,1.40,1.38,1.23,0.54,0.54,0.54
293.63,-0.86,-1.41,-0.86,-1.41,1.41,1.37,1.23,0.55,0.55,0.55
296.57,-0.86,-1.43,-0.86,-1.42,1.42,1.36,1.22,0.57,0.57,0.57
299.53,-0.86,-1.43,-0.86,-1.43,1.43,1.35,1.22,0.58,0.58,0.57
302.53,-0.86,-1.44,-0.86,-1.45,1.45,1.35,1.22,0.59,0.59,0.58
305.55,-0.86,-1.46,-0.86,-1.46,1.46,1.34,1.21,0.60,0.60,0.60
308.61,-0.86,-1.47,-0.86,-1.47,1.47,1.33,1.21,0.61,0.61,0.61
311.69,-0.86,-1.47,-0.86,-1.48,1.48,1.32,1.21,0.62,0.62,0.61
314.81,-0.86,-1.50,-0.86,-1.49,1.49,1.32,1.21,0.63,0.63,0.64
317.96,-0.86,-1.49,-0.86,-1.49,1.49,1.31,1.21,0.64,0.63,0.64
321.14,-0.86,-1.50,-0.86,-1.50,1.50,1.31,1.22,0.64,0.64,0.64
324.35,-0.86,-1.50,-0.86,-1.51,1.51,1.30,1.22,0.65,0.65,0.64
327.59,-0.86,-1.51,-0.86,-1.51,1.51,1.30,1.22,0.65,0.65,0.66
330.87,-0.86,-1.51,-0.85,-1.51,1.51,1.30,1.23,0.65,0.66,0.65
334.18,-0.86,-1.51,-0.85,-1.51,1.51,1.29,1.23,0.65,0.66,0.65
337.52,-0.86,-1.51,-0.85,-1.51,1.51,1.29,1.24,0.65,0.66,0.66
340.90,-0.86,-1.52,-0.84,-1.50,1.50,1.29,1.25,0.64,0.66,0.66
344.30,-0.86,-1.52,-0.84,-1.50,1.50,1.29,1.25,0.64,0.66,0.66
347.75,-0.85,-1.51,-0.84,-1.50,1.50,1.29,1.26,0.65,0.66,0.66
351.23,-0.84,-1.49,-0.84,-1.50,1.50,1.29,1.27,0.66,0.65,0.66
354.74,-0.84,-1.49,-0.85,-1.50,1.50,1.29,1.28,0.66,0.65,0.65
358.28,-0.84,-1.48,-0.86,-1.50,1.50,1.29,1.29,0.66,0.64,0.64
361.87,-0.85,-1.49,-0.87,-1.51,1.51,1.29,1.31,0.66,0.64,0.64
365.49,-0.87,-1.50,-0.88,-1.52,1.52,1.29,1.32,0.65,0.63,0.64
369.14,-0.89,-1.51,-0.90,-1.53,1.53,1.29,1.33,0.64,0.63,0.62
372.83,-0.91,-1.53,-0.93,-1.55,1.55,1.29,1.35,0.64,0.62,0.62
376.56,-0.95,-1.56,-0.95,-1.56,1.56,1.30,1.36,0.62,0.61,0.61
380.33,-0.98,-1.59,-0.98,-1.58,1.58,1.30,1.38,0.61,0.60,0.61
384.13,-1.01,-1.60,-1.01,-1.61,1.61,1.31,1.40,0.60,0.60,0.60
387.97,-1.05,-1.63,-1.04,-1.63,1.63,1.31,1.41,0.58,0.59,0.58
391.85,-1.08,-1.65,-1.07,-1.65,1.65,1.32,1.43,0.57,0.58,0.57
395.77,-1.11,-1.69,-1.10,-1.67,1.67,1.32,1.45,0.56,0.57,0.58
399.73,-1.14,-1.71,-1.12,-1.69,1.69,1.33,1.47,0.55,0.57,0.57
403.72,-1.16,-1.72,-1.15,-1.71,1.71,1.33,1.49,0.55,0.56,0.56
407.76,-1.18,-1.72,-1.17,-1.72,1.72,1.34,1.51,0.54,0.56,0.55
411.84,-1.20,-1.75,-1.18,-1.73,1.73,1.35,1.53,0.53,0.55,0.56
415.96,-1.21,-1.75,-1.20,-1.74,1.74,1.36,1.55,0.53,0.55,0.54
420.12,-1.21,-1.75,-1.20,-1.75,1.75,1.37,1.57,0.54,0.54,0.54
424.32,-1.20,-1.74,-1.21,-1.75,1.75,1.37,1.59,0.55,0.54,0.54
428.56,-1.19,-1.72,-1.21,-1.75,1.75,1.38,1.61,0.56,0.53,0.53
432.85,-1.20,-1.73,-1.21,-1.75,1.75,1.39,1.63,0.55,0.53,0.53
437.18,-1.21,-1.74,-1.21,-1.74,1.74,1.40,1.65,0.53,0.53,0.53
441.55,-1.21,-1.74,-1.20,-1.73,1.73,1.41,1.67,0.52,0.53,0.54
445.96,-1.20,-1.73,-1.19,-1.72,1.72,1.42,1.68,0.52,0.53,0.54
450.42,-1.19,-1.71,-1.17,-1.71,1.71,1.43,1.70,0.52,0.53,0.53
454.93,-1.17,-1.70,-1.16,-1.69,1.69,1.44,1.72,0.52,0.54,0.53
459.48,-1.15,-1.68,-1.13,-1.67,1.67,1.46,1.73,0.53,0.54,0.53
