frequency,raw,error,smoothed,error_smoothed,equalization,parametric_eq,fixed_band_eq,equalized_raw,equalized_smoothed,target
20.00,8.96,1.88,8.95,1.85,-1.85,-0.37,-0.45,7.11,7.10,7.08
20.20,8.96,1.84,8.95,1.82,-1.82,-0.37,-0.46,7.14,7.13,7.12
20.40,8.96,1.80,8.96,1.79,-1.79,-0.38,-0.47,7.17,7.16,7.16
20.61,8.96,1.77,8.96,1.77,-1.77,-0.39,-0.49,7.19,7.19,7.19
20.81,8.96,1.73,8.96,1.74,-1.74,-0.39,-0.51,7.22,7.22,7.23
21.02,8.96,1.69,8.97,1.72,-1.72,-0.40,-0.52,7.24,7.24,7.27
21.23,8.96,1.67,8.97,1.70,-1.70,-0.41,-0.54,7.26,7.27,7.29
21.44,8.96,1.65,8.97,1.68,-1.68,-0.41,-0.56,7.28,7.29,7.31
21.66,8.96,1.63,8.97,1.66,-1.66,-0.42,-0.57,7.30,7.31,7.33
21.87,8.96,1.62,8.97,1.64,-1.64,-0.43,-0.59,7.32,7.33,7.34
22.09,8.96,1.60,8.97,1.62,-1.62,-0.44,-0.61,7.34,7.35,7.36
22.31,8.96,1.59,8.97,1.60,-1.60,-0.44,-0.63,7.36,7.37,7.37
22.54,8.96,1.58,8.97,1.59,-1.59,-0.45,-0.65,7.37,7.38,7.38
22.76,8.96,1.57,8.97,1.58,-1.58,-0.46,-0.67,7.38,7.39,7.39
22.99,8.97,1.58,8.98,1.58,-1.58,-0.47,-0.69,7.39,7.40,7.39
23.22,8.97,1.57,8.97,1.57,-1.57,-0.48,-0.71,7.40,7.41,7.40
23.45,8.98,1.57,8.97,1.55,-1.55,-0.48,-0.74,7.43,7.42,7.41
23.69,8.98,1.56,8.96,1.54,-1.54,-0.49,-0.76,7.44,7.43,7.42
23.92,8.97,1.54,8.95,1.52,-1.52,-0.50,-0.78,7.45,7.43,7.43
24.16,8.96,1.51,8.94,1.50,-1.50,-0.51,-0.80,7.46,7.44,7.45
24.40,8.94,1.47,8.93,1.47,-1.47,-0.52,-0.83,7.47,7.45,7.47
24.65,8.92,1.46,8.91,1.45,-1.45,-0.53,-0.85,7.48,7.46,7.46
24.89,8.89,1.42,8.88,1.41,-1.41,-0.54,-0.88,7.48,7.47,7.47
25.14,8.86,1.38,8.86,1.38,-1.38,-0.54,-0.90,7.48,7.48,7.48
25.39,8.83,1.34,8.83,1.34,-1.34,-0.55,-0.93,7.49,7.49,7.49
25.65,8.80,1.29,8.80,1.30,-1.30,-0.56,-0.95,7.50,7.50,7.51
25.91,8.77,1.26,8.77,1.26,-1.26,-0.57,-0.98,7.51,7.51,7.51
26.16,8.74,1.22,8.74,1.22,-1.22,-0.58,-1.00,7.52,7.52,7.52
26.43,8.71,1.18,8.72,1.19,-1.19,-0.59,-1.03,7.53,7.53,7.53
26.69,8.69,1.15,8.70,1.16,-1.16,-0.60,-1.05,7.54,7.54,7.54
26.96,8.66,1.10,8.68,1.13,-1.13,-0.61,-1.08,7.53,7.55,7.56
27.23,8.64,1.07,8.66,1.10,-1.10,-0.62,-1.10,7.54,7.56,7.57
27.50,8.63,1.06,8.65,1.08,-1.08,-0.63,-1.13,7.55,7.57,7.57
27.77,8.62,1.05,8.65,1.07,-1.07,-0.64,-1.15,7.55,7.58,7.57
28.05,8.61,1.02,8.64,1.06,-1.06,-0.65,-1.17,7.56,7.59,7.59
28.33,8.62,1.03,8.64,1.04,-1.04,-0.66,-1.20,7.58,7.59,7.59
28.62,8.64,1.04,8.63,1.03,-1.03,-0.67,-1.22,7.61,7.60,7.60
28.90,8.65,1.04,8.63,1.02,-1.02,-0.68,-1.24,7.63,7.61,7.61
29.19,8.65,1.04,8.63,1.01,-1.01,-0.69,-1.26,7.64,7.62,7.61
29.48,8.65,1.01,8.62,1.00,-1.00,-0.70,-1.28,7.65,7.62,7.64
29.78,8.63,1.00,8.61,0.98,-0.98,-0.71,-1.29,7.65,7.63,7.63
30.08,8.62,0.98,8.60,0.96,-0.96,-0.73,-1.31,7.66,7.64,7.64
30.38,8.59,0.95,8.58,0.94,-0.94,-0.74,-1.32,7.65,7.64,7.64
30.68,8.57,0.91,8.56,0.91,-0.91,-0.75,-1.34,7.66,7.65,7.66
30.99,8.54,0.88,8.54,0.88,-0.88,-0.76,-1.35,7.66,7.66,7.66
31.30,8.51,0.85,8.51,0.85,-0.85,-0.77,-1.36,7.67,7.67,7.66
31.61,8.48,0.81,8.48,0.81,-0.81,-0.78,-1.37,7.67,7.67,7.67
31.93,8.45,0.77,8.45,0.77,-0.77,-0.79,-1.37,7.68,7.68,7.68
32.24,8.41,0.73,8.42,0.73,-0.73,-0.81,-1.38,7.68,7.69,7.68
32.57,8.39,0.69,8.39,0.70,-0.70,-0.82,-1.38,7.69,7.69,7.70
32.89,8.36,0.66,8.37,0.67,-0.67,-0.83,-1.38,7.69,7.70,7.70
33.22,8.33,0.62,8.35,0.64,-0.64,-0.84,-1.38,7.69,7.71,7.71
33.55,8.31,0.59,8.33,0.62,-0.62,-0.85,-1.38,7.70,7.72,7.72
33.89,8.30,0.57,8.32,0.59,-0.59,-0.87,-1.38,7.71,7.72,7.73
34.23,8.29,0.56,8.30,0.58,-0.58,-0.88,-1.38,7.72,7.73,7.73
34.57,8.28,0.54,8.29,0.56,-0.56,-0.89,-1.38,7.72,7.74,7.74
34.92,8.29,0.55,8.29,0.55,-0.55,-0.91,-1.37,7.75,7.74,7.74
35.27,8.30,0.55,8.28,0.54,-0.54,-0.92,-1.37,7.76,7.75,7.75
35.62,8.31,0.56,8.28,0.53,-0.53,-0.93,-1.36,7.78,7.75,7.75
35.97,8.30,0.55,8.28,0.53,-0.53,-0.94,-1.36,7.77,7.75,7.75
36.33,8.30,0.54,8.28,0.53,-0.53,-0.96,-1.35,7.77,7.75,7.76
36.70,8.29,0.54,8.29,0.53,-0.53,-0.97,-1.34,7.76,7.76,7.75
37.06,8.28,0.52,8.30,0.54,-0.54,-0.98,-1.34,7.74,7.76,7.76
37.43,8.29,0.53,8.31,0.55,-0.55,-1.00,-1.33,7.74,7.75,7.76
37.81,8.30,0.54,8.32,0.57,-0.57,-1.01,-1.32,7.73,7.75,7.76
38.19,8.32,0.56,8.33,0.58,-0.58,-1.03,-1.32,7.74,7.75,7.76
38.57,8.34,0.59,8.35,0.60,-0.60,-1.04,-1.31,7.74,7.75,7.75
38.95,8.36,0.61,8.37,0.62,-0.62,-1.05,-1.30,7.74,7.75,7.75
39.34,8.39,0.65,8.39,0.64,-0.64,-1.07,-1.30,7.75,7.75,7.74
39.74,8.42,0.68,8.41,0.67,-0.67,-1.08,-1.29,7.75,7.74,7.74
40.14,8.45,0.71,8.44,0.70,-0.70,-1.10,-1.29,7.75,7.74,7.74
40.54,8.48,0.74,8.47,0.73,-0.73,-1.11,-1.29,7.75,7.74,7.74
40.94,8.50,0.77,8.50,0.76,-0.76,-1.12,-1.28,7.74,7.74,7.73
41.35,8.52,0.79,8.53,0.79,-0.79,-1.14,-1.28,7.73,7.73,7.73
41.76,8.55,0.82,8.55,0.83,-0.83,-1.15,-1.28,7.73,7.73,7.73
42.18,8.58,0.85,8.58,0.86,-0.86,-1.17,-1.28,7.72,7.73,7.73
42.60,8.61,0.88,8.61,0.89,-0.89,-1.18,-1.28,7.72,7.72,7.73
43.03,8.64,0.91,8.64,0.92,-0.92,-1.20,-1.28,7.72,7.72,7.73
43.46,8.67,0.94,8.67,0.95,-0.95,-1.21,-1.28,7.72,7.72,7.73
43.90,8.70,0.99,8.70,0.98,-0.98,-1.23,-1.28,7.72,7.72,7.71
44.33,8.73,1.02,8.73,1.01,-1.01,-1.24,-1.29,7.72,7.71,7.71
44.78,8.75,1.05,8.75,1.04,-1.04,-1.26,-1.29,7.71,7.71,7.70
45.23,8.77,1.07,8.78,1.08,-1.08,-1.27,-1.30,7.69,7.71,7.70
45.68,8.80,1.10,8.81,1.11,-1.11,-1.29,-1.30,7.69,7.70,7.70
46.13,8.83,1.14,8.84,1.14,-1.14,-1.30,-1.31,7.69,7.70,7.69
46.60,8.86,1.16,8.86,1.17,-1.17,-1.32,-1.32,7.69,7.69,7.70
47.06,8.89,1.20,8.89,1.20,-1.20,-1.33,-1.33,7.69,7.69,7.69
47.53,8.91,1.23,8.91,1.23,-1.23,-1.35,-1.34,7.68,7.68,7.68
48.01,8.93,1.24,8.92,1.26,-1.26,-1.36,-1.35,7.67,7.67,7.69
48.49,8.95,1.28,8.94,1.28,-1.28,-1.38,-1.36,7.67,7.66,7.67
48.97,8.97,1.32,8.96,1.31,-1.31,-1.39,-1.38,7.66,7.65,7.65
49.46,8.98,1.34,8.97,1.33,-1.33,-1.41,-1.39,7.65,7.64,7.64
49.96,8.98,1.36,8.98,1.35,-1.35,-1.42,-1.40,7.63,7.63,7.62
50.46,8.97,1.35,8.99,1.37,-1.37,-1.44,-1.42,7.60,7.61,7.62
50.96,8.97,1.37,8.99,1.39,-1.39,-1.46,-1.43,7.58,7.60,7.60
51.47,8.98,1.41,8.99,1.40,-1.40,-1.47,-1.45,7.58,7.58,7.57
51.99,8.98,1.42,8.98,1.42,-1.42,-1.49,-1.46,7.56,7.56,7.56
52.51,8.98,1.43,8.98,1.43,-1.43,-1.50,-1.48,7.55,7.55,7.55
53.03,8.97,1.44,8.96,1.44,-1.44,-1.52,-1.50,7.54,7.53,7.53
53.56,8.96,1.44,8.95,1.44,-1.44,-1.53,-1.51,7.52,7.51,7.52
54.10,8.94,1.45,8.93,1.44,-1.44,-1.55,-1.53,7.50,7.49,7.49
54.64,8.92,1.44,8.91,1.44,-1.44,-1.56,-1.55,7.48,7.47,7.48
55.18,8.90,1.45,8.89,1.44,-1.44,-1.58,-1.56,7.46,7.45,7.45
55.74,8.87,1.45,8.86,1.43,-1.43,-1.60,-1.58,7.44,7.43,7.42
56.29,8.84,1.42,8.84,1.42,-1.42,-1.61,-1.60,7.42,7.41,7.42
56.86,8.81,1.42,8.81,1.42,-1.42,-1.63,-1.61,7.40,7.39,7.39
57.42,8.78,1.42,8.78,1.41,-1.41,-1.64,-1.63,7.37,7.37,7.36
58.00,8.74,1.40,8.75,1.40,-1.40,-1.66,-1.64,7.34,7.35,7.34
58.58,8.71,1.39,8.72,1.40,-1.40,-1.67,-1.66,7.31,7.32,7.32
59.16,8.69,1.39,8.70,1.40,-1.40,-1.69,-1.67,7.29,7.29,7.30
59.76,8.66,1.38,8.67,1.41,-1.41,-1.70,-1.68,7.25,7.26,7.28
60.35,8.64,1.39,8.66,1.42,-1.42,-1.72,-1.69,7.22,7.23,7.25
60.96,8.63,1.41,8.64,1.44,-1.44,-1.73,-1.70,7.19,7.20,7.22
61.57,8.61,1.44,8.63,1.46,-1.46,-1.75,-1.71,7.15,7.17,7.17
62.18,8.61,1.48,8.62,1.49,-1.49,-1.76,-1.72,7.12,7.14,7.13
62.80,8.61,1.50,8.62,1.52,-1.52,-1.78,-1.73,7.09,7.10,7.11
63.43,8.62,1.56,8.62,1.56,-1.56,-1.79,-1.73,7.06,7.07,7.06
64.07,8.63,1.61,8.63,1.60,-1.60,-1.81,-1.74,7.03,7.03,7.02
64.71,8.63,1.64,8.63,1.64,-1.64,-1.82,-1.74,6.99,6.99,6.99
65.35,8.63,1.68,8.64,1.69,-1.69,-1.84,-1.74,6.94,6.95,6.95
66.01,8.64,1.73,8.64,1.73,-1.73,-1.85,-1.75,6.91,6.91,6.91
66.67,8.65,1.77,8.64,1.77,-1.77,-1.87,-1.75,6.88,6.87,6.88
67.33,8.66,1.82,8.64,1.81,-1.81,-1.88,-1.75,6.85,6.83,6.84
68.01,8.66,1.86,8.64,1.85,-1.85,-1.90,-1.75,6.82,6.80,6.80
68.69,8.65,1.89,8.63,1.88,-1.88,-1.91,-1.75,6.77,6.76,6.76
69.37,8.64,1.92,8.62,1.90,-1.90,-1.93,-1.75,6.74,6.72,6.72
70.07,8.62,1.94,8.61,1.93,-1.93,-1.94,-1.75,6.69,6.68,6.68
70.77,8.60,1.96,8.59,1.95,-1.95,-1.96,-1.75,6.66,6.64,6.64
71.48,8.57,1.96,8.56,1.96,-1.96,-1.97,-1.74,6.61,6.60,6.61
72.19,8.54,1.98,8.54,1.98,-1.98,-1.98,-1.74,6.57,6.56,6.56
72.91,8.51,1.98,8.51,1.99,-1.99,-2.00,-1.74,6.53,6.53,6.53
73.64,8.48,1.99,8.49,1.99,-1.99,-2.01,-1.74,6.49,6.49,6.49
74.38,8.45,1.99,8.46,2.00,-2.00,-2.03,-1.74,6.45,6.46,6.46
75.12,8.42,2.00,8.43,2.01,-2.01,-2.04,-1.74,6.41,6.42,6.42
75.87,8.39,2.00,8.41,2.02,-2.02,-2.05,-1.74,6.38,6.39,6.39
76.63,8.36,2.00,8.39,2.03,-2.03,-2.07,-1.75,6.34,6.36,6.36
77.40,8.35,2.02,8.36,2.04,-2.04,-2.08,-1.75,6.32,6.33,6.33
78.17,8.33,2.03,8.35,2.05,-2.05,-2.09,-1.75,6.29,6.30,6.30
78.95,8.32,2.05,8.33,2.06,-2.06,-2.10,-1.76,6.27,6.27,6.27
79.74,8.31,2.06,8.31,2.07,-2.07,-2.12,-1.76,6.25,6.25,6.25
80.54,8.30,2.07,8.30,2.08,-2.08,-2.13,-1.77,6.23,6.22,6.23
81.35,8.29,2.09,8.28,2.08,-2.08,-2.14,-1.78,6.21,6.20,6.20
82.16,8.28,2.11,8.27,2.09,-2.09,-2.16,-1.79,6.19,6.17,6.17
82.98,8.27,2.11,8.25,2.10,-2.10,-2.17,-1.80,6.17,6.15,6.16
83.81,8.24,2.11,8.23,2.10,-2.10,-2.18,-1.81,6.14,6.13,6.13
84.65,8.22,2.12,8.21,2.10,-2.10,-2.19,-1.83,6.12,6.11,6.10
85.50,8.18,2.09,8.19,2.10,-2.10,-2.20,-1.84,6.08,6.09,6.09
86.35,8.16,2.09,8.16,2.09,-2.09,-2.21,-1.86,6.07,6.07,6.07
87.22,8.13,2.08,8.14,2.09,-2.09,-2.23,-1.88,6.04,6.05,6.05
88.09,8.11,2.08,8.11,2.08,-2.08,-2.24,-1.89,6.03,6.03,6.03
88.97,8.09,2.08,8.08,2.07,-2.07,-2.25,-1.92,6.02,6.01,6.01
89.86,8.05,2.05,8.05,2.06,-2.06,-2.26,-1.94,5.99,5.99,6.00
90.76,8.02,2.05,8.02,2.05,-2.05,-2.27,-1.96,5.97,5.97,5.97
91.66,7.98,2.03,7.99,2.04,-2.04,-2.28,-1.99,5.94,5.95,5.95
92.58,7.95,2.02,7.97,2.03,-2.03,-2.29,-2.01,5.92,5.93,5.93
93.51,7.91,1.99,7.94,2.02,-2.02,-2.30,-2.04,5.89,5.91,5.92
94.44,7.89,1.99,7.91,2.01,-2.01,-2.31,-2.07,5.88,5.89,5.90
95.39,7.87,1.99,7.88,2.01,-2.01,-2.32,-2.10,5.87,5.87,5.88
96.34,7.86,2.01,7.84,2.00,-2.00,-2.33,-2.13,5.87,5.85,5.85
97.30,7.83,2.01,7.81,1.98,-1.98,-2.34,-2.17,5.85,5.82,5.82
98.28,7.80,2.01,7.77,1.97,-1.97,-2.35,-2.20,5.83,5.80,5.79
99.26,7.76,1.99,7.73,1.97,-1.97,-2.36,-2.24,5.80,5.77,5.77
100.25,7.71,1.97,7.70,1.96,-1.96,-2.37,-2.27,5.75,5.74,5.74
101.25,7.66,1.95,7.67,1.96,-1.96,-2.38,-2.31,5.70,5.71,5.71
102.27,7.62,1.95,7.63,1.96,-1.96,-2.39,-2.35,5.67,5.68,5.67
103.29,7.57,1.93,7.60,1.96,-1.96,-2.40,-2.38,5.61,5.64,5.64
104.32,7.53,1.92,7.56,1.96,-1.96,-2.40,-2.42,5.57,5.60,5.61
105.37,7.50,1.93,7.52,1.96,-1.96,-2.41,-2.46,5.54,5.56,5.57
106.42,7.47,1.95,7.48,1.96,-1.96,-2.42,-2.50,5.51,5.52,5.52
107.48,7.45,1.96,7.45,1.97,-1.97,-2.43,-2.53,5.48,5.47,5.49
108.56,7.43,2.00,7.41,1.99,-1.99,-2.43,-2.57,5.44,5.43,5.43
109.64,7.40,2.02,7.38,2.01,-2.01,-2.44,-2.61,5.40,5.38,5.38
110.74,7.37,2.04,7.35,2.03,-2.03,-2.45,-2.64,5.34,5.32,5.33
111.85,7.33,2.05,7.32,2.05,-2.05,-2.46,-2.68,5.28,5.27,5.28
112.97,7.29,2.08,7.29,2.08,-2.08,-2.46,-2.71,5.21,5.21,5.21
114.10,7.25,2.09,7.26,2.11,-2.11,-2.47,-2.74,5.14,5.15,5.16
115.24,7.22,2.12,7.23,2.13,-2.13,-2.48,-2.77,5.09,5.10,5.10
116.39,7.19,2.16,7.20,2.16,-2.16,-2.48,-2.80,5.03,5.04,5.03
117.55,7.17,2.20,7.17,2.19,-2.19,-2.49,-2.82,4.98,4.98,4.97
118.73,7.15,2.24,7.14,2.22,-2.22,-2.49,-2.84,4.93,4.92,4.91
119.92,7.12,2.26,7.11,2.25,-2.25,-2.50,-2.86,4.87,4.86,4.86
121.12,7.09,2.29,7.09,2.28,-2.28,-2.50,-2.88,4.81,4.81,4.80
122.33,7.06,2.31,7.07,2.32,-2.32,-2.51,-2.89,4.74,4.75,4.75
123.55,7.04,2.34,7.05,2.36,-2.36,-2.51,-2.90,4.68,4.70,4.70
124.79,7.02,2.37,7.04,2.40,-2.40,-2.52,-2.91,4.62,4.64,4.65
126.03,7.00,2.40,7.03,2.44,-2.44,-2.52,-2.92,4.56,4.59,4.60
127.29,7.00,2.45,7.03,2.48,-2.48,-2.53,-2.92,4.52,4.54,4.55
128.57,7.00,2.51,7.02,2.52,-2.52,-2.53,-2.91,4.48,4.50,4.49
129.85,7.01,2.56,7.01,2.56,-2.56,-2.53,-2.91,4.45,4.45,4.45
131.15,7.02,2.62,7.00,2.60,-2.60,-2.54,-2.90,4.42,4.41,4.40
132.46,7.02,2.66,7.00,2.63,-2.63,-2.54,-2.89,4.39,4.36,4.36
133.79,7.02,2.70,6.99,2.67,-2.67,-2.54,-2.88,4.35,4.32,4.32
135.12,7.00,2.72,6.98,2.70,-2.70,-2.55,-2.86,4.30,4.28,4.28
136.48,6.98,2.74,6.97,2.73,-2.73,-2.55,-2.85,4.25,4.24,4.24
137.84,6.96,2.76,6.95,2.76,-2.76,-2.55,-2.83,4.21,4.20,4.20
139.22,6.93,2.78,6.93,2.78,-2.78,-2.56,-2.80,4.16,4.16,4.15
140.61,6.90,2.79,6.91,2.79,-2.79,-2.56,-2.78,4.11,4.12,4.11
142.02,6.87,2.78,6.89,2.80,-2.80,-2.56,-2.76,4.07,4.08,4.09
143.44,6.85,2.80,6.86,2.81,-2.81,-2.56,-2.73,4.04,4.05,4.05
144.87,6.83,2.82,6.83,2.82,-2.82,-2.56,-2.71,4.01,4.01,4.01
146.32,6.80,2.83,6.79,2.82,-2.82,-2.56,-2.68,3.98,3.97,3.97
147.78,6.77,2.83,6.76,2.83,-2.83,-2.56,-2.66,3.94,3.93,3.94
149.26,6.74,2.83,6.73,2.84,-2.84,-2.56,-2.63,3.90,3.89,3.91
150.75,6.71,2.86,6.70,2.85,-2.85,-2.56,-2.61,3.86,3.85,3.85
152.26,6.67,2.86,6.67,2.86,-2.86,-2.57,-2.58,3.81,3.81,3.81
153.78,6.63,2.85,6.65,2.88,-2.88,-2.57,-2.56,3.75,3.77,3.78
155.32,6.60,2.88,6.62,2.89,-2.89,-2.56,-2.53,3.71,3.73,3.72
156.88,6.57,2.88,6.59,2.91,-2.91,-2.56,-2.51,3.66,3.68,3.69
158.44,6.55,2.91,6.56,2.92,-2.92,-2.56,-2.49,3.63,3.64,3.64
160.03,6.53,2.94,6.53,2.94,-2.94,-2.56,-2.47,3.59,3.59,3.59
161.63,6.51,2.97,6.50,2.95,-2.95,-2.56,-2.45,3.56,3.55,3.54
163.24,6.49,2.99,6.48,2.97,-2.97,-2.56,-2.43,3.52,3.50,3.50
164.88,6.47,3.01,6.45,3.00,-3.00,-2.56,-2.42,3.48,3.45,3.46
166.53,6.43,3.02,6.42,3.02,-3.02,-2.56,-2.40,3.41,3.41,3.41
168.19,6.40,3.04,6.40,3.04,-3.04,-2.55,-2.39,3.36,3.36,3.36
169.87,6.36,3.05,6.38,3.07,-3.07,-2.55,-2.38,3.29,3.31,3.31
171.57,6.33,3.06,6.35,3.09,-3.09,-2.55,-2.37,3.24,3.26,3.27
173.29,6.30,3.09,6.32,3.12,-3.12,-2.55,-2.36,3.19,3.21,3.21
175.02,6.28,3.12,6.29,3.14,-3.14,-2.54,-2.36,3.14,3.15,3.16
176.77,6.26,3.16,6.26,3.16,-3.16,-2.54,-2.35,3.10,3.10,3.10
178.54,6.24,3.19,6.22,3.18,-3.18,-2.54,-2.35,3.06,3.05,3.05
180.32,6.20,3.21,6.19,3.20,-3.20,-2.53,-2.35,3.00,2.99,2.99
182.13,6.17,3.23,6.15,3.21,-3.21,-2.53,-2.35,2.96,2.93,2.94
183.95,6.12,3.24,6.11,3.23,-3.23,-2.53,-2.36,2.89,2.88,2.88
185.79,6.08,3.25,6.07,3.25,-3.25,-2.52,-2.36,2.83,2.82,2.83
187.65,6.03,3.27,6.03,3.26,-3.26,-2.52,-2.37,2.77,2.77,2.76
189.52,5.98,3.27,5.98,3.27,-3.27,-2.51,-2.38,2.71,2.71,2.71
191.42,5.92,3.26,5.94,3.28,-3.28,-2.51,-2.39,2.64,2.66,2.66
193.33,5.87,3.26,5.89,3.28,-3.28,-2.50,-2.40,2.59,2.61,2.61
195.27,5.82,3.26,5.83,3.28,-3.28,-2.50,-2.41,2.55,2.55,2.56
197.22,5.77,3.27,5.77,3.27,-3.27,-2.49,-2.43,2.50,2.50,2.50
199.19,5.72,3.27,5.72,3.26,-3.26,-2.48,-2.44,2.46,2.45,2.45
201.18,5.66,3.26,5.66,3.25,-3.25,-2.48,-2.46,2.41,2.41,2.40
203.19,5.62,3.25,5.60,3.24,-3.24,-2.47,-2.48,2.38,2.36,2.37
205.23,5.55,3.24,5.54,3.22,-3.22,-2.46,-2.49,2.33,2.31,2.31
207.28,5.48,3.19,5.47,3.20,-3.20,-2.46,-2.51,2.28,2.27,2.29
209.35,5.41,3.18,5.41,3.18,-3.18,-2.45,-2.53,2.23,2.23,2.23
211.44,5.33,3.15,5.34,3.16,-3.16,-2.44,-2.55,2.17,2.19,2.18
213.56,5.27,3.13,5.28,3.13,-3.13,-2.44,-2.57,2.14,2.15,2.14
215.69,5.21,3.09,5.21,3.10,-3.10,-2.43,-2.59,2.11,2.11,2.12
217.85,5.15,3.07,5.14,3.07,-3.07,-2.42,-2.61,2.08,2.08,2.08
220.03,5.08,3.04,5.07,3.03,-3.03,-2.41,-2.63,2.05,2.04,2.04
222.23,5.00,2.99,5.01,2.99,-2.99,-2.40,-2.65,2.01,2.01,2.01
224.45,4.92,2.93,4.94,2.95,-2.95,-2.39,-2.67,1.97,1.99,1.99
226.70,4.86,2.90,4.87,2.91,-2.91,-2.38,-2.68,1.95,1.96,1.96
228.96,4.81,2.88,4.81,2.87,-2.87,-2.37,-2.70,1.94,1.94,1.93
231.25,4.75,2.83,4.75,2.83,-2.83,-2.37,-2.71,1.92,1.92,1.92
233.57,4.69,2.79,4.69,2.79,-2.79,-2.36,-2.72,1.91,1.90,1.90
235.90,4.63,2.74,4.63,2.74,-2.74,-2.35,-2.73,1.89,1.89,1.89
238.26,4.57,2.69,4.57,2.70,-2.70,-2.34,-2.73,1.88,1.88,1.88
240.64,4.52,2.65,4.52,2.65,-2.65,-2.32,-2.73,1.87,1.87,1.87
243.05,4.46,2.59,4.47,2.60,-2.60,-2.31,-2.73,1.86,1.86,1.87
245.48,4.40,2.54,4.42,2.56,-2.56,-2.30,-2.73,1.84,1.86,1.86
247.93,4.36,2.50,4.37,2.51,-2.51,-2.29,-2.72,1.85,1.86,1.86
250.41,4.33,2.47,4.33,2.46,-2.46,-2.28,-2.72,1.87,1.86,1.86
252.92,4.29,2.42,4.28,2.41,-2.41,-2.27,-2.70,1.88,1.87,1.87
255.45,4.25,2.37,4.23,2.36,-2.36,-2.26,-2.69,1.89,1.88,1.88
258.00,4.20,2.31,4.19,2.31,-2.31,-2.24,-2.67,1.89,1.88,1.89
260.58,4.15,2.26,4.15,2.26,-2.26,-2.23,-2.65,1.89,1.89,1.89
263.19,4.11,2.21,4.11,2.21,-2.21,-2.22,-2.62,1.90,1.90,1.90
265.82,4.07,2.16,4.08,2.16,-2.16,-2.21,-2.60,1.91,1.91,1.91
268.48,4.04,2.11,4.04,2.12,-2.12,-2.19,-2.57,1.93,1.93,1.93
271.16,3.99,2.04,4.01,2.07,-2.07,-2.18,-2.54,1.92,1.94,1.95
273.87,3.96,2.01,3.97,2.02,-2.02,-2.17,-2.50,1.94,1.95,1.95
276.61,3.93,1.95,3.94,1.97,-1.97,-2.15,-2.47,1.96,1.97,1.98
279.38,3.90,1.92,3.90,1.92,-1.92,-2.14,-2.43,1.98,1.98,1.98
282.17,3.88,1.88,3.86,1.87,-1.87,-2.13,-2.39,2.01,1.99,2.00
284.99,3.85,1.84,3.83,1.83,-1.83,-2.11,-2.35,2.03,2.01,2.01
287.84,3.82,1.80,3.80,1.78,-1.78,-2.10,-2.31,2.04,2.02,2.02
290.72,3.78,1.75,3.77,1.74,-1.74,-2.08,-2.27,2.04,2.04,2.03
293.63,3.73,1.68,3.74,1.69,-1.69,-2.07,-2.23,2.04,2.05,2.05
296.57,3.69,1.62,3.71,1.65,-1.65,-2.05,-2.18,2.04,2.06,2.07
299.53,3.66,1.59,3.68,1.61,-1.61,-2.04,-2.14,2.05,2.07,2.07
302.53,3.63,1.55,3.65,1.56,-1.56,-2.02,-2.10,2.07,2.09,2.08
305.55,3.61,1.51,3.62,1.52,-1.52,-2.00,-2.05,2.09,2.10,2.10
308.61,3.59,1.48,3.58,1.47,-1.47,-1.99,-2.01,2.12,2.11,2.11
311.69,3.57,1.45,3.55,1.43,-1.43,-1.97,-1.97,2.14,2.12,2.12
314.81,3.54,1.39,3.51,1.38,-1.38,-1.96,-1.93,2.16,2.13,2.15
317.96,3.50,1.36,3.48,1.34,-1.34,-1.94,-1.89,2.16,2.14,2.14
321.14,3.46,1.31,3.45,1.30,-1.30,-1.92,-1.85,2.16,2.15,2.15
324.35,3.41,1.26,3.42,1.27,-1.27,-1.90,-1.81,2.14,2.15,2.15
327.59,3.37,1.21,3.39,1.23,-1.23,-1.89,-1.77,2.14,2.16,2.16
330.87,3.33,1.17,3.36,1.20,-1.20,-1.87,-1.73,2.13,2.16,2.16
334.18,3.30,1.14,3.33,1.16,-1.16,-1.85,-1.70,2.14,2.17,2.16
337.52,3.28,1.11,3.30,1.13,-1.13,-1.83,-1.66,2.15,2.17,2.17
340.90,3.27,1.10,3.26,1.09,-1.09,-1.82,-1.63,2.18,2.17,2.17
344.30,3.25,1.08,3.23,1.06,-1.06,-1.80,-1.59,2.19,2.17,2.17
347.75,3.22,1.05,3.20,1.03,-1.03,-1.78,-1.56,2.19,2.17,2.17
351.23,3.19,1.02,3.17,1.00,-1.00,-1.76,-1.53,2.19,2.16,2.17
354.74,3.15,0.98,3.14,0.97,-0.97,-1.74,-1.50,2.18,2.16,2.17
358.28,3.11,0.96,3.10,0.95,-0.95,-1.72,-1.47,2.16,2.16,2.15
361.87,3.07,0.92,3.08,0.92,-0.92,-1.70,-1.45,2.15,2.15,2.15
365.49,3.03,0.88,3.05,0.90,-0.90,-1.68,-1.42,2.13,2.15,2.15
369.14,3.00,0.86,3.01,0.88,-0.88,-1.66,-1.40,2.13,2.14,2.14
372.83,2.97,0.83,2.99,0.85,-0.85,-1.64,-1.37,2.12,2.13,2.14
376.56,2.95,0.82,2.96,0.83,-0.83,-1.62,-1.35,2.12,2.13,2.13
380.33,2.93,0.81,2.93,0.81,-0.81,-1.60,-1.33,2.12,2.12,2.12
384.13,2.90,0.79,2.90,0.79,-0.79,-1.58,-1.31,2.11,2.11,2.11
387.97,2.87,0.77,2.88,0.78,-0.78,-1.56,-1.29,2.09,2.11,2.10
391.85,2.85,0.76,2.86,0.76,-0.76,-1.54,-1.27,2.09,2.10,2.09
395.77,2.84,0.74,2.85,0.75,-0.75,-1.52,-1.26,2.09,2.09,2.10
399.73,2.83,0.74,2.83,0.74,-0.74,-1.50,-1.24,2.09,2.08,2.09
403.72,2.81,0.73,2.81,0.73,-0.73,-1.48,-1.22,2.08,2.08,2.08
407.76,2.79,0.72,2.79,0.72,-0.72,-1.45,-1.21,2.07,2.07,2.07
411.84,2.78,0.70,2.78,0.71,-0.71,-1.43,-1.19,2.07,2.07,2.08
415.96,2.76,0.70,2.76,0.69,-0.69,-1.41,-1.18,2.07,2.06,2.06
420.12,2.75,0.69,2.73,0.67,-0.67,-1.39,-1.17,2.08,2.06,2.06
424.32,2.73,0.67,2.71,0.65,-0.65,-1.37,-1.15,2.08,2.06,2.06
428.56,2.70,0.65,2.69,0.63,-0.63,-1.34,-1.14,2.07,2.06,2.05
432.85,2.67,0.62,2.66,0.61,-0.61,-1.32,-1.13,2.06,2.05,2.05
437.18,2.64,0.59,2.63,0.58,-0.58,-1.30,-1.11,2.06,2.05,2.05
441.55,2.61,0.55,2.61,0.55,-0.55,-1.28,-1.10,2.06,2.05,2.06
445.96,2.58,0.52,2.58,0.53,-0.53,-1.25,-1.08,2.05,2.05,2.06
450.42,2.55,0.50,2.56,0.50,-0.50,-1.23,-1.07,2.05,2.06,2.05
454.93,2.52,0.46,2.53,0.47,-0.47,-1.21,-1.05,2.05,2.06,2.06
459.48,2.50,0.44,2.51,0.45,-0.45,-1.18,-1.04,2.05,2.06,2.06
464.07,2.48,0.41,2.50,0.43,-0.43,-1.16,-1.02,2.05,2.07,2.07
468.71,2.46,0.38,2.48,0.41,-0.41,-1.14,-1.00,2.05,2.07,2.08
473.40,2.45,0.38,2.47,0.40,-0.40,-1.11,-0.98,2.06,2.07,2.07
478.13,2.45,0.37,2.46,0.38,-0.38,-1.09,-0.96,2.07,2.08,2.08
482.91,2.45,0.37,2.46,0.37,-0.37,-1.06,-0.94,2.08,2.09,2.08
487.74,2.46,0.37,2.46,0.37,-0.37,-1.04,-0.92,2.09,2.09,2.09
492.62,2.47,0.37,2.46,0.36,-0.36,-1.01,-0.90,2.11,2.09,2.10
497.55,2.47,0.37,2.46,0.36,-0.36,-0.99,-0.87,2.11,2.10,2.10
502.52,2.47,0.36,2.46,0.36,-0.36,-0.97,-0.84,2.12,2.10,2.11
507.55,2.47,0.36,2.46,0.36,-0.36,-0.94,-0.82,2.12,2.11,2.11
512.62,2.47,0.36,2.47,0.36,-0.36,-0.92,-0.79,2.12,2.11,2.11
517.75,2.47,0.35,2.47,0.36,-0.36,-0.89,-0.75,2.12,2.11,2.12
522.93,2.47,0.35,2.47,0.36,-0.36,-0.87,-0.72,2.12,2.12,2.12
528.16,2.47,0.35,2.47,0.36,-0.36,-0.84,-0.69,2.12,2.12,2.12
533.44,2.47,0.35,2.47,0.36,-0.36,-0.82,-0.65,2.11,2.12,2.12
538.77,2.47,0.35,2.47,0.36,-0.36,-0.79,-0.61,2.11,2.12,2.12
544.16,2.47,0.35,2.47,0.36,-0.36,-0.77,-0.57,2.11,2.12,2.12
