frequency,raw,error,smoothed,error_smoothed,equalization,parametric_eq,fixed_band_eq,equalized_raw,equalized_smoothed,target
20.00,5.47,-4.50,5.47,-4.50,4.50,4.31,1.79,9.98,9.97,9.97
20.20,5.48,-4.49,5.48,-4.49,4.49,4.31,1.84,9.97,9.97,9.97
20.40,5.49,-4.48,5.49,-4.48,4.48,4.32,1.90,9.97,9.97,9.97
20.61,5.50,-4.47,5.50,-4.46,4.46,4.33,1.95,9.97,9.97,9.97
20.81,5.51,-4.45,5.51,-4.45,4.45,4.33,2.01,9.96,9.97,9.96
21.02,5.53,-4.43,5.53,-4.44,4.44,4.33,2.07,9.97,9.96,9.96
21.23,5.53,-4.42,5.54,-4.42,4.42,4.34,2.14,9.96,9.96,9.96
21.44,5.54,-4.42,5.55,-4.41,4.41,4.34,2.20,9.95,9.96,9.97
21.66,5.55,-4.40,5.56,-4.39,4.39,4.34,2.27,9.95,9.95,9.96
21.87,5.56,-4.39,5.57,-4.38,4.38,4.34,2.34,9.94,9.95,9.95
22.09,5.58,-4.36,5.58,-4.36,4.36,4.33,2.41,9.95,9.94,9.94
22.31,5.59,-4.35,5.59,-4.35,4.35,4.33,2.48,9.94,9.94,9.94
22.54,5.60,-4.33,5.60,-4.33,4.33,4.33,2.56,9.94,9.93,9.93
22.76,5.61,-4.32,5.61,-4.32,4.32,4.32,2.63,9.93,9.93,9.93
22.99,5.62,-4.31,5.62,-4.30,4.30,4.31,2.71,9.92,9.92,9.93
23.22,5.63,-4.29,5.63,-4.29,4.29,4.31,2.79,9.92,9.92,9.92
23.45,5.64,-4.27,5.64,-4.27,4.27,4.30,2.87,9.91,9.91,9.92
23.69,5.65,-4.25,5.66,-4.25,4.25,4.29,2.96,9.90,9.91,9.91
23.92,5.67,-4.22,5.67,-4.24,4.24,4.28,3.04,9.91,9.90,9.89
24.16,5.68,-4.21,5.68,-4.22,4.22,4.27,3.13,9.90,9.90,9.89
24.40,5.68,-4.21,5.69,-4.21,4.21,4.26,3.22,9.89,9.89,9.89
24.65,5.69,-4.20,5.69,-4.19,4.19,4.24,3.30,9.89,9.89,9.89
24.89,5.70,-4.18,5.70,-4.18,4.18,4.23,3.40,9.88,9.88,9.89
25.14,5.71,-4.17,5.71,-4.17,4.17,4.22,3.49,9.88,9.88,9.89
25.39,5.72,-4.15,5.72,-4.16,4.16,4.20,3.58,9.88,9.88,9.87
25.65,5.73,-4.14,5.73,-4.14,4.14,4.18,3.67,9.88,9.88,9.87
25.91,5.74,-4.13,5.74,-4.13,4.13,4.17,3.76,9.88,9.88,9.87
26.16,5.75,-4.13,5.75,-4.12,4.12,4.15,3.85,9.88,9.88,9.88
26.43,5.76,-4.11,5.76,-4.11,4.11,4.13,3.94,9.87,9.88,9.88
26.69,5.77,-4.10,5.77,-4.10,4.10,4.12,4.03,9.87,9.87,9.87
26.96,5.78,-4.09,5.78,-4.09,4.09,4.10,4.12,9.87,9.87,9.87
27.23,5.79,-4.08,5.79,-4.08,4.08,4.08,4.20,9.87,9.87,9.87
27.50,5.80,-4.06,5.80,-4.06,4.06,4.06,4.29,9.87,9.87,9.87
27.77,5.81,-4.06,5.81,-4.05,4.05,4.04,4.37,9.86,9.86,9.87
28.05,5.82,-4.04,5.82,-4.04,4.04,4.02,4.44,9.86,9.86,9.86
28.33,5.83,-4.03,5.83,-4.02,4.02,4.00,4.52,9.86,9.86,9.86
28.62,5.84,-4.00,5.84,-4.01,4.01,3.98,4.58,9.85,9.85,9.85
28.90,5.85,-4.00,5.85,-3.99,3.99,3.96,4.64,9.85,9.84,9.85
29.19,5.86,-3.98,5.86,-3.98,3.98,3.94,4.70,9.84,9.84,9.84
29.48,5.86,-3.96,5.87,-3.96,3.96,3.92,4.75,9.83,9.83,9.83
29.78,5.88,-3.94,5.88,-3.95,3.95,3.89,4.80,9.83,9.83,9.82
30.08,5.88,-3.94,5.89,-3.93,3.93,3.87,4.83,9.82,9.82,9.82
30.38,5.89,-3.91,5.89,-3.92,3.92,3.85,4.86,9.81,9.81,9.81
30.68,5.90,-3.90,5.90,-3.91,3.91,3.83,4.88,9.81,9.81,9.80
30.99,5.91,-3.89,5.91,-3.89,3.89,3.81,4.90,9.81,9.80,9.80
31.30,5.91,-3.88,5.92,-3.88,3.88,3.79,4.90,9.80,9.80,9.80
31.61,5.92,-3.87,5.93,-3.87,3.87,3.77,4.90,9.79,9.80,9.79
31.93,5.93,-3.85,5.93,-3.86,3.86,3.74,4.89,9.79,9.79,9.79
32.24,5.94,-3.85,5.94,-3.84,3.84,3.72,4.87,9.79,9.79,9.79
32.57,5.95,-3.82,5.95,-3.83,3.83,3.70,4.85,9.78,9.78,9.78
32.89,5.96,-3.82,5.96,-3.82,3.82,3.68,4.81,9.78,9.78,9.78
33.22,5.97,-3.80,5.97,-3.80,3.80,3.66,4.77,9.78,9.77,9.78
33.55,5.97,-3.80,5.98,-3.79,3.79,3.64,4.73,9.76,9.76,9.77
33.89,5.98,-3.77,5.98,-3.77,3.77,3.62,4.67,9.75,9.75,9.76
34.23,5.99,-3.75,5.99,-3.75,3.75,3.59,4.62,9.74,9.74,9.74
34.57,6.00,-3.73,6.00,-3.73,3.73,3.57,4.55,9.73,9.73,9.73
34.92,6.01,-3.70,6.01,-3.70,3.70,3.55,4.49,9.72,9.71,9.71
35.27,6.01,-3.69,6.01,-3.68,3.68,3.53,4.41,9.69,9.69,9.70
35.62,6.02,-3.64,6.02,-3.65,3.65,3.51,4.34,9.67,9.67,9.67
35.97,6.02,-3.63,6.03,-3.61,3.61,3.49,4.26,9.64,9.64,9.65
36.33,6.03,-3.59,6.03,-3.58,3.58,3.47,4.18,9.61,9.61,9.62
36.70,6.03,-3.55,6.04,-3.54,3.54,3.44,4.10,9.58,9.58,9.58
37.06,6.04,-3.51,6.05,-3.51,3.51,3.42,4.02,9.55,9.55,9.56
37.43,6.05,-3.46,6.05,-3.47,3.47,3.40,3.93,9.52,9.52,9.52
37.81,6.06,-3.43,6.06,-3.43,3.43,3.38,3.85,9.49,9.49,9.49
38.19,6.06,-3.39,6.07,-3.39,3.39,3.35,3.76,9.45,9.46,9.45
38.57,6.07,-3.35,6.07,-3.35,3.35,3.33,3.68,9.43,9.42,9.42
38.95,6.08,-3.31,6.08,-3.31,3.31,3.31,3.60,9.40,9.39,9.39
39.34,6.08,-3.27,6.09,-3.27,3.27,3.28,3.51,9.36,9.36,9.35
39.74,6.09,-3.23,6.09,-3.24,3.24,3.26,3.43,9.33,9.33,9.32
40.14,6.10,-3.19,6.10,-3.20,3.20,3.23,3.35,9.30,9.30,9.29
40.54,6.09,-3.18,6.10,-3.16,3.16,3.20,3.27,9.26,9.27,9.27
40.94,6.11,-3.13,6.11,-3.13,3.13,3.18,3.19,9.24,9.24,9.24
41.35,6.11,-3.10,6.11,-3.10,3.10,3.15,3.11,9.21,9.21,9.21
41.76,6.12,-3.05,6.12,-3.07,3.07,3.12,3.04,9.19,9.18,9.18
42.18,6.12,-3.04,6.12,-3.03,3.03,3.09,2.97,9.16,9.16,9.16
42.60,6.12,-3.01,6.13,-3.00,3.00,3.05,2.89,9.13,9.13,9.13
43.03,6.13,-2.96,6.13,-2.97,2.97,3.02,2.83,9.11,9.10,9.10
43.46,6.13,-2.94,6.13,-2.94,2.94,2.99,2.76,9.07,9.08,9.07
43.90,6.14,-2.91,6.14,-2.91,2.91,2.95,2.69,9.05,9.05,9.05
44.33,6.14,-2.87,6.14,-2.88,2.88,2.91,2.63,9.02,9.02,9.01
44.78,6.14,-2.84,6.15,-2.84,2.84,2.87,2.57,8.98,8.99,8.99
45.23,6.14,-2.83,6.15,-2.80,2.80,2.83,2.51,8.95,8.95,8.97
45.68,6.15,-2.77,6.15,-2.77,2.77,2.79,2.45,8.92,8.92,8.93
46.13,6.16,-2.71,6.16,-2.73,2.73,2.75,2.40,8.89,8.88,8.88
46.60,6.16,-2.69,6.16,-2.68,2.68,2.70,2.35,8.85,8.84,8.85
47.06,6.16,-2.65,6.16,-2.64,2.64,2.66,2.29,8.80,8.80,8.81
47.53,6.16,-2.61,6.17,-2.59,2.59,2.61,2.24,8.76,8.76,8.77
48.01,6.17,-2.54,6.17,-2.54,2.54,2.56,2.20,8.72,8.71,8.71
48.49,6.17,-2.50,6.17,-2.50,2.50,2.51,2.15,8.67,8.67,8.67
48.97,6.17,-2.45,6.17,-2.44,2.44,2.46,2.11,8.62,8.62,8.62
49.46,6.18,-2.39,6.18,-2.39,2.39,2.41,2.07,8.58,8.57,8.58
49.96,6.18,-2.32,6.18,-2.34,2.34,2.35,2.02,8.52,8.52,8.51
50.46,6.17,-2.29,6.18,-2.29,2.29,2.30,1.98,8.46,8.47,8.46
50.96,6.18,-2.22,6.18,-2.23,2.23,2.24,1.95,8.41,8.42,8.41
51.47,6.18,-2.18,6.19,-2.18,2.18,2.19,1.91,8.36,8.36,8.36
51.99,6.19,-2.11,6.19,-2.12,2.12,2.13,1.87,8.32,8.31,8.31
52.51,6.19,-2.07,6.19,-2.07,2.07,2.07,1.84,8.26,8.26,8.26
53.03,6.19,-2.03,6.19,-2.01,2.01,2.01,1.80,8.21,8.21,8.22
53.56,6.19,-1.97,6.20,-1.96,1.96,1.95,1.77,8.15,8.15,8.16
54.10,6.20,-1.90,6.20,-1.91,1.91,1.89,1.73,8.11,8.10,8.10
54.64,6.19,-1.86,6.20,-1.85,1.85,1.83,1.70,8.05,8.05,8.05
55.18,6.20,-1.79,6.20,-1.80,1.80,1.77,1.67,8.01,8.00,7.99
55.74,6.20,-1.74,6.20,-1.75,1.75,1.70,1.63,7.96,7.95,7.94
56.29,6.20,-1.69,6.20,-1.70,1.70,1.64,1.60,7.90,7.90,7.90
56.86,6.20,-1.65,6.20,-1.65,1.65,1.58,1.57,7.85,7.85,7.85
57.42,6.20,-1.58,6.20,-1.60,1.60,1.52,1.53,7.80,7.80,7.79
58.00,6.20,-1.54,6.20,-1.54,1.54,1.45,1.50,7.74,7.75,7.74
58.58,6.21,-1.49,6.21,-1.48,1.48,1.39,1.46,7.70,7.69,7.70
59.16,6.20,-1.45,6.21,-1.43,1.43,1.33,1.43,7.63,7.63,7.65
59.76,6.20,-1.40,6.20,-1.37,1.37,1.27,1.39,7.57,7.57,7.60
60.35,6.20,-1.33,6.20,-1.31,1.31,1.20,1.35,7.51,7.51,7.53
60.96,6.20,-1.27,6.20,-1.25,1.25,1.14,1.31,7.45,7.45,7.47
61.57,6.20,-1.18,6.20,-1.19,1.19,1.08,1.27,7.39,7.39,7.39
62.18,6.20,-1.11,6.20,-1.12,1.12,1.02,1.23,7.33,7.32,7.31
62.80,6.20,-1.04,6.20,-1.06,1.06,0.95,1.19,7.26,7.26,7.24
63.43,6.20,-0.97,6.20,-0.99,0.99,0.89,1.14,7.20,7.19,7.17
64.07,6.19,-0.92,6.20,-0.93,0.93,0.83,1.09,7.12,7.13,7.11
64.71,6.19,-0.86,6.19,-0.86,0.86,0.77,1.05,7.06,7.06,7.05
65.35,6.18,-0.81,6.19,-0.80,0.80,0.71,1.00,6.98,6.99,6.99
66.01,6.19,-0.73,6.19,-0.74,0.74,0.65,0.94,6.93,6.93,6.93
66.67,6.19,-0.68,6.19,-0.67,0.67,0.59,0.89,6.87,6.86,6.87
67.33,6.18,-0.62,6.19,-0.61,0.61,0.52,0.84,6.79,6.80,6.80
68.01,6.18,-0.55,6.18,-0.55,0.55,0.46,0.78,6.73,6.73,6.73
68.69,6.18,-0.48,6.18,-0.49,0.49,0.40,0.73,6.67,6.67,6.67
69.37,6.17,-0.44,6.18,-0.43,0.43,0.35,0.67,6.60,6.60,6.61
70.07,6.17,-0.38,6.17,-0.36,0.36,0.29,0.61,6.54,6.54,6.55
70.77,6.17,-0.30,6.17,-0.30,0.30,0.23,0.55,6.47,6.47,6.48
71.48,6.17,-0.23,6.17,-0.23,0.23,0.17,0.49,6.41,6.40,6.40
72.19,6.16,-0.17,6.17,-0.17,0.17,0.11,0.42,6.33,6.33,6.33
72.91,6.16,-0.10,6.16,-0.10,0.10,0.05,0.36,6.27,6.27,6.27
73.64,6.15,-0.04,6.16,-0.04,0.04,-0.01,0.29,6.19,6.20,6.19
74.38,6.15,0.03,6.15,0.02,-0.02,-0.06,0.23,6.13,6.13,6.12
75.12,6.14,0.09,6.15,0.08,-0.08,-0.12,0.16,6.06,6.07,6.05
75.87,6.14,0.14,6.14,0.14,-0.14,-0.18,0.10,6.00,6.00,6.00
76.63,6.14,0.21,6.14,0.20,-0.20,-0.24,0.03,5.94,5.93,5.93
77.40,6.13,0.26,6.13,0.26,-0.26,-0.29,-0.04,5.87,5.87,5.87
78.17,6.13,0.34,6.13,0.32,-0.32,-0.35,-0.11,5.81,5.80,5.80
78.95,6.11,0.36,6.12,0.38,-0.38,-0.41,-0.18,5.73,5.74,5.75
79.74,6.11,0.43,6.12,0.44,-0.44,-0.47,-0.25,5.68,5.68,5.68
80.54,6.10,0.49,6.11,0.49,-0.49,-0.52,-0.32,5.61,5.62,5.62
81.35,6.10,0.55,6.10,0.55,-0.55,-0.58,-0.39,5.55,5.55,5.56
82.16,6.09,0.60,6.10,0.61,-0.61,-0.63,-0.47,5.49,5.49,5.50
82.98,6.09,0.67,6.09,0.66,-0.66,-0.69,-0.54,5.43,5.43,5.43
83.81,6.09,0.73,6.09,0.72,-0.72,-0.75,-0.62,5.37,5.36,5.36
84.65,6.08,0.79,6.08,0.78,-0.78,-0.80,-0.69,5.30,5.30,5.29
85.50,6.07,0.85,6.07,0.83,-0.83,-0.86,-0.77,5.24,5.24,5.23
86.35,6.07,0.90,6.06,0.89,-0.89,-0.92,-0.84,5.18,5.17,5.17
87.22,6.05,0.95,6.06,0.95,-0.95,-0.97,-0.92,5.10,5.11,5.11
88.09,6.05,1.01,6.05,1.01,-1.01,-1.03,-1.00,5.04,5.04,5.04
88.97,6.03,1.06,6.04,1.07,-1.07,-1.08,-1.08,4.96,4.97,4.97
89.86,6.03,1.13,6.03,1.13,-1.13,-1.14,-1.16,4.90,4.90,4.90
90.76,6.02,1.19,6.03,1.19,-1.19,-1.20,-1.24,4.83,4.83,4.83
91.66,6.01,1.25,6.02,1.25,-1.25,-1.25,-1.32,4.76,4.76,4.77
92.58,6.00,1.31,6.01,1.32,-1.32,-1.31,-1.40,4.69,4.69,4.69
93.51,6.00,1.38,6.00,1.38,-1.38,-1.37,-1.48,4.62,4.61,4.62
94.44,5.99,1.44,5.99,1.45,-1.45,-1.42,-1.57,4.54,4.54,4.55
95.39,5.98,1.51,5.98,1.52,-1.52,-1.48,-1.65,4.46,4.46,4.47
96.34,5.97,1.59,5.97,1.59,-1.59,-1.54,-1.74,4.39,4.38,4.39
97.30,5.95,1.64,5.96,1.66,-1.66,-1.59,-1.82,4.30,4.30,4.31
98.28,5.95,1.74,5.95,1.72,-1.72,-1.65,-1.91,4.23,4.23,4.22
99.26,5.93,1.80,5.94,1.79,-1.79,-1.71,-1.99,4.14,4.15,4.13
100.25,5.93,1.87,5.93,1.86,-1.86,-1.76,-2.08,4.07,4.07,4.06
101.25,5.91,1.93,5.92,1.92,-1.92,-1.82,-2.17,3.99,3.99,3.98
102.27,5.90,1.99,5.91,1.99,-1.99,-1.88,-2.25,3.91,3.92,3.91
103.29,5.89,2.06,5.89,2.05,-2.05,-1.94,-2.34,3.84,3.84,3.83
104.32,5.88,2.11,5.88,2.11,-2.11,-1.99,-2.43,3.77,3.77,3.77
105.37,5.87,2.18,5.87,2.18,-2.18,-2.05,-2.51,3.70,3.69,3.69
106.42,5.86,2.24,5.86,2.24,-2.24,-2.11,-2.60,3.63,3.62,3.63
107.48,5.84,2.30,5.85,2.29,-2.29,-2.17,-2.68,3.55,3.55,3.54
108.56,5.83,2.36,5.83,2.36,-2.36,-2.23,-2.76,3.48,3.48,3.48
109.64,5.81,2.40,5.82,2.41,-2.41,-2.28,-2.85,3.40,3.40,3.41
110.74,5.80,2.47,5.81,2.48,-2.48,-2.34,-2.92,3.33,3.33,3.34
111.85,5.79,2.53,5.79,2.54,-2.54,-2.40,-3.00,3.26,3.26,3.26
112.97,5.78,2.60,5.78,2.60,-2.60,-2.46,-3.08,3.18,3.18,3.19
114.10,5.77,2.66,5.76,2.66,-2.66,-2.52,-3.15,3.11,3.10,3.11
115.24,5.74,2.71,5.75,2.73,-2.73,-2.58,-3.22,3.02,3.02,3.03
116.39,5.73,2.80,5.74,2.79,-2.79,-2.64,-3.29,2.94,2.94,2.94
117.55,5.72,2.86,5.72,2.86,-2.86,-2.70,-3.35,2.87,2.86,2.86
118.73,5.70,2.93,5.71,2.92,-2.92,-2.76,-3.41,2.78,2.78,2.77
119.92,5.69,3.00,5.69,2.99,-2.99,-2.82,-3.46,2.70,2.70,2.69
121.12,5.67,3.05,5.68,3.06,-3.06,-2.88,-3.52,2.61,2.61,2.62
122.33,5.66,3.13,5.66,3.13,-3.13,-2.94,-3.56,2.53,2.53,2.53
123.55,5.64,3.19,5.64,3.20,-3.20,-3.00,-3.61,2.44,2.44,2.45
124.79,5.63,3.26,5.63,3.27,-3.27,-3.06,-3.65,2.36,2.36,2.37
126.03,5.60,3.32,5.61,3.34,-3.34,-3.12,-3.68,2.26,2.27,2.28
127.29,5.59,3.41,5.59,3.41,-3.41,-3.18,-3.71,2.19,2.19,2.19
128.57,5.58,3.48,5.58,3.47,-3.47,-3.24,-3.74,2.11,2.10,2.10
129.85,5.55,3.54,5.56,3.54,-3.54,-3.30,-3.76,2.02,2.02,2.01
131.15,5.54,3.61,5.54,3.60,-3.60,-3.36,-3.78,1.94,1.94,1.93
132.46,5.51,3.67,5.52,3.66,-3.66,-3.42,-3.80,1.85,1.86,1.85
133.79,5.50,3.73,5.50,3.72,-3.72,-3.48,-3.81,1.78,1.78,1.77
135.12,5.48,3.79,5.48,3.78,-3.78,-3.54,-3.82,1.70,1.71,1.69
136.48,5.46,3.83,5.46,3.83,-3.83,-3.60,-3.82,1.63,1.63,1.63
137.84,5.45,3.89,5.44,3.88,-3.88,-3.66,-3.83,1.57,1.56,1.56
139.22,5.42,3.94,5.42,3.93,-3.93,-3.72,-3.83,1.49,1.49,1.49
140.61,5.40,3.97,5.41,3.98,-3.98,-3.78,-3.83,1.43,1.43,1.43
142.02,5.38,4.02,5.38,4.02,-4.02,-3.84,-3.83,1.36,1.37,1.36
143.44,5.36,4.06,5.36,4.06,-4.06,-3.90,-3.83,1.30,1.30,1.30
144.87,5.34,4.10,5.34,4.10,-4.10,-3.96,-3.82,1.24,1.24,1.25
146.32,5.32,4.14,5.32,4.14,-4.14,-4.01,-3.82,1.19,1.18,1.19
147.78,5.30,4.18,5.30,4.17,-4.17,-4.07,-3.82,1.13,1.12,1.13
149.26,5.27,4.21,5.27,4.21,-4.21,-4.13,-3.82,1.06,1.06,1.07
150.75,5.24,4.24,5.25,4.25,-4.25,-4.19,-3.82,1.00,1.01,1.00
152.26,5.23,4.28,5.23,4.28,-4.28,-4.24,-3.82,0.95,0.95,0.95
153.78,5.20,4.32,5.20,4.32,-4.32,-4.30,-3.82,0.88,0.89,0.89
155.32,5.18,4.35,5.18,4.35,-4.35,-4.36,-3.82,0.83,0.83,0.83
156.88,5.15,4.38,5.16,4.39,-4.39,-4.41,-3.82,0.76,0.77,0.77
158.44,5.13,4.42,5.13,4.43,-4.43,-4.46,-3.83,0.70,0.70,0.71
160.03,5.11,4.47,5.11,4.47,-4.47,-4.52,-3.84,0.65,0.64,0.65
161.63,5.08,4.49,5.08,4.50,-4.50,-4.57,-3.85,0.58,0.58,0.59
163.24,5.06,4.55,5.06,4.54,-4.54,-4.62,-3.86,0.52,0.52,0.51
164.88,5.03,4.58,5.04,4.58,-4.58,-4.67,-3.88,0.45,0.46,0.46
166.53,5.01,4.62,5.01,4.62,-4.62,-4.72,-3.90,0.40,0.39,0.39
168.19,4.98,4.65,4.99,4.65,-4.65,-4.77,-3.92,0.33,0.33,0.34
169.87,4.96,4.69,4.96,4.69,-4.69,-4.82,-3.94,0.27,0.27,0.27
171.57,4.93,4.73,4.93,4.72,-4.72,-4.87,-3.97,0.21,0.21,0.20
173.29,4.91,4.77,4.91,4.76,-4.76,-4.91,-4.00,0.15,0.15,0.14
175.02,4.87,4.79,4.88,4.79,-4.79,-4.96,-4.03,0.08,0.09,0.08
176.77,4.85,4.83,4.85,4.82,-4.82,-5.00,-4.07,0.03,0.03,0.03
178.54,4.82,4.85,4.82,4.85,-4.85,-5.04,-4.11,-0.03,-0.03,-0.03
180.32,4.80,4.90,4.80,4.89,-4.89,-5.08,-4.15,-0.08,-0.09,-0.09
182.13,4.76,4.91,4.77,4.92,-4.92,-5.12,-4.20,-0.15,-0.15,-0.15
183.95,4.73,4.93,4.74,4.95,-4.95,-5.16,-4.25,-0.21,-0.21,-0.20
185.79,4.71,4.97,4.71,4.97,-4.97,-5.20,-4.30,-0.26,-0.26,-0.26
187.65,4.68,4.99,4.68,5.00,-5.00,-5.23,-4.36,-0.32,-0.32,-0.31
189.52,4.65,5.02,4.65,5.03,-5.03,-5.26,-4.42,-0.37,-0.38,-0.37
191.42,4.62,5.05,4.62,5.05,-5.05,-5.29,-4.48,-0.43,-0.43,-0.43
193.33,4.59,5.08,4.59,5.08,-5.08,-5.32,-4.54,-0.48,-0.48,-0.49
195.27,4.56,5.10,4.56,5.10,-5.10,-5.35,-4.61,-0.54,-0.54,-0.54
197.22,4.53,5.13,4.53,5.12,-5.12,-5.38,-4.68,-0.59,-0.59,-0.60
199.19,4.50,5.14,4.50,5.14,-5.14,-5.40,-4.75,-0.63,-0.64,-0.64
201.18,4.47,5.17,4.47,5.16,-5.16,-5.42,-4.82,-0.68,-0.68,-0.69
203.19,4.44,5.18,4.44,5.17,-5.17,-5.44,-4.89,-0.73,-0.73,-0.73
205.23,4.40,5.18,4.41,5.19,-5.19,-5.46,-4.97,-0.79,-0.78,-0.77
207.28,4.38,5.20,4.38,5.20,-5.20,-5.48,-5.05,-0.82,-0.82,-0.81
209.35,4.34,5.21,4.35,5.21,-5.21,-5.49,-5.12,-0.87,-0.87,-0.86
211.44,4.31,5.21,4.32,5.22,-5.22,-5.50,-5.20,-0.91,-0.91,-0.90
213.56,4.28,5.23,4.28,5.23,-5.23,-5.51,-5.28,-0.95,-0.95,-0.95
215.69,4.25,5.24,4.25,5.24,-5.24,-5.52,-5.35,-0.98,-0.98,-0.98
217.85,4.22,5.24,4.22,5.24,-5.24,-5.52,-5.43,-1.02,-1.02,-1.02
220.03,4.19,5.26,4.19,5.25,-5.25,-5.53,-5.50,-1.05,-1.06,-1.06
222.23,4.16,5.26,4.16,5.25,-5.25,-5.53,-5.57,-1.09,-1.09,-1.10
224.45,4.12,5.25,4.13,5.25,-5.25,-5.53,-5.64,-1.13,-1.13,-1.13
226.70,4.09,5.26,4.10,5.26,-5.26,-5.53,-5.70,-1.16,-1.16,-1.16
228.96,4.06,5.25,4.06,5.26,-5.26,-5.52,-5.76,-1.20,-1.19,-1.19
231.25,4.04,5.26,4.03,5.26,-5.26,-5.51,-5.81,-1.21,-1.22,-1.22
233.57,4.00,5.25,4.00,5.26,-5.26,-5.51,-5.86,-1.25,-1.25,-1.25
235.90,3.97,5.26,3.98,5.25,-5.25,-5.49,-5.91,-1.28,-1.28,-1.29
238.26,3.94,5.26,3.95,5.25,-5.25,-5.48,-5.94,-1.31,-1.30,-1.31
240.64,3.91,5.24,3.92,5.25,-5.25,-5.47,-5.97,-1.33,-1.33,-1.32
243.05,3.89,5.24,3.89,5.24,-5.24,-5.45,-5.99,-1.35,-1.35,-1.35
245.48,3.86,5.24,3.86,5.24,-5.24,-5.43,-6.01,-1.37,-1.37,-1.38
247.93,3.83,5.24,3.84,5.23,-5.23,-5.41,-6.01,-1.40,-1.39,-1.40
250.41,3.81,5.22,3.81,5.23,-5.23,-5.39,-6.01,-1.41,-1.41,-1.41
252.92,3.79,5.22,3.79,5.22,-5.22,-5.36,-6.00,-1.43,-1.43,-1.42
255.45,3.76,5.21,3.77,5.21,-5.21,-5.34,-5.98,-1.45,-1.45,-1.45
258.00,3.74,5.21,3.74,5.21,-5.21,-5.31,-5.96,-1.47,-1.47,-1.46
260.58,3.71,5.19,3.72,5.20,-5.20,-5.28,-5.93,-1.49,-1.48,-1.48
263.19,3.69,5.19,3.69,5.19,-5.19,-5.25,-5.89,-1.50,-1.50,-1.50
265.82,3.67,5.19,3.67,5.19,-5.19,-5.22,-5.84,-1.51,-1.51,-1.51
268.48,3.65,5.18,3.65,5.18,-5.18,-5.19,-5.78,-1.53,-1.53,-1.52
271.16,3.63,5.18,3.62,5.17,-5.17,-5.15,-5.72,-1.54,-1.55,-1.55
273.87,3.59,5.15,3.60,5.16,-5.16,-5.11,-5.66,-1.57,-1.56,-1.56
276.61,3.57,5.15,3.57,5.15,-5.15,-5.08,-5.59,-1.58,-1.58,-1.58
279.38,3.54,5.14,3.55,5.14,-5.14,-5.04,-5.51,-1.60,-1.59,-1.60
282.17,3.52,5.13,3.52,5.12,-5.12,-5.00,-5.44,-1.60,-1.60,-1.61
284.99,3.49,5.10,3.50,5.11,-5.11,-4.96,-5.35,-1.62,-1.61,-1.61
287.84,3.46,5.08,3.47,5.09,-5.09,-4.91,-5.27,-1.63,-1.63,-1.62
290.72,3.44,5.09,3.44,5.07,-5.07,-4.87,-5.19,-1.63,-1.64,-1.65
293.63,3.41,5.06,3.41,5.05,-5.05,-4.83,-5.10,-1.64,-1.65,-1.65
296.57,3.37,5.03,3.37,5.03,-5.03,-4.78,-5.01,-1.66,-1.66,-1.66
299.53,3.34,5.01,3.34,5.00,-5.00,-4.74,-4.92,-1.66,-1.67,-1.66
302.53,3.30,4.97,3.30,4.98,-4.98,-4.69,-4.84,-1.67,-1.67,-1.67
305.55,3.27,4.95,3.27,4.95,-4.95,-4.64,-4.75,-1.67,-1.68,-1.68
308.61,3.22,4.91,3.23,4.91,-4.91,-4.60,-4.66,-1.69,-1.69,-1.69
311.69,3.19,4.89,3.19,4.88,-4.88,-4.55,-4.58,-1.69,-1.69,-1.69
314.81,3.15,4.85,3.15,4.85,-4.85,-4.50,-4.49,-1.69,-1.70,-1.70
317.96,3.10,4.81,3.11,4.81,-4.81,-4.45,-4.41,-1.71,-1.70,-1.71
321.14,3.06,4.77,3.06,4.77,-4.77,-4.40,-4.33,-1.71,-1.71,-1.70
324.35,3.01,4.73,3.02,4.73,-4.73,-4.35,-4.25,-1.71,-1.71,-1.72
327.59,2.97,4.68,2.97,4.69,-4.69,-4.30,-4.18,-1.71,-1.71,-1.70
330.87,2.92,4.63,2.93,4.64,-4.64,-4.25,-4.10,-1.72,-1.72,-1.71
334.18,2.88,4.61,2.88,4.60,-4.60,-4.20,-4.03,-1.72,-1.72,-1.73
337.52,2.83,4.55,2.83,4.55,-4.55,-4.14,-3.96,-1.72,-1.72,-1.72
340.90,2.79,4.52,2.79,4.51,-4.51,-4.09,-3.90,-1.71,-1.72,-1.73
344.30,2.73,4.45,2.74,4.46,-4.46,-4.04,-3.84,-1.73,-1.72,-1.72
347.75,2.68,4.40,2.69,4.41,-4.41,-3.99,-3.78,-1.73,-1.72,-1.71
351.23,2.64,4.37,2.64,4.36,-4.36,-3.94,-3.72,-1.72,-1.72,-1.73
354.74,2.59,4.31,2.59,4.31,-4.31,-3.89,-3.66,-1.72,-1.72,-1.71
358.28,2.54,4.27,2.54,4.27,-4.27,-3.83,-3.61,-1.72,-1.72,-1.73
361.87,2.49,4.21,2.49,4.22,-4.22,-3.78,-3.56,-1.72,-1.72,-1.72
365.49,2.44,4.17,2.44,4.17,-4.17,-3.73,-3.52,-1.72,-1.72,-1.73
369.14,2.39,4.11,2.39,4.12,-4.12,-3.68,-3.47,-1.72,-1.72,-1.72
372.83,2.34,4.07,2.34,4.07,-4.07,-3.63,-3.43,-1.72,-1.72,-1.72
376.56,2.29,4.02,2.29,4.02,-4.02,-3.58,-3.40,-1.72,-1.73,-1.73
380.33,2.24,3.97,2.24,3.97,-3.97,-3.52,-3.36,-1.72,-1.73,-1.73
384.13,2.19,3.92,2.19,3.92,-3.92,-3.47,-3.33,-1.72,-1.73,-1.73
387.97,2.13,3.86,2.14,3.87,-3.87,-3.42,-3.30,-1.73,-1.73,-1.72
391.85,2.08,3.81,2.09,3.81,-3.81,-3.37,-3.27,-1.73,-1.73,-1.73
395.77,2.03,3.76,2.03,3.76,-3.76,-3.32,-3.24,-1.73,-1.73,-1.73
399.73,1.98,3.72,1.98,3.71,-3.71,-3.27,-3.22,-1.73,-1.73,-1.73
403.72,1.93,3.66,1.93,3.66,-3.66,-3.22,-3.20,-1.73,-1.73,-1.73
407.76,1.88,3.61,1.88,3.61,-3.61,-3.17,-3.18,-1.73,-1.73,-1.73
411.84,1.83,3.56,1.83,3.56,-3.56,-3.12,-3.16,-1.73,-1.73,-1.73
415.96,1.78,3.51,1.78,3.51,-3.51,-3.07,-3.14,-1.73,-1.73,-1.72
420.12,1.72,3.46,1.73,3.46,-3.46,-3.02,-3.13,-1.74,-1.73,-1.74
424.32,1.67,3.41,1.68,3.41,-3.41,-2.97,-3.11,-1.74,-1.73,-1.74
428.56,1.62,3.35,1.63,3.36,-3.36,-2.93,-3.10,-1.74,-1.74,-1.73
432.85,1.58,3.31,1.58,3.31,-3.31,-2.88,-3.08,-1.73,-1.74,-1.73
437.18,1.52,3.27,1.52,3.26,-3.26,-2.83,-3.07,-1.74,-1.74,-1.74
441.55,1.48,3.23,1.47,3.22,-3.22,-2.78,-3.05,-1.73,-1.74,-1.74
445.96,1.42,3.17,1.42,3.17,-3.17,-2.74,-3.04,-1.74,-1.74,-1.75
450.42,1.37,3.12,1.37,3.12,-3.12,-2.69,-3.02,-1.74,-1.74,-1.75
454.93,1.32,3.07,1.32,3.07,-3.07,-2.64,-3.01,-1.75,-1.75,-1.75
459.48,1.26,3.01,1.27,3.02,-3.02,-2.60,-2.99,-1.76,-1.75,-1.75
464.07,1.22,2.97,1.22,2.97,-2.97,-2.55,-2.97,-1.75,-1.75,-1.74
468.71,1.17,2.92,1.17,2.92,-2.92,-2.51,-2.96,-1.75,-1.75,-1.74
473.40,1.12,2.87,1.12,2.87,-2.87,-2.46,-2.93,-1.75,-1.75,-1.75
478.13,1.07,2.82,1.07,2.82,-2.82,-2.42,-2.91,-1.75,-1.75,-1.75
482.91,1.03,2.78,1.02,2.77,-2.77,-2.38,-2.89,-1.74,-1.75,-1.75
487.74,0.97,2.71,0.98,2.72,-2.72,-2.33,-2.86,-1.75,-1.74,-1.74
492.62,0.92,2.66,0.93,2.67,-2.67,-2.29,-2.83,-1.74,-1.74,-1.74
497.55,0.88,2.62,0.88,2.62,-2.62,-2.25,-2.80,-1.73,-1.74,-1.74
502.52,0.83,2.58,0.83,2.57,-2.57,-2.20,-2.77,-1.73,-1.74,-1.74
507.55,0.77,2.51,0.78,2.51,-2.51,-2.16,-2.73,-1.74,-1.73,-1.73
512.62,0.73,2.47,0.73,2.46,-2.46,-2.12,-2.69,-1.73,-1.73,-1.73
517.75,0.69,2.41,0.69,2.41,-2.41,-2.08,-2.65,-1.72,-1.73,-1.72
522.93,0.63,2.35,0.64,2.36,-2.36,-2.04,-2.61,-1.73,-1.72,-1.72
528.16,0.59,2.31,0.59,2.31,-2.31,-2.00,-2.56,-1.71,-1.72,-1.72
