frequency,raw,error,smoothed,error_smoothed,equalization,parametric_eq,fixed_band_eq,equalized_raw,equalized_smoothed,target
20.00,-13.65,-19.67,-13.65,-19.67,19.66,19.22,5.66,6.00,6.00,6.01
20.20,-13.41,-19.43,-13.41,-19.43,19.42,19.01,5.80,6.01,6.01,6.01
20.40,-13.17,-19.18,-13.17,-19.19,19.19,18.79,5.94,6.02,6.02,6.01
20.61,-12.94,-18.95,-12.93,-18.95,18.95,18.56,6.08,6.02,6.02,6.01
20.81,-12.69,-18.70,-12.70,-18.71,18.72,18.33,6.23,6.03,6.02,6.01
21.02,-12.47,-18.49,-12.47,-18.48,18.48,18.10,6.38,6.01,6.01,6.01
21.23,-12.24,-18.24,-12.25,-18.24,18.25,17.86,6.53,6.00,6.00,5.99
21.44,-12.03,-18.01,-12.03,-18.01,18.01,17.62,6.69,5.98,5.98,5.98
21.66,-11.82,-17.78,-11.81,-17.77,17.77,17.37,6.85,5.96,5.96,5.96
21.87,-11.59,-17.53,-11.59,-17.54,17.54,17.13,7.02,5.95,5.94,5.94
22.09,-11.37,-17.30,-11.37,-17.30,17.30,16.89,7.19,5.93,5.93,5.93
22.31,-11.15,-17.05,-11.15,-17.06,17.05,16.64,7.37,5.91,5.90,5.90
22.54,-10.94,-16.82,-10.93,-16.82,16.81,16.40,7.55,5.88,5.88,5.88
22.76,-10.71,-16.57,-10.71,-16.57,16.57,16.16,7.74,5.86,5.86,5.86
22.99,-10.49,-16.33,-10.49,-16.32,16.33,15.92,7.93,5.83,5.83,5.83
23.22,-10.27,-16.08,-10.27,-16.08,16.08,15.68,8.13,5.81,5.81,5.80
23.45,-10.05,-15.82,-10.06,-15.83,15.84,15.45,8.33,5.79,5.79,5.77
23.69,-9.85,-15.61,-9.84,-15.60,15.61,15.21,8.54,5.76,5.77,5.76
23.92,-9.62,-15.36,-9.62,-15.37,15.37,14.98,8.75,5.75,5.75,5.74
24.16,-9.41,-15.14,-9.41,-15.14,15.14,14.75,8.96,5.73,5.72,5.73
24.40,-9.20,-14.91,-9.20,-14.91,14.91,14.53,9.19,5.71,5.71,5.71
24.65,-8.99,-14.69,-8.99,-14.68,14.68,14.30,9.42,5.69,5.69,5.69
24.89,-8.77,-14.44,-8.77,-14.45,14.45,14.08,9.65,5.69,5.68,5.67
25.14,-8.56,-14.22,-8.56,-14.23,14.23,13.86,9.89,5.67,5.67,5.66
25.39,-8.36,-14.00,-8.36,-14.00,14.00,13.65,10.13,5.64,5.65,5.64
25.65,-8.15,-13.79,-8.15,-13.78,13.78,13.43,10.38,5.62,5.62,5.63
25.91,-7.95,-13.55,-7.94,-13.56,13.55,13.22,10.63,5.60,5.60,5.60
26.16,-7.73,-13.32,-7.73,-13.33,13.32,13.01,10.88,5.59,5.59,5.59
26.43,-7.53,-13.11,-7.52,-13.10,13.10,12.81,11.14,5.57,5.57,5.58
26.69,-7.31,-12.87,-7.31,-12.87,12.87,12.60,11.40,5.56,5.56,5.55
26.96,-7.09,-12.64,-7.10,-12.64,12.65,12.40,11.67,5.55,5.55,5.54
27.23,-6.88,-12.42,-6.89,-12.42,12.43,12.20,11.93,5.54,5.54,5.53
27.50,-6.68,-12.21,-6.68,-12.20,12.21,12.00,12.19,5.52,5.52,5.52
27.77,-6.48,-11.98,-6.48,-11.99,11.99,11.81,12.45,5.51,5.50,5.50
28.05,-6.28,-11.77,-6.28,-11.77,11.77,11.62,12.70,5.48,5.48,5.49
28.33,-6.08,-11.55,-6.08,-11.56,11.55,11.43,12.94,5.47,5.47,5.47
28.62,-5.88,-11.34,-5.88,-11.34,11.33,11.24,13.17,5.45,5.45,5.46
28.90,-5.67,-11.12,-5.67,-11.11,11.12,11.05,13.39,5.44,5.44,5.44
29.19,-5.47,-10.90,-5.46,-10.89,10.90,10.87,13.59,5.43,5.44,5.42
29.48,-5.25,-10.67,-5.26,-10.68,10.69,10.68,13.77,5.44,5.43,5.42
29.78,-5.06,-10.48,-5.06,-10.48,10.48,10.50,13.93,5.42,5.42,5.41
30.08,-4.88,-10.28,-4.87,-10.28,10.28,10.32,14.06,5.40,5.40,5.40
30.38,-4.69,-10.08,-4.69,-10.08,10.08,10.15,14.15,5.38,5.38,5.38
30.68,-4.51,-9.89,-4.51,-9.88,9.88,9.97,14.21,5.36,5.36,5.37
30.99,-4.33,-9.68,-4.34,-9.69,9.68,9.80,14.24,5.34,5.34,5.34
31.30,-4.16,-9.50,-4.16,-9.50,9.48,9.63,14.23,5.32,5.33,5.33
31.61,-3.98,-9.31,-3.99,-9.30,9.30,9.46,14.18,5.31,5.31,5.32
31.93,-3.81,-9.12,-3.81,-9.11,9.11,9.29,14.09,5.30,5.30,5.30
32.24,-3.65,-8.92,-3.65,-8.93,8.94,9.12,13.97,5.29,5.29,5.27
32.57,-3.49,-8.75,-3.50,-8.76,8.78,8.95,13.81,5.28,5.28,5.25
32.89,-3.37,-8.61,-3.37,-8.61,8.62,8.79,13.63,5.25,5.25,5.24
33.22,-3.25,-8.47,-3.25,-8.47,8.48,8.62,13.42,5.23,5.22,5.21
33.55,-3.15,-8.35,-3.15,-8.35,8.34,8.46,13.19,5.19,5.19,5.20
33.89,-3.05,-8.23,-3.05,-8.22,8.22,8.30,12.94,5.16,5.17,5.17
34.23,-2.95,-8.11,-2.95,-8.10,8.10,8.14,12.67,5.15,5.15,5.15
34.57,-2.84,-7.98,-2.85,-7.98,7.99,7.98,12.39,5.15,5.14,5.13
34.92,-2.76,-7.88,-2.76,-7.87,7.88,7.82,12.10,5.12,5.12,5.11
35.27,-2.67,-7.77,-2.67,-7.77,7.78,7.67,11.81,5.10,5.10,5.09
35.62,-2.59,-7.67,-2.59,-7.66,7.67,7.51,11.51,5.07,5.08,5.07
35.97,-2.50,-7.55,-2.51,-7.56,7.55,7.36,11.21,5.05,5.05,5.05
36.33,-2.41,-7.44,-2.41,-7.45,7.43,7.20,10.91,5.02,5.01,5.03
36.70,-2.32,-7.34,-2.31,-7.32,7.30,7.05,10.61,4.98,4.99,5.01
37.06,-2.19,-7.18,-2.19,-7.19,7.16,6.90,10.31,4.97,4.97,4.99
37.43,-2.06,-7.03,-2.06,-7.03,7.02,6.75,10.01,4.96,4.96,4.97
37.81,-1.92,-6.88,-1.92,-6.87,6.88,6.60,9.71,4.96,4.96,4.95
38.19,-1.78,-6.71,-1.79,-6.72,6.74,6.45,9.42,4.96,4.96,4.92
38.57,-1.66,-6.58,-1.67,-6.57,6.61,6.30,9.14,4.95,4.95,4.91
38.95,-1.56,-6.44,-1.57,-6.45,6.49,6.15,8.85,4.93,4.92,4.88
39.34,-1.48,-6.35,-1.48,-6.35,6.37,6.01,8.57,4.89,4.89,4.86
39.74,-1.41,-6.26,-1.41,-6.26,6.26,5.86,8.30,4.84,4.85,4.84
40.14,-1.33,-6.17,-1.33,-6.16,6.14,5.72,8.03,4.81,4.81,4.83
40.54,-1.24,-6.06,-1.24,-6.05,6.02,5.57,7.76,4.78,4.78,4.81
40.94,-1.13,-5.93,-1.13,-5.93,5.89,5.43,7.50,4.76,4.76,4.79
41.35,-1.01,-5.78,-1.01,-5.78,5.75,5.29,7.24,4.74,4.75,4.76
41.76,-0.86,-5.62,-0.86,-5.62,5.61,5.15,6.99,4.75,4.75,4.76
42.18,-0.70,-5.45,-0.70,-5.44,5.45,5.00,6.74,4.75,4.75,4.74
42.60,-0.53,-5.25,-0.54,-5.26,5.29,4.86,6.50,4.76,4.76,4.72
43.03,-0.38,-5.10,-0.39,-5.09,5.13,4.72,6.26,4.75,4.74,4.71
43.46,-0.25,-4.94,-0.26,-4.94,4.96,4.59,6.02,4.71,4.71,4.68
43.90,-0.13,-4.80,-0.14,-4.80,4.79,4.45,5.79,4.66,4.66,4.66
44.33,-0.02,-4.66,-0.01,-4.65,4.62,4.31,5.56,4.60,4.61,4.64
44.78,0.13,-4.50,0.13,-4.49,4.45,4.17,5.34,4.58,4.59,4.62
45.23,0.31,-4.29,0.31,-4.29,4.28,4.04,5.11,4.59,4.59,4.59
45.68,0.50,-4.08,0.50,-4.08,4.10,3.90,4.89,4.60,4.60,4.57
46.13,0.69,-3.87,0.68,-3.89,3.92,3.77,4.68,4.61,4.59,4.56
46.60,0.85,-3.71,0.84,-3.71,3.72,3.63,4.47,4.57,4.56,4.55
47.06,1.00,-3.54,1.00,-3.53,3.52,3.50,4.26,4.52,4.52,4.53
47.53,1.16,-3.36,1.17,-3.35,3.31,3.36,4.05,4.47,4.48,4.51
48.01,1.36,-3.15,1.36,-3.14,3.11,3.23,3.84,4.46,4.47,4.50
48.49,1.57,-2.91,1.56,-2.91,2.90,3.10,3.64,4.47,4.46,4.47
48.97,1.77,-2.68,1.75,-2.69,2.70,2.97,3.44,4.47,4.45,4.44
49.46,1.93,-2.49,1.93,-2.48,2.50,2.84,3.25,4.43,4.43,4.41
49.96,2.09,-2.30,2.10,-2.29,2.30,2.71,3.05,4.39,4.40,4.38
50.46,2.26,-2.12,2.26,-2.11,2.12,2.59,2.86,4.38,4.38,4.37
50.96,2.42,-1.94,2.40,-1.94,1.96,2.46,2.67,4.38,4.37,4.35
51.47,2.54,-1.79,2.52,-1.81,1.82,2.34,2.49,4.36,4.35,4.32
51.99,2.61,-1.70,2.63,-1.68,1.70,2.21,2.30,4.30,4.32,4.30
52.51,2.71,-1.58,2.72,-1.56,1.57,2.09,2.12,4.28,4.30,4.28
53.03,2.83,-1.44,2.81,-1.46,1.47,1.97,1.94,4.29,4.27,4.26
53.56,2.89,-1.35,2.86,-1.38,1.38,1.85,1.77,4.27,4.24,4.23
54.10,2.90,-1.32,2.91,-1.30,1.31,1.73,1.59,4.20,4.22,4.21
54.64,2.95,-1.24,3.03,-1.16,1.19,1.62,1.42,4.14,4.22,4.18
55.18,3.18,-0.98,3.17,-0.99,1.00,1.51,1.26,4.18,4.17,4.16
55.74,3.39,-0.75,3.26,-0.88,0.74,1.40,1.09,4.13,4.00,4.13
56.29,3.35,-0.77,3.31,-0.80,0.48,1.30,0.93,3.83,3.79,4.11
56.86,3.32,-0.77,3.49,-0.60,0.27,1.20,0.77,3.58,3.75,4.08
57.42,3.74,-0.32,3.93,-0.14,0.12,1.10,0.62,3.86,4.05,4.06
58.00,4.53,0.48,4.45,0.41,0.04,1.01,0.47,4.57,4.49,4.04
58.58,4.95,0.93,4.65,0.63,0.02,0.93,0.32,4.97,4.67,4.01
59.16,4.44,0.45,4.31,0.32,0.06,0.86,0.18,4.50,4.38,3.99
59.76,3.49,-0.48,3.70,-0.27,0.16,0.79,0.04,3.65,3.86,3.97
60.35,2.98,-0.97,3.21,-0.74,0.31,0.74,-0.09,3.29,3.52,3.94
60.96,3.10,-0.83,3.02,-0.89,0.51,0.71,-0.23,3.61,3.54,3.92
61.57,3.17,-0.72,3.01,-0.88,0.76,0.69,-0.35,3.93,3.77,3.88
62.18,2.94,-0.92,2.96,-0.90,0.99,0.69,-0.48,3.93,3.95,3.85
62.80,2.73,-1.10,2.80,-1.02,1.17,0.71,-0.60,3.89,3.97,3.82
63.43,2.66,-1.14,2.63,-1.16,1.27,0.76,-0.71,3.92,3.90,3.79
64.07,2.54,-1.23,2.50,-1.27,1.33,0.84,-0.83,3.87,3.82,3.76
64.71,2.35,-1.40,2.36,-1.38,1.39,0.95,-0.94,3.74,3.75,3.74
65.35,2.21,-1.52,2.23,-1.50,1.45,1.08,-1.04,3.66,3.68,3.72
66.01,2.15,-1.56,2.15,-1.55,1.49,1.23,-1.15,3.64,3.64,3.70
66.67,2.15,-1.53,2.15,-1.53,1.48,1.36,-1.25,3.62,3.62,3.67
67.33,2.21,-1.45,2.21,-1.44,1.40,1.44,-1.34,3.61,3.61,3.65
68.01,2.34,-1.29,2.33,-1.29,1.26,1.43,-1.44,3.60,3.59,3.62
68.69,2.51,-1.10,2.51,-1.09,1.07,1.31,-1.53,3.58,3.58,3.60
69.37,2.73,-0.84,2.74,-0.84,0.83,1.05,-1.63,3.56,3.57,3.57
70.07,3.01,-0.54,3.01,-0.54,0.54,0.70,-1.72,3.55,3.55,3.54
70.77,3.32,-0.21,3.31,-0.21,0.23,0.28,-1.81,3.54,3.54,3.52
71.48,3.63,0.13,3.62,0.13,-0.11,-0.16,-1.90,3.52,3.51,3.49
72.19,3.93,0.46,3.94,0.48,-0.47,-0.59,-1.98,3.46,3.47,3.46
72.91,4.26,0.84,4.26,0.83,-0.83,-1.01,-2.07,3.43,3.43,3.42
73.64,4.59,1.20,4.58,1.19,-1.19,-1.40,-2.16,3.40,3.39,3.39
74.38,4.91,1.54,4.91,1.56,-1.55,-1.75,-2.25,3.35,3.36,3.36
75.12,5.24,1.93,5.24,1.91,-1.91,-2.09,-2.34,3.33,3.33,3.31
75.87,5.55,2.27,5.54,2.26,-2.25,-2.39,-2.43,3.30,3.30,3.28
76.63,5.84,2.59,5.84,2.59,-2.58,-2.68,-2.52,3.26,3.26,3.25
77.40,6.11,2.89,6.11,2.90,-2.89,-2.95,-2.61,3.21,3.22,3.21
78.17,6.37,3.21,6.37,3.20,-3.19,-3.21,-2.71,3.17,3.17,3.15
78.95,6.61,3.48,6.61,3.48,-3.48,-3.46,-2.81,3.13,3.13,3.13
79.74,6.83,3.74,6.83,3.74,-3.74,-3.71,-2.90,3.09,3.09,3.09
80.54,7.04,3.99,7.04,3.99,-3.99,-3.94,-3.00,3.05,3.05,3.04
81.35,7.23,4.22,7.23,4.22,-4.22,-4.17,-3.11,3.00,3.00,3.00
82.16,7.40,4.44,7.40,4.44,-4.44,-4.40,-3.21,2.95,2.95,2.95
82.98,7.56,4.64,7.55,4.65,-4.65,-4.62,-3.32,2.90,2.90,2.91
83.81,7.70,4.84,7.70,4.84,-4.85,-4.83,-3.43,2.85,2.85,2.85
84.65,7.84,5.02,7.84,5.03,-5.03,-5.04,-3.55,2.80,2.81,2.81
85.50,7.98,5.20,7.97,5.20,-5.20,-5.23,-3.66,2.77,2.77,2.77
86.35,8.09,5.36,8.09,5.37,-5.36,-5.41,-3.79,2.73,2.73,2.72
87.22,8.19,5.51,8.19,5.52,-5.49,-5.58,-3.91,2.69,2.69,2.67
88.09,8.27,5.65,8.26,5.64,-5.62,-5.73,-4.04,2.65,2.64,2.61
88.97,8.32,5.74,8.32,5.75,-5.73,-5.87,-4.17,2.59,2.59,2.57
89.86,8.36,5.83,8.35,5.83,-5.83,-5.99,-4.30,2.52,2.52,2.52
90.76,8.38,5.91,8.38,5.91,-5.93,-6.09,-4.44,2.45,2.45,2.46
91.66,8.41,5.99,8.41,6.00,-6.03,-6.18,-4.58,2.38,2.39,2.41
92.58,8.46,6.10,8.46,6.10,-6.12,-6.25,-4.72,2.34,2.34,2.35
93.51,8.51,6.19,8.51,6.20,-6.21,-6.32,-4.87,2.30,2.30,2.31
94.44,8.57,6.30,8.57,6.31,-6.30,-6.38,-5.02,2.26,2.26,2.26
95.39,8.62,6.41,8.61,6.41,-6.40,-6.43,-5.18,2.22,2.21,2.20
96.34,8.65,6.51,8.65,6.51,-6.50,-6.49,-5.34,2.15,2.15,2.13
97.30,8.68,6.59,8.68,6.60,-6.59,-6.54,-5.50,2.09,2.09,2.08
98.28,8.70,6.67,8.70,6.68,-6.68,-6.59,-5.66,2.01,2.02,2.02
99.26,8.73,6.77,8.73,6.76,-6.77,-6.65,-5.83,1.95,1.95,1.95
100.25,8.75,6.84,8.75,6.85,-6.86,-6.70,-6.00,1.89,1.90,1.90
101.25,8.78,6.93,8.77,6.94,-6.93,-6.76,-6.17,1.84,1.84,1.84
102.27,8.79,7.01,8.79,7.01,-7.01,-6.82,-6.34,1.78,1.78,1.77
103.29,8.80,7.09,8.80,7.09,-7.08,-6.88,-6.51,1.72,1.72,1.70
104.32,8.80,7.14,8.80,7.15,-7.14,-6.94,-6.69,1.65,1.66,1.65
105.37,8.80,7.20,8.79,7.20,-7.20,-7.00,-6.86,1.59,1.59,1.59
106.42,8.78,7.25,8.78,7.25,-7.26,-7.06,-7.04,1.52,1.52,1.52
107.48,8.76,7.30,8.76,7.31,-7.31,-7.13,-7.21,1.45,1.46,1.45
108.56,8.75,7.36,8.74,7.36,-7.35,-7.19,-7.39,1.40,1.39,1.38
109.64,8.73,7.40,8.72,7.40,-7.40,-7.25,-7.55,1.33,1.33,1.32
110.74,8.70,7.43,8.70,7.44,-7.44,-7.32,-7.72,1.26,1.26,1.26
111.85,8.67,7.47,8.67,7.48,-7.49,-7.38,-7.88,1.18,1.18,1.19
112.97,8.64,7.52,8.64,7.52,-7.53,-7.44,-8.04,1.11,1.11,1.11
114.10,8.62,7.56,8.62,7.57,-7.58,-7.50,-8.18,1.04,1.04,1.05
115.24,8.61,7.62,8.60,7.62,-7.62,-7.56,-8.32,0.98,0.98,0.98
116.39,8.59,7.67,8.58,7.67,-7.67,-7.62,-8.45,0.92,0.92,0.91
117.55,8.56,7.71,8.56,7.71,-7.71,-7.68,-8.57,0.85,0.85,0.84
118.73,8.53,7.74,8.53,7.75,-7.75,-7.73,-8.68,0.78,0.79,0.78
119.92,8.51,7.78,8.50,7.78,-7.78,-7.79,-8.78,0.73,0.73,0.72
121.12,8.47,7.80,8.47,7.80,-7.80,-7.84,-8.86,0.67,0.67,0.66
122.33,8.42,7.82,8.42,7.82,-7.81,-7.89,-8.93,0.60,0.61,0.59
123.55,8.37,7.82,8.37,7.83,-7.82,-7.93,-8.98,0.55,0.55,0.54
124.79,8.31,7.82,8.31,7.82,-7.82,-7.98,-9.02,0.48,0.49,0.48
126.03,8.25,7.81,8.25,7.82,-7.82,-8.02,-9.04,0.43,0.43,0.43
127.29,8.18,7.80,8.18,7.81,-7.81,-8.06,-9.05,0.37,0.37,0.37
128.57,8.11,7.80,8.11,7.80,-7.80,-8.09,-9.05,0.31,0.31,0.30
129.85,8.04,7.78,8.04,7.79,-7.78,-8.13,-9.03,0.26,0.26,0.25
131.15,7.97,7.76,7.97,7.77,-7.76,-8.16,-8.99,0.20,0.20,0.20
132.46,7.90,7.75,7.90,7.75,-7.75,-8.19,-8.94,0.15,0.15,0.14
133.79,7.83,7.72,7.83,7.73,-7.73,-8.21,-8.89,0.10,0.10,0.10
135.12,7.76,7.71,7.76,7.70,-7.71,-8.23,-8.82,0.05,0.05,0.04
136.48,7.69,7.67,7.69,7.68,-7.69,-8.25,-8.74,-0.00,0.00,0.01
137.84,7.64,7.66,7.63,7.67,-7.68,-8.27,-8.65,-0.04,-0.04,-0.03
139.22,7.59,7.66,7.59,7.66,-7.66,-8.28,-8.56,-0.07,-0.08,-0.08
140.61,7.54,7.65,7.54,7.65,-7.65,-8.29,-8.46,-0.11,-0.11,-0.12
142.02,7.51,7.64,7.50,7.64,-7.64,-8.30,-8.36,-0.13,-0.14,-0.14
143.44,7.47,7.63,7.47,7.64,-7.63,-8.31,-8.25,-0.17,-0.17,-0.17
144.87,7.43,7.63,7.43,7.63,-7.63,-8.31,-8.14,-0.20,-0.20,-0.21
146.32,7.40,7.63,7.39,7.63,-7.62,-8.31,-8.03,-0.23,-0.23,-0.24
147.78,7.36,7.61,7.36,7.62,-7.62,-8.30,-7.91,-0.26,-0.26,-0.26
149.26,7.33,7.61,7.32,7.61,-7.62,-8.29,-7.80,-0.29,-0.29,-0.29
150.75,7.29,7.61,7.29,7.61,-7.62,-8.29,-7.69,-0.33,-0.32,-0.33
152.26,7.27,7.61,7.27,7.62,-7.62,-8.27,-7.58,-0.35,-0.35,-0.35
153.78,7.25,7.62,7.25,7.62,-7.63,-8.26,-7.47,-0.38,-0.38,-0.38
155.32,7.23,7.62,7.23,7.63,-7.63,-8.24,-7.37,-0.40,-0.40,-0.40
156.88,7.21,7.63,7.21,7.64,-7.64,-8.22,-7.26,-0.43,-0.43,-0.43
158.44,7.19,7.64,7.19,7.64,-7.64,-8.20,-7.16,-0.45,-0.45,-0.46
160.03,7.17,7.65,7.16,7.65,-7.64,-8.17,-7.07,-0.47,-0.48,-0.49
161.63,7.13,7.64,7.13,7.65,-7.64,-8.14,-6.98,-0.51,-0.51,-0.52
163.24,7.10,7.64,7.10,7.64,-7.64,-8.11,-6.89,-0.54,-0.54,-0.55
164.88,7.06,7.62,7.06,7.62,-7.62,-8.08,-6.80,-0.57,-0.57,-0.57
166.53,7.02,7.60,7.02,7.61,-7.61,-8.05,-6.72,-0.59,-0.59,-0.59
168.19,6.97,7.59,6.97,7.59,-7.59,-8.01,-6.65,-0.62,-0.62,-0.63
169.87,6.92,7.57,6.92,7.57,-7.57,-7.97,-6.58,-0.65,-0.65,-0.66
171.57,6.87,7.55,6.86,7.55,-7.55,-7.93,-6.51,-0.68,-0.68,-0.69
173.29,6.80,7.50,6.80,7.52,-7.52,-7.89,-6.45,-0.73,-0.72,-0.71
175.02,6.75,7.49,6.74,7.49,-7.50,-7.85,-6.40,-0.75,-0.76,-0.75
176.77,6.68,7.46,6.68,7.47,-7.47,-7.80,-6.34,-0.79,-0.79,-0.79
178.54,6.63,7.45,6.63,7.45,-7.44,-7.76,-6.30,-0.81,-0.81,-0.83
180.32,6.57,7.42,6.56,7.42,-7.41,-7.71,-6.26,-0.84,-0.85,-0.86
182.13,6.49,7.37,6.49,7.38,-7.37,-7.66,-6.22,-0.89,-0.88,-0.89
183.95,6.41,7.33,6.41,7.34,-7.34,-7.61,-6.19,-0.93,-0.92,-0.93
185.79,6.34,7.30,6.33,7.30,-7.30,-7.55,-6.16,-0.96,-0.96,-0.97
187.65,6.26,7.26,6.26,7.26,-7.26,-7.50,-6.14,-1.00,-1.00,-1.01
189.52,6.18,7.21,6.18,7.22,-7.22,-7.45,-6.12,-1.04,-1.03,-1.04
191.42,6.12,7.17,6.12,7.17,-7.18,-7.39,-6.10,-1.07,-1.07,-1.06
193.33,6.06,7.13,6.06,7.14,-7.15,-7.33,-6.09,-1.10,-1.10,-1.08
195.27,6.01,7.11,6.01,7.11,-7.13,-7.28,-6.09,-1.12,-1.12,-1.11
197.22,5.96,7.09,5.96,7.10,-7.11,-7.22,-6.08,-1.15,-1.14,-1.14
199.19,5.92,7.10,5.92,7.09,-7.09,-7.16,-6.09,-1.17,-1.17,-1.19
201.18,5.89,7.08,5.88,7.08,-7.07,-7.10,-6.09,-1.19,-1.19,-1.20
203.19,5.84,7.05,5.85,7.06,-7.06,-7.04,-6.10,-1.22,-1.21,-1.22
205.23,5.81,7.04,5.81,7.04,-7.04,-6.98,-6.11,-1.23,-1.23,-1.24
207.28,5.78,7.02,5.77,7.02,-7.02,-6.92,-6.12,-1.24,-1.25,-1.25
209.35,5.73,7.00,5.73,7.01,-7.00,-6.86,-6.13,-1.27,-1.27,-1.28
211.44,5.69,6.98,5.68,6.98,-6.97,-6.80,-6.15,-1.28,-1.29,-1.30
213.56,5.63,6.94,5.63,6.94,-6.94,-6.73,-6.17,-1.31,-1.31,-1.32
215.69,5.58,6.89,5.58,6.90,-6.91,-6.67,-6.19,-1.33,-1.33,-1.32
217.85,5.53,6.85,5.53,6.87,-6.87,-6.61,-6.21,-1.34,-1.34,-1.33
220.03,5.49,6.84,5.48,6.83,-6.83,-6.54,-6.23,-1.35,-1.35,-1.36
222.23,5.44,6.80,5.44,6.80,-6.79,-6.48,-6.24,-1.35,-1.36,-1.37
224.45,5.39,6.74,5.39,6.76,-6.75,-6.42,-6.26,-1.36,-1.36,-1.36
226.70,5.35,6.71,5.35,6.71,-6.71,-6.35,-6.28,-1.36,-1.36,-1.37
228.96,5.31,6.67,5.30,6.66,-6.67,-6.29,-6.30,-1.36,-1.36,-1.37
231.25,5.26,6.61,5.26,6.62,-6.62,-6.23,-6.31,-1.37,-1.36,-1.36
233.57,5.22,6.56,5.22,6.57,-6.58,-6.16,-6.32,-1.36,-1.36,-1.35
235.90,5.18,6.52,5.18,6.53,-6.54,-6.10,-6.33,-1.36,-1.36,-1.35
238.26,5.16,6.50,5.16,6.49,-6.50,-6.04,-6.33,-1.34,-1.34,-1.35
240.64,5.13,6.45,5.13,6.46,-6.45,-5.97,-6.33,-1.33,-1.32,-1.33
243.05,5.11,6.41,5.10,6.41,-6.41,-5.91,-6.33,-1.30,-1.30,-1.31
245.48,5.07,6.35,5.07,6.36,-6.36,-5.85,-6.32,-1.29,-1.28,-1.29
247.93,5.04,6.31,5.04,6.31,-6.30,-5.78,-6.31,-1.26,-1.26,-1.28
250.41,5.00,6.26,4.99,6.25,-6.24,-5.72,-6.29,-1.24,-1.24,-1.27
252.92,4.95,6.17,4.95,6.18,-6.17,-5.66,-6.27,-1.22,-1.23,-1.23
255.45,4.89,6.09,4.89,6.10,-6.10,-5.60,-6.25,-1.22,-1.21,-1.21
258.00,4.84,6.02,4.84,6.02,-6.03,-5.54,-6.22,-1.19,-1.20,-1.19
260.58,4.79,5.95,4.79,5.95,-5.96,-5.47,-6.19,-1.17,-1.18,-1.17
263.19,4.74,5.88,4.74,5.89,-5.89,-5.41,-6.15,-1.16,-1.15,-1.15
265.82,4.70,5.82,4.70,5.82,-5.83,-5.35,-6.11,-1.13,-1.13,-1.13
268.48,4.67,5.76,4.67,5.76,-5.76,-5.29,-6.07,-1.10,-1.10,-1.10
271.16,4.64,5.70,4.63,5.70,-5.70,-5.23,-6.02,-1.07,-1.07,-1.07
273.87,4.60,5.64,4.60,5.65,-5.64,-5.17,-5.97,-1.05,-1.04,-1.05
276.61,4.57,5.58,4.57,5.59,-5.58,-5.12,-5.92,-1.02,-1.02,-1.02
279.38,4.54,5.53,4.53,5.53,-5.52,-5.06,-5.86,-0.99,-0.99,-1.00
282.17,4.49,5.46,4.49,5.47,-5.46,-5.00,-5.81,-0.97,-0.97,-0.98
284.99,4.45,5.39,4.45,5.40,-5.40,-4.94,-5.75,-0.95,-0.95,-0.95
287.84,4.41,5.33,4.41,5.33,-5.33,-4.89,-5.69,-0.92,-0.92,-0.93
290.72,4.37,5.25,4.36,5.26,-5.26,-4.83,-5.64,-0.89,-0.89,-0.89
293.63,4.32,5.18,4.32,5.19,-5.19,-4.78,-5.58,-0.87,-0.87,-0.87
296.57,4.28,5.11,4.28,5.11,-5.11,-4.72,-5.52,-0.84,-0.84,-0.84
299.53,4.24,5.04,4.23,5.04,-5.04,-4.67,-5.47,-0.80,-0.81,-0.81
302.53,4.19,4.97,4.19,4.97,-4.96,-4.61,-5.42,-0.78,-0.77,-0.79
305.55,4.15,4.88,4.15,4.89,-4.89,-4.56,-5.36,-0.74,-0.74,-0.74
308.61,4.11,4.81,4.11,4.81,-4.81,-4.51,-5.31,-0.71,-0.71,-0.71
311.69,4.07,4.73,4.07,4.74,-4.74,-4.46,-5.27,-0.67,-0.67,-0.67
314.81,4.03,4.66,4.03,4.66,-4.66,-4.41,-5.22,-0.64,-0.64,-0.64
317.96,3.99,4.59,3.99,4.59,-4.59,-4.36,-5.18,-0.60,-0.60,-0.61
321.14,3.95,4.52,3.94,4.52,-4.52,-4.31,-5.14,-0.57,-0.58,-0.58
324.35,3.90,4.45,3.90,4.45,-4.45,-4.26,-5.10,-0.56,-0.55,-0.56
327.59,3.87,4.38,3.87,4.38,-4.39,-4.21,-5.07,-0.52,-0.52,-0.52
330.87,3.84,4.32,3.83,4.32,-4.33,-4.17,-5.04,-0.49,-0.49,-0.49
334.18,3.80,4.26,3.80,4.27,-4.27,-4.12,-5.01,-0.47,-0.46,-0.47
337.52,3.78,4.22,3.77,4.22,-4.21,-4.08,-4.99,-0.44,-0.44,-0.45
340.90,3.75,4.16,3.75,4.16,-4.16,-4.03,-4.97,-0.41,-0.42,-0.42
344.30,3.72,4.11,3.72,4.11,-4.11,-3.99,-4.95,-0.39,-0.39,-0.40
347.75,3.70,4.06,3.70,4.07,-4.07,-3.95,-4.94,-0.37,-0.37,-0.37
351.23,3.68,4.02,3.68,4.03,-4.03,-3.91,-4.93,-0.35,-0.35,-0.35
354.74,3.66,3.99,3.66,3.99,-3.99,-3.87,-4.93,-0.33,-0.33,-0.34
358.28,3.64,3.95,3.64,3.95,-3.96,-3.83,-4.93,-0.32,-0.32,-0.32
361.87,3.63,3.92,3.63,3.92,-3.93,-3.79,-4.93,-0.30,-0.30,-0.30
365.49,3.63,3.89,3.63,3.90,-3.90,-3.76,-4.94,-0.28,-0.28,-0.27
369.14,3.63,3.88,3.63,3.88,-3.88,-3.72,-4.95,-0.26,-0.26,-0.26
372.83,3.63,3.87,3.63,3.87,-3.87,-3.69,-4.96,-0.24,-0.24,-0.25
376.56,3.64,3.86,3.64,3.86,-3.85,-3.66,-4.98,-0.21,-0.21,-0.23
380.33,3.65,3.84,3.64,3.85,-3.84,-3.62,-5.00,-0.19,-0.20,-0.20
384.13,3.66,3.83,3.66,3.84,-3.84,-3.59,-5.02,-0.18,-0.18,-0.18
387.97,3.67,3.82,3.67,3.83,-3.83,-3.57,-5.05,-0.16,-0.16,-0.16
391.85,3.70,3.83,3.69,3.83,-3.83,-3.54,-5.08,-0.14,-0.14,-0.14
395.77,3.72,3.82,3.72,3.83,-3.84,-3.51,-5.11,-0.12,-0.11,-0.11
399.73,3.76,3.84,3.75,3.84,-3.85,-3.49,-5.14,-0.09,-0.09,-0.09
403.72,3.79,3.86,3.78,3.86,-3.86,-3.47,-5.18,-0.07,-0.07,-0.08
407.76,3.82,3.87,3.82,3.87,-3.87,-3.45,-5.22,-0.05,-0.05,-0.06
411.84,3.86,3.88,3.86,3.89,-3.89,-3.43,-5.26,-0.03,-0.03,-0.03
415.96,3.91,3.91,3.90,3.91,-3.90,-3.41,-5.30,0.00,-0.00,-0.01
420.12,3.95,3.93,3.94,3.93,-3.92,-3.40,-5.34,0.03,0.02,0.01
424.32,3.98,3.93,3.98,3.94,-3.94,-3.39,-5.39,0.04,0.04,0.04
428.56,4.02,3.95,4.02,3.95,-3.96,-3.38,-5.43,0.06,0.06,0.06
432.85,4.06,3.97,4.06,3.97,-3.98,-3.37,-5.47,0.08,0.09,0.08
437.18,4.11,3.99,4.11,3.99,-4.00,-3.36,-5.51,0.11,0.11,0.11
441.55,4.16,4.01,4.15,4.02,-4.02,-3.36,-5.55,0.14,0.14,0.14
445.96,4.20,4.03,4.20,4.04,-4.04,-3.36,-5.59,0.16,0.16,0.16
450.42,4.25,4.07,4.25,4.06,-4.06,-3.37,-5.63,0.18,0.18,0.17
454.93,4.30,4.08,4.30,4.09,-4.09,-3.37,-5.66,0.21,0.21,0.21
459.48,4.36,4.12,4.36,4.12,-4.12,-3.39,-5.69,0.24,0.24,0.23
464.07,4.42,4.15,4.41,4.15,-4.15,-3.40,-5.71,0.27,0.27,0.26
468.71,4.47,4.16,4.47,4.18,-4.18,-3.42,-5.73,0.29,0.30,0.30
473.40,4.54,4.21,4.53,4.21,-4.21,-3.44,-5.74,0.33,0.33,0.32
478.13,4.60,4.24,4.59,4.24,-4.24,-3.47,-5.75,0.36,0.35,0.35
482.91,4.66,4.27,4.66,4.28,-4.28,-3.50,-5.76,0.38,0.38,0.38
487.74,4.73,4.31,4.73,4.32,-4.32,-3.54,-5.75,0.41,0.41,0.41
492.62,4.81,4.36,4.80,4.36,-4.36,-3.59,-5.74,0.45,0.44,0.44
