frequency,raw,error,smoothed,error_smoothed,equalization,parametric_eq,fixed_band_eq,equalized_raw,equalized_smoothed,target
20.00,8.20,1.81,8.20,1.80,-1.84,-1.61,-0.37,6.36,6.35,6.40
20.20,8.20,1.77,8.21,1.77,-1.79,-1.60,-0.39,6.42,6.42,6.44
20.40,8.20,1.74,8.21,1.74,-1.73,-1.59,-0.40,6.47,6.48,6.47
20.61,8.20,1.71,8.21,1.70,-1.68,-1.58,-0.41,6.53,6.53,6.50
20.81,8.20,1.67,8.21,1.67,-1.63,-1.57,-0.43,6.58,6.58,6.54
21.02,8.20,1.63,8.19,1.62,-1.58,-1.56,-0.44,6.62,6.61,6.58
21.23,8.15,1.57,8.16,1.56,-1.54,-1.55,-0.46,6.62,6.62,6.59
21.44,8.10,1.50,8.11,1.50,-1.49,-1.54,-0.47,6.61,6.61,6.61
21.66,8.05,1.43,8.05,1.43,-1.44,-1.53,-0.49,6.61,6.61,6.63
21.87,8.00,1.37,8.01,1.37,-1.40,-1.52,-0.50,6.60,6.61,6.64
22.09,7.97,1.33,7.98,1.34,-1.36,-1.51,-0.52,6.61,6.62,6.65
22.31,7.97,1.33,7.97,1.32,-1.33,-1.50,-0.54,6.64,6.64,6.65
22.54,7.97,1.32,7.97,1.31,-1.32,-1.48,-0.56,6.66,6.66,6.66
22.76,7.97,1.31,7.97,1.31,-1.30,-1.47,-0.58,6.67,6.67,6.67
22.99,7.97,1.31,7.97,1.30,-1.30,-1.46,-0.59,6.67,6.67,6.67
23.22,7.97,1.30,7.97,1.30,-1.29,-1.44,-0.61,6.68,6.68,6.68
23.45,7.97,1.29,7.98,1.29,-1.28,-1.43,-0.63,6.69,6.69,6.69
23.69,7.97,1.28,7.98,1.28,-1.26,-1.41,-0.65,6.71,6.71,6.70
23.92,7.97,1.27,7.96,1.26,-1.24,-1.40,-0.67,6.74,6.73,6.71
24.16,7.94,1.23,7.94,1.22,-1.21,-1.38,-0.69,6.74,6.73,6.72
24.40,7.89,1.17,7.90,1.18,-1.17,-1.36,-0.71,6.72,6.73,6.73
24.65,7.85,1.14,7.85,1.13,-1.14,-1.35,-0.73,6.72,6.71,6.72
24.89,7.80,1.09,7.81,1.09,-1.11,-1.33,-0.75,6.70,6.70,6.72
25.14,7.77,1.06,7.78,1.06,-1.08,-1.31,-0.77,6.69,6.70,6.72
25.39,7.76,1.05,7.76,1.04,-1.06,-1.29,-0.79,6.70,6.70,6.72
25.65,7.75,1.04,7.75,1.04,-1.05,-1.27,-0.81,6.70,6.70,6.72
25.91,7.74,1.05,7.75,1.04,-1.05,-1.25,-0.83,6.70,6.70,6.70
26.16,7.74,1.04,7.74,1.04,-1.04,-1.23,-0.85,6.70,6.70,6.71
26.43,7.74,1.04,7.75,1.04,-1.03,-1.21,-0.87,6.72,6.72,6.71
26.69,7.74,1.04,7.75,1.04,-1.01,-1.19,-0.88,6.73,6.74,6.71
26.96,7.74,1.04,7.73,1.02,-0.99,-1.17,-0.90,6.76,6.74,6.71
27.23,7.69,0.99,7.69,0.98,-0.96,-1.14,-0.91,6.73,6.73,6.71
27.50,7.62,0.92,7.63,0.92,-0.94,-1.12,-0.93,6.69,6.69,6.71
27.77,7.56,0.87,7.57,0.87,-0.91,-1.09,-0.94,6.65,6.66,6.70
28.05,7.51,0.82,7.53,0.84,-0.88,-1.06,-0.95,6.63,6.65,6.70
28.33,7.51,0.84,7.51,0.83,-0.84,-1.04,-0.95,6.67,6.67,6.68
28.62,7.51,0.83,7.51,0.83,-0.81,-1.01,-0.96,6.71,6.71,6.69
28.90,7.51,0.83,7.50,0.82,-0.77,-0.98,-0.96,6.74,6.73,6.69
29.19,7.47,0.80,7.46,0.78,-0.74,-0.95,-0.96,6.73,6.72,6.68
29.48,7.40,0.72,7.40,0.72,-0.72,-0.92,-0.96,6.68,6.68,6.69
29.78,7.33,0.65,7.34,0.66,-0.70,-0.89,-0.95,6.64,6.64,6.69
30.08,7.28,0.60,7.30,0.62,-0.67,-0.86,-0.95,6.62,6.63,6.69
30.38,7.28,0.62,7.29,0.61,-0.64,-0.82,-0.93,6.65,6.65,6.67
30.68,7.28,0.62,7.28,0.62,-0.60,-0.79,-0.92,6.68,6.68,6.67
30.99,7.28,0.63,7.26,0.60,-0.56,-0.75,-0.90,6.72,6.70,6.66
31.30,7.21,0.56,7.22,0.56,-0.52,-0.71,-0.88,6.69,6.70,6.66
31.61,7.15,0.50,7.16,0.51,-0.48,-0.68,-0.85,6.67,6.67,6.66
31.93,7.08,0.45,7.08,0.44,-0.44,-0.64,-0.82,6.64,6.64,6.64
32.24,7.01,0.39,7.01,0.38,-0.40,-0.60,-0.79,6.62,6.61,6.63
32.57,6.94,0.32,6.94,0.31,-0.35,-0.55,-0.76,6.60,6.59,6.63
32.89,6.87,0.25,6.89,0.26,-0.30,-0.51,-0.72,6.57,6.58,6.63
33.22,6.85,0.23,6.86,0.23,-0.26,-0.47,-0.67,6.59,6.60,6.63
33.55,6.84,0.23,6.84,0.22,-0.22,-0.42,-0.63,6.63,6.63,6.62
33.89,6.83,0.22,6.82,0.20,-0.17,-0.37,-0.58,6.66,6.65,6.62
34.23,6.78,0.17,6.78,0.16,-0.12,-0.33,-0.53,6.66,6.66,6.62
34.57,6.70,0.10,6.71,0.10,-0.07,-0.28,-0.47,6.63,6.64,6.61
34.92,6.62,0.03,6.63,0.03,-0.02,-0.22,-0.42,6.60,6.61,6.60
35.27,6.54,-0.05,6.54,-0.05,0.03,-0.17,-0.36,6.58,6.57,6.60
35.62,6.46,-0.12,6.46,-0.13,0.08,-0.12,-0.30,6.55,6.55,6.59
35.97,6.38,-0.19,6.40,-0.18,0.14,-0.06,-0.23,6.52,6.54,6.58
36.33,6.36,-0.21,6.37,-0.21,0.19,-0.00,-0.16,6.56,6.56,6.58
36.70,6.35,-0.22,6.34,-0.23,0.24,0.06,-0.10,6.60,6.59,6.58
37.06,6.32,-0.23,6.31,-0.26,0.29,0.12,-0.03,6.61,6.60,6.56
37.43,6.23,-0.32,6.24,-0.31,0.34,0.18,0.05,6.57,6.58,6.56
37.81,6.15,-0.39,6.16,-0.39,0.39,0.24,0.12,6.55,6.55,6.55
38.19,6.07,-0.46,6.08,-0.46,0.45,0.31,0.20,6.53,6.53,6.54
38.57,6.00,-0.53,6.00,-0.53,0.52,0.38,0.27,6.52,6.53,6.54
38.95,5.93,-0.59,5.93,-0.60,0.60,0.45,0.35,6.53,6.53,6.53
39.34,5.84,-0.67,5.84,-0.67,0.69,0.52,0.43,6.53,6.53,6.52
39.74,5.75,-0.74,5.76,-0.75,0.77,0.59,0.52,6.52,6.53,6.50
40.14,5.66,-0.84,5.66,-0.84,0.85,0.67,0.60,6.51,6.51,6.51
40.54,5.57,-0.92,5.57,-0.93,0.91,0.75,0.68,6.49,6.48,6.50
40.94,5.47,-1.02,5.48,-1.01,0.98,0.83,0.77,6.45,6.46,6.50
41.35,5.40,-1.07,5.40,-1.08,1.04,0.91,0.86,6.45,6.44,6.48
41.76,5.32,-1.13,5.33,-1.13,1.11,0.99,0.94,6.43,6.44,6.46
42.18,5.27,-1.17,5.30,-1.14,1.17,1.08,1.03,6.45,6.47,6.45
42.60,5.25,-1.16,5.25,-1.17,1.23,1.17,1.12,6.48,6.48,6.42
43.03,5.22,-1.18,5.16,-1.24,1.28,1.26,1.22,6.51,6.44,6.41
43.46,5.02,-1.35,5.02,-1.34,1.33,1.35,1.31,6.36,6.36,6.38
43.90,4.84,-1.49,4.89,-1.44,1.39,1.44,1.40,6.22,6.28,6.33
44.33,4.78,-1.51,4.80,-1.50,1.45,1.54,1.50,6.23,6.25,6.30
44.78,4.78,-1.48,4.75,-1.51,1.51,1.64,1.60,6.29,6.26,6.27
45.23,4.71,-1.52,4.69,-1.54,1.57,1.73,1.69,6.29,6.26,6.24
45.68,4.58,-1.62,4.59,-1.62,1.64,1.84,1.79,6.22,6.23,6.21
46.13,4.46,-1.72,4.48,-1.70,1.71,1.94,1.89,6.17,6.19,6.19
46.60,4.38,-1.79,4.38,-1.79,1.79,2.04,2.00,6.17,6.17,6.18
47.06,4.30,-1.85,4.29,-1.87,1.89,2.15,2.10,6.19,6.18,6.16
47.53,4.18,-1.97,4.18,-1.97,2.00,2.26,2.20,6.19,6.19,6.16
48.01,4.05,-2.10,4.05,-2.10,2.13,2.37,2.31,6.18,6.18,6.16
48.49,3.89,-2.24,3.90,-2.24,2.25,2.48,2.41,6.14,6.15,6.14
48.97,3.74,-2.38,3.73,-2.40,2.37,2.59,2.52,6.11,6.10,6.13
49.46,3.58,-2.53,3.58,-2.54,2.48,2.70,2.62,6.07,6.06,6.12
49.96,3.42,-2.69,3.47,-2.65,2.60,2.81,2.73,6.03,6.07,6.12
50.46,3.39,-2.73,3.39,-2.73,2.72,2.93,2.83,6.12,6.12,6.13
50.96,3.36,-2.77,3.33,-2.80,2.84,3.04,2.94,6.21,6.17,6.14
51.47,3.23,-2.89,3.23,-2.89,2.96,3.15,3.04,6.19,6.19,6.13
51.99,3.09,-3.02,3.08,-3.03,3.07,3.26,3.14,6.16,6.15,6.11
52.51,2.91,-3.19,2.91,-3.19,3.18,3.37,3.24,6.08,6.08,6.10
53.03,2.72,-3.34,2.75,-3.32,3.29,3.48,3.34,6.01,6.03,6.07
53.56,2.60,-3.43,2.60,-3.44,3.39,3.58,3.44,6.00,6.00,6.04
54.10,2.48,-3.51,2.48,-3.52,3.50,3.68,3.53,5.98,5.97,6.00
54.64,2.35,-3.59,2.36,-3.59,3.60,3.78,3.62,5.95,5.95,5.95
55.18,2.23,-3.66,2.23,-3.67,3.68,3.87,3.70,5.92,5.92,5.90
55.74,2.10,-3.74,2.10,-3.75,3.76,3.96,3.78,5.87,5.86,5.85
56.29,1.97,-3.82,1.98,-3.82,3.83,4.04,3.86,5.80,5.81,5.80
56.86,1.84,-3.89,1.85,-3.89,3.90,4.11,3.92,5.74,5.74,5.74
57.42,1.72,-3.94,1.72,-3.95,3.96,4.17,3.98,5.68,5.67,5.67
58.00,1.59,-4.01,1.58,-4.03,4.01,4.23,4.03,5.61,5.59,5.61
58.58,1.46,-4.08,1.48,-4.07,4.06,4.28,4.08,5.52,5.53,5.55
59.16,1.36,-4.13,1.40,-4.09,4.08,4.31,4.11,5.45,5.49,5.50
59.76,1.36,-4.07,1.32,-4.11,4.10,4.34,4.13,5.46,5.42,5.44
60.35,1.28,-4.08,1.25,-4.12,4.10,4.35,4.15,5.39,5.36,5.37
60.96,1.14,-4.17,1.19,-4.12,4.10,4.35,4.15,5.25,5.30,5.32
61.57,1.13,-4.11,1.15,-4.10,4.10,4.33,4.14,5.24,5.25,5.25
62.18,1.13,-4.04,1.13,-4.06,4.10,4.30,4.12,5.23,5.23,5.18
62.80,1.13,-4.00,1.09,-4.04,4.09,4.26,4.09,5.23,5.19,5.14
63.43,1.03,-4.04,1.02,-4.06,4.09,4.21,4.04,5.12,5.11,5.08
64.07,0.90,-4.13,0.95,-4.08,4.08,4.14,3.99,4.98,5.03,5.04
64.71,0.90,-4.08,0.90,-4.09,4.06,4.05,3.92,4.96,4.96,4.99
65.35,0.90,-4.03,0.88,-4.06,4.03,3.96,3.84,4.93,4.91,4.94
66.01,0.90,-4.00,0.89,-4.01,3.98,3.85,3.75,4.89,4.88,4.91
66.67,0.90,-3.96,0.94,-3.93,3.93,3.73,3.65,4.83,4.86,4.87
67.33,0.98,-3.85,1.00,-3.84,3.84,3.59,3.54,4.83,4.84,4.84
68.01,1.13,-3.67,1.08,-3.73,3.74,3.45,3.42,4.87,4.82,4.81
68.69,1.15,-3.62,1.17,-3.60,3.61,3.29,3.29,4.76,4.78,4.78
69.37,1.24,-3.49,1.27,-3.48,3.47,3.13,3.16,4.71,4.73,4.74
70.07,1.38,-3.32,1.38,-3.33,3.31,2.96,3.02,4.69,4.69,4.71
70.77,1.54,-3.15,1.54,-3.15,3.15,2.78,2.87,4.69,4.69,4.70
71.48,1.70,-2.95,1.70,-2.96,2.98,2.59,2.71,4.68,4.68,4.66
72.19,1.86,-2.77,1.87,-2.77,2.80,2.40,2.55,4.66,4.66,4.64
72.91,2.02,-2.57,2.03,-2.57,2.60,2.20,2.39,4.62,4.63,4.60
73.64,2.19,-2.37,2.17,-2.40,2.39,2.00,2.22,4.58,4.56,4.57
74.38,2.33,-2.20,2.33,-2.20,2.16,1.80,2.04,4.50,4.49,4.54
75.12,2.48,-2.02,2.52,-1.99,1.93,1.59,1.87,4.41,4.45,4.51
75.87,2.76,-1.72,2.75,-1.73,1.70,1.39,1.69,4.45,4.44,4.48
76.63,3.01,-1.43,3.01,-1.43,1.46,1.18,1.51,4.47,4.47,4.45
77.40,3.27,-1.14,3.26,-1.15,1.21,0.97,1.32,4.49,4.48,4.42
78.17,3.50,-0.88,3.47,-0.92,0.96,0.76,1.14,4.47,4.43,4.39
78.95,3.64,-0.74,3.67,-0.71,0.71,0.55,0.95,4.35,4.38,4.38
79.74,3.85,-0.51,3.86,-0.49,0.46,0.34,0.76,4.31,4.33,4.36
80.54,4.09,-0.24,4.06,-0.27,0.23,0.13,0.57,4.32,4.29,4.34
81.35,4.31,-0.00,4.32,0.00,-0.00,-0.08,0.38,4.31,4.32,4.32
82.16,4.52,0.21,4.57,0.25,-0.23,-0.28,0.19,4.30,4.34,4.32
82.98,4.87,0.56,4.79,0.48,-0.46,-0.49,-0.00,4.42,4.34,4.32
83.81,4.98,0.68,5.01,0.70,-0.69,-0.69,-0.20,4.29,4.31,4.31
84.65,5.18,0.89,5.22,0.91,-0.93,-0.89,-0.39,4.25,4.28,4.30
85.50,5.43,1.13,5.41,1.10,-1.17,-1.08,-0.59,4.27,4.24,4.31
86.35,5.66,1.36,5.67,1.36,-1.39,-1.28,-0.78,4.28,4.28,4.31
87.22,5.88,1.58,5.92,1.61,-1.60,-1.46,-0.98,4.29,4.33,4.31
88.09,6.21,1.91,6.17,1.85,-1.79,-1.65,-1.18,4.42,4.37,4.31
88.97,6.36,2.04,6.36,2.05,-1.98,-1.84,-1.38,4.38,4.38,4.33
89.86,6.53,2.21,6.52,2.20,-2.17,-2.02,-1.57,4.37,4.35,4.33
90.76,6.61,2.31,6.63,2.32,-2.34,-2.20,-1.78,4.28,4.29,4.31
91.66,6.76,2.45,6.77,2.46,-2.49,-2.37,-1.98,4.27,4.27,4.32
92.58,6.91,2.63,6.93,2.63,-2.64,-2.54,-2.18,4.27,4.28,4.29
93.51,7.10,2.81,7.09,2.80,-2.80,-2.71,-2.38,4.31,4.30,4.30
94.44,7.27,3.00,7.25,2.98,-2.96,-2.87,-2.59,4.31,4.29,4.28
95.39,7.38,3.12,7.40,3.14,-3.15,-3.04,-2.79,4.23,4.25,4.27
96.34,7.55,3.33,7.53,3.30,-3.35,-3.19,-3.00,4.21,4.19,4.23
97.30,7.68,3.48,7.71,3.50,-3.55,-3.35,-3.20,4.13,4.16,4.21
98.28,7.90,3.72,7.95,3.77,-3.77,-3.50,-3.41,4.14,4.18,4.19
99.26,8.21,4.06,8.17,4.01,-3.98,-3.64,-3.62,4.23,4.19,4.16
100.25,8.43,4.31,8.38,4.26,-4.21,-3.78,-3.82,4.23,4.18,4.13
101.25,8.50,4.41,8.55,4.46,-4.43,-3.92,-4.03,4.08,4.12,4.10
102.27,8.69,4.64,8.68,4.63,-4.65,-4.06,-4.24,4.04,4.03,4.06
103.29,8.84,4.84,8.85,4.84,-4.87,-4.19,-4.44,3.97,3.98,4.01
104.32,9.02,5.06,9.05,5.08,-5.08,-4.32,-4.64,3.94,3.96,3.97
105.37,9.25,5.34,9.20,5.28,-5.29,-4.44,-4.85,3.96,3.91,3.92
106.42,9.33,5.47,9.34,5.48,-5.49,-4.56,-5.05,3.85,3.85,3.87
107.48,9.43,5.64,9.46,5.66,-5.67,-4.68,-5.24,3.76,3.79,3.80
108.56,9.55,5.84,9.57,5.85,-5.85,-4.79,-5.43,3.70,3.72,3.72
109.64,9.71,6.07,9.69,6.04,-6.01,-4.90,-5.62,3.70,3.68,3.65
110.74,9.79,6.21,9.77,6.19,-6.16,-5.01,-5.80,3.64,3.61,3.59
111.85,9.79,6.28,9.81,6.29,-6.28,-5.11,-5.98,3.51,3.52,3.52
112.97,9.79,6.37,9.80,6.36,-6.39,-5.21,-6.15,3.40,3.41,3.43
114.10,9.79,6.43,9.79,6.43,-6.48,-5.30,-6.31,3.31,3.31,3.37
115.24,9.79,6.51,9.81,6.52,-6.54,-5.39,-6.46,3.25,3.26,3.29
116.39,9.79,6.59,9.79,6.58,-6.58,-5.48,-6.60,3.21,3.21,3.21
117.55,9.78,6.64,9.75,6.61,-6.58,-5.56,-6.72,3.20,3.17,3.15
118.73,9.62,6.55,9.66,6.57,-6.54,-5.64,-6.85,3.08,3.11,3.08
119.92,9.55,6.52,9.53,6.50,-6.47,-5.72,-6.94,3.08,3.06,3.04
121.12,9.33,6.36,9.37,6.39,-6.35,-5.79,-7.03,2.98,3.02,2.98
122.33,9.19,6.26,9.19,6.24,-6.19,-5.86,-7.10,3.00,2.99,2.94
123.55,8.95,6.04,8.91,6.01,-5.99,-5.92,-7.16,2.96,2.92,2.92
124.79,8.59,5.71,8.58,5.71,-5.73,-5.98,-7.20,2.85,2.85,2.88
126.03,8.18,5.35,8.19,5.35,-5.45,-6.04,-7.23,2.74,2.74,2.84
127.29,7.79,4.99,7.82,5.01,-5.16,-6.09,-7.23,2.63,2.66,2.81
128.57,7.48,4.72,7.50,4.73,-4.91,-6.14,-7.23,2.58,2.59,2.77
129.85,7.25,4.52,7.21,4.47,-4.71,-6.18,-7.21,2.54,2.50,2.74
131.15,6.99,4.29,6.96,4.25,-4.58,-6.22,-7.18,2.41,2.38,2.71
132.46,6.73,4.06,6.80,4.12,-4.53,-6.25,-7.12,2.20,2.26,2.68
133.79,6.75,4.11,6.78,4.14,-4.57,-6.29,-7.06,2.19,2.22,2.65
135.12,6.93,4.34,6.94,4.33,-4.68,-6.31,-6.99,2.26,2.26,2.60
136.48,7.24,4.68,7.21,4.64,-4.86,-6.34,-6.91,2.38,2.35,2.57
137.84,7.52,4.99,7.51,4.98,-5.12,-6.36,-6.81,2.41,2.39,2.54
139.22,7.78,5.30,7.79,5.30,-5.41,-6.38,-6.71,2.37,2.38,2.49
140.61,8.05,5.62,8.05,5.60,-5.71,-6.39,-6.60,2.34,2.34,2.44
142.02,8.31,5.90,8.34,5.92,-5.99,-6.40,-6.49,2.32,2.34,2.42
143.44,8.57,6.20,8.60,6.22,-6.21,-6.40,-6.37,2.37,2.39,2.38
144.87,8.84,6.51,8.79,6.45,-6.38,-6.40,-6.24,2.46,2.40,2.34
146.32,8.87,6.59,8.87,6.58,-6.50,-6.40,-6.12,2.38,2.37,2.29
147.78,8.83,6.59,8.84,6.60,-6.55,-6.39,-5.99,2.28,2.28,2.25
149.26,8.71,6.54,8.73,6.56,-6.54,-6.38,-5.86,2.18,2.19,2.18
150.75,8.55,6.46,8.60,6.49,-6.46,-6.37,-5.73,2.10,2.14,2.10
152.26,8.43,6.41,8.39,6.37,-6.28,-6.34,-5.60,2.16,2.11,2.03
153.78,8.11,6.16,8.07,6.12,-6.04,-6.32,-5.47,2.07,2.03,1.96
155.32,7.63,5.78,7.63,5.76,-5.79,-6.30,-5.34,1.84,1.84,1.86
156.88,7.09,5.30,7.11,5.32,-5.56,-6.27,-5.21,1.52,1.54,1.79
158.44,6.62,4.91,6.59,4.88,-5.38,-6.23,-5.08,1.25,1.22,1.72
160.03,6.20,4.57,6.22,4.58,-5.26,-6.20,-4.96,0.95,0.97,1.64
161.63,6.00,4.43,6.08,4.50,-5.22,-6.15,-4.83,0.79,0.86,1.58
163.24,6.17,4.65,6.19,4.66,-5.27,-6.11,-4.71,0.91,0.92,1.53
164.88,6.51,5.03,6.50,5.01,-5.39,-6.06,-4.60,1.12,1.10,1.49
166.53,6.91,5.47,6.90,5.45,-5.57,-6.01,-4.48,1.34,1.33,1.45
168.19,7.26,5.85,7.26,5.84,-5.77,-5.95,-4.37,1.49,1.49,1.42
169.87,7.55,6.15,7.53,6.13,-5.97,-5.89,-4.26,1.59,1.56,1.41
171.57,7.70,6.31,7.69,6.29,-6.14,-5.83,-4.15,1.57,1.55,1.40
173.29,7.74,6.35,7.77,6.37,-6.25,-5.77,-4.05,1.49,1.51,1.40
175.02,7.74,6.33,7.75,6.35,-6.30,-5.69,-3.95,1.45,1.46,1.42
176.77,7.74,6.34,7.69,6.27,-6.30,-5.62,-3.85,1.44,1.38,1.41
178.54,7.56,6.15,7.61,6.19,-6.28,-5.55,-3.76,1.28,1.33,1.42
180.32,7.51,6.09,7.54,6.12,-6.23,-5.47,-3.66,1.28,1.31,1.43
182.13,7.51,6.09,7.51,6.09,-6.16,-5.39,-3.58,1.36,1.36,1.43
183.95,7.51,6.09,7.52,6.10,-6.07,-5.30,-3.49,1.44,1.45,1.43
185.79,7.51,6.10,7.46,6.05,-5.98,-5.21,-3.41,1.53,1.48,1.42
187.65,7.35,5.96,7.34,5.95,-5.87,-5.12,-3.33,1.48,1.47,1.40
189.52,7.12,5.75,7.18,5.81,-5.75,-5.03,-3.25,1.37,1.43,1.38
191.42,7.00,5.65,6.97,5.62,-5.61,-4.93,-3.17,1.39,1.36,1.36
193.33,6.80,5.47,6.78,5.43,-5.46,-4.83,-3.10,1.35,1.32,1.34
195.27,6.54,5.21,6.59,5.27,-5.28,-4.73,-3.03,1.26,1.31,1.34
197.22,6.40,5.09,6.39,5.08,-5.11,-4.62,-2.97,1.29,1.28,1.32
199.19,6.23,4.96,6.20,4.91,-4.95,-4.52,-2.90,1.29,1.26,1.28
201.18,6.01,4.74,6.04,4.77,-4.79,-4.41,-2.84,1.22,1.25,1.28
203.19,5.87,4.62,5.88,4.63,-4.65,-4.29,-2.77,1.23,1.23,1.26
205.23,5.75,4.53,5.74,4.50,-4.51,-4.18,-2.71,1.24,1.23,1.23
207.28,5.61,4.39,5.63,4.41,-4.38,-4.06,-2.65,1.24,1.25,1.23
209.35,5.49,4.29,5.47,4.27,-4.25,-3.94,-2.60,1.25,1.23,1.21
211.44,5.33,4.16,5.32,4.12,-4.12,-3.82,-2.54,1.22,1.20,1.18
213.56,5.09,3.92,5.14,3.97,-3.98,-3.69,-2.48,1.12,1.17,1.18
215.69,5.01,3.84,4.98,3.81,-3.83,-3.57,-2.43,1.18,1.15,1.18
217.85,4.80,3.66,4.83,3.68,-3.67,-3.44,-2.37,1.13,1.16,1.15
220.03,4.69,3.56,4.67,3.54,-3.51,-3.31,-2.32,1.19,1.16,1.14
222.23,4.50,3.39,4.47,3.35,-3.33,-3.17,-2.26,1.17,1.14,1.12
224.45,4.24,3.13,4.30,3.18,-3.16,-3.04,-2.21,1.08,1.13,1.12
226.70,4.10,2.99,4.09,2.98,-3.00,-2.90,-2.15,1.11,1.09,1.12
228.96,3.94,2.84,3.92,2.80,-2.84,-2.76,-2.10,1.10,1.08,1.11
231.25,3.71,2.61,3.75,2.65,-2.68,-2.62,-2.04,1.03,1.07,1.11
233.57,3.61,2.52,3.58,2.49,-2.52,-2.48,-1.98,1.09,1.06,1.10
235.90,3.42,2.34,3.44,2.35,-2.36,-2.34,-1.92,1.06,1.08,1.09
238.26,3.30,2.22,3.32,2.24,-2.20,-2.19,-1.86,1.10,1.12,1.09
240.64,3.20,2.12,3.18,2.09,-2.04,-2.04,-1.80,1.16,1.14,1.09
243.05,3.02,1.93,3.01,1.91,-1.86,-1.90,-1.73,1.16,1.14,1.10
245.48,2.79,1.69,2.78,1.68,-1.67,-1.75,-1.66,1.12,1.11,1.11
247.93,2.53,1.42,2.56,1.45,-1.46,-1.59,-1.59,1.08,1.11,1.12
250.41,2.32,1.22,2.36,1.25,-1.23,-1.44,-1.52,1.09,1.13,1.11
252.92,2.22,1.11,2.17,1.05,-1.02,-1.29,-1.45,1.21,1.16,1.12
255.45,1.97,0.83,1.95,0.82,-0.81,-1.13,-1.37,1.17,1.14,1.15
258.00,1.71,0.57,1.71,0.56,-0.62,-0.97,-1.30,1.10,1.09,1.15
260.58,1.44,0.30,1.50,0.35,-0.45,-0.82,-1.21,1.00,1.06,1.15
263.19,1.37,0.21,1.39,0.23,-0.30,-0.66,-1.13,1.08,1.10,1.17
265.82,1.36,0.20,1.33,0.15,-0.15,-0.50,-1.05,1.21,1.18,1.17
268.48,1.30,0.11,1.28,0.09,-0.03,-0.34,-0.96,1.28,1.25,1.20
271.16,1.17,-0.03,1.17,-0.03,0.09,-0.18,-0.87,1.26,1.26,1.21
273.87,1.05,-0.16,1.07,-0.16,0.18,-0.01,-0.78,1.24,1.25,1.22
276.61,0.92,-0.33,0.95,-0.29,0.28,0.15,-0.68,1.20,1.23,1.26
279.38,0.90,-0.36,0.85,-0.43,0.38,0.31,-0.58,1.28,1.22,1.27
282.17,0.73,-0.56,0.77,-0.53,0.49,0.47,-0.49,1.23,1.26,1.30
284.99,0.67,-0.65,0.72,-0.60,0.62,0.64,-0.39,1.30,1.34,1.33
287.84,0.67,-0.67,0.64,-0.72,0.76,0.80,-0.28,1.43,1.39,1.35
290.72,0.60,-0.78,0.55,-0.83,0.89,0.97,-0.18,1.50,1.44,1.39
293.63,0.35,-1.05,0.40,-1.01,1.03,1.13,-0.07,1.39,1.43,1.41
296.57,0.23,-1.20,0.24,-1.20,1.18,1.29,0.04,1.42,1.42,1.44
299.53,0.05,-1.41,0.07,-1.39,1.34,1.46,0.15,1.40,1.42,1.47
302.53,-0.01,-1.48,-0.05,-1.53,1.51,1.62,0.26,1.51,1.47,1.48
305.55,-0.21,-1.72,-0.18,-1.69,1.69,1.78,0.37,1.49,1.52,1.52
308.61,-0.30,-1.83,-0.30,-1.83,1.86,1.94,0.48,1.57,1.56,1.54
311.69,-0.45,-1.99,-0.47,-2.02,2.03,2.10,0.60,1.58,1.56,1.55
314.81,-0.61,-2.18,-0.62,-2.18,2.18,2.26,0.71,1.57,1.56,1.58
317.96,-0.83,-2.40,-0.79,-2.37,2.34,2.42,0.83,1.51,1.54,1.58
321.14,-0.93,-2.49,-0.94,-2.52,2.50,2.58,0.95,1.57,1.55,1.57
324.35,-1.10,-2.67,-1.08,-2.65,2.66,2.73,1.07,1.57,1.59,1.58
327.59,-1.18,-2.76,-1.19,-2.77,2.82,2.89,1.20,1.64,1.63,1.59
330.87,-1.33,-2.92,-1.34,-2.93,2.96,3.04,1.32,1.63,1.62,1.60
334.18,-1.48,-3.07,-1.51,-3.11,3.09,3.18,1.45,1.61,1.58,1.60
337.52,-1.72,-3.32,-1.67,-3.28,3.22,3.33,1.57,1.50,1.55,1.61
340.90,-1.81,-3.44,-1.78,-3.40,3.35,3.48,1.70,1.54,1.57,1.64
344.30,-1.83,-3.47,-1.85,-3.50,3.49,3.62,1.83,1.66,1.64,1.65
347.75,-1.89,-3.54,-1.90,-3.57,3.63,3.75,1.97,1.74,1.73,1.66
351.23,-2.02,-3.70,-2.02,-3.70,3.78,3.89,2.10,1.76,1.76,1.69
354.74,-2.16,-3.86,-2.17,-3.88,3.93,4.02,2.24,1.77,1.76,1.71
358.28,-2.38,-4.11,-2.35,-4.08,4.08,4.15,2.37,1.70,1.73,1.74
361.87,-2.49,-4.24,-2.51,-4.26,4.23,4.27,2.51,1.74,1.72,1.76
365.49,-2.68,-4.45,-2.66,-4.44,4.38,4.39,2.65,1.71,1.73,1.78
369.14,-2.76,-4.55,-2.78,-4.57,4.54,4.50,2.80,1.79,1.77,1.80
372.83,-2.91,-4.73,-2.88,-4.71,4.70,4.61,2.94,1.79,1.81,1.83
376.56,-2.97,-4.81,-2.96,-4.82,4.84,4.72,3.09,1.87,1.88,1.85
380.33,-3.06,-4.93,-3.07,-4.95,4.97,4.82,3.23,1.92,1.90,1.88
384.13,-3.17,-5.06,-3.18,-5.07,5.10,4.91,3.38,1.93,1.92,1.90
387.97,-3.35,-5.25,-3.32,-5.23,5.22,5.00,3.53,1.88,1.90,1.91
391.85,-3.44,-5.34,-3.46,-5.37,5.35,5.09,3.68,1.91,1.89,1.91
395.77,-3.60,-5.51,-3.57,-5.49,5.48,5.17,3.84,1.89,1.91,1.92
399.73,-3.66,-5.58,-3.65,-5.58,5.61,5.24,3.99,1.95,1.95,1.93
403.72,-3.74,-5.67,-3.76,-5.70,5.72,5.31,4.14,1.98,1.96,1.94
407.76,-3.85,-5.79,-3.87,-5.82,5.82,5.37,4.30,1.97,1.95,1.95
411.84,-4.02,-5.97,-3.99,-5.95,5.90,5.43,4.45,1.89,1.91,1.96
415.96,-4.10,-6.06,-4.08,-6.04,5.98,5.48,4.60,1.88,1.90,1.97
420.12,-4.11,-6.07,-4.11,-6.08,6.05,5.52,4.75,1.94,1.94,1.97
424.32,-4.11,-6.07,-4.11,-6.07,6.11,5.56,4.91,2.00,2.00,1.97
428.56,-4.11,-6.07,-4.14,-6.10,6.17,5.59,5.05,2.06,2.03,1.97
432.85,-4.20,-6.15,-4.21,-6.17,6.21,5.62,5.20,2.02,2.01,1.96
437.18,-4.32,-6.28,-4.28,-6.25,6.25,5.64,5.34,1.93,1.97,1.97
441.55,-4.34,-6.31,-4.33,-6.30,6.28,5.66,5.48,1.94,1.94,1.98
445.96,-4.34,-6.31,-4.35,-6.33,6.29,5.67,5.62,1.96,1.95,1.98
450.42,-4.34,-6.32,-4.35,-6.33,6.30,5.67,5.75,1.97,1.96,1.99
454.93,-4.34,-6.33,-4.34,-6.34,6.31,5.67,5.87,1.97,1.97,2.00
459.48,-4.34,-6.34,-4.30,-6.31,6.31,5.67,5.98,1.97,2.00,2.01
464.07,-4.25,-6.27,-4.24,-6.26,6.30,5.66,6.09,2.05,2.06,2.03
468.71,-4.14,-6.18,-4.17,-6.21,6.27,5.64,6.19,2.14,2.11,2.05
473.40,-4.11,-6.16,-4.12,-6.18,6.23,5.62,6.28,2.13,2.12,2.06
478.13,-4.11,-6.19,-4.12,-6.20,6.18,5.59,6.36,2.08,2.07,2.09
482.91,-4.11,-6.21,-4.09,-6.20,6.12,5.56,6.43,2.02,2.03,2.11
487.74,-4.06,-6.19,-4.01,-6.14,6.06,5.53,6.48,2.00,2.05,2.14
492.62,-3.84,-6.00,-3.86,-6.03,6.00,5.49,6.53,2.16,2.14,2.17
497.55,-3.69,-5.87,-3.69,-5.87,5.93,5.44,6.56,2.25,2.25,2.19
502.52,-3.53,-5.74,-3.54,-5.75,5.86,5.39,6.58,2.33,2.32,2.22
507.55,-3.44,-5.66,-3.47,-5.71,5.77,5.34,6.59,2.33,2.29,2.23
512.62,-3.43,-5.68,-3.41,-5.67,5.66,5.28,6.59,2.23,2.25,2.26
517.75,-3.39,-5.66,-3.33,-5.61,5.55,5.22,6.57,2.16,2.22,2.28
522.93,-3.18,-5.48,-3.20,-5.50,5.42,5.15,6.55,2.25,2.22,2.31
528.16,-3.00,-5.31,-3.03,-5.35,5.30,5.07,6.51,2.30,2.27,2.32
533.44,-2.85,-5.18,-2.81,-5.15,5.15,5.00,6.47,2.30,2.34,2.34
538.77,-2.63,-4.98,-2.62,-4.97,4.99,4.91,6.41,2.36,2.37,2.36
544.16,-2.37,-4.73,-2.43,-4.80,4.81,4.82,6.35,2.45,2.38,2.37
549.60,-2.28,-4.66,-2.23,-4.61,4.63,4.72,6.28,2.36,2.40,2.39
