frequency,raw,error,smoothed,error_smoothed,equalization,parametric_eq,fixed_band_eq,equalized_raw,equalized_smoothed,target
20.00,-20.99,-27.41,-21.09,-27.53,27.53,30.29,12.59,6.54,6.44,6.42
20.20,-20.93,-27.38,-20.99,-27.45,27.45,29.85,12.79,6.52,6.46,6.45
20.40,-20.88,-27.36,-20.88,-27.36,27.36,29.44,12.99,6.49,6.48,6.48
20.61,-20.81,-27.31,-20.77,-27.27,27.27,29.04,13.19,6.46,6.50,6.50
20.81,-20.72,-27.25,-20.66,-27.18,27.18,28.67,13.40,6.46,6.52,6.53
21.02,-20.65,-27.20,-20.54,-27.08,27.08,28.32,13.62,6.43,6.53,6.56
21.23,-20.49,-27.05,-20.42,-26.97,26.97,27.98,13.83,6.48,6.55,6.57
21.44,-20.35,-26.92,-20.30,-26.86,26.86,27.67,14.06,6.51,6.56,6.58
21.66,-20.19,-26.78,-20.17,-26.74,26.74,27.37,14.29,6.55,6.57,6.59
21.87,-20.04,-26.63,-20.04,-26.61,26.61,27.09,14.52,6.57,6.58,6.59
22.09,-19.88,-26.47,-19.90,-26.49,26.49,26.82,14.76,6.61,6.59,6.59
22.31,-19.74,-26.33,-19.76,-26.35,26.35,26.56,15.01,6.62,6.59,6.59
22.54,-19.58,-26.17,-19.60,-26.20,26.20,26.32,15.27,6.62,6.59,6.59
22.76,-19.44,-26.03,-19.44,-26.04,26.04,26.09,15.53,6.60,6.59,6.59
22.99,-19.28,-25.86,-19.28,-25.88,25.88,25.87,15.80,6.60,6.59,6.58
23.22,-19.13,-25.71,-19.12,-25.71,25.71,25.67,16.07,6.59,6.59,6.58
23.45,-18.97,-25.55,-18.97,-25.55,25.55,25.47,16.36,6.59,6.59,6.58
23.69,-18.81,-25.39,-18.81,-25.40,25.40,25.28,16.65,6.59,6.59,6.58
23.92,-18.66,-25.23,-18.66,-25.24,25.24,25.10,16.96,6.59,6.58,6.58
24.16,-18.51,-25.09,-18.50,-25.09,25.09,24.92,17.27,6.58,6.58,6.59
24.40,-18.35,-24.93,-18.35,-24.93,24.93,24.76,17.59,6.58,6.58,6.59
24.65,-18.20,-24.78,-18.20,-24.77,24.77,24.60,17.93,6.57,6.58,6.58
24.89,-18.04,-24.61,-18.04,-24.62,24.62,24.45,18.27,6.58,6.57,6.58
25.14,-17.89,-24.46,-17.89,-24.46,24.46,24.30,18.63,6.58,6.57,6.57
25.39,-17.73,-24.31,-17.74,-24.31,24.31,24.15,19.00,6.57,6.57,6.57
25.65,-17.58,-24.15,-17.58,-24.15,24.15,24.02,19.38,6.58,6.57,6.57
25.91,-17.44,-24.00,-17.43,-24.00,24.00,23.88,19.78,6.56,6.57,6.56
26.16,-17.28,-23.84,-17.28,-23.85,23.85,23.75,20.20,6.57,6.56,6.56
26.43,-17.13,-23.69,-17.13,-23.69,23.69,23.63,20.63,6.56,6.56,6.56
26.69,-16.98,-23.53,-16.98,-23.54,23.54,23.50,21.07,6.56,6.56,6.56
26.96,-16.83,-23.39,-16.83,-23.38,23.38,23.38,21.54,6.55,6.55,6.56
27.23,-16.69,-23.24,-16.68,-23.23,23.23,23.26,22.02,6.54,6.55,6.55
27.50,-16.53,-23.08,-16.53,-23.07,23.07,23.14,22.52,6.54,6.55,6.55
27.77,-16.38,-22.92,-16.38,-22.92,22.92,23.03,23.04,6.54,6.54,6.54
28.05,-16.22,-22.76,-16.22,-22.76,22.76,22.91,23.58,6.55,6.54,6.54
28.33,-16.07,-22.60,-16.07,-22.61,22.61,22.80,24.13,6.54,6.53,6.53
28.62,-15.92,-22.45,-15.92,-22.45,22.45,22.68,24.69,6.53,6.53,6.53
28.90,-15.78,-22.30,-15.77,-22.30,22.30,22.57,25.26,6.52,6.53,6.52
29.19,-15.62,-22.13,-15.62,-22.14,22.14,22.45,25.83,6.52,6.52,6.51
29.48,-15.48,-22.00,-15.47,-21.98,21.98,22.34,26.38,6.51,6.51,6.52
29.78,-15.32,-21.83,-15.32,-21.83,21.83,22.22,26.90,6.51,6.51,6.51
30.08,-15.18,-21.69,-15.17,-21.67,21.67,22.10,27.36,6.49,6.50,6.51
30.38,-15.01,-21.51,-15.02,-21.51,21.51,21.98,27.74,6.50,6.50,6.50
30.68,-14.87,-21.36,-14.87,-21.36,21.36,21.85,28.02,6.49,6.49,6.49
30.99,-14.71,-21.19,-14.71,-21.20,21.20,21.73,28.17,6.49,6.48,6.48
31.30,-14.57,-21.05,-14.56,-21.04,21.04,21.60,28.18,6.47,6.48,6.48
31.61,-14.41,-20.88,-14.41,-20.88,20.88,21.47,28.04,6.48,6.47,6.48
31.93,-14.27,-20.73,-14.26,-20.73,20.73,21.34,27.78,6.46,6.46,6.46
32.24,-14.10,-20.55,-14.11,-20.57,20.57,21.20,27.41,6.47,6.46,6.45
32.57,-13.96,-20.41,-13.96,-20.41,20.41,21.06,26.96,6.45,6.45,6.45
32.89,-13.82,-20.26,-13.81,-20.26,20.26,20.92,26.46,6.44,6.44,6.44
33.22,-13.66,-20.09,-13.67,-20.10,20.10,20.77,25.93,6.44,6.43,6.43
33.55,-13.52,-19.94,-13.52,-19.94,19.94,20.62,25.38,6.42,6.42,6.43
33.89,-13.37,-19.78,-13.37,-19.78,19.78,20.47,24.83,6.42,6.42,6.42
34.23,-13.22,-19.63,-13.22,-19.63,19.63,20.31,24.29,6.41,6.41,6.41
34.57,-13.08,-19.48,-13.07,-19.47,19.47,20.15,23.76,6.39,6.40,6.40
34.92,-12.93,-19.31,-12.92,-19.31,19.31,19.99,23.25,6.38,6.39,6.39
35.27,-12.78,-19.16,-12.77,-19.15,19.15,19.82,22.75,6.37,6.38,6.38
35.62,-12.64,-19.01,-12.62,-18.99,18.99,19.65,22.28,6.35,6.37,6.37
35.97,-12.47,-18.82,-12.48,-18.84,18.84,19.48,21.82,6.37,6.36,6.35
36.33,-12.33,-18.67,-12.33,-18.67,18.67,19.31,21.37,6.35,6.35,6.35
36.70,-12.17,-18.50,-12.18,-18.51,18.51,19.13,20.95,6.34,6.33,6.33
37.06,-12.03,-18.35,-12.03,-18.35,18.35,18.95,20.55,6.33,6.32,6.32
37.43,-11.89,-18.20,-11.88,-18.19,18.19,18.76,20.16,6.31,6.31,6.31
37.81,-11.73,-18.03,-11.73,-18.03,18.03,18.58,19.78,6.30,6.30,6.30
38.19,-11.59,-17.87,-11.58,-17.87,17.87,18.39,19.42,6.28,6.29,6.29
38.57,-11.44,-17.72,-11.44,-17.71,17.71,18.20,19.08,6.27,6.27,6.28
38.95,-11.29,-17.55,-11.29,-17.55,17.55,18.01,18.75,6.26,6.26,6.26
39.34,-11.15,-17.39,-11.14,-17.39,17.39,17.82,18.43,6.24,6.25,6.25
39.74,-11.00,-17.23,-10.99,-17.23,17.23,17.62,18.12,6.23,6.24,6.23
40.14,-10.84,-17.07,-10.84,-17.07,17.07,17.43,17.83,6.23,6.23,6.23
40.54,-10.70,-16.91,-10.70,-16.91,16.91,17.23,17.54,6.21,6.22,6.21
40.94,-10.56,-16.76,-10.55,-16.75,16.75,17.04,17.27,6.20,6.20,6.20
41.35,-10.40,-16.58,-10.40,-16.60,16.60,16.84,17.01,6.20,6.19,6.19
41.76,-10.26,-16.43,-10.26,-16.43,16.43,16.64,16.75,6.18,6.18,6.18
42.18,-10.12,-16.29,-10.11,-16.28,16.28,16.44,16.51,6.16,6.16,6.17
42.60,-9.96,-16.11,-9.97,-16.11,16.11,16.24,16.27,6.16,6.15,6.15
43.03,-9.82,-15.96,-9.82,-15.95,15.95,16.04,16.04,6.14,6.13,6.15
43.46,-9.68,-15.80,-9.68,-15.79,15.79,15.85,15.82,6.12,6.12,6.13
43.90,-9.54,-15.64,-9.53,-15.63,15.63,15.65,15.61,6.10,6.10,6.10
44.33,-9.40,-15.48,-9.39,-15.48,15.48,15.45,15.40,6.08,6.08,6.08
44.78,-9.26,-15.32,-9.25,-15.32,15.32,15.25,15.20,6.06,6.07,6.06
45.23,-9.12,-15.16,-9.11,-15.16,15.16,15.06,15.01,6.04,6.05,6.04
45.68,-8.97,-14.99,-8.98,-15.00,15.00,14.86,14.82,6.03,6.03,6.02
46.13,-8.82,-14.82,-8.84,-14.85,14.85,14.66,14.64,6.03,6.01,6.00
46.60,-8.70,-14.69,-8.70,-14.69,14.69,14.47,14.47,5.99,5.99,5.99
47.06,-8.56,-14.52,-8.57,-14.53,14.53,14.28,14.30,5.97,5.96,5.97
47.53,-8.44,-14.38,-8.43,-14.37,14.37,14.08,14.13,5.94,5.94,5.95
48.01,-8.30,-14.23,-8.30,-14.22,14.22,13.89,13.97,5.92,5.91,5.93
48.49,-8.18,-14.08,-8.17,-14.06,14.06,13.70,13.82,5.88,5.89,5.90
48.97,-8.04,-13.91,-8.03,-13.90,13.90,13.51,13.67,5.86,5.87,5.87
49.46,-7.91,-13.74,-7.90,-13.74,13.74,13.33,13.52,5.83,5.84,5.83
49.96,-7.77,-13.57,-7.77,-13.58,13.58,13.14,13.38,5.81,5.82,5.80
50.46,-7.65,-13.44,-7.63,-13.42,13.42,12.96,13.24,5.77,5.79,5.79
50.96,-7.49,-13.25,-7.50,-13.26,13.26,12.77,13.10,5.77,5.76,5.76
51.47,-7.38,-13.10,-7.37,-13.10,13.10,12.59,12.97,5.72,5.73,5.73
51.99,-7.23,-12.93,-7.23,-12.94,12.94,12.41,12.84,5.71,5.71,5.70
52.51,-7.11,-12.79,-7.09,-12.77,12.77,12.23,12.72,5.66,5.68,5.68
53.03,-6.96,-12.61,-6.96,-12.61,12.61,12.06,12.59,5.65,5.65,5.66
53.56,-6.81,-12.44,-6.82,-12.45,12.45,11.88,12.47,5.64,5.62,5.63
54.10,-6.70,-12.30,-6.69,-12.29,12.29,11.71,12.35,5.59,5.60,5.60
54.64,-6.54,-12.11,-6.56,-12.13,12.13,11.54,12.23,5.59,5.57,5.57
55.18,-6.44,-11.98,-6.43,-11.97,11.97,11.37,12.11,5.54,5.55,5.54
55.74,-6.30,-11.81,-6.30,-11.82,11.82,11.20,11.99,5.52,5.52,5.51
56.29,-6.17,-11.66,-6.17,-11.66,11.66,11.03,11.87,5.49,5.49,5.49
56.86,-6.04,-11.50,-6.04,-11.51,11.51,10.87,11.76,5.47,5.47,5.46
57.42,-5.93,-11.35,-5.92,-11.36,11.36,10.70,11.64,5.43,5.44,5.43
58.00,-5.80,-11.20,-5.80,-11.21,11.21,10.54,11.52,5.41,5.41,5.40
58.58,-5.67,-11.05,-5.68,-11.06,11.06,10.38,11.40,5.39,5.38,5.38
59.16,-5.56,-10.91,-5.56,-10.91,10.91,10.22,11.28,5.36,5.35,5.36
59.76,-5.45,-10.78,-5.45,-10.77,10.77,10.06,11.16,5.32,5.32,5.33
60.35,-5.34,-10.63,-5.34,-10.63,10.63,9.91,11.03,5.29,5.29,5.30
60.96,-5.23,-10.50,-5.23,-10.49,10.49,9.76,10.90,5.26,5.26,5.27
61.57,-5.12,-10.34,-5.13,-10.35,10.35,9.60,10.78,5.23,5.22,5.22
62.18,-5.01,-10.19,-5.02,-10.21,10.21,9.45,10.65,5.20,5.19,5.18
62.80,-4.93,-10.08,-4.92,-10.07,10.07,9.31,10.51,5.15,5.16,5.15
63.43,-4.82,-9.93,-4.81,-9.93,9.93,9.16,10.38,5.12,5.12,5.11
64.07,-4.71,-9.79,-4.71,-9.80,9.80,9.02,10.24,5.09,5.09,5.08
64.71,-4.61,-9.66,-4.60,-9.66,9.66,8.87,10.10,5.05,5.05,5.05
65.35,-4.52,-9.54,-4.50,-9.52,9.52,8.73,9.96,5.00,5.02,5.02
66.01,-4.41,-9.39,-4.40,-9.38,9.38,8.59,9.81,4.97,4.98,4.98
66.67,-4.30,-9.25,-4.29,-9.24,9.24,8.45,9.66,4.94,4.95,4.95
67.33,-4.19,-9.10,-4.19,-9.10,9.10,8.31,9.52,4.91,4.91,4.91
68.01,-4.08,-8.96,-4.08,-8.96,8.96,8.18,9.36,4.88,4.88,4.88
68.69,-3.97,-8.81,-3.98,-8.82,8.82,8.05,9.21,4.85,4.84,4.84
69.37,-3.87,-8.67,-3.87,-8.67,8.67,7.91,9.06,4.81,4.80,4.80
70.07,-3.76,-8.52,-3.77,-8.53,8.53,7.78,8.90,4.77,4.77,4.76
70.77,-3.67,-8.40,-3.66,-8.39,8.39,7.65,8.75,4.72,4.73,4.73
71.48,-3.56,-8.25,-3.56,-8.24,8.24,7.53,8.59,4.69,4.69,4.69
72.19,-3.45,-8.10,-3.45,-8.10,8.10,7.40,8.43,4.65,4.65,4.65
72.91,-3.37,-7.97,-3.35,-7.96,7.96,7.28,8.27,4.59,4.61,4.61
73.64,-3.26,-7.82,-3.25,-7.82,7.82,7.15,8.11,4.56,4.57,4.56
74.38,-3.15,-7.67,-3.16,-7.68,7.68,7.03,7.95,4.53,4.53,4.53
75.12,-3.07,-7.55,-3.06,-7.55,7.55,6.91,7.79,4.48,4.49,4.48
75.87,-2.96,-7.40,-2.96,-7.41,7.41,6.79,7.63,4.45,4.45,4.44
76.63,-2.85,-7.25,-2.87,-7.28,7.28,6.68,7.48,4.43,4.41,4.41
77.40,-2.79,-7.15,-2.78,-7.14,7.14,6.56,7.32,4.35,4.36,4.37
78.17,-2.68,-6.99,-2.69,-7.01,7.01,6.45,7.16,4.33,4.32,4.32
78.95,-2.61,-6.89,-2.60,-6.88,6.88,6.33,7.00,4.27,4.28,4.29
79.74,-2.51,-6.75,-2.51,-6.75,6.75,6.22,6.85,4.24,4.24,4.24
80.54,-2.43,-6.63,-2.42,-6.62,6.62,6.11,6.69,4.19,4.20,4.20
81.35,-2.34,-6.50,-2.34,-6.49,6.49,6.00,6.54,4.16,4.16,4.16
82.16,-2.26,-6.37,-2.26,-6.37,6.37,5.89,6.38,4.11,4.11,4.11
82.98,-2.18,-6.25,-2.18,-6.25,6.25,5.79,6.23,4.07,4.07,4.08
83.81,-2.10,-6.12,-2.10,-6.12,6.12,5.68,6.08,4.02,4.02,4.02
84.65,-2.02,-5.99,-2.02,-6.00,6.00,5.58,5.93,3.98,3.98,3.97
85.50,-1.95,-5.88,-1.95,-5.88,5.88,5.47,5.78,3.93,3.93,3.93
86.35,-1.87,-5.75,-1.87,-5.76,5.76,5.37,5.63,3.89,3.89,3.89
87.22,-1.79,-5.62,-1.80,-5.64,5.64,5.27,5.48,3.85,3.84,3.84
88.09,-1.72,-5.50,-1.73,-5.52,5.52,5.17,5.34,3.80,3.79,3.79
88.97,-1.66,-5.40,-1.66,-5.40,5.40,5.07,5.19,3.74,3.74,3.74
89.86,-1.60,-5.29,-1.59,-5.28,5.28,4.97,5.05,3.68,3.69,3.69
90.76,-1.53,-5.16,-1.53,-5.16,5.16,4.88,4.90,3.63,3.64,3.63
91.66,-1.47,-5.05,-1.46,-5.05,5.05,4.78,4.76,3.58,3.58,3.59
92.58,-1.40,-4.92,-1.40,-4.93,4.93,4.69,4.62,3.53,3.53,3.52
93.51,-1.33,-4.81,-1.33,-4.81,4.81,4.60,4.48,3.48,3.48,3.48
94.44,-1.29,-4.71,-1.27,-4.69,4.69,4.50,4.34,3.40,3.42,3.42
95.39,-1.21,-4.58,-1.21,-4.57,4.57,4.41,4.20,3.37,3.36,3.37
96.34,-1.15,-4.45,-1.15,-4.46,4.46,4.32,4.06,3.31,3.31,3.30
97.30,-1.10,-4.34,-1.09,-4.34,4.34,4.23,3.93,3.24,3.25,3.25
98.28,-1.04,-4.23,-1.03,-4.22,4.22,4.14,3.79,3.18,3.19,3.19
99.26,-0.98,-4.11,-0.97,-4.10,4.10,4.05,3.66,3.13,3.14,3.13
100.25,-0.91,-3.98,-0.91,-3.99,3.99,3.97,3.53,3.08,3.08,3.08
101.25,-0.85,-3.87,-0.85,-3.88,3.88,3.88,3.39,3.03,3.02,3.02
102.27,-0.79,-3.75,-0.80,-3.76,3.76,3.80,3.26,2.97,2.96,2.96
103.29,-0.75,-3.64,-0.75,-3.65,3.65,3.71,3.14,2.90,2.90,2.89
104.32,-0.70,-3.54,-0.69,-3.54,3.54,3.63,3.01,2.84,2.85,2.85
105.37,-0.64,-3.43,-0.64,-3.43,3.43,3.54,2.89,2.79,2.79,2.79
106.42,-0.59,-3.32,-0.60,-3.32,3.32,3.46,2.76,2.74,2.73,2.73
107.48,-0.56,-3.23,-0.55,-3.22,3.22,3.38,2.64,2.66,2.67,2.67
108.56,-0.50,-3.10,-0.51,-3.11,3.11,3.30,2.52,2.62,2.61,2.61
109.64,-0.47,-3.02,-0.46,-3.01,3.01,3.22,2.41,2.54,2.55,2.55
110.74,-0.43,-2.92,-0.43,-2.91,2.91,3.14,2.30,2.48,2.48,2.49
111.85,-0.39,-2.82,-0.39,-2.81,2.81,3.06,2.18,2.42,2.42,2.43
112.97,-0.35,-2.70,-0.35,-2.71,2.71,2.98,2.08,2.36,2.36,2.36
114.10,-0.32,-2.62,-0.32,-2.61,2.61,2.90,1.97,2.30,2.30,2.30
115.24,-0.29,-2.52,-0.28,-2.52,2.52,2.82,1.87,2.23,2.24,2.23
116.39,-0.26,-2.43,-0.25,-2.42,2.42,2.74,1.78,2.17,2.17,2.17
117.55,-0.23,-2.33,-0.22,-2.33,2.33,2.66,1.68,2.10,2.11,2.10
118.73,-0.19,-2.23,-0.19,-2.24,2.24,2.59,1.59,2.05,2.05,2.04
119.92,-0.17,-2.15,-0.17,-2.15,2.15,2.51,1.51,1.98,1.98,1.98
121.12,-0.15,-2.07,-0.14,-2.06,2.06,2.43,1.42,1.91,1.92,1.92
122.33,-0.11,-1.96,-0.12,-1.98,1.98,2.35,1.35,1.87,1.86,1.86
123.55,-0.10,-1.90,-0.10,-1.89,1.89,2.28,1.27,1.80,1.80,1.80
124.79,-0.08,-1.82,-0.08,-1.82,1.82,2.20,1.21,1.74,1.73,1.74
126.03,-0.05,-1.73,-0.06,-1.74,1.74,2.13,1.14,1.69,1.67,1.68
127.29,-0.05,-1.67,-0.05,-1.66,1.66,2.05,1.08,1.61,1.61,1.62
128.57,-0.05,-1.60,-0.03,-1.59,1.59,1.97,1.03,1.54,1.55,1.55
129.85,-0.01,-1.50,-0.02,-1.52,1.52,1.90,0.97,1.51,1.49,1.49
131.15,-0.01,-1.44,-0.01,-1.45,1.45,1.82,0.93,1.44,1.44,1.43
132.46,-0.01,-1.38,-0.00,-1.38,1.38,1.75,0.88,1.37,1.38,1.37
133.79,-0.01,-1.34,0.01,-1.31,1.31,1.67,0.84,1.31,1.32,1.33
135.12,-0.01,-1.27,0.02,-1.25,1.25,1.60,0.80,1.24,1.27,1.26
136.48,0.02,-1.19,0.02,-1.19,1.19,1.52,0.77,1.21,1.21,1.22
137.84,0.04,-1.12,0.03,-1.13,1.13,1.45,0.74,1.18,1.16,1.16
139.22,0.04,-1.06,0.03,-1.08,1.08,1.37,0.71,1.12,1.11,1.10
140.61,0.04,-1.01,0.04,-1.03,1.03,1.30,0.68,1.07,1.06,1.05
142.02,0.04,-0.97,0.04,-0.97,0.97,1.22,0.66,1.02,1.01,1.02
143.44,0.04,-0.92,0.04,-0.92,0.92,1.15,0.64,0.97,0.96,0.97
144.87,0.04,-0.87,0.04,-0.88,0.88,1.08,0.62,0.92,0.92,0.92
146.32,0.04,-0.83,0.04,-0.83,0.83,1.00,0.60,0.87,0.87,0.87
147.78,0.04,-0.79,0.04,-0.78,0.78,0.93,0.59,0.82,0.82,0.83
149.26,0.04,-0.74,0.05,-0.73,0.73,0.85,0.57,0.77,0.78,0.78
150.75,0.04,-0.69,0.05,-0.68,0.68,0.78,0.56,0.72,0.73,0.73
152.26,0.04,-0.64,0.05,-0.63,0.63,0.71,0.54,0.68,0.68,0.68
153.78,0.04,-0.60,0.05,-0.59,0.59,0.64,0.53,0.63,0.64,0.64
155.32,0.04,-0.55,0.05,-0.54,0.54,0.57,0.51,0.58,0.59,0.59
156.88,0.04,-0.51,0.05,-0.49,0.49,0.50,0.50,0.53,0.54,0.55
158.44,0.06,-0.43,0.06,-0.44,0.44,0.43,0.49,0.50,0.50,0.50
160.03,0.06,-0.39,0.06,-0.39,0.39,0.36,0.48,0.46,0.45,0.45
161.63,0.06,-0.34,0.06,-0.35,0.35,0.29,0.46,0.41,0.41,0.40
163.24,0.06,-0.29,0.06,-0.30,0.30,0.23,0.45,0.36,0.36,0.35
164.88,0.09,-0.22,0.06,-0.25,0.25,0.17,0.44,0.34,0.31,0.31
166.53,0.06,-0.21,0.06,-0.21,0.21,0.10,0.42,0.27,0.27,0.27
168.19,0.06,-0.16,0.06,-0.16,0.16,0.04,0.41,0.23,0.22,0.22
169.87,0.04,-0.14,0.06,-0.12,0.12,-0.01,0.39,0.17,0.18,0.18
171.57,0.04,-0.10,0.05,-0.08,0.08,-0.07,0.38,0.13,0.13,0.14
173.29,0.04,-0.05,0.04,-0.05,0.05,-0.12,0.36,0.09,0.09,0.10
175.02,0.04,-0.01,0.04,-0.01,0.01,-0.17,0.35,0.05,0.05,0.05
176.77,0.04,0.04,0.03,0.03,-0.03,-0.22,0.33,0.01,0.00,0.00
178.54,0.04,0.09,0.03,0.07,-0.07,-0.26,0.31,-0.02,-0.04,-0.05
180.32,0.02,0.11,0.02,0.10,-0.10,-0.30,0.29,-0.08,-0.08,-0.08
182.13,-0.01,0.11,0.01,0.14,-0.14,-0.34,0.27,-0.15,-0.12,-0.12
183.95,-0.01,0.16,0.01,0.17,-0.17,-0.37,0.25,-0.18,-0.17,-0.17
185.79,-0.01,0.20,0.00,0.21,-0.21,-0.40,0.23,-0.22,-0.21,-0.20
187.65,-0.01,0.24,-0.00,0.24,-0.24,-0.43,0.21,-0.25,-0.25,-0.25
189.52,-0.01,0.28,-0.01,0.28,-0.28,-0.45,0.19,-0.28,-0.28,-0.28
191.42,-0.01,0.31,-0.01,0.31,-0.31,-0.47,0.17,-0.31,-0.32,-0.32
193.33,-0.01,0.34,-0.02,0.33,-0.33,-0.48,0.14,-0.34,-0.35,-0.35
195.27,-0.02,0.37,-0.03,0.36,-0.36,-0.49,0.12,-0.37,-0.39,-0.38
197.22,-0.05,0.37,-0.04,0.38,-0.38,-0.50,0.09,-0.43,-0.42,-0.42
199.19,-0.05,0.41,-0.05,0.40,-0.40,-0.51,0.07,-0.44,-0.45,-0.46
201.18,-0.05,0.43,-0.06,0.41,-0.41,-0.51,0.05,-0.46,-0.47,-0.48
203.19,-0.05,0.45,-0.07,0.43,-0.43,-0.51,0.02,-0.48,-0.50,-0.50
205.23,-0.10,0.43,-0.08,0.44,-0.44,-0.50,-0.00,-0.54,-0.52,-0.53
207.28,-0.10,0.44,-0.09,0.45,-0.45,-0.49,-0.03,-0.55,-0.54,-0.53
209.35,-0.10,0.46,-0.11,0.45,-0.45,-0.48,-0.05,-0.55,-0.56,-0.56
211.44,-0.15,0.44,-0.12,0.46,-0.46,-0.47,-0.08,-0.61,-0.58,-0.59
213.56,-0.15,0.45,-0.14,0.46,-0.46,-0.45,-0.10,-0.61,-0.60,-0.60
215.69,-0.15,0.45,-0.15,0.46,-0.46,-0.43,-0.12,-0.61,-0.61,-0.60
217.85,-0.16,0.46,-0.16,0.46,-0.46,-0.41,-0.14,-0.61,-0.62,-0.62
220.03,-0.19,0.45,-0.18,0.45,-0.45,-0.39,-0.17,-0.64,-0.63,-0.63
222.23,-0.19,0.46,-0.19,0.44,-0.44,-0.37,-0.19,-0.63,-0.64,-0.65
224.45,-0.19,0.45,-0.21,0.43,-0.43,-0.34,-0.21,-0.62,-0.64,-0.64
226.70,-0.24,0.41,-0.22,0.42,-0.42,-0.32,-0.22,-0.66,-0.65,-0.64
228.96,-0.24,0.41,-0.23,0.42,-0.42,-0.29,-0.24,-0.65,-0.65,-0.65
231.25,-0.24,0.40,-0.25,0.40,-0.40,-0.26,-0.26,-0.64,-0.65,-0.64
233.57,-0.26,0.39,-0.26,0.38,-0.38,-0.24,-0.27,-0.64,-0.65,-0.64
235.90,-0.29,0.36,-0.28,0.37,-0.37,-0.21,-0.28,-0.66,-0.64,-0.64
238.26,-0.29,0.36,-0.29,0.35,-0.35,-0.18,-0.29,-0.63,-0.64,-0.65
240.64,-0.32,0.32,-0.31,0.32,-0.32,-0.15,-0.30,-0.64,-0.63,-0.64
243.05,-0.33,0.30,-0.33,0.30,-0.30,-0.12,-0.31,-0.63,-0.63,-0.63
245.48,-0.33,0.29,-0.34,0.27,-0.27,-0.09,-0.31,-0.60,-0.62,-0.62
247.93,-0.38,0.23,-0.36,0.25,-0.25,-0.06,-0.31,-0.62,-0.61,-0.61
250.41,-0.38,0.23,-0.38,0.22,-0.22,-0.03,-0.31,-0.59,-0.60,-0.61
252.92,-0.39,0.20,-0.40,0.19,-0.19,0.00,-0.30,-0.57,-0.58,-0.59
255.45,-0.43,0.14,-0.42,0.15,-0.15,0.04,-0.30,-0.58,-0.57,-0.56
258.00,-0.43,0.13,-0.44,0.12,-0.12,0.07,-0.29,-0.55,-0.55,-0.55
260.58,-0.47,0.07,-0.45,0.08,-0.08,0.10,-0.28,-0.55,-0.54,-0.54
263.19,-0.47,0.05,-0.47,0.05,-0.05,0.12,-0.27,-0.51,-0.52,-0.52
265.82,-0.49,0.02,-0.49,0.01,-0.01,0.15,-0.25,-0.50,-0.50,-0.51
268.48,-0.52,-0.03,-0.51,-0.03,0.03,0.18,-0.23,-0.49,-0.49,-0.48
271.16,-0.53,-0.07,-0.54,-0.07,0.07,0.21,-0.22,-0.46,-0.47,-0.46
273.87,-0.57,-0.12,-0.56,-0.11,0.11,0.24,-0.19,-0.46,-0.45,-0.45
276.61,-0.57,-0.14,-0.58,-0.15,0.15,0.27,-0.17,-0.42,-0.43,-0.42
279.38,-0.61,-0.20,-0.60,-0.19,0.19,0.30,-0.15,-0.42,-0.41,-0.41
282.17,-0.61,-0.21,-0.62,-0.23,0.23,0.33,-0.12,-0.38,-0.39,-0.40
284.99,-0.66,-0.29,-0.65,-0.27,0.27,0.35,-0.09,-0.39,-0.38,-0.37
287.84,-0.66,-0.30,-0.67,-0.31,0.31,0.38,-0.06,-0.35,-0.36,-0.36
290.72,-0.70,-0.36,-0.69,-0.35,0.35,0.41,-0.03,-0.34,-0.34,-0.33
293.63,-0.70,-0.38,-0.71,-0.40,0.40,0.43,-0.00,-0.30,-0.31,-0.32
296.57,-0.75,-0.45,-0.73,-0.44,0.44,0.46,0.03,-0.31,-0.29,-0.29
299.53,-0.75,-0.47,-0.75,-0.48,0.48,0.49,0.06,-0.27,-0.27,-0.28
302.53,-0.78,-0.51,-0.77,-0.52,0.52,0.51,0.10,-0.26,-0.25,-0.26
305.55,-0.80,-0.57,-0.79,-0.56,0.56,0.54,0.13,-0.24,-0.23,-0.23
308.61,-0.80,-0.59,-0.81,-0.60,0.60,0.56,0.17,-0.20,-0.21,-0.21
311.69,-0.84,-0.65,-0.83,-0.64,0.64,0.59,0.21,-0.20,-0.19,-0.19
314.81,-0.84,-0.69,-0.84,-0.68,0.68,0.61,0.25,-0.16,-0.16,-0.15
317.96,-0.84,-0.70,-0.86,-0.72,0.72,0.64,0.28,-0.12,-0.14,-0.13
321.14,-0.89,-0.77,-0.88,-0.75,0.75,0.66,0.32,-0.13,-0.12,-0.12
324.35,-0.89,-0.79,-0.89,-0.79,0.79,0.69,0.36,-0.10,-0.10,-0.10
327.59,-0.89,-0.81,-0.90,-0.82,0.82,0.71,0.40,-0.06,-0.08,-0.07
330.87,-0.94,-0.88,-0.91,-0.86,0.86,0.74,0.44,-0.08,-0.06,-0.06
334.18,-0.94,-0.90,-0.93,-0.89,0.89,0.76,0.48,-0.05,-0.04,-0.04
337.52,-0.94,-0.91,-0.94,-0.92,0.92,0.79,0.52,-0.02,-0.02,-0.02
340.90,-0.94,-0.94,-0.95,-0.95,0.95,0.81,0.56,0.01,0.00,0.00
344.30,-0.98,-1.00,-0.96,-0.98,0.98,0.84,0.60,0.00,0.02,0.02
347.75,-0.98,-1.02,-0.97,-1.01,1.01,0.86,0.65,0.03,0.04,0.04
351.23,-0.98,-1.03,-0.99,-1.04,1.04,0.88,0.69,0.06,0.05,0.05
354.74,-0.98,-1.05,-1.00,-1.07,1.07,0.91,0.73,0.09,0.07,0.07
358.28,-1.01,-1.10,-1.01,-1.09,1.09,0.93,0.77,0.09,0.09,0.09
361.87,-1.03,-1.14,-1.02,-1.12,1.12,0.96,0.82,0.09,0.11,0.11
365.49,-1.03,-1.15,-1.03,-1.15,1.15,0.98,0.86,0.12,0.12,0.13
369.14,-1.03,-1.16,-1.04,-1.17,1.17,1.01,0.90,0.15,0.14,0.13
372.83,-1.03,-1.18,-1.05,-1.20,1.20,1.03,0.95,0.17,0.15,0.15
376.56,-1.08,-1.24,-1.06,-1.22,1.22,1.06,0.99,0.14,0.17,0.16
380.33,-1.08,-1.27,-1.07,-1.24,1.24,1.08,1.04,0.17,0.18,0.19
384.13,-1.08,-1.27,-1.07,-1.27,1.27,1.11,1.08,0.19,0.19,0.20
387.97,-1.08,-1.28,-1.09,-1.29,1.29,1.13,1.13,0.21,0.20,0.20
391.85,-1.08,-1.29,-1.10,-1.31,1.31,1.15,1.17,0.24,0.22,0.21
395.77,-1.12,-1.35,-1.11,-1.33,1.33,1.18,1.22,0.22,0.23,0.23
399.73,-1.12,-1.36,-1.11,-1.35,1.35,1.20,1.27,0.24,0.24,0.24
403.72,-1.12,-1.37,-1.12,-1.37,1.37,1.23,1.31,0.25,0.25,0.25
407.76,-1.12,-1.37,-1.13,-1.39,1.39,1.25,1.36,0.27,0.26,0.26
411.84,-1.12,-1.39,-1.14,-1.41,1.41,1.28,1.40,0.29,0.27,0.27
415.96,-1.17,-1.45,-1.15,-1.42,1.42,1.30,1.45,0.26,0.28,0.28
420.12,-1.17,-1.46,-1.15,-1.44,1.44,1.33,1.49,0.27,0.29,0.29
424.32,-1.17,-1.47,-1.15,-1.45,1.45,1.35,1.53,0.29,0.30,0.30
428.56,-1.17,-1.48,-1.16,-1.47,1.47,1.38,1.58,0.30,0.31,0.31
432.85,-1.17,-1.49,-1.17,-1.49,1.49,1.41,1.62,0.32,0.32,0.32
437.18,-1.17,-1.49,-1.17,-1.50,1.50,1.43,1.66,0.34,0.33,0.33
441.55,-1.17,-1.51,-1.18,-1.52,1.52,1.46,1.70,0.35,0.34,0.35
445.96,-1.17,-1.52,-1.18,-1.54,1.54,1.48,1.74,0.37,0.36,0.36
