frequency,raw,error,smoothed,error_smoothed,equalization,parametric_eq,fixed_band_eq,equalized_raw,equalized_smoothed,target
20.00,-16.74,-16.06,-16.73,-16.05,16.05,13.79,5.42,-0.68,-0.68,-0.68
20.20,-16.62,-15.94,-16.62,-15.95,15.95,13.94,5.55,-0.67,-0.67,-0.68
20.40,-16.52,-15.84,-16.51,-15.84,15.84,14.07,5.68,-0.68,-0.67,-0.68
20.61,-16.40,-15.72,-16.40,-15.72,15.73,14.20,5.81,-0.67,-0.67,-0.68
20.81,-16.29,-15.61,-16.29,-15.61,15.61,14.32,5.95,-0.68,-0.68,-0.68
21.02,-16.18,-15.50,-16.17,-15.49,15.49,14.44,6.09,-0.69,-0.69,-0.68
21.23,-16.06,-15.36,-16.06,-15.37,15.36,14.54,6.24,-0.69,-0.70,-0.70
21.44,-15.95,-15.24,-15.95,-15.24,15.24,14.62,6.39,-0.71,-0.71,-0.71
21.66,-15.83,-15.10,-15.83,-15.10,15.10,14.70,6.54,-0.73,-0.73,-0.73
21.87,-15.71,-14.97,-15.71,-14.97,14.97,14.76,6.70,-0.75,-0.74,-0.75
22.09,-15.59,-14.83,-15.59,-14.83,14.83,14.80,6.86,-0.76,-0.76,-0.76
22.31,-15.47,-14.68,-15.47,-14.68,14.68,14.83,7.03,-0.78,-0.78,-0.79
22.54,-15.35,-14.54,-15.34,-14.54,14.53,14.84,7.20,-0.81,-0.81,-0.81
22.76,-15.22,-14.39,-15.22,-14.39,14.39,14.84,7.37,-0.83,-0.84,-0.83
22.99,-15.10,-14.24,-15.09,-14.24,14.24,14.81,7.55,-0.86,-0.86,-0.86
23.22,-14.97,-14.08,-14.97,-14.08,14.09,14.77,7.73,-0.88,-0.88,-0.89
23.45,-14.84,-13.92,-14.84,-13.93,13.93,14.71,7.92,-0.90,-0.90,-0.92
23.69,-14.71,-13.78,-14.71,-13.78,13.78,14.63,8.11,-0.92,-0.92,-0.93
23.92,-14.58,-13.63,-14.58,-13.63,13.63,14.53,8.31,-0.94,-0.94,-0.95
24.16,-14.45,-13.49,-14.45,-13.49,13.48,14.42,8.51,-0.96,-0.96,-0.96
24.40,-14.32,-13.34,-14.32,-13.34,13.33,14.29,8.72,-0.98,-0.98,-0.98
24.65,-14.19,-13.19,-14.18,-13.19,13.18,14.14,8.93,-1.01,-1.00,-1.00
24.89,-14.04,-13.03,-14.05,-13.03,13.03,13.99,9.14,-1.01,-1.01,-1.02
25.14,-13.91,-12.88,-13.91,-12.88,12.88,13.81,9.36,-1.03,-1.03,-1.03
25.39,-13.76,-12.72,-13.77,-12.72,12.72,13.63,9.58,-1.04,-1.04,-1.05
25.65,-13.63,-12.57,-13.63,-12.56,12.56,13.44,9.81,-1.06,-1.06,-1.06
25.91,-13.49,-12.40,-13.49,-12.41,12.41,13.24,10.03,-1.08,-1.08,-1.09
26.16,-13.34,-12.25,-13.35,-12.25,12.25,13.02,10.27,-1.10,-1.10,-1.10
26.43,-13.20,-12.09,-13.20,-12.09,12.09,12.81,10.50,-1.11,-1.11,-1.11
26.69,-13.06,-11.92,-13.05,-11.92,11.93,12.58,10.73,-1.13,-1.13,-1.14
26.96,-12.91,-11.76,-12.91,-11.76,11.77,12.36,10.96,-1.14,-1.14,-1.15
27.23,-12.76,-11.60,-12.76,-11.60,11.60,12.12,11.20,-1.15,-1.16,-1.16
27.50,-12.62,-11.45,-12.61,-11.44,11.44,11.89,11.42,-1.18,-1.17,-1.17
27.77,-12.46,-11.28,-12.47,-11.28,11.28,11.65,11.65,-1.19,-1.19,-1.19
28.05,-12.32,-11.12,-12.32,-11.12,11.12,11.41,11.87,-1.20,-1.20,-1.20
28.33,-12.17,-10.95,-12.17,-10.95,10.95,11.17,12.07,-1.21,-1.21,-1.22
28.62,-12.02,-10.79,-12.02,-10.79,10.79,10.93,12.27,-1.23,-1.23,-1.23
28.90,-11.88,-10.63,-11.87,-10.63,10.63,10.69,12.45,-1.25,-1.24,-1.25
29.19,-11.73,-10.46,-11.72,-10.46,10.47,10.44,12.62,-1.26,-1.26,-1.27
29.48,-11.57,-10.30,-11.57,-10.30,10.30,10.20,12.76,-1.26,-1.27,-1.27
29.78,-11.42,-10.14,-11.42,-10.14,10.14,9.96,12.89,-1.28,-1.28,-1.28
30.08,-11.27,-9.98,-11.27,-9.98,9.97,9.72,12.98,-1.30,-1.29,-1.29
30.38,-11.12,-9.81,-11.12,-9.81,9.81,9.49,13.05,-1.31,-1.31,-1.31
30.68,-10.96,-9.64,-10.96,-9.64,9.64,9.25,13.08,-1.32,-1.32,-1.32
30.99,-10.81,-9.46,-10.81,-9.47,9.47,9.02,13.09,-1.33,-1.33,-1.35
31.30,-10.66,-9.30,-10.66,-9.30,9.31,8.78,13.06,-1.35,-1.35,-1.36
31.61,-10.51,-9.14,-10.51,-9.14,9.14,8.55,12.99,-1.37,-1.37,-1.37
31.93,-10.37,-8.98,-10.36,-8.97,8.97,8.33,12.90,-1.40,-1.39,-1.39
32.24,-10.21,-8.80,-10.22,-8.81,8.80,8.10,12.77,-1.41,-1.41,-1.42
32.57,-10.07,-8.63,-10.07,-8.64,8.64,7.88,12.61,-1.43,-1.43,-1.44
32.89,-9.93,-8.48,-9.92,-8.47,8.47,7.65,12.43,-1.46,-1.45,-1.45
33.22,-9.77,-8.29,-9.77,-8.30,8.30,7.43,12.22,-1.47,-1.47,-1.48
33.55,-9.63,-8.14,-9.63,-8.13,8.13,7.22,11.98,-1.50,-1.50,-1.49
33.89,-9.48,-7.96,-9.47,-7.96,7.96,7.00,11.73,-1.52,-1.52,-1.52
34.23,-9.33,-7.79,-9.32,-7.79,7.79,6.79,11.47,-1.54,-1.54,-1.54
34.57,-9.17,-7.61,-9.17,-7.61,7.62,6.58,11.19,-1.55,-1.56,-1.56
34.92,-9.02,-7.44,-9.02,-7.44,7.44,6.37,10.90,-1.57,-1.58,-1.58
35.27,-8.87,-7.27,-8.87,-7.27,7.27,6.16,10.61,-1.60,-1.60,-1.60
35.62,-8.72,-7.10,-8.72,-7.10,7.10,5.96,10.30,-1.62,-1.62,-1.62
35.97,-8.57,-6.93,-8.56,-6.93,6.93,5.76,10.00,-1.64,-1.64,-1.64
36.33,-8.41,-6.75,-8.41,-6.76,6.76,5.56,9.69,-1.65,-1.66,-1.66
36.70,-8.27,-6.59,-8.26,-6.58,6.58,5.36,9.37,-1.68,-1.67,-1.68
37.06,-8.11,-6.41,-8.11,-6.41,6.41,5.17,9.06,-1.69,-1.70,-1.70
37.43,-7.96,-6.24,-7.96,-6.24,6.24,4.97,8.75,-1.71,-1.72,-1.72
37.81,-7.82,-6.08,-7.81,-6.07,6.07,4.78,8.44,-1.75,-1.74,-1.74
38.19,-7.66,-5.89,-7.66,-5.90,5.90,4.60,8.13,-1.76,-1.76,-1.77
38.57,-7.52,-5.74,-7.51,-5.73,5.73,4.41,7.82,-1.79,-1.78,-1.78
38.95,-7.36,-5.55,-7.36,-5.55,5.56,4.22,7.52,-1.80,-1.80,-1.81
39.34,-7.21,-5.38,-7.21,-5.38,5.38,4.04,7.21,-1.82,-1.82,-1.83
39.74,-7.06,-5.21,-7.05,-5.21,5.21,3.86,6.91,-1.85,-1.84,-1.85
40.14,-6.90,-5.04,-6.90,-5.04,5.04,3.68,6.62,-1.86,-1.87,-1.86
40.54,-6.75,-4.87,-6.75,-4.87,4.86,3.51,6.32,-1.89,-1.88,-1.88
40.94,-6.59,-4.69,-6.59,-4.69,4.69,3.33,6.03,-1.90,-1.90,-1.90
41.35,-6.43,-4.50,-6.43,-4.51,4.51,3.16,5.74,-1.91,-1.91,-1.93
41.76,-6.27,-4.34,-6.27,-4.33,4.34,2.99,5.45,-1.92,-1.93,-1.93
42.18,-6.12,-4.17,-6.11,-4.17,4.17,2.82,5.17,-1.95,-1.95,-1.95
42.60,-5.96,-3.99,-5.96,-4.00,3.99,2.65,4.89,-1.96,-1.97,-1.97
43.03,-5.81,-3.83,-5.80,-3.82,3.82,2.48,4.61,-1.99,-1.99,-1.98
43.46,-5.65,-3.64,-5.65,-3.64,3.64,2.32,4.33,-2.01,-2.01,-2.01
43.90,-5.49,-3.46,-5.49,-3.47,3.46,2.16,4.05,-2.02,-2.03,-2.03
44.33,-5.34,-3.29,-5.34,-3.29,3.29,2.00,3.78,-2.05,-2.05,-2.05
44.78,-5.19,-3.12,-5.18,-3.11,3.11,1.84,3.51,-2.08,-2.07,-2.07
45.23,-5.03,-2.93,-5.03,-2.93,2.94,1.68,3.24,-2.09,-2.09,-2.10
45.68,-4.87,-2.75,-4.87,-2.76,2.76,1.52,2.97,-2.11,-2.11,-2.12
46.13,-4.71,-2.58,-4.71,-2.58,2.59,1.37,2.70,-2.12,-2.12,-2.13
46.60,-4.55,-2.41,-4.55,-2.41,2.41,1.22,2.44,-2.14,-2.14,-2.14
47.06,-4.40,-2.24,-4.39,-2.24,2.24,1.06,2.18,-2.16,-2.16,-2.16
47.53,-4.24,-2.06,-4.24,-2.07,2.06,0.91,1.91,-2.18,-2.18,-2.18
48.01,-4.09,-1.90,-4.09,-1.89,1.88,0.76,1.65,-2.20,-2.20,-2.19
48.49,-3.93,-1.71,-3.93,-1.71,1.71,0.62,1.39,-2.22,-2.22,-2.22
48.97,-3.78,-1.53,-3.78,-1.53,1.53,0.47,1.14,-2.25,-2.25,-2.25
49.46,-3.62,-1.34,-3.62,-1.34,1.35,0.33,0.88,-2.27,-2.27,-2.28
49.96,-3.47,-1.16,-3.46,-1.16,1.17,0.18,0.63,-2.30,-2.29,-2.31
50.46,-3.31,-0.99,-3.31,-0.99,0.99,0.04,0.37,-2.32,-2.32,-2.32
50.96,-3.15,-0.81,-3.15,-0.81,0.81,-0.10,0.12,-2.33,-2.34,-2.34
51.47,-3.00,-0.63,-3.00,-0.64,0.64,-0.24,-0.12,-2.36,-2.36,-2.37
51.99,-2.85,-0.46,-2.85,-0.46,0.46,-0.38,-0.37,-2.39,-2.39,-2.39
52.51,-2.70,-0.29,-2.70,-0.29,0.28,-0.51,-0.61,-2.42,-2.41,-2.41
53.03,-2.54,-0.11,-2.54,-0.11,0.11,-0.65,-0.85,-2.43,-2.43,-2.43
53.56,-2.39,0.07,-2.38,0.07,-0.07,-0.78,-1.09,-2.46,-2.46,-2.46
54.10,-2.23,0.25,-2.23,0.25,-0.25,-0.92,-1.32,-2.48,-2.48,-2.48
54.64,-2.08,0.43,-2.08,0.43,-0.43,-1.05,-1.55,-2.50,-2.50,-2.51
55.18,-1.93,0.60,-1.92,0.60,-0.60,-1.18,-1.77,-2.53,-2.53,-2.53
55.74,-1.77,0.79,-1.77,0.78,-0.78,-1.31,-1.99,-2.55,-2.56,-2.56
56.29,-1.63,0.95,-1.62,0.96,-0.96,-1.44,-2.20,-2.58,-2.58,-2.58
56.86,-1.47,1.14,-1.47,1.14,-1.13,-1.57,-2.41,-2.60,-2.60,-2.61
57.42,-1.32,1.31,-1.32,1.31,-1.31,-1.70,-2.61,-2.62,-2.63,-2.63
58.00,-1.17,1.48,-1.17,1.48,-1.48,-1.82,-2.80,-2.65,-2.65,-2.65
58.58,-1.03,1.65,-1.02,1.65,-1.65,-1.95,-2.98,-2.68,-2.67,-2.68
59.16,-0.87,1.83,-0.87,1.83,-1.82,-2.08,-3.16,-2.69,-2.69,-2.70
59.76,-0.73,1.99,-0.73,1.99,-2.00,-2.20,-3.32,-2.72,-2.72,-2.72
60.35,-0.58,2.17,-0.58,2.16,-2.17,-2.32,-3.48,-2.75,-2.75,-2.75
60.96,-0.45,2.32,-0.44,2.33,-2.34,-2.44,-3.63,-2.79,-2.78,-2.77
61.57,-0.30,2.51,-0.29,2.51,-2.51,-2.57,-3.76,-2.81,-2.81,-2.81
62.18,-0.15,2.69,-0.15,2.68,-2.68,-2.69,-3.89,-2.83,-2.83,-2.84
62.80,-0.01,2.86,-0.01,2.86,-2.85,-2.81,-4.01,-2.86,-2.86,-2.87
63.43,0.12,3.02,0.13,3.02,-3.01,-2.93,-4.12,-2.89,-2.89,-2.90
64.07,0.25,3.18,0.26,3.18,-3.18,-3.05,-4.21,-2.93,-2.92,-2.93
64.71,0.39,3.34,0.39,3.34,-3.34,-3.17,-4.30,-2.95,-2.95,-2.95
65.35,0.52,3.49,0.52,3.49,-3.49,-3.28,-4.38,-2.97,-2.97,-2.97
66.01,0.65,3.64,0.65,3.64,-3.65,-3.40,-4.45,-3.00,-2.99,-2.99
66.67,0.78,3.80,0.78,3.80,-3.80,-3.52,-4.52,-3.02,-3.02,-3.02
67.33,0.91,3.95,0.91,3.95,-3.95,-3.64,-4.57,-3.03,-3.04,-3.04
68.01,1.03,4.10,1.03,4.10,-4.10,-3.75,-4.62,-3.06,-3.06,-3.07
68.69,1.15,4.24,1.15,4.24,-4.24,-3.87,-4.67,-3.09,-3.09,-3.09
69.37,1.27,4.39,1.27,4.39,-4.39,-3.98,-4.70,-3.11,-3.12,-3.12
70.07,1.38,4.53,1.38,4.53,-4.53,-4.10,-4.74,-3.14,-3.14,-3.15
70.77,1.49,4.66,1.49,4.66,-4.67,-4.22,-4.77,-3.17,-3.17,-3.17
71.48,1.60,4.80,1.60,4.80,-4.80,-4.33,-4.79,-3.20,-3.20,-3.20
72.19,1.70,4.93,1.71,4.94,-4.94,-4.45,-4.82,-3.23,-3.23,-3.23
72.91,1.81,5.08,1.81,5.07,-5.07,-4.56,-4.84,-3.26,-3.26,-3.27
73.64,1.90,5.20,1.90,5.20,-5.20,-4.68,-4.86,-3.30,-3.30,-3.30
74.38,1.99,5.32,2.00,5.33,-5.33,-4.79,-4.88,-3.33,-3.33,-3.33
75.12,2.08,5.46,2.08,5.45,-5.45,-4.91,-4.90,-3.37,-3.37,-3.38
75.87,2.16,5.57,2.16,5.57,-5.57,-5.02,-4.92,-3.41,-3.41,-3.41
76.63,2.24,5.68,2.24,5.69,-5.68,-5.14,-4.95,-3.44,-3.44,-3.44
77.40,2.31,5.79,2.31,5.80,-5.80,-5.25,-4.97,-3.48,-3.48,-3.48
78.17,2.38,5.92,2.39,5.91,-5.91,-5.37,-5.00,-3.52,-3.52,-3.54
78.95,2.45,6.01,2.45,6.01,-6.01,-5.48,-5.03,-3.56,-3.56,-3.56
79.74,2.51,6.11,2.51,6.12,-6.12,-5.60,-5.06,-3.60,-3.60,-3.60
80.54,2.56,6.21,2.57,6.21,-6.22,-5.71,-5.09,-3.66,-3.65,-3.65
81.35,2.63,6.32,2.62,6.31,-6.32,-5.82,-5.13,-3.68,-3.69,-3.69
82.16,2.67,6.41,2.68,6.41,-6.41,-5.94,-5.17,-3.74,-3.73,-3.74
82.98,2.72,6.50,2.72,6.50,-6.50,-6.05,-5.21,-3.78,-3.78,-3.78
83.81,2.76,6.60,2.76,6.59,-6.58,-6.17,-5.26,-3.82,-3.83,-3.84
84.65,2.78,6.66,2.79,6.67,-6.67,-6.28,-5.32,-3.88,-3.87,-3.88
85.50,2.82,6.74,2.82,6.74,-6.74,-6.39,-5.37,-3.92,-3.92,-3.92
86.35,2.84,6.81,2.84,6.81,-6.82,-6.50,-5.43,-3.97,-3.97,-3.97
87.22,2.86,6.88,2.87,6.88,-6.88,-6.61,-5.50,-4.02,-4.02,-4.02
88.09,2.88,6.96,2.88,6.95,-6.95,-6.72,-5.57,-4.07,-4.07,-4.08
88.97,2.89,7.01,2.89,7.01,-7.01,-6.83,-5.64,-4.12,-4.12,-4.12
89.86,2.90,7.07,2.90,7.07,-7.07,-6.93,-5.72,-4.17,-4.17,-4.17
90.76,2.90,7.13,2.90,7.13,-7.13,-7.03,-5.81,-4.22,-4.22,-4.23
91.66,2.90,7.18,2.90,7.18,-7.18,-7.13,-5.89,-4.28,-4.28,-4.28
92.58,2.90,7.24,2.90,7.23,-7.23,-7.23,-5.99,-4.33,-4.33,-4.34
93.51,2.89,7.27,2.90,7.27,-7.28,-7.32,-6.09,-4.38,-4.38,-4.38
94.44,2.89,7.32,2.89,7.32,-7.32,-7.41,-6.19,-4.43,-4.44,-4.43
95.39,2.87,7.36,2.88,7.36,-7.37,-7.50,-6.29,-4.49,-4.49,-4.49
96.34,2.86,7.42,2.86,7.41,-7.41,-7.58,-6.40,-4.55,-4.55,-4.56
97.30,2.84,7.45,2.84,7.45,-7.45,-7.66,-6.52,-4.61,-4.61,-4.61
98.28,2.82,7.49,2.82,7.50,-7.49,-7.73,-6.64,-4.67,-4.67,-4.67
99.26,2.80,7.54,2.80,7.53,-7.53,-7.79,-6.76,-4.73,-4.73,-4.74
100.25,2.78,7.57,2.78,7.57,-7.57,-7.85,-6.88,-4.79,-4.79,-4.79
101.25,2.76,7.61,2.76,7.61,-7.61,-7.91,-7.01,-4.85,-4.85,-4.85
102.27,2.73,7.65,2.73,7.65,-7.65,-7.96,-7.14,-4.91,-4.91,-4.92
103.29,2.70,7.69,2.70,7.68,-7.68,-8.00,-7.28,-4.98,-4.98,-4.99
104.32,2.67,7.71,2.67,7.71,-7.71,-8.04,-7.41,-5.04,-5.04,-5.04
105.37,2.64,7.74,2.64,7.74,-7.75,-8.08,-7.55,-5.10,-5.10,-5.10
106.42,2.60,7.77,2.61,7.77,-7.78,-8.11,-7.69,-5.17,-5.17,-5.17
107.48,2.57,7.81,2.57,7.81,-7.81,-8.13,-7.82,-5.23,-5.23,-5.24
108.56,2.53,7.84,2.54,7.84,-7.84,-8.15,-7.96,-5.30,-5.30,-5.31
109.64,2.50,7.87,2.50,7.87,-7.87,-8.16,-8.09,-5.36,-5.37,-5.37
110.74,2.46,7.89,2.46,7.89,-7.90,-8.17,-8.22,-5.43,-5.43,-5.43
111.85,2.42,7.92,2.42,7.92,-7.93,-8.18,-8.35,-5.50,-5.50,-5.50
112.97,2.38,7.96,2.38,7.95,-7.96,-8.18,-8.47,-5.58,-5.57,-5.58
114.10,2.34,7.98,2.35,7.99,-7.99,-8.18,-8.59,-5.64,-5.64,-5.64
115.24,2.31,8.02,2.31,8.02,-8.01,-8.18,-8.70,-5.70,-5.71,-5.71
116.39,2.27,8.05,2.27,8.05,-8.04,-8.18,-8.81,-5.77,-5.77,-5.78
117.55,2.22,8.07,2.23,8.07,-8.07,-8.17,-8.90,-5.84,-5.84,-5.85
118.73,2.18,8.09,2.18,8.09,-8.09,-8.16,-8.99,-5.91,-5.91,-5.91
119.92,2.14,8.11,2.14,8.11,-8.11,-8.15,-9.07,-5.97,-5.97,-5.97
121.12,2.09,8.12,2.10,8.13,-8.13,-8.14,-9.13,-6.03,-6.03,-6.03
122.33,2.05,8.15,2.05,8.14,-8.14,-8.13,-9.19,-6.09,-6.09,-6.10
123.55,2.01,8.16,2.01,8.16,-8.16,-8.12,-9.23,-6.15,-6.15,-6.15
124.79,1.96,8.17,1.97,8.17,-8.17,-8.11,-9.26,-6.21,-6.21,-6.21
126.03,1.92,8.18,1.92,8.18,-8.19,-8.10,-9.27,-6.27,-6.27,-6.26
127.29,1.88,8.20,1.88,8.20,-8.20,-8.08,-9.28,-6.32,-6.32,-6.32
128.57,1.83,8.22,1.84,8.22,-8.22,-8.07,-9.27,-6.39,-6.38,-6.39
129.85,1.80,8.24,1.80,8.24,-8.23,-8.06,-9.25,-6.43,-6.44,-6.44
131.15,1.75,8.24,1.75,8.25,-8.24,-8.05,-9.22,-6.49,-6.49,-6.49
132.46,1.71,8.26,1.72,8.26,-8.25,-8.04,-9.18,-6.54,-6.54,-6.55
133.79,1.67,8.26,1.67,8.26,-8.26,-8.02,-9.13,-6.59,-6.59,-6.59
135.12,1.63,8.28,1.63,8.27,-8.27,-8.01,-9.07,-6.63,-6.64,-6.65
136.48,1.58,8.26,1.59,8.27,-8.27,-8.00,-9.01,-6.69,-6.68,-6.68
137.84,1.54,8.26,1.54,8.27,-8.27,-7.99,-8.93,-6.72,-6.72,-6.72
139.22,1.50,8.27,1.50,8.27,-8.26,-7.98,-8.86,-6.76,-6.76,-6.77
140.61,1.46,8.27,1.46,8.26,-8.26,-7.97,-8.77,-6.79,-6.80,-6.81
142.02,1.42,8.25,1.42,8.25,-8.25,-7.96,-8.69,-6.83,-6.83,-6.83
143.44,1.37,8.23,1.38,8.24,-8.24,-7.95,-8.60,-6.87,-6.86,-6.86
144.87,1.33,8.23,1.33,8.23,-8.23,-7.95,-8.51,-6.90,-6.90,-6.90
146.32,1.29,8.22,1.29,8.22,-8.22,-7.94,-8.41,-6.92,-6.92,-6.93
147.78,1.25,8.20,1.25,8.21,-8.20,-7.93,-8.32,-6.95,-6.95,-6.95
149.26,1.21,8.19,1.21,8.19,-8.19,-7.92,-8.23,-6.98,-6.98,-6.98
150.75,1.16,8.18,1.17,8.18,-8.18,-7.91,-8.14,-7.01,-7.01,-7.02
152.26,1.12,8.16,1.13,8.17,-8.16,-7.91,-8.05,-7.04,-7.04,-7.04
153.78,1.09,8.16,1.09,8.15,-8.15,-7.90,-7.97,-7.06,-7.07,-7.07
155.32,1.04,8.13,1.05,8.14,-8.14,-7.89,-7.88,-7.09,-7.09,-7.09
156.88,1.00,8.12,1.00,8.12,-8.12,-7.89,-7.80,-7.12,-7.12,-7.12
158.44,0.96,8.11,0.96,8.11,-8.11,-7.88,-7.73,-7.15,-7.15,-7.15
160.03,0.92,8.10,0.92,8.10,-8.10,-7.87,-7.66,-7.18,-7.18,-7.18
161.63,0.88,8.09,0.88,8.09,-8.09,-7.87,-7.59,-7.20,-7.20,-7.21
163.24,0.84,8.08,0.84,8.08,-8.07,-7.86,-7.53,-7.23,-7.23,-7.24
164.88,0.80,8.06,0.80,8.06,-8.06,-7.86,-7.47,-7.26,-7.26,-7.26
166.53,0.76,8.04,0.76,8.05,-8.05,-7.85,-7.42,-7.29,-7.29,-7.28
168.19,0.72,8.04,0.72,8.04,-8.04,-7.84,-7.37,-7.32,-7.32,-7.32
169.87,0.68,8.03,0.68,8.03,-8.03,-7.84,-7.33,-7.35,-7.35,-7.35
171.57,0.65,8.03,0.65,8.02,-8.02,-7.83,-7.29,-7.37,-7.38,-7.38
173.29,0.60,8.00,0.61,8.01,-8.02,-7.82,-7.26,-7.41,-7.41,-7.40
175.02,0.57,8.01,0.57,8.01,-8.01,-7.82,-7.23,-7.44,-7.44,-7.44
176.77,0.53,8.01,0.53,8.01,-8.01,-7.81,-7.21,-7.47,-7.47,-7.48
178.54,0.49,8.01,0.49,8.01,-8.00,-7.80,-7.20,-7.51,-7.51,-7.52
180.32,0.45,8.00,0.45,8.00,-8.00,-7.80,-7.19,-7.55,-7.55,-7.55
182.13,0.41,7.99,0.41,7.99,-8.00,-7.79,-7.18,-7.58,-7.59,-7.58
183.95,0.36,7.98,0.37,7.99,-7.99,-7.78,-7.18,-7.63,-7.62,-7.62
185.79,0.33,7.99,0.33,7.99,-7.98,-7.77,-7.19,-7.65,-7.66,-7.66
187.65,0.29,7.99,0.29,7.98,-7.98,-7.77,-7.20,-7.68,-7.69,-7.70
189.52,0.24,7.97,0.25,7.98,-7.97,-7.76,-7.21,-7.72,-7.72,-7.73
191.42,0.21,7.96,0.21,7.96,-7.96,-7.75,-7.23,-7.74,-7.75,-7.75
193.33,0.17,7.94,0.17,7.94,-7.95,-7.74,-7.26,-7.77,-7.78,-7.77
195.27,0.12,7.92,0.13,7.93,-7.93,-7.73,-7.29,-7.81,-7.80,-7.80
197.22,0.08,7.91,0.08,7.92,-7.92,-7.72,-7.32,-7.83,-7.83,-7.83
199.19,0.04,7.92,0.04,7.91,-7.90,-7.71,-7.36,-7.86,-7.86,-7.88
201.18,0.00,7.89,0.00,7.89,-7.89,-7.70,-7.40,-7.88,-7.88,-7.89
203.19,-0.04,7.87,-0.04,7.87,-7.87,-7.69,-7.45,-7.91,-7.91,-7.91
205.23,-0.08,7.85,-0.08,7.85,-7.86,-7.68,-7.50,-7.93,-7.93,-7.93
207.28,-0.11,7.83,-0.11,7.83,-7.84,-7.67,-7.55,-7.95,-7.95,-7.94
209.35,-0.15,7.82,-0.14,7.82,-7.83,-7.66,-7.60,-7.97,-7.97,-7.97
211.44,-0.17,7.82,-0.17,7.82,-7.81,-7.65,-7.65,-7.98,-7.98,-7.99
213.56,-0.20,7.81,-0.20,7.80,-7.80,-7.63,-7.71,-8.00,-8.00,-8.01
215.69,-0.23,7.78,-0.23,7.79,-7.79,-7.62,-7.76,-8.01,-8.01,-8.01
217.85,-0.26,7.76,-0.25,7.77,-7.78,-7.61,-7.82,-8.03,-8.03,-8.02
220.03,-0.28,7.77,-0.28,7.76,-7.76,-7.59,-7.87,-8.04,-8.04,-8.05
222.23,-0.30,7.76,-0.30,7.75,-7.75,-7.58,-7.93,-8.05,-8.05,-8.06
224.45,-0.32,7.73,-0.32,7.74,-7.73,-7.56,-7.98,-8.05,-8.05,-8.05
226.70,-0.34,7.72,-0.33,7.72,-7.72,-7.55,-8.02,-8.05,-8.05,-8.06
228.96,-0.35,7.71,-0.35,7.70,-7.70,-7.53,-8.07,-8.04,-8.05,-8.06
231.25,-0.38,7.67,-0.38,7.67,-7.68,-7.52,-8.11,-8.05,-8.05,-8.05
233.57,-0.40,7.64,-0.40,7.65,-7.65,-7.50,-8.14,-8.05,-8.05,-8.04
235.90,-0.42,7.62,-0.41,7.62,-7.62,-7.49,-8.17,-8.04,-8.04,-8.04
238.26,-0.43,7.61,-0.43,7.60,-7.60,-7.47,-8.19,-8.02,-8.03,-8.04
240.64,-0.45,7.57,-0.45,7.57,-7.56,-7.45,-8.20,-8.01,-8.01,-8.02
243.05,-0.47,7.53,-0.47,7.53,-7.53,-7.43,-8.20,-8.00,-8.00,-8.00
245.48,-0.49,7.49,-0.49,7.50,-7.50,-7.41,-8.20,-7.98,-7.98,-7.98
247.93,-0.51,7.46,-0.50,7.46,-7.46,-7.39,-8.19,-7.97,-7.96,-7.97
250.41,-0.52,7.44,-0.52,7.43,-7.42,-7.38,-8.17,-7.94,-7.94,-7.96
252.92,-0.54,7.38,-0.54,7.39,-7.38,-7.36,-8.14,-7.92,-7.92,-7.92
255.45,-0.56,7.34,-0.56,7.34,-7.35,-7.33,-8.11,-7.90,-7.90,-7.90
258.00,-0.58,7.30,-0.57,7.30,-7.31,-7.31,-8.06,-7.89,-7.88,-7.88
260.58,-0.59,7.27,-0.59,7.27,-7.27,-7.29,-8.01,-7.86,-7.86,-7.86
263.19,-0.61,7.23,-0.60,7.23,-7.23,-7.27,-7.95,-7.84,-7.84,-7.84
265.82,-0.62,7.20,-0.62,7.20,-7.19,-7.25,-7.88,-7.81,-7.81,-7.82
268.48,-0.63,7.16,-0.63,7.16,-7.16,-7.22,-7.80,-7.78,-7.78,-7.79
271.16,-0.64,7.12,-0.64,7.12,-7.12,-7.20,-7.72,-7.76,-7.76,-7.76
273.87,-0.66,7.08,-0.66,7.08,-7.08,-7.18,-7.63,-7.74,-7.74,-7.74
276.61,-0.68,7.03,-0.67,7.04,-7.04,-7.15,-7.54,-7.72,-7.71,-7.71
279.38,-0.69,7.00,-0.69,7.00,-7.00,-7.13,-7.45,-7.69,-7.69,-7.69
282.17,-0.71,6.96,-0.71,6.96,-6.96,-7.10,-7.35,-7.66,-7.66,-7.67
284.99,-0.73,6.91,-0.73,6.91,-6.91,-7.08,-7.24,-7.64,-7.64,-7.64
287.84,-0.75,6.87,-0.74,6.87,-6.87,-7.05,-7.14,-7.61,-7.61,-7.62
290.72,-0.76,6.82,-0.76,6.82,-6.82,-7.02,-7.04,-7.58,-7.58,-7.58
293.63,-0.78,6.78,-0.78,6.77,-6.77,-6.99,-6.93,-7.55,-7.55,-7.56
296.57,-0.81,6.72,-0.80,6.73,-6.72,-6.97,-6.82,-7.53,-7.53,-7.53
299.53,-0.83,6.67,-0.83,6.67,-6.67,-6.94,-6.72,-7.50,-7.50,-7.50
302.53,-0.85,6.63,-0.85,6.62,-6.62,-6.91,-6.61,-7.47,-7.47,-7.48
305.55,-0.87,6.56,-0.87,6.57,-6.57,-6.88,-6.51,-7.43,-7.43,-7.43
308.61,-0.89,6.51,-0.89,6.51,-6.51,-6.85,-6.41,-7.40,-7.40,-7.40
311.69,-0.91,6.45,-0.91,6.45,-6.46,-6.82,-6.31,-7.36,-7.36,-7.36
314.81,-0.93,6.40,-0.93,6.40,-6.40,-6.79,-6.21,-7.33,-7.33,-7.33
317.96,-0.96,6.34,-0.95,6.34,-6.34,-6.75,-6.12,-7.30,-7.30,-7.30
321.14,-0.98,6.29,-0.98,6.29,-6.29,-6.72,-6.03,-7.26,-7.27,-7.27
324.35,-1.01,6.24,-1.01,6.23,-6.23,-6.69,-5.94,-7.24,-7.24,-7.25
327.59,-1.04,6.17,-1.04,6.17,-6.18,-6.65,-5.85,-7.21,-7.21,-7.21
330.87,-1.07,6.11,-1.07,6.12,-6.12,-6.62,-5.77,-7.19,-7.19,-7.18
334.18,-1.10,6.06,-1.09,6.06,-6.06,-6.59,-5.69,-7.16,-7.16,-7.16
337.52,-1.12,6.02,-1.12,6.01,-6.01,-6.55,-5.62,-7.12,-7.13,-7.14
340.90,-1.15,5.96,-1.15,5.96,-5.95,-6.52,-5.55,-7.10,-7.10,-7.11
344.30,-1.19,5.90,-1.18,5.90,-5.90,-6.48,-5.48,-7.08,-7.08,-7.09
347.75,-1.22,5.84,-1.22,5.84,-5.85,-6.44,-5.42,-7.06,-7.06,-7.06
351.23,-1.25,5.79,-1.25,5.79,-5.80,-6.41,-5.36,-7.05,-7.05,-7.04
354.74,-1.28,5.75,-1.27,5.75,-5.76,-6.37,-5.31,-7.03,-7.03,-7.03
358.28,-1.29,5.72,-1.29,5.72,-5.72,-6.33,-5.25,-7.01,-7.01,-7.01
361.87,-1.30,5.69,-1.30,5.68,-5.69,-6.29,-5.21,-6.99,-6.99,-6.99
365.49,-1.31,5.65,-1.30,5.66,-5.66,-6.26,-5.16,-6.97,-6.97,-6.96
369.14,-1.31,5.64,-1.30,5.64,-5.65,-6.22,-5.13,-6.95,-6.95,-6.95
372.83,-1.30,5.64,-1.30,5.63,-5.63,-6.18,-5.09,-6.93,-6.93,-6.94
376.56,-1.29,5.63,-1.29,5.63,-5.62,-6.14,-5.06,-6.91,-6.91,-6.92
380.33,-1.28,5.61,-1.27,5.62,-5.61,-6.10,-5.03,-6.89,-6.89,-6.89
384.13,-1.26,5.61,-1.26,5.61,-5.61,-6.06,-5.01,-6.86,-6.87,-6.87
387.97,-1.25,5.60,-1.25,5.60,-5.60,-6.02,-4.99,-6.85,-6.85,-6.85
391.85,-1.23,5.60,-1.23,5.60,-5.60,-5.97,-4.97,-6.83,-6.83,-6.83
395.77,-1.21,5.59,-1.20,5.60,-5.60,-5.93,-4.95,-6.81,-6.80,-6.80
399.73,-1.17,5.61,-1.17,5.61,-5.61,-5.89,-4.94,-6.77,-6.78,-6.78
403.72,-1.15,5.62,-1.15,5.61,-5.61,-5.85,-4.93,-6.76,-6.76,-6.77
407.76,-1.13,5.62,-1.12,5.62,-5.62,-5.80,-4.93,-6.75,-6.74,-6.75
411.84,-1.10,5.62,-1.09,5.63,-5.63,-5.76,-4.92,-6.73,-6.72,-6.72
415.96,-1.05,5.65,-1.06,5.64,-5.64,-5.72,-4.92,-6.69,-6.70,-6.70
420.12,-1.02,5.66,-1.02,5.66,-5.66,-5.67,-4.92,-6.68,-6.68,-6.68
424.32,-0.98,5.67,-0.98,5.68,-5.68,-5.63,-4.92,-6.66,-6.66,-6.65
