frequency,raw,error,smoothed,error_smoothed,equalization,parametric_eq,fixed_band_eq,equalized_raw,equalized_smoothed,target
20.00,-0.27,-11.55,-0.28,-11.56,11.56,10.82,4.14,11.29,11.28,11.28
20.20,-0.20,-11.47,-0.21,-11.47,11.47,10.82,4.25,11.27,11.27,11.27
20.40,-0.13,-11.39,-0.13,-11.39,11.39,10.81,4.36,11.26,11.25,11.26
20.61,-0.06,-11.31,-0.06,-11.30,11.30,10.80,4.48,11.24,11.24,11.25
20.81,0.01,-11.22,0.01,-11.22,11.22,10.79,4.60,11.23,11.23,11.22
21.02,0.08,-11.13,0.08,-11.14,11.14,10.78,4.72,11.22,11.22,11.21
21.23,0.15,-11.05,0.16,-11.05,11.05,10.76,4.85,11.20,11.21,11.20
21.44,0.22,-10.99,0.23,-10.97,10.97,10.74,4.98,11.19,11.20,11.21
21.66,0.29,-10.90,0.30,-10.89,10.89,10.72,5.12,11.18,11.19,11.19
21.87,0.37,-10.82,0.38,-10.81,10.81,10.70,5.25,11.18,11.18,11.19
22.09,0.44,-10.73,0.45,-10.72,10.72,10.67,5.40,11.16,11.17,11.17
22.31,0.51,-10.66,0.52,-10.64,10.64,10.64,5.54,11.15,11.17,11.17
22.54,0.60,-10.56,0.60,-10.56,10.56,10.60,5.69,11.16,11.16,11.16
22.76,0.68,-10.48,0.67,-10.48,10.48,10.57,5.85,11.16,11.15,11.16
22.99,0.76,-10.39,0.75,-10.40,10.40,10.53,6.00,11.16,11.15,11.14
23.22,0.83,-10.30,0.82,-10.32,10.32,10.49,6.16,11.15,11.14,11.13
23.45,0.90,-10.24,0.90,-10.24,10.24,10.44,6.33,11.14,11.14,11.14
23.69,0.98,-10.15,0.97,-10.16,10.16,10.40,6.50,11.14,11.13,11.13
23.92,1.05,-10.07,1.04,-10.08,10.08,10.35,6.67,11.13,11.13,11.12
24.16,1.12,-10.01,1.12,-10.01,10.01,10.29,6.85,11.13,11.12,11.13
24.40,1.18,-9.95,1.19,-9.93,9.93,10.24,7.03,11.12,11.12,11.13
24.65,1.26,-9.87,1.26,-9.86,9.86,10.18,7.22,11.12,11.12,11.12
24.89,1.33,-9.79,1.33,-9.79,9.79,10.12,7.40,11.12,11.12,11.12
25.14,1.40,-9.71,1.40,-9.72,9.72,10.06,7.59,11.12,11.12,11.11
25.39,1.46,-9.65,1.47,-9.65,9.65,10.00,7.79,11.11,11.11,11.11
25.65,1.53,-9.58,1.53,-9.58,9.58,9.94,7.98,11.11,11.11,11.11
25.91,1.61,-9.50,1.61,-9.50,9.50,9.87,8.18,11.11,11.11,11.11
26.16,1.68,-9.43,1.68,-9.43,9.43,9.80,8.38,11.11,11.11,11.11
26.43,1.74,-9.37,1.75,-9.36,9.36,9.73,8.57,11.10,11.11,11.11
26.69,1.82,-9.29,1.82,-9.29,9.29,9.66,8.77,11.11,11.11,11.11
26.96,1.89,-9.22,1.89,-9.22,9.22,9.59,8.97,11.10,11.11,11.11
27.23,1.97,-9.14,1.97,-9.14,9.14,9.51,9.16,11.11,11.11,11.11
27.50,2.04,-9.06,2.04,-9.07,9.07,9.43,9.35,11.11,11.11,11.10
27.77,2.11,-9.00,2.12,-9.00,9.00,9.36,9.54,11.11,11.11,11.11
28.05,2.19,-8.92,2.19,-8.92,8.92,9.28,9.72,11.11,11.11,11.11
28.33,2.27,-8.85,2.27,-8.84,8.84,9.20,9.89,11.11,11.11,11.11
28.62,2.35,-8.76,2.34,-8.77,8.77,9.11,10.05,11.12,11.11,11.11
28.90,2.42,-8.70,2.42,-8.70,8.70,9.03,10.20,11.11,11.11,11.12
29.19,2.49,-8.63,2.49,-8.62,8.62,8.95,10.33,11.11,11.11,11.12
29.48,2.57,-8.54,2.57,-8.54,8.54,8.86,10.45,11.11,11.11,11.11
29.78,2.64,-8.47,2.64,-8.46,8.46,8.78,10.56,11.10,11.11,11.11
30.08,2.72,-8.39,2.71,-8.39,8.39,8.69,10.64,11.10,11.10,11.11
30.38,2.79,-8.30,2.79,-8.31,8.31,8.60,10.71,11.10,11.10,11.09
30.68,2.86,-8.23,2.86,-8.23,8.23,8.52,10.75,11.09,11.09,11.09
30.99,2.93,-8.16,2.93,-8.16,8.16,8.43,10.78,11.09,11.09,11.08
31.30,2.99,-8.09,3.00,-8.08,8.08,8.34,10.78,11.07,11.08,11.08
31.61,3.06,-8.02,3.07,-8.01,8.01,8.25,10.76,11.06,11.07,11.08
31.93,3.14,-7.91,3.13,-7.93,7.93,8.16,10.72,11.07,11.06,11.05
32.24,3.21,-7.85,3.20,-7.86,7.86,8.07,10.66,11.07,11.05,11.06
32.57,3.27,-7.77,3.26,-7.79,7.79,7.98,10.58,11.05,11.05,11.04
32.89,3.32,-7.72,3.32,-7.72,7.72,7.89,10.48,11.04,11.04,11.04
33.22,3.38,-7.65,3.38,-7.65,7.65,7.79,10.37,11.03,11.03,11.03
33.55,3.44,-7.59,3.44,-7.58,7.58,7.70,10.24,11.02,11.02,11.03
33.89,3.51,-7.50,3.50,-7.51,7.51,7.61,10.09,11.02,11.01,11.01
34.23,3.56,-7.44,3.56,-7.45,7.45,7.52,9.94,11.01,11.01,11.00
34.57,3.62,-7.37,3.61,-7.38,7.38,7.42,9.78,11.00,10.99,10.99
34.92,3.67,-7.31,3.66,-7.32,7.32,7.33,9.60,10.99,10.98,10.97
35.27,3.72,-7.27,3.72,-7.26,7.26,7.24,9.42,10.97,10.97,10.99
35.62,3.77,-7.19,3.77,-7.19,7.19,7.15,9.24,10.96,10.96,10.96
35.97,3.82,-7.13,3.82,-7.13,7.13,7.05,9.05,10.95,10.94,10.95
36.33,3.87,-7.07,3.87,-7.06,7.06,6.96,8.86,10.93,10.93,10.94
36.70,3.92,-6.99,3.92,-6.99,6.99,6.87,8.67,10.91,10.91,10.91
37.06,3.97,-6.92,3.97,-6.92,6.92,6.77,8.48,10.89,10.89,10.89
37.43,4.01,-6.86,4.02,-6.85,6.85,6.68,8.29,10.86,10.87,10.87
37.81,4.06,-6.80,4.07,-6.78,6.78,6.59,8.10,10.84,10.85,10.85
38.19,4.11,-6.72,4.12,-6.71,6.71,6.49,7.91,10.82,10.83,10.83
38.57,4.17,-6.64,4.17,-6.64,6.64,6.40,7.73,10.80,10.81,10.81
38.95,4.24,-6.55,4.23,-6.56,6.56,6.31,7.54,10.80,10.78,10.79
39.34,4.29,-6.47,4.28,-6.48,6.48,6.22,7.36,10.77,10.76,10.76
39.74,4.33,-6.40,4.33,-6.40,6.40,6.13,7.19,10.73,10.74,10.73
40.14,4.38,-6.33,4.39,-6.32,6.32,6.03,7.01,10.70,10.71,10.71
40.54,4.43,-6.26,4.44,-6.25,6.25,5.94,6.85,10.67,10.69,10.69
40.94,4.48,-6.18,4.49,-6.17,6.17,5.85,6.68,10.65,10.66,10.66
41.35,4.55,-6.08,4.55,-6.09,6.09,5.76,6.52,10.64,10.64,10.63
41.76,4.61,-5.99,4.60,-6.01,6.01,5.67,6.36,10.62,10.61,10.60
42.18,4.67,-5.92,4.65,-5.93,5.93,5.58,6.21,10.60,10.58,10.59
42.60,4.71,-5.85,4.70,-5.86,5.86,5.49,6.06,10.57,10.56,10.56
43.03,4.75,-5.78,4.75,-5.78,5.78,5.40,5.92,10.53,10.53,10.53
43.46,4.79,-5.71,4.79,-5.71,5.71,5.31,5.78,10.50,10.50,10.50
43.90,4.83,-5.65,4.84,-5.63,5.63,5.22,5.64,10.46,10.47,10.47
44.33,4.89,-5.55,4.89,-5.56,5.56,5.13,5.51,10.45,10.44,10.44
44.78,4.94,-5.47,4.93,-5.48,5.48,5.04,5.38,10.42,10.41,10.41
45.23,4.98,-5.41,4.97,-5.40,5.40,4.96,5.26,10.38,10.38,10.39
45.68,5.01,-5.33,5.02,-5.32,5.32,4.87,5.14,10.33,10.34,10.34
46.13,5.05,-5.25,5.06,-5.24,5.24,4.78,5.02,10.29,10.30,10.30
46.60,5.09,-5.18,5.10,-5.16,5.16,4.70,4.91,10.25,10.26,10.27
47.06,5.14,-5.09,5.15,-5.07,5.07,4.61,4.80,10.21,10.22,10.23
47.53,5.19,-5.00,5.19,-4.99,4.99,4.52,4.70,10.17,10.18,10.19
48.01,5.23,-4.90,5.23,-4.90,4.90,4.44,4.59,10.13,10.13,10.13
48.49,5.28,-4.81,5.28,-4.81,4.81,4.36,4.49,10.09,10.09,10.09
48.97,5.32,-4.72,5.32,-4.72,4.72,4.27,4.40,10.04,10.04,10.04
49.46,5.36,-4.63,5.36,-4.64,4.64,4.19,4.31,10.00,9.99,9.99
49.96,5.41,-4.52,5.40,-4.55,4.55,4.11,4.22,9.96,9.95,9.93
50.46,5.45,-4.45,5.44,-4.46,4.46,4.02,4.13,9.91,9.90,9.90
50.96,5.49,-4.36,5.48,-4.38,4.38,3.94,4.05,9.86,9.85,9.85
51.47,5.52,-4.29,5.52,-4.29,4.29,3.86,3.96,9.81,9.81,9.81
51.99,5.55,-4.20,5.56,-4.20,4.20,3.78,3.88,9.75,9.76,9.75
52.51,5.58,-4.14,5.59,-4.12,4.12,3.70,3.81,9.70,9.71,9.71
53.03,5.61,-4.07,5.63,-4.04,4.04,3.62,3.73,9.65,9.66,9.68
53.56,5.65,-3.98,5.66,-3.96,3.96,3.54,3.66,9.61,9.62,9.63
54.10,5.69,-3.88,5.69,-3.88,3.88,3.46,3.59,9.57,9.57,9.57
54.64,5.73,-3.80,5.73,-3.80,3.80,3.38,3.52,9.53,9.53,9.53
55.18,5.77,-3.71,5.76,-3.73,3.73,3.31,3.45,9.50,9.48,9.48
55.74,5.80,-3.63,5.79,-3.65,3.65,3.23,3.38,9.45,9.44,9.42
56.29,5.83,-3.56,5.81,-3.58,3.58,3.15,3.31,9.41,9.39,9.39
56.86,5.85,-3.50,5.84,-3.51,3.51,3.08,3.25,9.36,9.35,9.35
57.42,5.87,-3.42,5.87,-3.43,3.43,3.00,3.18,9.30,9.30,9.29
58.00,5.89,-3.35,5.89,-3.36,3.36,2.93,3.12,9.25,9.25,9.24
58.58,5.91,-3.30,5.91,-3.29,3.29,2.85,3.05,9.20,9.20,9.21
59.16,5.93,-3.24,5.93,-3.22,3.22,2.78,2.99,9.15,9.15,9.17
59.76,5.95,-3.17,5.95,-3.14,3.14,2.71,2.93,9.09,9.09,9.12
60.35,5.97,-3.09,5.97,-3.07,3.07,2.63,2.86,9.04,9.04,9.06
60.96,5.99,-3.01,5.99,-2.99,2.99,2.56,2.80,8.98,8.98,8.99
61.57,6.01,-2.91,6.01,-2.92,2.92,2.49,2.73,8.93,8.92,8.92
62.18,6.02,-2.84,6.03,-2.83,2.83,2.42,2.67,8.85,8.86,8.86
62.80,6.04,-2.75,6.05,-2.75,2.75,2.35,2.60,8.79,8.80,8.79
63.43,6.06,-2.66,6.08,-2.66,2.66,2.28,2.54,8.72,8.74,8.72
64.07,6.09,-2.58,6.10,-2.57,2.57,2.22,2.47,8.66,8.68,8.67
64.71,6.12,-2.49,6.13,-2.48,2.48,2.15,2.41,8.60,8.61,8.61
65.35,6.15,-2.40,6.16,-2.39,2.39,2.08,2.34,8.54,8.55,8.55
66.01,6.18,-2.30,6.18,-2.30,2.30,2.01,2.27,8.48,8.48,8.48
66.67,6.21,-2.22,6.21,-2.21,2.21,1.95,2.21,8.42,8.42,8.43
67.33,6.24,-2.12,6.23,-2.13,2.13,1.88,2.14,8.37,8.36,8.36
68.01,6.26,-2.04,6.25,-2.04,2.04,1.82,2.07,8.30,8.29,8.30
68.69,6.29,-1.94,6.27,-1.96,1.96,1.76,2.00,8.25,8.23,8.23
69.37,6.30,-1.87,6.28,-1.88,1.88,1.69,1.93,8.18,8.16,8.17
70.07,6.31,-1.79,6.29,-1.80,1.80,1.63,1.86,8.11,8.10,8.10
70.77,6.32,-1.71,6.30,-1.73,1.73,1.57,1.79,8.05,8.03,8.03
71.48,6.32,-1.65,6.31,-1.66,1.66,1.51,1.72,7.98,7.96,7.97
72.19,6.31,-1.59,6.31,-1.59,1.59,1.45,1.65,7.90,7.90,7.90
72.91,6.30,-1.52,6.31,-1.52,1.52,1.39,1.58,7.82,7.83,7.82
73.64,6.29,-1.47,6.31,-1.46,1.46,1.33,1.51,7.75,7.76,7.76
74.38,6.29,-1.40,6.30,-1.39,1.39,1.27,1.44,7.68,7.70,7.69
75.12,6.29,-1.34,6.30,-1.33,1.33,1.21,1.37,7.62,7.63,7.63
75.87,6.29,-1.28,6.30,-1.27,1.27,1.15,1.30,7.56,7.57,7.57
76.63,6.29,-1.21,6.29,-1.21,1.21,1.10,1.23,7.50,7.51,7.50
77.40,6.29,-1.16,6.29,-1.15,1.15,1.04,1.16,7.44,7.44,7.44
78.17,6.29,-1.08,6.29,-1.09,1.09,0.99,1.09,7.38,7.38,7.37
78.95,6.29,-1.04,6.29,-1.03,1.03,0.93,1.02,7.32,7.32,7.33
79.74,6.29,-0.97,6.29,-0.97,0.97,0.88,0.95,7.26,7.26,7.26
80.54,6.29,-0.91,6.29,-0.91,0.91,0.82,0.88,7.20,7.20,7.20
81.35,6.29,-0.84,6.29,-0.85,0.85,0.77,0.81,7.14,7.13,7.13
82.16,6.29,-0.79,6.29,-0.78,0.78,0.72,0.74,7.07,7.07,7.08
82.98,6.29,-0.72,6.29,-0.72,0.72,0.67,0.67,7.01,7.01,7.01
83.81,6.29,-0.66,6.29,-0.66,0.66,0.62,0.60,6.95,6.95,6.95
84.65,6.29,-0.59,6.29,-0.59,0.59,0.57,0.53,6.88,6.88,6.88
85.50,6.29,-0.52,6.29,-0.53,0.53,0.52,0.46,6.82,6.82,6.81
86.35,6.29,-0.46,6.29,-0.46,0.46,0.47,0.39,6.75,6.75,6.75
87.22,6.29,-0.39,6.29,-0.39,0.39,0.42,0.32,6.68,6.68,6.68
88.09,6.29,-0.33,6.29,-0.32,0.32,0.37,0.25,6.61,6.62,6.62
88.97,6.29,-0.26,6.30,-0.25,0.25,0.33,0.18,6.54,6.55,6.55
89.86,6.29,-0.19,6.30,-0.18,0.18,0.28,0.11,6.47,6.48,6.48
90.76,6.29,-0.12,6.30,-0.10,0.10,0.23,0.05,6.39,6.41,6.41
91.66,6.30,-0.03,6.31,-0.03,0.03,0.19,-0.02,6.33,6.34,6.33
92.58,6.30,0.03,6.31,0.04,-0.04,0.14,-0.09,6.26,6.26,6.27
93.51,6.31,0.11,6.31,0.12,-0.12,0.10,-0.16,6.19,6.19,6.20
94.44,6.31,0.18,6.30,0.19,-0.19,0.06,-0.23,6.12,6.12,6.13
95.39,6.31,0.27,6.30,0.25,-0.25,0.02,-0.30,6.06,6.04,6.04
96.34,6.31,0.34,6.29,0.32,-0.32,-0.03,-0.37,5.99,5.97,5.97
97.30,6.29,0.39,6.27,0.38,-0.38,-0.07,-0.44,5.91,5.90,5.90
98.28,6.28,0.47,6.26,0.44,-0.44,-0.11,-0.51,5.84,5.82,5.81
99.26,6.25,0.51,6.24,0.49,-0.49,-0.15,-0.58,5.76,5.75,5.74
100.25,6.23,0.56,6.22,0.55,-0.55,-0.19,-0.65,5.68,5.68,5.66
101.25,6.20,0.60,6.20,0.59,-0.59,-0.23,-0.72,5.60,5.61,5.60
102.27,6.17,0.64,6.17,0.64,-0.64,-0.26,-0.79,5.53,5.53,5.53
103.29,6.14,0.68,6.15,0.69,-0.69,-0.30,-0.85,5.45,5.46,5.46
104.32,6.11,0.72,6.12,0.73,-0.73,-0.34,-0.92,5.38,5.39,5.39
105.37,6.08,0.75,6.10,0.77,-0.77,-0.38,-0.99,5.31,5.33,5.33
106.42,6.06,0.80,6.07,0.81,-0.81,-0.41,-1.05,5.25,5.26,5.26
107.48,6.04,0.85,6.04,0.86,-0.86,-0.45,-1.12,5.18,5.19,5.19
108.56,6.02,0.90,6.02,0.90,-0.90,-0.48,-1.18,5.12,5.12,5.12
109.64,6.00,0.94,5.99,0.95,-0.95,-0.51,-1.24,5.05,5.05,5.06
110.74,5.97,0.99,5.97,1.00,-1.00,-0.55,-1.30,4.97,4.98,4.98
111.85,5.95,1.04,5.95,1.05,-1.05,-0.58,-1.36,4.90,4.90,4.91
112.97,5.93,1.09,5.93,1.10,-1.10,-0.61,-1.41,4.83,4.83,4.84
114.10,5.91,1.14,5.91,1.15,-1.15,-0.64,-1.47,4.76,4.76,4.77
115.24,5.88,1.19,5.89,1.19,-1.19,-0.68,-1.52,4.68,4.69,4.68
116.39,5.86,1.25,5.86,1.24,-1.24,-0.71,-1.57,4.62,4.62,4.61
117.55,5.84,1.30,5.84,1.29,-1.29,-0.74,-1.62,4.55,4.55,4.54
118.73,5.82,1.35,5.81,1.33,-1.33,-0.77,-1.66,4.49,4.48,4.47
119.92,5.79,1.38,5.78,1.37,-1.37,-0.79,-1.70,4.42,4.41,4.41
121.12,5.77,1.42,5.75,1.41,-1.41,-0.82,-1.74,4.36,4.34,4.34
122.33,5.73,1.46,5.72,1.44,-1.44,-0.85,-1.77,4.28,4.27,4.27
123.55,5.70,1.48,5.69,1.48,-1.48,-0.88,-1.80,4.22,4.21,4.21
124.79,5.66,1.51,5.66,1.52,-1.52,-0.90,-1.83,4.14,4.14,4.15
126.03,5.62,1.54,5.63,1.56,-1.56,-0.93,-1.86,4.06,4.07,4.08
127.29,5.58,1.57,5.59,1.59,-1.59,-0.96,-1.88,3.99,4.00,4.01
128.57,5.55,1.61,5.56,1.63,-1.63,-0.98,-1.90,3.92,3.94,3.94
129.85,5.51,1.64,5.53,1.67,-1.67,-1.00,-1.91,3.84,3.87,3.87
131.15,5.49,1.69,5.50,1.70,-1.70,-1.03,-1.93,3.79,3.80,3.80
132.46,5.47,1.74,5.47,1.74,-1.74,-1.05,-1.94,3.73,3.73,3.73
133.79,5.45,1.79,5.45,1.78,-1.78,-1.07,-1.95,3.67,3.67,3.66
135.12,5.43,1.83,5.42,1.82,-1.82,-1.10,-1.95,3.61,3.60,3.60
136.48,5.41,1.87,5.39,1.86,-1.86,-1.12,-1.95,3.55,3.54,3.54
137.84,5.38,1.91,5.37,1.90,-1.90,-1.14,-1.95,3.48,3.47,3.47
139.22,5.35,1.95,5.34,1.93,-1.93,-1.16,-1.95,3.42,3.41,3.40
140.61,5.32,1.97,5.32,1.97,-1.97,-1.18,-1.95,3.35,3.35,3.35
142.02,5.29,2.01,5.29,2.01,-2.01,-1.20,-1.95,3.28,3.29,3.28
143.44,5.26,2.03,5.27,2.04,-2.04,-1.22,-1.95,3.22,3.23,3.23
144.87,5.23,2.06,5.24,2.07,-2.07,-1.24,-1.94,3.16,3.17,3.17
146.32,5.21,2.10,5.22,2.10,-2.10,-1.26,-1.93,3.11,3.11,3.11
147.78,5.18,2.12,5.19,2.13,-2.13,-1.27,-1.93,3.05,3.06,3.06
149.26,5.16,2.16,5.16,2.16,-2.16,-1.29,-1.92,3.00,3.00,3.00
150.75,5.14,2.20,5.13,2.18,-2.18,-1.31,-1.92,2.95,2.95,2.94
152.26,5.12,2.22,5.11,2.21,-2.21,-1.32,-1.91,2.91,2.89,2.90
153.78,5.09,2.25,5.08,2.24,-2.24,-1.34,-1.91,2.85,2.84,2.84
155.32,5.06,2.27,5.06,2.27,-2.27,-1.35,-1.90,2.79,2.78,2.79
156.88,5.03,2.29,5.03,2.30,-2.30,-1.37,-1.90,2.73,2.73,2.73
158.44,4.99,2.32,5.00,2.33,-2.33,-1.38,-1.90,2.66,2.67,2.67
160.03,4.96,2.34,4.97,2.36,-2.36,-1.40,-1.89,2.60,2.62,2.62
161.63,4.93,2.36,4.95,2.38,-2.38,-1.41,-1.89,2.55,2.56,2.56
163.24,4.91,2.40,4.91,2.41,-2.41,-1.42,-1.89,2.50,2.51,2.51
164.88,4.89,2.44,4.88,2.43,-2.43,-1.44,-1.90,2.46,2.45,2.45
166.53,4.86,2.47,4.85,2.45,-2.45,-1.45,-1.90,2.41,2.39,2.39
168.19,4.83,2.49,4.81,2.47,-2.47,-1.46,-1.90,2.36,2.34,2.34
169.87,4.78,2.50,4.77,2.49,-2.49,-1.47,-1.91,2.29,2.28,2.28
171.57,4.74,2.52,4.73,2.51,-2.51,-1.48,-1.92,2.23,2.22,2.22
173.29,4.69,2.52,4.69,2.52,-2.52,-1.49,-1.93,2.17,2.16,2.17
175.02,4.65,2.54,4.64,2.54,-2.54,-1.50,-1.94,2.11,2.11,2.11
176.77,4.60,2.55,4.60,2.55,-2.55,-1.51,-1.95,2.05,2.05,2.05
178.54,4.55,2.55,4.55,2.56,-2.56,-1.51,-1.97,1.99,2.00,2.00
180.32,4.50,2.57,4.51,2.57,-2.57,-1.52,-1.98,1.93,1.94,1.93
182.13,4.45,2.56,4.46,2.57,-2.57,-1.53,-2.00,1.88,1.89,1.89
183.95,4.40,2.56,4.41,2.58,-2.58,-1.54,-2.02,1.82,1.83,1.84
185.79,4.35,2.57,4.37,2.59,-2.59,-1.54,-2.04,1.76,1.78,1.77
187.65,4.32,2.59,4.32,2.60,-2.60,-1.55,-2.06,1.72,1.72,1.72
189.52,4.29,2.61,4.28,2.61,-2.61,-1.55,-2.09,1.68,1.67,1.68
191.42,4.24,2.61,4.24,2.61,-2.61,-1.56,-2.11,1.63,1.62,1.63
193.33,4.20,2.62,4.19,2.62,-2.62,-1.56,-2.14,1.58,1.57,1.58
195.27,4.15,2.62,4.15,2.62,-2.62,-1.57,-2.17,1.53,1.53,1.52
197.22,4.10,2.63,4.11,2.63,-2.63,-1.57,-2.20,1.47,1.48,1.47
199.19,4.06,2.62,4.07,2.63,-2.63,-1.57,-2.23,1.43,1.44,1.44
201.18,4.03,2.65,4.03,2.63,-2.63,-1.57,-2.26,1.40,1.40,1.38
203.19,4.00,2.65,3.99,2.63,-2.63,-1.58,-2.29,1.37,1.35,1.35
205.23,3.95,2.63,3.94,2.63,-2.63,-1.58,-2.32,1.32,1.31,1.32
207.28,3.90,2.62,3.90,2.62,-2.62,-1.58,-2.35,1.28,1.28,1.28
209.35,3.85,2.61,3.85,2.61,-2.61,-1.58,-2.38,1.24,1.24,1.24
211.44,3.80,2.59,3.80,2.60,-2.60,-1.58,-2.41,1.20,1.20,1.20
213.56,3.76,2.58,3.76,2.59,-2.59,-1.58,-2.44,1.17,1.17,1.18
215.69,3.72,2.58,3.71,2.57,-2.57,-1.58,-2.47,1.15,1.14,1.14
217.85,3.68,2.57,3.66,2.56,-2.56,-1.57,-2.50,1.12,1.10,1.11
220.03,3.62,2.55,3.61,2.53,-2.53,-1.57,-2.53,1.08,1.07,1.07
222.23,3.55,2.51,3.56,2.51,-2.51,-1.57,-2.55,1.04,1.04,1.04
224.45,3.49,2.48,3.50,2.49,-2.49,-1.57,-2.57,1.00,1.02,1.01
226.70,3.44,2.46,3.45,2.46,-2.46,-1.56,-2.59,0.98,0.99,0.98
228.96,3.39,2.42,3.40,2.43,-2.43,-1.56,-2.61,0.96,0.96,0.97
231.25,3.34,2.40,3.34,2.40,-2.40,-1.55,-2.62,0.94,0.94,0.94
233.57,3.30,2.38,3.29,2.37,-2.37,-1.55,-2.63,0.93,0.92,0.92
235.90,3.24,2.34,3.23,2.33,-2.33,-1.54,-2.64,0.90,0.90,0.90
238.26,3.18,2.31,3.18,2.30,-2.30,-1.53,-2.64,0.88,0.88,0.87
240.64,3.12,2.25,3.13,2.26,-2.26,-1.53,-2.64,0.86,0.87,0.87
243.05,3.07,2.21,3.08,2.22,-2.22,-1.52,-2.64,0.85,0.85,0.86
245.48,3.03,2.19,3.03,2.19,-2.19,-1.51,-2.63,0.84,0.84,0.84
247.93,2.98,2.16,2.98,2.15,-2.15,-1.50,-2.61,0.83,0.83,0.82
250.41,2.93,2.10,2.93,2.10,-2.10,-1.49,-2.59,0.83,0.82,0.83
252.92,2.88,2.06,2.88,2.06,-2.06,-1.48,-2.56,0.82,0.82,0.82
255.45,2.82,2.01,2.83,2.02,-2.02,-1.47,-2.53,0.80,0.81,0.81
258.00,2.78,1.98,2.77,1.97,-1.97,-1.46,-2.50,0.81,0.80,0.80
260.58,2.73,1.93,2.72,1.93,-1.93,-1.44,-2.46,0.80,0.79,0.80
263.19,2.68,1.88,2.67,1.88,-1.88,-1.43,-2.41,0.79,0.79,0.80
265.82,2.63,1.85,2.62,1.84,-1.84,-1.42,-2.36,0.79,0.78,0.78
268.48,2.57,1.79,2.57,1.79,-1.79,-1.40,-2.31,0.78,0.78,0.78
271.16,2.51,1.73,2.52,1.74,-1.74,-1.39,-2.25,0.76,0.77,0.78
273.87,2.46,1.69,2.46,1.69,-1.69,-1.37,-2.19,0.76,0.77,0.77
276.61,2.41,1.64,2.41,1.65,-1.65,-1.35,-2.13,0.76,0.76,0.77
279.38,2.36,1.61,2.36,1.60,-1.60,-1.34,-2.06,0.76,0.76,0.75
282.17,2.31,1.56,2.30,1.55,-1.55,-1.32,-1.99,0.76,0.76,0.75
284.99,2.25,1.49,2.25,1.49,-1.49,-1.30,-1.91,0.76,0.76,0.76
287.84,2.19,1.43,2.20,1.44,-1.44,-1.28,-1.83,0.75,0.76,0.76
290.72,2.14,1.39,2.14,1.39,-1.39,-1.26,-1.76,0.75,0.76,0.75
293.63,2.09,1.33,2.09,1.34,-1.34,-1.24,-1.68,0.75,0.76,0.76
296.57,2.04,1.28,2.04,1.28,-1.28,-1.22,-1.59,0.76,0.76,0.76
299.53,1.99,1.23,1.99,1.23,-1.23,-1.19,-1.51,0.76,0.76,0.76
302.53,1.94,1.16,1.94,1.17,-1.17,-1.17,-1.42,0.77,0.77,0.77
305.55,1.89,1.12,1.89,1.12,-1.12,-1.14,-1.34,0.77,0.77,0.77
308.61,1.84,1.06,1.84,1.06,-1.06,-1.12,-1.25,0.78,0.78,0.78
311.69,1.79,1.01,1.79,1.01,-1.01,-1.09,-1.16,0.78,0.78,0.78
314.81,1.74,0.95,1.74,0.95,-0.95,-1.06,-1.07,0.79,0.79,0.79
317.96,1.69,0.90,1.69,0.89,-0.89,-1.04,-0.98,0.79,0.79,0.79
321.14,1.64,0.84,1.64,0.84,-0.84,-1.01,-0.89,0.80,0.80,0.80
324.35,1.58,0.78,1.58,0.78,-0.78,-0.98,-0.81,0.80,0.80,0.80
327.59,1.53,0.71,1.53,0.72,-0.72,-0.94,-0.72,0.81,0.81,0.82
330.87,1.48,0.66,1.48,0.66,-0.66,-0.91,-0.62,0.82,0.82,0.82
334.18,1.42,0.60,1.42,0.60,-0.60,-0.88,-0.53,0.82,0.82,0.82
337.52,1.37,0.54,1.37,0.54,-0.54,-0.84,-0.44,0.83,0.83,0.83
340.90,1.32,0.48,1.31,0.47,-0.47,-0.81,-0.35,0.85,0.84,0.84
344.30,1.26,0.41,1.25,0.41,-0.41,-0.77,-0.26,0.85,0.84,0.85
347.75,1.20,0.35,1.20,0.35,-0.35,-0.73,-0.17,0.85,0.85,0.85
351.23,1.14,0.29,1.14,0.28,-0.28,-0.69,-0.08,0.86,0.86,0.85
354.74,1.08,0.21,1.08,0.22,-0.22,-0.65,0.01,0.86,0.86,0.87
358.28,1.03,0.16,1.03,0.16,-0.16,-0.61,0.10,0.87,0.87,0.87
361.87,0.97,0.09,0.97,0.09,-0.09,-0.57,0.19,0.88,0.88,0.87
365.49,0.91,0.03,0.91,0.03,-0.03,-0.53,0.28,0.88,0.88,0.88
369.14,0.85,-0.05,0.86,-0.03,0.03,-0.48,0.37,0.88,0.89,0.90
372.83,0.80,-0.10,0.81,-0.09,0.09,-0.43,0.46,0.89,0.90,0.90
376.56,0.75,-0.15,0.75,-0.15,0.15,-0.38,0.55,0.90,0.91,0.90
380.33,0.70,-0.21,0.70,-0.21,0.21,-0.34,0.64,0.91,0.91,0.91
384.13,0.65,-0.27,0.65,-0.27,0.27,-0.28,0.73,0.92,0.92,0.92
387.97,0.60,-0.33,0.60,-0.33,0.33,-0.23,0.82,0.93,0.93,0.93
391.85,0.54,-0.40,0.55,-0.39,0.39,-0.18,0.91,0.93,0.94,0.94
395.77,0.50,-0.45,0.50,-0.45,0.45,-0.12,1.00,0.95,0.95,0.94
399.73,0.45,-0.50,0.45,-0.51,0.51,-0.07,1.08,0.96,0.96,0.95
403.72,0.41,-0.57,0.40,-0.57,0.57,-0.01,1.17,0.98,0.97,0.98
407.76,0.36,-0.62,0.35,-0.63,0.63,0.05,1.26,0.98,0.98,0.98
411.84,0.30,-0.69,0.30,-0.68,0.68,0.11,1.35,0.98,0.99,0.98
415.96,0.24,-0.76,0.25,-0.74,0.74,0.18,1.43,0.98,0.99,1.00
420.12,0.19,-0.81,0.20,-0.81,0.81,0.24,1.51,0.99,1.00,1.00
424.32,0.15,-0.86,0.15,-0.86,0.86,0.31,1.60,1.01,1.01,1.01
428.56,0.11,-0.92,0.10,-0.92,0.92,0.38,1.68,1.03,1.02,1.03
432.85,0.06,-0.98,0.05,-0.98,0.98,0.44,1.76,1.04,1.03,1.03
437.18,0.01,-1.02,-0.00,-1.04,1.04,0.52,1.83,1.05,1.04,1.03
441.55,-0.05,-1.09,-0.05,-1.10,1.10,0.59,1.91,1.05,1.04,1.04
445.96,-0.11,-1.16,-0.10,-1.16,1.16,0.66,1.98,1.04,1.05,1.05
450.42,-0.17,-1.23,-0.15,-1.21,1.21,0.74,2.05,1.04,1.06,1.06
454.93,-0.22,-1.29,-0.20,-1.27,1.27,0.82,2.11,1.05,1.07,1.07
459.48,-0.25,-1.32,-0.24,-1.32,1.32,0.90,2.17,1.07,1.08,1.07
464.07,-0.28,-1.37,-0.29,-1.37,1.37,0.98,2.23,1.09,1.09,1.09
468.71,-0.32,-1.42,-0.33,-1.43,1.43,1.06,2.29,1.11,1.10,1.10
473.40,-0.37,-1.48,-0.38,-1.48,1.48,1.15,2.33,1.11,1.11,1.11
478.13,-0.42,-1.54,-0.42,-1.54,1.54,1.23,2.38,1.11,1.12,1.12
482.91,-0.46,-1.59,-0.46,-1.59,1.59,1.32,2.42,1.13,1.13,1.13
487.74,-0.50,-1.64,-0.50,-1.64,1.64,1.41,2.46,1.14,1.14,1.14
492.62,-0.54,-1.69,-0.54,-1.69,1.69,1.50,2.49,1.15,1.15,1.14
497.55,-0.58,-1.73,-0.58,-1.74,1.74,1.59,2.51,1.16,1.16,1.15
502.52,-0.62,-1.78,-0.62,-1.79,1.79,1.69,2.53,1.17,1.17,1.16
507.55,-0.66,-1.84,-0.66,-1.84,1.84,1.78,2.55,1.18,1.18,1.18
512.62,-0.70,-1.89,-0.70,-1.90,1.90,1.88,2.56,1.19,1.19,1.19
517.75,-0.75,-1.96,-0.74,-1.95,1.95,1.97,2.57,1.20,1.20,1.21
522.93,-0.79,-2.01,-0.79,-2.00,2.00,2.07,2.57,1.21,1.22,1.22
528.16,-0.82,-2.05,-0.83,-2.05,2.05,2.17,2.57,1.23,1.23,1.23
