frequency,raw,error,smoothed,error_smoothed,equalization,parametric_eq,fixed_band_eq,equalized_raw,equalized_smoothed,target
20.00,-5.55,-13.23,-5.54,-13.25,13.25,12.72,4.36,7.70,7.71,7.68
20.20,-5.42,-13.15,-5.40,-13.15,13.15,12.66,4.47,7.73,7.75,7.73
20.40,-5.28,-13.06,-5.27,-13.05,13.05,12.60,4.59,7.77,7.78,7.78
20.61,-5.15,-12.96,-5.14,-12.95,12.95,12.53,4.71,7.80,7.81,7.81
20.81,-5.01,-12.87,-5.01,-12.86,12.86,12.46,4.83,7.85,7.84,7.86
21.02,-4.88,-12.78,-4.88,-12.75,12.75,12.38,4.96,7.87,7.87,7.90
21.23,-4.75,-12.67,-4.76,-12.65,12.65,12.30,5.09,7.90,7.90,7.92
21.44,-4.63,-12.57,-4.63,-12.55,12.55,12.22,5.23,7.92,7.92,7.94
21.66,-4.50,-12.46,-4.51,-12.44,12.44,12.13,5.36,7.94,7.94,7.96
21.87,-4.37,-12.33,-4.38,-12.34,12.34,12.04,5.51,7.97,7.96,7.97
22.09,-4.24,-12.22,-4.26,-12.23,12.23,11.95,5.65,7.99,7.97,7.99
22.31,-4.11,-12.10,-4.14,-12.12,12.12,11.85,5.80,8.02,7.98,7.99
22.54,-3.98,-11.98,-4.03,-12.02,12.02,11.76,5.96,8.04,7.99,7.99
22.76,-3.85,-11.84,-3.92,-11.91,11.91,11.66,6.11,8.06,7.99,7.99
22.99,-3.72,-11.70,-3.80,-11.80,11.80,11.56,6.28,8.08,8.00,7.98
23.22,-3.65,-11.63,-3.68,-11.68,11.68,11.45,6.44,8.03,8.00,7.98
23.45,-3.60,-11.58,-3.57,-11.56,11.56,11.35,6.61,7.96,8.00,7.98
23.69,-3.54,-11.53,-3.45,-11.45,11.45,11.24,6.79,7.90,8.00,7.99
23.92,-3.48,-11.47,-3.33,-11.33,11.33,11.13,6.97,7.85,8.00,7.99
24.16,-3.33,-11.33,-3.21,-11.20,11.20,11.02,7.15,7.88,8.00,8.00
24.40,-3.14,-11.14,-3.09,-11.08,11.08,10.91,7.34,7.95,8.00,8.01
24.65,-2.94,-10.94,-2.97,-10.96,10.96,10.80,7.53,8.02,8.00,8.00
24.89,-2.75,-10.74,-2.84,-10.84,10.84,10.69,7.72,8.09,8.00,8.00
25.14,-2.61,-10.60,-2.72,-10.71,10.71,10.57,7.92,8.11,8.00,8.00
25.39,-2.52,-10.52,-2.59,-10.59,10.59,10.46,8.12,8.07,8.00,8.00
25.65,-2.42,-10.42,-2.45,-10.45,10.45,10.34,8.32,8.03,8.00,8.00
25.91,-2.33,-10.32,-2.32,-10.31,10.31,10.23,8.53,7.98,8.00,7.99
26.16,-2.21,-10.20,-2.18,-10.17,10.17,10.11,8.73,7.97,8.00,7.99
26.43,-2.08,-10.07,-2.04,-10.04,10.04,10.00,8.94,7.96,7.99,7.99
26.69,-1.96,-9.95,-1.91,-9.90,9.90,9.88,9.15,7.95,7.99,7.99
26.96,-1.83,-9.83,-1.79,-9.78,9.78,9.76,9.35,7.95,7.99,8.00
27.23,-1.70,-9.70,-1.67,-9.66,9.66,9.65,9.55,7.96,7.99,8.00
27.50,-1.56,-9.55,-1.56,-9.54,9.54,9.53,9.75,7.98,7.99,7.99
27.77,-1.42,-9.40,-1.44,-9.43,9.43,9.42,9.95,8.01,7.98,7.98
28.05,-1.29,-9.27,-1.32,-9.31,9.31,9.30,10.14,8.02,7.98,7.98
28.33,-1.18,-9.15,-1.21,-9.19,9.19,9.18,10.31,8.01,7.98,7.97
28.62,-1.06,-9.03,-1.09,-9.07,9.07,9.07,10.48,8.01,7.98,7.97
28.90,-0.95,-8.92,-0.98,-8.96,8.96,8.95,10.64,8.01,7.98,7.98
29.19,-0.85,-8.81,-0.87,-8.85,8.85,8.84,10.78,8.00,7.97,7.96
29.48,-0.76,-8.74,-0.77,-8.74,8.74,8.72,10.91,7.98,7.97,7.98
29.78,-0.68,-8.65,-0.66,-8.63,8.63,8.61,11.02,7.95,7.97,7.97
30.08,-0.58,-8.56,-0.56,-8.53,8.53,8.49,11.10,7.95,7.97,7.98
30.38,-0.48,-8.45,-0.46,-8.43,8.43,8.38,11.17,7.94,7.97,7.97
30.68,-0.38,-8.34,-0.36,-8.32,8.32,8.27,11.21,7.94,7.96,7.96
30.99,-0.28,-8.24,-0.26,-8.22,8.22,8.15,11.23,7.94,7.96,7.96
31.30,-0.17,-8.13,-0.15,-8.11,8.11,8.04,11.23,7.94,7.96,7.96
31.61,-0.05,-8.01,-0.05,-8.00,8.00,7.93,11.20,7.95,7.96,7.96
31.93,0.07,-7.89,0.06,-7.89,7.89,7.82,11.14,7.96,7.95,7.95
32.24,0.18,-7.76,0.16,-7.78,7.78,7.71,11.07,7.97,7.95,7.94
32.57,0.29,-7.66,0.28,-7.67,7.67,7.60,10.97,7.96,7.94,7.95
32.89,0.40,-7.54,0.39,-7.55,7.55,7.49,10.85,7.95,7.94,7.95
33.22,0.51,-7.42,0.51,-7.42,7.42,7.38,10.72,7.94,7.93,7.93
33.55,0.62,-7.31,0.62,-7.30,7.30,7.27,10.56,7.93,7.93,7.93
33.89,0.73,-7.19,0.74,-7.18,7.18,7.16,10.40,7.92,7.92,7.92
34.23,0.83,-7.09,0.85,-7.07,7.07,7.05,10.22,7.90,7.92,7.92
34.57,0.93,-6.98,0.96,-6.96,6.96,6.95,10.03,7.89,7.91,7.91
34.92,1.03,-6.88,1.06,-6.85,6.85,6.84,9.83,7.88,7.91,7.91
35.27,1.16,-6.74,1.16,-6.74,6.74,6.73,9.63,7.90,7.90,7.90
35.62,1.30,-6.60,1.26,-6.64,6.64,6.63,9.42,7.94,7.90,7.90
35.97,1.44,-6.45,1.36,-6.54,6.54,6.53,9.20,7.98,7.90,7.89
36.33,1.51,-6.39,1.46,-6.43,6.43,6.42,8.99,7.94,7.89,7.90
36.70,1.57,-6.32,1.56,-6.33,6.33,6.32,8.77,7.90,7.89,7.89
37.06,1.63,-6.25,1.66,-6.23,6.23,6.22,8.55,7.87,7.89,7.88
37.43,1.72,-6.17,1.75,-6.14,6.14,6.11,8.34,7.86,7.89,7.90
37.81,1.80,-6.09,1.84,-6.05,6.05,6.01,8.12,7.85,7.89,7.89
38.19,1.90,-5.99,1.93,-5.96,5.96,5.91,7.91,7.86,7.89,7.89
38.57,2.01,-5.88,2.03,-5.86,5.86,5.81,7.70,7.87,7.89,7.89
38.95,2.13,-5.76,2.12,-5.77,5.77,5.71,7.49,7.90,7.89,7.89
39.34,2.23,-5.66,2.20,-5.68,5.68,5.61,7.28,7.92,7.89,7.89
39.74,2.33,-5.55,2.29,-5.59,5.59,5.51,7.08,7.92,7.89,7.88
40.14,2.41,-5.48,2.39,-5.49,5.49,5.42,6.88,7.90,7.88,7.89
40.54,2.46,-5.42,2.49,-5.39,5.39,5.32,6.69,7.85,7.88,7.88
40.94,2.51,-5.36,2.60,-5.28,5.28,5.22,6.50,7.79,7.88,7.87
41.35,2.66,-5.21,2.70,-5.17,5.17,5.13,6.31,7.83,7.87,7.87
41.76,2.83,-5.03,2.79,-5.07,5.07,5.03,6.13,7.90,7.86,7.86
42.18,2.93,-4.93,2.88,-4.97,4.97,4.93,5.95,7.90,7.85,7.86
42.60,2.95,-4.89,2.96,-4.88,4.88,4.84,5.77,7.83,7.84,7.84
43.03,2.98,-4.86,3.03,-4.79,4.79,4.75,5.60,7.77,7.83,7.84
43.46,3.14,-4.69,3.11,-4.70,4.70,4.65,5.43,7.84,7.81,7.83
43.90,3.29,-4.51,3.19,-4.61,4.61,4.56,5.27,7.90,7.80,7.80
44.33,3.35,-4.43,3.27,-4.52,4.52,4.47,5.11,7.87,7.79,7.78
44.78,3.37,-4.39,3.35,-4.42,4.42,4.37,4.95,7.79,7.77,7.76
45.23,3.40,-4.35,3.43,-4.32,4.32,4.28,4.80,7.72,7.76,7.75
45.68,3.44,-4.29,3.51,-4.23,4.23,4.19,4.65,7.67,7.74,7.73
46.13,3.49,-4.22,3.58,-4.15,4.15,4.10,4.51,7.64,7.72,7.71
46.60,3.57,-4.14,3.65,-4.06,4.06,4.01,4.37,7.63,7.71,7.71
47.06,3.65,-4.04,3.72,-3.97,3.97,3.92,4.23,7.62,7.69,7.69
47.53,3.80,-3.88,3.79,-3.88,3.88,3.83,4.09,7.68,7.67,7.68
48.01,3.95,-3.72,3.86,-3.79,3.79,3.74,3.96,7.74,7.66,7.67
48.49,4.01,-3.64,3.92,-3.72,3.72,3.66,3.83,7.73,7.64,7.65
48.97,4.07,-3.56,3.99,-3.63,3.63,3.57,3.70,7.71,7.63,7.63
49.46,4.09,-3.52,4.06,-3.55,3.55,3.48,3.58,7.64,7.61,7.61
49.96,4.11,-3.47,4.14,-3.46,3.46,3.39,3.46,7.57,7.59,7.58
50.46,4.18,-3.40,4.21,-3.37,3.37,3.31,3.34,7.55,7.58,7.58
50.96,4.26,-3.30,4.28,-3.29,3.29,3.22,3.23,7.55,7.56,7.56
51.47,4.31,-3.23,4.34,-3.21,3.21,3.13,3.11,7.52,7.55,7.54
51.99,4.36,-3.16,4.40,-3.13,3.13,3.05,3.00,7.49,7.53,7.52
52.51,4.44,-3.07,4.46,-3.06,3.06,2.96,2.89,7.50,7.52,7.51
53.03,4.51,-3.00,4.51,-2.99,2.99,2.88,2.79,7.50,7.50,7.51
53.56,4.58,-2.91,4.57,-2.91,2.91,2.80,2.68,7.49,7.48,7.49
54.10,4.65,-2.82,4.64,-2.83,2.83,2.71,2.58,7.48,7.47,7.47
54.64,4.72,-2.73,4.71,-2.75,2.75,2.63,2.48,7.47,7.46,7.45
55.18,4.79,-2.65,4.78,-2.67,2.67,2.55,2.38,7.46,7.44,7.44
55.74,4.84,-2.58,4.84,-2.59,2.59,2.46,2.29,7.43,7.43,7.42
56.29,4.90,-2.51,4.90,-2.51,2.51,2.38,2.19,7.41,7.41,7.41
56.86,4.96,-2.43,4.96,-2.44,2.44,2.30,2.10,7.40,7.39,7.39
57.42,5.01,-2.35,5.02,-2.36,2.36,2.22,2.01,7.37,7.37,7.36
58.00,5.07,-2.28,5.07,-2.28,2.28,2.13,1.92,7.35,7.35,7.35
58.58,5.12,-2.21,5.12,-2.20,2.20,2.05,1.84,7.32,7.32,7.33
59.16,5.18,-2.13,5.17,-2.12,2.12,1.97,1.75,7.30,7.29,7.31
59.76,5.24,-2.04,5.21,-2.05,2.05,1.89,1.67,7.29,7.26,7.28
60.35,5.26,-1.98,5.26,-1.97,1.97,1.81,1.58,7.23,7.23,7.24
60.96,5.27,-1.93,5.30,-1.89,1.89,1.73,1.50,7.16,7.19,7.20
61.57,5.33,-1.82,5.34,-1.81,1.81,1.65,1.42,7.14,7.15,7.15
62.18,5.39,-1.71,5.38,-1.73,1.73,1.57,1.34,7.12,7.11,7.10
62.80,5.45,-1.60,5.41,-1.65,1.65,1.49,1.27,7.10,7.06,7.05
63.43,5.47,-1.53,5.45,-1.56,1.56,1.41,1.19,7.03,7.01,7.00
64.07,5.47,-1.48,5.49,-1.48,1.48,1.33,1.11,6.95,6.96,6.95
64.71,5.47,-1.43,5.52,-1.39,1.39,1.26,1.04,6.86,6.91,6.90
65.35,5.51,-1.35,5.55,-1.31,1.31,1.18,0.97,6.82,6.86,6.86
66.01,5.57,-1.24,5.58,-1.22,1.22,1.10,0.89,6.79,6.81,6.81
66.67,5.64,-1.11,5.62,-1.14,1.14,1.02,0.82,6.78,6.75,6.75
67.33,5.67,-1.02,5.65,-1.05,1.05,0.94,0.75,6.72,6.70,6.70
68.01,5.68,-0.97,5.67,-0.97,0.97,0.87,0.68,6.65,6.65,6.65
68.69,5.67,-0.92,5.69,-0.90,0.90,0.79,0.61,6.57,6.59,6.59
69.37,5.71,-0.82,5.71,-0.82,0.82,0.71,0.54,6.53,6.53,6.53
70.07,5.77,-0.70,5.73,-0.74,0.74,0.63,0.47,6.51,6.47,6.47
70.77,5.77,-0.65,5.75,-0.67,0.67,0.56,0.40,6.44,6.41,6.42
71.48,5.77,-0.59,5.76,-0.59,0.59,0.48,0.33,6.36,6.35,6.36
72.19,5.77,-0.52,5.77,-0.52,0.52,0.40,0.27,6.29,6.29,6.29
72.91,5.77,-0.46,5.77,-0.46,0.46,0.33,0.20,6.23,6.23,6.23
73.64,5.77,-0.39,5.77,-0.40,0.40,0.25,0.13,6.17,6.16,6.16
74.38,5.76,-0.34,5.77,-0.33,0.33,0.17,0.06,6.10,6.10,6.10
75.12,5.75,-0.28,5.77,-0.27,0.27,0.10,-0.01,6.02,6.04,6.03
75.87,5.77,-0.19,5.77,-0.21,0.21,0.02,-0.08,5.98,5.97,5.96
76.63,5.77,-0.14,5.77,-0.14,0.14,-0.05,-0.14,5.92,5.91,5.91
77.40,5.77,-0.08,5.77,-0.08,0.08,-0.13,-0.21,5.85,5.85,5.85
78.17,5.77,-0.01,5.77,-0.02,0.02,-0.21,-0.28,5.79,5.79,5.78
78.95,5.77,0.03,5.78,0.04,-0.04,-0.28,-0.35,5.73,5.73,5.74
79.74,5.77,0.10,5.78,0.11,-0.11,-0.36,-0.42,5.66,5.67,5.67
80.54,5.77,0.15,5.80,0.18,-0.18,-0.43,-0.49,5.59,5.62,5.62
81.35,5.80,0.24,5.82,0.26,-0.26,-0.51,-0.57,5.54,5.56,5.56
82.16,5.87,0.37,5.84,0.33,-0.33,-0.58,-0.64,5.54,5.51,5.50
82.98,5.87,0.41,5.86,0.41,-0.41,-0.66,-0.71,5.46,5.45,5.46
83.81,5.87,0.48,5.89,0.49,-0.49,-0.73,-0.78,5.38,5.39,5.39
84.65,5.92,0.59,5.92,0.58,-0.58,-0.81,-0.86,5.34,5.34,5.33
85.50,5.96,0.67,5.96,0.68,-0.68,-0.88,-0.93,5.28,5.28,5.29
86.35,5.98,0.75,6.00,0.78,-0.78,-0.96,-1.01,5.20,5.22,5.23
87.22,6.00,0.83,6.04,0.88,-0.88,-1.03,-1.09,5.12,5.16,5.17
88.09,6.09,0.98,6.09,0.99,-0.99,-1.11,-1.17,5.10,5.10,5.11
88.97,6.18,1.13,6.14,1.10,-1.10,-1.18,-1.25,5.08,5.04,5.05
89.86,6.18,1.20,6.19,1.21,-1.21,-1.26,-1.33,4.97,4.98,4.98
90.76,6.18,1.26,6.24,1.32,-1.32,-1.33,-1.41,4.86,4.92,4.92
91.66,6.31,1.44,6.29,1.42,-1.42,-1.41,-1.49,4.89,4.86,4.87
92.58,6.38,1.59,6.33,1.53,-1.53,-1.48,-1.57,4.85,4.80,4.79
93.51,6.39,1.65,6.38,1.64,-1.64,-1.56,-1.66,4.75,4.75,4.74
94.44,6.43,1.75,6.43,1.74,-1.74,-1.63,-1.74,4.69,4.69,4.69
95.39,6.49,1.86,6.47,1.85,-1.85,-1.71,-1.83,4.64,4.63,4.63
96.34,6.54,1.98,6.52,1.95,-1.95,-1.78,-1.92,4.59,4.57,4.56
97.30,6.58,2.07,6.55,2.04,-2.04,-1.86,-2.01,4.54,4.51,4.51
98.28,6.57,2.12,6.58,2.13,-2.13,-1.93,-2.10,4.44,4.45,4.45
99.26,6.58,2.19,6.62,2.22,-2.22,-2.01,-2.19,4.36,4.40,4.39
100.25,6.62,2.28,6.65,2.32,-2.32,-2.08,-2.28,4.31,4.34,4.34
101.25,6.65,2.37,6.68,2.40,-2.40,-2.16,-2.37,4.25,4.28,4.28
102.27,6.72,2.50,6.70,2.48,-2.48,-2.23,-2.46,4.24,4.22,4.22
103.29,6.76,2.61,6.73,2.57,-2.57,-2.31,-2.55,4.19,4.16,4.16
104.32,6.77,2.66,6.75,2.65,-2.65,-2.38,-2.65,4.12,4.10,4.11
105.37,6.75,2.70,6.76,2.72,-2.72,-2.46,-2.74,4.03,4.04,4.05
106.42,6.76,2.77,6.77,2.79,-2.79,-2.53,-2.83,3.97,3.98,3.99
107.48,6.80,2.88,6.78,2.86,-2.86,-2.61,-2.92,3.94,3.92,3.92
108.56,6.84,2.98,6.80,2.94,-2.94,-2.68,-3.01,3.90,3.86,3.86
109.64,6.86,3.06,6.81,3.02,-3.02,-2.76,-3.10,3.84,3.80,3.80
110.74,6.84,3.11,6.83,3.09,-3.09,-2.83,-3.19,3.75,3.73,3.73
111.85,6.82,3.14,6.84,3.17,-3.17,-2.91,-3.28,3.66,3.67,3.68
112.97,6.81,3.20,6.85,3.24,-3.24,-2.98,-3.36,3.57,3.61,3.61
114.10,6.81,3.26,6.86,3.31,-3.31,-3.06,-3.45,3.50,3.55,3.55
115.24,6.81,3.32,6.88,3.38,-3.38,-3.13,-3.53,3.43,3.50,3.49
116.39,6.88,3.45,6.91,3.46,-3.46,-3.21,-3.60,3.42,3.44,3.43
117.55,6.94,3.56,6.93,3.54,-3.54,-3.28,-3.68,3.40,3.39,3.38
118.73,7.01,3.68,6.96,3.62,-3.62,-3.36,-3.75,3.39,3.34,3.33
119.92,7.02,3.73,6.99,3.70,-3.70,-3.43,-3.82,3.32,3.29,3.29
121.12,7.03,3.79,7.03,3.78,-3.78,-3.51,-3.89,3.25,3.25,3.24
122.33,7.04,3.84,7.07,3.86,-3.86,-3.58,-3.95,3.18,3.20,3.20
123.55,7.08,3.92,7.11,3.95,-3.95,-3.66,-4.01,3.13,3.16,3.16
124.79,7.14,4.02,7.14,4.02,-4.02,-3.73,-4.07,3.12,3.12,3.12
126.03,7.16,4.08,7.18,4.10,-4.10,-3.81,-4.12,3.06,3.08,3.08
127.29,7.23,4.18,7.21,4.17,-4.17,-3.88,-4.17,3.06,3.04,3.05
128.57,7.27,4.27,7.23,4.23,-4.23,-3.96,-4.22,3.04,3.00,3.00
129.85,7.28,4.32,7.25,4.29,-4.29,-4.03,-4.26,2.99,2.96,2.96
131.15,7.28,4.36,7.26,4.34,-4.34,-4.11,-4.30,2.94,2.92,2.92
132.46,7.29,4.41,7.28,4.39,-4.39,-4.18,-4.34,2.90,2.89,2.89
133.79,7.29,4.44,7.29,4.44,-4.44,-4.26,-4.38,2.85,2.85,2.85
135.12,7.30,4.50,7.29,4.48,-4.48,-4.33,-4.41,2.82,2.81,2.80
136.48,7.30,4.52,7.30,4.52,-4.52,-4.41,-4.44,2.78,2.78,2.78
137.84,7.30,4.57,7.30,4.56,-4.56,-4.48,-4.47,2.74,2.74,2.73
139.22,7.31,4.62,7.31,4.60,-4.60,-4.55,-4.50,2.71,2.70,2.69
140.61,7.31,4.66,7.32,4.65,-4.65,-4.63,-4.53,2.66,2.66,2.65
142.02,7.31,4.68,7.33,4.70,-4.70,-4.70,-4.56,2.61,2.62,2.63
143.44,7.31,4.72,7.34,4.76,-4.76,-4.78,-4.59,2.55,2.58,2.59
144.87,7.31,4.77,7.36,4.83,-4.83,-4.85,-4.61,2.48,2.53,2.54
146.32,7.31,4.82,7.39,4.91,-4.91,-4.92,-4.64,2.40,2.48,2.49
147.78,7.31,4.86,7.42,5.00,-5.00,-5.00,-4.67,2.31,2.43,2.45
149.26,7.44,5.04,7.44,5.08,-5.08,-5.07,-4.70,2.36,2.36,2.40
150.75,7.51,5.19,7.46,5.16,-5.16,-5.14,-4.73,2.35,2.30,2.32
152.26,7.51,5.26,7.46,5.23,-5.23,-5.21,-4.77,2.28,2.23,2.25
153.78,7.51,5.34,7.45,5.30,-5.30,-5.28,-4.80,2.21,2.15,2.17
155.32,7.51,5.42,7.44,5.36,-5.36,-5.36,-4.84,2.15,2.08,2.09
156.88,7.51,5.50,7.41,5.41,-5.41,-5.43,-4.88,2.10,2.00,2.01
158.44,7.51,5.59,7.38,5.46,-5.46,-5.50,-4.92,2.05,1.92,1.92
160.03,7.51,5.68,7.35,5.51,-5.51,-5.57,-4.97,2.00,1.85,1.83
161.63,7.36,5.61,7.32,5.55,-5.55,-5.64,-5.02,1.81,1.77,1.75
163.24,7.24,5.56,7.29,5.59,-5.59,-5.71,-5.07,1.65,1.71,1.68
164.88,7.14,5.51,7.26,5.62,-5.62,-5.78,-5.13,1.52,1.64,1.63
166.53,7.08,5.51,7.23,5.64,-5.64,-5.85,-5.19,1.44,1.59,1.57
168.19,7.08,5.56,7.22,5.68,-5.68,-5.91,-5.25,1.40,1.54,1.53
169.87,7.09,5.61,7.22,5.72,-5.72,-5.98,-5.32,1.37,1.50,1.48
171.57,7.18,5.72,7.23,5.76,-5.76,-6.05,-5.39,1.42,1.47,1.46
173.29,7.25,5.81,7.26,5.81,-5.81,-6.12,-5.47,1.44,1.45,1.44
175.02,7.27,5.85,7.29,5.86,-5.86,-6.18,-5.55,1.41,1.43,1.43
176.77,7.42,6.02,7.33,5.92,-5.92,-6.25,-5.63,1.50,1.41,1.40
178.54,7.46,6.06,7.39,5.99,-5.99,-6.31,-5.72,1.47,1.40,1.40
180.32,7.47,6.07,7.45,6.06,-6.06,-6.37,-5.82,1.41,1.39,1.40
182.13,7.53,6.13,7.52,6.14,-6.14,-6.44,-5.91,1.39,1.38,1.40
183.95,7.61,6.23,7.58,6.21,-6.21,-6.50,-6.01,1.40,1.37,1.38
185.79,7.69,6.31,7.63,6.28,-6.28,-6.56,-6.12,1.41,1.35,1.38
187.65,7.71,6.36,7.68,6.34,-6.34,-6.62,-6.23,1.37,1.34,1.35
189.52,7.73,6.39,7.73,6.40,-6.40,-6.68,-6.34,1.33,1.33,1.34
191.42,7.74,6.43,7.77,6.46,-6.46,-6.73,-6.46,1.28,1.31,1.31
193.33,7.78,6.49,7.81,6.52,-6.52,-6.79,-6.58,1.26,1.29,1.29
195.27,7.84,6.57,7.85,6.58,-6.58,-6.85,-6.71,1.26,1.27,1.27
197.22,7.88,6.64,7.89,6.64,-6.64,-6.90,-6.84,1.24,1.25,1.25
199.19,7.89,6.68,7.93,6.70,-6.70,-6.95,-6.97,1.19,1.22,1.21
201.18,7.93,6.74,7.97,6.77,-6.77,-7.01,-7.11,1.16,1.20,1.19
203.19,7.99,6.82,8.01,6.83,-6.83,-7.06,-7.24,1.16,1.17,1.17
205.23,8.07,6.93,8.04,6.89,-6.89,-7.11,-7.38,1.18,1.15,1.15
207.28,8.11,6.97,8.07,6.95,-6.95,-7.15,-7.53,1.16,1.12,1.14
209.35,8.11,7.00,8.11,7.01,-7.01,-7.20,-7.67,1.10,1.10,1.11
211.44,8.18,7.11,8.15,7.06,-7.06,-7.24,-7.81,1.12,1.08,1.07
213.56,8.20,7.14,8.18,7.12,-7.12,-7.29,-7.96,1.08,1.06,1.06
215.69,8.20,7.15,8.21,7.16,-7.16,-7.33,-8.10,1.04,1.05,1.05
217.85,8.23,7.20,8.24,7.21,-7.21,-7.37,-8.24,1.02,1.03,1.03
220.03,8.27,7.25,8.26,7.24,-7.24,-7.40,-8.37,1.03,1.02,1.02
222.23,8.29,7.30,8.28,7.27,-7.27,-7.44,-8.50,1.02,1.01,0.99
224.45,8.29,7.29,8.30,7.30,-7.30,-7.47,-8.63,0.99,1.01,1.00
226.70,8.29,7.29,8.32,7.32,-7.32,-7.51,-8.75,0.97,1.00,1.00
228.96,8.35,7.35,8.34,7.34,-7.34,-7.54,-8.86,1.01,1.01,1.00
231.25,8.39,7.38,8.37,7.36,-7.36,-7.56,-8.97,1.03,1.01,1.01
233.57,8.41,7.39,8.39,7.37,-7.37,-7.59,-9.06,1.04,1.02,1.02
235.90,8.42,7.39,8.42,7.39,-7.39,-7.61,-9.14,1.03,1.03,1.03
238.26,8.44,7.41,8.45,7.40,-7.40,-7.63,-9.20,1.04,1.05,1.04
240.64,8.46,7.41,8.49,7.42,-7.42,-7.65,-9.25,1.04,1.06,1.05
243.05,8.47,7.39,8.52,7.44,-7.44,-7.67,-9.29,1.03,1.08,1.08
245.48,8.52,7.42,8.56,7.46,-7.46,-7.68,-9.31,1.06,1.10,1.10
247.93,8.62,7.49,8.60,7.48,-7.48,-7.69,-9.31,1.14,1.12,1.13
250.41,8.64,7.50,8.64,7.50,-7.50,-7.70,-9.29,1.14,1.14,1.14
252.92,8.65,7.48,8.68,7.52,-7.52,-7.71,-9.26,1.13,1.17,1.18
255.45,8.75,7.55,8.71,7.53,-7.53,-7.71,-9.21,1.22,1.19,1.20
258.00,8.77,7.55,8.74,7.53,-7.53,-7.71,-9.14,1.24,1.21,1.22
260.58,8.79,7.56,8.77,7.54,-7.54,-7.71,-9.06,1.25,1.23,1.23
263.19,8.86,7.60,8.80,7.55,-7.55,-7.71,-8.96,1.31,1.26,1.26
265.82,8.88,7.61,8.83,7.55,-7.55,-7.70,-8.84,1.33,1.28,1.27
268.48,8.88,7.58,8.86,7.56,-7.56,-7.69,-8.71,1.32,1.30,1.30
271.16,8.87,7.54,8.88,7.56,-7.56,-7.68,-8.57,1.31,1.33,1.33
273.87,8.87,7.53,8.90,7.55,-7.55,-7.66,-8.42,1.32,1.35,1.34
276.61,8.87,7.49,8.92,7.55,-7.55,-7.65,-8.26,1.32,1.38,1.38
279.38,8.87,7.47,8.94,7.54,-7.54,-7.62,-8.09,1.34,1.40,1.40
282.17,8.89,7.47,8.95,7.52,-7.52,-7.60,-7.92,1.37,1.43,1.42
284.99,8.95,7.49,8.95,7.49,-7.49,-7.57,-7.74,1.46,1.45,1.46
287.84,8.99,7.52,8.95,7.47,-7.47,-7.54,-7.55,1.52,1.48,1.47
290.72,9.00,7.49,8.96,7.45,-7.45,-7.51,-7.36,1.55,1.51,1.51
293.63,9.01,7.48,8.96,7.42,-7.42,-7.47,-7.17,1.59,1.54,1.53
296.57,9.02,7.45,8.96,7.40,-7.40,-7.43,-6.98,1.63,1.57,1.57
299.53,8.95,7.36,8.96,7.37,-7.37,-7.39,-6.78,1.58,1.59,1.59
302.53,8.94,7.33,8.96,7.34,-7.34,-7.35,-6.59,1.60,1.62,1.61
305.55,8.92,7.27,8.95,7.31,-7.31,-7.30,-6.39,1.61,1.64,1.65
308.61,8.87,7.20,8.93,7.27,-7.27,-7.25,-6.20,1.60,1.67,1.67
311.69,8.87,7.18,8.90,7.22,-7.22,-7.19,-6.01,1.65,1.69,1.69
314.81,8.87,7.15,8.87,7.16,-7.16,-7.13,-5.82,1.71,1.71,1.72
317.96,8.88,7.14,8.84,7.11,-7.11,-7.07,-5.63,1.77,1.73,1.74
321.14,8.87,7.13,8.81,7.06,-7.06,-7.01,-5.44,1.81,1.75,1.74
324.35,8.80,7.04,8.77,7.01,-7.01,-6.94,-5.26,1.79,1.76,1.76
327.59,8.74,6.96,8.73,6.96,-6.96,-6.87,-5.07,1.79,1.78,1.78
330.87,8.68,6.90,8.68,6.89,-6.89,-6.80,-4.89,1.79,1.79,1.78
334.18,8.59,6.79,8.64,6.84,-6.84,-6.72,-4.72,1.76,1.80,1.80
337.52,8.57,6.76,8.59,6.78,-6.78,-6.65,-4.54,1.80,1.81,1.81
340.90,8.50,6.68,8.53,6.71,-6.71,-6.56,-4.37,1.79,1.82,1.82
344.30,8.46,6.63,8.47,6.65,-6.65,-6.48,-4.20,1.81,1.82,1.83
347.75,8.46,6.63,8.42,6.59,-6.59,-6.39,-4.04,1.87,1.83,1.83
351.23,8.42,6.58,8.37,6.54,-6.54,-6.30,-3.87,1.88,1.83,1.84
354.74,8.32,6.49,8.31,6.47,-6.47,-6.21,-3.71,1.85,1.84,1.83
358.28,8.18,6.34,8.25,6.41,-6.41,-6.11,-3.56,1.77,1.84,1.84
361.87,8.10,6.26,8.19,6.35,-6.35,-6.01,-3.40,1.75,1.84,1.84
365.49,8.05,6.20,8.12,6.28,-6.28,-5.91,-3.25,1.77,1.84,1.85
369.14,8.08,6.25,8.05,6.21,-6.21,-5.80,-3.10,1.87,1.84,1.83
372.83,8.03,6.20,7.98,6.15,-6.15,-5.69,-2.95,1.88,1.84,1.83
376.56,7.92,6.09,7.91,6.07,-6.07,-5.58,-2.81,1.85,1.83,1.83
380.33,7.89,6.05,7.82,5.98,-5.98,-5.47,-2.66,1.91,1.83,1.84
384.13,7.80,5.96,7.72,5.89,-5.89,-5.35,-2.52,1.91,1.83,1.84
387.97,7.56,5.74,7.61,5.78,-5.78,-5.23,-2.39,1.78,1.82,1.82
391.85,7.43,5.62,7.49,5.68,-5.68,-5.10,-2.25,1.75,1.82,1.81
395.77,7.32,5.50,7.37,5.56,-5.56,-4.98,-2.12,1.76,1.81,1.82
399.73,7.23,5.42,7.23,5.43,-5.43,-4.85,-1.99,1.81,1.80,1.81
403.72,7.15,5.34,7.07,5.27,-5.27,-4.71,-1.86,1.88,1.80,1.81
407.76,7.03,5.23,6.91,5.11,-5.11,-4.58,-1.73,1.92,1.79,1.80
411.84,6.78,4.99,6.73,4.94,-4.94,-4.44,-1.61,1.84,1.79,1.80
415.96,6.50,4.71,6.55,4.76,-4.76,-4.30,-1.49,1.74,1.79,1.79
420.12,6.32,4.53,6.37,4.58,-4.58,-4.15,-1.37,1.74,1.79,1.79
424.32,6.19,4.40,6.17,4.37,-4.37,-4.00,-1.25,1.82,1.80,1.79
428.56,5.98,4.18,5.98,4.17,-4.17,-3.85,-1.14,1.81,1.81,1.80
432.85,5.77,3.96,5.79,3.97,-3.97,-3.69,-1.03,1.80,1.82,1.81
437.18,5.53,3.71,5.60,3.75,-3.75,-3.53,-0.92,1.78,1.84,1.82
441.55,5.32,3.46,5.40,3.53,-3.53,-3.37,-0.81,1.79,1.87,1.86
445.96,5.21,3.32,5.21,3.31,-3.31,-3.20,-0.70,1.90,1.90,1.89
450.42,5.05,3.14,5.02,3.08,-3.08,-3.03,-0.60,1.97,1.94,1.92
454.93,4.79,2.83,4.82,2.85,-2.85,-2.86,-0.50,1.94,1.98,1.96
459.48,4.62,2.61,4.63,2.61,-2.61,-2.68,-0.41,2.01,2.02,2.01
464.07,4.41,2.35,4.43,2.37,-2.37,-2.50,-0.32,2.04,2.07,2.06
468.71,4.18,2.06,4.24,2.12,-2.12,-2.31,-0.23,2.06,2.11,2.12
473.40,4.11,1.95,4.04,1.87,-1.87,-2.13,-0.14,2.24,2.16,2.16
478.13,3.97,1.75,3.84,1.63,-1.63,-1.93,-0.06,2.34,2.21,2.22
482.91,3.70,1.44,3.65,1.39,-1.39,-1.73,0.03,2.31,2.26,2.26
487.74,3.45,1.15,3.45,1.15,-1.15,-1.53,0.10,2.30,2.30,2.30
492.62,3.23,0.88,3.24,0.91,-0.91,-1.33,0.18,2.32,2.33,2.35
497.55,2.94,0.57,3.03,0.67,-0.67,-1.12,0.25,2.27,2.36,2.37
502.52,2.65,0.25,2.81,0.43,-0.43,-0.90,0.32,2.22,2.39,2.40
507.55,2.51,0.10,2.59,0.19,-0.19,-0.68,0.38,2.32,2.40,2.41
512.62,2.42,0.00,2.36,-0.05,0.05,-0.46,0.44,2.47,2.41,2.42
517.75,2.22,-0.20,2.12,-0.28,0.28,-0.23,0.50,2.50,2.40,2.42
522.93,1.92,-0.49,1.87,-0.52,0.52,0.00,0.56,2.44,2.39,2.41
528.16,1.68,-0.70,1.60,-0.77,0.77,0.24,0.61,2.45,2.37,2.38
533.44,1.39,-0.96,1.33,-1.00,1.00,0.48,0.67,2.40,2.34,2.35
538.77,1.07,-1.25,1.06,-1.25,1.25,0.73,0.72,2.32,2.30,2.32
