frequency,raw,error,smoothed,error_smoothed,equalization,parametric_eq,fixed_band_eq,equalized_raw,equalized_smoothed,target
20.00,15.16,5.23,15.16,5.23,-5.24,-4.87,-2.13,9.92,9.92,9.93
20.20,15.16,5.24,15.16,5.24,-5.24,-4.87,-2.19,9.92,9.92,9.92
20.40,15.16,5.25,15.16,5.25,-5.25,-4.87,-2.26,9.91,9.92,9.91
20.61,15.16,5.25,15.16,5.26,-5.25,-4.86,-2.32,9.91,9.91,9.91
20.81,15.16,5.27,15.16,5.26,-5.25,-4.86,-2.39,9.91,9.91,9.89
21.02,15.16,5.27,15.16,5.26,-5.25,-4.86,-2.46,9.91,9.91,9.89
21.23,15.14,5.26,15.14,5.25,-5.24,-4.86,-2.53,9.90,9.90,9.88
21.44,15.12,5.23,15.12,5.23,-5.23,-4.86,-2.60,9.89,9.89,9.89
21.66,15.09,5.21,15.09,5.21,-5.22,-4.86,-2.67,9.87,9.88,9.88
21.87,15.07,5.20,15.07,5.20,-5.20,-4.85,-2.75,9.87,9.87,9.87
22.09,15.05,5.19,15.05,5.18,-5.18,-4.85,-2.83,9.87,9.87,9.86
22.31,15.03,5.17,15.03,5.17,-5.17,-4.85,-2.91,9.86,9.86,9.86
22.54,15.01,5.16,15.01,5.15,-5.16,-4.85,-3.00,9.85,9.85,9.85
22.76,14.98,5.14,14.98,5.14,-5.15,-4.85,-3.08,9.83,9.83,9.84
22.99,14.96,5.13,14.97,5.13,-5.14,-4.85,-3.17,9.82,9.82,9.83
23.22,14.96,5.14,14.96,5.13,-5.14,-4.84,-3.26,9.82,9.82,9.82
23.45,14.96,5.13,14.96,5.14,-5.13,-4.84,-3.35,9.83,9.83,9.83
23.69,14.96,5.14,14.96,5.14,-5.12,-4.84,-3.44,9.84,9.84,9.82
23.92,14.96,5.14,14.96,5.13,-5.11,-4.84,-3.54,9.85,9.84,9.82
24.16,14.94,5.11,14.94,5.11,-5.10,-4.83,-3.63,9.84,9.84,9.83
24.40,14.92,5.08,14.92,5.08,-5.08,-4.83,-3.73,9.84,9.84,9.84
24.65,14.89,5.05,14.89,5.05,-5.06,-4.83,-3.83,9.83,9.84,9.84
24.89,14.87,5.03,14.87,5.03,-5.03,-4.83,-3.93,9.84,9.84,9.84
25.14,14.85,5.02,14.85,5.01,-5.01,-4.82,-4.04,9.84,9.84,9.83
25.39,14.82,4.99,14.82,4.99,-4.98,-4.82,-4.14,9.84,9.84,9.83
25.65,14.79,4.96,14.79,4.96,-4.96,-4.82,-4.24,9.83,9.83,9.83
25.91,14.77,4.93,14.77,4.93,-4.95,-4.82,-4.34,9.83,9.83,9.84
26.16,14.76,4.91,14.76,4.91,-4.93,-4.81,-4.45,9.83,9.83,9.85
26.43,14.76,4.91,14.76,4.91,-4.92,-4.81,-4.55,9.84,9.84,9.85
26.69,14.76,4.91,14.76,4.91,-4.90,-4.81,-4.65,9.86,9.86,9.85
26.96,14.76,4.92,14.76,4.91,-4.89,-4.80,-4.75,9.87,9.87,9.84
27.23,14.74,4.90,14.74,4.89,-4.88,-4.80,-4.85,9.87,9.86,9.84
27.50,14.71,4.87,14.71,4.87,-4.86,-4.80,-4.94,9.85,9.85,9.84
27.77,14.68,4.83,14.68,4.84,-4.84,-4.79,-5.04,9.84,9.84,9.85
28.05,14.66,4.81,14.66,4.81,-4.82,-4.79,-5.13,9.84,9.84,9.85
28.33,14.63,4.80,14.63,4.79,-4.79,-4.79,-5.21,9.84,9.84,9.83
28.62,14.60,4.77,14.60,4.77,-4.77,-4.78,-5.29,9.83,9.84,9.83
28.90,14.58,4.74,14.58,4.74,-4.74,-4.78,-5.37,9.84,9.84,9.84
29.19,14.56,4.72,14.56,4.72,-4.72,-4.78,-5.44,9.84,9.84,9.84
29.48,14.54,4.71,14.54,4.70,-4.70,-4.77,-5.50,9.84,9.84,9.83
29.78,14.52,4.69,14.52,4.68,-4.69,-4.77,-5.56,9.83,9.83,9.83
30.08,14.50,4.66,14.50,4.67,-4.67,-4.76,-5.61,9.83,9.83,9.84
30.38,14.48,4.65,14.49,4.66,-4.66,-4.76,-5.65,9.82,9.83,9.83
30.68,14.47,4.66,14.47,4.65,-4.65,-4.76,-5.68,9.82,9.82,9.81
30.99,14.46,4.65,14.45,4.64,-4.63,-4.75,-5.71,9.83,9.82,9.81
31.30,14.43,4.63,14.43,4.63,-4.62,-4.75,-5.73,9.81,9.81,9.80
31.61,14.40,4.61,14.40,4.61,-4.60,-4.74,-5.74,9.80,9.80,9.79
31.93,14.37,4.59,14.37,4.59,-4.59,-4.74,-5.74,9.78,9.78,9.78
32.24,14.34,4.56,14.34,4.57,-4.57,-4.73,-5.74,9.77,9.77,9.78
32.57,14.32,4.56,14.32,4.55,-4.56,-4.73,-5.73,9.76,9.76,9.76
32.89,14.30,4.54,14.30,4.54,-4.54,-4.73,-5.71,9.76,9.76,9.76
33.22,14.28,4.52,14.28,4.52,-4.53,-4.72,-5.68,9.76,9.76,9.76
33.55,14.27,4.52,14.27,4.51,-4.51,-4.72,-5.65,9.76,9.76,9.75
33.89,14.25,4.49,14.25,4.50,-4.49,-4.71,-5.61,9.76,9.76,9.76
34.23,14.23,4.49,14.23,4.48,-4.47,-4.71,-5.57,9.76,9.76,9.74
34.57,14.20,4.46,14.20,4.46,-4.45,-4.70,-5.52,9.75,9.75,9.74
34.92,14.17,4.44,14.17,4.43,-4.42,-4.70,-5.47,9.75,9.75,9.73
35.27,14.13,4.39,14.13,4.40,-4.40,-4.69,-5.42,9.74,9.74,9.74
35.62,14.10,4.38,14.10,4.37,-4.37,-4.69,-5.36,9.73,9.73,9.72
35.97,14.06,4.34,14.06,4.34,-4.35,-4.68,-5.30,9.71,9.71,9.72
36.33,14.03,4.33,14.02,4.32,-4.34,-4.67,-5.24,9.69,9.69,9.70
36.70,13.99,4.30,13.99,4.30,-4.32,-4.67,-5.17,9.67,9.67,9.69
37.06,13.96,4.29,13.97,4.30,-4.31,-4.66,-5.11,9.65,9.66,9.67
37.43,13.96,4.31,13.96,4.31,-4.30,-4.66,-5.05,9.66,9.67,9.65
37.81,13.96,4.33,13.95,4.32,-4.29,-4.65,-4.99,9.67,9.66,9.63
38.19,13.93,4.33,13.92,4.31,-4.29,-4.65,-4.92,9.64,9.63,9.60
38.57,13.86,4.28,13.86,4.28,-4.29,-4.64,-4.86,9.58,9.58,9.58
38.95,13.79,4.24,13.81,4.26,-4.29,-4.63,-4.80,9.50,9.52,9.55
39.34,13.77,4.26,13.77,4.26,-4.29,-4.63,-4.74,9.49,9.49,9.51
39.74,13.77,4.28,13.76,4.27,-4.28,-4.62,-4.69,9.49,9.48,9.49
40.14,13.75,4.29,13.75,4.29,-4.27,-4.62,-4.63,9.48,9.48,9.46
40.54,13.73,4.29,13.73,4.29,-4.26,-4.61,-4.58,9.47,9.47,9.44
40.94,13.71,4.30,13.70,4.28,-4.26,-4.60,-4.53,9.45,9.44,9.41
41.35,13.65,4.26,13.65,4.26,-4.25,-4.60,-4.49,9.40,9.40,9.39
41.76,13.59,4.24,13.60,4.24,-4.25,-4.59,-4.44,9.34,9.35,9.35
42.18,13.54,4.21,13.55,4.21,-4.24,-4.58,-4.40,9.30,9.31,9.33
42.60,13.52,4.21,13.52,4.21,-4.23,-4.58,-4.37,9.29,9.29,9.31
43.03,13.50,4.22,13.50,4.21,-4.22,-4.57,-4.33,9.28,9.28,9.28
43.46,13.48,4.23,13.48,4.23,-4.21,-4.56,-4.30,9.27,9.27,9.25
43.90,13.46,4.23,13.45,4.23,-4.21,-4.56,-4.27,9.26,9.25,9.23
44.33,13.42,4.23,13.42,4.22,-4.20,-4.55,-4.25,9.22,9.22,9.19
44.78,13.37,4.21,13.37,4.20,-4.20,-4.54,-4.22,9.17,9.17,9.16
45.23,13.33,4.18,13.32,4.19,-4.20,-4.53,-4.21,9.13,9.12,9.15
45.68,13.28,4.18,13.29,4.18,-4.21,-4.53,-4.19,9.07,9.08,9.10
46.13,13.25,4.19,13.26,4.19,-4.21,-4.52,-4.18,9.04,9.06,9.06
46.60,13.25,4.22,13.25,4.22,-4.21,-4.51,-4.17,9.04,9.03,9.03
47.06,13.24,4.25,13.23,4.23,-4.22,-4.51,-4.16,9.02,9.01,8.99
47.53,13.19,4.23,13.19,4.24,-4.22,-4.50,-4.16,8.97,8.97,8.96
48.01,13.14,4.24,13.15,4.24,-4.23,-4.49,-4.16,8.91,8.92,8.90
48.49,13.10,4.25,13.10,4.24,-4.24,-4.48,-4.16,8.86,8.86,8.85
48.97,13.05,4.24,13.05,4.24,-4.24,-4.48,-4.17,8.81,8.81,8.81
49.46,13.00,4.23,13.00,4.24,-4.24,-4.47,-4.18,8.76,8.76,8.77
49.96,12.95,4.25,12.95,4.24,-4.24,-4.46,-4.19,8.71,8.71,8.70
50.46,12.90,4.24,12.90,4.24,-4.24,-4.45,-4.20,8.66,8.66,8.66
50.96,12.85,4.23,12.86,4.24,-4.23,-4.44,-4.21,8.62,8.63,8.62
51.47,12.82,4.24,12.82,4.24,-4.23,-4.44,-4.23,8.59,8.59,8.58
51.99,12.78,4.25,12.77,4.23,-4.23,-4.43,-4.25,8.55,8.54,8.53
52.51,12.71,4.22,12.72,4.22,-4.22,-4.42,-4.27,8.49,8.49,8.49
53.03,12.65,4.19,12.67,4.22,-4.22,-4.41,-4.29,8.43,8.45,8.46
53.56,12.63,4.23,12.63,4.22,-4.22,-4.41,-4.31,8.41,8.40,8.40
54.10,12.60,4.25,12.58,4.22,-4.23,-4.40,-4.33,8.37,8.36,8.35
54.64,12.53,4.22,12.54,4.23,-4.23,-4.39,-4.35,8.30,8.30,8.31
55.18,12.48,4.23,12.49,4.24,-4.25,-4.38,-4.37,8.24,8.25,8.25
55.74,12.46,4.26,12.46,4.25,-4.26,-4.37,-4.39,8.20,8.20,8.20
56.29,12.44,4.27,12.43,4.27,-4.27,-4.37,-4.41,8.17,8.17,8.17
56.86,12.41,4.28,12.41,4.29,-4.28,-4.36,-4.43,8.13,8.13,8.13
57.42,12.38,4.31,12.38,4.30,-4.28,-4.35,-4.45,8.10,8.10,8.07
58.00,12.35,4.31,12.35,4.31,-4.28,-4.34,-4.47,8.07,8.07,8.04
58.58,12.31,4.30,12.31,4.30,-4.28,-4.33,-4.49,8.03,8.02,8.01
59.16,12.26,4.29,12.25,4.28,-4.28,-4.33,-4.50,7.98,7.97,7.97
59.76,12.18,4.25,12.20,4.27,-4.28,-4.32,-4.51,7.90,7.92,7.93
60.35,12.13,4.27,12.13,4.26,-4.28,-4.31,-4.52,7.85,7.86,7.86
60.96,12.09,4.28,12.07,4.26,-4.28,-4.30,-4.52,7.81,7.78,7.81
61.57,12.00,4.26,12.01,4.27,-4.29,-4.30,-4.53,7.71,7.72,7.74
62.18,11.94,4.27,11.97,4.29,-4.30,-4.29,-4.53,7.64,7.67,7.67
62.80,11.95,4.34,11.94,4.32,-4.31,-4.28,-4.52,7.64,7.63,7.61
63.43,11.92,4.37,11.91,4.35,-4.32,-4.27,-4.52,7.60,7.58,7.55
64.07,11.86,4.36,11.86,4.36,-4.33,-4.27,-4.51,7.53,7.53,7.50
64.71,11.78,4.34,11.79,4.35,-4.34,-4.26,-4.50,7.44,7.45,7.44
65.35,11.72,4.34,11.73,4.34,-4.35,-4.25,-4.48,7.37,7.38,7.38
66.01,11.68,4.36,11.66,4.33,-4.35,-4.24,-4.47,7.33,7.30,7.32
66.67,11.59,4.31,11.61,4.33,-4.35,-4.24,-4.45,7.24,7.25,7.28
67.33,11.54,4.34,11.56,4.35,-4.36,-4.23,-4.43,7.18,7.21,7.20
68.01,11.54,4.39,11.52,4.37,-4.36,-4.22,-4.40,7.18,7.16,7.15
68.69,11.48,4.40,11.47,4.39,-4.37,-4.22,-4.38,7.11,7.11,7.08
69.37,11.41,4.38,11.42,4.39,-4.38,-4.21,-4.35,7.03,7.04,7.03
70.07,11.34,4.38,11.35,4.39,-4.40,-4.21,-4.33,6.95,6.96,6.96
70.77,11.30,4.40,11.30,4.39,-4.41,-4.20,-4.30,6.89,6.88,6.90
71.48,11.25,4.42,11.24,4.41,-4.42,-4.19,-4.27,6.83,6.82,6.83
72.19,11.19,4.43,11.20,4.44,-4.44,-4.19,-4.24,6.76,6.77,6.76
72.91,11.15,4.45,11.17,4.47,-4.45,-4.18,-4.21,6.70,6.72,6.70
73.64,11.14,4.51,11.11,4.48,-4.47,-4.18,-4.19,6.68,6.65,6.63
74.38,11.07,4.50,11.05,4.48,-4.48,-4.17,-4.16,6.59,6.57,6.57
75.12,10.96,4.46,10.99,4.48,-4.49,-4.17,-4.13,6.47,6.50,6.50
75.87,10.93,4.47,10.94,4.49,-4.50,-4.16,-4.11,6.43,6.44,6.46
76.63,10.92,4.53,10.91,4.51,-4.51,-4.16,-4.08,6.41,6.40,6.39
77.40,10.88,4.54,10.88,4.53,-4.51,-4.15,-4.06,6.37,6.36,6.34
78.17,10.82,4.54,10.81,4.52,-4.51,-4.15,-4.04,6.31,6.30,6.28
78.95,10.74,4.50,10.74,4.50,-4.51,-4.15,-4.02,6.23,6.23,6.24
79.74,10.65,4.47,10.68,4.50,-4.51,-4.14,-4.01,6.14,6.18,6.18
80.54,10.64,4.52,10.63,4.50,-4.50,-4.14,-4.00,6.14,6.13,6.12
81.35,10.60,4.53,10.57,4.50,-4.49,-4.14,-3.99,6.11,6.08,6.07
82.16,10.50,4.48,10.51,4.50,-4.49,-4.14,-3.98,6.01,6.03,6.02
82.98,10.42,4.46,10.44,4.47,-4.48,-4.13,-3.97,5.94,5.95,5.96
83.81,10.39,4.49,10.37,4.47,-4.49,-4.13,-3.97,5.90,5.88,5.90
84.65,10.31,4.47,10.32,4.48,-4.49,-4.13,-3.97,5.82,5.83,5.84
85.50,10.27,4.50,10.27,4.50,-4.49,-4.13,-3.97,5.78,5.78,5.77
86.35,10.23,4.52,10.23,4.51,-4.50,-4.13,-3.98,5.73,5.73,5.71
87.22,10.18,4.52,10.17,4.51,-4.51,-4.13,-3.99,5.67,5.66,5.66
88.09,10.12,4.53,10.12,4.52,-4.52,-4.13,-4.00,5.60,5.60,5.59
88.97,10.02,4.48,10.07,4.53,-4.53,-4.13,-4.01,5.49,5.54,5.54
89.86,10.05,4.59,10.01,4.54,-4.54,-4.13,-4.03,5.51,5.47,5.46
90.76,9.96,4.56,9.95,4.55,-4.55,-4.14,-4.05,5.41,5.41,5.40
91.66,9.86,4.53,9.91,4.57,-4.55,-4.14,-4.08,5.31,5.35,5.33
92.58,9.85,4.58,9.82,4.55,-4.56,-4.14,-4.10,5.29,5.26,5.27
93.51,9.78,4.58,9.76,4.56,-4.57,-4.15,-4.13,5.21,5.19,5.20
94.44,9.67,4.54,9.71,4.58,-4.58,-4.15,-4.17,5.09,5.13,5.13
95.39,9.64,4.59,9.64,4.58,-4.58,-4.16,-4.20,5.06,5.05,5.05
96.34,9.60,4.63,9.56,4.59,-4.59,-4.16,-4.24,5.01,4.97,4.97
97.30,9.47,4.58,9.49,4.61,-4.60,-4.17,-4.28,4.87,4.90,4.89
98.28,9.39,4.59,9.41,4.61,-4.61,-4.17,-4.32,4.78,4.81,4.80
99.26,9.36,4.65,9.33,4.61,-4.62,-4.18,-4.37,4.74,4.71,4.71
100.25,9.26,4.63,9.26,4.62,-4.63,-4.19,-4.41,4.63,4.63,4.63
101.25,9.16,4.60,9.19,4.63,-4.63,-4.20,-4.46,4.53,4.56,4.56
102.27,9.12,4.65,9.11,4.63,-4.63,-4.21,-4.51,4.49,4.47,4.47
103.29,9.04,4.65,9.04,4.64,-4.63,-4.22,-4.56,4.41,4.41,4.39
104.32,8.96,4.64,8.96,4.64,-4.63,-4.23,-4.61,4.33,4.33,4.32
105.37,8.87,4.63,8.87,4.63,-4.62,-4.24,-4.67,4.25,4.25,4.24
106.42,8.77,4.62,8.77,4.62,-4.62,-4.25,-4.72,4.15,4.16,4.15
107.48,8.68,4.62,8.68,4.61,-4.62,-4.26,-4.77,4.07,4.07,4.06
108.56,8.59,4.59,8.59,4.60,-4.61,-4.27,-4.82,3.98,3.98,4.00
109.64,8.51,4.60,8.50,4.59,-4.61,-4.29,-4.87,3.90,3.89,3.91
110.74,8.42,4.59,8.44,4.60,-4.61,-4.30,-4.92,3.81,3.83,3.83
111.85,8.37,4.61,8.39,4.63,-4.61,-4.32,-4.97,3.76,3.78,3.76
112.97,8.38,4.69,8.33,4.64,-4.62,-4.33,-5.02,3.76,3.71,3.69
114.10,8.26,4.64,8.25,4.63,-4.62,-4.35,-5.06,3.64,3.62,3.62
115.24,8.12,4.58,8.16,4.62,-4.63,-4.36,-5.10,3.49,3.53,3.54
116.39,8.07,4.61,8.09,4.62,-4.64,-4.38,-5.13,3.43,3.45,3.46
117.55,8.06,4.66,8.03,4.64,-4.64,-4.40,-5.17,3.42,3.39,3.40
118.73,8.00,4.68,7.99,4.66,-4.64,-4.42,-5.19,3.36,3.34,3.32
119.92,7.90,4.64,7.93,4.66,-4.64,-4.44,-5.22,3.26,3.29,3.26
121.12,7.86,4.65,7.85,4.65,-4.64,-4.46,-5.23,3.22,3.21,3.21
122.33,7.80,4.66,7.79,4.64,-4.64,-4.48,-5.25,3.16,3.15,3.14
123.55,7.73,4.64,7.74,4.65,-4.64,-4.50,-5.25,3.09,3.10,3.09
124.79,7.68,4.65,7.67,4.64,-4.65,-4.52,-5.26,3.03,3.02,3.03
126.03,7.61,4.65,7.59,4.63,-4.66,-4.54,-5.25,2.95,2.93,2.96
127.29,7.52,4.62,7.55,4.65,-4.67,-4.56,-5.24,2.85,2.88,2.90
128.57,7.49,4.65,7.52,4.68,-4.68,-4.58,-5.23,2.81,2.83,2.84
129.85,7.54,4.77,7.48,4.70,-4.70,-4.60,-5.21,2.84,2.78,2.77
131.15,7.44,4.73,7.44,4.73,-4.71,-4.62,-5.18,2.73,2.73,2.71
132.46,7.35,4.70,7.40,4.75,-4.72,-4.64,-5.15,2.63,2.68,2.65
133.79,7.35,4.76,7.32,4.73,-4.72,-4.66,-5.12,2.63,2.60,2.59
135.12,7.29,4.76,7.27,4.73,-4.72,-4.68,-5.08,2.57,2.55,2.53
136.48,7.17,4.68,7.21,4.73,-4.72,-4.70,-5.04,2.46,2.50,2.49
137.84,7.15,4.72,7.11,4.69,-4.70,-4.72,-4.99,2.45,2.41,2.43
139.22,7.04,4.69,7.04,4.67,-4.69,-4.74,-4.94,2.35,2.35,2.35
140.61,6.93,4.62,6.98,4.68,-4.68,-4.76,-4.89,2.25,2.30,2.31
142.02,6.94,4.69,6.90,4.66,-4.67,-4.78,-4.84,2.27,2.23,2.25
143.44,6.87,4.69,6.86,4.66,-4.66,-4.80,-4.78,2.21,2.20,2.18
144.87,6.76,4.63,6.80,4.67,-4.65,-4.81,-4.73,2.11,2.16,2.13
146.32,6.76,4.68,6.72,4.64,-4.64,-4.83,-4.67,2.12,2.08,2.08
147.78,6.65,4.63,6.66,4.63,-4.63,-4.84,-4.61,2.02,2.03,2.02
149.26,6.56,4.59,6.60,4.63,-4.62,-4.86,-4.56,1.94,1.98,1.97
150.75,6.56,4.66,6.51,4.59,-4.61,-4.87,-4.50,1.95,1.90,1.90
152.26,6.44,4.58,6.44,4.58,-4.60,-4.88,-4.45,1.84,1.84,1.86
153.78,6.32,4.52,6.39,4.59,-4.59,-4.88,-4.39,1.74,1.81,1.80
155.32,6.35,4.60,6.32,4.57,-4.58,-4.89,-4.34,1.77,1.74,1.75
156.88,6.32,4.63,6.27,4.57,-4.57,-4.89,-4.29,1.75,1.69,1.69
158.44,6.16,4.53,6.22,4.59,-4.57,-4.90,-4.24,1.59,1.65,1.63
160.03,6.14,4.57,6.14,4.57,-4.57,-4.89,-4.19,1.57,1.57,1.57
161.63,6.12,4.61,6.06,4.55,-4.57,-4.89,-4.14,1.55,1.49,1.51
163.24,5.98,4.54,6.02,4.57,-4.57,-4.89,-4.10,1.41,1.46,1.44
164.88,5.92,4.53,5.96,4.57,-4.56,-4.88,-4.06,1.36,1.40,1.39
166.53,5.95,4.63,5.88,4.55,-4.54,-4.87,-4.02,1.41,1.34,1.32
168.19,5.80,4.53,5.82,4.55,-4.53,-4.86,-3.99,1.27,1.29,1.27
169.87,5.71,4.50,5.72,4.52,-4.51,-4.84,-3.96,1.20,1.21,1.21
171.57,5.64,4.50,5.62,4.47,-4.50,-4.82,-3.93,1.14,1.12,1.14
173.29,5.52,4.44,5.56,4.48,-4.48,-4.80,-3.90,1.04,1.08,1.08
175.02,5.50,4.47,5.49,4.46,-4.46,-4.78,-3.88,1.04,1.03,1.03
176.77,5.47,4.49,5.42,4.44,-4.44,-4.75,-3.86,1.03,0.98,0.98
178.54,5.30,4.38,5.37,4.44,-4.43,-4.72,-3.84,0.87,0.94,0.92
180.32,5.29,4.43,5.28,4.41,-4.42,-4.69,-3.82,0.88,0.87,0.86
182.13,5.26,4.44,5.21,4.39,-4.41,-4.66,-3.81,0.85,0.80,0.82
183.95,5.12,4.35,5.18,4.41,-4.40,-4.62,-3.80,0.72,0.78,0.77
185.79,5.11,4.39,5.12,4.40,-4.40,-4.58,-3.80,0.71,0.73,0.72
187.65,5.13,4.45,5.06,4.38,-4.39,-4.54,-3.79,0.74,0.67,0.68
189.52,4.99,4.36,5.03,4.40,-4.39,-4.50,-3.79,0.60,0.64,0.63
191.42,4.95,4.35,4.98,4.39,-4.39,-4.45,-3.79,0.56,0.59,0.60
193.33,4.98,4.43,4.92,4.37,-4.38,-4.41,-3.80,0.60,0.54,0.55
195.27,4.86,4.36,4.89,4.38,-4.36,-4.36,-3.81,0.50,0.53,0.50
197.22,4.80,4.35,4.83,4.37,-4.33,-4.30,-3.82,0.47,0.50,0.45
199.19,4.78,4.36,4.74,4.33,-4.30,-4.25,-3.83,0.48,0.44,0.42
201.18,4.67,4.30,4.67,4.29,-4.28,-4.20,-3.84,0.39,0.38,0.37
203.19,4.56,4.22,4.57,4.23,-4.27,-4.14,-3.85,0.29,0.30,0.34
205.23,4.48,4.18,4.48,4.18,-4.25,-4.08,-3.87,0.23,0.23,0.30
207.28,4.42,4.15,4.44,4.17,-4.22,-4.03,-3.89,0.20,0.22,0.27
209.35,4.43,4.20,4.44,4.21,-4.19,-3.97,-3.90,0.24,0.24,0.23
211.44,4.44,4.26,4.42,4.23,-4.17,-3.91,-3.92,0.27,0.25,0.18
213.56,4.39,4.24,4.35,4.20,-4.14,-3.85,-3.94,0.25,0.22,0.15
215.69,4.23,4.12,4.25,4.13,-4.10,-3.79,-3.96,0.13,0.14,0.11
217.85,4.10,4.02,4.13,4.05,-4.07,-3.72,-3.97,0.03,0.06,0.08
220.03,4.03,4.00,4.03,3.99,-4.03,-3.66,-3.99,0.00,0.00,0.03
222.23,3.97,3.96,3.96,3.95,-3.98,-3.60,-4.01,-0.01,-0.02,0.01
224.45,3.91,3.93,3.91,3.93,-3.93,-3.54,-4.02,-0.02,-0.03,-0.02
226.70,3.84,3.89,3.85,3.89,-3.90,-3.47,-4.03,-0.06,-0.05,-0.05
228.96,3.80,3.87,3.79,3.86,-3.86,-3.41,-4.04,-0.06,-0.07,-0.07
231.25,3.73,3.81,3.75,3.84,-3.84,-3.35,-4.05,-0.11,-0.09,-0.08
233.57,3.72,3.83,3.72,3.82,-3.81,-3.28,-4.05,-0.09,-0.09,-0.11
235.90,3.70,3.82,3.68,3.80,-3.78,-3.22,-4.05,-0.08,-0.10,-0.12
238.26,3.63,3.77,3.65,3.78,-3.75,-3.16,-4.05,-0.12,-0.10,-0.14
240.64,3.59,3.72,3.58,3.71,-3.71,-3.10,-4.04,-0.12,-0.13,-0.13
243.05,3.53,3.67,3.51,3.65,-3.67,-3.04,-4.03,-0.14,-0.16,-0.14
245.48,3.42,3.58,3.47,3.62,-3.63,-2.97,-4.01,-0.21,-0.16,-0.16
247.93,3.42,3.59,3.42,3.58,-3.59,-2.91,-3.99,-0.16,-0.17,-0.17
250.41,3.42,3.58,3.37,3.53,-3.54,-2.85,-3.97,-0.12,-0.17,-0.16
252.92,3.30,3.46,3.34,3.51,-3.49,-2.79,-3.94,-0.19,-0.15,-0.16
255.45,3.27,3.45,3.28,3.45,-3.45,-2.73,-3.90,-0.18,-0.17,-0.18
258.00,3.26,3.45,3.21,3.40,-3.41,-2.68,-3.86,-0.15,-0.20,-0.19
260.58,3.14,3.34,3.18,3.37,-3.36,-2.62,-3.82,-0.22,-0.19,-0.20
263.19,3.09,3.30,3.12,3.33,-3.31,-2.56,-3.77,-0.22,-0.20,-0.21
265.82,3.10,3.33,3.04,3.26,-3.26,-2.51,-3.72,-0.16,-0.23,-0.23
268.48,2.96,3.19,2.99,3.22,-3.21,-2.45,-3.66,-0.25,-0.23,-0.23
271.16,2.88,3.13,2.92,3.17,-3.17,-2.40,-3.60,-0.28,-0.24,-0.25
273.87,2.89,3.15,2.83,3.10,-3.12,-2.34,-3.53,-0.23,-0.28,-0.26
276.61,2.78,3.06,2.77,3.06,-3.07,-2.29,-3.47,-0.29,-0.30,-0.28
279.38,2.67,2.98,2.73,3.03,-3.02,-2.24,-3.40,-0.35,-0.29,-0.31
282.17,2.68,2.99,2.67,2.97,-2.97,-2.18,-3.32,-0.29,-0.30,-0.31
284.99,2.67,2.98,2.62,2.94,-2.92,-2.13,-3.25,-0.25,-0.29,-0.31
287.84,2.54,2.85,2.57,2.88,-2.87,-2.08,-3.17,-0.33,-0.30,-0.31
290.72,2.49,2.82,2.49,2.81,-2.81,-2.03,-3.10,-0.32,-0.32,-0.33
293.63,2.42,2.74,2.43,2.75,-2.76,-1.99,-3.02,-0.34,-0.33,-0.32
296.57,2.38,2.70,2.38,2.70,-2.70,-1.94,-2.94,-0.32,-0.32,-0.32
299.53,2.34,2.67,2.33,2.65,-2.65,-1.89,-2.85,-0.31,-0.32,-0.33
302.53,2.27,2.59,2.28,2.60,-2.60,-1.84,-2.77,-0.33,-0.32,-0.32
305.55,2.23,2.56,2.22,2.55,-2.55,-1.80,-2.69,-0.32,-0.33,-0.33
308.61,2.17,2.49,2.17,2.49,-2.51,-1.75,-2.61,-0.34,-0.34,-0.32
311.69,2.11,2.45,2.12,2.46,-2.47,-1.71,-2.53,-0.35,-0.34,-0.34
314.81,2.08,2.41,2.09,2.43,-2.42,-1.67,-2.45,-0.34,-0.33,-0.33
317.96,2.07,2.42,2.05,2.39,-2.37,-1.62,-2.37,-0.30,-0.32,-0.35
321.14,2.01,2.35,1.99,2.34,-2.32,-1.58,-2.29,-0.31,-0.32,-0.34
324.35,1.90,2.25,1.94,2.28,-2.27,-1.54,-2.21,-0.36,-0.33,-0.35
327.59,1.87,2.21,1.86,2.21,-2.21,-1.50,-2.13,-0.34,-0.35,-0.34
330.87,1.82,2.17,1.79,2.14,-2.16,-1.46,-2.05,-0.34,-0.37,-0.35
334.18,1.71,2.07,1.74,2.09,-2.10,-1.42,-1.98,-0.39,-0.37,-0.36
337.52,1.66,2.01,1.68,2.04,-2.04,-1.38,-1.90,-0.38,-0.36,-0.35
340.90,1.66,2.02,1.64,1.99,-1.98,-1.34,-1.83,-0.32,-0.34,-0.36
344.30,1.61,1.96,1.59,1.94,-1.92,-1.30,-1.76,-0.31,-0.33,-0.35
347.75,1.51,1.85,1.53,1.88,-1.86,-1.26,-1.68,-0.35,-0.33,-0.34
351.23,1.45,1.81,1.45,1.80,-1.80,-1.23,-1.61,-0.35,-0.34,-0.36
354.74,1.39,1.73,1.39,1.73,-1.74,-1.19,-1.55,-0.34,-0.35,-0.34
358.28,1.32,1.66,1.32,1.66,-1.67,-1.15,-1.48,-0.35,-0.35,-0.34
361.87,1.27,1.61,1.26,1.59,-1.61,-1.12,-1.41,-0.34,-0.35,-0.34
365.49,1.19,1.52,1.22,1.55,-1.55,-1.08,-1.34,-0.36,-0.33,-0.33
369.14,1.19,1.51,1.17,1.49,-1.49,-1.05,-1.28,-0.30,-0.31,-0.32
372.83,1.15,1.46,1.12,1.43,-1.43,-1.01,-1.22,-0.28,-0.31,-0.31
376.56,1.04,1.36,1.08,1.39,-1.38,-0.98,-1.15,-0.33,-0.30,-0.32
380.33,1.01,1.33,1.01,1.33,-1.32,-0.95,-1.09,-0.31,-0.31,-0.32
384.13,0.99,1.30,0.95,1.26,-1.27,-0.91,-1.03,-0.28,-0.32,-0.31
387.97,0.88,1.19,0.90,1.21,-1.23,-0.88,-0.97,-0.34,-0.32,-0.31
391.85,0.83,1.15,0.85,1.17,-1.18,-0.85,-0.92,-0.35,-0.33,-0.32
395.77,0.82,1.15,0.80,1.12,-1.13,-0.82,-0.86,-0.31,-0.33,-0.33
399.73,0.77,1.10,0.77,1.09,-1.08,-0.78,-0.80,-0.31,-0.31,-0.33
403.72,0.72,1.04,0.72,1.05,-1.03,-0.75,-0.75,-0.31,-0.31,-0.32
407.76,0.65,0.99,0.65,0.98,-0.98,-0.72,-0.69,-0.33,-0.33,-0.34
411.84,0.58,0.93,0.59,0.94,-0.92,-0.69,-0.64,-0.34,-0.33,-0.35
415.96,0.52,0.87,0.52,0.88,-0.87,-0.66,-0.59,-0.35,-0.34,-0.35
420.12,0.49,0.85,0.45,0.81,-0.81,-0.63,-0.54,-0.32,-0.35,-0.36
424.32,0.36,0.71,0.39,0.74,-0.75,-0.59,-0.49,-0.39,-0.35,-0.35
428.56,0.33,0.66,0.34,0.67,-0.69,-0.56,-0.44,-0.35,-0.34,-0.33
432.85,0.32,0.63,0.30,0.61,-0.62,-0.53,-0.39,-0.30,-0.33,-0.31
437.18,0.28,0.58,0.28,0.58,-0.57,-0.50,-0.34,-0.29,-0.28,-0.30
441.55,0.25,0.52,0.26,0.53,-0.51,-0.47,-0.30,-0.26,-0.25,-0.27
445.96,0.25,0.48,0.24,0.47,-0.46,-0.44,-0.25,-0.21,-0.22,-0.23
450.42,0.22,0.41,0.22,0.41,-0.42,-0.41,-0.21,-0.20,-0.20,-0.19
454.93,0.22,0.36,0.22,0.36,-0.38,-0.38,-0.16,-0.16,-0.16,-0.14
459.48,0.23,0.31,0.24,0.32,-0.34,-0.35,-0.12,-0.11,-0.10,-0.08
464.07,0.28,0.29,0.28,0.30,-0.30,-0.32,-0.08,-0.02,-0.02,-0.01
468.71,0.33,0.29,0.32,0.27,-0.26,-0.28,-0.04,0.08,0.06,0.04
473.40,0.34,0.24,0.34,0.23,-0.21,-0.25,0.00,0.13,0.13,0.10
478.13,0.34,0.18,0.34,0.18,-0.16,-0.22,0.04,0.18,0.18,0.16
482.91,0.31,0.10,0.33,0.12,-0.11,-0.19,0.08,0.20,0.22,0.21
487.74,0.32,0.08,0.31,0.06,-0.06,-0.16,0.12,0.26,0.25,0.24
492.62,0.29,0.01,0.28,-0.00,-0.00,-0.12,0.15,0.29,0.28,0.28
497.55,0.23,-0.09,0.25,-0.07,0.06,-0.09,0.19,0.29,0.31,0.32
502.52,0.22,-0.12,0.21,-0.14,0.12,-0.06,0.22,0.34,0.33,0.34
