frequency,raw,error,smoothed,error_smoothed,equalization,parametric_eq,fixed_band_eq,equalized_raw,equalized_smoothed,target
20.00,-18.92,-21.66,-18.91,-21.65,21.72,21.51,8.79,2.80,2.80,2.74
20.20,-18.78,-21.56,-18.78,-21.56,21.58,21.40,8.96,2.81,2.80,2.78
20.40,-18.64,-21.45,-18.65,-21.46,21.45,21.28,9.14,2.81,2.80,2.81
20.61,-18.50,-21.34,-18.50,-21.35,21.31,21.16,9.32,2.81,2.81,2.84
20.81,-18.36,-21.24,-18.36,-21.24,21.18,21.04,9.50,2.82,2.82,2.88
21.02,-18.21,-21.13,-18.20,-21.11,21.04,20.91,9.69,2.83,2.85,2.92
21.23,-18.02,-20.95,-18.02,-20.95,20.90,20.79,9.88,2.89,2.89,2.93
21.44,-17.82,-20.77,-17.82,-20.78,20.77,20.67,10.08,2.95,2.94,2.95
21.66,-17.63,-20.60,-17.62,-20.59,20.61,20.54,10.28,2.98,2.99,2.97
21.87,-17.43,-20.41,-17.44,-20.42,20.46,20.42,10.49,3.04,3.03,2.98
22.09,-17.27,-20.26,-17.28,-20.27,20.32,20.29,10.70,3.05,3.04,2.99
22.31,-17.16,-20.15,-17.15,-20.15,20.18,20.17,10.92,3.02,3.03,2.99
22.54,-17.05,-20.05,-17.05,-20.05,20.04,20.04,11.15,2.99,2.99,3.00
22.76,-16.94,-19.95,-16.94,-19.95,19.91,19.92,11.38,2.97,2.97,3.01
22.99,-16.83,-19.84,-16.81,-19.83,19.78,19.79,11.61,2.95,2.97,3.01
23.22,-16.67,-19.69,-16.67,-19.69,19.66,19.66,11.86,2.99,2.99,3.02
23.45,-16.51,-19.54,-16.51,-19.54,19.55,19.54,12.11,3.04,3.04,3.03
23.69,-16.36,-19.40,-16.35,-19.39,19.45,19.41,12.36,3.08,3.10,3.04
23.92,-16.20,-19.25,-16.22,-19.27,19.35,19.28,12.63,3.15,3.13,3.05
24.16,-16.11,-19.17,-16.12,-19.18,19.24,19.16,12.90,3.13,3.12,3.06
24.40,-16.06,-19.13,-16.06,-19.12,19.12,19.03,13.18,3.07,3.07,3.07
24.65,-16.00,-19.06,-16.01,-19.07,18.99,18.90,13.47,2.99,2.98,3.06
24.89,-15.93,-19.00,-15.91,-18.98,18.84,18.78,13.77,2.91,2.93,3.06
25.14,-15.77,-18.84,-15.76,-18.82,18.70,18.65,14.07,2.92,2.94,3.06
25.39,-15.53,-18.59,-15.53,-18.59,18.56,18.52,14.39,3.03,3.03,3.06
25.65,-15.29,-18.35,-15.28,-18.34,18.43,18.39,14.71,3.14,3.15,3.06
25.91,-15.05,-18.09,-15.09,-18.14,18.31,18.26,15.04,3.26,3.22,3.04
26.16,-14.97,-18.02,-14.99,-18.04,18.19,18.13,15.38,3.23,3.20,3.05
26.43,-14.99,-18.04,-14.98,-18.03,18.08,18.00,15.74,3.10,3.10,3.05
26.69,-15.00,-18.05,-15.00,-18.05,17.98,17.87,16.10,2.98,2.98,3.05
26.96,-15.02,-18.07,-14.97,-18.02,17.89,17.74,16.46,2.87,2.92,3.05
27.23,-14.87,-17.92,-14.87,-17.92,17.81,17.61,16.84,2.94,2.94,3.05
27.50,-14.69,-17.74,-14.70,-17.75,17.72,17.47,17.22,3.03,3.02,3.05
27.77,-14.51,-17.55,-14.51,-17.55,17.60,17.34,17.61,3.10,3.09,3.04
28.05,-14.34,-17.38,-14.35,-17.38,17.46,17.20,18.00,3.12,3.11,3.04
28.33,-14.21,-17.23,-14.21,-17.24,17.28,17.07,18.39,3.07,3.06,3.02
28.62,-14.08,-17.11,-14.08,-17.11,17.08,16.93,18.78,3.00,3.00,3.03
28.90,-13.94,-16.97,-13.92,-16.94,16.87,16.79,19.15,2.93,2.95,3.03
29.19,-13.72,-16.74,-13.71,-16.74,16.67,16.66,19.51,2.95,2.96,3.02
29.48,-13.46,-16.49,-13.45,-16.48,16.48,16.52,19.85,3.02,3.03,3.03
29.78,-13.19,-16.22,-13.20,-16.23,16.29,16.38,20.16,3.10,3.09,3.03
30.08,-12.96,-15.99,-12.99,-16.02,16.10,16.24,20.42,3.13,3.11,3.03
30.38,-12.84,-15.85,-12.84,-15.85,15.91,16.09,20.63,3.07,3.07,3.01
30.68,-12.72,-15.73,-12.71,-15.72,15.73,15.95,20.79,3.01,3.01,3.01
30.99,-12.61,-15.61,-12.59,-15.60,15.55,15.81,20.88,2.94,2.96,3.00
31.30,-12.44,-15.44,-12.44,-15.45,15.39,15.66,20.89,2.95,2.95,3.00
31.61,-12.28,-15.28,-12.28,-15.28,15.25,15.52,20.84,2.97,2.96,3.00
31.93,-12.12,-15.10,-12.12,-15.10,15.10,15.37,20.71,2.98,2.98,2.98
32.24,-11.97,-14.94,-11.97,-14.94,14.97,15.22,20.53,3.00,3.00,2.97
32.57,-11.83,-14.80,-11.82,-14.79,14.83,15.07,20.28,3.00,3.01,2.97
32.89,-11.69,-14.66,-11.69,-14.66,14.70,14.92,19.99,3.02,3.01,2.97
33.22,-11.58,-14.55,-11.59,-14.56,14.58,14.77,19.66,3.00,2.99,2.97
33.55,-11.50,-14.46,-11.50,-14.46,14.46,14.62,19.31,2.96,2.97,2.96
33.89,-11.42,-14.38,-11.40,-14.37,14.34,14.47,18.93,2.92,2.93,2.96
34.23,-11.30,-14.26,-11.30,-14.26,14.21,14.31,18.54,2.91,2.91,2.96
34.57,-11.17,-14.12,-11.17,-14.12,14.08,14.16,18.15,2.91,2.91,2.95
34.92,-11.03,-13.97,-11.02,-13.97,13.94,14.01,17.75,2.91,2.92,2.94
35.27,-10.86,-13.80,-10.85,-13.79,13.80,13.85,17.35,2.94,2.95,2.94
35.62,-10.68,-13.61,-10.68,-13.61,13.65,13.69,16.96,2.98,2.98,2.93
35.97,-10.50,-13.42,-10.52,-13.45,13.50,13.54,16.57,3.01,2.98,2.92
36.33,-10.40,-13.32,-10.40,-13.32,13.35,13.38,16.19,2.95,2.94,2.92
36.70,-10.31,-13.23,-10.30,-13.21,13.19,13.22,15.82,2.88,2.89,2.92
37.06,-10.20,-13.10,-10.18,-13.08,13.03,13.06,15.45,2.84,2.86,2.90
37.43,-10.02,-12.92,-10.02,-12.92,12.88,12.90,15.10,2.86,2.86,2.90
37.81,-9.84,-12.73,-9.85,-12.74,12.73,12.74,14.75,2.89,2.88,2.89
38.19,-9.67,-12.55,-9.67,-12.55,12.58,12.58,14.41,2.91,2.91,2.88
38.57,-9.52,-12.40,-9.51,-12.39,12.43,12.42,14.08,2.91,2.92,2.88
38.95,-9.36,-12.23,-9.37,-12.24,12.28,12.26,13.76,2.92,2.91,2.87
39.34,-9.25,-12.11,-9.25,-12.11,12.12,12.10,13.45,2.88,2.87,2.86
39.74,-9.15,-11.99,-9.14,-11.99,11.97,11.94,13.15,2.82,2.83,2.84
40.14,-9.02,-11.87,-9.01,-11.85,11.82,11.78,12.86,2.80,2.81,2.85
40.54,-8.85,-11.69,-8.85,-11.70,11.67,11.62,12.57,2.82,2.81,2.84
40.94,-8.68,-11.52,-8.68,-11.52,11.52,11.45,12.29,2.84,2.83,2.84
41.35,-8.52,-11.34,-8.51,-11.33,11.36,11.29,12.02,2.84,2.85,2.82
41.76,-8.35,-11.15,-8.35,-11.16,11.19,11.13,11.76,2.84,2.83,2.80
42.18,-8.21,-11.00,-8.22,-11.01,11.01,10.97,11.50,2.80,2.79,2.79
42.60,-8.09,-10.85,-8.09,-10.86,10.83,10.81,11.25,2.74,2.74,2.76
43.03,-7.97,-10.72,-7.94,-10.68,10.65,10.64,11.01,2.68,2.71,2.75
43.46,-7.77,-10.49,-7.77,-10.48,10.47,10.48,10.77,2.71,2.71,2.72
43.90,-7.57,-10.24,-7.60,-10.28,10.30,10.32,10.54,2.73,2.71,2.67
44.33,-7.44,-10.08,-7.45,-10.09,10.13,10.16,10.31,2.69,2.68,2.64
44.78,-7.34,-9.95,-7.33,-9.93,9.96,9.99,10.09,2.62,2.63,2.61
45.23,-7.22,-9.80,-7.22,-9.80,9.78,9.83,9.87,2.56,2.56,2.58
45.68,-7.09,-9.64,-7.09,-9.64,9.61,9.67,9.66,2.53,2.52,2.55
46.13,-6.95,-9.48,-6.93,-9.46,9.45,9.51,9.45,2.51,2.52,2.53
46.60,-6.77,-9.29,-6.77,-9.28,9.29,9.35,9.25,2.52,2.53,2.52
47.06,-6.59,-9.09,-6.61,-9.12,9.13,9.19,9.05,2.55,2.52,2.50
47.53,-6.47,-8.97,-6.46,-8.96,8.97,9.02,8.86,2.50,2.51,2.50
48.01,-6.34,-8.84,-6.32,-8.82,8.81,8.86,8.67,2.47,2.48,2.50
48.49,-6.18,-8.66,-6.18,-8.67,8.64,8.70,8.48,2.47,2.46,2.48
48.97,-6.03,-8.50,-6.03,-8.50,8.49,8.54,8.30,2.46,2.46,2.47
49.46,-5.87,-8.33,-5.87,-8.33,8.34,8.38,8.12,2.47,2.48,2.46
49.96,-5.71,-8.17,-5.71,-8.18,8.20,8.22,7.94,2.49,2.49,2.46
50.46,-5.57,-8.04,-5.56,-8.04,8.06,8.06,7.77,2.50,2.50,2.47
50.96,-5.43,-7.91,-5.44,-7.91,7.93,7.91,7.60,2.50,2.49,2.48
51.47,-5.33,-7.80,-5.33,-7.80,7.80,7.75,7.43,2.47,2.47,2.47
51.99,-5.24,-7.69,-5.23,-7.68,7.67,7.59,7.27,2.43,2.44,2.45
52.51,-5.12,-7.56,-5.12,-7.56,7.54,7.43,7.11,2.42,2.42,2.44
53.03,-5.00,-7.41,-5.00,-7.41,7.40,7.27,6.95,2.40,2.40,2.41
53.56,-4.88,-7.26,-4.88,-7.26,7.24,7.12,6.80,2.37,2.37,2.38
54.10,-4.76,-7.10,-4.76,-7.10,7.08,6.96,6.65,2.32,2.32,2.34
54.64,-4.64,-6.93,-4.64,-6.93,6.91,6.81,6.50,2.27,2.27,2.29
55.18,-4.52,-6.76,-4.52,-6.76,6.74,6.65,6.35,2.23,2.23,2.24
55.74,-4.39,-6.58,-4.38,-6.57,6.58,6.50,6.21,2.19,2.20,2.19
56.29,-4.26,-6.40,-4.25,-6.39,6.43,6.34,6.06,2.18,2.18,2.14
56.86,-4.13,-6.21,-4.16,-6.23,6.29,6.19,5.92,2.17,2.14,2.08
57.42,-4.10,-6.11,-4.11,-6.12,6.17,6.04,5.78,2.07,2.06,2.01
58.00,-4.10,-6.05,-4.10,-6.05,6.05,5.89,5.65,1.96,1.96,1.95
58.58,-4.10,-5.99,-4.08,-5.97,5.95,5.73,5.51,1.85,1.87,1.89
59.16,-4.06,-5.90,-4.03,-5.86,5.84,5.58,5.38,1.79,1.82,1.84
59.76,-3.93,-5.71,-3.97,-5.75,5.73,5.43,5.25,1.80,1.76,1.78
60.35,-3.88,-5.59,-3.90,-5.62,5.61,5.28,5.12,1.73,1.71,1.71
60.96,-3.87,-5.53,-3.82,-5.48,5.46,5.14,5.00,1.59,1.63,1.66
61.57,-3.74,-5.33,-3.74,-5.33,5.29,4.99,4.87,1.55,1.55,1.59
62.18,-3.60,-5.12,-3.61,-5.14,5.11,4.84,4.75,1.51,1.49,1.52
62.80,-3.46,-4.94,-3.44,-4.91,4.92,4.70,4.63,1.46,1.48,1.48
63.43,-3.28,-4.70,-3.27,-4.69,4.73,4.55,4.51,1.45,1.46,1.42
64.07,-3.08,-4.46,-3.11,-4.48,4.53,4.40,4.39,1.45,1.42,1.38
64.71,-2.96,-4.29,-2.96,-4.29,4.33,4.26,4.27,1.37,1.37,1.33
65.35,-2.85,-4.13,-2.84,-4.13,4.13,4.12,4.15,1.28,1.29,1.28
66.01,-2.73,-3.98,-2.72,-3.97,3.93,3.98,4.04,1.21,1.21,1.25
66.67,-2.58,-3.79,-2.56,-3.78,3.75,3.83,3.92,1.17,1.18,1.21
67.33,-2.40,-3.58,-2.39,-3.57,3.56,3.69,3.81,1.16,1.17,1.18
68.01,-2.18,-3.33,-2.22,-3.37,3.38,3.55,3.70,1.20,1.16,1.15
68.69,-2.07,-3.19,-2.06,-3.18,3.19,3.42,3.59,1.13,1.13,1.12
69.37,-1.94,-3.02,-1.93,-3.01,3.02,3.28,3.48,1.08,1.09,1.08
70.07,-1.80,-2.85,-1.79,-2.85,2.84,3.14,3.37,1.05,1.06,1.05
70.77,-1.64,-2.68,-1.63,-2.66,2.68,3.01,3.26,1.04,1.05,1.04
71.48,-1.48,-2.48,-1.50,-2.51,2.53,2.87,3.15,1.05,1.02,1.00
72.19,-1.37,-2.35,-1.40,-2.38,2.38,2.74,3.04,1.01,0.98,0.98
72.91,-1.37,-2.31,-1.31,-2.26,2.24,2.60,2.94,0.88,0.93,0.94
73.64,-1.22,-2.13,-1.21,-2.12,2.10,2.47,2.83,0.89,0.90,0.91
74.38,-1.08,-1.96,-1.10,-1.98,1.97,2.34,2.72,0.89,0.87,0.88
75.12,-0.96,-1.81,-0.98,-1.83,1.83,2.21,2.62,0.88,0.85,0.85
75.87,-0.92,-1.74,-0.89,-1.71,1.71,2.09,2.51,0.79,0.82,0.82
76.63,-0.80,-1.59,-0.80,-1.59,1.58,1.96,2.41,0.78,0.78,0.79
77.40,-0.69,-1.45,-0.69,-1.45,1.46,1.83,2.30,0.77,0.77,0.76
78.17,-0.59,-1.32,-0.58,-1.32,1.34,1.71,2.19,0.76,0.77,0.73
78.95,-0.46,-1.18,-0.50,-1.21,1.23,1.59,2.09,0.77,0.74,0.72
79.74,-0.45,-1.15,-0.43,-1.12,1.12,1.46,1.98,0.67,0.69,0.70
80.54,-0.37,-1.05,-0.36,-1.05,1.01,1.34,1.88,0.65,0.65,0.68
81.35,-0.28,-0.94,-0.27,-0.94,0.91,1.22,1.77,0.63,0.64,0.66
82.16,-0.18,-0.84,-0.16,-0.82,0.81,1.11,1.66,0.63,0.65,0.66
82.98,0.00,-0.66,-0.05,-0.71,0.71,0.99,1.56,0.72,0.66,0.66
83.81,0.00,-0.65,0.06,-0.59,0.62,0.87,1.45,0.63,0.68,0.65
84.65,0.15,-0.49,0.14,-0.51,0.53,0.76,1.34,0.69,0.68,0.64
85.50,0.23,-0.42,0.18,-0.46,0.46,0.65,1.23,0.69,0.64,0.65
86.35,0.23,-0.42,0.27,-0.38,0.39,0.54,1.12,0.62,0.66,0.65
87.22,0.28,-0.37,0.33,-0.32,0.33,0.43,1.01,0.62,0.67,0.65
88.09,0.46,-0.19,0.40,-0.26,0.28,0.32,0.90,0.74,0.68,0.65
88.97,0.46,-0.21,0.45,-0.22,0.22,0.22,0.79,0.68,0.67,0.67
89.86,0.46,-0.21,0.49,-0.18,0.16,0.11,0.68,0.62,0.64,0.67
90.76,0.48,-0.17,0.52,-0.14,0.08,0.01,0.57,0.57,0.60,0.65
91.66,0.62,-0.04,0.59,-0.06,0.01,-0.09,0.45,0.63,0.61,0.66
92.58,0.69,0.06,0.70,0.06,-0.05,-0.19,0.34,0.64,0.65,0.63
93.51,0.79,0.15,0.80,0.17,-0.12,-0.28,0.23,0.67,0.68,0.64
94.44,0.89,0.27,0.87,0.25,-0.19,-0.38,0.11,0.70,0.68,0.62
95.39,0.91,0.30,0.91,0.31,-0.26,-0.47,-0.00,0.65,0.65,0.61
96.34,0.91,0.34,0.92,0.34,-0.34,-0.56,-0.12,0.58,0.58,0.57
97.30,0.91,0.36,0.90,0.35,-0.41,-0.65,-0.23,0.50,0.49,0.55
98.28,0.91,0.38,0.94,0.41,-0.47,-0.74,-0.35,0.44,0.47,0.53
99.26,0.97,0.47,1.01,0.51,-0.53,-0.82,-0.47,0.44,0.48,0.50
100.25,1.14,0.67,1.08,0.61,-0.58,-0.90,-0.58,0.56,0.50,0.47
101.25,1.14,0.70,1.14,0.70,-0.64,-0.99,-0.70,0.50,0.50,0.44
102.27,1.14,0.74,1.16,0.76,-0.70,-1.06,-0.82,0.44,0.46,0.40
103.29,1.14,0.79,1.14,0.79,-0.78,-1.14,-0.93,0.36,0.36,0.35
104.32,1.14,0.83,1.13,0.82,-0.86,-1.21,-1.04,0.28,0.27,0.31
105.37,1.14,0.88,1.14,0.87,-0.95,-1.29,-1.16,0.20,0.19,0.26
106.42,1.14,0.93,1.18,0.97,-1.03,-1.36,-1.27,0.11,0.15,0.21
107.48,1.24,1.10,1.25,1.11,-1.12,-1.42,-1.38,0.12,0.13,0.14
108.56,1.36,1.30,1.32,1.25,-1.22,-1.49,-1.49,0.14,0.10,0.06
109.64,1.37,1.38,1.37,1.38,-1.32,-1.55,-1.59,0.05,0.05,-0.01
110.74,1.37,1.44,1.38,1.46,-1.42,-1.61,-1.69,-0.05,-0.04,-0.07
111.85,1.37,1.51,1.37,1.52,-1.52,-1.67,-1.79,-0.15,-0.15,-0.14
112.97,1.37,1.60,1.37,1.59,-1.61,-1.73,-1.89,-0.24,-0.24,-0.23
114.10,1.37,1.66,1.37,1.67,-1.69,-1.78,-1.98,-0.31,-0.31,-0.29
115.24,1.37,1.74,1.37,1.74,-1.75,-1.83,-2.06,-0.38,-0.38,-0.37
116.39,1.37,1.82,1.37,1.82,-1.82,-1.88,-2.15,-0.44,-0.44,-0.45
117.55,1.37,1.88,1.37,1.88,-1.88,-1.93,-2.22,-0.50,-0.50,-0.51
118.73,1.37,1.95,1.37,1.94,-1.94,-1.97,-2.29,-0.57,-0.57,-0.58
119.92,1.37,1.99,1.37,2.00,-2.00,-2.01,-2.36,-0.63,-0.63,-0.62
121.12,1.37,2.05,1.37,2.05,-2.05,-2.05,-2.42,-0.68,-0.68,-0.68
122.33,1.37,2.09,1.37,2.08,-2.10,-2.09,-2.47,-0.73,-0.73,-0.72
123.55,1.37,2.11,1.37,2.12,-2.13,-2.13,-2.52,-0.76,-0.76,-0.74
124.79,1.37,2.15,1.38,2.16,-2.15,-2.16,-2.56,-0.77,-0.77,-0.78
126.03,1.37,2.19,1.39,2.20,-2.15,-2.19,-2.59,-0.78,-0.77,-0.82
127.29,1.37,2.22,1.35,2.20,-2.15,-2.22,-2.62,-0.78,-0.81,-0.85
128.57,1.32,2.21,1.28,2.17,-2.16,-2.25,-2.64,-0.83,-0.87,-0.89
129.85,1.16,2.08,1.21,2.13,-2.16,-2.27,-2.66,-1.00,-0.95,-0.92
131.15,1.14,2.09,1.15,2.10,-2.17,-2.30,-2.67,-1.02,-1.01,-0.95
132.46,1.14,2.12,1.13,2.11,-2.17,-2.32,-2.67,-1.03,-1.04,-0.98
133.79,1.14,2.15,1.14,2.16,-2.17,-2.34,-2.67,-1.03,-1.03,-1.01
135.12,1.14,2.20,1.15,2.20,-2.17,-2.35,-2.66,-1.02,-1.01,-1.06
136.48,1.14,2.23,1.15,2.23,-2.17,-2.37,-2.65,-1.03,-1.02,-1.09
137.84,1.14,2.26,1.10,2.23,-2.18,-2.38,-2.63,-1.03,-1.08,-1.12
139.22,1.02,2.19,1.03,2.20,-2.19,-2.39,-2.61,-1.17,-1.16,-1.17
140.61,0.93,2.15,0.96,2.17,-2.20,-2.40,-2.59,-1.27,-1.24,-1.22
142.02,0.91,2.15,0.91,2.16,-2.21,-2.41,-2.56,-1.30,-1.30,-1.24
143.44,0.91,2.19,0.90,2.19,-2.22,-2.42,-2.53,-1.31,-1.32,-1.28
144.87,0.91,2.23,0.91,2.23,-2.24,-2.42,-2.50,-1.33,-1.33,-1.32
146.32,0.91,2.28,0.92,2.28,-2.26,-2.43,-2.47,-1.35,-1.34,-1.37
147.78,0.91,2.32,0.92,2.33,-2.30,-2.43,-2.44,-1.38,-1.38,-1.41
149.26,0.91,2.39,0.88,2.36,-2.33,-2.43,-2.40,-1.42,-1.46,-1.48
150.75,0.81,2.37,0.81,2.36,-2.37,-2.43,-2.36,-1.56,-1.56,-1.56
152.26,0.72,2.35,0.75,2.38,-2.40,-2.43,-2.33,-1.68,-1.65,-1.63
153.78,0.69,2.39,0.71,2.42,-2.43,-2.43,-2.29,-1.74,-1.72,-1.70
155.32,0.69,2.49,0.68,2.46,-2.46,-2.42,-2.25,-1.77,-1.78,-1.80
156.88,0.67,2.54,0.62,2.49,-2.49,-2.42,-2.22,-1.81,-1.86,-1.87
158.44,0.52,2.46,0.55,2.50,-2.51,-2.41,-2.18,-1.99,-1.96,-1.94
160.03,0.46,2.48,0.49,2.50,-2.54,-2.40,-2.15,-2.08,-2.05,-2.02
161.63,0.46,2.54,0.47,2.54,-2.55,-2.39,-2.12,-2.09,-2.08,-2.08
163.24,0.46,2.59,0.45,2.58,-2.55,-2.38,-2.08,-2.08,-2.09,-2.13
164.88,0.46,2.63,0.40,2.58,-2.53,-2.37,-2.05,-2.07,-2.13,-2.17
166.53,0.28,2.49,0.34,2.54,-2.50,-2.36,-2.02,-2.22,-2.17,-2.21
168.19,0.23,2.47,0.24,2.47,-2.47,-2.35,-2.00,-2.24,-2.23,-2.24
169.87,0.18,2.43,0.14,2.39,-2.42,-2.33,-1.97,-2.24,-2.29,-2.25
171.57,0.04,2.30,0.07,2.33,-2.36,-2.32,-1.94,-2.32,-2.28,-2.26
173.29,0.00,2.26,0.03,2.29,-2.27,-2.31,-1.92,-2.27,-2.24,-2.26
175.02,0.00,2.24,-0.01,2.24,-2.19,-2.29,-1.90,-2.18,-2.20,-2.24
176.77,0.00,2.25,-0.06,2.18,-2.11,-2.27,-1.88,-2.11,-2.17,-2.25
178.54,-0.18,2.06,-0.13,2.10,-2.07,-2.26,-1.86,-2.24,-2.20,-2.24
180.32,-0.23,2.00,-0.21,2.02,-2.07,-2.24,-1.85,-2.30,-2.28,-2.23
182.13,-0.23,2.00,-0.27,1.96,-2.12,-2.22,-1.83,-2.34,-2.38,-2.23
183.95,-0.23,2.00,-0.22,2.01,-2.20,-2.20,-1.82,-2.43,-2.42,-2.23
185.79,-0.16,2.08,-0.08,2.16,-2.30,-2.19,-1.81,-2.45,-2.37,-2.24
187.65,0.13,2.39,0.12,2.38,-2.40,-2.17,-1.80,-2.27,-2.27,-2.26
189.52,0.40,2.68,0.33,2.61,-2.48,-2.15,-1.79,-2.08,-2.15,-2.28
191.42,0.46,2.76,0.47,2.77,-2.55,-2.13,-1.79,-2.09,-2.08,-2.30
193.33,0.46,2.78,0.47,2.78,-2.58,-2.11,-1.78,-2.12,-2.11,-2.32
195.27,0.36,2.68,0.32,2.65,-2.58,-2.09,-1.78,-2.21,-2.25,-2.32
197.22,0.14,2.48,0.13,2.47,-2.52,-2.07,-1.78,-2.38,-2.39,-2.34
199.19,-0.13,2.25,-0.06,2.30,-2.43,-2.05,-1.78,-2.55,-2.49,-2.38
201.18,-0.23,2.15,-0.21,2.18,-2.29,-2.03,-1.78,-2.52,-2.50,-2.38
203.19,-0.27,2.13,-0.31,2.09,-2.13,-2.00,-1.78,-2.40,-2.45,-2.40
205.23,-0.39,2.04,-0.39,2.02,-1.97,-1.98,-1.79,-2.36,-2.36,-2.43
207.28,-0.53,1.90,-0.50,1.93,-1.82,-1.96,-1.79,-2.34,-2.32,-2.43
209.35,-0.65,1.80,-0.67,1.78,-1.69,-1.94,-1.80,-2.34,-2.36,-2.45
211.44,-0.81,1.67,-0.85,1.62,-1.59,-1.92,-1.80,-2.40,-2.44,-2.48
213.56,-1.06,1.42,-1.01,1.47,-1.54,-1.90,-1.81,-2.60,-2.55,-2.48
215.69,-1.14,1.34,-1.13,1.36,-1.52,-1.88,-1.81,-2.66,-2.65,-2.48
217.85,-1.14,1.37,-1.14,1.36,-1.54,-1.85,-1.82,-2.68,-2.69,-2.51
220.03,-1.05,1.47,-1.02,1.50,-1.60,-1.83,-1.83,-2.65,-2.62,-2.52
222.23,-0.86,1.68,-0.83,1.70,-1.68,-1.81,-1.83,-2.54,-2.52,-2.54
224.45,-0.60,1.94,-0.64,1.90,-1.79,-1.79,-1.84,-2.39,-2.43,-2.54
226.70,-0.46,2.08,-0.50,2.05,-1.91,-1.77,-1.84,-2.37,-2.41,-2.54
228.96,-0.45,2.10,-0.43,2.11,-2.02,-1.75,-1.85,-2.47,-2.45,-2.55
231.25,-0.45,2.10,-0.43,2.12,-2.11,-1.72,-1.85,-2.55,-2.54,-2.55
233.57,-0.45,2.11,-0.45,2.11,-2.15,-1.70,-1.85,-2.60,-2.60,-2.56
235.90,-0.45,2.12,-0.45,2.12,-2.15,-1.68,-1.85,-2.60,-2.59,-2.57
238.26,-0.45,2.12,-0.43,2.14,-2.12,-1.66,-1.85,-2.56,-2.55,-2.57
240.64,-0.45,2.12,-0.45,2.11,-2.07,-1.64,-1.85,-2.52,-2.52,-2.57
243.05,-0.46,2.10,-0.51,2.05,-2.03,-1.62,-1.85,-2.48,-2.54,-2.56
245.48,-0.62,1.93,-0.58,1.97,-1.99,-1.60,-1.84,-2.60,-2.57,-2.55
247.93,-0.68,1.86,-0.65,1.90,-1.95,-1.58,-1.83,-2.63,-2.60,-2.54
250.41,-0.68,1.87,-0.69,1.85,-1.92,-1.55,-1.82,-2.60,-2.61,-2.55
252.92,-0.68,1.86,-0.68,1.85,-1.88,-1.53,-1.81,-2.55,-2.56,-2.54
255.45,-0.68,1.83,-0.68,1.85,-1.83,-1.51,-1.80,-2.51,-2.51,-2.51
258.00,-0.68,1.83,-0.66,1.85,-1.79,-1.49,-1.78,-2.47,-2.45,-2.51
260.58,-0.68,1.83,-0.69,1.81,-1.75,-1.47,-1.77,-2.43,-2.44,-2.51
263.19,-0.70,1.79,-0.76,1.74,-1.71,-1.45,-1.75,-2.41,-2.46,-2.49
265.82,-0.89,1.60,-0.83,1.65,-1.67,-1.43,-1.73,-2.55,-2.50,-2.49
268.48,-0.91,1.55,-0.89,1.57,-1.62,-1.41,-1.71,-2.53,-2.52,-2.46
271.16,-0.91,1.54,-0.92,1.52,-1.58,-1.39,-1.69,-2.49,-2.51,-2.45
273.87,-0.91,1.53,-0.91,1.52,-1.54,-1.37,-1.66,-2.45,-2.45,-2.44
276.61,-0.91,1.49,-0.91,1.50,-1.50,-1.35,-1.64,-2.41,-2.41,-2.40
279.38,-0.91,1.48,-0.91,1.48,-1.47,-1.33,-1.61,-2.37,-2.37,-2.39
282.17,-0.91,1.45,-0.90,1.46,-1.42,-1.31,-1.58,-2.33,-2.32,-2.36
284.99,-0.91,1.42,-0.90,1.43,-1.38,-1.29,-1.55,-2.28,-2.27,-2.33
287.84,-0.91,1.40,-0.94,1.37,-1.32,-1.27,-1.52,-2.23,-2.26,-2.31
290.72,-0.98,1.29,-1.00,1.27,-1.26,-1.25,-1.50,-2.24,-2.27,-2.27
293.63,-1.12,1.13,-1.07,1.17,-1.20,-1.24,-1.47,-2.32,-2.27,-2.25
296.57,-1.14,1.08,-1.13,1.09,-1.14,-1.22,-1.43,-2.28,-2.27,-2.22
299.53,-1.14,1.05,-1.15,1.04,-1.08,-1.20,-1.40,-2.22,-2.23,-2.19
302.53,-1.14,1.04,-1.14,1.03,-1.03,-1.18,-1.37,-2.17,-2.17,-2.18
305.55,-1.14,1.00,-1.14,1.01,-1.00,-1.16,-1.34,-2.13,-2.13,-2.14
308.61,-1.14,0.98,-1.14,0.98,-0.97,-1.14,-1.31,-2.11,-2.11,-2.12
311.69,-1.14,0.97,-1.14,0.96,-0.96,-1.12,-1.28,-2.10,-2.10,-2.11
314.81,-1.14,0.94,-1.14,0.95,-0.95,-1.10,-1.25,-2.09,-2.09,-2.08
317.96,-1.14,0.94,-1.14,0.95,-0.95,-1.08,-1.23,-2.09,-2.09,-2.08
321.14,-1.14,0.95,-1.14,0.94,-0.94,-1.06,-1.20,-2.08,-2.08,-2.09
324.35,-1.14,0.94,-1.14,0.94,-0.94,-1.04,-1.17,-2.07,-2.07,-2.08
327.59,-1.14,0.93,-1.14,0.93,-0.93,-1.02,-1.14,-2.07,-2.07,-2.07
330.87,-1.14,0.92,-1.14,0.93,-0.92,-1.00,-1.11,-2.06,-2.06,-2.06
334.18,-1.14,0.92,-1.14,0.92,-0.91,-0.98,-1.09,-2.05,-2.05,-2.06
337.52,-1.14,0.91,-1.14,0.90,-0.90,-0.95,-1.06,-2.04,-2.04,-2.05
340.90,-1.14,0.88,-1.14,0.89,-0.89,-0.93,-1.04,-2.03,-2.03,-2.02
344.30,-1.14,0.87,-1.14,0.87,-0.87,-0.91,-1.01,-2.01,-2.01,-2.01
347.75,-1.14,0.86,-1.14,0.85,-0.85,-0.89,-0.99,-1.99,-1.99,-2.00
351.23,-1.14,0.83,-1.14,0.83,-0.83,-0.86,-0.97,-1.97,-1.97,-1.97
354.74,-1.14,0.81,-1.14,0.81,-0.81,-0.83,-0.94,-1.95,-1.95,-1.95
358.28,-1.14,0.78,-1.14,0.78,-0.79,-0.81,-0.92,-1.92,-1.92,-1.92
361.87,-1.14,0.76,-1.14,0.76,-0.76,-0.78,-0.90,-1.90,-1.90,-1.90
365.49,-1.14,0.74,-1.14,0.74,-0.74,-0.75,-0.88,-1.87,-1.87,-1.88
369.14,-1.14,0.72,-1.14,0.72,-0.71,-0.72,-0.86,-1.85,-1.85,-1.86
372.83,-1.14,0.69,-1.14,0.69,-0.69,-0.69,-0.84,-1.83,-1.83,-1.83
376.56,-1.14,0.67,-1.14,0.67,-0.68,-0.66,-0.83,-1.81,-1.81,-1.81
380.33,-1.14,0.64,-1.14,0.64,-0.67,-0.62,-0.81,-1.80,-1.80,-1.78
384.13,-1.14,0.62,-1.14,0.62,-0.66,-0.58,-0.79,-1.79,-1.79,-1.76
387.97,-1.14,0.61,-1.14,0.61,-0.64,-0.54,-0.78,-1.77,-1.77,-1.75
391.85,-1.14,0.61,-1.13,0.61,-0.60,-0.50,-0.76,-1.74,-1.73,-1.75
395.77,-1.14,0.60,-1.13,0.61,-0.56,-0.46,-0.75,-1.70,-1.69,-1.74
399.73,-1.14,0.59,-1.15,0.57,-0.50,-0.42,-0.73,-1.64,-1.66,-1.73
403.72,-1.22,0.50,-1.23,0.49,-0.44,-0.37,-0.72,-1.65,-1.67,-1.72
407.76,-1.34,0.37,-1.35,0.36,-0.35,-0.32,-0.71,-1.69,-1.70,-1.71
411.84,-1.50,0.20,-1.47,0.23,-0.26,-0.28,-0.70,-1.76,-1.73,-1.70
415.96,-1.58,0.11,-1.54,0.15,-0.17,-0.23,-0.69,-1.75,-1.72,-1.69
420.12,-1.59,0.10,-1.60,0.08,-0.10,-0.19,-0.68,-1.68,-1.70,-1.69
424.32,-1.61,0.08,-1.67,0.02,-0.04,-0.15,-0.67,-1.64,-1.71,-1.69
428.56,-1.76,-0.07,-1.73,-0.04,0.00,-0.11,-0.66,-1.75,-1.73,-1.69
432.85,-1.82,-0.12,-1.76,-0.07,0.02,-0.08,-0.65,-1.80,-1.74,-1.70
437.18,-1.72,-0.03,-1.73,-0.04,0.02,-0.06,-0.64,-1.70,-1.71,-1.69
441.55,-1.62,0.06,-1.65,0.03,-0.00,-0.05,-0.63,-1.62,-1.66,-1.68
