frequency,raw,error,smoothed,error_smoothed,equalization,parametric_eq,fixed_band_eq,equalized_raw,equalized_smoothed,target
20.00,8.23,-2.56,8.22,-2.59,2.59,2.55,0.71,10.82,10.81,10.79
20.20,8.25,-2.57,8.25,-2.58,2.58,2.53,0.73,10.83,10.83,10.82
20.40,8.28,-2.57,8.28,-2.57,2.57,2.52,0.75,10.85,10.85,10.85
20.61,8.31,-2.56,8.31,-2.56,2.56,2.50,0.77,10.87,10.87,10.87
20.81,8.34,-2.56,8.34,-2.54,2.54,2.48,0.80,10.89,10.89,10.90
21.02,8.38,-2.55,8.37,-2.53,2.53,2.46,0.82,10.91,10.90,10.93
21.23,8.40,-2.54,8.41,-2.51,2.51,2.44,0.85,10.91,10.92,10.94
21.44,8.43,-2.52,8.44,-2.50,2.50,2.43,0.87,10.93,10.93,10.95
21.66,8.47,-2.49,8.47,-2.48,2.48,2.41,0.90,10.95,10.94,10.96
21.87,8.49,-2.46,8.50,-2.45,2.45,2.39,0.93,10.95,10.95,10.96
22.09,8.52,-2.44,8.53,-2.43,2.43,2.37,0.96,10.95,10.96,10.97
22.31,8.55,-2.41,8.56,-2.41,2.41,2.35,0.99,10.96,10.96,10.96
22.54,8.60,-2.36,8.59,-2.38,2.38,2.33,1.02,10.98,10.97,10.96
22.76,8.61,-2.35,8.62,-2.35,2.35,2.31,1.05,10.96,10.96,10.96
22.99,8.64,-2.31,8.65,-2.31,2.31,2.29,1.08,10.96,10.96,10.95
23.22,8.68,-2.27,8.68,-2.28,2.28,2.27,1.11,10.96,10.96,10.95
23.45,8.72,-2.23,8.71,-2.25,2.25,2.25,1.14,10.97,10.96,10.95
23.69,8.73,-2.22,8.74,-2.22,2.22,2.23,1.18,10.95,10.96,10.95
23.92,8.77,-2.18,8.77,-2.18,2.18,2.21,1.21,10.96,10.95,10.95
24.16,8.81,-2.15,8.80,-2.15,2.15,2.19,1.25,10.96,10.95,10.96
24.40,8.82,-2.14,8.83,-2.12,2.12,2.17,1.28,10.94,10.95,10.96
24.65,8.86,-2.09,8.86,-2.09,2.09,2.15,1.32,10.95,10.95,10.95
24.89,8.88,-2.06,8.89,-2.06,2.06,2.13,1.35,10.94,10.95,10.95
25.14,8.91,-2.03,8.91,-2.03,2.03,2.11,1.39,10.94,10.94,10.95
25.39,8.94,-2.00,8.94,-2.00,2.00,2.08,1.43,10.94,10.94,10.94
25.65,8.97,-1.97,8.97,-1.97,1.97,2.06,1.46,10.94,10.94,10.94
25.91,8.99,-1.94,9.00,-1.94,1.94,2.04,1.50,10.93,10.94,10.93
26.16,9.03,-1.90,9.02,-1.91,1.91,2.02,1.54,10.95,10.94,10.93
26.43,9.04,-1.89,9.05,-1.88,1.88,2.00,1.57,10.92,10.93,10.93
26.69,9.07,-1.86,9.07,-1.86,1.86,1.98,1.61,10.93,10.93,10.93
26.96,9.10,-1.83,9.10,-1.83,1.83,1.96,1.64,10.93,10.92,10.93
27.23,9.12,-1.80,9.12,-1.80,1.80,1.93,1.68,10.92,10.92,10.93
27.50,9.16,-1.76,9.15,-1.77,1.77,1.91,1.71,10.93,10.92,10.92
27.77,9.16,-1.75,9.17,-1.74,1.74,1.89,1.74,10.90,10.91,10.91
28.05,9.20,-1.71,9.19,-1.72,1.72,1.87,1.77,10.92,10.91,10.91
28.33,9.20,-1.70,9.22,-1.69,1.69,1.85,1.80,10.89,10.90,10.90
28.62,9.25,-1.65,9.24,-1.66,1.66,1.83,1.82,10.91,10.90,10.90
28.90,9.25,-1.64,9.26,-1.64,1.64,1.80,1.85,10.89,10.90,10.90
29.19,9.29,-1.59,9.28,-1.61,1.61,1.78,1.87,10.90,10.89,10.88
29.48,9.29,-1.60,9.30,-1.58,1.58,1.76,1.89,10.87,10.89,10.89
29.78,9.33,-1.55,9.32,-1.56,1.56,1.74,1.91,10.89,10.88,10.88
30.08,9.33,-1.55,9.34,-1.53,1.53,1.72,1.92,10.86,10.87,10.88
30.38,9.37,-1.50,9.36,-1.51,1.51,1.69,1.93,10.88,10.87,10.87
30.68,9.38,-1.48,9.38,-1.48,1.48,1.67,1.94,10.86,10.86,10.86
30.99,9.40,-1.45,9.40,-1.46,1.46,1.65,1.95,10.86,10.86,10.85
31.30,9.42,-1.43,9.42,-1.43,1.43,1.63,1.95,10.85,10.85,10.85
31.61,9.42,-1.43,9.43,-1.41,1.41,1.61,1.95,10.83,10.84,10.85
31.93,9.46,-1.37,9.45,-1.39,1.39,1.59,1.95,10.85,10.84,10.83
32.24,9.46,-1.36,9.47,-1.36,1.36,1.56,1.95,10.82,10.83,10.82
32.57,9.46,-1.36,9.48,-1.34,1.34,1.54,1.94,10.80,10.82,10.82
32.89,9.51,-1.30,9.50,-1.32,1.32,1.52,1.93,10.83,10.81,10.82
33.22,9.51,-1.29,9.51,-1.30,1.30,1.50,1.91,10.81,10.80,10.80
33.55,9.51,-1.29,9.52,-1.27,1.27,1.48,1.90,10.79,10.80,10.80
33.89,9.55,-1.24,9.53,-1.25,1.25,1.46,1.88,10.80,10.79,10.79
34.23,9.55,-1.23,9.55,-1.23,1.23,1.44,1.86,10.78,10.78,10.78
34.57,9.55,-1.22,9.56,-1.21,1.21,1.41,1.84,10.76,10.77,10.77
34.92,9.57,-1.18,9.57,-1.19,1.19,1.39,1.81,10.76,10.76,10.76
35.27,9.59,-1.16,9.58,-1.17,1.17,1.37,1.79,10.76,10.75,10.75
35.62,9.59,-1.15,9.59,-1.15,1.15,1.35,1.76,10.74,10.74,10.74
35.97,9.59,-1.13,9.60,-1.13,1.13,1.33,1.73,10.72,10.73,10.72
36.33,9.59,-1.13,9.61,-1.11,1.11,1.31,1.71,10.70,10.72,10.72
36.70,9.64,-1.06,9.62,-1.09,1.09,1.29,1.68,10.73,10.71,10.71
37.06,9.64,-1.05,9.63,-1.07,1.07,1.27,1.65,10.71,10.69,10.69
37.43,9.64,-1.04,9.64,-1.04,1.04,1.25,1.61,10.69,10.68,10.69
37.81,9.64,-1.03,9.64,-1.03,1.03,1.23,1.58,10.67,10.67,10.67
38.19,9.64,-1.01,9.65,-1.01,1.01,1.21,1.55,10.65,10.66,10.66
38.57,9.64,-1.01,9.66,-0.99,0.99,1.19,1.52,10.63,10.65,10.65
38.95,9.66,-0.97,9.67,-0.97,0.97,1.17,1.49,10.63,10.63,10.63
39.34,9.67,-0.95,9.67,-0.95,0.95,1.15,1.46,10.62,10.62,10.62
39.74,9.68,-0.92,9.67,-0.94,0.94,1.13,1.43,10.62,10.61,10.60
40.14,9.68,-0.92,9.68,-0.92,0.92,1.11,1.40,10.60,10.60,10.60
40.54,9.68,-0.90,9.68,-0.91,0.91,1.09,1.37,10.59,10.59,10.58
40.94,9.68,-0.89,9.68,-0.90,0.90,1.07,1.34,10.58,10.58,10.57
41.35,9.68,-0.88,9.68,-0.88,0.88,1.05,1.31,10.57,10.56,10.56
41.76,9.68,-0.87,9.68,-0.87,0.87,1.03,1.29,10.55,10.55,10.55
42.18,9.68,-0.86,9.67,-0.86,0.86,1.01,1.26,10.54,10.53,10.54
42.60,9.67,-0.85,9.67,-0.85,0.85,0.99,1.23,10.52,10.52,10.52
43.03,9.66,-0.85,9.67,-0.84,0.84,0.97,1.21,10.50,10.50,10.52
43.46,9.64,-0.86,9.66,-0.83,0.83,0.95,1.18,10.47,10.49,10.50
43.90,9.64,-0.83,9.65,-0.82,0.82,0.93,1.16,10.46,10.47,10.47
44.33,9.64,-0.81,9.64,-0.81,0.81,0.91,1.14,10.45,10.46,10.45
44.78,9.64,-0.79,9.63,-0.81,0.81,0.89,1.12,10.45,10.44,10.43
45.23,9.64,-0.77,9.62,-0.80,0.80,0.87,1.10,10.44,10.42,10.41
45.68,9.61,-0.78,9.61,-0.79,0.79,0.86,1.08,10.40,10.40,10.39
46.13,9.59,-0.78,9.60,-0.77,0.77,0.84,1.06,10.37,10.38,10.37
46.60,9.59,-0.77,9.59,-0.76,0.76,0.82,1.04,10.36,10.36,10.36
47.06,9.59,-0.75,9.58,-0.75,0.75,0.80,1.02,10.34,10.33,10.34
47.53,9.55,-0.77,9.57,-0.74,0.74,0.78,1.01,10.29,10.31,10.32
48.01,9.55,-0.75,9.55,-0.73,0.73,0.76,0.99,10.28,10.29,10.30
48.49,9.55,-0.72,9.54,-0.72,0.72,0.75,0.98,10.27,10.26,10.27
48.97,9.51,-0.73,9.52,-0.71,0.71,0.73,0.96,10.23,10.24,10.24
49.46,9.51,-0.69,9.51,-0.71,0.71,0.71,0.95,10.22,10.21,10.21
49.96,9.51,-0.66,9.49,-0.70,0.70,0.69,0.93,10.21,10.19,10.17
50.46,9.46,-0.70,9.47,-0.69,0.69,0.67,0.92,10.15,10.16,10.16
50.96,9.46,-0.67,9.45,-0.68,0.68,0.66,0.91,10.14,10.13,10.13
51.47,9.42,-0.68,9.44,-0.67,0.67,0.64,0.90,10.09,10.11,10.10
51.99,9.42,-0.65,9.42,-0.66,0.66,0.62,0.89,10.08,10.08,10.07
52.51,9.38,-0.67,9.40,-0.65,0.65,0.60,0.88,10.04,10.05,10.05
53.03,9.38,-0.65,9.38,-0.65,0.65,0.59,0.86,10.03,10.02,10.03
53.56,9.35,-0.65,9.35,-0.64,0.64,0.57,0.85,9.99,9.99,10.00
54.10,9.33,-0.64,9.33,-0.64,0.64,0.55,0.84,9.97,9.97,9.97
54.64,9.31,-0.63,9.31,-0.63,0.63,0.53,0.83,9.94,9.94,9.94
55.18,9.29,-0.62,9.29,-0.63,0.63,0.52,0.82,9.92,9.92,9.91
55.74,9.27,-0.61,9.27,-0.62,0.62,0.50,0.81,9.90,9.89,9.88
56.29,9.25,-0.61,9.25,-0.62,0.62,0.48,0.80,9.87,9.86,9.86
56.86,9.22,-0.61,9.22,-0.61,0.61,0.46,0.78,9.84,9.84,9.83
57.42,9.20,-0.60,9.20,-0.61,0.61,0.45,0.77,9.81,9.81,9.80
58.00,9.17,-0.60,9.18,-0.60,0.60,0.43,0.76,9.77,9.78,9.78
58.58,9.16,-0.59,9.16,-0.59,0.59,0.41,0.74,9.75,9.75,9.75
59.16,9.12,-0.61,9.13,-0.59,0.59,0.40,0.73,9.71,9.72,9.73
59.76,9.12,-0.58,9.11,-0.58,0.58,0.38,0.71,9.70,9.69,9.70
60.35,9.07,-0.60,9.09,-0.57,0.57,0.36,0.69,9.64,9.66,9.67
60.96,9.07,-0.57,9.07,-0.56,0.56,0.35,0.68,9.63,9.63,9.64
61.57,9.04,-0.55,9.04,-0.55,0.55,0.33,0.66,9.59,9.59,9.59
62.18,9.03,-0.52,9.02,-0.54,0.54,0.31,0.64,9.57,9.56,9.55
62.80,8.99,-0.53,9.00,-0.53,0.53,0.29,0.61,9.52,9.53,9.52
63.43,8.99,-0.49,8.98,-0.52,0.52,0.28,0.59,9.51,9.49,9.48
64.07,8.94,-0.51,8.95,-0.51,0.51,0.26,0.57,9.45,9.46,9.45
64.71,8.93,-0.49,8.93,-0.49,0.49,0.24,0.54,9.43,9.42,9.42
65.35,8.90,-0.49,8.91,-0.48,0.48,0.22,0.52,9.38,9.39,9.39
66.01,8.89,-0.46,8.89,-0.47,0.47,0.21,0.49,9.36,9.35,9.36
66.67,8.86,-0.46,8.86,-0.45,0.45,0.19,0.46,9.32,9.32,9.32
67.33,8.85,-0.43,8.84,-0.44,0.44,0.17,0.43,9.29,9.28,9.29
68.01,8.81,-0.44,8.82,-0.43,0.43,0.16,0.40,9.24,9.25,9.25
68.69,8.79,-0.42,8.80,-0.41,0.41,0.14,0.37,9.21,9.21,9.21
69.37,8.77,-0.40,8.78,-0.40,0.40,0.12,0.34,9.17,9.17,9.17
70.07,8.76,-0.37,8.76,-0.38,0.38,0.10,0.30,9.14,9.14,9.13
70.77,8.73,-0.37,8.73,-0.36,0.36,0.08,0.27,9.10,9.10,9.10
71.48,8.73,-0.33,8.72,-0.34,0.34,0.07,0.23,9.07,9.06,9.06
72.19,8.68,-0.34,8.70,-0.32,0.32,0.05,0.20,9.00,9.02,9.02
72.91,8.68,-0.30,8.68,-0.30,0.30,0.03,0.16,8.98,8.98,8.98
73.64,8.64,-0.29,8.66,-0.28,0.28,0.01,0.12,8.92,8.94,8.93
74.38,8.64,-0.26,8.64,-0.26,0.26,-0.01,0.08,8.90,8.90,8.90
75.12,8.63,-0.22,8.62,-0.24,0.24,-0.03,0.05,8.87,8.86,8.85
75.87,8.60,-0.21,8.60,-0.22,0.22,-0.04,0.01,8.82,8.82,8.81
76.63,8.60,-0.18,8.59,-0.19,0.19,-0.06,-0.03,8.79,8.78,8.78
77.40,8.55,-0.19,8.57,-0.16,0.16,-0.08,-0.07,8.72,8.74,8.74
78.17,8.55,-0.14,8.56,-0.14,0.14,-0.10,-0.12,8.69,8.69,8.69
78.95,8.55,-0.11,8.54,-0.11,0.11,-0.12,-0.16,8.66,8.65,8.66
79.74,8.51,-0.10,8.53,-0.08,0.08,-0.14,-0.20,8.60,8.61,8.61
80.54,8.51,-0.06,8.51,-0.05,0.05,-0.16,-0.24,8.57,8.57,8.57
81.35,8.51,-0.02,8.50,-0.03,0.03,-0.18,-0.28,8.54,8.53,8.53
82.16,8.48,-0.00,8.49,0.00,-0.00,-0.20,-0.33,8.48,8.48,8.48
82.98,8.47,0.02,8.47,0.03,-0.03,-0.22,-0.37,8.44,8.44,8.45
83.81,8.47,0.08,8.46,0.07,-0.07,-0.24,-0.42,8.41,8.40,8.39
84.65,8.47,0.13,8.45,0.10,-0.10,-0.27,-0.46,8.37,8.35,8.34
85.50,8.42,0.12,8.44,0.14,-0.14,-0.29,-0.51,8.29,8.30,8.31
86.35,8.42,0.16,8.43,0.17,-0.17,-0.31,-0.55,8.25,8.26,8.26
87.22,8.42,0.21,8.42,0.21,-0.21,-0.33,-0.60,8.21,8.21,8.21
88.09,8.42,0.26,8.41,0.25,-0.25,-0.36,-0.65,8.17,8.16,8.16
88.97,8.38,0.27,8.40,0.29,-0.29,-0.38,-0.69,8.09,8.11,8.12
89.86,8.38,0.32,8.39,0.33,-0.33,-0.40,-0.74,8.05,8.06,8.06
90.76,8.38,0.38,8.38,0.37,-0.37,-0.43,-0.79,8.01,8.01,8.00
91.66,8.38,0.42,8.37,0.42,-0.42,-0.45,-0.84,7.96,7.95,7.96
92.58,8.37,0.48,8.36,0.46,-0.46,-0.48,-0.89,7.91,7.90,7.89
93.51,8.34,0.49,8.36,0.51,-0.51,-0.50,-0.94,7.83,7.85,7.85
94.44,8.34,0.55,8.35,0.56,-0.56,-0.53,-0.99,7.78,7.79,7.80
95.39,8.34,0.60,8.34,0.61,-0.61,-0.55,-1.04,7.73,7.73,7.74
96.34,8.34,0.67,8.33,0.66,-0.66,-0.58,-1.09,7.68,7.68,7.67
97.30,8.34,0.72,8.33,0.70,-0.70,-0.61,-1.14,7.64,7.62,7.62
98.28,8.34,0.78,8.32,0.75,-0.75,-0.64,-1.19,7.59,7.56,7.56
99.26,8.29,0.79,8.31,0.81,-0.81,-0.67,-1.24,7.48,7.51,7.50
100.25,8.29,0.84,8.30,0.86,-0.86,-0.70,-1.30,7.44,7.45,7.45
101.25,8.29,0.90,8.30,0.90,-0.90,-0.73,-1.35,7.39,7.39,7.39
102.27,8.29,0.96,8.29,0.95,-0.95,-0.76,-1.40,7.34,7.33,7.33
103.29,8.29,1.03,8.28,1.01,-1.01,-0.79,-1.45,7.29,7.28,7.27
104.32,8.27,1.05,8.27,1.06,-1.06,-0.82,-1.51,7.21,7.22,7.22
105.37,8.25,1.09,8.26,1.11,-1.11,-0.85,-1.56,7.14,7.16,7.16
106.42,8.25,1.15,8.26,1.16,-1.16,-0.89,-1.61,7.10,7.10,7.10
107.48,8.25,1.21,8.25,1.21,-1.21,-0.92,-1.66,7.05,7.04,7.04
108.56,8.25,1.28,8.24,1.26,-1.26,-0.96,-1.71,6.99,6.98,6.98
109.64,8.23,1.31,8.23,1.31,-1.31,-0.99,-1.76,6.92,6.92,6.92
110.74,8.21,1.35,8.22,1.37,-1.37,-1.03,-1.80,6.84,6.86,6.86
111.85,8.21,1.41,8.21,1.42,-1.42,-1.07,-1.85,6.79,6.79,6.80
112.97,8.21,1.48,8.20,1.47,-1.47,-1.11,-1.89,6.74,6.73,6.73
114.10,8.21,1.54,8.19,1.53,-1.53,-1.15,-1.94,6.69,6.67,6.67
115.24,8.17,1.57,8.18,1.58,-1.58,-1.19,-1.98,6.59,6.61,6.60
116.39,8.16,1.62,8.18,1.63,-1.63,-1.23,-2.02,6.53,6.54,6.54
117.55,8.16,1.69,8.17,1.69,-1.69,-1.27,-2.05,6.47,6.48,6.47
118.73,8.16,1.75,8.16,1.74,-1.74,-1.32,-2.09,6.42,6.42,6.41
119.92,8.16,1.81,8.15,1.79,-1.79,-1.36,-2.12,6.37,6.35,6.35
121.12,8.12,1.83,8.14,1.84,-1.84,-1.41,-2.15,6.28,6.29,6.29
122.33,8.12,1.89,8.13,1.90,-1.90,-1.46,-2.17,6.22,6.23,6.23
123.55,8.12,1.95,8.11,1.95,-1.95,-1.50,-2.20,6.17,6.17,6.17
124.79,8.12,2.01,8.10,2.00,-2.00,-1.55,-2.22,6.12,6.11,6.11
126.03,8.08,2.03,8.09,2.04,-2.04,-1.60,-2.24,6.04,6.05,6.05
127.29,8.08,2.09,8.08,2.09,-2.09,-1.66,-2.25,5.99,5.98,5.99
128.57,8.08,2.16,8.07,2.14,-2.14,-1.71,-2.26,5.94,5.92,5.92
129.85,8.03,2.17,8.06,2.19,-2.19,-1.76,-2.27,5.84,5.87,5.86
131.15,8.03,2.23,8.04,2.23,-2.23,-1.82,-2.28,5.80,5.81,5.80
132.46,8.03,2.29,8.03,2.28,-2.28,-1.87,-2.29,5.75,5.75,5.75
133.79,8.02,2.32,8.01,2.32,-2.32,-1.93,-2.29,5.70,5.69,5.70
135.12,7.99,2.36,8.00,2.36,-2.36,-1.99,-2.29,5.63,5.64,5.63
136.48,7.99,2.40,7.99,2.40,-2.40,-2.05,-2.29,5.59,5.58,5.59
137.84,7.98,2.45,7.97,2.44,-2.44,-2.11,-2.29,5.54,5.53,5.53
139.22,7.95,2.48,7.96,2.47,-2.47,-2.17,-2.29,5.48,5.48,5.47
140.61,7.95,2.53,7.94,2.51,-2.51,-2.23,-2.28,5.44,5.43,5.42
142.02,7.92,2.53,7.93,2.54,-2.54,-2.30,-2.28,5.38,5.38,5.39
143.44,7.90,2.56,7.91,2.58,-2.58,-2.36,-2.27,5.33,5.34,5.34
144.87,7.90,2.61,7.90,2.61,-2.61,-2.42,-2.27,5.29,5.29,5.29
146.32,7.87,2.63,7.88,2.64,-2.64,-2.49,-2.26,5.23,5.24,5.24
147.78,7.86,2.66,7.86,2.67,-2.67,-2.55,-2.25,5.19,5.19,5.20
149.26,7.86,2.71,7.85,2.70,-2.70,-2.62,-2.25,5.16,5.15,5.16
150.75,7.82,2.72,7.83,2.73,-2.73,-2.68,-2.24,5.09,5.10,5.10
152.26,7.82,2.77,7.82,2.76,-2.76,-2.75,-2.23,5.06,5.05,5.06
153.78,7.82,2.81,7.80,2.79,-2.79,-2.81,-2.23,5.03,5.01,5.01
155.32,7.77,2.81,7.79,2.83,-2.83,-2.88,-2.23,4.95,4.96,4.96
156.88,7.77,2.85,7.77,2.86,-2.86,-2.94,-2.22,4.92,4.91,4.92
158.44,7.76,2.89,7.76,2.89,-2.89,-3.00,-2.22,4.87,4.87,4.87
160.03,7.73,2.91,7.74,2.92,-2.92,-3.07,-2.22,4.81,4.82,4.82
161.63,7.73,2.96,7.72,2.95,-2.95,-3.12,-2.22,4.78,4.78,4.77
163.24,7.69,2.97,7.71,2.98,-2.98,-3.18,-2.22,4.71,4.73,4.72
164.88,7.69,3.01,7.69,3.01,-3.01,-3.24,-2.23,4.69,4.68,4.69
166.53,7.69,3.05,7.67,3.03,-3.03,-3.29,-2.23,4.66,4.64,4.64
168.19,7.64,3.05,7.66,3.06,-3.06,-3.34,-2.24,4.58,4.59,4.60
169.87,7.64,3.09,7.64,3.09,-3.09,-3.39,-2.25,4.55,4.55,4.55
171.57,7.62,3.11,7.62,3.12,-3.12,-3.43,-2.26,4.51,4.50,4.51
173.29,7.60,3.14,7.61,3.14,-3.14,-3.47,-2.27,4.46,4.46,4.47
175.02,7.60,3.18,7.59,3.17,-3.17,-3.51,-2.29,4.43,4.42,4.43
176.77,7.56,3.19,7.57,3.20,-3.20,-3.54,-2.31,4.37,4.37,4.37
178.54,7.56,3.24,7.55,3.22,-3.22,-3.57,-2.32,4.34,4.33,4.33
180.32,7.52,3.23,7.53,3.24,-3.24,-3.59,-2.34,4.28,4.29,4.29
182.13,7.51,3.26,7.51,3.27,-3.27,-3.61,-2.37,4.24,4.25,4.25
183.95,7.49,3.29,7.49,3.29,-3.29,-3.62,-2.39,4.20,4.20,4.20
185.79,7.47,3.31,7.48,3.31,-3.31,-3.63,-2.42,4.16,4.16,4.17
187.65,7.46,3.34,7.46,3.33,-3.33,-3.64,-2.44,4.13,4.13,4.12
189.52,7.43,3.35,7.44,3.35,-3.35,-3.64,-2.47,4.08,4.09,4.09
191.42,7.43,3.38,7.42,3.36,-3.36,-3.63,-2.50,4.07,4.05,4.05
193.33,7.38,3.36,7.39,3.38,-3.38,-3.62,-2.53,4.00,4.02,4.02
195.27,7.38,3.39,7.37,3.39,-3.39,-3.60,-2.57,3.99,3.98,3.99
197.22,7.34,3.39,7.35,3.40,-3.40,-3.58,-2.60,3.95,3.95,3.96
199.19,7.33,3.42,7.32,3.40,-3.40,-3.55,-2.64,3.93,3.93,3.91
201.18,7.30,3.41,7.30,3.40,-3.40,-3.52,-2.67,3.90,3.90,3.89
203.19,7.27,3.40,7.27,3.40,-3.40,-3.49,-2.71,3.87,3.87,3.87
205.23,7.25,3.41,7.24,3.40,-3.40,-3.45,-2.75,3.86,3.85,3.84
207.28,7.21,3.37,7.22,3.39,-3.39,-3.41,-2.79,3.82,3.83,3.84
209.35,7.18,3.37,7.18,3.38,-3.38,-3.36,-2.82,3.81,3.81,3.81
211.44,7.15,3.37,7.15,3.36,-3.36,-3.31,-2.86,3.79,3.79,3.78
213.56,7.12,3.35,7.12,3.34,-3.34,-3.26,-2.90,3.78,3.78,3.77
215.69,7.08,3.31,7.08,3.32,-3.32,-3.21,-2.93,3.76,3.76,3.77
217.85,7.04,3.29,7.04,3.29,-3.29,-3.15,-2.97,3.75,3.75,3.75
220.03,7.01,3.27,7.01,3.26,-3.26,-3.09,-3.00,3.75,3.74,3.74
222.23,6.97,3.25,6.97,3.23,-3.23,-3.03,-3.03,3.74,3.73,3.72
224.45,6.93,3.20,6.92,3.20,-3.20,-2.97,-3.06,3.74,3.73,3.73
226.70,6.87,3.15,6.88,3.16,-3.16,-2.91,-3.09,3.71,3.73,3.73
228.96,6.84,3.12,6.84,3.12,-3.12,-2.85,-3.11,3.72,3.72,3.72
231.25,6.79,3.06,6.80,3.08,-3.08,-2.78,-3.13,3.71,3.72,3.73
233.57,6.75,3.02,6.75,3.03,-3.03,-2.72,-3.14,3.72,3.72,3.73
235.90,6.71,2.98,6.71,2.98,-2.98,-2.65,-3.15,3.73,3.73,3.73
238.26,6.66,2.94,6.66,2.93,-2.93,-2.59,-3.16,3.73,3.73,3.73
240.64,6.62,2.89,6.62,2.88,-2.88,-2.53,-3.16,3.74,3.74,3.73
243.05,6.57,2.83,6.57,2.83,-2.83,-2.46,-3.16,3.74,3.74,3.74
245.48,6.53,2.78,6.53,2.77,-2.77,-2.40,-3.15,3.76,3.75,3.75
247.93,6.48,2.72,6.48,2.72,-2.72,-2.34,-3.13,3.76,3.76,3.76
250.41,6.44,2.68,6.43,2.66,-2.66,-2.27,-3.12,3.78,3.77,3.76
252.92,6.38,2.60,6.39,2.60,-2.60,-2.21,-3.09,3.78,3.79,3.79
255.45,6.34,2.54,6.34,2.54,-2.54,-2.15,-3.06,3.80,3.80,3.81
258.00,6.29,2.47,6.30,2.48,-2.48,-2.09,-3.02,3.81,3.82,3.82
260.58,6.24,2.41,6.25,2.42,-2.42,-2.03,-2.98,3.82,3.83,3.83
263.19,6.21,2.36,6.21,2.36,-2.36,-1.97,-2.94,3.86,3.85,3.85
265.82,6.16,2.30,6.16,2.29,-2.29,-1.92,-2.89,3.87,3.87,3.86
268.48,6.11,2.22,6.12,2.23,-2.23,-1.86,-2.83,3.88,3.89,3.89
271.16,6.08,2.17,6.07,2.17,-2.17,-1.81,-2.77,3.91,3.90,3.91
273.87,6.02,2.10,6.03,2.11,-2.11,-1.75,-2.71,3.91,3.92,3.92
276.61,5.98,2.03,5.99,2.05,-2.05,-1.70,-2.64,3.94,3.94,3.95
279.38,5.94,1.98,5.94,1.98,-1.98,-1.65,-2.57,3.96,3.96,3.96
282.17,5.89,1.92,5.90,1.92,-1.92,-1.60,-2.49,3.97,3.98,3.97
284.99,5.85,1.85,5.85,1.86,-1.86,-1.55,-2.42,4.00,4.00,4.00
287.84,5.81,1.80,5.81,1.79,-1.79,-1.50,-2.34,4.02,4.02,4.01
290.72,5.76,1.72,5.76,1.72,-1.72,-1.45,-2.25,4.04,4.04,4.04
293.63,5.72,1.67,5.71,1.66,-1.66,-1.40,-2.17,4.07,4.06,4.05
296.57,5.67,1.59,5.66,1.59,-1.59,-1.36,-2.09,4.09,4.08,4.08
299.53,5.62,1.53,5.61,1.52,-1.52,-1.31,-2.00,4.11,4.10,4.09
302.53,5.56,1.45,5.56,1.44,-1.44,-1.27,-1.91,4.12,4.12,4.11
305.55,5.50,1.36,5.51,1.37,-1.37,-1.23,-1.82,4.13,4.14,4.14
308.61,5.46,1.30,5.46,1.30,-1.30,-1.19,-1.73,4.16,4.16,4.16
311.69,5.41,1.23,5.41,1.23,-1.23,-1.14,-1.64,4.18,4.19,4.18
314.81,5.37,1.15,5.36,1.16,-1.16,-1.10,-1.55,4.22,4.21,4.22
317.96,5.31,1.07,5.31,1.08,-1.08,-1.06,-1.46,4.23,4.23,4.24
321.14,5.25,1.00,5.26,1.01,-1.01,-1.03,-1.37,4.24,4.25,4.25
324.35,5.20,0.93,5.21,0.94,-0.94,-0.99,-1.28,4.27,4.27,4.27
327.59,5.15,0.86,5.16,0.86,-0.86,-0.95,-1.19,4.29,4.29,4.30
330.87,5.11,0.80,5.11,0.79,-0.79,-0.91,-1.10,4.32,4.31,4.31
334.18,5.06,0.73,5.06,0.72,-0.72,-0.88,-1.01,4.34,4.33,4.33
337.52,5.01,0.66,5.01,0.65,-0.65,-0.84,-0.92,4.36,4.35,4.35
340.90,4.96,0.59,4.96,0.59,-0.59,-0.81,-0.83,4.38,4.37,4.37
344.30,4.90,0.51,4.91,0.52,-0.52,-0.77,-0.74,4.38,4.39,4.39
347.75,4.85,0.44,4.86,0.45,-0.45,-0.74,-0.65,4.40,4.41,4.41
351.23,4.80,0.38,4.81,0.38,-0.38,-0.71,-0.57,4.42,4.43,4.43
354.74,4.76,0.32,4.76,0.31,-0.31,-0.67,-0.48,4.45,4.44,4.44
358.28,4.72,0.26,4.71,0.25,-0.25,-0.64,-0.39,4.47,4.46,4.46
361.87,4.66,0.18,4.66,0.18,-0.18,-0.61,-0.31,4.48,4.48,4.48
365.49,4.60,0.11,4.60,0.11,-0.11,-0.57,-0.22,4.49,4.49,4.50
369.14,4.55,0.05,4.55,0.05,-0.05,-0.54,-0.13,4.51,4.51,4.50
372.83,4.50,-0.02,4.50,-0.02,0.02,-0.51,-0.05,4.52,4.52,4.52
376.56,4.46,-0.07,4.45,-0.08,0.08,-0.48,0.04,4.55,4.54,4.53
380.33,4.40,-0.16,4.40,-0.15,0.15,-0.45,0.12,4.55,4.55,4.56
384.13,4.34,-0.22,4.35,-0.21,0.21,-0.42,0.21,4.55,4.56,4.57
387.97,4.29,-0.28,4.30,-0.28,0.28,-0.38,0.29,4.57,4.58,4.57
391.85,4.24,-0.34,4.25,-0.34,0.34,-0.35,0.37,4.58,4.59,4.58
395.77,4.20,-0.40,4.19,-0.40,0.40,-0.32,0.45,4.61,4.60,4.60
399.73,4.15,-0.46,4.14,-0.47,0.47,-0.29,0.54,4.62,4.61,4.61
403.72,4.09,-0.53,4.10,-0.53,0.53,-0.26,0.62,4.62,4.62,4.62
407.76,4.05,-0.58,4.05,-0.58,0.58,-0.23,0.70,4.64,4.63,4.63
411.84,4.00,-0.64,4.00,-0.64,0.64,-0.20,0.78,4.64,4.64,4.65
415.96,3.95,-0.70,3.95,-0.70,0.70,-0.16,0.86,4.65,4.65,4.65
420.12,3.90,-0.76,3.91,-0.75,0.75,-0.13,0.94,4.66,4.66,4.66
424.32,3.86,-0.81,3.86,-0.81,0.81,-0.10,1.01,4.67,4.67,4.67
428.56,3.81,-0.87,3.82,-0.86,0.86,-0.06,1.09,4.67,4.68,4.68
432.85,3.77,-0.92,3.78,-0.92,0.92,-0.03,1.16,4.69,4.69,4.69
437.18,3.73,-0.97,3.74,-0.97,0.97,0.00,1.24,4.70,4.70,4.70
441.55,3.70,-1.02,3.70,-1.02,1.02,0.04,1.31,4.72,4.72,4.72
445.96,3.66,-1.06,3.66,-1.07,1.07,0.07,1.38,4.73,4.73,4.73
450.42,3.62,-1.11,3.62,-1.12,1.12,0.11,1.45,4.74,4.74,4.74
454.93,3.59,-1.16,3.59,-1.16,1.16,0.15,1.51,4.76,4.75,4.75
459.48,3.56,-1.20,3.56,-1.21,1.21,0.18,1.58,4.77,4.77,4.76
464.07,3.53,-1.25,3.53,-1.26,1.26,0.22,1.64,4.79,4.78,4.78
468.71,3.48,-1.32,3.50,-1.30,1.30,0.26,1.70,4.78,4.80,4.80
473.40,3.47,-1.34,3.47,-1.34,1.34,0.30,1.76,4.81,4.81,4.81
478.13,3.44,-1.39,3.44,-1.38,1.38,0.34,1.81,4.83,4.83,4.83
482.91,3.41,-1.43,3.42,-1.43,1.43,0.38,1.86,4.84,4.84,4.84
487.74,3.40,-1.46,3.39,-1.47,1.47,0.43,1.91,4.87,4.86,4.86
492.62,3.35,-1.53,3.37,-1.50,1.50,0.47,1.96,4.86,4.87,4.88
497.55,3.35,-1.54,3.34,-1.54,1.54,0.52,2.00,4.90,4.89,4.89
502.52,3.32,-1.59,3.32,-1.58,1.58,0.56,2.04,4.90,4.91,4.91
507.55,3.31,-1.60,3.30,-1.62,1.62,0.61,2.08,4.93,4.92,4.92
512.62,3.27,-1.66,3.28,-1.66,1.66,0.66,2.12,4.93,4.94,4.94
517.75,3.27,-1.68,3.26,-1.69,1.69,0.71,2.15,4.96,4.95,4.95
522.93,3.24,-1.73,3.24,-1.73,1.73,0.77,2.18,4.97,4.97,4.97
528.16,3.22,-1.76,3.22,-1.77,1.77,0.82,2.21,4.99,4.99,4.98
533.44,3.20,-1.80,3.20,-1.80,1.80,0.88,2.23,5.00,5.01,5.00
