frequency,raw,error,smoothed,error_smoothed,equalization,parametric_eq,fixed_band_eq,equalized_raw,equalized_smoothed,target
20.00,-14.01,-18.06,-14.05,-18.12,18.12,14.92,3.43,4.12,4.07,4.05
20.20,-13.72,-17.81,-13.75,-17.85,17.85,15.24,3.52,4.13,4.10,4.09
20.40,-13.43,-17.55,-13.44,-17.57,17.57,15.51,3.62,4.14,4.13,4.12
20.61,-13.15,-17.30,-13.14,-17.29,17.29,15.72,3.72,4.14,4.15,4.15
20.81,-12.86,-17.05,-12.83,-17.01,17.01,15.85,3.82,4.15,4.18,4.19
21.02,-12.58,-16.80,-12.53,-16.73,16.73,15.90,3.92,4.16,4.20,4.23
21.23,-12.27,-16.50,-12.23,-16.45,16.45,15.86,4.03,4.19,4.22,4.24
21.44,-11.95,-16.21,-11.92,-16.17,16.17,15.74,4.14,4.22,4.24,4.26
21.66,-11.65,-15.93,-11.62,-15.88,15.88,15.55,4.26,4.23,4.26,4.28
21.87,-11.33,-15.62,-11.32,-15.60,15.60,15.28,4.37,4.27,4.28,4.29
22.09,-11.02,-15.33,-11.02,-15.31,15.31,14.96,4.49,4.29,4.30,4.31
22.31,-10.70,-15.01,-10.72,-15.03,15.03,14.60,4.62,4.32,4.31,4.30
22.54,-10.40,-14.71,-10.41,-14.73,14.73,14.20,4.74,4.33,4.32,4.31
22.76,-10.08,-14.41,-10.10,-14.43,14.43,13.79,4.87,4.35,4.33,4.32
22.99,-9.77,-14.09,-9.79,-14.13,14.13,13.36,5.00,4.36,4.34,4.32
23.22,-9.49,-13.82,-9.49,-13.83,13.83,12.93,5.14,4.35,4.34,4.33
23.45,-9.19,-13.54,-9.19,-13.54,13.54,12.50,5.28,4.34,4.35,4.34
23.69,-8.91,-13.26,-8.90,-13.25,13.25,12.07,5.42,4.34,4.35,4.35
23.92,-8.61,-12.97,-8.60,-12.96,12.96,11.65,5.56,4.35,4.36,4.36
24.16,-8.32,-12.69,-8.32,-12.68,12.68,11.24,5.71,4.35,4.36,4.37
24.40,-8.03,-12.41,-8.04,-12.40,12.40,10.84,5.86,4.37,4.36,4.38
24.65,-7.75,-12.12,-7.76,-12.12,12.12,10.45,6.01,4.38,4.36,4.37
24.89,-7.45,-11.82,-7.49,-11.86,11.86,10.08,6.16,4.40,4.37,4.37
25.14,-7.18,-11.55,-7.22,-11.59,11.59,9.71,6.32,4.40,4.37,4.36
25.39,-6.92,-11.29,-6.95,-11.31,11.31,9.36,6.47,4.39,4.37,4.36
25.65,-6.67,-11.03,-6.67,-11.04,11.04,9.02,6.63,4.37,4.37,4.36
25.91,-6.41,-10.76,-6.40,-10.76,10.76,8.69,6.79,4.35,4.36,4.35
26.16,-6.13,-10.49,-6.12,-10.48,10.48,8.37,6.95,4.35,4.36,4.36
26.43,-5.88,-10.24,-5.84,-10.20,10.20,8.07,7.10,4.32,4.36,4.36
26.69,-5.62,-9.97,-5.56,-9.91,9.91,7.77,7.26,4.30,4.36,4.36
26.96,-5.35,-9.71,-5.28,-9.63,9.63,7.48,7.41,4.28,4.35,4.36
27.23,-5.04,-9.40,-5.00,-9.35,9.35,7.21,7.56,4.31,4.35,4.36
27.50,-4.72,-9.07,-4.71,-9.06,9.06,6.94,7.71,4.34,4.35,4.35
27.77,-4.39,-8.73,-4.43,-8.78,8.78,6.68,7.85,4.39,4.35,4.34
28.05,-4.08,-8.43,-4.15,-8.49,8.49,6.43,7.98,4.41,4.34,4.34
28.33,-3.81,-8.14,-3.87,-8.21,8.21,6.19,8.10,4.39,4.34,4.33
28.62,-3.56,-7.90,-3.58,-7.92,7.92,5.96,8.22,4.36,4.34,4.34
28.90,-3.28,-7.62,-3.31,-7.64,7.64,5.73,8.32,4.36,4.34,4.34
29.19,-3.03,-7.35,-3.03,-7.36,7.36,5.51,8.42,4.34,4.33,4.32
29.48,-2.76,-7.10,-2.76,-7.09,7.09,5.30,8.50,4.32,4.33,4.33
29.78,-2.51,-6.84,-2.49,-6.81,6.81,5.09,8.56,4.31,4.32,4.33
30.08,-2.24,-6.57,-2.23,-6.55,6.55,4.89,8.61,4.31,4.32,4.33
30.38,-1.98,-6.30,-1.97,-6.28,6.28,4.70,8.64,4.30,4.31,4.32
30.68,-1.72,-6.03,-1.71,-6.02,6.02,4.51,8.66,4.30,4.31,4.31
30.99,-1.46,-5.76,-1.45,-5.75,5.75,4.33,8.66,4.29,4.30,4.30
31.30,-1.20,-5.50,-1.18,-5.48,5.48,4.15,8.64,4.28,4.30,4.30
31.61,-0.94,-5.23,-0.92,-5.21,5.21,3.97,8.60,4.27,4.29,4.30
31.93,-0.67,-4.95,-0.66,-4.95,4.95,3.81,8.54,4.27,4.29,4.28
32.24,-0.40,-4.67,-0.40,-4.69,4.69,3.64,8.47,4.28,4.28,4.27
32.57,-0.15,-4.42,-0.15,-4.42,4.42,3.48,8.37,4.28,4.28,4.27
32.89,0.12,-4.15,0.11,-4.16,4.16,3.33,8.27,4.28,4.27,4.27
33.22,0.38,-3.89,0.36,-3.91,3.91,3.17,8.14,4.28,4.26,4.26
33.55,0.64,-3.62,0.60,-3.66,3.66,3.02,8.01,4.29,4.26,4.26
33.89,0.89,-3.36,0.84,-3.42,3.42,2.88,7.86,4.31,4.25,4.26
34.23,1.10,-3.15,1.07,-3.17,3.17,2.73,7.70,4.28,4.25,4.25
34.57,1.29,-2.95,1.31,-2.93,2.93,2.59,7.52,4.23,4.24,4.24
34.92,1.48,-2.75,1.54,-2.69,2.69,2.45,7.34,4.18,4.23,4.24
35.27,1.72,-2.51,1.77,-2.46,2.46,2.32,7.16,4.18,4.23,4.23
35.62,1.98,-2.24,2.00,-2.22,2.22,2.18,6.96,4.20,4.22,4.22
35.97,2.25,-1.97,2.23,-1.99,1.99,2.05,6.76,4.23,4.22,4.21
36.33,2.44,-1.77,2.44,-1.77,1.77,1.92,6.56,4.20,4.21,4.21
36.70,2.60,-1.60,2.64,-1.56,1.56,1.79,6.35,4.16,4.20,4.21
37.06,2.81,-1.38,2.85,-1.35,1.35,1.66,6.14,4.15,4.19,4.19
37.43,3.07,-1.12,3.05,-1.14,1.14,1.53,5.93,4.20,4.19,4.19
37.81,3.33,-0.85,3.25,-0.93,0.93,1.40,5.71,4.26,4.18,4.18
38.19,3.54,-0.62,3.45,-0.72,0.72,1.27,5.50,4.26,4.17,4.17
38.57,3.69,-0.47,3.65,-0.52,0.52,1.13,5.28,4.21,4.16,4.16
38.95,3.85,-0.31,3.83,-0.33,0.33,1.00,5.07,4.17,4.16,4.15
39.34,3.95,-0.18,3.99,-0.15,0.15,0.86,4.85,4.11,4.15,4.14
39.74,4.05,-0.07,4.16,0.02,-0.02,0.72,4.64,4.03,4.14,4.12
40.14,4.21,0.09,4.33,0.20,-0.20,0.57,4.43,4.01,4.13,4.13
40.54,4.47,0.35,4.50,0.38,-0.38,0.42,4.22,4.09,4.12,4.12
40.94,4.73,0.62,4.66,0.55,-0.55,0.26,4.01,4.18,4.10,4.11
41.35,4.85,0.76,4.80,0.71,-0.71,0.09,3.80,4.14,4.09,4.10
41.76,4.95,0.88,4.94,0.87,-0.87,-0.08,3.59,4.09,4.07,4.08
42.18,5.04,0.98,5.06,1.02,-1.02,-0.26,3.38,4.03,4.05,4.06
42.60,5.14,1.11,5.19,1.17,-1.17,-0.45,3.18,3.98,4.02,4.03
43.03,5.24,1.23,5.31,1.31,-1.31,-0.64,2.97,3.93,4.00,4.02
43.46,5.44,1.46,5.42,1.45,-1.45,-0.84,2.77,3.99,3.97,3.99
43.90,5.64,1.70,5.52,1.58,-1.58,-1.04,2.57,4.06,3.94,3.94
44.33,5.69,1.78,5.61,1.70,-1.70,-1.23,2.37,3.99,3.91,3.91
44.78,5.69,1.82,5.69,1.81,-1.81,-1.41,2.17,3.89,3.88,3.87
45.23,5.70,1.86,5.75,1.89,-1.89,-1.57,1.98,3.81,3.86,3.84
45.68,5.73,1.92,5.80,1.97,-1.97,-1.70,1.78,3.77,3.83,3.81
46.13,5.77,1.98,5.84,2.04,-2.04,-1.80,1.59,3.74,3.81,3.79
46.60,5.85,2.07,5.88,2.09,-2.09,-1.85,1.40,3.76,3.78,3.78
47.06,5.92,2.17,5.90,2.13,-2.13,-1.87,1.21,3.79,3.77,3.76
47.53,5.92,2.18,5.91,2.15,-2.15,-1.85,1.02,3.77,3.75,3.75
48.01,5.92,2.18,5.90,2.16,-2.16,-1.80,0.83,3.77,3.74,3.74
48.49,5.92,2.19,5.87,2.14,-2.14,-1.73,0.64,3.78,3.73,3.73
48.97,5.92,2.20,5.84,2.11,-2.11,-1.64,0.46,3.82,3.73,3.72
49.46,5.81,2.11,5.79,2.07,-2.07,-1.56,0.28,3.74,3.72,3.71
49.96,5.70,2.00,5.75,2.03,-2.03,-1.47,0.10,3.68,3.72,3.70
50.46,5.67,1.97,5.69,1.98,-1.98,-1.39,-0.08,3.70,3.71,3.71
50.96,5.64,1.93,5.62,1.92,-1.92,-1.32,-0.26,3.72,3.70,3.71
51.47,5.55,1.86,5.54,1.86,-1.86,-1.26,-0.43,3.69,3.68,3.70
51.99,5.46,1.78,5.46,1.79,-1.79,-1.20,-0.61,3.67,3.67,3.68
52.51,5.34,1.68,5.36,1.72,-1.72,-1.16,-0.78,3.62,3.64,3.66
53.03,5.22,1.59,5.27,1.65,-1.65,-1.12,-0.94,3.57,3.61,3.64
53.56,5.10,1.50,5.17,1.59,-1.59,-1.09,-1.10,3.52,3.58,3.60
54.10,5.00,1.45,5.07,1.53,-1.53,-1.06,-1.26,3.47,3.54,3.55
54.64,5.00,1.50,4.98,1.48,-1.48,-1.04,-1.42,3.52,3.50,3.50
55.18,4.96,1.51,4.89,1.44,-1.44,-1.03,-1.57,3.53,3.45,3.45
55.74,4.84,1.45,4.79,1.39,-1.39,-1.02,-1.71,3.46,3.40,3.39
56.29,4.71,1.37,4.69,1.35,-1.35,-1.01,-1.85,3.36,3.34,3.34
56.86,4.58,1.30,4.59,1.31,-1.31,-1.01,-1.98,3.27,3.28,3.28
57.42,4.45,1.24,4.49,1.27,-1.27,-1.01,-2.11,3.18,3.22,3.21
58.00,4.32,1.18,4.39,1.24,-1.24,-1.01,-2.23,3.08,3.15,3.15
58.58,4.32,1.24,4.30,1.22,-1.22,-1.01,-2.34,3.11,3.09,3.08
59.16,4.28,1.26,4.22,1.20,-1.20,-1.02,-2.45,3.09,3.02,3.03
59.76,4.15,1.19,4.13,1.17,-1.17,-1.03,-2.54,2.98,2.95,2.96
60.35,4.01,1.13,4.04,1.15,-1.15,-1.04,-2.63,2.86,2.89,2.89
60.96,3.87,1.04,3.96,1.13,-1.13,-1.05,-2.71,2.74,2.82,2.83
61.57,3.86,1.11,3.88,1.12,-1.12,-1.06,-2.78,2.74,2.76,2.75
62.18,3.82,1.14,3.81,1.11,-1.11,-1.07,-2.84,2.71,2.70,2.68
62.80,3.68,1.05,3.74,1.10,-1.10,-1.08,-2.89,2.59,2.64,2.63
63.43,3.64,1.07,3.68,1.09,-1.09,-1.09,-2.93,2.55,2.58,2.57
64.07,3.64,1.12,3.62,1.09,-1.09,-1.11,-2.97,2.56,2.53,2.52
64.71,3.60,1.13,3.55,1.08,-1.08,-1.12,-2.99,2.53,2.48,2.47
65.35,3.53,1.11,3.48,1.06,-1.06,-1.14,-3.01,2.48,2.43,2.42
66.01,3.41,1.04,3.42,1.04,-1.04,-1.15,-3.01,2.37,2.38,2.38
66.67,3.41,1.08,3.37,1.03,-1.03,-1.16,-3.01,2.38,2.34,2.33
67.33,3.33,1.04,3.32,1.02,-1.02,-1.18,-3.01,2.31,2.30,2.30
68.01,3.18,0.93,3.27,1.01,-1.01,-1.19,-2.99,2.17,2.26,2.26
68.69,3.18,0.96,3.21,0.99,-0.99,-1.21,-2.97,2.19,2.22,2.22
69.37,3.18,1.00,3.16,0.98,-0.98,-1.22,-2.95,2.21,2.18,2.18
70.07,3.16,1.02,3.11,0.97,-0.97,-1.23,-2.92,2.20,2.15,2.14
70.77,3.00,0.88,3.07,0.96,-0.96,-1.25,-2.88,2.05,2.11,2.12
71.48,2.95,0.87,3.02,0.94,-0.94,-1.26,-2.84,2.01,2.07,2.08
72.19,2.95,0.90,2.97,0.93,-0.93,-1.27,-2.80,2.02,2.04,2.05
72.91,2.95,0.95,2.92,0.92,-0.92,-1.29,-2.75,2.03,2.00,2.01
73.64,2.95,0.98,2.88,0.91,-0.91,-1.30,-2.70,2.04,1.97,1.97
74.38,2.89,0.96,2.83,0.90,-0.90,-1.31,-2.65,1.99,1.93,1.94
75.12,2.77,0.88,2.79,0.90,-0.90,-1.33,-2.60,1.88,1.89,1.89
75.87,2.74,0.89,2.76,0.90,-0.90,-1.34,-2.54,1.85,1.86,1.85
76.63,2.73,0.92,2.72,0.90,-0.90,-1.35,-2.49,1.84,1.82,1.82
77.40,2.70,0.92,2.68,0.89,-0.89,-1.36,-2.43,1.81,1.79,1.79
78.17,2.63,0.89,2.64,0.88,-0.88,-1.38,-2.38,1.75,1.76,1.75
78.95,2.51,0.79,2.61,0.88,-0.88,-1.39,-2.32,1.63,1.73,1.73
79.74,2.50,0.80,2.57,0.86,-0.86,-1.40,-2.27,1.64,1.70,1.70
80.54,2.50,0.83,2.53,0.85,-0.85,-1.41,-2.21,1.65,1.68,1.67
81.35,2.50,0.86,2.50,0.84,-0.84,-1.42,-2.16,1.66,1.66,1.65
82.16,2.50,0.87,2.47,0.83,-0.83,-1.43,-2.11,1.68,1.64,1.63
82.98,2.50,0.88,2.44,0.81,-0.81,-1.44,-2.06,1.69,1.63,1.63
83.81,2.50,0.89,2.40,0.79,-0.79,-1.45,-2.01,1.71,1.61,1.61
84.65,2.35,0.76,2.37,0.76,-0.76,-1.46,-1.96,1.59,1.60,1.59
85.50,2.27,0.68,2.33,0.73,-0.73,-1.47,-1.91,1.54,1.59,1.60
86.35,2.27,0.69,2.30,0.71,-0.71,-1.48,-1.86,1.57,1.59,1.59
87.22,2.27,0.70,2.27,0.69,-0.69,-1.49,-1.82,1.58,1.58,1.58
88.09,2.27,0.71,2.24,0.67,-0.67,-1.50,-1.77,1.60,1.57,1.57
88.97,2.27,0.70,2.21,0.65,-0.65,-1.51,-1.73,1.63,1.56,1.58
89.86,2.12,0.56,2.17,0.62,-0.62,-1.52,-1.69,1.51,1.55,1.56
90.76,2.05,0.51,2.13,0.59,-0.59,-1.53,-1.65,1.46,1.54,1.54
91.66,2.04,0.51,2.09,0.57,-0.57,-1.54,-1.61,1.48,1.53,1.54
92.58,2.04,0.54,2.06,0.55,-0.55,-1.55,-1.58,1.49,1.51,1.50
93.51,2.04,0.54,2.04,0.55,-0.55,-1.55,-1.54,1.50,1.49,1.50
94.44,2.04,0.57,2.01,0.55,-0.55,-1.56,-1.51,1.50,1.47,1.48
95.39,2.04,0.59,1.98,0.54,-0.54,-1.57,-1.48,1.50,1.44,1.45
96.34,2.01,0.61,1.94,0.53,-0.53,-1.58,-1.45,1.49,1.41,1.40
97.30,1.90,0.53,1.90,0.52,-0.52,-1.58,-1.42,1.38,1.38,1.38
98.28,1.81,0.47,1.87,0.52,-0.52,-1.59,-1.39,1.29,1.35,1.34
99.26,1.81,0.51,1.85,0.54,-0.54,-1.60,-1.36,1.28,1.31,1.30
100.25,1.81,0.55,1.82,0.55,-0.55,-1.60,-1.34,1.26,1.27,1.27
101.25,1.81,0.59,1.78,0.56,-0.56,-1.61,-1.31,1.25,1.22,1.22
102.27,1.78,0.61,1.74,0.57,-0.57,-1.61,-1.29,1.21,1.17,1.17
103.29,1.67,0.56,1.69,0.58,-0.58,-1.62,-1.27,1.09,1.11,1.11
104.32,1.59,0.53,1.65,0.59,-0.59,-1.62,-1.25,1.00,1.05,1.07
105.37,1.59,0.58,1.61,0.61,-0.61,-1.63,-1.23,0.98,0.99,1.01
106.42,1.59,0.65,1.58,0.65,-0.65,-1.64,-1.21,0.94,0.92,0.94
107.48,1.59,0.73,1.55,0.70,-0.70,-1.64,-1.20,0.90,0.85,0.86
108.56,1.59,0.82,1.52,0.74,-0.74,-1.64,-1.18,0.85,0.78,0.78
109.64,1.44,0.74,1.49,0.79,-0.79,-1.65,-1.17,0.65,0.70,0.70
110.74,1.36,0.74,1.45,0.83,-0.83,-1.65,-1.15,0.53,0.62,0.62
111.85,1.36,0.82,1.41,0.88,-0.88,-1.66,-1.14,0.49,0.53,0.54
112.97,1.36,0.92,1.38,0.93,-0.93,-1.66,-1.13,0.43,0.45,0.45
114.10,1.36,0.99,1.36,0.99,-0.99,-1.67,-1.11,0.37,0.37,0.37
115.24,1.36,1.08,1.33,1.04,-1.04,-1.67,-1.10,0.32,0.29,0.28
116.39,1.36,1.17,1.30,1.09,-1.09,-1.67,-1.09,0.28,0.21,0.20
117.55,1.35,1.23,1.26,1.12,-1.12,-1.68,-1.08,0.23,0.14,0.12
118.73,1.19,1.15,1.22,1.15,-1.15,-1.68,-1.07,0.04,0.07,0.05
119.92,1.13,1.14,1.19,1.18,-1.18,-1.68,-1.06,-0.05,0.01,-0.01
121.12,1.13,1.20,1.15,1.20,-1.20,-1.68,-1.05,-0.07,-0.05,-0.07
122.33,1.13,1.26,1.13,1.24,-1.24,-1.69,-1.05,-0.10,-0.11,-0.12
123.55,1.13,1.29,1.10,1.26,-1.26,-1.69,-1.04,-0.13,-0.16,-0.16
124.79,1.13,1.34,1.07,1.28,-1.28,-1.69,-1.03,-0.14,-0.21,-0.21
126.03,0.98,1.23,1.03,1.29,-1.29,-1.69,-1.02,-0.30,-0.25,-0.25
127.29,0.93,1.22,1.00,1.30,-1.30,-1.69,-1.02,-0.36,-0.30,-0.29
128.57,0.90,1.24,0.96,1.30,-1.30,-1.69,-1.01,-0.40,-0.34,-0.34
129.85,0.90,1.28,0.93,1.31,-1.31,-1.70,-1.00,-0.41,-0.38,-0.38
131.15,0.90,1.32,0.90,1.32,-1.32,-1.70,-1.00,-0.42,-0.43,-0.42
132.46,0.90,1.37,0.87,1.34,-1.34,-1.70,-0.99,-0.43,-0.47,-0.46
133.79,0.90,1.41,0.84,1.35,-1.35,-1.70,-0.99,-0.44,-0.51,-0.50
135.12,0.89,1.45,0.81,1.36,-1.36,-1.70,-0.98,-0.46,-0.55,-0.56
136.48,0.84,1.44,0.78,1.37,-1.37,-1.70,-0.98,-0.53,-0.59,-0.59
137.84,0.69,1.33,0.76,1.39,-1.39,-1.70,-0.97,-0.70,-0.64,-0.64
139.22,0.67,1.37,0.74,1.42,-1.42,-1.70,-0.97,-0.75,-0.68,-0.70
140.61,0.67,1.43,0.73,1.46,-1.46,-1.70,-0.97,-0.78,-0.73,-0.75
142.02,0.67,1.46,0.72,1.50,-1.50,-1.70,-0.96,-0.83,-0.78,-0.78
143.44,0.67,1.51,0.71,1.54,-1.54,-1.70,-0.96,-0.87,-0.84,-0.83
144.87,0.67,1.56,0.70,1.59,-1.59,-1.70,-0.96,-0.92,-0.89,-0.88
146.32,0.67,1.61,0.68,1.64,-1.64,-1.70,-0.96,-0.96,-0.96,-0.94
147.78,0.67,1.66,0.67,1.69,-1.69,-1.70,-0.96,-1.02,-1.02,-0.99
149.26,0.67,1.74,0.66,1.76,-1.76,-1.70,-0.96,-1.08,-1.10,-1.06
150.75,0.67,1.82,0.66,1.83,-1.83,-1.69,-0.96,-1.15,-1.17,-1.15
152.26,0.67,1.90,0.65,1.89,-1.89,-1.69,-0.96,-1.22,-1.25,-1.22
153.78,0.67,1.98,0.63,1.96,-1.96,-1.69,-0.96,-1.29,-1.33,-1.31
155.32,0.67,2.08,0.61,2.01,-2.01,-1.69,-0.96,-1.34,-1.40,-1.41
156.88,0.65,2.15,0.57,2.06,-2.06,-1.69,-0.97,-1.40,-1.48,-1.49
158.44,0.51,2.09,0.54,2.10,-2.10,-1.68,-0.97,-1.58,-1.56,-1.57
160.03,0.45,2.11,0.50,2.13,-2.13,-1.68,-0.98,-1.68,-1.63,-1.65
161.63,0.45,2.17,0.46,2.16,-2.16,-1.68,-0.98,-1.70,-1.70,-1.72
163.24,0.45,2.23,0.42,2.17,-2.17,-1.68,-0.99,-1.72,-1.76,-1.78
164.88,0.45,2.28,0.38,2.19,-2.19,-1.67,-1.00,-1.73,-1.81,-1.82
166.53,0.27,2.14,0.34,2.19,-2.19,-1.67,-1.00,-1.92,-1.85,-1.87
168.19,0.22,2.13,0.32,2.20,-2.20,-1.67,-1.01,-1.97,-1.88,-1.91
169.87,0.22,2.15,0.29,2.20,-2.20,-1.66,-1.02,-1.97,-1.91,-1.93
171.57,0.22,2.17,0.27,2.19,-2.19,-1.66,-1.03,-1.97,-1.92,-1.94
173.29,0.22,2.17,0.25,2.18,-2.18,-1.66,-1.04,-1.96,-1.94,-1.94
175.02,0.22,2.16,0.23,2.17,-2.17,-1.65,-1.06,-1.95,-1.95,-1.94
176.77,0.22,2.17,0.21,2.17,-2.17,-1.65,-1.07,-1.94,-1.95,-1.95
178.54,0.22,2.17,0.19,2.15,-2.15,-1.64,-1.08,-1.93,-1.96,-1.94
180.32,0.22,2.17,0.18,2.14,-2.14,-1.64,-1.10,-1.92,-1.96,-1.94
182.13,0.22,2.17,0.17,2.13,-2.13,-1.64,-1.11,-1.91,-1.97,-1.94
183.95,0.22,2.17,0.15,2.13,-2.13,-1.63,-1.13,-1.90,-1.98,-1.95
185.79,0.22,2.19,0.14,2.12,-2.12,-1.63,-1.14,-1.90,-1.99,-1.96
187.65,0.05,2.04,0.11,2.11,-2.11,-1.62,-1.16,-2.06,-2.00,-1.99
189.52,-0.01,2.01,0.08,2.09,-2.09,-1.62,-1.18,-2.10,-2.01,-2.01
191.42,-0.01,2.03,0.04,2.07,-2.07,-1.61,-1.20,-2.08,-2.03,-2.04
193.33,-0.01,2.05,0.01,2.06,-2.06,-1.60,-1.22,-2.06,-2.05,-2.06
195.27,-0.01,2.07,-0.03,2.04,-2.04,-1.60,-1.24,-2.05,-2.08,-2.07
197.22,-0.01,2.09,-0.06,2.03,-2.03,-1.59,-1.26,-2.04,-2.10,-2.10
199.19,-0.02,2.12,-0.09,2.03,-2.03,-1.59,-1.28,-2.04,-2.12,-2.14
201.18,-0.15,2.00,-0.12,2.03,-2.03,-1.58,-1.30,-2.17,-2.14,-2.15
203.19,-0.24,1.93,-0.15,2.02,-2.02,-1.57,-1.33,-2.26,-2.17,-2.17
205.23,-0.24,1.96,-0.18,2.01,-2.01,-1.57,-1.35,-2.25,-2.19,-2.20
207.28,-0.24,1.97,-0.20,2.01,-2.01,-1.56,-1.37,-2.25,-2.21,-2.20
209.35,-0.24,2.00,-0.22,2.01,-2.01,-1.55,-1.39,-2.24,-2.23,-2.23
211.44,-0.24,2.02,-0.25,2.00,-2.00,-1.55,-1.42,-2.23,-2.25,-2.26
213.56,-0.24,2.03,-0.28,1.98,-1.98,-1.54,-1.44,-2.22,-2.27,-2.27
215.69,-0.24,2.04,-0.31,1.97,-1.97,-1.53,-1.46,-2.21,-2.28,-2.27
217.85,-0.24,2.06,-0.33,1.97,-1.97,-1.52,-1.48,-2.20,-2.30,-2.30
220.03,-0.33,1.99,-0.35,1.97,-1.97,-1.51,-1.51,-2.29,-2.31,-2.31
222.23,-0.43,1.91,-0.36,1.96,-1.96,-1.51,-1.53,-2.39,-2.33,-2.34
224.45,-0.47,1.87,-0.38,1.96,-1.96,-1.50,-1.55,-2.43,-2.34,-2.34
226.70,-0.47,1.88,-0.40,1.95,-1.95,-1.49,-1.57,-2.41,-2.35,-2.34
228.96,-0.47,1.89,-0.43,1.93,-1.93,-1.48,-1.59,-2.39,-2.36,-2.36
231.25,-0.47,1.89,-0.46,1.90,-1.90,-1.47,-1.61,-2.37,-2.37,-2.36
233.57,-0.47,1.91,-0.49,1.88,-1.88,-1.46,-1.62,-2.34,-2.37,-2.37
235.90,-0.47,1.92,-0.52,1.85,-1.85,-1.45,-1.64,-2.32,-2.38,-2.38
238.26,-0.47,1.92,-0.55,1.83,-1.83,-1.44,-1.66,-2.29,-2.38,-2.39
240.64,-0.47,1.92,-0.57,1.81,-1.81,-1.44,-1.67,-2.27,-2.38,-2.39
243.05,-0.62,1.76,-0.58,1.79,-1.79,-1.43,-1.68,-2.41,-2.38,-2.38
245.48,-0.69,1.69,-0.59,1.78,-1.78,-1.42,-1.69,-2.47,-2.38,-2.38
247.93,-0.69,1.68,-0.61,1.77,-1.77,-1.41,-1.70,-2.45,-2.37,-2.37
250.41,-0.69,1.69,-0.63,1.74,-1.74,-1.40,-1.71,-2.43,-2.37,-2.38
252.92,-0.69,1.68,-0.66,1.71,-1.71,-1.39,-1.72,-2.40,-2.37,-2.37
255.45,-0.69,1.66,-0.68,1.67,-1.67,-1.38,-1.72,-2.36,-2.36,-2.34
258.00,-0.69,1.66,-0.71,1.64,-1.64,-1.37,-1.72,-2.32,-2.35,-2.34
260.58,-0.69,1.65,-0.74,1.60,-1.60,-1.36,-1.73,-2.29,-2.34,-2.34
263.19,-0.69,1.64,-0.76,1.56,-1.56,-1.35,-1.73,-2.25,-2.33,-2.33
265.82,-0.69,1.64,-0.79,1.53,-1.53,-1.33,-1.73,-2.21,-2.32,-2.33
268.48,-0.75,1.56,-0.81,1.50,-1.50,-1.32,-1.72,-2.24,-2.30,-2.30
271.16,-0.88,1.41,-0.82,1.47,-1.47,-1.31,-1.72,-2.34,-2.28,-2.29
273.87,-0.92,1.36,-0.84,1.43,-1.43,-1.30,-1.72,-2.35,-2.27,-2.28
276.61,-0.92,1.33,-0.86,1.39,-1.39,-1.29,-1.71,-2.31,-2.25,-2.24
279.38,-0.92,1.31,-0.88,1.35,-1.35,-1.28,-1.71,-2.26,-2.22,-2.23
282.17,-0.92,1.29,-0.90,1.31,-1.31,-1.27,-1.70,-2.22,-2.20,-2.21
284.99,-0.92,1.27,-0.90,1.28,-1.28,-1.26,-1.70,-2.19,-2.18,-2.18
287.84,-0.92,1.24,-0.91,1.25,-1.25,-1.25,-1.69,-2.16,-2.15,-2.16
290.72,-0.92,1.21,-0.91,1.21,-1.21,-1.24,-1.68,-2.13,-2.12,-2.12
293.63,-0.92,1.18,-0.92,1.18,-1.18,-1.22,-1.68,-2.10,-2.10,-2.10
296.57,-0.92,1.16,-0.92,1.15,-1.15,-1.21,-1.67,-2.07,-2.07,-2.07
299.53,-0.92,1.13,-0.93,1.12,-1.12,-1.20,-1.66,-2.04,-2.05,-2.05
302.53,-0.92,1.12,-0.93,1.09,-1.09,-1.19,-1.66,-2.01,-2.03,-2.03
305.55,-0.92,1.08,-0.95,1.06,-1.06,-1.18,-1.65,-1.98,-2.01,-2.00
308.61,-0.92,1.07,-0.97,1.03,-1.03,-1.17,-1.65,-1.94,-1.99,-1.98
311.69,-0.92,1.05,-0.99,0.99,-0.99,-1.16,-1.65,-1.90,-1.98,-1.97
314.81,-0.92,1.02,-1.02,0.94,-0.94,-1.15,-1.64,-1.86,-1.97,-1.94
317.96,-1.06,0.89,-1.05,0.90,-0.90,-1.14,-1.64,-1.96,-1.95,-1.94
321.14,-1.15,0.80,-1.07,0.87,-0.87,-1.13,-1.64,-2.02,-1.95,-1.95
324.35,-1.15,0.79,-1.09,0.85,-0.85,-1.12,-1.64,-1.99,-1.94,-1.94
327.59,-1.15,0.79,-1.10,0.82,-0.82,-1.11,-1.64,-1.97,-1.93,-1.93
330.87,-1.15,0.78,-1.11,0.81,-0.81,-1.10,-1.64,-1.96,-1.92,-1.93
334.18,-1.15,0.77,-1.11,0.80,-0.80,-1.09,-1.64,-1.94,-1.91,-1.92
337.52,-1.15,0.77,-1.11,0.79,-0.79,-1.08,-1.65,-1.94,-1.90,-1.91
340.90,-1.15,0.74,-1.10,0.79,-0.79,-1.07,-1.65,-1.94,-1.89,-1.89
344.30,-1.15,0.73,-1.08,0.79,-0.79,-1.06,-1.66,-1.94,-1.87,-1.88
347.75,-1.09,0.78,-1.06,0.80,-0.80,-1.06,-1.67,-1.88,-1.85,-1.86
351.23,-0.96,0.88,-1.03,0.80,-0.80,-1.05,-1.68,-1.76,-1.83,-1.83
354.74,-0.92,0.90,-1.00,0.81,-0.81,-1.04,-1.69,-1.73,-1.81,-1.82
358.28,-0.92,0.87,-0.97,0.82,-0.82,-1.04,-1.70,-1.73,-1.79,-1.79
361.87,-0.92,0.86,-0.96,0.81,-0.81,-1.03,-1.71,-1.73,-1.77,-1.77
365.49,-0.92,0.83,-0.95,0.80,-0.80,-1.03,-1.73,-1.71,-1.75,-1.74
369.14,-0.92,0.81,-0.94,0.78,-0.78,-1.02,-1.74,-1.70,-1.72,-1.73
372.83,-0.92,0.78,-0.93,0.78,-0.78,-1.02,-1.76,-1.69,-1.70,-1.70
376.56,-0.92,0.76,-0.91,0.77,-0.77,-1.02,-1.78,-1.68,-1.68,-1.68
380.33,-0.92,0.74,-0.90,0.76,-0.76,-1.01,-1.80,-1.68,-1.66,-1.65
384.13,-0.92,0.72,-0.90,0.75,-0.75,-1.01,-1.82,-1.66,-1.65,-1.63
387.97,-0.92,0.71,-0.90,0.74,-0.74,-1.01,-1.84,-1.65,-1.63,-1.63
391.85,-0.92,0.70,-0.89,0.73,-0.73,-1.01,-1.86,-1.65,-1.62,-1.62
395.77,-0.92,0.69,-0.87,0.74,-0.74,-1.02,-1.89,-1.66,-1.61,-1.61
399.73,-0.92,0.68,-0.84,0.75,-0.75,-1.02,-1.91,-1.67,-1.60,-1.60
403.72,-0.84,0.76,-0.82,0.77,-0.77,-1.02,-1.94,-1.61,-1.59,-1.59
407.76,-0.72,0.87,-0.78,0.80,-0.80,-1.03,-1.96,-1.52,-1.58,-1.58
411.84,-0.69,0.89,-0.74,0.84,-0.84,-1.04,-1.99,-1.52,-1.58,-1.57
415.96,-0.69,0.88,-0.70,0.87,-0.87,-1.05,-2.02,-1.56,-1.58,-1.57
420.12,-0.69,0.88,-0.66,0.91,-0.91,-1.06,-2.04,-1.60,-1.57,-1.57
424.32,-0.67,0.90,-0.61,0.96,-0.96,-1.07,-2.07,-1.63,-1.57,-1.57
428.56,-0.53,1.04,-0.56,1.01,-1.01,-1.08,-2.10,-1.54,-1.57,-1.57
432.85,-0.47,1.10,-0.51,1.06,-1.06,-1.10,-2.12,-1.52,-1.56,-1.57
437.18,-0.47,1.10,-0.46,1.10,-1.10,-1.11,-2.15,-1.57,-1.56,-1.56
441.55,-0.47,1.09,-0.41,1.14,-1.14,-1.13,-2.18,-1.61,-1.56,-1.55
445.96,-0.31,1.25,-0.36,1.19,-1.19,-1.16,-2.20,-1.50,-1.55,-1.55
450.42,-0.24,1.31,-0.31,1.23,-1.23,-1.18,-2.23,-1.47,-1.54,-1.55
454.93,-0.24,1.30,-0.26,1.28,-1.28,-1.21,-2.25,-1.51,-1.53,-1.54
459.48,-0.24,1.29,-0.19,1.33,-1.33,-1.23,-2.27,-1.57,-1.52,-1.53
464.07,-0.14,1.37,-0.11,1.39,-1.39,-1.27,-2.29,-1.53,-1.50,-1.51
468.71,-0.04,1.45,-0.04,1.45,-1.45,-1.30,-2.31,-1.48,-1.49,-1.49
473.40,-0.01,1.47,0.02,1.49,-1.49,-1.34,-2.33,-1.50,-1.47,-1.48
478.13,-0.01,1.44,0.09,1.54,-1.54,-1.38,-2.35,-1.55,-1.45,-1.45
482.91,0.17,1.60,0.18,1.61,-1.61,-1.42,-2.36,-1.43,-1.43,-1.43
