frequency,raw,error,smoothed,error_smoothed,equalization,parametric_eq,fixed_band_eq,equalized_raw,equalized_smoothed,target
20.00,5.59,-0.09,5.59,-0.09,0.08,-0.60,-0.25,5.68,5.67,5.68
20.20,5.63,-0.10,5.63,-0.10,0.10,-0.60,-0.25,5.73,5.73,5.73
20.40,5.66,-0.12,5.67,-0.11,0.11,-0.61,-0.26,5.77,5.78,5.78
20.61,5.70,-0.11,5.70,-0.11,0.12,-0.61,-0.27,5.82,5.82,5.81
20.81,5.74,-0.12,5.74,-0.12,0.12,-0.61,-0.27,5.87,5.86,5.86
21.02,5.77,-0.13,5.77,-0.12,0.13,-0.61,-0.28,5.90,5.90,5.90
21.23,5.79,-0.13,5.80,-0.13,0.13,-0.61,-0.29,5.92,5.92,5.92
21.44,5.81,-0.13,5.82,-0.12,0.12,-0.61,-0.30,5.94,5.94,5.94
21.66,5.84,-0.12,5.84,-0.12,0.12,-0.61,-0.31,5.96,5.96,5.96
21.87,5.86,-0.11,5.86,-0.11,0.11,-0.61,-0.31,5.98,5.97,5.97
22.09,5.88,-0.11,5.88,-0.10,0.10,-0.62,-0.32,5.98,5.98,5.99
22.31,5.90,-0.10,5.90,-0.09,0.08,-0.62,-0.33,5.99,5.99,6.00
22.54,5.92,-0.08,5.93,-0.07,0.07,-0.62,-0.34,5.99,5.99,6.00
22.76,5.95,-0.05,5.95,-0.05,0.05,-0.62,-0.35,6.00,6.00,6.00
22.99,5.97,-0.02,5.97,-0.02,0.03,-0.62,-0.36,6.00,6.00,5.99
23.22,5.99,0.00,5.99,0.00,0.01,-0.62,-0.37,6.00,6.00,5.99
23.45,6.01,0.02,6.01,0.02,-0.02,-0.62,-0.38,6.00,6.00,5.99
23.69,6.03,0.03,6.03,0.04,-0.04,-0.63,-0.39,5.99,6.00,6.00
23.92,6.05,0.05,6.06,0.06,-0.06,-0.63,-0.40,5.99,6.00,6.00
24.16,6.08,0.08,6.08,0.08,-0.08,-0.63,-0.41,6.00,6.00,6.00
24.40,6.10,0.09,6.11,0.10,-0.10,-0.63,-0.42,6.00,6.00,6.01
24.65,6.13,0.13,6.13,0.13,-0.13,-0.63,-0.43,6.00,6.00,6.00
24.89,6.15,0.15,6.15,0.15,-0.15,-0.64,-0.44,6.00,6.00,6.00
25.14,6.17,0.17,6.18,0.18,-0.18,-0.64,-0.45,6.00,6.00,6.00
25.39,6.20,0.19,6.20,0.20,-0.20,-0.64,-0.47,6.00,6.00,6.01
25.65,6.23,0.22,6.23,0.22,-0.22,-0.64,-0.48,6.02,6.01,6.01
25.91,6.25,0.25,6.25,0.25,-0.23,-0.64,-0.49,6.02,6.02,6.00
26.16,6.26,0.26,6.26,0.26,-0.25,-0.65,-0.50,6.02,6.02,6.00
26.43,6.26,0.26,6.26,0.26,-0.26,-0.65,-0.51,6.01,6.00,6.00
26.69,6.26,0.26,6.26,0.26,-0.27,-0.65,-0.52,5.99,5.99,6.00
26.96,6.26,0.26,6.27,0.27,-0.29,-0.65,-0.53,5.98,5.98,6.00
27.23,6.28,0.28,6.28,0.29,-0.30,-0.66,-0.55,5.98,5.98,6.00
27.50,6.31,0.31,6.31,0.31,-0.32,-0.66,-0.56,5.99,5.99,6.00
27.77,6.33,0.34,6.34,0.34,-0.35,-0.66,-0.57,5.99,5.99,5.99
28.05,6.36,0.37,6.36,0.37,-0.37,-0.67,-0.58,5.99,5.99,5.99
28.33,6.38,0.40,6.39,0.40,-0.40,-0.67,-0.59,5.98,5.99,5.98
28.62,6.41,0.43,6.42,0.43,-0.42,-0.67,-0.60,5.99,5.99,5.98
28.90,6.44,0.45,6.44,0.45,-0.44,-0.67,-0.61,6.00,5.99,5.99
29.19,6.45,0.47,6.45,0.47,-0.46,-0.68,-0.62,6.00,5.99,5.98
29.48,6.45,0.46,6.46,0.47,-0.47,-0.68,-0.63,5.99,5.99,5.99
29.78,6.45,0.47,6.45,0.47,-0.47,-0.69,-0.63,5.98,5.98,5.98
30.08,6.45,0.46,6.45,0.47,-0.47,-0.69,-0.64,5.98,5.98,5.99
30.38,6.45,0.47,6.45,0.47,-0.47,-0.69,-0.65,5.99,5.99,5.98
30.68,6.45,0.47,6.45,0.47,-0.47,-0.70,-0.66,5.99,5.99,5.98
30.99,6.45,0.47,6.45,0.48,-0.47,-0.70,-0.66,5.98,5.98,5.98
31.30,6.45,0.48,6.45,0.47,-0.48,-0.71,-0.67,5.97,5.96,5.97
31.61,6.45,0.48,6.45,0.48,-0.51,-0.71,-0.67,5.95,5.94,5.97
31.93,6.45,0.48,6.47,0.50,-0.53,-0.71,-0.68,5.92,5.93,5.97
32.24,6.50,0.54,6.51,0.54,-0.56,-0.72,-0.68,5.94,5.94,5.96
32.57,6.56,0.60,6.56,0.60,-0.60,-0.73,-0.69,5.97,5.97,5.96
32.89,6.62,0.66,6.61,0.66,-0.63,-0.73,-0.69,6.00,5.99,5.96
33.22,6.64,0.69,6.64,0.69,-0.66,-0.74,-0.69,5.99,5.98,5.95
33.55,6.64,0.69,6.65,0.70,-0.68,-0.74,-0.69,5.96,5.97,5.95
33.89,6.64,0.70,6.64,0.70,-0.70,-0.75,-0.70,5.94,5.94,5.94
34.23,6.64,0.70,6.64,0.71,-0.71,-0.75,-0.70,5.93,5.93,5.94
34.57,6.64,0.71,6.64,0.71,-0.72,-0.76,-0.70,5.92,5.92,5.93
34.92,6.64,0.71,6.64,0.72,-0.72,-0.77,-0.70,5.92,5.92,5.93
35.27,6.64,0.72,6.64,0.72,-0.72,-0.78,-0.70,5.93,5.93,5.92
35.62,6.64,0.72,6.64,0.72,-0.72,-0.78,-0.70,5.92,5.92,5.92
35.97,6.64,0.72,6.64,0.72,-0.72,-0.79,-0.70,5.92,5.92,5.92
36.33,6.64,0.72,6.64,0.73,-0.73,-0.80,-0.70,5.91,5.91,5.92
36.70,6.64,0.73,6.64,0.73,-0.74,-0.81,-0.70,5.90,5.90,5.91
37.06,6.65,0.74,6.66,0.75,-0.76,-0.82,-0.71,5.90,5.90,5.91
37.43,6.68,0.76,6.69,0.77,-0.77,-0.83,-0.71,5.91,5.92,5.92
37.81,6.72,0.80,6.72,0.80,-0.79,-0.84,-0.71,5.94,5.93,5.92
38.19,6.74,0.83,6.73,0.82,-0.80,-0.85,-0.71,5.94,5.93,5.91
38.57,6.74,0.82,6.74,0.82,-0.82,-0.86,-0.71,5.92,5.92,5.92
38.95,6.74,0.81,6.76,0.83,-0.84,-0.87,-0.71,5.90,5.91,5.93
39.34,6.77,0.85,6.78,0.85,-0.86,-0.88,-0.72,5.91,5.92,5.92
39.74,6.81,0.89,6.81,0.88,-0.88,-0.89,-0.72,5.93,5.93,5.92
40.14,6.83,0.91,6.82,0.91,-0.90,-0.91,-0.72,5.93,5.92,5.92
40.54,6.83,0.91,6.83,0.92,-0.92,-0.92,-0.72,5.91,5.91,5.92
40.94,6.83,0.92,6.85,0.94,-0.95,-0.93,-0.73,5.89,5.90,5.91
41.35,6.87,0.96,6.87,0.97,-0.97,-0.95,-0.73,5.90,5.90,5.91
41.76,6.91,1.01,6.90,1.00,-0.99,-0.96,-0.74,5.92,5.91,5.90
42.18,6.93,1.03,6.93,1.03,-1.01,-0.98,-0.74,5.92,5.91,5.90
42.60,6.93,1.04,6.94,1.05,-1.03,-1.00,-0.75,5.90,5.90,5.89
43.03,6.93,1.05,6.93,1.05,-1.05,-1.01,-0.76,5.88,5.88,5.88
43.46,6.93,1.06,6.93,1.07,-1.07,-1.03,-0.76,5.86,5.86,5.87
43.90,6.93,1.08,6.93,1.08,-1.09,-1.05,-0.77,5.84,5.84,5.85
44.33,6.93,1.10,6.93,1.10,-1.11,-1.07,-0.78,5.82,5.82,5.83
44.78,6.93,1.12,6.94,1.12,-1.14,-1.09,-0.79,5.79,5.80,5.81
45.23,6.95,1.15,6.96,1.16,-1.16,-1.10,-0.80,5.79,5.79,5.80
45.68,6.98,1.19,6.98,1.19,-1.19,-1.12,-0.81,5.79,5.79,5.79
46.13,7.01,1.24,7.01,1.23,-1.22,-1.14,-0.82,5.79,5.79,5.77
46.60,7.02,1.25,7.02,1.26,-1.24,-1.16,-0.83,5.78,5.78,5.77
47.06,7.03,1.28,7.03,1.28,-1.27,-1.18,-0.84,5.76,5.76,5.75
47.53,7.03,1.29,7.03,1.29,-1.29,-1.20,-0.85,5.74,5.74,5.74
48.01,7.03,1.29,7.03,1.30,-1.31,-1.21,-0.86,5.73,5.73,5.74
48.49,7.03,1.31,7.03,1.31,-1.33,-1.23,-0.88,5.71,5.71,5.72
48.97,7.03,1.33,7.03,1.33,-1.34,-1.24,-0.89,5.69,5.69,5.70
49.46,7.03,1.35,7.03,1.35,-1.36,-1.25,-0.91,5.67,5.67,5.68
49.96,7.03,1.37,7.03,1.37,-1.37,-1.26,-0.92,5.66,5.66,5.66
50.46,7.03,1.38,7.03,1.38,-1.38,-1.27,-0.94,5.65,5.65,5.65
50.96,7.03,1.39,7.04,1.40,-1.39,-1.28,-0.95,5.65,5.65,5.64
51.47,7.03,1.41,7.03,1.41,-1.39,-1.29,-0.97,5.64,5.65,5.62
51.99,7.03,1.42,7.02,1.40,-1.39,-1.29,-0.98,5.65,5.63,5.61
52.51,6.98,1.38,6.99,1.38,-1.38,-1.29,-1.00,5.60,5.60,5.60
53.03,6.94,1.34,6.96,1.36,-1.38,-1.29,-1.02,5.56,5.57,5.60
53.56,6.93,1.35,6.93,1.35,-1.38,-1.29,-1.03,5.55,5.55,5.58
54.10,6.93,1.36,6.93,1.36,-1.38,-1.28,-1.05,5.55,5.55,5.57
54.64,6.93,1.38,6.93,1.38,-1.38,-1.28,-1.07,5.56,5.56,5.55
55.18,6.93,1.38,6.94,1.39,-1.38,-1.27,-1.09,5.55,5.56,5.55
55.74,6.93,1.40,6.93,1.40,-1.38,-1.27,-1.11,5.55,5.55,5.53
56.29,6.92,1.40,6.92,1.40,-1.39,-1.26,-1.12,5.53,5.53,5.52
56.86,6.89,1.38,6.89,1.39,-1.39,-1.25,-1.14,5.50,5.50,5.51
57.42,6.86,1.38,6.87,1.38,-1.38,-1.25,-1.16,5.48,5.48,5.48
58.00,6.83,1.36,6.85,1.38,-1.37,-1.24,-1.18,5.46,5.47,5.47
58.58,6.83,1.37,6.83,1.37,-1.36,-1.23,-1.20,5.47,5.47,5.46
59.16,6.81,1.37,6.80,1.36,-1.35,-1.22,-1.21,5.46,5.45,5.44
59.76,6.75,1.33,6.75,1.34,-1.34,-1.22,-1.23,5.41,5.41,5.42
60.35,6.69,1.31,6.70,1.32,-1.34,-1.21,-1.25,5.36,5.36,5.38
60.96,6.63,1.29,6.66,1.31,-1.34,-1.20,-1.27,5.30,5.32,5.34
61.57,6.63,1.33,6.63,1.33,-1.34,-1.20,-1.28,5.30,5.29,5.30
62.18,6.61,1.35,6.60,1.34,-1.34,-1.20,-1.30,5.28,5.26,5.26
62.80,6.55,1.34,6.55,1.34,-1.33,-1.19,-1.32,5.22,5.22,5.21
63.43,6.49,1.32,6.50,1.34,-1.32,-1.19,-1.34,5.17,5.18,5.17
64.07,6.43,1.31,6.47,1.35,-1.31,-1.19,-1.35,5.12,5.16,5.12
64.71,6.45,1.37,6.41,1.33,-1.30,-1.19,-1.37,5.15,5.11,5.08
65.35,6.36,1.32,6.32,1.29,-1.30,-1.19,-1.39,5.07,5.03,5.04
66.01,6.18,1.19,6.22,1.23,-1.28,-1.19,-1.40,4.90,4.94,4.99
66.67,6.11,1.17,6.15,1.21,-1.26,-1.19,-1.42,4.85,4.88,4.94
67.33,6.11,1.22,6.13,1.24,-1.24,-1.20,-1.44,4.87,4.89,4.89
68.01,6.18,1.33,6.13,1.28,-1.22,-1.20,-1.45,4.96,4.91,4.85
68.69,6.08,1.28,6.07,1.27,-1.21,-1.21,-1.47,4.88,4.86,4.80
69.37,5.95,1.20,5.96,1.21,-1.20,-1.21,-1.49,4.75,4.76,4.75
70.07,5.81,1.11,5.84,1.14,-1.19,-1.22,-1.50,4.62,4.65,4.70
70.77,5.75,1.10,5.76,1.11,-1.17,-1.23,-1.52,4.58,4.59,4.65
71.48,5.73,1.13,5.73,1.14,-1.15,-1.24,-1.54,4.58,4.58,4.60
72.19,5.71,1.18,5.71,1.17,-1.12,-1.25,-1.56,4.59,4.58,4.53
72.91,5.66,1.19,5.65,1.17,-1.11,-1.27,-1.58,4.56,4.54,4.47
73.64,5.55,1.13,5.52,1.11,-1.10,-1.28,-1.60,4.45,4.42,4.42
74.38,5.40,1.04,5.42,1.06,-1.11,-1.30,-1.63,4.29,4.31,4.36
75.12,5.27,0.97,5.36,1.06,-1.13,-1.31,-1.65,4.15,4.23,4.30
75.87,5.41,1.17,5.34,1.09,-1.14,-1.33,-1.67,4.27,4.19,4.24
76.63,5.35,1.16,5.34,1.15,-1.15,-1.35,-1.70,4.20,4.18,4.19
77.40,5.30,1.16,5.33,1.20,-1.16,-1.37,-1.72,4.14,4.17,4.14
78.17,5.28,1.20,5.30,1.21,-1.17,-1.39,-1.75,4.12,4.13,4.08
78.95,5.27,1.23,5.26,1.23,-1.17,-1.42,-1.78,4.10,4.09,4.04
79.74,5.23,1.24,5.19,1.20,-1.16,-1.44,-1.81,4.07,4.03,3.99
80.54,5.07,1.13,5.09,1.15,-1.14,-1.47,-1.84,3.93,3.95,3.94
81.35,4.94,1.05,4.98,1.09,-1.12,-1.50,-1.88,3.83,3.86,3.89
82.16,4.90,1.06,4.88,1.03,-1.08,-1.53,-1.91,3.82,3.79,3.84
82.98,4.81,1.01,4.83,1.03,-1.05,-1.56,-1.95,3.76,3.77,3.80
83.81,4.78,1.03,4.79,1.04,-1.03,-1.60,-1.99,3.75,3.76,3.75
84.65,4.76,1.06,4.74,1.04,-1.02,-1.64,-2.03,3.74,3.72,3.70
85.50,4.70,1.04,4.70,1.04,-1.02,-1.68,-2.07,3.68,3.68,3.66
86.35,4.64,1.03,4.66,1.05,-1.05,-1.72,-2.11,3.60,3.61,3.61
87.22,4.62,1.06,4.62,1.06,-1.09,-1.76,-2.16,3.54,3.54,3.56
88.09,4.62,1.11,4.62,1.11,-1.13,-1.81,-2.20,3.49,3.49,3.51
88.97,4.62,1.17,4.63,1.17,-1.18,-1.86,-2.25,3.44,3.45,3.45
89.86,4.65,1.25,4.66,1.26,-1.24,-1.91,-2.30,3.41,3.41,3.40
90.76,4.70,1.35,4.71,1.36,-1.33,-1.97,-2.36,3.37,3.38,3.35
91.66,4.78,1.48,4.77,1.47,-1.45,-2.03,-2.41,3.34,3.32,3.30
92.58,4.83,1.59,4.80,1.56,-1.59,-2.09,-2.47,3.25,3.22,3.24
93.51,4.84,1.65,4.86,1.66,-1.74,-2.16,-2.52,3.10,3.11,3.19
94.44,4.92,1.77,4.98,1.84,-1.91,-2.23,-2.58,3.01,3.07,3.15
95.39,5.16,2.06,5.17,2.07,-2.09,-2.30,-2.64,3.08,3.08,3.10
96.34,5.42,2.37,5.37,2.32,-2.26,-2.38,-2.70,3.16,3.11,3.05
97.30,5.55,2.55,5.54,2.54,-2.44,-2.46,-2.76,3.11,3.10,3.00
98.28,5.62,2.67,5.64,2.68,-2.63,-2.55,-2.83,2.99,3.01,2.95
99.26,5.69,2.78,5.71,2.80,-2.82,-2.64,-2.89,2.88,2.89,2.91
100.25,5.79,2.93,5.79,2.93,-2.99,-2.73,-2.96,2.80,2.79,2.86
101.25,5.88,3.07,5.88,3.07,-3.15,-2.83,-3.02,2.74,2.73,2.81
102.27,5.98,3.22,6.00,3.24,-3.26,-2.93,-3.09,2.72,2.73,2.76
103.29,6.10,3.39,6.13,3.42,-3.35,-3.03,-3.16,2.75,2.78,2.71
104.32,6.24,3.57,6.21,3.55,-3.43,-3.14,-3.22,2.81,2.78,2.67
105.37,6.30,3.68,6.22,3.60,-3.51,-3.25,-3.29,2.80,2.72,2.62
106.42,6.11,3.54,6.18,3.62,-3.57,-3.37,-3.35,2.54,2.61,2.57
107.48,6.07,3.56,6.08,3.57,-3.62,-3.49,-3.42,2.45,2.46,2.51
108.56,6.07,3.61,6.00,3.55,-3.68,-3.60,-3.48,2.40,2.33,2.46
109.64,5.96,3.55,6.06,3.65,-3.74,-3.72,-3.54,2.23,2.32,2.41
110.74,6.11,3.76,6.16,3.81,-3.82,-3.84,-3.59,2.30,2.35,2.35
111.85,6.35,4.04,6.23,3.92,-3.92,-3.96,-3.65,2.44,2.31,2.31
112.97,6.35,4.10,6.28,4.03,-4.03,-4.07,-3.70,2.32,2.25,2.25
114.10,6.18,3.98,6.33,4.13,-4.16,-4.18,-3.75,2.02,2.17,2.20
115.24,6.38,4.23,6.47,4.32,-4.29,-4.28,-3.79,2.09,2.18,2.15
116.39,6.68,4.58,6.56,4.46,-4.41,-4.37,-3.83,2.28,2.15,2.10
117.55,6.79,4.73,6.60,4.54,-4.49,-4.45,-3.86,2.30,2.11,2.06
118.73,6.37,4.35,6.60,4.58,-4.57,-4.53,-3.89,1.81,2.04,2.02
119.92,6.50,4.51,6.59,4.60,-4.63,-4.58,-3.91,1.87,1.96,1.99
121.12,6.78,4.83,6.61,4.66,-4.69,-4.63,-3.93,2.09,1.92,1.95
122.33,6.66,4.74,6.63,4.71,-4.72,-4.65,-3.94,1.94,1.90,1.92
123.55,6.52,4.63,6.58,4.69,-4.72,-4.67,-3.95,1.80,1.86,1.89
124.79,6.40,4.54,6.53,4.67,-4.70,-4.66,-3.94,1.71,1.84,1.86
126.03,6.64,4.81,6.56,4.72,-4.65,-4.64,-3.94,1.99,1.90,1.83
127.29,6.56,4.75,6.49,4.69,-4.59,-4.60,-3.92,1.97,1.90,1.81
128.57,6.37,4.60,6.35,4.57,-4.50,-4.55,-3.90,1.87,1.84,1.77
129.85,5.99,4.25,6.10,4.36,-4.39,-4.47,-3.87,1.60,1.71,1.74
131.15,5.90,4.19,5.89,4.19,-4.26,-4.39,-3.84,1.64,1.64,1.71
132.46,5.76,4.08,5.74,4.06,-4.11,-4.29,-3.79,1.65,1.63,1.68
133.79,5.62,3.97,5.63,3.98,-3.96,-4.19,-3.75,1.67,1.67,1.65
135.12,5.47,3.85,5.45,3.83,-3.80,-4.08,-3.70,1.68,1.66,1.62
136.48,5.28,3.68,5.26,3.67,-3.65,-3.96,-3.64,1.64,1.61,1.60
137.84,5.03,3.47,5.07,3.51,-3.52,-3.83,-3.58,1.51,1.55,1.56
139.22,4.89,3.36,4.91,3.38,-3.41,-3.70,-3.52,1.49,1.51,1.53
140.61,4.79,3.29,4.78,3.28,-3.31,-3.57,-3.45,1.49,1.47,1.50
142.02,4.71,3.23,4.67,3.19,-3.22,-3.44,-3.38,1.50,1.45,1.48
143.44,4.52,3.07,4.56,3.12,-3.14,-3.31,-3.31,1.38,1.42,1.45
144.87,4.45,3.04,4.49,3.07,-3.09,-3.18,-3.23,1.36,1.40,1.41
146.32,4.44,3.07,4.42,3.05,-3.05,-3.06,-3.15,1.39,1.37,1.37
147.78,4.40,3.06,4.36,3.03,-3.02,-2.93,-3.08,1.38,1.35,1.34
149.26,4.25,2.96,4.28,2.99,-2.99,-2.81,-3.00,1.26,1.29,1.29
150.75,4.15,2.92,4.17,2.94,-2.95,-2.69,-2.91,1.20,1.21,1.23
152.26,4.05,2.89,4.04,2.87,-2.89,-2.58,-2.83,1.16,1.14,1.16
153.78,3.90,2.81,3.91,2.82,-2.81,-2.47,-2.75,1.10,1.11,1.09
155.32,3.73,2.71,3.74,2.73,-2.68,-2.36,-2.67,1.06,1.06,1.02
156.88,3.55,2.61,3.51,2.57,-2.50,-2.26,-2.59,1.06,1.02,0.94
158.44,3.22,2.36,3.24,2.38,-2.27,-2.16,-2.50,0.95,0.97,0.86
160.03,2.90,2.12,2.91,2.13,-2.01,-2.07,-2.42,0.89,0.90,0.78
161.63,2.56,1.85,2.53,1.82,-1.74,-1.98,-2.34,0.82,0.79,0.71
163.24,2.15,1.50,2.16,1.51,-1.49,-1.89,-2.26,0.66,0.67,0.65
164.88,1.80,1.20,1.81,1.21,-1.29,-1.81,-2.18,0.51,0.51,0.60
166.53,1.54,0.99,1.53,0.98,-1.18,-1.73,-2.11,0.37,0.35,0.55
168.19,1.38,0.87,1.42,0.91,-1.15,-1.66,-2.03,0.23,0.27,0.51
169.87,1.43,0.96,1.49,1.01,-1.22,-1.59,-1.95,0.22,0.27,0.47
171.57,1.74,1.29,1.71,1.26,-1.36,-1.52,-1.88,0.38,0.35,0.45
173.29,2.04,1.60,2.03,1.59,-1.57,-1.45,-1.81,0.48,0.46,0.44
175.02,2.34,1.91,2.35,1.92,-1.79,-1.39,-1.73,0.55,0.56,0.43
176.77,2.61,2.19,2.60,2.18,-2.02,-1.33,-1.66,0.60,0.59,0.42
178.54,2.80,2.39,2.78,2.37,-2.21,-1.28,-1.59,0.60,0.58,0.41
180.32,2.86,2.44,2.86,2.44,-2.34,-1.22,-1.53,0.53,0.53,0.42
182.13,2.86,2.43,2.86,2.43,-2.40,-1.17,-1.46,0.46,0.45,0.43
183.95,2.78,2.36,2.79,2.37,-2.40,-1.12,-1.39,0.38,0.39,0.42
185.79,2.70,2.28,2.71,2.29,-2.35,-1.08,-1.33,0.35,0.36,0.42
187.65,2.62,2.22,2.62,2.22,-2.27,-1.03,-1.27,0.36,0.36,0.40
189.52,2.52,2.13,2.53,2.14,-2.16,-0.99,-1.21,0.36,0.37,0.39
191.42,2.43,2.06,2.42,2.06,-2.04,-0.95,-1.15,0.39,0.38,0.37
193.33,2.30,1.95,2.29,1.94,-1.92,-0.91,-1.09,0.38,0.37,0.35
195.27,2.14,1.81,2.15,1.82,-1.81,-0.87,-1.03,0.34,0.34,0.33
197.22,1.98,1.67,2.00,1.69,-1.69,-0.83,-0.97,0.29,0.31,0.31
199.19,1.85,1.56,1.85,1.56,-1.58,-0.80,-0.92,0.28,0.27,0.29
201.18,1.73,1.46,1.71,1.44,-1.47,-0.76,-0.86,0.26,0.24,0.27
203.19,1.57,1.32,1.59,1.34,-1.37,-0.73,-0.81,0.20,0.22,0.25
205.23,1.47,1.24,1.48,1.24,-1.28,-0.70,-0.76,0.19,0.20,0.23
207.28,1.39,1.17,1.39,1.18,-1.19,-0.67,-0.71,0.20,0.20,0.22
209.35,1.31,1.11,1.32,1.13,-1.10,-0.64,-0.66,0.21,0.22,0.20
211.44,1.26,1.09,1.24,1.06,-1.02,-0.61,-0.61,0.25,0.22,0.17
213.56,1.13,0.97,1.13,0.97,-0.93,-0.58,-0.56,0.20,0.20,0.16
215.69,0.99,0.84,1.00,0.85,-0.84,-0.56,-0.52,0.15,0.16,0.15
217.85,0.86,0.72,0.86,0.72,-0.74,-0.53,-0.47,0.12,0.11,0.14
220.03,0.72,0.59,0.73,0.61,-0.63,-0.51,-0.43,0.09,0.10,0.13
222.23,0.62,0.52,0.63,0.52,-0.52,-0.48,-0.39,0.11,0.11,0.10
224.45,0.54,0.43,0.53,0.43,-0.40,-0.46,-0.34,0.14,0.13,0.11
226.70,0.44,0.33,0.44,0.33,-0.30,-0.44,-0.30,0.14,0.14,0.11
228.96,0.32,0.20,0.32,0.20,-0.21,-0.42,-0.26,0.12,0.12,0.12
231.25,0.22,0.09,0.22,0.09,-0.12,-0.39,-0.23,0.10,0.09,0.13
233.57,0.12,-0.02,0.15,0.01,-0.05,-0.37,-0.19,0.07,0.10,0.14
235.90,0.11,-0.04,0.12,-0.03,0.02,-0.35,-0.16,0.13,0.14,0.15
238.26,0.13,-0.03,0.12,-0.05,0.07,-0.33,-0.12,0.21,0.19,0.16
240.64,0.13,-0.06,0.11,-0.07,0.11,-0.31,-0.09,0.25,0.23,0.19
243.05,0.09,-0.13,0.10,-0.11,0.13,-0.29,-0.06,0.23,0.23,0.22
245.48,0.08,-0.16,0.09,-0.15,0.13,-0.27,-0.03,0.21,0.22,0.24
247.93,0.11,-0.16,0.11,-0.15,0.10,-0.25,0.00,0.22,0.22,0.27
250.41,0.17,-0.12,0.18,-0.12,0.07,-0.23,0.03,0.24,0.24,0.29
252.92,0.26,-0.06,0.26,-0.05,0.02,-0.21,0.05,0.28,0.29,0.32
255.45,0.37,0.03,0.37,0.04,-0.03,-0.19,0.08,0.34,0.34,0.34
258.00,0.48,0.12,0.49,0.13,-0.09,-0.18,0.10,0.39,0.40,0.36
260.58,0.59,0.21,0.58,0.19,-0.15,-0.16,0.12,0.44,0.42,0.38
263.19,0.65,0.24,0.64,0.24,-0.21,-0.14,0.15,0.45,0.44,0.41
265.82,0.66,0.23,0.69,0.26,-0.24,-0.12,0.17,0.42,0.45,0.43
268.48,0.72,0.27,0.71,0.26,-0.26,-0.10,0.19,0.46,0.45,0.45
271.16,0.74,0.26,0.74,0.26,-0.26,-0.08,0.20,0.48,0.48,0.48
273.87,0.74,0.24,0.76,0.26,-0.25,-0.06,0.22,0.49,0.51,0.50
276.61,0.78,0.25,0.76,0.23,-0.23,-0.04,0.24,0.55,0.53,0.53
279.38,0.75,0.19,0.76,0.20,-0.20,-0.02,0.26,0.55,0.55,0.56
282.17,0.74,0.16,0.75,0.17,-0.18,0.01,0.27,0.56,0.58,0.58
284.99,0.75,0.13,0.75,0.14,-0.16,0.03,0.29,0.60,0.59,0.62
287.84,0.76,0.12,0.76,0.12,-0.14,0.05,0.30,0.63,0.63,0.64
290.72,0.77,0.10,0.77,0.10,-0.12,0.08,0.32,0.66,0.66,0.67
293.63,0.78,0.08,0.78,0.08,-0.09,0.10,0.33,0.69,0.69,0.70
296.57,0.79,0.06,0.80,0.07,-0.07,0.13,0.35,0.73,0.73,0.73
299.53,0.80,0.04,0.81,0.05,-0.03,0.16,0.36,0.77,0.77,0.76
302.53,0.82,0.04,0.81,0.02,0.00,0.19,0.37,0.83,0.81,0.78
305.55,0.78,-0.04,0.78,-0.03,0.05,0.22,0.39,0.83,0.84,0.82
308.61,0.74,-0.10,0.73,-0.11,0.11,0.26,0.40,0.85,0.84,0.84
311.69,0.66,-0.21,0.68,-0.19,0.18,0.29,0.42,0.84,0.85,0.87
314.81,0.61,-0.28,0.62,-0.27,0.25,0.33,0.43,0.87,0.87,0.89
317.96,0.57,-0.34,0.57,-0.34,0.34,0.38,0.44,0.91,0.91,0.91
321.14,0.50,-0.42,0.51,-0.41,0.43,0.42,0.46,0.94,0.94,0.92
324.35,0.44,-0.50,0.43,-0.51,0.53,0.47,0.47,0.97,0.95,0.94
327.59,0.33,-0.62,0.33,-0.62,0.62,0.53,0.49,0.95,0.95,0.95
330.87,0.21,-0.75,0.23,-0.73,0.71,0.59,0.50,0.92,0.94,0.96
334.18,0.14,-0.84,0.15,-0.83,0.80,0.65,0.52,0.94,0.94,0.98
337.52,0.08,-0.91,0.08,-0.91,0.90,0.72,0.54,0.98,0.97,0.99
340.90,0.01,-0.99,0.01,-0.99,1.00,0.80,0.55,1.01,1.01,1.00
344.30,-0.07,-1.08,-0.07,-1.08,1.11,0.88,0.57,1.04,1.04,1.01
347.75,-0.18,-1.19,-0.17,-1.18,1.22,0.98,0.59,1.05,1.05,1.01
351.23,-0.29,-1.31,-0.29,-1.30,1.34,1.08,0.61,1.05,1.05,1.02
354.74,-0.41,-1.42,-0.42,-1.44,1.45,1.19,0.62,1.04,1.03,1.01
358.28,-0.57,-1.59,-0.56,-1.58,1.56,1.30,0.64,0.99,1.00,1.02
361.87,-0.71,-1.73,-0.69,-1.71,1.66,1.43,0.66,0.96,0.97,1.02
365.49,-0.79,-1.82,-0.79,-1.81,1.76,1.56,0.68,0.98,0.97,1.03
369.14,-0.86,-1.88,-0.85,-1.87,1.85,1.68,0.70,1.00,1.00,1.02
372.83,-0.89,-1.91,-0.89,-1.90,1.93,1.81,0.72,1.05,1.05,1.02
376.56,-0.93,-1.94,-0.93,-1.95,2.00,1.93,0.75,1.07,1.07,1.01
380.33,-0.97,-1.99,-0.99,-2.01,2.05,2.04,0.77,1.08,1.06,1.02
384.13,-1.08,-2.10,-1.06,-2.07,2.08,2.13,0.79,1.01,1.03,1.02
387.97,-1.13,-2.14,-1.11,-2.12,2.10,2.19,0.81,0.98,0.99,1.01
391.85,-1.13,-2.13,-1.15,-2.15,2.10,2.22,0.84,0.98,0.96,1.00
395.77,-1.13,-2.14,-1.13,-2.13,2.08,2.22,0.86,0.96,0.96,1.01
399.73,-1.11,-2.11,-1.07,-2.07,2.05,2.19,0.89,0.94,0.98,1.00
403.72,-0.98,-1.98,-1.00,-2.00,1.99,2.13,0.91,1.02,0.99,1.00
407.76,-0.91,-1.89,-0.92,-1.90,1.92,2.04,0.94,1.01,1.00,0.98
411.84,-0.84,-1.82,-0.82,-1.80,1.83,1.94,0.96,0.99,1.01,0.98
415.96,-0.73,-1.71,-0.73,-1.71,1.73,1.83,0.99,1.00,1.00,0.98
420.12,-0.63,-1.61,-0.64,-1.62,1.63,1.71,1.01,1.00,0.98,0.98
424.32,-0.56,-1.54,-0.56,-1.54,1.53,1.59,1.04,0.97,0.97,0.98
428.56,-0.49,-1.48,-0.46,-1.44,1.43,1.48,1.06,0.95,0.98,0.99
432.85,-0.36,-1.36,-0.35,-1.35,1.34,1.37,1.09,0.98,0.99,1.00
437.18,-0.19,-1.20,-0.24,-1.26,1.25,1.27,1.11,1.07,1.01,1.01
441.55,-0.15,-1.20,-0.12,-1.17,1.17,1.18,1.14,1.03,1.05,1.05
445.96,-0.05,-1.13,-0.01,-1.09,1.10,1.10,1.16,1.06,1.09,1.08
450.42,0.11,-1.00,0.08,-1.04,1.05,1.02,1.18,1.16,1.13,1.11
454.93,0.18,-0.98,0.18,-0.97,1.01,0.95,1.21,1.19,1.19,1.16
459.48,0.24,-0.96,0.25,-0.95,0.97,0.89,1.23,1.22,1.23,1.20
464.07,0.30,-0.95,0.30,-0.95,0.95,0.84,1.25,1.26,1.25,1.25
468.71,0.35,-0.96,0.36,-0.94,0.94,0.79,1.27,1.29,1.30,1.31
473.40,0.42,-0.93,0.41,-0.94,0.92,0.75,1.29,1.34,1.33,1.35
478.13,0.47,-0.94,0.47,-0.93,0.90,0.71,1.31,1.38,1.37,1.41
482.91,0.52,-0.93,0.55,-0.90,0.88,0.68,1.33,1.41,1.44,1.45
487.74,0.63,-0.86,0.63,-0.86,0.86,0.65,1.34,1.50,1.49,1.49
492.62,0.74,-0.80,0.70,-0.84,0.84,0.62,1.36,1.58,1.54,1.54
497.55,0.74,-0.82,0.77,-0.79,0.81,0.60,1.37,1.55,1.58,1.56
502.52,0.79,-0.80,0.83,-0.76,0.76,0.58,1.39,1.56,1.60,1.59
507.55,0.91,-0.69,0.87,-0.73,0.71,0.56,1.40,1.63,1.59,1.60
512.62,0.92,-0.69,0.90,-0.72,0.67,0.55,1.41,1.59,1.56,1.61
517.75,0.89,-0.73,0.91,-0.70,0.64,0.54,1.42,1.53,1.55,1.62
522.93,0.88,-0.73,0.95,-0.66,0.63,0.52,1.43,1.51,1.58,1.61
528.16,1.00,-0.58,0.99,-0.60,0.65,0.52,1.44,1.65,1.64,1.58
533.44,1.02,-0.53,0.96,-0.59,0.70,0.51,1.44,1.72,1.66,1.55
538.77,0.85,-0.67,0.84,-0.68,0.79,0.50,1.45,1.64,1.62,1.52
544.16,0.54,-0.93,0.59,-0.88,0.91,0.50,1.46,1.46,1.50,1.47
549.60,0.33,-1.09,0.32,-1.09,1.08,0.50,1.46,1.41,1.40,1.42
