frequency,raw,error,smoothed,error_smoothed,equalization,parametric_eq,fixed_band_eq,equalized_raw,equalized_smoothed,target
20.00,-2.17,-8.77,-2.17,-8.77,8.77,8.55,2.06,6.60,6.60,6.60
20.20,-2.08,-8.68,-2.08,-8.68,8.68,8.52,2.12,6.60,6.60,6.60
20.40,-1.99,-8.59,-1.98,-8.58,8.58,8.48,2.18,6.60,6.60,6.60
20.61,-1.88,-8.48,-1.88,-8.49,8.48,8.43,2.25,6.60,6.60,6.60
20.81,-1.78,-8.38,-1.78,-8.38,8.38,8.37,2.32,6.61,6.60,6.60
21.02,-1.69,-8.29,-1.68,-8.28,8.28,8.30,2.39,6.59,6.60,6.60
21.23,-1.59,-8.17,-1.59,-8.18,8.18,8.22,2.46,6.59,6.59,6.58
21.44,-1.50,-8.07,-1.50,-8.07,8.07,8.14,2.53,6.57,6.57,6.57
21.66,-1.41,-7.96,-1.41,-7.96,7.96,8.05,2.61,6.55,6.56,6.55
21.87,-1.32,-7.85,-1.31,-7.85,7.85,7.95,2.69,6.53,6.53,6.53
22.09,-1.22,-7.74,-1.22,-7.74,7.73,7.84,2.77,6.52,6.51,6.52
22.31,-1.13,-7.62,-1.12,-7.62,7.62,7.74,2.85,6.49,6.49,6.49
22.54,-1.03,-7.50,-1.03,-7.50,7.50,7.62,2.94,6.47,6.47,6.47
22.76,-0.93,-7.38,-0.93,-7.38,7.37,7.50,3.03,6.45,6.44,6.45
22.99,-0.83,-7.25,-0.83,-7.25,7.25,7.38,3.12,6.42,6.42,6.42
23.22,-0.73,-7.12,-0.73,-7.12,7.12,7.25,3.21,6.39,6.40,6.39
23.45,-0.62,-6.98,-0.62,-6.99,7.00,7.12,3.30,6.38,6.37,6.36
23.69,-0.52,-6.87,-0.51,-6.86,6.87,6.99,3.40,6.35,6.35,6.35
23.92,-0.41,-6.74,-0.41,-6.74,6.74,6.86,3.49,6.34,6.34,6.33
24.16,-0.30,-6.62,-0.30,-6.62,6.62,6.72,3.59,6.32,6.32,6.32
24.40,-0.20,-6.50,-0.19,-6.49,6.49,6.58,3.69,6.29,6.30,6.30
24.65,-0.09,-6.37,-0.09,-6.37,6.37,6.45,3.80,6.28,6.28,6.28
24.89,0.02,-6.24,0.02,-6.24,6.24,6.31,3.90,6.26,6.26,6.26
25.14,0.13,-6.12,0.13,-6.12,6.11,6.17,4.00,6.25,6.25,6.25
25.39,0.24,-5.99,0.24,-5.99,5.99,6.03,4.11,6.23,6.23,6.23
25.65,0.35,-5.87,0.35,-5.86,5.86,5.89,4.21,6.22,6.22,6.22
25.91,0.46,-5.73,0.46,-5.74,5.74,5.75,4.32,6.20,6.20,6.19
26.16,0.56,-5.62,0.56,-5.62,5.62,5.61,4.42,6.18,6.18,6.18
26.43,0.66,-5.51,0.66,-5.50,5.50,5.47,4.53,6.17,6.17,6.17
26.69,0.76,-5.38,0.76,-5.39,5.39,5.33,4.63,6.15,6.16,6.14
26.96,0.86,-5.27,0.86,-5.28,5.28,5.19,4.73,6.14,6.14,6.13
27.23,0.95,-5.17,0.95,-5.17,5.18,5.06,4.82,6.13,6.12,6.12
27.50,1.03,-5.08,1.04,-5.07,5.07,4.92,4.92,6.10,6.11,6.11
27.77,1.12,-4.97,1.13,-4.97,4.96,4.79,5.01,6.09,6.09,6.09
28.05,1.22,-4.86,1.21,-4.87,4.86,4.65,5.09,6.08,6.07,6.08
28.33,1.30,-4.76,1.31,-4.76,4.75,4.52,5.17,6.05,6.06,6.06
28.62,1.40,-4.65,1.40,-4.65,4.64,4.39,5.24,6.04,6.04,6.05
28.90,1.50,-4.53,1.50,-4.53,4.53,4.26,5.30,6.03,6.03,6.03
29.19,1.60,-4.41,1.61,-4.41,4.42,4.14,5.36,6.02,6.02,6.01
29.48,1.71,-4.30,1.71,-4.30,4.30,4.01,5.40,6.02,6.01,6.01
29.78,1.81,-4.19,1.81,-4.19,4.19,3.89,5.44,6.00,6.00,6.00
30.08,1.91,-4.08,1.91,-4.08,4.08,3.76,5.47,5.99,5.99,5.99
30.38,2.00,-3.97,2.01,-3.97,3.96,3.64,5.49,5.97,5.97,5.97
30.68,2.11,-3.85,2.11,-3.85,3.85,3.52,5.49,5.97,5.96,5.96
30.99,2.20,-3.73,2.20,-3.74,3.74,3.40,5.49,5.94,5.94,5.93
31.30,2.29,-3.63,2.29,-3.63,3.63,3.29,5.47,5.92,5.93,5.92
31.61,2.38,-3.53,2.38,-3.53,3.52,3.17,5.44,5.91,5.90,5.91
31.93,2.47,-3.42,2.47,-3.42,3.41,3.06,5.40,5.89,5.88,5.89
32.24,2.55,-3.31,2.56,-3.31,3.31,2.95,5.35,5.86,5.86,5.86
32.57,2.65,-3.19,2.65,-3.20,3.20,2.84,5.29,5.85,5.84,5.84
32.89,2.73,-3.10,2.74,-3.09,3.09,2.73,5.21,5.82,5.83,5.83
33.22,2.82,-2.98,2.82,-2.98,2.98,2.62,5.13,5.81,5.81,5.80
33.55,2.91,-2.88,2.91,-2.88,2.88,2.51,5.04,5.79,5.79,5.79
33.89,2.99,-2.77,3.00,-2.77,2.77,2.41,4.93,5.76,5.77,5.76
34.23,3.08,-2.66,3.08,-2.66,2.67,2.30,4.82,5.75,5.75,5.74
34.57,3.16,-2.56,3.16,-2.56,2.56,2.20,4.71,5.73,5.72,5.72
34.92,3.24,-2.46,3.24,-2.46,2.46,2.10,4.58,5.70,5.70,5.70
35.27,3.32,-2.36,3.32,-2.36,2.36,2.00,4.45,5.68,5.68,5.68
35.62,3.40,-2.26,3.40,-2.26,2.26,1.90,4.32,5.66,5.66,5.66
35.97,3.48,-2.16,3.48,-2.16,2.16,1.81,4.18,5.64,5.64,5.64
36.33,3.57,-2.05,3.57,-2.06,2.05,1.71,4.03,5.63,5.62,5.62
36.70,3.64,-1.96,3.65,-1.95,1.95,1.62,3.89,5.59,5.60,5.60
37.06,3.73,-1.85,3.73,-1.85,1.85,1.52,3.74,5.58,5.58,5.58
37.43,3.82,-1.74,3.82,-1.74,1.74,1.43,3.59,5.56,5.56,5.56
37.81,3.90,-1.64,3.91,-1.63,1.63,1.34,3.43,5.54,5.54,5.54
38.19,3.99,-1.52,3.99,-1.53,1.53,1.25,3.28,5.52,5.52,5.51
38.57,4.07,-1.43,4.07,-1.42,1.42,1.16,3.12,5.50,5.50,5.50
38.95,4.15,-1.32,4.16,-1.32,1.32,1.07,2.97,5.47,5.48,5.47
39.34,4.24,-1.21,4.24,-1.21,1.22,0.98,2.81,5.46,5.46,5.45
39.74,4.32,-1.11,4.32,-1.11,1.11,0.89,2.65,5.44,5.44,5.43
40.14,4.40,-1.02,4.40,-1.02,1.01,0.81,2.50,5.42,5.42,5.42
40.54,4.48,-0.92,4.48,-0.92,0.92,0.72,2.34,5.40,5.40,5.40
40.94,4.56,-0.82,4.56,-0.82,0.82,0.64,2.19,5.38,5.38,5.38
41.35,4.64,-0.71,4.64,-0.72,0.72,0.56,2.03,5.37,5.37,5.35
41.76,4.72,-0.63,4.72,-0.62,0.63,0.47,1.88,5.35,5.35,5.35
42.18,4.79,-0.54,4.80,-0.54,0.53,0.39,1.73,5.33,5.33,5.33
42.60,4.87,-0.44,4.87,-0.45,0.44,0.31,1.58,5.31,5.31,5.31
43.03,4.94,-0.36,4.95,-0.35,0.34,0.23,1.42,5.29,5.29,5.30
43.46,5.02,-0.25,5.02,-0.25,0.25,0.15,1.27,5.27,5.27,5.27
43.90,5.10,-0.15,5.10,-0.16,0.15,0.07,1.13,5.25,5.25,5.25
44.33,5.17,-0.06,5.17,-0.06,0.06,-0.00,0.98,5.23,5.23,5.23
44.78,5.24,0.03,5.24,0.04,-0.03,-0.08,0.83,5.21,5.21,5.21
45.23,5.32,0.14,5.32,0.13,-0.13,-0.16,0.68,5.20,5.19,5.18
45.68,5.38,0.22,5.39,0.22,-0.21,-0.24,0.54,5.17,5.17,5.16
46.13,5.46,0.31,5.46,0.31,-0.30,-0.31,0.39,5.16,5.16,5.15
46.60,5.52,0.38,5.52,0.39,-0.39,-0.39,0.25,5.14,5.14,5.14
47.06,5.59,0.47,5.59,0.47,-0.47,-0.46,0.11,5.12,5.12,5.12
47.53,5.65,0.55,5.65,0.55,-0.56,-0.54,-0.04,5.10,5.10,5.10
48.01,5.72,0.63,5.72,0.63,-0.64,-0.61,-0.18,5.08,5.08,5.09
48.49,5.78,0.72,5.78,0.72,-0.73,-0.68,-0.32,5.06,5.06,5.06
48.97,5.84,0.81,5.84,0.81,-0.81,-0.76,-0.46,5.03,5.03,5.03
49.46,5.90,0.90,5.90,0.90,-0.90,-0.83,-0.59,5.01,5.01,5.00
49.96,5.96,0.99,5.97,0.99,-0.98,-0.90,-0.73,4.98,4.98,4.97
50.46,6.03,1.07,6.03,1.07,-1.07,-0.97,-0.87,4.96,4.96,4.96
50.96,6.09,1.15,6.09,1.15,-1.15,-1.04,-1.00,4.94,4.94,4.94
51.47,6.15,1.24,6.15,1.23,-1.23,-1.12,-1.14,4.92,4.92,4.91
51.99,6.20,1.31,6.20,1.31,-1.31,-1.19,-1.27,4.89,4.89,4.89
52.51,6.26,1.39,6.26,1.39,-1.39,-1.26,-1.40,4.87,4.87,4.87
53.03,6.31,1.46,6.32,1.47,-1.47,-1.33,-1.53,4.84,4.85,4.85
53.56,6.37,1.55,6.37,1.55,-1.55,-1.40,-1.65,4.82,4.82,4.82
54.10,6.43,1.63,6.43,1.63,-1.63,-1.47,-1.78,4.81,4.80,4.80
54.64,6.47,1.70,6.48,1.71,-1.70,-1.54,-1.90,4.77,4.78,4.77
55.18,6.53,1.78,6.53,1.78,-1.78,-1.60,-2.02,4.75,4.75,4.75
55.74,6.58,1.86,6.58,1.86,-1.86,-1.67,-2.14,4.72,4.72,4.72
56.29,6.63,1.93,6.63,1.93,-1.93,-1.74,-2.25,4.70,4.70,4.70
56.86,6.68,2.01,6.68,2.01,-2.01,-1.81,-2.36,4.68,4.68,4.67
57.42,6.73,2.08,6.73,2.08,-2.08,-1.88,-2.47,4.65,4.65,4.65
58.00,6.78,2.15,6.78,2.15,-2.15,-1.95,-2.57,4.63,4.63,4.63
58.58,6.82,2.22,6.83,2.22,-2.22,-2.02,-2.67,4.60,4.61,4.60
59.16,6.87,2.29,6.87,2.29,-2.29,-2.08,-2.76,4.58,4.58,4.58
59.76,6.91,2.35,6.91,2.35,-2.36,-2.15,-2.85,4.55,4.56,4.56
60.35,6.96,2.43,6.96,2.42,-2.43,-2.22,-2.94,4.53,4.53,4.53
60.96,6.99,2.48,7.00,2.49,-2.50,-2.29,-3.02,4.49,4.50,4.51
61.57,7.04,2.57,7.04,2.57,-2.57,-2.35,-3.10,4.48,4.47,4.47
62.18,7.08,2.64,7.08,2.64,-2.63,-2.42,-3.17,4.45,4.44,4.44
62.80,7.11,2.70,7.12,2.71,-2.70,-2.49,-3.23,4.41,4.42,4.41
63.43,7.15,2.77,7.15,2.77,-2.76,-2.56,-3.30,4.39,4.39,4.38
64.07,7.18,2.83,7.18,2.83,-2.82,-2.62,-3.35,4.36,4.36,4.35
64.71,7.22,2.89,7.22,2.88,-2.88,-2.69,-3.41,4.34,4.33,4.33
65.35,7.24,2.93,7.24,2.93,-2.94,-2.76,-3.46,4.30,4.30,4.31
66.01,7.27,2.98,7.28,2.99,-3.00,-2.82,-3.50,4.28,4.28,4.29
66.67,7.31,3.05,7.31,3.05,-3.05,-2.89,-3.54,4.26,4.26,4.26
67.33,7.35,3.11,7.35,3.11,-3.10,-2.96,-3.58,4.25,4.24,4.24
68.01,7.37,3.16,7.38,3.16,-3.16,-3.02,-3.62,4.21,4.22,4.21
68.69,7.40,3.21,7.40,3.22,-3.21,-3.09,-3.65,4.19,4.19,4.19
69.37,7.43,3.27,7.43,3.27,-3.27,-3.16,-3.68,4.16,4.16,4.16
70.07,7.46,3.33,7.46,3.33,-3.32,-3.22,-3.71,4.14,4.14,4.13
70.77,7.49,3.38,7.49,3.38,-3.38,-3.29,-3.74,4.11,4.11,4.11
71.48,7.51,3.43,7.51,3.43,-3.44,-3.36,-3.76,4.08,4.08,4.08
72.19,7.53,3.48,7.54,3.49,-3.49,-3.42,-3.79,4.04,4.05,4.05
72.91,7.57,3.56,7.56,3.55,-3.55,-3.49,-3.81,4.02,4.01,4.01
73.64,7.59,3.61,7.59,3.61,-3.61,-3.56,-3.84,3.98,3.98,3.98
74.38,7.61,3.66,7.62,3.67,-3.67,-3.62,-3.86,3.94,3.95,3.95
75.12,7.64,3.74,7.64,3.73,-3.73,-3.69,-3.89,3.91,3.91,3.90
75.87,7.66,3.79,7.66,3.79,-3.79,-3.76,-3.91,3.87,3.87,3.87
76.63,7.68,3.84,7.68,3.85,-3.85,-3.82,-3.94,3.84,3.84,3.84
77.40,7.70,3.90,7.70,3.91,-3.91,-3.89,-3.97,3.80,3.80,3.80
78.17,7.72,3.98,7.72,3.97,-3.97,-3.96,-4.00,3.76,3.76,3.74
78.95,7.74,4.02,7.74,4.03,-4.03,-4.02,-4.03,3.72,3.72,3.72
79.74,7.76,4.08,7.76,4.09,-4.09,-4.09,-4.07,3.67,3.67,3.68
80.54,7.78,4.15,7.78,4.15,-4.15,-4.16,-4.10,3.63,3.63,3.63
81.35,7.80,4.21,7.80,4.21,-4.21,-4.22,-4.14,3.59,3.59,3.59
82.16,7.82,4.28,7.82,4.28,-4.28,-4.29,-4.19,3.55,3.55,3.54
82.98,7.84,4.34,7.84,4.34,-4.34,-4.36,-4.23,3.50,3.50,3.50
83.81,7.86,4.42,7.86,4.41,-4.40,-4.43,-4.28,3.46,3.45,3.44
84.65,7.86,4.46,7.87,4.47,-4.47,-4.49,-4.33,3.39,3.40,3.40
85.50,7.89,4.53,7.89,4.53,-4.53,-4.56,-4.38,3.36,3.35,3.36
86.35,7.90,4.59,7.90,4.59,-4.60,-4.63,-4.44,3.31,3.30,3.31
87.22,7.91,4.65,7.92,4.66,-4.66,-4.69,-4.50,3.25,3.26,3.26
88.09,7.94,4.74,7.94,4.73,-4.72,-4.76,-4.57,3.22,3.21,3.20
88.97,7.95,4.79,7.95,4.79,-4.79,-4.83,-4.63,3.16,3.16,3.16
89.86,7.96,4.85,7.96,4.86,-4.85,-4.89,-4.71,3.11,3.11,3.11
90.76,7.97,4.92,7.98,4.92,-4.92,-4.96,-4.78,3.05,3.06,3.05
91.66,7.99,4.99,7.99,4.99,-4.99,-5.03,-4.86,3.01,3.00,3.00
92.58,8.00,5.06,8.00,5.05,-5.05,-5.10,-4.94,2.95,2.95,2.94
93.51,8.01,5.11,8.02,5.12,-5.12,-5.16,-5.03,2.89,2.90,2.90
94.44,8.03,5.18,8.03,5.18,-5.19,-5.23,-5.11,2.85,2.84,2.85
95.39,8.04,5.25,8.04,5.25,-5.26,-5.30,-5.21,2.79,2.79,2.79
96.34,8.05,5.33,8.05,5.32,-5.33,-5.37,-5.30,2.73,2.73,2.72
97.30,8.06,5.39,8.07,5.40,-5.40,-5.43,-5.40,2.67,2.67,2.67
98.28,8.08,5.47,8.08,5.47,-5.47,-5.50,-5.50,2.61,2.61,2.61
99.26,8.09,5.55,8.09,5.54,-5.54,-5.57,-5.60,2.55,2.55,2.54
100.25,8.10,5.61,8.10,5.61,-5.61,-5.63,-5.71,2.49,2.49,2.49
101.25,8.11,5.68,8.11,5.69,-5.69,-5.70,-5.81,2.43,2.43,2.43
102.27,8.12,5.76,8.12,5.76,-5.76,-5.77,-5.92,2.36,2.36,2.36
103.29,8.13,5.84,8.13,5.83,-5.83,-5.84,-6.04,2.30,2.30,2.29
104.32,8.14,5.90,8.14,5.90,-5.90,-5.90,-6.15,2.24,2.24,2.24
105.37,8.15,5.97,8.15,5.97,-5.97,-5.97,-6.26,2.18,2.17,2.18
106.42,8.15,6.04,8.16,6.04,-6.05,-6.04,-6.37,2.11,2.11,2.11
107.48,8.16,6.12,8.16,6.12,-6.12,-6.11,-6.49,2.04,2.04,2.04
108.56,8.17,6.20,8.17,6.20,-6.19,-6.17,-6.60,1.98,1.98,1.97
109.64,8.18,6.27,8.18,6.27,-6.27,-6.24,-6.71,1.92,1.91,1.91
110.74,8.18,6.33,8.19,6.34,-6.34,-6.31,-6.82,1.84,1.85,1.85
111.85,8.19,6.41,8.19,6.41,-6.42,-6.37,-6.93,1.78,1.78,1.78
112.97,8.20,6.50,8.20,6.49,-6.49,-6.44,-7.03,1.71,1.71,1.70
114.10,8.20,6.56,8.21,6.57,-6.57,-6.51,-7.13,1.64,1.64,1.64
115.24,8.21,6.64,8.21,6.64,-6.64,-6.58,-7.23,1.57,1.57,1.57
116.39,8.22,6.72,8.22,6.72,-6.71,-6.64,-7.32,1.51,1.50,1.50
117.55,8.22,6.79,8.23,6.79,-6.79,-6.71,-7.40,1.44,1.44,1.43
118.73,8.23,6.86,8.23,6.86,-6.86,-6.78,-7.48,1.37,1.37,1.37
119.92,8.24,6.93,8.24,6.93,-6.93,-6.84,-7.56,1.31,1.31,1.31
121.12,8.24,6.99,8.25,7.00,-7.00,-6.91,-7.62,1.25,1.25,1.25
122.33,8.25,7.07,8.25,7.06,-7.06,-6.98,-7.68,1.19,1.19,1.18
123.55,8.26,7.13,8.26,7.13,-7.13,-7.04,-7.73,1.13,1.13,1.13
124.79,8.27,7.20,8.27,7.20,-7.20,-7.11,-7.78,1.07,1.07,1.07
126.03,8.28,7.26,8.28,7.26,-7.27,-7.17,-7.81,1.01,1.01,1.02
127.29,8.29,7.33,8.29,7.34,-7.34,-7.24,-7.84,0.95,0.96,0.96
128.57,8.30,7.41,8.30,7.40,-7.41,-7.30,-7.86,0.90,0.90,0.89
129.85,8.32,7.48,8.32,7.48,-7.47,-7.37,-7.88,0.85,0.84,0.84
131.15,8.32,7.53,8.33,7.54,-7.54,-7.43,-7.88,0.79,0.79,0.79
132.46,8.34,7.61,8.34,7.61,-7.60,-7.50,-7.88,0.74,0.74,0.73
133.79,8.35,7.66,8.35,7.66,-7.66,-7.56,-7.88,0.69,0.69,0.69
135.12,8.36,7.73,8.36,7.72,-7.72,-7.63,-7.87,0.64,0.64,0.63
136.48,8.36,7.76,8.37,7.77,-7.77,-7.69,-7.85,0.59,0.59,0.60
137.84,8.37,7.81,8.38,7.82,-7.82,-7.76,-7.83,0.55,0.55,0.56
139.22,8.39,7.88,8.39,7.87,-7.87,-7.82,-7.81,0.52,0.52,0.51
140.61,8.40,7.93,8.40,7.92,-7.92,-7.88,-7.78,0.48,0.48,0.47
142.02,8.41,7.96,8.41,7.97,-7.96,-7.94,-7.76,0.45,0.45,0.45
143.44,8.42,8.00,8.42,8.01,-8.01,-8.01,-7.73,0.41,0.41,0.42
144.87,8.43,8.05,8.44,8.05,-8.05,-8.07,-7.70,0.38,0.38,0.38
146.32,8.45,8.10,8.45,8.09,-8.09,-8.13,-7.67,0.36,0.36,0.35
147.78,8.46,8.13,8.46,8.13,-8.13,-8.19,-7.64,0.33,0.33,0.33
149.26,8.47,8.17,8.47,8.17,-8.17,-8.25,-7.61,0.30,0.30,0.30
150.75,8.47,8.21,8.48,8.21,-8.21,-8.31,-7.59,0.26,0.27,0.26
152.26,8.49,8.25,8.49,8.25,-8.25,-8.37,-7.57,0.24,0.24,0.24
153.78,8.50,8.29,8.50,8.29,-8.28,-8.43,-7.54,0.22,0.22,0.21
155.32,8.51,8.32,8.51,8.32,-8.32,-8.49,-7.53,0.19,0.19,0.19
156.88,8.51,8.35,8.52,8.36,-8.36,-8.54,-7.51,0.15,0.16,0.16
158.44,8.52,8.39,8.52,8.39,-8.39,-8.60,-7.50,0.13,0.13,0.13
160.03,8.53,8.43,8.53,8.43,-8.43,-8.66,-7.49,0.10,0.10,0.10
161.63,8.53,8.46,8.54,8.47,-8.46,-8.71,-7.49,0.07,0.08,0.07
163.24,8.55,8.51,8.55,8.50,-8.50,-8.77,-7.49,0.05,0.05,0.04
164.88,8.56,8.54,8.56,8.54,-8.53,-8.82,-7.50,0.03,0.02,0.02
166.53,8.56,8.56,8.57,8.57,-8.57,-8.87,-7.51,-0.01,-0.00,0.00
168.19,8.57,8.61,8.57,8.61,-8.61,-8.92,-7.53,-0.03,-0.04,-0.04
169.87,8.57,8.64,8.57,8.64,-8.64,-8.98,-7.55,-0.07,-0.07,-0.07
171.57,8.58,8.68,8.58,8.68,-8.68,-9.02,-7.58,-0.10,-0.10,-0.10
173.29,8.58,8.70,8.59,8.71,-8.72,-9.07,-7.62,-0.13,-0.13,-0.12
175.02,8.60,8.76,8.60,8.75,-8.76,-9.12,-7.65,-0.15,-0.16,-0.16
176.77,8.60,8.80,8.60,8.80,-8.80,-9.17,-7.70,-0.19,-0.19,-0.20
178.54,8.60,8.84,8.61,8.84,-8.84,-9.21,-7.75,-0.24,-0.23,-0.24
180.32,8.61,8.88,8.61,8.88,-8.88,-9.26,-7.81,-0.27,-0.27,-0.27
182.13,8.61,8.91,8.61,8.91,-8.92,-9.30,-7.87,-0.31,-0.31,-0.30
183.95,8.61,8.95,8.62,8.96,-8.96,-9.34,-7.94,-0.34,-0.34,-0.34
185.79,8.62,9.00,8.62,9.00,-8.99,-9.38,-8.01,-0.37,-0.37,-0.38
187.65,8.62,9.04,8.62,9.03,-9.03,-9.42,-8.09,-0.40,-0.41,-0.42
189.52,8.61,9.06,8.62,9.07,-9.06,-9.45,-8.17,-0.45,-0.44,-0.45
191.42,8.62,9.09,8.62,9.09,-9.09,-9.49,-8.26,-0.47,-0.47,-0.47
193.33,8.62,9.11,8.62,9.11,-9.12,-9.52,-8.36,-0.50,-0.50,-0.49
195.27,8.61,9.13,8.62,9.14,-9.14,-9.55,-8.46,-0.53,-0.53,-0.52
197.22,8.61,9.16,8.61,9.17,-9.17,-9.58,-8.56,-0.56,-0.55,-0.55
199.19,8.61,9.21,8.61,9.20,-9.19,-9.61,-8.67,-0.58,-0.58,-0.60
201.18,8.61,9.22,8.61,9.22,-9.21,-9.64,-8.78,-0.60,-0.60,-0.61
203.19,8.60,9.23,8.60,9.23,-9.23,-9.66,-8.90,-0.63,-0.63,-0.63
205.23,8.59,9.24,8.60,9.24,-9.25,-9.68,-9.02,-0.65,-0.65,-0.65
207.28,8.59,9.25,8.59,9.25,-9.26,-9.70,-9.15,-0.67,-0.67,-0.66
209.35,8.58,9.27,8.59,9.27,-9.27,-9.72,-9.27,-0.69,-0.69,-0.69
211.44,8.58,9.29,8.58,9.29,-9.28,-9.74,-9.40,-0.70,-0.70,-0.71
213.56,8.57,9.30,8.57,9.29,-9.29,-9.75,-9.53,-0.72,-0.72,-0.73
215.69,8.56,9.29,8.56,9.30,-9.30,-9.76,-9.66,-0.74,-0.74,-0.73
217.85,8.55,9.29,8.56,9.30,-9.31,-9.77,-9.78,-0.75,-0.75,-0.74
220.03,8.55,9.32,8.55,9.31,-9.31,-9.77,-9.91,-0.76,-0.76,-0.77
222.23,8.54,9.32,8.54,9.31,-9.31,-9.78,-10.03,-0.77,-0.77,-0.78
224.45,8.53,9.30,8.53,9.31,-9.30,-9.78,-10.15,-0.77,-0.77,-0.77
226.70,8.52,9.30,8.52,9.30,-9.30,-9.77,-10.26,-0.77,-0.77,-0.78
228.96,8.51,9.29,8.51,9.28,-9.29,-9.77,-10.36,-0.77,-0.78,-0.78
231.25,8.49,9.26,8.50,9.26,-9.27,-9.76,-10.46,-0.78,-0.77,-0.77
233.57,8.48,9.24,8.48,9.25,-9.25,-9.75,-10.54,-0.77,-0.77,-0.76
235.90,8.46,9.22,8.46,9.22,-9.22,-9.74,-10.62,-0.76,-0.76,-0.76
238.26,8.45,9.21,8.45,9.20,-9.19,-9.72,-10.68,-0.74,-0.75,-0.76
240.64,8.42,9.16,8.43,9.17,-9.16,-9.70,-10.72,-0.74,-0.73,-0.74
243.05,8.41,9.13,8.40,9.12,-9.12,-9.68,-10.75,-0.71,-0.72,-0.72
245.48,8.37,9.07,8.38,9.08,-9.08,-9.66,-10.77,-0.71,-0.70,-0.70
247.93,8.35,9.04,8.36,9.04,-9.04,-9.63,-10.76,-0.69,-0.68,-0.69
250.41,8.33,9.01,8.33,8.99,-8.99,-9.60,-10.74,-0.66,-0.66,-0.68
252.92,8.30,8.94,8.30,8.94,-8.94,-9.57,-10.70,-0.64,-0.64,-0.64
255.45,8.26,8.88,8.27,8.89,-8.89,-9.53,-10.65,-0.63,-0.62,-0.62
258.00,8.23,8.83,8.23,8.83,-8.84,-9.49,-10.58,-0.61,-0.61,-0.60
260.58,8.21,8.79,8.21,8.79,-8.79,-9.45,-10.49,-0.58,-0.58,-0.58
263.19,8.18,8.74,8.19,8.75,-8.74,-9.41,-10.38,-0.56,-0.56,-0.56
265.82,8.17,8.71,8.17,8.70,-8.70,-9.36,-10.27,-0.53,-0.53,-0.54
268.48,8.15,8.66,8.15,8.66,-8.66,-9.31,-10.14,-0.50,-0.50,-0.51
271.16,8.14,8.62,8.14,8.62,-8.62,-9.26,-9.99,-0.48,-0.48,-0.48
273.87,8.12,8.58,8.13,8.58,-8.59,-9.20,-9.84,-0.46,-0.46,-0.46
276.61,8.12,8.55,8.12,8.56,-8.56,-9.14,-9.68,-0.44,-0.44,-0.43
279.38,8.13,8.54,8.13,8.53,-8.54,-9.08,-9.51,-0.41,-0.41,-0.41
282.17,8.13,8.52,8.14,8.52,-8.53,-9.02,-9.34,-0.40,-0.39,-0.39
284.99,8.15,8.51,8.15,8.51,-8.53,-8.95,-9.16,-0.37,-0.37,-0.36
287.84,8.18,8.52,8.19,8.52,-8.53,-8.88,-8.97,-0.35,-0.35,-0.34
290.72,8.23,8.53,8.23,8.53,-8.54,-8.81,-8.79,-0.31,-0.31,-0.30
293.63,8.28,8.56,8.28,8.55,-8.56,-8.74,-8.60,-0.28,-0.28,-0.28
296.57,8.32,8.57,8.33,8.58,-8.57,-8.66,-8.41,-0.25,-0.24,-0.25
299.53,8.37,8.59,8.37,8.59,-8.58,-8.58,-8.23,-0.21,-0.21,-0.22
302.53,8.41,8.61,8.41,8.60,-8.59,-8.50,-8.04,-0.17,-0.18,-0.20
305.55,8.43,8.58,8.44,8.59,-8.58,-8.42,-7.85,-0.15,-0.14,-0.15
308.61,8.45,8.57,8.45,8.57,-8.56,-8.33,-7.67,-0.11,-0.11,-0.12
311.69,8.45,8.53,8.45,8.53,-8.53,-8.25,-7.49,-0.08,-0.08,-0.08
314.81,8.45,8.50,8.44,8.49,-8.49,-8.16,-7.31,-0.03,-0.04,-0.05
317.96,8.41,8.43,8.42,8.44,-8.43,-8.07,-7.14,-0.02,-0.01,-0.02
321.14,8.38,8.37,8.38,8.37,-8.37,-7.98,-6.97,0.01,0.01,0.01
324.35,8.33,8.30,8.33,8.29,-8.30,-7.88,-6.80,0.04,0.04,0.03
327.59,8.28,8.21,8.28,8.21,-8.22,-7.79,-6.63,0.06,0.06,0.07
330.87,8.22,8.12,8.22,8.13,-8.13,-7.69,-6.47,0.09,0.09,0.10
334.18,8.16,8.04,8.16,8.04,-8.05,-7.59,-6.32,0.12,0.12,0.12
337.52,8.10,7.96,8.10,7.95,-7.95,-7.49,-6.17,0.15,0.15,0.14
340.90,8.02,7.85,8.03,7.86,-7.86,-7.39,-6.02,0.17,0.17,0.17
344.30,7.95,7.76,7.95,7.75,-7.76,-7.28,-5.87,0.20,0.19,0.19
347.75,7.86,7.64,7.87,7.65,-7.65,-7.18,-5.73,0.21,0.22,0.22
351.23,7.79,7.55,7.79,7.55,-7.54,-7.08,-5.60,0.25,0.25,0.24
354.74,7.69,7.44,7.69,7.43,-7.42,-6.97,-5.47,0.27,0.26,0.25
358.28,7.58,7.31,7.59,7.31,-7.31,-6.86,-5.34,0.28,0.28,0.27
361.87,7.47,7.18,7.48,7.18,-7.19,-6.75,-5.22,0.29,0.29,0.29
365.49,7.37,7.05,7.37,7.05,-7.06,-6.64,-5.10,0.31,0.31,0.32
369.14,7.26,6.93,7.26,6.93,-6.94,-6.53,-4.98,0.32,0.32,0.33
372.83,7.15,6.81,7.16,6.81,-6.81,-6.42,-4.87,0.34,0.34,0.34
376.56,7.05,6.69,7.05,6.69,-6.69,-6.31,-4.76,0.37,0.37,0.36
380.33,6.95,6.56,6.95,6.56,-6.56,-6.19,-4.66,0.39,0.39,0.39
384.13,6.85,6.44,6.85,6.44,-6.44,-6.08,-4.55,0.42,0.41,0.41
387.97,6.74,6.31,6.74,6.31,-6.31,-5.97,-4.46,0.43,0.43,0.43
391.85,6.64,6.19,6.64,6.18,-6.19,-5.85,-4.36,0.45,0.45,0.45
395.77,6.53,6.05,6.54,6.06,-6.06,-5.74,-4.27,0.47,0.47,0.48
399.73,6.44,5.94,6.44,5.94,-5.94,-5.62,-4.18,0.50,0.50,0.50
403.72,6.33,5.82,6.33,5.81,-5.81,-5.50,-4.09,0.52,0.52,0.51
407.76,6.22,5.69,6.23,5.69,-5.69,-5.38,-4.01,0.53,0.54,0.53
411.84,6.11,5.55,6.12,5.56,-5.56,-5.27,-3.93,0.55,0.56,0.56
415.96,6.02,5.44,6.02,5.43,-5.43,-5.15,-3.85,0.59,0.58,0.58
420.12,5.91,5.31,5.91,5.31,-5.30,-5.03,-3.77,0.61,0.61,0.60
424.32,5.80,5.17,5.80,5.18,-5.17,-4.91,-3.70,0.63,0.63,0.63
428.56,5.69,5.04,5.69,5.04,-5.04,-4.79,-3.62,0.65,0.65,0.65
432.85,5.58,4.91,5.58,4.91,-4.91,-4.67,-3.55,0.67,0.67,0.67
437.18,5.47,4.77,5.48,4.77,-4.78,-4.55,-3.48,0.70,0.70,0.70
441.55,5.37,4.64,5.37,4.64,-4.64,-4.43,-3.41,0.73,0.73,0.73
445.96,5.25,4.50,5.25,4.50,-4.50,-4.30,-3.34,0.75,0.75,0.75
450.42,5.14,4.38,5.14,4.37,-4.37,-4.18,-3.27,0.78,0.77,0.76
454.93,5.02,4.22,5.03,4.23,-4.23,-4.06,-3.20,0.80,0.80,0.80
459.48,4.91,4.09,4.91,4.09,-4.09,-3.93,-3.14,0.82,0.82,0.82
464.07,4.80,3.95,4.80,3.94,-3.95,-3.81,-3.07,0.86,0.85,0.85
468.71,4.68,3.79,4.69,3.80,-3.80,-3.68,-3.00,0.88,0.88,0.89
473.40,4.57,3.66,4.57,3.66,-3.66,-3.56,-2.93,0.91,0.91,0.91
478.13,4.46,3.52,4.46,3.52,-3.52,-3.43,-2.87,0.95,0.94,0.94
482.91,4.34,3.37,4.34,3.37,-3.37,-3.30,-2.80,0.97,0.97,0.97
487.74,4.22,3.22,4.23,3.22,-3.22,-3.18,-2.73,1.00,1.01,1.00
492.62,4.10,3.07,4.10,3.07,-3.07,-3.05,-2.66,1.03,1.03,1.03
497.55,3.98,2.93,3.98,2.92,-2.92,-2.92,-2.59,1.07,1.06,1.05
502.52,3.84,2.75,3.85,2.76,-2.76,-2.79,-2.51,1.08,1.09,1.09
507.55,3.71,2.60,3.71,2.60,-2.60,-2.65,-2.44,1.11,1.11,1.11
512.62,3.58,2.44,3.58,2.44,-2.44,-2.52,-2.36,1.14,1.14,1.14
517.75,3.45,2.28,3.45,2.28,-2.28,-2.39,-2.29,1.17,1.17,1.17
522.93,3.31,2.11,3.32,2.12,-2.12,-2.25,-2.21,1.19,1.20,1.20
528.16,3.18,1.96,3.18,1.96,-1.96,-2.11,-2.13,1.23,1.23,1.22
533.44,3.05,1.80,3.05,1.80,-1.80,-1.97,-2.05,1.26,1.25,1.25
