frequency,raw,error,smoothed,error_smoothed,equalization,parametric_eq,fixed_band_eq,equalized_raw,equalized_smoothed,target
20.00,-12.07,-20.36,-12.08,-20.38,20.38,20.88,8.62,8.31,8.31,8.28
20.20,-11.95,-20.28,-11.95,-20.29,20.29,20.73,8.79,8.34,8.34,8.32
20.40,-11.83,-20.19,-11.83,-20.20,20.20,20.59,8.97,8.36,8.37,8.36
20.61,-11.71,-20.10,-11.71,-20.10,20.10,20.44,9.15,8.40,8.39,8.39
20.81,-11.58,-20.01,-11.59,-20.01,20.01,20.29,9.33,8.42,8.42,8.43
21.02,-11.46,-19.93,-11.46,-19.91,19.91,20.15,9.52,8.44,8.45,8.47
21.23,-11.33,-19.82,-11.34,-19.81,19.81,20.00,9.71,8.47,8.47,8.49
21.44,-11.21,-19.72,-11.21,-19.70,19.70,19.86,9.91,8.49,8.49,8.51
21.66,-11.10,-19.62,-11.09,-19.60,19.60,19.72,10.12,8.50,8.51,8.53
21.87,-10.96,-19.50,-10.96,-19.49,19.49,19.58,10.32,8.53,8.53,8.54
22.09,-10.84,-19.40,-10.84,-19.39,19.39,19.44,10.54,8.54,8.55,8.56
22.31,-10.71,-19.28,-10.71,-19.28,19.28,19.30,10.76,8.56,8.56,8.57
22.54,-10.59,-19.16,-10.58,-19.16,19.16,19.16,10.98,8.57,8.58,8.58
22.76,-10.45,-19.04,-10.46,-19.04,19.04,19.02,11.22,8.59,8.59,8.59
22.99,-10.33,-18.92,-10.33,-18.92,18.92,18.89,11.45,8.59,8.59,8.58
23.22,-10.20,-18.80,-10.20,-18.81,18.81,18.75,11.70,8.60,8.60,8.59
23.45,-10.07,-18.68,-10.07,-18.69,18.69,18.62,11.95,8.61,8.61,8.60
23.69,-9.95,-18.56,-9.95,-18.57,18.57,18.48,12.21,8.62,8.62,8.61
23.92,-9.81,-18.43,-9.82,-18.45,18.45,18.35,12.47,8.64,8.63,8.62
24.16,-9.68,-18.32,-9.69,-18.33,18.33,18.22,12.74,8.65,8.64,8.64
24.40,-9.56,-18.22,-9.56,-18.21,18.21,18.09,13.03,8.65,8.65,8.66
24.65,-9.44,-18.09,-9.43,-18.09,18.09,17.96,13.31,8.66,8.66,8.66
24.89,-9.30,-17.97,-9.31,-17.97,17.97,17.83,13.61,8.67,8.67,8.67
25.14,-9.18,-17.86,-9.18,-17.85,17.85,17.70,13.91,8.67,8.68,8.68
25.39,-9.05,-17.74,-9.05,-17.74,17.74,17.57,14.23,8.68,8.69,8.69
25.65,-8.93,-17.63,-8.92,-17.62,17.62,17.44,14.55,8.69,8.70,8.70
25.91,-8.80,-17.50,-8.79,-17.50,17.50,17.31,14.88,8.70,8.71,8.70
26.16,-8.66,-17.37,-8.66,-17.38,17.38,17.18,15.22,8.71,8.72,8.71
26.43,-8.53,-17.25,-8.53,-17.26,17.26,17.06,15.56,8.73,8.73,8.72
26.69,-8.39,-17.12,-8.40,-17.13,17.13,16.93,15.92,8.74,8.73,8.73
26.96,-8.27,-17.01,-8.27,-17.01,17.01,16.81,16.28,8.75,8.74,8.75
27.23,-8.14,-16.89,-8.14,-16.89,16.89,16.68,16.64,8.75,8.75,8.76
27.50,-8.01,-16.77,-8.01,-16.77,16.77,16.56,17.01,8.76,8.76,8.77
27.77,-7.87,-16.64,-7.88,-16.65,16.65,16.43,17.39,8.77,8.77,8.76
28.05,-7.75,-16.54,-7.75,-16.52,16.52,16.31,17.76,8.77,8.78,8.78
28.33,-7.62,-16.40,-7.62,-16.40,16.40,16.18,18.14,8.78,8.78,8.78
28.62,-7.50,-16.29,-7.49,-16.28,16.28,16.06,18.50,8.78,8.79,8.79
28.90,-7.35,-16.15,-7.36,-16.16,16.16,15.94,18.86,8.81,8.80,8.80
29.19,-7.23,-16.03,-7.23,-16.04,16.04,15.82,19.19,8.81,8.81,8.80
29.48,-7.10,-15.93,-7.11,-15.92,15.92,15.70,19.50,8.82,8.81,8.82
29.78,-6.98,-15.80,-6.98,-15.80,15.80,15.57,19.78,8.83,8.82,8.82
30.08,-6.85,-15.68,-6.86,-15.68,15.68,15.45,20.03,8.84,8.83,8.83
30.38,-6.73,-15.55,-6.73,-15.56,15.56,15.33,20.22,8.84,8.83,8.83
30.68,-6.60,-15.45,-6.61,-15.45,15.45,15.21,20.36,8.84,8.84,8.85
30.99,-6.49,-15.33,-6.48,-15.33,15.33,15.09,20.44,8.84,8.85,8.84
31.30,-6.37,-15.22,-6.36,-15.21,15.21,14.97,20.46,8.85,8.85,8.85
31.61,-6.24,-15.10,-6.24,-15.10,15.10,14.85,20.41,8.85,8.86,8.86
31.93,-6.13,-14.99,-6.12,-14.99,14.99,14.74,20.30,8.86,8.87,8.87
32.24,-6.00,-14.87,-6.00,-14.87,14.87,14.62,20.14,8.87,8.87,8.86
32.57,-5.88,-14.76,-5.88,-14.76,14.76,14.50,19.93,8.88,8.88,8.88
32.89,-5.75,-14.64,-5.76,-14.65,14.65,14.38,19.67,8.89,8.89,8.89
33.22,-5.63,-14.53,-5.64,-14.53,14.53,14.26,19.39,8.90,8.89,8.89
33.55,-5.51,-14.41,-5.52,-14.42,14.42,14.15,19.07,8.91,8.90,8.90
33.89,-5.40,-14.31,-5.40,-14.31,14.31,14.03,18.74,8.90,8.91,8.91
34.23,-5.29,-14.20,-5.28,-14.19,14.19,13.91,18.40,8.91,8.91,8.91
34.57,-5.16,-14.09,-5.16,-14.08,14.08,13.80,18.04,8.91,8.92,8.92
34.92,-5.05,-13.96,-5.04,-13.96,13.96,13.68,17.69,8.92,8.92,8.92
35.27,-4.93,-13.85,-4.92,-13.85,13.85,13.57,17.33,8.92,8.92,8.92
35.62,-4.81,-13.73,-4.81,-13.73,13.73,13.45,16.98,8.93,8.93,8.93
35.97,-4.68,-13.61,-4.69,-13.62,13.62,13.34,16.63,8.94,8.93,8.93
36.33,-4.56,-13.49,-4.57,-13.50,13.50,13.22,16.28,8.94,8.93,8.93
36.70,-4.46,-13.38,-4.46,-13.39,13.39,13.11,15.95,8.93,8.93,8.93
37.06,-4.33,-13.27,-4.34,-13.27,13.27,12.99,15.62,8.94,8.93,8.93
37.43,-4.21,-13.15,-4.22,-13.15,13.15,12.88,15.30,8.94,8.93,8.94
37.81,-4.10,-13.04,-4.10,-13.03,13.03,12.77,14.98,8.92,8.93,8.93
38.19,-3.99,-12.91,-3.98,-12.91,12.91,12.65,14.68,8.92,8.92,8.93
38.57,-3.87,-12.80,-3.86,-12.79,12.79,12.54,14.39,8.91,8.92,8.92
38.95,-3.75,-12.67,-3.75,-12.66,12.66,12.43,14.10,8.91,8.92,8.92
39.34,-3.63,-12.54,-3.63,-12.54,12.54,12.32,13.82,8.91,8.92,8.91
39.74,-3.51,-12.41,-3.51,-12.42,12.42,12.21,13.56,8.91,8.91,8.90
40.14,-3.39,-12.29,-3.38,-12.29,12.29,12.09,13.30,8.91,8.91,8.91
40.54,-3.27,-12.17,-3.26,-12.17,12.17,11.98,13.04,8.90,8.90,8.90
40.94,-3.14,-12.04,-3.14,-12.04,12.04,11.87,12.80,8.90,8.90,8.90
41.35,-3.01,-11.90,-3.02,-11.91,11.91,11.76,12.56,8.90,8.90,8.89
41.76,-2.89,-11.78,-2.90,-11.79,11.79,11.65,12.34,8.89,8.89,8.89
42.18,-2.77,-11.67,-2.77,-11.66,11.66,11.54,12.11,8.89,8.89,8.89
42.60,-2.65,-11.54,-2.65,-11.54,11.54,11.44,11.90,8.88,8.88,8.89
43.03,-2.53,-11.42,-2.54,-11.41,11.41,11.33,11.69,8.88,8.88,8.89
43.46,-2.41,-11.29,-2.42,-11.29,11.29,11.22,11.49,8.88,8.87,8.88
43.90,-2.30,-11.16,-2.30,-11.17,11.17,11.11,11.30,8.88,8.87,8.86
44.33,-2.18,-11.05,-2.19,-11.05,11.05,11.00,11.11,8.87,8.86,8.86
44.78,-2.08,-10.93,-2.07,-10.93,10.93,10.90,10.93,8.86,8.86,8.85
45.23,-1.96,-10.80,-1.96,-10.81,10.81,10.79,10.75,8.86,8.85,8.84
45.68,-1.85,-10.69,-1.85,-10.70,10.70,10.69,10.58,8.85,8.85,8.84
46.13,-1.73,-10.57,-1.74,-10.58,10.58,10.58,10.42,8.85,8.84,8.83
46.60,-1.64,-10.48,-1.63,-10.46,10.46,10.47,10.26,8.83,8.83,8.84
47.06,-1.53,-10.36,-1.52,-10.34,10.34,10.37,10.10,8.81,8.82,8.83
47.53,-1.41,-10.23,-1.41,-10.22,10.22,10.27,9.95,8.81,8.82,8.82
48.01,-1.31,-10.13,-1.30,-10.11,10.11,10.16,9.81,8.80,8.81,8.83
48.49,-1.20,-10.00,-1.19,-9.99,9.99,10.06,9.67,8.79,8.79,8.80
48.97,-1.08,-9.86,-1.09,-9.87,9.87,9.96,9.53,8.79,8.78,8.78
49.46,-0.98,-9.75,-0.99,-9.75,9.75,9.85,9.40,8.77,8.77,8.77
49.96,-0.89,-9.63,-0.88,-9.64,9.64,9.75,9.27,8.75,8.75,8.74
50.46,-0.78,-9.51,-0.78,-9.52,9.52,9.65,9.14,8.74,8.74,8.74
50.96,-0.67,-9.40,-0.68,-9.40,9.40,9.55,9.02,8.73,8.72,8.72
51.47,-0.57,-9.26,-0.58,-9.28,9.28,9.45,8.91,8.71,8.70,8.69
51.99,-0.49,-9.16,-0.49,-9.17,9.17,9.35,8.79,8.68,8.68,8.67
52.51,-0.40,-9.06,-0.40,-9.06,9.06,9.25,8.68,8.66,8.66,8.67
53.03,-0.31,-8.95,-0.31,-8.94,8.94,9.15,8.57,8.63,8.64,8.64
53.56,-0.22,-8.85,-0.22,-8.83,8.83,9.05,8.47,8.61,8.61,8.62
54.10,-0.14,-8.73,-0.13,-8.73,8.73,8.96,8.37,8.59,8.59,8.59
54.64,-0.05,-8.62,-0.05,-8.62,8.62,8.86,8.27,8.58,8.57,8.57
55.18,0.04,-8.51,0.03,-8.52,8.52,8.76,8.17,8.56,8.55,8.54
55.74,0.11,-8.40,0.11,-8.42,8.42,8.67,8.07,8.53,8.53,8.51
56.29,0.19,-8.32,0.18,-8.32,8.32,8.57,7.98,8.50,8.50,8.50
56.86,0.24,-8.23,0.26,-8.22,8.22,8.48,7.88,8.46,8.48,8.47
57.42,0.33,-8.11,0.33,-8.12,8.12,8.38,7.79,8.45,8.45,8.44
58.00,0.41,-8.01,0.40,-8.02,8.02,8.29,7.70,8.43,8.42,8.42
58.58,0.48,-7.92,0.47,-7.92,7.92,8.19,7.61,8.39,8.39,8.39
59.16,0.55,-7.82,0.54,-7.82,7.82,8.10,7.52,8.36,8.36,8.37
59.76,0.60,-7.74,0.61,-7.72,7.72,8.01,7.43,8.32,8.33,8.34
60.35,0.68,-7.63,0.68,-7.61,7.61,7.92,7.34,8.29,8.29,8.31
60.96,0.75,-7.53,0.75,-7.51,7.51,7.83,7.25,8.26,8.26,8.27
61.57,0.81,-7.42,0.81,-7.41,7.41,7.74,7.16,8.21,8.22,8.22
62.18,0.88,-7.30,0.88,-7.31,7.31,7.65,7.08,8.18,8.18,8.18
62.80,0.95,-7.20,0.94,-7.20,7.20,7.56,6.99,8.15,8.14,8.15
63.43,1.02,-7.08,1.01,-7.10,7.10,7.47,6.90,8.11,8.10,8.10
64.07,1.08,-6.97,1.07,-6.99,6.99,7.38,6.81,8.08,8.06,8.06
64.71,1.14,-6.88,1.13,-6.89,6.89,7.30,6.72,8.03,8.02,8.01
65.35,1.19,-6.78,1.19,-6.79,6.79,7.21,6.64,7.97,7.97,7.97
66.01,1.25,-6.68,1.25,-6.68,6.68,7.12,6.55,7.93,7.93,7.93
66.67,1.30,-6.60,1.30,-6.58,6.58,7.04,6.46,7.88,7.88,7.89
67.33,1.35,-6.50,1.36,-6.48,6.48,6.95,6.38,7.83,7.84,7.85
68.01,1.41,-6.40,1.41,-6.38,6.38,6.87,6.29,7.79,7.80,7.80
68.69,1.47,-6.29,1.47,-6.29,6.29,6.79,6.20,7.75,7.75,7.75
69.37,1.52,-6.19,1.52,-6.19,6.19,6.70,6.12,7.70,7.71,7.70
70.07,1.57,-6.09,1.57,-6.09,6.09,6.62,6.03,7.66,7.66,7.66
70.77,1.62,-6.00,1.61,-6.00,6.00,6.54,5.95,7.62,7.62,7.62
71.48,1.67,-5.91,1.66,-5.91,5.91,6.46,5.86,7.57,7.57,7.57
72.19,1.71,-5.82,1.71,-5.82,5.82,6.38,5.78,7.52,7.53,7.52
72.91,1.75,-5.73,1.75,-5.73,5.73,6.30,5.70,7.48,7.48,7.48
73.64,1.80,-5.64,1.79,-5.65,5.65,6.22,5.62,7.44,7.44,7.43
74.38,1.84,-5.56,1.83,-5.57,5.57,6.14,5.54,7.40,7.40,7.40
75.12,1.87,-5.49,1.86,-5.49,5.49,6.07,5.47,7.36,7.36,7.35
75.87,1.90,-5.42,1.89,-5.42,5.42,5.99,5.39,7.32,7.32,7.32
76.63,1.93,-5.35,1.92,-5.36,5.36,5.92,5.32,7.28,7.28,7.28
77.40,1.95,-5.29,1.94,-5.30,5.30,5.84,5.25,7.24,7.24,7.24
78.17,1.97,-5.23,1.97,-5.24,5.24,5.77,5.18,7.20,7.20,7.20
78.95,1.99,-5.18,1.98,-5.19,5.19,5.69,5.11,7.17,7.17,7.17
79.74,2.00,-5.14,1.99,-5.14,5.14,5.62,5.04,7.13,7.13,7.14
80.54,2.01,-5.10,2.01,-5.10,5.10,5.55,4.98,7.10,7.10,7.10
81.35,2.02,-5.05,2.01,-5.06,5.06,5.47,4.92,7.07,7.07,7.07
82.16,2.03,-5.01,2.02,-5.02,5.02,5.40,4.86,7.05,7.04,7.03
82.98,2.03,-4.98,2.02,-4.99,4.99,5.33,4.80,7.01,7.01,7.01
83.81,2.03,-4.95,2.02,-4.95,4.95,5.26,4.75,6.98,6.97,6.97
84.65,2.02,-4.92,2.02,-4.93,4.93,5.20,4.70,6.94,6.95,6.94
85.50,2.02,-4.90,2.02,-4.90,4.90,5.13,4.65,6.91,6.92,6.92
86.35,2.01,-4.88,2.02,-4.87,4.87,5.06,4.60,6.88,6.89,6.89
87.22,2.01,-4.85,2.01,-4.85,4.85,4.99,4.55,6.85,6.86,6.86
88.09,2.01,-4.82,2.01,-4.82,4.82,4.93,4.51,6.83,6.83,6.83
88.97,2.01,-4.80,2.01,-4.80,4.80,4.86,4.47,6.80,6.81,6.81
89.86,2.01,-4.78,2.01,-4.77,4.77,4.80,4.43,6.78,6.78,6.79
90.76,2.01,-4.74,2.01,-4.74,4.74,4.73,4.40,6.75,6.75,6.74
91.66,2.01,-4.71,2.00,-4.72,4.72,4.67,4.36,6.72,6.72,6.72
92.58,2.01,-4.68,2.00,-4.69,4.69,4.61,4.33,6.69,6.69,6.69
93.51,2.01,-4.67,2.00,-4.66,4.66,4.55,4.30,6.66,6.66,6.67
94.44,2.01,-4.63,2.00,-4.63,4.63,4.49,4.28,6.63,6.63,6.64
95.39,2.01,-4.61,2.00,-4.60,4.60,4.43,4.25,6.60,6.60,6.61
96.34,2.01,-4.56,2.00,-4.56,4.56,4.37,4.23,6.57,6.57,6.57
97.30,2.01,-4.52,2.00,-4.53,4.53,4.31,4.21,6.53,6.53,6.53
98.28,2.01,-4.49,2.01,-4.49,4.49,4.25,4.19,6.50,6.50,6.49
99.26,2.01,-4.45,2.01,-4.45,4.45,4.19,4.17,6.46,6.46,6.46
100.25,2.01,-4.41,2.01,-4.41,4.41,4.13,4.15,6.41,6.42,6.42
101.25,2.01,-4.38,2.02,-4.36,4.36,4.08,4.14,6.37,6.38,6.38
102.27,2.01,-4.33,2.02,-4.32,4.32,4.02,4.12,6.32,6.34,6.33
103.29,2.01,-4.28,2.02,-4.27,4.27,3.97,4.11,6.28,6.29,6.29
104.32,2.01,-4.24,2.02,-4.22,4.22,3.91,4.10,6.23,6.24,6.25
105.37,2.02,-4.19,2.02,-4.18,4.18,3.86,4.09,6.19,6.19,6.20
106.42,2.03,-4.12,2.01,-4.13,4.13,3.81,4.08,6.16,6.14,6.14
107.48,2.03,-4.07,2.00,-4.09,4.09,3.76,4.07,6.11,6.09,6.10
108.56,2.02,-4.01,1.99,-4.04,4.04,3.71,4.06,6.06,6.03,6.03
109.64,2.00,-3.98,1.97,-4.00,4.00,3.66,4.05,5.99,5.97,5.97
110.74,1.98,-3.94,1.95,-3.95,3.95,3.61,4.04,5.93,5.90,5.91
111.85,1.94,-3.91,1.93,-3.91,3.91,3.56,4.03,5.84,5.84,5.85
112.97,1.91,-3.86,1.91,-3.87,3.87,3.51,4.02,5.77,5.77,5.77
114.10,1.88,-3.84,1.88,-3.82,3.82,3.46,4.01,5.70,5.71,5.71
115.24,1.84,-3.80,1.85,-3.79,3.79,3.41,4.00,5.62,5.64,5.64
116.39,1.82,-3.74,1.82,-3.74,3.74,3.37,3.98,5.56,5.57,5.56
117.55,1.79,-3.71,1.80,-3.70,3.70,3.32,3.97,5.49,5.50,5.49
118.73,1.76,-3.66,1.77,-3.66,3.66,3.28,3.95,5.42,5.43,5.42
119.92,1.73,-3.64,1.74,-3.62,3.62,3.23,3.93,5.35,5.36,5.37
121.12,1.71,-3.59,1.72,-3.58,3.58,3.19,3.91,5.28,5.30,5.29
122.33,1.70,-3.53,1.70,-3.54,3.54,3.15,3.89,5.23,5.23,5.23
123.55,1.68,-3.50,1.67,-3.50,3.50,3.11,3.86,5.17,5.17,5.18
124.79,1.66,-3.46,1.65,-3.46,3.46,3.06,3.83,5.11,5.11,5.11
126.03,1.64,-3.42,1.63,-3.42,3.42,3.02,3.80,5.05,5.05,5.05
127.29,1.63,-3.37,1.61,-3.38,3.38,2.98,3.77,5.00,4.99,4.99
128.57,1.62,-3.31,1.59,-3.34,3.34,2.94,3.74,4.96,4.93,4.92
129.85,1.58,-3.30,1.57,-3.31,3.31,2.90,3.70,4.89,4.88,4.87
131.15,1.54,-3.28,1.54,-3.28,3.28,2.87,3.66,4.82,4.82,4.81
132.46,1.52,-3.25,1.52,-3.25,3.25,2.83,3.62,4.77,4.77,4.77
133.79,1.49,-3.23,1.49,-3.22,3.22,2.79,3.58,4.71,4.71,4.72
135.12,1.46,-3.21,1.46,-3.20,3.20,2.76,3.53,4.66,4.67,4.66
136.48,1.44,-3.18,1.44,-3.18,3.18,2.72,3.48,4.61,4.62,4.62
137.84,1.41,-3.16,1.41,-3.16,3.16,2.69,3.44,4.56,4.57,4.57
139.22,1.39,-3.13,1.38,-3.14,3.14,2.65,3.39,4.52,4.52,4.51
140.61,1.36,-3.10,1.35,-3.12,3.12,2.62,3.34,4.47,4.47,4.46
142.02,1.32,-3.11,1.33,-3.10,3.10,2.58,3.29,4.42,4.43,4.43
143.44,1.31,-3.08,1.30,-3.08,3.08,2.55,3.23,4.39,4.38,4.39
144.87,1.27,-3.07,1.28,-3.06,3.06,2.52,3.18,4.33,4.34,4.34
146.32,1.26,-3.04,1.25,-3.04,3.04,2.49,3.13,4.30,4.29,4.29
147.78,1.23,-3.03,1.22,-3.02,3.02,2.46,3.08,4.25,4.24,4.25
149.26,1.20,-3.01,1.19,-3.00,3.00,2.43,3.02,4.20,4.19,4.21
150.75,1.17,-2.98,1.17,-2.98,2.98,2.40,2.97,4.15,4.15,4.14
152.26,1.15,-2.95,1.14,-2.96,2.96,2.37,2.92,4.11,4.10,4.10
153.78,1.12,-2.94,1.11,-2.94,2.94,2.34,2.87,4.05,4.05,4.05
155.32,1.10,-2.90,1.08,-2.92,2.92,2.32,2.82,4.01,4.00,3.99
156.88,1.05,-2.90,1.06,-2.89,2.89,2.29,2.77,3.94,3.95,3.95
158.44,1.03,-2.87,1.03,-2.87,2.87,2.26,2.72,3.89,3.90,3.90
160.03,0.99,-2.85,1.00,-2.84,2.84,2.24,2.67,3.83,3.84,3.84
161.63,0.97,-2.82,0.97,-2.82,2.82,2.21,2.63,3.78,3.79,3.78
163.24,0.94,-2.80,0.94,-2.80,2.80,2.19,2.58,3.73,3.74,3.73
164.88,0.91,-2.78,0.91,-2.77,2.77,2.16,2.54,3.68,3.68,3.69
166.53,0.89,-2.75,0.88,-2.75,2.75,2.14,2.50,3.63,3.63,3.63
168.19,0.87,-2.71,0.85,-2.73,2.73,2.12,2.46,3.59,3.58,3.58
169.87,0.84,-2.69,0.82,-2.70,2.70,2.09,2.42,3.54,3.52,3.52
171.57,0.81,-2.66,0.79,-2.68,2.68,2.07,2.38,3.48,3.46,3.47
173.29,0.78,-2.63,0.76,-2.65,2.65,2.05,2.34,3.42,3.41,3.41
175.02,0.73,-2.63,0.73,-2.62,2.62,2.03,2.30,3.34,3.35,3.36
176.77,0.69,-2.60,0.70,-2.59,2.59,2.01,2.27,3.28,3.29,3.29
178.54,0.65,-2.58,0.67,-2.56,2.56,1.99,2.24,3.21,3.23,3.23
180.32,0.62,-2.55,0.63,-2.53,2.53,1.97,2.21,3.15,3.17,3.17
182.13,0.59,-2.53,0.60,-2.50,2.50,1.95,2.18,3.09,3.11,3.11
183.95,0.56,-2.49,0.57,-2.48,2.48,1.94,2.15,3.03,3.05,3.04
185.79,0.54,-2.45,0.53,-2.45,2.45,1.92,2.12,2.98,2.98,2.99
187.65,0.52,-2.40,0.50,-2.42,2.42,1.90,2.09,2.94,2.92,2.91
189.52,0.50,-2.36,0.47,-2.40,2.40,1.89,2.07,2.89,2.86,2.86
191.42,0.46,-2.35,0.43,-2.37,2.37,1.87,2.05,2.83,2.81,2.80
193.33,0.42,-2.34,0.40,-2.35,2.35,1.85,2.02,2.76,2.75,2.75
195.27,0.38,-2.32,0.37,-2.32,2.32,1.84,2.00,2.70,2.69,2.70
197.22,0.34,-2.30,0.34,-2.30,2.30,1.83,1.98,2.63,2.64,2.64
199.19,0.30,-2.28,0.31,-2.28,2.28,1.81,1.97,2.57,2.58,2.58
201.18,0.26,-2.27,0.27,-2.26,2.26,1.80,1.95,2.51,2.53,2.53
203.19,0.23,-2.26,0.24,-2.24,2.24,1.79,1.93,2.46,2.48,2.49
205.23,0.21,-2.22,0.21,-2.22,2.22,1.77,1.92,2.43,2.43,2.43
207.28,0.18,-2.22,0.18,-2.20,2.20,1.76,1.90,2.38,2.38,2.40
209.35,0.15,-2.19,0.15,-2.19,2.19,1.75,1.89,2.33,2.34,2.34
211.44,0.13,-2.16,0.12,-2.17,2.17,1.74,1.88,2.30,2.29,2.28
213.56,0.10,-2.15,0.09,-2.16,2.16,1.73,1.87,2.25,2.25,2.25
215.69,0.08,-2.14,0.07,-2.14,2.14,1.72,1.86,2.22,2.21,2.22
217.85,0.06,-2.12,0.04,-2.13,2.13,1.71,1.85,2.18,2.17,2.17
220.03,0.04,-2.09,0.02,-2.12,2.12,1.70,1.84,2.15,2.14,2.13
222.23,0.01,-2.09,-0.00,-2.11,2.11,1.69,1.83,2.11,2.10,2.10
224.45,-0.01,-2.09,-0.03,-2.10,2.10,1.68,1.82,2.09,2.07,2.07
226.70,-0.04,-2.09,-0.05,-2.09,2.09,1.68,1.81,2.05,2.04,2.05
228.96,-0.05,-2.07,-0.07,-2.09,2.09,1.67,1.80,2.04,2.02,2.01
231.25,-0.07,-2.08,-0.09,-2.08,2.08,1.66,1.79,2.01,2.00,2.00
233.57,-0.09,-2.07,-0.10,-2.07,2.07,1.66,1.79,1.98,1.98,1.98
235.90,-0.10,-2.06,-0.10,-2.06,2.06,1.65,1.78,1.96,1.96,1.96
238.26,-0.11,-2.06,-0.10,-2.05,2.05,1.65,1.77,1.93,1.95,1.95
240.64,-0.10,-2.04,-0.09,-2.02,2.02,1.64,1.76,1.92,1.94,1.94
243.05,-0.09,-2.03,-0.06,-2.00,2.00,1.64,1.75,1.90,1.93,1.94
245.48,-0.07,-2.00,-0.04,-1.96,1.96,1.63,1.74,1.89,1.93,1.93
247.93,-0.02,-1.95,-0.00,-1.93,1.93,1.63,1.73,1.90,1.92,1.93
250.41,0.02,-1.90,0.04,-1.88,1.88,1.62,1.73,1.90,1.92,1.92
252.92,0.10,-1.83,0.10,-1.83,1.83,1.62,1.72,1.92,1.93,1.93
255.45,0.17,-1.77,0.16,-1.77,1.77,1.62,1.71,1.94,1.93,1.94
258.00,0.23,-1.71,0.22,-1.71,1.71,1.62,1.70,1.94,1.94,1.94
260.58,0.31,-1.64,0.30,-1.65,1.65,1.62,1.69,1.95,1.94,1.94
263.19,0.38,-1.58,0.37,-1.58,1.58,1.61,1.68,1.96,1.95,1.95
265.82,0.46,-1.50,0.45,-1.52,1.52,1.61,1.67,1.97,1.96,1.96
268.48,0.53,-1.45,0.52,-1.45,1.45,1.61,1.66,1.98,1.97,1.98
271.16,0.59,-1.41,0.60,-1.39,1.39,1.61,1.65,1.97,1.99,1.99
273.87,0.68,-1.32,0.67,-1.33,1.33,1.61,1.64,2.01,2.00,1.99
276.61,0.75,-1.27,0.73,-1.28,1.28,1.61,1.63,2.02,2.01,2.02
279.38,0.81,-1.22,0.79,-1.23,1.23,1.61,1.62,2.03,2.02,2.02
282.17,0.86,-1.18,0.85,-1.18,1.18,1.62,1.61,2.04,2.03,2.04
284.99,0.91,-1.14,0.90,-1.15,1.15,1.62,1.60,2.05,2.05,2.05
287.84,0.96,-1.10,0.94,-1.12,1.12,1.62,1.59,2.07,2.06,2.05
290.72,1.00,-1.07,0.98,-1.09,1.09,1.62,1.58,2.09,2.07,2.07
293.63,1.02,-1.07,1.01,-1.07,1.07,1.62,1.57,2.09,2.08,2.08
296.57,1.03,-1.07,1.03,-1.06,1.06,1.63,1.56,2.09,2.10,2.10
299.53,1.05,-1.06,1.05,-1.06,1.06,1.63,1.56,2.10,2.11,2.10
302.53,1.07,-1.04,1.06,-1.06,1.06,1.63,1.55,2.13,2.12,2.11
305.55,1.08,-1.06,1.06,-1.07,1.07,1.64,1.54,2.14,2.13,2.13
308.61,1.08,-1.07,1.06,-1.08,1.08,1.64,1.54,2.16,2.14,2.14
311.69,1.06,-1.09,1.05,-1.10,1.10,1.65,1.53,2.15,2.15,2.15
314.81,1.04,-1.14,1.04,-1.12,1.12,1.65,1.53,2.15,2.16,2.17
317.96,1.02,-1.15,1.02,-1.14,1.14,1.66,1.53,2.16,2.17,2.17
321.14,1.00,-1.18,1.00,-1.17,1.17,1.66,1.53,2.17,2.17,2.17
324.35,0.97,-1.21,0.97,-1.20,1.20,1.67,1.53,2.17,2.18,2.17
327.59,0.93,-1.26,0.94,-1.24,1.24,1.67,1.53,2.16,2.18,2.19
330.87,0.92,-1.27,0.91,-1.28,1.28,1.68,1.53,2.19,2.19,2.18
334.18,0.89,-1.30,0.87,-1.32,1.32,1.68,1.53,2.20,2.19,2.18
337.52,0.85,-1.34,0.83,-1.36,1.36,1.69,1.53,2.20,2.19,2.19
340.90,0.81,-1.39,0.79,-1.40,1.40,1.70,1.54,2.20,2.19,2.20
344.30,0.77,-1.43,0.75,-1.44,1.44,1.71,1.54,2.20,2.19,2.19
347.75,0.73,-1.46,0.71,-1.47,1.47,1.71,1.55,2.20,2.19,2.19
351.23,0.67,-1.52,0.68,-1.51,1.51,1.72,1.56,2.17,2.18,2.19
354.74,0.63,-1.56,0.64,-1.54,1.54,1.73,1.57,2.17,2.18,2.18
358.28,0.58,-1.60,0.60,-1.57,1.57,1.74,1.58,2.15,2.18,2.17
361.87,0.55,-1.62,0.57,-1.60,1.60,1.74,1.59,2.15,2.17,2.17
365.49,0.52,-1.65,0.53,-1.63,1.63,1.75,1.60,2.15,2.17,2.17
369.14,0.49,-1.67,0.50,-1.66,1.66,1.76,1.62,2.14,2.16,2.16
372.83,0.48,-1.68,0.47,-1.68,1.68,1.77,1.63,2.16,2.15,2.15
376.56,0.45,-1.70,0.44,-1.70,1.70,1.78,1.65,2.15,2.14,2.14
380.33,0.43,-1.71,0.42,-1.72,1.72,1.79,1.66,2.14,2.14,2.14
384.13,0.40,-1.73,0.39,-1.74,1.74,1.80,1.68,2.13,2.13,2.13
387.97,0.38,-1.74,0.37,-1.75,1.75,1.81,1.70,2.13,2.12,2.12
391.85,0.35,-1.76,0.34,-1.77,1.77,1.82,1.72,2.12,2.11,2.10
395.77,0.32,-1.80,0.32,-1.79,1.79,1.83,1.74,2.11,2.11,2.11
399.73,0.30,-1.81,0.29,-1.81,1.81,1.84,1.76,2.11,2.10,2.10
403.72,0.28,-1.81,0.26,-1.83,1.83,1.85,1.78,2.11,2.09,2.09
407.76,0.25,-1.83,0.23,-1.86,1.86,1.86,1.80,2.10,2.09,2.08
411.84,0.22,-1.87,0.20,-1.88,1.88,1.87,1.83,2.10,2.08,2.09
415.96,0.18,-1.90,0.17,-1.90,1.90,1.88,1.85,2.08,2.08,2.08
420.12,0.15,-1.93,0.15,-1.92,1.92,1.89,1.87,2.07,2.07,2.07
424.32,0.12,-1.96,0.12,-1.94,1.94,1.90,1.90,2.06,2.07,2.07
428.56,0.10,-1.97,0.10,-1.96,1.96,1.91,1.92,2.06,2.07,2.06
432.85,0.08,-1.99,0.09,-1.98,1.98,1.92,1.94,2.05,2.06,2.06
437.18,0.05,-2.01,0.07,-1.99,1.99,1.93,1.97,2.04,2.06,2.06
441.55,0.04,-2.03,0.06,-2.00,2.00,1.94,1.99,2.04,2.06,2.07
445.96,0.04,-2.03,0.05,-2.01,2.01,1.96,2.01,2.05,2.06,2.07
450.42,0.05,-2.01,0.05,-2.02,2.02,1.97,2.04,2.06,2.07,2.06
454.93,0.05,-2.02,0.05,-2.02,2.02,1.98,2.06,2.07,2.07,2.07
459.48,0.06,-2.01,0.05,-2.02,2.02,1.99,2.08,2.08,2.07,2.06
464.07,0.06,-2.02,0.05,-2.02,2.02,2.00,2.10,2.08,2.07,2.07
468.71,0.06,-2.03,0.06,-2.02,2.02,2.01,2.11,2.07,2.08,2.08
473.40,0.06,-2.03,0.06,-2.02,2.02,2.02,2.13,2.08,2.08,2.08
478.13,0.07,-2.03,0.07,-2.02,2.02,2.04,2.15,2.09,2.09,2.09
482.91,0.08,-2.02,0.07,-2.03,2.03,2.05,2.16,2.10,2.09,2.09
487.74,0.08,-2.02,0.06,-2.04,2.04,2.06,2.17,2.11,2.10,2.10
492.62,0.08,-2.03,0.06,-2.05,2.05,2.07,2.18,2.12,2.10,2.11
497.55,0.07,-2.04,0.05,-2.06,2.06,2.08,2.19,2.13,2.11,2.11
502.52,0.06,-2.06,0.03,-2.08,2.08,2.09,2.20,2.14,2.11,2.12
507.55,0.03,-2.09,0.01,-2.11,2.11,2.10,2.21,2.13,2.12,2.12
512.62,-0.00,-2.12,-0.01,-2.13,2.13,2.12,2.21,2.13,2.12,2.12
