frequency,raw,error,smoothed,error_smoothed,equalization,parametric_eq,fixed_band_eq,equalized_raw,equalized_smoothed,target
20.00,0.45,-0.92,0.46,-0.94,0.94,-0.02,-0.11,1.39,1.40,1.38
20.20,0.52,-0.90,0.53,-0.91,0.91,-0.02,-0.11,1.44,1.44,1.43
20.40,0.58,-0.89,0.59,-0.89,0.89,-0.02,-0.11,1.47,1.48,1.48
20.61,0.65,-0.85,0.65,-0.86,0.86,-0.02,-0.11,1.51,1.51,1.51
20.81,0.72,-0.83,0.71,-0.83,0.83,-0.02,-0.11,1.55,1.54,1.56
21.02,0.78,-0.81,0.77,-0.80,0.80,-0.02,-0.11,1.59,1.57,1.60
21.23,0.83,-0.78,0.82,-0.78,0.78,-0.02,-0.11,1.61,1.60,1.62
21.44,0.87,-0.76,0.87,-0.75,0.75,-0.02,-0.11,1.62,1.62,1.64
21.66,0.92,-0.73,0.92,-0.72,0.72,-0.02,-0.11,1.64,1.64,1.66
21.87,0.96,-0.70,0.97,-0.69,0.69,-0.02,-0.11,1.65,1.66,1.67
22.09,1.01,-0.67,1.02,-0.66,0.66,-0.02,-0.11,1.67,1.67,1.69
22.31,1.06,-0.63,1.06,-0.63,0.63,-0.02,-0.11,1.69,1.69,1.70
22.54,1.11,-0.58,1.10,-0.59,0.59,-0.02,-0.11,1.70,1.69,1.70
22.76,1.16,-0.53,1.14,-0.56,0.56,-0.02,-0.11,1.72,1.70,1.70
22.99,1.21,-0.47,1.18,-0.52,0.52,-0.02,-0.11,1.73,1.70,1.69
23.22,1.22,-0.46,1.22,-0.48,0.48,-0.02,-0.11,1.70,1.70,1.69
23.45,1.24,-0.44,1.25,-0.45,0.45,-0.02,-0.11,1.69,1.70,1.69
23.69,1.25,-0.44,1.28,-0.41,0.41,-0.02,-0.11,1.67,1.70,1.70
23.92,1.27,-0.42,1.31,-0.39,0.39,-0.02,-0.11,1.66,1.70,1.70
24.16,1.30,-0.39,1.34,-0.36,0.36,-0.02,-0.11,1.66,1.70,1.70
24.40,1.36,-0.34,1.36,-0.34,0.34,-0.02,-0.11,1.70,1.70,1.71
24.65,1.41,-0.28,1.38,-0.32,0.32,-0.02,-0.11,1.73,1.70,1.70
24.89,1.46,-0.23,1.40,-0.30,0.30,-0.03,-0.11,1.76,1.70,1.70
25.14,1.47,-0.22,1.42,-0.28,0.28,-0.03,-0.11,1.75,1.70,1.70
25.39,1.46,-0.24,1.44,-0.26,0.26,-0.03,-0.11,1.72,1.70,1.71
25.65,1.45,-0.25,1.46,-0.24,0.24,-0.03,-0.11,1.69,1.70,1.71
25.91,1.44,-0.25,1.48,-0.22,0.22,-0.03,-0.11,1.66,1.70,1.70
26.16,1.46,-0.23,1.50,-0.20,0.20,-0.03,-0.11,1.66,1.70,1.70
26.43,1.49,-0.20,1.52,-0.18,0.18,-0.03,-0.11,1.67,1.70,1.70
26.69,1.52,-0.17,1.54,-0.15,0.15,-0.03,-0.10,1.68,1.70,1.70
26.96,1.55,-0.14,1.56,-0.13,0.13,-0.03,-0.10,1.69,1.69,1.70
27.23,1.58,-0.11,1.58,-0.11,0.11,-0.03,-0.10,1.69,1.69,1.70
27.50,1.61,-0.08,1.60,-0.09,0.09,-0.03,-0.10,1.70,1.69,1.70
27.77,1.63,-0.05,1.63,-0.06,0.06,-0.03,-0.10,1.69,1.69,1.69
28.05,1.66,-0.02,1.66,-0.03,0.03,-0.03,-0.10,1.69,1.69,1.69
28.33,1.68,0.01,1.69,0.00,-0.00,-0.03,-0.09,1.68,1.69,1.68
28.62,1.71,0.04,1.72,0.03,-0.03,-0.03,-0.09,1.68,1.68,1.68
28.90,1.74,0.06,1.74,0.06,-0.06,-0.04,-0.09,1.68,1.68,1.69
29.19,1.77,0.10,1.76,0.08,-0.08,-0.04,-0.09,1.69,1.68,1.68
29.48,1.79,0.11,1.78,0.10,-0.10,-0.04,-0.09,1.69,1.68,1.69
29.78,1.82,0.15,1.80,0.12,-0.12,-0.04,-0.08,1.70,1.68,1.68
30.08,1.84,0.16,1.82,0.14,-0.14,-0.04,-0.08,1.70,1.68,1.69
30.38,1.84,0.17,1.83,0.16,-0.16,-0.04,-0.08,1.69,1.68,1.68
30.68,1.84,0.17,1.85,0.17,-0.17,-0.04,-0.07,1.67,1.67,1.68
30.99,1.84,0.17,1.86,0.19,-0.19,-0.04,-0.07,1.65,1.67,1.68
31.30,1.85,0.19,1.87,0.20,-0.20,-0.04,-0.07,1.65,1.67,1.67
31.61,1.86,0.20,1.88,0.21,-0.21,-0.04,-0.07,1.65,1.67,1.67
31.93,1.87,0.21,1.89,0.22,-0.22,-0.04,-0.06,1.65,1.66,1.67
32.24,1.89,0.24,1.89,0.23,-0.23,-0.05,-0.06,1.66,1.66,1.66
32.57,1.91,0.26,1.90,0.25,-0.25,-0.05,-0.06,1.67,1.66,1.66
32.89,1.93,0.28,1.91,0.26,-0.26,-0.05,-0.05,1.67,1.65,1.66
33.22,1.94,0.30,1.92,0.27,-0.27,-0.05,-0.05,1.67,1.65,1.65
33.55,1.94,0.30,1.93,0.29,-0.29,-0.05,-0.05,1.65,1.64,1.65
33.89,1.94,0.31,1.94,0.31,-0.31,-0.05,-0.05,1.63,1.64,1.64
34.23,1.94,0.31,1.96,0.32,-0.32,-0.05,-0.04,1.62,1.63,1.64
34.57,1.94,0.32,1.97,0.34,-0.34,-0.05,-0.04,1.60,1.63,1.63
34.92,1.94,0.32,1.98,0.36,-0.36,-0.05,-0.04,1.59,1.62,1.63
35.27,1.97,0.36,1.99,0.37,-0.37,-0.05,-0.04,1.60,1.62,1.62
35.62,2.00,0.39,2.01,0.39,-0.39,-0.06,-0.03,1.61,1.62,1.62
35.97,2.04,0.43,2.02,0.40,-0.40,-0.06,-0.03,1.64,1.62,1.62
36.33,2.04,0.43,2.02,0.41,-0.41,-0.06,-0.03,1.63,1.61,1.62
36.70,2.04,0.44,2.03,0.42,-0.42,-0.06,-0.03,1.63,1.61,1.61
37.06,2.04,0.44,2.03,0.42,-0.42,-0.06,-0.03,1.62,1.61,1.61
37.43,2.04,0.43,2.03,0.42,-0.42,-0.06,-0.03,1.62,1.61,1.62
37.81,2.04,0.43,2.03,0.42,-0.42,-0.06,-0.02,1.62,1.61,1.62
38.19,2.04,0.44,2.03,0.42,-0.42,-0.07,-0.02,1.63,1.61,1.61
38.57,2.04,0.43,2.02,0.41,-0.41,-0.07,-0.02,1.63,1.62,1.62
38.95,2.04,0.42,2.01,0.40,-0.40,-0.07,-0.02,1.64,1.62,1.63
39.34,2.01,0.40,2.00,0.39,-0.39,-0.07,-0.02,1.63,1.62,1.62
39.74,1.97,0.36,1.99,0.37,-0.37,-0.07,-0.02,1.60,1.62,1.62
40.14,1.94,0.33,1.98,0.37,-0.37,-0.07,-0.02,1.58,1.62,1.62
40.54,1.94,0.33,1.98,0.36,-0.36,-0.07,-0.02,1.58,1.61,1.62
40.94,1.94,0.34,1.97,0.36,-0.36,-0.08,-0.01,1.58,1.61,1.61
41.35,1.94,0.34,1.96,0.35,-0.35,-0.08,-0.01,1.59,1.60,1.61
41.76,1.94,0.35,1.95,0.35,-0.35,-0.08,-0.01,1.59,1.60,1.60
42.18,1.94,0.35,1.94,0.35,-0.35,-0.08,-0.01,1.59,1.59,1.60
42.60,1.94,0.36,1.93,0.35,-0.35,-0.08,-0.01,1.59,1.58,1.59
43.03,1.94,0.37,1.92,0.35,-0.35,-0.08,-0.01,1.59,1.57,1.58
43.46,1.94,0.38,1.91,0.36,-0.36,-0.09,-0.01,1.58,1.56,1.57
43.90,1.94,0.40,1.91,0.36,-0.36,-0.09,-0.01,1.58,1.54,1.55
44.33,1.91,0.39,1.90,0.37,-0.37,-0.09,-0.01,1.54,1.53,1.53
44.78,1.86,0.36,1.89,0.37,-0.37,-0.09,-0.01,1.49,1.52,1.51
45.23,1.84,0.35,1.87,0.37,-0.37,-0.09,-0.01,1.47,1.51,1.50
45.68,1.84,0.36,1.86,0.37,-0.37,-0.09,-0.01,1.47,1.49,1.49
46.13,1.84,0.38,1.85,0.37,-0.37,-0.10,-0.01,1.47,1.48,1.47
46.60,1.84,0.38,1.83,0.37,-0.37,-0.10,-0.01,1.47,1.46,1.47
47.06,1.84,0.40,1.82,0.37,-0.37,-0.10,-0.01,1.47,1.45,1.45
47.53,1.80,0.37,1.81,0.38,-0.38,-0.10,-0.01,1.43,1.43,1.44
48.01,1.77,0.34,1.80,0.38,-0.38,-0.11,-0.01,1.39,1.42,1.44
48.49,1.76,0.35,1.79,0.38,-0.38,-0.11,-0.01,1.38,1.40,1.42
48.97,1.75,0.36,1.77,0.38,-0.38,-0.11,-0.01,1.37,1.39,1.40
49.46,1.75,0.38,1.75,0.37,-0.37,-0.11,-0.01,1.38,1.38,1.38
49.96,1.75,0.40,1.74,0.37,-0.37,-0.11,-0.01,1.38,1.37,1.36
50.46,1.73,0.39,1.71,0.36,-0.36,-0.12,-0.01,1.37,1.35,1.35
50.96,1.71,0.38,1.68,0.35,-0.35,-0.12,-0.01,1.37,1.34,1.34
51.47,1.69,0.38,1.65,0.33,-0.33,-0.12,-0.01,1.36,1.33,1.32
51.99,1.66,0.36,1.62,0.31,-0.31,-0.12,-0.01,1.35,1.31,1.31
52.51,1.61,0.32,1.60,0.30,-0.30,-0.13,-0.01,1.31,1.30,1.30
53.03,1.56,0.27,1.57,0.29,-0.29,-0.13,-0.01,1.28,1.29,1.30
53.56,1.49,0.22,1.54,0.27,-0.27,-0.13,-0.02,1.23,1.27,1.28
54.10,1.44,0.18,1.50,0.24,-0.24,-0.13,-0.02,1.20,1.26,1.27
54.64,1.45,0.21,1.47,0.21,-0.21,-0.14,-0.02,1.24,1.25,1.25
55.18,1.44,0.20,1.43,0.19,-0.19,-0.14,-0.02,1.25,1.24,1.25
55.74,1.36,0.14,1.40,0.17,-0.17,-0.14,-0.02,1.19,1.23,1.23
56.29,1.35,0.14,1.37,0.15,-0.15,-0.15,-0.02,1.20,1.22,1.22
56.86,1.38,0.18,1.33,0.13,-0.13,-0.15,-0.02,1.25,1.20,1.21
57.42,1.35,0.18,1.30,0.11,-0.11,-0.15,-0.03,1.24,1.19,1.18
58.00,1.29,0.13,1.26,0.09,-0.09,-0.15,-0.03,1.21,1.17,1.17
58.58,1.20,0.05,1.22,0.07,-0.07,-0.16,-0.03,1.13,1.15,1.16
59.16,1.14,0.01,1.19,0.07,-0.07,-0.16,-0.03,1.07,1.12,1.14
59.76,1.16,0.05,1.16,0.06,-0.06,-0.16,-0.04,1.10,1.09,1.12
60.35,1.15,0.08,1.12,0.06,-0.06,-0.17,-0.04,1.09,1.06,1.08
60.96,1.10,0.07,1.08,0.05,-0.05,-0.17,-0.04,1.05,1.03,1.04
61.57,1.02,0.03,1.04,0.04,-0.04,-0.17,-0.05,0.98,0.99,1.00
62.18,0.94,-0.01,0.99,0.04,-0.04,-0.18,-0.05,0.91,0.96,0.96
62.80,0.88,-0.02,0.94,0.02,-0.02,-0.18,-0.06,0.86,0.91,0.91
63.43,0.86,-0.00,0.89,0.02,-0.02,-0.18,-0.06,0.84,0.87,0.87
64.07,0.87,0.06,0.85,0.02,-0.02,-0.19,-0.06,0.85,0.83,0.82
64.71,0.91,0.14,0.80,0.02,-0.02,-0.19,-0.07,0.89,0.78,0.78
65.35,0.84,0.11,0.75,0.02,-0.02,-0.20,-0.08,0.82,0.74,0.74
66.01,0.69,0.01,0.71,0.02,-0.02,-0.20,-0.08,0.67,0.69,0.69
66.67,0.63,-0.00,0.66,0.02,-0.02,-0.20,-0.09,0.61,0.64,0.64
67.33,0.56,-0.02,0.61,0.02,-0.02,-0.21,-0.09,0.54,0.59,0.59
68.01,0.48,-0.06,0.57,0.02,-0.02,-0.21,-0.10,0.46,0.54,0.55
68.69,0.47,-0.02,0.52,0.03,-0.03,-0.21,-0.11,0.45,0.49,0.50
69.37,0.50,0.06,0.47,0.03,-0.03,-0.22,-0.11,0.48,0.44,0.45
70.07,0.53,0.14,0.42,0.03,-0.03,-0.22,-0.12,0.51,0.39,0.40
70.77,0.31,-0.03,0.36,0.03,-0.03,-0.23,-0.13,0.29,0.34,0.35
71.48,0.27,-0.02,0.31,0.03,-0.03,-0.23,-0.13,0.24,0.28,0.30
72.19,0.30,0.08,0.27,0.05,-0.05,-0.23,-0.14,0.26,0.23,0.23
72.91,0.32,0.16,0.23,0.06,-0.06,-0.24,-0.15,0.26,0.17,0.17
73.64,0.15,0.04,0.19,0.08,-0.08,-0.24,-0.16,0.08,0.11,0.12
74.38,0.07,0.02,0.14,0.08,-0.08,-0.24,-0.16,-0.01,0.06,0.06
75.12,0.09,0.10,0.10,0.10,-0.10,-0.25,-0.17,-0.01,0.00,-0.00
75.87,-0.02,0.05,0.05,0.11,-0.11,-0.25,-0.18,-0.12,-0.05,-0.06
76.63,-0.01,0.11,-0.01,0.10,-0.10,-0.25,-0.19,-0.11,-0.11,-0.11
77.40,-0.01,0.16,-0.07,0.09,-0.09,-0.26,-0.20,-0.10,-0.16,-0.16
78.17,-0.06,0.17,-0.14,0.08,-0.08,-0.26,-0.21,-0.14,-0.22,-0.22
78.95,-0.13,0.14,-0.19,0.07,-0.07,-0.26,-0.22,-0.20,-0.27,-0.26
79.74,-0.23,0.09,-0.26,0.06,-0.06,-0.27,-0.23,-0.28,-0.32,-0.31
80.54,-0.37,-0.00,-0.33,0.03,-0.03,-0.27,-0.23,-0.40,-0.36,-0.36
81.35,-0.42,-0.00,-0.39,0.02,-0.02,-0.27,-0.24,-0.44,-0.41,-0.41
82.16,-0.38,0.09,-0.44,0.02,-0.02,-0.27,-0.25,-0.40,-0.46,-0.46
82.98,-0.47,0.04,-0.49,0.01,-0.01,-0.27,-0.26,-0.48,-0.51,-0.50
83.81,-0.67,-0.11,-0.55,0.00,-0.00,-0.28,-0.27,-0.67,-0.55,-0.55
84.65,-0.73,-0.12,-0.61,-0.00,0.00,-0.28,-0.28,-0.72,-0.60,-0.60
85.50,-0.72,-0.07,-0.66,-0.01,0.01,-0.27,-0.29,-0.71,-0.65,-0.64
86.35,-0.69,0.01,-0.70,0.00,-0.00,-0.27,-0.30,-0.69,-0.70,-0.69
87.22,-0.71,0.04,-0.73,0.02,-0.02,-0.27,-0.31,-0.72,-0.75,-0.74
88.09,-0.76,0.04,-0.76,0.04,-0.04,-0.27,-0.32,-0.79,-0.80,-0.79
88.97,-0.80,0.06,-0.80,0.06,-0.06,-0.26,-0.33,-0.85,-0.85,-0.85
89.86,-0.76,0.15,-0.83,0.07,-0.07,-0.26,-0.34,-0.83,-0.90,-0.90
90.76,-0.89,0.07,-0.87,0.09,-0.09,-0.25,-0.35,-0.97,-0.95,-0.95
91.66,-0.94,0.07,-0.90,0.10,-0.10,-0.24,-0.37,-1.04,-1.00,-1.00
92.58,-0.94,0.13,-0.94,0.11,-0.11,-0.23,-0.38,-1.05,-1.05,-1.06
93.51,-0.96,0.16,-0.99,0.11,-0.11,-0.21,-0.39,-1.07,-1.11,-1.11
94.44,-1.01,0.15,-1.05,0.10,-0.10,-0.19,-0.40,-1.11,-1.16,-1.15
95.39,-1.09,0.12,-1.12,0.08,-0.08,-0.17,-0.41,-1.17,-1.21,-1.20
96.34,-1.20,0.06,-1.21,0.05,-0.05,-0.14,-0.43,-1.25,-1.25,-1.25
97.30,-1.31,-0.00,-1.29,0.01,-0.01,-0.11,-0.44,-1.32,-1.30,-1.30
98.28,-1.41,-0.05,-1.38,-0.03,0.03,-0.07,-0.45,-1.37,-1.35,-1.35
99.26,-1.47,-0.07,-1.49,-0.09,0.09,-0.02,-0.46,-1.37,-1.40,-1.39
100.25,-1.53,-0.08,-1.61,-0.16,0.16,0.04,-0.48,-1.37,-1.45,-1.44
101.25,-1.73,-0.23,-1.72,-0.22,0.22,0.11,-0.49,-1.51,-1.49,-1.49
102.27,-1.89,-0.34,-1.84,-0.30,0.30,0.19,-0.51,-1.59,-1.54,-1.54
103.29,-1.95,-0.35,-1.97,-0.38,0.38,0.29,-0.52,-1.57,-1.59,-1.59
104.32,-2.06,-0.42,-2.10,-0.46,0.46,0.40,-0.53,-1.60,-1.64,-1.63
105.37,-2.25,-0.56,-2.22,-0.53,0.53,0.53,-0.55,-1.72,-1.69,-1.68
106.42,-2.38,-0.64,-2.35,-0.60,0.60,0.68,-0.57,-1.77,-1.74,-1.73
107.48,-2.50,-0.70,-2.48,-0.68,0.68,0.85,-0.58,-1.82,-1.80,-1.79
108.56,-2.65,-0.80,-2.61,-0.77,0.77,1.02,-0.60,-1.88,-1.85,-1.84
109.64,-2.78,-0.88,-2.76,-0.86,0.86,1.19,-0.62,-1.92,-1.90,-1.89
110.74,-2.84,-0.88,-2.90,-0.95,0.95,1.33,-0.63,-1.89,-1.95,-1.95
111.85,-2.93,-0.93,-3.04,-1.04,1.04,1.43,-0.65,-1.89,-2.00,-1.99
112.97,-3.10,-1.04,-3.17,-1.12,1.12,1.46,-0.67,-1.98,-2.05,-2.05
114.10,-3.18,-1.07,-3.29,-1.19,1.19,1.41,-0.69,-1.99,-2.10,-2.10
115.24,-3.24,-1.08,-3.40,-1.25,1.25,1.30,-0.71,-1.99,-2.15,-2.15
116.39,-3.46,-1.25,-3.48,-1.28,1.28,1.12,-0.73,-2.17,-2.19,-2.20
117.55,-3.62,-1.37,-3.53,-1.29,1.29,0.92,-0.75,-2.33,-2.23,-2.24
118.73,-3.64,-1.35,-3.54,-1.26,1.26,0.69,-0.77,-2.37,-2.27,-2.28
119.92,-3.67,-1.35,-3.51,-1.20,1.20,0.47,-0.80,-2.47,-2.31,-2.31
121.12,-3.66,-1.30,-3.44,-1.09,1.09,0.26,-0.82,-2.56,-2.35,-2.35
122.33,-3.50,-1.11,-3.33,-0.95,0.95,0.07,-0.84,-2.55,-2.38,-2.38
123.55,-3.33,-0.91,-3.18,-0.76,0.76,-0.11,-0.87,-2.56,-2.42,-2.41
124.79,-3.09,-0.64,-2.98,-0.53,0.53,-0.27,-0.90,-2.56,-2.45,-2.44
126.03,-2.82,-0.34,-2.74,-0.26,0.26,-0.41,-0.92,-2.56,-2.48,-2.47
127.29,-2.54,-0.04,-2.47,0.04,-0.04,-0.54,-0.95,-2.58,-2.51,-2.49
128.57,-2.22,0.32,-2.17,0.37,-0.37,-0.66,-0.98,-2.59,-2.54,-2.53
129.85,-1.78,0.79,-1.85,0.72,-0.72,-0.77,-1.01,-2.49,-2.56,-2.56
131.15,-1.42,1.18,-1.53,1.06,-1.06,-0.87,-1.04,-2.48,-2.59,-2.59
132.46,-1.14,1.49,-1.23,1.39,-1.39,-0.96,-1.07,-2.53,-2.62,-2.62
133.79,-0.84,1.82,-0.93,1.72,-1.72,-1.05,-1.10,-2.56,-2.65,-2.65
135.12,-0.56,2.13,-0.66,2.02,-2.02,-1.13,-1.14,-2.58,-2.68,-2.68
136.48,-0.32,2.39,-0.41,2.29,-2.29,-1.21,-1.17,-2.61,-2.71,-2.70
137.84,-0.08,2.67,-0.20,2.53,-2.53,-1.29,-1.21,-2.61,-2.73,-2.74
139.22,0.05,2.83,-0.02,2.74,-2.74,-1.36,-1.24,-2.69,-2.76,-2.77
140.61,0.15,2.96,0.12,2.91,-2.91,-1.44,-1.28,-2.76,-2.79,-2.80
142.02,0.20,3.03,0.23,3.05,-3.05,-1.51,-1.32,-2.85,-2.82,-2.82
143.44,0.29,3.15,0.30,3.16,-3.16,-1.59,-1.36,-2.87,-2.86,-2.85
144.87,0.33,3.23,0.35,3.25,-3.25,-1.66,-1.41,-2.92,-2.90,-2.89
146.32,0.38,3.32,0.38,3.32,-3.32,-1.73,-1.45,-2.94,-2.94,-2.93
147.78,0.41,3.38,0.38,3.37,-3.37,-1.81,-1.49,-2.96,-2.99,-2.96
149.26,0.32,3.34,0.34,3.38,-3.38,-1.88,-1.54,-3.06,-3.04,-3.01
150.75,0.23,3.31,0.26,3.37,-3.37,-1.95,-1.59,-3.13,-3.10,-3.07
152.26,0.18,3.33,0.15,3.32,-3.32,-2.03,-1.64,-3.14,-3.16,-3.14
153.78,0.10,3.32,0.02,3.25,-3.25,-2.11,-1.69,-3.15,-3.23,-3.21
155.32,0.05,3.34,-0.11,3.18,-3.18,-2.19,-1.74,-3.13,-3.30,-3.28
156.88,-0.05,3.32,-0.25,3.12,-3.12,-2.27,-1.79,-3.16,-3.37,-3.36
158.44,-0.18,3.27,-0.38,3.06,-3.06,-2.35,-1.85,-3.24,-3.44,-3.44
160.03,-0.34,3.19,-0.48,3.03,-3.03,-2.44,-1.91,-3.37,-3.51,-3.52
161.63,-0.58,3.02,-0.55,3.02,-3.02,-2.52,-1.97,-3.60,-3.57,-3.59
163.24,-0.85,2.81,-0.60,3.03,-3.03,-2.61,-2.03,-3.88,-3.63,-3.65
164.88,-1.08,2.63,-0.62,3.07,-3.07,-2.70,-2.09,-4.15,-3.69,-3.70
166.53,-1.04,2.72,-0.59,3.15,-3.15,-2.79,-2.15,-4.18,-3.74,-3.75
168.19,-0.90,2.90,-0.53,3.25,-3.25,-2.89,-2.22,-4.15,-3.78,-3.79
169.87,-0.65,3.19,-0.43,3.38,-3.38,-2.98,-2.29,-4.03,-3.81,-3.83
171.57,-0.35,3.51,-0.30,3.54,-3.54,-3.08,-2.36,-3.88,-3.84,-3.85
173.29,-0.08,3.79,-0.16,3.70,-3.70,-3.18,-2.43,-3.77,-3.86,-3.86
175.02,0.20,4.08,-0.01,3.86,-3.86,-3.28,-2.50,-3.65,-3.87,-3.87
176.77,0.38,4.27,0.14,4.02,-4.02,-3.39,-2.58,-3.64,-3.88,-3.88
178.54,0.48,4.38,0.31,4.20,-4.20,-3.49,-2.66,-3.72,-3.89,-3.89
180.32,0.61,4.50,0.47,4.36,-4.36,-3.60,-2.74,-3.75,-3.89,-3.88
182.13,0.75,4.63,0.61,4.50,-4.50,-3.70,-2.82,-3.75,-3.90,-3.87
183.95,0.92,4.81,0.71,4.61,-4.61,-3.81,-2.90,-3.69,-3.90,-3.88
185.79,0.96,4.85,0.77,4.68,-4.68,-3.92,-2.99,-3.71,-3.91,-3.88
187.65,0.80,4.71,0.78,4.70,-4.70,-4.03,-3.07,-3.90,-3.92,-3.90
189.52,0.68,4.60,0.78,4.70,-4.70,-4.14,-3.16,-4.02,-3.93,-3.91
191.42,0.57,4.51,0.75,4.69,-4.69,-4.24,-3.25,-4.12,-3.94,-3.93
193.33,0.60,4.56,0.72,4.68,-4.68,-4.35,-3.34,-4.07,-3.96,-3.95
195.27,0.72,4.70,0.69,4.66,-4.66,-4.45,-3.44,-3.94,-3.97,-3.97
197.22,0.70,4.70,0.65,4.64,-4.64,-4.55,-3.53,-3.94,-3.99,-3.99
199.19,0.56,4.58,0.62,4.63,-4.63,-4.65,-3.63,-4.07,-4.01,-4.01
201.18,0.52,4.56,0.59,4.62,-4.62,-4.74,-3.73,-4.10,-4.03,-4.03
203.19,0.54,4.60,0.57,4.62,-4.62,-4.83,-3.82,-4.08,-4.05,-4.05
205.23,0.46,4.54,0.55,4.62,-4.62,-4.91,-3.92,-4.16,-4.07,-4.07
207.28,0.49,4.58,0.53,4.63,-4.63,-4.99,-4.02,-4.14,-4.09,-4.08
209.35,0.59,4.70,0.54,4.65,-4.65,-5.06,-4.11,-4.06,-4.11,-4.10
211.44,0.60,4.74,0.55,4.68,-4.68,-5.12,-4.21,-4.08,-4.13,-4.13
213.56,0.60,4.75,0.56,4.70,-4.70,-5.17,-4.31,-4.10,-4.14,-4.14
215.69,0.60,4.76,0.56,4.72,-4.72,-5.21,-4.40,-4.11,-4.16,-4.15
217.85,0.59,4.76,0.58,4.75,-4.75,-5.25,-4.49,-4.16,-4.17,-4.16
220.03,0.59,4.77,0.61,4.79,-4.79,-5.27,-4.58,-4.20,-4.18,-4.17
222.23,0.59,4.80,0.65,4.83,-4.83,-5.29,-4.67,-4.24,-4.18,-4.20
224.45,0.59,4.79,0.67,4.86,-4.86,-5.29,-4.75,-4.27,-4.19,-4.19
226.70,0.59,4.79,0.69,4.88,-4.88,-5.28,-4.83,-4.29,-4.19,-4.19
228.96,0.61,4.80,0.72,4.90,-4.90,-5.27,-4.90,-4.28,-4.18,-4.18
231.25,0.85,5.03,0.73,4.90,-4.90,-5.24,-4.97,-4.05,-4.17,-4.17
233.57,0.85,5.02,0.74,4.91,-4.91,-5.21,-5.03,-4.05,-4.16,-4.16
235.90,0.73,4.89,0.76,4.91,-4.91,-5.17,-5.09,-4.18,-4.15,-4.15
238.26,0.90,5.05,0.78,4.91,-4.91,-5.12,-5.13,-4.00,-4.13,-4.14
240.64,0.92,5.04,0.78,4.89,-4.89,-5.06,-5.18,-3.97,-4.11,-4.11
243.05,0.75,4.84,0.79,4.89,-4.89,-5.00,-5.21,-4.13,-4.09,-4.08
245.48,0.69,4.76,0.80,4.87,-4.87,-4.93,-5.24,-4.18,-4.07,-4.06
247.93,0.72,4.76,0.78,4.82,-4.82,-4.85,-5.25,-4.10,-4.04,-4.03
250.41,0.73,4.75,0.74,4.76,-4.76,-4.77,-5.26,-4.03,-4.02,-4.01
252.92,0.75,4.74,0.73,4.72,-4.72,-4.69,-5.27,-3.97,-4.00,-3.98
255.45,0.74,4.71,0.70,4.67,-4.67,-4.61,-5.26,-3.93,-3.97,-3.96
258.00,0.69,4.64,0.66,4.61,-4.61,-4.52,-5.24,-3.91,-3.95,-3.94
260.58,0.64,4.57,0.64,4.56,-4.56,-4.43,-5.22,-3.92,-3.92,-3.92
263.19,0.59,4.49,0.61,4.51,-4.51,-4.35,-5.19,-3.92,-3.90,-3.89
265.82,0.58,4.46,0.57,4.44,-4.44,-4.26,-5.16,-3.86,-3.87,-3.87
268.48,0.58,4.44,0.54,4.39,-4.39,-4.17,-5.11,-3.80,-3.85,-3.85
271.16,0.38,4.21,0.51,4.34,-4.34,-4.08,-5.06,-3.95,-3.82,-3.82
273.87,0.24,4.05,0.49,4.29,-4.29,-3.99,-5.01,-4.04,-3.80,-3.80
276.61,0.56,4.34,0.45,4.23,-4.23,-3.91,-4.95,-3.66,-3.77,-3.77
279.38,0.69,4.44,0.42,4.17,-4.17,-3.82,-4.88,-3.47,-3.75,-3.74
282.17,0.33,4.06,0.38,4.10,-4.10,-3.74,-4.81,-3.77,-3.72,-3.72
284.99,0.26,3.95,0.34,4.03,-4.03,-3.66,-4.74,-3.76,-3.69,-3.68
287.84,0.35,4.02,0.29,3.95,-3.95,-3.58,-4.67,-3.60,-3.66,-3.66
290.72,0.22,3.86,0.25,3.88,-3.88,-3.50,-4.59,-3.66,-3.63,-3.63
293.63,0.14,3.75,0.21,3.81,-3.81,-3.43,-4.51,-3.67,-3.60,-3.60
296.57,0.19,3.77,0.17,3.74,-3.74,-3.36,-4.43,-3.55,-3.57,-3.57
299.53,0.26,3.81,0.13,3.68,-3.68,-3.29,-4.35,-3.42,-3.54,-3.54
302.53,0.16,3.69,0.09,3.61,-3.61,-3.22,-4.27,-3.45,-3.52,-3.52
305.55,-0.05,3.44,0.04,3.53,-3.53,-3.16,-4.19,-3.58,-3.49,-3.48
308.61,-0.11,3.36,-0.03,3.44,-3.44,-3.10,-4.11,-3.54,-3.47,-3.46
311.69,-0.18,3.26,-0.07,3.37,-3.37,-3.04,-4.03,-3.55,-3.44,-3.43
314.81,-0.19,3.23,-0.09,3.33,-3.33,-2.98,-3.95,-3.52,-3.42,-3.41
317.96,-0.12,3.28,-0.13,3.27,-3.27,-2.93,-3.87,-3.39,-3.40,-3.39
321.14,-0.11,3.28,-0.19,3.20,-3.20,-2.88,-3.80,-3.30,-3.38,-3.38
324.35,-0.26,3.11,-0.25,3.12,-3.12,-2.83,-3.72,-3.37,-3.36,-3.36
327.59,-0.20,3.16,-0.33,3.02,-3.02,-2.78,-3.65,-3.21,-3.35,-3.35
330.87,-0.39,2.96,-0.42,2.91,-2.91,-2.74,-3.58,-3.30,-3.34,-3.34
334.18,-0.52,2.81,-0.50,2.82,-2.82,-2.70,-3.51,-3.34,-3.33,-3.32
337.52,-0.51,2.81,-0.57,2.74,-2.74,-2.66,-3.45,-3.25,-3.31,-3.31
340.90,-0.52,2.79,-0.64,2.66,-2.66,-2.62,-3.38,-3.18,-3.31,-3.30
344.30,-0.58,2.72,-0.72,2.58,-2.58,-2.58,-3.32,-3.15,-3.30,-3.29
347.75,-0.81,2.49,-0.81,2.49,-2.49,-2.55,-3.26,-3.29,-3.29,-3.29
351.23,-1.03,2.26,-0.89,2.40,-2.40,-2.52,-3.20,-3.43,-3.29,-3.28
354.74,-1.16,2.14,-0.97,2.32,-2.32,-2.49,-3.15,-3.48,-3.29,-3.29
358.28,-1.28,2.01,-1.04,2.25,-2.25,-2.46,-3.10,-3.52,-3.28,-3.28
361.87,-1.18,2.11,-1.08,2.20,-2.20,-2.43,-3.05,-3.38,-3.28,-3.28
365.49,-1.01,2.27,-1.13,2.15,-2.15,-2.41,-3.00,-3.16,-3.28,-3.27
369.14,-1.08,2.21,-1.16,2.12,-2.12,-2.39,-2.96,-3.19,-3.28,-3.28
372.83,-1.19,2.10,-1.19,2.09,-2.09,-2.37,-2.91,-3.28,-3.28,-3.28
376.56,-1.21,2.09,-1.23,2.06,-2.06,-2.35,-2.87,-3.27,-3.29,-3.29
380.33,-1.21,2.08,-1.25,2.04,-2.04,-2.33,-2.84,-3.25,-3.29,-3.28
384.13,-1.20,2.09,-1.25,2.05,-2.05,-2.31,-2.80,-3.24,-3.29,-3.28
387.97,-1.20,2.10,-1.23,2.06,-2.06,-2.30,-2.77,-3.26,-3.30,-3.29
391.85,-1.28,2.03,-1.23,2.07,-2.07,-2.29,-2.74,-3.35,-3.30,-3.30
395.77,-1.23,2.07,-1.23,2.08,-2.08,-2.27,-2.71,-3.30,-3.31,-3.29
399.73,-1.14,2.17,-1.23,2.08,-2.08,-2.26,-2.68,-3.22,-3.31,-3.30
403.72,-1.29,2.02,-1.24,2.08,-2.08,-2.25,-2.65,-3.37,-3.32,-3.30
407.76,-1.24,2.09,-1.23,2.09,-2.09,-2.25,-2.63,-3.33,-3.32,-3.32
411.84,-1.24,2.09,-1.21,2.12,-2.12,-2.24,-2.61,-3.36,-3.32,-3.32
415.96,-1.26,2.07,-1.17,2.15,-2.15,-2.23,-2.59,-3.41,-3.32,-3.32
420.12,-1.11,2.22,-1.13,2.19,-2.19,-2.23,-2.57,-3.30,-3.32,-3.32
424.32,-1.07,2.26,-1.08,2.23,-2.23,-2.22,-2.55,-3.30,-3.32,-3.32
428.56,-1.11,2.21,-1.03,2.28,-2.28,-2.22,-2.54,-3.38,-3.31,-3.31
432.85,-1.06,2.25,-0.97,2.32,-2.32,-2.22,-2.52,-3.38,-3.29,-3.30
437.18,-0.89,2.41,-0.90,2.37,-2.37,-2.22,-2.51,-3.26,-3.27,-3.29
441.55,-0.82,2.44,-0.85,2.40,-2.40,-2.22,-2.49,-3.22,-3.25,-3.25
445.96,-0.78,2.45,-0.79,2.43,-2.43,-2.22,-2.48,-3.21,-3.21,-3.22
450.42,-0.72,2.48,-0.72,2.46,-2.46,-2.22,-2.47,-3.17,-3.18,-3.19
454.93,-0.65,2.50,-0.68,2.46,-2.46,-2.23,-2.46,-3.11,-3.14,-3.14
459.48,-0.50,2.61,-0.64,2.45,-2.45,-2.23,-2.45,-2.95,-3.09,-3.10
464.07,-0.50,2.56,-0.60,2.44,-2.44,-2.23,-2.44,-2.94,-3.05,-3.05
468.71,-0.55,2.45,-0.57,2.43,-2.43,-2.24,-2.43,-2.98,-3.00,-2.99
473.40,-0.52,2.44,-0.52,2.43,-2.43,-2.25,-2.42,-2.95,-2.95,-2.95
