frequency,raw,error,smoothed,error_smoothed,equalization,parametric_eq,fixed_band_eq,equalized_raw,equalized_smoothed,target
20.00,4.70,0.61,4.70,0.61,-0.60,-0.45,-0.19,4.10,4.10,4.08
20.20,4.72,0.58,4.72,0.58,-0.58,-0.46,-0.20,4.14,4.14,4.13
20.40,4.74,0.55,4.74,0.56,-0.56,-0.47,-0.21,4.18,4.18,4.18
20.61,4.76,0.54,4.76,0.53,-0.54,-0.49,-0.21,4.22,4.22,4.21
20.81,4.78,0.51,4.78,0.51,-0.53,-0.50,-0.22,4.25,4.25,4.27
21.02,4.80,0.49,4.80,0.50,-0.51,-0.51,-0.23,4.28,4.28,4.30
21.23,4.82,0.49,4.82,0.49,-0.50,-0.52,-0.23,4.31,4.31,4.32
21.44,4.84,0.49,4.84,0.50,-0.50,-0.53,-0.24,4.34,4.35,4.34
21.66,4.87,0.50,4.87,0.50,-0.50,-0.54,-0.25,4.37,4.37,4.36
21.87,4.89,0.51,4.89,0.51,-0.50,-0.55,-0.26,4.39,4.39,4.37
22.09,4.90,0.50,4.90,0.50,-0.50,-0.56,-0.27,4.40,4.40,4.39
22.31,4.90,0.49,4.90,0.50,-0.50,-0.58,-0.27,4.40,4.40,4.40
22.54,4.90,0.49,4.90,0.49,-0.50,-0.59,-0.28,4.40,4.40,4.40
22.76,4.90,0.49,4.90,0.50,-0.50,-0.60,-0.29,4.40,4.40,4.40
22.99,4.90,0.50,4.90,0.50,-0.50,-0.61,-0.30,4.40,4.40,4.39
23.22,4.90,0.50,4.90,0.50,-0.50,-0.62,-0.31,4.40,4.40,4.39
23.45,4.90,0.50,4.90,0.50,-0.50,-0.62,-0.32,4.40,4.40,4.39
23.69,4.90,0.49,4.90,0.50,-0.50,-0.63,-0.33,4.40,4.40,4.40
23.92,4.90,0.49,4.90,0.49,-0.50,-0.64,-0.34,4.40,4.40,4.40
24.16,4.90,0.49,4.90,0.49,-0.49,-0.65,-0.35,4.40,4.40,4.40
24.40,4.90,0.48,4.90,0.49,-0.49,-0.66,-0.36,4.41,4.41,4.41
24.65,4.90,0.49,4.90,0.49,-0.49,-0.66,-0.37,4.41,4.41,4.40
24.89,4.90,0.49,4.90,0.49,-0.49,-0.67,-0.38,4.41,4.41,4.40
25.14,4.90,0.49,4.90,0.49,-0.49,-0.67,-0.39,4.41,4.41,4.40
25.39,4.90,0.48,4.90,0.49,-0.49,-0.68,-0.40,4.41,4.41,4.41
25.65,4.90,0.48,4.90,0.49,-0.49,-0.68,-0.41,4.41,4.41,4.41
25.91,4.90,0.49,4.90,0.49,-0.49,-0.69,-0.43,4.41,4.41,4.40
26.16,4.90,0.49,4.90,0.49,-0.49,-0.69,-0.44,4.41,4.41,4.40
26.43,4.90,0.49,4.90,0.49,-0.49,-0.69,-0.45,4.41,4.41,4.40
26.69,4.90,0.49,4.90,0.49,-0.49,-0.69,-0.46,4.41,4.41,4.40
26.96,4.90,0.49,4.90,0.49,-0.49,-0.69,-0.47,4.40,4.40,4.40
27.23,4.90,0.49,4.90,0.49,-0.50,-0.69,-0.48,4.40,4.40,4.40
27.50,4.90,0.49,4.90,0.50,-0.50,-0.69,-0.49,4.40,4.40,4.40
27.77,4.90,0.50,4.90,0.50,-0.50,-0.69,-0.50,4.40,4.40,4.39
28.05,4.90,0.50,4.90,0.51,-0.50,-0.69,-0.50,4.39,4.39,4.39
28.33,4.90,0.51,4.90,0.51,-0.51,-0.68,-0.51,4.39,4.39,4.38
28.62,4.90,0.51,4.90,0.51,-0.51,-0.68,-0.52,4.39,4.39,4.38
28.90,4.90,0.50,4.90,0.51,-0.51,-0.67,-0.53,4.39,4.39,4.39
29.19,4.90,0.51,4.90,0.51,-0.51,-0.67,-0.53,4.39,4.39,4.38
29.48,4.90,0.50,4.90,0.51,-0.51,-0.66,-0.54,4.39,4.39,4.39
29.78,4.90,0.51,4.90,0.51,-0.51,-0.66,-0.54,4.39,4.39,4.38
30.08,4.90,0.50,4.90,0.51,-0.51,-0.65,-0.55,4.39,4.39,4.39
30.38,4.90,0.51,4.90,0.51,-0.51,-0.64,-0.55,4.39,4.39,4.38
30.68,4.90,0.51,4.90,0.51,-0.51,-0.64,-0.55,4.38,4.38,4.38
30.99,4.90,0.51,4.90,0.52,-0.52,-0.63,-0.55,4.38,4.38,4.38
31.30,4.90,0.52,4.90,0.52,-0.52,-0.62,-0.55,4.38,4.38,4.37
31.61,4.90,0.52,4.90,0.52,-0.52,-0.61,-0.55,4.38,4.38,4.37
31.93,4.90,0.52,4.90,0.53,-0.53,-0.60,-0.55,4.37,4.37,4.37
32.24,4.90,0.53,4.90,0.53,-0.53,-0.59,-0.54,4.37,4.37,4.36
32.57,4.90,0.53,4.90,0.53,-0.53,-0.59,-0.54,4.36,4.36,4.36
32.89,4.90,0.53,4.90,0.54,-0.54,-0.58,-0.53,4.36,4.36,4.36
33.22,4.90,0.54,4.90,0.54,-0.54,-0.57,-0.53,4.36,4.36,4.35
33.55,4.90,0.54,4.90,0.55,-0.55,-0.56,-0.52,4.35,4.35,4.35
33.89,4.90,0.55,4.90,0.55,-0.56,-0.55,-0.51,4.34,4.34,4.34
34.23,4.90,0.55,4.90,0.56,-0.56,-0.54,-0.51,4.34,4.34,4.34
34.57,4.90,0.56,4.90,0.56,-0.57,-0.53,-0.50,4.33,4.33,4.33
34.92,4.90,0.56,4.90,0.57,-0.57,-0.52,-0.49,4.33,4.33,4.33
35.27,4.90,0.57,4.90,0.58,-0.57,-0.51,-0.48,4.33,4.34,4.32
35.62,4.90,0.57,4.90,0.57,-0.56,-0.50,-0.46,4.34,4.34,4.32
35.97,4.90,0.57,4.89,0.56,-0.55,-0.49,-0.45,4.35,4.34,4.32
36.33,4.86,0.53,4.86,0.54,-0.53,-0.48,-0.44,4.33,4.33,4.32
36.70,4.82,0.50,4.82,0.51,-0.51,-0.47,-0.43,4.31,4.31,4.31
37.06,4.79,0.47,4.79,0.48,-0.49,-0.47,-0.41,4.30,4.31,4.31
37.43,4.78,0.45,4.78,0.46,-0.46,-0.46,-0.40,4.31,4.31,4.32
37.81,4.77,0.44,4.76,0.44,-0.44,-0.45,-0.39,4.33,4.33,4.32
38.19,4.75,0.43,4.75,0.42,-0.42,-0.44,-0.37,4.33,4.33,4.31
38.57,4.73,0.40,4.73,0.40,-0.40,-0.43,-0.36,4.33,4.32,4.32
38.95,4.70,0.36,4.71,0.38,-0.39,-0.42,-0.34,4.31,4.32,4.33
39.34,4.70,0.37,4.70,0.37,-0.38,-0.42,-0.33,4.32,4.32,4.32
39.74,4.70,0.37,4.70,0.37,-0.38,-0.41,-0.31,4.32,4.32,4.32
40.14,4.70,0.37,4.70,0.38,-0.38,-0.40,-0.30,4.32,4.32,4.32
40.54,4.70,0.37,4.70,0.38,-0.38,-0.40,-0.29,4.32,4.32,4.32
40.94,4.70,0.38,4.70,0.38,-0.38,-0.39,-0.27,4.32,4.32,4.31
41.35,4.70,0.38,4.70,0.39,-0.37,-0.38,-0.26,4.32,4.33,4.31
41.76,4.70,0.39,4.69,0.39,-0.36,-0.38,-0.24,4.33,4.33,4.30
42.18,4.68,0.37,4.67,0.37,-0.35,-0.37,-0.23,4.33,4.33,4.30
42.60,4.64,0.34,4.64,0.35,-0.33,-0.36,-0.21,4.31,4.31,4.29
43.03,4.60,0.31,4.59,0.31,-0.31,-0.36,-0.20,4.29,4.28,4.28
43.46,4.55,0.27,4.55,0.27,-0.30,-0.35,-0.18,4.25,4.25,4.27
43.90,4.50,0.24,4.51,0.26,-0.29,-0.35,-0.17,4.21,4.22,4.25
44.33,4.49,0.25,4.49,0.25,-0.28,-0.34,-0.15,4.21,4.21,4.23
44.78,4.49,0.27,4.48,0.27,-0.28,-0.34,-0.14,4.21,4.20,4.21
45.23,4.49,0.28,4.49,0.29,-0.28,-0.33,-0.12,4.21,4.21,4.20
45.68,4.49,0.29,4.49,0.30,-0.28,-0.33,-0.11,4.21,4.21,4.19
46.13,4.49,0.31,4.49,0.31,-0.28,-0.32,-0.09,4.21,4.21,4.17
46.60,4.48,0.30,4.48,0.31,-0.27,-0.32,-0.08,4.21,4.21,4.17
47.06,4.46,0.30,4.44,0.28,-0.26,-0.31,-0.07,4.20,4.18,4.15
47.53,4.39,0.24,4.39,0.24,-0.25,-0.31,-0.05,4.14,4.14,4.14
48.01,4.32,0.17,4.34,0.20,-0.23,-0.31,-0.04,4.09,4.11,4.14
48.49,4.31,0.18,4.30,0.18,-0.22,-0.30,-0.02,4.09,4.08,4.12
48.97,4.29,0.18,4.29,0.18,-0.22,-0.30,-0.01,4.07,4.07,4.10
49.46,4.29,0.20,4.29,0.20,-0.21,-0.30,0.00,4.08,4.08,4.08
49.96,4.29,0.22,4.29,0.22,-0.21,-0.30,0.02,4.08,4.08,4.06
50.46,4.29,0.23,4.29,0.24,-0.21,-0.29,0.03,4.08,4.08,4.05
50.96,4.29,0.24,4.27,0.23,-0.21,-0.29,0.04,4.08,4.07,4.04
51.47,4.24,0.21,4.24,0.21,-0.20,-0.29,0.05,4.04,4.04,4.02
51.99,4.19,0.17,4.20,0.19,-0.18,-0.29,0.07,4.01,4.02,4.01
52.51,4.16,0.15,4.16,0.15,-0.16,-0.28,0.08,4.00,4.00,4.00
53.03,4.14,0.13,4.12,0.12,-0.13,-0.28,0.09,4.01,3.99,4.00
53.56,4.08,0.09,4.08,0.10,-0.11,-0.28,0.10,3.97,3.98,3.98
54.10,4.04,0.06,4.04,0.07,-0.08,-0.28,0.11,3.96,3.97,3.97
54.64,4.01,0.05,4.01,0.05,-0.05,-0.28,0.12,3.96,3.95,3.95
55.18,3.98,0.02,3.98,0.03,-0.03,-0.28,0.13,3.95,3.95,3.95
55.74,3.95,0.01,3.95,0.02,-0.01,-0.28,0.14,3.94,3.95,3.93
56.29,3.93,0.00,3.93,0.00,0.01,-0.28,0.14,3.94,3.94,3.92
56.86,3.90,-0.02,3.89,-0.02,0.03,-0.28,0.15,3.93,3.91,3.91
57.42,3.85,-0.04,3.84,-0.05,0.04,-0.28,0.15,3.89,3.88,3.88
58.00,3.79,-0.09,3.81,-0.07,0.05,-0.28,0.16,3.84,3.86,3.87
58.58,3.79,-0.08,3.79,-0.07,0.06,-0.28,0.16,3.85,3.85,3.86
59.16,3.79,-0.06,3.78,-0.06,0.06,-0.28,0.16,3.85,3.85,3.84
59.76,3.78,-0.05,3.77,-0.05,0.07,-0.28,0.16,3.84,3.84,3.82
60.35,3.75,-0.04,3.74,-0.05,0.06,-0.28,0.16,3.81,3.80,3.78
60.96,3.69,-0.06,3.69,-0.05,0.05,-0.28,0.16,3.74,3.75,3.74
61.57,3.64,-0.07,3.65,-0.06,0.04,-0.28,0.16,3.68,3.69,3.70
62.18,3.61,-0.06,3.61,-0.05,0.03,-0.28,0.15,3.64,3.64,3.66
62.80,3.59,-0.03,3.59,-0.03,0.02,-0.28,0.15,3.61,3.62,3.61
63.43,3.58,0.00,3.58,0.00,0.01,-0.28,0.14,3.59,3.59,3.57
64.07,3.56,0.03,3.55,0.02,0.00,-0.28,0.13,3.56,3.55,3.52
64.71,3.51,0.02,3.51,0.02,-0.01,-0.29,0.12,3.49,3.49,3.48
65.35,3.46,0.01,3.46,0.02,-0.03,-0.29,0.11,3.43,3.43,3.44
66.01,3.41,0.01,3.42,0.03,-0.05,-0.29,0.10,3.36,3.37,3.39
66.67,3.40,0.05,3.40,0.05,-0.06,-0.29,0.08,3.34,3.34,3.34
67.33,3.38,0.08,3.38,0.08,-0.07,-0.30,0.07,3.31,3.31,3.29
68.01,3.37,0.11,3.35,0.10,-0.09,-0.30,0.05,3.28,3.26,3.25
68.69,3.31,0.10,3.32,0.11,-0.11,-0.30,0.03,3.20,3.21,3.20
69.37,3.27,0.11,3.28,0.12,-0.13,-0.30,0.01,3.14,3.15,3.15
70.07,3.25,0.14,3.23,0.13,-0.14,-0.31,-0.01,3.11,3.09,3.10
70.77,3.20,0.14,3.21,0.16,-0.16,-0.31,-0.03,3.04,3.05,3.05
71.48,3.18,0.17,3.18,0.19,-0.18,-0.31,-0.05,3.00,3.00,3.00
72.19,3.17,0.23,3.15,0.21,-0.20,-0.32,-0.08,2.97,2.94,2.93
72.91,3.10,0.22,3.10,0.22,-0.22,-0.32,-0.10,2.88,2.88,2.87
73.64,3.04,0.21,3.05,0.23,-0.24,-0.33,-0.12,2.80,2.80,2.82
74.38,3.00,0.23,3.01,0.25,-0.26,-0.33,-0.15,2.74,2.75,2.76
75.12,2.99,0.28,2.99,0.29,-0.27,-0.34,-0.18,2.72,2.72,2.70
75.87,2.99,0.34,2.95,0.30,-0.28,-0.34,-0.20,2.71,2.67,2.64
76.63,2.89,0.29,2.90,0.30,-0.28,-0.35,-0.23,2.61,2.61,2.59
77.40,2.81,0.26,2.83,0.29,-0.29,-0.35,-0.26,2.52,2.54,2.54
78.17,2.77,0.28,2.77,0.27,-0.29,-0.36,-0.29,2.48,2.48,2.48
78.95,2.73,0.28,2.72,0.28,-0.29,-0.37,-0.32,2.43,2.43,2.44
79.74,2.68,0.28,2.67,0.28,-0.30,-0.37,-0.35,2.38,2.37,2.39
80.54,2.62,0.27,2.63,0.28,-0.30,-0.38,-0.38,2.32,2.33,2.34
81.35,2.58,0.28,2.60,0.30,-0.30,-0.39,-0.41,2.28,2.30,2.29
82.16,2.59,0.34,2.58,0.33,-0.31,-0.39,-0.44,2.28,2.27,2.24
82.98,2.56,0.35,2.54,0.34,-0.32,-0.40,-0.47,2.24,2.22,2.20
83.81,2.49,0.33,2.49,0.33,-0.32,-0.41,-0.51,2.16,2.16,2.15
84.65,2.41,0.30,2.43,0.32,-0.33,-0.42,-0.54,2.08,2.10,2.10
85.50,2.38,0.31,2.38,0.32,-0.33,-0.42,-0.57,2.04,2.04,2.06
86.35,2.36,0.34,2.35,0.33,-0.34,-0.43,-0.61,2.02,2.01,2.01
87.22,2.30,0.33,2.30,0.34,-0.34,-0.44,-0.64,1.96,1.96,1.96
88.09,2.27,0.35,2.26,0.35,-0.34,-0.45,-0.68,1.93,1.92,1.91
88.97,2.18,0.32,2.21,0.35,-0.34,-0.46,-0.71,1.84,1.87,1.85
89.86,2.19,0.38,2.16,0.36,-0.34,-0.47,-0.75,1.85,1.82,1.80
90.76,2.11,0.35,2.11,0.36,-0.34,-0.48,-0.79,1.77,1.77,1.75
91.66,2.05,0.34,2.06,0.36,-0.34,-0.49,-0.83,1.71,1.72,1.70
92.58,2.00,0.35,1.99,0.34,-0.34,-0.51,-0.86,1.66,1.65,1.64
93.51,1.93,0.33,1.94,0.34,-0.35,-0.52,-0.90,1.58,1.58,1.59
94.44,1.89,0.33,1.90,0.35,-0.38,-0.53,-0.94,1.51,1.52,1.55
95.39,1.89,0.38,1.88,0.38,-0.42,-0.54,-0.98,1.47,1.47,1.50
96.34,1.89,0.43,1.90,0.44,-0.46,-0.56,-1.02,1.42,1.43,1.45
97.30,1.93,0.52,1.93,0.52,-0.52,-0.57,-1.06,1.41,1.40,1.40
98.28,1.97,0.61,1.97,0.61,-0.59,-0.59,-1.10,1.38,1.38,1.35
99.26,2.00,0.68,2.00,0.69,-0.66,-0.60,-1.14,1.34,1.34,1.31
100.25,2.04,0.77,2.02,0.75,-0.73,-0.62,-1.18,1.30,1.28,1.26
101.25,2.02,0.80,2.03,0.81,-0.81,-0.63,-1.22,1.21,1.22,1.21
102.27,2.02,0.85,2.04,0.87,-0.88,-0.65,-1.26,1.14,1.15,1.16
103.29,2.06,0.94,2.04,0.93,-0.95,-0.67,-1.31,1.11,1.09,1.11
104.32,2.07,0.99,2.07,1.00,-1.01,-0.69,-1.35,1.06,1.06,1.07
105.37,2.09,1.06,2.10,1.08,-1.07,-0.71,-1.39,1.01,1.02,1.02
106.42,2.13,1.15,2.11,1.13,-1.13,-0.73,-1.43,1.00,0.97,0.97
107.48,2.10,1.18,2.10,1.18,-1.18,-0.75,-1.47,0.92,0.92,0.91
108.56,2.08,1.21,2.09,1.22,-1.21,-0.77,-1.51,0.87,0.87,0.86
109.64,2.06,1.24,2.06,1.25,-1.23,-0.79,-1.54,0.82,0.83,0.81
110.74,2.04,1.28,2.03,1.27,-1.24,-0.81,-1.58,0.79,0.79,0.75
111.85,1.99,1.27,1.97,1.26,-1.24,-0.84,-1.62,0.75,0.73,0.71
112.97,1.88,1.22,1.88,1.22,-1.23,-0.86,-1.65,0.65,0.65,0.65
114.10,1.77,1.16,1.79,1.18,-1.21,-0.89,-1.69,0.56,0.58,0.60
115.24,1.70,1.14,1.72,1.17,-1.18,-0.91,-1.72,0.52,0.54,0.55
116.39,1.69,1.18,1.66,1.15,-1.15,-0.94,-1.75,0.54,0.51,0.50
117.55,1.62,1.15,1.60,1.14,-1.12,-0.97,-1.78,0.49,0.48,0.46
118.73,1.51,1.08,1.53,1.11,-1.09,-1.00,-1.81,0.41,0.44,0.42
119.92,1.46,1.06,1.46,1.07,-1.07,-1.03,-1.83,0.39,0.39,0.39
121.12,1.41,1.05,1.40,1.05,-1.05,-1.07,-1.86,0.36,0.35,0.35
122.33,1.36,1.03,1.37,1.05,-1.04,-1.10,-1.88,0.32,0.33,0.32
123.55,1.34,1.04,1.33,1.04,-1.03,-1.14,-1.90,0.31,0.30,0.29
124.79,1.31,1.04,1.29,1.02,-1.04,-1.17,-1.92,0.27,0.25,0.26
126.03,1.25,1.01,1.27,1.04,-1.05,-1.21,-1.93,0.20,0.22,0.23
127.29,1.27,1.05,1.28,1.07,-1.08,-1.25,-1.94,0.18,0.20,0.21
128.57,1.33,1.15,1.31,1.13,-1.13,-1.29,-1.95,0.20,0.18,0.17
129.85,1.37,1.22,1.36,1.21,-1.19,-1.33,-1.96,0.18,0.16,0.14
131.15,1.39,1.27,1.40,1.28,-1.27,-1.38,-1.97,0.12,0.12,0.11
132.46,1.45,1.36,1.45,1.37,-1.38,-1.42,-1.98,0.07,0.08,0.08
133.79,1.53,1.47,1.54,1.48,-1.50,-1.47,-1.98,0.03,0.04,0.05
135.12,1.67,1.64,1.65,1.62,-1.65,-1.52,-1.98,0.02,0.00,0.02
136.48,1.78,1.77,1.78,1.78,-1.81,-1.57,-1.98,-0.03,-0.04,0.00
137.84,1.92,1.95,1.94,1.97,-1.99,-1.63,-1.98,-0.07,-0.05,-0.04
139.22,2.11,2.17,2.12,2.18,-2.19,-1.68,-1.98,-0.08,-0.07,-0.07
140.61,2.34,2.43,2.31,2.40,-2.39,-1.74,-1.98,-0.05,-0.08,-0.10
142.02,2.49,2.60,2.49,2.61,-2.60,-1.80,-1.98,-0.11,-0.11,-0.12
143.44,2.65,2.79,2.65,2.80,-2.80,-1.86,-1.97,-0.15,-0.15,-0.15
144.87,2.78,2.96,2.80,2.98,-2.98,-1.92,-1.97,-0.20,-0.19,-0.19
146.32,2.94,3.16,2.94,3.16,-3.15,-1.99,-1.97,-0.21,-0.22,-0.23
147.78,3.06,3.31,3.04,3.30,-3.30,-2.06,-1.96,-0.24,-0.25,-0.26
149.26,3.10,3.40,3.10,3.41,-3.41,-2.13,-1.96,-0.31,-0.31,-0.31
150.75,3.10,3.46,3.10,3.47,-3.48,-2.20,-1.96,-0.38,-0.37,-0.37
152.26,3.06,3.49,3.07,3.50,-3.50,-2.27,-1.95,-0.44,-0.43,-0.44
153.78,3.01,3.51,3.01,3.51,-3.47,-2.35,-1.95,-0.46,-0.46,-0.51
155.32,2.88,3.45,2.87,3.45,-3.38,-2.42,-1.95,-0.50,-0.51,-0.58
156.88,2.69,3.34,2.67,3.32,-3.23,-2.50,-1.95,-0.54,-0.57,-0.66
158.44,2.37,3.10,2.37,3.11,-3.04,-2.58,-1.95,-0.67,-0.66,-0.74
160.03,2.04,2.85,2.04,2.85,-2.81,-2.66,-1.96,-0.77,-0.77,-0.82
161.63,1.67,2.55,1.69,2.57,-2.56,-2.75,-1.96,-0.89,-0.87,-0.89
163.24,1.38,2.32,1.36,2.31,-2.32,-2.83,-1.96,-0.95,-0.96,-0.95
164.88,1.08,2.07,1.07,2.07,-2.12,-2.91,-1.97,-1.04,-1.05,-1.00
166.53,0.84,1.88,0.84,1.88,-1.99,-3.00,-1.98,-1.15,-1.15,-1.05
168.19,0.70,1.78,0.71,1.80,-1.93,-3.08,-1.99,-1.23,-1.22,-1.09
169.87,0.67,1.79,0.72,1.84,-1.95,-3.16,-2.00,-1.28,-1.23,-1.13
171.57,0.87,2.01,0.83,1.98,-2.06,-3.24,-2.01,-1.19,-1.23,-1.15
173.29,1.07,2.22,1.05,2.20,-2.24,-3.32,-2.02,-1.17,-1.19,-1.16
175.02,1.27,2.43,1.32,2.49,-2.47,-3.40,-2.04,-1.20,-1.14,-1.17
176.77,1.62,2.79,1.60,2.78,-2.73,-3.47,-2.06,-1.11,-1.13,-1.18
178.54,1.91,3.09,1.87,3.05,-3.00,-3.54,-2.08,-1.09,-1.12,-1.19
180.32,2.12,3.29,2.13,3.31,-3.25,-3.61,-2.10,-1.13,-1.12,-1.18
182.13,2.32,3.48,2.34,3.51,-3.47,-3.67,-2.12,-1.15,-1.13,-1.17
183.95,2.52,3.69,2.50,3.67,-3.64,-3.73,-2.14,-1.12,-1.14,-1.18
185.79,2.64,3.81,2.63,3.81,-3.77,-3.78,-2.17,-1.13,-1.14,-1.18
187.65,2.70,3.89,2.70,3.89,-3.85,-3.82,-2.19,-1.16,-1.16,-1.20
189.52,2.72,3.92,2.70,3.91,-3.90,-3.85,-2.22,-1.18,-1.20,-1.21
191.42,2.66,3.88,2.69,3.91,-3.91,-3.88,-2.25,-1.26,-1.23,-1.23
193.33,2.65,3.89,2.67,3.91,-3.91,-3.90,-2.28,-1.26,-1.24,-1.25
195.27,2.66,3.92,2.62,3.88,-3.89,-3.91,-2.32,-1.23,-1.27,-1.27
197.22,2.58,3.86,2.57,3.85,-3.87,-3.92,-2.35,-1.30,-1.31,-1.29
199.19,2.48,3.78,2.51,3.82,-3.86,-3.92,-2.38,-1.38,-1.35,-1.31
201.18,2.47,3.79,2.48,3.81,-3.86,-3.90,-2.42,-1.39,-1.38,-1.33
203.19,2.50,3.84,2.48,3.82,-3.86,-3.88,-2.45,-1.36,-1.38,-1.35
205.23,2.50,3.86,2.50,3.86,-3.87,-3.86,-2.49,-1.37,-1.37,-1.37
207.28,2.50,3.87,2.51,3.89,-3.87,-3.82,-2.52,-1.37,-1.36,-1.38
209.35,2.50,3.89,2.50,3.90,-3.87,-3.79,-2.56,-1.37,-1.37,-1.40
211.44,2.49,3.91,2.48,3.89,-3.86,-3.74,-2.59,-1.37,-1.38,-1.43
213.56,2.42,3.85,2.43,3.87,-3.83,-3.69,-2.63,-1.42,-1.40,-1.44
215.69,2.37,3.81,2.35,3.80,-3.79,-3.64,-2.66,-1.42,-1.44,-1.45
217.85,2.27,3.72,2.25,3.71,-3.73,-3.58,-2.70,-1.46,-1.48,-1.46
220.03,2.14,3.60,2.17,3.65,-3.66,-3.52,-2.73,-1.52,-1.48,-1.47
222.23,2.08,3.57,2.10,3.58,-3.57,-3.46,-2.76,-1.49,-1.48,-1.50
224.45,2.06,3.54,2.01,3.50,-3.48,-3.40,-2.78,-1.43,-1.47,-1.49
226.70,1.93,3.41,1.92,3.40,-3.40,-3.34,-2.81,-1.47,-1.48,-1.49
228.96,1.79,3.26,1.81,3.29,-3.31,-3.28,-2.83,-1.52,-1.50,-1.48
231.25,1.71,3.17,1.74,3.20,-3.23,-3.22,-2.85,-1.53,-1.50,-1.47
233.57,1.70,3.15,1.68,3.14,-3.16,-3.16,-2.86,-1.46,-1.48,-1.46
235.90,1.68,3.12,1.64,3.09,-3.09,-3.10,-2.88,-1.41,-1.45,-1.45
238.26,1.57,3.00,1.60,3.03,-3.02,-3.04,-2.88,-1.45,-1.42,-1.44
240.64,1.55,2.95,1.55,2.96,-2.95,-2.97,-2.89,-1.41,-1.40,-1.41
243.05,1.52,2.89,1.52,2.90,-2.89,-2.91,-2.89,-1.37,-1.37,-1.38
245.48,1.50,2.85,1.50,2.85,-2.82,-2.84,-2.88,-1.32,-1.32,-1.36
247.93,1.45,2.77,1.43,2.76,-2.75,-2.77,-2.87,-1.30,-1.32,-1.33
250.41,1.37,2.67,1.36,2.66,-2.67,-2.70,-2.86,-1.30,-1.31,-1.31
252.92,1.24,2.51,1.29,2.57,-2.59,-2.61,-2.84,-1.35,-1.30,-1.28
255.45,1.25,2.50,1.22,2.48,-2.50,-2.52,-2.81,-1.26,-1.28,-1.26
258.00,1.20,2.43,1.17,2.41,-2.41,-2.42,-2.78,-1.21,-1.23,-1.24
260.58,1.09,2.30,1.13,2.34,-2.31,-2.31,-2.75,-1.22,-1.18,-1.22
263.19,1.06,2.24,1.04,2.23,-2.20,-2.19,-2.71,-1.14,-1.16,-1.19
265.82,0.96,2.12,0.94,2.11,-2.10,-2.08,-2.67,-1.14,-1.15,-1.17
268.48,0.84,1.98,0.84,1.98,-1.99,-1.95,-2.62,-1.15,-1.15,-1.15
271.16,0.70,1.81,0.72,1.84,-1.88,-1.83,-2.57,-1.18,-1.15,-1.12
273.87,0.64,1.73,0.63,1.73,-1.76,-1.71,-2.51,-1.12,-1.12,-1.10
276.61,0.57,1.63,0.57,1.63,-1.63,-1.58,-2.46,-1.07,-1.07,-1.07
279.38,0.50,1.53,0.50,1.54,-1.51,-1.47,-2.40,-1.01,-1.01,-1.04
282.17,0.42,1.43,0.41,1.41,-1.39,-1.35,-2.33,-0.97,-0.98,-1.02
284.99,0.30,1.27,0.30,1.28,-1.27,-1.24,-2.27,-0.97,-0.97,-0.98
287.84,0.18,1.13,0.19,1.14,-1.15,-1.13,-2.20,-0.98,-0.97,-0.96
290.72,0.08,1.00,0.08,1.01,-1.03,-1.02,-2.13,-0.96,-0.95,-0.93
293.63,-0.00,0.89,-0.01,0.89,-0.90,-0.92,-2.06,-0.90,-0.91,-0.90
296.57,-0.08,0.78,-0.08,0.79,-0.76,-0.83,-1.98,-0.85,-0.84,-0.87
299.53,-0.17,0.66,-0.15,0.68,-0.63,-0.74,-1.91,-0.80,-0.78,-0.84
302.53,-0.22,0.59,-0.25,0.56,-0.51,-0.65,-1.83,-0.73,-0.76,-0.82
305.55,-0.35,0.42,-0.37,0.41,-0.41,-0.57,-1.76,-0.76,-0.78,-0.78
308.61,-0.51,0.24,-0.49,0.26,-0.32,-0.49,-1.68,-0.84,-0.81,-0.76
311.69,-0.60,0.12,-0.57,0.15,-0.26,-0.41,-1.60,-0.86,-0.83,-0.73
314.81,-0.58,0.12,-0.58,0.13,-0.20,-0.34,-1.52,-0.78,-0.78,-0.71
317.96,-0.54,0.14,-0.54,0.15,-0.14,-0.27,-1.45,-0.69,-0.68,-0.69
321.14,-0.47,0.20,-0.50,0.18,-0.10,-0.20,-1.37,-0.58,-0.60,-0.68
324.35,-0.49,0.16,-0.50,0.16,-0.08,-0.14,-1.29,-0.57,-0.58,-0.66
327.59,-0.54,0.10,-0.55,0.10,-0.06,-0.08,-1.21,-0.60,-0.60,-0.65
330.87,-0.62,0.01,-0.61,0.02,-0.04,-0.02,-1.14,-0.66,-0.64,-0.64
334.18,-0.66,-0.05,-0.65,-0.03,-0.01,0.03,-1.06,-0.67,-0.66,-0.62
337.52,-0.66,-0.06,-0.66,-0.06,0.02,0.08,-0.98,-0.64,-0.64,-0.61
340.90,-0.66,-0.07,-0.67,-0.07,0.06,0.13,-0.91,-0.61,-0.61,-0.60
344.30,-0.66,-0.08,-0.67,-0.08,0.09,0.17,-0.83,-0.58,-0.58,-0.59
347.75,-0.69,-0.11,-0.68,-0.10,0.11,0.21,-0.75,-0.58,-0.57,-0.59
351.23,-0.68,-0.11,-0.70,-0.12,0.13,0.25,-0.68,-0.55,-0.57,-0.58
354.74,-0.73,-0.15,-0.72,-0.14,0.15,0.29,-0.60,-0.58,-0.57,-0.59
358.28,-0.75,-0.18,-0.74,-0.17,0.18,0.32,-0.53,-0.57,-0.56,-0.58
361.87,-0.76,-0.19,-0.78,-0.21,0.21,0.35,-0.46,-0.55,-0.57,-0.58
365.49,-0.82,-0.26,-0.82,-0.25,0.26,0.38,-0.38,-0.57,-0.56,-0.57
369.14,-0.87,-0.30,-0.87,-0.30,0.30,0.41,-0.31,-0.57,-0.57,-0.58
372.83,-0.92,-0.35,-0.93,-0.35,0.34,0.43,-0.24,-0.58,-0.59,-0.58
376.56,-0.98,-0.40,-0.97,-0.39,0.38,0.45,-0.17,-0.60,-0.59,-0.59
380.33,-1.01,-0.44,-1.01,-0.43,0.41,0.47,-0.10,-0.60,-0.60,-0.58
384.13,-1.03,-0.46,-1.05,-0.47,0.45,0.49,-0.03,-0.58,-0.60,-0.58
387.97,-1.08,-0.50,-1.07,-0.49,0.48,0.51,0.04,-0.60,-0.59,-0.59
391.85,-1.10,-0.51,-1.08,-0.50,0.52,0.52,0.11,-0.59,-0.57,-0.60
395.77,-1.10,-0.52,-1.11,-0.52,0.55,0.54,0.18,-0.55,-0.56,-0.59
399.73,-1.11,-0.52,-1.15,-0.55,0.58,0.55,0.25,-0.54,-0.57,-0.60
403.72,-1.22,-0.63,-1.21,-0.61,0.61,0.56,0.32,-0.61,-0.60,-0.60
407.76,-1.29,-0.68,-1.27,-0.66,0.64,0.57,0.38,-0.65,-0.63,-0.62
411.84,-1.31,-0.70,-1.31,-0.69,0.67,0.58,0.45,-0.64,-0.64,-0.62
415.96,-1.31,-0.70,-1.32,-0.70,0.70,0.59,0.51,-0.61,-0.62,-0.62
420.12,-1.31,-0.70,-1.33,-0.72,0.73,0.60,0.57,-0.58,-0.60,-0.62
424.32,-1.36,-0.75,-1.35,-0.74,0.75,0.61,0.63,-0.61,-0.60,-0.62
428.56,-1.38,-0.78,-1.37,-0.77,0.76,0.62,0.69,-0.62,-0.61,-0.61
432.85,-1.38,-0.79,-1.38,-0.78,0.77,0.63,0.75,-0.62,-0.61,-0.60
437.18,-1.35,-0.77,-1.36,-0.78,0.77,0.63,0.81,-0.59,-0.59,-0.59
441.55,-1.32,-0.78,-1.32,-0.77,0.76,0.64,0.86,-0.56,-0.56,-0.55
445.96,-1.27,-0.76,-1.27,-0.76,0.76,0.65,0.91,-0.52,-0.52,-0.52
450.42,-1.22,-0.74,-1.22,-0.74,0.74,0.65,0.96,-0.48,-0.48,-0.49
454.93,-1.16,-0.73,-1.16,-0.72,0.73,0.66,1.00,-0.43,-0.43,-0.44
459.48,-1.10,-0.71,-1.10,-0.71,0.72,0.66,1.05,-0.39,-0.39,-0.40
464.07,-1.04,-0.70,-1.04,-0.70,0.70,0.67,1.09,-0.34,-0.34,-0.35
468.71,-0.99,-0.71,-0.98,-0.69,0.69,0.67,1.12,-0.30,-0.29,-0.29
473.40,-0.92,-0.68,-0.93,-0.69,0.69,0.68,1.16,-0.23,-0.24,-0.25
478.13,-0.87,-0.69,-0.87,-0.68,0.69,0.68,1.19,-0.19,-0.19,-0.19
482.91,-0.82,-0.68,-0.82,-0.68,0.68,0.69,1.21,-0.14,-0.14,-0.15
487.74,-0.78,-0.68,-0.78,-0.68,0.68,0.69,1.24,-0.10,-0.10,-0.11
492.62,-0.75,-0.70,-0.75,-0.69,0.68,0.70,1.25,-0.07,-0.07,-0.06
497.55,-0.72,-0.69,-0.72,-0.69,0.68,0.70,1.27,-0.04,-0.04,-0.04
502.52,-0.69,-0.69,-0.69,-0.68,0.68,0.71,1.28,-0.02,-0.02,-0.01
507.55,-0.67,-0.68,-0.67,-0.68,0.67,0.71,1.29,0.00,0.00,0.00
