frequency,raw,error,smoothed,error_smoothed,equalization,parametric_eq,fixed_band_eq,equalized_raw,equalized_smoothed,target
20.00,-2.19,-4.55,-2.20,-4.56,4.56,3.91,1.49,2.37,2.36,2.36
20.20,-2.09,-4.50,-2.08,-4.50,4.50,3.90,1.53,2.41,2.41,2.41
20.40,-1.99,-4.45,-1.98,-4.44,4.44,3.89,1.58,2.45,2.46,2.46
20.61,-1.88,-4.38,-1.88,-4.38,4.38,3.88,1.62,2.50,2.50,2.49
20.81,-1.78,-4.32,-1.78,-4.33,4.33,3.87,1.67,2.56,2.55,2.55
21.02,-1.69,-4.27,-1.70,-4.28,4.29,3.86,1.72,2.60,2.59,2.58
21.23,-1.64,-4.24,-1.64,-4.24,4.25,3.85,1.77,2.61,2.61,2.60
21.44,-1.59,-4.21,-1.59,-4.21,4.21,3.84,1.83,2.62,2.63,2.62
21.66,-1.54,-4.19,-1.54,-4.18,4.19,3.83,1.88,2.65,2.64,2.64
21.87,-1.50,-4.15,-1.50,-4.16,4.16,3.82,1.94,2.66,2.66,2.66
22.09,-1.46,-4.13,-1.47,-4.14,4.14,3.81,2.00,2.68,2.68,2.67
22.31,-1.44,-4.12,-1.44,-4.12,4.12,3.80,2.05,2.68,2.68,2.68
22.54,-1.43,-4.11,-1.43,-4.11,4.11,3.79,2.12,2.67,2.68,2.68
22.76,-1.41,-4.09,-1.41,-4.09,4.09,3.77,2.18,2.68,2.68,2.68
22.99,-1.39,-4.06,-1.39,-4.07,4.07,3.76,2.24,2.68,2.68,2.67
23.22,-1.36,-4.03,-1.36,-4.04,4.04,3.75,2.31,2.68,2.68,2.67
23.45,-1.33,-4.00,-1.33,-4.01,4.01,3.74,2.37,2.68,2.68,2.67
23.69,-1.29,-3.98,-1.30,-3.98,3.96,3.72,2.44,2.67,2.67,2.68
23.92,-1.26,-3.94,-1.25,-3.94,3.92,3.71,2.51,2.66,2.66,2.68
24.16,-1.21,-3.89,-1.20,-3.89,3.87,3.70,2.58,2.66,2.67,2.68
24.40,-1.14,-3.83,-1.14,-3.83,3.83,3.68,2.65,2.69,2.69,2.69
24.65,-1.08,-3.77,-1.08,-3.76,3.80,3.67,2.73,2.72,2.72,2.68
24.89,-1.02,-3.70,-1.03,-3.72,3.77,3.66,2.80,2.75,2.74,2.68
25.14,-1.00,-3.69,-1.01,-3.70,3.74,3.64,2.87,2.74,2.73,2.68
25.39,-1.01,-3.70,-1.01,-3.70,3.71,3.63,2.95,2.70,2.70,2.69
25.65,-1.02,-3.71,-1.02,-3.71,3.67,3.61,3.02,2.65,2.65,2.69
25.91,-1.03,-3.71,-1.02,-3.70,3.64,3.60,3.10,2.61,2.62,2.68
26.16,-0.98,-3.66,-0.97,-3.66,3.60,3.58,3.17,2.62,2.63,2.68
26.43,-0.90,-3.59,-0.90,-3.58,3.57,3.57,3.24,2.67,2.67,2.68
26.69,-0.81,-3.49,-0.81,-3.50,3.53,3.55,3.32,2.72,2.72,2.68
26.96,-0.73,-3.42,-0.75,-3.44,3.49,3.54,3.39,2.76,2.74,2.68
27.23,-0.73,-3.41,-0.73,-3.41,3.46,3.52,3.46,2.73,2.73,2.68
27.50,-0.74,-3.42,-0.73,-3.41,3.43,3.51,3.52,2.69,2.70,2.68
27.77,-0.74,-3.41,-0.74,-3.42,3.41,3.49,3.59,2.67,2.67,2.67
28.05,-0.75,-3.42,-0.74,-3.41,3.40,3.47,3.65,2.65,2.66,2.67
28.33,-0.73,-3.39,-0.74,-3.41,3.38,3.45,3.71,2.65,2.64,2.66
28.62,-0.72,-3.38,-0.72,-3.39,3.36,3.44,3.76,2.64,2.64,2.66
28.90,-0.70,-3.37,-0.69,-3.36,3.33,3.42,3.81,2.63,2.64,2.67
29.19,-0.65,-3.31,-0.64,-3.31,3.30,3.40,3.86,2.65,2.65,2.66
29.48,-0.58,-3.25,-0.58,-3.25,3.26,3.38,3.90,2.69,2.69,2.67
29.78,-0.51,-3.18,-0.52,-3.18,3.23,3.37,3.93,2.72,2.71,2.66
30.08,-0.46,-3.14,-0.48,-3.15,3.19,3.35,3.96,2.73,2.71,2.67
30.38,-0.47,-3.13,-0.47,-3.14,3.15,3.33,3.99,2.68,2.67,2.66
30.68,-0.48,-3.14,-0.48,-3.14,3.11,3.31,4.01,2.63,2.63,2.66
30.99,-0.49,-3.15,-0.47,-3.13,3.08,3.29,4.02,2.59,2.61,2.66
31.30,-0.42,-3.08,-0.42,-3.08,3.05,3.27,4.02,2.63,2.64,2.65
31.61,-0.35,-3.00,-0.35,-3.01,3.04,3.25,4.02,2.69,2.68,2.65
31.93,-0.28,-2.94,-0.30,-2.95,3.01,3.23,4.02,2.73,2.71,2.65
32.24,-0.29,-2.94,-0.30,-2.95,2.99,3.21,4.00,2.70,2.68,2.64
32.57,-0.33,-2.97,-0.33,-2.97,2.96,3.19,3.98,2.63,2.63,2.64
32.89,-0.37,-3.01,-0.35,-2.99,2.93,3.17,3.96,2.56,2.58,2.64
33.22,-0.33,-2.96,-0.32,-2.96,2.91,3.15,3.93,2.58,2.59,2.63
33.55,-0.26,-2.89,-0.26,-2.89,2.90,3.12,3.90,2.64,2.64,2.63
33.89,-0.18,-2.80,-0.21,-2.83,2.89,3.10,3.86,2.71,2.68,2.62
34.23,-0.18,-2.80,-0.20,-2.82,2.87,3.08,3.81,2.69,2.68,2.62
34.57,-0.22,-2.83,-0.21,-2.83,2.84,3.06,3.77,2.62,2.62,2.61
34.92,-0.25,-2.86,-0.23,-2.84,2.80,3.03,3.71,2.55,2.57,2.61
35.27,-0.21,-2.82,-0.21,-2.81,2.75,3.01,3.66,2.54,2.54,2.60
35.62,-0.14,-2.75,-0.15,-2.75,2.70,2.99,3.60,2.56,2.56,2.60
35.97,-0.07,-2.67,-0.07,-2.67,2.66,2.96,3.55,2.59,2.59,2.60
36.33,0.01,-2.59,0.01,-2.59,2.62,2.94,3.49,2.63,2.63,2.60
36.70,0.08,-2.52,0.08,-2.52,2.57,2.92,3.43,2.65,2.65,2.59
37.06,0.14,-2.46,0.12,-2.48,2.52,2.89,3.36,2.66,2.64,2.59
37.43,0.13,-2.47,0.13,-2.47,2.49,2.87,3.30,2.62,2.62,2.60
37.81,0.12,-2.48,0.13,-2.47,2.47,2.84,3.24,2.59,2.59,2.60
38.19,0.12,-2.47,0.12,-2.48,2.46,2.82,3.17,2.58,2.58,2.59
38.57,0.13,-2.47,0.13,-2.47,2.46,2.79,3.11,2.59,2.59,2.60
38.95,0.15,-2.46,0.14,-2.46,2.46,2.76,3.05,2.61,2.60,2.61
39.34,0.15,-2.45,0.15,-2.46,2.46,2.74,2.99,2.61,2.61,2.60
39.74,0.14,-2.46,0.15,-2.46,2.46,2.71,2.93,2.60,2.61,2.60
40.14,0.14,-2.46,0.14,-2.46,2.46,2.68,2.87,2.60,2.60,2.60
40.54,0.14,-2.46,0.14,-2.46,2.46,2.66,2.81,2.60,2.60,2.60
40.94,0.14,-2.45,0.14,-2.46,2.47,2.63,2.76,2.61,2.61,2.59
41.35,0.14,-2.45,0.14,-2.45,2.47,2.60,2.70,2.61,2.61,2.59
41.76,0.14,-2.44,0.14,-2.45,2.46,2.57,2.65,2.60,2.60,2.58
42.18,0.13,-2.45,0.12,-2.46,2.45,2.54,2.60,2.58,2.57,2.58
42.60,0.12,-2.45,0.11,-2.46,2.43,2.52,2.55,2.55,2.54,2.57
43.03,0.10,-2.46,0.13,-2.44,2.40,2.49,2.50,2.50,2.53,2.56
43.46,0.16,-2.39,0.16,-2.39,2.37,2.46,2.46,2.53,2.53,2.55
43.90,0.22,-2.32,0.20,-2.33,2.34,2.43,2.41,2.56,2.54,2.53
44.33,0.24,-2.27,0.24,-2.27,2.30,2.40,2.37,2.54,2.55,2.51
44.78,0.26,-2.24,0.26,-2.24,2.27,2.37,2.33,2.53,2.53,2.49
45.23,0.27,-2.22,0.26,-2.22,2.24,2.34,2.29,2.51,2.50,2.48
45.68,0.26,-2.21,0.26,-2.21,2.22,2.31,2.26,2.48,2.48,2.47
46.13,0.25,-2.20,0.25,-2.21,2.21,2.27,2.22,2.46,2.46,2.45
46.60,0.24,-2.21,0.24,-2.21,2.20,2.24,2.19,2.44,2.44,2.45
47.06,0.22,-2.21,0.24,-2.20,2.20,2.21,2.16,2.42,2.44,2.43
47.53,0.24,-2.18,0.24,-2.19,2.19,2.18,2.13,2.43,2.44,2.42
48.01,0.26,-2.16,0.23,-2.19,2.18,2.15,2.11,2.44,2.41,2.42
48.49,0.22,-2.18,0.22,-2.19,2.16,2.11,2.08,2.38,2.37,2.40
48.97,0.18,-2.20,0.22,-2.16,2.13,2.08,2.06,2.31,2.36,2.38
49.46,0.25,-2.11,0.25,-2.11,2.11,2.05,2.03,2.36,2.36,2.36
49.96,0.33,-2.02,0.30,-2.05,2.08,2.01,2.01,2.41,2.38,2.34
50.46,0.34,-1.99,0.34,-1.99,2.04,1.98,1.99,2.38,2.38,2.33
50.96,0.34,-1.98,0.33,-1.99,2.00,1.94,1.97,2.34,2.33,2.32
51.47,0.33,-1.97,0.32,-1.98,1.95,1.91,1.96,2.28,2.28,2.30
51.99,0.31,-1.98,0.35,-1.95,1.91,1.87,1.94,2.22,2.25,2.29
52.51,0.40,-1.89,0.39,-1.89,1.86,1.84,1.92,2.26,2.26,2.28
53.03,0.48,-1.80,0.46,-1.82,1.82,1.80,1.90,2.30,2.28,2.28
53.56,0.51,-1.75,0.51,-1.75,1.78,1.77,1.89,2.29,2.30,2.26
54.10,0.54,-1.72,0.54,-1.72,1.75,1.73,1.87,2.29,2.29,2.25
54.64,0.54,-1.69,0.54,-1.70,1.72,1.69,1.86,2.26,2.27,2.23
55.18,0.54,-1.69,0.54,-1.69,1.70,1.66,1.84,2.24,2.24,2.23
55.74,0.54,-1.67,0.54,-1.68,1.68,1.62,1.82,2.22,2.22,2.21
56.29,0.53,-1.67,0.53,-1.67,1.66,1.58,1.81,2.19,2.19,2.20
56.86,0.52,-1.67,0.51,-1.67,1.64,1.54,1.79,2.16,2.16,2.19
57.42,0.51,-1.65,0.51,-1.66,1.62,1.51,1.77,2.13,2.13,2.16
58.00,0.50,-1.65,0.53,-1.62,1.60,1.47,1.75,2.10,2.13,2.15
58.58,0.58,-1.57,0.58,-1.56,1.57,1.43,1.73,2.15,2.15,2.14
59.16,0.64,-1.48,0.62,-1.50,1.54,1.39,1.70,2.18,2.17,2.12
59.76,0.65,-1.46,0.63,-1.47,1.51,1.35,1.68,2.16,2.15,2.10
60.35,0.61,-1.45,0.61,-1.46,1.48,1.31,1.65,2.09,2.08,2.06
60.96,0.54,-1.48,0.57,-1.46,1.45,1.27,1.62,1.99,2.01,2.02
61.57,0.54,-1.45,0.54,-1.44,1.41,1.23,1.59,1.95,1.95,1.98
62.18,0.54,-1.40,0.53,-1.41,1.38,1.19,1.56,1.92,1.91,1.94
62.80,0.54,-1.35,0.54,-1.36,1.35,1.15,1.52,1.89,1.89,1.89
63.43,0.54,-1.31,0.54,-1.31,1.31,1.11,1.48,1.85,1.85,1.85
64.07,0.54,-1.27,0.54,-1.27,1.28,1.06,1.45,1.82,1.82,1.80
64.71,0.54,-1.22,0.54,-1.22,1.24,1.02,1.40,1.78,1.78,1.76
65.35,0.54,-1.18,0.54,-1.18,1.20,0.98,1.36,1.74,1.74,1.72
66.01,0.54,-1.13,0.52,-1.15,1.16,0.94,1.31,1.70,1.69,1.67
66.67,0.49,-1.13,0.50,-1.13,1.13,0.89,1.26,1.62,1.63,1.62
67.33,0.46,-1.11,0.47,-1.11,1.10,0.85,1.21,1.56,1.56,1.57
68.01,0.44,-1.09,0.44,-1.09,1.06,0.80,1.16,1.50,1.51,1.53
68.69,0.44,-1.04,0.44,-1.05,1.03,0.76,1.11,1.47,1.47,1.48
69.37,0.44,-0.99,0.44,-0.99,1.00,0.72,1.05,1.44,1.45,1.43
70.07,0.44,-0.94,0.44,-0.94,0.97,0.67,1.00,1.41,1.41,1.38
70.77,0.44,-0.89,0.42,-0.91,0.93,0.63,0.94,1.37,1.35,1.33
71.48,0.39,-0.89,0.39,-0.89,0.88,0.58,0.88,1.28,1.27,1.28
72.19,0.34,-0.87,0.36,-0.86,0.84,0.53,0.81,1.18,1.20,1.21
72.91,0.34,-0.81,0.34,-0.82,0.79,0.49,0.75,1.13,1.13,1.15
73.64,0.34,-0.76,0.34,-0.77,0.75,0.44,0.69,1.09,1.09,1.10
74.38,0.34,-0.70,0.35,-0.70,0.71,0.39,0.62,1.05,1.06,1.04
75.12,0.34,-0.64,0.34,-0.64,0.67,0.35,0.56,1.01,1.02,0.98
75.87,0.34,-0.58,0.32,-0.61,0.63,0.30,0.49,0.97,0.95,0.92
76.63,0.28,-0.59,0.29,-0.59,0.59,0.25,0.42,0.87,0.88,0.87
77.40,0.24,-0.58,0.26,-0.56,0.55,0.20,0.36,0.79,0.81,0.82
78.17,0.24,-0.52,0.24,-0.54,0.51,0.15,0.29,0.75,0.75,0.76
78.95,0.24,-0.48,0.24,-0.49,0.47,0.10,0.22,0.71,0.71,0.72
79.74,0.24,-0.43,0.24,-0.43,0.43,0.05,0.15,0.67,0.67,0.67
80.54,0.24,-0.38,0.24,-0.38,0.39,0.00,0.08,0.63,0.63,0.62
81.35,0.24,-0.33,0.24,-0.34,0.34,-0.05,0.01,0.58,0.58,0.57
82.16,0.24,-0.28,0.24,-0.29,0.30,-0.10,-0.06,0.54,0.54,0.52
82.98,0.24,-0.24,0.24,-0.24,0.25,-0.15,-0.14,0.49,0.49,0.48
83.81,0.24,-0.19,0.24,-0.19,0.20,-0.20,-0.21,0.44,0.44,0.43
84.65,0.24,-0.14,0.24,-0.15,0.15,-0.25,-0.28,0.39,0.39,0.38
85.50,0.24,-0.10,0.24,-0.10,0.10,-0.31,-0.35,0.34,0.34,0.34
86.35,0.24,-0.05,0.23,-0.06,0.04,-0.36,-0.43,0.28,0.27,0.29
87.22,0.24,-0.01,0.25,0.00,-0.02,-0.41,-0.50,0.22,0.23,0.24
88.09,0.25,0.06,0.28,0.08,-0.09,-0.47,-0.57,0.16,0.19,0.19
88.97,0.34,0.20,0.31,0.17,-0.16,-0.52,-0.65,0.18,0.15,0.13
89.86,0.34,0.26,0.34,0.25,-0.24,-0.57,-0.72,0.10,0.10,0.08
90.76,0.35,0.31,0.35,0.32,-0.31,-0.63,-0.80,0.04,0.04,0.03
91.66,0.35,0.37,0.37,0.39,-0.39,-0.68,-0.88,-0.04,-0.02,-0.02
92.58,0.40,0.48,0.40,0.47,-0.47,-0.74,-0.95,-0.07,-0.07,-0.08
93.51,0.45,0.57,0.43,0.55,-0.55,-0.80,-1.03,-0.10,-0.12,-0.13
94.44,0.46,0.63,0.45,0.62,-0.62,-0.85,-1.11,-0.16,-0.17,-0.17
95.39,0.45,0.67,0.46,0.67,-0.69,-0.91,-1.18,-0.24,-0.23,-0.22
96.34,0.46,0.73,0.48,0.74,-0.75,-0.97,-1.26,-0.29,-0.27,-0.27
97.30,0.51,0.83,0.51,0.83,-0.80,-1.02,-1.34,-0.29,-0.29,-0.32
98.28,0.56,0.92,0.54,0.90,-0.85,-1.08,-1.42,-0.29,-0.31,-0.37
99.26,0.54,0.95,0.53,0.94,-0.90,-1.14,-1.50,-0.36,-0.37,-0.41
100.25,0.50,0.96,0.50,0.95,-0.95,-1.20,-1.58,-0.45,-0.46,-0.46
101.25,0.45,0.96,0.46,0.97,-1.01,-1.26,-1.65,-0.56,-0.55,-0.51
102.27,0.45,1.01,0.47,1.02,-1.08,-1.32,-1.73,-0.63,-0.61,-0.56
103.29,0.52,1.13,0.51,1.11,-1.16,-1.38,-1.81,-0.64,-0.65,-0.61
104.32,0.59,1.24,0.58,1.23,-1.24,-1.44,-1.89,-0.65,-0.67,-0.65
105.37,0.65,1.34,0.65,1.35,-1.34,-1.50,-1.97,-0.69,-0.69,-0.70
106.42,0.71,1.46,0.72,1.47,-1.44,-1.56,-2.04,-0.73,-0.72,-0.75
107.48,0.78,1.59,0.77,1.57,-1.54,-1.62,-2.12,-0.76,-0.77,-0.81
108.56,0.83,1.69,0.82,1.68,-1.64,-1.68,-2.19,-0.81,-0.82,-0.86
109.64,0.84,1.75,0.86,1.77,-1.74,-1.74,-2.27,-0.90,-0.88,-0.91
110.74,0.89,1.86,0.86,1.82,-1.83,-1.80,-2.34,-0.94,-0.97,-0.97
111.85,0.88,1.89,0.88,1.89,-1.92,-1.87,-2.41,-1.04,-1.04,-1.01
112.97,0.87,1.94,0.92,1.98,-2.00,-1.93,-2.47,-1.13,-1.09,-1.07
114.10,0.98,2.09,0.97,2.08,-2.09,-1.99,-2.54,-1.11,-1.13,-1.12
115.24,1.06,2.22,1.03,2.20,-2.19,-2.06,-2.60,-1.13,-1.16,-1.17
116.39,1.08,2.30,1.09,2.30,-2.29,-2.12,-2.66,-1.21,-1.20,-1.22
117.55,1.13,2.39,1.13,2.39,-2.40,-2.18,-2.72,-1.27,-1.27,-1.26
118.73,1.19,2.49,1.20,2.50,-2.52,-2.25,-2.78,-1.33,-1.32,-1.30
119.92,1.28,2.60,1.30,2.63,-2.64,-2.31,-2.83,-1.36,-1.34,-1.33
121.12,1.42,2.78,1.39,2.75,-2.74,-2.38,-2.87,-1.32,-1.36,-1.37
122.33,1.47,2.86,1.47,2.86,-2.84,-2.44,-2.92,-1.37,-1.38,-1.40
123.55,1.51,2.94,1.54,2.96,-2.94,-2.51,-2.96,-1.43,-1.40,-1.43
124.79,1.59,3.04,1.58,3.03,-3.02,-2.57,-3.00,-1.43,-1.44,-1.46
126.03,1.63,3.12,1.62,3.10,-3.09,-2.63,-3.03,-1.46,-1.47,-1.49
127.29,1.63,3.14,1.64,3.15,-3.14,-2.70,-3.06,-1.51,-1.50,-1.51
128.57,1.64,3.19,1.64,3.18,-3.18,-2.76,-3.09,-1.54,-1.54,-1.55
129.85,1.64,3.22,1.64,3.22,-3.22,-2.83,-3.11,-1.58,-1.58,-1.58
131.15,1.65,3.26,1.65,3.25,-3.26,-2.89,-3.14,-1.61,-1.61,-1.61
132.46,1.65,3.29,1.65,3.28,-3.30,-2.96,-3.15,-1.65,-1.66,-1.64
133.79,1.66,3.33,1.66,3.32,-3.36,-3.02,-3.17,-1.70,-1.70,-1.67
135.12,1.67,3.37,1.69,3.38,-3.41,-3.09,-3.18,-1.74,-1.72,-1.70
136.48,1.74,3.45,1.74,3.46,-3.47,-3.15,-3.19,-1.73,-1.73,-1.72
137.84,1.80,3.56,1.80,3.55,-3.53,-3.22,-3.20,-1.73,-1.74,-1.76
139.22,1.85,3.64,1.84,3.63,-3.59,-3.28,-3.21,-1.74,-1.75,-1.79
140.61,1.87,3.69,1.87,3.68,-3.65,-3.34,-3.22,-1.78,-1.78,-1.82
142.02,1.87,3.71,1.87,3.71,-3.70,-3.41,-3.22,-1.83,-1.83,-1.84
143.44,1.87,3.74,1.87,3.74,-3.75,-3.47,-3.23,-1.88,-1.88,-1.87
144.87,1.87,3.78,1.87,3.77,-3.80,-3.53,-3.23,-1.93,-1.93,-1.91
146.32,1.87,3.82,1.87,3.81,-3.83,-3.59,-3.23,-1.96,-1.96,-1.95
147.78,1.87,3.85,1.87,3.85,-3.86,-3.65,-3.24,-1.99,-1.99,-1.98
149.26,1.87,3.90,1.86,3.89,-3.88,-3.71,-3.24,-2.01,-2.02,-2.03
150.75,1.83,3.92,1.83,3.91,-3.90,-3.77,-3.25,-2.07,-2.08,-2.09
152.26,1.77,3.93,1.77,3.93,-3.92,-3.83,-3.25,-2.15,-2.14,-2.16
153.78,1.69,3.92,1.70,3.92,-3.91,-3.89,-3.26,-2.22,-2.22,-2.23
155.32,1.62,3.92,1.61,3.91,-3.90,-3.95,-3.27,-2.28,-2.29,-2.30
156.88,1.50,3.88,1.51,3.88,-3.86,-4.00,-3.28,-2.36,-2.35,-2.38
158.44,1.40,3.86,1.40,3.85,-3.81,-4.06,-3.29,-2.41,-2.41,-2.46
160.03,1.27,3.81,1.27,3.81,-3.76,-4.11,-3.31,-2.49,-2.49,-2.54
161.63,1.16,3.77,1.13,3.73,-3.73,-4.16,-3.32,-2.57,-2.60,-2.61
163.24,1.00,3.66,1.00,3.66,-3.72,-4.22,-3.34,-2.72,-2.72,-2.67
164.88,0.87,3.59,0.92,3.64,-3.72,-4.27,-3.36,-2.85,-2.80,-2.72
166.53,0.91,3.67,0.90,3.66,-3.75,-4.31,-3.39,-2.84,-2.85,-2.77
168.19,0.97,3.78,0.95,3.76,-3.80,-4.36,-3.41,-2.83,-2.85,-2.81
169.87,1.03,3.88,1.05,3.89,-3.87,-4.41,-3.44,-2.84,-2.82,-2.85
171.57,1.16,4.03,1.15,4.01,-3.96,-4.45,-3.47,-2.80,-2.81,-2.87
173.29,1.25,4.13,1.23,4.11,-4.07,-4.49,-3.50,-2.82,-2.84,-2.88
175.02,1.30,4.19,1.30,4.18,-4.17,-4.53,-3.54,-2.87,-2.88,-2.89
176.77,1.34,4.24,1.36,4.26,-4.27,-4.57,-3.58,-2.93,-2.91,-2.90
178.54,1.43,4.34,1.45,4.35,-4.36,-4.61,-3.62,-2.93,-2.91,-2.91
180.32,1.56,4.46,1.54,4.44,-4.42,-4.64,-3.67,-2.86,-2.88,-2.90
182.13,1.63,4.52,1.62,4.51,-4.47,-4.68,-3.71,-2.84,-2.85,-2.89
183.95,1.65,4.55,1.65,4.55,-4.52,-4.71,-3.77,-2.87,-2.86,-2.90
185.79,1.66,4.56,1.67,4.56,-4.56,-4.74,-3.82,-2.90,-2.89,-2.90
187.65,1.67,4.59,1.67,4.59,-4.60,-4.76,-3.87,-2.93,-2.93,-2.92
189.52,1.69,4.62,1.68,4.61,-4.64,-4.79,-3.93,-2.95,-2.96,-2.93
191.42,1.70,4.65,1.70,4.65,-4.68,-4.81,-3.99,-2.98,-2.98,-2.95
193.33,1.71,4.68,1.74,4.70,-4.73,-4.83,-4.06,-3.02,-2.99,-2.97
195.27,1.80,4.78,1.79,4.77,-4.77,-4.85,-4.12,-2.97,-2.98,-2.99
197.22,1.85,4.86,1.83,4.84,-4.81,-4.87,-4.19,-2.96,-2.98,-3.01
199.19,1.86,4.89,1.86,4.89,-4.86,-4.88,-4.26,-3.00,-3.00,-3.03
201.18,1.86,4.91,1.87,4.91,-4.90,-4.89,-4.33,-3.04,-3.04,-3.05
203.19,1.87,4.94,1.87,4.93,-4.94,-4.90,-4.40,-3.07,-3.07,-3.07
205.23,1.87,4.96,1.87,4.95,-4.97,-4.90,-4.47,-3.10,-3.10,-3.09
207.28,1.87,4.97,1.87,4.97,-4.98,-4.91,-4.55,-3.11,-3.11,-3.10
209.35,1.87,4.99,1.87,4.99,-4.98,-4.91,-4.62,-3.11,-3.11,-3.12
211.44,1.87,5.02,1.87,5.01,-4.98,-4.91,-4.69,-3.11,-3.11,-3.15
213.56,1.86,5.02,1.85,5.00,-4.99,-4.91,-4.77,-3.13,-3.14,-3.16
215.69,1.82,4.99,1.81,4.97,-4.99,-4.90,-4.84,-3.17,-3.18,-3.17
217.85,1.74,4.92,1.77,4.95,-4.99,-4.89,-4.91,-3.25,-3.22,-3.18
220.03,1.74,4.93,1.74,4.93,-4.97,-4.88,-4.98,-3.23,-3.23,-3.19
222.23,1.75,4.97,1.75,4.95,-4.95,-4.87,-5.04,-3.20,-3.20,-3.22
224.45,1.76,4.97,1.77,4.98,-4.92,-4.86,-5.10,-3.16,-3.15,-3.21
226.70,1.77,4.98,1.75,4.95,-4.89,-4.84,-5.16,-3.12,-3.14,-3.21
228.96,1.72,4.91,1.69,4.88,-4.86,-4.82,-5.21,-3.14,-3.18,-3.20
231.25,1.58,4.77,1.62,4.81,-4.84,-4.80,-5.26,-3.26,-3.22,-3.19
233.57,1.55,4.73,1.57,4.75,-4.81,-4.78,-5.30,-3.26,-3.24,-3.18
235.90,1.58,4.75,1.56,4.73,-4.78,-4.76,-5.34,-3.20,-3.21,-3.17
238.26,1.60,4.76,1.59,4.74,-4.75,-4.73,-5.37,-3.15,-3.15,-3.16
240.64,1.62,4.75,1.63,4.75,-4.72,-4.70,-5.39,-3.10,-3.09,-3.13
243.05,1.63,4.73,1.63,4.73,-4.70,-4.67,-5.41,-3.07,-3.07,-3.10
245.48,1.65,4.73,1.62,4.69,-4.69,-4.64,-5.42,-3.04,-3.07,-3.08
247.93,1.59,4.64,1.61,4.65,-4.67,-4.61,-5.41,-3.08,-3.06,-3.05
250.41,1.57,4.60,1.61,4.63,-4.64,-4.58,-5.41,-3.07,-3.03,-3.03
252.92,1.64,4.64,1.61,4.61,-4.61,-4.54,-5.39,-2.97,-3.00,-3.00
255.45,1.64,4.62,1.61,4.59,-4.57,-4.50,-5.36,-2.93,-2.97,-2.98
258.00,1.57,4.53,1.59,4.54,-4.54,-4.47,-5.33,-2.97,-2.95,-2.96
260.58,1.53,4.47,1.55,4.48,-4.50,-4.43,-5.29,-2.97,-2.95,-2.94
263.19,1.54,4.45,1.53,4.44,-4.46,-4.39,-5.24,-2.92,-2.92,-2.91
265.82,1.53,4.42,1.53,4.42,-4.41,-4.34,-5.19,-2.88,-2.87,-2.89
268.48,1.53,4.40,1.52,4.38,-4.35,-4.30,-5.12,-2.82,-2.83,-2.87
271.16,1.49,4.33,1.48,4.32,-4.29,-4.26,-5.05,-2.81,-2.82,-2.84
273.87,1.42,4.24,1.42,4.24,-4.24,-4.21,-4.98,-2.82,-2.81,-2.82
276.61,1.36,4.15,1.37,4.15,-4.18,-4.17,-4.90,-2.82,-2.81,-2.79
279.38,1.33,4.09,1.33,4.09,-4.12,-4.12,-4.82,-2.79,-2.79,-2.76
282.17,1.32,4.06,1.33,4.06,-4.06,-4.08,-4.73,-2.74,-2.73,-2.74
284.99,1.33,4.03,1.32,4.02,-4.00,-4.03,-4.64,-2.67,-2.68,-2.70
287.84,1.34,4.01,1.30,3.97,-3.96,-3.98,-4.54,-2.62,-2.66,-2.68
290.72,1.23,3.88,1.27,3.91,-3.92,-3.94,-4.45,-2.69,-2.65,-2.65
293.63,1.23,3.85,1.25,3.86,-3.89,-3.89,-4.35,-2.66,-2.64,-2.62
296.57,1.26,3.85,1.25,3.84,-3.86,-3.84,-4.25,-2.60,-2.61,-2.59
299.53,1.29,3.85,1.28,3.84,-3.84,-3.79,-4.15,-2.55,-2.56,-2.56
302.53,1.30,3.84,1.30,3.83,-3.82,-3.74,-4.04,-2.52,-2.52,-2.54
305.55,1.31,3.81,1.31,3.81,-3.81,-3.69,-3.94,-2.50,-2.49,-2.50
308.61,1.32,3.80,1.32,3.79,-3.79,-3.64,-3.84,-2.47,-2.48,-2.48
311.69,1.32,3.77,1.32,3.77,-3.78,-3.59,-3.74,-2.46,-2.45,-2.45
314.81,1.33,3.76,1.34,3.77,-3.75,-3.54,-3.64,-2.42,-2.41,-2.43
317.96,1.35,3.76,1.34,3.75,-3.73,-3.49,-3.54,-2.38,-2.38,-2.41
321.14,1.36,3.76,1.32,3.71,-3.70,-3.44,-3.44,-2.34,-2.38,-2.40
324.35,1.26,3.64,1.29,3.66,-3.67,-3.39,-3.34,-2.41,-2.38,-2.38
327.59,1.23,3.60,1.25,3.61,-3.64,-3.34,-3.24,-2.41,-2.39,-2.37
330.87,1.23,3.59,1.22,3.57,-3.60,-3.29,-3.15,-2.37,-2.38,-2.36
334.18,1.22,3.56,1.23,3.56,-3.56,-3.24,-3.06,-2.34,-2.33,-2.34
337.52,1.22,3.55,1.21,3.53,-3.51,-3.19,-2.97,-2.29,-2.30,-2.33
340.90,1.18,3.50,1.17,3.48,-3.46,-3.14,-2.88,-2.28,-2.29,-2.32
344.30,1.10,3.41,1.12,3.43,-3.41,-3.09,-2.79,-2.31,-2.29,-2.31
347.75,1.07,3.38,1.07,3.38,-3.37,-3.05,-2.70,-2.30,-2.29,-2.31
351.23,1.03,3.33,1.01,3.31,-3.33,-3.00,-2.62,-2.30,-2.32,-2.30
354.74,0.97,3.28,0.94,3.24,-3.29,-2.95,-2.54,-2.32,-2.35,-2.31
358.28,0.86,3.16,0.91,3.21,-3.25,-2.90,-2.46,-2.39,-2.34,-2.30
361.87,0.88,3.18,0.92,3.21,-3.22,-2.85,-2.38,-2.34,-2.31,-2.30
365.49,0.99,3.28,0.94,3.23,-3.20,-2.80,-2.30,-2.21,-2.26,-2.29
369.14,0.96,3.26,0.94,3.23,-3.19,-2.75,-2.23,-2.23,-2.26,-2.30
372.83,0.88,3.18,0.87,3.17,-3.18,-2.70,-2.16,-2.30,-2.31,-2.30
376.56,0.75,3.06,0.78,3.08,-3.16,-2.66,-2.09,-2.41,-2.38,-2.31
380.33,0.71,3.01,0.75,3.05,-3.10,-2.61,-2.02,-2.39,-2.35,-2.30
384.13,0.75,3.05,0.77,3.07,-3.02,-2.56,-1.95,-2.27,-2.25,-2.30
387.97,0.78,3.09,0.71,3.01,-2.89,-2.51,-1.89,-2.11,-2.18,-2.31
391.85,0.59,2.91,0.53,2.83,-2.73,-2.46,-1.83,-2.14,-2.20,-2.32
395.77,0.17,2.48,0.25,2.57,-2.52,-2.42,-1.77,-2.35,-2.26,-2.31
399.73,-0.13,2.19,-0.11,2.21,-2.28,-2.37,-1.71,-2.41,-2.38,-2.32
403.72,-0.38,1.93,-0.49,1.83,-2.02,-2.32,-1.65,-2.41,-2.52,-2.32
407.76,-0.85,1.49,-0.80,1.53,-1.79,-2.27,-1.59,-2.64,-2.59,-2.34
411.84,-1.13,1.21,-1.04,1.29,-1.60,-2.22,-1.54,-2.73,-2.64,-2.34
415.96,-1.15,1.19,-1.20,1.14,-1.47,-2.17,-1.49,-2.62,-2.67,-2.34
420.12,-1.15,1.19,-1.20,1.14,-1.40,-2.12,-1.44,-2.55,-2.60,-2.34
424.32,-1.18,1.16,-1.08,1.25,-1.37,-2.07,-1.39,-2.55,-2.45,-2.34
428.56,-0.91,1.42,-0.92,1.41,-1.37,-2.02,-1.34,-2.28,-2.29,-2.33
432.85,-0.66,1.66,-0.71,1.61,-1.40,-1.97,-1.30,-2.06,-2.11,-2.32
437.18,-0.58,1.73,-0.56,1.73,-1.47,-1.92,-1.25,-2.05,-2.03,-2.31
441.55,-0.47,1.80,-0.60,1.67,-1.58,-1.86,-1.21,-2.05,-2.17,-2.27
445.96,-0.68,1.56,-0.62,1.61,-1.72,-1.81,-1.17,-2.40,-2.34,-2.24
450.42,-0.73,1.48,-0.58,1.62,-1.87,-1.75,-1.13,-2.60,-2.45,-2.21
454.93,-0.33,1.82,-0.42,1.74,-2.01,-1.68,-1.10,-2.34,-2.44,-2.16
459.48,-0.13,1.99,-0.12,2.00,-2.14,-1.62,-1.06,-2.27,-2.26,-2.12
464.07,0.18,2.25,0.20,2.27,-2.23,-1.55,-1.03,-2.05,-2.03,-2.07
468.71,0.44,2.45,0.43,2.44,-2.26,-1.47,-1.00,-1.82,-1.84,-2.01
473.40,0.55,2.52,0.53,2.49,-2.21,-1.39,-0.97,-1.66,-1.68,-1.97
478.13,0.48,2.38,0.43,2.34,-2.03,-1.31,-0.94,-1.55,-1.60,-1.91
482.91,0.10,1.96,0.15,2.01,-1.73,-1.21,-0.92,-1.64,-1.58,-1.87
487.74,-0.31,1.51,-0.35,1.47,-1.34,-1.10,-0.90,-1.65,-1.68,-1.83
492.62,-0.85,0.93,-0.93,0.86,-0.89,-0.99,-0.87,-1.74,-1.81,-1.78
497.55,-1.61,0.15,-1.49,0.26,-0.44,-0.85,-0.85,-2.05,-1.93,-1.76
