frequency,raw,error,smoothed,error_smoothed,equalization,parametric_eq,fixed_band_eq,equalized_raw,equalized_smoothed,target
20.00,-32.66,-27.76,-32.39,-27.51,27.51,24.58,12.32,-5.15,-4.88,-4.90
20.20,-32.41,-27.55,-32.27,-27.42,27.42,24.88,12.51,-4.99,-4.85,-4.86
20.40,-32.17,-27.34,-32.15,-27.33,27.33,25.18,12.70,-4.84,-4.82,-4.83
20.61,-31.92,-27.12,-32.03,-27.23,27.23,25.47,12.90,-4.69,-4.80,-4.80
20.81,-31.67,-26.91,-31.89,-27.12,27.12,25.74,13.10,-4.55,-4.77,-4.76
21.02,-31.45,-26.73,-31.76,-27.01,27.01,25.99,13.30,-4.44,-4.75,-4.72
21.23,-31.39,-26.68,-31.61,-26.89,26.89,26.22,13.51,-4.50,-4.73,-4.71
21.44,-31.34,-26.65,-31.47,-26.76,26.76,26.42,13.73,-4.58,-4.71,-4.69
21.66,-31.29,-26.62,-31.32,-26.63,26.63,26.59,13.95,-4.66,-4.69,-4.67
21.87,-31.24,-26.58,-31.16,-26.49,26.49,26.73,14.17,-4.75,-4.67,-4.66
22.09,-31.14,-26.49,-31.00,-26.34,26.34,26.83,14.40,-4.80,-4.65,-4.65
22.31,-30.98,-26.33,-30.83,-26.19,26.19,26.88,14.64,-4.79,-4.64,-4.65
22.54,-30.82,-26.18,-30.67,-26.04,26.04,26.90,14.89,-4.79,-4.63,-4.64
22.76,-30.66,-26.03,-30.50,-25.88,25.88,26.88,15.14,-4.78,-4.62,-4.63
22.99,-30.50,-25.87,-30.32,-25.71,25.71,26.81,15.39,-4.79,-4.62,-4.63
23.22,-30.21,-25.59,-30.13,-25.53,25.53,26.71,15.66,-4.68,-4.61,-4.62
23.45,-29.91,-25.30,-29.94,-25.34,25.34,26.58,15.93,-4.57,-4.60,-4.61
23.69,-29.62,-25.02,-29.74,-25.14,25.14,26.41,16.21,-4.48,-4.60,-4.60
23.92,-29.33,-24.74,-29.54,-24.95,24.95,26.22,16.50,-4.38,-4.59,-4.59
24.16,-29.15,-24.57,-29.35,-24.76,24.76,26.01,16.79,-4.39,-4.59,-4.58
24.40,-29.02,-24.45,-29.16,-24.57,24.57,25.78,17.10,-4.45,-4.59,-4.57
24.65,-28.90,-24.32,-28.97,-24.38,24.38,25.53,17.41,-4.52,-4.58,-4.58
24.89,-28.77,-24.19,-28.79,-24.21,24.21,25.28,17.74,-4.56,-4.58,-4.58
25.14,-28.65,-24.07,-28.61,-24.03,24.03,25.02,18.08,-4.62,-4.58,-4.58
25.39,-28.54,-23.96,-28.44,-23.87,23.87,24.76,18.43,-4.67,-4.58,-4.58
25.65,-28.42,-23.84,-28.29,-23.71,23.71,24.49,18.79,-4.71,-4.58,-4.58
25.91,-28.30,-23.70,-28.14,-23.56,23.56,24.23,19.16,-4.74,-4.58,-4.60
26.16,-28.12,-23.53,-28.01,-23.42,23.42,23.96,19.55,-4.69,-4.58,-4.59
26.43,-27.89,-23.30,-27.88,-23.29,23.29,23.70,19.94,-4.60,-4.59,-4.59
26.69,-27.67,-23.08,-27.75,-23.16,23.16,23.45,20.36,-4.51,-4.59,-4.59
26.96,-27.45,-22.86,-27.61,-23.02,23.02,23.20,20.79,-4.43,-4.59,-4.59
27.23,-27.32,-22.73,-27.46,-22.86,22.86,22.96,21.23,-4.46,-4.60,-4.59
27.50,-27.22,-22.63,-27.29,-22.69,22.69,22.72,21.68,-4.53,-4.60,-4.59
27.77,-27.11,-22.51,-27.12,-22.52,22.52,22.50,22.15,-4.59,-4.60,-4.60
28.05,-27.01,-22.41,-26.97,-22.37,22.37,22.27,22.63,-4.64,-4.60,-4.60
28.33,-26.91,-22.29,-26.83,-22.22,22.22,22.06,23.12,-4.68,-4.60,-4.62
28.62,-26.81,-22.20,-26.70,-22.09,22.09,21.86,23.62,-4.72,-4.61,-4.61
28.90,-26.70,-22.09,-26.57,-21.97,21.97,21.66,24.11,-4.73,-4.61,-4.61
29.19,-26.50,-21.88,-26.45,-21.84,21.84,21.47,24.60,-4.66,-4.61,-4.62
29.48,-26.23,-21.62,-26.32,-21.71,21.71,21.28,25.06,-4.52,-4.61,-4.61
29.78,-25.97,-21.36,-26.18,-21.57,21.57,21.11,25.49,-4.41,-4.62,-4.61
30.08,-25.77,-21.16,-26.04,-21.42,21.42,20.94,25.87,-4.36,-4.62,-4.61
30.38,-25.79,-21.16,-25.88,-21.25,21.25,20.77,26.19,-4.54,-4.63,-4.63
30.68,-25.81,-21.18,-25.71,-21.07,21.07,20.61,26.41,-4.74,-4.63,-4.63
30.99,-25.83,-21.19,-25.52,-20.88,20.88,20.46,26.53,-4.95,-4.64,-4.64
31.30,-25.53,-20.89,-25.33,-20.69,20.69,20.31,26.54,-4.85,-4.64,-4.64
31.61,-25.22,-20.58,-25.12,-20.48,20.48,20.16,26.43,-4.74,-4.65,-4.64
31.93,-24.90,-20.25,-24.91,-20.26,20.26,20.01,26.21,-4.65,-4.65,-4.66
32.24,-24.67,-20.00,-24.70,-20.04,20.04,19.86,25.90,-4.63,-4.66,-4.67
32.57,-24.46,-19.79,-24.48,-19.81,19.81,19.71,25.52,-4.65,-4.66,-4.67
32.89,-24.25,-19.58,-24.25,-19.58,19.58,19.56,25.08,-4.67,-4.67,-4.67
33.22,-24.00,-19.33,-24.01,-19.34,19.34,19.40,24.60,-4.66,-4.67,-4.67
33.55,-23.74,-19.06,-23.78,-19.10,19.10,19.24,24.10,-4.64,-4.68,-4.68
33.89,-23.48,-18.80,-23.54,-18.86,18.86,19.07,23.59,-4.62,-4.68,-4.68
34.23,-23.25,-18.57,-23.32,-18.63,18.63,18.90,23.08,-4.62,-4.69,-4.68
34.57,-23.05,-18.36,-23.12,-18.42,18.42,18.71,22.57,-4.63,-4.69,-4.69
34.92,-22.84,-18.14,-22.93,-18.24,18.24,18.53,22.07,-4.61,-4.70,-4.70
35.27,-22.67,-17.97,-22.75,-18.05,18.05,18.33,21.58,-4.62,-4.70,-4.70
35.62,-22.51,-17.80,-22.57,-17.87,17.87,18.12,21.10,-4.64,-4.71,-4.71
35.97,-22.35,-17.63,-22.39,-17.67,17.67,17.91,20.63,-4.68,-4.71,-4.72
36.33,-22.25,-17.53,-22.19,-17.47,17.47,17.69,20.18,-4.78,-4.72,-4.72
36.70,-22.16,-17.44,-22.00,-17.27,17.27,17.46,19.75,-4.89,-4.73,-4.72
37.06,-22.03,-17.29,-21.82,-17.08,17.08,17.23,19.32,-4.94,-4.73,-4.74
37.43,-21.77,-17.03,-21.64,-16.90,16.90,17.00,18.91,-4.87,-4.74,-4.74
37.81,-21.51,-16.76,-21.46,-16.72,16.72,16.76,18.51,-4.80,-4.75,-4.75
38.19,-21.26,-16.50,-21.28,-16.53,16.53,16.52,18.13,-4.74,-4.75,-4.76
38.57,-21.01,-16.25,-21.09,-16.33,16.33,16.28,17.75,-4.68,-4.76,-4.76
38.95,-20.77,-16.00,-20.91,-16.14,16.14,16.04,17.39,-4.63,-4.77,-4.77
39.34,-20.58,-15.80,-20.73,-15.95,15.95,15.80,17.04,-4.63,-4.77,-4.78
39.74,-20.40,-15.60,-20.53,-15.75,15.75,15.56,16.70,-4.65,-4.78,-4.80
40.14,-20.25,-15.46,-20.33,-15.54,15.54,15.32,16.36,-4.72,-4.79,-4.79
40.54,-20.16,-15.36,-20.11,-15.31,15.31,15.09,16.04,-4.85,-4.80,-4.80
40.94,-20.07,-15.27,-19.91,-15.09,15.09,14.86,15.73,-4.98,-4.81,-4.80
41.35,-19.84,-15.02,-19.71,-14.88,14.88,14.63,15.42,-4.96,-4.83,-4.82
41.76,-19.58,-14.74,-19.51,-14.66,14.66,14.41,15.12,-4.92,-4.85,-4.84
42.18,-19.36,-14.51,-19.31,-14.44,14.44,14.19,14.82,-4.92,-4.87,-4.85
42.60,-19.19,-14.31,-19.11,-14.22,14.22,13.97,14.54,-4.96,-4.89,-4.88
43.03,-19.01,-14.12,-18.92,-14.00,14.00,13.75,14.26,-5.01,-4.91,-4.89
43.46,-18.66,-13.74,-18.72,-13.78,13.78,13.54,13.98,-4.87,-4.94,-4.92
43.90,-18.31,-13.34,-18.53,-13.56,13.56,13.34,13.71,-4.75,-4.97,-4.97
44.33,-18.16,-13.16,-18.33,-13.33,13.33,13.13,13.45,-4.82,-4.99,-5.00
44.78,-18.06,-13.03,-18.12,-13.10,13.10,12.93,13.19,-4.96,-5.02,-5.03
45.23,-17.91,-12.85,-17.91,-12.86,12.86,12.73,12.94,-5.05,-5.05,-5.06
45.68,-17.70,-12.61,-17.70,-12.63,12.63,12.54,12.69,-5.07,-5.07,-5.09
46.13,-17.52,-12.41,-17.51,-12.42,12.42,12.35,12.44,-5.10,-5.09,-5.11
46.60,-17.41,-12.29,-17.33,-12.22,12.22,12.16,12.20,-5.20,-5.11,-5.12
47.06,-17.29,-12.15,-17.14,-12.01,12.01,11.97,11.97,-5.27,-5.13,-5.14
47.53,-17.05,-11.91,-16.96,-11.82,11.82,11.78,11.73,-5.23,-5.14,-5.14
48.01,-16.82,-11.68,-16.77,-11.63,11.63,11.60,11.51,-5.19,-5.15,-5.14
48.49,-16.56,-11.40,-16.59,-11.44,11.44,11.42,11.28,-5.12,-5.15,-5.16
48.97,-16.29,-11.12,-16.40,-11.24,11.24,11.23,11.06,-5.04,-5.16,-5.17
49.46,-16.13,-10.95,-16.20,-11.04,11.04,11.05,10.84,-5.09,-5.16,-5.18
49.96,-15.96,-10.78,-15.99,-10.83,10.83,10.87,10.63,-5.13,-5.16,-5.18
50.46,-15.83,-10.66,-15.80,-10.63,10.63,10.69,10.42,-5.20,-5.17,-5.17
50.96,-15.69,-10.53,-15.62,-10.44,10.44,10.51,10.21,-5.25,-5.18,-5.16
51.47,-15.47,-10.30,-15.43,-10.25,10.25,10.33,10.00,-5.22,-5.19,-5.17
51.99,-15.24,-10.05,-15.25,-10.05,10.05,10.15,9.80,-5.20,-5.20,-5.19
52.51,-15.02,-9.82,-15.07,-9.85,9.85,9.97,9.61,-5.17,-5.22,-5.20
53.03,-14.80,-9.57,-14.90,-9.66,9.66,9.79,9.41,-5.14,-5.25,-5.23
53.56,-14.69,-9.43,-14.74,-9.46,9.46,9.61,9.22,-5.23,-5.28,-5.26
54.10,-14.57,-9.27,-14.58,-9.27,9.27,9.42,9.04,-5.30,-5.31,-5.30
54.64,-14.44,-9.09,-14.42,-9.06,9.06,9.23,8.85,-5.38,-5.35,-5.35
55.18,-14.32,-8.92,-14.25,-8.85,8.85,9.05,8.68,-5.47,-5.40,-5.40
55.74,-14.19,-8.74,-14.08,-8.63,8.63,8.85,8.50,-5.56,-5.45,-5.45
56.29,-14.00,-8.50,-13.91,-8.41,8.41,8.66,8.33,-5.59,-5.50,-5.50
56.86,-13.74,-8.18,-13.76,-8.20,8.20,8.46,8.17,-5.54,-5.56,-5.56
57.42,-13.58,-7.95,-13.62,-8.00,8.00,8.27,8.01,-5.58,-5.62,-5.63
58.00,-13.45,-7.76,-13.48,-7.80,7.80,8.06,7.85,-5.65,-5.68,-5.69
58.58,-13.32,-7.57,-13.34,-7.60,7.60,7.86,7.70,-5.72,-5.74,-5.75
59.16,-13.18,-7.38,-13.21,-7.40,7.40,7.65,7.56,-5.78,-5.81,-5.80
59.76,-13.05,-7.19,-13.07,-7.20,7.20,7.45,7.41,-5.85,-5.87,-5.86
60.35,-12.91,-6.98,-12.95,-7.02,7.02,7.24,7.28,-5.89,-5.93,-5.93
60.96,-12.77,-6.79,-12.84,-6.85,6.85,7.03,7.15,-5.92,-5.99,-5.98
61.57,-12.76,-6.71,-12.74,-6.70,6.70,6.82,7.03,-6.06,-6.05,-6.05
62.18,-12.72,-6.60,-12.65,-6.55,6.55,6.62,6.91,-6.17,-6.10,-6.12
62.80,-12.58,-6.42,-12.58,-6.42,6.42,6.42,6.79,-6.16,-6.16,-6.16
63.43,-12.50,-6.28,-12.52,-6.31,6.31,6.23,6.69,-6.19,-6.21,-6.22
64.07,-12.43,-6.17,-12.45,-6.20,6.20,6.05,6.58,-6.23,-6.26,-6.26
64.71,-12.35,-6.04,-12.39,-6.09,6.09,5.88,6.49,-6.26,-6.30,-6.31
65.35,-12.31,-5.95,-12.33,-5.99,5.99,5.72,6.39,-6.32,-6.35,-6.36
66.01,-12.31,-5.92,-12.29,-5.90,5.90,5.59,6.31,-6.41,-6.39,-6.39
66.67,-12.31,-5.88,-12.24,-5.81,5.81,5.46,6.22,-6.50,-6.42,-6.43
67.33,-12.23,-5.77,-12.19,-5.73,5.73,5.36,6.15,-6.50,-6.46,-6.46
68.01,-12.08,-5.59,-12.14,-5.65,5.65,5.28,6.07,-6.44,-6.49,-6.49
68.69,-12.08,-5.56,-12.08,-5.56,5.56,5.21,6.00,-6.52,-6.52,-6.52
69.37,-12.08,-5.52,-12.03,-5.47,5.47,5.16,5.94,-6.61,-6.55,-6.56
70.07,-12.06,-5.47,-11.98,-5.39,5.39,5.13,5.88,-6.67,-6.58,-6.59
70.77,-11.90,-5.30,-11.93,-5.31,5.31,5.12,5.82,-6.59,-6.61,-6.60
71.48,-11.85,-5.21,-11.88,-5.23,5.23,5.11,5.76,-6.62,-6.64,-6.64
72.19,-11.85,-5.19,-11.83,-5.15,5.15,5.12,5.71,-6.70,-6.67,-6.66
72.91,-11.85,-5.15,-11.78,-5.08,5.08,5.13,5.66,-6.77,-6.70,-6.70
73.64,-11.70,-4.97,-11.74,-5.00,5.00,5.15,5.62,-6.70,-6.73,-6.73
74.38,-11.62,-4.86,-11.70,-4.94,4.94,5.18,5.57,-6.68,-6.76,-6.76
75.12,-11.62,-4.83,-11.68,-4.88,4.88,5.20,5.53,-6.74,-6.79,-6.79
75.87,-11.62,-4.80,-11.65,-4.83,4.83,5.22,5.49,-6.79,-6.82,-6.82
76.63,-11.62,-4.77,-11.63,-4.78,4.78,5.25,5.45,-6.84,-6.85,-6.85
77.40,-11.62,-4.74,-11.60,-4.73,4.73,5.27,5.42,-6.89,-6.87,-6.88
78.17,-11.62,-4.71,-11.59,-4.69,4.69,5.29,5.38,-6.93,-6.90,-6.91
78.95,-11.62,-4.70,-11.59,-4.67,4.67,5.31,5.35,-6.95,-6.92,-6.92
79.74,-11.62,-4.68,-11.59,-4.65,4.65,5.32,5.32,-6.97,-6.94,-6.94
80.54,-11.62,-4.66,-11.59,-4.63,4.63,5.33,5.29,-6.99,-6.95,-6.96
81.35,-11.62,-4.64,-11.60,-4.63,4.63,5.34,5.26,-6.99,-6.97,-6.98
82.16,-11.62,-4.64,-11.61,-4.64,4.64,5.34,5.23,-6.98,-6.98,-6.98
82.98,-11.62,-4.64,-11.63,-4.65,4.65,5.34,5.20,-6.97,-6.98,-6.98
83.81,-11.62,-4.63,-11.65,-4.66,4.66,5.34,5.17,-6.96,-6.99,-6.99
84.65,-11.62,-4.62,-11.68,-4.69,4.69,5.33,5.15,-6.93,-6.99,-7.00
85.50,-11.68,-4.69,-11.72,-4.73,4.73,5.33,5.12,-6.95,-6.99,-6.99
86.35,-11.79,-4.80,-11.77,-4.78,4.78,5.31,5.10,-7.01,-6.99,-6.99
87.22,-11.85,-4.86,-11.83,-4.84,4.84,5.30,5.08,-7.01,-6.98,-6.99
88.09,-11.85,-4.86,-11.90,-4.91,4.91,5.29,5.05,-6.94,-6.98,-6.99
88.97,-11.85,-4.88,-11.96,-4.98,4.98,5.27,5.03,-6.87,-6.98,-6.97
89.86,-12.01,-5.04,-12.03,-5.05,5.05,5.25,5.01,-6.96,-6.98,-6.97
90.76,-12.09,-5.10,-12.11,-5.12,5.12,5.23,4.99,-6.97,-6.99,-6.99
91.66,-12.24,-5.26,-12.19,-5.20,5.20,5.21,4.97,-7.04,-6.99,-6.98
92.58,-12.31,-5.30,-12.28,-5.27,5.27,5.18,4.95,-7.04,-7.00,-7.01
93.51,-12.41,-5.41,-12.35,-5.34,5.34,5.16,4.94,-7.07,-7.01,-7.00
94.44,-12.52,-5.50,-12.42,-5.39,5.39,5.13,4.92,-7.13,-7.02,-7.02
95.39,-12.54,-5.51,-12.48,-5.44,5.44,5.11,4.90,-7.10,-7.04,-7.03
96.34,-12.54,-5.47,-12.53,-5.47,5.47,5.08,4.89,-7.07,-7.06,-7.07
97.30,-12.54,-5.45,-12.59,-5.51,5.51,5.05,4.87,-7.03,-7.08,-7.09
98.28,-12.59,-5.48,-12.65,-5.54,5.54,5.02,4.86,-7.05,-7.11,-7.11
99.26,-12.73,-5.59,-12.70,-5.56,5.56,5.00,4.84,-7.17,-7.14,-7.14
100.25,-12.76,-5.59,-12.72,-5.56,5.56,4.97,4.83,-7.20,-7.17,-7.17
101.25,-12.76,-5.56,-12.76,-5.55,5.55,4.94,4.82,-7.21,-7.20,-7.20
102.27,-12.76,-5.52,-12.79,-5.54,5.54,4.91,4.81,-7.22,-7.25,-7.24
103.29,-12.76,-5.47,-12.82,-5.53,5.53,4.88,4.80,-7.23,-7.29,-7.29
104.32,-12.81,-5.48,-12.86,-5.52,5.52,4.85,4.79,-7.29,-7.34,-7.33
105.37,-12.93,-5.55,-12.90,-5.50,5.50,4.83,4.78,-7.43,-7.39,-7.38
106.42,-12.99,-5.56,-12.93,-5.48,5.48,4.80,4.77,-7.51,-7.45,-7.43
107.48,-12.99,-5.49,-12.97,-5.46,5.46,4.77,4.76,-7.53,-7.51,-7.50
108.56,-12.99,-5.41,-13.00,-5.43,5.43,4.74,4.75,-7.56,-7.58,-7.58
109.64,-12.99,-5.34,-13.04,-5.39,5.39,4.72,4.75,-7.60,-7.65,-7.65
110.74,-13.00,-5.29,-13.08,-5.36,5.36,4.69,4.74,-7.64,-7.72,-7.71
111.85,-13.19,-5.41,-13.12,-5.33,5.33,4.67,4.73,-7.86,-7.79,-7.78
112.97,-13.22,-5.35,-13.16,-5.30,5.30,4.64,4.73,-7.92,-7.86,-7.87
114.10,-13.22,-5.29,-13.20,-5.26,5.26,4.62,4.72,-7.96,-7.94,-7.93
115.24,-13.22,-5.21,-13.23,-5.23,5.23,4.60,4.72,-7.99,-8.00,-8.01
116.39,-13.22,-5.13,-13.27,-5.20,5.20,4.57,4.71,-8.02,-8.07,-8.09
117.55,-13.23,-5.08,-13.30,-5.17,5.17,4.55,4.71,-8.06,-8.13,-8.15
118.73,-13.39,-5.17,-13.34,-5.14,5.14,4.53,4.70,-8.25,-8.19,-8.22
119.92,-13.45,-5.19,-13.38,-5.13,5.13,4.51,4.70,-8.32,-8.25,-8.26
121.12,-13.45,-5.13,-13.42,-5.12,5.12,4.50,4.69,-8.33,-8.30,-8.32
122.33,-13.45,-5.09,-13.46,-5.12,5.12,4.48,4.69,-8.33,-8.34,-8.36
123.55,-13.45,-5.07,-13.50,-5.11,5.11,4.46,4.69,-8.34,-8.39,-8.38
124.79,-13.45,-5.03,-13.53,-5.11,5.11,4.45,4.68,-8.34,-8.43,-8.42
126.03,-13.60,-5.14,-13.57,-5.11,5.11,4.43,4.68,-8.49,-8.46,-8.46
127.29,-13.65,-5.16,-13.62,-5.12,5.12,4.42,4.68,-8.53,-8.50,-8.49
128.57,-13.68,-5.15,-13.67,-5.14,5.14,4.41,4.68,-8.54,-8.53,-8.53
129.85,-13.68,-5.12,-13.72,-5.15,5.15,4.40,4.67,-8.53,-8.56,-8.56
131.15,-13.72,-5.13,-13.75,-5.16,5.16,4.39,4.67,-8.56,-8.59,-8.59
132.46,-13.85,-5.23,-13.79,-5.16,5.16,4.39,4.67,-8.69,-8.63,-8.62
133.79,-13.90,-5.25,-13.83,-5.17,5.17,4.38,4.67,-8.73,-8.66,-8.65
135.12,-13.90,-5.20,-13.89,-5.19,5.19,4.38,4.67,-8.71,-8.69,-8.70
136.48,-13.90,-5.17,-13.94,-5.21,5.21,4.38,4.67,-8.69,-8.73,-8.73
137.84,-13.90,-5.14,-13.98,-5.22,5.22,4.37,4.68,-8.68,-8.76,-8.76
139.22,-14.02,-5.21,-14.02,-5.23,5.23,4.38,4.68,-8.79,-8.80,-8.81
140.61,-14.12,-5.26,-14.06,-5.23,5.23,4.38,4.69,-8.89,-8.84,-8.86
142.02,-14.13,-5.25,-14.11,-5.23,5.23,4.38,4.69,-8.90,-8.88,-8.88
143.44,-14.13,-5.21,-14.16,-5.24,5.24,4.39,4.70,-8.89,-8.92,-8.92
144.87,-14.13,-5.17,-14.20,-5.23,5.23,4.40,4.71,-8.90,-8.97,-8.96
146.32,-14.28,-5.27,-14.24,-5.22,5.22,4.41,4.72,-9.06,-9.03,-9.01
147.78,-14.36,-5.31,-14.29,-5.20,5.20,4.42,4.74,-9.16,-9.09,-9.05
149.26,-14.36,-5.24,-14.33,-5.18,5.18,4.43,4.75,-9.18,-9.15,-9.12
150.75,-14.36,-5.16,-14.38,-5.17,5.17,4.45,4.77,-9.19,-9.22,-9.20
152.26,-14.37,-5.10,-14.44,-5.15,5.15,4.47,4.79,-9.22,-9.29,-9.27
153.78,-14.51,-5.17,-14.49,-5.13,5.13,4.49,4.81,-9.38,-9.36,-9.34
155.32,-14.58,-5.14,-14.54,-5.11,5.11,4.51,4.83,-9.47,-9.43,-9.44
156.88,-14.59,-5.08,-14.60,-5.10,5.10,4.54,4.86,-9.49,-9.50,-9.51
158.44,-14.59,-5.01,-14.65,-5.08,5.08,4.57,4.89,-9.51,-9.57,-9.58
160.03,-14.65,-4.99,-14.70,-5.06,5.06,4.60,4.92,-9.59,-9.64,-9.66
161.63,-14.78,-5.06,-14.75,-5.05,5.05,4.63,4.96,-9.73,-9.70,-9.72
163.24,-14.81,-5.04,-14.79,-5.04,5.04,4.67,5.00,-9.77,-9.75,-9.77
164.88,-14.81,-5.00,-14.84,-5.05,5.05,4.70,5.04,-9.76,-9.79,-9.81
166.53,-14.99,-5.14,-14.90,-5.07,5.07,4.74,5.08,-9.92,-9.83,-9.85
168.19,-15.04,-5.16,-14.95,-5.10,5.10,4.79,5.13,-9.94,-9.85,-9.88
169.87,-15.04,-5.15,-14.99,-5.12,5.12,4.83,5.18,-9.92,-9.87,-9.89
171.57,-15.04,-5.14,-15.04,-5.16,5.16,4.88,5.24,-9.88,-9.88,-9.90
173.29,-15.04,-5.14,-15.10,-5.21,5.21,4.94,5.29,-9.83,-9.89,-9.90
175.02,-15.04,-5.16,-15.16,-5.27,5.27,4.99,5.35,-9.77,-9.89,-9.88
176.77,-15.23,-5.34,-15.23,-5.33,5.33,5.05,5.42,-9.90,-9.89,-9.89
178.54,-15.27,-5.39,-15.29,-5.40,5.40,5.11,5.48,-9.87,-9.89,-9.88
180.32,-15.35,-5.48,-15.36,-5.47,5.47,5.18,5.56,-9.88,-9.89,-9.87
182.13,-15.45,-5.58,-15.43,-5.54,5.54,5.25,5.63,-9.91,-9.89,-9.87
183.95,-15.50,-5.63,-15.52,-5.62,5.62,5.32,5.71,-9.88,-9.90,-9.87
185.79,-15.50,-5.62,-15.60,-5.70,5.70,5.39,5.79,-9.80,-9.90,-9.88
187.65,-15.66,-5.76,-15.69,-5.78,5.78,5.47,5.87,-9.88,-9.91,-9.90
189.52,-15.89,-5.97,-15.78,-5.86,5.86,5.56,5.96,-10.03,-9.92,-9.92
191.42,-15.95,-6.01,-15.88,-5.95,5.95,5.64,6.05,-10.00,-9.93,-9.94
193.33,-15.95,-5.99,-15.98,-6.03,6.03,5.73,6.14,-9.92,-9.95,-9.96
195.27,-16.06,-6.10,-16.06,-6.09,6.09,5.83,6.24,-9.97,-9.97,-9.96
197.22,-16.16,-6.18,-16.13,-6.15,6.15,5.92,6.34,-10.01,-9.98,-9.98
199.19,-16.19,-6.17,-16.22,-6.22,6.22,6.03,6.44,-9.97,-10.00,-10.02
201.18,-16.32,-6.30,-16.30,-6.28,6.28,6.13,6.54,-10.04,-10.02,-10.02
203.19,-16.41,-6.37,-16.38,-6.34,6.34,6.24,6.64,-10.07,-10.04,-10.04
205.23,-16.41,-6.34,-16.45,-6.39,6.39,6.35,6.75,-10.02,-10.06,-10.07
207.28,-16.49,-6.42,-16.51,-6.43,6.43,6.46,6.85,-10.06,-10.08,-10.07
209.35,-16.61,-6.52,-16.56,-6.47,6.47,6.58,6.96,-10.14,-10.09,-10.09
211.44,-16.64,-6.52,-16.61,-6.51,6.51,6.70,7.06,-10.13,-10.11,-10.12
213.56,-16.64,-6.52,-16.67,-6.55,6.55,6.82,7.17,-10.09,-10.12,-10.12
215.69,-16.64,-6.52,-16.73,-6.60,6.60,6.95,7.27,-10.04,-10.13,-10.12
217.85,-16.85,-6.70,-16.78,-6.63,6.63,7.07,7.36,-10.22,-10.15,-10.15
220.03,-16.87,-6.71,-16.82,-6.66,6.66,7.20,7.46,-10.21,-10.16,-10.16
222.23,-16.87,-6.69,-16.86,-6.69,6.69,7.33,7.55,-10.18,-10.17,-10.18
224.45,-16.87,-6.69,-16.89,-6.71,6.71,7.45,7.63,-10.16,-10.18,-10.18
226.70,-16.87,-6.69,-16.93,-6.74,6.74,7.58,7.71,-10.13,-10.19,-10.18
228.96,-17.02,-6.83,-16.96,-6.77,6.77,7.70,7.77,-10.25,-10.19,-10.19
231.25,-17.07,-6.88,-16.98,-6.78,6.78,7.82,7.83,-10.29,-10.20,-10.19
233.57,-17.09,-6.89,-17.01,-6.81,6.81,7.93,7.88,-10.28,-10.20,-10.20
235.90,-17.09,-6.88,-17.05,-6.85,6.85,8.03,7.91,-10.24,-10.20,-10.21
238.26,-17.09,-6.88,-17.10,-6.90,6.90,8.13,7.93,-10.19,-10.20,-10.21
240.64,-17.09,-6.88,-17.16,-6.96,6.96,8.22,7.93,-10.13,-10.20,-10.21
243.05,-17.25,-7.05,-17.25,-7.05,7.05,8.29,7.92,-10.20,-10.20,-10.20
245.48,-17.32,-7.13,-17.38,-7.19,7.19,8.35,7.89,-10.13,-10.19,-10.19
247.93,-17.32,-7.14,-17.55,-7.36,7.36,8.39,7.85,-9.96,-10.19,-10.18
250.41,-17.51,-7.32,-17.74,-7.55,7.55,8.41,7.79,-9.96,-10.18,-10.19
252.92,-17.60,-7.42,-17.93,-7.75,7.75,8.41,7.71,-9.85,-10.18,-10.18
255.45,-17.85,-7.70,-18.12,-7.95,7.95,8.39,7.61,-9.90,-10.17,-10.15
258.00,-18.11,-7.96,-18.30,-8.14,8.14,8.35,7.50,-9.97,-10.16,-10.15
260.58,-18.37,-8.22,-18.45,-8.30,8.30,8.27,7.37,-10.07,-10.15,-10.15
263.19,-18.64,-8.51,-18.56,-8.42,8.42,8.18,7.22,-10.22,-10.13,-10.13
265.82,-18.89,-8.76,-18.61,-8.49,8.49,8.05,7.06,-10.40,-10.12,-10.13
268.48,-19.11,-9.01,-18.60,-8.50,8.50,7.91,6.88,-10.61,-10.10,-10.10
271.16,-19.10,-9.01,-18.53,-8.45,8.45,7.73,6.69,-10.65,-10.08,-10.09
273.87,-18.86,-8.78,-18.40,-8.34,8.34,7.53,6.49,-10.52,-10.06,-10.08
276.61,-18.47,-8.43,-18.21,-8.16,8.16,7.31,6.28,-10.31,-10.04,-10.04
279.38,-18.03,-8.00,-17.95,-7.93,7.93,7.07,6.06,-10.10,-10.02,-10.03
282.17,-17.60,-7.60,-17.63,-7.63,7.63,6.81,5.84,-9.97,-10.00,-10.00
284.99,-17.11,-7.14,-17.26,-7.29,7.29,6.53,5.60,-9.82,-9.97,-9.97
287.84,-16.59,-6.64,-16.85,-6.90,6.90,6.24,5.36,-9.68,-9.94,-9.95
290.72,-16.11,-6.20,-16.40,-6.49,6.49,5.93,5.11,-9.62,-9.91,-9.91
293.63,-15.70,-5.81,-15.94,-6.05,6.05,5.62,4.86,-9.65,-9.89,-9.89
296.57,-15.31,-5.45,-15.47,-5.61,5.61,5.29,4.61,-9.70,-9.86,-9.86
299.53,-15.01,-5.18,-15.02,-5.18,5.18,4.96,4.35,-9.82,-9.84,-9.83
302.53,-14.55,-4.73,-14.60,-4.78,4.78,4.63,4.09,-9.77,-9.81,-9.82
305.55,-14.23,-4.45,-14.19,-4.40,4.40,4.28,3.83,-9.83,-9.79,-9.78
308.61,-13.85,-4.09,-13.80,-4.03,4.03,3.94,3.57,-9.82,-9.78,-9.76
311.69,-13.46,-3.71,-13.42,-3.66,3.66,3.59,3.30,-9.80,-9.76,-9.75
314.81,-13.07,-3.35,-13.05,-3.30,3.30,3.25,3.04,-9.77,-9.75,-9.72
317.96,-12.67,-2.95,-12.69,-2.95,2.95,2.90,2.77,-9.72,-9.73,-9.72
321.14,-12.28,-2.55,-12.32,-2.60,2.60,2.55,2.51,-9.68,-9.72,-9.73
324.35,-11.98,-2.26,-11.95,-2.24,2.24,2.21,2.24,-9.74,-9.71,-9.72
327.59,-11.61,-1.90,-11.57,-1.87,1.87,1.87,1.98,-9.74,-9.70,-9.71
330.87,-11.22,-1.52,-11.19,-1.49,1.49,1.52,1.71,-9.73,-9.69,-9.70
334.18,-10.83,-1.13,-10.81,-1.12,1.12,1.18,1.45,-9.71,-9.68,-9.70
337.52,-10.43,-0.74,-10.44,-0.77,0.77,0.85,1.18,-9.66,-9.67,-9.69
340.90,-10.04,-0.38,-10.07,-0.41,0.41,0.51,0.92,-9.63,-9.66,-9.66
344.30,-9.73,-0.08,-9.71,-0.06,0.06,0.18,0.65,-9.67,-9.65,-9.65
347.75,-9.36,0.28,-9.35,0.28,-0.28,-0.14,0.39,-9.64,-9.63,-9.64
351.23,-8.97,0.64,-8.97,0.63,-0.63,-0.47,0.12,-9.61,-9.61,-9.61
354.74,-8.58,1.01,-8.61,0.98,-0.98,-0.79,-0.14,-9.56,-9.59,-9.59
358.28,-8.19,1.37,-8.25,1.31,-1.31,-1.10,-0.41,-9.50,-9.56,-9.56
361.87,-7.87,1.67,-7.90,1.64,-1.64,-1.42,-0.67,-9.51,-9.54,-9.54
365.49,-7.60,1.92,-7.55,1.96,-1.96,-1.72,-0.94,-9.56,-9.52,-9.52
369.14,-7.32,2.18,-7.21,2.28,-2.28,-2.03,-1.20,-9.60,-9.49,-9.50
