frequency,raw,error,smoothed,error_smoothed,equalization,parametric_eq,fixed_band_eq,equalized_raw,equalized_smoothed,target
20.00,-4.72,-7.91,-4.72,-7.91,7.88,8.11,2.55,3.17,3.17,3.20
20.20,-4.71,-7.95,-4.70,-7.95,7.94,8.06,2.63,3.23,3.23,3.25
20.40,-4.70,-7.99,-4.69,-7.99,7.99,8.00,2.70,3.29,3.30,3.30
20.61,-4.70,-8.02,-4.69,-8.02,8.04,7.95,2.78,3.34,3.35,3.32
20.81,-4.69,-8.06,-4.68,-8.06,8.08,7.89,2.86,3.40,3.40,3.38
21.02,-4.68,-8.09,-4.69,-8.10,8.13,7.84,2.94,3.45,3.44,3.42
21.23,-4.71,-8.14,-4.70,-8.14,8.16,7.78,3.02,3.46,3.46,3.44
21.44,-4.74,-8.19,-4.73,-8.19,8.20,7.72,3.11,3.46,3.47,3.46
21.66,-4.77,-8.24,-4.77,-8.24,8.24,7.66,3.20,3.48,3.47,3.47
21.87,-4.80,-8.28,-4.79,-8.28,8.28,7.60,3.29,3.49,3.49,3.49
22.09,-4.82,-8.32,-4.81,-8.31,8.31,7.54,3.38,3.50,3.50,3.51
22.31,-4.82,-8.33,-4.82,-8.33,8.33,7.48,3.48,3.51,3.51,3.52
22.54,-4.82,-8.33,-4.83,-8.34,8.33,7.42,3.58,3.51,3.50,3.52
22.76,-4.82,-8.33,-4.82,-8.33,8.31,7.36,3.68,3.50,3.49,3.51
22.99,-4.82,-8.32,-4.79,-8.30,8.28,7.30,3.78,3.46,3.49,3.51
23.22,-4.73,-8.23,-4.73,-8.24,8.22,7.23,3.89,3.50,3.49,3.51
23.45,-4.64,-8.14,-4.64,-8.15,8.15,7.17,3.99,3.51,3.50,3.51
23.69,-4.54,-8.05,-4.54,-8.05,8.06,7.10,4.10,3.52,3.51,3.51
23.92,-4.44,-7.96,-4.44,-7.96,7.95,7.04,4.22,3.51,3.51,3.52
24.16,-4.33,-7.85,-4.33,-7.85,7.84,6.97,4.33,3.51,3.51,3.52
24.40,-4.21,-7.74,-4.21,-7.73,7.73,6.90,4.44,3.52,3.52,3.52
24.65,-4.09,-7.60,-4.09,-7.60,7.62,6.83,4.56,3.54,3.54,3.52
24.89,-3.96,-7.48,-3.97,-7.49,7.52,6.76,4.68,3.56,3.55,3.52
25.14,-3.87,-7.39,-3.88,-7.39,7.42,6.68,4.80,3.55,3.55,3.52
25.39,-3.79,-7.32,-3.80,-7.32,7.33,6.61,4.92,3.54,3.54,3.53
25.65,-3.73,-7.25,-3.73,-7.25,7.25,6.53,5.04,3.52,3.52,3.53
25.91,-3.66,-7.17,-3.65,-7.17,7.17,6.45,5.16,3.51,3.52,3.52
26.16,-3.56,-7.08,-3.56,-7.08,7.08,6.37,5.28,3.52,3.52,3.52
26.43,-3.47,-6.98,-3.48,-6.99,6.99,6.29,5.40,3.52,3.51,3.52
26.69,-3.37,-6.88,-3.38,-6.89,6.88,6.20,5.52,3.51,3.50,3.52
26.96,-3.28,-6.79,-3.25,-6.77,6.74,6.11,5.64,3.47,3.49,3.52
27.23,-3.10,-6.61,-3.10,-6.61,6.59,6.02,5.75,3.49,3.49,3.52
27.50,-2.91,-6.42,-2.92,-6.43,6.41,5.93,5.86,3.50,3.49,3.52
27.77,-2.71,-6.22,-2.71,-6.22,6.21,5.83,5.97,3.49,3.50,3.51
28.05,-2.50,-6.01,-2.49,-5.99,5.99,5.72,6.07,3.49,3.50,3.51
28.33,-2.25,-5.75,-2.26,-5.76,5.76,5.62,6.16,3.50,3.50,3.50
28.62,-2.01,-5.51,-2.01,-5.51,5.52,5.51,6.25,3.51,3.51,3.50
28.90,-1.76,-5.27,-1.77,-5.26,5.27,5.39,6.34,3.51,3.51,3.51
29.19,-1.53,-5.02,-1.53,-5.03,5.03,5.27,6.41,3.51,3.50,3.50
29.48,-1.30,-4.81,-1.30,-4.80,4.80,5.14,6.48,3.49,3.50,3.50
29.78,-1.08,-4.57,-1.08,-4.58,4.57,5.01,6.54,3.50,3.49,3.50
30.08,-0.87,-4.37,-0.88,-4.38,4.36,4.88,6.59,3.49,3.49,3.50
30.38,-0.69,-4.18,-0.68,-4.18,4.17,4.75,6.63,3.48,3.49,3.50
30.68,-0.52,-4.01,-0.51,-4.00,4.00,4.62,6.66,3.49,3.49,3.50
30.99,-0.35,-3.84,-0.37,-3.86,3.87,4.49,6.68,3.52,3.50,3.50
31.30,-0.27,-3.75,-0.26,-3.75,3.77,4.36,6.69,3.51,3.52,3.49
31.61,-0.21,-3.69,-0.18,-3.67,3.72,4.25,6.69,3.52,3.54,3.49
31.93,-0.14,-3.62,-0.17,-3.65,3.71,4.15,6.68,3.57,3.54,3.49
32.24,-0.20,-3.67,-0.21,-3.69,3.73,4.06,6.65,3.53,3.52,3.48
32.57,-0.31,-3.78,-0.29,-3.77,3.78,3.99,6.62,3.47,3.48,3.48
32.89,-0.42,-3.89,-0.41,-3.88,3.85,3.94,6.58,3.44,3.44,3.47
33.22,-0.52,-3.98,-0.51,-3.98,3.94,3.91,6.53,3.42,3.43,3.47
33.55,-0.60,-4.06,-0.60,-4.06,4.03,3.89,6.47,3.43,3.43,3.46
33.89,-0.68,-4.13,-0.68,-4.13,4.11,3.89,6.40,3.44,3.44,3.46
34.23,-0.75,-4.20,-0.75,-4.20,4.19,3.90,6.33,3.44,3.44,3.46
34.57,-0.82,-4.26,-0.82,-4.26,4.25,3.91,6.25,3.43,3.43,3.45
34.92,-0.88,-4.32,-0.87,-4.31,4.31,3.93,6.17,3.44,3.44,3.45
35.27,-0.91,-4.34,-0.90,-4.33,4.37,3.95,6.08,3.46,3.47,3.44
35.62,-0.92,-4.35,-0.92,-4.36,4.42,3.97,5.98,3.50,3.50,3.44
35.97,-0.94,-4.37,-0.96,-4.39,4.45,3.99,5.89,3.51,3.49,3.44
36.33,-1.01,-4.44,-1.03,-4.46,4.45,4.00,5.79,3.45,3.43,3.43
36.70,-1.09,-4.51,-1.07,-4.50,4.43,4.01,5.69,3.35,3.36,3.43
37.06,-1.11,-4.54,-1.06,-4.49,4.38,4.02,5.59,3.27,3.33,3.43
37.43,-0.93,-4.37,-0.95,-4.38,4.30,4.02,5.48,3.37,3.35,3.44
37.81,-0.77,-4.20,-0.79,-4.22,4.19,4.02,5.38,3.43,3.41,3.44
38.19,-0.60,-4.02,-0.60,-4.04,4.05,4.01,5.28,3.46,3.45,3.43
38.57,-0.45,-3.88,-0.44,-3.88,3.90,4.00,5.17,3.45,3.46,3.44
38.95,-0.28,-3.73,-0.28,-3.72,3.73,3.98,5.07,3.45,3.45,3.44
39.34,-0.12,-3.56,-0.12,-3.56,3.58,3.96,4.97,3.46,3.46,3.44
39.74,0.02,-3.41,0.02,-3.42,3.45,3.94,4.88,3.47,3.47,3.44
40.14,0.13,-3.30,0.12,-3.32,3.35,3.92,4.78,3.49,3.47,3.44
40.54,0.16,-3.27,0.17,-3.26,3.29,3.89,4.68,3.45,3.46,3.44
40.94,0.19,-3.23,0.19,-3.24,3.26,3.86,4.59,3.45,3.45,3.43
41.35,0.17,-3.25,0.18,-3.24,3.25,3.83,4.50,3.43,3.43,3.43
41.76,0.15,-3.26,0.15,-3.26,3.27,3.80,4.42,3.42,3.42,3.42
42.18,0.11,-3.30,0.10,-3.31,3.31,3.77,4.33,3.42,3.41,3.42
42.60,0.03,-3.37,0.04,-3.37,3.36,3.73,4.25,3.39,3.40,3.40
43.03,-0.04,-3.43,-0.03,-3.43,3.41,3.70,4.17,3.38,3.38,3.40
43.46,-0.10,-3.48,-0.10,-3.48,3.47,3.66,4.10,3.37,3.37,3.39
43.90,-0.16,-3.52,-0.16,-3.52,3.52,3.62,4.03,3.36,3.36,3.37
44.33,-0.21,-3.55,-0.21,-3.56,3.56,3.58,3.96,3.36,3.35,3.34
44.78,-0.27,-3.59,-0.26,-3.59,3.60,3.54,3.89,3.33,3.34,3.33
45.23,-0.31,-3.62,-0.30,-3.62,3.61,3.50,3.83,3.31,3.31,3.32
45.68,-0.33,-3.63,-0.33,-3.63,3.61,3.46,3.77,3.29,3.28,3.31
46.13,-0.34,-3.62,-0.33,-3.62,3.59,3.42,3.71,3.25,3.26,3.29
46.60,-0.31,-3.59,-0.31,-3.59,3.55,3.38,3.65,3.25,3.24,3.29
47.06,-0.28,-3.54,-0.26,-3.53,3.50,3.34,3.60,3.23,3.24,3.27
47.53,-0.19,-3.44,-0.19,-3.45,3.44,3.30,3.55,3.26,3.25,3.26
48.01,-0.10,-3.35,-0.11,-3.36,3.38,3.26,3.50,3.28,3.27,3.26
48.49,-0.05,-3.28,-0.04,-3.28,3.32,3.21,3.46,3.27,3.27,3.24
48.97,0.00,-3.21,-0.01,-3.22,3.26,3.17,3.42,3.26,3.25,3.21
49.46,0.00,-3.19,0.01,-3.19,3.21,3.13,3.38,3.21,3.22,3.19
49.96,0.00,-3.17,0.01,-3.17,3.17,3.08,3.34,3.18,3.18,3.18
50.46,0.00,-3.16,0.00,-3.16,3.15,3.04,3.30,3.15,3.15,3.17
50.96,0.00,-3.15,0.00,-3.15,3.14,3.00,3.27,3.14,3.14,3.16
51.47,0.00,-3.13,0.00,-3.13,3.13,2.96,3.24,3.13,3.13,3.14
51.99,0.00,-3.12,0.00,-3.12,3.12,2.91,3.21,3.12,3.12,3.13
52.51,0.00,-3.11,0.00,-3.11,3.11,2.87,3.18,3.11,3.11,3.12
53.03,0.00,-3.11,0.00,-3.11,3.10,2.83,3.15,3.10,3.10,3.12
53.56,0.00,-3.09,0.00,-3.09,3.09,2.79,3.13,3.10,3.10,3.10
54.10,0.00,-3.08,0.01,-3.08,3.09,2.74,3.10,3.10,3.10,3.09
54.64,0.00,-3.06,0.00,-3.07,3.09,2.70,3.08,3.09,3.09,3.07
55.18,-0.01,-3.07,-0.02,-3.08,3.09,2.66,3.05,3.08,3.07,3.06
55.74,-0.06,-3.10,-0.05,-3.10,3.09,2.62,3.03,3.03,3.04,3.05
56.29,-0.09,-3.12,-0.08,-3.11,3.09,2.57,3.00,3.00,3.01,3.04
56.86,-0.10,-3.12,-0.10,-3.11,3.09,2.53,2.98,3.00,3.00,3.03
57.42,-0.10,-3.09,-0.10,-3.10,3.10,2.49,2.95,3.00,3.00,3.00
58.00,-0.10,-3.08,-0.09,-3.08,3.10,2.45,2.93,3.01,3.01,2.99
58.58,-0.10,-3.07,-0.10,-3.08,3.10,2.41,2.90,3.00,2.99,2.98
59.16,-0.12,-3.07,-0.13,-3.09,3.09,2.37,2.87,2.97,2.95,2.95
59.76,-0.19,-3.12,-0.17,-3.10,3.08,2.33,2.84,2.89,2.91,2.94
60.35,-0.21,-3.10,-0.19,-3.09,3.06,2.29,2.81,2.86,2.87,2.89
60.96,-0.20,-3.05,-0.20,-3.05,3.05,2.24,2.78,2.86,2.86,2.86
61.57,-0.19,-3.00,-0.20,-3.01,3.04,2.20,2.75,2.86,2.84,2.82
62.18,-0.21,-2.98,-0.22,-3.00,3.02,2.16,2.71,2.82,2.80,2.77
62.80,-0.28,-3.00,-0.26,-2.99,3.00,2.12,2.67,2.72,2.74,2.72
63.43,-0.30,-2.98,-0.29,-2.97,2.96,2.08,2.64,2.67,2.67,2.68
64.07,-0.30,-2.93,-0.30,-2.94,2.91,2.04,2.60,2.62,2.61,2.64
64.71,-0.30,-2.89,-0.30,-2.89,2.86,2.01,2.55,2.56,2.56,2.60
65.35,-0.28,-2.83,-0.27,-2.83,2.80,1.97,2.51,2.52,2.52,2.55
66.01,-0.25,-2.75,-0.23,-2.74,2.73,1.93,2.47,2.48,2.49,2.51
66.67,-0.18,-2.63,-0.18,-2.64,2.65,1.89,2.42,2.47,2.47,2.46
67.33,-0.13,-2.53,-0.13,-2.54,2.57,1.85,2.37,2.44,2.44,2.40
68.01,-0.10,-2.46,-0.10,-2.46,2.49,1.81,2.32,2.40,2.39,2.37
68.69,-0.10,-2.41,-0.09,-2.41,2.42,1.77,2.27,2.32,2.33,2.32
69.37,-0.10,-2.36,-0.09,-2.36,2.36,1.74,2.22,2.26,2.26,2.26
70.07,-0.10,-2.31,-0.09,-2.31,2.30,1.70,2.16,2.21,2.21,2.22
70.77,-0.10,-2.26,-0.10,-2.26,2.26,1.66,2.11,2.16,2.16,2.17
71.48,-0.11,-2.22,-0.11,-2.22,2.23,1.62,2.05,2.12,2.11,2.12
72.19,-0.14,-2.18,-0.14,-2.19,2.20,1.59,2.00,2.06,2.06,2.04
72.91,-0.19,-2.17,-0.17,-2.16,2.17,1.55,1.94,1.98,2.00,1.98
73.64,-0.20,-2.13,-0.20,-2.13,2.14,1.51,1.89,1.94,1.93,1.93
74.38,-0.23,-2.10,-0.24,-2.11,2.10,1.48,1.83,1.88,1.87,1.88
75.12,-0.28,-2.09,-0.27,-2.08,2.07,1.44,1.78,1.79,1.80,1.81
75.87,-0.30,-2.05,-0.29,-2.05,2.03,1.40,1.72,1.74,1.74,1.75
76.63,-0.30,-2.00,-0.30,-2.00,2.00,1.37,1.66,1.70,1.70,1.70
77.40,-0.30,-1.95,-0.30,-1.95,1.95,1.33,1.61,1.66,1.66,1.66
78.17,-0.30,-1.89,-0.30,-1.90,1.91,1.30,1.55,1.61,1.61,1.59
78.95,-0.30,-1.85,-0.30,-1.85,1.86,1.26,1.50,1.56,1.56,1.55
79.74,-0.30,-1.80,-0.30,-1.80,1.80,1.23,1.44,1.51,1.50,1.50
80.54,-0.30,-1.75,-0.30,-1.75,1.74,1.19,1.39,1.45,1.44,1.45
81.35,-0.30,-1.70,-0.29,-1.70,1.68,1.16,1.33,1.39,1.39,1.41
82.16,-0.29,-1.64,-0.28,-1.63,1.63,1.12,1.28,1.34,1.35,1.36
82.98,-0.25,-1.56,-0.25,-1.56,1.57,1.09,1.23,1.32,1.32,1.31
83.81,-0.21,-1.47,-0.22,-1.48,1.50,1.05,1.17,1.29,1.28,1.26
84.65,-0.20,-1.41,-0.20,-1.42,1.43,1.02,1.12,1.23,1.23,1.22
85.50,-0.20,-1.37,-0.20,-1.37,1.36,0.99,1.07,1.16,1.16,1.18
86.35,-0.20,-1.32,-0.19,-1.31,1.29,0.95,1.02,1.09,1.10,1.12
87.22,-0.18,-1.25,-0.16,-1.23,1.22,0.92,0.97,1.04,1.06,1.08
88.09,-0.10,-1.12,-0.12,-1.14,1.15,0.89,0.92,1.05,1.03,1.03
88.97,-0.09,-1.05,-0.09,-1.06,1.08,0.85,0.88,0.99,0.99,0.97
89.86,-0.09,-1.00,-0.08,-1.00,1.02,0.82,0.83,0.93,0.94,0.92
90.76,-0.09,-0.95,-0.09,-0.95,0.95,0.79,0.78,0.87,0.87,0.87
91.66,-0.09,-0.90,-0.09,-0.90,0.89,0.75,0.73,0.81,0.81,0.81
92.58,-0.09,-0.84,-0.09,-0.84,0.84,0.72,0.69,0.75,0.75,0.76
93.51,-0.09,-0.79,-0.09,-0.79,0.79,0.69,0.64,0.70,0.70,0.71
94.44,-0.09,-0.75,-0.09,-0.75,0.74,0.66,0.60,0.66,0.66,0.66
95.39,-0.09,-0.70,-0.09,-0.70,0.70,0.62,0.56,0.61,0.61,0.62
96.34,-0.09,-0.65,-0.09,-0.65,0.66,0.59,0.51,0.57,0.57,0.57
97.30,-0.10,-0.61,-0.09,-0.61,0.62,0.56,0.47,0.52,0.52,0.51
98.28,-0.11,-0.57,-0.10,-0.57,0.58,0.53,0.43,0.47,0.47,0.47
99.26,-0.12,-0.54,-0.12,-0.54,0.54,0.49,0.39,0.42,0.42,0.43
100.25,-0.14,-0.51,-0.14,-0.51,0.51,0.46,0.34,0.37,0.37,0.37
101.25,-0.16,-0.48,-0.15,-0.48,0.47,0.43,0.30,0.32,0.32,0.32
102.27,-0.17,-0.44,-0.17,-0.44,0.44,0.40,0.26,0.28,0.28,0.28
103.29,-0.18,-0.40,-0.18,-0.41,0.41,0.37,0.22,0.24,0.23,0.23
104.32,-0.20,-0.38,-0.20,-0.38,0.39,0.34,0.19,0.19,0.19,0.18
105.37,-0.23,-0.36,-0.22,-0.36,0.36,0.30,0.15,0.13,0.13,0.14
106.42,-0.25,-0.33,-0.25,-0.33,0.33,0.27,0.11,0.08,0.08,0.09
107.48,-0.28,-0.30,-0.27,-0.30,0.30,0.24,0.07,0.02,0.03,0.02
108.56,-0.30,-0.27,-0.30,-0.27,0.27,0.21,0.04,-0.02,-0.02,-0.02
109.64,-0.32,-0.24,-0.32,-0.24,0.24,0.18,0.00,-0.08,-0.08,-0.08
110.74,-0.34,-0.20,-0.34,-0.21,0.20,0.15,-0.03,-0.13,-0.13,-0.13
111.85,-0.36,-0.18,-0.35,-0.17,0.17,0.12,-0.07,-0.19,-0.19,-0.17
112.97,-0.37,-0.13,-0.37,-0.13,0.13,0.08,-0.10,-0.24,-0.24,-0.23
114.10,-0.37,-0.08,-0.37,-0.09,0.08,0.05,-0.14,-0.28,-0.29,-0.28
115.24,-0.38,-0.04,-0.37,-0.03,0.04,0.02,-0.17,-0.34,-0.33,-0.33
116.39,-0.37,0.02,-0.37,0.01,-0.01,-0.01,-0.20,-0.37,-0.38,-0.38
117.55,-0.37,0.06,-0.37,0.06,-0.05,-0.04,-0.23,-0.42,-0.42,-0.43
118.73,-0.37,0.10,-0.36,0.10,-0.10,-0.07,-0.26,-0.46,-0.46,-0.46
119.92,-0.36,0.14,-0.36,0.14,-0.14,-0.10,-0.29,-0.50,-0.50,-0.49
121.12,-0.35,0.19,-0.35,0.18,-0.18,-0.13,-0.31,-0.53,-0.53,-0.53
122.33,-0.34,0.23,-0.34,0.22,-0.22,-0.16,-0.34,-0.56,-0.56,-0.56
123.55,-0.34,0.26,-0.33,0.26,-0.26,-0.19,-0.37,-0.60,-0.60,-0.59
124.79,-0.33,0.30,-0.32,0.30,-0.30,-0.23,-0.39,-0.63,-0.63,-0.62
126.03,-0.32,0.34,-0.32,0.33,-0.34,-0.26,-0.41,-0.65,-0.65,-0.65
127.29,-0.31,0.37,-0.31,0.37,-0.37,-0.29,-0.44,-0.68,-0.68,-0.68
128.57,-0.31,0.41,-0.30,0.41,-0.41,-0.32,-0.46,-0.71,-0.71,-0.71
129.85,-0.30,0.45,-0.30,0.45,-0.44,-0.35,-0.48,-0.74,-0.74,-0.74
131.15,-0.30,0.48,-0.30,0.47,-0.48,-0.38,-0.50,-0.77,-0.78,-0.77
132.46,-0.30,0.51,-0.30,0.50,-0.51,-0.41,-0.52,-0.80,-0.81,-0.80
133.79,-0.33,0.51,-0.30,0.53,-0.54,-0.44,-0.54,-0.86,-0.84,-0.83
135.12,-0.28,0.59,-0.29,0.58,-0.56,-0.47,-0.56,-0.84,-0.85,-0.86
136.48,-0.28,0.61,-0.28,0.61,-0.59,-0.50,-0.58,-0.87,-0.88,-0.88
137.84,-0.28,0.65,-0.30,0.62,-0.62,-0.53,-0.60,-0.90,-0.92,-0.92
139.22,-0.34,0.62,-0.32,0.63,-0.64,-0.56,-0.61,-0.98,-0.97,-0.95
140.61,-0.37,0.62,-0.32,0.66,-0.67,-0.60,-0.63,-1.03,-0.99,-0.98
142.02,-0.29,0.72,-0.31,0.70,-0.69,-0.63,-0.65,-0.98,-1.00,-1.00
143.44,-0.28,0.76,-0.29,0.75,-0.72,-0.66,-0.67,-1.00,-1.02,-1.03
144.87,-0.30,0.78,-0.31,0.76,-0.76,-0.69,-0.68,-1.06,-1.07,-1.07
146.32,-0.36,0.76,-0.34,0.77,-0.80,-0.72,-0.70,-1.15,-1.14,-1.11
147.78,-0.38,0.77,-0.34,0.81,-0.84,-0.75,-0.72,-1.21,-1.18,-1.15
149.26,-0.32,0.88,-0.32,0.88,-0.88,-0.78,-0.73,-1.19,-1.20,-1.19
150.75,-0.27,0.99,-0.30,0.95,-0.92,-0.81,-0.75,-1.18,-1.22,-1.26
152.26,-0.33,1.00,-0.32,1.00,-0.96,-0.84,-0.77,-1.28,-1.28,-1.32
153.78,-0.39,1.01,-0.38,1.01,-1.00,-0.87,-0.79,-1.39,-1.38,-1.40
155.32,-0.45,1.02,-0.44,1.03,-1.05,-0.90,-0.81,-1.50,-1.49,-1.47
156.88,-0.47,1.08,-0.46,1.08,-1.11,-0.93,-0.83,-1.58,-1.57,-1.54
158.44,-0.47,1.16,-0.48,1.15,-1.18,-0.96,-0.85,-1.64,-1.65,-1.63
160.03,-0.47,1.24,-0.48,1.23,-1.25,-0.99,-0.87,-1.72,-1.73,-1.70
161.63,-0.48,1.30,-0.46,1.31,-1.33,-1.02,-0.89,-1.81,-1.79,-1.77
163.24,-0.44,1.40,-0.43,1.41,-1.42,-1.05,-0.91,-1.85,-1.85,-1.84
164.88,-0.38,1.51,-0.38,1.51,-1.50,-1.08,-0.94,-1.88,-1.88,-1.88
166.53,-0.32,1.62,-0.33,1.61,-1.58,-1.11,-0.96,-1.89,-1.90,-1.93
168.19,-0.29,1.69,-0.30,1.68,-1.64,-1.14,-0.98,-1.93,-1.94,-1.97
169.87,-0.30,1.72,-0.29,1.72,-1.69,-1.16,-1.01,-1.99,-1.98,-2.01
171.57,-0.30,1.74,-0.30,1.74,-1.73,-1.19,-1.04,-2.02,-2.02,-2.03
173.29,-0.31,1.74,-0.31,1.74,-1.75,-1.22,-1.06,-2.05,-2.05,-2.04
175.02,-0.32,1.74,-0.31,1.75,-1.76,-1.25,-1.09,-2.07,-2.07,-2.05
176.77,-0.32,1.75,-0.32,1.75,-1.76,-1.28,-1.12,-2.07,-2.07,-2.06
178.54,-0.32,1.76,-0.32,1.75,-1.75,-1.31,-1.15,-2.07,-2.07,-2.07
180.32,-0.32,1.75,-0.31,1.75,-1.76,-1.33,-1.18,-2.07,-2.07,-2.06
182.13,-0.31,1.75,-0.31,1.75,-1.76,-1.36,-1.22,-2.07,-2.07,-2.05
183.95,-0.30,1.77,-0.30,1.76,-1.77,-1.39,-1.25,-2.07,-2.07,-2.06
185.79,-0.29,1.78,-0.28,1.79,-1.79,-1.41,-1.28,-2.08,-2.07,-2.06
187.65,-0.27,1.82,-0.27,1.81,-1.81,-1.44,-1.32,-2.08,-2.08,-2.08
189.52,-0.26,1.84,-0.26,1.84,-1.84,-1.46,-1.35,-2.10,-2.10,-2.09
191.42,-0.25,1.87,-0.24,1.87,-1.87,-1.49,-1.39,-2.12,-2.12,-2.11
193.33,-0.23,1.91,-0.23,1.91,-1.91,-1.51,-1.43,-2.13,-2.14,-2.13
195.27,-0.22,1.94,-0.21,1.94,-1.94,-1.54,-1.46,-2.16,-2.16,-2.15
197.22,-0.20,1.98,-0.20,1.98,-1.98,-1.56,-1.50,-2.17,-2.18,-2.17
199.19,-0.19,2.01,-0.19,2.01,-2.01,-1.58,-1.54,-2.20,-2.20,-2.19
201.18,-0.18,2.04,-0.18,2.04,-2.04,-1.61,-1.58,-2.21,-2.22,-2.21
203.19,-0.18,2.06,-0.17,2.06,-2.06,-1.63,-1.62,-2.23,-2.23,-2.23
205.23,-0.18,2.08,-0.17,2.08,-2.07,-1.65,-1.66,-2.24,-2.24,-2.25
207.28,-0.18,2.09,-0.19,2.08,-2.07,-1.67,-1.70,-2.25,-2.26,-2.26
209.35,-0.20,2.09,-0.21,2.08,-2.06,-1.69,-1.74,-2.26,-2.27,-2.28
211.44,-0.28,2.04,-0.24,2.06,-2.05,-1.71,-1.78,-2.33,-2.30,-2.31
213.56,-0.28,2.05,-0.29,2.04,-2.04,-1.73,-1.81,-2.32,-2.33,-2.32
215.69,-0.32,2.02,-0.33,2.00,-2.03,-1.75,-1.85,-2.34,-2.36,-2.33
217.85,-0.39,1.96,-0.36,1.98,-2.01,-1.77,-1.89,-2.40,-2.37,-2.34
220.03,-0.40,1.96,-0.39,1.97,-1.99,-1.78,-1.93,-2.38,-2.38,-2.35
222.23,-0.40,1.99,-0.40,1.98,-1.97,-1.80,-1.96,-2.36,-2.36,-2.38
224.45,-0.40,1.98,-0.40,1.98,-1.95,-1.82,-1.99,-2.34,-2.34,-2.37
226.70,-0.40,1.98,-0.42,1.96,-1.93,-1.83,-2.02,-2.32,-2.34,-2.37
228.96,-0.46,1.91,-0.45,1.91,-1.91,-1.84,-2.05,-2.37,-2.36,-2.36
231.25,-0.50,1.86,-0.48,1.87,-1.89,-1.86,-2.08,-2.39,-2.38,-2.35
233.57,-0.50,1.85,-0.50,1.85,-1.88,-1.87,-2.11,-2.38,-2.38,-2.34
235.90,-0.49,1.85,-0.49,1.85,-1.87,-1.88,-2.13,-2.35,-2.35,-2.33
238.26,-0.47,1.86,-0.46,1.85,-1.85,-1.89,-2.15,-2.32,-2.32,-2.32
240.64,-0.44,1.86,-0.44,1.86,-1.84,-1.90,-2.17,-2.28,-2.28,-2.29
243.05,-0.42,1.85,-0.42,1.85,-1.84,-1.91,-2.18,-2.25,-2.25,-2.26
245.48,-0.40,1.85,-0.39,1.85,-1.84,-1.92,-2.19,-2.24,-2.23,-2.24
247.93,-0.37,1.85,-0.37,1.85,-1.84,-1.93,-2.20,-2.21,-2.21,-2.21
250.41,-0.35,1.85,-0.36,1.84,-1.85,-1.93,-2.20,-2.20,-2.20,-2.19
252.92,-0.34,1.83,-0.34,1.83,-1.85,-1.94,-2.20,-2.19,-2.19,-2.16
255.45,-0.34,1.81,-0.31,1.84,-1.86,-1.94,-2.20,-2.19,-2.16,-2.14
258.00,-0.27,1.86,-0.27,1.86,-1.85,-1.95,-2.20,-2.12,-2.12,-2.12
260.58,-0.21,1.90,-0.23,1.87,-1.85,-1.95,-2.19,-2.06,-2.08,-2.10
263.19,-0.21,1.87,-0.20,1.88,-1.84,-1.95,-2.18,-2.05,-2.04,-2.07
265.82,-0.21,1.85,-0.20,1.85,-1.84,-1.95,-2.16,-2.04,-2.04,-2.05
268.48,-0.21,1.83,-0.21,1.82,-1.83,-1.95,-2.15,-2.03,-2.04,-2.03
271.16,-0.22,1.79,-0.22,1.79,-1.82,-1.95,-2.13,-2.03,-2.03,-2.00
273.87,-0.22,1.77,-0.22,1.76,-1.80,-1.95,-2.11,-2.01,-2.01,-1.98
276.61,-0.22,1.74,-0.20,1.76,-1.77,-1.95,-2.08,-1.99,-1.97,-1.95
279.38,-0.17,1.76,-0.16,1.76,-1.74,-1.95,-2.06,-1.91,-1.91,-1.92
282.17,-0.13,1.78,-0.15,1.75,-1.71,-1.94,-2.03,-1.84,-1.86,-1.90
284.99,-0.14,1.73,-0.15,1.72,-1.69,-1.94,-2.00,-1.82,-1.84,-1.86
287.84,-0.21,1.64,-0.18,1.67,-1.67,-1.93,-1.98,-1.87,-1.84,-1.84
290.72,-0.20,1.62,-0.19,1.62,-1.65,-1.93,-1.94,-1.84,-1.84,-1.81
293.63,-0.18,1.61,-0.19,1.59,-1.63,-1.92,-1.91,-1.81,-1.83,-1.78
296.57,-0.17,1.59,-0.17,1.59,-1.62,-1.91,-1.88,-1.79,-1.78,-1.75
299.53,-0.16,1.57,-0.13,1.60,-1.61,-1.90,-1.85,-1.76,-1.73,-1.72
302.53,-0.07,1.64,-0.08,1.62,-1.60,-1.89,-1.82,-1.67,-1.69,-1.70
305.55,-0.03,1.64,-0.04,1.63,-1.60,-1.88,-1.79,-1.63,-1.64,-1.66
308.61,-0.03,1.62,-0.02,1.63,-1.60,-1.87,-1.76,-1.63,-1.62,-1.64
311.69,-0.02,1.60,-0.02,1.60,-1.60,-1.86,-1.72,-1.61,-1.61,-1.61
314.81,-0.02,1.58,-0.01,1.58,-1.59,-1.85,-1.69,-1.61,-1.60,-1.59
317.96,-0.01,1.57,-0.01,1.57,-1.58,-1.84,-1.66,-1.58,-1.58,-1.57
321.14,-0.01,1.56,-0.01,1.56,-1.56,-1.83,-1.63,-1.56,-1.56,-1.56
324.35,-0.01,1.54,-0.01,1.54,-1.54,-1.81,-1.60,-1.55,-1.55,-1.54
327.59,-0.01,1.53,-0.01,1.53,-1.53,-1.80,-1.57,-1.53,-1.54,-1.53
330.87,-0.02,1.51,-0.01,1.51,-1.51,-1.78,-1.55,-1.53,-1.53,-1.52
334.18,-0.02,1.49,-0.02,1.49,-1.50,-1.77,-1.52,-1.52,-1.51,-1.50
337.52,-0.02,1.48,-0.02,1.48,-1.48,-1.75,-1.49,-1.50,-1.50,-1.49
340.90,-0.02,1.47,-0.01,1.47,-1.46,-1.74,-1.47,-1.48,-1.47,-1.48
344.30,-0.02,1.46,-0.01,1.46,-1.44,-1.72,-1.45,-1.46,-1.46,-1.47
347.75,-0.02,1.46,-0.03,1.44,-1.42,-1.71,-1.42,-1.44,-1.46,-1.47
351.23,-0.07,1.40,-0.06,1.41,-1.41,-1.69,-1.40,-1.47,-1.47,-1.46
354.74,-0.11,1.37,-0.09,1.38,-1.39,-1.67,-1.38,-1.50,-1.48,-1.47
358.28,-0.11,1.36,-0.11,1.36,-1.38,-1.66,-1.36,-1.48,-1.49,-1.46
361.87,-0.11,1.36,-0.11,1.36,-1.37,-1.64,-1.35,-1.48,-1.48,-1.46
365.49,-0.10,1.36,-0.10,1.36,-1.37,-1.62,-1.33,-1.47,-1.47,-1.45
369.14,-0.10,1.37,-0.09,1.37,-1.38,-1.60,-1.31,-1.47,-1.47,-1.46
372.83,-0.09,1.38,-0.08,1.38,-1.39,-1.59,-1.30,-1.47,-1.47,-1.46
376.56,-0.08,1.40,-0.08,1.39,-1.39,-1.57,-1.28,-1.47,-1.47,-1.47
380.33,-0.07,1.40,-0.06,1.40,-1.39,-1.55,-1.27,-1.46,-1.46,-1.46
384.13,-0.07,1.40,-0.06,1.41,-1.38,-1.53,-1.26,-1.45,-1.44,-1.46
387.97,-0.06,1.42,-0.07,1.40,-1.37,-1.51,-1.25,-1.42,-1.44,-1.47
391.85,-0.11,1.38,-0.11,1.37,-1.35,-1.49,-1.24,-1.45,-1.45,-1.48
395.77,-0.16,1.32,-0.16,1.32,-1.32,-1.47,-1.23,-1.48,-1.48,-1.47
399.73,-0.23,1.26,-0.21,1.27,-1.30,-1.46,-1.22,-1.52,-1.51,-1.48
403.72,-0.26,1.23,-0.25,1.24,-1.27,-1.44,-1.21,-1.53,-1.52,-1.48
407.76,-0.26,1.25,-0.26,1.23,-1.26,-1.42,-1.21,-1.51,-1.52,-1.50
411.84,-0.27,1.24,-0.27,1.24,-1.24,-1.40,-1.20,-1.51,-1.51,-1.50
415.96,-0.27,1.24,-0.27,1.24,-1.24,-1.38,-1.20,-1.50,-1.50,-1.50
420.12,-0.27,1.24,-0.26,1.24,-1.24,-1.36,-1.19,-1.50,-1.50,-1.50
424.32,-0.26,1.25,-0.26,1.24,-1.24,-1.34,-1.19,-1.49,-1.50,-1.50
428.56,-0.25,1.25,-0.24,1.26,-1.24,-1.32,-1.18,-1.48,-1.48,-1.49
432.85,-0.24,1.25,-0.23,1.26,-1.23,-1.31,-1.18,-1.47,-1.46,-1.48
437.18,-0.21,1.27,-0.23,1.24,-1.23,-1.29,-1.18,-1.44,-1.46,-1.47
441.55,-0.23,1.21,-0.22,1.22,-1.23,-1.27,-1.17,-1.45,-1.45,-1.43
445.96,-0.23,1.18,-0.21,1.20,-1.23,-1.25,-1.17,-1.45,-1.43,-1.40
450.42,-0.18,1.20,-0.18,1.19,-1.22,-1.23,-1.17,-1.40,-1.40,-1.37
454.93,-0.12,1.21,-0.12,1.21,-1.22,-1.21,-1.16,-1.34,-1.34,-1.32
459.48,-0.06,1.23,-0.05,1.23,-1.22,-1.20,-1.16,-1.27,-1.27,-1.28
464.07,0.00,1.24,0.00,1.23,-1.21,-1.18,-1.15,-1.21,-1.21,-1.23
468.71,0.05,1.23,0.04,1.22,-1.20,-1.16,-1.15,-1.14,-1.16,-1.17
473.40,0.06,1.20,0.08,1.20,-1.18,-1.14,-1.15,-1.12,-1.11,-1.13
