frequency,raw,error,smoothed,error_smoothed,equalization,parametric_eq,fixed_band_eq,equalized_raw,equalized_smoothed,target
20.00,-4.72,-9.05,-4.57,-8.93,8.93,-0.03,3.17,4.21,4.36,4.33
20.20,-4.71,-9.09,-4.63,-9.03,9.03,-0.03,3.26,4.32,4.40,4.38
20.40,-4.70,-9.13,-4.68,-9.12,9.12,-0.03,3.35,4.42,4.43,4.43
20.61,-4.70,-9.16,-4.73,-9.19,9.19,-0.03,3.44,4.50,4.46,4.46
20.81,-4.69,-9.20,-4.77,-9.26,9.26,-0.03,3.54,4.57,4.49,4.51
21.02,-4.68,-9.22,-4.80,-9.32,9.32,-0.03,3.64,4.64,4.52,4.55
21.23,-4.71,-9.27,-4.82,-9.36,9.36,-0.03,3.74,4.66,4.55,4.57
21.44,-4.74,-9.32,-4.83,-9.40,9.40,-0.03,3.85,4.66,4.57,4.59
21.66,-4.77,-9.37,-4.83,-9.42,9.42,-0.03,3.95,4.66,4.59,4.61
21.87,-4.80,-9.41,-4.83,-9.44,9.44,-0.04,4.06,4.64,4.61,4.62
22.09,-4.82,-9.45,-4.82,-9.44,9.44,-0.04,4.18,4.62,4.62,4.64
22.31,-4.82,-9.46,-4.80,-9.43,9.43,-0.04,4.29,4.62,4.64,4.65
22.54,-4.82,-9.46,-4.78,-9.43,9.43,-0.04,4.41,4.61,4.64,4.64
22.76,-4.82,-9.46,-4.76,-9.40,9.40,-0.04,4.54,4.59,4.64,4.64
22.99,-4.82,-9.45,-4.72,-9.36,9.36,-0.04,4.66,4.55,4.65,4.63
23.22,-4.73,-9.36,-4.66,-9.31,9.31,-0.04,4.79,4.58,4.65,4.63
23.45,-4.64,-9.27,-4.60,-9.25,9.25,-0.04,4.92,4.61,4.65,4.63
23.69,-4.54,-9.18,-4.52,-9.17,9.17,-0.04,5.06,4.63,4.65,4.64
23.92,-4.44,-9.09,-4.43,-9.08,9.08,-0.04,5.20,4.64,4.65,4.64
24.16,-4.33,-8.98,-4.34,-8.99,8.99,-0.04,5.34,4.65,4.65,4.65
24.40,-4.21,-8.87,-4.25,-8.89,8.89,-0.04,5.48,4.68,4.65,4.66
24.65,-4.09,-8.73,-4.15,-8.80,8.80,-0.04,5.63,4.71,4.65,4.65
24.89,-3.96,-8.61,-4.06,-8.70,8.70,-0.05,5.77,4.74,4.65,4.65
25.14,-3.87,-8.52,-3.96,-8.61,8.61,-0.05,5.92,4.73,4.65,4.65
25.39,-3.79,-8.45,-3.86,-8.51,8.51,-0.05,6.07,4.72,4.65,4.65
25.65,-3.73,-8.38,-3.76,-8.41,8.41,-0.05,6.22,4.69,4.65,4.65
25.91,-3.66,-8.30,-3.66,-8.31,8.31,-0.05,6.38,4.66,4.65,4.64
26.16,-3.56,-8.21,-3.56,-8.20,8.20,-0.05,6.53,4.64,4.65,4.64
26.43,-3.47,-8.11,-3.44,-8.08,8.08,-0.05,6.68,4.62,4.64,4.64
26.69,-3.37,-8.00,-3.31,-7.95,7.95,-0.05,6.83,4.59,4.64,4.64
26.96,-3.28,-7.92,-3.17,-7.81,7.81,-0.05,6.98,4.53,4.64,4.65
27.23,-3.10,-7.74,-3.01,-7.65,7.65,-0.05,7.13,4.55,4.64,4.65
27.50,-2.91,-7.55,-2.84,-7.48,7.48,-0.06,7.27,4.57,4.64,4.64
27.77,-2.71,-7.35,-2.66,-7.29,7.29,-0.06,7.41,4.58,4.63,4.63
28.05,-2.50,-7.14,-2.45,-7.08,7.08,-0.06,7.54,4.58,4.63,4.63
28.33,-2.25,-6.87,-2.23,-6.86,6.86,-0.06,7.67,4.61,4.63,4.62
28.62,-2.01,-6.63,-2.01,-6.63,6.63,-0.06,7.79,4.62,4.63,4.62
28.90,-1.76,-6.39,-1.77,-6.40,6.40,-0.06,7.90,4.63,4.63,4.63
29.19,-1.53,-6.14,-1.53,-6.16,6.16,-0.06,8.00,4.63,4.63,4.61
29.48,-1.30,-5.94,-1.30,-5.92,5.92,-0.06,8.09,4.62,4.62,4.63
29.78,-1.08,-5.70,-1.08,-5.70,5.70,-0.07,8.17,4.62,4.62,4.62
30.08,-0.87,-5.50,-0.88,-5.49,5.49,-0.07,8.24,4.63,4.62,4.63
30.38,-0.69,-5.31,-0.71,-5.32,5.32,-0.07,8.29,4.63,4.62,4.62
30.68,-0.52,-5.13,-0.56,-5.18,5.18,-0.07,8.33,4.66,4.61,4.61
30.99,-0.35,-4.96,-0.45,-5.06,5.06,-0.07,8.36,4.71,4.61,4.61
31.30,-0.27,-4.88,-0.37,-4.98,4.98,-0.07,8.37,4.71,4.61,4.61
31.61,-0.21,-4.81,-0.32,-4.93,4.93,-0.07,8.37,4.72,4.61,4.61
31.93,-0.14,-4.74,-0.30,-4.90,4.90,-0.08,8.35,4.77,4.60,4.60
32.24,-0.20,-4.79,-0.31,-4.91,4.91,-0.08,8.32,4.71,4.60,4.59
32.57,-0.31,-4.90,-0.33,-4.93,4.93,-0.08,8.27,4.62,4.59,4.60
32.89,-0.42,-5.01,-0.38,-4.97,4.97,-0.08,8.22,4.55,4.59,4.60
33.22,-0.52,-5.10,-0.44,-5.02,5.02,-0.08,8.15,4.50,4.58,4.58
33.55,-0.60,-5.18,-0.52,-5.10,5.10,-0.08,8.07,4.50,4.58,4.58
33.89,-0.68,-5.24,-0.61,-5.19,5.19,-0.08,7.98,4.51,4.57,4.57
34.23,-0.75,-5.32,-0.71,-5.28,5.28,-0.09,7.89,4.53,4.57,4.57
34.57,-0.82,-5.38,-0.80,-5.37,5.37,-0.09,7.78,4.55,4.56,4.56
34.92,-0.88,-5.43,-0.88,-5.44,5.44,-0.09,7.67,4.56,4.56,4.56
35.27,-0.91,-5.46,-0.94,-5.49,5.49,-0.09,7.56,4.59,4.55,4.55
35.62,-0.92,-5.46,-0.98,-5.53,5.53,-0.09,7.44,4.61,4.55,4.55
35.97,-0.94,-5.48,-0.98,-5.53,5.53,-0.10,7.31,4.60,4.55,4.54
36.33,-1.01,-5.56,-0.96,-5.51,5.51,-0.10,7.19,4.50,4.54,4.55
36.70,-1.09,-5.62,-0.92,-5.46,5.46,-0.10,7.06,4.38,4.54,4.54
37.06,-1.11,-5.65,-0.85,-5.40,5.40,-0.10,6.93,4.28,4.54,4.53
37.43,-0.93,-5.48,-0.77,-5.31,5.31,-0.10,6.80,4.38,4.54,4.55
37.81,-0.77,-5.31,-0.67,-5.21,5.21,-0.11,6.67,4.45,4.54,4.54
38.19,-0.60,-5.13,-0.56,-5.10,5.10,-0.11,6.54,4.51,4.54,4.54
38.57,-0.45,-4.99,-0.45,-4.99,4.99,-0.11,6.42,4.54,4.54,4.54
38.95,-0.28,-4.83,-0.33,-4.87,4.87,-0.11,6.29,4.59,4.54,4.55
39.34,-0.12,-4.66,-0.22,-4.76,4.76,-0.11,6.17,4.64,4.54,4.54
39.74,0.02,-4.51,-0.12,-4.66,4.66,-0.12,6.05,4.68,4.54,4.53
40.14,0.13,-4.40,-0.03,-4.56,4.56,-0.12,5.93,4.70,4.53,4.54
40.54,0.16,-4.37,0.05,-4.48,4.48,-0.12,5.82,4.65,4.53,4.53
40.94,0.19,-4.33,0.10,-4.43,4.43,-0.12,5.71,4.62,4.53,4.52
41.35,0.17,-4.34,0.12,-4.40,4.40,-0.13,5.60,4.57,4.52,4.52
41.76,0.15,-4.36,0.11,-4.40,4.40,-0.13,5.50,4.55,4.51,4.51
42.18,0.11,-4.40,0.09,-4.42,4.42,-0.13,5.40,4.53,4.50,4.51
42.60,0.03,-4.46,0.04,-4.45,4.45,-0.13,5.31,4.48,4.49,4.49
43.03,-0.04,-4.52,-0.01,-4.49,4.49,-0.14,5.21,4.45,4.48,4.49
43.46,-0.10,-4.57,-0.07,-4.54,4.54,-0.14,5.13,4.44,4.46,4.48
43.90,-0.16,-4.61,-0.13,-4.58,4.58,-0.14,5.04,4.42,4.45,4.45
44.33,-0.21,-4.64,-0.18,-4.61,4.61,-0.14,4.96,4.41,4.44,4.43
44.78,-0.27,-4.68,-0.21,-4.63,4.63,-0.15,4.89,4.37,4.42,4.41
45.23,-0.31,-4.71,-0.23,-4.64,4.64,-0.15,4.81,4.34,4.41,4.40
45.68,-0.33,-4.71,-0.25,-4.64,4.64,-0.15,4.74,4.31,4.39,4.38
46.13,-0.34,-4.70,-0.24,-4.62,4.62,-0.16,4.68,4.28,4.37,4.36
46.60,-0.31,-4.67,-0.23,-4.59,4.59,-0.16,4.62,4.28,4.36,4.36
47.06,-0.28,-4.61,-0.21,-4.55,4.55,-0.16,4.56,4.28,4.34,4.34
47.53,-0.19,-4.51,-0.19,-4.51,4.51,-0.17,4.51,4.32,4.32,4.33
48.01,-0.10,-4.42,-0.16,-4.46,4.46,-0.17,4.45,4.37,4.31,4.33
48.49,-0.05,-4.35,-0.12,-4.42,4.42,-0.17,4.41,4.37,4.29,4.30
48.97,0.00,-4.28,-0.09,-4.37,4.37,-0.18,4.36,4.37,4.28,4.28
49.46,0.00,-4.25,-0.06,-4.32,4.32,-0.18,4.32,4.32,4.26,4.26
49.96,0.00,-4.23,-0.03,-4.27,4.27,-0.18,4.28,4.28,4.24,4.23
50.46,0.00,-4.22,-0.00,-4.23,4.23,-0.19,4.24,4.23,4.23,4.23
50.96,0.00,-4.21,0.02,-4.20,4.20,-0.19,4.21,4.20,4.21,4.21
51.47,0.00,-4.18,0.03,-4.17,4.17,-0.19,4.18,4.18,4.20,4.19
51.99,0.00,-4.17,0.03,-4.15,4.15,-0.20,4.15,4.16,4.18,4.17
52.51,0.00,-4.16,0.02,-4.14,4.14,-0.20,4.12,4.15,4.17,4.17
53.03,0.00,-4.15,0.01,-4.14,4.14,-0.21,4.09,4.14,4.15,4.16
53.56,0.00,-4.14,0.00,-4.13,4.13,-0.21,4.06,4.14,4.14,4.14
54.10,0.00,-4.12,-0.01,-4.13,4.13,-0.21,4.04,4.13,4.12,4.12
54.64,0.00,-4.10,-0.02,-4.13,4.13,-0.22,4.02,4.13,4.11,4.10
55.18,-0.01,-4.10,-0.03,-4.13,4.13,-0.22,3.99,4.12,4.09,4.09
55.74,-0.06,-4.13,-0.05,-4.12,4.12,-0.23,3.97,4.07,4.08,4.07
56.29,-0.09,-4.15,-0.06,-4.12,4.12,-0.23,3.94,4.03,4.06,4.06
56.86,-0.10,-4.14,-0.07,-4.11,4.11,-0.24,3.92,4.02,4.04,4.04
57.42,-0.10,-4.11,-0.09,-4.11,4.11,-0.24,3.89,4.01,4.02,4.01
58.00,-0.10,-4.09,-0.10,-4.10,4.10,-0.25,3.87,4.01,4.00,4.00
58.58,-0.10,-4.08,-0.13,-4.10,4.10,-0.25,3.84,4.00,3.97,3.98
59.16,-0.12,-4.07,-0.15,-4.09,4.09,-0.26,3.81,3.97,3.94,3.96
59.76,-0.19,-4.12,-0.17,-4.08,4.08,-0.26,3.78,3.90,3.91,3.93
60.35,-0.21,-4.09,-0.20,-4.07,4.07,-0.27,3.75,3.87,3.88,3.89
60.96,-0.20,-4.05,-0.22,-4.06,4.06,-0.27,3.71,3.86,3.84,3.85
61.57,-0.19,-3.99,-0.23,-4.03,4.03,-0.28,3.68,3.84,3.80,3.80
62.18,-0.21,-3.96,-0.24,-3.99,3.99,-0.28,3.64,3.79,3.76,3.75
62.80,-0.28,-3.98,-0.24,-3.95,3.95,-0.29,3.60,3.68,3.71,3.70
63.43,-0.30,-3.95,-0.24,-3.91,3.91,-0.29,3.55,3.61,3.66,3.65
64.07,-0.30,-3.90,-0.24,-3.86,3.86,-0.30,3.50,3.56,3.61,3.60
64.71,-0.30,-3.85,-0.23,-3.80,3.80,-0.30,3.45,3.50,3.56,3.55
65.35,-0.28,-3.79,-0.22,-3.73,3.73,-0.31,3.40,3.45,3.51,3.51
66.01,-0.25,-3.70,-0.20,-3.66,3.66,-0.32,3.35,3.41,3.46,3.46
66.67,-0.18,-3.58,-0.18,-3.59,3.59,-0.32,3.29,3.41,3.40,3.40
67.33,-0.13,-3.47,-0.17,-3.52,3.52,-0.33,3.23,3.39,3.35,3.35
68.01,-0.10,-3.40,-0.15,-3.45,3.45,-0.34,3.17,3.35,3.30,3.30
68.69,-0.10,-3.34,-0.14,-3.38,3.38,-0.34,3.11,3.29,3.24,3.24
69.37,-0.10,-3.28,-0.13,-3.31,3.31,-0.35,3.05,3.22,3.18,3.18
70.07,-0.10,-3.22,-0.13,-3.25,3.25,-0.36,2.98,3.15,3.12,3.12
70.77,-0.10,-3.17,-0.13,-3.19,3.19,-0.36,2.91,3.10,3.06,3.07
71.48,-0.11,-3.12,-0.14,-3.14,3.14,-0.37,2.85,3.03,3.00,3.01
72.19,-0.14,-3.08,-0.15,-3.09,3.09,-0.38,2.78,2.95,2.94,2.94
72.91,-0.19,-3.06,-0.17,-3.05,3.05,-0.39,2.71,2.86,2.88,2.88
73.64,-0.20,-3.01,-0.19,-3.01,3.01,-0.39,2.64,2.81,2.81,2.81
74.38,-0.23,-2.97,-0.22,-2.97,2.97,-0.40,2.57,2.74,2.75,2.75
75.12,-0.28,-2.96,-0.24,-2.93,2.93,-0.41,2.50,2.65,2.69,2.68
75.87,-0.30,-2.91,-0.26,-2.89,2.89,-0.42,2.43,2.59,2.62,2.62
76.63,-0.30,-2.85,-0.28,-2.84,2.84,-0.42,2.36,2.54,2.56,2.56
77.40,-0.30,-2.79,-0.29,-2.79,2.79,-0.43,2.29,2.49,2.50,2.50
78.17,-0.30,-2.72,-0.29,-2.74,2.74,-0.44,2.22,2.44,2.44,2.43
78.95,-0.30,-2.68,-0.30,-2.68,2.68,-0.45,2.16,2.39,2.38,2.39
79.74,-0.30,-2.62,-0.30,-2.62,2.62,-0.46,2.09,2.33,2.32,2.33
80.54,-0.30,-2.57,-0.29,-2.56,2.56,-0.47,2.02,2.26,2.27,2.27
81.35,-0.30,-2.50,-0.28,-2.49,2.49,-0.48,1.96,2.20,2.21,2.21
82.16,-0.29,-2.44,-0.26,-2.42,2.42,-0.49,1.89,2.13,2.16,2.15
82.98,-0.25,-2.35,-0.25,-2.35,2.35,-0.49,1.83,2.10,2.10,2.11
83.81,-0.21,-2.25,-0.23,-2.27,2.27,-0.50,1.76,2.06,2.04,2.04
84.65,-0.20,-2.18,-0.21,-2.19,2.19,-0.51,1.70,2.00,1.99,1.98
85.50,-0.20,-2.13,-0.19,-2.12,2.12,-0.52,1.64,1.92,1.93,1.94
86.35,-0.20,-2.07,-0.17,-2.04,2.04,-0.53,1.58,1.85,1.87,1.88
87.22,-0.18,-1.99,-0.15,-1.96,1.96,-0.54,1.52,1.79,1.81,1.82
88.09,-0.10,-1.85,-0.13,-1.89,1.89,-0.55,1.47,1.79,1.75,1.76
88.97,-0.09,-1.78,-0.12,-1.81,1.81,-0.56,1.41,1.73,1.69,1.70
89.86,-0.09,-1.72,-0.10,-1.74,1.74,-0.58,1.35,1.65,1.63,1.63
90.76,-0.09,-1.66,-0.09,-1.67,1.67,-0.59,1.30,1.58,1.58,1.57
91.66,-0.09,-1.60,-0.09,-1.60,1.60,-0.60,1.24,1.51,1.51,1.52
92.58,-0.09,-1.53,-0.08,-1.54,1.54,-0.61,1.19,1.45,1.46,1.44
93.51,-0.09,-1.48,-0.08,-1.48,1.48,-0.62,1.14,1.39,1.40,1.39
94.44,-0.09,-1.42,-0.08,-1.42,1.42,-0.63,1.09,1.33,1.34,1.34
95.39,-0.09,-1.37,-0.08,-1.36,1.36,-0.64,1.04,1.27,1.28,1.28
96.34,-0.09,-1.30,-0.09,-1.31,1.31,-0.66,0.99,1.22,1.22,1.21
97.30,-0.10,-1.25,-0.10,-1.26,1.26,-0.67,0.94,1.16,1.16,1.16
98.28,-0.11,-1.21,-0.11,-1.21,1.21,-0.68,0.89,1.11,1.10,1.10
99.26,-0.12,-1.16,-0.12,-1.17,1.17,-0.69,0.85,1.05,1.05,1.05
100.25,-0.14,-1.12,-0.14,-1.12,1.12,-0.71,0.80,0.99,0.99,0.99
101.25,-0.16,-1.09,-0.15,-1.08,1.08,-0.72,0.75,0.92,0.93,0.93
102.27,-0.17,-1.04,-0.17,-1.04,1.04,-0.73,0.71,0.87,0.87,0.87
103.29,-0.18,-0.98,-0.19,-1.00,1.00,-0.75,0.67,0.82,0.81,0.81
104.32,-0.20,-0.95,-0.21,-0.96,0.96,-0.76,0.62,0.77,0.75,0.76
105.37,-0.23,-0.93,-0.23,-0.92,0.92,-0.78,0.58,0.70,0.69,0.70
106.42,-0.25,-0.89,-0.25,-0.88,0.88,-0.79,0.54,0.64,0.63,0.64
107.48,-0.28,-0.85,-0.27,-0.84,0.84,-0.80,0.50,0.57,0.57,0.57
108.56,-0.30,-0.80,-0.29,-0.80,0.80,-0.82,0.46,0.50,0.51,0.51
109.64,-0.32,-0.77,-0.31,-0.76,0.76,-0.83,0.42,0.44,0.45,0.45
110.74,-0.34,-0.72,-0.33,-0.71,0.71,-0.85,0.38,0.37,0.38,0.38
111.85,-0.36,-0.69,-0.34,-0.66,0.66,-0.86,0.35,0.31,0.32,0.33
112.97,-0.37,-0.62,-0.35,-0.61,0.61,-0.88,0.31,0.25,0.26,0.26
114.10,-0.37,-0.57,-0.36,-0.56,0.56,-0.90,0.27,0.20,0.20,0.20
115.24,-0.38,-0.52,-0.37,-0.51,0.51,-0.91,0.24,0.14,0.15,0.15
116.39,-0.37,-0.45,-0.37,-0.46,0.46,-0.93,0.20,0.09,0.09,0.08
117.55,-0.37,-0.40,-0.37,-0.41,0.41,-0.94,0.17,0.04,0.04,0.03
118.73,-0.37,-0.34,-0.36,-0.35,0.35,-0.96,0.14,-0.01,-0.01,-0.02
119.92,-0.36,-0.30,-0.36,-0.30,0.30,-0.98,0.10,-0.06,-0.06,-0.06
121.12,-0.35,-0.24,-0.35,-0.25,0.25,-1.00,0.07,-0.10,-0.10,-0.11
122.33,-0.34,-0.18,-0.34,-0.20,0.20,-1.01,0.04,-0.14,-0.15,-0.15
123.55,-0.34,-0.15,-0.34,-0.15,0.15,-1.03,0.01,-0.19,-0.19,-0.19
124.79,-0.33,-0.10,-0.33,-0.09,0.09,-1.05,-0.02,-0.23,-0.23,-0.23
126.03,-0.32,-0.05,-0.32,-0.04,0.04,-1.07,-0.05,-0.27,-0.27,-0.27
127.29,-0.31,-0.01,-0.31,-0.00,0.00,-1.09,-0.08,-0.30,-0.31,-0.30
128.57,-0.31,0.04,-0.31,0.04,-0.04,-1.10,-0.10,-0.35,-0.35,-0.35
129.85,-0.30,0.09,-0.31,0.08,-0.08,-1.12,-0.13,-0.38,-0.39,-0.39
131.15,-0.30,0.13,-0.30,0.13,-0.13,-1.14,-0.16,-0.42,-0.43,-0.43
132.46,-0.30,0.17,-0.30,0.17,-0.17,-1.16,-0.18,-0.46,-0.46,-0.46
133.79,-0.33,0.18,-0.30,0.20,-0.20,-1.18,-0.21,-0.53,-0.50,-0.50
135.12,-0.28,0.27,-0.30,0.23,-0.23,-1.20,-0.24,-0.51,-0.54,-0.55
136.48,-0.28,0.30,-0.30,0.27,-0.27,-1.22,-0.26,-0.55,-0.57,-0.57
137.84,-0.28,0.34,-0.30,0.31,-0.31,-1.24,-0.29,-0.59,-0.61,-0.62
139.22,-0.34,0.32,-0.30,0.35,-0.35,-1.26,-0.31,-0.68,-0.65,-0.66
140.61,-0.37,0.33,-0.30,0.39,-0.39,-1.28,-0.34,-0.75,-0.68,-0.70
142.02,-0.29,0.44,-0.30,0.43,-0.43,-1.30,-0.36,-0.71,-0.73,-0.72
143.44,-0.28,0.49,-0.31,0.46,-0.46,-1.32,-0.39,-0.74,-0.77,-0.76
144.87,-0.30,0.52,-0.31,0.50,-0.50,-1.34,-0.41,-0.80,-0.81,-0.81
146.32,-0.36,0.50,-0.33,0.54,-0.54,-1.36,-0.43,-0.90,-0.87,-0.86
147.78,-0.38,0.52,-0.34,0.58,-0.58,-1.38,-0.46,-0.96,-0.92,-0.90
149.26,-0.32,0.64,-0.36,0.63,-0.63,-1.41,-0.49,-0.94,-0.99,-0.95
150.75,-0.27,0.76,-0.38,0.67,-0.67,-1.43,-0.51,-0.94,-1.05,-1.03
152.26,-0.33,0.78,-0.39,0.73,-0.73,-1.45,-0.54,-1.06,-1.12,-1.10
153.78,-0.39,0.79,-0.40,0.80,-0.80,-1.47,-0.56,-1.18,-1.20,-1.18
155.32,-0.45,0.81,-0.40,0.87,-0.87,-1.49,-0.59,-1.32,-1.27,-1.26
156.88,-0.47,0.87,-0.40,0.95,-0.95,-1.51,-0.62,-1.41,-1.35,-1.34
158.44,-0.47,0.97,-0.41,1.02,-1.02,-1.54,-0.65,-1.49,-1.43,-1.43
160.03,-0.47,1.06,-0.41,1.10,-1.10,-1.56,-0.67,-1.56,-1.50,-1.52
161.63,-0.48,1.12,-0.40,1.18,-1.18,-1.58,-0.70,-1.65,-1.58,-1.60
163.24,-0.44,1.23,-0.39,1.25,-1.25,-1.60,-0.73,-1.69,-1.64,-1.67
164.88,-0.38,1.35,-0.38,1.32,-1.32,-1.62,-0.76,-1.70,-1.71,-1.72
166.53,-0.32,1.46,-0.38,1.38,-1.38,-1.64,-0.80,-1.70,-1.76,-1.78
168.19,-0.29,1.54,-0.37,1.44,-1.44,-1.67,-0.83,-1.72,-1.81,-1.82
169.87,-0.30,1.57,-0.35,1.49,-1.49,-1.69,-0.86,-1.79,-1.85,-1.87
171.57,-0.30,1.60,-0.33,1.54,-1.54,-1.71,-0.89,-1.84,-1.88,-1.89
173.29,-0.31,1.61,-0.32,1.58,-1.58,-1.73,-0.93,-1.89,-1.90,-1.91
175.02,-0.32,1.61,-0.31,1.61,-1.61,-1.75,-0.96,-1.93,-1.92,-1.92
176.77,-0.32,1.63,-0.30,1.64,-1.64,-1.77,-1.00,-1.95,-1.94,-1.94
178.54,-0.32,1.64,-0.29,1.66,-1.66,-1.80,-1.04,-1.97,-1.95,-1.95
180.32,-0.32,1.64,-0.29,1.67,-1.67,-1.82,-1.08,-1.99,-1.96,-1.95
182.13,-0.31,1.64,-0.29,1.69,-1.69,-1.84,-1.11,-1.99,-1.97,-1.95
183.95,-0.30,1.67,-0.28,1.70,-1.70,-1.86,-1.15,-2.00,-1.98,-1.97
185.79,-0.29,1.69,-0.28,1.72,-1.72,-1.88,-1.19,-2.01,-2.00,-1.97
187.65,-0.27,1.73,-0.27,1.74,-1.74,-1.90,-1.24,-2.01,-2.01,-2.00
189.52,-0.26,1.76,-0.25,1.77,-1.77,-1.92,-1.28,-2.03,-2.02,-2.01
191.42,-0.25,1.79,-0.24,1.81,-1.81,-1.94,-1.32,-2.05,-2.04,-2.04
193.33,-0.23,1.83,-0.22,1.84,-1.84,-1.96,-1.36,-2.07,-2.06,-2.06
195.27,-0.22,1.87,-0.21,1.88,-1.88,-1.98,-1.41,-2.09,-2.08,-2.08
197.22,-0.20,1.91,-0.20,1.91,-1.91,-2.00,-1.45,-2.10,-2.10,-2.10
199.19,-0.19,1.95,-0.19,1.93,-1.93,-2.01,-1.50,-2.12,-2.13,-2.14
201.18,-0.18,1.98,-0.19,1.96,-1.96,-2.03,-1.54,-2.13,-2.15,-2.16
203.19,-0.18,2.00,-0.20,1.98,-1.98,-2.05,-1.59,-2.15,-2.18,-2.18
205.23,-0.18,2.03,-0.21,1.99,-1.99,-2.07,-1.63,-2.17,-2.20,-2.20
207.28,-0.18,2.04,-0.22,2.01,-2.01,-2.08,-1.68,-2.18,-2.23,-2.21
209.35,-0.20,2.04,-0.24,2.01,-2.01,-2.10,-1.72,-2.21,-2.25,-2.24
211.44,-0.28,2.00,-0.26,2.01,-2.01,-2.11,-1.77,-2.29,-2.27,-2.28
213.56,-0.28,2.01,-0.28,2.00,-2.00,-2.13,-1.81,-2.28,-2.29,-2.28
215.69,-0.32,1.98,-0.31,1.99,-1.99,-2.14,-1.85,-2.31,-2.30,-2.30
217.85,-0.39,1.93,-0.34,1.98,-1.98,-2.16,-1.90,-2.36,-2.32,-2.32
220.03,-0.40,1.94,-0.37,1.96,-1.96,-2.17,-1.94,-2.36,-2.33,-2.33
222.23,-0.40,1.96,-0.39,1.94,-1.94,-2.18,-1.98,-2.34,-2.34,-2.36
224.45,-0.40,1.95,-0.42,1.93,-1.93,-2.19,-2.01,-2.32,-2.34,-2.35
226.70,-0.40,1.96,-0.44,1.91,-1.91,-2.20,-2.05,-2.31,-2.35,-2.35
228.96,-0.46,1.89,-0.45,1.90,-1.90,-2.21,-2.08,-2.35,-2.34,-2.35
231.25,-0.50,1.84,-0.46,1.88,-1.88,-2.22,-2.11,-2.38,-2.34,-2.34
233.57,-0.50,1.84,-0.46,1.87,-1.87,-2.23,-2.14,-2.36,-2.33,-2.33
235.90,-0.49,1.84,-0.46,1.86,-1.86,-2.24,-2.17,-2.35,-2.32,-2.32
238.26,-0.47,1.85,-0.45,1.85,-1.85,-2.25,-2.19,-2.32,-2.30,-2.31
240.64,-0.44,1.86,-0.44,1.85,-1.85,-2.25,-2.21,-2.29,-2.29,-2.30
243.05,-0.42,1.85,-0.42,1.85,-1.85,-2.26,-2.23,-2.27,-2.27,-2.27
245.48,-0.40,1.85,-0.40,1.85,-1.85,-2.26,-2.24,-2.25,-2.25,-2.25
247.93,-0.37,1.85,-0.38,1.85,-1.85,-2.27,-2.25,-2.22,-2.23,-2.22
250.41,-0.35,1.86,-0.35,1.85,-1.85,-2.27,-2.26,-2.20,-2.21,-2.21
252.92,-0.34,1.84,-0.33,1.85,-1.85,-2.27,-2.26,-2.19,-2.18,-2.17
255.45,-0.34,1.82,-0.31,1.86,-1.86,-2.27,-2.26,-2.19,-2.16,-2.15
258.00,-0.27,1.87,-0.28,1.86,-1.86,-2.27,-2.26,-2.13,-2.14,-2.13
260.58,-0.21,1.91,-0.26,1.86,-1.86,-2.27,-2.25,-2.07,-2.12,-2.12
263.19,-0.21,1.88,-0.24,1.85,-1.85,-2.27,-2.24,-2.06,-2.09,-2.09
265.82,-0.21,1.87,-0.22,1.85,-1.85,-2.27,-2.23,-2.05,-2.07,-2.08
268.48,-0.21,1.85,-0.21,1.84,-1.84,-2.27,-2.21,-2.04,-2.05,-2.05
271.16,-0.22,1.80,-0.20,1.82,-1.82,-2.26,-2.19,-2.03,-2.02,-2.02
273.87,-0.22,1.79,-0.20,1.80,-1.80,-2.26,-2.17,-2.02,-2.00,-2.01
276.61,-0.22,1.76,-0.19,1.78,-1.78,-2.25,-2.15,-2.00,-1.97,-1.97
279.38,-0.17,1.78,-0.19,1.76,-1.76,-2.24,-2.12,-1.93,-1.95,-1.95
282.17,-0.13,1.80,-0.18,1.75,-1.75,-2.24,-2.09,-1.87,-1.92,-1.93
284.99,-0.14,1.75,-0.17,1.73,-1.73,-2.23,-2.07,-1.86,-1.90,-1.89
287.84,-0.21,1.67,-0.16,1.71,-1.71,-2.22,-2.04,-1.91,-1.87,-1.88
290.72,-0.20,1.65,-0.15,1.69,-1.69,-2.21,-2.01,-1.88,-1.84,-1.84
293.63,-0.18,1.64,-0.14,1.68,-1.68,-2.20,-1.97,-1.85,-1.81,-1.82
296.57,-0.17,1.62,-0.12,1.66,-1.66,-2.19,-1.94,-1.83,-1.78,-1.78
299.53,-0.16,1.60,-0.10,1.65,-1.65,-2.18,-1.91,-1.81,-1.76,-1.76
302.53,-0.07,1.68,-0.09,1.65,-1.65,-2.17,-1.88,-1.71,-1.73,-1.74
305.55,-0.03,1.67,-0.07,1.64,-1.64,-2.15,-1.84,-1.66,-1.71,-1.70
308.61,-0.03,1.65,-0.06,1.63,-1.63,-2.14,-1.81,-1.65,-1.68,-1.68
311.69,-0.02,1.64,-0.05,1.61,-1.61,-2.12,-1.78,-1.63,-1.66,-1.65
314.81,-0.02,1.61,-0.03,1.61,-1.61,-2.11,-1.75,-1.62,-1.64,-1.63
317.96,-0.01,1.61,-0.02,1.60,-1.60,-2.09,-1.71,-1.61,-1.62,-1.61
321.14,-0.01,1.60,-0.00,1.60,-1.60,-2.08,-1.68,-1.61,-1.60,-1.61
324.35,-0.01,1.58,0.00,1.59,-1.59,-2.06,-1.65,-1.59,-1.59,-1.59
327.59,-0.01,1.57,0.00,1.57,-1.57,-2.04,-1.62,-1.58,-1.57,-1.57
330.87,-0.02,1.55,-0.00,1.56,-1.56,-2.03,-1.60,-1.57,-1.56,-1.57
334.18,-0.02,1.53,-0.01,1.54,-1.54,-2.01,-1.57,-1.55,-1.55,-1.55
337.52,-0.02,1.53,-0.02,1.51,-1.51,-1.99,-1.54,-1.53,-1.54,-1.54
340.90,-0.02,1.51,-0.04,1.50,-1.50,-1.97,-1.52,-1.51,-1.53,-1.53
344.30,-0.02,1.50,-0.04,1.48,-1.48,-1.95,-1.49,-1.50,-1.53,-1.52
347.75,-0.02,1.51,-0.05,1.47,-1.47,-1.93,-1.47,-1.48,-1.52,-1.52
351.23,-0.07,1.45,-0.06,1.46,-1.46,-1.91,-1.45,-1.52,-1.52,-1.51
354.74,-0.11,1.41,-0.06,1.45,-1.45,-1.89,-1.43,-1.56,-1.51,-1.52
358.28,-0.11,1.40,-0.06,1.45,-1.45,-1.87,-1.41,-1.55,-1.51,-1.51
361.87,-0.11,1.40,-0.06,1.45,-1.45,-1.85,-1.39,-1.55,-1.51,-1.51
365.49,-0.10,1.41,-0.07,1.44,-1.44,-1.83,-1.37,-1.54,-1.51,-1.50
369.14,-0.10,1.42,-0.08,1.43,-1.43,-1.81,-1.35,-1.53,-1.51,-1.52
372.83,-0.09,1.43,-0.09,1.43,-1.43,-1.79,-1.34,-1.51,-1.51,-1.52
376.56,-0.08,1.44,-0.10,1.42,-1.42,-1.77,-1.32,-1.49,-1.51,-1.52
380.33,-0.07,1.45,-0.11,1.41,-1.41,-1.74,-1.31,-1.47,-1.52,-1.51
384.13,-0.07,1.45,-0.12,1.40,-1.40,-1.72,-1.30,-1.46,-1.52,-1.51
387.97,-0.06,1.47,-0.14,1.39,-1.39,-1.70,-1.29,-1.45,-1.53,-1.52
391.85,-0.11,1.43,-0.15,1.38,-1.38,-1.68,-1.28,-1.49,-1.53,-1.54
395.77,-0.16,1.37,-0.17,1.37,-1.37,-1.66,-1.27,-1.53,-1.54,-1.53
399.73,-0.23,1.31,-0.18,1.36,-1.36,-1.63,-1.26,-1.59,-1.54,-1.54
403.72,-0.26,1.29,-0.20,1.35,-1.35,-1.61,-1.25,-1.61,-1.55,-1.54
407.76,-0.26,1.30,-0.22,1.34,-1.34,-1.59,-1.25,-1.59,-1.55,-1.55
411.84,-0.27,1.29,-0.24,1.32,-1.32,-1.57,-1.24,-1.59,-1.56,-1.55
415.96,-0.27,1.29,-0.25,1.30,-1.30,-1.54,-1.24,-1.57,-1.56,-1.56
420.12,-0.27,1.29,-0.26,1.29,-1.29,-1.52,-1.23,-1.56,-1.56,-1.56
424.32,-0.26,1.30,-0.27,1.29,-1.29,-1.50,-1.23,-1.54,-1.55,-1.56
428.56,-0.25,1.30,-0.26,1.28,-1.28,-1.48,-1.22,-1.53,-1.54,-1.55
432.85,-0.24,1.30,-0.25,1.28,-1.28,-1.46,-1.22,-1.52,-1.53,-1.54
437.18,-0.21,1.33,-0.22,1.28,-1.28,-1.43,-1.22,-1.49,-1.51,-1.53
441.55,-0.23,1.27,-0.19,1.29,-1.29,-1.41,-1.21,-1.52,-1.48,-1.49
445.96,-0.23,1.24,-0.16,1.29,-1.29,-1.39,-1.21,-1.52,-1.45,-1.46
450.42,-0.18,1.26,-0.13,1.28,-1.28,-1.37,-1.21,-1.46,-1.41,-1.43
454.93,-0.12,1.27,-0.10,1.28,-1.28,-1.35,-1.20,-1.39,-1.37,-1.39
459.48,-0.06,1.28,-0.06,1.27,-1.27,-1.32,-1.20,-1.32,-1.33,-1.34
464.07,0.00,1.29,-0.03,1.26,-1.26,-1.30,-1.20,-1.25,-1.28,-1.29
