frequency,raw,error,smoothed,error_smoothed,equalization,parametric_eq,fixed_band_eq,equalized_raw,equalized_smoothed,target
20.00,-2.43,-8.48,-2.37,-8.46,8.46,7.72,3.25,6.02,6.08,6.05
20.20,-2.35,-8.45,-2.31,-8.43,8.43,7.78,3.34,6.08,6.12,6.10
20.40,-2.27,-8.42,-2.26,-8.41,8.41,7.84,3.43,6.14,6.15,6.15
20.61,-2.19,-8.37,-2.20,-8.38,8.38,7.89,3.53,6.19,6.19,6.18
20.81,-2.10,-8.33,-2.14,-8.36,8.36,7.94,3.63,6.26,6.22,6.23
21.02,-2.03,-8.30,-2.09,-8.33,8.33,7.99,3.73,6.30,6.24,6.27
21.23,-1.98,-8.27,-2.03,-8.30,8.30,8.03,3.83,6.32,6.27,6.29
21.44,-1.94,-8.25,-1.98,-8.27,8.27,8.07,3.94,6.33,6.29,6.31
21.66,-1.90,-8.23,-1.93,-8.24,8.24,8.10,4.05,6.34,6.31,6.33
21.87,-1.85,-8.19,-1.88,-8.21,8.21,8.13,4.16,6.36,6.33,6.34
22.09,-1.82,-8.18,-1.83,-8.17,8.17,8.16,4.27,6.35,6.34,6.36
22.31,-1.79,-8.16,-1.78,-8.14,8.14,8.18,4.39,6.35,6.36,6.37
22.54,-1.75,-8.12,-1.75,-8.11,8.11,8.20,4.52,6.36,6.36,6.37
22.76,-1.72,-8.09,-1.71,-8.07,8.07,8.21,4.64,6.35,6.37,6.37
22.99,-1.69,-8.05,-1.67,-8.04,8.04,8.22,4.77,6.35,6.37,6.35
23.22,-1.65,-8.01,-1.63,-8.00,8.00,8.22,4.90,6.35,6.37,6.35
23.45,-1.60,-7.95,-1.59,-7.96,7.96,8.22,5.03,6.36,6.37,6.35
23.69,-1.56,-7.92,-1.55,-7.92,7.92,8.21,5.17,6.35,6.37,6.36
23.92,-1.51,-7.87,-1.50,-7.87,7.87,8.21,5.31,6.36,6.37,6.36
24.16,-1.46,-7.83,-1.46,-7.83,7.83,8.19,5.45,6.37,6.37,6.37
24.40,-1.41,-7.79,-1.41,-7.78,7.78,8.17,5.59,6.37,6.37,6.38
24.65,-1.35,-7.72,-1.36,-7.73,7.73,8.15,5.74,6.38,6.37,6.37
24.89,-1.29,-7.66,-1.31,-7.68,7.68,8.13,5.89,6.39,6.37,6.37
25.14,-1.25,-7.62,-1.26,-7.63,7.63,8.10,6.04,6.38,6.37,6.37
25.39,-1.21,-7.59,-1.22,-7.59,7.59,8.06,6.19,6.37,6.37,6.38
25.65,-1.17,-7.55,-1.17,-7.54,7.54,8.02,6.34,6.37,6.37,6.37
25.91,-1.13,-7.50,-1.12,-7.49,7.49,7.98,6.50,6.36,6.37,6.36
26.16,-1.09,-7.45,-1.08,-7.45,7.45,7.94,6.65,6.36,6.37,6.36
26.43,-1.03,-7.39,-1.03,-7.40,7.40,7.89,6.80,6.36,6.37,6.36
26.69,-0.98,-7.34,-0.98,-7.35,7.35,7.84,6.96,6.36,6.36,6.36
26.96,-0.93,-7.30,-0.94,-7.30,7.30,7.79,7.11,6.37,6.36,6.37
27.23,-0.89,-7.26,-0.90,-7.25,7.25,7.73,7.25,6.36,6.36,6.37
27.50,-0.86,-7.23,-0.86,-7.21,7.21,7.68,7.40,6.35,6.36,6.37
27.77,-0.83,-7.19,-0.82,-7.18,7.18,7.62,7.54,6.34,6.36,6.35
28.05,-0.80,-7.15,-0.78,-7.14,7.14,7.55,7.67,6.33,6.35,6.35
28.33,-0.74,-7.08,-0.74,-7.10,7.10,7.49,7.80,6.35,6.35,6.34
28.62,-0.68,-7.02,-0.71,-7.06,7.06,7.42,7.92,6.37,6.35,6.34
28.90,-0.62,-6.97,-0.67,-7.02,7.02,7.36,8.03,6.40,6.35,6.35
29.19,-0.60,-6.94,-0.64,-6.99,6.99,7.29,8.13,6.38,6.35,6.34
29.48,-0.61,-6.97,-0.61,-6.96,6.96,7.22,8.22,6.34,6.34,6.35
29.78,-0.62,-6.96,-0.58,-6.92,6.92,7.15,8.30,6.30,6.34,6.34
30.08,-0.60,-6.95,-0.55,-6.89,6.89,7.08,8.37,6.29,6.34,6.35
30.38,-0.54,-6.88,-0.52,-6.85,6.85,7.01,8.43,6.31,6.34,6.34
30.68,-0.48,-6.82,-0.49,-6.82,6.82,6.94,8.48,6.34,6.34,6.34
30.99,-0.42,-6.76,-0.46,-6.79,6.79,6.87,8.51,6.37,6.33,6.33
31.30,-0.41,-6.74,-0.43,-6.77,6.77,6.80,8.52,6.35,6.33,6.33
31.61,-0.41,-6.74,-0.41,-6.74,6.74,6.73,8.53,6.33,6.33,6.33
31.93,-0.40,-6.73,-0.38,-6.70,6.70,6.66,8.52,6.30,6.32,6.33
32.24,-0.36,-6.67,-0.35,-6.67,6.67,6.58,8.49,6.31,6.32,6.31
32.57,-0.30,-6.62,-0.31,-6.63,6.63,6.51,8.46,6.32,6.31,6.32
32.89,-0.24,-6.56,-0.27,-6.58,6.58,6.44,8.41,6.34,6.31,6.32
33.22,-0.22,-6.53,-0.24,-6.54,6.54,6.38,8.36,6.32,6.31,6.30
33.55,-0.23,-6.53,-0.21,-6.51,6.51,6.31,8.29,6.28,6.30,6.30
33.89,-0.24,-6.53,-0.19,-6.48,6.48,6.24,8.21,6.24,6.29,6.29
34.23,-0.19,-6.49,-0.17,-6.45,6.45,6.18,8.13,6.26,6.29,6.29
34.57,-0.12,-6.40,-0.14,-6.42,6.42,6.11,8.04,6.30,6.28,6.28
34.92,-0.05,-6.33,-0.11,-6.39,6.39,6.05,7.94,6.33,6.28,6.28
35.27,-0.02,-6.30,-0.08,-6.35,6.35,5.99,7.84,6.33,6.28,6.27
35.62,-0.02,-6.29,-0.05,-6.32,6.32,5.93,7.73,6.30,6.27,6.27
35.97,-0.01,-6.28,-0.02,-6.29,6.29,5.87,7.62,6.28,6.27,6.27
36.33,-0.02,-6.29,0.00,-6.26,6.26,5.81,7.51,6.24,6.27,6.27
36.70,-0.02,-6.28,0.03,-6.23,6.23,5.76,7.40,6.21,6.26,6.26
37.06,-0.02,-6.27,0.06,-6.20,6.20,5.71,7.28,6.18,6.26,6.25
37.43,0.07,-6.20,0.10,-6.17,6.17,5.65,7.17,6.24,6.26,6.27
37.81,0.16,-6.11,0.13,-6.14,6.14,5.61,7.06,6.29,6.26,6.26
38.19,0.20,-6.06,0.15,-6.11,6.11,5.56,6.95,6.31,6.26,6.26
38.57,0.21,-6.05,0.18,-6.09,6.09,5.52,6.84,6.29,6.26,6.26
38.95,0.22,-6.05,0.20,-6.05,6.05,5.47,6.73,6.27,6.26,6.27
39.34,0.24,-6.02,0.24,-6.02,6.02,5.43,6.63,6.26,6.26,6.26
39.74,0.26,-6.00,0.28,-5.98,5.98,5.40,6.53,6.24,6.26,6.25
40.14,0.30,-5.96,0.31,-5.94,5.94,5.36,6.43,6.24,6.26,6.26
40.54,0.34,-5.91,0.35,-5.91,5.91,5.33,6.34,6.24,6.25,6.25
40.94,0.38,-5.87,0.38,-5.87,5.87,5.31,6.25,6.25,6.25,6.25
41.35,0.39,-5.85,0.40,-5.84,5.84,5.28,6.16,6.23,6.24,6.24
41.76,0.39,-5.84,0.41,-5.82,5.82,5.26,6.08,6.21,6.23,6.23
42.18,0.42,-5.82,0.41,-5.81,5.81,5.24,6.00,6.23,6.22,6.23
42.60,0.48,-5.74,0.43,-5.78,5.78,5.23,5.93,6.26,6.21,6.22
43.03,0.53,-5.68,0.45,-5.75,5.75,5.21,5.86,6.28,6.20,6.21
43.46,0.51,-5.69,0.47,-5.72,5.72,5.21,5.79,6.22,6.18,6.20
43.90,0.49,-5.68,0.49,-5.68,5.68,5.20,5.73,6.17,6.17,6.17
44.33,0.49,-5.66,0.51,-5.65,5.65,5.20,5.67,6.14,6.16,6.15
44.78,0.49,-5.64,0.53,-5.62,5.62,5.20,5.62,6.10,6.14,6.13
45.23,0.48,-5.64,0.54,-5.58,5.58,5.21,5.57,6.06,6.13,6.12
45.68,0.46,-5.64,0.56,-5.55,5.55,5.22,5.53,6.01,6.11,6.10
46.13,0.49,-5.59,0.58,-5.51,5.51,5.23,5.49,6.00,6.10,6.08
46.60,0.62,-5.46,0.60,-5.48,5.48,5.25,5.45,6.10,6.08,6.08
47.06,0.73,-5.33,0.62,-5.44,5.44,5.27,5.42,6.17,6.06,6.06
47.53,0.71,-5.34,0.64,-5.40,5.40,5.30,5.39,6.11,6.04,6.05
48.01,0.69,-5.36,0.66,-5.36,5.36,5.32,5.36,6.05,6.03,6.05
48.49,0.69,-5.34,0.68,-5.33,5.33,5.36,5.34,6.02,6.01,6.02
48.97,0.69,-5.31,0.69,-5.30,5.30,5.39,5.32,5.99,6.00,6.00
49.46,0.69,-5.29,0.69,-5.29,5.29,5.43,5.31,5.98,5.98,5.98
49.96,0.69,-5.27,0.69,-5.28,5.28,5.46,5.30,5.97,5.97,5.95
50.46,0.69,-5.26,0.68,-5.27,5.27,5.50,5.29,5.96,5.95,5.95
50.96,0.69,-5.25,0.66,-5.27,5.27,5.54,5.28,5.96,5.93,5.93
51.47,0.70,-5.21,0.64,-5.28,5.28,5.58,5.28,5.97,5.92,5.91
51.99,0.72,-5.18,0.63,-5.28,5.28,5.62,5.27,5.99,5.90,5.89
52.51,0.61,-5.28,0.62,-5.27,5.27,5.66,5.27,5.88,5.89,5.89
53.03,0.51,-5.37,0.61,-5.26,5.26,5.70,5.27,5.77,5.87,5.88
53.56,0.48,-5.38,0.61,-5.25,5.25,5.73,5.27,5.73,5.86,5.86
54.10,0.47,-5.38,0.60,-5.25,5.25,5.76,5.27,5.71,5.84,5.84
54.64,0.50,-5.33,0.58,-5.25,5.25,5.78,5.28,5.75,5.83,5.82
55.18,0.54,-5.28,0.55,-5.26,5.26,5.79,5.28,5.80,5.82,5.81
55.74,0.57,-5.23,0.52,-5.28,5.28,5.80,5.28,5.85,5.80,5.79
56.29,0.60,-5.19,0.48,-5.30,5.30,5.80,5.27,5.90,5.78,5.78
56.86,0.61,-5.15,0.44,-5.32,5.32,5.79,5.27,5.93,5.76,5.76
57.42,0.53,-5.20,0.39,-5.36,5.36,5.76,5.26,5.88,5.74,5.73
58.00,0.42,-5.30,0.33,-5.39,5.39,5.73,5.25,5.81,5.72,5.72
58.58,0.33,-5.38,0.27,-5.42,5.42,5.68,5.24,5.75,5.69,5.70
59.16,0.22,-5.46,0.21,-5.46,5.46,5.63,5.23,5.67,5.66,5.68
59.76,0.09,-5.57,0.14,-5.49,5.49,5.56,5.21,5.58,5.63,5.65
60.35,-0.00,-5.61,0.08,-5.52,5.52,5.49,5.18,5.52,5.60,5.61
60.96,-0.07,-5.64,0.01,-5.55,5.55,5.40,5.15,5.48,5.56,5.57
61.57,-0.07,-5.60,-0.04,-5.56,5.56,5.31,5.12,5.49,5.52,5.52
62.18,-0.10,-5.58,-0.08,-5.55,5.55,5.20,5.08,5.45,5.48,5.48
62.80,-0.20,-5.63,-0.10,-5.53,5.53,5.09,5.04,5.33,5.43,5.43
63.43,-0.20,-5.58,-0.11,-5.49,5.49,4.98,4.99,5.29,5.38,5.38
64.07,-0.14,-5.47,-0.09,-5.42,5.42,4.86,4.94,5.28,5.33,5.33
64.71,-0.02,-5.30,-0.04,-5.33,5.33,4.74,4.88,5.30,5.28,5.27
65.35,0.06,-5.17,0.01,-5.22,5.22,4.61,4.81,5.28,5.23,5.23
66.01,0.09,-5.09,0.09,-5.09,5.09,4.48,4.75,5.18,5.18,5.18
66.67,0.16,-4.97,0.17,-4.96,4.96,4.36,4.67,5.12,5.13,5.12
67.33,0.25,-4.82,0.25,-4.82,4.82,4.23,4.60,5.07,5.07,5.07
68.01,0.37,-4.65,0.34,-4.68,4.68,4.10,4.52,5.05,5.02,5.02
68.69,0.43,-4.54,0.44,-4.53,4.53,3.98,4.43,4.95,4.96,4.96
69.37,0.50,-4.41,0.53,-4.37,4.37,3.85,4.35,4.87,4.90,4.90
70.07,0.59,-4.26,0.62,-4.22,4.22,3.73,4.26,4.81,4.84,4.85
70.77,0.81,-3.99,0.71,-4.08,4.08,3.61,4.16,4.89,4.78,4.80
71.48,0.86,-3.88,0.78,-3.94,3.94,3.49,4.07,4.80,4.72,4.73
72.19,0.86,-3.80,0.85,-3.81,3.81,3.38,3.97,4.67,4.66,4.66
72.91,0.92,-3.68,0.91,-3.68,3.68,3.27,3.88,4.60,4.60,4.60
73.64,0.97,-3.57,0.97,-3.56,3.56,3.16,3.78,4.53,4.53,4.53
74.38,1.03,-3.44,1.02,-3.45,3.45,3.06,3.68,4.48,4.47,4.47
75.12,1.10,-3.31,1.06,-3.34,3.34,2.96,3.58,4.44,4.41,4.40
75.87,1.16,-3.18,1.10,-3.25,3.25,2.86,3.48,4.41,4.35,4.34
76.63,1.07,-3.21,1.12,-3.16,3.16,2.76,3.38,4.23,4.28,4.28
77.40,1.08,-3.14,1.14,-3.09,3.09,2.67,3.28,4.16,4.22,4.22
78.17,1.19,-2.96,1.15,-3.02,3.02,2.58,3.18,4.20,4.16,4.15
78.95,1.19,-2.92,1.15,-2.95,2.95,2.50,3.09,4.14,4.10,4.11
79.74,1.19,-2.86,1.17,-2.87,2.87,2.41,2.99,4.06,4.05,4.05
80.54,1.19,-2.81,1.19,-2.80,2.80,2.33,2.89,3.99,3.99,3.99
81.35,1.19,-2.74,1.21,-2.73,2.73,2.25,2.80,3.92,3.93,3.93
82.16,1.19,-2.69,1.22,-2.65,2.65,2.18,2.70,3.84,3.88,3.87
82.98,1.19,-2.64,1.24,-2.58,2.58,2.11,2.61,3.77,3.82,3.83
83.81,1.19,-2.57,1.26,-2.51,2.51,2.04,2.52,3.70,3.77,3.76
84.65,1.24,-2.47,1.28,-2.43,2.43,1.97,2.43,3.67,3.71,3.71
85.50,1.30,-2.36,1.30,-2.35,2.35,1.90,2.34,3.65,3.65,3.66
86.35,1.35,-2.25,1.32,-2.27,2.27,1.84,2.26,3.62,3.59,3.60
87.22,1.39,-2.15,1.33,-2.20,2.20,1.78,2.17,3.59,3.53,3.54
88.09,1.40,-2.08,1.35,-2.12,2.12,1.72,2.09,3.52,3.47,3.48
88.97,1.40,-2.02,1.37,-2.05,2.05,1.66,2.01,3.44,3.42,3.42
89.86,1.40,-1.96,1.39,-1.97,1.97,1.60,1.93,3.37,3.36,3.36
90.76,1.40,-1.90,1.40,-1.90,1.90,1.55,1.85,3.29,3.30,3.29
91.66,1.40,-1.84,1.41,-1.83,1.83,1.50,1.77,3.22,3.24,3.24
92.58,1.40,-1.77,1.41,-1.76,1.76,1.44,1.69,3.16,3.18,3.17
93.51,1.40,-1.71,1.41,-1.71,1.71,1.39,1.62,3.10,3.12,3.11
94.44,1.40,-1.66,1.40,-1.66,1.66,1.34,1.54,3.06,3.06,3.06
95.39,1.40,-1.60,1.39,-1.61,1.61,1.30,1.47,3.01,3.00,3.00
96.34,1.40,-1.54,1.38,-1.56,1.56,1.25,1.40,2.96,2.94,2.94
97.30,1.39,-1.49,1.38,-1.50,1.50,1.20,1.33,2.89,2.88,2.88
98.28,1.38,-1.45,1.38,-1.45,1.45,1.16,1.26,2.82,2.82,2.82
99.26,1.37,-1.40,1.38,-1.39,1.39,1.12,1.20,2.76,2.77,2.77
100.25,1.35,-1.36,1.37,-1.34,1.34,1.07,1.13,2.68,2.71,2.71
101.25,1.33,-1.32,1.37,-1.28,1.28,1.03,1.07,2.61,2.65,2.65
102.27,1.32,-1.28,1.36,-1.23,1.23,0.99,1.00,2.55,2.59,2.59
103.29,1.31,-1.22,1.35,-1.18,1.18,0.95,0.94,2.49,2.53,2.53
104.32,1.35,-1.13,1.34,-1.13,1.13,0.91,0.88,2.48,2.47,2.48
105.37,1.44,-0.98,1.33,-1.08,1.08,0.87,0.82,2.52,2.41,2.42
106.42,1.40,-0.97,1.32,-1.04,1.04,0.83,0.77,2.43,2.35,2.36
107.48,1.33,-0.97,1.30,-0.99,0.99,0.80,0.71,2.31,2.29,2.30
108.56,1.29,-0.94,1.29,-0.94,0.94,0.76,0.65,2.22,2.23,2.23
109.64,1.27,-0.90,1.28,-0.89,0.89,0.72,0.60,2.15,2.17,2.17
110.74,1.25,-0.86,1.27,-0.84,0.84,0.69,0.55,2.08,2.11,2.10
111.85,1.23,-0.83,1.26,-0.78,0.78,0.65,0.50,2.01,2.04,2.06
112.97,1.22,-0.76,1.25,-0.74,0.74,0.61,0.45,1.95,1.98,1.98
114.10,1.22,-0.70,1.24,-0.69,0.69,0.58,0.40,1.91,1.93,1.92
115.24,1.22,-0.65,1.23,-0.64,0.64,0.54,0.35,1.86,1.87,1.87
116.39,1.22,-0.58,1.22,-0.60,0.60,0.51,0.30,1.81,1.81,1.80
117.55,1.22,-0.54,1.21,-0.55,0.55,0.47,0.26,1.76,1.76,1.75
118.73,1.23,-0.47,1.22,-0.49,0.49,0.44,0.22,1.72,1.71,1.70
119.92,1.23,-0.44,1.23,-0.44,0.44,0.41,0.18,1.66,1.66,1.67
121.12,1.24,-0.37,1.23,-0.38,0.38,0.37,0.14,1.62,1.62,1.61
122.33,1.25,-0.32,1.24,-0.33,0.33,0.34,0.10,1.58,1.57,1.57
123.55,1.26,-0.28,1.25,-0.28,0.28,0.30,0.06,1.54,1.53,1.54
124.79,1.26,-0.24,1.26,-0.23,0.23,0.27,0.03,1.49,1.49,1.49
126.03,1.27,-0.18,1.27,-0.18,0.18,0.23,-0.01,1.45,1.45,1.45
127.29,1.28,-0.14,1.27,-0.14,0.14,0.20,-0.04,1.42,1.41,1.42
128.57,1.28,-0.09,1.28,-0.09,0.09,0.16,-0.07,1.37,1.37,1.37
129.85,1.29,-0.04,1.29,-0.05,0.05,0.13,-0.10,1.34,1.33,1.33
131.15,1.29,-0.01,1.29,-0.00,0.00,0.09,-0.13,1.29,1.30,1.29
132.46,1.30,0.04,1.30,0.04,-0.04,0.06,-0.15,1.26,1.26,1.26
133.79,1.30,0.08,1.30,0.08,-0.08,0.02,-0.18,1.22,1.22,1.22
135.12,1.31,0.13,1.30,0.12,-0.12,-0.01,-0.20,1.19,1.19,1.17
136.48,1.31,0.16,1.31,0.17,-0.17,-0.05,-0.23,1.14,1.15,1.15
137.84,1.31,0.20,1.32,0.21,-0.21,-0.09,-0.25,1.10,1.11,1.11
139.22,1.32,0.26,1.33,0.25,-0.25,-0.12,-0.27,1.07,1.08,1.06
140.61,1.32,0.30,1.32,0.29,-0.29,-0.16,-0.30,1.03,1.04,1.02
142.02,1.32,0.32,1.32,0.32,-0.32,-0.20,-0.32,1.00,1.00,1.00
143.44,1.32,0.36,1.31,0.36,-0.36,-0.24,-0.34,0.96,0.95,0.96
144.87,1.32,0.41,1.30,0.39,-0.39,-0.28,-0.36,0.93,0.91,0.91
146.32,1.32,0.46,1.29,0.43,-0.43,-0.32,-0.38,0.89,0.85,0.86
147.78,1.32,0.49,1.28,0.48,-0.48,-0.36,-0.40,0.83,0.80,0.82
149.26,1.32,0.55,1.27,0.53,-0.53,-0.40,-0.42,0.78,0.74,0.77
150.75,1.32,0.63,1.26,0.59,-0.59,-0.44,-0.44,0.73,0.67,0.69
152.26,1.19,0.57,1.25,0.66,-0.66,-0.49,-0.46,0.53,0.60,0.62
153.78,1.12,0.57,1.25,0.72,-0.72,-0.53,-0.48,0.40,0.53,0.54
155.32,1.19,0.73,1.24,0.79,-0.79,-0.58,-0.50,0.40,0.45,0.46
156.88,1.22,0.84,1.23,0.86,-0.86,-0.62,-0.52,0.35,0.37,0.38
158.44,1.22,0.93,1.23,0.93,-0.93,-0.67,-0.54,0.28,0.29,0.29
160.03,1.22,1.02,1.22,1.00,-1.00,-0.71,-0.56,0.21,0.22,0.20
161.63,1.30,1.18,1.22,1.07,-1.07,-0.76,-0.59,0.23,0.15,0.12
163.24,1.28,1.22,1.21,1.13,-1.13,-0.81,-0.61,0.14,0.08,0.05
164.88,1.16,1.16,1.21,1.19,-1.19,-0.86,-0.63,-0.03,0.02,-0.00
166.53,1.27,1.33,1.21,1.25,-1.25,-0.91,-0.66,0.02,-0.04,-0.06
168.19,1.24,1.34,1.21,1.29,-1.29,-0.96,-0.68,-0.05,-0.09,-0.10
169.87,1.19,1.33,1.21,1.33,-1.33,-1.01,-0.71,-0.14,-0.12,-0.15
171.57,1.19,1.36,1.20,1.36,-1.36,-1.06,-0.73,-0.17,-0.16,-0.17
173.29,1.18,1.37,1.19,1.37,-1.37,-1.11,-0.76,-0.20,-0.18,-0.19
175.02,1.18,1.38,1.19,1.39,-1.39,-1.16,-0.78,-0.21,-0.20,-0.20
176.77,1.17,1.39,1.18,1.40,-1.40,-1.22,-0.81,-0.23,-0.22,-0.22
178.54,1.17,1.40,1.18,1.41,-1.41,-1.27,-0.84,-0.25,-0.23,-0.23
180.32,1.17,1.40,1.19,1.43,-1.43,-1.32,-0.87,-0.26,-0.24,-0.23
182.13,1.18,1.41,1.20,1.45,-1.45,-1.37,-0.90,-0.27,-0.25,-0.23
183.95,1.19,1.43,1.20,1.46,-1.46,-1.42,-0.93,-0.27,-0.26,-0.25
185.79,1.20,1.45,1.20,1.47,-1.47,-1.47,-0.96,-0.28,-0.28,-0.25
187.65,1.22,1.50,1.21,1.50,-1.50,-1.52,-1.00,-0.28,-0.29,-0.28
189.52,1.23,1.52,1.22,1.53,-1.53,-1.56,-1.03,-0.30,-0.30,-0.29
191.42,1.24,1.55,1.23,1.55,-1.55,-1.61,-1.06,-0.31,-0.32,-0.32
193.33,1.26,1.60,1.23,1.57,-1.57,-1.65,-1.10,-0.31,-0.34,-0.34
195.27,1.27,1.63,1.23,1.59,-1.59,-1.69,-1.13,-0.33,-0.36,-0.36
197.22,1.29,1.67,1.23,1.61,-1.61,-1.73,-1.17,-0.33,-0.38,-0.38
199.19,1.21,1.62,1.22,1.63,-1.63,-1.76,-1.20,-0.42,-0.41,-0.41
201.18,1.12,1.55,1.21,1.65,-1.65,-1.80,-1.24,-0.53,-0.43,-0.43
203.19,1.20,1.65,1.20,1.66,-1.66,-1.82,-1.27,-0.46,-0.46,-0.45
205.23,1.31,1.79,1.19,1.67,-1.67,-1.85,-1.31,-0.36,-0.48,-0.48
207.28,1.21,1.70,1.17,1.68,-1.68,-1.87,-1.34,-0.47,-0.50,-0.49
209.35,1.12,1.64,1.16,1.68,-1.68,-1.89,-1.38,-0.57,-0.53,-0.52
211.44,1.11,1.66,1.14,1.69,-1.69,-1.90,-1.41,-0.58,-0.55,-0.56
213.56,1.11,1.67,1.13,1.69,-1.69,-1.91,-1.45,-0.58,-0.57,-0.56
215.69,1.10,1.68,1.12,1.70,-1.70,-1.91,-1.48,-0.60,-0.58,-0.58
217.85,1.10,1.69,1.11,1.71,-1.71,-1.91,-1.51,-0.61,-0.60,-0.60
220.03,1.09,1.70,1.10,1.71,-1.71,-1.90,-1.55,-0.62,-0.61,-0.61
222.23,1.09,1.72,1.10,1.72,-1.72,-1.90,-1.58,-0.63,-0.62,-0.63
224.45,1.09,1.72,1.10,1.72,-1.72,-1.88,-1.60,-0.63,-0.62,-0.63
226.70,1.09,1.72,1.09,1.72,-1.72,-1.87,-1.63,-0.63,-0.63,-0.63
228.96,1.10,1.72,1.09,1.71,-1.71,-1.85,-1.65,-0.61,-0.62,-0.63
231.25,1.10,1.72,1.10,1.71,-1.71,-1.82,-1.68,-0.62,-0.62,-0.62
233.57,1.11,1.72,1.10,1.71,-1.71,-1.79,-1.70,-0.60,-0.61,-0.61
235.90,1.13,1.73,1.10,1.69,-1.69,-1.76,-1.71,-0.57,-0.60,-0.60
238.26,1.14,1.73,1.10,1.68,-1.68,-1.73,-1.73,-0.54,-0.58,-0.59
240.64,1.07,1.64,1.09,1.66,-1.66,-1.70,-1.74,-0.59,-0.57,-0.57
243.05,1.06,1.60,1.09,1.64,-1.64,-1.66,-1.75,-0.58,-0.55,-0.54
245.48,1.17,1.69,1.09,1.62,-1.62,-1.62,-1.76,-0.45,-0.53,-0.52
247.93,1.09,1.58,1.09,1.59,-1.59,-1.58,-1.76,-0.51,-0.51,-0.49
250.41,1.05,1.53,1.08,1.57,-1.57,-1.54,-1.76,-0.52,-0.49,-0.48
252.92,1.05,1.50,1.08,1.54,-1.54,-1.50,-1.75,-0.49,-0.46,-0.45
255.45,1.07,1.50,1.08,1.52,-1.52,-1.46,-1.75,-0.45,-0.44,-0.43
258.00,1.07,1.48,1.09,1.51,-1.51,-1.41,-1.74,-0.44,-0.42,-0.41
260.58,1.08,1.48,1.09,1.49,-1.49,-1.37,-1.72,-0.41,-0.39,-0.40
263.19,1.08,1.44,1.09,1.46,-1.46,-1.33,-1.71,-0.38,-0.37,-0.37
265.82,1.08,1.43,1.08,1.43,-1.43,-1.29,-1.69,-0.35,-0.35,-0.35
268.48,1.08,1.41,1.07,1.39,-1.39,-1.24,-1.67,-0.32,-0.33,-0.33
271.16,1.07,1.37,1.05,1.36,-1.36,-1.20,-1.64,-0.29,-0.30,-0.30
273.87,1.07,1.35,1.04,1.31,-1.31,-1.16,-1.61,-0.25,-0.28,-0.29
276.61,1.07,1.32,1.03,1.28,-1.28,-1.12,-1.59,-0.21,-0.25,-0.25
279.38,1.07,1.30,1.01,1.24,-1.24,-1.08,-1.55,-0.17,-0.23,-0.23
282.17,1.14,1.34,0.99,1.19,-1.19,-1.04,-1.52,-0.05,-0.20,-0.20
284.99,1.04,1.21,0.98,1.15,-1.15,-1.00,-1.49,-0.11,-0.18,-0.17
287.84,0.80,0.95,0.97,1.12,-1.12,-0.96,-1.45,-0.32,-0.15,-0.16
290.72,0.79,0.91,0.97,1.09,-1.09,-0.92,-1.41,-0.30,-0.12,-0.12
293.63,0.90,0.99,0.97,1.06,-1.06,-0.89,-1.38,-0.16,-0.09,-0.10
296.57,0.92,0.98,0.96,1.02,-1.02,-0.85,-1.34,-0.10,-0.06,-0.06
299.53,0.93,0.96,0.94,0.98,-0.98,-0.82,-1.30,-0.05,-0.04,-0.04
302.53,0.94,0.96,0.93,0.94,-0.94,-0.78,-1.26,-0.00,-0.01,-0.02
305.55,0.95,0.92,0.91,0.90,-0.90,-0.75,-1.22,0.05,0.01,0.02
308.61,0.96,0.92,0.90,0.86,-0.86,-0.72,-1.18,0.10,0.04,0.04
311.69,0.99,0.92,0.89,0.83,-0.83,-0.69,-1.13,0.16,0.06,0.07
314.81,1.05,0.96,0.88,0.80,-0.80,-0.66,-1.09,0.24,0.08,0.09
317.96,0.97,0.86,0.89,0.78,-0.78,-0.63,-1.05,0.18,0.10,0.11
321.14,0.86,0.74,0.89,0.77,-0.77,-0.60,-1.01,0.09,0.12,0.11
324.35,0.71,0.58,0.87,0.74,-0.74,-0.57,-0.97,-0.03,0.13,0.13
327.59,0.70,0.55,0.84,0.69,-0.69,-0.55,-0.93,0.00,0.15,0.15
330.87,0.75,0.59,0.81,0.65,-0.65,-0.52,-0.89,0.10,0.16,0.15
334.18,0.77,0.60,0.78,0.61,-0.61,-0.50,-0.85,0.16,0.17,0.17
337.52,0.77,0.59,0.75,0.57,-0.57,-0.47,-0.81,0.20,0.18,0.18
340.90,0.84,0.64,0.73,0.54,-0.54,-0.45,-0.77,0.30,0.19,0.20
344.30,0.82,0.61,0.71,0.51,-0.51,-0.43,-0.74,0.30,0.20,0.20
347.75,0.71,0.51,0.69,0.49,-0.49,-0.41,-0.70,0.21,0.20,0.20
351.23,0.67,0.46,0.68,0.47,-0.47,-0.38,-0.66,0.19,0.21,0.21
354.74,0.67,0.46,0.67,0.46,-0.46,-0.36,-0.62,0.21,0.21,0.20
358.28,0.58,0.37,0.66,0.45,-0.45,-0.34,-0.59,0.13,0.21,0.21
361.87,0.51,0.30,0.64,0.43,-0.43,-0.32,-0.55,0.08,0.21,0.21
365.49,0.56,0.34,0.61,0.39,-0.39,-0.31,-0.52,0.16,0.21,0.22
369.14,0.63,0.42,0.57,0.36,-0.36,-0.29,-0.48,0.27,0.21,0.21
372.83,0.69,0.48,0.54,0.33,-0.33,-0.27,-0.45,0.36,0.21,0.20
376.56,0.58,0.38,0.51,0.31,-0.31,-0.25,-0.42,0.27,0.21,0.20
380.33,0.52,0.31,0.49,0.28,-0.28,-0.23,-0.38,0.23,0.20,0.21
384.13,0.47,0.26,0.45,0.25,-0.25,-0.22,-0.35,0.21,0.20,0.21
387.97,0.36,0.16,0.42,0.23,-0.23,-0.20,-0.32,0.13,0.19,0.20
391.85,0.38,0.19,0.40,0.21,-0.21,-0.19,-0.29,0.17,0.19,0.18
395.77,0.39,0.19,0.37,0.19,-0.19,-0.17,-0.26,0.20,0.18,0.19
399.73,0.26,0.08,0.35,0.17,-0.17,-0.15,-0.23,0.09,0.18,0.18
403.72,0.26,0.08,0.32,0.15,-0.15,-0.14,-0.20,0.11,0.17,0.18
407.76,0.39,0.22,0.29,0.12,-0.12,-0.13,-0.17,0.27,0.17,0.17
411.84,0.37,0.20,0.27,0.11,-0.11,-0.11,-0.14,0.26,0.16,0.17
415.96,0.25,0.08,0.26,0.10,-0.10,-0.10,-0.11,0.15,0.16,0.17
420.12,0.15,-0.02,0.27,0.11,-0.11,-0.08,-0.09,0.04,0.16,0.16
424.32,0.16,-0.01,0.28,0.11,-0.11,-0.07,-0.06,0.05,0.17,0.16
428.56,0.34,0.17,0.30,0.12,-0.12,-0.06,-0.03,0.22,0.18,0.17
432.85,0.40,0.22,0.32,0.12,-0.12,-0.04,-0.01,0.27,0.19,0.18
437.18,0.30,0.11,0.33,0.12,-0.12,-0.03,0.02,0.18,0.22,0.19
441.55,0.31,0.08,0.35,0.11,-0.11,-0.02,0.04,0.20,0.24,0.23
445.96,0.35,0.09,0.38,0.11,-0.11,-0.01,0.07,0.24,0.27,0.26
450.42,0.44,0.15,0.41,0.10,-0.10,0.00,0.09,0.34,0.31,0.29
454.93,0.52,0.18,0.43,0.09,-0.09,0.02,0.11,0.43,0.35,0.34
459.48,0.48,0.09,0.46,0.07,-0.07,0.03,0.13,0.41,0.39,0.38
464.07,0.49,0.05,0.49,0.05,-0.05,0.04,0.16,0.44,0.44,0.43
468.71,0.51,0.01,0.50,0.01,-0.01,0.05,0.18,0.50,0.49,0.49
473.40,0.52,-0.01,0.50,-0.03,0.03,0.06,0.20,0.55,0.53,0.53
478.13,0.50,-0.09,0.50,-0.08,0.08,0.07,0.22,0.58,0.58,0.59
482.91,0.51,-0.12,0.52,-0.11,0.11,0.08,0.23,0.61,0.63,0.63
487.74,0.57,-0.10,0.54,-0.13,0.13,0.09,0.25,0.69,0.67,0.67
492.62,0.62,-0.10,0.55,-0.16,0.16,0.10,0.27,0.77,0.70,0.72
497.55,0.54,-0.20,0.54,-0.19,0.19,0.12,0.29,0.73,0.74,0.74
502.52,0.43,-0.34,0.54,-0.21,0.21,0.13,0.30,0.64,0.76,0.77
507.55,0.42,-0.36,0.55,-0.23,0.23,0.14,0.32,0.64,0.77,0.78
512.62,0.46,-0.33,0.54,-0.23,0.23,0.15,0.33,0.69,0.78,0.79
517.75,0.56,-0.24,0.53,-0.24,0.24,0.16,0.34,0.80,0.77,0.80
522.93,0.62,-0.17,0.51,-0.25,0.25,0.17,0.36,0.87,0.76,0.79
528.16,0.61,-0.15,0.48,-0.26,0.26,0.18,0.37,0.86,0.74,0.76
533.44,0.56,-0.17,0.45,-0.26,0.26,0.19,0.38,0.81,0.71,0.72
538.77,0.43,-0.27,0.42,-0.25,0.25,0.20,0.39,0.68,0.67,0.69
