frequency,raw,error,smoothed,error_smoothed,equalization,parametric_eq,fixed_band_eq,equalized_raw,equalized_smoothed,target
20.00,-14.11,-16.45,-14.11,-16.48,16.48,15.65,6.71,2.36,2.36,2.34
20.20,-13.99,-16.42,-14.00,-16.43,16.43,15.71,6.86,2.44,2.44,2.43
20.40,-13.87,-16.38,-13.88,-16.39,16.39,15.76,7.02,2.52,2.51,2.51
20.61,-13.77,-16.34,-13.76,-16.34,16.34,15.80,7.18,2.58,2.58,2.57
20.81,-13.64,-16.31,-13.64,-16.29,16.29,15.84,7.35,2.65,2.65,2.66
21.02,-13.52,-16.27,-13.52,-16.24,16.24,15.87,7.53,2.71,2.72,2.74
21.23,-13.40,-16.21,-13.40,-16.18,16.18,15.90,7.70,2.78,2.78,2.80
21.44,-13.28,-16.15,-13.28,-16.12,16.12,15.91,7.88,2.84,2.84,2.86
21.66,-13.17,-16.08,-13.16,-16.06,16.06,15.92,8.07,2.90,2.90,2.91
21.87,-13.04,-16.00,-13.04,-16.00,16.00,15.92,8.26,2.96,2.95,2.96
22.09,-12.92,-15.93,-12.92,-15.93,15.93,15.92,8.46,3.01,3.01,3.01
22.31,-12.80,-15.86,-12.80,-15.86,15.86,15.91,8.66,3.06,3.06,3.06
22.54,-12.69,-15.78,-12.68,-15.78,15.78,15.89,8.87,3.10,3.10,3.10
22.76,-12.56,-15.70,-12.56,-15.70,15.70,15.86,9.09,3.14,3.14,3.14
22.99,-12.44,-15.61,-12.44,-15.62,15.62,15.83,9.31,3.18,3.18,3.17
23.22,-12.31,-15.52,-12.32,-15.54,15.54,15.78,9.53,3.22,3.22,3.21
23.45,-12.19,-15.44,-12.20,-15.45,15.45,15.74,9.76,3.26,3.26,3.25
23.69,-12.08,-15.36,-12.07,-15.37,15.37,15.68,10.00,3.29,3.29,3.29
23.92,-11.95,-15.28,-11.95,-15.28,15.28,15.63,10.25,3.33,3.33,3.33
24.16,-11.83,-15.21,-11.83,-15.19,15.19,15.56,10.50,3.36,3.36,3.37
24.40,-11.71,-15.12,-11.71,-15.11,15.11,15.49,10.76,3.39,3.40,3.40
24.65,-11.58,-15.02,-11.59,-15.02,15.02,15.41,11.02,3.43,3.43,3.43
24.89,-11.46,-14.92,-11.46,-14.93,14.93,15.33,11.30,3.47,3.46,3.46
25.14,-11.34,-14.84,-11.34,-14.84,14.84,15.25,11.58,3.50,3.50,3.50
25.39,-11.22,-14.75,-11.22,-14.75,14.75,15.16,11.86,3.53,3.53,3.53
25.65,-11.10,-14.67,-11.10,-14.66,14.66,15.07,12.15,3.56,3.56,3.57
25.91,-10.98,-14.56,-10.98,-14.57,14.57,14.97,12.45,3.60,3.59,3.59
26.16,-10.85,-14.47,-10.86,-14.48,14.48,14.87,12.76,3.63,3.62,3.62
26.43,-10.74,-14.39,-10.74,-14.39,14.39,14.76,13.07,3.65,3.65,3.65
26.69,-10.61,-14.30,-10.61,-14.30,14.30,14.66,13.39,3.68,3.68,3.68
26.96,-10.50,-14.21,-10.49,-14.21,14.21,14.55,13.71,3.71,3.71,3.71
27.23,-10.38,-14.13,-10.37,-14.12,14.12,14.44,14.03,3.74,3.74,3.75
27.50,-10.25,-14.03,-10.25,-14.03,14.03,14.32,14.36,3.77,3.77,3.78
27.77,-10.13,-13.93,-10.13,-13.94,13.94,14.21,14.69,3.80,3.80,3.80
28.05,-10.01,-13.85,-10.01,-13.84,13.84,14.09,15.01,3.83,3.83,3.84
28.33,-9.89,-13.75,-9.89,-13.75,13.75,13.97,15.33,3.86,3.86,3.85
28.62,-9.78,-13.66,-9.77,-13.66,13.66,13.86,15.64,3.89,3.89,3.88
28.90,-9.65,-13.57,-9.66,-13.58,13.58,13.74,15.93,3.92,3.92,3.92
29.19,-9.53,-13.47,-9.54,-13.49,13.49,13.61,16.21,3.95,3.95,3.94
29.48,-9.42,-13.41,-9.42,-13.40,13.40,13.49,16.47,3.98,3.98,3.99
29.78,-9.30,-13.31,-9.31,-13.31,13.31,13.37,16.71,4.00,4.00,4.01
30.08,-9.19,-13.22,-9.19,-13.22,13.22,13.25,16.91,4.04,4.03,4.03
30.38,-9.08,-13.14,-9.08,-13.13,13.13,13.13,17.07,4.06,4.06,4.06
30.68,-8.96,-13.05,-8.96,-13.05,13.05,13.00,17.19,4.08,4.08,4.09
30.99,-8.85,-12.95,-8.85,-12.96,12.96,12.88,17.27,4.12,4.11,4.11
31.30,-8.75,-12.88,-8.74,-12.88,12.88,12.76,17.30,4.13,4.14,4.13
31.61,-8.63,-12.80,-8.63,-12.79,12.79,12.64,17.29,4.16,4.16,4.16
31.93,-8.53,-12.70,-8.52,-12.70,12.70,12.52,17.23,4.18,4.18,4.18
32.24,-8.41,-12.61,-8.41,-12.62,12.62,12.40,17.13,4.21,4.21,4.20
32.57,-8.30,-12.53,-8.31,-12.53,12.53,12.28,16.99,4.23,4.23,4.22
32.89,-8.19,-12.44,-8.20,-12.44,12.44,12.16,16.81,4.25,4.24,4.25
33.22,-8.09,-12.36,-8.09,-12.36,12.36,12.04,16.61,4.27,4.26,4.27
33.55,-7.99,-12.28,-7.99,-12.27,12.27,11.92,16.38,4.28,4.28,4.29
33.89,-7.88,-12.18,-7.89,-12.18,12.18,11.80,16.13,4.30,4.30,4.29
34.23,-7.78,-12.10,-7.78,-12.09,12.09,11.69,15.86,4.31,4.31,4.32
34.57,-7.68,-12.01,-7.68,-12.00,12.00,11.57,15.59,4.32,4.32,4.32
34.92,-7.57,-11.91,-7.58,-11.91,11.91,11.46,15.31,4.34,4.33,4.33
35.27,-7.48,-11.82,-7.48,-11.82,11.82,11.34,15.03,4.35,4.34,4.35
35.62,-7.38,-11.73,-7.38,-11.73,11.73,11.23,14.74,4.35,4.35,4.34
35.97,-7.28,-11.63,-7.28,-11.64,11.64,11.12,14.46,4.35,4.35,4.35
36.33,-7.18,-11.55,-7.18,-11.54,11.54,11.01,14.18,4.36,4.36,4.37
36.70,-7.08,-11.45,-7.08,-11.44,11.44,10.90,13.90,4.36,4.36,4.36
37.06,-6.98,-11.34,-6.98,-11.34,11.34,10.79,13.63,4.36,4.36,4.36
37.43,-6.88,-11.24,-6.88,-11.24,11.24,10.68,13.36,4.36,4.36,4.36
37.81,-6.78,-11.14,-6.78,-11.14,11.14,10.58,13.10,4.36,4.36,4.36
38.19,-6.68,-11.04,-6.68,-11.04,11.04,10.47,12.85,4.35,4.35,4.35
38.57,-6.58,-10.94,-6.58,-10.93,10.93,10.37,12.61,4.35,4.35,4.36
38.95,-6.48,-10.83,-6.48,-10.83,10.83,10.27,12.37,4.34,4.34,4.35
39.34,-6.38,-10.72,-6.38,-10.72,10.72,10.17,12.14,4.34,4.34,4.33
39.74,-6.27,-10.60,-6.28,-10.61,10.61,10.07,11.92,4.34,4.33,4.33
40.14,-6.17,-10.50,-6.17,-10.50,10.50,9.97,11.71,4.33,4.33,4.32
40.54,-6.07,-10.39,-6.07,-10.39,10.39,9.88,11.51,4.31,4.32,4.32
40.94,-5.96,-10.27,-5.97,-10.28,10.28,9.78,11.31,4.31,4.31,4.31
41.35,-5.86,-10.17,-5.86,-10.16,10.16,9.69,11.12,4.30,4.30,4.30
41.76,-5.76,-10.06,-5.76,-10.05,10.05,9.60,10.94,4.28,4.29,4.29
42.18,-5.65,-9.94,-5.65,-9.93,9.93,9.51,10.77,4.28,4.28,4.29
42.60,-5.54,-9.81,-5.54,-9.81,9.81,9.42,10.60,4.27,4.27,4.27
43.03,-5.43,-9.71,-5.44,-9.70,9.70,9.33,10.44,4.26,4.26,4.27
43.46,-5.33,-9.59,-5.33,-9.58,9.58,9.25,10.29,4.24,4.25,4.25
43.90,-5.22,-9.46,-5.23,-9.46,9.46,9.16,10.14,4.24,4.23,4.23
44.33,-5.12,-9.34,-5.12,-9.34,9.34,9.08,10.00,4.22,4.22,4.22
44.78,-5.01,-9.22,-5.01,-9.23,9.23,9.00,9.87,4.21,4.21,4.21
45.23,-4.91,-9.10,-4.91,-9.11,9.11,8.92,9.74,4.19,4.20,4.19
45.68,-4.80,-8.98,-4.80,-8.99,8.99,8.84,9.63,4.18,4.18,4.18
46.13,-4.70,-8.87,-4.70,-8.87,8.87,8.77,9.51,4.17,4.17,4.17
46.60,-4.60,-8.77,-4.60,-8.76,8.76,8.69,9.40,4.15,4.16,4.16
47.06,-4.50,-8.66,-4.50,-8.64,8.64,8.62,9.30,4.14,4.15,4.15
47.53,-4.39,-8.54,-4.40,-8.53,8.53,8.55,9.21,4.14,4.14,4.14
48.01,-4.29,-8.43,-4.30,-8.43,8.43,8.48,9.12,4.13,4.13,4.14
48.49,-4.20,-8.33,-4.20,-8.32,8.32,8.42,9.03,4.12,4.12,4.13
48.97,-4.11,-8.23,-4.11,-8.22,8.22,8.35,8.95,4.11,4.11,4.11
49.46,-4.02,-8.11,-4.02,-8.13,8.13,8.29,8.87,4.10,4.10,4.09
49.96,-3.93,-8.01,-3.94,-8.03,8.03,8.23,8.80,4.10,4.10,4.08
50.46,-3.85,-7.94,-3.86,-7.95,7.95,8.17,8.73,4.09,4.09,4.08
50.96,-3.78,-7.87,-3.78,-7.87,7.87,8.12,8.67,4.08,4.08,4.09
51.47,-3.71,-7.79,-3.71,-7.79,7.79,8.06,8.61,4.08,4.08,4.07
51.99,-3.64,-7.71,-3.65,-7.72,7.72,8.01,8.55,4.08,4.07,4.07
52.51,-3.59,-7.66,-3.60,-7.66,7.66,7.96,8.50,4.07,4.06,4.07
53.03,-3.54,-7.61,-3.55,-7.60,7.60,7.92,8.45,4.06,4.05,4.06
53.56,-3.49,-7.55,-3.51,-7.55,7.55,7.87,8.40,4.06,4.05,4.06
54.10,-3.46,-7.51,-3.47,-7.51,7.51,7.83,8.35,4.04,4.04,4.05
54.64,-3.43,-7.46,-3.44,-7.47,7.47,7.79,8.30,4.03,4.03,4.03
55.18,-3.42,-7.44,-3.42,-7.44,7.44,7.76,8.26,4.01,4.02,4.02
55.74,-3.41,-7.41,-3.41,-7.41,7.41,7.72,8.21,4.00,4.00,4.00
56.29,-3.40,-7.39,-3.40,-7.39,7.39,7.69,8.17,3.99,3.99,3.99
56.86,-3.40,-7.37,-3.41,-7.38,7.38,7.66,8.12,3.97,3.97,3.97
57.42,-3.41,-7.36,-3.42,-7.37,7.37,7.64,8.08,3.95,3.95,3.94
58.00,-3.42,-7.35,-3.43,-7.36,7.36,7.61,8.03,3.94,3.93,3.93
58.58,-3.44,-7.35,-3.46,-7.36,7.36,7.59,7.98,3.92,3.90,3.91
59.16,-3.47,-7.37,-3.49,-7.37,7.37,7.58,7.93,3.89,3.88,3.89
59.76,-3.51,-7.38,-3.52,-7.38,7.38,7.56,7.88,3.86,3.85,3.87
60.35,-3.56,-7.40,-3.57,-7.39,7.39,7.55,7.82,3.83,3.82,3.83
60.96,-3.61,-7.43,-3.61,-7.41,7.41,7.54,7.77,3.80,3.80,3.81
61.57,-3.66,-7.43,-3.66,-7.43,7.43,7.53,7.71,3.77,3.77,3.77
62.18,-3.71,-7.44,-3.72,-7.46,7.46,7.53,7.64,3.74,3.74,3.73
62.80,-3.76,-7.47,-3.77,-7.48,7.48,7.53,7.58,3.72,3.71,3.71
63.43,-3.82,-7.49,-3.83,-7.51,7.51,7.53,7.51,3.69,3.69,3.67
64.07,-3.89,-7.54,-3.88,-7.55,7.55,7.53,7.44,3.65,3.66,3.65
64.71,-3.94,-7.57,-3.94,-7.58,7.58,7.54,7.36,3.63,3.64,3.63
65.35,-4.00,-7.61,-4.00,-7.61,7.61,7.54,7.28,3.61,3.61,3.60
66.01,-4.05,-7.64,-4.05,-7.64,7.64,7.55,7.20,3.59,3.59,3.59
66.67,-4.10,-7.68,-4.10,-7.67,7.67,7.56,7.12,3.57,3.58,3.58
67.33,-4.14,-7.70,-4.14,-7.70,7.70,7.57,7.03,3.56,3.56,3.56
68.01,-4.18,-7.73,-4.18,-7.73,7.73,7.58,6.95,3.54,3.54,3.54
68.69,-4.21,-7.74,-4.22,-7.75,7.75,7.59,6.86,3.54,3.53,3.53
69.37,-4.25,-7.77,-4.25,-7.77,7.77,7.60,6.77,3.51,3.52,3.52
70.07,-4.27,-7.77,-4.28,-7.78,7.78,7.61,6.67,3.50,3.50,3.50
70.77,-4.29,-7.79,-4.29,-7.78,7.78,7.61,6.58,3.49,3.49,3.50
71.48,-4.31,-7.79,-4.31,-7.78,7.78,7.61,6.49,3.46,3.47,3.48
72.19,-4.32,-7.78,-4.31,-7.76,7.76,7.61,6.40,3.44,3.45,3.46
72.91,-4.31,-7.76,-4.31,-7.75,7.75,7.60,6.31,3.43,3.44,3.44
73.64,-4.30,-7.72,-4.30,-7.72,7.72,7.59,6.22,3.42,3.42,3.42
74.38,-4.28,-7.69,-4.29,-7.68,7.68,7.58,6.13,3.40,3.40,3.40
75.12,-4.27,-7.65,-4.26,-7.64,7.64,7.56,6.04,3.37,3.38,3.38
75.87,-4.24,-7.60,-4.23,-7.59,7.59,7.53,5.95,3.35,3.36,3.36
76.63,-4.19,-7.54,-4.20,-7.54,7.54,7.49,5.86,3.34,3.34,3.34
77.40,-4.15,-7.47,-4.15,-7.47,7.47,7.45,5.78,3.32,3.32,3.31
78.17,-4.10,-7.39,-4.10,-7.40,7.40,7.40,5.70,3.30,3.30,3.28
78.95,-4.03,-7.32,-4.04,-7.32,7.32,7.34,5.62,3.29,3.28,3.28
79.74,-3.98,-7.24,-3.98,-7.24,7.24,7.27,5.55,3.25,3.26,3.26
80.54,-3.91,-7.15,-3.90,-7.15,7.15,7.20,5.47,3.24,3.24,3.24
81.35,-3.83,-7.06,-3.83,-7.06,7.06,7.12,5.40,3.22,3.23,3.22
82.16,-3.74,-6.95,-3.74,-6.96,6.96,7.03,5.34,3.22,3.22,3.21
82.98,-3.66,-6.87,-3.65,-6.86,6.86,6.94,5.27,3.19,3.21,3.20
83.81,-3.56,-6.75,-3.56,-6.75,6.75,6.84,5.21,3.19,3.19,3.19
84.65,-3.46,-6.63,-3.46,-6.64,6.64,6.74,5.15,3.17,3.18,3.17
85.50,-3.35,-6.53,-3.35,-6.52,6.52,6.63,5.10,3.17,3.17,3.17
86.35,-3.24,-6.41,-3.25,-6.41,6.41,6.52,5.05,3.16,3.16,3.16
87.22,-3.14,-6.29,-3.14,-6.29,6.29,6.40,5.00,3.14,3.15,3.14
88.09,-3.04,-6.18,-3.04,-6.17,6.17,6.28,4.95,3.12,3.13,3.13
88.97,-2.92,-6.04,-2.93,-6.04,6.04,6.16,4.91,3.12,3.11,3.12
89.86,-2.81,-5.91,-2.82,-5.91,5.91,6.04,4.87,3.10,3.09,3.10
90.76,-2.70,-5.77,-2.72,-5.78,5.78,5.92,4.84,3.08,3.07,3.07
91.66,-2.60,-5.65,-2.62,-5.65,5.65,5.80,4.81,3.05,3.04,3.04
92.58,-2.51,-5.51,-2.52,-5.52,5.52,5.68,4.78,3.00,3.00,3.00
93.51,-2.42,-5.40,-2.42,-5.38,5.38,5.56,4.75,2.96,2.96,2.98
94.44,-2.33,-5.26,-2.33,-5.25,5.25,5.44,4.73,2.92,2.92,2.93
95.39,-2.25,-5.14,-2.25,-5.12,5.12,5.32,4.71,2.87,2.87,2.89
96.34,-2.16,-4.99,-2.17,-4.99,4.99,5.20,4.70,2.82,2.82,2.83
97.30,-2.09,-4.86,-2.10,-4.86,4.86,5.09,4.68,2.77,2.76,2.76
98.28,-2.01,-4.72,-2.03,-4.73,4.73,4.98,4.67,2.72,2.70,2.71
99.26,-1.95,-4.59,-1.97,-4.61,4.61,4.87,4.66,2.66,2.64,2.64
100.25,-1.90,-4.48,-1.91,-4.49,4.49,4.76,4.65,2.59,2.57,2.57
101.25,-1.85,-4.36,-1.87,-4.37,4.37,4.66,4.65,2.52,2.51,2.51
102.27,-1.81,-4.25,-1.82,-4.26,4.26,4.56,4.64,2.45,2.44,2.44
103.29,-1.79,-4.15,-1.79,-4.16,4.16,4.46,4.64,2.36,2.37,2.36
104.32,-1.77,-4.08,-1.76,-4.06,4.06,4.36,4.64,2.28,2.30,2.30
105.37,-1.73,-3.96,-1.73,-3.96,3.96,4.27,4.64,2.23,2.23,2.22
106.42,-1.70,-3.86,-1.71,-3.87,3.87,4.18,4.64,2.17,2.16,2.16
107.48,-1.69,-3.78,-1.70,-3.79,3.79,4.10,4.64,2.10,2.09,2.09
108.56,-1.68,-3.71,-1.69,-3.71,3.71,4.01,4.63,2.03,2.02,2.02
109.64,-1.67,-3.63,-1.68,-3.64,3.64,3.93,4.63,1.97,1.96,1.95
110.74,-1.67,-3.57,-1.68,-3.57,3.57,3.85,4.63,1.90,1.89,1.90
111.85,-1.67,-3.51,-1.67,-3.50,3.50,3.78,4.63,1.83,1.83,1.84
112.97,-1.68,-3.45,-1.67,-3.44,3.44,3.71,4.62,1.76,1.77,1.76
114.10,-1.69,-3.41,-1.67,-3.38,3.38,3.64,4.61,1.69,1.71,1.72
115.24,-1.69,-3.34,-1.67,-3.33,3.33,3.57,4.60,1.63,1.66,1.65
116.39,-1.68,-3.28,-1.67,-3.27,3.27,3.51,4.59,1.59,1.60,1.59
117.55,-1.67,-3.22,-1.67,-3.23,3.23,3.45,4.57,1.55,1.55,1.55
118.73,-1.67,-3.17,-1.67,-3.18,3.18,3.39,4.55,1.51,1.51,1.49
119.92,-1.67,-3.13,-1.68,-3.14,3.14,3.33,4.53,1.47,1.46,1.46
121.12,-1.68,-3.10,-1.69,-3.11,3.11,3.28,4.50,1.42,1.42,1.42
122.33,-1.69,-3.07,-1.70,-3.08,3.08,3.23,4.47,1.38,1.37,1.37
123.55,-1.71,-3.05,-1.72,-3.05,3.05,3.18,4.43,1.34,1.33,1.34
124.79,-1.73,-3.03,-1.74,-3.03,3.03,3.14,4.39,1.30,1.29,1.30
126.03,-1.75,-3.02,-1.76,-3.02,3.02,3.09,4.34,1.27,1.26,1.27
127.29,-1.77,-3.00,-1.79,-3.01,3.01,3.05,4.29,1.24,1.22,1.23
128.57,-1.80,-2.98,-1.83,-3.01,3.01,3.01,4.23,1.21,1.18,1.18
129.85,-1.85,-3.00,-1.87,-3.01,3.01,2.98,4.17,1.16,1.14,1.15
131.15,-1.92,-3.03,-1.91,-3.02,3.02,2.95,4.10,1.09,1.11,1.11
132.46,-1.96,-3.02,-1.96,-3.02,3.02,2.91,4.03,1.06,1.07,1.06
133.79,-2.01,-3.05,-2.00,-3.03,3.03,2.89,3.96,1.02,1.03,1.03
135.12,-2.06,-3.05,-2.05,-3.04,3.04,2.86,3.88,0.98,0.99,0.99
136.48,-2.10,-3.06,-2.11,-3.05,3.05,2.83,3.80,0.95,0.95,0.95
137.84,-2.16,-3.07,-2.16,-3.07,3.07,2.81,3.71,0.90,0.91,0.91
139.22,-2.20,-3.06,-2.21,-3.08,3.08,2.79,3.62,0.87,0.86,0.86
140.61,-2.25,-3.07,-2.27,-3.09,3.09,2.77,3.53,0.83,0.82,0.81
142.02,-2.32,-3.11,-2.32,-3.10,3.10,2.76,3.44,0.77,0.78,0.78
143.44,-2.36,-3.11,-2.37,-3.10,3.10,2.75,3.34,0.74,0.74,0.74
144.87,-2.41,-3.11,-2.41,-3.10,3.10,2.73,3.24,0.69,0.69,0.69
146.32,-2.45,-3.10,-2.46,-3.10,3.10,2.72,3.14,0.65,0.65,0.64
147.78,-2.51,-3.12,-2.50,-3.10,3.10,2.72,3.04,0.59,0.60,0.61
149.26,-2.54,-3.10,-2.54,-3.09,3.09,2.71,2.94,0.55,0.56,0.56
150.75,-2.57,-3.08,-2.57,-3.08,3.08,2.70,2.84,0.50,0.51,0.51
152.26,-2.59,-3.05,-2.60,-3.06,3.06,2.70,2.74,0.46,0.46,0.46
153.78,-2.62,-3.04,-2.62,-3.03,3.03,2.70,2.63,0.41,0.41,0.42
155.32,-2.64,-3.01,-2.64,-3.00,3.00,2.70,2.53,0.36,0.36,0.37
156.88,-2.67,-3.00,-2.66,-2.97,2.97,2.70,2.43,0.29,0.31,0.32
158.44,-2.68,-2.95,-2.67,-2.93,2.93,2.70,2.32,0.24,0.26,0.26
160.03,-2.69,-2.91,-2.67,-2.89,2.89,2.70,2.22,0.19,0.21,0.21
161.63,-2.68,-2.84,-2.68,-2.84,2.84,2.70,2.12,0.16,0.16,0.16
163.24,-2.67,-2.78,-2.68,-2.79,2.79,2.70,2.02,0.12,0.11,0.11
164.88,-2.66,-2.72,-2.68,-2.74,2.74,2.70,1.92,0.08,0.06,0.06
166.53,-2.66,-2.68,-2.68,-2.69,2.69,2.70,1.81,0.03,0.02,0.02
168.19,-2.66,-2.63,-2.68,-2.65,2.65,2.70,1.71,-0.02,-0.03,-0.03
169.87,-2.66,-2.59,-2.68,-2.60,2.60,2.69,1.61,-0.06,-0.08,-0.07
171.57,-2.66,-2.55,-2.67,-2.56,2.56,2.69,1.52,-0.11,-0.12,-0.12
173.29,-2.66,-2.51,-2.67,-2.51,2.51,2.68,1.42,-0.15,-0.16,-0.16
175.02,-2.66,-2.46,-2.68,-2.48,2.48,2.67,1.32,-0.19,-0.20,-0.20
176.77,-2.66,-2.42,-2.68,-2.44,2.44,2.65,1.22,-0.22,-0.24,-0.24
178.54,-2.67,-2.39,-2.68,-2.41,2.41,2.63,1.13,-0.26,-0.27,-0.28
180.32,-2.68,-2.38,-2.68,-2.38,2.38,2.61,1.03,-0.30,-0.30,-0.31
182.13,-2.68,-2.35,-2.69,-2.35,2.35,2.58,0.94,-0.33,-0.33,-0.34
183.95,-2.68,-2.32,-2.69,-2.33,2.33,2.54,0.85,-0.36,-0.36,-0.36
185.79,-2.68,-2.30,-2.68,-2.30,2.30,2.50,0.75,-0.39,-0.39,-0.39
187.65,-2.67,-2.26,-2.68,-2.27,2.27,2.45,0.66,-0.41,-0.41,-0.41
189.52,-2.66,-2.24,-2.66,-2.23,2.23,2.39,0.57,-0.43,-0.43,-0.43
191.42,-2.65,-2.20,-2.64,-2.19,2.19,2.33,0.48,-0.46,-0.45,-0.45
193.33,-2.62,-2.16,-2.62,-2.15,2.15,2.26,0.39,-0.48,-0.47,-0.47
195.27,-2.58,-2.11,-2.58,-2.10,2.10,2.18,0.30,-0.49,-0.49,-0.48
197.22,-2.55,-2.05,-2.54,-2.03,2.03,2.10,0.22,-0.52,-0.51,-0.50
199.19,-2.50,-1.97,-2.48,-1.96,1.96,2.00,0.13,-0.54,-0.52,-0.53
201.18,-2.44,-1.90,-2.42,-1.88,1.88,1.90,0.04,-0.56,-0.54,-0.54
203.19,-2.37,-1.82,-2.35,-1.80,1.80,1.79,-0.04,-0.58,-0.55,-0.55
205.23,-2.28,-1.71,-2.27,-1.71,1.71,1.68,-0.12,-0.58,-0.57,-0.57
207.28,-2.19,-1.62,-2.19,-1.60,1.60,1.56,-0.21,-0.59,-0.59,-0.58
209.35,-2.08,-1.49,-2.09,-1.49,1.49,1.43,-0.29,-0.59,-0.60,-0.60
211.44,-1.97,-1.35,-1.99,-1.37,1.37,1.29,-0.37,-0.60,-0.62,-0.62
213.56,-1.85,-1.22,-1.88,-1.25,1.25,1.16,-0.45,-0.61,-0.63,-0.63
215.69,-1.74,-1.11,-1.76,-1.11,1.11,1.01,-0.52,-0.63,-0.64,-0.64
217.85,-1.61,-0.95,-1.63,-0.97,0.97,0.86,-0.60,-0.64,-0.66,-0.66
220.03,-1.52,-0.85,-1.51,-0.83,0.83,0.71,-0.67,-0.69,-0.67,-0.68
222.23,-1.40,-0.70,-1.37,-0.68,0.68,0.56,-0.74,-0.72,-0.69,-0.70
224.45,-1.25,-0.55,-1.24,-0.53,0.53,0.40,-0.81,-0.72,-0.71,-0.71
226.70,-1.09,-0.38,-1.10,-0.37,0.37,0.24,-0.88,-0.72,-0.72,-0.72
228.96,-0.92,-0.19,-0.95,-0.21,0.21,0.08,-0.94,-0.71,-0.74,-0.73
231.25,-0.81,-0.07,-0.80,-0.04,0.04,-0.08,-1.00,-0.77,-0.76,-0.74
233.57,-0.65,0.11,-0.65,0.12,-0.12,-0.24,-1.06,-0.78,-0.78,-0.77
235.90,-0.48,0.30,-0.50,0.29,-0.29,-0.41,-1.11,-0.78,-0.79,-0.79
238.26,-0.35,0.46,-0.34,0.47,-0.47,-0.57,-1.17,-0.82,-0.81,-0.81
240.64,-0.18,0.65,-0.18,0.64,-0.64,-0.73,-1.21,-0.82,-0.82,-0.83
243.05,-0.04,0.80,-0.02,0.81,-0.81,-0.88,-1.26,-0.86,-0.84,-0.84
245.48,0.13,0.98,0.14,0.99,-0.99,-1.04,-1.30,-0.86,-0.85,-0.85
247.93,0.32,1.18,0.30,1.16,-1.16,-1.19,-1.34,-0.84,-0.86,-0.86
250.41,0.47,1.35,0.46,1.32,-1.32,-1.34,-1.37,-0.86,-0.86,-0.88
252.92,0.65,1.52,0.62,1.49,-1.49,-1.49,-1.41,-0.84,-0.87,-0.87
255.45,0.78,1.64,0.78,1.65,-1.65,-1.63,-1.43,-0.87,-0.87,-0.87
258.00,0.92,1.78,0.94,1.80,-1.80,-1.77,-1.46,-0.89,-0.86,-0.87
260.58,1.09,1.95,1.09,1.95,-1.95,-1.91,-1.48,-0.87,-0.86,-0.87
263.19,1.23,2.08,1.24,2.10,-2.10,-2.04,-1.50,-0.87,-0.85,-0.85
265.82,1.41,2.26,1.39,2.23,-2.23,-2.17,-1.52,-0.83,-0.84,-0.85
268.48,1.54,2.36,1.53,2.37,-2.37,-2.29,-1.53,-0.83,-0.83,-0.83
271.16,1.67,2.48,1.67,2.49,-2.49,-2.40,-1.54,-0.83,-0.82,-0.81
273.87,1.83,2.63,1.80,2.61,-2.61,-2.51,-1.55,-0.78,-0.81,-0.80
276.61,1.94,2.71,1.93,2.72,-2.72,-2.61,-1.56,-0.78,-0.79,-0.78
279.38,2.06,2.83,2.04,2.82,-2.82,-2.71,-1.56,-0.76,-0.78,-0.77
282.17,2.15,2.91,2.15,2.92,-2.92,-2.80,-1.56,-0.77,-0.76,-0.76
284.99,2.25,2.99,2.26,3.00,-3.00,-2.88,-1.57,-0.76,-0.75,-0.75
287.84,2.36,3.09,2.35,3.08,-3.08,-2.96,-1.57,-0.73,-0.73,-0.73
290.72,2.45,3.15,2.43,3.15,-3.15,-3.03,-1.57,-0.70,-0.71,-0.71
293.63,2.53,3.23,2.51,3.21,-3.21,-3.09,-1.56,-0.68,-0.70,-0.70
296.57,2.59,3.26,2.58,3.25,-3.25,-3.15,-1.56,-0.67,-0.68,-0.68
299.53,2.64,3.30,2.63,3.29,-3.29,-3.20,-1.56,-0.66,-0.66,-0.66
302.53,2.69,3.34,2.69,3.33,-3.33,-3.24,-1.56,-0.64,-0.64,-0.66
305.55,2.74,3.36,2.73,3.35,-3.35,-3.28,-1.56,-0.61,-0.62,-0.62
308.61,2.78,3.38,2.77,3.37,-3.37,-3.31,-1.56,-0.59,-0.60,-0.61
311.69,2.80,3.38,2.80,3.38,-3.38,-3.33,-1.55,-0.58,-0.58,-0.58
314.81,2.82,3.36,2.82,3.38,-3.38,-3.35,-1.55,-0.57,-0.56,-0.54
317.96,2.84,3.36,2.84,3.38,-3.38,-3.36,-1.55,-0.54,-0.54,-0.53
321.14,2.85,3.36,2.86,3.37,-3.37,-3.36,-1.56,-0.53,-0.52,-0.51
324.35,2.87,3.36,2.87,3.36,-3.36,-3.36,-1.56,-0.50,-0.49,-0.50
327.59,2.88,3.34,2.88,3.35,-3.35,-3.36,-1.56,-0.47,-0.47,-0.47
330.87,2.88,3.33,2.88,3.33,-3.33,-3.34,-1.56,-0.45,-0.45,-0.45
334.18,2.88,3.30,2.88,3.31,-3.31,-3.33,-1.57,-0.43,-0.42,-0.42
337.52,2.88,3.28,2.88,3.28,-3.28,-3.31,-1.57,-0.41,-0.40,-0.41
340.90,2.88,3.26,2.88,3.26,-3.26,-3.28,-1.58,-0.38,-0.38,-0.38
344.30,2.87,3.22,2.87,3.22,-3.22,-3.26,-1.59,-0.36,-0.36,-0.35
347.75,2.86,3.19,2.86,3.19,-3.19,-3.22,-1.60,-0.33,-0.33,-0.34
351.23,2.85,3.16,2.84,3.15,-3.15,-3.19,-1.61,-0.30,-0.31,-0.31
354.74,2.82,3.10,2.82,3.10,-3.10,-3.15,-1.63,-0.29,-0.29,-0.28
358.28,2.79,3.05,2.79,3.05,-3.05,-3.11,-1.64,-0.27,-0.26,-0.26
361.87,2.78,3.01,2.76,3.00,-3.00,-3.07,-1.66,-0.22,-0.24,-0.24
365.49,2.75,2.95,2.73,2.94,-2.94,-3.02,-1.67,-0.19,-0.21,-0.21
369.14,2.71,2.91,2.69,2.88,-2.88,-2.98,-1.69,-0.18,-0.19,-0.20
372.83,2.66,2.83,2.65,2.82,-2.82,-2.93,-1.71,-0.16,-0.17,-0.17
376.56,2.61,2.76,2.61,2.76,-2.76,-2.88,-1.73,-0.15,-0.15,-0.15
380.33,2.56,2.67,2.57,2.69,-2.69,-2.83,-1.75,-0.14,-0.13,-0.12
384.13,2.51,2.61,2.52,2.63,-2.63,-2.78,-1.78,-0.12,-0.11,-0.11
387.97,2.46,2.55,2.47,2.56,-2.56,-2.73,-1.80,-0.11,-0.09,-0.09
391.85,2.42,2.50,2.42,2.50,-2.50,-2.68,-1.83,-0.08,-0.08,-0.08
395.77,2.38,2.43,2.37,2.44,-2.44,-2.63,-1.85,-0.06,-0.07,-0.05
399.73,2.33,2.37,2.32,2.37,-2.37,-2.57,-1.88,-0.05,-0.05,-0.05
403.72,2.28,2.32,2.27,2.32,-2.32,-2.52,-1.91,-0.04,-0.05,-0.05
407.76,2.24,2.27,2.22,2.26,-2.26,-2.47,-1.94,-0.03,-0.04,-0.04
411.84,2.19,2.22,2.18,2.21,-2.21,-2.42,-1.97,-0.02,-0.03,-0.03
415.96,2.14,2.17,2.13,2.16,-2.16,-2.36,-1.99,-0.03,-0.03,-0.03
420.12,2.08,2.11,2.09,2.12,-2.12,-2.31,-2.02,-0.05,-0.03,-0.03
424.32,2.04,2.07,2.05,2.08,-2.08,-2.26,-2.05,-0.05,-0.04,-0.03
428.56,2.00,2.03,2.01,2.05,-2.05,-2.21,-2.08,-0.05,-0.04,-0.03
432.85,1.97,2.01,1.98,2.02,-2.02,-2.16,-2.11,-0.05,-0.04,-0.05
437.18,1.94,1.98,1.95,1.99,-1.99,-2.11,-2.14,-0.06,-0.04,-0.05
441.55,1.93,1.97,1.92,1.97,-1.97,-2.06,-2.16,-0.05,-0.05,-0.05
445.96,1.91,1.96,1.90,1.95,-1.95,-2.02,-2.19,-0.05,-0.05,-0.06
450.42,1.88,1.94,1.89,1.94,-1.94,-1.97,-2.21,-0.07,-0.06,-0.06
454.93,1.86,1.92,1.87,1.93,-1.93,-1.92,-2.23,-0.08,-0.06,-0.06
459.48,1.86,1.93,1.87,1.93,-1.93,-1.88,-2.25,-0.07,-0.06,-0.07
464.07,1.86,1.92,1.86,1.93,-1.93,-1.83,-2.27,-0.07,-0.06,-0.06
