frequency,raw,error,smoothed,error_smoothed,equalization,parametric_eq,fixed_band_eq,equalized_raw,equalized_smoothed,target
20.00,-3.49,-6.02,-3.49,-6.04,6.04,5.95,0.72,2.54,2.54,2.52
20.20,-3.37,-5.90,-3.37,-5.91,5.91,5.87,0.75,2.53,2.54,2.52
20.40,-3.25,-5.77,-3.25,-5.78,5.78,5.78,0.77,2.53,2.53,2.52
20.61,-3.13,-5.65,-3.13,-5.65,5.65,5.68,0.80,2.52,2.52,2.52
20.81,-3.00,-5.52,-3.00,-5.51,5.51,5.56,0.82,2.51,2.51,2.52
21.02,-2.88,-5.40,-2.88,-5.38,5.38,5.44,0.85,2.50,2.50,2.52
21.23,-2.75,-5.25,-2.76,-5.25,5.25,5.31,0.87,2.50,2.49,2.50
21.44,-2.63,-5.12,-2.64,-5.11,5.11,5.18,0.90,2.48,2.47,2.49
21.66,-2.52,-5.00,-2.52,-4.98,4.98,5.04,0.93,2.46,2.46,2.47
21.87,-2.40,-4.85,-2.40,-4.84,4.84,4.89,0.96,2.44,2.45,2.45
22.09,-2.28,-4.72,-2.28,-4.71,4.71,4.74,0.99,2.43,2.43,2.44
22.31,-2.16,-4.57,-2.16,-4.57,4.57,4.59,1.02,2.41,2.41,2.41
22.54,-2.05,-4.45,-2.04,-4.43,4.43,4.44,1.05,2.38,2.39,2.39
22.76,-1.92,-4.29,-1.92,-4.29,4.29,4.29,1.08,2.37,2.37,2.37
22.99,-1.80,-4.15,-1.80,-4.15,4.15,4.14,1.12,2.34,2.34,2.34
23.22,-1.68,-4.00,-1.68,-4.00,4.00,3.99,1.15,2.32,2.32,2.31
23.45,-1.56,-3.84,-1.56,-3.86,3.86,3.84,1.18,2.30,2.30,2.28
23.69,-1.45,-3.72,-1.45,-3.72,3.72,3.69,1.22,2.28,2.28,2.27
23.92,-1.32,-3.57,-1.33,-3.59,3.59,3.54,1.25,2.26,2.26,2.25
24.16,-1.20,-3.44,-1.21,-3.45,3.45,3.40,1.29,2.25,2.24,2.24
24.40,-1.09,-3.31,-1.09,-3.31,3.31,3.26,1.32,2.22,2.22,2.22
24.65,-0.98,-3.19,-0.98,-3.18,3.18,3.12,1.36,2.19,2.20,2.20
24.89,-0.87,-3.05,-0.86,-3.05,3.05,2.99,1.40,2.18,2.18,2.18
25.14,-0.75,-2.92,-0.75,-2.92,2.92,2.86,1.43,2.17,2.17,2.17
25.39,-0.64,-2.79,-0.64,-2.79,2.79,2.73,1.47,2.15,2.15,2.15
25.65,-0.53,-2.68,-0.53,-2.67,2.67,2.60,1.51,2.13,2.13,2.14
25.91,-0.43,-2.54,-0.43,-2.54,2.54,2.48,1.54,2.12,2.12,2.11
26.16,-0.31,-2.41,-0.32,-2.42,2.42,2.36,1.58,2.11,2.10,2.10
26.43,-0.21,-2.31,-0.22,-2.30,2.30,2.24,1.61,2.09,2.09,2.09
26.69,-0.11,-2.18,-0.11,-2.18,2.18,2.13,1.64,2.07,2.07,2.06
26.96,-0.01,-2.07,-0.01,-2.07,2.07,2.02,1.68,2.05,2.06,2.05
27.23,0.09,-1.96,0.09,-1.95,1.95,1.92,1.71,2.04,2.04,2.04
27.50,0.18,-1.86,0.18,-1.84,1.84,1.81,1.73,2.02,2.03,2.03
27.77,0.28,-1.73,0.28,-1.73,1.73,1.71,1.76,2.01,2.01,2.01
28.05,0.38,-1.62,0.37,-1.63,1.63,1.61,1.79,2.01,2.00,2.00
28.33,0.46,-1.52,0.46,-1.52,1.52,1.52,1.81,1.98,1.98,1.98
28.62,0.55,-1.43,0.55,-1.42,1.42,1.42,1.83,1.97,1.97,1.97
28.90,0.64,-1.31,0.64,-1.32,1.32,1.33,1.84,1.96,1.96,1.95
29.19,0.72,-1.21,0.72,-1.23,1.23,1.25,1.86,1.94,1.95,1.93
29.48,0.80,-1.13,0.80,-1.13,1.13,1.16,1.87,1.93,1.93,1.93
29.78,0.88,-1.05,0.88,-1.04,1.04,1.08,1.87,1.92,1.92,1.92
30.08,0.96,-0.96,0.95,-0.95,0.95,1.00,1.87,1.91,1.90,1.91
30.38,1.02,-0.88,1.02,-0.87,0.87,0.92,1.87,1.88,1.89,1.89
30.68,1.10,-0.79,1.09,-0.78,0.78,0.84,1.87,1.88,1.87,1.88
30.99,1.17,-0.69,1.15,-0.71,0.71,0.77,1.86,1.87,1.86,1.85
31.30,1.22,-0.63,1.21,-0.63,0.63,0.69,1.84,1.84,1.84,1.84
31.61,1.28,-0.56,1.27,-0.55,0.55,0.62,1.83,1.83,1.82,1.83
31.93,1.33,-0.49,1.33,-0.48,0.48,0.55,1.80,1.81,1.81,1.81
32.24,1.38,-0.40,1.38,-0.41,0.41,0.48,1.78,1.79,1.79,1.78
32.57,1.43,-0.34,1.43,-0.34,0.34,0.42,1.75,1.77,1.77,1.76
32.89,1.47,-0.28,1.47,-0.27,0.27,0.35,1.71,1.74,1.75,1.75
33.22,1.52,-0.20,1.52,-0.21,0.21,0.29,1.68,1.73,1.73,1.72
33.55,1.56,-0.15,1.56,-0.15,0.15,0.23,1.63,1.70,1.71,1.71
33.89,1.60,-0.09,1.60,-0.08,0.08,0.16,1.59,1.68,1.69,1.68
34.23,1.64,-0.03,1.64,-0.03,0.03,0.10,1.54,1.66,1.67,1.66
34.57,1.68,0.03,1.68,0.03,-0.03,0.05,1.49,1.65,1.64,1.64
34.92,1.72,0.09,1.71,0.09,-0.09,-0.01,1.43,1.63,1.62,1.62
35.27,1.75,0.14,1.75,0.14,-0.14,-0.07,1.38,1.60,1.60,1.60
35.62,1.78,0.19,1.78,0.20,-0.20,-0.12,1.32,1.58,1.58,1.58
35.97,1.81,0.25,1.81,0.25,-0.25,-0.18,1.26,1.56,1.56,1.56
36.33,1.85,0.31,1.84,0.30,-0.30,-0.23,1.19,1.55,1.54,1.54
36.70,1.87,0.34,1.87,0.35,-0.35,-0.28,1.13,1.52,1.52,1.52
37.06,1.90,0.40,1.90,0.40,-0.40,-0.34,1.06,1.50,1.50,1.50
37.43,1.93,0.45,1.92,0.45,-0.45,-0.39,0.99,1.48,1.48,1.48
37.81,1.95,0.48,1.95,0.49,-0.49,-0.44,0.92,1.45,1.46,1.46
38.19,1.98,0.54,1.97,0.54,-0.54,-0.49,0.85,1.44,1.44,1.43
38.57,2.00,0.57,2.00,0.58,-0.58,-0.53,0.78,1.42,1.42,1.42
38.95,2.02,0.63,2.02,0.62,-0.62,-0.58,0.71,1.40,1.40,1.39
39.34,2.04,0.67,2.04,0.66,-0.66,-0.63,0.63,1.38,1.38,1.37
39.74,2.06,0.70,2.05,0.70,-0.70,-0.68,0.56,1.36,1.36,1.35
40.14,2.07,0.72,2.07,0.73,-0.73,-0.72,0.49,1.34,1.34,1.34
40.54,2.09,0.76,2.09,0.77,-0.77,-0.77,0.41,1.32,1.32,1.32
40.94,2.11,0.81,2.10,0.80,-0.80,-0.81,0.34,1.31,1.30,1.30
41.35,2.12,0.84,2.12,0.83,-0.83,-0.86,0.26,1.29,1.28,1.27
41.76,2.14,0.87,2.13,0.86,-0.86,-0.90,0.18,1.27,1.27,1.27
42.18,2.14,0.89,2.14,0.89,-0.89,-0.95,0.11,1.24,1.25,1.25
42.60,2.15,0.92,2.15,0.92,-0.92,-0.99,0.03,1.22,1.23,1.23
43.03,2.16,0.93,2.16,0.96,-0.96,-1.03,-0.04,1.20,1.21,1.22
43.46,2.18,0.98,2.18,0.99,-0.99,-1.08,-0.12,1.19,1.19,1.19
43.90,2.19,1.01,2.19,1.02,-1.02,-1.12,-0.20,1.17,1.17,1.17
44.33,2.20,1.05,2.20,1.05,-1.05,-1.16,-0.28,1.15,1.15,1.15
44.78,2.21,1.07,2.21,1.07,-1.07,-1.20,-0.35,1.13,1.14,1.13
45.23,2.22,1.11,2.22,1.10,-1.10,-1.24,-0.43,1.11,1.12,1.10
45.68,2.23,1.14,2.23,1.13,-1.13,-1.28,-0.51,1.09,1.10,1.08
46.13,2.25,1.18,2.24,1.16,-1.16,-1.32,-0.59,1.08,1.08,1.07
46.60,2.26,1.19,2.25,1.20,-1.20,-1.36,-0.66,1.06,1.06,1.06
47.06,2.27,1.23,2.26,1.23,-1.23,-1.40,-0.74,1.04,1.04,1.04
47.53,2.28,1.26,2.27,1.26,-1.26,-1.44,-0.82,1.02,1.01,1.02
48.01,2.29,1.27,2.28,1.29,-1.29,-1.48,-0.90,1.00,0.99,1.01
48.49,2.29,1.30,2.29,1.32,-1.32,-1.52,-0.98,0.97,0.97,0.98
48.97,2.30,1.35,2.30,1.35,-1.35,-1.56,-1.06,0.95,0.95,0.95
49.46,2.31,1.39,2.31,1.38,-1.38,-1.60,-1.13,0.92,0.93,0.92
49.96,2.32,1.42,2.32,1.41,-1.41,-1.64,-1.21,0.90,0.91,0.89
50.46,2.34,1.45,2.33,1.44,-1.44,-1.68,-1.29,0.89,0.89,0.88
50.96,2.34,1.47,2.34,1.48,-1.48,-1.72,-1.37,0.86,0.86,0.86
51.47,2.35,1.51,2.35,1.51,-1.51,-1.75,-1.44,0.84,0.84,0.83
51.99,2.36,1.54,2.36,1.54,-1.54,-1.79,-1.52,0.81,0.81,0.81
52.51,2.37,1.57,2.37,1.58,-1.58,-1.83,-1.60,0.79,0.79,0.79
53.03,2.38,1.60,2.37,1.61,-1.61,-1.87,-1.67,0.77,0.76,0.77
53.56,2.39,1.64,2.38,1.64,-1.64,-1.91,-1.75,0.74,0.74,0.74
54.10,2.40,1.67,2.39,1.68,-1.68,-1.94,-1.82,0.72,0.72,0.72
54.64,2.40,1.70,2.40,1.71,-1.71,-1.98,-1.89,0.69,0.69,0.69
55.18,2.41,1.74,2.41,1.74,-1.74,-2.02,-1.96,0.67,0.67,0.67
55.74,2.42,1.77,2.42,1.77,-1.77,-2.05,-2.03,0.65,0.65,0.64
56.29,2.43,1.81,2.43,1.80,-1.80,-2.09,-2.10,0.62,0.62,0.62
56.86,2.44,1.84,2.43,1.83,-1.83,-2.13,-2.16,0.60,0.60,0.59
57.42,2.45,1.88,2.44,1.87,-1.87,-2.16,-2.23,0.58,0.58,0.57
58.00,2.45,1.89,2.45,1.90,-1.90,-2.20,-2.29,0.55,0.55,0.55
58.58,2.46,1.93,2.46,1.93,-1.93,-2.23,-2.34,0.53,0.52,0.52
59.16,2.47,1.97,2.46,1.97,-1.97,-2.27,-2.40,0.50,0.50,0.50
59.76,2.47,1.98,2.47,2.00,-2.00,-2.31,-2.45,0.47,0.47,0.48
60.35,2.48,2.03,2.48,2.03,-2.03,-2.34,-2.50,0.44,0.44,0.45
60.96,2.48,2.04,2.48,2.07,-2.07,-2.38,-2.55,0.41,0.42,0.43
61.57,2.49,2.09,2.49,2.10,-2.10,-2.41,-2.59,0.39,0.39,0.39
62.18,2.50,2.14,2.50,2.13,-2.13,-2.45,-2.63,0.36,0.37,0.36
62.80,2.51,2.18,2.50,2.17,-2.17,-2.48,-2.67,0.34,0.34,0.33
63.43,2.52,2.22,2.51,2.20,-2.20,-2.52,-2.70,0.32,0.31,0.30
64.07,2.52,2.24,2.52,2.23,-2.23,-2.55,-2.73,0.29,0.29,0.27
64.71,2.53,2.27,2.52,2.26,-2.26,-2.59,-2.76,0.26,0.26,0.25
65.35,2.53,2.30,2.53,2.29,-2.29,-2.62,-2.78,0.23,0.23,0.23
66.01,2.53,2.31,2.53,2.33,-2.33,-2.65,-2.81,0.20,0.21,0.21
66.67,2.54,2.35,2.54,2.36,-2.36,-2.69,-2.83,0.18,0.18,0.18
67.33,2.55,2.39,2.54,2.39,-2.39,-2.72,-2.84,0.16,0.16,0.16
68.01,2.55,2.41,2.55,2.42,-2.42,-2.76,-2.86,0.13,0.13,0.13
68.69,2.56,2.44,2.55,2.44,-2.44,-2.79,-2.87,0.11,0.11,0.11
69.37,2.56,2.48,2.56,2.47,-2.47,-2.82,-2.89,0.08,0.08,0.08
70.07,2.56,2.50,2.56,2.50,-2.50,-2.86,-2.90,0.05,0.06,0.05
70.77,2.57,2.53,2.56,2.53,-2.53,-2.89,-2.91,0.03,0.03,0.03
71.48,2.57,2.56,2.56,2.57,-2.57,-2.92,-2.92,0.00,-0.00,0.00
72.19,2.57,2.60,2.57,2.60,-2.60,-2.95,-2.93,-0.03,-0.03,-0.03
72.91,2.57,2.64,2.57,2.64,-2.64,-2.99,-2.94,-0.07,-0.07,-0.07
73.64,2.57,2.67,2.57,2.67,-2.67,-3.02,-2.94,-0.10,-0.10,-0.10
74.38,2.57,2.69,2.57,2.71,-2.71,-3.05,-2.95,-0.14,-0.13,-0.13
75.12,2.58,2.76,2.57,2.74,-2.74,-3.08,-2.96,-0.17,-0.17,-0.18
75.87,2.58,2.79,2.58,2.78,-2.78,-3.11,-2.98,-0.20,-0.20,-0.21
76.63,2.58,2.82,2.58,2.82,-2.82,-3.14,-2.99,-0.25,-0.24,-0.24
77.40,2.58,2.85,2.58,2.86,-2.86,-3.18,-3.00,-0.29,-0.28,-0.28
78.17,2.58,2.92,2.58,2.90,-2.90,-3.21,-3.02,-0.33,-0.32,-0.34
78.95,2.59,2.95,2.58,2.95,-2.95,-3.24,-3.03,-0.36,-0.36,-0.36
79.74,2.59,2.99,2.58,2.99,-2.99,-3.27,-3.05,-0.40,-0.41,-0.40
80.54,2.58,3.03,2.58,3.03,-3.03,-3.30,-3.07,-0.46,-0.45,-0.45
81.35,2.59,3.07,2.58,3.08,-3.08,-3.33,-3.09,-0.49,-0.49,-0.49
82.16,2.59,3.12,2.58,3.12,-3.12,-3.36,-3.12,-0.53,-0.54,-0.54
82.98,2.59,3.17,2.58,3.16,-3.16,-3.38,-3.14,-0.58,-0.58,-0.58
83.81,2.59,3.22,2.58,3.20,-3.20,-3.41,-3.17,-0.62,-0.63,-0.64
84.65,2.57,3.24,2.57,3.25,-3.25,-3.44,-3.21,-0.68,-0.68,-0.68
85.50,2.57,3.28,2.57,3.29,-3.29,-3.47,-3.24,-0.72,-0.72,-0.72
86.35,2.57,3.33,2.56,3.33,-3.33,-3.50,-3.28,-0.77,-0.77,-0.77
87.22,2.56,3.37,2.56,3.38,-3.38,-3.53,-3.31,-0.82,-0.82,-0.82
88.09,2.55,3.42,2.55,3.42,-3.42,-3.55,-3.36,-0.87,-0.87,-0.88
88.97,2.54,3.45,2.54,3.46,-3.46,-3.58,-3.40,-0.92,-0.92,-0.92
89.86,2.53,3.49,2.53,3.50,-3.50,-3.61,-3.45,-0.98,-0.97,-0.97
90.76,2.52,3.54,2.52,3.54,-3.54,-3.63,-3.50,-1.03,-1.02,-1.03
91.66,2.51,3.59,2.51,3.59,-3.59,-3.66,-3.55,-1.08,-1.08,-1.08
92.58,2.50,3.63,2.50,3.63,-3.63,-3.68,-3.61,-1.13,-1.13,-1.14
93.51,2.49,3.66,2.49,3.67,-3.67,-3.71,-3.66,-1.18,-1.18,-1.18
94.44,2.48,3.71,2.47,3.71,-3.71,-3.73,-3.72,-1.24,-1.24,-1.23
95.39,2.47,3.75,2.46,3.76,-3.76,-3.76,-3.78,-1.29,-1.30,-1.29
96.34,2.45,3.80,2.44,3.80,-3.80,-3.78,-3.85,-1.35,-1.35,-1.36
97.30,2.43,3.84,2.43,3.84,-3.84,-3.81,-3.92,-1.41,-1.41,-1.41
98.28,2.41,3.87,2.41,3.88,-3.88,-3.83,-3.98,-1.47,-1.47,-1.47
99.26,2.39,3.92,2.39,3.92,-3.92,-3.85,-4.05,-1.53,-1.53,-1.54
100.25,2.37,3.95,2.37,3.96,-3.96,-3.87,-4.13,-1.59,-1.59,-1.59
101.25,2.35,4.00,2.34,3.99,-3.99,-3.90,-4.20,-1.65,-1.65,-1.65
102.27,2.32,4.03,2.32,4.03,-4.03,-3.92,-4.27,-1.71,-1.71,-1.72
103.29,2.29,4.07,2.29,4.06,-4.06,-3.94,-4.35,-1.78,-1.78,-1.79
104.32,2.26,4.09,2.26,4.10,-4.10,-3.96,-4.42,-1.84,-1.84,-1.84
105.37,2.23,4.12,2.23,4.13,-4.13,-3.98,-4.50,-1.90,-1.91,-1.90
106.42,2.19,4.15,2.19,4.16,-4.16,-4.00,-4.57,-1.98,-1.97,-1.97
107.48,2.16,4.20,2.16,4.19,-4.19,-4.02,-4.64,-2.04,-2.04,-2.04
108.56,2.12,4.22,2.12,4.22,-4.22,-4.04,-4.72,-2.11,-2.10,-2.11
109.64,2.09,4.25,2.08,4.25,-4.25,-4.06,-4.79,-2.17,-2.17,-2.17
110.74,2.05,4.27,2.04,4.28,-4.28,-4.07,-4.85,-2.23,-2.24,-2.23
111.85,2.01,4.30,2.00,4.31,-4.31,-4.09,-4.92,-2.30,-2.31,-2.30
112.97,1.96,4.33,1.96,4.33,-4.33,-4.11,-4.98,-2.38,-2.37,-2.38
114.10,1.91,4.34,1.92,4.36,-4.36,-4.12,-5.03,-2.45,-2.44,-2.44
115.24,1.88,4.38,1.87,4.38,-4.38,-4.14,-5.09,-2.50,-2.51,-2.51
116.39,1.83,4.40,1.83,4.40,-4.40,-4.15,-5.13,-2.57,-2.57,-2.58
117.55,1.78,4.42,1.78,4.42,-4.42,-4.17,-5.17,-2.64,-2.64,-2.65
118.73,1.73,4.43,1.73,4.43,-4.43,-4.18,-5.21,-2.71,-2.70,-2.71
119.92,1.69,4.45,1.68,4.45,-4.45,-4.20,-5.24,-2.76,-2.77,-2.77
121.12,1.64,4.46,1.63,4.46,-4.46,-4.21,-5.26,-2.83,-2.83,-2.83
122.33,1.59,4.48,1.59,4.48,-4.48,-4.22,-5.27,-2.89,-2.89,-2.90
123.55,1.54,4.48,1.54,4.49,-4.49,-4.23,-5.28,-2.95,-2.95,-2.95
124.79,1.49,4.49,1.49,4.50,-4.50,-4.24,-5.27,-3.01,-3.01,-3.01
126.03,1.44,4.49,1.44,4.51,-4.51,-4.25,-5.27,-3.07,-3.07,-3.06
127.29,1.39,4.50,1.39,4.52,-4.52,-4.26,-5.25,-3.13,-3.13,-3.12
128.57,1.34,4.52,1.34,4.52,-4.52,-4.27,-5.22,-3.19,-3.18,-3.19
129.85,1.30,4.53,1.29,4.53,-4.53,-4.28,-5.19,-3.23,-3.24,-3.24
131.15,1.25,4.53,1.25,4.53,-4.53,-4.29,-5.15,-3.29,-3.29,-3.29
132.46,1.20,4.54,1.20,4.54,-4.54,-4.29,-5.10,-3.34,-3.34,-3.35
133.79,1.15,4.53,1.15,4.54,-4.54,-4.30,-5.05,-3.39,-3.39,-3.39
135.12,1.11,4.55,1.10,4.54,-4.54,-4.30,-4.99,-3.43,-3.43,-3.45
136.48,1.06,4.53,1.06,4.54,-4.54,-4.31,-4.93,-3.48,-3.48,-3.48
137.84,1.01,4.52,1.01,4.53,-4.53,-4.31,-4.86,-3.53,-3.52,-3.52
139.22,0.97,4.53,0.97,4.53,-4.53,-4.32,-4.78,-3.56,-3.56,-3.57
140.61,0.92,4.52,0.92,4.52,-4.52,-4.32,-4.70,-3.60,-3.60,-3.61
142.02,0.88,4.50,0.88,4.51,-4.51,-4.32,-4.62,-3.63,-3.63,-3.63
143.44,0.83,4.48,0.83,4.50,-4.50,-4.32,-4.54,-3.67,-3.66,-3.66
144.87,0.79,4.48,0.79,4.48,-4.48,-4.32,-4.45,-3.70,-3.70,-3.70
146.32,0.75,4.47,0.74,4.47,-4.47,-4.32,-4.36,-3.72,-3.73,-3.73
147.78,0.70,4.44,0.70,4.45,-4.45,-4.32,-4.27,-3.76,-3.76,-3.75
149.26,0.66,4.43,0.65,4.44,-4.44,-4.31,-4.18,-3.78,-3.78,-3.78
150.75,0.61,4.42,0.61,4.42,-4.42,-4.31,-4.09,-3.81,-3.81,-3.82
152.26,0.56,4.39,0.56,4.40,-4.40,-4.31,-4.00,-3.84,-3.84,-3.84
153.78,0.52,4.38,0.52,4.38,-4.38,-4.30,-3.91,-3.87,-3.87,-3.87
155.32,0.47,4.35,0.47,4.36,-4.36,-4.29,-3.82,-3.90,-3.89,-3.89
156.88,0.43,4.34,0.42,4.34,-4.34,-4.29,-3.73,-3.92,-3.92,-3.92
158.44,0.38,4.32,0.38,4.33,-4.33,-4.28,-3.64,-3.95,-3.95,-3.95
160.03,0.33,4.30,0.33,4.30,-4.30,-4.27,-3.55,-3.98,-3.98,-3.98
161.63,0.28,4.28,0.28,4.28,-4.28,-4.26,-3.46,-4.01,-4.00,-4.01
163.24,0.23,4.26,0.23,4.26,-4.26,-4.25,-3.38,-4.04,-4.03,-4.04
164.88,0.19,4.24,0.18,4.24,-4.24,-4.23,-3.30,-4.06,-4.06,-4.06
166.53,0.14,4.21,0.13,4.22,-4.22,-4.22,-3.22,-4.08,-4.09,-4.08
168.19,0.09,4.20,0.08,4.20,-4.20,-4.20,-3.14,-4.11,-4.12,-4.12
169.87,0.03,4.17,0.03,4.18,-4.18,-4.19,-3.06,-4.15,-4.15,-4.15
171.57,-0.02,4.15,-0.03,4.15,-4.15,-4.17,-2.98,-4.18,-4.18,-4.18
173.29,-0.08,4.11,-0.08,4.13,-4.13,-4.15,-2.91,-4.22,-4.21,-4.20
175.02,-0.13,4.10,-0.14,4.11,-4.11,-4.13,-2.84,-4.24,-4.25,-4.24
176.77,-0.19,4.08,-0.19,4.09,-4.09,-4.11,-2.77,-4.28,-4.28,-4.28
178.54,-0.25,4.06,-0.25,4.06,-4.06,-4.09,-2.71,-4.31,-4.31,-4.32
180.32,-0.31,4.03,-0.31,4.04,-4.04,-4.06,-2.64,-4.35,-4.35,-4.35
182.13,-0.37,4.00,-0.37,4.01,-4.01,-4.04,-2.58,-4.38,-4.38,-4.38
183.95,-0.44,3.97,-0.43,3.98,-3.98,-4.01,-2.52,-4.43,-4.42,-4.42
185.79,-0.49,3.96,-0.50,3.95,-3.95,-3.98,-2.46,-4.45,-4.45,-4.46
187.65,-0.55,3.94,-0.56,3.92,-3.92,-3.95,-2.41,-4.48,-4.49,-4.50
189.52,-0.63,3.89,-0.63,3.89,-3.89,-3.92,-2.36,-4.52,-4.52,-4.53
191.42,-0.69,3.85,-0.70,3.85,-3.85,-3.89,-2.30,-4.54,-4.55,-4.55
193.33,-0.76,3.80,-0.77,3.81,-3.81,-3.86,-2.25,-4.58,-4.58,-4.57
195.27,-0.83,3.77,-0.84,3.77,-3.77,-3.82,-2.21,-4.60,-4.61,-4.60
197.22,-0.91,3.71,-0.91,3.73,-3.73,-3.78,-2.16,-4.64,-4.63,-4.63
199.19,-0.97,3.70,-0.98,3.68,-3.68,-3.74,-2.11,-4.65,-4.66,-4.68
201.18,-1.05,3.63,-1.05,3.63,-3.63,-3.70,-2.07,-4.68,-4.68,-4.69
203.19,-1.13,3.57,-1.13,3.58,-3.58,-3.66,-2.03,-4.71,-4.71,-4.71
205.23,-1.21,3.52,-1.21,3.52,-3.52,-3.61,-1.99,-4.74,-4.73,-4.73
207.28,-1.28,3.45,-1.28,3.47,-3.47,-3.57,-1.95,-4.75,-4.75,-4.74
209.35,-1.36,3.40,-1.36,3.41,-3.41,-3.52,-1.91,-4.77,-4.77,-4.77
211.44,-1.43,3.35,-1.44,3.35,-3.35,-3.47,-1.87,-4.78,-4.79,-4.79
213.56,-1.52,3.28,-1.52,3.28,-3.28,-3.41,-1.83,-4.81,-4.80,-4.81
215.69,-1.60,3.20,-1.60,3.22,-3.22,-3.36,-1.80,-4.82,-4.82,-4.81
217.85,-1.68,3.13,-1.68,3.15,-3.15,-3.30,-1.76,-4.83,-4.83,-4.82
220.03,-1.76,3.08,-1.76,3.08,-3.08,-3.24,-1.72,-4.84,-4.84,-4.85
222.23,-1.84,3.01,-1.84,3.00,-3.00,-3.18,-1.69,-4.85,-4.84,-4.86
224.45,-1.92,2.92,-1.92,2.93,-2.93,-3.11,-1.65,-4.85,-4.85,-4.85
226.70,-2.00,2.86,-2.00,2.85,-2.85,-3.05,-1.61,-4.85,-4.85,-4.86
228.96,-2.08,2.77,-2.09,2.77,-2.77,-2.98,-1.57,-4.85,-4.85,-4.86
231.25,-2.17,2.67,-2.17,2.68,-2.68,-2.91,-1.54,-4.85,-4.85,-4.85
233.57,-2.25,2.59,-2.25,2.59,-2.59,-2.83,-1.50,-4.84,-4.85,-4.84
235.90,-2.34,2.49,-2.34,2.50,-2.50,-2.75,-1.46,-4.84,-4.84,-4.84
238.26,-2.42,2.41,-2.42,2.40,-2.40,-2.67,-1.42,-4.83,-4.83,-4.84
240.64,-2.51,2.30,-2.51,2.31,-2.31,-2.59,-1.37,-4.82,-4.81,-4.82
243.05,-2.59,2.20,-2.60,2.21,-2.21,-2.50,-1.33,-4.80,-4.80,-4.80
245.48,-2.69,2.08,-2.68,2.10,-2.10,-2.41,-1.29,-4.79,-4.78,-4.78
247.93,-2.77,1.99,-2.77,1.99,-1.99,-2.31,-1.24,-4.77,-4.77,-4.77
250.41,-2.86,1.89,-2.86,1.88,-1.88,-2.22,-1.19,-4.75,-4.75,-4.76
252.92,-2.95,1.76,-2.96,1.77,-1.77,-2.11,-1.14,-4.72,-4.73,-4.72
255.45,-3.05,1.65,-3.05,1.65,-1.65,-2.01,-1.09,-4.71,-4.70,-4.70
258.00,-3.14,1.53,-3.15,1.53,-1.53,-1.90,-1.04,-4.68,-4.68,-4.68
260.58,-3.24,1.41,-3.25,1.41,-1.41,-1.79,-0.99,-4.65,-4.66,-4.66
263.19,-3.34,1.30,-3.35,1.28,-1.28,-1.67,-0.93,-4.63,-4.64,-4.64
265.82,-3.45,1.16,-3.46,1.15,-1.15,-1.55,-0.87,-4.61,-4.61,-4.62
268.48,-3.56,1.03,-3.57,1.02,-1.02,-1.42,-0.81,-4.59,-4.59,-4.59
271.16,-3.67,0.88,-3.68,0.89,-0.89,-1.29,-0.75,-4.56,-4.56,-4.56
273.87,-3.79,0.74,-3.79,0.75,-0.75,-1.16,-0.69,-4.54,-4.54,-4.54
276.61,-3.91,0.59,-3.91,0.61,-0.61,-1.02,-0.62,-4.52,-4.52,-4.51
279.38,-4.02,0.46,-4.02,0.47,-0.47,-0.87,-0.56,-4.49,-4.49,-4.49
282.17,-4.15,0.31,-4.15,0.32,-0.32,-0.72,-0.49,-4.47,-4.47,-4.47
284.99,-4.27,0.16,-4.27,0.17,-0.17,-0.57,-0.42,-4.44,-4.44,-4.44
287.84,-4.40,0.01,-4.39,0.02,-0.02,-0.40,-0.35,-4.42,-4.41,-4.42
290.72,-4.52,-0.15,-4.52,-0.14,0.14,-0.24,-0.28,-4.38,-4.38,-4.38
293.63,-4.65,-0.30,-4.65,-0.30,0.30,-0.06,-0.21,-4.35,-4.35,-4.36
296.57,-4.78,-0.45,-4.79,-0.46,0.46,0.12,-0.14,-4.32,-4.32,-4.33
299.53,-4.92,-0.63,-4.92,-0.63,0.63,0.30,-0.06,-4.29,-4.29,-4.30
302.53,-5.06,-0.78,-5.06,-0.80,0.80,0.49,0.01,-4.26,-4.26,-4.28
305.55,-5.20,-0.98,-5.21,-0.98,0.98,0.69,0.09,-4.23,-4.23,-4.23
308.61,-5.35,-1.15,-5.35,-1.15,1.15,0.90,0.17,-4.20,-4.20,-4.20
311.69,-5.50,-1.35,-5.50,-1.34,1.34,1.11,0.25,-4.17,-4.17,-4.16
314.81,-5.65,-1.53,-5.66,-1.53,1.53,1.33,0.33,-4.13,-4.13,-4.13
317.96,-5.82,-1.73,-5.82,-1.72,1.72,1.55,0.41,-4.11,-4.10,-4.10
321.14,-5.98,-1.92,-5.98,-1.91,1.91,1.79,0.49,-4.07,-4.07,-4.07
324.35,-6.16,-2.12,-6.15,-2.11,2.11,2.03,0.57,-4.05,-4.04,-4.05
327.59,-6.33,-2.33,-6.33,-2.32,2.32,2.28,0.66,-4.02,-4.01,-4.01
330.87,-6.52,-2.55,-6.51,-2.53,2.53,2.53,0.74,-4.00,-3.98,-3.98
334.18,-6.70,-2.75,-6.70,-2.74,2.74,2.79,0.83,-3.96,-3.96,-3.96
337.52,-6.89,-2.96,-6.90,-2.97,2.97,3.06,0.92,-3.93,-3.93,-3.94
340.90,-7.09,-3.18,-7.10,-3.19,3.19,3.34,1.01,-3.90,-3.91,-3.91
344.30,-7.30,-3.42,-7.31,-3.43,3.43,3.62,1.09,-3.88,-3.89,-3.89
347.75,-7.52,-3.66,-7.54,-3.67,3.67,3.90,1.19,-3.85,-3.87,-3.86
351.23,-7.74,-3.90,-7.77,-3.92,3.92,4.19,1.28,-3.82,-3.85,-3.84
354.74,-7.97,-4.14,-8.01,-4.18,4.18,4.49,1.37,-3.79,-3.83,-3.83
358.28,-8.22,-4.42,-8.26,-4.45,4.45,4.78,1.46,-3.77,-3.81,-3.81
361.87,-8.48,-4.69,-8.51,-4.73,4.73,5.07,1.56,-3.76,-3.79,-3.79
365.49,-8.74,-4.98,-8.78,-5.01,5.01,5.36,1.66,-3.73,-3.77,-3.76
369.14,-9.01,-5.27,-9.05,-5.30,5.30,5.64,1.75,-3.71,-3.75,-3.75
372.83,-9.28,-5.55,-9.32,-5.59,5.59,5.92,1.85,-3.69,-3.73,-3.74
376.56,-9.54,-5.83,-9.59,-5.88,5.88,6.18,1.95,-3.66,-3.71,-3.72
380.33,-9.82,-6.13,-9.85,-6.16,6.16,6.42,2.05,-3.66,-3.69,-3.69
384.13,-10.07,-6.41,-10.10,-6.44,6.44,6.64,2.15,-3.64,-3.67,-3.67
387.97,-10.33,-6.69,-10.34,-6.69,6.69,6.83,2.25,-3.64,-3.65,-3.65
391.85,-10.56,-6.94,-10.55,-6.93,6.93,6.99,2.36,-3.64,-3.63,-3.63
395.77,-10.76,-7.17,-10.74,-7.13,7.13,7.12,2.46,-3.63,-3.61,-3.60
399.73,-10.92,-7.34,-10.89,-7.30,7.30,7.20,2.56,-3.62,-3.59,-3.58
403.72,-11.06,-7.50,-11.00,-7.44,7.44,7.25,2.66,-3.62,-3.56,-3.57
407.76,-11.14,-7.60,-11.07,-7.53,7.53,7.25,2.77,-3.61,-3.54,-3.55
411.84,-11.17,-7.66,-11.10,-7.58,7.58,7.21,2.87,-3.59,-3.52,-3.52
415.96,-11.15,-7.66,-11.07,-7.58,7.58,7.13,2.97,-3.58,-3.50,-3.50
420.12,-11.07,-7.60,-11.00,-7.52,7.52,7.02,3.07,-3.55,-3.47,-3.48
424.32,-10.93,-7.49,-10.87,-7.42,7.42,6.86,3.16,-3.52,-3.45,-3.45
428.56,-10.75,-7.33,-10.69,-7.27,7.27,6.68,3.26,-3.49,-3.43,-3.43
432.85,-10.52,-7.12,-10.47,-7.07,7.07,6.47,3.35,-3.46,-3.41,-3.41
437.18,-10.24,-6.87,-10.21,-6.82,6.82,6.24,3.44,-3.42,-3.38,-3.38
441.55,-9.92,-6.58,-9.90,-6.55,6.55,6.00,3.53,-3.38,-3.36,-3.35
445.96,-9.59,-6.26,-9.57,-6.24,6.24,5.74,3.61,-3.36,-3.33,-3.33
450.42,-9.20,-5.88,-9.20,-5.90,5.90,5.48,3.68,-3.30,-3.30,-3.32
454.93,-8.80,-5.53,-8.82,-5.54,5.54,5.21,3.75,-3.26,-3.28,-3.28
459.48,-8.39,-5.14,-8.42,-5.17,5.17,4.93,3.82,-3.22,-3.25,-3.26
464.07,-7.98,-4.76,-8.01,-4.79,4.79,4.66,3.87,-3.19,-3.22,-3.23
468.71,-7.56,-4.37,-7.60,-4.41,4.41,4.39,3.92,-3.16,-3.20,-3.19
473.40,-7.15,-3.99,-7.19,-4.02,4.02,4.12,3.97,-3.13,-3.17,-3.17
478.13,-6.75,-3.61,-6.78,-3.64,3.64,3.85,4.00,-3.11,-3.14,-3.14
482.91,-6.36,-3.25,-6.38,-3.27,3.27,3.59,4.03,-3.09,-3.11,-3.11
