frequency,raw,error,smoothed,error_smoothed,equalization,parametric_eq,fixed_band_eq,equalized_raw,equalized_smoothed,target
20.00,-8.02,-9.54,-8.02,-9.54,9.52,9.82,2.71,1.50,1.50,1.52
20.20,-7.89,-9.46,-7.89,-9.45,9.45,9.74,2.78,1.56,1.56,1.57
20.40,-7.76,-9.37,-7.76,-9.37,9.38,9.66,2.86,1.62,1.62,1.62
20.61,-7.63,-9.28,-7.63,-9.29,9.30,9.57,2.94,1.67,1.67,1.64
20.81,-7.51,-9.20,-7.51,-9.20,9.21,9.48,3.02,1.71,1.71,1.70
21.02,-7.38,-9.12,-7.38,-9.11,9.13,9.39,3.11,1.75,1.74,1.74
21.23,-7.27,-9.03,-7.27,-9.02,9.03,9.29,3.19,1.76,1.77,1.76
21.44,-7.15,-8.92,-7.15,-8.93,8.93,9.19,3.28,1.78,1.78,1.78
21.66,-7.04,-8.84,-7.04,-8.83,8.83,9.09,3.37,1.79,1.79,1.80
21.87,-6.93,-8.73,-6.92,-8.73,8.72,8.99,3.47,1.79,1.80,1.81
22.09,-6.80,-8.62,-6.80,-8.62,8.60,8.89,3.57,1.80,1.80,1.83
22.31,-6.66,-8.49,-6.66,-8.49,8.48,8.78,3.67,1.82,1.82,1.84
22.54,-6.52,-8.36,-6.52,-8.35,8.35,8.68,3.77,1.83,1.84,1.84
22.76,-6.38,-8.21,-6.38,-8.21,8.23,8.57,3.87,1.85,1.85,1.84
22.99,-6.24,-8.07,-6.25,-8.08,8.10,8.46,3.98,1.86,1.85,1.83
23.22,-6.13,-7.96,-6.13,-7.95,7.98,8.35,4.09,1.85,1.85,1.83
23.45,-6.02,-7.84,-6.02,-7.85,7.85,8.24,4.20,1.83,1.83,1.83
23.69,-5.91,-7.75,-5.91,-7.74,7.73,8.13,4.31,1.82,1.82,1.84
23.92,-5.80,-7.63,-5.79,-7.63,7.61,8.02,4.43,1.81,1.81,1.84
24.16,-5.67,-7.50,-5.67,-7.51,7.49,7.91,4.55,1.82,1.82,1.84
24.40,-5.54,-7.38,-5.54,-7.38,7.37,7.80,4.67,1.84,1.84,1.85
24.65,-5.41,-7.25,-5.41,-7.25,7.26,7.69,4.79,1.85,1.85,1.84
24.89,-5.29,-7.12,-5.29,-7.13,7.15,7.58,4.91,1.86,1.86,1.84
25.14,-5.18,-7.01,-5.18,-7.02,7.04,7.47,5.04,1.86,1.86,1.84
25.39,-5.09,-6.93,-5.09,-6.93,6.93,7.37,5.16,1.85,1.85,1.85
25.65,-5.00,-6.85,-5.00,-6.84,6.83,7.26,5.29,1.83,1.83,1.85
25.91,-4.91,-6.75,-4.91,-6.75,6.72,7.15,5.41,1.81,1.81,1.84
26.16,-4.81,-6.64,-4.80,-6.64,6.62,7.04,5.54,1.81,1.82,1.84
26.43,-4.69,-6.53,-4.69,-6.52,6.52,6.94,5.66,1.83,1.83,1.84
26.69,-4.57,-6.41,-4.57,-6.41,6.43,6.83,5.78,1.86,1.85,1.84
26.96,-4.46,-6.30,-4.47,-6.30,6.33,6.73,5.90,1.87,1.86,1.84
27.23,-4.37,-6.21,-4.37,-6.21,6.22,6.62,6.02,1.85,1.85,1.84
27.50,-4.29,-6.13,-4.29,-6.12,6.12,6.52,6.13,1.83,1.83,1.84
27.77,-4.21,-6.03,-4.21,-6.04,6.01,6.42,6.24,1.80,1.80,1.83
28.05,-4.13,-5.95,-4.12,-5.94,5.91,6.32,6.35,1.78,1.80,1.83
28.33,-4.01,-5.82,-4.01,-5.82,5.82,6.22,6.45,1.81,1.81,1.82
28.62,-3.88,-5.70,-3.88,-5.70,5.73,6.12,6.54,1.84,1.84,1.82
28.90,-3.76,-5.58,-3.77,-5.59,5.63,6.02,6.62,1.87,1.86,1.83
29.19,-3.67,-5.49,-3.67,-5.49,5.52,5.92,6.69,1.85,1.85,1.82
29.48,-3.60,-5.42,-3.60,-5.42,5.41,5.83,6.76,1.81,1.80,1.83
29.78,-3.52,-5.34,-3.52,-5.34,5.28,5.73,6.82,1.76,1.76,1.82
30.08,-3.43,-5.26,-3.41,-5.23,5.16,5.64,6.86,1.73,1.75,1.83
30.38,-3.26,-5.08,-3.26,-5.07,5.04,5.55,6.89,1.78,1.79,1.82
30.68,-3.09,-4.91,-3.10,-4.91,4.93,5.46,6.92,1.84,1.84,1.82
30.99,-2.93,-4.75,-2.96,-4.77,4.83,5.37,6.93,1.90,1.87,1.82
31.30,-2.87,-4.68,-2.87,-4.67,4.74,5.28,6.93,1.87,1.88,1.81
31.61,-2.82,-4.63,-2.81,-4.61,4.67,5.19,6.91,1.85,1.86,1.81
31.93,-2.77,-4.58,-2.78,-4.58,4.60,5.10,6.89,1.83,1.83,1.81
32.24,-2.75,-4.55,-2.76,-4.56,4.54,5.02,6.85,1.79,1.78,1.80
32.57,-2.74,-4.54,-2.74,-4.54,4.49,4.93,6.80,1.75,1.74,1.80
32.89,-2.73,-4.52,-2.71,-4.50,4.43,4.85,6.74,1.70,1.72,1.80
33.22,-2.64,-4.42,-2.63,-4.42,4.36,4.77,6.68,1.72,1.73,1.79
33.55,-2.51,-4.29,-2.52,-4.30,4.28,4.69,6.60,1.77,1.76,1.79
33.89,-2.38,-4.16,-2.39,-4.17,4.19,4.61,6.51,1.81,1.80,1.78
34.23,-2.29,-4.07,-2.29,-4.06,4.10,4.53,6.42,1.81,1.81,1.78
34.57,-2.21,-3.98,-2.21,-3.97,4.02,4.45,6.32,1.81,1.81,1.77
34.92,-2.14,-3.91,-2.15,-3.91,3.93,4.37,6.21,1.79,1.79,1.77
35.27,-2.09,-3.85,-2.09,-3.85,3.86,4.30,6.10,1.77,1.77,1.76
35.62,-2.05,-3.81,-2.04,-3.80,3.79,4.22,5.98,1.74,1.75,1.76
35.97,-2.00,-3.75,-2.00,-3.75,3.73,4.15,5.86,1.73,1.73,1.76
36.33,-1.95,-3.70,-1.95,-3.71,3.67,4.08,5.74,1.72,1.72,1.76
36.70,-1.90,-3.65,-1.90,-3.65,3.62,4.01,5.61,1.72,1.72,1.75
37.06,-1.84,-3.58,-1.83,-3.58,3.57,3.94,5.49,1.73,1.75,1.75
37.43,-1.75,-3.50,-1.75,-3.50,3.53,3.87,5.36,1.78,1.79,1.76
37.81,-1.67,-3.43,-1.68,-3.43,3.49,3.80,5.23,1.82,1.81,1.76
38.19,-1.63,-3.38,-1.65,-3.41,3.45,3.73,5.11,1.82,1.80,1.75
38.57,-1.65,-3.41,-1.65,-3.40,3.40,3.67,4.98,1.75,1.75,1.76
38.95,-1.67,-3.43,-1.64,-3.40,3.34,3.60,4.85,1.67,1.70,1.77
39.34,-1.60,-3.35,-1.61,-3.37,3.27,3.54,4.73,1.67,1.66,1.76
39.74,-1.53,-3.29,-1.53,-3.29,3.22,3.47,4.60,1.69,1.68,1.76
40.14,-1.43,-3.19,-1.40,-3.15,3.17,3.41,4.48,1.73,1.77,1.76
40.54,-1.28,-3.04,-1.27,-3.03,3.12,3.35,4.36,1.83,1.84,1.76
40.94,-1.13,-2.88,-1.20,-2.95,3.06,3.29,4.24,1.93,1.86,1.75
41.35,-1.19,-2.94,-1.20,-2.94,3.01,3.23,4.13,1.82,1.81,1.75
41.76,-1.28,-3.02,-1.24,-2.98,2.95,3.17,4.01,1.67,1.71,1.74
42.18,-1.29,-3.02,-1.26,-3.00,2.90,3.11,3.90,1.61,1.64,1.74
42.60,-1.21,-2.93,-1.22,-2.95,2.86,3.06,3.79,1.65,1.64,1.73
43.03,-1.13,-2.85,-1.14,-2.86,2.83,3.00,3.69,1.70,1.69,1.72
43.46,-1.07,-2.78,-1.07,-2.77,2.80,2.95,3.58,1.73,1.73,1.71
43.90,-1.01,-2.70,-1.01,-2.70,2.75,2.89,3.48,1.74,1.74,1.69
44.33,-0.98,-2.64,-0.97,-2.64,2.70,2.84,3.38,1.72,1.73,1.67
44.78,-0.95,-2.60,-0.96,-2.61,2.64,2.79,3.29,1.69,1.68,1.65
45.23,-0.96,-2.60,-0.98,-2.61,2.58,2.73,3.19,1.62,1.60,1.64
45.68,-0.99,-2.62,-0.98,-2.60,2.53,2.68,3.10,1.54,1.55,1.63
46.13,-0.97,-2.57,-0.93,-2.54,2.48,2.63,3.01,1.52,1.56,1.61
46.60,-0.84,-2.45,-0.85,-2.44,2.44,2.58,2.93,1.60,1.59,1.61
47.06,-0.72,-2.31,-0.77,-2.36,2.40,2.54,2.85,1.68,1.63,1.59
47.53,-0.73,-2.31,-0.72,-2.30,2.36,2.49,2.77,1.63,1.63,1.58
48.01,-0.74,-2.32,-0.72,-2.29,2.32,2.44,2.69,1.58,1.60,1.58
48.49,-0.74,-2.30,-0.74,-2.30,2.29,2.39,2.61,1.55,1.55,1.56
48.97,-0.74,-2.28,-0.74,-2.27,2.28,2.35,2.54,1.54,1.54,1.54
49.46,-0.74,-2.26,-0.74,-2.25,2.27,2.30,2.46,1.53,1.53,1.52
49.96,-0.74,-2.24,-0.77,-2.27,2.26,2.26,2.40,1.52,1.49,1.50
50.46,-0.79,-2.28,-0.79,-2.28,2.25,2.22,2.33,1.46,1.45,1.49
50.96,-0.84,-2.32,-0.79,-2.26,2.22,2.17,2.26,1.38,1.43,1.48
51.47,-0.75,-2.21,-0.75,-2.21,2.18,2.13,2.20,1.43,1.43,1.46
51.99,-0.65,-2.10,-0.70,-2.15,2.13,2.09,2.14,1.48,1.43,1.45
52.51,-0.65,-2.09,-0.65,-2.08,2.08,2.05,2.08,1.43,1.44,1.44
53.03,-0.64,-2.08,-0.59,-2.02,2.04,2.01,2.02,1.40,1.45,1.44
53.56,-0.54,-1.96,-0.55,-1.96,1.99,1.97,1.96,1.45,1.45,1.42
54.10,-0.46,-1.87,-0.51,-1.91,1.95,1.93,1.91,1.49,1.44,1.41
54.64,-0.51,-1.90,-0.50,-1.89,1.93,1.89,1.86,1.42,1.42,1.39
55.18,-0.55,-1.94,-0.53,-1.91,1.91,1.86,1.80,1.36,1.38,1.39
55.74,-0.55,-1.92,-0.55,-1.92,1.89,1.82,1.75,1.34,1.34,1.37
56.29,-0.55,-1.91,-0.55,-1.91,1.89,1.78,1.71,1.34,1.33,1.36
56.86,-0.55,-1.90,-0.55,-1.89,1.88,1.75,1.66,1.33,1.33,1.35
57.42,-0.55,-1.87,-0.55,-1.87,1.88,1.71,1.61,1.33,1.33,1.32
58.00,-0.55,-1.86,-0.55,-1.86,1.86,1.68,1.57,1.31,1.31,1.31
58.58,-0.55,-1.85,-0.55,-1.84,1.85,1.64,1.53,1.30,1.30,1.30
59.16,-0.55,-1.83,-0.55,-1.83,1.82,1.61,1.48,1.27,1.27,1.28
59.76,-0.55,-1.81,-0.55,-1.80,1.79,1.57,1.44,1.24,1.24,1.26
60.35,-0.55,-1.77,-0.55,-1.77,1.76,1.54,1.40,1.21,1.21,1.22
60.96,-0.55,-1.73,-0.55,-1.73,1.73,1.51,1.37,1.18,1.18,1.18
61.57,-0.55,-1.69,-0.55,-1.68,1.69,1.48,1.33,1.14,1.14,1.14
62.18,-0.55,-1.65,-0.55,-1.64,1.65,1.45,1.29,1.10,1.10,1.10
62.80,-0.55,-1.60,-0.55,-1.60,1.61,1.42,1.26,1.06,1.06,1.05
63.43,-0.55,-1.56,-0.55,-1.55,1.56,1.38,1.22,1.01,1.01,1.01
64.07,-0.55,-1.51,-0.55,-1.51,1.51,1.36,1.19,0.96,0.96,0.96
64.71,-0.55,-1.47,-0.55,-1.47,1.46,1.33,1.15,0.91,0.91,0.92
65.35,-0.55,-1.43,-0.55,-1.42,1.40,1.30,1.12,0.85,0.85,0.88
66.01,-0.55,-1.38,-0.55,-1.38,1.35,1.27,1.09,0.80,0.80,0.83
66.67,-0.55,-1.33,-0.53,-1.31,1.31,1.24,1.06,0.76,0.78,0.78
67.33,-0.52,-1.24,-0.51,-1.24,1.27,1.21,1.03,0.75,0.76,0.73
68.01,-0.47,-1.16,-0.51,-1.19,1.24,1.19,1.00,0.77,0.73,0.69
68.69,-0.53,-1.17,-0.53,-1.17,1.20,1.16,0.97,0.67,0.67,0.64
69.37,-0.59,-1.18,-0.58,-1.17,1.16,1.13,0.94,0.57,0.58,0.59
70.07,-0.65,-1.19,-0.63,-1.17,1.13,1.11,0.92,0.48,0.49,0.54
70.77,-0.65,-1.14,-0.65,-1.14,1.10,1.08,0.89,0.45,0.44,0.49
71.48,-0.65,-1.09,-0.66,-1.08,1.07,1.05,0.86,0.42,0.41,0.44
72.19,-0.65,-1.02,-0.65,-1.01,1.03,1.03,0.84,0.38,0.38,0.37
72.91,-0.65,-0.96,-0.64,-0.95,0.98,1.01,0.81,0.33,0.34,0.31
73.64,-0.65,-0.91,-0.68,-0.93,0.93,0.98,0.79,0.28,0.25,0.26
74.38,-0.70,-0.90,-0.71,-0.91,0.88,0.96,0.76,0.18,0.17,0.20
75.12,-0.78,-0.91,-0.73,-0.86,0.85,0.93,0.74,0.07,0.12,0.14
75.87,-0.73,-0.80,-0.72,-0.80,0.82,0.91,0.72,0.09,0.10,0.08
76.63,-0.68,-0.71,-0.72,-0.75,0.80,0.89,0.69,0.12,0.07,0.03
77.40,-0.73,-0.71,-0.75,-0.72,0.77,0.86,0.67,0.04,0.02,-0.02
78.17,-0.86,-0.78,-0.85,-0.77,0.75,0.84,0.65,-0.11,-0.10,-0.08
78.95,-0.94,-0.82,-0.93,-0.81,0.73,0.82,0.63,-0.21,-0.20,-0.12
79.74,-1.00,-0.82,-0.96,-0.78,0.72,0.80,0.61,-0.28,-0.23,-0.17
80.54,-0.93,-0.71,-0.93,-0.70,0.72,0.78,0.59,-0.21,-0.21,-0.22
81.35,-0.88,-0.61,-0.93,-0.66,0.71,0.76,0.57,-0.17,-0.22,-0.27
82.16,-0.95,-0.63,-0.98,-0.66,0.71,0.73,0.55,-0.24,-0.27,-0.32
82.98,-1.13,-0.77,-1.08,-0.71,0.71,0.71,0.53,-0.42,-0.37,-0.36
83.81,-1.18,-0.77,-1.16,-0.75,0.71,0.69,0.51,-0.47,-0.45,-0.41
84.65,-1.20,-0.74,-1.19,-0.73,0.71,0.67,0.49,-0.49,-0.47,-0.46
85.50,-1.18,-0.68,-1.20,-0.69,0.72,0.65,0.47,-0.46,-0.48,-0.50
86.35,-1.22,-0.67,-1.28,-0.73,0.73,0.63,0.45,-0.49,-0.55,-0.55
87.22,-1.38,-0.77,-1.35,-0.75,0.73,0.61,0.43,-0.65,-0.62,-0.60
88.09,-1.48,-0.83,-1.39,-0.73,0.72,0.60,0.41,-0.76,-0.67,-0.65
88.97,-1.35,-0.64,-1.40,-0.69,0.69,0.58,0.39,-0.66,-0.71,-0.71
89.86,-1.34,-0.58,-1.41,-0.65,0.65,0.56,0.38,-0.69,-0.76,-0.76
90.76,-1.47,-0.66,-1.43,-0.62,0.61,0.54,0.36,-0.86,-0.82,-0.81
91.66,-1.51,-0.64,-1.47,-0.60,0.56,0.52,0.34,-0.95,-0.91,-0.86
92.58,-1.46,-0.54,-1.45,-0.53,0.50,0.50,0.32,-0.96,-0.95,-0.92
93.51,-1.38,-0.41,-1.41,-0.44,0.45,0.48,0.31,-0.93,-0.96,-0.97
94.44,-1.36,-0.35,-1.38,-0.36,0.40,0.47,0.29,-0.96,-0.98,-1.01
95.39,-1.41,-0.35,-1.38,-0.32,0.36,0.45,0.27,-1.05,-1.02,-1.06
96.34,-1.42,-0.31,-1.41,-0.30,0.33,0.43,0.26,-1.09,-1.09,-1.11
97.30,-1.44,-0.28,-1.47,-0.31,0.30,0.41,0.24,-1.14,-1.17,-1.16
98.28,-1.52,-0.31,-1.52,-0.31,0.28,0.40,0.22,-1.23,-1.24,-1.21
99.26,-1.62,-0.37,-1.58,-0.32,0.29,0.38,0.21,-1.33,-1.29,-1.25
100.25,-1.61,-0.31,-1.62,-0.31,0.31,0.36,0.19,-1.30,-1.31,-1.30
101.25,-1.64,-0.29,-1.66,-0.31,0.34,0.35,0.18,-1.30,-1.33,-1.35
102.27,-1.72,-0.32,-1.73,-0.32,0.37,0.33,0.16,-1.35,-1.36,-1.40
103.29,-1.84,-0.39,-1.83,-0.38,0.40,0.31,0.14,-1.44,-1.43,-1.45
104.32,-1.95,-0.46,-1.94,-0.45,0.44,0.30,0.13,-1.51,-1.50,-1.49
105.37,-2.05,-0.51,-2.04,-0.50,0.48,0.28,0.11,-1.57,-1.56,-1.54
106.42,-2.12,-0.53,-2.13,-0.53,0.51,0.27,0.10,-1.61,-1.62,-1.59
107.48,-2.21,-0.56,-2.21,-0.56,0.53,0.25,0.08,-1.68,-1.68,-1.65
108.56,-2.28,-0.58,-2.27,-0.57,0.54,0.23,0.07,-1.74,-1.74,-1.70
109.64,-2.32,-0.57,-2.32,-0.56,0.53,0.22,0.05,-1.79,-1.79,-1.75
110.74,-2.34,-0.53,-2.34,-0.54,0.52,0.20,0.04,-1.82,-1.83,-1.81
111.85,-2.36,-0.51,-2.35,-0.49,0.51,0.19,0.02,-1.85,-1.84,-1.85
112.97,-2.36,-0.45,-2.35,-0.44,0.50,0.17,0.01,-1.86,-1.85,-1.91
114.10,-2.37,-0.41,-2.38,-0.42,0.50,0.16,-0.00,-1.87,-1.88,-1.96
115.24,-2.41,-0.40,-2.46,-0.45,0.48,0.14,-0.02,-1.93,-1.98,-2.01
116.39,-2.58,-0.52,-2.57,-0.50,0.47,0.13,-0.03,-2.11,-2.10,-2.06
117.55,-2.69,-0.59,-2.63,-0.53,0.46,0.11,-0.04,-2.23,-2.18,-2.10
118.73,-2.65,-0.51,-2.64,-0.50,0.44,0.10,-0.06,-2.21,-2.20,-2.14
119.92,-2.56,-0.39,-2.60,-0.42,0.41,0.08,-0.07,-2.15,-2.18,-2.17
121.12,-2.54,-0.33,-2.55,-0.34,0.37,0.07,-0.08,-2.17,-2.17,-2.21
122.33,-2.53,-0.29,-2.53,-0.28,0.31,0.05,-0.10,-2.22,-2.22,-2.24
123.55,-2.52,-0.25,-2.51,-0.24,0.23,0.04,-0.11,-2.29,-2.29,-2.27
124.79,-2.47,-0.17,-2.47,-0.17,0.13,0.02,-0.12,-2.34,-2.34,-2.30
126.03,-2.41,-0.08,-2.40,-0.07,0.04,0.01,-0.13,-2.37,-2.36,-2.33
127.29,-2.30,0.05,-2.31,0.05,-0.05,-0.01,-0.15,-2.35,-2.36,-2.35
128.57,-2.22,0.17,-2.22,0.17,-0.14,-0.02,-0.16,-2.36,-2.36,-2.39
129.85,-2.15,0.27,-2.15,0.27,-0.23,-0.04,-0.17,-2.38,-2.38,-2.42
131.15,-2.10,0.35,-2.12,0.34,-0.32,-0.05,-0.18,-2.42,-2.43,-2.45
132.46,-2.10,0.38,-2.09,0.39,-0.40,-0.07,-0.19,-2.50,-2.50,-2.48
133.79,-2.09,0.42,-2.07,0.45,-0.48,-0.08,-0.21,-2.57,-2.55,-2.51
135.12,-2.02,0.52,-2.02,0.52,-0.54,-0.09,-0.22,-2.56,-2.57,-2.54
136.48,-1.96,0.60,-1.96,0.61,-0.60,-0.11,-0.23,-2.56,-2.56,-2.56
137.84,-1.90,0.70,-1.91,0.69,-0.66,-0.12,-0.24,-2.56,-2.57,-2.60
139.22,-1.89,0.74,-1.89,0.74,-0.72,-0.14,-0.25,-2.61,-2.61,-2.63
140.61,-1.89,0.77,-1.88,0.78,-0.78,-0.15,-0.26,-2.67,-2.66,-2.66
142.02,-1.89,0.79,-1.89,0.79,-0.83,-0.17,-0.28,-2.72,-2.73,-2.68
143.44,-1.88,0.83,-1.88,0.84,-0.88,-0.18,-0.29,-2.76,-2.76,-2.71
144.87,-1.88,0.87,-1.83,0.92,-0.91,-0.19,-0.30,-2.79,-2.75,-2.75
146.32,-1.79,1.00,-1.81,0.98,-0.94,-0.21,-0.31,-2.73,-2.74,-2.79
147.78,-1.75,1.07,-1.82,1.01,-0.97,-0.22,-0.32,-2.72,-2.79,-2.82
149.26,-1.90,0.97,-1.87,1.01,-1.00,-0.24,-0.34,-2.90,-2.87,-2.87
150.75,-1.98,0.95,-1.93,1.01,-1.04,-0.25,-0.35,-3.02,-2.97,-2.93
152.26,-1.98,1.02,-1.99,1.01,-1.07,-0.27,-0.36,-3.05,-3.06,-3.00
153.78,-1.98,1.09,-2.04,1.03,-1.09,-0.28,-0.38,-3.07,-3.13,-3.07
155.32,-2.11,1.03,-2.06,1.09,-1.10,-0.30,-0.39,-3.21,-3.15,-3.14
156.88,-2.14,1.08,-2.09,1.14,-1.09,-0.31,-0.40,-3.23,-3.17,-3.22
158.44,-2.07,1.23,-2.15,1.15,-1.06,-0.33,-0.42,-3.14,-3.22,-3.30
160.03,-2.23,1.15,-2.26,1.12,-1.03,-0.34,-0.43,-3.26,-3.29,-3.38
161.63,-2.47,0.98,-2.43,1.03,-0.99,-0.35,-0.45,-3.46,-3.41,-3.45
163.24,-2.63,0.88,-2.60,0.91,-0.95,-0.37,-0.46,-3.58,-3.55,-3.51
164.88,-2.71,0.85,-2.73,0.84,-0.91,-0.38,-0.48,-3.62,-3.64,-3.56
166.53,-2.79,0.82,-2.81,0.81,-0.88,-0.40,-0.49,-3.67,-3.69,-3.61
168.19,-2.87,0.78,-2.85,0.81,-0.86,-0.41,-0.51,-3.73,-3.71,-3.65
169.87,-2.87,0.82,-2.86,0.83,-0.86,-0.43,-0.53,-3.73,-3.73,-3.69
171.57,-2.81,0.90,-2.80,0.91,-0.89,-0.44,-0.55,-3.70,-3.69,-3.71
173.29,-2.74,0.98,-2.73,0.99,-0.94,-0.46,-0.56,-3.68,-3.68,-3.72
175.02,-2.63,1.10,-2.70,1.03,-1.01,-0.47,-0.58,-3.64,-3.71,-3.73
176.77,-2.71,1.03,-2.69,1.06,-1.07,-0.49,-0.60,-3.78,-3.76,-3.74
178.54,-2.72,1.03,-2.65,1.09,-1.12,-0.50,-0.62,-3.84,-3.77,-3.75
180.32,-2.58,1.16,-2.61,1.14,-1.15,-0.52,-0.64,-3.73,-3.75,-3.74
182.13,-2.50,1.23,-2.52,1.23,-1.16,-0.53,-0.66,-3.66,-3.68,-3.73
183.95,-2.49,1.25,-2.49,1.25,-1.17,-0.55,-0.68,-3.66,-3.66,-3.74
185.79,-2.48,1.26,-2.53,1.22,-1.19,-0.57,-0.70,-3.67,-3.71,-3.74
187.65,-2.64,1.12,-2.59,1.17,-1.21,-0.58,-0.72,-3.85,-3.80,-3.76
189.52,-2.63,1.14,-2.64,1.14,-1.24,-0.60,-0.75,-3.87,-3.88,-3.77
191.42,-2.63,1.16,-2.63,1.17,-1.27,-0.61,-0.77,-3.90,-3.90,-3.79
193.33,-2.58,1.23,-2.53,1.29,-1.31,-0.63,-0.79,-3.89,-3.83,-3.81
195.27,-2.41,1.42,-2.44,1.39,-1.34,-0.64,-0.82,-3.75,-3.79,-3.83
197.22,-2.33,1.52,-2.40,1.46,-1.39,-0.66,-0.84,-3.72,-3.78,-3.85
199.19,-2.42,1.45,-2.40,1.48,-1.43,-0.67,-0.86,-3.85,-3.82,-3.87
201.18,-2.47,1.42,-2.42,1.47,-1.46,-0.69,-0.89,-3.93,-3.88,-3.89
203.19,-2.44,1.47,-2.44,1.47,-1.48,-0.71,-0.91,-3.92,-3.92,-3.91
205.23,-2.40,1.53,-2.44,1.49,-1.49,-0.72,-0.94,-3.89,-3.94,-3.93
207.28,-2.47,1.47,-2.47,1.48,-1.49,-0.74,-0.96,-3.96,-3.96,-3.94
209.35,-2.54,1.42,-2.52,1.45,-1.48,-0.76,-0.99,-4.02,-4.00,-3.96
211.44,-2.56,1.43,-2.55,1.44,-1.48,-0.77,-1.01,-4.04,-4.02,-3.99
213.56,-2.54,1.46,-2.53,1.47,-1.47,-0.79,-1.04,-4.01,-4.00,-4.00
215.69,-2.51,1.50,-2.53,1.48,-1.46,-0.80,-1.06,-3.97,-3.99,-4.01
217.85,-2.53,1.49,-2.56,1.47,-1.45,-0.82,-1.08,-3.98,-4.00,-4.02
220.03,-2.62,1.41,-2.59,1.45,-1.43,-0.84,-1.11,-4.05,-4.02,-4.03
222.23,-2.66,1.40,-2.64,1.42,-1.40,-0.85,-1.13,-4.06,-4.04,-4.06
224.45,-2.64,1.41,-2.68,1.37,-1.38,-0.87,-1.15,-4.02,-4.06,-4.05
226.70,-2.72,1.33,-2.72,1.34,-1.35,-0.89,-1.18,-4.07,-4.07,-4.05
228.96,-2.77,1.27,-2.74,1.31,-1.32,-0.91,-1.20,-4.09,-4.06,-4.04
231.25,-2.75,1.28,-2.76,1.28,-1.30,-0.92,-1.22,-4.05,-4.05,-4.03
233.57,-2.73,1.29,-2.76,1.27,-1.28,-0.94,-1.24,-4.01,-4.04,-4.02
235.90,-2.77,1.24,-2.75,1.26,-1.27,-0.96,-1.26,-4.04,-4.02,-4.01
238.26,-2.77,1.23,-2.75,1.25,-1.26,-0.97,-1.27,-4.03,-4.00,-4.00
240.64,-2.71,1.26,-2.73,1.25,-1.25,-0.99,-1.29,-3.96,-3.97,-3.97
243.05,-2.69,1.25,-2.69,1.26,-1.23,-1.01,-1.31,-3.92,-3.92,-3.94
245.48,-2.67,1.25,-2.66,1.26,-1.22,-1.03,-1.32,-3.89,-3.89,-3.92
247.93,-2.64,1.25,-2.67,1.22,-1.22,-1.04,-1.33,-3.86,-3.89,-3.89
250.41,-2.70,1.17,-2.69,1.18,-1.21,-1.06,-1.34,-3.91,-3.90,-3.87
252.92,-2.71,1.13,-2.70,1.15,-1.20,-1.08,-1.35,-3.91,-3.90,-3.84
255.45,-2.69,1.13,-2.68,1.15,-1.19,-1.10,-1.36,-3.88,-3.87,-3.82
258.00,-2.63,1.17,-2.63,1.17,-1.17,-1.11,-1.37,-3.80,-3.80,-3.80
260.58,-2.58,1.20,-2.60,1.18,-1.13,-1.13,-1.38,-3.71,-3.73,-3.78
263.19,-2.59,1.16,-2.60,1.16,-1.10,-1.15,-1.38,-3.69,-3.69,-3.75
265.82,-2.65,1.08,-2.63,1.10,-1.05,-1.17,-1.39,-3.70,-3.69,-3.73
268.48,-2.68,1.03,-2.69,1.02,-1.01,-1.19,-1.39,-3.69,-3.70,-3.71
271.16,-2.74,0.94,-2.74,0.94,-0.97,-1.20,-1.39,-3.71,-3.72,-3.68
273.87,-2.79,0.87,-2.78,0.89,-0.94,-1.22,-1.40,-3.73,-3.71,-3.66
276.61,-2.79,0.84,-2.78,0.85,-0.91,-1.24,-1.40,-3.70,-3.69,-3.63
279.38,-2.75,0.85,-2.76,0.85,-0.89,-1.26,-1.40,-3.64,-3.65,-3.60
282.17,-2.70,0.88,-2.70,0.88,-0.88,-1.28,-1.40,-3.58,-3.58,-3.58
284.99,-2.65,0.89,-2.64,0.91,-0.89,-1.30,-1.40,-3.54,-3.52,-3.54
287.84,-2.57,0.95,-2.59,0.93,-0.90,-1.31,-1.40,-3.47,-3.49,-3.52
290.72,-2.55,0.94,-2.56,0.93,-0.90,-1.33,-1.40,-3.45,-3.46,-3.49
293.63,-2.56,0.90,-2.54,0.92,-0.90,-1.35,-1.40,-3.46,-3.44,-3.46
296.57,-2.54,0.89,-2.54,0.89,-0.89,-1.37,-1.40,-3.43,-3.43,-3.43
299.53,-2.53,0.87,-2.53,0.87,-0.88,-1.39,-1.40,-3.41,-3.41,-3.40
302.53,-2.52,0.86,-2.52,0.86,-0.87,-1.41,-1.40,-3.39,-3.39,-3.38
305.55,-2.51,0.83,-2.52,0.83,-0.85,-1.42,-1.40,-3.36,-3.37,-3.34
308.61,-2.50,0.82,-2.50,0.82,-0.84,-1.44,-1.41,-3.34,-3.34,-3.32
311.69,-2.49,0.80,-2.45,0.84,-0.84,-1.46,-1.41,-3.33,-3.30,-3.29
314.81,-2.39,0.88,-2.41,0.86,-0.86,-1.48,-1.41,-3.25,-3.27,-3.27
317.96,-2.35,0.90,-2.39,0.87,-0.88,-1.50,-1.42,-3.23,-3.27,-3.25
321.14,-2.38,0.86,-2.36,0.88,-0.90,-1.52,-1.42,-3.28,-3.27,-3.24
324.35,-2.37,0.85,-2.33,0.90,-0.92,-1.54,-1.43,-3.29,-3.25,-3.22
327.59,-2.26,0.95,-2.25,0.96,-0.93,-1.55,-1.43,-3.19,-3.19,-3.21
330.87,-2.15,1.05,-2.19,1.01,-0.94,-1.57,-1.44,-3.09,-3.13,-3.20
334.18,-2.14,1.04,-2.17,1.02,-0.95,-1.59,-1.45,-3.09,-3.12,-3.18
337.52,-2.23,0.94,-2.21,0.96,-0.97,-1.61,-1.46,-3.20,-3.18,-3.17
340.90,-2.27,0.89,-2.25,0.91,-0.98,-1.63,-1.47,-3.25,-3.24,-3.16
344.30,-2.25,0.90,-2.23,0.93,-1.01,-1.65,-1.48,-3.26,-3.23,-3.15
347.75,-2.15,1.00,-2.15,1.01,-1.03,-1.66,-1.50,-3.18,-3.18,-3.15
351.23,-2.04,1.10,-2.08,1.07,-1.05,-1.68,-1.51,-3.09,-3.13,-3.14
354.74,-2.01,1.14,-2.03,1.12,-1.08,-1.70,-1.53,-3.09,-3.11,-3.15
358.28,-2.05,1.09,-1.99,1.15,-1.12,-1.72,-1.54,-3.17,-3.12,-3.14
361.87,-1.95,1.19,-1.96,1.19,-1.17,-1.74,-1.56,-3.12,-3.13,-3.14
365.49,-1.90,1.23,-1.93,1.21,-1.21,-1.76,-1.58,-3.11,-3.13,-3.13
369.14,-1.89,1.25,-1.91,1.23,-1.23,-1.77,-1.60,-3.12,-3.14,-3.14
372.83,-1.93,1.21,-1.90,1.25,-1.26,-1.79,-1.62,-3.19,-3.16,-3.14
376.56,-1.90,1.25,-1.87,1.28,-1.29,-1.81,-1.65,-3.19,-3.16,-3.15
380.33,-1.79,1.35,-1.82,1.32,-1.33,-1.83,-1.67,-3.12,-3.15,-3.14
384.13,-1.76,1.38,-1.80,1.35,-1.38,-1.84,-1.69,-3.14,-3.17,-3.14
387.97,-1.78,1.37,-1.76,1.39,-1.42,-1.86,-1.72,-3.20,-3.18,-3.15
391.85,-1.78,1.38,-1.71,1.45,-1.46,-1.88,-1.75,-3.24,-3.17,-3.16
395.77,-1.60,1.55,-1.63,1.53,-1.51,-1.90,-1.77,-3.11,-3.14,-3.15
399.73,-1.52,1.64,-1.56,1.60,-1.55,-1.91,-1.80,-3.07,-3.11,-3.16
403.72,-1.55,1.61,-1.54,1.63,-1.58,-1.93,-1.83,-3.13,-3.12,-3.16
407.76,-1.57,1.61,-1.57,1.61,-1.61,-1.95,-1.86,-3.18,-3.18,-3.18
411.84,-1.60,1.58,-1.58,1.60,-1.64,-1.97,-1.89,-3.24,-3.22,-3.18
415.96,-1.57,1.61,-1.56,1.63,-1.66,-1.98,-1.92,-3.23,-3.21,-3.18
420.12,-1.50,1.68,-1.52,1.67,-1.67,-2.00,-1.95,-3.17,-3.19,-3.18
424.32,-1.47,1.71,-1.48,1.70,-1.68,-2.02,-1.98,-3.15,-3.16,-3.18
428.56,-1.46,1.71,-1.47,1.71,-1.70,-2.03,-2.01,-3.16,-3.17,-3.17
432.85,-1.46,1.70,-1.45,1.71,-1.73,-2.05,-2.04,-3.19,-3.18,-3.16
437.18,-1.44,1.71,-1.41,1.74,-1.76,-2.06,-2.07,-3.20,-3.16,-3.15
441.55,-1.32,1.79,-1.34,1.78,-1.79,-2.08,-2.10,-3.11,-3.13,-3.11
445.96,-1.24,1.84,-1.26,1.83,-1.82,-2.10,-2.13,-3.06,-3.08,-3.08
450.42,-1.19,1.86,-1.18,1.87,-1.85,-2.11,-2.16,-3.04,-3.04,-3.05
454.93,-1.13,1.87,-1.11,1.90,-1.89,-2.13,-2.19,-3.02,-3.00,-3.00
459.48,-1.02,1.94,-1.03,1.93,-1.94,-2.14,-2.21,-2.96,-2.97,-2.96
464.07,-0.92,1.99,-0.94,1.97,-1.99,-2.16,-2.24,-2.91,-2.93,-2.91
