frequency,raw,error,smoothed,error_smoothed,equalization,parametric_eq,fixed_band_eq,equalized_raw,equalized_smoothed,target
20.00,-10.50,-19.69,-10.27,-19.47,19.47,18.16,9.48,8.97,9.19,9.19
20.20,-10.76,-19.95,-10.64,-19.83,19.83,18.49,9.65,9.07,9.19,9.19
20.40,-11.03,-20.22,-10.99,-20.18,20.18,18.84,9.82,9.15,9.19,9.19
20.61,-11.30,-20.49,-11.34,-20.53,20.53,19.21,10.00,9.23,9.19,9.19
20.81,-11.60,-20.78,-11.69,-20.87,20.87,19.59,10.17,9.27,9.19,9.18
21.02,-11.90,-21.08,-12.02,-21.21,21.21,19.99,10.36,9.31,9.18,9.18
21.23,-12.22,-21.40,-12.35,-21.54,21.54,20.41,10.54,9.32,9.18,9.18
21.44,-12.53,-21.72,-12.68,-21.86,21.86,20.86,10.74,9.33,9.18,9.19
21.66,-12.85,-22.03,-13.00,-22.17,22.17,21.32,10.93,9.32,9.18,9.18
21.87,-13.19,-22.37,-13.31,-22.48,22.48,21.81,11.14,9.29,9.17,9.18
22.09,-13.53,-22.70,-13.61,-22.78,22.78,22.32,11.34,9.25,9.17,9.17
22.31,-13.87,-23.04,-13.91,-23.08,23.08,22.85,11.56,9.21,9.17,9.17
22.54,-14.20,-23.36,-14.26,-23.42,23.42,23.41,11.77,9.21,9.16,9.16
22.76,-14.55,-23.71,-14.59,-23.75,23.75,23.98,12.00,9.20,9.16,9.16
22.99,-14.88,-24.03,-14.92,-24.07,24.07,24.56,12.23,9.19,9.15,9.15
23.22,-15.20,-24.34,-15.22,-24.37,24.37,25.13,12.47,9.17,9.15,9.14
23.45,-15.50,-24.64,-15.51,-24.65,24.65,25.70,12.72,9.15,9.14,9.14
23.69,-15.76,-24.89,-15.76,-24.89,24.89,26.21,12.97,9.13,9.13,9.13
23.92,-16.00,-25.12,-15.97,-25.10,25.10,26.66,13.23,9.10,9.13,9.12
24.16,-16.19,-25.31,-16.13,-25.26,25.26,26.99,13.50,9.07,9.12,9.12
24.40,-16.33,-25.45,-16.25,-25.37,25.37,27.17,13.78,9.04,9.12,9.12
24.65,-16.40,-25.52,-16.31,-25.42,25.42,27.19,14.07,9.03,9.12,9.12
24.89,-16.42,-25.54,-16.31,-25.42,25.42,27.02,14.37,9.00,9.11,9.12
25.14,-16.35,-25.46,-16.24,-25.35,25.35,26.70,14.68,9.01,9.11,9.11
25.39,-16.20,-25.30,-16.11,-25.22,25.22,26.24,15.00,9.02,9.11,9.10
25.65,-16.01,-25.11,-15.92,-25.03,25.03,25.68,15.33,9.02,9.11,9.10
25.91,-15.75,-24.85,-15.67,-24.78,24.78,25.07,15.67,9.03,9.11,9.10
26.16,-15.40,-24.51,-15.36,-24.47,24.47,24.43,16.03,9.07,9.11,9.11
26.43,-15.04,-24.15,-15.01,-24.11,24.11,23.78,16.40,9.07,9.11,9.11
26.69,-14.62,-23.73,-14.60,-23.71,23.71,23.13,16.78,9.09,9.11,9.11
26.96,-14.15,-23.25,-14.16,-23.27,23.27,22.51,17.17,9.11,9.10,9.10
27.23,-13.66,-22.76,-13.69,-22.79,22.79,21.90,17.58,9.13,9.10,9.10
27.50,-13.17,-22.27,-13.20,-22.30,22.30,21.32,18.01,9.13,9.10,9.10
27.77,-12.64,-21.75,-12.69,-21.78,21.78,20.76,18.44,9.14,9.10,9.11
28.05,-12.11,-21.22,-12.17,-21.26,21.26,20.23,18.89,9.15,9.10,9.10
28.33,-11.59,-20.68,-11.64,-20.73,20.73,19.73,19.35,9.14,9.09,9.09
28.62,-11.08,-20.16,-11.12,-20.20,20.20,19.25,19.81,9.13,9.09,9.08
28.90,-10.55,-19.65,-10.59,-19.68,19.68,18.79,20.27,9.12,9.08,9.09
29.19,-10.04,-19.12,-10.08,-19.16,19.16,18.34,20.71,9.12,9.08,9.08
29.48,-9.54,-18.61,-9.58,-18.65,18.65,17.91,21.14,9.10,9.07,9.07
29.78,-9.05,-18.11,-9.08,-18.15,18.15,17.49,21.54,9.09,9.07,9.06
30.08,-8.58,-17.65,-8.60,-17.66,17.66,17.07,21.88,9.07,9.06,9.06
30.38,-8.11,-17.16,-8.12,-17.18,17.18,16.66,22.16,9.07,9.06,9.05
30.68,-7.65,-16.69,-7.66,-16.71,16.71,16.25,22.34,9.06,9.05,9.04
30.99,-7.21,-16.25,-7.21,-16.26,16.26,15.84,22.42,9.05,9.05,9.04
31.30,-6.77,-15.81,-6.77,-15.81,15.81,15.43,22.38,9.04,9.05,9.04
31.61,-6.34,-15.38,-6.34,-15.38,15.38,15.02,22.23,9.04,9.04,9.04
31.93,-5.92,-14.95,-5.92,-14.96,14.96,14.60,21.96,9.03,9.04,9.03
32.24,-5.50,-14.54,-5.51,-14.54,14.54,14.19,21.61,9.04,9.04,9.04
32.57,-5.10,-14.13,-5.10,-14.14,14.14,13.77,21.18,9.04,9.03,9.03
32.89,-4.70,-13.73,-4.71,-13.74,13.74,13.36,20.69,9.03,9.03,9.03
33.22,-4.32,-13.35,-4.32,-13.35,13.35,12.96,20.16,9.03,9.02,9.03
33.55,-3.94,-12.96,-3.95,-12.96,12.96,12.56,19.61,9.02,9.02,9.02
33.89,-3.58,-12.59,-3.58,-12.58,12.58,12.16,19.04,9.01,9.01,9.01
34.23,-3.22,-12.21,-3.21,-12.21,12.21,11.78,18.47,8.99,9.00,8.99
34.57,-2.86,-11.85,-2.86,-11.84,11.84,11.40,17.91,8.98,8.98,8.99
34.92,-2.51,-11.48,-2.51,-11.48,11.48,11.03,17.35,8.97,8.97,8.97
35.27,-2.17,-11.13,-2.17,-11.12,11.12,10.68,16.80,8.95,8.95,8.96
35.62,-1.84,-10.77,-1.84,-10.76,10.76,10.33,16.26,8.92,8.93,8.93
35.97,-1.51,-10.42,-1.51,-10.41,10.41,9.98,15.73,8.90,8.90,8.91
36.33,-1.18,-10.06,-1.19,-10.06,10.06,9.65,15.22,8.88,8.88,8.88
36.70,-0.88,-9.73,-0.87,-9.72,9.72,9.33,14.71,8.84,8.85,8.85
37.06,-0.55,-9.37,-0.56,-9.38,9.38,9.01,14.22,8.83,8.82,8.82
37.43,-0.25,-9.04,-0.25,-9.05,9.05,8.70,13.75,8.79,8.79,8.79
37.81,0.05,-8.71,0.05,-8.72,8.72,8.40,13.28,8.77,8.76,8.76
38.19,0.33,-8.39,0.34,-8.39,8.39,8.10,12.82,8.72,8.73,8.72
38.57,0.62,-8.08,0.63,-8.07,8.07,7.81,12.37,8.69,8.70,8.70
38.95,0.92,-7.75,0.91,-7.76,7.76,7.52,11.93,8.67,8.67,8.67
39.34,1.20,-7.43,1.19,-7.45,7.45,7.25,11.50,8.65,8.64,8.63
39.74,1.46,-7.14,1.46,-7.15,7.15,6.97,11.08,8.61,8.61,8.60
40.14,1.73,-6.85,1.73,-6.85,6.85,6.70,10.67,8.58,8.58,8.58
40.54,1.98,-6.58,1.99,-6.56,6.56,6.44,10.26,8.54,8.56,8.56
40.94,2.25,-6.28,2.25,-6.28,6.28,6.18,9.86,8.53,8.53,8.53
41.35,2.50,-6.00,2.50,-6.00,6.00,5.93,9.46,8.51,8.50,8.50
41.76,2.76,-5.72,2.75,-5.73,5.73,5.68,9.07,8.49,8.48,8.47
42.18,2.99,-5.47,2.99,-5.46,5.46,5.43,8.68,8.46,8.46,8.46
42.60,3.23,-5.21,3.23,-5.20,5.20,5.19,8.30,8.43,8.43,8.43
43.03,3.46,-4.94,3.46,-4.94,4.94,4.95,7.92,8.41,8.41,8.40
43.46,3.69,-4.69,3.69,-4.69,4.69,4.72,7.54,8.39,8.38,8.38
43.90,3.92,-4.44,3.91,-4.44,4.44,4.48,7.17,8.36,8.36,8.36
44.33,4.13,-4.19,4.13,-4.20,4.20,4.26,6.80,8.33,8.33,8.32
44.78,4.34,-3.96,4.35,-3.95,3.95,4.03,6.43,8.30,8.30,8.30
45.23,4.55,-3.74,4.56,-3.71,3.71,3.81,6.07,8.26,8.27,8.29
45.68,4.76,-3.49,4.77,-3.48,3.48,3.59,5.70,8.24,8.24,8.25
46.13,4.97,-3.23,4.97,-3.24,3.24,3.37,5.34,8.22,8.21,8.20
46.60,5.16,-3.02,5.17,-3.01,3.01,3.16,4.98,8.17,8.17,8.18
47.06,5.36,-2.78,5.36,-2.77,2.77,2.95,4.62,8.14,8.14,8.14
47.53,5.55,-2.56,5.55,-2.54,2.54,2.74,4.26,8.10,8.10,8.11
48.01,5.73,-2.32,5.74,-2.32,2.32,2.53,3.90,8.05,8.05,8.05
48.49,5.92,-2.10,5.92,-2.09,2.09,2.33,3.54,8.01,8.01,8.02
48.97,6.10,-1.87,6.10,-1.87,1.87,2.13,3.18,7.97,7.97,7.97
49.46,6.27,-1.66,6.27,-1.65,1.65,1.93,2.83,7.93,7.92,7.93
49.96,6.44,-1.42,6.44,-1.44,1.44,1.73,2.47,7.88,7.88,7.86
50.46,6.60,-1.22,6.60,-1.23,1.23,1.54,2.12,7.83,7.83,7.82
50.96,6.76,-1.01,6.76,-1.02,1.02,1.35,1.77,7.78,7.78,7.77
51.47,6.92,-0.81,6.92,-0.82,0.82,1.16,1.41,7.74,7.74,7.73
51.99,7.07,-0.61,7.07,-0.62,0.62,0.97,1.07,7.69,7.69,7.68
52.51,7.22,-0.42,7.22,-0.42,0.42,0.78,0.72,7.64,7.64,7.64
53.03,7.36,-0.25,7.37,-0.23,0.23,0.60,0.37,7.59,7.59,7.61
53.56,7.50,-0.06,7.51,-0.04,0.04,0.42,0.03,7.54,7.55,7.56
54.10,7.64,0.14,7.64,0.14,-0.14,0.24,-0.30,7.50,7.50,7.50
54.64,7.77,0.31,7.78,0.32,-0.32,0.06,-0.64,7.45,7.46,7.46
55.18,7.91,0.51,7.91,0.50,-0.50,-0.12,-0.96,7.42,7.42,7.40
55.74,8.03,0.67,8.04,0.66,-0.66,-0.29,-1.28,7.37,7.37,7.36
56.29,8.16,0.84,8.16,0.83,-0.83,-0.46,-1.59,7.33,7.33,7.32
56.86,8.28,1.00,8.28,1.00,-1.00,-0.63,-1.89,7.28,7.28,7.28
57.42,8.40,1.18,8.40,1.16,-1.16,-0.80,-2.19,7.24,7.24,7.22
58.00,8.52,1.34,8.51,1.32,-1.32,-0.97,-2.47,7.20,7.19,7.18
58.58,8.63,1.48,8.62,1.48,-1.48,-1.13,-2.73,7.15,7.14,7.15
59.16,8.73,1.62,8.73,1.64,-1.64,-1.30,-2.99,7.09,7.09,7.11
59.76,8.83,1.76,8.84,1.80,-1.80,-1.46,-3.23,7.03,7.04,7.07
60.35,8.93,1.93,8.94,1.95,-1.95,-1.62,-3.45,6.98,6.99,7.00
60.96,9.03,2.08,9.04,2.10,-2.10,-1.78,-3.66,6.93,6.93,6.95
61.57,9.12,2.25,9.13,2.25,-2.25,-1.93,-3.85,6.87,6.88,6.87
62.18,9.21,2.40,9.22,2.40,-2.40,-2.09,-4.03,6.81,6.82,6.81
62.80,9.31,2.56,9.31,2.55,-2.55,-2.24,-4.18,6.77,6.76,6.75
63.43,9.39,2.71,9.39,2.69,-2.69,-2.39,-4.32,6.70,6.70,6.68
64.07,9.48,2.85,9.48,2.83,-2.83,-2.54,-4.44,6.65,6.65,6.63
64.71,9.56,2.98,9.56,2.97,-2.97,-2.69,-4.55,6.60,6.59,6.58
65.35,9.63,3.10,9.63,3.10,-3.10,-2.83,-4.64,6.53,6.53,6.53
66.01,9.71,3.24,9.71,3.23,-3.23,-2.98,-4.71,6.48,6.47,6.47
66.67,9.78,3.35,9.78,3.36,-3.36,-3.12,-4.77,6.42,6.42,6.43
67.33,9.84,3.48,9.85,3.49,-3.49,-3.26,-4.82,6.36,6.36,6.36
68.01,9.91,3.60,9.92,3.61,-3.61,-3.40,-4.86,6.30,6.31,6.31
68.69,9.98,3.73,9.98,3.73,-3.73,-3.54,-4.89,6.26,6.25,6.25
69.37,10.03,3.83,10.04,3.84,-3.84,-3.68,-4.90,6.19,6.20,6.20
70.07,10.09,3.94,10.10,3.96,-3.96,-3.81,-4.92,6.14,6.14,6.15
70.77,10.15,4.06,10.15,4.07,-4.07,-3.94,-4.92,6.08,6.08,6.09
71.48,10.21,4.18,10.21,4.18,-4.18,-4.07,-4.92,6.03,6.02,6.03
72.19,10.25,4.29,10.26,4.29,-4.29,-4.20,-4.92,5.96,5.97,5.96
72.91,10.31,4.40,10.31,4.40,-4.40,-4.33,-4.91,5.92,5.91,5.91
73.64,10.35,4.51,10.35,4.50,-4.50,-4.46,-4.91,5.85,5.85,5.84
74.38,10.39,4.61,10.40,4.60,-4.60,-4.58,-4.90,5.79,5.79,5.78
75.12,10.44,4.71,10.44,4.70,-4.70,-4.70,-4.89,5.74,5.74,5.73
75.87,10.48,4.79,10.48,4.80,-4.80,-4.83,-4.89,5.69,5.68,5.69
76.63,10.52,4.89,10.52,4.89,-4.89,-4.94,-4.88,5.63,5.63,5.63
77.40,10.55,4.98,10.56,4.98,-4.98,-5.06,-4.88,5.57,5.58,5.57
78.17,10.59,5.08,10.59,5.07,-5.07,-5.18,-4.88,5.53,5.52,5.51
78.95,10.61,5.13,10.62,5.15,-5.15,-5.29,-4.89,5.46,5.47,5.48
79.74,10.65,5.23,10.65,5.23,-5.23,-5.40,-4.90,5.42,5.42,5.42
80.54,10.67,5.31,10.68,5.31,-5.31,-5.52,-4.91,5.36,5.37,5.36
81.35,10.71,5.39,10.71,5.39,-5.39,-5.62,-4.92,5.32,5.32,5.32
82.16,10.73,5.46,10.73,5.47,-5.47,-5.73,-4.95,5.26,5.26,5.27
82.98,10.75,5.54,10.76,5.55,-5.55,-5.84,-4.97,5.21,5.21,5.21
83.81,10.78,5.62,10.78,5.62,-5.62,-5.94,-5.00,5.16,5.16,5.16
84.65,10.80,5.70,10.80,5.69,-5.69,-6.04,-5.04,5.11,5.11,5.10
85.50,10.81,5.76,10.82,5.77,-5.77,-6.14,-5.08,5.05,5.05,5.05
86.35,10.84,5.84,10.84,5.84,-5.84,-6.24,-5.13,5.01,5.00,5.00
87.22,10.85,5.90,10.86,5.91,-5.91,-6.34,-5.18,4.95,4.95,4.95
88.09,10.87,5.98,10.87,5.98,-5.98,-6.44,-5.23,4.90,4.89,4.89
88.97,10.88,6.04,10.88,6.04,-6.04,-6.53,-5.30,4.84,4.84,4.84
89.86,10.90,6.12,10.90,6.11,-6.11,-6.62,-5.37,4.79,4.78,4.78
90.76,10.90,6.18,10.91,6.18,-6.18,-6.71,-5.44,4.72,4.72,4.72
91.66,10.91,6.24,10.91,6.25,-6.25,-6.80,-5.52,4.66,4.66,4.67
92.58,10.92,6.31,10.92,6.32,-6.32,-6.89,-5.60,4.61,4.60,4.61
93.51,10.93,6.38,10.93,6.38,-6.38,-6.97,-5.69,4.55,4.54,4.55
94.44,10.93,6.44,10.93,6.45,-6.45,-7.05,-5.79,4.48,4.48,4.49
95.39,10.93,6.51,10.93,6.52,-6.52,-7.14,-5.89,4.41,4.41,4.42
96.34,10.93,6.58,10.93,6.59,-6.59,-7.22,-5.99,4.35,4.35,4.35
97.30,10.93,6.64,10.94,6.65,-6.65,-7.29,-6.10,4.28,4.28,4.29
98.28,10.93,6.73,10.93,6.72,-6.72,-7.37,-6.22,4.21,4.21,4.20
99.26,10.92,6.79,10.93,6.78,-6.78,-7.44,-6.34,4.14,4.15,4.13
100.25,10.93,6.86,10.93,6.85,-6.85,-7.52,-6.46,4.09,4.08,4.07
101.25,10.92,6.91,10.93,6.91,-6.91,-7.59,-6.59,4.01,4.02,4.01
102.27,10.92,6.97,10.92,6.97,-6.97,-7.66,-6.71,3.96,3.95,3.95
103.29,10.91,7.03,10.92,7.03,-7.03,-7.72,-6.85,3.89,3.89,3.88
104.32,10.91,7.08,10.91,7.08,-7.08,-7.79,-6.98,3.83,3.83,3.83
105.37,10.90,7.13,10.90,7.13,-7.13,-7.85,-7.12,3.77,3.77,3.77
106.42,10.89,7.18,10.89,7.18,-7.18,-7.92,-7.25,3.71,3.71,3.71
107.48,10.88,7.24,10.88,7.23,-7.23,-7.98,-7.39,3.65,3.65,3.64
108.56,10.87,7.28,10.87,7.28,-7.28,-8.04,-7.53,3.59,3.59,3.59
109.64,10.85,7.31,10.86,7.33,-7.33,-8.09,-7.67,3.53,3.53,3.54
110.74,10.84,7.37,10.84,7.37,-7.37,-8.15,-7.80,3.47,3.47,3.47
111.85,10.83,7.42,10.83,7.42,-7.42,-8.20,-7.93,3.41,3.41,3.41
112.97,10.81,7.46,10.81,7.47,-7.47,-8.25,-8.06,3.35,3.34,3.35
114.10,10.79,7.50,10.79,7.51,-7.51,-8.30,-8.18,3.28,3.28,3.29
115.24,10.76,7.54,10.77,7.56,-7.56,-8.35,-8.30,3.20,3.21,3.22
116.39,10.75,7.61,10.75,7.61,-7.61,-8.40,-8.41,3.15,3.15,3.14
117.55,10.73,7.65,10.73,7.65,-7.65,-8.44,-8.51,3.08,3.08,3.08
118.73,10.71,7.71,10.71,7.70,-7.70,-8.49,-8.60,3.01,3.01,3.00
119.92,10.68,7.75,10.69,7.75,-7.75,-8.53,-8.68,2.93,2.94,2.93
121.12,10.66,7.79,10.67,7.80,-7.80,-8.57,-8.76,2.86,2.87,2.87
122.33,10.64,7.85,10.64,7.85,-7.85,-8.61,-8.82,2.79,2.79,2.79
123.55,10.62,7.89,10.62,7.90,-7.90,-8.64,-8.87,2.72,2.72,2.73
124.79,10.59,7.93,10.59,7.95,-7.95,-8.68,-8.91,2.65,2.65,2.66
126.03,10.56,7.97,10.57,7.99,-7.99,-8.71,-8.94,2.57,2.57,2.59
127.29,10.54,8.04,10.54,8.04,-8.04,-8.75,-8.95,2.50,2.50,2.50
128.57,10.52,8.09,10.51,8.08,-8.08,-8.78,-8.96,2.44,2.43,2.43
129.85,10.48,8.13,10.49,8.12,-8.12,-8.80,-8.95,2.36,2.36,2.35
131.15,10.46,8.18,10.46,8.16,-8.16,-8.83,-8.94,2.30,2.29,2.28
132.46,10.42,8.21,10.43,8.20,-8.20,-8.86,-8.91,2.22,2.22,2.21
133.79,10.39,8.24,10.39,8.24,-8.24,-8.88,-8.87,2.16,2.16,2.15
135.12,10.36,8.28,10.36,8.27,-8.27,-8.90,-8.83,2.10,2.10,2.08
136.48,10.32,8.28,10.33,8.29,-8.29,-8.92,-8.78,2.03,2.04,2.04
137.84,10.29,8.31,10.30,8.32,-8.32,-8.94,-8.72,1.97,1.98,1.98
139.22,10.26,8.35,10.26,8.34,-8.34,-8.96,-8.66,1.92,1.92,1.91
140.61,10.22,8.35,10.23,8.36,-8.36,-8.98,-8.59,1.86,1.87,1.87
142.02,10.19,8.37,10.19,8.37,-8.37,-8.99,-8.52,1.82,1.82,1.82
143.44,10.15,8.39,10.15,8.38,-8.38,-9.01,-8.45,1.77,1.77,1.76
144.87,10.11,8.39,10.11,8.40,-8.40,-9.02,-8.38,1.72,1.72,1.72
146.32,10.07,8.40,10.08,8.40,-8.40,-9.03,-8.31,1.67,1.67,1.67
147.78,10.04,8.42,10.04,8.41,-8.41,-9.04,-8.23,1.63,1.62,1.62
149.26,10.00,8.42,10.00,8.42,-8.42,-9.05,-8.16,1.58,1.58,1.58
150.75,9.95,8.43,9.96,8.43,-8.43,-9.05,-8.09,1.52,1.53,1.52
152.26,9.92,8.43,9.92,8.44,-8.44,-9.06,-8.03,1.48,1.48,1.49
153.78,9.87,8.44,9.88,8.44,-8.44,-9.06,-7.96,1.43,1.43,1.43
155.32,9.83,8.44,9.83,8.45,-8.45,-9.06,-7.90,1.38,1.39,1.39
156.88,9.79,8.45,9.79,8.46,-8.46,-9.06,-7.84,1.34,1.34,1.34
158.44,9.75,8.46,9.75,8.46,-8.46,-9.06,-7.79,1.29,1.29,1.29
160.03,9.71,8.47,9.71,8.47,-8.47,-9.06,-7.74,1.24,1.23,1.24
161.63,9.66,8.47,9.66,8.48,-8.48,-9.06,-7.69,1.18,1.18,1.19
163.24,9.62,8.50,9.62,8.49,-8.49,-9.05,-7.65,1.14,1.13,1.12
164.88,9.57,8.49,9.57,8.49,-8.49,-9.05,-7.62,1.08,1.08,1.08
166.53,9.53,8.51,9.53,8.50,-8.50,-9.04,-7.59,1.03,1.03,1.02
168.19,9.48,8.50,9.49,8.51,-8.51,-9.03,-7.57,0.97,0.98,0.98
169.87,9.44,8.51,9.44,8.52,-8.52,-9.02,-7.55,0.92,0.92,0.93
171.57,9.39,8.53,9.40,8.53,-8.53,-9.01,-7.54,0.87,0.87,0.86
173.29,9.36,8.55,9.36,8.54,-8.54,-9.00,-7.53,0.83,0.82,0.81
175.02,9.31,8.54,9.31,8.54,-8.54,-8.98,-7.53,0.77,0.77,0.77
176.77,9.27,8.55,9.27,8.55,-8.55,-8.97,-7.54,0.72,0.72,0.72
178.54,9.23,8.56,9.24,8.57,-8.57,-8.95,-7.55,0.67,0.67,0.67
180.32,9.20,8.59,9.20,8.58,-8.58,-8.93,-7.56,0.62,0.62,0.61
182.13,9.15,8.58,9.16,8.59,-8.59,-8.92,-7.59,0.56,0.57,0.57
183.95,9.12,8.59,9.13,8.61,-8.61,-8.90,-7.62,0.51,0.52,0.53
185.79,9.10,8.63,9.10,8.63,-8.63,-8.88,-7.65,0.47,0.47,0.47
187.65,9.07,8.64,9.08,8.65,-8.65,-8.85,-7.69,0.42,0.42,0.43
189.52,9.04,8.66,9.05,8.68,-8.68,-8.83,-7.74,0.37,0.38,0.38
191.42,9.02,8.69,9.03,8.70,-8.70,-8.81,-7.79,0.33,0.33,0.33
193.33,9.00,8.72,9.01,8.72,-8.72,-8.78,-7.84,0.28,0.28,0.28
195.27,8.97,8.74,8.98,8.75,-8.75,-8.76,-7.91,0.23,0.24,0.23
197.22,8.96,8.78,8.96,8.77,-8.77,-8.73,-7.97,0.19,0.19,0.18
199.19,8.94,8.79,8.94,8.79,-8.79,-8.70,-8.04,0.15,0.15,0.15
201.18,8.92,8.82,8.92,8.81,-8.81,-8.67,-8.12,0.11,0.11,0.10
203.19,8.91,8.84,8.90,8.83,-8.83,-8.64,-8.19,0.08,0.07,0.07
205.23,8.88,8.85,8.88,8.85,-8.85,-8.61,-8.28,0.03,0.03,0.03
207.28,8.86,8.86,8.85,8.86,-8.86,-8.58,-8.36,0.00,-0.01,0.00
209.35,8.82,8.86,8.82,8.87,-8.87,-8.55,-8.45,-0.05,-0.05,-0.04
211.44,8.79,8.87,8.79,8.87,-8.87,-8.51,-8.53,-0.08,-0.08,-0.08
213.56,8.76,8.88,8.76,8.87,-8.87,-8.48,-8.62,-0.11,-0.11,-0.12
215.69,8.72,8.87,8.72,8.86,-8.86,-8.44,-8.71,-0.14,-0.15,-0.15
217.85,8.68,8.86,8.68,8.86,-8.86,-8.40,-8.80,-0.17,-0.18,-0.18
220.03,8.63,8.85,8.63,8.84,-8.84,-8.37,-8.88,-0.21,-0.21,-0.22
222.23,8.58,8.82,8.58,8.82,-8.82,-8.33,-8.97,-0.24,-0.24,-0.24
224.45,8.53,8.80,8.53,8.80,-8.80,-8.29,-9.05,-0.27,-0.27,-0.27
226.70,8.47,8.77,8.48,8.78,-8.78,-8.25,-9.12,-0.30,-0.30,-0.30
228.96,8.42,8.74,8.42,8.75,-8.75,-8.21,-9.19,-0.32,-0.32,-0.32
231.25,8.36,8.70,8.36,8.71,-8.71,-8.16,-9.26,-0.35,-0.35,-0.34
233.57,8.30,8.67,8.30,8.68,-8.68,-8.12,-9.31,-0.37,-0.37,-0.37
235.90,8.24,8.64,8.24,8.64,-8.64,-8.08,-9.36,-0.39,-0.39,-0.40
238.26,8.17,8.60,8.18,8.59,-8.59,-8.03,-9.39,-0.42,-0.41,-0.43
240.64,8.11,8.54,8.11,8.55,-8.55,-7.99,-9.42,-0.43,-0.43,-0.43
243.05,8.05,8.50,8.04,8.50,-8.50,-7.94,-9.43,-0.44,-0.45,-0.45
245.48,7.97,8.45,7.98,8.45,-8.45,-7.89,-9.43,-0.47,-0.47,-0.48
247.93,7.90,8.40,7.91,8.39,-8.39,-7.84,-9.42,-0.49,-0.49,-0.50
250.41,7.84,8.34,7.84,8.34,-8.34,-7.80,-9.40,-0.50,-0.50,-0.50
252.92,7.77,8.28,7.77,8.28,-8.28,-7.75,-9.36,-0.51,-0.51,-0.51
255.45,7.69,8.22,7.70,8.23,-8.23,-7.70,-9.31,-0.54,-0.53,-0.53
258.00,7.62,8.16,7.63,8.17,-8.17,-7.65,-9.25,-0.55,-0.54,-0.54
260.58,7.55,8.10,7.56,8.11,-8.11,-7.59,-9.18,-0.56,-0.56,-0.55
263.19,7.48,8.05,7.48,8.05,-8.05,-7.54,-9.09,-0.57,-0.57,-0.57
265.82,7.41,7.99,7.41,8.00,-8.00,-7.49,-8.99,-0.58,-0.58,-0.58
268.48,7.34,7.93,7.34,7.94,-7.94,-7.43,-8.89,-0.59,-0.60,-0.59
271.16,7.27,7.88,7.27,7.88,-7.88,-7.38,-8.77,-0.60,-0.61,-0.61
273.87,7.19,7.81,7.19,7.82,-7.82,-7.32,-8.65,-0.62,-0.62,-0.62
276.61,7.12,7.76,7.12,7.75,-7.75,-7.27,-8.52,-0.63,-0.63,-0.64
279.38,7.04,7.70,7.05,7.69,-7.69,-7.21,-8.38,-0.65,-0.65,-0.66
282.17,6.97,7.64,6.97,7.63,-7.63,-7.16,-8.24,-0.66,-0.66,-0.67
284.99,6.89,7.55,6.90,7.56,-7.56,-7.10,-8.09,-0.67,-0.67,-0.66
287.84,6.81,7.48,6.82,7.50,-7.50,-7.04,-7.94,-0.69,-0.68,-0.67
290.72,6.75,7.45,6.75,7.43,-7.43,-6.98,-7.79,-0.68,-0.69,-0.70
293.63,6.67,7.36,6.67,7.36,-7.36,-6.92,-7.64,-0.69,-0.69,-0.69
296.57,6.59,7.29,6.59,7.29,-7.29,-6.86,-7.49,-0.70,-0.70,-0.70
299.53,6.51,7.22,6.52,7.22,-7.22,-6.80,-7.34,-0.71,-0.71,-0.71
302.53,6.43,7.14,6.44,7.15,-7.15,-6.74,-7.18,-0.72,-0.71,-0.71
305.55,6.36,7.08,6.36,7.08,-7.08,-6.68,-7.03,-0.72,-0.72,-0.72
308.61,6.28,7.00,6.29,7.01,-7.01,-6.61,-6.88,-0.72,-0.72,-0.72
311.69,6.21,6.94,6.21,6.93,-6.93,-6.55,-6.74,-0.72,-0.73,-0.73
314.81,6.13,6.86,6.13,6.86,-6.86,-6.49,-6.59,-0.73,-0.73,-0.73
317.96,6.05,6.79,6.05,6.79,-6.79,-6.42,-6.45,-0.73,-0.73,-0.74
321.14,5.98,6.71,5.98,6.71,-6.71,-6.36,-6.31,-0.73,-0.74,-0.73
324.35,5.89,6.64,5.90,6.63,-6.63,-6.29,-6.18,-0.74,-0.74,-0.75
327.59,5.81,6.54,5.82,6.56,-6.56,-6.23,-6.05,-0.74,-0.74,-0.73
330.87,5.73,6.47,5.74,6.48,-6.48,-6.16,-5.92,-0.75,-0.74,-0.74
334.18,5.66,6.41,5.66,6.40,-6.40,-6.09,-5.79,-0.74,-0.74,-0.75
337.52,5.58,6.32,5.58,6.32,-6.32,-6.03,-5.67,-0.74,-0.74,-0.74
340.90,5.50,6.25,5.50,6.24,-6.24,-5.96,-5.55,-0.74,-0.74,-0.75
344.30,5.42,6.16,5.42,6.16,-6.16,-5.89,-5.44,-0.74,-0.74,-0.74
347.75,5.34,6.07,5.34,6.08,-6.08,-5.82,-5.33,-0.74,-0.74,-0.73
351.23,5.26,6.01,5.26,6.00,-6.00,-5.75,-5.23,-0.74,-0.74,-0.75
354.74,5.18,5.91,5.18,5.92,-5.92,-5.68,-5.12,-0.74,-0.74,-0.73
358.28,5.09,5.83,5.10,5.84,-5.84,-5.61,-5.03,-0.75,-0.74,-0.74
361.87,5.02,5.76,5.02,5.76,-5.76,-5.54,-4.93,-0.73,-0.74,-0.74
365.49,4.94,5.68,4.94,5.68,-5.68,-5.47,-4.84,-0.73,-0.74,-0.74
369.14,4.85,5.58,4.86,5.59,-5.59,-5.40,-4.76,-0.74,-0.74,-0.73
372.83,4.78,5.51,4.77,5.51,-5.51,-5.33,-4.67,-0.73,-0.74,-0.73
376.56,4.69,5.43,4.69,5.43,-5.43,-5.26,-4.60,-0.73,-0.74,-0.74
380.33,4.61,5.35,4.61,5.34,-5.34,-5.18,-4.52,-0.73,-0.73,-0.74
384.13,4.52,5.26,4.53,5.26,-5.26,-5.11,-4.45,-0.74,-0.74,-0.74
387.97,4.44,5.17,4.44,5.18,-5.18,-5.04,-4.38,-0.74,-0.74,-0.73
391.85,4.35,5.09,4.36,5.09,-5.09,-4.96,-4.31,-0.74,-0.73,-0.74
395.77,4.27,5.01,4.28,5.01,-5.01,-4.89,-4.25,-0.74,-0.73,-0.74
399.73,4.19,4.93,4.19,4.93,-4.93,-4.82,-4.19,-0.73,-0.73,-0.74
403.72,4.11,4.84,4.11,4.84,-4.84,-4.74,-4.13,-0.73,-0.73,-0.73
407.76,4.02,4.75,4.03,4.76,-4.76,-4.67,-4.07,-0.74,-0.73,-0.73
411.84,3.94,4.67,3.94,4.68,-4.68,-4.59,-4.02,-0.73,-0.73,-0.73
415.96,3.86,4.59,3.86,4.59,-4.59,-4.51,-3.97,-0.73,-0.73,-0.73
420.12,3.77,4.51,3.77,4.51,-4.51,-4.44,-3.92,-0.74,-0.73,-0.74
424.32,3.69,4.43,3.69,4.43,-4.43,-4.36,-3.87,-0.73,-0.74,-0.74
428.56,3.60,4.33,3.61,4.34,-4.34,-4.28,-3.82,-0.74,-0.74,-0.73
432.85,3.52,4.25,3.52,4.26,-4.26,-4.21,-3.78,-0.74,-0.74,-0.73
437.18,3.43,4.17,3.43,4.17,-4.17,-4.13,-3.73,-0.74,-0.74,-0.74
441.55,3.35,4.09,3.35,4.09,-4.09,-4.05,-3.69,-0.74,-0.74,-0.74
445.96,3.26,4.01,3.26,4.00,-4.00,-3.97,-3.64,-0.74,-0.74,-0.75
450.42,3.17,3.92,3.18,3.92,-3.92,-3.90,-3.60,-0.75,-0.74,-0.75
454.93,3.09,3.84,3.09,3.83,-3.83,-3.82,-3.55,-0.74,-0.74,-0.75
459.48,3.00,3.75,3.00,3.75,-3.75,-3.74,-3.51,-0.74,-0.74,-0.75
464.07,2.91,3.65,2.92,3.66,-3.66,-3.66,-3.46,-0.75,-0.74,-0.74
468.71,2.83,3.57,2.83,3.58,-3.58,-3.58,-3.41,-0.74,-0.74,-0.74
473.40,2.74,3.48,2.74,3.49,-3.49,-3.50,-3.36,-0.74,-0.74,-0.74
478.13,2.65,3.39,2.66,3.40,-3.40,-3.42,-3.31,-0.75,-0.74,-0.74
