frequency,raw,error,smoothed,error_smoothed,equalization,parametric_eq,fixed_band_eq,equalized_raw,equalized_smoothed,target
20.00,0.97,-2.53,0.81,-2.71,2.71,2.89,0.50,3.68,3.52,3.49
20.20,0.94,-2.61,0.83,-2.73,2.73,2.85,0.51,3.66,3.56,3.54
20.40,0.91,-2.69,0.86,-2.73,2.73,2.82,0.53,3.64,3.60,3.59
20.61,0.88,-2.74,0.89,-2.74,2.74,2.78,0.54,3.62,3.63,3.62
20.81,0.86,-2.81,0.92,-2.73,2.73,2.74,0.56,3.59,3.66,3.67
21.02,0.83,-2.88,0.96,-2.73,2.73,2.70,0.58,3.56,3.68,3.71
21.23,0.88,-2.85,1.00,-2.71,2.71,2.66,0.60,3.59,3.71,3.73
21.44,0.92,-2.83,1.04,-2.70,2.70,2.62,0.61,3.62,3.73,3.75
21.66,0.97,-2.80,1.08,-2.67,2.67,2.58,0.63,3.64,3.75,3.77
21.87,1.01,-2.77,1.13,-2.64,2.64,2.54,0.65,3.65,3.77,3.78
22.09,1.09,-2.71,1.17,-2.61,2.61,2.50,0.67,3.70,3.79,3.80
22.31,1.20,-2.61,1.23,-2.57,2.57,2.46,0.69,3.77,3.80,3.81
22.54,1.31,-2.50,1.31,-2.50,2.50,2.42,0.71,3.80,3.80,3.81
22.76,1.42,-2.39,1.38,-2.42,2.42,2.38,0.73,3.84,3.81,3.81
22.99,1.53,-2.27,1.46,-2.35,2.35,2.34,0.75,3.88,3.81,3.80
23.22,1.60,-2.20,1.53,-2.29,2.29,2.30,0.78,3.88,3.81,3.80
23.45,1.66,-2.14,1.59,-2.22,2.22,2.27,0.80,3.88,3.81,3.80
23.69,1.73,-2.08,1.64,-2.17,2.17,2.23,0.82,3.89,3.81,3.80
23.92,1.79,-2.01,1.70,-2.11,2.11,2.19,0.85,3.90,3.81,3.80
24.16,1.80,-2.01,1.75,-2.06,2.06,2.15,0.87,3.86,3.81,3.81
24.40,1.79,-2.03,1.80,-2.01,2.01,2.11,0.89,3.80,3.81,3.82
24.65,1.77,-2.04,1.84,-1.97,1.97,2.07,0.92,3.74,3.81,3.81
24.89,1.76,-2.05,1.88,-1.93,1.93,2.03,0.94,3.69,3.81,3.81
25.14,1.80,-2.01,1.92,-1.89,1.89,1.99,0.97,3.69,3.81,3.81
25.39,1.88,-1.94,1.96,-1.85,1.85,1.96,0.99,3.73,3.81,3.82
25.65,1.97,-1.85,2.00,-1.81,1.81,1.92,1.02,3.78,3.81,3.82
25.91,2.05,-1.76,2.04,-1.77,1.77,1.88,1.04,3.82,3.81,3.81
26.16,2.11,-1.69,2.07,-1.74,1.74,1.84,1.07,3.85,3.81,3.80
26.43,2.17,-1.64,2.08,-1.72,1.72,1.81,1.09,3.89,3.81,3.80
26.69,2.22,-1.58,2.09,-1.71,1.71,1.77,1.12,3.93,3.81,3.80
26.96,2.27,-1.54,2.11,-1.69,1.69,1.73,1.14,3.96,3.80,3.81
27.23,2.26,-1.55,2.14,-1.66,1.66,1.70,1.17,3.92,3.80,3.81
27.50,2.23,-1.58,2.19,-1.61,1.61,1.66,1.19,3.84,3.80,3.81
27.77,2.21,-1.59,2.23,-1.56,1.56,1.63,1.21,3.77,3.80,3.80
28.05,2.19,-1.61,2.28,-1.52,1.52,1.59,1.23,3.71,3.80,3.79
28.33,2.17,-1.61,2.31,-1.48,1.48,1.56,1.25,3.65,3.79,3.78
28.62,2.16,-1.62,2.35,-1.44,1.44,1.52,1.27,3.60,3.79,3.78
28.90,2.14,-1.65,2.40,-1.39,1.39,1.49,1.29,3.53,3.79,3.79
29.19,2.30,-1.48,2.46,-1.33,1.33,1.46,1.31,3.63,3.79,3.78
29.48,2.55,-1.25,2.53,-1.26,1.26,1.42,1.32,3.81,3.79,3.80
29.78,2.80,-0.99,2.60,-1.18,1.18,1.39,1.33,3.98,3.78,3.78
30.08,2.96,-0.84,2.69,-1.10,1.10,1.36,1.34,4.05,3.78,3.79
30.38,2.90,-0.88,2.77,-1.01,1.01,1.33,1.35,3.91,3.78,3.78
30.68,2.84,-0.94,2.84,-0.94,0.94,1.29,1.36,3.78,3.78,3.78
30.99,2.78,-1.00,2.88,-0.89,0.89,1.26,1.37,3.67,3.78,3.78
31.30,2.88,-0.90,2.91,-0.87,0.87,1.23,1.37,3.74,3.77,3.77
31.61,2.99,-0.78,2.93,-0.84,0.84,1.20,1.37,3.83,3.77,3.77
31.93,3.09,-0.68,2.96,-0.81,0.81,1.17,1.37,3.90,3.77,3.77
32.24,3.09,-0.67,2.98,-0.78,0.78,1.14,1.37,3.87,3.76,3.76
32.57,3.05,-0.71,2.98,-0.78,0.78,1.11,1.37,3.82,3.76,3.76
32.89,3.00,-0.76,2.98,-0.77,0.77,1.08,1.36,3.77,3.75,3.76
33.22,2.92,-0.83,2.98,-0.77,0.77,1.05,1.36,3.68,3.75,3.75
33.55,2.81,-0.94,3.00,-0.74,0.74,1.03,1.35,3.55,3.74,3.74
33.89,2.70,-1.03,3.03,-0.71,0.71,1.00,1.34,3.41,3.74,3.73
34.23,2.83,-0.91,3.06,-0.67,0.67,0.97,1.33,3.50,3.73,3.74
34.57,3.09,-0.63,3.08,-0.64,0.64,0.94,1.32,3.73,3.73,3.72
34.92,3.35,-0.37,3.10,-0.62,0.62,0.92,1.30,3.96,3.72,3.72
35.27,3.34,-0.38,3.12,-0.60,0.60,0.89,1.29,3.93,3.72,3.72
35.62,3.25,-0.46,3.14,-0.57,0.57,0.86,1.28,3.82,3.71,3.71
35.97,3.16,-0.55,3.17,-0.54,0.54,0.84,1.26,3.70,3.71,3.71
36.33,3.20,-0.51,3.20,-0.51,0.51,0.81,1.24,3.71,3.71,3.71
36.70,3.25,-0.45,3.24,-0.47,0.47,0.79,1.23,3.72,3.71,3.70
37.06,3.29,-0.41,3.27,-0.44,0.44,0.76,1.21,3.72,3.71,3.69
37.43,3.29,-0.42,3.30,-0.40,0.40,0.74,1.20,3.69,3.71,3.71
37.81,3.29,-0.42,3.32,-0.39,0.39,0.71,1.18,3.67,3.70,3.70
38.19,3.28,-0.42,3.32,-0.38,0.38,0.69,1.16,3.66,3.70,3.70
38.57,3.25,-0.46,3.32,-0.38,0.38,0.66,1.15,3.63,3.70,3.70
38.95,3.22,-0.49,3.34,-0.37,0.37,0.64,1.13,3.58,3.70,3.71
39.34,3.31,-0.39,3.37,-0.33,0.33,0.62,1.11,3.64,3.70,3.70
39.74,3.42,-0.28,3.40,-0.30,0.30,0.59,1.10,3.72,3.70,3.70
40.14,3.49,-0.21,3.41,-0.29,0.29,0.57,1.08,3.77,3.70,3.70
40.54,3.49,-0.21,3.41,-0.28,0.28,0.55,1.07,3.77,3.69,3.69
40.94,3.49,-0.20,3.42,-0.27,0.27,0.53,1.06,3.76,3.69,3.69
41.35,3.49,-0.19,3.43,-0.26,0.26,0.50,1.04,3.75,3.68,3.68
41.76,3.49,-0.18,3.44,-0.23,0.23,0.48,1.03,3.72,3.67,3.67
42.18,3.49,-0.19,3.46,-0.20,0.20,0.46,1.02,3.69,3.66,3.68
42.60,3.49,-0.17,3.48,-0.17,0.17,0.44,1.01,3.66,3.65,3.66
43.03,3.48,-0.17,3.50,-0.14,0.14,0.42,1.00,3.62,3.64,3.65
43.46,3.39,-0.25,3.50,-0.13,0.13,0.40,0.99,3.52,3.63,3.64
43.90,3.30,-0.31,3.49,-0.13,0.13,0.38,0.98,3.43,3.61,3.61
44.33,3.38,-0.21,3.49,-0.11,0.11,0.36,0.97,3.49,3.60,3.59
44.78,3.52,-0.06,3.51,-0.08,0.08,0.34,0.97,3.60,3.59,3.57
45.23,3.61,0.04,3.53,-0.04,0.04,0.32,0.96,3.65,3.57,3.56
45.68,3.66,0.11,3.54,-0.01,0.01,0.30,0.95,3.67,3.55,3.54
46.13,3.66,0.13,3.56,0.02,-0.02,0.28,0.95,3.64,3.54,3.52
46.60,3.57,0.05,3.57,0.05,-0.05,0.26,0.95,3.52,3.52,3.52
47.06,3.49,-0.01,3.57,0.07,-0.07,0.25,0.94,3.42,3.50,3.50
47.53,3.49,-0.00,3.56,0.07,-0.07,0.23,0.94,3.41,3.49,3.49
48.01,3.49,0.00,3.56,0.09,-0.09,0.21,0.94,3.40,3.47,3.49
48.49,3.62,0.15,3.56,0.10,-0.10,0.19,0.94,3.51,3.45,3.47
48.97,3.74,0.29,3.54,0.10,-0.10,0.18,0.94,3.64,3.44,3.44
49.46,3.59,0.17,3.50,0.07,-0.07,0.16,0.94,3.51,3.42,3.42
49.96,3.41,0.01,3.46,0.05,-0.05,0.14,0.94,3.36,3.41,3.40
50.46,3.35,-0.04,3.42,0.03,-0.03,0.13,0.94,3.32,3.39,3.39
50.96,3.30,-0.08,3.38,0.01,-0.01,0.11,0.94,3.29,3.38,3.38
51.47,3.25,-0.10,3.33,-0.03,0.03,0.10,0.94,3.28,3.36,3.35
51.99,3.19,-0.15,3.26,-0.09,0.09,0.08,0.95,3.28,3.35,3.33
52.51,3.25,-0.08,3.18,-0.14,0.14,0.07,0.95,3.39,3.33,3.33
53.03,3.30,-0.02,3.10,-0.21,0.21,0.05,0.95,3.51,3.31,3.32
53.56,3.09,-0.22,3.01,-0.29,0.29,0.04,0.95,3.37,3.30,3.30
54.10,2.92,-0.37,2.92,-0.37,0.37,0.03,0.95,3.29,3.28,3.29
54.64,2.92,-0.35,2.83,-0.44,0.44,0.02,0.96,3.36,3.27,3.27
55.18,2.86,-0.40,2.77,-0.49,0.49,0.00,0.96,3.35,3.26,3.26
55.74,2.66,-0.58,2.71,-0.53,0.53,-0.01,0.96,3.19,3.24,3.24
56.29,2.48,-0.75,2.65,-0.57,0.57,-0.02,0.96,3.05,3.22,3.23
56.86,2.32,-0.88,2.60,-0.61,0.61,-0.03,0.96,2.93,3.21,3.20
57.42,2.41,-0.76,2.54,-0.64,0.64,-0.04,0.96,3.05,3.19,3.17
58.00,2.58,-0.58,2.49,-0.67,0.67,-0.05,0.96,3.25,3.16,3.16
58.58,2.41,-0.74,2.43,-0.71,0.71,-0.06,0.96,3.11,3.14,3.15
59.16,2.32,-0.80,2.38,-0.73,0.73,-0.06,0.95,3.05,3.11,3.12
59.76,2.42,-0.68,2.35,-0.73,0.73,-0.07,0.95,3.15,3.08,3.10
60.35,2.45,-0.60,2.30,-0.74,0.74,-0.08,0.94,3.19,3.04,3.05
60.96,2.43,-0.58,2.24,-0.76,0.76,-0.08,0.94,3.19,3.00,3.01
61.57,2.34,-0.63,2.19,-0.77,0.77,-0.09,0.93,3.11,2.96,2.97
62.18,2.24,-0.68,2.15,-0.76,0.76,-0.09,0.92,3.00,2.92,2.92
62.80,2.10,-0.77,2.11,-0.76,0.76,-0.09,0.91,2.86,2.87,2.87
63.43,2.00,-0.82,2.06,-0.77,0.77,-0.09,0.90,2.77,2.83,2.82
64.07,1.93,-0.84,2.01,-0.77,0.77,-0.09,0.89,2.70,2.78,2.77
64.71,1.89,-0.83,1.98,-0.75,0.75,-0.09,0.87,2.64,2.73,2.72
65.35,1.88,-0.79,1.96,-0.71,0.71,-0.09,0.86,2.59,2.67,2.67
66.01,1.88,-0.74,1.95,-0.67,0.67,-0.08,0.84,2.55,2.62,2.62
66.67,1.76,-0.81,1.95,-0.62,0.62,-0.07,0.82,2.38,2.57,2.56
67.33,1.82,-0.69,1.97,-0.55,0.55,-0.06,0.80,2.37,2.51,2.51
68.01,2.07,-0.40,2.00,-0.46,0.46,-0.05,0.78,2.53,2.46,2.46
68.69,2.04,-0.37,2.04,-0.36,0.36,-0.04,0.76,2.40,2.40,2.41
69.37,2.09,-0.26,2.09,-0.26,0.26,-0.02,0.74,2.35,2.35,2.35
70.07,2.19,-0.10,2.13,-0.16,0.16,-0.00,0.72,2.35,2.29,2.29
70.77,2.26,0.02,2.16,-0.07,0.07,0.02,0.69,2.32,2.23,2.24
71.48,2.23,0.05,2.18,0.01,-0.01,0.05,0.67,2.21,2.16,2.18
72.19,2.19,0.08,2.19,0.08,-0.08,0.08,0.65,2.11,2.10,2.10
72.91,2.24,0.20,2.17,0.13,-0.13,0.12,0.62,2.10,2.04,2.04
73.64,2.23,0.25,2.14,0.17,-0.17,0.16,0.59,2.06,1.98,1.98
74.38,2.13,0.22,2.09,0.18,-0.18,0.21,0.57,1.95,1.91,1.91
75.12,1.97,0.12,2.01,0.16,-0.16,0.26,0.54,1.81,1.85,1.85
75.87,1.88,0.10,1.89,0.10,-0.10,0.32,0.52,1.77,1.79,1.78
76.63,1.74,0.02,1.77,0.04,-0.04,0.39,0.49,1.70,1.73,1.72
77.40,1.59,-0.07,1.61,-0.05,0.05,0.47,0.46,1.64,1.66,1.66
78.17,1.44,-0.15,1.44,-0.17,0.17,0.56,0.44,1.61,1.60,1.59
78.95,1.29,-0.26,1.24,-0.31,0.31,0.65,0.41,1.59,1.55,1.55
79.74,1.06,-0.43,1.02,-0.46,0.46,0.77,0.38,1.52,1.49,1.49
80.54,0.81,-0.63,0.78,-0.65,0.65,0.89,0.36,1.46,1.43,1.44
81.35,0.55,-0.82,0.51,-0.87,0.87,1.04,0.33,1.42,1.38,1.37
82.16,0.29,-1.03,0.22,-1.10,1.10,1.20,0.30,1.39,1.32,1.32
82.98,-0.06,-1.33,-0.08,-1.34,1.34,1.38,0.28,1.28,1.26,1.27
83.81,-0.35,-1.56,-0.39,-1.60,1.60,1.58,0.25,1.24,1.21,1.20
84.65,-0.66,-1.81,-0.71,-1.86,1.86,1.80,0.22,1.20,1.15,1.15
85.50,-1.00,-2.10,-1.04,-2.13,2.13,2.05,0.20,1.13,1.09,1.10
86.35,-1.36,-2.40,-1.38,-2.41,2.41,2.33,0.17,1.05,1.03,1.04
87.22,-1.71,-2.69,-1.71,-2.68,2.68,2.63,0.14,0.97,0.98,0.98
88.09,-2.06,-2.98,-2.03,-2.95,2.95,2.95,0.12,0.89,0.92,0.92
88.97,-2.47,-3.33,-2.34,-3.20,3.20,3.29,0.09,0.73,0.86,0.86
89.86,-2.72,-3.52,-2.64,-3.44,3.44,3.63,0.07,0.72,0.80,0.80
90.76,-2.92,-3.66,-2.93,-3.67,3.67,3.97,0.04,0.74,0.74,0.73
91.66,-3.12,-3.80,-3.19,-3.87,3.87,4.28,0.02,0.75,0.68,0.68
92.58,-3.35,-3.96,-3.42,-4.04,4.04,4.55,-0.01,0.69,0.62,0.61
93.51,-3.59,-4.14,-3.61,-4.17,4.17,4.74,-0.03,0.58,0.56,0.55
94.44,-3.79,-4.29,-3.76,-4.26,4.26,4.83,-0.06,0.47,0.50,0.50
95.39,-3.88,-4.32,-3.86,-4.29,4.29,4.80,-0.08,0.41,0.44,0.44
96.34,-3.95,-4.33,-3.91,-4.29,4.29,4.67,-0.11,0.34,0.38,0.38
97.30,-4.05,-4.37,-3.92,-4.25,4.25,4.43,-0.13,0.20,0.32,0.32
98.28,-4.06,-4.33,-3.89,-4.16,4.16,4.12,-0.16,0.10,0.27,0.27
99.26,-4.00,-4.21,-3.82,-4.03,4.03,3.76,-0.18,0.03,0.21,0.21
100.25,-3.84,-3.99,-3.72,-3.87,3.87,3.37,-0.21,0.03,0.15,0.15
101.25,-3.65,-3.74,-3.58,-3.67,3.67,2.97,-0.23,0.02,0.09,0.09
102.27,-3.33,-3.37,-3.40,-3.43,3.43,2.58,-0.25,0.10,0.03,0.04
103.29,-3.06,-3.03,-3.19,-3.16,3.16,2.20,-0.28,0.10,-0.02,-0.03
104.32,-2.83,-2.75,-2.95,-2.87,2.87,1.85,-0.30,0.04,-0.08,-0.08
105.37,-2.65,-2.52,-2.71,-2.56,2.56,1.52,-0.33,-0.09,-0.14,-0.14
106.42,-2.44,-2.25,-2.45,-2.24,2.24,1.21,-0.35,-0.20,-0.21,-0.19
107.48,-2.19,-1.93,-2.18,-1.92,1.92,0.93,-0.38,-0.27,-0.27,-0.26
108.56,-1.85,-1.52,-1.92,-1.59,1.59,0.67,-0.40,-0.26,-0.33,-0.33
109.64,-1.60,-1.21,-1.65,-1.26,1.26,0.43,-0.43,-0.35,-0.39,-0.39
110.74,-1.39,-0.94,-1.37,-0.92,0.92,0.20,-0.45,-0.47,-0.45,-0.45
111.85,-1.08,-0.58,-1.11,-0.59,0.59,-0.01,-0.47,-0.49,-0.51,-0.50
112.97,-0.84,-0.26,-0.85,-0.28,0.28,-0.20,-0.50,-0.57,-0.57,-0.58
114.10,-0.64,-0.01,-0.60,0.04,-0.04,-0.38,-0.52,-0.68,-0.63,-0.64
115.24,-0.43,0.26,-0.35,0.34,-0.34,-0.56,-0.55,-0.77,-0.69,-0.69
116.39,-0.13,0.63,-0.10,0.64,-0.64,-0.73,-0.57,-0.77,-0.74,-0.76
117.55,0.12,0.92,0.13,0.93,-0.93,-0.89,-0.60,-0.81,-0.80,-0.80
118.73,0.32,1.18,0.35,1.20,-1.20,-1.05,-0.62,-0.88,-0.85,-0.86
119.92,0.62,1.51,0.56,1.46,-1.46,-1.20,-0.64,-0.84,-0.89,-0.89
121.12,0.94,1.88,0.75,1.69,-1.69,-1.36,-0.67,-0.76,-0.94,-0.95
122.33,1.06,2.05,0.94,1.92,-1.92,-1.52,-0.69,-0.87,-0.99,-0.99
123.55,1.14,2.16,1.11,2.14,-2.14,-1.69,-0.72,-1.00,-1.03,-1.02
124.79,1.24,2.30,1.28,2.35,-2.35,-1.86,-0.74,-1.11,-1.07,-1.06
126.03,1.39,2.49,1.44,2.55,-2.55,-2.04,-0.77,-1.16,-1.11,-1.11
127.29,1.50,2.64,1.56,2.71,-2.71,-2.23,-0.79,-1.21,-1.15,-1.14
128.57,1.63,2.81,1.68,2.87,-2.87,-2.43,-0.82,-1.24,-1.19,-1.19
129.85,1.75,2.97,1.78,3.01,-3.01,-2.65,-0.84,-1.26,-1.22,-1.23
131.15,1.85,3.11,1.87,3.13,-3.13,-2.86,-0.87,-1.28,-1.26,-1.26
132.46,1.95,3.25,1.95,3.25,-3.25,-3.08,-0.89,-1.30,-1.30,-1.30
133.79,1.99,3.33,2.01,3.35,-3.35,-3.29,-0.92,-1.36,-1.34,-1.34
135.12,2.10,3.48,2.06,3.43,-3.43,-3.48,-0.95,-1.33,-1.37,-1.38
136.48,2.15,3.56,2.10,3.51,-3.51,-3.63,-0.97,-1.36,-1.41,-1.41
137.84,2.21,3.66,2.13,3.57,-3.57,-3.73,-1.00,-1.36,-1.45,-1.45
139.22,2.01,3.50,2.13,3.61,-3.61,-3.77,-1.03,-1.60,-1.48,-1.50
140.61,1.98,3.52,2.11,3.63,-3.63,-3.75,-1.06,-1.65,-1.52,-1.54
142.02,2.19,3.75,2.06,3.62,-3.62,-3.69,-1.08,-1.43,-1.56,-1.56
143.44,2.03,3.63,1.99,3.59,-3.59,-3.60,-1.11,-1.57,-1.60,-1.60
144.87,1.93,3.58,1.90,3.55,-3.55,-3.48,-1.14,-1.62,-1.65,-1.65
146.32,1.83,3.53,1.78,3.48,-3.48,-3.36,-1.18,-1.65,-1.70,-1.70
147.78,1.66,3.39,1.63,3.39,-3.39,-3.24,-1.21,-1.73,-1.76,-1.73
149.26,1.47,3.26,1.44,3.26,-3.26,-3.13,-1.24,-1.80,-1.82,-1.79
150.75,1.29,3.15,1.21,3.10,-3.10,-3.04,-1.27,-1.81,-1.89,-1.87
152.26,1.06,3.00,0.94,2.90,-2.90,-2.96,-1.31,-1.84,-1.96,-1.94
153.78,0.86,2.87,0.66,2.69,-2.69,-2.89,-1.34,-1.83,-2.03,-2.01
155.32,0.58,2.67,0.38,2.49,-2.49,-2.83,-1.38,-1.91,-2.11,-2.10
156.88,0.28,2.46,0.11,2.30,-2.30,-2.79,-1.42,-2.02,-2.19,-2.18
158.44,0.03,2.30,-0.13,2.13,-2.13,-2.76,-1.46,-2.10,-2.26,-2.27
160.03,-0.27,2.09,-0.31,2.03,-2.03,-2.73,-1.50,-2.30,-2.34,-2.36
161.63,-0.66,1.78,-0.44,1.97,-1.97,-2.72,-1.54,-2.63,-2.41,-2.44
163.24,-0.92,1.58,-0.51,1.97,-1.97,-2.71,-1.58,-2.89,-2.48,-2.50
164.88,-1.17,1.39,-0.53,2.01,-2.01,-2.71,-1.63,-3.18,-2.54,-2.56
166.53,-1.19,1.42,-0.51,2.09,-2.09,-2.72,-1.68,-3.28,-2.60,-2.62
168.19,-0.89,1.77,-0.44,2.20,-2.20,-2.73,-1.72,-3.09,-2.64,-2.66
169.87,-0.53,2.17,-0.35,2.33,-2.33,-2.74,-1.77,-2.86,-2.68,-2.71
171.57,-0.12,2.61,-0.23,2.49,-2.49,-2.76,-1.82,-2.61,-2.71,-2.73
173.29,0.25,3.00,-0.07,2.67,-2.67,-2.79,-1.87,-2.42,-2.74,-2.75
175.02,0.56,3.32,0.09,2.85,-2.85,-2.82,-1.93,-2.29,-2.76,-2.76
176.77,0.73,3.51,0.25,3.03,-3.03,-2.85,-1.98,-2.30,-2.78,-2.78
178.54,0.83,3.62,0.41,3.20,-3.20,-2.89,-2.04,-2.37,-2.79,-2.79
180.32,0.78,3.57,0.56,3.36,-3.36,-2.93,-2.10,-2.58,-2.80,-2.79
182.13,0.72,3.51,0.66,3.47,-3.47,-2.97,-2.16,-2.75,-2.81,-2.79
183.95,0.65,3.45,0.72,3.54,-3.54,-3.02,-2.22,-2.89,-2.82,-2.80
185.79,0.59,3.40,0.73,3.56,-3.56,-3.07,-2.28,-2.98,-2.83,-2.81
187.65,0.56,3.39,0.70,3.55,-3.55,-3.12,-2.34,-2.99,-2.85,-2.84
189.52,0.63,3.48,0.65,3.51,-3.51,-3.18,-2.41,-2.88,-2.86,-2.85
191.42,0.57,3.44,0.59,3.46,-3.46,-3.23,-2.48,-2.90,-2.88,-2.87
193.33,0.45,3.35,0.53,3.42,-3.42,-3.29,-2.54,-2.98,-2.90,-2.90
195.27,0.44,3.36,0.47,3.39,-3.39,-3.35,-2.61,-2.95,-2.92,-2.92
197.22,0.44,3.38,0.44,3.38,-3.38,-3.40,-2.68,-2.94,-2.94,-2.94
199.19,0.36,3.33,0.42,3.38,-3.38,-3.45,-2.75,-3.02,-2.96,-2.97
201.18,0.33,3.32,0.41,3.40,-3.40,-3.50,-2.83,-3.07,-2.99,-2.99
203.19,0.37,3.38,0.40,3.41,-3.41,-3.54,-2.90,-3.05,-3.01,-3.01
205.23,0.39,3.43,0.39,3.43,-3.43,-3.58,-2.97,-3.05,-3.04,-3.04
207.28,0.39,3.44,0.39,3.45,-3.45,-3.61,-3.04,-3.06,-3.06,-3.05
209.35,0.39,3.47,0.38,3.46,-3.46,-3.63,-3.11,-3.08,-3.08,-3.08
211.44,0.39,3.50,0.36,3.47,-3.47,-3.64,-3.18,-3.08,-3.11,-3.11
213.56,0.38,3.50,0.36,3.48,-3.48,-3.64,-3.25,-3.10,-3.12,-3.12
215.69,0.38,3.52,0.35,3.49,-3.49,-3.63,-3.32,-3.11,-3.14,-3.14
217.85,0.43,3.58,0.32,3.48,-3.48,-3.61,-3.39,-3.05,-3.15,-3.15
220.03,0.36,3.53,0.29,3.46,-3.46,-3.59,-3.46,-3.10,-3.17,-3.17
222.23,0.29,3.48,0.27,3.44,-3.44,-3.56,-3.52,-3.16,-3.18,-3.19
224.45,0.27,3.46,0.24,3.42,-3.42,-3.52,-3.58,-3.15,-3.18,-3.19
226.70,0.21,3.40,0.21,3.39,-3.39,-3.48,-3.64,-3.18,-3.18,-3.19
228.96,0.17,3.35,0.19,3.37,-3.37,-3.44,-3.70,-3.20,-3.18,-3.18
231.25,0.10,3.27,0.17,3.35,-3.35,-3.40,-3.75,-3.25,-3.18,-3.18
233.57,0.10,3.27,0.16,3.33,-3.33,-3.36,-3.79,-3.23,-3.17,-3.17
235.90,0.14,3.30,0.17,3.32,-3.32,-3.31,-3.84,-3.18,-3.16,-3.16
238.26,0.10,3.25,0.17,3.31,-3.31,-3.27,-3.87,-3.22,-3.14,-3.15
240.64,0.03,3.16,0.19,3.31,-3.31,-3.24,-3.91,-3.28,-3.12,-3.13
243.05,0.20,3.30,0.21,3.32,-3.32,-3.20,-3.93,-3.12,-3.11,-3.10
245.48,0.29,3.37,0.24,3.33,-3.33,-3.16,-3.96,-3.04,-3.09,-3.08
247.93,0.28,3.33,0.28,3.34,-3.34,-3.13,-3.97,-3.06,-3.06,-3.05
250.41,0.38,3.42,0.31,3.36,-3.36,-3.10,-3.98,-2.98,-3.04,-3.04
252.92,0.43,3.44,0.35,3.37,-3.37,-3.07,-3.99,-2.94,-3.02,-3.01
255.45,0.45,3.44,0.38,3.38,-3.38,-3.05,-3.99,-2.93,-3.00,-2.99
258.00,0.45,3.42,0.41,3.39,-3.39,-3.03,-3.98,-2.94,-2.98,-2.97
260.58,0.46,3.42,0.43,3.39,-3.39,-3.00,-3.97,-2.93,-2.95,-2.96
263.19,0.46,3.38,0.45,3.38,-3.38,-2.98,-3.96,-2.93,-2.93,-2.92
265.82,0.46,3.37,0.47,3.38,-3.38,-2.97,-3.94,-2.92,-2.91,-2.91
268.48,0.46,3.35,0.48,3.36,-3.36,-2.95,-3.91,-2.90,-2.88,-2.89
271.16,0.45,3.30,0.47,3.33,-3.33,-2.93,-3.88,-2.88,-2.86,-2.86
273.87,0.45,3.29,0.47,3.30,-3.30,-2.92,-3.85,-2.85,-2.84,-2.84
276.61,0.45,3.26,0.46,3.27,-3.27,-2.91,-3.81,-2.82,-2.81,-2.81
279.38,0.45,3.23,0.45,3.24,-3.24,-2.90,-3.77,-2.79,-2.79,-2.79
282.17,0.45,3.21,0.44,3.20,-3.20,-2.89,-3.73,-2.76,-2.76,-2.76
284.99,0.46,3.19,0.44,3.17,-3.17,-2.88,-3.68,-2.71,-2.73,-2.73
287.84,0.46,3.17,0.44,3.14,-3.14,-2.87,-3.64,-2.68,-2.70,-2.71
290.72,0.47,3.15,0.43,3.11,-3.11,-2.86,-3.59,-2.64,-2.68,-2.68
293.63,0.40,3.05,0.44,3.09,-3.09,-2.86,-3.54,-2.69,-2.65,-2.65
296.57,0.40,3.02,0.44,3.06,-3.06,-2.85,-3.49,-2.66,-2.62,-2.62
299.53,0.41,3.00,0.45,3.04,-3.04,-2.85,-3.44,-2.63,-2.59,-2.59
302.53,0.42,3.00,0.45,3.02,-3.02,-2.84,-3.39,-2.60,-2.57,-2.58
305.55,0.43,2.96,0.44,2.99,-2.99,-2.84,-3.34,-2.56,-2.54,-2.53
308.61,0.44,2.96,0.44,2.96,-2.96,-2.83,-3.29,-2.52,-2.52,-2.52
311.69,0.45,2.94,0.43,2.93,-2.93,-2.83,-3.24,-2.48,-2.50,-2.49
314.81,0.45,2.91,0.42,2.89,-2.89,-2.83,-3.19,-2.45,-2.48,-2.47
317.96,0.46,2.91,0.40,2.86,-2.86,-2.82,-3.14,-2.40,-2.46,-2.45
321.14,0.46,2.90,0.39,2.83,-2.83,-2.82,-3.10,-2.37,-2.44,-2.44
324.35,0.45,2.88,0.37,2.80,-2.80,-2.82,-3.05,-2.35,-2.42,-2.43
327.59,0.37,2.78,0.36,2.77,-2.77,-2.82,-3.01,-2.40,-2.41,-2.41
330.87,0.31,2.71,0.35,2.74,-2.74,-2.82,-2.97,-2.44,-2.40,-2.40
334.18,0.26,2.65,0.33,2.71,-2.71,-2.82,-2.93,-2.46,-2.39,-2.39
337.52,0.25,2.63,0.31,2.69,-2.69,-2.81,-2.89,-2.44,-2.38,-2.38
340.90,0.25,2.61,0.29,2.66,-2.66,-2.81,-2.86,-2.41,-2.37,-2.36
344.30,0.24,2.59,0.27,2.63,-2.63,-2.81,-2.83,-2.39,-2.36,-2.36
347.75,0.24,2.60,0.25,2.61,-2.61,-2.81,-2.80,-2.37,-2.36,-2.36
351.23,0.25,2.60,0.23,2.58,-2.58,-2.81,-2.77,-2.33,-2.35,-2.35
354.74,0.25,2.60,0.21,2.56,-2.56,-2.81,-2.74,-2.31,-2.35,-2.35
358.28,0.25,2.59,0.19,2.54,-2.54,-2.81,-2.72,-2.29,-2.35,-2.35
361.87,0.24,2.59,0.18,2.53,-2.53,-2.81,-2.69,-2.29,-2.35,-2.35
365.49,0.18,2.52,0.17,2.52,-2.52,-2.81,-2.67,-2.34,-2.35,-2.34
369.14,0.17,2.52,0.17,2.51,-2.51,-2.81,-2.65,-2.34,-2.35,-2.35
372.83,0.14,2.49,0.16,2.50,-2.50,-2.81,-2.64,-2.37,-2.35,-2.35
376.56,0.10,2.45,0.14,2.50,-2.50,-2.81,-2.62,-2.40,-2.35,-2.36
380.33,0.09,2.44,0.13,2.49,-2.49,-2.81,-2.61,-2.40,-2.36,-2.35
384.13,0.10,2.45,0.13,2.49,-2.49,-2.81,-2.60,-2.39,-2.36,-2.35
387.97,0.11,2.47,0.12,2.48,-2.48,-2.81,-2.59,-2.37,-2.36,-2.36
391.85,0.11,2.48,0.11,2.47,-2.47,-2.81,-2.59,-2.37,-2.37,-2.37
395.77,0.11,2.47,0.09,2.47,-2.47,-2.81,-2.58,-2.36,-2.38,-2.37
399.73,0.11,2.49,0.08,2.47,-2.47,-2.81,-2.58,-2.36,-2.38,-2.38
403.72,0.11,2.49,0.08,2.47,-2.47,-2.81,-2.58,-2.36,-2.39,-2.38
407.76,0.10,2.49,0.08,2.47,-2.47,-2.81,-2.58,-2.37,-2.39,-2.39
411.84,0.10,2.49,0.07,2.47,-2.47,-2.81,-2.58,-2.37,-2.39,-2.39
415.96,0.10,2.49,0.07,2.46,-2.46,-2.81,-2.58,-2.37,-2.40,-2.39
420.12,0.10,2.49,0.07,2.46,-2.46,-2.81,-2.58,-2.36,-2.39,-2.39
424.32,0.04,2.43,0.06,2.45,-2.45,-2.81,-2.58,-2.41,-2.39,-2.39
428.56,0.02,2.40,0.06,2.44,-2.44,-2.81,-2.59,-2.42,-2.38,-2.39
432.85,0.03,2.41,0.07,2.43,-2.43,-2.81,-2.59,-2.40,-2.36,-2.38
437.18,0.06,2.43,0.08,2.42,-2.42,-2.81,-2.60,-2.36,-2.34,-2.37
441.55,0.10,2.43,0.10,2.41,-2.41,-2.81,-2.60,-2.32,-2.32,-2.33
445.96,0.13,2.43,0.12,2.41,-2.41,-2.81,-2.60,-2.28,-2.29,-2.30
450.42,0.11,2.38,0.15,2.40,-2.40,-2.81,-2.61,-2.29,-2.25,-2.27
454.93,0.15,2.37,0.19,2.40,-2.40,-2.81,-2.61,-2.25,-2.21,-2.22
459.48,0.21,2.38,0.23,2.40,-2.40,-2.81,-2.61,-2.19,-2.17,-2.17
464.07,0.27,2.39,0.28,2.40,-2.40,-2.81,-2.61,-2.13,-2.12,-2.12
468.71,0.32,2.38,0.33,2.40,-2.40,-2.81,-2.61,-2.08,-2.07,-2.06
473.40,0.39,2.41,0.38,2.40,-2.40,-2.81,-2.61,-2.01,-2.02,-2.03
478.13,0.44,2.40,0.42,2.40,-2.40,-2.81,-2.61,-1.96,-1.98,-1.97
482.91,0.49,2.42,0.46,2.39,-2.39,-2.81,-2.60,-1.90,-1.93,-1.93
487.74,0.53,2.42,0.49,2.38,-2.38,-2.81,-2.60,-1.85,-1.89,-1.89
492.62,0.56,2.40,0.52,2.38,-2.38,-2.81,-2.59,-1.82,-1.85,-1.84
497.55,0.59,2.41,0.55,2.37,-2.37,-2.81,-2.58,-1.79,-1.82,-1.82
502.52,0.61,2.40,0.57,2.37,-2.37,-2.81,-2.57,-1.76,-1.80,-1.79
507.55,0.56,2.34,0.58,2.37,-2.37,-2.81,-2.55,-1.81,-1.79,-1.78
