frequency,raw,error,smoothed,error_smoothed,equalization,parametric_eq,fixed_band_eq,equalized_raw,equalized_smoothed,target
20.00,3.49,-2.84,3.49,-2.84,2.84,2.37,0.44,6.33,6.33,6.33
20.20,3.54,-2.78,3.54,-2.79,2.78,2.35,0.46,6.32,6.32,6.32
20.40,3.58,-2.73,3.58,-2.73,2.73,2.32,0.47,6.31,6.31,6.31
20.61,3.62,-2.68,3.62,-2.67,2.68,2.30,0.49,6.30,6.30,6.30
20.81,3.67,-2.61,3.67,-2.62,2.62,2.28,0.51,6.29,6.29,6.28
21.02,3.71,-2.56,3.71,-2.56,2.57,2.25,0.52,6.28,6.28,6.27
21.23,3.75,-2.51,3.75,-2.51,2.52,2.23,0.54,6.27,6.27,6.26
21.44,3.80,-2.47,3.80,-2.47,2.46,2.20,0.56,6.26,6.26,6.27
21.66,3.84,-2.41,3.84,-2.41,2.41,2.18,0.58,6.25,6.25,6.25
21.87,3.89,-2.36,3.89,-2.36,2.35,2.15,0.60,6.24,6.24,6.25
22.09,3.93,-2.30,3.93,-2.30,2.30,2.13,0.62,6.23,6.23,6.23
22.31,3.98,-2.24,3.98,-2.24,2.24,2.10,0.65,6.22,6.22,6.22
22.54,4.03,-2.18,4.03,-2.18,2.19,2.07,0.67,6.22,6.22,6.21
22.76,4.08,-2.13,4.08,-2.13,2.14,2.04,0.69,6.22,6.22,6.21
22.99,4.13,-2.07,4.13,-2.08,2.09,2.02,0.71,6.22,6.21,6.20
23.22,4.17,-2.02,4.17,-2.03,2.04,1.99,0.74,6.21,6.20,6.19
23.45,4.20,-2.00,4.20,-1.99,1.99,1.96,0.76,6.19,6.19,6.20
23.69,4.24,-1.95,4.24,-1.95,1.94,1.93,0.79,6.18,6.18,6.19
23.92,4.29,-1.89,4.29,-1.90,1.89,1.90,0.81,6.18,6.18,6.18
24.16,4.34,-1.85,4.34,-1.84,1.84,1.87,0.84,6.18,6.18,6.19
24.40,4.40,-1.79,4.40,-1.79,1.79,1.84,0.86,6.19,6.19,6.19
24.65,4.45,-1.73,4.45,-1.74,1.74,1.81,0.89,6.19,6.19,6.18
24.89,4.50,-1.68,4.50,-1.68,1.69,1.78,0.91,6.19,6.19,6.18
25.14,4.54,-1.63,4.54,-1.63,1.64,1.75,0.94,6.18,6.18,6.17
25.39,4.58,-1.59,4.58,-1.59,1.59,1.72,0.96,6.17,6.17,6.17
25.65,4.62,-1.55,4.62,-1.55,1.54,1.68,0.99,6.16,6.16,6.17
25.91,4.67,-1.50,4.67,-1.50,1.49,1.65,1.02,6.16,6.16,6.17
26.16,4.73,-1.45,4.73,-1.45,1.44,1.62,1.04,6.17,6.17,6.18
26.43,4.78,-1.39,4.78,-1.39,1.40,1.58,1.06,6.18,6.18,6.17
26.69,4.83,-1.34,4.83,-1.34,1.35,1.55,1.09,6.18,6.18,6.17
26.96,4.87,-1.30,4.87,-1.30,1.31,1.52,1.11,6.18,6.18,6.17
27.23,4.91,-1.26,4.91,-1.27,1.27,1.48,1.13,6.18,6.18,6.17
27.50,4.94,-1.23,4.94,-1.23,1.24,1.45,1.15,6.17,6.18,6.17
27.77,4.97,-1.21,4.97,-1.20,1.20,1.41,1.17,6.17,6.18,6.18
28.05,5.01,-1.16,5.01,-1.17,1.17,1.38,1.18,6.18,6.18,6.17
28.33,5.04,-1.14,5.04,-1.14,1.14,1.34,1.20,6.18,6.18,6.18
28.62,5.07,-1.11,5.07,-1.11,1.11,1.30,1.21,6.18,6.18,6.18
28.90,5.11,-1.08,5.11,-1.08,1.07,1.27,1.22,6.18,6.18,6.19
29.19,5.15,-1.04,5.15,-1.04,1.03,1.23,1.23,6.18,6.18,6.19
29.48,5.19,-0.99,5.19,-0.99,0.99,1.19,1.23,6.18,6.18,6.18
29.78,5.24,-0.94,5.24,-0.94,0.95,1.15,1.24,6.19,6.18,6.18
30.08,5.28,-0.90,5.28,-0.89,0.91,1.11,1.24,6.19,6.19,6.18
30.38,5.32,-0.84,5.32,-0.85,0.87,1.07,1.23,6.19,6.18,6.16
30.68,5.35,-0.81,5.35,-0.82,0.83,1.03,1.23,6.18,6.18,6.16
30.99,5.37,-0.79,5.37,-0.79,0.79,0.99,1.22,6.16,6.16,6.16
31.30,5.40,-0.76,5.40,-0.76,0.75,0.95,1.20,6.15,6.15,6.16
31.61,5.42,-0.73,5.43,-0.73,0.71,0.91,1.19,6.13,6.14,6.15
31.93,5.46,-0.67,5.46,-0.68,0.67,0.87,1.17,6.13,6.13,6.13
32.24,5.50,-0.64,5.50,-0.63,0.63,0.83,1.15,6.13,6.13,6.14
32.57,5.54,-0.58,5.54,-0.59,0.59,0.79,1.12,6.13,6.13,6.12
32.89,5.58,-0.54,5.58,-0.54,0.54,0.75,1.09,6.12,6.13,6.12
33.22,5.62,-0.49,5.62,-0.49,0.50,0.71,1.06,6.12,6.12,6.11
33.55,5.66,-0.45,5.66,-0.45,0.46,0.66,1.03,6.12,6.12,6.11
33.89,5.68,-0.42,5.68,-0.42,0.43,0.62,0.99,6.11,6.11,6.10
34.23,5.70,-0.38,5.70,-0.39,0.40,0.58,0.95,6.10,6.09,6.08
34.57,5.71,-0.37,5.71,-0.37,0.36,0.53,0.91,6.07,6.07,6.08
34.92,5.73,-0.33,5.73,-0.34,0.33,0.49,0.86,6.06,6.06,6.06
35.27,5.76,-0.32,5.76,-0.31,0.29,0.44,0.81,6.05,6.05,6.08
35.62,5.80,-0.25,5.80,-0.26,0.25,0.40,0.76,6.05,6.05,6.05
35.97,5.83,-0.22,5.83,-0.22,0.21,0.35,0.71,6.04,6.04,6.05
36.33,5.87,-0.16,5.87,-0.16,0.17,0.31,0.66,6.04,6.03,6.03
36.70,5.90,-0.11,5.90,-0.11,0.12,0.26,0.61,6.02,6.02,6.01
37.06,5.93,-0.06,5.93,-0.06,0.07,0.21,0.55,6.00,6.00,5.99
37.43,5.96,-0.01,5.96,-0.02,0.02,0.17,0.50,5.98,5.98,5.97
37.81,5.98,0.02,5.98,0.03,-0.03,0.12,0.44,5.95,5.95,5.96
38.19,6.01,0.08,6.01,0.07,-0.08,0.07,0.38,5.93,5.93,5.93
38.57,6.03,0.12,6.03,0.12,-0.13,0.03,0.32,5.90,5.91,5.91
38.95,6.06,0.16,6.06,0.17,-0.17,-0.02,0.26,5.89,5.89,5.90
39.34,6.09,0.22,6.09,0.22,-0.22,-0.07,0.20,5.87,5.87,5.87
39.74,6.12,0.28,6.12,0.27,-0.27,-0.12,0.14,5.85,5.85,5.84
40.14,6.14,0.32,6.14,0.32,-0.31,-0.17,0.08,5.83,5.83,5.82
40.54,6.15,0.35,6.15,0.35,-0.34,-0.22,0.01,5.81,5.81,5.80
40.94,6.16,0.39,6.16,0.38,-0.37,-0.26,-0.05,5.79,5.79,5.77
41.35,6.17,0.41,6.17,0.41,-0.40,-0.31,-0.11,5.77,5.76,5.76
41.76,6.17,0.44,6.17,0.43,-0.43,-0.36,-0.18,5.74,5.74,5.73
42.18,6.17,0.45,6.17,0.45,-0.46,-0.41,-0.24,5.71,5.71,5.72
42.60,6.17,0.48,6.17,0.48,-0.49,-0.46,-0.31,5.68,5.68,5.69
43.03,6.18,0.51,6.18,0.51,-0.53,-0.51,-0.37,5.65,5.65,5.67
43.46,6.20,0.57,6.20,0.56,-0.57,-0.56,-0.44,5.63,5.63,5.63
43.90,6.23,0.62,6.23,0.62,-0.62,-0.62,-0.51,5.61,5.61,5.61
44.33,6.26,0.68,6.26,0.67,-0.67,-0.67,-0.57,5.59,5.59,5.58
44.78,6.29,0.73,6.29,0.73,-0.73,-0.72,-0.64,5.56,5.56,5.56
45.23,6.32,0.78,6.32,0.79,-0.79,-0.77,-0.71,5.53,5.53,5.54
45.68,6.35,0.86,6.35,0.85,-0.85,-0.82,-0.77,5.50,5.50,5.49
46.13,6.38,0.92,6.38,0.92,-0.92,-0.87,-0.84,5.46,5.46,5.46
46.60,6.41,0.99,6.41,0.98,-0.98,-0.92,-0.91,5.43,5.42,5.42
47.06,6.43,1.04,6.43,1.05,-1.05,-0.98,-0.98,5.38,5.39,5.39
47.53,6.46,1.11,6.46,1.11,-1.11,-1.03,-1.05,5.35,5.35,5.35
48.01,6.48,1.18,6.48,1.17,-1.17,-1.08,-1.12,5.31,5.31,5.30
48.49,6.49,1.23,6.49,1.23,-1.22,-1.13,-1.19,5.27,5.27,5.26
48.97,6.50,1.29,6.50,1.28,-1.28,-1.19,-1.26,5.22,5.22,5.21
49.46,6.50,1.32,6.50,1.33,-1.32,-1.24,-1.33,5.18,5.18,5.18
49.96,6.50,1.38,6.50,1.37,-1.37,-1.29,-1.40,5.13,5.13,5.12
50.46,6.50,1.41,6.50,1.41,-1.41,-1.35,-1.47,5.09,5.09,5.09
50.96,6.49,1.44,6.49,1.45,-1.45,-1.40,-1.54,5.04,5.05,5.05
51.47,6.49,1.48,6.49,1.48,-1.48,-1.45,-1.61,5.01,5.01,5.01
51.99,6.49,1.53,6.49,1.52,-1.52,-1.51,-1.68,4.97,4.97,4.96
52.51,6.49,1.56,6.49,1.56,-1.56,-1.56,-1.75,4.93,4.93,4.93
53.03,6.49,1.59,6.49,1.60,-1.60,-1.61,-1.81,4.89,4.89,4.90
53.56,6.49,1.64,6.49,1.64,-1.64,-1.67,-1.88,4.85,4.85,4.85
54.10,6.49,1.69,6.49,1.68,-1.68,-1.72,-1.95,4.81,4.81,4.80
54.64,6.49,1.73,6.49,1.73,-1.72,-1.77,-2.02,4.77,4.77,4.76
55.18,6.49,1.77,6.49,1.77,-1.77,-1.83,-2.08,4.72,4.72,4.72
55.74,6.49,1.82,6.49,1.81,-1.81,-1.88,-2.15,4.68,4.68,4.67
56.29,6.49,1.84,6.49,1.84,-1.85,-1.93,-2.21,4.64,4.64,4.65
56.86,6.49,1.88,6.49,1.88,-1.88,-1.99,-2.27,4.61,4.61,4.61
57.42,6.49,1.93,6.49,1.92,-1.92,-2.04,-2.33,4.57,4.57,4.56
58.00,6.49,1.97,6.49,1.96,-1.96,-2.09,-2.39,4.53,4.53,4.52
58.58,6.49,2.00,6.49,2.00,-2.00,-2.15,-2.44,4.49,4.49,4.49
59.16,6.49,2.03,6.49,2.03,-2.04,-2.20,-2.49,4.45,4.45,4.46
59.76,6.49,2.08,6.49,2.08,-2.09,-2.25,-2.54,4.40,4.40,4.41
60.35,6.49,2.13,6.49,2.13,-2.14,-2.31,-2.59,4.35,4.35,4.36
60.96,6.49,2.19,6.49,2.19,-2.19,-2.36,-2.64,4.30,4.30,4.30
61.57,6.49,2.25,6.49,2.25,-2.25,-2.41,-2.68,4.24,4.24,4.24
62.18,6.49,2.31,6.49,2.31,-2.30,-2.47,-2.72,4.19,4.19,4.18
62.80,6.49,2.37,6.49,2.37,-2.36,-2.52,-2.76,4.13,4.13,4.12
63.43,6.49,2.42,6.49,2.42,-2.41,-2.57,-2.80,4.08,4.08,4.07
64.07,6.49,2.47,6.49,2.47,-2.47,-2.63,-2.83,4.02,4.02,4.02
64.71,6.49,2.52,6.49,2.52,-2.52,-2.68,-2.86,3.97,3.97,3.97
65.35,6.49,2.58,6.49,2.57,-2.58,-2.73,-2.89,3.91,3.91,3.91
66.01,6.49,2.63,6.49,2.63,-2.63,-2.78,-2.92,3.86,3.86,3.86
66.67,6.49,2.67,6.49,2.68,-2.68,-2.84,-2.94,3.81,3.81,3.82
67.33,6.49,2.74,6.49,2.73,-2.73,-2.89,-2.96,3.76,3.76,3.75
68.01,6.49,2.79,6.49,2.79,-2.78,-2.94,-2.99,3.71,3.71,3.70
68.69,6.49,2.84,6.49,2.84,-2.84,-2.99,-3.01,3.65,3.65,3.65
69.37,6.49,2.89,6.49,2.89,-2.90,-3.04,-3.03,3.59,3.59,3.60
70.07,6.49,2.95,6.49,2.95,-2.95,-3.10,-3.04,3.54,3.54,3.54
70.77,6.49,3.02,6.49,3.01,-3.01,-3.15,-3.06,3.48,3.48,3.47
71.48,6.49,3.07,6.49,3.07,-3.07,-3.20,-3.08,3.42,3.42,3.42
72.19,6.49,3.13,6.49,3.13,-3.13,-3.25,-3.10,3.36,3.36,3.36
72.91,6.49,3.20,6.49,3.19,-3.19,-3.30,-3.12,3.30,3.30,3.29
73.64,6.49,3.25,6.49,3.25,-3.25,-3.35,-3.14,3.24,3.24,3.24
74.38,6.49,3.31,6.49,3.31,-3.30,-3.40,-3.15,3.19,3.19,3.18
75.12,6.49,3.36,6.49,3.36,-3.36,-3.45,-3.17,3.13,3.13,3.13
75.87,6.49,3.41,6.49,3.41,-3.41,-3.50,-3.20,3.08,3.08,3.08
76.63,6.49,3.47,6.49,3.46,-3.46,-3.55,-3.22,3.03,3.03,3.02
77.40,6.49,3.51,6.49,3.51,-3.51,-3.60,-3.24,2.98,2.98,2.98
78.17,6.49,3.57,6.49,3.56,-3.56,-3.65,-3.27,2.93,2.93,2.92
78.95,6.49,3.61,6.49,3.61,-3.61,-3.70,-3.29,2.88,2.88,2.88
79.74,6.49,3.66,6.49,3.66,-3.66,-3.75,-3.32,2.83,2.83,2.83
80.54,6.49,3.71,6.49,3.71,-3.71,-3.79,-3.36,2.78,2.78,2.78
81.35,6.49,3.77,6.49,3.76,-3.76,-3.84,-3.39,2.73,2.73,2.72
82.16,6.49,3.80,6.49,3.81,-3.81,-3.89,-3.43,2.68,2.68,2.69
82.98,6.49,3.86,6.49,3.86,-3.86,-3.94,-3.46,2.63,2.63,2.63
83.81,6.49,3.91,6.49,3.91,-3.91,-3.98,-3.51,2.58,2.58,2.58
84.65,6.49,3.97,6.49,3.97,-3.97,-4.03,-3.55,2.52,2.52,2.52
85.50,6.49,4.03,6.49,4.02,-4.02,-4.08,-3.60,2.47,2.47,2.46
86.35,6.49,4.08,6.49,4.08,-4.08,-4.12,-3.64,2.41,2.41,2.41
87.22,6.49,4.13,6.49,4.13,-4.13,-4.17,-3.70,2.36,2.36,2.36
88.09,6.49,4.19,6.49,4.19,-4.19,-4.22,-3.75,2.30,2.30,2.30
88.97,6.49,4.25,6.49,4.24,-4.25,-4.26,-3.81,2.24,2.24,2.24
89.86,6.49,4.30,6.49,4.31,-4.31,-4.31,-3.87,2.18,2.18,2.19
90.76,6.50,4.37,6.50,4.37,-4.37,-4.35,-3.93,2.13,2.13,2.13
91.66,6.50,4.44,6.50,4.43,-4.43,-4.39,-4.00,2.07,2.07,2.06
92.58,6.51,4.50,6.51,4.49,-4.49,-4.44,-4.07,2.02,2.02,2.01
93.51,6.51,4.55,6.51,4.55,-4.55,-4.48,-4.14,1.96,1.96,1.96
94.44,6.50,4.60,6.50,4.60,-4.60,-4.53,-4.22,1.90,1.90,1.90
95.39,6.49,4.66,6.49,4.65,-4.65,-4.57,-4.29,1.84,1.83,1.83
96.34,6.47,4.71,6.47,4.70,-4.70,-4.61,-4.37,1.77,1.77,1.76
97.30,6.44,4.74,6.44,4.75,-4.74,-4.65,-4.45,1.70,1.70,1.70
98.28,6.42,4.79,6.42,4.78,-4.78,-4.70,-4.54,1.64,1.64,1.63
99.26,6.39,4.82,6.39,4.82,-4.81,-4.74,-4.62,1.58,1.58,1.57
100.25,6.36,4.85,6.36,4.85,-4.84,-4.78,-4.71,1.52,1.52,1.51
101.25,6.33,4.87,6.33,4.87,-4.87,-4.82,-4.80,1.46,1.46,1.46
102.27,6.30,4.90,6.30,4.90,-4.90,-4.86,-4.89,1.40,1.40,1.40
103.29,6.27,4.93,6.27,4.92,-4.92,-4.90,-4.99,1.35,1.35,1.34
104.32,6.24,4.95,6.24,4.95,-4.95,-4.94,-5.08,1.29,1.29,1.29
105.37,6.21,4.98,6.21,4.98,-4.98,-4.98,-5.17,1.23,1.23,1.23
106.42,6.19,5.01,6.19,5.01,-5.02,-5.02,-5.26,1.17,1.17,1.18
107.48,6.17,5.05,6.17,5.05,-5.06,-5.06,-5.36,1.11,1.11,1.12
108.56,6.16,5.09,6.16,5.09,-5.10,-5.10,-5.45,1.06,1.06,1.07
109.64,6.16,5.15,6.16,5.15,-5.15,-5.13,-5.54,1.01,1.01,1.01
110.74,6.16,5.21,6.16,5.21,-5.21,-5.17,-5.62,0.95,0.95,0.95
111.85,6.16,5.27,6.16,5.26,-5.26,-5.21,-5.71,0.90,0.90,0.89
112.97,6.16,5.32,6.16,5.32,-5.32,-5.24,-5.79,0.84,0.84,0.84
114.10,6.16,5.38,6.16,5.38,-5.37,-5.28,-5.87,0.79,0.78,0.78
115.24,6.14,5.44,6.14,5.43,-5.42,-5.32,-5.94,0.72,0.72,0.70
116.39,6.12,5.48,6.12,5.48,-5.47,-5.35,-6.01,0.65,0.65,0.64
117.55,6.09,5.51,6.09,5.51,-5.50,-5.39,-6.08,0.59,0.59,0.58
118.73,6.07,5.55,6.07,5.54,-5.54,-5.42,-6.13,0.53,0.53,0.52
119.92,6.04,5.56,6.04,5.56,-5.56,-5.46,-6.19,0.48,0.47,0.48
121.12,6.01,5.58,6.01,5.58,-5.59,-5.49,-6.23,0.42,0.42,0.43
122.33,5.98,5.61,5.98,5.61,-5.62,-5.52,-6.27,0.36,0.37,0.37
123.55,5.96,5.64,5.96,5.64,-5.64,-5.56,-6.30,0.32,0.32,0.32
124.79,5.94,5.67,5.94,5.67,-5.67,-5.59,-6.33,0.27,0.27,0.27
126.03,5.91,5.70,5.91,5.70,-5.69,-5.62,-6.34,0.22,0.22,0.21
127.29,5.88,5.72,5.88,5.72,-5.72,-5.65,-6.35,0.16,0.16,0.16
128.57,5.85,5.76,5.85,5.75,-5.75,-5.69,-6.36,0.10,0.10,0.09
129.85,5.82,5.78,5.82,5.78,-5.78,-5.72,-6.35,0.04,0.04,0.04
131.15,5.79,5.81,5.79,5.81,-5.81,-5.75,-6.34,-0.02,-0.02,-0.02
132.46,5.76,5.83,5.76,5.83,-5.84,-5.78,-6.33,-0.08,-0.08,-0.07
133.79,5.73,5.86,5.73,5.86,-5.87,-5.81,-6.31,-0.14,-0.13,-0.13
135.12,5.71,5.89,5.71,5.89,-5.90,-5.84,-6.28,-0.19,-0.18,-0.18
136.48,5.70,5.93,5.70,5.93,-5.93,-5.86,-6.25,-0.23,-0.23,-0.23
137.84,5.68,5.96,5.68,5.96,-5.95,-5.89,-6.21,-0.27,-0.27,-0.28
139.22,5.65,5.99,5.65,5.98,-5.97,-5.92,-6.17,-0.32,-0.32,-0.34
140.61,5.61,5.99,5.61,6.00,-5.99,-5.95,-6.13,-0.38,-0.37,-0.38
142.02,5.58,6.02,5.57,6.01,-6.00,-5.97,-6.09,-0.42,-0.43,-0.44
143.44,5.53,6.01,5.53,6.01,-6.01,-6.00,-6.04,-0.48,-0.48,-0.48
144.87,5.49,6.01,5.49,6.01,-6.01,-6.02,-5.99,-0.52,-0.52,-0.52
146.32,5.45,6.02,5.45,6.01,-6.02,-6.05,-5.95,-0.57,-0.57,-0.57
147.78,5.41,6.02,5.41,6.02,-6.03,-6.07,-5.90,-0.62,-0.62,-0.61
149.26,5.37,6.03,5.37,6.03,-6.04,-6.09,-5.85,-0.67,-0.67,-0.66
150.75,5.35,6.05,5.35,6.05,-6.06,-6.11,-5.80,-0.71,-0.71,-0.70
152.26,5.33,6.07,5.33,6.07,-6.07,-6.14,-5.76,-0.74,-0.74,-0.74
153.78,5.32,6.10,5.32,6.10,-6.09,-6.16,-5.72,-0.77,-0.77,-0.78
155.32,5.30,6.12,5.30,6.12,-6.11,-6.18,-5.67,-0.81,-0.81,-0.82
156.88,5.27,6.14,5.27,6.14,-6.12,-6.20,-5.63,-0.85,-0.85,-0.87
158.44,5.23,6.15,5.23,6.15,-6.14,-6.21,-5.60,-0.91,-0.91,-0.92
160.03,5.20,6.16,5.20,6.16,-6.16,-6.23,-5.56,-0.96,-0.96,-0.96
161.63,5.16,6.16,5.16,6.16,-6.17,-6.25,-5.53,-1.01,-1.01,-1.00
163.24,5.13,6.18,5.13,6.18,-6.19,-6.26,-5.51,-1.06,-1.06,-1.05
164.88,5.10,6.20,5.10,6.20,-6.21,-6.28,-5.48,-1.11,-1.11,-1.10
166.53,5.08,6.23,5.08,6.23,-6.23,-6.29,-5.46,-1.15,-1.15,-1.15
168.19,5.07,6.25,5.07,6.26,-6.25,-6.30,-5.45,-1.18,-1.18,-1.18
169.87,5.05,6.29,5.05,6.28,-6.27,-6.32,-5.43,-1.22,-1.22,-1.24
171.57,5.02,6.31,5.02,6.30,-6.29,-6.33,-5.43,-1.27,-1.27,-1.29
173.29,4.98,6.31,4.98,6.31,-6.30,-6.34,-5.42,-1.32,-1.33,-1.33
175.02,4.93,6.31,4.93,6.31,-6.31,-6.35,-5.42,-1.38,-1.38,-1.38
176.77,4.89,6.32,4.89,6.32,-6.32,-6.35,-5.43,-1.43,-1.43,-1.43
178.54,4.85,6.32,4.85,6.32,-6.33,-6.36,-5.43,-1.48,-1.48,-1.47
180.32,4.81,6.34,4.81,6.33,-6.33,-6.37,-5.45,-1.52,-1.52,-1.53
182.13,4.77,6.33,4.77,6.33,-6.33,-6.37,-5.46,-1.56,-1.56,-1.56
183.95,4.72,6.33,4.72,6.33,-6.33,-6.37,-5.48,-1.61,-1.61,-1.61
185.79,4.68,6.34,4.68,6.33,-6.33,-6.38,-5.51,-1.65,-1.65,-1.66
187.65,4.64,6.34,4.64,6.34,-6.34,-6.38,-5.54,-1.70,-1.70,-1.70
189.52,4.60,6.34,4.60,6.33,-6.34,-6.38,-5.57,-1.74,-1.74,-1.74
191.42,4.55,6.33,4.55,6.33,-6.34,-6.37,-5.60,-1.79,-1.78,-1.78
193.33,4.51,6.33,4.51,6.33,-6.34,-6.37,-5.64,-1.83,-1.83,-1.82
195.27,4.47,6.34,4.47,6.34,-6.34,-6.37,-5.69,-1.87,-1.87,-1.87
197.22,4.43,6.35,4.43,6.34,-6.33,-6.36,-5.73,-1.90,-1.91,-1.92
199.19,4.38,6.33,4.38,6.34,-6.33,-6.35,-5.78,-1.95,-1.94,-1.95
201.18,4.34,6.33,4.34,6.33,-6.32,-6.35,-5.83,-1.98,-1.98,-1.99
203.19,4.30,6.32,4.30,6.31,-6.32,-6.34,-5.89,-2.02,-2.02,-2.02
205.23,4.26,6.30,4.26,6.30,-6.31,-6.33,-5.94,-2.05,-2.05,-2.04
207.28,4.22,6.29,4.22,6.29,-6.30,-6.32,-6.00,-2.08,-2.08,-2.07
209.35,4.18,6.29,4.18,6.29,-6.29,-6.30,-6.06,-2.11,-2.11,-2.11
211.44,4.15,6.29,4.15,6.28,-6.28,-6.29,-6.12,-2.13,-2.14,-2.14
213.56,4.11,6.27,4.11,6.28,-6.28,-6.27,-6.17,-2.17,-2.16,-2.16
215.69,4.08,6.27,4.08,6.27,-6.27,-6.26,-6.23,-2.19,-2.19,-2.19
217.85,4.04,6.26,4.04,6.26,-6.26,-6.24,-6.29,-2.22,-2.22,-2.22
220.03,4.00,6.25,4.00,6.25,-6.24,-6.22,-6.35,-2.24,-2.24,-2.25
222.23,3.96,6.24,3.96,6.23,-6.23,-6.20,-6.40,-2.27,-2.27,-2.28
224.45,3.92,6.21,3.92,6.21,-6.21,-6.18,-6.45,-2.29,-2.29,-2.29
226.70,3.87,6.19,3.87,6.19,-6.19,-6.15,-6.50,-2.32,-2.31,-2.32
228.96,3.83,6.16,3.83,6.16,-6.17,-6.13,-6.55,-2.34,-2.34,-2.33
231.25,3.79,6.14,3.79,6.14,-6.14,-6.10,-6.59,-2.35,-2.35,-2.35
233.57,3.75,6.12,3.75,6.12,-6.12,-6.08,-6.62,-2.37,-2.37,-2.37
235.90,3.71,6.09,3.71,6.09,-6.09,-6.05,-6.65,-2.38,-2.38,-2.38
238.26,3.67,6.08,3.67,6.07,-6.07,-6.02,-6.67,-2.40,-2.39,-2.41
240.64,3.64,6.04,3.64,6.04,-6.04,-5.99,-6.69,-2.40,-2.40,-2.40
243.05,3.60,6.02,3.60,6.02,-6.01,-5.96,-6.69,-2.41,-2.41,-2.42
245.48,3.56,5.99,3.56,5.98,-5.98,-5.93,-6.69,-2.42,-2.42,-2.43
247.93,3.52,5.96,3.52,5.95,-5.95,-5.90,-6.68,-2.43,-2.43,-2.44
250.41,3.48,5.91,3.48,5.92,-5.92,-5.86,-6.67,-2.44,-2.44,-2.43
252.92,3.45,5.89,3.45,5.89,-5.89,-5.83,-6.64,-2.44,-2.44,-2.44
255.45,3.41,5.86,3.41,5.85,-5.85,-5.80,-6.61,-2.44,-2.45,-2.45
258.00,3.37,5.82,3.37,5.82,-5.82,-5.76,-6.57,-2.45,-2.45,-2.45
260.58,3.33,5.78,3.33,5.78,-5.78,-5.72,-6.52,-2.45,-2.45,-2.45
263.19,3.30,5.75,3.30,5.75,-5.75,-5.69,-6.47,-2.45,-2.45,-2.45
265.82,3.26,5.72,3.26,5.72,-5.71,-5.65,-6.40,-2.45,-2.45,-2.46
268.48,3.22,5.68,3.22,5.68,-5.67,-5.61,-6.33,-2.45,-2.45,-2.46
271.16,3.18,5.64,3.18,5.63,-5.63,-5.57,-6.26,-2.45,-2.46,-2.46
273.87,3.13,5.59,3.13,5.59,-5.59,-5.53,-6.18,-2.46,-2.46,-2.46
276.61,3.08,5.54,3.08,5.55,-5.55,-5.49,-6.09,-2.47,-2.47,-2.46
279.38,3.04,5.52,3.04,5.51,-5.51,-5.45,-6.00,-2.47,-2.47,-2.48
282.17,2.99,5.47,2.99,5.46,-5.47,-5.41,-5.91,-2.48,-2.47,-2.48
284.99,2.95,5.42,2.95,5.42,-5.42,-5.37,-5.81,-2.47,-2.47,-2.47
287.84,2.90,5.36,2.91,5.37,-5.37,-5.33,-5.71,-2.47,-2.47,-2.46
290.72,2.87,5.34,2.87,5.33,-5.32,-5.28,-5.61,-2.45,-2.46,-2.47
293.63,2.83,5.29,2.83,5.28,-5.28,-5.24,-5.51,-2.45,-2.45,-2.46
296.57,2.78,5.23,2.78,5.23,-5.23,-5.20,-5.40,-2.45,-2.45,-2.45
299.53,2.73,5.18,2.73,5.17,-5.18,-5.15,-5.30,-2.45,-2.45,-2.45
302.53,2.68,5.11,2.68,5.12,-5.13,-5.11,-5.20,-2.45,-2.45,-2.43
305.55,2.64,5.08,2.64,5.07,-5.08,-5.06,-5.09,-2.44,-2.44,-2.44
308.61,2.60,5.03,2.60,5.03,-5.03,-5.02,-4.99,-2.43,-2.43,-2.43
311.69,2.57,4.99,2.57,4.99,-4.98,-4.97,-4.89,-2.41,-2.42,-2.42
314.81,2.53,4.95,2.53,4.94,-4.93,-4.93,-4.79,-2.40,-2.40,-2.42
317.96,2.49,4.90,2.49,4.90,-4.89,-4.88,-4.70,-2.40,-2.40,-2.41
321.14,2.44,4.84,2.44,4.84,-4.84,-4.84,-4.60,-2.40,-2.40,-2.40
324.35,2.39,4.79,2.39,4.78,-4.79,-4.79,-4.51,-2.40,-2.40,-2.40
327.59,2.35,4.72,2.35,4.73,-4.74,-4.74,-4.42,-2.39,-2.39,-2.37
330.87,2.31,4.69,2.31,4.69,-4.69,-4.70,-4.33,-2.38,-2.38,-2.38
334.18,2.28,4.65,2.27,4.64,-4.63,-4.65,-4.24,-2.35,-2.36,-2.37
337.52,2.23,4.60,2.23,4.59,-4.58,-4.61,-4.16,-2.35,-2.35,-2.37
340.90,2.18,4.53,2.18,4.53,-4.52,-4.56,-4.08,-2.34,-2.34,-2.35
344.30,2.12,4.46,2.12,4.47,-4.47,-4.51,-4.00,-2.35,-2.34,-2.34
347.75,2.07,4.41,2.07,4.40,-4.41,-4.46,-3.92,-2.34,-2.34,-2.34
351.23,2.01,4.35,2.01,4.34,-4.35,-4.42,-3.85,-2.34,-2.34,-2.34
354.74,1.96,4.27,1.96,4.29,-4.30,-4.37,-3.78,-2.34,-2.33,-2.31
358.28,1.92,4.24,1.92,4.24,-4.24,-4.32,-3.72,-2.32,-2.32,-2.32
361.87,1.89,4.20,1.89,4.19,-4.18,-4.28,-3.65,-2.29,-2.30,-2.31
365.49,1.85,4.15,1.85,4.14,-4.13,-4.23,-3.59,-2.28,-2.29,-2.30
369.14,1.80,4.08,1.80,4.09,-4.08,-4.18,-3.53,-2.28,-2.28,-2.28
372.83,1.75,4.03,1.75,4.03,-4.03,-4.13,-3.48,-2.28,-2.28,-2.28
376.56,1.70,3.98,1.70,3.97,-3.98,-4.09,-3.43,-2.28,-2.28,-2.28
380.33,1.66,3.93,1.66,3.93,-3.93,-4.04,-3.38,-2.27,-2.27,-2.27
384.13,1.62,3.87,1.62,3.88,-3.88,-3.99,-3.33,-2.26,-2.25,-2.25
387.97,1.59,3.84,1.58,3.83,-3.83,-3.95,-3.29,-2.24,-2.24,-2.25
391.85,1.54,3.78,1.54,3.78,-3.78,-3.90,-3.24,-2.24,-2.24,-2.24
395.77,1.50,3.73,1.50,3.73,-3.74,-3.85,-3.20,-2.24,-2.23,-2.23
399.73,1.47,3.69,1.47,3.68,-3.70,-3.81,-3.17,-2.23,-2.23,-2.22
403.72,1.45,3.64,1.45,3.65,-3.66,-3.76,-3.13,-2.21,-2.21,-2.19
407.76,1.42,3.62,1.42,3.61,-3.61,-3.71,-3.10,-2.19,-2.19,-2.20
411.84,1.40,3.59,1.40,3.58,-3.57,-3.66,-3.07,-2.17,-2.17,-2.19
415.96,1.37,3.54,1.37,3.54,-3.52,-3.62,-3.04,-2.15,-2.16,-2.17
420.12,1.33,3.50,1.33,3.49,-3.48,-3.57,-3.01,-2.15,-2.15,-2.17
424.32,1.28,3.44,1.28,3.43,-3.44,-3.52,-2.98,-2.16,-2.15,-2.16
428.56,1.24,3.38,1.24,3.38,-3.40,-3.48,-2.96,-2.16,-2.16,-2.14
432.85,1.20,3.33,1.20,3.34,-3.35,-3.43,-2.93,-2.15,-2.15,-2.13
437.18,1.17,3.31,1.17,3.30,-3.32,-3.39,-2.91,-2.15,-2.15,-2.14
441.55,1.14,3.27,1.15,3.27,-3.28,-3.34,-2.89,-2.14,-2.13,-2.13
445.96,1.13,3.25,1.13,3.25,-3.24,-3.29,-2.87,-2.11,-2.11,-2.12
450.42,1.11,3.22,1.11,3.22,-3.21,-3.25,-2.85,-2.10,-2.10,-2.11
454.93,1.09,3.19,1.09,3.19,-3.17,-3.20,-2.83,-2.08,-2.08,-2.10
459.48,1.06,3.15,1.06,3.14,-3.13,-3.16,-2.81,-2.07,-2.07,-2.09
464.07,1.02,3.09,1.02,3.09,-3.09,-3.11,-2.79,-2.07,-2.07,-2.07
468.71,0.98,3.04,0.98,3.04,-3.05,-3.07,-2.77,-2.07,-2.07,-2.06
473.40,0.94,3.00,0.94,2.99,-3.00,-3.02,-2.75,-2.06,-2.06,-2.06
478.13,0.90,2.95,0.90,2.95,-2.96,-2.98,-2.73,-2.06,-2.05,-2.05
482.91,0.87,2.91,0.87,2.91,-2.91,-2.93,-2.71,-2.04,-2.05,-2.04
487.74,0.84,2.87,0.84,2.87,-2.87,-2.89,-2.69,-2.03,-2.04,-2.03
492.62,0.81,2.83,0.81,2.83,-2.84,-2.84,-2.67,-2.03,-2.02,-2.02
497.55,0.79,2.80,0.79,2.80,-2.80,-2.80,-2.65,-2.01,-2.01,-2.01
502.52,0.78,2.78,0.78,2.77,-2.76,-2.76,-2.63,-1.98,-1.99,-2.00
507.55,0.76,2.74,0.76,2.74,-2.73,-2.71,-2.61,-1.97,-1.97,-1.98
512.62,0.73,2.70,0.73,2.70,-2.69,-2.67,-2.59,-1.96,-1.96,-1.97
517.75,0.70,2.65,0.70,2.65,-2.65,-2.63,-2.57,-1.95,-1.95,-1.95
