frequency,raw,error,smoothed,error_smoothed,equalization,parametric_eq,fixed_band_eq,equalized_raw,equalized_smoothed,target
20.00,6.35,-2.19,6.35,-2.19,2.19,1.98,0.67,8.54,8.54,8.54
20.20,6.33,-2.20,6.32,-2.20,2.20,1.99,0.69,8.53,8.53,8.53
20.40,6.31,-2.21,6.31,-2.21,2.21,2.00,0.72,8.52,8.52,8.52
20.61,6.30,-2.21,6.29,-2.21,2.22,2.02,0.74,8.51,8.51,8.51
20.81,6.28,-2.21,6.28,-2.21,2.22,2.03,0.77,8.49,8.50,8.49
21.02,6.28,-2.20,6.27,-2.21,2.22,2.04,0.79,8.49,8.49,8.48
21.23,6.27,-2.20,6.27,-2.21,2.21,2.05,0.82,8.48,8.48,8.47
21.44,6.27,-2.21,6.27,-2.20,2.20,2.05,0.84,8.47,8.47,8.48
21.66,6.27,-2.19,6.27,-2.20,2.19,2.06,0.87,8.46,8.46,8.46
21.87,6.28,-2.18,6.27,-2.18,2.17,2.06,0.90,8.45,8.45,8.46
22.09,6.29,-2.15,6.28,-2.16,2.16,2.07,0.93,8.44,8.44,8.44
22.31,6.30,-2.13,6.30,-2.13,2.13,2.07,0.96,8.43,8.43,8.43
22.54,6.32,-2.10,6.31,-2.11,2.11,2.07,0.99,8.42,8.42,8.42
22.76,6.34,-2.08,6.34,-2.08,2.08,2.07,1.02,8.41,8.41,8.42
22.99,6.37,-2.04,6.36,-2.04,2.04,2.06,1.06,8.41,8.41,8.41
23.22,6.40,-2.00,6.39,-2.01,2.01,2.06,1.09,8.41,8.41,8.40
23.45,6.43,-1.98,6.43,-1.98,1.98,2.05,1.12,8.40,8.40,8.41
23.69,6.45,-1.94,6.46,-1.94,1.94,2.04,1.16,8.40,8.40,8.40
23.92,6.49,-1.90,6.49,-1.91,1.91,2.03,1.19,8.40,8.39,8.39
24.16,6.52,-1.88,6.52,-1.88,1.88,2.02,1.23,8.39,8.39,8.40
24.40,6.55,-1.85,6.55,-1.85,1.85,2.01,1.27,8.39,8.39,8.40
24.65,6.58,-1.81,6.57,-1.82,1.82,1.99,1.30,8.40,8.39,8.39
24.89,6.60,-1.79,6.59,-1.79,1.80,1.98,1.34,8.40,8.39,8.39
25.14,6.61,-1.77,6.61,-1.77,1.78,1.96,1.38,8.39,8.39,8.38
25.39,6.62,-1.76,6.62,-1.76,1.77,1.94,1.41,8.38,8.39,8.38
25.65,6.63,-1.75,6.62,-1.75,1.76,1.92,1.45,8.38,8.38,8.38
25.91,6.64,-1.74,6.63,-1.75,1.75,1.90,1.49,8.38,8.38,8.38
26.16,6.64,-1.75,6.64,-1.74,1.74,1.88,1.52,8.38,8.38,8.39
26.43,6.65,-1.73,6.65,-1.74,1.73,1.85,1.56,8.37,8.37,8.38
26.69,6.66,-1.72,6.66,-1.72,1.72,1.83,1.59,8.37,8.37,8.38
26.96,6.68,-1.70,6.67,-1.70,1.70,1.80,1.63,8.37,8.37,8.38
27.23,6.70,-1.68,6.70,-1.68,1.68,1.77,1.66,8.37,8.37,8.38
27.50,6.73,-1.65,6.73,-1.66,1.65,1.75,1.69,8.38,8.38,8.38
27.77,6.76,-1.63,6.76,-1.62,1.63,1.72,1.72,8.38,8.38,8.39
28.05,6.80,-1.58,6.79,-1.59,1.60,1.69,1.75,8.39,8.39,8.38
28.33,6.83,-1.56,6.82,-1.56,1.57,1.66,1.77,8.39,8.39,8.39
28.62,6.85,-1.53,6.85,-1.54,1.54,1.62,1.80,8.39,8.39,8.39
28.90,6.88,-1.52,6.88,-1.52,1.51,1.59,1.82,8.39,8.39,8.40
29.19,6.91,-1.49,6.90,-1.49,1.49,1.56,1.83,8.39,8.39,8.40
29.48,6.93,-1.46,6.93,-1.47,1.47,1.53,1.85,8.39,8.39,8.39
29.78,6.95,-1.44,6.94,-1.44,1.45,1.49,1.86,8.40,8.40,8.39
30.08,6.96,-1.43,6.95,-1.43,1.44,1.46,1.87,8.40,8.39,8.39
30.38,6.96,-1.41,6.96,-1.42,1.43,1.42,1.87,8.39,8.39,8.37
30.68,6.96,-1.41,6.95,-1.42,1.42,1.39,1.87,8.38,8.38,8.37
30.99,6.95,-1.42,6.95,-1.42,1.42,1.35,1.87,8.36,8.36,8.37
31.30,6.95,-1.42,6.94,-1.42,1.41,1.32,1.86,8.35,8.35,8.37
31.61,6.95,-1.41,6.95,-1.41,1.40,1.28,1.85,8.34,8.34,8.36
31.93,6.96,-1.38,6.96,-1.39,1.38,1.24,1.84,8.34,8.34,8.34
32.24,6.98,-1.37,6.98,-1.36,1.36,1.21,1.82,8.34,8.34,8.35
32.57,7.01,-1.32,7.00,-1.33,1.33,1.17,1.80,8.34,8.33,8.33
32.89,7.04,-1.29,7.03,-1.30,1.30,1.13,1.77,8.33,8.33,8.33
33.22,7.06,-1.26,7.06,-1.26,1.26,1.10,1.74,8.32,8.32,8.32
33.55,7.10,-1.22,7.09,-1.22,1.22,1.06,1.71,8.32,8.31,8.32
33.89,7.13,-1.18,7.12,-1.18,1.18,1.02,1.68,8.31,8.30,8.31
34.23,7.16,-1.13,7.16,-1.14,1.14,0.99,1.64,8.30,8.30,8.29
34.57,7.19,-1.10,7.19,-1.10,1.11,0.95,1.60,8.29,8.29,8.29
34.92,7.22,-1.05,7.21,-1.07,1.07,0.91,1.56,8.28,8.28,8.27
35.27,7.24,-1.05,7.24,-1.04,1.04,0.88,1.51,8.27,8.27,8.29
35.62,7.26,-1.00,7.26,-1.01,1.01,0.84,1.46,8.26,8.27,8.26
35.97,7.28,-0.98,7.27,-0.98,0.98,0.80,1.42,8.26,8.26,8.26
36.33,7.29,-0.95,7.28,-0.95,0.96,0.77,1.37,8.25,8.25,8.24
36.70,7.29,-0.93,7.28,-0.94,0.95,0.73,1.31,8.23,8.23,8.22
37.06,7.28,-0.92,7.28,-0.92,0.93,0.69,1.26,8.20,8.21,8.20
37.43,7.27,-0.91,7.27,-0.91,0.91,0.66,1.21,8.18,8.18,8.18
37.81,7.27,-0.90,7.26,-0.90,0.89,0.62,1.15,8.16,8.15,8.17
38.19,7.27,-0.87,7.27,-0.88,0.87,0.59,1.10,8.13,8.13,8.14
38.57,7.28,-0.84,7.28,-0.85,0.84,0.55,1.04,8.11,8.11,8.12
38.95,7.30,-0.81,7.29,-0.81,0.80,0.52,0.98,8.10,8.10,8.11
39.34,7.32,-0.76,7.32,-0.76,0.76,0.48,0.93,8.07,8.08,8.08
39.74,7.35,-0.70,7.34,-0.71,0.71,0.45,0.87,8.06,8.05,8.05
40.14,7.37,-0.66,7.37,-0.66,0.66,0.41,0.81,8.03,8.03,8.03
40.54,7.40,-0.61,7.40,-0.61,0.61,0.38,0.76,8.00,8.01,8.01
40.94,7.44,-0.54,7.43,-0.55,0.56,0.34,0.70,7.99,7.99,7.98
41.35,7.47,-0.50,7.47,-0.50,0.50,0.31,0.64,7.97,7.97,7.97
41.76,7.50,-0.44,7.50,-0.45,0.45,0.28,0.59,7.94,7.94,7.94
42.18,7.53,-0.40,7.52,-0.40,0.40,0.24,0.53,7.92,7.92,7.93
42.60,7.55,-0.35,7.55,-0.35,0.35,0.21,0.48,7.89,7.90,7.90
43.03,7.58,-0.30,7.57,-0.30,0.30,0.17,0.42,7.88,7.87,7.88
43.46,7.60,-0.24,7.59,-0.25,0.26,0.14,0.36,7.85,7.85,7.84
43.90,7.61,-0.21,7.61,-0.21,0.22,0.11,0.31,7.82,7.83,7.82
44.33,7.62,-0.17,7.62,-0.18,0.18,0.07,0.25,7.80,7.80,7.79
44.78,7.63,-0.14,7.62,-0.15,0.15,0.04,0.20,7.78,7.77,7.77
45.23,7.62,-0.13,7.62,-0.12,0.12,0.01,0.14,7.74,7.74,7.75
45.68,7.61,-0.09,7.61,-0.10,0.09,-0.03,0.09,7.70,7.70,7.70
46.13,7.61,-0.06,7.60,-0.07,0.06,-0.06,0.04,7.67,7.66,7.67
46.60,7.60,-0.03,7.60,-0.03,0.03,-0.09,-0.02,7.62,7.63,7.63
47.06,7.60,-0.00,7.60,-0.00,-0.01,-0.13,-0.07,7.59,7.59,7.60
47.53,7.60,0.04,7.59,0.04,-0.04,-0.16,-0.13,7.55,7.55,7.56
48.01,7.60,0.09,7.60,0.08,-0.08,-0.19,-0.18,7.51,7.51,7.51
48.49,7.60,0.13,7.60,0.13,-0.13,-0.23,-0.23,7.47,7.47,7.47
48.97,7.60,0.18,7.60,0.17,-0.17,-0.26,-0.28,7.43,7.43,7.42
49.46,7.60,0.21,7.60,0.22,-0.21,-0.29,-0.34,7.38,7.38,7.39
49.96,7.60,0.27,7.60,0.26,-0.26,-0.33,-0.39,7.34,7.34,7.33
50.46,7.60,0.30,7.60,0.30,-0.30,-0.36,-0.44,7.30,7.30,7.30
50.96,7.60,0.34,7.60,0.34,-0.34,-0.39,-0.49,7.26,7.26,7.26
51.47,7.60,0.38,7.60,0.38,-0.38,-0.42,-0.54,7.22,7.22,7.22
51.99,7.60,0.43,7.60,0.42,-0.42,-0.46,-0.59,7.18,7.18,7.17
52.51,7.60,0.46,7.60,0.46,-0.46,-0.49,-0.64,7.14,7.14,7.14
53.03,7.60,0.49,7.60,0.49,-0.50,-0.52,-0.69,7.10,7.10,7.11
53.56,7.60,0.54,7.60,0.54,-0.54,-0.56,-0.74,7.05,7.05,7.06
54.10,7.60,0.59,7.60,0.58,-0.58,-0.59,-0.79,7.01,7.01,7.01
54.64,7.60,0.63,7.60,0.63,-0.62,-0.63,-0.84,6.97,6.97,6.97
55.18,7.60,0.67,7.60,0.67,-0.66,-0.66,-0.88,6.93,6.93,6.93
55.74,7.60,0.72,7.60,0.71,-0.70,-0.69,-0.93,6.89,6.89,6.88
56.29,7.60,0.74,7.60,0.74,-0.74,-0.73,-0.97,6.85,6.85,6.86
56.86,7.60,0.78,7.60,0.78,-0.78,-0.76,-1.02,6.81,6.81,6.82
57.42,7.60,0.83,7.60,0.82,-0.82,-0.80,-1.06,6.78,6.78,6.77
58.00,7.60,0.87,7.60,0.86,-0.86,-0.83,-1.11,6.74,6.74,6.73
58.58,7.60,0.90,7.60,0.90,-0.90,-0.87,-1.15,6.70,6.70,6.70
59.16,7.60,0.93,7.60,0.93,-0.94,-0.90,-1.19,6.66,6.66,6.67
59.76,7.60,0.98,7.60,0.98,-0.99,-0.94,-1.23,6.61,6.61,6.62
60.35,7.60,1.03,7.60,1.03,-1.04,-0.97,-1.27,6.56,6.56,6.57
60.96,7.60,1.09,7.60,1.09,-1.09,-1.01,-1.31,6.51,6.51,6.51
61.57,7.60,1.15,7.60,1.15,-1.14,-1.05,-1.34,6.45,6.45,6.45
62.18,7.60,1.21,7.60,1.21,-1.20,-1.08,-1.38,6.40,6.40,6.39
62.80,7.60,1.27,7.60,1.26,-1.26,-1.12,-1.41,6.34,6.34,6.33
63.43,7.60,1.32,7.60,1.32,-1.31,-1.16,-1.45,6.28,6.28,6.28
64.07,7.60,1.37,7.60,1.37,-1.37,-1.20,-1.48,6.23,6.23,6.23
64.71,7.60,1.42,7.60,1.42,-1.42,-1.23,-1.51,6.17,6.17,6.18
65.35,7.60,1.48,7.60,1.47,-1.47,-1.27,-1.54,6.12,6.12,6.12
66.01,7.60,1.53,7.60,1.52,-1.52,-1.31,-1.57,6.07,6.07,6.07
66.67,7.60,1.57,7.60,1.58,-1.58,-1.35,-1.60,6.02,6.02,6.03
67.33,7.60,1.64,7.60,1.63,-1.63,-1.39,-1.63,5.97,5.97,5.96
68.01,7.60,1.69,7.60,1.68,-1.68,-1.43,-1.66,5.91,5.91,5.91
68.69,7.60,1.74,7.60,1.74,-1.74,-1.47,-1.69,5.86,5.86,5.86
69.37,7.60,1.79,7.60,1.79,-1.79,-1.51,-1.72,5.80,5.80,5.81
70.07,7.60,1.85,7.60,1.85,-1.85,-1.55,-1.75,5.74,5.74,5.75
70.77,7.60,1.92,7.60,1.91,-1.91,-1.59,-1.78,5.68,5.68,5.68
71.48,7.60,1.97,7.60,1.97,-1.97,-1.63,-1.80,5.63,5.63,5.63
72.19,7.60,2.03,7.60,2.03,-2.03,-1.67,-1.83,5.57,5.57,5.57
72.91,7.60,2.10,7.60,2.09,-2.09,-1.72,-1.86,5.51,5.51,5.50
73.64,7.60,2.15,7.60,2.15,-2.15,-1.76,-1.89,5.45,5.45,5.45
74.38,7.60,2.21,7.60,2.20,-2.20,-1.80,-1.92,5.39,5.39,5.39
75.12,7.60,2.26,7.60,2.26,-2.26,-1.85,-1.96,5.34,5.34,5.34
75.87,7.60,2.31,7.60,2.31,-2.31,-1.89,-1.99,5.29,5.29,5.29
76.63,7.60,2.37,7.60,2.36,-2.36,-1.94,-2.02,5.23,5.23,5.23
77.40,7.60,2.41,7.60,2.41,-2.41,-1.98,-2.06,5.18,5.18,5.19
78.17,7.60,2.47,7.60,2.46,-2.46,-2.03,-2.09,5.13,5.13,5.13
78.95,7.60,2.51,7.60,2.51,-2.51,-2.07,-2.13,5.09,5.09,5.09
79.74,7.60,2.56,7.60,2.56,-2.56,-2.12,-2.17,5.04,5.04,5.04
80.54,7.60,2.61,7.60,2.61,-2.61,-2.17,-2.21,4.99,4.99,4.99
81.35,7.60,2.67,7.60,2.66,-2.66,-2.21,-2.26,4.94,4.94,4.93
82.16,7.60,2.70,7.60,2.71,-2.71,-2.26,-2.30,4.89,4.89,4.90
82.98,7.60,2.76,7.60,2.75,-2.76,-2.31,-2.35,4.84,4.84,4.84
83.81,7.60,2.81,7.60,2.81,-2.81,-2.36,-2.39,4.79,4.79,4.79
84.65,7.60,2.87,7.60,2.87,-2.86,-2.41,-2.44,4.73,4.73,4.73
85.50,7.60,2.93,7.59,2.92,-2.92,-2.46,-2.50,4.67,4.67,4.67
86.35,7.60,2.98,7.59,2.98,-2.98,-2.51,-2.55,4.61,4.61,4.62
87.22,7.60,3.03,7.60,3.03,-3.04,-2.56,-2.60,4.55,4.56,4.57
88.09,7.61,3.10,7.61,3.10,-3.10,-2.62,-2.66,4.50,4.50,4.51
88.97,7.62,3.17,7.62,3.16,-3.16,-2.67,-2.72,4.45,4.45,4.45
89.86,7.63,3.23,7.62,3.23,-3.22,-2.72,-2.78,4.40,4.40,4.40
90.76,7.63,3.29,7.62,3.29,-3.28,-2.77,-2.85,4.35,4.35,4.34
91.66,7.62,3.35,7.62,3.34,-3.33,-2.83,-2.91,4.29,4.29,4.27
92.58,7.60,3.38,7.60,3.38,-3.38,-2.88,-2.98,4.22,4.22,4.22
93.51,7.59,3.42,7.58,3.42,-3.42,-2.94,-3.05,4.16,4.16,4.17
94.44,7.56,3.45,7.56,3.45,-3.46,-2.99,-3.12,4.09,4.10,4.11
95.39,7.54,3.50,7.53,3.49,-3.50,-3.05,-3.20,4.04,4.03,4.04
96.34,7.51,3.54,7.50,3.53,-3.53,-3.11,-3.27,3.97,3.97,3.97
97.30,7.48,3.57,7.48,3.57,-3.57,-3.16,-3.35,3.91,3.91,3.91
98.28,7.45,3.61,7.45,3.61,-3.60,-3.22,-3.43,3.85,3.85,3.84
99.26,7.42,3.64,7.42,3.64,-3.63,-3.28,-3.51,3.79,3.79,3.78
100.25,7.39,3.67,7.39,3.66,-3.66,-3.34,-3.59,3.73,3.73,3.72
101.25,7.36,3.69,7.35,3.69,-3.69,-3.39,-3.67,3.67,3.67,3.67
102.27,7.33,3.72,7.32,3.72,-3.72,-3.45,-3.76,3.61,3.61,3.61
103.29,7.30,3.75,7.30,3.74,-3.75,-3.51,-3.84,3.54,3.54,3.55
104.32,7.28,3.78,7.28,3.78,-3.79,-3.57,-3.92,3.48,3.49,3.50
105.37,7.27,3.83,7.27,3.83,-3.84,-3.63,-4.01,3.43,3.43,3.44
106.42,7.27,3.88,7.26,3.88,-3.89,-3.69,-4.09,3.38,3.38,3.39
107.48,7.27,3.94,7.27,3.94,-3.94,-3.75,-4.17,3.32,3.33,3.33
108.56,7.28,4.00,7.28,4.00,-4.00,-3.81,-4.26,3.28,3.28,3.28
109.64,7.29,4.07,7.28,4.07,-4.05,-3.87,-4.34,3.23,3.23,3.22
110.74,7.29,4.13,7.28,4.12,-4.11,-3.93,-4.41,3.18,3.17,3.16
111.85,7.28,4.18,7.27,4.17,-4.16,-3.99,-4.49,3.11,3.11,3.10
112.97,7.26,4.21,7.25,4.21,-4.21,-4.05,-4.56,3.04,3.04,3.05
114.10,7.23,4.24,7.23,4.25,-4.25,-4.12,-4.63,2.97,2.98,2.99
115.24,7.21,4.30,7.20,4.29,-4.29,-4.18,-4.70,2.92,2.91,2.91
116.39,7.18,4.33,7.18,4.33,-4.32,-4.24,-4.76,2.86,2.86,2.85
117.55,7.15,4.36,7.15,4.36,-4.34,-4.30,-4.82,2.80,2.80,2.79
118.73,7.12,4.39,7.11,4.38,-4.37,-4.36,-4.88,2.75,2.74,2.73
119.92,7.08,4.39,7.08,4.39,-4.39,-4.42,-4.93,2.68,2.68,2.69
121.12,7.05,4.41,7.04,4.41,-4.42,-4.48,-4.97,2.63,2.62,2.64
122.33,7.02,4.44,7.02,4.43,-4.45,-4.54,-5.01,2.57,2.57,2.58
123.55,7.00,4.47,7.00,4.47,-4.48,-4.60,-5.04,2.52,2.52,2.53
124.79,6.99,4.51,6.98,4.51,-4.51,-4.65,-5.07,2.47,2.47,2.48
126.03,6.98,4.56,6.97,4.55,-4.55,-4.71,-5.09,2.42,2.42,2.42
127.29,6.97,4.60,6.96,4.60,-4.60,-4.77,-5.10,2.37,2.36,2.37
128.57,6.95,4.65,6.95,4.64,-4.64,-4.82,-5.11,2.30,2.31,2.30
129.85,6.94,4.69,6.94,4.69,-4.69,-4.88,-5.12,2.25,2.25,2.25
131.15,6.93,4.74,6.92,4.74,-4.73,-4.94,-5.12,2.19,2.19,2.19
132.46,6.92,4.78,6.91,4.78,-4.77,-4.99,-5.11,2.14,2.14,2.14
133.79,6.90,4.82,6.90,4.81,-4.81,-5.04,-5.10,2.09,2.09,2.08
135.12,6.88,4.85,6.87,4.84,-4.85,-5.09,-5.08,2.03,2.03,2.03
136.48,6.85,4.87,6.85,4.87,-4.88,-5.14,-5.07,1.97,1.97,1.98
137.84,6.83,4.90,6.83,4.90,-4.90,-5.19,-5.05,1.92,1.92,1.93
139.22,6.81,4.94,6.80,4.93,-4.93,-5.24,-5.02,1.88,1.87,1.87
140.61,6.78,4.95,6.78,4.95,-4.95,-5.29,-4.99,1.83,1.83,1.83
142.02,6.75,4.98,6.74,4.97,-4.96,-5.33,-4.97,1.79,1.78,1.77
143.44,6.71,4.98,6.71,4.98,-4.97,-5.37,-4.94,1.74,1.74,1.73
144.87,6.67,4.98,6.67,4.98,-4.98,-5.41,-4.90,1.69,1.69,1.69
146.32,6.63,4.99,6.62,4.98,-4.98,-5.45,-4.87,1.64,1.64,1.64
147.78,6.58,4.98,6.58,4.98,-4.99,-5.49,-4.84,1.59,1.59,1.60
149.26,6.54,4.99,6.54,4.99,-4.99,-5.52,-4.81,1.54,1.55,1.55
150.75,6.51,5.00,6.50,4.99,-5.00,-5.56,-4.78,1.50,1.50,1.51
152.26,6.47,5.00,6.47,5.00,-5.02,-5.59,-4.75,1.45,1.45,1.47
153.78,6.45,5.02,6.45,5.02,-5.03,-5.62,-4.72,1.41,1.42,1.43
155.32,6.44,5.05,6.43,5.05,-5.05,-5.64,-4.70,1.39,1.38,1.39
156.88,6.43,5.09,6.42,5.08,-5.07,-5.67,-4.67,1.36,1.35,1.34
158.44,6.40,5.11,6.40,5.10,-5.09,-5.69,-4.65,1.31,1.31,1.29
160.03,6.37,5.12,6.36,5.12,-5.10,-5.71,-4.63,1.26,1.26,1.25
161.63,6.33,5.12,6.33,5.12,-5.12,-5.72,-4.61,1.20,1.21,1.21
163.24,6.30,5.14,6.29,5.14,-5.14,-5.74,-4.60,1.16,1.16,1.16
164.88,6.26,5.15,6.26,5.15,-5.15,-5.75,-4.59,1.10,1.10,1.11
166.53,6.23,5.17,6.23,5.16,-5.17,-5.76,-4.58,1.05,1.05,1.06
168.19,6.20,5.17,6.20,5.18,-5.19,-5.76,-4.58,1.00,1.01,1.03
169.87,6.18,5.21,6.18,5.20,-5.21,-5.77,-4.58,0.96,0.96,0.97
171.57,6.16,5.24,6.16,5.23,-5.23,-5.77,-4.58,0.92,0.92,0.92
173.29,6.15,5.27,6.14,5.27,-5.26,-5.76,-4.58,0.89,0.88,0.88
175.02,6.12,5.29,6.12,5.29,-5.27,-5.76,-4.59,0.84,0.84,0.83
176.77,6.09,5.31,6.08,5.30,-5.29,-5.75,-4.61,0.80,0.79,0.78
178.54,6.05,5.31,6.04,5.31,-5.30,-5.74,-4.62,0.74,0.74,0.74
180.32,6.00,5.32,6.00,5.31,-5.31,-5.73,-4.64,0.68,0.69,0.68
182.13,5.96,5.31,5.95,5.31,-5.32,-5.71,-4.67,0.64,0.64,0.65
183.95,5.92,5.32,5.91,5.32,-5.33,-5.69,-4.69,0.59,0.59,0.60
185.79,5.88,5.33,5.88,5.32,-5.34,-5.67,-4.72,0.54,0.54,0.55
187.65,5.85,5.34,5.85,5.34,-5.35,-5.65,-4.76,0.50,0.50,0.51
189.52,5.83,5.36,5.82,5.36,-5.36,-5.63,-4.79,0.46,0.46,0.47
191.42,5.81,5.38,5.80,5.38,-5.38,-5.60,-4.84,0.43,0.43,0.43
193.33,5.79,5.40,5.78,5.40,-5.39,-5.57,-4.88,0.39,0.39,0.39
195.27,5.76,5.42,5.76,5.42,-5.40,-5.54,-4.92,0.35,0.35,0.34
197.22,5.73,5.44,5.72,5.43,-5.41,-5.50,-4.97,0.32,0.31,0.29
199.19,5.68,5.42,5.68,5.42,-5.41,-5.47,-5.02,0.26,0.26,0.26
201.18,5.64,5.42,5.64,5.42,-5.42,-5.43,-5.08,0.22,0.22,0.22
203.19,5.60,5.41,5.60,5.40,-5.42,-5.39,-5.13,0.18,0.18,0.19
205.23,5.57,5.40,5.57,5.40,-5.42,-5.34,-5.19,0.15,0.15,0.17
207.28,5.54,5.40,5.54,5.40,-5.41,-5.30,-5.25,0.12,0.12,0.14
209.35,5.52,5.42,5.51,5.41,-5.41,-5.26,-5.30,0.10,0.10,0.10
211.44,5.49,5.42,5.49,5.41,-5.41,-5.21,-5.36,0.08,0.08,0.07
213.56,5.46,5.41,5.46,5.41,-5.40,-5.16,-5.42,0.05,0.06,0.05
215.69,5.43,5.41,5.42,5.40,-5.39,-5.11,-5.48,0.03,0.03,0.02
217.85,5.38,5.39,5.38,5.39,-5.38,-5.06,-5.53,-0.01,-0.00,-0.01
220.03,5.33,5.37,5.33,5.37,-5.37,-5.01,-5.59,-0.04,-0.04,-0.04
222.23,5.29,5.36,5.28,5.35,-5.35,-4.96,-5.64,-0.06,-0.07,-0.07
224.45,5.24,5.32,5.24,5.33,-5.33,-4.90,-5.69,-0.10,-0.09,-0.08
226.70,5.20,5.31,5.20,5.30,-5.32,-4.85,-5.73,-0.12,-0.12,-0.11
228.96,5.17,5.29,5.16,5.29,-5.30,-4.79,-5.78,-0.14,-0.14,-0.12
231.25,5.14,5.28,5.14,5.28,-5.29,-4.73,-5.81,-0.15,-0.15,-0.14
233.57,5.12,5.28,5.12,5.28,-5.27,-4.68,-5.84,-0.16,-0.16,-0.16
235.90,5.10,5.27,5.09,5.27,-5.26,-4.62,-5.87,-0.16,-0.16,-0.17
238.26,5.07,5.27,5.07,5.26,-5.24,-4.56,-5.88,-0.18,-0.18,-0.20
240.64,5.04,5.23,5.03,5.23,-5.23,-4.50,-5.89,-0.19,-0.19,-0.19
243.05,5.00,5.21,4.99,5.21,-5.21,-4.44,-5.90,-0.21,-0.21,-0.21
245.48,4.96,5.18,4.96,5.18,-5.19,-4.38,-5.89,-0.23,-0.23,-0.22
247.93,4.93,5.16,4.93,5.15,-5.16,-4.32,-5.88,-0.24,-0.24,-0.23
250.41,4.91,5.13,4.90,5.13,-5.14,-4.26,-5.86,-0.23,-0.23,-0.22
252.92,4.89,5.12,4.88,5.12,-5.11,-4.20,-5.83,-0.23,-0.23,-0.23
255.45,4.86,5.10,4.86,5.09,-5.09,-4.14,-5.79,-0.23,-0.23,-0.24
258.00,4.83,5.07,4.82,5.06,-5.06,-4.08,-5.74,-0.23,-0.24,-0.24
260.58,4.79,5.03,4.79,5.03,-5.03,-4.02,-5.69,-0.24,-0.24,-0.24
263.19,4.75,4.99,4.75,4.99,-4.99,-3.96,-5.63,-0.24,-0.24,-0.24
265.82,4.71,4.96,4.71,4.95,-4.95,-3.90,-5.56,-0.24,-0.24,-0.25
268.48,4.67,4.92,4.66,4.91,-4.91,-3.84,-5.48,-0.24,-0.24,-0.25
271.16,4.62,4.87,4.61,4.86,-4.86,-3.78,-5.40,-0.25,-0.25,-0.25
273.87,4.56,4.81,4.55,4.81,-4.82,-3.72,-5.31,-0.26,-0.26,-0.25
276.61,4.50,4.75,4.50,4.76,-4.77,-3.66,-5.22,-0.27,-0.27,-0.25
279.38,4.45,4.72,4.45,4.72,-4.72,-3.60,-5.12,-0.28,-0.27,-0.27
282.17,4.42,4.69,4.41,4.67,-4.67,-3.54,-5.02,-0.26,-0.26,-0.27
284.99,4.37,4.63,4.37,4.63,-4.62,-3.48,-4.92,-0.25,-0.25,-0.26
287.84,4.32,4.57,4.32,4.58,-4.57,-3.43,-4.81,-0.25,-0.25,-0.25
290.72,4.27,4.53,4.26,4.52,-4.51,-3.37,-4.70,-0.25,-0.25,-0.26
293.63,4.21,4.46,4.21,4.46,-4.45,-3.31,-4.58,-0.25,-0.25,-0.25
296.57,4.15,4.39,4.15,4.39,-4.40,-3.25,-4.47,-0.25,-0.25,-0.24
299.53,4.10,4.34,4.09,4.33,-4.34,-3.19,-4.36,-0.24,-0.24,-0.24
302.53,4.04,4.26,4.04,4.27,-4.27,-3.14,-4.24,-0.24,-0.24,-0.22
305.55,3.99,4.22,3.98,4.21,-4.21,-3.08,-4.12,-0.23,-0.23,-0.23
308.61,3.93,4.15,3.93,4.15,-4.15,-3.03,-4.01,-0.23,-0.22,-0.22
311.69,3.89,4.10,3.88,4.10,-4.09,-2.97,-3.89,-0.20,-0.21,-0.21
314.81,3.83,4.04,3.82,4.03,-4.03,-2.91,-3.78,-0.20,-0.20,-0.21
317.96,3.77,3.97,3.76,3.97,-3.96,-2.86,-3.67,-0.20,-0.20,-0.20
321.14,3.70,3.89,3.70,3.89,-3.90,-2.81,-3.55,-0.20,-0.20,-0.19
324.35,3.65,3.84,3.64,3.83,-3.83,-2.75,-3.44,-0.18,-0.19,-0.19
327.59,3.59,3.75,3.59,3.76,-3.76,-2.70,-3.33,-0.17,-0.17,-0.16
330.87,3.53,3.70,3.52,3.69,-3.68,-2.65,-3.22,-0.16,-0.16,-0.17
334.18,3.46,3.62,3.45,3.61,-3.61,-2.59,-3.12,-0.15,-0.16,-0.16
337.52,3.38,3.54,3.38,3.53,-3.53,-2.54,-3.01,-0.16,-0.16,-0.16
340.90,3.31,3.45,3.31,3.45,-3.46,-2.49,-2.91,-0.15,-0.15,-0.14
344.30,3.24,3.37,3.24,3.38,-3.38,-2.44,-2.81,-0.15,-0.14,-0.13
347.75,3.18,3.31,3.17,3.30,-3.30,-2.39,-2.71,-0.13,-0.13,-0.13
351.23,3.12,3.25,3.11,3.23,-3.23,-2.34,-2.61,-0.11,-0.12,-0.13
354.74,3.04,3.14,3.04,3.15,-3.15,-2.29,-2.52,-0.11,-0.11,-0.10
358.28,2.97,3.08,2.97,3.07,-3.07,-2.24,-2.43,-0.11,-0.11,-0.11
361.87,2.90,3.00,2.90,2.99,-3.00,-2.19,-2.34,-0.10,-0.10,-0.10
365.49,2.84,2.93,2.83,2.92,-2.92,-2.14,-2.25,-0.09,-0.09,-0.09
369.14,2.77,2.84,2.77,2.84,-2.85,-2.09,-2.16,-0.08,-0.08,-0.07
372.83,2.70,2.77,2.70,2.77,-2.77,-2.05,-2.07,-0.08,-0.07,-0.07
376.56,2.64,2.71,2.63,2.70,-2.70,-2.00,-1.99,-0.06,-0.07,-0.07
380.33,2.57,2.63,2.57,2.62,-2.62,-1.95,-1.91,-0.06,-0.06,-0.06
384.13,2.50,2.54,2.50,2.55,-2.55,-1.91,-1.83,-0.05,-0.05,-0.04
387.97,2.44,2.48,2.43,2.47,-2.47,-1.86,-1.75,-0.04,-0.04,-0.04
391.85,2.37,2.40,2.36,2.40,-2.39,-1.81,-1.67,-0.03,-0.03,-0.03
395.77,2.30,2.32,2.30,2.32,-2.32,-1.77,-1.60,-0.02,-0.02,-0.02
399.73,2.23,2.24,2.23,2.23,-2.24,-1.72,-1.52,-0.01,-0.01,-0.01
403.72,2.17,2.15,2.16,2.15,-2.16,-1.68,-1.45,0.01,0.00,0.02
407.76,2.09,2.08,2.09,2.07,-2.07,-1.63,-1.38,0.01,0.02,0.01
411.84,2.02,2.00,2.02,1.99,-1.99,-1.59,-1.31,0.03,0.03,0.02
415.96,1.95,1.91,1.94,1.91,-1.91,-1.54,-1.25,0.04,0.04,0.04
420.12,1.87,1.83,1.87,1.83,-1.82,-1.50,-1.18,0.04,0.05,0.04
424.32,1.80,1.75,1.79,1.74,-1.74,-1.45,-1.12,0.05,0.05,0.05
428.56,1.72,1.65,1.72,1.65,-1.66,-1.41,-1.06,0.05,0.06,0.07
432.85,1.65,1.57,1.64,1.57,-1.58,-1.37,-1.00,0.06,0.06,0.08
437.18,1.58,1.51,1.57,1.50,-1.50,-1.32,-0.94,0.07,0.07,0.07
441.55,1.51,1.43,1.51,1.43,-1.42,-1.28,-0.88,0.08,0.08,0.08
445.96,1.45,1.36,1.44,1.35,-1.35,-1.23,-0.83,0.10,0.09,0.09
450.42,1.38,1.28,1.37,1.28,-1.27,-1.19,-0.77,0.10,0.10,0.10
454.93,1.31,1.20,1.31,1.20,-1.20,-1.14,-0.72,0.11,0.11,0.11
459.48,1.25,1.13,1.25,1.12,-1.13,-1.10,-0.67,0.12,0.12,0.12
464.07,1.19,1.05,1.18,1.05,-1.05,-1.05,-0.62,0.13,0.13,0.14
468.71,1.13,0.98,1.12,0.98,-0.98,-1.01,-0.57,0.14,0.14,0.15
473.40,1.06,0.91,1.06,0.91,-0.91,-0.96,-0.53,0.15,0.15,0.15
478.13,1.00,0.84,1.00,0.84,-0.83,-0.92,-0.48,0.16,0.16,0.16
482.91,0.94,0.77,0.93,0.77,-0.76,-0.87,-0.44,0.17,0.17,0.17
487.74,0.88,0.70,0.87,0.69,-0.69,-0.83,-0.40,0.19,0.18,0.18
492.62,0.80,0.61,0.80,0.61,-0.61,-0.78,-0.36,0.19,0.19,0.19
497.55,0.73,0.53,0.73,0.53,-0.53,-0.73,-0.32,0.20,0.20,0.20
502.52,0.66,0.45,0.66,0.45,-0.45,-0.68,-0.29,0.21,0.21,0.21
507.55,0.60,0.37,0.59,0.37,-0.36,-0.63,-0.26,0.23,0.23,0.23
512.62,0.53,0.29,0.52,0.28,-0.28,-0.58,-0.22,0.24,0.24,0.24
517.75,0.46,0.20,0.46,0.20,-0.20,-0.53,-0.19,0.26,0.26,0.26
522.93,0.39,0.12,0.38,0.12,-0.12,-0.48,-0.16,0.27,0.26,0.27
528.16,0.32,0.04,0.32,0.04,-0.04,-0.43,-0.13,0.27,0.27,0.28
533.44,0.25,-0.04,0.25,-0.04,0.03,-0.37,-0.11,0.28,0.28,0.29
538.77,0.20,-0.10,0.19,-0.11,0.11,-0.32,-0.08,0.30,0.30,0.30
