frequency,raw,error,smoothed,error_smoothed,equalization,parametric_eq,fixed_band_eq,equalized_raw,equalized_smoothed,target
20.00,-2.91,-9.65,-2.93,-9.67,9.67,9.38,3.83,6.77,6.74,6.74
20.20,-2.88,-9.63,-2.88,-9.63,9.63,9.36,3.93,6.75,6.75,6.75
20.40,-2.84,-9.60,-2.82,-9.59,9.59,9.33,4.04,6.75,6.76,6.76
20.61,-2.78,-9.55,-2.77,-9.54,9.54,9.31,4.15,6.76,6.77,6.77
20.81,-2.73,-9.50,-2.72,-9.50,9.50,9.28,4.26,6.77,6.78,6.77
21.02,-2.69,-9.47,-2.67,-9.45,9.45,9.25,4.38,6.76,6.78,6.78
21.23,-2.60,-9.39,-2.61,-9.41,9.41,9.22,4.50,6.81,6.79,6.79
21.44,-2.56,-9.36,-2.56,-9.36,9.36,9.18,4.62,6.80,6.80,6.80
21.66,-2.52,-9.32,-2.51,-9.31,9.31,9.15,4.75,6.80,6.80,6.80
21.87,-2.47,-9.28,-2.46,-9.27,9.27,9.12,4.88,6.80,6.81,6.81
22.09,-2.41,-9.22,-2.41,-9.22,9.22,9.08,5.01,6.82,6.81,6.81
22.31,-2.35,-9.17,-2.36,-9.18,9.18,9.04,5.15,6.83,6.82,6.82
22.54,-2.30,-9.12,-2.30,-9.13,9.13,9.01,5.29,6.83,6.82,6.82
22.76,-2.26,-9.09,-2.25,-9.08,9.08,8.97,5.43,6.82,6.83,6.83
22.99,-2.21,-9.04,-2.20,-9.03,9.03,8.93,5.58,6.83,6.83,6.83
23.22,-2.16,-8.99,-2.15,-8.99,8.99,8.89,5.73,6.83,6.84,6.83
23.45,-2.11,-8.95,-2.10,-8.94,8.94,8.85,5.89,6.84,6.84,6.84
23.69,-2.06,-8.90,-2.06,-8.90,8.90,8.81,6.05,6.84,6.84,6.84
23.92,-2.01,-8.85,-2.01,-8.85,8.85,8.77,6.21,6.84,6.84,6.84
24.16,-1.95,-8.79,-1.96,-8.81,8.81,8.73,6.37,6.86,6.85,6.84
24.40,-1.91,-8.76,-1.91,-8.76,8.76,8.69,6.54,6.85,6.85,6.85
24.65,-1.87,-8.72,-1.87,-8.72,8.72,8.65,6.71,6.85,6.85,6.85
24.89,-1.82,-8.67,-1.82,-8.67,8.67,8.60,6.88,6.86,6.85,6.85
25.14,-1.78,-8.63,-1.78,-8.63,8.63,8.56,7.06,6.85,6.85,6.85
25.39,-1.74,-8.59,-1.73,-8.58,8.58,8.52,7.24,6.85,6.85,6.85
25.65,-1.69,-8.54,-1.69,-8.54,8.54,8.48,7.42,6.85,6.85,6.85
25.91,-1.64,-8.49,-1.64,-8.49,8.49,8.43,7.60,6.86,6.85,6.85
26.16,-1.61,-8.46,-1.60,-8.45,8.45,8.39,7.78,6.84,6.85,6.85
26.43,-1.56,-8.41,-1.56,-8.41,8.41,8.35,7.96,6.85,6.85,6.85
26.69,-1.52,-8.37,-1.51,-8.36,8.36,8.30,8.14,6.85,6.85,6.85
26.96,-1.47,-8.32,-1.47,-8.32,8.32,8.26,8.32,6.85,6.85,6.85
27.23,-1.42,-8.27,-1.43,-8.28,8.28,8.22,8.50,6.86,6.85,6.85
27.50,-1.39,-8.24,-1.38,-8.24,8.24,8.17,8.67,6.85,6.85,6.85
27.77,-1.34,-8.19,-1.34,-8.19,8.19,8.13,8.84,6.86,6.85,6.85
28.05,-1.30,-8.15,-1.30,-8.15,8.15,8.09,9.01,6.85,6.85,6.85
28.33,-1.26,-8.11,-1.26,-8.11,8.11,8.05,9.16,6.85,6.85,6.85
28.62,-1.22,-8.07,-1.22,-8.07,8.07,8.00,9.31,6.85,6.85,6.85
28.90,-1.18,-8.03,-1.18,-8.03,8.03,7.96,9.45,6.85,6.85,6.85
29.19,-1.13,-7.98,-1.13,-7.99,7.99,7.92,9.58,6.86,6.85,6.85
29.48,-1.10,-7.95,-1.09,-7.95,7.95,7.87,9.69,6.85,6.85,6.85
29.78,-1.07,-7.92,-1.06,-7.90,7.90,7.83,9.79,6.84,6.85,6.85
30.08,-1.01,-7.86,-1.02,-7.86,7.86,7.79,9.87,6.86,6.85,6.85
30.38,-0.98,-7.82,-0.98,-7.82,7.82,7.74,9.94,6.84,6.84,6.84
30.68,-0.94,-7.78,-0.94,-7.78,7.78,7.70,10.00,6.84,6.84,6.84
30.99,-0.90,-7.74,-0.90,-7.74,7.74,7.66,10.03,6.84,6.84,6.84
31.30,-0.87,-7.70,-0.86,-7.70,7.70,7.62,10.05,6.83,6.84,6.83
31.61,-0.82,-7.65,-0.82,-7.66,7.66,7.57,10.04,6.84,6.83,6.83
31.93,-0.79,-7.61,-0.79,-7.61,7.61,7.53,10.02,6.83,6.83,6.82
32.24,-0.76,-7.58,-0.75,-7.57,7.57,7.49,9.99,6.81,6.82,6.82
32.57,-0.71,-7.52,-0.71,-7.53,7.53,7.45,9.94,6.82,6.82,6.81
32.89,-0.68,-7.49,-0.68,-7.49,7.49,7.40,9.87,6.81,6.81,6.81
33.22,-0.65,-7.45,-0.64,-7.44,7.44,7.36,9.78,6.80,6.80,6.80
33.55,-0.60,-7.40,-0.60,-7.40,7.40,7.32,9.69,6.80,6.80,6.80
33.89,-0.57,-7.36,-0.57,-7.36,7.36,7.27,9.58,6.79,6.79,6.79
34.23,-0.54,-7.32,-0.53,-7.32,7.32,7.23,9.46,6.78,6.78,6.78
34.57,-0.50,-7.27,-0.50,-7.27,7.27,7.19,9.33,6.78,6.77,6.77
34.92,-0.46,-7.22,-0.46,-7.23,7.23,7.14,9.19,6.77,6.76,6.76
35.27,-0.43,-7.19,-0.43,-7.19,7.19,7.10,9.05,6.76,6.75,6.76
35.62,-0.40,-7.14,-0.40,-7.14,7.14,7.06,8.91,6.74,6.74,6.74
35.97,-0.37,-7.10,-0.37,-7.10,7.10,7.01,8.75,6.73,6.73,6.73
36.33,-0.34,-7.06,-0.34,-7.05,7.05,6.97,8.60,6.72,6.72,6.72
36.70,-0.31,-7.01,-0.30,-7.01,7.01,6.93,8.45,6.70,6.70,6.70
37.06,-0.28,-6.97,-0.27,-6.96,6.96,6.88,8.29,6.69,6.69,6.69
37.43,-0.24,-6.91,-0.24,-6.92,6.92,6.84,8.13,6.68,6.67,6.67
37.81,-0.22,-6.87,-0.21,-6.87,6.87,6.79,7.98,6.65,6.66,6.65
38.19,-0.19,-6.83,-0.18,-6.82,6.82,6.75,7.82,6.64,6.64,6.64
38.57,-0.16,-6.78,-0.16,-6.78,6.78,6.70,7.67,6.62,6.62,6.62
38.95,-0.13,-6.73,-0.13,-6.73,6.73,6.65,7.52,6.60,6.60,6.60
39.34,-0.10,-6.68,-0.10,-6.68,6.68,6.61,7.37,6.58,6.58,6.58
39.74,-0.07,-6.63,-0.07,-6.63,6.63,6.56,7.23,6.57,6.56,6.56
40.14,-0.04,-6.58,-0.04,-6.58,6.58,6.51,7.09,6.55,6.54,6.54
40.54,-0.03,-6.55,-0.02,-6.53,6.53,6.46,6.95,6.51,6.52,6.52
40.94,0.02,-6.47,0.01,-6.48,6.48,6.42,6.82,6.51,6.49,6.49
41.35,0.03,-6.44,0.04,-6.43,6.43,6.37,6.69,6.47,6.47,6.47
41.76,0.06,-6.38,0.06,-6.38,6.38,6.32,6.57,6.44,6.45,6.44
42.18,0.09,-6.33,0.09,-6.33,6.33,6.27,6.45,6.42,6.42,6.42
42.60,0.10,-6.29,0.12,-6.27,6.27,6.22,6.33,6.38,6.39,6.39
43.03,0.15,-6.21,0.14,-6.22,6.22,6.16,6.22,6.37,6.36,6.36
43.46,0.16,-6.17,0.17,-6.17,6.17,6.11,6.11,6.33,6.33,6.33
43.90,0.19,-6.11,0.19,-6.11,6.11,6.06,6.01,6.31,6.30,6.30
44.33,0.22,-6.05,0.22,-6.06,6.06,6.01,5.91,6.28,6.27,6.27
44.78,0.23,-6.01,0.24,-6.00,6.00,5.95,5.81,6.23,6.24,6.24
45.23,0.28,-5.93,0.27,-5.94,5.94,5.90,5.72,6.22,6.21,6.21
45.68,0.28,-5.89,0.29,-5.88,5.88,5.85,5.64,6.16,6.17,6.17
46.13,0.32,-5.81,0.31,-5.82,5.82,5.79,5.56,6.14,6.13,6.13
46.60,0.32,-5.77,0.34,-5.76,5.76,5.74,5.48,6.08,6.09,6.09
47.06,0.36,-5.70,0.36,-5.70,5.70,5.68,5.40,6.06,6.05,6.06
47.53,0.36,-5.66,0.38,-5.63,5.63,5.62,5.33,6.00,6.01,6.02
48.01,0.41,-5.56,0.40,-5.57,5.57,5.56,5.27,5.98,5.97,5.97
48.49,0.42,-5.51,0.42,-5.51,5.51,5.51,5.20,5.93,5.93,5.93
48.97,0.45,-5.43,0.44,-5.45,5.45,5.45,5.14,5.90,5.89,5.88
49.46,0.45,-5.39,0.46,-5.38,5.38,5.39,5.08,5.84,5.85,5.84
49.96,0.49,-5.30,0.48,-5.32,5.32,5.33,5.03,5.81,5.80,5.79
50.46,0.49,-5.26,0.50,-5.26,5.26,5.27,4.98,5.75,5.76,5.75
50.96,0.53,-5.18,0.52,-5.19,5.19,5.21,4.93,5.72,5.71,5.71
51.47,0.54,-5.13,0.54,-5.13,5.13,5.15,4.89,5.67,5.67,5.67
51.99,0.55,-5.07,0.56,-5.06,5.06,5.08,4.84,5.61,5.62,5.62
52.51,0.58,-5.00,0.58,-5.00,5.00,5.02,4.80,5.58,5.58,5.58
53.03,0.58,-4.96,0.60,-4.93,4.93,4.96,4.76,5.52,5.53,5.54
53.56,0.62,-4.87,0.61,-4.87,4.87,4.89,4.72,5.49,5.48,5.49
54.10,0.62,-4.82,0.63,-4.81,4.81,4.83,4.68,5.43,5.44,5.44
54.64,0.67,-4.72,0.65,-4.74,4.74,4.76,4.64,5.42,5.40,5.39
55.18,0.67,-4.67,0.67,-4.68,4.68,4.70,4.61,5.35,5.35,5.34
55.74,0.67,-4.62,0.69,-4.62,4.62,4.63,4.57,5.29,5.31,5.29
56.29,0.71,-4.54,0.70,-4.56,4.56,4.57,4.53,5.27,5.26,5.25
56.86,0.71,-4.50,0.72,-4.50,4.50,4.50,4.50,5.21,5.22,5.21
57.42,0.75,-4.41,0.74,-4.43,4.43,4.43,4.46,5.19,5.17,5.16
58.00,0.75,-4.37,0.75,-4.37,4.37,4.37,4.42,5.12,5.12,5.12
58.58,0.75,-4.33,0.77,-4.31,4.31,4.30,4.38,5.06,5.07,5.08
59.16,0.80,-4.24,0.79,-4.24,4.24,4.23,4.33,5.04,5.02,5.04
59.76,0.80,-4.20,0.80,-4.18,4.18,4.16,4.29,4.98,4.97,5.00
60.35,0.80,-4.14,0.81,-4.11,4.11,4.10,4.24,4.91,4.92,4.94
60.96,0.84,-4.04,0.83,-4.04,4.04,4.03,4.19,4.88,4.87,4.88
61.57,0.84,-3.98,0.84,-3.97,3.97,3.96,4.14,4.82,4.82,4.82
62.18,0.84,-3.91,0.86,-3.91,3.91,3.89,4.09,4.75,4.76,4.75
62.80,0.88,-3.81,0.87,-3.84,3.84,3.82,4.03,4.72,4.71,4.69
63.43,0.88,-3.75,0.89,-3.76,3.76,3.75,3.97,4.65,4.65,4.63
64.07,0.88,-3.70,0.90,-3.70,3.70,3.68,3.91,4.58,4.60,4.58
64.71,0.93,-3.60,0.92,-3.62,3.62,3.61,3.85,4.56,4.54,4.53
65.35,0.93,-3.55,0.93,-3.55,3.55,3.54,3.78,4.49,4.48,4.48
66.01,0.93,-3.50,0.94,-3.48,3.48,3.47,3.71,4.42,4.43,4.43
66.67,0.97,-3.41,0.96,-3.41,3.41,3.40,3.63,4.39,4.37,4.38
67.33,0.97,-3.35,0.97,-3.34,3.34,3.33,3.56,4.32,4.32,4.32
68.01,0.97,-3.29,0.98,-3.28,3.28,3.26,3.48,4.25,4.26,4.26
68.69,1.01,-3.19,1.00,-3.20,3.20,3.19,3.40,4.22,4.20,4.20
69.37,1.01,-3.14,1.01,-3.14,3.14,3.12,3.32,4.15,4.15,4.15
70.07,1.01,-3.08,1.02,-3.07,3.07,3.05,3.24,4.08,4.09,4.09
70.77,1.01,-3.02,1.03,-2.99,2.99,2.98,3.15,4.01,4.03,4.03
71.48,1.06,-2.91,1.05,-2.92,2.92,2.91,3.07,3.98,3.97,3.97
72.19,1.06,-2.85,1.06,-2.85,2.85,2.84,2.98,3.91,3.91,3.91
72.91,1.06,-2.78,1.07,-2.78,2.78,2.76,2.90,3.84,3.85,3.84
73.64,1.06,-2.72,1.08,-2.71,2.71,2.69,2.81,3.78,3.79,3.78
74.38,1.10,-2.62,1.08,-2.64,2.64,2.62,2.72,3.75,3.73,3.72
75.12,1.10,-2.56,1.10,-2.58,2.58,2.55,2.63,3.68,3.67,3.66
75.87,1.10,-2.51,1.11,-2.51,2.51,2.48,2.55,3.61,3.61,3.61
76.63,1.10,-2.45,1.11,-2.44,2.44,2.41,2.46,3.55,3.56,3.55
77.40,1.13,-2.37,1.13,-2.38,2.38,2.34,2.37,3.51,3.50,3.50
78.17,1.14,-2.30,1.14,-2.31,2.31,2.27,2.28,3.45,3.44,3.44
78.95,1.14,-2.25,1.15,-2.24,2.24,2.20,2.20,3.39,3.39,3.39
79.74,1.14,-2.20,1.15,-2.18,2.18,2.13,2.11,3.32,3.33,3.34
80.54,1.14,-2.14,1.16,-2.11,2.11,2.06,2.02,3.26,3.28,3.28
81.35,1.19,-2.03,1.17,-2.05,2.05,1.99,1.94,3.24,3.22,3.22
82.16,1.19,-1.98,1.18,-1.99,1.99,1.93,1.85,3.18,3.17,3.17
82.98,1.19,-1.92,1.19,-1.92,1.92,1.86,1.77,3.11,3.11,3.11
83.81,1.19,-1.86,1.20,-1.86,1.86,1.79,1.69,3.05,3.05,3.05
84.65,1.19,-1.80,1.21,-1.79,1.79,1.72,1.61,2.98,3.00,2.99
85.50,1.23,-1.70,1.22,-1.72,1.72,1.65,1.52,2.95,2.94,2.93
86.35,1.23,-1.65,1.22,-1.66,1.66,1.58,1.44,2.89,2.88,2.88
87.22,1.23,-1.59,1.23,-1.59,1.59,1.51,1.36,2.82,2.82,2.82
88.09,1.23,-1.53,1.24,-1.52,1.52,1.45,1.29,2.76,2.76,2.76
88.97,1.23,-1.47,1.24,-1.46,1.46,1.38,1.21,2.69,2.70,2.70
89.86,1.23,-1.41,1.25,-1.39,1.39,1.31,1.13,2.62,2.64,2.64
90.76,1.27,-1.31,1.26,-1.32,1.32,1.24,1.06,2.59,2.58,2.58
91.66,1.27,-1.24,1.26,-1.25,1.25,1.18,0.98,2.52,2.51,2.51
92.58,1.27,-1.18,1.27,-1.18,1.18,1.11,0.91,2.45,2.45,2.45
93.51,1.27,-1.12,1.28,-1.11,1.11,1.04,0.83,2.38,2.39,2.39
94.44,1.27,-1.06,1.29,-1.04,1.04,0.98,0.76,2.31,2.32,2.33
95.39,1.28,-0.98,1.29,-0.97,0.97,0.91,0.69,2.25,2.26,2.26
96.34,1.30,-0.89,1.30,-0.90,0.90,0.84,0.62,2.20,2.19,2.19
97.30,1.32,-0.81,1.30,-0.83,0.83,0.78,0.55,2.15,2.13,2.13
98.28,1.32,-0.74,1.31,-0.76,0.76,0.71,0.48,2.08,2.06,2.06
99.26,1.32,-0.67,1.32,-0.69,0.69,0.65,0.41,2.01,2.00,1.99
100.25,1.32,-0.60,1.32,-0.62,0.62,0.58,0.34,1.94,1.94,1.92
101.25,1.32,-0.55,1.33,-0.55,0.55,0.52,0.27,1.87,1.88,1.87
102.27,1.32,-0.49,1.33,-0.48,0.48,0.45,0.21,1.81,1.81,1.81
103.29,1.32,-0.43,1.34,-0.42,0.42,0.39,0.14,1.74,1.75,1.75
104.32,1.32,-0.37,1.34,-0.35,0.35,0.32,0.07,1.67,1.69,1.69
105.37,1.34,-0.29,1.34,-0.29,0.29,0.26,0.01,1.63,1.63,1.63
106.42,1.36,-0.22,1.35,-0.23,0.23,0.20,-0.05,1.59,1.57,1.58
107.48,1.36,-0.15,1.35,-0.16,0.16,0.13,-0.12,1.53,1.51,1.51
108.56,1.36,-0.09,1.35,-0.10,0.10,0.07,-0.18,1.46,1.45,1.45
109.64,1.36,-0.03,1.36,-0.03,0.03,0.01,-0.24,1.40,1.39,1.39
110.74,1.36,0.03,1.36,0.03,-0.03,-0.06,-0.30,1.33,1.33,1.33
111.85,1.36,0.09,1.37,0.10,-0.10,-0.12,-0.35,1.26,1.26,1.27
112.97,1.36,0.16,1.37,0.17,-0.17,-0.18,-0.41,1.19,1.20,1.20
114.10,1.36,0.22,1.37,0.24,-0.24,-0.24,-0.47,1.12,1.14,1.14
115.24,1.36,0.29,1.38,0.31,-0.31,-0.30,-0.52,1.06,1.07,1.07
116.39,1.36,0.36,1.38,0.37,-0.37,-0.36,-0.57,0.99,1.01,1.00
117.55,1.39,0.45,1.38,0.44,-0.44,-0.42,-0.63,0.96,0.95,0.94
118.73,1.40,0.53,1.39,0.50,-0.50,-0.49,-0.67,0.90,0.88,0.87
119.92,1.40,0.59,1.39,0.57,-0.57,-0.55,-0.72,0.83,0.82,0.81
121.12,1.40,0.64,1.39,0.63,-0.63,-0.61,-0.77,0.77,0.76,0.76
122.33,1.40,0.70,1.40,0.70,-0.70,-0.67,-0.81,0.70,0.70,0.70
123.55,1.40,0.76,1.40,0.76,-0.76,-0.72,-0.86,0.64,0.64,0.64
124.79,1.40,0.82,1.40,0.83,-0.83,-0.78,-0.90,0.57,0.58,0.58
126.03,1.40,0.88,1.40,0.89,-0.89,-0.84,-0.94,0.51,0.51,0.52
127.29,1.40,0.94,1.41,0.95,-0.95,-0.90,-0.98,0.45,0.45,0.46
128.57,1.40,1.01,1.41,1.01,-1.01,-0.96,-1.02,0.39,0.39,0.39
129.85,1.40,1.07,1.40,1.07,-1.07,-1.02,-1.05,0.33,0.33,0.33
131.15,1.40,1.13,1.40,1.13,-1.13,-1.08,-1.09,0.27,0.27,0.27
132.46,1.40,1.19,1.40,1.19,-1.19,-1.13,-1.12,0.21,0.21,0.21
133.79,1.40,1.25,1.40,1.25,-1.25,-1.19,-1.16,0.15,0.15,0.15
135.12,1.40,1.31,1.40,1.31,-1.31,-1.25,-1.19,0.10,0.10,0.09
136.48,1.40,1.36,1.40,1.36,-1.36,-1.30,-1.22,0.04,0.04,0.04
137.84,1.40,1.42,1.40,1.42,-1.42,-1.36,-1.25,-0.02,-0.02,-0.02
139.22,1.40,1.48,1.40,1.47,-1.47,-1.41,-1.28,-0.07,-0.07,-0.08
140.61,1.40,1.53,1.40,1.52,-1.52,-1.47,-1.31,-0.12,-0.12,-0.13
142.02,1.40,1.58,1.40,1.58,-1.58,-1.52,-1.34,-0.17,-0.17,-0.18
143.44,1.40,1.63,1.40,1.63,-1.63,-1.58,-1.37,-0.22,-0.22,-0.23
144.87,1.40,1.67,1.40,1.68,-1.68,-1.63,-1.40,-0.27,-0.27,-0.27
146.32,1.40,1.72,1.40,1.72,-1.72,-1.69,-1.42,-0.32,-0.32,-0.32
147.78,1.40,1.77,1.40,1.77,-1.77,-1.74,-1.45,-0.37,-0.37,-0.37
149.26,1.40,1.82,1.40,1.82,-1.82,-1.79,-1.48,-0.42,-0.42,-0.42
150.75,1.40,1.87,1.41,1.87,-1.87,-1.84,-1.51,-0.47,-0.47,-0.47
152.26,1.40,1.91,1.41,1.92,-1.92,-1.90,-1.55,-0.52,-0.51,-0.51
153.78,1.40,1.96,1.40,1.97,-1.97,-1.95,-1.58,-0.56,-0.56,-0.56
155.32,1.40,2.01,1.40,2.01,-2.01,-2.00,-1.61,-0.61,-0.61,-0.61
156.88,1.40,2.06,1.40,2.06,-2.06,-2.05,-1.65,-0.66,-0.66,-0.66
158.44,1.40,2.11,1.40,2.11,-2.11,-2.10,-1.68,-0.70,-0.71,-0.71
160.03,1.40,2.16,1.40,2.15,-2.15,-2.15,-1.72,-0.75,-0.76,-0.76
161.63,1.40,2.21,1.39,2.20,-2.20,-2.20,-1.76,-0.80,-0.81,-0.81
163.24,1.40,2.26,1.39,2.25,-2.25,-2.25,-1.79,-0.85,-0.86,-0.86
164.88,1.38,2.29,1.39,2.29,-2.29,-2.29,-1.84,-0.91,-0.91,-0.91
166.53,1.37,2.33,1.38,2.34,-2.34,-2.34,-1.88,-0.97,-0.96,-0.96
168.19,1.36,2.37,1.38,2.39,-2.39,-2.39,-1.92,-1.02,-1.01,-1.01
169.87,1.36,2.42,1.37,2.43,-2.43,-2.43,-1.97,-1.07,-1.06,-1.06
171.57,1.36,2.47,1.37,2.47,-2.47,-2.48,-2.01,-1.11,-1.11,-1.11
173.29,1.36,2.52,1.36,2.52,-2.52,-2.53,-2.06,-1.15,-1.16,-1.16
175.02,1.36,2.57,1.35,2.56,-2.56,-2.57,-2.11,-1.19,-1.21,-1.21
176.77,1.34,2.60,1.34,2.60,-2.60,-2.61,-2.17,-1.26,-1.26,-1.26
178.54,1.32,2.63,1.33,2.64,-2.64,-2.66,-2.22,-1.32,-1.31,-1.31
180.32,1.32,2.68,1.32,2.68,-2.68,-2.70,-2.28,-1.35,-1.36,-1.36
182.13,1.32,2.73,1.31,2.72,-2.72,-2.74,-2.33,-1.39,-1.40,-1.41
183.95,1.32,2.77,1.30,2.76,-2.76,-2.78,-2.39,-1.43,-1.45,-1.45
185.79,1.27,2.77,1.29,2.79,-2.79,-2.82,-2.45,-1.52,-1.50,-1.50
187.65,1.27,2.82,1.28,2.83,-2.83,-2.86,-2.52,-1.55,-1.55,-1.55
189.52,1.27,2.87,1.26,2.86,-2.86,-2.90,-2.58,-1.59,-1.60,-1.60
191.42,1.23,2.87,1.25,2.89,-2.89,-2.94,-2.65,-1.66,-1.64,-1.64
193.33,1.23,2.92,1.23,2.92,-2.92,-2.98,-2.71,-1.69,-1.69,-1.69
195.27,1.23,2.96,1.22,2.95,-2.95,-3.01,-2.78,-1.71,-1.73,-1.73
197.22,1.19,2.97,1.20,2.97,-2.97,-3.05,-2.85,-1.78,-1.77,-1.78
199.19,1.19,3.01,1.18,3.00,-3.00,-3.09,-2.92,-1.80,-1.81,-1.82
201.18,1.19,3.05,1.17,3.02,-3.02,-3.12,-2.99,-1.83,-1.85,-1.86
203.19,1.14,3.04,1.15,3.04,-3.04,-3.15,-3.07,-1.90,-1.89,-1.90
205.23,1.14,3.07,1.14,3.07,-3.07,-3.19,-3.14,-1.93,-1.93,-1.93
207.28,1.14,3.11,1.13,3.10,-3.10,-3.22,-3.21,-1.96,-1.97,-1.97
209.35,1.10,3.11,1.12,3.13,-3.13,-3.25,-3.28,-2.02,-2.00,-2.01
211.44,1.10,3.14,1.12,3.16,-3.16,-3.28,-3.36,-2.05,-2.04,-2.04
213.56,1.10,3.17,1.12,3.19,-3.19,-3.31,-3.43,-2.09,-2.07,-2.07
215.69,1.10,3.20,1.12,3.22,-3.22,-3.34,-3.50,-2.12,-2.10,-2.10
217.85,1.10,3.23,1.12,3.26,-3.26,-3.36,-3.57,-2.16,-2.14,-2.13
220.03,1.12,3.29,1.14,3.30,-3.30,-3.39,-3.64,-2.18,-2.16,-2.17
222.23,1.14,3.34,1.15,3.34,-3.34,-3.41,-3.70,-2.20,-2.19,-2.20
224.45,1.15,3.38,1.16,3.38,-3.38,-3.44,-3.76,-2.23,-2.22,-2.23
226.70,1.19,3.44,1.18,3.43,-3.43,-3.46,-3.82,-2.23,-2.25,-2.25
228.96,1.19,3.46,1.19,3.47,-3.47,-3.48,-3.88,-2.27,-2.27,-2.27
231.25,1.23,3.53,1.21,3.51,-3.51,-3.51,-3.93,-2.28,-2.30,-2.30
233.57,1.23,3.55,1.23,3.55,-3.55,-3.53,-3.98,-2.32,-2.32,-2.32
235.90,1.25,3.60,1.24,3.59,-3.59,-3.55,-4.02,-2.33,-2.34,-2.35
238.26,1.27,3.64,1.25,3.62,-3.62,-3.56,-4.06,-2.35,-2.36,-2.37
240.64,1.27,3.65,1.26,3.65,-3.65,-3.58,-4.09,-2.37,-2.38,-2.38
243.05,1.27,3.67,1.27,3.67,-3.67,-3.60,-4.12,-2.40,-2.40,-2.40
245.48,1.27,3.69,1.27,3.69,-3.69,-3.61,-4.14,-2.42,-2.42,-2.42
247.93,1.27,3.71,1.27,3.71,-3.71,-3.63,-4.16,-2.43,-2.43,-2.44
250.41,1.27,3.72,1.27,3.72,-3.72,-3.64,-4.17,-2.45,-2.45,-2.45
252.92,1.27,3.73,1.27,3.73,-3.73,-3.65,-4.18,-2.46,-2.46,-2.46
255.45,1.27,3.75,1.26,3.74,-3.74,-3.66,-4.17,-2.47,-2.48,-2.48
258.00,1.25,3.74,1.26,3.75,-3.75,-3.67,-4.17,-2.49,-2.49,-2.49
260.58,1.23,3.73,1.25,3.75,-3.75,-3.68,-4.16,-2.52,-2.50,-2.50
263.19,1.23,3.74,1.24,3.75,-3.75,-3.69,-4.14,-2.52,-2.51,-2.51
265.82,1.23,3.75,1.23,3.75,-3.75,-3.70,-4.12,-2.52,-2.52,-2.52
268.48,1.23,3.76,1.23,3.76,-3.76,-3.70,-4.09,-2.52,-2.53,-2.53
271.16,1.23,3.77,1.22,3.76,-3.76,-3.71,-4.06,-2.52,-2.54,-2.54
273.87,1.19,3.74,1.21,3.75,-3.75,-3.71,-4.02,-2.56,-2.55,-2.55
276.61,1.19,3.75,1.20,3.75,-3.75,-3.71,-3.98,-2.56,-2.55,-2.56
279.38,1.19,3.76,1.19,3.75,-3.75,-3.71,-3.94,-2.55,-2.56,-2.57
282.17,1.19,3.76,1.18,3.74,-3.74,-3.71,-3.90,-2.55,-2.57,-2.57
284.99,1.16,3.73,1.17,3.74,-3.74,-3.71,-3.85,-2.57,-2.57,-2.57
287.84,1.14,3.71,1.16,3.73,-3.73,-3.71,-3.80,-2.59,-2.57,-2.57
290.72,1.14,3.72,1.15,3.72,-3.72,-3.71,-3.75,-2.58,-2.58,-2.58
293.63,1.14,3.72,1.14,3.72,-3.72,-3.71,-3.70,-2.57,-2.58,-2.58
296.57,1.14,3.72,1.13,3.71,-3.71,-3.70,-3.65,-2.56,-2.58,-2.58
299.53,1.10,3.68,1.12,3.70,-3.70,-3.70,-3.59,-2.60,-2.58,-2.58
302.53,1.10,3.68,1.11,3.69,-3.69,-3.69,-3.54,-2.59,-2.58,-2.58
305.55,1.10,3.68,1.10,3.68,-3.68,-3.68,-3.49,-2.58,-2.58,-2.58
308.61,1.10,3.68,1.09,3.67,-3.67,-3.67,-3.44,-2.56,-2.58,-2.58
311.69,1.06,3.64,1.08,3.65,-3.65,-3.66,-3.38,-2.59,-2.58,-2.58
314.81,1.06,3.64,1.07,3.64,-3.64,-3.65,-3.34,-2.58,-2.58,-2.58
317.96,1.06,3.64,1.06,3.63,-3.63,-3.64,-3.29,-2.57,-2.58,-2.58
321.14,1.06,3.64,1.04,3.62,-3.62,-3.63,-3.24,-2.56,-2.58,-2.58
324.35,1.01,3.59,1.03,3.60,-3.60,-3.62,-3.19,-2.59,-2.57,-2.58
327.59,1.01,3.58,1.02,3.59,-3.59,-3.60,-3.15,-2.58,-2.57,-2.57
330.87,1.01,3.58,1.00,3.57,-3.57,-3.59,-3.11,-2.56,-2.57,-2.57
334.18,0.97,3.54,0.99,3.55,-3.55,-3.57,-3.07,-2.58,-2.57,-2.57
337.52,0.97,3.54,0.97,3.53,-3.53,-3.56,-3.03,-2.56,-2.56,-2.57
340.90,0.97,3.53,0.95,3.51,-3.51,-3.54,-3.00,-2.54,-2.56,-2.56
344.30,0.93,3.49,0.94,3.49,-3.49,-3.52,-2.96,-2.56,-2.55,-2.56
347.75,0.93,3.48,0.92,3.47,-3.47,-3.51,-2.93,-2.54,-2.55,-2.55
351.23,0.90,3.45,0.91,3.45,-3.45,-3.49,-2.90,-2.55,-2.55,-2.55
354.74,0.88,3.42,0.89,3.43,-3.43,-3.47,-2.88,-2.55,-2.54,-2.54
358.28,0.88,3.42,0.87,3.41,-3.41,-3.45,-2.85,-2.53,-2.53,-2.54
361.87,0.84,3.37,0.86,3.39,-3.39,-3.43,-2.83,-2.54,-2.53,-2.53
365.49,0.84,3.36,0.84,3.37,-3.37,-3.40,-2.81,-2.52,-2.52,-2.52
369.14,0.82,3.34,0.83,3.34,-3.34,-3.38,-2.79,-2.52,-2.52,-2.52
372.83,0.80,3.31,0.81,3.32,-3.32,-3.36,-2.78,-2.52,-2.51,-2.51
376.56,0.80,3.31,0.80,3.30,-3.30,-3.33,-2.76,-2.50,-2.51,-2.51
380.33,0.79,3.29,0.78,3.28,-3.28,-3.31,-2.75,-2.49,-2.50,-2.50
384.13,0.75,3.25,0.77,3.26,-3.26,-3.29,-2.74,-2.51,-2.49,-2.50
387.97,0.75,3.24,0.75,3.24,-3.24,-3.26,-2.74,-2.49,-2.49,-2.49
391.85,0.75,3.23,0.74,3.22,-3.22,-3.24,-2.73,-2.47,-2.48,-2.48
395.77,0.71,3.19,0.73,3.20,-3.20,-3.21,-2.73,-2.49,-2.47,-2.48
399.73,0.71,3.18,0.71,3.18,-3.18,-3.18,-2.73,-2.47,-2.47,-2.47
403.72,0.71,3.17,0.70,3.16,-3.16,-3.16,-2.73,-2.45,-2.46,-2.46
407.76,0.67,3.13,0.68,3.14,-3.14,-3.13,-2.73,-2.47,-2.46,-2.46
411.84,0.67,3.12,0.67,3.12,-3.12,-3.10,-2.73,-2.44,-2.45,-2.45
415.96,0.67,3.11,0.65,3.09,-3.09,-3.07,-2.73,-2.42,-2.44,-2.44
420.12,0.62,3.06,0.63,3.07,-3.07,-3.04,-2.74,-2.44,-2.43,-2.44
424.32,0.62,3.05,0.61,3.04,-3.04,-3.02,-2.74,-2.42,-2.43,-2.43
428.56,0.58,3.00,0.60,3.02,-3.02,-2.99,-2.74,-2.43,-2.42,-2.42
432.85,0.58,2.99,0.58,2.99,-2.99,-2.96,-2.75,-2.41,-2.41,-2.41
437.18,0.55,2.96,0.56,2.96,-2.96,-2.93,-2.75,-2.41,-2.40,-2.41
441.55,0.54,2.94,0.54,2.93,-2.93,-2.90,-2.76,-2.39,-2.40,-2.40
445.96,0.51,2.90,0.52,2.90,-2.90,-2.87,-2.76,-2.39,-2.39,-2.39
450.42,0.49,2.87,0.49,2.87,-2.87,-2.84,-2.77,-2.38,-2.38,-2.38
454.93,0.47,2.84,0.47,2.84,-2.84,-2.81,-2.77,-2.37,-2.37,-2.37
459.48,0.45,2.81,0.45,2.81,-2.81,-2.77,-2.77,-2.36,-2.36,-2.36
464.07,0.43,2.78,0.43,2.78,-2.78,-2.74,-2.77,-2.35,-2.35,-2.35
468.71,0.41,2.75,0.41,2.75,-2.75,-2.71,-2.77,-2.34,-2.34,-2.34
473.40,0.39,2.72,0.39,2.72,-2.72,-2.68,-2.77,-2.32,-2.33,-2.33
478.13,0.36,2.68,0.37,2.69,-2.69,-2.65,-2.76,-2.32,-2.32,-2.32
482.91,0.33,2.64,0.34,2.65,-2.65,-2.62,-2.75,-2.32,-2.31,-2.31
487.74,0.32,2.62,0.32,2.62,-2.62,-2.59,-2.74,-2.30,-2.30,-2.30
492.62,0.30,2.59,0.30,2.59,-2.59,-2.55,-2.73,-2.29,-2.29,-2.29
497.55,0.28,2.56,0.28,2.56,-2.56,-2.52,-2.71,-2.27,-2.28,-2.28
502.52,0.26,2.53,0.26,2.52,-2.52,-2.49,-2.70,-2.26,-2.26,-2.27
507.55,0.23,2.48,0.24,2.49,-2.49,-2.46,-2.68,-2.26,-2.25,-2.25
512.62,0.22,2.46,0.21,2.46,-2.46,-2.42,-2.65,-2.23,-2.24,-2.24
