frequency,raw,error,smoothed,error_smoothed,equalization,parametric_eq,fixed_band_eq,equalized_raw,equalized_smoothed,target
20.00,-13.11,-15.65,-13.11,-15.68,15.68,15.70,6.02,2.57,2.56,2.54
20.20,-12.98,-15.61,-12.98,-15.62,15.62,15.63,6.16,2.64,2.64,2.63
20.40,-12.84,-15.55,-12.84,-15.56,15.56,15.55,6.31,2.72,2.71,2.71
20.61,-12.71,-15.49,-12.71,-15.49,15.49,15.47,6.46,2.78,2.78,2.77
20.81,-12.57,-15.44,-12.57,-15.43,15.43,15.39,6.62,2.85,2.85,2.87
21.02,-12.44,-15.39,-12.44,-15.36,15.36,15.30,6.77,2.91,2.92,2.94
21.23,-12.30,-15.31,-12.30,-15.28,15.28,15.21,6.94,2.98,2.98,3.00
21.44,-12.16,-15.22,-12.16,-15.21,15.21,15.11,7.11,3.05,3.04,3.06
21.66,-12.03,-15.15,-12.03,-15.13,15.13,15.02,7.28,3.09,3.10,3.11
21.87,-11.89,-15.05,-11.89,-15.05,15.05,14.92,7.45,3.16,3.15,3.16
22.09,-11.75,-14.96,-11.75,-14.96,14.96,14.82,7.64,3.21,3.21,3.21
22.31,-11.61,-14.87,-11.62,-14.87,14.87,14.72,7.82,3.26,3.26,3.26
22.54,-11.47,-14.77,-11.48,-14.78,14.78,14.61,8.01,3.30,3.30,3.30
22.76,-11.34,-14.68,-11.34,-14.68,14.68,14.51,8.21,3.34,3.34,3.34
22.99,-11.20,-14.57,-11.20,-14.58,14.58,14.40,8.41,3.38,3.38,3.37
23.22,-11.06,-14.47,-11.06,-14.48,14.48,14.29,8.62,3.42,3.42,3.41
23.45,-10.92,-14.37,-10.92,-14.38,14.38,14.18,8.83,3.46,3.46,3.45
23.69,-10.78,-14.27,-10.78,-14.27,14.27,14.08,9.05,3.49,3.49,3.49
23.92,-10.64,-14.17,-10.64,-14.17,14.17,13.97,9.27,3.53,3.53,3.53
24.16,-10.50,-14.08,-10.50,-14.07,14.07,13.86,9.50,3.57,3.56,3.58
24.40,-10.36,-13.97,-10.36,-13.96,13.96,13.74,9.74,3.60,3.60,3.60
24.65,-10.22,-13.86,-10.22,-13.85,13.85,13.63,9.98,3.63,3.63,3.63
24.89,-10.08,-13.74,-10.08,-13.75,13.75,13.52,10.22,3.67,3.67,3.66
25.14,-9.94,-13.64,-9.94,-13.64,13.64,13.41,10.48,3.70,3.70,3.70
25.39,-9.80,-13.53,-9.80,-13.53,13.53,13.30,10.73,3.73,3.73,3.73
25.65,-9.66,-13.43,-9.66,-13.42,13.42,13.19,10.99,3.76,3.76,3.77
25.91,-9.52,-13.31,-9.52,-13.31,13.31,13.08,11.26,3.79,3.80,3.79
26.16,-9.38,-13.20,-9.38,-13.21,13.21,12.97,11.53,3.83,3.83,3.82
26.43,-9.24,-13.10,-9.24,-13.09,13.09,12.86,11.80,3.85,3.86,3.86
26.69,-9.10,-12.99,-9.10,-12.98,12.98,12.75,12.08,3.88,3.88,3.88
26.96,-8.95,-12.87,-8.96,-12.87,12.87,12.64,12.36,3.92,3.91,3.91
27.23,-8.81,-12.77,-8.82,-12.76,12.76,12.53,12.64,3.95,3.94,3.95
27.50,-8.67,-12.65,-8.68,-12.65,12.65,12.42,12.92,3.98,3.97,3.98
27.77,-8.53,-12.53,-8.54,-12.54,12.54,12.31,13.19,4.01,4.00,4.00
28.05,-8.39,-12.43,-8.40,-12.43,12.43,12.20,13.46,4.04,4.03,4.04
28.33,-8.26,-12.32,-8.26,-12.32,12.32,12.10,13.72,4.06,4.06,4.06
28.62,-8.12,-12.21,-8.12,-12.21,12.21,11.99,13.97,4.09,4.09,4.08
28.90,-7.98,-12.10,-7.98,-12.10,12.10,11.88,14.21,4.12,4.12,4.12
29.19,-7.84,-11.98,-7.84,-11.99,11.99,11.78,14.43,4.15,4.15,4.14
29.48,-7.70,-11.89,-7.71,-11.89,11.89,11.67,14.63,4.18,4.18,4.19
29.78,-7.56,-11.77,-7.57,-11.78,11.78,11.56,14.81,4.21,4.21,4.21
30.08,-7.43,-11.67,-7.44,-11.67,11.67,11.46,14.96,4.23,4.23,4.23
30.38,-7.30,-11.57,-7.30,-11.56,11.56,11.35,15.08,4.26,4.26,4.26
30.68,-7.17,-11.46,-7.17,-11.45,11.45,11.25,15.16,4.28,4.29,4.29
30.99,-7.04,-11.35,-7.03,-11.35,11.35,11.14,15.21,4.30,4.31,4.31
31.30,-6.90,-11.24,-6.90,-11.24,11.24,11.04,15.23,4.33,4.34,4.34
31.61,-6.77,-11.14,-6.77,-11.13,11.13,10.94,15.20,4.36,4.36,4.36
31.93,-6.63,-11.01,-6.64,-11.02,11.02,10.83,15.14,4.39,4.39,4.38
32.24,-6.50,-10.90,-6.51,-10.91,10.91,10.73,15.05,4.41,4.41,4.40
32.57,-6.37,-10.80,-6.38,-10.80,10.80,10.63,14.92,4.43,4.43,4.42
32.89,-6.24,-10.69,-6.25,-10.69,10.69,10.53,14.76,4.45,4.45,4.45
33.22,-6.11,-10.58,-6.12,-10.58,10.58,10.43,14.58,4.47,4.47,4.47
33.55,-5.99,-10.48,-5.99,-10.47,10.47,10.33,14.38,4.48,4.48,4.49
33.89,-5.86,-10.36,-5.86,-10.36,10.36,10.22,14.16,4.49,4.50,4.49
34.23,-5.73,-10.25,-5.73,-10.24,10.24,10.12,13.93,4.51,4.51,4.52
34.57,-5.61,-10.14,-5.60,-10.13,10.13,10.02,13.69,4.52,4.52,4.53
34.92,-5.48,-10.02,-5.48,-10.01,10.01,9.92,13.43,4.53,4.53,4.53
35.27,-5.35,-9.90,-5.35,-9.90,9.90,9.82,13.17,4.54,4.54,4.55
35.62,-5.23,-9.78,-5.23,-9.78,9.78,9.73,12.91,4.55,4.55,4.54
35.97,-5.10,-9.65,-5.10,-9.66,9.66,9.63,12.65,4.56,4.56,4.55
36.33,-4.98,-9.55,-4.98,-9.54,9.54,9.53,12.39,4.56,4.56,4.57
36.70,-4.86,-9.42,-4.86,-9.42,9.42,9.43,12.13,4.56,4.56,4.56
37.06,-4.74,-9.30,-4.74,-9.30,9.30,9.33,11.87,4.56,4.56,4.56
37.43,-4.62,-9.18,-4.62,-9.18,9.18,9.23,11.61,4.56,4.56,4.56
37.81,-4.50,-9.06,-4.51,-9.07,9.07,9.14,11.36,4.56,4.56,4.56
38.19,-4.39,-8.95,-4.40,-8.95,8.95,9.04,11.12,4.56,4.55,4.55
38.57,-4.28,-8.84,-4.28,-8.84,8.84,8.94,10.88,4.55,4.55,4.56
38.95,-4.17,-8.72,-4.18,-8.72,8.72,8.85,10.64,4.55,4.55,4.55
39.34,-4.07,-8.61,-4.07,-8.61,8.61,8.75,10.42,4.54,4.54,4.54
39.74,-3.97,-8.50,-3.97,-8.50,8.50,8.65,10.19,4.53,4.54,4.53
40.14,-3.87,-8.40,-3.87,-8.40,8.40,8.56,9.98,4.52,4.53,4.52
40.54,-3.77,-8.29,-3.77,-8.29,8.29,8.46,9.77,4.52,4.52,4.52
40.94,-3.67,-8.18,-3.67,-8.19,8.19,8.37,9.56,4.52,4.51,4.51
41.35,-3.58,-8.09,-3.58,-8.09,8.09,8.27,9.36,4.50,4.50,4.50
41.76,-3.49,-7.99,-3.49,-7.99,7.99,8.18,9.17,4.49,4.49,4.50
42.18,-3.40,-7.89,-3.41,-7.89,7.89,8.08,8.99,4.49,4.48,4.49
42.60,-3.32,-7.79,-3.32,-7.79,7.79,7.99,8.81,4.47,4.47,4.47
43.03,-3.24,-7.71,-3.24,-7.70,7.70,7.89,8.63,4.46,4.46,4.47
43.46,-3.17,-7.63,-3.17,-7.62,7.62,7.80,8.46,4.44,4.45,4.45
43.90,-3.09,-7.53,-3.10,-7.53,7.53,7.71,8.30,4.44,4.44,4.44
44.33,-3.02,-7.44,-3.03,-7.45,7.45,7.61,8.14,4.43,4.42,4.42
44.78,-2.95,-7.36,-2.96,-7.38,7.38,7.52,7.99,4.42,4.41,4.41
45.23,-2.89,-7.28,-2.90,-7.30,7.30,7.43,7.84,4.41,4.40,4.39
45.68,-2.83,-7.21,-2.84,-7.23,7.23,7.33,7.70,4.40,4.39,4.38
46.13,-2.78,-7.15,-2.78,-7.16,7.16,7.24,7.56,4.38,4.37,4.37
46.60,-2.73,-7.10,-2.73,-7.09,7.09,7.15,7.43,4.36,4.36,4.37
47.06,-2.68,-7.04,-2.67,-7.02,7.02,7.06,7.31,4.34,4.35,4.35
47.53,-2.63,-6.98,-2.62,-6.96,6.96,6.97,7.18,4.32,4.34,4.34
48.01,-2.57,-6.91,-2.56,-6.89,6.89,6.88,7.06,4.32,4.33,4.34
48.49,-2.51,-6.84,-2.51,-6.83,6.83,6.79,6.95,4.32,4.32,4.33
48.97,-2.45,-6.77,-2.46,-6.77,6.77,6.70,6.84,4.32,4.31,4.32
49.46,-2.40,-6.69,-2.40,-6.71,6.71,6.61,6.73,4.31,4.31,4.29
49.96,-2.34,-6.62,-2.35,-6.65,6.65,6.52,6.63,4.30,4.30,4.28
50.46,-2.28,-6.57,-2.29,-6.58,6.58,6.43,6.53,4.30,4.29,4.28
50.96,-2.22,-6.51,-2.23,-6.52,6.52,6.34,6.43,4.29,4.29,4.29
51.47,-2.17,-6.45,-2.17,-6.45,6.45,6.25,6.34,4.28,4.28,4.27
51.99,-2.11,-6.38,-2.11,-6.38,6.38,6.16,6.25,4.27,4.27,4.27
52.51,-2.05,-6.32,-2.05,-6.31,6.31,6.07,6.16,4.26,4.26,4.27
53.03,-1.99,-6.26,-1.98,-6.24,6.24,5.98,6.07,4.25,4.26,4.26
53.56,-1.92,-6.18,-1.92,-6.16,6.16,5.90,5.99,4.24,4.25,4.26
54.10,-1.85,-6.10,-1.85,-6.09,6.09,5.81,5.90,4.24,4.24,4.25
54.64,-1.78,-6.01,-1.78,-6.01,6.01,5.72,5.82,4.23,4.23,4.23
55.18,-1.71,-5.93,-1.71,-5.93,5.93,5.64,5.74,4.22,4.22,4.22
55.74,-1.64,-5.84,-1.64,-5.84,5.84,5.55,5.66,4.20,4.21,4.20
56.29,-1.57,-5.76,-1.56,-5.75,5.75,5.46,5.58,4.18,4.19,4.19
56.86,-1.49,-5.66,-1.49,-5.66,5.66,5.38,5.50,4.17,4.17,4.17
57.42,-1.41,-5.56,-1.41,-5.57,5.57,5.29,5.43,4.16,4.15,4.15
58.00,-1.33,-5.46,-1.34,-5.47,5.47,5.21,5.35,4.14,4.13,4.13
58.58,-1.25,-5.36,-1.26,-5.37,5.37,5.12,5.27,4.12,4.11,4.11
59.16,-1.18,-5.28,-1.19,-5.27,5.27,5.04,5.19,4.08,4.08,4.09
59.76,-1.11,-5.18,-1.11,-5.16,5.16,4.95,5.11,4.05,4.05,4.07
60.35,-1.04,-5.07,-1.04,-5.06,5.06,4.87,5.03,4.02,4.03,4.03
60.96,-0.97,-4.99,-0.97,-4.96,4.96,4.79,4.94,3.99,4.00,4.02
61.57,-0.90,-4.87,-0.90,-4.87,4.87,4.70,4.86,3.96,3.97,3.97
62.18,-0.83,-4.76,-0.83,-4.77,4.77,4.62,4.77,3.94,3.94,3.93
62.80,-0.75,-4.66,-0.76,-4.68,4.68,4.54,4.68,3.92,3.91,3.91
63.43,-0.68,-4.55,-0.70,-4.59,4.59,4.45,4.59,3.90,3.89,3.87
64.07,-0.62,-4.47,-0.64,-4.50,4.50,4.37,4.50,3.88,3.86,3.85
64.71,-0.57,-4.40,-0.58,-4.42,4.42,4.29,4.41,3.84,3.84,3.83
65.35,-0.52,-4.33,-0.52,-4.34,4.34,4.21,4.31,3.82,3.82,3.81
66.01,-0.47,-4.26,-0.47,-4.26,4.26,4.13,4.21,3.79,3.80,3.79
66.67,-0.42,-4.20,-0.42,-4.19,4.19,4.05,4.12,3.77,3.78,3.78
67.33,-0.36,-4.12,-0.36,-4.12,4.12,3.97,4.02,3.76,3.76,3.76
68.01,-0.31,-4.06,-0.32,-4.06,4.06,3.89,3.91,3.75,3.74,3.75
68.69,-0.26,-3.99,-0.27,-4.00,4.00,3.80,3.81,3.74,3.73,3.73
69.37,-0.22,-3.94,-0.23,-3.94,3.94,3.72,3.71,3.72,3.72,3.72
70.07,-0.18,-3.88,-0.18,-3.88,3.88,3.64,3.60,3.70,3.70,3.70
70.77,-0.13,-3.83,-0.14,-3.82,3.82,3.56,3.50,3.69,3.69,3.70
71.48,-0.08,-3.76,-0.09,-3.76,3.76,3.49,3.39,3.68,3.67,3.68
72.19,-0.04,-3.70,-0.04,-3.70,3.70,3.41,3.28,3.65,3.65,3.66
72.91,-0.00,-3.65,0.01,-3.63,3.63,3.33,3.17,3.63,3.64,3.64
73.64,0.06,-3.56,0.06,-3.56,3.56,3.25,3.06,3.62,3.62,3.62
74.38,0.11,-3.50,0.11,-3.49,3.49,3.17,2.95,3.60,3.60,3.60
75.12,0.15,-3.43,0.16,-3.42,3.42,3.09,2.85,3.56,3.58,3.58
75.87,0.21,-3.35,0.22,-3.34,3.34,3.01,2.74,3.55,3.56,3.56
76.63,0.28,-3.27,0.28,-3.26,3.26,2.93,2.63,3.54,3.54,3.54
77.40,0.35,-3.17,0.34,-3.17,3.17,2.85,2.52,3.52,3.52,3.51
78.17,0.41,-3.08,0.41,-3.09,3.09,2.77,2.41,3.50,3.50,3.48
78.95,0.48,-3.00,0.48,-3.00,3.00,2.69,2.30,3.48,3.48,3.48
79.74,0.55,-2.91,0.55,-2.91,2.91,2.61,2.19,3.46,3.46,3.46
80.54,0.62,-2.82,0.62,-2.82,2.82,2.53,2.09,3.44,3.45,3.44
81.35,0.70,-2.73,0.70,-2.73,2.73,2.45,1.98,3.43,3.43,3.42
82.16,0.79,-2.62,0.78,-2.63,2.63,2.37,1.87,3.42,3.42,3.41
82.98,0.87,-2.54,0.87,-2.54,2.54,2.29,1.77,3.41,3.41,3.40
83.81,0.95,-2.44,0.95,-2.44,2.44,2.22,1.66,3.39,3.39,3.39
84.65,1.04,-2.33,1.04,-2.34,2.34,2.13,1.55,3.38,3.38,3.37
85.50,1.12,-2.25,1.13,-2.24,2.24,2.05,1.45,3.36,3.37,3.37
86.35,1.21,-2.16,1.22,-2.14,2.14,1.97,1.34,3.35,3.36,3.36
87.22,1.31,-2.04,1.31,-2.04,2.04,1.89,1.24,3.35,3.35,3.34
88.09,1.41,-1.93,1.40,-1.93,1.93,1.81,1.14,3.34,3.33,3.33
88.97,1.50,-1.82,1.49,-1.82,1.82,1.73,1.03,3.32,3.31,3.32
89.86,1.59,-1.71,1.58,-1.71,1.71,1.65,0.93,3.30,3.29,3.30
90.76,1.68,-1.59,1.66,-1.60,1.60,1.56,0.83,3.28,3.27,3.27
91.66,1.75,-1.50,1.75,-1.49,1.49,1.48,0.72,3.24,3.24,3.24
92.58,1.83,-1.37,1.84,-1.37,1.37,1.40,0.62,3.20,3.20,3.20
93.51,1.92,-1.26,1.92,-1.25,1.25,1.31,0.52,3.16,3.16,3.18
94.44,2.00,-1.13,2.00,-1.12,1.12,1.23,0.42,3.12,3.12,3.13
95.39,2.08,-1.01,2.08,-1.00,1.00,1.14,0.32,3.07,3.07,3.09
96.34,2.15,-0.88,2.15,-0.87,0.87,1.06,0.22,3.02,3.02,3.03
97.30,2.22,-0.75,2.22,-0.75,0.75,0.97,0.12,2.97,2.97,2.96
98.28,2.29,-0.62,2.29,-0.62,0.62,0.88,0.02,2.91,2.91,2.91
99.26,2.35,-0.49,2.35,-0.49,0.49,0.80,-0.08,2.84,2.84,2.84
100.25,2.42,-0.36,2.41,-0.36,0.36,0.71,-0.18,2.78,2.78,2.77
101.25,2.49,-0.22,2.47,-0.24,0.24,0.62,-0.28,2.73,2.71,2.71
102.27,2.54,-0.10,2.52,-0.12,0.12,0.53,-0.37,2.65,2.64,2.64
103.29,2.57,0.01,2.57,0.00,-0.00,0.43,-0.47,2.56,2.57,2.56
104.32,2.61,0.10,2.62,0.12,-0.12,0.34,-0.56,2.49,2.50,2.50
105.37,2.66,0.23,2.66,0.23,-0.23,0.25,-0.65,2.42,2.43,2.43
106.42,2.71,0.35,2.70,0.34,-0.34,0.16,-0.75,2.36,2.36,2.36
107.48,2.76,0.47,2.74,0.45,-0.45,0.06,-0.83,2.31,2.29,2.29
108.56,2.79,0.56,2.77,0.55,-0.55,-0.04,-0.92,2.24,2.23,2.22
109.64,2.81,0.65,2.80,0.65,-0.65,-0.13,-1.01,2.16,2.16,2.16
110.74,2.83,0.73,2.83,0.74,-0.74,-0.23,-1.09,2.09,2.09,2.10
111.85,2.86,0.82,2.86,0.83,-0.83,-0.33,-1.17,2.03,2.03,2.04
112.97,2.89,0.92,2.89,0.92,-0.92,-0.43,-1.25,1.97,1.97,1.96
114.10,2.92,1.00,2.92,1.00,-1.00,-0.53,-1.32,1.91,1.91,1.92
115.24,2.95,1.10,2.95,1.09,-1.09,-0.63,-1.39,1.86,1.86,1.85
116.39,2.96,1.16,2.97,1.17,-1.17,-0.73,-1.46,1.79,1.81,1.80
117.55,2.98,1.23,3.00,1.24,-1.24,-0.83,-1.52,1.73,1.76,1.75
118.73,3.01,1.31,3.03,1.32,-1.32,-0.94,-1.58,1.69,1.71,1.69
119.92,3.05,1.39,3.06,1.40,-1.40,-1.04,-1.63,1.65,1.66,1.66
121.12,3.09,1.47,3.09,1.47,-1.47,-1.14,-1.68,1.62,1.62,1.62
122.33,3.11,1.53,3.11,1.54,-1.54,-1.24,-1.73,1.57,1.58,1.57
123.55,3.14,1.60,3.14,1.61,-1.61,-1.35,-1.77,1.53,1.53,1.54
124.79,3.17,1.67,3.16,1.67,-1.67,-1.45,-1.80,1.50,1.50,1.50
126.03,3.20,1.73,3.18,1.72,-1.72,-1.55,-1.83,1.47,1.46,1.47
127.29,3.21,1.78,3.20,1.78,-1.78,-1.66,-1.86,1.43,1.42,1.43
128.57,3.22,1.84,3.21,1.83,-1.83,-1.76,-1.88,1.39,1.38,1.38
129.85,3.24,1.89,3.22,1.88,-1.88,-1.86,-1.90,1.36,1.34,1.35
131.15,3.24,1.93,3.22,1.92,-1.92,-1.95,-1.92,1.32,1.31,1.31
132.46,3.23,1.97,3.22,1.95,-1.95,-2.05,-1.92,1.28,1.27,1.26
133.79,3.21,1.97,3.21,1.98,-1.98,-2.14,-1.93,1.23,1.23,1.23
135.12,3.20,2.01,3.19,2.00,-2.00,-2.24,-1.93,1.20,1.19,1.19
136.48,3.19,2.03,3.17,2.02,-2.02,-2.32,-1.93,1.16,1.15,1.15
137.84,3.15,2.04,3.15,2.04,-2.04,-2.41,-1.93,1.11,1.11,1.11
139.22,3.13,2.07,3.12,2.06,-2.06,-2.49,-1.92,1.07,1.07,1.06
140.61,3.10,2.08,3.09,2.07,-2.07,-2.57,-1.91,1.03,1.02,1.02
142.02,3.06,2.07,3.06,2.08,-2.08,-2.64,-1.90,0.97,0.98,0.98
143.44,3.03,2.08,3.04,2.10,-2.10,-2.71,-1.89,0.93,0.94,0.94
144.87,2.99,2.09,3.01,2.11,-2.11,-2.77,-1.87,0.88,0.89,0.89
146.32,2.97,2.12,2.98,2.13,-2.13,-2.83,-1.86,0.84,0.85,0.85
147.78,2.94,2.13,2.96,2.15,-2.15,-2.89,-1.84,0.78,0.80,0.81
149.26,2.92,2.16,2.93,2.18,-2.18,-2.93,-1.82,0.74,0.76,0.76
150.75,2.90,2.19,2.91,2.20,-2.20,-2.97,-1.80,0.69,0.71,0.71
152.26,2.89,2.23,2.89,2.23,-2.23,-3.01,-1.78,0.66,0.66,0.66
153.78,2.87,2.25,2.87,2.26,-2.26,-3.04,-1.77,0.61,0.61,0.62
155.32,2.86,2.29,2.85,2.29,-2.29,-3.06,-1.75,0.57,0.56,0.57
156.88,2.84,2.31,2.83,2.32,-2.32,-3.08,-1.73,0.52,0.51,0.52
158.44,2.83,2.36,2.81,2.35,-2.35,-3.09,-1.71,0.48,0.46,0.46
160.03,2.81,2.39,2.78,2.37,-2.37,-3.10,-1.70,0.44,0.41,0.41
161.63,2.79,2.43,2.76,2.40,-2.40,-3.10,-1.68,0.39,0.36,0.36
163.24,2.76,2.45,2.73,2.42,-2.42,-3.09,-1.66,0.34,0.31,0.31
164.88,2.71,2.45,2.70,2.44,-2.44,-3.08,-1.65,0.27,0.27,0.26
166.53,2.68,2.46,2.68,2.46,-2.46,-3.07,-1.64,0.22,0.22,0.22
168.19,2.65,2.48,2.65,2.48,-2.48,-3.05,-1.63,0.17,0.17,0.17
169.87,2.61,2.48,2.63,2.50,-2.50,-3.03,-1.62,0.11,0.13,0.13
171.57,2.59,2.50,2.60,2.52,-2.52,-3.00,-1.61,0.07,0.08,0.08
173.29,2.57,2.52,2.58,2.54,-2.54,-2.97,-1.60,0.03,0.04,0.04
175.02,2.54,2.54,2.56,2.56,-2.56,-2.94,-1.59,-0.03,0.00,0.00
176.77,2.53,2.57,2.55,2.59,-2.59,-2.91,-1.59,-0.06,-0.04,-0.04
178.54,2.53,2.61,2.54,2.61,-2.61,-2.87,-1.58,-0.08,-0.07,-0.08
180.32,2.53,2.63,2.54,2.64,-2.64,-2.84,-1.58,-0.11,-0.10,-0.11
182.13,2.54,2.67,2.53,2.66,-2.66,-2.80,-1.58,-0.13,-0.13,-0.13
183.95,2.55,2.71,2.54,2.70,-2.70,-2.76,-1.58,-0.15,-0.16,-0.16
185.79,2.55,2.74,2.54,2.73,-2.73,-2.73,-1.59,-0.18,-0.18,-0.19
187.65,2.55,2.76,2.55,2.76,-2.76,-2.69,-1.59,-0.21,-0.21,-0.21
189.52,2.55,2.78,2.55,2.78,-2.78,-2.66,-1.59,-0.24,-0.23,-0.23
191.42,2.55,2.80,2.56,2.81,-2.81,-2.63,-1.60,-0.26,-0.25,-0.25
193.33,2.56,2.82,2.56,2.83,-2.83,-2.60,-1.61,-0.27,-0.27,-0.26
195.27,2.57,2.84,2.56,2.85,-2.85,-2.58,-1.62,-0.28,-0.29,-0.28
197.22,2.57,2.87,2.56,2.86,-2.86,-2.56,-1.63,-0.30,-0.30,-0.30
199.19,2.57,2.90,2.55,2.87,-2.87,-2.54,-1.64,-0.30,-0.32,-0.33
201.18,2.56,2.90,2.54,2.88,-2.88,-2.53,-1.65,-0.32,-0.34,-0.34
203.19,2.55,2.90,2.53,2.88,-2.88,-2.52,-1.66,-0.33,-0.35,-0.35
205.23,2.52,2.89,2.51,2.88,-2.88,-2.51,-1.67,-0.36,-0.37,-0.37
207.28,2.50,2.87,2.49,2.88,-2.88,-2.51,-1.68,-0.38,-0.38,-0.38
209.35,2.47,2.86,2.47,2.87,-2.87,-2.52,-1.70,-0.40,-0.40,-0.39
211.44,2.44,2.86,2.44,2.86,-2.86,-2.54,-1.71,-0.42,-0.41,-0.42
213.56,2.41,2.84,2.41,2.84,-2.84,-2.56,-1.72,-0.43,-0.43,-0.43
215.69,2.38,2.81,2.38,2.82,-2.82,-2.58,-1.73,-0.44,-0.44,-0.43
217.85,2.33,2.79,2.34,2.80,-2.80,-2.61,-1.75,-0.47,-0.46,-0.46
220.03,2.30,2.77,2.30,2.78,-2.78,-2.64,-1.76,-0.48,-0.47,-0.48
222.23,2.27,2.77,2.26,2.75,-2.75,-2.68,-1.77,-0.49,-0.49,-0.50
224.45,2.22,2.72,2.23,2.73,-2.73,-2.71,-1.77,-0.51,-0.51,-0.50
226.70,2.18,2.70,2.18,2.71,-2.71,-2.74,-1.78,-0.53,-0.52,-0.52
228.96,2.12,2.65,2.14,2.68,-2.68,-2.77,-1.79,-0.56,-0.54,-0.53
231.25,2.08,2.62,2.09,2.65,-2.65,-2.78,-1.79,-0.57,-0.56,-0.54
233.57,2.04,2.60,2.04,2.62,-2.62,-2.79,-1.79,-0.58,-0.57,-0.57
235.90,1.99,2.57,1.99,2.58,-2.58,-2.77,-1.79,-0.59,-0.59,-0.59
238.26,1.95,2.56,1.93,2.54,-2.54,-2.74,-1.79,-0.59,-0.61,-0.61
240.64,1.89,2.52,1.87,2.49,-2.49,-2.69,-1.78,-0.60,-0.62,-0.63
243.05,1.83,2.47,1.80,2.44,-2.44,-2.61,-1.78,-0.61,-0.63,-0.64
245.48,1.75,2.40,1.73,2.38,-2.38,-2.52,-1.76,-0.63,-0.65,-0.65
247.93,1.65,2.31,1.66,2.31,-2.31,-2.41,-1.75,-0.66,-0.66,-0.66
250.41,1.57,2.25,1.58,2.24,-2.24,-2.29,-1.73,-0.67,-0.66,-0.68
252.92,1.47,2.14,1.49,2.16,-2.16,-2.16,-1.71,-0.69,-0.67,-0.67
255.45,1.40,2.07,1.40,2.07,-2.07,-2.02,-1.69,-0.67,-0.67,-0.67
258.00,1.32,1.98,1.31,1.97,-1.97,-1.87,-1.67,-0.65,-0.66,-0.67
260.58,1.21,1.87,1.21,1.87,-1.87,-1.73,-1.64,-0.66,-0.66,-0.66
263.19,1.12,1.77,1.10,1.75,-1.75,-1.58,-1.61,-0.64,-0.65,-0.65
265.82,1.00,1.65,0.99,1.64,-1.64,-1.44,-1.57,-0.64,-0.64,-0.65
268.48,0.89,1.51,0.88,1.51,-1.51,-1.30,-1.53,-0.63,-0.63,-0.63
271.16,0.79,1.40,0.77,1.39,-1.39,-1.17,-1.49,-0.60,-0.62,-0.61
273.87,0.65,1.25,0.65,1.25,-1.25,-1.04,-1.45,-0.61,-0.60,-0.60
276.61,0.52,1.09,0.53,1.12,-1.12,-0.91,-1.41,-0.60,-0.59,-0.58
279.38,0.40,0.97,0.40,0.98,-0.98,-0.79,-1.36,-0.58,-0.58,-0.57
282.17,0.29,0.85,0.28,0.84,-0.84,-0.67,-1.31,-0.55,-0.56,-0.56
284.99,0.17,0.71,0.14,0.69,-0.69,-0.55,-1.26,-0.52,-0.55,-0.55
287.84,0.01,0.54,0.01,0.54,-0.54,-0.44,-1.21,-0.53,-0.53,-0.53
290.72,-0.12,0.38,-0.12,0.39,-0.39,-0.33,-1.16,-0.52,-0.51,-0.51
293.63,-0.24,0.26,-0.25,0.25,-0.25,-0.22,-1.11,-0.49,-0.49,-0.50
296.57,-0.38,0.09,-0.38,0.10,-0.10,-0.11,-1.05,-0.48,-0.48,-0.48
299.53,-0.50,-0.04,-0.50,-0.04,0.04,-0.00,-0.99,-0.46,-0.46,-0.46
302.53,-0.63,-0.18,-0.62,-0.18,0.18,0.10,-0.94,-0.45,-0.44,-0.46
305.55,-0.76,-0.34,-0.74,-0.32,0.32,0.21,-0.88,-0.44,-0.42,-0.42
308.61,-0.88,-0.48,-0.86,-0.46,0.46,0.32,-0.82,-0.42,-0.40,-0.40
311.69,-0.99,-0.61,-0.97,-0.59,0.59,0.43,-0.76,-0.40,-0.38,-0.38
314.81,-1.08,-0.74,-1.08,-0.73,0.73,0.54,-0.70,-0.36,-0.36,-0.34
317.96,-1.18,-0.86,-1.19,-0.85,0.85,0.66,-0.64,-0.33,-0.34,-0.33
321.14,-1.27,-0.96,-1.29,-0.98,0.98,0.77,-0.59,-0.30,-0.31,-0.31
324.35,-1.37,-1.08,-1.39,-1.10,1.10,0.89,-0.53,-0.27,-0.29,-0.29
327.59,-1.48,-1.22,-1.49,-1.22,1.22,1.01,-0.47,-0.26,-0.27,-0.27
330.87,-1.56,-1.31,-1.58,-1.34,1.34,1.13,-0.41,-0.23,-0.25,-0.25
334.18,-1.66,-1.44,-1.67,-1.45,1.45,1.25,-0.35,-0.21,-0.22,-0.22
337.52,-1.76,-1.56,-1.76,-1.56,1.56,1.38,-0.29,-0.20,-0.20,-0.21
340.90,-1.84,-1.66,-1.84,-1.66,1.66,1.51,-0.23,-0.18,-0.18,-0.18
344.30,-1.92,-1.77,-1.92,-1.76,1.76,1.64,-0.16,-0.16,-0.15,-0.15
347.75,-1.99,-1.86,-1.99,-1.86,1.86,1.76,-0.10,-0.13,-0.13,-0.14
351.23,-2.06,-1.95,-2.06,-1.95,1.95,1.89,-0.04,-0.11,-0.11,-0.11
354.74,-2.13,-2.05,-2.12,-2.04,2.04,2.01,0.02,-0.10,-0.08,-0.08
358.28,-2.19,-2.13,-2.17,-2.11,2.11,2.13,0.08,-0.08,-0.06,-0.06
361.87,-2.23,-2.20,-2.22,-2.18,2.18,2.24,0.14,-0.05,-0.04,-0.04
365.49,-2.27,-2.26,-2.26,-2.24,2.24,2.35,0.20,-0.03,-0.01,-0.01
369.14,-2.30,-2.30,-2.29,-2.30,2.30,2.44,0.26,-0.00,0.01,0.00
372.83,-2.32,-2.35,-2.31,-2.35,2.35,2.52,0.32,0.02,0.03,0.03
376.56,-2.33,-2.38,-2.33,-2.39,2.39,2.59,0.38,0.06,0.05,0.05
380.33,-2.33,-2.42,-2.35,-2.42,2.42,2.64,0.44,0.09,0.07,0.08
384.13,-2.34,-2.44,-2.36,-2.45,2.45,2.67,0.50,0.11,0.09,0.09
387.97,-2.35,-2.46,-2.36,-2.47,2.47,2.69,0.56,0.12,0.11,0.11
391.85,-2.35,-2.47,-2.36,-2.49,2.49,2.69,0.61,0.13,0.12,0.12
395.77,-2.34,-2.49,-2.36,-2.49,2.49,2.67,0.67,0.15,0.14,0.15
399.73,-2.33,-2.49,-2.35,-2.50,2.50,2.64,0.73,0.16,0.15,0.16
403.72,-2.33,-2.49,-2.34,-2.49,2.49,2.59,0.79,0.16,0.16,0.15
407.76,-2.32,-2.49,-2.32,-2.48,2.48,2.53,0.85,0.16,0.16,0.16
411.84,-2.31,-2.48,-2.30,-2.46,2.46,2.45,0.90,0.15,0.17,0.17
415.96,-2.28,-2.45,-2.27,-2.44,2.44,2.37,0.96,0.16,0.17,0.17
420.12,-2.24,-2.41,-2.24,-2.41,2.41,2.28,1.01,0.16,0.17,0.17
424.32,-2.20,-2.37,-2.20,-2.36,2.36,2.19,1.07,0.16,0.17,0.17
428.56,-2.15,-2.32,-2.15,-2.31,2.31,2.09,1.12,0.16,0.16,0.17
432.85,-2.10,-2.26,-2.09,-2.25,2.25,2.00,1.17,0.15,0.16,0.16
437.18,-2.04,-2.20,-2.03,-2.19,2.19,1.90,1.22,0.14,0.16,0.15
441.55,-1.97,-2.13,-1.96,-2.11,2.11,1.80,1.27,0.14,0.15,0.15
445.96,-1.90,-2.04,-1.89,-2.04,2.04,1.71,1.31,0.13,0.15,0.14
450.42,-1.81,-1.95,-1.81,-1.95,1.95,1.62,1.35,0.14,0.15,0.14
454.93,-1.73,-1.87,-1.72,-1.87,1.87,1.53,1.39,0.13,0.14,0.14
459.48,-1.62,-1.75,-1.63,-1.77,1.77,1.45,1.43,0.15,0.14,0.13
464.07,-1.52,-1.66,-1.54,-1.68,1.68,1.37,1.47,0.16,0.14,0.14
468.71,-1.43,-1.57,-1.45,-1.58,1.58,1.29,1.50,0.15,0.14,0.14
473.40,-1.34,-1.48,-1.35,-1.49,1.49,1.22,1.53,0.14,0.14,0.14
478.13,-1.25,-1.40,-1.25,-1.39,1.39,1.15,1.55,0.14,0.14,0.15
482.91,-1.15,-1.29,-1.15,-1.29,1.29,1.09,1.57,0.14,0.14,0.14
487.74,-1.06,-1.21,-1.05,-1.19,1.19,1.03,1.59,0.13,0.14,0.14
