frequency,raw,error,smoothed,error_smoothed,equalization,parametric_eq,fixed_band_eq,equalized_raw,equalized_smoothed,target
20.00,-4.15,-10.17,-4.20,-10.25,10.25,9.60,3.88,6.10,6.05,6.02
20.20,-4.09,-10.16,-4.12,-10.21,10.21,9.64,3.98,6.12,6.09,6.07
20.40,-4.03,-10.15,-4.04,-10.16,10.16,9.67,4.09,6.13,6.12,6.12
20.61,-3.97,-10.12,-3.96,-10.11,10.11,9.71,4.20,6.14,6.15,6.15
20.81,-3.91,-10.11,-3.88,-10.06,10.06,9.73,4.32,6.15,6.18,6.20
21.02,-3.84,-10.08,-3.80,-10.01,10.01,9.75,4.43,6.17,6.21,6.24
21.23,-3.76,-10.02,-3.72,-9.96,9.96,9.77,4.55,6.20,6.24,6.26
21.44,-3.68,-9.96,-3.65,-9.91,9.91,9.79,4.68,6.23,6.26,6.28
21.66,-3.59,-9.89,-3.58,-9.86,9.86,9.80,4.80,6.26,6.28,6.30
21.87,-3.51,-9.82,-3.51,-9.80,9.80,9.80,4.93,6.29,6.30,6.31
22.09,-3.43,-9.76,-3.44,-9.75,9.75,9.80,5.06,6.32,6.31,6.33
22.31,-3.36,-9.70,-3.37,-9.70,9.70,9.80,5.20,6.33,6.32,6.33
22.54,-3.29,-9.63,-3.30,-9.63,9.63,9.79,5.34,6.34,6.33,6.33
22.76,-3.22,-9.55,-3.23,-9.57,9.57,9.78,5.49,6.35,6.33,6.33
22.99,-3.15,-9.47,-3.17,-9.51,9.51,9.76,5.63,6.36,6.34,6.32
23.22,-3.10,-9.42,-3.11,-9.45,9.45,9.74,5.78,6.35,6.34,6.32
23.45,-3.04,-9.36,-3.05,-9.39,9.39,9.72,5.94,6.35,6.34,6.32
23.69,-2.98,-9.31,-3.00,-9.34,9.34,9.69,6.10,6.35,6.34,6.33
23.92,-2.93,-9.26,-2.94,-9.28,9.28,9.66,6.26,6.35,6.34,6.33
24.16,-2.89,-9.23,-2.89,-9.22,9.22,9.63,6.42,6.33,6.34,6.34
24.40,-2.85,-9.20,-2.83,-9.17,9.17,9.59,6.59,6.32,6.34,6.35
24.65,-2.81,-9.15,-2.78,-9.12,9.12,9.54,6.76,6.30,6.34,6.34
24.89,-2.78,-9.12,-2.73,-9.07,9.07,9.50,6.93,6.29,6.34,6.34
25.14,-2.71,-9.05,-2.68,-9.02,9.02,9.45,7.10,6.31,6.34,6.34
25.39,-2.64,-8.98,-2.64,-8.97,8.97,9.40,7.28,6.33,6.34,6.34
25.65,-2.56,-8.91,-2.59,-8.93,8.93,9.35,7.46,6.37,6.34,6.34
25.91,-2.48,-8.82,-2.54,-8.88,8.88,9.29,7.64,6.40,6.34,6.33
26.16,-2.44,-8.77,-2.50,-8.83,8.83,9.23,7.82,6.39,6.34,6.33
26.43,-2.42,-8.75,-2.45,-8.78,8.78,9.17,8.00,6.36,6.33,6.33
26.69,-2.40,-8.73,-2.40,-8.73,8.73,9.11,8.18,6.33,6.33,6.33
26.96,-2.38,-8.72,-2.35,-8.68,8.68,9.04,8.35,6.30,6.33,6.34
27.23,-2.33,-8.67,-2.30,-8.63,8.63,8.98,8.53,6.29,6.33,6.34
27.50,-2.28,-8.62,-2.25,-8.58,8.58,8.91,8.70,6.30,6.33,6.33
27.77,-2.22,-8.54,-2.20,-8.53,8.53,8.84,8.86,6.31,6.32,6.32
28.05,-2.17,-8.49,-2.16,-8.48,8.48,8.77,9.02,6.31,6.32,6.32
28.33,-2.10,-8.41,-2.11,-8.43,8.43,8.70,9.18,6.33,6.32,6.31
28.62,-2.04,-8.35,-2.05,-8.37,8.37,8.63,9.32,6.33,6.32,6.31
28.90,-1.97,-8.29,-1.99,-8.31,8.31,8.56,9.46,6.34,6.32,6.32
29.19,-1.92,-8.23,-1.93,-8.24,8.24,8.49,9.58,6.32,6.31,6.30
29.48,-1.87,-8.19,-1.85,-8.17,8.17,8.41,9.69,6.29,6.31,6.32
29.78,-1.82,-8.13,-1.78,-8.09,8.09,8.34,9.79,6.27,6.31,6.31
30.08,-1.76,-8.08,-1.72,-8.02,8.02,8.27,9.87,6.26,6.31,6.32
30.38,-1.68,-7.99,-1.66,-7.96,7.96,8.19,9.94,6.28,6.31,6.31
30.68,-1.60,-7.91,-1.60,-7.91,7.91,8.12,9.99,6.30,6.30,6.30
30.99,-1.51,-7.81,-1.55,-7.86,7.86,8.05,10.03,6.34,6.30,6.30
31.30,-1.45,-7.75,-1.51,-7.81,7.81,7.97,10.04,6.35,6.30,6.30
31.61,-1.38,-7.68,-1.46,-7.76,7.76,7.90,10.05,6.37,6.30,6.30
31.93,-1.32,-7.62,-1.41,-7.70,7.70,7.83,10.03,6.38,6.29,6.29
32.24,-1.31,-7.59,-1.36,-7.64,7.64,7.76,10.00,6.33,6.29,6.28
32.57,-1.33,-7.62,-1.31,-7.59,7.59,7.69,9.95,6.26,6.28,6.29
32.89,-1.34,-7.63,-1.26,-7.54,7.54,7.62,9.89,6.20,6.28,6.29
33.22,-1.31,-7.58,-1.22,-7.50,7.50,7.55,9.81,6.19,6.27,6.27
33.55,-1.26,-7.53,-1.19,-7.45,7.45,7.48,9.72,6.19,6.27,6.27
33.89,-1.20,-7.46,-1.15,-7.41,7.41,7.41,9.62,6.21,6.26,6.26
34.23,-1.12,-7.39,-1.11,-7.37,7.37,7.35,9.51,6.25,6.26,6.26
34.57,-1.02,-7.27,-1.07,-7.33,7.33,7.28,9.39,6.30,6.25,6.25
34.92,-0.92,-7.17,-1.03,-7.28,7.28,7.22,9.27,6.35,6.25,6.25
35.27,-0.91,-7.15,-0.98,-7.22,7.22,7.16,9.14,6.31,6.24,6.24
35.62,-0.93,-7.17,-0.93,-7.17,7.17,7.10,9.00,6.24,6.24,6.24
35.97,-0.95,-7.18,-0.87,-7.11,7.11,7.04,8.86,6.16,6.24,6.23
36.33,-0.88,-7.12,-0.82,-7.06,7.06,6.98,8.72,6.18,6.23,6.24
36.70,-0.80,-7.03,-0.78,-7.01,7.01,6.92,8.58,6.21,6.23,6.23
37.06,-0.73,-6.95,-0.74,-6.97,6.97,6.87,8.44,6.24,6.23,6.22
37.43,-0.68,-6.92,-0.70,-6.93,6.93,6.82,8.29,6.25,6.23,6.24
37.81,-0.63,-6.86,-0.66,-6.89,6.89,6.76,8.15,6.26,6.23,6.23
38.19,-0.59,-6.82,-0.63,-6.86,6.86,6.71,8.01,6.27,6.23,6.23
38.57,-0.56,-6.79,-0.60,-6.83,6.83,6.66,7.87,6.27,6.23,6.23
38.95,-0.53,-6.77,-0.56,-6.79,6.79,6.62,7.73,6.26,6.23,6.24
39.34,-0.53,-6.76,-0.52,-6.75,6.75,6.57,7.60,6.22,6.23,6.23
39.74,-0.53,-6.75,-0.48,-6.70,6.70,6.53,7.47,6.17,6.23,6.22
40.14,-0.50,-6.73,-0.44,-6.66,6.66,6.48,7.34,6.16,6.22,6.23
40.54,-0.42,-6.64,-0.41,-6.63,6.63,6.44,7.22,6.20,6.22,6.22
40.94,-0.34,-6.56,-0.37,-6.59,6.59,6.41,7.10,6.25,6.22,6.21
41.35,-0.33,-6.54,-0.34,-6.55,6.55,6.37,6.99,6.22,6.21,6.21
41.76,-0.33,-6.53,-0.31,-6.51,6.51,6.33,6.88,6.17,6.20,6.20
42.18,-0.29,-6.49,-0.27,-6.46,6.46,6.30,6.77,6.17,6.19,6.20
42.60,-0.21,-6.40,-0.23,-6.41,6.41,6.27,6.67,6.19,6.18,6.18
43.03,-0.13,-6.31,-0.18,-6.35,6.35,6.24,6.57,6.22,6.17,6.18
43.46,-0.13,-6.30,-0.15,-6.30,6.30,6.21,6.48,6.17,6.15,6.17
43.90,-0.13,-6.27,-0.11,-6.25,6.25,6.18,6.39,6.12,6.14,6.14
44.33,-0.10,-6.22,-0.08,-6.21,6.21,6.15,6.31,6.11,6.13,6.12
44.78,-0.06,-6.16,-0.05,-6.17,6.17,6.13,6.23,6.10,6.11,6.10
45.23,-0.01,-6.10,-0.03,-6.13,6.13,6.11,6.16,6.11,6.10,6.09
45.68,0.03,-6.04,-0.00,-6.08,6.08,6.08,6.09,6.11,6.08,6.07
46.13,0.07,-5.98,0.03,-6.04,6.04,6.06,6.02,6.10,6.06,6.05
46.60,0.07,-5.98,0.06,-5.99,5.99,6.04,5.96,6.06,6.05,6.05
47.06,0.07,-5.96,0.08,-5.95,5.95,6.02,5.91,6.02,6.03,6.03
47.53,0.07,-5.95,0.10,-5.91,5.91,6.00,5.85,5.98,6.01,6.02
48.01,0.07,-5.95,0.12,-5.87,5.87,5.99,5.80,5.94,6.00,6.01
48.49,0.12,-5.87,0.15,-5.83,5.83,5.97,5.76,5.95,5.98,5.99
48.97,0.17,-5.80,0.17,-5.79,5.79,5.95,5.72,5.96,5.97,5.97
49.46,0.22,-5.73,0.20,-5.75,5.75,5.93,5.68,5.97,5.95,5.95
49.96,0.27,-5.65,0.23,-5.71,5.71,5.92,5.65,5.98,5.93,5.92
50.46,0.27,-5.65,0.25,-5.67,5.67,5.90,5.61,5.94,5.92,5.92
50.96,0.27,-5.63,0.28,-5.63,5.63,5.88,5.58,5.90,5.90,5.90
51.47,0.29,-5.59,0.30,-5.59,5.59,5.86,5.56,5.88,5.89,5.88
51.99,0.32,-5.54,0.33,-5.55,5.55,5.84,5.53,5.86,5.87,5.86
52.51,0.35,-5.51,0.35,-5.50,5.50,5.82,5.51,5.85,5.86,5.85
53.03,0.38,-5.47,0.38,-5.46,5.46,5.80,5.49,5.84,5.84,5.85
53.56,0.43,-5.40,0.41,-5.41,5.41,5.77,5.47,5.84,5.82,5.83
54.10,0.47,-5.34,0.44,-5.37,5.37,5.75,5.45,5.84,5.81,5.81
54.64,0.47,-5.32,0.47,-5.33,5.33,5.72,5.43,5.80,5.80,5.79
55.18,0.47,-5.31,0.49,-5.29,5.29,5.69,5.41,5.76,5.78,5.78
55.74,0.47,-5.29,0.51,-5.26,5.26,5.65,5.39,5.73,5.77,5.76
56.29,0.50,-5.25,0.53,-5.22,5.22,5.62,5.38,5.72,5.75,5.75
56.86,0.56,-5.17,0.55,-5.18,5.18,5.58,5.36,5.74,5.73,5.73
57.42,0.61,-5.09,0.58,-5.13,5.13,5.54,5.33,5.74,5.71,5.70
58.00,0.67,-5.02,0.60,-5.08,5.08,5.50,5.31,5.75,5.69,5.69
58.58,0.67,-5.00,0.63,-5.03,5.03,5.45,5.28,5.70,5.66,5.67
59.16,0.67,-4.98,0.66,-4.98,4.98,5.40,5.26,5.64,5.63,5.65
59.76,0.67,-4.95,0.68,-4.92,4.92,5.35,5.23,5.59,5.60,5.62
60.35,0.66,-4.92,0.71,-4.86,4.86,5.29,5.19,5.51,5.57,5.58
60.96,0.63,-4.91,0.74,-4.79,4.79,5.24,5.15,5.42,5.53,5.54
61.57,0.71,-4.78,0.77,-4.72,4.72,5.18,5.11,5.43,5.49,5.49
62.18,0.80,-4.65,0.79,-4.66,4.66,5.11,5.07,5.45,5.45,5.44
62.80,0.88,-4.52,0.81,-4.59,4.59,5.05,5.02,5.47,5.40,5.39
63.43,0.89,-4.46,0.83,-4.52,4.52,4.98,4.97,5.41,5.35,5.34
64.07,0.87,-4.43,0.85,-4.45,4.45,4.91,4.91,5.32,5.30,5.29
64.71,0.87,-4.37,0.87,-4.38,4.38,4.84,4.86,5.25,5.25,5.24
65.35,0.87,-4.33,0.89,-4.31,4.31,4.76,4.79,5.18,5.20,5.20
66.01,0.87,-4.28,0.90,-4.24,4.24,4.69,4.73,5.11,5.15,5.15
66.67,0.87,-4.22,0.91,-4.19,4.19,4.61,4.66,5.06,5.09,5.09
67.33,0.87,-4.17,0.90,-4.14,4.14,4.53,4.59,5.01,5.04,5.04
68.01,0.87,-4.12,0.87,-4.11,4.11,4.45,4.51,4.98,4.99,4.99
68.69,0.87,-4.06,0.83,-4.10,4.10,4.37,4.43,4.97,4.93,4.93
69.37,0.83,-4.05,0.77,-4.10,4.10,4.29,4.35,4.93,4.87,4.87
70.07,0.76,-4.06,0.70,-4.11,4.11,4.20,4.27,4.87,4.81,4.81
70.77,0.71,-4.06,0.62,-4.13,4.13,4.12,4.19,4.84,4.75,4.76
71.48,0.63,-4.07,0.52,-4.17,4.17,4.04,4.10,4.80,4.69,4.70
72.19,0.51,-4.12,0.41,-4.22,4.22,3.96,4.02,4.73,4.63,4.63
72.91,0.30,-4.27,0.29,-4.27,4.27,3.87,3.93,4.57,4.57,4.57
73.64,0.22,-4.29,0.18,-4.32,4.32,3.79,3.85,4.54,4.50,4.50
74.38,0.09,-4.35,0.07,-4.37,4.37,3.71,3.76,4.45,4.44,4.44
75.12,-0.08,-4.45,-0.03,-4.41,4.41,3.63,3.67,4.33,4.38,4.37
75.87,-0.17,-4.48,-0.12,-4.44,4.44,3.55,3.59,4.27,4.31,4.30
76.63,-0.27,-4.52,-0.20,-4.45,4.45,3.47,3.50,4.18,4.25,4.25
77.40,-0.35,-4.54,-0.24,-4.43,4.43,3.39,3.42,4.08,4.19,4.19
78.17,-0.42,-4.54,-0.25,-4.38,4.38,3.31,3.33,3.96,4.13,4.12
78.95,-0.44,-4.52,-0.24,-4.32,4.32,3.24,3.25,3.88,4.07,4.08
79.74,-0.22,-4.24,-0.21,-4.22,4.22,3.16,3.17,4.00,4.01,4.01
80.54,-0.12,-4.08,-0.14,-4.09,4.09,3.08,3.09,3.97,3.96,3.96
81.35,-0.08,-3.98,-0.05,-3.95,3.95,3.01,3.01,3.87,3.90,3.90
82.16,-0.01,-3.85,0.05,-3.79,3.79,2.94,2.93,3.78,3.85,3.84
82.98,0.10,-3.70,0.17,-3.62,3.62,2.87,2.85,3.72,3.79,3.80
83.81,0.28,-3.45,0.29,-3.45,3.45,2.80,2.78,3.73,3.73,3.73
84.65,0.48,-3.20,0.39,-3.28,3.28,2.73,2.71,3.76,3.68,3.67
85.50,0.60,-3.03,0.49,-3.13,3.13,2.66,2.64,3.73,3.62,3.63
86.35,0.64,-2.93,0.56,-3.00,3.00,2.59,2.57,3.64,3.56,3.57
87.22,0.66,-2.85,0.60,-2.90,2.90,2.53,2.50,3.56,3.50,3.51
88.09,0.77,-2.68,0.61,-2.83,2.83,2.46,2.43,3.60,3.44,3.45
88.97,0.75,-2.64,0.58,-2.80,2.80,2.40,2.37,3.55,3.38,3.39
89.86,0.64,-2.69,0.54,-2.78,2.78,2.34,2.31,3.42,3.32,3.32
90.76,0.61,-2.65,0.48,-2.79,2.79,2.28,2.24,3.39,3.26,3.26
91.66,0.52,-2.69,0.40,-2.80,2.80,2.22,2.18,3.32,3.20,3.21
92.58,0.35,-2.79,0.32,-2.83,2.83,2.16,2.13,3.18,3.15,3.13
93.51,0.16,-2.92,0.22,-2.86,2.86,2.10,2.07,3.02,3.09,3.08
94.44,0.01,-3.02,0.14,-2.89,2.89,2.04,2.02,2.90,3.03,3.03
95.39,-0.08,-3.05,0.07,-2.90,2.90,1.99,1.96,2.82,2.97,2.97
96.34,-0.15,-3.06,0.01,-2.89,2.89,1.93,1.91,2.74,2.91,2.90
97.30,-0.23,-3.08,-0.02,-2.87,2.87,1.88,1.86,2.64,2.85,2.85
98.28,-0.21,-3.00,-0.04,-2.83,2.83,1.83,1.81,2.62,2.79,2.79
99.26,-0.10,-2.84,-0.03,-2.77,2.77,1.78,1.77,2.67,2.74,2.73
100.25,-0.01,-2.69,-0.02,-2.69,2.69,1.73,1.72,2.68,2.68,2.68
101.25,0.08,-2.54,0.01,-2.61,2.61,1.68,1.68,2.69,2.62,2.62
102.27,0.13,-2.43,0.06,-2.50,2.50,1.63,1.63,2.63,2.56,2.56
103.29,0.21,-2.29,0.12,-2.39,2.39,1.58,1.59,2.59,2.50,2.50
104.32,0.28,-2.17,0.18,-2.26,2.26,1.53,1.55,2.54,2.44,2.45
105.37,0.31,-2.08,0.24,-2.14,2.14,1.48,1.51,2.45,2.38,2.39
106.42,0.36,-1.97,0.29,-2.03,2.03,1.44,1.47,2.39,2.32,2.33
107.48,0.40,-1.87,0.33,-1.93,1.93,1.39,1.43,2.33,2.26,2.26
108.56,0.38,-1.82,0.37,-1.83,1.83,1.35,1.39,2.21,2.20,2.20
109.64,0.33,-1.81,0.40,-1.74,1.74,1.30,1.36,2.07,2.14,2.14
110.74,0.31,-1.76,0.42,-1.65,1.65,1.26,1.32,1.96,2.07,2.07
111.85,0.46,-1.57,0.45,-1.56,1.56,1.22,1.28,2.02,2.01,2.02
112.97,0.52,-1.43,0.47,-1.48,1.48,1.17,1.25,2.00,1.95,1.95
114.10,0.50,-1.39,0.50,-1.39,1.39,1.13,1.21,1.89,1.89,1.89
115.24,0.50,-1.34,0.53,-1.31,1.31,1.09,1.18,1.81,1.84,1.83
116.39,0.49,-1.28,0.56,-1.23,1.23,1.05,1.15,1.72,1.78,1.77
117.55,0.49,-1.23,0.58,-1.15,1.15,1.01,1.11,1.63,1.73,1.72
118.73,0.65,-1.02,0.61,-1.07,1.07,0.97,1.08,1.71,1.68,1.67
119.92,0.73,-0.91,0.64,-0.99,0.99,0.93,1.05,1.72,1.63,1.63
121.12,0.72,-0.86,0.67,-0.91,0.91,0.89,1.01,1.63,1.59,1.58
122.33,0.73,-0.81,0.70,-0.84,0.84,0.85,0.98,1.57,1.54,1.54
123.55,0.74,-0.77,0.72,-0.78,0.78,0.81,0.95,1.52,1.50,1.50
124.79,0.74,-0.72,0.73,-0.73,0.73,0.77,0.92,1.46,1.46,1.46
126.03,0.75,-0.67,0.75,-0.67,0.67,0.73,0.88,1.42,1.42,1.42
127.29,0.76,-0.63,0.76,-0.62,0.62,0.69,0.85,1.38,1.38,1.39
128.57,0.76,-0.58,0.77,-0.57,0.57,0.65,0.82,1.33,1.34,1.34
129.85,0.77,-0.53,0.77,-0.53,0.53,0.61,0.78,1.30,1.30,1.30
131.15,0.77,-0.49,0.78,-0.49,0.49,0.57,0.75,1.25,1.26,1.26
132.46,0.78,-0.45,0.78,-0.45,0.45,0.53,0.72,1.23,1.23,1.23
133.79,0.78,-0.41,0.79,-0.40,0.40,0.49,0.68,1.18,1.19,1.19
135.12,0.79,-0.35,0.80,-0.36,0.36,0.45,0.65,1.14,1.15,1.14
136.48,0.79,-0.33,0.81,-0.31,0.31,0.41,0.62,1.10,1.12,1.12
137.84,0.79,-0.29,0.82,-0.26,0.26,0.37,0.58,1.05,1.08,1.07
139.22,0.80,-0.23,0.83,-0.21,0.21,0.33,0.55,1.01,1.04,1.03
140.61,0.81,-0.18,0.85,-0.16,0.16,0.29,0.51,0.97,1.01,0.99
142.02,0.92,-0.05,0.86,-0.11,0.11,0.25,0.48,1.03,0.96,0.97
143.44,0.92,-0.01,0.87,-0.05,0.05,0.21,0.45,0.97,0.92,0.93
144.87,0.90,0.02,0.88,0.00,-0.00,0.16,0.41,0.90,0.87,0.88
146.32,0.90,0.07,0.89,0.07,-0.07,0.12,0.38,0.83,0.82,0.83
147.78,0.90,0.11,0.90,0.14,-0.14,0.08,0.34,0.76,0.77,0.79
149.26,0.90,0.16,0.91,0.21,-0.21,0.03,0.30,0.69,0.70,0.74
150.75,0.90,0.24,0.92,0.28,-0.28,-0.01,0.27,0.61,0.64,0.66
152.26,0.90,0.31,0.92,0.36,-0.36,-0.06,0.23,0.54,0.57,0.59
153.78,0.90,0.39,0.91,0.42,-0.42,-0.10,0.20,0.48,0.49,0.51
155.32,0.90,0.47,0.90,0.48,-0.48,-0.15,0.16,0.42,0.42,0.43
156.88,0.90,0.55,0.88,0.54,-0.54,-0.20,0.12,0.36,0.34,0.35
158.44,0.90,0.64,0.86,0.60,-0.60,-0.24,0.09,0.30,0.26,0.26
160.03,0.91,0.74,0.85,0.66,-0.66,-0.29,0.05,0.25,0.19,0.17
161.63,0.93,0.84,0.83,0.72,-0.72,-0.34,0.01,0.21,0.11,0.09
163.24,0.85,0.83,0.82,0.77,-0.77,-0.39,-0.03,0.08,0.05,0.02
164.88,0.77,0.80,0.80,0.82,-0.82,-0.44,-0.06,-0.05,-0.02,-0.03
166.53,0.71,0.80,0.78,0.85,-0.85,-0.50,-0.10,-0.15,-0.07,-0.09
168.19,0.68,0.81,0.77,0.89,-0.89,-0.55,-0.14,-0.21,-0.12,-0.13
169.87,0.67,0.85,0.76,0.91,-0.91,-0.60,-0.18,-0.24,-0.16,-0.18
171.57,0.75,0.95,0.74,0.93,-0.93,-0.66,-0.22,-0.18,-0.19,-0.20
173.29,0.76,0.98,0.74,0.95,-0.95,-0.71,-0.26,-0.19,-0.21,-0.22
175.02,0.76,0.99,0.73,0.96,-0.96,-0.76,-0.30,-0.21,-0.23,-0.23
176.77,0.75,1.00,0.73,0.98,-0.98,-0.82,-0.34,-0.23,-0.25,-0.26
178.54,0.75,1.01,0.73,0.99,-0.99,-0.87,-0.38,-0.25,-0.26,-0.26
180.32,0.76,1.02,0.74,1.02,-1.02,-0.93,-0.42,-0.26,-0.27,-0.26
182.13,0.76,1.02,0.76,1.04,-1.04,-0.98,-0.47,-0.29,-0.28,-0.26
183.95,0.77,1.05,0.78,1.07,-1.07,-1.04,-0.51,-0.30,-0.29,-0.28
185.79,0.78,1.06,0.79,1.10,-1.10,-1.09,-0.55,-0.32,-0.31,-0.28
187.65,0.80,1.11,0.81,1.13,-1.13,-1.14,-0.59,-0.33,-0.32,-0.31
189.52,0.81,1.13,0.82,1.15,-1.15,-1.20,-0.64,-0.34,-0.33,-0.32
191.42,0.82,1.17,0.82,1.18,-1.18,-1.24,-0.68,-0.36,-0.35,-0.35
193.33,0.84,1.21,0.84,1.21,-1.21,-1.29,-0.72,-0.37,-0.37,-0.37
195.27,0.86,1.25,0.86,1.25,-1.25,-1.34,-0.77,-0.39,-0.39,-0.39
197.22,0.87,1.28,0.87,1.28,-1.28,-1.38,-0.81,-0.41,-0.41,-0.41
199.19,0.88,1.32,0.88,1.31,-1.31,-1.42,-0.85,-0.43,-0.44,-0.45
201.18,0.89,1.35,0.88,1.34,-1.34,-1.45,-0.90,-0.45,-0.46,-0.47
203.19,0.89,1.37,0.88,1.37,-1.37,-1.49,-0.94,-0.48,-0.49,-0.49
205.23,0.89,1.40,0.88,1.39,-1.39,-1.52,-0.99,-0.50,-0.51,-0.51
207.28,0.89,1.41,0.87,1.41,-1.41,-1.54,-1.03,-0.52,-0.54,-0.52
209.35,0.90,1.45,0.86,1.42,-1.42,-1.56,-1.07,-0.52,-0.56,-0.55
211.44,0.91,1.50,0.86,1.44,-1.44,-1.58,-1.11,-0.53,-0.58,-0.59
213.56,0.86,1.45,0.85,1.44,-1.44,-1.59,-1.15,-0.59,-0.60,-0.60
215.69,0.79,1.40,0.83,1.45,-1.45,-1.59,-1.19,-0.66,-0.61,-0.61
217.85,0.78,1.41,0.82,1.45,-1.45,-1.59,-1.23,-0.67,-0.63,-0.63
220.03,0.78,1.42,0.80,1.44,-1.44,-1.59,-1.27,-0.66,-0.64,-0.64
222.23,0.77,1.43,0.78,1.43,-1.43,-1.58,-1.30,-0.67,-0.65,-0.67
224.45,0.77,1.43,0.77,1.42,-1.42,-1.57,-1.34,-0.65,-0.65,-0.66
226.70,0.77,1.43,0.76,1.42,-1.42,-1.55,-1.37,-0.65,-0.66,-0.66
228.96,0.78,1.44,0.75,1.41,-1.41,-1.53,-1.40,-0.63,-0.65,-0.66
231.25,0.78,1.43,0.75,1.40,-1.40,-1.51,-1.43,-0.62,-0.65,-0.65
233.57,0.76,1.40,0.75,1.39,-1.39,-1.48,-1.45,-0.63,-0.64,-0.64
235.90,0.69,1.32,0.75,1.38,-1.38,-1.46,-1.47,-0.69,-0.63,-0.63
238.26,0.71,1.33,0.75,1.37,-1.37,-1.42,-1.49,-0.66,-0.61,-0.62
240.64,0.73,1.33,0.76,1.36,-1.36,-1.39,-1.51,-0.63,-0.60,-0.61
243.05,0.75,1.32,0.76,1.34,-1.34,-1.35,-1.52,-0.59,-0.58,-0.58
245.48,0.77,1.32,0.76,1.32,-1.32,-1.32,-1.53,-0.55,-0.56,-0.56
247.93,0.81,1.33,0.76,1.30,-1.30,-1.28,-1.54,-0.49,-0.54,-0.53
250.41,0.83,1.34,0.76,1.28,-1.28,-1.24,-1.54,-0.45,-0.52,-0.52
252.92,0.78,1.26,0.76,1.26,-1.26,-1.20,-1.54,-0.48,-0.49,-0.48
255.45,0.76,1.22,0.76,1.24,-1.24,-1.16,-1.53,-0.48,-0.47,-0.46
258.00,0.76,1.20,0.77,1.21,-1.21,-1.12,-1.53,-0.46,-0.45,-0.44
260.58,0.76,1.19,0.77,1.19,-1.19,-1.08,-1.52,-0.43,-0.43,-0.43
263.19,0.76,1.16,0.77,1.17,-1.17,-1.04,-1.50,-0.42,-0.40,-0.40
265.82,0.76,1.14,0.77,1.15,-1.15,-1.00,-1.49,-0.39,-0.38,-0.39
268.48,0.76,1.12,0.77,1.12,-1.12,-0.96,-1.47,-0.36,-0.36,-0.36
271.16,0.75,1.08,0.76,1.09,-1.09,-0.93,-1.44,-0.35,-0.33,-0.33
273.87,0.75,1.07,0.76,1.07,-1.07,-0.89,-1.42,-0.32,-0.31,-0.32
276.61,0.75,1.03,0.75,1.04,-1.04,-0.85,-1.39,-0.29,-0.28,-0.28
279.38,0.75,1.01,0.75,1.01,-1.01,-0.82,-1.36,-0.26,-0.26,-0.26
282.17,0.75,0.98,0.75,0.98,-0.98,-0.78,-1.33,-0.24,-0.23,-0.24
284.99,0.76,0.96,0.75,0.96,-0.96,-0.75,-1.30,-0.20,-0.21,-0.20
287.84,0.77,0.96,0.75,0.93,-0.93,-0.71,-1.27,-0.16,-0.18,-0.19
290.72,0.78,0.93,0.75,0.90,-0.90,-0.68,-1.23,-0.12,-0.15,-0.15
293.63,0.70,0.83,0.74,0.86,-0.86,-0.65,-1.19,-0.16,-0.12,-0.13
296.57,0.70,0.79,0.71,0.81,-0.81,-0.62,-1.16,-0.11,-0.09,-0.09
299.53,0.71,0.78,0.69,0.76,-0.76,-0.59,-1.12,-0.05,-0.07,-0.07
302.53,0.69,0.74,0.66,0.70,-0.70,-0.57,-1.08,-0.01,-0.04,-0.05
305.55,0.64,0.65,0.64,0.65,-0.65,-0.54,-1.04,-0.01,-0.02,-0.01
308.61,0.64,0.63,0.61,0.60,-0.60,-0.51,-1.00,0.04,0.01,0.01
311.69,0.65,0.61,0.58,0.55,-0.55,-0.49,-0.96,0.10,0.03,0.03
314.81,0.60,0.54,0.55,0.50,-0.50,-0.46,-0.92,0.10,0.05,0.06
317.96,0.51,0.43,0.52,0.45,-0.45,-0.44,-0.88,0.06,0.07,0.08
321.14,0.42,0.34,0.49,0.41,-0.41,-0.42,-0.84,0.01,0.09,0.08
324.35,0.36,0.26,0.47,0.37,-0.37,-0.39,-0.79,-0.01,0.10,0.10
327.59,0.35,0.23,0.45,0.34,-0.34,-0.37,-0.75,0.01,0.12,0.12
330.87,0.42,0.30,0.43,0.30,-0.30,-0.35,-0.71,0.12,0.13,0.12
334.18,0.45,0.31,0.40,0.26,-0.26,-0.33,-0.67,0.19,0.14,0.14
337.52,0.45,0.30,0.38,0.23,-0.23,-0.31,-0.63,0.22,0.15,0.15
340.90,0.38,0.21,0.36,0.20,-0.20,-0.29,-0.60,0.18,0.16,0.16
344.30,0.35,0.18,0.33,0.17,-0.17,-0.27,-0.56,0.18,0.16,0.17
347.75,0.35,0.18,0.31,0.14,-0.14,-0.26,-0.52,0.20,0.17,0.17
351.23,0.35,0.17,0.30,0.13,-0.13,-0.24,-0.48,0.22,0.17,0.18
354.74,0.33,0.16,0.29,0.11,-0.11,-0.22,-0.44,0.22,0.18,0.17
358.28,0.27,0.09,0.27,0.09,-0.09,-0.21,-0.40,0.17,0.18,0.18
361.87,0.22,0.04,0.26,0.08,-0.08,-0.19,-0.37,0.14,0.18,0.18
365.49,0.18,-0.01,0.24,0.06,-0.06,-0.17,-0.33,0.12,0.18,0.19
369.14,0.17,-0.01,0.23,0.05,-0.05,-0.16,-0.30,0.12,0.18,0.17
372.83,0.18,0.01,0.21,0.04,-0.04,-0.14,-0.26,0.14,0.18,0.17
376.56,0.19,0.02,0.20,0.03,-0.03,-0.13,-0.22,0.16,0.17,0.17
380.33,0.19,0.01,0.20,0.02,-0.02,-0.11,-0.19,0.16,0.17,0.18
384.13,0.20,0.02,0.19,0.02,-0.02,-0.10,-0.16,0.18,0.17,0.18
387.97,0.21,0.04,0.18,0.01,-0.01,-0.08,-0.12,0.20,0.16,0.16
391.85,0.21,0.06,0.17,0.01,-0.01,-0.07,-0.09,0.20,0.16,0.15
395.77,0.21,0.05,0.16,0.01,-0.01,-0.06,-0.05,0.20,0.15,0.16
399.73,0.21,0.06,0.16,0.02,-0.02,-0.04,-0.02,0.19,0.14,0.15
403.72,0.20,0.05,0.16,0.02,-0.02,-0.03,0.01,0.18,0.14,0.15
407.76,0.13,-0.01,0.15,0.02,-0.02,-0.01,0.04,0.11,0.13,0.14
411.84,0.10,-0.04,0.14,0.01,-0.01,0.00,0.07,0.09,0.13,0.14
415.96,0.10,-0.04,0.13,0.00,-0.00,0.01,0.10,0.10,0.13,0.13
420.12,0.10,-0.03,0.12,-0.01,0.01,0.03,0.13,0.11,0.13,0.13
424.32,0.11,-0.02,0.11,-0.03,0.03,0.04,0.16,0.13,0.14,0.13
428.56,0.12,-0.02,0.11,-0.04,0.04,0.06,0.19,0.16,0.15,0.14
432.85,0.13,-0.02,0.11,-0.05,0.05,0.07,0.22,0.18,0.16,0.15
437.18,0.16,0.00,0.12,-0.06,0.06,0.09,0.25,0.22,0.18,0.16
441.55,0.14,-0.06,0.13,-0.07,0.07,0.10,0.28,0.21,0.21,0.20
445.96,0.14,-0.09,0.15,-0.09,0.09,0.12,0.31,0.22,0.24,0.23
450.42,0.11,-0.15,0.18,-0.10,0.10,0.13,0.33,0.20,0.28,0.26
454.93,0.15,-0.16,0.21,-0.11,0.11,0.15,0.36,0.26,0.32,0.30
459.48,0.21,-0.14,0.24,-0.12,0.12,0.16,0.38,0.33,0.36,0.35
464.07,0.27,-0.13,0.27,-0.13,0.13,0.18,0.40,0.40,0.41,0.40
468.71,0.32,-0.14,0.31,-0.15,0.15,0.20,0.43,0.46,0.45,0.46
473.40,0.39,-0.11,0.34,-0.16,0.16,0.21,0.45,0.55,0.50,0.50
478.13,0.42,-0.14,0.38,-0.17,0.17,0.23,0.47,0.59,0.55,0.56
482.91,0.41,-0.19,0.42,-0.18,0.18,0.25,0.49,0.59,0.60,0.60
487.74,0.43,-0.21,0.45,-0.19,0.19,0.27,0.51,0.61,0.64,0.64
492.62,0.46,-0.23,0.48,-0.19,0.19,0.29,0.53,0.65,0.67,0.69
497.55,0.49,-0.22,0.50,-0.21,0.21,0.31,0.55,0.70,0.70,0.71
502.52,0.51,-0.23,0.51,-0.22,0.22,0.33,0.56,0.73,0.73,0.74
507.55,0.53,-0.22,0.50,-0.24,0.24,0.35,0.58,0.77,0.74,0.75
512.62,0.55,-0.21,0.49,-0.26,0.26,0.37,0.59,0.81,0.75,0.76
517.75,0.49,-0.28,0.47,-0.27,0.27,0.40,0.61,0.76,0.74,0.76
522.93,0.46,-0.30,0.44,-0.29,0.29,0.42,0.62,0.74,0.73,0.75
528.16,0.44,-0.29,0.40,-0.31,0.31,0.45,0.63,0.75,0.71,0.72
533.44,0.35,-0.34,0.34,-0.34,0.34,0.47,0.64,0.68,0.68,0.69
