frequency,raw,error,smoothed,error_smoothed,equalization,parametric_eq,fixed_band_eq,equalized_raw,equalized_smoothed,target
20.00,-4.15,-9.04,-4.20,-9.12,9.12,8.64,3.32,4.97,4.91,4.88
20.20,-4.09,-9.03,-4.12,-9.07,9.07,8.67,3.42,4.98,4.95,4.93
20.40,-4.03,-9.02,-4.04,-9.02,9.02,8.70,3.51,4.99,4.99,4.98
20.61,-3.97,-8.99,-3.96,-8.98,8.98,8.71,3.61,5.00,5.02,5.01
20.81,-3.91,-8.98,-3.88,-8.93,8.93,8.73,3.71,5.02,5.05,5.07
21.02,-3.84,-8.95,-3.80,-8.88,8.88,8.74,3.81,5.04,5.08,5.10
21.23,-3.76,-8.89,-3.72,-8.83,8.83,8.75,3.92,5.07,5.10,5.12
21.44,-3.68,-8.83,-3.65,-8.78,8.78,8.75,4.03,5.10,5.13,5.14
21.66,-3.59,-8.76,-3.58,-8.73,8.73,8.74,4.14,5.13,5.15,5.16
21.87,-3.51,-8.69,-3.51,-8.67,8.67,8.73,4.26,5.16,5.17,5.18
22.09,-3.43,-8.63,-3.44,-8.62,8.62,8.72,4.38,5.19,5.18,5.19
22.31,-3.36,-8.57,-3.37,-8.57,8.57,8.71,4.50,5.21,5.20,5.20
22.54,-3.29,-8.50,-3.30,-8.50,8.50,8.68,4.62,5.21,5.20,5.20
22.76,-3.22,-8.43,-3.23,-8.44,8.44,8.66,4.75,5.22,5.20,5.20
22.99,-3.15,-8.35,-3.17,-8.38,8.38,8.63,4.88,5.23,5.21,5.19
23.22,-3.10,-8.30,-3.11,-8.32,8.32,8.60,5.02,5.22,5.21,5.19
23.45,-3.04,-8.24,-3.05,-8.26,8.26,8.56,5.16,5.22,5.21,5.19
23.69,-2.98,-8.19,-3.00,-8.21,8.21,8.52,5.30,5.22,5.21,5.20
23.92,-2.93,-8.14,-2.94,-8.15,8.15,8.47,5.44,5.22,5.21,5.20
24.16,-2.89,-8.10,-2.89,-8.09,8.09,8.43,5.59,5.20,5.21,5.20
24.40,-2.85,-8.07,-2.83,-8.04,8.04,8.38,5.74,5.19,5.21,5.21
24.65,-2.81,-8.02,-2.78,-7.99,7.99,8.32,5.89,5.17,5.21,5.20
24.89,-2.78,-7.99,-2.73,-7.94,7.94,8.27,6.04,5.16,5.21,5.20
25.14,-2.71,-7.92,-2.68,-7.89,7.89,8.21,6.20,5.18,5.21,5.20
25.39,-2.64,-7.85,-2.64,-7.85,7.85,8.15,6.36,5.20,5.21,5.21
25.65,-2.56,-7.78,-2.59,-7.80,7.80,8.08,6.51,5.24,5.21,5.21
25.91,-2.48,-7.69,-2.54,-7.75,7.75,8.02,6.67,5.27,5.21,5.20
26.16,-2.44,-7.65,-2.50,-7.70,7.70,7.95,6.83,5.26,5.21,5.20
26.43,-2.42,-7.63,-2.45,-7.65,7.65,7.88,6.99,5.23,5.21,5.20
26.69,-2.40,-7.61,-2.40,-7.60,7.60,7.81,7.15,5.20,5.20,5.20
26.96,-2.38,-7.59,-2.35,-7.55,7.55,7.74,7.31,5.17,5.20,5.20
27.23,-2.33,-7.54,-2.30,-7.50,7.50,7.67,7.46,5.17,5.20,5.20
27.50,-2.28,-7.49,-2.25,-7.45,7.45,7.60,7.61,5.17,5.20,5.20
27.77,-2.22,-7.42,-2.20,-7.40,7.40,7.52,7.76,5.18,5.20,5.19
28.05,-2.17,-7.37,-2.16,-7.35,7.35,7.45,7.90,5.18,5.20,5.19
28.33,-2.10,-7.29,-2.11,-7.30,7.30,7.37,8.04,5.20,5.19,5.18
28.62,-2.04,-7.23,-2.05,-7.25,7.25,7.30,8.16,5.20,5.19,5.18
28.90,-1.97,-7.17,-1.99,-7.19,7.19,7.22,8.28,5.21,5.19,5.19
29.19,-1.92,-7.11,-1.93,-7.12,7.12,7.15,8.39,5.19,5.19,5.18
29.48,-1.87,-7.07,-1.85,-7.04,7.04,7.07,8.49,5.17,5.19,5.19
29.78,-1.82,-7.01,-1.78,-6.97,6.97,7.00,8.57,5.15,5.19,5.18
30.08,-1.76,-6.96,-1.72,-6.90,6.90,6.92,8.65,5.14,5.19,5.19
30.38,-1.68,-6.87,-1.66,-6.84,6.84,6.85,8.71,5.16,5.18,5.18
30.68,-1.60,-6.79,-1.60,-6.78,6.78,6.77,8.75,5.18,5.18,5.18
30.99,-1.51,-6.70,-1.55,-6.73,6.73,6.70,8.78,5.22,5.18,5.18
31.30,-1.45,-6.63,-1.51,-6.69,6.69,6.63,8.80,5.23,5.18,5.17
31.61,-1.38,-6.56,-1.46,-6.64,6.64,6.55,8.80,5.25,5.18,5.17
31.93,-1.32,-6.50,-1.41,-6.58,6.58,6.48,8.78,5.26,5.17,5.17
32.24,-1.31,-6.48,-1.36,-6.52,6.52,6.41,8.75,5.21,5.17,5.16
32.57,-1.33,-6.50,-1.31,-6.47,6.47,6.34,8.71,5.14,5.16,5.16
32.89,-1.34,-6.51,-1.26,-6.42,6.42,6.28,8.65,5.08,5.16,5.16
33.22,-1.31,-6.47,-1.22,-6.38,6.38,6.21,8.59,5.07,5.16,5.15
33.55,-1.26,-6.42,-1.19,-6.34,6.34,6.14,8.51,5.08,5.15,5.15
33.89,-1.20,-6.35,-1.15,-6.30,6.30,6.08,8.42,5.10,5.15,5.14
34.23,-1.12,-6.27,-1.11,-6.25,6.25,6.01,8.32,5.13,5.14,5.14
34.57,-1.02,-6.16,-1.07,-6.21,6.21,5.95,8.21,5.19,5.14,5.13
34.92,-0.92,-6.06,-1.03,-6.16,6.16,5.89,8.09,5.24,5.13,5.13
35.27,-0.91,-6.04,-0.98,-6.11,6.11,5.83,7.97,5.20,5.13,5.12
35.62,-0.93,-6.06,-0.93,-6.05,6.05,5.77,7.85,5.12,5.13,5.12
35.97,-0.95,-6.08,-0.87,-6.00,6.00,5.72,7.72,5.05,5.13,5.12
36.33,-0.88,-6.01,-0.82,-5.95,5.95,5.66,7.59,5.07,5.12,5.12
36.70,-0.80,-5.92,-0.78,-5.90,5.90,5.61,7.45,5.10,5.12,5.11
37.06,-0.73,-5.85,-0.74,-5.86,5.86,5.56,7.32,5.13,5.12,5.11
37.43,-0.68,-5.81,-0.70,-5.82,5.82,5.51,7.19,5.14,5.12,5.12
37.81,-0.63,-5.76,-0.66,-5.79,5.79,5.46,7.05,5.15,5.12,5.12
38.19,-0.59,-5.71,-0.63,-5.75,5.75,5.41,6.92,5.16,5.12,5.11
38.57,-0.56,-5.69,-0.60,-5.72,5.72,5.37,6.79,5.16,5.12,5.12
38.95,-0.53,-5.67,-0.56,-5.69,5.69,5.32,6.66,5.16,5.12,5.13
39.34,-0.53,-5.66,-0.52,-5.64,5.64,5.28,6.53,5.11,5.13,5.12
39.74,-0.53,-5.66,-0.48,-5.60,5.60,5.24,6.40,5.07,5.12,5.12
40.14,-0.50,-5.63,-0.44,-5.56,5.56,5.20,6.28,5.06,5.12,5.12
40.54,-0.42,-5.55,-0.41,-5.53,5.53,5.17,6.16,5.11,5.12,5.12
40.94,-0.34,-5.46,-0.37,-5.49,5.49,5.13,6.05,5.15,5.12,5.11
41.35,-0.33,-5.45,-0.34,-5.45,5.45,5.10,5.94,5.12,5.11,5.11
41.76,-0.33,-5.44,-0.31,-5.41,5.41,5.07,5.83,5.08,5.11,5.10
42.18,-0.29,-5.40,-0.27,-5.36,5.36,5.03,5.72,5.07,5.10,5.10
42.60,-0.21,-5.31,-0.23,-5.31,5.31,5.01,5.62,5.10,5.09,5.09
43.03,-0.13,-5.22,-0.18,-5.26,5.26,4.98,5.53,5.13,5.08,5.08
43.46,-0.13,-5.21,-0.15,-5.21,5.21,4.95,5.43,5.08,5.06,5.07
43.90,-0.13,-5.19,-0.11,-5.16,5.16,4.93,5.34,5.03,5.05,5.05
44.33,-0.10,-5.14,-0.08,-5.12,5.12,4.90,5.26,5.02,5.04,5.03
44.78,-0.06,-5.08,-0.05,-5.08,5.08,4.88,5.18,5.02,5.03,5.01
45.23,-0.01,-5.02,-0.03,-5.04,5.04,4.86,5.10,5.03,5.01,5.00
45.68,0.03,-4.97,-0.00,-5.00,5.00,4.84,5.03,5.03,5.00,4.99
46.13,0.07,-4.91,0.03,-4.96,4.96,4.82,4.96,5.03,4.99,4.97
46.60,0.07,-4.91,0.06,-4.92,4.92,4.80,4.89,4.98,4.97,4.97
47.06,0.07,-4.89,0.08,-4.88,4.88,4.78,4.83,4.95,4.96,4.95
47.53,0.07,-4.88,0.10,-4.84,4.84,4.77,4.77,4.91,4.94,4.94
48.01,0.07,-4.88,0.12,-4.81,4.81,4.75,4.72,4.87,4.93,4.94
48.49,0.12,-4.81,0.15,-4.77,4.77,4.73,4.67,4.88,4.91,4.92
48.97,0.17,-4.74,0.17,-4.73,4.73,4.72,4.62,4.90,4.90,4.90
49.46,0.22,-4.67,0.20,-4.69,4.69,4.70,4.57,4.91,4.89,4.88
49.96,0.27,-4.60,0.23,-4.65,4.65,4.68,4.53,4.92,4.87,4.86
50.46,0.27,-4.59,0.25,-4.61,4.61,4.66,4.49,4.88,4.86,4.85
50.96,0.27,-4.58,0.28,-4.57,4.57,4.64,4.45,4.84,4.85,4.84
51.47,0.29,-4.54,0.30,-4.53,4.53,4.62,4.41,4.82,4.83,4.82
51.99,0.32,-4.50,0.33,-4.49,4.49,4.60,4.38,4.81,4.82,4.81
52.51,0.35,-4.46,0.35,-4.45,4.45,4.58,4.35,4.80,4.81,4.80
53.03,0.38,-4.43,0.38,-4.41,4.41,4.56,4.32,4.79,4.80,4.80
53.56,0.43,-4.36,0.41,-4.37,4.37,4.53,4.29,4.80,4.78,4.78
54.10,0.47,-4.31,0.44,-4.33,4.33,4.51,4.26,4.80,4.77,4.77
54.64,0.47,-4.29,0.47,-4.30,4.30,4.48,4.24,4.77,4.76,4.75
55.18,0.47,-4.29,0.49,-4.26,4.26,4.45,4.21,4.73,4.75,4.75
55.74,0.47,-4.27,0.51,-4.23,4.23,4.41,4.18,4.70,4.74,4.73
56.29,0.50,-4.23,0.53,-4.20,4.20,4.38,4.16,4.70,4.73,4.72
56.86,0.56,-4.16,0.55,-4.16,4.16,4.34,4.13,4.72,4.71,4.71
57.42,0.61,-4.08,0.58,-4.12,4.12,4.30,4.10,4.73,4.70,4.68
58.00,0.67,-4.01,0.60,-4.07,4.07,4.26,4.07,4.74,4.68,4.67
58.58,0.67,-4.00,0.63,-4.02,4.02,4.22,4.05,4.69,4.65,4.66
59.16,0.67,-3.98,0.66,-3.97,3.97,4.17,4.01,4.64,4.63,4.64
59.76,0.67,-3.96,0.68,-3.92,3.92,4.12,3.98,4.59,4.60,4.62
60.35,0.66,-3.93,0.71,-3.86,3.86,4.07,3.95,4.52,4.57,4.58
60.96,0.63,-3.92,0.74,-3.80,3.80,4.01,3.91,4.43,4.54,4.54
61.57,0.71,-3.80,0.77,-3.74,3.74,3.96,3.87,4.45,4.50,4.50
62.18,0.80,-3.67,0.79,-3.67,3.67,3.90,3.83,4.47,4.46,4.46
62.80,0.88,-3.54,0.81,-3.61,3.61,3.84,3.79,4.49,4.42,4.41
63.43,0.89,-3.49,0.83,-3.55,3.55,3.78,3.75,4.44,4.38,4.37
64.07,0.87,-3.46,0.85,-3.49,3.49,3.72,3.70,4.36,4.34,4.32
64.71,0.87,-3.42,0.87,-3.42,3.42,3.66,3.65,4.29,4.29,4.28
65.35,0.87,-3.38,0.89,-3.35,3.35,3.59,3.60,4.22,4.24,4.24
66.01,0.87,-3.33,0.90,-3.29,3.29,3.53,3.54,4.16,4.20,4.19
66.67,0.87,-3.28,0.91,-3.24,3.24,3.46,3.49,4.11,4.15,4.14
67.33,0.87,-3.23,0.90,-3.20,3.20,3.39,3.43,4.07,4.10,4.09
68.01,0.87,-3.19,0.87,-3.18,3.18,3.33,3.37,4.05,4.05,4.05
68.69,0.87,-3.14,0.83,-3.17,3.17,3.26,3.31,4.04,4.00,4.00
69.37,0.83,-3.13,0.77,-3.18,3.18,3.19,3.24,4.01,3.95,3.95
70.07,0.76,-3.15,0.70,-3.20,3.20,3.12,3.18,3.96,3.90,3.90
70.77,0.71,-3.15,0.62,-3.22,3.22,3.06,3.11,3.93,3.84,3.85
71.48,0.63,-3.18,0.52,-3.27,3.27,2.99,3.05,3.90,3.79,3.80
72.19,0.51,-3.23,0.41,-3.33,3.33,2.92,2.98,3.84,3.73,3.73
72.91,0.30,-3.38,0.29,-3.38,3.38,2.86,2.91,3.68,3.68,3.67
73.64,0.22,-3.41,0.18,-3.44,3.44,2.79,2.85,3.66,3.62,3.62
74.38,0.09,-3.48,0.07,-3.49,3.49,2.73,2.78,3.58,3.57,3.56
75.12,-0.08,-3.59,-0.03,-3.54,3.54,2.66,2.71,3.46,3.51,3.50
75.87,-0.17,-3.62,-0.12,-3.58,3.58,2.60,2.64,3.41,3.46,3.44
76.63,-0.27,-3.67,-0.20,-3.60,3.60,2.53,2.58,3.32,3.40,3.39
77.40,-0.35,-3.70,-0.24,-3.58,3.58,2.47,2.51,3.23,3.35,3.34
78.17,-0.42,-3.71,-0.25,-3.55,3.55,2.41,2.45,3.12,3.29,3.28
78.95,-0.44,-3.68,-0.24,-3.49,3.49,2.35,2.38,3.05,3.24,3.24
79.74,-0.22,-3.42,-0.21,-3.40,3.40,2.29,2.32,3.18,3.19,3.19
80.54,-0.12,-3.27,-0.14,-3.28,3.28,2.23,2.26,3.16,3.15,3.14
81.35,-0.08,-3.18,-0.05,-3.14,3.14,2.18,2.20,3.06,3.10,3.09
82.16,-0.01,-3.06,0.05,-3.00,3.00,2.12,2.13,2.99,3.05,3.04
82.98,0.10,-2.91,0.17,-2.84,2.84,2.06,2.08,2.93,3.00,3.00
83.81,0.28,-2.68,0.29,-2.67,2.67,2.01,2.02,2.95,2.95,2.95
84.65,0.48,-2.43,0.39,-2.51,2.51,1.96,1.96,2.99,2.91,2.90
85.50,0.60,-2.27,0.49,-2.37,2.37,1.91,1.90,2.97,2.86,2.86
86.35,0.64,-2.18,0.56,-2.25,2.25,1.85,1.85,2.89,2.81,2.81
87.22,0.66,-2.11,0.60,-2.15,2.15,1.80,1.80,2.81,2.76,2.76
88.09,0.77,-1.95,0.61,-2.09,2.09,1.75,1.74,2.86,2.71,2.71
88.97,0.75,-1.91,0.58,-2.07,2.07,1.71,1.69,2.82,2.66,2.65
89.86,0.64,-1.97,0.54,-2.07,2.07,1.66,1.64,2.70,2.61,2.60
90.76,0.61,-1.95,0.48,-2.08,2.08,1.61,1.60,2.69,2.56,2.55
91.66,0.52,-1.99,0.40,-2.10,2.10,1.57,1.55,2.62,2.51,2.50
92.58,0.35,-2.10,0.32,-2.14,2.14,1.52,1.50,2.49,2.45,2.44
93.51,0.16,-2.24,0.22,-2.18,2.18,1.48,1.46,2.34,2.40,2.39
94.44,0.01,-2.35,0.14,-2.22,2.22,1.43,1.41,2.22,2.35,2.35
95.39,-0.08,-2.39,0.07,-2.24,2.24,1.39,1.37,2.15,2.30,2.30
96.34,-0.15,-2.41,0.01,-2.24,2.24,1.35,1.33,2.09,2.25,2.25
97.30,-0.23,-2.44,-0.02,-2.23,2.23,1.31,1.29,2.00,2.21,2.20
98.28,-0.21,-2.37,-0.04,-2.20,2.20,1.27,1.25,1.99,2.16,2.15
99.26,-0.10,-2.22,-0.03,-2.14,2.14,1.23,1.21,2.04,2.11,2.11
100.25,-0.01,-2.08,-0.02,-2.08,2.08,1.19,1.17,2.07,2.06,2.06
101.25,0.08,-1.94,0.01,-2.01,2.01,1.15,1.14,2.08,2.01,2.01
102.27,0.13,-1.84,0.06,-1.91,1.91,1.12,1.10,2.04,1.97,1.96
103.29,0.21,-1.71,0.12,-1.80,1.80,1.08,1.06,2.01,1.92,1.91
104.32,0.28,-1.60,0.18,-1.69,1.69,1.04,1.03,1.97,1.87,1.87
105.37,0.31,-1.52,0.24,-1.57,1.57,1.01,1.00,1.88,1.82,1.82
106.42,0.36,-1.42,0.29,-1.48,1.48,0.97,0.96,1.83,1.77,1.77
107.48,0.40,-1.32,0.33,-1.38,1.38,0.94,0.93,1.78,1.71,1.71
108.56,0.38,-1.29,0.37,-1.29,1.29,0.90,0.90,1.67,1.66,1.66
109.64,0.33,-1.29,0.40,-1.21,1.21,0.87,0.87,1.54,1.61,1.61
110.74,0.31,-1.25,0.42,-1.13,1.13,0.83,0.84,1.44,1.56,1.55
111.85,0.46,-1.06,0.45,-1.06,1.06,0.80,0.81,1.52,1.51,1.51
112.97,0.52,-0.94,0.47,-0.98,0.98,0.77,0.78,1.50,1.46,1.45
114.10,0.50,-0.91,0.50,-0.91,0.91,0.73,0.75,1.40,1.41,1.40
115.24,0.50,-0.86,0.53,-0.83,0.83,0.70,0.72,1.33,1.36,1.35
116.39,0.49,-0.82,0.56,-0.76,0.76,0.67,0.69,1.25,1.32,1.30
117.55,0.49,-0.78,0.58,-0.69,0.69,0.64,0.66,1.18,1.27,1.26
118.73,0.65,-0.58,0.61,-0.62,0.62,0.60,0.64,1.27,1.23,1.22
119.92,0.73,-0.47,0.64,-0.55,0.55,0.57,0.61,1.28,1.20,1.19
121.12,0.72,-0.44,0.67,-0.49,0.49,0.54,0.58,1.20,1.16,1.15
122.33,0.73,-0.40,0.70,-0.42,0.42,0.51,0.55,1.15,1.13,1.12
123.55,0.74,-0.36,0.72,-0.37,0.37,0.48,0.53,1.11,1.09,1.09
124.79,0.74,-0.33,0.73,-0.33,0.33,0.44,0.50,1.07,1.06,1.06
126.03,0.75,-0.29,0.75,-0.28,0.28,0.41,0.47,1.03,1.03,1.03
127.29,0.76,-0.26,0.76,-0.24,0.24,0.38,0.45,1.00,1.00,1.01
128.57,0.76,-0.22,0.77,-0.21,0.21,0.35,0.42,0.96,0.97,0.97
129.85,0.77,-0.18,0.77,-0.17,0.17,0.31,0.40,0.94,0.94,0.94
131.15,0.77,-0.15,0.78,-0.14,0.14,0.28,0.37,0.91,0.92,0.91
132.46,0.78,-0.11,0.78,-0.11,0.11,0.25,0.34,0.89,0.89,0.88
133.79,0.78,-0.08,0.79,-0.07,0.07,0.21,0.32,0.85,0.86,0.85
135.12,0.79,-0.04,0.80,-0.03,0.03,0.18,0.29,0.82,0.83,0.82
136.48,0.79,-0.02,0.81,0.01,-0.01,0.15,0.27,0.78,0.80,0.80
137.84,0.79,0.02,0.82,0.05,-0.05,0.11,0.24,0.74,0.78,0.76
139.22,0.80,0.06,0.83,0.09,-0.09,0.08,0.21,0.71,0.75,0.73
140.61,0.81,0.10,0.85,0.13,-0.13,0.04,0.19,0.68,0.72,0.70
142.02,0.92,0.23,0.86,0.17,-0.17,0.01,0.16,0.75,0.68,0.68
143.44,0.92,0.26,0.87,0.22,-0.22,-0.03,0.13,0.70,0.65,0.65
144.87,0.90,0.28,0.88,0.26,-0.26,-0.07,0.11,0.63,0.61,0.61
146.32,0.90,0.32,0.89,0.32,-0.32,-0.10,0.08,0.58,0.57,0.57
147.78,0.90,0.35,0.90,0.38,-0.38,-0.14,0.05,0.52,0.52,0.54
149.26,0.90,0.40,0.91,0.45,-0.45,-0.18,0.03,0.45,0.47,0.49
150.75,0.90,0.46,0.92,0.52,-0.52,-0.22,-0.00,0.38,0.41,0.43
152.26,0.90,0.53,0.92,0.58,-0.58,-0.26,-0.03,0.32,0.34,0.36
153.78,0.90,0.60,0.91,0.63,-0.63,-0.30,-0.06,0.26,0.28,0.29
155.32,0.90,0.67,0.90,0.69,-0.69,-0.34,-0.08,0.21,0.21,0.22
156.88,0.90,0.75,0.88,0.74,-0.74,-0.39,-0.11,0.16,0.14,0.14
158.44,0.90,0.83,0.86,0.79,-0.79,-0.43,-0.14,0.11,0.07,0.06
160.03,0.91,0.92,0.85,0.85,-0.85,-0.48,-0.17,0.06,0.00,-0.02
161.63,0.93,1.01,0.83,0.90,-0.90,-0.52,-0.20,0.03,-0.06,-0.09
163.24,0.85,0.99,0.82,0.94,-0.94,-0.57,-0.23,-0.09,-0.12,-0.15
164.88,0.77,0.96,0.80,0.98,-0.98,-0.61,-0.26,-0.21,-0.18,-0.20
166.53,0.71,0.95,0.78,1.01,-1.01,-0.66,-0.29,-0.30,-0.23,-0.25
168.19,0.68,0.96,0.77,1.04,-1.04,-0.71,-0.32,-0.36,-0.27,-0.29
169.87,0.67,0.99,0.76,1.06,-1.06,-0.76,-0.36,-0.39,-0.30,-0.33
171.57,0.75,1.09,0.74,1.07,-1.07,-0.81,-0.39,-0.32,-0.33,-0.35
173.29,0.76,1.11,0.74,1.08,-1.08,-0.86,-0.42,-0.32,-0.35,-0.36
175.02,0.76,1.12,0.73,1.09,-1.09,-0.91,-0.45,-0.33,-0.36,-0.37
176.77,0.75,1.12,0.73,1.10,-1.10,-0.96,-0.49,-0.35,-0.37,-0.38
178.54,0.75,1.13,0.73,1.11,-1.11,-1.02,-0.52,-0.36,-0.38,-0.39
180.32,0.76,1.13,0.74,1.13,-1.13,-1.07,-0.56,-0.37,-0.38,-0.38
182.13,0.76,1.12,0.76,1.15,-1.15,-1.12,-0.59,-0.39,-0.39,-0.37
183.95,0.77,1.14,0.78,1.17,-1.17,-1.17,-0.63,-0.40,-0.39,-0.38
185.79,0.78,1.15,0.79,1.19,-1.19,-1.22,-0.66,-0.42,-0.40,-0.38
187.65,0.80,1.19,0.81,1.21,-1.21,-1.26,-0.70,-0.42,-0.41,-0.40
189.52,0.81,1.21,0.82,1.23,-1.23,-1.31,-0.74,-0.42,-0.42,-0.41
191.42,0.82,1.24,0.82,1.26,-1.26,-1.35,-0.77,-0.44,-0.43,-0.43
193.33,0.84,1.28,0.84,1.29,-1.29,-1.40,-0.81,-0.45,-0.45,-0.45
195.27,0.86,1.32,0.86,1.32,-1.32,-1.44,-0.85,-0.46,-0.46,-0.47
197.22,0.87,1.35,0.87,1.35,-1.35,-1.47,-0.89,-0.48,-0.48,-0.49
199.19,0.88,1.38,0.88,1.38,-1.38,-1.51,-0.92,-0.50,-0.50,-0.51
201.18,0.89,1.41,0.88,1.40,-1.40,-1.54,-0.96,-0.51,-0.52,-0.53
203.19,0.89,1.43,0.88,1.42,-1.42,-1.56,-1.00,-0.54,-0.54,-0.55
205.23,0.89,1.45,0.88,1.44,-1.44,-1.58,-1.04,-0.55,-0.56,-0.57
207.28,0.89,1.46,0.87,1.46,-1.46,-1.60,-1.07,-0.57,-0.58,-0.58
209.35,0.90,1.49,0.86,1.47,-1.47,-1.62,-1.11,-0.57,-0.60,-0.60
211.44,0.91,1.53,0.86,1.48,-1.48,-1.62,-1.15,-0.57,-0.62,-0.63
213.56,0.86,1.49,0.85,1.48,-1.48,-1.63,-1.18,-0.62,-0.63,-0.64
215.69,0.79,1.43,0.83,1.48,-1.48,-1.63,-1.22,-0.69,-0.65,-0.65
217.85,0.78,1.43,0.82,1.48,-1.48,-1.62,-1.25,-0.70,-0.66,-0.66
220.03,0.78,1.44,0.80,1.47,-1.47,-1.61,-1.28,-0.69,-0.67,-0.67
222.23,0.77,1.46,0.78,1.46,-1.46,-1.60,-1.31,-0.69,-0.67,-0.70
224.45,0.77,1.45,0.77,1.45,-1.45,-1.58,-1.34,-0.68,-0.68,-0.69
226.70,0.77,1.45,0.76,1.44,-1.44,-1.56,-1.37,-0.67,-0.68,-0.69
228.96,0.78,1.45,0.75,1.43,-1.43,-1.53,-1.39,-0.65,-0.67,-0.68
231.25,0.78,1.44,0.75,1.41,-1.41,-1.50,-1.42,-0.64,-0.66,-0.67
233.57,0.76,1.41,0.75,1.40,-1.40,-1.47,-1.44,-0.64,-0.65,-0.66
235.90,0.69,1.33,0.75,1.39,-1.39,-1.44,-1.45,-0.70,-0.64,-0.65
238.26,0.71,1.34,0.75,1.37,-1.37,-1.40,-1.47,-0.67,-0.62,-0.64
240.64,0.73,1.33,0.76,1.36,-1.36,-1.36,-1.48,-0.63,-0.60,-0.61
243.05,0.75,1.32,0.76,1.34,-1.34,-1.33,-1.49,-0.59,-0.58,-0.58
245.48,0.77,1.32,0.76,1.32,-1.32,-1.29,-1.50,-0.55,-0.56,-0.56
247.93,0.81,1.33,0.76,1.30,-1.30,-1.25,-1.50,-0.49,-0.53,-0.53
250.41,0.83,1.33,0.76,1.27,-1.27,-1.21,-1.50,-0.45,-0.51,-0.51
252.92,0.78,1.25,0.76,1.25,-1.25,-1.16,-1.50,-0.47,-0.49,-0.48
255.45,0.76,1.21,0.76,1.23,-1.23,-1.12,-1.49,-0.47,-0.46,-0.46
258.00,0.76,1.19,0.77,1.20,-1.20,-1.08,-1.48,-0.44,-0.44,-0.44
260.58,0.76,1.17,0.77,1.18,-1.18,-1.04,-1.47,-0.42,-0.41,-0.42
263.19,0.76,1.14,0.77,1.16,-1.16,-1.00,-1.46,-0.40,-0.39,-0.39
265.82,0.76,1.12,0.77,1.13,-1.13,-0.96,-1.44,-0.38,-0.36,-0.37
268.48,0.76,1.10,0.77,1.11,-1.11,-0.92,-1.42,-0.35,-0.34,-0.35
271.16,0.75,1.06,0.76,1.08,-1.08,-0.89,-1.39,-0.33,-0.31,-0.32
273.87,0.75,1.04,0.76,1.05,-1.05,-0.85,-1.37,-0.30,-0.29,-0.30
276.61,0.75,1.01,0.75,1.02,-1.02,-0.81,-1.34,-0.27,-0.26,-0.27
279.38,0.75,0.98,0.75,0.99,-0.99,-0.78,-1.31,-0.24,-0.24,-0.24
282.17,0.75,0.96,0.75,0.96,-0.96,-0.75,-1.28,-0.21,-0.21,-0.22
284.99,0.76,0.93,0.75,0.93,-0.93,-0.71,-1.25,-0.17,-0.18,-0.18
287.84,0.77,0.92,0.75,0.90,-0.90,-0.68,-1.21,-0.13,-0.15,-0.16
290.72,0.78,0.90,0.75,0.87,-0.87,-0.65,-1.18,-0.09,-0.12,-0.13
293.63,0.70,0.79,0.74,0.83,-0.83,-0.62,-1.14,-0.13,-0.09,-0.10
296.57,0.70,0.76,0.71,0.78,-0.78,-0.59,-1.10,-0.08,-0.06,-0.07
299.53,0.71,0.74,0.69,0.72,-0.72,-0.56,-1.06,-0.02,-0.04,-0.04
302.53,0.69,0.70,0.66,0.67,-0.67,-0.54,-1.02,0.02,-0.01,-0.02
305.55,0.64,0.61,0.64,0.62,-0.62,-0.51,-0.98,0.02,0.02,0.02
308.61,0.64,0.59,0.61,0.57,-0.57,-0.48,-0.94,0.07,0.04,0.04
311.69,0.65,0.57,0.58,0.51,-0.51,-0.46,-0.90,0.13,0.07,0.07
314.81,0.60,0.50,0.55,0.46,-0.46,-0.44,-0.86,0.14,0.09,0.09
317.96,0.51,0.39,0.52,0.41,-0.41,-0.41,-0.82,0.10,0.11,0.11
321.14,0.42,0.29,0.49,0.37,-0.37,-0.39,-0.78,0.05,0.13,0.12
324.35,0.36,0.21,0.47,0.33,-0.33,-0.37,-0.74,0.03,0.14,0.14
327.59,0.35,0.19,0.45,0.29,-0.29,-0.35,-0.70,0.05,0.16,0.15
330.87,0.42,0.25,0.43,0.26,-0.26,-0.33,-0.66,0.16,0.17,0.16
334.18,0.45,0.26,0.40,0.22,-0.22,-0.31,-0.62,0.23,0.18,0.18
337.52,0.45,0.25,0.38,0.19,-0.19,-0.29,-0.58,0.26,0.19,0.19
340.90,0.38,0.17,0.36,0.16,-0.16,-0.27,-0.54,0.22,0.20,0.20
344.30,0.35,0.13,0.33,0.13,-0.13,-0.25,-0.50,0.22,0.21,0.21
347.75,0.35,0.13,0.31,0.10,-0.10,-0.23,-0.46,0.25,0.21,0.21
351.23,0.35,0.12,0.30,0.08,-0.08,-0.22,-0.42,0.27,0.22,0.22
354.74,0.33,0.11,0.29,0.06,-0.06,-0.20,-0.38,0.26,0.22,0.21
358.28,0.27,0.04,0.27,0.05,-0.05,-0.18,-0.34,0.22,0.23,0.22
361.87,0.22,-0.01,0.26,0.03,-0.03,-0.17,-0.30,0.19,0.23,0.22
365.49,0.18,-0.06,0.24,0.01,-0.01,-0.15,-0.27,0.16,0.23,0.23
369.14,0.17,-0.06,0.23,-0.00,0.00,-0.13,-0.23,0.17,0.23,0.22
372.83,0.18,-0.05,0.21,-0.01,0.01,-0.12,-0.19,0.19,0.23,0.22
376.56,0.19,-0.03,0.20,-0.02,0.02,-0.10,-0.16,0.21,0.22,0.21
380.33,0.19,-0.04,0.20,-0.02,0.02,-0.09,-0.12,0.21,0.22,0.22
384.13,0.20,-0.03,0.19,-0.03,0.03,-0.07,-0.08,0.23,0.22,0.22
387.97,0.21,-0.01,0.18,-0.04,0.04,-0.06,-0.05,0.24,0.21,0.21
391.85,0.21,0.00,0.17,-0.04,0.04,-0.04,-0.01,0.25,0.21,0.20
395.77,0.21,-0.01,0.16,-0.04,0.04,-0.03,0.02,0.25,0.20,0.21
399.73,0.21,0.00,0.16,-0.03,0.03,-0.02,0.05,0.24,0.20,0.20
403.72,0.20,-0.01,0.16,-0.03,0.03,-0.00,0.09,0.23,0.19,0.20
407.76,0.13,-0.06,0.15,-0.03,0.03,0.01,0.12,0.16,0.19,0.18
411.84,0.10,-0.09,0.14,-0.04,0.04,0.03,0.15,0.14,0.18,0.18
415.96,0.10,-0.09,0.13,-0.05,0.05,0.04,0.19,0.15,0.18,0.18
420.12,0.10,-0.09,0.12,-0.07,0.07,0.06,0.22,0.16,0.19,0.18
424.32,0.11,-0.08,0.11,-0.08,0.08,0.07,0.25,0.19,0.19,0.18
428.56,0.12,-0.08,0.11,-0.10,0.10,0.09,0.28,0.21,0.20,0.19
432.85,0.13,-0.08,0.11,-0.11,0.11,0.10,0.31,0.24,0.22,0.20
437.18,0.16,-0.06,0.12,-0.12,0.12,0.12,0.34,0.28,0.24,0.21
441.55,0.14,-0.12,0.13,-0.13,0.13,0.13,0.37,0.27,0.26,0.25
445.96,0.14,-0.15,0.15,-0.14,0.14,0.15,0.40,0.28,0.30,0.28
450.42,0.11,-0.21,0.18,-0.15,0.15,0.17,0.42,0.26,0.33,0.31
454.93,0.15,-0.22,0.21,-0.16,0.16,0.18,0.45,0.31,0.37,0.36
459.48,0.21,-0.20,0.24,-0.18,0.18,0.20,0.48,0.39,0.42,0.40
464.07,0.27,-0.19,0.27,-0.19,0.19,0.22,0.50,0.46,0.46,0.45
468.71,0.32,-0.20,0.31,-0.20,0.20,0.24,0.52,0.52,0.51,0.51
473.40,0.39,-0.17,0.34,-0.22,0.22,0.25,0.55,0.60,0.56,0.55
478.13,0.42,-0.20,0.38,-0.23,0.23,0.27,0.57,0.64,0.61,0.61
482.91,0.41,-0.25,0.42,-0.23,0.23,0.29,0.59,0.64,0.65,0.65
487.74,0.43,-0.27,0.45,-0.24,0.24,0.31,0.61,0.67,0.69,0.69
492.62,0.46,-0.29,0.48,-0.25,0.25,0.33,0.63,0.71,0.73,0.74
497.55,0.49,-0.28,0.50,-0.26,0.26,0.36,0.64,0.75,0.76,0.76
502.52,0.51,-0.29,0.51,-0.28,0.28,0.38,0.66,0.79,0.78,0.79
507.55,0.53,-0.28,0.50,-0.30,0.30,0.40,0.67,0.82,0.80,0.80
512.62,0.55,-0.27,0.49,-0.32,0.32,0.43,0.69,0.87,0.80,0.81
517.75,0.49,-0.34,0.47,-0.33,0.33,0.45,0.70,0.82,0.80,0.82
522.93,0.46,-0.36,0.44,-0.35,0.35,0.48,0.71,0.81,0.79,0.81
528.16,0.44,-0.35,0.40,-0.37,0.37,0.50,0.73,0.81,0.77,0.78
533.44,0.35,-0.41,0.34,-0.40,0.40,0.53,0.74,0.75,0.74,0.75
