frequency,raw,error,smoothed,error_smoothed,equalization,parametric_eq,fixed_band_eq,equalized_raw,equalized_smoothed,target
20.00,-8.68,-12.99,-8.71,-13.05,13.05,12.67,4.84,4.37,4.34,4.31
20.20,-8.63,-12.99,-8.65,-13.03,13.03,12.64,4.96,4.39,4.38,4.36
20.40,-8.57,-12.98,-8.58,-13.00,13.00,12.61,5.09,4.42,4.41,4.41
20.61,-8.52,-12.96,-8.51,-12.96,12.96,12.57,5.22,4.44,4.45,4.44
20.81,-8.47,-12.96,-8.45,-12.92,12.92,12.54,5.36,4.45,4.48,4.49
21.02,-8.41,-12.94,-8.38,-12.88,12.88,12.51,5.50,4.47,4.51,4.53
21.23,-8.33,-12.88,-8.31,-12.84,12.84,12.47,5.64,4.51,4.53,4.55
21.44,-8.25,-12.82,-8.24,-12.79,12.79,12.43,5.79,4.54,4.55,4.57
21.66,-8.17,-12.76,-8.16,-12.74,12.74,12.40,5.94,4.57,4.57,4.59
21.87,-8.10,-12.70,-8.09,-12.68,12.68,12.36,6.09,4.58,4.59,4.60
22.09,-8.02,-12.64,-8.02,-12.63,12.63,12.32,6.25,4.61,4.61,4.62
22.31,-7.94,-12.57,-7.94,-12.57,12.57,12.28,6.42,4.63,4.62,4.63
22.54,-7.85,-12.48,-7.86,-12.49,12.49,12.24,6.59,4.64,4.63,4.63
22.76,-7.77,-12.40,-7.78,-12.41,12.41,12.20,6.76,4.64,4.63,4.63
22.99,-7.69,-12.31,-7.70,-12.33,12.33,12.16,6.94,4.64,4.63,4.62
23.22,-7.62,-12.24,-7.62,-12.25,12.25,12.12,7.12,4.63,4.63,4.62
23.45,-7.54,-12.16,-7.54,-12.17,12.17,12.08,7.30,4.63,4.63,4.62
23.69,-7.47,-12.10,-7.46,-12.10,12.10,12.03,7.49,4.62,4.63,4.63
23.92,-7.39,-12.02,-7.39,-12.02,12.02,11.99,7.69,4.63,4.63,4.63
24.16,-7.32,-11.95,-7.32,-11.95,11.95,11.94,7.89,4.63,4.63,4.63
24.40,-7.24,-11.88,-7.25,-11.88,11.88,11.90,8.09,4.64,4.63,4.64
24.65,-7.16,-11.79,-7.18,-11.81,11.81,11.85,8.30,4.65,4.63,4.63
24.89,-7.08,-11.71,-7.12,-11.75,11.75,11.81,8.51,4.67,4.63,4.63
25.14,-7.02,-11.65,-7.05,-11.69,11.69,11.76,8.72,4.67,4.63,4.63
25.39,-6.98,-11.62,-6.99,-11.63,11.63,11.71,8.94,4.64,4.64,4.64
25.65,-6.93,-11.57,-6.93,-11.56,11.56,11.66,9.16,4.63,4.64,4.64
25.91,-6.89,-11.52,-6.86,-11.50,11.50,11.61,9.39,4.61,4.64,4.63
26.16,-6.82,-11.45,-6.80,-11.44,11.44,11.56,9.61,4.62,4.63,4.63
26.43,-6.75,-11.38,-6.74,-11.37,11.37,11.51,9.84,4.62,4.63,4.63
26.69,-6.68,-11.31,-6.67,-11.30,11.30,11.46,10.07,4.62,4.63,4.63
26.96,-6.61,-11.24,-6.60,-11.23,11.23,11.41,10.29,4.62,4.63,4.63
27.23,-6.54,-11.17,-6.53,-11.16,11.16,11.36,10.52,4.62,4.63,4.63
27.50,-6.46,-11.09,-6.46,-11.08,11.08,11.30,10.74,4.62,4.63,4.63
27.77,-6.39,-11.01,-6.38,-11.01,11.01,11.25,10.96,4.61,4.62,4.62
28.05,-6.31,-10.93,-6.30,-10.92,10.92,11.20,11.17,4.61,4.62,4.62
28.33,-6.23,-10.84,-6.22,-10.84,10.84,11.14,11.37,4.61,4.62,4.61
28.62,-6.14,-10.75,-6.13,-10.75,10.75,11.09,11.57,4.61,4.62,4.61
28.90,-6.05,-10.67,-6.05,-10.67,10.67,11.03,11.76,4.62,4.62,4.62
29.19,-5.96,-10.57,-5.98,-10.59,10.59,10.97,11.93,4.63,4.62,4.61
29.48,-5.88,-10.50,-5.90,-10.51,10.51,10.92,12.09,4.63,4.62,4.62
29.78,-5.79,-10.40,-5.82,-10.44,10.44,10.86,12.23,4.64,4.61,4.61
30.08,-5.72,-10.34,-5.75,-10.36,10.36,10.80,12.35,4.64,4.61,4.62
30.38,-5.66,-10.27,-5.67,-10.29,10.29,10.74,12.45,4.62,4.61,4.61
30.68,-5.60,-10.21,-5.60,-10.21,10.21,10.68,12.54,4.61,4.61,4.61
30.99,-5.54,-10.15,-5.54,-10.14,10.14,10.62,12.60,4.60,4.61,4.61
31.30,-5.48,-10.08,-5.47,-10.08,10.08,10.56,12.64,4.59,4.61,4.60
31.61,-5.42,-10.02,-5.41,-10.01,10.01,10.50,12.65,4.59,4.60,4.60
31.93,-5.35,-9.95,-5.34,-9.94,9.94,10.44,12.65,4.59,4.60,4.60
32.24,-5.29,-9.88,-5.28,-9.88,9.88,10.38,12.63,4.58,4.59,4.59
32.57,-5.22,-9.81,-5.22,-9.81,9.81,10.32,12.58,4.59,4.59,4.59
32.89,-5.15,-9.74,-5.15,-9.74,9.74,10.26,12.52,4.59,4.59,4.59
33.22,-5.09,-9.67,-5.09,-9.67,9.67,10.20,12.44,4.58,4.58,4.58
33.55,-5.04,-9.62,-5.03,-9.61,9.61,10.14,12.34,4.57,4.58,4.58
33.89,-4.98,-9.55,-4.97,-9.55,9.55,10.07,12.24,4.56,4.57,4.57
34.23,-4.91,-9.48,-4.92,-9.49,9.49,10.01,12.12,4.58,4.57,4.57
34.57,-4.85,-9.41,-4.87,-9.43,9.43,9.95,11.99,4.58,4.56,4.56
34.92,-4.78,-9.34,-4.82,-9.38,9.38,9.88,11.86,4.59,4.56,4.56
35.27,-4.73,-9.28,-4.77,-9.32,9.32,9.82,11.72,4.59,4.56,4.55
35.62,-4.69,-9.24,-4.72,-9.27,9.27,9.75,11.58,4.58,4.55,4.55
35.97,-4.64,-9.19,-4.67,-9.22,9.22,9.69,11.43,4.58,4.55,4.55
36.33,-4.63,-9.18,-4.62,-9.17,9.17,9.63,11.29,4.54,4.55,4.55
36.70,-4.61,-9.15,-4.58,-9.13,9.13,9.56,11.14,4.51,4.55,4.54
37.06,-4.59,-9.13,-4.52,-9.07,9.07,9.50,11.00,4.48,4.55,4.54
37.43,-4.50,-9.05,-4.46,-9.01,9.01,9.43,10.85,4.51,4.55,4.55
37.81,-4.42,-8.97,-4.40,-8.95,8.95,9.37,10.72,4.53,4.55,4.55
38.19,-4.35,-8.89,-4.34,-8.89,8.89,9.30,10.58,4.54,4.55,4.54
38.57,-4.29,-8.84,-4.29,-8.84,8.84,9.24,10.45,4.54,4.55,4.55
38.95,-4.24,-8.80,-4.22,-8.77,8.77,9.17,10.32,4.53,4.55,4.56
39.34,-4.17,-8.72,-4.16,-8.71,8.71,9.11,10.20,4.54,4.55,4.55
39.74,-4.10,-8.65,-4.10,-8.65,8.65,9.04,10.09,4.55,4.55,4.55
40.14,-4.03,-8.58,-4.03,-8.59,8.59,8.98,9.98,4.55,4.55,4.55
40.54,-3.94,-8.49,-3.98,-8.53,8.53,8.92,9.87,4.58,4.55,4.55
40.94,-3.84,-8.38,-3.92,-8.47,8.47,8.85,9.78,4.63,4.55,4.54
41.35,-3.84,-8.38,-3.88,-8.42,8.42,8.79,9.68,4.58,4.54,4.54
41.76,-3.85,-8.38,-3.85,-8.38,8.38,8.72,9.60,4.53,4.53,4.53
42.18,-3.83,-8.36,-3.83,-8.35,8.35,8.66,9.52,4.52,4.52,4.53
42.60,-3.79,-8.31,-3.80,-8.32,8.32,8.60,9.45,4.53,4.51,4.52
43.03,-3.75,-8.26,-3.78,-8.28,8.28,8.54,9.39,4.53,4.50,4.51
43.46,-3.75,-8.25,-3.76,-8.25,8.25,8.47,9.33,4.50,4.49,4.50
43.90,-3.75,-8.23,-3.74,-8.22,8.22,8.41,9.28,4.47,4.48,4.48
44.33,-3.75,-8.21,-3.73,-8.20,8.20,8.35,9.23,4.45,4.47,4.46
44.78,-3.75,-8.19,-3.72,-8.17,8.17,8.29,9.20,4.42,4.45,4.44
45.23,-3.75,-8.18,-3.70,-8.14,8.14,8.23,9.17,4.39,4.44,4.43
45.68,-3.75,-8.17,-3.68,-8.11,8.11,8.17,9.14,4.36,4.43,4.42
46.13,-3.72,-8.12,-3.66,-8.07,8.07,8.12,9.12,4.35,4.41,4.40
46.60,-3.63,-8.03,-3.64,-8.03,8.03,8.06,9.11,4.40,4.40,4.40
47.06,-3.55,-7.93,-3.62,-8.00,8.00,8.00,9.11,4.45,4.38,4.38
47.53,-3.58,-7.95,-3.61,-7.98,7.98,7.95,9.11,4.40,4.37,4.37
48.01,-3.61,-7.98,-3.61,-7.96,7.96,7.90,9.11,4.35,4.35,4.37
48.49,-3.58,-7.93,-3.60,-7.94,7.94,7.85,9.12,4.36,4.34,4.35
48.97,-3.55,-7.88,-3.60,-7.93,7.93,7.79,9.14,4.38,4.33,4.33
49.46,-3.55,-7.86,-3.61,-7.92,7.92,7.75,9.16,4.37,4.31,4.31
49.96,-3.55,-7.84,-3.62,-7.92,7.92,7.70,9.19,4.37,4.30,4.29
50.46,-3.61,-7.89,-3.63,-7.92,7.92,7.65,9.22,4.31,4.29,4.28
50.96,-3.68,-7.95,-3.65,-7.92,7.92,7.61,9.26,4.24,4.27,4.27
51.47,-3.72,-7.97,-3.67,-7.93,7.93,7.57,9.29,4.21,4.26,4.25
51.99,-3.75,-7.99,-3.69,-7.94,7.94,7.53,9.33,4.19,4.25,4.24
52.51,-3.75,-7.98,-3.72,-7.95,7.95,7.49,9.38,4.20,4.23,4.23
53.03,-3.75,-7.98,-3.73,-7.96,7.96,7.46,9.42,4.20,4.22,4.23
53.56,-3.75,-7.96,-3.75,-7.96,7.96,7.42,9.47,4.21,4.21,4.21
54.10,-3.75,-7.95,-3.77,-7.97,7.97,7.39,9.51,4.21,4.20,4.20
54.64,-3.75,-7.93,-3.77,-7.96,7.96,7.37,9.55,4.21,4.19,4.18
55.18,-3.75,-7.93,-3.77,-7.95,7.95,7.34,9.60,4.20,4.18,4.18
55.74,-3.75,-7.91,-3.76,-7.92,7.92,7.32,9.64,4.17,4.17,4.16
56.29,-3.75,-7.90,-3.73,-7.89,7.89,7.31,9.67,4.14,4.16,4.15
56.86,-3.75,-7.89,-3.71,-7.85,7.85,7.29,9.70,4.10,4.14,4.14
57.42,-3.75,-7.86,-3.69,-7.81,7.81,7.28,9.72,4.06,4.12,4.11
58.00,-3.75,-7.85,-3.66,-7.77,7.77,7.28,9.74,4.02,4.10,4.10
58.58,-3.69,-7.78,-3.65,-7.73,7.73,7.28,9.75,4.04,4.08,4.09
59.16,-3.63,-7.70,-3.63,-7.69,7.69,7.28,9.75,4.06,4.06,4.07
59.76,-3.57,-7.62,-3.62,-7.65,7.65,7.29,9.73,4.08,4.03,4.05
60.35,-3.55,-7.56,-3.62,-7.62,7.62,7.30,9.71,4.07,4.00,4.01
60.96,-3.55,-7.52,-3.63,-7.59,7.59,7.32,9.67,4.04,3.97,3.97
61.57,-3.58,-7.51,-3.64,-7.57,7.57,7.34,9.62,3.98,3.93,3.93
62.18,-3.63,-7.52,-3.65,-7.55,7.55,7.37,9.56,3.91,3.89,3.89
62.80,-3.69,-7.53,-3.69,-7.54,7.54,7.41,9.48,3.84,3.85,3.84
63.43,-3.75,-7.55,-3.73,-7.54,7.54,7.45,9.39,3.79,3.81,3.80
64.07,-3.82,-7.57,-3.80,-7.56,7.56,7.50,9.29,3.74,3.76,3.75
64.71,-3.92,-7.63,-3.88,-7.60,7.60,7.55,9.17,3.68,3.72,3.71
65.35,-4.02,-7.69,-3.99,-7.66,7.66,7.62,9.04,3.64,3.67,3.67
66.01,-4.11,-7.73,-4.12,-7.75,7.75,7.69,8.90,3.64,3.62,3.62
66.67,-4.20,-7.77,-4.27,-7.85,7.85,7.77,8.75,3.65,3.58,3.57
67.33,-4.31,-7.83,-4.44,-7.97,7.97,7.85,8.58,3.65,3.53,3.52
68.01,-4.44,-7.92,-4.61,-8.09,8.09,7.94,8.41,3.65,3.48,3.48
68.69,-4.67,-8.10,-4.79,-8.22,8.22,8.04,8.23,3.55,3.43,3.43
69.37,-4.89,-8.27,-4.97,-8.35,8.35,8.15,8.04,3.45,3.38,3.38
70.07,-5.11,-8.44,-5.13,-8.46,8.46,8.27,7.84,3.35,3.33,3.33
70.77,-5.34,-8.62,-5.28,-8.55,8.55,8.39,7.64,3.21,3.27,3.28
71.48,-5.53,-8.76,-5.41,-8.62,8.62,8.52,7.43,3.09,3.22,3.23
72.19,-5.69,-8.85,-5.51,-8.67,8.67,8.65,7.22,2.98,3.16,3.16
72.91,-5.86,-8.96,-5.59,-8.70,8.70,8.79,7.01,2.84,3.11,3.10
73.64,-5.90,-8.95,-5.65,-8.70,8.70,8.93,6.79,2.80,3.05,3.05
74.38,-5.89,-8.88,-5.69,-8.68,8.68,9.08,6.57,2.79,2.99,2.99
75.12,-5.84,-8.77,-5.71,-8.65,8.65,9.22,6.35,2.80,2.94,2.93
75.87,-5.73,-8.60,-5.72,-8.60,8.60,9.35,6.13,2.87,2.88,2.87
76.63,-5.63,-8.45,-5.72,-8.55,8.55,9.48,5.92,2.92,2.83,2.82
77.40,-5.57,-8.34,-5.73,-8.50,8.50,9.60,5.70,2.93,2.77,2.77
78.17,-5.57,-8.28,-5.75,-8.47,8.47,9.69,5.48,2.90,2.72,2.71
78.95,-5.59,-8.26,-5.80,-8.47,8.47,9.77,5.26,2.88,2.67,2.67
79.74,-5.64,-8.26,-5.88,-8.50,8.50,9.82,5.05,2.86,2.62,2.62
80.54,-5.76,-8.33,-5.99,-8.57,8.57,9.84,4.83,2.80,2.57,2.57
81.35,-5.93,-8.45,-6.13,-8.66,8.66,9.82,4.62,2.73,2.52,2.52
82.16,-6.17,-8.64,-6.31,-8.79,8.79,9.76,4.41,2.61,2.48,2.47
82.98,-6.45,-8.88,-6.51,-8.94,8.94,9.65,4.20,2.49,2.43,2.43
83.81,-6.61,-8.99,-6.71,-9.09,9.09,9.50,4.00,2.48,2.38,2.38
84.65,-6.84,-9.17,-6.91,-9.24,9.24,9.31,3.79,2.40,2.33,2.33
85.50,-7.10,-9.39,-7.07,-9.36,9.36,9.07,3.59,2.25,2.28,2.29
86.35,-7.31,-9.55,-7.18,-9.41,9.41,8.79,3.39,2.10,2.23,2.24
87.22,-7.42,-9.61,-7.22,-9.40,9.40,8.48,3.19,1.98,2.18,2.19
88.09,-7.41,-9.55,-7.20,-9.33,9.33,8.14,2.99,1.92,2.13,2.14
88.97,-7.29,-9.37,-7.10,-9.18,9.18,7.77,2.80,1.89,2.08,2.08
89.86,-7.17,-9.20,-6.90,-8.93,8.93,7.39,2.60,1.76,2.03,2.03
90.76,-6.98,-8.96,-6.61,-8.60,8.60,6.99,2.41,1.61,1.98,1.98
91.66,-6.48,-8.41,-6.24,-8.17,8.17,6.58,2.22,1.69,1.93,1.93
92.58,-5.92,-7.79,-5.78,-7.66,7.66,6.16,2.04,1.74,1.88,1.87
93.51,-5.33,-7.16,-5.24,-7.07,7.07,5.75,1.85,1.74,1.83,1.82
94.44,-4.59,-6.37,-4.65,-6.43,6.43,5.33,1.67,1.84,1.78,1.78
95.39,-3.88,-5.62,-3.98,-5.71,5.71,4.92,1.49,1.83,1.73,1.73
96.34,-3.34,-5.02,-3.28,-4.96,4.96,4.51,1.31,1.62,1.68,1.68
97.30,-2.65,-4.28,-2.56,-4.20,4.20,4.10,1.13,1.55,1.63,1.63
98.28,-1.80,-3.39,-1.87,-3.46,3.46,3.71,0.95,1.65,1.59,1.58
99.26,-1.09,-2.63,-1.21,-2.75,2.75,3.32,0.78,1.66,1.54,1.54
100.25,-0.49,-1.98,-0.58,-2.07,2.07,2.94,0.60,1.58,1.49,1.49
101.25,0.19,-1.25,0.01,-1.43,1.43,2.57,0.43,1.62,1.44,1.44
102.27,0.80,-0.59,0.54,-0.85,0.85,2.21,0.26,1.65,1.39,1.39
103.29,1.16,-0.18,1.00,-0.34,0.34,1.86,0.10,1.50,1.34,1.34
104.32,1.63,0.33,1.39,0.10,-0.10,1.52,-0.07,1.53,1.29,1.30
105.37,2.14,0.88,1.71,0.47,-0.47,1.19,-0.23,1.67,1.24,1.25
106.42,2.18,0.98,1.99,0.79,-0.79,0.86,-0.39,1.38,1.19,1.20
107.48,2.11,0.97,2.21,1.07,-1.07,0.55,-0.54,1.04,1.14,1.14
108.56,2.16,1.07,2.39,1.31,-1.31,0.25,-0.69,0.85,1.09,1.09
109.64,2.50,1.46,2.55,1.51,-1.51,-0.04,-0.84,0.99,1.04,1.04
110.74,2.76,1.78,2.67,1.69,-1.69,-0.33,-0.99,1.07,0.98,0.98
111.85,2.70,1.76,2.77,1.84,-1.84,-0.60,-1.13,0.86,0.93,0.94
112.97,2.75,1.87,2.86,1.98,-1.98,-0.87,-1.27,0.77,0.88,0.88
114.10,2.66,1.83,2.95,2.12,-2.12,-1.12,-1.40,0.54,0.83,0.83
115.24,2.79,2.01,3.04,2.25,-2.25,-1.37,-1.52,0.53,0.79,0.78
116.39,3.07,2.34,3.13,2.39,-2.39,-1.61,-1.65,0.68,0.74,0.73
117.55,3.32,2.63,3.24,2.54,-2.54,-1.84,-1.76,0.78,0.70,0.69
118.73,3.47,2.82,3.38,2.72,-2.72,-2.06,-1.87,0.75,0.66,0.65
119.92,3.76,3.14,3.52,2.90,-2.90,-2.28,-1.98,0.86,0.62,0.62
121.12,3.64,3.06,3.64,3.05,-3.05,-2.48,-2.08,0.58,0.59,0.58
122.33,3.65,3.10,3.76,3.20,-3.20,-2.68,-2.17,0.44,0.55,0.55
123.55,3.81,3.29,3.88,3.36,-3.36,-2.87,-2.26,0.45,0.52,0.52
124.79,4.00,3.51,4.02,3.53,-3.53,-3.05,-2.34,0.47,0.49,0.49
126.03,4.08,3.62,4.14,3.69,-3.69,-3.22,-2.41,0.39,0.46,0.46
127.29,4.21,3.77,4.25,3.82,-3.82,-3.39,-2.48,0.39,0.43,0.44
128.57,4.35,3.95,4.33,3.93,-3.93,-3.55,-2.54,0.42,0.40,0.40
129.85,4.48,4.11,4.39,4.02,-4.02,-3.70,-2.60,0.46,0.37,0.37
131.15,4.61,4.27,4.45,4.11,-4.11,-3.84,-2.65,0.50,0.34,0.34
132.46,4.48,4.17,4.50,4.19,-4.19,-3.98,-2.70,0.29,0.31,0.31
133.79,4.49,4.21,4.54,4.25,-4.25,-4.10,-2.74,0.23,0.29,0.28
135.12,4.66,4.41,4.58,4.33,-4.33,-4.22,-2.77,0.33,0.26,0.25
136.48,4.61,4.38,4.60,4.37,-4.37,-4.34,-2.80,0.24,0.23,0.23
137.84,4.67,4.48,4.60,4.39,-4.39,-4.45,-2.83,0.28,0.20,0.19
139.22,4.52,4.36,4.58,4.41,-4.41,-4.55,-2.86,0.11,0.17,0.16
140.61,4.44,4.31,4.57,4.42,-4.42,-4.64,-2.88,0.02,0.14,0.13
142.02,4.54,4.43,4.53,4.42,-4.42,-4.73,-2.90,0.12,0.11,0.11
143.44,4.51,4.43,4.48,4.41,-4.41,-4.81,-2.92,0.10,0.08,0.08
144.87,4.39,4.35,4.43,4.39,-4.39,-4.88,-2.93,-0.00,0.04,0.04
146.32,4.28,4.28,4.36,4.37,-4.37,-4.95,-2.95,-0.09,-0.01,0.00
147.78,4.29,4.32,4.28,4.34,-4.34,-5.01,-2.96,-0.05,-0.05,-0.03
149.26,4.26,4.34,4.17,4.28,-4.28,-5.07,-2.98,-0.02,-0.11,-0.08
150.75,4.10,4.24,4.01,4.18,-4.18,-5.12,-2.99,-0.08,-0.17,-0.14
152.26,4.03,4.24,3.85,4.08,-4.08,-5.16,-3.00,-0.05,-0.23,-0.21
153.78,3.93,4.21,3.67,3.96,-3.96,-5.20,-3.02,-0.04,-0.29,-0.28
155.32,3.74,4.09,3.50,3.86,-3.86,-5.23,-3.03,-0.12,-0.36,-0.35
156.88,3.49,3.92,3.34,3.78,-3.78,-5.26,-3.05,-0.29,-0.43,-0.43
158.44,3.30,3.81,3.23,3.73,-3.73,-5.29,-3.07,-0.43,-0.50,-0.51
160.03,3.15,3.74,3.16,3.73,-3.73,-5.31,-3.09,-0.58,-0.57,-0.59
161.63,2.92,3.58,3.14,3.78,-3.78,-5.32,-3.11,-0.86,-0.64,-0.66
163.24,2.75,3.47,3.17,3.86,-3.86,-5.34,-3.13,-1.12,-0.70,-0.72
164.88,2.59,3.36,3.23,3.98,-3.98,-5.34,-3.16,-1.39,-0.75,-0.77
166.53,2.69,3.51,3.33,4.13,-4.13,-5.35,-3.19,-1.44,-0.80,-0.82
168.19,3.10,3.96,3.46,4.30,-4.30,-5.35,-3.22,-1.21,-0.84,-0.86
169.87,3.45,4.35,3.62,4.49,-4.49,-5.34,-3.25,-1.05,-0.87,-0.90
171.57,3.97,4.89,3.80,4.70,-4.70,-5.33,-3.29,-0.73,-0.90,-0.92
173.29,4.42,5.35,3.99,4.91,-4.91,-5.32,-3.33,-0.49,-0.92,-0.93
175.02,4.70,5.64,4.18,5.12,-5.12,-5.31,-3.37,-0.42,-0.93,-0.94
176.77,4.81,5.76,4.36,5.30,-5.30,-5.29,-3.41,-0.49,-0.94,-0.95
178.54,4.87,5.83,4.52,5.47,-5.47,-5.28,-3.46,-0.60,-0.95,-0.96
180.32,4.84,5.79,4.66,5.62,-5.62,-5.25,-3.51,-0.78,-0.96,-0.95
182.13,4.79,5.73,4.76,5.72,-5.72,-5.23,-3.56,-0.93,-0.96,-0.94
183.95,4.73,5.68,4.81,5.77,-5.77,-5.20,-3.62,-1.05,-0.97,-0.95
185.79,4.71,5.66,4.80,5.78,-5.78,-5.17,-3.67,-1.07,-0.97,-0.95
187.65,4.66,5.63,4.76,5.74,-5.74,-5.14,-3.73,-1.08,-0.98,-0.97
189.52,4.57,5.55,4.69,5.68,-5.68,-5.11,-3.80,-1.12,-0.99,-0.98
191.42,4.50,5.50,4.61,5.62,-5.62,-5.08,-3.86,-1.12,-1.00,-1.00
193.33,4.47,5.49,4.54,5.56,-5.56,-5.04,-3.93,-1.09,-1.02,-1.02
195.27,4.48,5.52,4.48,5.52,-5.52,-5.01,-4.00,-1.04,-1.04,-1.04
197.22,4.46,5.52,4.44,5.49,-5.49,-4.97,-4.08,-1.03,-1.05,-1.06
199.19,4.36,5.44,4.40,5.47,-5.47,-4.93,-4.15,-1.11,-1.07,-1.08
201.18,4.31,5.41,4.37,5.46,-5.46,-4.89,-4.23,-1.16,-1.09,-1.10
203.19,4.31,5.43,4.34,5.46,-5.46,-4.84,-4.31,-1.15,-1.12,-1.12
205.23,4.31,5.45,4.31,5.45,-5.45,-4.80,-4.38,-1.14,-1.14,-1.14
207.28,4.31,5.46,4.28,5.44,-5.44,-4.76,-4.46,-1.13,-1.16,-1.15
209.35,4.29,5.46,4.25,5.43,-5.43,-4.71,-4.54,-1.14,-1.18,-1.17
211.44,4.23,5.43,4.22,5.42,-5.42,-4.67,-4.62,-1.19,-1.19,-1.20
213.56,4.20,5.41,4.19,5.39,-5.39,-4.62,-4.70,-1.20,-1.21,-1.21
215.69,4.20,5.42,4.14,5.36,-5.36,-4.57,-4.78,-1.17,-1.22,-1.22
217.85,4.12,5.35,4.10,5.33,-5.33,-4.52,-4.85,-1.21,-1.23,-1.23
220.03,4.06,5.30,4.04,5.29,-5.29,-4.48,-4.93,-1.23,-1.24,-1.24
222.23,4.01,5.28,3.99,5.24,-5.24,-4.43,-5.00,-1.23,-1.25,-1.27
224.45,3.92,5.18,3.93,5.18,-5.18,-4.38,-5.07,-1.26,-1.25,-1.26
226.70,3.87,5.13,3.86,5.11,-5.11,-4.33,-5.13,-1.24,-1.25,-1.26
228.96,3.79,5.04,3.79,5.03,-5.03,-4.28,-5.19,-1.24,-1.25,-1.25
231.25,3.74,4.98,3.72,4.96,-4.96,-4.23,-5.24,-1.22,-1.24,-1.24
233.57,3.70,4.93,3.66,4.89,-4.89,-4.18,-5.29,-1.19,-1.23,-1.23
235.90,3.59,4.81,3.61,4.82,-4.82,-4.13,-5.33,-1.23,-1.21,-1.22
238.26,3.53,4.74,3.57,4.76,-4.76,-4.08,-5.37,-1.24,-1.20,-1.21
240.64,3.47,4.65,3.53,4.70,-4.70,-4.03,-5.39,-1.24,-1.18,-1.18
243.05,3.43,4.58,3.50,4.65,-4.65,-3.98,-5.41,-1.22,-1.15,-1.15
245.48,3.40,4.53,3.47,4.60,-4.60,-3.93,-5.43,-1.21,-1.13,-1.13
247.93,3.34,4.44,3.45,4.56,-4.56,-3.88,-5.43,-1.22,-1.11,-1.10
250.41,3.43,4.51,3.43,4.52,-4.52,-3.83,-5.43,-1.09,-1.08,-1.08
252.92,3.46,4.51,3.41,4.47,-4.47,-3.78,-5.41,-1.01,-1.06,-1.05
255.45,3.47,4.50,3.39,4.43,-4.43,-3.73,-5.39,-0.96,-1.04,-1.03
258.00,3.48,4.49,3.38,4.39,-4.39,-3.68,-5.36,-0.91,-1.01,-1.01
260.58,3.44,4.43,3.35,4.34,-4.34,-3.63,-5.32,-0.90,-0.99,-0.99
263.19,3.38,4.34,3.33,4.30,-4.30,-3.58,-5.28,-0.92,-0.96,-0.96
265.82,3.28,4.22,3.31,4.24,-4.24,-3.53,-5.22,-0.97,-0.94,-0.94
268.48,3.28,4.20,3.28,4.19,-4.19,-3.48,-5.17,-0.91,-0.91,-0.92
271.16,3.24,4.13,3.23,4.12,-4.12,-3.43,-5.10,-0.88,-0.89,-0.89
273.87,3.16,4.03,3.18,4.05,-4.05,-3.38,-5.03,-0.89,-0.86,-0.87
276.61,3.08,3.92,3.14,3.97,-3.97,-3.33,-4.95,-0.89,-0.84,-0.84
279.38,3.05,3.86,3.08,3.89,-3.89,-3.28,-4.87,-0.84,-0.81,-0.81
282.17,3.07,3.86,3.02,3.81,-3.81,-3.23,-4.78,-0.74,-0.78,-0.79
284.99,3.01,3.76,2.97,3.72,-3.72,-3.18,-4.69,-0.71,-0.75,-0.75
287.84,2.88,3.61,2.92,3.64,-3.64,-3.14,-4.60,-0.76,-0.72,-0.73
290.72,2.89,3.59,2.88,3.57,-3.57,-3.09,-4.51,-0.68,-0.70,-0.70
293.63,2.81,3.48,2.84,3.50,-3.50,-3.04,-4.41,-0.69,-0.67,-0.67
296.57,2.77,3.41,2.79,3.43,-3.43,-3.00,-4.31,-0.66,-0.64,-0.64
299.53,2.71,3.32,2.75,3.36,-3.36,-2.95,-4.21,-0.65,-0.61,-0.61
302.53,2.73,3.32,2.71,3.29,-3.29,-2.90,-4.12,-0.57,-0.58,-0.59
305.55,2.73,3.28,2.67,3.23,-3.23,-2.86,-4.02,-0.50,-0.56,-0.55
308.61,2.59,3.12,2.63,3.16,-3.16,-2.81,-3.92,-0.57,-0.53,-0.53
311.69,2.55,3.05,2.59,3.10,-3.10,-2.77,-3.82,-0.55,-0.51,-0.50
314.81,2.57,3.05,2.55,3.04,-3.04,-2.72,-3.72,-0.47,-0.49,-0.48
317.96,2.59,3.05,2.51,2.98,-2.98,-2.68,-3.62,-0.39,-0.46,-0.46
321.14,2.52,2.97,2.47,2.91,-2.91,-2.63,-3.53,-0.39,-0.45,-0.45
324.35,2.38,2.81,2.42,2.85,-2.85,-2.59,-3.43,-0.47,-0.43,-0.43
327.59,2.35,2.77,2.37,2.79,-2.79,-2.55,-3.34,-0.44,-0.41,-0.42
330.87,2.35,2.76,2.33,2.73,-2.73,-2.50,-3.25,-0.38,-0.40,-0.41
334.18,2.28,2.67,2.27,2.66,-2.66,-2.46,-3.16,-0.39,-0.39,-0.39
337.52,2.23,2.61,2.22,2.60,-2.60,-2.42,-3.08,-0.37,-0.38,-0.38
340.90,2.19,2.56,2.17,2.54,-2.54,-2.38,-2.99,-0.35,-0.37,-0.37
344.30,2.15,2.51,2.12,2.49,-2.49,-2.33,-2.91,-0.34,-0.36,-0.36
347.75,2.01,2.37,2.07,2.43,-2.43,-2.29,-2.83,-0.42,-0.36,-0.36
351.23,1.94,2.29,2.01,2.36,-2.36,-2.25,-2.75,-0.42,-0.35,-0.35
354.74,1.95,2.31,1.96,2.31,-2.31,-2.21,-2.67,-0.36,-0.35,-0.36
358.28,1.98,2.33,1.92,2.26,-2.26,-2.17,-2.60,-0.29,-0.35,-0.35
361.87,1.92,2.27,1.88,2.22,-2.22,-2.13,-2.53,-0.30,-0.35,-0.35
365.49,1.78,2.12,1.83,2.17,-2.17,-2.09,-2.46,-0.40,-0.35,-0.34
369.14,1.78,2.13,1.79,2.13,-2.13,-2.05,-2.39,-0.35,-0.35,-0.35
372.83,1.75,2.10,1.75,2.10,-2.10,-2.02,-2.32,-0.35,-0.35,-0.35
376.56,1.71,2.07,1.71,2.06,-2.06,-1.98,-2.26,-0.35,-0.35,-0.36
380.33,1.64,1.99,1.67,2.02,-2.02,-1.94,-2.19,-0.38,-0.35,-0.35
384.13,1.61,1.96,1.63,1.99,-1.99,-1.90,-2.13,-0.38,-0.36,-0.35
387.97,1.61,1.97,1.60,1.96,-1.96,-1.86,-2.08,-0.35,-0.36,-0.36
391.85,1.60,1.97,1.55,1.92,-1.92,-1.83,-2.02,-0.32,-0.37,-0.37
395.77,1.54,1.90,1.50,1.87,-1.87,-1.79,-1.96,-0.33,-0.37,-0.36
399.73,1.47,1.84,1.46,1.83,-1.83,-1.76,-1.91,-0.36,-0.38,-0.37
403.72,1.43,1.80,1.42,1.80,-1.80,-1.72,-1.86,-0.37,-0.38,-0.37
407.76,1.41,1.80,1.38,1.76,-1.76,-1.68,-1.81,-0.36,-0.39,-0.39
411.84,1.31,1.70,1.33,1.72,-1.72,-1.65,-1.76,-0.41,-0.39,-0.39
415.96,1.29,1.68,1.29,1.68,-1.68,-1.62,-1.71,-0.39,-0.39,-0.39
420.12,1.29,1.68,1.25,1.64,-1.64,-1.58,-1.67,-0.35,-0.39,-0.39
424.32,1.22,1.61,1.22,1.60,-1.60,-1.55,-1.63,-0.38,-0.38,-0.39
428.56,1.13,1.51,1.19,1.56,-1.56,-1.51,-1.58,-0.44,-0.37,-0.38
432.85,1.11,1.48,1.17,1.53,-1.53,-1.48,-1.54,-0.42,-0.36,-0.37
437.18,1.16,1.52,1.16,1.50,-1.50,-1.45,-1.50,-0.34,-0.33,-0.36
441.55,1.15,1.47,1.16,1.47,-1.47,-1.41,-1.46,-0.33,-0.31,-0.32
445.96,1.15,1.44,1.17,1.45,-1.45,-1.38,-1.42,-0.30,-0.28,-0.29
450.42,1.12,1.38,1.17,1.42,-1.42,-1.35,-1.38,-0.30,-0.24,-0.26
454.93,1.15,1.36,1.18,1.38,-1.38,-1.32,-1.35,-0.23,-0.20,-0.21
459.48,1.21,1.38,1.20,1.35,-1.35,-1.29,-1.31,-0.14,-0.16,-0.17
464.07,1.28,1.40,1.22,1.33,-1.33,-1.26,-1.27,-0.05,-0.11,-0.12
468.71,1.30,1.36,1.25,1.31,-1.31,-1.23,-1.24,-0.01,-0.06,-0.06
473.40,1.30,1.32,1.27,1.28,-1.28,-1.20,-1.21,0.01,-0.01,-0.02
478.13,1.29,1.25,1.29,1.25,-1.25,-1.17,-1.17,0.03,0.03,0.04
482.91,1.30,1.22,1.30,1.22,-1.22,-1.14,-1.14,0.08,0.08,0.08
