frequency,raw,error,smoothed,error_smoothed,equalization,parametric_eq,fixed_band_eq,equalized_raw,equalized_smoothed,target
20.00,-4.97,-12.99,-4.96,-12.99,12.99,11.87,5.79,8.02,8.03,8.03
20.20,-4.93,-12.94,-4.92,-12.94,12.94,11.96,5.93,8.01,8.02,8.02
20.40,-4.89,-12.89,-4.89,-12.89,12.89,12.05,6.08,8.00,8.00,8.00
20.61,-4.85,-12.84,-4.85,-12.84,12.84,12.12,6.23,7.99,7.99,7.99
20.81,-4.82,-12.79,-4.82,-12.80,12.80,12.20,6.38,7.98,7.98,7.97
21.02,-4.79,-12.75,-4.79,-12.76,12.76,12.26,6.54,7.97,7.97,7.96
21.23,-4.76,-12.71,-4.76,-12.72,12.72,12.32,6.71,7.96,7.96,7.95
21.44,-4.73,-12.69,-4.73,-12.68,12.68,12.38,6.88,7.95,7.95,7.96
21.66,-4.70,-12.64,-4.71,-12.65,12.65,12.43,7.05,7.95,7.94,7.94
21.87,-4.68,-12.62,-4.68,-12.61,12.61,12.47,7.23,7.93,7.93,7.94
22.09,-4.66,-12.58,-4.66,-12.58,12.58,12.50,7.41,7.92,7.92,7.92
22.31,-4.64,-12.55,-4.64,-12.55,12.55,12.53,7.60,7.91,7.91,7.92
22.54,-4.61,-12.51,-4.62,-12.53,12.53,12.55,7.79,7.92,7.91,7.91
22.76,-4.59,-12.49,-4.61,-12.51,12.51,12.56,7.99,7.92,7.90,7.90
22.99,-4.58,-12.47,-4.59,-12.49,12.49,12.57,8.19,7.91,7.90,7.89
23.22,-4.57,-12.45,-4.58,-12.47,12.47,12.57,8.40,7.90,7.89,7.88
23.45,-4.55,-12.44,-4.57,-12.45,12.45,12.57,8.62,7.90,7.89,7.89
23.69,-4.54,-12.42,-4.55,-12.43,12.43,12.56,8.84,7.89,7.88,7.88
23.92,-4.54,-12.41,-4.53,-12.40,12.40,12.54,9.07,7.87,7.88,7.87
24.16,-4.53,-12.40,-4.51,-12.38,12.38,12.52,9.30,7.85,7.87,7.88
24.40,-4.52,-12.39,-4.48,-12.35,12.35,12.49,9.54,7.83,7.87,7.87
24.65,-4.49,-12.36,-4.45,-12.31,12.31,12.46,9.78,7.83,7.87,7.87
24.89,-4.44,-12.31,-4.41,-12.28,12.28,12.42,10.04,7.84,7.87,7.87
25.14,-4.39,-12.25,-4.37,-12.24,12.24,12.38,10.29,7.85,7.86,7.86
25.39,-4.34,-12.20,-4.33,-12.19,12.19,12.33,10.56,7.85,7.86,7.86
25.65,-4.28,-12.13,-4.28,-12.14,12.14,12.28,10.82,7.86,7.86,7.86
25.91,-4.22,-12.07,-4.23,-12.09,12.09,12.23,11.10,7.87,7.86,7.85
26.16,-4.16,-12.02,-4.18,-12.04,12.04,12.17,11.38,7.88,7.86,7.86
26.43,-4.11,-11.97,-4.13,-11.99,11.99,12.11,11.66,7.88,7.86,7.86
26.69,-4.07,-11.93,-4.08,-11.93,11.93,12.05,11.94,7.87,7.86,7.86
26.96,-4.02,-11.87,-4.03,-11.89,11.89,11.99,12.23,7.87,7.86,7.86
27.23,-3.98,-11.83,-3.98,-11.84,11.84,11.92,12.52,7.86,7.86,7.85
27.50,-3.93,-11.78,-3.94,-11.80,11.80,11.85,12.81,7.87,7.86,7.85
27.77,-3.89,-11.75,-3.90,-11.76,11.76,11.79,13.10,7.87,7.86,7.86
28.05,-3.86,-11.71,-3.86,-11.72,11.72,11.72,13.38,7.86,7.86,7.86
28.33,-3.83,-11.69,-3.82,-11.68,11.68,11.65,13.66,7.85,7.86,7.86
28.62,-3.80,-11.66,-3.79,-11.65,11.65,11.58,13.93,7.85,7.86,7.86
28.90,-3.77,-11.64,-3.76,-11.62,11.62,11.51,14.19,7.85,7.86,7.87
29.19,-3.74,-11.60,-3.73,-11.59,11.59,11.44,14.43,7.85,7.86,7.86
29.48,-3.72,-11.58,-3.70,-11.56,11.56,11.37,14.65,7.84,7.86,7.86
29.78,-3.69,-11.55,-3.68,-11.53,11.53,11.30,14.86,7.84,7.85,7.86
30.08,-3.65,-11.50,-3.66,-11.51,11.51,11.24,15.03,7.86,7.85,7.85
30.38,-3.63,-11.47,-3.64,-11.49,11.49,11.17,15.18,7.86,7.85,7.84
30.68,-3.61,-11.45,-3.63,-11.47,11.47,11.10,15.29,7.87,7.84,7.84
30.99,-3.61,-11.44,-3.63,-11.46,11.46,11.04,15.37,7.85,7.83,7.83
31.30,-3.61,-11.44,-3.63,-11.45,11.45,10.98,15.41,7.85,7.83,7.83
31.61,-3.61,-11.43,-3.63,-11.45,11.45,10.91,15.41,7.84,7.82,7.82
31.93,-3.61,-11.41,-3.63,-11.44,11.44,10.86,15.38,7.83,7.81,7.80
32.24,-3.62,-11.42,-3.64,-11.44,11.44,10.80,15.32,7.82,7.80,7.81
32.57,-3.64,-11.43,-3.64,-11.44,11.44,10.74,15.22,7.80,7.79,7.79
32.89,-3.66,-11.44,-3.65,-11.44,11.44,10.69,15.09,7.78,7.79,7.79
33.22,-3.68,-11.46,-3.65,-11.43,11.43,10.63,14.94,7.75,7.78,7.78
33.55,-3.69,-11.46,-3.65,-11.43,11.43,10.58,14.77,7.74,7.77,7.78
33.89,-3.68,-11.44,-3.65,-11.41,11.41,10.54,14.58,7.73,7.76,7.76
34.23,-3.67,-11.41,-3.64,-11.39,11.39,10.49,14.37,7.73,7.75,7.74
34.57,-3.64,-11.38,-3.62,-11.37,11.37,10.45,14.16,7.73,7.74,7.74
34.92,-3.62,-11.34,-3.60,-11.33,11.33,10.41,13.93,7.72,7.73,7.72
35.27,-3.58,-11.31,-3.58,-11.30,11.30,10.37,13.70,7.72,7.72,7.74
35.62,-3.55,-11.26,-3.54,-11.25,11.25,10.33,13.47,7.70,7.71,7.71
35.97,-3.51,-11.21,-3.51,-11.20,11.20,10.29,13.23,7.69,7.69,7.70
36.33,-3.47,-11.15,-3.46,-11.14,11.14,10.26,13.00,7.67,7.68,7.68
36.70,-3.42,-11.08,-3.42,-11.08,11.08,10.23,12.77,7.66,7.66,7.66
37.06,-3.36,-11.00,-3.37,-11.01,11.01,10.20,12.54,7.66,7.64,7.64
37.43,-3.32,-10.94,-3.33,-10.95,10.95,10.17,12.32,7.63,7.62,7.62
37.81,-3.28,-10.88,-3.29,-10.89,10.89,10.15,12.10,7.61,7.60,7.60
38.19,-3.24,-10.81,-3.25,-10.82,10.82,10.13,11.89,7.59,7.58,7.57
38.57,-3.20,-10.75,-3.21,-10.76,10.76,10.10,11.68,7.56,7.56,7.56
38.95,-3.15,-10.68,-3.17,-10.70,10.70,10.09,11.49,7.55,7.53,7.54
39.34,-3.11,-10.61,-3.13,-10.64,10.64,10.07,11.29,7.53,7.51,7.51
39.74,-3.08,-10.56,-3.09,-10.58,10.58,10.05,11.11,7.50,7.48,7.48
40.14,-3.06,-10.51,-3.06,-10.52,10.52,10.04,10.93,7.46,7.46,7.46
40.54,-3.04,-10.47,-3.03,-10.46,10.46,10.02,10.76,7.42,7.43,7.44
40.94,-3.02,-10.42,-2.99,-10.40,10.40,10.01,10.60,7.39,7.41,7.40
41.35,-2.99,-10.37,-2.96,-10.35,10.35,9.99,10.44,7.36,7.38,7.38
41.76,-2.95,-10.30,-2.93,-10.29,10.29,9.98,10.30,7.34,7.36,7.35
42.18,-2.91,-10.25,-2.90,-10.23,10.23,9.97,10.16,7.33,7.33,7.34
42.60,-2.87,-10.17,-2.87,-10.18,10.18,9.96,10.02,7.31,7.31,7.30
43.03,-2.84,-10.12,-2.84,-10.12,10.12,9.95,9.90,7.28,7.28,7.28
43.46,-2.80,-10.05,-2.82,-10.07,10.07,9.93,9.78,7.27,7.25,7.25
43.90,-2.78,-10.00,-2.79,-10.01,10.01,9.92,9.67,7.23,7.22,7.22
44.33,-2.75,-9.94,-2.76,-9.95,9.95,9.91,9.56,7.20,7.19,7.19
44.78,-2.73,-9.89,-2.73,-9.89,9.89,9.89,9.47,7.16,7.16,7.16
45.23,-2.71,-9.84,-2.71,-9.83,9.83,9.88,9.37,7.12,7.12,7.14
45.68,-2.69,-9.78,-2.68,-9.77,9.77,9.86,9.29,7.08,7.09,7.09
46.13,-2.67,-9.72,-2.66,-9.71,9.71,9.84,9.21,7.04,7.05,7.05
46.60,-2.65,-9.66,-2.64,-9.65,9.65,9.81,9.14,7.00,7.01,7.01
47.06,-2.63,-9.60,-2.62,-9.59,9.59,9.79,9.07,6.96,6.97,6.97
47.53,-2.60,-9.53,-2.60,-9.52,9.52,9.76,9.01,6.92,6.92,6.94
48.01,-2.58,-9.45,-2.58,-9.46,9.46,9.73,8.96,6.88,6.88,6.88
48.49,-2.55,-9.38,-2.55,-9.39,9.39,9.69,8.91,6.84,6.84,6.84
48.97,-2.53,-9.31,-2.53,-9.31,9.31,9.65,8.86,6.79,6.79,6.78
49.46,-2.51,-9.25,-2.50,-9.24,9.24,9.61,8.82,6.74,6.74,6.74
49.96,-2.49,-9.17,-2.47,-9.17,9.17,9.56,8.79,6.68,6.70,6.68
50.46,-2.46,-9.10,-2.45,-9.10,9.10,9.51,8.75,6.64,6.65,6.65
50.96,-2.43,-9.03,-2.42,-9.03,9.03,9.45,8.73,6.60,6.60,6.60
51.47,-2.40,-8.95,-2.40,-8.96,8.96,9.39,8.70,6.56,6.55,6.56
51.99,-2.37,-8.87,-2.38,-8.89,8.89,9.33,8.68,6.52,6.51,6.50
52.51,-2.34,-8.80,-2.36,-8.82,8.82,9.26,8.66,6.48,6.46,6.46
53.03,-2.32,-8.74,-2.34,-8.75,8.75,9.19,8.65,6.43,6.41,6.42
53.56,-2.31,-8.68,-2.32,-8.69,8.69,9.11,8.63,6.38,6.37,6.38
54.10,-2.30,-8.62,-2.31,-8.63,8.63,9.03,8.62,6.33,6.32,6.32
54.64,-2.29,-8.56,-2.29,-8.57,8.57,8.94,8.60,6.28,6.28,6.28
55.18,-2.27,-8.49,-2.27,-8.50,8.50,8.85,8.59,6.24,6.23,6.22
55.74,-2.26,-8.43,-2.25,-8.44,8.44,8.75,8.57,6.18,6.19,6.17
56.29,-2.25,-8.39,-2.24,-8.38,8.38,8.65,8.55,6.13,6.14,6.14
56.86,-2.24,-8.33,-2.22,-8.31,8.31,8.55,8.54,6.08,6.10,6.09
57.42,-2.22,-8.26,-2.20,-8.25,8.25,8.44,8.51,6.03,6.05,6.04
58.00,-2.20,-8.19,-2.18,-8.18,8.18,8.33,8.49,5.98,6.00,5.99
58.58,-2.17,-8.12,-2.16,-8.10,8.10,8.22,8.46,5.94,5.95,5.95
59.16,-2.14,-8.05,-2.13,-8.03,8.03,8.11,8.43,5.89,5.90,5.92
59.76,-2.10,-7.96,-2.11,-7.95,7.95,7.99,8.39,5.85,5.84,5.87
60.35,-2.07,-7.87,-2.08,-7.87,7.87,7.87,8.34,5.80,5.79,5.80
60.96,-2.04,-7.78,-2.06,-7.79,7.79,7.75,8.29,5.75,5.73,5.74
61.57,-2.02,-7.69,-2.04,-7.71,7.71,7.63,8.24,5.69,5.67,5.67
62.18,-2.01,-7.61,-2.01,-7.63,7.63,7.50,8.18,5.62,5.61,5.60
62.80,-1.99,-7.53,-1.99,-7.54,7.54,7.38,8.11,5.55,5.55,5.54
63.43,-1.97,-7.44,-1.97,-7.46,7.46,7.25,8.03,5.49,5.49,5.47
64.07,-1.95,-7.36,-1.95,-7.37,7.37,7.13,7.95,5.42,5.42,5.41
64.71,-1.93,-7.28,-1.93,-7.29,7.29,7.00,7.86,5.36,5.36,5.35
65.35,-1.91,-7.20,-1.91,-7.20,7.20,6.87,7.77,5.29,5.30,5.29
66.01,-1.89,-7.12,-1.88,-7.12,7.12,6.75,7.67,5.23,5.23,5.23
66.67,-1.88,-7.06,-1.86,-7.03,7.03,6.62,7.56,5.15,5.17,5.18
67.33,-1.85,-6.95,-1.84,-6.94,6.94,6.49,7.45,5.09,5.11,5.10
68.01,-1.83,-6.88,-1.81,-6.85,6.85,6.37,7.34,5.02,5.04,5.05
68.69,-1.79,-6.77,-1.78,-6.76,6.76,6.24,7.22,4.97,4.98,4.98
69.37,-1.76,-6.68,-1.75,-6.67,6.67,6.12,7.10,4.91,4.91,4.92
70.07,-1.73,-6.58,-1.73,-6.57,6.57,6.00,6.97,4.85,4.85,4.85
70.77,-1.70,-6.48,-1.70,-6.48,6.48,5.87,6.84,4.78,4.78,4.78
71.48,-1.68,-6.40,-1.68,-6.39,6.39,5.75,6.71,4.72,4.71,4.72
72.19,-1.65,-6.29,-1.66,-6.31,6.31,5.63,6.58,4.66,4.64,4.64
72.91,-1.63,-6.20,-1.65,-6.23,6.23,5.52,6.45,4.60,4.58,4.57
73.64,-1.62,-6.12,-1.64,-6.15,6.15,5.40,6.32,4.53,4.51,4.50
74.38,-1.61,-6.04,-1.63,-6.07,6.07,5.28,6.18,4.47,4.45,4.44
75.12,-1.60,-5.98,-1.62,-6.01,6.01,5.17,6.05,4.41,4.38,4.38
75.87,-1.61,-5.93,-1.62,-5.94,5.94,5.06,5.92,4.33,4.32,4.32
76.63,-1.62,-5.86,-1.62,-5.88,5.88,4.95,5.79,4.26,4.25,4.25
77.40,-1.63,-5.82,-1.63,-5.82,5.82,4.84,5.66,4.19,4.19,4.19
78.17,-1.64,-5.76,-1.63,-5.76,5.76,4.73,5.53,4.12,4.13,4.12
78.95,-1.64,-5.71,-1.63,-5.70,5.70,4.62,5.40,4.06,4.07,4.07
79.74,-1.65,-5.66,-1.63,-5.63,5.63,4.52,5.28,3.98,4.01,4.01
80.54,-1.65,-5.60,-1.62,-5.57,5.57,4.42,5.16,3.92,3.94,3.95
81.35,-1.64,-5.52,-1.62,-5.50,5.50,4.32,5.04,3.86,3.88,3.88
82.16,-1.62,-5.45,-1.60,-5.43,5.43,4.22,4.92,3.81,3.82,3.83
82.98,-1.60,-5.36,-1.59,-5.35,5.35,4.12,4.81,3.75,3.76,3.76
83.81,-1.58,-5.28,-1.57,-5.26,5.26,4.02,4.70,3.68,3.69,3.70
84.65,-1.55,-5.17,-1.55,-5.17,5.17,3.93,4.59,3.63,3.63,3.63
85.50,-1.52,-5.08,-1.52,-5.08,5.08,3.84,4.48,3.57,3.57,3.56
86.35,-1.49,-4.99,-1.49,-4.99,4.99,3.75,4.38,3.50,3.50,3.50
87.22,-1.46,-4.89,-1.46,-4.89,4.89,3.66,4.28,3.43,3.43,3.43
88.09,-1.43,-4.79,-1.43,-4.79,4.79,3.57,4.18,3.37,3.36,3.36
88.97,-1.40,-4.69,-1.40,-4.70,4.70,3.48,4.09,3.30,3.30,3.30
89.86,-1.37,-4.60,-1.38,-4.60,4.60,3.40,4.00,3.23,3.23,3.23
90.76,-1.35,-4.51,-1.35,-4.51,4.51,3.32,3.91,3.16,3.16,3.16
91.66,-1.32,-4.40,-1.33,-4.42,4.42,3.23,3.82,3.10,3.08,3.08
92.58,-1.31,-4.33,-1.32,-4.33,4.33,3.15,3.74,3.02,3.01,3.02
93.51,-1.29,-4.24,-1.30,-4.24,4.24,3.07,3.66,2.95,2.94,2.95
94.44,-1.28,-4.15,-1.30,-4.16,4.16,3.00,3.58,2.88,2.87,2.87
95.39,-1.28,-4.07,-1.29,-4.08,4.08,2.92,3.51,2.80,2.79,2.79
96.34,-1.29,-4.01,-1.29,-4.01,4.01,2.85,3.43,2.72,2.72,2.72
97.30,-1.29,-3.93,-1.29,-3.93,3.93,2.77,3.36,2.64,2.64,2.65
98.28,-1.30,-3.86,-1.29,-3.86,3.86,2.70,3.30,2.56,2.57,2.56
99.26,-1.30,-3.79,-1.30,-3.79,3.79,2.63,3.23,2.50,2.50,2.49
100.25,-1.30,-3.71,-1.30,-3.73,3.73,2.56,3.17,2.43,2.43,2.41
101.25,-1.31,-3.66,-1.31,-3.66,3.66,2.49,3.10,2.35,2.35,2.35
102.27,-1.31,-3.59,-1.31,-3.59,3.59,2.42,3.04,2.29,2.28,2.28
103.29,-1.32,-3.53,-1.31,-3.53,3.53,2.36,2.99,2.21,2.21,2.21
104.32,-1.32,-3.46,-1.31,-3.46,3.46,2.29,2.93,2.14,2.14,2.14
105.37,-1.32,-3.39,-1.31,-3.38,3.38,2.23,2.87,2.06,2.07,2.08
106.42,-1.32,-3.33,-1.30,-3.31,3.31,2.17,2.82,1.99,2.01,2.01
107.48,-1.30,-3.23,-1.29,-3.22,3.22,2.10,2.77,1.92,1.94,1.94
108.56,-1.29,-3.16,-1.27,-3.14,3.14,2.04,2.71,1.85,1.87,1.87
109.64,-1.27,-3.07,-1.25,-3.05,3.05,1.98,2.66,1.78,1.80,1.81
110.74,-1.24,-2.97,-1.23,-2.96,2.96,1.92,2.61,1.72,1.72,1.73
111.85,-1.21,-2.86,-1.21,-2.86,2.86,1.87,2.56,1.65,1.65,1.66
112.97,-1.18,-2.77,-1.18,-2.76,2.76,1.81,2.51,1.58,1.58,1.59
114.10,-1.15,-2.67,-1.15,-2.66,2.66,1.75,2.46,1.51,1.51,1.52
115.24,-1.12,-2.55,-1.12,-2.56,2.56,1.70,2.41,1.44,1.44,1.43
116.39,-1.09,-2.45,-1.09,-2.46,2.46,1.64,2.37,1.37,1.37,1.36
117.55,-1.06,-2.35,-1.06,-2.36,2.36,1.59,2.32,1.30,1.30,1.29
118.73,-1.03,-2.24,-1.04,-2.27,2.27,1.53,2.27,1.24,1.23,1.22
119.92,-1.01,-2.16,-1.02,-2.18,2.18,1.48,2.22,1.17,1.16,1.15
121.12,-0.99,-2.08,-1.01,-2.10,2.10,1.43,2.17,1.11,1.09,1.09
122.33,-0.97,-1.99,-1.00,-2.02,2.02,1.38,2.11,1.05,1.02,1.02
123.55,-0.96,-1.92,-0.99,-1.94,1.94,1.32,2.06,0.98,0.95,0.96
124.79,-0.96,-1.85,-0.98,-1.87,1.87,1.27,2.01,0.91,0.89,0.89
126.03,-0.97,-1.80,-0.98,-1.80,1.80,1.22,1.95,0.83,0.82,0.83
127.29,-0.98,-1.74,-0.98,-1.73,1.73,1.17,1.90,0.75,0.75,0.76
128.57,-0.99,-1.67,-0.98,-1.66,1.66,1.13,1.84,0.67,0.68,0.68
129.85,-1.00,-1.62,-0.97,-1.59,1.59,1.08,1.79,0.59,0.62,0.62
131.15,-1.00,-1.54,-0.97,-1.52,1.52,1.03,1.73,0.52,0.55,0.54
132.46,-0.99,-1.47,-0.96,-1.45,1.45,0.98,1.67,0.46,0.48,0.48
133.79,-0.98,-1.39,-0.95,-1.37,1.37,0.93,1.61,0.39,0.41,0.41
135.12,-0.96,-1.31,-0.94,-1.29,1.29,0.89,1.55,0.33,0.35,0.35
136.48,-0.93,-1.22,-0.92,-1.21,1.21,0.84,1.49,0.28,0.28,0.29
137.84,-0.91,-1.13,-0.90,-1.12,1.12,0.79,1.43,0.22,0.22,0.22
139.22,-0.88,-1.03,-0.88,-1.04,1.04,0.75,1.36,0.16,0.16,0.15
140.61,-0.85,-0.94,-0.86,-0.95,0.95,0.70,1.30,0.10,0.09,0.09
142.02,-0.82,-0.85,-0.83,-0.86,0.86,0.66,1.23,0.05,0.04,0.03
143.44,-0.79,-0.76,-0.80,-0.78,0.78,0.61,1.17,-0.01,-0.02,-0.03
144.87,-0.76,-0.68,-0.77,-0.69,0.69,0.57,1.10,-0.06,-0.08,-0.08
146.32,-0.74,-0.60,-0.75,-0.61,0.61,0.52,1.04,-0.13,-0.14,-0.14
147.78,-0.72,-0.53,-0.72,-0.53,0.53,0.48,0.97,-0.19,-0.19,-0.19
149.26,-0.70,-0.45,-0.70,-0.45,0.45,0.43,0.90,-0.25,-0.25,-0.25
150.75,-0.68,-0.37,-0.67,-0.37,0.37,0.39,0.83,-0.31,-0.30,-0.31
152.26,-0.65,-0.29,-0.65,-0.29,0.29,0.34,0.77,-0.36,-0.36,-0.35
153.78,-0.63,-0.22,-0.63,-0.21,0.21,0.30,0.70,-0.41,-0.41,-0.41
155.32,-0.61,-0.14,-0.60,-0.14,0.14,0.25,0.63,-0.47,-0.47,-0.46
156.88,-0.59,-0.07,-0.58,-0.06,0.06,0.21,0.56,-0.53,-0.52,-0.52
158.44,-0.56,0.02,-0.55,0.02,-0.02,0.17,0.49,-0.58,-0.58,-0.58
160.03,-0.54,0.09,-0.53,0.11,-0.11,0.12,0.42,-0.65,-0.63,-0.63
161.63,-0.51,0.18,-0.50,0.19,-0.19,0.08,0.35,-0.70,-0.69,-0.69
163.24,-0.48,0.27,-0.47,0.27,-0.27,0.03,0.28,-0.75,-0.74,-0.74
164.88,-0.45,0.35,-0.44,0.36,-0.36,-0.01,0.21,-0.81,-0.80,-0.80
166.53,-0.42,0.45,-0.42,0.44,-0.44,-0.06,0.14,-0.86,-0.86,-0.87
168.19,-0.39,0.52,-0.40,0.52,-0.52,-0.10,0.07,-0.91,-0.92,-0.91
169.87,-0.37,0.60,-0.38,0.60,-0.60,-0.15,-0.01,-0.97,-0.97,-0.97
171.57,-0.35,0.68,-0.36,0.67,-0.67,-0.19,-0.08,-1.02,-1.03,-1.03
173.29,-0.33,0.75,-0.34,0.74,-0.74,-0.24,-0.15,-1.07,-1.09,-1.08
175.02,-0.31,0.83,-0.33,0.81,-0.81,-0.28,-0.22,-1.12,-1.14,-1.14
176.77,-0.31,0.89,-0.32,0.88,-0.88,-0.33,-0.30,-1.18,-1.20,-1.20
178.54,-0.31,0.95,-0.32,0.94,-0.94,-0.38,-0.37,-1.25,-1.26,-1.25
180.32,-0.31,1.01,-0.31,1.00,-1.00,-0.42,-0.44,-1.31,-1.31,-1.32
182.13,-0.32,1.04,-0.31,1.05,-1.05,-0.47,-0.52,-1.37,-1.37,-1.36
183.95,-0.33,1.09,-0.31,1.11,-1.11,-0.52,-0.59,-1.44,-1.42,-1.42
185.79,-0.33,1.15,-0.32,1.16,-1.16,-0.56,-0.67,-1.49,-1.47,-1.48
187.65,-0.33,1.20,-0.32,1.21,-1.21,-0.61,-0.74,-1.54,-1.53,-1.53
189.52,-0.33,1.25,-0.32,1.26,-1.26,-0.66,-0.82,-1.59,-1.58,-1.58
191.42,-0.33,1.30,-0.32,1.30,-1.30,-0.71,-0.90,-1.63,-1.63,-1.62
193.33,-0.33,1.34,-0.33,1.35,-1.35,-0.75,-0.97,-1.68,-1.68,-1.67
195.27,-0.33,1.40,-0.33,1.39,-1.39,-0.80,-1.05,-1.72,-1.72,-1.73
197.22,-0.33,1.45,-0.33,1.44,-1.44,-0.85,-1.13,-1.77,-1.77,-1.78
199.19,-0.33,1.49,-0.33,1.48,-1.48,-0.90,-1.20,-1.81,-1.81,-1.82
201.18,-0.33,1.54,-0.33,1.53,-1.53,-0.95,-1.28,-1.85,-1.86,-1.87
203.19,-0.33,1.57,-0.33,1.57,-1.57,-1.00,-1.35,-1.90,-1.90,-1.90
205.23,-0.33,1.60,-0.33,1.61,-1.61,-1.05,-1.43,-1.94,-1.94,-1.93
207.28,-0.33,1.64,-0.33,1.65,-1.65,-1.10,-1.51,-1.98,-1.98,-1.97
209.35,-0.33,1.68,-0.33,1.68,-1.68,-1.15,-1.58,-2.01,-2.01,-2.01
211.44,-0.33,1.72,-0.33,1.72,-1.72,-1.20,-1.65,-2.05,-2.05,-2.05
213.56,-0.33,1.75,-0.33,1.75,-1.75,-1.25,-1.73,-2.08,-2.08,-2.07
215.69,-0.33,1.78,-0.33,1.79,-1.79,-1.30,-1.80,-2.12,-2.12,-2.11
217.85,-0.33,1.82,-0.33,1.82,-1.82,-1.35,-1.86,-2.15,-2.15,-2.15
220.03,-0.33,1.85,-0.33,1.85,-1.85,-1.40,-1.93,-2.18,-2.18,-2.18
222.23,-0.33,1.89,-0.33,1.88,-1.88,-1.45,-2.00,-2.21,-2.21,-2.21
224.45,-0.33,1.91,-0.33,1.91,-1.91,-1.50,-2.06,-2.24,-2.24,-2.24
226.70,-0.33,1.94,-0.33,1.94,-1.94,-1.55,-2.12,-2.26,-2.26,-2.27
228.96,-0.33,1.95,-0.33,1.96,-1.96,-1.59,-2.18,-2.29,-2.29,-2.28
231.25,-0.33,1.98,-0.33,1.98,-1.98,-1.64,-2.23,-2.31,-2.31,-2.31
233.57,-0.33,2.00,-0.33,2.00,-2.00,-1.69,-2.28,-2.33,-2.33,-2.33
235.90,-0.33,2.02,-0.33,2.02,-2.02,-1.74,-2.33,-2.35,-2.35,-2.35
238.26,-0.33,2.05,-0.33,2.04,-2.04,-1.79,-2.37,-2.37,-2.37,-2.38
240.64,-0.33,2.05,-0.33,2.06,-2.06,-1.83,-2.41,-2.38,-2.38,-2.38
243.05,-0.33,2.07,-0.33,2.07,-2.07,-1.88,-2.44,-2.40,-2.40,-2.40
245.48,-0.33,2.08,-0.33,2.08,-2.08,-1.92,-2.47,-2.41,-2.41,-2.41
247.93,-0.33,2.10,-0.33,2.09,-2.09,-1.97,-2.49,-2.42,-2.42,-2.43
250.41,-0.33,2.10,-0.33,2.10,-2.10,-2.01,-2.51,-2.43,-2.43,-2.43
252.92,-0.33,2.10,-0.33,2.11,-2.11,-2.05,-2.53,-2.44,-2.44,-2.43
255.45,-0.33,2.12,-0.33,2.12,-2.12,-2.09,-2.54,-2.44,-2.44,-2.44
258.00,-0.33,2.12,-0.33,2.12,-2.12,-2.13,-2.55,-2.45,-2.45,-2.45
260.58,-0.33,2.12,-0.33,2.13,-2.13,-2.17,-2.55,-2.46,-2.46,-2.45
263.19,-0.33,2.13,-0.33,2.14,-2.14,-2.20,-2.55,-2.46,-2.46,-2.46
265.82,-0.33,2.14,-0.33,2.14,-2.14,-2.24,-2.54,-2.47,-2.47,-2.47
268.48,-0.33,2.14,-0.33,2.15,-2.15,-2.27,-2.53,-2.48,-2.48,-2.47
271.16,-0.33,2.14,-0.33,2.15,-2.15,-2.30,-2.52,-2.48,-2.48,-2.47
273.87,-0.33,2.16,-0.33,2.16,-2.16,-2.33,-2.51,-2.48,-2.48,-2.48
276.61,-0.33,2.16,-0.33,2.16,-2.16,-2.35,-2.49,-2.49,-2.49,-2.48
279.38,-0.33,2.18,-0.33,2.16,-2.16,-2.38,-2.47,-2.49,-2.49,-2.51
282.17,-0.33,2.18,-0.33,2.17,-2.17,-2.40,-2.44,-2.49,-2.49,-2.51
284.99,-0.33,2.17,-0.33,2.17,-2.17,-2.42,-2.42,-2.50,-2.50,-2.50
287.84,-0.33,2.17,-0.33,2.17,-2.17,-2.43,-2.39,-2.50,-2.50,-2.49
290.72,-0.33,2.18,-0.33,2.17,-2.17,-2.45,-2.36,-2.50,-2.50,-2.50
293.63,-0.33,2.16,-0.33,2.17,-2.17,-2.46,-2.33,-2.50,-2.50,-2.49
296.57,-0.33,2.16,-0.33,2.16,-2.16,-2.47,-2.30,-2.49,-2.49,-2.49
299.53,-0.33,2.16,-0.33,2.16,-2.16,-2.48,-2.27,-2.49,-2.49,-2.49
302.53,-0.33,2.15,-0.33,2.16,-2.16,-2.48,-2.24,-2.49,-2.49,-2.48
305.55,-0.33,2.16,-0.33,2.15,-2.15,-2.48,-2.21,-2.48,-2.48,-2.48
308.61,-0.33,2.14,-0.33,2.15,-2.15,-2.48,-2.18,-2.48,-2.48,-2.47
311.69,-0.33,2.14,-0.33,2.14,-2.14,-2.48,-2.15,-2.47,-2.47,-2.47
314.81,-0.33,2.14,-0.33,2.14,-2.14,-2.47,-2.12,-2.46,-2.46,-2.47
317.96,-0.33,2.13,-0.33,2.13,-2.13,-2.47,-2.09,-2.46,-2.46,-2.46
321.14,-0.33,2.12,-0.33,2.12,-2.12,-2.46,-2.06,-2.45,-2.45,-2.45
324.35,-0.33,2.13,-0.33,2.12,-2.12,-2.45,-2.03,-2.45,-2.45,-2.45
327.59,-0.33,2.10,-0.33,2.11,-2.11,-2.43,-2.01,-2.44,-2.44,-2.43
330.87,-0.33,2.11,-0.33,2.11,-2.11,-2.42,-1.98,-2.44,-2.44,-2.44
334.18,-0.33,2.10,-0.33,2.10,-2.10,-2.40,-1.96,-2.43,-2.43,-2.43
337.52,-0.33,2.10,-0.33,2.09,-2.09,-2.39,-1.93,-2.42,-2.42,-2.43
340.90,-0.33,2.08,-0.33,2.09,-2.09,-2.37,-1.91,-2.42,-2.42,-2.41
344.30,-0.33,2.08,-0.33,2.08,-2.08,-2.34,-1.89,-2.41,-2.41,-2.41
347.75,-0.33,2.07,-0.33,2.07,-2.07,-2.32,-1.87,-2.40,-2.40,-2.40
351.23,-0.33,2.08,-0.33,2.07,-2.07,-2.30,-1.86,-2.40,-2.40,-2.41
354.74,-0.33,2.05,-0.33,2.06,-2.06,-2.27,-1.84,-2.39,-2.39,-2.38
358.28,-0.33,2.06,-0.33,2.05,-2.05,-2.25,-1.83,-2.38,-2.38,-2.38
361.87,-0.33,2.05,-0.33,2.05,-2.05,-2.22,-1.81,-2.38,-2.38,-2.38
365.49,-0.33,2.04,-0.33,2.04,-2.04,-2.20,-1.80,-2.37,-2.37,-2.37
369.14,-0.33,2.03,-0.33,2.03,-2.03,-2.17,-1.79,-2.36,-2.36,-2.35
372.83,-0.33,2.02,-0.33,2.03,-2.03,-2.14,-1.79,-2.35,-2.35,-2.35
376.56,-0.33,2.02,-0.33,2.02,-2.02,-2.11,-1.78,-2.35,-2.35,-2.35
380.33,-0.33,2.02,-0.33,2.01,-2.01,-2.08,-1.77,-2.34,-2.34,-2.35
384.13,-0.33,2.00,-0.33,2.00,-2.00,-2.05,-1.77,-2.33,-2.33,-2.33
387.97,-0.33,1.99,-0.33,1.99,-1.99,-2.02,-1.77,-2.32,-2.32,-2.32
391.85,-0.33,1.99,-0.33,1.98,-1.98,-2.00,-1.76,-2.31,-2.31,-2.31
395.77,-0.33,1.98,-0.33,1.97,-1.97,-1.97,-1.76,-2.30,-2.30,-2.31
399.73,-0.33,1.97,-0.33,1.96,-1.96,-1.94,-1.77,-2.29,-2.29,-2.30
403.72,-0.33,1.94,-0.33,1.96,-1.96,-1.91,-1.77,-2.28,-2.28,-2.27
407.76,-0.33,1.95,-0.33,1.95,-1.95,-1.88,-1.77,-2.28,-2.28,-2.27
411.84,-0.33,1.94,-0.33,1.94,-1.94,-1.85,-1.77,-2.27,-2.27,-2.27
415.96,-0.33,1.92,-0.33,1.93,-1.93,-1.82,-1.78,-2.26,-2.26,-2.25
420.12,-0.33,1.92,-0.33,1.92,-1.92,-1.80,-1.78,-2.25,-2.25,-2.25
424.32,-0.33,1.92,-0.33,1.91,-1.91,-1.77,-1.79,-2.24,-2.24,-2.24
428.56,-0.33,1.90,-0.33,1.90,-1.90,-1.74,-1.79,-2.23,-2.23,-2.23
432.85,-0.33,1.89,-0.33,1.90,-1.90,-1.72,-1.80,-2.22,-2.22,-2.22
437.18,-0.33,1.89,-0.33,1.89,-1.89,-1.69,-1.81,-2.22,-2.22,-2.22
441.55,-0.33,1.88,-0.33,1.88,-1.88,-1.66,-1.81,-2.21,-2.21,-2.21
445.96,-0.33,1.87,-0.33,1.87,-1.87,-1.64,-1.82,-2.20,-2.20,-2.20
450.42,-0.33,1.87,-0.33,1.86,-1.86,-1.62,-1.82,-2.19,-2.19,-2.19
454.93,-0.33,1.86,-0.33,1.85,-1.85,-1.59,-1.83,-2.18,-2.18,-2.19
