frequency,raw,error,smoothed,error_smoothed,equalization,parametric_eq,fixed_band_eq,equalized_raw,equalized_smoothed,target
20.00,-24.37,-28.07,-24.30,-28.02,28.02,28.63,12.84,3.65,3.72,3.70
20.20,-24.20,-27.94,-24.16,-27.91,27.91,28.43,13.04,3.71,3.75,3.74
20.40,-24.03,-27.79,-24.02,-27.80,27.80,28.24,13.25,3.77,3.78,3.77
20.61,-23.86,-27.66,-23.89,-27.69,27.69,28.05,13.46,3.83,3.80,3.80
20.81,-23.69,-27.52,-23.75,-27.57,27.57,27.87,13.68,3.89,3.83,3.84
21.02,-23.53,-27.40,-23.60,-27.46,27.46,27.69,13.89,3.93,3.85,3.88
21.23,-23.41,-27.29,-23.46,-27.34,27.34,27.52,14.12,3.93,3.87,3.89
21.44,-23.30,-27.20,-23.32,-27.21,27.21,27.35,14.35,3.92,3.89,3.91
21.66,-23.18,-27.10,-23.18,-27.09,27.09,27.18,14.59,3.91,3.91,3.92
21.87,-23.07,-27.00,-23.03,-26.96,26.96,27.02,14.83,3.90,3.93,3.93
22.09,-22.93,-26.88,-22.89,-26.83,26.83,26.86,15.08,3.91,3.94,3.95
22.31,-22.77,-26.72,-22.74,-26.70,26.70,26.70,15.33,3.93,3.96,3.95
22.54,-22.62,-26.58,-22.60,-26.57,26.57,26.55,15.59,3.95,3.97,3.96
22.76,-22.46,-26.43,-22.45,-26.43,26.43,26.40,15.86,3.97,3.98,3.97
22.99,-22.30,-26.27,-22.30,-26.28,26.28,26.25,16.14,3.98,3.98,3.97
23.22,-22.15,-26.13,-22.14,-26.13,26.13,26.11,16.42,3.98,3.99,3.98
23.45,-22.00,-25.99,-21.99,-25.98,25.98,25.96,16.72,3.99,4.00,3.99
23.69,-21.85,-25.85,-21.83,-25.83,25.83,25.82,17.02,3.98,4.00,4.00
23.92,-21.70,-25.70,-21.68,-25.69,25.69,25.68,17.33,3.99,4.00,4.01
24.16,-21.54,-25.55,-21.53,-25.54,25.54,25.55,17.65,4.01,4.01,4.02
24.40,-21.37,-25.39,-21.39,-25.40,25.40,25.41,17.98,4.04,4.01,4.03
24.65,-21.21,-25.22,-21.26,-25.27,25.27,25.28,18.33,4.06,4.01,4.02
24.89,-21.04,-25.05,-21.12,-25.14,25.14,25.15,18.68,4.10,4.01,4.01
25.14,-20.92,-24.93,-20.99,-25.01,25.01,25.02,19.05,4.09,4.02,4.01
25.39,-20.84,-24.85,-20.87,-24.88,24.88,24.89,19.43,4.05,4.02,4.01
25.65,-20.76,-24.77,-20.74,-24.76,24.76,24.76,19.82,4.00,4.01,4.01
25.91,-20.68,-24.68,-20.62,-24.63,24.63,24.63,20.23,3.95,4.01,4.00
26.16,-20.56,-24.56,-20.50,-24.51,24.51,24.50,20.66,3.95,4.01,4.01
26.43,-20.42,-24.43,-20.38,-24.38,24.38,24.38,21.10,3.96,4.01,4.01
26.69,-20.28,-24.28,-20.26,-24.26,24.26,24.25,21.56,3.98,4.00,4.01
26.96,-20.14,-24.14,-20.14,-24.14,24.14,24.13,22.04,4.00,4.00,4.01
27.23,-20.00,-24.00,-20.01,-24.01,24.01,24.00,22.53,4.01,4.00,4.00
27.50,-19.86,-23.86,-19.87,-23.86,23.86,23.88,23.04,4.01,4.00,4.00
27.77,-19.72,-23.71,-19.72,-23.72,23.72,23.76,23.58,4.00,3.99,3.99
28.05,-19.59,-23.58,-19.57,-23.57,23.57,23.63,24.12,3.98,3.99,3.99
28.33,-19.45,-23.42,-19.43,-23.42,23.42,23.51,24.69,3.97,3.99,3.98
28.62,-19.32,-23.31,-19.28,-23.27,23.27,23.39,25.27,3.95,3.99,3.99
28.90,-19.19,-23.17,-19.14,-23.12,23.12,23.27,25.85,3.94,3.98,3.98
29.19,-19.01,-22.98,-19.00,-22.98,22.98,23.14,26.43,3.98,3.98,3.97
29.48,-18.82,-22.80,-18.87,-22.84,22.84,23.02,27.00,4.03,3.98,3.98
29.78,-18.63,-22.61,-18.73,-22.71,22.71,22.90,27.53,4.08,3.97,3.98
30.08,-18.47,-22.45,-18.60,-22.57,22.57,22.77,28.01,4.10,3.97,3.98
30.38,-18.41,-22.37,-18.47,-22.43,22.43,22.65,28.41,4.02,3.96,3.96
30.68,-18.36,-22.32,-18.33,-22.29,22.29,22.53,28.70,3.93,3.96,3.96
30.99,-18.30,-22.25,-18.20,-22.15,22.15,22.40,28.87,3.85,3.95,3.95
31.30,-18.14,-22.09,-18.07,-22.01,22.01,22.28,28.89,3.87,3.95,3.95
31.61,-17.98,-21.92,-17.93,-21.87,21.87,22.15,28.78,3.89,3.94,3.95
31.93,-17.82,-21.75,-17.79,-21.72,21.72,22.03,28.53,3.90,3.94,3.93
32.24,-17.67,-21.59,-17.64,-21.57,21.57,21.90,28.18,3.91,3.93,3.92
32.57,-17.52,-21.44,-17.50,-21.43,21.43,21.78,27.76,3.91,3.92,3.92
32.89,-17.37,-21.28,-17.36,-21.28,21.28,21.65,27.28,3.91,3.92,3.91
33.22,-17.22,-21.13,-17.22,-21.13,21.13,21.52,26.77,3.91,3.91,3.91
33.55,-17.06,-20.96,-17.08,-20.98,20.98,21.40,26.24,3.92,3.91,3.91
33.89,-16.91,-20.81,-16.93,-20.83,20.83,21.27,25.72,3.92,3.90,3.90
34.23,-16.76,-20.66,-16.79,-20.69,20.69,21.14,25.20,3.93,3.89,3.90
34.57,-16.60,-20.49,-16.65,-20.54,20.54,21.01,24.69,3.95,3.89,3.89
34.92,-16.45,-20.33,-16.52,-20.41,20.41,20.88,24.20,3.96,3.88,3.88
35.27,-16.35,-20.23,-16.40,-20.27,20.27,20.75,23.73,3.92,3.88,3.88
35.62,-16.27,-20.13,-16.27,-20.14,20.14,20.62,23.28,3.88,3.87,3.87
35.97,-16.20,-20.06,-16.15,-20.02,20.02,20.49,22.85,3.82,3.87,3.86
36.33,-16.10,-19.95,-16.03,-19.89,19.89,20.36,22.44,3.79,3.86,3.86
36.70,-16.00,-19.85,-15.92,-19.77,19.77,20.23,22.04,3.77,3.85,3.85
37.06,-15.89,-19.72,-15.81,-19.65,19.65,20.09,21.66,3.77,3.84,3.84
37.43,-15.71,-19.54,-15.71,-19.54,19.54,19.96,21.31,3.84,3.83,3.83
37.81,-15.54,-19.37,-15.61,-19.43,19.43,19.83,20.96,3.89,3.83,3.83
38.19,-15.42,-19.23,-15.50,-19.32,19.32,19.69,20.64,3.90,3.82,3.81
38.57,-15.35,-19.16,-15.39,-19.20,19.20,19.56,20.33,3.85,3.81,3.81
38.95,-15.28,-19.08,-15.28,-19.09,19.09,19.43,20.03,3.81,3.80,3.80
39.34,-15.18,-18.96,-15.18,-18.98,18.98,19.29,19.75,3.80,3.80,3.79
39.74,-15.08,-18.85,-15.07,-18.86,18.86,19.15,19.48,3.78,3.79,3.77
40.14,-14.98,-18.75,-14.96,-18.74,18.74,19.02,19.22,3.76,3.78,3.78
40.54,-14.90,-18.67,-14.85,-18.62,18.62,18.88,18.97,3.72,3.77,3.77
40.94,-14.82,-18.58,-14.75,-18.50,18.50,18.75,18.74,3.68,3.75,3.76
41.35,-14.67,-18.41,-14.65,-18.39,18.39,18.61,18.52,3.72,3.74,3.75
41.76,-14.50,-18.22,-14.56,-18.27,18.27,18.47,18.30,3.78,3.72,3.73
42.18,-14.40,-18.11,-14.46,-18.15,18.15,18.34,18.10,3.76,3.69,3.71
42.60,-14.38,-18.06,-14.36,-18.03,18.03,18.20,17.91,3.65,3.67,3.68
43.03,-14.35,-18.01,-14.26,-17.90,17.90,18.06,17.73,3.56,3.64,3.66
43.46,-14.15,-17.78,-14.16,-17.78,17.78,17.92,17.55,3.63,3.62,3.64
43.90,-13.95,-17.54,-14.07,-17.66,17.66,17.78,17.39,3.71,3.59,3.59
44.33,-13.90,-17.46,-13.97,-17.53,17.53,17.65,17.23,3.64,3.56,3.56
44.78,-13.90,-17.42,-13.87,-17.40,17.40,17.51,17.08,3.51,3.53,3.52
45.23,-13.83,-17.32,-13.77,-17.27,17.27,17.37,16.94,3.44,3.50,3.49
45.68,-13.70,-17.16,-13.66,-17.14,17.14,17.23,16.81,3.44,3.48,3.46
46.13,-13.59,-17.03,-13.57,-17.02,17.02,17.09,16.68,3.43,3.45,3.44
46.60,-13.51,-16.94,-13.48,-16.91,16.91,16.95,16.56,3.40,3.43,3.43
47.06,-13.43,-16.83,-13.39,-16.80,16.80,16.81,16.45,3.38,3.42,3.41
47.53,-13.30,-16.69,-13.30,-16.70,16.70,16.68,16.35,3.40,3.40,3.40
48.01,-13.17,-16.56,-13.20,-16.59,16.59,16.54,16.25,3.42,3.39,3.39
48.49,-13.02,-16.40,-13.09,-16.48,16.48,16.40,16.15,3.46,3.38,3.38
48.97,-12.87,-16.23,-12.98,-16.36,16.36,16.26,16.06,3.49,3.38,3.37
49.46,-12.81,-16.16,-12.86,-16.24,16.24,16.12,15.98,3.43,3.37,3.35
49.96,-12.76,-16.11,-12.74,-16.11,16.11,15.98,15.90,3.35,3.37,3.35
50.46,-12.74,-16.09,-12.63,-15.99,15.99,15.85,15.83,3.25,3.36,3.36
50.96,-12.72,-16.08,-12.51,-15.86,15.86,15.71,15.76,3.14,3.35,3.36
51.47,-12.51,-15.85,-12.40,-15.73,15.73,15.57,15.69,3.22,3.33,3.35
51.99,-12.28,-15.61,-12.28,-15.59,15.59,15.43,15.63,3.31,3.31,3.33
52.51,-12.06,-15.37,-12.16,-15.45,15.45,15.30,15.57,3.39,3.29,3.31
53.03,-11.85,-15.13,-12.04,-15.31,15.31,15.16,15.51,3.46,3.26,3.29
53.56,-11.85,-15.10,-11.92,-15.15,15.15,15.02,15.45,3.30,3.23,3.25
54.10,-11.83,-15.03,-11.79,-14.98,14.98,14.89,15.40,3.16,3.19,3.20
54.64,-11.70,-14.85,-11.67,-14.81,14.81,14.75,15.34,3.12,3.15,3.15
55.18,-11.58,-14.68,-11.53,-14.63,14.63,14.61,15.29,3.06,3.10,3.10
55.74,-11.45,-14.49,-11.40,-14.45,14.45,14.48,15.23,3.00,3.05,3.04
56.29,-11.33,-14.32,-11.28,-14.27,14.27,14.34,15.17,2.94,2.99,2.99
56.86,-11.20,-14.13,-11.17,-14.10,14.10,14.21,15.11,2.90,2.93,2.93
57.42,-11.07,-13.92,-11.07,-13.94,13.94,14.08,15.04,2.87,2.87,2.86
58.00,-10.94,-13.73,-10.97,-13.77,13.77,13.94,14.97,2.83,2.80,2.79
58.58,-10.81,-13.54,-10.87,-13.61,13.61,13.81,14.90,2.80,2.73,2.73
59.16,-10.71,-13.38,-10.77,-13.44,13.44,13.68,14.82,2.73,2.67,2.68
59.76,-10.71,-13.32,-10.67,-13.27,13.27,13.54,14.74,2.56,2.60,2.61
60.35,-10.63,-13.16,-10.57,-13.10,13.10,13.41,14.65,2.48,2.54,2.53
60.96,-10.49,-12.97,-10.49,-12.96,12.96,13.28,14.55,2.47,2.47,2.48
61.57,-10.48,-12.88,-10.42,-12.83,12.83,13.15,14.45,2.35,2.41,2.40
62.18,-10.44,-12.77,-10.37,-12.72,12.72,13.02,14.34,2.28,2.35,2.33
62.80,-10.29,-12.57,-10.35,-12.64,12.64,12.89,14.22,2.35,2.29,2.28
63.43,-10.25,-12.47,-10.34,-12.57,12.57,12.76,14.10,2.32,2.23,2.22
64.07,-10.25,-12.42,-10.34,-12.52,12.52,12.63,13.96,2.27,2.18,2.17
64.71,-10.25,-12.37,-10.36,-12.48,12.48,12.50,13.82,2.23,2.12,2.12
65.35,-10.25,-12.32,-10.37,-12.45,12.45,12.38,13.68,2.20,2.08,2.07
66.01,-10.25,-12.27,-10.39,-12.42,12.42,12.25,13.52,2.17,2.03,2.02
66.67,-10.40,-12.38,-10.41,-12.40,12.40,12.12,13.36,2.00,1.99,1.98
67.33,-10.51,-12.45,-10.43,-12.38,12.38,12.00,13.20,1.87,1.95,1.94
68.01,-10.58,-12.49,-10.45,-12.36,12.36,11.87,13.03,1.78,1.91,1.91
68.69,-10.65,-12.52,-10.46,-12.33,12.33,11.75,12.85,1.68,1.87,1.87
69.37,-10.60,-12.43,-10.46,-12.29,12.29,11.62,12.67,1.69,1.83,1.83
70.07,-10.48,-12.27,-10.44,-12.24,12.24,11.50,12.49,1.76,1.80,1.79
70.77,-10.48,-12.25,-10.41,-12.17,12.17,11.38,12.31,1.69,1.76,1.77
71.48,-10.37,-12.10,-10.36,-12.09,12.09,11.25,12.12,1.72,1.72,1.73
72.19,-10.25,-11.95,-10.30,-11.99,11.99,11.13,11.93,1.74,1.69,1.70
72.91,-10.25,-11.90,-10.21,-11.86,11.86,11.01,11.74,1.62,1.65,1.66
73.64,-10.11,-11.73,-10.11,-11.73,11.73,10.89,11.55,1.62,1.61,1.62
74.38,-9.97,-11.55,-10.00,-11.58,11.58,10.77,11.36,1.61,1.58,1.59
75.12,-9.85,-11.39,-9.90,-11.44,11.44,10.65,11.17,1.59,1.54,1.54
75.87,-9.76,-11.26,-9.78,-11.29,11.29,10.54,10.98,1.53,1.51,1.50
76.63,-9.63,-11.09,-9.66,-11.14,11.14,10.42,10.80,1.51,1.47,1.47
77.40,-9.55,-10.98,-9.56,-11.00,11.00,10.30,10.61,1.45,1.44,1.44
78.17,-9.48,-10.87,-9.45,-10.86,10.86,10.19,10.43,1.38,1.41,1.40
78.95,-9.35,-10.72,-9.34,-10.72,10.72,10.07,10.25,1.37,1.38,1.38
79.74,-9.17,-10.52,-9.24,-10.59,10.59,9.96,10.07,1.42,1.35,1.35
80.54,-9.11,-10.43,-9.14,-10.47,10.47,9.84,9.89,1.36,1.33,1.32
81.35,-9.11,-10.40,-9.04,-10.35,10.35,9.73,9.72,1.24,1.31,1.30
82.16,-9.05,-10.33,-8.95,-10.24,10.24,9.62,9.55,1.19,1.29,1.28
82.98,-8.79,-10.06,-8.85,-10.13,10.13,9.50,9.38,1.34,1.28,1.28
83.81,-8.68,-9.94,-8.76,-10.02,10.02,9.39,9.21,1.34,1.26,1.26
84.65,-8.66,-9.90,-8.66,-9.91,9.91,9.28,9.05,1.26,1.25,1.24
85.50,-8.60,-9.84,-8.57,-9.81,9.81,9.17,8.90,1.21,1.24,1.24
86.35,-8.49,-9.72,-8.48,-9.72,9.72,9.06,8.74,1.23,1.24,1.24
87.22,-8.42,-9.64,-8.40,-9.62,9.62,8.95,8.59,1.21,1.23,1.23
88.09,-8.36,-9.57,-8.31,-9.53,9.53,8.85,8.44,1.17,1.22,1.22
88.97,-8.21,-9.43,-8.22,-9.44,9.44,8.74,8.30,1.23,1.21,1.22
89.86,-8.05,-9.26,-8.13,-9.34,9.34,8.63,8.16,1.29,1.20,1.21
90.76,-7.99,-9.18,-8.04,-9.23,9.23,8.52,8.02,1.24,1.19,1.19
91.66,-7.98,-9.16,-7.95,-9.12,9.12,8.42,7.89,1.15,1.18,1.19
92.58,-7.90,-9.05,-7.86,-9.02,9.02,8.31,7.75,1.13,1.16,1.15
93.51,-7.79,-8.94,-7.77,-8.91,8.91,8.21,7.63,1.12,1.14,1.15
94.44,-7.75,-8.87,-7.67,-8.79,8.79,8.11,7.50,1.04,1.12,1.12
95.39,-7.65,-8.75,-7.57,-8.67,8.67,8.00,7.38,1.02,1.09,1.10
96.34,-7.48,-8.53,-7.49,-8.55,8.55,7.90,7.26,1.07,1.06,1.05
97.30,-7.37,-8.39,-7.40,-8.43,8.43,7.80,7.15,1.07,1.03,1.03
98.28,-7.29,-8.28,-7.33,-8.32,8.32,7.69,7.04,1.03,1.00,0.99
99.26,-7.23,-8.18,-7.25,-8.21,8.21,7.59,6.93,0.98,0.96,0.95
100.25,-7.07,-7.98,-7.17,-8.09,8.09,7.49,6.82,1.02,0.91,0.92
101.25,-7.06,-7.93,-7.09,-7.96,7.96,7.39,6.72,0.90,0.87,0.87
102.27,-7.03,-7.85,-7.01,-7.83,7.83,7.29,6.61,0.80,0.82,0.82
103.29,-6.92,-7.68,-6.94,-7.70,7.70,7.19,6.52,0.78,0.76,0.76
104.32,-6.84,-7.55,-6.87,-7.57,7.57,7.09,6.42,0.74,0.70,0.72
105.37,-6.84,-7.50,-6.80,-7.44,7.44,6.99,6.32,0.60,0.64,0.66
106.42,-6.84,-7.43,-6.73,-7.30,7.30,6.89,6.23,0.46,0.57,0.59
107.48,-6.74,-7.25,-6.66,-7.16,7.16,6.79,6.14,0.42,0.50,0.51
108.56,-6.62,-7.04,-6.59,-7.01,7.01,6.69,6.05,0.40,0.43,0.42
109.64,-6.46,-6.80,-6.51,-6.86,6.86,6.59,5.97,0.40,0.35,0.35
110.74,-6.38,-6.65,-6.44,-6.70,6.70,6.49,5.88,0.33,0.26,0.27
111.85,-6.38,-6.57,-6.37,-6.55,6.55,6.39,5.80,0.17,0.18,0.19
112.97,-6.36,-6.45,-6.29,-6.38,6.38,6.29,5.72,0.03,0.10,0.10
114.10,-6.15,-6.17,-6.20,-6.22,6.22,6.18,5.64,0.07,0.02,0.02
115.24,-6.12,-6.05,-6.12,-6.06,6.06,6.08,5.56,-0.06,-0.06,-0.07
116.39,-5.99,-5.84,-6.04,-5.90,5.90,5.97,5.49,-0.08,-0.14,-0.15
117.55,-5.92,-5.69,-5.96,-5.75,5.75,5.87,5.41,-0.17,-0.21,-0.23
118.73,-5.92,-5.61,-5.88,-5.60,5.60,5.76,5.34,-0.32,-0.28,-0.30
119.92,-5.92,-5.56,-5.81,-5.47,5.47,5.64,5.26,-0.45,-0.34,-0.36
121.12,-5.70,-5.28,-5.75,-5.35,5.35,5.53,5.19,-0.35,-0.40,-0.42
122.33,-5.70,-5.22,-5.69,-5.23,5.23,5.41,5.12,-0.47,-0.46,-0.47
123.55,-5.60,-5.09,-5.61,-5.10,5.10,5.29,5.04,-0.50,-0.51,-0.51
124.79,-5.48,-4.92,-5.54,-4.98,4.98,5.17,4.97,-0.50,-0.56,-0.56
126.03,-5.47,-4.87,-5.47,-4.86,4.86,5.05,4.90,-0.60,-0.61,-0.60
127.29,-5.47,-4.83,-5.41,-4.76,4.76,4.92,4.83,-0.71,-0.65,-0.64
128.57,-5.42,-4.73,-5.34,-4.65,4.65,4.79,4.76,-0.77,-0.69,-0.69
129.85,-5.26,-4.53,-5.29,-4.55,4.55,4.66,4.70,-0.71,-0.74,-0.73
131.15,-5.24,-4.47,-5.22,-4.44,4.44,4.53,4.63,-0.79,-0.78,-0.77
132.46,-5.24,-4.42,-5.16,-4.34,4.34,4.40,4.56,-0.90,-0.82,-0.82
133.79,-5.10,-4.25,-5.11,-4.25,4.25,4.29,4.49,-0.85,-0.86,-0.85
135.12,-5.01,-4.10,-5.08,-4.18,4.18,4.18,4.43,-0.83,-0.90,-0.91
136.48,-5.01,-4.06,-5.04,-4.10,4.10,4.08,4.36,-0.91,-0.94,-0.94
137.84,-5.01,-4.02,-5.02,-4.03,4.03,4.00,4.30,-0.98,-0.99,-0.99
139.22,-5.01,-3.96,-5.01,-3.97,3.97,3.94,4.24,-1.04,-1.03,-1.05
140.61,-5.01,-3.90,-5.01,-3.93,3.93,3.89,4.17,-1.08,-1.08,-1.10
142.02,-5.01,-3.87,-5.03,-3.89,3.89,3.86,4.11,-1.11,-1.13,-1.13
143.44,-5.01,-3.82,-5.07,-3.88,3.88,3.83,4.05,-1.13,-1.19,-1.18
144.87,-5.01,-3.77,-5.13,-3.88,3.88,3.82,3.99,-1.13,-1.25,-1.23
146.32,-5.16,-3.87,-5.19,-3.88,3.88,3.81,3.93,-1.28,-1.31,-1.29
147.78,-5.24,-3.90,-5.25,-3.88,3.88,3.80,3.88,-1.36,-1.38,-1.34
149.26,-5.24,-3.82,-5.33,-3.88,3.88,3.79,3.82,-1.36,-1.45,-1.42
150.75,-5.34,-3.84,-5.40,-3.87,3.87,3.78,3.77,-1.46,-1.52,-1.50
152.26,-5.45,-3.87,-5.45,-3.85,3.85,3.77,3.71,-1.60,-1.60,-1.58
153.78,-5.62,-3.96,-5.49,-3.81,3.81,3.75,3.66,-1.81,-1.68,-1.66
155.32,-5.69,-3.93,-5.53,-3.77,3.77,3.73,3.61,-1.92,-1.76,-1.76
156.88,-5.70,-3.85,-5.55,-3.72,3.72,3.71,3.56,-1.98,-1.83,-1.84
158.44,-5.70,-3.77,-5.56,-3.65,3.65,3.69,3.51,-2.04,-1.91,-1.92
160.03,-5.63,-3.62,-5.56,-3.57,3.57,3.66,3.46,-2.05,-1.98,-2.00
161.63,-5.50,-3.43,-5.53,-3.48,3.48,3.63,3.42,-2.02,-2.05,-2.07
163.24,-5.47,-3.34,-5.49,-3.38,3.38,3.60,3.37,-2.09,-2.11,-2.13
164.88,-5.47,-3.29,-5.44,-3.28,3.28,3.57,3.33,-2.19,-2.16,-2.18
166.53,-5.29,-3.07,-5.38,-3.18,3.18,3.53,3.29,-2.10,-2.20,-2.22
168.19,-5.24,-2.98,-5.32,-3.09,3.09,3.50,3.25,-2.15,-2.23,-2.26
169.87,-5.24,-2.96,-5.25,-2.99,2.99,3.46,3.21,-2.25,-2.26,-2.28
171.57,-5.24,-2.94,-5.19,-2.91,2.91,3.42,3.18,-2.32,-2.27,-2.29
173.29,-5.10,-2.80,-5.14,-2.86,2.86,3.38,3.14,-2.24,-2.29,-2.30
175.02,-5.01,-2.72,-5.11,-2.81,2.81,3.34,3.11,-2.20,-2.30,-2.29
176.77,-5.01,-2.71,-5.07,-2.77,2.77,3.30,3.08,-2.24,-2.30,-2.30
178.54,-5.01,-2.71,-5.05,-2.74,2.74,3.26,3.05,-2.27,-2.31,-2.30
180.32,-5.01,-2.71,-5.02,-2.71,2.71,3.22,3.02,-2.30,-2.31,-2.29
182.13,-5.01,-2.72,-4.99,-2.67,2.67,3.18,2.99,-2.34,-2.32,-2.29
183.95,-5.01,-2.71,-4.96,-2.63,2.63,3.14,2.97,-2.37,-2.33,-2.30
185.79,-5.01,-2.69,-4.94,-2.60,2.60,3.10,2.94,-2.41,-2.34,-2.32
187.65,-5.01,-2.67,-4.91,-2.56,2.56,3.06,2.92,-2.44,-2.35,-2.34
189.52,-5.01,-2.64,-4.89,-2.52,2.52,3.02,2.90,-2.48,-2.36,-2.37
191.42,-4.96,-2.57,-4.86,-2.48,2.48,2.98,2.87,-2.48,-2.38,-2.39
193.33,-4.83,-2.42,-4.85,-2.44,2.44,2.94,2.86,-2.38,-2.40,-2.41
195.27,-4.78,-2.35,-4.84,-2.41,2.41,2.91,2.84,-2.37,-2.43,-2.42
197.22,-4.78,-2.33,-4.84,-2.39,2.39,2.87,2.82,-2.39,-2.45,-2.45
199.19,-4.78,-2.29,-4.85,-2.38,2.38,2.83,2.80,-2.40,-2.47,-2.49
201.18,-4.78,-2.28,-4.88,-2.38,2.38,2.79,2.79,-2.39,-2.50,-2.50
203.19,-4.83,-2.31,-4.92,-2.40,2.40,2.75,2.77,-2.43,-2.52,-2.52
205.23,-4.95,-2.40,-4.97,-2.43,2.43,2.72,2.76,-2.52,-2.54,-2.55
207.28,-5.01,-2.45,-5.04,-2.48,2.48,2.68,2.75,-2.53,-2.56,-2.56
209.35,-5.01,-2.42,-5.13,-2.55,2.55,2.65,2.74,-2.46,-2.58,-2.58
211.44,-5.14,-2.53,-5.23,-2.63,2.63,2.61,2.72,-2.51,-2.60,-2.61
213.56,-5.39,-2.77,-5.34,-2.72,2.72,2.58,2.71,-2.66,-2.62,-2.62
215.69,-5.47,-2.85,-5.45,-2.81,2.81,2.54,2.70,-2.66,-2.63,-2.62
217.85,-5.68,-3.03,-5.54,-2.89,2.89,2.51,2.69,-2.79,-2.65,-2.65
220.03,-5.70,-3.03,-5.63,-2.97,2.97,2.48,2.68,-2.73,-2.66,-2.66
222.23,-5.70,-3.01,-5.71,-3.03,3.03,2.44,2.67,-2.67,-2.68,-2.69
224.45,-5.80,-3.11,-5.76,-3.08,3.08,2.41,2.66,-2.72,-2.69,-2.69
226.70,-5.91,-3.21,-5.80,-3.10,3.10,2.38,2.65,-2.81,-2.70,-2.70
228.96,-5.92,-3.21,-5.82,-3.11,3.11,2.35,2.64,-2.81,-2.71,-2.71
231.25,-5.92,-3.21,-5.82,-3.11,3.11,2.32,2.62,-2.81,-2.72,-2.71
233.57,-5.89,-3.16,-5.82,-3.10,3.10,2.29,2.61,-2.79,-2.72,-2.72
235.90,-5.71,-2.97,-5.80,-3.07,3.07,2.26,2.60,-2.64,-2.73,-2.74
238.26,-5.70,-2.96,-5.76,-3.03,3.03,2.24,2.58,-2.67,-2.73,-2.74
240.64,-5.70,-2.96,-5.71,-2.98,2.98,2.21,2.56,-2.72,-2.73,-2.74
243.05,-5.69,-2.96,-5.66,-2.93,2.93,2.18,2.55,-2.76,-2.73,-2.73
245.48,-5.53,-2.80,-5.62,-2.89,2.89,2.16,2.53,-2.64,-2.73,-2.73
247.93,-5.47,-2.75,-5.57,-2.85,2.85,2.13,2.51,-2.62,-2.73,-2.72
250.41,-5.47,-2.74,-5.52,-2.80,2.80,2.11,2.49,-2.67,-2.72,-2.73
252.92,-5.47,-2.75,-5.47,-2.76,2.76,2.08,2.46,-2.71,-2.72,-2.72
255.45,-5.47,-2.77,-5.43,-2.73,2.73,2.06,2.44,-2.74,-2.71,-2.70
258.00,-5.47,-2.77,-5.40,-2.70,2.70,2.04,2.42,-2.77,-2.70,-2.69
260.58,-5.33,-2.64,-5.36,-2.67,2.67,2.01,2.39,-2.65,-2.69,-2.69
263.19,-5.25,-2.57,-5.33,-2.65,2.65,1.99,2.36,-2.59,-2.68,-2.68
265.82,-5.24,-2.56,-5.29,-2.62,2.62,1.97,2.33,-2.62,-2.67,-2.68
268.48,-5.24,-2.58,-5.22,-2.57,2.57,1.95,2.30,-2.67,-2.65,-2.65
271.16,-5.24,-2.60,-5.15,-2.52,2.52,1.93,2.27,-2.72,-2.64,-2.64
273.87,-5.16,-2.53,-5.08,-2.46,2.46,1.92,2.24,-2.69,-2.62,-2.63
276.61,-5.03,-2.43,-4.99,-2.40,2.40,1.90,2.21,-2.63,-2.60,-2.60
279.38,-5.01,-2.43,-4.89,-2.32,2.32,1.88,2.18,-2.69,-2.58,-2.58
282.17,-4.84,-2.28,-4.78,-2.23,2.23,1.86,2.14,-2.61,-2.55,-2.56
284.99,-4.73,-2.19,-4.67,-2.14,2.14,1.85,2.11,-2.59,-2.53,-2.53
287.84,-4.57,-2.06,-4.56,-2.06,2.06,1.83,2.08,-2.51,-2.50,-2.51
290.72,-4.48,-2.00,-4.45,-1.98,1.98,1.82,2.04,-2.50,-2.48,-2.47
293.63,-4.23,-1.78,-4.35,-1.89,1.89,1.80,2.01,-2.33,-2.45,-2.45
296.57,-4.11,-1.68,-4.24,-1.81,1.81,1.79,1.97,-2.29,-2.43,-2.42
299.53,-4.10,-1.70,-4.14,-1.74,1.74,1.78,1.94,-2.36,-2.40,-2.40
302.53,-4.09,-1.70,-4.06,-1.68,1.68,1.77,1.91,-2.40,-2.38,-2.38
305.55,-3.90,-1.55,-4.00,-1.64,1.64,1.75,1.87,-2.25,-2.36,-2.35
308.61,-3.87,-1.54,-3.95,-1.61,1.61,1.74,1.84,-2.26,-2.35,-2.33
311.69,-3.87,-1.55,-3.91,-1.58,1.58,1.73,1.81,-2.29,-2.33,-2.32
314.81,-3.87,-1.58,-3.88,-1.56,1.56,1.72,1.78,-2.31,-2.32,-2.29
317.96,-3.87,-1.57,-3.85,-1.54,1.54,1.71,1.75,-2.33,-2.31,-2.29
321.14,-3.87,-1.57,-3.83,-1.53,1.53,1.70,1.72,-2.34,-2.30,-2.30
324.35,-3.87,-1.58,-3.81,-1.52,1.52,1.69,1.69,-2.35,-2.29,-2.29
327.59,-3.87,-1.58,-3.80,-1.52,1.52,1.68,1.66,-2.35,-2.28,-2.29
330.87,-3.87,-1.59,-3.78,-1.51,1.51,1.67,1.63,-2.36,-2.27,-2.28
334.18,-3.87,-1.60,-3.77,-1.51,1.51,1.66,1.61,-2.36,-2.26,-2.27
337.52,-3.74,-1.47,-3.76,-1.51,1.51,1.65,1.58,-2.23,-2.25,-2.26
340.90,-3.66,-1.42,-3.75,-1.51,1.51,1.64,1.56,-2.15,-2.24,-2.24
344.30,-3.64,-1.41,-3.72,-1.50,1.50,1.63,1.53,-2.14,-2.22,-2.23
347.75,-3.64,-1.42,-3.69,-1.49,1.49,1.62,1.51,-2.15,-2.21,-2.21
351.23,-3.64,-1.45,-3.66,-1.48,1.48,1.62,1.49,-2.16,-2.19,-2.19
354.74,-3.64,-1.47,-3.63,-1.47,1.47,1.60,1.47,-2.17,-2.16,-2.17
358.28,-3.64,-1.50,-3.60,-1.46,1.46,1.59,1.45,-2.18,-2.14,-2.14
361.87,-3.64,-1.51,-3.57,-1.45,1.45,1.58,1.43,-2.18,-2.12,-2.12
365.49,-3.64,-1.54,-3.55,-1.45,1.45,1.57,1.41,-2.19,-2.10,-2.10
369.14,-3.62,-1.54,-3.53,-1.46,1.46,1.56,1.39,-2.16,-2.08,-2.08
372.83,-3.48,-1.43,-3.52,-1.47,1.47,1.55,1.38,-2.01,-2.05,-2.05
376.56,-3.42,-1.39,-3.51,-1.48,1.48,1.53,1.36,-1.94,-2.03,-2.03
380.33,-3.42,-1.41,-3.49,-1.48,1.48,1.52,1.34,-1.94,-2.02,-2.00
384.13,-3.42,-1.43,-3.47,-1.47,1.47,1.50,1.33,-1.95,-2.00,-1.99
387.97,-3.42,-1.44,-3.44,-1.46,1.46,1.49,1.32,-1.96,-1.98,-1.98
391.85,-3.42,-1.45,-3.41,-1.44,1.44,1.47,1.31,-1.98,-1.97,-1.97
395.77,-3.42,-1.46,-3.38,-1.42,1.42,1.45,1.29,-1.99,-1.96,-1.96
399.73,-3.42,-1.47,-3.36,-1.41,1.41,1.44,1.28,-2.00,-1.95,-1.95
403.72,-3.42,-1.47,-3.35,-1.40,1.40,1.42,1.27,-2.01,-1.94,-1.94
407.76,-3.42,-1.48,-3.33,-1.39,1.39,1.40,1.26,-2.03,-1.94,-1.93
411.84,-3.28,-1.35,-3.30,-1.37,1.37,1.38,1.25,-1.90,-1.93,-1.93
415.96,-3.20,-1.28,-3.28,-1.36,1.36,1.35,1.24,-1.84,-1.93,-1.92
