frequency,raw,error,smoothed,error_smoothed,equalization,parametric_eq,fixed_band_eq,equalized_raw,equalized_smoothed,target
20.00,-3.11,-5.46,-3.11,-5.46,5.50,6.13,2.24,2.38,2.39,2.35
20.20,-3.11,-5.51,-3.12,-5.52,5.53,6.09,2.30,2.42,2.41,2.40
20.40,-3.11,-5.56,-3.12,-5.57,5.56,6.05,2.37,2.45,2.44,2.45
20.61,-3.11,-5.59,-3.12,-5.61,5.59,6.01,2.44,2.47,2.47,2.48
20.81,-3.11,-5.65,-3.12,-5.65,5.61,5.97,2.51,2.49,2.49,2.53
21.02,-3.11,-5.68,-3.10,-5.66,5.62,5.93,2.58,2.51,2.52,2.57
21.23,-3.06,-5.65,-3.07,-5.66,5.63,5.89,2.65,2.57,2.56,2.59
21.44,-3.02,-5.63,-3.03,-5.64,5.64,5.85,2.73,2.61,2.61,2.61
21.66,-2.98,-5.61,-2.98,-5.61,5.63,5.81,2.81,2.64,2.65,2.63
21.87,-2.93,-5.57,-2.94,-5.59,5.61,5.77,2.89,2.68,2.67,2.64
22.09,-2.91,-5.57,-2.92,-5.58,5.59,5.74,2.98,2.68,2.68,2.66
22.31,-2.90,-5.57,-2.90,-5.57,5.58,5.70,3.06,2.68,2.68,2.67
22.54,-2.90,-5.57,-2.90,-5.57,5.57,5.66,3.15,2.66,2.67,2.67
22.76,-2.89,-5.56,-2.90,-5.56,5.56,5.62,3.24,2.66,2.66,2.67
22.99,-2.89,-5.55,-2.89,-5.55,5.55,5.59,3.33,2.66,2.66,2.66
23.22,-2.87,-5.53,-2.88,-5.54,5.54,5.55,3.43,2.67,2.67,2.66
23.45,-2.86,-5.52,-2.86,-5.53,5.53,5.51,3.53,2.67,2.66,2.66
23.69,-2.84,-5.51,-2.85,-5.51,5.51,5.48,3.63,2.67,2.66,2.67
23.92,-2.83,-5.50,-2.83,-5.50,5.49,5.44,3.73,2.65,2.66,2.67
24.16,-2.79,-5.46,-2.79,-5.47,5.46,5.41,3.83,2.66,2.66,2.67
24.40,-2.75,-5.43,-2.76,-5.43,5.42,5.37,3.93,2.67,2.67,2.68
24.65,-2.71,-5.39,-2.71,-5.39,5.38,5.34,4.04,2.67,2.67,2.67
24.89,-2.67,-5.34,-2.67,-5.35,5.35,5.30,4.15,2.67,2.67,2.67
25.14,-2.63,-5.30,-2.63,-5.31,5.31,5.27,4.26,2.68,2.67,2.67
25.39,-2.59,-5.27,-2.59,-5.27,5.28,5.23,4.37,2.68,2.69,2.68
25.65,-2.56,-5.24,-2.56,-5.23,5.26,5.20,4.48,2.69,2.70,2.68
25.91,-2.52,-5.20,-2.53,-5.21,5.24,5.17,4.59,2.71,2.70,2.67
26.16,-2.52,-5.19,-2.53,-5.20,5.22,5.13,4.70,2.70,2.70,2.67
26.43,-2.53,-5.20,-2.54,-5.21,5.21,5.10,4.80,2.68,2.67,2.67
26.69,-2.54,-5.21,-2.55,-5.22,5.19,5.07,4.91,2.64,2.64,2.67
26.96,-2.55,-5.22,-2.54,-5.21,5.16,5.04,5.02,2.61,2.63,2.67
27.23,-2.50,-5.18,-2.50,-5.17,5.13,5.01,5.12,2.63,2.63,2.67
27.50,-2.43,-5.10,-2.44,-5.11,5.09,4.98,5.23,2.66,2.65,2.67
27.77,-2.37,-5.03,-2.37,-5.04,5.05,4.94,5.32,2.68,2.68,2.66
28.05,-2.31,-4.97,-2.32,-4.98,5.00,4.91,5.42,2.69,2.68,2.66
28.33,-2.28,-4.93,-2.28,-4.93,4.96,4.88,5.51,2.68,2.68,2.65
28.62,-2.25,-4.91,-2.25,-4.90,4.93,4.85,5.59,2.67,2.68,2.65
28.90,-2.22,-4.88,-2.23,-4.88,4.90,4.83,5.67,2.68,2.67,2.66
29.19,-2.21,-4.86,-2.22,-4.87,4.88,4.80,5.74,2.66,2.66,2.65
29.48,-2.21,-4.87,-2.22,-4.87,4.86,4.77,5.81,2.65,2.65,2.66
29.78,-2.22,-4.87,-2.22,-4.87,4.85,4.74,5.87,2.63,2.63,2.65
30.08,-2.21,-4.87,-2.21,-4.86,4.84,4.71,5.91,2.62,2.63,2.66
30.38,-2.18,-4.84,-2.18,-4.83,4.82,4.68,5.96,2.64,2.64,2.65
30.68,-2.14,-4.79,-2.15,-4.80,4.81,4.66,5.99,2.66,2.66,2.65
30.99,-2.11,-4.76,-2.12,-4.77,4.79,4.63,6.01,2.68,2.67,2.65
31.30,-2.11,-4.75,-2.11,-4.76,4.78,4.61,6.03,2.67,2.67,2.64
31.61,-2.11,-4.75,-2.11,-4.75,4.76,4.58,6.03,2.65,2.65,2.64
31.93,-2.11,-4.75,-2.11,-4.75,4.74,4.55,6.03,2.63,2.63,2.64
32.24,-2.10,-4.73,-2.11,-4.74,4.72,4.53,6.02,2.62,2.62,2.63
32.57,-2.09,-4.72,-2.09,-4.72,4.70,4.50,5.99,2.61,2.61,2.63
32.89,-2.07,-4.70,-2.07,-4.70,4.67,4.48,5.97,2.60,2.61,2.63
33.22,-2.03,-4.65,-2.03,-4.65,4.65,4.46,5.93,2.61,2.62,2.62
33.55,-1.98,-4.60,-1.98,-4.60,4.62,4.43,5.89,2.63,2.63,2.62
33.89,-1.93,-4.54,-1.94,-4.55,4.58,4.41,5.83,2.65,2.64,2.61
34.23,-1.91,-4.52,-1.92,-4.53,4.55,4.39,5.78,2.63,2.63,2.61
34.57,-1.91,-4.51,-1.91,-4.51,4.51,4.36,5.71,2.60,2.60,2.60
34.92,-1.91,-4.51,-1.90,-4.50,4.49,4.34,5.65,2.57,2.58,2.60
35.27,-1.88,-4.48,-1.88,-4.48,4.46,4.32,5.58,2.58,2.58,2.59
35.62,-1.85,-4.44,-1.85,-4.44,4.44,4.30,5.50,2.59,2.59,2.59
35.97,-1.81,-4.40,-1.83,-4.42,4.43,4.27,5.42,2.61,2.60,2.59
36.33,-1.81,-4.40,-1.82,-4.40,4.41,4.25,5.35,2.60,2.59,2.59
36.70,-1.81,-4.39,-1.81,-4.39,4.39,4.23,5.26,2.58,2.58,2.58
37.06,-1.80,-4.38,-1.80,-4.38,4.37,4.21,5.18,2.57,2.57,2.58
37.43,-1.77,-4.36,-1.78,-4.36,4.36,4.19,5.10,2.58,2.58,2.59
37.81,-1.75,-4.34,-1.75,-4.34,4.35,4.17,5.02,2.59,2.59,2.59
38.19,-1.73,-4.31,-1.73,-4.32,4.34,4.15,4.93,2.60,2.60,2.58
38.57,-1.72,-4.31,-1.72,-4.31,4.33,4.13,4.85,2.60,2.60,2.59
38.95,-1.71,-4.31,-1.72,-4.31,4.32,4.11,4.77,2.60,2.60,2.60
39.34,-1.71,-4.30,-1.72,-4.31,4.30,4.09,4.69,2.59,2.59,2.59
39.74,-1.71,-4.30,-1.71,-4.30,4.29,4.08,4.62,2.58,2.58,2.59
40.14,-1.70,-4.29,-1.70,-4.29,4.28,4.06,4.54,2.57,2.58,2.59
40.54,-1.67,-4.26,-1.67,-4.26,4.26,4.04,4.47,2.59,2.59,2.59
40.94,-1.64,-4.22,-1.65,-4.24,4.24,4.02,4.40,2.60,2.59,2.58
41.35,-1.63,-4.21,-1.63,-4.21,4.22,4.00,4.33,2.58,2.58,2.58
41.76,-1.62,-4.19,-1.62,-4.19,4.18,3.98,4.27,2.56,2.57,2.57
42.18,-1.59,-4.16,-1.59,-4.16,4.15,3.97,4.21,2.56,2.56,2.57
42.60,-1.55,-4.11,-1.55,-4.12,4.11,3.95,4.15,2.56,2.55,2.56
43.03,-1.51,-4.06,-1.52,-4.07,4.07,3.93,4.09,2.56,2.55,2.55
43.46,-1.49,-4.03,-1.49,-4.03,4.03,3.91,4.04,2.54,2.54,2.54
43.90,-1.47,-4.00,-1.47,-3.99,3.99,3.90,3.99,2.52,2.53,2.52
44.33,-1.44,-3.94,-1.45,-3.95,3.96,3.88,3.94,2.52,2.51,2.50
44.78,-1.42,-3.90,-1.43,-3.91,3.93,3.86,3.89,2.51,2.50,2.48
45.23,-1.41,-3.88,-1.42,-3.88,3.90,3.84,3.85,2.49,2.49,2.47
45.68,-1.41,-3.87,-1.41,-3.87,3.87,3.83,3.82,2.46,2.46,2.46
46.13,-1.41,-3.85,-1.42,-3.86,3.85,3.81,3.78,2.43,2.43,2.44
46.60,-1.41,-3.85,-1.41,-3.85,3.82,3.79,3.75,2.41,2.41,2.44
47.06,-1.40,-3.82,-1.39,-3.81,3.79,3.77,3.72,2.39,2.41,2.42
47.53,-1.35,-3.76,-1.35,-3.77,3.77,3.76,3.69,2.41,2.41,2.41
48.01,-1.30,-3.71,-1.32,-3.73,3.74,3.74,3.67,2.43,2.42,2.41
48.49,-1.30,-3.69,-1.30,-3.69,3.71,3.72,3.65,2.41,2.41,2.39
48.97,-1.30,-3.67,-1.30,-3.67,3.68,3.70,3.63,2.38,2.38,2.37
49.46,-1.30,-3.65,-1.30,-3.65,3.66,3.68,3.61,2.35,2.35,2.35
49.96,-1.30,-3.63,-1.30,-3.64,3.64,3.67,3.60,2.34,2.34,2.33
50.46,-1.30,-3.62,-1.30,-3.62,3.63,3.65,3.58,2.32,2.32,2.32
50.96,-1.30,-3.61,-1.30,-3.61,3.61,3.63,3.57,2.31,2.31,2.31
51.47,-1.30,-3.59,-1.30,-3.60,3.60,3.61,3.56,2.29,2.29,2.29
51.99,-1.30,-3.58,-1.31,-3.59,3.58,3.59,3.56,2.27,2.27,2.28
52.51,-1.30,-3.57,-1.30,-3.58,3.55,3.57,3.55,2.25,2.25,2.27
53.03,-1.30,-3.57,-1.28,-3.55,3.53,3.55,3.54,2.23,2.25,2.27
53.56,-1.24,-3.49,-1.25,-3.50,3.50,3.53,3.54,2.26,2.25,2.25
54.10,-1.20,-3.44,-1.22,-3.46,3.48,3.51,3.53,2.27,2.26,2.24
54.64,-1.20,-3.42,-1.20,-3.43,3.45,3.49,3.53,2.25,2.25,2.22
55.18,-1.20,-3.42,-1.20,-3.41,3.43,3.46,3.52,2.23,2.23,2.22
55.74,-1.20,-3.40,-1.20,-3.41,3.41,3.44,3.52,2.21,2.21,2.20
56.29,-1.20,-3.39,-1.20,-3.40,3.39,3.42,3.51,2.19,2.19,2.19
56.86,-1.20,-3.38,-1.20,-3.38,3.38,3.40,3.50,2.18,2.18,2.18
57.42,-1.20,-3.35,-1.20,-3.36,3.36,3.37,3.49,2.16,2.16,2.15
58.00,-1.20,-3.34,-1.21,-3.35,3.34,3.35,3.48,2.14,2.13,2.14
58.58,-1.20,-3.33,-1.20,-3.33,3.31,3.32,3.47,2.11,2.11,2.13
59.16,-1.19,-3.30,-1.19,-3.30,3.28,3.30,3.45,2.08,2.09,2.11
59.76,-1.15,-3.25,-1.16,-3.25,3.23,3.27,3.44,2.08,2.07,2.09
60.35,-1.13,-3.18,-1.13,-3.18,3.19,3.24,3.42,2.05,2.06,2.05
60.96,-1.10,-3.11,-1.11,-3.12,3.14,3.21,3.39,2.04,2.03,2.01
61.57,-1.10,-3.07,-1.10,-3.07,3.09,3.19,3.37,1.98,1.99,1.97
62.18,-1.10,-3.03,-1.10,-3.03,3.04,3.16,3.34,1.93,1.94,1.93
62.80,-1.10,-2.98,-1.10,-2.99,2.99,3.13,3.30,1.88,1.88,1.88
63.43,-1.10,-2.94,-1.10,-2.94,2.94,3.10,3.27,1.84,1.84,1.84
64.07,-1.10,-2.89,-1.10,-2.90,2.90,3.07,3.23,1.79,1.79,1.79
64.71,-1.10,-2.85,-1.10,-2.86,2.85,3.03,3.19,1.75,1.75,1.75
65.35,-1.10,-2.81,-1.10,-2.81,2.81,3.00,3.14,1.70,1.70,1.71
66.01,-1.10,-2.76,-1.10,-2.76,2.76,2.97,3.09,1.66,1.66,1.66
66.67,-1.10,-2.71,-1.10,-2.72,2.71,2.93,3.04,1.61,1.61,1.61
67.33,-1.10,-2.66,-1.10,-2.67,2.66,2.90,2.99,1.56,1.56,1.56
68.01,-1.10,-2.62,-1.10,-2.62,2.62,2.86,2.93,1.51,1.51,1.52
68.69,-1.10,-2.57,-1.10,-2.57,2.58,2.82,2.88,1.47,1.47,1.47
69.37,-1.10,-2.52,-1.10,-2.52,2.54,2.78,2.82,1.44,1.44,1.42
70.07,-1.10,-2.47,-1.10,-2.47,2.51,2.74,2.75,1.40,1.41,1.37
70.77,-1.10,-2.42,-1.13,-2.45,2.47,2.70,2.69,1.36,1.34,1.32
71.48,-1.16,-2.43,-1.16,-2.43,2.42,2.66,2.62,1.26,1.26,1.27
72.19,-1.22,-2.42,-1.20,-2.41,2.37,2.62,2.56,1.14,1.16,1.20
72.91,-1.21,-2.35,-1.22,-2.37,2.31,2.58,2.49,1.09,1.09,1.14
73.64,-1.20,-2.29,-1.19,-2.28,2.25,2.54,2.42,1.04,1.06,1.09
74.38,-1.15,-2.18,-1.14,-2.17,2.18,2.49,2.35,1.03,1.04,1.03
75.12,-1.06,-2.03,-1.11,-2.08,2.11,2.45,2.29,1.05,1.01,0.97
75.87,-1.09,-2.00,-1.09,-2.00,2.04,2.40,2.22,0.95,0.95,0.91
76.63,-1.10,-1.96,-1.09,-1.95,1.97,2.35,2.15,0.86,0.88,0.86
77.40,-1.10,-1.91,-1.11,-1.91,1.90,2.30,2.08,0.80,0.79,0.81
78.17,-1.10,-1.85,-1.10,-1.86,1.84,2.26,2.01,0.74,0.74,0.75
78.95,-1.10,-1.81,-1.10,-1.81,1.80,2.21,1.94,0.70,0.70,0.71
79.74,-1.10,-1.76,-1.10,-1.76,1.76,2.16,1.87,0.66,0.66,0.66
80.54,-1.10,-1.71,-1.10,-1.71,1.73,2.10,1.80,0.63,0.64,0.61
81.35,-1.10,-1.66,-1.11,-1.67,1.70,2.05,1.74,0.59,0.58,0.56
82.16,-1.12,-1.63,-1.16,-1.67,1.67,2.00,1.67,0.54,0.51,0.51
82.98,-1.22,-1.69,-1.19,-1.66,1.64,1.95,1.61,0.41,0.45,0.47
83.81,-1.24,-1.66,-1.21,-1.63,1.62,1.89,1.54,0.37,0.41,0.42
84.65,-1.18,-1.55,-1.22,-1.59,1.59,1.84,1.48,0.41,0.38,0.37
85.50,-1.19,-1.52,-1.22,-1.55,1.56,1.78,1.42,0.37,0.34,0.33
86.35,-1.26,-1.54,-1.25,-1.53,1.53,1.73,1.35,0.27,0.28,0.28
87.22,-1.30,-1.53,-1.29,-1.52,1.50,1.67,1.29,0.19,0.21,0.23
88.09,-1.30,-1.48,-1.31,-1.49,1.47,1.61,1.23,0.16,0.16,0.18
88.97,-1.30,-1.42,-1.30,-1.43,1.43,1.55,1.17,0.13,0.13,0.12
89.86,-1.30,-1.37,-1.30,-1.37,1.41,1.49,1.11,0.10,0.10,0.07
90.76,-1.30,-1.32,-1.33,-1.35,1.37,1.44,1.06,0.07,0.04,0.02
91.66,-1.37,-1.34,-1.37,-1.34,1.34,1.38,1.00,-0.04,-0.03,-0.03
92.58,-1.43,-1.34,-1.41,-1.32,1.30,1.32,0.94,-0.14,-0.11,-0.09
93.51,-1.42,-1.28,-1.42,-1.29,1.25,1.26,0.89,-0.17,-0.17,-0.14
94.44,-1.40,-1.22,-1.42,-1.23,1.21,1.20,0.84,-0.20,-0.21,-0.18
95.39,-1.40,-1.17,-1.41,-1.18,1.17,1.13,0.78,-0.23,-0.23,-0.23
96.34,-1.40,-1.12,-1.40,-1.12,1.14,1.07,0.73,-0.27,-0.26,-0.28
97.30,-1.40,-1.07,-1.39,-1.06,1.10,1.01,0.68,-0.30,-0.28,-0.33
98.28,-1.38,-1.00,-1.41,-1.04,1.07,0.95,0.63,-0.31,-0.34,-0.38
99.26,-1.43,-1.01,-1.46,-1.04,1.05,0.89,0.58,-0.38,-0.41,-0.42
100.25,-1.55,-1.08,-1.52,-1.05,1.03,0.83,0.53,-0.52,-0.48,-0.47
101.25,-1.57,-1.05,-1.57,-1.05,1.02,0.77,0.48,-0.55,-0.55,-0.52
102.27,-1.58,-1.01,-1.59,-1.02,1.00,0.70,0.43,-0.58,-0.59,-0.57
103.29,-1.59,-0.97,-1.60,-0.98,0.98,0.64,0.39,-0.61,-0.62,-0.62
104.32,-1.61,-0.95,-1.62,-0.96,0.95,0.58,0.34,-0.66,-0.67,-0.66
105.37,-1.64,-0.93,-1.64,-0.93,0.92,0.52,0.29,-0.73,-0.73,-0.71
106.42,-1.66,-0.90,-1.64,-0.87,0.87,0.46,0.25,-0.79,-0.76,-0.76
107.48,-1.62,-0.80,-1.62,-0.80,0.82,0.40,0.21,-0.81,-0.80,-0.82
108.56,-1.56,-0.69,-1.62,-0.75,0.76,0.33,0.17,-0.80,-0.86,-0.87
109.64,-1.62,-0.70,-1.62,-0.70,0.71,0.27,0.12,-0.92,-0.92,-0.92
110.74,-1.69,-0.71,-1.63,-0.66,0.65,0.21,0.08,-1.04,-0.98,-0.98
111.85,-1.60,-0.58,-1.63,-0.60,0.60,0.15,0.04,-1.00,-1.03,-1.02
112.97,-1.58,-0.50,-1.60,-0.52,0.54,0.09,0.01,-1.04,-1.06,-1.08
114.10,-1.58,-0.45,-1.58,-0.45,0.48,0.04,-0.03,-1.10,-1.09,-1.13
115.24,-1.58,-0.40,-1.61,-0.43,0.41,-0.02,-0.07,-1.17,-1.19,-1.18
116.39,-1.60,-0.37,-1.61,-0.38,0.33,-0.08,-0.10,-1.27,-1.28,-1.23
117.55,-1.62,-0.35,-1.55,-0.28,0.24,-0.14,-0.13,-1.38,-1.31,-1.27
118.73,-1.44,-0.13,-1.48,-0.18,0.15,-0.20,-0.17,-1.30,-1.34,-1.31
119.92,-1.33,0.00,-1.39,-0.05,0.05,-0.25,-0.20,-1.28,-1.34,-1.34
121.12,-1.36,0.02,-1.28,0.09,-0.04,-0.31,-0.23,-1.40,-1.32,-1.38
122.33,-1.21,0.19,-1.22,0.19,-0.14,-0.36,-0.25,-1.35,-1.36,-1.41
123.55,-1.11,0.33,-1.18,0.26,-0.24,-0.42,-0.28,-1.36,-1.42,-1.44
124.79,-1.16,0.31,-1.14,0.33,-0.34,-0.47,-0.31,-1.50,-1.48,-1.47
126.03,-1.14,0.36,-1.10,0.39,-0.43,-0.52,-0.33,-1.57,-1.53,-1.50
127.29,-1.04,0.48,-1.04,0.49,-0.51,-0.57,-0.35,-1.55,-1.55,-1.52
128.57,-0.92,0.63,-0.96,0.59,-0.59,-0.62,-0.38,-1.51,-1.55,-1.56
129.85,-0.87,0.72,-0.90,0.68,-0.67,-0.67,-0.40,-1.55,-1.58,-1.59
131.15,-0.91,0.71,-0.85,0.77,-0.76,-0.72,-0.42,-1.68,-1.61,-1.62
132.46,-0.79,0.86,-0.81,0.84,-0.86,-0.77,-0.43,-1.65,-1.66,-1.65
133.79,-0.70,0.98,-0.75,0.92,-0.95,-0.81,-0.45,-1.65,-1.70,-1.68
135.12,-0.72,0.99,-0.68,1.03,-1.03,-0.86,-0.47,-1.76,-1.71,-1.71
136.48,-0.62,1.10,-0.61,1.12,-1.11,-0.90,-0.48,-1.73,-1.72,-1.73
137.84,-0.53,1.24,-0.56,1.21,-1.18,-0.95,-0.50,-1.72,-1.74,-1.77
139.22,-0.49,1.31,-0.52,1.28,-1.26,-0.99,-0.51,-1.75,-1.77,-1.80
140.61,-0.50,1.33,-0.50,1.33,-1.33,-1.03,-0.53,-1.83,-1.82,-1.83
142.02,-0.52,1.33,-0.48,1.37,-1.40,-1.07,-0.54,-1.92,-1.87,-1.85
143.44,-0.42,1.46,-0.46,1.42,-1.46,-1.11,-0.55,-1.89,-1.92,-1.88
144.87,-0.40,1.52,-0.41,1.50,-1.53,-1.14,-0.57,-1.93,-1.94,-1.92
146.32,-0.40,1.56,-0.36,1.59,-1.59,-1.18,-0.58,-1.99,-1.95,-1.96
147.78,-0.31,1.68,-0.34,1.65,-1.65,-1.21,-0.59,-1.97,-2.00,-1.99
149.26,-0.31,1.73,-0.34,1.70,-1.71,-1.25,-0.60,-2.02,-2.05,-2.04
150.75,-0.38,1.72,-0.34,1.76,-1.75,-1.28,-0.62,-2.14,-2.10,-2.10
152.26,-0.39,1.78,-0.37,1.79,-1.78,-1.31,-0.63,-2.17,-2.15,-2.17
153.78,-0.38,1.86,-0.43,1.81,-1.78,-1.34,-0.64,-2.17,-2.21,-2.24
155.32,-0.51,1.80,-0.52,1.79,-1.75,-1.37,-0.66,-2.27,-2.27,-2.31
156.88,-0.68,1.71,-0.66,1.73,-1.70,-1.40,-0.67,-2.38,-2.36,-2.39
158.44,-0.83,1.64,-0.84,1.63,-1.61,-1.42,-0.68,-2.44,-2.45,-2.47
160.03,-1.00,1.55,-1.00,1.55,-1.51,-1.45,-0.70,-2.51,-2.51,-2.55
161.63,-1.17,1.45,-1.18,1.43,-1.40,-1.47,-0.71,-2.57,-2.58,-2.62
163.24,-1.35,1.32,-1.39,1.29,-1.30,-1.50,-0.73,-2.66,-2.69,-2.68
164.88,-1.59,1.14,-1.57,1.16,-1.22,-1.52,-0.74,-2.81,-2.79,-2.73
166.53,-1.72,1.06,-1.70,1.08,-1.17,-1.54,-0.76,-2.89,-2.87,-2.78
168.19,-1.75,1.07,-1.75,1.07,-1.15,-1.56,-0.78,-2.90,-2.90,-2.82
169.87,-1.72,1.14,-1.72,1.14,-1.16,-1.57,-0.79,-2.89,-2.88,-2.86
171.57,-1.63,1.25,-1.65,1.23,-1.22,-1.59,-0.81,-2.85,-2.86,-2.88
173.29,-1.55,1.34,-1.57,1.32,-1.31,-1.61,-0.83,-2.86,-2.88,-2.89
175.02,-1.49,1.41,-1.50,1.41,-1.42,-1.62,-0.85,-2.91,-2.92,-2.90
176.77,-1.42,1.49,-1.38,1.53,-1.54,-1.63,-0.87,-2.96,-2.92,-2.91
178.54,-1.25,1.67,-1.24,1.67,-1.66,-1.65,-0.89,-2.91,-2.89,-2.92
180.32,-1.05,1.86,-1.12,1.79,-1.76,-1.66,-0.92,-2.81,-2.88,-2.91
182.13,-1.01,1.89,-1.02,1.88,-1.84,-1.67,-0.94,-2.85,-2.86,-2.90
183.95,-1.03,1.88,-0.96,1.95,-1.91,-1.68,-0.96,-2.94,-2.86,-2.91
185.79,-0.90,2.01,-0.94,1.97,-1.96,-1.68,-0.99,-2.86,-2.90,-2.91
187.65,-0.88,2.05,-0.94,1.98,-2.00,-1.69,-1.01,-2.88,-2.94,-2.93
189.52,-0.99,1.95,-0.95,1.99,-2.01,-1.70,-1.04,-3.00,-2.96,-2.94
191.42,-1.01,1.95,-0.98,1.98,-2.00,-1.70,-1.06,-3.02,-2.98,-2.96
193.33,-0.96,2.02,-1.00,1.98,-1.99,-1.71,-1.09,-2.95,-2.99,-2.98
195.27,-0.99,2.01,-1.00,2.00,-1.96,-1.71,-1.12,-2.96,-2.96,-3.00
197.22,-1.04,1.98,-1.03,1.99,-1.94,-1.71,-1.15,-2.99,-2.98,-3.02
199.19,-1.08,1.96,-1.12,1.92,-1.93,-1.71,-1.17,-3.01,-3.04,-3.04
201.18,-1.19,1.87,-1.18,1.88,-1.92,-1.71,-1.20,-3.12,-3.10,-3.06
203.19,-1.25,1.83,-1.21,1.86,-1.92,-1.71,-1.23,-3.18,-3.14,-3.08
205.23,-1.20,1.90,-1.22,1.87,-1.93,-1.71,-1.26,-3.13,-3.15,-3.10
207.28,-1.18,1.93,-1.20,1.91,-1.93,-1.71,-1.29,-3.12,-3.13,-3.11
209.35,-1.18,1.95,-1.18,1.95,-1.93,-1.71,-1.32,-3.11,-3.11,-3.13
211.44,-1.19,1.97,-1.15,2.00,-1.93,-1.70,-1.35,-3.12,-3.08,-3.16
213.56,-1.15,2.02,-1.18,1.98,-1.93,-1.70,-1.37,-3.08,-3.11,-3.17
215.69,-1.17,2.00,-1.25,1.93,-1.92,-1.70,-1.40,-3.09,-3.17,-3.18
217.85,-1.41,1.78,-1.32,1.87,-1.89,-1.69,-1.43,-3.30,-3.21,-3.19
220.03,-1.41,1.79,-1.40,1.80,-1.84,-1.69,-1.46,-3.25,-3.24,-3.20
222.23,-1.41,1.82,-1.45,1.76,-1.77,-1.68,-1.48,-3.18,-3.22,-3.23
224.45,-1.48,1.74,-1.46,1.76,-1.71,-1.67,-1.51,-3.19,-3.16,-3.22
226.70,-1.51,1.71,-1.53,1.68,-1.65,-1.66,-1.53,-3.16,-3.19,-3.22
228.96,-1.59,1.62,-1.63,1.58,-1.61,-1.66,-1.55,-3.21,-3.24,-3.21
231.25,-1.75,1.45,-1.70,1.50,-1.58,-1.65,-1.57,-3.33,-3.28,-3.20
233.57,-1.75,1.44,-1.72,1.47,-1.54,-1.64,-1.59,-3.30,-3.27,-3.19
235.90,-1.67,1.51,-1.68,1.50,-1.51,-1.63,-1.60,-3.18,-3.19,-3.18
238.26,-1.59,1.58,-1.63,1.53,-1.46,-1.62,-1.62,-3.06,-3.09,-3.17
240.64,-1.60,1.54,-1.62,1.52,-1.42,-1.61,-1.63,-3.03,-3.04,-3.14
243.05,-1.69,1.42,-1.66,1.45,-1.39,-1.60,-1.64,-3.09,-3.06,-3.11
245.48,-1.71,1.38,-1.74,1.34,-1.37,-1.59,-1.65,-3.08,-3.11,-3.09
247.93,-1.80,1.26,-1.79,1.27,-1.34,-1.58,-1.65,-3.14,-3.13,-3.06
250.41,-1.83,1.21,-1.79,1.24,-1.30,-1.56,-1.65,-3.13,-3.10,-3.04
252.92,-1.75,1.26,-1.78,1.23,-1.26,-1.55,-1.66,-3.02,-3.04,-3.01
255.45,-1.73,1.26,-1.74,1.25,-1.23,-1.54,-1.65,-2.96,-2.97,-2.99
258.00,-1.72,1.25,-1.72,1.25,-1.21,-1.53,-1.65,-2.93,-2.93,-2.97
260.58,-1.72,1.23,-1.72,1.22,-1.20,-1.52,-1.64,-2.93,-2.93,-2.95
263.19,-1.72,1.20,-1.72,1.20,-1.20,-1.50,-1.63,-2.92,-2.92,-2.92
265.82,-1.72,1.18,-1.73,1.17,-1.19,-1.49,-1.62,-2.91,-2.92,-2.90
268.48,-1.72,1.16,-1.73,1.14,-1.16,-1.48,-1.61,-2.89,-2.90,-2.88
271.16,-1.73,1.12,-1.71,1.14,-1.13,-1.46,-1.60,-2.86,-2.84,-2.85
273.87,-1.71,1.12,-1.69,1.13,-1.09,-1.45,-1.58,-2.80,-2.78,-2.83
276.61,-1.64,1.16,-1.70,1.10,-1.05,-1.44,-1.56,-2.70,-2.76,-2.80
279.38,-1.74,1.03,-1.74,1.04,-1.03,-1.42,-1.54,-2.77,-2.76,-2.77
282.17,-1.81,0.94,-1.80,0.95,-1.00,-1.41,-1.52,-2.82,-2.80,-2.75
284.99,-1.82,0.89,-1.82,0.89,-0.98,-1.39,-1.50,-2.80,-2.80,-2.71
287.84,-1.82,0.87,-1.77,0.92,-0.95,-1.38,-1.48,-2.77,-2.72,-2.69
290.72,-1.66,1.00,-1.69,0.97,-0.92,-1.36,-1.45,-2.58,-2.61,-2.66
293.63,-1.60,1.03,-1.64,0.98,-0.90,-1.35,-1.43,-2.50,-2.55,-2.63
296.57,-1.64,0.96,-1.66,0.95,-0.89,-1.34,-1.41,-2.54,-2.55,-2.60
299.53,-1.72,0.85,-1.71,0.86,-0.89,-1.32,-1.38,-2.62,-2.60,-2.57
302.53,-1.76,0.79,-1.72,0.83,-0.89,-1.31,-1.36,-2.66,-2.61,-2.55
305.55,-1.67,0.84,-1.67,0.84,-0.89,-1.29,-1.33,-2.56,-2.56,-2.51
308.61,-1.55,0.94,-1.59,0.89,-0.88,-1.28,-1.31,-2.44,-2.48,-2.49
311.69,-1.53,0.93,-1.54,0.92,-0.88,-1.27,-1.28,-2.41,-2.42,-2.46
314.81,-1.52,0.92,-1.52,0.92,-0.89,-1.25,-1.26,-2.41,-2.41,-2.44
317.96,-1.52,0.90,-1.52,0.90,-0.91,-1.24,-1.23,-2.44,-2.43,-2.42
321.14,-1.51,0.90,-1.50,0.91,-0.94,-1.22,-1.21,-2.45,-2.44,-2.41
324.35,-1.44,0.95,-1.46,0.93,-0.96,-1.21,-1.19,-2.40,-2.42,-2.39
327.59,-1.42,0.96,-1.41,0.97,-0.97,-1.19,-1.16,-2.40,-2.38,-2.38
330.87,-1.35,1.02,-1.36,1.00,-0.98,-1.18,-1.14,-2.33,-2.34,-2.37
334.18,-1.33,1.02,-1.34,1.01,-0.98,-1.17,-1.12,-2.32,-2.32,-2.35
337.52,-1.33,1.01,-1.33,1.01,-0.98,-1.15,-1.10,-2.31,-2.31,-2.34
340.90,-1.33,1.00,-1.33,1.00,-0.98,-1.14,-1.08,-2.31,-2.31,-2.33
344.30,-1.33,0.99,-1.33,0.99,-0.97,-1.13,-1.06,-2.31,-2.30,-2.32
347.75,-1.33,0.99,-1.33,0.98,-0.99,-1.11,-1.04,-2.32,-2.32,-2.32
351.23,-1.33,0.98,-1.38,0.94,-1.00,-1.10,-1.02,-2.34,-2.38,-2.31
354.74,-1.38,0.94,-1.37,0.94,-1.03,-1.09,-1.01,-2.41,-2.40,-2.32
358.28,-1.40,0.91,-1.30,1.01,-1.05,-1.07,-0.99,-2.46,-2.35,-2.31
361.87,-1.14,1.17,-1.21,1.10,-1.08,-1.06,-0.98,-2.23,-2.29,-2.31
365.49,-1.05,1.25,-1.11,1.20,-1.11,-1.05,-0.96,-2.17,-2.22,-2.30
369.14,-1.09,1.22,-1.06,1.25,-1.15,-1.04,-0.95,-2.25,-2.21,-2.31
372.83,-1.09,1.22,-1.10,1.21,-1.19,-1.02,-0.94,-2.29,-2.29,-2.31
376.56,-1.12,1.20,-1.13,1.18,-1.23,-1.01,-0.92,-2.35,-2.36,-2.32
380.33,-1.15,1.16,-1.12,1.19,-1.25,-1.00,-0.91,-2.41,-2.37,-2.31
384.13,-1.09,1.22,-1.08,1.23,-1.26,-0.99,-0.90,-2.36,-2.35,-2.31
387.97,-1.00,1.32,-1.02,1.29,-1.28,-0.98,-0.89,-2.28,-2.30,-2.32
391.85,-0.96,1.37,-0.98,1.35,-1.30,-0.97,-0.88,-2.26,-2.27,-2.33
395.77,-0.96,1.36,-0.98,1.35,-1.34,-0.96,-0.88,-2.30,-2.31,-2.32
399.73,-0.99,1.34,-0.99,1.34,-1.38,-0.94,-0.87,-2.38,-2.37,-2.33
403.72,-1.01,1.32,-0.97,1.36,-1.43,-0.93,-0.86,-2.44,-2.40,-2.33
407.76,-0.91,1.44,-0.93,1.41,-1.46,-0.92,-0.85,-2.37,-2.39,-2.35
411.84,-0.86,1.49,-0.87,1.47,-1.46,-0.91,-0.85,-2.33,-2.34,-2.35
415.96,-0.84,1.51,-0.84,1.51,-1.44,-0.90,-0.84,-2.28,-2.28,-2.35
420.12,-0.86,1.49,-0.86,1.49,-1.39,-0.89,-0.84,-2.25,-2.25,-2.35
424.32,-0.93,1.42,-0.93,1.41,-1.32,-0.89,-0.84,-2.25,-2.25,-2.35
428.56,-1.03,1.31,-1.07,1.27,-1.23,-0.88,-0.83,-2.27,-2.30,-2.34
432.85,-1.23,1.10,-1.23,1.10,-1.13,-0.87,-0.83,-2.36,-2.35,-2.33
437.18,-1.40,0.92,-1.36,0.95,-1.02,-0.86,-0.83,-2.42,-2.37,-2.32
441.55,-1.44,0.84,-1.45,0.84,-0.91,-0.85,-0.83,-2.36,-2.36,-2.28
445.96,-1.45,0.80,-1.49,0.77,-0.83,-0.84,-0.82,-2.28,-2.31,-2.25
450.42,-1.49,0.73,-1.48,0.74,-0.76,-0.84,-0.82,-2.26,-2.24,-2.22
454.93,-1.46,0.71,-1.44,0.73,-0.73,-0.83,-0.82,-2.19,-2.18,-2.17
459.48,-1.37,0.76,-1.39,0.73,-0.73,-0.82,-0.82,-2.10,-2.12,-2.13
464.07,-1.31,0.77,-1.32,0.75,-0.75,-0.81,-0.82,-2.06,-2.07,-2.08
