frequency,raw,error,smoothed,error_smoothed,equalization,parametric_eq,fixed_band_eq,equalized_raw,equalized_smoothed,target
20.00,-33.28,-32.69,-33.27,-32.68,32.73,32.68,17.41,-0.55,-0.54,-0.59
20.20,-33.18,-32.58,-33.18,-32.59,32.60,32.55,17.62,-0.58,-0.58,-0.60
20.40,-33.08,-32.47,-33.09,-32.48,32.47,32.42,17.83,-0.60,-0.62,-0.61
20.61,-32.99,-32.38,-32.99,-32.38,32.35,32.30,18.05,-0.64,-0.64,-0.61
20.81,-32.89,-32.26,-32.89,-32.27,32.22,32.17,18.27,-0.67,-0.67,-0.63
21.02,-32.79,-32.16,-32.77,-32.14,32.09,32.05,18.49,-0.69,-0.68,-0.63
21.23,-32.63,-31.99,-32.63,-32.00,31.97,31.92,18.72,-0.66,-0.67,-0.64
21.44,-32.48,-31.85,-32.48,-31.85,31.84,31.80,18.96,-0.64,-0.64,-0.63
21.66,-32.33,-31.69,-32.32,-31.68,31.70,31.68,19.20,-0.63,-0.62,-0.64
21.87,-32.18,-31.53,-32.18,-31.53,31.57,31.55,19.45,-0.60,-0.61,-0.65
22.09,-32.05,-31.39,-32.06,-31.40,31.44,31.43,19.71,-0.60,-0.61,-0.66
22.31,-31.96,-31.30,-31.95,-31.29,31.32,31.30,19.97,-0.64,-0.64,-0.66
22.54,-31.87,-31.20,-31.87,-31.20,31.19,31.18,20.24,-0.67,-0.67,-0.67
22.76,-31.78,-31.11,-31.78,-31.11,31.07,31.06,20.51,-0.70,-0.70,-0.67
22.99,-31.68,-31.00,-31.67,-30.99,30.96,30.93,20.80,-0.72,-0.71,-0.68
23.22,-31.55,-30.86,-31.55,-30.87,30.84,30.81,21.09,-0.71,-0.71,-0.69
23.45,-31.41,-30.73,-31.41,-30.72,30.72,30.68,21.39,-0.68,-0.69,-0.68
23.69,-31.27,-30.58,-31.27,-30.58,30.61,30.56,21.70,-0.66,-0.66,-0.69
23.92,-31.13,-30.44,-31.13,-30.45,30.49,30.43,22.02,-0.64,-0.64,-0.69
24.16,-31.01,-30.33,-31.01,-30.33,30.37,30.30,22.36,-0.64,-0.65,-0.68
24.40,-30.91,-30.24,-30.91,-30.24,30.24,30.18,22.70,-0.66,-0.66,-0.67
24.65,-30.81,-30.14,-30.81,-30.14,30.12,30.05,23.05,-0.69,-0.69,-0.67
24.89,-30.70,-30.04,-30.70,-30.03,29.99,29.92,23.42,-0.72,-0.71,-0.67
25.14,-30.57,-29.90,-30.56,-29.89,29.85,29.79,23.81,-0.71,-0.71,-0.67
25.39,-30.39,-29.73,-30.40,-29.73,29.72,29.66,24.20,-0.68,-0.68,-0.67
25.65,-30.23,-29.56,-30.22,-29.56,29.58,29.53,24.62,-0.65,-0.65,-0.67
25.91,-30.05,-29.39,-30.06,-29.40,29.43,29.40,25.05,-0.62,-0.63,-0.66
26.16,-29.91,-29.26,-29.91,-29.26,29.29,29.27,25.50,-0.62,-0.62,-0.65
26.43,-29.78,-29.13,-29.78,-29.13,29.14,29.14,25.98,-0.64,-0.63,-0.65
26.69,-29.66,-29.01,-29.65,-29.01,29.00,29.01,26.47,-0.65,-0.65,-0.65
26.96,-29.53,-28.88,-29.53,-28.88,28.87,28.88,26.99,-0.66,-0.66,-0.65
27.23,-29.40,-28.75,-29.40,-28.75,28.74,28.74,27.54,-0.66,-0.66,-0.65
27.50,-29.26,-28.61,-29.26,-28.62,28.61,28.61,28.12,-0.65,-0.65,-0.65
27.77,-29.12,-28.48,-29.12,-28.48,28.48,28.47,28.72,-0.64,-0.64,-0.64
28.05,-28.99,-28.35,-28.98,-28.34,28.34,28.34,29.37,-0.64,-0.64,-0.64
28.33,-28.85,-28.20,-28.85,-28.21,28.21,28.20,30.04,-0.64,-0.64,-0.65
28.62,-28.72,-28.07,-28.72,-28.07,28.08,28.07,30.76,-0.64,-0.64,-0.65
28.90,-28.59,-27.95,-28.58,-27.94,27.94,27.93,31.51,-0.64,-0.64,-0.64
29.19,-28.45,-27.81,-28.45,-27.81,27.81,27.79,32.29,-0.63,-0.64,-0.64
29.48,-28.32,-27.68,-28.32,-27.68,27.68,27.65,33.10,-0.63,-0.64,-0.64
29.78,-28.19,-27.55,-28.19,-27.55,27.55,27.51,33.91,-0.64,-0.64,-0.64
30.08,-28.06,-27.43,-28.06,-27.42,27.42,27.37,34.70,-0.64,-0.64,-0.63
30.38,-27.93,-27.29,-27.93,-27.29,27.29,27.23,35.42,-0.64,-0.64,-0.64
30.68,-27.80,-27.15,-27.80,-27.16,27.15,27.09,36.01,-0.65,-0.65,-0.65
30.99,-27.67,-27.02,-27.67,-27.02,27.01,26.95,36.38,-0.65,-0.65,-0.65
31.30,-27.54,-26.88,-27.54,-26.88,26.88,26.81,36.47,-0.66,-0.66,-0.66
31.61,-27.41,-26.75,-27.41,-26.75,26.74,26.67,36.29,-0.67,-0.67,-0.66
31.93,-27.28,-26.61,-27.28,-26.61,26.62,26.52,35.85,-0.66,-0.66,-0.67
32.24,-27.15,-26.48,-27.15,-26.48,26.50,26.38,35.23,-0.65,-0.65,-0.67
32.57,-27.03,-26.35,-27.02,-26.34,26.39,26.24,34.51,-0.64,-0.63,-0.68
32.89,-26.90,-26.22,-26.91,-26.23,26.27,26.09,33.74,-0.62,-0.63,-0.68
33.22,-26.81,-26.13,-26.82,-26.14,26.15,25.95,32.97,-0.66,-0.67,-0.68
33.55,-26.74,-26.06,-26.74,-26.07,26.02,25.80,32.21,-0.72,-0.72,-0.68
33.89,-26.66,-25.99,-26.63,-25.95,25.87,25.66,31.49,-0.79,-0.76,-0.67
34.23,-26.48,-25.80,-26.46,-25.78,25.72,25.51,30.79,-0.76,-0.74,-0.68
34.57,-26.24,-25.56,-26.25,-25.57,25.56,25.36,30.14,-0.68,-0.69,-0.68
34.92,-26.01,-25.33,-26.03,-25.36,25.40,25.22,29.52,-0.61,-0.64,-0.68
35.27,-25.84,-25.17,-25.84,-25.17,25.23,25.07,28.93,-0.61,-0.62,-0.67
35.62,-25.70,-25.02,-25.69,-25.01,25.05,24.92,28.38,-0.64,-0.63,-0.68
35.97,-25.55,-24.87,-25.55,-24.87,24.89,24.78,27.86,-0.66,-0.66,-0.68
36.33,-25.43,-24.74,-25.43,-24.74,24.73,24.63,27.37,-0.69,-0.69,-0.69
36.70,-25.31,-24.61,-25.30,-24.61,24.59,24.48,26.91,-0.72,-0.71,-0.70
37.06,-25.19,-24.48,-25.18,-24.47,24.46,24.33,26.47,-0.73,-0.72,-0.71
37.43,-25.06,-24.33,-25.06,-24.33,24.33,24.19,26.05,-0.73,-0.73,-0.73
37.81,-24.93,-24.19,-24.93,-24.19,24.19,24.04,25.65,-0.74,-0.74,-0.74
38.19,-24.81,-24.05,-24.81,-24.05,24.05,23.89,25.28,-0.76,-0.75,-0.76
38.57,-24.69,-23.91,-24.68,-23.91,23.91,23.74,24.92,-0.78,-0.77,-0.78
38.95,-24.56,-23.76,-24.56,-23.76,23.76,23.59,24.58,-0.80,-0.80,-0.80
39.34,-24.44,-23.61,-24.44,-23.62,23.60,23.44,24.25,-0.83,-0.83,-0.83
39.74,-24.31,-23.47,-24.31,-23.46,23.45,23.30,23.94,-0.86,-0.86,-0.84
40.14,-24.17,-23.31,-24.16,-23.30,23.29,23.15,23.64,-0.88,-0.87,-0.86
40.54,-24.01,-23.13,-24.01,-23.13,23.14,23.00,23.36,-0.87,-0.87,-0.88
40.94,-23.85,-22.95,-23.86,-22.96,22.98,22.85,23.08,-0.86,-0.87,-0.90
41.35,-23.72,-22.81,-23.72,-22.80,22.83,22.70,22.82,-0.88,-0.88,-0.91
41.76,-23.59,-22.65,-23.59,-22.65,22.68,22.55,22.57,-0.91,-0.91,-0.94
42.18,-23.47,-22.52,-23.47,-22.52,22.52,22.41,22.33,-0.95,-0.95,-0.95
42.60,-23.34,-22.38,-23.34,-22.38,22.35,22.26,22.10,-0.99,-0.99,-0.96
43.03,-23.22,-22.24,-23.21,-22.23,22.18,22.11,21.88,-1.04,-1.03,-0.98
43.46,-23.05,-22.05,-23.05,-22.06,22.01,21.96,21.67,-1.04,-1.04,-1.00
43.90,-22.89,-21.88,-22.87,-21.86,21.84,21.82,21.47,-1.05,-1.03,-1.01
44.33,-22.68,-21.65,-22.67,-21.64,21.68,21.67,21.27,-0.99,-0.98,-1.03
44.78,-22.47,-21.42,-22.49,-21.45,21.52,21.52,21.09,-0.95,-0.97,-1.05
45.23,-22.34,-21.29,-22.37,-21.31,21.37,21.37,20.91,-0.97,-1.00,-1.05
45.68,-22.30,-21.22,-22.28,-21.20,21.22,21.23,20.74,-1.08,-1.06,-1.08
46.13,-22.23,-21.12,-22.21,-21.11,21.08,21.08,20.57,-1.15,-1.13,-1.11
46.60,-22.11,-20.98,-22.11,-20.99,20.94,20.93,20.41,-1.17,-1.17,-1.13
47.06,-21.99,-20.84,-21.98,-20.84,20.81,20.79,20.26,-1.18,-1.18,-1.15
47.53,-21.85,-20.68,-21.85,-20.67,20.66,20.64,20.12,-1.18,-1.18,-1.17
48.01,-21.71,-20.50,-21.72,-20.51,20.51,20.50,19.98,-1.20,-1.21,-1.21
48.49,-21.59,-20.35,-21.59,-20.35,20.35,20.35,19.84,-1.24,-1.24,-1.24
48.97,-21.47,-20.20,-21.45,-20.18,20.18,20.21,19.71,-1.29,-1.27,-1.27
49.46,-21.30,-20.01,-21.30,-20.00,20.01,20.06,19.59,-1.29,-1.29,-1.29
49.96,-21.13,-19.79,-21.15,-19.82,19.83,19.92,19.47,-1.29,-1.31,-1.34
50.46,-21.01,-19.65,-21.01,-19.65,19.67,19.77,19.35,-1.34,-1.34,-1.36
50.96,-20.89,-19.51,-20.88,-19.50,19.51,19.63,19.24,-1.38,-1.37,-1.38
51.47,-20.76,-19.36,-20.76,-19.35,19.35,19.49,19.13,-1.41,-1.41,-1.40
51.99,-20.62,-19.19,-20.62,-19.20,19.19,19.34,19.02,-1.43,-1.43,-1.43
52.51,-20.49,-19.04,-20.49,-19.04,19.04,19.20,18.92,-1.45,-1.44,-1.45
53.03,-20.35,-18.89,-20.36,-18.89,18.89,19.06,18.82,-1.46,-1.47,-1.46
53.56,-20.24,-18.75,-20.23,-18.75,18.74,18.92,18.72,-1.50,-1.49,-1.49
54.10,-20.12,-18.60,-20.11,-18.59,18.59,18.78,18.62,-1.53,-1.51,-1.52
54.64,-19.98,-18.44,-19.98,-18.44,18.44,18.64,18.53,-1.54,-1.54,-1.54
55.18,-19.85,-18.28,-19.86,-18.29,18.29,18.50,18.43,-1.55,-1.56,-1.57
55.74,-19.74,-18.15,-19.72,-18.14,18.14,18.36,18.34,-1.59,-1.58,-1.59
56.29,-19.60,-18.00,-19.59,-17.99,18.00,18.22,18.24,-1.60,-1.59,-1.60
56.86,-19.45,-17.84,-19.46,-17.85,17.85,18.08,18.15,-1.60,-1.61,-1.61
57.42,-19.33,-17.69,-19.33,-17.70,17.71,17.94,18.05,-1.62,-1.62,-1.64
58.00,-19.22,-17.58,-19.19,-17.56,17.56,17.80,17.95,-1.66,-1.63,-1.64
58.58,-19.05,-17.41,-19.05,-17.41,17.41,17.67,17.85,-1.64,-1.64,-1.64
59.16,-18.89,-17.24,-18.90,-17.26,17.24,17.53,17.75,-1.64,-1.66,-1.65
59.76,-18.77,-17.11,-18.77,-17.11,17.07,17.39,17.64,-1.70,-1.70,-1.66
60.35,-18.64,-16.95,-18.63,-16.95,16.90,17.26,17.54,-1.74,-1.73,-1.69
60.96,-18.51,-16.80,-18.48,-16.77,16.74,17.12,17.43,-1.77,-1.74,-1.71
61.57,-18.30,-16.56,-18.30,-16.57,16.59,16.99,17.31,-1.70,-1.71,-1.74
62.18,-18.13,-16.36,-18.16,-16.39,16.47,16.85,17.19,-1.66,-1.68,-1.77
62.80,-18.05,-16.25,-18.05,-16.25,16.36,16.72,17.07,-1.69,-1.69,-1.80
63.43,-18.01,-16.19,-18.01,-16.19,16.26,16.59,16.94,-1.75,-1.75,-1.82
64.07,-17.99,-16.16,-18.00,-16.17,16.16,16.46,16.82,-1.83,-1.84,-1.83
64.71,-18.00,-16.15,-17.99,-16.14,16.07,16.32,16.68,-1.93,-1.92,-1.85
65.35,-17.95,-16.09,-17.93,-16.07,15.97,16.19,16.55,-1.98,-1.96,-1.86
66.01,-17.83,-15.95,-17.80,-15.93,15.86,16.06,16.41,-1.96,-1.94,-1.88
66.67,-17.61,-15.73,-17.63,-15.75,15.74,15.93,16.26,-1.87,-1.90,-1.88
67.33,-17.44,-15.53,-17.46,-15.56,15.58,15.80,16.12,-1.86,-1.88,-1.91
68.01,-17.32,-15.40,-17.30,-15.38,15.40,15.67,15.97,-1.92,-1.90,-1.92
68.69,-17.16,-15.22,-17.16,-15.23,15.21,15.54,15.82,-1.94,-1.95,-1.94
69.37,-17.00,-15.06,-17.00,-15.05,15.03,15.42,15.67,-1.96,-1.97,-1.94
70.07,-16.84,-14.88,-16.81,-14.86,14.87,15.29,15.52,-1.97,-1.94,-1.96
70.77,-16.62,-14.65,-16.62,-14.66,14.72,15.16,15.36,-1.90,-1.90,-1.97
71.48,-16.47,-14.49,-16.50,-14.52,14.59,15.04,15.21,-1.88,-1.91,-1.98
72.19,-16.39,-14.39,-16.42,-14.43,14.46,14.91,15.05,-1.92,-1.96,-2.00
72.91,-16.44,-14.43,-16.37,-14.36,14.35,14.79,14.90,-2.08,-2.02,-2.01
73.64,-16.31,-14.29,-16.30,-14.29,14.25,14.66,14.74,-2.06,-2.06,-2.02
74.38,-16.18,-14.16,-16.20,-14.18,14.14,14.54,14.59,-2.04,-2.06,-2.02
75.12,-16.07,-14.04,-16.06,-14.04,14.03,14.42,14.44,-2.04,-2.03,-2.03
75.87,-15.95,-13.93,-15.94,-13.92,13.90,14.29,14.29,-2.05,-2.04,-2.02
76.63,-15.80,-13.78,-15.81,-13.80,13.75,14.17,14.14,-2.05,-2.07,-2.02
77.40,-15.67,-13.66,-15.67,-13.66,13.60,14.05,13.99,-2.07,-2.07,-2.01
78.17,-15.53,-13.52,-15.47,-13.47,13.47,13.93,13.84,-2.06,-2.01,-2.01
78.95,-15.29,-13.30,-15.27,-13.28,13.36,13.81,13.70,-1.92,-1.91,-1.99
79.74,-15.04,-13.06,-15.12,-13.14,13.28,13.69,13.56,-1.76,-1.84,-1.98
80.54,-15.03,-13.06,-15.02,-13.06,13.20,13.57,13.42,-1.82,-1.82,-1.97
81.35,-15.06,-13.10,-15.02,-13.06,13.11,13.45,13.29,-1.95,-1.91,-1.96
82.16,-15.03,-13.09,-15.08,-13.14,13.01,13.34,13.15,-2.01,-2.07,-1.94
82.98,-15.07,-13.14,-15.07,-13.14,12.93,13.22,13.03,-2.14,-2.14,-1.93
83.81,-15.05,-13.13,-14.92,-13.00,12.85,13.11,12.90,-2.20,-2.07,-1.92
84.65,-14.68,-12.77,-14.67,-12.76,12.77,12.99,12.78,-1.91,-1.91,-1.91
85.50,-14.32,-12.41,-14.42,-12.52,12.66,12.88,12.66,-1.66,-1.76,-1.91
86.35,-14.20,-12.31,-14.25,-12.36,12.53,12.76,12.54,-1.67,-1.72,-1.89
87.22,-14.26,-12.39,-14.22,-12.35,12.39,12.65,12.42,-1.87,-1.84,-1.87
88.09,-14.26,-12.40,-14.23,-12.37,12.26,12.54,12.31,-2.00,-1.97,-1.86
88.97,-14.15,-12.31,-14.11,-12.27,12.17,12.42,12.21,-1.97,-1.94,-1.84
89.86,-13.96,-12.12,-13.90,-12.07,12.12,12.31,12.10,-1.84,-1.78,-1.84
90.76,-13.65,-11.83,-13.75,-11.93,12.06,12.20,12.00,-1.59,-1.69,-1.82
91.66,-13.62,-11.80,-13.72,-11.91,11.99,12.09,11.91,-1.63,-1.73,-1.82
92.58,-13.84,-12.04,-13.73,-11.93,11.90,11.98,11.81,-1.94,-1.83,-1.80
93.51,-13.80,-12.01,-13.74,-11.95,11.78,11.87,11.72,-2.02,-1.96,-1.79
94.44,-13.57,-11.79,-13.62,-11.84,11.66,11.77,11.63,-1.90,-1.95,-1.78
95.39,-13.40,-11.62,-13.36,-11.58,11.56,11.66,11.55,-1.84,-1.79,-1.78
96.34,-13.13,-11.35,-13.13,-11.35,11.46,11.55,11.47,-1.67,-1.67,-1.78
97.30,-12.91,-11.13,-13.01,-11.23,11.35,11.45,11.39,-1.56,-1.66,-1.78
98.28,-12.96,-11.18,-12.94,-11.16,11.24,11.34,11.31,-1.72,-1.70,-1.78
99.26,-12.99,-11.20,-12.91,-11.13,11.14,11.24,11.23,-1.85,-1.77,-1.79
100.25,-12.87,-11.08,-12.88,-11.10,11.05,11.13,11.16,-1.81,-1.83,-1.79
101.25,-12.77,-10.99,-12.79,-11.01,10.98,11.03,11.09,-1.79,-1.81,-1.78
102.27,-12.71,-10.93,-12.70,-10.93,10.91,10.93,11.02,-1.80,-1.80,-1.78
103.29,-12.65,-10.87,-12.66,-10.89,10.84,10.83,10.96,-1.81,-1.82,-1.78
104.32,-12.60,-10.83,-12.62,-10.85,10.77,10.72,10.89,-1.83,-1.84,-1.77
105.37,-12.55,-10.78,-12.48,-10.71,10.71,10.62,10.83,-1.83,-1.77,-1.77
106.42,-12.37,-10.60,-12.29,-10.53,10.64,10.52,10.77,-1.73,-1.65,-1.77
107.48,-12.06,-10.28,-12.21,-10.44,10.56,10.42,10.71,-1.50,-1.65,-1.78
108.56,-12.12,-10.36,-12.22,-10.45,10.48,10.33,10.65,-1.64,-1.74,-1.76
109.64,-12.44,-10.68,-12.28,-10.52,10.41,10.23,10.58,-2.03,-1.87,-1.76
110.74,-12.31,-10.55,-12.25,-10.50,10.34,10.13,10.52,-1.96,-1.91,-1.76
111.85,-12.08,-10.33,-12.05,-10.31,10.29,10.04,10.46,-1.79,-1.77,-1.75
112.97,-11.71,-9.97,-11.83,-10.09,10.22,9.94,10.40,-1.48,-1.60,-1.74
114.10,-11.70,-9.97,-11.78,-10.04,10.15,9.84,10.34,-1.55,-1.63,-1.73
115.24,-11.85,-10.12,-11.79,-10.06,10.05,9.75,10.27,-1.80,-1.74,-1.73
116.39,-11.91,-10.18,-11.78,-10.06,9.95,9.66,10.21,-1.96,-1.83,-1.73
117.55,-11.62,-9.91,-11.68,-9.96,9.85,9.56,10.14,-1.76,-1.82,-1.71
118.73,-11.43,-9.72,-11.46,-9.76,9.77,9.47,10.07,-1.66,-1.69,-1.71
119.92,-11.33,-9.64,-11.27,-9.59,9.70,9.38,10.00,-1.62,-1.57,-1.69
121.12,-11.12,-9.46,-11.21,-9.55,9.63,9.29,9.93,-1.48,-1.58,-1.66
122.33,-11.20,-9.55,-11.20,-9.55,9.56,9.20,9.85,-1.64,-1.64,-1.65
123.55,-11.22,-9.59,-11.14,-9.52,9.47,9.11,9.77,-1.74,-1.67,-1.63
124.79,-11.11,-9.50,-11.05,-9.44,9.39,9.02,9.69,-1.72,-1.66,-1.61
126.03,-10.84,-9.24,-10.91,-9.31,9.31,8.93,9.61,-1.53,-1.59,-1.60
127.29,-10.76,-9.17,-10.87,-9.28,9.25,8.84,9.52,-1.51,-1.62,-1.59
128.57,-10.84,-9.26,-10.79,-9.21,9.19,8.76,9.43,-1.65,-1.60,-1.58
129.85,-10.91,-9.34,-10.67,-9.10,9.12,8.67,9.33,-1.79,-1.55,-1.57
131.15,-10.34,-8.78,-10.52,-8.97,9.05,8.58,9.24,-1.29,-1.48,-1.56
132.46,-10.33,-8.78,-10.42,-8.88,8.97,8.50,9.14,-1.36,-1.46,-1.55
133.79,-10.45,-8.91,-10.41,-8.88,8.88,8.42,9.04,-1.57,-1.53,-1.54
135.12,-10.55,-9.02,-10.44,-8.92,8.79,8.33,8.94,-1.76,-1.65,-1.53
136.48,-10.39,-8.88,-10.33,-8.82,8.69,8.25,8.83,-1.70,-1.64,-1.51
137.84,-10.02,-8.52,-10.16,-8.66,8.61,8.17,8.73,-1.41,-1.56,-1.50
139.22,-10.00,-8.49,-9.95,-8.45,8.53,8.09,8.62,-1.47,-1.42,-1.51
140.61,-9.88,-8.39,-9.83,-8.34,8.46,8.00,8.51,-1.42,-1.37,-1.49
142.02,-9.70,-8.21,-9.79,-8.30,8.38,7.92,8.40,-1.31,-1.41,-1.49
143.44,-9.79,-8.30,-9.75,-8.27,8.31,7.84,8.29,-1.48,-1.45,-1.49
144.87,-9.77,-8.29,-9.75,-8.27,8.23,7.77,8.18,-1.53,-1.51,-1.48
146.32,-9.73,-8.26,-9.73,-8.26,8.17,7.69,8.07,-1.55,-1.56,-1.47
147.78,-9.66,-8.19,-9.65,-8.18,8.13,7.61,7.97,-1.53,-1.52,-1.47
149.26,-9.56,-8.09,-9.56,-8.09,8.08,7.53,7.86,-1.47,-1.48,-1.47
150.75,-9.45,-7.97,-9.47,-8.00,8.02,7.46,7.75,-1.43,-1.45,-1.48
152.26,-9.40,-7.93,-9.38,-7.91,7.94,7.38,7.64,-1.46,-1.44,-1.47
153.78,-9.29,-7.82,-9.29,-7.82,7.85,7.31,7.53,-1.44,-1.44,-1.47
155.32,-9.22,-7.75,-9.21,-7.75,7.74,7.23,7.43,-1.48,-1.48,-1.47
156.88,-9.14,-7.66,-9.20,-7.72,7.64,7.16,7.33,-1.50,-1.56,-1.48
158.44,-9.13,-7.64,-9.10,-7.61,7.57,7.09,7.22,-1.56,-1.53,-1.49
160.03,-9.12,-7.62,-8.91,-7.41,7.49,7.01,7.12,-1.63,-1.42,-1.50
161.63,-8.62,-7.11,-8.84,-7.33,7.41,6.94,7.03,-1.21,-1.43,-1.51
163.24,-8.65,-7.12,-8.79,-7.27,7.32,6.87,6.93,-1.32,-1.47,-1.53
164.88,-9.06,-7.52,-8.74,-7.20,7.22,6.80,6.83,-1.83,-1.52,-1.54
166.53,-8.73,-7.17,-8.85,-7.30,7.12,6.73,6.74,-1.60,-1.73,-1.56
168.19,-8.63,-7.06,-8.74,-7.17,7.04,6.66,6.65,-1.59,-1.70,-1.57
169.87,-8.80,-7.21,-8.50,-6.91,6.96,6.59,6.56,-1.83,-1.53,-1.59
171.57,-8.21,-6.60,-8.42,-6.81,6.90,6.53,6.48,-1.31,-1.52,-1.61
173.29,-8.25,-6.62,-8.35,-6.72,6.82,6.46,6.40,-1.42,-1.53,-1.63
175.02,-8.46,-6.82,-8.30,-6.66,6.75,6.39,6.31,-1.71,-1.56,-1.64
176.77,-8.38,-6.72,-8.39,-6.73,6.67,6.33,6.24,-1.71,-1.72,-1.66
178.54,-8.33,-6.65,-8.35,-6.68,6.59,6.26,6.16,-1.74,-1.76,-1.68
180.32,-8.28,-6.58,-8.27,-6.57,6.53,6.20,6.09,-1.74,-1.73,-1.70
182.13,-8.20,-6.49,-8.20,-6.49,6.49,6.13,6.01,-1.71,-1.72,-1.71
183.95,-8.13,-6.41,-8.12,-6.40,6.42,6.07,5.94,-1.70,-1.70,-1.72
185.79,-8.04,-6.30,-8.04,-6.31,6.34,6.01,5.88,-1.69,-1.70,-1.74
187.65,-7.96,-6.21,-7.97,-6.22,6.23,5.94,5.81,-1.73,-1.73,-1.75
189.52,-7.90,-6.13,-7.89,-6.13,6.10,5.88,5.75,-1.80,-1.79,-1.77
191.42,-7.82,-6.05,-7.82,-6.05,5.98,5.82,5.69,-1.84,-1.85,-1.77
193.33,-7.73,-5.94,-7.75,-5.96,5.87,5.76,5.63,-1.86,-1.89,-1.79
195.27,-7.66,-5.85,-7.60,-5.79,5.78,5.70,5.57,-1.88,-1.82,-1.81
197.22,-7.48,-5.65,-7.39,-5.56,5.71,5.64,5.52,-1.77,-1.68,-1.83
199.19,-7.16,-5.32,-7.31,-5.46,5.64,5.58,5.46,-1.51,-1.66,-1.84
201.18,-7.19,-5.33,-7.34,-5.48,5.57,5.53,5.41,-1.62,-1.77,-1.86
203.19,-7.63,-5.76,-7.41,-5.55,5.49,5.47,5.36,-2.13,-1.92,-1.87
205.23,-7.54,-5.66,-7.48,-5.60,5.43,5.41,5.32,-2.11,-2.05,-1.88
207.28,-7.31,-5.42,-7.41,-5.52,5.37,5.36,5.27,-1.94,-2.04,-1.89
209.35,-7.24,-5.33,-7.28,-5.37,5.32,5.30,5.22,-1.92,-1.96,-1.91
211.44,-7.17,-5.24,-7.10,-5.17,5.25,5.25,5.18,-1.92,-1.85,-1.93
213.56,-7.10,-5.16,-6.97,-5.03,5.16,5.19,5.14,-1.94,-1.82,-1.94
215.69,-6.69,-4.73,-6.99,-5.03,5.05,5.14,5.09,-1.63,-1.94,-1.96
217.85,-7.02,-5.05,-7.01,-5.03,4.97,5.09,5.05,-2.05,-2.03,-1.97
220.03,-7.27,-5.27,-6.93,-4.93,4.93,5.03,5.01,-2.34,-2.00,-2.00
222.23,-6.78,-4.77,-6.86,-4.85,4.91,4.98,4.97,-1.87,-1.95,-2.01
224.45,-6.51,-4.49,-6.76,-4.74,4.89,4.93,4.93,-1.62,-1.87,-2.02
226.70,-6.80,-4.77,-6.81,-4.79,4.84,4.88,4.89,-1.96,-1.97,-2.03
228.96,-7.10,-5.07,-6.94,-4.91,4.77,4.83,4.85,-2.33,-2.17,-2.03
231.25,-7.10,-5.07,-6.95,-4.92,4.70,4.78,4.81,-2.40,-2.26,-2.03
233.57,-6.61,-4.57,-6.83,-4.80,4.64,4.73,4.77,-1.97,-2.20,-2.04
235.90,-6.59,-4.55,-6.55,-4.52,4.59,4.68,4.73,-2.00,-1.97,-2.04
238.26,-6.52,-4.48,-6.32,-4.29,4.52,4.63,4.69,-2.00,-1.80,-2.04
240.64,-6.04,-4.02,-6.25,-4.22,4.42,4.59,4.65,-1.61,-1.82,-2.02
243.05,-6.22,-4.20,-6.35,-4.33,4.31,4.54,4.60,-1.91,-2.04,-2.02
245.48,-6.48,-4.46,-6.41,-4.39,4.21,4.49,4.56,-2.27,-2.20,-2.02
247.93,-6.72,-4.70,-6.34,-4.33,4.14,4.45,4.51,-2.58,-2.20,-2.02
250.41,-5.94,-3.94,-6.12,-4.12,4.10,4.40,4.47,-1.84,-2.02,-2.00
252.92,-5.65,-3.66,-5.92,-3.92,4.08,4.36,4.42,-1.57,-1.84,-1.99
255.45,-5.98,-3.98,-5.84,-3.85,4.05,4.31,4.37,-1.93,-1.79,-2.00
258.00,-6.05,-4.06,-5.98,-3.99,4.00,4.27,4.33,-2.05,-1.98,-1.99
260.58,-6.04,-4.05,-6.05,-4.06,3.95,4.23,4.28,-2.09,-2.10,-1.99
263.19,-5.97,-3.98,-5.97,-3.98,3.91,4.18,4.23,-2.06,-2.06,-1.99
265.82,-5.90,-3.90,-5.91,-3.92,3.89,4.14,4.18,-2.01,-2.02,-2.00
268.48,-5.86,-3.86,-5.87,-3.87,3.88,4.10,4.12,-1.98,-1.99,-2.00
271.16,-5.85,-3.84,-5.84,-3.83,3.85,4.06,4.07,-2.00,-1.99,-2.01
273.87,-5.81,-3.80,-5.80,-3.79,3.80,4.02,4.02,-2.01,-2.00,-2.01
276.61,-5.77,-3.75,-5.76,-3.74,3.73,3.98,3.97,-2.03,-2.03,-2.02
279.38,-5.70,-3.66,-5.71,-3.68,3.68,3.94,3.91,-2.02,-2.03,-2.04
282.17,-5.66,-3.63,-5.65,-3.62,3.63,3.90,3.86,-2.03,-2.02,-2.03
284.99,-5.60,-3.57,-5.60,-3.57,3.58,3.86,3.81,-2.02,-2.02,-2.03
287.84,-5.54,-3.52,-5.55,-3.53,3.53,3.82,3.75,-2.01,-2.02,-2.02
290.72,-5.53,-3.50,-5.49,-3.47,3.48,3.78,3.70,-2.05,-2.02,-2.03
293.63,-5.42,-3.40,-5.45,-3.43,3.42,3.74,3.65,-2.00,-2.03,-2.02
296.57,-5.40,-3.39,-5.40,-3.39,3.37,3.71,3.60,-2.03,-2.03,-2.01
299.53,-5.36,-3.35,-5.34,-3.33,3.33,3.67,3.54,-2.03,-2.01,-2.01
302.53,-5.29,-3.29,-5.28,-3.28,3.28,3.63,3.49,-2.00,-2.00,-2.00
305.55,-5.20,-3.20,-5.21,-3.22,3.24,3.60,3.44,-1.95,-1.97,-2.00
308.61,-5.16,-3.17,-5.17,-3.17,3.20,3.56,3.40,-1.96,-1.97,-1.99
311.69,-5.15,-3.15,-5.15,-3.16,3.16,3.53,3.35,-1.99,-1.99,-2.00
314.81,-5.15,-3.16,-5.14,-3.15,3.12,3.49,3.30,-2.02,-2.02,-1.99
317.96,-5.13,-3.13,-5.11,-3.12,3.10,3.46,3.26,-2.03,-2.02,-2.00
321.14,-5.06,-3.07,-5.06,-3.07,3.07,3.43,3.21,-1.99,-1.99,-1.99
324.35,-5.00,-3.01,-5.00,-3.02,3.03,3.39,3.17,-1.97,-1.97,-1.99
327.59,-4.95,-2.97,-4.96,-2.98,2.99,3.36,3.13,-1.96,-1.97,-1.98
330.87,-4.95,-2.97,-4.94,-2.96,2.95,3.33,3.09,-1.99,-1.99,-1.98
334.18,-4.95,-2.96,-4.97,-2.99,2.94,3.30,3.05,-2.01,-2.04,-1.99
337.52,-4.95,-2.97,-4.92,-2.94,2.94,3.26,3.02,-2.01,-1.98,-1.98
340.90,-4.95,-2.97,-4.80,-2.83,2.94,3.23,2.98,-2.01,-1.87,-1.98
344.30,-4.62,-2.65,-4.81,-2.84,2.94,3.20,2.95,-1.68,-1.87,-1.97
347.75,-4.77,-2.81,-4.89,-2.93,2.93,3.17,2.92,-1.83,-1.96,-1.96
351.23,-5.19,-3.22,-4.96,-3.01,2.93,3.14,2.89,-2.26,-2.04,-1.97
354.74,-5.08,-3.13,-5.01,-3.06,2.90,3.11,2.86,-2.17,-2.11,-1.95
358.28,-4.80,-2.85,-4.92,-2.97,2.88,3.08,2.83,-1.92,-2.04,-1.95
361.87,-4.74,-2.80,-4.76,-2.82,2.86,3.05,2.81,-1.88,-1.90,-1.94
365.49,-4.73,-2.80,-4.70,-2.78,2.86,3.02,2.78,-1.87,-1.85,-1.93
