frequency,raw,error,smoothed,error_smoothed,equalization,parametric_eq,fixed_band_eq,equalized_raw,equalized_smoothed,target
20.00,3.78,-8.08,3.74,-8.13,8.13,7.55,2.05,11.91,11.87,11.87
20.20,3.86,-8.00,3.84,-8.03,8.03,7.57,2.12,11.89,11.87,11.87
20.40,3.94,-7.92,3.94,-7.93,7.93,7.58,2.18,11.87,11.86,11.86
20.61,4.02,-7.84,4.04,-7.83,7.83,7.59,2.25,11.85,11.86,11.86
20.81,4.10,-7.75,4.13,-7.73,7.73,7.58,2.32,11.83,11.86,11.85
21.02,4.19,-7.66,4.23,-7.63,7.63,7.57,2.39,11.82,11.86,11.85
21.23,4.28,-7.57,4.32,-7.53,7.53,7.55,2.46,11.81,11.85,11.85
21.44,4.38,-7.48,4.42,-7.43,7.43,7.52,2.54,11.82,11.85,11.86
21.66,4.49,-7.36,4.51,-7.33,7.33,7.49,2.62,11.83,11.85,11.85
21.87,4.60,-7.24,4.60,-7.24,7.24,7.44,2.70,11.84,11.84,11.85
22.09,4.70,-7.13,4.69,-7.14,7.14,7.39,2.78,11.85,11.84,11.84
22.31,4.81,-7.02,4.78,-7.05,7.05,7.33,2.86,11.86,11.83,11.84
22.54,4.90,-6.92,4.88,-6.95,6.95,7.26,2.95,11.85,11.83,11.83
22.76,4.99,-6.83,4.97,-6.86,6.86,7.19,3.04,11.85,11.82,11.82
22.99,5.07,-6.75,5.06,-6.76,6.76,7.11,3.13,11.83,11.82,11.82
23.22,5.15,-6.66,5.14,-6.67,6.67,7.02,3.22,11.82,11.81,11.81
23.45,5.23,-6.58,5.23,-6.58,6.58,6.93,3.32,11.81,11.81,11.81
23.69,5.30,-6.50,5.31,-6.49,6.49,6.83,3.42,11.79,11.80,11.80
23.92,5.38,-6.40,5.39,-6.40,6.40,6.73,3.52,11.78,11.79,11.79
24.16,5.46,-6.32,5.48,-6.32,6.32,6.62,3.62,11.78,11.79,11.79
24.40,5.53,-6.25,5.56,-6.23,6.23,6.51,3.72,11.76,11.79,11.78
24.65,5.62,-6.16,5.64,-6.14,6.14,6.40,3.83,11.77,11.78,11.78
24.89,5.71,-6.07,5.72,-6.06,6.06,6.28,3.93,11.77,11.78,11.78
25.14,5.80,-5.98,5.80,-5.97,5.97,6.16,4.04,11.78,11.78,11.78
25.39,5.89,-5.87,5.89,-5.88,5.88,6.04,4.15,11.78,11.77,11.77
25.65,5.98,-5.78,5.97,-5.80,5.80,5.92,4.26,11.78,11.77,11.77
25.91,6.07,-5.69,6.06,-5.71,5.71,5.80,4.36,11.78,11.77,11.76
26.16,6.15,-5.62,6.15,-5.62,5.62,5.67,4.47,11.78,11.77,11.77
26.43,6.24,-5.53,6.23,-5.54,5.54,5.55,4.58,11.78,11.77,11.77
26.69,6.33,-5.43,6.32,-5.45,5.45,5.42,4.68,11.78,11.77,11.77
26.96,6.41,-5.35,6.41,-5.36,5.36,5.29,4.78,11.77,11.77,11.77
27.23,6.49,-5.27,6.50,-5.27,5.27,5.16,4.88,11.76,11.76,11.76
27.50,6.57,-5.19,6.58,-5.18,5.18,5.04,4.98,11.75,11.76,11.76
27.77,6.66,-5.10,6.67,-5.09,5.09,4.91,5.07,11.75,11.76,11.77
28.05,6.76,-4.99,6.76,-4.99,4.99,4.78,5.16,11.75,11.75,11.76
28.33,6.84,-4.91,6.86,-4.89,4.89,4.66,5.24,11.74,11.75,11.75
28.62,6.94,-4.80,6.95,-4.79,4.79,4.53,5.31,11.73,11.74,11.74
28.90,7.04,-4.70,7.05,-4.69,4.69,4.41,5.37,11.73,11.74,11.75
29.19,7.14,-4.59,7.15,-4.59,4.59,4.28,5.43,11.73,11.73,11.73
29.48,7.24,-4.48,7.25,-4.48,4.48,4.16,5.48,11.72,11.73,11.72
29.78,7.35,-4.37,7.35,-4.37,4.37,4.04,5.52,11.72,11.72,11.72
30.08,7.45,-4.26,7.45,-4.26,4.26,3.92,5.55,11.71,11.71,11.71
30.38,7.56,-4.14,7.56,-4.15,4.15,3.80,5.56,11.71,11.71,11.70
30.68,7.66,-4.03,7.66,-4.04,4.04,3.68,5.57,11.70,11.70,11.70
30.99,7.77,-3.92,7.77,-3.93,3.93,3.56,5.56,11.70,11.70,11.69
31.30,7.87,-3.82,7.87,-3.82,3.82,3.45,5.55,11.69,11.69,11.69
31.61,7.97,-3.71,7.98,-3.71,3.71,3.33,5.52,11.69,11.69,11.68
31.93,8.08,-3.60,8.08,-3.60,3.60,3.22,5.48,11.69,11.69,11.68
32.24,8.18,-3.50,8.19,-3.50,3.50,3.11,5.42,11.68,11.68,11.69
32.57,8.29,-3.38,8.29,-3.39,3.39,3.00,5.36,11.68,11.68,11.67
32.89,8.39,-3.28,8.39,-3.28,3.28,2.89,5.28,11.67,11.67,11.68
33.22,8.49,-3.18,8.50,-3.17,3.17,2.78,5.20,11.66,11.67,11.67
33.55,8.59,-3.07,8.60,-3.06,3.06,2.68,5.10,11.65,11.66,11.67
33.89,8.70,-2.95,8.70,-2.95,2.95,2.57,5.00,11.65,11.65,11.65
34.23,8.80,-2.83,8.80,-2.84,2.84,2.47,4.89,11.64,11.64,11.63
34.57,8.90,-2.73,8.90,-2.72,2.72,2.37,4.77,11.63,11.62,11.63
34.92,8.99,-2.61,8.99,-2.61,2.61,2.26,4.64,11.60,11.60,11.60
35.27,9.09,-2.50,9.09,-2.49,2.49,2.16,4.51,11.58,11.58,11.60
35.62,9.19,-2.37,9.19,-2.37,2.37,2.07,4.38,11.57,11.56,11.56
35.97,9.27,-2.27,9.28,-2.25,2.25,1.97,4.24,11.53,11.53,11.54
36.33,9.37,-2.14,9.37,-2.13,2.13,1.87,4.09,11.51,11.51,11.51
36.70,9.46,-2.02,9.47,-2.01,2.01,1.78,3.94,11.47,11.48,11.48
37.06,9.55,-1.90,9.56,-1.89,1.89,1.69,3.79,11.44,11.45,11.45
37.43,9.64,-1.77,9.65,-1.77,1.77,1.59,3.64,11.41,11.42,11.41
37.81,9.73,-1.65,9.73,-1.65,1.65,1.50,3.49,11.38,11.38,11.38
38.19,9.82,-1.52,9.82,-1.53,1.53,1.41,3.33,11.35,11.35,11.34
38.57,9.91,-1.40,9.91,-1.41,1.41,1.32,3.18,11.32,11.32,11.32
38.95,9.99,-1.29,10.00,-1.29,1.29,1.23,3.02,11.28,11.29,11.29
39.34,10.08,-1.16,10.08,-1.17,1.17,1.15,2.87,11.26,11.25,11.25
39.74,10.16,-1.05,10.16,-1.06,1.06,1.06,2.71,11.22,11.22,11.22
40.14,10.24,-0.94,10.25,-0.95,0.95,0.98,2.56,11.19,11.19,11.19
40.54,10.32,-0.84,10.33,-0.83,0.83,0.89,2.40,11.16,11.16,11.16
40.94,10.40,-0.73,10.41,-0.73,0.73,0.81,2.25,11.13,11.13,11.13
41.35,10.48,-0.62,10.48,-0.62,0.62,0.72,2.09,11.11,11.11,11.10
41.76,10.56,-0.51,10.56,-0.52,0.52,0.64,1.94,11.08,11.08,11.07
42.18,10.63,-0.42,10.63,-0.42,0.42,0.56,1.79,11.05,11.05,11.06
42.60,10.70,-0.32,10.70,-0.32,0.32,0.48,1.64,11.02,11.02,11.02
43.03,10.77,-0.22,10.77,-0.23,0.23,0.40,1.49,11.00,11.00,10.99
43.46,10.84,-0.12,10.84,-0.13,0.13,0.32,1.34,10.97,10.97,10.97
43.90,10.90,-0.04,10.90,-0.04,0.04,0.24,1.20,10.94,10.94,10.94
44.33,10.96,0.06,10.97,0.06,-0.06,0.17,1.05,10.91,10.91,10.91
44.78,11.02,0.14,11.03,0.15,-0.15,0.09,0.91,10.88,10.88,10.88
45.23,11.08,0.22,11.08,0.24,-0.24,0.01,0.76,10.85,10.85,10.87
45.68,11.14,0.32,11.14,0.32,-0.32,-0.06,0.62,10.82,10.81,10.82
46.13,11.19,0.42,11.19,0.41,-0.41,-0.14,0.48,10.78,10.78,10.77
46.60,11.24,0.50,11.24,0.50,-0.50,-0.21,0.34,10.74,10.74,10.74
47.06,11.29,0.59,11.29,0.59,-0.59,-0.29,0.20,10.70,10.70,10.70
47.53,11.33,0.67,11.33,0.68,-0.68,-0.36,0.06,10.65,10.65,10.67
48.01,11.37,0.77,11.37,0.77,-0.77,-0.43,-0.08,10.61,10.61,10.61
48.49,11.41,0.85,11.41,0.85,-0.85,-0.51,-0.22,10.56,10.56,10.56
48.97,11.45,0.94,11.45,0.94,-0.94,-0.58,-0.35,10.51,10.51,10.51
49.46,11.48,1.01,11.49,1.02,-1.02,-0.65,-0.49,10.46,10.46,10.47
49.96,11.52,1.12,11.52,1.10,-1.10,-0.72,-0.62,10.42,10.41,10.40
50.46,11.54,1.19,11.55,1.19,-1.19,-0.80,-0.76,10.36,10.36,10.36
50.96,11.57,1.27,11.58,1.27,-1.27,-0.87,-0.89,10.31,10.31,10.30
51.47,11.60,1.35,11.60,1.35,-1.35,-0.94,-1.02,10.26,10.26,10.26
51.99,11.63,1.43,11.63,1.42,-1.42,-1.01,-1.15,10.21,10.21,10.20
52.51,11.65,1.50,11.65,1.50,-1.50,-1.08,-1.27,10.15,10.15,10.15
53.03,11.67,1.56,11.67,1.57,-1.57,-1.15,-1.40,10.10,10.10,10.11
53.56,11.68,1.63,11.69,1.64,-1.64,-1.22,-1.52,10.04,10.05,10.06
54.10,11.71,1.72,11.71,1.71,-1.71,-1.29,-1.64,10.00,10.00,10.00
54.64,11.72,1.78,11.72,1.78,-1.78,-1.36,-1.76,9.94,9.95,9.95
55.18,11.74,1.86,11.74,1.84,-1.84,-1.43,-1.88,9.90,9.90,9.88
55.74,11.75,1.92,11.75,1.90,-1.90,-1.50,-2.00,9.85,9.85,9.83
56.29,11.76,1.97,11.76,1.96,-1.96,-1.57,-2.11,9.80,9.80,9.79
56.86,11.76,2.02,11.77,2.02,-2.02,-1.64,-2.22,9.74,9.75,9.74
57.42,11.77,2.09,11.78,2.08,-2.08,-1.71,-2.32,9.69,9.69,9.68
58.00,11.78,2.15,11.78,2.14,-2.14,-1.78,-2.42,9.64,9.64,9.63
58.58,11.79,2.20,11.79,2.20,-2.20,-1.85,-2.52,9.59,9.58,9.59
59.16,11.78,2.24,11.79,2.26,-2.26,-1.92,-2.62,9.52,9.52,9.55
59.76,11.79,2.30,11.79,2.32,-2.32,-1.99,-2.71,9.47,9.47,9.50
60.35,11.78,2.36,11.79,2.38,-2.38,-2.06,-2.79,9.40,9.41,9.42
60.96,11.79,2.43,11.79,2.44,-2.44,-2.12,-2.88,9.35,9.34,9.36
61.57,11.78,2.50,11.78,2.50,-2.50,-2.19,-2.95,9.28,9.28,9.28
62.18,11.77,2.57,11.78,2.56,-2.56,-2.26,-3.03,9.21,9.22,9.20
62.80,11.77,2.63,11.77,2.62,-2.62,-2.33,-3.10,9.15,9.15,9.14
63.43,11.76,2.70,11.76,2.68,-2.68,-2.40,-3.17,9.08,9.09,9.06
64.07,11.75,2.75,11.75,2.74,-2.74,-2.47,-3.23,9.02,9.02,9.00
64.71,11.75,2.81,11.74,2.79,-2.79,-2.54,-3.29,8.96,8.95,8.94
65.35,11.73,2.85,11.73,2.85,-2.85,-2.61,-3.34,8.88,8.89,8.88
66.01,11.72,2.90,11.72,2.90,-2.90,-2.68,-3.39,8.82,8.82,8.82
66.67,11.71,2.95,11.71,2.96,-2.96,-2.75,-3.44,8.76,8.76,8.77
67.33,11.69,3.00,11.70,3.01,-3.01,-2.82,-3.49,8.68,8.69,8.69
68.01,11.68,3.06,11.69,3.06,-3.06,-2.89,-3.53,8.62,8.63,8.63
68.69,11.67,3.11,11.67,3.11,-3.11,-2.96,-3.57,8.56,8.56,8.56
69.37,11.66,3.16,11.66,3.16,-3.16,-3.03,-3.61,8.50,8.50,8.50
70.07,11.64,3.20,11.65,3.22,-3.22,-3.10,-3.64,8.43,8.43,8.44
70.77,11.63,3.26,11.63,3.27,-3.27,-3.18,-3.68,8.36,8.36,8.37
71.48,11.62,3.32,11.62,3.32,-3.32,-3.25,-3.72,8.30,8.29,8.30
72.19,11.60,3.38,11.61,3.38,-3.38,-3.32,-3.75,8.22,8.23,8.22
72.91,11.59,3.43,11.59,3.43,-3.43,-3.39,-3.78,8.16,8.16,8.16
73.64,11.58,3.50,11.58,3.49,-3.49,-3.46,-3.82,8.09,8.09,8.08
74.38,11.56,3.55,11.57,3.54,-3.54,-3.53,-3.85,8.02,8.02,8.02
75.12,11.55,3.61,11.56,3.60,-3.60,-3.61,-3.89,7.96,7.96,7.95
75.87,11.54,3.65,11.54,3.65,-3.65,-3.68,-3.92,7.89,7.89,7.90
76.63,11.53,3.71,11.53,3.70,-3.70,-3.75,-3.96,7.83,7.83,7.83
77.40,11.52,3.76,11.52,3.76,-3.76,-3.82,-4.00,7.76,7.76,7.76
78.17,11.51,3.82,11.51,3.81,-3.81,-3.90,-4.04,7.70,7.70,7.69
78.95,11.50,3.86,11.50,3.87,-3.87,-3.97,-4.08,7.64,7.64,7.64
79.74,11.49,3.92,11.49,3.92,-3.92,-4.05,-4.13,7.57,7.57,7.58
80.54,11.48,3.97,11.49,3.98,-3.98,-4.12,-4.18,7.51,7.51,7.51
81.35,11.48,4.03,11.48,4.03,-4.03,-4.19,-4.23,7.45,7.45,7.45
82.16,11.47,4.08,11.47,4.09,-4.09,-4.27,-4.28,7.39,7.39,7.39
82.98,11.46,4.14,11.47,4.15,-4.15,-4.34,-4.34,7.32,7.32,7.32
83.81,11.46,4.20,11.46,4.20,-4.20,-4.42,-4.40,7.26,7.26,7.26
84.65,11.46,4.28,11.46,4.26,-4.26,-4.49,-4.46,7.20,7.19,7.19
85.50,11.45,4.33,11.45,4.32,-4.32,-4.57,-4.52,7.13,7.13,7.12
86.35,11.45,4.39,11.45,4.39,-4.39,-4.65,-4.59,7.07,7.07,7.07
87.22,11.44,4.44,11.45,4.45,-4.45,-4.72,-4.66,6.99,7.00,7.00
88.09,11.45,4.52,11.45,4.52,-4.52,-4.80,-4.74,6.94,6.93,6.93
88.97,11.44,4.58,11.45,4.58,-4.58,-4.88,-4.82,6.86,6.87,6.87
89.86,11.45,4.66,11.45,4.65,-4.65,-4.96,-4.90,6.80,6.80,6.80
90.76,11.45,4.72,11.45,4.72,-4.72,-5.03,-4.98,6.73,6.73,6.73
91.66,11.45,4.79,11.45,4.80,-4.80,-5.11,-5.07,6.65,6.66,6.66
92.58,11.45,4.87,11.46,4.88,-4.88,-5.19,-5.16,6.58,6.58,6.59
93.51,11.46,4.95,11.46,4.95,-4.95,-5.27,-5.26,6.51,6.51,6.52
94.44,11.47,5.03,11.47,5.04,-5.04,-5.35,-5.36,6.44,6.43,6.44
95.39,11.47,5.11,11.47,5.12,-5.12,-5.43,-5.46,6.35,6.35,6.36
96.34,11.48,5.20,11.48,5.20,-5.20,-5.51,-5.57,6.28,6.28,6.28
97.30,11.48,5.28,11.49,5.29,-5.29,-5.59,-5.68,6.19,6.20,6.21
98.28,11.50,5.39,11.50,5.38,-5.38,-5.67,-5.79,6.13,6.12,6.11
99.26,11.50,5.48,11.51,5.47,-5.47,-5.75,-5.90,6.04,6.04,6.03
100.25,11.52,5.57,11.52,5.55,-5.55,-5.83,-6.02,5.97,5.96,5.95
101.25,11.52,5.65,11.53,5.64,-5.64,-5.91,-6.14,5.88,5.89,5.88
102.27,11.53,5.73,11.54,5.73,-5.73,-6.00,-6.26,5.80,5.81,5.80
103.29,11.55,5.83,11.55,5.82,-5.82,-6.08,-6.38,5.74,5.73,5.73
104.32,11.56,5.90,11.56,5.90,-5.90,-6.16,-6.51,5.66,5.66,5.66
105.37,11.57,5.99,11.58,5.99,-5.99,-6.24,-6.63,5.58,5.59,5.59
106.42,11.59,6.07,11.59,6.07,-6.07,-6.33,-6.76,5.52,5.52,5.52
107.48,11.60,6.17,11.61,6.16,-6.16,-6.41,-6.88,5.44,5.44,5.44
108.56,11.62,6.25,11.62,6.25,-6.25,-6.50,-7.01,5.37,5.37,5.37
109.64,11.63,6.33,11.64,6.34,-6.34,-6.58,-7.13,5.29,5.30,5.30
110.74,11.65,6.42,11.65,6.43,-6.43,-6.67,-7.25,5.22,5.22,5.23
111.85,11.67,6.52,11.67,6.52,-6.52,-6.75,-7.37,5.15,5.15,5.16
112.97,11.69,6.61,11.69,6.62,-6.62,-6.84,-7.49,5.08,5.07,5.08
114.10,11.71,6.71,11.71,6.71,-6.71,-6.92,-7.60,5.00,5.00,5.01
115.24,11.72,6.80,11.72,6.81,-6.81,-7.01,-7.71,4.92,4.92,4.92
116.39,11.74,6.91,11.74,6.90,-6.90,-7.09,-7.81,4.84,4.84,4.83
117.55,11.76,7.01,11.76,7.01,-7.01,-7.18,-7.91,4.76,4.76,4.76
118.73,11.78,7.12,11.78,7.11,-7.11,-7.27,-8.00,4.68,4.68,4.67
119.92,11.79,7.21,11.80,7.21,-7.21,-7.35,-8.09,4.58,4.59,4.58
121.12,11.82,7.31,11.83,7.32,-7.32,-7.44,-8.17,4.50,4.51,4.51
122.33,11.84,7.42,11.85,7.43,-7.43,-7.53,-8.24,4.42,4.42,4.42
123.55,11.87,7.53,11.87,7.54,-7.54,-7.62,-8.31,4.34,4.34,4.34
124.79,11.89,7.63,11.89,7.64,-7.64,-7.71,-8.37,4.25,4.25,4.26
126.03,11.91,7.74,11.92,7.75,-7.75,-7.79,-8.42,4.16,4.16,4.18
127.29,11.94,7.86,11.94,7.86,-7.86,-7.88,-8.46,4.08,4.08,4.08
128.57,11.97,7.98,11.96,7.97,-7.97,-7.97,-8.50,4.00,4.00,3.99
129.85,11.99,8.08,11.99,8.08,-8.08,-8.06,-8.53,3.92,3.91,3.91
131.15,12.01,8.19,12.01,8.18,-8.18,-8.15,-8.55,3.83,3.83,3.82
132.46,12.03,8.29,12.04,8.28,-8.28,-8.24,-8.57,3.75,3.75,3.74
133.79,12.06,8.39,12.06,8.39,-8.39,-8.33,-8.58,3.68,3.68,3.67
135.12,12.08,8.50,12.08,8.48,-8.48,-8.42,-8.58,3.60,3.60,3.59
136.48,12.10,8.58,12.11,8.58,-8.58,-8.51,-8.59,3.52,3.53,3.53
137.84,12.13,8.67,12.13,8.67,-8.67,-8.60,-8.58,3.46,3.46,3.46
139.22,12.15,8.77,12.15,8.76,-8.76,-8.69,-8.58,3.39,3.39,3.38
140.61,12.17,8.85,12.17,8.85,-8.85,-8.77,-8.57,3.32,3.32,3.32
142.02,12.19,8.93,12.19,8.94,-8.94,-8.86,-8.56,3.26,3.26,3.26
143.44,12.22,9.03,12.22,9.02,-9.02,-8.95,-8.55,3.20,3.20,3.19
144.87,12.23,9.09,12.24,9.10,-9.10,-9.04,-8.54,3.13,3.14,3.14
146.32,12.25,9.17,12.26,9.18,-9.18,-9.13,-8.53,3.07,3.08,3.08
147.78,12.28,9.26,12.28,9.26,-9.26,-9.22,-8.52,3.02,3.02,3.02
149.26,12.30,9.34,12.30,9.34,-9.34,-9.31,-8.51,2.96,2.96,2.96
150.75,12.31,9.42,12.32,9.42,-9.42,-9.40,-8.51,2.89,2.90,2.89
152.26,12.33,9.49,12.34,9.50,-9.50,-9.48,-8.50,2.84,2.84,2.85
153.78,12.35,9.57,12.35,9.57,-9.57,-9.57,-8.50,2.78,2.78,2.78
155.32,12.37,9.65,12.37,9.65,-9.65,-9.66,-8.51,2.72,2.72,2.73
156.88,12.38,9.72,12.39,9.73,-9.73,-9.74,-8.51,2.65,2.66,2.66
158.44,12.41,9.81,12.41,9.81,-9.81,-9.83,-8.52,2.61,2.60,2.60
160.03,12.43,9.89,12.42,9.89,-9.89,-9.91,-8.54,2.55,2.54,2.54
161.63,12.44,9.96,12.44,9.97,-9.97,-10.00,-8.56,2.48,2.47,2.48
163.24,12.45,10.05,12.46,10.04,-10.04,-10.08,-8.58,2.41,2.41,2.41
164.88,12.47,10.12,12.47,10.12,-10.12,-10.16,-8.61,2.35,2.35,2.35
166.53,12.49,10.21,12.49,10.20,-10.20,-10.24,-8.65,2.29,2.29,2.28
168.19,12.50,10.27,12.51,10.28,-10.28,-10.32,-8.69,2.22,2.23,2.23
169.87,12.52,10.36,12.53,10.37,-10.37,-10.40,-8.74,2.16,2.16,2.17
171.57,12.54,10.45,12.55,10.45,-10.45,-10.48,-8.79,2.10,2.10,2.10
173.29,12.57,10.54,12.57,10.53,-10.53,-10.56,-8.85,2.05,2.04,2.04
175.02,12.58,10.60,12.59,10.61,-10.61,-10.63,-8.92,1.98,1.98,1.98
176.77,12.60,10.68,12.61,10.68,-10.68,-10.71,-8.99,1.92,1.92,1.92
178.54,12.62,10.76,12.63,10.76,-10.76,-10.78,-9.07,1.86,1.86,1.87
180.32,12.65,10.85,12.65,10.84,-10.84,-10.85,-9.15,1.81,1.80,1.80
182.13,12.66,10.92,12.67,10.92,-10.92,-10.92,-9.24,1.74,1.75,1.75
183.95,12.68,10.99,12.68,11.00,-11.00,-10.98,-9.34,1.69,1.69,1.69
185.79,12.70,11.07,12.70,11.07,-11.07,-11.05,-9.44,1.63,1.63,1.63
187.65,12.72,11.14,12.72,11.15,-11.15,-11.11,-9.55,1.58,1.57,1.58
189.52,12.73,11.21,12.73,11.22,-11.22,-11.17,-9.67,1.52,1.52,1.52
191.42,12.74,11.28,12.75,11.28,-11.28,-11.22,-9.79,1.46,1.46,1.47
193.33,12.76,11.35,12.76,11.34,-11.34,-11.28,-9.92,1.42,1.41,1.41
195.27,12.76,11.41,12.76,11.41,-11.41,-11.33,-10.06,1.36,1.36,1.35
197.22,12.77,11.47,12.77,11.46,-11.46,-11.38,-10.20,1.31,1.31,1.30
199.19,12.77,11.52,12.77,11.51,-11.51,-11.42,-10.35,1.26,1.26,1.25
201.18,12.77,11.57,12.77,11.56,-11.56,-11.47,-10.50,1.21,1.21,1.20
203.19,12.77,11.61,12.77,11.61,-11.61,-11.51,-10.66,1.17,1.16,1.16
205.23,12.76,11.64,12.76,11.65,-11.65,-11.54,-10.83,1.12,1.12,1.12
207.28,12.75,11.67,12.75,11.68,-11.68,-11.57,-10.99,1.07,1.07,1.08
209.35,12.73,11.70,12.74,11.71,-11.71,-11.60,-11.17,1.02,1.03,1.03
211.44,12.72,11.73,12.73,11.74,-11.74,-11.63,-11.34,0.98,0.99,0.99
213.56,12.71,11.77,12.71,11.76,-11.76,-11.65,-11.52,0.95,0.95,0.95
215.69,12.68,11.77,12.69,11.78,-11.78,-11.66,-11.69,0.90,0.91,0.91
217.85,12.66,11.79,12.66,11.79,-11.79,-11.67,-11.87,0.87,0.87,0.87
220.03,12.63,11.80,12.63,11.80,-11.80,-11.68,-12.05,0.84,0.84,0.83
222.23,12.60,11.81,12.60,11.80,-11.80,-11.69,-12.22,0.80,0.80,0.80
224.45,12.56,11.80,12.56,11.80,-11.80,-11.69,-12.39,0.76,0.77,0.76
226.70,12.52,11.79,12.52,11.79,-11.79,-11.68,-12.55,0.73,0.73,0.73
228.96,12.48,11.77,12.48,11.78,-11.78,-11.67,-12.71,0.70,0.70,0.71
231.25,12.43,11.76,12.43,11.76,-11.76,-11.66,-12.85,0.67,0.67,0.68
233.57,12.37,11.73,12.37,11.73,-11.73,-11.64,-12.97,0.64,0.64,0.65
235.90,12.31,11.70,12.31,11.70,-11.70,-11.61,-13.09,0.61,0.62,0.61
238.26,12.25,11.67,12.25,11.66,-11.66,-11.59,-13.18,0.59,0.59,0.58
240.64,12.18,11.61,12.18,11.61,-11.61,-11.55,-13.25,0.57,0.57,0.57
243.05,12.11,11.57,12.11,11.56,-11.56,-11.52,-13.30,0.55,0.54,0.54
245.48,12.03,11.52,12.03,11.51,-11.51,-11.47,-13.33,0.53,0.52,0.52
247.93,11.94,11.45,11.94,11.44,-11.44,-11.43,-13.33,0.50,0.50,0.49
250.41,11.86,11.38,11.86,11.37,-11.37,-11.38,-13.30,0.49,0.48,0.48
252.92,11.76,11.29,11.77,11.30,-11.30,-11.32,-13.25,0.46,0.46,0.47
255.45,11.66,11.22,11.67,11.23,-11.23,-11.26,-13.17,0.44,0.44,0.45
258.00,11.57,11.14,11.57,11.15,-11.15,-11.19,-13.06,0.43,0.43,0.43
260.58,11.47,11.06,11.47,11.06,-11.06,-11.12,-12.93,0.41,0.41,0.42
263.19,11.36,10.97,11.36,10.97,-10.97,-11.05,-12.78,0.39,0.40,0.39
265.82,11.26,10.88,11.26,10.88,-10.88,-10.97,-12.60,0.39,0.38,0.38
268.48,11.14,10.77,11.15,10.78,-10.78,-10.89,-12.41,0.36,0.36,0.37
271.16,11.03,10.69,11.03,10.69,-10.69,-10.80,-12.21,0.35,0.35,0.35
273.87,10.91,10.58,10.92,10.59,-10.59,-10.71,-11.98,0.33,0.33,0.34
276.61,10.80,10.49,10.80,10.48,-10.48,-10.62,-11.75,0.32,0.32,0.31
279.38,10.68,10.39,10.68,10.38,-10.38,-10.52,-11.51,0.30,0.30,0.29
282.17,10.56,10.28,10.56,10.27,-10.27,-10.42,-11.26,0.29,0.29,0.28
284.99,10.44,10.16,10.44,10.16,-10.16,-10.32,-11.01,0.28,0.28,0.28
287.84,10.31,10.04,10.32,10.05,-10.05,-10.21,-10.76,0.26,0.27,0.27
290.72,10.19,9.95,10.19,9.94,-9.94,-10.10,-10.50,0.26,0.26,0.25
293.63,10.07,9.83,10.07,9.82,-9.82,-9.98,-10.24,0.25,0.25,0.25
296.57,9.94,9.70,9.94,9.70,-9.70,-9.86,-9.98,0.24,0.24,0.24
299.53,9.81,9.58,9.81,9.58,-9.58,-9.74,-9.72,0.23,0.23,0.23
302.53,9.67,9.45,9.68,9.46,-9.46,-9.62,-9.47,0.21,0.22,0.22
305.55,9.55,9.34,9.55,9.33,-9.33,-9.49,-9.21,0.22,0.21,0.22
308.61,9.41,9.21,9.42,9.21,-9.21,-9.37,-8.96,0.21,0.21,0.21
311.69,9.28,9.08,9.28,9.08,-9.08,-9.23,-8.71,0.20,0.20,0.20
314.81,9.15,8.96,9.15,8.95,-8.95,-9.10,-8.47,0.20,0.20,0.19
317.96,9.00,8.82,9.01,8.82,-8.82,-8.97,-8.23,0.18,0.19,0.19
321.14,8.87,8.68,8.87,8.69,-8.69,-8.83,-8.00,0.19,0.19,0.19
324.35,8.73,8.56,8.73,8.55,-8.55,-8.69,-7.76,0.18,0.18,0.18
327.59,8.59,8.40,8.60,8.42,-8.42,-8.55,-7.54,0.18,0.18,0.19
330.87,8.45,8.27,8.46,8.28,-8.28,-8.40,-7.31,0.17,0.18,0.18
334.18,8.32,8.15,8.32,8.14,-8.14,-8.26,-7.10,0.18,0.18,0.17
337.52,8.17,8.00,8.18,8.00,-8.00,-8.11,-6.88,0.17,0.17,0.17
340.90,8.04,7.87,8.04,7.86,-7.86,-7.96,-6.67,0.18,0.17,0.17
344.30,7.89,7.72,7.90,7.72,-7.72,-7.81,-6.47,0.17,0.17,0.17
347.75,7.75,7.57,7.76,7.58,-7.58,-7.65,-6.27,0.17,0.17,0.18
351.23,7.62,7.46,7.62,7.44,-7.44,-7.50,-6.07,0.18,0.17,0.16
354.74,7.47,7.29,7.47,7.30,-7.30,-7.34,-5.88,0.17,0.17,0.18
358.28,7.33,7.17,7.33,7.16,-7.16,-7.19,-5.69,0.17,0.17,0.17
361.87,7.19,7.02,7.19,7.02,-7.02,-7.03,-5.50,0.17,0.17,0.17
365.49,7.04,6.87,7.05,6.88,-6.88,-6.87,-5.32,0.16,0.17,0.17
369.14,6.90,6.73,6.90,6.73,-6.73,-6.71,-5.14,0.17,0.17,0.17
372.83,6.76,6.59,6.76,6.59,-6.59,-6.55,-4.97,0.17,0.17,0.17
376.56,6.61,6.44,6.62,6.45,-6.45,-6.38,-4.80,0.17,0.17,0.17
380.33,6.47,6.31,6.47,6.30,-6.30,-6.22,-4.63,0.17,0.17,0.16
384.13,6.32,6.16,6.33,6.16,-6.16,-6.05,-4.46,0.16,0.17,0.16
387.97,6.18,6.01,6.18,6.01,-6.01,-5.89,-4.30,0.17,0.17,0.17
391.85,6.03,5.87,6.03,5.87,-5.87,-5.72,-4.14,0.17,0.17,0.17
395.77,5.88,5.72,5.89,5.72,-5.72,-5.55,-3.99,0.16,0.17,0.16
399.73,5.74,5.58,5.74,5.57,-5.57,-5.38,-3.84,0.17,0.17,0.16
403.72,5.59,5.42,5.59,5.43,-5.43,-5.21,-3.69,0.16,0.16,0.17
407.76,5.44,5.28,5.45,5.28,-5.28,-5.04,-3.54,0.16,0.16,0.17
411.84,5.29,5.13,5.30,5.14,-5.14,-4.87,-3.40,0.16,0.16,0.16
415.96,5.15,4.98,5.15,4.99,-4.99,-4.70,-3.26,0.16,0.16,0.17
420.12,4.99,4.83,5.00,4.84,-4.84,-4.53,-3.12,0.15,0.16,0.16
424.32,4.85,4.70,4.85,4.69,-4.69,-4.35,-2.99,0.16,0.16,0.16
428.56,4.70,4.54,4.70,4.54,-4.54,-4.18,-2.86,0.16,0.16,0.16
432.85,4.55,4.39,4.55,4.39,-4.39,-4.01,-2.73,0.16,0.16,0.16
437.18,4.39,4.24,4.40,4.24,-4.24,-3.83,-2.60,0.15,0.15,0.15
441.55,4.24,4.09,4.24,4.09,-4.09,-3.66,-2.48,0.15,0.15,0.15
445.96,4.08,3.94,4.08,3.93,-3.93,-3.48,-2.36,0.15,0.15,0.15
450.42,3.92,3.78,3.92,3.77,-3.77,-3.31,-2.24,0.15,0.15,0.15
454.93,3.75,3.61,3.76,3.61,-3.61,-3.13,-2.13,0.14,0.15,0.14
459.48,3.59,3.45,3.59,3.45,-3.45,-2.95,-2.02,0.15,0.15,0.14
464.07,3.42,3.27,3.42,3.28,-3.28,-2.78,-1.91,0.15,0.15,0.15
468.71,3.24,3.09,3.25,3.10,-3.10,-2.60,-1.81,0.14,0.15,0.15
473.40,3.07,2.93,3.06,2.92,-2.92,-2.43,-1.70,0.15,0.15,0.15
