frequency,raw,error,smoothed,error_smoothed,equalization,parametric_eq,fixed_band_eq,equalized_raw,equalized_smoothed,target
20.00,-2.16,-3.95,-2.16,-3.98,3.98,3.78,0.69,1.83,1.82,1.80
20.20,-2.05,-3.93,-2.05,-3.95,3.95,3.80,0.72,1.90,1.90,1.89
20.40,-1.94,-3.90,-1.94,-3.91,3.91,3.81,0.74,1.97,1.97,1.97
20.61,-1.83,-3.86,-1.83,-3.87,3.87,3.82,0.77,2.04,2.04,2.04
20.81,-1.72,-3.84,-1.71,-3.83,3.83,3.82,0.80,2.11,2.11,2.13
21.02,-1.61,-3.81,-1.60,-3.78,3.78,3.81,0.83,2.18,2.18,2.21
21.23,-1.50,-3.76,-1.49,-3.73,3.73,3.79,0.86,2.24,2.24,2.27
21.44,-1.38,-3.71,-1.38,-3.68,3.68,3.77,0.89,2.30,2.30,2.33
21.66,-1.28,-3.65,-1.27,-3.63,3.63,3.74,0.92,2.35,2.36,2.37
21.87,-1.15,-3.58,-1.16,-3.58,3.58,3.71,0.95,2.42,2.42,2.42
22.09,-1.04,-3.52,-1.05,-3.52,3.52,3.67,0.98,2.47,2.47,2.47
22.31,-0.93,-3.46,-0.94,-3.46,3.46,3.62,1.02,2.52,2.52,2.52
22.54,-0.83,-3.39,-0.83,-3.39,3.39,3.57,1.06,2.56,2.56,2.56
22.76,-0.72,-3.32,-0.72,-3.32,3.32,3.51,1.09,2.61,2.60,2.60
22.99,-0.62,-3.25,-0.61,-3.25,3.25,3.44,1.13,2.63,2.64,2.63
23.22,-0.50,-3.17,-0.50,-3.18,3.18,3.38,1.17,2.68,2.68,2.67
23.45,-0.39,-3.09,-0.39,-3.10,3.10,3.31,1.21,2.72,2.72,2.71
23.69,-0.28,-3.03,-0.28,-3.03,3.03,3.23,1.25,2.75,2.75,2.75
23.92,-0.16,-2.95,-0.16,-2.95,2.95,3.15,1.29,2.79,2.79,2.79
24.16,-0.06,-2.89,-0.05,-2.88,2.88,3.07,1.33,2.82,2.83,2.84
24.40,0.06,-2.81,0.06,-2.80,2.80,2.99,1.37,2.86,2.86,2.87
24.65,0.16,-2.73,0.17,-2.73,2.73,2.90,1.41,2.89,2.89,2.89
24.89,0.28,-2.65,0.28,-2.65,2.65,2.81,1.45,2.92,2.93,2.92
25.14,0.39,-2.58,0.39,-2.57,2.57,2.73,1.49,2.96,2.96,2.96
25.39,0.51,-2.49,0.50,-2.49,2.49,2.64,1.54,3.00,2.99,2.99
25.65,0.61,-2.42,0.61,-2.42,2.42,2.55,1.58,3.03,3.03,3.03
25.91,0.72,-2.33,0.72,-2.34,2.34,2.46,1.62,3.06,3.06,3.05
26.16,0.84,-2.24,0.83,-2.26,2.26,2.37,1.66,3.09,3.09,3.08
26.43,0.94,-2.17,0.94,-2.18,2.18,2.28,1.70,3.12,3.12,3.12
26.69,1.04,-2.10,1.05,-2.10,2.10,2.18,1.74,3.14,3.15,3.15
26.96,1.15,-2.02,1.16,-2.02,2.02,2.09,1.77,3.17,3.18,3.17
27.23,1.26,-1.95,1.27,-1.94,1.94,2.01,1.81,3.20,3.21,3.21
27.50,1.37,-1.87,1.38,-1.86,1.86,1.92,1.84,3.23,3.24,3.24
27.77,1.49,-1.78,1.48,-1.78,1.78,1.83,1.87,3.27,3.27,3.26
28.05,1.59,-1.70,1.59,-1.70,1.70,1.74,1.89,3.30,3.29,3.30
28.33,1.69,-1.62,1.70,-1.63,1.63,1.66,1.92,3.32,3.32,3.32
28.62,1.80,-1.54,1.80,-1.55,1.55,1.57,1.94,3.35,3.35,3.34
28.90,1.90,-1.48,1.91,-1.48,1.48,1.49,1.95,3.38,3.38,3.38
29.19,2.01,-1.39,2.01,-1.40,1.40,1.40,1.96,3.42,3.41,3.40
29.48,2.12,-1.33,2.11,-1.33,1.33,1.32,1.97,3.45,3.44,3.45
29.78,2.22,-1.24,2.21,-1.25,1.25,1.24,1.97,3.47,3.47,3.47
30.08,2.32,-1.17,2.31,-1.18,1.18,1.16,1.97,3.50,3.49,3.50
30.38,2.41,-1.11,2.41,-1.11,1.11,1.08,1.96,3.52,3.52,3.52
30.68,2.50,-1.05,2.51,-1.04,1.04,1.01,1.95,3.54,3.55,3.55
30.99,2.60,-0.97,2.61,-0.97,0.97,0.93,1.93,3.57,3.57,3.57
31.30,2.69,-0.90,2.70,-0.90,0.90,0.86,1.90,3.59,3.60,3.60
31.61,2.79,-0.83,2.80,-0.82,0.82,0.78,1.87,3.62,3.62,3.62
31.93,2.89,-0.75,2.89,-0.75,0.75,0.71,1.83,3.65,3.65,3.64
32.24,2.99,-0.67,2.99,-0.68,0.68,0.64,1.79,3.67,3.67,3.66
32.57,3.08,-0.60,3.08,-0.61,0.61,0.57,1.74,3.69,3.69,3.69
32.89,3.17,-0.54,3.17,-0.54,0.54,0.50,1.68,3.71,3.71,3.71
33.22,3.26,-0.47,3.26,-0.46,0.46,0.43,1.62,3.73,3.73,3.73
33.55,3.35,-0.39,3.35,-0.39,0.39,0.36,1.56,3.74,3.74,3.75
33.89,3.44,-0.31,3.45,-0.31,0.31,0.29,1.49,3.76,3.76,3.75
34.23,3.53,-0.25,3.54,-0.24,0.24,0.22,1.41,3.77,3.77,3.78
34.57,3.62,-0.16,3.63,-0.16,0.16,0.16,1.33,3.78,3.78,3.79
34.92,3.72,-0.07,3.71,-0.08,0.08,0.09,1.25,3.80,3.79,3.79
35.27,3.80,-0.01,3.80,-0.00,0.00,0.03,1.16,3.80,3.80,3.81
35.62,3.88,0.08,3.89,0.08,-0.08,-0.04,1.07,3.81,3.81,3.81
35.97,3.96,0.15,3.98,0.16,-0.16,-0.10,0.98,3.81,3.82,3.81
36.33,4.05,0.23,4.06,0.24,-0.24,-0.16,0.88,3.81,3.82,3.83
36.70,4.14,0.32,4.14,0.32,-0.32,-0.23,0.78,3.82,3.82,3.82
37.06,4.22,0.41,4.23,0.41,-0.41,-0.29,0.68,3.82,3.82,3.82
37.43,4.31,0.49,4.31,0.49,-0.49,-0.35,0.57,3.83,3.82,3.82
37.81,4.39,0.58,4.39,0.57,-0.57,-0.41,0.47,3.82,3.82,3.82
38.19,4.47,0.66,4.47,0.65,-0.65,-0.48,0.36,3.82,3.82,3.81
38.57,4.54,0.73,4.54,0.73,-0.73,-0.54,0.25,3.81,3.81,3.82
38.95,4.62,0.81,4.62,0.81,-0.81,-0.60,0.14,3.81,3.81,3.81
39.34,4.69,0.90,4.69,0.89,-0.89,-0.66,0.03,3.81,3.80,3.80
39.74,4.76,0.97,4.76,0.97,-0.97,-0.72,-0.09,3.80,3.80,3.79
40.14,4.82,1.04,4.83,1.04,-1.04,-0.78,-0.20,3.78,3.79,3.78
40.54,4.89,1.12,4.90,1.12,-1.12,-0.84,-0.32,3.78,3.78,3.78
40.94,4.96,1.19,4.96,1.19,-1.19,-0.91,-0.44,3.77,3.77,3.77
41.35,5.02,1.26,5.03,1.26,-1.26,-0.97,-0.55,3.76,3.76,3.76
41.76,5.09,1.34,5.09,1.33,-1.33,-1.03,-0.67,3.76,3.75,3.76
42.18,5.15,1.40,5.15,1.41,-1.41,-1.09,-0.79,3.75,3.74,3.75
42.60,5.21,1.48,5.21,1.48,-1.48,-1.16,-0.91,3.74,3.73,3.73
43.03,5.26,1.53,5.27,1.55,-1.55,-1.22,-1.04,3.72,3.72,3.73
43.46,5.32,1.61,5.32,1.62,-1.62,-1.28,-1.16,3.71,3.71,3.72
43.90,5.38,1.69,5.38,1.68,-1.68,-1.35,-1.28,3.70,3.70,3.70
44.33,5.43,1.76,5.44,1.75,-1.75,-1.41,-1.41,3.68,3.68,3.68
44.78,5.48,1.82,5.49,1.82,-1.82,-1.48,-1.53,3.66,3.67,3.67
45.23,5.54,1.89,5.55,1.89,-1.89,-1.54,-1.66,3.66,3.66,3.65
45.68,5.59,1.96,5.60,1.95,-1.95,-1.61,-1.78,3.64,3.65,3.64
46.13,5.65,2.03,5.65,2.02,-2.02,-1.68,-1.91,3.64,3.63,3.63
46.60,5.70,2.08,5.70,2.08,-2.08,-1.75,-2.04,3.62,3.62,3.63
47.06,5.76,2.15,5.75,2.14,-2.14,-1.82,-2.17,3.62,3.61,3.62
47.53,5.81,2.21,5.81,2.21,-2.21,-1.89,-2.30,3.61,3.60,3.60
48.01,5.86,2.26,5.86,2.27,-2.27,-1.96,-2.43,3.59,3.59,3.60
48.49,5.91,2.32,5.91,2.33,-2.33,-2.03,-2.56,3.58,3.58,3.59
48.97,5.96,2.39,5.97,2.39,-2.39,-2.11,-2.69,3.57,3.57,3.58
49.46,6.01,2.46,6.02,2.45,-2.45,-2.18,-2.83,3.56,3.57,3.55
49.96,6.07,2.53,6.08,2.52,-2.52,-2.26,-2.96,3.56,3.56,3.54
50.46,6.12,2.58,6.13,2.58,-2.58,-2.34,-3.09,3.54,3.55,3.54
50.96,6.18,2.63,6.19,2.65,-2.65,-2.42,-3.22,3.54,3.55,3.55
51.47,6.25,2.72,6.25,2.71,-2.71,-2.51,-3.36,3.54,3.54,3.53
51.99,6.32,2.79,6.32,2.78,-2.78,-2.59,-3.49,3.54,3.53,3.53
52.51,6.38,2.85,6.38,2.86,-2.86,-2.68,-3.62,3.53,3.53,3.53
53.03,6.44,2.92,6.45,2.93,-2.93,-2.77,-3.75,3.51,3.52,3.52
53.56,6.52,3.01,6.52,3.01,-3.01,-2.86,-3.88,3.51,3.51,3.52
54.10,6.59,3.08,6.59,3.09,-3.09,-2.95,-4.01,3.50,3.50,3.51
54.64,6.67,3.18,6.67,3.18,-3.18,-3.05,-4.13,3.50,3.49,3.49
55.18,6.74,3.26,6.74,3.27,-3.27,-3.15,-4.26,3.48,3.48,3.48
55.74,6.82,3.36,6.82,3.36,-3.36,-3.25,-4.38,3.47,3.47,3.46
56.29,6.89,3.44,6.90,3.45,-3.45,-3.36,-4.50,3.44,3.45,3.45
56.86,6.98,3.56,6.99,3.55,-3.55,-3.47,-4.61,3.43,3.43,3.43
57.42,7.07,3.67,7.07,3.66,-3.66,-3.59,-4.72,3.42,3.41,3.41
58.00,7.16,3.77,7.16,3.77,-3.77,-3.70,-4.83,3.40,3.39,3.39
58.58,7.24,3.87,7.25,3.88,-3.88,-3.82,-4.93,3.36,3.37,3.37
59.16,7.33,3.98,7.34,4.00,-4.00,-3.95,-5.03,3.34,3.34,3.35
59.76,7.43,4.10,7.43,4.12,-4.12,-4.08,-5.12,3.31,3.31,3.33
60.35,7.53,4.24,7.53,4.24,-4.24,-4.21,-5.21,3.29,3.29,3.29
60.96,7.62,4.35,7.63,4.37,-4.37,-4.34,-5.29,3.26,3.26,3.28
61.57,7.72,4.49,7.73,4.50,-4.50,-4.48,-5.36,3.23,3.23,3.23
62.18,7.82,4.63,7.83,4.62,-4.62,-4.62,-5.43,3.20,3.20,3.19
62.80,7.93,4.76,7.93,4.75,-4.75,-4.77,-5.49,3.18,3.18,3.17
63.43,8.03,4.90,8.03,4.88,-4.88,-4.91,-5.55,3.15,3.15,3.13
64.07,8.12,5.01,8.13,5.01,-5.01,-5.05,-5.60,3.11,3.12,3.11
64.71,8.23,5.14,8.24,5.14,-5.14,-5.20,-5.65,3.09,3.10,3.09
65.35,8.34,5.28,8.34,5.27,-5.27,-5.34,-5.69,3.08,3.08,3.07
66.01,8.45,5.40,8.45,5.39,-5.39,-5.47,-5.72,3.06,3.06,3.05
66.67,8.55,5.52,8.55,5.51,-5.51,-5.60,-5.75,3.04,3.04,3.04
67.33,8.65,5.63,8.66,5.63,-5.63,-5.73,-5.78,3.02,3.02,3.02
68.01,8.75,5.75,8.76,5.75,-5.75,-5.84,-5.81,3.00,3.01,3.01
68.69,8.85,5.86,8.86,5.86,-5.86,-5.95,-5.83,2.99,2.99,2.99
69.37,8.95,5.97,8.95,5.98,-5.98,-6.04,-5.84,2.98,2.98,2.98
70.07,9.05,6.09,9.05,6.09,-6.09,-6.13,-5.86,2.97,2.96,2.96
70.77,9.15,6.19,9.14,6.19,-6.19,-6.20,-5.87,2.96,2.95,2.96
71.48,9.24,6.30,9.23,6.30,-6.30,-6.27,-5.88,2.94,2.93,2.94
72.19,9.32,6.41,9.32,6.40,-6.40,-6.33,-5.90,2.92,2.92,2.92
72.91,9.40,6.50,9.40,6.50,-6.50,-6.38,-5.91,2.90,2.90,2.90
73.64,9.48,6.60,9.48,6.60,-6.60,-6.43,-5.92,2.88,2.88,2.88
74.38,9.55,6.69,9.56,6.70,-6.70,-6.48,-5.93,2.85,2.86,2.87
75.12,9.62,6.78,9.64,6.80,-6.80,-6.52,-5.95,2.83,2.84,2.84
75.87,9.70,6.88,9.71,6.89,-6.89,-6.56,-5.96,2.82,2.82,2.82
76.63,9.77,6.97,9.78,6.98,-6.98,-6.61,-5.98,2.80,2.80,2.80
77.40,9.83,7.06,9.84,7.06,-7.06,-6.65,-6.00,2.77,2.78,2.77
78.17,9.89,7.15,9.90,7.14,-7.14,-6.70,-6.02,2.75,2.76,2.75
78.95,9.96,7.22,9.96,7.22,-7.22,-6.75,-6.05,2.75,2.74,2.74
79.74,10.01,7.29,10.01,7.29,-7.29,-6.80,-6.08,2.73,2.72,2.72
80.54,10.06,7.36,10.06,7.35,-7.35,-6.86,-6.11,2.71,2.71,2.70
81.35,10.11,7.43,10.11,7.41,-7.41,-6.92,-6.14,2.70,2.69,2.69
82.16,10.15,7.48,10.15,7.47,-7.47,-6.99,-6.18,2.69,2.68,2.67
82.98,10.18,7.52,10.18,7.52,-7.52,-7.06,-6.23,2.67,2.67,2.67
83.81,10.21,7.57,10.21,7.56,-7.56,-7.13,-6.27,2.66,2.66,2.65
84.65,10.24,7.61,10.24,7.59,-7.59,-7.21,-6.33,2.65,2.64,2.63
85.50,10.26,7.63,10.26,7.63,-7.63,-7.28,-6.38,2.64,2.63,2.63
86.35,10.28,7.66,10.28,7.66,-7.66,-7.37,-6.45,2.63,2.62,2.62
87.22,10.29,7.69,10.29,7.68,-7.68,-7.45,-6.51,2.61,2.61,2.60
88.09,10.30,7.71,10.30,7.71,-7.71,-7.54,-6.58,2.60,2.59,2.59
88.97,10.30,7.72,10.31,7.73,-7.73,-7.63,-6.66,2.57,2.57,2.58
89.86,10.31,7.75,10.31,7.76,-7.76,-7.72,-6.74,2.55,2.55,2.56
90.76,10.30,7.78,10.32,7.79,-7.79,-7.81,-6.83,2.52,2.53,2.53
91.66,10.29,7.79,10.32,7.82,-7.82,-7.90,-6.92,2.47,2.50,2.51
92.58,10.29,7.83,10.32,7.85,-7.85,-8.00,-7.01,2.44,2.46,2.46
93.51,10.30,7.87,10.31,7.89,-7.89,-8.09,-7.11,2.42,2.43,2.44
94.44,10.30,7.91,10.30,7.92,-7.92,-8.19,-7.22,2.38,2.38,2.39
95.39,10.30,7.96,10.30,7.96,-7.96,-8.28,-7.33,2.34,2.33,2.35
96.34,10.30,8.01,10.29,8.01,-8.01,-8.38,-7.44,2.30,2.28,2.29
97.30,10.29,8.07,10.28,8.05,-8.05,-8.47,-7.56,2.24,2.23,2.23
98.28,10.27,8.11,10.26,8.10,-8.10,-8.56,-7.69,2.18,2.17,2.17
99.26,10.25,8.15,10.25,8.15,-8.15,-8.65,-7.81,2.11,2.10,2.10
100.25,10.22,8.19,10.23,8.19,-8.19,-8.73,-7.95,2.03,2.04,2.03
101.25,10.19,8.23,10.21,8.24,-8.24,-8.82,-8.08,1.95,1.97,1.97
102.27,10.17,8.27,10.19,8.29,-8.29,-8.89,-8.22,1.89,1.90,1.90
103.29,10.15,8.33,10.16,8.33,-8.33,-8.97,-8.36,1.83,1.83,1.82
104.32,10.13,8.37,10.13,8.37,-8.37,-9.04,-8.50,1.77,1.76,1.76
105.37,10.11,8.43,10.09,8.40,-8.40,-9.11,-8.64,1.71,1.69,1.69
106.42,10.07,8.45,10.06,8.44,-8.44,-9.17,-8.79,1.63,1.62,1.62
107.48,10.03,8.48,10.03,8.48,-8.48,-9.22,-8.93,1.56,1.55,1.55
108.56,9.99,8.51,10.00,8.51,-8.51,-9.27,-9.07,1.48,1.49,1.48
109.64,9.94,8.53,9.96,8.54,-8.54,-9.31,-9.21,1.40,1.42,1.42
110.74,9.90,8.54,9.92,8.56,-8.56,-9.34,-9.35,1.34,1.36,1.36
111.85,9.86,8.56,9.88,8.59,-8.59,-9.37,-9.48,1.28,1.29,1.30
112.97,9.81,8.59,9.84,8.60,-8.60,-9.39,-9.60,1.21,1.23,1.22
114.10,9.78,8.61,9.79,8.61,-8.61,-9.40,-9.71,1.17,1.17,1.18
115.24,9.73,8.62,9.73,8.61,-8.61,-9.40,-9.82,1.12,1.12,1.11
116.39,9.71,8.66,9.68,8.61,-8.61,-9.39,-9.91,1.10,1.07,1.06
117.55,9.66,8.65,9.63,8.61,-8.61,-9.38,-9.99,1.05,1.02,1.01
118.73,9.58,8.63,9.57,8.60,-8.60,-9.36,-10.06,0.99,0.97,0.96
119.92,9.50,8.58,9.51,8.58,-8.58,-9.32,-10.11,0.92,0.92,0.92
121.12,9.41,8.54,9.44,8.56,-8.56,-9.28,-10.14,0.85,0.88,0.88
122.33,9.36,8.53,9.37,8.54,-8.54,-9.23,-10.16,0.83,0.84,0.83
123.55,9.30,8.50,9.30,8.50,-8.50,-9.17,-10.15,0.80,0.80,0.80
124.79,9.21,8.45,9.22,8.46,-8.46,-9.11,-10.12,0.75,0.76,0.76
126.03,9.12,8.40,9.14,8.42,-8.42,-9.03,-10.08,0.70,0.72,0.73
127.29,9.07,8.39,9.06,8.38,-8.38,-8.95,-10.01,0.70,0.68,0.69
128.57,9.00,8.37,8.97,8.33,-8.33,-8.86,-9.92,0.67,0.64,0.64
129.85,8.88,8.28,8.89,8.28,-8.28,-8.77,-9.82,0.60,0.61,0.61
131.15,8.77,8.20,8.80,8.23,-8.23,-8.66,-9.69,0.54,0.57,0.57
132.46,8.71,8.19,8.71,8.18,-8.18,-8.56,-9.55,0.53,0.53,0.52
133.79,8.61,8.12,8.62,8.13,-8.13,-8.44,-9.39,0.48,0.49,0.50
135.12,8.49,8.04,8.53,8.08,-8.08,-8.32,-9.22,0.41,0.45,0.45
136.48,8.43,8.02,8.43,8.02,-8.02,-8.20,-9.03,0.41,0.41,0.42
137.84,8.32,7.95,8.33,7.96,-7.96,-8.07,-8.84,0.36,0.37,0.37
139.22,8.25,7.94,8.23,7.91,-7.91,-7.94,-8.63,0.35,0.33,0.32
140.61,8.15,7.88,8.13,7.85,-7.85,-7.80,-8.42,0.31,0.28,0.28
142.02,8.00,7.76,8.02,7.78,-7.78,-7.66,-8.20,0.22,0.24,0.24
143.44,7.92,7.72,7.92,7.72,-7.72,-7.52,-7.97,0.20,0.20,0.20
144.87,7.79,7.64,7.81,7.65,-7.65,-7.37,-7.74,0.14,0.16,0.16
146.32,7.68,7.58,7.69,7.58,-7.58,-7.22,-7.51,0.10,0.11,0.11
147.78,7.55,7.48,7.57,7.50,-7.50,-7.07,-7.28,0.05,0.07,0.07
149.26,7.44,7.42,7.44,7.42,-7.42,-6.92,-7.04,0.02,0.02,0.02
150.75,7.30,7.34,7.30,7.33,-7.33,-6.77,-6.80,-0.03,-0.03,-0.03
152.26,7.18,7.26,7.16,7.24,-7.24,-6.61,-6.57,-0.05,-0.08,-0.08
153.78,7.02,7.14,7.01,7.14,-7.14,-6.46,-6.33,-0.11,-0.13,-0.12
155.32,6.88,7.06,6.85,7.03,-7.03,-6.30,-6.09,-0.14,-0.18,-0.17
156.88,6.68,6.90,6.69,6.92,-6.92,-6.14,-5.86,-0.23,-0.23,-0.21
158.44,6.54,6.82,6.52,6.80,-6.80,-5.98,-5.63,-0.26,-0.28,-0.27
160.03,6.30,6.63,6.34,6.67,-6.67,-5.82,-5.40,-0.36,-0.33,-0.32
161.63,6.15,6.54,6.16,6.53,-6.53,-5.67,-5.17,-0.38,-0.38,-0.38
163.24,5.99,6.42,5.96,6.38,-6.38,-5.51,-4.94,-0.39,-0.42,-0.43
164.88,5.74,6.22,5.76,6.24,-6.24,-5.35,-4.71,-0.49,-0.47,-0.48
166.53,5.55,6.08,5.56,6.08,-6.08,-5.19,-4.49,-0.53,-0.52,-0.52
168.19,5.37,5.94,5.35,5.92,-5.92,-5.03,-4.27,-0.54,-0.57,-0.57
169.87,5.11,5.72,5.13,5.75,-5.75,-4.87,-4.05,-0.63,-0.61,-0.61
171.57,4.91,5.57,4.91,5.57,-5.57,-4.71,-3.84,-0.65,-0.66,-0.65
173.29,4.71,5.41,4.68,5.38,-5.38,-4.55,-3.62,-0.67,-0.70,-0.70
175.02,4.40,5.14,4.45,5.19,-5.19,-4.39,-3.41,-0.78,-0.74,-0.74
176.77,4.19,4.97,4.21,4.99,-4.99,-4.23,-3.20,-0.79,-0.77,-0.78
178.54,3.98,4.80,3.97,4.78,-4.78,-4.07,-3.00,-0.80,-0.81,-0.82
180.32,3.76,4.61,3.72,4.56,-4.56,-3.91,-2.79,-0.80,-0.84,-0.85
182.13,3.54,4.42,3.48,4.35,-4.35,-3.75,-2.59,-0.80,-0.87,-0.87
183.95,3.19,4.09,3.23,4.12,-4.12,-3.59,-2.39,-0.93,-0.90,-0.90
185.79,2.95,3.88,2.97,3.90,-3.90,-3.44,-2.19,-0.94,-0.92,-0.93
187.65,2.70,3.66,2.72,3.66,-3.66,-3.28,-1.99,-0.96,-0.95,-0.95
189.52,2.45,3.42,2.46,3.43,-3.43,-3.12,-1.80,-0.98,-0.97,-0.97
191.42,2.21,3.20,2.21,3.19,-3.19,-2.96,-1.61,-0.98,-0.99,-0.99
193.33,1.95,2.96,1.95,2.96,-2.96,-2.80,-1.41,-1.01,-1.01,-1.00
195.27,1.70,2.72,1.70,2.73,-2.73,-2.64,-1.23,-1.03,-1.03,-1.02
197.22,1.45,2.49,1.45,2.49,-2.49,-2.48,-1.04,-1.04,-1.04,-1.04
199.19,1.20,2.27,1.20,2.26,-2.26,-2.32,-0.85,-1.06,-1.06,-1.07
201.18,0.95,2.03,0.96,2.04,-2.04,-2.17,-0.67,-1.08,-1.08,-1.08
203.19,0.71,1.80,0.73,1.82,-1.82,-2.01,-0.49,-1.11,-1.09,-1.09
205.23,0.48,1.59,0.51,1.61,-1.61,-1.85,-0.31,-1.13,-1.11,-1.11
207.28,0.27,1.39,0.28,1.41,-1.41,-1.69,-0.14,-1.13,-1.12,-1.12
209.35,0.05,1.19,0.07,1.20,-1.20,-1.53,0.04,-1.15,-1.14,-1.13
211.44,-0.15,1.01,-0.14,1.01,-1.01,-1.37,0.21,-1.16,-1.15,-1.16
213.56,-0.36,0.81,-0.35,0.82,-0.82,-1.20,0.37,-1.17,-1.17,-1.17
215.69,-0.56,0.62,-0.55,0.64,-0.64,-1.04,0.53,-1.19,-1.18,-1.17
217.85,-0.77,0.43,-0.74,0.46,-0.46,-0.88,0.69,-1.23,-1.20,-1.20
220.03,-0.90,0.32,-0.92,0.29,-0.29,-0.72,0.85,-1.19,-1.21,-1.21
222.23,-1.07,0.17,-1.10,0.13,-0.13,-0.55,1.00,-1.20,-1.23,-1.24
224.45,-1.27,-0.02,-1.27,-0.03,0.03,-0.39,1.14,-1.24,-1.24,-1.24
226.70,-1.46,-0.20,-1.44,-0.18,0.18,-0.22,1.28,-1.27,-1.26,-1.26
228.96,-1.65,-0.38,-1.61,-0.33,0.33,-0.06,1.42,-1.31,-1.28,-1.27
231.25,-1.77,-0.48,-1.78,-0.48,0.48,0.11,1.55,-1.28,-1.30,-1.28
233.57,-1.94,-0.63,-1.94,-0.62,0.62,0.28,1.67,-1.31,-1.31,-1.30
235.90,-2.12,-0.79,-2.10,-0.77,0.77,0.44,1.79,-1.35,-1.33,-1.33
238.26,-2.24,-0.89,-2.25,-0.90,0.90,0.61,1.90,-1.33,-1.35,-1.35
240.64,-2.41,-1.04,-2.40,-1.04,1.04,0.78,2.00,-1.36,-1.36,-1.37
243.05,-2.55,-1.17,-2.56,-1.18,1.18,0.95,2.09,-1.36,-1.37,-1.38
245.48,-2.71,-1.32,-2.71,-1.33,1.33,1.12,2.18,-1.38,-1.38,-1.39
247.93,-2.90,-1.50,-2.87,-1.47,1.47,1.29,2.26,-1.42,-1.39,-1.40
250.41,-3.02,-1.60,-3.02,-1.62,1.62,1.47,2.34,-1.40,-1.40,-1.42
252.92,-3.18,-1.77,-3.18,-1.77,1.77,1.64,2.40,-1.40,-1.40,-1.41
255.45,-3.31,-1.90,-3.34,-1.93,1.93,1.81,2.46,-1.37,-1.41,-1.41
258.00,-3.45,-2.04,-3.50,-2.09,2.09,1.98,2.51,-1.35,-1.40,-1.40
260.58,-3.64,-2.23,-3.65,-2.26,2.26,2.15,2.55,-1.38,-1.40,-1.40
263.19,-3.79,-2.40,-3.81,-2.42,2.42,2.32,2.59,-1.36,-1.39,-1.39
265.82,-3.98,-2.59,-3.97,-2.59,2.59,2.49,2.62,-1.39,-1.38,-1.39
268.48,-4.14,-2.77,-4.13,-2.76,2.76,2.66,2.65,-1.38,-1.37,-1.37
271.16,-4.29,-2.93,-4.28,-2.92,2.92,2.83,2.67,-1.37,-1.36,-1.35
273.87,-4.47,-3.13,-4.43,-3.08,3.08,3.00,2.68,-1.38,-1.34,-1.34
276.61,-4.60,-3.28,-4.57,-3.24,3.24,3.16,2.70,-1.36,-1.33,-1.32
279.38,-4.73,-3.41,-4.71,-3.39,3.39,3.33,2.70,-1.33,-1.31,-1.31
282.17,-4.85,-3.55,-4.84,-3.54,3.54,3.49,2.70,-1.30,-1.30,-1.30
284.99,-4.97,-3.68,-4.97,-3.69,3.69,3.64,2.70,-1.28,-1.29,-1.28
287.84,-5.11,-3.84,-5.09,-3.82,3.82,3.80,2.70,-1.28,-1.27,-1.27
290.72,-5.21,-3.96,-5.21,-3.95,3.95,3.94,2.70,-1.25,-1.25,-1.25
293.63,-5.32,-4.08,-5.32,-4.08,4.08,4.09,2.69,-1.23,-1.23,-1.24
296.57,-5.42,-4.20,-5.42,-4.21,4.21,4.23,2.68,-1.21,-1.22,-1.22
299.53,-5.51,-4.31,-5.52,-4.33,4.33,4.36,2.67,-1.18,-1.20,-1.20
302.53,-5.61,-4.41,-5.62,-4.44,4.44,4.48,2.66,-1.16,-1.18,-1.20
305.55,-5.70,-4.54,-5.72,-4.56,4.56,4.60,2.65,-1.14,-1.16,-1.16
308.61,-5.79,-4.64,-5.81,-4.67,4.67,4.71,2.64,-1.12,-1.14,-1.14
311.69,-5.88,-4.76,-5.89,-4.78,4.78,4.81,2.63,-1.10,-1.12,-1.12
314.81,-5.95,-4.86,-5.97,-4.88,4.88,4.91,2.63,-1.07,-1.10,-1.08
317.96,-6.03,-4.96,-6.04,-4.97,4.97,4.99,2.62,-1.06,-1.08,-1.07
321.14,-6.12,-5.07,-6.10,-5.05,5.05,5.06,2.61,-1.06,-1.05,-1.05
324.35,-6.19,-5.15,-6.16,-5.13,5.13,5.13,2.61,-1.06,-1.03,-1.03
327.59,-6.23,-5.22,-6.20,-5.19,5.19,5.18,2.60,-1.04,-1.01,-1.01
330.87,-6.25,-5.26,-6.23,-5.24,5.24,5.22,2.60,-1.00,-0.98,-0.99
334.18,-6.27,-5.30,-6.24,-5.28,5.28,5.26,2.60,-0.99,-0.96,-0.96
337.52,-6.27,-5.32,-6.24,-5.30,5.30,5.28,2.61,-0.96,-0.94,-0.95
340.90,-6.25,-5.33,-6.23,-5.31,5.31,5.29,2.61,-0.93,-0.92,-0.92
344.30,-6.22,-5.32,-6.20,-5.31,5.31,5.29,2.62,-0.91,-0.89,-0.89
347.75,-6.18,-5.30,-6.16,-5.29,5.29,5.28,2.63,-0.89,-0.87,-0.87
351.23,-6.12,-5.27,-6.10,-5.26,5.26,5.26,2.64,-0.86,-0.85,-0.85
354.74,-6.05,-5.23,-6.04,-5.21,5.21,5.24,2.65,-0.83,-0.82,-0.82
358.28,-5.96,-5.15,-5.96,-5.16,5.16,5.20,2.67,-0.80,-0.80,-0.80
361.87,-5.88,-5.10,-5.88,-5.10,5.10,5.16,2.69,-0.78,-0.77,-0.77
365.49,-5.78,-5.03,-5.79,-5.03,5.03,5.11,2.71,-0.74,-0.75,-0.75
369.14,-5.68,-4.94,-5.69,-4.96,4.96,5.05,2.73,-0.71,-0.73,-0.74
372.83,-5.59,-4.88,-5.59,-4.88,4.88,4.98,2.76,-0.70,-0.71,-0.71
376.56,-5.47,-4.77,-5.49,-4.80,4.80,4.91,2.78,-0.66,-0.69,-0.69
380.33,-5.38,-4.72,-5.39,-4.72,4.72,4.84,2.81,-0.66,-0.67,-0.65
384.13,-5.28,-4.63,-5.28,-4.64,4.64,4.76,2.84,-0.64,-0.65,-0.65
387.97,-5.19,-4.56,-5.18,-4.55,4.55,4.68,2.88,-0.64,-0.63,-0.63
391.85,-5.08,-4.46,-5.08,-4.46,4.46,4.59,2.91,-0.61,-0.62,-0.62
395.77,-4.98,-4.38,-4.98,-4.38,4.38,4.50,2.95,-0.60,-0.60,-0.59
399.73,-4.88,-4.29,-4.88,-4.29,4.29,4.41,2.99,-0.58,-0.59,-0.58
403.72,-4.79,-4.20,-4.79,-4.21,4.21,4.32,3.03,-0.58,-0.58,-0.58
407.76,-4.70,-4.12,-4.70,-4.12,4.12,4.22,3.07,-0.57,-0.58,-0.58
411.84,-4.60,-4.03,-4.61,-4.04,4.04,4.13,3.11,-0.55,-0.57,-0.57
415.96,-4.52,-3.95,-4.53,-3.96,3.96,4.03,3.15,-0.56,-0.57,-0.57
420.12,-4.44,-3.87,-4.45,-3.88,3.88,3.94,3.19,-0.56,-0.57,-0.57
424.32,-4.35,-3.78,-4.37,-3.79,3.79,3.84,3.23,-0.55,-0.57,-0.57
428.56,-4.29,-3.71,-4.29,-3.71,3.71,3.74,3.27,-0.58,-0.58,-0.57
432.85,-4.22,-3.63,-4.20,-3.63,3.63,3.65,3.31,-0.59,-0.58,-0.58
437.18,-4.14,-3.55,-4.13,-3.54,3.54,3.55,3.35,-0.59,-0.58,-0.58
441.55,-4.06,-3.47,-4.05,-3.46,3.46,3.46,3.39,-0.60,-0.59,-0.59
445.96,-3.99,-3.39,-3.97,-3.38,3.38,3.37,3.42,-0.61,-0.59,-0.60
450.42,-3.90,-3.30,-3.88,-3.29,3.29,3.28,3.46,-0.60,-0.59,-0.60
454.93,-3.81,-3.21,-3.80,-3.20,3.20,3.19,3.49,-0.60,-0.60,-0.60
459.48,-3.72,-3.11,-3.72,-3.12,3.12,3.10,3.51,-0.60,-0.60,-0.61
464.07,-3.64,-3.04,-3.63,-3.03,3.03,3.01,3.53,-0.61,-0.60,-0.60
468.71,-3.56,-2.96,-3.54,-2.94,2.94,2.92,3.55,-0.62,-0.60,-0.60
473.40,-3.45,-2.84,-3.45,-2.85,2.85,2.84,3.57,-0.59,-0.60,-0.60
478.13,-3.36,-2.76,-3.37,-2.77,2.77,2.76,3.58,-0.59,-0.60,-0.59
482.91,-3.29,-2.68,-3.28,-2.68,2.68,2.68,3.58,-0.61,-0.60,-0.60
487.74,-3.20,-2.60,-3.19,-2.60,2.60,2.60,3.58,-0.60,-0.60,-0.59
492.62,-3.10,-2.51,-3.11,-2.52,2.52,2.52,3.57,-0.58,-0.59,-0.58
497.55,-3.02,-2.42,-3.03,-2.44,2.44,2.45,3.56,-0.58,-0.59,-0.60
502.52,-2.93,-2.34,-2.95,-2.36,2.36,2.37,3.54,-0.56,-0.59,-0.59
