frequency,raw,error,smoothed,error_smoothed,equalization,parametric_eq,fixed_band_eq,equalized_raw,equalized_smoothed,target
20.00,-18.69,-23.11,-18.69,-23.13,23.13,21.45,9.97,4.45,4.44,4.42
20.20,-18.56,-23.02,-18.57,-23.04,23.04,21.64,10.16,4.48,4.47,4.46
20.40,-18.44,-22.93,-18.44,-22.94,22.94,21.82,10.35,4.50,4.50,4.49
20.61,-18.31,-22.83,-18.31,-22.84,22.84,21.99,10.55,4.53,4.53,4.52
20.81,-18.18,-22.74,-18.19,-22.74,22.74,22.13,10.75,4.56,4.55,4.56
21.02,-18.06,-22.66,-18.06,-22.64,22.64,22.26,10.96,4.58,4.57,4.60
21.23,-17.94,-22.55,-17.93,-22.53,22.53,22.38,11.17,4.59,4.60,4.61
21.44,-17.83,-22.46,-17.81,-22.42,22.42,22.47,11.39,4.60,4.62,4.63
21.66,-17.71,-22.36,-17.68,-22.31,22.31,22.53,11.61,4.60,4.64,4.65
21.87,-17.60,-22.25,-17.55,-22.20,22.20,22.58,11.84,4.61,4.65,4.66
22.09,-17.46,-22.13,-17.42,-22.09,22.09,22.60,12.08,4.63,4.67,4.68
22.31,-17.30,-21.97,-17.29,-21.97,21.97,22.60,12.32,4.68,4.68,4.68
22.54,-17.15,-21.84,-17.16,-21.85,21.85,22.58,12.57,4.70,4.69,4.69
22.76,-16.99,-21.68,-17.03,-21.73,21.73,22.53,12.83,4.75,4.70,4.70
22.99,-16.83,-21.52,-16.90,-21.61,21.61,22.47,13.09,4.78,4.71,4.70
23.22,-16.72,-21.42,-16.77,-21.48,21.48,22.38,13.36,4.77,4.71,4.70
23.45,-16.62,-21.33,-16.63,-21.35,21.35,22.27,13.64,4.74,4.72,4.71
23.69,-16.52,-21.24,-16.49,-21.22,21.22,22.15,13.93,4.70,4.72,4.72
23.92,-16.41,-21.14,-16.35,-21.08,21.08,22.01,14.23,4.68,4.73,4.73
24.16,-16.28,-21.02,-16.21,-20.94,20.94,21.86,14.53,4.67,4.73,4.74
24.40,-16.13,-20.88,-16.08,-20.81,20.81,21.69,14.85,4.68,4.73,4.75
24.65,-15.98,-20.72,-15.94,-20.68,20.68,21.52,15.18,4.70,4.74,4.74
24.89,-15.82,-20.55,-15.82,-20.56,20.56,21.34,15.52,4.74,4.74,4.74
25.14,-15.68,-20.41,-15.69,-20.43,20.43,21.15,15.87,4.75,4.74,4.74
25.39,-15.53,-20.26,-15.57,-20.31,20.31,20.95,16.23,4.78,4.74,4.74
25.65,-15.38,-20.11,-15.44,-20.18,20.18,20.76,16.61,4.80,4.74,4.74
25.91,-15.23,-19.95,-15.31,-20.05,20.05,20.56,17.00,4.82,4.74,4.72
26.16,-15.13,-19.86,-15.18,-19.92,19.92,20.36,17.40,4.79,4.73,4.73
26.43,-15.05,-19.78,-15.06,-19.79,19.79,20.16,17.82,4.74,4.73,4.73
26.69,-14.96,-19.69,-14.94,-19.66,19.66,19.95,18.25,4.71,4.73,4.73
26.96,-14.88,-19.61,-14.82,-19.54,19.54,19.76,18.70,4.66,4.72,4.73
27.23,-14.76,-19.49,-14.70,-19.42,19.42,19.56,19.16,4.66,4.72,4.73
27.50,-14.62,-19.34,-14.58,-19.30,19.30,19.36,19.64,4.68,4.72,4.73
27.77,-14.48,-19.19,-14.46,-19.18,19.18,19.17,20.13,4.70,4.72,4.71
28.05,-14.35,-19.06,-14.34,-19.05,19.05,18.99,20.63,4.71,4.72,4.71
28.33,-14.21,-18.91,-14.21,-18.93,18.93,18.80,21.15,4.72,4.71,4.70
28.62,-14.08,-18.79,-14.09,-18.80,18.80,18.63,21.67,4.72,4.71,4.71
28.90,-13.95,-18.66,-13.96,-18.67,18.67,18.45,22.19,4.72,4.71,4.71
29.19,-13.82,-18.51,-13.83,-18.53,18.53,18.29,22.71,4.72,4.70,4.70
29.48,-13.69,-18.39,-13.70,-18.40,18.40,18.13,23.20,4.71,4.70,4.70
29.78,-13.56,-18.26,-13.57,-18.27,18.27,17.97,23.67,4.71,4.70,4.70
30.08,-13.44,-18.14,-13.45,-18.14,18.14,17.82,24.08,4.70,4.69,4.70
30.38,-13.31,-18.00,-13.32,-18.01,18.01,17.68,24.43,4.70,4.69,4.69
30.68,-13.19,-17.87,-13.20,-17.88,17.88,17.55,24.69,4.69,4.68,4.69
30.99,-13.07,-17.74,-13.08,-17.76,17.76,17.42,24.84,4.69,4.68,4.67
31.30,-12.97,-17.64,-12.97,-17.64,17.64,17.29,24.88,4.67,4.67,4.67
31.61,-12.88,-17.55,-12.86,-17.53,17.53,17.17,24.81,4.65,4.67,4.67
31.93,-12.78,-17.44,-12.75,-17.41,17.41,17.05,24.63,4.63,4.66,4.66
32.24,-12.65,-17.29,-12.65,-17.30,17.30,16.93,24.36,4.65,4.65,4.64
32.57,-12.51,-17.15,-12.53,-17.18,17.18,16.81,24.02,4.67,4.65,4.64
32.89,-12.38,-17.02,-12.41,-17.05,17.05,16.69,23.62,4.67,4.64,4.64
33.22,-12.27,-16.90,-12.28,-16.92,16.92,16.57,23.19,4.65,4.64,4.64
33.55,-12.19,-16.82,-12.16,-16.79,16.79,16.44,22.73,4.61,4.63,4.63
33.89,-12.11,-16.74,-12.05,-16.67,16.67,16.30,22.27,4.56,4.62,4.63
34.23,-11.99,-16.61,-11.93,-16.55,16.55,16.16,21.80,4.56,4.62,4.63
34.57,-11.86,-16.47,-11.82,-16.43,16.43,16.01,21.34,4.57,4.61,4.61
34.92,-11.72,-16.33,-11.70,-16.31,16.31,15.86,20.89,4.59,4.61,4.61
35.27,-11.55,-16.15,-11.58,-16.18,16.18,15.70,20.45,4.63,4.60,4.60
35.62,-11.37,-15.96,-11.46,-16.06,16.06,15.55,20.03,4.69,4.60,4.59
35.97,-11.18,-15.76,-11.34,-15.93,15.93,15.39,19.62,4.75,4.59,4.59
36.33,-11.16,-15.74,-11.22,-15.80,15.80,15.23,19.23,4.64,4.58,4.58
36.70,-11.15,-15.73,-11.10,-15.67,15.67,15.07,18.86,4.52,4.57,4.58
37.06,-11.11,-15.67,-10.97,-15.53,15.53,14.92,18.50,4.43,4.57,4.56
37.43,-10.93,-15.48,-10.83,-15.39,15.39,14.77,18.15,4.47,4.56,4.56
37.81,-10.75,-15.30,-10.70,-15.25,15.25,14.62,17.83,4.50,4.55,4.55
38.19,-10.58,-15.12,-10.57,-15.11,15.11,14.48,17.51,4.53,4.54,4.54
38.57,-10.43,-14.96,-10.44,-14.98,14.98,14.35,17.21,4.55,4.54,4.53
38.95,-10.27,-14.79,-10.32,-14.84,14.84,14.22,16.93,4.58,4.53,4.53
39.34,-10.16,-14.67,-10.19,-14.71,14.71,14.10,16.65,4.56,4.52,4.51
39.74,-10.06,-14.55,-10.07,-14.58,14.58,13.99,16.39,4.52,4.51,4.50
40.14,-9.94,-14.44,-9.93,-14.43,14.43,13.88,16.15,4.50,4.50,4.50
40.54,-9.77,-14.26,-9.79,-14.28,14.28,13.77,15.91,4.51,4.49,4.49
40.94,-9.59,-14.07,-9.64,-14.11,14.11,13.67,15.69,4.53,4.48,4.49
41.35,-9.49,-13.96,-9.50,-13.96,13.96,13.58,15.47,4.47,4.46,4.47
41.76,-9.39,-13.84,-9.38,-13.82,13.82,13.49,15.27,4.43,4.44,4.45
42.18,-9.30,-13.73,-9.26,-13.68,13.68,13.41,15.07,4.38,4.42,4.43
42.60,-9.20,-13.60,-9.14,-13.54,13.54,13.33,14.89,4.34,4.40,4.41
43.03,-9.10,-13.49,-9.03,-13.39,13.39,13.26,14.72,4.30,4.37,4.39
43.46,-8.90,-13.26,-8.91,-13.25,13.25,13.19,14.55,4.35,4.34,4.36
43.90,-8.71,-13.02,-8.79,-13.10,13.10,13.13,14.39,4.39,4.31,4.31
44.33,-8.58,-12.86,-8.67,-12.95,12.95,13.07,14.24,4.37,4.29,4.28
44.78,-8.48,-12.72,-8.55,-12.81,12.81,13.02,14.10,4.33,4.26,4.24
45.23,-8.42,-12.63,-8.43,-12.66,12.66,12.97,13.97,4.24,4.23,4.21
45.68,-8.39,-12.57,-8.31,-12.51,12.51,12.93,13.85,4.12,4.20,4.18
46.13,-8.32,-12.48,-8.17,-12.35,12.35,12.88,13.73,4.04,4.18,4.16
46.60,-8.14,-12.29,-8.05,-12.20,12.20,12.85,13.62,4.06,4.16,4.15
47.06,-7.96,-12.09,-7.92,-12.06,12.06,12.82,13.51,4.10,4.14,4.13
47.53,-7.83,-11.95,-7.79,-11.92,11.92,12.79,13.42,4.09,4.13,4.12
48.01,-7.70,-11.82,-7.68,-11.80,11.80,12.76,13.33,4.10,4.11,4.12
48.49,-7.61,-11.71,-7.59,-11.70,11.70,12.74,13.24,4.09,4.11,4.10
48.97,-7.52,-11.61,-7.51,-11.61,11.61,12.72,13.16,4.10,4.10,4.09
49.46,-7.41,-11.49,-7.44,-11.54,11.54,12.71,13.09,4.13,4.10,4.08
49.96,-7.30,-11.37,-7.38,-11.47,11.47,12.70,13.02,4.17,4.09,4.07
50.46,-7.29,-11.37,-7.34,-11.42,11.42,12.69,12.95,4.13,4.08,4.08
50.96,-7.29,-11.37,-7.33,-11.40,11.40,12.68,12.89,4.12,4.07,4.08
51.47,-7.34,-11.41,-7.38,-11.44,11.44,12.67,12.84,4.10,4.06,4.07
51.99,-7.39,-11.44,-7.48,-11.52,11.52,12.67,12.78,4.13,4.04,4.05
52.51,-7.57,-11.60,-7.62,-11.64,11.64,12.67,12.73,4.07,4.02,4.04
53.03,-7.76,-11.77,-7.80,-11.79,11.79,12.66,12.68,4.03,3.99,4.01
53.56,-7.88,-11.85,-8.01,-11.96,11.96,12.66,12.64,4.08,3.95,3.97
54.10,-8.02,-11.94,-8.24,-12.15,12.15,12.66,12.59,4.14,3.92,3.92
54.64,-8.25,-12.12,-8.49,-12.36,12.36,12.65,12.55,4.11,3.87,3.88
55.18,-8.56,-12.39,-8.75,-12.57,12.57,12.64,12.50,4.01,3.83,3.83
55.74,-9.00,-12.77,-9.00,-12.77,12.77,12.63,12.45,3.77,3.77,3.77
56.29,-9.40,-13.11,-9.23,-12.94,12.94,12.62,12.41,3.55,3.71,3.71
56.86,-9.72,-13.37,-9.44,-13.10,13.10,12.60,12.36,3.38,3.65,3.65
57.42,-9.90,-13.48,-9.63,-13.21,13.21,12.58,12.30,3.32,3.59,3.58
58.00,-10.03,-13.55,-9.77,-13.29,13.29,12.55,12.25,3.26,3.52,3.52
58.58,-10.03,-13.48,-9.86,-13.32,13.32,12.52,12.18,3.29,3.46,3.45
59.16,-10.03,-13.43,-9.92,-13.31,13.31,12.48,12.12,3.28,3.39,3.40
59.76,-10.03,-13.36,-9.94,-13.26,13.26,12.43,12.05,3.24,3.33,3.34
60.35,-9.95,-13.21,-9.91,-13.17,13.17,12.38,11.97,3.23,3.26,3.26
60.96,-9.81,-13.01,-9.85,-13.04,13.04,12.31,11.89,3.23,3.20,3.20
61.57,-9.67,-12.79,-9.73,-12.87,12.87,12.24,11.80,3.20,3.13,3.12
62.18,-9.53,-12.58,-9.59,-12.66,12.66,12.16,11.70,3.13,3.07,3.06
62.80,-9.38,-12.38,-9.43,-12.45,12.45,12.06,11.59,3.07,3.01,3.01
63.43,-9.20,-12.14,-9.27,-12.23,12.23,11.96,11.48,3.03,2.95,2.95
64.07,-9.01,-11.90,-9.11,-12.01,12.01,11.85,11.36,3.00,2.90,2.90
64.71,-8.89,-11.73,-8.93,-11.78,11.78,11.74,11.24,2.89,2.85,2.84
65.35,-8.78,-11.57,-8.77,-11.57,11.57,11.61,11.11,2.79,2.80,2.79
66.01,-8.66,-11.41,-8.61,-11.37,11.37,11.48,10.97,2.71,2.75,2.75
66.67,-8.51,-11.21,-8.46,-11.17,11.17,11.34,10.82,2.66,2.71,2.70
67.33,-8.32,-10.98,-8.31,-10.98,10.98,11.19,10.67,2.67,2.67,2.67
68.01,-8.11,-10.74,-8.17,-10.80,10.80,11.03,10.52,2.69,2.63,2.63
68.69,-8.00,-10.59,-8.03,-10.62,10.62,10.87,10.36,2.63,2.59,2.59
69.37,-7.87,-10.42,-7.89,-10.45,10.45,10.71,10.20,2.58,2.56,2.56
70.07,-7.73,-10.24,-7.76,-10.28,10.28,10.54,10.03,2.55,2.52,2.52
70.77,-7.57,-10.06,-7.63,-10.11,10.11,10.37,9.87,2.54,2.48,2.50
71.48,-7.52,-9.97,-7.50,-9.94,9.94,10.20,9.70,2.42,2.45,2.45
72.19,-7.47,-9.89,-7.36,-9.78,9.78,10.03,9.52,2.31,2.41,2.42
72.91,-7.31,-9.69,-7.24,-9.62,9.62,9.85,9.35,2.31,2.37,2.38
73.64,-7.14,-9.48,-7.13,-9.46,9.46,9.67,9.18,2.33,2.34,2.35
74.38,-7.00,-9.31,-7.03,-9.33,9.33,9.50,9.01,2.33,2.30,2.31
75.12,-6.88,-9.14,-6.93,-9.19,9.19,9.32,8.83,2.32,2.26,2.26
75.87,-6.79,-9.01,-6.83,-9.06,9.06,9.14,8.66,2.28,2.23,2.23
76.63,-6.67,-8.86,-6.73,-8.93,8.93,8.97,8.49,2.26,2.19,2.19
77.40,-6.58,-8.74,-6.62,-8.78,8.78,8.80,8.33,2.21,2.16,2.16
78.17,-6.51,-8.63,-6.51,-8.64,8.64,8.62,8.16,2.13,2.13,2.12
78.95,-6.39,-8.49,-6.41,-8.51,8.51,8.45,8.00,2.12,2.10,2.10
79.74,-6.38,-8.45,-6.29,-8.37,8.37,8.29,7.84,1.99,2.07,2.08
80.54,-6.30,-8.34,-6.19,-8.24,8.24,8.12,7.68,1.94,2.05,2.04
81.35,-6.20,-8.22,-6.09,-8.12,8.12,7.96,7.52,1.92,2.03,2.02
82.16,-6.09,-8.09,-5.98,-8.00,8.00,7.80,7.37,1.91,2.01,2.01
82.98,-5.83,-7.83,-5.88,-7.88,7.88,7.64,7.22,2.05,2.00,2.00
83.81,-5.72,-7.70,-5.77,-7.76,7.76,7.49,7.08,2.04,1.99,1.98
84.65,-5.55,-7.51,-5.67,-7.65,7.65,7.34,6.93,2.10,1.98,1.97
85.50,-5.47,-7.44,-5.57,-7.54,7.54,7.19,6.79,2.07,1.97,1.97
86.35,-5.47,-7.43,-5.47,-7.43,7.43,7.04,6.66,1.97,1.96,1.96
87.22,-5.42,-7.37,-5.37,-7.33,7.33,6.90,6.52,1.91,1.95,1.95
88.09,-5.24,-7.18,-5.28,-7.22,7.22,6.76,6.39,1.98,1.94,1.94
88.97,-5.24,-7.19,-5.18,-7.12,7.12,6.62,6.27,1.88,1.94,1.95
89.86,-5.09,-7.02,-5.10,-7.03,7.03,6.49,6.15,1.94,1.93,1.94
90.76,-5.02,-6.93,-5.03,-6.94,6.94,6.36,6.03,1.93,1.91,1.91
91.66,-5.01,-6.92,-4.96,-6.86,6.86,6.23,5.91,1.85,1.90,1.91
92.58,-4.93,-6.80,-4.90,-6.78,6.78,6.10,5.80,1.86,1.88,1.88
93.51,-4.83,-6.70,-4.84,-6.70,6.70,5.98,5.69,1.87,1.86,1.87
94.44,-4.78,-6.63,-4.77,-6.61,6.61,5.86,5.58,1.84,1.84,1.85
95.39,-4.69,-6.51,-4.71,-6.52,6.52,5.74,5.48,1.83,1.81,1.82
96.34,-4.56,-6.33,-4.64,-6.42,6.42,5.63,5.38,1.87,1.79,1.78
97.30,-4.56,-6.31,-4.57,-6.32,6.32,5.51,5.28,1.77,1.76,1.75
98.28,-4.56,-6.27,-4.50,-6.22,6.22,5.40,5.18,1.66,1.72,1.71
99.26,-4.50,-6.17,-4.43,-6.11,6.11,5.30,5.09,1.61,1.68,1.68
100.25,-4.33,-5.97,-4.37,-6.01,6.01,5.19,5.00,1.68,1.64,1.64
101.25,-4.33,-5.92,-4.30,-5.90,5.90,5.09,4.92,1.57,1.59,1.59
102.27,-4.30,-5.84,-4.24,-5.78,5.78,4.99,4.83,1.48,1.54,1.55
103.29,-4.18,-5.67,-4.18,-5.67,5.67,4.89,4.75,1.49,1.49,1.49
104.32,-4.10,-5.54,-4.12,-5.55,5.55,4.79,4.67,1.45,1.43,1.44
105.37,-4.04,-5.42,-4.06,-5.42,5.42,4.70,4.59,1.38,1.36,1.38
106.42,-3.91,-5.22,-4.00,-5.30,5.30,4.60,4.51,1.39,1.30,1.31
107.48,-3.87,-5.10,-3.94,-5.17,5.17,4.51,4.44,1.30,1.23,1.24
108.56,-3.87,-5.02,-3.87,-5.02,5.02,4.42,4.37,1.15,1.15,1.15
109.64,-3.87,-4.94,-3.80,-4.87,4.87,4.34,4.29,1.00,1.07,1.07
110.74,-3.87,-4.86,-3.73,-4.72,4.72,4.25,4.22,0.85,0.99,0.99
111.85,-3.67,-4.58,-3.67,-4.57,4.57,4.17,4.15,0.90,0.91,0.92
112.97,-3.64,-4.46,-3.60,-4.43,4.43,4.09,4.09,0.79,0.82,0.82
114.10,-3.60,-4.34,-3.55,-4.29,4.29,4.01,4.02,0.69,0.74,0.74
115.24,-3.42,-4.08,-3.50,-4.16,4.16,3.93,3.95,0.74,0.66,0.66
116.39,-3.42,-3.99,-3.45,-4.04,4.04,3.85,3.89,0.62,0.59,0.57
117.55,-3.40,-3.89,-3.40,-3.91,3.91,3.78,3.82,0.51,0.51,0.50
118.73,-3.24,-3.66,-3.34,-3.78,3.78,3.70,3.76,0.55,0.44,0.42
119.92,-3.19,-3.55,-3.28,-3.66,3.66,3.63,3.70,0.47,0.38,0.37
121.12,-3.19,-3.49,-3.22,-3.54,3.54,3.56,3.63,0.36,0.32,0.30
122.33,-3.19,-3.44,-3.16,-3.43,3.43,3.49,3.57,0.24,0.26,0.25
123.55,-3.19,-3.40,-3.10,-3.32,3.32,3.42,3.50,0.13,0.21,0.22
124.79,-3.19,-3.35,-3.06,-3.22,3.22,3.35,3.44,0.03,0.16,0.16
126.03,-3.04,-3.16,-3.00,-3.12,3.12,3.29,3.38,0.08,0.12,0.12
127.29,-2.99,-3.07,-2.95,-3.02,3.02,3.22,3.31,0.03,0.07,0.08
128.57,-2.91,-2.94,-2.89,-2.92,2.92,3.16,3.25,0.01,0.03,0.03
129.85,-2.75,-2.74,-2.82,-2.81,2.81,3.10,3.19,0.06,-0.01,-0.01
131.15,-2.73,-2.68,-2.76,-2.71,2.71,3.04,3.12,-0.02,-0.05,-0.04
132.46,-2.73,-2.64,-2.71,-2.61,2.61,2.98,3.06,-0.11,-0.09,-0.09
133.79,-2.59,-2.46,-2.64,-2.50,2.50,2.92,3.00,-0.08,-0.14,-0.13
135.12,-2.51,-2.32,-2.57,-2.39,2.39,2.86,2.93,-0.12,-0.18,-0.18
136.48,-2.51,-2.29,-2.50,-2.28,2.28,2.80,2.87,-0.23,-0.22,-0.22
137.84,-2.51,-2.24,-2.44,-2.18,2.18,2.75,2.80,-0.33,-0.27,-0.26
139.22,-2.39,-2.06,-2.39,-2.08,2.08,2.69,2.74,-0.31,-0.31,-0.33
140.61,-2.29,-1.91,-2.33,-1.97,1.97,2.64,2.68,-0.31,-0.36,-0.38
142.02,-2.28,-1.87,-2.27,-1.87,1.87,2.58,2.61,-0.41,-0.41,-0.41
143.44,-2.28,-1.82,-2.22,-1.76,1.76,2.53,2.55,-0.52,-0.46,-0.46
144.87,-2.28,-1.77,-2.17,-1.65,1.65,2.48,2.49,-0.63,-0.52,-0.51
146.32,-2.13,-1.56,-2.11,-1.52,1.52,2.43,2.42,-0.60,-0.59,-0.57
147.78,-2.05,-1.43,-2.06,-1.40,1.40,2.38,2.36,-0.64,-0.65,-0.62
149.26,-2.05,-1.36,-2.03,-1.30,1.30,2.33,2.30,-0.74,-0.72,-0.69
150.75,-2.05,-1.27,-2.02,-1.22,1.22,2.29,2.24,-0.83,-0.80,-0.78
152.26,-2.04,-1.19,-2.03,-1.15,1.15,2.24,2.18,-0.89,-0.87,-0.85
153.78,-1.89,-0.95,-2.05,-1.09,1.09,2.19,2.12,-0.79,-0.95,-0.94
155.32,-1.88,-0.84,-2.08,-1.05,1.05,2.15,2.06,-0.83,-1.03,-1.04
156.88,-2.03,-0.91,-2.12,-1.01,1.01,2.10,2.00,-1.02,-1.11,-1.12
158.44,-2.05,-0.85,-2.16,-0.98,0.98,2.06,1.94,-1.07,-1.19,-1.20
160.03,-2.11,-0.83,-2.22,-0.96,0.96,2.01,1.88,-1.14,-1.26,-1.28
161.63,-2.25,-0.90,-2.29,-0.96,0.96,1.97,1.82,-1.29,-1.32,-1.35
163.24,-2.44,-1.03,-2.35,-0.96,0.96,1.93,1.77,-1.47,-1.38,-1.41
164.88,-2.67,-1.22,-2.40,-0.96,0.96,1.89,1.71,-1.70,-1.43,-1.45
166.53,-2.68,-1.18,-2.44,-0.96,0.96,1.85,1.65,-1.71,-1.48,-1.50
168.19,-2.58,-1.05,-2.48,-0.97,0.97,1.81,1.60,-1.60,-1.51,-1.53
169.87,-2.51,-0.95,-2.51,-0.98,0.98,1.77,1.55,-1.53,-1.53,-1.56
171.57,-2.51,-0.94,-2.53,-0.98,0.98,1.73,1.49,-1.53,-1.55,-1.57
173.29,-2.51,-0.94,-2.52,-0.96,0.96,1.69,1.44,-1.55,-1.56,-1.57
175.02,-2.51,-0.95,-2.50,-0.93,0.93,1.65,1.39,-1.58,-1.57,-1.56
176.77,-2.51,-0.93,-2.47,-0.89,0.89,1.61,1.34,-1.62,-1.58,-1.57
178.54,-2.33,-0.76,-2.43,-0.84,0.84,1.58,1.28,-1.49,-1.58,-1.57
180.32,-2.28,-0.71,-2.37,-0.78,0.78,1.54,1.23,-1.50,-1.59,-1.57
182.13,-2.28,-0.71,-2.30,-0.70,0.70,1.51,1.18,-1.57,-1.60,-1.57
183.95,-2.28,-0.70,-2.23,-0.63,0.63,1.47,1.13,-1.65,-1.60,-1.58
185.79,-2.28,-0.69,-2.18,-0.57,0.57,1.44,1.09,-1.71,-1.61,-1.59
187.65,-2.11,-0.49,-2.14,-0.51,0.51,1.40,1.04,-1.60,-1.63,-1.62
189.52,-2.05,-0.41,-2.09,-0.44,0.44,1.37,0.99,-1.60,-1.64,-1.64
191.42,-2.05,-0.38,-2.03,-0.37,0.37,1.33,0.94,-1.68,-1.66,-1.67
193.33,-2.05,-0.36,-1.97,-0.29,0.29,1.30,0.90,-1.76,-1.68,-1.69
195.27,-1.95,-0.25,-1.93,-0.22,0.22,1.27,0.85,-1.72,-1.70,-1.70
197.22,-1.85,-0.13,-1.89,-0.17,0.17,1.23,0.80,-1.68,-1.73,-1.72
199.19,-1.82,-0.05,-1.87,-0.12,0.12,1.20,0.76,-1.70,-1.75,-1.76
201.18,-1.82,-0.04,-1.85,-0.07,0.07,1.17,0.72,-1.74,-1.77,-1.77
203.19,-1.82,-0.02,-1.84,-0.04,0.04,1.14,0.67,-1.78,-1.80,-1.79
205.23,-1.82,0.00,-1.84,-0.02,0.02,1.11,0.63,-1.79,-1.82,-1.82
207.28,-1.82,0.01,-1.86,-0.02,0.02,1.08,0.59,-1.80,-1.84,-1.83
209.35,-1.82,0.04,-1.89,-0.04,0.04,1.05,0.54,-1.78,-1.86,-1.86
211.44,-1.82,0.07,-1.94,-0.06,0.06,1.02,0.50,-1.76,-1.88,-1.89
213.56,-1.98,-0.08,-1.98,-0.09,0.09,0.99,0.46,-1.89,-1.89,-1.89
215.69,-2.05,-0.15,-2.03,-0.12,0.12,0.96,0.42,-1.93,-1.91,-1.90
217.85,-2.05,-0.12,-2.07,-0.15,0.15,0.93,0.38,-1.90,-1.93,-1.92
220.03,-2.14,-0.20,-2.11,-0.17,0.17,0.90,0.34,-1.97,-1.94,-1.94
222.23,-2.24,-0.27,-2.14,-0.19,0.19,0.87,0.31,-2.05,-1.95,-1.96
224.45,-2.28,-0.31,-2.17,-0.20,0.20,0.84,0.27,-2.08,-1.97,-1.97
226.70,-2.28,-0.31,-2.18,-0.21,0.21,0.81,0.23,-2.07,-1.98,-1.97
228.96,-2.28,-0.29,-2.19,-0.21,0.21,0.79,0.20,-2.07,-1.99,-1.98
231.25,-2.28,-0.29,-2.19,-0.20,0.20,0.76,0.16,-2.08,-1.99,-1.99
233.57,-2.25,-0.25,-2.19,-0.19,0.19,0.73,0.13,-2.06,-2.00,-2.00
235.90,-2.06,-0.05,-2.17,-0.17,0.17,0.70,0.10,-1.89,-2.00,-2.01
238.26,-2.05,-0.04,-2.13,-0.13,0.13,0.67,0.07,-1.92,-2.01,-2.01
240.64,-2.05,-0.03,-2.11,-0.10,0.10,0.65,0.04,-1.95,-2.01,-2.01
243.05,-2.05,-0.04,-2.08,-0.08,0.08,0.62,0.01,-1.97,-2.01,-2.00
245.48,-2.05,-0.04,-2.06,-0.06,0.06,0.59,-0.02,-1.99,-2.00,-2.00
247.93,-2.05,-0.05,-2.05,-0.05,0.05,0.56,-0.04,-2.00,-2.00,-1.99
250.41,-2.05,-0.04,-2.05,-0.05,0.05,0.54,-0.07,-2.00,-2.00,-2.00
252.92,-2.05,-0.06,-2.05,-0.06,0.06,0.51,-0.09,-1.99,-1.99,-1.99
255.45,-2.05,-0.08,-2.07,-0.08,0.08,0.48,-0.12,-1.96,-1.99,-1.97
258.00,-2.05,-0.08,-2.09,-0.11,0.11,0.45,-0.14,-1.94,-1.98,-1.97
260.58,-2.05,-0.08,-2.12,-0.15,0.15,0.43,-0.16,-1.89,-1.97,-1.97
263.19,-2.07,-0.11,-2.17,-0.21,0.21,0.40,-0.18,-1.85,-1.96,-1.96
265.82,-2.25,-0.29,-2.21,-0.26,0.26,0.37,-0.20,-1.99,-1.94,-1.95
268.48,-2.28,-0.35,-2.24,-0.31,0.31,0.35,-0.21,-1.97,-1.93,-1.93
271.16,-2.28,-0.36,-2.26,-0.35,0.35,0.32,-0.23,-1.93,-1.91,-1.92
273.87,-2.28,-0.37,-2.27,-0.37,0.37,0.29,-0.25,-1.90,-1.89,-1.90
276.61,-2.28,-0.41,-2.26,-0.39,0.39,0.26,-0.26,-1.89,-1.87,-1.87
279.38,-2.28,-0.42,-2.25,-0.40,0.40,0.24,-0.28,-1.88,-1.85,-1.86
282.17,-2.28,-0.44,-2.22,-0.39,0.39,0.21,-0.29,-1.89,-1.83,-1.83
284.99,-2.28,-0.47,-2.17,-0.37,0.37,0.18,-0.31,-1.91,-1.81,-1.81
287.84,-2.28,-0.49,-2.12,-0.34,0.34,0.15,-0.32,-1.94,-1.78,-1.78
290.72,-2.20,-0.45,-2.05,-0.30,0.30,0.12,-0.34,-1.90,-1.75,-1.75
293.63,-1.95,-0.22,-1.98,-0.25,0.25,0.09,-0.35,-1.70,-1.73,-1.73
296.57,-1.83,-0.13,-1.89,-0.18,0.18,0.07,-0.36,-1.64,-1.70,-1.70
299.53,-1.65,0.03,-1.80,-0.12,0.12,0.04,-0.38,-1.53,-1.68,-1.68
302.53,-1.59,0.07,-1.71,-0.05,0.05,0.01,-0.39,-1.54,-1.66,-1.66
305.55,-1.59,0.04,-1.62,0.02,-0.02,-0.02,-0.41,-1.61,-1.64,-1.62
308.61,-1.54,0.07,-1.53,0.09,-0.09,-0.05,-0.42,-1.63,-1.62,-1.61
311.69,-1.39,0.21,-1.45,0.16,-0.16,-0.08,-0.43,-1.55,-1.61,-1.59
314.81,-1.37,0.20,-1.37,0.22,-0.22,-0.11,-0.45,-1.59,-1.59,-1.57
317.96,-1.37,0.20,-1.31,0.27,-0.27,-0.14,-0.46,-1.64,-1.58,-1.57
321.14,-1.36,0.22,-1.27,0.30,-0.30,-0.17,-0.48,-1.66,-1.57,-1.57
324.35,-1.19,0.38,-1.24,0.32,-0.32,-0.20,-0.49,-1.51,-1.56,-1.57
327.59,-1.14,0.42,-1.22,0.34,-0.34,-0.24,-0.51,-1.47,-1.55,-1.56
330.87,-1.14,0.42,-1.19,0.35,-0.35,-0.27,-0.53,-1.49,-1.55,-1.55
334.18,-1.14,0.41,-1.17,0.37,-0.37,-0.30,-0.54,-1.51,-1.54,-1.55
337.52,-1.14,0.40,-1.13,0.39,-0.39,-0.33,-0.56,-1.53,-1.52,-1.54
340.90,-1.14,0.38,-1.10,0.41,-0.41,-0.37,-0.58,-1.55,-1.51,-1.51
344.30,-1.14,0.37,-1.08,0.42,-0.42,-0.40,-0.60,-1.56,-1.50,-1.51
347.75,-1.14,0.35,-1.06,0.42,-0.42,-0.43,-0.62,-1.55,-1.48,-1.49
351.23,-1.14,0.32,-1.05,0.42,-0.42,-0.47,-0.64,-1.55,-1.46,-1.46
354.74,-1.04,0.41,-1.03,0.41,-0.41,-0.50,-0.66,-1.45,-1.44,-1.44
358.28,-0.93,0.49,-1.01,0.41,-0.41,-0.54,-0.68,-1.34,-1.42,-1.42
361.87,-0.91,0.49,-0.99,0.41,-0.41,-0.57,-0.70,-1.32,-1.40,-1.40
365.49,-0.91,0.46,-0.96,0.41,-0.41,-0.61,-0.73,-1.32,-1.37,-1.37
369.14,-0.91,0.45,-0.93,0.42,-0.42,-0.64,-0.75,-1.33,-1.35,-1.35
372.83,-0.91,0.42,-0.91,0.42,-0.42,-0.68,-0.77,-1.33,-1.33,-1.33
376.56,-0.91,0.40,-0.88,0.43,-0.43,-0.72,-0.80,-1.34,-1.31,-1.31
380.33,-0.91,0.37,-0.84,0.45,-0.45,-0.75,-0.82,-1.36,-1.29,-1.28
384.13,-0.91,0.35,-0.82,0.46,-0.46,-0.79,-0.85,-1.37,-1.27,-1.26
387.97,-0.76,0.50,-0.79,0.47,-0.47,-0.83,-0.88,-1.23,-1.26,-1.25
391.85,-0.69,0.56,-0.75,0.49,-0.49,-0.86,-0.90,-1.18,-1.25,-1.24
395.77,-0.68,0.56,-0.72,0.51,-0.51,-0.90,-0.93,-1.19,-1.23,-1.24
399.73,-0.68,0.55,-0.69,0.54,-0.54,-0.94,-0.96,-1.21,-1.22,-1.23
403.72,-0.68,0.54,-0.65,0.57,-0.57,-0.97,-0.98,-1.25,-1.22,-1.22
407.76,-0.68,0.53,-0.60,0.61,-0.61,-1.01,-1.01,-1.29,-1.21,-1.21
411.84,-0.55,0.65,-0.54,0.66,-0.66,-1.05,-1.04,-1.21,-1.21,-1.20
415.96,-0.46,0.74,-0.49,0.71,-0.71,-1.08,-1.07,-1.17,-1.20,-1.19
420.12,-0.45,0.75,-0.44,0.76,-0.76,-1.12,-1.10,-1.21,-1.20,-1.19
424.32,-0.43,0.77,-0.38,0.81,-0.81,-1.15,-1.12,-1.24,-1.20,-1.20
