frequency,raw,error,smoothed,error_smoothed,equalization,parametric_eq,fixed_band_eq,equalized_raw,equalized_smoothed,target
20.00,4.02,-6.06,4.02,-6.06,6.04,5.71,1.91,10.06,10.06,10.07
20.20,4.08,-5.99,4.08,-5.99,5.98,5.68,1.97,10.06,10.06,10.06
20.40,4.14,-5.92,4.14,-5.92,5.92,5.65,2.03,10.06,10.06,10.05
20.61,4.20,-5.86,4.20,-5.85,5.86,5.62,2.09,10.05,10.05,10.05
20.81,4.26,-5.78,4.26,-5.78,5.80,5.59,2.15,10.05,10.05,10.03
21.02,4.32,-5.72,4.31,-5.72,5.74,5.56,2.21,10.05,10.05,10.03
21.23,4.37,-5.66,4.36,-5.67,5.68,5.53,2.28,10.04,10.04,10.02
21.44,4.41,-5.63,4.41,-5.62,5.62,5.50,2.35,10.03,10.03,10.03
21.66,4.45,-5.58,4.45,-5.57,5.57,5.46,2.42,10.01,10.01,10.02
21.87,4.50,-5.52,4.49,-5.52,5.51,5.43,2.49,10.01,10.00,10.01
22.09,4.54,-5.47,4.54,-5.46,5.46,5.40,2.57,9.99,10.00,10.00
22.31,4.60,-5.41,4.59,-5.41,5.40,5.36,2.64,10.00,9.99,10.00
22.54,4.65,-5.35,4.65,-5.35,5.35,5.33,2.72,9.99,9.99,9.99
22.76,4.70,-5.29,4.70,-5.28,5.29,5.29,2.80,9.99,9.99,9.98
22.99,4.76,-5.22,4.75,-5.22,5.23,5.26,2.88,9.99,9.99,9.97
23.22,4.80,-5.17,4.80,-5.17,5.18,5.22,2.97,9.98,9.98,9.96
23.45,4.85,-5.13,4.84,-5.12,5.13,5.18,3.05,9.97,9.97,9.97
23.69,4.89,-5.08,4.89,-5.08,5.07,5.14,3.14,9.96,9.96,9.96
23.92,4.94,-5.03,4.94,-5.03,5.02,5.11,3.23,9.96,9.96,9.96
24.16,5.00,-4.98,4.99,-4.98,4.96,5.07,3.32,9.96,9.96,9.97
24.40,5.06,-4.93,5.06,-4.92,4.91,5.03,3.41,9.96,9.97,9.98
24.65,5.13,-4.86,5.13,-4.86,4.85,4.99,3.51,9.97,9.98,9.98
24.89,5.20,-4.79,5.19,-4.79,4.79,4.95,3.60,9.99,9.99,9.98
25.14,5.26,-4.72,5.25,-4.72,4.74,4.91,3.70,9.99,9.99,9.97
25.39,5.31,-4.67,5.31,-4.67,4.68,4.86,3.79,9.99,9.99,9.97
25.65,5.35,-4.63,5.35,-4.62,4.64,4.82,3.89,9.98,9.99,9.97
25.91,5.40,-4.59,5.39,-4.59,4.59,4.78,3.98,9.99,9.99,9.98
26.16,5.44,-4.56,5.43,-4.56,4.56,4.74,4.08,9.99,9.99,9.99
26.43,5.47,-4.53,5.47,-4.53,4.52,4.69,4.17,9.99,9.99,9.99
26.69,5.50,-4.50,5.50,-4.50,4.49,4.65,4.26,9.99,9.99,9.99
26.96,5.53,-4.46,5.53,-4.46,4.46,4.60,4.35,9.99,9.99,9.98
27.23,5.56,-4.43,5.56,-4.42,4.42,4.56,4.44,9.98,9.98,9.98
27.50,5.61,-4.38,5.60,-4.39,4.38,4.51,4.53,9.98,9.98,9.98
27.77,5.65,-4.35,5.64,-4.35,4.33,4.47,4.61,9.97,9.97,9.99
28.05,5.69,-4.31,5.70,-4.29,4.27,4.42,4.68,9.96,9.97,9.99
28.33,5.76,-4.22,5.76,-4.22,4.22,4.37,4.76,9.97,9.97,9.97
28.62,5.83,-4.15,5.83,-4.15,4.16,4.33,4.82,9.99,9.99,9.97
28.90,5.91,-4.08,5.89,-4.08,4.11,4.28,4.88,10.01,10.00,9.98
29.19,5.95,-4.04,5.94,-4.03,4.06,4.23,4.94,10.00,10.00,9.98
29.48,5.98,-4.00,5.98,-4.00,4.01,4.18,4.98,9.99,9.99,9.97
29.78,6.01,-3.97,6.01,-3.97,3.97,4.13,5.02,9.97,9.98,9.97
30.08,6.04,-3.95,6.04,-3.94,3.93,4.08,5.05,9.97,9.97,9.98
30.38,6.07,-3.91,6.06,-3.91,3.90,4.03,5.07,9.96,9.96,9.97
30.68,6.10,-3.86,6.10,-3.87,3.86,3.98,5.09,9.96,9.95,9.95
30.99,6.13,-3.83,6.13,-3.82,3.82,3.93,5.09,9.94,9.95,9.95
31.30,6.17,-3.78,6.16,-3.78,3.77,3.88,5.08,9.94,9.94,9.94
31.61,6.21,-3.73,6.20,-3.73,3.72,3.83,5.07,9.93,9.93,9.93
31.93,6.25,-3.68,6.25,-3.68,3.67,3.78,5.05,9.91,9.92,9.92
32.24,6.30,-3.63,6.30,-3.62,3.62,3.73,5.01,9.91,9.92,9.92
32.57,6.36,-3.55,6.35,-3.56,3.56,3.67,4.97,9.92,9.92,9.90
32.89,6.41,-3.50,6.40,-3.50,3.51,3.62,4.92,9.92,9.92,9.90
33.22,6.45,-3.46,6.45,-3.45,3.46,3.57,4.87,9.91,9.91,9.90
33.55,6.49,-3.41,6.48,-3.42,3.42,3.52,4.80,9.91,9.90,9.89
33.89,6.52,-3.39,6.52,-3.38,3.38,3.46,4.73,9.89,9.89,9.90
34.23,6.55,-3.34,6.55,-3.34,3.34,3.41,4.65,9.88,9.88,9.88
34.57,6.59,-3.30,6.58,-3.30,3.30,3.35,4.57,9.88,9.88,9.88
34.92,6.62,-3.26,6.62,-3.26,3.26,3.30,4.48,9.87,9.87,9.87
35.27,6.66,-3.23,6.66,-3.22,3.22,3.24,4.38,9.87,9.87,9.88
35.62,6.70,-3.17,6.70,-3.17,3.17,3.19,4.28,9.87,9.87,9.86
35.97,6.74,-3.13,6.73,-3.13,3.13,3.13,4.18,9.87,9.86,9.86
36.33,6.77,-3.08,6.77,-3.08,3.08,3.08,4.08,9.85,9.85,9.84
36.70,6.80,-3.04,6.80,-3.03,3.03,3.02,3.97,9.83,9.83,9.83
37.06,6.84,-2.98,6.83,-2.98,2.98,2.96,3.86,9.82,9.81,9.81
37.43,6.87,-2.93,6.86,-2.93,2.92,2.91,3.75,9.79,9.79,9.79
37.81,6.89,-2.89,6.89,-2.88,2.87,2.85,3.64,9.76,9.76,9.77
38.19,6.93,-2.82,6.93,-2.82,2.81,2.79,3.53,9.74,9.74,9.74
38.57,6.98,-2.75,6.98,-2.74,2.75,2.73,3.42,9.73,9.73,9.72
38.95,7.03,-2.67,7.01,-2.68,2.69,2.68,3.31,9.72,9.70,9.69
39.34,7.05,-2.61,7.04,-2.62,2.62,2.62,3.20,9.67,9.66,9.65
39.74,7.05,-2.59,7.06,-2.57,2.56,2.56,3.09,9.60,9.61,9.63
40.14,7.08,-2.53,7.10,-2.51,2.49,2.50,2.98,9.57,9.59,9.60
40.54,7.16,-2.43,7.15,-2.43,2.43,2.44,2.87,9.59,9.58,9.58
40.94,7.23,-2.33,7.20,-2.35,2.37,2.38,2.76,9.60,9.57,9.55
41.35,7.24,-2.30,7.23,-2.29,2.31,2.32,2.66,9.55,9.55,9.53
41.76,7.24,-2.26,7.25,-2.25,2.26,2.27,2.55,9.49,9.50,9.49
42.18,7.26,-2.22,7.27,-2.21,2.20,2.21,2.45,9.46,9.47,9.47
42.60,7.30,-2.16,7.30,-2.15,2.15,2.15,2.35,9.44,9.44,9.45
43.03,7.34,-2.09,7.32,-2.10,2.10,2.09,2.25,9.43,9.42,9.42
43.46,7.35,-2.05,7.35,-2.05,2.05,2.03,2.15,9.40,9.40,9.39
43.90,7.36,-2.02,7.37,-2.00,2.01,1.97,2.05,9.36,9.37,9.37
44.33,7.39,-1.95,7.39,-1.95,1.96,1.90,1.96,9.35,9.35,9.33
44.78,7.42,-1.89,7.41,-1.90,1.91,1.84,1.86,9.32,9.32,9.30
45.23,7.44,-1.86,7.43,-1.85,1.85,1.78,1.77,9.29,9.28,9.29
45.68,7.44,-1.81,7.44,-1.81,1.79,1.72,1.68,9.23,9.23,9.24
46.13,7.45,-1.76,7.46,-1.75,1.73,1.66,1.59,9.17,9.19,9.20
46.60,7.50,-1.68,7.49,-1.68,1.66,1.60,1.50,9.15,9.15,9.17
47.06,7.55,-1.59,7.54,-1.59,1.59,1.54,1.42,9.14,9.14,9.13
47.53,7.59,-1.52,7.59,-1.50,1.52,1.48,1.33,9.11,9.12,9.10
48.01,7.64,-1.41,7.62,-1.42,1.45,1.41,1.25,9.09,9.08,9.04
48.49,7.64,-1.36,7.64,-1.36,1.38,1.35,1.17,9.02,9.02,8.99
48.97,7.64,-1.32,7.64,-1.31,1.31,1.29,1.09,8.95,8.95,8.95
49.46,7.64,-1.28,7.63,-1.27,1.25,1.23,1.01,8.88,8.88,8.91
49.96,7.64,-1.21,7.65,-1.20,1.18,1.16,0.93,8.82,8.83,8.84
50.46,7.69,-1.12,7.69,-1.12,1.11,1.10,0.86,8.80,8.80,8.80
50.96,7.74,-1.03,7.72,-1.04,1.05,1.04,0.78,8.78,8.76,8.76
51.47,7.75,-0.98,7.75,-0.97,0.98,0.98,0.71,8.72,8.73,8.72
51.99,7.76,-0.92,7.77,-0.91,0.91,0.91,0.64,8.67,8.68,8.67
52.51,7.80,-0.84,7.80,-0.84,0.84,0.85,0.57,8.64,8.64,8.63
53.03,7.84,-0.77,7.82,-0.77,0.78,0.79,0.49,8.62,8.60,8.60
53.56,7.84,-0.71,7.84,-0.71,0.72,0.72,0.43,8.56,8.56,8.54
54.10,7.84,-0.66,7.84,-0.66,0.66,0.66,0.36,8.50,8.51,8.49
54.64,7.84,-0.62,7.83,-0.61,0.61,0.60,0.29,8.44,8.44,8.45
55.18,7.84,-0.56,7.83,-0.56,0.55,0.53,0.23,8.38,8.38,8.39
55.74,7.84,-0.51,7.85,-0.50,0.49,0.47,0.16,8.32,8.34,8.34
56.29,7.87,-0.45,7.88,-0.43,0.43,0.40,0.10,8.29,8.30,8.31
56.86,7.93,-0.35,7.90,-0.36,0.36,0.34,0.04,8.29,8.26,8.27
57.42,7.94,-0.28,7.93,-0.29,0.30,0.28,-0.02,8.23,8.23,8.21
58.00,7.94,-0.25,7.96,-0.22,0.23,0.21,-0.08,8.17,8.19,8.18
58.58,8.00,-0.16,7.99,-0.16,0.16,0.15,-0.14,8.16,8.15,8.15
59.16,8.04,-0.08,8.02,-0.09,0.10,0.08,-0.20,8.13,8.12,8.11
59.76,8.04,-0.04,8.04,-0.03,0.03,0.02,-0.26,8.07,8.07,8.07
60.35,8.04,0.03,8.04,0.03,-0.03,-0.05,-0.31,8.01,8.01,8.00
60.96,8.04,0.08,8.04,0.09,-0.09,-0.11,-0.37,7.95,7.95,7.95
61.57,8.04,0.15,8.04,0.15,-0.15,-0.18,-0.42,7.88,7.88,7.88
62.18,8.04,0.22,8.04,0.22,-0.22,-0.24,-0.48,7.82,7.82,7.81
62.80,8.04,0.28,8.03,0.28,-0.29,-0.31,-0.53,7.75,7.74,7.75
63.43,8.04,0.34,8.04,0.34,-0.36,-0.37,-0.58,7.68,7.68,7.69
64.07,8.05,0.40,8.06,0.42,-0.43,-0.44,-0.63,7.62,7.64,7.64
64.71,8.11,0.52,8.10,0.51,-0.51,-0.50,-0.68,7.60,7.59,7.58
65.35,8.14,0.61,8.12,0.59,-0.59,-0.57,-0.73,7.55,7.53,7.52
66.01,8.14,0.67,8.14,0.67,-0.67,-0.63,-0.78,7.47,7.47,7.46
66.67,8.14,0.71,8.15,0.74,-0.75,-0.70,-0.83,7.38,7.40,7.42
67.33,8.17,0.82,8.18,0.83,-0.83,-0.76,-0.87,7.33,7.34,7.34
68.01,8.23,0.93,8.21,0.92,-0.91,-0.83,-0.92,7.31,7.30,7.29
68.69,8.24,1.01,8.23,1.01,-0.99,-0.89,-0.97,7.25,7.25,7.22
69.37,8.24,1.06,8.24,1.07,-1.06,-0.96,-1.02,7.18,7.18,7.17
70.07,8.24,1.13,8.24,1.13,-1.13,-1.02,-1.07,7.10,7.10,7.10
70.77,8.24,1.19,8.24,1.20,-1.20,-1.09,-1.11,7.03,7.03,7.04
71.48,8.24,1.26,8.24,1.26,-1.27,-1.16,-1.16,6.97,6.97,6.97
72.19,8.24,1.33,8.24,1.33,-1.33,-1.22,-1.21,6.90,6.90,6.90
72.91,8.24,1.39,8.24,1.40,-1.40,-1.29,-1.26,6.84,6.84,6.84
73.64,8.24,1.46,8.24,1.46,-1.46,-1.35,-1.31,6.78,6.78,6.77
74.38,8.24,1.52,8.24,1.52,-1.52,-1.42,-1.36,6.71,6.71,6.71
75.12,8.24,1.59,8.24,1.59,-1.58,-1.48,-1.41,6.66,6.66,6.64
75.87,8.24,1.63,8.24,1.64,-1.64,-1.55,-1.46,6.60,6.60,6.60
76.63,8.24,1.70,8.24,1.70,-1.69,-1.61,-1.52,6.54,6.54,6.53
77.40,8.24,1.75,8.24,1.75,-1.75,-1.68,-1.57,6.49,6.49,6.48
78.17,8.24,1.81,8.24,1.81,-1.81,-1.75,-1.63,6.43,6.43,6.42
78.95,8.24,1.85,8.23,1.86,-1.87,-1.81,-1.68,6.37,6.36,6.38
79.74,8.24,1.91,8.24,1.91,-1.94,-1.88,-1.74,6.30,6.30,6.32
80.54,8.25,1.98,8.26,1.99,-2.00,-1.94,-1.80,6.24,6.25,6.26
81.35,8.29,2.07,8.29,2.08,-2.07,-2.01,-1.86,6.21,6.21,6.21
82.16,8.34,2.17,8.32,2.16,-2.15,-2.07,-1.92,6.19,6.17,6.16
82.98,8.34,2.23,8.34,2.23,-2.22,-2.14,-1.99,6.12,6.12,6.10
83.81,8.34,2.29,8.34,2.30,-2.29,-2.21,-2.05,6.05,6.05,6.04
84.65,8.34,2.35,8.34,2.36,-2.35,-2.27,-2.12,5.98,5.98,5.98
85.50,8.34,2.42,8.34,2.42,-2.42,-2.34,-2.19,5.92,5.92,5.91
86.35,8.34,2.48,8.34,2.48,-2.48,-2.40,-2.26,5.85,5.85,5.85
87.22,8.34,2.53,8.34,2.54,-2.54,-2.47,-2.33,5.79,5.79,5.80
88.09,8.34,2.60,8.34,2.60,-2.61,-2.53,-2.41,5.73,5.73,5.73
88.97,8.35,2.66,8.34,2.67,-2.67,-2.60,-2.48,5.68,5.67,5.68
89.86,8.35,2.74,8.35,2.74,-2.73,-2.66,-2.56,5.61,5.61,5.60
90.76,8.35,2.80,8.35,2.80,-2.80,-2.73,-2.64,5.55,5.55,5.54
91.66,8.35,2.87,8.35,2.87,-2.87,-2.79,-2.72,5.48,5.48,5.47
92.58,8.35,2.93,8.35,2.93,-2.94,-2.86,-2.81,5.41,5.41,5.41
93.51,8.35,3.00,8.35,3.00,-3.01,-2.92,-2.89,5.34,5.34,5.34
94.44,8.35,3.07,8.35,3.08,-3.08,-2.98,-2.98,5.26,5.26,5.27
95.39,8.35,3.15,8.35,3.15,-3.16,-3.05,-3.07,5.19,5.19,5.19
96.34,8.35,3.23,8.34,3.23,-3.23,-3.11,-3.16,5.12,5.11,5.11
97.30,8.34,3.30,8.34,3.31,-3.30,-3.18,-3.25,5.03,5.03,5.03
98.28,8.33,3.38,8.33,3.39,-3.38,-3.24,-3.35,4.95,4.95,4.94
99.26,8.32,3.46,8.31,3.45,-3.45,-3.30,-3.44,4.86,4.86,4.85
100.25,8.30,3.52,8.30,3.52,-3.52,-3.37,-3.54,4.77,4.77,4.77
101.25,8.28,3.57,8.28,3.59,-3.59,-3.43,-3.63,4.68,4.69,4.70
102.27,8.27,3.65,8.27,3.65,-3.66,-3.49,-3.73,4.61,4.61,4.61
103.29,8.26,3.72,8.25,3.71,-3.71,-3.56,-3.83,4.54,4.54,4.53
104.32,8.24,3.77,8.24,3.78,-3.76,-3.62,-3.93,4.48,4.48,4.46
105.37,8.21,3.82,8.21,3.83,-3.81,-3.68,-4.03,4.40,4.40,4.38
106.42,8.18,3.88,8.16,3.86,-3.85,-3.74,-4.12,4.32,4.31,4.29
107.48,8.10,3.89,8.10,3.89,-3.90,-3.80,-4.22,4.20,4.21,4.20
108.56,8.04,3.89,8.05,3.92,-3.94,-3.87,-4.32,4.10,4.11,4.14
109.64,8.02,3.96,8.01,3.96,-3.98,-3.93,-4.41,4.03,4.03,4.05
110.74,8.00,4.02,7.99,4.01,-4.02,-3.99,-4.50,3.97,3.97,3.97
111.85,7.98,4.07,7.98,4.08,-4.07,-4.05,-4.59,3.91,3.92,3.90
112.97,7.97,4.13,7.96,4.13,-4.12,-4.11,-4.68,3.85,3.85,3.83
114.10,7.96,4.19,7.94,4.18,-4.17,-4.17,-4.76,3.79,3.77,3.76
115.24,7.90,4.21,7.91,4.22,-4.23,-4.23,-4.84,3.67,3.68,3.68
116.39,7.88,4.27,7.88,4.27,-4.28,-4.29,-4.91,3.59,3.60,3.60
117.55,7.87,4.32,7.86,4.33,-4.34,-4.34,-4.98,3.52,3.52,3.54
118.73,7.87,4.40,7.87,4.40,-4.40,-4.40,-5.05,3.46,3.47,3.46
119.92,7.88,4.47,7.88,4.47,-4.46,-4.46,-5.11,3.41,3.41,3.40
121.12,7.89,4.53,7.88,4.54,-4.53,-4.52,-5.17,3.36,3.35,3.35
122.33,7.90,4.61,7.89,4.60,-4.60,-4.57,-5.21,3.30,3.29,3.28
123.55,7.90,4.66,7.90,4.67,-4.68,-4.63,-5.26,3.22,3.22,3.23
124.79,7.91,4.73,7.91,4.74,-4.75,-4.69,-5.29,3.15,3.16,3.17
126.03,7.92,4.81,7.91,4.81,-4.82,-4.74,-5.33,3.09,3.09,3.10
127.29,7.93,4.88,7.92,4.88,-4.89,-4.80,-5.35,3.04,3.04,3.04
128.57,7.93,4.94,7.93,4.95,-4.94,-4.85,-5.37,2.99,2.99,2.98
129.85,7.94,5.02,7.94,5.03,-4.98,-4.91,-5.38,2.95,2.96,2.91
131.15,7.94,5.08,7.92,5.07,-5.02,-4.96,-5.39,2.91,2.90,2.85
132.46,7.90,5.10,7.87,5.08,-5.06,-5.01,-5.40,2.84,2.81,2.79
133.79,7.79,5.05,7.81,5.08,-5.09,-5.06,-5.39,2.69,2.72,2.73
135.12,7.75,5.07,7.76,5.08,-5.13,-5.11,-5.39,2.62,2.64,2.67
136.48,7.76,5.12,7.74,5.12,-5.16,-5.16,-5.38,2.59,2.58,2.63
137.84,7.76,5.18,7.75,5.19,-5.20,-5.21,-5.37,2.55,2.55,2.57
139.22,7.76,5.26,7.76,5.25,-5.25,-5.26,-5.35,2.50,2.50,2.49
140.61,7.76,5.30,7.76,5.31,-5.31,-5.31,-5.33,2.45,2.45,2.45
142.02,7.76,5.36,7.76,5.37,-5.36,-5.36,-5.31,2.40,2.40,2.39
143.44,7.76,5.43,7.76,5.43,-5.41,-5.41,-5.29,2.35,2.35,2.32
144.87,7.76,5.48,7.76,5.48,-5.45,-5.45,-5.27,2.31,2.31,2.27
146.32,7.75,5.52,7.74,5.52,-5.48,-5.50,-5.25,2.26,2.25,2.22
147.78,7.70,5.53,7.69,5.52,-5.51,-5.54,-5.22,2.19,2.18,2.16
149.26,7.63,5.51,7.63,5.52,-5.53,-5.59,-5.20,2.09,2.10,2.11
150.75,7.57,5.52,7.58,5.53,-5.56,-5.63,-5.18,2.00,2.02,2.04
152.26,7.56,5.55,7.56,5.56,-5.60,-5.67,-5.16,1.96,1.96,2.00
153.78,7.56,5.61,7.55,5.61,-5.63,-5.71,-5.14,1.92,1.92,1.94
155.32,7.56,5.66,7.56,5.66,-5.67,-5.75,-5.13,1.88,1.88,1.89
156.88,7.56,5.72,7.56,5.73,-5.72,-5.79,-5.11,1.84,1.84,1.83
158.44,7.56,5.78,7.56,5.78,-5.76,-5.83,-5.10,1.80,1.80,1.77
160.03,7.56,5.84,7.55,5.84,-5.80,-5.86,-5.09,1.76,1.75,1.71
161.63,7.53,5.87,7.52,5.87,-5.84,-5.90,-5.09,1.69,1.68,1.65
163.24,7.48,5.89,7.47,5.88,-5.88,-5.94,-5.08,1.60,1.59,1.58
164.88,7.40,5.86,7.41,5.88,-5.91,-5.97,-5.08,1.49,1.50,1.53
166.53,7.36,5.89,7.37,5.90,-5.94,-6.00,-5.09,1.42,1.43,1.46
168.19,7.35,5.93,7.34,5.93,-5.96,-6.03,-5.10,1.39,1.38,1.41
169.87,7.34,5.98,7.34,5.99,-5.98,-6.06,-5.11,1.36,1.36,1.35
171.57,7.33,6.04,7.32,6.04,-6.00,-6.09,-5.12,1.32,1.32,1.28
173.29,7.31,6.08,7.29,6.06,-6.03,-6.12,-5.14,1.28,1.26,1.22
175.02,7.24,6.06,7.24,6.07,-6.05,-6.15,-5.17,1.18,1.18,1.17
176.77,7.18,6.05,7.18,6.06,-6.08,-6.17,-5.19,1.10,1.10,1.12
178.54,7.13,6.06,7.13,6.07,-6.11,-6.20,-5.22,1.02,1.03,1.06
180.32,7.12,6.11,7.12,6.11,-6.13,-6.22,-5.26,0.99,0.99,1.00
182.13,7.12,6.15,7.12,6.16,-6.15,-6.24,-5.30,0.96,0.96,0.96
183.95,7.13,6.21,7.11,6.19,-6.18,-6.26,-5.34,0.94,0.92,0.91
185.79,7.09,6.22,7.09,6.23,-6.22,-6.28,-5.39,0.87,0.87,0.86
187.65,7.06,6.23,7.08,6.26,-6.25,-6.30,-5.44,0.80,0.83,0.82
189.52,7.08,6.30,7.06,6.28,-6.29,-6.32,-5.49,0.79,0.77,0.77
191.42,7.07,6.32,7.05,6.32,-6.32,-6.33,-5.55,0.75,0.73,0.74
193.33,7.03,6.33,7.04,6.35,-6.35,-6.34,-5.61,0.68,0.70,0.69
195.27,7.02,6.37,7.02,6.37,-6.37,-6.36,-5.68,0.65,0.65,0.64
197.22,7.01,6.41,6.99,6.40,-6.38,-6.37,-5.75,0.62,0.61,0.59
199.19,6.96,6.39,6.97,6.41,-6.40,-6.38,-5.82,0.56,0.57,0.56
201.18,6.94,6.42,6.93,6.41,-6.41,-6.39,-5.89,0.52,0.51,0.51
203.19,6.89,6.40,6.89,6.41,-6.43,-6.39,-5.97,0.46,0.46,0.48
205.23,6.86,6.41,6.87,6.43,-6.44,-6.40,-6.04,0.42,0.44,0.44
207.28,6.86,6.44,6.84,6.44,-6.44,-6.40,-6.12,0.42,0.40,0.41
209.35,6.84,6.46,6.82,6.45,-6.44,-6.40,-6.20,0.39,0.38,0.37
211.44,6.77,6.44,6.79,6.46,-6.44,-6.41,-6.28,0.33,0.35,0.32
213.56,6.75,6.45,6.74,6.45,-6.44,-6.40,-6.36,0.31,0.31,0.29
215.69,6.71,6.45,6.69,6.44,-6.43,-6.40,-6.44,0.27,0.26,0.25
217.85,6.64,6.41,6.63,6.42,-6.42,-6.40,-6.52,0.21,0.21,0.22
220.03,6.57,6.39,6.58,6.40,-6.41,-6.39,-6.60,0.15,0.16,0.17
222.23,6.53,6.37,6.54,6.39,-6.41,-6.39,-6.67,0.12,0.14,0.15
224.45,6.53,6.40,6.51,6.39,-6.40,-6.38,-6.74,0.13,0.11,0.12
226.70,6.51,6.41,6.49,6.39,-6.39,-6.37,-6.81,0.12,0.10,0.09
228.96,6.44,6.36,6.47,6.39,-6.38,-6.36,-6.87,0.05,0.08,0.07
231.25,6.44,6.37,6.43,6.38,-6.37,-6.35,-6.92,0.06,0.06,0.06
233.57,6.43,6.39,6.41,6.37,-6.36,-6.33,-6.97,0.07,0.05,0.03
235.90,6.37,6.34,6.38,6.36,-6.34,-6.32,-7.01,0.02,0.04,0.02
238.26,6.35,6.34,6.34,6.33,-6.32,-6.30,-7.05,0.02,0.02,0.00
240.64,6.31,6.29,6.30,6.30,-6.30,-6.28,-7.07,0.01,0.01,0.01
243.05,6.27,6.26,6.27,6.27,-6.28,-6.26,-7.09,-0.01,-0.01,0.00
245.48,6.24,6.25,6.23,6.24,-6.26,-6.24,-7.10,-0.02,-0.03,-0.02
247.93,6.19,6.21,6.20,6.22,-6.24,-6.22,-7.10,-0.05,-0.04,-0.03
250.41,6.18,6.19,6.19,6.21,-6.22,-6.20,-7.08,-0.04,-0.03,-0.02
252.92,6.19,6.20,6.18,6.20,-6.20,-6.17,-7.06,-0.01,-0.02,-0.02
255.45,6.18,6.21,6.16,6.19,-6.18,-6.15,-7.03,-0.00,-0.02,-0.04
258.00,6.13,6.17,6.12,6.17,-6.16,-6.12,-6.99,-0.03,-0.04,-0.05
260.58,6.07,6.12,6.08,6.14,-6.13,-6.09,-6.94,-0.07,-0.05,-0.06
263.19,6.03,6.09,6.04,6.10,-6.10,-6.06,-6.89,-0.08,-0.07,-0.07
265.82,6.02,6.10,5.99,6.07,-6.07,-6.03,-6.82,-0.05,-0.07,-0.09
268.48,5.94,6.02,5.94,6.03,-6.02,-5.99,-6.75,-0.09,-0.08,-0.09
271.16,5.88,5.98,5.88,5.98,-5.98,-5.96,-6.66,-0.10,-0.10,-0.11
273.87,5.81,5.92,5.80,5.92,-5.93,-5.92,-6.58,-0.13,-0.13,-0.12
276.61,5.74,5.87,5.74,5.88,-5.89,-5.89,-6.48,-0.15,-0.15,-0.14
279.38,5.68,5.84,5.68,5.84,-5.85,-5.85,-6.39,-0.17,-0.17,-0.17
282.17,5.63,5.79,5.63,5.80,-5.80,-5.81,-6.28,-0.18,-0.17,-0.17
284.99,5.61,5.77,5.60,5.77,-5.77,-5.77,-6.18,-0.16,-0.16,-0.17
287.84,5.57,5.73,5.56,5.73,-5.73,-5.73,-6.07,-0.17,-0.17,-0.17
290.72,5.53,5.71,5.51,5.69,-5.70,-5.68,-5.96,-0.17,-0.19,-0.19
293.63,5.45,5.62,5.48,5.66,-5.67,-5.64,-5.85,-0.22,-0.18,-0.18
296.57,5.45,5.62,5.46,5.64,-5.63,-5.59,-5.73,-0.18,-0.17,-0.18
299.53,5.47,5.65,5.42,5.60,-5.59,-5.55,-5.62,-0.13,-0.18,-0.19
302.53,5.38,5.55,5.39,5.57,-5.55,-5.50,-5.51,-0.18,-0.17,-0.18
305.55,5.30,5.48,5.33,5.52,-5.51,-5.45,-5.39,-0.21,-0.17,-0.19
308.61,5.30,5.47,5.27,5.45,-5.46,-5.40,-5.28,-0.16,-0.19,-0.18
311.69,5.23,5.42,5.22,5.41,-5.40,-5.35,-5.17,-0.18,-0.19,-0.20
314.81,5.14,5.32,5.17,5.36,-5.35,-5.30,-5.06,-0.21,-0.18,-0.19
317.96,5.11,5.31,5.09,5.29,-5.29,-5.25,-4.95,-0.18,-0.20,-0.21
321.14,5.05,5.24,5.02,5.22,-5.23,-5.19,-4.85,-0.19,-0.21,-0.20
324.35,4.93,5.13,4.96,5.16,-5.18,-5.14,-4.75,-0.25,-0.21,-0.21
327.59,4.91,5.10,4.90,5.10,-5.12,-5.09,-4.65,-0.22,-0.22,-0.20
330.87,4.86,5.06,4.85,5.05,-5.07,-5.03,-4.55,-0.21,-0.22,-0.21
334.18,4.81,5.02,4.81,5.02,-5.01,-4.97,-4.45,-0.20,-0.20,-0.22
337.52,4.75,4.95,4.76,4.97,-4.95,-4.91,-4.36,-0.21,-0.19,-0.21
340.90,4.71,4.92,4.70,4.91,-4.89,-4.86,-4.27,-0.19,-0.19,-0.22
344.30,4.65,4.85,4.63,4.84,-4.83,-4.80,-4.19,-0.19,-0.20,-0.21
347.75,4.55,4.74,4.56,4.77,-4.77,-4.74,-4.11,-0.22,-0.20,-0.20
351.23,4.49,4.70,4.49,4.69,-4.70,-4.68,-4.03,-0.21,-0.21,-0.22
354.74,4.43,4.62,4.42,4.62,-4.63,-4.61,-3.95,-0.20,-0.21,-0.20
358.28,4.35,4.54,4.35,4.55,-4.56,-4.55,-3.88,-0.21,-0.20,-0.20
361.87,4.30,4.49,4.29,4.48,-4.49,-4.49,-3.80,-0.19,-0.20,-0.20
365.49,4.23,4.41,4.24,4.42,-4.42,-4.43,-3.74,-0.19,-0.18,-0.19
369.14,4.18,4.35,4.18,4.36,-4.35,-4.36,-3.67,-0.17,-0.17,-0.18
372.83,4.14,4.30,4.11,4.29,-4.28,-4.30,-3.61,-0.15,-0.17,-0.17
376.56,4.04,4.21,4.05,4.23,-4.22,-4.23,-3.55,-0.18,-0.16,-0.18
380.33,3.98,4.15,3.98,4.15,-4.15,-4.17,-3.50,-0.17,-0.17,-0.18
384.13,3.93,4.09,3.90,4.07,-4.09,-4.10,-3.44,-0.16,-0.19,-0.17
387.97,3.82,3.98,3.84,4.01,-4.02,-4.03,-3.39,-0.21,-0.18,-0.17
391.85,3.77,3.94,3.78,3.96,-3.96,-3.96,-3.34,-0.19,-0.18,-0.18
395.77,3.75,3.93,3.71,3.89,-3.90,-3.90,-3.29,-0.15,-0.19,-0.19
399.73,3.64,3.82,3.65,3.84,-3.83,-3.83,-3.25,-0.19,-0.18,-0.19
403.72,3.56,3.73,3.59,3.78,-3.76,-3.76,-3.21,-0.20,-0.16,-0.18
407.76,3.55,3.74,3.51,3.70,-3.68,-3.69,-3.17,-0.14,-0.18,-0.20
411.84,3.44,3.64,3.42,3.62,-3.60,-3.62,-3.13,-0.17,-0.19,-0.21
415.96,3.29,3.49,3.32,3.53,-3.52,-3.55,-3.09,-0.24,-0.20,-0.21
420.12,3.22,3.43,3.22,3.43,-3.44,-3.48,-3.05,-0.23,-0.23,-0.22
424.32,3.16,3.36,3.15,3.35,-3.37,-3.41,-3.02,-0.21,-0.22,-0.21
428.56,3.10,3.28,3.09,3.28,-3.30,-3.34,-2.99,-0.20,-0.21,-0.19
432.85,3.04,3.20,3.05,3.22,-3.24,-3.26,-2.95,-0.20,-0.19,-0.17
437.18,3.01,3.16,3.02,3.17,-3.18,-3.19,-2.92,-0.17,-0.16,-0.16
441.55,3.02,3.14,3.00,3.13,-3.12,-3.12,-2.89,-0.11,-0.12,-0.13
445.96,3.00,3.08,3.00,3.09,-3.07,-3.05,-2.85,-0.08,-0.07,-0.09
450.42,3.00,3.04,3.00,3.04,-3.02,-2.97,-2.82,-0.03,-0.03,-0.05
454.93,3.00,2.99,2.99,2.98,-2.97,-2.90,-2.79,0.02,0.01,0.00
459.48,2.98,2.91,2.99,2.92,-2.92,-2.83,-2.75,0.05,0.06,0.06
464.07,2.99,2.85,2.98,2.85,-2.87,-2.75,-2.72,0.12,0.11,0.13
468.71,2.98,2.79,2.98,2.79,-2.80,-2.68,-2.68,0.18,0.17,0.18
473.40,2.97,2.72,2.97,2.73,-2.73,-2.60,-2.64,0.24,0.25,0.24
478.13,2.97,2.66,2.96,2.67,-2.65,-2.53,-2.60,0.32,0.32,0.30
482.91,2.95,2.59,2.94,2.60,-2.57,-2.45,-2.56,0.38,0.37,0.35
487.74,2.91,2.52,2.90,2.51,-2.49,-2.38,-2.52,0.42,0.41,0.38
492.62,2.83,2.40,2.82,2.40,-2.40,-2.30,-2.47,0.42,0.42,0.42
497.55,2.74,2.27,2.75,2.29,-2.32,-2.23,-2.43,0.42,0.43,0.46
502.52,2.68,2.19,2.70,2.21,-2.23,-2.15,-2.38,0.45,0.47,0.48
507.55,2.67,2.15,2.65,2.14,-2.15,-2.08,-2.32,0.52,0.50,0.51
512.62,2.62,2.09,2.60,2.07,-2.07,-2.00,-2.27,0.55,0.53,0.52
517.75,2.52,1.98,2.53,2.00,-1.99,-1.93,-2.21,0.52,0.54,0.53
522.93,2.44,1.90,2.45,1.92,-1.93,-1.85,-2.16,0.51,0.52,0.53
528.16,2.37,1.85,2.36,1.85,-1.86,-1.78,-2.10,0.51,0.50,0.51
533.44,2.29,1.79,2.28,1.79,-1.79,-1.70,-2.03,0.50,0.50,0.49
