frequency,raw,error,smoothed,error_smoothed,equalization,parametric_eq,fixed_band_eq,equalized_raw,equalized_smoothed,target
20.00,4.02,-7.75,4.04,-7.73,7.73,7.35,2.78,11.74,11.77,11.77
20.20,4.08,-7.68,4.09,-7.67,7.67,7.33,2.86,11.74,11.76,11.75
20.40,4.14,-7.61,4.14,-7.61,7.61,7.31,2.94,11.74,11.75,11.74
20.61,4.20,-7.55,4.19,-7.55,7.55,7.28,3.02,11.74,11.74,11.74
20.81,4.26,-7.47,4.24,-7.49,7.49,7.26,3.11,11.74,11.73,11.72
21.02,4.32,-7.41,4.29,-7.43,7.43,7.23,3.20,11.75,11.72,11.72
21.23,4.37,-7.34,4.34,-7.37,7.37,7.20,3.29,11.74,11.71,11.71
21.44,4.41,-7.31,4.39,-7.31,7.31,7.17,3.39,11.72,11.71,11.72
21.66,4.45,-7.26,4.44,-7.25,7.25,7.15,3.49,11.70,11.70,11.71
21.87,4.50,-7.20,4.50,-7.20,7.20,7.12,3.59,11.69,11.69,11.70
22.09,4.54,-7.15,4.55,-7.14,7.14,7.09,3.69,11.68,11.69,11.69
22.31,4.60,-7.09,4.60,-7.08,7.08,7.05,3.79,11.68,11.68,11.69
22.54,4.65,-7.03,4.64,-7.03,7.03,7.02,3.90,11.68,11.68,11.67
22.76,4.70,-6.98,4.69,-6.98,6.98,6.99,4.01,11.67,11.67,11.67
22.99,4.76,-6.91,4.74,-6.92,6.92,6.95,4.13,11.68,11.67,11.66
23.22,4.80,-6.86,4.80,-6.87,6.87,6.92,4.25,11.66,11.66,11.65
23.45,4.85,-6.81,4.85,-6.81,6.81,6.88,4.36,11.66,11.66,11.66
23.69,4.89,-6.76,4.90,-6.75,6.75,6.85,4.49,11.64,11.66,11.65
23.92,4.94,-6.71,4.96,-6.69,6.69,6.81,4.61,11.63,11.65,11.65
24.16,5.00,-6.66,5.02,-6.64,6.64,6.77,4.74,11.63,11.65,11.66
24.40,5.06,-6.61,5.07,-6.58,6.58,6.73,4.86,11.64,11.66,11.66
24.65,5.13,-6.54,5.13,-6.53,6.53,6.69,5.00,11.65,11.66,11.66
24.89,5.20,-6.46,5.18,-6.48,6.48,6.65,5.13,11.67,11.66,11.66
25.14,5.26,-6.40,5.23,-6.43,6.43,6.61,5.26,11.68,11.66,11.66
25.39,5.31,-6.35,5.28,-6.38,6.38,6.57,5.39,11.69,11.66,11.66
25.65,5.35,-6.31,5.33,-6.34,6.34,6.53,5.53,11.68,11.66,11.66
25.91,5.40,-6.27,5.37,-6.29,6.29,6.49,5.67,11.69,11.66,11.66
26.16,5.44,-6.23,5.41,-6.25,6.25,6.44,5.80,11.69,11.66,11.67
26.43,5.47,-6.20,5.46,-6.21,6.21,6.40,5.94,11.67,11.67,11.67
26.69,5.50,-6.17,5.50,-6.16,6.16,6.36,6.07,11.66,11.67,11.67
26.96,5.53,-6.14,5.55,-6.12,6.12,6.31,6.20,11.64,11.66,11.66
27.23,5.56,-6.11,5.59,-6.07,6.07,6.26,6.33,11.63,11.66,11.66
27.50,5.61,-6.05,5.63,-6.03,6.03,6.22,6.45,11.63,11.66,11.66
27.77,5.65,-6.02,5.68,-5.98,5.98,6.17,6.57,11.63,11.66,11.67
28.05,5.69,-5.98,5.72,-5.94,5.94,6.12,6.69,11.63,11.66,11.66
28.33,5.76,-5.90,5.77,-5.89,5.89,6.07,6.80,11.65,11.66,11.65
28.62,5.83,-5.82,5.81,-5.85,5.85,6.02,6.90,11.67,11.66,11.65
28.90,5.91,-5.75,5.86,-5.80,5.80,5.97,6.99,11.70,11.66,11.66
29.19,5.95,-5.71,5.90,-5.75,5.75,5.92,7.08,11.70,11.65,11.65
29.48,5.98,-5.67,5.94,-5.70,5.70,5.87,7.15,11.68,11.65,11.65
29.78,6.01,-5.64,5.99,-5.66,5.66,5.82,7.22,11.66,11.64,11.65
30.08,6.04,-5.62,6.03,-5.61,5.61,5.77,7.27,11.64,11.64,11.65
30.38,6.07,-5.57,6.07,-5.56,5.56,5.72,7.31,11.63,11.63,11.64
30.68,6.10,-5.53,6.11,-5.51,5.51,5.67,7.34,11.61,11.63,11.63
30.99,6.13,-5.50,6.15,-5.47,5.47,5.61,7.36,11.59,11.62,11.62
31.30,6.17,-5.44,6.19,-5.42,5.42,5.56,7.36,11.59,11.61,11.61
31.61,6.21,-5.40,6.23,-5.38,5.38,5.50,7.35,11.58,11.60,11.60
31.93,6.25,-5.34,6.26,-5.33,5.33,5.45,7.33,11.58,11.60,11.59
32.24,6.30,-5.29,6.30,-5.28,5.28,5.39,7.29,11.58,11.59,11.58
32.57,6.36,-5.21,6.34,-5.24,5.24,5.34,7.24,11.59,11.58,11.57
32.89,6.41,-5.16,6.39,-5.19,5.19,5.28,7.18,11.59,11.57,11.57
33.22,6.45,-5.11,6.43,-5.14,5.14,5.23,7.11,11.58,11.57,11.56
33.55,6.49,-5.07,6.47,-5.09,5.09,5.17,7.03,11.58,11.56,11.55
33.89,6.52,-5.04,6.51,-5.04,5.04,5.11,6.94,11.56,11.55,11.56
34.23,6.55,-5.00,6.55,-5.00,5.00,5.05,6.84,11.54,11.55,11.54
34.57,6.59,-4.95,6.59,-4.95,4.95,5.00,6.73,11.54,11.54,11.54
34.92,6.62,-4.92,6.62,-4.91,4.91,4.94,6.62,11.53,11.53,11.53
35.27,6.66,-4.88,6.66,-4.86,4.86,4.88,6.50,11.52,11.53,11.53
35.62,6.70,-4.82,6.70,-4.82,4.82,4.82,6.38,11.51,11.52,11.52
35.97,6.74,-4.77,6.73,-4.77,4.77,4.76,6.25,11.51,11.50,11.51
36.33,6.77,-4.73,6.76,-4.72,4.72,4.70,6.12,11.49,11.49,11.49
36.70,6.80,-4.68,6.79,-4.68,4.68,4.64,5.98,11.47,11.47,11.48
37.06,6.84,-4.62,6.83,-4.62,4.62,4.58,5.85,11.46,11.45,11.46
37.43,6.87,-4.56,6.87,-4.57,4.57,4.52,5.71,11.43,11.43,11.43
37.81,6.89,-4.53,6.90,-4.50,4.50,4.46,5.57,11.39,11.41,11.41
38.19,6.93,-4.46,6.94,-4.44,4.44,4.40,5.43,11.37,11.38,11.38
38.57,6.98,-4.38,6.97,-4.38,4.38,4.33,5.30,11.36,11.35,11.35
38.95,7.03,-4.30,7.01,-4.32,4.32,4.27,5.16,11.34,11.33,11.32
39.34,7.05,-4.24,7.04,-4.25,4.25,4.21,5.03,11.30,11.30,11.29
39.74,7.05,-4.22,7.08,-4.19,4.19,4.15,4.89,11.23,11.27,11.27
40.14,7.08,-4.16,7.11,-4.13,4.13,4.08,4.76,11.20,11.24,11.24
40.54,7.16,-4.05,7.15,-4.06,4.06,4.02,4.63,11.22,11.21,11.20
40.94,7.23,-3.95,7.18,-4.00,4.00,3.96,4.50,11.22,11.18,11.17
41.35,7.24,-3.91,7.21,-3.94,3.94,3.89,4.38,11.17,11.15,11.15
41.76,7.24,-3.87,7.24,-3.88,3.88,3.83,4.25,11.11,11.12,11.11
42.18,7.26,-3.83,7.27,-3.82,3.82,3.76,4.13,11.08,11.09,11.09
42.60,7.30,-3.77,7.29,-3.77,3.77,3.70,4.02,11.07,11.06,11.06
43.03,7.34,-3.69,7.31,-3.72,3.72,3.64,3.90,11.05,11.03,11.03
43.46,7.35,-3.65,7.34,-3.66,3.66,3.57,3.79,11.01,11.00,11.00
43.90,7.36,-3.62,7.37,-3.60,3.60,3.50,3.68,10.96,10.97,10.97
44.33,7.39,-3.55,7.39,-3.54,3.54,3.44,3.57,10.93,10.94,10.94
44.78,7.42,-3.48,7.42,-3.49,3.49,3.37,3.47,10.90,10.90,10.90
45.23,7.44,-3.45,7.44,-3.43,3.43,3.31,3.37,10.87,10.87,10.88
45.68,7.44,-3.40,7.46,-3.37,3.37,3.24,3.27,10.81,10.83,10.84
46.13,7.45,-3.34,7.49,-3.30,3.30,3.18,3.17,10.75,10.79,10.79
46.60,7.50,-3.26,7.51,-3.24,3.24,3.11,3.08,10.73,10.75,10.75
47.06,7.55,-3.17,7.54,-3.17,3.17,3.04,2.98,10.72,10.71,10.71
47.53,7.59,-3.09,7.56,-3.10,3.10,2.98,2.90,10.69,10.66,10.67
48.01,7.64,-2.98,7.58,-3.03,3.03,2.91,2.81,10.67,10.61,10.61
48.49,7.64,-2.93,7.61,-2.96,2.96,2.84,2.72,10.59,10.57,10.56
48.97,7.64,-2.88,7.64,-2.88,2.88,2.77,2.64,10.52,10.52,10.51
49.46,7.64,-2.83,7.66,-2.81,2.81,2.71,2.56,10.44,10.47,10.47
49.96,7.64,-2.76,7.69,-2.73,2.73,2.64,2.48,10.37,10.42,10.40
50.46,7.69,-2.67,7.71,-2.66,2.66,2.57,2.41,10.34,10.37,10.35
50.96,7.74,-2.57,7.73,-2.59,2.59,2.50,2.33,10.32,10.31,10.31
51.47,7.75,-2.52,7.75,-2.52,2.52,2.43,2.26,10.26,10.26,10.26
51.99,7.76,-2.45,7.76,-2.45,2.45,2.37,2.19,10.21,10.21,10.21
52.51,7.80,-2.37,7.77,-2.38,2.38,2.30,2.12,10.18,10.16,10.16
53.03,7.84,-2.29,7.79,-2.32,2.32,2.23,2.05,10.15,10.11,10.12
53.56,7.84,-2.23,7.81,-2.25,2.25,2.16,1.99,10.09,10.06,10.07
54.10,7.84,-2.17,7.83,-2.18,2.18,2.09,1.92,10.02,10.01,10.01
54.64,7.84,-2.12,7.85,-2.11,2.11,2.02,1.86,9.94,9.96,9.96
55.18,7.84,-2.06,7.87,-2.04,2.04,1.95,1.79,9.87,9.91,9.89
55.74,7.84,-2.01,7.89,-1.97,1.97,1.88,1.73,9.81,9.86,9.84
56.29,7.87,-1.93,7.91,-1.90,1.90,1.81,1.67,9.77,9.81,9.80
56.86,7.93,-1.83,7.92,-1.84,1.84,1.74,1.61,9.76,9.76,9.75
57.42,7.94,-1.75,7.94,-1.77,1.77,1.67,1.55,9.70,9.71,9.69
58.00,7.94,-1.72,7.95,-1.70,1.70,1.60,1.49,9.64,9.65,9.65
58.58,8.00,-1.62,7.97,-1.63,1.63,1.53,1.43,9.63,9.60,9.61
59.16,8.04,-1.53,7.98,-1.56,1.56,1.46,1.36,9.60,9.54,9.56
59.76,8.04,-1.48,8.00,-1.49,1.49,1.39,1.30,9.52,9.49,9.52
60.35,8.04,-1.41,8.01,-1.41,1.41,1.32,1.24,9.45,9.43,9.44
60.96,8.04,-1.35,8.03,-1.34,1.34,1.25,1.18,9.38,9.37,9.38
61.57,8.04,-1.27,8.04,-1.27,1.27,1.18,1.12,9.30,9.31,9.31
62.18,8.04,-1.20,8.05,-1.19,1.19,1.11,1.06,9.23,9.24,9.23
62.80,8.04,-1.12,8.06,-1.11,1.11,1.04,1.00,9.15,9.18,9.16
63.43,8.04,-1.05,8.08,-1.03,1.03,0.97,0.94,9.07,9.11,9.09
64.07,8.05,-0.99,8.09,-0.95,0.95,0.90,0.88,9.00,9.04,9.03
64.71,8.11,-0.86,8.11,-0.86,0.86,0.82,0.82,8.97,8.97,8.96
65.35,8.14,-0.77,8.12,-0.78,0.78,0.75,0.75,8.92,8.90,8.90
66.01,8.14,-0.69,8.14,-0.70,0.70,0.68,0.69,8.83,8.83,8.83
66.67,8.14,-0.64,8.15,-0.61,0.61,0.61,0.62,8.74,8.76,8.78
67.33,8.17,-0.53,8.17,-0.52,0.52,0.54,0.56,8.69,8.69,8.69
68.01,8.23,-0.40,8.19,-0.43,0.43,0.47,0.49,8.66,8.62,8.63
68.69,8.24,-0.31,8.20,-0.35,0.35,0.39,0.43,8.58,8.55,8.55
69.37,8.24,-0.25,8.22,-0.26,0.26,0.32,0.36,8.50,8.48,8.49
70.07,8.24,-0.18,8.23,-0.18,0.18,0.25,0.29,8.42,8.41,8.41
70.77,8.24,-0.10,8.24,-0.10,0.10,0.18,0.22,8.34,8.33,8.34
71.48,8.24,-0.03,8.24,-0.02,0.02,0.11,0.16,8.26,8.26,8.27
72.19,8.24,0.05,8.24,0.05,-0.05,0.03,0.09,8.18,8.19,8.18
72.91,8.24,0.13,8.24,0.13,-0.13,-0.04,0.02,8.11,8.11,8.11
73.64,8.24,0.20,8.24,0.20,-0.20,-0.11,-0.06,8.04,8.04,8.03
74.38,8.24,0.27,8.24,0.27,-0.27,-0.19,-0.13,7.97,7.97,7.97
75.12,8.24,0.35,8.23,0.33,-0.33,-0.26,-0.20,7.90,7.90,7.89
75.87,8.24,0.41,8.23,0.40,-0.40,-0.33,-0.27,7.83,7.83,7.83
76.63,8.24,0.48,8.24,0.48,-0.48,-0.41,-0.35,7.76,7.76,7.75
77.40,8.24,0.54,8.24,0.55,-0.55,-0.48,-0.42,7.69,7.69,7.69
78.17,8.24,0.62,8.25,0.63,-0.63,-0.55,-0.50,7.61,7.63,7.62
78.95,8.24,0.67,8.26,0.70,-0.70,-0.63,-0.58,7.54,7.56,7.56
79.74,8.24,0.74,8.27,0.78,-0.78,-0.70,-0.65,7.46,7.49,7.50
80.54,8.25,0.82,8.28,0.85,-0.85,-0.77,-0.73,7.40,7.43,7.43
81.35,8.29,0.93,8.29,0.93,-0.93,-0.85,-0.81,7.36,7.36,7.36
82.16,8.34,1.04,8.30,1.00,-1.00,-0.92,-0.89,7.33,7.29,7.30
82.98,8.34,1.11,8.31,1.08,-1.08,-0.99,-0.97,7.25,7.22,7.23
83.81,8.34,1.18,8.32,1.16,-1.16,-1.07,-1.05,7.18,7.15,7.16
84.65,8.34,1.25,8.32,1.24,-1.24,-1.14,-1.14,7.10,7.08,7.08
85.50,8.34,1.34,8.33,1.32,-1.32,-1.22,-1.22,7.02,7.01,7.00
86.35,8.34,1.40,8.34,1.40,-1.40,-1.29,-1.31,6.94,6.94,6.94
87.22,8.34,1.47,8.34,1.48,-1.48,-1.36,-1.40,6.86,6.87,6.87
88.09,8.34,1.54,8.35,1.55,-1.55,-1.44,-1.48,6.78,6.79,6.79
88.97,8.35,1.62,8.35,1.63,-1.63,-1.51,-1.57,6.71,6.72,6.73
89.86,8.35,1.71,8.35,1.71,-1.71,-1.59,-1.66,6.64,6.64,6.64
90.76,8.35,1.78,8.35,1.79,-1.79,-1.66,-1.75,6.56,6.56,6.57
91.66,8.35,1.87,8.35,1.87,-1.87,-1.74,-1.85,6.48,6.48,6.48
92.58,8.35,1.94,8.35,1.95,-1.95,-1.81,-1.94,6.40,6.40,6.41
93.51,8.35,2.02,8.35,2.03,-2.03,-1.89,-2.04,6.32,6.32,6.33
94.44,8.35,2.10,8.35,2.11,-2.11,-1.96,-2.13,6.23,6.23,6.24
95.39,8.35,2.19,8.34,2.20,-2.20,-2.03,-2.23,6.15,6.14,6.15
96.34,8.35,2.29,8.34,2.29,-2.29,-2.11,-2.33,6.06,6.05,6.06
97.30,8.34,2.37,8.34,2.38,-2.38,-2.18,-2.43,5.96,5.96,5.96
98.28,8.33,2.46,8.33,2.46,-2.46,-2.26,-2.53,5.87,5.87,5.87
99.26,8.32,2.55,8.32,2.54,-2.54,-2.33,-2.63,5.78,5.78,5.77
100.25,8.30,2.62,8.30,2.62,-2.62,-2.41,-2.73,5.68,5.68,5.67
101.25,8.28,2.69,8.28,2.69,-2.69,-2.48,-2.83,5.58,5.59,5.59
102.27,8.27,2.77,8.26,2.76,-2.76,-2.56,-2.94,5.50,5.49,5.49
103.29,8.26,2.86,8.23,2.83,-2.83,-2.63,-3.04,5.42,5.40,5.40
104.32,8.24,2.93,8.21,2.90,-2.90,-2.71,-3.14,5.34,5.30,5.31
105.37,8.21,2.99,8.18,2.97,-2.97,-2.78,-3.24,5.24,5.21,5.22
106.42,8.18,3.06,8.14,3.03,-3.03,-2.85,-3.34,5.15,5.12,5.12
107.48,8.10,3.08,8.11,3.08,-3.08,-2.93,-3.44,5.01,5.03,5.01
108.56,8.04,3.10,8.08,3.14,-3.14,-3.00,-3.54,4.89,4.93,4.94
109.64,8.02,3.17,8.04,3.20,-3.20,-3.08,-3.64,4.82,4.84,4.84
110.74,8.00,3.25,8.01,3.26,-3.26,-3.15,-3.73,4.74,4.75,4.75
111.85,7.98,3.31,7.98,3.32,-3.32,-3.22,-3.82,4.66,4.66,4.66
112.97,7.97,3.39,7.95,3.38,-3.38,-3.30,-3.91,4.59,4.57,4.58
114.10,7.96,3.46,7.93,3.44,-3.44,-3.37,-4.00,4.51,4.49,4.50
115.24,7.90,3.49,7.91,3.51,-3.51,-3.44,-4.08,4.39,4.40,4.40
116.39,7.88,3.57,7.90,3.58,-3.58,-3.52,-4.16,4.30,4.32,4.31
117.55,7.87,3.63,7.89,3.65,-3.65,-3.59,-4.24,4.22,4.24,4.24
118.73,7.87,3.72,7.89,3.73,-3.73,-3.66,-4.31,4.14,4.16,4.14
119.92,7.88,3.80,7.90,3.81,-3.81,-3.73,-4.37,4.07,4.08,4.07
121.12,7.89,3.87,7.90,3.90,-3.90,-3.81,-4.43,3.99,4.01,4.01
122.33,7.90,3.96,7.90,3.97,-3.97,-3.88,-4.49,3.92,3.93,3.93
123.55,7.90,4.03,7.90,4.05,-4.05,-3.95,-4.54,3.85,3.85,3.86
124.79,7.91,4.11,7.90,4.12,-4.12,-4.02,-4.58,3.78,3.78,3.79
126.03,7.92,4.20,7.90,4.19,-4.19,-4.09,-4.62,3.72,3.71,3.72
127.29,7.93,4.29,7.89,4.26,-4.26,-4.16,-4.66,3.67,3.63,3.64
128.57,7.93,4.36,7.89,4.33,-4.33,-4.23,-4.68,3.60,3.56,3.56
129.85,7.94,4.45,7.88,4.39,-4.39,-4.30,-4.71,3.55,3.49,3.49
131.15,7.94,4.52,7.87,4.45,-4.45,-4.37,-4.73,3.49,3.42,3.41
132.46,7.90,4.56,7.86,4.51,-4.51,-4.44,-4.74,3.39,3.35,3.34
133.79,7.79,4.52,7.84,4.57,-4.57,-4.51,-4.75,3.22,3.27,3.27
135.12,7.75,4.55,7.83,4.63,-4.63,-4.57,-4.76,3.11,3.20,3.20
136.48,7.76,4.62,7.82,4.69,-4.69,-4.64,-4.76,3.07,3.13,3.14
137.84,7.76,4.69,7.80,4.74,-4.74,-4.71,-4.76,3.01,3.06,3.07
139.22,7.76,4.78,7.78,4.79,-4.79,-4.77,-4.76,2.97,2.99,2.98
140.61,7.76,4.83,7.76,4.84,-4.84,-4.84,-4.75,2.92,2.92,2.92
142.02,7.76,4.91,7.73,4.88,-4.88,-4.90,-4.75,2.87,2.85,2.85
143.44,7.76,4.98,7.71,4.93,-4.93,-4.96,-4.74,2.83,2.78,2.77
144.87,7.76,5.05,7.69,4.98,-4.98,-5.03,-4.73,2.78,2.71,2.71
146.32,7.75,5.10,7.68,5.03,-5.03,-5.09,-4.72,2.71,2.65,2.65
147.78,7.70,5.12,7.67,5.09,-5.09,-5.15,-4.71,2.60,2.58,2.58
149.26,7.63,5.12,7.66,5.15,-5.15,-5.21,-4.71,2.48,2.51,2.51
150.75,7.57,5.13,7.64,5.20,-5.20,-5.27,-4.70,2.36,2.44,2.43
152.26,7.56,5.18,7.62,5.25,-5.25,-5.33,-4.69,2.31,2.37,2.37
153.78,7.56,5.25,7.59,5.29,-5.29,-5.38,-4.69,2.27,2.30,2.31
155.32,7.56,5.31,7.57,5.33,-5.33,-5.44,-4.69,2.22,2.24,2.25
156.88,7.56,5.38,7.55,5.38,-5.38,-5.49,-4.69,2.18,2.17,2.17
158.44,7.56,5.46,7.52,5.42,-5.42,-5.55,-4.69,2.13,2.10,2.10
160.03,7.56,5.53,7.50,5.47,-5.47,-5.60,-4.69,2.08,2.03,2.03
161.63,7.53,5.56,7.48,5.52,-5.52,-5.65,-4.70,2.01,1.96,1.96
163.24,7.48,5.59,7.45,5.56,-5.56,-5.70,-4.71,1.91,1.89,1.88
164.88,7.40,5.58,7.42,5.61,-5.61,-5.75,-4.72,1.79,1.82,1.82
166.53,7.36,5.61,7.40,5.65,-5.65,-5.80,-4.74,1.71,1.75,1.74
168.19,7.35,5.67,7.37,5.69,-5.69,-5.84,-4.76,1.65,1.68,1.68
169.87,7.34,5.73,7.33,5.73,-5.73,-5.89,-4.79,1.61,1.61,1.61
171.57,7.33,5.79,7.30,5.76,-5.76,-5.93,-4.81,1.57,1.54,1.54
173.29,7.31,5.84,7.26,5.79,-5.79,-5.97,-4.84,1.51,1.47,1.47
175.02,7.24,5.83,7.23,5.82,-5.82,-6.01,-4.88,1.41,1.41,1.41
176.77,7.18,5.84,7.20,5.86,-5.86,-6.05,-4.92,1.32,1.34,1.34
178.54,7.13,5.85,7.17,5.89,-5.89,-6.09,-4.96,1.23,1.28,1.27
180.32,7.12,5.91,7.15,5.93,-5.93,-6.12,-5.01,1.18,1.22,1.21
182.13,7.12,5.96,7.13,5.98,-5.98,-6.16,-5.06,1.14,1.16,1.16
183.95,7.13,6.02,7.12,6.02,-6.02,-6.19,-5.11,1.11,1.10,1.10
185.79,7.09,6.04,7.10,6.05,-6.05,-6.22,-5.17,1.03,1.04,1.04
187.65,7.06,6.06,7.07,6.08,-6.08,-6.25,-5.23,0.97,0.99,0.99
189.52,7.08,6.14,7.05,6.12,-6.12,-6.28,-5.30,0.96,0.94,0.93
191.42,7.07,6.17,7.04,6.15,-6.15,-6.30,-5.37,0.91,0.88,0.89
193.33,7.03,6.19,7.02,6.19,-6.19,-6.32,-5.44,0.84,0.83,0.84
195.27,7.02,6.23,7.00,6.22,-6.22,-6.34,-5.51,0.79,0.78,0.78
197.22,7.01,6.28,6.99,6.25,-6.25,-6.36,-5.59,0.75,0.73,0.73
199.19,6.96,6.27,6.97,6.28,-6.28,-6.38,-5.67,0.68,0.69,0.68
201.18,6.94,6.31,6.94,6.30,-6.30,-6.40,-5.75,0.64,0.64,0.63
203.19,6.89,6.30,6.91,6.31,-6.31,-6.41,-5.84,0.57,0.59,0.59
205.23,6.86,6.31,6.87,6.33,-6.33,-6.42,-5.92,0.53,0.54,0.55
207.28,6.86,6.35,6.84,6.34,-6.34,-6.43,-6.01,0.52,0.50,0.51
209.35,6.84,6.38,6.80,6.35,-6.35,-6.44,-6.10,0.49,0.45,0.46
211.44,6.77,6.35,6.76,6.35,-6.35,-6.44,-6.19,0.42,0.41,0.41
213.56,6.75,6.37,6.72,6.36,-6.36,-6.45,-6.28,0.39,0.37,0.37
215.69,6.71,6.38,6.68,6.36,-6.36,-6.45,-6.37,0.35,0.33,0.33
217.85,6.64,6.34,6.65,6.36,-6.36,-6.45,-6.45,0.28,0.29,0.29
220.03,6.57,6.33,6.61,6.36,-6.36,-6.45,-6.54,0.21,0.25,0.24
222.23,6.53,6.32,6.57,6.36,-6.36,-6.44,-6.62,0.17,0.21,0.20
224.45,6.53,6.35,6.54,6.36,-6.36,-6.43,-6.70,0.17,0.18,0.17
226.70,6.51,6.37,6.50,6.35,-6.35,-6.43,-6.77,0.16,0.15,0.14
228.96,6.44,6.32,6.46,6.34,-6.34,-6.42,-6.84,0.10,0.12,0.12
231.25,6.44,6.34,6.42,6.33,-6.33,-6.40,-6.90,0.11,0.10,0.10
233.57,6.43,6.36,6.39,6.32,-6.32,-6.39,-6.96,0.11,0.07,0.07
235.90,6.37,6.32,6.36,6.31,-6.31,-6.37,-7.00,0.06,0.05,0.05
238.26,6.35,6.32,6.33,6.30,-6.30,-6.35,-7.04,0.05,0.04,0.03
240.64,6.31,6.28,6.31,6.28,-6.28,-6.33,-7.08,0.02,0.02,0.03
243.05,6.27,6.25,6.28,6.27,-6.27,-6.31,-7.10,-0.01,0.01,0.01
245.48,6.24,6.24,6.26,6.26,-6.26,-6.29,-7.11,-0.02,-0.00,-0.00
247.93,6.19,6.21,6.23,6.24,-6.24,-6.26,-7.11,-0.06,-0.01,-0.02
250.41,6.18,6.19,6.20,6.22,-6.22,-6.24,-7.11,-0.05,-0.02,-0.02
252.92,6.19,6.21,6.17,6.20,-6.20,-6.21,-7.09,-0.02,-0.03,-0.02
255.45,6.18,6.22,6.14,6.18,-6.18,-6.18,-7.06,-0.01,-0.05,-0.05
258.00,6.13,6.18,6.09,6.15,-6.15,-6.14,-7.03,-0.03,-0.06,-0.05
260.58,6.07,6.13,6.05,6.13,-6.13,-6.11,-6.98,-0.06,-0.07,-0.06
263.19,6.03,6.10,6.01,6.10,-6.10,-6.08,-6.92,-0.07,-0.09,-0.08
265.82,6.02,6.12,5.97,6.07,-6.07,-6.04,-6.86,-0.05,-0.10,-0.10
268.48,5.94,6.05,5.92,6.03,-6.03,-6.00,-6.79,-0.10,-0.12,-0.11
271.16,5.88,6.01,5.87,6.00,-6.00,-5.96,-6.71,-0.12,-0.13,-0.13
273.87,5.81,5.95,5.82,5.97,-5.97,-5.92,-6.62,-0.16,-0.15,-0.14
276.61,5.74,5.90,5.77,5.93,-5.93,-5.88,-6.53,-0.19,-0.16,-0.17
279.38,5.68,5.87,5.72,5.89,-5.89,-5.83,-6.43,-0.22,-0.18,-0.20
282.17,5.63,5.82,5.67,5.85,-5.85,-5.79,-6.33,-0.23,-0.19,-0.20
284.99,5.61,5.81,5.62,5.82,-5.82,-5.74,-6.23,-0.21,-0.20,-0.21
287.84,5.57,5.77,5.57,5.78,-5.78,-5.69,-6.12,-0.21,-0.21,-0.21
290.72,5.53,5.75,5.53,5.75,-5.75,-5.65,-6.01,-0.22,-0.22,-0.22
293.63,5.45,5.67,5.49,5.71,-5.71,-5.60,-5.90,-0.26,-0.22,-0.22
296.57,5.45,5.67,5.44,5.67,-5.67,-5.54,-5.79,-0.22,-0.23,-0.22
299.53,5.47,5.70,5.40,5.63,-5.63,-5.49,-5.67,-0.16,-0.23,-0.23
302.53,5.38,5.60,5.35,5.59,-5.59,-5.44,-5.56,-0.21,-0.24,-0.23
305.55,5.30,5.53,5.30,5.54,-5.54,-5.39,-5.45,-0.25,-0.24,-0.24
308.61,5.30,5.53,5.26,5.50,-5.50,-5.33,-5.34,-0.20,-0.24,-0.23
311.69,5.23,5.48,5.21,5.45,-5.45,-5.27,-5.23,-0.23,-0.25,-0.25
314.81,5.14,5.38,5.16,5.41,-5.41,-5.22,-5.12,-0.27,-0.25,-0.25
317.96,5.11,5.37,5.10,5.36,-5.36,-5.16,-5.01,-0.25,-0.26,-0.26
321.14,5.05,5.31,5.04,5.30,-5.30,-5.10,-4.91,-0.26,-0.26,-0.26
324.35,4.93,5.19,4.99,5.25,-5.25,-5.04,-4.80,-0.32,-0.26,-0.27
327.59,4.91,5.17,4.93,5.19,-5.19,-4.98,-4.70,-0.29,-0.27,-0.26
330.87,4.86,5.12,4.86,5.13,-5.13,-4.92,-4.61,-0.28,-0.27,-0.27
334.18,4.81,5.09,4.80,5.07,-5.07,-4.86,-4.51,-0.26,-0.27,-0.28
337.52,4.75,5.02,4.74,5.01,-5.01,-4.80,-4.42,-0.27,-0.28,-0.28
340.90,4.71,4.99,4.68,4.95,-4.95,-4.74,-4.33,-0.25,-0.28,-0.28
344.30,4.65,4.92,4.61,4.89,-4.89,-4.68,-4.25,-0.24,-0.28,-0.28
347.75,4.55,4.82,4.56,4.83,-4.83,-4.61,-4.17,-0.28,-0.28,-0.27
351.23,4.49,4.77,4.49,4.77,-4.77,-4.55,-4.09,-0.28,-0.27,-0.29
354.74,4.43,4.70,4.43,4.70,-4.70,-4.49,-4.01,-0.27,-0.27,-0.27
358.28,4.35,4.62,4.37,4.64,-4.64,-4.42,-3.94,-0.29,-0.27,-0.27
361.87,4.30,4.56,4.31,4.57,-4.57,-4.36,-3.87,-0.28,-0.27,-0.27
365.49,4.23,4.49,4.24,4.50,-4.50,-4.29,-3.81,-0.27,-0.26,-0.26
369.14,4.18,4.43,4.17,4.43,-4.43,-4.23,-3.74,-0.26,-0.26,-0.26
372.83,4.14,4.39,4.11,4.37,-4.37,-4.16,-3.68,-0.23,-0.26,-0.25
376.56,4.04,4.29,4.05,4.30,-4.30,-4.10,-3.63,-0.27,-0.26,-0.25
380.33,3.98,4.23,3.98,4.24,-4.24,-4.03,-3.57,-0.26,-0.26,-0.26
384.13,3.93,4.18,3.91,4.17,-4.17,-3.96,-3.52,-0.25,-0.26,-0.25
387.97,3.82,4.07,3.85,4.11,-4.11,-3.90,-3.47,-0.29,-0.26,-0.25
391.85,3.77,4.02,3.77,4.04,-4.04,-3.83,-3.42,-0.27,-0.26,-0.25
395.77,3.75,4.01,3.70,3.97,-3.97,-3.76,-3.38,-0.22,-0.27,-0.27
399.73,3.64,3.91,3.62,3.90,-3.90,-3.69,-3.33,-0.26,-0.28,-0.27
403.72,3.56,3.82,3.54,3.82,-3.82,-3.63,-3.29,-0.27,-0.28,-0.26
407.76,3.55,3.83,3.46,3.75,-3.75,-3.56,-3.26,-0.20,-0.29,-0.29
411.84,3.44,3.72,3.39,3.68,-3.68,-3.49,-3.22,-0.24,-0.29,-0.29
415.96,3.29,3.58,3.32,3.61,-3.61,-3.42,-3.18,-0.32,-0.29,-0.29
420.12,3.22,3.52,3.26,3.54,-3.54,-3.36,-3.15,-0.33,-0.29,-0.30
424.32,3.16,3.45,3.20,3.48,-3.48,-3.29,-3.12,-0.32,-0.28,-0.29
428.56,3.10,3.37,3.14,3.41,-3.41,-3.22,-3.08,-0.32,-0.27,-0.28
432.85,3.04,3.29,3.10,3.35,-3.35,-3.15,-3.05,-0.31,-0.25,-0.26
437.18,3.01,3.26,3.06,3.28,-3.28,-3.08,-3.02,-0.28,-0.23,-0.25
441.55,3.02,3.23,3.03,3.22,-3.22,-3.02,-2.99,-0.21,-0.19,-0.21
445.96,3.00,3.17,3.01,3.17,-3.17,-2.95,-2.96,-0.18,-0.16,-0.17
450.42,3.00,3.13,3.00,3.12,-3.12,-2.88,-2.93,-0.12,-0.12,-0.14
454.93,3.00,3.08,2.98,3.05,-3.05,-2.81,-2.89,-0.06,-0.07,-0.09
459.48,2.98,3.00,2.98,3.00,-3.00,-2.74,-2.86,-0.02,-0.02,-0.03
464.07,2.99,2.95,2.97,2.94,-2.94,-2.67,-2.83,0.05,0.03,0.04
468.71,2.98,2.89,2.96,2.87,-2.87,-2.61,-2.79,0.10,0.09,0.09
473.40,2.97,2.82,2.94,2.80,-2.80,-2.54,-2.76,0.16,0.14,0.15
478.13,2.97,2.76,2.92,2.73,-2.73,-2.47,-2.72,0.23,0.19,0.21
482.91,2.95,2.69,2.90,2.66,-2.66,-2.40,-2.68,0.29,0.24,0.25
487.74,2.91,2.61,2.86,2.58,-2.58,-2.33,-2.63,0.33,0.29,0.29
492.62,2.83,2.49,2.82,2.50,-2.50,-2.27,-2.59,0.33,0.33,0.33
497.55,2.74,2.37,2.78,2.42,-2.42,-2.20,-2.54,0.32,0.36,0.37
502.52,2.68,2.29,2.73,2.34,-2.34,-2.13,-2.49,0.34,0.39,0.39
507.55,2.67,2.25,2.67,2.27,-2.27,-2.06,-2.44,0.40,0.40,0.42
512.62,2.62,2.19,2.60,2.19,-2.19,-1.99,-2.39,0.43,0.42,0.43
