frequency,raw,error,smoothed,error_smoothed,equalization,parametric_eq,fixed_band_eq,equalized_raw,equalized_smoothed,target
20.00,-15.75,-19.88,-15.74,-19.90,19.90,17.84,7.57,4.16,4.16,4.14
20.20,-15.60,-19.77,-15.59,-19.78,19.78,18.00,7.73,4.19,4.19,4.18
20.40,-15.44,-19.65,-15.44,-19.66,19.66,18.15,7.89,4.22,4.22,4.21
20.61,-15.29,-19.53,-15.29,-19.54,19.54,18.28,8.06,4.25,4.25,4.24
20.81,-15.14,-19.42,-15.14,-19.41,19.41,18.40,8.23,4.27,4.27,4.28
21.02,-14.98,-19.30,-14.98,-19.28,19.28,18.50,8.40,4.30,4.30,4.32
21.23,-14.83,-19.17,-14.83,-19.15,19.15,18.59,8.58,4.32,4.32,4.34
21.44,-14.67,-19.03,-14.67,-19.02,19.02,18.65,8.77,4.35,4.34,4.36
21.66,-14.52,-18.90,-14.51,-18.88,18.88,18.69,8.96,4.36,4.37,4.38
21.87,-14.35,-18.75,-14.36,-18.74,18.74,18.72,9.15,4.39,4.38,4.39
22.09,-14.20,-18.61,-14.20,-18.60,18.60,18.72,9.35,4.41,4.40,4.41
22.31,-14.04,-18.46,-14.04,-18.46,18.46,18.70,9.55,4.42,4.42,4.42
22.54,-13.89,-18.32,-13.88,-18.31,18.31,18.66,9.76,4.42,4.43,4.43
22.76,-13.73,-18.16,-13.72,-18.16,18.16,18.60,9.98,4.44,4.44,4.44
22.99,-13.57,-18.01,-13.56,-18.01,18.01,18.51,10.20,4.44,4.45,4.44
23.22,-13.40,-17.85,-13.40,-17.86,17.86,18.41,10.42,4.46,4.46,4.45
23.45,-13.24,-17.69,-13.24,-17.70,17.70,18.30,10.66,4.47,4.46,4.46
23.69,-13.08,-17.55,-13.07,-17.55,17.55,18.16,10.90,4.47,4.47,4.47
23.92,-12.91,-17.38,-12.91,-17.39,17.39,18.02,11.14,4.49,4.48,4.47
24.16,-12.75,-17.24,-12.75,-17.24,17.24,17.86,11.40,4.49,4.49,4.49
24.40,-12.58,-17.09,-12.58,-17.08,17.08,17.68,11.66,4.51,4.50,4.51
24.65,-12.42,-16.93,-12.42,-16.92,16.92,17.50,11.92,4.51,4.51,4.51
24.89,-12.24,-16.77,-12.25,-16.77,16.77,17.31,12.20,4.52,4.52,4.52
25.14,-12.08,-16.61,-12.08,-16.61,16.61,17.12,12.48,4.54,4.53,4.53
25.39,-11.91,-16.45,-11.91,-16.45,16.45,16.92,12.77,4.54,4.54,4.54
25.65,-11.75,-16.31,-11.75,-16.30,16.30,16.71,13.06,4.55,4.55,4.56
25.91,-11.58,-16.14,-11.58,-16.14,16.14,16.50,13.37,4.56,4.56,4.56
26.16,-11.40,-15.97,-11.41,-15.98,15.98,16.29,13.68,4.57,4.57,4.57
26.43,-11.24,-15.81,-11.24,-15.82,15.82,16.08,13.99,4.58,4.58,4.57
26.69,-11.07,-15.65,-11.07,-15.65,15.65,15.87,14.32,4.59,4.59,4.58
26.96,-10.90,-15.50,-10.90,-15.49,15.49,15.66,14.64,4.59,4.60,4.60
27.23,-10.73,-15.34,-10.73,-15.33,15.33,15.45,14.98,4.60,4.60,4.61
27.50,-10.55,-15.17,-10.55,-15.17,15.17,15.24,15.31,4.62,4.61,4.62
27.77,-10.38,-14.99,-10.38,-15.01,15.01,15.03,15.65,4.63,4.62,4.62
28.05,-10.21,-14.84,-10.21,-14.84,14.84,14.82,15.98,4.63,4.63,4.64
28.33,-10.04,-14.67,-10.04,-14.68,14.68,14.62,16.31,4.64,4.64,4.63
28.62,-9.86,-14.50,-9.86,-14.51,14.51,14.42,16.63,4.65,4.64,4.64
28.90,-9.69,-14.34,-9.69,-14.34,14.34,14.22,16.93,4.66,4.65,4.65
29.19,-9.52,-14.17,-9.51,-14.17,14.17,14.02,17.22,4.65,4.66,4.65
29.48,-9.34,-14.01,-9.33,-14.00,14.00,13.83,17.48,4.66,4.67,4.68
29.78,-9.17,-13.84,-9.15,-13.83,13.83,13.64,17.71,4.66,4.67,4.68
30.08,-8.99,-13.67,-8.97,-13.65,13.65,13.45,17.89,4.66,4.68,4.68
30.38,-8.80,-13.48,-8.79,-13.48,13.48,13.27,18.04,4.68,4.69,4.68
30.68,-8.62,-13.32,-8.61,-13.31,13.31,13.09,18.13,4.69,4.69,4.70
30.99,-8.43,-13.13,-8.43,-13.13,13.13,12.91,18.17,4.70,4.70,4.70
31.30,-8.25,-12.95,-8.25,-12.96,12.96,12.74,18.15,4.71,4.71,4.70
31.61,-8.06,-12.77,-8.07,-12.78,12.78,12.57,18.08,4.72,4.71,4.71
31.93,-7.88,-12.60,-7.89,-12.61,12.61,12.40,17.95,4.73,4.72,4.72
32.24,-7.70,-12.41,-7.71,-12.44,12.44,12.24,17.77,4.74,4.73,4.72
32.57,-7.53,-12.26,-7.53,-12.26,12.26,12.08,17.54,4.73,4.73,4.73
32.89,-7.35,-12.09,-7.35,-12.09,12.09,11.92,17.28,4.74,4.74,4.74
33.22,-7.18,-11.92,-7.17,-11.92,11.92,11.76,16.98,4.74,4.75,4.75
33.55,-7.01,-11.76,-7.00,-11.75,11.75,11.61,16.66,4.75,4.75,4.75
33.89,-6.84,-11.60,-6.83,-11.59,11.59,11.46,16.31,4.75,4.76,4.76
34.23,-6.66,-11.43,-6.66,-11.42,11.42,11.31,15.96,4.76,4.76,4.77
34.57,-6.49,-11.26,-6.49,-11.26,11.26,11.16,15.59,4.77,4.77,4.77
34.92,-6.32,-11.09,-6.32,-11.10,11.10,11.01,15.22,4.78,4.77,4.77
35.27,-6.16,-10.94,-6.16,-10.94,10.94,10.86,14.85,4.78,4.78,4.78
35.62,-5.99,-10.77,-5.99,-10.77,10.77,10.72,14.48,4.79,4.78,4.78
35.97,-5.83,-10.60,-5.83,-10.62,10.62,10.57,14.11,4.79,4.78,4.78
36.33,-5.68,-10.46,-5.67,-10.46,10.46,10.42,13.74,4.78,4.78,4.78
36.70,-5.52,-10.30,-5.52,-10.30,10.30,10.28,13.38,4.78,4.78,4.78
37.06,-5.36,-10.14,-5.36,-10.15,10.15,10.13,13.02,4.79,4.78,4.79
37.43,-5.21,-10.00,-5.21,-9.99,9.99,9.98,12.67,4.79,4.78,4.79
37.81,-5.06,-9.84,-5.06,-9.84,9.84,9.83,12.32,4.79,4.78,4.79
38.19,-4.91,-9.69,-4.92,-9.70,9.70,9.68,11.98,4.79,4.78,4.78
38.57,-4.77,-9.54,-4.77,-9.55,9.55,9.53,11.65,4.78,4.77,4.78
38.95,-4.63,-9.40,-4.63,-9.40,9.40,9.37,11.33,4.78,4.77,4.77
39.34,-4.49,-9.25,-4.49,-9.26,9.26,9.22,11.01,4.77,4.77,4.76
39.74,-4.35,-9.11,-4.35,-9.11,9.11,9.06,10.69,4.76,4.77,4.76
40.14,-4.21,-8.97,-4.20,-8.97,8.97,8.90,10.39,4.76,4.76,4.76
40.54,-4.07,-8.82,-4.06,-8.82,8.82,8.74,10.08,4.75,4.76,4.76
40.94,-3.93,-8.68,-3.92,-8.67,8.67,8.58,9.79,4.74,4.75,4.75
41.35,-3.78,-8.52,-3.77,-8.52,8.52,8.41,9.50,4.75,4.75,4.74
41.76,-3.63,-8.37,-3.63,-8.37,8.37,8.25,9.22,4.74,4.74,4.74
42.18,-3.48,-8.22,-3.48,-8.22,8.22,8.08,8.94,4.74,4.74,4.75
42.60,-3.33,-8.07,-3.32,-8.06,8.06,7.91,8.66,4.73,4.74,4.74
43.03,-3.17,-7.91,-3.17,-7.90,7.90,7.75,8.39,4.73,4.73,4.74
43.46,-3.01,-7.74,-3.01,-7.73,7.73,7.58,8.13,4.73,4.73,4.73
43.90,-2.85,-7.56,-2.84,-7.57,7.57,7.41,7.87,4.72,4.72,4.71
44.33,-2.68,-7.39,-2.68,-7.39,7.39,7.24,7.61,4.72,4.72,4.71
44.78,-2.51,-7.21,-2.51,-7.22,7.22,7.08,7.36,4.71,4.71,4.71
45.23,-2.34,-7.04,-2.33,-7.04,7.04,6.91,7.11,4.70,4.71,4.70
45.68,-2.16,-6.85,-2.15,-6.85,6.85,6.74,6.86,4.69,4.70,4.70
46.13,-1.98,-6.66,-1.97,-6.66,6.66,6.57,6.62,4.69,4.70,4.69
46.60,-1.79,-6.48,-1.78,-6.47,6.47,6.40,6.38,4.68,4.69,4.69
47.06,-1.61,-6.29,-1.59,-6.27,6.27,6.24,6.14,4.66,4.68,4.68
47.53,-1.42,-6.09,-1.40,-6.07,6.07,6.07,5.91,4.65,4.67,4.67
48.01,-1.23,-5.91,-1.21,-5.87,5.87,5.90,5.68,4.64,4.66,4.68
48.49,-1.02,-5.68,-1.02,-5.67,5.67,5.73,5.45,4.65,4.65,4.66
48.97,-0.82,-5.45,-0.83,-5.46,5.46,5.57,5.23,4.64,4.64,4.63
49.46,-0.63,-5.25,-0.64,-5.26,5.26,5.40,5.01,4.63,4.62,4.62
49.96,-0.44,-5.04,-0.45,-5.06,5.06,5.23,4.79,4.62,4.61,4.60
50.46,-0.25,-4.84,-0.26,-4.85,4.85,5.06,4.58,4.60,4.59,4.59
50.96,-0.07,-4.64,-0.08,-4.65,4.65,4.89,4.37,4.59,4.57,4.58
51.47,0.10,-4.44,0.09,-4.46,4.46,4.72,4.16,4.56,4.55,4.54
51.99,0.27,-4.26,0.27,-4.27,4.27,4.55,3.96,4.54,4.53,4.53
52.51,0.42,-4.10,0.43,-4.08,4.08,4.38,3.76,4.50,4.51,4.52
53.03,0.58,-3.91,0.59,-3.90,3.90,4.21,3.56,4.49,4.49,4.49
53.56,0.73,-3.74,0.74,-3.73,3.73,4.03,3.37,4.46,4.47,4.47
54.10,0.88,-3.57,0.88,-3.57,3.57,3.86,3.18,4.45,4.45,4.45
54.64,1.02,-3.41,1.01,-3.41,3.41,3.68,2.99,4.43,4.42,4.43
55.18,1.15,-3.24,1.14,-3.26,3.26,3.50,2.81,4.42,4.40,4.40
55.74,1.27,-3.10,1.26,-3.12,3.12,3.32,2.64,4.39,4.38,4.37
56.29,1.39,-2.96,1.37,-2.98,2.98,3.14,2.47,4.37,4.35,4.36
56.86,1.49,-2.83,1.48,-2.85,2.85,2.96,2.31,4.34,4.33,4.33
57.42,1.58,-2.71,1.58,-2.72,2.72,2.78,2.15,4.30,4.30,4.29
58.00,1.67,-2.60,1.68,-2.59,2.59,2.61,2.00,4.27,4.28,4.27
58.58,1.76,-2.48,1.77,-2.47,2.47,2.43,1.86,4.24,4.25,4.25
59.16,1.84,-2.38,1.86,-2.36,2.36,2.26,1.72,4.20,4.21,4.22
59.76,1.93,-2.27,1.94,-2.24,2.24,2.09,1.59,4.18,4.18,4.20
60.35,2.01,-2.15,2.01,-2.13,2.13,1.93,1.47,4.15,4.15,4.16
60.96,2.08,-2.04,2.09,-2.03,2.03,1.78,1.36,4.11,4.11,4.12
61.57,2.15,-1.93,2.16,-1.92,1.92,1.64,1.25,4.07,4.08,4.08
62.18,2.22,-1.81,2.22,-1.82,1.82,1.50,1.15,4.04,4.04,4.03
62.80,2.28,-1.72,2.28,-1.71,1.71,1.38,1.06,4.00,4.00,4.00
63.43,2.34,-1.61,2.34,-1.61,1.61,1.28,0.98,3.96,3.96,3.95
64.07,2.40,-1.51,2.40,-1.52,1.52,1.19,0.90,3.92,3.92,3.91
64.71,2.45,-1.41,2.45,-1.42,1.42,1.11,0.83,3.87,3.87,3.87
65.35,2.49,-1.33,2.50,-1.33,1.33,1.05,0.77,3.82,3.83,3.82
66.01,2.54,-1.24,2.54,-1.25,1.25,1.00,0.71,3.79,3.78,3.78
66.67,2.57,-1.17,2.57,-1.16,1.16,0.96,0.66,3.74,3.74,3.75
67.33,2.61,-1.09,2.61,-1.09,1.09,0.93,0.62,3.70,3.69,3.70
68.01,2.64,-1.01,2.64,-1.01,1.01,0.91,0.59,3.65,3.65,3.65
68.69,2.67,-0.93,2.66,-0.94,0.94,0.90,0.56,3.61,3.60,3.61
69.37,2.69,-0.87,2.69,-0.87,0.87,0.90,0.53,3.56,3.56,3.56
70.07,2.70,-0.81,2.71,-0.80,0.80,0.89,0.51,3.51,3.51,3.51
70.77,2.72,-0.75,2.73,-0.74,0.74,0.89,0.49,3.47,3.47,3.47
71.48,2.72,-0.71,2.74,-0.69,0.69,0.90,0.48,3.41,3.42,3.43
72.19,2.73,-0.64,2.75,-0.63,0.63,0.90,0.47,3.36,3.38,3.38
72.91,2.75,-0.58,2.76,-0.58,0.58,0.90,0.47,3.33,3.34,3.33
73.64,2.76,-0.53,2.76,-0.53,0.53,0.90,0.47,3.29,3.29,3.29
74.38,2.77,-0.48,2.76,-0.49,0.49,0.90,0.46,3.26,3.25,3.25
75.12,2.78,-0.42,2.76,-0.45,0.45,0.90,0.47,3.23,3.21,3.21
75.87,2.76,-0.41,2.76,-0.41,0.41,0.90,0.47,3.17,3.17,3.17
76.63,2.75,-0.38,2.75,-0.38,0.38,0.89,0.48,3.13,3.13,3.13
77.40,2.73,-0.36,2.74,-0.35,0.35,0.89,0.48,3.08,3.09,3.09
78.17,2.72,-0.33,2.73,-0.33,0.33,0.88,0.49,3.05,3.06,3.05
78.95,2.71,-0.31,2.71,-0.31,0.31,0.86,0.50,3.02,3.02,3.02
79.74,2.69,-0.30,2.69,-0.30,0.30,0.85,0.51,2.99,2.99,2.99
80.54,2.66,-0.29,2.66,-0.29,0.29,0.83,0.52,2.95,2.95,2.96
81.35,2.63,-0.29,2.63,-0.29,0.29,0.82,0.53,2.92,2.92,2.92
82.16,2.59,-0.30,2.59,-0.30,0.30,0.80,0.54,2.89,2.89,2.89
82.98,2.56,-0.30,2.55,-0.31,0.31,0.78,0.55,2.87,2.86,2.86
83.81,2.52,-0.30,2.51,-0.32,0.32,0.75,0.56,2.84,2.83,2.83
84.65,2.46,-0.33,2.46,-0.34,0.34,0.73,0.57,2.80,2.80,2.79
85.50,2.41,-0.36,2.41,-0.36,0.36,0.70,0.57,2.78,2.77,2.77
86.35,2.35,-0.39,2.35,-0.39,0.39,0.68,0.58,2.74,2.74,2.74
87.22,2.29,-0.42,2.29,-0.42,0.42,0.65,0.59,2.72,2.71,2.71
88.09,2.23,-0.45,2.23,-0.46,0.46,0.62,0.60,2.69,2.69,2.68
88.97,2.16,-0.50,2.16,-0.50,0.50,0.59,0.61,2.66,2.66,2.66
89.86,2.08,-0.56,2.09,-0.54,0.54,0.57,0.62,2.62,2.63,2.64
90.76,2.01,-0.58,2.02,-0.58,0.58,0.54,0.62,2.59,2.60,2.60
91.66,1.94,-0.63,1.95,-0.62,0.62,0.51,0.63,2.56,2.57,2.57
92.58,1.89,-0.65,1.88,-0.67,0.67,0.47,0.64,2.56,2.55,2.54
93.51,1.82,-0.70,1.81,-0.71,0.71,0.44,0.64,2.53,2.52,2.52
94.44,1.74,-0.75,1.74,-0.75,0.75,0.41,0.65,2.49,2.49,2.49
95.39,1.67,-0.79,1.67,-0.79,0.79,0.38,0.65,2.46,2.45,2.46
96.34,1.59,-0.83,1.60,-0.82,0.82,0.35,0.66,2.41,2.42,2.42
97.30,1.52,-0.86,1.53,-0.85,0.85,0.32,0.66,2.37,2.39,2.38
98.28,1.46,-0.88,1.47,-0.88,0.88,0.29,0.66,2.34,2.35,2.35
99.26,1.40,-0.91,1.41,-0.90,0.90,0.26,0.66,2.31,2.31,2.31
100.25,1.33,-0.94,1.35,-0.92,0.92,0.22,0.67,2.26,2.27,2.27
101.25,1.27,-0.96,1.29,-0.94,0.94,0.19,0.67,2.21,2.23,2.24
102.27,1.22,-0.97,1.24,-0.95,0.95,0.16,0.67,2.18,2.19,2.19
103.29,1.20,-0.94,1.18,-0.96,0.96,0.13,0.67,2.16,2.14,2.14
104.32,1.16,-0.94,1.13,-0.96,0.96,0.10,0.67,2.12,2.10,2.10
105.37,1.10,-0.95,1.09,-0.96,0.96,0.07,0.66,2.06,2.05,2.05
106.42,1.04,-0.95,1.04,-0.95,0.95,0.04,0.66,1.99,1.99,2.00
107.48,0.99,-0.96,1.00,-0.94,0.94,0.01,0.66,1.93,1.94,1.95
108.56,0.95,-0.93,0.96,-0.92,0.92,-0.03,0.66,1.87,1.88,1.88
109.64,0.91,-0.91,0.93,-0.90,0.90,-0.06,0.65,1.81,1.82,1.82
110.74,0.88,-0.88,0.89,-0.87,0.87,-0.09,0.65,1.75,1.76,1.77
111.85,0.85,-0.85,0.85,-0.84,0.84,-0.12,0.64,1.69,1.69,1.70
112.97,0.82,-0.80,0.82,-0.81,0.81,-0.14,0.63,1.63,1.63,1.62
114.10,0.79,-0.77,0.78,-0.78,0.78,-0.17,0.63,1.57,1.56,1.57
115.24,0.75,-0.74,0.75,-0.75,0.75,-0.20,0.62,1.50,1.49,1.49
116.39,0.72,-0.69,0.71,-0.71,0.71,-0.23,0.61,1.43,1.42,1.41
117.55,0.69,-0.66,0.68,-0.67,0.67,-0.26,0.60,1.36,1.35,1.35
118.73,0.66,-0.61,0.66,-0.63,0.63,-0.29,0.59,1.29,1.29,1.27
119.92,0.62,-0.60,0.63,-0.59,0.59,-0.31,0.57,1.21,1.22,1.22
121.12,0.59,-0.55,0.60,-0.55,0.55,-0.34,0.56,1.14,1.15,1.14
122.33,0.57,-0.51,0.57,-0.51,0.51,-0.37,0.55,1.08,1.09,1.08
123.55,0.54,-0.49,0.55,-0.47,0.47,-0.39,0.53,1.01,1.02,1.03
124.79,0.51,-0.45,0.53,-0.43,0.43,-0.42,0.51,0.95,0.96,0.97
126.03,0.49,-0.41,0.51,-0.39,0.39,-0.45,0.50,0.89,0.90,0.91
127.29,0.48,-0.36,0.49,-0.35,0.35,-0.47,0.48,0.84,0.84,0.84
128.57,0.47,-0.30,0.47,-0.31,0.31,-0.50,0.46,0.79,0.78,0.78
129.85,0.45,-0.27,0.45,-0.28,0.28,-0.52,0.43,0.73,0.73,0.73
131.15,0.43,-0.24,0.43,-0.24,0.24,-0.55,0.41,0.68,0.67,0.67
132.46,0.42,-0.20,0.41,-0.21,0.21,-0.57,0.39,0.63,0.62,0.62
133.79,0.40,-0.17,0.39,-0.18,0.18,-0.59,0.36,0.59,0.57,0.57
135.12,0.38,-0.14,0.36,-0.16,0.16,-0.62,0.34,0.54,0.52,0.52
136.48,0.36,-0.11,0.33,-0.14,0.14,-0.64,0.31,0.50,0.47,0.47
137.84,0.32,-0.10,0.31,-0.11,0.11,-0.66,0.28,0.43,0.42,0.42
139.22,0.29,-0.07,0.28,-0.09,0.09,-0.68,0.25,0.38,0.37,0.37
140.61,0.26,-0.05,0.26,-0.07,0.07,-0.71,0.22,0.33,0.33,0.31
142.02,0.21,-0.07,0.24,-0.05,0.05,-0.73,0.19,0.26,0.28,0.28
143.44,0.19,-0.05,0.21,-0.02,0.02,-0.75,0.16,0.21,0.24,0.24
144.87,0.15,-0.04,0.19,0.00,-0.00,-0.77,0.13,0.15,0.19,0.19
146.32,0.14,-0.00,0.18,0.03,-0.03,-0.79,0.10,0.11,0.14,0.14
147.78,0.13,0.03,0.16,0.06,-0.06,-0.81,0.06,0.07,0.10,0.11
149.26,0.13,0.07,0.14,0.09,-0.09,-0.83,0.03,0.04,0.05,0.06
150.75,0.13,0.14,0.13,0.13,-0.13,-0.85,-0.01,0.01,0.00,-0.00
152.26,0.13,0.18,0.11,0.16,-0.16,-0.87,-0.04,-0.03,-0.05,-0.05
153.78,0.12,0.22,0.10,0.19,-0.19,-0.89,-0.08,-0.07,-0.10,-0.09
155.32,0.11,0.27,0.08,0.23,-0.23,-0.91,-0.12,-0.11,-0.15,-0.16
156.88,0.08,0.28,0.06,0.26,-0.26,-0.92,-0.16,-0.18,-0.20,-0.20
158.44,0.06,0.31,0.04,0.29,-0.29,-0.94,-0.19,-0.23,-0.25,-0.25
160.03,0.02,0.33,0.01,0.32,-0.32,-0.96,-0.23,-0.29,-0.30,-0.31
161.63,-0.01,0.36,-0.01,0.34,-0.34,-0.98,-0.27,-0.35,-0.36,-0.37
163.24,-0.04,0.38,-0.04,0.37,-0.37,-0.99,-0.32,-0.40,-0.41,-0.41
164.88,-0.08,0.38,-0.07,0.39,-0.39,-1.01,-0.36,-0.47,-0.46,-0.46
166.53,-0.11,0.41,-0.10,0.42,-0.42,-1.03,-0.40,-0.52,-0.52,-0.52
168.19,-0.14,0.43,-0.13,0.45,-0.45,-1.04,-0.44,-0.58,-0.57,-0.57
169.87,-0.17,0.46,-0.15,0.48,-0.48,-1.06,-0.49,-0.65,-0.63,-0.62
171.57,-0.19,0.49,-0.17,0.52,-0.52,-1.07,-0.53,-0.70,-0.68,-0.68
173.29,-0.20,0.54,-0.18,0.56,-0.56,-1.09,-0.58,-0.76,-0.74,-0.74
175.02,-0.22,0.57,-0.19,0.61,-0.61,-1.10,-0.62,-0.83,-0.80,-0.79
176.77,-0.22,0.64,-0.20,0.66,-0.66,-1.12,-0.67,-0.88,-0.86,-0.86
178.54,-0.21,0.71,-0.20,0.71,-0.71,-1.13,-0.72,-0.92,-0.92,-0.92
180.32,-0.20,0.78,-0.21,0.77,-0.77,-1.15,-0.77,-0.97,-0.98,-0.98
182.13,-0.19,0.85,-0.21,0.84,-0.84,-1.16,-0.81,-1.02,-1.04,-1.04
183.95,-0.19,0.92,-0.20,0.90,-0.90,-1.17,-0.86,-1.09,-1.10,-1.10
185.79,-0.19,0.97,-0.20,0.96,-0.96,-1.19,-0.91,-1.15,-1.16,-1.16
187.65,-0.19,1.05,-0.20,1.03,-1.03,-1.20,-0.96,-1.22,-1.22,-1.23
189.52,-0.19,1.10,-0.19,1.09,-1.09,-1.21,-1.02,-1.28,-1.28,-1.29
191.42,-0.19,1.16,-0.19,1.15,-1.15,-1.22,-1.07,-1.34,-1.34,-1.34
193.33,-0.19,1.21,-0.19,1.21,-1.21,-1.24,-1.12,-1.40,-1.40,-1.40
195.27,-0.19,1.26,-0.19,1.27,-1.27,-1.25,-1.17,-1.46,-1.46,-1.45
197.22,-0.19,1.32,-0.19,1.32,-1.32,-1.26,-1.23,-1.51,-1.51,-1.51
199.19,-0.19,1.38,-0.19,1.38,-1.38,-1.27,-1.28,-1.56,-1.56,-1.57
201.18,-0.19,1.43,-0.19,1.43,-1.43,-1.28,-1.33,-1.62,-1.62,-1.62
203.19,-0.19,1.47,-0.19,1.48,-1.48,-1.29,-1.39,-1.67,-1.67,-1.66
205.23,-0.19,1.53,-0.19,1.53,-1.53,-1.30,-1.44,-1.72,-1.72,-1.72
207.28,-0.19,1.56,-0.19,1.58,-1.58,-1.31,-1.49,-1.76,-1.76,-1.75
209.35,-0.19,1.62,-0.19,1.62,-1.62,-1.32,-1.55,-1.81,-1.81,-1.81
211.44,-0.19,1.68,-0.19,1.67,-1.67,-1.33,-1.60,-1.85,-1.85,-1.86
213.56,-0.19,1.71,-0.19,1.71,-1.71,-1.34,-1.65,-1.90,-1.90,-1.90
215.69,-0.19,1.74,-0.19,1.75,-1.75,-1.35,-1.70,-1.94,-1.94,-1.93
217.85,-0.19,1.78,-0.19,1.79,-1.79,-1.36,-1.75,-1.98,-1.98,-1.97
220.03,-0.19,1.83,-0.19,1.82,-1.82,-1.37,-1.79,-2.01,-2.01,-2.02
222.23,-0.19,1.86,-0.19,1.86,-1.86,-1.38,-1.84,-2.04,-2.04,-2.05
224.45,-0.19,1.89,-0.19,1.89,-1.89,-1.38,-1.88,-2.07,-2.07,-2.08
226.70,-0.19,1.91,-0.19,1.91,-1.91,-1.39,-1.92,-2.10,-2.10,-2.10
228.96,-0.19,1.94,-0.19,1.94,-1.94,-1.40,-1.96,-2.13,-2.13,-2.13
231.25,-0.19,1.96,-0.19,1.96,-1.96,-1.41,-2.00,-2.15,-2.15,-2.14
233.57,-0.19,1.98,-0.19,1.98,-1.98,-1.41,-2.03,-2.17,-2.17,-2.17
235.90,-0.19,2.00,-0.19,2.00,-2.00,-1.42,-2.06,-2.18,-2.18,-2.19
238.26,-0.19,2.01,-0.19,2.01,-2.01,-1.43,-2.09,-2.20,-2.20,-2.20
240.64,-0.19,2.02,-0.19,2.02,-2.02,-1.43,-2.12,-2.21,-2.21,-2.21
243.05,-0.19,2.02,-0.19,2.03,-2.03,-1.44,-2.14,-2.21,-2.21,-2.21
245.48,-0.19,2.03,-0.19,2.03,-2.03,-1.45,-2.15,-2.22,-2.22,-2.22
247.93,-0.19,2.03,-0.19,2.03,-2.03,-1.45,-2.17,-2.22,-2.22,-2.22
250.41,-0.19,2.04,-0.19,2.03,-2.03,-1.46,-2.18,-2.22,-2.22,-2.23
252.92,-0.19,2.03,-0.19,2.03,-2.03,-1.46,-2.18,-2.22,-2.22,-2.22
255.45,-0.19,2.02,-0.19,2.03,-2.03,-1.47,-2.18,-2.21,-2.22,-2.21
258.00,-0.19,2.02,-0.19,2.02,-2.02,-1.47,-2.18,-2.21,-2.21,-2.21
260.58,-0.19,2.02,-0.19,2.01,-2.01,-1.48,-2.18,-2.20,-2.20,-2.21
263.19,-0.19,2.01,-0.19,2.01,-2.01,-1.48,-2.17,-2.19,-2.19,-2.19
265.82,-0.19,2.00,-0.18,2.00,-2.00,-1.49,-2.16,-2.19,-2.18,-2.19
268.48,-0.19,1.98,-0.18,1.99,-1.99,-1.49,-2.14,-2.18,-2.17,-2.17
271.16,-0.19,1.97,-0.18,1.98,-1.98,-1.49,-2.12,-2.17,-2.16,-2.16
273.87,-0.19,1.96,-0.18,1.97,-1.97,-1.50,-2.10,-2.16,-2.15,-2.15
276.61,-0.19,1.94,-0.17,1.96,-1.96,-1.50,-2.08,-2.15,-2.14,-2.13
279.38,-0.19,1.94,-0.17,1.95,-1.95,-1.50,-2.06,-2.14,-2.12,-2.12
282.17,-0.18,1.93,-0.17,1.94,-1.94,-1.51,-2.03,-2.12,-2.11,-2.11
284.99,-0.17,1.93,-0.18,1.92,-1.92,-1.51,-2.00,-2.09,-2.10,-2.10
287.84,-0.17,1.92,-0.19,1.90,-1.90,-1.51,-1.97,-2.07,-2.09,-2.09
290.72,-0.18,1.90,-0.20,1.88,-1.88,-1.51,-1.94,-2.06,-2.07,-2.08
293.63,-0.19,1.88,-0.21,1.85,-1.85,-1.52,-1.91,-2.04,-2.06,-2.06
296.57,-0.21,1.84,-0.23,1.82,-1.82,-1.52,-1.87,-2.03,-2.05,-2.05
299.53,-0.24,1.81,-0.25,1.79,-1.79,-1.52,-1.84,-2.03,-2.04,-2.04
302.53,-0.27,1.77,-0.27,1.75,-1.75,-1.52,-1.80,-2.02,-2.03,-2.04
305.55,-0.30,1.71,-0.30,1.71,-1.71,-1.52,-1.77,-2.01,-2.02,-2.01
308.61,-0.33,1.68,-0.33,1.67,-1.67,-1.52,-1.74,-2.00,-2.01,-2.01
311.69,-0.37,1.63,-0.36,1.63,-1.63,-1.52,-1.70,-2.00,-2.00,-2.00
314.81,-0.40,1.58,-0.39,1.59,-1.59,-1.52,-1.67,-1.99,-1.99,-1.97
317.96,-0.43,1.55,-0.42,1.56,-1.56,-1.52,-1.63,-1.99,-1.98,-1.98
321.14,-0.46,1.51,-0.45,1.52,-1.52,-1.52,-1.60,-1.98,-1.97,-1.97
324.35,-0.49,1.49,-0.47,1.50,-1.50,-1.52,-1.57,-1.98,-1.97,-1.98
327.59,-0.52,1.44,-0.49,1.47,-1.47,-1.52,-1.54,-1.99,-1.96,-1.96
330.87,-0.53,1.43,-0.51,1.45,-1.45,-1.52,-1.51,-1.98,-1.96,-1.96
334.18,-0.54,1.43,-0.52,1.44,-1.44,-1.51,-1.48,-1.98,-1.96,-1.97
337.52,-0.54,1.42,-0.52,1.43,-1.43,-1.51,-1.45,-1.97,-1.96,-1.96
340.90,-0.53,1.42,-0.53,1.43,-1.43,-1.51,-1.42,-1.95,-1.96,-1.95
344.30,-0.52,1.44,-0.53,1.42,-1.42,-1.51,-1.39,-1.94,-1.96,-1.95
347.75,-0.52,1.44,-0.53,1.43,-1.43,-1.50,-1.37,-1.94,-1.96,-1.96
351.23,-0.52,1.44,-0.53,1.43,-1.43,-1.50,-1.34,-1.95,-1.96,-1.96
354.74,-0.52,1.44,-0.53,1.44,-1.44,-1.49,-1.32,-1.96,-1.97,-1.96
358.28,-0.52,1.46,-0.52,1.45,-1.45,-1.49,-1.29,-1.97,-1.97,-1.97
361.87,-0.52,1.46,-0.51,1.46,-1.46,-1.48,-1.27,-1.98,-1.98,-1.98
365.49,-0.52,1.46,-0.51,1.47,-1.47,-1.48,-1.25,-1.99,-1.98,-1.98
369.14,-0.52,1.47,-0.50,1.48,-1.48,-1.47,-1.23,-2.00,-1.99,-1.99
372.83,-0.52,1.48,-0.50,1.49,-1.49,-1.46,-1.21,-2.01,-2.00,-1.99
376.56,-0.51,1.50,-0.50,1.50,-1.50,-1.46,-1.19,-2.01,-2.00,-2.01
380.33,-0.50,1.51,-0.50,1.51,-1.51,-1.45,-1.18,-2.01,-2.01,-2.01
384.13,-0.50,1.52,-0.50,1.52,-1.52,-1.44,-1.16,-2.02,-2.02,-2.02
387.97,-0.49,1.54,-0.50,1.53,-1.53,-1.43,-1.15,-2.01,-2.03,-2.03
391.85,-0.50,1.54,-0.51,1.53,-1.53,-1.42,-1.13,-2.02,-2.03,-2.04
395.77,-0.51,1.53,-0.52,1.52,-1.52,-1.41,-1.12,-2.03,-2.04,-2.03
399.73,-0.52,1.53,-0.53,1.52,-1.52,-1.39,-1.11,-2.03,-2.05,-2.05
403.72,-0.55,1.51,-0.55,1.50,-1.50,-1.38,-1.10,-2.05,-2.05,-2.06
407.76,-0.57,1.50,-0.57,1.49,-1.49,-1.37,-1.09,-2.05,-2.06,-2.07
411.84,-0.59,1.47,-0.60,1.46,-1.46,-1.35,-1.08,-2.05,-2.07,-2.06
415.96,-0.62,1.45,-0.63,1.44,-1.44,-1.33,-1.07,-2.05,-2.07,-2.07
420.12,-0.66,1.41,-0.67,1.40,-1.40,-1.31,-1.06,-2.06,-2.07,-2.07
424.32,-0.71,1.37,-0.71,1.37,-1.37,-1.29,-1.05,-2.07,-2.08,-2.07
428.56,-0.76,1.33,-0.75,1.33,-1.33,-1.27,-1.05,-2.09,-2.08,-2.08
432.85,-0.81,1.28,-0.80,1.29,-1.29,-1.25,-1.04,-2.09,-2.08,-2.09
437.18,-0.86,1.23,-0.84,1.24,-1.24,-1.22,-1.03,-2.10,-2.08,-2.09
441.55,-0.90,1.18,-0.89,1.20,-1.20,-1.19,-1.03,-2.10,-2.08,-2.08
445.96,-0.95,1.13,-0.93,1.15,-1.15,-1.16,-1.02,-2.10,-2.08,-2.08
450.42,-0.99,1.10,-0.98,1.10,-1.10,-1.13,-1.02,-2.09,-2.08,-2.09
454.93,-1.04,1.04,-1.03,1.05,-1.05,-1.09,-1.01,-2.09,-2.08,-2.08
459.48,-1.08,1.00,-1.08,1.00,-1.00,-1.05,-1.01,-2.08,-2.08,-2.08
464.07,-1.12,0.96,-1.12,0.95,-0.95,-1.01,-1.01,-2.07,-2.07,-2.07
