frequency,raw,error,smoothed,error_smoothed,equalization,parametric_eq,fixed_band_eq,equalized_raw,equalized_smoothed,target
20.00,4.91,1.02,4.87,0.95,-0.95,-0.88,-1.06,3.96,3.92,3.89
20.20,4.95,1.01,4.94,0.98,-0.98,-0.89,-1.09,3.97,3.96,3.94
20.40,4.98,0.99,5.01,1.02,-1.02,-0.91,-1.12,3.97,3.99,3.99
20.61,5.02,1.00,5.08,1.05,-1.05,-0.93,-1.15,3.97,4.02,4.02
20.81,5.06,0.99,5.14,1.09,-1.09,-0.94,-1.18,3.97,4.05,4.07
21.02,5.10,0.99,5.21,1.12,-1.12,-0.96,-1.22,3.98,4.08,4.11
21.23,5.23,1.10,5.27,1.16,-1.16,-0.97,-1.25,4.07,4.11,4.13
21.44,5.35,1.21,5.33,1.20,-1.20,-0.99,-1.29,4.16,4.13,4.15
21.66,5.47,1.30,5.39,1.24,-1.24,-1.01,-1.32,4.23,4.15,4.17
21.87,5.60,1.43,5.44,1.27,-1.27,-1.02,-1.36,4.33,4.17,4.18
22.09,5.66,1.47,5.50,1.31,-1.31,-1.04,-1.40,4.35,4.18,4.20
22.31,5.64,1.44,5.55,1.35,-1.35,-1.06,-1.44,4.29,4.20,4.21
22.54,5.63,1.43,5.60,1.40,-1.40,-1.08,-1.48,4.24,4.20,4.20
22.76,5.61,1.41,5.65,1.44,-1.44,-1.09,-1.52,4.17,4.20,4.20
22.99,5.59,1.40,5.69,1.49,-1.49,-1.11,-1.56,4.10,4.21,4.19
23.22,5.64,1.45,5.74,1.53,-1.53,-1.13,-1.61,4.11,4.21,4.19
23.45,5.69,1.50,5.78,1.57,-1.57,-1.15,-1.65,4.12,4.21,4.19
23.69,5.74,1.54,5.81,1.60,-1.60,-1.17,-1.70,4.14,4.21,4.20
23.92,5.79,1.59,5.84,1.63,-1.63,-1.19,-1.74,4.16,4.21,4.20
24.16,5.86,1.65,5.87,1.67,-1.67,-1.21,-1.79,4.20,4.21,4.21
24.40,5.94,1.72,5.90,1.70,-1.70,-1.23,-1.84,4.24,4.21,4.22
24.65,6.01,1.80,5.94,1.74,-1.74,-1.25,-1.89,4.27,4.21,4.21
24.89,6.09,1.89,5.99,1.78,-1.78,-1.27,-1.94,4.31,4.21,4.21
25.14,6.11,1.91,6.03,1.82,-1.82,-1.29,-1.99,4.29,4.21,4.21
25.39,6.10,1.89,6.06,1.86,-1.86,-1.31,-2.04,4.25,4.21,4.21
25.65,6.09,1.88,6.10,1.89,-1.89,-1.33,-2.09,4.20,4.21,4.21
25.91,6.08,1.88,6.12,1.92,-1.92,-1.35,-2.14,4.17,4.21,4.20
26.16,6.10,1.90,6.15,1.94,-1.94,-1.37,-2.19,4.16,4.21,4.20
26.43,6.13,1.93,6.17,1.97,-1.97,-1.40,-2.24,4.17,4.20,4.20
26.69,6.16,1.96,6.19,1.99,-1.99,-1.42,-2.29,4.17,4.20,4.20
26.96,6.19,1.98,6.21,2.01,-2.01,-1.44,-2.34,4.18,4.20,4.21
27.23,6.23,2.03,6.23,2.03,-2.03,-1.46,-2.39,4.20,4.20,4.21
27.50,6.26,2.06,6.24,2.05,-2.05,-1.49,-2.43,4.22,4.20,4.20
27.77,6.29,2.10,6.26,2.07,-2.07,-1.51,-2.48,4.22,4.19,4.19
28.05,6.33,2.14,6.30,2.11,-2.11,-1.53,-2.53,4.23,4.19,4.19
28.33,6.36,2.18,6.34,2.15,-2.15,-1.56,-2.57,4.21,4.19,4.18
28.62,6.39,2.21,6.40,2.21,-2.21,-1.58,-2.61,4.18,4.19,4.18
28.90,6.43,2.25,6.45,2.27,-2.27,-1.60,-2.65,4.17,4.19,4.19
29.19,6.46,2.29,6.51,2.33,-2.33,-1.63,-2.69,4.13,4.18,4.17
29.48,6.50,2.31,6.58,2.39,-2.39,-1.65,-2.73,4.11,4.18,4.19
29.78,6.53,2.35,6.64,2.45,-2.45,-1.68,-2.76,4.08,4.18,4.18
30.08,6.59,2.40,6.69,2.51,-2.51,-1.70,-2.79,4.08,4.18,4.19
30.38,6.73,2.55,6.73,2.56,-2.56,-1.73,-2.82,4.17,4.18,4.18
30.68,6.86,2.69,6.78,2.61,-2.61,-1.76,-2.84,4.25,4.17,4.17
30.99,6.99,2.82,6.83,2.66,-2.66,-1.78,-2.87,4.33,4.17,4.17
31.30,7.00,2.83,6.87,2.70,-2.70,-1.81,-2.89,4.30,4.17,4.17
31.61,7.00,2.83,6.91,2.74,-2.74,-1.84,-2.90,4.26,4.17,4.17
31.93,7.00,2.84,6.94,2.78,-2.78,-1.86,-2.92,4.22,4.16,4.16
32.24,6.97,2.82,6.97,2.81,-2.81,-1.89,-2.93,4.16,4.16,4.15
32.57,6.93,2.77,7.00,2.84,-2.84,-1.92,-2.94,4.09,4.15,4.16
32.89,6.89,2.74,7.02,2.87,-2.87,-1.95,-2.95,4.02,4.15,4.16
33.22,6.93,2.79,7.03,2.89,-2.89,-1.97,-2.95,4.04,4.14,4.14
33.55,7.00,2.86,7.04,2.91,-2.91,-2.00,-2.95,4.10,4.14,4.14
33.89,7.08,2.95,7.05,2.92,-2.92,-2.03,-2.95,4.16,4.13,4.13
34.23,7.09,2.96,7.06,2.93,-2.93,-2.06,-2.95,4.16,4.13,4.13
34.57,7.08,2.96,7.07,2.95,-2.95,-2.09,-2.95,4.13,4.12,4.12
34.92,7.07,2.96,7.09,2.97,-2.97,-2.12,-2.94,4.10,4.12,4.12
35.27,7.10,2.99,7.10,2.99,-2.99,-2.15,-2.94,4.11,4.11,4.11
35.62,7.15,3.04,7.13,3.01,-3.01,-2.18,-2.93,4.14,4.11,4.11
35.97,7.20,3.10,7.15,3.04,-3.04,-2.21,-2.93,4.16,4.11,4.10
36.33,7.20,3.09,7.17,3.06,-3.06,-2.24,-2.92,4.14,4.10,4.11
36.70,7.20,3.11,7.19,3.08,-3.08,-2.27,-2.91,4.12,4.10,4.10
37.06,7.20,3.11,7.20,3.10,-3.10,-2.30,-2.91,4.11,4.10,4.09
37.43,7.17,3.07,7.21,3.11,-3.11,-2.33,-2.90,4.06,4.10,4.11
37.81,7.15,3.05,7.22,3.12,-3.12,-2.37,-2.89,4.03,4.10,4.10
38.19,7.17,3.08,7.23,3.13,-3.13,-2.40,-2.89,4.04,4.10,4.10
38.57,7.23,3.13,7.25,3.15,-3.15,-2.43,-2.89,4.08,4.10,4.10
38.95,7.29,3.19,7.26,3.16,-3.16,-2.46,-2.88,4.13,4.10,4.11
39.34,7.30,3.20,7.27,3.17,-3.17,-2.50,-2.88,4.13,4.10,4.10
39.74,7.30,3.21,7.27,3.18,-3.18,-2.53,-2.88,4.13,4.10,4.09
40.14,7.30,3.20,7.28,3.19,-3.19,-2.56,-2.89,4.12,4.09,4.10
40.54,7.30,3.21,7.29,3.20,-3.20,-2.60,-2.89,4.10,4.09,4.09
40.94,7.30,3.22,7.30,3.21,-3.21,-2.63,-2.89,4.09,4.09,4.08
41.35,7.30,3.22,7.31,3.23,-3.23,-2.66,-2.90,4.08,4.08,4.08
41.76,7.30,3.23,7.31,3.24,-3.24,-2.70,-2.91,4.06,4.07,4.07
42.18,7.30,3.23,7.31,3.25,-3.25,-2.73,-2.92,4.05,4.06,4.07
42.60,7.30,3.25,7.30,3.25,-3.25,-2.77,-2.94,4.05,4.05,4.05
43.03,7.30,3.26,7.29,3.26,-3.26,-2.80,-2.95,4.05,4.04,4.05
43.46,7.30,3.26,7.29,3.27,-3.27,-2.84,-2.97,4.04,4.02,4.04
43.90,7.30,3.29,7.29,3.28,-3.28,-2.87,-2.99,4.02,4.01,4.01
44.33,7.30,3.31,7.30,3.30,-3.30,-2.91,-3.01,4.00,4.00,3.99
44.78,7.30,3.33,7.31,3.33,-3.33,-2.95,-3.03,3.97,3.98,3.97
45.23,7.30,3.34,7.32,3.36,-3.36,-2.98,-3.06,3.95,3.97,3.96
45.68,7.30,3.36,7.34,3.39,-3.39,-3.02,-3.09,3.91,3.95,3.94
46.13,7.30,3.38,7.35,3.42,-3.42,-3.06,-3.12,3.88,3.93,3.92
46.60,7.30,3.38,7.36,3.44,-3.44,-3.09,-3.15,3.86,3.92,3.92
47.06,7.31,3.41,7.36,3.46,-3.46,-3.13,-3.19,3.85,3.90,3.90
47.53,7.40,3.52,7.37,3.48,-3.48,-3.17,-3.23,3.92,3.88,3.89
48.01,7.49,3.61,7.37,3.50,-3.50,-3.21,-3.27,3.99,3.87,3.88
48.49,7.45,3.59,7.37,3.52,-3.52,-3.25,-3.31,3.93,3.85,3.86
48.97,7.40,3.56,7.37,3.53,-3.53,-3.28,-3.35,3.87,3.84,3.84
49.46,7.40,3.59,7.36,3.54,-3.54,-3.32,-3.40,3.86,3.82,3.82
49.96,7.40,3.61,7.36,3.55,-3.55,-3.36,-3.44,3.85,3.80,3.79
50.46,7.32,3.53,7.35,3.56,-3.56,-3.40,-3.49,3.76,3.79,3.79
50.96,7.24,3.47,7.34,3.57,-3.57,-3.44,-3.54,3.67,3.77,3.77
51.47,7.26,3.51,7.34,3.58,-3.58,-3.48,-3.59,3.68,3.76,3.75
51.99,7.30,3.57,7.33,3.58,-3.58,-3.52,-3.64,3.72,3.74,3.73
52.51,7.30,3.58,7.32,3.59,-3.59,-3.56,-3.69,3.71,3.73,3.72
53.03,7.30,3.58,7.31,3.60,-3.60,-3.60,-3.75,3.70,3.71,3.72
53.56,7.30,3.60,7.30,3.60,-3.60,-3.64,-3.80,3.70,3.69,3.70
54.10,7.30,3.62,7.29,3.61,-3.61,-3.68,-3.85,3.69,3.68,3.68
54.64,7.30,3.64,7.29,3.62,-3.62,-3.72,-3.91,3.68,3.67,3.66
55.18,7.30,3.65,7.28,3.63,-3.63,-3.76,-3.96,3.68,3.65,3.65
55.74,7.30,3.67,7.27,3.64,-3.64,-3.81,-4.01,3.67,3.64,3.63
56.29,7.30,3.68,7.27,3.65,-3.65,-3.85,-4.06,3.65,3.62,3.62
56.86,7.30,3.70,7.26,3.66,-3.66,-3.89,-4.11,3.64,3.60,3.60
57.42,7.28,3.71,7.25,3.67,-3.67,-3.93,-4.16,3.61,3.58,3.57
58.00,7.26,3.71,7.24,3.68,-3.68,-3.97,-4.21,3.58,3.56,3.56
58.58,7.17,3.63,7.23,3.70,-3.70,-4.02,-4.25,3.48,3.53,3.54
59.16,7.12,3.60,7.22,3.72,-3.72,-4.06,-4.29,3.41,3.50,3.52
59.76,7.18,3.69,7.21,3.74,-3.74,-4.10,-4.33,3.44,3.47,3.49
60.35,7.20,3.76,7.20,3.77,-3.77,-4.14,-4.37,3.44,3.44,3.45
60.96,7.20,3.79,7.20,3.80,-3.80,-4.19,-4.40,3.40,3.40,3.41
61.57,7.20,3.84,7.20,3.84,-3.84,-4.23,-4.43,3.36,3.36,3.36
62.18,7.20,3.89,7.20,3.89,-3.89,-4.28,-4.46,3.32,3.32,3.31
62.80,7.20,3.94,7.20,3.93,-3.93,-4.32,-4.49,3.27,3.27,3.26
63.43,7.20,3.99,7.20,3.97,-3.97,-4.36,-4.51,3.23,3.22,3.21
64.07,7.20,4.04,7.19,4.02,-4.02,-4.41,-4.53,3.18,3.17,3.16
64.71,7.20,4.09,7.19,4.07,-4.07,-4.45,-4.55,3.13,3.12,3.11
65.35,7.20,4.13,7.19,4.12,-4.12,-4.50,-4.56,3.08,3.07,3.07
66.01,7.20,4.19,7.18,4.16,-4.16,-4.54,-4.57,3.04,3.02,3.02
66.67,7.20,4.24,7.16,4.20,-4.20,-4.59,-4.58,3.00,2.96,2.96
67.33,7.20,4.30,7.15,4.24,-4.24,-4.63,-4.59,2.96,2.91,2.91
68.01,7.20,4.34,7.14,4.29,-4.29,-4.68,-4.60,2.92,2.86,2.86
68.69,7.07,4.27,7.12,4.32,-4.32,-4.72,-4.60,2.75,2.80,2.80
69.37,7.03,4.29,7.11,4.36,-4.36,-4.77,-4.61,2.67,2.74,2.74
70.07,7.05,4.37,7.10,4.42,-4.42,-4.82,-4.61,2.63,2.68,2.68
70.77,7.09,4.46,7.10,4.48,-4.48,-4.86,-4.61,2.62,2.62,2.63
71.48,7.10,4.53,7.10,4.54,-4.54,-4.91,-4.61,2.56,2.56,2.57
72.19,7.10,4.60,7.10,4.60,-4.60,-4.96,-4.62,2.50,2.50,2.50
72.91,7.10,4.66,7.11,4.67,-4.67,-5.00,-4.62,2.43,2.44,2.44
73.64,7.10,4.73,7.12,4.75,-4.75,-5.05,-4.62,2.35,2.37,2.37
74.38,7.10,4.79,7.15,4.84,-4.84,-5.10,-4.63,2.27,2.31,2.31
75.12,7.10,4.86,7.16,4.91,-4.91,-5.14,-4.64,2.19,2.25,2.24
75.87,7.11,4.94,7.16,4.98,-4.98,-5.19,-4.64,2.13,2.18,2.17
76.63,7.27,5.16,7.17,5.05,-5.05,-5.24,-4.65,2.22,2.12,2.12
77.40,7.30,5.24,7.18,5.11,-5.11,-5.29,-4.67,2.19,2.06,2.06
78.17,7.20,5.21,7.17,5.17,-5.17,-5.34,-4.68,2.03,2.00,1.99
78.95,7.20,5.26,7.17,5.22,-5.22,-5.38,-4.70,1.98,1.94,1.95
79.74,7.20,5.32,7.16,5.28,-5.28,-5.43,-4.72,1.93,1.88,1.88
80.54,7.20,5.37,7.15,5.32,-5.32,-5.48,-4.74,1.88,1.83,1.83
81.35,7.17,5.40,7.14,5.37,-5.37,-5.53,-4.76,1.80,1.77,1.77
82.16,7.08,5.37,7.14,5.42,-5.42,-5.58,-4.79,1.66,1.72,1.71
82.98,6.92,5.25,7.14,5.48,-5.48,-5.63,-4.83,1.44,1.66,1.67
83.81,7.07,5.47,7.13,5.52,-5.52,-5.67,-4.86,1.55,1.60,1.60
84.65,7.10,5.56,7.10,5.55,-5.55,-5.72,-4.90,1.55,1.55,1.54
85.50,7.10,5.61,7.08,5.59,-5.59,-5.77,-4.94,1.51,1.49,1.50
86.35,7.10,5.66,7.08,5.65,-5.65,-5.82,-4.99,1.46,1.43,1.44
87.22,7.10,5.72,7.08,5.71,-5.71,-5.87,-5.04,1.40,1.37,1.38
88.09,7.10,5.78,7.08,5.77,-5.77,-5.92,-5.09,1.33,1.31,1.32
88.97,7.11,5.86,7.09,5.84,-5.84,-5.97,-5.15,1.28,1.25,1.26
89.86,7.11,5.92,7.09,5.89,-5.89,-6.02,-5.21,1.22,1.19,1.19
90.76,7.11,5.98,7.08,5.94,-5.94,-6.07,-5.28,1.17,1.13,1.13
91.66,7.04,5.96,7.06,5.99,-5.99,-6.12,-5.34,1.05,1.07,1.08
92.58,6.89,5.89,7.05,6.03,-6.03,-6.17,-5.42,0.86,1.02,1.00
93.51,6.94,5.99,7.01,6.05,-6.05,-6.22,-5.49,0.89,0.96,0.95
94.44,7.13,6.24,6.97,6.07,-6.07,-6.27,-5.57,1.06,0.90,0.90
95.39,7.11,6.27,6.93,6.09,-6.09,-6.32,-5.66,1.02,0.84,0.84
96.34,6.93,6.16,6.89,6.11,-6.11,-6.37,-5.74,0.82,0.78,0.77
97.30,6.90,6.18,6.85,6.13,-6.13,-6.42,-5.83,0.78,0.72,0.72
98.28,6.80,6.14,6.80,6.14,-6.14,-6.47,-5.93,0.66,0.66,0.66
99.26,6.57,5.97,6.76,6.15,-6.15,-6.52,-6.02,0.42,0.61,0.60
100.25,6.61,6.06,6.73,6.18,-6.18,-6.57,-6.12,0.43,0.55,0.55
101.25,6.73,6.24,6.70,6.21,-6.21,-6.62,-6.22,0.52,0.49,0.49
102.27,6.64,6.21,6.65,6.22,-6.22,-6.67,-6.32,0.42,0.43,0.43
103.29,6.55,6.19,6.60,6.23,-6.23,-6.72,-6.43,0.32,0.37,0.37
104.32,6.52,6.20,6.55,6.23,-6.23,-6.77,-6.53,0.29,0.31,0.32
105.37,6.57,6.31,6.50,6.25,-6.25,-6.81,-6.64,0.32,0.25,0.26
106.42,6.55,6.35,6.48,6.28,-6.28,-6.86,-6.75,0.27,0.19,0.20
107.48,6.52,6.39,6.46,6.33,-6.33,-6.91,-6.85,0.19,0.13,0.13
108.56,6.50,6.44,6.45,6.38,-6.38,-6.96,-6.96,0.12,0.07,0.07
109.64,6.48,6.47,6.45,6.44,-6.44,-7.01,-7.06,0.04,0.01,0.01
110.74,6.46,6.52,6.45,6.50,-6.50,-7.06,-7.17,-0.04,-0.06,-0.06
111.85,6.25,6.36,6.44,6.56,-6.56,-7.11,-7.27,-0.30,-0.12,-0.11
112.97,6.21,6.39,6.43,6.61,-6.61,-7.16,-7.37,-0.40,-0.18,-0.18
114.10,6.43,6.67,6.44,6.68,-6.68,-7.21,-7.46,-0.25,-0.24,-0.24
115.24,6.52,6.82,6.46,6.75,-6.75,-7.25,-7.55,-0.23,-0.29,-0.30
116.39,6.52,6.88,6.46,6.81,-6.81,-7.30,-7.63,-0.29,-0.35,-0.36
117.55,6.53,6.94,6.47,6.87,-6.87,-7.35,-7.71,-0.34,-0.40,-0.41
118.73,6.53,6.99,6.49,6.94,-6.94,-7.39,-7.78,-0.41,-0.45,-0.46
119.92,6.54,7.04,6.51,7.01,-7.01,-7.44,-7.85,-0.47,-0.50,-0.50
121.12,6.55,7.10,6.53,7.07,-7.07,-7.49,-7.91,-0.52,-0.54,-0.55
122.33,6.56,7.15,6.56,7.15,-7.15,-7.53,-7.96,-0.59,-0.59,-0.59
123.55,6.56,7.19,6.58,7.21,-7.21,-7.58,-8.00,-0.65,-0.63,-0.63
124.79,6.57,7.24,6.60,7.27,-7.27,-7.62,-8.03,-0.70,-0.67,-0.67
126.03,6.58,7.29,6.61,7.32,-7.32,-7.67,-8.06,-0.74,-0.71,-0.71
127.29,6.58,7.32,6.60,7.35,-7.35,-7.71,-8.08,-0.77,-0.75,-0.74
128.57,6.59,7.38,6.61,7.40,-7.40,-7.76,-8.09,-0.81,-0.79,-0.79
129.85,6.60,7.43,6.61,7.44,-7.44,-7.80,-8.09,-0.84,-0.83,-0.83
131.15,6.60,7.47,6.60,7.47,-7.47,-7.84,-8.09,-0.87,-0.87,-0.87
132.46,6.61,7.52,6.58,7.49,-7.49,-7.89,-8.08,-0.87,-0.90,-0.90
133.79,6.61,7.55,6.56,7.50,-7.50,-7.93,-8.06,-0.89,-0.94,-0.94
135.12,6.60,7.59,6.53,7.51,-7.51,-7.97,-8.04,-0.91,-0.98,-0.99
136.48,6.45,7.46,6.50,7.51,-7.51,-8.01,-8.01,-1.06,-1.01,-1.01
137.84,6.60,7.66,6.47,7.52,-7.52,-8.05,-7.98,-0.92,-1.05,-1.06
139.22,6.51,7.61,6.43,7.51,-7.51,-8.09,-7.94,-1.00,-1.09,-1.10
140.61,6.42,7.56,6.38,7.51,-7.51,-8.12,-7.90,-1.09,-1.12,-1.14
142.02,6.42,7.58,6.36,7.52,-7.52,-8.16,-7.86,-1.10,-1.17,-1.16
143.44,6.19,7.39,6.35,7.56,-7.56,-8.20,-7.82,-1.37,-1.21,-1.20
144.87,6.16,7.41,6.35,7.60,-7.60,-8.23,-7.78,-1.44,-1.26,-1.25
146.32,6.27,7.57,6.35,7.66,-7.66,-8.27,-7.74,-1.39,-1.31,-1.30
147.78,6.32,7.66,6.38,7.74,-7.74,-8.30,-7.69,-1.42,-1.36,-1.34
149.26,6.32,7.72,6.41,7.84,-7.84,-8.33,-7.65,-1.52,-1.43,-1.39
150.75,6.36,7.83,6.46,7.96,-7.96,-8.36,-7.61,-1.60,-1.49,-1.47
152.26,6.40,7.95,6.52,8.09,-8.09,-8.39,-7.58,-1.68,-1.56,-1.54
153.78,6.44,8.06,6.55,8.19,-8.19,-8.42,-7.54,-1.75,-1.64,-1.62
155.32,6.65,8.35,6.59,8.30,-8.30,-8.45,-7.51,-1.65,-1.71,-1.70
156.88,6.86,8.64,6.60,8.39,-8.39,-8.48,-7.48,-1.53,-1.79,-1.78
158.44,6.81,8.68,6.59,8.45,-8.45,-8.51,-7.46,-1.64,-1.87,-1.87
160.03,6.63,8.59,6.56,8.50,-8.50,-8.53,-7.44,-1.87,-1.94,-1.96
161.63,6.73,8.77,6.51,8.53,-8.53,-8.55,-7.42,-1.79,-2.02,-2.04
163.24,6.74,8.85,6.44,8.53,-8.53,-8.58,-7.41,-1.79,-2.08,-2.11
164.88,6.56,8.73,6.38,8.53,-8.53,-8.60,-7.40,-1.96,-2.15,-2.16
166.53,6.39,8.61,6.34,8.54,-8.54,-8.62,-7.40,-2.15,-2.20,-2.22
168.19,6.11,8.38,6.29,8.54,-8.54,-8.64,-7.40,-2.43,-2.25,-2.26
169.87,5.85,8.16,6.23,8.52,-8.52,-8.65,-7.41,-2.66,-2.29,-2.31
171.57,5.92,8.25,6.17,8.49,-8.49,-8.67,-7.42,-2.57,-2.32,-2.33
173.29,5.81,8.17,6.12,8.46,-8.46,-8.68,-7.44,-2.65,-2.34,-2.35
175.02,5.84,8.21,6.08,8.45,-8.45,-8.70,-7.46,-2.60,-2.36,-2.36
176.77,6.13,8.52,6.09,8.47,-8.47,-8.71,-7.49,-2.34,-2.38,-2.38
178.54,6.22,8.62,6.11,8.50,-8.50,-8.72,-7.53,-2.28,-2.39,-2.39
180.32,6.28,8.68,6.14,8.55,-8.55,-8.72,-7.57,-2.26,-2.40,-2.39
182.13,6.49,8.88,6.22,8.63,-8.63,-8.73,-7.61,-2.14,-2.41,-2.39
183.95,6.54,8.95,6.31,8.74,-8.74,-8.74,-7.67,-2.20,-2.42,-2.41
185.79,6.21,8.63,6.41,8.85,-8.85,-8.74,-7.72,-2.64,-2.44,-2.41
187.65,6.29,8.73,6.51,8.96,-8.96,-8.74,-7.79,-2.66,-2.45,-2.44
189.52,6.49,8.95,6.58,9.05,-9.05,-8.74,-7.85,-2.56,-2.46,-2.45
191.42,6.55,9.03,6.64,9.12,-9.12,-8.74,-7.93,-2.57,-2.48,-2.48
193.33,6.73,9.23,6.68,9.18,-9.18,-8.74,-8.00,-2.45,-2.50,-2.50
195.27,6.86,9.38,6.70,9.22,-9.22,-8.73,-8.09,-2.36,-2.52,-2.52
197.22,6.82,9.37,6.70,9.25,-9.25,-8.72,-8.17,-2.43,-2.54,-2.54
199.19,6.88,9.46,6.72,9.29,-9.29,-8.72,-8.27,-2.41,-2.57,-2.58
201.18,6.93,9.53,6.73,9.32,-9.32,-8.71,-8.36,-2.39,-2.59,-2.60
203.19,6.74,9.36,6.73,9.35,-9.35,-8.69,-8.46,-2.61,-2.62,-2.62
205.23,6.62,9.27,6.75,9.39,-9.39,-8.68,-8.56,-2.77,-2.64,-2.64
207.28,6.62,9.27,6.76,9.42,-9.42,-8.66,-8.67,-2.80,-2.67,-2.65
209.35,6.62,9.30,6.74,9.42,-9.42,-8.65,-8.77,-2.80,-2.69,-2.68
211.44,6.62,9.34,6.71,9.42,-9.42,-8.63,-8.88,-2.80,-2.71,-2.72
213.56,6.61,9.34,6.69,9.42,-9.42,-8.61,-8.99,-2.81,-2.73,-2.72
215.69,6.61,9.35,6.67,9.42,-9.42,-8.59,-9.10,-2.81,-2.74,-2.74
217.85,6.79,9.55,6.66,9.42,-9.42,-8.56,-9.20,-2.63,-2.76,-2.76
220.03,6.68,9.45,6.65,9.42,-9.42,-8.54,-9.31,-2.73,-2.77,-2.77
222.23,6.55,9.35,6.62,9.40,-9.40,-8.51,-9.41,-2.85,-2.78,-2.80
224.45,6.63,9.42,6.60,9.39,-9.39,-8.48,-9.51,-2.75,-2.78,-2.79
226.70,6.65,9.45,6.57,9.36,-9.36,-8.45,-9.60,-2.71,-2.79,-2.79
228.96,6.51,9.30,6.54,9.32,-9.32,-8.42,-9.68,-2.81,-2.78,-2.79
231.25,6.57,9.35,6.49,9.27,-9.27,-8.39,-9.76,-2.70,-2.78,-2.78
233.57,6.52,9.29,6.43,9.20,-9.20,-8.35,-9.83,-2.68,-2.77,-2.77
235.90,6.37,9.13,6.35,9.11,-9.11,-8.32,-9.89,-2.74,-2.76,-2.76
238.26,6.30,9.06,6.27,9.01,-9.01,-8.28,-9.93,-2.71,-2.74,-2.75
240.64,6.12,8.86,6.17,8.89,-8.89,-8.24,-9.97,-2.77,-2.73,-2.74
243.05,5.93,8.64,6.05,8.76,-8.76,-8.20,-9.99,-2.83,-2.71,-2.71
245.48,5.93,8.62,5.95,8.63,-8.63,-8.15,-9.99,-2.70,-2.69,-2.69
247.93,5.82,8.48,5.82,8.49,-8.49,-8.11,-9.98,-2.66,-2.67,-2.66
250.41,5.68,8.33,5.68,8.32,-8.32,-8.06,-9.96,-2.64,-2.65,-2.65
252.92,5.69,8.31,5.54,8.17,-8.17,-8.02,-9.92,-2.47,-2.62,-2.61
255.45,5.49,8.09,5.41,8.01,-8.01,-7.97,-9.87,-2.52,-2.60,-2.59
258.00,5.29,7.86,5.28,7.86,-7.86,-7.92,-9.80,-2.56,-2.58,-2.57
260.58,5.13,7.69,5.15,7.70,-7.70,-7.87,-9.71,-2.57,-2.56,-2.56
263.19,4.99,7.52,5.03,7.56,-7.56,-7.82,-9.62,-2.57,-2.53,-2.53
265.82,4.89,7.41,4.91,7.42,-7.42,-7.76,-9.51,-2.53,-2.51,-2.52
268.48,4.76,7.25,4.82,7.30,-7.30,-7.71,-9.39,-2.54,-2.49,-2.49
271.16,4.65,7.11,4.73,7.19,-7.19,-7.65,-9.26,-2.54,-2.46,-2.46
273.87,4.57,7.02,4.64,7.08,-7.08,-7.60,-9.11,-2.51,-2.44,-2.45
276.61,4.60,7.01,4.58,6.99,-6.99,-7.54,-8.97,-2.39,-2.41,-2.41
279.38,4.59,6.98,4.54,6.93,-6.93,-7.48,-8.81,-2.33,-2.39,-2.39
282.17,4.50,6.87,4.51,6.88,-6.88,-7.42,-8.65,-2.37,-2.36,-2.37
284.99,4.45,6.78,4.52,6.86,-6.86,-7.36,-8.48,-2.40,-2.34,-2.33
287.84,4.44,6.76,4.54,6.85,-6.85,-7.30,-8.31,-2.41,-2.31,-2.32
290.72,4.58,6.86,4.58,6.86,-6.86,-7.23,-8.14,-2.28,-2.28,-2.28
293.63,4.60,6.86,4.63,6.89,-6.89,-7.17,-7.97,-2.28,-2.25,-2.26
296.57,4.71,6.93,4.70,6.92,-6.92,-7.10,-7.79,-2.21,-2.22,-2.22
299.53,4.73,6.93,4.78,6.98,-6.98,-7.04,-7.62,-2.24,-2.20,-2.20
302.53,4.79,6.97,4.86,7.03,-7.03,-6.97,-7.44,-2.24,-2.17,-2.18
305.55,4.95,7.09,4.93,7.08,-7.08,-6.90,-7.27,-2.13,-2.15,-2.14
308.61,5.03,7.15,5.01,7.13,-7.13,-6.83,-7.10,-2.10,-2.12,-2.12
311.69,5.12,7.22,5.07,7.18,-7.18,-6.76,-6.93,-2.05,-2.10,-2.09
314.81,5.19,7.26,5.13,7.21,-7.21,-6.69,-6.76,-2.02,-2.08,-2.07
317.96,5.24,7.29,5.18,7.24,-7.24,-6.62,-6.60,-1.99,-2.06,-2.05
321.14,5.27,7.32,5.20,7.24,-7.24,-6.55,-6.44,-1.97,-2.04,-2.05
324.35,5.32,7.35,5.20,7.23,-7.23,-6.48,-6.28,-1.91,-2.03,-2.03
327.59,5.33,7.35,5.21,7.22,-7.22,-6.41,-6.12,-1.89,-2.01,-2.01
330.87,5.24,7.25,5.20,7.20,-7.20,-6.33,-5.97,-1.96,-2.00,-2.01
334.18,5.18,7.17,5.19,7.18,-7.18,-6.26,-5.82,-2.00,-1.99,-1.99
337.52,5.10,7.08,5.17,7.15,-7.15,-6.18,-5.68,-2.05,-1.98,-1.98
340.90,5.08,7.05,5.15,7.12,-7.12,-6.11,-5.53,-2.04,-1.97,-1.97
344.30,5.02,6.98,5.12,7.09,-7.09,-6.03,-5.40,-2.07,-1.97,-1.96
347.75,4.98,6.94,5.10,7.06,-7.06,-5.95,-5.26,-2.08,-1.96,-1.96
351.23,4.97,6.93,5.09,7.04,-7.04,-5.88,-5.13,-2.07,-1.96,-1.95
354.74,5.02,6.98,5.08,7.03,-7.03,-5.80,-5.01,-2.01,-1.95,-1.96
358.28,5.07,7.02,5.07,7.02,-7.02,-5.72,-4.88,-1.95,-1.95,-1.95
361.87,5.08,7.03,5.06,7.01,-7.01,-5.64,-4.77,-1.93,-1.95,-1.95
365.49,5.09,7.04,5.06,7.00,-7.00,-5.56,-4.65,-1.91,-1.95,-1.94
369.14,5.06,7.02,5.05,7.00,-7.00,-5.48,-4.54,-1.94,-1.95,-1.96
372.83,5.01,6.97,5.03,6.98,-6.98,-5.40,-4.43,-1.97,-1.95,-1.96
376.56,5.01,6.97,4.99,6.94,-6.94,-5.32,-4.32,-1.93,-1.96,-1.96
380.33,4.99,6.94,4.93,6.89,-6.89,-5.23,-4.22,-1.90,-1.96,-1.95
384.13,4.91,6.87,4.86,6.82,-6.82,-5.15,-4.12,-1.91,-1.96,-1.95
387.97,4.84,6.81,4.76,6.73,-6.73,-5.07,-4.03,-1.89,-1.97,-1.97
391.85,4.71,6.69,4.64,6.61,-6.61,-4.98,-3.94,-1.90,-1.97,-1.98
395.77,4.54,6.51,4.49,6.47,-6.47,-4.90,-3.85,-1.92,-1.98,-1.97
399.73,4.39,6.37,4.32,6.31,-6.31,-4.81,-3.76,-1.92,-1.98,-1.98
403.72,4.20,6.18,4.14,6.13,-6.13,-4.72,-3.68,-1.93,-1.99,-1.98
407.76,3.94,5.93,3.96,5.95,-5.95,-4.64,-3.59,-2.01,-2.00,-1.99
411.84,3.72,5.72,3.76,5.76,-5.76,-4.55,-3.52,-2.04,-2.00,-1.99
415.96,3.53,5.53,3.56,5.56,-5.56,-4.46,-3.44,-2.03,-2.00,-2.00
420.12,3.34,5.34,3.36,5.36,-5.36,-4.37,-3.36,-2.02,-2.00,-2.00
424.32,3.13,5.13,3.17,5.16,-5.16,-4.28,-3.29,-2.03,-1.99,-2.00
428.56,2.89,4.88,2.98,4.97,-4.97,-4.18,-3.22,-2.07,-1.98,-1.99
432.85,2.71,4.69,2.81,4.77,-4.77,-4.09,-3.15,-2.06,-1.97,-1.98
437.18,2.58,4.55,2.65,4.59,-4.59,-3.99,-3.09,-2.01,-1.95,-1.97
441.55,2.44,4.37,2.50,4.42,-4.42,-3.90,-3.02,-1.98,-1.92,-1.93
445.96,2.32,4.23,2.36,4.25,-4.25,-3.80,-2.96,-1.93,-1.89,-1.90
450.42,2.23,4.11,2.23,4.08,-4.08,-3.70,-2.90,-1.85,-1.85,-1.87
454.93,2.10,3.93,2.10,3.91,-3.91,-3.59,-2.84,-1.81,-1.81,-1.83
459.48,2.02,3.80,1.98,3.75,-3.75,-3.49,-2.78,-1.72,-1.77,-1.78
464.07,1.90,3.63,1.85,3.57,-3.57,-3.38,-2.72,-1.67,-1.72,-1.73
468.71,1.72,3.39,1.73,3.40,-3.40,-3.27,-2.66,-1.68,-1.68,-1.67
473.40,1.62,3.25,1.60,3.22,-3.22,-3.16,-2.61,-1.60,-1.63,-1.63
478.13,1.53,3.10,1.46,3.04,-3.04,-3.04,-2.55,-1.51,-1.58,-1.57
482.91,1.38,2.91,1.32,2.85,-2.85,-2.92,-2.50,-1.47,-1.53,-1.53
487.74,1.15,2.64,1.16,2.65,-2.65,-2.79,-2.44,-1.50,-1.49,-1.49
492.62,0.93,2.37,0.99,2.45,-2.45,-2.67,-2.39,-1.51,-1.46,-1.44
497.55,0.80,2.22,0.82,2.24,-2.24,-2.53,-2.34,-1.44,-1.43,-1.42
502.52,0.65,2.04,0.64,2.04,-2.04,-2.39,-2.28,-1.39,-1.40,-1.39
507.55,0.44,1.83,0.44,1.83,-1.83,-2.24,-2.23,-1.39,-1.39,-1.38
