frequency,raw,error,smoothed,error_smoothed,equalization,parametric_eq,fixed_band_eq,equalized_raw,equalized_smoothed,target
20.00,-0.69,-9.15,-0.69,-9.15,9.15,7.94,2.93,8.46,8.46,8.46
20.20,-0.60,-9.05,-0.60,-9.05,9.05,7.90,3.02,8.44,8.44,8.45
20.40,-0.51,-8.95,-0.51,-8.95,8.95,7.86,3.10,8.43,8.43,8.44
20.61,-0.43,-8.85,-0.42,-8.85,8.85,7.82,3.19,8.42,8.42,8.43
20.81,-0.33,-8.74,-0.33,-8.74,8.75,7.78,3.28,8.41,8.41,8.41
21.02,-0.24,-8.64,-0.25,-8.64,8.65,7.74,3.38,8.41,8.40,8.40
21.23,-0.16,-8.55,-0.16,-8.55,8.56,7.70,3.47,8.39,8.39,8.39
21.44,-0.08,-8.48,-0.08,-8.47,8.46,7.65,3.57,8.38,8.38,8.40
21.66,-0.00,-8.38,-0.00,-8.38,8.37,7.61,3.67,8.37,8.37,8.38
21.87,0.09,-8.29,0.08,-8.29,8.28,7.57,3.78,8.37,8.37,8.38
22.09,0.16,-8.20,0.16,-8.20,8.20,7.53,3.89,8.36,8.36,8.36
22.31,0.24,-8.11,0.24,-8.11,8.12,7.49,4.00,8.35,8.35,8.35
22.54,0.31,-8.03,0.31,-8.03,8.03,7.44,4.11,8.34,8.34,8.34
22.76,0.39,-7.95,0.38,-7.95,7.96,7.40,4.23,8.34,8.34,8.34
22.99,0.46,-7.87,0.45,-7.87,7.88,7.36,4.34,8.33,8.33,8.33
23.22,0.52,-7.80,0.52,-7.81,7.80,7.31,4.47,8.32,8.32,8.32
23.45,0.58,-7.75,0.58,-7.74,7.73,7.27,4.59,8.31,8.31,8.33
23.69,0.65,-7.67,0.65,-7.67,7.66,7.23,4.72,8.31,8.31,8.32
23.92,0.72,-7.59,0.72,-7.60,7.59,7.18,4.85,8.31,8.31,8.31
24.16,0.80,-7.52,0.79,-7.52,7.52,7.14,4.98,8.32,8.32,8.32
24.40,0.87,-7.45,0.86,-7.45,7.45,7.09,5.12,8.32,8.31,8.32
24.65,0.93,-7.38,0.93,-7.38,7.38,7.05,5.26,8.31,8.31,8.31
24.89,0.99,-7.32,0.99,-7.32,7.31,7.00,5.39,8.30,8.30,8.31
25.14,1.05,-7.25,1.05,-7.24,7.24,6.96,5.53,8.29,8.30,8.30
25.39,1.13,-7.17,1.12,-7.17,7.18,6.91,5.68,8.30,8.30,8.30
25.65,1.20,-7.10,1.19,-7.10,7.11,6.87,5.82,8.31,8.31,8.30
25.91,1.26,-7.04,1.25,-7.05,7.05,6.82,5.96,8.31,8.31,8.30
26.16,1.31,-7.00,1.31,-6.99,6.99,6.78,6.11,8.30,8.30,8.31
26.43,1.36,-6.94,1.36,-6.94,6.93,6.73,6.25,8.29,8.29,8.30
26.69,1.42,-6.88,1.41,-6.88,6.87,6.69,6.39,8.29,8.29,8.30
26.96,1.48,-6.82,1.47,-6.82,6.82,6.64,6.53,8.29,8.29,8.30
27.23,1.53,-6.77,1.53,-6.77,6.76,6.60,6.67,8.29,8.29,8.30
27.50,1.59,-6.71,1.59,-6.71,6.71,6.55,6.80,8.30,8.30,8.30
27.77,1.65,-6.66,1.65,-6.65,6.66,6.50,6.93,8.31,8.31,8.31
28.05,1.71,-6.59,1.70,-6.60,6.62,6.46,7.05,8.32,8.32,8.30
28.33,1.75,-6.56,1.74,-6.56,6.57,6.41,7.17,8.32,8.31,8.31
28.62,1.78,-6.53,1.78,-6.53,6.52,6.36,7.28,8.30,8.31,8.31
28.90,1.82,-6.50,1.82,-6.50,6.48,6.32,7.38,8.30,8.30,8.32
29.19,1.86,-6.46,1.86,-6.45,6.44,6.27,7.48,8.30,8.30,8.32
29.48,1.91,-6.40,1.91,-6.40,6.40,6.22,7.56,8.31,8.31,8.31
29.78,1.96,-6.35,1.95,-6.35,6.36,6.17,7.63,8.32,8.31,8.31
30.08,2.00,-6.31,1.99,-6.31,6.32,6.13,7.69,8.31,8.31,8.31
30.38,2.03,-6.26,2.03,-6.27,6.27,6.08,7.74,8.30,8.30,8.29
30.68,2.06,-6.23,2.06,-6.23,6.23,6.03,7.77,8.28,8.29,8.29
30.99,2.10,-6.19,2.09,-6.19,6.18,5.98,7.80,8.28,8.28,8.29
31.30,2.14,-6.15,2.14,-6.15,6.14,5.93,7.80,8.27,8.27,8.29
31.61,2.18,-6.10,2.18,-6.10,6.09,5.89,7.80,8.27,8.27,8.28
31.93,2.23,-6.03,2.22,-6.04,6.05,5.84,7.77,8.27,8.27,8.26
32.24,2.27,-6.00,2.26,-5.99,6.00,5.79,7.74,8.26,8.26,8.27
32.57,2.31,-5.94,2.31,-5.94,5.95,5.74,7.69,8.25,8.25,8.25
32.89,2.35,-5.90,2.35,-5.90,5.89,5.69,7.64,8.24,8.24,8.25
33.22,2.40,-5.84,2.39,-5.85,5.84,5.64,7.56,8.24,8.24,8.24
33.55,2.44,-5.80,2.44,-5.80,5.79,5.59,7.48,8.23,8.23,8.24
33.89,2.48,-5.75,2.48,-5.74,5.75,5.54,7.39,8.22,8.23,8.23
34.23,2.52,-5.69,2.52,-5.69,5.70,5.49,7.29,8.22,8.22,8.21
34.57,2.57,-5.64,2.56,-5.64,5.66,5.44,7.18,8.22,8.21,8.21
34.92,2.60,-5.59,2.59,-5.60,5.61,5.39,7.07,8.20,8.20,8.19
35.27,2.63,-5.58,2.63,-5.56,5.56,5.34,6.95,8.18,8.19,8.21
35.62,2.66,-5.52,2.66,-5.52,5.51,5.29,6.82,8.16,8.17,8.18
35.97,2.71,-5.47,2.70,-5.47,5.46,5.24,6.69,8.16,8.16,8.18
36.33,2.75,-5.41,2.75,-5.40,5.40,5.19,6.56,8.15,8.15,8.16
36.70,2.81,-5.33,2.80,-5.34,5.35,5.14,6.43,8.15,8.15,8.14
37.06,2.85,-5.27,2.84,-5.27,5.28,5.09,6.29,8.13,8.13,8.12
37.43,2.89,-5.21,2.89,-5.21,5.22,5.03,6.15,8.11,8.11,8.10
37.81,2.93,-5.16,2.93,-5.15,5.15,4.98,6.02,8.07,8.07,8.09
38.19,2.98,-5.08,2.97,-5.09,5.07,4.93,5.88,8.05,8.05,8.06
38.57,3.03,-5.01,3.03,-5.01,4.99,4.88,5.74,8.02,8.02,8.04
38.95,3.10,-4.93,3.10,-4.92,4.91,4.82,5.61,8.01,8.01,8.03
39.34,3.17,-4.83,3.16,-4.83,4.83,4.77,5.48,8.00,8.00,8.00
39.74,3.23,-4.74,3.23,-4.74,4.75,4.72,5.34,7.98,7.98,7.97
40.14,3.30,-4.65,3.29,-4.65,4.67,4.66,5.22,7.97,7.96,7.95
40.54,3.35,-4.58,3.34,-4.58,4.60,4.61,5.09,7.94,7.94,7.93
40.94,3.39,-4.51,3.39,-4.51,4.52,4.55,4.96,7.91,7.91,7.90
41.35,3.43,-4.46,3.43,-4.45,4.45,4.50,4.84,7.87,7.88,7.89
41.76,3.47,-4.39,3.47,-4.39,4.38,4.44,4.72,7.85,7.85,7.86
42.18,3.52,-4.33,3.52,-4.33,4.31,4.38,4.61,7.83,7.83,7.85
42.60,3.57,-4.25,3.57,-4.25,4.24,4.33,4.50,7.81,7.81,7.82
43.03,3.62,-4.18,3.61,-4.18,4.18,4.27,4.39,7.80,7.79,7.80
43.46,3.66,-4.10,3.66,-4.10,4.11,4.21,4.28,7.77,7.77,7.76
43.90,3.70,-4.04,3.70,-4.04,4.05,4.15,4.18,7.74,7.74,7.74
44.33,3.74,-3.97,3.73,-3.98,3.98,4.09,4.08,7.72,7.72,7.71
44.78,3.77,-3.92,3.77,-3.92,3.92,4.03,3.98,7.69,7.69,7.69
45.23,3.80,-3.87,3.80,-3.86,3.86,3.97,3.89,7.66,7.66,7.67
45.68,3.83,-3.79,3.82,-3.80,3.80,3.91,3.80,7.62,7.62,7.62
46.13,3.85,-3.74,3.85,-3.74,3.73,3.85,3.71,7.58,7.58,7.59
46.60,3.88,-3.67,3.88,-3.67,3.67,3.78,3.62,7.54,7.54,7.55
47.06,3.91,-3.61,3.91,-3.61,3.59,3.72,3.54,7.50,7.50,7.52
47.53,3.95,-3.53,3.95,-3.53,3.52,3.66,3.46,7.46,7.46,7.48
48.01,3.99,-3.44,3.99,-3.44,3.44,3.59,3.39,7.42,7.43,7.43
48.49,4.04,-3.35,4.03,-3.35,3.36,3.53,3.31,7.39,7.39,7.39
48.97,4.07,-3.27,4.07,-3.27,3.28,3.46,3.24,7.35,7.35,7.34
49.46,4.11,-3.20,4.11,-3.19,3.20,3.39,3.17,7.31,7.31,7.31
49.96,4.14,-3.11,4.13,-3.12,3.13,3.32,3.11,7.26,7.26,7.25
50.46,4.16,-3.06,4.16,-3.06,3.06,3.25,3.04,7.21,7.21,7.22
50.96,4.18,-3.00,4.18,-2.99,2.99,3.18,2.98,7.17,7.17,7.18
51.47,4.21,-2.93,4.20,-2.93,2.93,3.11,2.92,7.13,7.13,7.14
51.99,4.23,-2.86,4.23,-2.87,2.87,3.04,2.86,7.09,7.10,7.09
52.51,4.25,-2.81,4.25,-2.81,2.81,2.97,2.80,7.06,7.06,7.06
53.03,4.27,-2.76,4.26,-2.76,2.76,2.89,2.75,7.02,7.02,7.03
53.56,4.27,-2.71,4.27,-2.70,2.70,2.82,2.69,6.97,6.97,6.98
54.10,4.29,-2.64,4.28,-2.65,2.65,2.75,2.64,6.93,6.93,6.93
54.64,4.30,-2.59,4.29,-2.59,2.60,2.67,2.58,6.89,6.89,6.89
55.18,4.31,-2.54,4.31,-2.54,2.54,2.60,2.53,6.85,6.85,6.85
55.74,4.32,-2.48,4.31,-2.49,2.49,2.52,2.48,6.80,6.80,6.80
56.29,4.33,-2.45,4.33,-2.44,2.43,2.44,2.43,6.76,6.76,6.78
56.86,4.35,-2.39,4.35,-2.38,2.37,2.37,2.38,6.72,6.72,6.74
57.42,4.38,-2.31,4.37,-2.32,2.31,2.29,2.32,6.69,6.69,6.69
58.00,4.41,-2.24,4.41,-2.24,2.25,2.22,2.27,6.65,6.66,6.65
58.58,4.44,-2.18,4.44,-2.18,2.18,2.14,2.22,6.62,6.62,6.62
59.16,4.48,-2.11,4.47,-2.11,2.11,2.06,2.17,6.59,6.58,6.59
59.76,4.50,-2.04,4.50,-2.04,2.03,1.99,2.11,6.53,6.53,6.54
60.35,4.53,-1.96,4.52,-1.96,1.96,1.92,2.06,6.48,6.48,6.49
60.96,4.55,-1.88,4.55,-1.88,1.88,1.84,2.00,6.42,6.42,6.43
61.57,4.57,-1.80,4.57,-1.80,1.80,1.77,1.95,6.37,6.37,6.37
62.18,4.59,-1.72,4.59,-1.72,1.72,1.70,1.89,6.31,6.31,6.31
62.80,4.61,-1.64,4.61,-1.64,1.65,1.63,1.83,6.25,6.26,6.25
63.43,4.64,-1.56,4.63,-1.56,1.57,1.56,1.77,6.21,6.20,6.20
64.07,4.66,-1.49,4.66,-1.49,1.49,1.49,1.71,6.15,6.15,6.15
64.71,4.68,-1.42,4.68,-1.42,1.42,1.42,1.65,6.09,6.09,6.10
65.35,4.70,-1.34,4.70,-1.35,1.34,1.36,1.59,6.04,6.04,6.04
66.01,4.72,-1.27,4.72,-1.27,1.26,1.29,1.52,5.98,5.98,5.99
66.67,4.75,-1.20,4.75,-1.19,1.19,1.23,1.45,5.93,5.93,5.95
67.33,4.78,-1.10,4.78,-1.11,1.10,1.16,1.39,5.88,5.88,5.88
68.01,4.81,-1.02,4.81,-1.02,1.02,1.10,1.32,5.83,5.83,5.83
68.69,4.84,-0.94,4.84,-0.94,0.94,1.04,1.25,5.77,5.77,5.78
69.37,4.87,-0.86,4.86,-0.86,0.85,0.98,1.17,5.72,5.72,5.73
70.07,4.89,-0.78,4.89,-0.77,0.77,0.91,1.10,5.66,5.66,5.67
70.77,4.92,-0.68,4.91,-0.69,0.69,0.85,1.03,5.61,5.60,5.60
71.48,4.94,-0.61,4.93,-0.61,0.61,0.79,0.95,5.55,5.55,5.55
72.19,4.95,-0.54,4.95,-0.53,0.54,0.73,0.88,5.49,5.49,5.49
72.91,4.96,-0.46,4.96,-0.47,0.48,0.66,0.80,5.43,5.43,5.42
73.64,4.96,-0.41,4.96,-0.41,0.41,0.60,0.72,5.37,5.37,5.37
74.38,4.96,-0.35,4.95,-0.35,0.36,0.54,0.65,5.31,5.31,5.31
75.12,4.95,-0.31,4.95,-0.31,0.31,0.47,0.57,5.25,5.25,5.26
75.87,4.94,-0.27,4.94,-0.26,0.26,0.41,0.49,5.19,5.20,5.21
76.63,4.94,-0.21,4.94,-0.22,0.21,0.34,0.41,5.15,5.14,5.15
77.40,4.94,-0.17,4.94,-0.16,0.16,0.28,0.33,5.10,5.10,5.11
78.17,4.94,-0.11,4.94,-0.11,0.11,0.21,0.25,5.05,5.05,5.05
78.95,4.94,-0.07,4.94,-0.07,0.07,0.14,0.16,5.00,5.00,5.01
79.74,4.94,-0.02,4.94,-0.02,0.02,0.07,0.08,4.95,4.95,4.96
80.54,4.94,0.03,4.94,0.03,-0.03,0.00,-0.00,4.91,4.91,4.91
81.35,4.94,0.09,4.94,0.08,-0.08,-0.07,-0.08,4.86,4.86,4.85
82.16,4.94,0.12,4.94,0.13,-0.13,-0.14,-0.17,4.81,4.81,4.82
82.98,4.94,0.18,4.94,0.18,-0.18,-0.21,-0.25,4.76,4.76,4.76
83.81,4.94,0.23,4.93,0.23,-0.23,-0.29,-0.34,4.71,4.71,4.71
84.65,4.93,0.28,4.93,0.28,-0.27,-0.36,-0.42,4.65,4.65,4.65
85.50,4.92,0.33,4.92,0.33,-0.33,-0.44,-0.51,4.59,4.59,4.59
86.35,4.92,0.38,4.92,0.38,-0.38,-0.52,-0.60,4.53,4.53,4.54
87.22,4.92,0.43,4.92,0.44,-0.44,-0.59,-0.68,4.47,4.48,4.49
88.09,4.93,0.50,4.92,0.50,-0.51,-0.67,-0.77,4.42,4.42,4.43
88.97,4.94,0.57,4.94,0.57,-0.57,-0.75,-0.86,4.36,4.36,4.37
89.86,4.96,0.64,4.96,0.65,-0.65,-0.83,-0.95,4.31,4.31,4.32
90.76,4.99,0.73,4.98,0.73,-0.73,-0.91,-1.04,4.26,4.25,4.26
91.66,5.01,0.82,5.01,0.81,-0.81,-0.99,-1.13,4.19,4.20,4.19
92.58,5.04,0.90,5.04,0.90,-0.90,-1.07,-1.22,4.14,4.14,4.14
93.51,5.07,0.98,5.07,0.99,-0.99,-1.15,-1.31,4.08,4.08,4.09
94.44,5.11,1.08,5.10,1.08,-1.08,-1.23,-1.41,4.03,4.02,4.03
95.39,5.13,1.17,5.13,1.17,-1.17,-1.31,-1.50,3.96,3.96,3.96
96.34,5.16,1.27,5.15,1.27,-1.26,-1.39,-1.59,3.90,3.89,3.89
97.30,5.18,1.35,5.17,1.35,-1.35,-1.47,-1.69,3.83,3.83,3.83
98.28,5.20,1.44,5.20,1.44,-1.44,-1.55,-1.78,3.76,3.76,3.76
99.26,5.22,1.52,5.22,1.52,-1.52,-1.63,-1.88,3.69,3.70,3.70
100.25,5.25,1.61,5.24,1.61,-1.61,-1.71,-1.97,3.64,3.64,3.64
101.25,5.27,1.68,5.27,1.69,-1.69,-1.79,-2.07,3.58,3.58,3.59
102.27,5.30,1.77,5.29,1.77,-1.76,-1.87,-2.16,3.53,3.53,3.53
103.29,5.32,1.85,5.32,1.85,-1.84,-1.95,-2.26,3.47,3.47,3.47
104.32,5.34,1.92,5.34,1.92,-1.92,-2.03,-2.35,3.41,3.41,3.42
105.37,5.36,2.00,5.36,2.00,-2.00,-2.11,-2.45,3.35,3.35,3.36
106.42,5.38,2.07,5.38,2.08,-2.08,-2.18,-2.54,3.29,3.30,3.31
107.48,5.41,2.16,5.41,2.16,-2.16,-2.26,-2.63,3.24,3.24,3.25
108.56,5.44,2.24,5.44,2.24,-2.25,-2.33,-2.72,3.19,3.19,3.20
109.64,5.47,2.33,5.47,2.33,-2.33,-2.41,-2.81,3.14,3.14,3.14
110.74,5.50,2.42,5.50,2.42,-2.42,-2.48,-2.90,3.08,3.08,3.08
111.85,5.53,2.51,5.52,2.50,-2.50,-2.55,-2.98,3.02,3.02,3.02
112.97,5.55,2.58,5.55,2.59,-2.59,-2.62,-3.06,2.96,2.96,2.97
114.10,5.57,2.66,5.57,2.67,-2.67,-2.69,-3.14,2.89,2.90,2.91
115.24,5.59,2.76,5.58,2.75,-2.75,-2.76,-3.21,2.84,2.84,2.83
116.39,5.60,2.83,5.60,2.83,-2.82,-2.82,-3.29,2.78,2.78,2.77
117.55,5.61,2.90,5.60,2.90,-2.88,-2.89,-3.35,2.72,2.72,2.71
118.73,5.61,2.96,5.60,2.95,-2.94,-2.95,-3.42,2.66,2.66,2.65
119.92,5.60,2.99,5.60,3.00,-3.00,-3.01,-3.48,2.60,2.60,2.61
121.12,5.60,3.04,5.59,3.04,-3.05,-3.07,-3.54,2.55,2.55,2.56
122.33,5.59,3.09,5.59,3.09,-3.10,-3.12,-3.59,2.49,2.49,2.50
123.55,5.59,3.14,5.59,3.14,-3.15,-3.18,-3.63,2.44,2.44,2.45
124.79,5.59,3.19,5.58,3.19,-3.20,-3.23,-3.67,2.39,2.38,2.40
126.03,5.59,3.25,5.59,3.25,-3.26,-3.28,-3.71,2.33,2.33,2.34
127.29,5.59,3.30,5.59,3.31,-3.32,-3.32,-3.74,2.27,2.27,2.29
128.57,5.60,3.38,5.60,3.38,-3.38,-3.37,-3.78,2.22,2.22,2.22
129.85,5.61,3.44,5.60,3.44,-3.44,-3.41,-3.80,2.17,2.17,2.17
131.15,5.61,3.50,5.61,3.50,-3.49,-3.45,-3.82,2.12,2.12,2.11
132.46,5.61,3.55,5.60,3.55,-3.54,-3.49,-3.83,2.06,2.06,2.06
133.79,5.60,3.60,5.59,3.60,-3.59,-3.53,-3.85,2.01,2.00,2.00
135.12,5.58,3.63,5.58,3.63,-3.63,-3.56,-3.86,1.95,1.95,1.95
136.48,5.56,3.66,5.56,3.66,-3.66,-3.59,-3.86,1.89,1.89,1.90
137.84,5.54,3.69,5.53,3.69,-3.69,-3.62,-3.87,1.84,1.84,1.85
139.22,5.51,3.72,5.51,3.72,-3.72,-3.66,-3.87,1.79,1.79,1.79
140.61,5.48,3.73,5.48,3.74,-3.74,-3.68,-3.87,1.74,1.74,1.75
142.02,5.45,3.76,5.45,3.75,-3.75,-3.71,-3.86,1.69,1.69,1.69
143.44,5.42,3.77,5.42,3.77,-3.77,-3.74,-3.86,1.65,1.65,1.65
144.87,5.39,3.78,5.39,3.78,-3.78,-3.76,-3.86,1.60,1.60,1.61
146.32,5.36,3.80,5.36,3.80,-3.80,-3.79,-3.85,1.56,1.56,1.56
147.78,5.33,3.81,5.33,3.81,-3.81,-3.82,-3.85,1.51,1.51,1.52
149.26,5.30,3.83,5.30,3.83,-3.83,-3.85,-3.84,1.47,1.47,1.47
150.75,5.28,3.85,5.28,3.85,-3.85,-3.88,-3.84,1.43,1.42,1.43
152.26,5.26,3.87,5.26,3.87,-3.88,-3.91,-3.84,1.38,1.38,1.39
153.78,5.25,3.90,5.24,3.90,-3.91,-3.95,-3.84,1.34,1.34,1.35
155.32,5.24,3.93,5.24,3.94,-3.95,-3.98,-3.84,1.29,1.29,1.31
156.88,5.24,3.98,5.24,3.98,-3.99,-4.02,-3.84,1.25,1.25,1.26
158.44,5.25,4.04,5.25,4.03,-4.03,-4.06,-3.84,1.21,1.21,1.21
160.03,5.26,4.09,5.25,4.09,-4.08,-4.10,-3.85,1.18,1.17,1.17
161.63,5.26,4.13,5.26,4.13,-4.13,-4.15,-3.86,1.13,1.13,1.13
163.24,5.26,4.18,5.26,4.18,-4.18,-4.20,-3.87,1.08,1.08,1.08
164.88,5.26,4.23,5.26,4.23,-4.23,-4.25,-3.88,1.03,1.03,1.03
166.53,5.26,4.28,5.26,4.27,-4.28,-4.30,-3.90,0.98,0.98,0.98
168.19,5.26,4.31,5.26,4.32,-4.32,-4.35,-3.92,0.93,0.93,0.95
169.87,5.26,4.37,5.26,4.37,-4.37,-4.40,-3.94,0.89,0.89,0.89
171.57,5.26,4.42,5.26,4.41,-4.42,-4.46,-3.97,0.84,0.84,0.84
173.29,5.26,4.46,5.26,4.47,-4.46,-4.51,-3.99,0.79,0.79,0.80
175.02,5.26,4.51,5.26,4.51,-4.51,-4.56,-4.03,0.75,0.75,0.75
176.77,5.26,4.56,5.26,4.56,-4.56,-4.61,-4.06,0.70,0.70,0.70
178.54,5.26,4.60,5.26,4.61,-4.61,-4.66,-4.10,0.65,0.65,0.66
180.32,5.26,4.66,5.26,4.65,-4.65,-4.72,-4.14,0.61,0.61,0.60
182.13,5.26,4.69,5.26,4.70,-4.70,-4.76,-4.18,0.56,0.56,0.57
183.95,5.26,4.74,5.26,4.74,-4.74,-4.81,-4.23,0.52,0.52,0.52
185.79,5.26,4.79,5.26,4.79,-4.78,-4.85,-4.28,0.47,0.47,0.47
187.65,5.26,4.83,5.26,4.83,-4.83,-4.90,-4.33,0.43,0.43,0.43
189.52,5.26,4.87,5.26,4.87,-4.87,-4.94,-4.39,0.38,0.38,0.39
191.42,5.26,4.91,5.26,4.91,-4.92,-4.97,-4.45,0.34,0.34,0.35
193.33,5.26,4.95,5.26,4.96,-4.96,-5.01,-4.51,0.30,0.30,0.31
195.27,5.26,5.00,5.26,5.00,-5.00,-5.04,-4.57,0.26,0.26,0.26
197.22,5.26,5.05,5.26,5.04,-5.04,-5.07,-4.64,0.22,0.22,0.21
199.19,5.26,5.08,5.26,5.09,-5.08,-5.10,-4.71,0.18,0.18,0.18
201.18,5.26,5.12,5.26,5.12,-5.11,-5.13,-4.78,0.15,0.15,0.14
203.19,5.26,5.15,5.26,5.15,-5.15,-5.15,-4.85,0.11,0.11,0.11
205.23,5.26,5.17,5.26,5.17,-5.18,-5.17,-4.93,0.08,0.07,0.09
207.28,5.26,5.20,5.26,5.20,-5.21,-5.19,-5.00,0.04,0.04,0.06
209.35,5.26,5.24,5.26,5.24,-5.25,-5.21,-5.08,0.01,0.01,0.02
211.44,5.27,5.28,5.27,5.28,-5.28,-5.23,-5.15,-0.02,-0.02,-0.01
213.56,5.28,5.31,5.28,5.32,-5.32,-5.24,-5.23,-0.04,-0.04,-0.03
215.69,5.29,5.35,5.28,5.35,-5.35,-5.25,-5.30,-0.06,-0.06,-0.06
217.85,5.29,5.38,5.28,5.38,-5.37,-5.26,-5.37,-0.09,-0.09,-0.09
220.03,5.28,5.40,5.28,5.40,-5.39,-5.27,-5.44,-0.12,-0.11,-0.12
222.23,5.27,5.42,5.27,5.41,-5.41,-5.28,-5.51,-0.14,-0.14,-0.15
224.45,5.25,5.41,5.25,5.42,-5.41,-5.28,-5.58,-0.17,-0.17,-0.16
226.70,5.23,5.42,5.22,5.41,-5.41,-5.29,-5.64,-0.19,-0.19,-0.19
228.96,5.20,5.40,5.20,5.40,-5.41,-5.29,-5.70,-0.21,-0.21,-0.20
231.25,5.17,5.39,5.17,5.39,-5.39,-5.29,-5.75,-0.23,-0.23,-0.22
233.57,5.14,5.38,5.14,5.38,-5.38,-5.29,-5.80,-0.24,-0.24,-0.24
235.90,5.11,5.36,5.11,5.37,-5.36,-5.28,-5.84,-0.26,-0.26,-0.25
238.26,5.08,5.36,5.08,5.35,-5.35,-5.28,-5.88,-0.27,-0.27,-0.28
240.64,5.05,5.32,5.04,5.33,-5.33,-5.27,-5.91,-0.29,-0.29,-0.27
243.05,5.02,5.31,5.02,5.32,-5.32,-5.27,-5.93,-0.30,-0.30,-0.29
245.48,5.00,5.30,5.00,5.30,-5.30,-5.26,-5.95,-0.31,-0.30,-0.30
247.93,4.99,5.30,4.98,5.29,-5.29,-5.25,-5.96,-0.30,-0.31,-0.31
250.41,4.97,5.27,4.97,5.28,-5.27,-5.24,-5.95,-0.31,-0.31,-0.30
252.92,4.95,5.26,4.95,5.26,-5.26,-5.23,-5.95,-0.31,-0.31,-0.31
255.45,4.93,5.25,4.93,5.25,-5.25,-5.22,-5.93,-0.32,-0.32,-0.32
258.00,4.91,5.23,4.91,5.23,-5.23,-5.21,-5.91,-0.32,-0.32,-0.32
260.58,4.89,5.21,4.89,5.21,-5.21,-5.19,-5.88,-0.33,-0.33,-0.32
263.19,4.87,5.19,4.87,5.19,-5.19,-5.18,-5.84,-0.33,-0.33,-0.32
265.82,4.85,5.18,4.85,5.18,-5.17,-5.16,-5.80,-0.33,-0.33,-0.33
268.48,4.83,5.16,4.82,5.16,-5.15,-5.15,-5.75,-0.33,-0.33,-0.33
271.16,4.80,5.13,4.80,5.13,-5.13,-5.13,-5.69,-0.33,-0.33,-0.33
273.87,4.77,5.10,4.77,5.10,-5.11,-5.11,-5.63,-0.34,-0.34,-0.33
276.61,4.74,5.07,4.74,5.08,-5.08,-5.09,-5.56,-0.35,-0.35,-0.33
279.38,4.71,5.06,4.71,5.06,-5.06,-5.07,-5.50,-0.35,-0.35,-0.35
282.17,4.69,5.04,4.69,5.03,-5.03,-5.05,-5.42,-0.35,-0.35,-0.35
284.99,4.67,5.01,4.67,5.01,-5.01,-5.03,-5.35,-0.34,-0.34,-0.34
287.84,4.65,4.98,4.65,4.99,-4.99,-5.01,-5.27,-0.34,-0.34,-0.33
290.72,4.63,4.97,4.63,4.96,-4.96,-4.99,-5.19,-0.34,-0.34,-0.34
293.63,4.61,4.94,4.61,4.94,-4.94,-4.97,-5.11,-0.33,-0.34,-0.33
296.57,4.59,4.91,4.59,4.91,-4.92,-4.94,-5.03,-0.33,-0.33,-0.32
299.53,4.57,4.89,4.57,4.89,-4.89,-4.92,-4.95,-0.33,-0.32,-0.32
302.53,4.56,4.86,4.55,4.87,-4.87,-4.89,-4.86,-0.31,-0.31,-0.30
305.55,4.54,4.85,4.54,4.84,-4.84,-4.86,-4.78,-0.30,-0.30,-0.31
308.61,4.52,4.82,4.51,4.82,-4.81,-4.84,-4.70,-0.29,-0.30,-0.30
311.69,4.49,4.78,4.49,4.79,-4.78,-4.81,-4.62,-0.29,-0.29,-0.29
314.81,4.46,4.75,4.46,4.75,-4.75,-4.78,-4.55,-0.29,-0.29,-0.29
317.96,4.43,4.71,4.43,4.71,-4.72,-4.75,-4.47,-0.29,-0.29,-0.28
321.14,4.40,4.67,4.40,4.67,-4.68,-4.72,-4.40,-0.29,-0.28,-0.27
324.35,4.38,4.65,4.38,4.64,-4.65,-4.69,-4.33,-0.27,-0.27,-0.27
327.59,4.36,4.60,4.36,4.61,-4.61,-4.66,-4.26,-0.26,-0.26,-0.24
330.87,4.34,4.59,4.33,4.58,-4.58,-4.62,-4.19,-0.24,-0.24,-0.25
334.18,4.31,4.55,4.31,4.55,-4.54,-4.59,-4.13,-0.24,-0.24,-0.24
337.52,4.28,4.52,4.28,4.51,-4.51,-4.55,-4.07,-0.24,-0.24,-0.24
340.90,4.25,4.47,4.25,4.47,-4.48,-4.52,-4.01,-0.23,-0.23,-0.22
344.30,4.22,4.43,4.22,4.44,-4.45,-4.48,-3.96,-0.23,-0.23,-0.21
347.75,4.20,4.41,4.20,4.41,-4.41,-4.45,-3.90,-0.22,-0.21,-0.21
351.23,4.18,4.39,4.18,4.38,-4.38,-4.41,-3.86,-0.20,-0.20,-0.21
354.74,4.16,4.34,4.15,4.35,-4.35,-4.37,-3.81,-0.19,-0.19,-0.18
358.28,4.13,4.32,4.13,4.32,-4.31,-4.33,-3.77,-0.19,-0.19,-0.19
361.87,4.10,4.28,4.10,4.28,-4.28,-4.29,-3.73,-0.19,-0.18,-0.18
365.49,4.08,4.25,4.08,4.25,-4.25,-4.25,-3.69,-0.18,-0.17,-0.17
369.14,4.06,4.21,4.06,4.22,-4.22,-4.20,-3.65,-0.16,-0.16,-0.15
372.83,4.04,4.19,4.03,4.19,-4.18,-4.16,-3.62,-0.15,-0.15,-0.15
376.56,4.01,4.16,4.01,4.15,-4.15,-4.12,-3.59,-0.14,-0.14,-0.15
380.33,3.98,4.12,3.98,4.12,-4.12,-4.07,-3.57,-0.14,-0.14,-0.14
384.13,3.95,4.07,3.95,4.08,-4.08,-4.03,-3.54,-0.14,-0.13,-0.12
387.97,3.93,4.05,3.92,4.04,-4.05,-3.98,-3.52,-0.12,-0.13,-0.12
391.85,3.90,4.01,3.90,4.01,-4.02,-3.94,-3.50,-0.12,-0.12,-0.11
395.77,3.88,3.98,3.88,3.98,-3.98,-3.89,-3.49,-0.11,-0.11,-0.10
399.73,3.86,3.95,3.86,3.94,-3.95,-3.85,-3.47,-0.09,-0.10,-0.09
403.72,3.84,3.90,3.84,3.92,-3.92,-3.80,-3.46,-0.08,-0.08,-0.06
407.76,3.82,3.89,3.82,3.88,-3.88,-3.75,-3.45,-0.06,-0.06,-0.07
411.84,3.80,3.86,3.79,3.85,-3.84,-3.70,-3.44,-0.05,-0.05,-0.06
415.96,3.77,3.81,3.76,3.82,-3.80,-3.66,-3.43,-0.04,-0.04,-0.04
420.12,3.73,3.77,3.73,3.77,-3.76,-3.61,-3.42,-0.04,-0.03,-0.04
424.32,3.69,3.72,3.69,3.71,-3.72,-3.56,-3.42,-0.03,-0.03,-0.03
428.56,3.65,3.66,3.65,3.67,-3.68,-3.51,-3.41,-0.03,-0.03,-0.01
432.85,3.61,3.61,3.61,3.62,-3.63,-3.46,-3.40,-0.03,-0.03,-0.00
437.18,3.58,3.59,3.58,3.58,-3.59,-3.41,-3.40,-0.01,-0.01,-0.01
441.55,3.55,3.55,3.54,3.55,-3.55,-3.36,-3.39,-0.00,-0.00,-0.00
445.96,3.52,3.51,3.51,3.51,-3.50,-3.31,-3.38,0.01,0.01,0.01
450.42,3.48,3.46,3.48,3.47,-3.46,-3.27,-3.37,0.02,0.03,0.02
454.93,3.45,3.42,3.44,3.42,-3.41,-3.22,-3.36,0.04,0.04,0.03
459.48,3.41,3.37,3.40,3.36,-3.36,-3.17,-3.35,0.05,0.04,0.04
464.07,3.36,3.30,3.36,3.30,-3.31,-3.12,-3.34,0.05,0.05,0.06
468.71,3.31,3.24,3.31,3.24,-3.25,-3.07,-3.32,0.05,0.05,0.07
473.40,3.26,3.19,3.26,3.19,-3.20,-3.02,-3.31,0.06,0.06,0.07
478.13,3.22,3.14,3.22,3.14,-3.14,-2.97,-3.28,0.07,0.07,0.08
482.91,3.18,3.09,3.18,3.09,-3.09,-2.92,-3.26,0.09,0.09,0.09
487.74,3.14,3.04,3.13,3.04,-3.04,-2.87,-3.23,0.10,0.10,0.10
492.62,3.10,2.99,3.09,2.99,-2.99,-2.83,-3.20,0.11,0.11,0.11
497.55,3.05,2.93,3.05,2.94,-2.94,-2.78,-3.17,0.11,0.12,0.12
502.52,3.02,2.89,3.01,2.89,-2.89,-2.73,-3.13,0.13,0.13,0.13
507.55,2.98,2.83,2.98,2.84,-2.83,-2.68,-3.09,0.14,0.14,0.15
512.62,2.95,2.79,2.94,2.79,-2.78,-2.64,-3.05,0.16,0.16,0.16
517.75,2.91,2.73,2.91,2.73,-2.73,-2.59,-3.00,0.17,0.17,0.18
522.93,2.87,2.68,2.87,2.68,-2.68,-2.54,-2.95,0.19,0.19,0.19
528.16,2.83,2.63,2.82,2.63,-2.63,-2.49,-2.90,0.20,0.19,0.20
533.44,2.78,2.57,2.78,2.57,-2.58,-2.45,-2.84,0.20,0.20,0.21
538.77,2.74,2.52,2.74,2.53,-2.53,-2.40,-2.78,0.21,0.22,0.22
