frequency,raw,error,smoothed,error_smoothed,equalization,parametric_eq,fixed_band_eq,equalized_raw,equalized_smoothed,target
20.00,-0.73,-3.65,-0.73,-3.68,3.68,3.18,0.57,2.95,2.95,2.92
20.20,-0.63,-3.60,-0.63,-3.62,3.62,3.21,0.58,2.99,2.98,2.97
20.40,-0.53,-3.55,-0.53,-3.55,3.55,3.22,0.60,3.02,3.02,3.02
20.61,-0.43,-3.48,-0.44,-3.49,3.49,3.22,0.62,3.06,3.05,3.05
20.81,-0.33,-3.43,-0.34,-3.42,3.42,3.20,0.64,3.09,3.08,3.10
21.02,-0.23,-3.37,-0.24,-3.35,3.35,3.17,0.66,3.12,3.11,3.14
21.23,-0.15,-3.31,-0.15,-3.28,3.28,3.12,0.67,3.13,3.14,3.16
21.44,-0.06,-3.24,-0.05,-3.21,3.21,3.05,0.69,3.15,3.16,3.18
21.66,0.02,-3.18,0.04,-3.14,3.14,2.98,0.71,3.16,3.18,3.20
21.87,0.11,-3.10,0.14,-3.06,3.06,2.90,0.74,3.17,3.20,3.21
22.09,0.20,-3.03,0.23,-2.99,2.99,2.80,0.76,3.19,3.21,3.23
22.31,0.31,-2.93,0.32,-2.91,2.91,2.71,0.78,3.22,3.23,3.24
22.54,0.41,-2.83,0.41,-2.82,2.82,2.61,0.80,3.23,3.23,3.24
22.76,0.51,-2.73,0.50,-2.73,2.73,2.50,0.83,3.24,3.24,3.24
22.99,0.62,-2.61,0.60,-2.64,2.64,2.40,0.85,3.26,3.24,3.23
23.22,0.70,-2.53,0.69,-2.55,2.55,2.29,0.87,3.25,3.24,3.23
23.45,0.78,-2.45,0.77,-2.47,2.47,2.19,0.90,3.25,3.24,3.23
23.69,0.87,-2.37,0.86,-2.38,2.38,2.08,0.92,3.25,3.24,3.24
23.92,0.95,-2.29,0.95,-2.29,2.29,1.98,0.95,3.24,3.24,3.24
24.16,1.03,-2.21,1.03,-2.21,2.21,1.88,0.98,3.24,3.24,3.24
24.40,1.11,-2.14,1.11,-2.13,2.13,1.79,1.00,3.24,3.24,3.25
24.65,1.18,-2.06,1.19,-2.05,2.05,1.70,1.03,3.23,3.24,3.24
24.89,1.26,-1.98,1.26,-1.98,1.98,1.61,1.05,3.24,3.24,3.24
25.14,1.33,-1.91,1.33,-1.91,1.91,1.53,1.08,3.24,3.24,3.24
25.39,1.41,-1.84,1.40,-1.84,1.84,1.45,1.11,3.25,3.24,3.25
25.65,1.48,-1.77,1.47,-1.77,1.77,1.37,1.14,3.25,3.24,3.25
25.91,1.55,-1.69,1.54,-1.70,1.70,1.30,1.16,3.25,3.24,3.24
26.16,1.61,-1.63,1.61,-1.63,1.63,1.23,1.19,3.25,3.24,3.24
26.43,1.67,-1.57,1.67,-1.56,1.56,1.17,1.21,3.23,3.24,3.24
26.69,1.72,-1.52,1.74,-1.50,1.50,1.11,1.24,3.22,3.24,3.24
26.96,1.77,-1.47,1.81,-1.43,1.43,1.05,1.26,3.20,3.23,3.24
27.23,1.85,-1.39,1.88,-1.36,1.36,0.99,1.29,3.21,3.23,3.24
27.50,1.93,-1.31,1.94,-1.29,1.29,0.94,1.31,3.22,3.23,3.24
27.77,2.01,-1.22,2.01,-1.22,1.22,0.89,1.33,3.23,3.23,3.23
28.05,2.08,-1.15,2.07,-1.16,1.16,0.84,1.35,3.24,3.23,3.23
28.33,2.14,-1.08,2.13,-1.10,1.10,0.80,1.37,3.24,3.23,3.22
28.62,2.20,-1.02,2.18,-1.04,1.04,0.75,1.39,3.24,3.22,3.22
28.90,2.26,-0.97,2.24,-0.99,0.99,0.71,1.40,3.25,3.22,3.23
29.19,2.31,-0.91,2.29,-0.94,0.94,0.67,1.41,3.25,3.22,3.22
29.48,2.36,-0.87,2.33,-0.89,0.89,0.64,1.42,3.25,3.22,3.23
29.78,2.40,-0.82,2.38,-0.84,0.84,0.60,1.43,3.24,3.22,3.22
30.08,2.44,-0.79,2.42,-0.80,0.80,0.57,1.44,3.24,3.22,3.23
30.38,2.45,-0.77,2.45,-0.77,0.77,0.53,1.44,3.22,3.22,3.22
30.68,2.45,-0.77,2.48,-0.74,0.74,0.50,1.44,3.19,3.21,3.22
30.99,2.46,-0.76,2.51,-0.70,0.70,0.47,1.44,3.16,3.21,3.22
31.30,2.51,-0.70,2.54,-0.67,0.67,0.45,1.44,3.18,3.21,3.21
31.61,2.57,-0.64,2.57,-0.64,0.64,0.42,1.43,3.21,3.21,3.21
31.93,2.63,-0.58,2.61,-0.60,0.60,0.39,1.42,3.23,3.20,3.21
32.24,2.65,-0.55,2.64,-0.56,0.56,0.37,1.41,3.21,3.20,3.20
32.57,2.66,-0.54,2.68,-0.52,0.52,0.34,1.40,3.18,3.20,3.20
32.89,2.68,-0.52,2.71,-0.48,0.48,0.32,1.38,3.16,3.19,3.20
33.22,2.72,-0.47,2.75,-0.44,0.44,0.30,1.36,3.16,3.19,3.19
33.55,2.77,-0.42,2.78,-0.40,0.40,0.28,1.34,3.17,3.18,3.19
33.89,2.82,-0.36,2.81,-0.36,0.36,0.26,1.32,3.18,3.18,3.18
34.23,2.87,-0.31,2.84,-0.33,0.33,0.24,1.29,3.20,3.17,3.18
34.57,2.91,-0.26,2.87,-0.30,0.30,0.22,1.26,3.21,3.17,3.17
34.92,2.95,-0.22,2.89,-0.27,0.27,0.20,1.24,3.22,3.17,3.17
35.27,2.95,-0.21,2.91,-0.25,0.25,0.18,1.21,3.20,3.16,3.16
35.62,2.94,-0.22,2.93,-0.23,0.23,0.16,1.17,3.17,3.16,3.16
35.97,2.93,-0.23,2.95,-0.21,0.21,0.14,1.14,3.14,3.16,3.16
36.33,2.93,-0.23,2.97,-0.19,0.19,0.13,1.11,3.12,3.16,3.16
36.70,2.93,-0.22,2.98,-0.18,0.18,0.11,1.07,3.11,3.15,3.15
37.06,2.94,-0.21,2.99,-0.17,0.17,0.09,1.04,3.11,3.15,3.15
37.43,2.98,-0.18,2.99,-0.16,0.16,0.08,1.00,3.14,3.15,3.16
37.81,3.02,-0.14,3.00,-0.16,0.16,0.06,0.96,3.18,3.16,3.16
38.19,3.04,-0.11,3.00,-0.15,0.15,0.05,0.93,3.19,3.16,3.15
38.57,3.03,-0.13,3.01,-0.15,0.15,0.03,0.89,3.18,3.16,3.16
38.95,3.03,-0.14,3.02,-0.14,0.14,0.02,0.85,3.17,3.16,3.17
39.34,3.03,-0.13,3.02,-0.13,0.13,0.00,0.82,3.16,3.16,3.16
39.74,3.03,-0.13,3.03,-0.13,0.13,-0.01,0.78,3.16,3.16,3.16
40.14,3.03,-0.13,3.03,-0.12,0.12,-0.02,0.74,3.15,3.16,3.16
40.54,3.03,-0.13,3.04,-0.12,0.12,-0.04,0.70,3.15,3.15,3.16
40.94,3.03,-0.12,3.04,-0.11,0.11,-0.05,0.67,3.14,3.15,3.15
41.35,3.03,-0.12,3.04,-0.11,0.11,-0.06,0.63,3.14,3.15,3.15
41.76,3.03,-0.11,3.03,-0.10,0.10,-0.08,0.59,3.13,3.14,3.14
42.18,3.03,-0.11,3.03,-0.10,0.10,-0.09,0.56,3.13,3.13,3.14
42.60,3.03,-0.10,3.03,-0.09,0.09,-0.10,0.52,3.12,3.12,3.13
43.03,3.03,-0.09,3.03,-0.08,0.08,-0.12,0.49,3.11,3.11,3.12
43.46,3.03,-0.08,3.03,-0.07,0.07,-0.13,0.45,3.10,3.10,3.11
43.90,3.03,-0.06,3.03,-0.05,0.05,-0.14,0.42,3.08,3.08,3.09
44.33,3.03,-0.04,3.03,-0.04,0.04,-0.15,0.38,3.07,3.07,3.07
44.78,3.03,-0.02,3.03,-0.03,0.03,-0.17,0.35,3.06,3.06,3.05
45.23,3.03,-0.01,3.03,-0.02,0.02,-0.18,0.31,3.05,3.05,3.04
45.68,3.03,0.00,3.03,-0.00,0.00,-0.19,0.28,3.03,3.03,3.03
46.13,3.03,0.02,3.03,0.02,-0.02,-0.20,0.25,3.01,3.02,3.01
46.60,3.03,0.02,3.04,0.04,-0.04,-0.22,0.22,2.99,3.00,3.01
47.06,3.03,0.04,3.04,0.05,-0.05,-0.23,0.18,2.98,2.99,2.99
47.53,3.03,0.05,3.04,0.06,-0.06,-0.24,0.15,2.97,2.97,2.98
48.01,3.03,0.05,3.03,0.07,-0.07,-0.25,0.12,2.96,2.96,2.98
48.49,3.03,0.07,3.02,0.07,-0.07,-0.27,0.09,2.96,2.95,2.96
48.97,3.03,0.09,3.02,0.08,-0.08,-0.28,0.06,2.95,2.93,2.94
49.46,3.03,0.11,3.01,0.09,-0.09,-0.29,0.03,2.94,2.92,2.92
49.96,3.03,0.13,3.01,0.10,-0.10,-0.30,-0.00,2.93,2.91,2.90
50.46,3.03,0.14,3.00,0.11,-0.11,-0.32,-0.04,2.92,2.89,2.89
50.96,3.03,0.15,2.99,0.11,-0.11,-0.33,-0.07,2.92,2.88,2.88
51.47,2.95,0.09,2.98,0.11,-0.11,-0.34,-0.09,2.84,2.87,2.86
51.99,2.86,0.01,2.96,0.11,-0.11,-0.36,-0.12,2.75,2.85,2.85
52.51,2.90,0.06,2.95,0.11,-0.11,-0.37,-0.15,2.79,2.84,2.84
53.03,2.93,0.09,2.93,0.10,-0.10,-0.38,-0.18,2.83,2.83,2.84
53.56,2.98,0.16,2.92,0.10,-0.10,-0.40,-0.21,2.88,2.82,2.82
54.10,2.99,0.18,2.90,0.10,-0.10,-0.41,-0.24,2.89,2.81,2.81
54.64,2.90,0.11,2.90,0.10,-0.10,-0.42,-0.27,2.80,2.80,2.79
55.18,2.84,0.05,2.89,0.10,-0.10,-0.44,-0.29,2.74,2.78,2.79
55.74,2.84,0.07,2.88,0.10,-0.10,-0.45,-0.32,2.74,2.77,2.77
56.29,2.84,0.08,2.86,0.10,-0.10,-0.47,-0.35,2.74,2.76,2.76
56.86,2.84,0.09,2.85,0.11,-0.11,-0.48,-0.38,2.73,2.75,2.75
57.42,2.84,0.12,2.84,0.11,-0.11,-0.49,-0.40,2.73,2.73,2.72
58.00,2.84,0.13,2.83,0.12,-0.12,-0.51,-0.43,2.72,2.71,2.71
58.58,2.84,0.14,2.81,0.13,-0.13,-0.52,-0.45,2.71,2.69,2.70
59.16,2.84,0.16,2.80,0.13,-0.13,-0.54,-0.48,2.71,2.66,2.68
59.76,2.84,0.18,2.78,0.15,-0.15,-0.55,-0.50,2.69,2.63,2.66
60.35,2.79,0.17,2.77,0.17,-0.17,-0.57,-0.53,2.62,2.60,2.62
60.96,2.71,0.13,2.77,0.20,-0.20,-0.59,-0.55,2.51,2.57,2.58
61.57,2.71,0.17,2.76,0.23,-0.23,-0.60,-0.57,2.48,2.53,2.54
62.18,2.72,0.22,2.75,0.26,-0.26,-0.62,-0.59,2.46,2.50,2.50
62.80,2.74,0.29,2.75,0.29,-0.29,-0.64,-0.62,2.45,2.46,2.45
63.43,2.74,0.33,2.74,0.33,-0.33,-0.65,-0.64,2.41,2.41,2.41
64.07,2.74,0.38,2.73,0.37,-0.37,-0.67,-0.66,2.37,2.37,2.36
64.71,2.74,0.42,2.73,0.41,-0.41,-0.69,-0.68,2.33,2.32,2.32
65.35,2.74,0.46,2.73,0.45,-0.45,-0.70,-0.70,2.29,2.28,2.28
66.01,2.74,0.51,2.73,0.50,-0.50,-0.72,-0.72,2.24,2.23,2.23
66.67,2.74,0.56,2.73,0.55,-0.55,-0.74,-0.74,2.19,2.18,2.18
67.33,2.74,0.61,2.74,0.60,-0.60,-0.76,-0.76,2.14,2.13,2.13
68.01,2.74,0.65,2.74,0.66,-0.66,-0.78,-0.78,2.08,2.08,2.09
68.69,2.74,0.70,2.74,0.70,-0.70,-0.80,-0.80,2.04,2.03,2.04
69.37,2.74,0.75,2.74,0.76,-0.76,-0.82,-0.83,1.98,1.98,1.99
70.07,2.74,0.80,2.74,0.81,-0.81,-0.84,-0.85,1.93,1.93,1.94
70.77,2.74,0.85,2.75,0.87,-0.87,-0.86,-0.87,1.87,1.88,1.89
71.48,2.74,0.90,2.75,0.93,-0.93,-0.88,-0.89,1.81,1.82,1.84
72.19,2.74,0.97,2.75,0.99,-0.99,-0.90,-0.91,1.75,1.77,1.77
72.91,2.74,1.03,2.76,1.05,-1.05,-0.92,-0.93,1.69,1.71,1.71
73.64,2.74,1.08,2.76,1.10,-1.10,-0.94,-0.95,1.64,1.66,1.66
74.38,2.74,1.14,2.75,1.15,-1.15,-0.96,-0.98,1.59,1.60,1.60
75.12,2.74,1.20,2.73,1.19,-1.19,-0.98,-1.00,1.55,1.54,1.54
75.87,2.74,1.26,2.72,1.23,-1.23,-1.01,-1.02,1.51,1.49,1.48
76.63,2.79,1.36,2.70,1.27,-1.27,-1.03,-1.05,1.52,1.43,1.43
77.40,2.76,1.38,2.68,1.31,-1.31,-1.05,-1.07,1.45,1.38,1.38
78.17,2.67,1.35,2.66,1.34,-1.34,-1.08,-1.10,1.33,1.33,1.32
78.95,2.64,1.36,2.64,1.37,-1.37,-1.10,-1.12,1.27,1.27,1.28
79.74,2.64,1.41,2.63,1.40,-1.40,-1.13,-1.15,1.24,1.23,1.23
80.54,2.57,1.39,2.62,1.44,-1.44,-1.15,-1.18,1.13,1.18,1.18
81.35,2.50,1.37,2.60,1.47,-1.47,-1.18,-1.21,1.03,1.13,1.13
82.16,2.50,1.42,2.58,1.50,-1.50,-1.20,-1.24,1.00,1.08,1.08
82.98,2.55,1.51,2.57,1.53,-1.53,-1.23,-1.27,1.02,1.03,1.04
83.81,2.55,1.56,2.56,1.57,-1.57,-1.25,-1.31,0.98,0.99,0.99
84.65,2.55,1.61,2.55,1.61,-1.61,-1.28,-1.34,0.94,0.94,0.94
85.50,2.55,1.65,2.54,1.65,-1.65,-1.31,-1.37,0.90,0.89,0.90
86.35,2.56,1.71,2.53,1.69,-1.69,-1.34,-1.41,0.87,0.84,0.85
87.22,2.59,1.79,2.52,1.73,-1.73,-1.37,-1.45,0.86,0.79,0.80
88.09,2.62,1.87,2.51,1.77,-1.77,-1.40,-1.49,0.85,0.74,0.75
88.97,2.48,1.79,2.50,1.81,-1.81,-1.42,-1.53,0.67,0.69,0.69
89.86,2.46,1.82,2.49,1.85,-1.85,-1.45,-1.57,0.61,0.64,0.64
90.76,2.46,1.87,2.48,1.90,-1.90,-1.48,-1.61,0.56,0.59,0.59
91.66,2.46,1.92,2.47,1.93,-1.93,-1.52,-1.65,0.53,0.54,0.54
92.58,2.46,1.98,2.44,1.96,-1.96,-1.55,-1.70,0.50,0.49,0.48
93.51,2.42,1.99,2.42,1.99,-1.99,-1.58,-1.74,0.43,0.44,0.43
94.44,2.34,1.95,2.40,2.02,-2.02,-1.61,-1.79,0.32,0.39,0.39
95.39,2.30,1.96,2.38,2.05,-2.05,-1.64,-1.84,0.25,0.34,0.34
96.34,2.34,2.05,2.36,2.07,-2.07,-1.67,-1.88,0.27,0.29,0.29
97.30,2.36,2.12,2.33,2.09,-2.09,-1.71,-1.93,0.27,0.24,0.24
98.28,2.38,2.19,2.31,2.12,-2.12,-1.74,-1.98,0.26,0.19,0.19
99.26,2.38,2.23,2.29,2.15,-2.15,-1.77,-2.03,0.23,0.14,0.15
100.25,2.27,2.17,2.26,2.17,-2.17,-1.81,-2.09,0.10,0.10,0.10
101.25,2.19,2.14,2.23,2.18,-2.18,-1.84,-2.14,0.01,0.05,0.05
102.27,2.18,2.18,2.19,2.19,-2.19,-1.88,-2.19,-0.01,-0.00,-0.00
103.29,2.17,2.22,2.16,2.21,-2.21,-1.91,-2.24,-0.04,-0.05,-0.05
104.32,2.15,2.24,2.12,2.22,-2.22,-1.95,-2.29,-0.07,-0.10,-0.09
105.37,2.10,2.24,2.07,2.22,-2.22,-1.98,-2.34,-0.12,-0.15,-0.14
106.42,1.99,2.18,2.03,2.23,-2.23,-2.02,-2.40,-0.24,-0.20,-0.19
107.48,1.97,2.22,1.98,2.23,-2.23,-2.06,-2.45,-0.26,-0.25,-0.25
108.56,1.97,2.27,1.93,2.24,-2.24,-2.09,-2.49,-0.27,-0.31,-0.30
109.64,1.87,2.22,1.89,2.25,-2.25,-2.13,-2.54,-0.38,-0.36,-0.35
110.74,1.82,2.23,1.86,2.27,-2.27,-2.16,-2.59,-0.45,-0.41,-0.41
111.85,1.80,2.25,1.83,2.29,-2.29,-2.20,-2.63,-0.49,-0.46,-0.45
112.97,1.80,2.31,1.80,2.31,-2.31,-2.24,-2.68,-0.51,-0.51,-0.51
114.10,1.76,2.32,1.76,2.32,-2.32,-2.27,-2.72,-0.56,-0.56,-0.56
115.24,1.64,2.25,1.72,2.33,-2.33,-2.31,-2.76,-0.69,-0.61,-0.61
116.39,1.71,2.37,1.69,2.34,-2.34,-2.34,-2.79,-0.63,-0.65,-0.66
117.55,1.76,2.46,1.66,2.36,-2.36,-2.38,-2.82,-0.60,-0.69,-0.70
118.73,1.71,2.45,1.65,2.38,-2.38,-2.42,-2.85,-0.67,-0.73,-0.74
119.92,1.62,2.39,1.64,2.41,-2.41,-2.45,-2.88,-0.79,-0.77,-0.77
121.12,1.62,2.43,1.63,2.44,-2.44,-2.49,-2.90,-0.82,-0.81,-0.81
122.33,1.61,2.45,1.62,2.46,-2.46,-2.52,-2.91,-0.85,-0.84,-0.84
123.55,1.54,2.41,1.60,2.47,-2.47,-2.55,-2.93,-0.93,-0.87,-0.87
124.79,1.47,2.37,1.58,2.48,-2.48,-2.59,-2.94,-1.01,-0.91,-0.90
126.03,1.53,2.46,1.55,2.49,-2.49,-2.62,-2.94,-0.96,-0.94,-0.93
127.29,1.55,2.50,1.53,2.50,-2.50,-2.65,-2.94,-0.95,-0.97,-0.95
128.57,1.59,2.58,1.52,2.52,-2.52,-2.68,-2.94,-0.93,-1.00,-0.99
129.85,1.64,2.66,1.51,2.53,-2.53,-2.71,-2.94,-0.89,-1.02,-1.02
131.15,1.59,2.64,1.50,2.55,-2.55,-2.74,-2.93,-0.96,-1.05,-1.05
132.46,1.48,2.56,1.48,2.56,-2.56,-2.77,-2.91,-1.08,-1.08,-1.08
133.79,1.35,2.46,1.47,2.57,-2.57,-2.80,-2.90,-1.22,-1.11,-1.11
135.12,1.33,2.47,1.44,2.58,-2.58,-2.83,-2.88,-1.25,-1.14,-1.14
136.48,1.38,2.54,1.42,2.58,-2.58,-2.85,-2.85,-1.20,-1.16,-1.16
137.84,1.40,2.60,1.39,2.59,-2.59,-2.87,-2.83,-1.18,-1.19,-1.20
139.22,1.40,2.63,1.38,2.60,-2.60,-2.90,-2.80,-1.20,-1.22,-1.23
140.61,1.44,2.70,1.36,2.61,-2.61,-2.92,-2.77,-1.17,-1.25,-1.26
142.02,1.48,2.76,1.33,2.62,-2.62,-2.94,-2.74,-1.14,-1.28,-1.28
143.44,1.29,2.60,1.31,2.63,-2.63,-2.96,-2.71,-1.34,-1.32,-1.31
144.87,1.15,2.50,1.29,2.64,-2.64,-2.97,-2.67,-1.49,-1.36,-1.35
146.32,1.18,2.57,1.27,2.67,-2.67,-2.99,-2.64,-1.49,-1.40,-1.39
147.78,1.21,2.63,1.25,2.70,-2.70,-3.00,-2.60,-1.49,-1.45,-1.42
149.26,1.21,2.68,1.22,2.72,-2.72,-3.01,-2.57,-1.51,-1.50,-1.47
150.75,1.21,2.74,1.18,2.74,-2.74,-3.02,-2.53,-1.53,-1.56,-1.53
152.26,1.26,2.86,1.13,2.76,-2.76,-3.03,-2.50,-1.50,-1.62,-1.60
153.78,1.27,2.94,1.09,2.78,-2.78,-3.03,-2.46,-1.51,-1.69,-1.67
155.32,1.07,2.81,1.06,2.82,-2.82,-3.04,-2.43,-1.75,-1.76,-1.74
156.88,0.94,2.76,1.03,2.86,-2.86,-3.04,-2.40,-1.91,-1.83,-1.82
158.44,0.95,2.85,1.00,2.89,-2.89,-3.04,-2.36,-1.94,-1.90,-1.90
160.03,0.93,2.91,0.97,2.93,-2.93,-3.04,-2.33,-2.00,-1.97,-1.98
161.63,0.86,2.91,0.93,2.96,-2.96,-3.03,-2.30,-2.10,-2.03,-2.05
163.24,0.84,2.95,0.88,2.98,-2.98,-3.03,-2.27,-2.14,-2.09,-2.11
164.88,0.82,2.98,0.84,2.98,-2.98,-3.02,-2.24,-2.16,-2.15,-2.16
166.53,0.82,3.03,0.80,3.00,-3.00,-3.01,-2.22,-2.18,-2.20,-2.21
168.19,0.81,3.06,0.76,3.00,-3.00,-3.00,-2.19,-2.19,-2.24,-2.25
169.87,0.84,3.13,0.72,2.99,-2.99,-2.99,-2.17,-2.15,-2.27,-2.29
171.57,0.75,3.06,0.69,2.99,-2.99,-2.97,-2.15,-2.24,-2.29,-2.31
173.29,0.64,2.96,0.68,2.99,-2.99,-2.95,-2.12,-2.35,-2.31,-2.32
175.02,0.58,2.91,0.66,2.99,-2.99,-2.93,-2.11,-2.41,-2.33,-2.33
176.77,0.59,2.93,0.65,2.98,-2.98,-2.91,-2.09,-2.39,-2.34,-2.34
178.54,0.59,2.94,0.63,2.97,-2.97,-2.89,-2.07,-2.38,-2.34,-2.35
180.32,0.59,2.93,0.61,2.96,-2.96,-2.87,-2.06,-2.37,-2.35,-2.34
182.13,0.60,2.93,0.58,2.94,-2.94,-2.84,-2.05,-2.34,-2.36,-2.33
183.95,0.61,2.95,0.57,2.93,-2.93,-2.81,-2.04,-2.32,-2.36,-2.34
185.79,0.45,2.79,0.55,2.92,-2.92,-2.79,-2.03,-2.47,-2.37,-2.34
187.65,0.47,2.83,0.53,2.91,-2.91,-2.76,-2.02,-2.44,-2.38,-2.36
189.52,0.61,2.98,0.51,2.90,-2.90,-2.72,-2.01,-2.29,-2.39,-2.37
191.42,0.61,3.00,0.49,2.89,-2.89,-2.69,-2.01,-2.28,-2.40,-2.39
193.33,0.53,2.94,0.48,2.89,-2.89,-2.66,-2.01,-2.36,-2.41,-2.41
195.27,0.40,2.83,0.46,2.89,-2.89,-2.62,-2.01,-2.49,-2.43,-2.43
197.22,0.34,2.79,0.42,2.87,-2.87,-2.59,-2.00,-2.53,-2.45,-2.45
199.19,0.36,2.83,0.36,2.83,-2.83,-2.55,-2.01,-2.47,-2.47,-2.47
201.18,0.35,2.84,0.31,2.79,-2.79,-2.51,-2.01,-2.44,-2.49,-2.49
203.19,0.29,2.80,0.25,2.76,-2.76,-2.48,-2.01,-2.47,-2.51,-2.51
205.23,0.20,2.73,0.19,2.72,-2.72,-2.44,-2.01,-2.52,-2.53,-2.53
207.28,0.08,2.62,0.12,2.67,-2.67,-2.40,-2.02,-2.59,-2.55,-2.54
209.35,0.04,2.60,0.03,2.60,-2.60,-2.36,-2.02,-2.56,-2.57,-2.56
211.44,0.05,2.64,-0.07,2.52,-2.52,-2.32,-2.02,-2.47,-2.59,-2.59
213.56,-0.05,2.55,-0.16,2.44,-2.44,-2.27,-2.03,-2.49,-2.60,-2.60
215.69,-0.27,2.34,-0.25,2.37,-2.37,-2.23,-2.03,-2.64,-2.62,-2.61
217.85,-0.48,2.14,-0.34,2.29,-2.29,-2.19,-2.04,-2.77,-2.63,-2.62
220.03,-0.46,2.17,-0.42,2.22,-2.22,-2.15,-2.04,-2.68,-2.64,-2.63
222.23,-0.43,2.23,-0.50,2.14,-2.14,-2.10,-2.04,-2.57,-2.64,-2.66
224.45,-0.49,2.16,-0.58,2.07,-2.07,-2.06,-2.04,-2.56,-2.65,-2.65
226.70,-0.71,1.94,-0.65,2.00,-2.00,-2.02,-2.05,-2.71,-2.64,-2.65
228.96,-0.87,1.77,-0.70,1.94,-1.94,-1.98,-2.04,-2.81,-2.64,-2.64
231.25,-0.85,1.78,-0.74,1.89,-1.89,-1.93,-2.04,-2.74,-2.63,-2.63
233.57,-0.76,1.86,-0.78,1.84,-1.84,-1.89,-2.04,-2.60,-2.62,-2.62
235.90,-0.80,1.81,-0.81,1.80,-1.80,-1.85,-2.03,-2.60,-2.61,-2.61
238.26,-0.86,1.74,-0.83,1.76,-1.76,-1.80,-2.03,-2.62,-2.59,-2.60
240.64,-0.77,1.80,-0.83,1.74,-1.74,-1.76,-2.02,-2.51,-2.57,-2.57
243.05,-0.77,1.77,-0.84,1.71,-1.71,-1.72,-2.00,-2.48,-2.55,-2.54
245.48,-0.88,1.64,-0.86,1.67,-1.67,-1.67,-1.99,-2.55,-2.53,-2.52
247.93,-0.90,1.59,-0.87,1.63,-1.63,-1.63,-1.97,-2.53,-2.50,-2.49
250.41,-0.83,1.64,-0.86,1.61,-1.61,-1.59,-1.95,-2.44,-2.48,-2.47
252.92,-0.75,1.69,-0.85,1.60,-1.60,-1.54,-1.93,-2.35,-2.45,-2.44
255.45,-0.86,1.56,-0.86,1.57,-1.57,-1.50,-1.90,-2.43,-2.43,-2.42
258.00,-0.92,1.48,-0.87,1.53,-1.53,-1.46,-1.88,-2.45,-2.41,-2.40
260.58,-0.93,1.45,-0.90,1.49,-1.49,-1.42,-1.85,-2.42,-2.38,-2.38
263.19,-0.93,1.42,-0.90,1.45,-1.45,-1.38,-1.81,-2.38,-2.36,-2.35
265.82,-0.93,1.40,-0.92,1.41,-1.41,-1.33,-1.78,-2.34,-2.33,-2.33
268.48,-0.94,1.37,-0.95,1.35,-1.35,-1.29,-1.74,-2.29,-2.31,-2.31
271.16,-0.94,1.34,-0.98,1.30,-1.30,-1.25,-1.70,-2.24,-2.28,-2.28
273.87,-0.94,1.32,-1.00,1.26,-1.26,-1.21,-1.66,-2.20,-2.26,-2.26
276.61,-0.98,1.25,-1.02,1.21,-1.21,-1.17,-1.62,-2.19,-2.23,-2.23
279.38,-1.03,1.17,-1.05,1.16,-1.16,-1.13,-1.57,-2.19,-2.20,-2.20
282.17,-1.11,1.07,-1.06,1.11,-1.11,-1.09,-1.52,-2.22,-2.18,-2.18
284.99,-1.13,1.01,-1.08,1.07,-1.07,-1.05,-1.48,-2.20,-2.15,-2.14
287.84,-1.12,1.00,-1.10,1.01,-1.01,-1.01,-1.43,-2.13,-2.12,-2.12
290.72,-1.11,0.98,-1.13,0.96,-0.96,-0.97,-1.38,-2.07,-2.09,-2.09
293.63,-1.28,0.78,-1.16,0.90,-0.90,-0.94,-1.32,-2.18,-2.06,-2.06
296.57,-1.27,0.76,-1.18,0.85,-0.85,-0.90,-1.27,-2.12,-2.03,-2.03
299.53,-1.10,0.90,-1.20,0.80,-0.80,-0.86,-1.22,-1.90,-2.00,-2.00
302.53,-1.09,0.89,-1.22,0.75,-0.75,-0.82,-1.16,-1.84,-1.98,-1.98
305.55,-1.22,0.72,-1.24,0.71,-0.71,-0.78,-1.11,-1.93,-1.95,-1.94
308.61,-1.23,0.69,-1.25,0.68,-0.68,-0.75,-1.06,-1.91,-1.93,-1.92
311.69,-1.31,0.58,-1.27,0.63,-0.63,-0.71,-1.00,-1.94,-1.90,-1.89
314.81,-1.40,0.47,-1.31,0.57,-0.57,-0.67,-0.95,-1.97,-1.88,-1.87
317.96,-1.36,0.49,-1.33,0.53,-0.53,-0.64,-0.89,-1.89,-1.86,-1.85
321.14,-1.32,0.52,-1.35,0.49,-0.49,-0.60,-0.83,-1.81,-1.84,-1.84
324.35,-1.32,0.50,-1.38,0.45,-0.45,-0.57,-0.78,-1.77,-1.82,-1.82
327.59,-1.40,0.41,-1.41,0.40,-0.40,-0.53,-0.72,-1.80,-1.81,-1.81
330.87,-1.42,0.38,-1.46,0.34,-0.34,-0.50,-0.67,-1.76,-1.80,-1.80
334.18,-1.48,0.30,-1.51,0.27,-0.27,-0.46,-0.61,-1.75,-1.78,-1.78
337.52,-1.52,0.25,-1.55,0.23,-0.23,-0.43,-0.56,-1.75,-1.77,-1.77
340.90,-1.66,0.10,-1.58,0.19,-0.19,-0.39,-0.50,-1.85,-1.77,-1.76
344.30,-1.73,0.02,-1.61,0.15,-0.15,-0.36,-0.45,-1.88,-1.76,-1.75
347.75,-1.59,0.16,-1.64,0.12,-0.12,-0.33,-0.40,-1.71,-1.75,-1.75
351.23,-1.49,0.25,-1.67,0.08,-0.08,-0.29,-0.34,-1.57,-1.75,-1.74
354.74,-1.72,0.03,-1.71,0.04,-0.04,-0.26,-0.29,-1.76,-1.75,-1.75
358.28,-1.91,-0.17,-1.74,0.01,-0.01,-0.23,-0.23,-1.92,-1.74,-1.74
361.87,-1.86,-0.12,-1.77,-0.03,0.03,-0.20,-0.18,-1.83,-1.74,-1.74
365.49,-1.80,-0.07,-1.80,-0.06,0.06,-0.16,-0.13,-1.74,-1.74,-1.73
369.14,-1.78,-0.04,-1.83,-0.09,0.09,-0.13,-0.07,-1.69,-1.74,-1.74
372.83,-1.78,-0.04,-1.84,-0.10,0.10,-0.10,-0.02,-1.68,-1.74,-1.74
376.56,-1.83,-0.08,-1.86,-0.11,0.11,-0.07,0.03,-1.72,-1.74,-1.75
380.33,-1.87,-0.13,-1.88,-0.13,0.13,-0.04,0.09,-1.74,-1.75,-1.74
384.13,-1.93,-0.19,-1.92,-0.17,0.17,-0.01,0.14,-1.76,-1.75,-1.74
387.97,-1.94,-0.19,-1.97,-0.21,0.21,0.03,0.19,-1.73,-1.76,-1.75
391.85,-1.94,-0.18,-1.99,-0.23,0.23,0.06,0.24,-1.71,-1.76,-1.76
395.77,-2.03,-0.28,-1.99,-0.23,0.23,0.09,0.29,-1.80,-1.77,-1.75
399.73,-2.15,-0.39,-2.02,-0.25,0.25,0.12,0.34,-1.90,-1.77,-1.76
403.72,-2.07,-0.31,-2.06,-0.29,0.29,0.15,0.39,-1.78,-1.78,-1.76
407.76,-1.92,-0.14,-2.11,-0.33,0.33,0.18,0.44,-1.59,-1.78,-1.78
411.84,-2.02,-0.24,-2.15,-0.36,0.36,0.21,0.49,-1.66,-1.78,-1.78
415.96,-2.31,-0.53,-2.18,-0.39,0.39,0.24,0.54,-1.92,-1.78,-1.78
420.12,-2.35,-0.57,-2.20,-0.42,0.42,0.26,0.58,-1.93,-1.78,-1.78
424.32,-2.25,-0.47,-2.22,-0.45,0.45,0.29,0.63,-1.80,-1.78,-1.78
428.56,-2.12,-0.35,-2.25,-0.48,0.48,0.32,0.67,-1.64,-1.77,-1.77
432.85,-2.08,-0.32,-2.27,-0.52,0.52,0.35,0.72,-1.56,-1.75,-1.76
437.18,-2.33,-0.58,-2.29,-0.56,0.56,0.38,0.76,-1.77,-1.73,-1.75
441.55,-2.45,-0.74,-2.28,-0.57,0.57,0.41,0.80,-1.88,-1.70,-1.71
445.96,-2.34,-0.66,-2.27,-0.59,0.59,0.43,0.84,-1.75,-1.67,-1.68
450.42,-2.24,-0.59,-2.25,-0.61,0.61,0.46,0.87,-1.63,-1.64,-1.65
454.93,-2.20,-0.60,-2.23,-0.63,0.63,0.49,0.91,-1.57,-1.60,-1.60
459.48,-2.20,-0.64,-2.18,-0.63,0.63,0.51,0.94,-1.57,-1.55,-1.56
464.07,-2.19,-0.68,-2.14,-0.63,0.63,0.54,0.97,-1.56,-1.51,-1.51
468.71,-2.18,-0.73,-2.11,-0.65,0.65,0.56,0.99,-1.53,-1.46,-1.45
473.40,-2.13,-0.72,-2.07,-0.66,0.66,0.59,1.02,-1.47,-1.41,-1.41
478.13,-1.99,-0.64,-2.01,-0.65,0.65,0.61,1.04,-1.34,-1.36,-1.35
482.91,-1.80,-0.49,-1.94,-0.63,0.63,0.64,1.06,-1.17,-1.32,-1.31
487.74,-1.75,-0.48,-1.86,-0.59,0.59,0.66,1.07,-1.16,-1.27,-1.27
492.62,-1.82,-0.60,-1.81,-0.58,0.58,0.68,1.08,-1.24,-1.24,-1.22
497.55,-1.83,-0.63,-1.78,-0.57,0.57,0.71,1.09,-1.26,-1.21,-1.20
