frequency,raw,error,smoothed,error_smoothed,equalization,parametric_eq,fixed_band_eq,equalized_raw,equalized_smoothed,target
20.00,0.29,-5.16,0.36,-5.10,5.10,4.67,1.76,5.38,5.45,5.45
20.20,0.37,-5.07,0.42,-5.02,5.02,4.65,1.81,5.39,5.44,5.44
20.40,0.45,-4.98,0.48,-4.96,4.96,4.64,1.86,5.40,5.43,5.43
20.61,0.52,-4.90,0.53,-4.89,4.89,4.62,1.92,5.41,5.42,5.43
20.81,0.62,-4.79,0.59,-4.83,4.83,4.61,1.98,5.44,5.41,5.41
21.02,0.70,-4.71,0.64,-4.77,4.77,4.59,2.03,5.46,5.41,5.41
21.23,0.75,-4.65,0.69,-4.71,4.71,4.58,2.09,5.46,5.40,5.40
21.44,0.81,-4.60,0.73,-4.66,4.66,4.56,2.16,5.46,5.39,5.41
21.66,0.86,-4.53,0.78,-4.61,4.61,4.55,2.22,5.47,5.39,5.40
21.87,0.93,-4.46,0.82,-4.56,4.56,4.53,2.28,5.48,5.38,5.39
22.09,0.95,-4.43,0.86,-4.51,4.51,4.51,2.35,5.46,5.37,5.38
22.31,0.91,-4.46,0.90,-4.47,4.47,4.49,2.42,5.39,5.37,5.38
22.54,0.89,-4.48,0.93,-4.44,4.44,4.48,2.49,5.33,5.36,5.37
22.76,0.86,-4.50,0.95,-4.41,4.41,4.46,2.56,5.27,5.36,5.36
22.99,0.83,-4.52,0.97,-4.38,4.38,4.44,2.64,5.21,5.36,5.35
23.22,0.90,-4.44,1.00,-4.36,4.36,4.42,2.72,5.25,5.35,5.34
23.45,0.98,-4.37,1.02,-4.33,4.33,4.40,2.79,5.31,5.35,5.35
23.69,1.05,-4.28,1.04,-4.31,4.31,4.38,2.87,5.36,5.35,5.34
23.92,1.14,-4.20,1.06,-4.29,4.29,4.36,2.95,5.42,5.35,5.34
24.16,1.16,-4.19,1.08,-4.27,4.27,4.34,3.04,5.42,5.35,5.35
24.40,1.17,-4.19,1.10,-4.25,4.25,4.32,3.12,5.41,5.35,5.36
24.65,1.18,-4.18,1.13,-4.22,4.22,4.30,3.20,5.39,5.35,5.36
24.89,1.19,-4.17,1.16,-4.19,4.19,4.27,3.29,5.37,5.35,5.36
25.14,1.19,-4.16,1.19,-4.16,4.16,4.25,3.38,5.35,5.35,5.35
25.39,1.20,-4.15,1.22,-4.13,4.13,4.23,3.46,5.33,5.36,5.35
25.65,1.21,-4.14,1.25,-4.11,4.11,4.21,3.55,5.32,5.36,5.35
25.91,1.22,-4.14,1.27,-4.09,4.09,4.18,3.64,5.31,5.36,5.36
26.16,1.25,-4.12,1.29,-4.07,4.07,4.16,3.72,5.32,5.36,5.37
26.43,1.28,-4.08,1.31,-4.05,4.05,4.13,3.81,5.33,5.36,5.37
26.69,1.34,-4.03,1.34,-4.02,4.02,4.11,3.89,5.36,5.36,5.37
26.96,1.37,-3.98,1.37,-3.99,3.99,4.08,3.97,5.36,5.36,5.36
27.23,1.41,-3.94,1.40,-3.96,3.96,4.06,4.06,5.37,5.36,5.36
27.50,1.46,-3.90,1.43,-3.93,3.93,4.03,4.13,5.38,5.36,5.36
27.77,1.50,-3.87,1.46,-3.90,3.90,4.00,4.21,5.40,5.36,5.37
28.05,1.53,-3.84,1.49,-3.87,3.87,3.98,4.28,5.40,5.36,5.37
28.33,1.55,-3.80,1.52,-3.84,3.84,3.95,4.35,5.39,5.36,5.35
28.62,1.57,-3.78,1.55,-3.81,3.81,3.92,4.41,5.37,5.36,5.35
28.90,1.59,-3.77,1.58,-3.78,3.78,3.89,4.47,5.36,5.36,5.36
29.19,1.60,-3.76,1.61,-3.74,3.74,3.86,4.52,5.34,5.35,5.36
29.48,1.60,-3.75,1.64,-3.71,3.71,3.84,4.56,5.31,5.35,5.35
29.78,1.61,-3.74,1.66,-3.69,3.69,3.81,4.60,5.30,5.35,5.35
30.08,1.62,-3.74,1.67,-3.67,3.67,3.78,4.63,5.29,5.34,5.36
30.38,1.67,-3.67,1.68,-3.66,3.66,3.74,4.66,5.33,5.34,5.35
30.68,1.74,-3.59,1.69,-3.64,3.64,3.71,4.67,5.37,5.33,5.33
30.99,1.79,-3.53,1.71,-3.61,3.61,3.68,4.68,5.41,5.32,5.33
31.30,1.80,-3.52,1.74,-3.58,3.58,3.65,4.68,5.38,5.32,5.32
31.61,1.80,-3.51,1.76,-3.55,3.55,3.62,4.67,5.34,5.31,5.31
31.93,1.80,-3.50,1.79,-3.51,3.51,3.59,4.66,5.31,5.30,5.30
32.24,1.79,-3.51,1.82,-3.48,3.48,3.55,4.63,5.26,5.30,5.30
32.57,1.77,-3.51,1.85,-3.44,3.44,3.52,4.60,5.21,5.29,5.28
32.89,1.75,-3.53,1.87,-3.42,3.42,3.49,4.57,5.16,5.29,5.28
33.22,1.81,-3.47,1.88,-3.39,3.39,3.45,4.52,5.20,5.28,5.28
33.55,1.92,-3.35,1.90,-3.37,3.37,3.42,4.47,5.29,5.27,5.27
33.89,2.03,-3.25,1.92,-3.35,3.35,3.38,4.41,5.38,5.27,5.28
34.23,2.05,-3.21,1.93,-3.33,3.33,3.35,4.35,5.38,5.27,5.26
34.57,2.03,-3.23,1.95,-3.31,3.31,3.31,4.28,5.34,5.26,5.26
34.92,2.00,-3.25,1.97,-3.29,3.29,3.27,4.21,5.28,5.25,5.25
35.27,1.99,-3.27,1.99,-3.26,3.26,3.24,4.13,5.24,5.25,5.26
35.62,1.97,-3.27,2.01,-3.23,3.23,3.20,4.05,5.19,5.24,5.24
35.97,1.95,-3.29,2.04,-3.19,3.19,3.16,3.97,5.14,5.23,5.24
36.33,2.00,-3.22,2.06,-3.16,3.16,3.12,3.89,5.15,5.22,5.22
36.70,2.05,-3.15,2.07,-3.13,3.13,3.08,3.80,5.18,5.20,5.21
37.06,2.10,-3.09,2.08,-3.10,3.10,3.04,3.71,5.20,5.18,5.19
37.43,2.10,-3.07,2.09,-3.08,3.08,3.00,3.62,5.17,5.16,5.17
37.81,2.10,-3.05,2.10,-3.04,3.04,2.96,3.53,5.14,5.14,5.15
38.19,2.13,-2.99,2.12,-2.99,2.99,2.92,3.44,5.12,5.12,5.12
38.57,2.19,-2.91,2.15,-2.94,2.94,2.88,3.35,5.13,5.09,5.10
38.95,2.24,-2.82,2.18,-2.89,2.89,2.84,3.26,5.14,5.07,5.07
39.34,2.21,-2.81,2.20,-2.84,2.84,2.80,3.17,5.06,5.04,5.03
39.74,2.18,-2.83,2.22,-2.80,2.80,2.76,3.08,4.97,5.01,5.01
40.14,2.17,-2.81,2.23,-2.76,2.76,2.72,3.00,4.92,4.99,4.98
40.54,2.22,-2.73,2.24,-2.72,2.72,2.67,2.91,4.95,4.96,4.96
40.94,2.29,-2.64,2.25,-2.68,2.68,2.63,2.83,4.97,4.93,4.93
41.35,2.30,-2.61,2.27,-2.64,2.64,2.59,2.74,4.93,4.90,4.91
41.76,2.30,-2.57,2.28,-2.60,2.60,2.54,2.66,4.89,4.88,4.87
42.18,2.30,-2.55,2.29,-2.56,2.56,2.50,2.58,4.86,4.85,4.85
42.60,2.30,-2.53,2.30,-2.53,2.53,2.45,2.50,4.82,4.82,4.83
43.03,2.30,-2.50,2.31,-2.49,2.49,2.41,2.43,4.79,4.80,4.80
43.46,2.30,-2.47,2.32,-2.45,2.45,2.36,2.35,4.75,4.77,4.77
43.90,2.30,-2.45,2.34,-2.40,2.40,2.31,2.28,4.70,4.74,4.75
44.33,2.35,-2.36,2.36,-2.35,2.35,2.27,2.21,4.70,4.71,4.71
44.78,2.41,-2.26,2.38,-2.31,2.31,2.22,2.14,4.72,4.68,4.68
45.23,2.42,-2.25,2.39,-2.26,2.26,2.17,2.07,4.68,4.65,4.67
45.68,2.38,-2.24,2.40,-2.21,2.21,2.13,2.00,4.59,4.62,4.62
46.13,2.36,-2.22,2.42,-2.16,2.16,2.08,1.94,4.52,4.58,4.58
46.60,2.43,-2.11,2.44,-2.11,2.11,2.03,1.88,4.54,4.54,4.55
47.06,2.50,-2.01,2.45,-2.05,2.05,1.98,1.82,4.55,4.50,4.51
47.53,2.50,-1.98,2.47,-1.99,1.99,1.93,1.76,4.49,4.46,4.48
48.01,2.50,-1.92,2.48,-1.94,1.94,1.88,1.70,4.43,4.42,4.42
48.49,2.50,-1.87,2.49,-1.88,1.88,1.83,1.65,4.38,4.37,4.37
48.97,2.50,-1.83,2.49,-1.84,1.84,1.78,1.59,4.33,4.33,4.33
49.46,2.50,-1.79,2.49,-1.80,1.80,1.73,1.54,4.29,4.28,4.29
49.96,2.50,-1.72,2.49,-1.75,1.75,1.68,1.49,4.25,4.24,4.22
50.46,2.50,-1.68,2.49,-1.70,1.70,1.63,1.44,4.19,4.19,4.18
50.96,2.50,-1.64,2.50,-1.65,1.65,1.58,1.39,4.14,4.14,4.14
51.47,2.50,-1.60,2.50,-1.60,1.60,1.52,1.34,4.10,4.10,4.10
51.99,2.50,-1.55,2.49,-1.56,1.56,1.47,1.29,4.05,4.05,4.05
52.51,2.50,-1.51,2.49,-1.51,1.51,1.42,1.25,4.00,4.00,4.01
53.03,2.50,-1.48,2.50,-1.45,1.45,1.36,1.20,3.95,3.96,3.98
53.56,2.48,-1.44,2.52,-1.39,1.39,1.31,1.15,3.87,3.91,3.92
54.10,2.47,-1.40,2.53,-1.33,1.33,1.26,1.11,3.80,3.87,3.87
54.64,2.54,-1.28,2.55,-1.27,1.27,1.20,1.07,3.82,3.82,3.83
55.18,2.60,-1.17,2.57,-1.21,1.21,1.15,1.02,3.81,3.78,3.77
55.74,2.60,-1.12,2.59,-1.15,1.15,1.09,0.98,3.75,3.74,3.72
56.29,2.60,-1.09,2.61,-1.09,1.09,1.04,0.94,3.68,3.70,3.69
56.86,2.60,-1.05,2.63,-1.03,1.03,0.98,0.90,3.62,3.65,3.65
57.42,2.66,-0.93,2.65,-0.96,0.96,0.93,0.85,3.62,3.61,3.59
58.00,2.74,-0.82,2.66,-0.90,0.90,0.87,0.81,3.63,3.56,3.56
58.58,2.73,-0.80,2.68,-0.84,0.84,0.81,0.77,3.56,3.51,3.53
59.16,2.72,-0.77,2.69,-0.77,0.77,0.76,0.73,3.49,3.47,3.49
59.76,2.70,-0.75,2.70,-0.71,0.71,0.70,0.68,3.41,3.42,3.45
60.35,2.70,-0.68,2.71,-0.66,0.66,0.64,0.64,3.35,3.36,3.38
60.96,2.70,-0.63,2.71,-0.61,0.61,0.59,0.60,3.30,3.31,3.33
61.57,2.70,-0.56,2.71,-0.55,0.55,0.53,0.55,3.25,3.26,3.26
62.18,2.70,-0.49,2.71,-0.49,0.49,0.47,0.51,3.19,3.20,3.19
62.80,2.70,-0.43,2.71,-0.44,0.44,0.41,0.46,3.13,3.14,3.13
63.43,2.70,-0.37,2.70,-0.38,0.38,0.35,0.41,3.08,3.08,3.07
64.07,2.70,-0.32,2.70,-0.33,0.33,0.29,0.37,3.02,3.03,3.02
64.71,2.70,-0.26,2.69,-0.27,0.27,0.23,0.32,2.97,2.96,2.96
65.35,2.70,-0.20,2.69,-0.21,0.21,0.18,0.27,2.91,2.90,2.90
66.01,2.70,-0.14,2.69,-0.15,0.15,0.12,0.22,2.85,2.84,2.84
66.67,2.70,-0.10,2.69,-0.09,0.09,0.06,0.17,2.79,2.78,2.80
67.33,2.70,-0.02,2.69,-0.03,0.03,-0.00,0.12,2.73,2.72,2.72
68.01,2.70,0.03,2.69,0.03,-0.03,-0.06,0.07,2.67,2.66,2.67
68.69,2.70,0.10,2.69,0.09,-0.09,-0.13,0.01,2.60,2.60,2.60
69.37,2.70,0.15,2.70,0.16,-0.16,-0.19,-0.04,2.53,2.54,2.55
70.07,2.70,0.22,2.71,0.23,-0.23,-0.25,-0.10,2.46,2.47,2.48
70.77,2.70,0.28,2.71,0.31,-0.31,-0.31,-0.15,2.39,2.41,2.42
71.48,2.69,0.34,2.72,0.38,-0.38,-0.37,-0.21,2.31,2.35,2.35
72.19,2.69,0.41,2.73,0.45,-0.45,-0.43,-0.27,2.23,2.28,2.28
72.91,2.75,0.53,2.74,0.52,-0.52,-0.49,-0.32,2.22,2.22,2.22
73.64,2.79,0.64,2.75,0.60,-0.60,-0.56,-0.38,2.19,2.16,2.15
74.38,2.80,0.71,2.76,0.67,-0.67,-0.62,-0.44,2.13,2.09,2.09
75.12,2.80,0.78,2.77,0.74,-0.74,-0.68,-0.50,2.06,2.03,2.02
75.87,2.80,0.82,2.78,0.80,-0.80,-0.74,-0.57,1.99,1.98,1.98
76.63,2.80,0.89,2.79,0.87,-0.87,-0.81,-0.63,1.93,1.92,1.91
77.40,2.80,0.94,2.79,0.93,-0.93,-0.87,-0.69,1.86,1.86,1.86
78.17,2.80,1.00,2.80,0.99,-0.99,-0.93,-0.76,1.80,1.80,1.80
78.95,2.80,1.04,2.80,1.05,-1.05,-0.99,-0.82,1.74,1.75,1.76
79.74,2.80,1.10,2.80,1.11,-1.11,-1.06,-0.89,1.69,1.69,1.70
80.54,2.80,1.16,2.80,1.16,-1.16,-1.12,-0.95,1.63,1.64,1.64
81.35,2.80,1.21,2.80,1.21,-1.21,-1.18,-1.02,1.58,1.58,1.59
82.16,2.80,1.26,2.80,1.27,-1.27,-1.25,-1.09,1.53,1.53,1.54
82.98,2.80,1.32,2.80,1.32,-1.32,-1.31,-1.16,1.47,1.47,1.48
83.81,2.80,1.38,2.80,1.38,-1.38,-1.38,-1.23,1.41,1.41,1.42
84.65,2.80,1.44,2.80,1.44,-1.44,-1.44,-1.31,1.35,1.36,1.36
85.50,2.80,1.51,2.80,1.50,-1.50,-1.50,-1.38,1.30,1.30,1.29
86.35,2.80,1.57,2.80,1.56,-1.56,-1.57,-1.46,1.23,1.24,1.23
87.22,2.80,1.62,2.80,1.62,-1.62,-1.63,-1.53,1.17,1.18,1.18
88.09,2.80,1.69,2.80,1.69,-1.69,-1.70,-1.61,1.11,1.11,1.11
88.97,2.81,1.75,2.80,1.75,-1.75,-1.76,-1.69,1.05,1.05,1.06
89.86,2.81,1.83,2.81,1.82,-1.82,-1.83,-1.77,0.99,0.99,0.98
90.76,2.81,1.89,2.81,1.89,-1.89,-1.89,-1.85,0.92,0.92,0.92
91.66,2.81,1.96,2.81,1.96,-1.96,-1.95,-1.93,0.85,0.85,0.85
92.58,2.81,2.02,2.81,2.03,-2.03,-2.02,-2.01,0.78,0.78,0.79
93.51,2.81,2.09,2.81,2.10,-2.10,-2.08,-2.10,0.71,0.71,0.72
94.44,2.81,2.16,2.80,2.17,-2.17,-2.15,-2.18,0.63,0.63,0.65
95.39,2.81,2.24,2.80,2.24,-2.24,-2.21,-2.27,0.56,0.56,0.57
96.34,2.81,2.32,2.80,2.32,-2.32,-2.28,-2.36,0.49,0.48,0.49
97.30,2.80,2.39,2.79,2.39,-2.39,-2.34,-2.45,0.41,0.40,0.41
98.28,2.79,2.47,2.78,2.46,-2.46,-2.41,-2.54,0.33,0.32,0.32
99.26,2.78,2.55,2.77,2.53,-2.53,-2.47,-2.63,0.25,0.24,0.23
100.25,2.76,2.61,2.76,2.60,-2.60,-2.54,-2.72,0.16,0.16,0.15
101.25,2.74,2.66,2.74,2.66,-2.66,-2.60,-2.81,0.07,0.08,0.08
102.27,2.73,2.74,2.72,2.73,-2.73,-2.66,-2.90,-0.00,-0.01,-0.01
103.29,2.72,2.81,2.70,2.79,-2.79,-2.73,-2.99,-0.08,-0.09,-0.09
104.32,2.70,2.86,2.68,2.85,-2.85,-2.79,-3.09,-0.16,-0.17,-0.16
105.37,2.67,2.91,2.66,2.91,-2.91,-2.86,-3.18,-0.25,-0.25,-0.24
106.42,2.65,2.98,2.64,2.97,-2.97,-2.92,-3.27,-0.33,-0.33,-0.33
107.48,2.62,3.04,2.62,3.03,-3.03,-2.99,-3.36,-0.41,-0.41,-0.42
108.56,2.60,3.08,2.60,3.09,-3.09,-3.05,-3.45,-0.49,-0.49,-0.48
109.64,2.58,3.15,2.58,3.15,-3.15,-3.11,-3.54,-0.57,-0.57,-0.57
110.74,2.56,3.21,2.56,3.21,-3.21,-3.18,-3.62,-0.65,-0.65,-0.65
111.85,2.54,3.26,2.55,3.27,-3.27,-3.24,-3.71,-0.74,-0.72,-0.72
112.97,2.53,3.32,2.54,3.34,-3.34,-3.30,-3.79,-0.81,-0.80,-0.79
114.10,2.53,3.39,2.53,3.40,-3.40,-3.37,-3.87,-0.88,-0.87,-0.86
115.24,2.52,3.46,2.53,3.47,-3.47,-3.43,-3.94,-0.95,-0.94,-0.94
116.39,2.53,3.55,2.52,3.53,-3.53,-3.49,-4.01,-1.01,-1.01,-1.02
117.55,2.53,3.61,2.53,3.61,-3.61,-3.56,-4.08,-1.08,-1.08,-1.08
118.73,2.53,3.69,2.54,3.69,-3.69,-3.62,-4.15,-1.16,-1.15,-1.16
119.92,2.54,3.76,2.55,3.76,-3.76,-3.68,-4.21,-1.23,-1.21,-1.22
121.12,2.55,3.82,2.56,3.83,-3.83,-3.74,-4.27,-1.29,-1.28,-1.27
122.33,2.56,3.90,2.56,3.90,-3.90,-3.80,-4.32,-1.34,-1.34,-1.34
123.55,2.56,3.95,2.56,3.96,-3.96,-3.86,-4.37,-1.41,-1.40,-1.39
124.79,2.57,4.02,2.56,4.02,-4.02,-3.93,-4.41,-1.46,-1.47,-1.45
126.03,2.58,4.10,2.55,4.08,-4.08,-3.99,-4.45,-1.50,-1.53,-1.52
127.29,2.59,4.17,2.54,4.13,-4.13,-4.05,-4.48,-1.54,-1.59,-1.58
128.57,2.60,4.24,2.53,4.18,-4.18,-4.11,-4.51,-1.58,-1.65,-1.64
129.85,2.62,4.33,2.52,4.22,-4.22,-4.17,-4.53,-1.61,-1.71,-1.71
131.15,2.52,4.29,2.50,4.27,-4.27,-4.23,-4.56,-1.75,-1.77,-1.77
132.46,2.43,4.26,2.49,4.31,-4.31,-4.29,-4.57,-1.89,-1.83,-1.83
133.79,2.40,4.29,2.47,4.36,-4.36,-4.35,-4.59,-1.96,-1.89,-1.89
135.12,2.41,4.36,2.46,4.40,-4.40,-4.40,-4.60,-2.00,-1.95,-1.95
136.48,2.42,4.41,2.44,4.45,-4.45,-4.46,-4.60,-2.03,-2.00,-1.99
137.84,2.42,4.47,2.43,4.49,-4.49,-4.52,-4.61,-2.08,-2.06,-2.05
139.22,2.42,4.55,2.42,4.54,-4.54,-4.58,-4.61,-2.12,-2.12,-2.13
140.61,2.42,4.59,2.41,4.59,-4.59,-4.63,-4.61,-2.17,-2.18,-2.17
142.02,2.42,4.65,2.40,4.64,-4.64,-4.69,-4.61,-2.22,-2.24,-2.23
143.44,2.42,4.72,2.40,4.69,-4.69,-4.75,-4.61,-2.27,-2.29,-2.30
144.87,2.42,4.77,2.40,4.75,-4.75,-4.80,-4.61,-2.33,-2.35,-2.35
146.32,2.42,4.82,2.41,4.81,-4.81,-4.86,-4.61,-2.40,-2.40,-2.40
147.78,2.42,4.88,2.42,4.88,-4.88,-4.91,-4.61,-2.46,-2.46,-2.46
149.26,2.42,4.93,2.43,4.94,-4.94,-4.96,-4.61,-2.52,-2.51,-2.51
150.75,2.42,5.00,2.43,5.00,-5.00,-5.02,-4.61,-2.59,-2.57,-2.58
152.26,2.42,5.04,2.43,5.06,-5.06,-5.07,-4.61,-2.65,-2.63,-2.62
153.78,2.42,5.10,2.43,5.12,-5.12,-5.12,-4.61,-2.70,-2.68,-2.68
155.32,2.42,5.15,2.43,5.17,-5.17,-5.17,-4.62,-2.75,-2.74,-2.73
156.88,2.43,5.22,2.42,5.22,-5.22,-5.22,-4.63,-2.79,-2.80,-2.79
158.44,2.43,5.28,2.41,5.27,-5.27,-5.27,-4.64,-2.84,-2.86,-2.85
160.03,2.43,5.34,2.39,5.31,-5.31,-5.32,-4.65,-2.88,-2.92,-2.91
161.63,2.44,5.41,2.37,5.35,-5.35,-5.37,-4.66,-2.91,-2.98,-2.97
163.24,2.43,5.47,2.35,5.39,-5.39,-5.42,-4.68,-2.96,-3.04,-3.04
164.88,2.36,5.45,2.33,5.42,-5.42,-5.47,-4.70,-3.07,-3.10,-3.09
166.53,2.32,5.48,2.30,5.46,-5.46,-5.52,-4.73,-3.15,-3.16,-3.16
168.19,2.27,5.48,2.28,5.50,-5.50,-5.56,-4.76,-3.23,-3.22,-3.21
169.87,2.19,5.46,2.26,5.53,-5.53,-5.61,-4.79,-3.35,-3.28,-3.27
171.57,2.18,5.52,2.23,5.57,-5.57,-5.65,-4.83,-3.39,-3.34,-3.34
173.29,2.19,5.59,2.21,5.61,-5.61,-5.69,-4.86,-3.42,-3.39,-3.40
175.02,2.18,5.63,2.20,5.65,-5.65,-5.74,-4.91,-3.47,-3.45,-3.45
176.77,2.18,5.68,2.19,5.70,-5.70,-5.78,-4.95,-3.52,-3.50,-3.50
178.54,2.18,5.74,2.19,5.75,-5.75,-5.82,-5.00,-3.57,-3.56,-3.56
180.32,2.18,5.80,2.19,5.80,-5.80,-5.86,-5.06,-3.62,-3.61,-3.62
182.13,2.19,5.85,2.19,5.85,-5.85,-5.90,-5.12,-3.67,-3.66,-3.66
183.95,2.20,5.91,2.20,5.91,-5.91,-5.94,-5.18,-3.71,-3.71,-3.71
185.79,2.21,5.97,2.20,5.96,-5.96,-5.98,-5.24,-3.75,-3.76,-3.76
187.65,2.22,6.02,2.20,6.01,-6.01,-6.01,-5.31,-3.79,-3.81,-3.80
189.52,2.24,6.09,2.20,6.05,-6.05,-6.05,-5.39,-3.82,-3.85,-3.85
191.42,2.26,6.14,2.20,6.09,-6.09,-6.08,-5.46,-3.84,-3.89,-3.88
193.33,2.27,6.20,2.19,6.13,-6.13,-6.12,-5.54,-3.86,-3.94,-3.93
195.27,2.21,6.19,2.18,6.16,-6.16,-6.15,-5.62,-3.96,-3.98,-3.98
197.22,2.17,6.20,2.18,6.20,-6.20,-6.18,-5.71,-4.03,-4.02,-4.03
199.19,2.12,6.18,2.17,6.23,-6.23,-6.21,-5.80,-4.12,-4.06,-4.06
201.18,2.10,6.21,2.16,6.26,-6.26,-6.24,-5.89,-4.17,-4.10,-4.11
203.19,2.11,6.25,2.15,6.30,-6.30,-6.27,-5.98,-4.19,-4.14,-4.14
205.23,2.12,6.30,2.14,6.33,-6.33,-6.30,-6.07,-4.21,-4.18,-4.18
207.28,2.12,6.33,2.13,6.35,-6.35,-6.32,-6.17,-4.24,-4.22,-4.21
209.35,2.12,6.37,2.11,6.37,-6.37,-6.35,-6.27,-4.26,-4.26,-4.25
211.44,2.12,6.42,2.09,6.39,-6.39,-6.37,-6.36,-4.28,-4.30,-4.30
213.56,2.11,6.44,2.07,6.41,-6.41,-6.40,-6.46,-4.30,-4.34,-4.33
215.69,2.11,6.48,2.06,6.43,-6.43,-6.42,-6.56,-4.33,-4.37,-4.37
217.85,2.12,6.52,2.05,6.45,-6.45,-6.44,-6.65,-4.34,-4.41,-4.40
220.03,2.07,6.52,2.03,6.47,-6.47,-6.46,-6.74,-4.41,-4.44,-4.45
222.23,2.02,6.49,2.01,6.48,-6.48,-6.48,-6.83,-4.47,-4.47,-4.47
224.45,2.00,6.50,1.99,6.49,-6.49,-6.50,-6.92,-4.50,-4.50,-4.50
226.70,1.92,6.45,1.97,6.50,-6.50,-6.51,-7.00,-4.58,-4.52,-4.53
228.96,1.88,6.43,1.95,6.50,-6.50,-6.53,-7.08,-4.62,-4.55,-4.55
231.25,1.90,6.46,1.94,6.50,-6.50,-6.54,-7.15,-4.61,-4.57,-4.56
233.57,1.92,6.51,1.93,6.51,-6.51,-6.55,-7.22,-4.59,-4.58,-4.59
235.90,1.95,6.55,1.92,6.52,-6.52,-6.57,-7.28,-4.57,-4.60,-4.60
238.26,1.95,6.57,1.92,6.53,-6.53,-6.58,-7.33,-4.58,-4.61,-4.62
240.64,1.88,6.49,1.92,6.54,-6.54,-6.58,-7.37,-4.66,-4.62,-4.61
243.05,1.88,6.50,1.91,6.54,-6.54,-6.59,-7.41,-4.67,-4.63,-4.62
245.48,1.90,6.54,1.92,6.55,-6.55,-6.60,-7.43,-4.66,-4.64,-4.64
247.93,1.93,6.58,1.91,6.56,-6.56,-6.60,-7.45,-4.63,-4.64,-4.65
250.41,1.94,6.58,1.91,6.56,-6.56,-6.61,-7.45,-4.63,-4.65,-4.64
252.92,1.96,6.60,1.90,6.56,-6.56,-6.61,-7.45,-4.61,-4.66,-4.64
255.45,1.97,6.63,1.90,6.56,-6.56,-6.61,-7.44,-4.60,-4.67,-4.66
258.00,1.96,6.63,1.89,6.56,-6.56,-6.62,-7.42,-4.61,-4.68,-4.67
260.58,1.89,6.57,1.88,6.56,-6.56,-6.61,-7.38,-4.68,-4.69,-4.68
263.19,1.84,6.53,1.86,6.56,-6.56,-6.61,-7.34,-4.73,-4.70,-4.69
265.82,1.78,6.49,1.85,6.56,-6.56,-6.61,-7.30,-4.78,-4.71,-4.71
268.48,1.78,6.49,1.83,6.55,-6.55,-6.61,-7.24,-4.78,-4.72,-4.71
271.16,1.78,6.51,1.80,6.54,-6.54,-6.60,-7.18,-4.76,-4.74,-4.73
273.87,1.77,6.51,1.77,6.52,-6.52,-6.60,-7.11,-4.76,-4.75,-4.74
276.61,1.77,6.53,1.75,6.51,-6.51,-6.59,-7.04,-4.75,-4.76,-4.76
279.38,1.77,6.56,1.73,6.50,-6.50,-6.58,-6.96,-4.74,-4.77,-4.79
282.17,1.78,6.57,1.71,6.49,-6.49,-6.57,-6.88,-4.72,-4.78,-4.79
284.99,1.76,6.55,1.70,6.48,-6.48,-6.56,-6.79,-4.73,-4.79,-4.79
287.84,1.65,6.44,1.69,6.48,-6.48,-6.55,-6.71,-4.83,-4.79,-4.79
290.72,1.60,6.41,1.67,6.47,-6.47,-6.53,-6.62,-4.88,-4.80,-4.81
293.63,1.61,6.41,1.66,6.47,-6.47,-6.52,-6.53,-4.86,-4.80,-4.80
296.57,1.62,6.42,1.65,6.46,-6.46,-6.50,-6.44,-4.84,-4.81,-4.80
299.53,1.64,6.45,1.63,6.44,-6.44,-6.49,-6.35,-4.81,-4.81,-4.81
302.53,1.65,6.45,1.61,6.42,-6.42,-6.47,-6.26,-4.78,-4.81,-4.80
305.55,1.66,6.47,1.59,6.41,-6.41,-6.45,-6.17,-4.75,-4.81,-4.81
308.61,1.60,6.40,1.57,6.39,-6.39,-6.43,-6.08,-4.80,-4.82,-4.80
311.69,1.57,6.39,1.56,6.37,-6.37,-6.41,-6.00,-4.81,-4.82,-4.82
314.81,1.55,6.36,1.54,6.36,-6.36,-6.39,-5.91,-4.81,-4.82,-4.81
317.96,1.50,6.33,1.52,6.34,-6.34,-6.37,-5.83,-4.84,-4.82,-4.83
321.14,1.48,6.30,1.49,6.32,-6.32,-6.35,-5.76,-4.84,-4.83,-4.82
324.35,1.48,6.31,1.46,6.29,-6.29,-6.32,-5.68,-4.81,-4.83,-4.83
327.59,1.44,6.26,1.42,6.25,-6.25,-6.30,-5.61,-4.82,-4.83,-4.82
330.87,1.39,6.22,1.39,6.22,-6.22,-6.27,-5.55,-4.84,-4.83,-4.83
334.18,1.37,6.21,1.36,6.19,-6.19,-6.24,-5.48,-4.83,-4.83,-4.84
337.52,1.37,6.20,1.33,6.16,-6.16,-6.22,-5.42,-4.80,-4.83,-4.83
340.90,1.30,6.14,1.30,6.13,-6.13,-6.19,-5.37,-4.84,-4.83,-4.84
344.30,1.25,6.08,1.27,6.10,-6.10,-6.16,-5.31,-4.86,-4.83,-4.83
347.75,1.19,6.01,1.24,6.07,-6.07,-6.13,-5.27,-4.88,-4.83,-4.82
351.23,1.17,6.01,1.21,6.04,-6.04,-6.10,-5.22,-4.87,-4.83,-4.84
354.74,1.17,5.99,1.18,6.01,-6.01,-6.07,-5.18,-4.84,-4.82,-4.82
358.28,1.18,6.00,1.16,5.98,-5.98,-6.03,-5.14,-4.80,-4.82,-4.82
361.87,1.18,6.00,1.13,5.95,-5.95,-6.00,-5.11,-4.77,-4.82,-4.82
365.49,1.19,6.00,1.11,5.92,-5.92,-5.97,-5.08,-4.74,-4.81,-4.81
369.14,1.08,5.88,1.09,5.90,-5.90,-5.93,-5.06,-4.82,-4.81,-4.80
372.83,1.01,5.80,1.06,5.87,-5.87,-5.90,-5.04,-4.86,-4.80,-4.79
376.56,1.01,5.81,1.03,5.84,-5.84,-5.86,-5.02,-4.83,-4.80,-4.80
380.33,1.02,5.82,1.01,5.81,-5.81,-5.82,-5.01,-4.80,-4.80,-4.80
384.13,1.02,5.81,0.99,5.79,-5.79,-5.79,-5.00,-4.77,-4.80,-4.79
387.97,0.97,5.76,0.96,5.76,-5.76,-5.75,-4.99,-4.80,-4.81,-4.79
391.85,0.94,5.74,0.92,5.73,-5.73,-5.71,-4.99,-4.79,-4.81,-4.80
395.77,0.92,5.73,0.88,5.69,-5.69,-5.67,-4.99,-4.78,-4.81,-4.81
399.73,0.86,5.67,0.83,5.65,-5.65,-5.63,-4.99,-4.80,-4.82,-4.81
403.72,0.79,5.59,0.79,5.61,-5.61,-5.59,-4.99,-4.83,-4.82,-4.80
407.76,0.74,5.56,0.75,5.58,-5.58,-5.55,-5.00,-4.84,-4.83,-4.82
411.84,0.72,5.55,0.72,5.55,-5.55,-5.51,-5.01,-4.83,-4.83,-4.83
415.96,0.72,5.55,0.68,5.51,-5.51,-5.47,-5.02,-4.80,-4.83,-4.83
420.12,0.70,5.54,0.64,5.47,-5.47,-5.43,-5.03,-4.78,-4.83,-4.84
424.32,0.57,5.40,0.61,5.43,-5.43,-5.39,-5.05,-4.87,-4.82,-4.83
428.56,0.54,5.35,0.58,5.39,-5.39,-5.34,-5.06,-4.86,-4.81,-4.81
432.85,0.53,5.32,0.56,5.35,-5.35,-5.30,-5.07,-4.82,-4.79,-4.79
437.18,0.50,5.28,0.55,5.31,-5.31,-5.26,-5.09,-4.82,-4.76,-4.78
441.55,0.51,5.26,0.55,5.28,-5.28,-5.21,-5.10,-4.77,-4.73,-4.75
445.96,0.56,5.27,0.55,5.24,-5.24,-5.17,-5.12,-4.69,-4.69,-4.71
450.42,0.58,5.25,0.55,5.21,-5.21,-5.13,-5.13,-4.63,-4.65,-4.67
454.93,0.58,5.20,0.56,5.17,-5.17,-5.08,-5.14,-4.59,-4.60,-4.62
459.48,0.56,5.12,0.57,5.13,-5.13,-5.04,-5.15,-4.57,-4.55,-4.56
464.07,0.59,5.08,0.59,5.09,-5.09,-4.99,-5.15,-4.50,-4.50,-4.49
468.71,0.61,5.05,0.60,5.05,-5.05,-4.95,-5.16,-4.44,-4.45,-4.44
473.40,0.62,5.00,0.62,5.01,-5.01,-4.90,-5.16,-4.39,-4.39,-4.38
478.13,0.66,4.98,0.62,4.96,-4.96,-4.85,-5.15,-4.31,-4.34,-4.32
482.91,0.71,4.98,0.63,4.92,-4.92,-4.81,-5.15,-4.21,-4.29,-4.27
487.74,0.62,4.86,0.63,4.87,-4.87,-4.76,-5.14,-4.26,-4.24,-4.24
492.62,0.59,4.79,0.62,4.83,-4.83,-4.72,-5.12,-4.24,-4.20,-4.20
497.55,0.61,4.77,0.61,4.78,-4.78,-4.67,-5.10,-4.18,-4.17,-4.16
502.52,0.63,4.77,0.60,4.75,-4.75,-4.62,-5.08,-4.12,-4.14,-4.14
507.55,0.58,4.69,0.58,4.70,-4.70,-4.58,-5.05,-4.13,-4.12,-4.11
512.62,0.54,4.64,0.55,4.66,-4.66,-4.53,-5.02,-4.13,-4.11,-4.10
