frequency,raw,error,smoothed,error_smoothed,equalization,parametric_eq,fixed_band_eq,equalized_raw,equalized_smoothed,target
20.00,-2.20,-7.36,-2.21,-7.37,7.38,7.42,2.99,5.18,5.17,5.16
20.20,-2.21,-7.40,-2.19,-7.38,7.38,7.41,3.07,5.18,5.20,5.19
20.40,-2.18,-7.40,-2.17,-7.39,7.38,7.40,3.16,5.21,5.22,5.22
20.61,-2.13,-7.37,-2.14,-7.39,7.38,7.39,3.25,5.25,5.24,5.24
20.81,-2.11,-7.38,-2.11,-7.38,7.38,7.38,3.34,5.27,5.27,5.27
21.02,-2.09,-7.39,-2.08,-7.37,7.37,7.36,3.43,5.28,5.29,5.30
21.23,-2.05,-7.36,-2.05,-7.36,7.35,7.35,3.53,5.31,5.31,5.31
21.44,-2.01,-7.33,-2.01,-7.33,7.34,7.33,3.63,5.33,5.32,5.32
21.66,-1.98,-7.31,-1.98,-7.31,7.31,7.31,3.73,5.34,5.34,5.33
21.87,-1.95,-7.28,-1.94,-7.28,7.29,7.30,3.83,5.34,5.34,5.33
22.09,-1.92,-7.26,-1.92,-7.26,7.26,7.28,3.94,5.34,5.34,5.34
22.31,-1.89,-7.23,-1.89,-7.23,7.23,7.26,4.05,5.34,5.34,5.34
22.54,-1.86,-7.20,-1.86,-7.20,7.20,7.24,4.16,5.34,5.34,5.34
22.76,-1.83,-7.17,-1.83,-7.17,7.16,7.21,4.27,5.34,5.34,5.34
22.99,-1.80,-7.13,-1.80,-7.13,7.13,7.19,4.39,5.34,5.34,5.33
23.22,-1.77,-7.10,-1.77,-7.10,7.10,7.17,4.51,5.34,5.34,5.33
23.45,-1.74,-7.07,-1.74,-7.07,7.07,7.14,4.63,5.34,5.34,5.33
23.69,-1.71,-7.04,-1.71,-7.04,7.04,7.12,4.76,5.34,5.34,5.33
23.92,-1.68,-7.01,-1.68,-7.01,7.01,7.09,4.89,5.34,5.33,5.33
24.16,-1.66,-6.99,-1.65,-6.98,6.98,7.06,5.02,5.32,5.33,5.33
24.40,-1.63,-6.96,-1.63,-6.95,6.95,7.03,5.15,5.33,5.33,5.33
24.65,-1.60,-6.92,-1.60,-6.92,6.92,7.01,5.28,5.32,5.32,5.32
24.89,-1.57,-6.89,-1.57,-6.89,6.89,6.98,5.42,5.32,5.32,5.32
25.14,-1.54,-6.86,-1.54,-6.86,6.86,6.95,5.56,5.32,5.32,5.32
25.39,-1.51,-6.83,-1.50,-6.83,6.83,6.92,5.69,5.32,5.33,5.32
25.65,-1.48,-6.80,-1.48,-6.80,6.80,6.89,5.83,5.32,5.32,5.32
25.91,-1.45,-6.76,-1.45,-6.77,6.77,6.86,5.97,5.32,5.31,5.31
26.16,-1.44,-6.75,-1.42,-6.74,6.74,6.83,6.11,5.30,5.31,5.31
26.43,-1.40,-6.71,-1.40,-6.71,6.71,6.80,6.25,5.31,5.31,5.31
26.69,-1.36,-6.67,-1.37,-6.68,6.68,6.77,6.39,5.32,5.31,5.31
26.96,-1.35,-6.66,-1.34,-6.65,6.65,6.74,6.52,5.30,5.31,5.31
27.23,-1.31,-6.61,-1.31,-6.62,6.62,6.70,6.66,5.31,5.30,5.30
27.50,-1.29,-6.59,-1.28,-6.59,6.58,6.67,6.78,5.30,5.30,5.30
27.77,-1.27,-6.56,-1.26,-6.55,6.55,6.64,6.91,5.29,5.30,5.29
28.05,-1.22,-6.51,-1.23,-6.52,6.52,6.61,7.03,5.31,5.29,5.29
28.33,-1.22,-6.50,-1.20,-6.49,6.49,6.58,7.14,5.27,5.29,5.28
28.62,-1.18,-6.46,-1.18,-6.46,6.46,6.54,7.25,5.28,5.28,5.28
28.90,-1.14,-6.42,-1.15,-6.43,6.43,6.51,7.35,5.29,5.28,5.28
29.19,-1.14,-6.41,-1.12,-6.40,6.40,6.48,7.44,5.26,5.28,5.27
29.48,-1.09,-6.36,-1.10,-6.37,6.37,6.45,7.53,5.28,5.27,5.27
29.78,-1.09,-6.35,-1.08,-6.34,6.34,6.42,7.60,5.25,5.26,5.26
30.08,-1.05,-6.31,-1.05,-6.31,6.31,6.38,7.66,5.26,5.26,5.26
30.38,-1.03,-6.28,-1.03,-6.28,6.28,6.35,7.71,5.25,5.25,5.25
30.68,-1.01,-6.26,-1.00,-6.25,6.25,6.32,7.75,5.24,5.25,5.25
30.99,-0.97,-6.21,-0.97,-6.22,6.22,6.29,7.77,5.25,5.25,5.24
31.30,-0.96,-6.19,-0.95,-6.19,6.19,6.26,7.79,5.23,5.24,5.23
31.61,-0.92,-6.15,-0.92,-6.15,6.16,6.22,7.79,5.24,5.23,5.23
31.93,-0.92,-6.14,-0.91,-6.13,6.13,6.19,7.78,5.21,5.22,5.22
32.24,-0.88,-6.09,-0.88,-6.10,6.10,6.16,7.76,5.22,5.22,5.21
32.57,-0.88,-6.09,-0.87,-6.08,6.07,6.13,7.73,5.20,5.20,5.21
32.89,-0.84,-6.04,-0.84,-6.04,6.04,6.10,7.68,5.21,5.20,5.20
33.22,-0.83,-6.02,-0.82,-6.02,6.02,6.07,7.63,5.19,5.19,5.19
33.55,-0.79,-5.98,-0.79,-5.98,5.99,6.03,7.56,5.20,5.19,5.19
33.89,-0.79,-5.97,-0.78,-5.96,5.96,6.00,7.49,5.17,5.18,5.18
34.23,-0.75,-5.92,-0.75,-5.93,5.93,5.97,7.41,5.18,5.17,5.17
34.57,-0.75,-5.91,-0.74,-5.90,5.89,5.94,7.33,5.15,5.16,5.16
34.92,-0.70,-5.85,-0.71,-5.86,5.86,5.91,7.24,5.17,5.16,5.15
35.27,-0.70,-5.84,-0.69,-5.83,5.83,5.88,7.14,5.14,5.14,5.14
35.62,-0.66,-5.79,-0.66,-5.80,5.80,5.85,7.04,5.14,5.14,5.13
35.97,-0.66,-5.78,-0.65,-5.77,5.77,5.82,6.93,5.11,5.12,5.12
36.33,-0.62,-5.73,-0.63,-5.74,5.74,5.78,6.83,5.12,5.11,5.11
36.70,-0.62,-5.72,-0.61,-5.71,5.71,5.75,6.72,5.09,5.10,5.10
37.06,-0.59,-5.68,-0.59,-5.68,5.68,5.72,6.61,5.09,5.09,5.09
37.43,-0.57,-5.65,-0.57,-5.65,5.65,5.69,6.50,5.08,5.08,5.08
37.81,-0.55,-5.62,-0.55,-5.62,5.62,5.66,6.39,5.07,5.08,5.07
38.19,-0.53,-5.59,-0.52,-5.59,5.59,5.63,6.28,5.06,5.06,5.06
38.57,-0.51,-5.56,-0.51,-5.56,5.56,5.60,6.17,5.05,5.05,5.05
38.95,-0.49,-5.53,-0.49,-5.53,5.53,5.57,6.07,5.04,5.04,5.04
39.34,-0.49,-5.51,-0.47,-5.50,5.49,5.53,5.96,5.01,5.02,5.02
39.74,-0.44,-5.45,-0.45,-5.46,5.46,5.50,5.86,5.03,5.02,5.01
40.14,-0.43,-5.43,-0.43,-5.43,5.43,5.47,5.76,5.00,5.01,5.00
40.54,-0.40,-5.39,-0.40,-5.39,5.40,5.44,5.67,5.00,5.00,4.99
40.94,-0.40,-5.38,-0.39,-5.37,5.37,5.41,5.58,4.97,4.98,4.98
41.35,-0.36,-5.33,-0.36,-5.34,5.34,5.37,5.49,4.98,4.97,4.97
41.76,-0.36,-5.32,-0.34,-5.31,5.30,5.34,5.40,4.95,4.96,4.96
42.18,-0.31,-5.26,-0.32,-5.27,5.27,5.31,5.32,4.97,4.96,4.95
42.60,-0.31,-5.25,-0.30,-5.24,5.24,5.28,5.24,4.93,4.94,4.94
43.03,-0.27,-5.20,-0.27,-5.20,5.20,5.25,5.16,4.94,4.93,4.93
43.46,-0.27,-5.18,-0.26,-5.17,5.17,5.21,5.09,4.90,4.91,4.91
43.90,-0.23,-5.12,-0.24,-5.13,5.13,5.18,5.02,4.90,4.89,4.89
44.33,-0.23,-5.10,-0.22,-5.09,5.09,5.15,4.96,4.86,4.87,4.87
44.78,-0.20,-5.05,-0.20,-5.05,5.05,5.11,4.89,4.86,4.86,4.85
45.23,-0.18,-5.01,-0.18,-5.01,5.02,5.08,4.84,4.84,4.84,4.83
45.68,-0.15,-4.97,-0.15,-4.97,4.98,5.04,4.78,4.83,4.83,4.82
46.13,-0.14,-4.94,-0.13,-4.94,4.94,5.01,4.73,4.81,4.81,4.80
46.60,-0.12,-4.91,-0.12,-4.91,4.91,4.98,4.69,4.79,4.79,4.79
47.06,-0.10,-4.87,-0.10,-4.87,4.87,4.94,4.64,4.77,4.77,4.77
47.53,-0.10,-4.85,-0.08,-4.84,4.83,4.91,4.60,4.73,4.75,4.75
48.01,-0.05,-4.79,-0.06,-4.80,4.79,4.87,4.57,4.75,4.73,4.74
48.49,-0.05,-4.76,-0.04,-4.75,4.75,4.84,4.53,4.71,4.71,4.71
48.97,-0.03,-4.71,-0.03,-4.71,4.71,4.80,4.50,4.68,4.69,4.68
49.46,-0.01,-4.66,-0.01,-4.66,4.67,4.76,4.47,4.66,4.66,4.65
49.96,-0.01,-4.63,0.01,-4.62,4.63,4.73,4.45,4.62,4.63,4.62
50.46,0.03,-4.57,0.02,-4.58,4.58,4.69,4.43,4.62,4.60,4.60
50.96,0.03,-4.55,0.03,-4.54,4.54,4.65,4.40,4.58,4.58,4.58
51.47,0.03,-4.52,0.05,-4.50,4.50,4.62,4.39,4.54,4.56,4.55
51.99,0.08,-4.45,0.06,-4.47,4.47,4.58,4.37,4.55,4.53,4.53
52.51,0.08,-4.43,0.08,-4.43,4.43,4.54,4.35,4.51,4.51,4.51
53.03,0.08,-4.41,0.10,-4.39,4.39,4.50,4.34,4.48,4.49,4.49
53.56,0.12,-4.34,0.11,-4.36,4.35,4.46,4.33,4.48,4.46,4.46
54.10,0.12,-4.32,0.12,-4.32,4.32,4.43,4.31,4.44,4.44,4.44
54.64,0.12,-4.29,0.14,-4.27,4.28,4.39,4.30,4.40,4.42,4.41
55.18,0.16,-4.23,0.15,-4.24,4.24,4.35,4.29,4.40,4.38,4.39
55.74,0.16,-4.20,0.16,-4.20,4.20,4.31,4.27,4.36,4.36,4.36
56.29,0.16,-4.18,0.18,-4.16,4.16,4.27,4.26,4.33,4.35,4.34
56.86,0.21,-4.11,0.19,-4.12,4.12,4.23,4.25,4.34,4.32,4.32
57.42,0.21,-4.08,0.21,-4.08,4.09,4.19,4.23,4.30,4.30,4.29
58.00,0.21,-4.06,0.23,-4.04,4.05,4.15,4.21,4.27,4.28,4.27
58.58,0.24,-4.01,0.24,-4.02,4.02,4.11,4.19,4.26,4.26,4.25
59.16,0.25,-3.98,0.25,-3.99,3.98,4.07,4.17,4.24,4.23,4.23
59.76,0.25,-3.96,0.26,-3.95,3.94,4.02,4.15,4.20,4.20,4.21
60.35,0.25,-3.93,0.27,-3.91,3.90,3.98,4.12,4.16,4.17,4.18
60.96,0.29,-3.86,0.28,-3.87,3.86,3.94,4.09,4.16,4.14,4.15
61.57,0.29,-3.82,0.29,-3.82,3.82,3.90,4.06,4.12,4.11,4.11
62.18,0.29,-3.79,0.31,-3.77,3.78,3.86,4.03,4.07,4.09,4.08
62.80,0.33,-3.72,0.32,-3.73,3.74,3.81,3.99,4.07,4.06,4.05
63.43,0.34,-3.68,0.34,-3.68,3.70,3.77,3.95,4.04,4.03,4.02
64.07,0.34,-3.65,0.34,-3.65,3.65,3.73,3.90,4.00,4.00,3.99
64.71,0.34,-3.63,0.35,-3.62,3.62,3.68,3.85,3.96,3.96,3.97
65.35,0.34,-3.60,0.35,-3.59,3.58,3.64,3.80,3.92,3.93,3.94
66.01,0.37,-3.54,0.37,-3.55,3.54,3.60,3.75,3.92,3.91,3.91
66.67,0.38,-3.50,0.38,-3.50,3.51,3.55,3.69,3.89,3.89,3.88
67.33,0.38,-3.47,0.39,-3.47,3.47,3.51,3.63,3.86,3.86,3.85
68.01,0.38,-3.44,0.38,-3.44,3.44,3.47,3.57,3.82,3.82,3.82
68.69,0.38,-3.41,0.39,-3.40,3.40,3.42,3.51,3.78,3.79,3.79
69.37,0.39,-3.37,0.40,-3.36,3.36,3.38,3.44,3.75,3.76,3.76
70.07,0.42,-3.31,0.41,-3.32,3.32,3.33,3.37,3.74,3.73,3.73
70.77,0.42,-3.28,0.42,-3.28,3.28,3.29,3.30,3.70,3.70,3.70
71.48,0.42,-3.25,0.43,-3.24,3.24,3.24,3.23,3.66,3.67,3.67
72.19,0.42,-3.21,0.44,-3.19,3.19,3.20,3.16,3.62,3.63,3.63
72.91,0.47,-3.13,0.46,-3.14,3.15,3.15,3.09,3.62,3.60,3.60
73.64,0.47,-3.09,0.47,-3.09,3.10,3.11,3.01,3.57,3.57,3.56
74.38,0.47,-3.06,0.48,-3.05,3.06,3.06,2.94,3.53,3.53,3.53
75.12,0.47,-3.02,0.48,-3.02,3.01,3.02,2.87,3.49,3.49,3.49
75.87,0.48,-2.98,0.49,-2.97,2.97,2.97,2.80,3.45,3.46,3.46
76.63,0.51,-2.92,0.50,-2.93,2.93,2.93,2.72,3.45,3.44,3.43
77.40,0.51,-2.89,0.51,-2.89,2.89,2.88,2.65,3.41,3.41,3.40
78.17,0.51,-2.85,0.52,-2.85,2.86,2.84,2.58,3.37,3.37,3.36
78.95,0.51,-2.82,0.51,-2.82,2.82,2.79,2.51,3.33,3.33,3.33
79.74,0.51,-2.79,0.51,-2.79,2.78,2.75,2.44,3.29,3.29,3.30
80.54,0.51,-2.75,0.52,-2.75,2.74,2.70,2.37,3.25,3.25,3.26
81.35,0.51,-2.72,0.53,-2.70,2.70,2.65,2.30,3.21,3.22,3.23
82.16,0.55,-2.64,0.54,-2.66,2.66,2.61,2.23,3.21,3.20,3.19
82.98,0.55,-2.61,0.55,-2.61,2.62,2.56,2.17,3.17,3.17,3.16
83.81,0.55,-2.57,0.56,-2.56,2.58,2.52,2.10,3.13,3.13,3.12
84.65,0.55,-2.53,0.55,-2.53,2.53,2.47,2.04,3.09,3.09,3.08
85.50,0.55,-2.50,0.55,-2.50,2.49,2.43,1.98,3.05,3.05,3.05
86.35,0.55,-2.46,0.55,-2.46,2.46,2.38,1.92,3.01,3.01,3.01
87.22,0.55,-2.42,0.55,-2.42,2.42,2.33,1.86,2.97,2.97,2.97
88.09,0.55,-2.38,0.55,-2.38,2.38,2.29,1.80,2.93,2.93,2.93
88.97,0.55,-2.34,0.55,-2.34,2.34,2.24,1.74,2.89,2.89,2.89
89.86,0.55,-2.30,0.55,-2.30,2.30,2.20,1.69,2.85,2.85,2.85
90.76,0.55,-2.25,0.55,-2.25,2.25,2.15,1.63,2.81,2.81,2.80
91.66,0.55,-2.21,0.55,-2.21,2.21,2.10,1.58,2.76,2.76,2.76
92.58,0.55,-2.16,0.55,-2.16,2.16,2.06,1.53,2.72,2.72,2.71
93.51,0.55,-2.12,0.55,-2.12,2.12,2.01,1.48,2.67,2.67,2.67
94.44,0.55,-2.08,0.55,-2.08,2.07,1.97,1.43,2.63,2.63,2.63
95.39,0.55,-2.03,0.55,-2.03,2.03,1.92,1.38,2.58,2.58,2.58
96.34,0.55,-1.98,0.55,-1.98,1.98,1.87,1.33,2.54,2.54,2.53
97.30,0.55,-1.93,0.55,-1.93,1.93,1.83,1.28,2.49,2.49,2.48
98.28,0.55,-1.88,0.55,-1.88,1.88,1.78,1.24,2.44,2.44,2.43
99.26,0.55,-1.84,0.55,-1.84,1.83,1.73,1.20,2.39,2.38,2.39
100.25,0.55,-1.79,0.55,-1.79,1.78,1.69,1.15,2.33,2.33,2.34
101.25,0.55,-1.74,0.56,-1.73,1.72,1.64,1.11,2.28,2.29,2.29
102.27,0.58,-1.66,0.58,-1.66,1.67,1.59,1.07,2.25,2.25,2.24
103.29,0.60,-1.59,0.60,-1.60,1.61,1.55,1.03,2.21,2.21,2.19
104.32,0.60,-1.55,0.60,-1.55,1.55,1.50,0.99,2.16,2.15,2.15
105.37,0.60,-1.50,0.61,-1.49,1.49,1.45,0.95,2.10,2.10,2.10
106.42,0.60,-1.45,0.62,-1.44,1.43,1.40,0.91,2.04,2.05,2.05
107.48,0.64,-1.36,0.63,-1.38,1.37,1.36,0.87,2.01,2.00,2.00
108.56,0.64,-1.31,0.64,-1.31,1.31,1.31,0.84,1.95,1.95,1.95
109.64,0.64,-1.26,0.66,-1.24,1.25,1.26,0.80,1.89,1.91,1.90
110.74,0.68,-1.17,0.67,-1.18,1.18,1.21,0.77,1.87,1.85,1.85
111.85,0.68,-1.12,0.68,-1.12,1.12,1.16,0.73,1.80,1.80,1.80
112.97,0.68,-1.06,0.70,-1.05,1.05,1.11,0.70,1.73,1.74,1.74
114.10,0.70,-0.99,0.71,-0.98,0.98,1.07,0.66,1.69,1.69,1.69
115.24,0.73,-0.90,0.72,-0.92,0.91,1.02,0.63,1.65,1.63,1.63
116.39,0.73,-0.85,0.74,-0.84,0.85,0.97,0.60,1.58,1.58,1.58
117.55,0.73,-0.79,0.75,-0.77,0.78,0.92,0.56,1.52,1.53,1.52
118.73,0.77,-0.70,0.76,-0.72,0.72,0.87,0.53,1.49,1.47,1.47
119.92,0.77,-0.65,0.77,-0.65,0.65,0.82,0.50,1.43,1.43,1.42
121.12,0.77,-0.60,0.79,-0.58,0.59,0.76,0.47,1.36,1.38,1.37
122.33,0.81,-0.51,0.80,-0.53,0.52,0.71,0.43,1.33,1.32,1.32
123.55,0.81,-0.46,0.81,-0.46,0.45,0.66,0.40,1.27,1.27,1.27
124.79,0.81,-0.41,0.83,-0.39,0.39,0.61,0.37,1.20,1.22,1.22
126.03,0.86,-0.31,0.85,-0.32,0.32,0.56,0.34,1.18,1.17,1.17
127.29,0.86,-0.26,0.87,-0.24,0.25,0.50,0.31,1.11,1.12,1.12
128.57,0.90,-0.16,0.89,-0.17,0.18,0.45,0.27,1.09,1.07,1.06
129.85,0.90,-0.11,0.90,-0.11,0.11,0.39,0.24,1.02,1.02,1.01
131.15,0.90,-0.06,0.92,-0.05,0.05,0.34,0.21,0.95,0.96,0.96
132.46,0.94,0.03,0.93,0.02,-0.02,0.28,0.18,0.92,0.91,0.91
133.79,0.94,0.07,0.95,0.08,-0.09,0.23,0.15,0.86,0.87,0.87
135.12,0.98,0.16,0.98,0.15,-0.15,0.17,0.11,0.83,0.82,0.82
136.48,0.99,0.21,0.99,0.21,-0.21,0.11,0.08,0.78,0.78,0.78
137.84,1.00,0.27,1.01,0.28,-0.27,0.05,0.05,0.73,0.74,0.73
139.22,1.03,0.35,1.02,0.34,-0.33,-0.00,0.02,0.70,0.69,0.68
140.61,1.03,0.39,1.04,0.40,-0.39,-0.06,-0.02,0.64,0.65,0.64
142.02,1.06,0.45,1.06,0.45,-0.45,-0.12,-0.05,0.61,0.61,0.61
143.44,1.07,0.50,1.07,0.50,-0.50,-0.18,-0.08,0.57,0.57,0.57
144.87,1.07,0.54,1.09,0.56,-0.56,-0.25,-0.12,0.52,0.53,0.53
146.32,1.11,0.62,1.10,0.61,-0.61,-0.31,-0.15,0.50,0.49,0.49
147.78,1.12,0.66,1.12,0.66,-0.66,-0.37,-0.18,0.46,0.46,0.46
149.26,1.12,0.70,1.14,0.72,-0.71,-0.43,-0.22,0.41,0.43,0.42
150.75,1.16,0.78,1.15,0.77,-0.77,-0.50,-0.26,0.40,0.39,0.38
152.26,1.16,0.82,1.16,0.82,-0.82,-0.56,-0.29,0.35,0.34,0.34
153.78,1.16,0.86,1.17,0.87,-0.87,-0.63,-0.33,0.30,0.30,0.30
155.32,1.16,0.90,1.18,0.91,-0.92,-0.69,-0.36,0.25,0.26,0.26
156.88,1.20,0.98,1.19,0.97,-0.97,-0.76,-0.40,0.24,0.23,0.22
158.44,1.20,1.02,1.20,1.02,-1.01,-0.82,-0.44,0.19,0.19,0.18
160.03,1.20,1.06,1.20,1.06,-1.06,-0.89,-0.48,0.14,0.14,0.14
161.63,1.20,1.10,1.21,1.10,-1.11,-0.96,-0.52,0.09,0.09,0.10
163.24,1.20,1.14,1.22,1.15,-1.16,-1.02,-0.56,0.04,0.06,0.06
164.88,1.25,1.22,1.24,1.21,-1.21,-1.09,-0.60,0.05,0.03,0.03
166.53,1.25,1.26,1.25,1.26,-1.25,-1.16,-0.64,0.00,-0.00,-0.01
168.19,1.25,1.30,1.26,1.31,-1.30,-1.22,-0.68,-0.04,-0.04,-0.05
169.87,1.25,1.34,1.25,1.34,-1.34,-1.29,-0.72,-0.08,-0.08,-0.09
171.57,1.25,1.38,1.25,1.38,-1.38,-1.35,-0.77,-0.13,-0.13,-0.13
173.29,1.25,1.41,1.25,1.41,-1.42,-1.42,-0.81,-0.17,-0.17,-0.16
175.02,1.25,1.45,1.25,1.45,-1.46,-1.48,-0.86,-0.20,-0.20,-0.20
176.77,1.25,1.49,1.25,1.49,-1.49,-1.54,-0.90,-0.24,-0.24,-0.24
178.54,1.25,1.53,1.25,1.53,-1.53,-1.60,-0.95,-0.28,-0.28,-0.28
180.32,1.25,1.57,1.25,1.57,-1.57,-1.66,-1.00,-0.31,-0.31,-0.32
182.13,1.25,1.60,1.25,1.60,-1.60,-1.72,-1.05,-0.35,-0.35,-0.35
183.95,1.25,1.64,1.25,1.64,-1.64,-1.77,-1.10,-0.39,-0.39,-0.39
185.79,1.25,1.67,1.25,1.67,-1.67,-1.83,-1.14,-0.42,-0.42,-0.42
187.65,1.25,1.71,1.25,1.71,-1.71,-1.88,-1.20,-0.45,-0.45,-0.46
189.52,1.25,1.74,1.25,1.74,-1.74,-1.92,-1.25,-0.49,-0.49,-0.49
191.42,1.25,1.77,1.25,1.77,-1.77,-1.97,-1.30,-0.52,-0.52,-0.52
193.33,1.25,1.80,1.25,1.80,-1.80,-2.01,-1.35,-0.55,-0.55,-0.55
195.27,1.25,1.83,1.25,1.83,-1.83,-2.04,-1.40,-0.58,-0.58,-0.58
197.22,1.25,1.86,1.25,1.86,-1.86,-2.08,-1.46,-0.61,-0.61,-0.61
199.19,1.25,1.89,1.25,1.89,-1.89,-2.11,-1.51,-0.64,-0.64,-0.64
201.18,1.25,1.91,1.26,1.92,-1.92,-2.13,-1.56,-0.66,-0.66,-0.66
203.19,1.27,1.95,1.27,1.94,-1.94,-2.15,-1.62,-0.67,-0.67,-0.68
205.23,1.27,1.97,1.27,1.97,-1.96,-2.17,-1.67,-0.69,-0.69,-0.70
207.28,1.27,1.98,1.28,1.99,-1.98,-2.18,-1.72,-0.71,-0.71,-0.71
209.35,1.27,2.00,1.27,2.00,-2.00,-2.19,-1.78,-0.73,-0.73,-0.73
211.44,1.27,2.02,1.27,2.02,-2.02,-2.19,-1.83,-0.74,-0.74,-0.75
213.56,1.27,2.03,1.27,2.03,-2.03,-2.19,-1.88,-0.76,-0.76,-0.76
215.69,1.27,2.03,1.27,2.04,-2.04,-2.19,-1.93,-0.77,-0.77,-0.76
217.85,1.27,2.04,1.28,2.05,-2.05,-2.18,-1.98,-0.78,-0.77,-0.77
220.03,1.29,2.07,1.29,2.06,-2.06,-2.17,-2.02,-0.77,-0.78,-0.78
222.23,1.29,2.08,1.29,2.08,-2.07,-2.16,-2.07,-0.78,-0.78,-0.79
224.45,1.29,2.08,1.30,2.08,-2.07,-2.14,-2.11,-0.78,-0.78,-0.79
226.70,1.29,2.08,1.29,2.08,-2.08,-2.12,-2.15,-0.78,-0.78,-0.79
228.96,1.29,2.08,1.29,2.08,-2.08,-2.09,-2.19,-0.79,-0.79,-0.79
231.25,1.29,2.07,1.29,2.07,-2.08,-2.06,-2.22,-0.79,-0.79,-0.78
233.57,1.29,2.07,1.29,2.07,-2.08,-2.03,-2.25,-0.79,-0.79,-0.78
235.90,1.29,2.07,1.30,2.07,-2.08,-2.00,-2.28,-0.78,-0.78,-0.78
238.26,1.31,2.08,1.31,2.07,-2.07,-1.97,-2.30,-0.76,-0.77,-0.77
240.64,1.31,2.07,1.31,2.07,-2.07,-1.93,-2.32,-0.75,-0.75,-0.76
243.05,1.31,2.06,1.32,2.06,-2.06,-1.89,-2.34,-0.74,-0.74,-0.75
245.48,1.31,2.05,1.31,2.05,-2.05,-1.85,-2.35,-0.73,-0.73,-0.74
247.93,1.31,2.04,1.31,2.03,-2.03,-1.81,-2.36,-0.72,-0.73,-0.73
250.41,1.29,2.01,1.30,2.01,-2.02,-1.77,-2.36,-0.72,-0.72,-0.72
252.92,1.29,1.99,1.29,1.99,-2.00,-1.73,-2.36,-0.71,-0.70,-0.70
255.45,1.29,1.97,1.29,1.98,-1.98,-1.69,-2.35,-0.68,-0.68,-0.68
258.00,1.29,1.96,1.29,1.96,-1.95,-1.65,-2.34,-0.66,-0.66,-0.67
260.58,1.29,1.94,1.29,1.93,-1.93,-1.60,-2.33,-0.63,-0.64,-0.65
263.19,1.27,1.90,1.27,1.90,-1.90,-1.56,-2.31,-0.63,-0.63,-0.63
265.82,1.25,1.86,1.27,1.87,-1.87,-1.52,-2.29,-0.61,-0.60,-0.61
268.48,1.25,1.84,1.25,1.84,-1.84,-1.47,-2.26,-0.58,-0.59,-0.59
271.16,1.25,1.82,1.24,1.81,-1.81,-1.43,-2.23,-0.55,-0.57,-0.57
273.87,1.21,1.76,1.22,1.77,-1.77,-1.39,-2.20,-0.56,-0.55,-0.55
276.61,1.20,1.73,1.21,1.74,-1.75,-1.35,-2.16,-0.54,-0.54,-0.53
279.38,1.20,1.71,1.20,1.71,-1.72,-1.31,-2.12,-0.52,-0.52,-0.51
282.17,1.20,1.69,1.20,1.69,-1.69,-1.27,-2.08,-0.49,-0.49,-0.49
284.99,1.20,1.67,1.20,1.67,-1.67,-1.23,-2.04,-0.47,-0.47,-0.47
287.84,1.20,1.65,1.20,1.65,-1.65,-1.19,-1.99,-0.45,-0.45,-0.45
290.72,1.20,1.63,1.21,1.63,-1.63,-1.15,-1.95,-0.42,-0.42,-0.43
293.63,1.20,1.61,1.20,1.61,-1.60,-1.11,-1.90,-0.40,-0.40,-0.41
296.57,1.20,1.59,1.20,1.58,-1.58,-1.08,-1.85,-0.37,-0.38,-0.39
299.53,1.18,1.55,1.18,1.55,-1.55,-1.04,-1.80,-0.37,-0.37,-0.37
302.53,1.16,1.51,1.17,1.52,-1.52,-1.01,-1.75,-0.36,-0.35,-0.35
305.55,1.16,1.48,1.16,1.48,-1.49,-0.97,-1.70,-0.33,-0.33,-0.32
308.61,1.16,1.46,1.17,1.46,-1.46,-0.94,-1.65,-0.29,-0.29,-0.30
311.69,1.16,1.43,1.16,1.43,-1.42,-0.91,-1.60,-0.26,-0.26,-0.27
314.81,1.16,1.40,1.15,1.39,-1.39,-0.87,-1.55,-0.23,-0.24,-0.24
317.96,1.12,1.34,1.14,1.35,-1.36,-0.84,-1.49,-0.24,-0.22,-0.22
321.14,1.12,1.32,1.13,1.33,-1.33,-0.81,-1.44,-0.20,-0.20,-0.20
324.35,1.12,1.30,1.12,1.29,-1.30,-0.78,-1.39,-0.17,-0.18,-0.18
327.59,1.12,1.28,1.11,1.26,-1.26,-0.76,-1.34,-0.14,-0.15,-0.16
330.87,1.07,1.21,1.09,1.23,-1.23,-0.73,-1.29,-0.15,-0.13,-0.14
334.18,1.07,1.19,1.07,1.19,-1.19,-0.70,-1.25,-0.12,-0.12,-0.12
337.52,1.07,1.17,1.06,1.16,-1.16,-0.68,-1.20,-0.08,-0.10,-0.10
340.90,1.03,1.11,1.05,1.12,-1.12,-0.65,-1.15,-0.09,-0.07,-0.08
344.30,1.03,1.09,1.02,1.08,-1.08,-0.62,-1.10,-0.05,-0.06,-0.06
347.75,0.99,1.03,1.01,1.04,-1.05,-0.60,-1.06,-0.05,-0.04,-0.04
351.23,0.99,1.01,0.99,1.01,-1.01,-0.58,-1.01,-0.02,-0.02,-0.02
354.74,0.99,0.99,0.97,0.97,-0.98,-0.55,-0.97,0.01,-0.01,0.00
358.28,0.94,0.93,0.96,0.94,-0.95,-0.53,-0.92,-0.00,0.01,0.01
361.87,0.94,0.91,0.95,0.92,-0.92,-0.51,-0.88,0.03,0.03,0.03
365.49,0.94,0.89,0.94,0.89,-0.89,-0.49,-0.84,0.05,0.05,0.05
369.14,0.94,0.88,0.93,0.86,-0.86,-0.47,-0.80,0.08,0.07,0.06
372.83,0.90,0.82,0.92,0.84,-0.84,-0.45,-0.76,0.07,0.08,0.08
376.56,0.90,0.81,0.91,0.81,-0.81,-0.43,-0.72,0.09,0.09,0.09
380.33,0.90,0.79,0.89,0.78,-0.78,-0.41,-0.68,0.12,0.11,0.11
384.13,0.87,0.75,0.89,0.76,-0.76,-0.39,-0.64,0.12,0.13,0.12
387.97,0.86,0.73,0.87,0.73,-0.73,-0.37,-0.61,0.14,0.14,0.13
391.85,0.86,0.72,0.84,0.70,-0.70,-0.35,-0.57,0.16,0.14,0.14
395.77,0.81,0.65,0.83,0.67,-0.67,-0.33,-0.54,0.14,0.16,0.16
399.73,0.81,0.64,0.81,0.64,-0.65,-0.32,-0.50,0.17,0.17,0.17
403.72,0.81,0.63,0.80,0.61,-0.62,-0.30,-0.47,0.19,0.17,0.18
407.76,0.77,0.58,0.79,0.60,-0.60,-0.28,-0.43,0.18,0.20,0.19
411.84,0.77,0.57,0.77,0.57,-0.57,-0.26,-0.40,0.20,0.20,0.20
415.96,0.77,0.56,0.76,0.54,-0.55,-0.25,-0.37,0.23,0.21,0.21
420.12,0.73,0.51,0.75,0.53,-0.52,-0.23,-0.34,0.21,0.23,0.22
424.32,0.73,0.50,0.73,0.50,-0.50,-0.22,-0.31,0.24,0.24,0.23
428.56,0.73,0.49,0.71,0.47,-0.47,-0.20,-0.28,0.26,0.24,0.24
432.85,0.68,0.43,0.70,0.45,-0.45,-0.19,-0.25,0.23,0.25,0.25
437.18,0.68,0.42,0.69,0.42,-0.42,-0.17,-0.22,0.26,0.26,0.26
441.55,0.68,0.40,0.67,0.40,-0.40,-0.15,-0.19,0.28,0.27,0.28
445.96,0.67,0.38,0.67,0.37,-0.37,-0.14,-0.16,0.30,0.29,0.29
450.42,0.64,0.34,0.66,0.35,-0.35,-0.12,-0.14,0.30,0.31,0.30
454.93,0.64,0.32,0.64,0.32,-0.32,-0.11,-0.11,0.32,0.32,0.32
459.48,0.64,0.31,0.63,0.29,-0.30,-0.09,-0.09,0.35,0.33,0.33
464.07,0.60,0.26,0.62,0.27,-0.27,-0.08,-0.06,0.33,0.35,0.34
468.71,0.60,0.24,0.60,0.24,-0.24,-0.07,-0.04,0.36,0.36,0.36
473.40,0.60,0.23,0.59,0.21,-0.22,-0.05,-0.01,0.39,0.37,0.37
478.13,0.56,0.17,0.57,0.18,-0.19,-0.04,0.01,0.38,0.39,0.39
482.91,0.55,0.15,0.56,0.16,-0.16,-0.02,0.03,0.40,0.40,0.40
487.74,0.55,0.13,0.55,0.13,-0.13,-0.01,0.05,0.43,0.42,0.42
492.62,0.55,0.11,0.54,0.10,-0.10,0.01,0.07,0.46,0.44,0.44
497.55,0.51,0.06,0.53,0.07,-0.07,0.02,0.09,0.45,0.46,0.45
502.52,0.51,0.04,0.51,0.04,-0.04,0.04,0.11,0.48,0.47,0.47
507.55,0.48,0.00,0.49,0.01,-0.00,0.05,0.13,0.48,0.49,0.48
512.62,0.47,-0.03,0.48,-0.03,0.03,0.07,0.15,0.50,0.50,0.50
517.75,0.47,-0.05,0.45,-0.07,0.06,0.08,0.16,0.54,0.52,0.52
522.93,0.42,-0.12,0.44,-0.10,0.10,0.10,0.18,0.52,0.54,0.54
528.16,0.42,-0.13,0.42,-0.13,0.13,0.11,0.20,0.55,0.55,0.55
