frequency,raw,error,smoothed,error_smoothed,equalization,parametric_eq,fixed_band_eq,equalized_raw,equalized_smoothed,target
20.00,-15.72,-22.66,-15.75,-22.71,22.71,25.08,9.82,7.00,6.96,6.95
20.20,-15.58,-22.56,-15.60,-22.59,22.59,24.86,10.01,7.01,6.99,6.98
20.40,-15.44,-22.46,-15.45,-22.47,22.47,24.62,10.19,7.02,7.02,7.01
20.61,-15.31,-22.35,-15.30,-22.34,22.34,24.38,10.39,7.04,7.05,7.04
20.81,-15.16,-22.25,-15.15,-22.22,22.22,24.13,10.58,7.06,7.07,7.08
21.02,-15.04,-22.16,-15.00,-22.10,22.10,23.87,10.78,7.06,7.10,7.12
21.23,-14.89,-22.02,-14.85,-21.97,21.97,23.61,10.99,7.09,7.12,7.13
21.44,-14.73,-21.89,-14.71,-21.85,21.85,23.35,11.20,7.11,7.14,7.15
21.66,-14.59,-21.76,-14.56,-21.72,21.72,23.10,11.42,7.13,7.16,7.17
21.87,-14.43,-21.61,-14.42,-21.60,21.60,22.84,11.64,7.16,7.18,7.18
22.09,-14.27,-21.47,-14.28,-21.47,21.47,22.58,11.87,7.20,7.19,7.20
22.31,-14.11,-21.31,-14.14,-21.34,21.34,22.33,12.11,7.23,7.20,7.20
22.54,-13.97,-21.18,-14.00,-21.22,21.22,22.08,12.35,7.25,7.22,7.21
22.76,-13.80,-21.02,-13.87,-21.09,21.09,21.83,12.60,7.28,7.22,7.22
22.99,-13.65,-20.86,-13.73,-20.96,20.96,21.59,12.85,7.31,7.23,7.22
23.22,-13.55,-20.77,-13.59,-20.83,20.83,21.35,13.12,7.29,7.24,7.23
23.45,-13.45,-20.68,-13.46,-20.70,20.70,21.11,13.39,7.25,7.24,7.24
23.69,-13.36,-20.60,-13.31,-20.56,20.56,20.88,13.67,7.20,7.25,7.25
23.92,-13.25,-20.51,-13.16,-20.42,20.42,20.66,13.96,7.16,7.25,7.25
24.16,-13.11,-20.38,-13.02,-20.27,20.27,20.43,14.26,7.16,7.25,7.26
24.40,-12.94,-20.22,-12.87,-20.13,20.13,20.22,14.56,7.19,7.26,7.27
24.65,-12.79,-20.05,-12.74,-19.99,19.99,20.00,14.88,7.21,7.26,7.26
24.89,-12.61,-19.87,-12.60,-19.86,19.86,19.80,15.21,7.25,7.26,7.26
25.14,-12.44,-19.70,-12.47,-19.73,19.73,19.60,15.55,7.29,7.26,7.26
25.39,-12.26,-19.52,-12.33,-19.59,19.59,19.40,15.90,7.33,7.26,7.26
25.65,-12.10,-19.35,-12.18,-19.45,19.45,19.20,16.27,7.35,7.26,7.26
25.91,-11.92,-19.17,-12.04,-19.30,19.30,19.02,16.64,7.38,7.26,7.25
26.16,-11.82,-19.07,-11.90,-19.15,19.15,18.83,17.04,7.34,7.26,7.26
26.43,-11.76,-19.01,-11.76,-19.02,19.02,18.65,17.44,7.26,7.25,7.25
26.69,-11.70,-18.95,-11.64,-18.89,18.89,18.48,17.86,7.19,7.25,7.25
26.96,-11.64,-18.89,-11.52,-18.77,18.77,18.31,18.30,7.13,7.25,7.25
27.23,-11.48,-18.73,-11.40,-18.64,18.64,18.14,18.75,7.17,7.24,7.25
27.50,-11.30,-18.55,-11.27,-18.52,18.52,17.98,19.21,7.22,7.24,7.25
27.77,-11.11,-18.35,-11.15,-18.39,18.39,17.83,19.69,7.28,7.24,7.24
28.05,-10.96,-18.19,-11.03,-18.27,18.27,17.67,20.18,7.31,7.24,7.24
28.33,-10.89,-18.11,-10.91,-18.15,18.15,17.53,20.68,7.26,7.24,7.22
28.62,-10.82,-18.05,-10.79,-18.02,18.02,17.38,21.19,7.21,7.23,7.23
28.90,-10.74,-17.97,-10.67,-17.90,17.90,17.24,21.69,7.16,7.23,7.23
29.19,-10.59,-17.80,-10.54,-17.77,17.77,17.11,22.19,7.18,7.23,7.22
29.48,-10.39,-17.62,-10.41,-17.63,17.63,16.98,22.67,7.24,7.22,7.23
29.78,-10.21,-17.43,-10.28,-17.50,17.50,16.85,23.12,7.29,7.22,7.23
30.08,-10.05,-17.27,-10.16,-17.37,17.37,16.73,23.51,7.32,7.21,7.22
30.38,-9.99,-17.20,-10.04,-17.25,17.25,16.61,23.84,7.26,7.21,7.21
30.68,-9.94,-17.15,-9.92,-17.12,17.12,16.49,24.08,7.18,7.20,7.21
30.99,-9.88,-17.07,-9.79,-16.99,16.99,16.38,24.22,7.11,7.20,7.20
31.30,-9.72,-16.91,-9.65,-16.85,16.85,16.27,24.24,7.13,7.19,7.19
31.61,-9.56,-16.75,-9.51,-16.70,16.70,16.17,24.15,7.14,7.19,7.19
31.93,-9.39,-16.57,-9.37,-16.55,16.55,16.06,23.95,7.16,7.18,7.18
32.24,-9.23,-16.40,-9.23,-16.40,16.40,15.96,23.66,7.17,7.18,7.17
32.57,-9.10,-16.26,-9.09,-16.26,16.26,15.87,23.29,7.16,7.17,7.16
32.89,-8.96,-16.13,-8.95,-16.11,16.11,15.77,22.87,7.15,7.16,7.16
33.22,-8.81,-15.96,-8.81,-15.97,15.97,15.68,22.41,7.16,7.16,7.16
33.55,-8.64,-15.80,-8.67,-15.82,15.82,15.59,21.93,7.18,7.15,7.15
33.89,-8.49,-15.64,-8.53,-15.67,15.67,15.50,21.44,7.19,7.15,7.15
34.23,-8.35,-15.49,-8.39,-15.53,15.53,15.42,20.95,7.18,7.14,7.15
34.57,-8.22,-15.35,-8.25,-15.39,15.39,15.33,20.46,7.17,7.14,7.13
34.92,-8.08,-15.21,-8.12,-15.25,15.25,15.24,19.98,7.17,7.13,7.13
35.27,-7.97,-15.09,-7.99,-15.12,15.12,15.16,19.52,7.15,7.12,7.13
35.62,-7.88,-14.99,-7.87,-14.99,14.99,15.07,19.07,7.11,7.12,7.11
35.97,-7.78,-14.88,-7.75,-14.86,14.86,14.98,18.63,7.08,7.11,7.11
36.33,-7.68,-14.78,-7.63,-14.74,14.74,14.89,18.20,7.06,7.10,7.10
36.70,-7.58,-14.68,-7.52,-14.62,14.62,14.79,17.80,7.04,7.10,7.10
37.06,-7.46,-14.55,-7.41,-14.50,14.50,14.69,17.40,7.03,7.09,7.09
37.43,-7.28,-14.36,-7.30,-14.38,14.38,14.59,17.03,7.09,7.08,7.08
37.81,-7.12,-14.19,-7.18,-14.25,14.25,14.49,16.66,7.14,7.07,7.08
38.19,-7.00,-14.06,-7.06,-14.12,14.12,14.38,16.31,7.13,7.07,7.06
38.57,-6.93,-13.98,-6.93,-13.99,13.99,14.27,15.97,7.07,7.06,7.06
38.95,-6.85,-13.90,-6.82,-13.87,13.87,14.15,15.65,7.01,7.05,7.05
39.34,-6.76,-13.79,-6.70,-13.74,13.74,14.03,15.33,6.99,7.04,7.03
39.74,-6.66,-13.67,-6.59,-13.62,13.62,13.90,15.03,6.97,7.03,7.02
40.14,-6.53,-13.55,-6.48,-13.51,13.51,13.77,14.74,6.98,7.02,7.02
40.54,-6.36,-13.37,-6.38,-13.40,13.40,13.64,14.46,7.04,7.01,7.02
40.94,-6.19,-13.19,-6.29,-13.29,13.29,13.50,14.19,7.10,7.00,7.01
41.35,-6.11,-13.10,-6.20,-13.18,13.18,13.35,13.93,7.08,6.98,6.99
41.76,-6.03,-13.00,-6.12,-13.08,13.08,13.21,13.67,7.05,6.96,6.97
42.18,-5.98,-12.93,-6.03,-12.97,12.97,13.06,13.43,6.99,6.94,6.96
42.60,-5.96,-12.88,-5.94,-12.85,12.85,12.91,13.19,6.90,6.92,6.93
43.03,-5.93,-12.84,-5.85,-12.74,12.74,12.76,12.96,6.81,6.89,6.91
43.46,-5.83,-12.71,-5.76,-12.62,12.62,12.61,12.74,6.80,6.86,6.88
43.90,-5.73,-12.56,-5.68,-12.51,12.51,12.46,12.53,6.79,6.84,6.83
44.33,-5.63,-12.43,-5.59,-12.40,12.40,12.30,12.32,6.78,6.81,6.80
44.78,-5.53,-12.29,-5.51,-12.29,12.29,12.15,12.12,6.76,6.78,6.77
45.23,-5.41,-12.14,-5.42,-12.17,12.17,12.00,11.93,6.76,6.75,6.74
45.68,-5.28,-11.98,-5.31,-12.03,12.03,11.84,11.74,6.76,6.72,6.71
46.13,-5.17,-11.85,-5.19,-11.90,11.90,11.69,11.55,6.73,6.70,6.69
46.60,-5.09,-11.76,-5.08,-11.76,11.76,11.54,11.38,6.67,6.68,6.67
47.06,-5.00,-11.65,-4.95,-11.62,11.62,11.39,11.21,6.62,6.66,6.65
47.53,-4.88,-11.52,-4.83,-11.47,11.47,11.25,11.04,6.60,6.65,6.64
48.01,-4.75,-11.39,-4.70,-11.34,11.34,11.10,10.88,6.59,6.64,6.64
48.49,-4.60,-11.22,-4.58,-11.21,11.21,10.96,10.72,6.62,6.63,6.63
48.97,-4.45,-11.06,-4.47,-11.09,11.09,10.82,10.57,6.65,6.62,6.61
49.46,-4.29,-10.89,-4.35,-10.97,10.97,10.68,10.42,6.69,6.62,6.60
49.96,-4.12,-10.71,-4.23,-10.85,10.85,10.54,10.28,6.73,6.61,6.60
50.46,-4.09,-10.69,-4.12,-10.72,10.72,10.41,10.14,6.64,6.60,6.60
50.96,-4.07,-10.67,-4.01,-10.60,10.60,10.28,10.00,6.54,6.59,6.61
51.47,-3.93,-10.52,-3.90,-10.48,10.48,10.15,9.87,6.56,6.58,6.59
51.99,-3.78,-10.35,-3.80,-10.36,10.36,10.02,9.74,6.58,6.56,6.58
52.51,-3.72,-10.28,-3.70,-10.24,10.24,9.89,9.62,6.53,6.54,6.56
53.03,-3.65,-10.18,-3.61,-10.12,10.12,9.77,9.49,6.47,6.51,6.53
53.56,-3.53,-10.02,-3.52,-9.99,9.99,9.65,9.37,6.47,6.48,6.49
54.10,-3.41,-9.85,-3.42,-9.86,9.86,9.53,9.26,6.45,6.44,6.45
54.64,-3.28,-9.67,-3.32,-9.72,9.72,9.41,9.14,6.44,6.40,6.40
55.18,-3.20,-9.54,-3.23,-9.58,9.58,9.29,9.03,6.38,6.35,6.35
55.74,-3.20,-9.48,-3.14,-9.43,9.43,9.18,8.92,6.23,6.29,6.29
56.29,-3.13,-9.36,-3.04,-9.27,9.27,9.07,8.81,6.15,6.24,6.24
56.86,-3.00,-9.17,-2.95,-9.12,9.12,8.96,8.70,6.13,6.18,6.18
57.42,-2.88,-8.98,-2.87,-8.98,8.98,8.85,8.59,6.11,6.11,6.10
58.00,-2.75,-8.79,-2.79,-8.84,8.84,8.74,8.49,6.09,6.05,6.04
58.58,-2.62,-8.59,-2.71,-8.69,8.69,8.64,8.38,6.08,5.98,5.98
59.16,-2.52,-8.44,-2.64,-8.55,8.55,8.53,8.28,6.04,5.91,5.92
59.76,-2.52,-8.37,-2.57,-8.41,8.41,8.43,8.18,5.90,5.85,5.86
60.35,-2.52,-8.30,-2.49,-8.28,8.28,8.33,8.08,5.76,5.78,5.78
60.96,-2.52,-8.24,-2.43,-8.14,8.14,8.23,7.98,5.63,5.72,5.72
61.57,-2.39,-8.03,-2.35,-8.01,8.01,8.13,7.88,5.62,5.65,5.65
62.18,-2.29,-7.86,-2.28,-7.87,7.87,8.03,7.78,5.58,5.59,5.58
62.80,-2.29,-7.81,-2.21,-7.74,7.74,7.94,7.68,5.45,5.53,5.53
63.43,-2.19,-7.66,-2.15,-7.62,7.62,7.84,7.58,5.44,5.48,5.47
64.07,-2.06,-7.48,-2.09,-7.51,7.51,7.75,7.48,5.45,5.42,5.42
64.71,-2.02,-7.38,-2.02,-7.39,7.39,7.66,7.38,5.38,5.37,5.37
65.35,-1.95,-7.26,-1.95,-7.28,7.28,7.57,7.28,5.33,5.32,5.31
66.01,-1.83,-7.10,-1.89,-7.16,7.16,7.48,7.18,5.34,5.28,5.27
66.67,-1.83,-7.05,-1.82,-7.05,7.05,7.39,7.08,5.22,5.23,5.23
67.33,-1.76,-6.95,-1.75,-6.94,6.94,7.30,6.98,5.19,5.19,5.19
68.01,-1.61,-6.76,-1.68,-6.83,6.83,7.22,6.89,5.23,5.15,5.15
68.69,-1.61,-6.72,-1.63,-6.74,6.74,7.13,6.79,5.14,5.12,5.12
69.37,-1.61,-6.68,-1.57,-6.65,6.65,7.05,6.69,5.04,5.08,5.08
70.07,-1.59,-6.63,-1.51,-6.56,6.56,6.96,6.60,4.97,5.04,5.04
70.77,-1.43,-6.45,-1.46,-6.46,6.46,6.88,6.50,5.04,5.01,5.02
71.48,-1.38,-6.35,-1.40,-6.37,6.37,6.80,6.41,5.00,4.97,4.98
72.19,-1.38,-6.32,-1.34,-6.28,6.28,6.71,6.32,4.90,4.93,4.95
72.91,-1.38,-6.28,-1.29,-6.19,6.19,6.63,6.23,4.81,4.90,4.90
73.64,-1.23,-6.09,-1.24,-6.10,6.10,6.55,6.14,4.87,4.86,4.87
74.38,-1.15,-5.98,-1.19,-6.02,6.02,6.48,6.05,4.87,4.82,4.83
75.12,-1.15,-5.93,-1.15,-5.94,5.94,6.40,5.96,4.79,4.79,4.79
75.87,-1.15,-5.90,-1.11,-5.86,5.86,6.32,5.88,4.71,4.75,4.75
76.63,-1.04,-5.75,-1.06,-5.77,5.77,6.24,5.79,4.74,4.72,4.71
77.40,-0.95,-5.63,-1.01,-5.69,5.69,6.17,5.71,4.75,4.68,4.68
78.17,-0.92,-5.56,-0.97,-5.62,5.62,6.09,5.63,4.70,4.65,4.64
78.95,-0.92,-5.54,-0.93,-5.55,5.55,6.02,5.55,4.64,4.62,4.62
79.74,-0.92,-5.52,-0.89,-5.49,5.49,5.94,5.48,4.57,4.60,4.60
80.54,-0.92,-5.48,-0.85,-5.42,5.42,5.87,5.40,4.51,4.57,4.57
81.35,-0.92,-5.46,-0.82,-5.37,5.37,5.80,5.33,4.46,4.55,4.54
82.16,-0.87,-5.39,-0.80,-5.34,5.34,5.73,5.26,4.47,4.54,4.53
82.98,-0.69,-5.21,-0.79,-5.31,5.31,5.66,5.19,4.62,4.52,4.52
83.81,-0.69,-5.19,-0.76,-5.27,5.27,5.59,5.13,4.59,4.51,4.51
84.65,-0.69,-5.18,-0.74,-5.24,5.24,5.52,5.07,4.55,4.50,4.49
85.50,-0.69,-5.18,-0.72,-5.21,5.21,5.45,5.00,4.53,4.49,4.49
86.35,-0.69,-5.17,-0.70,-5.18,5.18,5.38,4.94,4.50,4.48,4.48
87.22,-0.69,-5.16,-0.67,-5.15,5.15,5.31,4.89,4.46,4.48,4.47
88.09,-0.69,-5.15,-0.64,-5.11,5.11,5.24,4.83,4.42,4.47,4.46
88.97,-0.69,-5.16,-0.62,-5.08,5.08,5.18,4.78,4.39,4.46,4.47
89.86,-0.69,-5.14,-0.59,-5.04,5.04,5.11,4.73,4.36,4.45,4.46
90.76,-0.67,-5.10,-0.58,-5.01,5.01,5.04,4.68,4.35,4.44,4.44
91.66,-0.54,-4.97,-0.56,-4.98,4.98,4.98,4.63,4.45,4.42,4.43
92.58,-0.47,-4.87,-0.55,-4.95,4.95,4.92,4.59,4.49,4.40,4.40
93.51,-0.47,-4.86,-0.53,-4.91,4.91,4.85,4.54,4.45,4.39,4.39
94.44,-0.47,-4.84,-0.51,-4.87,4.87,4.79,4.50,4.41,4.36,4.37
95.39,-0.47,-4.81,-0.49,-4.83,4.83,4.73,4.46,4.36,4.34,4.34
96.34,-0.47,-4.77,-0.48,-4.79,4.79,4.66,4.43,4.32,4.31,4.30
97.30,-0.47,-4.74,-0.46,-4.74,4.74,4.60,4.39,4.28,4.28,4.27
98.28,-0.47,-4.70,-0.45,-4.70,4.70,4.54,4.36,4.23,4.24,4.24
99.26,-0.47,-4.67,-0.45,-4.65,4.65,4.48,4.33,4.19,4.20,4.20
100.25,-0.47,-4.63,-0.44,-4.60,4.60,4.42,4.29,4.13,4.16,4.16
101.25,-0.47,-4.58,-0.44,-4.55,4.55,4.37,4.27,4.09,4.12,4.12
102.27,-0.47,-4.53,-0.44,-4.51,4.51,4.31,4.24,4.04,4.06,4.07
103.29,-0.47,-4.48,-0.45,-4.46,4.46,4.25,4.21,4.00,4.01,4.01
104.32,-0.47,-4.43,-0.46,-4.41,4.41,4.20,4.19,3.94,3.95,3.96
105.37,-0.47,-4.37,-0.47,-4.36,4.36,4.14,4.16,3.89,3.89,3.90
106.42,-0.47,-4.30,-0.49,-4.30,4.30,4.08,4.14,3.84,3.82,3.84
107.48,-0.47,-4.23,-0.50,-4.25,4.25,4.03,4.11,3.78,3.75,3.76
108.56,-0.47,-4.14,-0.52,-4.19,4.19,3.98,4.09,3.73,3.67,3.67
109.64,-0.47,-4.06,-0.54,-4.13,4.13,3.92,4.07,3.67,3.59,3.59
110.74,-0.47,-3.98,-0.56,-4.07,4.07,3.87,4.05,3.60,3.51,3.52
111.85,-0.66,-4.10,-0.57,-4.00,4.00,3.82,4.03,3.34,3.43,3.44
112.97,-0.69,-4.03,-0.59,-3.93,3.93,3.77,4.00,3.25,3.35,3.34
114.10,-0.69,-3.95,-0.61,-3.87,3.87,3.72,3.98,3.19,3.26,3.27
115.24,-0.69,-3.87,-0.63,-3.82,3.82,3.67,3.96,3.13,3.19,3.18
116.39,-0.69,-3.78,-0.66,-3.77,3.77,3.62,3.94,3.08,3.11,3.09
117.55,-0.69,-3.70,-0.69,-3.73,3.73,3.58,3.91,3.04,3.04,3.02
118.73,-0.69,-3.63,-0.72,-3.69,3.69,3.53,3.89,3.00,2.97,2.94
119.92,-0.69,-3.57,-0.75,-3.65,3.65,3.49,3.86,2.96,2.90,2.89
121.12,-0.69,-3.51,-0.77,-3.61,3.61,3.44,3.84,2.93,2.84,2.82
122.33,-0.69,-3.46,-0.79,-3.58,3.58,3.40,3.81,2.89,2.79,2.77
123.55,-0.79,-3.53,-0.80,-3.53,3.53,3.36,3.78,2.75,2.73,2.74
124.79,-0.91,-3.59,-0.81,-3.49,3.49,3.31,3.75,2.58,2.69,2.69
126.03,-0.92,-3.56,-0.83,-3.47,3.47,3.27,3.72,2.55,2.64,2.65
127.29,-0.92,-3.52,-0.85,-3.45,3.45,3.23,3.68,2.53,2.60,2.60
128.57,-0.92,-3.47,-0.88,-3.43,3.43,3.19,3.65,2.52,2.55,2.55
129.85,-0.92,-3.43,-0.91,-3.42,3.42,3.16,3.62,2.51,2.51,2.52
131.15,-0.92,-3.39,-0.94,-3.41,3.41,3.12,3.58,2.49,2.47,2.48
132.46,-0.92,-3.35,-0.97,-3.40,3.40,3.08,3.54,2.48,2.43,2.43
133.79,-0.92,-3.31,-1.00,-3.38,3.38,3.05,3.51,2.47,2.39,2.39
135.12,-0.93,-3.26,-1.02,-3.37,3.37,3.01,3.47,2.44,2.34,2.34
136.48,-0.98,-3.28,-1.04,-3.34,3.34,2.98,3.43,2.37,2.30,2.30
137.84,-1.13,-3.38,-1.05,-3.31,3.31,2.95,3.39,2.19,2.26,2.26
139.22,-1.15,-3.34,-1.07,-3.28,3.28,2.92,3.35,2.13,2.21,2.20
140.61,-1.15,-3.29,-1.08,-3.24,3.24,2.89,3.31,2.10,2.16,2.14
142.02,-1.15,-3.26,-1.09,-3.21,3.21,2.86,3.26,2.06,2.11,2.11
143.44,-1.15,-3.21,-1.11,-3.17,3.17,2.83,3.22,2.02,2.06,2.06
144.87,-1.15,-3.16,-1.13,-3.13,3.13,2.81,3.18,1.98,2.00,2.01
146.32,-1.15,-3.10,-1.15,-3.09,3.09,2.78,3.14,1.94,1.94,1.95
147.78,-1.15,-3.05,-1.17,-3.04,3.04,2.75,3.10,1.89,1.87,1.91
149.26,-1.15,-2.98,-1.19,-2.99,2.99,2.73,3.06,1.84,1.80,1.83
150.75,-1.15,-2.89,-1.20,-2.93,2.93,2.71,3.02,1.78,1.73,1.74
152.26,-1.15,-2.82,-1.22,-2.86,2.86,2.69,2.98,1.72,1.65,1.67
153.78,-1.15,-2.73,-1.22,-2.79,2.79,2.67,2.95,1.64,1.57,1.59
155.32,-1.20,-2.68,-1.24,-2.73,2.73,2.65,2.91,1.53,1.49,1.48
156.88,-1.36,-2.76,-1.26,-2.67,2.67,2.63,2.87,1.31,1.41,1.40
158.44,-1.38,-2.70,-1.28,-2.62,2.62,2.61,2.84,1.24,1.34,1.32
160.03,-1.38,-2.62,-1.31,-2.58,2.58,2.60,2.81,1.20,1.26,1.24
161.63,-1.38,-2.55,-1.35,-2.54,2.54,2.58,2.78,1.17,1.20,1.17
163.24,-1.38,-2.49,-1.38,-2.52,2.52,2.57,2.74,1.14,1.14,1.12
164.88,-1.38,-2.45,-1.41,-2.50,2.50,2.55,2.72,1.12,1.09,1.07
166.53,-1.38,-2.40,-1.44,-2.49,2.49,2.54,2.69,1.11,1.05,1.02
168.19,-1.38,-2.37,-1.47,-2.49,2.49,2.53,2.66,1.11,1.01,0.99
169.87,-1.43,-2.39,-1.50,-2.49,2.49,2.52,2.64,1.06,0.99,0.97
171.57,-1.57,-2.52,-1.52,-2.49,2.49,2.51,2.61,0.93,0.97,0.95
173.29,-1.61,-2.56,-1.54,-2.50,2.50,2.50,2.59,0.89,0.96,0.95
175.02,-1.61,-2.57,-1.55,-2.50,2.50,2.49,2.57,0.89,0.95,0.96
176.77,-1.61,-2.56,-1.57,-2.51,2.51,2.49,2.55,0.90,0.94,0.95
178.54,-1.61,-2.56,-1.58,-2.52,2.52,2.48,2.54,0.92,0.94,0.95
180.32,-1.61,-2.56,-1.60,-2.53,2.53,2.48,2.52,0.93,0.93,0.95
182.13,-1.61,-2.56,-1.61,-2.54,2.54,2.47,2.51,0.93,0.93,0.95
183.95,-1.61,-2.55,-1.62,-2.54,2.54,2.47,2.49,0.93,0.92,0.95
185.79,-1.61,-2.54,-1.62,-2.53,2.53,2.47,2.48,0.93,0.91,0.93
187.65,-1.61,-2.51,-1.62,-2.52,2.52,2.47,2.47,0.91,0.90,0.91
189.52,-1.61,-2.49,-1.62,-2.50,2.50,2.47,2.47,0.89,0.88,0.88
191.42,-1.61,-2.46,-1.61,-2.47,2.47,2.47,2.46,0.87,0.86,0.86
193.33,-1.61,-2.44,-1.61,-2.45,2.45,2.47,2.45,0.84,0.84,0.83
195.27,-1.61,-2.43,-1.61,-2.43,2.43,2.47,2.45,0.82,0.82,0.82
197.22,-1.61,-2.41,-1.61,-2.40,2.40,2.47,2.45,0.80,0.80,0.80
199.19,-1.61,-2.37,-1.61,-2.38,2.38,2.47,2.45,0.77,0.77,0.76
201.18,-1.61,-2.35,-1.61,-2.36,2.36,2.48,2.45,0.75,0.75,0.75
203.19,-1.61,-2.34,-1.61,-2.33,2.33,2.48,2.45,0.73,0.73,0.73
205.23,-1.61,-2.31,-1.61,-2.31,2.31,2.49,2.45,0.71,0.71,0.70
207.28,-1.61,-2.30,-1.60,-2.28,2.28,2.49,2.45,0.68,0.68,0.69
209.35,-1.61,-2.27,-1.59,-2.26,2.26,2.50,2.45,0.65,0.67,0.66
211.44,-1.61,-2.24,-1.59,-2.24,2.24,2.50,2.46,0.63,0.65,0.64
213.56,-1.61,-2.24,-1.59,-2.22,2.22,2.51,2.46,0.62,0.63,0.63
215.69,-1.61,-2.23,-1.60,-2.21,2.21,2.52,2.47,0.61,0.61,0.62
217.85,-1.61,-2.20,-1.61,-2.21,2.21,2.52,2.47,0.60,0.60,0.60
220.03,-1.61,-2.19,-1.62,-2.21,2.21,2.53,2.48,0.60,0.58,0.58
222.23,-1.61,-2.16,-1.64,-2.21,2.21,2.54,2.48,0.60,0.57,0.56
224.45,-1.61,-2.16,-1.66,-2.22,2.22,2.55,2.49,0.61,0.56,0.55
226.70,-1.61,-2.16,-1.68,-2.23,2.23,2.56,2.50,0.62,0.55,0.55
228.96,-1.61,-2.14,-1.70,-2.24,2.24,2.57,2.50,0.63,0.54,0.54
231.25,-1.78,-2.31,-1.72,-2.25,2.25,2.58,2.51,0.47,0.53,0.54
233.57,-1.83,-2.35,-1.74,-2.27,2.27,2.59,2.51,0.44,0.52,0.52
235.90,-1.83,-2.34,-1.76,-2.28,2.28,2.60,2.51,0.46,0.52,0.51
238.26,-1.83,-2.34,-1.78,-2.30,2.30,2.61,2.52,0.47,0.52,0.51
240.64,-1.83,-2.34,-1.80,-2.32,2.32,2.62,2.52,0.49,0.52,0.51
243.05,-1.83,-2.34,-1.82,-2.33,2.33,2.63,2.52,0.51,0.52,0.52
245.48,-1.83,-2.34,-1.83,-2.35,2.35,2.64,2.52,0.52,0.52,0.52
247.93,-1.83,-2.35,-1.84,-2.36,2.36,2.65,2.52,0.53,0.52,0.53
250.41,-1.83,-2.35,-1.84,-2.37,2.37,2.66,2.52,0.54,0.52,0.52
252.92,-1.83,-2.36,-1.84,-2.37,2.37,2.67,2.52,0.55,0.53,0.53
255.45,-1.83,-2.38,-1.84,-2.38,2.38,2.68,2.51,0.55,0.54,0.55
258.00,-1.83,-2.38,-1.83,-2.37,2.37,2.70,2.51,0.55,0.55,0.55
260.58,-1.83,-2.38,-1.83,-2.38,2.38,2.71,2.50,0.56,0.56,0.55
263.19,-1.83,-2.39,-1.83,-2.39,2.39,2.72,2.50,0.57,0.57,0.57
265.82,-1.83,-2.40,-1.83,-2.41,2.41,2.73,2.49,0.58,0.58,0.57
268.48,-1.83,-2.42,-1.83,-2.42,2.42,2.74,2.48,0.59,0.59,0.59
271.16,-1.83,-2.43,-1.83,-2.44,2.44,2.75,2.48,0.61,0.61,0.60
273.87,-1.83,-2.44,-1.83,-2.45,2.45,2.76,2.47,0.63,0.63,0.62
276.61,-1.83,-2.48,-1.83,-2.47,2.47,2.78,2.46,0.65,0.65,0.65
279.38,-1.83,-2.49,-1.83,-2.50,2.50,2.79,2.45,0.67,0.67,0.67
282.17,-1.83,-2.52,-1.83,-2.52,2.52,2.80,2.44,0.69,0.69,0.69
284.99,-1.83,-2.54,-1.83,-2.54,2.54,2.81,2.43,0.72,0.72,0.71
287.84,-1.83,-2.56,-1.83,-2.57,2.57,2.82,2.43,0.74,0.74,0.74
290.72,-1.83,-2.60,-1.83,-2.60,2.60,2.83,2.42,0.77,0.77,0.77
293.63,-1.83,-2.62,-1.83,-2.62,2.62,2.84,2.41,0.80,0.80,0.80
296.57,-1.83,-2.65,-1.83,-2.65,2.65,2.85,2.40,0.82,0.82,0.82
299.53,-1.83,-2.67,-1.83,-2.67,2.67,2.86,2.40,0.84,0.84,0.85
302.53,-1.83,-2.69,-1.83,-2.69,2.69,2.87,2.39,0.87,0.87,0.86
305.55,-1.83,-2.72,-1.83,-2.71,2.71,2.88,2.39,0.88,0.88,0.90
308.61,-1.83,-2.74,-1.83,-2.73,2.73,2.89,2.39,0.90,0.90,0.91
311.69,-1.83,-2.76,-1.83,-2.74,2.74,2.90,2.39,0.92,0.92,0.93
314.81,-1.83,-2.78,-1.83,-2.76,2.76,2.91,2.39,0.93,0.93,0.96
317.96,-1.83,-2.78,-1.83,-2.77,2.77,2.92,2.39,0.94,0.94,0.95
321.14,-1.83,-2.77,-1.83,-2.78,2.78,2.93,2.39,0.95,0.95,0.95
324.35,-1.83,-2.78,-1.83,-2.79,2.79,2.94,2.39,0.96,0.96,0.95
327.59,-1.83,-2.79,-1.83,-2.79,2.79,2.95,2.40,0.97,0.97,0.96
330.87,-1.83,-2.79,-1.83,-2.80,2.80,2.96,2.41,0.98,0.98,0.97
334.18,-1.83,-2.80,-1.83,-2.81,2.81,2.96,2.42,0.99,0.99,0.97
337.52,-1.83,-2.81,-1.83,-2.82,2.82,2.97,2.43,1.00,1.00,0.98
340.90,-1.83,-2.83,-1.83,-2.84,2.84,2.98,2.44,1.01,1.01,1.01
344.30,-1.83,-2.84,-1.83,-2.85,2.85,2.99,2.45,1.02,1.02,1.02
347.75,-1.83,-2.86,-1.83,-2.87,2.87,2.99,2.47,1.04,1.04,1.03
351.23,-1.83,-2.89,-1.83,-2.89,2.89,3.00,2.49,1.06,1.06,1.06
354.74,-1.83,-2.90,-1.83,-2.91,2.91,3.01,2.51,1.08,1.08,1.08
358.28,-1.83,-2.93,-1.83,-2.93,2.93,3.01,2.53,1.10,1.10,1.11
361.87,-1.83,-2.95,-1.83,-2.95,2.95,3.02,2.55,1.13,1.13,1.12
365.49,-1.83,-2.98,-1.83,-2.98,2.98,3.02,2.58,1.15,1.15,1.15
369.14,-1.83,-3.00,-1.83,-3.00,3.00,3.03,2.61,1.17,1.17,1.17
372.83,-1.83,-3.02,-1.83,-3.02,3.02,3.03,2.63,1.19,1.19,1.20
376.56,-1.83,-3.04,-1.83,-3.04,3.04,3.04,2.66,1.21,1.21,1.21
380.33,-1.83,-3.07,-1.83,-3.06,3.06,3.04,2.70,1.23,1.23,1.24
384.13,-1.83,-3.09,-1.83,-3.07,3.07,3.05,2.73,1.25,1.25,1.26
387.97,-1.83,-3.10,-1.83,-3.09,3.09,3.05,2.77,1.26,1.26,1.27
391.85,-1.83,-3.10,-1.83,-3.10,3.10,3.05,2.80,1.28,1.28,1.28
395.77,-1.83,-3.11,-1.83,-3.11,3.11,3.06,2.84,1.29,1.29,1.29
399.73,-1.83,-3.12,-1.83,-3.12,3.12,3.06,2.88,1.30,1.30,1.29
403.72,-1.83,-3.13,-1.83,-3.13,3.13,3.06,2.92,1.31,1.31,1.30
407.76,-1.83,-3.14,-1.83,-3.14,3.14,3.06,2.96,1.31,1.31,1.31
411.84,-1.83,-3.15,-1.83,-3.14,3.14,3.06,3.00,1.32,1.32,1.32
415.96,-1.83,-3.16,-1.83,-3.15,3.15,3.06,3.04,1.32,1.32,1.33
420.12,-1.83,-3.15,-1.84,-3.16,3.16,3.07,3.09,1.33,1.32,1.33
424.32,-1.83,-3.15,-1.84,-3.17,3.17,3.07,3.13,1.34,1.32,1.33
428.56,-1.83,-3.15,-1.84,-3.17,3.17,3.07,3.17,1.34,1.33,1.33
432.85,-1.83,-3.15,-1.84,-3.17,3.17,3.07,3.21,1.34,1.33,1.32
437.18,-1.83,-3.16,-1.83,-3.16,3.16,3.07,3.25,1.34,1.33,1.33
441.55,-1.83,-3.17,-1.82,-3.16,3.16,3.06,3.29,1.33,1.34,1.34
445.96,-1.83,-3.17,-1.80,-3.15,3.15,3.06,3.33,1.32,1.35,1.34
450.42,-1.83,-3.18,-1.78,-3.14,3.14,3.06,3.37,1.31,1.35,1.35
454.93,-1.83,-3.19,-1.76,-3.13,3.13,3.06,3.40,1.30,1.36,1.36
459.48,-1.83,-3.19,-1.74,-3.12,3.12,3.06,3.43,1.29,1.38,1.37
464.07,-1.74,-3.12,-1.72,-3.11,3.11,3.05,3.46,1.38,1.39,1.39
468.71,-1.64,-3.04,-1.70,-3.11,3.11,3.05,3.49,1.47,1.41,1.41
473.40,-1.61,-3.02,-1.68,-3.11,3.11,3.05,3.51,1.50,1.43,1.42
