frequency,raw,error,smoothed,error_smoothed,equalization,parametric_eq,fixed_band_eq,equalized_raw,equalized_smoothed,target
20.00,-15.72,-21.53,-15.75,-21.58,21.58,24.96,8.96,5.87,5.83,5.81
20.20,-15.58,-21.43,-15.60,-21.46,21.46,24.71,9.13,5.88,5.86,5.85
20.40,-15.44,-21.33,-15.45,-21.34,21.34,24.44,9.31,5.89,5.89,5.88
20.61,-15.31,-21.22,-15.30,-21.21,21.21,24.16,9.49,5.90,5.92,5.91
20.81,-15.16,-21.12,-15.15,-21.09,21.09,23.87,9.68,5.92,5.94,5.95
21.02,-15.04,-21.03,-15.00,-20.96,20.96,23.58,9.87,5.93,5.96,5.99
21.23,-14.89,-20.89,-14.85,-20.84,20.84,23.28,10.07,5.95,5.99,6.00
21.44,-14.73,-20.76,-14.71,-20.71,20.71,22.98,10.27,5.98,6.01,6.02
21.66,-14.59,-20.63,-14.56,-20.59,20.59,22.68,10.47,6.00,6.02,6.04
21.87,-14.43,-20.48,-14.42,-20.46,20.46,22.39,10.68,6.03,6.04,6.05
22.09,-14.27,-20.34,-14.28,-20.34,20.34,22.09,10.90,6.06,6.06,6.06
22.31,-14.11,-20.18,-14.14,-20.21,20.21,21.80,11.12,6.09,6.07,6.06
22.54,-13.97,-20.04,-14.00,-20.08,20.08,21.51,11.35,6.11,6.08,6.07
22.76,-13.80,-19.89,-13.87,-19.95,19.95,21.23,11.59,6.15,6.09,6.08
22.99,-13.65,-19.73,-13.73,-19.83,19.83,20.94,11.83,6.18,6.10,6.08
23.22,-13.55,-19.64,-13.59,-19.70,19.70,20.67,12.07,6.15,6.10,6.09
23.45,-13.45,-19.55,-13.46,-19.56,19.56,20.40,12.33,6.12,6.11,6.10
23.69,-13.36,-19.47,-13.31,-19.43,19.43,20.13,12.59,6.07,6.11,6.11
23.92,-13.25,-19.38,-13.16,-19.28,19.28,19.87,12.86,6.03,6.12,6.12
24.16,-13.11,-19.25,-13.02,-19.14,19.14,19.61,13.14,6.02,6.12,6.13
24.40,-12.94,-19.08,-12.87,-19.00,19.00,19.36,13.42,6.05,6.12,6.14
24.65,-12.79,-18.92,-12.74,-18.86,18.86,19.12,13.71,6.08,6.13,6.13
24.89,-12.61,-18.74,-12.60,-18.73,18.73,18.88,14.02,6.12,6.13,6.13
25.14,-12.44,-18.58,-12.47,-18.60,18.60,18.64,14.33,6.15,6.13,6.13
25.39,-12.26,-18.39,-12.33,-18.46,18.46,18.41,14.65,6.20,6.13,6.13
25.65,-12.10,-18.23,-12.18,-18.32,18.32,18.18,14.97,6.22,6.13,6.13
25.91,-11.92,-18.03,-12.04,-18.17,18.17,17.96,15.31,6.25,6.13,6.11
26.16,-11.82,-17.94,-11.90,-18.02,18.02,17.74,15.66,6.21,6.13,6.12
26.43,-11.76,-17.88,-11.76,-17.89,17.89,17.52,16.02,6.13,6.12,6.12
26.69,-11.70,-17.82,-11.64,-17.76,17.76,17.31,16.38,6.06,6.12,6.12
26.96,-11.64,-17.76,-11.52,-17.64,17.64,17.11,16.76,6.00,6.12,6.12
27.23,-11.48,-17.60,-11.40,-17.51,17.51,16.91,17.14,6.04,6.12,6.12
27.50,-11.30,-17.42,-11.27,-17.39,17.39,16.71,17.53,6.09,6.11,6.12
27.77,-11.11,-17.23,-11.15,-17.26,17.26,16.51,17.92,6.15,6.11,6.11
28.05,-10.96,-17.07,-11.03,-17.14,17.14,16.32,18.32,6.18,6.11,6.11
28.33,-10.89,-16.98,-10.91,-17.02,17.02,16.13,18.72,6.13,6.11,6.09
28.62,-10.82,-16.92,-10.79,-16.90,16.90,15.95,19.11,6.08,6.11,6.10
28.90,-10.74,-16.84,-10.67,-16.77,16.77,15.77,19.49,6.04,6.10,6.10
29.19,-10.59,-16.68,-10.54,-16.64,16.64,15.59,19.86,6.06,6.10,6.09
29.48,-10.39,-16.50,-10.41,-16.51,16.51,15.41,20.21,6.11,6.10,6.10
29.78,-10.21,-16.31,-10.28,-16.37,16.37,15.24,20.52,6.17,6.09,6.10
30.08,-10.05,-16.15,-10.16,-16.25,16.25,15.07,20.79,6.20,6.09,6.10
30.38,-9.99,-16.07,-10.04,-16.12,16.12,14.91,21.01,6.13,6.08,6.08
30.68,-9.94,-16.02,-9.92,-15.99,15.99,14.74,21.18,6.06,6.08,6.08
30.99,-9.88,-15.95,-9.79,-15.86,15.86,14.58,21.27,5.99,6.07,6.07
31.30,-9.72,-15.79,-9.65,-15.72,15.72,14.42,21.30,6.01,6.07,6.07
31.61,-9.56,-15.63,-9.51,-15.58,15.58,14.26,21.25,6.02,6.06,6.07
31.93,-9.39,-15.44,-9.37,-15.43,15.43,14.11,21.14,6.04,6.06,6.05
32.24,-9.23,-15.28,-9.23,-15.28,15.28,13.96,20.96,6.05,6.05,6.04
32.57,-9.10,-15.14,-9.09,-15.14,15.14,13.81,20.72,6.04,6.05,6.04
32.89,-8.96,-15.01,-8.95,-14.99,14.99,13.66,20.44,6.03,6.04,6.04
33.22,-8.81,-14.85,-8.81,-14.85,14.85,13.52,20.13,6.04,6.04,6.04
33.55,-8.64,-14.68,-8.67,-14.70,14.70,13.38,19.78,6.06,6.03,6.03
33.89,-8.49,-14.52,-8.53,-14.56,14.56,13.24,19.42,6.07,6.03,6.03
34.23,-8.35,-14.38,-8.39,-14.41,14.41,13.10,19.04,6.06,6.02,6.03
34.57,-8.22,-14.24,-8.25,-14.27,14.27,12.96,18.66,6.05,6.02,6.02
34.92,-8.08,-14.09,-8.12,-14.13,14.13,12.82,18.27,6.06,6.01,6.01
35.27,-7.97,-13.98,-7.99,-14.00,14.00,12.69,17.89,6.03,6.01,6.01
35.62,-7.88,-13.88,-7.87,-13.87,13.87,12.56,17.51,5.99,6.00,6.00
35.97,-7.78,-13.77,-7.75,-13.74,13.74,12.43,17.13,5.97,6.00,5.99
36.33,-7.68,-13.67,-7.63,-13.62,13.62,12.30,16.76,5.95,5.99,5.99
36.70,-7.58,-13.57,-7.52,-13.50,13.50,12.18,16.40,5.93,5.98,5.99
37.06,-7.46,-13.44,-7.41,-13.39,13.39,12.05,16.05,5.92,5.98,5.97
37.43,-7.28,-13.26,-7.30,-13.27,13.27,11.93,15.71,5.98,5.97,5.97
37.81,-7.12,-13.08,-7.18,-13.14,13.14,11.81,15.38,6.03,5.96,5.96
38.19,-7.00,-12.95,-7.06,-13.01,13.01,11.69,15.06,6.02,5.96,5.95
38.57,-6.93,-12.88,-6.93,-12.88,12.88,11.57,14.75,5.96,5.95,5.95
38.95,-6.85,-12.80,-6.82,-12.76,12.76,11.45,14.45,5.90,5.94,5.94
39.34,-6.76,-12.69,-6.70,-12.64,12.64,11.34,14.15,5.88,5.94,5.93
39.74,-6.66,-12.57,-6.59,-12.52,12.52,11.22,13.87,5.86,5.93,5.91
40.14,-6.53,-12.45,-6.48,-12.40,12.40,11.11,13.59,5.88,5.92,5.92
40.54,-6.36,-12.27,-6.38,-12.29,12.29,11.00,13.33,5.94,5.91,5.91
40.94,-6.19,-12.10,-6.29,-12.19,12.19,10.89,13.07,6.00,5.90,5.91
41.35,-6.11,-12.00,-6.20,-12.08,12.08,10.78,12.82,5.98,5.88,5.89
41.76,-6.03,-11.90,-6.12,-11.98,11.98,10.67,12.57,5.95,5.87,5.87
42.18,-5.98,-11.84,-6.03,-11.87,11.87,10.56,12.34,5.90,5.85,5.86
42.60,-5.96,-11.79,-5.94,-11.76,11.76,10.46,12.11,5.80,5.82,5.83
43.03,-5.93,-11.75,-5.85,-11.64,11.64,10.35,11.89,5.72,5.80,5.82
43.46,-5.83,-11.62,-5.76,-11.53,11.53,10.25,11.67,5.71,5.77,5.79
43.90,-5.73,-11.47,-5.68,-11.42,11.42,10.15,11.46,5.69,5.75,5.74
44.33,-5.63,-11.34,-5.59,-11.31,11.31,10.05,11.26,5.69,5.72,5.71
44.78,-5.53,-11.21,-5.51,-11.20,11.20,9.95,11.06,5.68,5.69,5.68
45.23,-5.41,-11.06,-5.42,-11.08,11.08,9.85,10.87,5.67,5.67,5.65
45.68,-5.28,-10.90,-5.31,-10.95,10.95,9.75,10.68,5.67,5.64,5.62
46.13,-5.17,-10.77,-5.19,-10.81,10.81,9.65,10.50,5.65,5.62,5.60
46.60,-5.09,-10.68,-5.08,-10.68,10.68,9.56,10.33,5.59,5.60,5.59
47.06,-5.00,-10.57,-4.95,-10.54,10.54,9.46,10.16,5.54,5.58,5.57
47.53,-4.88,-10.45,-4.83,-10.40,10.40,9.37,9.99,5.52,5.57,5.57
48.01,-4.75,-10.32,-4.70,-10.27,10.27,9.27,9.83,5.52,5.56,5.57
48.49,-4.60,-10.15,-4.58,-10.14,10.14,9.18,9.68,5.55,5.56,5.55
48.97,-4.45,-9.99,-4.47,-10.02,10.02,9.09,9.52,5.58,5.55,5.54
49.46,-4.29,-9.82,-4.35,-9.91,9.91,9.00,9.38,5.62,5.55,5.53
49.96,-4.12,-9.65,-4.23,-9.78,9.78,8.91,9.23,5.67,5.55,5.53
50.46,-4.09,-9.63,-4.12,-9.66,9.66,8.82,9.09,5.57,5.54,5.54
50.96,-4.07,-9.62,-4.01,-9.54,9.54,8.73,8.96,5.48,5.54,5.55
51.47,-3.93,-9.47,-3.90,-9.43,9.43,8.65,8.82,5.50,5.52,5.54
51.99,-3.78,-9.30,-3.80,-9.31,9.31,8.56,8.69,5.53,5.51,5.52
52.51,-3.72,-9.23,-3.70,-9.19,9.19,8.47,8.56,5.48,5.49,5.51
53.03,-3.65,-9.13,-3.61,-9.07,9.07,8.39,8.44,5.43,5.46,5.48
53.56,-3.53,-8.98,-3.52,-8.95,8.95,8.31,8.32,5.42,5.43,5.45
54.10,-3.41,-8.82,-3.42,-8.82,8.82,8.22,8.20,5.41,5.40,5.41
54.64,-3.28,-8.64,-3.32,-8.68,8.68,8.14,8.09,5.40,5.36,5.36
55.18,-3.20,-8.51,-3.23,-8.54,8.54,8.06,7.97,5.34,5.31,5.31
55.74,-3.20,-8.46,-3.14,-8.40,8.40,7.98,7.86,5.20,5.26,5.26
56.29,-3.13,-8.34,-3.04,-8.25,8.25,7.90,7.75,5.12,5.21,5.21
56.86,-3.00,-8.15,-2.95,-8.10,8.10,7.82,7.64,5.10,5.15,5.15
57.42,-2.88,-7.96,-2.87,-7.96,7.96,7.74,7.54,5.09,5.09,5.08
58.00,-2.75,-7.77,-2.79,-7.82,7.82,7.66,7.43,5.08,5.03,5.02
58.58,-2.62,-7.58,-2.71,-7.68,7.68,7.58,7.33,5.06,4.97,4.96
59.16,-2.52,-7.43,-2.64,-7.54,7.54,7.51,7.23,5.03,4.91,4.91
59.76,-2.52,-7.37,-2.57,-7.41,7.41,7.43,7.13,4.89,4.84,4.85
60.35,-2.52,-7.30,-2.49,-7.28,7.28,7.35,7.03,4.76,4.78,4.78
60.96,-2.52,-7.25,-2.43,-7.15,7.15,7.28,6.93,4.63,4.72,4.73
61.57,-2.39,-7.05,-2.35,-7.02,7.02,7.20,6.84,4.63,4.66,4.66
62.18,-2.29,-6.88,-2.28,-6.88,6.88,7.13,6.74,4.60,4.61,4.59
62.80,-2.29,-6.84,-2.21,-6.76,6.76,7.06,6.65,4.47,4.55,4.55
63.43,-2.19,-6.68,-2.15,-6.65,6.65,6.99,6.55,4.46,4.50,4.49
64.07,-2.06,-6.51,-2.09,-6.54,6.54,6.91,6.46,4.48,4.45,4.45
64.71,-2.02,-6.42,-2.02,-6.43,6.43,6.84,6.37,4.41,4.41,4.40
65.35,-1.95,-6.30,-1.95,-6.32,6.32,6.77,6.27,4.37,4.36,4.35
66.01,-1.83,-6.15,-1.89,-6.21,6.21,6.70,6.18,4.38,4.32,4.32
66.67,-1.83,-6.11,-1.82,-6.10,6.10,6.63,6.09,4.28,4.29,4.28
67.33,-1.76,-6.01,-1.75,-6.00,6.00,6.56,6.00,4.24,4.25,4.25
68.01,-1.61,-5.83,-1.68,-5.90,5.90,6.49,5.91,4.29,4.22,4.22
68.69,-1.61,-5.80,-1.63,-5.81,5.81,6.43,5.83,4.21,4.19,4.19
69.37,-1.61,-5.76,-1.57,-5.73,5.73,6.36,5.74,4.12,4.16,4.15
70.07,-1.59,-5.71,-1.51,-5.64,5.64,6.29,5.65,4.05,4.13,4.12
70.77,-1.43,-5.54,-1.46,-5.56,5.56,6.22,5.57,4.13,4.10,4.11
71.48,-1.38,-5.45,-1.40,-5.47,5.47,6.16,5.49,4.09,4.07,4.07
72.19,-1.38,-5.43,-1.34,-5.38,5.38,6.09,5.40,4.01,4.04,4.05
72.91,-1.38,-5.39,-1.29,-5.30,5.30,6.03,5.32,3.92,4.01,4.01
73.64,-1.23,-5.21,-1.24,-5.22,5.22,5.96,5.25,3.99,3.98,3.98
74.38,-1.15,-5.10,-1.19,-5.14,5.14,5.90,5.17,4.00,3.95,3.95
75.12,-1.15,-5.07,-1.15,-5.07,5.07,5.84,5.09,3.92,3.92,3.92
75.87,-1.15,-5.04,-1.11,-5.00,5.00,5.77,5.02,3.85,3.89,3.89
76.63,-1.04,-4.90,-1.06,-4.92,4.92,5.71,4.94,3.88,3.86,3.86
77.40,-0.95,-4.78,-1.01,-4.85,4.85,5.65,4.87,3.90,3.84,3.83
78.17,-0.92,-4.72,-0.97,-4.78,4.78,5.59,4.80,3.86,3.81,3.80
78.95,-0.92,-4.71,-0.93,-4.72,4.72,5.53,4.73,3.80,3.79,3.79
79.74,-0.92,-4.69,-0.89,-4.66,4.66,5.47,4.67,3.75,3.77,3.77
80.54,-0.92,-4.67,-0.85,-4.61,4.61,5.41,4.60,3.69,3.76,3.75
81.35,-0.92,-4.65,-0.82,-4.56,4.56,5.35,4.54,3.65,3.75,3.73
82.16,-0.87,-4.60,-0.80,-4.54,4.54,5.29,4.48,3.67,3.74,3.73
82.98,-0.69,-4.42,-0.79,-4.51,4.51,5.23,4.42,3.83,3.73,3.73
83.81,-0.69,-4.41,-0.76,-4.49,4.49,5.17,4.36,3.80,3.73,3.72
84.65,-0.69,-4.40,-0.74,-4.46,4.46,5.11,4.31,3.78,3.72,3.71
85.50,-0.69,-4.41,-0.72,-4.45,4.45,5.05,4.26,3.76,3.72,3.72
86.35,-0.69,-4.41,-0.70,-4.42,4.42,5.00,4.20,3.74,3.72,3.72
87.22,-0.69,-4.41,-0.67,-4.40,4.40,4.94,4.15,3.71,3.73,3.72
88.09,-0.69,-4.41,-0.64,-4.37,4.37,4.88,4.11,3.68,3.73,3.72
88.97,-0.69,-4.43,-0.62,-4.34,4.34,4.83,4.06,3.66,3.73,3.74
89.86,-0.69,-4.43,-0.59,-4.32,4.32,4.77,4.02,3.63,3.73,3.74
90.76,-0.67,-4.39,-0.58,-4.30,4.30,4.72,3.97,3.63,3.72,3.72
91.66,-0.54,-4.27,-0.56,-4.28,4.28,4.66,3.93,3.74,3.72,3.73
92.58,-0.47,-4.17,-0.55,-4.26,4.26,4.61,3.90,3.79,3.71,3.70
93.51,-0.47,-4.18,-0.53,-4.23,4.23,4.56,3.86,3.76,3.70,3.71
94.44,-0.47,-4.16,-0.51,-4.20,4.20,4.50,3.82,3.73,3.69,3.69
95.39,-0.47,-4.15,-0.49,-4.16,4.16,4.45,3.79,3.70,3.67,3.68
96.34,-0.47,-4.11,-0.48,-4.13,4.13,4.40,3.76,3.66,3.65,3.64
97.30,-0.47,-4.09,-0.46,-4.09,4.09,4.35,3.73,3.63,3.63,3.62
98.28,-0.47,-4.07,-0.45,-4.06,4.06,4.30,3.70,3.59,3.61,3.60
99.26,-0.47,-4.04,-0.45,-4.03,4.03,4.24,3.67,3.56,3.58,3.57
100.25,-0.47,-4.01,-0.44,-3.98,3.98,4.19,3.64,3.52,3.54,3.54
101.25,-0.47,-3.98,-0.44,-3.94,3.94,4.14,3.62,3.48,3.51,3.51
102.27,-0.47,-3.94,-0.44,-3.91,3.91,4.10,3.59,3.44,3.47,3.47
103.29,-0.47,-3.89,-0.45,-3.87,3.87,4.05,3.57,3.41,3.42,3.42
104.32,-0.47,-3.85,-0.46,-3.83,3.83,4.00,3.55,3.36,3.37,3.38
105.37,-0.47,-3.80,-0.47,-3.79,3.79,3.95,3.53,3.32,3.32,3.33
106.42,-0.47,-3.75,-0.49,-3.75,3.75,3.90,3.51,3.28,3.26,3.28
107.48,-0.47,-3.68,-0.50,-3.70,3.70,3.86,3.49,3.24,3.20,3.21
108.56,-0.47,-3.60,-0.52,-3.65,3.65,3.81,3.47,3.19,3.13,3.13
109.64,-0.47,-3.53,-0.54,-3.61,3.61,3.76,3.45,3.14,3.06,3.06
110.74,-0.47,-3.47,-0.56,-3.55,3.55,3.72,3.43,3.08,2.99,3.00
111.85,-0.66,-3.59,-0.57,-3.49,3.49,3.67,3.42,2.83,2.92,2.93
112.97,-0.69,-3.53,-0.59,-3.43,3.43,3.63,3.40,2.75,2.85,2.84
114.10,-0.69,-3.47,-0.61,-3.39,3.39,3.59,3.38,2.70,2.78,2.78
115.24,-0.69,-3.39,-0.63,-3.34,3.34,3.54,3.36,2.66,2.71,2.70
116.39,-0.69,-3.31,-0.66,-3.30,3.30,3.50,3.34,2.62,2.64,2.62
117.55,-0.69,-3.25,-0.69,-3.27,3.27,3.46,3.32,2.58,2.58,2.56
118.73,-0.69,-3.18,-0.72,-3.24,3.24,3.42,3.30,2.55,2.52,2.49
119.92,-0.69,-3.14,-0.75,-3.21,3.21,3.38,3.28,2.52,2.46,2.45
121.12,-0.69,-3.08,-0.77,-3.18,3.18,3.34,3.26,2.50,2.41,2.39
122.33,-0.69,-3.04,-0.79,-3.16,3.16,3.30,3.24,2.47,2.37,2.35
123.55,-0.79,-3.12,-0.80,-3.12,3.12,3.26,3.22,2.34,2.32,2.33
124.79,-0.91,-3.20,-0.81,-3.09,3.09,3.22,3.19,2.18,2.28,2.29
126.03,-0.92,-3.17,-0.83,-3.07,3.07,3.18,3.17,2.16,2.25,2.25
127.29,-0.92,-3.14,-0.85,-3.07,3.07,3.14,3.14,2.15,2.21,2.22
128.57,-0.92,-3.10,-0.88,-3.06,3.06,3.11,3.12,2.14,2.18,2.18
129.85,-0.92,-3.07,-0.91,-3.06,3.06,3.07,3.09,2.14,2.15,2.15
131.15,-0.92,-3.04,-0.94,-3.06,3.06,3.03,3.06,2.14,2.12,2.12
132.46,-0.92,-3.01,-0.97,-3.05,3.05,3.00,3.04,2.14,2.08,2.09
133.79,-0.92,-2.98,-1.00,-3.05,3.05,2.96,3.01,2.13,2.05,2.06
135.12,-0.93,-2.94,-1.02,-3.04,3.04,2.93,2.98,2.11,2.02,2.01
136.48,-0.98,-2.96,-1.04,-3.03,3.03,2.90,2.95,2.05,1.99,1.98
137.84,-1.13,-3.08,-1.05,-3.00,3.00,2.87,2.92,1.88,1.95,1.95
139.22,-1.15,-3.05,-1.07,-2.98,2.98,2.84,2.89,1.84,1.91,1.90
140.61,-1.15,-3.00,-1.08,-2.95,2.95,2.80,2.85,1.81,1.88,1.85
142.02,-1.15,-2.98,-1.09,-2.93,2.93,2.77,2.82,1.78,1.83,1.83
143.44,-1.15,-2.94,-1.11,-2.90,2.90,2.74,2.79,1.75,1.79,1.79
144.87,-1.15,-2.90,-1.13,-2.87,2.87,2.72,2.76,1.72,1.74,1.75
146.32,-1.15,-2.85,-1.15,-2.83,2.83,2.69,2.73,1.69,1.68,1.70
147.78,-1.15,-2.81,-1.17,-2.79,2.79,2.66,2.70,1.65,1.62,1.66
149.26,-1.15,-2.74,-1.19,-2.75,2.75,2.63,2.67,1.60,1.56,1.59
150.75,-1.15,-2.66,-1.20,-2.70,2.70,2.61,2.65,1.55,1.49,1.51
152.26,-1.15,-2.59,-1.22,-2.64,2.64,2.58,2.62,1.49,1.42,1.44
153.78,-1.15,-2.52,-1.22,-2.57,2.57,2.56,2.59,1.43,1.35,1.37
155.32,-1.20,-2.47,-1.24,-2.52,2.52,2.54,2.57,1.32,1.28,1.27
156.88,-1.36,-2.56,-1.26,-2.47,2.47,2.51,2.54,1.11,1.21,1.20
158.44,-1.38,-2.51,-1.28,-2.42,2.42,2.49,2.52,1.05,1.14,1.13
160.03,-1.38,-2.43,-1.31,-2.39,2.39,2.47,2.50,1.01,1.07,1.05
161.63,-1.38,-2.37,-1.35,-2.36,2.36,2.45,2.48,0.99,1.02,0.99
163.24,-1.38,-2.32,-1.38,-2.34,2.34,2.43,2.46,0.97,0.96,0.94
164.88,-1.38,-2.28,-1.41,-2.33,2.33,2.41,2.44,0.96,0.92,0.90
166.53,-1.38,-2.24,-1.44,-2.33,2.33,2.39,2.42,0.95,0.89,0.86
168.19,-1.38,-2.21,-1.47,-2.33,2.33,2.38,2.40,0.96,0.86,0.83
169.87,-1.43,-2.25,-1.50,-2.34,2.34,2.36,2.39,0.91,0.84,0.82
171.57,-1.57,-2.38,-1.52,-2.35,2.35,2.34,2.38,0.78,0.83,0.81
173.29,-1.61,-2.42,-1.54,-2.36,2.36,2.33,2.37,0.75,0.82,0.81
175.02,-1.61,-2.44,-1.55,-2.37,2.37,2.31,2.36,0.76,0.82,0.83
176.77,-1.61,-2.43,-1.57,-2.38,2.38,2.30,2.35,0.78,0.82,0.82
178.54,-1.61,-2.44,-1.58,-2.40,2.40,2.29,2.34,0.80,0.82,0.83
180.32,-1.61,-2.45,-1.60,-2.42,2.42,2.28,2.33,0.81,0.82,0.84
182.13,-1.61,-2.45,-1.61,-2.43,2.43,2.27,2.33,0.82,0.82,0.84
183.95,-1.61,-2.45,-1.62,-2.44,2.44,2.26,2.33,0.83,0.82,0.84
185.79,-1.61,-2.44,-1.62,-2.43,2.43,2.25,2.33,0.83,0.81,0.83
187.65,-1.61,-2.42,-1.62,-2.43,2.43,2.24,2.33,0.82,0.80,0.81
189.52,-1.61,-2.40,-1.62,-2.41,2.41,2.23,2.33,0.80,0.79,0.79
191.42,-1.61,-2.38,-1.61,-2.39,2.39,2.22,2.33,0.78,0.78,0.77
193.33,-1.61,-2.36,-1.61,-2.37,2.37,2.22,2.33,0.76,0.76,0.75
195.27,-1.61,-2.36,-1.61,-2.35,2.35,2.21,2.34,0.74,0.74,0.75
197.22,-1.61,-2.34,-1.61,-2.33,2.33,2.20,2.34,0.73,0.73,0.73
199.19,-1.61,-2.30,-1.61,-2.31,2.31,2.20,2.35,0.71,0.71,0.69
201.18,-1.61,-2.30,-1.61,-2.30,2.30,2.20,2.36,0.69,0.69,0.69
203.19,-1.61,-2.28,-1.61,-2.28,2.28,2.19,2.37,0.67,0.67,0.67
205.23,-1.61,-2.25,-1.61,-2.26,2.26,2.19,2.38,0.65,0.65,0.64
207.28,-1.61,-2.25,-1.60,-2.23,2.23,2.19,2.39,0.63,0.63,0.64
209.35,-1.61,-2.23,-1.59,-2.21,2.21,2.19,2.40,0.60,0.62,0.62
211.44,-1.61,-2.20,-1.59,-2.19,2.19,2.19,2.41,0.59,0.60,0.59
213.56,-1.61,-2.20,-1.59,-2.18,2.18,2.19,2.43,0.58,0.59,0.59
215.69,-1.61,-2.20,-1.60,-2.18,2.18,2.19,2.44,0.57,0.58,0.59
217.85,-1.61,-2.17,-1.61,-2.17,2.17,2.19,2.45,0.57,0.56,0.56
220.03,-1.61,-2.16,-1.62,-2.18,2.18,2.20,2.47,0.57,0.55,0.55
222.23,-1.61,-2.14,-1.64,-2.18,2.18,2.20,2.48,0.58,0.54,0.53
224.45,-1.61,-2.14,-1.66,-2.19,2.19,2.20,2.49,0.59,0.53,0.53
226.70,-1.61,-2.14,-1.68,-2.21,2.21,2.21,2.50,0.60,0.53,0.53
228.96,-1.61,-2.13,-1.70,-2.22,2.22,2.21,2.52,0.61,0.52,0.52
231.25,-1.78,-2.30,-1.72,-2.24,2.24,2.22,2.53,0.46,0.51,0.52
233.57,-1.83,-2.34,-1.74,-2.25,2.25,2.22,2.54,0.43,0.51,0.51
235.90,-1.83,-2.33,-1.76,-2.27,2.27,2.23,2.55,0.45,0.51,0.50
238.26,-1.83,-2.33,-1.78,-2.29,2.29,2.24,2.55,0.47,0.51,0.50
240.64,-1.83,-2.33,-1.80,-2.31,2.31,2.24,2.56,0.48,0.51,0.50
243.05,-1.83,-2.34,-1.82,-2.33,2.33,2.25,2.57,0.50,0.51,0.51
245.48,-1.83,-2.35,-1.83,-2.35,2.35,2.26,2.57,0.52,0.52,0.52
247.93,-1.83,-2.36,-1.84,-2.36,2.36,2.27,2.57,0.53,0.52,0.53
250.41,-1.83,-2.35,-1.84,-2.37,2.37,2.28,2.58,0.54,0.53,0.52
252.92,-1.83,-2.36,-1.84,-2.38,2.38,2.29,2.58,0.55,0.53,0.53
255.45,-1.83,-2.39,-1.84,-2.38,2.38,2.30,2.58,0.56,0.54,0.56
258.00,-1.83,-2.39,-1.83,-2.38,2.38,2.31,2.57,0.56,0.55,0.56
260.58,-1.83,-2.39,-1.83,-2.39,2.39,2.32,2.57,0.57,0.57,0.56
263.19,-1.83,-2.41,-1.83,-2.40,2.40,2.33,2.57,0.58,0.58,0.58
265.82,-1.83,-2.41,-1.83,-2.42,2.42,2.34,2.56,0.59,0.59,0.58
268.48,-1.83,-2.44,-1.83,-2.44,2.44,2.36,2.56,0.61,0.61,0.61
271.16,-1.83,-2.45,-1.83,-2.45,2.45,2.37,2.55,0.63,0.63,0.62
273.87,-1.83,-2.46,-1.83,-2.47,2.47,2.38,2.54,0.65,0.65,0.63
276.61,-1.83,-2.50,-1.83,-2.49,2.49,2.39,2.53,0.67,0.67,0.67
279.38,-1.83,-2.51,-1.83,-2.52,2.52,2.41,2.53,0.69,0.69,0.68
282.17,-1.83,-2.54,-1.83,-2.54,2.54,2.42,2.52,0.71,0.71,0.71
284.99,-1.83,-2.57,-1.83,-2.57,2.57,2.43,2.51,0.74,0.74,0.74
287.84,-1.83,-2.59,-1.83,-2.60,2.60,2.45,2.50,0.77,0.77,0.76
290.72,-1.83,-2.63,-1.83,-2.62,2.62,2.46,2.49,0.80,0.80,0.80
293.63,-1.83,-2.65,-1.83,-2.65,2.65,2.48,2.48,0.82,0.82,0.82
296.57,-1.83,-2.68,-1.83,-2.68,2.68,2.49,2.48,0.85,0.85,0.85
299.53,-1.83,-2.71,-1.83,-2.70,2.70,2.51,2.47,0.87,0.87,0.88
302.53,-1.83,-2.72,-1.83,-2.72,2.72,2.52,2.46,0.90,0.90,0.89
305.55,-1.83,-2.76,-1.83,-2.74,2.74,2.54,2.46,0.92,0.92,0.93
308.61,-1.83,-2.78,-1.83,-2.76,2.76,2.55,2.46,0.94,0.94,0.95
311.69,-1.83,-2.79,-1.83,-2.78,2.78,2.57,2.45,0.95,0.95,0.96
314.81,-1.83,-2.82,-1.83,-2.79,2.79,2.58,2.45,0.97,0.97,0.99
317.96,-1.83,-2.82,-1.83,-2.80,2.80,2.60,2.45,0.98,0.98,0.99
321.14,-1.83,-2.81,-1.83,-2.81,2.81,2.61,2.45,0.99,0.99,0.98
324.35,-1.83,-2.82,-1.83,-2.82,2.82,2.63,2.46,1.00,1.00,0.99
327.59,-1.83,-2.83,-1.83,-2.83,2.83,2.64,2.46,1.01,1.01,1.00
330.87,-1.83,-2.84,-1.83,-2.84,2.84,2.66,2.47,1.02,1.02,1.01
334.18,-1.83,-2.84,-1.83,-2.85,2.85,2.68,2.48,1.03,1.03,1.01
337.52,-1.83,-2.85,-1.83,-2.87,2.87,2.69,2.49,1.04,1.04,1.02
340.90,-1.83,-2.88,-1.83,-2.88,2.88,2.71,2.50,1.05,1.05,1.05
344.30,-1.83,-2.89,-1.83,-2.89,2.89,2.72,2.51,1.07,1.07,1.06
347.75,-1.83,-2.90,-1.83,-2.91,2.91,2.74,2.53,1.08,1.08,1.07
351.23,-1.83,-2.93,-1.83,-2.93,2.93,2.76,2.54,1.10,1.10,1.10
354.74,-1.83,-2.95,-1.83,-2.95,2.95,2.77,2.56,1.13,1.13,1.12
358.28,-1.83,-2.98,-1.83,-2.97,2.97,2.79,2.59,1.15,1.15,1.15
361.87,-1.83,-3.00,-1.83,-3.00,3.00,2.80,2.61,1.17,1.17,1.17
365.49,-1.83,-3.02,-1.83,-3.02,3.02,2.82,2.63,1.19,1.19,1.19
369.14,-1.83,-3.04,-1.83,-3.04,3.04,2.83,2.66,1.22,1.22,1.21
372.83,-1.83,-3.07,-1.83,-3.06,3.06,2.85,2.69,1.24,1.24,1.24
376.56,-1.83,-3.09,-1.83,-3.08,3.08,2.87,2.72,1.26,1.26,1.26
380.33,-1.83,-3.12,-1.83,-3.10,3.10,2.88,2.75,1.28,1.28,1.29
384.13,-1.83,-3.14,-1.83,-3.12,3.12,2.90,2.78,1.29,1.29,1.31
387.97,-1.83,-3.15,-1.83,-3.14,3.14,2.91,2.82,1.31,1.31,1.32
391.85,-1.83,-3.15,-1.83,-3.15,3.15,2.93,2.86,1.33,1.33,1.32
395.77,-1.83,-3.16,-1.83,-3.16,3.16,2.94,2.89,1.34,1.34,1.33
399.73,-1.83,-3.17,-1.83,-3.17,3.17,2.96,2.93,1.35,1.35,1.34
403.72,-1.83,-3.18,-1.83,-3.18,3.18,2.97,2.97,1.36,1.36,1.35
407.76,-1.83,-3.19,-1.83,-3.19,3.19,2.99,3.02,1.36,1.36,1.36
411.84,-1.83,-3.20,-1.83,-3.19,3.19,3.00,3.06,1.37,1.37,1.37
415.96,-1.83,-3.21,-1.83,-3.20,3.20,3.01,3.10,1.37,1.37,1.38
420.12,-1.83,-3.21,-1.84,-3.21,3.21,3.03,3.14,1.38,1.37,1.38
424.32,-1.83,-3.21,-1.84,-3.22,3.22,3.04,3.18,1.39,1.37,1.38
428.56,-1.83,-3.21,-1.84,-3.22,3.22,3.06,3.23,1.39,1.38,1.38
432.85,-1.83,-3.20,-1.84,-3.22,3.22,3.07,3.27,1.39,1.38,1.37
437.18,-1.83,-3.21,-1.83,-3.21,3.21,3.08,3.31,1.39,1.39,1.38
441.55,-1.83,-3.22,-1.82,-3.21,3.21,3.09,3.35,1.38,1.39,1.39
445.96,-1.83,-3.22,-1.80,-3.20,3.20,3.11,3.39,1.37,1.40,1.39
450.42,-1.83,-3.23,-1.78,-3.19,3.19,3.12,3.43,1.36,1.41,1.40
454.93,-1.83,-3.24,-1.76,-3.18,3.18,3.13,3.46,1.35,1.42,1.41
459.48,-1.83,-3.25,-1.74,-3.17,3.17,3.14,3.49,1.35,1.43,1.42
464.07,-1.74,-3.18,-1.72,-3.17,3.17,3.16,3.52,1.43,1.44,1.44
468.71,-1.64,-3.10,-1.70,-3.16,3.16,3.17,3.55,1.53,1.46,1.46
473.40,-1.61,-3.08,-1.68,-3.16,3.16,3.18,3.58,1.55,1.48,1.47
