frequency,raw,error,smoothed,error_smoothed,equalization,parametric_eq,fixed_band_eq,equalized_raw,equalized_smoothed,target
20.00,-15.72,-21.53,-15.71,-21.52,21.53,21.95,8.94,5.81,5.81,5.81
20.20,-15.58,-21.43,-15.58,-21.43,21.43,21.79,9.11,5.86,5.85,5.85
20.40,-15.44,-21.33,-15.44,-21.33,21.33,21.63,9.29,5.89,5.89,5.88
20.61,-15.31,-21.22,-15.31,-21.23,21.23,21.47,9.47,5.92,5.92,5.91
20.81,-15.16,-21.12,-15.17,-21.12,21.12,21.32,9.66,5.95,5.95,5.95
21.02,-15.04,-21.03,-15.03,-21.01,21.00,21.16,9.85,5.97,5.97,5.99
21.23,-14.89,-20.89,-14.89,-20.89,20.88,21.01,10.04,5.99,6.00,6.00
21.44,-14.73,-20.76,-14.74,-20.76,20.75,20.87,10.24,6.02,6.02,6.02
21.66,-14.59,-20.63,-14.59,-20.62,20.62,20.72,10.45,6.03,6.03,6.04
21.87,-14.43,-20.48,-14.43,-20.48,20.47,20.58,10.66,6.04,6.04,6.05
22.09,-14.27,-20.34,-14.28,-20.34,20.32,20.43,10.88,6.05,6.05,6.06
22.31,-14.11,-20.18,-14.12,-20.18,20.18,20.29,11.10,6.06,6.06,6.06
22.54,-13.97,-20.04,-13.96,-20.03,20.04,20.15,11.33,6.07,6.08,6.07
22.76,-13.80,-19.89,-13.80,-19.88,19.91,20.02,11.56,6.10,6.11,6.08
22.99,-13.65,-19.73,-13.66,-19.75,19.79,19.88,11.80,6.14,6.12,6.08
23.22,-13.55,-19.64,-13.54,-19.64,19.67,19.74,12.05,6.13,6.13,6.09
23.45,-13.45,-19.55,-13.45,-19.55,19.56,19.61,12.31,6.11,6.11,6.10
23.69,-13.36,-19.47,-13.36,-19.47,19.45,19.48,12.57,6.09,6.09,6.11
23.92,-13.25,-19.38,-13.24,-19.37,19.33,19.35,12.84,6.07,6.09,6.12
24.16,-13.11,-19.25,-13.11,-19.24,19.20,19.22,13.11,6.09,6.09,6.13
24.40,-12.94,-19.08,-12.95,-19.09,19.06,19.09,13.40,6.12,6.11,6.14
24.65,-12.79,-18.92,-12.79,-18.92,18.90,18.96,13.69,6.12,6.12,6.13
24.89,-12.61,-18.74,-12.61,-18.75,18.74,18.83,13.99,6.12,6.12,6.13
25.14,-12.44,-18.58,-12.44,-18.57,18.57,18.70,14.30,6.12,6.12,6.13
25.39,-12.26,-18.39,-12.26,-18.39,18.41,18.57,14.62,6.14,6.14,6.13
25.65,-12.10,-18.23,-12.09,-18.21,18.26,18.44,14.95,6.16,6.17,6.13
25.91,-11.92,-18.03,-11.94,-18.06,18.13,18.32,15.29,6.21,6.19,6.11
26.16,-11.82,-17.94,-11.83,-17.95,18.01,18.19,15.64,6.19,6.18,6.12
26.43,-11.76,-17.88,-11.76,-17.88,17.88,18.06,16.00,6.13,6.13,6.12
26.69,-11.70,-17.82,-11.70,-17.82,17.76,17.94,16.36,6.07,6.06,6.12
26.96,-11.64,-17.76,-11.61,-17.73,17.64,17.81,16.74,6.01,6.03,6.12
27.23,-11.48,-17.60,-11.47,-17.59,17.53,17.68,17.12,6.05,6.05,6.12
27.50,-11.30,-17.42,-11.30,-17.42,17.41,17.56,17.51,6.12,6.12,6.12
27.77,-11.11,-17.23,-11.12,-17.23,17.30,17.43,17.90,6.18,6.18,6.11
28.05,-10.96,-17.07,-10.98,-17.09,17.17,17.30,18.30,6.21,6.19,6.11
28.33,-10.89,-16.98,-10.89,-16.99,17.03,17.17,18.69,6.14,6.14,6.09
28.62,-10.82,-16.92,-10.81,-16.91,16.88,17.05,19.09,6.06,6.07,6.10
28.90,-10.74,-16.84,-10.72,-16.81,16.74,16.92,19.47,6.00,6.02,6.10
29.19,-10.59,-16.68,-10.58,-16.67,16.61,16.79,19.84,6.02,6.03,6.09
29.48,-10.39,-16.50,-10.39,-16.49,16.49,16.66,20.18,6.10,6.10,6.10
29.78,-10.21,-16.31,-10.21,-16.31,16.38,16.53,20.50,6.17,6.16,6.10
30.08,-10.05,-16.15,-10.08,-16.17,16.25,16.40,20.77,6.20,6.18,6.10
30.38,-9.99,-16.07,-9.99,-16.08,16.12,16.27,20.99,6.14,6.13,6.08
30.68,-9.94,-16.02,-9.93,-16.01,15.99,16.14,21.15,6.06,6.06,6.08
30.99,-9.88,-15.95,-9.85,-15.92,15.86,16.01,21.25,5.98,6.01,6.07
31.30,-9.72,-15.79,-9.72,-15.79,15.73,15.88,21.27,6.01,6.01,6.07
31.61,-9.56,-15.63,-9.56,-15.63,15.60,15.74,21.23,6.05,6.04,6.07
31.93,-9.39,-15.44,-9.39,-15.45,15.47,15.61,21.11,6.08,6.07,6.05
32.24,-9.23,-15.28,-9.24,-15.29,15.32,15.48,20.93,6.08,6.07,6.04
32.57,-9.10,-15.14,-9.10,-15.14,15.16,15.35,20.70,6.06,6.06,6.04
32.89,-8.96,-15.01,-8.96,-14.99,14.99,15.21,20.42,6.03,6.04,6.04
33.22,-8.81,-14.85,-8.80,-14.84,14.83,15.08,20.10,6.02,6.02,6.04
33.55,-8.64,-14.68,-8.65,-14.68,14.67,14.94,19.76,6.03,6.03,6.03
33.89,-8.49,-14.52,-8.49,-14.52,14.52,14.81,19.39,6.04,6.03,6.03
34.23,-8.35,-14.38,-8.35,-14.37,14.38,14.67,19.02,6.04,6.04,6.03
34.57,-8.22,-14.24,-8.21,-14.23,14.25,14.54,18.63,6.03,6.04,6.02
34.92,-8.08,-14.09,-8.09,-14.10,14.12,14.40,18.24,6.04,6.04,6.01
35.27,-7.97,-13.98,-7.97,-13.98,14.00,14.27,17.86,6.03,6.03,6.01
35.62,-7.88,-13.88,-7.87,-13.87,13.88,14.13,17.48,6.01,6.01,6.00
35.97,-7.78,-13.77,-7.78,-13.77,13.76,13.99,17.10,5.99,5.99,5.99
36.33,-7.68,-13.67,-7.68,-13.67,13.64,13.86,16.74,5.96,5.95,5.99
36.70,-7.58,-13.57,-7.57,-13.56,13.51,13.72,16.38,5.93,5.94,5.99
37.06,-7.46,-13.44,-7.44,-13.42,13.39,13.58,16.03,5.92,5.95,5.97
37.43,-7.28,-13.26,-7.29,-13.25,13.26,13.45,15.68,5.98,5.98,5.97
37.81,-7.12,-13.08,-7.13,-13.09,13.14,13.31,15.35,6.03,6.01,5.96
38.19,-7.00,-12.95,-7.01,-12.97,13.02,13.17,15.03,6.02,6.01,5.95
38.57,-6.93,-12.88,-6.92,-12.87,12.90,13.03,14.72,5.97,5.98,5.95
38.95,-6.85,-12.80,-6.85,-12.78,12.77,12.90,14.42,5.91,5.92,5.94
39.34,-6.76,-12.69,-6.76,-12.69,12.64,12.76,14.12,5.89,5.88,5.93
39.74,-6.66,-12.57,-6.65,-12.57,12.51,12.63,13.84,5.86,5.86,5.91
40.14,-6.53,-12.45,-6.51,-12.43,12.39,12.49,13.56,5.87,5.89,5.92
40.54,-6.36,-12.27,-6.36,-12.27,12.28,12.35,13.29,5.92,5.92,5.91
40.94,-6.19,-12.10,-6.21,-12.12,12.17,12.22,13.03,5.98,5.95,5.91
41.35,-6.11,-12.00,-6.10,-11.99,12.06,12.08,12.78,5.95,5.96,5.89
41.76,-6.03,-11.90,-6.03,-11.90,11.95,11.95,12.54,5.93,5.93,5.87
42.18,-5.98,-11.84,-5.99,-11.85,11.86,11.81,12.30,5.88,5.87,5.86
42.60,-5.96,-11.79,-5.95,-11.79,11.76,11.68,12.07,5.81,5.81,5.83
43.03,-5.93,-11.75,-5.90,-11.72,11.67,11.54,11.85,5.74,5.76,5.82
43.46,-5.83,-11.62,-5.83,-11.61,11.57,11.41,11.63,5.74,5.74,5.79
43.90,-5.73,-11.47,-5.73,-11.48,11.46,11.28,11.42,5.73,5.72,5.74
44.33,-5.63,-11.34,-5.63,-11.34,11.34,11.14,11.22,5.71,5.71,5.71
44.78,-5.53,-11.21,-5.52,-11.20,11.21,11.01,11.02,5.68,5.69,5.68
45.23,-5.41,-11.06,-5.40,-11.05,11.08,10.88,10.83,5.67,5.68,5.65
45.68,-5.28,-10.90,-5.28,-10.91,10.94,10.75,10.65,5.67,5.66,5.62
46.13,-5.17,-10.77,-5.18,-10.78,10.81,10.62,10.46,5.65,5.63,5.60
46.60,-5.09,-10.68,-5.08,-10.67,10.68,10.49,10.29,5.59,5.60,5.59
47.06,-5.00,-10.57,-4.99,-10.57,10.54,10.36,10.12,5.54,5.55,5.57
47.53,-4.88,-10.45,-4.88,-10.45,10.40,10.23,9.95,5.53,5.52,5.57
48.01,-4.75,-10.32,-4.74,-10.31,10.26,10.10,9.79,5.52,5.52,5.57
48.49,-4.60,-10.15,-4.60,-10.15,10.13,9.98,9.63,5.54,5.53,5.55
48.97,-4.45,-9.99,-4.43,-9.97,10.00,9.85,9.48,5.56,5.57,5.54
49.46,-4.29,-9.82,-4.28,-9.81,9.88,9.72,9.33,5.59,5.60,5.53
49.96,-4.12,-9.65,-4.17,-9.70,9.76,9.60,9.19,5.64,5.59,5.53
50.46,-4.09,-9.63,-4.09,-9.63,9.64,9.47,9.05,5.56,5.55,5.54
50.96,-4.07,-9.62,-4.01,-9.55,9.54,9.35,8.91,5.47,5.52,5.55
51.47,-3.93,-9.47,-3.93,-9.47,9.43,9.22,8.78,5.50,5.50,5.54
51.99,-3.78,-9.30,-3.82,-9.35,9.32,9.10,8.65,5.54,5.50,5.52
52.51,-3.72,-9.23,-3.71,-9.22,9.21,8.98,8.52,5.49,5.49,5.51
53.03,-3.65,-9.13,-3.63,-9.11,9.09,8.86,8.39,5.45,5.47,5.48
53.56,-3.53,-8.98,-3.53,-8.98,8.97,8.73,8.27,5.44,5.44,5.45
54.10,-3.41,-8.82,-3.40,-8.81,8.84,8.61,8.15,5.43,5.44,5.41
54.64,-3.28,-8.64,-3.29,-8.66,8.70,8.49,8.04,5.43,5.41,5.36
55.18,-3.20,-8.51,-3.23,-8.54,8.56,8.37,7.92,5.37,5.33,5.31
55.74,-3.20,-8.46,-3.17,-8.43,8.41,8.25,7.81,5.21,5.24,5.26
56.29,-3.13,-8.34,-3.11,-8.31,8.25,8.14,7.70,5.13,5.15,5.21
56.86,-3.00,-8.15,-3.01,-8.16,8.09,8.02,7.60,5.10,5.08,5.15
57.42,-2.88,-7.96,-2.88,-7.96,7.94,7.90,7.49,5.07,5.07,5.08
58.00,-2.75,-7.77,-2.73,-7.76,7.80,7.78,7.39,5.05,5.06,5.02
58.58,-2.62,-7.58,-2.62,-7.59,7.66,7.66,7.29,5.04,5.04,4.96
59.16,-2.52,-7.43,-2.54,-7.45,7.52,7.54,7.19,5.00,4.98,4.91
59.76,-2.52,-7.37,-2.52,-7.37,7.39,7.42,7.09,4.87,4.86,4.85
60.35,-2.52,-7.30,-2.51,-7.30,7.26,7.30,6.99,4.75,4.75,4.78
60.96,-2.52,-7.25,-2.47,-7.19,7.15,7.18,6.89,4.63,4.68,4.73
61.57,-2.39,-7.05,-2.41,-7.07,7.03,7.06,6.80,4.64,4.63,4.66
62.18,-2.29,-6.88,-2.33,-6.93,6.92,6.94,6.70,4.63,4.59,4.59
62.80,-2.29,-6.84,-2.24,-6.79,6.80,6.82,6.61,4.51,4.56,4.55
63.43,-2.19,-6.68,-2.17,-6.67,6.67,6.70,6.51,4.49,4.50,4.49
64.07,-2.06,-6.51,-2.10,-6.55,6.54,6.57,6.42,4.49,4.44,4.45
64.71,-2.02,-6.42,-2.00,-6.40,6.41,6.45,6.33,4.40,4.42,4.40
65.35,-1.95,-6.30,-1.93,-6.28,6.29,6.32,6.24,4.35,4.37,4.35
66.01,-1.83,-6.15,-1.88,-6.19,6.18,6.20,6.15,4.36,4.31,4.32
66.67,-1.83,-6.11,-1.79,-6.08,6.08,6.07,6.06,4.26,4.29,4.28
67.33,-1.76,-6.01,-1.72,-5.97,5.99,5.94,5.98,4.23,4.27,4.25
68.01,-1.61,-5.83,-1.66,-5.88,5.89,5.81,5.89,4.29,4.23,4.22
68.69,-1.61,-5.80,-1.62,-5.81,5.81,5.69,5.80,4.20,4.19,4.19
69.37,-1.61,-5.76,-1.58,-5.74,5.73,5.57,5.72,4.12,4.15,4.15
70.07,-1.59,-5.71,-1.54,-5.66,5.65,5.45,5.64,4.06,4.11,4.12
70.77,-1.43,-5.54,-1.46,-5.57,5.57,5.34,5.55,4.14,4.10,4.11
71.48,-1.38,-5.45,-1.41,-5.49,5.49,5.24,5.47,4.11,4.07,4.07
72.19,-1.38,-5.43,-1.36,-5.41,5.41,5.15,5.39,4.03,4.04,4.05
72.91,-1.38,-5.39,-1.32,-5.33,5.32,5.06,5.31,3.95,4.01,4.01
73.64,-1.23,-5.21,-1.25,-5.23,5.23,4.99,5.24,4.01,3.98,3.98
74.38,-1.15,-5.10,-1.19,-5.14,5.14,4.93,5.16,3.99,3.95,3.95
75.12,-1.15,-5.07,-1.14,-5.06,5.05,4.88,5.09,3.91,3.91,3.92
75.87,-1.15,-5.04,-1.10,-4.99,4.97,4.83,5.02,3.83,3.87,3.89
76.63,-1.04,-4.90,-1.04,-4.90,4.90,4.79,4.95,3.86,3.86,3.86
77.40,-0.95,-4.78,-0.97,-4.80,4.84,4.76,4.88,3.89,3.87,3.83
78.17,-0.92,-4.72,-0.92,-4.73,4.78,4.72,4.81,3.86,3.86,3.80
78.95,-0.92,-4.71,-0.91,-4.70,4.73,4.69,4.74,3.81,3.82,3.79
79.74,-0.92,-4.69,-0.92,-4.69,4.67,4.66,4.68,3.76,3.75,3.77
80.54,-0.92,-4.67,-0.93,-4.68,4.62,4.62,4.62,3.70,3.69,3.75
81.35,-0.92,-4.65,-0.89,-4.63,4.57,4.59,4.56,3.66,3.68,3.73
82.16,-0.87,-4.60,-0.82,-4.55,4.53,4.56,4.50,3.67,3.71,3.73
82.98,-0.69,-4.42,-0.75,-4.47,4.50,4.52,4.44,3.81,3.75,3.73
83.81,-0.69,-4.41,-0.69,-4.41,4.46,4.48,4.39,3.78,3.77,3.72
84.65,-0.69,-4.40,-0.67,-4.39,4.44,4.44,4.34,3.75,3.77,3.71
85.50,-0.69,-4.41,-0.69,-4.40,4.42,4.40,4.29,3.74,3.74,3.72
86.35,-0.69,-4.41,-0.69,-4.40,4.41,4.36,4.24,3.73,3.73,3.72
87.22,-0.69,-4.41,-0.69,-4.41,4.41,4.32,4.19,3.72,3.72,3.72
88.09,-0.69,-4.41,-0.69,-4.42,4.40,4.27,4.15,3.71,3.71,3.72
88.97,-0.69,-4.43,-0.70,-4.43,4.38,4.23,4.10,3.70,3.69,3.74
89.86,-0.69,-4.43,-0.68,-4.42,4.36,4.19,4.06,3.68,3.68,3.74
90.76,-0.67,-4.39,-0.63,-4.36,4.33,4.14,4.02,3.66,3.70,3.72
91.66,-0.54,-4.27,-0.56,-4.28,4.29,4.10,3.98,3.76,3.73,3.73
92.58,-0.47,-4.17,-0.49,-4.21,4.25,4.05,3.95,3.78,3.76,3.70
93.51,-0.47,-4.18,-0.46,-4.16,4.21,4.01,3.91,3.74,3.75,3.71
94.44,-0.47,-4.16,-0.46,-4.15,4.17,3.97,3.88,3.70,3.71,3.69
95.39,-0.47,-4.15,-0.47,-4.14,4.13,3.92,3.85,3.67,3.67,3.68
96.34,-0.47,-4.11,-0.47,-4.11,4.10,3.88,3.82,3.64,3.64,3.64
97.30,-0.47,-4.09,-0.47,-4.09,4.08,3.84,3.79,3.61,3.61,3.62
98.28,-0.47,-4.07,-0.47,-4.06,4.06,3.79,3.76,3.59,3.59,3.60
99.26,-0.47,-4.04,-0.47,-4.04,4.04,3.75,3.74,3.57,3.57,3.57
100.25,-0.47,-4.01,-0.47,-4.01,4.01,3.71,3.72,3.54,3.54,3.54
101.25,-0.47,-3.98,-0.47,-3.97,3.98,3.67,3.69,3.51,3.51,3.51
102.27,-0.47,-3.94,-0.47,-3.94,3.94,3.63,3.67,3.47,3.47,3.47
103.29,-0.47,-3.89,-0.47,-3.89,3.89,3.59,3.65,3.42,3.42,3.42
104.32,-0.47,-3.85,-0.47,-3.85,3.83,3.55,3.63,3.37,3.37,3.38
105.37,-0.47,-3.80,-0.47,-3.80,3.78,3.51,3.61,3.31,3.31,3.33
106.42,-0.47,-3.75,-0.47,-3.74,3.72,3.47,3.60,3.26,3.26,3.28
107.48,-0.47,-3.68,-0.47,-3.67,3.68,3.44,3.58,3.21,3.21,3.21
108.56,-0.47,-3.60,-0.45,-3.59,3.63,3.40,3.56,3.17,3.19,3.13
109.64,-0.47,-3.53,-0.47,-3.54,3.59,3.36,3.55,3.13,3.12,3.06
110.74,-0.47,-3.47,-0.53,-3.53,3.55,3.33,3.53,3.09,3.02,3.00
111.85,-0.66,-3.59,-0.60,-3.53,3.51,3.29,3.51,2.86,2.91,2.93
112.97,-0.69,-3.53,-0.67,-3.52,3.47,3.26,3.50,2.78,2.80,2.84
114.10,-0.69,-3.47,-0.70,-3.48,3.42,3.23,3.48,2.73,2.72,2.78
115.24,-0.69,-3.39,-0.69,-3.39,3.37,3.20,3.46,2.68,2.68,2.70
116.39,-0.69,-3.31,-0.69,-3.31,3.31,3.16,3.45,2.62,2.62,2.62
117.55,-0.69,-3.25,-0.69,-3.24,3.25,3.13,3.43,2.57,2.57,2.56
118.73,-0.69,-3.18,-0.69,-3.18,3.20,3.10,3.41,2.52,2.52,2.49
119.92,-0.69,-3.14,-0.68,-3.12,3.16,3.08,3.39,2.48,2.49,2.45
121.12,-0.69,-3.08,-0.68,-3.08,3.14,3.05,3.37,2.45,2.46,2.39
122.33,-0.69,-3.04,-0.72,-3.08,3.12,3.02,3.35,2.43,2.40,2.35
123.55,-0.79,-3.12,-0.79,-3.12,3.12,2.99,3.33,2.33,2.32,2.33
124.79,-0.91,-3.20,-0.86,-3.16,3.12,2.97,3.30,2.21,2.25,2.29
126.03,-0.92,-3.17,-0.92,-3.17,3.11,2.94,3.28,2.20,2.20,2.25
127.29,-0.92,-3.14,-0.93,-3.14,3.10,2.92,3.25,2.19,2.18,2.22
128.57,-0.92,-3.10,-0.92,-3.10,3.09,2.89,3.23,2.17,2.17,2.18
129.85,-0.92,-3.07,-0.92,-3.07,3.07,2.87,3.20,2.15,2.15,2.15
131.15,-0.92,-3.04,-0.92,-3.04,3.05,2.85,3.17,2.13,2.13,2.12
132.46,-0.92,-3.01,-0.91,-3.00,3.03,2.82,3.14,2.11,2.12,2.09
133.79,-0.92,-2.98,-0.91,-2.96,3.01,2.80,3.11,2.10,2.11,2.06
135.12,-0.93,-2.94,-0.94,-2.96,3.00,2.78,3.08,2.08,2.06,2.01
136.48,-0.98,-2.96,-1.01,-2.99,3.00,2.76,3.05,2.03,1.99,1.98
137.84,-1.13,-3.08,-1.08,-3.02,3.00,2.74,3.02,1.87,1.92,1.95
139.22,-1.15,-3.05,-1.14,-3.04,3.00,2.73,2.98,1.85,1.86,1.90
140.61,-1.15,-3.00,-1.16,-3.02,2.99,2.71,2.95,1.84,1.83,1.85
142.02,-1.15,-2.98,-1.15,-2.97,2.97,2.69,2.92,1.83,1.83,1.83
143.44,-1.15,-2.94,-1.15,-2.94,2.95,2.68,2.88,1.80,1.80,1.79
144.87,-1.15,-2.90,-1.15,-2.90,2.90,2.66,2.85,1.75,1.75,1.75
146.32,-1.15,-2.85,-1.15,-2.85,2.84,2.64,2.82,1.70,1.70,1.70
147.78,-1.15,-2.81,-1.15,-2.80,2.78,2.63,2.79,1.63,1.63,1.66
149.26,-1.15,-2.74,-1.15,-2.73,2.72,2.62,2.75,1.57,1.57,1.59
150.75,-1.15,-2.66,-1.14,-2.66,2.67,2.60,2.72,1.52,1.53,1.51
152.26,-1.15,-2.59,-1.13,-2.57,2.62,2.59,2.69,1.48,1.49,1.44
153.78,-1.15,-2.52,-1.17,-2.53,2.58,2.58,2.66,1.43,1.41,1.37
155.32,-1.20,-2.47,-1.23,-2.52,2.53,2.57,2.64,1.33,1.30,1.27
156.88,-1.36,-2.56,-1.31,-2.51,2.49,2.56,2.61,1.13,1.18,1.20
158.44,-1.38,-2.51,-1.37,-2.49,2.44,2.55,2.58,1.06,1.07,1.13
160.03,-1.38,-2.43,-1.39,-2.45,2.39,2.54,2.56,1.02,1.00,1.05
161.63,-1.38,-2.37,-1.38,-2.37,2.35,2.53,2.53,0.98,0.98,0.99
163.24,-1.38,-2.32,-1.38,-2.32,2.32,2.52,2.51,0.95,0.95,0.94
164.88,-1.38,-2.28,-1.37,-2.27,2.30,2.51,2.49,0.93,0.93,0.90
166.53,-1.38,-2.24,-1.37,-2.23,2.29,2.51,2.47,0.91,0.92,0.86
168.19,-1.38,-2.21,-1.40,-2.23,2.29,2.50,2.45,0.91,0.89,0.83
169.87,-1.43,-2.25,-1.46,-2.28,2.30,2.49,2.43,0.88,0.84,0.82
171.57,-1.57,-2.38,-1.53,-2.34,2.33,2.49,2.42,0.76,0.80,0.81
173.29,-1.61,-2.42,-1.59,-2.41,2.36,2.48,2.40,0.75,0.77,0.81
175.02,-1.61,-2.44,-1.62,-2.44,2.39,2.48,2.39,0.79,0.78,0.83
176.77,-1.61,-2.43,-1.61,-2.44,2.42,2.47,2.38,0.82,0.81,0.82
178.54,-1.61,-2.44,-1.61,-2.44,2.45,2.47,2.37,0.84,0.84,0.83
180.32,-1.61,-2.45,-1.61,-2.44,2.45,2.47,2.36,0.85,0.85,0.84
182.13,-1.61,-2.45,-1.61,-2.45,2.45,2.46,2.35,0.85,0.85,0.84
183.95,-1.61,-2.45,-1.61,-2.45,2.44,2.46,2.35,0.84,0.84,0.84
185.79,-1.61,-2.44,-1.61,-2.44,2.43,2.46,2.34,0.82,0.82,0.83
187.65,-1.61,-2.42,-1.61,-2.42,2.42,2.46,2.34,0.81,0.81,0.81
189.52,-1.61,-2.40,-1.61,-2.40,2.40,2.46,2.34,0.80,0.80,0.79
191.42,-1.61,-2.38,-1.61,-2.38,2.39,2.46,2.34,0.78,0.78,0.77
193.33,-1.61,-2.36,-1.61,-2.37,2.37,2.46,2.34,0.76,0.76,0.75
195.27,-1.61,-2.36,-1.61,-2.35,2.35,2.46,2.34,0.74,0.74,0.75
197.22,-1.61,-2.34,-1.61,-2.33,2.33,2.46,2.35,0.72,0.72,0.73
199.19,-1.61,-2.30,-1.61,-2.31,2.31,2.46,2.35,0.70,0.70,0.69
201.18,-1.61,-2.30,-1.61,-2.29,2.29,2.46,2.36,0.69,0.69,0.69
203.19,-1.61,-2.28,-1.61,-2.27,2.27,2.47,2.37,0.67,0.67,0.67
205.23,-1.61,-2.25,-1.61,-2.26,2.26,2.47,2.37,0.65,0.65,0.64
207.28,-1.61,-2.25,-1.61,-2.24,2.24,2.47,2.38,0.64,0.64,0.64
209.35,-1.61,-2.23,-1.61,-2.22,2.23,2.48,2.39,0.62,0.62,0.62
211.44,-1.61,-2.20,-1.61,-2.21,2.21,2.48,2.40,0.60,0.60,0.59
213.56,-1.61,-2.20,-1.61,-2.20,2.19,2.48,2.41,0.58,0.58,0.59
215.69,-1.61,-2.20,-1.61,-2.19,2.17,2.49,2.42,0.56,0.56,0.59
217.85,-1.61,-2.17,-1.61,-2.17,2.16,2.49,2.43,0.55,0.55,0.56
220.03,-1.61,-2.16,-1.61,-2.16,2.15,2.50,2.45,0.54,0.54,0.55
222.23,-1.61,-2.14,-1.61,-2.14,2.15,2.50,2.46,0.55,0.55,0.53
224.45,-1.61,-2.14,-1.59,-2.12,2.17,2.51,2.47,0.56,0.58,0.53
226.70,-1.61,-2.14,-1.61,-2.14,2.19,2.51,2.48,0.58,0.58,0.53
228.96,-1.61,-2.13,-1.67,-2.19,2.21,2.52,2.49,0.60,0.55,0.52
231.25,-1.78,-2.30,-1.74,-2.25,2.24,2.53,2.50,0.46,0.50,0.52
233.57,-1.83,-2.34,-1.80,-2.31,2.27,2.53,2.51,0.44,0.47,0.51
235.90,-1.83,-2.33,-1.84,-2.34,2.30,2.54,2.51,0.47,0.46,0.50
238.26,-1.83,-2.33,-1.83,-2.33,2.32,2.55,2.52,0.49,0.49,0.50
240.64,-1.83,-2.33,-1.83,-2.33,2.34,2.56,2.53,0.51,0.51,0.50
243.05,-1.83,-2.34,-1.83,-2.34,2.35,2.56,2.53,0.52,0.52,0.51
245.48,-1.83,-2.35,-1.83,-2.35,2.35,2.57,2.54,0.53,0.53,0.52
247.93,-1.83,-2.36,-1.83,-2.35,2.36,2.58,2.54,0.53,0.53,0.53
250.41,-1.83,-2.35,-1.83,-2.36,2.36,2.59,2.54,0.53,0.53,0.52
252.92,-1.83,-2.36,-1.83,-2.37,2.36,2.60,2.54,0.54,0.54,0.53
255.45,-1.83,-2.39,-1.83,-2.37,2.37,2.61,2.54,0.55,0.55,0.56
258.00,-1.83,-2.39,-1.83,-2.39,2.38,2.61,2.54,0.56,0.56,0.56
260.58,-1.83,-2.39,-1.83,-2.39,2.39,2.62,2.53,0.57,0.57,0.56
263.19,-1.83,-2.41,-1.83,-2.40,2.40,2.63,2.53,0.58,0.58,0.58
265.82,-1.83,-2.41,-1.83,-2.42,2.42,2.64,2.53,0.59,0.59,0.58
268.48,-1.83,-2.44,-1.83,-2.43,2.43,2.65,2.52,0.61,0.61,0.61
271.16,-1.83,-2.45,-1.83,-2.45,2.45,2.66,2.51,0.62,0.62,0.62
273.87,-1.83,-2.46,-1.83,-2.47,2.47,2.67,2.51,0.64,0.64,0.63
276.61,-1.83,-2.50,-1.83,-2.49,2.49,2.68,2.50,0.66,0.66,0.67
279.38,-1.83,-2.51,-1.83,-2.51,2.51,2.69,2.49,0.69,0.69,0.68
282.17,-1.83,-2.54,-1.83,-2.54,2.54,2.70,2.48,0.71,0.71,0.71
284.99,-1.83,-2.57,-1.83,-2.56,2.57,2.71,2.47,0.74,0.74,0.74
287.84,-1.83,-2.59,-1.83,-2.59,2.59,2.72,2.47,0.77,0.77,0.76
290.72,-1.83,-2.63,-1.83,-2.62,2.62,2.73,2.46,0.79,0.79,0.80
293.63,-1.83,-2.65,-1.83,-2.65,2.65,2.74,2.45,0.82,0.82,0.82
296.57,-1.83,-2.68,-1.83,-2.68,2.68,2.75,2.45,0.85,0.85,0.85
299.53,-1.83,-2.71,-1.83,-2.70,2.70,2.76,2.44,0.88,0.88,0.88
302.53,-1.83,-2.72,-1.83,-2.73,2.73,2.77,2.44,0.90,0.90,0.89
305.55,-1.83,-2.76,-1.83,-2.75,2.75,2.78,2.43,0.93,0.93,0.93
308.61,-1.83,-2.78,-1.83,-2.77,2.77,2.79,2.43,0.95,0.95,0.95
311.69,-1.83,-2.79,-1.83,-2.80,2.79,2.81,2.43,0.96,0.96,0.96
314.81,-1.83,-2.82,-1.83,-2.81,2.80,2.82,2.43,0.97,0.97,0.99
317.96,-1.83,-2.82,-1.83,-2.81,2.81,2.83,2.43,0.98,0.98,0.99
321.14,-1.83,-2.81,-1.83,-2.82,2.82,2.84,2.43,0.99,0.99,0.98
324.35,-1.83,-2.82,-1.83,-2.82,2.82,2.85,2.44,1.00,1.00,0.99
327.59,-1.83,-2.83,-1.83,-2.83,2.83,2.86,2.44,1.00,1.00,1.00
330.87,-1.83,-2.84,-1.83,-2.83,2.84,2.87,2.45,1.01,1.01,1.01
334.18,-1.83,-2.84,-1.83,-2.84,2.84,2.88,2.46,1.02,1.02,1.01
337.52,-1.83,-2.85,-1.83,-2.85,2.86,2.89,2.47,1.03,1.03,1.02
340.90,-1.83,-2.88,-1.83,-2.87,2.87,2.90,2.48,1.04,1.04,1.05
344.30,-1.83,-2.89,-1.83,-2.89,2.89,2.91,2.50,1.06,1.06,1.06
347.75,-1.83,-2.90,-1.83,-2.90,2.91,2.92,2.51,1.08,1.08,1.07
351.23,-1.83,-2.93,-1.83,-2.92,2.93,2.93,2.53,1.10,1.10,1.10
354.74,-1.83,-2.95,-1.83,-2.95,2.95,2.94,2.55,1.12,1.12,1.12
358.28,-1.83,-2.98,-1.83,-2.98,2.97,2.95,2.58,1.15,1.15,1.15
361.87,-1.83,-3.00,-1.83,-3.00,3.00,2.96,2.60,1.17,1.17,1.17
365.49,-1.83,-3.02,-1.83,-3.02,3.02,2.97,2.63,1.19,1.19,1.19
369.14,-1.83,-3.04,-1.83,-3.04,3.05,2.98,2.65,1.22,1.22,1.21
372.83,-1.83,-3.07,-1.83,-3.06,3.07,2.99,2.68,1.24,1.24,1.24
376.56,-1.83,-3.09,-1.83,-3.09,3.09,3.00,2.72,1.26,1.26,1.26
380.33,-1.83,-3.12,-1.83,-3.12,3.11,3.01,2.75,1.28,1.28,1.29
384.13,-1.83,-3.14,-1.83,-3.13,3.12,3.02,2.78,1.30,1.30,1.31
387.97,-1.83,-3.15,-1.83,-3.15,3.14,3.03,2.82,1.31,1.31,1.32
391.85,-1.83,-3.15,-1.83,-3.15,3.15,3.04,2.86,1.33,1.33,1.32
395.77,-1.83,-3.16,-1.83,-3.16,3.16,3.04,2.90,1.34,1.34,1.33
399.73,-1.83,-3.17,-1.83,-3.17,3.17,3.05,2.94,1.35,1.35,1.34
403.72,-1.83,-3.18,-1.83,-3.18,3.18,3.06,2.98,1.36,1.36,1.35
407.76,-1.83,-3.19,-1.83,-3.19,3.19,3.07,3.02,1.36,1.36,1.36
411.84,-1.83,-3.20,-1.83,-3.20,3.19,3.08,3.06,1.37,1.37,1.37
415.96,-1.83,-3.21,-1.83,-3.20,3.20,3.09,3.10,1.37,1.37,1.38
420.12,-1.83,-3.21,-1.83,-3.21,3.20,3.09,3.15,1.38,1.38,1.38
424.32,-1.83,-3.21,-1.83,-3.21,3.20,3.10,3.19,1.38,1.38,1.38
428.56,-1.83,-3.21,-1.83,-3.20,3.21,3.11,3.23,1.38,1.38,1.38
432.85,-1.83,-3.20,-1.83,-3.20,3.22,3.11,3.28,1.39,1.39,1.37
437.18,-1.83,-3.21,-1.83,-3.21,3.22,3.12,3.32,1.40,1.40,1.38
441.55,-1.83,-3.22,-1.83,-3.21,3.23,3.13,3.36,1.40,1.40,1.39
445.96,-1.83,-3.22,-1.83,-3.22,3.22,3.13,3.40,1.40,1.40,1.39
450.42,-1.83,-3.23,-1.83,-3.24,3.21,3.14,3.44,1.39,1.38,1.40
454.93,-1.83,-3.24,-1.83,-3.24,3.20,3.15,3.47,1.37,1.37,1.41
459.48,-1.83,-3.25,-1.79,-3.22,3.18,3.15,3.51,1.35,1.39,1.42
464.07,-1.74,-3.18,-1.73,-3.17,3.16,3.16,3.54,1.43,1.43,1.44
468.71,-1.64,-3.10,-1.66,-3.12,3.15,3.16,3.56,1.51,1.49,1.46
473.40,-1.61,-3.08,-1.61,-3.09,3.14,3.17,3.59,1.53,1.53,1.47
