frequency,raw,error,smoothed,error_smoothed,equalization,parametric_eq,fixed_band_eq,equalized_raw,equalized_smoothed,target
20.00,1.65,-3.93,1.66,-3.92,3.94,3.14,1.26,5.59,5.60,5.58
20.20,1.69,-3.92,1.69,-3.93,3.93,3.13,1.30,5.62,5.61,5.61
20.40,1.71,-3.93,1.72,-3.92,3.92,3.12,1.34,5.63,5.63,5.64
20.61,1.75,-3.91,1.76,-3.91,3.90,3.12,1.38,5.65,5.66,5.66
20.81,1.80,-3.89,1.80,-3.89,3.88,3.11,1.42,5.68,5.68,5.69
21.02,1.85,-3.87,1.85,-3.86,3.86,3.10,1.46,5.71,5.71,5.72
21.23,1.90,-3.83,1.90,-3.83,3.83,3.09,1.51,5.73,5.73,5.73
21.44,1.94,-3.80,1.95,-3.80,3.80,3.08,1.55,5.74,5.74,5.74
21.66,1.99,-3.76,1.99,-3.76,3.76,3.07,1.60,5.75,5.75,5.75
21.87,2.04,-3.71,2.04,-3.71,3.72,3.06,1.65,5.76,5.76,5.75
22.09,2.08,-3.68,2.09,-3.67,3.67,3.05,1.70,5.76,5.76,5.76
22.31,2.13,-3.63,2.13,-3.63,3.63,3.04,1.75,5.76,5.76,5.76
22.54,2.17,-3.59,2.18,-3.58,3.58,3.03,1.80,5.76,5.76,5.76
22.76,2.22,-3.54,2.22,-3.54,3.54,3.02,1.86,5.76,5.76,5.76
22.99,2.26,-3.49,2.26,-3.49,3.50,3.01,1.91,5.76,5.76,5.75
23.22,2.29,-3.46,2.30,-3.45,3.45,3.00,1.97,5.75,5.76,5.75
23.45,2.34,-3.41,2.34,-3.41,3.41,2.99,2.03,5.76,5.75,5.75
23.69,2.37,-3.38,2.38,-3.37,3.37,2.98,2.08,5.75,5.75,5.75
23.92,2.41,-3.34,2.42,-3.33,3.33,2.96,2.14,5.75,5.75,5.75
24.16,2.46,-3.29,2.46,-3.29,3.29,2.95,2.21,5.76,5.75,5.75
24.40,2.49,-3.26,2.49,-3.25,3.26,2.94,2.27,5.75,5.75,5.75
24.65,2.52,-3.22,2.52,-3.22,3.22,2.93,2.33,5.74,5.74,5.74
24.89,2.55,-3.19,2.55,-3.19,3.19,2.91,2.39,5.74,5.74,5.74
25.14,2.58,-3.16,2.59,-3.15,3.15,2.90,2.46,5.74,5.74,5.74
25.39,2.62,-3.12,2.62,-3.12,3.12,2.89,2.52,5.75,5.74,5.74
25.65,2.65,-3.09,2.65,-3.09,3.10,2.87,2.58,5.75,5.74,5.74
25.91,2.67,-3.06,2.67,-3.06,3.07,2.86,2.65,5.74,5.74,5.73
26.16,2.68,-3.05,2.69,-3.04,3.04,2.84,2.71,5.73,5.73,5.73
26.43,2.71,-3.02,2.71,-3.02,3.02,2.82,2.77,5.73,5.73,5.73
26.69,2.72,-3.01,2.73,-3.00,2.99,2.81,2.83,5.72,5.72,5.73
26.96,2.76,-2.97,2.75,-2.97,2.97,2.79,2.89,5.73,5.72,5.73
27.23,2.76,-2.96,2.78,-2.95,2.95,2.77,2.95,5.71,5.72,5.72
27.50,2.81,-2.91,2.80,-2.92,2.92,2.76,3.01,5.73,5.72,5.72
27.77,2.81,-2.90,2.82,-2.89,2.89,2.74,3.06,5.71,5.72,5.71
28.05,2.85,-2.86,2.85,-2.86,2.87,2.72,3.11,5.72,5.71,5.71
28.33,2.85,-2.85,2.86,-2.84,2.84,2.70,3.16,5.70,5.70,5.70
28.62,2.89,-2.81,2.89,-2.81,2.82,2.68,3.20,5.71,5.70,5.70
28.90,2.90,-2.80,2.91,-2.79,2.79,2.65,3.24,5.69,5.70,5.70
29.19,2.93,-2.76,2.93,-2.76,2.76,2.63,3.28,5.70,5.70,5.69
29.48,2.95,-2.74,2.95,-2.74,2.74,2.61,3.31,5.69,5.69,5.69
29.78,2.97,-2.71,2.97,-2.71,2.71,2.58,3.33,5.68,5.68,5.68
30.08,2.99,-2.69,3.00,-2.68,2.68,2.56,3.35,5.67,5.68,5.68
30.38,3.03,-2.64,3.03,-2.65,2.64,2.53,3.37,5.68,5.67,5.67
30.68,3.06,-2.61,3.06,-2.61,2.61,2.50,3.38,5.67,5.67,5.67
30.99,3.09,-2.57,3.10,-2.56,2.57,2.47,3.38,5.66,5.67,5.66
31.30,3.13,-2.52,3.13,-2.53,2.53,2.44,3.38,5.66,5.66,5.65
31.61,3.16,-2.49,3.16,-2.48,2.49,2.41,3.37,5.65,5.65,5.65
31.93,3.19,-2.45,3.20,-2.44,2.44,2.37,3.35,5.63,5.64,5.64
32.24,3.24,-2.39,3.24,-2.40,2.39,2.34,3.34,5.63,5.63,5.63
32.57,3.28,-2.35,3.28,-2.34,2.34,2.30,3.31,5.62,5.62,5.63
32.89,3.33,-2.29,3.34,-2.28,2.29,2.26,3.28,5.62,5.62,5.62
33.22,3.38,-2.23,3.38,-2.23,2.23,2.22,3.24,5.62,5.62,5.61
33.55,3.44,-2.17,3.43,-2.17,2.18,2.17,3.20,5.62,5.61,5.61
33.89,3.47,-2.13,3.48,-2.12,2.12,2.12,3.16,5.59,5.61,5.60
34.23,3.53,-2.06,3.53,-2.06,2.06,2.07,3.11,5.60,5.59,5.59
34.57,3.58,-2.00,3.58,-2.00,2.00,2.02,3.05,5.59,5.58,5.58
34.92,3.62,-1.95,3.63,-1.95,1.94,1.96,3.00,5.57,5.57,5.57
35.27,3.67,-1.89,3.67,-1.89,1.88,1.90,2.93,5.55,5.55,5.56
35.62,3.72,-1.83,3.73,-1.82,1.82,1.83,2.87,5.54,5.55,5.55
35.97,3.79,-1.75,3.79,-1.75,1.76,1.76,2.80,5.55,5.54,5.54
36.33,3.85,-1.68,3.84,-1.69,1.69,1.69,2.74,5.55,5.54,5.53
36.70,3.88,-1.64,3.89,-1.63,1.63,1.62,2.67,5.52,5.53,5.52
37.06,3.94,-1.57,3.94,-1.57,1.57,1.54,2.60,5.51,5.51,5.51
37.43,3.99,-1.51,3.99,-1.51,1.51,1.46,2.52,5.50,5.50,5.50
37.81,4.05,-1.44,4.05,-1.44,1.44,1.38,2.45,5.50,5.49,5.49
38.19,4.09,-1.39,4.10,-1.39,1.38,1.30,2.38,5.47,5.47,5.48
38.57,4.14,-1.33,4.15,-1.33,1.31,1.23,2.30,5.46,5.46,5.47
38.95,4.19,-1.27,4.20,-1.26,1.25,1.17,2.23,5.45,5.45,5.46
39.34,4.25,-1.19,4.25,-1.19,1.19,1.11,2.15,5.45,5.45,5.44
39.74,4.30,-1.13,4.30,-1.13,1.14,1.06,2.08,5.44,5.44,5.43
40.14,4.35,-1.07,4.34,-1.08,1.09,1.02,2.01,5.44,5.43,5.42
40.54,4.36,-1.05,4.37,-1.04,1.05,1.00,1.93,5.41,5.42,5.41
40.94,4.39,-1.01,4.39,-1.01,1.02,0.99,1.86,5.41,5.41,5.40
41.35,4.39,-1.00,4.40,-1.00,1.00,0.99,1.79,5.39,5.39,5.39
41.76,4.39,-0.99,4.40,-0.98,0.99,1.00,1.72,5.38,5.38,5.38
42.18,4.39,-0.98,4.39,-0.98,0.98,1.01,1.65,5.38,5.38,5.37
42.60,4.37,-0.99,4.37,-0.99,0.99,1.03,1.58,5.36,5.36,5.36
43.03,4.35,-1.00,4.35,-1.00,1.00,1.06,1.51,5.35,5.35,5.35
43.46,4.30,-1.03,4.31,-1.02,1.02,1.08,1.45,5.32,5.33,5.33
43.90,4.27,-1.04,4.27,-1.04,1.04,1.11,1.38,5.31,5.31,5.31
44.33,4.23,-1.06,4.23,-1.06,1.06,1.13,1.32,5.29,5.29,5.29
44.78,4.19,-1.08,4.19,-1.08,1.09,1.15,1.25,5.28,5.28,5.27
45.23,4.14,-1.11,4.14,-1.11,1.11,1.17,1.19,5.26,5.26,5.25
45.68,4.09,-1.15,4.10,-1.14,1.14,1.18,1.13,5.24,5.24,5.24
46.13,4.05,-1.17,4.05,-1.18,1.17,1.19,1.07,5.23,5.22,5.22
46.60,4.00,-1.21,4.01,-1.20,1.20,1.19,1.01,5.21,5.21,5.21
47.06,3.96,-1.23,3.97,-1.23,1.23,1.20,0.95,5.19,5.19,5.19
47.53,3.93,-1.24,3.92,-1.25,1.25,1.19,0.90,5.18,5.17,5.17
48.01,3.88,-1.28,3.89,-1.27,1.26,1.19,0.84,5.15,5.15,5.16
48.49,3.84,-1.29,3.85,-1.28,1.27,1.18,0.79,5.11,5.12,5.13
48.97,3.83,-1.27,3.82,-1.28,1.27,1.17,0.73,5.10,5.09,5.10
49.46,3.79,-1.28,3.80,-1.27,1.26,1.16,0.68,5.06,5.07,5.07
49.96,3.79,-1.25,3.79,-1.25,1.25,1.14,0.63,5.05,5.05,5.04
50.46,3.79,-1.23,3.79,-1.23,1.24,1.12,0.57,5.03,5.03,5.02
50.96,3.79,-1.21,3.79,-1.20,1.21,1.10,0.52,5.01,5.01,5.00
51.47,3.79,-1.18,3.79,-1.18,1.19,1.08,0.47,4.98,4.98,4.97
51.99,3.79,-1.16,3.79,-1.16,1.16,1.05,0.42,4.95,4.95,4.95
52.51,3.79,-1.14,3.80,-1.13,1.13,1.02,0.38,4.92,4.93,4.93
53.03,3.81,-1.10,3.81,-1.10,1.09,0.99,0.33,4.90,4.90,4.91
53.56,3.83,-1.05,3.83,-1.06,1.05,0.96,0.28,4.88,4.88,4.88
54.10,3.84,-1.02,3.85,-1.01,1.01,0.92,0.24,4.85,4.86,4.86
54.64,3.88,-0.95,3.88,-0.96,0.96,0.88,0.19,4.84,4.84,4.83
55.18,3.90,-0.91,3.91,-0.90,0.91,0.84,0.15,4.81,4.81,4.81
55.74,3.93,-0.85,3.93,-0.85,0.86,0.80,0.11,4.79,4.79,4.78
56.29,3.96,-0.80,3.96,-0.80,0.81,0.75,0.06,4.77,4.76,4.76
56.86,3.97,-0.77,3.99,-0.75,0.75,0.70,0.02,4.73,4.74,4.74
57.42,4.02,-0.69,4.01,-0.70,0.71,0.64,-0.02,4.73,4.72,4.71
58.00,4.03,-0.66,4.04,-0.65,0.66,0.59,-0.06,4.69,4.70,4.69
58.58,4.07,-0.60,4.07,-0.60,0.61,0.53,-0.10,4.68,4.68,4.67
59.16,4.10,-0.55,4.10,-0.56,0.55,0.47,-0.13,4.66,4.65,4.65
59.76,4.11,-0.52,4.13,-0.50,0.50,0.40,-0.17,4.61,4.62,4.63
60.35,4.16,-0.44,4.16,-0.45,0.44,0.33,-0.21,4.60,4.59,4.60
60.96,4.18,-0.39,4.18,-0.38,0.38,0.26,-0.24,4.56,4.56,4.57
61.57,4.22,-0.31,4.22,-0.31,0.31,0.19,-0.28,4.54,4.54,4.53
62.18,4.25,-0.25,4.26,-0.24,0.24,0.11,-0.31,4.50,4.50,4.50
62.80,4.31,-0.16,4.30,-0.17,0.17,0.03,-0.35,4.49,4.47,4.47
63.43,4.34,-0.10,4.35,-0.09,0.10,-0.05,-0.38,4.44,4.45,4.44
64.07,4.39,-0.02,4.40,-0.02,0.02,-0.13,-0.41,4.41,4.42,4.41
64.71,4.45,0.06,4.45,0.06,-0.06,-0.22,-0.44,4.40,4.39,4.39
65.35,4.49,0.13,4.50,0.14,-0.14,-0.31,-0.47,4.36,4.36,4.36
66.01,4.55,0.22,4.55,0.22,-0.22,-0.39,-0.50,4.33,4.33,4.33
66.67,4.60,0.30,4.60,0.30,-0.30,-0.48,-0.53,4.30,4.30,4.30
67.33,4.65,0.38,4.66,0.39,-0.39,-0.57,-0.56,4.27,4.27,4.27
68.01,4.72,0.48,4.72,0.48,-0.48,-0.67,-0.59,4.25,4.25,4.24
68.69,4.79,0.58,4.78,0.57,-0.57,-0.76,-0.62,4.23,4.22,4.21
69.37,4.84,0.66,4.85,0.67,-0.66,-0.85,-0.65,4.18,4.19,4.18
70.07,4.90,0.75,4.91,0.76,-0.76,-0.95,-0.68,4.15,4.15,4.15
70.77,4.98,0.86,4.98,0.85,-0.86,-1.04,-0.70,4.12,4.12,4.12
71.48,5.04,0.95,5.05,0.96,-0.97,-1.14,-0.73,4.07,4.08,4.09
72.19,5.14,1.09,5.14,1.08,-1.09,-1.23,-0.76,4.06,4.05,4.05
72.91,5.22,1.20,5.22,1.20,-1.21,-1.33,-0.79,4.01,4.01,4.02
73.64,5.31,1.33,5.32,1.34,-1.35,-1.42,-0.82,3.97,3.97,3.98
74.38,5.42,1.47,5.42,1.47,-1.48,-1.52,-0.85,3.94,3.94,3.95
75.12,5.53,1.62,5.54,1.62,-1.62,-1.62,-0.88,3.91,3.91,3.91
75.87,5.66,1.78,5.66,1.78,-1.77,-1.71,-0.91,3.90,3.89,3.88
76.63,5.77,1.92,5.77,1.92,-1.91,-1.81,-0.94,3.86,3.86,3.85
77.40,5.88,2.06,5.88,2.06,-2.05,-1.90,-0.98,3.83,3.83,3.82
78.17,5.96,2.18,5.98,2.19,-2.19,-2.00,-1.01,3.78,3.79,3.78
78.95,6.07,2.32,6.07,2.32,-2.32,-2.09,-1.04,3.75,3.75,3.75
79.74,6.16,2.44,6.16,2.44,-2.45,-2.19,-1.08,3.72,3.72,3.72
80.54,6.24,2.56,6.25,2.57,-2.56,-2.28,-1.12,3.68,3.69,3.68
81.35,6.33,2.68,6.33,2.68,-2.67,-2.37,-1.15,3.66,3.65,3.65
82.16,6.39,2.78,6.40,2.78,-2.78,-2.47,-1.19,3.62,3.62,3.61
82.98,6.45,2.87,6.46,2.88,-2.88,-2.56,-1.23,3.58,3.58,3.58
83.81,6.51,2.97,6.51,2.97,-2.97,-2.64,-1.27,3.55,3.54,3.54
84.65,6.56,3.06,6.56,3.05,-3.06,-2.73,-1.31,3.51,3.50,3.50
85.50,6.60,3.13,6.60,3.13,-3.14,-2.81,-1.35,3.47,3.46,3.47
86.35,6.63,3.20,6.64,3.21,-3.22,-2.90,-1.40,3.42,3.43,3.43
87.22,6.68,3.29,6.68,3.29,-3.29,-2.98,-1.44,3.39,3.38,3.39
88.09,6.72,3.37,6.71,3.36,-3.36,-3.06,-1.49,3.36,3.35,3.35
88.97,6.72,3.41,6.74,3.43,-3.43,-3.13,-1.53,3.29,3.31,3.31
89.86,6.77,3.50,6.76,3.49,-3.49,-3.20,-1.58,3.28,3.27,3.27
90.76,6.77,3.55,6.77,3.55,-3.55,-3.27,-1.63,3.23,3.23,3.22
91.66,6.77,3.59,6.78,3.60,-3.59,-3.34,-1.68,3.18,3.19,3.18
92.58,6.77,3.64,6.77,3.64,-3.63,-3.40,-1.74,3.14,3.14,3.13
93.51,6.76,3.67,6.76,3.66,-3.66,-3.46,-1.79,3.10,3.10,3.09
94.44,6.72,3.67,6.73,3.68,-3.68,-3.51,-1.84,3.04,3.05,3.05
95.39,6.69,3.69,6.69,3.69,-3.69,-3.56,-1.90,3.00,3.00,3.00
96.34,6.64,3.69,6.65,3.70,-3.69,-3.60,-1.96,2.95,2.96,2.95
97.30,6.61,3.71,6.60,3.70,-3.69,-3.64,-2.01,2.92,2.91,2.90
98.28,6.54,3.69,6.55,3.69,-3.69,-3.68,-2.07,2.86,2.86,2.85
99.26,6.48,3.67,6.48,3.68,-3.68,-3.71,-2.13,2.80,2.80,2.81
100.25,6.42,3.66,6.43,3.66,-3.68,-3.73,-2.19,2.74,2.74,2.76
101.25,6.37,3.66,6.38,3.67,-3.68,-3.75,-2.25,2.69,2.70,2.71
102.27,6.34,3.68,6.34,3.68,-3.68,-3.76,-2.30,2.66,2.65,2.66
103.29,6.30,3.69,6.30,3.69,-3.69,-3.77,-2.36,2.62,2.61,2.61
104.32,6.25,3.68,6.26,3.69,-3.69,-3.77,-2.42,2.56,2.57,2.57
105.37,6.22,3.70,6.22,3.69,-3.69,-3.77,-2.48,2.53,2.52,2.52
106.42,6.16,3.69,6.17,3.70,-3.69,-3.76,-2.54,2.47,2.48,2.47
107.48,6.12,3.70,6.12,3.70,-3.69,-3.74,-2.59,2.44,2.43,2.42
108.56,6.06,3.69,6.06,3.69,-3.68,-3.72,-2.65,2.39,2.38,2.37
109.64,5.98,3.66,5.99,3.66,-3.66,-3.69,-2.70,2.33,2.33,2.32
110.74,5.91,3.64,5.91,3.63,-3.64,-3.66,-2.75,2.28,2.27,2.27
111.85,5.80,3.58,5.82,3.60,-3.61,-3.62,-2.79,2.20,2.21,2.22
112.97,5.74,3.58,5.73,3.57,-3.58,-3.57,-2.84,2.17,2.16,2.16
114.10,5.63,3.52,5.65,3.54,-3.54,-3.52,-2.88,2.09,2.10,2.11
115.24,5.57,3.52,5.56,3.51,-3.51,-3.46,-2.91,2.07,2.05,2.05
116.39,5.46,3.46,5.47,3.47,-3.47,-3.40,-2.95,1.99,2.00,2.00
117.55,5.36,3.42,5.37,3.43,-3.43,-3.34,-2.97,1.94,1.95,1.94
118.73,5.27,3.38,5.27,3.38,-3.38,-3.27,-3.00,1.90,1.89,1.89
119.92,5.16,3.32,5.17,3.32,-3.32,-3.19,-3.02,1.84,1.84,1.84
121.12,5.05,3.26,5.05,3.26,-3.26,-3.11,-3.03,1.80,1.80,1.79
122.33,4.92,3.18,4.92,3.18,-3.18,-3.02,-3.04,1.74,1.75,1.74
123.55,4.78,3.09,4.78,3.09,-3.09,-2.93,-3.04,1.69,1.70,1.69
124.79,4.63,2.99,4.63,2.99,-2.98,-2.83,-3.04,1.65,1.65,1.64
126.03,4.46,2.87,4.47,2.88,-2.86,-2.74,-3.03,1.60,1.61,1.59
127.29,4.29,2.75,4.29,2.75,-2.73,-2.63,-3.01,1.56,1.56,1.54
128.57,4.09,2.61,4.09,2.60,-2.58,-2.53,-2.99,1.51,1.50,1.48
129.85,3.86,2.43,3.88,2.44,-2.43,-2.42,-2.97,1.43,1.44,1.43
131.15,3.66,2.28,3.65,2.27,-2.28,-2.31,-2.94,1.39,1.38,1.38
132.46,3.44,2.11,3.45,2.11,-2.12,-2.19,-2.90,1.32,1.33,1.33
133.79,3.24,1.95,3.25,1.96,-1.98,-2.08,-2.86,1.26,1.27,1.29
135.12,3.08,1.84,3.07,1.82,-1.85,-1.96,-2.81,1.23,1.22,1.24
136.48,2.89,1.69,2.90,1.70,-1.74,-1.84,-2.76,1.16,1.16,1.20
137.84,2.75,1.60,2.76,1.61,-1.64,-1.72,-2.70,1.11,1.12,1.15
139.22,2.64,1.54,2.64,1.54,-1.56,-1.60,-2.65,1.08,1.08,1.10
140.61,2.55,1.49,2.55,1.49,-1.49,-1.47,-2.58,1.07,1.07,1.06
142.02,2.46,1.43,2.46,1.43,-1.42,-1.35,-2.52,1.05,1.05,1.03
143.44,2.36,1.37,2.36,1.37,-1.34,-1.23,-2.45,1.02,1.02,0.99
144.87,2.23,1.28,2.24,1.28,-1.25,-1.11,-2.38,0.98,0.98,0.95
146.32,2.09,1.18,2.10,1.18,-1.16,-0.98,-2.31,0.94,0.94,0.91
147.78,1.94,1.06,1.94,1.06,-1.04,-0.86,-2.24,0.90,0.89,0.88
149.26,1.76,0.92,1.76,0.92,-0.91,-0.74,-2.16,0.85,0.85,0.84
150.75,1.57,0.77,1.58,0.77,-0.78,-0.63,-2.09,0.80,0.80,0.80
152.26,1.38,0.62,1.38,0.62,-0.63,-0.51,-2.01,0.75,0.75,0.76
153.78,1.19,0.47,1.20,0.48,-0.49,-0.40,-1.93,0.71,0.71,0.72
155.32,1.01,0.33,1.01,0.33,-0.34,-0.29,-1.85,0.67,0.67,0.68
156.88,0.84,0.20,0.84,0.19,-0.20,-0.18,-1.78,0.64,0.63,0.64
158.44,0.65,0.05,0.67,0.07,-0.07,-0.08,-1.70,0.58,0.60,0.60
160.03,0.51,-0.05,0.51,-0.05,0.06,0.02,-1.62,0.57,0.57,0.56
161.63,0.35,-0.17,0.35,-0.17,0.18,0.11,-1.54,0.54,0.53,0.52
163.24,0.19,-0.29,0.19,-0.29,0.30,0.20,-1.46,0.49,0.49,0.48
164.88,0.02,-0.43,0.03,-0.42,0.41,0.28,-1.38,0.44,0.44,0.45
166.53,-0.12,-0.53,-0.12,-0.53,0.52,0.37,-1.31,0.40,0.40,0.41
168.19,-0.25,-0.62,-0.25,-0.62,0.62,0.44,-1.23,0.37,0.37,0.37
169.87,-0.38,-0.71,-0.37,-0.70,0.71,0.51,-1.15,0.34,0.34,0.33
171.57,-0.49,-0.78,-0.50,-0.79,0.79,0.57,-1.08,0.31,0.30,0.29
173.29,-0.62,-0.88,-0.61,-0.87,0.87,0.63,-1.00,0.25,0.25,0.26
175.02,-0.73,-0.95,-0.71,-0.93,0.92,0.68,-0.93,0.20,0.21,0.22
176.77,-0.79,-0.97,-0.80,-0.98,0.97,0.73,-0.86,0.19,0.17,0.18
178.54,-0.88,-1.02,-0.87,-1.01,1.01,0.77,-0.78,0.13,0.14,0.14
180.32,-0.94,-1.04,-0.93,-1.04,1.04,0.80,-0.71,0.10,0.10,0.10
182.13,-0.99,-1.06,-0.99,-1.05,1.06,0.83,-0.64,0.07,0.07,0.07
183.95,-1.03,-1.06,-1.03,-1.06,1.07,0.86,-0.57,0.04,0.04,0.03
185.79,-1.06,-1.06,-1.06,-1.06,1.07,0.88,-0.50,0.01,0.01,0.00
187.65,-1.11,-1.07,-1.10,-1.06,1.07,0.89,-0.43,-0.04,-0.03,-0.04
189.52,-1.13,-1.06,-1.13,-1.06,1.06,0.90,-0.36,-0.07,-0.07,-0.07
191.42,-1.16,-1.06,-1.15,-1.05,1.04,0.91,-0.29,-0.11,-0.11,-0.10
193.33,-1.16,-1.03,-1.16,-1.03,1.03,0.91,-0.23,-0.13,-0.13,-0.13
195.27,-1.16,-1.00,-1.16,-1.00,1.00,0.91,-0.16,-0.15,-0.15,-0.16
197.22,-1.16,-0.97,-1.16,-0.97,0.98,0.90,-0.09,-0.18,-0.18,-0.19
199.19,-1.16,-0.94,-1.16,-0.94,0.95,0.90,-0.03,-0.21,-0.21,-0.22
201.18,-1.16,-0.92,-1.15,-0.91,0.91,0.89,0.03,-0.25,-0.24,-0.24
203.19,-1.14,-0.88,-1.14,-0.88,0.87,0.87,0.10,-0.27,-0.27,-0.26
205.23,-1.11,-0.83,-1.11,-0.84,0.82,0.86,0.16,-0.28,-0.29,-0.28
207.28,-1.08,-0.79,-1.07,-0.78,0.78,0.84,0.22,-0.30,-0.30,-0.29
209.35,-1.04,-0.73,-1.03,-0.72,0.72,0.82,0.28,-0.31,-0.31,-0.31
211.44,-0.99,-0.66,-0.99,-0.67,0.67,0.80,0.34,-0.32,-0.32,-0.33
213.56,-0.95,-0.61,-0.94,-0.61,0.61,0.78,0.39,-0.33,-0.33,-0.34
215.69,-0.90,-0.56,-0.90,-0.55,0.55,0.76,0.45,-0.34,-0.34,-0.34
217.85,-0.85,-0.50,-0.85,-0.50,0.50,0.74,0.50,-0.35,-0.35,-0.35
220.03,-0.81,-0.45,-0.80,-0.45,0.45,0.71,0.55,-0.36,-0.36,-0.36
222.23,-0.76,-0.39,-0.76,-0.40,0.40,0.69,0.60,-0.36,-0.36,-0.37
224.45,-0.73,-0.36,-0.72,-0.35,0.36,0.66,0.65,-0.37,-0.36,-0.37
226.70,-0.69,-0.32,-0.68,-0.31,0.32,0.64,0.69,-0.37,-0.36,-0.37
228.96,-0.65,-0.28,-0.65,-0.29,0.28,0.62,0.74,-0.36,-0.37,-0.37
231.25,-0.62,-0.26,-0.62,-0.25,0.25,0.59,0.78,-0.36,-0.36,-0.36
233.57,-0.60,-0.24,-0.59,-0.23,0.23,0.57,0.82,-0.37,-0.36,-0.36
235.90,-0.55,-0.19,-0.56,-0.21,0.20,0.54,0.85,-0.34,-0.36,-0.36
238.26,-0.55,-0.20,-0.53,-0.18,0.18,0.52,0.88,-0.36,-0.35,-0.35
240.64,-0.50,-0.16,-0.50,-0.16,0.17,0.50,0.91,-0.33,-0.34,-0.34
243.05,-0.48,-0.15,-0.48,-0.15,0.15,0.48,0.94,-0.33,-0.33,-0.33
245.48,-0.46,-0.14,-0.45,-0.13,0.14,0.46,0.96,-0.32,-0.32,-0.32
247.93,-0.45,-0.14,-0.44,-0.13,0.13,0.43,0.98,-0.32,-0.31,-0.31
250.41,-0.41,-0.11,-0.42,-0.13,0.12,0.41,1.00,-0.29,-0.30,-0.30
252.92,-0.41,-0.13,-0.40,-0.12,0.12,0.39,1.01,-0.29,-0.28,-0.28
255.45,-0.39,-0.13,-0.38,-0.12,0.12,0.38,1.02,-0.27,-0.26,-0.26
258.00,-0.36,-0.11,-0.37,-0.12,0.12,0.36,1.03,-0.23,-0.24,-0.25
260.58,-0.36,-0.13,-0.36,-0.13,0.13,0.34,1.03,-0.22,-0.22,-0.23
263.19,-0.36,-0.15,-0.35,-0.14,0.15,0.32,1.03,-0.21,-0.21,-0.21
265.82,-0.36,-0.17,-0.36,-0.17,0.17,0.31,1.03,-0.19,-0.19,-0.19
268.48,-0.36,-0.19,-0.35,-0.18,0.19,0.29,1.03,-0.17,-0.16,-0.17
271.16,-0.36,-0.21,-0.36,-0.21,0.22,0.28,1.02,-0.14,-0.14,-0.15
273.87,-0.36,-0.23,-0.37,-0.24,0.24,0.26,1.01,-0.11,-0.13,-0.13
276.61,-0.41,-0.30,-0.39,-0.28,0.27,0.25,1.00,-0.13,-0.11,-0.11
279.38,-0.41,-0.32,-0.40,-0.31,0.31,0.24,0.99,-0.10,-0.09,-0.09
282.17,-0.41,-0.34,-0.41,-0.34,0.34,0.23,0.98,-0.07,-0.07,-0.07
284.99,-0.41,-0.36,-0.42,-0.37,0.37,0.22,0.96,-0.03,-0.05,-0.05
287.84,-0.44,-0.41,-0.43,-0.40,0.41,0.21,0.94,-0.03,-0.03,-0.03
290.72,-0.46,-0.45,-0.44,-0.44,0.44,0.20,0.92,-0.02,-0.00,-0.01
293.63,-0.46,-0.47,-0.46,-0.47,0.47,0.19,0.90,0.02,0.01,0.01
296.57,-0.46,-0.49,-0.47,-0.50,0.51,0.18,0.88,0.05,0.03,0.03
299.53,-0.50,-0.55,-0.48,-0.54,0.54,0.17,0.86,0.04,0.06,0.05
302.53,-0.50,-0.57,-0.49,-0.57,0.57,0.16,0.84,0.07,0.08,0.07
305.55,-0.50,-0.60,-0.50,-0.60,0.60,0.16,0.82,0.10,0.10,0.10
308.61,-0.50,-0.62,-0.50,-0.62,0.62,0.15,0.79,0.12,0.12,0.12
311.69,-0.50,-0.65,-0.49,-0.64,0.63,0.15,0.77,0.14,0.14,0.15
314.81,-0.47,-0.65,-0.47,-0.65,0.64,0.14,0.75,0.18,0.17,0.18
317.96,-0.46,-0.66,-0.45,-0.65,0.64,0.14,0.72,0.19,0.19,0.20
321.14,-0.41,-0.63,-0.42,-0.64,0.63,0.13,0.70,0.23,0.22,0.22
324.35,-0.39,-0.63,-0.38,-0.62,0.62,0.13,0.67,0.23,0.24,0.24
327.59,-0.34,-0.60,-0.34,-0.60,0.60,0.13,0.65,0.26,0.26,0.26
330.87,-0.29,-0.57,-0.29,-0.58,0.58,0.12,0.63,0.29,0.28,0.28
334.18,-0.26,-0.56,-0.25,-0.55,0.55,0.12,0.60,0.30,0.31,0.30
337.52,-0.20,-0.52,-0.20,-0.52,0.53,0.12,0.58,0.33,0.33,0.32
340.90,-0.16,-0.50,-0.16,-0.50,0.50,0.12,0.56,0.35,0.34,0.34
344.30,-0.12,-0.48,-0.12,-0.48,0.48,0.12,0.53,0.36,0.36,0.36
347.75,-0.09,-0.47,-0.08,-0.46,0.46,0.12,0.51,0.37,0.38,0.38
351.23,-0.03,-0.43,-0.04,-0.44,0.43,0.12,0.49,0.41,0.40,0.40
354.74,0.00,-0.42,0.01,-0.41,0.41,0.12,0.47,0.41,0.42,0.42
358.28,0.05,-0.38,0.05,-0.38,0.39,0.12,0.45,0.44,0.44,0.43
361.87,0.09,-0.36,0.09,-0.36,0.36,0.12,0.43,0.46,0.45,0.45
365.49,0.12,-0.35,0.13,-0.34,0.34,0.12,0.41,0.46,0.47,0.47
369.14,0.17,-0.31,0.17,-0.32,0.31,0.13,0.39,0.49,0.48,0.48
372.83,0.20,-0.30,0.20,-0.30,0.29,0.13,0.37,0.49,0.49,0.50
376.56,0.23,-0.28,0.25,-0.27,0.27,0.13,0.35,0.50,0.51,0.51
380.33,0.29,-0.24,0.28,-0.25,0.24,0.13,0.33,0.54,0.53,0.53
384.13,0.32,-0.22,0.32,-0.22,0.22,0.14,0.31,0.55,0.55,0.54
387.97,0.35,-0.20,0.36,-0.20,0.20,0.14,0.29,0.56,0.56,0.55
391.85,0.38,-0.18,0.38,-0.18,0.18,0.15,0.28,0.57,0.57,0.56
395.77,0.41,-0.17,0.41,-0.17,0.17,0.15,0.26,0.58,0.58,0.58
399.73,0.43,-0.16,0.44,-0.15,0.15,0.16,0.24,0.58,0.59,0.59
403.72,0.47,-0.13,0.47,-0.14,0.13,0.16,0.23,0.61,0.60,0.60
407.76,0.48,-0.13,0.49,-0.12,0.12,0.17,0.21,0.60,0.61,0.61
411.84,0.52,-0.10,0.52,-0.11,0.11,0.17,0.20,0.63,0.62,0.62
415.96,0.52,-0.11,0.54,-0.10,0.09,0.18,0.18,0.62,0.63,0.63
420.12,0.57,-0.07,0.56,-0.08,0.08,0.19,0.17,0.65,0.64,0.64
424.32,0.57,-0.08,0.58,-0.07,0.07,0.19,0.16,0.64,0.65,0.65
428.56,0.61,-0.05,0.61,-0.05,0.06,0.20,0.15,0.67,0.66,0.66
432.85,0.61,-0.06,0.63,-0.05,0.05,0.21,0.14,0.66,0.68,0.67
437.18,0.65,-0.03,0.64,-0.04,0.04,0.22,0.13,0.70,0.69,0.68
441.55,0.66,-0.04,0.66,-0.04,0.04,0.22,0.12,0.70,0.70,0.70
445.96,0.66,-0.05,0.68,-0.03,0.03,0.23,0.11,0.69,0.71,0.71
450.42,0.71,-0.01,0.70,-0.03,0.03,0.24,0.10,0.74,0.72,0.72
454.93,0.71,-0.03,0.72,-0.02,0.02,0.25,0.09,0.74,0.74,0.74
459.48,0.72,-0.03,0.73,-0.02,0.02,0.26,0.09,0.74,0.75,0.75
464.07,0.75,-0.01,0.75,-0.02,0.01,0.27,0.08,0.77,0.76,0.76
468.71,0.75,-0.03,0.77,-0.01,0.01,0.28,0.08,0.76,0.78,0.78
473.40,0.80,0.01,0.79,-0.01,0.01,0.29,0.07,0.81,0.79,0.79
478.13,0.80,-0.01,0.80,-0.01,0.00,0.31,0.07,0.81,0.80,0.81
482.91,0.80,-0.02,0.82,-0.01,0.00,0.32,0.07,0.81,0.82,0.82
487.74,0.83,-0.01,0.83,-0.01,0.01,0.33,0.07,0.84,0.84,0.84
492.62,0.85,-0.01,0.85,-0.01,0.02,0.34,0.07,0.87,0.87,0.86
497.55,0.85,-0.02,0.85,-0.02,0.04,0.36,0.08,0.89,0.89,0.87
502.52,0.84,-0.05,0.84,-0.05,0.06,0.37,0.08,0.90,0.90,0.89
507.55,0.80,-0.10,0.82,-0.08,0.09,0.38,0.08,0.89,0.91,0.90
512.62,0.80,-0.12,0.80,-0.13,0.12,0.40,0.09,0.92,0.91,0.92
517.75,0.78,-0.16,0.78,-0.16,0.15,0.41,0.10,0.94,0.93,0.94
522.93,0.75,-0.21,0.76,-0.20,0.19,0.43,0.11,0.94,0.95,0.96
528.16,0.75,-0.22,0.74,-0.23,0.23,0.45,0.12,0.98,0.97,0.97
533.44,0.71,-0.28,0.72,-0.27,0.27,0.46,0.13,0.98,0.99,0.99
538.77,0.71,-0.30,0.71,-0.30,0.31,0.48,0.14,1.02,1.02,1.01
