frequency,raw,error,smoothed,error_smoothed,equalization,parametric_eq,fixed_band_eq,equalized_raw,equalized_smoothed,target
20.00,-15.54,-19.09,-15.53,-19.11,19.11,19.46,7.94,3.57,3.57,3.55
20.20,-15.43,-19.02,-15.42,-19.03,19.03,19.34,8.10,3.60,3.61,3.59
20.40,-15.30,-18.94,-15.31,-18.94,18.94,19.21,8.27,3.64,3.64,3.63
20.61,-15.20,-18.86,-15.19,-18.86,18.86,19.09,8.45,3.66,3.66,3.66
20.81,-15.07,-18.78,-15.08,-18.77,18.77,18.97,8.63,3.70,3.69,3.70
21.02,-14.97,-18.71,-14.96,-18.68,18.68,18.85,8.81,3.72,3.72,3.74
21.23,-14.85,-18.61,-14.85,-18.59,18.59,18.73,9.00,3.75,3.74,3.76
21.44,-14.73,-18.52,-14.73,-18.50,18.50,18.61,9.19,3.77,3.77,3.78
21.66,-14.62,-18.42,-14.62,-18.40,18.40,18.50,9.39,3.79,3.79,3.80
21.87,-14.50,-18.32,-14.50,-18.31,18.31,18.38,9.59,3.80,3.81,3.81
22.09,-14.38,-18.22,-14.38,-18.21,18.21,18.26,9.80,3.82,3.82,3.83
22.31,-14.26,-18.11,-14.27,-18.11,18.11,18.15,10.01,3.84,3.84,3.84
22.54,-14.15,-18.00,-14.15,-18.00,18.00,18.04,10.23,3.86,3.85,3.85
22.76,-14.02,-17.89,-14.03,-17.89,17.89,17.92,10.45,3.87,3.86,3.86
22.99,-13.92,-17.78,-13.91,-17.78,17.78,17.81,10.68,3.87,3.87,3.86
23.22,-13.80,-17.67,-13.79,-17.67,17.67,17.70,10.92,3.88,3.88,3.87
23.45,-13.67,-17.56,-13.67,-17.56,17.56,17.59,11.16,3.89,3.89,3.88
23.69,-13.56,-17.45,-13.55,-17.45,17.45,17.48,11.41,3.89,3.90,3.89
23.92,-13.43,-17.34,-13.43,-17.34,17.34,17.37,11.67,3.90,3.91,3.90
24.16,-13.31,-17.24,-13.31,-17.23,17.23,17.26,11.94,3.91,3.92,3.92
24.40,-13.18,-17.13,-13.19,-17.11,17.11,17.15,12.21,3.93,3.92,3.94
24.65,-13.07,-17.00,-13.07,-17.00,17.00,17.04,12.49,3.93,3.93,3.93
24.89,-12.93,-16.88,-12.94,-16.89,16.89,16.93,12.77,3.95,3.95,3.94
25.14,-12.81,-16.77,-12.82,-16.77,16.77,16.82,13.07,3.96,3.96,3.95
25.39,-12.69,-16.66,-12.70,-16.66,16.66,16.71,13.37,3.97,3.97,3.96
25.65,-12.58,-16.56,-12.57,-16.55,16.55,16.60,13.68,3.97,3.98,3.98
25.91,-12.45,-16.43,-12.45,-16.43,16.43,16.49,14.00,3.98,3.99,3.98
26.16,-12.32,-16.32,-12.32,-16.32,16.32,16.38,14.32,3.99,4.00,3.99
26.43,-12.20,-16.20,-12.20,-16.20,16.20,16.27,14.65,4.00,4.00,4.00
26.69,-12.08,-16.09,-12.07,-16.08,16.08,16.16,14.99,4.01,4.01,4.01
26.96,-11.95,-15.98,-11.95,-15.97,15.97,16.05,15.33,4.02,4.02,4.03
27.23,-11.82,-15.86,-11.82,-15.85,15.85,15.94,15.68,4.03,4.03,4.04
27.50,-11.70,-15.74,-11.69,-15.74,15.74,15.83,16.03,4.04,4.04,4.04
27.77,-11.56,-15.61,-11.57,-15.62,15.62,15.72,16.38,4.05,4.05,4.04
28.05,-11.44,-15.51,-11.44,-15.50,15.50,15.61,16.73,4.06,4.06,4.06
28.33,-11.31,-15.38,-11.31,-15.38,15.38,15.50,17.08,4.07,4.07,4.06
28.62,-11.19,-15.26,-11.19,-15.26,15.26,15.38,17.42,4.07,4.07,4.07
28.90,-11.05,-15.14,-11.06,-15.14,15.14,15.27,17.74,4.09,4.08,4.08
29.19,-10.94,-15.02,-10.93,-15.02,15.02,15.16,18.04,4.09,4.09,4.08
29.48,-10.80,-14.92,-10.81,-14.90,14.90,15.04,18.32,4.10,4.10,4.11
29.78,-10.68,-14.78,-10.68,-14.78,14.78,14.93,18.57,4.11,4.10,4.10
30.08,-10.56,-14.67,-10.55,-14.66,14.66,14.81,18.78,4.10,4.11,4.11
30.38,-10.43,-14.54,-10.42,-14.54,14.54,14.70,18.95,4.11,4.12,4.11
30.68,-10.30,-14.43,-10.29,-14.42,14.42,14.58,19.07,4.12,4.12,4.13
30.99,-10.18,-14.31,-10.17,-14.30,14.30,14.46,19.13,4.12,4.13,4.13
31.30,-10.04,-14.17,-10.04,-14.17,14.17,14.34,19.13,4.14,4.14,4.13
31.61,-9.91,-14.05,-9.91,-14.05,14.05,14.23,19.08,4.15,4.15,4.14
31.93,-9.78,-13.93,-9.78,-13.93,13.93,14.11,18.98,4.15,4.15,4.15
32.24,-9.64,-13.80,-9.65,-13.81,13.81,13.99,18.82,4.16,4.16,4.15
32.57,-9.52,-13.69,-9.51,-13.68,13.68,13.87,18.62,4.17,4.17,4.17
32.89,-9.38,-13.56,-9.38,-13.56,13.56,13.75,18.39,4.17,4.17,4.17
33.22,-9.25,-13.44,-9.25,-13.43,13.43,13.62,18.12,4.18,4.18,4.18
33.55,-9.12,-13.32,-9.12,-13.31,13.31,13.50,17.83,4.19,4.19,4.19
33.89,-9.00,-13.20,-8.99,-13.19,13.19,13.38,17.51,4.19,4.20,4.20
34.23,-8.87,-13.07,-8.87,-13.07,13.07,13.26,17.19,4.20,4.20,4.20
34.57,-8.74,-12.95,-8.74,-12.95,12.95,13.13,16.86,4.21,4.21,4.21
34.92,-8.61,-12.82,-8.62,-12.83,12.83,13.01,16.52,4.22,4.21,4.21
35.27,-8.49,-12.71,-8.49,-12.71,12.71,12.89,16.18,4.22,4.22,4.22
35.62,-8.37,-12.59,-8.37,-12.59,12.59,12.76,15.85,4.23,4.22,4.22
35.97,-8.24,-12.47,-8.25,-12.47,12.47,12.64,15.51,4.23,4.23,4.22
36.33,-8.13,-12.37,-8.13,-12.36,12.36,12.51,15.18,4.22,4.23,4.23
36.70,-8.02,-12.24,-8.02,-12.24,12.24,12.39,14.86,4.23,4.23,4.22
37.06,-7.90,-12.14,-7.90,-12.13,12.13,12.26,14.54,4.23,4.23,4.23
37.43,-7.78,-12.02,-7.79,-12.02,12.02,12.14,14.23,4.23,4.23,4.23
37.81,-7.68,-11.91,-7.68,-11.91,11.91,12.01,13.93,4.23,4.23,4.23
38.19,-7.57,-11.80,-7.57,-11.79,11.79,11.89,13.64,4.23,4.23,4.23
38.57,-7.46,-11.68,-7.46,-11.68,11.68,11.76,13.35,4.23,4.22,4.22
38.95,-7.34,-11.57,-7.35,-11.57,11.57,11.63,13.07,4.23,4.22,4.22
39.34,-7.24,-11.46,-7.24,-11.46,11.46,11.51,12.80,4.22,4.22,4.21
39.74,-7.15,-11.36,-7.13,-11.35,11.35,11.38,12.54,4.20,4.22,4.21
40.14,-7.04,-11.25,-7.03,-11.24,11.24,11.26,12.29,4.20,4.21,4.21
40.54,-6.93,-11.14,-6.92,-11.13,11.13,11.13,12.04,4.20,4.21,4.21
40.94,-6.81,-11.02,-6.81,-11.02,11.02,11.01,11.80,4.21,4.21,4.20
41.35,-6.70,-10.91,-6.71,-10.91,10.91,10.88,11.57,4.21,4.21,4.20
41.76,-6.59,-10.80,-6.60,-10.80,10.80,10.76,11.35,4.21,4.20,4.20
42.18,-6.48,-10.69,-6.50,-10.69,10.69,10.63,11.13,4.21,4.20,4.20
42.60,-6.38,-10.59,-6.39,-10.59,10.59,10.51,10.92,4.20,4.20,4.20
43.03,-6.28,-10.48,-6.28,-10.48,10.48,10.38,10.71,4.20,4.19,4.20
43.46,-6.18,-10.38,-6.18,-10.37,10.37,10.26,10.51,4.19,4.19,4.20
43.90,-6.08,-10.26,-6.07,-10.26,10.26,10.14,10.32,4.19,4.19,4.18
44.33,-5.97,-10.16,-5.97,-10.15,10.15,10.02,10.13,4.18,4.19,4.18
44.78,-5.87,-10.04,-5.86,-10.05,10.05,9.89,9.95,4.18,4.18,4.17
45.23,-5.77,-9.94,-5.76,-9.94,9.94,9.77,9.78,4.17,4.18,4.17
45.68,-5.66,-9.83,-5.65,-9.83,9.83,9.65,9.61,4.17,4.18,4.17
46.13,-5.54,-9.71,-5.54,-9.71,9.71,9.53,9.45,4.17,4.17,4.16
46.60,-5.44,-9.61,-5.44,-9.60,9.60,9.41,9.29,4.17,4.17,4.17
47.06,-5.33,-9.50,-5.33,-9.49,9.49,9.29,9.13,4.15,4.16,4.16
47.53,-5.22,-9.38,-5.22,-9.37,9.37,9.17,8.98,4.15,4.15,4.15
48.01,-5.12,-9.28,-5.11,-9.25,9.25,9.06,8.84,4.14,4.14,4.16
48.49,-5.01,-9.15,-5.00,-9.14,9.14,8.94,8.70,4.13,4.13,4.14
48.97,-4.89,-9.02,-4.90,-9.02,9.02,8.82,8.56,4.12,4.12,4.12
49.46,-4.78,-8.90,-4.79,-8.90,8.90,8.71,8.43,4.12,4.11,4.11
49.96,-4.68,-8.77,-4.68,-8.78,8.78,8.59,8.30,4.11,4.10,4.09
50.46,-4.58,-8.67,-4.58,-8.66,8.66,8.48,8.17,4.09,4.09,4.09
50.96,-4.48,-8.55,-4.47,-8.54,8.54,8.36,8.05,4.07,4.07,4.07
51.47,-4.38,-8.42,-4.37,-8.43,8.43,8.25,7.93,4.05,4.05,4.04
51.99,-4.27,-8.30,-4.27,-8.31,8.31,8.14,7.82,4.04,4.04,4.03
52.51,-4.18,-8.20,-4.17,-8.19,8.19,8.03,7.70,4.02,4.02,4.02
53.03,-4.08,-8.08,-4.08,-8.08,8.08,7.92,7.59,4.00,4.00,4.00
53.56,-3.99,-7.98,-3.99,-7.97,7.97,7.81,7.49,3.98,3.98,3.99
54.10,-3.89,-7.85,-3.89,-7.86,7.86,7.70,7.38,3.97,3.96,3.96
54.64,-3.81,-7.76,-3.81,-7.75,7.75,7.59,7.28,3.94,3.94,3.95
55.18,-3.71,-7.64,-3.72,-7.64,7.64,7.49,7.18,3.93,3.93,3.92
55.74,-3.64,-7.53,-3.63,-7.54,7.54,7.38,7.08,3.90,3.91,3.89
56.29,-3.55,-7.45,-3.55,-7.44,7.44,7.28,6.98,3.88,3.89,3.89
56.86,-3.47,-7.33,-3.47,-7.33,7.33,7.17,6.89,3.87,3.86,3.86
57.42,-3.38,-7.22,-3.39,-7.23,7.23,7.07,6.79,3.85,3.84,3.83
58.00,-3.31,-7.12,-3.31,-7.13,7.13,6.97,6.70,3.82,3.82,3.81
58.58,-3.24,-7.03,-3.23,-7.03,7.03,6.87,6.60,3.79,3.79,3.79
59.16,-3.16,-6.94,-3.16,-6.92,6.92,6.77,6.51,3.76,3.77,3.77
59.76,-3.08,-6.83,-3.08,-6.82,6.82,6.67,6.42,3.74,3.74,3.75
60.35,-3.00,-6.73,-3.01,-6.71,6.71,6.57,6.32,3.71,3.71,3.72
60.96,-2.94,-6.63,-2.93,-6.61,6.61,6.48,6.23,3.67,3.68,3.69
61.57,-2.86,-6.50,-2.86,-6.50,6.50,6.38,6.14,3.64,3.64,3.64
62.18,-2.79,-6.39,-2.78,-6.39,6.39,6.29,6.05,3.61,3.61,3.60
62.80,-2.70,-6.29,-2.71,-6.28,6.28,6.19,5.96,3.58,3.58,3.58
63.43,-2.64,-6.17,-2.63,-6.17,6.17,6.10,5.86,3.54,3.54,3.53
64.07,-2.56,-6.05,-2.56,-6.06,6.06,6.01,5.77,3.50,3.50,3.49
64.71,-2.48,-5.94,-2.48,-5.94,5.94,5.92,5.68,3.47,3.46,3.46
65.35,-2.40,-5.83,-2.40,-5.83,5.83,5.83,5.59,3.42,3.42,3.42
66.01,-2.33,-5.71,-2.32,-5.71,5.71,5.74,5.49,3.38,3.39,3.38
66.67,-2.26,-5.61,-2.25,-5.59,5.59,5.65,5.40,3.34,3.35,3.35
67.33,-2.17,-5.49,-2.17,-5.47,5.47,5.57,5.31,3.30,3.31,3.31
68.01,-2.10,-5.37,-2.09,-5.36,5.36,5.48,5.21,3.26,3.27,3.27
68.69,-2.02,-5.25,-2.01,-5.24,5.24,5.40,5.12,3.23,3.23,3.23
69.37,-1.92,-5.12,-1.93,-5.12,5.12,5.31,5.03,3.20,3.19,3.19
70.07,-1.85,-5.00,-1.85,-5.01,5.01,5.23,4.94,3.16,3.15,3.15
70.77,-1.78,-4.89,-1.78,-4.89,4.89,5.15,4.84,3.12,3.11,3.11
71.48,-1.70,-4.78,-1.70,-4.78,4.78,5.07,4.75,3.08,3.08,3.08
72.19,-1.62,-4.65,-1.63,-4.66,4.66,4.99,4.66,3.05,3.04,3.03
72.91,-1.56,-4.56,-1.55,-4.55,4.55,4.91,4.57,3.00,3.00,3.00
73.64,-1.49,-4.45,-1.48,-4.44,4.44,4.83,4.48,2.96,2.97,2.96
74.38,-1.42,-4.35,-1.41,-4.34,4.34,4.76,4.39,2.92,2.93,2.93
75.12,-1.35,-4.24,-1.34,-4.23,4.23,4.68,4.31,2.89,2.90,2.89
75.87,-1.27,-4.13,-1.27,-4.13,4.13,4.61,4.22,2.87,2.86,2.86
76.63,-1.21,-4.04,-1.20,-4.04,4.04,4.53,4.13,2.83,2.83,2.83
77.40,-1.15,-3.95,-1.14,-3.94,3.94,4.46,4.05,2.80,2.80,2.80
78.17,-1.09,-3.86,-1.08,-3.85,3.85,4.39,3.97,2.77,2.77,2.77
78.95,-1.02,-3.76,-1.02,-3.77,3.77,4.32,3.88,2.75,2.75,2.74
79.74,-0.97,-3.69,-0.97,-3.69,3.69,4.25,3.80,2.72,2.72,2.72
80.54,-0.92,-3.62,-0.92,-3.62,3.62,4.18,3.72,2.70,2.69,2.70
81.35,-0.87,-3.54,-0.88,-3.55,3.55,4.11,3.65,2.68,2.67,2.67
82.16,-0.83,-3.47,-0.84,-3.49,3.49,4.04,3.57,2.66,2.65,2.64
82.98,-0.80,-3.43,-0.81,-3.43,3.43,3.98,3.50,2.64,2.62,2.63
83.81,-0.78,-3.38,-0.78,-3.38,3.38,3.91,3.42,2.61,2.60,2.60
84.65,-0.75,-3.32,-0.76,-3.34,3.34,3.85,3.35,2.60,2.58,2.57
85.50,-0.73,-3.29,-0.74,-3.30,3.30,3.79,3.28,2.58,2.56,2.56
86.35,-0.72,-3.26,-0.73,-3.27,3.27,3.72,3.21,2.55,2.54,2.54
87.22,-0.72,-3.24,-0.72,-3.24,3.24,3.66,3.14,2.52,2.52,2.52
88.09,-0.72,-3.22,-0.71,-3.21,3.21,3.60,3.08,2.50,2.50,2.50
88.97,-0.71,-3.19,-0.70,-3.18,3.18,3.54,3.01,2.48,2.48,2.48
89.86,-0.70,-3.17,-0.69,-3.16,3.16,3.49,2.95,2.46,2.47,2.47
90.76,-0.70,-3.14,-0.68,-3.13,3.13,3.43,2.89,2.43,2.45,2.44
91.66,-0.69,-3.11,-0.67,-3.10,3.10,3.37,2.82,2.41,2.43,2.42
92.58,-0.68,-3.08,-0.65,-3.06,3.06,3.31,2.77,2.38,2.41,2.40
93.51,-0.66,-3.05,-0.63,-3.02,3.02,3.26,2.71,2.36,2.39,2.39
94.44,-0.64,-3.01,-0.61,-2.98,2.98,3.21,2.65,2.34,2.37,2.37
95.39,-0.60,-2.95,-0.59,-2.93,2.93,3.15,2.60,2.33,2.34,2.35
96.34,-0.57,-2.89,-0.56,-2.88,2.88,3.10,2.54,2.31,2.32,2.32
97.30,-0.54,-2.83,-0.53,-2.83,2.83,3.05,2.49,2.29,2.29,2.29
98.28,-0.51,-2.77,-0.50,-2.77,2.77,3.00,2.44,2.27,2.27,2.26
99.26,-0.47,-2.71,-0.48,-2.72,2.72,2.95,2.39,2.25,2.24,2.24
100.25,-0.44,-2.65,-0.45,-2.66,2.66,2.90,2.34,2.23,2.21,2.21
101.25,-0.41,-2.59,-0.43,-2.61,2.61,2.85,2.29,2.21,2.18,2.18
102.27,-0.40,-2.54,-0.41,-2.56,2.56,2.80,2.24,2.16,2.15,2.14
103.29,-0.39,-2.50,-0.39,-2.51,2.51,2.75,2.20,2.12,2.11,2.11
104.32,-0.38,-2.46,-0.38,-2.46,2.46,2.71,2.15,2.08,2.08,2.08
105.37,-0.37,-2.41,-0.37,-2.41,2.41,2.66,2.11,2.04,2.04,2.04
106.42,-0.36,-2.35,-0.37,-2.36,2.36,2.62,2.07,2.01,1.99,1.99
107.48,-0.36,-2.32,-0.37,-2.32,2.32,2.57,2.03,1.96,1.95,1.96
108.56,-0.38,-2.28,-0.37,-2.27,2.27,2.53,1.99,1.89,1.90,1.90
109.64,-0.39,-2.24,-0.37,-2.22,2.22,2.49,1.95,1.83,1.85,1.85
110.74,-0.39,-2.19,-0.37,-2.17,2.17,2.45,1.91,1.78,1.80,1.80
111.85,-0.39,-2.14,-0.37,-2.11,2.11,2.41,1.87,1.73,1.74,1.75
112.97,-0.39,-2.07,-0.37,-2.06,2.06,2.37,1.84,1.67,1.68,1.68
114.10,-0.39,-2.02,-0.37,-2.00,2.00,2.33,1.80,1.61,1.63,1.63
115.24,-0.39,-1.96,-0.37,-1.94,1.94,2.29,1.77,1.55,1.57,1.57
116.39,-0.39,-1.89,-0.37,-1.88,1.88,2.25,1.74,1.49,1.51,1.50
117.55,-0.38,-1.82,-0.37,-1.82,1.82,2.21,1.71,1.44,1.45,1.44
118.73,-0.38,-1.76,-0.37,-1.76,1.76,2.18,1.68,1.39,1.39,1.38
119.92,-0.36,-1.69,-0.37,-1.71,1.71,2.14,1.65,1.35,1.34,1.33
121.12,-0.36,-1.63,-0.38,-1.65,1.65,2.10,1.62,1.30,1.28,1.27
122.33,-0.37,-1.59,-0.38,-1.61,1.61,2.07,1.59,1.24,1.22,1.22
123.55,-0.38,-1.55,-0.39,-1.56,1.56,2.04,1.57,1.19,1.17,1.17
124.79,-0.40,-1.52,-0.41,-1.53,1.53,2.00,1.54,1.13,1.12,1.12
126.03,-0.42,-1.49,-0.43,-1.50,1.50,1.97,1.52,1.08,1.07,1.07
127.29,-0.44,-1.46,-0.45,-1.47,1.47,1.94,1.50,1.03,1.02,1.02
128.57,-0.47,-1.43,-0.47,-1.44,1.44,1.91,1.48,0.98,0.97,0.96
129.85,-0.51,-1.43,-0.50,-1.42,1.42,1.88,1.46,0.92,0.92,0.92
131.15,-0.55,-1.42,-0.53,-1.40,1.40,1.85,1.44,0.86,0.88,0.87
132.46,-0.57,-1.40,-0.55,-1.39,1.39,1.82,1.42,0.82,0.83,0.83
133.79,-0.60,-1.39,-0.58,-1.37,1.37,1.79,1.40,0.78,0.79,0.79
135.12,-0.63,-1.38,-0.61,-1.36,1.36,1.76,1.39,0.74,0.75,0.75
136.48,-0.64,-1.35,-0.64,-1.35,1.35,1.73,1.37,0.71,0.71,0.71
137.84,-0.68,-1.35,-0.66,-1.33,1.33,1.70,1.36,0.66,0.67,0.67
139.22,-0.69,-1.31,-0.69,-1.32,1.32,1.68,1.34,0.63,0.63,0.62
140.61,-0.72,-1.30,-0.71,-1.30,1.30,1.65,1.33,0.59,0.59,0.58
142.02,-0.75,-1.31,-0.73,-1.29,1.29,1.63,1.32,0.55,0.56,0.56
143.44,-0.76,-1.28,-0.76,-1.28,1.28,1.60,1.31,0.52,0.52,0.52
144.87,-0.79,-1.27,-0.78,-1.26,1.26,1.58,1.30,0.48,0.48,0.48
146.32,-0.80,-1.24,-0.81,-1.25,1.25,1.55,1.29,0.46,0.44,0.44
147.78,-0.83,-1.24,-0.84,-1.24,1.24,1.53,1.28,0.41,0.40,0.41
149.26,-0.86,-1.24,-0.87,-1.23,1.23,1.51,1.28,0.37,0.36,0.38
150.75,-0.89,-1.21,-0.90,-1.22,1.22,1.49,1.27,0.33,0.32,0.32
152.26,-0.91,-1.19,-0.93,-1.21,1.21,1.46,1.26,0.30,0.28,0.28
153.78,-0.95,-1.20,-0.95,-1.20,1.20,1.44,1.26,0.25,0.24,0.25
155.32,-0.99,-1.18,-0.99,-1.19,1.19,1.42,1.25,0.20,0.20,0.19
156.88,-1.04,-1.20,-1.02,-1.17,1.17,1.40,1.25,0.14,0.16,0.16
158.44,-1.07,-1.18,-1.05,-1.16,1.16,1.38,1.25,0.09,0.11,0.11
160.03,-1.12,-1.18,-1.08,-1.15,1.15,1.37,1.25,0.03,0.07,0.06
161.63,-1.14,-1.15,-1.12,-1.14,1.14,1.35,1.25,0.00,0.02,0.01
163.24,-1.16,-1.13,-1.15,-1.13,1.13,1.33,1.25,-0.03,-0.02,-0.03
164.88,-1.18,-1.11,-1.18,-1.11,1.11,1.31,1.25,-0.06,-0.07,-0.07
166.53,-1.20,-1.08,-1.22,-1.10,1.10,1.30,1.25,-0.10,-0.12,-0.12
168.19,-1.23,-1.06,-1.25,-1.09,1.09,1.28,1.25,-0.14,-0.17,-0.17
169.87,-1.29,-1.07,-1.29,-1.07,1.07,1.27,1.25,-0.21,-0.22,-0.22
171.57,-1.33,-1.07,-1.33,-1.06,1.06,1.25,1.26,-0.27,-0.27,-0.26
173.29,-1.37,-1.05,-1.37,-1.04,1.04,1.24,1.26,-0.32,-0.32,-0.32
175.02,-1.42,-1.05,-1.41,-1.03,1.03,1.22,1.27,-0.38,-0.37,-0.37
176.77,-1.46,-1.03,-1.45,-1.02,1.02,1.21,1.27,-0.43,-0.43,-0.43
178.54,-1.50,-1.02,-1.50,-1.01,1.01,1.20,1.28,-0.48,-0.48,-0.48
180.32,-1.54,-1.00,-1.54,-1.01,1.01,1.19,1.29,-0.53,-0.54,-0.54
182.13,-1.59,-1.00,-1.59,-1.00,1.00,1.18,1.30,-0.58,-0.59,-0.59
183.95,-1.65,-1.00,-1.64,-0.99,0.99,1.16,1.31,-0.65,-0.65,-0.65
185.79,-1.69,-0.99,-1.69,-0.99,0.99,1.15,1.32,-0.70,-0.70,-0.70
187.65,-1.74,-0.97,-1.74,-0.98,0.98,1.15,1.33,-0.75,-0.76,-0.77
189.52,-1.80,-0.98,-1.79,-0.97,0.97,1.14,1.34,-0.82,-0.81,-0.82
191.42,-1.85,-0.98,-1.84,-0.97,0.97,1.13,1.35,-0.87,-0.87,-0.87
193.33,-1.91,-0.99,-1.89,-0.97,0.97,1.12,1.36,-0.94,-0.92,-0.92
195.27,-1.96,-0.99,-1.94,-0.97,0.97,1.11,1.37,-0.99,-0.97,-0.97
197.22,-1.99,-0.96,-1.99,-0.97,0.97,1.11,1.39,-1.02,-1.02,-1.03
199.19,-2.03,-0.95,-2.04,-0.97,0.97,1.10,1.40,-1.06,-1.07,-1.08
201.18,-2.08,-0.95,-2.09,-0.97,0.97,1.10,1.42,-1.10,-1.12,-1.13
203.19,-2.14,-0.98,-2.14,-0.98,0.98,1.09,1.43,-1.16,-1.17,-1.16
205.23,-2.19,-0.97,-2.19,-0.98,0.98,1.09,1.44,-1.21,-1.21,-1.22
207.28,-2.25,-1.01,-2.24,-0.99,0.99,1.08,1.46,-1.26,-1.26,-1.24
209.35,-2.30,-1.00,-2.29,-0.99,0.99,1.08,1.47,-1.30,-1.30,-1.30
211.44,-2.36,-1.01,-2.34,-1.00,1.00,1.08,1.49,-1.36,-1.34,-1.35
213.56,-2.40,-1.01,-2.39,-1.01,1.01,1.08,1.50,-1.39,-1.38,-1.39
215.69,-2.45,-1.04,-2.44,-1.02,1.02,1.08,1.52,-1.42,-1.42,-1.41
217.85,-2.50,-1.05,-2.49,-1.04,1.04,1.08,1.53,-1.46,-1.45,-1.45
220.03,-2.53,-1.04,-2.54,-1.05,1.05,1.08,1.54,-1.47,-1.48,-1.49
222.23,-2.57,-1.05,-2.58,-1.07,1.07,1.08,1.56,-1.50,-1.51,-1.52
224.45,-2.62,-1.08,-2.63,-1.08,1.08,1.09,1.57,-1.53,-1.54,-1.54
226.70,-2.66,-1.09,-2.67,-1.10,1.10,1.09,1.58,-1.56,-1.57,-1.57
228.96,-2.72,-1.12,-2.71,-1.12,1.12,1.10,1.59,-1.60,-1.59,-1.60
231.25,-2.75,-1.14,-2.74,-1.14,1.14,1.10,1.60,-1.61,-1.61,-1.61
233.57,-2.79,-1.16,-2.78,-1.16,1.16,1.11,1.61,-1.63,-1.62,-1.63
235.90,-2.84,-1.20,-2.81,-1.18,1.18,1.12,1.61,-1.66,-1.64,-1.64
238.26,-2.86,-1.21,-2.84,-1.19,1.19,1.12,1.62,-1.66,-1.65,-1.65
240.64,-2.88,-1.22,-2.87,-1.21,1.21,1.13,1.62,-1.66,-1.66,-1.66
243.05,-2.90,-1.24,-2.89,-1.23,1.23,1.14,1.63,-1.66,-1.66,-1.66
245.48,-2.93,-1.26,-2.92,-1.25,1.25,1.16,1.63,-1.67,-1.66,-1.67
247.93,-2.95,-1.28,-2.93,-1.27,1.27,1.17,1.62,-1.68,-1.67,-1.67
250.41,-2.96,-1.29,-2.95,-1.29,1.29,1.18,1.62,-1.67,-1.66,-1.67
252.92,-2.98,-1.32,-2.97,-1.31,1.31,1.20,1.62,-1.66,-1.66,-1.66
255.45,-2.99,-1.34,-2.99,-1.33,1.33,1.21,1.61,-1.65,-1.65,-1.65
258.00,-3.00,-1.36,-3.01,-1.36,1.36,1.23,1.60,-1.63,-1.64,-1.64
260.58,-3.01,-1.37,-3.02,-1.39,1.39,1.25,1.59,-1.61,-1.63,-1.64
263.19,-3.02,-1.39,-3.05,-1.42,1.42,1.27,1.58,-1.59,-1.62,-1.63
265.82,-3.06,-1.44,-3.07,-1.46,1.46,1.29,1.57,-1.60,-1.61,-1.62
268.48,-3.08,-1.48,-3.10,-1.50,1.50,1.31,1.56,-1.58,-1.60,-1.60
271.16,-3.11,-1.53,-3.13,-1.54,1.54,1.34,1.54,-1.57,-1.59,-1.58
273.87,-3.16,-1.58,-3.15,-1.58,1.58,1.36,1.53,-1.57,-1.57,-1.58
276.61,-3.19,-1.64,-3.18,-1.62,1.62,1.39,1.51,-1.56,-1.56,-1.55
279.38,-3.22,-1.67,-3.21,-1.66,1.66,1.42,1.49,-1.55,-1.55,-1.55
282.17,-3.25,-1.72,-3.23,-1.70,1.70,1.44,1.47,-1.55,-1.53,-1.53
284.99,-3.27,-1.75,-3.25,-1.73,1.73,1.47,1.45,-1.53,-1.52,-1.52
287.84,-3.30,-1.79,-3.27,-1.77,1.77,1.51,1.43,-1.53,-1.51,-1.51
290.72,-3.32,-1.82,-3.29,-1.80,1.80,1.54,1.41,-1.52,-1.49,-1.50
293.63,-3.33,-1.85,-3.30,-1.82,1.82,1.57,1.39,-1.50,-1.48,-1.48
296.57,-3.33,-1.87,-3.31,-1.84,1.84,1.60,1.37,-1.48,-1.46,-1.46
299.53,-3.32,-1.86,-3.31,-1.86,1.86,1.64,1.35,-1.45,-1.45,-1.46
302.53,-3.31,-1.86,-3.31,-1.87,1.87,1.67,1.33,-1.43,-1.44,-1.45
305.55,-3.30,-1.87,-3.31,-1.88,1.88,1.71,1.31,-1.41,-1.43,-1.43
308.61,-3.30,-1.88,-3.31,-1.89,1.89,1.74,1.29,-1.40,-1.42,-1.42
311.69,-3.30,-1.89,-3.31,-1.90,1.90,1.78,1.27,-1.39,-1.41,-1.41
314.81,-3.30,-1.92,-3.30,-1.91,1.91,1.81,1.25,-1.39,-1.40,-1.38
317.96,-3.30,-1.91,-3.30,-1.91,1.91,1.85,1.23,-1.38,-1.39,-1.39
321.14,-3.30,-1.92,-3.30,-1.92,1.92,1.88,1.21,-1.38,-1.38,-1.38
324.35,-3.30,-1.92,-3.29,-1.92,1.92,1.92,1.20,-1.38,-1.37,-1.38
327.59,-3.30,-1.93,-3.29,-1.92,1.92,1.95,1.18,-1.37,-1.37,-1.37
330.87,-3.30,-1.93,-3.29,-1.93,1.93,1.98,1.16,-1.37,-1.36,-1.37
334.18,-3.30,-1.93,-3.29,-1.93,1.93,2.00,1.15,-1.36,-1.36,-1.37
337.52,-3.30,-1.94,-3.29,-1.93,1.93,2.03,1.13,-1.36,-1.36,-1.36
340.90,-3.30,-1.94,-3.29,-1.93,1.93,2.05,1.12,-1.36,-1.36,-1.36
344.30,-3.30,-1.94,-3.30,-1.94,1.94,2.07,1.10,-1.36,-1.36,-1.36
347.75,-3.30,-1.94,-3.30,-1.94,1.94,2.08,1.09,-1.36,-1.36,-1.36
351.23,-3.30,-1.94,-3.30,-1.94,1.94,2.09,1.08,-1.36,-1.36,-1.36
354.74,-3.30,-1.94,-3.31,-1.94,1.94,2.10,1.07,-1.36,-1.37,-1.36
358.28,-3.30,-1.92,-3.31,-1.94,1.94,2.10,1.06,-1.36,-1.37,-1.38
361.87,-3.30,-1.92,-3.31,-1.94,1.94,2.10,1.05,-1.36,-1.38,-1.38
365.49,-3.31,-1.93,-3.31,-1.93,1.93,2.09,1.04,-1.37,-1.38,-1.38
369.14,-3.32,-1.93,-3.31,-1.93,1.93,2.08,1.03,-1.39,-1.39,-1.39
372.83,-3.32,-1.93,-3.31,-1.92,1.92,2.06,1.03,-1.40,-1.39,-1.39
376.56,-3.33,-1.93,-3.31,-1.91,1.91,2.04,1.02,-1.42,-1.40,-1.40
380.33,-3.32,-1.91,-3.30,-1.89,1.89,2.01,1.02,-1.42,-1.41,-1.41
384.13,-3.31,-1.89,-3.29,-1.88,1.88,1.98,1.01,-1.43,-1.41,-1.42
387.97,-3.30,-1.87,-3.28,-1.86,1.86,1.95,1.01,-1.44,-1.42,-1.43
391.85,-3.27,-1.83,-3.26,-1.83,1.83,1.91,1.00,-1.43,-1.43,-1.44
395.77,-3.24,-1.81,-3.24,-1.80,1.80,1.87,1.00,-1.43,-1.44,-1.43
399.73,-3.22,-1.78,-3.21,-1.77,1.77,1.83,1.00,-1.44,-1.44,-1.44
403.72,-3.19,-1.74,-3.18,-1.74,1.74,1.78,1.00,-1.45,-1.45,-1.45
407.76,-3.17,-1.71,-3.15,-1.70,1.70,1.73,0.99,-1.47,-1.45,-1.46
411.84,-3.13,-1.68,-3.12,-1.66,1.66,1.68,0.99,-1.47,-1.46,-1.45
415.96,-3.09,-1.62,-3.08,-1.62,1.62,1.63,0.99,-1.47,-1.46,-1.47
420.12,-3.05,-1.58,-3.04,-1.57,1.57,1.58,0.99,-1.47,-1.47,-1.47
424.32,-3.00,-1.53,-3.00,-1.53,1.53,1.53,0.99,-1.46,-1.47,-1.47
428.56,-2.95,-1.47,-2.97,-1.49,1.49,1.47,0.99,-1.45,-1.47,-1.48
432.85,-2.90,-1.42,-2.93,-1.45,1.45,1.41,0.99,-1.44,-1.47,-1.48
437.18,-2.87,-1.39,-2.89,-1.41,1.41,1.36,0.98,-1.45,-1.47,-1.48
441.55,-2.85,-1.38,-2.85,-1.37,1.37,1.30,0.98,-1.47,-1.47,-1.47
445.96,-2.82,-1.35,-2.81,-1.33,1.33,1.25,0.98,-1.48,-1.47,-1.47
450.42,-2.78,-1.30,-2.77,-1.30,1.30,1.19,0.97,-1.48,-1.47,-1.48
454.93,-2.74,-1.27,-2.73,-1.26,1.26,1.14,0.97,-1.48,-1.47,-1.47
