frequency,raw,error,smoothed,error_smoothed,equalization,parametric_eq,fixed_band_eq,equalized_raw,equalized_smoothed,target
20.00,0.75,-3.06,0.76,-3.06,3.06,2.67,0.80,3.81,3.81,3.81
20.20,0.78,-3.02,0.78,-3.02,3.02,2.66,0.82,3.80,3.80,3.80
20.40,0.81,-2.98,0.81,-2.98,2.98,2.64,0.85,3.79,3.79,3.79
20.61,0.84,-2.94,0.84,-2.94,2.94,2.63,0.88,3.78,3.78,3.78
20.81,0.86,-2.90,0.87,-2.90,2.90,2.62,0.91,3.77,3.77,3.76
21.02,0.89,-2.86,0.90,-2.86,2.86,2.60,0.93,3.76,3.76,3.75
21.23,0.92,-2.82,0.92,-2.82,2.83,2.59,0.97,3.75,3.75,3.74
21.44,0.96,-2.80,0.95,-2.79,2.79,2.57,1.00,3.74,3.74,3.75
21.66,0.98,-2.75,0.98,-2.75,2.75,2.56,1.03,3.73,3.73,3.73
21.87,1.02,-2.72,1.01,-2.71,2.71,2.54,1.06,3.72,3.72,3.73
22.09,1.04,-2.67,1.04,-2.67,2.67,2.53,1.10,3.72,3.72,3.71
22.31,1.08,-2.63,1.07,-2.63,2.63,2.51,1.13,3.71,3.71,3.70
22.54,1.10,-2.59,1.10,-2.59,2.59,2.50,1.17,3.70,3.70,3.69
22.76,1.13,-2.56,1.14,-2.55,2.56,2.48,1.21,3.69,3.69,3.69
22.99,1.16,-2.52,1.16,-2.52,2.52,2.46,1.24,3.69,3.69,3.68
23.22,1.19,-2.48,1.19,-2.49,2.49,2.44,1.28,3.68,3.68,3.67
23.45,1.21,-2.47,1.22,-2.46,2.46,2.43,1.32,3.67,3.68,3.68
23.69,1.24,-2.43,1.25,-2.43,2.43,2.41,1.36,3.67,3.67,3.67
23.92,1.28,-2.39,1.27,-2.40,2.39,2.39,1.40,3.67,3.67,3.66
24.16,1.30,-2.37,1.30,-2.36,2.36,2.37,1.45,3.67,3.67,3.67
24.40,1.34,-2.34,1.33,-2.33,2.33,2.35,1.49,3.67,3.67,3.67
24.65,1.36,-2.30,1.37,-2.30,2.30,2.33,1.53,3.66,3.67,3.66
24.89,1.40,-2.27,1.39,-2.27,2.27,2.31,1.58,3.66,3.66,3.66
25.14,1.42,-2.23,1.42,-2.23,2.24,2.29,1.62,3.66,3.66,3.65
25.39,1.45,-2.21,1.45,-2.20,2.21,2.27,1.66,3.65,3.66,3.65
25.65,1.47,-2.18,1.48,-2.18,2.18,2.25,1.71,3.65,3.66,3.65
25.91,1.50,-2.15,1.50,-2.15,2.15,2.23,1.75,3.65,3.65,3.65
26.16,1.53,-2.13,1.53,-2.13,2.12,2.21,1.79,3.66,3.65,3.66
26.43,1.55,-2.10,1.56,-2.10,2.10,2.19,1.83,3.65,3.65,3.65
26.69,1.58,-2.07,1.58,-2.07,2.07,2.17,1.88,3.65,3.65,3.65
26.96,1.61,-2.04,1.61,-2.04,2.04,2.14,1.92,3.66,3.65,3.65
27.23,1.63,-2.02,1.64,-2.02,2.02,2.12,1.96,3.65,3.66,3.65
27.50,1.66,-1.99,1.66,-1.99,1.99,2.10,1.99,3.66,3.66,3.65
27.77,1.69,-1.97,1.69,-1.97,1.97,2.07,2.03,3.66,3.66,3.66
28.05,1.71,-1.94,1.72,-1.94,1.94,2.05,2.06,3.66,3.66,3.65
28.33,1.74,-1.92,1.74,-1.92,1.92,2.03,2.09,3.66,3.66,3.66
28.62,1.77,-1.89,1.77,-1.90,1.90,2.00,2.12,3.67,3.67,3.66
28.90,1.79,-1.88,1.80,-1.87,1.87,1.98,2.15,3.67,3.67,3.67
29.19,1.82,-1.85,1.82,-1.85,1.85,1.95,2.17,3.67,3.67,3.67
29.48,1.84,-1.82,1.84,-1.83,1.82,1.92,2.19,3.66,3.66,3.66
29.78,1.86,-1.80,1.87,-1.79,1.79,1.90,2.20,3.66,3.66,3.66
30.08,1.89,-1.77,1.89,-1.77,1.77,1.87,2.22,3.66,3.66,3.66
30.38,1.91,-1.73,1.91,-1.74,1.74,1.85,2.22,3.66,3.66,3.64
30.68,1.93,-1.71,1.94,-1.71,1.71,1.82,2.23,3.65,3.65,3.64
30.99,1.95,-1.69,1.95,-1.69,1.69,1.79,2.23,3.64,3.64,3.64
31.30,1.97,-1.67,1.97,-1.66,1.66,1.76,2.22,3.63,3.63,3.64
31.61,1.99,-1.64,1.99,-1.64,1.63,1.73,2.21,3.63,3.63,3.63
31.93,2.01,-1.60,2.01,-1.61,1.61,1.70,2.20,3.62,3.62,3.61
32.24,2.03,-1.59,2.03,-1.58,1.58,1.68,2.18,3.62,3.62,3.62
32.57,2.05,-1.55,2.06,-1.55,1.56,1.65,2.16,3.61,3.61,3.60
32.89,2.07,-1.53,2.07,-1.53,1.53,1.62,2.13,3.61,3.60,3.60
33.22,2.09,-1.50,2.09,-1.50,1.50,1.58,2.10,3.60,3.60,3.59
33.55,2.10,-1.49,2.11,-1.48,1.48,1.55,2.07,3.58,3.59,3.59
33.89,2.12,-1.46,2.12,-1.46,1.46,1.52,2.03,3.58,3.58,3.58
34.23,2.13,-1.43,2.14,-1.43,1.43,1.49,1.99,3.57,3.57,3.56
34.57,2.15,-1.41,2.16,-1.41,1.41,1.46,1.94,3.57,3.57,3.56
34.92,2.17,-1.37,2.17,-1.38,1.39,1.43,1.90,3.56,3.56,3.54
35.27,2.18,-1.38,2.19,-1.36,1.36,1.39,1.85,3.55,3.55,3.56
35.62,2.19,-1.34,2.20,-1.34,1.34,1.36,1.80,3.53,3.54,3.53
35.97,2.21,-1.32,2.21,-1.32,1.31,1.33,1.75,3.53,3.52,3.53
36.33,2.22,-1.29,2.22,-1.29,1.29,1.29,1.69,3.51,3.51,3.51
36.70,2.23,-1.26,2.24,-1.26,1.26,1.26,1.64,3.49,3.50,3.49
37.06,2.24,-1.23,2.25,-1.23,1.23,1.22,1.58,3.48,3.48,3.47
37.43,2.25,-1.20,2.25,-1.20,1.21,1.19,1.52,3.46,3.46,3.45
37.81,2.26,-1.18,2.26,-1.17,1.18,1.15,1.46,3.44,3.44,3.44
38.19,2.26,-1.15,2.27,-1.15,1.15,1.12,1.40,3.41,3.42,3.41
38.57,2.27,-1.12,2.27,-1.12,1.12,1.08,1.34,3.40,3.40,3.39
38.95,2.28,-1.10,2.28,-1.09,1.09,1.04,1.28,3.38,3.37,3.38
39.34,2.28,-1.07,2.29,-1.07,1.06,1.01,1.22,3.35,3.35,3.35
39.74,2.29,-1.03,2.29,-1.04,1.03,0.97,1.16,3.33,3.33,3.32
40.14,2.30,-1.00,2.30,-1.00,1.00,0.93,1.10,3.30,3.30,3.30
40.54,2.31,-0.97,2.32,-0.96,0.97,0.89,1.04,3.28,3.28,3.28
40.94,2.33,-0.92,2.33,-0.93,0.93,0.85,0.98,3.27,3.26,3.25
41.35,2.34,-0.90,2.34,-0.89,0.90,0.81,0.92,3.24,3.24,3.24
41.76,2.35,-0.86,2.36,-0.86,0.86,0.77,0.86,3.21,3.22,3.21
42.18,2.37,-0.83,2.37,-0.83,0.82,0.73,0.80,3.20,3.19,3.20
42.60,2.38,-0.79,2.39,-0.79,0.78,0.69,0.74,3.17,3.17,3.17
43.03,2.40,-0.75,2.40,-0.75,0.75,0.65,0.68,3.15,3.15,3.15
43.46,2.41,-0.70,2.42,-0.70,0.71,0.61,0.62,3.12,3.12,3.11
43.90,2.43,-0.66,2.43,-0.66,0.67,0.57,0.56,3.10,3.10,3.09
44.33,2.44,-0.62,2.44,-0.62,0.63,0.53,0.51,3.07,3.07,3.06
44.78,2.45,-0.59,2.46,-0.59,0.59,0.49,0.45,3.04,3.04,3.04
45.23,2.46,-0.56,2.46,-0.55,0.55,0.44,0.39,3.01,3.01,3.02
45.68,2.47,-0.50,2.47,-0.51,0.50,0.40,0.34,2.98,2.98,2.97
46.13,2.48,-0.46,2.48,-0.46,0.46,0.36,0.28,2.94,2.94,2.94
46.60,2.49,-0.41,2.49,-0.41,0.41,0.31,0.23,2.90,2.90,2.90
47.06,2.50,-0.37,2.51,-0.36,0.36,0.27,0.17,2.86,2.87,2.87
47.53,2.52,-0.31,2.52,-0.31,0.30,0.23,0.12,2.83,2.83,2.83
48.01,2.54,-0.24,2.54,-0.25,0.25,0.18,0.07,2.79,2.79,2.78
48.49,2.55,-0.19,2.56,-0.19,0.19,0.14,0.01,2.74,2.75,2.74
48.97,2.57,-0.12,2.57,-0.12,0.13,0.09,-0.04,2.70,2.70,2.69
49.46,2.58,-0.08,2.59,-0.07,0.07,0.05,-0.09,2.65,2.66,2.66
49.96,2.60,0.00,2.60,-0.01,0.01,-0.00,-0.14,2.62,2.61,2.60
50.46,2.61,0.04,2.62,0.04,-0.05,-0.05,-0.19,2.57,2.57,2.57
50.96,2.63,0.10,2.63,0.10,-0.10,-0.09,-0.24,2.53,2.53,2.53
51.47,2.64,0.15,2.65,0.16,-0.16,-0.14,-0.29,2.49,2.49,2.49
51.99,2.66,0.22,2.66,0.21,-0.21,-0.19,-0.34,2.46,2.45,2.44
52.51,2.67,0.26,2.68,0.26,-0.26,-0.24,-0.39,2.41,2.41,2.41
53.03,2.68,0.30,2.69,0.31,-0.31,-0.28,-0.44,2.37,2.37,2.38
53.56,2.69,0.36,2.69,0.36,-0.36,-0.33,-0.49,2.33,2.33,2.33
54.10,2.69,0.41,2.70,0.41,-0.41,-0.38,-0.54,2.28,2.29,2.28
54.64,2.70,0.46,2.70,0.46,-0.46,-0.43,-0.59,2.25,2.25,2.24
55.18,2.70,0.50,2.71,0.50,-0.50,-0.48,-0.63,2.21,2.21,2.20
55.74,2.70,0.55,2.71,0.54,-0.54,-0.53,-0.68,2.17,2.17,2.15
56.29,2.70,0.57,2.70,0.57,-0.57,-0.58,-0.72,2.13,2.13,2.13
56.86,2.69,0.60,2.69,0.61,-0.60,-0.63,-0.77,2.09,2.09,2.09
57.42,2.68,0.64,2.69,0.64,-0.64,-0.68,-0.81,2.05,2.05,2.04
58.00,2.67,0.67,2.68,0.67,-0.67,-0.73,-0.86,2.01,2.01,2.00
58.58,2.67,0.70,2.67,0.70,-0.71,-0.78,-0.90,1.97,1.97,1.97
59.16,2.67,0.73,2.67,0.74,-0.75,-0.83,-0.94,1.93,1.93,1.94
59.76,2.67,0.78,2.67,0.78,-0.79,-0.88,-0.99,1.88,1.88,1.89
60.35,2.67,0.83,2.67,0.83,-0.84,-0.94,-1.03,1.84,1.84,1.84
60.96,2.67,0.89,2.67,0.89,-0.89,-0.99,-1.07,1.78,1.78,1.78
61.57,2.67,0.95,2.67,0.95,-0.95,-1.04,-1.11,1.73,1.73,1.72
62.18,2.67,1.01,2.67,1.01,-1.00,-1.09,-1.15,1.67,1.67,1.66
62.80,2.67,1.07,2.67,1.07,-1.06,-1.14,-1.19,1.61,1.61,1.60
63.43,2.67,1.12,2.67,1.12,-1.12,-1.20,-1.22,1.56,1.56,1.55
64.07,2.67,1.17,2.67,1.17,-1.17,-1.25,-1.26,1.50,1.50,1.50
64.71,2.67,1.22,2.67,1.23,-1.23,-1.30,-1.30,1.45,1.45,1.45
65.35,2.67,1.28,2.67,1.28,-1.28,-1.36,-1.34,1.40,1.40,1.39
66.01,2.67,1.33,2.67,1.33,-1.33,-1.41,-1.37,1.35,1.35,1.34
66.67,2.67,1.37,2.67,1.38,-1.38,-1.47,-1.41,1.29,1.29,1.30
67.33,2.67,1.44,2.67,1.43,-1.43,-1.52,-1.45,1.24,1.24,1.23
68.01,2.67,1.49,2.67,1.49,-1.49,-1.57,-1.48,1.19,1.19,1.18
68.69,2.67,1.54,2.67,1.54,-1.54,-1.63,-1.52,1.13,1.13,1.13
69.37,2.67,1.59,2.67,1.60,-1.60,-1.68,-1.55,1.08,1.08,1.08
70.07,2.67,1.65,2.67,1.65,-1.66,-1.74,-1.59,1.02,1.02,1.02
70.77,2.67,1.72,2.67,1.71,-1.72,-1.79,-1.63,0.96,0.96,0.95
71.48,2.67,1.77,2.67,1.78,-1.77,-1.85,-1.66,0.90,0.90,0.90
72.19,2.67,1.83,2.67,1.84,-1.83,-1.90,-1.70,0.84,0.84,0.84
72.91,2.67,1.90,2.67,1.89,-1.89,-1.96,-1.74,0.78,0.78,0.77
73.64,2.67,1.95,2.67,1.95,-1.95,-2.01,-1.78,0.72,0.72,0.72
74.38,2.67,2.01,2.67,2.01,-2.01,-2.07,-1.82,0.67,0.67,0.66
75.12,2.67,2.06,2.67,2.06,-2.06,-2.13,-1.86,0.61,0.61,0.61
75.87,2.67,2.11,2.67,2.11,-2.11,-2.18,-1.90,0.56,0.56,0.56
76.63,2.67,2.17,2.67,2.17,-2.17,-2.24,-1.95,0.51,0.51,0.50
77.40,2.67,2.21,2.67,2.22,-2.22,-2.29,-1.99,0.46,0.46,0.46
78.17,2.67,2.27,2.67,2.27,-2.27,-2.35,-2.04,0.41,0.41,0.40
78.95,2.67,2.31,2.67,2.31,-2.31,-2.41,-2.08,0.36,0.36,0.36
79.74,2.67,2.36,2.67,2.37,-2.36,-2.46,-2.13,0.31,0.31,0.31
80.54,2.67,2.41,2.67,2.41,-2.41,-2.52,-2.18,0.26,0.26,0.26
81.35,2.67,2.47,2.67,2.46,-2.46,-2.58,-2.23,0.21,0.21,0.20
82.16,2.67,2.50,2.67,2.51,-2.51,-2.63,-2.29,0.16,0.16,0.17
82.98,2.67,2.56,2.67,2.56,-2.56,-2.69,-2.34,0.11,0.11,0.11
83.81,2.67,2.61,2.67,2.61,-2.62,-2.75,-2.40,0.06,0.06,0.06
84.65,2.67,2.67,2.67,2.67,-2.67,-2.80,-2.46,0.01,0.01,0.00
85.50,2.67,2.73,2.67,2.73,-2.72,-2.86,-2.52,-0.05,-0.05,-0.06
86.35,2.67,2.78,2.67,2.78,-2.78,-2.92,-2.58,-0.10,-0.10,-0.11
87.22,2.67,2.83,2.67,2.84,-2.84,-2.97,-2.65,-0.16,-0.16,-0.16
88.09,2.67,2.89,2.67,2.89,-2.89,-3.03,-2.72,-0.22,-0.22,-0.22
88.97,2.67,2.95,2.67,2.95,-2.95,-3.09,-2.79,-0.27,-0.27,-0.28
89.86,2.67,3.00,2.67,3.01,-3.00,-3.14,-2.86,-0.33,-0.33,-0.33
90.76,2.67,3.06,2.67,3.07,-3.06,-3.20,-2.93,-0.39,-0.39,-0.39
91.66,2.67,3.13,2.67,3.12,-3.12,-3.26,-3.01,-0.44,-0.44,-0.46
92.58,2.67,3.18,2.67,3.18,-3.18,-3.31,-3.08,-0.50,-0.50,-0.51
93.51,2.67,3.23,2.67,3.24,-3.24,-3.37,-3.16,-0.57,-0.57,-0.56
94.44,2.67,3.29,2.67,3.29,-3.30,-3.42,-3.24,-0.63,-0.63,-0.62
95.39,2.67,3.36,2.67,3.36,-3.36,-3.48,-3.33,-0.69,-0.69,-0.69
96.34,2.67,3.43,2.67,3.43,-3.43,-3.54,-3.41,-0.75,-0.75,-0.76
97.30,2.67,3.49,2.67,3.49,-3.49,-3.59,-3.50,-0.82,-0.82,-0.82
98.28,2.67,3.56,2.67,3.56,-3.55,-3.65,-3.59,-0.88,-0.88,-0.89
99.26,2.67,3.62,2.67,3.62,-3.62,-3.71,-3.68,-0.94,-0.94,-0.95
100.25,2.67,3.68,2.67,3.68,-3.68,-3.76,-3.77,-1.00,-1.00,-1.01
101.25,2.67,3.73,2.67,3.74,-3.74,-3.82,-3.86,-1.06,-1.06,-1.06
102.27,2.67,3.79,2.67,3.79,-3.79,-3.87,-3.95,-1.12,-1.12,-1.12
103.29,2.67,3.85,2.67,3.85,-3.85,-3.93,-4.04,-1.17,-1.17,-1.18
104.32,2.67,3.90,2.67,3.90,-3.90,-3.98,-4.14,-1.23,-1.23,-1.23
105.37,2.67,3.96,2.67,3.96,-3.96,-4.04,-4.23,-1.28,-1.28,-1.29
106.42,2.67,4.01,2.67,4.01,-4.01,-4.09,-4.32,-1.34,-1.34,-1.34
107.48,2.67,4.07,2.67,4.07,-4.07,-4.15,-4.42,-1.39,-1.39,-1.40
108.56,2.67,4.12,2.67,4.12,-4.12,-4.20,-4.51,-1.45,-1.45,-1.45
109.64,2.67,4.18,2.67,4.18,-4.18,-4.26,-4.60,-1.51,-1.51,-1.51
110.74,2.67,4.24,2.67,4.24,-4.24,-4.31,-4.69,-1.57,-1.57,-1.57
111.85,2.67,4.30,2.67,4.30,-4.30,-4.37,-4.77,-1.63,-1.63,-1.63
112.97,2.67,4.35,2.67,4.36,-4.36,-4.42,-4.86,-1.69,-1.69,-1.68
114.10,2.67,4.41,2.67,4.42,-4.42,-4.47,-4.94,-1.75,-1.75,-1.74
115.24,2.67,4.49,2.67,4.48,-4.48,-4.53,-5.02,-1.81,-1.81,-1.82
116.39,2.67,4.55,2.67,4.55,-4.54,-4.58,-5.09,-1.87,-1.87,-1.88
117.55,2.67,4.61,2.67,4.61,-4.60,-4.63,-5.16,-1.93,-1.93,-1.94
118.73,2.67,4.67,2.67,4.66,-4.66,-4.69,-5.23,-1.98,-1.98,-2.00
119.92,2.67,4.71,2.67,4.72,-4.71,-4.74,-5.29,-2.04,-2.04,-2.04
121.12,2.67,4.76,2.67,4.77,-4.77,-4.79,-5.34,-2.09,-2.09,-2.09
122.33,2.67,4.82,2.67,4.82,-4.82,-4.84,-5.39,-2.15,-2.15,-2.15
123.55,2.67,4.87,2.67,4.87,-4.87,-4.89,-5.44,-2.20,-2.20,-2.20
124.79,2.67,4.92,2.67,4.92,-4.93,-4.95,-5.47,-2.25,-2.25,-2.25
126.03,2.67,4.98,2.67,4.98,-4.98,-5.00,-5.51,-2.31,-2.31,-2.31
127.29,2.67,5.03,2.67,5.04,-5.04,-5.05,-5.54,-2.36,-2.36,-2.36
128.57,2.67,5.10,2.67,5.10,-5.09,-5.10,-5.56,-2.42,-2.42,-2.43
129.85,2.67,5.15,2.67,5.15,-5.15,-5.15,-5.58,-2.48,-2.48,-2.48
131.15,2.67,5.21,2.67,5.21,-5.21,-5.20,-5.59,-2.53,-2.53,-2.54
132.46,2.67,5.26,2.67,5.26,-5.26,-5.25,-5.60,-2.59,-2.59,-2.59
133.79,2.67,5.32,2.67,5.32,-5.32,-5.30,-5.60,-2.64,-2.64,-2.65
135.12,2.67,5.37,2.67,5.37,-5.37,-5.34,-5.60,-2.70,-2.70,-2.70
136.48,2.67,5.42,2.67,5.42,-5.42,-5.39,-5.60,-2.75,-2.75,-2.75
137.84,2.67,5.47,2.67,5.47,-5.48,-5.44,-5.59,-2.80,-2.80,-2.80
139.22,2.67,5.53,2.67,5.53,-5.53,-5.49,-5.58,-2.85,-2.85,-2.86
140.61,2.67,5.57,2.67,5.58,-5.57,-5.54,-5.57,-2.90,-2.90,-2.90
142.02,2.67,5.63,2.67,5.63,-5.62,-5.58,-5.56,-2.95,-2.95,-2.96
143.44,2.67,5.67,2.67,5.67,-5.67,-5.63,-5.54,-3.00,-3.00,-3.00
144.87,2.67,5.71,2.67,5.72,-5.72,-5.67,-5.53,-3.04,-3.04,-3.04
146.32,2.67,5.76,2.67,5.76,-5.76,-5.72,-5.52,-3.09,-3.09,-3.09
147.78,2.67,5.80,2.67,5.80,-5.80,-5.76,-5.50,-3.13,-3.13,-3.13
149.26,2.67,5.85,2.67,5.85,-5.85,-5.81,-5.49,-3.17,-3.17,-3.18
150.75,2.67,5.89,2.67,5.89,-5.89,-5.85,-5.48,-3.21,-3.21,-3.22
152.26,2.67,5.93,2.67,5.93,-5.93,-5.90,-5.47,-3.26,-3.26,-3.26
153.78,2.67,5.97,2.67,5.97,-5.97,-5.94,-5.46,-3.30,-3.30,-3.30
155.32,2.67,6.01,2.67,6.01,-6.02,-5.98,-5.45,-3.34,-3.34,-3.34
156.88,2.67,6.06,2.67,6.06,-6.06,-6.02,-5.45,-3.39,-3.39,-3.39
158.44,2.67,6.11,2.67,6.11,-6.11,-6.07,-5.45,-3.43,-3.43,-3.44
160.03,2.67,6.15,2.67,6.15,-6.15,-6.11,-5.45,-3.48,-3.48,-3.48
161.63,2.67,6.19,2.67,6.19,-6.20,-6.15,-5.45,-3.52,-3.52,-3.52
163.24,2.67,6.24,2.67,6.24,-6.24,-6.19,-5.46,-3.57,-3.57,-3.57
164.88,2.67,6.29,2.67,6.29,-6.29,-6.23,-5.47,-3.61,-3.61,-3.62
166.53,2.67,6.34,2.67,6.33,-6.33,-6.27,-5.49,-3.66,-3.66,-3.67
168.19,2.67,6.37,2.67,6.38,-6.38,-6.31,-5.51,-3.71,-3.71,-3.70
169.87,2.67,6.43,2.67,6.43,-6.43,-6.34,-5.53,-3.75,-3.75,-3.76
171.57,2.67,6.48,2.67,6.47,-6.48,-6.38,-5.56,-3.80,-3.80,-3.81
173.29,2.67,6.52,2.68,6.53,-6.53,-6.42,-5.59,-3.85,-3.85,-3.85
175.02,2.67,6.57,2.68,6.57,-6.58,-6.45,-5.63,-3.90,-3.90,-3.90
176.77,2.68,6.63,2.68,6.63,-6.63,-6.49,-5.67,-3.95,-3.95,-3.95
178.54,2.68,6.67,2.69,6.68,-6.68,-6.53,-5.71,-4.00,-3.99,-3.99
180.32,2.69,6.74,2.69,6.73,-6.73,-6.56,-5.76,-4.03,-4.04,-4.05
182.13,2.69,6.77,2.69,6.78,-6.77,-6.59,-5.82,-4.08,-4.08,-4.08
183.95,2.69,6.82,2.69,6.82,-6.82,-6.63,-5.87,-4.12,-4.12,-4.13
185.79,2.68,6.86,2.69,6.86,-6.85,-6.66,-5.93,-4.17,-4.17,-4.18
187.65,2.67,6.89,2.67,6.89,-6.88,-6.69,-6.00,-4.21,-4.21,-4.22
189.52,2.65,6.91,2.66,6.91,-6.91,-6.72,-6.07,-4.26,-4.26,-4.26
191.42,2.63,6.93,2.63,6.93,-6.93,-6.75,-6.14,-4.30,-4.30,-4.30
193.33,2.60,6.94,2.61,6.95,-6.95,-6.78,-6.22,-4.35,-4.35,-4.34
195.27,2.57,6.96,2.58,6.96,-6.96,-6.81,-6.30,-4.39,-4.39,-4.39
197.22,2.54,6.98,2.55,6.98,-6.97,-6.84,-6.39,-4.42,-4.42,-4.44
199.19,2.51,6.98,2.51,6.99,-6.97,-6.87,-6.47,-4.46,-4.46,-4.47
201.18,2.48,6.99,2.48,6.98,-6.98,-6.90,-6.56,-4.49,-4.50,-4.51
203.19,2.44,6.98,2.45,6.98,-6.98,-6.92,-6.66,-4.54,-4.53,-4.54
205.23,2.41,6.97,2.42,6.98,-6.99,-6.95,-6.75,-4.57,-4.57,-4.56
207.28,2.39,6.98,2.39,6.98,-6.99,-6.98,-6.85,-4.60,-4.60,-4.59
209.35,2.37,7.00,2.37,6.99,-7.00,-7.00,-6.94,-4.62,-4.63,-4.63
211.44,2.35,7.01,2.36,7.01,-7.01,-7.03,-7.04,-4.66,-4.66,-4.66
213.56,2.34,7.02,2.34,7.02,-7.03,-7.05,-7.14,-4.69,-4.69,-4.68
215.69,2.33,7.04,2.34,7.05,-7.05,-7.07,-7.24,-4.72,-4.71,-4.71
217.85,2.34,7.08,2.34,7.08,-7.08,-7.09,-7.34,-4.73,-4.74,-4.74
220.03,2.34,7.11,2.34,7.11,-7.11,-7.11,-7.43,-4.76,-4.76,-4.77
222.23,2.34,7.14,2.35,7.14,-7.14,-7.14,-7.53,-4.79,-4.79,-4.80
224.45,2.35,7.16,2.35,7.17,-7.17,-7.16,-7.62,-4.81,-4.81,-4.81
226.70,2.36,7.20,2.36,7.19,-7.19,-7.17,-7.70,-4.83,-4.83,-4.84
228.96,2.36,7.21,2.37,7.22,-7.22,-7.19,-7.79,-4.85,-4.85,-4.85
231.25,2.37,7.24,2.37,7.24,-7.24,-7.21,-7.86,-4.86,-4.87,-4.87
233.57,2.37,7.26,2.37,7.26,-7.25,-7.23,-7.93,-4.88,-4.88,-4.89
235.90,2.36,7.26,2.37,7.27,-7.26,-7.24,-7.99,-4.90,-4.90,-4.90
238.26,2.35,7.28,2.35,7.27,-7.26,-7.26,-8.05,-4.91,-4.91,-4.93
240.64,2.33,7.25,2.34,7.26,-7.26,-7.27,-8.10,-4.92,-4.92,-4.92
243.05,2.31,7.25,2.31,7.25,-7.24,-7.29,-8.14,-4.93,-4.93,-4.94
245.48,2.28,7.23,2.28,7.23,-7.22,-7.30,-8.16,-4.94,-4.94,-4.95
247.93,2.24,7.20,2.25,7.20,-7.20,-7.31,-8.18,-4.96,-4.95,-4.96
250.41,2.22,7.17,2.22,7.17,-7.17,-7.32,-8.19,-4.95,-4.96,-4.95
252.92,2.17,7.13,2.18,7.14,-7.14,-7.33,-8.19,-4.97,-4.96,-4.96
255.45,2.15,7.12,2.15,7.11,-7.12,-7.34,-8.18,-4.96,-4.96,-4.97
258.00,2.12,7.09,2.12,7.09,-7.09,-7.35,-8.16,-4.96,-4.96,-4.97
260.58,2.09,7.06,2.09,7.06,-7.06,-7.36,-8.14,-4.96,-4.97,-4.97
263.19,2.06,7.03,2.06,7.03,-7.04,-7.37,-8.10,-4.97,-4.97,-4.97
265.82,2.03,7.01,2.04,7.01,-7.02,-7.38,-8.05,-4.98,-4.98,-4.98
268.48,2.02,7.00,2.02,7.00,-7.00,-7.38,-8.00,-4.98,-4.98,-4.98
271.16,2.01,6.99,2.01,6.99,-6.99,-7.39,-7.94,-4.98,-4.98,-4.98
273.87,2.00,6.98,2.01,6.98,-6.99,-7.39,-7.88,-4.98,-4.98,-4.98
276.61,2.00,6.98,2.00,6.99,-6.99,-7.40,-7.81,-4.98,-4.98,-4.98
279.38,2.00,7.00,2.00,6.99,-6.99,-7.40,-7.74,-4.98,-4.99,-5.00
282.17,2.00,7.00,2.01,7.00,-6.99,-7.40,-7.66,-4.99,-4.99,-5.00
284.99,2.01,7.00,2.01,7.00,-7.00,-7.40,-7.58,-4.99,-4.99,-4.99
287.84,2.02,7.00,2.03,7.01,-7.01,-7.40,-7.49,-4.99,-4.98,-4.98
290.72,2.04,7.03,2.04,7.02,-7.02,-7.40,-7.41,-4.98,-4.98,-4.99
293.63,2.06,7.04,2.06,7.04,-7.03,-7.40,-7.33,-4.97,-4.97,-4.98
296.57,2.08,7.05,2.08,7.05,-7.05,-7.40,-7.24,-4.97,-4.97,-4.97
299.53,2.10,7.07,2.11,7.07,-7.07,-7.40,-7.16,-4.97,-4.96,-4.97
302.53,2.13,7.08,2.13,7.09,-7.10,-7.40,-7.07,-4.96,-4.96,-4.95
305.55,2.16,7.12,2.17,7.12,-7.12,-7.39,-6.99,-4.96,-4.96,-4.96
308.61,2.20,7.15,2.21,7.15,-7.16,-7.39,-6.91,-4.95,-4.95,-4.95
311.69,2.25,7.19,2.25,7.19,-7.20,-7.38,-6.84,-4.94,-4.95,-4.94
314.81,2.30,7.24,2.30,7.24,-7.24,-7.38,-6.76,-4.93,-4.94,-4.94
317.96,2.35,7.28,2.36,7.29,-7.28,-7.37,-6.69,-4.93,-4.93,-4.93
321.14,2.41,7.33,2.41,7.33,-7.33,-7.36,-6.63,-4.91,-4.91,-4.92
324.35,2.46,7.38,2.47,7.37,-7.37,-7.35,-6.56,-4.90,-4.90,-4.92
327.59,2.51,7.40,2.51,7.41,-7.41,-7.34,-6.50,-4.89,-4.89,-4.89
330.87,2.55,7.45,2.55,7.45,-7.44,-7.33,-6.45,-4.88,-4.89,-4.90
334.18,2.58,7.47,2.59,7.47,-7.47,-7.32,-6.40,-4.88,-4.88,-4.89
337.52,2.61,7.50,2.61,7.49,-7.50,-7.31,-6.35,-4.88,-4.88,-4.89
340.90,2.63,7.50,2.64,7.51,-7.52,-7.30,-6.31,-4.88,-4.88,-4.87
344.30,2.66,7.52,2.66,7.53,-7.54,-7.29,-6.27,-4.87,-4.87,-4.86
347.75,2.68,7.54,2.69,7.54,-7.55,-7.27,-6.24,-4.86,-4.86,-4.86
351.23,2.70,7.56,2.71,7.56,-7.55,-7.26,-6.21,-4.84,-4.84,-4.86
354.74,2.72,7.55,2.72,7.56,-7.55,-7.24,-6.19,-4.82,-4.83,-4.83
358.28,2.72,7.56,2.72,7.55,-7.54,-7.23,-6.17,-4.81,-4.82,-4.84
361.87,2.70,7.53,2.71,7.53,-7.52,-7.21,-6.16,-4.81,-4.81,-4.83
365.49,2.67,7.49,2.68,7.50,-7.49,-7.19,-6.15,-4.82,-4.81,-4.82
369.14,2.65,7.45,2.65,7.45,-7.46,-7.17,-6.14,-4.81,-4.81,-4.80
372.83,2.62,7.42,2.62,7.42,-7.43,-7.15,-6.14,-4.80,-4.81,-4.80
376.56,2.58,7.38,2.59,7.38,-7.39,-7.13,-6.15,-4.80,-4.80,-4.80
380.33,2.56,7.35,2.56,7.35,-7.35,-7.11,-6.15,-4.79,-4.79,-4.79
384.13,2.53,7.30,2.53,7.31,-7.31,-7.09,-6.17,-4.78,-4.78,-4.77
387.97,2.50,7.27,2.51,7.27,-7.27,-7.07,-6.18,-4.77,-4.76,-4.77
391.85,2.47,7.23,2.48,7.23,-7.23,-7.05,-6.20,-4.75,-4.75,-4.76
395.77,2.45,7.20,2.45,7.19,-7.19,-7.03,-6.23,-4.73,-4.74,-4.75
399.73,2.41,7.15,2.42,7.15,-7.14,-7.00,-6.25,-4.73,-4.73,-4.74
403.72,2.38,7.09,2.38,7.10,-7.10,-6.98,-6.28,-4.71,-4.72,-4.71
407.76,2.34,7.06,2.34,7.05,-7.06,-6.95,-6.31,-4.71,-4.71,-4.72
411.84,2.30,7.01,2.31,7.01,-7.01,-6.93,-6.35,-4.71,-4.71,-4.71
415.96,2.27,6.96,2.27,6.97,-6.97,-6.90,-6.39,-4.70,-4.70,-4.69
420.12,2.24,6.93,2.24,6.93,-6.94,-6.87,-6.43,-4.69,-4.69,-4.69
424.32,2.21,6.89,2.22,6.89,-6.90,-6.85,-6.46,-4.69,-4.68,-4.68
428.56,2.20,6.86,2.20,6.86,-6.86,-6.82,-6.51,-4.66,-4.66,-4.66
432.85,2.18,6.83,2.18,6.84,-6.83,-6.79,-6.55,-4.64,-4.65,-4.65
437.18,2.15,6.81,2.15,6.80,-6.79,-6.76,-6.59,-4.63,-4.63,-4.66
441.55,2.11,6.76,2.11,6.76,-6.74,-6.73,-6.63,-4.63,-4.63,-4.65
445.96,2.06,6.70,2.07,6.71,-6.70,-6.70,-6.66,-4.63,-4.63,-4.64
450.42,2.02,6.65,2.02,6.65,-6.65,-6.67,-6.70,-4.63,-4.63,-4.63
454.93,1.98,6.60,1.98,6.60,-6.60,-6.64,-6.73,-4.62,-4.62,-4.62
459.48,1.93,6.54,1.94,6.54,-6.55,-6.60,-6.76,-4.62,-4.61,-4.61
464.07,1.90,6.49,1.90,6.49,-6.50,-6.57,-6.79,-4.60,-4.60,-4.59
468.71,1.87,6.45,1.87,6.45,-6.46,-6.54,-6.81,-4.58,-4.59,-4.58
473.40,1.83,6.41,1.84,6.41,-6.42,-6.50,-6.83,-4.58,-4.58,-4.58
478.13,1.81,6.38,1.81,6.38,-6.38,-6.47,-6.85,-4.57,-4.57,-4.57
482.91,1.78,6.34,1.79,6.35,-6.35,-6.43,-6.85,-4.56,-4.56,-4.56
487.74,1.77,6.32,1.77,6.32,-6.32,-6.40,-6.85,-4.54,-4.54,-4.55
492.62,1.75,6.29,1.75,6.29,-6.28,-6.36,-6.85,-4.53,-4.53,-4.54
497.55,1.73,6.26,1.74,6.26,-6.25,-6.33,-6.84,-4.52,-4.52,-4.53
502.52,1.71,6.23,1.71,6.23,-6.22,-6.29,-6.82,-4.50,-4.51,-4.52
507.55,1.68,6.18,1.69,6.19,-6.19,-6.25,-6.80,-4.50,-4.50,-4.50
