frequency,raw,error,smoothed,error_smoothed,equalization,parametric_eq,fixed_band_eq,equalized_raw,equalized_smoothed,target
20.00,-13.48,-21.74,-13.48,-21.74,21.74,19.64,9.08,8.26,8.26,8.26
20.20,-13.38,-21.63,-13.38,-21.63,21.63,19.94,9.26,8.25,8.25,8.25
20.40,-13.27,-21.51,-13.27,-21.51,21.51,20.22,9.44,8.24,8.24,8.24
20.61,-13.17,-21.40,-13.17,-21.40,21.40,20.47,9.63,8.22,8.23,8.23
20.81,-13.06,-21.27,-13.06,-21.27,21.28,20.69,9.82,8.22,8.22,8.21
21.02,-12.96,-21.16,-12.96,-21.16,21.17,20.88,10.02,8.21,8.21,8.20
21.23,-12.85,-21.04,-12.85,-21.05,21.05,21.02,10.22,8.20,8.20,8.19
21.44,-12.75,-20.95,-12.75,-20.94,20.93,21.13,10.42,8.19,8.19,8.20
21.66,-12.64,-20.82,-12.64,-20.82,20.82,21.19,10.63,8.18,8.18,8.18
21.87,-12.53,-20.71,-12.53,-20.71,20.70,21.20,10.85,8.17,8.17,8.18
22.09,-12.42,-20.58,-12.42,-20.58,20.59,21.18,11.07,8.17,8.16,8.16
22.31,-12.32,-20.47,-12.32,-20.47,20.47,21.12,11.30,8.15,8.16,8.15
22.54,-12.21,-20.35,-12.21,-20.35,20.36,21.02,11.53,8.14,8.15,8.14
22.76,-12.10,-20.24,-12.10,-20.24,20.24,20.89,11.77,8.14,8.14,8.14
22.99,-11.99,-20.12,-11.99,-20.12,20.13,20.74,12.02,8.14,8.13,8.13
23.22,-11.89,-20.01,-11.89,-20.02,20.01,20.57,12.28,8.12,8.13,8.12
23.45,-11.78,-19.91,-11.78,-19.90,19.90,20.37,12.54,8.12,8.12,8.13
23.69,-11.67,-19.79,-11.67,-19.79,19.79,20.17,12.81,8.12,8.12,8.12
23.92,-11.56,-19.67,-11.56,-19.68,19.68,19.96,13.09,8.12,8.12,8.11
24.16,-11.45,-19.57,-11.45,-19.57,19.57,19.75,13.37,8.12,8.12,8.12
24.40,-11.34,-19.46,-11.34,-19.46,19.45,19.53,13.67,8.11,8.11,8.12
24.65,-11.23,-19.34,-11.23,-19.34,19.34,19.32,13.97,8.11,8.11,8.11
24.89,-11.12,-19.23,-11.12,-19.23,19.23,19.10,14.28,8.11,8.11,8.11
25.14,-11.01,-19.11,-11.01,-19.11,19.11,18.90,14.61,8.10,8.11,8.10
25.39,-10.89,-18.99,-10.89,-18.99,19.00,18.70,14.94,8.11,8.11,8.10
25.65,-10.78,-18.88,-10.78,-18.88,18.89,18.50,15.28,8.11,8.11,8.10
25.91,-10.67,-18.77,-10.67,-18.77,18.77,18.32,15.64,8.10,8.10,8.10
26.16,-10.56,-18.67,-10.56,-18.67,18.66,18.14,16.00,8.10,8.10,8.11
26.43,-10.45,-18.55,-10.45,-18.55,18.55,17.97,16.38,8.10,8.10,8.10
26.69,-10.34,-18.44,-10.34,-18.44,18.44,17.81,16.76,8.10,8.10,8.10
26.96,-10.23,-18.33,-10.23,-18.33,18.33,17.66,17.16,8.10,8.10,8.10
27.23,-10.12,-18.22,-10.12,-18.22,18.22,17.52,17.57,8.10,8.10,8.10
27.50,-10.00,-18.10,-10.00,-18.11,18.11,17.39,17.99,8.11,8.11,8.10
27.77,-9.89,-18.00,-9.89,-18.00,18.00,17.27,18.41,8.11,8.11,8.11
28.05,-9.78,-17.88,-9.78,-17.88,17.89,17.16,18.84,8.11,8.11,8.10
28.33,-9.67,-17.78,-9.67,-17.78,17.78,17.05,19.28,8.11,8.11,8.11
28.62,-9.55,-17.66,-9.55,-17.67,17.67,16.95,19.71,8.11,8.11,8.11
28.90,-9.44,-17.56,-9.44,-17.56,17.55,16.86,20.14,8.11,8.11,8.12
29.19,-9.33,-17.45,-9.33,-17.45,17.44,16.77,20.56,8.11,8.11,8.12
29.48,-9.22,-17.33,-9.22,-17.33,17.33,16.68,20.95,8.11,8.11,8.11
29.78,-9.10,-17.21,-9.10,-17.22,17.22,16.60,21.32,8.12,8.11,8.11
30.08,-8.99,-17.10,-8.99,-17.10,17.10,16.52,21.64,8.11,8.11,8.11
30.38,-8.89,-16.98,-8.89,-16.98,16.99,16.43,21.91,8.10,8.10,8.09
30.68,-8.78,-16.87,-8.78,-16.87,16.88,16.35,22.12,8.10,8.10,8.09
30.99,-8.67,-16.76,-8.68,-16.77,16.76,16.26,22.25,8.09,8.09,8.09
31.30,-8.57,-16.66,-8.57,-16.65,16.65,16.17,22.30,8.08,8.08,8.09
31.61,-8.46,-16.54,-8.46,-16.54,16.53,16.09,22.27,8.07,8.07,8.08
31.93,-8.35,-16.41,-8.35,-16.42,16.42,16.00,22.17,8.07,8.07,8.06
32.24,-8.24,-16.31,-8.24,-16.30,16.31,15.91,21.98,8.07,8.07,8.07
32.57,-8.13,-16.18,-8.13,-16.19,16.19,15.83,21.74,8.06,8.06,8.05
32.89,-8.02,-16.07,-8.02,-16.07,16.07,15.75,21.44,8.06,8.05,8.05
33.22,-7.92,-15.96,-7.92,-15.96,15.96,15.67,21.11,8.04,8.04,8.04
33.55,-7.81,-15.85,-7.81,-15.85,15.84,15.60,20.75,8.04,8.04,8.04
33.89,-7.70,-15.73,-7.70,-15.73,15.73,15.53,20.36,8.03,8.03,8.03
34.23,-7.60,-15.61,-7.60,-15.61,15.62,15.47,19.97,8.02,8.02,8.01
34.57,-7.49,-15.50,-7.49,-15.50,15.50,15.42,19.57,8.01,8.01,8.01
34.92,-7.39,-15.38,-7.39,-15.39,15.39,15.36,19.17,8.00,8.00,7.99
35.27,-7.28,-15.29,-7.28,-15.28,15.27,15.32,18.78,7.99,7.99,8.01
35.62,-7.17,-15.15,-7.17,-15.16,15.16,15.27,18.39,7.98,7.98,7.98
35.97,-7.06,-15.04,-7.06,-15.04,15.04,15.23,18.02,7.98,7.97,7.98
36.33,-6.96,-14.92,-6.96,-14.92,14.92,15.19,17.65,7.96,7.96,7.96
36.70,-6.85,-14.79,-6.85,-14.79,14.79,15.15,17.29,7.94,7.94,7.94
37.06,-6.75,-14.67,-6.75,-14.67,14.67,15.11,16.94,7.92,7.92,7.92
37.43,-6.64,-14.54,-6.64,-14.54,14.55,15.07,16.61,7.91,7.91,7.90
37.81,-6.53,-14.42,-6.53,-14.42,14.42,15.03,16.29,7.89,7.89,7.89
38.19,-6.43,-14.29,-6.43,-14.30,14.30,14.98,15.98,7.87,7.87,7.86
38.57,-6.33,-14.17,-6.33,-14.18,14.17,14.93,15.68,7.84,7.84,7.84
38.95,-6.23,-14.06,-6.23,-14.05,14.05,14.88,15.39,7.82,7.82,7.83
39.34,-6.13,-13.93,-6.13,-13.93,13.93,14.81,15.11,7.80,7.80,7.80
39.74,-6.03,-13.80,-6.03,-13.81,13.81,14.75,14.85,7.78,7.77,7.77
40.14,-5.94,-13.69,-5.94,-13.69,13.69,14.67,14.59,7.75,7.75,7.75
40.54,-5.84,-13.57,-5.84,-13.57,13.57,14.59,14.34,7.73,7.73,7.73
40.94,-5.74,-13.44,-5.74,-13.45,13.45,14.50,14.11,7.71,7.71,7.70
41.35,-5.65,-13.34,-5.65,-13.34,13.34,14.40,13.88,7.69,7.69,7.69
41.76,-5.56,-13.22,-5.56,-13.22,13.22,14.29,13.66,7.66,7.66,7.66
42.18,-5.47,-13.12,-5.47,-13.12,13.11,14.17,13.45,7.64,7.64,7.65
42.60,-5.38,-13.00,-5.38,-13.00,13.00,14.04,13.25,7.62,7.62,7.62
43.03,-5.29,-12.89,-5.29,-12.89,12.89,13.91,13.06,7.60,7.60,7.60
43.46,-5.21,-12.77,-5.21,-12.77,12.78,13.76,12.87,7.57,7.57,7.56
43.90,-5.13,-12.67,-5.13,-12.67,12.68,13.61,12.70,7.55,7.55,7.54
44.33,-5.05,-12.56,-5.05,-12.57,12.57,13.45,12.53,7.52,7.52,7.51
44.78,-4.98,-12.47,-4.98,-12.47,12.47,13.29,12.37,7.49,7.49,7.49
45.23,-4.91,-12.38,-4.91,-12.37,12.36,13.12,12.21,7.45,7.45,7.47
45.68,-4.84,-12.26,-4.84,-12.27,12.26,12.94,12.06,7.42,7.42,7.42
46.13,-4.77,-12.16,-4.77,-12.16,12.16,12.76,11.92,7.39,7.39,7.39
46.60,-4.69,-12.04,-4.69,-12.05,12.05,12.58,11.78,7.36,7.36,7.35
47.06,-4.62,-11.94,-4.62,-11.94,11.94,12.39,11.65,7.32,7.32,7.32
47.53,-4.56,-11.84,-4.56,-11.83,11.84,12.20,11.53,7.28,7.28,7.28
48.01,-4.49,-11.72,-4.49,-11.73,11.73,12.01,11.41,7.24,7.23,7.23
48.49,-4.43,-11.62,-4.43,-11.62,11.62,11.82,11.30,7.19,7.19,7.19
48.97,-4.36,-11.50,-4.36,-11.51,11.51,11.63,11.19,7.15,7.15,7.14
49.46,-4.29,-11.40,-4.29,-11.40,11.40,11.45,11.08,7.11,7.10,7.11
49.96,-4.23,-11.28,-4.22,-11.28,11.28,11.26,10.98,7.05,7.06,7.05
50.46,-4.15,-11.17,-4.15,-11.17,11.17,11.07,10.89,7.02,7.02,7.02
50.96,-4.08,-11.06,-4.08,-11.06,11.06,10.89,10.79,6.98,6.98,6.98
51.47,-4.00,-10.94,-4.00,-10.94,10.94,10.71,10.70,6.94,6.94,6.94
51.99,-3.92,-10.81,-3.92,-10.82,10.82,10.53,10.62,6.90,6.90,6.89
52.51,-3.84,-10.70,-3.84,-10.71,10.70,10.35,10.53,6.86,6.86,6.86
53.03,-3.77,-10.60,-3.76,-10.59,10.58,10.18,10.45,6.81,6.82,6.83
53.56,-3.68,-10.46,-3.68,-10.46,10.46,10.02,10.37,6.78,6.77,6.78
54.10,-3.59,-10.32,-3.60,-10.33,10.33,9.85,10.29,6.74,6.73,6.73
54.64,-3.51,-10.20,-3.51,-10.19,10.20,9.69,10.21,6.69,6.69,6.69
55.18,-3.42,-10.07,-3.42,-10.06,10.07,9.54,10.13,6.65,6.65,6.65
55.74,-3.32,-9.92,-3.32,-9.94,9.94,9.39,10.05,6.62,6.62,6.60
56.29,-3.23,-9.81,-3.23,-9.80,9.81,9.25,9.97,6.58,6.58,6.58
56.86,-3.14,-9.68,-3.14,-9.67,9.68,9.11,9.89,6.54,6.54,6.54
57.42,-3.05,-9.54,-3.05,-9.55,9.55,8.98,9.80,6.50,6.50,6.49
58.00,-2.96,-9.41,-2.96,-9.41,9.41,8.85,9.72,6.45,6.46,6.45
58.58,-2.86,-9.28,-2.86,-9.28,9.28,8.72,9.63,6.42,6.42,6.42
59.16,-2.76,-9.15,-2.76,-9.15,9.14,8.61,9.53,6.38,6.38,6.39
59.76,-2.66,-9.00,-2.66,-9.00,8.99,8.49,9.43,6.33,6.33,6.34
60.35,-2.56,-8.85,-2.56,-8.85,8.84,8.38,9.33,6.28,6.28,6.29
60.96,-2.46,-8.69,-2.46,-8.69,8.69,8.27,9.23,6.23,6.23,6.23
61.57,-2.35,-8.52,-2.35,-8.52,8.53,8.17,9.12,6.18,6.18,6.17
62.18,-2.25,-8.36,-2.25,-8.36,8.38,8.07,9.00,6.13,6.12,6.11
62.80,-2.16,-8.21,-2.16,-8.21,8.22,7.97,8.88,6.06,6.06,6.05
63.43,-2.06,-8.06,-2.06,-8.06,8.06,7.87,8.75,6.00,6.00,6.00
64.07,-1.96,-7.91,-1.96,-7.91,7.91,7.77,8.62,5.95,5.95,5.95
64.71,-1.86,-7.76,-1.86,-7.76,7.76,7.68,8.48,5.90,5.89,5.90
65.35,-1.77,-7.61,-1.77,-7.61,7.61,7.58,8.34,5.84,5.84,5.84
66.01,-1.67,-7.46,-1.67,-7.46,7.46,7.48,8.19,5.79,5.79,5.79
66.67,-1.56,-7.31,-1.57,-7.31,7.31,7.38,8.04,5.75,5.74,5.75
67.33,-1.47,-7.15,-1.47,-7.16,7.16,7.28,7.88,5.69,5.69,5.68
68.01,-1.38,-7.01,-1.37,-7.01,7.01,7.17,7.72,5.63,5.64,5.63
68.69,-1.28,-6.86,-1.28,-6.86,6.86,7.06,7.56,5.58,5.58,5.58
69.37,-1.19,-6.72,-1.19,-6.72,6.71,6.94,7.39,5.52,5.52,5.53
70.07,-1.10,-6.57,-1.10,-6.56,6.56,6.82,7.22,5.46,5.46,5.47
70.77,-1.00,-6.40,-1.00,-6.41,6.41,6.69,7.05,5.41,5.41,5.40
71.48,-0.91,-6.26,-0.91,-6.26,6.26,6.56,6.88,5.35,5.35,5.35
72.19,-0.82,-6.11,-0.82,-6.11,6.11,6.42,6.70,5.29,5.29,5.29
72.91,-0.73,-5.95,-0.73,-5.96,5.96,6.28,6.52,5.23,5.23,5.22
73.64,-0.64,-5.81,-0.64,-5.80,5.81,6.13,6.34,5.17,5.17,5.17
74.38,-0.54,-5.65,-0.55,-5.66,5.67,5.97,6.16,5.13,5.12,5.11
75.12,-0.46,-5.52,-0.46,-5.52,5.52,5.82,5.98,5.07,5.07,5.06
75.87,-0.38,-5.39,-0.38,-5.39,5.39,5.65,5.80,5.01,5.01,5.01
76.63,-0.30,-5.25,-0.30,-5.26,5.25,5.49,5.62,4.95,4.95,4.95
77.40,-0.22,-5.13,-0.22,-5.12,5.12,5.32,5.44,4.90,4.90,4.91
78.17,-0.14,-4.99,-0.14,-4.99,4.99,5.15,5.26,4.85,4.86,4.85
78.95,-0.05,-4.86,-0.06,-4.87,4.87,4.98,5.08,4.82,4.81,4.81
79.74,0.02,-4.74,0.02,-4.73,4.74,4.81,4.90,4.76,4.76,4.76
80.54,0.10,-4.61,0.10,-4.61,4.61,4.63,4.72,4.71,4.71,4.71
81.35,0.18,-4.47,0.18,-4.48,4.48,4.46,4.54,4.66,4.66,4.65
82.16,0.26,-4.36,0.26,-4.35,4.35,4.29,4.37,4.61,4.61,4.62
82.98,0.34,-4.22,0.34,-4.22,4.22,4.12,4.19,4.56,4.56,4.56
83.81,0.43,-4.08,0.43,-4.08,4.08,3.95,4.02,4.51,4.51,4.51
84.65,0.51,-3.94,0.51,-3.94,3.95,3.79,3.85,4.46,4.45,4.45
85.50,0.58,-3.81,0.59,-3.81,3.81,3.63,3.67,4.39,4.40,4.39
86.35,0.67,-3.67,0.67,-3.67,3.67,3.47,3.50,4.34,4.34,4.34
87.22,0.75,-3.54,0.75,-3.54,3.53,3.31,3.33,4.28,4.28,4.29
88.09,0.84,-3.39,0.84,-3.39,3.39,3.15,3.17,4.23,4.23,4.23
88.97,0.93,-3.24,0.93,-3.25,3.25,3.00,3.00,4.18,4.18,4.17
89.86,1.02,-3.10,1.02,-3.10,3.11,2.85,2.83,4.13,4.12,4.12
90.76,1.10,-2.96,1.10,-2.96,2.97,2.71,2.67,4.07,4.07,4.06
91.66,1.17,-2.82,1.18,-2.82,2.83,2.56,2.50,4.00,4.01,3.99
92.58,1.25,-2.69,1.25,-2.69,2.69,2.42,2.34,3.94,3.94,3.94
93.51,1.33,-2.56,1.33,-2.56,2.55,2.28,2.18,3.88,3.88,3.89
94.44,1.40,-2.43,1.40,-2.43,2.42,2.15,2.02,3.82,3.82,3.83
95.39,1.47,-2.29,1.47,-2.29,2.28,2.02,1.86,3.75,3.75,3.76
96.34,1.55,-2.14,1.55,-2.14,2.14,1.89,1.70,3.69,3.69,3.69
97.30,1.63,-2.00,1.63,-2.00,2.00,1.76,1.54,3.63,3.63,3.63
98.28,1.71,-1.85,1.71,-1.86,1.86,1.64,1.39,3.57,3.57,3.56
99.26,1.78,-1.72,1.78,-1.72,1.73,1.51,1.23,3.51,3.51,3.50
100.25,1.85,-1.59,1.85,-1.59,1.61,1.39,1.08,3.46,3.46,3.44
101.25,1.92,-1.47,1.92,-1.47,1.48,1.27,0.93,3.40,3.40,3.39
102.27,1.98,-1.35,1.97,-1.36,1.36,1.16,0.78,3.34,3.34,3.33
103.29,2.02,-1.25,2.02,-1.25,1.25,1.04,0.63,3.27,3.27,3.27
104.32,2.07,-1.15,2.08,-1.14,1.13,0.93,0.48,3.20,3.20,3.22
105.37,2.14,-1.02,2.14,-1.03,1.01,0.82,0.34,3.15,3.15,3.16
106.42,2.21,-0.90,2.21,-0.90,0.89,0.71,0.20,3.10,3.10,3.11
107.48,2.29,-0.76,2.29,-0.76,0.76,0.60,0.06,3.05,3.05,3.05
108.56,2.37,-0.63,2.37,-0.63,0.63,0.49,-0.08,3.00,3.00,3.00
109.64,2.45,-0.49,2.44,-0.50,0.50,0.39,-0.22,2.95,2.94,2.94
110.74,2.51,-0.37,2.51,-0.37,0.37,0.29,-0.35,2.88,2.88,2.88
111.85,2.58,-0.24,2.59,-0.24,0.24,0.18,-0.48,2.81,2.82,2.82
112.97,2.66,-0.11,2.66,-0.10,0.10,0.08,-0.60,2.76,2.77,2.77
114.10,2.74,0.03,2.74,0.03,-0.02,-0.02,-0.72,2.72,2.71,2.71
115.24,2.81,0.18,2.80,0.16,-0.15,-0.12,-0.84,2.66,2.65,2.63
116.39,2.84,0.27,2.85,0.28,-0.27,-0.22,-0.95,2.57,2.57,2.57
117.55,2.89,0.38,2.90,0.39,-0.40,-0.31,-1.06,2.49,2.51,2.51
118.73,2.97,0.52,2.97,0.51,-0.52,-0.41,-1.17,2.45,2.45,2.45
119.92,3.04,0.63,3.04,0.63,-0.63,-0.51,-1.26,2.41,2.41,2.41
121.12,3.11,0.75,3.10,0.75,-0.74,-0.60,-1.36,2.37,2.36,2.36
122.33,3.16,0.86,3.16,0.86,-0.85,-0.69,-1.45,2.31,2.31,2.30
123.55,3.21,0.96,3.22,0.97,-0.96,-0.79,-1.53,2.25,2.26,2.25
124.79,3.28,1.08,3.27,1.07,-1.07,-0.88,-1.61,2.21,2.20,2.20
126.03,3.33,1.19,3.32,1.18,-1.18,-0.97,-1.68,2.15,2.14,2.14
127.29,3.36,1.27,3.36,1.28,-1.29,-1.06,-1.75,2.07,2.08,2.09
128.57,3.40,1.38,3.41,1.38,-1.39,-1.16,-1.81,2.01,2.02,2.02
129.85,3.46,1.49,3.46,1.49,-1.50,-1.25,-1.87,1.96,1.96,1.97
131.15,3.52,1.61,3.51,1.60,-1.60,-1.34,-1.93,1.92,1.91,1.91
132.46,3.56,1.70,3.57,1.71,-1.70,-1.43,-1.98,1.86,1.86,1.86
133.79,3.61,1.81,3.61,1.81,-1.80,-1.52,-2.02,1.81,1.81,1.80
135.12,3.66,1.91,3.65,1.90,-1.89,-1.60,-2.06,1.77,1.76,1.75
136.48,3.69,1.99,3.69,2.00,-1.99,-1.69,-2.10,1.70,1.71,1.70
137.84,3.73,2.08,3.72,2.08,-2.07,-1.78,-2.14,1.66,1.65,1.65
139.22,3.75,2.16,3.75,2.16,-2.16,-1.87,-2.17,1.59,1.59,1.59
140.61,3.78,2.23,3.78,2.24,-2.24,-1.95,-2.20,1.54,1.54,1.55
142.02,3.82,2.33,3.82,2.32,-2.33,-2.04,-2.23,1.49,1.49,1.49
143.44,3.86,2.41,3.86,2.41,-2.41,-2.13,-2.25,1.45,1.44,1.45
144.87,3.90,2.49,3.90,2.49,-2.50,-2.21,-2.28,1.40,1.40,1.41
146.32,3.94,2.58,3.94,2.58,-2.58,-2.30,-2.30,1.36,1.36,1.36
147.78,3.99,2.67,3.99,2.67,-2.66,-2.38,-2.33,1.33,1.33,1.32
149.26,4.03,2.76,4.03,2.75,-2.74,-2.46,-2.35,1.29,1.28,1.27
150.75,4.06,2.83,4.06,2.83,-2.82,-2.55,-2.37,1.24,1.24,1.23
152.26,4.08,2.89,4.08,2.89,-2.90,-2.63,-2.40,1.18,1.19,1.19
153.78,4.11,2.96,4.11,2.96,-2.97,-2.71,-2.42,1.14,1.14,1.15
155.32,4.14,3.03,4.14,3.03,-3.04,-2.79,-2.45,1.10,1.10,1.11
156.88,4.18,3.12,4.17,3.11,-3.11,-2.87,-2.47,1.07,1.06,1.06
158.44,4.19,3.18,4.20,3.18,-3.18,-2.95,-2.50,1.01,1.02,1.01
160.03,4.22,3.25,4.22,3.25,-3.24,-3.03,-2.53,0.98,0.98,0.97
161.63,4.23,3.30,4.23,3.30,-3.30,-3.11,-2.56,0.93,0.93,0.93
163.24,4.24,3.36,4.24,3.36,-3.35,-3.19,-2.60,0.89,0.89,0.88
164.88,4.24,3.41,4.24,3.40,-3.40,-3.27,-2.63,0.84,0.84,0.83
166.53,4.23,3.45,4.23,3.44,-3.45,-3.34,-2.67,0.78,0.78,0.78
168.19,4.22,3.47,4.22,3.48,-3.49,-3.41,-2.71,0.73,0.73,0.75
169.87,4.22,3.53,4.22,3.53,-3.53,-3.49,-2.75,0.69,0.69,0.69
171.57,4.22,3.58,4.22,3.57,-3.58,-3.56,-2.79,0.64,0.64,0.64
173.29,4.22,3.62,4.22,3.62,-3.62,-3.63,-2.84,0.60,0.60,0.60
175.02,4.22,3.67,4.22,3.67,-3.67,-3.70,-2.89,0.55,0.55,0.55
176.77,4.22,3.72,4.22,3.72,-3.72,-3.77,-2.94,0.50,0.50,0.50
178.54,4.22,3.76,4.22,3.76,-3.76,-3.83,-3.00,0.46,0.46,0.46
180.32,4.22,3.82,4.22,3.81,-3.81,-3.90,-3.06,0.41,0.41,0.40
182.13,4.22,3.85,4.22,3.86,-3.86,-3.96,-3.12,0.36,0.36,0.37
183.95,4.22,3.90,4.22,3.90,-3.90,-4.02,-3.18,0.32,0.32,0.32
185.79,4.22,3.95,4.22,3.94,-3.94,-4.08,-3.25,0.28,0.28,0.27
187.65,4.22,3.99,4.22,3.99,-3.99,-4.14,-3.31,0.23,0.23,0.23
189.52,4.22,4.03,4.22,4.03,-4.03,-4.19,-3.39,0.19,0.19,0.19
191.42,4.22,4.07,4.22,4.07,-4.08,-4.24,-3.46,0.14,0.14,0.15
193.33,4.22,4.11,4.22,4.11,-4.12,-4.29,-3.53,0.10,0.10,0.11
195.27,4.22,4.16,4.22,4.16,-4.16,-4.34,-3.61,0.06,0.06,0.06
197.22,4.22,4.21,4.22,4.20,-4.20,-4.39,-3.69,0.02,0.02,0.01
199.19,4.22,4.24,4.22,4.24,-4.24,-4.43,-3.77,-0.02,-0.02,-0.02
201.18,4.22,4.28,4.22,4.28,-4.27,-4.47,-3.85,-0.05,-0.05,-0.06
203.19,4.22,4.31,4.22,4.30,-4.31,-4.51,-3.94,-0.09,-0.09,-0.09
205.23,4.22,4.33,4.22,4.33,-4.34,-4.54,-4.02,-0.12,-0.12,-0.11
207.28,4.22,4.36,4.22,4.36,-4.37,-4.58,-4.10,-0.15,-0.15,-0.14
209.35,4.22,4.40,4.22,4.39,-4.40,-4.60,-4.19,-0.18,-0.18,-0.18
211.44,4.22,4.43,4.22,4.43,-4.43,-4.63,-4.27,-0.21,-0.21,-0.21
213.56,4.22,4.45,4.22,4.45,-4.45,-4.66,-4.36,-0.23,-0.23,-0.23
215.69,4.22,4.48,4.22,4.48,-4.48,-4.68,-4.44,-0.26,-0.26,-0.26
217.85,4.22,4.51,4.22,4.51,-4.51,-4.69,-4.52,-0.29,-0.29,-0.29
220.03,4.22,4.54,4.22,4.54,-4.54,-4.71,-4.60,-0.32,-0.32,-0.32
222.23,4.22,4.57,4.22,4.56,-4.56,-4.72,-4.68,-0.34,-0.34,-0.35
224.45,4.22,4.58,4.22,4.59,-4.58,-4.73,-4.75,-0.36,-0.36,-0.36
226.70,4.22,4.61,4.22,4.60,-4.60,-4.74,-4.82,-0.38,-0.38,-0.39
228.96,4.22,4.62,4.22,4.62,-4.63,-4.74,-4.88,-0.41,-0.41,-0.40
231.25,4.22,4.64,4.22,4.64,-4.65,-4.74,-4.94,-0.43,-0.43,-0.42
233.57,4.22,4.66,4.22,4.66,-4.67,-4.74,-4.99,-0.45,-0.45,-0.44
235.90,4.23,4.68,4.23,4.68,-4.69,-4.73,-5.04,-0.46,-0.46,-0.45
238.26,4.23,4.71,4.23,4.70,-4.70,-4.72,-5.08,-0.47,-0.47,-0.48
240.64,4.24,4.71,4.24,4.72,-4.71,-4.71,-5.12,-0.47,-0.47,-0.47
243.05,4.24,4.73,4.24,4.73,-4.72,-4.70,-5.14,-0.48,-0.48,-0.49
245.48,4.23,4.73,4.23,4.73,-4.71,-4.68,-5.16,-0.48,-0.48,-0.50
247.93,4.21,4.72,4.21,4.71,-4.71,-4.66,-5.17,-0.50,-0.50,-0.51
250.41,4.19,4.69,4.18,4.69,-4.70,-4.64,-5.17,-0.51,-0.51,-0.50
252.92,4.15,4.66,4.16,4.67,-4.68,-4.61,-5.17,-0.53,-0.52,-0.51
255.45,4.13,4.65,4.13,4.65,-4.65,-4.59,-5.15,-0.52,-0.52,-0.52
258.00,4.11,4.63,4.11,4.63,-4.63,-4.56,-5.13,-0.52,-0.52,-0.52
260.58,4.08,4.60,4.08,4.60,-4.59,-4.53,-5.10,-0.51,-0.52,-0.52
263.19,4.05,4.57,4.05,4.57,-4.56,-4.50,-5.06,-0.51,-0.51,-0.52
265.82,4.00,4.53,4.01,4.53,-4.52,-4.46,-5.02,-0.52,-0.52,-0.53
268.48,3.97,4.50,3.96,4.49,-4.49,-4.42,-4.97,-0.52,-0.52,-0.53
271.16,3.92,4.45,3.92,4.44,-4.45,-4.39,-4.91,-0.53,-0.53,-0.53
273.87,3.86,4.39,3.87,4.40,-4.41,-4.35,-4.85,-0.55,-0.54,-0.53
276.61,3.83,4.36,3.83,4.36,-4.38,-4.30,-4.78,-0.55,-0.55,-0.53
279.38,3.79,4.34,3.79,4.33,-4.34,-4.26,-4.71,-0.55,-0.55,-0.55
282.17,3.76,4.31,3.76,4.31,-4.30,-4.22,-4.63,-0.54,-0.54,-0.55
284.99,3.74,4.28,3.73,4.28,-4.27,-4.17,-4.55,-0.53,-0.53,-0.54
287.84,3.70,4.23,3.70,4.24,-4.23,-4.12,-4.47,-0.53,-0.53,-0.53
290.72,3.67,4.21,3.67,4.20,-4.20,-4.08,-4.38,-0.53,-0.53,-0.54
293.63,3.63,4.16,3.63,4.16,-4.16,-4.03,-4.30,-0.53,-0.53,-0.53
296.57,3.59,4.11,3.59,4.11,-4.11,-3.98,-4.21,-0.52,-0.52,-0.52
299.53,3.55,4.07,3.55,4.06,-4.07,-3.93,-4.12,-0.52,-0.52,-0.52
302.53,3.51,4.01,3.51,4.02,-4.02,-3.87,-4.03,-0.51,-0.51,-0.50
305.55,3.47,3.98,3.47,3.97,-3.97,-3.82,-3.94,-0.50,-0.51,-0.51
308.61,3.43,3.93,3.43,3.92,-3.93,-3.77,-3.86,-0.50,-0.50,-0.50
311.69,3.38,3.87,3.38,3.88,-3.88,-3.72,-3.77,-0.50,-0.49,-0.49
314.81,3.34,3.83,3.34,3.83,-3.82,-3.66,-3.68,-0.48,-0.48,-0.49
317.96,3.30,3.78,3.30,3.78,-3.77,-3.61,-3.60,-0.47,-0.48,-0.48
321.14,3.25,3.72,3.25,3.72,-3.72,-3.55,-3.51,-0.47,-0.47,-0.47
324.35,3.20,3.67,3.20,3.66,-3.66,-3.50,-3.43,-0.46,-0.46,-0.47
327.59,3.15,3.59,3.15,3.60,-3.60,-3.44,-3.35,-0.45,-0.45,-0.44
330.87,3.10,3.55,3.10,3.54,-3.54,-3.39,-3.27,-0.44,-0.45,-0.45
334.18,3.04,3.48,3.04,3.48,-3.49,-3.33,-3.19,-0.45,-0.44,-0.44
337.52,2.99,3.43,2.99,3.42,-3.43,-3.28,-3.11,-0.44,-0.44,-0.44
340.90,2.94,3.36,2.94,3.36,-3.37,-3.22,-3.04,-0.43,-0.43,-0.42
344.30,2.90,3.31,2.90,3.32,-3.32,-3.17,-2.97,-0.42,-0.41,-0.41
347.75,2.87,3.28,2.86,3.27,-3.26,-3.11,-2.90,-0.39,-0.40,-0.41
351.23,2.82,3.23,2.82,3.22,-3.21,-3.06,-2.84,-0.39,-0.39,-0.41
354.74,2.77,3.15,2.77,3.16,-3.16,-3.01,-2.77,-0.39,-0.39,-0.38
358.28,2.71,3.10,2.71,3.10,-3.11,-2.95,-2.71,-0.40,-0.39,-0.39
361.87,2.66,3.04,2.67,3.04,-3.05,-2.90,-2.65,-0.39,-0.38,-0.38
365.49,2.63,3.00,2.63,2.99,-2.99,-2.84,-2.59,-0.36,-0.37,-0.37
369.14,2.59,2.94,2.59,2.94,-2.94,-2.79,-2.54,-0.35,-0.35,-0.35
372.83,2.54,2.89,2.54,2.89,-2.88,-2.74,-2.48,-0.34,-0.34,-0.35
376.56,2.48,2.83,2.48,2.82,-2.82,-2.68,-2.43,-0.34,-0.34,-0.35
380.33,2.42,2.76,2.42,2.76,-2.76,-2.63,-2.38,-0.34,-0.34,-0.34
384.13,2.36,2.68,2.36,2.69,-2.70,-2.58,-2.33,-0.34,-0.34,-0.32
387.97,2.31,2.63,2.31,2.63,-2.64,-2.53,-2.29,-0.33,-0.33,-0.32
391.85,2.27,2.58,2.27,2.58,-2.58,-2.48,-2.24,-0.31,-0.31,-0.31
395.77,2.23,2.53,2.23,2.52,-2.52,-2.43,-2.20,-0.29,-0.29,-0.30
399.73,2.18,2.47,2.18,2.47,-2.46,-2.38,-2.16,-0.28,-0.28,-0.29
403.72,2.14,2.40,2.14,2.41,-2.40,-2.33,-2.12,-0.26,-0.27,-0.26
407.76,2.09,2.36,2.09,2.35,-2.35,-2.28,-2.09,-0.26,-0.26,-0.27
411.84,2.03,2.29,2.04,2.29,-2.29,-2.23,-2.05,-0.26,-0.26,-0.26
415.96,1.99,2.23,1.99,2.24,-2.24,-2.18,-2.02,-0.25,-0.25,-0.24
420.12,1.95,2.19,1.95,2.18,-2.19,-2.13,-1.98,-0.24,-0.24,-0.24
424.32,1.91,2.14,1.91,2.13,-2.14,-2.08,-1.95,-0.23,-0.23,-0.23
428.56,1.87,2.08,1.87,2.08,-2.09,-2.04,-1.92,-0.22,-0.22,-0.21
432.85,1.83,2.03,1.83,2.04,-2.04,-1.99,-1.89,-0.21,-0.21,-0.20
437.18,1.79,2.00,1.79,1.99,-1.99,-1.94,-1.86,-0.20,-0.20,-0.21
441.55,1.75,1.95,1.75,1.95,-1.94,-1.90,-1.83,-0.19,-0.19,-0.20
445.96,1.71,1.90,1.71,1.90,-1.89,-1.85,-1.80,-0.18,-0.18,-0.19
450.42,1.67,1.85,1.66,1.84,-1.83,-1.81,-1.77,-0.16,-0.17,-0.18
454.93,1.61,1.78,1.61,1.78,-1.78,-1.76,-1.74,-0.17,-0.17,-0.17
459.48,1.56,1.72,1.56,1.72,-1.73,-1.72,-1.71,-0.17,-0.16,-0.16
464.07,1.52,1.66,1.52,1.66,-1.68,-1.67,-1.68,-0.16,-0.16,-0.14
468.71,1.48,1.61,1.48,1.61,-1.62,-1.63,-1.65,-0.14,-0.14,-0.13
