frequency,raw,error,smoothed,error_smoothed,equalization,parametric_eq,fixed_band_eq,equalized_raw,equalized_smoothed,target
20.00,-3.52,-6.32,-3.52,-6.32,6.35,6.40,2.02,2.83,2.83,2.80
20.20,-3.51,-6.34,-3.50,-6.33,6.33,6.36,2.08,2.82,2.84,2.83
20.40,-3.46,-6.32,-3.46,-6.32,6.31,6.32,2.14,2.85,2.85,2.86
20.61,-3.42,-6.30,-3.42,-6.31,6.28,6.28,2.20,2.87,2.87,2.88
20.81,-3.37,-6.28,-3.36,-6.28,6.26,6.24,2.27,2.89,2.90,2.91
21.02,-3.31,-6.25,-3.30,-6.24,6.23,6.19,2.33,2.92,2.93,2.94
21.23,-3.24,-6.19,-3.24,-6.20,6.20,6.15,2.40,2.96,2.95,2.95
21.44,-3.18,-6.14,-3.19,-6.15,6.16,6.11,2.47,2.98,2.97,2.96
21.66,-3.15,-6.12,-3.14,-6.11,6.12,6.07,2.54,2.97,2.98,2.97
21.87,-3.10,-6.07,-3.09,-6.07,6.07,6.02,2.62,2.98,2.98,2.97
22.09,-3.04,-6.02,-3.05,-6.03,6.03,5.98,2.69,2.99,2.98,2.98
22.31,-3.01,-5.99,-3.00,-5.98,5.98,5.93,2.77,2.98,2.98,2.98
22.54,-2.96,-5.94,-2.96,-5.94,5.94,5.89,2.85,2.98,2.98,2.98
22.76,-2.93,-5.91,-2.92,-5.90,5.89,5.85,2.94,2.96,2.97,2.98
22.99,-2.87,-5.84,-2.87,-5.84,5.84,5.80,3.02,2.98,2.98,2.97
23.22,-2.82,-5.79,-2.82,-5.79,5.79,5.76,3.11,2.98,2.98,2.97
23.45,-2.76,-5.73,-2.76,-5.73,5.74,5.71,3.20,2.99,2.98,2.97
23.69,-2.72,-5.69,-2.71,-5.69,5.69,5.66,3.29,2.97,2.98,2.97
23.92,-2.67,-5.64,-2.67,-5.64,5.64,5.62,3.38,2.97,2.97,2.97
24.16,-2.62,-5.59,-2.62,-5.59,5.58,5.57,3.47,2.97,2.97,2.97
24.40,-2.57,-5.54,-2.56,-5.53,5.53,5.53,3.57,2.96,2.97,2.97
24.65,-2.51,-5.47,-2.51,-5.48,5.48,5.48,3.67,2.97,2.97,2.96
24.89,-2.46,-5.42,-2.46,-5.42,5.42,5.43,3.76,2.97,2.97,2.96
25.14,-2.41,-5.37,-2.40,-5.37,5.37,5.38,3.86,2.96,2.96,2.96
25.39,-2.36,-5.32,-2.35,-5.31,5.31,5.34,3.96,2.96,2.96,2.96
25.65,-2.30,-5.26,-2.30,-5.26,5.26,5.29,4.06,2.96,2.96,2.96
25.91,-2.25,-5.20,-2.25,-5.21,5.21,5.24,4.16,2.96,2.96,2.95
26.16,-2.21,-5.16,-2.20,-5.15,5.16,5.19,4.26,2.95,2.96,2.95
26.43,-2.16,-5.11,-2.15,-5.11,5.11,5.15,4.36,2.95,2.95,2.95
26.69,-2.10,-5.05,-2.11,-5.06,5.06,5.10,4.46,2.96,2.95,2.95
26.96,-2.07,-5.02,-2.06,-5.01,5.01,5.05,4.55,2.95,2.95,2.95
27.23,-2.02,-4.96,-2.02,-4.97,4.97,5.00,4.65,2.95,2.94,2.94
27.50,-1.99,-4.93,-1.98,-4.92,4.92,4.95,4.74,2.94,2.94,2.94
27.77,-1.95,-4.88,-1.94,-4.88,4.88,4.90,4.82,2.93,2.94,2.93
28.05,-1.90,-4.83,-1.90,-4.83,4.84,4.86,4.91,2.94,2.93,2.93
28.33,-1.87,-4.79,-1.87,-4.79,4.79,4.81,4.99,2.93,2.93,2.92
28.62,-1.84,-4.76,-1.83,-4.75,4.75,4.76,5.06,2.91,2.92,2.92
28.90,-1.79,-4.71,-1.79,-4.71,4.71,4.71,5.13,2.92,2.92,2.92
29.19,-1.75,-4.66,-1.75,-4.67,4.66,4.66,5.20,2.92,2.91,2.91
29.48,-1.72,-4.63,-1.71,-4.62,4.62,4.61,5.25,2.90,2.91,2.91
29.78,-1.67,-4.57,-1.67,-4.58,4.58,4.56,5.30,2.91,2.90,2.90
30.08,-1.64,-4.54,-1.63,-4.53,4.53,4.51,5.34,2.89,2.90,2.90
30.38,-1.58,-4.47,-1.59,-4.48,4.49,4.47,5.38,2.91,2.90,2.89
30.68,-1.55,-4.44,-1.55,-4.43,4.44,4.42,5.41,2.89,2.89,2.89
30.99,-1.51,-4.39,-1.51,-4.39,4.39,4.37,5.43,2.88,2.88,2.88
31.30,-1.47,-4.34,-1.47,-4.35,4.34,4.32,5.43,2.87,2.87,2.87
31.61,-1.43,-4.30,-1.42,-4.29,4.29,4.27,5.44,2.86,2.86,2.87
31.93,-1.38,-4.24,-1.38,-4.24,4.24,4.22,5.43,2.86,2.86,2.86
32.24,-1.33,-4.18,-1.32,-4.18,4.18,4.17,5.41,2.86,2.86,2.85
32.57,-1.27,-4.12,-1.27,-4.12,4.13,4.13,5.39,2.86,2.85,2.85
32.89,-1.23,-4.07,-1.22,-4.07,4.07,4.08,5.36,2.84,2.85,2.84
33.22,-1.18,-4.01,-1.18,-4.01,4.01,4.03,5.32,2.83,2.83,2.83
33.55,-1.13,-3.96,-1.13,-3.96,3.95,3.98,5.28,2.82,2.82,2.83
33.89,-1.08,-3.90,-1.07,-3.89,3.89,3.94,5.22,2.81,2.82,2.82
34.23,-1.02,-3.83,-1.02,-3.84,3.83,3.89,5.17,2.82,2.81,2.81
34.57,-0.97,-3.77,-0.97,-3.77,3.78,3.85,5.10,2.81,2.81,2.80
34.92,-0.94,-3.73,-0.92,-3.72,3.72,3.80,5.04,2.79,2.80,2.79
35.27,-0.88,-3.66,-0.89,-3.67,3.67,3.75,4.97,2.80,2.79,2.78
35.62,-0.85,-3.62,-0.85,-3.62,3.63,3.71,4.89,2.78,2.77,2.77
35.97,-0.83,-3.59,-0.82,-3.58,3.58,3.66,4.81,2.75,2.76,2.76
36.33,-0.79,-3.54,-0.79,-3.54,3.54,3.62,4.73,2.75,2.75,2.75
36.70,-0.76,-3.50,-0.76,-3.50,3.50,3.58,4.65,2.74,2.74,2.74
37.06,-0.74,-3.47,-0.73,-3.46,3.46,3.53,4.57,2.73,2.73,2.73
37.43,-0.70,-3.42,-0.70,-3.43,3.43,3.49,4.49,2.73,2.73,2.72
37.81,-0.69,-3.40,-0.68,-3.39,3.39,3.45,4.40,2.71,2.71,2.71
38.19,-0.65,-3.35,-0.65,-3.36,3.36,3.41,4.32,2.71,2.70,2.70
38.57,-0.65,-3.34,-0.63,-3.33,3.32,3.36,4.24,2.68,2.69,2.69
38.95,-0.60,-3.28,-0.61,-3.29,3.29,3.32,4.16,2.69,2.68,2.68
39.34,-0.60,-3.26,-0.59,-3.25,3.25,3.28,4.08,2.66,2.66,2.66
39.74,-0.56,-3.21,-0.56,-3.21,3.22,3.24,4.00,2.66,2.65,2.65
40.14,-0.55,-3.19,-0.54,-3.18,3.18,3.20,3.92,2.63,2.64,2.64
40.54,-0.51,-3.14,-0.51,-3.14,3.14,3.17,3.84,2.64,2.64,2.63
40.94,-0.49,-3.11,-0.49,-3.11,3.11,3.13,3.77,2.62,2.62,2.62
41.35,-0.46,-3.07,-0.46,-3.07,3.08,3.09,3.70,2.62,2.62,2.61
41.76,-0.45,-3.05,-0.44,-3.04,3.04,3.05,3.63,2.60,2.60,2.60
42.18,-0.41,-3.00,-0.42,-3.01,3.01,3.02,3.56,2.60,2.60,2.59
42.60,-0.41,-2.99,-0.39,-2.98,2.98,2.98,3.49,2.57,2.58,2.58
43.03,-0.37,-2.94,-0.38,-2.95,2.94,2.95,3.43,2.58,2.56,2.57
43.46,-0.37,-2.92,-0.36,-2.92,2.91,2.92,3.37,2.54,2.55,2.55
43.90,-0.36,-2.89,-0.34,-2.88,2.88,2.88,3.31,2.52,2.53,2.53
44.33,-0.32,-2.83,-0.33,-2.85,2.84,2.85,3.26,2.53,2.51,2.51
44.78,-0.32,-2.81,-0.31,-2.81,2.81,2.82,3.20,2.49,2.50,2.49
45.23,-0.31,-2.78,-0.29,-2.77,2.78,2.79,3.15,2.47,2.48,2.47
45.68,-0.27,-2.73,-0.28,-2.74,2.74,2.76,3.10,2.48,2.46,2.46
46.13,-0.27,-2.71,-0.27,-2.71,2.71,2.73,3.06,2.45,2.45,2.44
46.60,-0.27,-2.70,-0.25,-2.68,2.68,2.70,3.02,2.42,2.44,2.43
47.06,-0.23,-2.64,-0.24,-2.65,2.65,2.68,2.98,2.43,2.41,2.41
47.53,-0.23,-2.62,-0.23,-2.63,2.62,2.65,2.94,2.40,2.39,2.39
48.01,-0.23,-2.61,-0.22,-2.60,2.59,2.62,2.90,2.36,2.37,2.38
48.49,-0.23,-2.58,-0.21,-2.56,2.55,2.60,2.87,2.33,2.34,2.35
48.97,-0.18,-2.50,-0.19,-2.52,2.51,2.58,2.84,2.34,2.32,2.32
49.46,-0.18,-2.47,-0.18,-2.47,2.47,2.55,2.81,2.30,2.29,2.29
49.96,-0.18,-2.44,-0.16,-2.43,2.43,2.53,2.78,2.26,2.27,2.26
50.46,-0.16,-2.40,-0.15,-2.39,2.40,2.51,2.75,2.24,2.24,2.24
50.96,-0.13,-2.35,-0.14,-2.36,2.36,2.49,2.73,2.23,2.22,2.22
51.47,-0.13,-2.32,-0.13,-2.32,2.33,2.46,2.70,2.20,2.20,2.19
51.99,-0.13,-2.30,-0.12,-2.30,2.30,2.44,2.68,2.17,2.18,2.17
52.51,-0.13,-2.28,-0.12,-2.27,2.28,2.43,2.66,2.15,2.16,2.15
53.03,-0.13,-2.26,-0.13,-2.26,2.26,2.41,2.64,2.13,2.13,2.13
53.56,-0.13,-2.23,-0.14,-2.25,2.25,2.39,2.62,2.12,2.10,2.10
54.10,-0.18,-2.26,-0.15,-2.24,2.24,2.37,2.61,2.06,2.08,2.08
54.64,-0.18,-2.23,-0.18,-2.23,2.23,2.35,2.59,2.05,2.05,2.05
55.18,-0.18,-2.21,-0.19,-2.22,2.22,2.34,2.57,2.04,2.03,2.03
55.74,-0.23,-2.23,-0.21,-2.22,2.22,2.32,2.55,1.99,2.00,2.00
56.29,-0.23,-2.21,-0.23,-2.22,2.21,2.31,2.54,1.99,1.98,1.98
56.86,-0.27,-2.23,-0.26,-2.22,2.21,2.29,2.52,1.95,1.96,1.96
57.42,-0.27,-2.20,-0.28,-2.21,2.22,2.28,2.50,1.95,1.94,1.93
58.00,-0.31,-2.22,-0.30,-2.22,2.22,2.26,2.48,1.92,1.92,1.91
58.58,-0.34,-2.23,-0.33,-2.23,2.23,2.25,2.46,1.90,1.90,1.89
59.16,-0.37,-2.24,-0.38,-2.25,2.25,2.23,2.44,1.88,1.87,1.87
59.76,-0.43,-2.28,-0.41,-2.26,2.26,2.22,2.42,1.84,1.85,1.85
60.35,-0.46,-2.28,-0.46,-2.29,2.28,2.21,2.40,1.83,1.82,1.82
60.96,-0.51,-2.30,-0.51,-2.30,2.31,2.19,2.38,1.80,1.79,1.79
61.57,-0.58,-2.33,-0.56,-2.32,2.33,2.18,2.35,1.75,1.77,1.75
62.18,-0.62,-2.34,-0.62,-2.35,2.35,2.17,2.33,1.74,1.73,1.72
62.80,-0.68,-2.37,-0.68,-2.37,2.37,2.15,2.30,1.69,1.69,1.69
63.43,-0.73,-2.39,-0.72,-2.39,2.38,2.14,2.27,1.65,1.66,1.66
64.07,-0.76,-2.39,-0.76,-2.40,2.38,2.13,2.24,1.63,1.62,1.63
64.71,-0.79,-2.40,-0.78,-2.39,2.38,2.11,2.20,1.59,1.60,1.61
65.35,-0.79,-2.37,-0.79,-2.37,2.36,2.10,2.17,1.57,1.57,1.58
66.01,-0.79,-2.34,-0.79,-2.34,2.33,2.09,2.13,1.54,1.54,1.55
66.67,-0.79,-2.31,-0.77,-2.29,2.29,2.07,2.10,1.51,1.52,1.52
67.33,-0.74,-2.23,-0.76,-2.25,2.25,2.06,2.06,1.51,1.49,1.49
68.01,-0.74,-2.20,-0.74,-2.20,2.20,2.05,2.02,1.47,1.47,1.46
68.69,-0.74,-2.17,-0.71,-2.15,2.15,2.03,1.98,1.42,1.44,1.43
69.37,-0.69,-2.09,-0.70,-2.11,2.11,2.02,1.94,1.42,1.40,1.40
70.07,-0.69,-2.06,-0.69,-2.06,2.07,2.00,1.89,1.38,1.38,1.37
70.77,-0.69,-2.03,-0.68,-2.02,2.03,1.99,1.85,1.34,1.35,1.34
71.48,-0.69,-2.00,-0.69,-2.00,2.00,1.97,1.81,1.31,1.31,1.31
72.19,-0.69,-1.96,-0.69,-1.97,1.97,1.95,1.76,1.29,1.28,1.27
72.91,-0.72,-1.96,-0.71,-1.95,1.96,1.94,1.72,1.24,1.25,1.24
73.64,-0.74,-1.94,-0.74,-1.94,1.95,1.92,1.67,1.21,1.21,1.20
74.38,-0.78,-1.95,-0.77,-1.94,1.95,1.90,1.63,1.17,1.17,1.17
75.12,-0.81,-1.94,-0.81,-1.94,1.95,1.88,1.58,1.14,1.14,1.13
75.87,-0.85,-1.95,-0.84,-1.95,1.95,1.86,1.54,1.10,1.10,1.10
76.63,-0.88,-1.95,-0.88,-1.96,1.95,1.84,1.49,1.08,1.07,1.07
77.40,-0.93,-1.97,-0.92,-1.96,1.95,1.82,1.45,1.03,1.04,1.04
78.17,-0.96,-1.96,-0.95,-1.96,1.95,1.80,1.40,0.99,1.00,1.00
78.95,-0.97,-1.94,-0.98,-1.96,1.94,1.78,1.36,0.98,0.96,0.97
79.74,-1.02,-1.96,-1.00,-1.94,1.93,1.76,1.32,0.92,0.93,0.94
80.54,-1.02,-1.92,-1.02,-1.92,1.92,1.73,1.27,0.90,0.90,0.90
81.35,-1.02,-1.89,-1.03,-1.91,1.90,1.71,1.23,0.89,0.87,0.87
82.16,-1.06,-1.89,-1.04,-1.87,1.88,1.69,1.19,0.83,0.85,0.83
82.98,-1.06,-1.86,-1.06,-1.86,1.87,1.66,1.15,0.81,0.81,0.80
83.81,-1.06,-1.82,-1.07,-1.83,1.85,1.64,1.10,0.79,0.78,0.76
84.65,-1.11,-1.83,-1.09,-1.82,1.83,1.61,1.06,0.73,0.74,0.72
85.50,-1.11,-1.80,-1.12,-1.81,1.81,1.58,1.02,0.71,0.69,0.69
86.35,-1.16,-1.81,-1.14,-1.80,1.79,1.55,0.99,0.63,0.64,0.65
87.22,-1.16,-1.77,-1.16,-1.77,1.76,1.52,0.95,0.60,0.60,0.61
88.09,-1.16,-1.73,-1.16,-1.74,1.72,1.49,0.91,0.56,0.56,0.57
88.97,-1.16,-1.69,-1.15,-1.69,1.67,1.46,0.87,0.51,0.52,0.53
89.86,-1.14,-1.63,-1.13,-1.62,1.61,1.43,0.84,0.48,0.48,0.49
90.76,-1.11,-1.55,-1.10,-1.55,1.55,1.40,0.80,0.44,0.45,0.44
91.66,-1.06,-1.46,-1.07,-1.47,1.47,1.37,0.76,0.42,0.41,0.40
92.58,-1.03,-1.38,-1.03,-1.39,1.40,1.34,0.73,0.37,0.37,0.35
93.51,-1.02,-1.33,-1.00,-1.32,1.32,1.30,0.70,0.31,0.32,0.31
94.44,-0.97,-1.24,-0.98,-1.24,1.25,1.27,0.66,0.28,0.27,0.27
95.39,-0.96,-1.18,-0.95,-1.17,1.18,1.24,0.63,0.22,0.23,0.22
96.34,-0.93,-1.10,-0.94,-1.11,1.11,1.20,0.60,0.18,0.17,0.17
97.30,-0.93,-1.05,-0.93,-1.05,1.04,1.17,0.57,0.12,0.12,0.12
98.28,-0.93,-1.00,-0.91,-0.99,0.98,1.13,0.53,0.06,0.07,0.07
99.26,-0.89,-0.92,-0.90,-0.93,0.92,1.09,0.50,0.04,0.03,0.03
100.25,-0.88,-0.86,-0.88,-0.86,0.86,1.06,0.47,-0.01,-0.02,-0.02
101.25,-0.88,-0.81,-0.87,-0.81,0.81,1.02,0.44,-0.06,-0.06,-0.07
102.27,-0.88,-0.76,-0.88,-0.76,0.76,0.98,0.42,-0.11,-0.11,-0.12
103.29,-0.88,-0.71,-0.87,-0.71,0.71,0.95,0.39,-0.16,-0.16,-0.17
104.32,-0.88,-0.67,-0.87,-0.66,0.67,0.91,0.36,-0.21,-0.20,-0.21
105.37,-0.88,-0.62,-0.88,-0.63,0.63,0.87,0.33,-0.25,-0.26,-0.26
106.42,-0.90,-0.59,-0.90,-0.59,0.59,0.83,0.31,-0.31,-0.31,-0.31
107.48,-0.93,-0.57,-0.92,-0.56,0.55,0.80,0.28,-0.38,-0.36,-0.36
108.56,-0.93,-0.52,-0.92,-0.52,0.51,0.76,0.25,-0.42,-0.41,-0.41
109.64,-0.93,-0.47,-0.93,-0.47,0.47,0.72,0.23,-0.46,-0.46,-0.46
110.74,-0.93,-0.42,-0.94,-0.43,0.43,0.68,0.20,-0.50,-0.51,-0.51
111.85,-0.96,-0.40,-0.95,-0.39,0.39,0.64,0.18,-0.57,-0.56,-0.56
112.97,-0.97,-0.35,-0.96,-0.34,0.34,0.61,0.16,-0.62,-0.61,-0.62
114.10,-0.97,-0.30,-0.97,-0.30,0.30,0.57,0.13,-0.66,-0.67,-0.67
115.24,-0.97,-0.24,-0.98,-0.26,0.26,0.53,0.11,-0.71,-0.72,-0.73
116.39,-1.02,-0.24,-1.00,-0.22,0.22,0.49,0.09,-0.79,-0.78,-0.78
117.55,-1.02,-0.18,-1.02,-0.19,0.18,0.46,0.07,-0.83,-0.84,-0.84
118.73,-1.04,-0.15,-1.04,-0.15,0.15,0.42,0.05,-0.89,-0.89,-0.89
119.92,-1.06,-0.12,-1.05,-0.11,0.12,0.38,0.03,-0.94,-0.93,-0.94
121.12,-1.06,-0.07,-1.07,-0.08,0.09,0.35,0.01,-0.97,-0.99,-0.99
122.33,-1.11,-0.07,-1.09,-0.05,0.05,0.31,-0.00,-1.05,-1.04,-1.04
123.55,-1.11,-0.02,-1.11,-0.03,0.02,0.27,-0.02,-1.08,-1.09,-1.09
124.79,-1.14,0.00,-1.14,-0.00,-0.01,0.24,-0.04,-1.14,-1.14,-1.14
126.03,-1.16,0.03,-1.15,0.03,-0.04,0.20,-0.05,-1.19,-1.19,-1.19
127.29,-1.18,0.06,-1.18,0.06,-0.07,0.17,-0.07,-1.24,-1.24,-1.24
128.57,-1.20,0.10,-1.20,0.10,-0.09,0.14,-0.08,-1.29,-1.29,-1.30
129.85,-1.22,0.13,-1.22,0.13,-0.12,0.10,-0.10,-1.34,-1.34,-1.35
131.15,-1.25,0.15,-1.24,0.16,-0.15,0.07,-0.11,-1.40,-1.40,-1.40
132.46,-1.26,0.19,-1.26,0.18,-0.18,0.04,-0.12,-1.44,-1.44,-1.45
133.79,-1.30,0.19,-1.29,0.20,-0.21,0.01,-0.13,-1.50,-1.49,-1.49
135.12,-1.30,0.24,-1.30,0.23,-0.23,-0.02,-0.15,-1.53,-1.54,-1.54
136.48,-1.34,0.24,-1.33,0.25,-0.25,-0.05,-0.16,-1.59,-1.58,-1.58
137.84,-1.34,0.29,-1.35,0.28,-0.27,-0.08,-0.17,-1.61,-1.62,-1.63
139.22,-1.39,0.29,-1.38,0.30,-0.29,-0.11,-0.18,-1.68,-1.67,-1.68
140.61,-1.39,0.33,-1.40,0.32,-0.31,-0.14,-0.19,-1.70,-1.71,-1.72
142.02,-1.44,0.31,-1.43,0.33,-0.33,-0.16,-0.20,-1.77,-1.76,-1.75
143.44,-1.44,0.35,-1.44,0.34,-0.35,-0.19,-0.21,-1.78,-1.79,-1.79
144.87,-1.48,0.35,-1.47,0.36,-0.36,-0.21,-0.22,-1.84,-1.83,-1.83
146.32,-1.48,0.39,-1.48,0.38,-0.38,-0.24,-0.23,-1.86,-1.86,-1.87
147.78,-1.51,0.39,-1.50,0.40,-0.40,-0.26,-0.24,-1.90,-1.90,-1.90
149.26,-1.53,0.41,-1.53,0.41,-0.41,-0.28,-0.25,-1.94,-1.94,-1.94
150.75,-1.55,0.43,-1.55,0.43,-0.43,-0.31,-0.26,-1.98,-1.98,-1.98
152.26,-1.58,0.44,-1.57,0.45,-0.45,-0.33,-0.27,-2.02,-2.02,-2.02
153.78,-1.59,0.47,-1.59,0.46,-0.46,-0.35,-0.28,-2.05,-2.06,-2.06
155.32,-1.62,0.48,-1.62,0.48,-0.48,-0.37,-0.29,-2.09,-2.09,-2.10
156.88,-1.65,0.49,-1.64,0.49,-0.49,-0.39,-0.30,-2.14,-2.14,-2.14
158.44,-1.67,0.51,-1.67,0.51,-0.51,-0.40,-0.31,-2.17,-2.18,-2.18
160.03,-1.71,0.51,-1.70,0.52,-0.52,-0.42,-0.32,-2.23,-2.22,-2.22
161.63,-1.72,0.54,-1.72,0.54,-0.54,-0.44,-0.33,-2.25,-2.25,-2.26
163.24,-1.75,0.55,-1.75,0.55,-0.55,-0.45,-0.34,-2.30,-2.29,-2.30
164.88,-1.76,0.57,-1.77,0.56,-0.56,-0.47,-0.35,-2.32,-2.33,-2.33
166.53,-1.81,0.56,-1.79,0.58,-0.58,-0.48,-0.36,-2.39,-2.37,-2.37
168.19,-1.81,0.60,-1.81,0.59,-0.60,-0.49,-0.37,-2.40,-2.41,-2.41
169.87,-1.83,0.62,-1.83,0.62,-0.62,-0.50,-0.39,-2.44,-2.45,-2.45
171.57,-1.86,0.63,-1.85,0.64,-0.63,-0.51,-0.40,-2.49,-2.48,-2.49
173.29,-1.86,0.66,-1.87,0.65,-0.65,-0.53,-0.41,-2.51,-2.52,-2.52
175.02,-1.90,0.66,-1.89,0.67,-0.67,-0.53,-0.43,-2.57,-2.56,-2.56
176.77,-1.90,0.70,-1.91,0.69,-0.69,-0.54,-0.44,-2.59,-2.60,-2.60
178.54,-1.94,0.70,-1.93,0.71,-0.71,-0.55,-0.46,-2.65,-2.64,-2.64
180.32,-1.95,0.73,-1.94,0.73,-0.73,-0.56,-0.47,-2.67,-2.67,-2.68
182.13,-1.95,0.76,-1.96,0.75,-0.74,-0.57,-0.49,-2.69,-2.71,-2.71
183.95,-2.00,0.75,-1.98,0.76,-0.76,-0.57,-0.50,-2.76,-2.74,-2.75
185.79,-2.00,0.78,-2.01,0.77,-0.78,-0.58,-0.52,-2.77,-2.78,-2.78
187.65,-2.04,0.78,-2.02,0.79,-0.79,-0.58,-0.53,-2.83,-2.82,-2.82
189.52,-2.04,0.81,-2.04,0.81,-0.81,-0.59,-0.55,-2.85,-2.85,-2.85
191.42,-2.04,0.84,-2.06,0.82,-0.83,-0.59,-0.57,-2.86,-2.88,-2.88
193.33,-2.09,0.82,-2.07,0.84,-0.84,-0.59,-0.59,-2.93,-2.91,-2.91
195.27,-2.09,0.85,-2.08,0.86,-0.86,-0.60,-0.60,-2.94,-2.94,-2.94
197.22,-2.09,0.88,-2.09,0.87,-0.87,-0.60,-0.62,-2.96,-2.97,-2.97
199.19,-2.09,0.91,-2.10,0.89,-0.89,-0.60,-0.64,-2.97,-2.99,-3.00
201.18,-2.14,0.88,-2.12,0.90,-0.90,-0.60,-0.66,-3.03,-3.02,-3.02
203.19,-2.14,0.90,-2.13,0.91,-0.91,-0.60,-0.67,-3.04,-3.04,-3.04
205.23,-2.14,0.92,-2.14,0.91,-0.92,-0.60,-0.69,-3.05,-3.06,-3.06
207.28,-2.14,0.93,-2.15,0.92,-0.92,-0.60,-0.71,-3.06,-3.07,-3.07
209.35,-2.18,0.91,-2.16,0.93,-0.92,-0.59,-0.73,-3.10,-3.08,-3.09
211.44,-2.18,0.93,-2.18,0.93,-0.92,-0.59,-0.75,-3.10,-3.10,-3.11
213.56,-2.18,0.94,-2.19,0.92,-0.92,-0.59,-0.76,-3.10,-3.12,-3.12
215.69,-2.22,0.90,-2.21,0.92,-0.92,-0.59,-0.78,-3.14,-3.13,-3.12
217.85,-2.23,0.90,-2.22,0.91,-0.91,-0.58,-0.79,-3.14,-3.13,-3.13
220.03,-2.23,0.91,-2.23,0.90,-0.91,-0.58,-0.81,-3.13,-3.14,-3.14
222.23,-2.23,0.92,-2.24,0.90,-0.90,-0.58,-0.82,-3.12,-3.14,-3.15
224.45,-2.28,0.87,-2.26,0.89,-0.89,-0.57,-0.84,-3.16,-3.15,-3.15
226.70,-2.28,0.87,-2.27,0.88,-0.88,-0.57,-0.85,-3.15,-3.15,-3.15
228.96,-2.28,0.87,-2.28,0.86,-0.87,-0.56,-0.86,-3.14,-3.15,-3.15
231.25,-2.28,0.86,-2.29,0.85,-0.85,-0.55,-0.87,-3.13,-3.14,-3.14
233.57,-2.32,0.82,-2.30,0.84,-0.84,-0.55,-0.88,-3.15,-3.14,-3.14
235.90,-2.32,0.82,-2.31,0.82,-0.82,-0.54,-0.88,-3.14,-3.13,-3.14
238.26,-2.32,0.81,-2.32,0.81,-0.80,-0.54,-0.89,-3.12,-3.13,-3.13
240.64,-2.32,0.80,-2.33,0.79,-0.79,-0.53,-0.89,-3.10,-3.12,-3.12
243.05,-2.36,0.75,-2.35,0.76,-0.77,-0.52,-0.89,-3.12,-3.11,-3.11
245.48,-2.37,0.73,-2.36,0.74,-0.74,-0.51,-0.89,-3.11,-3.10,-3.10
247.93,-2.37,0.72,-2.37,0.72,-0.72,-0.51,-0.89,-3.08,-3.09,-3.09
250.41,-2.37,0.71,-2.38,0.70,-0.69,-0.50,-0.89,-3.05,-3.06,-3.08
252.92,-2.41,0.65,-2.40,0.66,-0.66,-0.49,-0.88,-3.06,-3.05,-3.06
255.45,-2.41,0.63,-2.42,0.62,-0.62,-0.48,-0.87,-3.03,-3.04,-3.04
258.00,-2.46,0.57,-2.44,0.58,-0.59,-0.47,-0.87,-3.04,-3.03,-3.03
260.58,-2.46,0.55,-2.45,0.55,-0.55,-0.46,-0.85,-3.01,-3.01,-3.01
263.19,-2.46,0.53,-2.47,0.51,-0.52,-0.45,-0.84,-2.97,-2.99,-2.99
265.82,-2.50,0.47,-2.48,0.48,-0.48,-0.44,-0.83,-2.98,-2.96,-2.97
268.48,-2.51,0.44,-2.50,0.44,-0.44,-0.44,-0.81,-2.95,-2.95,-2.95
271.16,-2.51,0.42,-2.52,0.40,-0.41,-0.43,-0.79,-2.92,-2.93,-2.93
273.87,-2.55,0.36,-2.53,0.37,-0.38,-0.42,-0.77,-2.92,-2.91,-2.91
276.61,-2.55,0.34,-2.54,0.35,-0.34,-0.41,-0.75,-2.89,-2.88,-2.89
279.38,-2.55,0.32,-2.55,0.31,-0.31,-0.39,-0.73,-2.86,-2.86,-2.87
282.17,-2.55,0.30,-2.56,0.28,-0.28,-0.38,-0.70,-2.82,-2.84,-2.85
284.99,-2.60,0.23,-2.58,0.25,-0.25,-0.37,-0.68,-2.84,-2.83,-2.83
287.84,-2.60,0.21,-2.59,0.21,-0.22,-0.36,-0.65,-2.82,-2.82,-2.81
290.72,-2.60,0.19,-2.60,0.19,-0.20,-0.35,-0.63,-2.79,-2.80,-2.79
293.63,-2.60,0.17,-2.60,0.17,-0.17,-0.34,-0.60,-2.77,-2.77,-2.77
296.57,-2.60,0.15,-2.60,0.15,-0.15,-0.33,-0.57,-2.74,-2.74,-2.75
299.53,-2.60,0.13,-2.60,0.13,-0.13,-0.32,-0.54,-2.72,-2.72,-2.73
302.53,-2.60,0.11,-2.60,0.11,-0.11,-0.31,-0.51,-2.70,-2.70,-2.71
305.55,-2.60,0.08,-2.59,0.09,-0.09,-0.30,-0.48,-2.69,-2.68,-2.68
308.61,-2.58,0.08,-2.58,0.07,-0.08,-0.28,-0.45,-2.65,-2.66,-2.66
311.69,-2.58,0.05,-2.57,0.06,-0.06,-0.27,-0.42,-2.63,-2.63,-2.63
314.81,-2.56,0.04,-2.56,0.04,-0.04,-0.26,-0.39,-2.60,-2.60,-2.60
317.96,-2.55,0.03,-2.55,0.03,-0.02,-0.25,-0.36,-2.57,-2.57,-2.58
321.14,-2.55,0.01,-2.54,0.01,-0.01,-0.24,-0.33,-2.55,-2.55,-2.56
324.35,-2.55,-0.01,-2.55,-0.01,0.01,-0.23,-0.30,-2.53,-2.53,-2.54
327.59,-2.55,-0.03,-2.55,-0.03,0.03,-0.21,-0.27,-2.51,-2.51,-2.52
330.87,-2.55,-0.05,-2.55,-0.05,0.05,-0.20,-0.24,-2.50,-2.50,-2.50
334.18,-2.55,-0.07,-2.55,-0.07,0.07,-0.19,-0.21,-2.48,-2.48,-2.48
337.52,-2.55,-0.09,-2.55,-0.09,0.08,-0.18,-0.18,-2.46,-2.47,-2.46
340.90,-2.55,-0.11,-2.54,-0.10,0.10,-0.16,-0.14,-2.45,-2.44,-2.44
344.30,-2.54,-0.12,-2.53,-0.11,0.11,-0.15,-0.11,-2.42,-2.42,-2.42
347.75,-2.51,-0.11,-2.52,-0.12,0.13,-0.14,-0.08,-2.38,-2.39,-2.40
351.23,-2.51,-0.13,-2.51,-0.13,0.14,-0.13,-0.05,-2.37,-2.37,-2.38
354.74,-2.51,-0.15,-2.50,-0.14,0.15,-0.11,-0.02,-2.36,-2.35,-2.36
358.28,-2.51,-0.16,-2.51,-0.17,0.16,-0.10,0.01,-2.35,-2.35,-2.35
361.87,-2.51,-0.18,-2.50,-0.18,0.17,-0.09,0.05,-2.34,-2.34,-2.33
365.49,-2.51,-0.20,-2.49,-0.18,0.18,-0.08,0.08,-2.33,-2.31,-2.31
369.14,-2.46,-0.16,-2.47,-0.18,0.18,-0.06,0.11,-2.27,-2.29,-2.30
372.83,-2.46,-0.18,-2.46,-0.18,0.19,-0.05,0.14,-2.27,-2.27,-2.28
376.56,-2.46,-0.19,-2.46,-0.19,0.19,-0.04,0.17,-2.26,-2.26,-2.27
380.33,-2.46,-0.21,-2.45,-0.20,0.20,-0.03,0.20,-2.26,-2.26,-2.25
384.13,-2.46,-0.22,-2.44,-0.20,0.20,-0.01,0.23,-2.26,-2.24,-2.24
387.97,-2.41,-0.18,-2.42,-0.20,0.20,-0.00,0.26,-2.21,-2.22,-2.23
391.85,-2.41,-0.19,-2.41,-0.20,0.20,0.01,0.29,-2.20,-2.21,-2.22
395.77,-2.41,-0.21,-2.40,-0.20,0.20,0.02,0.32,-2.20,-2.20,-2.20
399.73,-2.41,-0.22,-2.39,-0.21,0.20,0.04,0.35,-2.20,-2.19,-2.19
403.72,-2.37,-0.19,-2.38,-0.21,0.20,0.05,0.38,-2.17,-2.19,-2.18
407.76,-2.37,-0.20,-2.37,-0.20,0.19,0.06,0.41,-2.17,-2.17,-2.17
411.84,-2.37,-0.21,-2.35,-0.19,0.19,0.07,0.44,-2.18,-2.15,-2.16
415.96,-2.32,-0.17,-2.34,-0.19,0.19,0.09,0.47,-2.13,-2.15,-2.15
420.12,-2.32,-0.18,-2.32,-0.18,0.18,0.10,0.50,-2.13,-2.13,-2.14
424.32,-2.32,-0.19,-2.30,-0.17,0.18,0.11,0.52,-2.14,-2.12,-2.13
428.56,-2.28,-0.16,-2.29,-0.17,0.18,0.12,0.55,-2.10,-2.11,-2.12
432.85,-2.28,-0.17,-2.28,-0.17,0.17,0.13,0.57,-2.10,-2.11,-2.11
437.18,-2.28,-0.18,-2.27,-0.17,0.17,0.15,0.60,-2.10,-2.09,-2.10
441.55,-2.27,-0.19,-2.26,-0.17,0.17,0.16,0.62,-2.09,-2.08,-2.08
445.96,-2.23,-0.16,-2.24,-0.18,0.17,0.17,0.64,-2.06,-2.07,-2.07
450.42,-2.23,-0.17,-2.22,-0.17,0.17,0.18,0.66,-2.06,-2.05,-2.06
454.93,-2.23,-0.19,-2.21,-0.16,0.17,0.19,0.68,-2.06,-2.04,-2.04
459.48,-2.18,-0.15,-2.20,-0.17,0.17,0.20,0.70,-2.01,-2.03,-2.03
464.07,-2.18,-0.16,-2.18,-0.16,0.17,0.21,0.71,-2.01,-2.01,-2.02
468.71,-2.18,-0.18,-2.16,-0.16,0.16,0.22,0.72,-2.01,-1.99,-2.00
