frequency,raw,error,smoothed,error_smoothed,equalization,parametric_eq,fixed_band_eq,equalized_raw,equalized_smoothed,target
20.00,-1.65,-5.79,-1.68,-5.85,5.85,4.68,1.52,4.20,4.17,4.14
20.20,-1.56,-5.75,-1.57,-5.78,5.78,4.77,1.57,4.22,4.21,4.19
20.40,-1.47,-5.71,-1.47,-5.71,5.71,4.86,1.61,4.24,4.24,4.24
20.61,-1.39,-5.66,-1.36,-5.64,5.64,4.94,1.66,4.25,4.28,4.27
20.81,-1.30,-5.62,-1.27,-5.57,5.57,5.02,1.71,4.27,4.31,4.32
21.02,-1.21,-5.57,-1.17,-5.50,5.50,5.09,1.76,4.29,4.33,4.36
21.23,-1.09,-5.47,-1.07,-5.43,5.43,5.15,1.82,4.34,4.36,4.38
21.44,-0.97,-5.37,-0.98,-5.36,5.36,5.20,1.87,4.39,4.38,4.40
21.66,-0.86,-5.28,-0.89,-5.29,5.29,5.24,1.93,4.43,4.40,4.42
21.87,-0.74,-5.17,-0.80,-5.22,5.22,5.27,1.98,4.48,4.42,4.43
22.09,-0.65,-5.10,-0.71,-5.14,5.14,5.29,2.04,4.49,4.43,4.45
22.31,-0.59,-5.05,-0.62,-5.07,5.07,5.30,2.10,4.48,4.45,4.46
22.54,-0.54,-5.00,-0.54,-4.99,4.99,5.30,2.16,4.45,4.45,4.46
22.76,-0.49,-4.95,-0.45,-4.91,4.91,5.28,2.23,4.42,4.46,4.46
22.99,-0.43,-4.88,-0.37,-4.83,4.83,5.26,2.29,4.40,4.46,4.45
23.22,-0.34,-4.79,-0.30,-4.76,4.76,5.23,2.36,4.42,4.46,4.45
23.45,-0.24,-4.68,-0.22,-4.68,4.68,5.18,2.42,4.45,4.46,4.44
23.69,-0.15,-4.60,-0.15,-4.62,4.62,5.13,2.49,4.46,4.46,4.45
23.92,-0.05,-4.50,-0.09,-4.55,4.55,5.06,2.56,4.50,4.46,4.45
24.16,0.02,-4.44,-0.02,-4.48,4.48,4.99,2.63,4.50,4.46,4.46
24.40,0.07,-4.40,0.05,-4.41,4.41,4.91,2.71,4.48,4.46,4.47
24.65,0.12,-4.34,0.12,-4.34,4.34,4.83,2.78,4.46,4.46,4.46
24.89,0.18,-4.28,0.19,-4.27,4.27,4.74,2.85,4.45,4.46,4.46
25.14,0.24,-4.22,0.26,-4.20,4.20,4.64,2.92,4.44,4.46,4.46
25.39,0.31,-4.16,0.32,-4.14,4.14,4.54,3.00,4.45,4.46,4.47
25.65,0.38,-4.09,0.39,-4.08,4.08,4.44,3.07,4.46,4.46,4.47
25.91,0.45,-4.01,0.45,-4.02,4.02,4.33,3.15,4.46,4.46,4.45
26.16,0.52,-3.93,0.50,-3.96,3.96,4.22,3.22,4.48,4.46,4.45
26.43,0.57,-3.88,0.57,-3.89,3.89,4.11,3.29,4.46,4.46,4.45
26.69,0.63,-3.82,0.63,-3.83,3.83,4.00,3.36,4.46,4.45,4.45
26.96,0.68,-3.78,0.69,-3.76,3.76,3.89,3.43,4.44,4.45,4.46
27.23,0.75,-3.71,0.76,-3.69,3.69,3.78,3.49,4.44,4.45,4.46
27.50,0.82,-3.64,0.83,-3.62,3.62,3.67,3.56,4.44,4.45,4.46
27.77,0.88,-3.56,0.89,-3.55,3.55,3.56,3.62,4.44,4.45,4.45
28.05,0.95,-3.49,0.96,-3.49,3.49,3.45,3.68,4.44,4.44,4.44
28.33,1.02,-3.41,1.03,-3.42,3.42,3.35,3.73,4.44,4.44,4.43
28.62,1.09,-3.34,1.09,-3.35,3.35,3.24,3.78,4.44,4.44,4.43
28.90,1.17,-3.27,1.16,-3.28,3.28,3.14,3.82,4.45,4.44,4.44
29.19,1.23,-3.20,1.22,-3.22,3.22,3.04,3.86,4.45,4.44,4.43
29.48,1.29,-3.15,1.28,-3.15,3.15,2.94,3.90,4.44,4.44,4.45
29.78,1.35,-3.08,1.34,-3.09,3.09,2.84,3.93,4.44,4.43,4.43
30.08,1.41,-3.03,1.40,-3.04,3.04,2.75,3.95,4.44,4.43,4.44
30.38,1.47,-2.96,1.45,-2.98,2.98,2.66,3.96,4.45,4.43,4.43
30.68,1.53,-2.90,1.51,-2.92,2.92,2.57,3.97,4.45,4.43,4.43
30.99,1.59,-2.84,1.57,-2.85,2.85,2.48,3.97,4.44,4.43,4.42
31.30,1.63,-2.79,1.64,-2.78,2.78,2.40,3.97,4.41,4.42,4.42
31.61,1.67,-2.75,1.71,-2.71,2.71,2.32,3.96,4.38,4.42,4.42
31.93,1.71,-2.71,1.77,-2.65,2.65,2.24,3.94,4.36,4.42,4.42
32.24,1.77,-2.63,1.82,-2.59,2.59,2.16,3.91,4.36,4.41,4.40
32.57,1.83,-2.58,1.88,-2.53,2.53,2.09,3.88,4.36,4.41,4.41
32.89,1.90,-2.51,1.94,-2.46,2.46,2.02,3.85,4.36,4.40,4.41
33.22,2.01,-2.39,2.00,-2.39,2.39,1.95,3.80,4.40,4.40,4.40
33.55,2.14,-2.25,2.06,-2.33,2.33,1.88,3.75,4.47,4.39,4.39
33.89,2.27,-2.11,2.12,-2.26,2.26,1.81,3.70,4.53,4.39,4.38
34.23,2.27,-2.12,2.18,-2.20,2.20,1.75,3.64,4.47,4.38,4.39
34.57,2.22,-2.15,2.23,-2.14,2.14,1.69,3.57,4.36,4.38,4.37
34.92,2.16,-2.21,2.28,-2.09,2.09,1.63,3.50,4.25,4.37,4.37
35.27,2.24,-2.13,2.33,-2.04,2.04,1.57,3.43,4.27,4.37,4.37
35.62,2.37,-1.99,2.38,-1.98,1.98,1.51,3.36,4.35,4.36,4.36
35.97,2.49,-1.87,2.42,-1.94,1.94,1.46,3.28,4.43,4.36,4.36
36.33,2.50,-1.86,2.45,-1.91,1.91,1.41,3.20,4.41,4.36,4.36
36.70,2.50,-1.85,2.47,-1.88,1.88,1.36,3.12,4.38,4.36,4.35
37.06,2.50,-1.84,2.50,-1.85,1.85,1.31,3.03,4.35,4.36,4.34
37.43,2.53,-1.83,2.54,-1.81,1.81,1.26,2.95,4.35,4.35,4.36
37.81,2.56,-1.79,2.59,-1.77,1.77,1.21,2.86,4.33,4.35,4.35
38.19,2.60,-1.75,2.64,-1.72,1.72,1.17,2.77,4.32,4.35,4.35
38.57,2.67,-1.68,2.69,-1.67,1.67,1.12,2.68,4.34,4.35,4.35
38.95,2.74,-1.62,2.73,-1.62,1.62,1.08,2.60,4.36,4.35,4.36
39.34,2.74,-1.61,2.76,-1.59,1.59,1.04,2.51,4.33,4.35,4.35
39.74,2.72,-1.63,2.79,-1.56,1.56,1.00,2.42,4.28,4.35,4.35
40.14,2.77,-1.58,2.84,-1.51,1.51,0.96,2.33,4.28,4.35,4.35
40.54,2.93,-1.41,2.89,-1.45,1.45,0.92,2.25,4.38,4.34,4.34
40.94,3.10,-1.24,2.94,-1.39,1.39,0.89,2.16,4.49,4.34,4.34
41.35,3.06,-1.27,2.99,-1.34,1.34,0.85,2.07,4.40,4.33,4.33
41.76,3.00,-1.32,3.03,-1.29,1.29,0.81,1.99,4.29,4.32,4.32
42.18,2.99,-1.33,3.06,-1.25,1.25,0.78,1.91,4.24,4.31,4.32
42.60,3.05,-1.26,3.10,-1.21,1.21,0.75,1.82,4.26,4.30,4.31
43.03,3.11,-1.19,3.12,-1.16,1.16,0.71,1.74,4.27,4.29,4.30
43.46,3.19,-1.10,3.15,-1.12,1.12,0.68,1.66,4.31,4.28,4.29
43.90,3.28,-0.98,3.19,-1.08,1.08,0.65,1.58,4.36,4.26,4.26
44.33,3.27,-0.97,3.21,-1.04,1.04,0.62,1.51,4.31,4.25,4.24
44.78,3.22,-1.00,3.23,-1.00,1.00,0.59,1.43,4.22,4.23,4.22
45.23,3.20,-1.01,3.24,-0.98,0.98,0.56,1.35,4.18,4.22,4.21
45.68,3.20,-0.99,3.25,-0.95,0.95,0.53,1.28,4.15,4.20,4.19
46.13,3.22,-0.95,3.28,-0.91,0.91,0.51,1.21,4.13,4.19,4.17
46.60,3.30,-0.87,3.31,-0.86,0.86,0.48,1.13,4.16,4.17,4.17
47.06,3.36,-0.79,3.34,-0.81,0.81,0.45,1.06,4.17,4.15,4.15
47.53,3.38,-0.76,3.36,-0.78,0.78,0.43,0.99,4.16,4.14,4.14
48.01,3.40,-0.74,3.38,-0.74,0.74,0.40,0.92,4.14,4.12,4.14
48.49,3.40,-0.71,3.40,-0.71,0.71,0.37,0.86,4.11,4.10,4.12
48.97,3.40,-0.69,3.42,-0.67,0.67,0.35,0.79,4.07,4.09,4.09
49.46,3.40,-0.67,3.45,-0.63,0.63,0.32,0.72,4.03,4.07,4.07
49.96,3.40,-0.64,3.47,-0.58,0.58,0.30,0.66,3.98,4.06,4.04
50.46,3.51,-0.53,3.49,-0.55,0.55,0.28,0.60,4.06,4.04,4.04
50.96,3.63,-0.40,3.50,-0.53,0.53,0.25,0.53,4.16,4.03,4.03
51.47,3.57,-0.43,3.50,-0.51,0.51,0.23,0.47,4.08,4.01,4.00
51.99,3.50,-0.48,3.50,-0.50,0.50,0.20,0.41,4.00,3.99,3.98
52.51,3.50,-0.48,3.50,-0.48,0.48,0.18,0.35,3.98,3.98,3.98
53.03,3.50,-0.47,3.51,-0.45,0.45,0.16,0.30,3.95,3.96,3.97
53.56,3.50,-0.45,3.51,-0.43,0.43,0.14,0.24,3.93,3.95,3.95
54.10,3.50,-0.43,3.51,-0.42,0.42,0.11,0.18,3.92,3.93,3.93
54.64,3.50,-0.42,3.51,-0.41,0.41,0.09,0.13,3.91,3.92,3.92
55.18,3.47,-0.44,3.51,-0.40,0.40,0.07,0.08,3.87,3.91,3.91
55.74,3.40,-0.49,3.50,-0.39,0.39,0.05,0.03,3.79,3.89,3.89
56.29,3.43,-0.44,3.49,-0.39,0.39,0.03,-0.02,3.82,3.87,3.88
56.86,3.57,-0.28,3.48,-0.37,0.37,0.00,-0.07,3.94,3.86,3.85
57.42,3.58,-0.24,3.49,-0.35,0.35,-0.02,-0.12,3.93,3.84,3.82
58.00,3.56,-0.25,3.49,-0.32,0.32,-0.04,-0.17,3.88,3.81,3.81
58.58,3.47,-0.32,3.49,-0.29,0.29,-0.06,-0.21,3.76,3.79,3.79
59.16,3.42,-0.35,3.49,-0.26,0.26,-0.08,-0.25,3.68,3.76,3.77
59.76,3.48,-0.27,3.49,-0.24,0.24,-0.11,-0.29,3.72,3.72,3.75
60.35,3.50,-0.20,3.48,-0.21,0.21,-0.13,-0.33,3.71,3.69,3.70
60.96,3.50,-0.16,3.49,-0.16,0.16,-0.15,-0.37,3.66,3.65,3.66
61.57,3.50,-0.12,3.50,-0.12,0.12,-0.17,-0.41,3.62,3.61,3.62
62.18,3.50,-0.07,3.50,-0.06,0.06,-0.19,-0.44,3.56,3.57,3.57
62.80,3.50,-0.02,3.51,-0.02,0.02,-0.21,-0.47,3.52,3.52,3.52
63.43,3.50,0.03,3.51,0.04,-0.04,-0.24,-0.51,3.46,3.48,3.47
64.07,3.50,0.08,3.52,0.10,-0.10,-0.26,-0.54,3.40,3.43,3.42
64.71,3.50,0.14,3.54,0.16,-0.16,-0.28,-0.57,3.34,3.37,3.36
65.35,3.50,0.18,3.56,0.23,-0.23,-0.30,-0.59,3.27,3.32,3.32
66.01,3.50,0.23,3.56,0.29,-0.29,-0.33,-0.62,3.21,3.27,3.27
66.67,3.67,0.46,3.57,0.35,-0.35,-0.35,-0.64,3.32,3.22,3.21
67.33,3.71,0.55,3.59,0.43,-0.43,-0.37,-0.67,3.28,3.16,3.16
68.01,3.62,0.51,3.61,0.50,-0.50,-0.40,-0.69,3.12,3.11,3.11
68.69,3.61,0.56,3.62,0.57,-0.57,-0.42,-0.71,3.04,3.05,3.05
69.37,3.60,0.60,3.64,0.64,-0.64,-0.44,-0.73,2.96,2.99,3.00
70.07,3.60,0.66,3.65,0.71,-0.71,-0.47,-0.76,2.89,2.94,2.94
70.77,3.60,0.71,3.64,0.77,-0.77,-0.49,-0.78,2.83,2.88,2.89
71.48,3.60,0.77,3.63,0.82,-0.82,-0.52,-0.80,2.78,2.81,2.83
72.19,3.61,0.86,3.61,0.86,-0.86,-0.54,-0.82,2.75,2.75,2.75
72.91,3.64,0.95,3.59,0.90,-0.90,-0.57,-0.83,2.74,2.69,2.69
73.64,3.72,1.09,3.57,0.94,-0.94,-0.59,-0.85,2.78,2.63,2.63
74.38,3.66,1.10,3.54,0.97,-0.97,-0.62,-0.87,2.69,2.56,2.56
75.12,3.50,1.01,3.52,1.02,-1.02,-0.64,-0.89,2.48,2.50,2.49
75.87,3.50,1.07,3.51,1.07,-1.07,-0.67,-0.91,2.43,2.44,2.43
76.63,3.45,1.08,3.49,1.11,-1.11,-0.70,-0.93,2.34,2.38,2.37
77.40,3.35,1.04,3.47,1.16,-1.16,-0.72,-0.95,2.19,2.31,2.31
78.17,3.27,1.03,3.45,1.20,-1.20,-0.75,-0.97,2.07,2.25,2.24
78.95,3.39,1.19,3.43,1.24,-1.24,-0.78,-1.00,2.16,2.19,2.20
79.74,3.40,1.26,3.41,1.27,-1.27,-0.81,-1.02,2.13,2.14,2.14
80.54,3.40,1.32,3.38,1.30,-1.30,-0.84,-1.04,2.10,2.08,2.08
81.35,3.40,1.38,3.35,1.32,-1.32,-0.87,-1.07,2.08,2.02,2.02
82.16,3.40,1.43,3.32,1.35,-1.35,-0.90,-1.09,2.05,1.97,1.97
82.98,3.40,1.48,3.30,1.39,-1.39,-0.93,-1.12,2.01,1.91,1.92
83.81,3.32,1.47,3.29,1.43,-1.43,-0.96,-1.14,1.89,1.86,1.85
84.65,3.27,1.47,3.26,1.46,-1.46,-0.99,-1.17,1.81,1.80,1.80
85.50,3.23,1.48,3.24,1.49,-1.49,-1.02,-1.20,1.74,1.74,1.75
86.35,3.16,1.47,3.19,1.51,-1.51,-1.06,-1.23,1.65,1.68,1.69
87.22,3.09,1.46,3.14,1.51,-1.51,-1.09,-1.26,1.58,1.63,1.63
88.09,3.04,1.47,3.07,1.51,-1.51,-1.12,-1.29,1.53,1.57,1.57
88.97,3.00,1.49,3.02,1.51,-1.51,-1.16,-1.32,1.49,1.51,1.51
89.86,3.00,1.55,2.96,1.51,-1.51,-1.19,-1.36,1.49,1.45,1.45
90.76,2.98,1.60,2.91,1.52,-1.52,-1.23,-1.39,1.46,1.39,1.38
91.66,2.93,1.60,2.86,1.53,-1.53,-1.26,-1.43,1.40,1.33,1.33
92.58,2.85,1.59,2.82,1.55,-1.55,-1.30,-1.47,1.30,1.27,1.26
93.51,2.75,1.55,2.78,1.57,-1.57,-1.34,-1.51,1.18,1.21,1.20
94.44,2.61,1.46,2.75,1.60,-1.60,-1.37,-1.54,1.01,1.15,1.15
95.39,2.58,1.49,2.72,1.63,-1.63,-1.41,-1.58,0.95,1.09,1.09
96.34,2.68,1.65,2.70,1.67,-1.67,-1.45,-1.63,1.01,1.03,1.03
97.30,2.69,1.72,2.68,1.70,-1.70,-1.48,-1.67,0.99,0.97,0.97
98.28,2.68,1.77,2.66,1.75,-1.75,-1.52,-1.71,0.94,0.92,0.91
99.26,2.67,1.81,2.65,1.79,-1.79,-1.56,-1.75,0.88,0.86,0.86
100.25,2.65,1.85,2.63,1.83,-1.83,-1.60,-1.80,0.82,0.80,0.80
101.25,2.63,1.89,2.62,1.88,-1.88,-1.64,-1.84,0.75,0.74,0.74
102.27,2.62,1.93,2.60,1.92,-1.92,-1.68,-1.89,0.70,0.68,0.69
103.29,2.61,1.99,2.58,1.96,-1.96,-1.72,-1.93,0.65,0.63,0.62
104.32,2.59,2.02,2.57,2.01,-2.01,-1.76,-1.98,0.58,0.57,0.57
105.37,2.57,2.06,2.56,2.05,-2.05,-1.80,-2.02,0.52,0.50,0.51
106.42,2.54,2.09,2.52,2.07,-2.07,-1.84,-2.06,0.47,0.44,0.45
107.48,2.52,2.13,2.48,2.10,-2.10,-1.88,-2.11,0.42,0.38,0.39
108.56,2.46,2.14,2.45,2.13,-2.13,-1.91,-2.15,0.33,0.32,0.32
109.64,2.38,2.12,2.41,2.15,-2.15,-1.95,-2.19,0.23,0.26,0.26
110.74,2.29,2.10,2.35,2.15,-2.15,-1.99,-2.23,0.14,0.20,0.19
111.85,2.24,2.09,2.29,2.16,-2.16,-2.03,-2.27,0.09,0.14,0.15
112.97,2.23,2.16,2.25,2.17,-2.17,-2.06,-2.30,0.06,0.08,0.07
114.10,2.23,2.22,2.21,2.19,-2.19,-2.10,-2.34,0.04,0.02,0.01
115.24,2.30,2.34,2.16,2.20,-2.20,-2.14,-2.37,0.10,-0.04,-0.04
116.39,2.08,2.19,2.11,2.21,-2.21,-2.17,-2.40,-0.13,-0.09,-0.11
117.55,1.99,2.14,2.07,2.22,-2.22,-2.20,-2.43,-0.22,-0.15,-0.15
118.73,2.06,2.27,2.02,2.22,-2.22,-2.24,-2.45,-0.16,-0.20,-0.21
119.92,1.94,2.18,1.97,2.21,-2.21,-2.27,-2.47,-0.27,-0.24,-0.24
121.12,1.78,2.08,1.91,2.20,-2.20,-2.30,-2.49,-0.42,-0.29,-0.30
122.33,1.78,2.12,1.86,2.19,-2.19,-2.32,-2.50,-0.41,-0.34,-0.34
123.55,1.91,2.28,1.80,2.18,-2.18,-2.35,-2.51,-0.27,-0.38,-0.37
124.79,2.01,2.42,1.74,2.16,-2.16,-2.37,-2.52,-0.15,-0.42,-0.42
126.03,1.67,2.13,1.67,2.13,-2.13,-2.40,-2.52,-0.46,-0.46,-0.46
127.29,1.55,2.04,1.60,2.10,-2.10,-2.42,-2.52,-0.55,-0.50,-0.49
128.57,1.52,2.06,1.54,2.08,-2.08,-2.43,-2.51,-0.56,-0.54,-0.54
129.85,1.49,2.07,1.49,2.07,-2.07,-2.45,-2.50,-0.58,-0.57,-0.58
131.15,1.34,1.95,1.42,2.03,-2.03,-2.46,-2.49,-0.69,-0.61,-0.61
132.46,1.28,1.93,1.33,1.98,-1.98,-2.48,-2.48,-0.70,-0.65,-0.65
133.79,1.27,1.96,1.27,1.95,-1.95,-2.49,-2.46,-0.68,-0.69,-0.69
135.12,1.24,1.97,1.21,1.93,-1.93,-2.49,-2.44,-0.69,-0.72,-0.73
136.48,1.18,1.94,1.14,1.90,-1.90,-2.50,-2.42,-0.72,-0.76,-0.76
137.84,1.12,1.92,1.08,1.88,-1.88,-2.50,-2.39,-0.76,-0.80,-0.80
139.22,1.05,1.90,1.04,1.87,-1.87,-2.50,-2.36,-0.82,-0.83,-0.85
140.61,1.01,1.90,1.01,1.89,-1.89,-2.50,-2.33,-0.88,-0.87,-0.89
142.02,1.01,1.92,0.98,1.89,-1.89,-2.49,-2.30,-0.88,-0.91,-0.91
143.44,0.78,1.73,0.95,1.90,-1.90,-2.48,-2.27,-1.12,-0.96,-0.95
144.87,0.74,1.74,0.92,1.93,-1.93,-2.47,-2.23,-1.19,-1.00,-1.00
146.32,0.88,1.93,0.91,1.97,-1.97,-2.46,-2.20,-1.08,-1.05,-1.05
147.78,1.06,2.15,0.90,2.01,-2.01,-2.44,-2.16,-0.95,-1.11,-1.09
149.26,1.00,2.14,0.88,2.05,-2.05,-2.43,-2.13,-1.05,-1.17,-1.14
150.75,0.84,2.06,0.87,2.11,-2.11,-2.41,-2.09,-1.27,-1.24,-1.22
152.26,0.81,2.10,0.87,2.18,-2.18,-2.39,-2.06,-1.37,-1.31,-1.29
153.78,0.81,2.17,0.86,2.24,-2.24,-2.36,-2.02,-1.43,-1.38,-1.36
155.32,0.81,2.26,0.82,2.28,-2.28,-2.34,-1.99,-1.47,-1.46,-1.45
156.88,0.81,2.34,0.78,2.31,-2.31,-2.31,-1.95,-1.50,-1.54,-1.53
158.44,0.81,2.43,0.74,2.35,-2.35,-2.29,-1.92,-1.54,-1.62,-1.62
160.03,0.78,2.49,0.69,2.38,-2.38,-2.26,-1.88,-1.60,-1.69,-1.71
161.63,0.72,2.51,0.62,2.39,-2.39,-2.23,-1.85,-1.67,-1.76,-1.79
163.24,0.62,2.47,0.54,2.37,-2.37,-2.19,-1.82,-1.75,-1.83,-1.85
164.88,0.53,2.44,0.46,2.36,-2.36,-2.16,-1.79,-1.83,-1.89,-1.91
166.53,0.45,2.42,0.40,2.35,-2.35,-2.13,-1.76,-1.90,-1.95,-1.97
168.19,0.27,2.28,0.34,2.33,-2.33,-2.09,-1.73,-2.06,-1.99,-2.01
169.87,-0.02,2.04,0.27,2.30,-2.30,-2.06,-1.70,-2.32,-2.03,-2.06
171.57,0.02,2.10,0.20,2.27,-2.27,-2.02,-1.68,-2.25,-2.06,-2.08
173.29,0.20,2.30,0.14,2.23,-2.23,-1.98,-1.65,-2.03,-2.09,-2.10
175.02,0.19,2.30,0.09,2.20,-2.20,-1.94,-1.63,-2.01,-2.11,-2.11
176.77,-0.01,2.12,0.04,2.17,-2.17,-1.91,-1.61,-2.18,-2.13,-2.13
178.54,-0.04,2.10,-0.01,2.13,-2.13,-1.87,-1.59,-2.17,-2.14,-2.14
180.32,-0.04,2.10,-0.06,2.09,-2.09,-1.83,-1.57,-2.13,-2.15,-2.14
182.13,-0.03,2.11,-0.08,2.08,-2.08,-1.79,-1.55,-2.11,-2.16,-2.14
183.95,-0.02,2.14,-0.09,2.08,-2.08,-1.75,-1.53,-2.10,-2.17,-2.15
185.79,-0.07,2.09,-0.09,2.09,-2.09,-1.72,-1.52,-2.16,-2.18,-2.16
187.65,-0.10,2.09,-0.09,2.10,-2.10,-1.68,-1.50,-2.20,-2.20,-2.19
189.52,-0.16,2.04,-0.11,2.11,-2.11,-1.64,-1.49,-2.27,-2.21,-2.20
191.42,-0.17,2.05,-0.15,2.08,-2.08,-1.60,-1.48,-2.25,-2.23,-2.22
193.33,-0.15,2.10,-0.18,2.07,-2.07,-1.56,-1.47,-2.22,-2.25,-2.25
195.27,-0.28,1.99,-0.18,2.09,-2.09,-1.52,-1.46,-2.37,-2.27,-2.27
197.22,-0.35,1.94,-0.19,2.10,-2.10,-1.49,-1.45,-2.45,-2.29,-2.29
199.19,-0.14,2.18,-0.22,2.09,-2.09,-1.45,-1.44,-2.23,-2.31,-2.32
201.18,-0.01,2.33,-0.27,2.07,-2.07,-1.41,-1.43,-2.08,-2.34,-2.34
203.19,-0.22,2.14,-0.31,2.06,-2.06,-1.38,-1.42,-2.28,-2.37,-2.36
205.23,-0.38,2.01,-0.33,2.06,-2.06,-1.34,-1.42,-2.44,-2.39,-2.39
207.28,-0.46,1.94,-0.38,2.04,-2.04,-1.31,-1.41,-2.50,-2.41,-2.40
209.35,-0.50,1.93,-0.43,2.01,-2.01,-1.27,-1.41,-2.51,-2.44,-2.43
211.44,-0.47,2.00,-0.46,2.00,-2.00,-1.24,-1.40,-2.47,-2.46,-2.47
213.56,-0.34,2.13,-0.51,1.97,-1.97,-1.20,-1.39,-2.31,-2.47,-2.47
215.69,-0.42,2.07,-0.56,1.93,-1.93,-1.17,-1.39,-2.35,-2.49,-2.49
217.85,-0.85,1.65,-0.61,1.90,-1.90,-1.14,-1.38,-2.75,-2.51,-2.50
220.03,-0.83,1.69,-0.67,1.85,-1.85,-1.10,-1.37,-2.68,-2.52,-2.52
222.23,-0.75,1.79,-0.74,1.79,-1.79,-1.07,-1.36,-2.54,-2.53,-2.54
224.45,-0.59,1.95,-0.79,1.74,-1.74,-1.04,-1.35,-2.33,-2.53,-2.54
226.70,-0.77,1.77,-0.84,1.69,-1.69,-1.01,-1.34,-2.46,-2.53,-2.54
228.96,-1.10,1.43,-0.88,1.65,-1.65,-0.98,-1.33,-2.75,-2.53,-2.53
231.25,-0.83,1.70,-0.92,1.60,-1.60,-0.95,-1.32,-2.43,-2.53,-2.53
233.57,-0.80,1.72,-0.97,1.54,-1.54,-0.92,-1.30,-2.34,-2.52,-2.52
235.90,-1.15,1.36,-1.03,1.48,-1.48,-0.89,-1.29,-2.63,-2.51,-2.51
238.26,-1.09,1.41,-1.06,1.43,-1.43,-0.86,-1.27,-2.52,-2.49,-2.50
240.64,-1.13,1.35,-1.09,1.39,-1.39,-0.83,-1.25,-2.52,-2.48,-2.48
243.05,-1.18,1.27,-1.11,1.35,-1.35,-0.80,-1.22,-2.53,-2.46,-2.45
245.48,-1.21,1.22,-1.15,1.28,-1.28,-0.78,-1.20,-2.49,-2.44,-2.43
247.93,-1.27,1.13,-1.21,1.21,-1.21,-0.75,-1.17,-2.48,-2.41,-2.40
250.41,-1.22,1.17,-1.25,1.14,-1.14,-0.72,-1.14,-2.36,-2.39,-2.39
252.92,-1.09,1.27,-1.29,1.09,-1.09,-0.69,-1.11,-2.18,-2.37,-2.36
255.45,-1.29,1.05,-1.33,1.02,-1.02,-0.67,-1.07,-2.31,-2.35,-2.34
258.00,-1.48,0.84,-1.39,0.94,-0.94,-0.64,-1.03,-2.42,-2.33,-2.32
260.58,-1.38,0.93,-1.43,0.88,-0.88,-0.62,-0.99,-2.26,-2.30,-2.31
263.19,-1.38,0.90,-1.48,0.80,-0.80,-0.59,-0.95,-2.18,-2.28,-2.28
265.82,-1.60,0.66,-1.56,0.70,-0.70,-0.56,-0.90,-2.30,-2.26,-2.26
268.48,-1.69,0.55,-1.64,0.60,-0.60,-0.54,-0.85,-2.29,-2.23,-2.24
271.16,-1.74,0.47,-1.73,0.48,-0.48,-0.51,-0.80,-2.22,-2.21,-2.21
273.87,-1.82,0.37,-1.83,0.36,-0.36,-0.49,-0.75,-2.18,-2.19,-2.19
276.61,-1.87,0.29,-1.93,0.23,-0.23,-0.46,-0.70,-2.10,-2.16,-2.16
279.38,-1.98,0.16,-2.03,0.10,-0.10,-0.44,-0.64,-2.08,-2.14,-2.14
282.17,-2.04,0.07,-2.12,-0.01,0.01,-0.41,-0.58,-2.03,-2.11,-2.11
284.99,-2.14,-0.06,-2.20,-0.12,0.12,-0.39,-0.52,-2.02,-2.08,-2.08
287.84,-2.34,-0.28,-2.28,-0.23,0.23,-0.36,-0.46,-2.11,-2.06,-2.06
290.72,-2.60,-0.57,-2.37,-0.34,0.34,-0.34,-0.40,-2.26,-2.03,-2.03
293.63,-2.53,-0.52,-2.43,-0.43,0.43,-0.31,-0.33,-2.10,-2.00,-2.00
296.57,-2.58,-0.61,-2.50,-0.52,0.52,-0.29,-0.26,-2.06,-1.97,-1.97
299.53,-2.62,-0.68,-2.57,-0.62,0.62,-0.26,-0.20,-1.99,-1.95,-1.94
302.53,-2.62,-0.69,-2.65,-0.73,0.73,-0.24,-0.13,-1.89,-1.92,-1.93
305.55,-2.63,-0.75,-2.72,-0.82,0.82,-0.21,-0.06,-1.81,-1.89,-1.88
308.61,-2.62,-0.75,-2.79,-0.92,0.92,-0.19,0.02,-1.70,-1.87,-1.87
311.69,-2.76,-0.92,-2.84,-1.00,1.00,-0.16,0.09,-1.76,-1.85,-1.84
314.81,-2.84,-1.02,-2.89,-1.06,1.06,-0.13,0.16,-1.78,-1.83,-1.82
317.96,-2.87,-1.07,-2.93,-1.12,1.12,-0.11,0.24,-1.75,-1.81,-1.80
321.14,-2.97,-1.18,-2.96,-1.17,1.17,-0.08,0.31,-1.80,-1.79,-1.79
324.35,-3.06,-1.28,-2.99,-1.22,1.22,-0.05,0.39,-1.84,-1.77,-1.78
327.59,-3.22,-1.46,-3.03,-1.27,1.27,-0.02,0.47,-1.95,-1.76,-1.76
330.87,-3.25,-1.50,-3.07,-1.32,1.32,0.01,0.54,-1.93,-1.75,-1.75
334.18,-3.19,-1.45,-3.11,-1.38,1.38,0.04,0.62,-1.81,-1.74,-1.74
337.52,-3.15,-1.42,-3.16,-1.43,1.43,0.07,0.70,-1.72,-1.73,-1.73
340.90,-3.13,-1.42,-3.21,-1.49,1.49,0.10,0.78,-1.64,-1.72,-1.71
344.30,-3.10,-1.39,-3.24,-1.53,1.53,0.14,0.86,-1.57,-1.71,-1.71
347.75,-3.14,-1.43,-3.27,-1.56,1.56,0.17,0.95,-1.58,-1.71,-1.71
351.23,-3.21,-1.51,-3.30,-1.60,1.60,0.21,1.03,-1.61,-1.70,-1.70
354.74,-3.28,-1.58,-3.34,-1.64,1.64,0.25,1.12,-1.64,-1.70,-1.70
358.28,-3.36,-1.66,-3.37,-1.67,1.67,0.29,1.20,-1.69,-1.70,-1.70
361.87,-3.43,-1.73,-3.39,-1.69,1.69,0.33,1.29,-1.74,-1.70,-1.70
365.49,-3.52,-1.83,-3.40,-1.71,1.71,0.37,1.37,-1.81,-1.70,-1.69
369.14,-3.58,-1.88,-3.44,-1.74,1.74,0.42,1.46,-1.84,-1.70,-1.70
372.83,-3.58,-1.87,-3.48,-1.78,1.78,0.46,1.55,-1.80,-1.70,-1.70
376.56,-3.54,-1.83,-3.52,-1.82,1.82,0.51,1.64,-1.72,-1.70,-1.71
380.33,-3.52,-1.82,-3.56,-1.85,1.85,0.56,1.73,-1.67,-1.71,-1.70
384.13,-3.55,-1.85,-3.59,-1.88,1.88,0.62,1.82,-1.67,-1.71,-1.70
387.97,-3.63,-1.92,-3.61,-1.90,1.90,0.68,1.91,-1.73,-1.71,-1.71
391.85,-3.59,-1.87,-3.64,-1.92,1.92,0.74,2.00,-1.67,-1.72,-1.72
395.77,-3.55,-1.83,-3.67,-1.94,1.94,0.80,2.09,-1.61,-1.73,-1.72
399.73,-3.57,-1.84,-3.70,-1.97,1.97,0.87,2.19,-1.60,-1.73,-1.73
403.72,-3.71,-1.98,-3.74,-2.00,2.00,0.95,2.28,-1.71,-1.74,-1.73
407.76,-3.91,-2.17,-3.79,-2.05,2.05,1.03,2.37,-1.86,-1.74,-1.74
411.84,-3.91,-2.17,-3.84,-2.09,2.09,1.11,2.46,-1.82,-1.75,-1.74
415.96,-3.86,-2.12,-3.89,-2.15,2.15,1.20,2.55,-1.71,-1.75,-1.74
420.12,-3.91,-2.17,-3.95,-2.21,2.21,1.29,2.64,-1.70,-1.75,-1.74
424.32,-3.95,-2.20,-4.01,-2.27,2.27,1.39,2.72,-1.68,-1.74,-1.75
428.56,-4.07,-2.33,-4.06,-2.33,2.33,1.50,2.81,-1.74,-1.73,-1.74
432.85,-4.17,-2.44,-4.11,-2.40,2.40,1.61,2.89,-1.77,-1.71,-1.73
437.18,-4.22,-2.50,-4.16,-2.46,2.46,1.73,2.97,-1.76,-1.69,-1.72
441.55,-4.24,-2.56,-4.19,-2.52,2.52,1.86,3.04,-1.72,-1.67,-1.68
445.96,-4.26,-2.61,-4.21,-2.57,2.57,2.00,3.12,-1.69,-1.64,-1.65
450.42,-4.22,-2.60,-4.22,-2.62,2.62,2.14,3.19,-1.60,-1.60,-1.62
454.93,-4.24,-2.67,-4.24,-2.68,2.68,2.29,3.25,-1.56,-1.56,-1.57
459.48,-4.28,-2.76,-4.26,-2.74,2.74,2.44,3.31,-1.54,-1.52,-1.52
464.07,-4.31,-2.84,-4.28,-2.81,2.81,2.60,3.36,-1.50,-1.47,-1.47
468.71,-4.31,-2.89,-4.29,-2.87,2.87,2.76,3.41,-1.44,-1.42,-1.42
473.40,-4.28,-2.90,-4.31,-2.94,2.94,2.93,3.45,-1.34,-1.37,-1.38
478.13,-4.26,-2.94,-4.33,-3.00,3.00,3.09,3.49,-1.26,-1.33,-1.32
482.91,-4.25,-2.97,-4.35,-3.07,3.07,3.24,3.52,-1.18,-1.28,-1.28
487.74,-4.33,-3.09,-4.38,-3.14,3.14,3.39,3.54,-1.19,-1.24,-1.24
492.62,-4.42,-3.23,-4.42,-3.22,3.22,3.53,3.55,-1.20,-1.20,-1.19
497.55,-4.50,-3.33,-4.47,-3.29,3.29,3.65,3.56,-1.21,-1.17,-1.17
