frequency,raw,error,smoothed,error_smoothed,equalization,parametric_eq,fixed_band_eq,equalized_raw,equalized_smoothed,target
20.00,-1.99,-5.11,-2.00,-5.12,5.16,4.77,0.84,3.18,3.16,3.12
20.20,-1.95,-5.10,-1.93,-5.08,5.08,4.69,0.87,3.14,3.16,3.15
20.40,-1.85,-5.04,-1.84,-5.02,5.00,4.61,0.90,3.14,3.16,3.18
20.61,-1.73,-4.93,-1.74,-4.94,4.91,4.53,0.93,3.18,3.18,3.20
20.81,-1.61,-4.85,-1.61,-4.84,4.82,4.45,0.95,3.21,3.21,3.23
21.02,-1.49,-4.75,-1.49,-4.75,4.73,4.38,0.98,3.24,3.24,3.26
21.23,-1.38,-4.65,-1.37,-4.65,4.64,4.30,1.01,3.26,3.26,3.27
21.44,-1.26,-4.55,-1.25,-4.53,4.54,4.22,1.05,3.27,3.29,3.28
21.66,-1.12,-4.41,-1.13,-4.41,4.43,4.14,1.08,3.31,3.30,3.29
21.87,-1.00,-4.30,-1.01,-4.30,4.32,4.06,1.11,3.31,3.31,3.29
22.09,-0.90,-4.20,-0.90,-4.20,4.21,3.98,1.15,3.31,3.31,3.30
22.31,-0.81,-4.12,-0.81,-4.11,4.10,3.90,1.18,3.29,3.30,3.30
22.54,-0.71,-4.01,-0.70,-4.00,4.00,3.83,1.22,3.29,3.29,3.30
22.76,-0.60,-3.90,-0.60,-3.90,3.89,3.75,1.25,3.30,3.29,3.30
22.99,-0.49,-3.78,-0.49,-3.79,3.79,3.67,1.29,3.30,3.30,3.29
23.22,-0.40,-3.69,-0.39,-3.68,3.69,3.59,1.33,3.29,3.30,3.29
23.45,-0.29,-3.58,-0.29,-3.58,3.58,3.51,1.37,3.29,3.29,3.29
23.69,-0.19,-3.48,-0.18,-3.48,3.47,3.43,1.41,3.28,3.29,3.29
23.92,-0.07,-3.37,-0.07,-3.37,3.36,3.35,1.45,3.29,3.28,3.29
24.16,0.03,-3.26,0.03,-3.26,3.25,3.28,1.49,3.29,3.28,3.29
24.40,0.15,-3.15,0.15,-3.14,3.14,3.20,1.53,3.29,3.29,3.29
24.65,0.25,-3.03,0.26,-3.03,3.03,3.12,1.58,3.29,3.29,3.28
24.89,0.37,-2.92,0.36,-2.92,2.93,3.04,1.62,3.29,3.29,3.28
25.14,0.46,-2.82,0.46,-2.82,2.82,2.96,1.66,3.29,3.28,3.28
25.39,0.56,-2.73,0.56,-2.72,2.72,2.89,1.70,3.27,3.28,3.28
25.65,0.66,-2.62,0.66,-2.62,2.62,2.81,1.75,3.28,3.28,3.28
25.91,0.75,-2.52,0.75,-2.52,2.52,2.73,1.79,3.28,3.28,3.27
26.16,0.84,-2.44,0.84,-2.43,2.43,2.66,1.83,3.27,3.27,3.27
26.43,0.94,-2.33,0.93,-2.34,2.34,2.58,1.87,3.28,3.27,3.27
26.69,1.00,-2.27,1.02,-2.25,2.25,2.50,1.92,3.25,3.26,3.27
26.96,1.11,-2.16,1.10,-2.17,2.16,2.43,1.96,3.27,3.26,3.27
27.23,1.17,-2.09,1.18,-2.08,2.07,2.35,1.99,3.25,3.26,3.26
27.50,1.27,-1.99,1.27,-1.99,1.99,2.28,2.03,3.26,3.26,3.26
27.77,1.35,-1.90,1.35,-1.90,1.91,2.20,2.07,3.26,3.26,3.25
28.05,1.43,-1.82,1.43,-1.82,1.83,2.13,2.10,3.26,3.26,3.25
28.33,1.49,-1.75,1.50,-1.75,1.75,2.05,2.13,3.24,3.25,3.24
28.62,1.56,-1.68,1.56,-1.68,1.68,1.98,2.16,3.24,3.24,3.24
28.90,1.62,-1.62,1.62,-1.61,1.61,1.91,2.18,3.23,3.23,3.24
29.19,1.68,-1.55,1.69,-1.55,1.54,1.84,2.21,3.23,3.23,3.23
29.48,1.74,-1.49,1.75,-1.48,1.48,1.77,2.23,3.23,3.23,3.23
29.78,1.80,-1.42,1.80,-1.42,1.43,1.69,2.24,3.23,3.23,3.22
30.08,1.85,-1.37,1.85,-1.37,1.37,1.62,2.25,3.23,3.23,3.22
30.38,1.89,-1.32,1.89,-1.32,1.33,1.55,2.26,3.22,3.22,3.21
30.68,1.92,-1.29,1.93,-1.28,1.28,1.49,2.27,3.20,3.21,3.21
30.99,1.96,-1.24,1.96,-1.24,1.24,1.42,2.27,3.20,3.20,3.20
31.30,2.00,-1.19,1.99,-1.20,1.20,1.35,2.26,3.20,3.19,3.19
31.61,2.01,-1.18,2.03,-1.16,1.16,1.28,2.26,3.17,3.19,3.19
31.93,2.06,-1.12,2.06,-1.12,1.12,1.22,2.24,3.18,3.18,3.18
32.24,2.10,-1.07,2.09,-1.08,1.08,1.15,2.23,3.19,3.17,3.17
32.57,2.11,-1.06,2.13,-1.04,1.04,1.09,2.21,3.16,3.17,3.17
32.89,2.15,-1.01,2.15,-1.01,1.00,1.03,2.18,3.16,3.16,3.16
33.22,2.19,-0.96,2.19,-0.97,0.96,0.96,2.16,3.15,3.15,3.15
33.55,2.22,-0.93,2.23,-0.92,0.92,0.90,2.12,3.14,3.15,3.15
33.89,2.27,-0.87,2.27,-0.87,0.87,0.84,2.09,3.15,3.14,3.14
34.23,2.31,-0.82,2.31,-0.82,0.82,0.78,2.05,3.14,3.13,3.13
34.57,2.34,-0.78,2.34,-0.78,0.78,0.73,2.01,3.12,3.12,3.12
34.92,2.37,-0.74,2.38,-0.73,0.73,0.67,1.97,3.10,3.11,3.11
35.27,2.42,-0.68,2.42,-0.68,0.68,0.62,1.92,3.10,3.10,3.10
35.62,2.46,-0.63,2.46,-0.63,0.63,0.56,1.88,3.09,3.09,3.09
35.97,2.49,-0.59,2.50,-0.58,0.58,0.51,1.83,3.08,3.08,3.08
36.33,2.54,-0.53,2.54,-0.54,0.53,0.46,1.78,3.08,3.07,3.07
36.70,2.57,-0.49,2.57,-0.49,0.48,0.41,1.73,3.06,3.06,3.06
37.06,2.60,-0.45,2.62,-0.43,0.43,0.36,1.67,3.04,3.05,3.05
37.43,2.66,-0.38,2.65,-0.39,0.39,0.31,1.62,3.05,3.04,3.04
37.81,2.69,-0.34,2.69,-0.34,0.34,0.27,1.56,3.03,3.03,3.03
38.19,2.72,-0.30,2.73,-0.29,0.29,0.22,1.51,3.02,3.02,3.02
38.57,2.76,-0.25,2.76,-0.25,0.25,0.18,1.45,3.01,3.01,3.01
38.95,2.80,-0.20,2.80,-0.20,0.20,0.14,1.40,3.01,3.00,3.00
39.34,2.81,-0.17,2.82,-0.16,0.16,0.10,1.34,2.98,2.98,2.98
39.74,2.85,-0.12,2.85,-0.12,0.12,0.06,1.28,2.98,2.97,2.97
40.14,2.86,-0.10,2.87,-0.09,0.09,0.02,1.23,2.95,2.96,2.96
40.54,2.90,-0.05,2.90,-0.06,0.06,-0.02,1.17,2.96,2.95,2.95
40.94,2.90,-0.04,2.92,-0.02,0.03,-0.05,1.12,2.93,2.95,2.94
41.35,2.94,0.01,2.93,0.00,0.01,-0.08,1.06,2.95,2.94,2.93
41.76,2.94,0.02,2.94,0.02,-0.01,-0.11,1.01,2.93,2.93,2.92
42.18,2.94,0.03,2.95,0.04,-0.03,-0.14,0.95,2.91,2.92,2.91
42.60,2.94,0.04,2.94,0.04,-0.05,-0.17,0.90,2.89,2.89,2.90
43.03,2.94,0.05,2.94,0.06,-0.07,-0.20,0.84,2.87,2.87,2.89
43.46,2.94,0.07,2.95,0.08,-0.09,-0.22,0.79,2.85,2.86,2.87
43.90,2.96,0.11,2.96,0.11,-0.11,-0.25,0.74,2.85,2.84,2.85
44.33,2.96,0.13,2.97,0.14,-0.14,-0.27,0.69,2.83,2.83,2.83
44.78,2.98,0.17,2.98,0.17,-0.16,-0.29,0.64,2.82,2.82,2.81
45.23,2.99,0.20,2.99,0.20,-0.18,-0.31,0.58,2.81,2.80,2.79
45.68,2.99,0.21,3.00,0.22,-0.21,-0.33,0.54,2.79,2.79,2.78
46.13,2.99,0.23,2.99,0.23,-0.23,-0.34,0.49,2.77,2.77,2.76
46.60,2.99,0.24,2.99,0.25,-0.25,-0.36,0.44,2.75,2.75,2.75
47.06,2.99,0.26,2.99,0.26,-0.27,-0.37,0.39,2.73,2.73,2.73
47.53,2.99,0.28,2.99,0.28,-0.29,-0.38,0.34,2.71,2.71,2.71
48.01,2.99,0.29,2.99,0.30,-0.31,-0.40,0.29,2.68,2.68,2.70
48.49,2.99,0.32,2.99,0.32,-0.33,-0.41,0.25,2.66,2.66,2.67
48.97,2.99,0.35,2.99,0.35,-0.35,-0.42,0.20,2.64,2.64,2.64
49.46,2.99,0.38,3.00,0.39,-0.37,-0.42,0.16,2.62,2.63,2.61
49.96,2.99,0.41,2.99,0.41,-0.39,-0.43,0.11,2.60,2.60,2.58
50.46,2.99,0.43,2.98,0.42,-0.41,-0.44,0.07,2.58,2.56,2.56
50.96,2.94,0.40,2.96,0.42,-0.43,-0.44,0.02,2.51,2.53,2.54
51.47,2.94,0.43,2.95,0.43,-0.44,-0.45,-0.02,2.50,2.50,2.51
51.99,2.94,0.45,2.94,0.45,-0.46,-0.45,-0.06,2.49,2.48,2.49
52.51,2.94,0.47,2.94,0.47,-0.46,-0.45,-0.10,2.48,2.48,2.47
53.03,2.92,0.47,2.92,0.48,-0.47,-0.45,-0.14,2.45,2.45,2.45
53.56,2.90,0.48,2.91,0.48,-0.47,-0.45,-0.18,2.43,2.43,2.42
54.10,2.87,0.47,2.87,0.47,-0.48,-0.46,-0.22,2.40,2.40,2.40
54.64,2.85,0.48,2.85,0.47,-0.48,-0.46,-0.26,2.38,2.37,2.37
55.18,2.80,0.45,2.82,0.47,-0.47,-0.46,-0.30,2.33,2.35,2.35
55.74,2.80,0.48,2.79,0.47,-0.47,-0.45,-0.33,2.34,2.33,2.32
56.29,2.76,0.46,2.76,0.46,-0.45,-0.45,-0.37,2.31,2.30,2.30
56.86,2.71,0.43,2.73,0.45,-0.44,-0.45,-0.40,2.27,2.29,2.28
57.42,2.68,0.43,2.68,0.43,-0.42,-0.45,-0.43,2.26,2.26,2.25
58.00,2.64,0.41,2.64,0.41,-0.41,-0.45,-0.46,2.24,2.23,2.23
58.58,2.59,0.38,2.60,0.39,-0.39,-0.45,-0.49,2.20,2.21,2.21
59.16,2.56,0.37,2.56,0.37,-0.37,-0.45,-0.52,2.19,2.19,2.19
59.76,2.52,0.35,2.52,0.35,-0.36,-0.44,-0.55,2.16,2.16,2.17
60.35,2.48,0.34,2.49,0.35,-0.35,-0.44,-0.58,2.13,2.14,2.14
60.96,2.45,0.34,2.45,0.34,-0.35,-0.44,-0.60,2.11,2.11,2.11
61.57,2.42,0.35,2.42,0.34,-0.34,-0.44,-0.63,2.08,2.07,2.07
62.18,2.38,0.34,2.39,0.34,-0.35,-0.44,-0.65,2.04,2.04,2.04
62.80,2.35,0.34,2.36,0.35,-0.35,-0.44,-0.67,2.00,2.01,2.01
63.43,2.34,0.36,2.35,0.37,-0.36,-0.44,-0.69,1.98,1.98,1.98
64.07,2.34,0.39,2.34,0.38,-0.38,-0.44,-0.70,1.97,1.96,1.95
64.71,2.33,0.40,2.32,0.40,-0.39,-0.44,-0.72,1.94,1.93,1.93
65.35,2.29,0.39,2.31,0.41,-0.41,-0.44,-0.74,1.88,1.90,1.90
66.01,2.29,0.42,2.29,0.42,-0.43,-0.45,-0.75,1.86,1.86,1.87
66.67,2.29,0.45,2.29,0.45,-0.45,-0.45,-0.76,1.84,1.84,1.84
67.33,2.29,0.48,2.29,0.48,-0.47,-0.45,-0.78,1.82,1.82,1.81
68.01,2.29,0.51,2.28,0.50,-0.49,-0.46,-0.79,1.80,1.79,1.78
68.69,2.24,0.49,2.26,0.51,-0.51,-0.46,-0.80,1.73,1.75,1.75
69.37,2.24,0.52,2.25,0.53,-0.53,-0.47,-0.81,1.71,1.72,1.72
70.07,2.24,0.55,2.24,0.55,-0.55,-0.47,-0.82,1.69,1.69,1.69
70.77,2.24,0.58,2.23,0.57,-0.57,-0.48,-0.82,1.67,1.66,1.66
71.48,2.20,0.57,2.22,0.59,-0.59,-0.49,-0.83,1.61,1.62,1.63
72.19,2.20,0.61,2.21,0.62,-0.61,-0.50,-0.84,1.59,1.60,1.59
72.91,2.20,0.64,2.20,0.64,-0.64,-0.51,-0.85,1.57,1.56,1.56
73.64,2.20,0.68,2.19,0.66,-0.66,-0.52,-0.85,1.54,1.53,1.52
74.38,2.15,0.66,2.17,0.68,-0.68,-0.53,-0.86,1.47,1.49,1.49
75.12,2.15,0.70,2.16,0.71,-0.71,-0.54,-0.87,1.45,1.46,1.45
75.87,2.15,0.73,2.15,0.72,-0.73,-0.56,-0.87,1.43,1.42,1.42
76.63,2.15,0.76,2.14,0.75,-0.75,-0.57,-0.88,1.41,1.39,1.39
77.40,2.10,0.74,2.12,0.77,-0.76,-0.59,-0.89,1.34,1.36,1.36
78.17,2.10,0.78,2.10,0.78,-0.78,-0.60,-0.90,1.32,1.32,1.32
78.95,2.10,0.81,2.09,0.80,-0.80,-0.62,-0.91,1.31,1.29,1.29
79.74,2.06,0.80,2.07,0.82,-0.81,-0.64,-0.91,1.25,1.26,1.26
80.54,2.06,0.84,2.05,0.83,-0.83,-0.66,-0.92,1.24,1.22,1.22
81.35,2.01,0.82,2.03,0.84,-0.84,-0.68,-0.93,1.17,1.19,1.19
82.16,2.01,0.86,2.01,0.85,-0.86,-0.70,-0.94,1.16,1.15,1.15
82.98,1.99,0.87,1.99,0.87,-0.87,-0.73,-0.96,1.12,1.12,1.12
83.81,1.96,0.88,1.97,0.89,-0.89,-0.75,-0.97,1.07,1.08,1.08
84.65,1.96,0.92,1.95,0.90,-0.91,-0.77,-0.98,1.05,1.04,1.04
85.50,1.92,0.91,1.94,0.93,-0.93,-0.80,-0.99,0.99,1.01,1.01
86.35,1.92,0.95,1.92,0.95,-0.95,-0.83,-1.01,0.97,0.97,0.97
87.22,1.92,0.99,1.91,0.97,-0.97,-0.85,-1.02,0.95,0.93,0.93
88.09,1.87,0.98,1.89,1.00,-1.00,-0.88,-1.04,0.88,0.89,0.89
88.97,1.87,1.02,1.87,1.01,-1.02,-0.91,-1.06,0.85,0.85,0.85
89.86,1.84,1.03,1.85,1.04,-1.04,-0.94,-1.07,0.80,0.80,0.81
90.76,1.82,1.06,1.83,1.07,-1.07,-0.97,-1.09,0.76,0.76,0.76
91.66,1.82,1.10,1.81,1.10,-1.09,-1.00,-1.11,0.73,0.72,0.72
92.58,1.78,1.11,1.79,1.12,-1.11,-1.03,-1.13,0.67,0.68,0.67
93.51,1.78,1.15,1.77,1.14,-1.14,-1.06,-1.15,0.65,0.64,0.63
94.44,1.73,1.14,1.74,1.16,-1.16,-1.10,-1.17,0.57,0.58,0.59
95.39,1.73,1.19,1.72,1.18,-1.19,-1.13,-1.19,0.55,0.53,0.54
96.34,1.68,1.19,1.70,1.21,-1.21,-1.16,-1.22,0.47,0.48,0.49
97.30,1.68,1.24,1.68,1.24,-1.24,-1.20,-1.24,0.44,0.44,0.44
98.28,1.67,1.28,1.66,1.27,-1.27,-1.23,-1.27,0.40,0.39,0.39
99.26,1.64,1.29,1.66,1.31,-1.30,-1.27,-1.29,0.34,0.35,0.35
100.25,1.64,1.34,1.64,1.34,-1.33,-1.30,-1.32,0.31,0.30,0.30
101.25,1.62,1.37,1.62,1.37,-1.37,-1.34,-1.34,0.26,0.25,0.25
102.27,1.59,1.39,1.61,1.41,-1.40,-1.38,-1.37,0.19,0.21,0.20
103.29,1.59,1.44,1.59,1.43,-1.43,-1.41,-1.39,0.16,0.15,0.15
104.32,1.57,1.46,1.57,1.46,-1.47,-1.45,-1.42,0.11,0.10,0.11
105.37,1.54,1.48,1.56,1.50,-1.50,-1.49,-1.45,0.04,0.06,0.06
106.42,1.54,1.53,1.54,1.53,-1.53,-1.53,-1.48,0.01,0.01,0.01
107.48,1.54,1.58,1.53,1.57,-1.57,-1.56,-1.50,-0.02,-0.04,-0.04
108.56,1.50,1.59,1.52,1.61,-1.60,-1.60,-1.53,-0.10,-0.08,-0.09
109.64,1.50,1.64,1.50,1.64,-1.64,-1.64,-1.56,-0.13,-0.14,-0.14
110.74,1.49,1.68,1.48,1.67,-1.67,-1.68,-1.58,-0.18,-0.19,-0.19
111.85,1.45,1.69,1.47,1.71,-1.71,-1.72,-1.61,-0.26,-0.24,-0.24
112.97,1.45,1.75,1.44,1.74,-1.75,-1.75,-1.63,-0.29,-0.30,-0.30
114.10,1.42,1.77,1.43,1.78,-1.78,-1.79,-1.66,-0.36,-0.35,-0.35
115.24,1.40,1.81,1.41,1.82,-1.82,-1.83,-1.68,-0.41,-0.41,-0.41
116.39,1.40,1.86,1.39,1.86,-1.85,-1.87,-1.71,-0.45,-0.46,-0.46
117.55,1.36,1.88,1.37,1.89,-1.88,-1.90,-1.73,-0.52,-0.51,-0.52
118.73,1.36,1.93,1.35,1.92,-1.92,-1.94,-1.75,-0.55,-0.57,-0.57
119.92,1.31,1.93,1.33,1.95,-1.95,-1.97,-1.77,-0.63,-0.62,-0.62
121.12,1.31,1.98,1.31,1.98,-1.98,-2.01,-1.78,-0.67,-0.67,-0.67
122.33,1.29,2.01,1.29,2.01,-2.01,-2.05,-1.80,-0.72,-0.72,-0.72
123.55,1.26,2.03,1.27,2.04,-2.04,-2.08,-1.82,-0.78,-0.77,-0.77
124.79,1.25,2.07,1.25,2.07,-2.07,-2.12,-1.83,-0.82,-0.82,-0.82
126.03,1.22,2.09,1.23,2.10,-2.10,-2.15,-1.84,-0.88,-0.87,-0.87
127.29,1.22,2.14,1.21,2.13,-2.13,-2.18,-1.85,-0.91,-0.92,-0.92
128.57,1.17,2.15,1.19,2.17,-2.17,-2.22,-1.86,-0.99,-0.98,-0.98
129.85,1.17,2.20,1.17,2.20,-2.20,-2.25,-1.87,-1.02,-1.03,-1.03
131.15,1.15,2.23,1.15,2.23,-2.23,-2.28,-1.88,-1.07,-1.08,-1.08
132.46,1.12,2.25,1.13,2.26,-2.26,-2.31,-1.88,-1.13,-1.12,-1.13
133.79,1.12,2.29,1.11,2.29,-2.28,-2.34,-1.89,-1.16,-1.17,-1.17
135.12,1.08,2.30,1.09,2.31,-2.31,-2.37,-1.89,-1.23,-1.22,-1.22
136.48,1.08,2.34,1.07,2.33,-2.34,-2.40,-1.89,-1.25,-1.26,-1.26
137.84,1.03,2.34,1.05,2.36,-2.36,-2.42,-1.89,-1.33,-1.31,-1.31
139.22,1.03,2.39,1.03,2.38,-2.38,-2.45,-1.90,-1.35,-1.35,-1.36
140.61,1.00,2.40,1.00,2.40,-2.40,-2.48,-1.90,-1.40,-1.40,-1.40
142.02,0.98,2.41,0.99,2.42,-2.42,-2.50,-1.90,-1.43,-1.43,-1.43
143.44,0.96,2.43,0.96,2.43,-2.43,-2.52,-1.90,-1.47,-1.47,-1.47
144.87,0.94,2.45,0.94,2.45,-2.44,-2.55,-1.90,-1.50,-1.50,-1.51
146.32,0.90,2.45,0.91,2.46,-2.46,-2.57,-1.90,-1.55,-1.55,-1.55
147.78,0.89,2.47,0.88,2.47,-2.47,-2.59,-1.90,-1.58,-1.59,-1.58
149.26,0.84,2.46,0.86,2.48,-2.48,-2.61,-1.91,-1.64,-1.63,-1.62
150.75,0.84,2.50,0.84,2.49,-2.50,-2.63,-1.91,-1.65,-1.66,-1.66
152.26,0.80,2.50,0.81,2.51,-2.51,-2.65,-1.91,-1.71,-1.70,-1.70
153.78,0.79,2.53,0.79,2.53,-2.53,-2.66,-1.92,-1.73,-1.74,-1.74
155.32,0.75,2.53,0.76,2.54,-2.54,-2.68,-1.92,-1.79,-1.78,-1.78
156.88,0.75,2.57,0.74,2.56,-2.56,-2.69,-1.93,-1.81,-1.82,-1.82
158.44,0.70,2.56,0.72,2.57,-2.58,-2.71,-1.94,-1.87,-1.86,-1.86
160.03,0.70,2.60,0.70,2.60,-2.59,-2.72,-1.95,-1.89,-1.90,-1.90
161.63,0.66,2.60,0.67,2.61,-2.61,-2.73,-1.96,-1.94,-1.94,-1.94
163.24,0.65,2.63,0.65,2.63,-2.62,-2.74,-1.97,-1.97,-1.97,-1.98
164.88,0.61,2.62,0.62,2.64,-2.64,-2.75,-1.98,-2.02,-2.01,-2.01
166.53,0.61,2.66,0.60,2.65,-2.65,-2.76,-2.00,-2.04,-2.05,-2.05
168.19,0.57,2.66,0.58,2.67,-2.67,-2.77,-2.01,-2.09,-2.09,-2.09
169.87,0.55,2.68,0.56,2.68,-2.68,-2.77,-2.03,-2.13,-2.13,-2.13
171.57,0.52,2.69,0.53,2.69,-2.69,-2.78,-2.05,-2.17,-2.17,-2.17
173.29,0.51,2.71,0.50,2.71,-2.71,-2.78,-2.07,-2.19,-2.20,-2.20
175.02,0.47,2.71,0.48,2.72,-2.72,-2.78,-2.09,-2.25,-2.24,-2.24
176.77,0.45,2.73,0.45,2.73,-2.73,-2.78,-2.12,-2.28,-2.28,-2.28
178.54,0.43,2.75,0.43,2.74,-2.74,-2.78,-2.14,-2.31,-2.32,-2.32
180.32,0.38,2.74,0.40,2.76,-2.75,-2.78,-2.17,-2.37,-2.35,-2.36
182.13,0.38,2.77,0.37,2.76,-2.76,-2.78,-2.20,-2.38,-2.39,-2.39
183.95,0.33,2.76,0.34,2.77,-2.77,-2.78,-2.23,-2.44,-2.43,-2.43
185.79,0.31,2.77,0.32,2.78,-2.78,-2.78,-2.27,-2.46,-2.46,-2.46
187.65,0.29,2.79,0.29,2.78,-2.78,-2.77,-2.30,-2.49,-2.50,-2.50
189.52,0.25,2.78,0.26,2.79,-2.79,-2.77,-2.34,-2.54,-2.53,-2.53
191.42,0.24,2.80,0.23,2.79,-2.80,-2.76,-2.37,-2.55,-2.56,-2.56
193.33,0.19,2.78,0.21,2.79,-2.80,-2.75,-2.41,-2.60,-2.59,-2.59
195.27,0.18,2.80,0.18,2.80,-2.80,-2.74,-2.45,-2.62,-2.62,-2.62
197.22,0.15,2.80,0.15,2.80,-2.80,-2.73,-2.49,-2.64,-2.65,-2.65
199.19,0.12,2.80,0.12,2.80,-2.79,-2.72,-2.53,-2.67,-2.67,-2.68
201.18,0.09,2.79,0.09,2.79,-2.79,-2.71,-2.57,-2.69,-2.70,-2.70
203.19,0.05,2.77,0.06,2.78,-2.78,-2.70,-2.62,-2.73,-2.72,-2.72
205.23,0.03,2.77,0.03,2.77,-2.77,-2.69,-2.66,-2.74,-2.74,-2.74
207.28,0.01,2.76,0.00,2.76,-2.76,-2.68,-2.70,-2.75,-2.76,-2.75
209.35,-0.04,2.73,-0.02,2.75,-2.75,-2.66,-2.74,-2.79,-2.77,-2.77
211.44,-0.04,2.75,-0.05,2.74,-2.74,-2.65,-2.79,-2.77,-2.78,-2.79
213.56,-0.08,2.72,-0.07,2.72,-2.72,-2.63,-2.83,-2.80,-2.80,-2.80
215.69,-0.09,2.71,-0.09,2.71,-2.71,-2.61,-2.87,-2.80,-2.80,-2.80
217.85,-0.13,2.68,-0.12,2.69,-2.70,-2.60,-2.91,-2.82,-2.81,-2.81
220.03,-0.13,2.69,-0.14,2.68,-2.68,-2.58,-2.95,-2.81,-2.82,-2.82
222.23,-0.17,2.66,-0.16,2.67,-2.66,-2.56,-2.98,-2.83,-2.82,-2.83
224.45,-0.18,2.65,-0.18,2.65,-2.65,-2.54,-3.01,-2.82,-2.83,-2.83
226.70,-0.21,2.62,-0.20,2.63,-2.63,-2.52,-3.04,-2.83,-2.83,-2.83
228.96,-0.23,2.60,-0.22,2.60,-2.61,-2.50,-3.07,-2.83,-2.83,-2.83
231.25,-0.24,2.58,-0.24,2.58,-2.58,-2.48,-3.09,-2.82,-2.82,-2.82
233.57,-0.27,2.55,-0.26,2.56,-2.56,-2.46,-3.11,-2.83,-2.82,-2.82
235.90,-0.27,2.55,-0.28,2.53,-2.53,-2.44,-3.13,-2.80,-2.81,-2.82
238.26,-0.32,2.49,-0.30,2.51,-2.51,-2.41,-3.14,-2.82,-2.81,-2.81
240.64,-0.32,2.48,-0.32,2.48,-2.48,-2.39,-3.15,-2.80,-2.80,-2.80
243.05,-0.34,2.45,-0.34,2.45,-2.45,-2.37,-3.15,-2.79,-2.79,-2.79
245.48,-0.37,2.41,-0.36,2.42,-2.42,-2.34,-3.14,-2.79,-2.78,-2.78
247.93,-0.37,2.40,-0.38,2.39,-2.39,-2.32,-3.14,-2.76,-2.77,-2.77
250.41,-0.41,2.35,-0.40,2.36,-2.36,-2.30,-3.12,-2.76,-2.75,-2.76
252.92,-0.41,2.33,-0.42,2.32,-2.32,-2.27,-3.10,-2.72,-2.73,-2.74
255.45,-0.46,2.26,-0.44,2.28,-2.28,-2.24,-3.08,-2.74,-2.72,-2.72
258.00,-0.46,2.25,-0.47,2.24,-2.24,-2.22,-3.05,-2.69,-2.71,-2.71
260.58,-0.51,2.18,-0.50,2.19,-2.19,-2.19,-3.01,-2.70,-2.69,-2.69
263.19,-0.52,2.15,-0.52,2.15,-2.15,-2.17,-2.97,-2.66,-2.67,-2.67
265.82,-0.55,2.10,-0.55,2.10,-2.10,-2.14,-2.92,-2.65,-2.65,-2.65
268.48,-0.58,2.05,-0.57,2.06,-2.05,-2.11,-2.87,-2.63,-2.62,-2.63
271.16,-0.60,2.01,-0.60,2.01,-2.00,-2.09,-2.82,-2.60,-2.61,-2.61
273.87,-0.64,1.95,-0.63,1.96,-1.96,-2.06,-2.76,-2.60,-2.59,-2.59
276.61,-0.65,1.92,-0.66,1.91,-1.92,-2.03,-2.70,-2.57,-2.58,-2.57
279.38,-0.69,1.86,-0.68,1.87,-1.88,-2.00,-2.63,-2.57,-2.56,-2.55
282.17,-0.69,1.84,-0.69,1.84,-1.85,-1.97,-2.56,-2.54,-2.54,-2.53
284.99,-0.69,1.82,-0.69,1.82,-1.82,-1.94,-2.49,-2.51,-2.51,-2.51
287.84,-0.69,1.80,-0.69,1.80,-1.80,-1.91,-2.42,-2.49,-2.49,-2.49
290.72,-0.69,1.78,-0.69,1.78,-1.78,-1.89,-2.34,-2.47,-2.47,-2.47
293.63,-0.69,1.76,-0.69,1.76,-1.76,-1.86,-2.27,-2.45,-2.45,-2.45
296.57,-0.69,1.74,-0.69,1.74,-1.75,-1.83,-2.19,-2.43,-2.43,-2.43
299.53,-0.69,1.72,-0.68,1.73,-1.73,-1.80,-2.10,-2.41,-2.41,-2.41
302.53,-0.67,1.72,-0.67,1.71,-1.71,-1.77,-2.02,-2.37,-2.38,-2.39
305.55,-0.67,1.69,-0.67,1.70,-1.68,-1.74,-1.94,-2.35,-2.35,-2.36
308.61,-0.67,1.67,-0.67,1.67,-1.66,-1.70,-1.86,-2.32,-2.32,-2.34
311.69,-0.68,1.63,-0.68,1.63,-1.63,-1.67,-1.77,-2.31,-2.31,-2.31
314.81,-0.69,1.59,-0.68,1.60,-1.61,-1.64,-1.69,-2.29,-2.29,-2.28
317.96,-0.69,1.57,-0.69,1.57,-1.58,-1.61,-1.61,-2.27,-2.27,-2.26
321.14,-0.69,1.55,-0.69,1.55,-1.56,-1.58,-1.52,-2.25,-2.25,-2.24
324.35,-0.69,1.53,-0.68,1.53,-1.54,-1.55,-1.44,-2.23,-2.23,-2.22
327.59,-0.69,1.51,-0.67,1.53,-1.53,-1.52,-1.35,-2.21,-2.20,-2.20
330.87,-0.65,1.53,-0.66,1.52,-1.52,-1.48,-1.27,-2.16,-2.18,-2.18
334.18,-0.65,1.51,-0.65,1.51,-1.50,-1.45,-1.19,-2.15,-2.15,-2.16
337.52,-0.65,1.49,-0.64,1.50,-1.49,-1.42,-1.10,-2.14,-2.13,-2.14
340.90,-0.65,1.47,-0.65,1.47,-1.48,-1.38,-1.02,-2.12,-2.12,-2.12
344.30,-0.65,1.45,-0.64,1.46,-1.45,-1.35,-0.94,-2.10,-2.10,-2.10
347.75,-0.65,1.43,-0.65,1.43,-1.43,-1.31,-0.86,-2.07,-2.07,-2.08
351.23,-0.65,1.41,-0.66,1.40,-1.39,-1.28,-0.78,-2.04,-2.05,-2.06
354.74,-0.69,1.35,-0.68,1.36,-1.36,-1.24,-0.70,-2.04,-2.04,-2.04
358.28,-0.72,1.31,-0.71,1.31,-1.31,-1.21,-0.62,-2.03,-2.02,-2.03
361.87,-0.74,1.27,-0.74,1.27,-1.27,-1.17,-0.54,-2.00,-2.01,-2.01
365.49,-0.78,1.21,-0.77,1.22,-1.22,-1.14,-0.46,-2.00,-1.99,-1.99
369.14,-0.81,1.17,-0.80,1.17,-1.17,-1.10,-0.38,-1.98,-1.97,-1.98
372.83,-0.84,1.12,-0.84,1.12,-1.12,-1.06,-0.30,-1.96,-1.97,-1.96
376.56,-0.88,1.07,-0.88,1.07,-1.07,-1.02,-0.23,-1.95,-1.95,-1.95
380.33,-0.93,1.00,-0.91,1.02,-1.03,-0.98,-0.15,-1.95,-1.93,-1.93
384.13,-0.93,0.99,-0.94,0.98,-0.98,-0.94,-0.07,-1.91,-1.92,-1.92
387.97,-0.97,0.94,-0.97,0.94,-0.94,-0.90,0.00,-1.90,-1.91,-1.91
391.85,-1.02,0.88,-1.00,0.90,-0.90,-0.86,0.07,-1.91,-1.90,-1.90
395.77,-1.02,0.86,-1.03,0.85,-0.86,-0.82,0.15,-1.87,-1.89,-1.88
399.73,-1.06,0.81,-1.05,0.82,-0.82,-0.78,0.22,-1.88,-1.87,-1.87
403.72,-1.07,0.79,-1.07,0.79,-0.78,-0.73,0.29,-1.85,-1.86,-1.86
407.76,-1.11,0.74,-1.10,0.75,-0.75,-0.69,0.36,-1.85,-1.85,-1.85
411.84,-1.13,0.71,-1.13,0.71,-0.71,-0.64,0.43,-1.84,-1.84,-1.84
415.96,-1.16,0.67,-1.16,0.67,-0.68,-0.59,0.50,-1.83,-1.83,-1.83
420.12,-1.19,0.63,-1.18,0.64,-0.64,-0.54,0.57,-1.82,-1.82,-1.82
424.32,-1.21,0.60,-1.21,0.60,-0.60,-0.49,0.63,-1.80,-1.81,-1.81
428.56,-1.25,0.55,-1.24,0.56,-0.55,-0.44,0.70,-1.80,-1.79,-1.80
432.85,-1.28,0.51,-1.27,0.51,-0.51,-0.38,0.76,-1.78,-1.78,-1.79
437.18,-1.31,0.47,-1.32,0.46,-0.46,-0.33,0.82,-1.76,-1.78,-1.78
441.55,-1.37,0.39,-1.36,0.40,-0.40,-0.27,0.88,-1.77,-1.76,-1.76
445.96,-1.42,0.33,-1.41,0.34,-0.34,-0.21,0.93,-1.76,-1.75,-1.75
450.42,-1.45,0.29,-1.46,0.28,-0.28,-0.15,0.98,-1.73,-1.74,-1.74
454.93,-1.51,0.21,-1.51,0.22,-0.21,-0.08,1.04,-1.72,-1.72,-1.72
459.48,-1.57,0.14,-1.56,0.15,-0.14,-0.01,1.08,-1.71,-1.71,-1.71
464.07,-1.63,0.07,-1.63,0.07,-0.07,0.05,1.13,-1.70,-1.70,-1.70
468.71,-1.70,-0.02,-1.69,-0.01,0.01,0.13,1.17,-1.69,-1.68,-1.68
473.40,-1.76,-0.09,-1.76,-0.09,0.09,0.20,1.20,-1.66,-1.67,-1.67
478.13,-1.83,-0.18,-1.83,-0.18,0.18,0.28,1.24,-1.65,-1.65,-1.65
482.91,-1.91,-0.27,-1.90,-0.27,0.27,0.36,1.27,-1.64,-1.64,-1.64
487.74,-1.98,-0.36,-1.98,-0.36,0.36,0.45,1.29,-1.61,-1.62,-1.62
492.62,-2.08,-0.48,-2.06,-0.46,0.46,0.53,1.32,-1.62,-1.60,-1.60
497.55,-2.14,-0.55,-2.15,-0.57,0.56,0.62,1.33,-1.57,-1.59,-1.59
