frequency,raw,error,smoothed,error_smoothed,equalization,parametric_eq,fixed_band_eq,equalized_raw,equalized_smoothed,target
20.00,0.91,-2.50,0.97,-2.46,2.46,2.40,0.67,3.37,3.43,3.41
20.20,0.96,-2.49,0.98,-2.47,2.47,2.38,0.69,3.43,3.46,3.45
20.40,1.00,-2.48,1.00,-2.48,2.48,2.35,0.71,3.48,3.48,3.48
20.61,1.05,-2.46,1.02,-2.49,2.49,2.33,0.73,3.53,3.51,3.51
20.81,1.10,-2.45,1.05,-2.49,2.49,2.30,0.75,3.59,3.54,3.55
21.02,1.14,-2.45,1.07,-2.49,2.49,2.28,0.78,3.63,3.56,3.59
21.23,1.14,-2.46,1.10,-2.48,2.48,2.26,0.80,3.62,3.58,3.60
21.44,1.15,-2.47,1.13,-2.47,2.47,2.23,0.82,3.62,3.60,3.62
21.66,1.15,-2.49,1.16,-2.46,2.46,2.20,0.85,3.61,3.62,3.64
21.87,1.16,-2.49,1.19,-2.44,2.44,2.18,0.87,3.60,3.64,3.65
22.09,1.18,-2.48,1.23,-2.43,2.43,2.15,0.90,3.61,3.65,3.66
22.31,1.23,-2.43,1.26,-2.40,2.40,2.13,0.92,3.63,3.67,3.66
22.54,1.27,-2.40,1.30,-2.38,2.38,2.10,0.95,3.65,3.67,3.67
22.76,1.32,-2.36,1.34,-2.35,2.35,2.07,0.98,3.67,3.68,3.68
22.99,1.37,-2.31,1.38,-2.31,2.31,2.05,1.00,3.68,3.69,3.68
23.22,1.42,-2.27,1.43,-2.27,2.27,2.02,1.03,3.69,3.70,3.69
23.45,1.48,-2.22,1.47,-2.23,2.23,1.99,1.06,3.71,3.70,3.70
23.69,1.53,-2.18,1.52,-2.19,2.19,1.96,1.09,3.72,3.71,3.71
23.92,1.58,-2.14,1.57,-2.15,2.15,1.94,1.12,3.73,3.71,3.72
24.16,1.63,-2.10,1.61,-2.11,2.11,1.91,1.15,3.74,3.72,3.73
24.40,1.68,-2.06,1.65,-2.07,2.07,1.88,1.18,3.75,3.72,3.74
24.65,1.72,-2.01,1.70,-2.03,2.03,1.85,1.21,3.75,3.72,3.73
24.89,1.77,-1.96,1.74,-1.99,1.99,1.83,1.24,3.76,3.72,3.73
25.14,1.79,-1.94,1.78,-1.95,1.95,1.80,1.28,3.74,3.73,3.73
25.39,1.80,-1.93,1.81,-1.92,1.92,1.77,1.31,3.72,3.73,3.73
25.65,1.81,-1.92,1.84,-1.89,1.89,1.74,1.34,3.70,3.73,3.73
25.91,1.82,-1.89,1.87,-1.86,1.86,1.72,1.37,3.68,3.72,3.71
26.16,1.86,-1.86,1.90,-1.83,1.83,1.69,1.40,3.69,3.72,3.72
26.43,1.92,-1.80,1.93,-1.79,1.79,1.66,1.43,3.71,3.72,3.72
26.69,1.98,-1.74,1.96,-1.76,1.76,1.63,1.46,3.74,3.72,3.72
26.96,2.04,-1.68,1.99,-1.72,1.72,1.61,1.49,3.76,3.71,3.72
27.23,2.05,-1.67,2.02,-1.69,1.69,1.58,1.52,3.74,3.71,3.72
27.50,2.05,-1.67,2.05,-1.66,1.66,1.55,1.54,3.71,3.71,3.72
27.77,2.05,-1.66,2.08,-1.63,1.63,1.53,1.57,3.68,3.71,3.71
28.05,2.06,-1.65,2.11,-1.59,1.59,1.50,1.59,3.65,3.70,3.71
28.33,2.13,-1.56,2.15,-1.55,1.55,1.47,1.62,3.68,3.70,3.69
28.62,2.19,-1.51,2.18,-1.52,1.52,1.45,1.64,3.71,3.70,3.70
28.90,2.26,-1.44,2.21,-1.49,1.49,1.42,1.66,3.75,3.70,3.70
29.19,2.28,-1.41,2.24,-1.45,1.45,1.40,1.67,3.73,3.70,3.69
29.48,2.28,-1.42,2.27,-1.42,1.42,1.37,1.69,3.70,3.69,3.70
29.78,2.28,-1.42,2.30,-1.38,1.38,1.34,1.70,3.66,3.69,3.70
30.08,2.29,-1.41,2.34,-1.35,1.35,1.32,1.71,3.64,3.68,3.70
30.38,2.34,-1.34,2.37,-1.31,1.31,1.29,1.71,3.65,3.68,3.68
30.68,2.39,-1.29,2.39,-1.28,1.28,1.27,1.72,3.67,3.67,3.68
30.99,2.44,-1.23,2.42,-1.25,1.25,1.24,1.72,3.69,3.67,3.67
31.30,2.46,-1.21,2.43,-1.23,1.23,1.22,1.72,3.69,3.66,3.67
31.61,2.48,-1.19,2.44,-1.22,1.22,1.20,1.71,3.70,3.66,3.67
31.93,2.50,-1.15,2.46,-1.19,1.19,1.17,1.71,3.69,3.65,3.65
32.24,2.51,-1.13,2.48,-1.17,1.17,1.15,1.70,3.68,3.65,3.64
32.57,2.51,-1.13,2.50,-1.14,1.14,1.12,1.68,3.65,3.64,3.64
32.89,2.51,-1.13,2.53,-1.11,1.11,1.10,1.67,3.62,3.64,3.64
33.22,2.51,-1.13,2.55,-1.08,1.08,1.08,1.65,3.59,3.63,3.64
33.55,2.51,-1.12,2.58,-1.05,1.05,1.05,1.63,3.56,3.63,3.63
33.89,2.51,-1.12,2.59,-1.03,1.03,1.03,1.61,3.54,3.62,3.63
34.23,2.56,-1.07,2.61,-1.00,1.00,1.01,1.58,3.56,3.62,3.63
34.57,2.64,-0.98,2.63,-0.98,0.98,0.99,1.56,3.62,3.61,3.62
34.92,2.72,-0.89,2.65,-0.95,0.95,0.96,1.53,3.67,3.61,3.61
35.27,2.74,-0.87,2.67,-0.93,0.93,0.94,1.50,3.67,3.60,3.61
35.62,2.74,-0.86,2.69,-0.91,0.91,0.92,1.47,3.65,3.60,3.60
35.97,2.74,-0.85,2.71,-0.88,0.88,0.90,1.44,3.62,3.59,3.59
36.33,2.74,-0.85,2.72,-0.87,0.87,0.88,1.40,3.61,3.59,3.59
36.70,2.74,-0.85,2.73,-0.85,0.85,0.86,1.37,3.59,3.58,3.59
37.06,2.74,-0.83,2.74,-0.83,0.83,0.84,1.34,3.57,3.57,3.57
37.43,2.74,-0.83,2.76,-0.81,0.81,0.81,1.30,3.55,3.56,3.57
37.81,2.74,-0.82,2.77,-0.79,0.79,0.79,1.27,3.53,3.56,3.56
38.19,2.74,-0.81,2.78,-0.78,0.78,0.77,1.23,3.52,3.55,3.55
38.57,2.74,-0.81,2.78,-0.77,0.77,0.75,1.20,3.51,3.55,3.55
38.95,2.74,-0.80,2.78,-0.76,0.76,0.73,1.16,3.50,3.54,3.54
39.34,2.75,-0.78,2.79,-0.74,0.74,0.71,1.13,3.49,3.53,3.53
39.74,2.76,-0.75,2.79,-0.73,0.73,0.69,1.09,3.49,3.53,3.51
40.14,2.80,-0.72,2.80,-0.72,0.72,0.68,1.06,3.52,3.52,3.52
40.54,2.87,-0.64,2.80,-0.71,0.71,0.66,1.02,3.58,3.51,3.51
40.94,2.95,-0.56,2.80,-0.69,0.69,0.64,0.99,3.64,3.49,3.51
41.35,2.88,-0.61,2.80,-0.68,0.68,0.62,0.96,3.56,3.48,3.49
41.76,2.79,-0.68,2.80,-0.66,0.66,0.60,0.92,3.45,3.46,3.47
42.18,2.74,-0.72,2.79,-0.65,0.65,0.58,0.89,3.39,3.44,3.46
42.60,2.74,-0.69,2.79,-0.62,0.62,0.56,0.86,3.36,3.42,3.43
43.03,2.74,-0.68,2.79,-0.60,0.60,0.54,0.83,3.34,3.39,3.42
43.46,2.74,-0.65,2.79,-0.58,0.58,0.53,0.80,3.32,3.37,3.39
43.90,2.74,-0.60,2.78,-0.56,0.56,0.51,0.77,3.30,3.34,3.34
44.33,2.74,-0.57,2.76,-0.55,0.55,0.49,0.74,3.29,3.31,3.31
44.78,2.74,-0.54,2.75,-0.54,0.54,0.47,0.71,3.28,3.29,3.28
45.23,2.74,-0.51,2.73,-0.53,0.53,0.45,0.68,3.27,3.26,3.25
45.68,2.74,-0.48,2.71,-0.52,0.52,0.44,0.66,3.26,3.23,3.22
46.13,2.74,-0.46,2.70,-0.51,0.51,0.42,0.63,3.25,3.21,3.20
46.60,2.74,-0.45,2.68,-0.51,0.51,0.40,0.60,3.25,3.19,3.19
47.06,2.73,-0.44,2.65,-0.53,0.53,0.38,0.58,3.26,3.18,3.17
47.53,2.62,-0.55,2.61,-0.56,0.56,0.37,0.55,3.18,3.17,3.17
48.01,2.51,-0.66,2.56,-0.60,0.60,0.35,0.53,3.11,3.16,3.17
48.49,2.51,-0.64,2.50,-0.65,0.65,0.33,0.50,3.16,3.15,3.15
48.97,2.51,-0.63,2.45,-0.70,0.70,0.31,0.48,3.21,3.15,3.14
49.46,2.40,-0.73,2.40,-0.74,0.74,0.30,0.46,3.14,3.15,3.13
49.96,2.29,-0.84,2.35,-0.80,0.80,0.28,0.43,3.09,3.14,3.13
50.46,2.26,-0.88,2.29,-0.85,0.85,0.26,0.41,3.11,3.14,3.14
50.96,2.23,-0.92,2.23,-0.90,0.90,0.25,0.39,3.13,3.13,3.15
51.47,2.14,-1.00,2.17,-0.95,0.95,0.23,0.37,3.09,3.12,3.14
51.99,2.05,-1.07,2.11,-0.99,0.99,0.21,0.35,3.04,3.10,3.12
52.51,2.05,-1.06,2.06,-1.02,1.02,0.19,0.32,3.07,3.08,3.11
53.03,2.05,-1.03,2.02,-1.04,1.04,0.18,0.30,3.09,3.06,3.08
53.56,2.05,-1.00,1.98,-1.05,1.05,0.16,0.28,3.10,3.03,3.05
54.10,2.03,-0.98,1.94,-1.05,1.05,0.14,0.26,3.08,2.99,3.01
54.64,1.90,-1.06,1.91,-1.04,1.04,0.13,0.24,2.94,2.95,2.96
55.18,1.82,-1.09,1.89,-1.02,1.02,0.11,0.22,2.84,2.91,2.91
55.74,1.82,-1.04,1.87,-0.99,0.99,0.09,0.20,2.81,2.86,2.86
56.29,1.82,-0.99,1.84,-0.96,0.96,0.07,0.17,2.78,2.80,2.81
56.86,1.82,-0.93,1.82,-0.93,0.93,0.06,0.15,2.75,2.75,2.75
57.42,1.82,-0.86,1.81,-0.88,0.88,0.04,0.13,2.70,2.69,2.68
58.00,1.82,-0.80,1.80,-0.82,0.82,0.02,0.11,2.64,2.63,2.62
58.58,1.82,-0.74,1.80,-0.76,0.76,0.00,0.08,2.58,2.56,2.56
59.16,1.82,-0.69,1.81,-0.69,0.69,-0.01,0.06,2.51,2.50,2.51
59.76,1.82,-0.63,1.82,-0.62,0.62,-0.03,0.03,2.44,2.44,2.45
60.35,1.82,-0.56,1.83,-0.55,0.55,-0.05,0.01,2.37,2.38,2.38
60.96,1.82,-0.51,1.85,-0.47,0.47,-0.07,-0.02,2.29,2.32,2.33
61.57,1.82,-0.44,1.87,-0.39,0.39,-0.09,-0.04,2.21,2.26,2.26
62.18,1.86,-0.33,1.90,-0.30,0.30,-0.11,-0.07,2.16,2.20,2.19
62.80,2.01,-0.14,1.93,-0.22,0.22,-0.13,-0.10,2.23,2.15,2.15
63.43,2.05,-0.04,1.97,-0.13,0.13,-0.14,-0.13,2.18,2.10,2.09
64.07,2.05,0.00,2.00,-0.05,0.05,-0.16,-0.16,2.10,2.05,2.05
64.71,2.05,0.05,2.04,0.04,-0.04,-0.18,-0.19,2.01,2.00,2.00
65.35,2.05,0.10,2.10,0.14,-0.14,-0.20,-0.22,1.91,1.96,1.95
66.01,2.05,0.13,2.16,0.25,-0.25,-0.22,-0.25,1.80,1.92,1.92
66.67,2.20,0.32,2.23,0.35,-0.35,-0.24,-0.29,1.85,1.88,1.88
67.33,2.31,0.46,2.30,0.46,-0.46,-0.27,-0.32,1.85,1.85,1.85
68.01,2.38,0.56,2.38,0.57,-0.57,-0.29,-0.35,1.81,1.81,1.82
68.69,2.47,0.68,2.46,0.68,-0.68,-0.31,-0.39,1.79,1.78,1.79
69.37,2.51,0.76,2.55,0.79,-0.79,-0.33,-0.43,1.72,1.75,1.75
70.07,2.53,0.81,2.63,0.91,-0.91,-0.35,-0.46,1.62,1.72,1.72
70.77,2.69,0.98,2.71,1.02,-1.02,-0.38,-0.50,1.67,1.69,1.71
71.48,2.85,1.18,2.79,1.13,-1.13,-0.40,-0.54,1.72,1.66,1.67
72.19,2.96,1.31,2.86,1.23,-1.23,-0.42,-0.58,1.73,1.63,1.65
72.91,2.96,1.35,2.92,1.32,-1.32,-0.45,-0.62,1.64,1.60,1.61
73.64,2.96,1.38,2.97,1.40,-1.40,-0.47,-0.67,1.56,1.57,1.58
74.38,3.02,1.47,3.00,1.46,-1.46,-0.50,-0.71,1.56,1.54,1.55
75.12,3.14,1.62,3.02,1.51,-1.51,-0.52,-0.75,1.63,1.51,1.52
75.87,3.18,1.69,3.04,1.55,-1.55,-0.55,-0.80,1.62,1.48,1.49
76.63,3.08,1.62,3.05,1.59,-1.59,-0.58,-0.85,1.49,1.46,1.46
77.40,2.99,1.56,3.05,1.62,-1.62,-0.60,-0.89,1.37,1.43,1.43
78.17,2.96,1.56,3.04,1.63,-1.63,-0.63,-0.94,1.33,1.41,1.40
78.95,2.96,1.57,3.02,1.64,-1.64,-0.66,-0.99,1.32,1.39,1.39
79.74,2.96,1.59,3.00,1.64,-1.64,-0.69,-1.04,1.32,1.37,1.37
80.54,2.96,1.61,2.99,1.64,-1.64,-0.72,-1.09,1.32,1.35,1.35
81.35,2.96,1.63,2.98,1.64,-1.64,-0.75,-1.15,1.32,1.34,1.33
82.16,2.96,1.63,2.97,1.64,-1.64,-0.78,-1.20,1.32,1.33,1.33
82.98,2.96,1.63,2.95,1.63,-1.63,-0.81,-1.26,1.33,1.32,1.33
83.81,2.96,1.64,2.95,1.62,-1.62,-0.85,-1.31,1.34,1.32,1.32
84.65,2.96,1.65,2.95,1.63,-1.63,-0.88,-1.37,1.33,1.32,1.31
85.50,2.96,1.64,2.95,1.64,-1.64,-0.92,-1.43,1.32,1.32,1.32
86.35,2.96,1.64,2.96,1.64,-1.64,-0.95,-1.49,1.32,1.32,1.32
87.22,2.96,1.64,2.96,1.64,-1.64,-0.99,-1.55,1.32,1.32,1.32
88.09,2.96,1.64,2.96,1.64,-1.64,-1.03,-1.61,1.32,1.32,1.32
88.97,2.96,1.62,2.96,1.64,-1.64,-1.07,-1.68,1.32,1.32,1.34
89.86,2.96,1.62,2.96,1.64,-1.64,-1.11,-1.74,1.32,1.32,1.34
90.76,2.96,1.64,2.96,1.64,-1.64,-1.15,-1.81,1.32,1.32,1.32
91.66,2.96,1.63,2.96,1.65,-1.65,-1.19,-1.88,1.31,1.31,1.33
92.58,2.96,1.66,2.96,1.65,-1.65,-1.24,-1.95,1.31,1.31,1.30
93.51,2.96,1.65,2.96,1.66,-1.66,-1.28,-2.02,1.30,1.30,1.31
94.44,2.96,1.67,2.96,1.68,-1.68,-1.33,-2.09,1.28,1.28,1.29
95.39,2.96,1.68,2.96,1.69,-1.69,-1.38,-2.16,1.27,1.27,1.28
96.34,2.96,1.72,2.96,1.71,-1.71,-1.43,-2.24,1.25,1.25,1.24
97.30,2.96,1.74,2.96,1.73,-1.73,-1.48,-2.31,1.23,1.23,1.22
98.28,2.96,1.76,2.96,1.76,-1.76,-1.53,-2.39,1.20,1.20,1.20
99.26,2.96,1.79,2.96,1.79,-1.79,-1.58,-2.46,1.17,1.17,1.17
100.25,2.96,1.82,2.96,1.82,-1.82,-1.64,-2.54,1.14,1.14,1.14
101.25,2.96,1.85,2.96,1.86,-1.86,-1.69,-2.61,1.10,1.10,1.11
102.27,2.96,1.89,2.96,1.90,-1.90,-1.75,-2.69,1.06,1.06,1.07
103.29,2.96,1.94,2.96,1.94,-1.94,-1.81,-2.77,1.02,1.02,1.02
104.32,2.96,1.98,2.96,1.99,-1.99,-1.87,-2.84,0.97,0.97,0.98
105.37,2.96,2.03,2.96,2.05,-2.05,-1.93,-2.92,0.91,0.91,0.93
106.42,2.96,2.08,2.96,2.10,-2.10,-2.00,-2.99,0.86,0.86,0.88
107.48,2.96,2.15,2.96,2.17,-2.17,-2.06,-3.06,0.79,0.79,0.81
108.56,2.96,2.23,2.96,2.23,-2.23,-2.13,-3.14,0.73,0.73,0.73
109.64,2.96,2.30,2.96,2.30,-2.30,-2.20,-3.20,0.66,0.66,0.66
110.74,2.96,2.36,2.96,2.37,-2.37,-2.27,-3.27,0.59,0.59,0.60
111.85,2.96,2.43,2.96,2.45,-2.45,-2.34,-3.33,0.51,0.51,0.53
112.97,2.96,2.52,2.96,2.52,-2.52,-2.41,-3.39,0.44,0.44,0.44
114.10,2.96,2.58,2.96,2.59,-2.59,-2.48,-3.45,0.37,0.37,0.38
115.24,2.96,2.66,2.97,2.67,-2.67,-2.55,-3.50,0.29,0.30,0.30
116.39,2.96,2.74,2.98,2.74,-2.74,-2.63,-3.55,0.22,0.24,0.22
117.55,2.96,2.80,2.98,2.80,-2.80,-2.70,-3.60,0.16,0.17,0.16
118.73,2.96,2.87,2.97,2.86,-2.86,-2.77,-3.63,0.10,0.11,0.09
119.92,2.96,2.91,2.96,2.91,-2.91,-2.85,-3.67,0.05,0.06,0.05
121.12,2.96,2.97,2.95,2.94,-2.94,-2.92,-3.69,0.02,0.01,-0.01
122.33,2.96,3.01,2.94,2.98,-2.98,-2.99,-3.72,-0.02,-0.04,-0.05
123.55,2.96,3.03,2.92,3.00,-3.00,-3.07,-3.73,-0.04,-0.08,-0.07
124.79,2.96,3.07,2.90,3.02,-3.02,-3.14,-3.74,-0.06,-0.12,-0.11
126.03,2.96,3.11,2.88,3.04,-3.04,-3.21,-3.74,-0.08,-0.16,-0.15
127.29,2.89,3.07,2.86,3.05,-3.05,-3.28,-3.74,-0.16,-0.19,-0.18
128.57,2.79,3.01,2.84,3.06,-3.06,-3.34,-3.73,-0.27,-0.22,-0.22
129.85,2.74,2.99,2.82,3.07,-3.07,-3.40,-3.71,-0.33,-0.26,-0.25
131.15,2.74,3.02,2.80,3.08,-3.08,-3.46,-3.69,-0.34,-0.29,-0.28
132.46,2.74,3.05,2.78,3.10,-3.10,-3.52,-3.67,-0.36,-0.32,-0.31
133.79,2.74,3.08,2.76,3.11,-3.11,-3.57,-3.64,-0.37,-0.35,-0.34
135.12,2.74,3.13,2.75,3.13,-3.13,-3.62,-3.60,-0.39,-0.39,-0.39
136.48,2.74,3.16,2.73,3.15,-3.15,-3.66,-3.56,-0.41,-0.42,-0.42
137.84,2.74,3.19,2.73,3.18,-3.18,-3.70,-3.51,-0.44,-0.46,-0.45
139.22,2.74,3.24,2.73,3.22,-3.22,-3.73,-3.46,-0.48,-0.49,-0.50
140.61,2.74,3.29,2.74,3.27,-3.27,-3.75,-3.41,-0.53,-0.53,-0.55
142.02,2.74,3.31,2.75,3.32,-3.32,-3.77,-3.36,-0.58,-0.57,-0.57
143.44,2.74,3.35,2.76,3.38,-3.38,-3.79,-3.30,-0.64,-0.62,-0.61
144.87,2.74,3.39,2.77,3.44,-3.44,-3.79,-3.24,-0.70,-0.67,-0.65
146.32,2.74,3.44,2.78,3.51,-3.51,-3.80,-3.18,-0.77,-0.72,-0.70
147.78,2.74,3.48,2.79,3.57,-3.57,-3.79,-3.12,-0.83,-0.78,-0.74
149.26,2.74,3.55,2.78,3.62,-3.62,-3.78,-3.05,-0.88,-0.85,-0.81
150.75,2.74,3.63,2.74,3.66,-3.66,-3.76,-2.99,-0.92,-0.91,-0.89
152.26,2.74,3.70,2.69,3.67,-3.67,-3.73,-2.93,-0.93,-0.98,-0.96
153.78,2.74,3.77,2.61,3.66,-3.66,-3.70,-2.86,-0.92,-1.05,-1.03
155.32,2.69,3.82,2.52,3.65,-3.65,-3.67,-2.80,-0.96,-1.12,-1.13
156.88,2.53,3.73,2.43,3.63,-3.63,-3.62,-2.73,-1.10,-1.20,-1.20
158.44,2.51,3.78,2.34,3.60,-3.60,-3.58,-2.67,-1.09,-1.27,-1.27
160.03,2.45,3.80,2.24,3.57,-3.57,-3.53,-2.61,-1.12,-1.33,-1.35
161.63,2.18,3.59,2.14,3.53,-3.53,-3.47,-2.55,-1.35,-1.39,-1.41
163.24,1.92,3.38,2.05,3.50,-3.50,-3.41,-2.49,-1.58,-1.44,-1.46
164.88,1.66,3.16,1.97,3.46,-3.46,-3.35,-2.43,-1.79,-1.49,-1.50
166.53,1.61,3.15,1.89,3.41,-3.41,-3.28,-2.37,-1.80,-1.52,-1.54
168.19,1.60,3.17,1.83,3.37,-3.37,-3.22,-2.32,-1.77,-1.55,-1.57
169.87,1.65,3.23,1.78,3.34,-3.34,-3.15,-2.26,-1.69,-1.56,-1.58
171.57,1.79,3.38,1.74,3.32,-3.32,-3.07,-2.21,-1.53,-1.58,-1.59
173.29,1.82,3.41,1.73,3.31,-3.31,-3.00,-2.16,-1.49,-1.58,-1.59
175.02,1.82,3.39,1.73,3.32,-3.32,-2.93,-2.11,-1.50,-1.59,-1.57
176.77,1.82,3.40,1.74,3.33,-3.33,-2.85,-2.06,-1.51,-1.59,-1.58
178.54,1.82,3.39,1.76,3.35,-3.35,-2.78,-2.01,-1.53,-1.59,-1.57
180.32,1.82,3.38,1.80,3.38,-3.38,-2.70,-1.97,-1.56,-1.59,-1.56
182.13,1.82,3.38,1.82,3.41,-3.41,-2.63,-1.92,-1.59,-1.59,-1.56
183.95,1.82,3.38,1.83,3.42,-3.42,-2.56,-1.88,-1.60,-1.59,-1.56
185.79,1.82,3.39,1.83,3.42,-3.42,-2.48,-1.84,-1.60,-1.59,-1.57
187.65,1.82,3.41,1.81,3.41,-3.41,-2.41,-1.80,-1.59,-1.60,-1.59
189.52,1.82,3.43,1.77,3.38,-3.38,-2.34,-1.77,-1.56,-1.61,-1.61
191.42,1.77,3.40,1.72,3.35,-3.35,-2.27,-1.73,-1.58,-1.63,-1.63
193.33,1.65,3.30,1.67,3.31,-3.31,-2.20,-1.70,-1.66,-1.64,-1.65
195.27,1.60,3.25,1.61,3.27,-3.27,-2.13,-1.66,-1.67,-1.66,-1.65
197.22,1.60,3.27,1.55,3.23,-3.23,-2.06,-1.63,-1.63,-1.68,-1.67
199.19,1.46,3.17,1.47,3.17,-3.17,-1.99,-1.60,-1.71,-1.70,-1.71
201.18,1.37,3.08,1.39,3.11,-3.11,-1.93,-1.57,-1.74,-1.72,-1.71
203.19,1.32,3.05,1.31,3.04,-3.04,-1.86,-1.54,-1.72,-1.74,-1.73
205.23,1.20,2.96,1.22,2.97,-2.97,-1.80,-1.52,-1.77,-1.75,-1.76
207.28,1.06,2.82,1.12,2.89,-2.89,-1.74,-1.49,-1.83,-1.77,-1.76
209.35,0.94,2.72,1.01,2.79,-2.79,-1.68,-1.47,-1.85,-1.79,-1.78
211.44,0.91,2.72,0.89,2.69,-2.69,-1.62,-1.44,-1.78,-1.80,-1.81
213.56,0.76,2.57,0.76,2.58,-2.58,-1.57,-1.42,-1.82,-1.81,-1.81
215.69,0.69,2.50,0.62,2.45,-2.45,-1.51,-1.40,-1.76,-1.83,-1.81
217.85,0.48,2.32,0.48,2.32,-2.32,-1.46,-1.37,-1.84,-1.84,-1.84
220.03,0.37,2.22,0.33,2.18,-2.18,-1.41,-1.35,-1.81,-1.85,-1.85
222.23,0.26,2.13,0.18,2.04,-2.04,-1.36,-1.33,-1.78,-1.86,-1.87
224.45,0.12,1.99,0.01,1.89,-1.89,-1.31,-1.31,-1.77,-1.87,-1.87
226.70,-0.12,1.75,-0.15,1.73,-1.73,-1.26,-1.29,-1.84,-1.88,-1.87
228.96,-0.38,1.50,-0.32,1.57,-1.57,-1.21,-1.26,-1.95,-1.89,-1.88
231.25,-0.61,1.27,-0.50,1.40,-1.40,-1.16,-1.24,-2.01,-1.89,-1.88
233.57,-0.71,1.18,-0.67,1.22,-1.22,-1.12,-1.22,-1.93,-1.89,-1.89
235.90,-0.90,1.00,-0.85,1.05,-1.05,-1.07,-1.20,-1.95,-1.90,-1.90
238.26,-1.02,0.88,-1.02,0.88,-0.88,-1.03,-1.18,-1.90,-1.90,-1.90
240.64,-1.12,0.78,-1.18,0.71,-0.71,-0.99,-1.15,-1.83,-1.90,-1.90
243.05,-1.30,0.59,-1.34,0.56,-0.56,-0.95,-1.13,-1.86,-1.89,-1.89
245.48,-1.53,0.35,-1.48,0.40,-0.40,-0.91,-1.11,-1.93,-1.89,-1.88
247.93,-1.60,0.27,-1.63,0.25,-0.25,-0.87,-1.08,-1.85,-1.88,-1.87
250.41,-1.78,0.10,-1.77,0.11,-0.11,-0.83,-1.06,-1.89,-1.88,-1.88
252.92,-1.87,0.00,-1.88,-0.01,0.01,-0.79,-1.03,-1.86,-1.87,-1.87
255.45,-2.02,-0.18,-1.99,-0.13,0.13,-0.75,-1.01,-1.89,-1.86,-1.84
258.00,-2.05,-0.21,-2.08,-0.23,0.23,-0.72,-0.98,-1.82,-1.85,-1.84
260.58,-2.19,-0.35,-2.17,-0.33,0.33,-0.68,-0.95,-1.86,-1.84,-1.84
263.19,-2.27,-0.45,-2.24,-0.42,0.42,-0.64,-0.92,-1.85,-1.83,-1.82
265.82,-2.28,-0.46,-2.30,-0.49,0.49,-0.61,-0.89,-1.79,-1.81,-1.82
268.48,-2.33,-0.54,-2.34,-0.55,0.55,-0.58,-0.86,-1.78,-1.80,-1.79
271.16,-2.46,-0.68,-2.36,-0.58,0.58,-0.54,-0.83,-1.88,-1.78,-1.78
273.87,-2.51,-0.74,-2.37,-0.61,0.61,-0.51,-0.80,-1.90,-1.76,-1.77
276.61,-2.38,-0.65,-2.37,-0.64,0.64,-0.48,-0.77,-1.74,-1.74,-1.73
279.38,-2.30,-0.58,-2.35,-0.64,0.64,-0.44,-0.74,-1.66,-1.71,-1.72
282.17,-2.28,-0.59,-2.33,-0.63,0.63,-0.41,-0.70,-1.65,-1.69,-1.69
284.99,-2.28,-0.62,-2.29,-0.63,0.63,-0.38,-0.67,-1.65,-1.66,-1.66
287.84,-2.28,-0.64,-2.25,-0.62,0.62,-0.35,-0.64,-1.66,-1.64,-1.64
290.72,-2.21,-0.61,-2.20,-0.59,0.59,-0.32,-0.60,-1.62,-1.61,-1.60
293.63,-2.07,-0.49,-2.15,-0.57,0.57,-0.28,-0.57,-1.50,-1.58,-1.58
296.57,-2.05,-0.50,-2.09,-0.54,0.54,-0.25,-0.53,-1.51,-1.55,-1.55
299.53,-2.05,-0.53,-2.04,-0.51,0.51,-0.22,-0.50,-1.54,-1.53,-1.52
302.53,-2.04,-0.53,-1.97,-0.46,0.46,-0.19,-0.46,-1.58,-1.51,-1.51
305.55,-1.85,-0.38,-1.91,-0.42,0.42,-0.16,-0.43,-1.43,-1.49,-1.47
308.61,-1.82,-0.37,-1.86,-0.39,0.39,-0.13,-0.39,-1.43,-1.47,-1.45
311.69,-1.82,-0.38,-1.80,-0.34,0.34,-0.10,-0.35,-1.48,-1.45,-1.44
314.81,-1.82,-0.41,-1.73,-0.29,0.29,-0.07,-0.32,-1.53,-1.44,-1.41
317.96,-1.68,-0.27,-1.67,-0.25,0.25,-0.04,-0.28,-1.43,-1.43,-1.41
321.14,-1.60,-0.18,-1.61,-0.19,0.19,-0.00,-0.25,-1.41,-1.42,-1.42
324.35,-1.60,-0.19,-1.56,-0.15,0.15,0.03,-0.21,-1.45,-1.41,-1.41
327.59,-1.56,-0.16,-1.51,-0.11,0.11,0.06,-0.17,-1.45,-1.40,-1.40
330.87,-1.42,-0.03,-1.47,-0.08,0.08,0.09,-0.14,-1.34,-1.39,-1.39
334.18,-1.37,0.02,-1.44,-0.06,0.06,0.12,-0.10,-1.31,-1.38,-1.39
337.52,-1.37,0.01,-1.42,-0.05,0.05,0.15,-0.06,-1.32,-1.37,-1.38
340.90,-1.37,-0.02,-1.41,-0.06,0.06,0.19,-0.02,-1.31,-1.35,-1.35
344.30,-1.37,-0.03,-1.41,-0.07,0.07,0.22,0.01,-1.30,-1.34,-1.34
347.75,-1.37,-0.04,-1.42,-0.09,0.09,0.25,0.05,-1.28,-1.32,-1.33
351.23,-1.37,-0.07,-1.44,-0.13,0.13,0.29,0.09,-1.24,-1.30,-1.30
354.74,-1.37,-0.09,-1.46,-0.18,0.18,0.32,0.13,-1.19,-1.28,-1.28
358.28,-1.48,-0.23,-1.48,-0.22,0.22,0.35,0.16,-1.26,-1.26,-1.25
361.87,-1.57,-0.34,-1.50,-0.26,0.26,0.39,0.20,-1.31,-1.23,-1.23
365.49,-1.60,-0.39,-1.51,-0.30,0.30,0.42,0.24,-1.30,-1.21,-1.21
369.14,-1.60,-0.41,-1.53,-0.34,0.34,0.46,0.28,-1.26,-1.19,-1.19
372.83,-1.60,-0.44,-1.53,-0.36,0.36,0.49,0.32,-1.24,-1.17,-1.16
376.56,-1.60,-0.46,-1.53,-0.38,0.38,0.53,0.36,-1.22,-1.15,-1.14
380.33,-1.60,-0.49,-1.52,-0.39,0.39,0.56,0.39,-1.21,-1.13,-1.11
384.13,-1.60,-0.51,-1.50,-0.39,0.39,0.60,0.43,-1.21,-1.11,-1.09
387.97,-1.44,-0.36,-1.48,-0.39,0.39,0.63,0.47,-1.05,-1.09,-1.08
391.85,-1.38,-0.30,-1.45,-0.37,0.37,0.67,0.51,-1.01,-1.08,-1.08
395.77,-1.37,-0.30,-1.43,-0.36,0.36,0.70,0.55,-1.01,-1.07,-1.07
399.73,-1.37,-0.31,-1.39,-0.33,0.33,0.74,0.59,-1.04,-1.06,-1.06
403.72,-1.37,-0.32,-1.37,-0.32,0.32,0.77,0.63,-1.05,-1.05,-1.05
407.76,-1.37,-0.33,-1.36,-0.32,0.32,0.81,0.66,-1.05,-1.04,-1.04
411.84,-1.37,-0.34,-1.37,-0.33,0.33,0.84,0.70,-1.04,-1.04,-1.03
415.96,-1.37,-0.35,-1.39,-0.35,0.35,0.87,0.74,-1.02,-1.04,-1.02
420.12,-1.37,-0.35,-1.43,-0.40,0.40,0.90,0.78,-0.97,-1.03,-1.02
424.32,-1.39,-0.37,-1.49,-0.46,0.46,0.93,0.81,-0.93,-1.03,-1.02
428.56,-1.54,-0.52,-1.57,-0.54,0.54,0.96,0.85,-1.00,-1.03,-1.02
432.85,-1.60,-0.57,-1.66,-0.64,0.64,0.99,0.88,-0.96,-1.02,-1.03
437.18,-1.70,-0.68,-1.76,-0.75,0.75,1.02,0.91,-0.95,-1.02,-1.02
441.55,-1.79,-0.78,-1.87,-0.86,0.86,1.04,0.95,-0.93,-1.01,-1.01
445.96,-1.98,-0.97,-1.98,-0.97,0.97,1.06,0.98,-1.01,-1.01,-1.01
450.42,-2.05,-1.05,-2.09,-1.09,1.09,1.08,1.01,-0.96,-1.00,-1.00
454.93,-2.23,-1.24,-2.19,-1.20,1.20,1.10,1.03,-1.03,-0.99,-0.99
459.48,-2.33,-1.35,-2.28,-1.30,1.30,1.12,1.06,-1.03,-0.98,-0.98
464.07,-2.48,-1.52,-2.35,-1.39,1.39,1.13,1.08,-1.09,-0.96,-0.96
468.71,-2.51,-1.57,-2.41,-1.46,1.46,1.14,1.10,-1.05,-0.94,-0.94
473.40,-2.51,-1.58,-2.44,-1.52,1.52,1.15,1.12,-0.99,-0.92,-0.93
478.13,-2.51,-1.61,-2.44,-1.54,1.54,1.15,1.14,-0.97,-0.90,-0.90
482.91,-2.51,-1.63,-2.42,-1.54,1.54,1.16,1.16,-0.97,-0.88,-0.88
487.74,-2.45,-1.60,-2.38,-1.52,1.52,1.16,1.17,-0.93,-0.86,-0.85
492.62,-2.32,-1.50,-2.32,-1.49,1.49,1.15,1.18,-0.83,-0.83,-0.82
497.55,-2.28,-1.48,-2.24,-1.43,1.43,1.15,1.19,-0.85,-0.81,-0.80
502.52,-2.15,-1.38,-2.15,-1.37,1.37,1.14,1.19,-0.78,-0.78,-0.77
507.55,-2.06,-1.30,-2.06,-1.30,1.30,1.13,1.20,-0.76,-0.76,-0.76
