frequency,raw,error,smoothed,error_smoothed,equalization,parametric_eq,fixed_band_eq,equalized_raw,equalized_smoothed,target
20.00,11.67,-1.57,11.68,-1.56,1.56,1.19,0.31,13.23,13.24,13.24
20.20,11.70,-1.53,11.71,-1.52,1.52,1.20,0.32,13.22,13.23,13.23
20.40,11.73,-1.49,11.74,-1.48,1.48,1.20,0.33,13.21,13.21,13.22
20.61,11.76,-1.45,11.76,-1.44,1.44,1.21,0.34,13.20,13.20,13.21
20.81,11.79,-1.39,11.79,-1.40,1.40,1.21,0.36,13.19,13.19,13.18
21.02,11.82,-1.35,11.81,-1.37,1.37,1.21,0.37,13.19,13.18,13.17
21.23,11.85,-1.31,11.84,-1.33,1.33,1.21,0.39,13.18,13.17,13.16
21.44,11.87,-1.30,11.86,-1.30,1.30,1.21,0.40,13.17,13.16,13.17
21.66,11.90,-1.25,11.89,-1.26,1.26,1.21,0.42,13.16,13.15,13.15
21.87,11.92,-1.23,11.91,-1.23,1.23,1.21,0.43,13.15,13.14,13.15
22.09,11.95,-1.18,11.94,-1.20,1.20,1.20,0.45,13.15,13.13,13.13
22.31,11.97,-1.16,11.96,-1.17,1.17,1.19,0.47,13.14,13.13,13.13
22.54,11.99,-1.13,11.98,-1.14,1.14,1.19,0.48,13.13,13.12,13.12
22.76,12.00,-1.12,12.00,-1.11,1.11,1.18,0.50,13.11,13.11,13.12
22.99,12.02,-1.08,12.02,-1.09,1.09,1.17,0.52,13.11,13.11,13.10
23.22,12.03,-1.06,12.04,-1.06,1.06,1.16,0.54,13.09,13.10,13.09
23.45,12.05,-1.05,12.06,-1.03,1.03,1.14,0.56,13.08,13.10,13.10
23.69,12.07,-1.02,12.09,-1.00,1.00,1.13,0.58,13.07,13.09,13.09
23.92,12.09,-0.99,12.11,-0.98,0.98,1.12,0.60,13.07,13.09,13.08
24.16,12.12,-0.97,12.14,-0.95,0.95,1.10,0.62,13.07,13.08,13.09
24.40,12.16,-0.93,12.16,-0.92,0.92,1.08,0.64,13.08,13.08,13.09
24.65,12.19,-0.90,12.19,-0.89,0.89,1.07,0.66,13.08,13.08,13.08
24.89,12.22,-0.86,12.22,-0.86,0.86,1.05,0.68,13.08,13.08,13.08
25.14,12.25,-0.82,12.24,-0.83,0.83,1.03,0.70,13.08,13.08,13.07
25.39,12.27,-0.80,12.26,-0.81,0.81,1.01,0.72,13.08,13.07,13.07
25.65,12.30,-0.77,12.28,-0.79,0.79,0.99,0.74,13.09,13.07,13.07
25.91,12.32,-0.75,12.30,-0.77,0.77,0.97,0.76,13.09,13.07,13.07
26.16,12.33,-0.74,12.32,-0.75,0.75,0.95,0.78,13.08,13.07,13.07
26.43,12.34,-0.73,12.33,-0.74,0.74,0.93,0.80,13.08,13.07,13.07
26.69,12.35,-0.72,12.33,-0.73,0.73,0.90,0.82,13.08,13.07,13.07
26.96,12.34,-0.73,12.34,-0.73,0.73,0.88,0.84,13.07,13.07,13.07
27.23,12.34,-0.72,12.34,-0.73,0.73,0.86,0.86,13.07,13.07,13.06
27.50,12.33,-0.73,12.33,-0.74,0.74,0.83,0.88,13.07,13.07,13.06
27.77,12.32,-0.75,12.33,-0.74,0.74,0.81,0.90,13.06,13.07,13.07
28.05,12.32,-0.75,12.32,-0.75,0.75,0.79,0.91,13.07,13.07,13.07
28.33,12.32,-0.75,12.32,-0.75,0.75,0.76,0.93,13.07,13.07,13.07
28.62,12.32,-0.75,12.31,-0.76,0.76,0.74,0.94,13.08,13.07,13.07
28.90,12.32,-0.76,12.31,-0.76,0.76,0.71,0.95,13.08,13.07,13.08
29.19,12.31,-0.77,12.31,-0.76,0.76,0.69,0.96,13.07,13.07,13.08
29.48,12.30,-0.77,12.31,-0.76,0.76,0.67,0.97,13.06,13.07,13.07
29.78,12.30,-0.77,12.31,-0.75,0.75,0.64,0.98,13.05,13.06,13.07
30.08,12.31,-0.76,12.32,-0.74,0.74,0.62,0.98,13.05,13.06,13.07
30.38,12.32,-0.73,12.34,-0.72,0.72,0.59,0.99,13.04,13.06,13.05
30.68,12.34,-0.71,12.35,-0.70,0.70,0.57,0.99,13.04,13.05,13.05
30.99,12.36,-0.68,12.37,-0.67,0.67,0.55,0.98,13.03,13.05,13.04
31.30,12.39,-0.65,12.39,-0.64,0.64,0.52,0.98,13.03,13.04,13.04
31.61,12.41,-0.63,12.42,-0.61,0.61,0.50,0.97,13.02,13.03,13.04
31.93,12.44,-0.57,12.45,-0.58,0.58,0.48,0.96,13.02,13.02,13.01
32.24,12.48,-0.54,12.48,-0.54,0.54,0.45,0.95,13.02,13.01,13.02
32.57,12.51,-0.49,12.51,-0.50,0.50,0.43,0.94,13.01,13.01,13.00
32.89,12.54,-0.46,12.53,-0.46,0.46,0.41,0.92,13.00,13.00,13.00
33.22,12.57,-0.42,12.56,-0.43,0.43,0.38,0.91,13.00,12.99,12.99
33.55,12.59,-0.40,12.59,-0.40,0.40,0.36,0.89,12.99,12.98,12.99
33.89,12.62,-0.35,12.61,-0.37,0.37,0.34,0.87,12.99,12.97,12.97
34.23,12.64,-0.32,12.62,-0.34,0.34,0.32,0.84,12.98,12.96,12.96
34.57,12.65,-0.30,12.64,-0.32,0.32,0.29,0.82,12.97,12.95,12.95
34.92,12.66,-0.27,12.65,-0.30,0.30,0.27,0.79,12.96,12.94,12.93
35.27,12.67,-0.28,12.66,-0.27,0.27,0.25,0.76,12.94,12.93,12.95
35.62,12.67,-0.25,12.66,-0.26,0.26,0.23,0.73,12.93,12.92,12.92
35.97,12.66,-0.25,12.67,-0.24,0.24,0.21,0.70,12.90,12.90,12.91
36.33,12.66,-0.24,12.67,-0.22,0.22,0.19,0.67,12.88,12.89,12.90
36.70,12.65,-0.22,12.67,-0.20,0.20,0.16,0.64,12.85,12.87,12.87
37.06,12.65,-0.20,12.67,-0.18,0.18,0.14,0.60,12.83,12.85,12.85
37.43,12.65,-0.18,12.67,-0.16,0.16,0.12,0.57,12.81,12.83,12.83
37.81,12.66,-0.15,12.67,-0.14,0.14,0.10,0.53,12.80,12.81,12.81
38.19,12.67,-0.12,12.67,-0.12,0.12,0.08,0.50,12.79,12.79,12.79
38.57,12.67,-0.10,12.66,-0.11,0.11,0.06,0.46,12.78,12.77,12.77
38.95,12.67,-0.08,12.65,-0.09,0.09,0.04,0.42,12.76,12.74,12.75
39.34,12.66,-0.06,12.64,-0.07,0.07,0.02,0.38,12.73,12.72,12.72
39.74,12.65,-0.04,12.63,-0.06,0.06,-0.00,0.35,12.71,12.69,12.69
40.14,12.63,-0.04,12.62,-0.05,0.05,-0.02,0.31,12.68,12.67,12.67
40.54,12.61,-0.04,12.60,-0.05,0.05,-0.04,0.27,12.66,12.64,12.65
40.94,12.58,-0.04,12.57,-0.05,0.05,-0.06,0.23,12.63,12.62,12.62
41.35,12.55,-0.04,12.55,-0.05,0.05,-0.08,0.19,12.60,12.60,12.59
41.76,12.52,-0.04,12.52,-0.05,0.05,-0.10,0.16,12.57,12.57,12.56
42.18,12.49,-0.06,12.49,-0.05,0.05,-0.12,0.12,12.54,12.54,12.55
42.60,12.46,-0.06,12.46,-0.06,0.06,-0.14,0.08,12.52,12.52,12.52
43.03,12.43,-0.06,12.43,-0.06,0.06,-0.16,0.04,12.49,12.49,12.49
43.46,12.40,-0.06,12.40,-0.06,0.06,-0.18,0.00,12.46,12.46,12.46
43.90,12.37,-0.06,12.38,-0.05,0.05,-0.20,-0.04,12.42,12.43,12.43
44.33,12.35,-0.05,12.36,-0.04,0.04,-0.22,-0.08,12.39,12.40,12.40
44.78,12.33,-0.04,12.34,-0.03,0.03,-0.24,-0.12,12.36,12.37,12.37
45.23,12.31,-0.04,12.33,-0.01,0.01,-0.26,-0.15,12.32,12.34,12.35
45.68,12.30,-0.00,12.32,0.02,-0.02,-0.28,-0.19,12.28,12.30,12.30
46.13,12.30,0.04,12.31,0.05,-0.05,-0.30,-0.23,12.25,12.26,12.26
46.60,12.31,0.08,12.31,0.09,-0.09,-0.32,-0.27,12.22,12.22,12.23
47.06,12.31,0.12,12.30,0.13,-0.13,-0.34,-0.31,12.18,12.18,12.19
47.53,12.32,0.17,12.31,0.17,-0.17,-0.36,-0.35,12.15,12.14,12.15
48.01,12.32,0.23,12.31,0.22,-0.22,-0.38,-0.39,12.10,12.09,12.09
48.49,12.32,0.27,12.31,0.27,-0.27,-0.40,-0.43,12.05,12.05,12.05
48.97,12.32,0.32,12.32,0.32,-0.32,-0.42,-0.47,12.00,12.00,12.00
49.46,12.32,0.37,12.33,0.37,-0.37,-0.44,-0.50,11.95,11.95,11.95
49.96,12.32,0.43,12.33,0.43,-0.43,-0.46,-0.54,11.89,11.91,11.89
50.46,12.32,0.46,12.34,0.48,-0.48,-0.48,-0.58,11.84,11.86,11.86
50.96,12.33,0.52,12.34,0.53,-0.53,-0.50,-0.62,11.80,11.81,11.81
51.47,12.34,0.57,12.34,0.57,-0.57,-0.52,-0.66,11.77,11.77,11.77
51.99,12.35,0.64,12.34,0.62,-0.62,-0.54,-0.70,11.73,11.72,11.71
52.51,12.35,0.68,12.33,0.66,-0.66,-0.56,-0.74,11.69,11.67,11.67
53.03,12.34,0.70,12.32,0.70,-0.70,-0.58,-0.77,11.64,11.62,11.64
53.56,12.33,0.74,12.31,0.73,-0.73,-0.61,-0.81,11.60,11.58,11.59
54.10,12.31,0.78,12.30,0.76,-0.76,-0.63,-0.85,11.55,11.53,11.53
54.64,12.29,0.80,12.28,0.79,-0.79,-0.65,-0.88,11.50,11.49,11.49
55.18,12.26,0.82,12.26,0.81,-0.81,-0.67,-0.92,11.45,11.44,11.44
55.74,12.24,0.86,12.23,0.83,-0.83,-0.69,-0.96,11.41,11.40,11.38
56.29,12.21,0.86,12.21,0.86,-0.86,-0.72,-0.99,11.35,11.35,11.35
56.86,12.17,0.86,12.18,0.87,-0.87,-0.74,-1.03,11.30,11.31,11.31
57.42,12.14,0.89,12.15,0.89,-0.89,-0.76,-1.06,11.25,11.26,11.25
58.00,12.11,0.91,12.13,0.92,-0.92,-0.78,-1.09,11.19,11.21,11.20
58.58,12.09,0.92,12.10,0.94,-0.94,-0.81,-1.12,11.15,11.16,11.17
59.16,12.07,0.94,12.08,0.97,-0.97,-0.83,-1.15,11.10,11.11,11.13
59.76,12.05,0.97,12.06,1.00,-1.00,-0.85,-1.19,11.05,11.05,11.08
60.35,12.03,1.01,12.03,1.03,-1.03,-0.88,-1.21,11.00,11.00,11.02
60.96,12.01,1.06,12.01,1.07,-1.07,-0.90,-1.24,10.94,10.94,10.95
61.57,11.99,1.11,11.99,1.11,-1.11,-0.93,-1.27,10.88,10.88,10.88
62.18,11.97,1.15,11.97,1.15,-1.15,-0.95,-1.30,10.82,10.82,10.82
62.80,11.95,1.20,11.95,1.19,-1.19,-0.98,-1.32,10.76,10.76,10.75
63.43,11.94,1.26,11.93,1.23,-1.23,-1.00,-1.35,10.71,10.70,10.68
64.07,11.92,1.29,11.91,1.27,-1.27,-1.03,-1.37,10.65,10.64,10.63
64.71,11.89,1.32,11.88,1.31,-1.31,-1.05,-1.39,10.58,10.57,10.57
65.35,11.86,1.35,11.86,1.35,-1.35,-1.08,-1.41,10.51,10.51,10.50
66.01,11.83,1.39,11.84,1.39,-1.39,-1.11,-1.43,10.44,10.44,10.44
66.67,11.80,1.41,11.81,1.43,-1.43,-1.13,-1.45,10.37,10.38,10.39
67.33,11.78,1.46,11.78,1.47,-1.47,-1.16,-1.47,10.31,10.32,10.31
68.01,11.76,1.50,11.76,1.51,-1.51,-1.19,-1.49,10.25,10.25,10.26
68.69,11.74,1.55,11.73,1.55,-1.55,-1.22,-1.51,10.19,10.19,10.19
69.37,11.71,1.58,11.71,1.59,-1.59,-1.24,-1.53,10.12,10.12,10.13
70.07,11.68,1.62,11.68,1.63,-1.63,-1.27,-1.55,10.05,10.06,10.06
70.77,11.65,1.66,11.66,1.67,-1.67,-1.30,-1.57,9.98,9.99,9.99
71.48,11.63,1.70,11.63,1.71,-1.71,-1.33,-1.59,9.92,9.92,9.93
72.19,11.60,1.74,11.60,1.75,-1.75,-1.36,-1.61,9.85,9.86,9.86
72.91,11.58,1.80,11.58,1.79,-1.79,-1.39,-1.63,9.79,9.79,9.78
73.64,11.56,1.84,11.55,1.83,-1.83,-1.42,-1.65,9.73,9.72,9.72
74.38,11.54,1.89,11.52,1.86,-1.86,-1.45,-1.67,9.68,9.66,9.65
75.12,11.51,1.92,11.49,1.90,-1.90,-1.48,-1.69,9.61,9.59,9.59
75.87,11.48,1.95,11.47,1.94,-1.94,-1.52,-1.71,9.54,9.53,9.53
76.63,11.44,1.98,11.44,1.98,-1.98,-1.55,-1.73,9.46,9.47,9.46
77.40,11.42,2.02,11.43,2.02,-2.02,-1.58,-1.76,9.40,9.40,9.40
78.17,11.39,2.06,11.41,2.07,-2.07,-1.61,-1.78,9.32,9.34,9.33
78.95,11.37,2.08,11.39,2.11,-2.11,-1.65,-1.81,9.26,9.28,9.29
79.74,11.35,2.13,11.38,2.16,-2.16,-1.68,-1.84,9.19,9.22,9.22
80.54,11.34,2.18,11.37,2.22,-2.22,-1.71,-1.86,9.12,9.16,9.16
81.35,11.34,2.25,11.36,2.27,-2.27,-1.75,-1.90,9.07,9.09,9.09
82.16,11.35,2.31,11.36,2.32,-2.32,-1.78,-1.93,9.03,9.03,9.04
82.98,11.36,2.39,11.35,2.38,-2.38,-1.82,-1.96,8.98,8.97,8.97
83.81,11.36,2.45,11.34,2.44,-2.44,-1.86,-1.99,8.92,8.91,8.91
84.65,11.36,2.52,11.34,2.50,-2.50,-1.89,-2.03,8.86,8.84,8.84
85.50,11.34,2.57,11.33,2.55,-2.55,-1.93,-2.07,8.79,8.78,8.77
86.35,11.33,2.62,11.31,2.60,-2.60,-1.96,-2.11,8.73,8.71,8.71
87.22,11.32,2.68,11.30,2.65,-2.65,-2.00,-2.15,8.67,8.64,8.64
88.09,11.29,2.71,11.28,2.70,-2.70,-2.04,-2.19,8.59,8.58,8.58
88.97,11.26,2.75,11.25,2.74,-2.74,-2.08,-2.24,8.52,8.51,8.51
89.86,11.22,2.78,11.21,2.77,-2.77,-2.12,-2.29,8.45,8.44,8.44
90.76,11.17,2.80,11.17,2.81,-2.81,-2.15,-2.33,8.36,8.37,8.37
91.66,11.13,2.84,11.13,2.83,-2.83,-2.19,-2.38,8.29,8.30,8.29
92.58,11.08,2.85,11.08,2.86,-2.86,-2.23,-2.44,8.22,8.22,8.23
93.51,11.04,2.88,11.04,2.89,-2.89,-2.27,-2.49,8.15,8.15,8.16
94.44,10.99,2.90,10.99,2.91,-2.91,-2.31,-2.54,8.08,8.08,8.09
95.39,10.93,2.93,10.93,2.93,-2.93,-2.35,-2.60,8.00,8.00,8.00
96.34,10.87,2.94,10.88,2.95,-2.95,-2.39,-2.66,7.92,7.93,7.93
97.30,10.81,2.95,10.83,2.97,-2.97,-2.43,-2.72,7.84,7.86,7.86
98.28,10.76,2.99,10.77,2.99,-2.99,-2.48,-2.78,7.77,7.78,7.77
99.26,10.72,3.02,10.72,3.01,-3.01,-2.52,-2.84,7.71,7.71,7.70
100.25,10.67,3.05,10.67,3.03,-3.03,-2.56,-2.90,7.64,7.64,7.62
101.25,10.63,3.07,10.62,3.06,-3.06,-2.60,-2.96,7.57,7.56,7.56
102.27,10.57,3.08,10.57,3.07,-3.07,-2.64,-3.03,7.50,7.49,7.49
103.29,10.51,3.09,10.52,3.09,-3.09,-2.68,-3.09,7.42,7.42,7.42
104.32,10.46,3.11,10.46,3.11,-3.11,-2.73,-3.16,7.35,7.35,7.35
105.37,10.41,3.12,10.42,3.13,-3.13,-2.77,-3.22,7.28,7.29,7.29
106.42,10.37,3.15,10.37,3.15,-3.15,-2.81,-3.28,7.22,7.22,7.22
107.48,10.33,3.18,10.32,3.17,-3.17,-2.85,-3.35,7.16,7.15,7.15
108.56,10.28,3.20,10.27,3.19,-3.19,-2.90,-3.41,7.09,7.08,7.08
109.64,10.22,3.20,10.22,3.21,-3.21,-2.94,-3.47,7.01,7.01,7.02
110.74,10.16,3.22,10.17,3.23,-3.23,-2.98,-3.53,6.93,6.94,6.94
111.85,10.10,3.23,10.12,3.25,-3.25,-3.02,-3.58,6.85,6.86,6.87
112.97,10.06,3.26,10.07,3.28,-3.28,-3.06,-3.64,6.78,6.79,6.80
114.10,10.02,3.29,10.02,3.30,-3.30,-3.11,-3.69,6.72,6.72,6.73
115.24,9.98,3.34,9.97,3.32,-3.32,-3.15,-3.74,6.66,6.65,6.64
116.39,9.93,3.36,9.93,3.34,-3.34,-3.19,-3.78,6.59,6.58,6.57
117.55,9.87,3.37,9.88,3.37,-3.37,-3.23,-3.82,6.50,6.51,6.50
118.73,9.82,3.39,9.83,3.39,-3.39,-3.27,-3.86,6.43,6.44,6.43
119.92,9.78,3.42,9.78,3.41,-3.41,-3.31,-3.89,6.37,6.37,6.37
121.12,9.74,3.44,9.73,3.43,-3.43,-3.35,-3.92,6.31,6.30,6.30
122.33,9.70,3.47,9.69,3.45,-3.45,-3.39,-3.94,6.25,6.23,6.23
123.55,9.65,3.48,9.64,3.47,-3.47,-3.43,-3.96,6.18,6.17,6.17
124.79,9.59,3.48,9.59,3.49,-3.49,-3.46,-3.98,6.10,6.10,6.11
126.03,9.53,3.49,9.54,3.51,-3.51,-3.50,-3.98,6.02,6.03,6.04
127.29,9.48,3.51,9.49,3.53,-3.53,-3.54,-3.99,5.95,5.96,5.97
128.57,9.43,3.54,9.44,3.54,-3.54,-3.57,-3.99,5.89,5.90,5.89
129.85,9.39,3.56,9.39,3.56,-3.56,-3.60,-3.98,5.83,5.83,5.83
131.15,9.35,3.59,9.34,3.58,-3.58,-3.64,-3.97,5.77,5.76,5.76
132.46,9.29,3.60,9.29,3.59,-3.59,-3.67,-3.95,5.70,5.69,5.69
133.79,9.23,3.61,9.24,3.61,-3.61,-3.70,-3.93,5.62,5.63,5.62
135.12,9.18,3.62,9.19,3.63,-3.63,-3.73,-3.91,5.55,5.56,5.56
136.48,9.13,3.63,9.14,3.64,-3.64,-3.76,-3.89,5.49,5.49,5.50
137.84,9.09,3.66,9.09,3.66,-3.66,-3.79,-3.86,5.43,5.43,5.43
139.22,9.04,3.68,9.04,3.67,-3.67,-3.81,-3.82,5.37,5.37,5.36
140.61,8.99,3.68,8.99,3.68,-3.68,-3.84,-3.79,5.31,5.31,5.31
142.02,8.94,3.70,8.94,3.69,-3.69,-3.86,-3.75,5.25,5.25,5.24
143.44,8.89,3.70,8.89,3.70,-3.70,-3.88,-3.72,5.19,5.19,5.19
144.87,8.84,3.71,8.84,3.71,-3.71,-3.90,-3.68,5.13,5.13,5.13
146.32,8.79,3.72,8.79,3.71,-3.71,-3.92,-3.64,5.08,5.07,5.07
147.78,8.74,3.72,8.73,3.72,-3.72,-3.94,-3.60,5.02,5.02,5.02
149.26,8.69,3.73,8.68,3.72,-3.72,-3.95,-3.56,4.97,4.96,4.96
150.75,8.63,3.73,8.63,3.72,-3.72,-3.97,-3.52,4.91,4.91,4.90
152.26,8.57,3.71,8.57,3.72,-3.72,-3.98,-3.48,4.85,4.85,4.86
153.78,8.51,3.71,8.52,3.72,-3.72,-3.99,-3.44,4.79,4.80,4.80
155.32,8.46,3.71,8.46,3.72,-3.72,-4.00,-3.40,4.74,4.74,4.75
156.88,8.40,3.71,8.40,3.72,-3.72,-4.00,-3.36,4.69,4.69,4.69
158.44,8.34,3.71,8.35,3.71,-3.71,-4.01,-3.33,4.63,4.63,4.63
160.03,8.29,3.71,8.29,3.71,-3.71,-4.01,-3.29,4.58,4.58,4.58
161.63,8.24,3.72,8.23,3.71,-3.71,-4.01,-3.26,4.53,4.52,4.52
163.24,8.18,3.71,8.17,3.71,-3.71,-4.01,-3.23,4.47,4.47,4.47
164.88,8.12,3.71,8.12,3.71,-3.71,-4.01,-3.20,4.41,4.41,4.41
166.53,8.05,3.70,8.06,3.70,-3.70,-4.00,-3.18,4.35,4.35,4.35
168.19,7.99,3.69,8.00,3.70,-3.70,-3.99,-3.15,4.29,4.30,4.30
169.87,7.94,3.70,7.94,3.70,-3.70,-3.99,-3.13,4.24,4.24,4.24
171.57,7.89,3.71,7.88,3.70,-3.70,-3.97,-3.11,4.19,4.18,4.18
173.29,7.82,3.69,7.82,3.70,-3.70,-3.96,-3.09,4.12,4.12,4.13
175.02,7.76,3.69,7.76,3.69,-3.69,-3.95,-3.08,4.07,4.07,4.07
176.77,7.70,3.69,7.70,3.69,-3.69,-3.93,-3.07,4.01,4.01,4.01
178.54,7.64,3.68,7.64,3.69,-3.69,-3.91,-3.06,3.95,3.96,3.96
180.32,7.59,3.70,7.58,3.68,-3.68,-3.89,-3.05,3.91,3.90,3.89
182.13,7.53,3.68,7.52,3.67,-3.67,-3.87,-3.05,3.86,3.85,3.85
183.95,7.46,3.66,7.46,3.67,-3.67,-3.85,-3.04,3.79,3.79,3.80
185.79,7.39,3.66,7.40,3.66,-3.66,-3.82,-3.04,3.73,3.74,3.73
187.65,7.33,3.65,7.34,3.65,-3.65,-3.79,-3.05,3.68,3.68,3.68
189.52,7.28,3.64,7.28,3.64,-3.64,-3.76,-3.05,3.64,3.63,3.63
191.42,7.22,3.63,7.22,3.63,-3.63,-3.73,-3.06,3.59,3.58,3.59
193.33,7.16,3.62,7.16,3.62,-3.62,-3.70,-3.07,3.54,3.53,3.54
195.27,7.09,3.61,7.10,3.61,-3.61,-3.67,-3.08,3.48,3.49,3.48
197.22,7.03,3.60,7.04,3.59,-3.59,-3.64,-3.09,3.44,3.44,3.43
199.19,6.98,3.58,6.98,3.58,-3.58,-3.60,-3.10,3.40,3.40,3.40
201.18,6.92,3.58,6.92,3.56,-3.56,-3.56,-3.12,3.36,3.36,3.34
203.19,6.86,3.55,6.86,3.55,-3.55,-3.52,-3.13,3.31,3.31,3.31
205.23,6.80,3.52,6.80,3.53,-3.53,-3.48,-3.15,3.27,3.27,3.28
207.28,6.74,3.50,6.75,3.51,-3.51,-3.44,-3.17,3.23,3.24,3.24
209.35,6.68,3.48,6.69,3.49,-3.49,-3.40,-3.19,3.19,3.20,3.20
211.44,6.64,3.48,6.63,3.47,-3.47,-3.36,-3.20,3.17,3.16,3.16
213.56,6.59,3.45,6.57,3.45,-3.45,-3.32,-3.22,3.14,3.13,3.14
215.69,6.52,3.42,6.52,3.42,-3.42,-3.27,-3.24,3.10,3.10,3.10
217.85,6.46,3.39,6.46,3.40,-3.40,-3.23,-3.26,3.06,3.06,3.07
220.03,6.40,3.37,6.40,3.37,-3.37,-3.18,-3.27,3.03,3.03,3.03
222.23,6.34,3.34,6.34,3.34,-3.34,-3.14,-3.29,3.00,3.00,3.00
224.45,6.29,3.32,6.28,3.31,-3.31,-3.09,-3.30,2.98,2.98,2.97
226.70,6.23,3.29,6.22,3.28,-3.28,-3.04,-3.31,2.95,2.95,2.94
228.96,6.16,3.23,6.17,3.24,-3.24,-2.99,-3.32,2.92,2.92,2.93
231.25,6.10,3.20,6.11,3.21,-3.21,-2.95,-3.33,2.89,2.90,2.90
233.57,6.04,3.16,6.05,3.17,-3.17,-2.90,-3.33,2.87,2.88,2.88
235.90,5.99,3.13,5.98,3.12,-3.12,-2.85,-3.33,2.87,2.86,2.86
238.26,5.93,3.10,5.92,3.08,-3.08,-2.80,-3.32,2.85,2.84,2.83
240.64,5.86,3.03,5.86,3.03,-3.03,-2.75,-3.31,2.83,2.83,2.83
243.05,5.80,2.98,5.80,2.99,-2.99,-2.70,-3.30,2.81,2.81,2.82
245.48,5.73,2.93,5.74,2.94,-2.94,-2.65,-3.28,2.79,2.80,2.80
247.93,5.68,2.90,5.68,2.89,-2.89,-2.59,-3.26,2.79,2.79,2.78
250.41,5.63,2.84,5.62,2.83,-2.83,-2.54,-3.23,2.80,2.78,2.79
252.92,5.56,2.78,5.56,2.78,-2.78,-2.49,-3.20,2.78,2.78,2.78
255.45,5.49,2.72,5.50,2.73,-2.73,-2.44,-3.17,2.76,2.77,2.77
258.00,5.43,2.67,5.43,2.67,-2.67,-2.39,-3.13,2.76,2.76,2.76
260.58,5.37,2.61,5.37,2.62,-2.62,-2.34,-3.08,2.75,2.75,2.76
263.19,5.32,2.56,5.31,2.56,-2.56,-2.29,-3.03,2.76,2.75,2.76
265.82,5.25,2.51,5.24,2.50,-2.50,-2.23,-2.98,2.75,2.74,2.74
268.48,5.18,2.44,5.18,2.44,-2.44,-2.18,-2.92,2.74,2.74,2.74
271.16,5.11,2.37,5.11,2.38,-2.38,-2.13,-2.86,2.73,2.73,2.74
273.87,5.04,2.31,5.05,2.32,-2.32,-2.08,-2.79,2.72,2.73,2.73
276.61,4.99,2.26,4.99,2.26,-2.26,-2.03,-2.73,2.73,2.72,2.73
279.38,4.93,2.22,4.92,2.20,-2.20,-1.98,-2.66,2.73,2.72,2.71
282.17,4.86,2.15,4.86,2.14,-2.14,-1.93,-2.58,2.72,2.72,2.71
284.99,4.79,2.07,4.80,2.08,-2.08,-1.87,-2.51,2.71,2.72,2.72
287.84,4.73,2.01,4.74,2.02,-2.02,-1.82,-2.43,2.71,2.71,2.72
290.72,4.67,1.96,4.68,1.96,-1.96,-1.77,-2.35,2.71,2.72,2.71
293.63,4.62,1.90,4.61,1.90,-1.90,-1.72,-2.26,2.72,2.72,2.72
296.57,4.56,1.84,4.56,1.84,-1.84,-1.67,-2.18,2.72,2.72,2.72
299.53,4.50,1.78,4.50,1.78,-1.78,-1.62,-2.10,2.72,2.72,2.72
302.53,4.44,1.71,4.44,1.72,-1.72,-1.57,-2.01,2.72,2.73,2.73
305.55,4.38,1.65,4.39,1.66,-1.66,-1.52,-1.93,2.72,2.73,2.73
308.61,4.33,1.59,4.33,1.59,-1.59,-1.47,-1.84,2.74,2.74,2.74
311.69,4.28,1.54,4.27,1.53,-1.53,-1.42,-1.76,2.75,2.74,2.74
314.81,4.22,1.47,4.22,1.47,-1.47,-1.37,-1.67,2.75,2.75,2.75
317.96,4.17,1.42,4.17,1.42,-1.42,-1.32,-1.58,2.75,2.75,2.75
321.14,4.12,1.36,4.11,1.36,-1.36,-1.27,-1.50,2.76,2.76,2.76
324.35,4.06,1.30,4.06,1.30,-1.30,-1.22,-1.41,2.76,2.76,2.76
327.59,4.01,1.23,4.01,1.24,-1.24,-1.17,-1.32,2.77,2.77,2.78
330.87,3.95,1.17,3.96,1.18,-1.18,-1.12,-1.24,2.77,2.78,2.78
334.18,3.90,1.12,3.90,1.12,-1.12,-1.07,-1.15,2.78,2.78,2.78
337.52,3.85,1.06,3.85,1.06,-1.06,-1.02,-1.07,2.79,2.79,2.79
340.90,3.81,1.01,3.80,1.01,-1.01,-0.97,-0.99,2.80,2.80,2.80
344.30,3.76,0.95,3.75,0.95,-0.95,-0.92,-0.90,2.81,2.80,2.81
347.75,3.70,0.89,3.70,0.89,-0.89,-0.87,-0.82,2.81,2.81,2.81
351.23,3.64,0.83,3.65,0.84,-0.84,-0.82,-0.74,2.80,2.82,2.81
354.74,3.60,0.77,3.61,0.78,-0.78,-0.77,-0.65,2.82,2.82,2.83
358.28,3.56,0.73,3.56,0.73,-0.73,-0.72,-0.57,2.83,2.83,2.83
361.87,3.51,0.68,3.51,0.67,-0.67,-0.67,-0.49,2.84,2.84,2.83
365.49,3.46,0.62,3.46,0.62,-0.62,-0.62,-0.41,2.84,2.84,2.84
369.14,3.41,0.55,3.41,0.56,-0.56,-0.57,-0.33,2.85,2.85,2.86
372.83,3.36,0.50,3.36,0.50,-0.50,-0.52,-0.25,2.86,2.86,2.86
376.56,3.31,0.45,3.31,0.44,-0.44,-0.47,-0.17,2.87,2.87,2.86
380.33,3.26,0.39,3.25,0.38,-0.38,-0.42,-0.10,2.88,2.87,2.87
384.13,3.20,0.32,3.20,0.32,-0.32,-0.37,-0.02,2.88,2.88,2.88
387.97,3.15,0.26,3.15,0.26,-0.26,-0.32,0.06,2.89,2.89,2.89
391.85,3.09,0.19,3.09,0.19,-0.19,-0.27,0.13,2.90,2.90,2.90
395.77,3.04,0.14,3.03,0.12,-0.12,-0.22,0.21,2.92,2.91,2.90
399.73,2.98,0.07,2.98,0.06,-0.06,-0.17,0.29,2.92,2.92,2.91
403.72,2.92,-0.02,2.92,-0.01,0.01,-0.12,0.36,2.93,2.93,2.94
407.76,2.86,-0.08,2.86,-0.08,0.08,-0.07,0.43,2.94,2.94,2.94
411.84,2.80,-0.14,2.80,-0.15,0.15,-0.02,0.51,2.95,2.95,2.94
415.96,2.73,-0.23,2.74,-0.22,0.22,0.03,0.58,2.95,2.95,2.96
420.12,2.68,-0.28,2.68,-0.28,0.28,0.09,0.65,2.96,2.96,2.96
424.32,2.62,-0.35,2.62,-0.35,0.35,0.14,0.72,2.97,2.97,2.97
428.56,2.56,-0.43,2.57,-0.41,0.41,0.19,0.79,2.97,2.98,2.99
432.85,2.50,-0.49,2.51,-0.48,0.48,0.24,0.86,2.98,2.99,2.99
437.18,2.45,-0.54,2.45,-0.54,0.54,0.30,0.93,2.99,3.00,2.99
441.55,2.40,-0.60,2.40,-0.60,0.60,0.35,0.99,3.00,3.00,3.00
445.96,2.34,-0.67,2.35,-0.66,0.66,0.40,1.05,3.00,3.01,3.01
450.42,2.29,-0.73,2.30,-0.72,0.72,0.46,1.12,3.01,3.02,3.02
454.93,2.25,-0.78,2.25,-0.78,0.78,0.51,1.18,3.03,3.03,3.03
459.48,2.21,-0.82,2.20,-0.84,0.84,0.57,1.24,3.05,3.04,3.03
464.07,2.16,-0.89,2.15,-0.89,0.89,0.62,1.29,3.05,3.05,3.05
468.71,2.11,-0.95,2.10,-0.95,0.95,0.68,1.35,3.06,3.06,3.06
473.40,2.05,-1.02,2.06,-1.01,1.01,0.74,1.40,3.06,3.07,3.07
478.13,2.00,-1.08,2.01,-1.07,1.07,0.79,1.45,3.07,3.08,3.08
482.91,1.96,-1.13,1.96,-1.12,1.12,0.85,1.50,3.08,3.09,3.09
487.74,1.93,-1.17,1.92,-1.18,1.18,0.91,1.54,3.11,3.10,3.10
492.62,1.88,-1.22,1.87,-1.24,1.24,0.97,1.58,3.12,3.11,3.10
