frequency,raw,error,smoothed,error_smoothed,equalization,parametric_eq,fixed_band_eq,equalized_raw,equalized_smoothed,target
20.00,9.11,-3.59,9.00,-3.68,3.68,3.38,1.24,12.79,12.69,12.69
20.20,9.11,-3.57,9.05,-3.64,3.64,3.37,1.28,12.74,12.68,12.68
20.40,9.11,-3.57,9.09,-3.59,3.59,3.37,1.32,12.70,12.68,12.68
20.61,9.11,-3.57,9.13,-3.55,3.55,3.37,1.36,12.65,12.67,12.68
20.81,9.11,-3.55,9.17,-3.50,3.50,3.36,1.40,12.61,12.67,12.66
21.02,9.11,-3.55,9.20,-3.46,3.46,3.36,1.44,12.57,12.67,12.66
21.23,9.16,-3.50,9.24,-3.42,3.42,3.35,1.49,12.58,12.66,12.66
21.44,9.21,-3.46,9.27,-3.39,3.39,3.35,1.53,12.60,12.66,12.67
21.66,9.26,-3.40,9.30,-3.35,3.35,3.34,1.58,12.61,12.66,12.65
21.87,9.31,-3.36,9.34,-3.32,3.32,3.33,1.62,12.63,12.66,12.66
22.09,9.36,-3.30,9.37,-3.29,3.29,3.32,1.67,12.65,12.66,12.65
22.31,9.41,-3.25,9.40,-3.26,3.26,3.32,1.72,12.67,12.66,12.66
22.54,9.46,-3.20,9.43,-3.22,3.22,3.31,1.77,12.68,12.66,12.65
22.76,9.52,-3.14,9.47,-3.19,3.19,3.29,1.83,12.71,12.66,12.66
22.99,9.57,-3.09,9.49,-3.17,3.17,3.28,1.88,12.73,12.66,12.66
23.22,9.57,-3.09,9.52,-3.15,3.15,3.27,1.94,12.71,12.66,12.66
23.45,9.57,-3.10,9.54,-3.13,3.13,3.26,1.99,12.69,12.66,12.67
23.69,9.57,-3.10,9.55,-3.11,3.11,3.24,2.05,12.68,12.67,12.66
23.92,9.57,-3.10,9.57,-3.10,3.10,3.23,2.11,12.66,12.67,12.66
24.16,9.57,-3.11,9.59,-3.08,3.08,3.21,2.17,12.65,12.67,12.67
24.40,9.57,-3.11,9.60,-3.07,3.07,3.20,2.23,12.63,12.67,12.68
24.65,9.57,-3.11,9.62,-3.06,3.06,3.18,2.29,12.62,12.68,12.68
24.89,9.57,-3.11,9.63,-3.05,3.05,3.16,2.35,12.61,12.68,12.68
25.14,9.60,-3.08,9.64,-3.03,3.03,3.15,2.41,12.63,12.68,12.68
25.39,9.66,-3.03,9.66,-3.02,3.02,3.13,2.47,12.67,12.68,12.68
25.65,9.72,-2.97,9.69,-2.99,2.99,3.11,2.53,12.71,12.68,12.68
25.91,9.78,-2.89,9.72,-2.96,2.96,3.09,2.59,12.73,12.68,12.67
26.16,9.80,-2.88,9.75,-2.92,2.92,3.07,2.65,12.72,12.67,12.68
26.43,9.80,-2.88,9.79,-2.89,2.89,3.05,2.71,12.68,12.67,12.68
26.69,9.80,-2.88,9.82,-2.85,2.85,3.02,2.77,12.65,12.67,12.67
26.96,9.80,-2.86,9.85,-2.81,2.81,3.00,2.83,12.61,12.67,12.66
27.23,9.85,-2.81,9.89,-2.78,2.78,2.98,2.88,12.62,12.66,12.66
27.50,9.91,-2.75,9.92,-2.75,2.75,2.95,2.93,12.65,12.66,12.66
27.77,9.96,-2.71,9.94,-2.72,2.72,2.93,2.99,12.67,12.66,12.66
28.05,10.01,-2.64,9.96,-2.70,2.70,2.90,3.03,12.70,12.65,12.65
28.33,10.01,-2.64,9.97,-2.68,2.68,2.88,3.08,12.69,12.65,12.65
28.62,10.02,-2.62,9.97,-2.67,2.67,2.85,3.12,12.68,12.64,12.64
28.90,10.02,-2.63,9.98,-2.65,2.65,2.83,3.15,12.67,12.63,12.64
29.19,10.02,-2.61,10.00,-2.63,2.63,2.80,3.19,12.64,12.63,12.63
29.48,10.02,-2.60,10.02,-2.60,2.60,2.77,3.22,12.62,12.62,12.62
29.78,10.02,-2.60,10.03,-2.57,2.57,2.74,3.24,12.59,12.61,12.61
30.08,10.02,-2.59,10.05,-2.55,2.55,2.71,3.26,12.57,12.60,12.61
30.38,10.02,-2.57,10.07,-2.52,2.52,2.68,3.27,12.54,12.59,12.59
30.68,10.02,-2.57,10.08,-2.50,2.50,2.65,3.28,12.51,12.58,12.58
30.99,10.02,-2.55,10.10,-2.47,2.47,2.62,3.28,12.49,12.57,12.57
31.30,10.09,-2.47,10.12,-2.44,2.44,2.59,3.27,12.53,12.56,12.55
31.61,10.16,-2.39,10.14,-2.41,2.41,2.56,3.27,12.56,12.55,12.55
31.93,10.23,-2.30,10.16,-2.38,2.38,2.53,3.25,12.60,12.54,12.53
32.24,10.25,-2.28,10.18,-2.35,2.35,2.49,3.23,12.60,12.53,12.53
32.57,10.25,-2.27,10.20,-2.33,2.33,2.46,3.20,12.57,12.52,12.52
32.89,10.25,-2.26,10.21,-2.31,2.31,2.43,3.17,12.55,12.52,12.51
33.22,10.25,-2.26,10.22,-2.29,2.29,2.39,3.14,12.54,12.51,12.51
33.55,10.25,-2.25,10.24,-2.27,2.27,2.36,3.09,12.52,12.51,12.50
33.89,10.25,-2.26,10.25,-2.25,2.25,2.33,3.05,12.49,12.50,12.51
34.23,10.25,-2.24,10.27,-2.23,2.23,2.29,3.00,12.47,12.50,12.49
34.57,10.25,-2.25,10.28,-2.21,2.21,2.25,2.95,12.46,12.49,12.49
34.92,10.25,-2.24,10.28,-2.21,2.21,2.22,2.89,12.45,12.48,12.49
35.27,10.25,-2.24,10.28,-2.20,2.20,2.18,2.83,12.44,12.48,12.49
35.62,10.25,-2.22,10.29,-2.18,2.18,2.15,2.77,12.43,12.47,12.46
35.97,10.25,-2.21,10.30,-2.15,2.15,2.11,2.70,12.40,12.45,12.46
36.33,10.33,-2.12,10.32,-2.12,2.12,2.07,2.64,12.45,12.44,12.45
36.70,10.41,-2.02,10.33,-2.09,2.09,2.03,2.57,12.50,12.42,12.42
37.06,10.47,-1.94,10.35,-2.05,2.05,1.99,2.50,12.52,12.40,12.40
37.43,10.40,-1.99,10.37,-2.01,2.01,1.96,2.43,12.41,12.38,12.39
37.81,10.33,-2.03,10.39,-1.97,1.97,1.92,2.35,12.29,12.36,12.36
38.19,10.33,-2.01,10.41,-1.92,1.92,1.88,2.28,12.25,12.33,12.34
38.57,10.40,-1.91,10.42,-1.88,1.88,1.84,2.21,12.27,12.30,12.31
38.95,10.47,-1.81,10.44,-1.83,1.83,1.80,2.14,12.30,12.27,12.28
39.34,10.48,-1.75,10.45,-1.79,1.79,1.76,2.06,12.27,12.24,12.23
39.74,10.48,-1.73,10.46,-1.75,1.75,1.72,1.99,12.23,12.21,12.20
40.14,10.48,-1.69,10.46,-1.71,1.71,1.68,1.92,12.19,12.18,12.17
40.54,10.48,-1.66,10.46,-1.68,1.68,1.64,1.85,12.16,12.14,12.14
40.94,10.48,-1.62,10.47,-1.65,1.65,1.60,1.78,12.12,12.11,12.10
41.35,10.48,-1.60,10.47,-1.61,1.61,1.55,1.71,12.08,12.08,12.08
41.76,10.48,-1.57,10.48,-1.57,1.57,1.51,1.64,12.04,12.05,12.04
42.18,10.48,-1.55,10.49,-1.53,1.53,1.47,1.57,12.01,12.02,12.02
42.60,10.48,-1.51,10.49,-1.50,1.50,1.43,1.50,11.98,11.99,11.99
43.03,10.48,-1.48,10.48,-1.48,1.48,1.39,1.44,11.95,11.96,11.96
43.46,10.48,-1.45,10.48,-1.45,1.45,1.34,1.37,11.93,11.93,11.92
43.90,10.48,-1.42,10.48,-1.42,1.42,1.30,1.30,11.90,11.90,11.90
44.33,10.48,-1.39,10.48,-1.39,1.39,1.26,1.24,11.86,11.86,11.86
44.78,10.48,-1.35,10.48,-1.35,1.35,1.22,1.18,11.83,11.83,11.83
45.23,10.48,-1.33,10.47,-1.33,1.33,1.17,1.12,11.80,11.80,11.81
45.68,10.48,-1.29,10.46,-1.30,1.30,1.13,1.06,11.77,11.76,11.76
46.13,10.48,-1.24,10.46,-1.26,1.26,1.08,1.00,11.74,11.72,11.72
46.60,10.48,-1.20,10.47,-1.21,1.21,1.04,0.94,11.69,11.68,11.68
47.06,10.48,-1.17,10.47,-1.17,1.17,1.00,0.88,11.64,11.64,11.65
47.53,10.48,-1.13,10.48,-1.12,1.12,0.95,0.82,11.60,11.60,11.61
48.01,10.48,-1.07,10.49,-1.07,1.07,0.91,0.77,11.54,11.55,11.55
48.49,10.48,-1.03,10.50,-1.01,1.01,0.86,0.71,11.49,11.51,11.51
48.97,10.48,-0.98,10.52,-0.94,0.94,0.82,0.66,11.42,11.46,11.46
49.46,10.48,-0.94,10.55,-0.87,0.87,0.77,0.61,11.35,11.42,11.42
49.96,10.48,-0.88,10.57,-0.80,0.80,0.73,0.55,11.28,11.37,11.35
50.46,10.59,-0.72,10.59,-0.73,0.73,0.68,0.50,11.32,11.32,11.31
50.96,10.70,-0.58,10.60,-0.67,0.67,0.63,0.45,11.37,11.27,11.28
51.47,10.66,-0.57,10.61,-0.61,0.61,0.59,0.40,11.27,11.22,11.23
51.99,10.61,-0.57,10.62,-0.55,0.55,0.54,0.35,11.16,11.17,11.17
52.51,10.66,-0.47,10.62,-0.50,0.50,0.49,0.30,11.16,11.12,11.13
53.03,10.71,-0.38,10.62,-0.45,0.45,0.45,0.26,11.16,11.07,11.09
53.56,10.71,-0.32,10.60,-0.41,0.41,0.40,0.21,11.12,11.02,11.02
54.10,10.69,-0.28,10.59,-0.38,0.38,0.35,0.16,11.07,10.97,10.96
54.64,10.56,-0.35,10.57,-0.34,0.34,0.31,0.11,10.90,10.92,10.91
55.18,10.48,-0.37,10.56,-0.30,0.30,0.26,0.07,10.78,10.86,10.85
55.74,10.48,-0.32,10.56,-0.26,0.26,0.21,0.02,10.73,10.82,10.80
56.29,10.48,-0.27,10.55,-0.21,0.21,0.16,-0.02,10.69,10.76,10.74
56.86,10.48,-0.23,10.54,-0.17,0.17,0.12,-0.07,10.65,10.71,10.71
57.42,10.48,-0.17,10.54,-0.12,0.12,0.07,-0.11,10.59,10.66,10.64
58.00,10.48,-0.12,10.54,-0.07,0.07,0.02,-0.16,10.54,10.60,10.60
58.58,10.48,-0.08,10.53,-0.02,0.02,-0.03,-0.20,10.49,10.55,10.56
59.16,10.52,-0.00,10.53,0.04,-0.04,-0.08,-0.24,10.48,10.49,10.52
59.76,10.65,0.18,10.53,0.10,-0.10,-0.13,-0.28,10.55,10.44,10.46
60.35,10.70,0.31,10.54,0.16,-0.16,-0.18,-0.33,10.54,10.38,10.39
60.96,10.71,0.38,10.55,0.23,-0.23,-0.23,-0.37,10.48,10.32,10.33
61.57,10.58,0.32,10.55,0.29,-0.29,-0.28,-0.41,10.29,10.26,10.25
62.18,10.48,0.30,10.54,0.35,-0.35,-0.33,-0.45,10.13,10.19,10.18
62.80,10.48,0.36,10.54,0.41,-0.41,-0.38,-0.50,10.07,10.13,10.11
63.43,10.48,0.43,10.53,0.47,-0.47,-0.43,-0.54,10.01,10.06,10.05
64.07,10.48,0.49,10.52,0.52,-0.52,-0.48,-0.58,9.95,9.99,9.99
64.71,10.48,0.55,10.51,0.58,-0.58,-0.53,-0.62,9.90,9.93,9.93
65.35,10.48,0.62,10.49,0.64,-0.64,-0.58,-0.66,9.84,9.86,9.86
66.01,10.48,0.69,10.48,0.69,-0.69,-0.63,-0.70,9.79,9.79,9.79
66.67,10.48,0.75,10.46,0.74,-0.74,-0.68,-0.75,9.73,9.72,9.72
67.33,10.48,0.83,10.46,0.81,-0.81,-0.73,-0.79,9.67,9.65,9.65
68.01,10.48,0.89,10.46,0.88,-0.88,-0.79,-0.83,9.59,9.58,9.58
68.69,10.48,0.97,10.47,0.96,-0.96,-0.84,-0.87,9.51,9.51,9.51
69.37,10.48,1.03,10.48,1.04,-1.04,-0.89,-0.92,9.43,9.43,9.45
70.07,10.48,1.11,10.48,1.12,-1.12,-0.94,-0.96,9.36,9.36,9.37
70.77,10.48,1.18,10.48,1.19,-1.19,-0.99,-1.01,9.29,9.29,9.30
71.48,10.48,1.26,10.48,1.26,-1.26,-1.05,-1.05,9.21,9.21,9.21
72.19,10.48,1.34,10.48,1.34,-1.34,-1.10,-1.10,9.13,9.14,9.14
72.91,10.48,1.41,10.49,1.42,-1.42,-1.15,-1.14,9.06,9.07,9.06
73.64,10.48,1.50,10.49,1.50,-1.50,-1.21,-1.19,8.98,9.00,8.98
74.38,10.48,1.57,10.49,1.57,-1.57,-1.26,-1.24,8.91,8.93,8.91
75.12,10.48,1.63,10.49,1.63,-1.63,-1.32,-1.29,8.85,8.86,8.84
75.87,10.48,1.68,10.48,1.69,-1.69,-1.37,-1.34,8.79,8.79,8.79
76.63,10.48,1.76,10.47,1.74,-1.74,-1.43,-1.39,8.74,8.73,8.72
77.40,10.48,1.82,10.45,1.79,-1.79,-1.48,-1.44,8.69,8.66,8.66
78.17,10.48,1.88,10.43,1.84,-1.84,-1.54,-1.50,8.64,8.60,8.59
78.95,10.48,1.94,10.41,1.88,-1.88,-1.59,-1.55,8.60,8.54,8.54
79.74,10.48,2.00,10.39,1.92,-1.92,-1.65,-1.61,8.56,8.47,8.47
80.54,10.40,1.98,10.37,1.96,-1.96,-1.70,-1.66,8.44,8.41,8.41
81.35,10.30,1.95,10.35,2.00,-2.00,-1.76,-1.72,8.30,8.35,8.35
82.16,10.25,1.95,10.33,2.04,-2.04,-1.82,-1.78,8.20,8.28,8.30
82.98,10.25,2.02,10.30,2.09,-2.09,-1.87,-1.85,8.16,8.21,8.23
83.81,10.25,2.09,10.29,2.14,-2.14,-1.93,-1.91,8.10,8.15,8.15
84.65,10.25,2.17,10.28,2.21,-2.21,-1.99,-1.97,8.04,8.07,8.08
85.50,10.25,2.25,10.27,2.27,-2.27,-2.04,-2.04,7.98,8.00,8.00
86.35,10.25,2.31,10.26,2.33,-2.33,-2.10,-2.11,7.92,7.93,7.93
87.22,10.25,2.39,10.24,2.39,-2.39,-2.16,-2.18,7.86,7.86,7.86
88.09,10.25,2.47,10.23,2.45,-2.45,-2.22,-2.25,7.80,7.78,7.78
88.97,10.25,2.54,10.22,2.51,-2.51,-2.27,-2.33,7.73,7.71,7.70
89.86,10.25,2.62,10.21,2.58,-2.58,-2.33,-2.40,7.66,7.63,7.62
90.76,10.25,2.70,10.20,2.65,-2.65,-2.39,-2.48,7.60,7.55,7.54
91.66,10.25,2.78,10.18,2.71,-2.71,-2.45,-2.56,7.53,7.47,7.46
92.58,10.25,2.85,10.16,2.77,-2.77,-2.51,-2.64,7.47,7.39,7.39
93.51,10.15,2.84,10.14,2.83,-2.83,-2.57,-2.72,7.31,7.30,7.31
94.44,10.04,2.80,10.12,2.90,-2.90,-2.63,-2.80,7.14,7.22,7.24
95.39,10.02,2.87,10.11,2.97,-2.97,-2.69,-2.89,7.05,7.14,7.15
96.34,10.02,2.96,10.09,3.03,-3.03,-2.75,-2.98,6.99,7.06,7.05
97.30,10.02,3.04,10.06,3.09,-3.09,-2.81,-3.07,6.93,6.98,6.98
98.28,10.02,3.13,10.04,3.14,-3.14,-2.87,-3.16,6.87,6.90,6.89
99.26,10.02,3.21,10.01,3.20,-3.20,-2.93,-3.25,6.82,6.82,6.80
100.25,10.02,3.29,9.99,3.25,-3.25,-2.99,-3.34,6.77,6.74,6.73
101.25,10.02,3.36,9.96,3.30,-3.30,-3.05,-3.43,6.71,6.66,6.65
102.27,10.02,3.44,9.94,3.36,-3.36,-3.11,-3.52,6.66,6.58,6.58
103.29,10.02,3.51,9.94,3.43,-3.43,-3.17,-3.62,6.59,6.51,6.50
104.32,9.97,3.53,9.93,3.49,-3.49,-3.23,-3.71,6.47,6.43,6.44
105.37,9.85,3.49,9.91,3.55,-3.55,-3.29,-3.80,6.30,6.36,6.36
106.42,9.80,3.50,9.89,3.59,-3.59,-3.35,-3.90,6.20,6.29,6.30
107.48,9.80,3.59,9.86,3.63,-3.63,-3.41,-3.99,6.16,6.22,6.21
108.56,9.80,3.64,9.83,3.67,-3.67,-3.47,-4.08,6.12,6.15,6.16
109.64,9.80,3.72,9.79,3.71,-3.71,-3.53,-4.17,6.08,6.08,6.08
110.74,9.80,3.78,9.76,3.75,-3.75,-3.59,-4.25,6.05,6.01,6.02
111.85,9.80,3.86,9.73,3.79,-3.79,-3.66,-4.34,6.01,5.94,5.94
112.97,9.80,3.92,9.71,3.84,-3.84,-3.72,-4.42,5.95,5.86,5.88
114.10,9.75,3.94,9.69,3.90,-3.90,-3.78,-4.50,5.85,5.79,5.80
115.24,9.57,3.85,9.67,3.95,-3.95,-3.84,-4.57,5.62,5.72,5.72
116.39,9.57,3.93,9.65,4.01,-4.01,-3.90,-4.64,5.56,5.64,5.64
117.55,9.57,4.00,9.63,4.06,-4.06,-3.96,-4.71,5.50,5.56,5.56
118.73,9.57,4.09,9.60,4.11,-4.11,-4.02,-4.77,5.45,5.49,5.48
119.92,9.57,4.17,9.57,4.16,-4.16,-4.08,-4.82,5.41,5.41,5.40
121.12,9.57,4.23,9.54,4.21,-4.21,-4.14,-4.87,5.36,5.33,5.34
122.33,9.57,4.32,9.52,4.26,-4.26,-4.19,-4.91,5.30,5.25,5.25
123.55,9.57,4.39,9.49,4.32,-4.32,-4.25,-4.95,5.24,5.17,5.18
124.79,9.57,4.47,9.47,4.38,-4.38,-4.31,-4.98,5.19,5.09,5.10
126.03,9.41,4.38,9.45,4.43,-4.43,-4.37,-5.01,4.97,5.01,5.02
127.29,9.36,4.42,9.42,4.49,-4.49,-4.43,-5.03,4.87,4.93,4.93
128.57,9.34,4.48,9.40,4.55,-4.55,-4.48,-5.04,4.79,4.86,4.86
129.85,9.34,4.56,9.38,4.60,-4.60,-4.54,-5.05,4.74,4.78,4.77
131.15,9.34,4.64,9.35,4.65,-4.65,-4.59,-5.06,4.69,4.70,4.70
132.46,9.34,4.72,9.31,4.69,-4.69,-4.65,-5.05,4.65,4.62,4.62
133.79,9.34,4.79,9.27,4.73,-4.73,-4.70,-5.05,4.61,4.55,4.54
135.12,9.33,4.86,9.23,4.76,-4.76,-4.76,-5.04,4.57,4.47,4.46
136.48,9.17,4.76,9.19,4.79,-4.79,-4.81,-5.02,4.37,4.40,4.40
137.84,9.11,4.77,9.16,4.83,-4.83,-4.86,-5.00,4.28,4.33,4.33
139.22,9.11,4.85,9.12,4.86,-4.86,-4.91,-4.98,4.24,4.26,4.26
140.61,9.11,4.92,9.10,4.91,-4.91,-4.96,-4.96,4.20,4.19,4.19
142.02,9.11,4.98,9.07,4.94,-4.94,-5.01,-4.93,4.16,4.13,4.12
143.44,9.10,5.04,9.03,4.97,-4.97,-5.06,-4.90,4.13,4.06,4.06
144.87,8.93,4.92,8.99,4.99,-4.99,-5.11,-4.87,3.93,4.00,4.01
146.32,8.89,4.94,8.95,5.02,-5.02,-5.16,-4.85,3.87,3.94,3.94
147.78,8.88,5.00,8.92,5.04,-5.04,-5.20,-4.82,3.84,3.88,3.87
149.26,8.88,5.06,8.88,5.07,-5.07,-5.25,-4.79,3.81,3.82,3.81
150.75,8.88,5.13,8.86,5.10,-5.10,-5.29,-4.76,3.77,3.75,3.75
152.26,8.88,5.18,8.84,5.15,-5.15,-5.33,-4.73,3.73,3.69,3.70
153.78,8.88,5.24,8.81,5.18,-5.18,-5.37,-4.71,3.70,3.63,3.63
155.32,8.83,5.25,8.78,5.20,-5.20,-5.41,-4.68,3.62,3.57,3.58
156.88,8.68,5.16,8.74,5.23,-5.23,-5.45,-4.66,3.45,3.51,3.52
158.44,8.66,5.20,8.72,5.26,-5.26,-5.48,-4.64,3.39,3.46,3.46
160.03,8.66,5.26,8.69,5.30,-5.30,-5.52,-4.62,3.36,3.40,3.40
161.63,8.66,5.32,8.67,5.33,-5.33,-5.55,-4.61,3.32,3.34,3.34
163.24,8.66,5.39,8.63,5.35,-5.35,-5.58,-4.59,3.30,3.28,3.27
164.88,8.66,5.44,8.59,5.38,-5.38,-5.61,-4.58,3.28,3.22,3.21
166.53,8.62,5.47,8.56,5.40,-5.40,-5.64,-4.58,3.22,3.16,3.15
168.19,8.50,5.39,8.52,5.42,-5.42,-5.66,-4.58,3.08,3.10,3.11
169.87,8.43,5.38,8.47,5.44,-5.44,-5.69,-4.58,2.99,3.04,3.04
171.57,8.43,5.44,8.43,5.45,-5.45,-5.71,-4.58,2.97,2.98,2.98
173.29,8.43,5.50,8.39,5.48,-5.48,-5.73,-4.59,2.95,2.92,2.92
175.02,8.43,5.56,8.35,5.50,-5.50,-5.75,-4.60,2.93,2.86,2.86
176.77,8.24,5.44,8.30,5.51,-5.51,-5.76,-4.61,2.73,2.80,2.80
178.54,8.20,5.46,8.24,5.51,-5.51,-5.78,-4.63,2.69,2.74,2.74
180.32,8.20,5.52,8.19,5.51,-5.51,-5.79,-4.65,2.69,2.68,2.68
182.13,8.20,5.58,8.13,5.51,-5.51,-5.80,-4.68,2.68,2.62,2.61
183.95,8.11,5.55,8.08,5.52,-5.52,-5.81,-4.71,2.58,2.56,2.56
185.79,7.98,5.49,8.04,5.54,-5.54,-5.82,-4.74,2.44,2.50,2.49
187.65,7.97,5.53,7.99,5.55,-5.55,-5.82,-4.78,2.41,2.44,2.44
189.52,7.97,5.59,7.94,5.56,-5.56,-5.82,-4.82,2.41,2.38,2.38
191.42,7.92,5.59,7.89,5.57,-5.57,-5.82,-4.86,2.35,2.33,2.33
193.33,7.79,5.51,7.85,5.58,-5.58,-5.82,-4.90,2.21,2.27,2.27
195.27,7.74,5.52,7.81,5.59,-5.59,-5.82,-4.95,2.15,2.22,2.22
197.22,7.74,5.57,7.76,5.59,-5.59,-5.81,-5.00,2.14,2.17,2.16
199.19,7.74,5.62,7.71,5.59,-5.59,-5.80,-5.06,2.15,2.12,2.12
201.18,7.74,5.67,7.67,5.59,-5.59,-5.79,-5.11,2.15,2.08,2.07
203.19,7.70,5.67,7.63,5.60,-5.60,-5.78,-5.17,2.10,2.03,2.02
205.23,7.58,5.58,7.59,5.60,-5.60,-5.77,-5.23,1.98,1.99,1.99
207.28,7.52,5.56,7.55,5.61,-5.61,-5.75,-5.29,1.91,1.95,1.95
209.35,7.52,5.61,7.51,5.61,-5.61,-5.73,-5.35,1.91,1.90,1.91
211.44,7.52,5.65,7.46,5.60,-5.60,-5.71,-5.41,1.92,1.86,1.87
213.56,7.36,5.53,7.41,5.59,-5.59,-5.69,-5.47,1.77,1.83,1.83
215.69,7.29,5.49,7.36,5.57,-5.57,-5.67,-5.53,1.72,1.79,1.79
217.85,7.29,5.53,7.31,5.56,-5.56,-5.64,-5.59,1.73,1.75,1.76
220.03,7.29,5.57,7.25,5.54,-5.54,-5.61,-5.65,1.75,1.71,1.71
222.23,7.29,5.62,7.19,5.51,-5.51,-5.59,-5.70,1.77,1.68,1.67
224.45,7.18,5.54,7.13,5.49,-5.49,-5.55,-5.75,1.69,1.64,1.64
226.70,7.07,5.46,7.07,5.46,-5.46,-5.52,-5.80,1.60,1.61,1.61
228.96,7.06,5.48,7.01,5.44,-5.44,-5.49,-5.85,1.62,1.57,1.57
231.25,6.89,5.34,6.95,5.41,-5.41,-5.45,-5.89,1.48,1.54,1.54
233.57,6.83,5.31,6.90,5.39,-5.39,-5.41,-5.92,1.44,1.51,1.51
235.90,6.83,5.34,6.85,5.37,-5.37,-5.37,-5.95,1.46,1.48,1.48
238.26,6.83,5.38,6.81,5.36,-5.36,-5.33,-5.97,1.47,1.46,1.44
240.64,6.83,5.39,6.77,5.34,-5.34,-5.29,-5.98,1.49,1.43,1.44
243.05,6.67,5.26,6.72,5.32,-5.32,-5.25,-5.99,1.35,1.41,1.41
245.48,6.60,5.21,6.68,5.30,-5.30,-5.20,-5.99,1.30,1.38,1.38
247.93,6.60,5.24,6.65,5.29,-5.29,-5.16,-5.98,1.31,1.36,1.36
250.41,6.60,5.25,6.62,5.28,-5.28,-5.11,-5.96,1.32,1.34,1.35
252.92,6.60,5.27,6.58,5.25,-5.25,-5.06,-5.94,1.34,1.32,1.32
255.45,6.60,5.30,6.53,5.22,-5.22,-5.01,-5.90,1.37,1.31,1.30
258.00,6.60,5.31,6.48,5.19,-5.19,-4.96,-5.86,1.41,1.29,1.29
260.58,6.46,5.18,6.42,5.15,-5.15,-4.91,-5.81,1.31,1.27,1.27
263.19,6.39,5.13,6.37,5.11,-5.11,-4.86,-5.75,1.28,1.26,1.26
265.82,6.38,5.13,6.31,5.07,-5.07,-4.80,-5.69,1.31,1.25,1.25
268.48,6.32,5.08,6.26,5.03,-5.03,-4.75,-5.62,1.29,1.23,1.23
271.16,6.19,4.95,6.21,4.99,-4.99,-4.69,-5.54,1.20,1.22,1.23
273.87,6.07,4.85,6.15,4.93,-4.93,-4.64,-5.46,1.13,1.22,1.22
276.61,5.94,4.73,6.08,4.87,-4.87,-4.58,-5.37,1.06,1.21,1.21
279.38,5.92,4.73,6.01,4.81,-4.81,-4.52,-5.28,1.10,1.20,1.19
282.17,5.92,4.73,5.95,4.76,-4.76,-4.47,-5.19,1.16,1.20,1.19
284.99,5.92,4.73,5.89,4.70,-4.70,-4.41,-5.09,1.22,1.19,1.19
287.84,5.92,4.73,5.82,4.64,-4.64,-4.35,-4.98,1.28,1.19,1.19
290.72,5.85,4.67,5.76,4.57,-4.57,-4.29,-4.88,1.27,1.19,1.18
293.63,5.71,4.52,5.69,4.50,-4.50,-4.23,-4.78,1.20,1.18,1.18
296.57,5.69,4.50,5.62,4.44,-4.44,-4.17,-4.67,1.25,1.18,1.18
299.53,5.52,4.34,5.55,4.38,-4.38,-4.10,-4.56,1.14,1.18,1.18
302.53,5.46,4.27,5.49,4.31,-4.31,-4.04,-4.45,1.15,1.18,1.19
305.55,5.46,4.28,5.41,4.24,-4.24,-3.98,-4.35,1.22,1.18,1.18
308.61,5.41,4.22,5.35,4.17,-4.17,-3.92,-4.24,1.24,1.18,1.18
311.69,5.26,4.08,5.27,4.09,-4.09,-3.86,-4.13,1.17,1.18,1.18
314.81,5.10,3.92,5.18,4.00,-4.00,-3.79,-4.03,1.10,1.18,1.18
317.96,5.02,3.84,5.10,3.92,-3.92,-3.73,-3.92,1.10,1.18,1.17
321.14,5.01,3.83,5.03,3.86,-3.86,-3.67,-3.82,1.15,1.18,1.18
324.35,5.01,3.84,4.98,3.80,-3.80,-3.60,-3.72,1.21,1.18,1.17
327.59,4.98,3.78,4.93,3.75,-3.75,-3.54,-3.62,1.23,1.18,1.19
330.87,4.83,3.64,4.87,3.69,-3.69,-3.48,-3.53,1.14,1.19,1.19
334.18,4.78,3.59,4.82,3.63,-3.63,-3.41,-3.43,1.15,1.19,1.18
337.52,4.78,3.59,4.77,3.57,-3.57,-3.35,-3.34,1.20,1.20,1.19
340.90,4.78,3.57,4.72,3.52,-3.52,-3.28,-3.25,1.26,1.20,1.20
344.30,4.60,3.39,4.68,3.47,-3.47,-3.22,-3.16,1.13,1.21,1.21
347.75,4.61,3.39,4.63,3.42,-3.42,-3.15,-3.07,1.18,1.21,1.21
351.23,4.74,3.53,4.59,3.37,-3.37,-3.09,-2.99,1.37,1.22,1.21
354.74,4.68,3.44,4.54,3.32,-3.32,-3.03,-2.91,1.36,1.23,1.24
358.28,4.46,3.22,4.49,3.26,-3.26,-2.96,-2.83,1.20,1.23,1.23
361.87,4.35,3.11,4.43,3.19,-3.19,-2.90,-2.75,1.16,1.24,1.24
365.49,4.33,3.08,4.37,3.13,-3.13,-2.83,-2.68,1.20,1.24,1.24
369.14,4.33,3.08,4.32,3.08,-3.08,-2.77,-2.61,1.25,1.25,1.25
372.83,4.33,3.07,4.28,3.03,-3.03,-2.71,-2.54,1.30,1.25,1.26
376.56,4.27,3.01,4.23,2.97,-2.97,-2.64,-2.47,1.29,1.25,1.25
380.33,4.13,2.87,4.18,2.93,-2.93,-2.58,-2.40,1.20,1.26,1.26
384.13,4.10,2.83,4.15,2.89,-2.89,-2.51,-2.34,1.20,1.26,1.27
387.97,4.10,2.83,4.11,2.85,-2.85,-2.45,-2.28,1.25,1.26,1.26
391.85,4.09,2.82,4.07,2.81,-2.81,-2.39,-2.22,1.28,1.27,1.27
395.77,3.93,2.67,4.05,2.78,-2.78,-2.32,-2.16,1.14,1.27,1.26
399.73,3.93,2.66,4.03,2.75,-2.75,-2.26,-2.10,1.17,1.28,1.27
403.72,4.06,2.77,3.99,2.71,-2.71,-2.20,-2.05,1.35,1.28,1.28
407.76,4.10,2.82,3.94,2.66,-2.66,-2.13,-2.00,1.44,1.29,1.28
411.84,3.96,2.66,3.90,2.60,-2.60,-2.07,-1.94,1.36,1.29,1.30
415.96,3.88,2.57,3.85,2.55,-2.55,-2.01,-1.89,1.32,1.30,1.31
420.12,3.87,2.56,3.81,2.50,-2.50,-1.95,-1.84,1.36,1.31,1.30
424.32,3.85,2.52,3.77,2.44,-2.44,-1.88,-1.79,1.40,1.32,1.32
428.56,3.70,2.36,3.71,2.38,-2.38,-1.82,-1.75,1.32,1.33,1.34
432.85,3.64,2.29,3.66,2.31,-2.31,-1.76,-1.70,1.32,1.34,1.35
437.18,3.54,2.18,3.60,2.25,-2.25,-1.70,-1.65,1.29,1.36,1.36
441.55,3.44,2.07,3.55,2.18,-2.18,-1.64,-1.60,1.25,1.37,1.36
445.96,3.41,2.02,3.49,2.11,-2.11,-1.57,-1.56,1.30,1.38,1.38
450.42,3.41,2.02,3.43,2.03,-2.03,-1.51,-1.51,1.37,1.39,1.39
454.93,3.41,2.00,3.37,1.97,-1.97,-1.45,-1.47,1.44,1.41,1.41
459.48,3.37,1.95,3.32,1.90,-1.90,-1.39,-1.42,1.47,1.42,1.42
464.07,3.22,1.78,3.25,1.82,-1.82,-1.33,-1.38,1.40,1.43,1.44
468.71,3.19,1.73,3.18,1.74,-1.74,-1.27,-1.33,1.45,1.45,1.45
473.40,3.19,1.72,3.12,1.66,-1.66,-1.21,-1.28,1.52,1.46,1.46
478.13,3.19,1.70,3.06,1.59,-1.59,-1.15,-1.24,1.60,1.48,1.48
482.91,3.01,1.52,2.99,1.50,-1.50,-1.09,-1.19,1.51,1.49,1.49
487.74,2.96,1.45,2.93,1.41,-1.41,-1.03,-1.14,1.54,1.51,1.51
492.62,2.88,1.35,2.85,1.32,-1.32,-0.97,-1.09,1.55,1.53,1.53
497.55,2.76,1.22,2.77,1.23,-1.23,-0.91,-1.04,1.53,1.55,1.54
502.52,2.60,1.04,2.70,1.13,-1.13,-0.85,-0.99,1.46,1.56,1.56
