frequency,raw,error,smoothed,error_smoothed,equalization,parametric_eq,fixed_band_eq,equalized_raw,equalized_smoothed,target
20.00,-2.51,-5.18,-2.51,-5.20,5.20,5.18,1.49,2.69,2.69,2.67
20.20,-2.44,-5.15,-2.44,-5.16,5.16,5.15,1.53,2.72,2.72,2.71
20.40,-2.37,-5.12,-2.37,-5.12,5.12,5.12,1.58,2.75,2.75,2.75
20.61,-2.31,-5.08,-2.30,-5.08,5.08,5.09,1.62,2.77,2.78,2.77
20.81,-2.22,-5.04,-2.23,-5.03,5.03,5.06,1.67,2.81,2.80,2.81
21.02,-2.15,-5.01,-2.16,-4.99,4.99,5.03,1.72,2.83,2.83,2.85
21.23,-2.08,-4.96,-2.09,-4.94,4.94,4.99,1.77,2.86,2.85,2.87
21.44,-2.01,-4.91,-2.02,-4.89,4.89,4.95,1.83,2.88,2.87,2.89
21.66,-1.94,-4.86,-1.94,-4.84,4.84,4.91,1.88,2.89,2.90,2.91
21.87,-1.87,-4.79,-1.87,-4.79,4.79,4.87,1.94,2.91,2.91,2.92
22.09,-1.80,-4.74,-1.80,-4.73,4.73,4.83,1.99,2.93,2.93,2.94
22.31,-1.73,-4.68,-1.73,-4.68,4.68,4.78,2.05,2.95,2.95,2.95
22.54,-1.66,-4.62,-1.66,-4.62,4.62,4.73,2.11,2.95,2.96,2.96
22.76,-1.58,-4.55,-1.59,-4.56,4.56,4.69,2.18,2.97,2.97,2.97
22.99,-1.51,-4.48,-1.51,-4.49,4.49,4.64,2.24,2.98,2.98,2.97
23.22,-1.44,-4.42,-1.44,-4.43,4.43,4.59,2.30,2.99,2.99,2.98
23.45,-1.37,-4.36,-1.37,-4.37,4.37,4.53,2.37,2.99,2.99,2.99
23.69,-1.30,-4.30,-1.30,-4.30,4.30,4.48,2.44,3.00,3.00,3.00
23.92,-1.22,-4.23,-1.23,-4.24,4.24,4.43,2.51,3.02,3.01,3.01
24.16,-1.15,-4.18,-1.16,-4.18,4.18,4.37,2.57,3.03,3.02,3.02
24.40,-1.08,-4.13,-1.09,-4.12,4.12,4.32,2.65,3.03,3.03,3.04
24.65,-1.01,-4.06,-1.01,-4.05,4.05,4.26,2.72,3.04,3.04,3.04
24.89,-0.94,-3.99,-0.94,-3.99,3.99,4.20,2.79,3.05,3.05,3.05
25.14,-0.87,-3.93,-0.87,-3.93,3.93,4.14,2.86,3.06,3.06,3.06
25.39,-0.80,-3.87,-0.80,-3.87,3.87,4.08,2.93,3.07,3.07,3.07
25.65,-0.73,-3.82,-0.73,-3.81,3.81,4.03,3.00,3.08,3.08,3.09
25.91,-0.67,-3.75,-0.66,-3.75,3.75,3.97,3.07,3.08,3.09,3.09
26.16,-0.58,-3.68,-0.59,-3.69,3.69,3.91,3.15,3.11,3.10,3.10
26.43,-0.51,-3.62,-0.52,-3.63,3.63,3.84,3.21,3.11,3.11,3.10
26.69,-0.44,-3.56,-0.45,-3.56,3.56,3.78,3.28,3.12,3.12,3.11
26.96,-0.37,-3.51,-0.38,-3.50,3.50,3.72,3.35,3.13,3.13,3.13
27.23,-0.30,-3.45,-0.31,-3.44,3.44,3.66,3.41,3.14,3.13,3.14
27.50,-0.23,-3.38,-0.24,-3.38,3.38,3.60,3.47,3.15,3.14,3.15
27.77,-0.17,-3.32,-0.17,-3.32,3.32,3.54,3.53,3.15,3.15,3.15
28.05,-0.10,-3.27,-0.10,-3.26,3.26,3.47,3.59,3.16,3.16,3.17
28.33,-0.03,-3.20,-0.03,-3.20,3.20,3.41,3.64,3.17,3.17,3.16
28.62,0.04,-3.14,0.04,-3.14,3.14,3.35,3.68,3.17,3.18,3.17
28.90,0.11,-3.07,0.10,-3.08,3.08,3.29,3.73,3.19,3.18,3.18
29.19,0.17,-3.01,0.17,-3.02,3.02,3.23,3.76,3.19,3.19,3.18
29.48,0.24,-2.97,0.24,-2.96,2.96,3.16,3.79,3.20,3.20,3.21
29.78,0.30,-2.91,0.30,-2.90,2.90,3.10,3.82,3.19,3.20,3.21
30.08,0.37,-2.85,0.37,-2.84,2.84,3.04,3.83,3.20,3.21,3.21
30.38,0.44,-2.78,0.44,-2.78,2.78,2.98,3.85,3.21,3.22,3.21
30.68,0.51,-2.72,0.50,-2.72,2.72,2.92,3.85,3.23,3.22,3.23
30.99,0.58,-2.65,0.57,-2.66,2.66,2.86,3.85,3.24,3.23,3.23
31.30,0.64,-2.60,0.63,-2.61,2.61,2.79,3.84,3.24,3.24,3.23
31.61,0.70,-2.55,0.69,-2.55,2.55,2.73,3.82,3.25,3.24,3.24
31.93,0.76,-2.49,0.75,-2.50,2.50,2.67,3.80,3.25,3.25,3.25
32.24,0.81,-2.44,0.81,-2.45,2.45,2.61,3.77,3.25,3.26,3.25
32.57,0.87,-2.40,0.87,-2.39,2.39,2.55,3.73,3.26,3.26,3.26
32.89,0.93,-2.34,0.93,-2.34,2.34,2.49,3.69,3.27,3.27,3.27
33.22,0.99,-2.29,0.98,-2.29,2.29,2.43,3.64,3.28,3.28,3.28
33.55,1.04,-2.25,1.04,-2.25,2.25,2.38,3.58,3.28,3.28,3.29
33.89,1.09,-2.21,1.09,-2.20,2.20,2.32,3.52,3.29,3.29,3.29
34.23,1.14,-2.16,1.14,-2.16,2.16,2.26,3.46,3.29,3.29,3.30
34.57,1.20,-2.11,1.19,-2.11,2.11,2.20,3.38,3.31,3.30,3.30
34.92,1.25,-2.06,1.23,-2.07,2.07,2.14,3.31,3.32,3.30,3.30
35.27,1.29,-2.02,1.28,-2.03,2.03,2.09,3.23,3.31,3.31,3.31
35.62,1.33,-1.99,1.33,-1.98,1.98,2.03,3.15,3.31,3.31,3.31
35.97,1.38,-1.93,1.38,-1.93,1.93,1.97,3.07,3.31,3.31,3.31
36.33,1.42,-1.90,1.43,-1.89,1.89,1.92,2.98,3.30,3.31,3.31
36.70,1.47,-1.84,1.48,-1.84,1.84,1.86,2.89,3.31,3.31,3.31
37.06,1.52,-1.80,1.52,-1.79,1.79,1.80,2.80,3.31,3.31,3.32
37.43,1.57,-1.75,1.57,-1.74,1.74,1.75,2.71,3.31,3.31,3.32
37.81,1.62,-1.70,1.62,-1.69,1.69,1.69,2.61,3.31,3.31,3.32
38.19,1.67,-1.65,1.66,-1.64,1.64,1.64,2.52,3.31,3.31,3.31
38.57,1.72,-1.59,1.71,-1.59,1.59,1.59,2.42,3.31,3.30,3.31
38.95,1.77,-1.53,1.76,-1.54,1.54,1.53,2.33,3.31,3.30,3.30
39.34,1.82,-1.48,1.81,-1.49,1.49,1.48,2.24,3.31,3.30,3.29
39.74,1.86,-1.43,1.86,-1.44,1.44,1.43,2.14,3.30,3.30,3.29
40.14,1.91,-1.39,1.90,-1.39,1.39,1.37,2.05,3.29,3.29,3.29
40.54,1.95,-1.34,1.95,-1.34,1.34,1.32,1.95,3.28,3.29,3.29
40.94,1.99,-1.29,2.00,-1.29,1.29,1.27,1.86,3.27,3.28,3.28
41.35,2.04,-1.24,2.04,-1.24,1.24,1.22,1.77,3.27,3.28,3.27
41.76,2.08,-1.20,2.08,-1.19,1.19,1.16,1.68,3.27,3.27,3.27
42.18,2.13,-1.15,2.13,-1.14,1.14,1.11,1.59,3.27,3.27,3.28
42.60,2.18,-1.09,2.17,-1.10,1.10,1.06,1.50,3.27,3.27,3.27
43.03,2.22,-1.06,2.21,-1.05,1.05,1.01,1.41,3.27,3.26,3.27
43.46,2.27,-1.00,2.25,-1.00,1.00,0.96,1.32,3.27,3.26,3.26
43.90,2.31,-0.94,2.29,-0.96,0.96,0.91,1.23,3.26,3.25,3.24
44.33,2.34,-0.91,2.33,-0.91,0.91,0.86,1.15,3.25,3.25,3.25
44.78,2.37,-0.87,2.37,-0.87,0.87,0.81,1.06,3.24,3.24,3.24
45.23,2.41,-0.82,2.41,-0.82,0.82,0.76,0.98,3.23,3.24,3.23
45.68,2.45,-0.78,2.45,-0.78,0.78,0.71,0.90,3.22,3.23,3.23
46.13,2.49,-0.73,2.49,-0.73,0.73,0.66,0.82,3.22,3.23,3.22
46.60,2.53,-0.70,2.53,-0.69,0.69,0.61,0.73,3.21,3.22,3.22
47.06,2.57,-0.65,2.57,-0.64,0.64,0.57,0.65,3.21,3.21,3.21
47.53,2.61,-0.60,2.60,-0.59,0.59,0.52,0.58,3.20,3.20,3.20
48.01,2.65,-0.56,2.64,-0.55,0.55,0.47,0.50,3.19,3.19,3.21
48.49,2.68,-0.51,2.68,-0.50,0.50,0.42,0.42,3.18,3.18,3.19
48.97,2.72,-0.45,2.71,-0.45,0.45,0.37,0.34,3.17,3.17,3.16
49.46,2.76,-0.39,2.75,-0.40,0.40,0.33,0.27,3.16,3.15,3.15
49.96,2.80,-0.33,2.79,-0.35,0.35,0.28,0.19,3.15,3.14,3.13
50.46,2.83,-0.30,2.82,-0.30,0.30,0.23,0.12,3.12,3.12,3.12
50.96,2.86,-0.25,2.86,-0.25,0.25,0.18,0.05,3.10,3.10,3.11
51.47,2.89,-0.19,2.89,-0.19,0.19,0.14,-0.02,3.08,3.08,3.07
51.99,2.92,-0.14,2.92,-0.14,0.14,0.09,-0.09,3.05,3.06,3.06
52.51,2.96,-0.09,2.96,-0.08,0.08,0.04,-0.16,3.04,3.04,3.05
53.03,2.99,-0.04,2.99,-0.03,0.03,-0.01,-0.23,3.01,3.02,3.02
53.56,3.03,0.02,3.03,0.03,-0.03,-0.05,-0.30,3.00,3.00,3.01
54.10,3.07,0.09,3.06,0.08,-0.08,-0.10,-0.37,2.98,2.98,2.98
54.64,3.10,0.14,3.09,0.14,-0.14,-0.15,-0.43,2.96,2.95,2.96
55.18,3.13,0.20,3.13,0.20,-0.20,-0.19,-0.49,2.93,2.93,2.93
55.74,3.16,0.26,3.16,0.25,-0.25,-0.24,-0.56,2.90,2.91,2.90
56.29,3.19,0.30,3.19,0.31,-0.31,-0.29,-0.62,2.88,2.88,2.89
56.86,3.23,0.37,3.23,0.37,-0.37,-0.33,-0.68,2.86,2.86,2.86
57.42,3.27,0.44,3.26,0.42,-0.42,-0.38,-0.74,2.84,2.83,2.82
58.00,3.30,0.50,3.29,0.48,-0.48,-0.43,-0.80,2.81,2.81,2.80
58.58,3.32,0.54,3.31,0.54,-0.54,-0.48,-0.85,2.78,2.78,2.78
59.16,3.35,0.59,3.34,0.59,-0.59,-0.52,-0.91,2.75,2.75,2.75
59.76,3.37,0.64,3.36,0.65,-0.65,-0.57,-0.96,2.72,2.71,2.73
60.35,3.39,0.69,3.39,0.71,-0.71,-0.62,-1.01,2.68,2.68,2.69
60.96,3.42,0.76,3.41,0.76,-0.76,-0.66,-1.06,2.65,2.64,2.65
61.57,3.44,0.83,3.43,0.82,-0.82,-0.71,-1.11,2.62,2.61,2.61
62.18,3.45,0.89,3.44,0.88,-0.88,-0.76,-1.16,2.57,2.57,2.56
62.80,3.47,0.94,3.46,0.94,-0.94,-0.81,-1.20,2.53,2.53,2.53
63.43,3.48,1.00,3.48,0.99,-0.99,-0.85,-1.24,2.48,2.49,2.48
64.07,3.49,1.05,3.50,1.05,-1.05,-0.90,-1.29,2.43,2.45,2.44
64.71,3.51,1.11,3.52,1.12,-1.12,-0.95,-1.33,2.39,2.40,2.40
65.35,3.53,1.17,3.54,1.18,-1.18,-1.00,-1.37,2.35,2.36,2.35
66.01,3.55,1.24,3.56,1.24,-1.24,-1.04,-1.41,2.30,2.31,2.31
66.67,3.58,1.30,3.57,1.31,-1.31,-1.09,-1.44,2.27,2.27,2.28
67.33,3.60,1.37,3.59,1.37,-1.37,-1.14,-1.48,2.23,2.22,2.23
68.01,3.63,1.44,3.61,1.44,-1.44,-1.19,-1.52,2.19,2.18,2.18
68.69,3.65,1.51,3.64,1.50,-1.50,-1.24,-1.55,2.14,2.13,2.14
69.37,3.67,1.58,3.66,1.57,-1.57,-1.29,-1.59,2.10,2.09,2.09
70.07,3.68,1.64,3.68,1.64,-1.64,-1.34,-1.62,2.04,2.04,2.04
70.77,3.70,1.70,3.70,1.70,-1.70,-1.39,-1.66,1.99,2.00,2.00
71.48,3.71,1.75,3.73,1.77,-1.77,-1.44,-1.69,1.93,1.95,1.96
72.19,3.74,1.83,3.75,1.84,-1.84,-1.49,-1.73,1.90,1.91,1.91
72.91,3.77,1.90,3.77,1.90,-1.90,-1.54,-1.76,1.87,1.87,1.86
73.64,3.79,1.97,3.78,1.96,-1.96,-1.59,-1.80,1.82,1.82,1.82
74.38,3.81,2.02,3.80,2.02,-2.02,-1.64,-1.83,1.79,1.78,1.78
75.12,3.83,2.09,3.81,2.07,-2.07,-1.69,-1.87,1.75,1.74,1.74
75.87,3.85,2.15,3.83,2.13,-2.13,-1.74,-1.91,1.72,1.70,1.70
76.63,3.86,2.19,3.84,2.18,-2.18,-1.79,-1.94,1.68,1.66,1.66
77.40,3.86,2.23,3.85,2.22,-2.22,-1.84,-1.98,1.63,1.62,1.62
78.17,3.87,2.28,3.86,2.27,-2.27,-1.89,-2.02,1.60,1.59,1.58
78.95,3.87,2.31,3.87,2.31,-2.31,-1.95,-2.06,1.55,1.55,1.55
79.74,3.88,2.36,3.87,2.36,-2.36,-2.00,-2.11,1.52,1.52,1.52
80.54,3.88,2.39,3.88,2.40,-2.40,-2.05,-2.15,1.48,1.48,1.49
81.35,3.88,2.42,3.89,2.44,-2.44,-2.11,-2.20,1.43,1.45,1.45
82.16,3.89,2.47,3.91,2.49,-2.49,-2.16,-2.25,1.40,1.42,1.42
82.98,3.91,2.51,3.92,2.53,-2.53,-2.21,-2.29,1.37,1.39,1.39
83.81,3.93,2.57,3.94,2.58,-2.58,-2.27,-2.35,1.35,1.36,1.36
84.65,3.95,2.63,3.96,2.63,-2.63,-2.32,-2.40,1.32,1.33,1.32
85.50,3.98,2.68,3.98,2.68,-2.68,-2.38,-2.45,1.29,1.30,1.30
86.35,4.01,2.73,4.01,2.74,-2.74,-2.43,-2.51,1.27,1.27,1.27
87.22,4.04,2.79,4.04,2.79,-2.79,-2.49,-2.57,1.24,1.24,1.24
88.09,4.06,2.84,4.06,2.85,-2.85,-2.54,-2.63,1.21,1.22,1.21
88.97,4.10,2.91,4.09,2.90,-2.90,-2.60,-2.69,1.20,1.19,1.19
89.86,4.13,2.96,4.11,2.95,-2.95,-2.66,-2.75,1.17,1.16,1.17
90.76,4.15,3.02,4.14,3.00,-3.00,-2.71,-2.82,1.14,1.13,1.13
91.66,4.17,3.06,4.16,3.05,-3.05,-2.77,-2.89,1.11,1.11,1.10
92.58,4.19,3.12,4.17,3.10,-3.10,-2.83,-2.96,1.09,1.08,1.07
93.51,4.21,3.15,4.19,3.14,-3.14,-2.89,-3.03,1.07,1.05,1.06
94.44,4.21,3.19,4.20,3.18,-3.18,-2.94,-3.11,1.03,1.02,1.02
95.39,4.22,3.22,4.20,3.22,-3.22,-3.00,-3.18,1.00,0.98,0.99
96.34,4.22,3.27,4.21,3.26,-3.26,-3.06,-3.26,0.96,0.95,0.95
97.30,4.21,3.29,4.21,3.29,-3.29,-3.12,-3.34,0.91,0.92,0.91
98.28,4.20,3.32,4.21,3.33,-3.33,-3.18,-3.42,0.87,0.88,0.88
99.26,4.20,3.36,4.21,3.36,-3.36,-3.24,-3.50,0.83,0.84,0.84
100.25,4.20,3.39,4.21,3.40,-3.40,-3.30,-3.59,0.79,0.80,0.80
101.25,4.20,3.43,4.20,3.44,-3.44,-3.36,-3.67,0.76,0.76,0.77
102.27,4.20,3.48,4.20,3.48,-3.48,-3.42,-3.76,0.72,0.72,0.72
103.29,4.20,3.53,4.20,3.52,-3.52,-3.49,-3.84,0.67,0.67,0.67
104.32,4.20,3.56,4.20,3.57,-3.57,-3.55,-3.93,0.63,0.63,0.63
105.37,4.20,3.61,4.20,3.62,-3.62,-3.61,-4.02,0.58,0.58,0.58
106.42,4.20,3.67,4.19,3.67,-3.67,-3.67,-4.10,0.53,0.52,0.53
107.48,4.20,3.72,4.19,3.73,-3.73,-3.74,-4.19,0.47,0.47,0.48
108.56,4.20,3.78,4.20,3.78,-3.78,-3.80,-4.28,0.41,0.41,0.41
109.64,4.20,3.84,4.20,3.85,-3.85,-3.86,-4.36,0.35,0.35,0.35
110.74,4.20,3.90,4.20,3.91,-3.91,-3.93,-4.45,0.29,0.29,0.30
111.85,4.20,3.97,4.20,3.97,-3.97,-3.99,-4.53,0.22,0.22,0.23
112.97,4.20,4.04,4.20,4.04,-4.04,-4.06,-4.61,0.16,0.16,0.15
114.10,4.20,4.10,4.20,4.11,-4.11,-4.12,-4.68,0.09,0.09,0.10
115.24,4.20,4.18,4.20,4.17,-4.17,-4.19,-4.76,0.02,0.02,0.02
116.39,4.20,4.25,4.20,4.24,-4.24,-4.25,-4.83,-0.05,-0.05,-0.06
117.55,4.20,4.32,4.20,4.31,-4.31,-4.32,-4.90,-0.12,-0.12,-0.12
118.73,4.20,4.39,4.20,4.38,-4.38,-4.38,-4.96,-0.18,-0.18,-0.20
119.92,4.20,4.45,4.20,4.45,-4.45,-4.45,-5.02,-0.25,-0.25,-0.25
121.12,4.20,4.52,4.20,4.51,-4.51,-4.52,-5.08,-0.32,-0.32,-0.32
122.33,4.20,4.58,4.20,4.58,-4.58,-4.58,-5.13,-0.38,-0.38,-0.39
123.55,4.20,4.64,4.20,4.64,-4.64,-4.65,-5.17,-0.45,-0.45,-0.44
124.79,4.20,4.70,4.20,4.70,-4.70,-4.72,-5.21,-0.51,-0.51,-0.50
126.03,4.20,4.76,4.20,4.76,-4.76,-4.79,-5.25,-0.57,-0.57,-0.56
127.29,4.20,4.82,4.20,4.82,-4.82,-4.85,-5.28,-0.63,-0.63,-0.62
128.57,4.20,4.89,4.20,4.88,-4.88,-4.92,-5.31,-0.69,-0.68,-0.69
129.85,4.20,4.94,4.20,4.94,-4.94,-4.99,-5.33,-0.74,-0.74,-0.74
131.15,4.20,5.00,4.20,4.99,-4.99,-5.06,-5.35,-0.80,-0.80,-0.80
132.46,4.20,5.05,4.20,5.05,-5.05,-5.12,-5.37,-0.85,-0.85,-0.85
133.79,4.20,5.09,4.20,5.10,-5.10,-5.19,-5.38,-0.90,-0.90,-0.90
135.12,4.20,5.15,4.19,5.14,-5.14,-5.26,-5.39,-0.95,-0.95,-0.95
136.48,4.20,5.19,4.19,5.19,-5.19,-5.33,-5.39,-0.99,-1.00,-1.00
137.84,4.20,5.25,4.19,5.24,-5.24,-5.40,-5.39,-1.04,-1.05,-1.05
139.22,4.20,5.30,4.18,5.28,-5.28,-5.46,-5.40,-1.08,-1.10,-1.10
140.61,4.20,5.35,4.18,5.32,-5.32,-5.53,-5.40,-1.13,-1.14,-1.16
142.02,4.19,5.37,4.18,5.37,-5.37,-5.60,-5.39,-1.18,-1.19,-1.19
143.44,4.18,5.40,4.18,5.41,-5.41,-5.67,-5.39,-1.24,-1.23,-1.23
144.87,4.18,5.45,4.18,5.46,-5.46,-5.73,-5.39,-1.28,-1.28,-1.28
146.32,4.17,5.49,4.19,5.51,-5.51,-5.80,-5.39,-1.35,-1.33,-1.33
147.78,4.18,5.54,4.20,5.57,-5.57,-5.87,-5.39,-1.39,-1.37,-1.36
149.26,4.19,5.60,4.21,5.63,-5.63,-5.93,-5.38,-1.44,-1.42,-1.41
150.75,4.22,5.69,4.23,5.69,-5.69,-6.00,-5.39,-1.48,-1.47,-1.47
152.26,4.23,5.75,4.25,5.76,-5.76,-6.06,-5.39,-1.54,-1.52,-1.52
153.78,4.26,5.82,4.27,5.84,-5.84,-6.13,-5.39,-1.58,-1.57,-1.56
155.32,4.29,5.91,4.30,5.91,-5.91,-6.19,-5.40,-1.63,-1.62,-1.62
156.88,4.34,6.00,4.33,6.00,-6.00,-6.26,-5.41,-1.66,-1.67,-1.67
158.44,4.36,6.07,4.36,6.08,-6.08,-6.32,-5.42,-1.72,-1.72,-1.72
160.03,4.40,6.17,4.39,6.16,-6.16,-6.38,-5.44,-1.77,-1.77,-1.78
161.63,4.43,6.26,4.42,6.24,-6.24,-6.44,-5.45,-1.82,-1.82,-1.83
163.24,4.46,6.34,4.45,6.32,-6.32,-6.51,-5.48,-1.87,-1.88,-1.88
164.88,4.49,6.42,4.47,6.40,-6.40,-6.57,-5.50,-1.91,-1.93,-1.93
166.53,4.51,6.49,4.49,6.47,-6.47,-6.63,-5.53,-1.97,-1.99,-1.98
168.19,4.53,6.57,4.50,6.54,-6.54,-6.68,-5.57,-2.02,-2.04,-2.04
169.87,4.54,6.63,4.52,6.61,-6.61,-6.74,-5.60,-2.08,-2.10,-2.09
171.57,4.54,6.68,4.52,6.68,-6.68,-6.80,-5.64,-2.14,-2.15,-2.15
173.29,4.54,6.74,4.53,6.74,-6.74,-6.85,-5.69,-2.20,-2.21,-2.21
175.02,4.53,6.79,4.53,6.80,-6.80,-6.91,-5.74,-2.28,-2.27,-2.26
176.77,4.52,6.85,4.53,6.86,-6.86,-6.96,-5.80,-2.35,-2.33,-2.33
178.54,4.52,6.91,4.53,6.92,-6.92,-7.01,-5.85,-2.40,-2.39,-2.39
180.32,4.52,6.96,4.53,6.98,-6.98,-7.06,-5.92,-2.46,-2.45,-2.45
182.13,4.52,7.02,4.52,7.03,-7.03,-7.11,-5.99,-2.52,-2.51,-2.51
183.95,4.52,7.09,4.52,7.09,-7.09,-7.16,-6.06,-2.57,-2.57,-2.57
185.79,4.52,7.14,4.52,7.15,-7.15,-7.21,-6.13,-2.63,-2.63,-2.63
187.65,4.52,7.22,4.52,7.21,-7.21,-7.25,-6.21,-2.69,-2.69,-2.70
189.52,4.52,7.28,4.52,7.27,-7.27,-7.29,-6.30,-2.75,-2.75,-2.76
191.42,4.52,7.33,4.52,7.33,-7.33,-7.34,-6.39,-2.81,-2.81,-2.81
193.33,4.52,7.38,4.52,7.39,-7.39,-7.38,-6.48,-2.88,-2.87,-2.87
195.27,4.52,7.43,4.53,7.45,-7.45,-7.41,-6.58,-2.94,-2.93,-2.92
197.22,4.52,7.50,4.53,7.51,-7.51,-7.45,-6.68,-2.99,-2.98,-2.98
199.19,4.52,7.56,4.53,7.56,-7.56,-7.48,-6.78,-3.05,-3.03,-3.04
201.18,4.53,7.62,4.53,7.62,-7.62,-7.52,-6.89,-3.09,-3.09,-3.09
203.19,4.54,7.67,4.53,7.67,-7.67,-7.55,-6.99,-3.13,-3.14,-3.13
205.23,4.54,7.73,4.53,7.71,-7.71,-7.57,-7.10,-3.17,-3.19,-3.19
207.28,4.54,7.75,4.52,7.75,-7.75,-7.60,-7.22,-3.22,-3.23,-3.22
209.35,4.53,7.80,4.51,7.79,-7.79,-7.62,-7.33,-3.26,-3.28,-3.28
211.44,4.52,7.85,4.50,7.82,-7.82,-7.65,-7.44,-3.31,-3.32,-3.33
213.56,4.49,7.86,4.48,7.85,-7.85,-7.67,-7.56,-3.36,-3.37,-3.37
215.69,4.46,7.85,4.46,7.87,-7.87,-7.68,-7.67,-3.41,-3.41,-3.40
217.85,4.43,7.87,4.44,7.88,-7.88,-7.70,-7.78,-3.46,-3.44,-3.44
220.03,4.42,7.90,4.41,7.89,-7.89,-7.71,-7.89,-3.47,-3.48,-3.49
222.23,4.39,7.91,4.38,7.89,-7.89,-7.72,-8.00,-3.50,-3.51,-3.52
224.45,4.36,7.90,4.34,7.88,-7.88,-7.73,-8.10,-3.53,-3.54,-3.55
226.70,4.32,7.88,4.30,7.87,-7.87,-7.74,-8.20,-3.56,-3.57,-3.57
228.96,4.27,7.87,4.26,7.86,-7.86,-7.74,-8.29,-3.59,-3.60,-3.60
231.25,4.23,7.84,4.22,7.84,-7.84,-7.74,-8.38,-3.61,-3.62,-3.61
233.57,4.18,7.81,4.18,7.82,-7.82,-7.74,-8.46,-3.64,-3.64,-3.64
235.90,4.13,7.78,4.14,7.79,-7.79,-7.74,-8.53,-3.67,-3.65,-3.66
238.26,4.09,7.76,4.10,7.76,-7.76,-7.74,-8.58,-3.68,-3.67,-3.67
240.64,4.05,7.73,4.06,7.74,-7.74,-7.73,-8.63,-3.69,-3.68,-3.68
243.05,4.02,7.70,4.02,7.71,-7.71,-7.72,-8.67,-3.69,-3.68,-3.68
245.48,3.99,7.68,3.99,7.67,-7.67,-7.71,-8.70,-3.69,-3.69,-3.69
247.93,3.96,7.65,3.95,7.65,-7.65,-7.70,-8.71,-3.69,-3.69,-3.69
250.41,3.94,7.64,3.93,7.62,-7.62,-7.68,-8.72,-3.68,-3.69,-3.70
252.92,3.90,7.59,3.91,7.60,-7.60,-7.66,-8.71,-3.70,-3.69,-3.69
255.45,3.88,7.55,3.89,7.57,-7.57,-7.64,-8.69,-3.70,-3.69,-3.68
258.00,3.87,7.54,3.87,7.55,-7.55,-7.62,-8.66,-3.69,-3.68,-3.68
260.58,3.85,7.52,3.86,7.54,-7.54,-7.60,-8.61,-3.69,-3.67,-3.68
263.19,3.85,7.51,3.86,7.52,-7.52,-7.57,-8.56,-3.67,-3.66,-3.66
265.82,3.85,7.51,3.85,7.51,-7.51,-7.55,-8.49,-3.66,-3.65,-3.66
268.48,3.86,7.49,3.85,7.50,-7.50,-7.52,-8.42,-3.64,-3.64,-3.64
271.16,3.87,7.49,3.86,7.49,-7.49,-7.49,-8.34,-3.62,-3.63,-3.62
273.87,3.87,7.49,3.86,7.48,-7.48,-7.45,-8.25,-3.61,-3.62,-3.62
276.61,3.87,7.46,3.87,7.47,-7.47,-7.42,-8.15,-3.61,-3.61,-3.60
279.38,3.87,7.46,3.87,7.47,-7.47,-7.39,-8.05,-3.60,-3.59,-3.59
282.17,3.87,7.45,3.88,7.46,-7.46,-7.35,-7.94,-3.59,-3.58,-3.58
284.99,3.88,7.44,3.88,7.45,-7.45,-7.31,-7.83,-3.58,-3.57,-3.57
287.84,3.89,7.45,3.88,7.44,-7.44,-7.27,-7.72,-3.55,-3.56,-3.56
290.72,3.90,7.44,3.88,7.43,-7.43,-7.23,-7.60,-3.53,-3.54,-3.55
293.63,3.90,7.43,3.88,7.41,-7.41,-7.19,-7.49,-3.52,-3.53,-3.53
296.57,3.89,7.40,3.87,7.39,-7.39,-7.15,-7.37,-3.51,-3.52,-3.52
299.53,3.87,7.38,3.86,7.37,-7.37,-7.10,-7.25,-3.50,-3.51,-3.51
302.53,3.85,7.35,3.85,7.34,-7.34,-7.06,-7.14,-3.50,-3.50,-3.51
305.55,3.83,7.31,3.83,7.32,-7.32,-7.01,-7.02,-3.49,-3.49,-3.48
308.61,3.81,7.28,3.81,7.28,-7.28,-6.97,-6.91,-3.48,-3.48,-3.48
311.69,3.78,7.25,3.78,7.24,-7.24,-6.92,-6.80,-3.47,-3.47,-3.47
314.81,3.76,7.20,3.74,7.20,-7.20,-6.87,-6.69,-3.45,-3.46,-3.44
317.96,3.72,7.16,3.70,7.16,-7.16,-6.82,-6.58,-3.44,-3.45,-3.45
321.14,3.67,7.11,3.66,7.11,-7.11,-6.77,-6.48,-3.44,-3.44,-3.44
324.35,3.62,7.06,3.62,7.05,-7.05,-6.72,-6.38,-3.44,-3.44,-3.45
327.59,3.57,6.99,3.57,7.00,-7.00,-6.67,-6.29,-3.44,-3.43,-3.43
330.87,3.52,6.95,3.52,6.95,-6.95,-6.62,-6.20,-3.43,-3.43,-3.43
334.18,3.46,6.89,3.46,6.89,-6.89,-6.57,-6.11,-3.44,-3.43,-3.43
337.52,3.40,6.82,3.41,6.83,-6.83,-6.52,-6.03,-3.44,-3.43,-3.43
340.90,3.34,6.76,3.35,6.77,-6.77,-6.47,-5.95,-3.44,-3.43,-3.42
344.30,3.27,6.69,3.29,6.71,-6.71,-6.41,-5.87,-3.45,-3.43,-3.42
347.75,3.22,6.64,3.22,6.65,-6.65,-6.36,-5.80,-3.43,-3.43,-3.43
351.23,3.16,6.59,3.15,6.58,-6.58,-6.31,-5.74,-3.42,-3.43,-3.43
354.74,3.09,6.52,3.08,6.51,-6.51,-6.26,-5.68,-3.42,-3.44,-3.43
358.28,3.01,6.45,3.00,6.44,-6.44,-6.20,-5.62,-3.43,-3.44,-3.44
361.87,2.93,6.37,2.92,6.36,-6.36,-6.15,-5.57,-3.44,-3.45,-3.45
365.49,2.83,6.27,2.83,6.28,-6.28,-6.10,-5.52,-3.46,-3.45,-3.45
369.14,2.75,6.21,2.74,6.20,-6.20,-6.05,-5.47,-3.45,-3.46,-3.46
372.83,2.67,6.13,2.64,6.11,-6.11,-6.00,-5.43,-3.44,-3.47,-3.46
376.56,2.55,6.02,2.54,6.02,-6.02,-5.94,-5.39,-3.47,-3.47,-3.47
380.33,2.44,5.91,2.43,5.92,-5.92,-5.89,-5.36,-3.48,-3.48,-3.48
384.13,2.33,5.81,2.32,5.81,-5.81,-5.84,-5.33,-3.48,-3.49,-3.49
387.97,2.22,5.72,2.20,5.70,-5.70,-5.79,-5.30,-3.48,-3.50,-3.50
391.85,2.10,5.61,2.08,5.58,-5.58,-5.74,-5.28,-3.49,-3.50,-3.51
395.77,1.97,5.47,1.96,5.47,-5.47,-5.69,-5.26,-3.50,-3.51,-3.50
399.73,1.84,5.35,1.83,5.35,-5.35,-5.64,-5.25,-3.51,-3.52,-3.52
403.72,1.72,5.24,1.70,5.23,-5.23,-5.59,-5.23,-3.51,-3.52,-3.53
407.76,1.59,5.12,1.58,5.11,-5.11,-5.54,-5.22,-3.52,-3.53,-3.54
411.84,1.46,4.99,1.46,4.99,-4.99,-5.49,-5.22,-3.53,-3.53,-3.53
415.96,1.33,4.87,1.34,4.88,-4.88,-5.44,-5.21,-3.55,-3.54,-3.54
420.12,1.21,4.75,1.22,4.77,-4.77,-5.40,-5.21,-3.56,-3.54,-3.54
424.32,1.10,4.64,1.11,4.66,-4.66,-5.35,-5.20,-3.57,-3.55,-3.54
428.56,1.01,4.56,1.01,4.56,-4.56,-5.30,-5.20,-3.56,-3.55,-3.55
432.85,0.92,4.47,0.92,4.47,-4.47,-5.26,-5.20,-3.56,-3.55,-3.56
437.18,0.84,4.39,0.84,4.39,-4.39,-5.21,-5.20,-3.56,-3.55,-3.56
441.55,0.78,4.32,0.77,4.32,-4.32,-5.17,-5.21,-3.55,-3.55,-3.55
445.96,0.72,4.26,0.71,4.27,-4.27,-5.13,-5.21,-3.55,-3.55,-3.55
450.42,0.67,4.23,0.67,4.22,-4.22,-5.08,-5.21,-3.56,-3.55,-3.56
454.93,0.64,4.19,0.64,4.19,-4.19,-5.04,-5.21,-3.55,-3.55,-3.55
459.48,0.60,4.15,0.63,4.17,-4.17,-5.00,-5.21,-3.58,-3.55,-3.55
464.07,0.61,4.15,0.63,4.17,-4.17,-4.96,-5.20,-3.56,-3.54,-3.54
468.71,0.62,4.15,0.64,4.18,-4.18,-4.92,-5.20,-3.56,-3.54,-3.53
473.40,0.66,4.19,0.67,4.20,-4.20,-4.89,-5.19,-3.55,-3.53,-3.53
478.13,0.68,4.20,0.71,4.24,-4.24,-4.85,-5.18,-3.56,-3.53,-3.52
482.91,0.74,4.26,0.77,4.29,-4.29,-4.81,-5.17,-3.55,-3.52,-3.53
487.74,0.82,4.33,0.83,4.35,-4.35,-4.78,-5.16,-3.53,-3.52,-3.52
492.62,0.90,4.40,0.90,4.41,-4.41,-4.74,-5.14,-3.52,-3.51,-3.51
497.55,0.98,4.48,0.98,4.49,-4.49,-4.71,-5.12,-3.51,-3.51,-3.51
502.52,1.06,4.55,1.06,4.57,-4.57,-4.68,-5.10,-3.51,-3.50,-3.50
507.55,1.15,4.65,1.15,4.65,-4.65,-4.65,-5.07,-3.50,-3.50,-3.50
