frequency,raw,error,smoothed,error_smoothed,equalization,parametric_eq,fixed_band_eq,equalized_raw,equalized_smoothed,target
20.00,-24.13,-25.47,-24.12,-25.48,25.48,23.67,12.24,1.35,1.37,1.34
20.20,-23.99,-25.37,-23.98,-25.38,25.38,24.09,12.43,1.39,1.40,1.39
20.40,-23.85,-25.28,-23.84,-25.28,25.28,24.46,12.62,1.43,1.44,1.44
20.61,-23.71,-25.18,-23.71,-25.18,25.18,24.77,12.81,1.46,1.47,1.46
20.81,-23.57,-25.08,-23.57,-25.07,25.07,25.00,13.01,1.50,1.50,1.51
21.02,-23.43,-24.98,-23.43,-24.95,24.95,25.15,13.22,1.53,1.53,1.55
21.23,-23.28,-24.85,-23.29,-24.84,24.84,25.22,13.42,1.56,1.55,1.57
21.44,-23.13,-24.72,-23.15,-24.72,24.72,25.21,13.64,1.59,1.57,1.59
21.66,-22.98,-24.59,-23.00,-24.60,24.60,25.12,13.86,1.62,1.59,1.61
21.87,-22.84,-24.46,-22.86,-24.47,24.47,24.97,14.08,1.64,1.61,1.62
22.09,-22.69,-24.33,-22.72,-24.35,24.35,24.76,14.31,1.66,1.63,1.64
22.31,-22.56,-24.21,-22.57,-24.21,24.21,24.51,14.54,1.66,1.64,1.65
22.54,-22.43,-24.08,-22.43,-24.08,24.08,24.23,14.78,1.64,1.65,1.65
22.76,-22.30,-23.95,-22.28,-23.93,23.93,23.93,15.03,1.63,1.65,1.65
22.99,-22.17,-23.81,-22.14,-23.79,23.79,23.62,15.29,1.62,1.65,1.64
23.22,-22.01,-23.65,-21.99,-23.64,23.64,23.31,15.55,1.63,1.65,1.64
23.45,-21.86,-23.50,-21.84,-23.49,23.49,23.00,15.82,1.63,1.65,1.64
23.69,-21.70,-23.35,-21.69,-23.34,23.34,22.70,16.09,1.64,1.65,1.65
23.92,-21.55,-23.19,-21.54,-23.19,23.19,22.41,16.38,1.64,1.65,1.65
24.16,-21.39,-23.04,-21.38,-23.04,23.04,22.13,16.67,1.65,1.65,1.65
24.40,-21.23,-22.89,-21.23,-22.88,22.88,21.86,16.98,1.66,1.65,1.66
24.65,-21.06,-22.71,-21.08,-22.73,22.73,21.61,17.29,1.67,1.65,1.65
24.89,-20.90,-22.55,-20.93,-22.58,22.58,21.37,17.61,1.68,1.65,1.65
25.14,-20.75,-22.40,-20.78,-22.43,22.43,21.15,17.95,1.68,1.65,1.65
25.39,-20.61,-22.27,-20.63,-22.28,22.28,20.94,18.29,1.68,1.65,1.66
25.65,-20.48,-22.14,-20.49,-22.14,22.14,20.74,18.65,1.66,1.65,1.66
25.91,-20.34,-21.99,-20.35,-22.00,22.00,20.56,19.02,1.66,1.65,1.65
26.16,-20.20,-21.84,-20.21,-21.86,21.86,20.39,19.40,1.66,1.65,1.65
26.43,-20.06,-21.71,-20.07,-21.72,21.72,20.23,19.80,1.65,1.65,1.64
26.69,-19.92,-21.56,-19.92,-21.57,21.57,20.09,20.21,1.65,1.65,1.64
26.96,-19.78,-21.43,-19.78,-21.42,21.42,19.96,20.63,1.64,1.64,1.65
27.23,-19.65,-21.30,-19.63,-21.27,21.27,19.84,21.07,1.62,1.64,1.65
27.50,-19.51,-21.16,-19.48,-21.12,21.12,19.73,21.52,1.61,1.64,1.65
27.77,-19.37,-21.01,-19.32,-20.96,20.96,19.64,21.99,1.59,1.64,1.64
28.05,-19.22,-20.85,-19.16,-20.80,20.80,19.55,22.46,1.58,1.64,1.64
28.33,-19.03,-20.65,-19.00,-20.64,20.64,19.47,22.95,1.61,1.63,1.62
28.62,-18.84,-20.47,-18.84,-20.48,20.48,19.40,23.44,1.63,1.63,1.62
28.90,-18.65,-20.28,-18.68,-20.32,20.32,19.33,23.93,1.67,1.63,1.63
29.19,-18.48,-20.10,-18.52,-20.15,20.15,19.28,24.41,1.68,1.63,1.62
29.48,-18.32,-19.96,-18.37,-19.99,19.99,19.23,24.87,1.67,1.63,1.64
29.78,-18.16,-19.79,-18.21,-19.83,19.83,19.18,25.30,1.67,1.63,1.63
30.08,-18.01,-19.65,-18.04,-19.67,19.67,19.14,25.67,1.66,1.62,1.63
30.38,-17.88,-19.50,-17.88,-19.51,19.51,19.10,25.98,1.62,1.62,1.62
30.68,-17.75,-19.37,-17.73,-19.35,19.35,19.06,26.20,1.60,1.62,1.62
30.99,-17.62,-19.24,-17.58,-19.20,19.20,19.02,26.31,1.58,1.62,1.62
31.30,-17.46,-19.08,-17.43,-19.05,19.05,18.98,26.32,1.59,1.62,1.61
31.61,-17.30,-18.91,-17.29,-18.90,18.90,18.93,26.20,1.60,1.61,1.61
31.93,-17.14,-18.75,-17.14,-18.75,18.75,18.89,25.98,1.61,1.61,1.61
32.24,-16.98,-18.57,-17.00,-18.60,18.60,18.83,25.67,1.62,1.60,1.60
32.57,-16.82,-18.42,-16.84,-18.44,18.44,18.77,25.28,1.62,1.60,1.60
32.89,-16.66,-18.26,-16.68,-18.27,18.27,18.70,24.83,1.62,1.59,1.60
33.22,-16.52,-18.11,-16.52,-18.11,18.11,18.62,24.35,1.59,1.59,1.59
33.55,-16.40,-17.98,-16.36,-17.94,17.94,18.53,23.85,1.54,1.58,1.58
33.89,-16.27,-17.84,-16.20,-17.77,17.77,18.43,23.33,1.50,1.58,1.57
34.23,-16.09,-17.67,-16.04,-17.61,17.61,18.31,22.81,1.52,1.57,1.58
34.57,-15.88,-17.44,-15.88,-17.45,17.45,18.18,22.29,1.57,1.57,1.56
34.92,-15.67,-17.23,-15.72,-17.29,17.29,18.04,21.79,1.61,1.56,1.56
35.27,-15.50,-17.06,-15.56,-17.12,17.12,17.88,21.29,1.62,1.56,1.56
35.62,-15.35,-16.90,-15.40,-16.96,16.96,17.70,20.80,1.61,1.56,1.55
35.97,-15.20,-16.75,-15.24,-16.79,16.79,17.52,20.33,1.59,1.55,1.55
36.33,-15.07,-16.62,-15.08,-16.63,16.63,17.32,19.87,1.56,1.55,1.56
36.70,-14.94,-16.48,-14.92,-16.47,16.47,17.10,19.43,1.53,1.55,1.54
37.06,-14.81,-16.34,-14.76,-16.30,16.30,16.88,19.00,1.50,1.55,1.54
37.43,-14.64,-16.19,-14.59,-16.14,16.14,16.64,18.58,1.50,1.55,1.55
37.81,-14.47,-16.02,-14.43,-15.98,15.98,16.40,18.17,1.51,1.55,1.55
38.19,-14.30,-15.84,-14.28,-15.82,15.82,16.14,17.78,1.52,1.54,1.54
38.57,-14.10,-15.65,-14.13,-15.67,15.67,15.88,17.40,1.57,1.54,1.55
38.95,-13.91,-15.46,-13.97,-15.51,15.51,15.61,17.03,1.60,1.54,1.55
39.34,-13.78,-15.32,-13.80,-15.35,15.35,15.34,16.66,1.57,1.54,1.54
39.74,-13.65,-15.19,-13.64,-15.18,15.18,15.06,16.31,1.53,1.54,1.54
40.14,-13.49,-15.03,-13.47,-15.01,15.01,14.79,15.97,1.52,1.54,1.54
40.54,-13.30,-14.84,-13.30,-14.83,14.83,14.51,15.64,1.53,1.54,1.54
40.94,-13.11,-14.64,-13.13,-14.66,14.66,14.23,15.31,1.55,1.53,1.53
41.35,-12.97,-14.49,-12.96,-14.49,14.49,13.94,14.99,1.52,1.52,1.52
41.76,-12.84,-14.35,-12.80,-14.32,14.32,13.66,14.68,1.48,1.52,1.52
42.18,-12.68,-14.20,-12.64,-14.14,14.14,13.39,14.38,1.47,1.51,1.52
42.60,-12.47,-13.97,-12.48,-13.97,13.97,13.11,14.08,1.50,1.50,1.50
43.03,-12.26,-13.75,-12.31,-13.79,13.79,12.83,13.79,1.53,1.48,1.49
43.46,-12.12,-13.60,-12.15,-13.62,13.62,12.56,13.51,1.50,1.47,1.48
43.90,-11.98,-13.44,-11.99,-13.44,13.44,12.29,13.23,1.46,1.46,1.45
44.33,-11.83,-13.26,-11.82,-13.27,13.27,12.03,12.95,1.44,1.44,1.44
44.78,-11.66,-13.08,-11.66,-13.09,13.09,11.77,12.68,1.43,1.43,1.42
45.23,-11.50,-12.91,-11.50,-12.91,12.91,11.51,12.41,1.41,1.41,1.41
45.68,-11.34,-12.73,-11.33,-12.73,12.73,11.26,12.15,1.39,1.40,1.39
46.13,-11.17,-12.53,-11.16,-12.54,12.54,11.01,11.89,1.38,1.38,1.37
46.60,-11.00,-12.37,-11.00,-12.36,12.36,10.77,11.64,1.36,1.36,1.36
47.06,-10.84,-12.18,-10.83,-12.17,12.17,10.53,11.39,1.33,1.35,1.34
47.53,-10.69,-12.02,-10.66,-11.99,11.99,10.29,11.14,1.30,1.33,1.33
48.01,-10.54,-11.87,-10.49,-11.80,11.80,10.06,10.90,1.26,1.31,1.33
48.49,-10.32,-11.63,-10.31,-11.61,11.61,9.84,10.66,1.29,1.30,1.31
48.97,-10.11,-11.39,-10.13,-11.41,11.41,9.61,10.42,1.31,1.28,1.28
49.46,-9.94,-11.20,-9.96,-11.22,11.22,9.40,10.19,1.29,1.27,1.26
49.96,-9.77,-11.01,-9.79,-11.04,11.04,9.18,9.96,1.27,1.25,1.24
50.46,-9.60,-10.83,-9.62,-10.85,10.85,8.98,9.73,1.25,1.23,1.23
50.96,-9.43,-10.65,-9.45,-10.67,10.67,8.77,9.51,1.24,1.22,1.22
51.47,-9.26,-10.45,-9.28,-10.48,10.48,8.57,9.29,1.22,1.20,1.19
51.99,-9.08,-10.26,-9.11,-10.30,10.30,8.38,9.07,1.21,1.19,1.18
52.51,-8.94,-10.11,-8.94,-10.11,10.11,8.19,8.85,1.17,1.17,1.17
53.03,-8.79,-9.95,-8.77,-9.93,9.93,8.00,8.64,1.14,1.16,1.16
53.56,-8.63,-9.77,-8.61,-9.75,9.75,7.82,8.43,1.12,1.14,1.15
54.10,-8.46,-9.59,-8.45,-9.57,9.57,7.64,8.23,1.11,1.13,1.13
54.64,-8.32,-9.43,-8.28,-9.39,9.39,7.46,8.03,1.07,1.11,1.11
55.18,-8.15,-9.25,-8.11,-9.21,9.21,7.29,7.83,1.06,1.10,1.10
55.74,-7.93,-9.01,-7.94,-9.02,9.02,7.12,7.63,1.09,1.08,1.08
56.29,-7.74,-8.81,-7.77,-8.84,8.84,6.96,7.44,1.10,1.07,1.07
56.86,-7.59,-8.64,-7.60,-8.65,8.65,6.80,7.26,1.06,1.05,1.05
57.42,-7.44,-8.45,-7.43,-8.46,8.46,6.64,7.07,1.02,1.03,1.01
58.00,-7.29,-8.29,-7.27,-8.27,8.27,6.49,6.90,0.98,1.00,1.00
58.58,-7.10,-8.09,-7.10,-8.08,8.08,6.34,6.72,0.98,0.98,0.99
59.16,-6.91,-7.87,-6.93,-7.88,7.88,6.19,6.55,0.97,0.95,0.96
59.76,-6.73,-7.67,-6.77,-7.69,7.69,6.05,6.39,0.96,0.92,0.94
60.35,-6.58,-7.47,-6.61,-7.49,7.49,5.91,6.23,0.91,0.88,0.89
60.96,-6.45,-7.31,-6.45,-7.30,7.30,5.77,6.07,0.85,0.84,0.86
61.57,-6.33,-7.14,-6.31,-7.11,7.11,5.64,5.93,0.78,0.80,0.81
62.18,-6.19,-6.95,-6.16,-6.92,6.92,5.51,5.78,0.73,0.76,0.76
62.80,-6.02,-6.73,-6.02,-6.73,6.73,5.38,5.64,0.72,0.72,0.71
63.43,-5.87,-6.53,-5.88,-6.54,6.54,5.25,5.51,0.67,0.67,0.66
64.07,-5.72,-6.33,-5.73,-6.35,6.35,5.13,5.37,0.63,0.62,0.61
64.71,-5.58,-6.14,-5.59,-6.16,6.16,5.01,5.25,0.58,0.57,0.56
65.35,-5.45,-5.96,-5.45,-5.97,5.97,4.89,5.13,0.52,0.52,0.51
66.01,-5.33,-5.79,-5.32,-5.78,5.78,4.77,5.01,0.45,0.46,0.46
66.67,-5.20,-5.61,-5.18,-5.59,5.59,4.66,4.90,0.39,0.41,0.41
67.33,-5.08,-5.43,-5.05,-5.41,5.41,4.55,4.79,0.33,0.36,0.35
68.01,-4.95,-5.25,-4.92,-5.22,5.22,4.44,4.68,0.27,0.30,0.30
68.69,-4.79,-5.04,-4.79,-5.03,5.03,4.33,4.58,0.24,0.24,0.25
69.37,-4.64,-4.83,-4.67,-4.85,4.85,4.23,4.48,0.21,0.19,0.19
70.07,-4.49,-4.62,-4.54,-4.67,4.67,4.12,4.38,0.18,0.13,0.13
70.77,-4.37,-4.45,-4.42,-4.49,4.49,4.02,4.29,0.12,0.07,0.08
71.48,-4.27,-4.29,-4.30,-4.30,4.30,3.92,4.20,0.04,0.01,0.02
72.19,-4.18,-4.12,-4.17,-4.12,4.12,3.83,4.11,-0.06,-0.06,-0.05
72.91,-4.12,-4.00,-4.05,-3.93,3.93,3.73,4.02,-0.19,-0.12,-0.12
73.64,-3.96,-3.78,-3.92,-3.74,3.74,3.64,3.93,-0.22,-0.18,-0.18
74.38,-3.82,-3.57,-3.80,-3.56,3.56,3.55,3.85,-0.26,-0.24,-0.25
75.12,-3.71,-3.40,-3.68,-3.38,3.38,3.46,3.76,-0.33,-0.31,-0.31
75.87,-3.59,-3.21,-3.56,-3.19,3.19,3.37,3.68,-0.39,-0.37,-0.38
76.63,-3.44,-3.00,-3.45,-3.01,3.01,3.28,3.60,-0.42,-0.43,-0.44
77.40,-3.31,-2.81,-3.33,-2.84,2.84,3.20,3.51,-0.47,-0.49,-0.50
78.17,-3.19,-2.62,-3.21,-2.66,2.66,3.11,3.43,-0.53,-0.55,-0.57
78.95,-3.06,-2.45,-3.09,-2.47,2.47,3.03,3.35,-0.58,-0.61,-0.61
79.74,-2.95,-2.28,-2.97,-2.30,2.30,2.95,3.26,-0.65,-0.67,-0.67
80.54,-2.88,-2.16,-2.86,-2.13,2.13,2.87,3.18,-0.75,-0.73,-0.72
81.35,-2.78,-1.99,-2.74,-1.96,1.96,2.79,3.09,-0.82,-0.78,-0.79
82.16,-2.64,-1.80,-2.64,-1.80,1.80,2.71,3.01,-0.84,-0.84,-0.84
82.98,-2.53,-1.64,-2.54,-1.64,1.64,2.64,2.92,-0.89,-0.89,-0.89
83.81,-2.44,-1.49,-2.44,-1.49,1.49,2.56,2.84,-0.95,-0.95,-0.95
84.65,-2.35,-1.34,-2.36,-1.35,1.35,2.49,2.75,-1.00,-1.01,-1.01
85.50,-2.27,-1.21,-2.28,-1.21,1.21,2.42,2.66,-1.06,-1.07,-1.06
86.35,-2.18,-1.06,-2.20,-1.08,1.08,2.35,2.57,-1.10,-1.12,-1.12
87.22,-2.11,-0.93,-2.13,-0.95,0.95,2.28,2.48,-1.16,-1.18,-1.18
88.09,-2.10,-0.86,-2.07,-0.82,0.82,2.21,2.39,-1.28,-1.24,-1.24
88.97,-1.95,-0.65,-2.00,-0.70,0.70,2.14,2.29,-1.25,-1.30,-1.30
89.86,-1.91,-0.55,-1.94,-0.58,0.58,2.07,2.20,-1.33,-1.36,-1.36
90.76,-1.92,-0.50,-1.89,-0.47,0.47,2.00,2.10,-1.45,-1.42,-1.42
91.66,-1.90,-0.42,-1.85,-0.37,0.37,1.94,2.01,-1.53,-1.48,-1.48
92.58,-1.85,-0.30,-1.81,-0.27,0.27,1.87,1.91,-1.58,-1.54,-1.55
93.51,-1.77,-0.16,-1.77,-0.17,0.17,1.81,1.81,-1.60,-1.60,-1.60
94.44,-1.72,-0.06,-1.73,-0.07,0.07,1.75,1.71,-1.65,-1.66,-1.66
95.39,-1.71,0.01,-1.70,0.02,-0.02,1.68,1.61,-1.73,-1.72,-1.71
96.34,-1.68,0.10,-1.67,0.11,-0.11,1.62,1.50,-1.78,-1.78,-1.78
97.30,-1.62,0.22,-1.65,0.18,-0.18,1.56,1.40,-1.80,-1.83,-1.84
98.28,-1.63,0.26,-1.63,0.26,-0.26,1.50,1.30,-1.89,-1.89,-1.89
99.26,-1.64,0.31,-1.63,0.32,-0.32,1.44,1.19,-1.96,-1.95,-1.95
100.25,-1.66,0.35,-1.63,0.38,-0.38,1.38,1.09,-2.04,-2.01,-2.01
101.25,-1.66,0.41,-1.64,0.42,-0.42,1.32,0.98,-2.08,-2.07,-2.06
102.27,-1.62,0.50,-1.67,0.46,-0.46,1.26,0.87,-2.08,-2.12,-2.12
103.29,-1.62,0.57,-1.70,0.48,-0.48,1.20,0.77,-2.10,-2.18,-2.19
104.32,-1.66,0.58,-1.74,0.50,-0.50,1.14,0.66,-2.16,-2.24,-2.24
105.37,-1.76,0.54,-1.78,0.52,-0.52,1.08,0.55,-2.28,-2.30,-2.30
106.42,-1.84,0.51,-1.83,0.54,-0.54,1.02,0.45,-2.37,-2.36,-2.35
107.48,-1.90,0.52,-1.88,0.54,-0.54,0.97,0.34,-2.44,-2.43,-2.42
108.56,-1.95,0.54,-1.94,0.55,-0.55,0.91,0.24,-2.50,-2.49,-2.49
109.64,-2.05,0.50,-2.00,0.55,-0.55,0.85,0.13,-2.59,-2.55,-2.55
110.74,-2.13,0.48,-2.07,0.55,-0.55,0.79,0.03,-2.67,-2.61,-2.61
111.85,-2.17,0.49,-2.12,0.55,-0.55,0.74,-0.07,-2.72,-2.67,-2.66
112.97,-2.19,0.55,-2.19,0.54,-0.54,0.68,-0.17,-2.73,-2.73,-2.74
114.10,-2.20,0.59,-2.24,0.55,-0.55,0.62,-0.26,-2.75,-2.79,-2.79
115.24,-2.27,0.58,-2.29,0.56,-0.56,0.56,-0.36,-2.82,-2.85,-2.85
116.39,-2.32,0.60,-2.33,0.57,-0.57,0.51,-0.45,-2.89,-2.90,-2.92
117.55,-2.39,0.57,-2.36,0.59,-0.59,0.45,-0.54,-2.98,-2.95,-2.96
118.73,-2.46,0.56,-2.40,0.61,-0.61,0.39,-0.62,-3.07,-3.00,-3.02
119.92,-2.52,0.53,-2.43,0.63,-0.63,0.33,-0.70,-3.15,-3.05,-3.05
121.12,-2.50,0.61,-2.46,0.64,-0.64,0.27,-0.78,-3.14,-3.10,-3.10
122.33,-2.46,0.69,-2.50,0.64,-0.64,0.22,-0.86,-3.10,-3.14,-3.15
123.55,-2.52,0.66,-2.55,0.64,-0.64,0.16,-0.93,-3.16,-3.19,-3.18
124.79,-2.59,0.63,-2.61,0.62,-0.62,0.10,-0.99,-3.21,-3.23,-3.22
126.03,-2.56,0.70,-2.68,0.58,-0.58,0.04,-1.06,-3.14,-3.27,-3.26
127.29,-2.66,0.64,-2.74,0.57,-0.57,-0.02,-1.12,-3.23,-3.31,-3.29
128.57,-2.73,0.62,-2.77,0.57,-0.57,-0.09,-1.17,-3.30,-3.35,-3.34
129.85,-2.79,0.59,-2.82,0.57,-0.57,-0.15,-1.22,-3.36,-3.38,-3.38
131.15,-2.91,0.51,-2.88,0.54,-0.54,-0.21,-1.27,-3.45,-3.42,-3.42
132.46,-3.04,0.42,-2.95,0.51,-0.51,-0.27,-1.32,-3.55,-3.46,-3.46
133.79,-3.18,0.32,-3.03,0.47,-0.47,-0.34,-1.36,-3.65,-3.50,-3.50
135.12,-3.20,0.34,-3.12,0.41,-0.41,-0.40,-1.40,-3.61,-3.53,-3.54
136.48,-3.27,0.30,-3.22,0.35,-0.35,-0.47,-1.44,-3.62,-3.57,-3.57
137.84,-3.38,0.23,-3.32,0.29,-0.29,-0.54,-1.47,-3.67,-3.60,-3.61
139.22,-3.22,0.43,-3.40,0.24,-0.24,-0.60,-1.50,-3.46,-3.64,-3.65
140.61,-3.10,0.60,-3.48,0.20,-0.20,-0.67,-1.53,-3.30,-3.68,-3.70
142.02,-3.43,0.29,-3.57,0.15,-0.15,-0.74,-1.56,-3.58,-3.72,-3.72
143.44,-3.81,-0.05,-3.68,0.08,-0.08,-0.82,-1.59,-3.89,-3.76,-3.76
144.87,-3.98,-0.17,-3.78,0.03,-0.03,-0.89,-1.62,-4.01,-3.81,-3.81
146.32,-3.95,-0.09,-3.88,-0.01,0.01,-0.96,-1.65,-3.94,-3.86,-3.86
147.78,-4.04,-0.15,-3.97,-0.05,0.05,-1.04,-1.68,-3.99,-3.92,-3.89
149.26,-4.10,-0.15,-4.07,-0.09,0.09,-1.12,-1.71,-4.01,-3.98,-3.95
150.75,-4.16,-0.13,-4.19,-0.14,0.14,-1.20,-1.74,-4.02,-4.05,-4.02
152.26,-4.13,-0.03,-4.31,-0.19,0.19,-1.28,-1.77,-3.94,-4.12,-4.10
153.78,-4.18,-0.01,-4.45,-0.26,0.26,-1.36,-1.80,-3.92,-4.19,-4.17
155.32,-4.52,-0.26,-4.61,-0.34,0.34,-1.45,-1.83,-4.18,-4.27,-4.25
156.88,-4.75,-0.41,-4.73,-0.38,0.38,-1.53,-1.86,-4.36,-4.35,-4.34
158.44,-4.70,-0.27,-4.77,-0.35,0.35,-1.62,-1.90,-4.35,-4.42,-4.43
160.03,-4.49,0.03,-4.78,-0.28,0.28,-1.71,-1.93,-4.21,-4.50,-4.52
161.63,-4.56,0.04,-4.72,-0.15,0.15,-1.81,-1.97,-4.41,-4.57,-4.59
163.24,-4.73,-0.07,-4.60,0.04,-0.04,-1.90,-2.01,-4.77,-4.64,-4.66
164.88,-4.76,-0.04,-4.39,0.31,-0.31,-2.00,-2.05,-5.07,-4.70,-4.72
166.53,-4.72,0.06,-4.10,0.66,-0.66,-2.09,-2.10,-5.38,-4.76,-4.77
168.19,-4.51,0.31,-3.75,1.05,-1.05,-2.20,-2.15,-5.56,-4.80,-4.82
169.87,-4.19,0.68,-3.36,1.48,-1.48,-2.30,-2.20,-5.66,-4.84,-4.86
171.57,-3.39,1.50,-2.93,1.95,-1.95,-2.40,-2.25,-5.34,-4.87,-4.89
173.29,-2.46,2.45,-2.46,2.44,-2.44,-2.51,-2.31,-4.90,-4.90,-4.91
175.02,-1.62,3.30,-2.00,2.92,-2.92,-2.61,-2.36,-4.54,-4.92,-4.92
176.77,-1.16,3.78,-1.56,3.37,-3.37,-2.72,-2.42,-4.53,-4.93,-4.94
178.54,-0.46,4.49,-1.15,3.79,-3.79,-2.83,-2.49,-4.25,-4.95,-4.95
180.32,-0.17,4.78,-0.80,4.16,-4.16,-2.94,-2.55,-4.33,-4.96,-4.95
182.13,0.02,4.97,-0.51,4.46,-4.46,-3.05,-2.62,-4.44,-4.97,-4.95
183.95,0.19,5.15,-0.30,4.68,-4.68,-3.16,-2.69,-4.49,-4.98,-4.96
185.79,-0.17,4.80,-0.17,4.82,-4.82,-3.27,-2.77,-4.99,-4.99,-4.97
187.65,-0.17,4.82,-0.14,4.87,-4.87,-3.38,-2.84,-5.04,-5.01,-4.99
189.52,-0.02,4.99,-0.16,4.85,-4.85,-3.48,-2.92,-4.87,-5.02,-5.01
191.42,-0.29,4.74,-0.26,4.78,-4.78,-3.59,-3.00,-5.07,-5.04,-5.03
193.33,-0.54,4.52,-0.40,4.66,-4.66,-3.69,-3.09,-5.20,-5.06,-5.06
195.27,-0.78,4.30,-0.55,4.53,-4.53,-3.78,-3.17,-5.31,-5.08,-5.08
197.22,-1.11,3.99,-0.69,4.41,-4.41,-3.88,-3.26,-5.52,-5.10,-5.10
199.19,-1.30,3.83,-0.84,4.29,-4.29,-3.96,-3.35,-5.59,-5.12,-5.13
201.18,-1.19,3.96,-0.98,4.16,-4.16,-4.05,-3.44,-5.35,-5.15,-5.15
203.19,-1.15,4.02,-1.12,4.05,-4.05,-4.13,-3.53,-5.20,-5.17,-5.17
205.23,-1.07,4.13,-1.24,3.95,-3.95,-4.20,-3.62,-5.02,-5.20,-5.20
207.28,-1.06,4.15,-1.34,3.89,-3.89,-4.27,-3.71,-4.94,-5.22,-5.21
209.35,-0.98,4.26,-1.42,3.83,-3.83,-4.33,-3.80,-4.81,-5.24,-5.24
211.44,-1.25,4.02,-1.45,3.81,-3.81,-4.38,-3.90,-5.06,-5.26,-5.27
213.56,-1.49,3.79,-1.44,3.84,-3.84,-4.43,-3.99,-5.33,-5.28,-5.28
215.69,-1.47,3.83,-1.40,3.89,-3.89,-4.48,-4.08,-5.36,-5.30,-5.30
217.85,-1.55,3.76,-1.35,3.97,-3.97,-4.52,-4.16,-5.52,-5.31,-5.31
220.03,-1.72,3.61,-1.28,4.05,-4.05,-4.55,-4.25,-5.77,-5.32,-5.33
222.23,-1.74,3.61,-1.21,4.12,-4.12,-4.58,-4.33,-5.86,-5.33,-5.35
224.45,-1.36,3.99,-1.15,4.19,-4.19,-4.61,-4.41,-5.55,-5.34,-5.34
226.70,-1.09,4.26,-1.08,4.27,-4.27,-4.63,-4.49,-5.35,-5.34,-5.35
228.96,-0.87,4.47,-0.99,4.35,-4.35,-4.64,-4.56,-5.22,-5.34,-5.34
231.25,-0.55,4.79,-0.89,4.44,-4.44,-4.65,-4.62,-4.99,-5.33,-5.33
233.57,-0.42,4.91,-0.79,4.54,-4.54,-4.66,-4.68,-4.96,-5.33,-5.33
235.90,-0.47,4.85,-0.67,4.65,-4.65,-4.66,-4.73,-5.11,-5.31,-5.32
238.26,-0.46,4.85,-0.57,4.73,-4.73,-4.66,-4.78,-5.19,-5.30,-5.31
240.64,-0.44,4.85,-0.49,4.80,-4.80,-4.66,-4.82,-5.24,-5.28,-5.29
243.05,-0.46,4.80,-0.42,4.84,-4.84,-4.65,-4.85,-5.30,-5.26,-5.26
245.48,-0.48,4.76,-0.38,4.86,-4.86,-4.63,-4.87,-5.34,-5.24,-5.24
247.93,-0.48,4.73,-0.38,4.84,-4.84,-4.62,-4.88,-5.32,-5.22,-5.21
250.41,-0.46,4.74,-0.41,4.79,-4.79,-4.59,-4.89,-5.25,-5.20,-5.20
252.92,-0.45,4.72,-0.45,4.73,-4.73,-4.57,-4.88,-5.18,-5.18,-5.17
255.45,-0.46,4.69,-0.48,4.67,-4.67,-4.54,-4.87,-5.13,-5.16,-5.15
258.00,-0.51,4.62,-0.52,4.61,-4.61,-4.50,-4.85,-5.12,-5.13,-5.13
260.58,-0.52,4.60,-0.55,4.56,-4.56,-4.47,-4.82,-5.08,-5.11,-5.11
263.19,-0.57,4.51,-0.58,4.51,-4.51,-4.43,-4.79,-5.08,-5.09,-5.08
265.82,-0.62,4.45,-0.61,4.46,-4.46,-4.38,-4.74,-5.08,-5.06,-5.07
268.48,-0.70,4.35,-0.64,4.40,-4.40,-4.33,-4.69,-5.10,-5.04,-5.05
271.16,-0.73,4.29,-0.68,4.34,-4.34,-4.28,-4.63,-5.07,-5.02,-5.01
273.87,-0.73,4.27,-0.72,4.28,-4.28,-4.23,-4.57,-5.01,-4.99,-5.00
276.61,-0.73,4.24,-0.75,4.22,-4.22,-4.17,-4.50,-4.94,-4.97,-4.97
279.38,-0.76,4.19,-0.79,4.15,-4.15,-4.11,-4.43,-4.91,-4.94,-4.94
282.17,-0.81,4.11,-0.83,4.09,-4.09,-4.05,-4.35,-4.90,-4.92,-4.92
284.99,-0.87,4.02,-0.86,4.03,-4.03,-3.99,-4.27,-4.90,-4.89,-4.89
287.84,-0.92,3.95,-0.89,3.97,-3.97,-3.92,-4.19,-4.89,-4.86,-4.87
290.72,-0.91,3.93,-0.92,3.91,-3.91,-3.86,-4.10,-4.82,-4.83,-4.84
293.63,-0.98,3.83,-0.95,3.86,-3.86,-3.79,-4.01,-4.84,-4.81,-4.81
296.57,-1.02,3.76,-0.98,3.80,-3.80,-3.72,-3.92,-4.82,-4.78,-4.78
299.53,-1.06,3.69,-1.02,3.74,-3.74,-3.65,-3.83,-4.80,-4.75,-4.75
302.53,-1.06,3.68,-1.06,3.67,-3.67,-3.58,-3.73,-4.73,-4.73,-4.74
305.55,-1.05,3.64,-1.10,3.60,-3.60,-3.51,-3.64,-4.65,-4.70,-4.69
308.61,-1.11,3.57,-1.15,3.53,-3.53,-3.44,-3.55,-4.63,-4.68,-4.68
311.69,-1.15,3.50,-1.20,3.45,-3.45,-3.37,-3.46,-4.60,-4.66,-4.65
314.81,-1.23,3.39,-1.26,3.38,-3.38,-3.30,-3.36,-4.61,-4.64,-4.62
317.96,-1.30,3.31,-1.31,3.30,-3.30,-3.23,-3.27,-4.60,-4.62,-4.61
321.14,-1.37,3.23,-1.37,3.22,-3.22,-3.16,-3.18,-4.59,-4.60,-4.60
324.35,-1.43,3.16,-1.44,3.14,-3.14,-3.09,-3.10,-4.57,-4.58,-4.58
327.59,-1.56,3.01,-1.51,3.06,-3.06,-3.02,-3.01,-4.62,-4.57,-4.57
330.87,-1.62,2.94,-1.58,2.98,-2.98,-2.95,-2.92,-4.60,-4.55,-4.56
334.18,-1.64,2.91,-1.66,2.89,-2.89,-2.89,-2.84,-4.53,-4.54,-4.54
337.52,-1.72,2.82,-1.73,2.80,-2.80,-2.82,-2.76,-4.52,-4.53,-4.54
340.90,-1.81,2.71,-1.81,2.72,-2.72,-2.76,-2.68,-4.53,-4.53,-4.52
344.30,-1.86,2.65,-1.87,2.65,-2.65,-2.69,-2.60,-4.51,-4.52,-4.51
347.75,-1.92,2.60,-1.94,2.58,-2.58,-2.63,-2.52,-4.50,-4.52,-4.52
351.23,-1.99,2.52,-1.99,2.52,-2.52,-2.57,-2.45,-4.51,-4.51,-4.51
354.74,-2.05,2.46,-2.04,2.46,-2.46,-2.51,-2.37,-4.51,-4.51,-4.51
358.28,-2.12,2.38,-2.09,2.42,-2.42,-2.45,-2.30,-4.54,-4.51,-4.50
361.87,-2.18,2.33,-2.12,2.38,-2.38,-2.40,-2.23,-4.56,-4.50,-4.51
365.49,-2.21,2.29,-2.15,2.35,-2.35,-2.34,-2.17,-4.56,-4.50,-4.50
369.14,-2.22,2.29,-2.18,2.32,-2.32,-2.29,-2.10,-4.54,-4.50,-4.51
372.83,-2.21,2.30,-2.21,2.30,-2.30,-2.24,-2.04,-4.50,-4.51,-4.51
376.56,-2.24,2.28,-2.24,2.27,-2.27,-2.19,-1.98,-4.51,-4.51,-4.51
380.33,-2.23,2.28,-2.26,2.26,-2.26,-2.14,-1.92,-4.49,-4.51,-4.51
384.13,-2.27,2.24,-2.28,2.24,-2.24,-2.09,-1.86,-4.51,-4.52,-4.51
387.97,-2.28,2.24,-2.30,2.22,-2.22,-2.04,-1.81,-4.50,-4.52,-4.52
391.85,-2.28,2.25,-2.32,2.21,-2.21,-2.00,-1.75,-4.49,-4.53,-4.53
395.77,-2.29,2.23,-2.35,2.18,-2.18,-1.96,-1.70,-4.47,-4.53,-4.52
399.73,-2.37,2.17,-2.39,2.15,-2.15,-1.91,-1.65,-4.52,-4.54,-4.53
403.72,-2.44,2.10,-2.43,2.11,-2.11,-1.87,-1.60,-4.55,-4.55,-4.54
407.76,-2.49,2.06,-2.48,2.07,-2.07,-1.83,-1.56,-4.56,-4.55,-4.55
411.84,-2.51,2.04,-2.53,2.02,-2.02,-1.80,-1.51,-4.53,-4.55,-4.55
415.96,-2.56,1.99,-2.59,1.97,-1.97,-1.76,-1.47,-4.53,-4.55,-4.55
420.12,-2.61,1.94,-2.63,1.92,-1.92,-1.72,-1.43,-4.53,-4.55,-4.55
